1702490257.4308546,-6.0,-20.0,-31.0,13.0,2.0,2.0,-1.0,-1.0
1702490257.4308546,1.0,-2.0,-10.0,-17.0,-5.0,-1.0,-1.0,-1.0
1702490257.4308546,-3.0,7.0,1.0,5.0,-2.0,-1.0,-1.0,-1.0
1702490257.4308546,-4.0,-3.0,-2.0,2.0,-3.0,-5.0,-4.0,-4.0
1702490257.460853,6.0,27.0,-22.0,-4.0,0.0,1.0,-1.0,2.0
1702490257.460853,-4.0,-11.0,52.0,11.0,5.0,1.0,0.0,-2.0
1702490257.460853,1.0,-13.0,26.0,4.0,-2.0,1.0,-1.0,1.0
1702490257.460853,0.0,-6.0,-53.0,-18.0,-3.0,0.0,0.0,0.0
1702490257.4709504,-2.0,9.0,29.0,12.0,-6.0,-4.0,-2.0,-1.0
1702490257.4709504,3.0,0.0,21.0,6.0,-1.0,-1.0,1.0,-1.0
1702490257.4709504,-1.0,6.0,31.0,2.0,2.0,0.0,1.0,0.0
1702490257.4709504,-2.0,10.0,17.0,-18.0,-3.0,0.0,-2.0,-1.0
1702490257.4908614,-2.0,-15.0,-92.0,0.0,0.0,1.0,0.0,0.0
1702490257.4908614,5.0,25.0,2.0,0.0,5.0,3.0,0.0,0.0
1702490257.4908614,-1.0,-8.0,31.0,10.0,-1.0,-4.0,-4.0,-1.0
1702490257.4908614,1.0,-6.0,-48.0,-5.0,-1.0,2.0,1.0,1.0
1702490257.5289655,-5.0,9.0,29.0,-3.0,0.0,-2.0,-1.0,-4.0
1702490257.5289655,1.0,2.0,10.0,-1.0,-3.0,0.0,-2.0,-1.0
1702490257.5289655,-4.0,-1.0,-61.0,-7.0,-4.0,-2.0,-4.0,-3.0
1702490257.5289655,-1.0,-6.0,-12.0,2.0,0.0,-1.0,0.0,0.0
1702490257.5289655,3.0,6.0,23.0,-5.0,-6.0,-2.0,0.0,1.0
1702490257.5289655,-10.0,-36.0,-48.0,5.0,6.0,2.0,0.0,-2.0
1702490257.5289655,4.0,24.0,40.0,1.0,-3.0,-1.0,0.0,-1.0
1702490257.5289655,-5.0,-5.0,6.0,14.0,3.0,0.0,0.0,-2.0
1702490257.549309,4.0,6.0,-78.0,-11.0,-2.0,-4.0,-2.0,-1.0
1702490257.549309,-12.0,-24.0,52.0,-2.0,-4.0,-1.0,-1.0,-2.0
1702490257.549309,0.0,-2.0,-13.0,-7.0,-5.0,-2.0,-4.0,-2.0
1702490257.549309,1.0,-2.0,12.0,-10.0,3.0,0.0,1.0,-1.0
1702490257.568969,3.0,10.0,27.0,2.0,-4.0,-4.0,-2.0,-2.0
1702490257.568969,-1.0,3.0,39.0,-1.0,-3.0,-3.0,-1.0,0.0
1702490257.568969,3.0,-1.0,-53.0,-1.0,-1.0,-3.0,-3.0,-3.0
1702490257.568969,3.0,8.0,20.0,-3.0,2.0,-1.0,0.0,-1.0
1702490257.5894125,-6.0,-14.0,86.0,10.0,0.0,0.0,0.0,0.0
1702490257.5894125,9.0,18.0,-68.0,0.0,-2.0,-4.0,-2.0,-2.0
1702490257.5894125,-10.0,-27.0,-35.0,5.0,4.0,1.0,1.0,-3.0
1702490257.5894125,1.0,2.0,-4.0,-5.0,1.0,-1.0,-2.0,-2.0
1702490257.6094112,-5.0,-1.0,57.0,3.0,-2.0,-1.0,-3.0,-2.0
1702490257.6094112,4.0,8.0,-6.0,4.0,0.0,-1.0,-2.0,0.0
1702490257.6094112,-1.0,7.0,19.0,0.0,-2.0,-2.0,1.0,-3.0
1702490257.6094112,-4.0,-9.0,-22.0,10.0,4.0,2.0,-1.0,2.0
1702490257.6289306,-4.0,-9.0,-18.0,-1.0,2.0,-1.0,-1.0,-2.0
1702490257.6289306,-3.0,4.0,46.0,2.0,-3.0,0.0,-1.0,-1.0
1702490257.6289306,-5.0,-23.0,-50.0,-8.0,1.0,-1.0,-1.0,-1.0
1702490257.6289306,0.0,6.0,16.0,0.0,-3.0,-2.0,-2.0,-2.0
1702490257.6491678,-4.0,-12.0,-11.0,5.0,4.0,4.0,-1.0,-1.0
1702490257.6491678,2.0,10.0,-9.0,-5.0,0.0,0.0,0.0,0.0
1702490257.6491678,1.0,3.0,7.0,-7.0,-2.0,1.0,0.0,2.0
1702490257.6491678,-4.0,-6.0,38.0,2.0,-6.0,-1.0,-1.0,0.0
1702490257.6989288,3.0,0.0,-54.0,-11.0,0.0,-2.0,-2.0,-2.0
1702490257.6989288,1.0,11.0,-23.0,10.0,-2.0,-3.0,-2.0,-3.0
1702490257.6989288,-1.0,3.0,21.0,-7.0,-1.0,0.0,1.0,0.0
1702490257.6989288,-6.0,-9.0,26.0,13.0,1.0,-1.0,1.0,-2.0
1702490257.6989288,3.0,22.0,-37.0,-8.0,-7.0,-8.0,-5.0,-3.0
1702490257.6989288,-14.0,-44.0,5.0,-4.0,0.0,3.0,1.0,-2.0
1702490257.6989288,4.0,15.0,-19.0,6.0,3.0,0.0,0.0,1.0
1702490257.6989288,-2.0,2.0,31.0,-7.0,1.0,6.0,3.0,-1.0
1702490257.709255,-7.0,-13.0,-3.0,3.0,-4.0,1.0,3.0,0.0
1702490257.709255,15.0,49.0,46.0,-9.0,-9.0,-8.0,-6.0,-1.0
1702490257.709255,-17.0,-54.0,-70.0,-4.0,2.0,2.0,2.0,-1.0
1702490257.709255,3.0,6.0,-1.0,3.0,-2.0,-5.0,-6.0,-2.0
1702490257.738928,-2.0,-3.0,23.0,-6.0,-2.0,-1.0,-1.0,-1.0
1702490257.738928,-13.0,-32.0,-30.0,-19.0,-1.0,7.0,4.0,-1.0
1702490257.738928,11.0,27.0,25.0,8.0,-2.0,-3.0,-3.0,0.0
1702490257.738928,-4.0,5.0,-31.0,-7.0,-6.0,-1.0,-2.0,-1.0
1702490257.7491484,-8.0,-31.0,-1.0,1.0,4.0,0.0,0.0,-1.0
1702490257.7491484,5.0,10.0,11.0,-2.0,-2.0,-3.0,-1.0,1.0
1702490257.7491484,1.0,15.0,35.0,-9.0,-2.0,-4.0,-2.0,-1.0
1702490257.7491484,-2.0,-7.0,9.0,5.0,-5.0,-7.0,-4.0,-4.0
1702490257.7693155,-2.0,-6.0,50.0,18.0,1.0,2.0,2.0,2.0
1702490257.7693155,2.0,19.0,7.0,-1.0,5.0,1.0,0.0,-1.0
1702490257.7693155,-3.0,2.0,57.0,8.0,-4.0,0.0,-1.0,-1.0
1702490257.7693155,2.0,-14.0,-75.0,-1.0,2.0,1.0,1.0,0.0
1702490257.7889328,6.0,25.0,-62.0,-38.0,-12.0,-4.0,-5.0,-6.0
1702490257.7889328,2.0,3.0,45.0,35.0,5.0,1.0,-1.0,0.0
1702490257.7889328,8.0,21.0,15.0,1.0,0.0,-4.0,-5.0,-2.0
1702490257.7889328,-12.0,-33.0,-43.0,-18.0,-6.0,2.0,2.0,-2.0
1702490257.8089318,-2.0,4.0,-12.0,7.0,-2.0,0.0,-2.0,-3.0
1702490257.8089318,8.0,13.0,23.0,-2.0,-2.0,-6.0,-3.0,0.0
1702490257.8089318,-4.0,-12.0,-66.0,-13.0,-3.0,1.0,-2.0,0.0
1702490257.8089318,6.0,30.0,6.0,-9.0,-5.0,-7.0,-6.0,-1.0
1702490257.8293123,-9.0,-17.0,22.0,-8.0,7.0,7.0,3.0,1.0
1702490257.8293123,12.0,33.0,17.0,38.0,-5.0,-14.0,-10.0,-4.0
1702490257.8293123,-18.0,-41.0,-26.0,-3.0,2.0,8.0,7.0,2.0
1702490257.8293123,2.0,21.0,68.0,16.0,3.0,-6.0,-4.0,-1.0
1702490257.8589282,6.0,18.0,-33.0,-27.0,-15.0,-18.0,-11.0,-5.0
1702490257.8589282,-11.0,-44.0,6.0,52.0,18.0,13.0,10.0,6.0
1702490257.8589282,5.0,15.0,50.0,-4.0,-1.0,-1.0,-2.0,-1.0
1702490257.8589282,8.0,25.0,-77.0,-20.0,-7.0,-4.0,-4.0,-2.0
1702490257.869119,-12.0,-41.0,64.0,21.0,10.0,5.0,6.0,6.0
1702490257.869119,7.0,13.0,-65.0,-28.0,-11.0,-8.0,-6.0,-3.0
1702490257.869119,-1.0,0.0,2.0,-13.0,0.0,1.0,0.0,1.0
1702490257.869119,17.0,25.0,-71.0,14.0,0.0,-7.0,-6.0,-4.0
1702490257.8889308,-8.0,-26.0,30.0,10.0,1.0,1.0,0.0,1.0
1702490257.8889308,6.0,26.0,-16.0,-18.0,-2.0,-5.0,-6.0,-4.0
1702490257.8889308,-6.0,-33.0,30.0,17.0,7.0,6.0,5.0,5.0
1702490257.8889308,-1.0,16.0,29.0,-21.0,-6.0,-3.0,-4.0,-2.0
1702490257.9091516,10.0,21.0,-39.0,-1.0,-3.0,-4.0,-7.0,-3.0
1702490257.9091516,-10.0,-26.0,25.0,5.0,4.0,8.0,4.0,2.0
1702490257.9091516,5.0,30.0,31.0,3.0,-8.0,-13.0,-9.0,-5.0
1702490257.9091516,-4.0,-24.0,14.0,-8.0,6.0,8.0,4.0,1.0
1702490257.9290864,-10.0,-27.0,-41.0,-22.0,-3.0,6.0,5.0,0.0
1702490257.9290864,-1.0,6.0,2.0,-80.0,-14.0,-9.0,-4.0,-3.0
1702490257.9290864,-4.0,-20.0,25.0,38.0,11.0,13.0,8.0,4.0
1702490257.9290864,-2.0,-11.0,35.0,39.0,6.0,-2.0,2.0,2.0
1702490257.9516294,3.0,6.0,6.0,-2.0,-3.0,-3.0,2.0,1.0
1702490257.9526384,-7.0,-25.0,-23.0,-2.0,-5.0,-5.0,-1.0,-4.0
1702490257.9637985,2.0,23.0,-10.0,-38.0,-11.0,-4.0,-4.0,-4.0
1702490257.9637985,-9.0,-23.0,-50.0,6.0,0.0,0.0,-3.0,0.0
1702490257.973998,3.0,10.0,21.0,-6.0,-1.0,2.0,1.0,0.0
1702490257.973998,-6.0,-1.0,41.0,7.0,4.0,2.0,2.0,1.0
1702490257.973998,4.0,0.0,-94.0,-6.0,-5.0,-6.0,-5.0,-3.0
1702490257.973998,-4.0,-3.0,69.0,7.0,1.0,1.0,1.0,1.0
1702490257.984053,2.0,4.0,-43.0,-3.0,-3.0,-6.0,-4.0,-4.0
1702490257.984053,-5.0,-13.0,-2.0,0.0,-1.0,0.0,-1.0,-3.0
1702490257.9938018,-1.0,-2.0,10.0,10.0,2.0,2.0,2.0,0.0
1702490257.9938018,-2.0,8.0,17.0,-20.0,-7.0,-5.0,-2.0,-2.0
1702490258.0041692,-5.0,-7.0,22.0,4.0,1.0,3.0,2.0,0.0
1702490258.0041692,-1.0,-8.0,-33.0,2.0,3.0,2.0,1.0,0.0
1702490258.0041692,-3.0,-17.0,-55.0,-10.0,-4.0,-7.0,-4.0,-5.0
1702490258.0041692,-3.0,-6.0,27.0,-1.0,0.0,3.0,0.0,-1.0
1702490258.0344734,-1.0,11.0,-13.0,5.0,-1.0,0.0,0.0,-3.0
1702490258.0344734,-1.0,-3.0,-18.0,1.0,-1.0,1.0,1.0,-1.0
1702490258.0344734,3.0,7.0,22.0,-3.0,-2.0,-3.0,-1.0,12.0
1702490258.0344734,-9.0,-11.0,-19.0,-6.0,-1.0,-2.0,-3.0,-21.0
1702490258.04442,0.0,1.0,9.0,8.0,1.0,1.0,-2.0,-8.0
1702490258.04442,-3.0,-4.0,-3.0,-4.0,-2.0,-1.0,-1.0,0.0
1702490258.04442,-2.0,-8.0,-24.0,-4.0,-5.0,-6.0,-2.0,1.0
1702490258.04442,2.0,0.0,29.0,1.0,2.0,1.0,3.0,10.0
1702490258.0841784,2.0,1.0,-23.0,1.0,2.0,-4.0,-2.0,-4.0
1702490258.0841784,-2.0,-6.0,-15.0,3.0,0.0,2.0,-1.0,-6.0
1702490258.0841784,6.0,29.0,31.0,1.0,2.0,1.0,1.0,14.0
1702490258.0841784,-24.0,-52.0,9.0,-1.0,-2.0,-2.0,-4.0,-4.0
1702490258.094524,4.0,-1.0,-34.0,4.0,-4.0,0.0,-4.0,-31.0
1702490258.094524,-3.0,-3.0,5.0,-1.0,-1.0,0.0,-2.0,18.0
1702490258.094524,1.0,-14.0,-5.0,1.0,0.0,-4.0,-2.0,-2.0
1702490258.094524,3.0,16.0,-4.0,-11.0,-4.0,-3.0,-3.0,3.0
1702490258.1045237,0.0,6.0,7.0,11.0,4.0,4.0,2.0,9.0
1702490258.1045237,-2.0,-1.0,-2.0,3.0,-3.0,-5.0,-2.0,-12.0
1702490258.114491,0.0,-25.0,12.0,-1.0,1.0,3.0,0.0,-10.0
1702490258.114491,-3.0,-10.0,-7.0,-2.0,2.0,-1.0,1.0,11.0
1702490258.1241796,-9.0,-77.0,15.0,-6.0,0.0,-3.0,-2.0,-1.0
1702490258.1241796,0.0,-88.0,-13.0,0.0,0.0,1.0,0.0,-4.0
1702490258.1241796,-4.0,1.0,9.0,-3.0,-6.0,-4.0,-3.0,-6.0
1702490258.1241796,15.0,32.0,-6.0,0.0,-1.0,-1.0,1.0,4.0
1702490258.1544771,-6.0,119.0,9.0,-2.0,-5.0,-3.0,-4.0,0.0
1702490258.1544771,-5.0,121.0,-6.0,0.0,-1.0,-1.0,-3.0,-15.0
1702490258.1544771,-5.0,91.0,4.0,-2.0,0.0,1.0,-1.0,-8.0
1702490258.1544771,-1.0,60.0,1.0,1.0,1.0,2.0,1.0,-7.0
1702490258.1641824,4.0,55.0,41.0,3.0,1.0,-3.0,0.0,27.0
1702490258.1641824,-2.0,18.0,-54.0,-7.0,-5.0,-1.0,2.0,4.0
1702490258.1744092,-1.0,-6.0,15.0,0.0,0.0,-1.0,-2.0,-5.0
1702490258.1744092,5.0,1.0,2.0,0.0,0.0,3.0,1.0,1.0
1702490258.1841798,-4.0,-42.0,0.0,0.0,0.0,-4.0,2.0,3.0
1702490258.1841798,-2.0,-25.0,15.0,-2.0,2.0,-2.0,-1.0,-4.0
1702490258.1841798,-1.0,-39.0,-4.0,-3.0,-2.0,0.0,-3.0,4.0
1702490258.1841798,0.0,7.0,-1.0,4.0,1.0,2.0,0.0,-6.0
1702490258.2145107,-1.0,-15.0,-1.0,1.0,0.0,2.0,1.0,-3.0
1702490258.2145107,-2.0,-26.0,4.0,-2.0,-2.0,-3.0,-3.0,1.0
1702490258.2145107,0.0,-31.0,-7.0,0.0,-1.0,-3.0,-1.0,-2.0
1702490258.2145107,0.0,-35.0,14.0,3.0,0.0,1.0,-2.0,-3.0
1702490258.2245345,2.0,1.0,-16.0,-4.0,-2.0,0.0,-3.0,-1.0
1702490258.2245345,0.0,-3.0,5.0,-1.0,-2.0,-1.0,0.0,3.0
1702490258.2343495,-1.0,-7.0,5.0,0.0,1.0,-1.0,0.0,-3.0
1702490258.2343495,-2.0,-3.0,15.0,-1.0,-1.0,-2.0,-2.0,0.0
1702490258.2541795,1.0,-32.0,5.0,-2.0,0.0,-1.0,0.0,0.0
1702490258.2541795,-2.0,-31.0,-51.0,-2.0,0.0,1.0,-2.0,2.0
1702490258.2541795,-3.0,22.0,10.0,-3.0,-3.0,-3.0,-2.0,-4.0
1702490258.2541795,-2.0,-6.0,-6.0,-1.0,-1.0,0.0,-1.0,-1.0
1702490258.274538,1.0,-41.0,11.0,0.0,-1.0,-2.0,-1.0,-1.0
1702490258.274538,-2.0,8.0,16.0,-5.0,-2.0,-4.0,-2.0,-4.0
1702490258.274538,-2.0,-7.0,-6.0,0.0,-3.0,-1.0,-2.0,-5.0
1702490258.274538,-1.0,-21.0,-16.0,-1.0,-1.0,-3.0,0.0,0.0
1702490258.3141813,0.0,26.0,-11.0,1.0,-1.0,0.0,-1.0,-2.0
1702490258.3141813,0.0,-23.0,10.0,3.0,0.0,1.0,0.0,0.0
1702490258.3141813,1.0,-4.0,13.0,0.0,-1.0,-1.0,-1.0,-2.0
1702490258.3141813,-1.0,15.0,-10.0,-4.0,-4.0,-2.0,0.0,-1.0
1702490258.3141813,1.0,-3.0,-6.0,-1.0,-1.0,0.0,-2.0,1.0
1702490258.3141813,3.0,17.0,10.0,3.0,0.0,-2.0,-4.0,-1.0
1702490258.3141813,-2.0,-7.0,10.0,2.0,3.0,3.0,-1.0,-2.0
1702490258.3141813,-2.0,-11.0,-6.0,-3.0,-2.0,-2.0,-4.0,-4.0
1702490258.33449,0.0,4.0,1.0,-2.0,-2.0,-2.0,-2.0,-3.0
1702490258.33449,1.0,12.0,10.0,1.0,-1.0,0.0,0.0,1.0
1702490258.33449,-2.0,-11.0,-22.0,-4.0,-2.0,-2.0,0.0,-1.0
1702490258.33449,-3.0,-5.0,-1.0,-1.0,0.0,0.0,-2.0,-1.0
1702490258.3541787,1.0,-21.0,8.0,1.0,0.0,-3.0,0.0,-3.0
1702490258.3541787,-1.0,-2.0,-49.0,-3.0,-1.0,0.0,0.0,0.0
1702490258.3541787,-2.0,5.0,0.0,1.0,3.0,0.0,-2.0,-2.0
1702490258.3541787,-1.0,-2.0,0.0,1.0,-1.0,0.0,-1.0,-2.0
1702490258.364184,-1.0,24.0,5.0,-1.0,-3.0,-1.0,0.0,-1.0
1702490258.364184,-1.0,-7.0,15.0,-4.0,-3.0,-2.0,0.0,-2.0
1702490258.364184,0.0,2.0,-4.0,1.0,0.0,0.0,-1.0,0.0
1702490258.364184,0.0,1.0,-9.0,-1.0,2.0,-1.0,2.0,2.0
1702490258.3945048,0.0,7.0,-2.0,-2.0,-2.0,-1.0,-1.0,-1.0
1702490258.3945048,-2.0,1.0,10.0,-2.0,-2.0,0.0,0.0,0.0
1702490258.3945048,-4.0,-8.0,-7.0,0.0,2.0,1.0,-4.0,-2.0
1702490258.3945048,0.0,14.0,11.0,0.0,0.0,-4.0,0.0,0.0
1702490258.4341815,-2.0,-4.0,2.0,-2.0,-7.0,-4.0,-3.0,-1.0
1702490258.4341815,-3.0,-5.0,-11.0,-1.0,1.0,2.0,0.0,0.0
1702490258.4341815,2.0,4.0,6.0,-2.0,-3.0,-1.0,-1.0,-1.0
1702490258.4341815,-2.0,-3.0,-3.0,-1.0,1.0,-3.0,-1.0,0.0
1702490258.4341815,-2.0,-2.0,9.0,-2.0,1.0,4.0,-4.0,-2.0
1702490258.4341815,-1.0,-16.0,-14.0,-1.0,-1.0,-1.0,-3.0,-3.0
1702490258.4341815,0.0,3.0,15.0,3.0,-2.0,-4.0,-3.0,-1.0
1702490258.4341815,-4.0,-3.0,-10.0,2.0,0.0,5.0,-4.0,-2.0
1702490258.454219,0.0,-20.0,5.0,-1.0,-3.0,-5.0,6.0,2.0
1702490258.454219,-1.0,7.0,20.0,-1.0,-1.0,0.0,1.0,1.0
1702490258.454219,-2.0,4.0,11.0,-1.0,1.0,0.0,1.0,0.0
1702490258.454219,4.0,-12.0,-33.0,-9.0,-7.0,-10.0,-2.0,0.0
1702490258.4769993,-6.0,5.0,-11.0,5.0,7.0,5.0,-6.0,-6.0
1702490258.4769993,-1.0,2.0,11.0,2.0,-2.0,-3.0,-1.0,0.0
1702490258.478,-2.0,-2.0,4.0,-3.0,-3.0,-2.0,0.0,-1.0
1702490258.478,-2.0,-3.0,3.0,2.0,0.0,1.0,0.0,2.0
1702490258.4923632,-1.0,0.0,-13.0,-1.0,1.0,-2.0,3.0,2.0
1702490258.4933858,-1.0,4.0,1.0,-5.0,-3.0,-4.0,-5.0,-3.0
1702490258.4933858,1.0,22.0,3.0,5.0,3.0,4.0,2.0,2.0
1702490258.4933858,1.0,-12.0,7.0,-3.0,-2.0,-1.0,-1.0,-3.0
1702490258.5368285,-1.0,-1.0,-6.0,1.0,-2.0,-1.0,-1.0,-1.0
1702490258.5368285,-3.0,4.0,9.0,-5.0,-7.0,-2.0,-4.0,-3.0
1702490258.5368285,2.0,-5.0,-15.0,-1.0,0.0,0.0,1.0,-1.0
1702490258.5368285,-4.0,10.0,4.0,1.0,2.0,4.0,1.0,-2.0
1702490258.5368285,-4.0,13.0,-6.0,-2.0,1.0,-2.0,-4.0,-4.0
1702490258.5368285,2.0,0.0,6.0,-1.0,-4.0,-2.0,-1.0,-1.0
1702490258.5368285,-1.0,1.0,-12.0,-8.0,-5.0,-1.0,0.0,-1.0
1702490258.5368285,0.0,-3.0,1.0,1.0,-2.0,-2.0,-4.0,-3.0
1702490258.5468671,-1.0,-7.0,4.0,0.0,-2.0,-6.0,-1.0,0.0
1702490258.5468671,0.0,10.0,5.0,1.0,0.0,2.0,1.0,0.0
1702490258.5468671,-1.0,-3.0,-7.0,-2.0,0.0,-4.0,2.0,1.0
1702490258.5468671,-2.0,-4.0,7.0,-1.0,1.0,6.0,-1.0,1.0
1702490258.574722,1.0,26.0,9.0,-2.0,-2.0,-9.0,-3.0,-2.0
1702490258.574722,-1.0,-18.0,-15.0,-6.0,-2.0,-7.0,0.0,-2.0
1702490258.574722,1.0,-9.0,-16.0,2.0,-1.0,-1.0,3.0,0.0
1702490258.574722,0.0,-18.0,5.0,3.0,7.0,10.0,7.0,1.0
1702490258.5949843,-3.0,4.0,0.0,-1.0,-3.0,-8.0,-13.0,-6.0
1702490258.5949843,-1.0,4.0,9.0,4.0,1.0,11.0,3.0,-2.0
1702490258.5949843,0.0,17.0,-6.0,-14.0,-21.0,-15.0,-10.0,-2.0
1702490258.5949843,-5.0,-13.0,-6.0,10.0,15.0,19.0,5.0,-3.0
1702490258.6050315,7.0,-9.0,-9.0,-12.0,-19.0,-31.0,-2.0,8.0
1702490258.6050315,-7.0,9.0,7.0,21.0,34.0,11.0,0.0,-10.0
1702490258.6050315,1.0,-11.0,-5.0,2.0,4.0,23.0,-2.0,1.0
1702490258.6050315,-4.0,4.0,4.0,-11.0,-20.0,-26.0,2.0,2.0
1702490258.6347318,-6.0,-13.0,-11.0,2.0,18.0,25.0,-12.0,-14.0
1702490258.6347318,0.0,16.0,6.0,-1.0,-3.0,5.0,2.0,5.0
1702490258.6347318,-4.0,5.0,4.0,-3.0,-8.0,-26.0,-14.0,-8.0
1702490258.6347318,8.0,1.0,-3.0,7.0,9.0,-3.0,0.0,7.0
1702490258.6550126,-3.0,12.0,3.0,5.0,0.0,-9.0,22.0,5.0
1702490258.6550126,4.0,-9.0,0.0,-3.0,4.0,14.0,-3.0,-1.0
1702490258.6550126,-6.0,-9.0,-3.0,-1.0,4.0,10.0,3.0,-2.0
1702490258.6550126,5.0,22.0,3.0,-4.0,-5.0,11.0,3.0,1.0
1702490258.6647825,4.0,-29.0,-6.0,-4.0,-10.0,-13.0,2.0,10.0
1702490258.6647825,5.0,-3.0,-8.0,2.0,9.0,24.0,0.0,1.0
1702490258.6647825,-13.0,8.0,-3.0,-26.0,-38.0,-18.0,-12.0,-1.0
1702490258.6647825,-9.0,4.0,15.0,3.0,16.0,60.0,-5.0,-14.0
1702490258.7147193,4.0,0.0,-16.0,0.0,1.0,6.0,2.0,1.0
1702490258.7147193,-4.0,0.0,4.0,-15.0,-36.0,-64.0,24.0,6.0
1702490258.7147193,13.0,-47.0,-16.0,7.0,26.0,47.0,1.0,-2.0
1702490258.7147193,3.0,46.0,8.0,-9.0,-27.0,-57.0,-19.0,6.0
1702490258.7147193,-4.0,3.0,2.0,6.0,26.0,71.0,10.0,-8.0
1702490258.7147193,-5.0,-3.0,-3.0,0.0,-1.0,-28.0,-30.0,-9.0
1702490258.7147193,8.0,-1.0,3.0,-8.0,-29.0,-83.0,25.0,11.0
1702490258.7147193,0.0,0.0,3.0,7.0,17.0,40.0,22.0,2.0
1702490258.7247643,-1.0,-16.0,-1.0,5.0,11.0,36.0,13.0,1.0
1702490258.7247643,3.0,11.0,1.0,-9.0,-19.0,-1.0,9.0,12.0
1702490258.7247643,-3.0,-28.0,2.0,16.0,33.0,11.0,3.0,-8.0
1702490258.7247643,0.0,11.0,-2.0,-10.0,96.0,-67.0,3.0,3.0
1702490258.7547963,-4.0,7.0,1.0,-6.0,99.0,-9.0,-4.0,0.0
1702490258.7547963,-12.0,-35.0,-14.0,3.0,109.0,43.0,-5.0,-16.0
1702490258.7547963,0.0,-12.0,0.0,5.0,60.0,1.0,-8.0,0.0
1702490258.7547963,-9.0,-4.0,-17.0,-18.0,-49.0,-15.0,-21.0,-10.0
1702490258.775164,-8.0,0.0,-3.0,1.0,-40.0,2.0,-24.0,-16.0
1702490258.775164,5.0,0.0,-1.0,-10.0,-67.0,-53.0,5.0,10.0
1702490258.775164,5.0,20.0,7.0,14.0,-24.0,68.0,7.0,1.0
1702490258.775164,-2.0,-30.0,-14.0,-10.0,-92.0,-94.0,-5.0,4.0
1702490258.7847617,11.0,27.0,14.0,3.0,-40.0,23.0,2.0,10.0
1702490258.7847617,-2.0,22.0,-27.0,-5.0,-28.0,24.0,-10.0,-7.0
1702490258.7847617,-1.0,5.0,7.0,-5.0,-46.0,-23.0,-8.0,-1.0
1702490258.7847617,-8.0,1.0,7.0,-6.0,-41.0,18.0,-11.0,-7.0
1702490258.8147779,-5.0,-1.0,6.0,5.0,-22.0,-19.0,-8.0,-6.0
1702490258.8147779,7.0,-14.0,5.0,-1.0,-26.0,-10.0,-1.0,4.0
1702490258.8147779,-6.0,11.0,0.0,1.0,-1.0,15.0,7.0,-2.0
1702490258.8147779,-1.0,-11.0,-11.0,-3.0,-10.0,-7.0,-3.0,0.0
1702490258.8351362,-8.0,-12.0,-2.0,6.0,3.0,3.0,-3.0,-13.0
1702490258.8351362,-4.0,4.0,6.0,2.0,0.0,3.0,-4.0,-4.0
1702490258.8351362,-5.0,5.0,-3.0,-6.0,-6.0,5.0,-5.0,-3.0
1702490258.8351362,1.0,-21.0,3.0,14.0,15.0,36.0,6.0,-4.0
1702490258.8451498,2.0,-3.0,-2.0,-12.0,-28.0,-30.0,-6.0,2.0
1702490258.8451498,1.0,-11.0,12.0,5.0,0.0,-6.0,6.0,5.0
1702490258.8451498,0.0,-18.0,-6.0,1.0,12.0,-2.0,-6.0,-1.0
1702490258.8451498,2.0,20.0,-2.0,1.0,-2.0,4.0,0.0,1.0
1702490258.8751924,-2.0,-8.0,15.0,-11.0,-6.0,1.0,3.0,0.0
1702490258.8751924,-8.0,4.0,7.0,15.0,-2.0,-2.0,-5.0,-5.0
1702490258.8751924,4.0,5.0,6.0,6.0,2.0,-9.0,0.0,3.0
1702490258.8751924,-5.0,-16.0,-11.0,-5.0,5.0,19.0,-4.0,-9.0
1702490258.8952057,4.0,5.0,9.0,-35.0,-18.0,-29.0,0.0,5.0
1702490258.8952057,-15.0,7.0,15.0,23.0,14.0,18.0,3.0,-1.0
1702490258.8952057,-3.0,-4.0,5.0,10.0,-1.0,-8.0,-6.0,-2.0
1702490258.8952057,5.0,-22.0,-12.0,2.0,6.0,3.0,2.0,2.0
1702490258.9051492,-7.0,-6.0,-26.0,-6.0,-13.0,-7.0,-2.0,-3.0
1702490258.9051492,3.0,-36.0,-35.0,-22.0,-10.0,-5.0,-3.0,-1.0
1702490258.9051492,2.0,-1.0,18.0,-9.0,-2.0,2.0,-2.0,-3.0
1702490258.9051492,-8.0,-25.0,-67.0,0.0,-3.0,3.0,1.0,0.0
1702490258.9351993,5.0,3.0,16.0,-11.0,-11.0,-10.0,-1.0,2.0
1702490258.9351993,-1.0,52.0,9.0,2.0,-1.0,5.0,-1.0,-3.0
1702490258.9351993,-1.0,8.0,-67.0,-10.0,12.0,-5.0,1.0,1.0
1702490258.9351993,5.0,-11.0,45.0,4.0,-3.0,1.0,-2.0,-2.0
1702490258.9651496,-1.0,-7.0,-2.0,37.0,12.0,-2.0,0.0,1.0
1702490258.9651496,7.0,0.0,12.0,-5.0,-7.0,-2.0,-1.0,-1.0
1702490258.9651496,-5.0,26.0,27.0,-28.0,-21.0,-9.0,-6.0,-5.0
1702490258.9651496,5.0,-4.0,-69.0,20.0,24.0,9.0,3.0,1.0
1702490258.9651496,-5.0,31.0,15.0,-9.0,-3.0,1.0,2.0,0.0
1702490258.9651496,-11.0,10.0,33.0,11.0,6.0,2.0,0.0,-4.0
1702490258.9651496,-3.0,6.0,13.0,-14.0,-10.0,-7.0,-3.0,-1.0
1702490258.9651496,-3.0,-9.0,14.0,17.0,-6.0,2.0,1.0,-1.0
1702490258.9943414,-1.0,5.0,20.0,21.0,14.0,-3.0,-1.0,-1.0
1702490258.9943414,8.0,22.0,-4.0,-26.0,-9.0,-3.0,-2.0,2.0
1702490258.995098,-6.0,6.0,-25.0,1.0,1.0,-1.0,-1.0,-2.0
1702490258.995098,-1.0,15.0,35.0,-25.0,-6.0,0.0,-1.0,-1.0
1702490259.0126324,0.0,-32.0,-65.0,15.0,1.0,-2.0,1.0,0.0
1702490259.0126324,-3.0,-3.0,-8.0,-5.0,1.0,-1.0,-2.0,-1.0
1702490259.0126324,-1.0,-6.0,26.0,7.0,2.0,1.0,0.0,-1.0
1702490259.0126324,-5.0,0.0,20.0,-9.0,-3.0,-5.0,-5.0,-3.0
1702490259.0226293,-3.0,-30.0,-41.0,-3.0,-7.0,-2.0,-2.0,-1.0
1702490259.0226293,3.0,-7.0,-38.0,-19.0,-10.0,-2.0,-3.0,-1.0
1702490259.0326748,0.0,-3.0,-8.0,13.0,3.0,-4.0,-2.0,1.0
1702490259.0326748,1.0,0.0,33.0,2.0,8.0,4.0,2.0,2.0
1702490259.052992,0.0,8.0,34.0,-6.0,4.0,1.0,0.0,0.0
1702490259.052992,-1.0,-16.0,12.0,2.0,-1.0,-3.0,-1.0,0.0
1702490259.052992,-1.0,-20.0,-61.0,4.0,-4.0,-2.0,-1.0,-2.0
1702490259.052992,1.0,13.0,41.0,-5.0,-4.0,-1.0,-3.0,-2.0
1702490259.0726912,6.0,12.0,-43.0,-27.0,-6.0,-2.0,1.0,1.0
1702490259.0726912,1.0,-12.0,-26.0,5.0,1.0,-2.0,-1.0,-4.0
1702490259.0726912,-1.0,-11.0,-16.0,8.0,1.0,-2.0,-2.0,0.0
1702490259.0726912,2.0,20.0,23.0,0.0,0.0,1.0,1.0,-1.0
1702490259.0826316,-1.0,0.0,2.0,-14.0,-8.0,-6.0,-4.0,-3.0
1702490259.0826316,-5.0,-14.0,-15.0,-2.0,3.0,2.0,0.0,-2.0
1702490259.0926282,-1.0,8.0,24.0,6.0,-1.0,-3.0,-2.0,-2.0
1702490259.0926282,-4.0,-11.0,-3.0,2.0,2.0,1.0,-1.0,-1.0
1702490259.1126323,0.0,0.0,-1.0,-4.0,0.0,-2.0,-2.0,-1.0
1702490259.1126323,3.0,7.0,34.0,6.0,2.0,-1.0,1.0,2.0
1702490259.1126323,-1.0,-2.0,-26.0,6.0,0.0,1.0,0.0,-1.0
1702490259.1126323,4.0,7.0,-2.0,1.0,5.0,2.0,1.0,2.0
1702490259.1326292,-8.0,-12.0,-6.0,-8.0,-3.0,0.0,0.0,-3.0
1702490259.1326292,-3.0,-3.0,18.0,-2.0,1.0,0.0,0.0,0.0
1702490259.1326292,1.0,1.0,18.0,7.0,8.0,2.0,1.0,-1.0
1702490259.1326292,-5.0,-11.0,-38.0,-5.0,-4.0,-3.0,-3.0,-4.0
1702490259.1426656,1.0,3.0,-44.0,2.0,-5.0,-1.0,-3.0,0.0
1702490259.1426656,-3.0,-8.0,41.0,-6.0,-5.0,-3.0,-3.0,-3.0
1702490259.1528869,2.0,6.0,-14.0,-6.0,-5.0,-1.0,-2.0,1.0
1702490259.1528869,-8.0,-4.0,-18.0,-10.0,2.0,-2.0,-1.0,-2.0
1702490259.1730247,-4.0,2.0,40.0,23.0,1.0,-3.0,-1.0,-2.0
1702490259.1730247,3.0,5.0,5.0,-11.0,-2.0,1.0,-3.0,0.0
1702490259.1730247,-1.0,-11.0,13.0,-1.0,-2.0,-2.0,-2.0,-2.0
1702490259.1730247,2.0,7.0,15.0,0.0,-6.0,-4.0,-2.0,-3.0
1702490259.1926298,-3.0,-5.0,21.0,4.0,0.0,1.0,-1.0,-1.0
1702490259.1926298,1.0,-1.0,-14.0,2.0,3.0,1.0,-1.0,-1.0
1702490259.1926298,-3.0,-9.0,-6.0,-8.0,-2.0,1.0,1.0,0.0
1702490259.1926298,3.0,5.0,-31.0,-13.0,-5.0,-2.0,-1.0,0.0
1702490259.2030096,-3.0,-3.0,4.0,-7.0,-2.0,-1.0,-2.0,-4.0
1702490259.2030096,-1.0,-8.0,-6.0,7.0,-5.0,-7.0,-5.0,-4.0
1702490259.2126315,-5.0,-10.0,17.0,9.0,6.0,3.0,0.0,4.0
1702490259.2126315,0.0,-5.0,-1.0,-5.0,-3.0,-1.0,-2.0,-2.0
1702490259.232996,1.0,1.0,-3.0,-9.0,-3.0,-3.0,-1.0,2.0
1702490259.232996,-3.0,-12.0,-22.0,-1.0,9.0,6.0,5.0,2.0
1702490259.232996,4.0,17.0,8.0,-7.0,-2.0,-2.0,0.0,-1.0
1702490259.232996,-3.0,-9.0,-9.0,10.0,-3.0,-1.0,-2.0,-1.0
1702490259.2526293,6.0,13.0,41.0,6.0,0.0,-2.0,-1.0,-1.0
1702490259.2526293,-2.0,3.0,-20.0,-19.0,-10.0,-3.0,-3.0,-2.0
1702490259.2526293,3.0,8.0,-39.0,-23.0,-5.0,0.0,-2.0,-3.0
1702490259.2526293,-1.0,-4.0,-9.0,-4.0,2.0,0.0,1.0,0.0
1702490259.2626383,3.0,2.0,17.0,1.0,-1.0,-4.0,-3.0,-2.0
1702490259.2726436,-8.0,-24.0,32.0,20.0,7.0,7.0,5.0,3.0
1702490259.282632,-3.0,-4.0,1.0,1.0,-4.0,-5.0,-3.0,-2.0
1702490259.282632,7.0,24.0,40.0,-9.0,-1.0,-4.0,-3.0,-3.0
1702490259.2929716,-5.0,-22.0,-35.0,12.0,4.0,4.0,2.0,0.0
1702490259.2929716,6.0,17.0,3.0,-1.0,3.0,-3.0,-2.0,-1.0
1702490259.2929716,-5.0,0.0,39.0,4.0,-4.0,-6.0,-3.0,-4.0
1702490259.2929716,-3.0,-18.0,-26.0,13.0,0.0,-1.0,0.0,1.0
1702490259.322628,-12.0,-37.0,8.0,-11.0,0.0,4.0,4.0,2.0
1702490259.322628,9.0,28.0,-7.0,-4.0,-4.0,-6.0,-6.0,-2.0
1702490259.322628,-3.0,-5.0,1.0,5.0,1.0,0.0,1.0,0.0
1702490259.322628,3.0,4.0,31.0,20.0,3.0,-3.0,-1.0,1.0
1702490259.322628,-6.0,-4.0,-54.0,-52.0,-8.0,5.0,4.0,0.0
1702490259.322628,-8.0,-23.0,1.0,53.0,10.0,4.0,3.0,1.0
1702490259.342701,8.0,11.0,-9.0,-25.0,-5.0,-5.0,-4.0,0.0
1702490259.342701,-8.0,-23.0,-61.0,8.0,3.0,3.0,2.0,-1.0
1702490259.3726285,5.0,7.0,44.0,14.0,-5.0,-10.0,-5.0,-2.0
1702490259.3726285,-1.0,8.0,-27.0,-29.0,-9.0,-1.0,0.0,-2.0
1702490259.3726285,-4.0,-1.0,38.0,24.0,12.0,5.0,3.0,-1.0
1702490259.3726285,7.0,22.0,5.0,-11.0,-6.0,-5.0,-5.0,-1.0
1702490259.3726285,-3.0,-28.0,-35.0,-9.0,-2.0,0.0,-2.0,-1.0
1702490259.3726285,-4.0,-21.0,22.0,-20.0,0.0,1.0,1.0,-1.0
1702490259.3829587,-1.0,-12.0,-36.0,-18.0,-9.0,-7.0,-5.0,-3.0
1702490259.3829587,-19.0,-72.0,10.0,2.0,5.0,17.0,12.0,5.0
1702490259.3829587,7.0,18.0,-14.0,29.0,5.0,-1.0,0.0,1.0
1702490259.3829587,-7.0,-12.0,29.0,2.0,-3.0,-3.0,-2.0,-3.0
1702490259.392943,1.0,13.0,-10.0,-11.0,0.0,0.0,2.0,2.0
1702490259.392943,-3.0,16.0,44.0,1.0,-1.0,-5.0,-1.0,-2.0
1702490259.4126313,-3.0,10.0,12.0,-12.0,-5.0,0.0,-1.0,-2.0
1702490259.4126313,4.0,5.0,-7.0,30.0,8.0,-2.0,-1.0,0.0
1702490259.4126313,-16.0,-26.0,6.0,-34.0,-5.0,11.0,5.0,-1.0
1702490259.4126313,7.0,37.0,6.0,14.0,-4.0,-9.0,-7.0,-3.0
1702490259.4326465,-1.0,9.0,24.0,5.0,-1.0,-6.0,-6.0,-2.0
1702490259.4326465,-9.0,-28.0,-24.0,-24.0,0.0,1.0,1.0,-2.0
1702490259.4326465,1.0,20.0,-11.0,-23.0,-11.0,-7.0,-8.0,-6.0
1702490259.4326465,8.0,18.0,29.0,40.0,11.0,6.0,1.0,0.0
1702490259.4426336,0.0,12.0,0.0,11.0,0.0,-1.0,-3.0,-3.0
1702490259.4526415,9.0,16.0,-5.0,8.0,-7.0,-13.0,-7.0,-4.0
1702490259.4526415,3.0,-15.0,0.0,-35.0,4.0,8.0,7.0,6.0
1702490259.4526415,-10.0,-14.0,-12.0,-7.0,-1.0,2.0,-1.0,-2.0
1702490259.4926288,1.0,2.0,-45.0,3.0,-2.0,-4.0,-3.0,-2.0
1702490259.4926288,-1.0,0.0,-16.0,1.0,-5.0,-5.0,-5.0,-2.0
1702490259.4926288,4.0,9.0,21.0,0.0,-7.0,0.0,1.0,-5.0
1702490259.4926288,4.0,15.0,17.0,10.0,5.0,-2.0,1.0,1.0
1702490259.4926288,-6.0,-12.0,10.0,-10.0,-3.0,-1.0,0.0,-1.0
1702490259.4926288,-1.0,3.0,-67.0,-24.0,-1.0,6.0,3.0,0.0
1702490259.4926288,-8.0,-21.0,4.0,66.0,9.0,-2.0,1.0,0.0
1702490259.4926288,2.0,9.0,-33.0,-43.0,-10.0,-6.0,-7.0,-2.0
1702490259.5128875,-10.0,-11.0,34.0,42.0,11.0,6.0,3.0,3.0
1702490259.5128875,12.0,37.0,4.0,-29.0,-10.0,-8.0,-6.0,-1.0
1702490259.5128875,0.0,6.0,4.0,17.0,5.0,4.0,2.0,2.0
1702490259.5128875,4.0,20.0,-8.0,12.0,1.0,-3.0,-3.0,-2.0
1702490259.5405526,0.0,-8.0,16.0,-40.0,-5.0,1.0,3.0,0.0
1702490259.5405526,-2.0,-4.0,28.0,13.0,3.0,1.0,1.0,-1.0
1702490259.5405526,2.0,7.0,-10.0,-15.0,-3.0,-2.0,-3.0,-1.0
1702490259.5405526,-2.0,-10.0,24.0,3.0,-2.0,0.0,0.0,1.0
1702490259.5557866,17.0,67.0,-11.0,-3.0,-11.0,-12.0,-12.0,-9.0
1702490259.5557866,-9.0,-19.0,18.0,12.0,3.0,5.0,1.0,-1.0
1702490259.5557866,-2.0,-3.0,8.0,-5.0,0.0,-4.0,-3.0,-3.0
1702490259.5557866,-6.0,-10.0,-12.0,-20.0,-6.0,-2.0,-2.0,-4.0
1702490259.6028452,-1.0,0.0,-7.0,3.0,-5.0,-4.0,-3.0,-2.0
1702490259.6028452,-4.0,-10.0,-33.0,-1.0,-2.0,-2.0,0.0,0.0
1702490259.6028452,13.0,34.0,5.0,17.0,1.0,-7.0,-6.0,-3.0
1702490259.6028452,-12.0,-21.0,5.0,-21.0,-2.0,3.0,2.0,-3.0
1702490259.6028452,-1.0,-8.0,6.0,10.0,4.0,1.0,1.0,1.0
1702490259.6028452,-1.0,4.0,32.0,-4.0,-2.0,-4.0,-2.0,-2.0
1702490259.6028452,-6.0,-19.0,-22.0,17.0,-1.0,-1.0,-1.0,-2.0
1702490259.6028452,3.0,5.0,-21.0,-5.0,-4.0,-3.0,-2.0,-1.0
1702490259.6131527,-10.0,-22.0,2.0,-17.0,2.0,4.0,2.0,0.0
1702490259.6131527,-2.0,-6.0,4.0,8.0,2.0,4.0,-1.0,1.0
1702490259.6231701,0.0,10.0,22.0,6.0,-2.0,-4.0,-6.0,-4.0
1702490259.6231701,-1.0,-18.0,-27.0,-15.0,-4.0,-2.0,0.0,1.0
1702490259.6428425,-2.0,-8.0,7.0,2.0,3.0,0.0,0.0,-1.0
1702490259.6428425,4.0,16.0,4.0,6.0,-1.0,-5.0,-3.0,-3.0
1702490259.6428425,-9.0,-17.0,-22.0,0.0,-3.0,1.0,0.0,-1.0
1702490259.6428425,0.0,0.0,-6.0,-7.0,-3.0,-2.0,-4.0,-1.0
1702490259.653118,1.0,-2.0,-12.0,-2.0,-3.0,-3.0,-1.0,-2.0
1702490259.653118,-5.0,-5.0,-4.0,0.0,-3.0,3.0,0.0,-1.0
1702490259.653118,3.0,14.0,3.0,1.0,4.0,1.0,-2.0,-3.0
1702490259.653118,-5.0,-19.0,1.0,3.0,0.0,-2.0,2.0,0.0
1702490259.6732497,-1.0,3.0,15.0,1.0,-2.0,-2.0,-1.0,-2.0
1702490259.6732497,-1.0,-7.0,-18.0,-3.0,-3.0,-4.0,-2.0,-1.0
1702490259.6732497,-5.0,-9.0,7.0,-1.0,-3.0,0.0,-1.0,-1.0
1702490259.6732497,5.0,16.0,13.0,1.0,1.0,0.0,1.0,0.0
1702490259.7230422,-3.0,-4.0,-4.0,3.0,2.0,0.0,1.0,6.0
1702490259.7230422,-1.0,-4.0,0.0,-5.0,-2.0,-1.0,-2.0,-19.0
1702490259.7230422,-3.0,-4.0,8.0,-1.0,-2.0,-1.0,-1.0,4.0
1702490259.7230422,7.0,0.0,-18.0,2.0,2.0,-1.0,-1.0,9.0
1702490259.7230422,-2.0,-2.0,-7.0,0.0,3.0,1.0,0.0,-5.0
1702490259.7230422,2.0,4.0,14.0,-2.0,-1.0,-1.0,-2.0,7.0
1702490259.7230422,-3.0,-9.0,-36.0,-3.0,-2.0,-3.0,-2.0,-8.0
1702490259.7230422,-1.0,0.0,12.0,-1.0,-2.0,-1.0,0.0,1.0
1702490259.733047,2.0,-1.0,-12.0,6.0,1.0,3.0,2.0,-3.0
1702490259.733047,-3.0,0.0,6.0,-4.0,-1.0,-1.0,-5.0,1.0
1702490259.733047,-4.0,-4.0,10.0,-2.0,-1.0,-3.0,-1.0,-7.0
1702490259.733047,-3.0,-2.0,-1.0,-2.0,-2.0,-3.0,0.0,5.0
1702490259.7530391,-1.0,-27.0,3.0,-2.0,-1.0,-2.0,-5.0,-12.0
1702490259.7530391,-3.0,-18.0,-23.0,-5.0,-2.0,0.0,-1.0,-1.0
1702490259.7530391,0.0,-111.0,28.0,0.0,0.0,0.0,2.0,5.0
1702490259.7530391,-3.0,-116.0,-43.0,-1.0,-2.0,-1.0,-2.0,-7.0
1702490259.7734046,0.0,-47.0,23.0,-2.0,-1.0,-7.0,0.0,1.0
1702490259.7734046,1.0,42.0,5.0,3.0,-1.0,2.0,-4.0,3.0
1702490259.7734046,-2.0,124.0,0.0,-1.0,-3.0,1.0,0.0,-6.0
1702490259.7734046,-3.0,127.0,10.0,2.0,-3.0,-3.0,-4.0,12.0
1702490259.7930415,1.0,97.0,-7.0,-2.0,0.0,3.0,-1.0,1.0
1702490259.7930415,-1.0,65.0,-6.0,-2.0,1.0,-2.0,2.0,9.0
1702490259.7930415,2.0,54.0,-3.0,-1.0,0.0,0.0,0.0,6.0
1702490259.7930415,-3.0,15.0,6.0,-2.0,-1.0,0.0,-2.0,-16.0
1702490259.8130744,1.0,12.0,-10.0,-2.0,-4.0,-1.0,3.0,4.0
1702490259.8130744,-4.0,-16.0,-1.0,-2.0,1.0,0.0,1.0,0.0
1702490259.8130744,0.0,-19.0,10.0,3.0,2.0,0.0,0.0,4.0
1702490259.8130744,-3.0,-20.0,3.0,-3.0,-2.0,-2.0,-4.0,-16.0
1702490259.8333144,-1.0,-16.0,-5.0,-2.0,-2.0,0.0,-3.0,0.0
1702490259.8333144,2.0,-30.0,0.0,0.0,-1.0,0.0,0.0,-4.0
1702490259.8333144,-4.0,-32.0,-1.0,-3.0,-1.0,-3.0,-1.0,0.0
1702490259.8333144,-1.0,-10.0,31.0,1.0,0.0,1.0,0.0,2.0
1702490259.8530471,-2.0,-20.0,-68.0,-3.0,-1.0,0.0,0.0,1.0
1702490259.8530471,-1.0,-23.0,5.0,0.0,1.0,1.0,-1.0,-6.0
1702490259.8530471,0.0,-12.0,0.0,-2.0,-1.0,-2.0,-1.0,2.0
1702490259.8530471,0.0,-6.0,8.0,-1.0,0.0,0.0,-1.0,-1.0
1702490259.8830385,-1.0,-4.0,20.0,-1.0,0.0,-1.0,-3.0,-2.0
1702490259.8830385,1.0,-13.0,-3.0,-2.0,-1.0,-1.0,0.0,4.0
1702490259.8830385,2.0,-5.0,-12.0,-2.0,0.0,-1.0,-2.0,-2.0
1702490259.8830385,1.0,-3.0,-8.0,0.0,0.0,-1.0,-1.0,-2.0
1702490259.8933117,-1.0,-5.0,9.0,0.0,-1.0,-2.0,0.0,0.0
1702490259.8933117,-1.0,-7.0,-6.0,1.0,-1.0,-1.0,0.0,-1.0
1702490259.9030437,-1.0,-2.0,8.0,-2.0,-1.0,-1.0,-1.0,-2.0
1702490259.9030437,-3.0,-1.0,-6.0,-1.0,-1.0,0.0,-2.0,-2.0
1702490259.9131403,0.0,0.0,7.0,1.0,0.0,0.0,-2.0,1.0
1702490259.9131403,-1.0,-4.0,-2.0,-1.0,-2.0,-1.0,0.0,-1.0
1702490259.9131403,-3.0,-3.0,4.0,1.0,1.0,1.0,-2.0,-3.0
1702490259.9131403,0.0,-3.0,-28.0,-3.0,-2.0,-2.0,0.0,0.0
1702490259.943039,-2.0,-1.0,10.0,-1.0,0.0,-2.0,-2.0,-1.0
1702490259.943039,-1.0,-2.0,-18.0,0.0,-1.0,0.0,-1.0,-4.0
1702490259.943039,0.0,-2.0,1.0,1.0,0.0,-1.0,-1.0,-1.0
1702490259.943039,-1.0,2.0,3.0,-1.0,1.0,-2.0,-2.0,-2.0
1702490259.953221,-1.0,1.0,14.0,2.0,-2.0,-1.0,-1.0,-2.0
1702490259.953221,0.0,3.0,11.0,0.0,-2.0,-2.0,-1.0,-2.0
1702490259.953221,-3.0,-13.0,-40.0,-11.0,-3.0,-1.0,-2.0,-1.0
1702490259.953221,-2.0,0.0,1.0,7.0,-2.0,-3.0,0.0,-2.0
1702490259.9730382,-1.0,-1.0,17.0,-11.0,-2.0,-1.0,-2.0,0.0
1702490259.9730382,-2.0,-2.0,-15.0,9.0,0.0,0.0,-1.0,1.0
1702490259.9730382,1.0,9.0,27.0,-5.0,-2.0,-1.0,-2.0,1.0
1702490259.9730382,-1.0,-5.0,-25.0,12.0,2.0,0.0,0.0,0.0
1702490259.9932933,-2.0,-1.0,-14.0,-1.0,0.0,-2.0,-2.0,2.0
1702490259.9932933,0.0,0.0,19.0,-4.0,0.0,-3.0,-2.0,-2.0
1702490260.0032907,0.0,0.0,0.0,-1.0,-4.0,-3.0,-2.0,-2.0
1702490260.0032907,0.0,-2.0,4.0,-4.0,0.0,0.0,-2.0,-1.0
1702490260.0133061,-1.0,2.0,-1.0,11.0,3.0,1.0,-1.0,-1.0
1702490260.0133061,-3.0,-5.0,25.0,-4.0,-2.0,-1.0,0.0,2.0
1702490260.0133061,-1.0,-9.0,-27.0,-5.0,-4.0,0.0,0.0,-3.0
1702490260.0133061,0.0,2.0,-6.0,2.0,2.0,0.0,1.0,-2.0
1702490260.0330396,-1.0,-3.0,-2.0,-2.0,-2.0,0.0,-2.0,-2.0
1702490260.0330396,1.0,5.0,40.0,-2.0,-6.0,-2.0,0.0,-1.0
1702490260.0330396,-2.0,-7.0,-26.0,2.0,7.0,2.0,-1.0,-2.0
1702490260.0330396,1.0,-2.0,25.0,1.0,1.0,-1.0,-1.0,0.0
1702490260.059961,-1.0,5.0,10.0,2.0,-1.0,-1.0,-1.0,-1.0
1702490260.059961,-1.0,0.0,14.0,-2.0,-1.0,-2.0,-1.0,1.0
1702490260.059961,-2.0,2.0,-12.0,3.0,-2.0,0.0,0.0,-2.0
1702490260.059961,-2.0,-1.0,2.0,-3.0,-3.0,0.0,-1.0,-2.0
1702490260.0741782,-3.0,-11.0,-2.0,-10.0,-3.0,-2.0,-1.0,-4.0
1702490260.0741782,-1.0,-4.0,-32.0,0.0,-1.0,0.0,-1.0,-1.0
1702490260.078268,-1.0,4.0,35.0,1.0,-1.0,-2.0,1.0,-2.0
1702490260.078268,0.0,-2.0,-4.0,-2.0,0.0,0.0,-2.0,-1.0
1702490260.0982642,-1.0,0.0,-7.0,-2.0,-3.0,-1.0,-1.0,0.0
1702490260.0982642,-2.0,-3.0,-20.0,0.0,4.0,2.0,-1.0,1.0
1702490260.0982642,-3.0,3.0,18.0,4.0,0.0,-2.0,0.0,8.0
1702490260.0982642,-4.0,-9.0,-26.0,-9.0,-4.0,-2.0,-1.0,3.0
1702490260.1185262,-2.0,1.0,-2.0,3.0,-1.0,-1.0,0.0,-8.0
1702490260.1185262,-1.0,1.0,-5.0,-2.0,-1.0,-1.0,0.0,-10.0
1702490260.1185262,0.0,2.0,13.0,2.0,2.0,-2.0,-1.0,4.0
1702490260.1185262,-1.0,1.0,-3.0,-6.0,-3.0,0.0,-1.0,2.0
1702490260.1282709,2.0,-3.0,3.0,1.0,-2.0,0.0,-1.0,2.0
1702490260.1282709,-2.0,-3.0,-7.0,-1.0,-1.0,0.0,-1.0,2.0
1702490260.1382687,-3.0,2.0,13.0,1.0,-2.0,-1.0,0.0,1.0
1702490260.1382687,1.0,4.0,15.0,-1.0,-2.0,-2.0,-3.0,-5.0
1702490260.1682606,2.0,3.0,-28.0,-2.0,2.0,-1.0,-2.0,7.0
1702490260.1682606,-4.0,-1.0,-7.0,1.0,3.0,-1.0,0.0,-12.0
1702490260.1682606,2.0,-3.0,16.0,1.0,-2.0,-2.0,-1.0,-1.0
1702490260.1682606,1.0,-6.0,-65.0,-5.0,-2.0,-1.0,-1.0,5.0
1702490260.1784456,-3.0,2.0,23.0,-3.0,-2.0,0.0,2.0,7.0
1702490260.1784456,0.0,7.0,29.0,3.0,-2.0,-1.0,-3.0,-4.0
1702490260.1784456,-8.0,-19.0,-38.0,-10.0,-3.0,-2.0,-2.0,-3.0
1702490260.1784456,6.0,1.0,36.0,8.0,3.0,0.0,-1.0,14.0
1702490260.1885529,1.0,0.0,13.0,0.0,-1.0,1.0,-2.0,-7.0
1702490260.1885529,-1.0,-5.0,-22.0,-4.0,0.0,-2.0,0.0,7.0
1702490260.1985147,0.0,4.0,0.0,0.0,-1.0,-1.0,-1.0,-12.0
1702490260.1985147,-1.0,9.0,13.0,-2.0,-3.0,-3.0,0.0,-3.0
1702490260.2082615,-5.0,-10.0,4.0,1.0,1.0,0.0,-1.0,-6.0
1702490260.2082615,-4.0,-6.0,-37.0,-1.0,-2.0,0.0,0.0,0.0
1702490260.2082615,3.0,7.0,29.0,3.0,-1.0,0.0,-3.0,-5.0
1702490260.2082615,-1.0,-11.0,-59.0,-10.0,-6.0,-3.0,-2.0,3.0
1702490260.2386777,1.0,6.0,14.0,0.0,-1.0,-1.0,-1.0,1.0
1702490260.2386777,-2.0,0.0,6.0,-1.0,-3.0,1.0,1.0,2.0
1702490260.2386777,-1.0,3.0,9.0,2.0,0.0,0.0,-1.0,-2.0
1702490260.2386777,-2.0,-3.0,-4.0,-6.0,-1.0,-1.0,-4.0,-7.0
1702490260.2482696,0.0,2.0,-19.0,5.0,-1.0,-3.0,-2.0,-5.0
1702490260.2482696,0.0,-6.0,-4.0,-9.0,-2.0,-2.0,-4.0,-3.0
1702490260.2582617,0.0,-6.0,2.0,1.0,-3.0,-1.0,-3.0,2.0
1702490260.2582617,-1.0,8.0,44.0,3.0,2.0,0.0,-1.0,9.0
1702490260.2682948,-6.0,-2.0,-19.0,-5.0,-2.0,-3.0,-2.0,-5.0
1702490260.2682948,0.0,1.0,6.0,0.0,-1.0,-2.0,-1.0,6.0
1702490260.2782664,4.0,11.0,20.0,-2.0,-4.0,-2.0,-5.0,-17.0
1702490260.2782664,-6.0,-13.0,-51.0,-4.0,-1.0,-4.0,-4.0,-19.0
1702490260.2985942,-1.0,0.0,-3.0,1.0,0.0,0.0,-1.0,5.0
1702490260.2985942,1.0,0.0,10.0,-1.0,-3.0,0.0,0.0,3.0
1702490260.2985942,-3.0,-1.0,-17.0,-5.0,1.0,2.0,0.0,0.0
1702490260.2985942,5.0,4.0,15.0,6.0,-2.0,1.0,1.0,-3.0
1702490260.318261,0.0,6.0,2.0,-4.0,-4.0,-2.0,-2.0,-3.0
1702490260.318261,-3.0,-18.0,-8.0,-2.0,-4.0,-2.0,1.0,-2.0
1702490260.318261,0.0,-8.0,-83.0,-7.0,-1.0,-1.0,-1.0,1.0
1702490260.318261,-5.0,-8.0,14.0,0.0,-1.0,1.0,0.0,-3.0
1702490260.3282628,2.0,5.0,3.0,1.0,-1.0,0.0,1.0,3.0
1702490260.3282628,-1.0,8.0,23.0,1.0,1.0,-1.0,-3.0,-4.0
1702490260.3382654,-2.0,0.0,14.0,2.0,-2.0,-2.0,-2.0,5.0
1702490260.3382654,-1.0,4.0,8.0,-6.0,1.0,-2.0,0.0,-1.0
1702490260.3586426,-1.0,-28.0,4.0,2.0,2.0,-1.0,-1.0,-1.0
1702490260.3586426,1.0,2.0,-4.0,-2.0,-1.0,-1.0,-1.0,-1.0
1702490260.3586426,0.0,2.0,13.0,3.0,2.0,1.0,1.0,0.0
1702490260.3586426,-4.0,0.0,8.0,2.0,0.0,-2.0,-1.0,-4.0
1702490260.378262,-1.0,-5.0,-12.0,-4.0,-2.0,-3.0,-2.0,-3.0
1702490260.378262,2.0,4.0,-18.0,2.0,1.0,-3.0,0.0,-2.0
1702490260.378262,3.0,10.0,25.0,-2.0,-2.0,0.0,0.0,4.0
1702490260.378262,-3.0,-1.0,-26.0,-3.0,-3.0,1.0,1.0,14.0
1702490260.3885627,-5.0,-2.0,-15.0,-5.0,-4.0,-3.0,-3.0,-20.0
1702490260.3885627,6.0,-2.0,38.0,6.0,2.0,1.0,1.0,7.0
1702490260.398267,-5.0,-1.0,-53.0,-5.0,-1.0,-1.0,-1.0,-5.0
1702490260.398267,1.0,10.0,66.0,3.0,0.0,0.0,0.0,-1.0
1702490260.4182632,-1.0,-9.0,-41.0,-3.0,-1.0,0.0,1.0,4.0
1702490260.4182632,-3.0,-4.0,-20.0,-5.0,-2.0,-2.0,0.0,0.0
1702490260.4182632,3.0,1.0,30.0,2.0,1.0,-2.0,-2.0,-2.0
1702490260.4182632,-4.0,-3.0,21.0,0.0,1.0,-1.0,-3.0,-6.0
1702490260.438686,-2.0,2.0,-38.0,-5.0,0.0,-1.0,-1.0,5.0
1702490260.438686,-5.0,-15.0,7.0,4.0,-2.0,0.0,-2.0,-5.0
1702490260.438686,1.0,4.0,0.0,-4.0,-1.0,-2.0,1.0,3.0
1702490260.438686,-5.0,-22.0,12.0,-2.0,-1.0,-3.0,-3.0,-5.0
1702490260.4485927,2.0,0.0,30.0,3.0,-2.0,0.0,0.0,2.0
1702490260.4582646,-1.0,5.0,-19.0,-3.0,0.0,-1.0,-1.0,0.0
1702490260.4582646,-9.0,-9.0,-44.0,-8.0,-4.0,-2.0,0.0,-3.0
1702490260.4582646,1.0,0.0,10.0,5.0,-1.0,0.0,-2.0,-4.0
1702490260.4882603,0.0,-4.0,-5.0,-4.0,-4.0,0.0,-2.0,-1.0
1702490260.4882603,0.0,2.0,7.0,-1.0,-1.0,1.0,-1.0,0.0
1702490260.4882603,-2.0,-13.0,1.0,-1.0,-2.0,-2.0,-2.0,0.0
1702490260.4882603,2.0,16.0,33.0,1.0,0.0,-1.0,0.0,-2.0
1702490260.498606,-1.0,-2.0,-9.0,-6.0,-1.0,-2.0,0.0,1.0
1702490260.498606,-1.0,2.0,23.0,-1.0,-1.0,0.0,-2.0,-2.0
1702490260.498606,-4.0,-7.0,-2.0,10.0,2.0,0.0,0.0,-5.0
1702490260.498606,0.0,4.0,20.0,-3.0,-1.0,-2.0,1.0,-1.0
1702490260.5085561,-2.0,-4.0,-23.0,1.0,-2.0,-1.0,-3.0,-1.0
1702490260.5085561,0.0,6.0,-30.0,-7.0,-4.0,-3.0,-2.0,-3.0
1702490260.5085561,1.0,1.0,21.0,-1.0,0.0,-1.0,-2.0,2.0
1702490260.5085561,0.0,22.0,-6.0,1.0,-4.0,-1.0,0.0,-2.0
1702490260.5382636,-2.0,-21.0,49.0,-2.0,1.0,0.0,-1.0,-1.0
1702490260.5382636,1.0,5.0,17.0,-1.0,-1.0,-1.0,-2.0,1.0
1702490260.5382636,-2.0,-7.0,17.0,-2.0,-2.0,-1.0,-1.0,0.0
1702490260.5382636,-2.0,-1.0,-15.0,1.0,1.0,-1.0,-1.0,-2.0
1702490260.5585623,3.0,15.0,34.0,2.0,2.0,-1.0,1.0,1.0
1702490260.5585623,-6.0,-22.0,-66.0,-8.0,-6.0,-1.0,-1.0,-3.0
1702490260.5585623,1.0,9.0,0.0,3.0,-2.0,-1.0,-1.0,-2.0
1702490260.5585623,-4.0,-41.0,-10.0,0.0,4.0,1.0,0.0,-1.0
1702490260.5685508,0.0,7.0,8.0,9.0,4.0,-1.0,-2.0,1.0
1702490260.5685508,0.0,3.0,-3.0,0.0,1.0,-3.0,-1.0,-2.0
1702490260.578264,1.0,1.0,-21.0,-9.0,-2.0,-3.0,-1.0,-1.0
1702490260.578264,-2.0,1.0,-2.0,-2.0,-3.0,-1.0,-1.0,0.0
1702490260.5989907,-2.0,3.0,-73.0,-12.0,-5.0,-1.0,-1.0,-1.0
1702490260.6000018,-2.0,2.0,8.0,0.0,0.0,-1.0,-1.0,0.0
1702490260.6000018,1.0,23.0,25.0,1.0,-1.0,1.0,1.0,2.0
1702490260.6000018,-1.0,-15.0,20.0,2.0,0.0,-3.0,-1.0,-3.0
1702490260.6217856,-4.0,-11.0,30.0,-4.0,-1.0,-2.0,0.0,-2.0
1702490260.6217856,-1.0,-2.0,0.0,-1.0,0.0,0.0,-2.0,-2.0
1702490260.6217856,2.0,7.0,17.0,2.0,2.0,0.0,-1.0,2.0
1702490260.6217856,-1.0,5.0,-2.0,-7.0,-2.0,-2.0,-2.0,-1.0
1702490260.6316779,0.0,14.0,15.0,4.0,-3.0,-2.0,0.0,-1.0
1702490260.6316779,-2.0,-8.0,3.0,0.0,-1.0,-1.0,0.0,-2.0
1702490260.6316779,-4.0,-13.0,-13.0,-1.0,-1.0,-3.0,-2.0,-2.0
1702490260.6316779,0.0,13.0,-12.0,1.0,-2.0,-1.0,-1.0,-1.0
1702490260.6513784,0.0,-3.0,-2.0,1.0,-4.0,0.0,-2.0,-1.0
1702490260.6513784,-1.0,5.0,7.0,-1.0,-1.0,0.0,1.0,2.0
1702490260.6513784,-2.0,4.0,25.0,-6.0,-1.0,-1.0,-2.0,-2.0
1702490260.6513784,1.0,-3.0,-15.0,3.0,-2.0,-2.0,-1.0,-2.0
1702490260.681721,0.0,4.0,16.0,8.0,2.0,1.0,-1.0,1.0
1702490260.681721,-3.0,-7.0,-13.0,-1.0,0.0,1.0,-1.0,-2.0
1702490260.681721,2.0,2.0,25.0,0.0,0.0,0.0,-2.0,0.0
1702490260.681721,-1.0,-2.0,-28.0,-3.0,-1.0,-2.0,-2.0,-3.0
1702490260.6917045,-3.0,0.0,-12.0,-9.0,-5.0,-2.0,-2.0,-1.0
1702490260.6917045,-1.0,-21.0,42.0,0.0,-1.0,-1.0,-1.0,-1.0
1702490260.6917045,-3.0,-6.0,-52.0,2.0,-2.0,-1.0,-1.0,-1.0
1702490260.6917045,-2.0,-5.0,2.0,-1.0,-1.0,-2.0,-1.0,0.0
1702490260.7192748,1.0,2.0,-7.0,-2.0,0.0,-2.0,-1.0,-1.0
1702490260.7192748,-3.0,-2.0,3.0,1.0,-1.0,1.0,0.0,1.0
1702490260.7192748,0.0,7.0,-6.0,-1.0,-3.0,-1.0,0.0,0.0
1702490260.7192748,-2.0,-3.0,-8.0,-7.0,-5.0,-3.0,-3.0,-3.0
1702490260.7389514,-2.0,11.0,21.0,2.0,-2.0,-1.0,0.0,-1.0
1702490260.7389514,1.0,6.0,-10.0,-4.0,-1.0,-1.0,-2.0,-1.0
1702490260.7389514,-3.0,-11.0,9.0,3.0,-1.0,0.0,0.0,-3.0
1702490260.7389514,-1.0,2.0,-24.0,-4.0,-2.0,1.0,0.0,0.0
1702490260.758993,1.0,0.0,6.0,-1.0,-1.0,-4.0,-2.0,-3.0
1702490260.758993,-1.0,-18.0,-75.0,-8.0,-4.0,-3.0,0.0,-2.0
1702490260.758993,-1.0,-6.0,9.0,0.0,0.0,-1.0,0.0,-2.0
1702490260.758993,2.0,9.0,9.0,-2.0,1.0,-1.0,0.0,-1.0
1702490260.77933,-3.0,-5.0,4.0,1.0,1.0,0.0,-1.0,-1.0
1702490260.77933,-1.0,7.0,41.0,4.0,0.0,0.0,-2.0,-2.0
1702490260.77933,-1.0,0.0,-26.0,-2.0,-4.0,-1.0,-2.0,2.0
1702490260.77933,-2.0,-4.0,-4.0,-7.0,-2.0,-1.0,0.0,-1.0
1702490260.798983,-4.0,-2.0,-5.0,-4.0,-2.0,0.0,-1.0,-3.0
1702490260.798983,-2.0,8.0,11.0,0.0,0.0,-3.0,-1.0,-1.0
1702490260.798983,-3.0,-4.0,0.0,-2.0,1.0,2.0,0.0,0.0
1702490260.798983,-2.0,5.0,2.0,2.0,-1.0,1.0,-1.0,-1.0
1702490260.8089828,1.0,20.0,16.0,-3.0,-1.0,0.0,0.0,0.0
1702490260.8089828,0.0,-6.0,-29.0,-1.0,-2.0,-3.0,-3.0,-3.0
1702490260.8089828,-2.0,-11.0,19.0,1.0,1.0,-2.0,1.0,8.0
1702490260.8089828,1.0,1.0,-9.0,3.0,2.0,-2.0,-4.0,-16.0
1702490260.839322,-1.0,-3.0,20.0,1.0,-3.0,0.0,-1.0,0.0
1702490260.839322,1.0,5.0,1.0,1.0,-1.0,0.0,0.0,-1.0
1702490260.839322,-1.0,0.0,7.0,-2.0,-3.0,-2.0,-1.0,-1.0
1702490260.839322,-2.0,13.0,4.0,-2.0,-4.0,-1.0,0.0,3.0
1702490260.8589876,0.0,-3.0,0.0,4.0,-1.0,-1.0,-1.0,0.0
1702490260.8589876,-1.0,5.0,7.0,2.0,0.0,-1.0,0.0,1.0
1702490260.8689842,-5.0,-12.0,-9.0,-4.0,-1.0,0.0,-4.0,-12.0
1702490260.8689842,-3.0,-7.0,0.0,-4.0,-1.0,-1.0,-1.0,1.0
1702490260.8889804,0.0,-7.0,-4.0,-1.0,0.0,0.0,-2.0,-2.0
1702490260.8889804,0.0,-2.0,-23.0,-2.0,0.0,-3.0,-1.0,2.0
1702490260.8889804,0.0,7.0,24.0,1.0,-2.0,1.0,1.0,2.0
1702490260.8889804,3.0,-7.0,-15.0,0.0,-2.0,-2.0,-2.0,2.0
1702490260.8992212,-1.0,-5.0,-37.0,-2.0,-3.0,-2.0,0.0,0.0
1702490260.8992212,2.0,3.0,9.0,-2.0,-2.0,0.0,-2.0,-4.0
1702490260.8992212,-7.0,-2.0,13.0,-1.0,-3.0,-1.0,0.0,3.0
1702490260.8992212,-7.0,-6.0,1.0,0.0,2.0,0.0,-1.0,-5.0
1702490260.9189873,3.0,-6.0,-1.0,-3.0,1.0,1.0,-2.0,1.0
1702490260.9189873,2.0,11.0,28.0,1.0,-1.0,0.0,-2.0,6.0
1702490260.9289918,-7.0,-7.0,-32.0,-2.0,2.0,-2.0,-3.0,-11.0
1702490260.9289918,-3.0,-6.0,-3.0,-5.0,-1.0,-1.0,1.0,3.0
1702490260.9489827,0.0,2.0,-5.0,1.0,0.0,-1.0,-1.0,0.0
1702490260.9489827,-4.0,0.0,1.0,-2.0,-3.0,-1.0,-1.0,1.0
1702490260.9489827,6.0,2.0,-2.0,0.0,-2.0,-1.0,0.0,1.0
1702490260.9489827,-2.0,2.0,-2.0,2.0,1.0,-1.0,-2.0,-3.0
1702490260.959317,0.0,5.0,40.0,1.0,-2.0,-1.0,-1.0,-1.0
1702490260.959317,-1.0,-8.0,-33.0,-7.0,-1.0,-2.0,-1.0,-5.0
1702490260.959317,1.0,3.0,33.0,2.0,-1.0,-1.0,0.0,2.0
1702490260.959317,-1.0,-8.0,-63.0,-4.0,-1.0,-1.0,1.0,-2.0
1702490260.978983,-2.0,2.0,0.0,3.0,0.0,-1.0,0.0,0.0
1702490260.978983,-1.0,-11.0,20.0,-3.0,-2.0,-2.0,-1.0,7.0
1702490260.978983,0.0,4.0,14.0,-4.0,-2.0,-2.0,-2.0,-6.0
1702490260.978983,-1.0,1.0,-11.0,-1.0,-2.0,-1.0,1.0,3.0
1702490260.9892807,-3.0,-3.0,10.0,1.0,-2.0,0.0,-2.0,-4.0
1702490260.9892807,-4.0,1.0,-12.0,-2.0,1.0,1.0,-1.0,1.0
1702490260.9892807,3.0,-1.0,-41.0,-6.0,1.0,-1.0,-1.0,0.0
1702490260.9892807,3.0,2.0,35.0,0.0,-5.0,-2.0,-1.0,2.0
1702490261.0193577,-7.0,-4.0,-6.0,-3.0,-4.0,-2.0,0.0,-3.0
1702490261.0193577,5.0,-1.0,-30.0,4.0,0.0,-1.0,-3.0,-5.0
1702490261.0193577,0.0,-2.0,23.0,-1.0,0.0,-2.0,-2.0,-2.0
1702490261.0193577,1.0,6.0,0.0,0.0,0.0,2.0,-1.0,2.0
1702490261.0389826,2.0,-3.0,9.0,-2.0,3.0,1.0,0.0,1.0
1702490261.0389826,0.0,5.0,10.0,1.0,-1.0,0.0,-1.0,-3.0
1702490261.0489814,-7.0,-4.0,-7.0,0.0,-2.0,-2.0,1.0,1.0
1702490261.0489814,1.0,-3.0,-12.0,0.0,-1.0,-1.0,0.0,2.0
1702490261.0489814,-3.0,-1.0,14.0,-1.0,0.0,0.0,-3.0,-3.0
1702490261.0489814,-1.0,2.0,-9.0,-3.0,-3.0,0.0,0.0,0.0
1702490261.0590148,1.0,-5.0,-1.0,-2.0,-2.0,-1.0,0.0,-6.0
1702490261.0590148,-3.0,9.0,38.0,3.0,-1.0,-2.0,-2.0,-2.0
1702490261.079325,-2.0,-10.0,-50.0,-4.0,0.0,-2.0,1.0,3.0
1702490261.079325,-2.0,-3.0,-10.0,0.0,1.0,-1.0,-1.0,3.0
1702490261.079325,-5.0,-1.0,-1.0,1.0,-1.0,-1.0,-2.0,-7.0
1702490261.079325,7.0,0.0,24.0,-1.0,0.0,-1.0,0.0,1.0
1702490261.0989795,3.0,1.0,-8.0,-2.0,0.0,-2.0,-1.0,-3.0
1702490261.0989795,-3.0,1.0,26.0,1.0,-1.0,-2.0,-1.0,-3.0
1702490261.0989795,2.0,2.0,-7.0,-3.0,-2.0,-1.0,0.0,7.0
1702490261.0989795,-3.0,-7.0,-24.0,-2.0,-1.0,-2.0,-1.0,-2.0
1702490261.1109269,-4.0,-6.0,-22.0,-1.0,3.0,3.0,2.0,-4.0
1702490261.1109269,2.0,3.0,15.0,3.0,2.0,-2.0,-3.0,-7.0
1702490261.1197038,-2.0,2.0,16.0,-3.0,-3.0,-2.0,-1.0,-2.0
1702490261.1197038,-3.0,1.0,15.0,0.0,-1.0,-1.0,0.0,-2.0
1702490261.1397545,0.0,0.0,-21.0,-8.0,-4.0,-1.0,-2.0,-1.0
1702490261.1397545,-4.0,1.0,2.0,-1.0,0.0,0.0,0.0,-2.0
1702490261.1397545,2.0,-2.0,-8.0,3.0,0.0,1.0,-2.0,1.0
1702490261.1397545,-2.0,-4.0,8.0,-2.0,-2.0,-4.0,-2.0,0.0
1702490261.1615095,1.0,1.0,8.0,-4.0,-4.0,-1.0,0.0,1.0
1702490261.1615095,-1.0,-2.0,7.0,0.0,-2.0,-2.0,2.0,1.0
1702490261.1615095,-2.0,1.0,-18.0,-1.0,-2.0,0.0,-3.0,-11.0
1702490261.1615095,-2.0,-4.0,1.0,-2.0,0.0,-1.0,-1.0,-7.0
1702490261.1818573,-4.0,0.0,13.0,0.0,0.0,-4.0,0.0,-1.0
1702490261.1818573,-3.0,1.0,12.0,-1.0,-2.0,0.0,0.0,0.0
1702490261.1818573,1.0,-2.0,-18.0,-1.0,0.0,-1.0,0.0,8.0
1702490261.1818573,3.0,4.0,1.0,1.0,0.0,0.0,-1.0,-1.0
1702490261.191842,-1.0,-6.0,-14.0,0.0,-1.0,-1.0,-3.0,-9.0
1702490261.191842,1.0,1.0,12.0,-1.0,-3.0,-1.0,-1.0,0.0
1702490261.191842,-3.0,-4.0,-9.0,-1.0,-1.0,1.0,0.0,2.0
1702490261.191842,-2.0,0.0,16.0,1.0,1.0,3.0,0.0,-2.0
1702490261.2200203,0.0,2.0,-9.0,-4.0,-2.0,-2.0,-2.0,-2.0
1702490261.2200203,-1.0,-3.0,-2.0,2.0,0.0,-1.0,1.0,0.0
1702490261.2200203,2.0,-4.0,-12.0,-5.0,-3.0,-2.0,-1.0,1.0
1702490261.2200203,-3.0,0.0,-1.0,-1.0,-4.0,-2.0,-1.0,-5.0
1702490261.2400274,0.0,0.0,10.0,-2.0,0.0,1.0,-1.0,1.0
1702490261.2400274,-5.0,1.0,6.0,1.0,-2.0,-1.0,0.0,-4.0
1702490261.2400274,0.0,4.0,18.0,0.0,1.0,0.0,-2.0,-4.0
1702490261.2400274,1.0,-3.0,-24.0,-3.0,1.0,0.0,-1.0,4.0
1702490261.260304,0.0,-2.0,-15.0,1.0,-2.0,-2.0,-3.0,0.0
1702490261.260304,-3.0,-6.0,22.0,3.0,-1.0,1.0,2.0,17.0
1702490261.260304,1.0,-3.0,-20.0,0.0,0.0,-1.0,-2.0,-15.0
1702490261.260304,-5.0,-6.0,-7.0,-4.0,-2.0,-1.0,-2.0,-10.0
1702490261.2900279,-3.0,2.0,8.0,2.0,-1.0,-3.0,-1.0,3.0
1702490261.2900279,2.0,8.0,-14.0,-5.0,-1.0,0.0,0.0,4.0
1702490261.2900279,0.0,-5.0,48.0,1.0,0.0,0.0,1.0,3.0
1702490261.2900279,-3.0,1.0,-5.0,1.0,1.0,0.0,-2.0,3.0
1702490261.2900279,0.0,0.0,-2.0,-1.0,-3.0,-2.0,-1.0,1.0
1702490261.2900279,0.0,-1.0,2.0,-5.0,0.0,-2.0,-2.0,-9.0
1702490261.300408,-2.0,4.0,9.0,2.0,1.0,0.0,1.0,4.0
1702490261.300408,-2.0,-1.0,-2.0,-1.0,1.0,0.0,-1.0,-6.0
1702490261.320027,2.0,-1.0,8.0,-1.0,0.0,0.0,1.0,1.0
1702490261.320027,-2.0,0.0,-20.0,-3.0,-1.0,-2.0,-3.0,-4.0
1702490261.320027,3.0,4.0,5.0,0.0,-2.0,-2.0,0.0,4.0
1702490261.320027,-2.0,-2.0,11.0,2.0,1.0,0.0,-1.0,3.0
1702490261.340373,3.0,-10.0,-82.0,-4.0,-2.0,1.0,0.0,8.0
1702490261.340373,-9.0,-2.0,8.0,0.0,-1.0,0.0,-1.0,-16.0
1702490261.340373,2.0,2.0,5.0,2.0,0.0,-2.0,-4.0,-2.0
1702490261.340373,0.0,6.0,18.0,-3.0,-3.0,-3.0,0.0,5.0
1702490261.3800313,-6.0,-8.0,-51.0,-5.0,-1.0,-2.0,-3.0,-10.0
1702490261.3800313,1.0,2.0,0.0,-7.0,-4.0,-1.0,-3.0,-4.0
1702490261.390026,-5.0,-11.0,-27.0,-1.0,0.0,1.0,0.0,3.0
1702490261.390026,-1.0,5.0,24.0,3.0,-2.0,0.0,1.0,-2.0
1702490261.390026,-2.0,-1.0,20.0,-2.0,0.0,0.0,-1.0,-2.0
1702490261.390026,-1.0,-3.0,-32.0,-2.0,-2.0,0.0,-1.0,1.0
1702490261.390026,-2.0,0.0,29.0,0.0,-1.0,0.0,0.0,-6.0
1702490261.390026,1.0,-2.0,-25.0,-3.0,-1.0,-2.0,0.0,-1.0
1702490261.4002943,-8.0,1.0,55.0,4.0,0.0,-1.0,-2.0,2.0
1702490261.4002943,8.0,-7.0,-11.0,1.0,-1.0,-1.0,-1.0,8.0
1702490261.4002943,1.0,12.0,12.0,0.0,0.0,0.0,-1.0,3.0
1702490261.4002943,1.0,-8.0,-4.0,-3.0,-1.0,-1.0,-1.0,2.0
1702490261.4200292,-4.0,-3.0,-9.0,1.0,-2.0,0.0,-1.0,-9.0
1702490261.4200292,-3.0,5.0,33.0,5.0,0.0,-2.0,-1.0,-4.0
1702490261.4200292,-4.0,-9.0,-29.0,-6.0,-2.0,-1.0,0.0,3.0
1702490261.4200292,2.0,-9.0,-76.0,-8.0,-2.0,-3.0,-3.0,-13.0
1702490261.4400287,-4.0,8.0,54.0,4.0,2.0,1.0,0.0,-6.0
1702490261.4400287,-1.0,-1.0,44.0,0.0,0.0,-1.0,-1.0,-1.0
1702490261.4400287,0.0,3.0,14.0,-2.0,-1.0,-1.0,1.0,1.0
1702490261.4400287,-7.0,0.0,9.0,3.0,-2.0,0.0,-1.0,2.0
1702490261.4601653,8.0,4.0,63.0,3.0,1.0,-2.0,0.0,2.0
1702490261.4601653,0.0,2.0,-18.0,-3.0,2.0,0.0,0.0,-5.0
1702490261.4601653,-4.0,-7.0,-34.0,-4.0,-1.0,-1.0,-2.0,-3.0
1702490261.4601653,-5.0,-2.0,10.0,1.0,0.0,-1.0,0.0,0.0
1702490261.490026,14.0,16.0,21.0,2.0,-1.0,0.0,1.0,10.0
1702490261.490026,-6.0,-16.0,-10.0,-4.0,-3.0,-2.0,-1.0,-14.0
1702490261.490026,-6.0,-8.0,10.0,-2.0,-2.0,-3.0,-2.0,-1.0
1702490261.490026,5.0,6.0,-9.0,4.0,1.0,2.0,-1.0,13.0
1702490261.500028,-12.0,-14.0,-17.0,-6.0,-6.0,-3.0,-4.0,-14.0
1702490261.500028,-1.0,2.0,-23.0,-5.0,-3.0,-1.0,-1.0,4.0
1702490261.500028,2.0,2.0,-20.0,0.0,-2.0,-3.0,-1.0,0.0
1702490261.500028,-3.0,-2.0,23.0,2.0,0.0,1.0,0.0,-5.0
1702490261.5202172,3.0,5.0,32.0,0.0,1.0,-1.0,-1.0,4.0
1702490261.5202172,2.0,-3.0,-47.0,-5.0,-1.0,1.0,-3.0,3.0
1702490261.5202172,0.0,-4.0,-3.0,1.0,1.0,1.0,-1.0,-4.0
1702490261.5202172,-4.0,2.0,13.0,-2.0,-2.0,-3.0,-3.0,-3.0
1702490261.5500274,-3.0,-4.0,-14.0,0.0,-1.0,0.0,-1.0,-2.0
1702490261.5500274,-3.0,-6.0,32.0,-3.0,-2.0,-3.0,-2.0,-4.0
1702490261.5500274,2.0,-3.0,-34.0,-3.0,-2.0,0.0,0.0,4.0
1702490261.5500274,0.0,1.0,-12.0,-4.0,-2.0,-2.0,0.0,-13.0
1702490261.5600328,-3.0,-5.0,-15.0,0.0,-2.0,-1.0,-1.0,0.0
1702490261.5600328,-4.0,2.0,-26.0,0.0,0.0,-2.0,0.0,7.0
1702490261.5600328,3.0,-4.0,-11.0,-4.0,0.0,0.0,-1.0,-5.0
1702490261.5600328,-1.0,-3.0,39.0,-2.0,-3.0,-2.0,0.0,0.0
1702490261.5803185,-2.0,-3.0,-48.0,-4.0,0.0,2.0,-1.0,-4.0
1702490261.5803185,5.0,9.0,54.0,8.0,4.0,1.0,0.0,-4.0
1702490261.5803185,-2.0,2.0,2.0,3.0,-3.0,0.0,-1.0,5.0
1702490261.5803185,-2.0,2.0,-5.0,0.0,-1.0,-1.0,1.0,4.0
1702490261.610026,-1.0,-19.0,-18.0,-10.0,-3.0,-2.0,3.0,10.0
1702490261.610026,1.0,-2.0,-17.0,-1.0,-2.0,-1.0,-4.0,-12.0
1702490261.610026,-4.0,1.0,58.0,2.0,0.0,0.0,-2.0,-6.0
1702490261.610026,2.0,1.0,11.0,-4.0,-3.0,-2.0,-1.0,-2.0
1702490261.6200283,5.0,9.0,3.0,11.0,3.0,1.0,1.0,11.0
1702490261.6200283,-6.0,-6.0,-6.0,-11.0,-3.0,0.0,1.0,-16.0
1702490261.6200283,1.0,2.0,13.0,2.0,-1.0,-2.0,-2.0,-1.0
1702490261.6200283,-2.0,-1.0,-18.0,-2.0,0.0,-1.0,0.0,0.0
1702490261.6419585,-1.0,-1.0,-4.0,-4.0,-2.0,-3.0,-2.0,-4.0
1702490261.6419585,-1.0,1.0,5.0,4.0,-1.0,1.0,0.0,3.0
1702490261.6427567,-5.0,6.0,-1.0,4.0,4.0,1.0,0.0,-2.0
1702490261.6427567,2.0,-3.0,-29.0,-3.0,0.0,-1.0,-1.0,-22.0
1702490261.670588,-1.0,2.0,14.0,3.0,0.0,0.0,-2.0,12.0
1702490261.670588,-1.0,-9.0,7.0,-4.0,-2.0,-1.0,0.0,3.0
1702490261.670588,-1.0,3.0,-11.0,-5.0,-2.0,-1.0,-1.0,1.0
1702490261.670588,2.0,-3.0,-52.0,-2.0,0.0,-2.0,-1.0,13.0
1702490261.6803052,-7.0,-4.0,-3.0,-4.0,-3.0,-4.0,-6.0,-29.0
1702490261.6803052,5.0,6.0,17.0,4.0,1.0,1.0,0.0,12.0
1702490261.6803052,1.0,-2.0,5.0,0.0,-1.0,-3.0,-1.0,2.0
1702490261.6803052,-4.0,-2.0,6.0,-5.0,-3.0,0.0,-1.0,5.0
1702490261.700306,1.0,5.0,37.0,-3.0,0.0,0.0,-1.0,-8.0
1702490261.700306,1.0,4.0,-2.0,5.0,4.0,1.0,-3.0,3.0
1702490261.700306,-4.0,-1.0,-28.0,-2.0,-4.0,-2.0,-4.0,-25.0
1702490261.7103422,2.0,-3.0,10.0,-1.0,0.0,-1.0,-3.0,0.0
1702490261.7302964,-6.0,-1.0,-17.0,-4.0,-4.0,-1.0,-3.0,2.0
1702490261.7302964,-1.0,-2.0,13.0,-3.0,-3.0,-3.0,-3.0,-13.0
1702490261.7302964,-2.0,1.0,2.0,1.0,2.0,2.0,1.0,6.0
1702490261.7302964,0.0,0.0,-1.0,2.0,0.0,-2.0,-2.0,0.0
1702490261.7402973,1.0,3.0,-5.0,-3.0,-2.0,-1.0,2.0,16.0
1702490261.7402973,-1.0,-8.0,-23.0,-3.0,-3.0,-4.0,-3.0,-27.0
1702490261.7402973,4.0,3.0,24.0,-1.0,-2.0,-1.0,-1.0,19.0
1702490261.7402973,-3.0,-1.0,-24.0,-2.0,-4.0,-2.0,-2.0,1.0
1702490261.7607696,-1.0,0.0,-14.0,0.0,2.0,3.0,1.0,8.0
1702490261.7607696,-1.0,-2.0,16.0,0.0,-1.0,0.0,0.0,3.0
1702490261.7607696,-3.0,-6.0,-35.0,-4.0,-3.0,-4.0,-1.0,-5.0
1702490261.7607696,2.0,1.0,26.0,0.0,-1.0,-2.0,-2.0,3.0
1702490261.7809453,0.0,0.0,-2.0,5.0,3.0,1.0,0.0,-9.0
1702490261.7809453,-1.0,0.0,2.0,-4.0,-2.0,-1.0,-1.0,10.0
1702490261.7809453,-4.0,-3.0,11.0,2.0,0.0,1.0,-1.0,-16.0
1702490261.7809453,-4.0,-8.0,-46.0,-4.0,0.0,-1.0,0.0,3.0
1702490261.7909687,1.0,2.0,-4.0,0.0,-3.0,-3.0,-3.0,1.0
1702490261.800721,1.0,5.0,33.0,2.0,1.0,0.0,0.0,8.0
1702490261.800721,0.0,0.0,-15.0,-2.0,0.0,-2.0,0.0,10.0
1702490261.800721,-3.0,-1.0,30.0,-1.0,-2.0,-1.0,-1.0,-4.0
1702490261.8209412,0.0,-9.0,-68.0,-1.0,-1.0,-1.0,0.0,-6.0
1702490261.8209412,1.0,1.0,-1.0,0.0,-1.0,-3.0,-4.0,-11.0
1702490261.8209412,-7.0,-2.0,9.0,-2.0,-2.0,0.0,-2.0,-8.0
1702490261.8209412,-1.0,-1.0,9.0,0.0,0.0,0.0,-1.0,1.0
1702490261.8604019,-1.0,1.0,8.0,-5.0,-3.0,-1.0,-3.0,-6.0
1702490261.8604019,-5.0,-1.0,-5.0,1.0,-4.0,-2.0,-2.0,5.0
1702490261.8604019,5.0,2.0,-15.0,-4.0,-2.0,-1.0,1.0,7.0
1702490261.8604019,-3.0,-4.0,-11.0,2.0,1.0,2.0,-2.0,-5.0
1702490261.8704028,-5.0,-4.0,30.0,-4.0,-1.0,-1.0,0.0,7.0
1702490261.8704028,2.0,-5.0,-40.0,-4.0,0.0,-1.0,1.0,-1.0
1702490261.8704028,-1.0,-2.0,4.0,-2.0,-1.0,-2.0,-1.0,6.0
1702490261.8704028,2.0,1.0,20.0,-2.0,-3.0,-2.0,0.0,2.0
1702490261.8804343,-2.0,3.0,9.0,0.0,-1.0,-1.0,0.0,-8.0
1702490261.8804343,-1.0,7.0,4.0,1.0,2.0,0.0,1.0,7.0
1702490261.8804343,-4.0,-14.0,-58.0,-3.0,-3.0,1.0,0.0,7.0
1702490261.8804343,-2.0,2.0,14.0,-4.0,-3.0,-2.0,-5.0,-26.0
1702490261.9007213,0.0,-1.0,-1.0,0.0,-3.0,-2.0,-1.0,-1.0
1702490261.9007213,0.0,5.0,15.0,1.0,0.0,-2.0,-2.0,-4.0
1702490261.9007213,-3.0,-8.0,-17.0,0.0,0.0,-2.0,-2.0,2.0
1702490261.9007213,-2.0,-4.0,-27.0,2.0,2.0,0.0,0.0,11.0
1702490261.910635,1.0,-1.0,-35.0,-5.0,0.0,-2.0,-1.0,2.0
1702490261.910635,-7.0,-13.0,-23.0,-2.0,0.0,-1.0,-1.0,-1.0
1702490261.9204054,5.0,5.0,-5.0,3.0,2.0,-1.0,-1.0,-7.0
1702490261.9204054,-3.0,-8.0,7.0,-11.0,-3.0,-2.0,-1.0,1.0
1702490261.9404378,-1.0,0.0,7.0,1.0,1.0,0.0,-4.0,-7.0
1702490261.9404378,2.0,3.0,13.0,-1.0,-2.0,-1.0,2.0,11.0
1702490261.9404378,-1.0,-11.0,-25.0,-2.0,-5.0,-1.0,-1.0,-8.0
1702490261.9404378,1.0,2.0,10.0,6.0,1.0,-1.0,0.0,-5.0
1702490261.960661,1.0,2.0,19.0,-6.0,-1.0,0.0,1.0,22.0
1702490261.960661,-4.0,-3.0,-25.0,-4.0,-1.0,0.0,-5.0,-63.0
1702490261.960661,0.0,5.0,38.0,3.0,0.0,-1.0,-1.0,11.0
1702490261.960661,0.0,3.0,9.0,1.0,-1.0,0.0,-1.0,-2.0
1702490261.9704044,-4.0,-4.0,2.0,0.0,-4.0,-4.0,-2.0,-6.0
1702490261.9704044,2.0,4.0,-5.0,2.0,1.0,0.0,1.0,14.0
1702490261.9804032,2.0,5.0,54.0,0.0,1.0,0.0,0.0,-2.0
1702490261.9804032,-4.0,-16.0,-64.0,-4.0,-2.0,-1.0,-1.0,-4.0
1702490262.0007715,3.0,3.0,-6.0,1.0,2.0,0.0,0.0,-3.0
1702490262.0007715,-2.0,-6.0,-4.0,-3.0,-5.0,-3.0,-1.0,11.0
1702490262.0007715,2.0,7.0,27.0,-2.0,-1.0,-2.0,-2.0,-6.0
1702490262.0007715,-1.0,5.0,9.0,5.0,1.0,0.0,0.0,11.0
1702490262.0304027,-1.0,-5.0,18.0,-3.0,-3.0,-2.0,-1.0,-8.0
1702490262.0304027,-2.0,-2.0,2.0,-3.0,-4.0,-2.0,0.0,9.0
1702490262.0304027,-3.0,5.0,16.0,-5.0,0.0,-1.0,-1.0,-2.0
1702490262.0304027,0.0,-1.0,15.0,1.0,1.0,1.0,-1.0,0.0
1702490262.0304027,-1.0,-5.0,-44.0,-1.0,0.0,2.0,-1.0,-6.0
1702490262.0304027,-4.0,-8.0,-35.0,-5.0,-5.0,-1.0,-1.0,5.0
1702490262.0404284,-1.0,-4.0,-4.0,1.0,-1.0,-1.0,0.0,4.0
1702490262.0404284,3.0,6.0,20.0,4.0,2.0,1.0,-3.0,-13.0
1702490262.0604286,-4.0,-2.0,12.0,-2.0,-2.0,-1.0,-1.0,-6.0
1702490262.0604286,-1.0,-1.0,12.0,-4.0,-2.0,-1.0,-1.0,2.0
1702490262.0604286,0.0,-1.0,-23.0,-1.0,-2.0,-2.0,0.0,2.0
1702490262.0604286,0.0,-3.0,21.0,-3.0,-4.0,-2.0,-1.0,1.0
1702490262.0807345,-3.0,1.0,15.0,2.0,-1.0,-1.0,-1.0,0.0
1702490262.0807345,0.0,0.0,-8.0,1.0,1.0,0.0,1.0,0.0
1702490262.0807345,0.0,0.0,-11.0,-1.0,2.0,1.0,-1.0,0.0
1702490262.0807345,-5.0,5.0,19.0,0.0,1.0,-4.0,1.0,-2.0
1702490262.100405,6.0,-2.0,-23.0,-1.0,-3.0,-1.0,0.0,-4.0
1702490262.100405,-4.0,-9.0,-46.0,-2.0,-1.0,0.0,-3.0,2.0
1702490262.100405,-4.0,-1.0,-21.0,-7.0,0.0,-1.0,-1.0,-8.0
1702490262.100405,-3.0,-4.0,28.0,5.0,-1.0,0.0,-1.0,3.0
1702490262.1207075,-2.0,-1.0,-24.0,-3.0,-2.0,0.0,-1.0,-4.0
1702490262.1207075,-1.0,5.0,37.0,4.0,-4.0,-3.0,0.0,3.0
1702490262.1207075,-2.0,-8.0,-21.0,-4.0,-1.0,-1.0,-1.0,-5.0
1702490262.1207075,2.0,4.0,-21.0,-8.0,-3.0,-2.0,-1.0,0.0
1702490262.1404629,-1.0,-2.0,27.0,4.0,-1.0,-3.0,-1.0,1.0
1702490262.1404629,-2.0,7.0,34.0,5.0,5.0,3.0,0.0,2.0
1702490262.1404629,-3.0,-8.0,-50.0,-1.0,-2.0,0.0,-1.0,-2.0
1702490262.1404629,0.0,2.0,0.0,-2.0,-3.0,0.0,0.0,6.0
1702490262.1843941,-2.0,-1.0,17.0,3.0,-1.0,-1.0,-3.0,-16.0
1702490262.1843941,0.0,-3.0,-7.0,-5.0,-1.0,-2.0,-1.0,3.0
1702490262.1853933,-1.0,2.0,31.0,4.0,0.0,0.0,-1.0,-5.0
1702490262.1853933,3.0,2.0,-17.0,1.0,1.0,-1.0,0.0,11.0
1702490262.1853933,-12.0,-8.0,8.0,-3.0,-2.0,-1.0,-1.0,-5.0
1702490262.1853933,0.0,1.0,5.0,4.0,2.0,-1.0,-2.0,4.0
1702490262.1853933,-1.0,0.0,25.0,-2.0,-1.0,0.0,-1.0,-4.0
1702490262.1853933,0.0,1.0,-6.0,-5.0,-4.0,-3.0,1.0,1.0
1702490262.2034655,1.0,0.0,13.0,0.0,1.0,1.0,-1.0,4.0
1702490262.2034655,-1.0,1.0,-2.0,4.0,2.0,-1.0,0.0,0.0
1702490262.2034655,0.0,3.0,5.0,-3.0,-2.0,-1.0,-2.0,2.0
1702490262.2034655,-3.0,-9.0,-8.0,1.0,-1.0,-1.0,-2.0,-4.0
1702490262.2230172,1.0,4.0,46.0,1.0,0.0,-1.0,1.0,0.0
1702490262.2230172,-3.0,-8.0,-29.0,-6.0,-4.0,-1.0,-1.0,-3.0
1702490262.2230172,-1.0,-3.0,-5.0,-2.0,-3.0,-2.0,0.0,-2.0
1702490262.2230172,-1.0,5.0,21.0,4.0,0.0,0.0,-1.0,-5.0
1702490262.2407384,1.0,-4.0,-43.0,-4.0,0.0,2.0,-1.0,1.0
1702490262.2407384,1.0,0.0,-15.0,-2.0,1.0,2.0,0.0,2.0
1702490262.2407384,-1.0,0.0,29.0,-3.0,-1.0,-2.0,0.0,-1.0
1702490262.2407384,2.0,5.0,-3.0,-3.0,-4.0,-2.0,0.0,-1.0
1702490262.2610955,-2.0,-9.0,-22.0,1.0,-1.0,-2.0,-1.0,1.0
1702490262.2610955,-1.0,-4.0,-3.0,-2.0,0.0,-2.0,1.0,-3.0
1702490262.2610955,0.0,3.0,5.0,4.0,0.0,1.0,1.0,-1.0
1702490262.2610955,-2.0,-6.0,-42.0,-8.0,-3.0,-1.0,-1.0,-5.0
1702490262.2811067,1.0,-1.0,9.0,0.0,-3.0,-2.0,-2.0,1.0
1702490262.2811067,-2.0,2.0,13.0,-2.0,-3.0,-3.0,-4.0,-1.0
1702490262.2911086,0.0,0.0,4.0,1.0,1.0,0.0,0.0,7.0
1702490262.2911086,0.0,0.0,33.0,2.0,1.0,-1.0,-2.0,-9.0
1702490262.3011096,2.0,6.0,-3.0,-6.0,-1.0,-2.0,-1.0,7.0
1702490262.3011096,-7.0,-12.0,-12.0,3.0,2.0,-1.0,0.0,-9.0
1702490262.3011096,-8.0,-4.0,2.0,-1.0,-2.0,-3.0,-2.0,-3.0
1702490262.3011096,-2.0,-5.0,-11.0,-2.0,3.0,1.0,-1.0,3.0
1702490262.3311253,-1.0,3.0,8.0,1.0,-1.0,0.0,-2.0,-2.0
1702490262.3311253,3.0,-2.0,-5.0,-2.0,-2.0,0.0,0.0,7.0
1702490262.3311253,2.0,1.0,9.0,-4.0,-4.0,-2.0,-2.0,-4.0
1702490262.3311253,-4.0,-6.0,-4.0,0.0,-1.0,0.0,-1.0,-1.0
1702490262.341223,1.0,6.0,18.0,1.0,-2.0,-1.0,0.0,-2.0
1702490262.341223,-2.0,1.0,17.0,0.0,-3.0,-1.0,1.0,-2.0
1702490262.341223,1.0,1.0,-9.0,-1.0,1.0,0.0,0.0,-2.0
1702490262.341223,-3.0,-13.0,-12.0,-2.0,-1.0,1.0,0.0,-2.0
1702490262.3612664,0.0,2.0,6.0,-4.0,-1.0,-2.0,-1.0,1.0
1702490262.3612664,1.0,4.0,43.0,2.0,-3.0,-1.0,-2.0,0.0
1702490262.3612664,1.0,-3.0,-24.0,1.0,0.0,-2.0,-1.0,-1.0
1702490262.3612664,-2.0,2.0,8.0,-2.0,0.0,-3.0,-2.0,-4.0
1702490262.4011207,0.0,-2.0,-14.0,0.0,0.0,-1.0,-2.0,-2.0
1702490262.4011207,-2.0,-5.0,-24.0,-4.0,0.0,-1.0,-2.0,-2.0
1702490262.4011207,-1.0,0.0,1.0,0.0,-3.0,-3.0,-2.0,-4.0
1702490262.4011207,-1.0,-3.0,-5.0,-5.0,0.0,-1.0,1.0,0.0
1702490262.4011207,1.0,-1.0,-9.0,-1.0,1.0,-1.0,0.0,6.0
1702490262.4011207,-2.0,-2.0,18.0,0.0,0.0,-2.0,-4.0,-12.0
1702490262.4011207,-3.0,-5.0,-31.0,-3.0,-2.0,-1.0,-2.0,-16.0
1702490262.4011207,1.0,1.0,3.0,0.0,-2.0,1.0,2.0,0.0
1702490262.4214692,1.0,2.0,-14.0,-3.0,0.0,0.0,0.0,0.0
1702490262.4214692,-2.0,2.0,24.0,3.0,1.0,0.0,-1.0,2.0
1702490262.4214692,2.0,-1.0,10.0,-5.0,-3.0,-3.0,-2.0,2.0
1702490262.4214692,-4.0,-4.0,-22.0,-1.0,-3.0,-3.0,0.0,-1.0
1702490262.461106,-2.0,-4.0,19.0,-5.0,-3.0,-2.0,-2.0,-6.0
1702490262.461106,3.0,10.0,-8.0,-6.0,-3.0,-1.0,-1.0,3.0
1702490262.461106,-3.0,-10.0,-4.0,4.0,1.0,0.0,1.0,0.0
1702490262.461106,2.0,12.0,11.0,0.0,-3.0,0.0,-1.0,1.0
1702490262.461106,-4.0,-8.0,-21.0,3.0,0.0,-1.0,-1.0,0.0
1702490262.461106,1.0,2.0,1.0,-2.0,1.0,0.0,2.0,1.0
1702490262.461106,-2.0,-3.0,-9.0,-2.0,1.0,0.0,-1.0,1.0
1702490262.461106,-2.0,1.0,-2.0,-1.0,-1.0,0.0,-3.0,-2.0
1702490262.4812827,-4.0,0.0,-4.0,1.0,-2.0,-2.0,0.0,-3.0
1702490262.4812827,0.0,-3.0,15.0,2.0,-3.0,-1.0,-1.0,-2.0
1702490262.4812827,-1.0,1.0,-20.0,-14.0,-3.0,0.0,0.0,-1.0
1702490262.4812827,1.0,-3.0,7.0,3.0,1.0,-1.0,-3.0,0.0
1702490262.5211153,-2.0,2.0,-10.0,-3.0,-2.0,-3.0,-2.0,-2.0
1702490262.5211153,-3.0,-3.0,-3.0,2.0,1.0,0.0,-1.0,0.0
1702490262.5211153,1.0,1.0,11.0,3.0,0.0,-1.0,1.0,3.0
1702490262.5211153,-2.0,-5.0,-22.0,-5.0,-2.0,-3.0,-3.0,-2.0
1702490262.5211153,-4.0,1.0,14.0,-2.0,2.0,-1.0,-2.0,2.0
1702490262.5211153,-3.0,-1.0,-8.0,-3.0,-2.0,0.0,-3.0,-18.0
1702490262.5211153,-4.0,-3.0,4.0,3.0,0.0,0.0,-2.0,-4.0
1702490262.5211153,3.0,2.0,7.0,2.0,-1.0,-2.0,2.0,-4.0
1702490262.5414796,-3.0,-15.0,-42.0,-3.0,-4.0,-3.0,0.0,-3.0
1702490262.5414796,0.0,1.0,-17.0,-4.0,-3.0,-1.0,-2.0,3.0
1702490262.5414796,3.0,5.0,16.0,0.0,1.0,-2.0,-2.0,-1.0
1702490262.5414796,-3.0,-3.0,18.0,2.0,-2.0,0.0,-1.0,2.0
1702490262.561006,1.0,-2.0,7.0,1.0,0.0,-1.0,-2.0,0.0
1702490262.561006,-1.0,-4.0,1.0,2.0,-2.0,-1.0,0.0,1.0
1702490262.561006,-1.0,-9.0,-27.0,-1.0,0.0,1.0,1.0,5.0
1702490262.561006,0.0,7.0,-16.0,-1.0,1.0,0.0,-1.0,2.0
1702490262.5812857,-1.0,-4.0,14.0,-1.0,0.0,1.0,-1.0,-3.0
1702490262.5812857,-2.0,0.0,-6.0,-2.0,0.0,-1.0,0.0,1.0
1702490262.5910099,-1.0,0.0,54.0,1.0,-1.0,-1.0,0.0,-2.0
1702490262.5910099,-2.0,-9.0,-30.0,-3.0,-1.0,0.0,-1.0,-1.0
1702490262.601176,-3.0,-1.0,5.0,5.0,-2.0,-2.0,-1.0,-3.0
1702490262.601176,1.0,-2.0,18.0,-3.0,-1.0,-1.0,-1.0,2.0
1702490262.601176,-2.0,-1.0,-12.0,4.0,0.0,-1.0,-2.0,-1.0
1702490262.601176,0.0,-3.0,4.0,-2.0,-2.0,-2.0,-1.0,-1.0
1702490262.6210089,4.0,7.0,25.0,0.0,-3.0,-1.0,-2.0,0.0
1702490262.6210089,-5.0,-2.0,-26.0,-6.0,-4.0,-3.0,0.0,-1.0
1702490262.6210089,1.0,3.0,9.0,-5.0,-2.0,1.0,-1.0,3.0
1702490262.6210089,-5.0,-2.0,1.0,-2.0,-1.0,0.0,0.0,-12.0
1702490262.6413429,-2.0,-2.0,2.0,2.0,0.0,1.0,0.0,-1.0
1702490262.6413429,0.0,-2.0,-19.0,0.0,0.0,-1.0,-1.0,1.0
1702490262.650859,-1.0,2.0,9.0,-2.0,-1.0,0.0,-2.0,-3.0
1702490262.650859,1.0,-1.0,-8.0,-1.0,0.0,0.0,-1.0,2.0
1702490262.6808708,-4.0,0.0,5.0,-5.0,-3.0,-1.0,-1.0,1.0
1702490262.6808708,3.0,1.0,7.0,1.0,0.0,0.0,-2.0,0.0
1702490262.6808708,0.0,-7.0,-15.0,-3.0,-2.0,-3.0,0.0,2.0
1702490262.6808708,-2.0,-8.0,20.0,6.0,-2.0,-1.0,-2.0,2.0
1702490262.6808708,2.0,1.0,-31.0,-9.0,-2.0,-1.0,-1.0,-1.0
1702490262.6808708,-2.0,1.0,21.0,-7.0,-2.0,0.0,0.0,0.0
1702490262.6808708,-1.0,3.0,-18.0,3.0,-2.0,-2.0,-1.0,-1.0
1702490262.6808708,-1.0,-6.0,-2.0,0.0,-3.0,-1.0,-1.0,-1.0
1702490262.707793,-4.0,-9.0,45.0,2.0,2.0,-1.0,0.0,-3.0
1702490262.707793,-2.0,-3.0,-20.0,-4.0,-3.0,0.0,-1.0,0.0
1702490262.7187521,0.0,4.0,8.0,-1.0,1.0,1.0,-1.0,-2.0
1702490262.7187521,0.0,3.0,0.0,3.0,3.0,0.0,-1.0,-1.0
1702490262.7211154,3.0,8.0,19.0,-4.0,-1.0,2.0,-1.0,3.0
1702490262.7211154,-5.0,-12.0,-25.0,2.0,-2.0,-2.0,0.0,-1.0
1702490262.72601,-1.0,-1.0,-7.0,-2.0,-2.0,-2.0,-1.0,0.0
1702490262.72601,-1.0,5.0,8.0,-3.0,-1.0,0.0,-2.0,3.0
1702490262.7460256,-1.0,-2.0,-33.0,-2.0,1.0,0.0,-2.0,-1.0
1702490262.7460256,-1.0,0.0,0.0,3.0,-2.0,0.0,0.0,1.0
1702490262.7460256,1.0,4.0,-18.0,1.0,-1.0,-1.0,-1.0,-2.0
1702490262.7460256,-6.0,-13.0,-2.0,-11.0,-5.0,-3.0,-2.0,-2.0
1702490262.766012,-1.0,-3.0,-43.0,-4.0,0.0,-2.0,-1.0,-1.0
1702490262.766012,-3.0,2.0,13.0,-1.0,1.0,0.0,-2.0,-1.0
1702490262.7760096,-4.0,-10.0,-30.0,21.0,6.0,0.0,-1.0,0.0
1702490262.7760096,1.0,9.0,18.0,0.0,0.0,-1.0,-1.0,0.0
1702490262.7760096,-3.0,-2.0,-10.0,-4.0,-1.0,-2.0,-2.0,-1.0
1702490262.7760096,3.0,7.0,23.0,-7.0,-5.0,-2.0,-1.0,0.0
1702490262.7862515,-2.0,-9.0,-19.0,-15.0,-1.0,-1.0,-2.0,-5.0
1702490262.7862515,1.0,0.0,-11.0,-8.0,-1.0,-1.0,0.0,-2.0
1702490262.806017,-1.0,6.0,9.0,6.0,-2.0,-1.0,0.0,-1.0
1702490262.806017,-2.0,-3.0,-17.0,-4.0,0.0,0.0,-1.0,-1.0
1702490262.806017,1.0,9.0,40.0,-1.0,-3.0,-3.0,1.0,0.0
1702490262.806017,1.0,-4.0,-25.0,2.0,0.0,-1.0,-2.0,-1.0
1702490262.8261034,-3.0,-9.0,13.0,-1.0,1.0,-2.0,-1.0,-3.0
1702490262.8261034,1.0,0.0,9.0,2.0,0.0,-2.0,-1.0,-2.0
1702490262.846015,-2.0,-5.0,-9.0,-6.0,-3.0,-2.0,-1.0,1.0
1702490262.846015,-2.0,2.0,21.0,-1.0,1.0,-1.0,0.0,-1.0
1702490262.856011,2.0,5.0,18.0,3.0,-1.0,-2.0,-1.0,-2.0
1702490262.856011,1.0,-4.0,-50.0,-2.0,0.0,0.0,-1.0,0.0
1702490262.856011,0.0,-4.0,20.0,-3.0,-3.0,-1.0,-1.0,-3.0
1702490262.856011,2.0,8.0,13.0,2.0,-2.0,-2.0,-1.0,-1.0
1702490262.856011,-1.0,0.0,-14.0,-1.0,-1.0,1.0,-2.0,-2.0
1702490262.856011,-4.0,0.0,7.0,5.0,0.0,-2.0,-1.0,-2.0
1702490262.866007,-2.0,1.0,17.0,-5.0,-1.0,1.0,0.0,0.0
1702490262.866007,2.0,0.0,-8.0,4.0,1.0,-1.0,0.0,-1.0
1702490262.8860116,-2.0,-6.0,-3.0,5.0,-3.0,-1.0,-1.0,-2.0
1702490262.8860116,0.0,-2.0,18.0,4.0,0.0,0.0,-2.0,-1.0
1702490262.896011,1.0,2.0,-11.0,-4.0,-4.0,-2.0,-2.0,-2.0
1702490262.896011,-3.0,2.0,45.0,1.0,-1.0,-1.0,-1.0,-2.0
1702490262.896011,-3.0,-5.0,-36.0,-1.0,2.0,-2.0,0.0,0.0
1702490262.896011,-1.0,-4.0,-1.0,-5.0,-6.0,-3.0,-3.0,-3.0
1702490262.906251,0.0,4.0,10.0,2.0,3.0,0.0,-1.0,1.0
1702490262.906251,0.0,3.0,14.0,1.0,-1.0,-1.0,-2.0,-1.0
1702490262.9163911,1.0,1.0,8.0,-1.0,-1.0,-2.0,-1.0,-1.0
1702490262.9163911,-2.0,-4.0,-14.0,2.0,-1.0,0.0,0.0,1.0
1702490262.926426,-2.0,1.0,4.0,-3.0,-3.0,-2.0,-1.0,-2.0
1702490262.926426,-5.0,-6.0,-2.0,0.0,0.0,0.0,-1.0,3.0
1702490262.946458,2.0,0.0,-18.0,-6.0,-4.0,0.0,-1.0,0.0
1702490262.946458,0.0,-3.0,-9.0,-2.0,-1.0,-2.0,-2.0,-1.0
1702490262.9564283,-2.0,0.0,-6.0,1.0,-3.0,-2.0,0.0,-5.0
1702490262.9564283,1.0,-3.0,-17.0,-2.0,-2.0,-3.0,0.0,-8.0
1702490262.9564283,0.0,0.0,25.0,1.0,-1.0,0.0,-1.0,0.0
1702490262.9564283,-5.0,-2.0,-8.0,-4.0,1.0,2.0,-1.0,-5.0
1702490262.9661958,1.0,-1.0,0.0,1.0,0.0,-2.0,0.0,11.0
1702490262.9661958,1.0,4.0,-9.0,-5.0,2.0,-1.0,-2.0,-5.0
1702490262.976465,-2.0,-5.0,-21.0,-1.0,-2.0,-2.0,-2.0,-3.0
1702490262.976465,2.0,5.0,10.0,-7.0,-3.0,-4.0,-2.0,2.0
1702490262.9864552,0.0,4.0,8.0,2.0,-1.0,0.0,-1.0,1.0
1702490262.9864552,-4.0,-15.0,-10.0,-1.0,-2.0,0.0,1.0,1.0
1702490263.006239,-1.0,-2.0,-6.0,-1.0,0.0,-1.0,-1.0,-4.0
1702490263.006239,1.0,4.0,-7.0,-5.0,-3.0,0.0,-2.0,2.0
1702490263.006239,0.0,-3.0,-8.0,1.0,1.0,0.0,-2.0,-3.0
1702490263.006239,-3.0,10.0,22.0,-3.0,0.0,-2.0,-1.0,-1.0
1702490263.016608,2.0,-12.0,-2.0,3.0,1.0,0.0,0.0,1.0
1702490263.016608,-1.0,-2.0,-9.0,-1.0,2.0,-1.0,0.0,-3.0
1702490263.0265343,0.0,2.0,6.0,-3.0,-1.0,-1.0,-1.0,-4.0
1702490263.0265343,2.0,0.0,9.0,-1.0,-1.0,0.0,-1.0,2.0
1702490263.0366018,-5.0,-4.0,-35.0,-9.0,-4.0,-2.0,-2.0,-2.0
1702490263.0366018,3.0,4.0,4.0,1.0,1.0,-1.0,0.0,6.0
1702490263.046519,-6.0,-6.0,-15.0,-1.0,-1.0,0.0,-1.0,-12.0
1702490263.046519,-4.0,-1.0,3.0,0.0,-2.0,-1.0,-1.0,0.0
1702490263.0662389,-2.0,0.0,-21.0,-2.0,-2.0,-2.0,0.0,0.0
1702490263.0662389,0.0,1.0,15.0,1.0,-1.0,-1.0,0.0,-2.0
1702490263.0662389,1.0,-1.0,14.0,-2.0,-2.0,-1.0,-2.0,2.0
1702490263.0662389,1.0,3.0,-16.0,-5.0,-3.0,1.0,-2.0,-2.0
1702490263.0765414,-2.0,2.0,14.0,-2.0,1.0,-2.0,2.0,4.0
1702490263.0765414,0.0,-4.0,6.0,-1.0,-1.0,-2.0,-1.0,-3.0
1702490263.0865905,-2.0,-5.0,-17.0,-8.0,-3.0,-3.0,-4.0,-1.0
1702490263.0865905,-1.0,-6.0,-2.0,3.0,0.0,0.0,-2.0,-3.0
1702490263.106207,3.0,6.0,6.0,0.0,0.0,0.0,-2.0,2.0
1702490263.106207,-3.0,-4.0,9.0,3.0,4.0,0.0,-2.0,-1.0
1702490263.106207,-4.0,-5.0,28.0,-1.0,-1.0,-1.0,-1.0,-2.0
1702490263.106207,-4.0,-2.0,-79.0,-10.0,-5.0,-3.0,0.0,6.0
1702490263.1262946,1.0,-10.0,1.0,-2.0,-1.0,-1.0,-1.0,-9.0
1702490263.1262946,-3.0,-5.0,-4.0,0.0,0.0,-2.0,0.0,-2.0
1702490263.1262946,2.0,1.0,9.0,-3.0,-1.0,0.0,-2.0,-2.0
1702490263.1262946,-4.0,-4.0,6.0,1.0,-2.0,0.0,-1.0,0.0
1702490263.1364734,-2.0,5.0,23.0,2.0,0.0,0.0,-1.0,0.0
1702490263.1364734,0.0,2.0,-5.0,-1.0,-1.0,0.0,1.0,-3.0
1702490263.1464734,1.0,-2.0,-13.0,-1.0,1.0,0.0,0.0,3.0
1702490263.1464734,1.0,1.0,11.0,-1.0,-3.0,-1.0,-1.0,-7.0
1702490263.1862066,0.0,2.0,-5.0,-1.0,1.0,0.0,0.0,-3.0
1702490263.1862066,-3.0,-1.0,13.0,-1.0,-2.0,-1.0,-1.0,1.0
1702490263.1862066,-5.0,-1.0,-8.0,0.0,-1.0,0.0,-1.0,-7.0
1702490263.1862066,4.0,-1.0,7.0,0.0,2.0,-1.0,-2.0,1.0
1702490263.1862066,-6.0,-1.0,12.0,0.0,-2.0,-2.0,0.0,1.0
1702490263.1862066,2.0,-4.0,5.0,2.0,-1.0,0.0,-2.0,-4.0
1702490263.1862066,3.0,-5.0,-18.0,-1.0,-4.0,0.0,-1.0,5.0
1702490263.1862066,-3.0,-1.0,-24.0,3.0,3.0,-1.0,-1.0,-3.0
1702490263.1965692,-3.0,3.0,20.0,-1.0,0.0,1.0,-2.0,-2.0
1702490263.1965692,-1.0,-5.0,-30.0,-5.0,-3.0,0.0,-1.0,0.0
1702490263.2065854,-1.0,6.0,15.0,3.0,-1.0,-2.0,0.0,0.0
1702490263.2065854,-3.0,-7.0,11.0,1.0,-1.0,-2.0,-2.0,3.0
1702490263.2295563,1.0,-5.0,-23.0,-2.0,-1.0,0.0,1.0,-1.0
1702490263.2295563,2.0,5.0,5.0,-1.0,-2.0,-2.0,0.0,3.0
1702490263.2326796,-4.0,-5.0,-7.0,-1.0,2.0,0.0,-3.0,-8.0
1702490263.2326796,-3.0,0.0,-4.0,-1.0,0.0,-2.0,0.0,-16.0
1702490263.2479599,-1.0,1.0,8.0,-4.0,-1.0,-2.0,0.0,2.0
1702490263.2479599,-2.0,-1.0,27.0,1.0,-1.0,-1.0,-1.0,0.0
1702490263.2493296,-4.0,-5.0,-24.0,-3.0,-3.0,-3.0,-1.0,0.0
1702490263.2493296,-2.0,1.0,-15.0,-3.0,-2.0,-1.0,1.0,14.0
1702490263.2667065,5.0,0.0,9.0,0.0,-3.0,0.0,-6.0,-17.0
1702490263.2667065,-2.0,3.0,-10.0,0.0,1.0,0.0,0.0,-4.0
1702490263.2667065,2.0,1.0,7.0,2.0,1.0,-1.0,0.0,-1.0
1702490263.2667065,-1.0,-2.0,10.0,1.0,2.0,0.0,0.0,4.0
1702490263.2867181,-2.0,-1.0,-18.0,-5.0,-1.0,-2.0,1.0,9.0
1702490263.2867181,1.0,0.0,7.0,1.0,-2.0,-1.0,-2.0,-1.0
1702490263.2867181,-1.0,-7.0,-12.0,-1.0,0.0,0.0,-1.0,-2.0
1702490263.2867181,1.0,2.0,18.0,2.0,0.0,-1.0,-1.0,3.0
1702490263.3072028,-3.0,0.0,3.0,-3.0,-2.0,-2.0,-1.0,-9.0
1702490263.3072028,-2.0,-2.0,-3.0,-2.0,-1.0,-1.0,-1.0,2.0
1702490263.3072028,-5.0,0.0,10.0,0.0,-1.0,-1.0,0.0,4.0
1702490263.3072028,5.0,-1.0,1.0,-2.0,-3.0,-1.0,-2.0,-5.0
1702490263.3372145,6.0,0.0,-3.0,0.0,-1.0,0.0,2.0,26.0
1702490263.3372145,-8.0,-3.0,11.0,-3.0,-3.0,-3.0,-1.0,-15.0
1702490263.3372145,-2.0,2.0,-9.0,0.0,1.0,-1.0,0.0,-6.0
1702490263.3372145,-2.0,0.0,-8.0,-1.0,-1.0,0.0,-3.0,-8.0
1702490263.3372145,3.0,1.0,20.0,0.0,-1.0,-2.0,0.0,0.0
1702490263.3372145,-1.0,-1.0,-15.0,-2.0,-2.0,-2.0,-1.0,1.0
1702490263.3475628,-1.0,1.0,10.0,0.0,-1.0,-1.0,1.0,0.0
1702490263.3475628,4.0,-3.0,-1.0,-1.0,-1.0,-2.0,-3.0,0.0
1702490263.3669856,0.0,0.0,8.0,2.0,-1.0,-2.0,0.0,-2.0
1702490263.3669856,-6.0,0.0,-6.0,2.0,0.0,-1.0,-3.0,-31.0
1702490263.3669856,11.0,-2.0,-7.0,-2.0,-1.0,-3.0,2.0,25.0
1702490263.3669856,0.0,0.0,0.0,-1.0,0.0,0.0,2.0,1.0
1702490263.3869953,-6.0,0.0,-3.0,0.0,-1.0,-1.0,-1.0,-8.0
1702490263.3869953,7.0,-1.0,0.0,-2.0,0.0,0.0,-1.0,0.0
1702490263.3869953,-6.0,-1.0,-14.0,-3.0,-2.0,0.0,-2.0,-7.0
1702490263.3869953,-4.0,-5.0,-34.0,0.0,0.0,-2.0,-1.0,-2.0
1702490263.3970273,-1.0,-3.0,-1.0,2.0,2.0,-2.0,-2.0,-7.0
1702490263.3970273,3.0,0.0,-1.0,-1.0,-1.0,-3.0,-3.0,17.0
1702490263.4072707,0.0,1.0,18.0,0.0,2.0,6.0,3.0,6.0
1702490263.4072707,1.0,-4.0,7.0,0.0,0.0,3.0,2.0,-3.0
1702490263.4272704,-4.0,-1.0,-10.0,-3.0,-4.0,1.0,12.0,-11.0
1702490263.4272704,-5.0,-1.0,-9.0,-2.0,-1.0,-2.0,1.0,1.0
1702490263.4272704,6.0,-1.0,-3.0,-2.0,-3.0,-5.0,-3.0,-6.0
1702490263.4272704,-1.0,2.0,-1.0,0.0,-1.0,-1.0,-5.0,1.0
1702490263.4569933,-1.0,-1.0,-4.0,4.0,2.0,-1.0,-3.0,5.0
1702490263.4569933,-3.0,-1.0,2.0,1.0,-2.0,0.0,0.0,3.0
1702490263.4569933,0.0,0.0,-2.0,-4.0,-3.0,-2.0,-2.0,-8.0
1702490263.4569933,-1.0,2.0,16.0,0.0,-1.0,-1.0,2.0,-3.0
1702490263.4569933,-1.0,-6.0,-30.0,-3.0,-4.0,-3.0,-4.0,-3.0
1702490263.4569933,-3.0,-3.0,1.0,-1.0,-1.0,-1.0,-1.0,7.0
1702490263.4673526,-3.0,-1.0,9.0,-1.0,0.0,-2.0,-4.0,-6.0
1702490263.4673526,-1.0,-3.0,2.0,0.0,0.0,-1.0,-1.0,1.0
1702490263.4870958,-3.0,1.0,34.0,-2.0,-2.0,-1.0,-4.0,0.0
1702490263.4870958,3.0,0.0,-39.0,-2.0,0.0,0.0,0.0,-2.0
1702490263.4870958,-2.0,1.0,-13.0,-5.0,-1.0,1.0,1.0,-1.0
1702490263.4870958,-4.0,0.0,10.0,-2.0,-1.0,-1.0,-2.0,-1.0
1702490263.5069942,1.0,2.0,8.0,4.0,-1.0,-2.0,-3.0,0.0
1702490263.5069942,-3.0,-3.0,-11.0,-3.0,-2.0,1.0,-2.0,-1.0
1702490263.5069942,3.0,-1.0,-2.0,1.0,-1.0,-1.0,-1.0,-2.0
1702490263.5069942,-1.0,-2.0,7.0,1.0,-3.0,-2.0,2.0,1.0
1702490263.5173857,-1.0,-5.0,-2.0,0.0,0.0,1.0,-2.0,-2.0
1702490263.5173857,2.0,5.0,-9.0,-8.0,-4.0,-1.0,-3.0,1.0
1702490263.5273535,-2.0,1.0,25.0,1.0,-1.0,-1.0,-3.0,-2.0
1702490263.5273535,-1.0,-1.0,-32.0,-5.0,-2.0,-1.0,-1.0,-4.0
1702490263.547035,-2.0,-2.0,-7.0,-2.0,-5.0,-2.0,-2.0,-1.0
1702490263.547035,1.0,-4.0,-20.0,-3.0,-1.0,-1.0,0.0,0.0
1702490263.5569937,-1.0,-1.0,13.0,2.0,3.0,-1.0,1.0,-1.0
1702490263.5569937,0.0,-1.0,7.0,-8.0,-5.0,-2.0,-1.0,-1.0
1702490263.56703,-1.0,1.0,5.0,-1.0,0.0,-2.0,-2.0,1.0
1702490263.56703,-1.0,0.0,15.0,9.0,0.0,1.0,-1.0,1.0
1702490263.56703,-2.0,1.0,-5.0,-3.0,0.0,1.0,0.0,-3.0
1702490263.56703,-3.0,-5.0,-14.0,-1.0,-1.0,-2.0,-3.0,-3.0
1702490263.577031,0.0,3.0,-7.0,3.0,3.0,-1.0,-1.0,0.0
1702490263.577031,-2.0,-1.0,1.0,-1.0,-2.0,-3.0,-1.0,-2.0
1702490263.5871873,0.0,3.0,-19.0,-2.0,1.0,-2.0,-3.0,1.0
1702490263.5871873,-1.0,-5.0,4.0,-5.0,-2.0,2.0,2.0,0.0
1702490263.607173,-2.0,-6.0,8.0,-6.0,-1.0,0.0,-1.0,0.0
1702490263.607173,0.0,2.0,2.0,7.0,4.0,1.0,-2.0,-1.0
1702490263.607173,-3.0,-12.0,-30.0,-3.0,-5.0,-3.0,-2.0,-1.0
1702490263.607173,0.0,4.0,13.0,-1.0,-8.0,-2.0,-3.0,-1.0
1702490263.6270294,-1.0,-3.0,-18.0,-17.0,2.0,-1.0,-1.0,0.0
1702490263.6270294,0.0,2.0,28.0,31.0,4.0,3.0,2.0,1.0
1702490263.6270294,-2.0,-7.0,-19.0,-1.0,-3.0,-1.0,-2.0,-2.0
1702490263.6270294,-1.0,4.0,28.0,4.0,3.0,0.0,-1.0,-1.0
1702490263.6373594,-3.0,-6.0,-64.0,-11.0,-17.0,-7.0,-4.0,-2.0
1702490263.6373594,0.0,0.0,27.0,-12.0,-2.0,-4.0,-2.0,0.0
1702490263.6473582,1.0,0.0,3.0,3.0,6.0,3.0,1.0,0.0
1702490263.6473582,0.0,-1.0,-8.0,3.0,5.0,1.0,1.0,0.0
1702490263.6670806,-3.0,0.0,28.0,6.0,4.0,0.0,1.0,-2.0
1702490263.6670806,-1.0,-1.0,-7.0,-8.0,-8.0,-5.0,0.0,0.0
1702490263.676995,-2.0,-5.0,-31.0,-6.0,-8.0,-3.0,-1.0,-1.0
1702490263.676995,-2.0,0.0,-3.0,-3.0,0.0,0.0,-1.0,0.0
1702490263.6873212,1.0,5.0,19.0,-2.0,-1.0,1.0,0.0,-2.0
1702490263.6873212,-1.0,-5.0,-10.0,-2.0,0.0,-1.0,-2.0,-1.0
1702490263.6873212,-1.0,0.0,12.0,1.0,-5.0,-3.0,-1.0,-2.0
1702490263.6873212,0.0,2.0,-9.0,-5.0,-1.0,-1.0,-1.0,-1.0
1702490263.6972172,2.0,5.0,19.0,3.0,5.0,3.0,0.0,-1.0
1702490263.6972172,-2.0,-6.0,-44.0,-1.0,3.0,2.0,-1.0,-1.0
1702490263.7072687,-2.0,2.0,22.0,1.0,0.0,-1.0,-1.0,2.0
1702490263.7072687,-2.0,-3.0,1.0,-2.0,-9.0,-5.0,-1.0,-1.0
1702490263.72719,2.0,3.0,13.0,6.0,3.0,2.0,-1.0,-3.0
1702490263.72719,0.0,-1.0,7.0,-8.0,1.0,-1.0,2.0,-2.0
1702490263.7369947,-4.0,-3.0,13.0,3.0,1.0,-1.0,-1.0,3.0
1702490263.7369947,3.0,1.0,9.0,-3.0,-3.0,0.0,-1.0,-3.0
1702490263.7472758,-3.0,-2.0,-5.0,-3.0,-4.0,-1.0,0.0,8.0
1702490263.7472758,-1.0,-1.0,23.0,-1.0,-2.0,0.0,-3.0,-4.0
1702490263.7472758,-1.0,-2.0,-29.0,-5.0,-3.0,0.0,-1.0,2.0
1702490263.7472758,-1.0,2.0,24.0,8.0,8.0,3.0,-2.0,0.0
1702490263.75719,-3.0,-7.0,-45.0,-7.0,-1.0,-1.0,-1.0,0.0
1702490263.75719,-2.0,-2.0,-14.0,-2.0,-1.0,-2.0,0.0,0.0
1702490263.780385,0.0,3.0,20.0,1.0,-2.0,-2.0,-1.0,-4.0
1702490263.780385,-2.0,-2.0,6.0,-3.0,2.0,0.0,1.0,-1.0
1702490263.7911458,-1.0,-3.0,9.0,3.0,-1.0,-5.0,-2.0,-5.0
1702490263.7911458,-3.0,-1.0,-8.0,-6.0,-2.0,1.0,1.0,0.0
1702490263.7911458,0.0,-3.0,14.0,0.0,0.0,1.0,-2.0,-4.0
1702490263.7911458,-1.0,-2.0,-25.0,1.0,-2.0,-2.0,-3.0,-2.0
1702490263.8112104,-3.0,1.0,2.0,-3.0,-1.0,1.0,-1.0,-1.0
1702490263.8112104,-1.0,-3.0,7.0,-3.0,-2.0,0.0,-2.0,-3.0
1702490263.8112104,6.0,3.0,10.0,3.0,1.0,0.0,0.0,10.0
1702490263.8112104,-10.0,-3.0,11.0,-1.0,-2.0,-1.0,1.0,-13.0
1702490263.8214626,4.0,-10.0,-43.0,-3.0,-5.0,-1.0,-3.0,-3.0
1702490263.8214626,-2.0,4.0,7.0,0.0,-1.0,-1.0,-2.0,-3.0
1702490263.831153,-1.0,-2.0,23.0,-3.0,-2.0,1.0,0.0,6.0
1702490263.831153,2.0,-4.0,-2.0,-3.0,-2.0,-1.0,-1.0,3.0
1702490263.8611472,0.0,1.0,13.0,3.0,-2.0,0.0,-2.0,-2.0
1702490263.8611472,-5.0,-1.0,-12.0,-3.0,2.0,2.0,1.0,-1.0
1702490263.8611472,2.0,1.0,-11.0,5.0,-1.0,0.0,-1.0,-1.0
1702490263.8611472,-2.0,1.0,25.0,0.0,-1.0,-1.0,0.0,1.0
1702490263.8712182,-2.0,10.0,23.0,3.0,2.0,-1.0,0.0,-1.0
1702490263.8712182,0.0,-11.0,-9.0,-3.0,-2.0,-1.0,-1.0,3.0
1702490263.8712182,-5.0,-1.0,6.0,-2.0,0.0,-1.0,-1.0,-7.0
1702490263.8712182,2.0,1.0,-46.0,-4.0,-2.0,-2.0,-1.0,2.0
1702490263.8779938,-2.0,-2.0,-26.0,-1.0,-3.0,0.0,-1.0,-2.0
1702490263.8779938,-3.0,-4.0,30.0,0.0,-1.0,-1.0,0.0,0.0
1702490263.8880103,-2.0,5.0,-5.0,-2.0,-1.0,-1.0,-2.0,-5.0
1702490263.8880103,-2.0,-4.0,-15.0,1.0,-2.0,-2.0,-1.0,-2.0
1702490263.898005,0.0,0.0,30.0,2.0,0.0,0.0,0.0,2.0
1702490263.898005,-3.0,1.0,-5.0,-4.0,-5.0,-3.0,-3.0,-1.0
1702490263.9080045,-1.0,3.0,-22.0,-1.0,0.0,-1.0,-1.0,-2.0
1702490263.9080045,3.0,-7.0,-14.0,-4.0,-2.0,-1.0,-3.0,2.0
1702490263.928307,-3.0,-3.0,-6.0,0.0,-2.0,-1.0,-1.0,-2.0
1702490263.928307,0.0,4.0,19.0,-2.0,-1.0,0.0,0.0,-1.0
1702490263.928307,-1.0,-20.0,9.0,-3.0,-2.0,-3.0,0.0,-4.0
1702490263.928307,-3.0,-3.0,-15.0,3.0,0.0,-1.0,1.0,2.0
1702490263.9480038,-2.0,1.0,8.0,-4.0,1.0,0.0,-3.0,-1.0
1702490263.9480038,-2.0,-7.0,-13.0,-1.0,-2.0,-2.0,-1.0,0.0
1702490263.9580052,0.0,9.0,36.0,1.0,0.0,-2.0,0.0,-1.0
1702490263.9580052,2.0,0.0,-42.0,-2.0,0.0,1.0,-3.0,-1.0
1702490263.9680047,-4.0,-31.0,-2.0,-4.0,-2.0,0.0,-1.0,-3.0
1702490263.9680047,-9.0,18.0,17.0,5.0,1.0,1.0,1.0,2.0
1702490263.9680047,-8.0,-6.0,6.0,-4.0,-2.0,-3.0,-3.0,-6.0
1702490263.9680047,-1.0,-1.0,-17.0,-2.0,-2.0,-1.0,-1.0,1.0
1702490263.9883757,-2.0,0.0,-27.0,4.0,1.0,1.0,-2.0,-2.0
1702490263.9883757,2.0,-8.0,17.0,-1.0,-1.0,-2.0,-2.0,-1.0
1702490263.9883757,2.0,5.0,-3.0,-6.0,-1.0,0.0,-2.0,-2.0
1702490263.9883757,-2.0,-3.0,11.0,-3.0,-1.0,0.0,-2.0,-2.0
1702490263.998333,2.0,-4.0,12.0,1.0,0.0,-1.0,2.0,0.0
1702490263.998333,-2.0,-2.0,-29.0,1.0,0.0,-1.0,-1.0,-4.0
1702490264.0183446,-4.0,-61.0,-11.0,-6.0,-8.0,-3.0,-4.0,-4.0
1702490264.0183446,3.0,15.0,50.0,2.0,1.0,-2.0,-1.0,1.0
1702490264.0183446,-3.0,2.0,-65.0,-6.0,-1.0,-1.0,-3.0,-1.0
1702490264.0183446,10.0,5.0,7.0,-3.0,-1.0,-1.0,-1.0,1.0
1702490264.0283442,-5.0,12.0,-9.0,1.0,-1.0,-1.0,-1.0,-1.0
1702490264.0283442,-4.0,-21.0,-15.0,0.0,1.0,0.0,-1.0,-1.0
1702490264.0487013,-3.0,-12.0,17.0,-6.0,-5.0,-3.0,-2.0,-2.0
1702490264.0487013,3.0,-3.0,1.0,2.0,-1.0,-2.0,-2.0,0.0
1702490264.0487013,-3.0,21.0,-44.0,-5.0,-3.0,0.0,1.0,-1.0
1702490264.0487013,11.0,-33.0,-4.0,2.0,-1.0,-2.0,1.0,0.0
1702490264.0683434,-7.0,33.0,47.0,1.0,-1.0,-2.0,0.0,-2.0
1702490264.0683434,0.0,-23.0,-28.0,-5.0,-4.0,-2.0,-3.0,-1.0
1702490264.0683434,0.0,12.0,14.0,-4.0,-1.0,-1.0,0.0,1.0
1702490264.0683434,-3.0,4.0,-2.0,1.0,-3.0,-1.0,-1.0,0.0
1702490264.0786974,-4.0,-14.0,-35.0,0.0,-1.0,-2.0,0.0,-3.0
1702490264.0786974,-4.0,4.0,-4.0,-5.0,-1.0,-2.0,-1.0,-1.0
1702490264.0883508,2.0,15.0,-42.0,0.0,4.0,0.0,-1.0,-2.0
1702490264.0883508,-2.0,-2.0,17.0,-4.0,-4.0,-2.0,-2.0,-1.0
1702490264.1085768,-6.0,3.0,34.0,2.0,1.0,0.0,-1.0,1.0
1702490264.1085768,-3.0,8.0,-18.0,2.0,3.0,0.0,1.0,-4.0
1702490264.1085768,2.0,-3.0,-2.0,3.0,1.0,1.0,1.0,6.0
1702490264.1085768,-2.0,12.0,-2.0,-2.0,-2.0,-3.0,-3.0,-9.0
1702490264.1283443,9.0,0.0,27.0,3.0,1.0,0.0,-1.0,-14.0
1702490264.1283443,-4.0,31.0,25.0,-1.0,-2.0,-1.0,0.0,1.0
1702490264.1283443,-2.0,-12.0,-4.0,0.0,0.0,-1.0,-2.0,-2.0
1702490264.1283443,-1.0,21.0,16.0,1.0,-1.0,-1.0,-1.0,3.0
1702490264.1386888,-3.0,20.0,-53.0,-2.0,-1.0,-1.0,0.0,5.0
1702490264.1386888,2.0,-41.0,24.0,-4.0,-3.0,-3.0,-3.0,-5.0
1702490264.148351,4.0,7.0,-14.0,1.0,-2.0,-1.0,1.0,-1.0
1702490264.148351,-6.0,-2.0,-60.0,-5.0,-1.0,0.0,-1.0,-1.0
1702490264.168345,1.0,16.0,46.0,1.0,-1.0,-1.0,-1.0,0.0
1702490264.168345,-11.0,-23.0,-49.0,-11.0,-5.0,-2.0,-4.0,-3.0
1702490264.168345,-10.0,26.0,20.0,1.0,-3.0,-3.0,-2.0,-2.0
1702490264.168345,-5.0,-5.0,18.0,0.0,-2.0,-1.0,-1.0,-2.0
1702490264.1887517,3.0,6.0,23.0,2.0,1.0,1.0,-2.0,1.0
1702490264.1887517,3.0,-45.0,-37.0,-7.0,-2.0,-3.0,-2.0,-4.0
1702490264.1887517,3.0,8.0,3.0,2.0,1.0,-2.0,-1.0,-3.0
1702490264.1887517,1.0,-23.0,-9.0,0.0,-1.0,0.0,-1.0,-1.0
1702490264.19868,8.0,3.0,21.0,-6.0,-5.0,-4.0,-1.0,0.0
1702490264.19868,-4.0,8.0,25.0,5.0,1.0,0.0,1.0,-1.0
1702490264.2083473,4.0,-30.0,4.0,-2.0,-2.0,-1.0,0.0,0.0
1702490264.2083473,-4.0,-9.0,-4.0,0.0,-1.0,0.0,1.0,1.0
1702490264.2283468,0.0,-12.0,4.0,-1.0,1.0,-2.0,-1.0,2.0
1702490264.2283468,10.0,-3.0,21.0,2.0,-1.0,1.0,0.0,0.0
1702490264.2283468,-7.0,5.0,-14.0,-4.0,-1.0,-1.0,-1.0,-2.0
1702490264.2283468,2.0,40.0,24.0,2.0,1.0,-1.0,0.0,0.0
1702490264.248598,0.0,-25.0,20.0,3.0,-4.0,-1.0,-2.0,-2.0
1702490264.248598,-4.0,15.0,-74.0,-1.0,3.0,2.0,2.0,3.0
1702490264.248598,2.0,1.0,-24.0,-1.0,-1.0,-1.0,-4.0,-2.0
1702490264.248598,-6.0,4.0,-7.0,-7.0,-1.0,-2.0,-2.0,-1.0
1702490264.258519,-3.0,-16.0,-26.0,-1.0,0.0,-1.0,-3.0,1.0
1702490264.268351,12.0,22.0,37.0,-2.0,-2.0,-1.0,-1.0,1.0
1702490264.268351,-3.0,6.0,31.0,-2.0,1.0,-1.0,1.0,4.0
1702490264.268351,1.0,-10.0,-16.0,-1.0,-1.0,-2.0,-5.0,-15.0
1702490264.3072062,-3.0,11.0,-14.0,1.0,-2.0,1.0,-1.0,-5.0
1702490264.3072062,-3.0,8.0,-11.0,4.0,-2.0,-1.0,-1.0,4.0
1702490264.3072062,-5.0,-23.0,6.0,1.0,1.0,1.0,-2.0,-2.0
1702490264.3072062,-2.0,19.0,30.0,-2.0,-2.0,-1.0,0.0,1.0
1702490264.3072062,4.0,-1.0,-1.0,-3.0,0.0,-2.0,1.0,2.0
1702490264.3072062,-4.0,8.0,9.0,3.0,-2.0,-1.0,1.0,-3.0
1702490264.3072062,0.0,-15.0,13.0,4.0,0.0,-1.0,0.0,-1.0
1702490264.3072062,-2.0,-4.0,-36.0,-7.0,-2.0,-1.0,-1.0,3.0
1702490264.3272622,0.0,2.0,-15.0,0.0,-2.0,-2.0,-2.0,-3.0
1702490264.3272622,-3.0,-2.0,10.0,0.0,-1.0,-1.0,0.0,1.0
1702490264.3272622,-2.0,1.0,2.0,-2.0,-2.0,-2.0,-2.0,-3.0
1702490264.3272622,1.0,-9.0,33.0,3.0,0.0,0.0,-1.0,1.0
1702490264.3472087,-4.0,10.0,-34.0,-5.0,-2.0,-1.0,-1.0,-1.0
1702490264.3472087,0.0,2.0,-19.0,-2.0,1.0,0.0,-1.0,-4.0
1702490264.3472087,1.0,4.0,-12.0,-4.0,-4.0,-2.0,-1.0,2.0
1702490264.3472087,0.0,3.0,25.0,6.0,1.0,-1.0,0.0,1.0
1702490264.367673,-3.0,-4.0,-1.0,-3.0,-1.0,-1.0,0.0,-1.0
1702490264.367673,-5.0,-3.0,7.0,0.0,0.0,0.0,0.0,1.0
1702490264.367673,3.0,-3.0,-2.0,-2.0,0.0,-1.0,-1.0,0.0
1702490264.367673,-1.0,-1.0,-3.0,2.0,1.0,1.0,2.0,-1.0
1702490264.3872092,-4.0,-8.0,-2.0,-3.0,-4.0,-2.0,-2.0,-4.0
1702490264.3872092,-3.0,1.0,1.0,-2.0,1.0,-2.0,0.0,-1.0
1702490264.3972087,-1.0,4.0,10.0,-1.0,0.0,1.0,1.0,-1.0
1702490264.3972087,-1.0,-11.0,7.0,-5.0,-3.0,-1.0,-3.0,0.0
1702490264.4072123,-1.0,-4.0,7.0,3.0,2.0,0.0,0.0,1.0
1702490264.4072123,0.0,14.0,7.0,-2.0,0.0,-3.0,-2.0,-2.0
1702490264.4072123,-2.0,-36.0,-34.0,-2.0,0.0,1.0,-1.0,-2.0
1702490264.4072123,-2.0,-1.0,8.0,1.0,-1.0,-2.0,0.0,1.0
1702490264.4274402,1.0,10.0,-3.0,-4.0,0.0,0.0,1.0,-1.0
1702490264.4274402,-3.0,11.0,11.0,-6.0,-3.0,-2.0,-1.0,-3.0
1702490264.4274402,-1.0,8.0,8.0,-1.0,1.0,-1.0,1.0,7.0
1702490264.4274402,-2.0,-4.0,-17.0,-1.0,-1.0,-1.0,-3.0,-5.0
1702490264.437501,-1.0,-1.0,9.0,-1.0,-2.0,-1.0,-1.0,0.0
1702490264.437501,0.0,3.0,15.0,4.0,0.0,0.0,-3.0,-1.0
1702490264.447217,-2.0,-2.0,-28.0,-5.0,-4.0,-2.0,-1.0,-2.0
1702490264.447217,-1.0,5.0,9.0,-1.0,-1.0,-1.0,-2.0,1.0
1702490264.4772084,-2.0,-3.0,0.0,1.0,-1.0,-1.0,-1.0,-1.0
1702490264.4772084,0.0,1.0,28.0,0.0,0.0,0.0,-1.0,0.0
1702490264.4772084,0.0,4.0,6.0,2.0,0.0,0.0,-2.0,-1.0
1702490264.4772084,2.0,-3.0,-25.0,-7.0,-4.0,-2.0,0.0,8.0
1702490264.4876223,-6.0,1.0,1.0,-2.0,-2.0,-1.0,-1.0,-9.0
1702490264.4876223,-3.0,-9.0,1.0,0.0,-2.0,-1.0,-1.0,-2.0
1702490264.4876223,1.0,8.0,22.0,1.0,0.0,-1.0,0.0,-5.0
1702490264.4876223,1.0,5.0,-6.0,-2.0,0.0,-1.0,1.0,1.0
1702490264.4974856,-3.0,-14.0,-21.0,-4.0,-1.0,-1.0,0.0,4.0
1702490264.4974856,2.0,-11.0,-2.0,-1.0,-2.0,1.0,-1.0,0.0
1702490264.5075011,-3.0,8.0,20.0,1.0,-2.0,-3.0,-1.0,-4.0
1702490264.5075011,-2.0,-2.0,-17.0,1.0,-1.0,-2.0,0.0,-1.0
1702490264.527777,4.0,19.0,-12.0,-2.0,1.0,-1.0,-1.0,4.0
1702490264.527777,0.0,-12.0,-36.0,0.0,1.0,-1.0,-1.0,-1.0
1702490264.527777,-2.0,17.0,-4.0,-4.0,-2.0,-2.0,-2.0,-4.0
1702490264.527777,1.0,7.0,31.0,3.0,0.0,0.0,-1.0,-3.0
1702490264.547494,-1.0,-7.0,-16.0,-3.0,0.0,-1.0,-3.0,-1.0
1702490264.547494,-2.0,-5.0,-5.0,1.0,-2.0,-1.0,0.0,-1.0
1702490264.547494,1.0,-3.0,3.0,-2.0,-1.0,0.0,1.0,1.0
1702490264.547494,-4.0,-3.0,-4.0,-3.0,-3.0,0.0,-1.0,-3.0
1702490264.5574965,-1.0,-3.0,8.0,-2.0,-4.0,-1.0,-2.0,0.0
1702490264.5574965,-4.0,1.0,9.0,-2.0,-1.0,0.0,-1.0,1.0
1702490264.577496,2.0,-1.0,13.0,0.0,0.0,-1.0,0.0,12.0
1702490264.577496,-10.0,-5.0,-5.0,-1.0,-2.0,-1.0,-1.0,-12.0
1702490264.587706,-1.0,-15.0,-60.0,-6.0,0.0,-2.0,2.0,-3.0
1702490264.587706,4.0,2.0,16.0,-1.0,0.0,-1.0,1.0,2.0
1702490264.587706,-1.0,2.0,35.0,1.0,-1.0,-2.0,-2.0,-1.0
1702490264.587706,-1.0,-7.0,-26.0,-3.0,1.0,-1.0,-1.0,2.0
1702490264.6075,3.0,1.0,40.0,5.0,3.0,1.0,-2.0,-3.0
1702490264.6075,-6.0,5.0,6.0,1.0,-2.0,-2.0,-2.0,-8.0
1702490264.637493,-1.0,-11.0,-68.0,-1.0,-2.0,0.0,-1.0,-2.0
1702490264.637493,2.0,3.0,30.0,-2.0,-1.0,0.0,1.0,3.0
1702490264.637493,-4.0,-1.0,4.0,1.0,-3.0,-2.0,-1.0,-2.0
1702490264.637493,0.0,4.0,2.0,-3.0,-4.0,-1.0,-2.0,-4.0
1702490264.637493,0.0,3.0,9.0,3.0,-2.0,-2.0,-2.0,-4.0
1702490264.637493,0.0,-45.0,-25.0,-5.0,-2.0,-3.0,-3.0,-2.0
1702490264.6477442,0.0,2.0,10.0,-2.0,-1.0,0.0,-3.0,0.0
1702490264.6477442,-3.0,-7.0,4.0,2.0,3.0,1.0,-2.0,1.0
1702490264.6477442,-3.0,-8.0,10.0,0.0,-1.0,0.0,0.0,-4.0
1702490264.6477442,2.0,18.0,-41.0,-3.0,-1.0,-1.0,-1.0,2.0
1702490264.6675742,0.0,0.0,15.0,-1.0,-1.0,-1.0,0.0,1.0
1702490264.6675742,-1.0,-11.0,5.0,-3.0,-3.0,-2.0,-1.0,2.0
1702490264.6874974,-2.0,2.0,9.0,-3.0,-1.0,1.0,-1.0,-8.0
1702490264.6874974,-4.0,6.0,18.0,1.0,-1.0,-3.0,-1.0,-4.0
1702490264.6974947,1.0,0.0,-5.0,1.0,-4.0,-2.0,-1.0,0.0
1702490264.6974947,-2.0,8.0,-9.0,-2.0,-1.0,1.0,0.0,2.0
1702490264.6974947,1.0,-17.0,-13.0,1.0,1.0,1.0,0.0,4.0
1702490264.6974947,-1.0,3.0,21.0,2.0,0.0,0.0,-1.0,-4.0
1702490264.7076526,-3.0,-30.0,30.0,3.0,-2.0,-2.0,-2.0,0.0
1702490264.7076526,0.0,-4.0,-47.0,-5.0,-3.0,-2.0,-1.0,-3.0
1702490264.7076526,-3.0,2.0,27.0,-1.0,1.0,-3.0,-2.0,1.0
1702490264.7076526,-2.0,3.0,13.0,-1.0,-1.0,-1.0,-1.0,1.0
1702490264.7274969,-1.0,-7.0,26.0,3.0,2.0,1.0,-2.0,0.0
1702490264.7274969,2.0,5.0,3.0,7.0,1.0,1.0,2.0,2.0
1702490264.7274969,-3.0,24.0,-24.0,-7.0,-4.0,-1.0,-1.0,-5.0
1702490264.7274969,1.0,2.0,3.0,0.0,1.0,0.0,-1.0,0.0
1702490264.747501,-3.0,9.0,4.0,-2.0,-1.0,0.0,-2.0,-4.0
1702490264.747501,-2.0,-3.0,1.0,-3.0,0.0,-3.0,-2.0,-1.0
1702490264.747501,1.0,11.0,-11.0,0.0,-3.0,0.0,0.0,-3.0
1702490264.747501,-3.0,-9.0,10.0,2.0,-1.0,-2.0,-3.0,-1.0
1702490264.7677803,2.0,4.0,-8.0,0.0,-1.0,-1.0,-5.0,-1.0
1702490264.7677803,-1.0,3.0,5.0,-2.0,-3.0,1.0,0.0,-2.0
1702490264.7677803,1.0,-5.0,1.0,-2.0,-3.0,2.0,-2.0,-1.0
1702490264.7677803,-2.0,-8.0,21.0,-2.0,-2.0,-12.0,-1.0,0.0
1702490264.8074944,-1.0,4.0,-51.0,-13.0,-2.0,1.0,2.0,-1.0
1702490264.8074944,-6.0,-8.0,9.0,4.0,-1.0,3.0,2.0,-1.0
1702490264.8074944,-1.0,-3.0,12.0,1.0,1.0,-3.0,-1.0,-3.0
1702490264.8074944,1.0,6.0,11.0,2.0,-4.0,2.0,0.0,0.0
1702490264.8074944,-1.0,9.0,-40.0,-2.0,1.0,-2.0,-2.0,1.0
1702490264.8074944,-2.0,-14.0,-23.0,-7.0,2.0,-4.0,-4.0,-1.0
1702490264.8074944,0.0,-1.0,-8.0,-2.0,-2.0,0.0,1.0,-1.0
1702490264.8074944,-4.0,6.0,1.0,0.0,0.0,-3.0,-2.0,-4.0
1702490264.829251,-2.0,-2.0,13.0,4.0,-4.0,-2.0,-1.0,1.0
1702490264.829251,3.0,32.0,5.0,-5.0,-5.0,-3.0,-3.0,-1.0
1702490264.8377135,-2.0,-39.0,6.0,9.0,1.0,1.0,0.0,1.0
1702490264.8377135,1.0,0.0,-12.0,-7.0,-1.0,3.0,-1.0,-1.0
1702490264.8604906,1.0,-2.0,20.0,5.0,3.0,-1.0,-1.0,1.0
1702490264.8604906,0.0,8.0,0.0,-4.0,0.0,-2.0,0.0,-2.0
1702490264.8604906,-2.0,5.0,-5.0,-7.0,-4.0,-5.0,-3.0,-4.0
1702490264.8604906,1.0,2.0,2.0,0.0,0.0,-1.0,-1.0,-1.0
1702490264.8604906,-1.0,-2.0,7.0,3.0,0.0,2.0,2.0,-1.0
1702490264.8604906,-4.0,-12.0,-5.0,1.0,-1.0,-3.0,0.0,-2.0
1702490264.8708692,-2.0,1.0,-6.0,-2.0,1.0,-3.0,0.0,-3.0
1702490264.8708692,2.0,-5.0,-21.0,1.0,0.0,2.0,1.0,1.0
1702490264.8977559,-4.0,7.0,35.0,2.0,-2.0,-2.0,0.0,-1.0
1702490264.8977559,1.0,-41.0,-46.0,-1.0,-2.0,-2.0,-2.0,0.0
1702490264.907768,-1.0,4.0,7.0,-5.0,-3.0,0.0,-2.0,0.0
1702490264.907768,-2.0,1.0,-3.0,5.0,1.0,2.0,-1.0,0.0
1702490264.907768,1.0,2.0,13.0,-5.0,-4.0,-2.0,-2.0,-1.0
1702490264.907768,-1.0,-2.0,-5.0,4.0,2.0,3.0,0.0,-2.0
1702490264.907768,-1.0,16.0,2.0,-7.0,0.0,1.0,-2.0,0.0
1702490264.907768,0.0,-6.0,4.0,-1.0,-2.0,-1.0,-1.0,-1.0
1702490264.917948,-1.0,-3.0,5.0,-2.0,2.0,-1.0,-2.0,-2.0
1702490264.917948,-2.0,0.0,16.0,2.0,-2.0,-2.0,-2.0,0.0
1702490264.927775,-2.0,2.0,-4.0,0.0,0.0,-3.0,-2.0,-2.0
1702490264.927775,1.0,-9.0,7.0,0.0,2.0,1.0,2.0,22.0
1702490264.9480116,-8.0,-4.0,-21.0,-10.0,-15.0,-7.0,-3.0,-24.0
1702490264.9480116,-5.0,5.0,11.0,0.0,6.0,2.0,0.0,-2.0
1702490264.9480116,2.0,-4.0,-6.0,-1.0,5.0,3.0,0.0,-1.0
1702490264.9480116,1.0,4.0,-3.0,1.0,1.0,-1.0,-2.0,-3.0
1702490264.9877675,3.0,-3.0,-4.0,3.0,3.0,2.0,1.0,9.0
1702490264.9877675,-1.0,1.0,16.0,-3.0,-6.0,-4.0,-2.0,0.0
1702490264.9877675,-3.0,-3.0,-27.0,-2.0,-6.0,-3.0,-1.0,-1.0
1702490264.9877675,-1.0,0.0,-9.0,0.0,-1.0,0.0,-1.0,-4.0
1702490264.9877675,-1.0,-1.0,20.0,-2.0,-3.0,-2.0,-1.0,2.0
1702490264.9877675,-2.0,5.0,-12.0,-5.0,-5.0,-2.0,-4.0,-5.0
1702490264.9877675,1.0,0.0,6.0,2.0,2.0,2.0,0.0,2.0
1702490264.9877675,-2.0,-1.0,-13.0,-3.0,1.0,0.0,0.0,-7.0
1702490265.0077703,1.0,-6.0,4.0,-2.0,-4.0,-3.0,-1.0,-1.0
1702490265.0077703,1.0,4.0,7.0,0.0,3.0,-2.0,0.0,5.0
1702490265.0077703,-3.0,-6.0,-2.0,-2.0,-7.0,-3.0,-3.0,-1.0
1702490265.0077703,-3.0,-1.0,-12.0,-10.0,-11.0,-6.0,-1.0,-6.0
1702490265.0281591,1.0,2.0,-7.0,5.0,14.0,2.0,2.0,1.0
1702490265.0281591,1.0,1.0,14.0,1.0,-5.0,1.0,-3.0,-2.0
1702490265.0281591,-2.0,-9.0,-34.0,0.0,3.0,-3.0,-1.0,-2.0
1702490265.0281591,0.0,3.0,26.0,1.0,-13.0,1.0,-2.0,-6.0
1702490265.0381408,-2.0,-6.0,-56.0,-11.0,-29.0,-12.0,-2.0,3.0
1702490265.0381408,0.0,2.0,4.0,-1.0,30.0,8.0,1.0,-1.0
1702490265.047837,-3.0,1.0,9.0,3.0,4.0,4.0,0.0,-2.0
1702490265.047837,-1.0,-2.0,-8.0,1.0,15.0,1.0,0.0,1.0
1702490265.0681596,0.0,-1.0,14.0,-1.0,-1.0,3.0,0.0,-1.0
1702490265.0681596,0.0,6.0,34.0,-4.0,-13.0,-6.0,-2.0,-1.0
1702490265.0777678,-4.0,-10.0,-51.0,-2.0,-5.0,-5.0,-2.0,-3.0
1702490265.0777678,2.0,1.0,11.0,4.0,1.0,-1.0,-3.0,7.0
1702490265.087802,-8.0,-3.0,-7.0,-2.0,-2.0,-1.0,0.0,-11.0
1702490265.087802,-1.0,-2.0,17.0,-6.0,-6.0,-2.0,-1.0,-1.0
1702490265.087802,1.0,5.0,8.0,-1.0,4.0,0.0,-1.0,0.0
1702490265.087802,-5.0,-4.0,-14.0,-8.0,-8.0,-4.0,-3.0,-2.0
1702490265.0980225,4.0,4.0,20.0,-4.0,7.0,0.0,-2.0,3.0
1702490265.0980225,-2.0,-2.0,-33.0,-1.0,-25.0,-8.0,-1.0,-1.0
1702490265.1077788,-1.0,-1.0,21.0,2.0,19.0,-1.0,-2.0,-1.0
1702490265.1077788,-3.0,-4.0,-6.0,4.0,5.0,10.0,1.0,-2.0
1702490265.1577663,1.0,0.0,2.0,2.0,1.0,-1.0,0.0,2.0
1702490265.1577663,-2.0,-2.0,-2.0,-2.0,2.0,-1.0,-1.0,-2.0
1702490265.1577663,-2.0,-1.0,2.0,-1.0,-14.0,-5.0,-2.0,0.0
1702490265.1577663,-1.0,-1.0,-9.0,-6.0,-11.0,-5.0,-2.0,-6.0
1702490265.1577663,-1.0,-1.0,16.0,0.0,15.0,7.0,-2.0,1.0
1702490265.1577663,-2.0,0.0,-35.0,5.0,3.0,1.0,0.0,0.0
1702490265.1577663,0.0,-4.0,-24.0,-6.0,-5.0,1.0,2.0,-1.0
1702490265.1577663,1.0,1.0,17.0,-1.0,3.0,-4.0,0.0,-3.0
1702490265.1681728,-3.0,-5.0,-16.0,1.0,-8.0,-2.0,-2.0,-3.0
1702490265.1681728,0.0,-5.0,-32.0,-1.0,2.0,1.0,0.0,0.0
1702490265.1681728,-3.0,3.0,16.0,0.0,0.0,1.0,0.0,-4.0
1702490265.1777725,-1.0,-1.0,-6.0,-1.0,-5.0,1.0,0.0,6.0
1702490265.1877692,0.0,-1.0,9.0,-5.0,-3.0,-3.0,-2.0,-7.0
1702490265.1877692,-2.0,-2.0,17.0,-2.0,2.0,-1.0,1.0,-2.0
1702490265.1877692,-1.0,2.0,12.0,-1.0,-4.0,1.0,0.0,1.0
1702490265.1877692,-2.0,2.0,16.0,6.0,1.0,-1.0,1.0,1.0
1702490265.2079926,-1.0,-6.0,-71.0,-2.0,2.0,0.0,-1.0,3.0
1702490265.2079926,0.0,3.0,11.0,-1.0,0.0,0.0,-1.0,0.0
1702490265.2079926,-1.0,-5.0,19.0,-1.0,-4.0,1.0,0.0,0.0
1702490265.2079926,0.0,3.0,9.0,-3.0,1.0,-3.0,-1.0,-3.0
1702490265.2577677,-1.0,-3.0,-19.0,-3.0,3.0,0.0,0.0,0.0
1702490265.2577677,0.0,1.0,18.0,1.0,-1.0,-1.0,-2.0,-3.0
1702490265.2577677,-3.0,1.0,-10.0,-1.0,-6.0,-3.0,0.0,0.0
1702490265.2577677,2.0,0.0,2.0,-2.0,1.0,-2.0,-3.0,-10.0
1702490265.2577677,1.0,2.0,22.0,3.0,0.0,0.0,-1.0,2.0
1702490265.2577677,-1.0,-3.0,-16.0,-6.0,-3.0,-3.0,-2.0,2.0
1702490265.2577677,0.0,2.0,19.0,4.0,0.0,0.0,0.0,-2.0
1702490265.2577677,-4.0,-13.0,-37.0,-4.0,1.0,0.0,-1.0,-1.0
1702490265.2681222,-2.0,2.0,7.0,1.0,-2.0,-1.0,-1.0,-1.0
1702490265.2681222,0.0,0.0,27.0,2.0,-2.0,2.0,-2.0,-2.0
1702490265.2681222,1.0,-1.0,3.0,-1.0,-1.0,-3.0,-1.0,-1.0
1702490265.2681222,0.0,5.0,-5.0,-1.0,-1.0,-1.0,0.0,0.0
1702490265.2977693,0.0,13.0,18.0,-3.0,-4.0,-3.0,0.0,0.0
1702490265.2977693,-5.0,-1.0,14.0,1.0,0.0,1.0,-2.0,-1.0
1702490265.2977693,2.0,-1.0,8.0,1.0,-1.0,-1.0,0.0,0.0
1702490265.2977693,-2.0,-1.0,17.0,-2.0,-2.0,0.0,-1.0,-1.0
1702490265.3081172,-1.0,-4.0,-12.0,-1.0,-1.0,-1.0,-1.0,-1.0
1702490265.3081172,2.0,6.0,-22.0,0.0,0.0,-3.0,-1.0,-2.0
1702490265.3081172,1.0,2.0,14.0,-3.0,-3.0,-1.0,-2.0,1.0
1702490265.3081172,-4.0,-4.0,6.0,1.0,-2.0,-2.0,-2.0,-4.0
1702490265.3281646,0.0,-1.0,14.0,1.0,1.0,0.0,-1.0,2.0
1702490265.3281646,-1.0,-5.0,-2.0,-1.0,-1.0,-1.0,-1.0,-3.0
1702490265.3281646,1.0,-1.0,-5.0,1.0,-3.0,-1.0,-3.0,0.0
1702490265.3281646,0.0,0.0,-13.0,-2.0,-1.0,-3.0,0.0,0.0
1702490265.363155,-1.0,-4.0,-23.0,-3.0,0.0,-2.0,0.0,-1.0
1702490265.363155,-1.0,-3.0,-3.0,0.0,-2.0,0.0,-1.0,1.0
1702490265.363155,-2.0,0.0,-16.0,-3.0,0.0,-2.0,-1.0,-2.0
1702490265.363155,0.0,0.0,-4.0,-2.0,-1.0,0.0,0.0,-1.0
1702490265.3691323,0.0,-6.0,10.0,-1.0,-2.0,-1.0,-2.0,-1.0
1702490265.3691323,-1.0,2.0,7.0,0.0,0.0,-1.0,0.0,-1.0
1702490265.377098,1.0,-2.0,-22.0,-2.0,-1.0,-1.0,0.0,-2.0
1702490265.377098,-2.0,-1.0,-2.0,-2.0,-1.0,-2.0,-2.0,-1.0
1702490265.3900127,-2.0,-2.0,-21.0,1.0,-1.0,-1.0,-1.0,-2.0
1702490265.3900127,-2.0,-3.0,12.0,0.0,-3.0,-2.0,-2.0,-1.0
1702490265.3900127,-2.0,-2.0,-33.0,-3.0,-1.0,-1.0,-2.0,-1.0
1702490265.3900127,-1.0,-4.0,-5.0,-2.0,1.0,-1.0,-1.0,-1.0
1702490265.4183266,-3.0,2.0,9.0,0.0,-1.0,-2.0,-1.0,-1.0
1702490265.4183266,0.0,0.0,2.0,0.0,0.0,-2.0,1.0,8.0
1702490265.4183266,-2.0,-4.0,12.0,0.0,-2.0,0.0,-3.0,-26.0
1702490265.4183266,-2.0,-4.0,-15.0,0.0,0.0,0.0,-2.0,-2.0
1702490265.4285986,0.0,1.0,40.0,1.0,-1.0,-2.0,-1.0,0.0
1702490265.4285986,-4.0,-7.0,-49.0,-4.0,-2.0,0.0,-2.0,-4.0
1702490265.4285986,-1.0,-2.0,15.0,1.0,0.0,-2.0,-1.0,7.0
1702490265.4285986,1.0,3.0,1.0,-2.0,-1.0,-1.0,-2.0,0.0
1702490265.4485795,-3.0,-5.0,-3.0,-1.0,1.0,1.0,-1.0,-3.0
1702490265.4485795,0.0,3.0,19.0,1.0,-2.0,-2.0,1.0,3.0
1702490265.4583247,-2.0,-1.0,-15.0,-6.0,-2.0,-2.0,0.0,4.0
1702490265.4583247,-1.0,0.0,11.0,1.0,0.0,0.0,0.0,-2.0
1702490265.468352,-2.0,8.0,7.0,1.0,-1.0,0.0,1.0,2.0
1702490265.468352,-2.0,-24.0,-6.0,-2.0,1.0,-2.0,-2.0,-5.0
1702490265.468352,0.0,0.0,10.0,0.0,0.0,-3.0,-1.0,2.0
1702490265.468352,1.0,8.0,28.0,2.0,-2.0,-2.0,-2.0,-3.0
1702490265.4888759,4.0,-23.0,-84.0,-12.0,-3.0,-1.0,-3.0,2.0
1702490265.4888759,-2.0,5.0,33.0,-3.0,-5.0,-2.0,-2.0,-4.0
1702490265.4985719,1.0,5.0,31.0,0.0,-1.0,-1.0,-1.0,0.0
1702490265.4985719,-8.0,-16.0,-20.0,-4.0,-1.0,0.0,-1.0,-1.0
1702490265.5086627,3.0,19.0,16.0,1.0,0.0,-1.0,-1.0,1.0
1702490265.5086627,4.0,-36.0,-7.0,-2.0,-1.0,-1.0,-3.0,-2.0
1702490265.5285683,-7.0,-26.0,-50.0,-2.0,-2.0,-2.0,1.0,2.0
1702490265.5285683,4.0,13.0,25.0,3.0,-1.0,-3.0,-1.0,1.0
1702490265.5285683,-3.0,-9.0,11.0,3.0,-1.0,-3.0,0.0,-5.0
1702490265.5285683,-3.0,12.0,-48.0,-3.0,-1.0,-1.0,0.0,-4.0
1702490265.5285683,1.0,5.0,34.0,2.0,0.0,0.0,-1.0,2.0
1702490265.5285683,-3.0,-11.0,-1.0,-2.0,-2.0,-2.0,0.0,-1.0
1702490265.5488784,1.0,-7.0,-36.0,-4.0,-2.0,-2.0,-3.0,-1.0
1702490265.5488784,3.0,8.0,5.0,0.0,-1.0,1.0,-1.0,0.0
1702490265.5488784,1.0,41.0,17.0,-1.0,-1.0,-2.0,-2.0,-2.0
1702490265.5488784,3.0,-15.0,-12.0,-2.0,-3.0,-4.0,-2.0,-2.0
1702490265.5687337,0.0,-16.0,33.0,2.0,1.0,0.0,-1.0,0.0
1702490265.5687337,-2.0,-7.0,-46.0,-7.0,-2.0,-3.0,-2.0,-1.0
1702490265.5785658,4.0,26.0,2.0,0.0,0.0,0.0,-1.0,0.0
1702490265.5785658,-6.0,-8.0,-11.0,-2.0,0.0,0.0,-2.0,-3.0
1702490265.5888784,-4.0,3.0,30.0,2.0,0.0,-1.0,0.0,-1.0
1702490265.5888784,2.0,23.0,-24.0,2.0,0.0,-1.0,0.0,-2.0
1702490265.5888784,-4.0,-19.0,15.0,-1.0,-2.0,0.0,0.0,0.0
1702490265.5888784,3.0,-2.0,-5.0,0.0,1.0,1.0,0.0,3.0
1702490265.6088939,-5.0,-12.0,-1.0,1.0,0.0,0.0,0.0,-7.0
1702490265.6088939,-6.0,22.0,28.0,-2.0,0.0,-4.0,0.0,-1.0
1702490265.628566,1.0,20.0,17.0,-1.0,-2.0,0.0,-3.0,-3.0
1702490265.628566,2.0,5.0,4.0,1.0,0.0,-2.0,0.0,1.0
1702490265.628566,0.0,7.0,2.0,-5.0,-3.0,0.0,-2.0,2.0
1702490265.628566,-4.0,-17.0,-2.0,0.0,-1.0,-1.0,-2.0,-2.0
1702490265.628566,-2.0,-6.0,2.0,-1.0,-1.0,-1.0,-2.0,4.0
1702490265.628566,4.0,2.0,-5.0,-2.0,-4.0,-2.0,-1.0,-1.0
1702490265.6489742,-3.0,-22.0,-6.0,-1.0,-1.0,-2.0,-1.0,0.0
1702490265.6489742,-4.0,7.0,18.0,5.0,-1.0,1.0,-1.0,0.0
1702490265.6489742,-2.0,-15.0,20.0,-1.0,-1.0,-1.0,-1.0,-3.0
1702490265.6489742,-5.0,-5.0,-54.0,-5.0,-5.0,-1.0,-2.0,-1.0
1702490265.6689737,-3.0,19.0,18.0,3.0,-1.0,0.0,-2.0,-4.0
1702490265.6689737,5.0,-6.0,9.0,-1.0,-2.0,-1.0,1.0,1.0
1702490265.6689737,-3.0,-1.0,-5.0,-1.0,0.0,-1.0,-1.0,-2.0
1702490265.6689737,-2.0,2.0,31.0,0.0,0.0,1.0,0.0,0.0
1702490265.6885648,0.0,1.0,-41.0,-3.0,-3.0,-1.0,-1.0,1.0
1702490265.6885648,0.0,7.0,-4.0,0.0,2.0,1.0,-1.0,-1.0
1702490265.6885648,0.0,-38.0,-5.0,-5.0,-4.0,-1.0,-1.0,0.0
1702490265.6885648,-2.0,4.0,5.0,-2.0,0.0,0.0,-1.0,-3.0
1702490265.7088456,-1.0,-1.0,-5.0,2.0,1.0,-2.0,-1.0,1.0
1702490265.7088456,0.0,-1.0,-3.0,-1.0,-1.0,0.0,-1.0,0.0
1702490265.7088456,0.0,-2.0,-1.0,2.0,-1.0,-2.0,0.0,-2.0
1702490265.7088456,0.0,0.0,2.0,1.0,1.0,0.0,0.0,0.0
1702490265.7288527,-1.0,5.0,18.0,-2.0,-1.0,0.0,0.0,0.0
1702490265.7288527,-2.0,-1.0,10.0,-1.0,-2.0,-1.0,-2.0,-2.0
1702490265.7385662,-1.0,2.0,-16.0,0.0,-2.0,-2.0,-1.0,-1.0
1702490265.7385662,-3.0,-1.0,-7.0,2.0,-2.0,-1.0,-2.0,-2.0
1702490265.7485666,3.0,9.0,12.0,-2.0,-1.0,-2.0,-3.0,-2.0
1702490265.7485666,1.0,-4.0,17.0,-1.0,0.0,-1.0,0.0,-2.0
1702490265.7485666,-2.0,-3.0,-21.0,-2.0,1.0,-1.0,-1.0,-1.0
1702490265.7485666,-1.0,0.0,-1.0,-3.0,0.0,-2.0,-1.0,-2.0
1702490265.7689579,0.0,1.0,22.0,0.0,-2.0,-1.0,-2.0,0.0
1702490265.7689579,0.0,-8.0,-39.0,-3.0,-3.0,-1.0,-2.0,-1.0
1702490265.7689579,-1.0,-1.0,-24.0,-1.0,-2.0,-1.0,-1.0,-1.0
1702490265.7689579,-2.0,3.0,11.0,0.0,-2.0,-2.0,-1.0,-2.0
1702490265.7889745,-1.0,-4.0,-10.0,-3.0,-3.0,-1.0,0.0,-1.0
1702490265.7889745,-3.0,2.0,10.0,-2.0,-3.0,-3.0,-2.0,-1.0
1702490265.7889745,-1.0,-4.0,12.0,-1.0,1.0,0.0,-1.0,0.0
1702490265.7889745,-3.0,2.0,-8.0,-3.0,0.0,0.0,0.0,1.0
1702490265.8085644,3.0,-8.0,-3.0,-2.0,1.0,-1.0,-1.0,-2.0
1702490265.8085644,-1.0,7.0,10.0,-1.0,-2.0,-1.0,0.0,-1.0
1702490265.8085644,-1.0,-21.0,-16.0,0.0,-2.0,0.0,-1.0,0.0
1702490265.8085644,-1.0,-2.0,12.0,0.0,-2.0,-1.0,0.0,-1.0
1702490265.8289337,-3.0,6.0,43.0,5.0,-1.0,-1.0,-1.0,-2.0
1702490265.8289337,-2.0,-12.0,-94.0,-4.0,-1.0,0.0,-2.0,-1.0
1702490265.8289337,-5.0,7.0,20.0,0.0,1.0,0.0,-1.0,-2.0
1702490265.8289337,0.0,2.0,6.0,1.0,0.0,-1.0,-2.0,-2.0
1702490265.848695,-2.0,-2.0,-26.0,-2.0,-2.0,-1.0,-1.0,-1.0
1702490265.848695,1.0,0.0,34.0,2.0,0.0,-1.0,-1.0,-1.0
1702490265.8585656,0.0,0.0,-10.0,0.0,0.0,-1.0,-1.0,0.0
1702490265.8585656,1.0,-1.0,-18.0,-2.0,-3.0,0.0,-2.0,1.0
1702490265.868919,-2.0,4.0,3.0,-1.0,-1.0,0.0,-2.0,-3.0
1702490265.868919,-1.0,-1.0,18.0,0.0,-1.0,0.0,-1.0,-2.0
1702490265.8795967,0.0,6.0,-12.0,-2.0,0.0,0.0,-1.0,-3.0
1702490265.8795967,-1.0,-2.0,7.0,-1.0,-1.0,-2.0,-2.0,-2.0
1702490265.8946397,-1.0,0.0,-15.0,-3.0,-2.0,-4.0,-1.0,-1.0
1702490265.8946397,-3.0,-5.0,12.0,4.0,3.0,2.0,1.0,0.0
1702490265.9016616,0.0,-3.0,5.0,0.0,-1.0,-1.0,-1.0,0.0
1702490265.9016616,-1.0,-4.0,-11.0,0.0,-1.0,-3.0,1.0,0.0
1702490265.9068244,-2.0,-3.0,11.0,-1.0,-1.0,-1.0,-1.0,0.0
1702490265.9068244,-3.0,-2.0,-34.0,-4.0,-1.0,0.0,0.0,0.0
1702490265.9168618,-2.0,2.0,8.0,1.0,-2.0,-2.0,0.0,-3.0
1702490265.9168618,-1.0,-1.0,3.0,3.0,1.0,1.0,0.0,1.0
1702490265.9272134,-2.0,-1.0,-22.0,-1.0,2.0,0.0,0.0,0.0
1702490265.9272134,-1.0,-7.0,-1.0,-3.0,-2.0,-3.0,-1.0,-1.0
1702490265.9368284,-2.0,5.0,1.0,-6.0,-4.0,0.0,-1.0,0.0
1702490265.9368284,-3.0,-1.0,18.0,1.0,-3.0,-2.0,-4.0,-2.0
1702490265.9471738,0.0,-1.0,-11.0,-3.0,-2.0,-2.0,-1.0,0.0
1702490265.9471738,1.0,5.0,11.0,1.0,-2.0,-3.0,-1.0,0.0
1702490265.956827,-3.0,-9.0,19.0,0.0,0.0,-1.0,-2.0,-1.0
1702490265.956827,0.0,2.0,-4.0,-4.0,1.0,-2.0,-1.0,-1.0
1702490265.966829,-2.0,-2.0,4.0,0.0,-1.0,0.0,-1.0,-1.0
1702490265.966829,0.0,2.0,22.0,-1.0,0.0,-2.0,-1.0,0.0
1702490265.976856,-1.0,1.0,-38.0,-1.0,-2.0,-2.0,0.0,-4.0
1702490265.976856,0.0,0.0,0.0,-3.0,-2.0,-1.0,-1.0,-1.0
1702490265.9871647,-2.0,-6.0,14.0,1.0,-1.0,-1.0,0.0,-2.0
1702490265.9871647,-1.0,-3.0,-30.0,-3.0,-2.0,-1.0,0.0,0.0
1702490265.9972064,1.0,2.0,4.0,-1.0,0.0,0.0,-2.0,0.0
1702490265.9972064,0.0,0.0,-7.0,-1.0,-1.0,1.0,1.0,-1.0
1702490266.0168269,0.0,0.0,-20.0,-1.0,-1.0,0.0,0.0,-1.0
1702490266.0168269,-2.0,1.0,26.0,1.0,-1.0,-2.0,-2.0,-3.0
1702490266.0168269,1.0,-1.0,13.0,0.0,-2.0,-3.0,-1.0,0.0
1702490266.0168269,-2.0,-3.0,-23.0,-4.0,-2.0,0.0,0.0,-2.0
1702490266.026862,0.0,1.0,-19.0,-3.0,-1.0,0.0,0.0,0.0
1702490266.026862,-2.0,-3.0,20.0,3.0,0.0,-1.0,-1.0,-1.0
1702490266.0372567,-1.0,-4.0,10.0,-3.0,-4.0,-2.0,-3.0,0.0
1702490266.0372567,-1.0,-1.0,7.0,4.0,0.0,0.0,-2.0,0.0
1702490266.0472484,-1.0,-2.0,-6.0,-1.0,-2.0,0.0,0.0,-1.0
1702490266.0472484,-2.0,2.0,15.0,-3.0,-2.0,-1.0,-3.0,0.0
1702490266.0571618,0.0,1.0,-14.0,1.0,0.0,-1.0,0.0,-2.0
1702490266.0571618,-2.0,-1.0,8.0,-2.0,-2.0,-1.0,-2.0,-2.0
1702490266.076844,-2.0,-4.0,-11.0,-1.0,-2.0,-1.0,-2.0,-3.0
1702490266.076844,-1.0,0.0,-12.0,-1.0,-1.0,1.0,-2.0,-2.0
1702490266.076844,-1.0,2.0,16.0,-3.0,-2.0,-1.0,0.0,0.0
1702490266.076844,-3.0,-8.0,-43.0,-5.0,-3.0,-3.0,-2.0,-2.0
1702490266.097215,0.0,4.0,7.0,1.0,-3.0,0.0,-2.0,-1.0
1702490266.097215,1.0,1.0,8.0,1.0,3.0,-1.0,-1.0,0.0
1702490266.097215,-2.0,-5.0,-6.0,2.0,-1.0,1.0,1.0,-1.0
1702490266.097215,2.0,-1.0,-2.0,-4.0,-4.0,0.0,1.0,22.0
1702490266.10716,-6.0,-1.0,3.0,-4.0,-2.0,-1.0,-3.0,-24.0
1702490266.10716,-1.0,-1.0,6.0,-3.0,-1.0,0.0,1.0,-3.0
1702490266.1171029,-3.0,-4.0,-26.0,0.0,1.0,0.0,-1.0,-3.0
1702490266.1171029,0.0,0.0,5.0,1.0,-1.0,1.0,-1.0,-2.0
1702490266.1368272,0.0,-4.0,17.0,1.0,-1.0,-2.0,0.0,8.0
1702490266.1368272,0.0,1.0,-8.0,-4.0,-4.0,-2.0,-3.0,-1.0
1702490266.1368272,-1.0,-6.0,0.0,-2.0,1.0,1.0,-1.0,-3.0
1702490266.1368272,-2.0,0.0,-2.0,-1.0,0.0,0.0,-1.0,-6.0
1702490266.156989,0.0,-2.0,-13.0,-1.0,-2.0,-2.0,-1.0,4.0
1702490266.156989,-1.0,1.0,18.0,1.0,0.0,0.0,0.0,-4.0
1702490266.156989,1.0,4.0,0.0,-3.0,0.0,-3.0,-3.0,2.0
1702490266.156989,-2.0,-5.0,-38.0,-4.0,0.0,-1.0,-3.0,-7.0
1702490266.167111,-1.0,0.0,8.0,0.0,0.0,-2.0,-2.0,2.0
1702490266.167111,1.0,-2.0,0.0,2.0,-2.0,-1.0,0.0,2.0
1702490266.1770926,0.0,4.0,-5.0,-2.0,0.0,-2.0,0.0,-2.0
1702490266.1770926,0.0,1.0,21.0,3.0,2.0,-3.0,0.0,-4.0
1702490266.2168264,1.0,-3.0,0.0,0.0,-1.0,-1.0,-2.0,-1.0
1702490266.2168264,-1.0,-4.0,-10.0,-2.0,-3.0,-1.0,0.0,0.0
1702490266.2168264,-4.0,2.0,10.0,1.0,-1.0,-1.0,-1.0,13.0
1702490266.2168264,-1.0,-2.0,3.0,0.0,0.0,2.0,0.0,-7.0
1702490266.2168264,-5.0,2.0,1.0,-3.0,-5.0,-2.0,1.0,-1.0
1702490266.2168264,0.0,-5.0,-2.0,-3.0,-3.0,-2.0,-1.0,2.0
1702490266.2168264,-2.0,-1.0,14.0,0.0,-3.0,-1.0,-1.0,-6.0
1702490266.2168264,1.0,0.0,-40.0,-2.0,2.0,-1.0,1.0,6.0
1702490266.2271621,2.0,1.0,6.0,1.0,1.0,1.0,0.0,2.0
1702490266.2271621,-6.0,-4.0,10.0,0.0,-2.0,-2.0,-2.0,-6.0
1702490266.2371814,0.0,4.0,-7.0,-2.0,-3.0,-2.0,-1.0,-1.0
1702490266.2371814,-3.0,-5.0,-11.0,-6.0,-4.0,-4.0,-2.0,-3.0
1702490266.2568269,0.0,0.0,10.0,-3.0,-1.0,-1.0,-1.0,-1.0
1702490266.2568269,1.0,4.0,-14.0,-2.0,2.0,-1.0,0.0,0.0
1702490266.2568269,-1.0,-3.0,9.0,-1.0,1.0,-2.0,-1.0,-2.0
1702490266.2568269,0.0,0.0,-35.0,-2.0,-5.0,-3.0,-2.0,-1.0
1702490266.2768288,-2.0,-5.0,-3.0,-3.0,-1.0,-1.0,-1.0,-1.0
1702490266.2768288,-2.0,2.0,5.0,-1.0,-1.0,0.0,-1.0,1.0
1702490266.286876,0.0,-4.0,-8.0,1.0,2.0,1.0,1.0,1.0
1702490266.286876,0.0,5.0,24.0,-1.0,-1.0,-1.0,-2.0,-4.0
1702490266.286876,2.0,3.0,-7.0,-3.0,0.0,-1.0,-1.0,3.0
1702490266.286876,1.0,-5.0,5.0,1.0,0.0,-1.0,0.0,0.0
1702490266.296827,0.0,1.0,0.0,-5.0,-4.0,-1.0,-1.0,-3.0
1702490266.296827,-1.0,-1.0,37.0,5.0,0.0,0.0,2.0,-1.0
1702490266.3068562,1.0,-3.0,-7.0,-2.0,1.0,1.0,0.0,2.0
1702490266.3068562,-2.0,-1.0,-31.0,-1.0,-2.0,-1.0,-1.0,-1.0
1702490266.3168275,1.0,1.0,-14.0,-1.0,-1.0,-3.0,-2.0,-2.0
1702490266.3168275,-5.0,-1.0,40.0,0.0,-1.0,0.0,2.0,0.0
1702490266.3372102,-2.0,2.0,30.0,3.0,-1.0,0.0,-1.0,-1.0
1702490266.3372102,-4.0,-2.0,-34.0,-7.0,-3.0,0.0,-3.0,-3.0
1702490266.3372102,-1.0,-8.0,-26.0,-1.0,1.0,0.0,-2.0,0.0
1702490266.3372102,1.0,2.0,0.0,-3.0,-3.0,-3.0,-2.0,-3.0
1702490266.347167,0.0,0.0,-11.0,1.0,1.0,0.0,-1.0,0.0
1702490266.347167,-1.0,-1.0,14.0,1.0,-2.0,-1.0,-2.0,-1.0
1702490266.3568287,1.0,4.0,-4.0,-3.0,-2.0,-1.0,0.0,-2.0
1702490266.3568287,-2.0,-4.0,11.0,0.0,-1.0,-1.0,-3.0,0.0
1702490266.3668604,0.0,-1.0,-11.0,1.0,-1.0,-1.0,0.0,-1.0
1702490266.3668604,0.0,-5.0,-23.0,-1.0,0.0,-2.0,-1.0,1.0
1702490266.3768322,-1.0,1.0,7.0,-1.0,1.0,0.0,-1.0,-2.0
1702490266.3768322,0.0,0.0,40.0,5.0,4.0,-2.0,-3.0,-3.0
1702490266.3971376,-4.0,-9.0,-77.0,-10.0,-5.0,-1.0,-1.0,0.0
1702490266.3971376,-2.0,-2.0,27.0,0.0,-4.0,0.0,0.0,-3.0
1702490266.3971376,-1.0,0.0,8.0,-2.0,-5.0,-2.0,0.0,-2.0
1702490266.3971376,0.0,4.0,7.0,0.0,3.0,2.0,0.0,-1.0
1702490266.4070575,1.0,4.0,9.0,-3.0,-2.0,-4.0,-2.0,-1.0
1702490266.4070575,-3.0,-7.0,13.0,6.0,4.0,2.0,1.0,-1.0
1702490266.4385078,-1.0,-4.0,-13.0,5.0,0.0,-1.0,-1.0,0.0
1702490266.4385078,1.0,2.0,-15.0,-8.0,-7.0,-3.0,-2.0,-1.0
1702490266.4385078,-4.0,-6.0,18.0,0.0,-1.0,1.0,-1.0,-2.0
1702490266.4385078,1.0,0.0,-7.0,-4.0,-2.0,-2.0,-1.0,-1.0
1702490266.4385078,-3.0,3.0,14.0,2.0,1.0,-1.0,-2.0,-1.0
1702490266.4385078,-1.0,-5.0,-45.0,-7.0,-4.0,-4.0,-3.0,0.0
1702490266.457736,-2.0,0.0,16.0,-1.0,-1.0,-2.0,-1.0,-2.0
1702490266.457736,0.0,4.0,11.0,5.0,0.0,1.0,1.0,1.0
1702490266.467735,-2.0,-6.0,19.0,6.0,3.0,1.0,0.0,-1.0
1702490266.467735,0.0,-3.0,-45.0,-3.0,-3.0,-2.0,-2.0,-1.0
1702490266.4777324,-1.0,-4.0,-42.0,-4.0,-2.0,-1.0,-2.0,-3.0
1702490266.4777324,1.0,1.0,13.0,-4.0,1.0,-2.0,-2.0,0.0
1702490266.4777324,0.0,5.0,3.0,-4.0,-4.0,-3.0,-1.0,-3.0
1702490266.4777324,-1.0,-1.0,27.0,3.0,3.0,3.0,0.0,1.0
1702490266.4977746,0.0,-3.0,5.0,0.0,-2.0,-1.0,1.0,0.0
1702490266.4977746,0.0,1.0,-4.0,-2.0,-2.0,-2.0,-2.0,0.0
1702490266.4977746,0.0,-1.0,-10.0,-3.0,-3.0,0.0,-1.0,0.0
1702490266.4977746,-2.0,2.0,5.0,-1.0,1.0,-1.0,1.0,0.0
1702490266.5177884,-1.0,-1.0,20.0,1.0,1.0,1.0,-2.0,1.0
1702490266.5177884,-2.0,-2.0,3.0,0.0,-1.0,0.0,0.0,-1.0
1702490266.5277328,1.0,0.0,11.0,-3.0,-3.0,-4.0,0.0,0.0
1702490266.5277328,-4.0,-7.0,-17.0,2.0,1.0,2.0,1.0,-2.0
1702490266.5277328,1.0,4.0,18.0,1.0,0.0,-3.0,-1.0,-1.0
1702490266.5277328,0.0,4.0,-8.0,-2.0,-2.0,-1.0,-2.0,0.0
1702490266.5381548,-2.0,-6.0,-1.0,-3.0,-3.0,-1.0,-2.0,0.0
1702490266.5381548,0.0,1.0,13.0,-2.0,-1.0,-3.0,-2.0,-1.0
1702490266.548077,-1.0,1.0,3.0,3.0,2.0,0.0,1.0,-1.0
1702490266.548077,-1.0,-2.0,7.0,0.0,1.0,1.0,0.0,-2.0
1702490266.55844,0.0,-1.0,-9.0,0.0,-2.0,-2.0,-1.0,-1.0
1702490266.55844,-2.0,-1.0,-12.0,-1.0,0.0,0.0,-1.0,-2.0
1702490266.5780935,-1.0,-1.0,10.0,-3.0,-11.0,-4.0,-4.0,-2.0
1702490266.5780935,-1.0,-1.0,-5.0,-3.0,2.0,0.0,-3.0,-2.0
1702490266.5881011,0.0,-4.0,-2.0,-1.0,4.0,2.0,-1.0,-2.0
1702490266.5881011,-1.0,2.0,27.0,0.0,-1.0,1.0,1.0,-1.0
1702490266.5881011,-2.0,-8.0,-28.0,-3.0,1.0,-3.0,-2.0,-2.0
1702490266.5881011,-2.0,-2.0,-36.0,-2.0,-5.0,0.0,1.0,1.0
1702490266.5984685,0.0,1.0,12.0,-3.0,-4.0,-1.0,0.0,-1.0
1702490266.5984685,1.0,-1.0,4.0,-4.0,4.0,0.0,-2.0,-1.0
1702490266.6084487,-4.0,-3.0,17.0,6.0,3.0,0.0,1.0,-1.0
1702490266.6084487,-2.0,-3.0,14.0,2.0,-1.0,-2.0,-2.0,-2.0
1702490266.6084487,0.0,-3.0,-16.0,-6.0,0.0,0.0,-1.0,-1.0
1702490266.6084487,-2.0,0.0,1.0,1.0,-7.0,-1.0,-1.0,-2.0
1702490266.6380963,-1.0,4.0,3.0,-1.0,-1.0,1.0,-1.0,-1.0
1702490266.6380963,0.0,0.0,19.0,0.0,-2.0,-2.0,-1.0,-1.0
1702490266.6480873,0.0,-4.0,-33.0,-3.0,-2.0,1.0,-2.0,-1.0
1702490266.6480873,0.0,-2.0,-1.0,-2.0,-2.0,-2.0,-2.0,0.0
1702490266.6480873,-2.0,0.0,11.0,0.0,-1.0,-2.0,0.0,-1.0
1702490266.6480873,2.0,1.0,3.0,1.0,0.0,-1.0,-2.0,1.0
1702490266.6584413,-2.0,0.0,2.0,0.0,-4.0,-1.0,0.0,-1.0
1702490266.6584413,0.0,0.0,-19.0,0.0,0.0,0.0,-1.0,-1.0
1702490266.6680937,-1.0,-2.0,-14.0,0.0,4.0,1.0,1.0,-1.0
1702490266.6680937,0.0,2.0,7.0,-1.0,-1.0,1.0,-1.0,-1.0
1702490266.6680937,-2.0,-1.0,-1.0,2.0,-1.0,-3.0,-2.0,-2.0
1702490266.6680937,-1.0,-9.0,-16.0,-2.0,-1.0,-1.0,0.0,1.0
1702490266.6880863,0.0,3.0,10.0,-5.0,-4.0,-1.0,-2.0,-1.0
1702490266.6980867,0.0,0.0,-8.0,-1.0,-2.0,-1.0,-1.0,-1.0
1702490266.6980867,-4.0,0.0,13.0,4.0,1.0,0.0,0.0,-2.0
1702490266.6980867,6.0,3.0,2.0,-1.0,-1.0,0.0,0.0,-1.0
1702490266.7084556,0.0,-4.0,-8.0,-1.0,0.0,-1.0,-3.0,-1.0
1702490266.7084556,-1.0,0.0,13.0,-1.0,-1.0,-1.0,1.0,-1.0
1702490266.7184877,-1.0,-9.0,-20.0,-1.0,-2.0,-2.0,-1.0,-1.0
1702490266.7184877,-3.0,3.0,24.0,-2.0,-3.0,-2.0,-2.0,-2.0
1702490266.728488,-1.0,-1.0,1.0,2.0,-1.0,-1.0,-1.0,-1.0
1702490266.728488,-2.0,1.0,-6.0,-5.0,0.0,-1.0,-1.0,0.0
1702490266.728488,-2.0,0.0,10.0,-1.0,-1.0,2.0,1.0,0.0
1702490266.728488,-1.0,-3.0,-1.0,3.0,-2.0,-1.0,-1.0,-1.0
1702490266.7480862,2.0,3.0,19.0,-2.0,-3.0,-1.0,1.0,-1.0
1702490266.7480862,-3.0,-3.0,-10.0,2.0,4.0,0.0,0.0,-2.0
1702490266.758089,2.0,4.0,2.0,-1.0,-1.0,-1.0,0.0,0.0
1702490266.758089,-3.0,0.0,-13.0,-6.0,-2.0,-1.0,-1.0,0.0
1702490266.7685204,0.0,1.0,5.0,-2.0,-2.0,1.0,-2.0,0.0
1702490266.7685204,-3.0,-5.0,-9.0,-3.0,-5.0,-2.0,-1.0,-2.0
1702490266.7784882,-1.0,0.0,2.0,-2.0,0.0,-1.0,-1.0,-2.0
1702490266.7784882,-1.0,0.0,12.0,2.0,2.0,-1.0,-4.0,-2.0
1702490266.7881966,1.0,3.0,7.0,-1.0,1.0,-1.0,2.0,0.0
1702490266.7881966,0.0,-4.0,-52.0,-1.0,2.0,1.0,0.0,0.0
1702490266.7881966,-2.0,0.0,11.0,1.0,-2.0,-3.0,-2.0,-1.0
1702490266.7881966,-3.0,-1.0,6.0,-3.0,-3.0,-1.0,-1.0,-2.0
1702490266.8080883,-3.0,-1.0,-2.0,0.0,-2.0,-1.0,-2.0,-1.0
1702490266.8080883,-2.0,-4.0,-4.0,-2.0,-3.0,-1.0,-2.0,-1.0
1702490266.8180852,-1.0,4.0,3.0,-2.0,-2.0,-1.0,0.0,-2.0
1702490266.8180852,-1.0,-4.0,-15.0,-3.0,0.0,0.0,-1.0,1.0
1702490266.838237,-2.0,-7.0,-3.0,1.0,1.0,0.0,0.0,0.0
1702490266.838237,0.0,0.0,15.0,-1.0,-2.0,-1.0,-1.0,-3.0
1702490266.838237,0.0,-1.0,-2.0,-1.0,-2.0,-2.0,-3.0,-1.0
1702490266.838237,0.0,4.0,6.0,-1.0,-2.0,-2.0,-1.0,-2.0
1702490266.8484795,-1.0,-5.0,-60.0,-3.0,0.0,0.0,-1.0,0.0
1702490266.8484795,-3.0,1.0,16.0,4.0,1.0,-1.0,-1.0,-1.0
1702490266.8580885,-2.0,-5.0,20.0,-2.0,-1.0,-1.0,-2.0,1.0
1702490266.8580885,-2.0,-1.0,-18.0,0.0,0.0,1.0,-1.0,-1.0
1702490266.888086,0.0,2.0,4.0,-2.0,-3.0,0.0,-1.0,-2.0
1702490266.888086,1.0,2.0,12.0,-3.0,0.0,-2.0,-2.0,-2.0
1702490266.888086,0.0,-1.0,-22.0,-1.0,-1.0,-1.0,0.0,-1.0
1702490266.888086,1.0,26.0,18.0,-1.0,-1.0,0.0,1.0,1.0
1702490266.888086,-4.0,-11.0,-16.0,-3.0,-3.0,-2.0,0.0,0.0
1702490266.888086,-2.0,4.0,20.0,-1.0,-2.0,-2.0,-2.0,-2.0
1702490266.8981214,0.0,-1.0,-15.0,-1.0,0.0,-1.0,-1.0,-1.0
1702490266.8981214,-3.0,-5.0,-31.0,-2.0,-3.0,0.0,-2.0,-2.0
1702490266.9180853,-3.0,5.0,-12.0,-1.0,0.0,-2.0,-2.0,-2.0
1702490266.9180853,1.0,-4.0,13.0,1.0,-2.0,0.0,0.0,0.0
1702490266.9180853,0.0,2.0,-5.0,-1.0,0.0,-2.0,-3.0,0.0
1702490266.9180853,-2.0,-8.0,30.0,3.0,0.0,-3.0,-1.0,-1.0
1702490266.944587,3.0,-12.0,-20.0,1.0,1.0,0.0,-2.0,-1.0
1702490266.944587,-3.0,1.0,15.0,-4.0,-4.0,-1.0,-3.0,-4.0
1702490266.946653,-5.0,1.0,-18.0,0.0,0.0,1.0,0.0,0.0
1702490266.946653,1.0,-8.0,32.0,-3.0,-2.0,-3.0,-1.0,0.0
1702490266.951598,0.0,-6.0,-11.0,-1.0,-1.0,0.0,-1.0,-1.0
1702490266.951598,-2.0,-3.0,3.0,-1.0,-2.0,-3.0,1.0,-1.0
1702490266.9596539,-2.0,0.0,-3.0,-1.0,1.0,-1.0,1.0,-3.0
1702490266.9606323,0.0,-3.0,2.0,1.0,0.0,1.0,1.0,0.0
1702490266.9715207,-1.0,3.0,13.0,-1.0,-3.0,-4.0,-2.0,0.0
1702490266.9715207,0.0,1.0,-13.0,0.0,-2.0,0.0,-1.0,1.0
1702490266.9815097,1.0,-5.0,4.0,0.0,0.0,-1.0,-1.0,-2.0
1702490266.9815097,-3.0,-9.0,-8.0,2.0,1.0,0.0,-1.0,-1.0
1702490266.9915357,-1.0,-1.0,-54.0,-9.0,-1.0,-1.0,-2.0,-2.0
1702490266.9915357,2.0,3.0,25.0,1.0,-1.0,-1.0,-2.0,0.0
1702490266.9915357,2.0,-3.0,-35.0,-3.0,-2.0,-1.0,2.0,0.0
1702490266.9915357,-1.0,1.0,33.0,0.0,-2.0,-2.0,0.0,0.0
1702490267.0118601,1.0,-3.0,0.0,-1.0,-4.0,1.0,0.0,-1.0
1702490267.0118601,-9.0,5.0,-24.0,-3.0,0.0,-1.0,-1.0,0.0
1702490267.0118601,-2.0,2.0,-3.0,-2.0,-4.0,-2.0,-3.0,-1.0
1702490267.0118601,1.0,-12.0,3.0,1.0,0.0,-1.0,-1.0,-1.0
1702490267.0315075,-2.0,-2.0,5.0,1.0,0.0,0.0,0.0,0.0
1702490267.0315075,-1.0,-3.0,-3.0,2.0,0.0,0.0,0.0,-1.0
1702490267.0415092,5.0,-24.0,-10.0,-2.0,-1.0,-1.0,0.0,1.0
1702490267.0415092,-10.0,0.0,-25.0,-1.0,-1.0,-1.0,-1.0,-2.0
1702490267.0490158,-5.0,11.0,36.0,4.0,1.0,0.0,-1.0,0.0
1702490267.0490158,2.0,-5.0,-2.0,-4.0,0.0,0.0,0.0,-1.0
1702490267.05904,-2.0,1.0,41.0,-2.0,-1.0,-1.0,-1.0,-2.0
1702490267.05904,4.0,5.0,17.0,-1.0,-2.0,0.0,-1.0,0.0
1702490267.0799203,-7.0,-13.0,-43.0,-3.0,-3.0,-2.0,-1.0,-1.0
1702490267.0799203,-2.0,1.0,-7.0,-1.0,-2.0,-1.0,-2.0,-1.0
1702490267.0799203,-2.0,3.0,15.0,1.0,1.0,0.0,-1.0,0.0
1702490267.0799203,2.0,0.0,-6.0,-2.0,-1.0,-1.0,-1.0,-2.0
1702490267.099562,0.0,2.0,23.0,-1.0,-2.0,0.0,-2.0,-1.0
1702490267.099562,0.0,-2.0,10.0,-2.0,-1.0,-1.0,-1.0,-2.0
1702490267.099562,-5.0,7.0,-8.0,0.0,-2.0,1.0,0.0,1.0
1702490267.099562,-16.0,-16.0,-15.0,0.0,-1.0,0.0,-2.0,-4.0
1702490267.109909,-6.0,-2.0,34.0,-1.0,0.0,0.0,2.0,-3.0
1702490267.109909,-1.0,-15.0,-18.0,0.0,1.0,-1.0,0.0,-1.0
1702490267.1195781,1.0,2.0,18.0,-3.0,-6.0,-3.0,-1.0,-4.0
1702490267.1195781,6.0,9.0,-55.0,-2.0,0.0,-2.0,-1.0,2.0
1702490267.1398034,0.0,-1.0,34.0,3.0,1.0,0.0,-2.0,1.0
1702490267.1398034,-5.0,-11.0,-95.0,-5.0,0.0,-1.0,-2.0,-2.0
1702490267.1398034,-2.0,13.0,49.0,-1.0,-1.0,-1.0,-2.0,2.0
1702490267.1398034,-1.0,3.0,16.0,0.0,-3.0,-2.0,0.0,-1.0
1702490267.159318,3.0,-6.0,-12.0,-4.0,-3.0,-2.0,-2.0,-2.0
1702490267.159318,-2.0,1.0,19.0,0.0,-2.0,-1.0,1.0,1.0
1702490267.159318,-1.0,-10.0,-14.0,1.0,1.0,-1.0,-3.0,-3.0
1702490267.159318,1.0,-5.0,-14.0,-3.0,0.0,-1.0,1.0,-1.0
1702490267.1696544,0.0,-1.0,24.0,-2.0,-1.0,-1.0,0.0,-1.0
1702490267.1696544,-8.0,-17.0,8.0,2.0,-2.0,-1.0,0.0,-1.0
1702490267.1793976,9.0,-11.0,2.0,-5.0,-3.0,-1.0,-1.0,0.0
1702490267.1793976,0.0,-7.0,21.0,-4.0,-1.0,-2.0,-3.0,-1.0
1702490267.199321,-2.0,33.0,16.0,3.0,-3.0,1.0,0.0,0.0
1702490267.199321,2.0,-4.0,-1.0,2.0,2.0,0.0,0.0,1.0
1702490267.199321,-2.0,2.0,-22.0,2.0,-3.0,0.0,2.0,-2.0
1702490267.199321,1.0,-5.0,0.0,1.0,0.0,0.0,-1.0,-1.0
1702490267.2093518,2.0,-32.0,4.0,-7.0,-2.0,-3.0,-3.0,-4.0
1702490267.2093518,3.0,21.0,14.0,2.0,-2.0,0.0,-2.0,-2.0
1702490267.2196543,1.0,-5.0,26.0,0.0,-1.0,-1.0,-1.0,-1.0
1702490267.2196543,2.0,32.0,-64.0,-6.0,-1.0,-2.0,0.0,0.0
1702490267.229681,-3.0,20.0,8.0,1.0,-1.0,-4.0,-2.0,-3.0
1702490267.229681,1.0,1.0,37.0,-1.0,0.0,1.0,-1.0,-3.0
1702490267.239319,-4.0,-6.0,-44.0,-2.0,-1.0,-3.0,0.0,-3.0
1702490267.239319,3.0,-1.0,23.0,-3.0,-6.0,-3.0,-2.0,-1.0
1702490267.2594874,3.0,0.0,-10.0,10.0,2.0,2.0,0.0,3.0
1702490267.2594874,4.0,-4.0,7.0,-1.0,-1.0,-2.0,0.0,-1.0
1702490267.2594874,-6.0,16.0,-5.0,-2.0,-1.0,-2.0,-1.0,0.0
1702490267.2594874,2.0,-6.0,-2.0,1.0,0.0,-1.0,-1.0,0.0
1702490267.2695837,-4.0,-6.0,-34.0,-5.0,-2.0,-1.0,-1.0,-1.0
1702490267.2695837,-2.0,17.0,16.0,-1.0,-3.0,-3.0,-3.0,0.0
1702490267.279396,3.0,-12.0,4.0,-3.0,-1.0,1.0,0.0,-2.0
1702490267.279396,-4.0,-64.0,-15.0,-7.0,-4.0,-4.0,-2.0,-4.0
1702490267.2895005,1.0,5.0,1.0,2.0,-1.0,0.0,-2.0,0.0
1702490267.2895005,-2.0,-5.0,-5.0,-1.0,0.0,-1.0,-2.0,-1.0
1702490267.319319,1.0,10.0,9.0,-5.0,-2.0,1.0,-2.0,0.0
1702490267.319319,-2.0,10.0,-2.0,1.0,-1.0,1.0,-1.0,0.0
1702490267.319319,-1.0,0.0,5.0,-2.0,1.0,1.0,-1.0,-3.0
1702490267.319319,2.0,-1.0,9.0,-1.0,-2.0,-3.0,-1.0,-2.0
1702490267.319319,-2.0,-6.0,-27.0,-1.0,-1.0,-1.0,-1.0,0.0
1702490267.319319,0.0,27.0,16.0,1.0,0.0,-1.0,0.0,0.0
1702490267.329489,-1.0,-14.0,1.0,0.0,-1.0,-2.0,-1.0,-1.0
1702490267.329489,-4.0,18.0,-17.0,-3.0,0.0,-1.0,-1.0,1.0
1702490267.3395894,-2.0,26.0,-2.0,0.0,-1.0,-2.0,-2.0,-1.0
1702490267.3395894,-2.0,-15.0,19.0,2.0,0.0,0.0,1.0,-2.0
1702490267.3496423,1.0,4.0,-3.0,-2.0,-2.0,-1.0,1.0,1.0
1702490267.3496423,-2.0,-15.0,-15.0,-2.0,-3.0,-1.0,0.0,-2.0
1702490267.369317,-2.0,-1.0,2.0,-1.0,1.0,-1.0,-1.0,0.0
1702490267.369317,1.0,7.0,4.0,2.0,0.0,-3.0,-1.0,0.0
1702490267.3796594,-3.0,-1.0,10.0,-2.0,-4.0,-3.0,-3.0,-3.0
1702490267.3796594,1.0,-1.0,10.0,0.0,1.0,1.0,-1.0,0.0
1702490267.3796594,-1.0,-7.0,-1.0,3.0,3.0,1.0,-1.0,-3.0
1702490267.3796594,-2.0,20.0,4.0,0.0,0.0,1.0,0.0,0.0
1702490267.389609,-1.0,-5.0,3.0,2.0,2.0,-1.0,0.0,0.0
1702490267.389609,3.0,20.0,-10.0,-3.0,-4.0,-1.0,-3.0,0.0
1702490267.3996484,-1.0,-22.0,-6.0,1.0,-3.0,-2.0,-1.0,0.0
1702490267.3996484,-4.0,-3.0,4.0,-2.0,0.0,0.0,-1.0,0.0
1702490267.4096556,0.0,12.0,3.0,-1.0,1.0,-3.0,-1.0,0.0
1702490267.4096556,-1.0,-5.0,1.0,-1.0,-2.0,-1.0,-1.0,-1.0
1702490267.4193187,0.0,-11.0,-5.0,-4.0,-1.0,-1.0,-1.0,0.0
1702490267.4193187,-2.0,-1.0,4.0,0.0,-1.0,-3.0,-2.0,0.0
1702490267.4493172,-1.0,1.0,12.0,-1.0,0.0,-1.0,0.0,-1.0
1702490267.4493172,-2.0,-14.0,-18.0,-1.0,-1.0,0.0,1.0,-1.0
1702490267.4493172,-3.0,5.0,33.0,0.0,0.0,-2.0,0.0,-1.0
1702490267.4493172,-1.0,-3.0,-10.0,0.0,-1.0,0.0,0.0,0.0
1702490267.4493172,-2.0,-3.0,-15.0,-4.0,-4.0,0.0,-3.0,-1.0
1702490267.4493172,-3.0,-1.0,12.0,1.0,-1.0,-2.0,0.0,0.0
1702490267.4593205,-2.0,3.0,22.0,-1.0,-1.0,0.0,1.0,-1.0
1702490267.4593205,0.0,0.0,-19.0,-3.0,-2.0,0.0,0.0,-1.0
1702490267.4708226,1.0,11.0,15.0,2.0,0.0,0.0,-1.0,-3.0
1702490267.4708226,-1.0,-6.0,-6.0,0.0,-1.0,0.0,-1.0,-1.0
1702490267.4808252,1.0,13.0,10.0,2.0,-1.0,-3.0,-2.0,0.0
1702490267.4808252,-1.0,-2.0,-10.0,0.0,-2.0,-2.0,-3.0,-2.0
1702490267.5008247,0.0,3.0,-14.0,-2.0,-3.0,0.0,-1.0,-2.0
1702490267.5008247,-1.0,1.0,40.0,-1.0,0.0,-2.0,-1.0,-1.0
1702490267.5008247,-2.0,-4.0,-58.0,-3.0,-1.0,0.0,-1.0,-2.0
1702490267.5008247,-1.0,2.0,4.0,-1.0,1.0,0.0,0.0,-1.0
1702490267.5142624,-2.0,-4.0,-11.0,-2.0,-1.0,-2.0,-1.0,0.0
1702490267.5142624,0.0,1.0,3.0,-1.0,-2.0,-1.0,-1.0,-2.0
1702490267.5212672,-1.0,0.0,13.0,0.0,-3.0,0.0,0.0,-3.0
1702490267.5212672,0.0,-9.0,6.0,-4.0,-2.0,0.0,-1.0,-2.0
1702490267.5412676,-4.0,-1.0,2.0,1.0,2.0,0.0,-3.0,0.0
1702490267.5412676,0.0,0.0,-4.0,-1.0,0.0,0.0,-1.0,-1.0
1702490267.5412676,-3.0,-7.0,-15.0,-1.0,1.0,0.0,0.0,0.0
1702490267.5412676,-1.0,6.0,12.0,1.0,-1.0,1.0,-2.0,0.0
1702490267.559927,0.0,5.0,12.0,-3.0,0.0,-1.0,1.0,0.0
1702490267.559927,-2.0,-13.0,-32.0,-4.0,-2.0,-3.0,-3.0,-1.0
1702490267.559927,1.0,6.0,2.0,3.0,0.0,0.0,-1.0,0.0
1702490267.559927,-3.0,-1.0,-6.0,3.0,0.0,-1.0,1.0,-1.0
1702490267.570361,0.0,-29.0,-5.0,-1.0,-1.0,-2.0,-2.0,-1.0
1702490267.570361,0.0,1.0,-6.0,0.0,-1.0,0.0,0.0,0.0
1702490267.5800672,1.0,19.0,5.0,-1.0,0.0,0.0,-1.0,0.0
1702490267.5800672,-4.0,-20.0,28.0,1.0,-5.0,-3.0,-3.0,-2.0
1702490267.5899372,-3.0,-17.0,-31.0,-4.0,-2.0,0.0,0.0,0.0
1702490267.5899372,-6.0,33.0,5.0,-2.0,-3.0,-1.0,-4.0,-3.0
1702490267.5999382,-5.0,6.0,-6.0,-1.0,-1.0,-2.0,-2.0,-3.0
1702490267.5999382,3.0,-33.0,19.0,-3.0,-1.0,-1.0,0.0,0.0
1702490267.6204338,-6.0,19.0,-3.0,-2.0,-6.0,-2.0,-4.0,-6.0
1702490267.6204338,-2.0,-18.0,-4.0,-3.0,1.0,0.0,2.0,9.0
1702490267.6204338,-4.0,9.0,17.0,-3.0,-4.0,-1.0,-2.0,-5.0
1702490267.6204338,11.0,16.0,-23.0,4.0,3.0,0.0,0.0,4.0
1702490267.6304238,-1.0,-15.0,20.0,0.0,1.0,-1.0,0.0,-6.0
1702490267.6304238,1.0,-8.0,3.0,3.0,1.0,0.0,0.0,0.0
1702490267.6402135,1.0,-8.0,-15.0,-2.0,2.0,-1.0,-1.0,-2.0
1702490267.6402135,-2.0,2.0,4.0,-4.0,-3.0,-1.0,0.0,2.0
1702490267.6500194,0.0,5.0,6.0,-1.0,-2.0,-2.0,0.0,1.0
1702490267.6500194,-1.0,6.0,13.0,2.0,-3.0,1.0,-1.0,-6.0
1702490267.6704671,-4.0,-10.0,-41.0,-5.0,-1.0,-1.0,-1.0,5.0
1702490267.6704671,1.0,11.0,14.0,4.0,1.0,-1.0,0.0,-1.0
1702490267.680452,-5.0,5.0,8.0,-1.0,-1.0,-1.0,-2.0,-1.0
1702490267.680452,-3.0,-15.0,-70.0,-4.0,-2.0,-2.0,1.0,-2.0
1702490267.680452,0.0,-11.0,29.0,0.0,-1.0,-1.0,1.0,0.0
1702490267.680452,-2.0,4.0,-9.0,-2.0,0.0,-1.0,1.0,10.0
1702490267.6903768,4.0,-5.0,-3.0,-1.0,-1.0,-1.0,0.0,-6.0
1702490267.6903768,2.0,6.0,15.0,0.0,0.0,-1.0,-1.0,-1.0
1702490267.7100224,2.0,14.0,-14.0,-3.0,-4.0,-2.0,1.0,0.0
1702490267.7100224,-3.0,-57.0,-28.0,-3.0,0.0,-2.0,-1.0,-2.0
1702490267.7100224,-2.0,-21.0,24.0,3.0,1.0,-1.0,0.0,3.0
1702490267.7100224,1.0,5.0,-9.0,-2.0,-2.0,-2.0,-2.0,-3.0
1702490267.7100224,-1.0,0.0,2.0,0.0,-1.0,-2.0,-2.0,0.0
1702490267.7100224,-2.0,15.0,10.0,0.0,-4.0,-2.0,-1.0,-5.0
1702490267.7402725,1.0,3.0,-4.0,-3.0,0.0,0.0,-1.0,1.0
1702490267.7402725,1.0,-14.0,6.0,0.0,0.0,-1.0,0.0,0.0
1702490267.7402725,-3.0,6.0,-22.0,-3.0,-1.0,-2.0,0.0,-3.0
1702490267.7402725,-2.0,2.0,5.0,0.0,0.0,1.0,0.0,-6.0
1702490267.7800214,-1.0,-1.0,-1.0,-3.0,-2.0,0.0,0.0,-1.0
1702490267.7800214,-3.0,10.0,4.0,-2.0,-1.0,-1.0,0.0,1.0
1702490267.7800214,0.0,-6.0,7.0,5.0,-1.0,-2.0,-2.0,0.0
1702490267.7800214,-5.0,14.0,9.0,-2.0,0.0,1.0,-2.0,-2.0
1702490267.7800214,4.0,13.0,-24.0,-2.0,-1.0,-1.0,1.0,12.0
1702490267.7800214,-6.0,-7.0,45.0,-2.0,-1.0,0.0,-2.0,-13.0
1702490267.7800214,2.0,-12.0,-22.0,-5.0,-3.0,-2.0,-2.0,-1.0
1702490267.7800214,-6.0,2.0,-1.0,-3.0,-3.0,-2.0,0.0,-4.0
1702490267.8004563,1.0,16.0,1.0,-1.0,0.0,0.0,0.0,0.0
1702490267.8004563,-3.0,-3.0,-3.0,1.0,0.0,0.0,0.0,4.0
1702490267.8004563,8.0,-5.0,16.0,1.0,1.0,0.0,-2.0,-2.0
1702490267.8004563,-1.0,11.0,-14.0,-1.0,1.0,1.0,-1.0,-2.0
1702490267.8200207,0.0,3.0,-11.0,-2.0,-1.0,-1.0,-2.0,-1.0
1702490267.8200207,1.0,-4.0,0.0,0.0,-3.0,-2.0,0.0,8.0
1702490267.8200207,0.0,1.0,0.0,0.0,0.0,0.0,0.0,0.0
1702490267.8200207,1.0,-33.0,-7.0,-4.0,-3.0,-2.0,-2.0,-1.0
1702490267.8403819,0.0,12.0,10.0,2.0,-2.0,-3.0,0.0,-4.0
1702490267.8403819,1.0,-8.0,-15.0,-1.0,1.0,-3.0,-2.0,1.0
1702490267.8403819,-5.0,-5.0,21.0,2.0,-1.0,-2.0,-2.0,1.0
1702490267.8403819,-3.0,7.0,5.0,1.0,1.0,1.0,-1.0,-1.0
1702490267.860357,-3.0,-15.0,-37.0,-5.0,-1.0,1.0,-2.0,0.0
1702490267.860357,2.0,-1.0,-1.0,-1.0,-2.0,-1.0,-1.0,-2.0
1702490267.860357,-1.0,9.0,8.0,-3.0,-1.0,-1.0,1.0,-2.0
1702490267.860357,-1.0,3.0,-10.0,-2.0,-2.0,-2.0,-2.0,-5.0
1702490267.8703387,-4.0,-3.0,6.0,0.0,-1.0,0.0,0.0,-5.0
1702490267.8703387,-3.0,5.0,-7.0,1.0,0.0,1.0,0.0,-1.0
1702490267.9000213,-2.0,-2.0,5.0,-3.0,0.0,-3.0,-1.0,-3.0
1702490267.9000213,0.0,9.0,-14.0,-2.0,-3.0,-2.0,-2.0,1.0
1702490267.9000213,-2.0,-4.0,6.0,0.0,-2.0,-3.0,0.0,-3.0
1702490267.9000213,2.0,-3.0,3.0,1.0,-1.0,-1.0,-2.0,-3.0
1702490267.9000213,-2.0,-6.0,13.0,1.0,-3.0,-1.0,0.0,1.0
1702490267.9000213,1.0,4.0,0.0,0.0,-2.0,-1.0,-1.0,-1.0
1702490267.9203553,-4.0,-5.0,4.0,1.0,4.0,2.0,1.0,4.0
