1702490934.5120056,8.0,1.0,4.0,45.0,6.0,0.0,6.0,2.0
1702490934.5120056,-29.0,3.0,1.0,14.0,1.0,-1.0,0.0,-4.0
1702490934.5120056,15.0,4.0,-1.0,0.0,-2.0,-2.0,1.0,4.0
1702490934.5120056,-2.0,3.0,6.0,-3.0,0.0,-4.0,-3.0,-3.0
1702490934.5319023,-23.0,-4.0,-8.0,-3.0,-7.0,-1.0,4.0,-1.0
1702490934.5319023,12.0,15.0,13.0,-7.0,2.0,0.0,0.0,0.0
1702490934.5319023,25.0,-29.0,-20.0,-12.0,0.0,-2.0,-3.0,1.0
1702490934.5319023,-52.0,5.0,26.0,29.0,0.0,-1.0,0.0,-4.0
1702490934.5519035,-11.0,-20.0,-78.0,-25.0,-4.0,-2.0,-4.0,0.0
1702490934.5519035,0.0,5.0,7.0,-42.0,-15.0,-7.0,-7.0,-6.0
1702490934.5519035,-36.0,10.0,22.0,53.0,18.0,8.0,1.0,-2.0
1702490934.5519035,21.0,-2.0,-10.0,5.0,3.0,0.0,1.0,5.0
1702490934.5818973,2.0,-3.0,-6.0,0.0,-5.0,-3.0,-4.0,0.0
1702490934.5818973,-7.0,-1.0,-33.0,-44.0,-4.0,0.0,-1.0,-2.0
1702490934.5818973,5.0,12.0,9.0,22.0,9.0,4.0,-3.0,-3.0
1702490934.5818973,-4.0,1.0,2.0,-21.0,-20.0,-7.0,-2.0,-3.0
1702490934.5920267,9.0,8.0,40.0,6.0,6.0,4.0,0.0,1.0
1702490934.5920267,3.0,-5.0,15.0,77.0,1.0,-1.0,0.0,0.0
1702490934.5920267,-5.0,-10.0,-17.0,-3.0,-1.0,-4.0,-4.0,-5.0
1702490934.5920267,17.0,2.0,7.0,16.0,2.0,2.0,1.0,-1.0
1702490934.612029,15.0,7.0,-6.0,-28.0,-8.0,-4.0,0.0,3.0
1702490934.612029,-1.0,-11.0,-15.0,-28.0,-1.0,0.0,-1.0,-2.0
1702490934.612029,-12.0,0.0,19.0,39.0,13.0,5.0,3.0,-1.0
1702490934.612029,1.0,-21.0,-31.0,-6.0,-1.0,0.0,-4.0,0.0
1702490934.6318977,1.0,4.0,29.0,-2.0,-10.0,-5.0,-5.0,0.0
1702490934.6318977,-7.0,1.0,25.0,18.0,9.0,4.0,7.0,-2.0
1702490934.6318977,-6.0,0.0,-4.0,-38.0,-13.0,-7.0,-3.0,-2.0
1702490934.6318977,4.0,13.0,-8.0,-25.0,3.0,-4.0,-1.0,1.0
1702490934.6519053,1.0,12.0,22.0,44.0,9.0,3.0,2.0,0.0
1702490934.6519053,13.0,-19.0,-6.0,-7.0,-6.0,-2.0,-6.0,1.0
1702490934.6519053,-31.0,-5.0,-40.0,-4.0,1.0,2.0,-1.0,-7.0
1702490934.6519053,3.0,5.0,6.0,-7.0,-2.0,-1.0,1.0,-1.0
1702490934.6721087,-13.0,-11.0,-11.0,-32.0,-7.0,-1.0,-5.0,-4.0
1702490934.6721087,1.0,13.0,23.0,48.0,10.0,2.0,0.0,3.0
1702490934.7018971,7.0,-5.0,-13.0,-23.0,-8.0,-8.0,-4.0,-1.0
1702490934.7018971,7.0,3.0,15.0,16.0,-3.0,-3.0,-1.0,5.0
1702490934.7018971,-6.0,0.0,-21.0,-43.0,-1.0,-2.0,-3.0,-6.0
1702490934.7018971,9.0,7.0,15.0,33.0,12.0,6.0,0.0,0.0
1702490934.7018971,1.0,-3.0,-5.0,-25.0,-8.0,-1.0,-1.0,-2.0
1702490934.7018971,-10.0,-13.0,-9.0,25.0,8.0,-1.0,1.0,-2.0
1702490934.7119246,6.0,-2.0,4.0,9.0,-5.0,-2.0,-1.0,-1.0
1702490934.7119246,-7.0,-7.0,-9.0,-23.0,-9.0,-5.0,-4.0,-2.0
1702490934.7119246,2.0,9.0,3.0,8.0,-3.0,0.0,-1.0,-1.0
1702490934.7119246,-3.0,-2.0,9.0,5.0,-2.0,-3.0,-2.0,-1.0
1702490934.7318985,-22.0,-12.0,-10.0,20.0,2.0,1.0,2.0,3.0
1702490934.7318985,-2.0,-4.0,-9.0,-2.0,-2.0,-2.0,-3.0,-4.0
1702490934.742014,0.0,4.0,1.0,-5.0,1.0,2.0,0.0,-3.0
1702490934.742014,2.0,2.0,10.0,-15.0,-2.0,-2.0,-10.0,0.0
1702490934.751905,1.0,2.0,-3.0,-9.0,-11.0,-3.0,0.0,-4.0
1702490934.751905,-2.0,1.0,-2.0,12.0,15.0,3.0,2.0,4.0
1702490934.751905,14.0,0.0,3.0,-24.0,-6.0,-2.0,-1.0,1.0
1702490934.751905,-5.0,4.0,3.0,18.0,2.0,3.0,0.0,-3.0
1702490934.7721374,1.0,4.0,16.0,37.0,2.0,0.0,-1.0,-2.0
1702490934.7721374,-19.0,-24.0,-33.0,-23.0,-13.0,-9.0,-7.0,-9.0
1702490934.7721374,26.0,13.0,24.0,21.0,-5.0,-6.0,1.0,5.0
1702490934.7721374,-53.0,-15.0,-5.0,-9.0,6.0,3.0,2.0,-2.0
1702490934.7918983,15.0,13.0,-8.0,-26.0,4.0,3.0,2.0,3.0
1702490934.7918983,-2.0,-14.0,-11.0,-3.0,-8.0,-1.0,-1.0,-4.0
1702490934.7918983,-17.0,-3.0,12.0,12.0,3.0,-1.0,-4.0,-2.0
1702490934.7918983,23.0,5.0,6.0,17.0,-4.0,0.0,0.0,3.0
1702490934.8121867,5.0,1.0,-7.0,-33.0,-3.0,-2.0,-1.0,-1.0
1702490934.8121867,-14.0,-11.0,5.0,-13.0,1.0,1.0,-2.0,-1.0
1702490934.8121867,-3.0,1.0,-1.0,-6.0,1.0,-1.0,-2.0,-5.0
1702490934.8121867,5.0,10.0,16.0,11.0,-8.0,-5.0,2.0,1.0
1702490934.8519037,-2.0,-20.0,-6.0,-3.0,1.0,-1.0,-5.0,-4.0
1702490934.8519037,9.0,8.0,-16.0,0.0,-3.0,-3.0,-1.0,2.0
1702490934.8519037,-9.0,-6.0,-1.0,-18.0,-9.0,-1.0,-2.0,-2.0
1702490934.8519037,24.0,5.0,6.0,-4.0,4.0,-1.0,-2.0,-5.0
1702490934.8519037,-19.0,-1.0,0.0,37.0,6.0,1.0,-1.0,2.0
1702490934.8519037,11.0,8.0,-3.0,-49.0,-27.0,-8.0,0.0,1.0
1702490934.8519037,-13.0,-3.0,-1.0,6.0,16.0,5.0,2.0,1.0
1702490934.8519037,7.0,1.0,-22.0,-30.0,16.0,7.0,2.0,-1.0
1702490934.8722286,-5.0,-7.0,-5.0,-3.0,-5.0,-2.0,-2.0,-5.0
1702490934.8722286,0.0,22.0,24.0,-16.0,-1.0,-3.0,-3.0,2.0
1702490934.8722286,0.0,-29.0,-13.0,22.0,-8.0,-2.0,0.0,0.0
1702490934.8722286,5.0,-12.0,-35.0,-27.0,-13.0,-6.0,-3.0,3.0
1702490934.8921337,5.0,5.0,16.0,6.0,8.0,-2.0,-2.0,0.0
1702490934.8921337,-9.0,10.0,12.0,26.0,0.0,-1.0,-7.0,-4.0
1702490934.8921337,0.0,7.0,21.0,-60.0,-2.0,-2.0,1.0,-4.0
1702490934.8921337,1.0,-9.0,-4.0,-2.0,0.0,1.0,0.0,1.0
1702490934.9119024,2.0,17.0,19.0,3.0,-5.0,0.0,-1.0,-1.0
1702490934.9119024,7.0,-20.0,-27.0,-8.0,4.0,0.0,1.0,4.0
1702490934.9119024,0.0,-9.0,-1.0,25.0,-8.0,-3.0,-4.0,-4.0
1702490934.9119024,2.0,-4.0,-8.0,24.0,-6.0,-2.0,-2.0,-1.0
1702490934.9322937,15.0,7.0,-2.0,-10.0,-2.0,-1.0,1.0,2.0
1702490934.9322937,-5.0,8.0,33.0,19.0,6.0,6.0,2.0,-2.0
1702490934.9322937,-9.0,-3.0,-40.0,-3.0,1.0,3.0,-2.0,-1.0
1702490934.9322937,9.0,6.0,-21.0,-6.0,-5.0,0.0,4.0,3.0
1702490934.96227,-13.0,-32.0,-11.0,-12.0,-8.0,-10.0,-6.0,-5.0
1702490934.96227,-2.0,-1.0,-16.0,-7.0,4.0,1.0,0.0,0.0
1702490934.96227,16.0,5.0,18.0,-15.0,-5.0,-3.0,-1.0,0.0
1702490934.96227,-16.0,10.0,25.0,53.0,6.0,-1.0,-1.0,-3.0
1702490934.9821494,13.0,-8.0,-7.0,-6.0,-4.0,2.0,1.0,4.0
1702490934.9821494,-12.0,-9.0,-13.0,-31.0,-12.0,-7.0,-1.0,-1.0
1702490934.9821494,12.0,6.0,-6.0,5.0,3.0,-3.0,-2.0,0.0
1702490934.9821494,-4.0,7.0,12.0,7.0,3.0,1.0,-1.0,-4.0
1702490934.9924731,8.0,4.0,-3.0,-10.0,5.0,2.0,3.0,2.0
1702490934.9924731,-2.0,0.0,5.0,-1.0,-5.0,-1.0,-2.0,-4.0
1702490934.9924731,-4.0,6.0,-15.0,3.0,-5.0,-1.0,0.0,3.0
1702490934.9924731,1.0,19.0,26.0,-19.0,-5.0,-3.0,-2.0,0.0
1702490935.021215,-13.0,-43.0,-35.0,6.0,0.0,1.0,0.0,2.0
1702490935.021215,20.0,5.0,-4.0,34.0,2.0,-1.0,-1.0,0.0
1702490935.021215,-18.0,14.0,7.0,-13.0,1.0,-3.0,0.0,0.0
1702490935.021215,-6.0,-28.0,-2.0,-11.0,4.0,4.0,-2.0,-5.0
1702490935.0350206,2.0,20.0,9.0,-22.0,-2.0,0.0,-4.0,-2.0
1702490935.0350206,7.0,-6.0,-13.0,-4.0,1.0,-1.0,2.0,1.0
1702490935.0350206,-13.0,-8.0,9.0,18.0,0.0,-4.0,-3.0,-5.0
1702490935.0350206,4.0,4.0,-10.0,-11.0,1.0,-4.0,-6.0,2.0
1702490935.0650153,-10.0,2.0,10.0,25.0,-1.0,2.0,6.0,1.0
1702490935.0650153,-7.0,-6.0,-16.0,-19.0,-2.0,0.0,0.0,1.0
1702490935.0650153,2.0,-5.0,-11.0,-13.0,4.0,0.0,-1.0,-3.0
1702490935.0650153,-11.0,0.0,-2.0,-2.0,-9.0,-4.0,-2.0,-5.0
1702490935.0752907,-6.0,9.0,12.0,8.0,-1.0,-5.0,-4.0,-6.0
1702490935.0752907,17.0,-1.0,-1.0,13.0,13.0,3.0,4.0,4.0
1702490935.0823104,1.0,1.0,1.0,4.0,4.0,4.0,1.0,3.0
1702490935.0823104,-18.0,-18.0,-25.0,16.0,2.0,-2.0,-1.0,-7.0
1702490935.092629,12.0,1.0,4.0,-5.0,-1.0,-3.0,-2.0,1.0
1702490935.092629,0.0,5.0,5.0,-3.0,-8.0,-3.0,1.0,3.0
1702490935.092629,0.0,4.0,4.0,8.0,2.0,-1.0,-4.0,-1.0
1702490935.092629,15.0,3.0,-3.0,-22.0,3.0,4.0,3.0,2.0
1702490935.1206846,-7.0,-4.0,-18.0,18.0,-7.0,-3.0,-4.0,-6.0
1702490935.1217308,-10.0,2.0,6.0,1.0,-5.0,-6.0,-4.0,-2.0
1702490935.1217308,8.0,-4.0,-9.0,-18.0,-6.0,-2.0,0.0,0.0
1702490935.1217308,4.0,9.0,14.0,-7.0,-6.0,-4.0,-2.0,-1.0
1702490935.149653,-2.0,-3.0,-15.0,-4.0,3.0,1.0,-1.0,0.0
1702490935.149653,-6.0,-11.0,-13.0,-8.0,1.0,-1.0,-3.0,-3.0
1702490935.149653,14.0,-2.0,-2.0,-7.0,0.0,0.0,-5.0,1.0
1702490935.149653,-20.0,-2.0,1.0,-10.0,-3.0,-2.0,7.0,2.0
1702490935.1556814,1.0,0.0,4.0,-11.0,-1.0,1.0,-1.0,-3.0
1702490935.1556814,-2.0,-9.0,-9.0,1.0,-7.0,-1.0,-1.0,-4.0
1702490935.1556814,9.0,-1.0,-7.0,-6.0,0.0,-2.0,-6.0,-2.0
1702490935.1556814,-34.0,-11.0,9.0,-5.0,-7.0,-7.0,-7.0,-3.0
1702490935.1901262,-4.0,5.0,4.0,8.0,4.0,2.0,-1.0,1.0
1702490935.1901262,-8.0,17.0,22.0,18.0,7.0,4.0,0.0,-3.0
1702490935.1901262,-29.0,-34.0,-18.0,-3.0,-7.0,-2.0,0.0,-4.0
1702490935.1901262,20.0,8.0,4.0,-14.0,-5.0,-2.0,-3.0,4.0
1702490935.201135,-30.0,9.0,17.0,13.0,1.0,-1.0,-1.0,-1.0
1702490935.2021363,-3.0,-5.0,-28.0,-27.0,-7.0,-3.0,-2.0,-1.0
1702490935.2021363,-6.0,5.0,16.0,23.0,-7.0,-2.0,3.0,-2.0
1702490935.2021363,11.0,5.0,16.0,20.0,14.0,4.0,2.0,3.0
1702490935.2151303,0.0,-20.0,-13.0,-35.0,1.0,2.0,-1.0,-4.0
1702490935.2151303,16.0,5.0,-1.0,32.0,7.0,0.0,-3.0,-4.0
1702490935.2161882,-33.0,0.0,3.0,3.0,-6.0,-3.0,-1.0,-2.0
1702490935.2161882,9.0,-11.0,-20.0,-70.0,-13.0,-5.0,-2.0,-2.0
1702490935.2568579,2.0,18.0,28.0,32.0,0.0,-3.0,0.0,0.0
1702490935.257856,-5.0,-18.0,-11.0,-33.0,-8.0,-3.0,-1.0,-1.0
1702490935.2608547,16.0,1.0,-8.0,16.0,0.0,-4.0,-1.0,-2.0
1702490935.2608547,7.0,-7.0,9.0,-4.0,7.0,2.0,-1.0,-2.0
1702490935.2632022,-18.0,4.0,-2.0,-20.0,1.0,2.0,1.0,0.0
1702490935.2632022,-5.0,0.0,3.0,21.0,2.0,0.0,-4.0,2.0
1702490935.2632022,1.0,3.0,2.0,-29.0,-1.0,0.0,4.0,0.0
1702490935.2632022,5.0,3.0,4.0,39.0,-1.0,-5.0,-3.0,-3.0
1702490935.275238,2.0,-2.0,3.0,-3.0,-1.0,1.0,3.0,4.0
1702490935.275238,-7.0,6.0,-6.0,21.0,0.0,-2.0,-3.0,-3.0
1702490935.275238,9.0,2.0,10.0,46.0,9.0,6.0,3.0,6.0
1702490935.275238,-28.0,-3.0,9.0,9.0,-6.0,-2.0,-3.0,-5.0
1702490935.297377,11.0,6.0,-29.0,-2.0,-4.0,-1.0,0.0,0.0
1702490935.297377,2.0,-13.0,12.0,-5.0,-1.0,-2.0,-1.0,-6.0
1702490935.2983546,1.0,7.0,-6.0,-60.0,7.0,2.0,0.0,-2.0
1702490935.2983546,9.0,-23.0,-7.0,39.0,5.0,-1.0,1.0,5.0
1702490935.320881,18.0,23.0,-1.0,2.0,1.0,-2.0,-2.0,-1.0
1702490935.320881,5.0,-23.0,-3.0,-10.0,0.0,0.0,1.0,2.0
1702490935.320881,-9.0,5.0,26.0,2.0,-17.0,-4.0,-4.0,-3.0
1702490935.3218918,5.0,2.0,-24.0,-3.0,10.0,6.0,-1.0,-5.0
1702490935.3354297,-1.0,-3.0,-5.0,15.0,1.0,0.0,-1.0,-1.0
1702490935.3354297,14.0,3.0,19.0,21.0,-1.0,0.0,1.0,7.0
1702490935.3354297,10.0,5.0,-9.0,6.0,5.0,-2.0,-2.0,-3.0
1702490935.3354297,4.0,7.0,19.0,-25.0,-9.0,-2.0,0.0,-1.0
1702490935.3615892,-2.0,-10.0,-3.0,-8.0,-2.0,-4.0,-3.0,-3.0
1702490935.3615892,-14.0,-4.0,-19.0,-11.0,9.0,3.0,3.0,-1.0
1702490935.3615892,-6.0,-5.0,11.0,5.0,-7.0,-4.0,-4.0,-1.0
1702490935.3615892,2.0,17.0,-1.0,-9.0,0.0,-1.0,0.0,0.0
1702490935.3715916,13.0,-38.0,-16.0,-11.0,1.0,0.0,-2.0,-1.0
1702490935.3715916,-4.0,0.0,12.0,7.0,0.0,0.0,-1.0,-1.0
1702490935.381589,20.0,16.0,-13.0,-28.0,-3.0,0.0,1.0,2.0
1702490935.381589,-5.0,-7.0,-11.0,41.0,8.0,3.0,1.0,1.0
1702490935.391961,0.0,-9.0,10.0,8.0,5.0,3.0,2.0,-3.0
1702490935.391961,-10.0,14.0,1.0,-26.0,-10.0,-6.0,-4.0,-3.0
1702490935.391961,-2.0,-8.0,1.0,5.0,3.0,-2.0,-1.0,-2.0
1702490935.391961,3.0,-1.0,8.0,-1.0,2.0,1.0,-1.0,1.0
1702490935.4115894,-12.0,7.0,-20.0,-15.0,-10.0,-5.0,-2.0,-1.0
1702490935.4115894,0.0,7.0,-5.0,-30.0,-8.0,-1.0,-2.0,-3.0
1702490935.4115894,-3.0,-1.0,-1.0,-6.0,4.0,2.0,-5.0,-1.0
1702490935.4115894,-8.0,-16.0,-6.0,16.0,-3.0,0.0,-1.0,-2.0
1702490935.441929,-2.0,1.0,12.0,-2.0,-8.0,-4.0,-3.0,-5.0
1702490935.441929,-7.0,-2.0,-21.0,-52.0,-9.0,-5.0,2.0,3.0
1702490935.441929,12.0,-4.0,11.0,38.0,1.0,-2.0,-1.0,-1.0
1702490935.441929,-5.0,12.0,-16.0,-17.0,-6.0,-1.0,0.0,3.0
1702490935.4518566,-7.0,-18.0,-14.0,-7.0,-4.0,-4.0,-3.0,-2.0
1702490935.4518566,-4.0,15.0,6.0,29.0,-3.0,-6.0,-7.0,-9.0
1702490935.4518566,-5.0,-13.0,-5.0,-69.0,3.0,2.0,0.0,0.0
1702490935.4518566,6.0,3.0,15.0,95.0,17.0,6.0,4.0,5.0
1702490935.4718707,1.0,11.0,2.0,-12.0,-6.0,0.0,-1.0,-1.0
1702490935.4718707,-4.0,-1.0,-4.0,4.0,3.0,2.0,1.0,0.0
1702490935.4718707,-5.0,3.0,-9.0,-25.0,-16.0,-7.0,-2.0,-1.0
1702490935.4718707,-6.0,-11.0,-1.0,-31.0,-6.0,-4.0,-5.0,-6.0
1702490935.5118692,1.0,0.0,1.0,-10.0,3.0,0.0,-4.0,-1.0
1702490935.5118692,25.0,-3.0,15.0,25.0,1.0,-2.0,0.0,2.0
1702490935.5118692,8.0,6.0,-19.0,-31.0,-6.0,-1.0,3.0,4.0
1702490935.5118692,-5.0,-4.0,-13.0,-48.0,-1.0,-2.0,-4.0,-6.0
1702490935.521868,2.0,2.0,22.0,28.0,2.0,-2.0,0.0,-3.0
1702490935.521868,-3.0,4.0,1.0,-43.0,0.0,3.0,1.0,-1.0
1702490935.521868,4.0,-8.0,-5.0,91.0,15.0,6.0,0.0,-2.0
1702490935.521868,-8.0,7.0,-5.0,-40.0,-10.0,-5.0,-2.0,-1.0
1702490935.5462446,-2.0,3.0,0.0,-9.0,-2.0,-2.0,-3.0,1.0
1702490935.5462446,5.0,-8.0,8.0,-5.0,1.0,1.0,-1.0,-1.0
1702490935.5471604,-2.0,8.0,-7.0,4.0,0.0,-1.0,0.0,-1.0
1702490935.5471604,1.0,-7.0,1.0,6.0,-1.0,-1.0,0.0,-4.0
1702490935.560514,5.0,-1.0,5.0,9.0,-2.0,-1.0,-2.0,-2.0
1702490935.560514,-3.0,-2.0,2.0,4.0,2.0,1.0,0.0,-1.0
1702490935.561483,6.0,1.0,9.0,-5.0,-4.0,-4.0,-1.0,-1.0
1702490935.561483,-19.0,-17.0,-42.0,-3.0,0.0,-5.0,-5.0,-5.0
1702490935.568657,-3.0,6.0,0.0,-24.0,-1.0,0.0,-2.0,5.0
1702490935.568657,0.0,-1.0,-7.0,35.0,0.0,-4.0,-1.0,-2.0
1702490935.5786843,-17.0,-5.0,8.0,-5.0,-10.0,-3.0,1.0,-7.0
1702490935.5786843,8.0,3.0,9.0,-14.0,1.0,3.0,-1.0,-1.0
1702490935.588783,-3.0,-1.0,32.0,56.0,20.0,5.0,1.0,1.0
1702490935.5987127,3.0,1.0,-37.0,-17.0,-1.0,1.0,-1.0,0.0
1702490935.5987127,-10.0,-4.0,13.0,37.0,0.0,-4.0,-4.0,-7.0
1702490935.5987127,19.0,-8.0,-7.0,-7.0,-11.0,-5.0,-1.0,5.0
1702490935.6186674,15.0,7.0,3.0,-8.0,-7.0,-2.0,2.0,3.0
1702490935.6186674,-54.0,-5.0,6.0,5.0,-4.0,-5.0,-7.0,-11.0
1702490935.6186674,-1.0,-2.0,20.0,43.0,22.0,11.0,3.0,4.0
1702490935.6186674,-4.0,3.0,32.0,-9.0,-9.0,0.0,0.0,-3.0
1702490935.6586607,9.0,4.0,-23.0,-6.0,9.0,5.0,1.0,1.0
1702490935.6586607,8.0,-16.0,-8.0,-17.0,-2.0,-3.0,-2.0,-2.0
1702490935.6586607,3.0,6.0,2.0,26.0,-3.0,-2.0,0.0,1.0
1702490935.6586607,-4.0,0.0,-12.0,2.0,-1.0,-3.0,-2.0,-2.0
1702490935.6586607,1.0,2.0,13.0,-11.0,-4.0,-2.0,-1.0,2.0
1702490935.6586607,5.0,11.0,17.0,-9.0,-16.0,-6.0,-3.0,-2.0
1702490935.6586607,-7.0,4.0,-14.0,-12.0,16.0,2.0,-1.0,-2.0
1702490935.6586607,12.0,0.0,-23.0,18.0,1.0,3.0,1.0,1.0
1702490935.6884913,-13.0,-5.0,-8.0,3.0,5.0,0.0,1.0,-2.0
1702490935.6884913,-2.0,6.0,9.0,15.0,2.0,1.0,3.0,3.0
1702490935.6884913,17.0,-29.0,-9.0,-27.0,-10.0,-3.0,-3.0,0.0
1702490935.6884913,-11.0,26.0,27.0,-2.0,-11.0,-6.0,-5.0,-6.0
1702490935.694332,12.0,-1.0,-11.0,-1.0,-3.0,-1.0,-2.0,-1.0
1702490935.694332,-7.0,-28.0,-3.0,16.0,1.0,0.0,-1.0,1.0
1702490935.703098,-1.0,-7.0,-30.0,-7.0,-4.0,-3.0,1.0,0.0
1702490935.703098,7.0,1.0,15.0,-8.0,5.0,1.0,-2.0,0.0
1702490935.717341,-23.0,-11.0,-15.0,-13.0,-9.0,-1.0,-1.0,-6.0
1702490935.717341,6.0,1.0,8.0,-10.0,-1.0,-2.0,-4.0,-2.0
1702490935.718342,-2.0,4.0,6.0,5.0,-5.0,-5.0,-2.0,-3.0
1702490935.718342,-2.0,-4.0,-18.0,12.0,8.0,2.0,1.0,2.0
1702490935.7587845,-1.0,-4.0,-1.0,-6.0,1.0,-1.0,-3.0,-1.0
1702490935.7587845,-1.0,-13.0,-10.0,-4.0,0.0,2.0,1.0,0.0
1702490935.7587845,-8.0,13.0,14.0,-12.0,-3.0,-3.0,-4.0,-2.0
1702490935.7587845,23.0,6.0,-9.0,4.0,-2.0,-3.0,0.0,-1.0
1702490935.7587845,-20.0,-11.0,-4.0,9.0,-2.0,-3.0,-2.0,-3.0
1702490935.7587845,12.0,-11.0,2.0,7.0,8.0,4.0,3.0,2.0
1702490935.7627854,-25.0,28.0,1.0,4.0,-5.0,2.0,4.0,4.0
1702490935.7627854,22.0,-1.0,29.0,21.0,-1.0,-2.0,1.0,5.0
1702490935.7858548,-26.0,5.0,-10.0,13.0,-3.0,-3.0,-2.0,-6.0
1702490935.7858548,-6.0,12.0,10.0,-9.0,8.0,1.0,-1.0,-2.0
1702490935.7868752,2.0,5.0,-8.0,-22.0,1.0,0.0,-5.0,-3.0
1702490935.7868752,3.0,9.0,-1.0,-13.0,2.0,2.0,0.0,1.0
1702490935.8010828,-4.0,-25.0,-21.0,0.0,-12.0,-5.0,-1.0,-2.0
1702490935.8010828,-6.0,0.0,4.0,45.0,-3.0,-5.0,-1.0,-1.0
1702490935.8010828,4.0,-11.0,18.0,-23.0,5.0,1.0,-1.0,-1.0
1702490935.8010828,-13.0,10.0,-31.0,-29.0,-3.0,1.0,-2.0,-2.0
1702490935.8147848,4.0,-10.0,6.0,0.0,0.0,-1.0,-4.0,-3.0
1702490935.8147848,12.0,1.0,5.0,2.0,-7.0,-4.0,-1.0,2.0
1702490935.8229892,-19.0,-1.0,5.0,4.0,3.0,0.0,1.0,-1.0
1702490935.8229892,-25.0,-24.0,-12.0,2.0,1.0,-4.0,-2.0,-4.0
1702490935.837902,19.0,9.0,3.0,-21.0,-9.0,-2.0,1.0,1.0
1702490935.837902,-1.0,4.0,4.0,22.0,9.0,1.0,0.0,-3.0
1702490935.837902,4.0,-7.0,-7.0,-23.0,-5.0,-1.0,-3.0,-1.0
1702490935.837902,-5.0,10.0,11.0,0.0,0.0,0.0,-1.0,-5.0
1702490935.8638196,5.0,-32.0,-9.0,-14.0,3.0,1.0,-1.0,2.0
1702490935.8638196,-6.0,23.0,-4.0,-14.0,2.0,0.0,-1.0,-3.0
1702490935.8638196,28.0,-1.0,-12.0,19.0,0.0,-2.0,2.0,8.0
1702490935.8638196,-4.0,9.0,12.0,-3.0,-8.0,-9.0,-4.0,-4.0
1702490935.8747852,-5.0,-22.0,9.0,15.0,-2.0,-3.0,0.0,1.0
1702490935.8747852,-25.0,-60.0,-11.0,-21.0,-8.0,0.0,1.0,-3.0
1702490935.8827996,-13.0,39.0,28.0,-2.0,0.0,1.0,-1.0,-7.0
1702490935.8827996,-2.0,4.0,-5.0,43.0,5.0,3.0,2.0,2.0
1702490935.897832,0.0,10.0,-58.0,5.0,5.0,0.0,-1.0,-1.0
1702490935.897832,4.0,18.0,6.0,-10.0,-6.0,-2.0,0.0,-1.0
1702490935.897832,4.0,-29.0,-1.0,-8.0,-2.0,-5.0,-4.0,-4.0
1702490935.897832,25.0,32.0,-3.0,-70.0,-15.0,-2.0,-1.0,1.0
1702490935.9202461,-26.0,21.0,38.0,43.0,9.0,1.0,-3.0,-4.0
1702490935.9202461,15.0,28.0,-17.0,1.0,6.0,6.0,0.0,1.0
1702490935.92109,-20.0,-20.0,-32.0,-17.0,-7.0,0.0,0.0,-4.0
1702490935.92109,-4.0,8.0,0.0,7.0,1.0,-1.0,-1.0,-1.0
1702490935.944494,7.0,18.0,-9.0,-61.0,-5.0,-6.0,-4.0,1.0
1702490935.944494,-23.0,-2.0,10.0,-7.0,-5.0,-2.0,0.0,-3.0
1702490935.944494,-3.0,-2.0,-9.0,0.0,-4.0,-3.0,-4.0,-2.0
1702490935.944494,12.0,17.0,-9.0,5.0,2.0,1.0,4.0,2.0
1702490935.981937,-4.0,5.0,31.0,-20.0,-6.0,0.0,0.0,-2.0
1702490935.981937,11.0,-15.0,-10.0,29.0,10.0,2.0,0.0,0.0
1702490935.981937,-30.0,-14.0,6.0,-15.0,-6.0,-4.0,-3.0,-4.0
1702490935.981937,-13.0,-8.0,-4.0,-53.0,-11.0,-5.0,-6.0,-5.0
1702490935.981937,19.0,24.0,15.0,75.0,11.0,3.0,0.0,2.0
1702490935.981937,20.0,82.0,34.0,25.0,3.0,-4.0,-2.0,0.0
1702490935.981937,2.0,-29.0,-33.0,-5.0,-1.0,0.0,-1.0,-2.0
1702490935.981937,-5.0,40.0,-3.0,-20.0,-7.0,-3.0,-4.0,-3.0
1702490936.003114,-1.0,10.0,14.0,-36.0,-5.0,-2.0,1.0,2.0
1702490936.003114,-3.0,-23.0,-12.0,54.0,12.0,3.0,0.0,0.0
1702490936.0071151,23.0,20.0,36.0,3.0,1.0,-1.0,0.0,3.0
1702490936.0071151,-7.0,-29.0,-21.0,18.0,7.0,4.0,0.0,1.0
1702490936.0259697,-1.0,-30.0,9.0,51.0,10.0,5.0,1.0,-5.0
1702490936.0259697,9.0,19.0,-4.0,3.0,-1.0,-2.0,1.0,3.0
1702490936.0259697,-2.0,22.0,-3.0,-21.0,-5.0,-2.0,3.0,6.0
1702490936.0259697,1.0,-9.0,-10.0,38.0,2.0,-4.0,-2.0,-3.0
1702490936.041748,3.0,32.0,-22.0,-40.0,-12.0,-5.0,-4.0,-6.0
1702490936.041748,5.0,-5.0,-8.0,-21.0,1.0,3.0,-2.0,-3.0
1702490936.041748,1.0,21.0,-3.0,1.0,-8.0,-1.0,-2.0,-5.0
1702490936.041748,-5.0,-4.0,31.0,9.0,2.0,0.0,-1.0,0.0
1702490936.0635989,3.0,18.0,-24.0,-21.0,-16.0,-7.0,-4.0,-2.0
1702490936.0635989,-10.0,-26.0,14.0,11.0,3.0,-2.0,-2.0,-2.0
1702490936.0635989,7.0,-2.0,-21.0,9.0,6.0,2.0,1.0,0.0
1702490936.0635989,10.0,-51.0,4.0,-15.0,-1.0,-2.0,-2.0,0.0
1702490936.0880814,9.0,17.0,23.0,19.0,-3.0,-1.0,-1.0,-2.0
1702490936.0880814,-5.0,-14.0,-6.0,-15.0,-8.0,-3.0,0.0,0.0
1702490936.0880814,-5.0,-21.0,-29.0,4.0,9.0,1.0,-2.0,-3.0
1702490936.0880814,-6.0,14.0,7.0,23.0,1.0,0.0,-1.0,-8.0
1702490936.1004102,4.0,-21.0,-28.0,-11.0,1.0,1.0,2.0,3.0
1702490936.1004102,2.0,21.0,33.0,-45.0,-13.0,-6.0,-3.0,-2.0
1702490936.1004102,9.0,-1.0,-55.0,-22.0,-7.0,-1.0,-2.0,-1.0
1702490936.1004102,-3.0,-59.0,33.0,30.0,14.0,7.0,3.0,3.0
1702490936.1301506,-18.0,-9.0,-13.0,-22.0,-7.0,-2.0,-4.0,-6.0
1702490936.1301506,3.0,30.0,-7.0,-35.0,-10.0,-4.0,-3.0,-1.0
1702490936.1311524,4.0,-30.0,6.0,13.0,-11.0,-7.0,-2.0,0.0
1702490936.1311524,-6.0,6.0,-5.0,-10.0,6.0,1.0,1.0,2.0
1702490936.1371684,16.0,9.0,51.0,6.0,10.0,4.0,3.0,3.0
1702490936.1371684,-20.0,-23.0,-36.0,-6.0,-8.0,-6.0,-4.0,-7.0
1702490936.138194,3.0,-18.0,39.0,-3.0,2.0,0.0,1.0,0.0
1702490936.138194,-31.0,-42.0,-41.0,-33.0,-19.0,-12.0,-7.0,-10.0
1702490936.1608746,-13.0,4.0,20.0,10.0,5.0,1.0,1.0,2.0
1702490936.1608746,4.0,-4.0,-12.0,-22.0,-4.0,2.0,0.0,1.0
1702490936.1608746,-21.0,6.0,17.0,34.0,21.0,6.0,0.0,-1.0
1702490936.1608746,5.0,17.0,32.0,11.0,-2.0,0.0,-2.0,0.0
1702490936.183427,-6.0,-33.0,-48.0,1.0,-4.0,-2.0,-3.0,-3.0
1702490936.184444,-6.0,35.0,2.0,5.0,0.0,-3.0,-1.0,-3.0
1702490936.184444,17.0,22.0,17.0,15.0,2.0,0.0,1.0,3.0
1702490936.184444,-1.0,-12.0,-55.0,-29.0,-4.0,-3.0,-2.0,-1.0
1702490936.2051456,-8.0,-16.0,4.0,19.0,1.0,-4.0,-2.0,-3.0
1702490936.2051456,-2.0,9.0,2.0,8.0,-7.0,-4.0,-1.0,-1.0
1702490936.2051456,7.0,1.0,8.0,4.0,9.0,3.0,-1.0,-2.0
1702490936.2051456,3.0,-30.0,16.0,15.0,2.0,0.0,-1.0,-2.0
1702490936.2219539,4.0,-22.0,3.0,-20.0,-3.0,0.0,1.0,-2.0
1702490936.2219539,9.0,-1.0,5.0,5.0,4.0,1.0,0.0,-1.0
1702490936.2219539,-1.0,-15.0,3.0,18.0,-10.0,-2.0,-1.0,-3.0
1702490936.2219539,3.0,20.0,11.0,-2.0,11.0,5.0,2.0,2.0
1702490936.272037,11.0,0.0,7.0,10.0,3.0,-2.0,-4.0,-3.0
1702490936.272037,0.0,-7.0,27.0,-11.0,0.0,-1.0,2.0,1.0
1702490936.272037,-13.0,-49.0,-30.0,-17.0,-13.0,-5.0,-4.0,-3.0
1702490936.272037,9.0,35.0,8.0,5.0,1.0,-1.0,-2.0,1.0
1702490936.275412,10.0,-14.0,26.0,-17.0,3.0,1.0,-1.0,4.0
1702490936.275412,-9.0,20.0,-28.0,18.0,6.0,2.0,0.0,-2.0
1702490936.275412,-18.0,-2.0,-56.0,-44.0,-7.0,-2.0,-2.0,-2.0
1702490936.275412,1.0,-24.0,28.0,25.0,-2.0,-2.0,1.0,1.0
1702490936.2805219,-10.0,-15.0,-42.0,0.0,-13.0,-8.0,-4.0,-4.0
1702490936.2805219,-26.0,-21.0,0.0,-11.0,4.0,1.0,3.0,4.0
1702490936.2816162,22.0,11.0,10.0,30.0,5.0,0.0,-2.0,-1.0
1702490936.2816162,3.0,23.0,11.0,38.0,-1.0,0.0,1.0,2.0
1702490936.3112206,-16.0,3.0,11.0,2.0,3.0,3.0,-3.0,-3.0
1702490936.3112206,12.0,-18.0,-9.0,-7.0,-3.0,-1.0,-5.0,-2.0
1702490936.3112206,26.0,-26.0,2.0,-32.0,-9.0,-5.0,-5.0,-2.0
1702490936.3112206,-49.0,25.0,4.0,51.0,13.0,2.0,0.0,-3.0
1702490936.3178704,5.0,5.0,-16.0,5.0,-6.0,-1.0,0.0,2.0
1702490936.3178704,-9.0,5.0,2.0,-13.0,-9.0,-7.0,-6.0,-5.0
1702490936.3188777,-5.0,29.0,-2.0,-17.0,2.0,3.0,2.0,1.0
1702490936.3188777,3.0,-32.0,2.0,-29.0,-9.0,-3.0,-4.0,-5.0
1702490936.3416193,0.0,12.0,-9.0,-30.0,2.0,-1.0,2.0,7.0
1702490936.3416193,12.0,-19.0,10.0,18.0,4.0,0.0,-4.0,-8.0
1702490936.3426237,4.0,38.0,1.0,-2.0,-7.0,-3.0,-1.0,0.0
1702490936.3426237,-7.0,16.0,2.0,-14.0,-6.0,2.0,-2.0,-3.0
1702490936.376916,-3.0,36.0,-16.0,-4.0,8.0,4.0,1.0,0.0
1702490936.376916,23.0,-61.0,-11.0,-18.0,-5.0,-1.0,0.0,2.0
1702490936.376916,-23.0,62.0,20.0,-15.0,3.0,-1.0,0.0,0.0
1702490936.376916,3.0,-37.0,4.0,39.0,-3.0,-3.0,-2.0,-1.0
1702490936.376916,-3.0,0.0,2.0,-1.0,-7.0,-4.0,-2.0,-4.0
1702490936.376916,1.0,9.0,14.0,1.0,7.0,2.0,1.0,1.0
1702490936.3779519,-11.0,-6.0,-24.0,2.0,9.0,3.0,1.0,-4.0
1702490936.3779519,30.0,-8.0,-31.0,-39.0,-2.0,0.0,2.0,7.0
1702490936.4009426,-23.0,34.0,9.0,-23.0,-6.0,-4.0,-1.0,-2.0
1702490936.4009426,-3.0,-5.0,-4.0,44.0,-6.0,-4.0,-3.0,-7.0
1702490936.4009426,7.0,-104.0,10.0,7.0,5.0,1.0,-1.0,-1.0
1702490936.4009426,8.0,-44.0,-18.0,-25.0,-3.0,-2.0,3.0,7.0
1702490936.424382,30.0,56.0,7.0,29.0,2.0,-2.0,-1.0,-3.0
1702490936.424382,-3.0,24.0,-17.0,-46.0,-6.0,-2.0,-1.0,0.0
1702490936.424382,11.0,18.0,32.0,19.0,4.0,3.0,-1.0,-2.0
1702490936.424382,-12.0,-5.0,-4.0,-7.0,1.0,0.0,-3.0,-5.0
1702490936.437845,-24.0,-64.0,-48.0,-24.0,-6.0,0.0,3.0,4.0
1702490936.437845,3.0,28.0,17.0,-8.0,-2.0,0.0,0.0,5.0
1702490936.4461808,-5.0,28.0,-7.0,-42.0,-13.0,-5.0,-4.0,-5.0
1702490936.4461808,-13.0,20.0,-16.0,16.0,6.0,3.0,0.0,-5.0
1702490936.460207,10.0,-33.0,27.0,-5.0,-7.0,-2.0,-3.0,-1.0
1702490936.460207,1.0,7.0,-51.0,15.0,4.0,2.0,2.0,3.0
1702490936.461205,-21.0,-26.0,20.0,22.0,3.0,-2.0,-1.0,-2.0
1702490936.461205,23.0,15.0,-22.0,-18.0,-4.0,-1.0,2.0,3.0
1702490936.492762,21.0,-7.0,43.0,-22.0,-9.0,-3.0,-1.0,-1.0
1702490936.4937623,-59.0,-104.0,-63.0,15.0,7.0,1.0,0.0,-4.0
1702490936.4937623,19.0,26.0,18.0,1.0,2.0,-2.0,-3.0,1.0
1702490936.4937623,11.0,-5.0,0.0,4.0,-4.0,1.0,-2.0,3.0
1702490936.4977615,-10.0,-5.0,4.0,5.0,-1.0,2.0,-2.0,-1.0
1702490936.4977615,-31.0,48.0,23.0,-36.0,-9.0,-6.0,-3.0,-2.0
1702490936.4977615,-18.0,-26.0,14.0,30.0,0.0,-1.0,-2.0,-6.0
1702490936.4977615,-4.0,36.0,30.0,-12.0,-1.0,-2.0,-2.0,-3.0
1702490936.5270436,-2.0,19.0,-43.0,-60.0,-12.0,-6.0,-5.0,-5.0
1702490936.5270436,34.0,30.0,22.0,72.0,24.0,10.0,5.0,9.0
1702490936.5340426,-24.0,16.0,1.0,-6.0,-7.0,-5.0,-3.0,-5.0
1702490936.5340426,-6.0,-20.0,-22.0,-17.0,-6.0,-4.0,-1.0,1.0
1702490936.5352223,7.0,54.0,45.0,14.0,6.0,2.0,1.0,0.0
1702490936.5352223,6.0,-39.0,7.0,2.0,-9.0,-4.0,-5.0,-4.0
1702490936.5352223,8.0,5.0,0.0,4.0,0.0,2.0,0.0,0.0
1702490936.5452385,-1.0,-1.0,-1.0,-8.0,-3.0,-2.0,0.0,-2.0
1702490936.555504,0.0,93.0,26.0,19.0,-1.0,-2.0,1.0,-1.0
1702490936.555504,9.0,82.0,16.0,-46.0,-4.0,-3.0,-1.0,0.0
1702490936.565233,2.0,3.0,-39.0,47.0,3.0,2.0,-1.0,2.0
1702490936.565233,-10.0,21.0,-14.0,-27.0,-4.0,-1.0,-3.0,-5.0
1702490936.6017735,8.0,-15.0,15.0,27.0,8.0,1.0,2.0,1.0
1702490936.6017735,8.0,11.0,39.0,-8.0,-2.0,-2.0,2.0,0.0
1702490936.6017735,7.0,-27.0,-16.0,-30.0,-2.0,-2.0,2.0,1.0
1702490936.6017735,-6.0,12.0,4.0,-25.0,-8.0,-4.0,-4.0,-5.0
1702490936.6028104,-7.0,-31.0,-3.0,82.0,12.0,0.0,-4.0,-7.0
1702490936.6028104,-39.0,-4.0,13.0,4.0,-2.0,2.0,2.0,4.0
1702490936.6038,10.0,28.0,31.0,-2.0,-2.0,3.0,3.0,4.0
1702490936.6038,-3.0,-4.0,-58.0,3.0,-1.0,-4.0,-5.0,-3.0
1702490936.6166594,-14.0,-2.0,7.0,-23.0,-3.0,0.0,-2.0,-3.0
1702490936.6166594,9.0,-19.0,-20.0,18.0,-1.0,-1.0,-4.0,-4.0
1702490936.6166594,7.0,28.0,-15.0,1.0,-6.0,-2.0,-2.0,1.0
1702490936.6166594,-2.0,47.0,14.0,-15.0,-4.0,-1.0,1.0,0.0
1702490936.64667,6.0,-20.0,-19.0,6.0,1.0,-2.0,-1.0,0.0
1702490936.64667,0.0,-11.0,28.0,-20.0,-1.0,0.0,-1.0,-3.0
1702490936.656657,6.0,7.0,-51.0,-26.0,-10.0,-3.0,-2.0,0.0
1702490936.656657,15.0,22.0,15.0,3.0,5.0,0.0,-1.0,1.0
1702490936.656657,-13.0,-21.0,24.0,15.0,-2.0,-1.0,-3.0,-4.0
1702490936.656657,41.0,8.0,17.0,-16.0,-8.0,-5.0,-1.0,2.0
1702490936.656657,-41.0,43.0,-26.0,-3.0,1.0,-3.0,-3.0,-5.0
1702490936.656657,10.0,6.0,38.0,16.0,8.0,3.0,2.0,5.0
1702490936.6769528,2.0,18.0,-4.0,17.0,8.0,5.0,1.0,3.0
1702490936.6769528,12.0,-41.0,-75.0,-3.0,-5.0,-4.0,-2.0,2.0
1702490936.6769528,-3.0,-28.0,23.0,-20.0,2.0,1.0,1.0,-2.0
1702490936.6769528,5.0,14.0,21.0,23.0,-4.0,-6.0,-5.0,-6.0
1702490936.7031713,-16.0,-19.0,-31.0,19.0,0.0,2.0,3.0,2.0
1702490936.7031713,9.0,-14.0,48.0,-5.0,4.0,3.0,1.0,1.0
1702490936.7031713,-1.0,-53.0,-68.0,-2.0,-7.0,-3.0,-3.0,-4.0
1702490936.7031713,-13.0,2.0,9.0,32.0,3.0,2.0,-1.0,-1.0
1702490936.7235749,6.0,-51.0,-16.0,0.0,1.0,-3.0,-3.0,-2.0
1702490936.7235749,-5.0,10.0,-29.0,-11.0,-3.0,2.0,1.0,-2.0
1702490936.7235749,-1.0,-82.0,7.0,-13.0,-2.0,-2.0,-2.0,-1.0
1702490936.7235749,15.0,3.0,17.0,22.0,1.0,-1.0,-4.0,-5.0
1702490936.733235,8.0,16.0,-40.0,-23.0,0.0,0.0,-3.0,-2.0
1702490936.733235,-3.0,-49.0,-2.0,-13.0,-2.0,-2.0,-2.0,-4.0
1702490936.74318,2.0,4.0,0.0,8.0,-7.0,-2.0,-2.0,-1.0
1702490936.74318,-1.0,-10.0,-26.0,-25.0,-5.0,0.0,-1.0,-6.0
1702490936.7531793,6.0,-43.0,2.0,-8.0,-2.0,-1.0,2.0,0.0
1702490936.7531793,-32.0,17.0,-17.0,-56.0,-7.0,-2.0,-2.0,-6.0
1702490936.7531793,18.0,46.0,75.0,47.0,15.0,3.0,5.0,8.0
1702490936.7531793,-3.0,-93.0,-41.0,-4.0,-15.0,-4.0,-1.0,-1.0
1702490936.7831895,-12.0,29.0,-51.0,-26.0,-9.0,-5.0,-4.0,-3.0
1702490936.7831895,-9.0,-24.0,13.0,-15.0,1.0,-5.0,-1.0,-1.0
1702490936.7831895,36.0,-16.0,50.0,9.0,3.0,2.0,-3.0,-1.0
1702490936.7831895,-5.0,-1.0,-26.0,-11.0,-1.0,1.0,-2.0,3.0
1702490936.8131833,-14.0,65.0,31.0,-22.0,-7.0,-3.0,-6.0,-5.0
1702490936.8131833,15.0,33.0,-5.0,39.0,6.0,1.0,0.0,5.0
1702490936.8231788,1.0,-24.0,-30.0,22.0,0.0,-1.0,-2.0,-4.0
1702490936.8231788,2.0,-5.0,8.0,-36.0,5.0,1.0,1.0,1.0
1702490936.8231788,-10.0,-92.0,-10.0,-14.0,-2.0,0.0,-1.0,-5.0
1702490936.8231788,6.0,94.0,57.0,84.0,14.0,-1.0,0.0,-1.0
1702490936.8231788,-15.0,-30.0,-38.0,-48.0,-18.0,-5.0,0.0,0.0
1702490936.8231788,-2.0,40.0,-39.0,-15.0,-1.0,0.0,-2.0,-2.0
1702490936.843567,-4.0,6.0,7.0,-7.0,-9.0,-5.0,-1.0,-1.0
1702490936.843567,-2.0,-20.0,-6.0,32.0,11.0,3.0,0.0,-1.0
1702490936.843567,3.0,-21.0,20.0,1.0,3.0,3.0,-2.0,0.0
1702490936.843567,-1.0,-30.0,4.0,24.0,4.0,-2.0,-2.0,-2.0
1702490936.863594,1.0,37.0,15.0,-7.0,1.0,4.0,1.0,3.0
1702490936.863594,6.0,-31.0,-35.0,-26.0,-15.0,-5.0,-2.0,-1.0
1702490936.863594,-26.0,62.0,-1.0,-2.0,-1.0,-3.0,-1.0,-5.0
1702490936.863594,-9.0,67.0,36.0,1.0,2.0,-1.0,-1.0,-4.0
1702490936.883213,16.0,16.0,-21.0,6.0,-4.0,-3.0,0.0,3.0
1702490936.883213,1.0,-69.0,-19.0,-29.0,-5.0,-5.0,-4.0,-5.0
1702490936.883213,1.0,-5.0,12.0,17.0,13.0,4.0,1.0,1.0
1702490936.883213,-19.0,11.0,3.0,-6.0,-5.0,-1.0,0.0,-4.0
1702490936.90345,-7.0,31.0,52.0,1.0,-5.0,-5.0,0.0,0.0
1702490936.90345,9.0,48.0,-7.0,43.0,15.0,6.0,1.0,0.0
1702490936.90345,6.0,17.0,-1.0,-27.0,-12.0,-6.0,-3.0,0.0
1702490936.90345,5.0,28.0,5.0,-7.0,-5.0,-4.0,-2.0,-1.0
1702490936.943233,-13.0,8.0,12.0,-4.0,6.0,2.0,0.0,1.0
1702490936.943233,-8.0,-64.0,-5.0,-23.0,-15.0,-5.0,-5.0,-4.0
1702490936.9531784,8.0,-23.0,-34.0,-1.0,-1.0,-4.0,-2.0,-2.0
1702490936.9531784,-26.0,1.0,39.0,12.0,7.0,4.0,5.0,4.0
1702490936.9531784,12.0,-34.0,-20.0,-7.0,3.0,3.0,1.0,1.0
1702490936.9531784,4.0,36.0,-21.0,-17.0,-7.0,0.0,0.0,1.0
1702490936.9531784,2.0,20.0,-4.0,-9.0,1.0,-2.0,-1.0,-2.0
1702490936.9531784,-15.0,-35.0,21.0,-3.0,-6.0,-6.0,-4.0,-6.0
1702490936.963178,15.0,-17.0,-14.0,-7.0,1.0,-1.0,0.0,2.0
1702490936.963178,-28.0,2.0,25.0,20.0,14.0,10.0,2.0,-1.0
1702490936.963178,-5.0,5.0,13.0,7.0,-3.0,1.0,2.0,2.0
1702490936.963178,4.0,-80.0,-35.0,2.0,-4.0,-2.0,-2.0,-3.0
1702490936.9831805,6.0,-15.0,1.0,-32.0,-12.0,-8.0,-4.0,-6.0
1702490936.9831805,12.0,0.0,17.0,-8.0,-6.0,-6.0,-2.0,-2.0
1702490936.9831805,2.0,24.0,18.0,8.0,20.0,7.0,4.0,5.0
1702490936.9831805,3.0,12.0,-10.0,-15.0,-4.0,-2.0,-1.0,-1.0
1702490936.9934976,3.0,-74.0,-39.0,35.0,-2.0,0.0,-3.0,-2.0
1702490936.9934976,1.0,-39.0,-6.0,-16.0,-11.0,-4.0,-2.0,-2.0
1702490936.9934976,-22.0,19.0,23.0,5.0,-6.0,-1.0,-2.0,-4.0
1702490936.9934976,7.0,-6.0,-21.0,-16.0,16.0,7.0,3.0,3.0
1702490937.0231829,2.0,38.0,5.0,-2.0,5.0,-1.0,1.0,2.0
1702490937.0231829,-2.0,7.0,-25.0,-23.0,-9.0,-6.0,-3.0,-1.0
1702490937.0231829,-1.0,-10.0,30.0,12.0,-4.0,-3.0,-4.0,-6.0
1702490937.0231829,18.0,-2.0,-13.0,-11.0,-11.0,-4.0,-3.0,0.0
1702490937.043498,-36.0,2.0,13.0,11.0,2.0,-2.0,-1.0,-7.0
1702490937.043498,2.0,-31.0,-41.0,-35.0,-2.0,0.0,1.0,2.0
1702490937.043498,18.0,-13.0,20.0,62.0,10.0,-2.0,-1.0,0.0
1702490937.043498,-13.0,23.0,-17.0,-19.0,-9.0,-3.0,-4.0,-4.0
1702490937.0532076,10.0,12.0,30.0,26.0,8.0,2.0,0.0,-2.0
1702490937.0532076,1.0,32.0,6.0,-6.0,7.0,1.0,-1.0,1.0
1702490937.0532076,-8.0,-21.0,-23.0,-33.0,-14.0,-6.0,0.0,-2.0
1702490937.0532076,18.0,-4.0,2.0,32.0,1.0,0.0,-3.0,0.0
1702490937.0831964,-2.0,0.0,27.0,6.0,3.0,4.0,2.0,2.0
1702490937.0831964,-7.0,6.0,-10.0,-22.0,-11.0,-4.0,-4.0,-5.0
1702490937.0831964,11.0,18.0,-10.0,-4.0,-8.0,-3.0,-1.0,0.0
1702490937.0831964,-2.0,-10.0,27.0,16.0,-1.0,-2.0,1.0,0.0
1702490937.1035545,6.0,29.0,-64.0,-22.0,-9.0,-2.0,1.0,1.0
1702490937.1035545,-11.0,-34.0,8.0,47.0,5.0,-3.0,-2.0,-3.0
1702490937.1035545,-1.0,-29.0,-8.0,-11.0,-9.0,-3.0,-3.0,-6.0
1702490937.1035545,-1.0,50.0,8.0,-4.0,-1.0,0.0,0.0,0.0
1702490937.1131861,4.0,65.0,5.0,-45.0,-12.0,-3.0,-2.0,2.0
1702490937.1131861,2.0,3.0,7.0,57.0,6.0,-1.0,-2.0,-3.0
1702490937.1131861,11.0,29.0,-13.0,-15.0,6.0,-1.0,-2.0,-2.0
1702490937.1131861,-2.0,-17.0,6.0,25.0,5.0,1.0,-2.0,-1.0
1702490937.1432586,7.0,42.0,49.0,11.0,4.0,0.0,-2.0,1.0
1702490937.1432586,-7.0,-14.0,-46.0,-1.0,-5.0,-1.0,-3.0,-4.0
1702490937.1442606,1.0,42.0,22.0,-9.0,-3.0,-4.0,-1.0,3.0
1702490937.1442606,-1.0,9.0,-20.0,-38.0,-5.0,-3.0,-2.0,-2.0
1702490937.159525,-17.0,-22.0,1.0,12.0,-3.0,-2.0,-1.0,-2.0
1702490937.159525,6.0,-16.0,46.0,-5.0,6.0,1.0,1.0,-1.0
1702490937.1698723,-8.0,-52.0,-9.0,20.0,6.0,2.0,-2.0,-2.0
1702490937.1698723,4.0,19.0,-2.0,9.0,-2.0,-1.0,2.0,1.0
1702490937.1798484,-2.0,-18.0,-5.0,-14.0,-4.0,-5.0,-5.0,-1.0
1702490937.1798484,-25.0,-8.0,-31.0,-15.0,-11.0,-4.0,-2.0,-3.0
1702490937.1798484,-14.0,-17.0,-4.0,-9.0,3.0,4.0,2.0,0.0
1702490937.1798484,-1.0,12.0,13.0,-20.0,-1.0,-2.0,-2.0,-3.0
1702490937.1995265,-3.0,-81.0,-94.0,24.0,3.0,-1.0,-4.0,-8.0
1702490937.1995265,5.0,40.0,17.0,-14.0,-1.0,-2.0,1.0,1.0
1702490937.1995265,-1.0,-50.0,0.0,-27.0,-6.0,-6.0,-5.0,-3.0
1702490937.1995265,6.0,37.0,10.0,0.0,0.0,2.0,1.0,1.0
1702490937.2198796,-2.0,33.0,29.0,-9.0,3.0,0.0,1.0,-1.0
1702490937.2198796,18.0,-64.0,3.0,6.0,9.0,1.0,2.0,4.0
1702490937.2198796,-25.0,-18.0,-21.0,-7.0,-10.0,-5.0,-3.0,-5.0
1702490937.2198796,18.0,64.0,31.0,24.0,9.0,2.0,1.0,2.0
1702490937.2395968,-4.0,-16.0,-27.0,-40.0,-11.0,-3.0,-5.0,-4.0
1702490937.2395968,-6.0,-24.0,17.0,-1.0,-7.0,1.0,-2.0,-3.0
1702490937.2395968,15.0,37.0,10.0,-23.0,-4.0,-2.0,-1.0,0.0
1702490937.2395968,-12.0,-2.0,3.0,24.0,6.0,-1.0,-3.0,-1.0
1702490937.25956,0.0,30.0,16.0,-5.0,4.0,1.0,0.0,-1.0
1702490937.25956,14.0,30.0,-21.0,23.0,-12.0,-4.0,-2.0,-2.0
1702490937.25956,4.0,28.0,15.0,21.0,18.0,4.0,0.0,4.0
1702490937.25956,-43.0,-19.0,-61.0,-59.0,-16.0,-5.0,-4.0,-6.0
1702490937.2799473,15.0,-10.0,40.0,61.0,13.0,2.0,2.0,5.0
1702490937.2799473,0.0,46.0,26.0,-7.0,-5.0,-1.0,-1.0,-1.0
1702490937.2799473,4.0,50.0,-29.0,-25.0,-6.0,-2.0,-1.0,3.0
1702490937.2799473,-1.0,-77.0,8.0,1.0,-6.0,-1.0,-2.0,-2.0
1702490937.3095245,-1.0,-16.0,36.0,-23.0,10.0,4.0,0.0,-3.0
1702490937.3095245,3.0,114.0,-6.0,18.0,4.0,-2.0,-1.0,0.0
1702490937.3095245,-24.0,27.0,16.0,7.0,-7.0,-3.0,0.0,-4.0
1702490937.3095245,10.0,-43.0,-2.0,3.0,4.0,1.0,1.0,0.0
1702490937.3195734,-6.0,-14.0,-35.0,-2.0,-7.0,-2.0,0.0,-4.0
1702490937.3195734,18.0,8.0,27.0,39.0,14.0,3.0,-2.0,-4.0
1702490937.3195734,26.0,8.0,-41.0,-10.0,-5.0,-4.0,-1.0,0.0
1702490937.3195734,-27.0,-28.0,-10.0,2.0,-5.0,-1.0,-1.0,2.0
1702490937.3398151,-26.0,-10.0,-1.0,-4.0,-1.0,-4.0,-2.0,-2.0
1702490937.3398151,-12.0,50.0,20.0,-1.0,13.0,4.0,0.0,1.0
1702490937.3398151,-1.0,-9.0,-3.0,52.0,1.0,5.0,-2.0,-1.0
1702490937.3398151,17.0,17.0,13.0,10.0,0.0,-4.0,-2.0,0.0
1702490937.3795269,11.0,34.0,-3.0,-4.0,-1.0,-1.0,-1.0,0.0
1702490937.3795269,-10.0,-28.0,31.0,-45.0,-4.0,-3.0,-3.0,-1.0
1702490937.3795269,5.0,10.0,-53.0,-68.0,-12.0,-3.0,0.0,3.0
1702490937.3795269,-31.0,-7.0,-2.0,62.0,11.0,1.0,0.0,-7.0
1702490937.3795269,-5.0,-30.0,0.0,-34.0,-1.0,0.0,0.0,-3.0
1702490937.3795269,2.0,51.0,35.0,4.0,-6.0,-3.0,1.0,-1.0
1702490937.3795269,2.0,27.0,-60.0,-5.0,-2.0,-2.0,0.0,-2.0
1702490937.3795269,7.0,-1.0,14.0,5.0,-2.0,-1.0,-1.0,-1.0
1702490937.3997824,10.0,-8.0,2.0,40.0,20.0,4.0,0.0,-4.0
1702490937.3997824,-11.0,-31.0,-20.0,-41.0,-11.0,-1.0,-1.0,2.0
1702490937.3997824,4.0,19.0,41.0,-21.0,-1.0,-3.0,-5.0,-3.0
1702490937.3997824,3.0,-8.0,-12.0,-17.0,-12.0,-4.0,-5.0,-3.0
1702490937.4195266,-2.0,7.0,4.0,24.0,-5.0,-5.0,-2.0,0.0
1702490937.4195266,5.0,-19.0,-14.0,3.0,-1.0,1.0,0.0,0.0
1702490937.4195266,4.0,-6.0,10.0,-27.0,14.0,5.0,-1.0,0.0
1702490937.4195266,-27.0,0.0,5.0,14.0,1.0,-2.0,-1.0,1.0
1702490937.4398222,1.0,4.0,19.0,24.0,-4.0,1.0,-1.0,-1.0
1702490937.4398222,14.0,-17.0,-5.0,-13.0,-8.0,-6.0,-2.0,-2.0
1702490937.4398222,-26.0,-14.0,-20.0,-33.0,-16.0,-2.0,1.0,-3.0
1702490937.4398222,13.0,-42.0,7.0,41.0,7.0,1.0,0.0,-3.0
1702490937.4598515,12.0,40.0,-9.0,-24.0,-5.0,0.0,1.0,3.0
1702490937.4598515,-7.0,-32.0,-64.0,-42.0,-5.0,-2.0,-2.0,-2.0
1702490937.4598515,-7.0,-6.0,63.0,72.0,1.0,-4.0,-1.0,-3.0
1702490937.4598515,25.0,1.0,-10.0,-31.0,6.0,2.0,1.0,5.0
1702490937.4795291,-2.0,-5.0,-6.0,-12.0,-6.0,-3.0,-1.0,3.0
1702490937.4795291,-2.0,-11.0,-7.0,17.0,-3.0,-3.0,-3.0,-3.0
1702490937.4895296,4.0,11.0,23.0,-49.0,17.0,10.0,2.0,2.0
1702490937.4895296,0.0,-11.0,1.0,51.0,7.0,4.0,-2.0,-3.0
1702490937.5195236,15.0,0.0,8.0,-20.0,-7.0,-4.0,-4.0,-3.0
1702490937.5195236,-6.0,-14.0,-51.0,-32.0,-11.0,-4.0,-2.0,-2.0
1702490937.5195236,3.0,-16.0,13.0,16.0,-6.0,-3.0,-1.0,-2.0
1702490937.5195236,0.0,20.0,13.0,-2.0,-3.0,-3.0,-2.0,-2.0
1702490937.5195236,17.0,-12.0,-8.0,5.0,7.0,3.0,-1.0,-1.0
1702490937.5195236,-6.0,10.0,19.0,3.0,-4.0,-1.0,3.0,2.0
1702490937.5195236,4.0,-15.0,5.0,-11.0,-7.0,-1.0,4.0,1.0
1702490937.5195236,2.0,13.0,-3.0,-31.0,1.0,-3.0,1.0,-1.0
1702490937.5395312,-10.0,-25.0,12.0,15.0,3.0,-1.0,0.0,-2.0
1702490937.5395312,-6.0,-2.0,-5.0,64.0,13.0,3.0,1.0,1.0
1702490937.5495245,1.0,-10.0,0.0,1.0,-10.0,-2.0,-2.0,-3.0
1702490937.5495245,7.0,11.0,18.0,-21.0,-14.0,-5.0,-1.0,-3.0
1702490937.5598915,-15.0,-2.0,-9.0,20.0,5.0,0.0,0.0,-2.0
1702490937.5598915,0.0,8.0,25.0,-6.0,2.0,-1.0,-1.0,0.0
1702490937.5697832,9.0,-1.0,14.0,85.0,5.0,-1.0,-1.0,-2.0
1702490937.5697832,7.0,-18.0,-8.0,-39.0,-2.0,-4.0,1.0,2.0
1702490937.5795255,-1.0,-5.0,-4.0,-5.0,2.0,3.0,-1.0,-2.0
1702490937.5795255,5.0,9.0,-27.0,0.0,-5.0,-1.0,-3.0,-2.0
1702490937.5795255,2.0,-17.0,9.0,24.0,10.0,-13.0,-2.0,-1.0
1702490937.5795255,-6.0,-5.0,-15.0,7.0,-4.0,0.0,-1.0,-2.0
1702490937.5995305,-5.0,0.0,16.0,-21.0,-2.0,4.0,-2.0,-3.0
1702490937.5995305,9.0,10.0,3.0,-46.0,-6.0,4.0,-1.0,1.0
1702490937.6095304,2.0,3.0,-13.0,13.0,-1.0,6.0,0.0,0.0
1702490937.6095304,-3.0,9.0,25.0,-20.0,-9.0,-1.0,-2.0,-4.0
1702490937.6197891,-15.0,-14.0,-13.0,66.0,19.0,2.0,-2.0,-3.0
1702490937.6197891,21.0,26.0,-17.0,13.0,-9.0,-5.0,-3.0,1.0
1702490937.6297436,-31.0,-37.0,-1.0,-57.0,1.0,-1.0,-3.0,0.0
1702490937.6297436,15.0,-10.0,6.0,10.0,6.0,-1.0,0.0,1.0
1702490937.6647797,-4.0,14.0,4.0,0.0,-16.0,-7.0,-2.0,-1.0
1702490937.6647797,-4.0,-6.0,11.0,-9.0,4.0,1.0,2.0,2.0
1702490937.6647797,16.0,13.0,16.0,30.0,-2.0,-3.0,-2.0,0.0
1702490937.6647797,-1.0,-3.0,-21.0,-47.0,-12.0,-5.0,-4.0,-1.0
1702490937.6647797,4.0,-7.0,-15.0,-6.0,12.0,2.0,0.0,2.0
1702490937.6647797,-10.0,-1.0,14.0,22.0,0.0,-3.0,-4.0,-4.0
1702490937.6677794,-11.0,-13.0,-6.0,-7.0,-2.0,2.0,-2.0,-4.0
1702490937.6677794,5.0,8.0,-4.0,-4.0,1.0,1.0,0.0,1.0
1702490937.6824162,-6.0,-9.0,-29.0,-33.0,-12.0,-9.0,-2.0,-2.0
1702490937.6824162,-9.0,-6.0,12.0,9.0,-1.0,-2.0,-1.0,-3.0
1702490937.6924086,-1.0,14.0,-7.0,-14.0,-7.0,1.0,-1.0,-1.0
1702490937.6924086,-5.0,-5.0,-7.0,16.0,9.0,-3.0,-5.0,-4.0
1702490937.7024086,0.0,0.0,-16.0,-66.0,-14.0,-1.0,-1.0,-1.0
1702490937.7024086,-18.0,-11.0,7.0,19.0,5.0,0.0,0.0,-3.0
1702490937.7024086,-6.0,-4.0,6.0,-7.0,-23.0,-11.0,-5.0,-6.0
1702490937.7024086,5.0,7.0,3.0,41.0,14.0,5.0,3.0,5.0
1702490937.7204752,12.0,8.0,-9.0,-27.0,-7.0,2.0,-2.0,3.0
1702490937.7204752,-40.0,-13.0,4.0,-22.0,-10.0,-4.0,-4.0,-8.0
1702490937.7204752,6.0,8.0,24.0,5.0,2.0,6.0,1.0,2.0
1702490937.7304885,1.0,-6.0,-83.0,-33.0,-16.0,-8.0,-3.0,-2.0
1702490937.7408962,-3.0,6.0,26.0,12.0,0.0,0.0,0.0,-1.0
1702490937.7408962,8.0,-1.0,13.0,6.0,8.0,5.0,4.0,2.0
1702490937.7504864,-10.0,-13.0,-50.0,-28.0,-4.0,-5.0,-3.0,-4.0
1702490937.7504864,-12.0,-6.0,5.0,10.0,-1.0,-3.0,-2.0,-4.0
1702490937.770484,18.0,9.0,13.0,-1.0,2.0,3.0,1.0,1.0
1702490937.770484,7.0,-5.0,8.0,7.0,-4.0,-4.0,1.0,0.0
1702490937.770484,5.0,15.0,-6.0,-24.0,2.0,-5.0,0.0,2.0
1702490937.770484,1.0,2.0,19.0,20.0,4.0,3.0,0.0,-2.0
1702490937.770484,4.0,-9.0,3.0,-13.0,-2.0,-2.0,2.0,0.0
1702490937.770484,15.0,6.0,-14.0,38.0,6.0,-1.0,-2.0,-1.0
1702490937.7908978,-9.0,-7.0,7.0,-14.0,4.0,7.0,0.0,0.0
1702490937.7908978,0.0,4.0,-4.0,-19.0,-12.0,2.0,0.0,0.0
1702490937.800838,-4.0,9.0,4.0,-32.0,-12.0,-4.0,-4.0,-1.0
1702490937.800838,6.0,-5.0,11.0,7.0,5.0,6.0,-1.0,-2.0
1702490937.8104842,-1.0,3.0,-32.0,-19.0,-7.0,3.0,0.0,1.0
1702490937.8104842,5.0,1.0,26.0,51.0,6.0,0.0,-1.0,-1.0
1702490937.8208642,-42.0,-7.0,22.0,55.0,6.0,1.0,-1.0,-2.0
1702490937.8208642,-1.0,-5.0,-45.0,-37.0,-10.0,-5.0,-2.0,0.0
1702490937.830484,1.0,7.0,16.0,5.0,-1.0,-3.0,-3.0,-6.0
1702490937.830484,-2.0,-7.0,6.0,-10.0,13.0,-2.0,-1.0,-1.0
1702490937.8404834,14.0,9.0,-2.0,63.0,11.0,1.0,3.0,2.0
1702490937.8404834,-13.0,-11.0,-5.0,-29.0,-3.0,-2.0,-1.0,-2.0
1702490937.8505478,-2.0,-7.0,15.0,33.0,0.0,-4.0,-3.0,0.0
1702490937.8505478,-25.0,5.0,1.0,-19.0,0.0,4.0,-1.0,-1.0
1702490937.8804858,7.0,-1.0,-8.0,15.0,5.0,-2.0,-3.0,-1.0
1702490937.8804858,8.0,5.0,6.0,33.0,8.0,1.0,0.0,2.0
1702490937.8804858,-1.0,0.0,-6.0,-37.0,-17.0,-5.0,-2.0,-4.0
1702490937.8804858,4.0,-7.0,-2.0,-43.0,-1.0,1.0,2.0,0.0
1702490937.8804858,-38.0,-14.0,-14.0,-12.0,-12.0,-1.0,-4.0,-5.0
1702490937.8804858,10.0,23.0,17.0,15.0,17.0,8.0,6.0,7.0
1702490937.8804858,-1.0,-8.0,2.0,1.0,-3.0,-4.0,-2.0,-3.0
1702490937.8804858,3.0,-19.0,-1.0,7.0,9.0,3.0,3.0,1.0
1702490937.9008408,1.0,0.0,-6.0,-12.0,-7.0,-3.0,0.0,-3.0
1702490937.9008408,5.0,-10.0,36.0,13.0,-5.0,-5.0,-8.0,-2.0
1702490937.9008408,-4.0,-2.0,6.0,36.0,12.0,2.0,0.0,0.0
1702490937.9008408,-2.0,6.0,6.0,36.0,4.0,-1.0,-1.0,-2.0
1702490937.9208856,13.0,-5.0,-36.0,-67.0,-14.0,-1.0,-3.0,1.0
1702490937.9208856,-36.0,-8.0,15.0,16.0,4.0,2.0,2.0,-5.0
1702490937.9304872,9.0,3.0,-1.0,21.0,-2.0,-2.0,1.0,3.0
1702490937.9304872,19.0,0.0,12.0,-11.0,-9.0,-3.0,-2.0,-3.0
1702490937.940484,3.0,0.0,20.0,12.0,-5.0,-6.0,1.0,2.0
1702490937.940484,10.0,4.0,-14.0,-28.0,-8.0,-7.0,-2.0,-1.0
1702490937.940484,-3.0,0.0,-27.0,-43.0,1.0,1.0,2.0,0.0
1702490937.940484,5.0,-2.0,3.0,22.0,-2.0,4.0,2.0,4.0
1702490937.9608102,3.0,-6.0,1.0,20.0,3.0,3.0,-1.0,-4.0
1702490937.9608102,0.0,-6.0,-11.0,-18.0,-4.0,-1.0,-4.0,-2.0
1702490937.9704885,0.0,5.0,-2.0,-31.0,-6.0,-3.0,0.0,-2.0
1702490937.9704885,-8.0,12.0,8.0,13.0,-10.0,-10.0,-6.0,-4.0
1702490938.0104837,2.0,1.0,26.0,-18.0,-4.0,-7.0,-4.0,-4.0
1702490938.0104837,-4.0,-15.0,8.0,47.0,3.0,2.0,-1.0,1.0
1702490938.0104837,1.0,0.0,6.0,1.0,7.0,5.0,3.0,0.0
1702490938.0104837,2.0,4.0,1.0,-13.0,-5.0,0.0,-3.0,0.0
1702490938.0104837,-24.0,5.0,-7.0,-3.0,-1.0,-1.0,-1.0,-3.0
1702490938.0104837,12.0,1.0,1.0,-55.0,-14.0,-8.0,-7.0,-5.0
1702490938.0104837,-1.0,4.0,18.0,14.0,2.0,10.0,-2.0,6.0
1702490938.0104837,-10.0,-8.0,-2.0,18.0,14.0,-1.0,5.0,1.0
1702490938.0304844,10.0,7.0,2.0,-17.0,-12.0,-11.0,-4.0,0.0
1702490938.0304844,-8.0,1.0,-19.0,-15.0,14.0,10.0,1.0,-1.0
1702490938.0304844,4.0,0.0,-15.0,-6.0,11.0,5.0,1.0,-2.0
1702490938.0304844,17.0,11.0,-36.0,-100.0,-19.0,-1.0,-1.0,0.0
1702490938.040521,3.0,-4.0,3.0,69.0,23.0,3.0,1.0,1.0
1702490938.040521,-2.0,11.0,23.0,-24.0,-11.0,-9.0,-1.0,-2.0
1702490938.0507677,-10.0,-30.0,-19.0,34.0,-1.0,-5.0,-4.0,-4.0
1702490938.0507677,-13.0,-3.0,-17.0,6.0,-10.0,-1.0,-3.0,-2.0
1702490938.0708022,15.0,-6.0,-17.0,-30.0,-12.0,-3.0,-2.0,-2.0
1702490938.0708022,-19.0,3.0,-9.0,21.0,0.0,-1.0,2.0,-4.0
1702490938.0708022,5.0,-1.0,20.0,11.0,-3.0,-2.0,-1.0,4.0
1702490938.0708022,-7.0,-3.0,25.0,2.0,-6.0,-7.0,-2.0,-5.0
1702490938.0904837,-5.0,-5.0,-22.0,27.0,19.0,9.0,9.0,3.0
1702490938.0904837,8.0,0.0,2.0,-23.0,-2.0,-4.0,-11.0,-1.0
1702490938.0904837,6.0,4.0,-8.0,-19.0,-12.0,-7.0,-2.0,-6.0
1702490938.0904837,-11.0,-1.0,-9.0,1.0,8.0,-2.0,-2.0,-2.0
1702490938.1005206,11.0,-3.0,18.0,-23.0,5.0,7.0,3.0,-1.0
1702490938.1005206,11.0,-5.0,-2.0,39.0,6.0,4.0,4.0,4.0
1702490938.1104867,-4.0,8.0,-7.0,2.0,-6.0,-6.0,-5.0,-2.0
1702490938.1104867,3.0,-5.0,3.0,-32.0,-13.0,-5.0,-5.0,-3.0
1702490938.1207783,-20.0,2.0,-11.0,32.0,1.0,-6.0,-7.0,-6.0
1702490938.1207783,0.0,3.0,3.0,-18.0,2.0,9.0,7.0,-3.0
1702490938.1207783,12.0,-10.0,0.0,54.0,11.0,1.0,0.0,2.0
1702490938.1207783,-4.0,-3.0,-17.0,-6.0,-4.0,0.0,0.0,1.0
1702490938.140615,2.0,0.0,-3.0,2.0,4.0,-5.0,-2.0,2.0
1702490938.140615,4.0,-4.0,-18.0,-47.0,-23.0,-12.0,-3.0,-2.0
1702490938.150485,-7.0,4.0,19.0,22.0,7.0,0.0,-2.0,-3.0
1702490938.150485,-1.0,-3.0,-14.0,-32.0,-2.0,6.0,2.0,-3.0
1702490938.1604846,-2.0,-1.0,7.0,-2.0,-12.0,1.0,-3.0,-4.0
1702490938.1604846,5.0,-8.0,-14.0,-33.0,9.0,-6.0,9.0,0.0
1702490938.1705675,-11.0,9.0,5.0,-11.0,-6.0,-10.0,-3.0,0.0
1702490938.1705675,-6.0,-9.0,8.0,52.0,-5.0,-2.0,2.0,1.0
1702490938.1807935,-3.0,10.0,-5.0,-8.0,-4.0,1.0,-3.0,-5.0
1702490938.1807935,6.0,-7.0,-2.0,-6.0,2.0,5.0,1.0,-2.0
1702490938.1807935,-12.0,6.0,-14.0,-52.0,5.0,0.0,-3.0,-1.0
1702490938.1807935,-27.0,-23.0,-2.0,-6.0,0.0,0.0,-2.0,-7.0
1702490938.245148,-3.0,-14.0,-9.0,-27.0,-17.0,0.0,1.0,1.0
1702490938.245148,-3.0,7.0,3.0,16.0,5.0,-4.0,-8.0,0.0
1702490938.245148,3.0,-6.0,6.0,-19.0,8.0,1.0,-1.0,-2.0
1702490938.245148,3.0,10.0,4.0,21.0,7.0,3.0,0.0,1.0
1702490938.245148,0.0,-5.0,-12.0,-35.0,-19.0,-11.0,-7.0,-3.0
1702490938.245148,-1.0,-3.0,-5.0,0.0,14.0,2.0,-2.0,0.0
1702490938.245148,-20.0,-5.0,-3.0,26.0,-3.0,8.0,1.0,0.0
1702490938.245148,7.0,2.0,-4.0,-31.0,-9.0,-7.0,0.0,-3.0
1702490938.245148,2.0,2.0,26.0,25.0,-4.0,-3.0,0.0,2.0
1702490938.245148,9.0,0.0,-27.0,-8.0,-10.0,-5.0,-5.0,-1.0
1702490938.245148,10.0,-2.0,-11.0,-13.0,-17.0,0.0,1.0,-3.0
1702490938.245148,-4.0,6.0,6.0,-33.0,11.0,0.0,6.0,-2.0
1702490938.265417,7.0,-3.0,-24.0,-24.0,13.0,4.0,-3.0,4.0
1702490938.265417,-23.0,-3.0,17.0,56.0,6.0,6.0,0.0,-3.0
1702490938.265417,3.0,2.0,15.0,20.0,-1.0,-4.0,-3.0,-4.0
1702490938.265417,2.0,-15.0,-1.0,-1.0,-4.0,-6.0,2.0,3.0
1702490938.2755313,7.0,4.0,0.0,-5.0,3.0,8.0,1.0,1.0
1702490938.2755313,-31.0,-6.0,-9.0,-8.0,7.0,0.0,-5.0,-1.0
1702490938.2854993,2.0,5.0,-7.0,8.0,-6.0,0.0,-2.0,-1.0
1702490938.2854993,10.0,1.0,13.0,14.0,1.0,-6.0,-4.0,-1.0
1702490938.3054004,-2.0,8.0,16.0,62.0,-4.0,-7.0,-1.0,-1.0
1702490938.3054004,9.0,-5.0,-7.0,-44.0,-13.0,-6.0,-1.0,1.0
1702490938.3054004,-2.0,10.0,9.0,48.0,28.0,8.0,5.0,3.0
1702490938.3054004,-3.0,-7.0,-6.0,-9.0,-2.0,-2.0,-5.0,-3.0
1702490938.3251507,5.0,-1.0,13.0,19.0,10.0,-2.0,-2.0,-1.0
1702490938.3251507,16.0,9.0,-4.0,25.0,-18.0,-7.0,-2.0,-1.0
1702490938.3251507,-25.0,-6.0,23.0,-5.0,-2.0,-8.0,-2.0,0.0
1702490938.3251507,11.0,14.0,-15.0,2.0,6.0,14.0,0.0,2.0
1702490938.3351963,1.0,-5.0,1.0,-31.0,1.0,1.0,1.0,-3.0
1702490938.3351963,-30.0,-12.0,-10.0,4.0,-3.0,-5.0,-1.0,-7.0
1702490938.3453994,7.0,-3.0,11.0,4.0,-9.0,-7.0,-1.0,-1.0
1702490938.3453994,1.0,10.0,-15.0,22.0,-1.0,-2.0,-5.0,2.0
1702490938.3651538,-10.0,-12.0,-8.0,-21.0,-15.0,-3.0,-6.0,-2.0
1702490938.3651538,4.0,3.0,27.0,27.0,13.0,1.0,0.0,-1.0
1702490938.3651538,9.0,-9.0,-7.0,-26.0,-14.0,-1.0,5.0,-2.0
1702490938.3651538,-4.0,0.0,1.0,-2.0,-2.0,0.0,-2.0,1.0
1702490938.3951936,-10.0,-1.0,-12.0,-12.0,-4.0,-3.0,-1.0,-6.0
1702490938.3951936,31.0,7.0,13.0,-14.0,-7.0,-4.0,-2.0,8.0
1702490938.3951936,-4.0,9.0,-13.0,3.0,1.0,1.0,-2.0,-1.0
1702490938.3951936,-7.0,-16.0,0.0,-9.0,-6.0,-4.0,-2.0,-4.0
1702490938.3951936,-3.0,3.0,10.0,38.0,1.0,-6.0,-2.0,0.0
1702490938.3951936,-1.0,-14.0,-18.0,4.0,6.0,7.0,-4.0,-6.0
1702490938.4055288,13.0,6.0,-6.0,-30.0,-3.0,2.0,3.0,5.0
1702490938.4055288,4.0,2.0,10.0,48.0,0.0,-3.0,-4.0,-2.0
1702490938.425204,1.0,3.0,-9.0,-15.0,-7.0,-5.0,-2.0,-2.0
1702490938.425204,-8.0,3.0,-9.0,-14.0,-3.0,-2.0,-2.0,-1.0
1702490938.425204,0.0,-13.0,13.0,16.0,-3.0,-4.0,-5.0,-7.0
1702490938.425204,-6.0,2.0,9.0,-20.0,3.0,0.0,-2.0,-2.0
1702490938.4456303,-11.0,-13.0,-35.0,1.0,12.0,4.0,3.0,-5.0
1702490938.4456303,22.0,9.0,23.0,12.0,-9.0,3.0,11.0,8.0
1702490938.4456303,9.0,-2.0,-18.0,-52.0,-7.0,-12.0,-21.0,-8.0
1702490938.4456303,-4.0,5.0,9.0,4.0,6.0,2.0,3.0,6.0
1702490938.4555833,10.0,16.0,26.0,5.0,9.0,4.0,-1.0,1.0
1702490938.4555833,-21.0,-29.0,-33.0,-17.0,-6.0,-3.0,-5.0,-9.0
1702490938.4654696,6.0,-3.0,-15.0,-3.0,-7.0,1.0,9.0,-4.0
1702490938.4654696,-1.0,3.0,10.0,-19.0,-3.0,-2.0,-2.0,-1.0
1702490938.4852037,-8.0,-1.0,4.0,-13.0,-2.0,-2.0,-1.0,-1.0
1702490938.4852037,0.0,5.0,6.0,4.0,4.0,-1.0,-5.0,-4.0
1702490938.4852037,-3.0,-7.0,-1.0,45.0,-2.0,3.0,7.0,11.0
1702490938.4852037,4.0,0.0,-4.0,15.0,11.0,-5.0,-5.0,-3.0
1702490938.5052085,1.0,2.0,4.0,-23.0,-21.0,-8.0,-1.0,0.0
1702490938.5052085,19.0,1.0,4.0,15.0,17.0,-1.0,-3.0,-3.0
1702490938.5052085,-30.0,2.0,0.0,27.0,8.0,15.0,1.0,-1.0
1702490938.5052085,-8.0,5.0,-4.0,-7.0,5.0,4.0,4.0,2.0
1702490938.5154457,-2.0,-2.0,-3.0,-11.0,-3.0,0.0,2.0,-4.0
1702490938.5154457,-12.0,-13.0,-17.0,-23.0,-14.0,-12.0,-3.0,-4.0
1702490938.5254893,5.0,2.0,-10.0,-21.0,-18.0,-12.0,-3.0,0.0
1702490938.5254893,8.0,4.0,6.0,20.0,4.0,-1.0,-2.0,0.0
1702490938.5454423,0.0,-6.0,3.0,-1.0,4.0,0.0,-1.0,1.0
1702490938.5454423,-6.0,16.0,8.0,10.0,6.0,1.0,2.0,2.0
1702490938.5454423,0.0,-4.0,1.0,8.0,2.0,-7.0,-8.0,-2.0
1702490938.5454423,2.0,11.0,11.0,3.0,-11.0,-4.0,-5.0,-3.0
1702490938.5653539,-15.0,-58.0,-61.0,-16.0,3.0,0.0,-7.0,-5.0
1702490938.5653539,-7.0,17.0,17.0,11.0,-2.0,3.0,-2.0,-1.0
1702490938.5653539,5.0,4.0,11.0,-25.0,2.0,-1.0,-2.0,-1.0
1702490938.5653539,23.0,32.0,4.0,11.0,0.0,3.0,9.0,1.0
1702490938.5754333,-8.0,-2.0,15.0,-1.0,9.0,3.0,-3.0,6.0
1702490938.5754333,-15.0,-6.0,4.0,-19.0,-14.0,2.0,7.0,0.0
1702490938.5854514,1.0,-9.0,-12.0,-28.0,9.0,4.0,10.0,-3.0
1702490938.5854514,6.0,-2.0,-14.0,-9.0,-6.0,-1.0,-16.0,-4.0
1702490938.605211,4.0,14.0,4.0,-2.0,3.0,3.0,6.0,2.0
1702490938.605211,5.0,-9.0,-8.0,-9.0,-17.0,-7.0,3.0,-1.0
1702490938.605211,4.0,9.0,5.0,-19.0,0.0,-2.0,-2.0,1.0
1702490938.605211,-15.0,-26.0,-24.0,-11.0,-8.0,-2.0,1.0,-4.0
1702490938.645207,11.0,24.0,6.0,3.0,-3.0,3.0,15.0,2.0
1702490938.645207,-13.0,-9.0,-4.0,20.0,10.0,-1.0,-16.0,-2.0
1702490938.645207,16.0,-1.0,-1.0,-19.0,4.0,4.0,-3.0,0.0
1702490938.645207,2.0,-15.0,-6.0,-7.0,-6.0,-7.0,-1.0,-4.0
1702490938.645207,-44.0,11.0,24.0,17.0,8.0,10.0,0.0,-1.0
1702490938.645207,18.0,2.0,-10.0,33.0,3.0,-2.0,6.0,5.0
1702490938.655206,3.0,-6.0,-2.0,3.0,-3.0,-8.0,-2.0,-6.0
1702490938.655206,-3.0,2.0,2.0,-15.0,-3.0,-5.0,2.0,-1.0
1702490938.6652088,6.0,-10.0,-4.0,7.0,-7.0,-8.0,1.0,-3.0
1702490938.6652088,1.0,4.0,8.0,-36.0,-15.0,1.0,2.0,-2.0
1702490938.6652088,-5.0,-10.0,-10.0,24.0,5.0,2.0,-9.0,3.0
1702490938.6652088,-5.0,1.0,3.0,14.0,11.0,0.0,-1.0,0.0
1702490938.685504,5.0,-5.0,-14.0,-9.0,-8.0,-8.0,-7.0,-3.0
1702490938.685504,3.0,18.0,0.0,-15.0,-10.0,-3.0,-2.0,-1.0
1702490938.685504,2.0,-47.0,-29.0,0.0,6.0,-5.0,0.0,-3.0
1702490938.685504,-14.0,3.0,6.0,-2.0,-4.0,3.0,0.0,-1.0
1702490938.7256005,13.0,0.0,0.0,31.0,17.0,7.0,9.0,2.0
1702490938.7256005,4.0,2.0,1.0,5.0,-3.0,2.0,-18.0,-1.0
1702490938.7256005,5.0,17.0,21.0,10.0,-2.0,-5.0,-2.0,-4.0
1702490938.7256005,-5.0,-10.0,-13.0,-3.0,-2.0,7.0,2.0,10.0
1702490938.7256005,1.0,-1.0,-10.0,-11.0,-13.0,-7.0,-3.0,-3.0
1702490938.7256005,0.0,-7.0,2.0,-3.0,7.0,-4.0,2.0,-6.0
1702490938.727889,5.0,10.0,1.0,-5.0,3.0,16.0,4.0,7.0
1702490938.727889,-7.0,-9.0,1.0,5.0,0.0,-5.0,-7.0,-6.0
1702490938.7482638,9.0,6.0,11.0,-1.0,-7.0,-8.0,-13.0,-2.0
1702490938.7482638,-2.0,-6.0,-5.0,13.0,-6.0,-1.0,6.0,-1.0
1702490938.7482638,-7.0,8.0,4.0,-39.0,-3.0,-1.0,9.0,-3.0
1702490938.7482638,14.0,0.0,6.0,19.0,19.0,3.0,-11.0,0.0
1702490938.7682626,-29.0,-1.0,-2.0,1.0,-4.0,-4.0,-7.0,-3.0
1702490938.7682626,6.0,18.0,33.0,18.0,8.0,4.0,-1.0,1.0
1702490938.7682626,-22.0,-33.0,-35.0,-9.0,-2.0,1.0,-4.0,-5.0
1702490938.7682626,-2.0,-1.0,0.0,-10.0,-4.0,7.0,3.0,-2.0
1702490938.7785175,-1.0,1.0,-8.0,-34.0,-15.0,-6.0,-6.0,-5.0
1702490938.7785175,-1.0,0.0,-2.0,29.0,20.0,3.0,-1.0,2.0
1702490938.7882679,-3.0,16.0,21.0,-1.0,-8.0,-4.0,-2.0,0.0
1702490938.7882679,12.0,-8.0,-6.0,3.0,-2.0,-1.0,4.0,-4.0
1702490938.808491,-17.0,1.0,-1.0,-3.0,1.0,4.0,16.0,6.0
1702490938.808491,-10.0,-12.0,-6.0,-10.0,-4.0,2.0,-17.0,1.0
1702490938.808491,-18.0,8.0,-2.0,-3.0,-5.0,-4.0,-8.0,0.0
1702490938.808491,9.0,-2.0,-3.0,22.0,-8.0,-13.0,-3.0,-2.0
1702490938.845778,-4.0,-3.0,8.0,24.0,12.0,5.0,0.0,-6.0
1702490938.845778,-1.0,-1.0,-9.0,-29.0,-1.0,6.0,6.0,2.0
1702490938.85579,2.0,6.0,4.0,22.0,5.0,-2.0,5.0,1.0
1702490938.85579,-7.0,-6.0,-8.0,-39.0,-11.0,-3.0,2.0,0.0
1702490938.85579,6.0,1.0,-4.0,3.0,-9.0,-6.0,-14.0,-7.0
1702490938.85579,7.0,-1.0,5.0,19.0,9.0,3.0,2.0,1.0
1702490938.85579,-10.0,-6.0,5.0,37.0,13.0,1.0,-5.0,-3.0
1702490938.85579,2.0,6.0,9.0,-5.0,-8.0,-2.0,5.0,2.0
1702490938.8757882,18.0,-1.0,-17.0,-7.0,-4.0,-3.0,-6.0,2.0
1702490938.8757882,-9.0,-4.0,4.0,12.0,-11.0,-4.0,4.0,-7.0
1702490938.8757882,-2.0,5.0,-10.0,-32.0,-6.0,0.0,-2.0,-3.0
1702490938.8757882,19.0,7.0,11.0,13.0,7.0,5.0,13.0,4.0
1702490938.8859916,-2.0,-12.0,-18.0,6.0,9.0,0.0,-1.0,-2.0
1702490938.8859916,3.0,-10.0,0.0,-34.0,-7.0,-3.0,1.0,-2.0
1702490938.8859916,-4.0,2.0,-5.0,12.0,-16.0,-7.0,-2.0,0.0
1702490938.8859916,-3.0,-2.0,1.0,-5.0,-4.0,-3.0,-6.0,-4.0
1702490938.905795,27.0,5.0,8.0,-26.0,-10.0,-4.0,-8.0,1.0
1702490938.905795,-20.0,-4.0,-9.0,6.0,13.0,5.0,11.0,-4.0
1702490938.905795,5.0,-4.0,0.0,-3.0,-3.0,3.0,1.0,3.0
1702490938.905795,-14.0,-6.0,-7.0,0.0,7.0,0.0,-2.0,-1.0
1702490938.9260197,14.0,2.0,15.0,-20.0,-7.0,-7.0,15.0,1.0
1702490938.9260197,7.0,-6.0,-14.0,3.0,1.0,-2.0,2.0,3.0
1702490938.9260197,-4.0,2.0,5.0,-2.0,-2.0,-5.0,-17.0,-5.0
1702490938.9260197,-5.0,-3.0,-1.0,1.0,0.0,-2.0,-13.0,-7.0
1702490938.9657896,-29.0,2.0,-4.0,-5.0,7.0,4.0,5.0,3.0
1702490938.9657896,5.0,0.0,1.0,-22.0,-7.0,-5.0,3.0,2.0
1702490938.9657896,6.0,-1.0,-3.0,0.0,1.0,1.0,-14.0,-2.0
1702490938.9657896,-28.0,0.0,-4.0,-12.0,-5.0,5.0,5.0,-4.0
1702490938.9657896,4.0,-3.0,3.0,39.0,6.0,0.0,-15.0,-5.0
1702490938.9657896,-15.0,-3.0,-11.0,-18.0,-3.0,-9.0,-7.0,-8.0
1702490938.9757895,13.0,6.0,10.0,12.0,5.0,1.0,6.0,7.0
1702490938.9757895,8.0,-2.0,-14.0,-34.0,-1.0,-5.0,-7.0,0.0
1702490938.9957883,2.0,-2.0,8.0,32.0,11.0,2.0,-1.0,0.0
1702490938.9957883,-7.0,-2.0,-5.0,-15.0,-8.0,-1.0,-3.0,0.0
1702490938.9957883,6.0,-3.0,2.0,7.0,2.0,1.0,7.0,0.0
1702490938.9957883,-7.0,-4.0,11.0,-34.0,0.0,-3.0,0.0,-2.0
1702490939.0061195,8.0,-4.0,-13.0,18.0,4.0,3.0,4.0,2.0
1702490939.0061195,5.0,-4.0,2.0,8.0,-17.0,-6.0,-6.0,-1.0
1702490939.0061195,1.0,2.0,-4.0,-24.0,6.0,0.0,4.0,-2.0
1702490939.0061195,2.0,2.0,5.0,4.0,0.0,0.0,-5.0,1.0
1702490939.016078,3.0,1.0,-10.0,-5.0,-6.0,0.0,-3.0,0.0
1702490939.016078,8.0,4.0,19.0,16.0,6.0,3.0,2.0,-2.0
1702490939.0459824,-21.0,0.0,-12.0,-4.0,-3.0,0.0,1.0,-1.0
1702490939.0459824,-5.0,-13.0,-2.0,17.0,-4.0,-5.0,10.0,-2.0
1702490939.0459824,2.0,1.0,9.0,-13.0,-5.0,-4.0,-14.0,-3.0
1702490939.0459824,10.0,6.0,-12.0,-1.0,8.0,1.0,-6.0,1.0
1702490939.0459824,1.0,5.0,5.0,-17.0,-8.0,1.0,22.0,2.0
1702490939.0459824,9.0,3.0,6.0,44.0,9.0,-1.0,-4.0,1.0
1702490939.076133,-4.0,1.0,6.0,2.0,0.0,3.0,5.0,2.0
1702490939.076133,-7.0,-1.0,11.0,-2.0,-9.0,-5.0,-3.0,-1.0
1702490939.076133,-4.0,-8.0,-9.0,13.0,-4.0,-1.0,-2.0,-4.0
1702490939.076133,-10.0,1.0,-7.0,-1.0,-3.0,-1.0,1.0,-3.0
1702490939.076133,20.0,1.0,-11.0,-46.0,-9.0,-6.0,-3.0,0.0
1702490939.076133,-25.0,10.0,17.0,54.0,13.0,5.0,3.0,4.0
1702490939.0860176,-1.0,-11.0,-17.0,-4.0,-6.0,-5.0,-6.0,-2.0
1702490939.0860176,3.0,3.0,8.0,-17.0,-9.0,-4.0,-1.0,-2.0
1702490939.1257915,4.0,3.0,11.0,37.0,6.0,0.0,4.0,-1.0
1702490939.1257915,-28.0,2.0,-9.0,-36.0,4.0,4.0,5.0,0.0
1702490939.1257915,3.0,-13.0,-14.0,16.0,2.0,2.0,2.0,-1.0
1702490939.1257915,-9.0,-8.0,-13.0,-17.0,0.0,-2.0,-3.0,-2.0
1702490939.1257915,5.0,4.0,9.0,2.0,4.0,-1.0,-2.0,1.0
1702490939.1257915,-8.0,-2.0,-13.0,23.0,-2.0,2.0,5.0,-3.0
1702490939.1257915,1.0,8.0,14.0,-19.0,7.0,1.0,-6.0,-2.0
1702490939.1257915,0.0,-2.0,-2.0,-26.0,-6.0,-7.0,-4.0,-3.0
1702490939.1361024,-11.0,-4.0,1.0,-18.0,-13.0,-2.0,-3.0,-4.0
1702490939.1361024,11.0,-9.0,-20.0,-44.0,-11.0,-9.0,-7.0,-1.0
1702490939.1457915,-5.0,6.0,22.0,8.0,14.0,3.0,3.0,-1.0
1702490939.1457915,14.0,-4.0,-5.0,-11.0,-2.0,4.0,-4.0,5.0
1702490939.1660924,-6.0,7.0,17.0,7.0,-4.0,-4.0,-6.0,-4.0
1702490939.1660924,1.0,-17.0,-40.0,-39.0,-7.0,-8.0,-7.0,-4.0
1702490939.1857924,2.0,1.0,4.0,-2.0,-17.0,-9.0,-4.0,-4.0
1702490939.1857924,-6.0,-12.0,-5.0,14.0,5.0,1.0,3.0,-1.0
1702490939.1857924,-10.0,3.0,5.0,-4.0,-8.0,-4.0,-8.0,-1.0
1702490939.1857924,12.0,4.0,12.0,36.0,6.0,4.0,16.0,4.0
1702490939.1857924,-1.0,4.0,3.0,-19.0,-3.0,1.0,-4.0,0.0
1702490939.1857924,5.0,1.0,-4.0,22.0,7.0,3.0,-1.0,-3.0
1702490939.2157893,-3.0,-2.0,-5.0,-2.0,2.0,-4.0,-3.0,-3.0
1702490939.2157893,6.0,-12.0,-8.0,15.0,-1.0,5.0,5.0,2.0
1702490939.2157893,8.0,2.0,-8.0,-32.0,-7.0,-4.0,-5.0,-3.0
1702490939.2157893,-25.0,1.0,7.0,45.0,-16.0,-2.0,12.0,-2.0
1702490939.226092,-7.0,2.0,-22.0,-19.0,8.0,4.0,-1.0,-2.0
1702490939.226092,4.0,-8.0,19.0,-24.0,-4.0,-4.0,-2.0,-3.0
1702490939.226092,5.0,0.0,-10.0,10.0,3.0,1.0,-6.0,4.0
1702490939.226092,-2.0,-1.0,-10.0,1.0,-7.0,-3.0,-2.0,-1.0
1702490939.2473698,-7.0,-8.0,-3.0,-7.0,14.0,10.0,6.0,-1.0
1702490939.2473698,6.0,5.0,4.0,-12.0,-8.0,-2.0,-4.0,-2.0
1702490939.2473698,-15.0,2.0,21.0,29.0,-6.0,-4.0,1.0,-3.0
1702490939.2473698,-2.0,0.0,-17.0,-25.0,-6.0,-4.0,-5.0,-2.0
1702490939.267917,4.0,-7.0,-2.0,59.0,16.0,4.0,20.0,4.0
1702490939.267917,14.0,16.0,7.0,8.0,19.0,5.0,-7.0,2.0
1702490939.2851315,-13.0,-16.0,-17.0,-8.0,0.0,-5.0,0.0,-2.0
1702490939.2851315,1.0,10.0,7.0,-18.0,-12.0,-8.0,-10.0,-5.0
1702490939.2851315,0.0,-3.0,8.0,-8.0,-2.0,-4.0,-1.0,2.0
1702490939.2851315,-3.0,15.0,-6.0,-34.0,-5.0,-1.0,2.0,-5.0
1702490939.2951808,20.0,-31.0,-29.0,37.0,6.0,5.0,3.0,2.0
1702490939.2951808,-1.0,-8.0,-4.0,-30.0,-1.0,4.0,3.0,-1.0
1702490939.3054297,-2.0,-8.0,6.0,61.0,-5.0,-2.0,-6.0,-2.0
1702490939.3054297,-7.0,-8.0,-4.0,18.0,-7.0,-7.0,0.0,0.0
1702490939.3054297,-19.0,20.0,21.0,24.0,-3.0,-2.0,-6.0,-2.0
1702490939.3054297,-1.0,0.0,-6.0,25.0,4.0,1.0,15.0,0.0
1702490939.3351276,1.0,-7.0,-21.0,-25.0,-1.0,-2.0,-11.0,-3.0
1702490939.3351276,2.0,0.0,10.0,23.0,8.0,3.0,2.0,1.0
1702490939.3451402,7.0,1.0,8.0,2.0,-3.0,-6.0,-2.0,-2.0
1702490939.3451402,9.0,0.0,1.0,-7.0,-6.0,-4.0,-4.0,-1.0
1702490939.3555322,-1.0,3.0,0.0,-43.0,-8.0,-2.0,10.0,0.0
1702490939.3555322,10.0,-2.0,-27.0,10.0,-3.0,-8.0,-10.0,-3.0
1702490939.3555322,3.0,2.0,25.0,-40.0,-10.0,-1.0,3.0,-3.0
1702490939.3555322,0.0,3.0,2.0,43.0,20.0,1.0,-5.0,1.0
1702490939.3654735,3.0,5.0,10.0,-15.0,-9.0,-3.0,-2.0,-1.0
1702490939.3654735,1.0,-9.0,-4.0,-19.0,11.0,2.0,-6.0,-3.0
1702490939.3654735,-2.0,7.0,6.0,26.0,8.0,-2.0,-1.0,-1.0
1702490939.3654735,2.0,-2.0,-9.0,-37.0,-7.0,-5.0,2.0,0.0
1702490939.3851278,-3.0,-3.0,-2.0,-77.0,-11.0,-2.0,-15.0,-2.0
1702490939.3851278,-10.0,-2.0,2.0,9.0,-14.0,-7.0,-7.0,-4.0
1702490939.3951306,1.0,-1.0,-22.0,11.0,-3.0,-1.0,-5.0,2.0
1702490939.3951306,-6.0,-3.0,7.0,-42.0,-9.0,0.0,6.0,-1.0
1702490939.4158902,7.0,5.0,-17.0,-28.0,-9.0,0.0,-5.0,-1.0
1702490939.4158902,-14.0,1.0,8.0,8.0,7.0,0.0,0.0,2.0
1702490939.4158902,-8.0,4.0,4.0,-58.0,-13.0,0.0,2.0,-1.0
1702490939.4158902,2.0,-29.0,-12.0,10.0,7.0,7.0,-7.0,-3.0
1702490939.4259703,13.0,1.0,-16.0,-8.0,-6.0,-5.0,3.0,0.0
1702490939.4259703,-3.0,-2.0,15.0,44.0,-4.0,-4.0,-9.0,-5.0
1702490939.4259703,10.0,4.0,-14.0,-17.0,-10.0,3.0,7.0,-1.0
1702490939.4259703,-21.0,11.0,3.0,16.0,22.0,5.0,-6.0,0.0
1702490939.4456296,-5.0,-4.0,8.0,62.0,11.0,3.0,-4.0,-4.0
1702490939.4456296,-3.0,1.0,6.0,14.0,18.0,-1.0,1.0,-1.0
1702490939.4456296,2.0,-7.0,-11.0,-22.0,-1.0,-2.0,1.0,1.0
1702490939.4556394,12.0,2.0,-6.0,18.0,-9.0,-3.0,-18.0,-1.0
1702490939.465925,-6.0,2.0,-9.0,21.0,-3.0,0.0,-3.0,-2.0
1702490939.465925,-3.0,-16.0,-1.0,-58.0,-17.0,-4.0,6.0,1.0
1702490939.465925,-8.0,-1.0,-2.0,-16.0,11.0,5.0,-10.0,-6.0
1702490939.465925,-5.0,6.0,4.0,23.0,7.0,4.0,11.0,-4.0
1702490939.5056295,2.0,0.0,-15.0,-43.0,-9.0,-5.0,-10.0,1.0
1702490939.5056295,4.0,-3.0,33.0,1.0,-2.0,-1.0,1.0,1.0
1702490939.5056295,-1.0,0.0,-1.0,49.0,17.0,7.0,17.0,2.0
1702490939.5056295,0.0,5.0,4.0,-66.0,-23.0,8.0,16.0,1.0
1702490939.5056295,-1.0,-23.0,-14.0,38.0,4.0,-8.0,-1.0,-4.0
1702490939.5056295,-21.0,11.0,32.0,16.0,-5.0,-10.0,-9.0,-1.0
1702490939.5056295,5.0,-14.0,-50.0,3.0,6.0,0.0,-6.0,-5.0
1702490939.5056295,7.0,5.0,-9.0,14.0,-5.0,-4.0,-6.0,-1.0
1702490939.5260298,-3.0,5.0,16.0,-22.0,-11.0,2.0,3.0,-1.0
1702490939.5260298,9.0,-4.0,-13.0,-34.0,-7.0,-4.0,-2.0,2.0
1702490939.5260298,2.0,6.0,8.0,40.0,-4.0,-7.0,11.0,0.0
1702490939.5260298,0.0,0.0,1.0,20.0,23.0,9.0,-18.0,5.0
1702490939.545631,-8.0,-3.0,7.0,-9.0,-4.0,4.0,5.0,-2.0
1702490939.545631,3.0,3.0,-2.0,-40.0,-5.0,-3.0,-1.0,-3.0
1702490939.545631,-6.0,-2.0,9.0,26.0,-2.0,-5.0,0.0,-2.0
1702490939.545631,3.0,-2.0,-5.0,-6.0,-13.0,-5.0,-6.0,-1.0
1702490939.5558047,-8.0,2.0,6.0,-5.0,2.0,5.0,4.0,0.0
1702490939.5558047,0.0,1.0,-20.0,1.0,-6.0,1.0,3.0,-2.0
1702490939.5656428,6.0,11.0,29.0,-18.0,-11.0,-2.0,-6.0,3.0
1702490939.5656428,-2.0,-4.0,-9.0,-6.0,-5.0,-11.0,-4.0,-4.0
1702490939.5859642,-2.0,1.0,28.0,10.0,2.0,-5.0,-29.0,-4.0
1702490939.5859642,-2.0,0.0,13.0,-30.0,-5.0,2.0,1.0,-1.0
1702490939.5859642,16.0,-12.0,-34.0,-14.0,-10.0,11.0,-1.0,0.0
1702490939.5859642,-65.0,25.0,61.0,28.0,-2.0,-17.0,-5.0,-2.0
1702490939.6056328,-3.0,-18.0,-79.0,-19.0,-7.0,-12.0,6.0,0.0
1702490939.6056328,10.0,2.0,-46.0,-61.0,-1.0,10.0,18.0,1.0
1702490939.6056328,6.0,17.0,91.0,84.0,32.0,17.0,-4.0,4.0
1702490939.6056328,16.0,-13.0,-52.0,-30.0,15.0,1.0,-10.0,1.0
1702490939.6256363,1.0,20.0,27.0,-4.0,-3.0,0.0,3.0,-3.0
1702490939.6256363,-6.0,11.0,14.0,52.0,5.0,-3.0,-19.0,1.0
1702490939.6256363,-9.0,-29.0,-39.0,7.0,-2.0,-8.0,-7.0,-5.0
1702490939.6256363,9.0,-4.0,10.0,-27.0,-1.0,9.0,9.0,0.0
1702490939.6458192,0.0,12.0,19.0,61.0,12.0,-3.0,-2.0,-1.0
1702490939.6458192,7.0,-15.0,-22.0,-26.0,-21.0,-9.0,-10.0,-3.0
1702490939.6458192,-6.0,14.0,23.0,13.0,24.0,4.0,-4.0,-2.0
1702490939.6458192,1.0,-27.0,-25.0,-36.0,-12.0,-5.0,-11.0,-7.0
1702490939.6658149,4.0,-7.0,-9.0,-40.0,-13.0,-2.0,9.0,1.0
1702490939.6658149,-25.0,12.0,1.0,68.0,5.0,8.0,4.0,-2.0
1702490939.6658149,-7.0,-6.0,-16.0,-57.0,-27.0,-17.0,-7.0,-4.0
1702490939.6658149,1.0,12.0,32.0,-17.0,-2.0,5.0,11.0,4.0
1702490939.6758137,7.0,1.0,-44.0,7.0,10.0,10.0,35.0,3.0
1702490939.6758137,5.0,3.0,18.0,-6.0,4.0,1.0,1.0,3.0
1702490939.715633,-12.0,-3.0,33.0,7.0,10.0,-1.0,-15.0,-4.0
1702490939.715633,11.0,1.0,-72.0,14.0,-12.0,-9.0,-2.0,-3.0
1702490939.715633,-1.0,4.0,24.0,9.0,0.0,0.0,11.0,1.0
1702490939.715633,8.0,-9.0,8.0,11.0,-9.0,-11.0,-10.0,1.0
1702490939.715633,-9.0,4.0,43.0,-22.0,-3.0,4.0,4.0,-5.0
1702490939.715633,7.0,2.0,-21.0,-1.0,-2.0,-9.0,1.0,-1.0
1702490939.7356339,4.0,7.0,0.0,15.0,13.0,15.0,3.0,5.0
1702490939.7356339,-8.0,-26.0,-25.0,16.0,8.0,-10.0,-5.0,-5.0
1702490939.745633,-5.0,-38.0,-65.0,-12.0,-12.0,-1.0,-6.0,-5.0
1702490939.745633,3.0,18.0,64.0,-4.0,0.0,3.0,13.0,-2.0
1702490939.745633,-5.0,1.0,35.0,0.0,0.0,-10.0,-6.0,-1.0
1702490939.745633,4.0,9.0,0.0,40.0,4.0,10.0,1.0,-1.0
1702490939.745633,11.0,-14.0,-55.0,-61.0,-9.0,-10.0,0.0,3.0
1702490939.745633,-1.0,-1.0,80.0,54.0,15.0,5.0,-3.0,0.0
1702490939.775631,-2.0,-4.0,-70.0,-41.0,-9.0,-4.0,-2.0,-4.0
1702490939.775631,7.0,14.0,42.0,-39.0,-5.0,-1.0,2.0,-4.0
1702490939.775631,9.0,3.0,-6.0,-48.0,-4.0,-5.0,2.0,2.0
1702490939.775631,-2.0,-15.0,-14.0,4.0,-2.0,-2.0,0.0,-1.0
1702490939.790582,-20.0,0.0,36.0,-20.0,-3.0,-1.0,-12.0,-5.0
1702490939.790582,-3.0,0.0,5.0,-13.0,4.0,4.0,-8.0,-3.0
1702490939.7922182,-13.0,-4.0,-31.0,-2.0,-12.0,-2.0,-3.0,-3.0
1702490939.7922182,7.0,-5.0,-5.0,22.0,-3.0,9.0,-5.0,-1.0
1702490939.8137877,0.0,-6.0,-28.0,19.0,-6.0,-18.0,-18.0,-1.0
1702490939.8137877,4.0,-3.0,12.0,0.0,14.0,12.0,14.0,2.0
1702490939.8137877,0.0,35.0,49.0,9.0,-6.0,-7.0,-1.0,2.0
1702490939.8137877,-13.0,-26.0,-54.0,-47.0,-10.0,0.0,2.0,-6.0
1702490939.853785,9.0,2.0,40.0,-18.0,-3.0,-2.0,-14.0,2.0
1702490939.853785,-3.0,-4.0,-3.0,17.0,2.0,-5.0,-1.0,-2.0
1702490939.853785,10.0,40.0,14.0,13.0,6.0,1.0,-2.0,4.0
1702490939.853785,-7.0,-20.0,-59.0,-86.0,-13.0,-10.0,-8.0,-8.0
1702490939.853785,-18.0,-13.0,10.0,8.0,4.0,13.0,12.0,0.0
1702490939.853785,-8.0,-6.0,-24.0,-61.0,-1.0,5.0,5.0,5.0
1702490939.853785,-17.0,0.0,15.0,-20.0,-11.0,-9.0,8.0,-1.0
1702490939.853785,7.0,22.0,19.0,48.0,11.0,-5.0,-13.0,5.0
1702490939.8738282,0.0,-10.0,-5.0,26.0,3.0,-8.0,-5.0,-5.0
1702490939.8738282,0.0,5.0,11.0,-21.0,-12.0,1.0,2.0,-3.0
1702490939.8738282,-2.0,-16.0,-66.0,22.0,10.0,6.0,-17.0,-6.0
1702490939.8738282,7.0,13.0,20.0,1.0,0.0,1.0,-5.0,-1.0
1702490939.8841152,2.0,-6.0,11.0,3.0,-9.0,-3.0,4.0,-1.0
1702490939.8841152,0.0,-2.0,5.0,6.0,0.0,0.0,-1.0,-3.0
1702490939.893825,5.0,-4.0,7.0,38.0,10.0,-3.0,2.0,3.0
1702490939.893825,5.0,0.0,21.0,18.0,-4.0,-4.0,-7.0,-3.0
1702490939.9037967,2.0,1.0,-25.0,19.0,4.0,1.0,-3.0,0.0
1702490939.9037967,6.0,5.0,15.0,-5.0,1.0,-6.0,-5.0,-3.0
1702490939.9037967,-9.0,-5.0,-27.0,-5.0,-10.0,-5.0,7.0,-2.0
1702490939.9037967,5.0,-18.0,-11.0,4.0,-4.0,-1.0,5.0,-1.0
1702490939.933822,-32.0,9.0,16.0,-9.0,-7.0,1.0,5.0,-1.0
1702490939.933822,2.0,-24.0,1.0,-13.0,-1.0,-3.0,-6.0,-3.0
1702490939.933822,-31.0,1.0,-34.0,-15.0,-12.0,-6.0,-5.0,0.0
1702490939.933822,2.0,14.0,9.0,27.0,12.0,6.0,5.0,2.0
1702490939.9437842,12.0,-2.0,-14.0,-45.0,2.0,4.0,-2.0,0.0
1702490939.9437842,-18.0,3.0,-6.0,6.0,-3.0,-3.0,5.0,-3.0
1702490939.954068,9.0,8.0,76.0,21.0,8.0,4.0,-6.0,1.0
1702490939.954068,-8.0,-20.0,-78.0,-43.0,-10.0,-6.0,-9.0,-4.0
1702490939.964302,3.0,2.0,15.0,-8.0,6.0,28.0,7.0,-1.0
1702490939.964302,-1.0,-8.0,-25.0,65.0,0.0,-25.0,4.0,-1.0
1702490939.9741302,12.0,6.0,43.0,2.0,2.0,2.0,2.0,2.0
1702490939.9741302,-4.0,6.0,-8.0,-13.0,-6.0,-11.0,-1.0,-2.0
1702490940.014091,24.0,-17.0,-14.0,30.0,2.0,-1.0,-9.0,-4.0
1702490940.014091,0.0,-8.0,-74.0,-4.0,-4.0,8.0,-4.0,0.0
1702490940.014091,14.0,-6.0,-13.0,-26.0,3.0,-1.0,1.0,-1.0
1702490940.014091,0.0,-2.0,48.0,-2.0,-12.0,-5.0,13.0,-1.0
1702490940.014091,11.0,2.0,-23.0,-33.0,-9.0,-10.0,-6.0,0.0
1702490940.014091,1.0,1.0,22.0,33.0,-7.0,-7.0,0.0,1.0
1702490940.014091,-1.0,5.0,31.0,36.0,15.0,1.0,-1.0,-2.0
1702490940.014091,-1.0,1.0,-3.0,21.0,7.0,12.0,7.0,-1.0
1702490940.0241199,-10.0,7.0,40.0,16.0,6.0,-7.0,-1.0,1.0
1702490940.0241199,7.0,3.0,50.0,11.0,8.0,5.0,-3.0,0.0
1702490940.0241199,1.0,-9.0,-56.0,-55.0,-13.0,3.0,0.0,0.0
1702490940.0241199,0.0,9.0,8.0,89.0,19.0,-3.0,-11.0,1.0
1702490940.0540907,-11.0,-9.0,-9.0,-26.0,-15.0,6.0,0.0,-4.0
1702490940.0540907,-1.0,-3.0,-10.0,-14.0,1.0,-2.0,5.0,2.0
1702490940.0540907,0.0,15.0,38.0,-4.0,1.0,4.0,1.0,-4.0
1702490940.0540907,19.0,9.0,27.0,7.0,13.0,6.0,5.0,7.0
1702490940.0641139,-41.0,-12.0,-48.0,-35.0,-11.0,-11.0,-9.0,-5.0
1702490940.0641139,-2.0,1.0,-57.0,-9.0,0.0,-2.0,-10.0,-3.0
1702490940.074096,4.0,-9.0,21.0,-3.0,3.0,26.0,-4.0,-4.0
1702490940.074096,1.0,15.0,4.0,7.0,-2.0,-24.0,0.0,0.0
1702490940.0841286,11.0,1.0,24.0,11.0,-12.0,-5.0,22.0,1.0
1702490940.0841286,2.0,-1.0,-2.0,-5.0,1.0,0.0,2.0,5.0
1702490940.0841286,-6.0,11.0,3.0,-14.0,-5.0,-18.0,-2.0,1.0
1702490940.0841286,-9.0,-11.0,22.0,-16.0,-6.0,3.0,-12.0,-5.0
1702490940.1143112,14.0,16.0,-7.0,-24.0,-12.0,0.0,-3.0,1.0
1702490940.1143112,-4.0,1.0,6.0,-38.0,-6.0,8.0,1.0,-2.0
1702490940.1143112,6.0,-28.0,-16.0,-33.0,-9.0,-4.0,-1.0,6.0
1702490940.1143112,-1.0,0.0,-42.0,-13.0,2.0,2.0,2.0,1.0
1702490940.1243007,-2.0,-8.0,-4.0,-17.0,0.0,-8.0,-7.0,-4.0
1702490940.1243007,18.0,8.0,24.0,5.0,9.0,11.0,26.0,-5.0
1702490940.1343703,-27.0,-13.0,-54.0,35.0,0.0,-8.0,-23.0,-3.0
1702490940.1343703,-4.0,5.0,87.0,-19.0,1.0,2.0,3.0,0.0
1702490940.1443973,8.0,6.0,24.0,11.0,4.0,-1.0,-5.0,1.0
1702490940.1443973,7.0,9.0,-24.0,-11.0,-8.0,-2.0,-3.0,-2.0
1702490940.1840904,2.0,-3.0,-24.0,20.0,-10.0,-8.0,4.0,-2.0
1702490940.1840904,-10.0,16.0,3.0,-40.0,-8.0,0.0,-1.0,-6.0
1702490940.1840904,13.0,5.0,69.0,71.0,30.0,14.0,1.0,2.0
1702490940.1840904,-3.0,-6.0,0.0,-20.0,-4.0,-10.0,-9.0,4.0
1702490940.1840904,-1.0,-6.0,52.0,59.0,6.0,1.0,3.0,-5.0
1702490940.1840904,-1.0,-11.0,-21.0,-35.0,-4.0,8.0,-1.0,2.0
1702490940.1840904,-5.0,-4.0,-26.0,-12.0,-1.0,-14.0,-7.0,-7.0
1702490940.1840904,-6.0,10.0,19.0,-4.0,-11.0,-16.0,-7.0,-3.0
1702490940.194431,19.0,-6.0,11.0,48.0,-1.0,-4.0,-8.0,-2.0
1702490940.194431,7.0,7.0,29.0,26.0,19.0,16.0,18.0,5.0
1702490940.2044177,6.0,-7.0,7.0,-17.0,7.0,8.0,-11.0,2.0
1702490940.2044177,14.0,2.0,-15.0,39.0,1.0,1.0,-8.0,1.0
1702490940.2044177,-13.0,2.0,22.0,-1.0,1.0,2.0,1.0,-4.0
1702490940.2044177,-3.0,-7.0,9.0,-25.0,-19.0,-6.0,-4.0,-1.0
1702490940.2341006,3.0,6.0,-15.0,32.0,-5.0,-12.0,0.0,-2.0
1702490940.2341006,-1.0,-6.0,1.0,-28.0,5.0,10.0,1.0,-2.0
1702490940.2341006,8.0,-4.0,-21.0,-32.0,3.0,-7.0,3.0,1.0
1702490940.2341006,-7.0,-6.0,-6.0,33.0,1.0,2.0,-4.0,-2.0
1702490940.2441611,-4.0,-13.0,-64.0,-4.0,-6.0,-10.0,-4.0,5.0
1702490940.2441611,-3.0,7.0,62.0,17.0,1.0,10.0,-4.0,-5.0
1702490940.2543643,-3.0,-19.0,-64.0,-37.0,1.0,-5.0,6.0,1.0
1702490940.2543643,-5.0,3.0,-29.0,-25.0,-12.0,-3.0,3.0,2.0
1702490940.2643142,-1.0,5.0,-10.0,-4.0,3.0,-6.0,-6.0,-3.0
1702490940.2643142,-10.0,-10.0,5.0,-32.0,-11.0,10.0,-8.0,-3.0
1702490940.2643142,-1.0,8.0,-11.0,26.0,-3.0,-7.0,10.0,3.0
1702490940.2643142,5.0,12.0,36.0,49.0,16.0,-12.0,12.0,2.0
1702490940.2940931,-11.0,-34.0,-13.0,-30.0,-20.0,1.0,-15.0,-8.0
1702490940.30409,-1.0,6.0,-27.0,-13.0,-5.0,-8.0,-8.0,-5.0
1702490940.30409,-27.0,-1.0,46.0,33.0,15.0,8.0,7.0,0.0
1702490940.30409,4.0,-5.0,-2.0,-21.0,-7.0,-2.0,-4.0,-2.0
1702490940.30409,-6.0,6.0,-5.0,2.0,3.0,8.0,4.0,-3.0
1702490940.30409,3.0,1.0,-4.0,64.0,1.0,-14.0,-2.0,4.0
1702490940.3160174,-8.0,3.0,11.0,-59.0,-8.0,-14.0,-12.0,-2.0
1702490940.3160174,-9.0,-15.0,-18.0,6.0,-4.0,7.0,-7.0,-7.0
1702490940.331125,2.0,15.0,-10.0,5.0,18.0,53.0,10.0,4.0
1702490940.331125,0.0,-16.0,24.0,47.0,9.0,-28.0,10.0,2.0
1702490940.3326783,-14.0,-3.0,-85.0,-45.0,-10.0,9.0,-6.0,-5.0
1702490940.3326783,1.0,-3.0,26.0,12.0,-7.0,-24.0,-7.0,-3.0
1702490940.346112,-4.0,-10.0,14.0,-64.0,-19.0,-9.0,-4.0,-7.0
1702490940.346112,16.0,-3.0,7.0,-18.0,11.0,13.0,-1.0,2.0
1702490940.346112,7.0,-1.0,-15.0,-21.0,-7.0,3.0,6.0,4.0
1702490940.346112,-3.0,8.0,-9.0,-1.0,-1.0,6.0,-6.0,-4.0
1702490940.3667314,-3.0,-7.0,-17.0,26.0,-11.0,-4.0,-3.0,-1.0
1702490940.3667314,-2.0,-9.0,-46.0,-44.0,1.0,-1.0,2.0,0.0
1702490940.3764348,4.0,4.0,56.0,-2.0,6.0,-1.0,-1.0,-5.0
1702490940.3764348,3.0,7.0,-48.0,-24.0,-6.0,0.0,0.0,0.0
1702490940.3964329,12.0,2.0,24.0,30.0,7.0,-11.0,8.0,8.0
1702490940.3964329,-7.0,2.0,-6.0,54.0,11.0,11.0,-9.0,0.0
1702490940.3964329,10.0,6.0,-14.0,-9.0,-1.0,3.0,-2.0,0.0
1702490940.3964329,-40.0,-19.0,-27.0,-8.0,-6.0,-7.0,23.0,-11.0
1702490940.4047115,1.0,3.0,40.0,33.0,13.0,-11.0,-2.0,1.0
1702490940.4047115,-9.0,-3.0,-19.0,-34.0,-13.0,1.0,-5.0,-3.0
1702490940.414723,-2.0,-13.0,5.0,-3.0,-1.0,-9.0,-5.0,0.0
1702490940.414723,12.0,7.0,1.0,15.0,-7.0,-2.0,-7.0,1.0
1702490940.4250617,-5.0,-3.0,39.0,-25.0,-7.0,-18.0,3.0,-5.0
1702490940.4250617,-9.0,-5.0,-60.0,-18.0,3.0,24.0,5.0,-1.0
1702490940.43505,14.0,23.0,64.0,6.0,-12.0,-20.0,-3.0,-1.0
1702490940.43505,6.0,-24.0,-22.0,-17.0,11.0,5.0,-7.0,3.0
1702490940.4451375,2.0,16.0,13.0,21.0,0.0,-6.0,-2.0,0.0
1702490940.4451375,-11.0,-12.0,23.0,20.0,3.0,-1.0,-4.0,-2.0
1702490940.4451375,-1.0,14.0,-6.0,35.0,-17.0,2.0,5.0,-4.0
1702490940.4451375,2.0,-4.0,7.0,-14.0,-9.0,-2.0,-17.0,0.0
1702490940.47515,2.0,17.0,-16.0,-5.0,7.0,3.0,1.0,3.0
1702490940.47515,18.0,-22.0,8.0,-17.0,10.0,7.0,10.0,-1.0
1702490940.495148,-7.0,-7.0,-34.0,-50.0,0.0,-1.0,2.0,-4.0
1702490940.495148,23.0,40.0,113.0,40.0,-4.0,-4.0,-4.0,5.0
1702490940.5046554,-2.0,-56.0,-82.0,-18.0,-15.0,-10.0,-7.0,-10.0
1702490940.5046554,3.0,15.0,44.0,-26.0,-2.0,5.0,-9.0,-3.0
1702490940.5046554,-6.0,-5.0,18.0,-1.0,18.0,-5.0,-6.0,-2.0
1702490940.5046554,32.0,13.0,-2.0,-19.0,9.0,10.0,4.0,8.0
1702490940.5046554,17.0,13.0,13.0,-23.0,-4.0,-11.0,0.0,1.0
1702490940.5046554,-6.0,-11.0,27.0,11.0,-11.0,1.0,5.0,5.0
1702490940.5046554,-19.0,-4.0,-7.0,-28.0,-26.0,5.0,-4.0,-8.0
1702490940.5046554,-11.0,-13.0,-47.0,19.0,25.0,-11.0,-9.0,-2.0
1702490940.5348778,5.0,11.0,4.0,5.0,20.0,25.0,6.0,5.0
1702490940.5348778,-5.0,1.0,-11.0,15.0,1.0,-11.0,2.0,-1.0
1702490940.5348778,12.0,18.0,15.0,60.0,-16.0,-13.0,-4.0,2.0
1702490940.5348778,-11.0,-11.0,-15.0,-23.0,-19.0,-4.0,-4.0,-5.0
1702490940.5646627,-8.0,3.0,-21.0,-36.0,-2.0,0.0,-4.0,-2.0
1702490940.5646627,-9.0,3.0,34.0,19.0,-6.0,-14.0,-5.0,-2.0
1702490940.5646627,11.0,11.0,-10.0,5.0,-1.0,4.0,8.0,1.0
1702490940.5646627,6.0,0.0,2.0,9.0,-5.0,-7.0,-14.0,2.0
1702490940.5646627,-38.0,-3.0,2.0,7.0,4.0,22.0,-1.0,-4.0
1702490940.5646627,2.0,17.0,-4.0,1.0,6.0,-4.0,6.0,-1.0
1702490940.5646627,6.0,-12.0,35.0,-18.0,7.0,-1.0,-9.0,-3.0
1702490940.5646627,-12.0,6.0,3.0,-48.0,-11.0,-7.0,5.0,-3.0
1702490940.5847747,19.0,-25.0,-70.0,13.0,-1.0,-7.0,-1.0,-1.0
1702490940.5847747,2.0,20.0,69.0,69.0,25.0,8.0,-2.0,4.0
1702490940.594665,4.0,-15.0,-2.0,-9.0,6.0,-1.0,2.0,1.0
1702490940.594665,-6.0,11.0,60.0,-2.0,-11.0,-3.0,-2.0,-3.0
1702490940.6050107,10.0,2.0,46.0,30.0,-4.0,3.0,3.0,1.0
1702490940.6050107,-2.0,8.0,-9.0,-16.0,7.0,-2.0,-2.0,0.0
1702490940.6149237,-6.0,-7.0,23.0,-4.0,8.0,3.0,2.0,0.0
1702490940.6149237,8.0,6.0,-41.0,1.0,6.0,6.0,4.0,4.0
1702490940.625018,-16.0,-30.0,17.0,13.0,-3.0,-9.0,-3.0,-5.0
1702490940.625018,7.0,8.0,6.0,23.0,-3.0,-21.0,-13.0,-3.0
1702490940.6349378,8.0,-2.0,-15.0,8.0,11.0,18.0,10.0,5.0
1702490940.6349378,-6.0,1.0,-19.0,-22.0,6.0,6.0,-19.0,-3.0
1702490940.6546643,-4.0,5.0,3.0,23.0,5.0,-3.0,5.0,1.0
1702490940.6546643,1.0,-6.0,-9.0,22.0,-6.0,-7.0,-5.0,-3.0
1702490940.6546643,-4.0,4.0,17.0,40.0,-12.0,-1.0,-12.0,-9.0
1702490940.6546643,-3.0,-27.0,-23.0,17.0,16.0,6.0,9.0,0.0
1702490940.674875,15.0,23.0,0.0,-46.0,-8.0,-5.0,3.0,7.0
1702490940.674875,-5.0,-6.0,13.0,39.0,20.0,3.0,-2.0,4.0
1702490940.674875,-1.0,7.0,-37.0,71.0,2.0,-2.0,-3.0,-3.0
1702490940.674875,-11.0,-4.0,37.0,-30.0,-23.0,-2.0,-1.0,-9.0
1702490940.684663,-11.0,-15.0,-54.0,-68.0,-3.0,1.0,-8.0,-1.0
1702490940.684663,7.0,10.0,-10.0,-54.0,-13.0,-6.0,5.0,-2.0
1702490940.6948237,-6.0,-18.0,43.0,-12.0,17.0,3.0,0.0,4.0
1702490940.6948237,-5.0,-9.0,-98.0,12.0,3.0,-5.0,0.0,-3.0
1702490940.704778,2.0,19.0,27.0,27.0,-4.0,-14.0,-7.0,0.0
1702490940.704778,-20.0,-35.0,-37.0,-25.0,-11.0,22.0,-7.0,-9.0
1702490940.7146692,5.0,7.0,-45.0,-53.0,-2.0,-4.0,17.0,7.0
1702490940.7146692,-9.0,-7.0,88.0,46.0,-28.0,0.0,4.0,-4.0
1702490940.744663,7.0,13.0,25.0,-3.0,2.0,2.0,3.0,4.0
1702490940.744663,6.0,-22.0,-45.0,8.0,-4.0,-3.0,-6.0,-6.0
1702490940.744663,-6.0,-4.0,-54.0,-21.0,3.0,-3.0,-8.0,-1.0
1702490940.744663,5.0,14.0,39.0,24.0,0.0,2.0,0.0,-1.0
1702490940.7546625,-7.0,-2.0,6.0,-25.0,-2.0,-11.0,0.0,-5.0
1702490940.7546625,-5.0,-5.0,19.0,-17.0,-5.0,-3.0,-3.0,-2.0
1702490940.7546625,-5.0,-31.0,-43.0,-36.0,-6.0,-9.0,-3.0,-2.0
1702490940.7546625,-3.0,-3.0,-18.0,3.0,21.0,8.0,-1.0,0.0
1702490940.774664,2.0,3.0,22.0,34.0,-11.0,-2.0,1.0,-2.0
1702490940.774664,-3.0,13.0,-8.0,-86.0,-8.0,-4.0,-3.0,-2.0
1702490940.774664,3.0,23.0,66.0,60.0,13.0,7.0,-2.0,-1.0
1702490940.774664,-4.0,-12.0,-18.0,8.0,8.0,2.0,3.0,2.0
1702490940.7948682,-7.0,0.0,13.0,39.0,3.0,-3.0,-2.0,-3.0
1702490940.7948682,-1.0,13.0,30.0,10.0,-8.0,-5.0,-1.0,2.0
1702490940.7948682,-2.0,-4.0,-34.0,-42.0,-13.0,-2.0,-4.0,-3.0
1702490940.7948682,1.0,-6.0,4.0,-8.0,1.0,-7.0,0.0,-1.0
1702490940.804847,0.0,1.0,2.0,-22.0,-2.0,4.0,1.0,-2.0
1702490940.804847,-4.0,2.0,-9.0,15.0,-10.0,-5.0,2.0,2.0
1702490940.814938,6.0,7.0,31.0,-51.0,3.0,8.0,-3.0,3.0
1702490940.814938,-5.0,-22.0,14.0,-56.0,-20.0,-5.0,-5.0,-3.0
1702490940.8424697,-5.0,4.0,41.0,57.0,11.0,0.0,-2.0,-5.0
1702490940.8424697,-10.0,-9.0,-16.0,-47.0,-10.0,-2.0,-2.0,-2.0
1702490940.8424697,4.0,1.0,14.0,-8.0,-10.0,-3.0,-2.0,0.0
1702490940.8424697,19.0,12.0,-8.0,13.0,4.0,0.0,4.0,3.0
1702490940.8565102,-3.0,-3.0,-1.0,1.0,-7.0,2.0,-2.0,-4.0
1702490940.8565102,0.0,-4.0,-27.0,-33.0,9.0,12.0,7.0,2.0
1702490940.8579853,-7.0,-1.0,13.0,24.0,0.0,-3.0,-3.0,-3.0
1702490940.8579853,0.0,-7.0,-10.0,-14.0,-9.0,-3.0,0.0,1.0
1702490940.8628647,1.0,11.0,13.0,-2.0,-2.0,-8.0,-6.0,-5.0
1702490940.8628647,-7.0,-10.0,-5.0,-18.0,-14.0,-4.0,-2.0,-4.0
1702490940.8831997,4.0,3.0,-40.0,0.0,4.0,0.0,2.0,0.0
1702490940.8831997,-4.0,-1.0,-18.0,56.0,11.0,1.0,-3.0,-1.0
1702490940.892866,-1.0,0.0,1.0,11.0,8.0,6.0,1.0,3.0
1702490940.892866,-5.0,0.0,21.0,-19.0,-8.0,-9.0,-1.0,-1.0
1702490940.892866,1.0,1.0,-11.0,-22.0,-9.0,-3.0,2.0,1.0
1702490940.892866,0.0,0.0,-8.0,8.0,6.0,2.0,-1.0,-2.0
1702490940.913135,-1.0,6.0,-2.0,-18.0,-1.0,2.0,-1.0,-1.0
1702490940.913135,0.0,0.0,17.0,69.0,8.0,2.0,0.0,-1.0
1702490940.913135,-1.0,0.0,-6.0,15.0,6.0,0.0,-2.0,-1.0
1702490940.913135,-3.0,5.0,9.0,6.0,0.0,-3.0,1.0,0.0
1702490940.9232013,1.0,-3.0,-43.0,-11.0,-3.0,-3.0,-2.0,0.0
1702490940.9232013,-2.0,5.0,46.0,-33.0,-11.0,-6.0,-4.0,0.0
1702490940.9332023,-9.0,-34.0,-58.0,69.0,2.0,1.0,-2.0,-6.0
1702490940.9332023,-1.0,10.0,9.0,-28.0,-2.0,1.0,1.0,-1.0
1702490940.9628646,1.0,-3.0,13.0,-17.0,-8.0,-1.0,0.0,-1.0
1702490940.9628646,0.0,5.0,-26.0,-1.0,5.0,1.0,0.0,1.0
1702490940.9628646,-4.0,4.0,28.0,-14.0,-3.0,-2.0,-4.0,-4.0
1702490940.9628646,-1.0,-2.0,-5.0,-9.0,-6.0,-2.0,-3.0,-1.0
1702490940.9732375,2.0,-2.0,-9.0,20.0,6.0,1.0,1.0,3.0
1702490940.9732375,1.0,-2.0,-25.0,26.0,0.0,-2.0,-1.0,-3.0
1702490940.9732375,-2.0,4.0,14.0,-21.0,2.0,0.0,-1.0,-2.0
1702490940.9732375,-3.0,-6.0,-3.0,10.0,5.0,-1.0,0.0,-2.0
1702490940.98319,-1.0,10.0,32.0,-13.0,-6.0,-2.0,-3.0,-1.0
1702490940.98319,0.0,-9.0,-22.0,-52.0,-6.0,1.0,1.0,0.0
1702490941.0028653,-1.0,-2.0,-8.0,0.0,1.0,0.0,-1.0,1.0
1702490941.0028653,-2.0,6.0,14.0,-23.0,-4.0,0.0,-2.0,0.0
1702490941.0130148,0.0,-6.0,17.0,35.0,9.0,-1.0,-1.0,-2.0
1702490941.0130148,2.0,5.0,-32.0,-1.0,0.0,0.0,-1.0,0.0
1702490941.0130148,-2.0,1.0,11.0,-20.0,-11.0,-4.0,-3.0,-1.0
1702490941.0130148,-3.0,2.0,-16.0,-35.0,-13.0,-7.0,-2.0,-1.0
1702490941.0331068,-1.0,-2.0,21.0,54.0,19.0,7.0,2.0,0.0
1702490941.0331068,-2.0,-11.0,-15.0,6.0,-1.0,-1.0,0.0,-2.0
1702490941.0331068,1.0,-11.0,-32.0,-22.0,-4.0,-2.0,-1.0,0.0
1702490941.0331068,-2.0,-7.0,0.0,4.0,-4.0,-4.0,-1.0,-2.0
1702490941.052876,-4.0,-4.0,-15.0,-30.0,-9.0,-3.0,-2.0,-2.0
1702490941.052876,0.0,14.0,42.0,41.0,3.0,-2.0,-1.0,0.0
1702490941.052876,-1.0,-8.0,-15.0,-28.0,-1.0,2.0,1.0,-1.0
1702490941.052876,-2.0,-14.0,-78.0,-22.0,-1.0,-2.0,-2.0,-2.0
1702490941.0731468,-4.0,-13.0,-50.0,-5.0,0.0,-2.0,0.0,-1.0
1702490941.0731468,-1.0,1.0,10.0,-13.0,-2.0,2.0,0.0,-1.0
1702490941.0731468,1.0,15.0,23.0,-10.0,-8.0,-4.0,-1.0,-2.0
1702490941.0731468,1.0,-5.0,25.0,63.0,10.0,5.0,3.0,1.0
1702490941.1128664,2.0,11.0,34.0,-18.0,-6.0,-4.0,0.0,0.0
1702490941.1128664,-4.0,-12.0,-52.0,1.0,-2.0,-2.0,-5.0,-2.0
1702490941.1228654,0.0,9.0,40.0,14.0,-2.0,-1.0,-1.0,0.0
1702490941.1228654,2.0,0.0,-26.0,-10.0,5.0,1.0,1.0,1.0
1702490941.1228654,-4.0,-13.0,42.0,-4.0,-2.0,1.0,-3.0,-3.0
1702490941.1228654,-1.0,4.0,-12.0,-9.0,-1.0,0.0,-1.0,0.0
1702490941.133174,-4.0,-2.0,8.0,-15.0,-4.0,-2.0,-4.0,-3.0
1702490941.133174,3.0,13.0,25.0,32.0,5.0,2.0,1.0,1.0
1702490941.133174,2.0,3.0,-5.0,7.0,11.0,0.0,0.0,2.0
1702490941.133174,-6.0,-27.0,-57.0,-13.0,-4.0,-5.0,-3.0,-3.0
1702490941.133174,2.0,10.0,20.0,20.0,6.0,0.0,-3.0,-1.0
1702490941.133174,-4.0,-6.0,12.0,4.0,2.0,-1.0,-1.0,-3.0
1702490941.1728647,1.0,7.0,-26.0,-20.0,-5.0,-4.0,0.0,0.0
1702490941.1728647,1.0,0.0,-7.0,-1.0,-2.0,-2.0,1.0,0.0
1702490941.1728647,0.0,-1.0,15.0,15.0,3.0,0.0,-1.0,-3.0
1702490941.1728647,-7.0,-19.0,8.0,-24.0,-7.0,-4.0,-4.0,-2.0
1702490941.1728647,-4.0,-13.0,-27.0,-9.0,-1.0,-1.0,-1.0,-2.0
1702490941.1728647,7.0,9.0,25.0,2.0,1.0,-1.0,1.0,2.0
1702490941.1728647,0.0,-1.0,-17.0,-3.0,0.0,2.0,2.0,0.0
1702490941.1728647,-4.0,-6.0,-36.0,0.0,3.0,0.0,1.0,-4.0
1702490941.1931334,-1.0,7.0,35.0,-35.0,-10.0,-3.0,-3.0,-2.0
1702490941.1931334,-3.0,-1.0,-29.0,9.0,2.0,2.0,-2.0,-2.0
1702490941.1931334,2.0,11.0,47.0,24.0,2.0,-15.0,-7.0,1.0
1702490941.1931334,0.0,1.0,32.0,-15.0,-2.0,8.0,17.0,1.0
1702490941.2130427,-4.0,-10.0,-27.0,-1.0,1.0,-1.0,-4.0,-3.0
1702490941.2130427,3.0,9.0,29.0,10.0,0.0,3.0,2.0,1.0
1702490941.2130427,-2.0,-4.0,1.0,-3.0,-1.0,0.0,-4.0,-2.0
1702490941.2130427,0.0,13.0,14.0,-7.0,0.0,8.0,-6.0,-1.0
1702490941.242868,-4.0,-13.0,-14.0,-6.0,-5.0,-10.0,-9.0,-2.0
1702490941.242868,3.0,7.0,15.0,19.0,-1.0,-6.0,5.0,1.0
1702490941.242868,-6.0,-14.0,-7.0,-16.0,-2.0,-4.0,-2.0,-4.0
1702490941.242868,1.0,4.0,1.0,2.0,1.0,-1.0,-1.0,0.0
1702490941.2531304,-1.0,0.0,-38.0,2.0,-5.0,2.0,-1.0,0.0
1702490941.2531304,-2.0,3.0,34.0,13.0,7.0,2.0,-5.0,-1.0
1702490941.2531304,1.0,-2.0,-26.0,-9.0,-4.0,-1.0,4.0,0.0
1702490941.2531304,1.0,3.0,18.0,0.0,-4.0,-8.0,-6.0,2.0
1702490941.273266,-2.0,3.0,-54.0,-9.0,4.0,42.0,-10.0,-6.0
1702490941.273266,-1.0,-7.0,18.0,3.0,2.0,-20.0,16.0,1.0
1702490941.273266,2.0,5.0,10.0,8.0,1.0,4.0,4.0,1.0
1702490941.273266,-2.0,-12.0,-10.0,-11.0,-2.0,-6.0,-4.0,-3.0
1702490941.282866,-1.0,-3.0,8.0,2.0,-4.0,-13.0,-1.0,1.0
1702490941.282866,0.0,3.0,14.0,-8.0,0.0,4.0,-16.0,-3.0
1702490941.2928994,-5.0,-8.0,-13.0,-3.0,-4.0,20.0,3.0,-3.0
1702490941.2928994,2.0,3.0,-10.0,-2.0,0.0,-2.0,-4.0,0.0
1702490941.3131502,2.0,0.0,25.0,6.0,-3.0,0.0,10.0,3.0
1702490941.3131502,-1.0,-1.0,-7.0,-7.0,2.0,-7.0,5.0,-4.0
1702490941.3131502,-5.0,0.0,19.0,1.0,-5.0,-24.0,-5.0,-4.0
1702490941.3131502,5.0,2.0,-34.0,3.0,0.0,11.0,-9.0,-4.0
1702490941.333202,-1.0,-4.0,-52.0,-15.0,-9.0,-22.0,3.0,1.0
1702490941.333202,-4.0,-1.0,39.0,-6.0,-1.0,9.0,-4.0,-4.0
1702490941.333202,1.0,-3.0,-20.0,15.0,3.0,4.0,-3.0,0.0
1702490941.333202,-4.0,0.0,10.0,-7.0,-2.0,-3.0,-2.0,0.0
1702490941.3430164,-1.0,6.0,41.0,0.0,-2.0,3.0,-1.0,-1.0
1702490941.3430164,0.0,3.0,-21.0,1.0,-2.0,-1.0,-3.0,7.0
1702490941.373714,-3.0,-8.0,11.0,-5.0,4.0,3.0,-1.0,-2.0
1702490941.373714,0.0,-4.0,-33.0,-2.0,-3.0,2.0,0.0,0.0
1702490941.3746948,1.0,5.0,5.0,2.0,-2.0,-4.0,2.0,-1.0
1702490941.3746948,-5.0,-10.0,-15.0,-13.0,-6.0,-1.0,-2.0,0.0
1702490941.376542,-1.0,3.0,23.0,11.0,2.0,3.0,0.0,1.0
1702490941.376542,0.0,-3.0,11.0,-1.0,-2.0,-5.0,0.0,-2.0
1702490941.4061916,0.0,-1.0,9.0,2.0,0.0,-3.0,-2.0,-2.0
1702490941.4061916,-1.0,0.0,-10.0,-2.0,-2.0,3.0,-4.0,-4.0
1702490941.4061916,0.0,-3.0,-10.0,-5.0,1.0,-3.0,0.0,-1.0
1702490941.4061916,1.0,2.0,-5.0,-3.0,-2.0,-9.0,-2.0,0.0
1702490941.4061916,-4.0,-1.0,5.0,0.0,-2.0,-2.0,-1.0,-1.0
1702490941.4061916,0.0,1.0,7.0,6.0,-3.0,2.0,-2.0,-2.0
1702490941.4165325,0.0,-3.0,-36.0,-5.0,-1.0,1.0,-1.0,-2.0
1702490941.4165325,-4.0,-1.0,-21.0,-4.0,-1.0,-2.0,-1.0,1.0
1702490941.4268095,2.0,11.0,40.0,5.0,2.0,-2.0,-3.0,-1.0
1702490941.4268095,-3.0,-15.0,-72.0,-7.0,-3.0,2.0,-1.0,-2.0
1702490941.4367917,1.0,3.0,9.0,-1.0,-1.0,-1.0,2.0,0.0
1702490941.4367917,-2.0,-3.0,3.0,2.0,-2.0,0.0,1.0,-3.0
1702490941.4536445,0.0,-4.0,-5.0,-7.0,-2.0,1.0,2.0,0.0
1702490941.4536445,-1.0,-5.0,-42.0,0.0,-2.0,-2.0,0.0,-3.0
1702490941.473565,-1.0,10.0,5.0,1.0,1.0,4.0,-2.0,1.0
1702490941.473565,0.0,-10.0,-4.0,-6.0,-1.0,-4.0,-1.0,1.0
1702490941.483561,-7.0,-8.0,-20.0,-8.0,-2.0,-3.0,-5.0,-4.0
1702490941.483561,2.0,5.0,31.0,0.0,-1.0,0.0,-3.0,-1.0
1702490941.483561,-1.0,-11.0,-16.0,-4.0,-2.0,-2.0,1.0,-2.0
1702490941.483561,-1.0,6.0,19.0,4.0,1.0,1.0,-1.0,-2.0
1702490941.493734,-1.0,2.0,4.0,-3.0,-3.0,-2.0,-2.0,-1.0
1702490941.493734,-2.0,-4.0,18.0,2.0,2.0,0.0,0.0,-2.0
1702490941.493734,0.0,4.0,-5.0,-2.0,-2.0,-4.0,-1.0,0.0
1702490941.493734,-3.0,-4.0,5.0,-3.0,0.0,3.0,-3.0,-4.0
1702490941.5136564,0.0,-3.0,-1.0,0.0,0.0,-3.0,2.0,0.0
1702490941.5136564,0.0,4.0,4.0,1.0,2.0,0.0,-2.0,-2.0
1702490941.5235612,-1.0,-6.0,0.0,0.0,0.0,-2.0,-2.0,0.0
1702490941.5235612,-1.0,3.0,-1.0,-1.0,0.0,-1.0,-3.0,0.0
1702490941.5235612,1.0,16.0,2.0,3.0,0.0,-1.0,0.0,-1.0
1702490941.5235612,-1.0,-48.0,-23.0,-3.0,1.0,1.0,1.0,0.0
1702490941.5436242,-2.0,16.0,28.0,3.0,-2.0,-2.0,-2.0,-2.0
1702490941.5436242,-1.0,-1.0,9.0,-6.0,-4.0,-5.0,-2.0,1.0
1702490941.5535643,1.0,-5.0,4.0,11.0,1.0,-4.0,0.0,-1.0
1702490941.5535643,1.0,11.0,13.0,-2.0,0.0,3.0,-1.0,-2.0
1702490941.573559,-1.0,-3.0,-11.0,-1.0,0.0,-2.0,-1.0,-1.0
1702490941.573559,-4.0,-11.0,-6.0,-1.0,0.0,-1.0,-3.0,-3.0
1702490941.573559,-1.0,-3.0,28.0,-8.0,-5.0,-1.0,-1.0,1.0
1702490941.573559,-1.0,12.0,12.0,0.0,-2.0,0.0,2.0,-1.0
1702490941.573559,-4.0,-15.0,-70.0,-5.0,-2.0,-3.0,-2.0,-1.0
1702490941.573559,-3.0,6.0,-2.0,-1.0,-1.0,0.0,-5.0,-4.0
1702490941.593884,1.0,-6.0,-15.0,1.0,-1.0,-1.0,1.0,0.0
1702490941.593884,1.0,7.0,22.0,-1.0,-2.0,-2.0,-2.0,-1.0
1702490941.593884,-1.0,-3.0,20.0,-6.0,-2.0,-2.0,-4.0,-2.0
1702490941.593884,-3.0,-5.0,-8.0,0.0,-2.0,-5.0,1.0,-1.0
1702490941.6135597,-3.0,-4.0,-31.0,0.0,0.0,3.0,-3.0,0.0
1702490941.6135597,-3.0,11.0,7.0,-1.0,-2.0,-5.0,-4.0,-1.0
1702490941.6135597,0.0,6.0,2.0,3.0,2.0,4.0,0.0,-3.0
1702490941.6135597,1.0,-3.0,-2.0,3.0,2.0,2.0,2.0,-2.0
1702490941.6339288,-3.0,-15.0,5.0,-4.0,-4.0,-1.0,0.0,-1.0
1702490941.6339288,3.0,21.0,9.0,0.0,-1.0,-2.0,2.0,4.0
1702490941.6339288,-6.0,-31.0,-8.0,-3.0,-1.0,-4.0,-4.0,-1.0
1702490941.6339288,-1.0,-10.0,-31.0,-4.0,-2.0,-1.0,-1.0,-2.0
1702490941.6539614,-1.0,-1.0,6.0,-1.0,-1.0,1.0,0.0,-1.0
1702490941.6539614,1.0,-32.0,-9.0,-3.0,-3.0,0.0,-2.0,0.0
1702490941.6539614,5.0,35.0,33.0,0.0,-3.0,0.0,0.0,0.0
1702490941.6539614,0.0,16.0,-22.0,1.0,1.0,1.0,0.0,-1.0
1702490941.683559,-1.0,-47.0,-10.0,0.0,0.0,1.0,-1.0,-1.0
1702490941.683559,3.0,4.0,-7.0,0.0,-1.0,0.0,-1.0,-1.0
1702490941.683559,-4.0,-13.0,-2.0,-3.0,1.0,-3.0,-4.0,-4.0
1702490941.683559,-5.0,10.0,13.0,-1.0,-2.0,1.0,2.0,1.0
1702490941.693806,4.0,6.0,-1.0,3.0,0.0,-1.0,-3.0,-2.0
1702490941.693806,-2.0,25.0,-2.0,-2.0,-2.0,2.0,-3.0,0.0
1702490941.693806,-4.0,-27.0,1.0,3.0,1.0,-7.0,4.0,2.0
1702490941.693806,7.0,32.0,10.0,0.0,1.0,2.0,1.0,2.0
1702490941.7138064,-9.0,-3.0,-5.0,1.0,3.0,-3.0,-2.0,-4.0
1702490941.7138064,0.0,-5.0,12.0,-1.0,-2.0,-3.0,1.0,1.0
1702490941.7138064,0.0,6.0,-8.0,-1.0,-1.0,-2.0,-2.0,0.0
1702490941.7138064,-1.0,-4.0,10.0,-2.0,-4.0,-2.0,0.0,-2.0
1702490941.7535625,0.0,15.0,3.0,-3.0,-2.0,0.0,0.0,0.0
1702490941.7535625,-4.0,-18.0,-11.0,-2.0,-2.0,-2.0,-2.0,-1.0
1702490941.7535625,-1.0,0.0,1.0,0.0,-4.0,4.0,-3.0,-2.0
1702490941.7535625,-1.0,-18.0,-1.0,-3.0,-3.0,-2.0,-3.0,-1.0
1702490941.7535625,2.0,25.0,2.0,-4.0,-3.0,1.0,0.0,0.0
1702490941.7535625,-6.0,-5.0,3.0,-2.0,-4.0,-3.0,-1.0,-2.0
1702490941.7535625,-5.0,-16.0,-9.0,1.0,5.0,6.0,-4.0,-4.0
1702490941.7535625,0.0,1.0,6.0,-1.0,0.0,-3.0,-3.0,-1.0
1702490941.7835593,-3.0,18.0,1.0,2.0,1.0,2.0,0.0,0.0
1702490941.7835593,1.0,4.0,-1.0,0.0,-1.0,-3.0,-3.0,0.0
1702490941.7835593,2.0,-14.0,-1.0,-5.0,0.0,-1.0,0.0,0.0
1702490941.7835593,1.0,-9.0,-6.0,2.0,1.0,-4.0,-1.0,3.0
1702490941.7835593,0.0,-28.0,-10.0,-4.0,-3.0,-1.0,0.0,-2.0
1702490941.7835593,-2.0,27.0,2.0,-2.0,3.0,1.0,0.0,-2.0
1702490941.793565,3.0,9.0,19.0,1.0,-2.0,2.0,0.0,3.0
1702490941.793565,-3.0,-16.0,-11.0,-1.0,-2.0,2.0,3.0,-3.0
1702490941.8139126,-2.0,17.0,3.0,0.0,-3.0,-4.0,-1.0,0.0
1702490941.8139126,0.0,-11.0,-1.0,1.0,-1.0,0.0,3.0,-1.0
1702490941.823562,-5.0,0.0,6.0,-4.0,-4.0,-4.0,-2.0,4.0
1702490941.823562,9.0,30.0,10.0,2.0,2.0,-3.0,0.0,0.0
1702490941.833845,-2.0,-11.0,-4.0,1.0,0.0,-1.0,-3.0,0.0
1702490941.833845,-2.0,-6.0,0.0,-2.0,-1.0,0.0,0.0,-3.0
1702490941.833845,2.0,11.0,3.0,1.0,-1.0,-3.0,-1.0,0.0
1702490941.833845,-4.0,-23.0,-6.0,-5.0,-5.0,-1.0,2.0,0.0
1702490941.86356,1.0,9.0,-3.0,3.0,6.0,3.0,-5.0,-2.0
1702490941.86356,-2.0,-17.0,-3.0,-1.0,0.0,-1.0,-2.0,-5.0
1702490941.86356,-5.0,-6.0,-7.0,-4.0,-6.0,-5.0,-2.0,-3.0
1702490941.86356,-2.0,-8.0,7.0,0.0,-2.0,0.0,2.0,-1.0
1702490941.8737645,-1.0,4.0,-14.0,-3.0,0.0,-5.0,0.0,-1.0
1702490941.8737645,0.0,11.0,-2.0,4.0,4.0,6.0,-3.0,-1.0
1702490941.8737645,4.0,18.0,0.0,1.0,3.0,2.0,3.0,0.0
1702490941.8737645,-10.0,-31.0,-4.0,-5.0,-7.0,-6.0,-6.0,-4.0
1702490941.9050183,-1.0,13.0,18.0,-3.0,-2.0,0.0,0.0,-1.0
1702490941.9050183,2.0,-5.0,-4.0,-3.0,-1.0,-1.0,1.0,14.0
1702490941.9050183,-1.0,40.0,9.0,1.0,-2.0,13.0,1.0,-18.0
1702490941.9050183,-5.0,8.0,-11.0,1.0,3.0,-9.0,0.0,3.0
1702490941.9050183,4.0,-26.0,-1.0,-4.0,-5.0,-4.0,-4.0,-5.0
1702490941.9050183,-1.0,1.0,-2.0,-3.0,-3.0,-3.0,1.0,-1.0
1702490941.9153783,6.0,-11.0,6.0,0.0,1.0,-4.0,1.0,6.0
1702490941.9153783,5.0,33.0,14.0,2.0,0.0,0.0,1.0,3.0
1702490941.9362154,-11.0,-35.0,-20.0,-3.0,-1.0,2.0,2.0,1.0
1702490941.9362154,1.0,3.0,1.0,-1.0,-1.0,1.0,-1.0,-2.0
1702490941.9375374,-5.0,-45.0,-12.0,-3.0,-3.0,-2.0,0.0,4.0
1702490941.9375374,-2.0,8.0,2.0,-4.0,-3.0,-2.0,-6.0,-7.0
1702490941.9538593,1.0,27.0,3.0,0.0,-1.0,-1.0,-1.0,5.0
1702490941.9538593,0.0,-3.0,1.0,1.0,1.0,-3.0,2.0,-3.0
1702490941.9538593,0.0,-4.0,-8.0,-1.0,-2.0,-3.0,1.0,2.0
1702490941.9538593,-3.0,6.0,0.0,1.0,1.0,-2.0,-3.0,-2.0
1702490941.9738696,1.0,2.0,0.0,-3.0,-1.0,14.0,-1.0,-2.0
1702490941.9738696,-6.0,-12.0,-1.0,-2.0,-4.0,-19.0,-7.0,-5.0
1702490941.9738696,-3.0,37.0,-9.0,-3.0,-2.0,-1.0,-2.0,-4.0
1702490941.9738696,1.0,-8.0,3.0,-4.0,-3.0,-3.0,-5.0,-2.0
1702490941.9938712,1.0,-1.0,13.0,-1.0,-1.0,3.0,1.0,0.0
1702490941.9938712,-2.0,-6.0,-4.0,-2.0,-1.0,0.0,-1.0,-3.0
1702490941.9938712,0.0,11.0,-1.0,-1.0,0.0,-2.0,1.0,0.0
1702490941.9938712,-3.0,-12.0,-10.0,-1.0,-1.0,6.0,-1.0,-3.0
1702490942.0138693,-1.0,5.0,1.0,2.0,-2.0,-12.0,0.0,0.0
1702490942.0138693,-3.0,4.0,-1.0,-4.0,-4.0,2.0,-6.0,-3.0
1702490942.0138693,-3.0,-10.0,-17.0,-6.0,-3.0,-2.0,0.0,7.0
1702490942.0138693,-1.0,-3.0,5.0,5.0,8.0,6.0,-1.0,-10.0
1702490942.0241954,-1.0,17.0,-2.0,1.0,0.0,-6.0,-2.0,-8.0
1702490942.0241954,4.0,24.0,-1.0,5.0,5.0,2.0,0.0,-2.0
1702490942.0341582,0.0,5.0,3.0,-1.0,-2.0,2.0,0.0,-1.0
1702490942.0341582,4.0,-1.0,1.0,0.0,-1.0,-4.0,-1.0,4.0
1702490942.0538714,-7.0,-27.0,-4.0,-1.0,-3.0,-5.0,-2.0,2.0
1702490942.0538714,-3.0,7.0,8.0,-5.0,0.0,-4.0,-2.0,-5.0
1702490942.0538714,-4.0,-10.0,-7.0,2.0,2.0,3.0,-8.0,-5.0
1702490942.0538714,0.0,2.0,1.0,-4.0,-7.0,-1.0,6.0,6.0
1702490942.0739684,4.0,-1.0,5.0,1.0,4.0,5.0,-5.0,-3.0
1702490942.0739684,0.0,-3.0,1.0,-2.0,-6.0,-1.0,1.0,1.0
1702490942.0739684,-2.0,-19.0,-1.0,1.0,3.0,0.0,1.0,-3.0
1702490942.0739684,2.0,12.0,1.0,-2.0,-3.0,-4.0,-3.0,0.0
1702490942.0840864,-2.0,10.0,-6.0,-6.0,-4.0,-5.0,-4.0,-1.0
1702490942.0840864,-2.0,-5.0,1.0,-1.0,-3.0,1.0,3.0,-2.0
1702490942.0940416,0.0,-8.0,-1.0,-2.0,0.0,-5.0,-9.0,-4.0
1702490942.0940416,0.0,-5.0,6.0,1.0,1.0,-1.0,0.0,0.0
1702490942.1138706,-2.0,6.0,-4.0,-2.0,-2.0,-3.0,0.0,0.0
1702490942.1138706,-4.0,-11.0,-5.0,-2.0,0.0,1.0,-4.0,0.0
1702490942.1138706,-1.0,-11.0,0.0,2.0,1.0,1.0,-1.0,-2.0
1702490942.1138706,-1.0,5.0,-1.0,1.0,-1.0,-10.0,-1.0,0.0
1702490942.1338692,-3.0,-11.0,-7.0,-4.0,1.0,8.0,1.0,-2.0
1702490942.1338692,-1.0,-6.0,-2.0,-2.0,-5.0,-8.0,-1.0,1.0
1702490942.1338692,2.0,14.0,5.0,1.0,1.0,8.0,2.0,-1.0
1702490942.1338692,-3.0,-7.0,-3.0,2.0,0.0,-4.0,-2.0,-3.0
1702490942.1442032,6.0,-13.0,-1.0,0.0,2.0,-2.0,-1.0,0.0
1702490942.1442032,-3.0,-37.0,-10.0,-2.0,-2.0,3.0,-1.0,-2.0
1702490942.1541595,0.0,-4.0,1.0,-3.0,-6.0,-11.0,2.0,2.0
1702490942.1541595,-2.0,-1.0,-1.0,-1.0,3.0,3.0,-3.0,-1.0
1702490942.1738715,0.0,0.0,-1.0,0.0,-4.0,-3.0,1.0,-1.0
1702490942.1738715,0.0,9.0,-1.0,1.0,2.0,-1.0,1.0,1.0
1702490942.1738715,-2.0,2.0,-3.0,-1.0,1.0,0.0,-4.0,-4.0
1702490942.1738715,0.0,-13.0,-1.0,-1.0,-1.0,1.0,1.0,-1.0
1702490942.1941316,-2.0,17.0,3.0,3.0,4.0,-1.0,0.0,-1.0
1702490942.1941316,1.0,-1.0,-2.0,0.0,0.0,1.0,-1.0,0.0
1702490942.1941316,-3.0,4.0,-1.0,-1.0,-3.0,-6.0,0.0,-1.0
1702490942.1941316,2.0,3.0,12.0,2.0,-1.0,-1.0,3.0,-1.0
1702490942.2040915,-4.0,-6.0,-19.0,-2.0,-1.0,7.0,-2.0,-3.0
1702490942.2040915,-2.0,-14.0,6.0,-6.0,-6.0,-6.0,-3.0,-3.0
1702490942.214042,-2.0,15.0,2.0,1.0,1.0,0.0,-3.0,-1.0
1702490942.214042,-3.0,2.0,-3.0,-2.0,-5.0,-5.0,-5.0,-3.0
1702490942.2538805,1.0,-11.0,3.0,1.0,-1.0,1.0,1.0,0.0
1702490942.2538805,2.0,11.0,-3.0,1.0,-1.0,1.0,-2.0,1.0
1702490942.2538805,-4.0,-26.0,-5.0,0.0,3.0,3.0,1.0,-2.0
1702490942.2538805,-2.0,-2.0,4.0,0.0,0.0,0.0,3.0,-1.0
1702490942.2538805,-3.0,0.0,4.0,-3.0,-6.0,-5.0,0.0,-2.0
1702490942.2538805,-3.0,-2.0,-5.0,1.0,5.0,8.0,-2.0,-3.0
1702490942.2538805,-1.0,5.0,0.0,-4.0,-4.0,-5.0,-1.0,-1.0
1702490942.2538805,-2.0,-1.0,-6.0,-3.0,-1.0,3.0,-3.0,-1.0
1702490942.26418,-1.0,-6.0,2.0,1.0,-1.0,-4.0,-2.0,0.0
1702490942.26418,0.0,12.0,1.0,2.0,0.0,-4.0,-3.0,-2.0
1702490942.274175,-2.0,-5.0,-2.0,-3.0,-2.0,2.0,-2.0,0.0
1702490942.274175,1.0,2.0,-4.0,-1.0,1.0,7.0,0.0,-1.0
1702490942.2938707,-2.0,3.0,0.0,-5.0,-6.0,-6.0,-4.0,-2.0
1702490942.2938707,-4.0,-1.0,0.0,2.0,2.0,-2.0,-1.0,-1.0
1702490942.2938707,1.0,7.0,2.0,-1.0,1.0,1.0,-3.0,-4.0
1702490942.2938707,-2.0,-4.0,-6.0,-2.0,-5.0,-8.0,1.0,0.0
1702490942.314392,-2.0,-2.0,0.0,0.0,3.0,4.0,2.0,0.0
1702490942.314392,-2.0,2.0,0.0,0.0,-2.0,-1.0,-1.0,-3.0
1702490942.314392,0.0,3.0,1.0,-1.0,-4.0,-5.0,-1.0,-2.0
1702490942.314392,-2.0,-1.0,0.0,-1.0,-2.0,1.0,-2.0,-1.0
1702490942.3241432,0.0,-5.0,-1.0,-4.0,-5.0,-10.0,-4.0,-3.0
1702490942.3241432,-1.0,2.0,-1.0,-1.0,1.0,0.0,1.0,1.0
1702490942.3641343,0.0,12.0,-1.0,-1.0,0.0,2.0,2.0,-1.0
1702490942.3641343,-4.0,-2.0,1.0,-1.0,0.0,2.0,-1.0,-1.0
1702490942.3641343,-1.0,4.0,1.0,-4.0,-6.0,-6.0,-2.0,-1.0
1702490942.3641343,0.0,-5.0,-4.0,0.0,-1.0,6.0,-1.0,-1.0
1702490942.3641343,-2.0,-6.0,-1.0,-2.0,-7.0,-6.0,-2.0,0.0
1702490942.3641343,-1.0,0.0,-2.0,-2.0,0.0,4.0,-4.0,-2.0
1702490942.3743024,-3.0,-1.0,-2.0,2.0,3.0,2.0,-2.0,-3.0
1702490942.3743024,0.0,-1.0,-4.0,0.0,0.0,-3.0,2.0,1.0
1702490942.3743024,-1.0,-6.0,-5.0,0.0,1.0,-6.0,-2.0,0.0
1702490942.3743024,-2.0,-3.0,-2.0,-1.0,0.0,-2.0,-3.0,-2.0
1702490942.3941374,-2.0,0.0,-1.0,-4.0,-5.0,4.0,-1.0,-1.0
1702490942.3941374,-1.0,2.0,0.0,3.0,4.0,-2.0,0.0,-1.0
1702490942.3941374,0.0,-1.0,-3.0,0.0,-3.0,0.0,1.0,1.0
1702490942.3941374,0.0,-3.0,-2.0,-1.0,-4.0,-3.0,-1.0,-1.0
1702490942.4143882,-1.0,1.0,2.0,2.0,5.0,0.0,0.0,0.0
1702490942.4143882,-2.0,-2.0,-1.0,-1.0,-2.0,1.0,-2.0,-1.0
1702490942.4143882,0.0,-4.0,0.0,0.0,1.0,1.0,0.0,-1.0
1702490942.4143882,-2.0,-5.0,-3.0,-2.0,0.0,2.0,-1.0,-2.0
1702490942.4385262,0.0,0.0,1.0,-2.0,-6.0,-9.0,-1.0,1.0
1702490942.4395468,-2.0,1.0,0.0,-2.0,-5.0,0.0,-1.0,-2.0
1702490942.4405425,-1.0,-2.0,-1.0,0.0,3.0,0.0,0.0,1.0
1702490942.4405425,-3.0,0.0,-2.0,-1.0,1.0,0.0,-1.0,-2.0
1702490942.4518344,0.0,1.0,-3.0,0.0,-4.0,-4.0,-1.0,0.0
1702490942.4528563,1.0,-1.0,0.0,-4.0,-4.0,-1.0,-1.0,-1.0
1702490942.4610364,-2.0,-4.0,-2.0,-2.0,-4.0,-2.0,-1.0,-4.0
1702490942.4610364,-2.0,1.0,2.0,0.0,-4.0,0.0,-1.0,-1.0
1702490942.484061,-1.0,-5.0,-5.0,-5.0,-3.0,2.0,0.0,0.0
1702490942.484061,0.0,-1.0,6.0,10.0,10.0,0.0,0.0,0.0
1702490942.484061,0.0,-3.0,0.0,-3.0,-5.0,-4.0,0.0,0.0
1702490942.484061,0.0,-2.0,-3.0,0.0,-5.0,-7.0,-3.0,-2.0
1702490942.4940577,-1.0,-1.0,2.0,-5.0,0.0,8.0,-1.0,-2.0
1702490942.4940577,-1.0,-1.0,-2.0,-4.0,-4.0,2.0,1.0,0.0
1702490942.4940577,-1.0,0.0,-2.0,3.0,11.0,-1.0,-1.0,0.0
1702490942.4940577,1.0,-1.0,2.0,0.0,-3.0,1.0,-2.0,-1.0
1702490942.5140586,-1.0,0.0,-2.0,1.0,-1.0,-4.0,-1.0,-1.0
1702490942.5140586,-3.0,-1.0,-5.0,-6.0,-6.0,-4.0,-3.0,-3.0
1702490942.5140586,0.0,0.0,2.0,0.0,-3.0,1.0,-1.0,-3.0
1702490942.5140586,0.0,-1.0,-4.0,-2.0,-1.0,-3.0,2.0,2.0
1702490942.5344634,-2.0,-1.0,1.0,4.0,3.0,1.0,-2.0,-4.0
1702490942.5344634,-1.0,1.0,-2.0,-3.0,-1.0,2.0,1.0,-2.0
1702490942.5344634,0.0,-2.0,1.0,-5.0,-7.0,-2.0,0.0,0.0
1702490942.5344634,-1.0,-2.0,-1.0,0.0,1.0,2.0,0.0,0.0
1702490942.5544813,0.0,-1.0,1.0,1.0,1.0,-4.0,0.0,2.0
1702490942.5544813,-2.0,-1.0,0.0,-3.0,-6.0,-1.0,-2.0,-3.0
1702490942.5544813,-1.0,-1.0,-3.0,-1.0,2.0,1.0,0.0,-2.0
1702490942.5544813,1.0,-1.0,-2.0,0.0,1.0,2.0,-2.0,-2.0
1702490942.5740583,0.0,2.0,-1.0,-12.0,-6.0,-1.0,0.0,-1.0
1702490942.5740583,-2.0,-2.0,-5.0,-10.0,-7.0,-6.0,-2.0,-1.0
1702490942.5740583,0.0,-1.0,9.0,37.0,18.0,4.0,-1.0,0.0
1702490942.5740583,-2.0,-2.0,-2.0,2.0,0.0,1.0,0.0,-2.0
1702490942.5940888,-1.0,-2.0,-2.0,0.0,-6.0,-3.0,-1.0,-1.0
1702490942.5940888,-3.0,-2.0,-2.0,-9.0,-11.0,-6.0,-3.0,-3.0
1702490942.5940888,0.0,-1.0,-5.0,-9.0,1.0,-1.0,-1.0,-1.0
1702490942.5940888,-2.0,-2.0,-2.0,-2.0,-2.0,-2.0,-2.0,-2.0
1702490942.6144338,1.0,-3.0,-1.0,0.0,3.0,-1.0,-1.0,-1.0
1702490942.6144338,-3.0,-1.0,-2.0,-2.0,-6.0,0.0,-1.0,-2.0
1702490942.6144338,-2.0,-3.0,-3.0,-7.0,-7.0,-3.0,-1.0,-2.0
1702490942.6144338,-2.0,0.0,0.0,1.0,1.0,1.0,-1.0,-2.0
1702490942.6440587,0.0,1.0,0.0,-1.0,-2.0,-5.0,0.0,2.0
1702490942.6440587,1.0,-2.0,-1.0,3.0,4.0,6.0,1.0,-1.0
1702490942.6440587,-1.0,-2.0,-3.0,-5.0,-5.0,-3.0,-4.0,-2.0
1702490942.6440587,-2.0,-1.0,0.0,-5.0,0.0,-2.0,0.0,0.0
1702490942.6541252,-1.0,-1.0,-2.0,3.0,-3.0,-4.0,-2.0,-2.0
1702490942.6541252,0.0,0.0,1.0,6.0,11.0,2.0,2.0,1.0
1702490942.664097,1.0,1.0,-1.0,-5.0,-6.0,-1.0,1.0,0.0
1702490942.664097,-1.0,-2.0,0.0,0.0,-3.0,0.0,0.0,1.0
1702490942.6744199,0.0,-3.0,-2.0,2.0,2.0,-1.0,-2.0,-1.0
1702490942.6744199,0.0,-3.0,0.0,-3.0,0.0,-2.0,-3.0,-1.0
1702490942.6744199,-2.0,-1.0,-3.0,-8.0,-7.0,-1.0,-2.0,-1.0
1702490942.6744199,1.0,4.0,1.0,0.0,3.0,0.0,-2.0,-1.0
1702490942.6940567,-2.0,8.0,-1.0,2.0,-2.0,-1.0,-1.0,-2.0
1702490942.6940567,0.0,5.0,-2.0,1.0,0.0,-1.0,-2.0,-1.0
1702490942.6940567,-1.0,0.0,0.0,-3.0,-1.0,-2.0,-2.0,-2.0
1702490942.6940567,-2.0,-7.0,-2.0,-4.0,0.0,1.0,-1.0,-2.0
1702490942.7144334,-1.0,-5.0,0.0,3.0,1.0,1.0,0.0,-1.0
1702490942.7144334,-3.0,-3.0,0.0,3.0,0.0,1.0,-2.0,-2.0
1702490942.7144334,0.0,-4.0,-1.0,-6.0,-8.0,-4.0,-1.0,0.0
1702490942.7144334,0.0,-2.0,-3.0,-2.0,5.0,-2.0,0.0,0.0
1702490942.7440562,-2.0,-1.0,0.0,1.0,4.0,4.0,1.0,0.0
1702490942.7440562,0.0,-3.0,-1.0,-1.0,-8.0,-3.0,-2.0,-1.0
1702490942.7440562,-3.0,-1.0,-2.0,-1.0,2.0,-2.0,0.0,-2.0
1702490942.7440562,-1.0,-2.0,-4.0,-3.0,0.0,2.0,0.0,-1.0
1702490942.7544339,0.0,-2.0,-3.0,-2.0,-3.0,-1.0,-2.0,-1.0
1702490942.7544339,0.0,-1.0,1.0,5.0,2.0,-2.0,1.0,0.0
1702490942.7642412,-2.0,-1.0,-2.0,-2.0,-4.0,-4.0,0.0,-3.0
1702490942.7642412,1.0,0.0,-1.0,-2.0,-2.0,-2.0,-1.0,0.0
1702490942.7746513,-2.0,-3.0,-1.0,-3.0,0.0,-1.0,-1.0,-1.0
1702490942.7746513,0.0,-1.0,-2.0,-2.0,-2.0,-4.0,-1.0,-1.0
1702490942.7746513,-2.0,-2.0,-1.0,-3.0,-1.0,2.0,0.0,-1.0
1702490942.7746513,0.0,1.0,0.0,2.0,0.0,0.0,-2.0,-2.0
1702490942.80425,0.0,-2.0,0.0,2.0,1.0,0.0,0.0,0.0
1702490942.80425,-2.0,-1.0,-2.0,-6.0,-1.0,0.0,-2.0,-1.0
1702490942.80425,0.0,-2.0,-2.0,-2.0,-3.0,-1.0,-1.0,-1.0
1702490942.80425,-1.0,0.0,1.0,2.0,4.0,0.0,-2.0,-1.0
1702490942.814517,-2.0,1.0,1.0,-1.0,-4.0,-1.0,-1.0,-1.0
1702490942.814517,0.0,1.0,-1.0,0.0,-1.0,0.0,0.0,-1.0
1702490942.8342607,-2.0,1.0,-2.0,-1.0,-8.0,-3.0,1.0,-2.0
1702490942.8342607,-3.0,-1.0,-2.0,-4.0,-6.0,-6.0,-2.0,-1.0
1702490942.8342607,-2.0,-1.0,-2.0,-6.0,8.0,3.0,-1.0,-2.0
1702490942.8342607,0.0,-1.0,-1.0,0.0,2.0,0.0,-1.0,-2.0
1702490942.8642523,-1.0,-1.0,0.0,0.0,0.0,1.0,-3.0,-1.0
1702490942.8642523,-1.0,-1.0,-1.0,-2.0,-7.0,-4.0,-2.0,-1.0
1702490942.8642523,-1.0,-1.0,1.0,-6.0,-1.0,-2.0,-3.0,-2.0
1702490942.8642523,-1.0,0.0,0.0,6.0,0.0,-2.0,-3.0,-1.0
1702490942.8642523,0.0,0.0,-1.0,3.0,1.0,0.0,-2.0,-2.0
1702490942.8642523,-1.0,-2.0,-3.0,-3.0,-1.0,-1.0,0.0,-1.0
1702490942.8744228,0.0,-2.0,-3.0,-5.0,-6.0,0.0,-1.0,-2.0
1702490942.8744228,-3.0,-1.0,-1.0,-6.0,-2.0,-1.0,1.0,-1.0
1702490942.8744228,-1.0,-1.0,-1.0,-12.0,-5.0,-3.0,-1.0,1.0
1702490942.8744228,-2.0,-1.0,4.0,31.0,17.0,4.0,-1.0,-1.0
1702490942.8942528,0.0,-1.0,-1.0,-1.0,-7.0,-3.0,0.0,-2.0
1702490942.8942528,-1.0,-2.0,-1.0,4.0,1.0,0.0,-1.0,-1.0
1702490942.90425,0.0,-2.0,-4.0,-4.0,-7.0,-2.0,-1.0,-1.0
1702490942.90425,-2.0,-2.0,-2.0,-14.0,-5.0,-2.0,-1.0,-1.0
1702490942.914285,0.0,-1.0,-1.0,-2.0,-2.0,3.0,-1.0,-1.0
1702490942.914285,0.0,0.0,-1.0,5.0,-1.0,-2.0,-1.0,-1.0
1702490942.914285,-1.0,-1.0,-1.0,0.0,13.0,4.0,0.0,1.0
1702490942.914285,-2.0,0.0,-2.0,-6.0,-4.0,-3.0,0.0,-1.0
1702490942.934648,-1.0,-1.0,-1.0,0.0,-3.0,-5.0,-1.0,-2.0
1702490942.934648,-2.0,-4.0,-2.0,-6.0,-5.0,-3.0,0.0,-1.0
1702490942.934648,-1.0,-1.0,0.0,-3.0,-7.0,-5.0,-1.0,-2.0
1702490942.934648,1.0,-1.0,-2.0,1.0,5.0,1.0,1.0,0.0
1702490942.9544923,0.0,-1.0,1.0,14.0,7.0,3.0,-1.0,-2.0
1702490942.9544923,-2.0,-2.0,-3.0,-6.0,-6.0,1.0,-2.0,-1.0
1702490942.9720948,-1.0,-1.0,-1.0,-6.0,-2.0,0.0,-1.0,-2.0
1702490942.9720948,-2.0,-1.0,0.0,0.0,-10.0,-6.0,-2.0,-1.0
1702490942.9780967,-2.0,0.0,-1.0,-3.0,-6.0,-5.0,-1.0,1.0
1702490942.9780967,-1.0,-1.0,-2.0,-8.0,9.0,2.0,-1.0,0.0
1702490942.9844708,-1.0,0.0,-2.0,10.0,-4.0,-2.0,-2.0,-2.0
1702490942.9844708,-1.0,-1.0,-4.0,-22.0,-2.0,1.0,-1.0,-1.0
1702490942.9936097,-2.0,-3.0,1.0,27.0,4.0,-2.0,-1.0,0.0
1702490942.9936097,1.0,1.0,4.0,3.0,3.0,-1.0,-1.0,1.0
1702490942.9936097,-2.0,0.0,-1.0,-5.0,-3.0,-2.0,-1.0,2.0
1702490942.9936097,1.0,-1.0,-1.0,1.0,-4.0,-2.0,-2.0,-1.0
1702490943.013648,1.0,-1.0,-5.0,-10.0,-5.0,-4.0,-1.0,0.0
1702490943.013648,0.0,-2.0,-3.0,-1.0,-1.0,-2.0,-1.0,-1.0
1702490943.0236087,-3.0,-2.0,-1.0,7.0,5.0,3.0,-1.0,-3.0
1702490943.0236087,-1.0,-1.0,0.0,-8.0,-1.0,-1.0,-1.0,-1.0
1702490943.0336442,-3.0,-4.0,-6.0,-4.0,-10.0,-3.0,-2.0,-1.0
1702490943.0336442,0.0,-1.0,1.0,8.0,-3.0,-6.0,-1.0,-2.0
1702490943.0336442,0.0,0.0,0.0,-7.0,6.0,3.0,1.0,0.0
1702490943.0336442,-1.0,2.0,1.0,16.0,10.0,5.0,0.0,0.0
1702490943.0736082,-3.0,-1.0,-1.0,-10.0,0.0,1.0,1.0,-1.0
1702490943.0736082,0.0,0.0,-1.0,-8.0,-3.0,-2.0,-1.0,0.0
1702490943.0736082,-1.0,-1.0,0.0,5.0,-10.0,-6.0,-1.0,-1.0
1702490943.0736082,0.0,-2.0,-1.0,-6.0,1.0,0.0,-2.0,-2.0
1702490943.0736082,-2.0,-1.0,-2.0,-6.0,-1.0,-1.0,-2.0,-2.0
1702490943.0736082,-3.0,0.0,-3.0,-5.0,-6.0,-3.0,-3.0,-2.0
1702490943.083613,-1.0,-3.0,0.0,0.0,4.0,0.0,1.0,0.0
1702490943.083613,-1.0,-3.0,-4.0,2.0,-1.0,2.0,0.0,-1.0
1702490943.0936165,-1.0,0.0,-1.0,-1.0,1.0,-1.0,-2.0,-1.0
1702490943.0936165,-1.0,-1.0,-3.0,-3.0,-3.0,-1.0,0.0,-2.0
1702490943.0936165,-1.0,1.0,-3.0,-4.0,-3.0,-1.0,0.0,0.0
1702490943.0936165,-1.0,0.0,-3.0,-7.0,-9.0,-4.0,-1.0,0.0
1702490943.1138167,0.0,0.0,1.0,10.0,6.0,-2.0,0.0,-2.0
1702490943.1138167,-3.0,-2.0,-2.0,-1.0,-3.0,1.0,-2.0,-1.0
1702490943.1138167,0.0,-2.0,1.0,5.0,9.0,3.0,-1.0,-1.0
1702490943.1138167,-1.0,-2.0,-1.0,1.0,-6.0,-3.0,0.0,-1.0
1702490943.13361,0.0,0.0,-1.0,-7.0,1.0,-1.0,-2.0,-1.0
1702490943.13361,-1.0,-2.0,-1.0,-1.0,-3.0,-2.0,-1.0,-2.0
1702490943.13361,-2.0,0.0,-3.0,-6.0,0.0,-4.0,-2.0,-2.0
1702490943.143609,-2.0,-1.0,5.0,14.0,11.0,4.0,1.0,2.0
1702490943.15401,0.0,-1.0,-2.0,-4.0,-2.0,3.0,-1.0,-1.0
1702490943.15401,0.0,1.0,1.0,-3.0,-2.0,-1.0,0.0,-2.0
1702490943.15401,-3.0,-3.0,-1.0,6.0,-1.0,-2.0,-1.0,-3.0
1702490943.15401,-2.0,-1.0,-3.0,-8.0,-11.0,-5.0,-1.0,-1.0
1702490943.1739829,-1.0,-1.0,0.0,0.0,-3.0,-2.0,0.0,0.0
1702490943.1739829,-1.0,0.0,-2.0,-7.0,7.0,2.0,-1.0,0.0
1702490943.1739829,0.0,0.0,2.0,10.0,1.0,1.0,0.0,0.0
1702490943.1739829,-1.0,-2.0,-2.0,-3.0,-4.0,-1.0,0.0,-2.0
1702490943.1936083,0.0,-1.0,-2.0,1.0,-2.0,-1.0,1.0,-1.0
1702490943.1936083,0.0,-3.0,-2.0,-8.0,-4.0,-4.0,-1.0,-1.0
1702490943.2036135,0.0,-1.0,-2.0,-1.0,-3.0,-2.0,-1.0,-1.0
1702490943.2036135,-1.0,-2.0,-1.0,0.0,1.0,-2.0,-2.0,-3.0
1702490943.2138186,-1.0,1.0,0.0,-7.0,-6.0,-1.0,-3.0,-3.0
1702490943.2138186,-3.0,-2.0,-3.0,5.0,-1.0,-1.0,-1.0,-2.0
1702490943.2236774,-2.0,-3.0,0.0,3.0,5.0,3.0,-1.0,0.0
1702490943.2236774,-1.0,1.0,1.0,8.0,-1.0,0.0,-3.0,-1.0
1702490943.2536085,0.0,-1.0,-1.0,2.0,-2.0,-1.0,0.0,-1.0
1702490943.2536085,-2.0,-2.0,-1.0,-12.0,-12.0,-5.0,-1.0,-1.0
1702490943.2536085,0.0,-3.0,-1.0,-6.0,0.0,-2.0,1.0,-1.0
1702490943.2536085,0.0,1.0,-1.0,-1.0,-6.0,-1.0,-1.0,-1.0
1702490943.2536085,-2.0,-3.0,-3.0,-13.0,-1.0,-1.0,-3.0,0.0
1702490943.2536085,-1.0,-4.0,0.0,19.0,5.0,5.0,1.0,0.0
1702490943.2536085,0.0,6.0,0.0,-8.0,0.0,-3.0,-2.0,1.0
1702490943.2636123,-3.0,0.0,1.0,-9.0,3.0,-1.0,-2.0,-2.0
1702490943.2739375,-2.0,0.0,-3.0,-2.0,-5.0,-2.0,0.0,0.0
1702490943.2739375,0.0,1.0,0.0,12.0,0.0,-2.0,-2.0,-2.0
1702490943.2739375,-2.0,-13.0,-2.0,-10.0,-3.0,-1.0,-1.0,-2.0
1702490943.2739375,0.0,-4.0,-3.0,-6.0,-8.0,-4.0,-2.0,-2.0
1702490943.3036084,0.0,6.0,2.0,8.0,10.0,2.0,-2.0,0.0
1702490943.3036084,-1.0,-3.0,-2.0,-5.0,-2.0,-3.0,2.0,-1.0
1702490943.3036084,-2.0,-5.0,-3.0,-1.0,-9.0,-2.0,2.0,-1.0
1702490943.3036084,0.0,6.0,-1.0,3.0,9.0,0.0,-1.0,0.0
1702490943.3139358,-2.0,-5.0,0.0,-2.0,-5.0,-1.0,1.0,-3.0
1702490943.3139358,1.0,5.0,2.0,-3.0,10.0,6.0,0.0,-1.0
1702490943.3236134,0.0,0.0,-1.0,-3.0,-7.0,-3.0,-5.0,-1.0
1702490943.3236134,-1.0,-3.0,-3.0,-7.0,-7.0,-6.0,-3.0,-1.0
1702490943.3339567,-1.0,1.0,4.0,15.0,9.0,6.0,-2.0,1.0
1702490943.3339567,-1.0,-2.0,-3.0,-3.0,-5.0,-5.0,-2.0,0.0
1702490943.3339567,-1.0,-1.0,-1.0,2.0,2.0,2.0,-2.0,-1.0
1702490943.3339567,-2.0,0.0,-6.0,-6.0,-4.0,0.0,-3.0,-2.0
1702490943.3536084,-1.0,-6.0,-7.0,-19.0,-2.0,-5.0,-2.0,-2.0
1702490943.3536084,-1.0,1.0,5.0,15.0,4.0,-1.0,-2.0,-2.0
1702490943.3536084,-2.0,6.0,-2.0,-8.0,-7.0,-2.0,-2.0,0.0
1702490943.3536084,-1.0,-5.0,1.0,3.0,3.0,0.0,1.0,0.0
1702490943.3738472,2.0,33.0,3.0,-4.0,-12.0,-6.0,-2.0,-2.0
1702490943.3738472,-1.0,-7.0,-2.0,1.0,2.0,2.0,-1.0,-3.0
1702490943.3836136,2.0,4.0,-2.0,-3.0,10.0,5.0,-1.0,1.0
1702490943.3836136,4.0,-5.0,-2.0,-5.0,-9.0,-3.0,-4.0,0.0
1702490943.393709,-8.0,-4.0,-1.0,0.0,0.0,-1.0,1.0,-2.0
1702490943.393709,0.0,1.0,-1.0,-5.0,-5.0,1.0,-1.0,1.0
1702490943.4336073,-2.0,-14.0,0.0,4.0,-10.0,-3.0,0.0,-1.0
1702490943.4336073,-2.0,17.0,3.0,8.0,18.0,3.0,0.0,-2.0
1702490943.4336073,1.0,-9.0,0.0,0.0,-3.0,-3.0,0.0,-1.0
1702490943.4336073,-3.0,0.0,-3.0,-1.0,-3.0,-3.0,-1.0,-1.0
1702490943.4336073,-3.0,-4.0,-2.0,-1.0,-6.0,-4.0,0.0,-4.0
1702490943.4336073,-2.0,-13.0,-4.0,-2.0,-1.0,-1.0,-1.0,-1.0
1702490943.4336073,0.0,-5.0,-1.0,4.0,2.0,0.0,-3.0,-1.0
1702490943.4336073,-1.0,-1.0,0.0,-3.0,-2.0,-2.0,-3.0,-1.0
1702490943.4436069,0.0,2.0,-1.0,-6.0,-5.0,-2.0,-1.0,1.0
1702490943.4436069,-3.0,-2.0,0.0,0.0,7.0,3.0,2.0,-1.0
1702490943.463608,-1.0,-2.0,0.0,7.0,4.0,2.0,-1.0,0.0
1702490943.463608,0.0,-2.0,-1.0,-4.0,-2.0,0.0,-3.0,0.0
1702490943.463608,-2.0,1.0,-2.0,2.0,-2.0,-4.0,-3.0,-1.0
1702490943.463608,-2.0,-1.0,-1.0,-4.0,-13.0,-5.0,0.0,0.0
1702490943.4737647,2.0,-9.0,-3.0,-10.0,3.0,-2.0,-1.0,0.0
1702490943.4737647,-2.0,-4.0,0.0,2.0,2.0,0.0,1.0,-3.0
1702490943.4737647,0.0,2.0,2.0,11.0,8.0,6.0,0.0,0.0
1702490943.4737647,0.0,0.0,1.0,-3.0,3.0,1.0,1.0,0.0
1702490943.503545,1.0,-1.0,-2.0,6.0,2.0,-1.0,-2.0,-2.0
1702490943.5045667,0.0,0.0,-3.0,-5.0,-6.0,-6.0,-3.0,-1.0
1702490943.5055616,-4.0,-5.0,-5.0,-23.0,-17.0,-8.0,-2.0,-4.0
1702490943.5055616,3.0,1.0,5.0,20.0,11.0,4.0,-1.0,0.0
1702490943.5401099,-1.0,-5.0,-1.0,-1.0,1.0,3.0,0.0,0.0
1702490943.5401099,0.0,0.0,-1.0,-8.0,0.0,-1.0,-2.0,-1.0
1702490943.5401099,-2.0,0.0,-2.0,4.0,1.0,-1.0,2.0,0.0
1702490943.5401099,-1.0,0.0,-3.0,-5.0,-9.0,-4.0,-4.0,-3.0
1702490943.5401099,0.0,-6.0,-2.0,-3.0,-5.0,-4.0,-1.0,-2.0
1702490943.5401099,-1.0,0.0,-1.0,2.0,-2.0,-1.0,0.0,0.0
1702490943.5401099,-2.0,-1.0,-1.0,2.0,1.0,0.0,1.0,0.0
1702490943.5401099,-2.0,-1.0,-2.0,-2.0,2.0,-1.0,-3.0,0.0
1702490943.560158,0.0,2.0,0.0,-4.0,-3.0,-1.0,-2.0,-1.0
1702490943.560158,-1.0,-25.0,-3.0,0.0,-2.0,-2.0,-2.0,-1.0
1702490943.560158,0.0,14.0,2.0,-1.0,-3.0,-5.0,-3.0,-1.0
1702490943.560158,-3.0,-1.0,-2.0,-3.0,7.0,4.0,1.0,-1.0
1702490943.5801692,-4.0,-7.0,-4.0,-7.0,-1.0,-2.0,-1.0,-1.0
1702490943.5801692,-2.0,4.0,0.0,8.0,-1.0,-1.0,0.0,0.0
1702490943.5801692,2.0,-1.0,-1.0,-3.0,10.0,2.0,-1.0,-3.0
1702490943.5801692,-3.0,-7.0,-1.0,-3.0,-10.0,-3.0,1.0,-2.0
1702490943.6004035,-3.0,-1.0,-3.0,-3.0,-3.0,-3.0,-1.0,-1.0
1702490943.6004035,-1.0,3.0,-4.0,-8.0,-13.0,-4.0,-1.0,0.0
1702490943.6004035,1.0,4.0,2.0,6.0,7.0,0.0,-1.0,-1.0
1702490943.6004035,1.0,0.0,-1.0,-5.0,-3.0,-2.0,-1.0,-2.0
1702490943.6205099,-1.0,-4.0,-3.0,-6.0,-7.0,-1.0,-1.0,0.0
1702490943.6205099,-2.0,2.0,2.0,5.0,6.0,0.0,0.0,-4.0
1702490943.6205099,-1.0,-5.0,-1.0,2.0,2.0,2.0,-1.0,-2.0
1702490943.6205099,0.0,1.0,-1.0,-3.0,-7.0,-1.0,0.0,0.0
1702490943.6304133,-1.0,1.0,0.0,4.0,3.0,-2.0,-2.0,-3.0
1702490943.6304133,-2.0,-1.0,-2.0,-3.0,0.0,1.0,0.0,0.0
1702490943.6404247,-2.0,-4.0,-4.0,2.0,1.0,-1.0,-1.0,-1.0
1702490943.6404247,-2.0,-4.0,-1.0,-3.0,-6.0,-4.0,-3.0,-1.0
1702490943.660377,0.0,10.0,2.0,3.0,-2.0,-3.0,-2.0,0.0
1702490943.660377,0.0,3.0,1.0,-5.0,17.0,6.0,0.0,-2.0
1702490943.660377,0.0,-18.0,-4.0,0.0,-6.0,-1.0,0.0,0.0
1702490943.660377,-1.0,-3.0,-2.0,-2.0,-5.0,-5.0,-1.0,-1.0
1702490943.7101705,2.0,6.0,-4.0,4.0,-6.0,-1.0,-2.0,1.0
1702490943.7101705,-3.0,6.0,11.0,6.0,-3.0,-1.0,-2.0,0.0
1702490943.7101705,-1.0,5.0,-4.0,-21.0,1.0,0.0,-1.0,0.0
1702490943.7101705,-1.0,-1.0,-3.0,0.0,-4.0,-1.0,-3.0,-3.0
1702490943.7101705,-3.0,-12.0,-2.0,-6.0,2.0,0.0,-1.0,-1.0
1702490943.7101705,0.0,-1.0,-3.0,-2.0,-4.0,-4.0,-2.0,-3.0
1702490943.7101705,-2.0,-3.0,-4.0,12.0,1.0,-3.0,-2.0,-3.0
1702490943.7101705,2.0,1.0,5.0,-8.0,1.0,5.0,1.0,4.0
1702490943.7205234,1.0,0.0,2.0,-1.0,1.0,0.0,0.0,0.0
1702490943.7205234,-2.0,-2.0,-5.0,-1.0,-2.0,-1.0,0.0,0.0
1702490943.7205234,-1.0,-1.0,3.0,19.0,-1.0,-1.0,-1.0,-2.0
1702490943.7205234,-2.0,1.0,-6.0,-27.0,-6.0,-3.0,-3.0,-4.0
1702490943.7401729,-5.0,-7.0,4.0,0.0,-6.0,-2.0,-1.0,4.0
1702490943.7401729,-1.0,3.0,-22.0,7.0,2.0,0.0,0.0,-3.0
1702490943.7401729,0.0,1.0,-1.0,-6.0,-1.0,1.0,-1.0,-3.0
1702490943.7401729,-2.0,-2.0,-7.0,-2.0,6.0,5.0,-1.0,-3.0
1702490943.7601674,0.0,-2.0,7.0,6.0,3.0,2.0,0.0,1.0
1702490943.7601674,-2.0,-4.0,-1.0,15.0,-1.0,-2.0,0.0,0.0
1702490943.7601674,-1.0,2.0,8.0,-29.0,-7.0,-2.0,-4.0,0.0
1702490943.7601674,-1.0,-2.0,-8.0,8.0,1.0,-2.0,1.0,2.0
1702490943.780429,-2.0,1.0,-27.0,-16.0,-7.0,-1.0,-1.0,-4.0
1702490943.780429,2.0,-1.0,9.0,6.0,-1.0,-1.0,-1.0,0.0
1702490943.780429,0.0,1.0,-4.0,4.0,1.0,-1.0,-1.0,-1.0
1702490943.780429,-1.0,1.0,16.0,-2.0,-4.0,-1.0,-2.0,-2.0
1702490943.800169,0.0,-3.0,2.0,4.0,1.0,0.0,0.0,-4.0
1702490943.800169,-4.0,15.0,7.0,-1.0,-4.0,-1.0,-1.0,-1.0
1702490943.800169,-1.0,-46.0,-5.0,-3.0,3.0,1.0,-1.0,1.0
1702490943.800169,-1.0,23.0,-7.0,-2.0,-5.0,-3.0,-2.0,-2.0
1702490943.8104835,-2.0,-5.0,-13.0,19.0,3.0,0.0,-1.0,-2.0
1702490943.8104835,1.0,1.0,12.0,-19.0,2.0,1.0,0.0,1.0
1702490943.830528,-1.0,14.0,-3.0,-8.0,-1.0,1.0,1.0,11.0
1702490943.830528,3.0,-20.0,8.0,7.0,0.0,-2.0,-2.0,-10.0
1702490943.840555,-8.0,7.0,2.0,-1.0,0.0,-1.0,-1.0,-4.0
1702490943.840555,-6.0,-1.0,13.0,-6.0,-5.0,-2.0,-2.0,-1.0
1702490943.840555,-2.0,1.0,-6.0,6.0,0.0,0.0,-1.0,0.0
1702490943.840555,1.0,-4.0,-3.0,1.0,1.0,-1.0,-1.0,2.0
1702490943.8604321,8.0,6.0,12.0,-5.0,-1.0,-1.0,-1.0,2.0
1702490943.8604321,-1.0,-11.0,-13.0,-10.0,-6.0,-1.0,-4.0,-1.0
1702490943.8604321,-4.0,7.0,-3.0,3.0,-3.0,0.0,0.0,-4.0
1702490943.8604321,-4.0,-2.0,1.0,7.0,-1.0,-2.0,0.0,-1.0
1702490943.9001708,-4.0,-1.0,-2.0,-28.0,-16.0,-3.0,-1.0,-3.0
1702490943.9001708,8.0,-2.0,-4.0,40.0,26.0,9.0,2.0,6.0
1702490943.9001708,1.0,-1.0,2.0,5.0,1.0,2.0,-5.0,-2.0
1702490943.9001708,1.0,2.0,0.0,0.0,0.0,3.0,1.0,-1.0
1702490943.9001708,-4.0,-3.0,-5.0,-2.0,1.0,-3.0,-2.0,-3.0
1702490943.9001708,22.0,-4.0,-2.0,-18.0,-11.0,-5.0,2.0,4.0
1702490943.9001708,-21.0,4.0,1.0,-2.0,-4.0,3.0,-1.0,-5.0
1702490943.9001708,-7.0,-18.0,-4.0,8.0,8.0,0.0,2.0,-1.0
1702490943.920169,-6.0,-1.0,-2.0,-5.0,-3.0,-1.0,0.0,1.0
1702490943.920169,11.0,-7.0,1.0,1.0,-4.0,-5.0,-3.0,-2.0
1702490943.920169,7.0,5.0,-1.0,-8.0,1.0,1.0,-7.0,-4.0
1702490943.920169,4.0,6.0,-2.0,-4.0,-5.0,-5.0,-3.0,0.0
1702490943.9302037,-4.0,-4.0,6.0,6.0,11.0,0.0,-1.0,-1.0
1702490943.9302037,-15.0,-17.0,-10.0,-4.0,-8.0,-3.0,-6.0,-3.0
1702490943.9405277,5.0,-1.0,4.0,14.0,16.0,3.0,4.0,1.0
1702490943.9405277,-4.0,5.0,-2.0,-6.0,-3.0,0.0,0.0,-2.0
1702490943.9604135,8.0,15.0,5.0,1.0,-1.0,0.0,-2.0,0.0
1702490943.9604135,-7.0,-18.0,-10.0,-11.0,1.0,1.0,2.0,-2.0
1702490943.9604135,-7.0,-41.0,-9.0,-7.0,-8.0,-6.0,-1.0,-6.0
1702490943.9604135,2.0,18.0,7.0,5.0,-1.0,-1.0,-1.0,2.0
1702490943.9801996,0.0,-9.0,2.0,-1.0,-4.0,-1.0,0.0,-2.0
1702490943.9801996,-7.0,-20.0,-4.0,-6.0,-9.0,-2.0,-1.0,-1.0
1702490943.9801996,7.0,71.0,6.0,4.0,3.0,-3.0,0.0,0.0
1702490943.9801996,-14.0,-30.0,-7.0,4.0,-1.0,0.0,0.0,0.0
1702490943.9905508,-1.0,-22.0,-1.0,3.0,4.0,3.0,1.0,0.0
1702490943.9905508,-3.0,30.0,1.0,-1.0,3.0,2.0,-2.0,-3.0
1702490944.0005286,0.0,-47.0,-11.0,0.0,-7.0,-6.0,-2.0,-1.0
1702490944.0005286,-5.0,32.0,5.0,-4.0,-4.0,-3.0,-4.0,-4.0
1702490944.0212014,10.0,1.0,2.0,0.0,-6.0,-2.0,-1.0,1.0
1702490944.0212014,-6.0,38.0,-5.0,-13.0,-7.0,-3.0,-1.0,-4.0
1702490944.0222924,0.0,-16.0,2.0,-1.0,-7.0,-4.0,1.0,-1.0
1702490944.0222924,-1.0,-50.0,-8.0,16.0,11.0,3.0,1.0,1.0
1702490944.042975,4.0,0.0,-10.0,-13.0,-3.0,-1.0,0.0,-1.0
1702490944.042975,-5.0,-10.0,3.0,3.0,-4.0,-5.0,-3.0,-2.0
1702490944.042975,0.0,16.0,6.0,7.0,6.0,1.0,2.0,1.0
1702490944.042975,-3.0,-18.0,-7.0,-10.0,-4.0,1.0,0.0,-1.0
1702490944.05339,-3.0,34.0,8.0,4.0,-2.0,0.0,-2.0,0.0
1702490944.05339,3.0,-21.0,-7.0,-12.0,8.0,3.0,1.0,0.0
1702490944.0633206,-1.0,33.0,-3.0,-8.0,-16.0,-8.0,-2.0,-3.0
1702490944.0633206,0.0,14.0,3.0,-2.0,-2.0,-2.0,-2.0,-1.0
1702490944.0734131,-5.0,78.0,8.0,3.0,7.0,5.0,1.0,-1.0
1702490944.0734131,-6.0,11.0,1.0,0.0,-5.0,0.0,-2.0,-2.0
1702490944.0834253,-3.0,-54.0,-8.0,4.0,3.0,-1.0,2.0,1.0
1702490944.0834253,5.0,24.0,6.0,-3.0,-4.0,-4.0,-5.0,0.0
1702490944.1004746,-3.0,7.0,-3.0,2.0,-4.0,-1.0,-2.0,-2.0
1702490944.1004746,-5.0,-24.0,1.0,3.0,-1.0,0.0,-2.0,0.0
1702490944.1004746,0.0,18.0,8.0,0.0,1.0,-1.0,-2.0,-1.0
1702490944.1004746,0.0,-3.0,-7.0,-7.0,-1.0,-2.0,2.0,1.0
1702490944.1105003,-4.0,-57.0,-1.0,2.0,1.0,-4.0,-1.0,-3.0
1702490944.1105003,2.0,4.0,1.0,2.0,0.0,-2.0,-2.0,-1.0
1702490944.1207995,3.0,14.0,-1.0,-4.0,0.0,-2.0,-1.0,0.0
1702490944.1207995,-10.0,2.0,-3.0,-4.0,0.0,0.0,0.0,1.0
1702490944.1404412,-3.0,-9.0,1.0,2.0,0.0,-2.0,-3.0,-1.0
1702490944.1404412,-4.0,-24.0,-7.0,-2.0,-3.0,-3.0,-1.0,4.0
1702490944.1404412,-3.0,13.0,1.0,-3.0,-2.0,-1.0,-1.0,-3.0
1702490944.1404412,-3.0,-32.0,-5.0,-1.0,-1.0,-3.0,0.0,0.0
1702490944.1606655,4.0,9.0,0.0,6.0,0.0,0.0,-1.0,-10.0
1702490944.1606655,-4.0,-12.0,2.0,-3.0,-1.0,0.0,1.0,-8.0
1702490944.1606655,3.0,9.0,-4.0,-3.0,-5.0,-7.0,8.0,8.0
1702490944.1606655,-6.0,-81.0,-18.0,-4.0,-3.0,-2.0,-2.0,5.0
1702490944.1707113,-4.0,-24.0,-4.0,1.0,-1.0,-3.0,-12.0,-12.0
1702490944.1707113,0.0,19.0,0.0,-6.0,0.0,0.0,5.0,-2.0
1702490944.1806905,-16.0,-78.0,1.0,-3.0,-2.0,0.0,-4.0,-14.0
1702490944.1806905,21.0,29.0,-1.0,-3.0,-6.0,-3.0,3.0,9.0
1702490944.2204416,-12.0,24.0,-1.0,1.0,3.0,1.0,1.0,-10.0
1702490944.2204416,-6.0,5.0,2.0,4.0,0.0,-2.0,-15.0,-10.0
1702490944.2304432,6.0,3.0,-6.0,-2.0,-1.0,3.0,6.0,0.0
1702490944.2304432,26.0,21.0,8.0,0.0,-1.0,-16.0,-6.0,49.0
1702490944.2304432,-24.0,-26.0,-5.0,-4.0,-2.0,15.0,-1.0,-59.0
1702490944.2304432,-1.0,12.0,6.0,6.0,2.0,3.0,8.0,15.0
1702490944.2304432,2.0,8.0,-2.0,1.0,0.0,3.0,-5.0,-6.0
1702490944.2304432,14.0,15.0,6.0,0.0,-3.0,-5.0,-13.0,-20.0
1702490944.2407987,4.0,17.0,0.0,0.0,-3.0,-12.0,6.0,43.0
1702490944.2407987,-7.0,-25.0,-7.0,-2.0,0.0,0.0,-1.0,-23.0
1702490944.2407987,8.0,11.0,2.0,1.0,0.0,2.0,-8.0,7.0
1702490944.2407987,-12.0,-53.0,-7.0,-1.0,2.0,4.0,-1.0,34.0
1702490944.2604403,-5.0,-7.0,-1.0,-4.0,-4.0,-4.0,-1.0,-32.0
1702490944.2604403,3.0,10.0,-4.0,-3.0,-4.0,-9.0,-10.0,6.0
1702490944.2604403,18.0,9.0,-2.0,-2.0,-3.0,2.0,-1.0,10.0
1702490944.2604403,-22.0,19.0,5.0,5.0,3.0,-3.0,-16.0,-34.0
1702490944.2807138,-2.0,-29.0,-6.0,-5.0,-8.0,8.0,40.0,47.0
1702490944.2807138,7.0,-7.0,-3.0,-5.0,-1.0,6.0,16.0,41.0
1702490944.2807138,-10.0,8.0,1.0,-2.0,-1.0,3.0,-12.0,-38.0
1702490944.2807138,2.0,24.0,-6.0,-2.0,-7.0,-1.0,11.0,-14.0
1702490944.320441,4.0,0.0,3.0,3.0,4.0,-4.0,-18.0,14.0
1702490944.320441,-10.0,10.0,1.0,-5.0,-3.0,-5.0,27.0,-8.0
1702490944.320441,1.0,-13.0,-2.0,-2.0,-2.0,0.0,7.0,14.0
1702490944.320441,-11.0,12.0,1.0,-2.0,-2.0,0.0,-4.0,-30.0
1702490944.320441,-7.0,-14.0,-3.0,-2.0,1.0,-3.0,-12.0,2.0
1702490944.320441,6.0,2.0,-3.0,-2.0,-2.0,0.0,-8.0,-1.0
1702490944.320441,-12.0,12.0,3.0,3.0,-4.0,-10.0,-6.0,-18.0
1702490944.320441,0.0,11.0,0.0,0.0,5.0,1.0,6.0,3.0
1702490944.340836,13.0,-3.0,-2.0,1.0,4.0,7.0,-7.0,11.0
1702490944.340836,-10.0,1.0,-1.0,-1.0,0.0,5.0,-6.0,-7.0
1702490944.340836,-5.0,6.0,2.0,2.0,2.0,4.0,11.0,7.0
1702490944.340836,29.0,10.0,-2.0,-3.0,-7.0,-3.0,5.0,7.0
1702490944.3604414,-40.0,-7.0,-5.0,-6.0,-10.0,-6.0,-4.0,-11.0
1702490944.3604414,10.0,11.0,5.0,0.0,2.0,-2.0,-5.0,0.0
1702490944.3604414,-14.0,-7.0,-5.0,-5.0,-9.0,-8.0,7.0,6.0
1702490944.3604414,-4.0,2.0,0.0,2.0,-7.0,-2.0,4.0,-2.0
1702490944.3807113,14.0,-1.0,-2.0,3.0,11.0,-2.0,-15.0,0.0
1702490944.3807113,-10.0,-2.0,-3.0,0.0,2.0,5.0,10.0,-11.0
1702490944.3904462,-1.0,3.0,-1.0,-1.0,4.0,2.0,-5.0,1.0
1702490944.3904462,-3.0,7.0,1.0,3.0,3.0,5.0,1.0,-4.0
1702490944.4007409,9.0,-1.0,-3.0,-4.0,-7.0,-6.0,-6.0,1.0
1702490944.4007409,-2.0,-2.0,-2.0,-3.0,-9.0,-7.0,-12.0,-6.0
1702490944.4007409,6.0,5.0,-2.0,0.0,-3.0,0.0,-2.0,5.0
1702490944.4007409,-18.0,-5.0,1.0,4.0,2.0,2.0,1.0,-5.0
1702490944.4206808,7.0,1.0,2.0,-2.0,4.0,-1.0,2.0,4.0
1702490944.4206808,3.0,-1.0,-1.0,-2.0,-1.0,-4.0,-4.0,-1.0
1702490944.4206808,-7.0,2.0,-4.0,-6.0,-6.0,-1.0,-5.0,-2.0
1702490944.4206808,2.0,5.0,2.0,4.0,11.0,3.0,3.0,-1.0
1702490944.4504442,2.0,-1.0,-1.0,6.0,-2.0,-1.0,3.0,-5.0
1702490944.4504442,7.0,4.0,2.0,0.0,3.0,2.0,-3.0,1.0
1702490944.4504442,1.0,2.0,0.0,-7.0,1.0,-1.0,0.0,4.0
1702490944.4504442,-9.0,0.0,-4.0,-9.0,-7.0,-6.0,-7.0,-5.0
1702490944.4605956,6.0,0.0,-2.0,8.0,3.0,5.0,4.0,-1.0
1702490944.4605956,0.0,-2.0,-7.0,-17.0,-18.0,-16.0,0.0,3.0
1702490944.4605956,-5.0,0.0,3.0,12.0,4.0,10.0,5.0,-1.0
1702490944.4605956,-5.0,-3.0,-1.0,-16.0,-16.0,-1.0,-4.0,-5.0
1702490944.480441,1.0,-3.0,3.0,18.0,14.0,-11.0,-6.0,-3.0
1702490944.480441,7.0,4.0,-1.0,5.0,-7.0,7.0,-2.0,-1.0
1702490944.4904494,10.0,-3.0,-1.0,4.0,21.0,4.0,2.0,0.0
1702490944.4904494,1.0,3.0,-1.0,-4.0,-5.0,2.0,2.0,0.0
1702490944.5004447,2.0,-2.0,-6.0,-17.0,-10.0,-12.0,2.0,2.0
1702490944.5004447,-7.0,2.0,0.0,5.0,3.0,2.0,-6.0,-4.0
1702490944.5104434,8.0,1.0,1.0,-3.0,-8.0,-9.0,-6.0,1.0
1702490944.5104434,-5.0,2.0,2.0,6.0,10.0,9.0,-6.0,-6.0
1702490944.540444,-3.0,-4.0,2.0,-8.0,-9.0,7.0,6.0,-2.0
1702490944.540444,5.0,-3.0,-1.0,4.0,4.0,1.0,0.0,0.0
1702490944.540444,-6.0,1.0,1.0,9.0,4.0,-4.0,-8.0,-1.0
1702490944.540444,-8.0,-2.0,-3.0,-11.0,-2.0,1.0,4.0,-6.0
1702490944.540444,2.0,-1.0,-3.0,-4.0,-9.0,-7.0,2.0,3.0
1702490944.540444,-4.0,-1.0,0.0,5.0,8.0,5.0,-6.0,-3.0
1702490944.540444,-9.0,-3.0,-3.0,-5.0,-3.0,-7.0,-9.0,-6.0
1702490944.540444,-3.0,0.0,-3.0,-8.0,-14.0,-7.0,2.0,1.0
1702490944.560113,3.0,-2.0,6.0,12.0,22.0,6.0,-4.0,-4.0
1702490944.560113,-5.0,-3.0,1.0,5.0,-6.0,-3.0,0.0,-1.0
1702490944.5671287,-3.0,-1.0,-3.0,-5.0,-5.0,-9.0,-2.0,2.0
1702490944.5671287,3.0,0.0,-2.0,10.0,10.0,1.0,0.0,2.0
1702490944.5855827,1.0,1.0,-5.0,-17.0,-12.0,-8.0,-3.0,1.0
1702490944.5855827,-5.0,0.0,-3.0,-5.0,-2.0,-6.0,0.0,-1.0
1702490944.5855827,1.0,-2.0,-5.0,-15.0,-21.0,-8.0,19.0,10.0
1702490944.5855827,-5.0,-3.0,-1.0,2.0,10.0,0.0,-10.0,-7.0
1702490944.6059246,5.0,0.0,0.0,1.0,3.0,22.0,3.0,0.0
1702490944.6059246,-9.0,-2.0,-2.0,-1.0,-2.0,-10.0,-11.0,-6.0
1702490944.6059246,2.0,-2.0,0.0,8.0,9.0,23.0,7.0,1.0
1702490944.6059246,-3.0,-2.0,1.0,-2.0,-7.0,-12.0,3.0,3.0
1702490944.6159647,0.0,0.0,-4.0,-2.0,-12.0,-11.0,-1.0,0.0
1702490944.6159647,3.0,0.0,1.0,-3.0,-1.0,-8.0,-2.0,-1.0
1702490944.6255844,0.0,1.0,1.0,-4.0,-2.0,-3.0,-6.0,0.0
1702490944.6255844,-1.0,0.0,-1.0,3.0,6.0,5.0,0.0,-1.0
1702490944.6455846,-6.0,-2.0,0.0,9.0,19.0,16.0,-2.0,-5.0
1702490944.6455846,2.0,-2.0,-6.0,-10.0,-14.0,1.0,-1.0,1.0
1702490944.6455846,-3.0,-2.0,0.0,3.0,1.0,-6.0,-9.0,-4.0
1702490944.6455846,-2.0,-1.0,-3.0,-1.0,-3.0,-1.0,0.0,-1.0
1702490944.6658506,7.0,2.0,-3.0,-7.0,-16.0,-9.0,4.0,7.0
1702490944.6658506,-6.0,-3.0,-4.0,-28.0,2.0,7.0,-10.0,-6.0
1702490944.6658506,1.0,3.0,7.0,24.0,13.0,2.0,-4.0,-1.0
1702490944.6658506,-6.0,-3.0,-3.0,0.0,-6.0,-8.0,-2.0,0.0
1702490944.6756258,-5.0,-3.0,-3.0,2.0,8.0,5.0,-5.0,-2.0
1702490944.6756258,-1.0,-2.0,-2.0,-8.0,1.0,-3.0,0.0,-2.0
1702490944.6855927,-4.0,0.0,0.0,-4.0,0.0,-6.0,-5.0,-6.0
1702490944.6855927,0.0,1.0,3.0,0.0,0.0,1.0,-5.0,-2.0
1702490944.6955857,-2.0,-1.0,0.0,-7.0,-6.0,-5.0,2.0,0.0
1702490944.6955857,1.0,0.0,0.0,10.0,1.0,-2.0,1.0,3.0
1702490944.715586,-9.0,3.0,-3.0,-8.0,3.0,5.0,-6.0,-4.0
1702490944.715586,0.0,16.0,6.0,18.0,-4.0,5.0,0.0,-2.0
1702490944.7257829,2.0,-20.0,-3.0,-5.0,4.0,-6.0,-7.0,-4.0
1702490944.7257829,2.0,2.0,-2.0,0.0,2.0,5.0,-2.0,-2.0
1702490944.7257829,2.0,-1.0,-3.0,-7.0,-12.0,-7.0,-1.0,2.0
1702490944.7257829,-1.0,-7.0,-4.0,-4.0,2.0,0.0,-1.0,-1.0
1702490944.7357836,-4.0,-5.0,7.0,-1.0,-4.0,-3.0,-4.0,-3.0
1702490944.7357836,4.0,15.0,9.0,7.0,-9.0,-6.0,3.0,3.0
1702490944.7555804,-4.0,-48.0,-31.0,-9.0,2.0,1.0,-4.0,-4.0
1702490944.7555804,3.0,-8.0,7.0,0.0,11.0,8.0,7.0,4.0
1702490944.7658494,0.0,95.0,6.0,4.0,-2.0,0.0,-1.0,9.0
1702490944.7658494,-4.0,-65.0,-26.0,4.0,10.0,-3.0,-4.0,-11.0
1702490944.7658494,-4.0,78.0,38.0,20.0,-15.0,-22.0,-2.0,-1.0
1702490944.7658494,11.0,-25.0,-42.0,-26.0,-3.0,10.0,-3.0,-3.0
1702490944.7860043,-1.0,-10.0,-27.0,-7.0,-4.0,-3.0,1.0,-2.0
1702490944.7860043,1.0,26.0,8.0,1.0,-3.0,-4.0,3.0,5.0
1702490944.7860043,2.0,-37.0,-33.0,-11.0,2.0,9.0,0.0,1.0
1702490944.7860043,-1.0,16.0,44.0,20.0,6.0,-6.0,-5.0,-2.0
1702490944.806211,4.0,19.0,-10.0,-35.0,-11.0,-6.0,-2.0,-3.0
1702490944.806211,-13.0,-72.0,-4.0,27.0,4.0,-9.0,-1.0,-2.0
1702490944.806211,2.0,-9.0,25.0,14.0,3.0,2.0,4.0,-3.0
1702490944.806211,2.0,-8.0,-52.0,-28.0,-5.0,-6.0,1.0,7.0
1702490944.825863,-1.0,68.0,69.0,-7.0,-11.0,-6.0,-3.0,-4.0
1702490944.825863,-16.0,-76.0,-63.0,-12.0,-6.0,4.0,-1.0,-6.0
1702490944.825863,-11.0,26.0,-7.0,0.0,-5.0,10.0,0.0,-3.0
1702490944.825863,-8.0,12.0,19.0,17.0,16.0,5.0,-1.0,-1.0
1702490944.8460908,4.0,-29.0,-24.0,2.0,8.0,-4.0,1.0,0.0
1702490944.8460908,7.0,28.0,16.0,2.0,7.0,9.0,-1.0,3.0
1702490944.8460908,2.0,2.0,14.0,-9.0,-6.0,-5.0,-1.0,-1.0
1702490944.8460908,-1.0,-10.0,10.0,-4.0,-14.0,-10.0,-1.0,-2.0
1702490944.856125,-9.0,-47.0,-44.0,1.0,-4.0,0.0,-2.0,-4.0
1702490944.856125,0.0,39.0,56.0,1.0,-3.0,-7.0,0.0,9.0
1702490944.895863,-2.0,-28.0,-31.0,-5.0,6.0,6.0,-2.0,-21.0
1702490944.895863,-3.0,15.0,57.0,-2.0,-10.0,-4.0,-1.0,-2.0
1702490944.895863,-5.0,-26.0,-24.0,1.0,4.0,1.0,1.0,-2.0
1702490944.895863,6.0,21.0,-9.0,3.0,1.0,3.0,-2.0,-3.0
1702490944.895863,-3.0,3.0,43.0,1.0,-4.0,-5.0,-1.0,5.0
1702490944.895863,7.0,15.0,-20.0,5.0,-4.0,-6.0,0.0,3.0
