1702490608.487449,-1.0,-4.0,-5.0,-20.0,-7.0,-3.0,0.0,-2.0
1702490608.487449,-1.0,0.0,0.0,5.0,4.0,0.0,1.0,-1.0
1702490608.4975784,-1.0,-2.0,0.0,9.0,-4.0,1.0,-1.0,0.0
1702490608.4975784,-2.0,-1.0,0.0,-7.0,-2.0,-2.0,-1.0,-2.0
1702490608.5075722,2.0,1.0,0.0,-2.0,6.0,0.0,-1.0,0.0
1702490608.5075722,-2.0,-3.0,-1.0,-5.0,-7.0,-4.0,-2.0,-2.0
1702490608.5174615,-2.0,-3.0,-1.0,0.0,-1.0,1.0,0.0,-2.0
1702490608.5174615,1.0,3.0,-2.0,0.0,2.0,0.0,-1.0,0.0
1702490608.5374682,-1.0,1.0,1.0,5.0,6.0,3.0,0.0,-1.0
1702490608.5374682,-2.0,-4.0,-1.0,2.0,-4.0,-4.0,-3.0,-2.0
1702490608.5374682,2.0,0.0,-5.0,-5.0,-1.0,-1.0,-3.0,0.0
1702490608.5374682,-5.0,-8.0,0.0,0.0,-8.0,-4.0,-3.0,-2.0
1702490608.5475254,1.0,9.0,5.0,-3.0,-3.0,0.0,0.0,1.0
1702490608.5475254,0.0,-4.0,-4.0,0.0,2.0,-1.0,0.0,-3.0
1702490608.5575964,0.0,1.0,0.0,-7.0,4.0,3.0,-1.0,-1.0
1702490608.5575964,-1.0,0.0,-2.0,1.0,-5.0,-3.0,-2.0,1.0
1702490608.577505,-3.0,-2.0,15.0,2.0,-11.0,-7.0,-4.0,-4.0
1702490608.577505,2.0,1.0,-38.0,-5.0,-1.0,1.0,-1.0,1.0
1702490608.577505,-4.0,-3.0,-1.0,1.0,6.0,1.0,0.0,0.0
1702490608.577505,1.0,2.0,4.0,2.0,6.0,6.0,4.0,1.0
1702490608.5974596,-5.0,-12.0,-7.0,-4.0,-1.0,-1.0,-1.0,-2.0
1702490608.5974596,0.0,10.0,19.0,4.0,-2.0,-1.0,1.0,-1.0
1702490608.5974596,-1.0,-2.0,9.0,0.0,-9.0,-5.0,-2.0,-4.0
1702490608.5974596,-2.0,-5.0,-10.0,-5.0,-5.0,-5.0,-3.0,-2.0
1702490608.6077929,-6.0,-13.0,-6.0,-4.0,-4.0,-5.0,-1.0,-2.0
1702490608.6077929,-1.0,-2.0,1.0,1.0,8.0,5.0,2.0,1.0
1702490608.617794,0.0,6.0,8.0,-3.0,-3.0,-2.0,-1.0,0.0
1702490608.617794,1.0,6.0,5.0,2.0,0.0,0.0,0.0,-1.0
1702490608.6375268,-2.0,-7.0,-15.0,0.0,1.0,1.0,-2.0,-2.0
1702490608.6375268,-1.0,1.0,6.0,-1.0,-3.0,-1.0,-3.0,-2.0
1702490608.6375268,-2.0,-2.0,2.0,-1.0,-5.0,-3.0,-2.0,-1.0
1702490608.6375268,0.0,2.0,-5.0,3.0,9.0,3.0,-1.0,-1.0
1702490608.6576633,0.0,-1.0,-8.0,-2.0,5.0,3.0,-1.0,0.0
1702490608.6576633,0.0,0.0,5.0,0.0,-2.0,-1.0,-1.0,0.0
1702490608.6576633,0.0,-1.0,-4.0,-3.0,-2.0,-2.0,-2.0,-1.0
1702490608.6576633,0.0,-2.0,2.0,-3.0,-9.0,-5.0,-2.0,-2.0
1702490608.6678085,-3.0,6.0,8.0,2.0,4.0,1.0,0.0,6.0
1702490608.6678085,2.0,-6.0,-20.0,-2.0,-1.0,-2.0,-2.0,-3.0
1702490608.6777935,3.0,-4.0,-23.0,-2.0,-4.0,-2.0,0.0,4.0
1702490608.6777935,-4.0,-4.0,0.0,-3.0,2.0,0.0,-1.0,-10.0
1702490608.6973507,0.0,4.0,6.0,3.0,-2.0,0.0,0.0,1.0
1702490608.6973507,-3.0,-2.0,7.0,-3.0,-3.0,-1.0,-2.0,0.0
1702490608.6973507,-2.0,-1.0,-1.0,-1.0,0.0,-2.0,-1.0,-1.0
1702490608.6973507,-1.0,-4.0,-15.0,-1.0,0.0,-1.0,0.0,5.0
1702490608.7177687,2.0,3.0,0.0,0.0,-6.0,-2.0,-1.0,-4.0
1702490608.7177687,-3.0,-3.0,4.0,-2.0,1.0,1.0,0.0,-1.0
1702490608.7177687,-1.0,-3.0,-5.0,-3.0,0.0,-2.0,-1.0,-4.0
1702490608.7177687,-1.0,2.0,5.0,0.0,-2.0,-2.0,-1.0,-1.0
1702490608.7273211,-1.0,2.0,-1.0,3.0,0.0,-1.0,-2.0,-4.0
1702490608.7273211,-2.0,-1.0,6.0,-1.0,-2.0,-1.0,-1.0,-2.0
1702490608.7373352,0.0,-1.0,3.0,2.0,2.0,0.0,0.0,0.0
1702490608.7373352,-1.0,-1.0,4.0,-8.0,-2.0,0.0,-1.0,0.0
1702490608.7673185,-1.0,-5.0,-8.0,5.0,-1.0,-2.0,-2.0,-2.0
1702490608.7673185,0.0,-1.0,0.0,0.0,-3.0,-2.0,-1.0,1.0
1702490608.7673185,-2.0,1.0,4.0,-3.0,-2.0,-1.0,0.0,-3.0
1702490608.7673185,-1.0,-2.0,-4.0,6.0,-10.0,-6.0,0.0,-2.0
1702490608.7776885,1.0,2.0,-5.0,-8.0,6.0,0.0,-1.0,0.0
1702490608.7776885,-1.0,0.0,4.0,2.0,4.0,1.0,-1.0,-1.0
1702490608.7776885,-2.0,-1.0,0.0,0.0,-3.0,-3.0,-3.0,-1.0
1702490608.7776885,-2.0,-3.0,-4.0,-5.0,-1.0,0.0,-1.0,-1.0
1702490608.7871993,1.0,3.0,1.0,4.0,-2.0,0.0,-1.0,-1.0
1702490608.7871993,-2.0,-3.0,0.0,-6.0,-1.0,-2.0,-1.0,-2.0
1702490608.7975976,-1.0,0.0,-3.0,-5.0,-1.0,-1.0,-1.0,-1.0
1702490608.7975976,1.0,-1.0,1.0,-4.0,-9.0,-2.0,-2.0,1.0
1702490608.8172448,-1.0,2.0,1.0,4.0,5.0,-4.0,-2.0,-1.0
1702490608.8172448,-1.0,-6.0,-3.0,-1.0,8.0,4.0,2.0,0.0
1702490608.8172448,-1.0,-2.0,-1.0,2.0,-3.0,-2.0,0.0,-1.0
1702490608.8172448,-1.0,0.0,0.0,-4.0,1.0,0.0,-1.0,-1.0
1702490608.8372135,-2.0,-2.0,-2.0,-2.0,-9.0,-2.0,-2.0,0.0
1702490608.8372135,-1.0,1.0,-2.0,-1.0,-3.0,-1.0,-2.0,0.0
1702490608.8372135,-1.0,-2.0,-2.0,-12.0,-1.0,0.0,-1.0,-2.0
1702490608.8372135,-1.0,-2.0,2.0,1.0,-7.0,-4.0,-2.0,-1.0
1702490608.857656,-1.0,0.0,14.0,1.0,10.0,3.0,0.0,-2.0
1702490608.857656,-1.0,0.0,-11.0,6.0,-1.0,2.0,0.0,0.0
1702490608.857656,0.0,-1.0,3.0,0.0,-3.0,0.0,-1.0,-2.0
1702490608.857656,-1.0,0.0,2.0,-1.0,1.0,-1.0,-1.0,-1.0
1702490608.877668,0.0,-2.0,-7.0,-6.0,-8.0,-2.0,-2.0,-2.0
1702490608.877668,-2.0,-1.0,3.0,3.0,-2.0,-6.0,-2.0,-1.0
1702490608.877668,-2.0,-2.0,0.0,3.0,0.0,1.0,0.0,-1.0
1702490608.877668,-1.0,0.0,-7.0,-2.0,0.0,-1.0,0.0,0.0
1702490608.8975992,0.0,0.0,4.0,-1.0,2.0,-1.0,0.0,0.0
1702490608.8975992,-3.0,-2.0,0.0,-3.0,-1.0,0.0,-2.0,-1.0
1702490608.8975992,1.0,-2.0,-3.0,-2.0,-3.0,-2.0,-1.0,-1.0
1702490608.8975992,-1.0,-5.0,-1.0,2.0,7.0,-1.0,-1.0,1.0
1702490608.9176059,-2.0,-3.0,-7.0,-6.0,-3.0,0.0,0.0,-2.0
1702490608.9176059,0.0,1.0,0.0,-3.0,-6.0,-5.0,-3.0,0.0
1702490608.9176059,-2.0,-1.0,1.0,7.0,3.0,1.0,-2.0,-1.0
1702490608.9176059,-1.0,1.0,2.0,-6.0,0.0,-1.0,-2.0,-1.0
1702490608.953488,-1.0,-3.0,-4.0,-3.0,-5.0,-1.0,0.0,-1.0
1702490608.953488,0.0,1.0,0.0,-1.0,-2.0,-2.0,0.0,-2.0
1702490608.953488,0.0,-1.0,-2.0,-1.0,3.0,0.0,2.0,0.0
1702490608.953488,0.0,2.0,3.0,-1.0,-4.0,-3.0,-2.0,-1.0
1702490608.953488,-2.0,-5.0,-6.0,-5.0,-3.0,-2.0,-1.0,-1.0
1702490608.953488,0.0,2.0,3.0,2.0,3.0,-1.0,-1.0,1.0
1702490608.953488,-2.0,-1.0,-5.0,-3.0,-11.0,-5.0,-3.0,-1.0
1702490608.953488,0.0,-2.0,-1.0,1.0,8.0,5.0,1.0,-2.0
1702490608.9834921,1.0,1.0,2.0,5.0,-6.0,1.0,0.0,0.0
1702490608.9834921,-3.0,-2.0,-4.0,-12.0,-3.0,-1.0,-1.0,-2.0
1702490608.9834921,-1.0,0.0,2.0,10.0,-1.0,-4.0,-2.0,0.0
1702490608.9834921,-2.0,-3.0,-4.0,2.0,-2.0,-1.0,0.0,1.0
1702490608.9938278,-2.0,0.0,4.0,-3.0,-2.0,-2.0,-1.0,-3.0
1702490608.9938278,-2.0,-6.0,-4.0,-8.0,-5.0,0.0,-1.0,-1.0
1702490608.9938278,-1.0,-1.0,0.0,2.0,2.0,-1.0,-2.0,-1.0
1702490608.9938278,1.0,2.0,0.0,-10.0,3.0,0.0,1.0,-1.0
1702490609.0138958,0.0,-1.0,-1.0,26.0,6.0,2.0,0.0,-1.0
1702490609.0138958,0.0,3.0,0.0,-5.0,-6.0,-2.0,-2.0,1.0
1702490609.0138958,-2.0,-3.0,-5.0,-12.0,-8.0,-5.0,-3.0,-2.0
1702490609.0138958,0.0,-1.0,3.0,13.0,5.0,2.0,0.0,-1.0
1702490609.0334911,-1.0,-1.0,-2.0,-9.0,0.0,-3.0,-1.0,-1.0
1702490609.0334911,0.0,-2.0,-1.0,4.0,1.0,-2.0,-1.0,-2.0
1702490609.0334911,-2.0,0.0,-3.0,-6.0,0.0,1.0,2.0,-1.0
1702490609.0334911,-2.0,1.0,1.0,2.0,-2.0,0.0,-2.0,-1.0
1702490609.0638998,-1.0,-1.0,-4.0,-1.0,-4.0,-1.0,-2.0,0.0
1702490609.0638998,-1.0,-1.0,-2.0,-2.0,-2.0,-2.0,0.0,-1.0
1702490609.0638998,0.0,1.0,0.0,-1.0,-7.0,-6.0,-1.0,0.0
1702490609.0638998,-1.0,-3.0,-1.0,3.0,11.0,3.0,1.0,-1.0
1702490609.0738301,-2.0,0.0,-3.0,-5.0,-3.0,-1.0,2.0,0.0
1702490609.0738301,-2.0,-3.0,-5.0,-20.0,-4.0,-5.0,-2.0,0.0
1702490609.0738301,0.0,0.0,1.0,-3.0,3.0,0.0,0.0,-1.0
1702490609.0738301,1.0,1.0,10.0,-1.0,-10.0,-5.0,-3.0,-1.0
1702490609.1031246,0.0,-3.0,-13.0,-2.0,1.0,0.0,-2.0,-1.0
1702490609.1031246,-1.0,0.0,14.0,0.0,2.0,0.0,2.0,-1.0
1702490609.1031246,-1.0,0.0,-16.0,-6.0,-2.0,1.0,0.0,-1.0
1702490609.1031246,0.0,2.0,-2.0,3.0,-2.0,-2.0,0.0,-1.0
1702490609.116125,-2.0,0.0,17.0,-10.0,-1.0,-2.0,0.0,-3.0
1702490609.116125,2.0,0.0,6.0,2.0,-8.0,-4.0,-4.0,-2.0
1702490609.116125,0.0,2.0,12.0,6.0,5.0,0.0,-2.0,0.0
1702490609.116125,0.0,-8.0,-42.0,3.0,9.0,2.0,0.0,0.0
1702490609.138009,-1.0,-2.0,-3.0,-1.0,-5.0,-1.0,-2.0,-1.0
1702490609.138009,-1.0,2.0,8.0,1.0,0.0,0.0,0.0,0.0
1702490609.139006,0.0,-1.0,-7.0,-1.0,-4.0,1.0,-2.0,-1.0
1702490609.139006,1.0,1.0,18.0,-11.0,-7.0,-3.0,-2.0,-1.0
1702490609.1608005,-2.0,-2.0,7.0,-4.0,0.0,-1.0,-1.0,-1.0
1702490609.1608005,-2.0,-4.0,-41.0,9.0,3.0,0.0,-1.0,-3.0
1702490609.1618485,-3.0,0.0,8.0,-1.0,0.0,0.0,-1.0,-1.0
1702490609.1618485,-2.0,0.0,-1.0,-2.0,1.0,-2.0,-1.0,-1.0
1702490609.176533,0.0,1.0,-3.0,2.0,0.0,-1.0,0.0,0.0
1702490609.176533,-1.0,1.0,14.0,-3.0,-8.0,-4.0,-3.0,-2.0
1702490609.176533,-1.0,-2.0,1.0,5.0,7.0,4.0,-1.0,-1.0
1702490609.176533,-1.0,-2.0,-2.0,2.0,0.0,-2.0,-1.0,-2.0
1702490609.2078218,-1.0,-1.0,-1.0,1.0,-4.0,0.0,0.0,1.0
1702490609.2078218,-3.0,-1.0,-6.0,-8.0,1.0,0.0,-1.0,-2.0
1702490609.2078218,1.0,-2.0,-2.0,0.0,-6.0,-4.0,-1.0,0.0
1702490609.2078218,-1.0,-3.0,-1.0,-2.0,-4.0,-2.0,-1.0,-2.0
1702490609.2211509,1.0,0.0,0.0,-5.0,-1.0,-1.0,-2.0,-2.0
1702490609.2211509,-1.0,-3.0,-3.0,6.0,2.0,1.0,0.0,-2.0
1702490609.2211509,-2.0,0.0,4.0,4.0,0.0,-2.0,0.0,0.0
1702490609.2211509,0.0,-1.0,2.0,-1.0,-3.0,0.0,0.0,0.0
1702490609.2364151,-2.0,0.0,-4.0,0.0,0.0,-1.0,-2.0,0.0
1702490609.2364151,-3.0,-2.0,0.0,1.0,4.0,1.0,0.0,-1.0
1702490609.237408,-1.0,-1.0,3.0,-3.0,-1.0,-2.0,-1.0,-1.0
1702490609.237408,-3.0,-1.0,-8.0,-4.0,-8.0,-2.0,-2.0,-1.0
1702490609.2583032,-1.0,-2.0,-3.0,-1.0,0.0,0.0,1.0,-1.0
1702490609.2583032,0.0,0.0,3.0,7.0,11.0,3.0,0.0,0.0
1702490609.259102,-2.0,-3.0,-3.0,0.0,-2.0,0.0,-1.0,-1.0
1702490609.259102,0.0,-2.0,1.0,-4.0,-5.0,-3.0,0.0,0.0
1702490609.2812757,-2.0,-3.0,-4.0,-6.0,-6.0,-1.0,-2.0,-2.0
1702490609.2812757,-2.0,-2.0,3.0,1.0,2.0,3.0,1.0,0.0
1702490609.2812757,-1.0,-1.0,-5.0,-5.0,0.0,-2.0,-1.0,0.0
1702490609.2812757,-2.0,-3.0,0.0,-1.0,-5.0,-2.0,-2.0,-2.0
1702490609.2952769,2.0,2.0,4.0,11.0,0.0,-2.0,1.0,0.0
1702490609.2952769,-3.0,1.0,-2.0,0.0,-5.0,-4.0,-1.0,-1.0
1702490609.2952769,0.0,0.0,-6.0,-2.0,2.0,0.0,0.0,-2.0
1702490609.2952769,-1.0,0.0,2.0,-5.0,-4.0,-2.0,0.0,0.0
1702490609.325635,-2.0,-1.0,-1.0,0.0,4.0,0.0,1.0,0.0
1702490609.325635,1.0,-1.0,12.0,-2.0,-3.0,-1.0,-2.0,-2.0
1702490609.325635,-1.0,-4.0,-25.0,-4.0,-4.0,-1.0,-1.0,-2.0
1702490609.325635,0.0,1.0,2.0,-5.0,1.0,-1.0,-1.0,-2.0
1702490609.3359652,-1.0,0.0,2.0,1.0,4.0,0.0,1.0,-1.0
1702490609.3359652,-1.0,-2.0,4.0,0.0,-4.0,-3.0,-2.0,-2.0
1702490609.3359652,-1.0,1.0,19.0,1.0,0.0,0.0,1.0,-1.0
1702490609.3359652,-2.0,-3.0,-19.0,-4.0,0.0,-2.0,0.0,-2.0
1702490609.3557353,1.0,1.0,-2.0,-6.0,-4.0,-3.0,-2.0,-2.0
1702490609.3557353,0.0,-2.0,-5.0,0.0,-12.0,-6.0,-1.0,0.0
1702490609.3557353,-2.0,0.0,10.0,0.0,3.0,2.0,-2.0,-1.0
1702490609.3557353,-1.0,1.0,0.0,-2.0,4.0,0.0,-2.0,0.0
1702490609.3756301,0.0,-3.0,7.0,-2.0,3.0,2.0,0.0,-1.0
1702490609.3756301,1.0,4.0,6.0,0.0,-1.0,-1.0,-1.0,0.0
1702490609.3756301,-1.0,1.0,-2.0,-1.0,-4.0,-4.0,-1.0,-1.0
1702490609.3756301,-2.0,-2.0,-14.0,1.0,-4.0,1.0,1.0,-3.0
1702490609.3956754,-4.0,-5.0,-11.0,-9.0,-4.0,-3.0,-2.0,-2.0
1702490609.3956754,-1.0,-1.0,6.0,-3.0,-1.0,-2.0,-2.0,-3.0
1702490609.3956754,0.0,1.0,5.0,-6.0,2.0,2.0,1.0,0.0
1702490609.3956754,0.0,3.0,16.0,10.0,3.0,-1.0,0.0,-1.0
1702490609.4157324,-1.0,2.0,-1.0,-3.0,-4.0,-3.0,-2.0,-2.0
1702490609.4157324,-1.0,-5.0,-9.0,0.0,1.0,0.0,-1.0,0.0
1702490609.4157324,0.0,0.0,-3.0,-4.0,-6.0,-3.0,-3.0,-2.0
1702490609.4157324,-3.0,-6.0,-3.0,0.0,0.0,1.0,-1.0,-1.0
1702490609.4357195,-1.0,1.0,-3.0,3.0,0.0,0.0,-1.0,-1.0
1702490609.4357195,-3.0,-3.0,-4.0,-2.0,-6.0,-4.0,-1.0,0.0
1702490609.4357195,-1.0,-2.0,-4.0,4.0,8.0,3.0,-1.0,-1.0
1702490609.4357195,1.0,0.0,2.0,-4.0,-1.0,0.0,-2.0,0.0
1702490609.4613311,-1.0,-2.0,2.0,-4.0,-4.0,-2.0,-2.0,0.0
1702490609.4613311,0.0,0.0,-4.0,3.0,-2.0,-3.0,-2.0,-2.0
1702490609.4613311,0.0,-1.0,-1.0,8.0,-4.0,-2.0,-1.0,0.0
1702490609.4613311,-1.0,0.0,2.0,-9.0,3.0,1.0,0.0,0.0
1702490609.4765732,-6.0,-3.0,-3.0,-16.0,0.0,2.0,0.0,0.0
1702490609.4765732,-1.0,-3.0,-7.0,-8.0,-4.0,-1.0,-1.0,-1.0
1702490609.4765732,-1.0,-2.0,-3.0,3.0,1.0,0.0,-1.0,1.0
1702490609.4765732,-2.0,0.0,3.0,2.0,-1.0,-3.0,0.0,0.0
1702490609.4958422,3.0,-2.0,1.0,7.0,7.0,2.0,1.0,-1.0
1702490609.4958422,-2.0,-1.0,-3.0,-2.0,-1.0,0.0,-1.0,0.0
1702490609.4958422,0.0,-3.0,-5.0,-11.0,-12.0,-6.0,-1.0,-2.0
1702490609.4958422,-1.0,-3.0,-1.0,-7.0,-4.0,0.0,-2.0,-3.0
1702490609.5158505,0.0,-1.0,0.0,15.0,15.0,3.0,0.0,0.0
1702490609.5158505,1.0,0.0,-5.0,-1.0,-7.0,-2.0,-1.0,-2.0
1702490609.5158505,1.0,0.0,3.0,-18.0,9.0,1.0,1.0,-1.0
1702490609.5158505,-2.0,0.0,3.0,9.0,-7.0,-5.0,-2.0,0.0
1702490609.5358517,-3.0,-3.0,-2.0,0.0,-6.0,-3.0,-3.0,0.0
1702490609.5358517,0.0,0.0,-9.0,-15.0,6.0,1.0,-1.0,0.0
1702490609.5358517,-1.0,-2.0,2.0,13.0,-3.0,-1.0,-1.0,-1.0
1702490609.5358517,0.0,0.0,3.0,11.0,0.0,0.0,-4.0,1.0
1702490609.5562177,-2.0,-2.0,0.0,-6.0,-6.0,-4.0,-1.0,-1.0
1702490609.5562177,0.0,1.0,-2.0,3.0,4.0,-1.0,-2.0,-1.0
1702490609.5562177,-2.0,-1.0,-2.0,4.0,1.0,1.0,0.0,0.0
1702490609.5562177,0.0,0.0,0.0,-3.0,-1.0,0.0,0.0,-1.0
1702490609.5762532,-1.0,-1.0,3.0,-10.0,-11.0,-4.0,-1.0,-1.0
1702490609.5762532,1.0,0.0,-12.0,14.0,10.0,3.0,0.0,1.0
1702490609.5762532,-3.0,-1.0,-1.0,-12.0,-7.0,0.0,-2.0,-2.0
1702490609.5762532,-1.0,0.0,9.0,-3.0,5.0,2.0,1.0,-1.0
1702490609.5958502,1.0,-1.0,12.0,-8.0,-5.0,-2.0,-1.0,-2.0
1702490609.5958502,-1.0,-5.0,-18.0,-6.0,-5.0,-2.0,-1.0,-2.0
1702490609.5958502,0.0,2.0,22.0,9.0,0.0,-2.0,-2.0,-1.0
1702490609.5958502,-1.0,-3.0,-13.0,-1.0,-3.0,-2.0,0.0,0.0
1702490609.6184123,0.0,1.0,4.0,-2.0,-1.0,-4.0,-2.0,-2.0
1702490609.6184123,1.0,11.0,40.0,5.0,2.0,2.0,-1.0,0.0
1702490609.619398,-5.0,-19.0,-55.0,3.0,3.0,2.0,2.0,-2.0
1702490609.619398,-1.0,2.0,13.0,-11.0,-5.0,-2.0,-2.0,-2.0
1702490609.641302,0.0,1.0,-2.0,4.0,-6.0,-3.0,-1.0,-1.0
1702490609.641302,-4.0,-7.0,-4.0,1.0,-1.0,-3.0,-1.0,0.0
1702490609.641302,1.0,6.0,12.0,-1.0,5.0,1.0,-1.0,0.0
1702490609.641302,-1.0,-3.0,-19.0,-3.0,-4.0,-4.0,-1.0,-1.0
1702490609.655821,-1.0,-2.0,6.0,9.0,4.0,2.0,-1.0,0.0
1702490609.655821,0.0,1.0,4.0,4.0,2.0,2.0,0.0,-1.0
1702490609.6725266,-2.0,0.0,0.0,-2.0,-7.0,-4.0,-1.0,-2.0
1702490609.6725266,-1.0,-6.0,-7.0,-3.0,2.0,-1.0,-2.0,0.0
1702490609.6797144,1.0,4.0,6.0,0.0,-1.0,1.0,-2.0,0.0
1702490609.6797144,-3.0,-5.0,-15.0,-6.0,-4.0,-5.0,-1.0,0.0
1702490609.6797144,1.0,2.0,5.0,-1.0,3.0,0.0,-1.0,-1.0
1702490609.6797144,0.0,0.0,-2.0,3.0,-1.0,-2.0,-1.0,-2.0
1702490609.7218502,-2.0,-2.0,-8.0,-11.0,0.0,0.0,-1.0,0.0
1702490609.7218502,-1.0,-3.0,0.0,-2.0,-3.0,-2.0,-2.0,-1.0
1702490609.7218502,-1.0,0.0,3.0,1.0,-1.0,1.0,-1.0,-2.0
1702490609.7218502,0.0,2.0,6.0,-7.0,-6.0,-3.0,0.0,1.0
1702490609.7218502,-1.0,-1.0,-9.0,10.0,-2.0,-2.0,-1.0,-2.0
1702490609.7218502,-1.0,1.0,0.0,10.0,3.0,1.0,2.0,-2.0
1702490609.7233744,-1.0,-1.0,4.0,-3.0,-5.0,-4.0,-3.0,0.0
1702490609.7233744,-1.0,2.0,20.0,2.0,2.0,0.0,-1.0,-3.0
1702490609.7384114,-2.0,-9.0,-47.0,-5.0,-10.0,-4.0,-3.0,-2.0
1702490609.7384114,0.0,1.0,8.0,-1.0,11.0,5.0,1.0,0.0
1702490609.7394023,0.0,0.0,0.0,-1.0,5.0,2.0,-1.0,1.0
1702490609.7394023,-1.0,-2.0,-5.0,-1.0,-4.0,0.0,-2.0,-1.0
1702490609.7621422,0.0,-3.0,7.0,1.0,-4.0,-2.0,-1.0,-1.0
1702490609.7621422,0.0,3.0,13.0,1.0,-8.0,-5.0,-1.0,-1.0
1702490609.7621422,-3.0,-6.0,-36.0,-4.0,-3.0,-1.0,-1.0,-2.0
1702490609.7621422,-3.0,0.0,-9.0,2.0,4.0,2.0,0.0,-1.0
1702490609.7755759,-2.0,2.0,12.0,-2.0,1.0,0.0,-1.0,-4.0
1702490609.7755759,0.0,-1.0,-5.0,-5.0,-3.0,-1.0,-3.0,-1.0
1702490609.7838254,-1.0,-1.0,11.0,0.0,-1.0,1.0,-1.0,-1.0
1702490609.7838254,0.0,-1.0,5.0,1.0,-5.0,-4.0,-2.0,-1.0
1702490609.798928,-1.0,-4.0,-20.0,-1.0,-1.0,0.0,0.0,-1.0
1702490609.798928,-1.0,1.0,17.0,-1.0,3.0,0.0,0.0,0.0
1702490609.798928,0.0,0.0,-1.0,-2.0,-1.0,1.0,0.0,-2.0
1702490609.798928,-2.0,-2.0,-7.0,-1.0,1.0,2.0,1.0,-1.0
1702490609.8218052,0.0,1.0,9.0,-2.0,3.0,0.0,-1.0,1.0
1702490609.8218052,0.0,-1.0,-1.0,-2.0,-5.0,-3.0,-3.0,-1.0
1702490609.8287532,-1.0,0.0,9.0,0.0,-4.0,-2.0,-1.0,-3.0
1702490609.8297746,-2.0,-4.0,-2.0,2.0,-3.0,-3.0,-1.0,0.0
1702490609.8359058,0.0,2.0,8.0,1.0,7.0,3.0,-1.0,-2.0
1702490609.8370447,-2.0,-5.0,-27.0,1.0,0.0,4.0,1.0,-1.0
1702490609.8432784,-1.0,1.0,26.0,2.0,0.0,-1.0,-1.0,0.0
1702490609.8432784,-1.0,-1.0,1.0,-1.0,-1.0,-2.0,-3.0,-3.0
1702490609.8586936,0.0,2.0,12.0,1.0,-2.0,-2.0,-2.0,0.0
1702490609.8597143,-1.0,-2.0,-13.0,-5.0,-4.0,-2.0,-1.0,-1.0
1702490609.8597143,-1.0,2.0,4.0,-2.0,-4.0,-2.0,-1.0,-1.0
1702490609.8597143,0.0,-6.0,-34.0,-5.0,0.0,-1.0,0.0,0.0
1702490609.8964353,-1.0,1.0,12.0,3.0,3.0,-1.0,0.0,-1.0
1702490609.8964353,1.0,1.0,7.0,0.0,2.0,3.0,0.0,-2.0
1702490609.8964353,-1.0,-2.0,-1.0,-3.0,-2.0,-3.0,0.0,0.0
1702490609.8964353,0.0,0.0,9.0,1.0,-4.0,-1.0,1.0,0.0
1702490609.8964353,-1.0,-3.0,-23.0,-4.0,-6.0,-4.0,-2.0,0.0
1702490609.8964353,-1.0,-1.0,32.0,3.0,0.0,-1.0,-2.0,-2.0
1702490609.9039993,-2.0,-4.0,-47.0,-3.0,-4.0,0.0,-3.0,-2.0
1702490609.9039993,-1.0,2.0,10.0,-3.0,0.0,-2.0,-2.0,1.0
1702490609.9182272,-3.0,-2.0,-12.0,1.0,2.0,0.0,1.0,0.0
1702490609.9182272,1.0,1.0,2.0,1.0,-1.0,-3.0,-1.0,-2.0
1702490609.9199193,1.0,-1.0,10.0,-2.0,-2.0,-4.0,-1.0,-3.0
1702490609.9199193,0.0,3.0,17.0,1.0,4.0,2.0,0.0,0.0
1702490609.9414713,0.0,5.0,0.0,-3.0,-6.0,-3.0,-3.0,-2.0
1702490609.9414713,-4.0,-13.0,-19.0,-6.0,-2.0,-3.0,0.0,-1.0
1702490609.9491282,0.0,-2.0,13.0,3.0,11.0,4.0,1.0,1.0
1702490609.9491282,0.0,-5.0,-38.0,4.0,4.0,3.0,1.0,-1.0
1702490609.9550636,-2.0,0.0,4.0,0.0,-3.0,-2.0,-1.0,-1.0
1702490609.9550636,2.0,5.0,5.0,0.0,-4.0,-1.0,-1.0,-1.0
1702490609.9630733,-1.0,-10.0,-24.0,-5.0,-7.0,-4.0,-2.0,-3.0
1702490609.9630733,0.0,1.0,13.0,3.0,3.0,-1.0,0.0,-1.0
1702490609.9786644,-1.0,-3.0,1.0,0.0,-2.0,0.0,-1.0,0.0
1702490609.9786644,-5.0,-2.0,-7.0,-2.0,-4.0,-2.0,0.0,-2.0
1702490609.9786644,-2.0,-2.0,4.0,-1.0,-1.0,-3.0,-2.0,-1.0
1702490609.9786644,-1.0,-1.0,0.0,2.0,5.0,2.0,-2.0,-4.0
1702490610.0008984,0.0,-2.0,-5.0,-10.0,-2.0,-2.0,-1.0,-1.0
1702490610.0008984,-1.0,-1.0,0.0,9.0,0.0,-1.0,-1.0,-1.0
1702490610.0019546,-1.0,3.0,7.0,0.0,-3.0,0.0,-1.0,0.0
1702490610.0019546,-2.0,-4.0,-9.0,7.0,-2.0,-2.0,0.0,0.0
1702490610.0241432,-3.0,-4.0,1.0,-12.0,-1.0,-1.0,-1.0,-1.0
1702490610.0241432,-1.0,2.0,1.0,-3.0,-4.0,0.0,0.0,-1.0
1702490610.0241432,0.0,1.0,-1.0,7.0,-2.0,-3.0,0.0,0.0
1702490610.0241432,-3.0,-2.0,6.0,-9.0,-5.0,-2.0,0.0,-1.0
1702490610.0386822,1.0,-2.0,-1.0,3.0,10.0,3.0,1.0,0.0
1702490610.0386822,-3.0,-1.0,-5.0,-5.0,-1.0,-1.0,-2.0,0.0
1702490610.0386822,-1.0,-1.0,-4.0,7.0,-2.0,-3.0,-1.0,-1.0
1702490610.0386822,-1.0,-2.0,0.0,-12.0,-6.0,-1.0,-3.0,-2.0
1702490610.0616906,-1.0,-2.0,-3.0,-19.0,-4.0,-1.0,-2.0,-2.0
1702490610.0616906,-1.0,-3.0,-10.0,-10.0,1.0,-1.0,-2.0,-3.0
1702490610.0616906,0.0,3.0,10.0,26.0,2.0,0.0,-1.0,-1.0
1702490610.0616906,2.0,2.0,2.0,9.0,1.0,-4.0,-3.0,-2.0
1702490610.0843973,-1.0,-2.0,-6.0,-7.0,-6.0,-2.0,-1.0,-1.0
1702490610.0843973,-2.0,-1.0,-2.0,2.0,-1.0,0.0,-1.0,-1.0
1702490610.0854466,-2.0,-1.0,-3.0,-19.0,1.0,0.0,-1.0,1.0
1702490610.0856278,-2.0,-1.0,0.0,7.0,-1.0,-1.0,0.0,-1.0
1702490610.1242745,-3.0,-4.0,0.0,-6.0,-5.0,-2.0,0.0,-3.0
1702490610.1242745,-2.0,-1.0,0.0,2.0,0.0,-1.0,0.0,-1.0
1702490610.1242745,-1.0,-2.0,1.0,-4.0,-8.0,-1.0,-1.0,0.0
1702490610.1242745,-1.0,-3.0,-2.0,-3.0,8.0,0.0,0.0,-3.0
1702490610.1242745,1.0,2.0,23.0,5.0,1.0,2.0,1.0,3.0
1702490610.1242745,0.0,-3.0,-31.0,3.0,-4.0,-3.0,0.0,-2.0
1702490610.1242745,0.0,2.0,4.0,-9.0,1.0,0.0,0.0,-1.0
1702490610.1242745,-2.0,-2.0,8.0,-7.0,-11.0,-5.0,-4.0,-1.0
1702490610.1441522,0.0,-2.0,-19.0,10.0,3.0,0.0,0.0,-1.0
1702490610.1441522,0.0,-4.0,-14.0,-3.0,2.0,0.0,-2.0,-1.0
1702490610.1441522,2.0,11.0,30.0,6.0,-3.0,-2.0,0.0,0.0
1702490610.1441522,-2.0,-5.0,4.0,-9.0,-3.0,0.0,-1.0,1.0
1702490610.1584177,1.0,1.0,-10.0,11.0,0.0,-1.0,0.0,-2.0
1702490610.1584177,-1.0,0.0,27.0,-2.0,-5.0,-4.0,-1.0,0.0
1702490610.1591868,0.0,3.0,-32.0,-1.0,6.0,1.0,1.0,-1.0
1702490610.1591868,-3.0,-5.0,12.0,-3.0,-4.0,-1.0,-1.0,-1.0
1702490610.1808362,-1.0,3.0,16.0,2.0,-5.0,-3.0,-1.0,-2.0
1702490610.1818168,1.0,2.0,5.0,-6.0,2.0,0.0,-2.0,0.0
1702490610.1818168,-1.0,-4.0,-10.0,-4.0,-4.0,-2.0,0.0,-1.0
1702490610.1818168,0.0,4.0,6.0,7.0,-7.0,-3.0,0.0,0.0
1702490610.2277496,-3.0,-3.0,-8.0,-3.0,5.0,-1.0,-1.0,-1.0
1702490610.2277496,-1.0,-2.0,-8.0,2.0,3.0,3.0,0.0,0.0
1702490610.2277496,-1.0,0.0,5.0,-2.0,-7.0,-4.0,-2.0,-2.0
1702490610.2277496,-2.0,-1.0,-15.0,-11.0,-1.0,-1.0,-1.0,-1.0
1702490610.2277496,-3.0,-6.0,5.0,12.0,-3.0,-3.0,-1.0,-1.0
1702490610.2277496,-1.0,2.0,9.0,-3.0,-4.0,-4.0,-3.0,-2.0
1702490610.2277496,-1.0,-6.0,-4.0,-5.0,12.0,5.0,0.0,-1.0
1702490610.2277496,0.0,0.0,-12.0,0.0,-5.0,0.0,0.0,-2.0
1702490610.2408166,-2.0,-2.0,-3.0,-1.0,-3.0,-1.0,-1.0,-2.0
1702490610.2408166,0.0,2.0,10.0,3.0,-1.0,-4.0,-2.0,0.0
1702490610.241572,-2.0,-4.0,15.0,-2.0,-4.0,-3.0,-1.0,-1.0
1702490610.241572,0.0,-3.0,-37.0,-7.0,3.0,0.0,0.0,-1.0
1702490610.2711437,3.0,4.0,2.0,-4.0,-6.0,-4.0,-2.0,2.0
1702490610.2711437,0.0,-1.0,-5.0,7.0,6.0,4.0,2.0,0.0
1702490610.2711437,-2.0,-6.0,6.0,-7.0,-3.0,0.0,0.0,-2.0
1702490610.2711437,0.0,4.0,25.0,1.0,0.0,-2.0,-1.0,0.0
1702490610.279554,0.0,-1.0,5.0,3.0,1.0,1.0,-1.0,-2.0
1702490610.279554,-3.0,-8.0,-54.0,-11.0,-10.0,-6.0,-3.0,-1.0
1702490610.2810142,2.0,7.0,8.0,6.0,8.0,0.0,0.0,-1.0
1702490610.2810142,-2.0,-6.0,-5.0,1.0,-1.0,0.0,0.0,-2.0
1702490610.3014686,-1.0,0.0,10.0,0.0,2.0,2.0,-1.0,-1.0
1702490610.3014686,0.0,3.0,19.0,-2.0,-6.0,-2.0,-1.0,0.0
1702490610.3014686,-2.0,-1.0,-14.0,-2.0,-5.0,-3.0,-4.0,-1.0
1702490610.3014686,-2.0,0.0,0.0,-4.0,-2.0,-2.0,-1.0,-1.0
1702490610.3330793,-3.0,-4.0,-4.0,-1.0,-7.0,-4.0,-3.0,-1.0
1702490610.3330793,-2.0,-1.0,-1.0,-1.0,7.0,2.0,0.0,-2.0
1702490610.3330793,2.0,-2.0,-9.0,-1.0,-4.0,1.0,-1.0,0.0
1702490610.3330793,-2.0,1.0,2.0,1.0,6.0,1.0,-1.0,-1.0
1702490610.3382845,0.0,-3.0,-9.0,3.0,-1.0,1.0,1.0,1.0
1702490610.3382845,0.0,0.0,9.0,-2.0,-1.0,-5.0,-2.0,-2.0
1702490610.3391185,-1.0,1.0,1.0,-3.0,-2.0,-1.0,0.0,0.0
1702490610.3391185,-3.0,-1.0,14.0,-1.0,-6.0,-1.0,-3.0,-1.0
1702490610.3610103,1.0,-4.0,-22.0,-7.0,-3.0,-2.0,0.0,-1.0
1702490610.3610103,-1.0,-1.0,-20.0,-3.0,5.0,3.0,1.0,-1.0
1702490610.3620443,-3.0,0.0,29.0,-3.0,4.0,2.0,2.0,0.0
1702490610.3620443,1.0,-1.0,-40.0,-2.0,-5.0,-1.0,-1.0,0.0
1702490610.384096,-2.0,0.0,10.0,3.0,2.0,-2.0,-1.0,-1.0
1702490610.384096,0.0,5.0,18.0,0.0,-2.0,0.0,-1.0,-1.0
1702490610.384096,-4.0,-10.0,-13.0,-4.0,-9.0,-5.0,-2.0,-2.0
1702490610.384096,0.0,2.0,11.0,2.0,4.0,-2.0,-1.0,-2.0
1702490610.4081612,1.0,1.0,9.0,-5.0,-13.0,-5.0,-1.0,-1.0
1702490610.4081612,-2.0,-1.0,1.0,4.0,11.0,1.0,-3.0,0.0
1702490610.4081612,1.0,0.0,-11.0,2.0,-2.0,-2.0,0.0,0.0
1702490610.4081612,0.0,2.0,16.0,-2.0,-4.0,-3.0,-1.0,0.0
1702490610.4203808,-1.0,-2.0,-15.0,2.0,1.0,1.0,2.0,-1.0
1702490610.4213758,-1.0,-3.0,4.0,-13.0,-6.0,-4.0,-1.0,0.0
1702490610.4213758,-2.0,-2.0,0.0,3.0,0.0,0.0,-3.0,-2.0
1702490610.4213758,1.0,-2.0,-5.0,2.0,1.0,-1.0,0.0,0.0
1702490610.443754,-3.0,-4.0,-3.0,-3.0,-1.0,0.0,-2.0,-1.0
1702490610.443754,-1.0,0.0,0.0,-1.0,-4.0,-1.0,0.0,-1.0
1702490610.443754,-1.0,-3.0,-9.0,-5.0,4.0,0.0,-2.0,-1.0
1702490610.443754,0.0,0.0,-4.0,-6.0,-1.0,0.0,0.0,0.0
1702490610.458751,-2.0,1.0,-5.0,-1.0,0.0,-1.0,-2.0,-1.0
1702490610.458751,-3.0,0.0,4.0,-10.0,-5.0,-1.0,-1.0,-2.0
1702490610.458751,-1.0,-3.0,-7.0,-6.0,-2.0,-1.0,-1.0,-1.0
1702490610.458751,-3.0,-2.0,3.0,-2.0,-2.0,-2.0,0.0,-3.0
1702490610.4805927,0.0,1.0,7.0,8.0,4.0,0.0,-4.0,-1.0
1702490610.4816496,-1.0,-3.0,-4.0,-9.0,-4.0,0.0,-1.0,1.0
1702490610.4816496,0.0,2.0,-4.0,-2.0,-2.0,-2.0,0.0,0.0
1702490610.4816496,-2.0,-1.0,-2.0,-5.0,-2.0,-2.0,-2.0,-1.0
1702490610.4967299,-4.0,-1.0,-4.0,-14.0,-2.0,0.0,-3.0,-1.0
1702490610.4967299,-1.0,-1.0,-1.0,9.0,1.0,-2.0,0.0,-2.0
1702490610.4967299,-2.0,-1.0,-5.0,0.0,-7.0,-5.0,-2.0,-1.0
1702490610.4967299,1.0,1.0,24.0,5.0,12.0,4.0,-1.0,-1.0
1702490610.518902,0.0,-6.0,-37.0,3.0,-3.0,0.0,1.0,-2.0
1702490610.5199213,-1.0,-2.0,-11.0,3.0,-3.0,-2.0,-1.0,-1.0
1702490610.5199213,0.0,3.0,7.0,-2.0,-4.0,-2.0,-1.0,-2.0
1702490610.5199213,-2.0,-3.0,7.0,1.0,-5.0,-6.0,-4.0,-1.0
1702490610.535836,0.0,0.0,2.0,-5.0,4.0,2.0,-1.0,0.0
1702490610.535836,-1.0,-2.0,16.0,-3.0,-4.0,-1.0,0.0,-2.0
1702490610.535836,1.0,1.0,-17.0,6.0,1.0,3.0,1.0,-2.0
1702490610.535836,0.0,-1.0,-11.0,-7.0,0.0,-1.0,-1.0,1.0
1702490610.5858319,-2.0,-3.0,5.0,1.0,-9.0,-3.0,-2.0,0.0
1702490610.5858319,-3.0,-3.0,-16.0,4.0,7.0,2.0,0.0,0.0
1702490610.5858319,-2.0,-2.0,-1.0,-14.0,-4.0,-3.0,-4.0,-2.0
1702490610.5858319,-1.0,7.0,24.0,6.0,-2.0,-1.0,-1.0,-2.0
1702490610.5858319,0.0,-1.0,-20.0,-2.0,0.0,0.0,1.0,-1.0
1702490610.5858319,2.0,2.0,7.0,2.0,-3.0,-1.0,-1.0,2.0
1702490610.5858319,-1.0,-5.0,-30.0,15.0,4.0,2.0,-1.0,-2.0
1702490610.5858319,-1.0,-3.0,-14.0,-1.0,-1.0,1.0,-1.0,0.0
1702490610.5958295,-1.0,2.0,33.0,0.0,1.0,-2.0,-1.0,0.0
1702490610.5958295,-1.0,-14.0,-43.0,-10.0,-10.0,-5.0,-3.0,-2.0
1702490610.5958295,-2.0,-2.0,14.0,-4.0,9.0,-1.0,-1.0,-3.0
1702490610.5958295,1.0,-1.0,-13.0,-1.0,-3.0,3.0,1.0,0.0
1702490610.6162562,-2.0,2.0,14.0,3.0,3.0,1.0,2.0,-1.0
1702490610.6162562,1.0,7.0,26.0,4.0,0.0,0.0,-1.0,-1.0
1702490610.6162562,-4.0,-6.0,9.0,1.0,-5.0,-3.0,-3.0,1.0
1702490610.6162562,-1.0,1.0,-3.0,1.0,-1.0,-2.0,-2.0,-1.0
1702490610.636093,-2.0,1.0,2.0,-4.0,-1.0,-2.0,-1.0,-2.0
1702490610.636093,-1.0,2.0,21.0,2.0,0.0,-3.0,-1.0,-1.0
1702490610.6458328,-1.0,-7.0,-44.0,1.0,-5.0,-1.0,-1.0,0.0
1702490610.6458328,-2.0,-3.0,2.0,-1.0,3.0,-1.0,0.0,-1.0
1702490610.66583,-2.0,-2.0,-6.0,5.0,7.0,3.0,1.0,-1.0
1702490610.66583,-2.0,2.0,19.0,-4.0,-2.0,0.0,-1.0,0.0
1702490610.66583,-1.0,1.0,1.0,-1.0,-6.0,-2.0,-1.0,0.0
1702490610.66583,-1.0,-1.0,-4.0,-3.0,-6.0,-2.0,-1.0,-3.0
1702490610.6761885,-2.0,-2.0,5.0,5.0,5.0,-1.0,-1.0,-1.0
1702490610.6761885,0.0,1.0,4.0,4.0,3.0,0.0,-2.0,-1.0
1702490610.6761885,0.0,6.0,16.0,-2.0,-4.0,-3.0,-1.0,-2.0
1702490610.6761885,-1.0,-6.0,-20.0,-6.0,-2.0,-4.0,-1.0,0.0
1702490610.6962206,0.0,-4.0,-26.0,-5.0,1.0,2.0,-3.0,-2.0
1702490610.6962206,-1.0,-1.0,-9.0,-3.0,-4.0,-3.0,-1.0,-2.0
1702490610.7058482,-1.0,3.0,4.0,0.0,2.0,2.0,2.0,0.0
1702490610.7058482,-2.0,2.0,2.0,2.0,-3.0,-3.0,-2.0,-2.0
1702490610.7158341,-1.0,-2.0,4.0,-3.0,-2.0,-1.0,0.0,0.0
1702490610.7158341,-3.0,-4.0,-8.0,1.0,1.0,2.0,0.0,0.0
1702490610.7158341,-1.0,-4.0,-11.0,0.0,-1.0,-1.0,-2.0,-1.0
1702490610.7158341,1.0,2.0,11.0,-3.0,-1.0,-2.0,0.0,-2.0
1702490610.7361517,0.0,3.0,20.0,-2.0,-3.0,-2.0,-1.0,-1.0
1702490610.7361517,-2.0,-7.0,-50.0,-4.0,-4.0,-2.0,-1.0,-4.0
1702490610.7361517,-2.0,2.0,22.0,2.0,1.0,-1.0,0.0,0.0
1702490610.7361517,-1.0,0.0,0.0,2.0,10.0,2.0,-1.0,-1.0
1702490610.7561471,-1.0,1.0,4.0,-4.0,-2.0,-1.0,0.0,1.0
1702490610.7561471,0.0,-2.0,-21.0,1.0,-2.0,-2.0,-1.0,-1.0
1702490610.7658317,-2.0,-5.0,-12.0,-8.0,-3.0,1.0,0.0,0.0
1702490610.7658317,-1.0,0.0,13.0,-2.0,-3.0,2.0,1.0,0.0
1702490610.7858331,-4.0,-4.0,-6.0,2.0,-2.0,-5.0,-3.0,-1.0
1702490610.7858331,-1.0,5.0,17.0,-1.0,-4.0,-3.0,-2.0,-2.0
1702490610.7858331,-2.0,-3.0,9.0,-1.0,8.0,2.0,-1.0,-1.0
1702490610.7858331,0.0,0.0,-13.0,0.0,-2.0,1.0,0.0,1.0
1702490610.795865,0.0,1.0,0.0,0.0,-3.0,-2.0,-2.0,-1.0
1702490610.795865,1.0,6.0,40.0,2.0,-2.0,0.0,-2.0,1.0
1702490610.795865,-3.0,-6.0,-50.0,-5.0,-4.0,-3.0,-2.0,-1.0
1702490610.795865,-2.0,-3.0,9.0,-3.0,-4.0,-4.0,-2.0,-2.0
1702490610.8258324,-1.0,1.0,-10.0,2.0,-1.0,1.0,-2.0,0.0
1702490610.8258324,-1.0,-1.0,5.0,-2.0,7.0,3.0,1.0,-1.0
1702490610.8258324,0.0,1.0,22.0,1.0,-7.0,-5.0,-3.0,-2.0
1702490610.8258324,0.0,-2.0,-30.0,2.0,-1.0,-2.0,0.0,-1.0
1702490610.836048,-4.0,-8.0,-13.0,-6.0,-7.0,-4.0,-3.0,-2.0
1702490610.836048,1.0,5.0,15.0,-3.0,6.0,2.0,0.0,0.0
1702490610.836048,0.0,-3.0,-10.0,-4.0,-4.0,-4.0,-2.0,-1.0
1702490610.836048,-1.0,3.0,29.0,3.0,-1.0,-1.0,0.0,0.0
1702490610.8561099,-2.0,-7.0,-57.0,-3.0,1.0,0.0,-1.0,-1.0
1702490610.8561099,-2.0,-1.0,2.0,0.0,-4.0,-2.0,-1.0,-2.0
1702490610.8561099,-1.0,-1.0,15.0,-2.0,10.0,2.0,0.0,-1.0
1702490610.8561099,-1.0,0.0,4.0,-3.0,-9.0,-5.0,-4.0,-2.0
1702490610.8958564,0.0,1.0,23.0,0.0,-5.0,-5.0,-2.0,-2.0
1702490610.8958564,-1.0,-5.0,-16.0,-2.0,0.0,0.0,0.0,0.0
1702490610.8958564,1.0,2.0,-1.0,0.0,2.0,1.0,-1.0,0.0
1702490610.8958564,-2.0,-4.0,-5.0,0.0,1.0,2.0,-1.0,-2.0
1702490610.8958564,1.0,3.0,14.0,-2.0,1.0,0.0,-1.0,0.0
1702490610.8958564,-4.0,1.0,-1.0,2.0,-4.0,-1.0,-1.0,0.0
1702490610.8958564,-2.0,-10.0,-20.0,-1.0,0.0,-1.0,0.0,-2.0
1702490610.8958564,-2.0,-6.0,-21.0,-5.0,-3.0,0.0,-3.0,-1.0
1702490610.9162853,0.0,2.0,23.0,-2.0,-3.0,-2.0,0.0,-2.0
1702490610.9162853,-2.0,-4.0,-19.0,-2.0,-3.0,-3.0,-3.0,-3.0
1702490610.9162853,0.0,5.0,16.0,-2.0,3.0,2.0,1.0,0.0
1702490610.9162853,0.0,0.0,7.0,1.0,-4.0,-1.0,1.0,-1.0
1702490610.936182,1.0,2.0,-11.0,-3.0,4.0,4.0,1.0,0.0
1702490610.936182,-3.0,-1.0,1.0,9.0,0.0,0.0,0.0,-1.0
1702490610.9462023,-2.0,3.0,13.0,-2.0,-4.0,-4.0,-3.0,-1.0
1702490610.9462023,-1.0,-1.0,5.0,-4.0,-6.0,-3.0,-2.0,-1.0
1702490610.9562154,-1.0,1.0,-19.0,0.0,2.0,2.0,-3.0,-1.0
1702490610.9562154,2.0,-3.0,1.0,-4.0,-2.0,-2.0,-1.0,-3.0
1702490610.9562154,-2.0,-2.0,-12.0,2.0,2.0,2.0,-1.0,-1.0
1702490610.9562154,0.0,5.0,5.0,2.0,-2.0,0.0,0.0,-1.0
1702490610.9958713,-1.0,0.0,46.0,3.0,-1.0,-4.0,0.0,-1.0
1702490610.9958713,-1.0,-7.0,-39.0,-2.0,-1.0,-1.0,-1.0,0.0
1702490610.9958713,1.0,-4.0,0.0,-5.0,-9.0,-3.0,-1.0,-1.0
1702490610.9958713,-1.0,0.0,-7.0,-2.0,1.0,-1.0,-2.0,-3.0
1702490611.0059881,-1.0,3.0,18.0,1.0,1.0,0.0,0.0,-2.0
1702490611.0059881,0.0,2.0,16.0,2.0,0.0,-2.0,-1.0,0.0
1702490611.0059881,-1.0,1.0,-18.0,-2.0,-5.0,-3.0,-2.0,1.0
1702490611.0059881,-1.0,-1.0,-1.0,0.0,-5.0,-2.0,0.0,1.0
1702490611.035871,0.0,1.0,-8.0,4.0,7.0,1.0,-2.0,0.0
1702490611.035871,-2.0,-3.0,8.0,-4.0,4.0,2.0,0.0,-2.0
1702490611.035871,-1.0,3.0,-7.0,1.0,3.0,1.0,0.0,-1.0
1702490611.035871,-1.0,-9.0,-36.0,-2.0,2.0,-1.0,-1.0,-2.0
1702490611.0462387,0.0,-1.0,6.0,-3.0,-8.0,-5.0,-1.0,0.0
1702490611.0462387,0.0,5.0,10.0,1.0,-2.0,-1.0,-1.0,0.0
1702490611.0462387,-2.0,-3.0,37.0,-2.0,-6.0,-3.0,-2.0,-2.0
1702490611.0462387,-2.0,1.0,-9.0,0.0,0.0,-3.0,-1.0,-1.0
1702490611.0675611,0.0,-1.0,-5.0,3.0,10.0,5.0,0.0,1.0
1702490611.0675611,0.0,-1.0,1.0,-2.0,0.0,-2.0,-3.0,-1.0
1702490611.0675611,-2.0,-1.0,-3.0,-3.0,-6.0,-3.0,-1.0,-2.0
1702490611.0684214,-2.0,-2.0,4.0,1.0,1.0,1.0,1.0,-1.0
1702490611.0787396,-2.0,-3.0,-11.0,-6.0,-5.0,-1.0,-2.0,-1.0
1702490611.0787396,-2.0,-3.0,3.0,-3.0,-3.0,-2.0,0.0,-2.0
1702490611.0787396,0.0,1.0,-2.0,2.0,-1.0,-1.0,-2.0,-1.0
1702490611.0787396,-2.0,-2.0,6.0,-3.0,3.0,1.0,-1.0,-1.0
1702490611.128419,1.0,-2.0,-3.0,3.0,-3.0,-4.0,-2.0,0.0
1702490611.128419,-2.0,-4.0,-3.0,-3.0,1.0,1.0,-2.0,1.0
1702490611.128419,-1.0,-2.0,0.0,1.0,0.0,0.0,-1.0,0.0
1702490611.128419,1.0,2.0,21.0,-2.0,-1.0,0.0,-2.0,1.0
1702490611.128419,-1.0,-2.0,-6.0,4.0,-4.0,-2.0,-1.0,-1.0
1702490611.128419,0.0,0.0,2.0,-3.0,-6.0,-1.0,-2.0,0.0
1702490611.128419,-1.0,0.0,12.0,3.0,-1.0,0.0,-2.0,-1.0
1702490611.128419,0.0,3.0,12.0,-1.0,9.0,0.0,-1.0,0.0
1702490611.1384864,-2.0,-4.0,-22.0,-5.0,-9.0,-2.0,-1.0,-2.0
1702490611.1384864,-1.0,0.0,18.0,-4.0,-5.0,-3.0,-2.0,-1.0
1702490611.1384864,-1.0,1.0,-15.0,0.0,7.0,4.0,0.0,2.0
1702490611.1384864,0.0,-3.0,-6.0,-6.0,-5.0,0.0,0.0,-1.0
1702490611.166393,-3.0,-4.0,-1.0,-2.0,-2.0,-1.0,-1.0,-2.0
1702490611.166393,1.0,5.0,6.0,2.0,-2.0,-2.0,0.0,0.0
1702490611.166393,-1.0,-10.0,-15.0,-6.0,-4.0,-3.0,-1.0,-2.0
1702490611.166393,-2.0,0.0,4.0,4.0,3.0,0.0,0.0,-2.0
1702490611.1866386,-1.0,1.0,-15.0,1.0,0.0,-2.0,0.0,0.0
1702490611.1866386,-2.0,-2.0,1.0,-4.0,-1.0,-1.0,-2.0,1.0
1702490611.1866386,-1.0,4.0,9.0,2.0,-4.0,-4.0,-1.0,1.0
1702490611.1866386,-1.0,-3.0,-15.0,-4.0,-3.0,0.0,-2.0,0.0
1702490611.196782,-1.0,-2.0,18.0,1.0,3.0,0.0,0.0,-1.0
1702490611.196782,0.0,-2.0,-15.0,-1.0,-3.0,-2.0,-3.0,-1.0
1702490611.196782,-1.0,0.0,-3.0,0.0,2.0,2.0,1.0,0.0
1702490611.196782,-6.0,-2.0,2.0,3.0,-3.0,-2.0,-1.0,-1.0
1702490611.2268045,-1.0,1.0,-2.0,-8.0,-1.0,-1.0,-1.0,-1.0
1702490611.2268045,-6.0,-3.0,-8.0,0.0,-3.0,-3.0,0.0,0.0
1702490611.2268045,28.0,5.0,8.0,3.0,-2.0,-3.0,-1.0,-1.0
1702490611.2268045,-6.0,-3.0,-1.0,-3.0,-5.0,-3.0,-2.0,-2.0
1702490611.246851,-5.0,-1.0,3.0,-5.0,1.0,3.0,0.0,-2.0
1702490611.246851,-4.0,0.0,8.0,0.0,1.0,2.0,-1.0,-1.0
1702490611.246851,-7.0,-1.0,4.0,-6.0,-1.0,0.0,1.0,-1.0
1702490611.246851,3.0,2.0,13.0,1.0,-2.0,-4.0,-1.0,-1.0
1702490611.2571058,1.0,-2.0,19.0,1.0,-10.0,-6.0,-1.0,-1.0
1702490611.2571058,-1.0,1.0,-37.0,-1.0,10.0,4.0,1.0,-2.0
1702490611.2571058,-7.0,-3.0,-16.0,-4.0,-5.0,-1.0,-2.0,-1.0
1702490611.2571058,4.0,-2.0,-11.0,2.0,-3.0,-2.0,1.0,1.0
1702490611.2868598,-4.0,-4.0,10.0,-3.0,2.0,0.0,-2.0,-2.0
1702490611.2868598,2.0,-2.0,-8.0,2.0,4.0,-3.0,-1.0,-2.0
1702490611.2868598,-4.0,2.0,12.0,0.0,-5.0,-4.0,-4.0,-1.0
1702490611.2868598,-2.0,0.0,-13.0,0.0,1.0,-1.0,1.0,0.0
1702490611.3068938,2.0,-1.0,-13.0,-1.0,-5.0,0.0,-2.0,-1.0
1702490611.3068938,0.0,1.0,12.0,1.0,1.0,0.0,-1.0,-2.0
1702490611.3068938,-4.0,-2.0,-11.0,-6.0,4.0,0.0,0.0,-2.0
1702490611.3068938,-1.0,-2.0,3.0,4.0,-4.0,2.0,0.0,-2.0
1702490611.317181,0.0,1.0,3.0,-10.0,-1.0,-1.0,-2.0,0.0
1702490611.317181,-1.0,-1.0,-7.0,-9.0,-7.0,-2.0,-1.0,-1.0
1702490611.317181,-3.0,-1.0,4.0,-2.0,-3.0,0.0,1.0,0.0
1702490611.317181,-1.0,-3.0,-5.0,0.0,-5.0,-5.0,-1.0,-1.0
1702490611.346862,-1.0,-4.0,-9.0,-1.0,9.0,4.0,1.0,-1.0
1702490611.346862,0.0,0.0,2.0,-2.0,0.0,0.0,0.0,0.0
1702490611.346862,-3.0,-2.0,-1.0,7.0,1.0,1.0,0.0,0.0
1702490611.346862,-1.0,-1.0,4.0,-8.0,-3.0,-2.0,-2.0,-2.0
1702490611.366952,0.0,1.0,-4.0,15.0,2.0,-2.0,-1.0,-3.0
1702490611.366952,0.0,-6.0,0.0,-3.0,-4.0,-2.0,-1.0,-1.0
1702490611.366952,-1.0,-1.0,11.0,4.0,-1.0,-2.0,-2.0,-1.0
1702490611.366952,0.0,-2.0,-7.0,-10.0,0.0,1.0,-1.0,-1.0
1702490611.3868623,0.0,1.0,-2.0,-4.0,-1.0,-1.0,-1.0,-2.0
1702490611.3868623,0.0,0.0,8.0,-2.0,-3.0,0.0,-2.0,-2.0
1702490611.3868623,-1.0,1.0,6.0,-4.0,-2.0,0.0,-3.0,0.0
1702490611.3868623,-1.0,-3.0,-3.0,-2.0,-4.0,-3.0,-3.0,0.0
1702490611.396897,0.0,-3.0,-17.0,-1.0,8.0,-1.0,-1.0,0.0
1702490611.396897,-1.0,0.0,0.0,0.0,-1.0,1.0,0.0,-2.0
1702490611.396897,-2.0,2.0,13.0,5.0,-3.0,-2.0,1.0,-2.0
1702490611.396897,-1.0,-4.0,-15.0,-9.0,-2.0,-1.0,-1.0,0.0
1702490611.426865,-1.0,0.0,5.0,1.0,-5.0,-1.0,-1.0,1.0
1702490611.426865,0.0,0.0,1.0,-4.0,-3.0,-2.0,-3.0,-1.0
1702490611.426865,-3.0,-3.0,-7.0,-3.0,-4.0,-4.0,-2.0,-1.0
1702490611.426865,2.0,2.0,6.0,0.0,9.0,5.0,1.0,-2.0
1702490611.4568615,0.0,0.0,-4.0,2.0,-2.0,0.0,0.0,0.0
1702490611.4568615,-3.0,-4.0,-9.0,-1.0,-3.0,-5.0,-1.0,-2.0
1702490611.4568615,-2.0,1.0,-1.0,1.0,3.0,1.0,-1.0,-1.0
1702490611.4568615,-1.0,-1.0,2.0,7.0,-1.0,0.0,-2.0,0.0
1702490611.4568615,1.0,-1.0,1.0,-10.0,-3.0,-1.0,-2.0,0.0
1702490611.4568615,-1.0,0.0,10.0,-2.0,-1.0,1.0,-2.0,-1.0
1702490611.4568615,-1.0,-4.0,-12.0,-4.0,-2.0,-3.0,-1.0,0.0
1702490611.4568615,-2.0,0.0,4.0,2.0,3.0,-2.0,-1.0,-1.0
1702490611.4868615,-2.0,0.0,5.0,2.0,1.0,0.0,0.0,-1.0
1702490611.4868615,0.0,-2.0,-2.0,1.0,-5.0,-4.0,0.0,-1.0
1702490611.4868615,-1.0,-2.0,8.0,-4.0,-3.0,-3.0,0.0,-1.0
1702490611.4868615,1.0,-2.0,-21.0,-3.0,-11.0,-3.0,-2.0,-1.0
1702490611.5068595,-4.0,1.0,20.0,0.0,15.0,4.0,-1.0,0.0
1702490611.5068595,-2.0,-1.0,-16.0,1.0,-2.0,1.0,0.0,0.0
1702490611.5068595,-2.0,0.0,-1.0,-5.0,0.0,0.0,-1.0,-1.0
1702490611.5068595,-2.0,2.0,18.0,8.0,-3.0,-2.0,-2.0,1.0
1702490611.5171435,-1.0,-3.0,-21.0,-2.0,-12.0,-4.0,-3.0,-1.0
1702490611.5171435,-1.0,-1.0,8.0,-3.0,-3.0,-3.0,0.0,-1.0
1702490611.5171435,0.0,1.0,-9.0,6.0,7.0,4.0,1.0,-1.0
1702490611.5171435,-1.0,-2.0,-2.0,-11.0,2.0,0.0,-1.0,-1.0
1702490611.5468643,2.0,4.0,6.0,0.0,-5.0,-2.0,-2.0,-1.0
1702490611.5468643,-2.0,-4.0,5.0,8.0,5.0,-1.0,0.0,-1.0
1702490611.5468643,0.0,-5.0,-31.0,-9.0,-10.0,-4.0,-1.0,-2.0
1702490611.5468643,-1.0,0.0,5.0,-2.0,0.0,-2.0,0.0,-1.0
1702490611.5792449,-2.0,-2.0,-2.0,1.0,-1.0,-1.0,2.0,-1.0
1702490611.5792449,-1.0,0.0,-7.0,-4.0,-3.0,-3.0,-1.0,-2.0
1702490611.5792449,-1.0,2.0,27.0,1.0,1.0,0.0,-1.0,1.0
1702490611.5792449,-3.0,-7.0,-64.0,1.0,3.0,-1.0,-1.0,-1.0
1702490611.5834084,-2.0,-1.0,-3.0,-6.0,-7.0,-3.0,-2.0,-1.0
1702490611.5834084,0.0,3.0,12.0,0.0,-4.0,-3.0,-2.0,-1.0
1702490611.5845454,-2.0,-2.0,-2.0,0.0,3.0,2.0,0.0,-2.0
1702490611.5845454,1.0,-3.0,-12.0,-2.0,-1.0,-1.0,1.0,-1.0
1702490611.6012137,-3.0,-1.0,2.0,-3.0,-1.0,0.0,-1.0,1.0
1702490611.6012137,-3.0,-2.0,-3.0,3.0,7.0,4.0,1.0,-1.0
1702490611.6012137,-1.0,-1.0,5.0,-3.0,-4.0,0.0,-2.0,-2.0
1702490611.6012137,-2.0,2.0,14.0,2.0,2.0,1.0,-1.0,-1.0
1702490611.6112142,-2.0,-4.0,-12.0,-1.0,-7.0,-4.0,0.0,0.0
1702490611.6112142,1.0,1.0,8.0,1.0,0.0,-2.0,-2.0,1.0
1702490611.6212125,0.0,-2.0,-6.0,0.0,0.0,1.0,0.0,0.0
1702490611.6212125,0.0,0.0,7.0,-3.0,-3.0,-2.0,-1.0,-2.0
1702490611.6416278,-1.0,-3.0,-3.0,-3.0,-3.0,-1.0,-1.0,-4.0
1702490611.6416278,0.0,0.0,-4.0,7.0,8.0,5.0,1.0,1.0
1702490611.6416278,-1.0,1.0,-4.0,-1.0,-2.0,-1.0,-2.0,0.0
1702490611.6416278,-3.0,-1.0,7.0,2.0,2.0,5.0,-1.0,-2.0
1702490611.661212,1.0,0.0,5.0,-1.0,-2.0,-3.0,-2.0,0.0
1702490611.661212,0.0,-1.0,2.0,-10.0,-6.0,-4.0,-1.0,-1.0
1702490611.661212,-1.0,-1.0,-5.0,13.0,1.0,2.0,-2.0,-2.0
1702490611.661212,0.0,0.0,13.0,-4.0,-3.0,-3.0,-2.0,0.0
1702490611.6812146,0.0,2.0,3.0,11.0,-1.0,2.0,-2.0,-2.0
1702490611.6812146,-4.0,-6.0,-7.0,-5.0,0.0,1.0,-1.0,-1.0
1702490611.6812146,0.0,0.0,-5.0,-3.0,-1.0,-3.0,-1.0,-1.0
1702490611.6812146,-3.0,-1.0,5.0,2.0,0.0,-3.0,-1.0,-2.0
1702490611.7012558,0.0,-1.0,11.0,-4.0,0.0,-2.0,-2.0,0.0
1702490611.7012558,0.0,-2.0,-17.0,-1.0,-8.0,-4.0,-2.0,-1.0
1702490611.7012558,0.0,6.0,22.0,-3.0,2.0,0.0,-1.0,0.0
1702490611.7012558,-1.0,-7.0,-32.0,-2.0,-1.0,0.0,-1.0,-1.0
1702490611.7215528,-2.0,-9.0,-21.0,-1.0,-8.0,-3.0,-1.0,0.0
1702490611.7215528,-1.0,2.0,9.0,5.0,17.0,4.0,0.0,1.0
1702490611.7312133,-1.0,17.0,-2.0,-3.0,-5.0,0.0,-1.0,1.0
1702490611.7312133,2.0,5.0,34.0,1.0,2.0,2.0,0.0,-1.0
1702490611.7412143,-2.0,-15.0,-26.0,-6.0,-5.0,-3.0,0.0,-1.0
1702490611.7412143,0.0,-1.0,12.0,-2.0,-11.0,-5.0,-1.0,-1.0
1702490611.7412143,-3.0,-4.0,-60.0,-7.0,1.0,-2.0,-2.0,-2.0
1702490611.7412143,-1.0,4.0,-12.0,3.0,-1.0,-3.0,-2.0,-1.0
1702490611.7612145,-1.0,6.0,29.0,-2.0,2.0,3.0,-1.0,-1.0
1702490611.7612145,-1.0,-2.0,-23.0,0.0,-4.0,-2.0,-1.0,1.0
1702490611.7712123,-1.0,-6.0,13.0,-6.0,-2.0,-2.0,-1.0,-2.0
1702490611.7712123,-2.0,-2.0,4.0,-3.0,-3.0,-3.0,-1.0,-2.0
1702490611.781571,-2.0,-2.0,-10.0,-1.0,2.0,-2.0,-2.0,-3.0
1702490611.781571,-2.0,-2.0,1.0,-3.0,-5.0,-3.0,0.0,-1.0
1702490611.781571,-1.0,0.0,34.0,3.0,-2.0,-2.0,0.0,0.0
1702490611.781571,-2.0,-10.0,-54.0,-2.0,1.0,-1.0,-1.0,-2.0
1702490611.8012156,-1.0,5.0,15.0,-1.0,3.0,1.0,-1.0,-1.0
1702490611.8012156,2.0,4.0,0.0,2.0,-1.0,0.0,-2.0,-3.0
1702490611.8012156,-3.0,-8.0,3.0,-9.0,-15.0,-8.0,-3.0,-2.0
1702490611.8012156,0.0,0.0,1.0,0.0,7.0,2.0,0.0,0.0
1702490611.821519,0.0,1.0,-3.0,2.0,7.0,3.0,1.0,-1.0
1702490611.821519,-1.0,-8.0,-31.0,-6.0,-5.0,-1.0,-3.0,-2.0
1702490611.821519,-1.0,-1.0,6.0,5.0,2.0,-2.0,-2.0,-2.0
1702490611.821519,-1.0,4.0,21.0,-3.0,-7.0,-1.0,-2.0,-1.0
1702490611.841215,-1.0,5.0,-1.0,-2.0,-4.0,-4.0,-1.0,-2.0
1702490611.841215,1.0,-4.0,6.0,-3.0,-3.0,0.0,-1.0,0.0
1702490611.841215,0.0,0.0,-3.0,-2.0,5.0,5.0,2.0,0.0
1702490611.841215,0.0,2.0,12.0,2.0,0.0,-3.0,-1.0,-1.0
1702490611.851239,-2.0,-5.0,-24.0,-3.0,-3.0,0.0,-1.0,-1.0
1702490611.8612244,-2.0,-4.0,4.0,-2.0,-1.0,-3.0,-2.0,0.0
1702490611.8612244,1.0,14.0,20.0,0.0,-4.0,-3.0,0.0,-1.0
1702490611.8612244,-1.0,-20.0,-8.0,-1.0,2.0,1.0,-1.0,-1.0
1702490611.8812125,0.0,2.0,8.0,3.0,5.0,-1.0,-1.0,-1.0
1702490611.8812125,-3.0,2.0,0.0,-5.0,-4.0,-3.0,-3.0,-3.0
1702490611.8812125,-1.0,-1.0,1.0,7.0,1.0,2.0,2.0,-1.0
1702490611.8812125,-1.0,8.0,10.0,7.0,-2.0,0.0,0.0,1.0
1702490611.9012144,-1.0,-3.0,-1.0,-6.0,-11.0,-7.0,-2.0,-1.0
1702490611.9012144,0.0,0.0,0.0,1.0,13.0,4.0,1.0,-1.0
1702490611.9012144,-2.0,-9.0,-14.0,-7.0,-2.0,-1.0,-2.0,-1.0
1702490611.9012144,-2.0,2.0,5.0,-5.0,-3.0,-2.0,-1.0,-3.0
1702490611.9213989,0.0,-3.0,-6.0,1.0,-2.0,-2.0,-3.0,-1.0
1702490611.9213989,-1.0,3.0,5.0,0.0,-5.0,-2.0,-2.0,-2.0
1702490611.9213989,-1.0,-7.0,-10.0,-2.0,2.0,-1.0,-1.0,0.0
1702490611.9213989,-2.0,1.0,4.0,0.0,-4.0,-2.0,-1.0,-3.0
1702490611.9512107,0.0,0.0,4.0,0.0,-1.0,1.0,1.0,-2.0
1702490611.9512107,-3.0,1.0,-1.0,0.0,0.0,2.0,1.0,-2.0
1702490611.9512107,-1.0,-2.0,-5.0,-3.0,-2.0,1.0,-2.0,-1.0
1702490611.9512107,-1.0,-3.0,0.0,-3.0,0.0,-1.0,1.0,1.0
1702490611.961517,-1.0,0.0,-1.0,-4.0,-4.0,-2.0,-3.0,-2.0
1702490611.961517,0.0,1.0,11.0,6.0,-2.0,-1.0,0.0,-1.0
1702490611.961517,0.0,-6.0,-21.0,-1.0,3.0,-1.0,0.0,-1.0
1702490611.961517,-2.0,0.0,-5.0,-3.0,-3.0,-3.0,-2.0,-3.0
1702490611.9814324,-1.0,1.0,3.0,1.0,-3.0,-1.0,0.0,-2.0
1702490611.9814324,0.0,1.0,-5.0,-8.0,-1.0,-1.0,-2.0,0.0
1702490611.991218,-1.0,-3.0,1.0,1.0,-1.0,-4.0,-2.0,-1.0
1702490611.991218,-3.0,1.0,17.0,14.0,2.0,1.0,-1.0,-1.0
1702490612.021214,-3.0,-4.0,-17.0,-7.0,-1.0,-2.0,1.0,-1.0
1702490612.0312483,0.0,-1.0,4.0,-5.0,-6.0,-3.0,0.0,-1.0
1702490612.0312483,-1.0,-3.0,-1.0,-4.0,2.0,1.0,-1.0,-2.0
1702490612.0312483,0.0,1.0,-4.0,-8.0,-5.0,-1.0,-2.0,-2.0
1702490612.0312483,-1.0,0.0,5.0,0.0,5.0,0.0,0.0,-1.0
1702490612.0312483,-2.0,5.0,3.0,-1.0,1.0,-2.0,-1.0,-1.0
1702490612.0312483,-3.0,-8.0,-6.0,-14.0,-9.0,-4.0,-3.0,-2.0
1702490612.0312483,1.0,1.0,2.0,3.0,7.0,2.0,1.0,-1.0
1702490612.051262,-2.0,0.0,2.0,1.0,-6.0,0.0,0.0,-1.0
1702490612.051262,-2.0,-3.0,-10.0,-3.0,-3.0,-4.0,-2.0,-1.0
1702490612.051262,-1.0,0.0,3.0,5.0,4.0,3.0,0.0,1.0
1702490612.051262,0.0,-1.0,1.0,-9.0,-4.0,-4.0,-2.0,0.0
1702490612.061609,-6.0,-1.0,-2.0,-20.0,-2.0,0.0,-3.0,-1.0
1702490612.061609,-1.0,9.0,1.0,14.0,2.0,0.0,2.0,-1.0
1702490612.061609,0.0,-35.0,-6.0,1.0,-2.0,-2.0,0.0,-1.0
1702490612.061609,-2.0,0.0,1.0,12.0,1.0,-2.0,0.0,-2.0
1702490612.0817125,1.0,18.0,8.0,-4.0,2.0,1.0,0.0,1.0
1702490612.0817125,0.0,-27.0,0.0,-12.0,-1.0,-1.0,-2.0,-1.0
1702490612.0817125,-1.0,6.0,-10.0,-4.0,-4.0,-4.0,-1.0,-2.0
1702490612.0817125,-1.0,4.0,16.0,-7.0,-1.0,-1.0,1.0,0.0
1702490612.1139586,0.0,-9.0,-6.0,2.0,2.0,-1.0,0.0,0.0
1702490612.1139586,-2.0,8.0,6.0,5.0,-5.0,-3.0,-1.0,-1.0
1702490612.1139586,4.0,23.0,-22.0,0.0,-8.0,-8.0,-2.0,-2.0
1702490612.1139586,-2.0,-23.0,44.0,-3.0,4.0,7.0,0.0,-1.0
1702490612.1234314,1.0,-6.0,-72.0,4.0,6.0,3.0,-1.0,-2.0
1702490612.1234314,1.0,13.0,53.0,3.0,-1.0,2.0,2.0,1.0
1702490612.1242828,-3.0,-9.0,-51.0,-9.0,-3.0,-4.0,-3.0,-1.0
1702490612.1242828,-4.0,0.0,-60.0,-5.0,-7.0,-5.0,-1.0,-1.0
1702490612.1443067,-1.0,-2.0,34.0,4.0,-3.0,-2.0,-1.0,-1.0
1702490612.1443067,0.0,0.0,-5.0,-5.0,0.0,-1.0,-2.0,8.0
1702490612.1443067,0.0,-1.0,19.0,1.0,2.0,0.0,-1.0,-12.0
1702490612.1443067,1.0,6.0,-41.0,-3.0,0.0,-1.0,-2.0,-2.0
1702490612.1715708,0.0,-12.0,11.0,4.0,0.0,-1.0,0.0,0.0
1702490612.1715708,0.0,5.0,-11.0,-3.0,-2.0,-2.0,-3.0,-4.0
1702490612.1715708,-1.0,2.0,24.0,3.0,2.0,2.0,1.0,3.0
1702490612.1715708,-1.0,-1.0,7.0,0.0,2.0,0.0,-2.0,1.0
1702490612.1817472,-1.0,4.0,10.0,1.0,-3.0,-3.0,-2.0,-2.0
1702490612.1817472,-2.0,-6.0,-17.0,-1.0,-3.0,-3.0,-1.0,-1.0
1702490612.1817472,0.0,3.0,9.0,1.0,1.0,-1.0,-2.0,1.0
1702490612.1817472,2.0,4.0,8.0,-2.0,1.0,-1.0,-1.0,-1.0
1702490612.2017372,0.0,-4.0,-10.0,-2.0,-4.0,-4.0,-1.0,2.0
1702490612.2017372,-2.0,-2.0,16.0,-6.0,-9.0,-3.0,-1.0,-3.0
1702490612.2017372,-2.0,-2.0,-26.0,10.0,18.0,8.0,3.0,1.0
1702490612.2017372,0.0,3.0,5.0,-1.0,-6.0,-5.0,-2.0,-1.0
1702490612.2515683,-2.0,4.0,16.0,-2.0,-11.0,-3.0,-4.0,0.0
1702490612.2515683,-2.0,-8.0,-20.0,0.0,8.0,1.0,-4.0,-1.0
1702490612.2515683,0.0,5.0,30.0,-1.0,-6.0,-4.0,-1.0,-1.0
1702490612.2515683,-1.0,-1.0,8.0,-4.0,-5.0,-2.0,0.0,1.0
1702490612.2515683,-1.0,-3.0,-1.0,0.0,4.0,2.0,-1.0,-2.0
1702490612.2515683,1.0,-2.0,-4.0,-1.0,-5.0,-3.0,-1.0,-2.0
1702490612.2515683,-1.0,-1.0,3.0,-1.0,-2.0,-2.0,0.0,2.0
1702490612.2515683,-3.0,-1.0,7.0,-1.0,0.0,0.0,-1.0,-1.0
1702490612.2616034,0.0,0.0,7.0,-1.0,-5.0,-4.0,-1.0,0.0
1702490612.2616034,-1.0,-3.0,-12.0,0.0,3.0,-1.0,0.0,-1.0
1702490612.2616034,0.0,3.0,6.0,-1.0,0.0,0.0,-2.0,-1.0
1702490612.2616034,0.0,-2.0,10.0,-2.0,-2.0,-1.0,0.0,-2.0
1702490612.291567,-1.0,-2.0,-22.0,1.0,0.0,1.0,-2.0,0.0
1702490612.291567,-1.0,-1.0,-5.0,-3.0,1.0,1.0,-2.0,-1.0
1702490612.291567,-2.0,3.0,9.0,0.0,-3.0,-1.0,-2.0,-1.0
1702490612.291567,0.0,-2.0,-9.0,-3.0,-3.0,-2.0,-2.0,-1.0
1702490612.3018277,-2.0,-2.0,-21.0,-3.0,2.0,-1.0,-1.0,-1.0
1702490612.3018277,0.0,-1.0,10.0,1.0,0.0,1.0,1.0,-2.0
1702490612.3018277,-1.0,-2.0,1.0,-1.0,-3.0,0.0,0.0,-1.0
1702490612.3018277,-1.0,1.0,-2.0,-4.0,-1.0,0.0,0.0,0.0
1702490612.3218713,1.0,0.0,4.0,3.0,-2.0,-4.0,-1.0,-1.0
1702490612.3218713,-3.0,-4.0,-7.0,-2.0,-10.0,-5.0,-1.0,-3.0
1702490612.3218713,-3.0,-1.0,1.0,-2.0,9.0,4.0,0.0,-1.0
1702490612.3218713,-1.0,2.0,-4.0,2.0,2.0,1.0,0.0,-2.0
1702490612.3415673,0.0,0.0,4.0,0.0,-3.0,0.0,0.0,-1.0
1702490612.3415673,-1.0,-2.0,10.0,0.0,-1.0,-1.0,-1.0,-2.0
1702490612.3415673,-1.0,-4.0,-29.0,-4.0,-6.0,-2.0,-1.0,0.0
1702490612.3415673,0.0,1.0,0.0,0.0,0.0,-3.0,-3.0,-1.0
1702490612.3619702,0.0,2.0,30.0,-1.0,1.0,-2.0,-2.0,0.0
1702490612.3619702,-2.0,-3.0,-43.0,-1.0,-1.0,0.0,-2.0,-2.0
1702490612.3715694,-1.0,-2.0,4.0,2.0,6.0,2.0,0.0,-1.0
1702490612.3715694,-2.0,-3.0,8.0,-5.0,-8.0,-3.0,-2.0,-2.0
1702490612.3819816,0.0,-1.0,12.0,0.0,9.0,1.0,0.0,-1.0
1702490612.3819816,0.0,0.0,-2.0,4.0,-4.0,-1.0,-2.0,-1.0
1702490612.3819816,0.0,-2.0,2.0,-1.0,-3.0,-1.0,-2.0,-2.0
1702490612.3819816,-2.0,0.0,-4.0,1.0,-2.0,0.0,-2.0,0.0
1702490612.4015672,-1.0,-1.0,0.0,1.0,-4.0,-3.0,-3.0,-2.0
1702490612.4015672,-1.0,0.0,2.0,-3.0,1.0,-1.0,-2.0,-1.0
1702490612.4015672,0.0,0.0,0.0,1.0,-2.0,-1.0,1.0,1.0
1702490612.4015672,-2.0,-3.0,4.0,-1.0,-4.0,-3.0,-2.0,-2.0
1702490612.421796,0.0,0.0,4.0,1.0,-1.0,1.0,0.0,-2.0
1702490612.421796,-1.0,-4.0,-18.0,-2.0,2.0,-1.0,0.0,-1.0
1702490612.421796,0.0,-2.0,-26.0,-5.0,-5.0,-3.0,-2.0,-2.0
1702490612.421796,-1.0,1.0,-10.0,-1.0,5.0,0.0,-1.0,-1.0
1702490612.4418392,0.0,0.0,-2.0,1.0,8.0,6.0,-1.0,-3.0
1702490612.4418392,-1.0,0.0,12.0,0.0,-4.0,0.0,0.0,0.0
1702490612.4418392,0.0,0.0,12.0,1.0,-3.0,-3.0,-2.0,-2.0
1702490612.4418392,-2.0,-2.0,-3.0,-1.0,-4.0,-3.0,-2.0,1.0
1702490612.4915679,0.0,1.0,8.0,-4.0,-4.0,-3.0,-1.0,-1.0
1702490612.4915679,-3.0,-6.0,-26.0,-1.0,2.0,1.0,-1.0,-2.0
1702490612.4915679,-1.0,0.0,9.0,-2.0,-5.0,-3.0,0.0,0.0
1702490612.4915679,0.0,0.0,-2.0,2.0,6.0,0.0,-1.0,2.0
1702490612.4915679,0.0,-1.0,3.0,-2.0,-4.0,-4.0,-1.0,0.0
1702490612.4915679,-2.0,0.0,9.0,-3.0,1.0,-1.0,0.0,-1.0
1702490612.5015695,-2.0,0.0,14.0,-3.0,-3.0,-3.0,0.0,-1.0
1702490612.5015695,0.0,-4.0,-4.0,-1.0,-2.0,-1.0,-1.0,-2.0
1702490612.5015695,-3.0,-2.0,-36.0,5.0,-2.0,0.0,0.0,-2.0
1702490612.5015695,0.0,1.0,11.0,1.0,10.0,2.0,0.0,-1.0
1702490612.5015695,-3.0,-1.0,7.0,-3.0,-5.0,-2.0,-3.0,-3.0
1702490612.5015695,1.0,2.0,9.0,1.0,0.0,2.0,1.0,0.0
1702490612.5219014,-2.0,-3.0,-1.0,-7.0,-5.0,-1.0,-2.0,0.0
1702490612.5219014,0.0,0.0,0.0,-2.0,-3.0,-2.0,-2.0,-1.0
1702490612.5219014,2.0,1.0,2.0,3.0,4.0,-3.0,0.0,-1.0
1702490612.5219014,-3.0,-1.0,-1.0,-1.0,-5.0,-3.0,-2.0,-2.0
1702490612.5419447,0.0,-3.0,-6.0,-4.0,-4.0,-3.0,-2.0,-1.0
1702490612.5419447,-2.0,-3.0,1.0,-4.0,6.0,4.0,-1.0,0.0
1702490612.5515702,0.0,3.0,19.0,-2.0,-1.0,1.0,-3.0,0.0
1702490612.5515702,0.0,-4.0,-18.0,-2.0,0.0,-2.0,1.0,-2.0
1702490612.5615687,-3.0,-5.0,-3.0,3.0,-3.0,-1.0,1.0,-1.0
1702490612.5615687,0.0,1.0,8.0,-1.0,-4.0,-5.0,-3.0,1.0
1702490612.5615687,-2.0,-1.0,1.0,0.0,-1.0,0.0,0.0,0.0
1702490612.5615687,0.0,1.0,11.0,-2.0,-4.0,1.0,-1.0,0.0
1702490612.5819461,-1.0,0.0,3.0,0.0,6.0,2.0,0.0,0.0
1702490612.5819461,-1.0,-2.0,0.0,2.0,0.0,0.0,0.0,-1.0
1702490612.5819461,-1.0,0.0,2.0,-2.0,-2.0,-1.0,-2.0,-1.0
1702490612.5819461,0.0,-2.0,-34.0,-3.0,-1.0,-2.0,-3.0,-1.0
1702490612.601569,0.0,-1.0,4.0,-6.0,-2.0,1.0,0.0,1.0
1702490612.601569,-2.0,-2.0,-1.0,-1.0,-7.0,-4.0,-1.0,-1.0
1702490612.611569,-1.0,-1.0,-4.0,-2.0,3.0,-1.0,-1.0,-4.0
1702490612.611569,-1.0,0.0,8.0,-3.0,-4.0,-3.0,-3.0,-2.0
1702490612.6215684,-1.0,1.0,-1.0,0.0,3.0,0.0,0.0,-1.0
1702490612.6215684,0.0,-1.0,1.0,-1.0,-6.0,-4.0,0.0,-2.0
1702490612.6215684,-2.0,-3.0,-3.0,-3.0,2.0,0.0,-2.0,0.0
1702490612.6215684,0.0,2.0,11.0,1.0,4.0,3.0,-2.0,-1.0
1702490612.6438465,-3.0,-5.0,-5.0,-4.0,-7.0,-3.0,-2.0,-4.0
1702490612.6438465,0.0,0.0,-6.0,1.0,0.0,1.0,0.0,-1.0
1702490612.6438465,0.0,-1.0,-12.0,2.0,2.0,1.0,-1.0,-2.0
1702490612.6438465,-2.0,-5.0,7.0,-3.0,-5.0,-2.0,-1.0,-1.0
1702490612.662041,-1.0,1.0,2.0,0.0,1.0,-2.0,-1.0,0.0
1702490612.662041,-1.0,-2.0,1.0,-1.0,-2.0,-1.0,-1.0,-3.0
1702490612.6708276,-1.0,-3.0,-2.0,-1.0,-2.0,-2.0,0.0,-2.0
1702490612.6718323,0.0,1.0,12.0,1.0,2.0,0.0,0.0,0.0
1702490612.7034638,0.0,1.0,-9.0,0.0,-6.0,-2.0,-2.0,-2.0
1702490612.7034638,-2.0,-1.0,-22.0,0.0,3.0,0.0,-1.0,-1.0
1702490612.7034638,-1.0,-1.0,1.0,1.0,0.0,1.0,1.0,0.0
1702490612.7034638,0.0,2.0,16.0,1.0,0.0,-1.0,0.0,-2.0
1702490612.7034638,-1.0,-4.0,-30.0,-2.0,-1.0,-2.0,1.0,-1.0
1702490612.7034638,1.0,0.0,10.0,-4.0,-13.0,-4.0,-3.0,-1.0
1702490612.7034638,-2.0,-1.0,-3.0,1.0,10.0,1.0,0.0,-1.0
1702490612.7034638,-2.0,-3.0,2.0,-2.0,-3.0,-2.0,0.0,-1.0
1702490612.7234623,-3.0,-4.0,-3.0,-3.0,-1.0,-1.0,-3.0,0.0
1702490612.7234623,-2.0,1.0,-6.0,-2.0,-9.0,-6.0,-1.0,2.0
1702490612.7234623,0.0,-1.0,-5.0,-3.0,-3.0,3.0,0.0,0.0
1702490612.7234623,1.0,0.0,10.0,0.0,4.0,3.0,1.0,1.0
1702490612.7438314,-1.0,0.0,6.0,2.0,3.0,0.0,-1.0,0.0
1702490612.7438314,-1.0,2.0,7.0,-2.0,3.0,2.0,1.0,0.0
1702490612.7438314,-1.0,-5.0,-1.0,-2.0,-13.0,-8.0,-2.0,0.0
1702490612.7438314,-1.0,-2.0,-4.0,-1.0,1.0,-1.0,-2.0,-3.0
1702490612.7624326,1.0,3.0,10.0,-3.0,-3.0,0.0,0.0,-1.0
1702490612.7624326,-2.0,-1.0,21.0,1.0,6.0,1.0,-1.0,-1.0
1702490612.7624326,-1.0,-1.0,-4.0,-1.0,0.0,0.0,0.0,-3.0
1702490612.7624326,-1.0,-6.0,-54.0,-3.0,-1.0,1.0,-2.0,-2.0
1702490612.7924414,0.0,0.0,4.0,-3.0,-2.0,-1.0,-1.0,-1.0
1702490612.7924414,-2.0,1.0,16.0,3.0,1.0,-1.0,-1.0,0.0
1702490612.7924414,-1.0,-1.0,2.0,1.0,0.0,-1.0,1.0,2.0
1702490612.7924414,-2.0,-2.0,7.0,0.0,-2.0,-2.0,0.0,-1.0
1702490612.8027318,1.0,3.0,9.0,0.0,0.0,0.0,-1.0,-2.0
1702490612.8027318,-1.0,-5.0,2.0,-1.0,1.0,0.0,-1.0,-4.0
1702490612.8027318,1.0,-1.0,-23.0,-3.0,-14.0,-4.0,-1.0,-2.0
1702490612.8027318,-1.0,1.0,2.0,-2.0,6.0,2.0,0.0,-2.0
1702490612.8227582,-3.0,-4.0,-4.0,0.0,1.0,1.0,-1.0,0.0
1702490612.8227582,0.0,2.0,19.0,0.0,1.0,2.0,-1.0,-1.0
1702490612.8227582,-1.0,-3.0,-15.0,-2.0,-9.0,-6.0,-2.0,0.0
1702490612.8227582,-2.0,0.0,11.0,-1.0,-1.0,-1.0,2.0,-3.0
1702490612.8424506,-1.0,0.0,11.0,-1.0,2.0,3.0,2.0,0.0
1702490612.8424506,0.0,-3.0,-23.0,-1.0,-1.0,-1.0,-2.0,0.0
1702490612.8424506,-2.0,1.0,22.0,-1.0,-2.0,0.0,-3.0,1.0
1702490612.8424506,1.0,2.0,-4.0,-1.0,-3.0,-5.0,-2.0,1.0
1702490612.872444,-1.0,-2.0,-7.0,-2.0,0.0,0.0,0.0,-2.0
1702490612.872444,-1.0,-1.0,-5.0,-2.0,-3.0,0.0,-1.0,-2.0
1702490612.872444,-1.0,-1.0,2.0,0.0,0.0,0.0,-3.0,0.0
1702490612.872444,-2.0,-2.0,8.0,-3.0,-3.0,-1.0,-2.0,0.0
1702490612.882581,0.0,0.0,9.0,-2.0,-1.0,-5.0,0.0,1.0
1702490612.882581,0.0,-1.0,-6.0,-1.0,-3.0,-2.0,-1.0,1.0
1702490612.8924432,-1.0,-2.0,-11.0,-1.0,3.0,2.0,0.0,-2.0
1702490612.8924432,-1.0,-1.0,-6.0,1.0,-2.0,1.0,1.0,-1.0
1702490612.902467,-1.0,1.0,13.0,0.0,-3.0,-1.0,-2.0,0.0
1702490612.9124475,-1.0,1.0,-6.0,-1.0,-1.0,0.0,-2.0,-1.0
1702490612.9124475,-2.0,2.0,1.0,-2.0,2.0,0.0,-1.0,-1.0
1702490612.9124475,0.0,0.0,18.0,-1.0,-12.0,-7.0,-2.0,-1.0
1702490612.9227026,-1.0,-9.0,-56.0,-4.0,6.0,0.0,-3.0,-1.0
1702490612.9227026,0.0,3.0,10.0,1.0,3.0,3.0,1.0,2.0
1702490612.9227026,-3.0,-4.0,-9.0,-1.0,2.0,0.0,-1.0,-2.0
1702490612.9227026,-1.0,0.0,-3.0,1.0,0.0,-2.0,-1.0,-3.0
1702490612.952715,0.0,-1.0,15.0,-1.0,-9.0,-6.0,-2.0,-1.0
1702490612.952715,-1.0,-5.0,-25.0,-3.0,0.0,-2.0,-2.0,-2.0
1702490612.952715,1.0,1.0,13.0,1.0,10.0,5.0,2.0,0.0
1702490612.952715,-2.0,0.0,2.0,-1.0,-2.0,-1.0,-2.0,-2.0
1702490612.9629507,-1.0,3.0,6.0,1.0,2.0,0.0,0.0,-1.0
1702490612.9629507,1.0,-1.0,-9.0,-6.0,-7.0,-5.0,-2.0,0.0
1702490612.9727628,-3.0,0.0,9.0,-3.0,-7.0,-3.0,0.0,-2.0
1702490612.9727628,-2.0,-4.0,-18.0,-1.0,3.0,2.0,1.0,-1.0
1702490612.982851,-2.0,-2.0,-34.0,0.0,1.0,0.0,-2.0,-2.0
1702490612.982851,-3.0,0.0,8.0,0.0,1.0,0.0,-2.0,-2.0
1702490612.982851,-1.0,0.0,12.0,2.0,-1.0,-2.0,-2.0,-1.0
1702490612.982851,-1.0,-4.0,-9.0,-3.0,-1.0,0.0,-1.0,-2.0
1702490613.0030031,-2.0,1.0,19.0,1.0,-3.0,-3.0,-1.0,-1.0
1702490613.0030031,1.0,-1.0,2.0,-2.0,-3.0,-4.0,-2.0,-1.0
1702490613.0030031,-1.0,-3.0,-6.0,-3.0,-5.0,-4.0,-2.0,-3.0
1702490613.0030031,0.0,-3.0,-10.0,0.0,9.0,5.0,1.0,0.0
1702490613.0330188,0.0,4.0,28.0,1.0,-1.0,3.0,2.0,-2.0
1702490613.0330188,-3.0,-2.0,-2.0,-2.0,0.0,-3.0,-1.0,-2.0
1702490613.0330188,1.0,0.0,-4.0,0.0,-3.0,-1.0,-1.0,1.0
1702490613.0330188,0.0,0.0,6.0,-2.0,-8.0,-5.0,0.0,-1.0
1702490613.0530217,-2.0,-2.0,1.0,-1.0,1.0,0.0,-1.0,-1.0
1702490613.0530217,0.0,-1.0,-1.0,-1.0,-2.0,-1.0,-1.0,-1.0
1702490613.0530217,0.0,-2.0,3.0,0.0,1.0,-1.0,1.0,1.0
1702490613.0530217,1.0,0.0,-10.0,-1.0,-2.0,-1.0,-2.0,-2.0
1702490613.0730178,-1.0,-1.0,4.0,-2.0,1.0,-1.0,-2.0,-2.0
1702490613.0730178,0.0,-1.0,-11.0,0.0,-3.0,3.0,0.0,-2.0
1702490613.0730178,0.0,0.0,7.0,-3.0,-1.0,-1.0,-2.0,1.0
1702490613.0730178,1.0,0.0,-5.0,-1.0,8.0,1.0,-2.0,-1.0
1702490613.0830293,-2.0,-2.0,2.0,0.0,-5.0,-2.0,-1.0,0.0
1702490613.0830293,-3.0,-9.0,-64.0,-4.0,0.0,-3.0,-2.0,-1.0
1702490613.0930243,0.0,1.0,12.0,0.0,-5.0,-2.0,0.0,0.0
1702490613.0930243,-3.0,-1.0,8.0,-2.0,-4.0,0.0,-1.0,0.0
1702490613.1030262,1.0,-1.0,-5.0,-4.0,-2.0,-3.0,-4.0,-2.0
1702490613.1030262,-1.0,2.0,20.0,1.0,3.0,1.0,0.0,-3.0
1702490613.1030262,-2.0,-6.0,-15.0,0.0,3.0,2.0,-1.0,-3.0
1702490613.1030262,-1.0,-3.0,-27.0,-2.0,-2.0,-3.0,0.0,1.0
1702490613.1330209,-1.0,0.0,11.0,0.0,-1.0,-1.0,-2.0,0.0
1702490613.1330209,-1.0,3.0,27.0,2.0,0.0,0.0,-2.0,0.0
1702490613.1330209,-2.0,-5.0,-51.0,-3.0,-3.0,-3.0,-2.0,-3.0
1702490613.1330209,-1.0,2.0,25.0,2.0,4.0,3.0,-1.0,0.0
1702490613.1533875,1.0,-1.0,-3.0,-1.0,-1.0,1.0,-1.0,-3.0
1702490613.1533875,-1.0,-1.0,8.0,-3.0,0.0,0.0,-1.0,1.0
1702490613.1533875,-2.0,1.0,11.0,-1.0,-3.0,-3.0,-2.0,0.0
1702490613.1533875,-1.0,-1.0,-5.0,-2.0,-8.0,-5.0,-1.0,0.0
1702490613.1666574,1.0,-2.0,-2.0,1.0,-2.0,-2.0,0.0,0.0
1702490613.1666574,-1.0,1.0,1.0,1.0,-2.0,-1.0,0.0,-1.0
1702490613.1666574,0.0,-2.0,-3.0,0.0,1.0,1.0,0.0,-1.0
1702490613.1666574,-1.0,0.0,1.0,-2.0,-4.0,1.0,-1.0,-1.0
1702490613.1827922,0.0,0.0,8.0,-2.0,-2.0,-2.0,-2.0,-1.0
1702490613.1827922,0.0,-3.0,-14.0,-5.0,-6.0,-4.0,-1.0,0.0
1702490613.1827922,-2.0,0.0,10.0,1.0,5.0,3.0,-1.0,-1.0
1702490613.1827922,-2.0,-1.0,13.0,-2.0,0.0,-1.0,-1.0,-1.0
1702490613.2128332,-2.0,0.0,2.0,1.0,-1.0,-1.0,0.0,-1.0
1702490613.2128332,0.0,0.0,10.0,1.0,-8.0,-1.0,1.0,-2.0
1702490613.2128332,-1.0,6.0,13.0,2.0,7.0,-3.0,-1.0,-1.0
1702490613.2128332,-2.0,-10.0,-46.0,-2.0,-1.0,-1.0,-2.0,-2.0
1702490613.2229187,0.0,6.0,30.0,1.0,-2.0,-2.0,0.0,-1.0
1702490613.2229187,-1.0,-7.0,-16.0,-5.0,-4.0,-1.0,-3.0,-1.0
1702490613.2229187,0.0,2.0,7.0,2.0,-11.0,-4.0,-1.0,1.0
1702490613.2229187,-1.0,-2.0,11.0,-1.0,3.0,-2.0,-2.0,0.0
1702490613.252794,1.0,6.0,31.0,-2.0,2.0,0.0,6.0,0.0
1702490613.252794,-5.0,-19.0,-67.0,-2.0,1.0,1.0,-16.0,-5.0
1702490613.252794,0.0,6.0,3.0,1.0,-2.0,-2.0,-1.0,-2.0
1702490613.252794,-3.0,-3.0,6.0,-1.0,-5.0,-2.0,-1.0,-3.0
1702490613.2631378,-1.0,-2.0,-1.0,1.0,-1.0,-1.0,-4.0,-2.0
1702490613.2631378,3.0,7.0,20.0,-2.0,5.0,0.0,6.0,3.0
1702490613.2631378,-2.0,-6.0,-10.0,-5.0,-2.0,-1.0,0.0,-2.0
1702490613.2727952,2.0,4.0,9.0,2.0,-2.0,-4.0,-4.0,-3.0
1702490613.282923,-2.0,-16.0,-25.0,-6.0,-2.0,1.0,-1.0,0.0
1702490613.282923,-4.0,8.0,52.0,2.0,-1.0,6.0,7.0,-3.0
1702490613.282923,-2.0,-8.0,-67.0,-4.0,-5.0,-3.0,-3.0,3.0
1702490613.282923,0.0,5.0,13.0,3.0,4.0,1.0,5.0,0.0
1702490613.302793,-2.0,-4.0,-9.0,1.0,-1.0,1.0,-3.0,0.0
1702490613.302793,3.0,14.0,19.0,2.0,0.0,-5.0,0.0,3.0
1702490613.302793,-4.0,-17.0,25.0,-7.0,-5.0,-2.0,-2.0,-3.0
1702490613.302793,-3.0,2.0,-1.0,-5.0,-7.0,0.0,6.0,0.0
1702490613.3328092,-2.0,-9.0,-36.0,-6.0,-14.0,-3.0,-12.0,-2.0
1702490613.3328092,-3.0,1.0,3.0,2.0,14.0,0.0,-2.0,-2.0
1702490613.3328092,4.0,24.0,19.0,4.0,9.0,5.0,1.0,0.0
1702490613.3328092,1.0,-6.0,-19.0,0.0,-1.0,-2.0,-2.0,-1.0
1702490613.342794,-8.0,-16.0,-8.0,-6.0,-7.0,-2.0,3.0,-2.0
1702490613.342794,-2.0,-7.0,-19.0,-6.0,-9.0,-1.0,6.0,-1.0
1702490613.342794,-2.0,-5.0,4.0,-1.0,-1.0,-1.0,-2.0,-2.0
1702490613.342794,0.0,3.0,-15.0,1.0,0.0,1.0,-3.0,-1.0
1702490613.3628044,1.0,8.0,19.0,4.0,1.0,-3.0,-3.0,4.0
1702490613.3628044,-1.0,-2.0,-32.0,-13.0,-5.0,-3.0,-2.0,-13.0
1702490613.372836,-1.0,0.0,-8.0,0.0,1.0,1.0,3.0,-2.0
1702490613.372836,-5.0,-10.0,3.0,-5.0,-3.0,-2.0,-4.0,-2.0
1702490613.3828037,3.0,13.0,37.0,17.0,4.0,0.0,3.0,-1.0
1702490613.3828037,1.0,-1.0,25.0,2.0,0.0,0.0,0.0,3.0
1702490613.392801,-2.0,-6.0,0.0,-5.0,-2.0,0.0,-1.0,-1.0
1702490613.392801,-4.0,3.0,-26.0,-14.0,-5.0,-3.0,-4.0,-4.0
1702490613.412793,-1.0,0.0,-13.0,-9.0,0.0,-1.0,-1.0,-2.0
1702490613.412793,0.0,0.0,-16.0,-1.0,-4.0,-4.0,-3.0,5.0
1702490613.412793,3.0,-2.0,-18.0,5.0,12.0,4.0,-1.0,10.0
1702490613.412793,-3.0,-2.0,39.0,9.0,-2.0,-1.0,0.0,-5.0
1702490613.4328003,-1.0,-3.0,-19.0,-2.0,0.0,-2.0,1.0,0.0
1702490613.4328003,-2.0,2.0,4.0,1.0,-5.0,-2.0,-1.0,-2.0
1702490613.4328003,-1.0,-4.0,4.0,-6.0,-7.0,-3.0,-1.0,-5.0
1702490613.4328003,2.0,3.0,29.0,-1.0,-1.0,-4.0,-3.0,5.0
1702490613.4431787,-3.0,-10.0,-48.0,2.0,3.0,1.0,-1.0,-3.0
1702490613.4431787,0.0,0.0,-12.0,-5.0,0.0,0.0,0.0,3.0
1702490613.45285,-2.0,-2.0,10.0,-3.0,-3.0,0.0,-4.0,-3.0
1702490613.45285,1.0,-2.0,16.0,2.0,2.0,2.0,-1.0,-2.0
1702490613.462795,1.0,11.0,16.0,0.0,-3.0,-1.0,-1.0,1.0
1702490613.462795,-3.0,-15.0,-7.0,-2.0,-2.0,-3.0,-1.0,0.0
1702490613.4730163,-3.0,-1.0,-13.0,0.0,-1.0,-2.0,-1.0,-3.0
1702490613.4730163,0.0,-3.0,-31.0,1.0,-1.0,0.0,-1.0,0.0
1702490613.482864,-1.0,1.0,-15.0,-3.0,-1.0,0.0,-1.0,-1.0
1702490613.482864,-1.0,3.0,38.0,-2.0,1.0,-3.0,-2.0,-1.0
1702490613.482864,2.0,5.0,20.0,-2.0,-12.0,-6.0,-2.0,-3.0
1702490613.482864,-1.0,-14.0,-51.0,-5.0,5.0,1.0,-1.0,-2.0
1702490613.5030458,1.0,3.0,10.0,3.0,7.0,3.0,1.0,1.0
1702490613.5130854,-1.0,-2.0,-11.0,2.0,-2.0,0.0,0.0,0.0
1702490613.5130854,-3.0,-3.0,24.0,4.0,-2.0,-3.0,-2.0,-3.0
1702490613.5130854,-1.0,3.0,-3.0,-9.0,-6.0,-1.0,0.0,2.0
1702490613.5430636,-2.0,-8.0,-52.0,-6.0,-7.0,-4.0,-2.0,1.0
1702490613.5430636,-2.0,0.0,8.0,2.0,9.0,3.0,-2.0,-12.0
1702490613.5430636,1.0,1.0,-2.0,3.0,5.0,2.0,1.0,2.0
1702490613.5430636,-2.0,-3.0,-15.0,1.0,-4.0,-1.0,-3.0,1.0
1702490613.5430636,0.0,1.0,25.0,0.0,3.0,1.0,0.0,-4.0
1702490613.5430636,-2.0,0.0,-2.0,-6.0,-8.0,-1.0,-1.0,3.0
1702490613.5430636,-1.0,0.0,-23.0,-1.0,-2.0,-3.0,-1.0,-1.0
1702490613.5430636,-1.0,2.0,35.0,6.0,3.0,1.0,0.0,-3.0
1702490613.5731037,-1.0,-4.0,-4.0,-1.0,1.0,0.0,0.0,2.0
1702490613.5731037,1.0,0.0,4.0,3.0,-1.0,0.0,-1.0,1.0
1702490613.5731037,-2.0,3.0,14.0,-1.0,2.0,2.0,-1.0,-1.0
1702490613.5731037,-3.0,-5.0,-16.0,-4.0,-6.0,-4.0,-2.0,1.0
1702490613.583293,-2.0,1.0,4.0,-3.0,-3.0,0.0,-1.0,-3.0
1702490613.583293,-1.0,0.0,13.0,4.0,0.0,0.0,-2.0,-1.0
1702490613.5936239,-1.0,-2.0,-21.0,-5.0,3.0,1.0,-1.0,-3.0
1702490613.5936239,1.0,2.0,26.0,0.0,-4.0,-2.0,-2.0,0.0
1702490613.6035223,-1.0,-2.0,-16.0,-1.0,2.0,-1.0,-1.0,-1.0
1702490613.6035223,0.0,-2.0,-8.0,-4.0,-2.0,-3.0,-3.0,2.0
1702490613.6035223,-1.0,-2.0,5.0,0.0,-5.0,1.0,0.0,1.0
1702490613.6035223,-3.0,-2.0,3.0,4.0,-1.0,-1.0,-1.0,-1.0
1702490613.6333125,-3.0,-2.0,1.0,-7.0,-2.0,-3.0,0.0,-3.0
1702490613.6333125,-1.0,0.0,5.0,5.0,4.0,2.0,0.0,1.0
1702490613.6333125,-1.0,-4.0,-1.0,-1.0,2.0,1.0,-1.0,-1.0
1702490613.6333125,-1.0,2.0,0.0,0.0,2.0,1.0,-2.0,-1.0
1702490613.6433105,1.0,-2.0,-2.0,-3.0,-10.0,-5.0,-1.0,-1.0
1702490613.6433105,-1.0,2.0,16.0,-3.0,2.0,0.0,0.0,-2.0
1702490613.6536927,0.0,-1.0,20.0,3.0,3.0,1.0,-1.0,-1.0
1702490613.6536927,-1.0,-6.0,-58.0,-4.0,-3.0,0.0,0.0,-1.0
1702490613.6637404,-1.0,1.0,18.0,0.0,3.0,0.0,0.0,0.0
1702490613.6637404,1.0,0.0,-10.0,1.0,-6.0,-4.0,-1.0,1.0
1702490613.6637404,-2.0,-1.0,-11.0,-4.0,-5.0,-3.0,0.0,-1.0
1702490613.6637404,-1.0,1.0,25.0,0.0,0.0,-2.0,0.0,-1.0
1702490613.6835341,-1.0,-2.0,-5.0,-2.0,-2.0,-3.0,-4.0,-1.0
1702490613.6835341,-1.0,-3.0,-11.0,2.0,-1.0,-1.0,-1.0,-2.0
1702490613.6835341,-1.0,-1.0,9.0,-1.0,-1.0,0.0,-2.0,-1.0
1702490613.6835341,-1.0,-3.0,-24.0,0.0,0.0,2.0,1.0,0.0
1702490613.7062194,-3.0,-5.0,-8.0,-2.0,-1.0,1.0,0.0,-2.0
1702490613.7062194,-3.0,-3.0,0.0,0.0,0.0,-2.0,-3.0,-1.0
1702490613.7137709,0.0,0.0,4.0,0.0,-3.0,-2.0,-3.0,1.0
1702490613.7147932,0.0,3.0,-1.0,-6.0,0.0,-1.0,0.0,-1.0
1702490613.7258403,-3.0,-2.0,5.0,0.0,-1.0,-1.0,-2.0,-2.0
1702490613.7258403,0.0,23.0,-4.0,1.0,1.0,0.0,-1.0,-1.0
1702490613.7358382,-3.0,-9.0,-5.0,-1.0,-2.0,-2.0,-2.0,-3.0
1702490613.7358382,-2.0,-5.0,16.0,2.0,0.0,0.0,0.0,-1.0
1702490613.7558334,-2.0,-3.0,10.0,-2.0,-5.0,-4.0,-2.0,-2.0
1702490613.7558334,0.0,-1.0,-21.0,2.0,8.0,2.0,0.0,-1.0
1702490613.7558334,-1.0,1.0,7.0,-5.0,-4.0,-2.0,-2.0,-1.0
1702490613.7558334,1.0,14.0,26.0,2.0,2.0,1.0,-1.0,-2.0
1702490613.7658374,-1.0,-16.0,-14.0,-4.0,-3.0,-3.0,-1.0,-1.0
1702490613.7658374,-2.0,-18.0,-41.0,-5.0,-5.0,-2.0,-3.0,-1.0
1702490613.773902,0.0,-3.0,-15.0,-2.0,-2.0,1.0,-1.0,0.0
1702490613.773902,0.0,0.0,13.0,-2.0,-2.0,-6.0,-2.0,1.0
1702490613.7939146,-1.0,2.0,-28.0,-2.0,-6.0,2.0,-1.0,0.0
1702490613.7939146,0.0,1.0,12.0,3.0,10.0,2.0,1.0,-1.0
1702490613.7939146,-1.0,-2.0,-4.0,0.0,1.0,1.0,0.0,-1.0
1702490613.7939146,-2.0,-1.0,0.0,-1.0,-4.0,-2.0,0.0,-2.0
1702490613.804211,1.0,7.0,13.0,1.0,-2.0,-2.0,-3.0,1.0
1702490613.804211,1.0,-8.0,-6.0,-6.0,-7.0,-2.0,-3.0,-1.0
1702490613.804211,-1.0,-4.0,-3.0,-1.0,0.0,-1.0,0.0,-1.0
1702490613.804211,1.0,-4.0,-8.0,-2.0,-1.0,-2.0,-3.0,0.0
1702490613.834185,-1.0,2.0,9.0,-3.0,-1.0,-1.0,-1.0,-2.0
1702490613.834185,0.0,-1.0,7.0,-2.0,-3.0,1.0,-2.0,-1.0
1702490613.834185,-1.0,4.0,12.0,1.0,1.0,-3.0,-1.0,-3.0
1702490613.834185,-1.0,-2.0,-26.0,-1.0,-2.0,0.0,-1.0,-2.0
1702490613.8539147,0.0,-1.0,20.0,2.0,5.0,1.0,1.0,-3.0
1702490613.8539147,-1.0,-2.0,-4.0,-2.0,-3.0,-4.0,0.0,0.0
1702490613.8539147,-2.0,1.0,6.0,-2.0,-5.0,-1.0,0.0,-1.0
1702490613.8539147,-2.0,0.0,-12.0,-3.0,1.0,0.0,-2.0,0.0
1702490613.8639517,1.0,3.0,16.0,0.0,-2.0,-2.0,0.0,-3.0
1702490613.8639517,-1.0,-6.0,-7.0,3.0,10.0,3.0,0.0,0.0
1702490613.8639517,-1.0,-1.0,0.0,4.0,-2.0,-3.0,-1.0,0.0
1702490613.8639517,-2.0,-3.0,0.0,-6.0,-2.0,0.0,-1.0,-1.0
1702490613.8943708,0.0,0.0,-9.0,-3.0,-4.0,-2.0,-1.0,-1.0
1702490613.8943708,0.0,-1.0,17.0,-4.0,-6.0,-4.0,-2.0,0.0
1702490613.8943708,-1.0,1.0,-10.0,0.0,7.0,1.0,-2.0,-1.0
1702490613.8943708,1.0,-3.0,4.0,2.0,-1.0,0.0,0.0,-1.0
1702490613.913915,-1.0,0.0,-10.0,-2.0,2.0,-2.0,0.0,-3.0
1702490613.913915,0.0,3.0,16.0,2.0,-8.0,-2.0,-1.0,-3.0
1702490613.913915,-2.0,-1.0,-12.0,-5.0,-1.0,0.0,-1.0,2.0
1702490613.913915,-2.0,-8.0,5.0,2.0,-1.0,0.0,-1.0,-3.0
1702490613.924305,-1.0,-2.0,-11.0,-4.0,0.0,1.0,-1.0,-1.0
1702490613.924305,-2.0,-1.0,4.0,0.0,-3.0,-1.0,1.0,-1.0
1702490613.924305,1.0,1.0,3.0,-1.0,-4.0,-1.0,-1.0,-2.0
1702490613.924305,-2.0,3.0,4.0,0.0,0.0,-2.0,0.0,-1.0
1702490613.9539158,-1.0,-1.0,-4.0,3.0,3.0,1.0,1.0,2.0
1702490613.9539158,-3.0,1.0,-1.0,-2.0,-4.0,-4.0,-2.0,-1.0
1702490613.9539158,-1.0,-4.0,0.0,3.0,0.0,-1.0,-1.0,-1.0
1702490613.9539158,-1.0,0.0,24.0,-9.0,-3.0,-2.0,0.0,-1.0
1702490613.9639487,0.0,-6.0,-44.0,-1.0,0.0,2.0,-1.0,-2.0
1702490613.9639487,-1.0,-2.0,-21.0,-4.0,-3.0,-2.0,-1.0,0.0
1702490613.9639487,0.0,0.0,9.0,-3.0,-3.0,-1.0,-1.0,0.0
1702490613.9639487,0.0,-5.0,-40.0,0.0,-5.0,-4.0,-2.0,0.0
1702490613.9841542,-3.0,-6.0,-9.0,-2.0,7.0,1.0,-2.0,-1.0
1702490613.9841542,0.0,1.0,30.0,1.0,-2.0,0.0,1.0,1.0
1702490613.9939194,-3.0,-6.0,-19.0,-2.0,0.0,0.0,0.0,-2.0
1702490613.9939194,-1.0,3.0,13.0,3.0,-1.0,-1.0,-1.0,-1.0
1702490614.0139182,0.0,3.0,23.0,2.0,-1.0,-2.0,-2.0,2.0
1702490614.0139182,0.0,-4.0,1.0,1.0,-1.0,0.0,-3.0,0.0
1702490614.0139182,-1.0,0.0,-2.0,-3.0,-3.0,-4.0,0.0,-1.0
1702490614.0139182,-2.0,-2.0,-7.0,2.0,-4.0,0.0,0.0,-1.0
1702490614.043916,-1.0,-1.0,-20.0,-1.0,-2.0,1.0,0.0,-2.0
1702490614.043916,-1.0,1.0,15.0,-2.0,-1.0,0.0,-1.0,-1.0
1702490614.043916,-1.0,0.0,-2.0,0.0,-2.0,0.0,-1.0,0.0
1702490614.043916,1.0,0.0,19.0,-2.0,-1.0,0.0,-1.0,-1.0
1702490614.043916,0.0,1.0,13.0,0.0,0.0,-1.0,-2.0,-1.0
1702490614.043916,0.0,-3.0,-13.0,-1.0,-2.0,1.0,0.0,-3.0
1702490614.043916,-2.0,-4.0,1.0,-2.0,-1.0,-2.0,-1.0,-2.0
1702490614.043916,-2.0,1.0,9.0,0.0,2.0,-1.0,0.0,-2.0
1702490614.0739148,0.0,0.0,-7.0,-1.0,-1.0,-4.0,-3.0,-1.0
1702490614.0739148,-1.0,0.0,2.0,-3.0,-4.0,-1.0,-1.0,0.0
1702490614.0739148,1.0,8.0,22.0,4.0,1.0,-1.0,-1.0,-1.0
1702490614.0739148,-2.0,-11.0,-41.0,-1.0,0.0,-1.0,-2.0,-1.0
1702490614.083914,-2.0,-4.0,-6.0,-7.0,-3.0,0.0,0.0,-1.0
1702490614.083914,0.0,2.0,3.0,0.0,3.0,-1.0,0.0,1.0
1702490614.083914,-3.0,-7.0,-26.0,-3.0,-5.0,-3.0,-1.0,-2.0
1702490614.083914,1.0,7.0,29.0,3.0,4.0,-2.0,0.0,0.0
1702490614.104307,0.0,1.0,-1.0,-1.0,0.0,-2.0,-2.0,0.0
1702490614.104307,-1.0,-2.0,-12.0,0.0,-1.0,0.0,1.0,-1.0
1702490614.104307,0.0,-3.0,0.0,-3.0,-1.0,0.0,0.0,-2.0
1702490614.104307,-3.0,-1.0,15.0,1.0,-2.0,-1.0,-2.0,-2.0
1702490614.1339421,-3.0,-4.0,1.0,2.0,-6.0,-2.0,-2.0,-1.0
1702490614.1339421,-1.0,1.0,4.0,2.0,4.0,-1.0,-2.0,-2.0
1702490614.1339421,1.0,0.0,-4.0,-5.0,-2.0,-2.0,-2.0,0.0
1702490614.1339421,-1.0,-1.0,13.0,0.0,-9.0,-4.0,-2.0,-2.0
1702490614.1443467,-1.0,2.0,-14.0,0.0,8.0,2.0,0.0,-1.0
1702490614.1443467,-2.0,-7.0,-25.0,-2.0,-3.0,-2.0,-1.0,0.0
1702490614.1443467,-3.0,-2.0,1.0,-2.0,0.0,2.0,1.0,-3.0
1702490614.1443467,-1.0,0.0,-4.0,-4.0,-1.0,1.0,0.0,1.0
1702490614.1639168,-2.0,1.0,22.0,2.0,-6.0,-3.0,-1.0,-1.0
1702490614.1639168,-1.0,4.0,16.0,0.0,-2.0,-2.0,-2.0,-2.0
1702490614.1639168,-1.0,-4.0,-5.0,2.0,1.0,2.0,-2.0,1.0
1702490614.173921,0.0,6.0,12.0,-1.0,2.0,2.0,0.0,0.0
1702490614.1939154,0.0,0.0,20.0,-2.0,-4.0,-2.0,-1.0,-2.0
1702490614.1939154,-1.0,-1.0,-3.0,-1.0,2.0,1.0,1.0,-2.0
1702490614.1939154,-2.0,-1.0,11.0,0.0,-1.0,-1.0,0.0,-1.0
1702490614.1939154,-2.0,-2.0,-9.0,-4.0,-4.0,-4.0,0.0,-1.0
1702490614.203948,1.0,-1.0,2.0,1.0,0.0,-2.0,-2.0,1.0
1702490614.203948,-2.0,-4.0,-13.0,-7.0,-6.0,-1.0,-1.0,-1.0
1702490614.203948,0.0,-2.0,-2.0,-3.0,-7.0,-4.0,-3.0,-2.0
1702490614.203948,0.0,-1.0,6.0,1.0,8.0,2.0,-3.0,0.0
1702490614.2320228,-1.0,1.0,4.0,-1.0,2.0,3.0,0.0,-2.0
1702490614.2320228,-1.0,-2.0,7.0,-4.0,-5.0,-4.0,-3.0,-1.0
1702490614.23302,-2.0,1.0,-2.0,3.0,1.0,0.0,-1.0,-3.0
1702490614.23302,-2.0,-5.0,-33.0,-2.0,-6.0,-3.0,-1.0,-1.0
1702490614.2484922,0.0,-4.0,1.0,-3.0,0.0,-1.0,-1.0,-1.0
1702490614.2484922,-3.0,-1.0,16.0,-2.0,3.0,2.0,0.0,0.0
1702490614.2484922,-3.0,-5.0,-5.0,-1.0,-4.0,0.0,-1.0,-1.0
1702490614.2484922,0.0,-1.0,-15.0,0.0,-3.0,-2.0,-1.0,0.0
1702490614.2685933,0.0,0.0,9.0,-1.0,-6.0,-2.0,-1.0,-2.0
1702490614.2685933,0.0,-2.0,0.0,-2.0,5.0,-1.0,-2.0,-1.0
1702490614.2685933,-1.0,1.0,2.0,-1.0,3.0,1.0,0.0,-1.0
1702490614.2685933,-1.0,-1.0,0.0,0.0,4.0,0.0,-2.0,-1.0
1702490614.2885864,-2.0,-2.0,7.0,4.0,-3.0,-2.0,0.0,0.0
1702490614.2885864,1.0,2.0,16.0,-5.0,-7.0,-3.0,-1.0,-1.0
1702490614.2885864,0.0,-4.0,-42.0,0.0,-3.0,-3.0,-3.0,-1.0
1702490614.2885864,-1.0,-1.0,10.0,-2.0,0.0,0.0,0.0,-1.0
1702490614.30853,-1.0,2.0,11.0,-3.0,-1.0,-3.0,-1.0,-1.0
1702490614.30853,0.0,-2.0,-20.0,4.0,-3.0,0.0,0.0,0.0
1702490614.30853,-1.0,1.0,19.0,0.0,9.0,2.0,1.0,-1.0
1702490614.30853,0.0,-2.0,-5.0,3.0,0.0,2.0,0.0,-2.0
1702490614.318639,-1.0,1.0,-1.0,-5.0,2.0,0.0,-1.0,-1.0
1702490614.3284988,-1.0,-2.0,3.0,1.0,0.0,-2.0,-2.0,-2.0
1702490614.3284988,-1.0,0.0,-9.0,-5.0,-5.0,-1.0,0.0,-2.0
1702490614.3284988,-2.0,-1.0,-9.0,-4.0,-3.0,-3.0,-3.0,-2.0
1702490614.3484962,-1.0,-1.0,3.0,-1.0,-1.0,-3.0,-2.0,-1.0
1702490614.3484962,-1.0,-3.0,-12.0,-5.0,-3.0,0.0,-2.0,-1.0
1702490614.3484962,0.0,0.0,6.0,-2.0,2.0,1.0,-1.0,-2.0
1702490614.3484962,1.0,4.0,8.0,0.0,1.0,1.0,-1.0,-2.0
1702490614.3687735,-1.0,-5.0,-12.0,-6.0,-2.0,1.0,-1.0,-3.0
1702490614.3687735,-1.0,-1.0,-1.0,4.0,-5.0,-3.0,-1.0,-1.0
1702490614.3687735,-1.0,-2.0,2.0,-3.0,0.0,-3.0,-2.0,2.0
1702490614.3687735,-1.0,0.0,0.0,1.0,1.0,2.0,0.0,-1.0
1702490614.3884969,-1.0,-2.0,2.0,-11.0,-7.0,-2.0,-2.0,-5.0
1702490614.3884969,1.0,0.0,-14.0,4.0,5.0,2.0,1.0,0.0
1702490614.3884969,-2.0,-1.0,-2.0,0.0,-4.0,-1.0,0.0,0.0
1702490614.3884969,0.0,-2.0,4.0,-2.0,-2.0,-3.0,0.0,0.0
1702490614.4084952,-2.0,-2.0,-6.0,-8.0,-1.0,1.0,-2.0,1.0
1702490614.4084952,0.0,-2.0,-1.0,17.0,2.0,0.0,1.0,-1.0
1702490614.4084952,0.0,1.0,1.0,-1.0,-7.0,-3.0,-1.0,-1.0
1702490614.4084952,-2.0,-1.0,4.0,-1.0,9.0,-1.0,-1.0,0.0
1702490614.4287946,0.0,-1.0,-14.0,-5.0,-8.0,-5.0,-3.0,1.0
1702490614.4287946,-2.0,-2.0,4.0,-11.0,4.0,0.0,-3.0,0.0
1702490614.4287946,0.0,-1.0,7.0,0.0,1.0,3.0,0.0,0.0
1702490614.4287946,-1.0,-2.0,-12.0,-2.0,-8.0,-4.0,1.0,-2.0
1702490614.4485004,0.0,2.0,5.0,4.0,4.0,1.0,1.0,-1.0
1702490614.4485004,-2.0,1.0,2.0,-2.0,-6.0,-4.0,-2.0,-1.0
1702490614.4485004,-1.0,1.0,-4.0,3.0,1.0,-3.0,-1.0,-2.0
1702490614.4485004,0.0,0.0,3.0,-4.0,0.0,2.0,1.0,-1.0
1702490614.488495,-3.0,-6.0,-6.0,5.0,2.0,0.0,-2.0,-1.0
1702490614.488495,0.0,1.0,1.0,-3.0,-6.0,-2.0,0.0,0.0
1702490614.488495,-1.0,1.0,-5.0,-2.0,6.0,1.0,-1.0,1.0
1702490614.488495,-2.0,-5.0,-3.0,-1.0,-6.0,-5.0,-2.0,-2.0
1702490614.488495,-1.0,0.0,-4.0,2.0,2.0,1.0,1.0,-1.0
1702490614.488495,1.0,12.0,5.0,-1.0,1.0,1.0,-1.0,-3.0
1702490614.488495,-2.0,-20.0,-6.0,-5.0,-14.0,-7.0,-3.0,-3.0
1702490614.488495,-2.0,2.0,19.0,1.0,7.0,1.0,-2.0,-1.0
1702490614.5084963,2.0,12.0,2.0,8.0,9.0,3.0,-1.0,-1.0
1702490614.5084963,-2.0,-4.0,14.0,-7.0,-6.0,-2.0,0.0,-2.0
1702490614.5084963,2.0,10.0,-15.0,4.0,4.0,4.0,2.0,1.0
1702490614.5084963,-3.0,-10.0,-3.0,-6.0,-9.0,-6.0,-3.0,-2.0
1702490614.5284946,-4.0,-11.0,-9.0,-3.0,-5.0,-1.0,-2.0,-1.0
1702490614.5284946,3.0,20.0,13.0,4.0,9.0,4.0,0.0,3.0
1702490614.5284946,1.0,4.0,6.0,2.0,-2.0,-3.0,-3.0,-1.0
1702490614.5284946,-7.0,-21.0,-15.0,-9.0,-5.0,-1.0,-2.0,-4.0
1702490614.5484965,4.0,16.0,21.0,3.0,-2.0,1.0,-1.0,2.0
1702490614.5484965,-6.0,-22.0,-54.0,-13.0,-9.0,-3.0,-3.0,-4.0
1702490614.5484965,-3.0,-4.0,-11.0,-1.0,3.0,0.0,-1.0,-2.0
1702490614.5484965,4.0,15.0,16.0,5.0,6.0,2.0,-1.0,0.0
1702490614.568495,-4.0,-14.0,-4.0,0.0,0.0,-1.0,-1.0,-1.0
1702490614.568495,0.0,1.0,-3.0,2.0,-3.0,-1.0,-1.0,0.0
1702490614.568495,-1.0,1.0,0.0,-7.0,-5.0,-1.0,-1.0,0.0
1702490614.568495,0.0,2.0,15.0,-1.0,-1.0,-4.0,-2.0,-2.0
1702490614.5888736,-3.0,0.0,2.0,1.0,-1.0,0.0,1.0,-1.0
1702490614.5888736,-2.0,-8.0,0.0,-1.0,-1.0,-2.0,-1.0,-2.0
1702490614.5888736,-1.0,-3.0,1.0,-6.0,0.0,-1.0,0.0,-3.0
1702490614.5888736,0.0,2.0,2.0,5.0,-1.0,1.0,-1.0,1.0
1702490614.608889,-2.0,1.0,-2.0,-4.0,-4.0,-6.0,-1.0,-1.0
1702490614.608889,-2.0,-7.0,-8.0,-1.0,-6.0,-3.0,-2.0,-1.0
1702490614.608889,0.0,6.0,33.0,2.0,13.0,2.0,-1.0,-1.0
1702490614.608889,2.0,-3.0,-72.0,1.0,2.0,3.0,-1.0,0.0
1702490614.6384947,-1.0,-8.0,-24.0,-5.0,-3.0,0.0,0.0,-1.0
1702490614.6384947,-2.0,-2.0,9.0,-1.0,-3.0,-2.0,-1.0,-2.0
1702490614.6384947,-1.0,5.0,9.0,1.0,-8.0,-3.0,-2.0,0.0
1702490614.6384947,-2.0,3.0,12.0,-4.0,-2.0,-4.0,-3.0,-2.0
1702490614.648782,-1.0,0.0,-3.0,-2.0,1.0,-2.0,-2.0,0.0
1702490614.648782,-3.0,-2.0,1.0,-3.0,-1.0,2.0,0.0,0.0
1702490614.648782,-2.0,-3.0,-2.0,3.0,2.0,-1.0,-1.0,0.0
1702490614.648782,0.0,0.0,1.0,2.0,1.0,0.0,-1.0,1.0
1702490614.668823,0.0,-1.0,-3.0,-5.0,-2.0,-2.0,-2.0,-2.0
1702490614.668823,0.0,1.0,24.0,0.0,-1.0,-4.0,-2.0,-1.0
1702490614.668823,-2.0,-9.0,-40.0,-3.0,3.0,2.0,0.0,-1.0
1702490614.668823,-2.0,3.0,24.0,-2.0,-4.0,-3.0,-2.0,0.0
1702490614.6884937,-1.0,-4.0,-30.0,3.0,-1.0,-2.0,0.0,-1.0
1702490614.6884937,-1.0,-1.0,15.0,-3.0,0.0,-1.0,-2.0,-3.0
1702490614.6884937,-2.0,-1.0,-25.0,-3.0,-3.0,0.0,0.0,-2.0
1702490614.6884937,2.0,1.0,1.0,3.0,1.0,0.0,1.0,-1.0
1702490614.7089317,-1.0,-3.0,13.0,-6.0,-8.0,-7.0,-2.0,0.0
1702490614.7089317,-1.0,0.0,-16.0,-2.0,9.0,3.0,-1.0,0.0
1702490614.7187722,-1.0,-2.0,2.0,-1.0,-5.0,-2.0,-1.0,-1.0
1702490614.7187722,-1.0,-1.0,14.0,-3.0,0.0,1.0,0.0,-2.0
1702490614.7288902,-2.0,2.0,-7.0,0.0,-6.0,-2.0,-4.0,-1.0
1702490614.7288902,-1.0,-3.0,-10.0,1.0,9.0,0.0,0.0,0.0
1702490614.7288902,-2.0,-2.0,3.0,-5.0,-7.0,-3.0,-2.0,-3.0
1702490614.7288902,-1.0,0.0,-7.0,1.0,1.0,0.0,0.0,-2.0
1702490614.748498,0.0,3.0,30.0,7.0,-1.0,1.0,-1.0,-3.0
1702490614.748498,-2.0,-10.0,-35.0,-2.0,-5.0,-3.0,-2.0,-2.0
1702490614.7584934,-1.0,-2.0,2.0,0.0,1.0,0.0,-1.0,0.0
1702490614.7584934,-1.0,2.0,5.0,-6.0,-3.0,-1.0,-1.0,0.0
1702490614.7721126,-2.0,-5.0,6.0,2.0,1.0,0.0,0.0,-2.0
1702490614.7721126,0.0,0.0,28.0,-4.0,-10.0,-3.0,-4.0,-2.0
1702490614.7730715,1.0,5.0,15.0,1.0,6.0,2.0,2.0,-1.0
1702490614.7730715,-1.0,-6.0,-12.0,1.0,-5.0,-4.0,-3.0,-2.0
1702490614.7922237,1.0,2.0,11.0,1.0,5.0,2.0,-2.0,-2.0
1702490614.7922237,1.0,8.0,30.0,0.0,1.0,0.0,1.0,1.0
1702490614.7922237,-3.0,-12.0,-56.0,-9.0,-4.0,-2.0,-2.0,-1.0
1702490614.7922237,-3.0,-4.0,-14.0,-6.0,-10.0,-4.0,-1.0,0.0
1702490614.8087401,0.0,2.0,1.0,14.0,10.0,2.0,0.0,0.0
1702490614.8087401,1.0,-1.0,22.0,5.0,3.0,1.0,0.0,-1.0
1702490614.8187492,-2.0,-2.0,-3.0,-1.0,-12.0,-5.0,-4.0,-2.0
1702490614.8187492,1.0,-4.0,-23.0,2.0,2.0,0.0,0.0,-1.0
1702490614.829091,-1.0,-2.0,-8.0,-7.0,-11.0,-5.0,-6.0,-2.0
1702490614.829091,-1.0,1.0,-14.0,-1.0,4.0,2.0,2.0,0.0
1702490614.829091,1.0,7.0,43.0,4.0,6.0,2.0,2.0,0.0
1702490614.829091,-2.0,-3.0,-19.0,-4.0,-1.0,2.0,5.0,-1.0
1702490614.8587387,-3.0,-3.0,16.0,-7.0,-6.0,-5.0,-4.0,-2.0
1702490614.8587387,0.0,-1.0,-7.0,9.0,-5.0,-3.0,-2.0,-1.0
1702490614.8587387,-2.0,0.0,5.0,-4.0,6.0,-2.0,-3.0,0.0
1702490614.8587387,1.0,-4.0,-16.0,4.0,2.0,3.0,-1.0,0.0
1702490614.8691018,-2.0,-2.0,-7.0,-3.0,-5.0,-4.0,2.0,-1.0
1702490614.8691018,-3.0,2.0,1.0,-3.0,-6.0,-2.0,-2.0,-2.0
1702490614.8787413,1.0,-2.0,18.0,2.0,-5.0,-3.0,-3.0,0.0
1702490614.8787413,-5.0,-13.0,-27.0,-2.0,0.0,-5.0,-17.0,-2.0
1702490614.8891327,0.0,1.0,7.0,0.0,0.0,2.0,10.0,0.0
1702490614.8891327,1.0,-1.0,-7.0,0.0,-5.0,-3.0,1.0,0.0
1702490614.8891327,-3.0,2.0,8.0,1.0,1.0,-1.0,-3.0,-3.0
1702490614.8891327,-2.0,2.0,12.0,1.0,2.0,2.0,0.0,0.0
1702490614.9186506,-3.0,-3.0,-12.0,-2.0,-6.0,-4.0,-3.0,-1.0
1702490614.9186506,-1.0,-1.0,-2.0,2.0,-1.0,0.0,-4.0,-1.0
1702490614.9186506,1.0,1.0,3.0,0.0,-1.0,1.0,0.0,-1.0
1702490614.9186506,1.0,2.0,3.0,-6.0,-5.0,-1.0,3.0,-1.0
1702490614.9288633,1.0,2.0,-3.0,-3.0,3.0,0.0,-1.0,-2.0
1702490614.9288633,-2.0,-5.0,0.0,-5.0,-2.0,-2.0,2.0,0.0
1702490614.9386559,-1.0,1.0,5.0,2.0,-2.0,-2.0,-1.0,1.0
1702490614.9386559,-1.0,1.0,7.0,11.0,1.0,1.0,2.0,-2.0
1702490614.9488142,-1.0,0.0,-9.0,-2.0,1.0,-1.0,-2.0,0.0
1702490614.9488142,-1.0,1.0,-5.0,2.0,0.0,-1.0,-4.0,-2.0
1702490614.9586549,2.0,3.0,-7.0,-5.0,-6.0,-1.0,0.0,-2.0
1702490614.9586549,-3.0,1.0,13.0,0.0,-4.0,-2.0,0.0,-1.0
1702490614.9688718,0.0,-5.0,-5.0,-4.0,2.0,0.0,0.0,1.0
1702490614.9688718,-1.0,-12.0,-5.0,-1.0,6.0,0.0,-2.0,0.0
1702490614.9688718,1.0,7.0,-6.0,0.0,4.0,1.0,0.0,-1.0
1702490614.9688718,-2.0,11.0,7.0,-4.0,-4.0,-2.0,1.0,-1.0
1702490615.0086505,-2.0,-23.0,2.0,7.0,0.0,0.0,-2.0,-1.0
1702490615.0086505,-2.0,0.0,-8.0,-10.0,2.0,2.0,1.0,0.0
1702490615.0086505,-1.0,0.0,-4.0,1.0,-4.0,-6.0,-4.0,-3.0
1702490615.0086505,-1.0,8.0,11.0,1.0,7.0,3.0,1.0,-2.0
1702490615.0086505,3.0,10.0,3.0,-1.0,-3.0,1.0,0.0,0.0
1702490615.0086505,-3.0,-7.0,-14.0,-8.0,-5.0,-3.0,-2.0,-3.0
1702490615.0186498,-2.0,-22.0,-3.0,-6.0,-3.0,-1.0,-1.0,-1.0
1702490615.0186498,2.0,-1.0,-1.0,3.0,3.0,1.0,1.0,0.0
1702490615.0286863,-1.0,0.0,20.0,-2.0,-4.0,-3.0,-2.0,-1.0
1702490615.0286863,5.0,18.0,-20.0,6.0,9.0,2.0,0.0,2.0
1702490615.0286863,-5.0,-16.0,-5.0,-2.0,-6.0,-2.0,-2.0,-1.0
1702490615.0286863,4.0,16.0,19.0,4.0,2.0,1.0,0.0,3.0
1702490615.0489457,-14.0,-30.0,-26.0,-12.0,-6.0,-2.0,-3.0,-4.0
1702490615.0489457,4.0,18.0,10.0,4.0,-1.0,-1.0,0.0,0.0
1702490615.0586514,-5.0,-19.0,-22.0,-10.0,-8.0,-3.0,0.0,-4.0
1702490615.0586514,2.0,11.0,39.0,4.0,-3.0,-4.0,0.0,2.0
1702490615.0687008,-1.0,8.0,-24.0,-3.0,7.0,-1.0,-2.0,-1.0
1702490615.0687008,-8.0,-19.0,2.0,-4.0,-2.0,0.0,-3.0,-3.0
1702490615.0687008,2.0,8.0,1.0,4.0,4.0,1.0,0.0,1.0
1702490615.078659,2.0,5.0,0.0,-1.0,-5.0,-3.0,-1.0,0.0
1702490615.0986762,0.0,1.0,-2.0,-2.0,-2.0,-1.0,2.0,-1.0
1702490615.0986762,-3.0,-7.0,9.0,-2.0,-3.0,-4.0,-1.0,-3.0
1702490615.0986762,3.0,14.0,11.0,7.0,1.0,-1.0,0.0,0.0
1702490615.0986762,-5.0,-21.0,-30.0,-10.0,-3.0,-2.0,-1.0,-3.0
1702490615.1088939,5.0,11.0,10.0,1.0,1.0,-1.0,-2.0,0.0
1702490615.1088939,-1.0,3.0,11.0,-1.0,-5.0,0.0,-1.0,-2.0
1702490615.118656,-3.0,-7.0,-36.0,-3.0,-5.0,0.0,-1.0,-1.0
1702490615.118656,-2.0,-1.0,10.0,0.0,7.0,-1.0,-2.0,0.0
1702490615.1486495,-2.0,-1.0,0.0,1.0,4.0,2.0,-1.0,-2.0
1702490615.1486495,-3.0,0.0,3.0,-1.0,-4.0,-2.0,-1.0,0.0
1702490615.1486495,-1.0,5.0,14.0,-1.0,-1.0,-2.0,0.0,-1.0
1702490615.1486495,-4.0,-10.0,-6.0,-3.0,-8.0,-4.0,-3.0,-3.0
1702490615.1486495,-1.0,7.0,-3.0,-2.0,-11.0,-3.0,-2.0,2.0
1702490615.1486495,-1.0,-7.0,-9.0,-2.0,6.0,0.0,-2.0,-1.0
1702490615.1486495,0.0,8.0,10.0,1.0,3.0,3.0,2.0,-2.0
1702490615.1486495,-1.0,-7.0,-9.0,-2.0,1.0,-2.0,-1.0,-2.0
1702490615.1689913,-1.0,0.0,12.0,0.0,0.0,-1.0,-1.0,-1.0
1702490615.1689913,1.0,1.0,-21.0,-2.0,-3.0,-2.0,0.0,-2.0
1702490615.1786518,-1.0,-1.0,13.0,-1.0,-3.0,-4.0,-1.0,-2.0
1702490615.1786518,-4.0,-6.0,2.0,-1.0,2.0,2.0,-1.0,-1.0
1702490615.1887012,0.0,0.0,-19.0,2.0,0.0,1.0,-1.0,-1.0
1702490615.1887012,-2.0,-4.0,-4.0,-1.0,-6.0,-3.0,-2.0,-1.0
1702490615.1986527,-1.0,5.0,4.0,-3.0,2.0,0.0,0.0,-2.0
1702490615.1986527,-3.0,-9.0,-24.0,5.0,-2.0,-3.0,-2.0,-2.0
1702490615.2086856,-2.0,2.0,23.0,-6.0,-2.0,-1.0,-3.0,0.0
1702490615.2086856,-1.0,-1.0,2.0,1.0,-15.0,-4.0,0.0,-1.0
1702490615.2086856,-2.0,0.0,10.0,3.0,14.0,4.0,0.0,2.0
1702490615.2086856,1.0,0.0,-2.0,5.0,-4.0,0.0,1.0,0.0
1702490615.2290218,-1.0,1.0,-11.0,2.0,3.0,2.0,2.0,-1.0
1702490615.2290218,-1.0,-4.0,-2.0,-8.0,-5.0,-2.0,-1.0,-2.0
1702490615.238653,0.0,0.0,3.0,1.0,-8.0,-4.0,-1.0,0.0
1702490615.238653,-2.0,2.0,17.0,-9.0,0.0,-4.0,-2.0,-1.0
1702490615.258649,0.0,0.0,-15.0,0.0,2.0,-1.0,0.0,0.0
1702490615.258649,0.0,1.0,30.0,3.0,0.0,0.0,-1.0,-2.0
1702490615.258649,-2.0,-4.0,-22.0,-1.0,-2.0,1.0,-3.0,0.0
1702490615.258649,1.0,1.0,-3.0,-2.0,-2.0,-2.0,-1.0,-2.0
1702490615.2688677,-1.0,-2.0,-10.0,-9.0,3.0,0.0,-1.0,0.0
1702490615.2688677,-1.0,0.0,11.0,-5.0,-1.0,-2.0,-2.0,-1.0
1702490615.2688677,1.0,0.0,4.0,9.0,-1.0,0.0,-1.0,-1.0
1702490615.2688677,-1.0,1.0,2.0,-4.0,-3.0,-1.0,-1.0,-1.0
1702490615.2979782,-1.0,-1.0,3.0,2.0,-3.0,-3.0,-1.0,-2.0
1702490615.2979782,-3.0,-1.0,-7.0,-3.0,-2.0,-4.0,-1.0,0.0
1702490615.3009257,1.0,-7.0,-27.0,2.0,5.0,2.0,0.0,-1.0
1702490615.3029237,-1.0,1.0,17.0,-2.0,-9.0,-4.0,-5.0,-2.0
1702490615.3240964,-2.0,-10.0,-24.0,-6.0,0.0,0.0,0.0,0.0
1702490615.3240964,0.0,1.0,10.0,2.0,4.0,-2.0,-10.0,-1.0
1702490615.3240964,0.0,-1.0,11.0,-3.0,-5.0,1.0,3.0,0.0
1702490615.3240964,1.0,0.0,-8.0,-1.0,-1.0,1.0,1.0,0.0
1702490615.3344612,0.0,4.0,38.0,-7.0,-2.0,0.0,-1.0,-3.0
1702490615.3344612,-2.0,-6.0,-49.0,-4.0,-1.0,0.0,-1.0,-2.0
1702490615.3344612,-3.0,0.0,1.0,-2.0,-9.0,-6.0,-3.0,-3.0
1702490615.3344612,-2.0,3.0,18.0,0.0,8.0,3.0,2.0,-1.0
1702490615.3543375,1.0,-3.0,-28.0,4.0,7.0,3.0,-2.0,0.0
1702490615.3543375,2.0,4.0,2.0,1.0,0.0,1.0,3.0,2.0
1702490615.3543375,-4.0,-18.0,-52.0,-14.0,-6.0,-7.0,-4.0,-5.0
1702490615.3543375,0.0,5.0,34.0,2.0,-4.0,-1.0,0.0,-2.0
1702490615.3640985,0.0,-10.0,-67.0,-1.0,-2.0,-1.0,-2.0,0.0
1702490615.3640985,-2.0,1.0,20.0,2.0,3.0,1.0,1.0,-2.0
1702490615.3743246,1.0,4.0,14.0,2.0,3.0,4.0,2.0,1.0
1702490615.3743246,-2.0,-3.0,3.0,-2.0,-13.0,-10.0,-15.0,-2.0
1702490615.3944325,-3.0,1.0,29.0,1.0,1.0,0.0,1.0,-1.0
1702490615.3944325,1.0,-1.0,-14.0,1.0,8.0,8.0,5.0,0.0
1702490615.3944325,0.0,5.0,24.0,7.0,-8.0,-4.0,-1.0,-3.0
1702490615.3944325,1.0,-9.0,-21.0,-5.0,2.0,2.0,0.0,0.0
1702490615.434099,-3.0,4.0,20.0,-2.0,-2.0,-1.0,-2.0,1.0
1702490615.434099,-3.0,-7.0,-14.0,-1.0,-7.0,-3.0,-1.0,-3.0
1702490615.434099,-1.0,4.0,32.0,-1.0,4.0,1.0,-3.0,-1.0
1702490615.434099,0.0,-6.0,-48.0,-5.0,-1.0,1.0,2.0,0.0
1702490615.434099,0.0,-2.0,3.0,0.0,-5.0,-1.0,-2.0,-2.0
1702490615.434099,0.0,5.0,51.0,2.0,1.0,-2.0,0.0,-3.0
1702490615.4442925,-1.0,-1.0,-13.0,-6.0,-7.0,-2.0,-3.0,0.0
1702490615.4442925,-2.0,-6.0,-21.0,1.0,6.0,2.0,1.0,-1.0
1702490615.4543762,0.0,4.0,13.0,-4.0,-1.0,1.0,2.0,-2.0
1702490615.4543762,-2.0,2.0,15.0,3.0,-4.0,-3.0,-4.0,0.0
1702490615.4543762,-1.0,-3.0,-20.0,1.0,3.0,2.0,10.0,-1.0
1702490615.4543762,-2.0,-2.0,-9.0,3.0,1.0,2.0,1.0,0.0
1702490615.4740975,-1.0,3.0,29.0,-2.0,-5.0,-5.0,-4.0,-2.0
1702490615.4740975,-1.0,-7.0,-19.0,-10.0,-11.0,-6.0,0.0,-2.0
1702490615.4740975,-1.0,-2.0,5.0,-3.0,8.0,0.0,-3.0,0.0
1702490615.4740975,2.0,2.0,-12.0,-6.0,16.0,7.0,4.0,-1.0
1702490615.4844823,-1.0,-3.0,-7.0,7.0,-6.0,-2.0,-1.0,-2.0
1702490615.4844823,-1.0,-1.0,-11.0,-8.0,-6.0,-2.0,-3.0,-1.0
1702490615.494469,-1.0,-1.0,6.0,5.0,-2.0,-1.0,-3.0,-2.0
1702490615.494469,-1.0,1.0,6.0,0.0,-2.0,-2.0,-1.0,-1.0
1702490615.5144176,-1.0,0.0,5.0,-5.0,-5.0,-2.0,-3.0,-2.0
1702490615.5144176,0.0,-2.0,-13.0,-1.0,1.0,-2.0,1.0,-1.0
1702490615.5144176,0.0,-2.0,1.0,-3.0,0.0,-1.0,-1.0,-1.0
1702490615.5144176,-2.0,0.0,5.0,-1.0,-5.0,-3.0,0.0,-2.0
1702490615.5343778,1.0,3.0,-2.0,5.0,4.0,-1.0,-1.0,-1.0
1702490615.5343778,-2.0,-1.0,-10.0,2.0,-1.0,-1.0,0.0,0.0
1702490615.5343778,-1.0,-4.0,-3.0,-3.0,1.0,0.0,-2.0,0.0
1702490615.5343778,-2.0,-3.0,5.0,0.0,-4.0,-2.0,-1.0,-1.0
1702490615.5643742,-4.0,-15.0,-10.0,-2.0,-4.0,-1.0,-2.0,0.0
1702490615.5643742,2.0,35.0,25.0,5.0,-1.0,0.0,0.0,2.0
1702490615.5743735,-5.0,-35.0,-62.0,-12.0,-13.0,-10.0,-6.0,-3.0
1702490615.5743735,4.0,16.0,37.0,4.0,13.0,5.0,2.0,1.0
1702490615.5743735,-6.0,-20.0,-32.0,-3.0,-3.0,0.0,-1.0,0.0
1702490615.5743735,1.0,37.0,5.0,2.0,5.0,2.0,1.0,0.0
1702490615.5743735,-2.0,-27.0,11.0,-4.0,-9.0,-4.0,-2.0,-4.0
1702490615.5743735,-5.0,-16.0,-3.0,-1.0,-7.0,-2.0,-1.0,-1.0
1702490615.594375,3.0,13.0,1.0,1.0,4.0,0.0,0.0,-1.0
1702490615.594375,2.0,6.0,14.0,3.0,-2.0,-1.0,-1.0,1.0
1702490615.594375,-5.0,-3.0,-7.0,-5.0,-2.0,-4.0,-2.0,-1.0
1702490615.594375,0.0,2.0,-38.0,-1.0,-2.0,-2.0,-1.0,-1.0
1702490615.6043797,-6.0,-21.0,-1.0,-3.0,3.0,-1.0,-2.0,-1.0
1702490615.6043797,-1.0,-12.0,-7.0,1.0,0.0,-1.0,-1.0,0.0
1702490615.6146145,1.0,18.0,30.0,5.0,5.0,3.0,1.0,-1.0
1702490615.6146145,-3.0,-6.0,3.0,-4.0,-7.0,-3.0,-2.0,-2.0
1702490615.63472,4.0,17.0,17.0,1.0,-12.0,-6.0,0.0,0.0
1702490615.63472,-3.0,-20.0,-40.0,-7.0,-1.0,1.0,0.0,-2.0
1702490615.63472,-1.0,8.0,18.0,4.0,11.0,5.0,0.0,0.0
1702490615.63472,0.0,8.0,-1.0,2.0,-2.0,0.0,1.0,-1.0
1702490615.6547186,-2.0,-3.0,-2.0,-5.0,-2.0,0.0,-2.0,-2.0
1702490615.6547186,-2.0,-14.0,6.0,0.0,1.0,0.0,-2.0,-2.0
1702490615.6547186,2.0,7.0,-6.0,1.0,-5.0,0.0,-1.0,1.0
1702490615.6547186,-1.0,0.0,4.0,-5.0,-5.0,-2.0,-1.0,-1.0
1702490615.665001,2.0,0.0,-15.0,1.0,0.0,-2.0,-2.0,-2.0
1702490615.665001,0.0,-6.0,-18.0,-5.0,2.0,-2.0,-1.0,-1.0
1702490615.6750534,-1.0,3.0,5.0,-1.0,0.0,1.0,0.0,0.0
1702490615.6750534,-1.0,-1.0,9.0,0.0,-4.0,-3.0,-4.0,-3.0
1702490615.6947198,0.0,3.0,13.0,1.0,-1.0,1.0,0.0,-2.0
1702490615.6947198,5.0,16.0,9.0,3.0,8.0,3.0,0.0,1.0
1702490615.6947198,-4.0,-16.0,-14.0,-5.0,-6.0,-1.0,-1.0,-2.0
1702490615.6947198,-1.0,-5.0,9.0,0.0,-3.0,-3.0,-1.0,-1.0
1702490615.7148921,-1.0,8.0,-23.0,0.0,-3.0,0.0,1.0,-1.0
1702490615.7148921,-1.0,-8.0,-7.0,-2.0,1.0,-1.0,-1.0,-2.0
1702490615.7148921,2.0,15.0,19.0,-1.0,-8.0,-6.0,-3.0,-1.0
1702490615.7148921,-6.0,-20.0,-15.0,-2.0,6.0,1.0,-2.0,-4.0
1702490615.7349486,-2.0,1.0,21.0,1.0,-4.0,-2.0,-3.0,0.0
1702490615.7349486,-2.0,-6.0,-3.0,-2.0,5.0,2.0,-1.0,0.0
1702490615.7349486,0.0,4.0,0.0,0.0,-2.0,1.0,0.0,2.0
1702490615.7349486,0.0,4.0,-3.0,-4.0,-6.0,-6.0,-1.0,0.0
1702490615.7747638,1.0,5.0,24.0,2.0,0.0,-2.0,-3.0,0.0
1702490615.7747638,-6.0,-17.0,-8.0,-2.0,-8.0,-3.0,-1.0,-5.0
1702490615.7747638,1.0,6.0,7.0,-2.0,2.0,1.0,0.0,-1.0
1702490615.7747638,-2.0,-2.0,-6.0,2.0,0.0,-1.0,0.0,1.0
1702490615.7747638,-1.0,2.0,1.0,0.0,3.0,0.0,1.0,-1.0
1702490615.7747638,-4.0,-10.0,7.0,-3.0,-5.0,-2.0,-2.0,-1.0
1702490615.7747638,-1.0,0.0,-38.0,-6.0,-1.0,-1.0,-1.0,-3.0
1702490615.7747638,1.0,5.0,7.0,0.0,-1.0,1.0,0.0,1.0
1702490615.7951598,-1.0,-4.0,-6.0,-4.0,-1.0,-1.0,-2.0,1.0
1702490615.7951598,-2.0,-4.0,5.0,-1.0,0.0,1.0,0.0,-3.0
1702490615.7951598,0.0,6.0,14.0,6.0,1.0,-2.0,-3.0,0.0
1702490615.7951598,-3.0,-2.0,-4.0,-3.0,-7.0,-3.0,-4.0,-2.0
1702490615.8049521,0.0,2.0,12.0,-4.0,-5.0,-3.0,0.0,0.0
1702490615.814778,-1.0,-4.0,-22.0,-1.0,-4.0,-2.0,-2.0,1.0
1702490615.8155887,2.0,2.0,0.0,-3.0,0.0,-1.0,2.0,-1.0
1702490615.8155887,-1.0,-5.0,-3.0,-1.0,-1.0,0.0,0.0,-2.0
1702490615.8366487,-2.0,-3.0,1.0,-3.0,-6.0,-4.0,-1.0,0.0
1702490615.8366487,0.0,-2.0,2.0,-5.0,-5.0,-2.0,-3.0,0.0
1702490615.8384874,0.0,3.0,10.0,6.0,8.0,2.0,-2.0,1.0
1702490615.8384874,0.0,-2.0,-9.0,-7.0,-5.0,-1.0,-1.0,1.0
1702490615.8571312,-1.0,0.0,-2.0,1.0,-1.0,-1.0,-1.0,-1.0
1702490615.8571312,-1.0,-2.0,7.0,0.0,-1.0,-1.0,0.0,-3.0
1702490615.8571312,-2.0,0.0,2.0,-4.0,-1.0,-3.0,-1.0,-2.0
1702490615.8571312,0.0,4.0,17.0,4.0,-1.0,-3.0,-4.0,-1.0
1702490615.8671663,-2.0,-10.0,-13.0,-7.0,0.0,0.0,-3.0,-2.0
1702490615.8671663,-1.0,0.0,-4.0,-2.0,-3.0,-1.0,-1.0,-1.0
1702490615.8774939,0.0,2.0,31.0,-5.0,2.0,-1.0,0.0,0.0
1702490615.8774939,1.0,0.0,-40.0,-6.0,1.0,1.0,1.0,-1.0
1702490615.8971343,0.0,-2.0,-5.0,-7.0,-8.0,-6.0,-2.0,-3.0
1702490615.8971343,0.0,2.0,8.0,12.0,5.0,2.0,-1.0,0.0
1702490615.8971343,-2.0,-5.0,-7.0,7.0,-3.0,-2.0,-1.0,-3.0
1702490615.8971343,1.0,2.0,15.0,-9.0,1.0,0.0,0.0,0.0
1702490615.9158154,0.0,-4.0,-39.0,-2.0,3.0,0.0,-2.0,-1.0
1702490615.9158154,0.0,-3.0,3.0,-1.0,-6.0,-4.0,-2.0,-1.0
1702490615.9158154,-2.0,3.0,21.0,0.0,-2.0,-1.0,-2.0,0.0
1702490615.9158154,-1.0,-4.0,-18.0,7.0,2.0,1.0,-1.0,-1.0
1702490615.9355614,-1.0,2.0,21.0,4.0,8.0,4.0,2.0,-1.0
1702490615.9355614,-1.0,0.0,2.0,-4.0,-3.0,-6.0,-10.0,0.0
1702490615.9355614,0.0,-1.0,-4.0,0.0,-1.0,-1.0,2.0,-2.0
1702490615.9355614,-1.0,-2.0,-13.0,-1.0,-3.0,-1.0,-2.0,-2.0
1702490615.9555616,-2.0,0.0,17.0,-2.0,-2.0,0.0,0.0,-2.0
1702490615.9555616,-1.0,4.0,33.0,0.0,3.0,1.0,-1.0,0.0
1702490615.9555616,-3.0,-9.0,-58.0,-7.0,0.0,-1.0,-4.0,-1.0
1702490615.9555616,-2.0,1.0,37.0,0.0,-3.0,1.0,10.0,-3.0
1702490615.985558,0.0,0.0,-1.0,3.0,5.0,3.0,-2.0,-2.0
1702490615.985558,-1.0,-5.0,-1.0,1.0,-6.0,-3.0,-1.0,-2.0
1702490615.985558,0.0,3.0,23.0,-3.0,6.0,3.0,0.0,0.0
1702490615.985558,-3.0,0.0,-4.0,3.0,-7.0,-4.0,-5.0,-2.0
1702490615.985558,-1.0,-2.0,-5.0,0.0,3.0,1.0,-2.0,-1.0
1702490615.985558,0.0,-3.0,-8.0,-7.0,0.0,2.0,3.0,-1.0
1702490615.9957197,-1.0,-3.0,-6.0,-3.0,-4.0,-4.0,-2.0,-1.0
1702490615.9957197,0.0,2.0,8.0,-6.0,-5.0,-2.0,-4.0,-2.0
1702490616.015783,-2.0,-1.0,-19.0,16.0,13.0,1.0,0.0,-1.0
1702490616.015783,-4.0,0.0,3.0,-8.0,-4.0,-3.0,-9.0,-1.0
1702490616.015783,-1.0,3.0,-2.0,-1.0,-2.0,2.0,15.0,-1.0
1702490616.015783,-2.0,-2.0,1.0,-7.0,-3.0,-2.0,-3.0,-1.0
1702490616.0555592,0.0,3.0,26.0,0.0,-5.0,-3.0,-1.0,1.0
1702490616.0555592,0.0,0.0,-10.0,-1.0,7.0,3.0,2.0,1.0
1702490616.0555592,-1.0,-3.0,-7.0,-3.0,-6.0,-3.0,-5.0,0.0
1702490616.0555592,-1.0,1.0,4.0,3.0,3.0,-2.0,0.0,0.0
1702490616.0555592,-2.0,-2.0,-13.0,-2.0,0.0,3.0,0.0,1.0
1702490616.0555592,-1.0,-2.0,-9.0,0.0,0.0,-2.0,0.0,-1.0
1702490616.0555592,0.0,-2.0,4.0,0.0,-4.0,-2.0,-4.0,-1.0
1702490616.0555592,-2.0,-1.0,-4.0,-2.0,-4.0,-2.0,-3.0,-2.0
1702490616.0855596,-1.0,0.0,-2.0,-4.0,-1.0,-3.0,-3.0,-2.0
1702490616.0855596,0.0,-1.0,0.0,-1.0,1.0,0.0,-1.0,-1.0
1702490616.0855596,0.0,6.0,5.0,4.0,-6.0,-1.0,-2.0,0.0
1702490616.0855596,0.0,-4.0,0.0,2.0,14.0,3.0,-1.0,-1.0
1702490616.095594,-4.0,-6.0,-6.0,-6.0,-7.0,-2.0,0.0,0.0
1702490616.095594,-1.0,3.0,-5.0,-2.0,-1.0,-1.0,-1.0,-1.0
1702490616.1059237,1.0,-1.0,0.0,-1.0,-3.0,-3.0,-3.0,0.0
1702490616.1059237,-3.0,-13.0,-16.0,-3.0,-5.0,-2.0,-2.0,-3.0
1702490616.108439,-3.0,-5.0,0.0,-7.0,-4.0,-2.0,-2.0,-4.0
1702490616.108439,-1.0,4.0,-5.0,2.0,-10.0,-3.0,2.0,-1.0
1702490616.1168008,3.0,12.0,8.0,5.0,17.0,5.0,0.0,2.0
1702490616.1168008,-2.0,-10.0,-10.0,-3.0,-4.0,-1.0,-2.0,-1.0
1702490616.1298678,3.0,5.0,-6.0,1.0,-1.0,-2.0,0.0,0.0
1702490616.1298678,-5.0,-16.0,-13.0,-5.0,-5.0,-6.0,-1.0,-4.0
1702490616.1379318,2.0,12.0,6.0,6.0,0.0,-4.0,-1.0,0.0
1702490616.1379318,4.0,17.0,21.0,2.0,-1.0,-3.0,-2.0,-2.0
1702490616.1584694,-8.0,-27.0,-31.0,-7.0,-6.0,-4.0,-3.0,-1.0
1702490616.1584694,4.0,22.0,-5.0,5.0,2.0,3.0,-1.0,-1.0
1702490616.1584694,-8.0,-26.0,-4.0,-9.0,-5.0,-3.0,-3.0,-3.0
1702490616.1584694,-1.0,9.0,1.0,6.0,6.0,6.0,3.0,0.0
1702490616.1686625,2.0,10.0,33.0,1.0,-3.0,-3.0,-1.0,-1.0
1702490616.1686625,0.0,-2.0,-2.0,-3.0,-2.0,1.0,-1.0,0.0
1702490616.1785872,1.0,4.0,-8.0,0.0,-1.0,-3.0,-2.0,2.0
1702490616.1785872,0.0,-4.0,1.0,2.0,-4.0,-3.0,-1.0,1.0
1702490616.1886823,-1.0,-3.0,-12.0,-3.0,-2.0,1.0,-1.0,-1.0
1702490616.1886823,-2.0,-2.0,15.0,0.0,4.0,1.0,0.0,-1.0
1702490616.1983833,-1.0,-3.0,0.0,-4.0,-5.0,-1.0,-3.0,-5.0
1702490616.1983833,-1.0,-2.0,-10.0,1.0,0.0,-1.0,1.0,0.0
1702490616.2283773,2.0,8.0,15.0,2.0,1.0,-1.0,0.0,1.0
1702490616.2283773,0.0,-6.0,-8.0,-3.0,-2.0,-4.0,-3.0,-2.0
1702490616.2283773,-2.0,-2.0,-3.0,-2.0,-3.0,0.0,0.0,-2.0
1702490616.2283773,-3.0,-3.0,-7.0,1.0,2.0,0.0,-2.0,-1.0
1702490616.2283773,1.0,3.0,5.0,-1.0,-2.0,0.0,-1.0,-1.0
1702490616.2283773,-2.0,0.0,34.0,2.0,2.0,2.0,0.0,1.0
1702490616.238564,-2.0,-11.0,-65.0,-5.0,-5.0,-5.0,-2.0,-2.0
1702490616.238564,0.0,-2.0,4.0,-4.0,-2.0,-2.0,-1.0,0.0
1702490616.2583783,0.0,0.0,-8.0,-1.0,-2.0,-2.0,0.0,0.0
1702490616.2583783,-1.0,-3.0,33.0,4.0,5.0,0.0,-1.0,0.0
1702490616.2583783,-2.0,-2.0,-9.0,-3.0,-1.0,0.0,-1.0,1.0
1702490616.2583783,1.0,5.0,1.0,-2.0,-8.0,-4.0,-3.0,0.0
1702490616.278785,-2.0,-6.0,-4.0,-4.0,-10.0,-3.0,-4.0,-4.0
1702490616.278785,-2.0,-4.0,-17.0,1.0,14.0,3.0,1.0,-1.0
1702490616.278785,0.0,2.0,19.0,1.0,0.0,4.0,-2.0,0.0
1702490616.278785,1.0,1.0,-6.0,-4.0,-3.0,-1.0,-3.0,-1.0
1702490616.2887852,0.0,5.0,6.0,0.0,-6.0,-3.0,1.0,0.0
1702490616.2887852,-2.0,-3.0,-11.0,-4.0,-7.0,-5.0,0.0,-3.0
1702490616.2986498,-3.0,-4.0,15.0,3.0,0.0,0.0,-1.0,-2.0
1702490616.2986498,-2.0,-5.0,-26.0,-5.0,-3.0,-3.0,-3.0,0.0
1702490616.318378,1.0,6.0,18.0,6.0,3.0,0.0,0.0,0.0
1702490616.318378,0.0,-2.0,-24.0,-1.0,-1.0,0.0,-1.0,0.0
1702490616.318378,-1.0,2.0,5.0,2.0,2.0,-2.0,1.0,1.0
1702490616.318378,-1.0,-3.0,16.0,-5.0,-7.0,-3.0,-1.0,-2.0
1702490616.338818,-1.0,1.0,-16.0,-1.0,0.0,1.0,1.0,-1.0
1702490616.338818,-1.0,0.0,-11.0,-2.0,-5.0,-3.0,0.0,0.0
1702490616.338818,0.0,4.0,14.0,0.0,-2.0,-2.0,-1.0,-1.0
1702490616.338818,-1.0,-1.0,24.0,-4.0,2.0,0.0,0.0,-2.0
1702490616.3527114,-1.0,-7.0,-29.0,2.0,3.0,2.0,-1.0,2.0
1702490616.3527114,-2.0,-1.0,8.0,1.0,-3.0,1.0,1.0,0.0
1702490616.361681,-1.0,-4.0,2.0,0.0,-3.0,-2.0,-3.0,-2.0
1702490616.361681,0.0,0.0,-2.0,-4.0,-5.0,-5.0,-1.0,-2.0
1702490616.379534,1.0,5.0,-1.0,-1.0,6.0,1.0,1.0,-1.0
1702490616.379534,-2.0,-6.0,-9.0,-2.0,-6.0,-4.0,-2.0,-3.0
1702490616.379534,-2.0,-6.0,-2.0,-3.0,-5.0,-4.0,-1.0,-1.0
1702490616.379534,-2.0,-1.0,-12.0,3.0,7.0,2.0,-1.0,-2.0
1702490616.3995395,-3.0,0.0,15.0,-4.0,2.0,1.0,-1.0,-2.0
1702490616.3995395,1.0,3.0,7.0,3.0,-3.0,-1.0,1.0,-1.0
1702490616.3995395,0.0,-1.0,-5.0,-5.0,-2.0,-1.0,-2.0,0.0
1702490616.3995395,-1.0,-3.0,0.0,2.0,-3.0,1.0,-1.0,-3.0
1702490616.4095407,-1.0,2.0,18.0,1.0,-2.0,0.0,-2.0,0.0
1702490616.4095407,1.0,-7.0,-41.0,-3.0,1.0,-2.0,-3.0,-1.0
1702490616.4395342,-2.0,-2.0,4.0,1.0,-2.0,-2.0,-1.0,-1.0
1702490616.4395342,-2.0,-3.0,5.0,0.0,-2.0,-1.0,-2.0,0.0
1702490616.4395342,-1.0,-2.0,4.0,-3.0,0.0,-2.0,-1.0,-1.0
1702490616.4395342,-2.0,1.0,8.0,-3.0,0.0,-1.0,-2.0,-2.0
1702490616.4395342,1.0,1.0,-4.0,-1.0,-1.0,-1.0,0.0,-1.0
1702490616.4395342,0.0,0.0,1.0,2.0,-1.0,-4.0,1.0,-1.0
1702490616.459586,0.0,0.0,-4.0,0.0,2.0,1.0,1.0,-2.0
1702490616.459586,0.0,-5.0,-4.0,-6.0,-2.0,0.0,-3.0,-3.0
1702490616.459586,0.0,3.0,13.0,-4.0,-4.0,-2.0,-3.0,-2.0
1702490616.459586,-4.0,-5.0,-7.0,-1.0,-1.0,0.0,0.0,0.0
1702490616.47954,0.0,-3.0,8.0,7.0,1.0,-1.0,-1.0,0.0
1702490616.47954,-1.0,-3.0,-20.0,-2.0,10.0,1.0,1.0,1.0
1702490616.47954,1.0,1.0,-2.0,3.0,-1.0,0.0,0.0,-1.0
1702490616.47954,0.0,-1.0,-4.0,1.0,-3.0,-3.0,-2.0,1.0
1702490616.4898868,-2.0,-5.0,-9.0,-9.0,-7.0,-5.0,-3.0,0.0
1702490616.4898868,-2.0,-2.0,10.0,-5.0,-1.0,2.0,-2.0,-2.0
1702490616.4898868,-1.0,0.0,-1.0,0.0,1.0,0.0,-1.0,-1.0
1702490616.4898868,-1.0,-1.0,-7.0,2.0,2.0,-1.0,-2.0,-1.0
1702490616.5195897,-1.0,-2.0,3.0,-3.0,-4.0,-2.0,0.0,-1.0
1702490616.5195897,-1.0,2.0,2.0,-10.0,-2.0,-2.0,-1.0,-1.0
1702490616.5195897,-2.0,-5.0,-4.0,8.0,2.0,1.0,-1.0,-2.0
1702490616.5195897,1.0,-1.0,0.0,-2.0,-3.0,-1.0,-2.0,-1.0
1702490616.539534,-2.0,1.0,-9.0,-1.0,-3.0,-3.0,0.0,-2.0
1702490616.539534,0.0,-2.0,1.0,-5.0,-3.0,-3.0,-1.0,-3.0
1702490616.539534,0.0,1.0,-2.0,-7.0,-3.0,-1.0,0.0,-1.0
1702490616.539534,-1.0,1.0,0.0,-9.0,1.0,-1.0,-2.0,0.0
1702490616.5497549,1.0,-1.0,0.0,4.0,-1.0,-1.0,0.0,0.0
1702490616.5497549,-1.0,-4.0,-12.0,3.0,-3.0,0.0,-1.0,2.0
1702490616.5497549,1.0,-2.0,2.0,2.0,-2.0,-1.0,1.0,-1.0
1702490616.5497549,0.0,-1.0,1.0,-5.0,2.0,0.0,1.0,-2.0
1702490616.5795488,-1.0,-2.0,5.0,-8.0,0.0,-1.0,-2.0,-1.0
1702490616.5795488,-3.0,-7.0,-31.0,0.0,-3.0,-2.0,-1.0,-1.0
1702490616.5795488,-1.0,2.0,6.0,-5.0,0.0,-2.0,-1.0,-1.0
1702490616.5795488,-1.0,-1.0,-17.0,10.0,-2.0,-1.0,-1.0,-1.0
1702490616.609535,-1.0,1.0,1.0,0.0,-4.0,-1.0,-1.0,-1.0
1702490616.609535,-2.0,3.0,13.0,5.0,5.0,2.0,0.0,-2.0
1702490616.609535,-1.0,-3.0,6.0,6.0,-1.0,0.0,-1.0,-2.0
1702490616.609535,1.0,1.0,-9.0,-3.0,0.0,-2.0,0.0,0.0
1702490616.609535,1.0,-1.0,-4.0,-7.0,-2.0,-2.0,0.0,-2.0
1702490616.609535,-2.0,4.0,25.0,17.0,-4.0,-1.0,-1.0,-1.0
1702490616.609535,-2.0,-9.0,-43.0,-3.0,1.0,0.0,0.0,-2.0
1702490616.609535,-1.0,-1.0,12.0,-7.0,-6.0,-2.0,-3.0,-2.0
1702490616.6395922,-2.0,-1.0,-3.0,2.0,0.0,-2.0,-3.0,-1.0
1702490616.6395922,0.0,1.0,5.0,-9.0,-3.0,-2.0,0.0,-1.0
1702490616.6395922,-2.0,1.0,-12.0,3.0,1.0,2.0,-2.0,0.0
1702490616.6395922,0.0,-2.0,2.0,5.0,-11.0,-3.0,-1.0,-1.0
1702490616.659534,0.0,1.0,-7.0,-5.0,11.0,-1.0,-2.0,-1.0
1702490616.659534,-2.0,-4.0,-2.0,8.0,-1.0,0.0,-1.0,-1.0
1702490616.659534,0.0,0.0,14.0,-2.0,-1.0,0.0,0.0,1.0
1702490616.659534,-1.0,-3.0,-8.0,-5.0,0.0,0.0,1.0,1.0
1702490616.6699102,-2.0,3.0,13.0,2.0,-5.0,0.0,0.0,-1.0
1702490616.6699102,-1.0,-7.0,-17.0,-4.0,-4.0,-5.0,-2.0,-2.0
1702490616.6699102,-2.0,0.0,6.0,-11.0,-1.0,0.0,-2.0,0.0
1702490616.6699102,-2.0,3.0,6.0,7.0,-6.0,-3.0,-2.0,-1.0
1702490616.6995692,0.0,-1.0,0.0,-1.0,8.0,3.0,-1.0,-2.0
1702490616.6995692,1.0,2.0,-13.0,1.0,1.0,0.0,-1.0,-2.0
1702490616.6995692,-3.0,-6.0,-18.0,-11.0,-3.0,-3.0,-1.0,-2.0
1702490616.6995692,1.0,5.0,1.0,-5.0,4.0,2.0,1.0,-1.0
1702490616.719561,-4.0,-13.0,-6.0,5.0,-8.0,-6.0,-4.0,-4.0
1702490616.719561,1.0,0.0,5.0,-6.0,0.0,0.0,0.0,1.0
1702490616.719561,0.0,2.0,21.0,1.0,-3.0,-4.0,-2.0,-3.0
1702490616.719561,-1.0,-3.0,-22.0,-2.0,1.0,0.0,1.0,-1.0
1702490616.7295854,1.0,4.0,23.0,0.0,3.0,2.0,3.0,0.0
1702490616.7295854,-4.0,-5.0,-39.0,-5.0,-3.0,-1.0,-2.0,0.0
1702490616.7397428,-2.0,-1.0,-5.0,-1.0,-1.0,-3.0,-2.0,0.0
1702490616.7397428,-3.0,-3.0,16.0,1.0,-2.0,-3.0,-5.0,-3.0
1702490616.7695377,4.0,8.0,25.0,-2.0,4.0,4.0,-2.0,3.0
1702490616.7695377,-5.0,-5.0,-2.0,-3.0,-19.0,-10.0,-2.0,-5.0
1702490616.7695377,1.0,1.0,4.0,1.0,5.0,0.0,3.0,0.0
1702490616.7695377,-1.0,0.0,4.0,-5.0,4.0,2.0,2.0,-1.0
1702490616.7795622,-5.0,-2.0,15.0,2.0,-18.0,-12.0,-15.0,-4.0
1702490616.7795622,1.0,4.0,12.0,5.0,9.0,8.0,13.0,0.0
1702490616.7795622,-3.0,-8.0,-23.0,-5.0,-3.0,-2.0,0.0,-1.0
1702490616.7795622,0.0,3.0,-4.0,5.0,9.0,5.0,-3.0,1.0
1702490616.789899,-6.0,-7.0,-32.0,-5.0,-10.0,-6.0,-1.0,-4.0
1702490616.789899,2.0,10.0,51.0,-4.0,14.0,2.0,-13.0,2.0
1702490616.799864,0.0,2.0,17.0,7.0,-5.0,1.0,22.0,-3.0
1702490616.799864,0.0,-4.0,-5.0,-9.0,12.0,4.0,-2.0,0.0
1702490616.8195915,-2.0,-1.0,-16.0,-1.0,-6.0,3.0,18.0,-1.0
1702490616.8195915,-2.0,-7.0,3.0,-5.0,-10.0,-4.0,1.0,-3.0
1702490616.8195915,1.0,9.0,6.0,3.0,4.0,2.0,-8.0,1.0
1702490616.8195915,-2.0,-6.0,25.0,-6.0,-6.0,-4.0,-7.0,0.0
1702490616.839568,0.0,-2.0,-13.0,11.0,5.0,1.0,4.0,-1.0
1702490616.839568,1.0,2.0,9.0,1.0,-3.0,-5.0,-7.0,-1.0
1702490616.839568,-3.0,-4.0,-5.0,-7.0,-5.0,-6.0,-8.0,-1.0
1702490616.839568,-3.0,-1.0,-3.0,6.0,-4.0,0.0,3.0,-1.0
1702490616.8498845,-1.0,-1.0,-2.0,-3.0,4.0,0.0,-6.0,1.0
1702490616.8498845,-1.0,-3.0,-15.0,-1.0,0.0,-1.0,2.0,0.0
1702490616.8598604,-2.0,3.0,34.0,0.0,0.0,-2.0,-6.0,-2.0
1702490616.8598604,-3.0,-3.0,-20.0,0.0,-6.0,-4.0,4.0,-1.0
1702490616.8866372,0.0,-3.0,-13.0,-2.0,2.0,0.0,-1.0,-1.0
1702490616.8866372,-1.0,1.0,11.0,-1.0,0.0,-1.0,-1.0,0.0
1702490616.8866372,1.0,-1.0,-4.0,-5.0,-1.0,1.0,2.0,1.0
1702490616.8866372,-1.0,0.0,-3.0,2.0,-2.0,-2.0,-3.0,-1.0
1702490616.8960726,2.0,0.0,-14.0,-2.0,-7.0,-4.0,-2.0,-1.0
1702490616.8960726,-1.0,-1.0,1.0,3.0,2.0,2.0,0.0,0.0
1702490616.8960726,-3.0,-4.0,-10.0,0.0,-4.0,-3.0,-7.0,-4.0
1702490616.8960726,-1.0,-4.0,-9.0,-2.0,-1.0,0.0,-1.0,-1.0
1702490616.9163203,0.0,0.0,4.0,0.0,-8.0,-2.0,-5.0,-1.0
1702490616.9163203,-4.0,0.0,-5.0,-9.0,-1.0,-4.0,0.0,-1.0
1702490616.9163203,-1.0,0.0,0.0,8.0,9.0,5.0,2.0,0.0
1702490616.9163203,-1.0,3.0,26.0,1.0,0.0,-2.0,0.0,-2.0
1702490616.94607,-1.0,-2.0,-32.0,-4.0,-1.0,-3.0,-1.0,0.0
1702490616.94607,-1.0,-4.0,-3.0,2.0,-8.0,-4.0,-4.0,-1.0
1702490616.94607,1.0,-2.0,-6.0,-5.0,-2.0,-1.0,-3.0,-1.0
1702490616.94607,0.0,3.0,7.0,3.0,0.0,0.0,-1.0,0.0
1702490616.9563384,-3.0,-2.0,4.0,1.0,2.0,3.0,-1.0,-1.0
1702490616.9563384,0.0,2.0,3.0,1.0,-2.0,0.0,0.0,-3.0
1702490616.9563384,-1.0,-7.0,-29.0,-2.0,-1.0,-1.0,-3.0,0.0
1702490616.9563384,-3.0,-1.0,-17.0,1.0,-8.0,-2.0,-1.0,-2.0
1702490616.976079,-2.0,-2.0,-3.0,-3.0,-6.0,-4.0,-2.0,-2.0
1702490616.976079,-1.0,0.0,16.0,5.0,10.0,4.0,-1.0,-1.0
1702490616.976079,0.0,2.0,6.0,1.0,-1.0,1.0,-1.0,0.0
1702490616.976079,1.0,-2.0,-1.0,-1.0,-4.0,-1.0,-2.0,-1.0
1702490617.00607,-2.0,-2.0,8.0,-3.0,6.0,1.0,0.0,-1.0
1702490617.00607,-1.0,-3.0,-24.0,1.0,-7.0,-4.0,-2.0,0.0
1702490617.00607,0.0,-2.0,0.0,-1.0,-2.0,-2.0,-2.0,0.0
1702490617.00607,-3.0,-5.0,-8.0,-2.0,1.0,0.0,0.0,-1.0
1702490617.0160942,-1.0,-1.0,10.0,2.0,1.0,-1.0,0.0,-1.0
1702490617.0160942,0.0,-2.0,4.0,-3.0,-4.0,-4.0,-2.0,0.0
1702490617.0160942,-1.0,3.0,-1.0,-1.0,-1.0,-2.0,-1.0,-1.0
1702490617.0160942,-3.0,-3.0,-6.0,-2.0,-1.0,1.0,1.0,-2.0
1702490617.046074,-2.0,0.0,3.0,-2.0,0.0,-3.0,-2.0,-1.0
1702490617.046074,-2.0,-1.0,-1.0,-1.0,-7.0,-2.0,0.0,-3.0
1702490617.046074,1.0,1.0,-4.0,-1.0,3.0,0.0,1.0,0.0
1702490617.046074,-1.0,-1.0,5.0,0.0,3.0,0.0,-1.0,-2.0
1702490617.0560856,1.0,3.0,3.0,-1.0,-4.0,-1.0,0.0,-1.0
1702490617.0560856,-1.0,-1.0,5.0,2.0,4.0,1.0,-2.0,0.0
1702490617.0560856,-1.0,-1.0,-4.0,-1.0,-7.0,-4.0,-2.0,-1.0
1702490617.0560856,0.0,1.0,0.0,-1.0,-3.0,-2.0,-1.0,-2.0
1702490617.0765247,-2.0,-3.0,-7.0,-1.0,3.0,1.0,-1.0,-1.0
1702490617.0765247,1.0,3.0,0.0,-2.0,2.0,0.0,-1.0,-2.0
1702490617.0765247,-3.0,-3.0,17.0,1.0,-4.0,-1.0,-1.0,-2.0
1702490617.0765247,0.0,-4.0,-15.0,-1.0,3.0,-3.0,-2.0,-1.0
1702490617.0960627,1.0,0.0,-2.0,-1.0,-5.0,-1.0,-1.0,-1.0
1702490617.0960627,-2.0,1.0,8.0,-2.0,-4.0,-3.0,-1.0,0.0
1702490617.0960627,0.0,-2.0,-4.0,-2.0,3.0,1.0,0.0,-1.0
1702490617.0960627,-1.0,-1.0,-2.0,-5.0,-5.0,-3.0,-2.0,0.0
1702490617.116065,-1.0,-2.0,1.0,2.0,2.0,3.0,-1.0,-1.0
1702490617.116065,-3.0,-4.0,-6.0,-2.0,1.0,-1.0,-3.0,-2.0
1702490617.116065,1.0,3.0,0.0,1.0,-1.0,-2.0,0.0,-1.0
1702490617.116065,0.0,1.0,1.0,-5.0,-6.0,-2.0,-1.0,0.0
1702490617.1364853,-1.0,-1.0,8.0,-1.0,-1.0,-1.0,-1.0,-1.0
1702490617.1364853,0.0,-4.0,-14.0,0.0,-1.0,1.0,2.0,0.0
1702490617.1364853,-2.0,-1.0,4.0,-3.0,-1.0,-1.0,-1.0,-1.0
1702490617.1364853,-1.0,3.0,8.0,-1.0,-5.0,-2.0,-1.0,-1.0
1702490617.1560953,-3.0,0.0,3.0,-1.0,4.0,1.0,-1.0,1.0
1702490617.1560953,-3.0,-5.0,-1.0,-2.0,-4.0,-1.0,1.0,-1.0
1702490617.1560953,1.0,6.0,-1.0,1.0,-3.0,-4.0,-2.0,-1.0
1702490617.1560953,-4.0,-13.0,-14.0,-4.0,-1.0,0.0,-1.0,-2.0
1702490617.1768534,1.0,0.0,3.0,0.0,8.0,1.0,2.0,1.0
1702490617.1768534,0.0,2.0,1.0,0.0,-6.0,-3.0,-2.0,1.0
1702490617.1768534,0.0,4.0,24.0,-1.0,4.0,0.0,0.0,0.0
1702490617.1768534,-1.0,-6.0,-22.0,-4.0,-7.0,-3.0,0.0,-2.0
1702490617.1970346,-2.0,2.0,-15.0,3.0,-4.0,-3.0,-2.0,-3.0
1702490617.1970346,2.0,3.0,9.0,-3.0,1.0,-1.0,1.0,0.0
1702490617.1970346,-1.0,-2.0,0.0,-4.0,-1.0,-2.0,0.0,0.0
1702490617.1970346,-2.0,-2.0,2.0,-2.0,0.0,-2.0,-2.0,-1.0
1702490617.216793,-3.0,-4.0,-4.0,-3.0,-3.0,0.0,0.0,-2.0
1702490617.216793,2.0,5.0,6.0,0.0,-2.0,0.0,0.0,-1.0
1702490617.216793,-1.0,-7.0,-28.0,-1.0,-2.0,1.0,1.0,-1.0
1702490617.216793,-1.0,0.0,-8.0,-1.0,-1.0,-1.0,-2.0,-2.0
1702490617.2370584,0.0,3.0,15.0,0.0,-1.0,-1.0,-3.0,1.0
1702490617.2370584,-4.0,-10.0,2.0,-6.0,-2.0,-1.0,-3.0,-4.0
1702490617.2370584,-3.0,-1.0,5.0,1.0,1.0,1.0,-2.0,0.0
1702490617.2370584,1.0,3.0,-10.0,2.0,0.0,-1.0,-1.0,-1.0
1702490617.2570415,0.0,1.0,5.0,0.0,-2.0,1.0,0.0,-1.0
1702490617.2570415,-3.0,-3.0,-16.0,-1.0,-3.0,-2.0,-1.0,-2.0
1702490617.2667801,-2.0,-2.0,15.0,1.0,-3.0,-1.0,-2.0,-2.0
1702490617.2667801,2.0,4.0,14.0,3.0,6.0,2.0,-1.0,1.0
1702490617.28676,-1.0,-3.0,-1.0,0.0,-4.0,-3.0,-1.0,-1.0
1702490617.28676,0.0,5.0,21.0,-3.0,-1.0,0.0,1.0,0.0
1702490617.28676,-3.0,-13.0,-43.0,-7.0,-4.0,-3.0,-2.0,-2.0
1702490617.28676,-1.0,3.0,31.0,3.0,-4.0,-2.0,-4.0,-1.0
1702490617.2970455,2.0,7.0,34.0,2.0,3.0,0.0,9.0,-3.0
1702490617.2970455,-5.0,-20.0,-61.0,-13.0,-2.0,2.0,-3.0,-2.0
1702490617.2970455,1.0,3.0,-7.0,-7.0,5.0,0.0,1.0,0.0
1702490617.2970455,-3.0,-4.0,5.0,1.0,-1.0,-2.0,-1.0,-1.0
1702490617.3167615,-1.0,-1.0,-10.0,-2.0,-1.0,-5.0,-15.0,1.0
1702490617.3167615,1.0,4.0,43.0,8.0,3.0,3.0,7.0,0.0
1702490617.3167615,-1.0,-6.0,-24.0,2.0,-4.0,1.0,1.0,-2.0
1702490617.3167615,2.0,-2.0,29.0,-1.0,3.0,0.0,-1.0,-1.0
1702490617.3270795,0.0,0.0,-10.0,2.0,-2.0,-3.0,-4.0,-2.0
1702490617.3270795,3.0,7.0,0.0,6.0,6.0,4.0,0.0,1.0
1702490617.3370245,-7.0,-12.0,8.0,4.0,-15.0,-11.0,-14.0,-3.0
1702490617.3370245,-3.0,5.0,-17.0,1.0,2.0,3.0,12.0,-1.0
1702490617.3571749,-2.0,-4.0,-5.0,-3.0,-1.0,0.0,0.0,-2.0
1702490617.3571749,-3.0,0.0,-12.0,-3.0,1.0,-3.0,-13.0,0.0
1702490617.3571749,3.0,6.0,27.0,1.0,-1.0,0.0,7.0,0.0
1702490617.3571749,0.0,-2.0,-3.0,-5.0,-3.0,-4.0,-5.0,-3.0
1702490617.3867607,-4.0,-12.0,-11.0,-4.0,-1.0,1.0,1.0,-1.0
1702490617.3867607,-2.0,-1.0,-9.0,3.0,-3.0,-3.0,-3.0,-4.0
1702490617.3867607,1.0,2.0,7.0,-3.0,7.0,2.0,-3.0,-1.0
1702490617.3867607,-2.0,0.0,-1.0,2.0,-3.0,-1.0,-1.0,-1.0
1702490617.3867607,0.0,-3.0,-18.0,-5.0,-3.0,-1.0,1.0,1.0
1702490617.3867607,-1.0,3.0,12.0,-1.0,-2.0,-5.0,-1.0,2.0
1702490617.4038794,-2.0,0.0,3.0,-3.0,-3.0,0.0,2.0,0.0
1702490617.4038794,-1.0,0.0,-12.0,0.0,2.0,0.0,-2.0,-2.0
1702490617.4191551,0.0,-1.0,2.0,-2.0,0.0,-1.0,0.0,-1.0
1702490617.4191551,-2.0,-2.0,-3.0,0.0,2.0,-1.0,1.0,-2.0
1702490617.42093,-1.0,2.0,-5.0,-3.0,-1.0,-1.0,1.0,-1.0
1702490617.42093,-1.0,-3.0,-9.0,-1.0,-1.0,0.0,-2.0,-3.0
1702490617.4492636,0.0,-1.0,-1.0,-3.0,-12.0,-5.0,-4.0,-2.0
1702490617.4492636,1.0,1.0,-2.0,-2.0,-2.0,-2.0,1.0,-2.0
1702490617.4492636,-1.0,0.0,7.0,3.0,10.0,5.0,1.0,-1.0
1702490617.4492636,0.0,0.0,3.0,-4.0,-2.0,-1.0,-2.0,1.0
1702490617.4492636,-1.0,-1.0,-4.0,-1.0,-2.0,0.0,1.0,0.0
1702490617.4492636,1.0,-3.0,-3.0,2.0,-9.0,-3.0,0.0,0.0
1702490617.4596467,1.0,1.0,0.0,-2.0,-1.0,2.0,0.0,-2.0
1702490617.4596467,0.0,0.0,7.0,-2.0,1.0,-3.0,-1.0,0.0
1702490617.4793024,-3.0,-3.0,-9.0,-1.0,-1.0,0.0,0.0,1.0
1702490617.4793024,0.0,-3.0,-16.0,-4.0,-2.0,-2.0,-2.0,-1.0
1702490617.4793024,-2.0,1.0,0.0,2.0,0.0,-2.0,-3.0,-2.0
1702490617.4793024,-2.0,1.0,3.0,0.0,5.0,3.0,0.0,-1.0
1702490617.4970546,-1.0,0.0,12.0,-1.0,-1.0,-2.0,-1.0,-1.0
1702490617.4970546,-2.0,-6.0,-9.0,-2.0,2.0,0.0,-2.0,-1.0
1702490617.4970546,-2.0,0.0,0.0,-1.0,-6.0,-5.0,-3.0,0.0
1702490617.4970546,-2.0,-3.0,-2.0,-1.0,-4.0,-2.0,-2.0,-2.0
1702490617.507381,0.0,0.0,-6.0,-1.0,2.0,0.0,0.0,-2.0
1702490617.507381,-1.0,-2.0,2.0,-1.0,-1.0,-1.0,0.0,-3.0
1702490617.5173185,1.0,0.0,-4.0,-4.0,-4.0,-2.0,-3.0,0.0
1702490617.5173185,-1.0,1.0,-3.0,0.0,-3.0,0.0,-1.0,-1.0
1702490617.537499,-1.0,-4.0,-4.0,1.0,0.0,2.0,0.0,-5.0
1702490617.537499,0.0,2.0,5.0,4.0,5.0,1.0,1.0,-2.0
1702490617.537499,-1.0,-6.0,-10.0,-1.0,1.0,0.0,0.0,1.0
1702490617.537499,-1.0,0.0,1.0,-4.0,-7.0,-2.0,-3.0,1.0
1702490617.5570538,0.0,-2.0,-3.0,2.0,1.0,-1.0,-3.0,-1.0
1702490617.5570538,-1.0,-4.0,-1.0,-7.0,1.0,-1.0,-2.0,-2.0
1702490617.5570538,-1.0,-2.0,5.0,-1.0,-2.0,-1.0,-3.0,-1.0
1702490617.5570538,-2.0,0.0,-4.0,0.0,-4.0,-1.0,-1.0,-2.0
1702490617.5673957,0.0,3.0,1.0,0.0,7.0,3.0,1.0,-1.0
1702490617.5673957,-3.0,-4.0,-1.0,-1.0,-7.0,-2.0,-1.0,-1.0
1702490617.577617,0.0,2.0,-3.0,2.0,1.0,-1.0,-1.0,-2.0
1702490617.577617,0.0,-3.0,-6.0,-4.0,-5.0,-3.0,-4.0,-2.0
1702490617.617377,-2.0,-1.0,7.0,-4.0,-3.0,-1.0,-1.0,-1.0
1702490617.617377,-1.0,2.0,-10.0,0.0,-3.0,-1.0,-3.0,0.0
1702490617.617377,-3.0,-6.0,-4.0,-3.0,-2.0,0.0,-1.0,-2.0
1702490617.617377,-1.0,0.0,-2.0,5.0,1.0,0.0,0.0,-1.0
1702490617.617377,-3.0,-4.0,3.0,-3.0,2.0,1.0,0.0,-1.0
1702490617.617377,0.0,3.0,5.0,1.0,2.0,-1.0,-1.0,-1.0
1702490617.617377,1.0,4.0,1.0,-2.0,-6.0,-4.0,-1.0,-1.0
1702490617.617377,0.0,3.0,-1.0,-2.0,3.0,3.0,-1.0,1.0
1702490617.6378076,-4.0,-14.0,-13.0,-8.0,-4.0,-3.0,-4.0,-3.0
1702490617.6378076,0.0,6.0,13.0,6.0,-2.0,0.0,-1.0,2.0
1702490617.6378076,-2.0,-2.0,-3.0,1.0,1.0,0.0,-1.0,-2.0
1702490617.6378076,-2.0,-7.0,-2.0,1.0,-1.0,-1.0,-1.0,-1.0
1702490617.6573782,4.0,7.0,4.0,0.0,-3.0,-2.0,1.0,0.0
1702490617.6573782,-3.0,-4.0,13.0,-4.0,-5.0,-3.0,-1.0,-2.0
1702490617.6573782,0.0,-2.0,-16.0,0.0,3.0,-1.0,0.0,-2.0
1702490617.6573782,0.0,2.0,16.0,2.0,4.0,0.0,-2.0,-3.0
1702490617.6776874,1.0,1.0,1.0,0.0,-3.0,0.0,-1.0,-2.0
1702490617.6776874,3.0,5.0,4.0,2.0,-1.0,0.0,-2.0,0.0
1702490617.6776874,-5.0,-8.0,0.0,-5.0,-8.0,-1.0,-2.0,-2.0
1702490617.6776874,-1.0,5.0,29.0,2.0,-3.0,-5.0,-1.0,-1.0
1702490617.6976435,-2.0,-11.0,-36.0,-3.0,2.0,0.0,-2.0,-2.0
1702490617.6976435,-2.0,0.0,17.0,0.0,3.0,-1.0,-2.0,-3.0
1702490617.6976435,1.0,7.0,22.0,4.0,1.0,2.0,0.0,1.0
1702490617.6976435,-4.0,-9.0,-25.0,-10.0,-6.0,-2.0,-3.0,-2.0
1702490617.7273815,-1.0,5.0,1.0,4.0,-3.0,-2.0,0.0,2.0
1702490617.7273815,-3.0,0.0,7.0,3.0,-7.0,-6.0,-2.0,-2.0
1702490617.7473798,0.0,-3.0,-17.0,0.0,3.0,1.0,0.0,0.0
1702490617.7473798,0.0,3.0,6.0,-1.0,-2.0,-4.0,-3.0,-1.0
1702490617.7473798,-1.0,1.0,12.0,-2.0,-1.0,2.0,10.0,-2.0
1702490617.7473798,-1.0,2.0,26.0,-4.0,-2.0,1.0,0.0,0.0
1702490617.7473798,1.0,-2.0,-29.0,4.0,2.0,0.0,-1.0,0.0
1702490617.7473798,0.0,5.0,33.0,0.0,-14.0,-3.0,-1.0,0.0
1702490617.7577617,1.0,-1.0,-25.0,0.0,17.0,2.0,-13.0,0.0
1702490617.7577617,-2.0,-3.0,20.0,5.0,0.0,4.0,7.0,0.0
1702490617.7577617,2.0,8.0,30.0,-6.0,-3.0,-6.0,-30.0,2.0
1702490617.7577617,1.0,-8.0,-54.0,-2.0,-6.0,2.0,25.0,2.0
1702490617.7773795,-2.0,-1.0,22.0,-8.0,0.0,-2.0,2.0,-4.0
1702490617.7773795,0.0,-5.0,-69.0,-8.0,5.0,6.0,2.0,-4.0
1702490617.787377,-1.0,-3.0,25.0,0.0,-2.0,-2.0,0.0,-1.0
1702490617.787377,-2.0,-6.0,-24.0,-1.0,4.0,-1.0,-2.0,-3.0
1702490617.7976341,1.0,10.0,41.0,-1.0,-13.0,-6.0,-10.0,0.0
1702490617.7976341,4.0,0.0,-4.0,-5.0,14.0,0.0,-32.0,4.0
1702490617.7976341,-7.0,-6.0,-23.0,-9.0,-13.0,0.0,39.0,-6.0
1702490617.7976341,2.0,2.0,37.0,-1.0,13.0,3.0,-9.0,-1.0
1702490617.8473778,-3.0,-9.0,-29.0,9.0,-2.0,-3.0,3.0,2.0
1702490617.8473778,-3.0,2.0,21.0,-2.0,-10.0,-8.0,-17.0,-3.0
1702490617.8473778,-1.0,0.0,-14.0,1.0,11.0,4.0,-9.0,1.0
1702490617.8473778,-4.0,-2.0,-13.0,4.0,-8.0,-8.0,-5.0,-3.0
1702490617.8473778,-3.0,-1.0,4.0,0.0,-6.0,-3.0,-3.0,-2.0
1702490617.8473778,1.0,4.0,26.0,1.0,-12.0,-2.0,9.0,0.0
1702490617.8473778,-3.0,-8.0,9.0,-5.0,5.0,-3.0,2.0,-3.0
1702490617.8473778,0.0,-2.0,-6.0,1.0,6.0,4.0,3.0,-1.0
1702490617.8574853,0.0,-2.0,-15.0,1.0,-4.0,0.0,3.0,-3.0
1702490617.8574853,-2.0,-3.0,-4.0,-4.0,-7.0,-3.0,4.0,-2.0
1702490617.8574853,-1.0,1.0,5.0,-2.0,-2.0,0.0,-3.0,1.0
1702490617.8574853,1.0,-2.0,-13.0,1.0,3.0,1.0,-6.0,0.0
1702490617.8873775,0.0,1.0,11.0,0.0,1.0,0.0,-4.0,0.0
1702490617.8873775,-2.0,-4.0,-19.0,-2.0,-1.0,-2.0,8.0,-1.0
1702490617.8873775,-1.0,-3.0,0.0,-1.0,-2.0,-1.0,-5.0,0.0
1702490617.8873775,-1.0,-3.0,-1.0,-4.0,0.0,-1.0,-2.0,0.0
1702490617.8976357,0.0,2.0,8.0,2.0,-3.0,-2.0,3.0,1.0
1702490617.8976357,-4.0,-6.0,-23.0,-3.0,-3.0,-1.0,3.0,-1.0
1702490617.8976357,-1.0,-5.0,-20.0,-2.0,-5.0,0.0,0.0,-2.0
1702490617.8976357,-1.0,1.0,3.0,-5.0,-4.0,-4.0,-3.0,-2.0
1702490617.9176695,0.0,0.0,4.0,-5.0,2.0,3.0,2.0,-1.0
1702490617.9176695,-1.0,-3.0,-13.0,1.0,2.0,0.0,0.0,-2.0
1702490617.9176695,1.0,0.0,17.0,0.0,0.0,-1.0,-3.0,0.0
1702490617.9176695,-2.0,0.0,-7.0,1.0,1.0,0.0,-1.0,-1.0
1702490617.948818,0.0,-4.0,-8.0,-2.0,-2.0,-2.0,-3.0,-1.0
1702490617.948818,0.0,0.0,5.0,0.0,-6.0,1.0,2.0,-2.0
1702490617.948818,-3.0,1.0,3.0,-1.0,3.0,1.0,0.0,-3.0
1702490617.948818,-1.0,-1.0,-11.0,1.0,-1.0,2.0,-1.0,0.0
1702490617.9588165,-2.0,0.0,-2.0,0.0,-3.0,-2.0,-1.0,-1.0
1702490617.9588165,-1.0,-3.0,-1.0,-2.0,-1.0,-1.0,-2.0,-1.0
1702490617.9652417,1.0,0.0,1.0,1.0,-9.0,-2.0,0.0,-2.0
1702490617.9652417,-2.0,1.0,2.0,0.0,3.0,-1.0,-4.0,-2.0
1702490617.9785297,-2.0,-3.0,-3.0,-2.0,-2.0,-2.0,-1.0,-2.0
1702490617.9785297,0.0,-4.0,1.0,1.0,0.0,-1.0,0.0,-2.0
1702490617.9785297,0.0,-1.0,2.0,-1.0,5.0,3.0,-1.0,-1.0
1702490617.9785297,-1.0,-3.0,0.0,1.0,1.0,0.0,-1.0,-1.0
1702490617.9976575,2.0,2.0,15.0,-1.0,-3.0,-1.0,0.0,0.0
1702490617.9976575,0.0,-3.0,-21.0,-4.0,-4.0,-2.0,0.0,-2.0
1702490617.9976575,0.0,1.0,-7.0,0.0,-7.0,-5.0,-3.0,-1.0
1702490617.9976575,-2.0,-3.0,3.0,-1.0,4.0,-1.0,-2.0,-1.0
1702490618.018021,-2.0,-1.0,-3.0,0.0,0.0,-1.0,-1.0,0.0
1702490618.018021,-1.0,0.0,10.0,3.0,3.0,-2.0,0.0,-2.0
1702490618.018021,0.0,-3.0,-25.0,-3.0,-5.0,-3.0,-2.0,0.0
1702490618.018021,-2.0,2.0,3.0,-2.0,-3.0,-1.0,0.0,0.0
1702490618.0576642,1.0,-2.0,-2.0,2.0,7.0,1.0,-2.0,0.0
1702490618.0576642,-1.0,-3.0,-4.0,1.0,1.0,0.0,2.0,0.0
1702490618.0576642,-1.0,1.0,8.0,-1.0,-1.0,-4.0,0.0,-1.0
1702490618.0576642,0.0,-1.0,1.0,-3.0,-12.0,-4.0,-1.0,-3.0
1702490618.0576642,-2.0,-3.0,-12.0,-6.0,-4.0,-1.0,-1.0,-2.0
1702490618.0576642,0.0,0.0,-4.0,0.0,10.0,4.0,0.0,-3.0
1702490618.0576642,0.0,2.0,3.0,2.0,-5.0,-2.0,0.0,-1.0
1702490618.0576642,0.0,-1.0,-6.0,1.0,3.0,2.0,1.0,0.0
1702490618.077993,-2.0,-2.0,1.0,0.0,-3.0,-1.0,-2.0,-1.0
1702490618.077993,2.0,4.0,3.0,0.0,-3.0,-3.0,0.0,0.0
1702490618.077993,-1.0,-6.0,-12.0,-9.0,-4.0,1.0,1.0,-1.0
1702490618.077993,-3.0,-6.0,-1.0,-1.0,-5.0,-2.0,-3.0,-3.0
1702490618.0979576,0.0,-1.0,-9.0,-2.0,2.0,0.0,-1.0,-1.0
1702490618.0979576,0.0,-1.0,6.0,-1.0,-4.0,-3.0,-1.0,-1.0
1702490618.0979576,-1.0,0.0,18.0,2.0,3.0,0.0,-1.0,-1.0
1702490618.0979576,-1.0,-3.0,-20.0,-3.0,-1.0,0.0,-2.0,1.0
1702490618.1176982,-1.0,-1.0,2.0,-3.0,-5.0,-2.0,0.0,-1.0
1702490618.1176982,-3.0,-3.0,-7.0,3.0,4.0,0.0,0.0,1.0
1702490618.1176982,0.0,4.0,11.0,2.0,-3.0,0.0,-1.0,-2.0
1702490618.1176982,1.0,4.0,10.0,2.0,-2.0,-2.0,-1.0,-1.0
1702490618.1380382,-1.0,-2.0,-2.0,-4.0,-4.0,-3.0,-1.0,-2.0
1702490618.1380382,-1.0,-3.0,-4.0,-1.0,-1.0,0.0,-1.0,1.0
1702490618.157666,-1.0,-3.0,-5.0,-1.0,-5.0,-2.0,0.0,-1.0
1702490618.157666,1.0,4.0,0.0,1.0,10.0,1.0,1.0,-1.0
1702490618.157666,-3.0,-7.0,-7.0,2.0,-4.0,0.0,0.0,-2.0
1702490618.157666,0.0,2.0,-1.0,-4.0,-3.0,-2.0,-2.0,-2.0
1702490618.157666,-3.0,-5.0,-10.0,-3.0,-3.0,-1.0,-2.0,0.0
1702490618.157666,0.0,4.0,0.0,-4.0,-4.0,-2.0,-1.0,-3.0
1702490618.177673,2.0,11.0,29.0,4.0,-5.0,-1.0,-4.0,-1.0
1702490618.177673,-8.0,-17.0,-26.0,-7.0,3.0,2.0,-2.0,-3.0
1702490618.177673,0.0,2.0,3.0,3.0,1.0,0.0,-1.0,-1.0
1702490618.177673,-1.0,-2.0,5.0,-2.0,-1.0,-2.0,-3.0,-2.0
1702490618.1979597,2.0,4.0,-2.0,-1.0,1.0,-2.0,0.0,1.0
1702490618.1979597,-4.0,-2.0,9.0,1.0,-7.0,-1.0,-2.0,-1.0
1702490618.2087827,-2.0,-3.0,15.0,-6.0,-1.0,-5.0,0.0,-1.0
1702490618.2087827,-1.0,3.0,24.0,4.0,1.0,1.0,0.0,-1.0
1702490618.221185,-3.0,-11.0,-50.0,-3.0,1.0,2.0,0.0,-2.0
1702490618.221185,-1.0,3.0,0.0,-1.0,-1.0,-1.0,-1.0,0.0
1702490618.2292328,-2.0,0.0,9.0,1.0,4.0,1.0,-1.0,-1.0
1702490618.2292328,-2.0,-1.0,5.0,-4.0,-8.0,-4.0,-2.0,-1.0
1702490618.2414963,1.0,0.0,11.0,2.0,1.0,-3.0,-1.0,-2.0
1702490618.2414963,0.0,-8.0,-31.0,-2.0,-3.0,-3.0,-2.0,-1.0
1702490618.2414963,1.0,6.0,19.0,1.0,1.0,0.0,-13.0,1.0
1702490618.2414963,-2.0,-8.0,-13.0,-2.0,-11.0,-2.0,9.0,0.0
1702490618.252419,0.0,0.0,-10.0,-4.0,7.0,3.0,0.0,1.0
1702490618.252419,0.0,-1.0,8.0,-3.0,8.0,5.0,-4.0,1.0
1702490618.2608366,0.0,1.0,19.0,5.0,2.0,6.0,14.0,-1.0
1702490618.2608366,-1.0,-2.0,-39.0,-2.0,-5.0,-4.0,-4.0,-1.0
1702490618.2812386,-1.0,0.0,19.0,-11.0,-8.0,-4.0,-2.0,0.0
1702490618.2812386,1.0,3.0,26.0,-1.0,-1.0,-3.0,-3.0,2.0
1702490618.2812386,-1.0,3.0,10.0,2.0,7.0,2.0,12.0,-4.0
1702490618.2812386,-5.0,-13.0,-20.0,-3.0,-5.0,1.0,4.0,-3.0
1702490618.3024848,2.0,3.0,24.0,3.0,7.0,8.0,21.0,0.0
1702490618.3024848,1.0,5.0,-15.0,5.0,-1.0,-2.0,-12.0,0.0
1702490618.3024848,-3.0,-1.0,20.0,4.0,-14.0,-5.0,21.0,-5.0
1702490618.3024848,-3.0,-10.0,-6.0,-2.0,-3.0,0.0,4.0,-1.0
1702490618.322843,-2.0,5.0,47.0,-3.0,10.0,-1.0,-13.0,-1.0
1702490618.322843,-3.0,-7.0,-35.0,3.0,-9.0,-2.0,12.0,-4.0
1702490618.322843,0.0,7.0,20.0,2.0,3.0,-5.0,-17.0,1.0
1702490618.322843,-1.0,-6.0,-59.0,-3.0,-11.0,-10.0,-17.0,-3.0
1702490618.3324537,-4.0,-5.0,2.0,10.0,1.0,0.0,2.0,-1.0
1702490618.3324537,1.0,7.0,33.0,0.0,9.0,2.0,-6.0,-1.0
1702490618.342486,-3.0,-11.0,-52.0,-6.0,-6.0,-3.0,-8.0,-2.0
1702490618.342486,2.0,10.0,28.0,-1.0,8.0,4.0,3.0,-1.0
1702490618.3627493,-4.0,-12.0,-36.0,-5.0,-5.0,-4.0,-12.0,1.0
1702490618.3627493,-1.0,2.0,-9.0,-4.0,-5.0,-5.0,1.0,-3.0
1702490618.3627493,-3.0,-3.0,-1.0,2.0,3.0,1.0,-5.0,0.0
1702490618.3627493,0.0,2.0,20.0,-1.0,3.0,3.0,-1.0,1.0
1702490618.3824556,-1.0,1.0,-4.0,4.0,-6.0,-2.0,-4.0,-2.0
1702490618.3824556,-1.0,-8.0,-55.0,-6.0,-5.0,1.0,3.0,0.0
1702490618.3824556,-2.0,1.0,7.0,-1.0,-5.0,0.0,-1.0,-1.0
1702490618.3824556,0.0,2.0,12.0,2.0,15.0,0.0,-4.0,0.0
1702490618.4024577,0.0,-1.0,-8.0,-2.0,-10.0,-5.0,0.0,-2.0
1702490618.4024577,-2.0,1.0,23.0,-2.0,0.0,0.0,0.0,-2.0
1702490618.4024577,2.0,-1.0,-12.0,-6.0,-3.0,-1.0,-6.0,0.0
1702490618.4024577,0.0,-3.0,-16.0,-1.0,-2.0,-3.0,-3.0,-1.0
1702490618.4324596,0.0,0.0,-3.0,-1.0,-6.0,-3.0,-3.0,0.0
1702490618.4324596,0.0,-1.0,23.0,-2.0,-2.0,-3.0,-1.0,-2.0
1702490618.4424624,-1.0,-5.0,-31.0,-5.0,-3.0,-3.0,-5.0,-1.0
1702490618.4424624,-1.0,4.0,28.0,6.0,5.0,2.0,2.0,0.0
1702490618.4649036,-2.0,2.0,5.0,-1.0,-3.0,-1.0,0.0,-1.0
1702490618.4649036,-2.0,2.0,4.0,0.0,-5.0,-4.0,-4.0,-2.0
1702490618.4649036,-2.0,-2.0,-9.0,-3.0,0.0,3.0,-2.0,-1.0
1702490618.4649036,0.0,-2.0,-1.0,-5.0,-3.0,0.0,-2.0,-1.0
1702490618.4649036,0.0,-2.0,-13.0,-1.0,3.0,1.0,-2.0,0.0
1702490618.4649036,-1.0,2.0,19.0,-3.0,-2.0,1.0,0.0,0.0
1702490618.4649036,-1.0,-5.0,-16.0,-1.0,1.0,-1.0,-2.0,-1.0
1702490618.4649036,0.0,0.0,8.0,-4.0,-3.0,1.0,0.0,-1.0
1702490618.484564,-2.0,-1.0,-10.0,0.0,0.0,0.0,-2.0,-2.0
1702490618.484564,-1.0,1.0,14.0,1.0,-10.0,-6.0,0.0,0.0
1702490618.485574,-2.0,1.0,7.0,0.0,19.0,4.0,0.0,0.0
1702490618.485574,-1.0,0.0,-2.0,0.0,-6.0,0.0,-1.0,-1.0
1702490618.4945152,0.0,-3.0,3.0,-1.0,1.0,2.0,1.0,-2.0
1702490618.4945152,0.0,0.0,-5.0,-3.0,-7.0,-2.0,-2.0,-2.0
1702490618.5145128,-2.0,-1.0,0.0,-1.0,-10.0,-4.0,-3.0,-1.0
1702490618.5145128,-1.0,1.0,4.0,3.0,6.0,2.0,-1.0,-1.0
1702490618.5145128,-2.0,-1.0,-8.0,-1.0,0.0,-1.0,1.0,-2.0
1702490618.5145128,0.0,-1.0,2.0,-1.0,0.0,-1.0,0.0,0.0
1702490618.5230303,0.0,-2.0,-5.0,-4.0,-5.0,-2.0,-3.0,1.0
1702490618.5230303,-3.0,-5.0,-17.0,-7.0,-5.0,-2.0,-3.0,-1.0
1702490618.5434113,-1.0,-2.0,-1.0,-2.0,-2.0,-2.0,-1.0,-3.0
1702490618.5434113,-1.0,-1.0,-9.0,1.0,7.0,0.0,0.0,0.0
1702490618.5434113,-1.0,2.0,15.0,2.0,3.0,2.0,1.0,-1.0
1702490618.5434113,0.0,2.0,16.0,0.0,-5.0,-2.0,0.0,0.0
1702490618.5730388,0.0,-5.0,-33.0,-8.0,-7.0,-4.0,-2.0,0.0
1702490618.5730388,-1.0,-2.0,9.0,2.0,-8.0,-3.0,-1.0,-1.0
1702490618.5730388,0.0,0.0,-26.0,-2.0,10.0,1.0,-2.0,0.0
1702490618.5730388,-2.0,1.0,15.0,5.0,5.0,4.0,0.0,0.0
1702490618.5730388,0.0,0.0,0.0,0.0,-3.0,-1.0,-1.0,0.0
1702490618.5730388,-2.0,-1.0,7.0,-3.0,-1.0,-1.0,0.0,0.0
1702490618.5830395,0.0,3.0,-3.0,-6.0,-16.0,-8.0,-2.0,0.0
1702490618.5830395,-4.0,-8.0,-11.0,-1.0,-2.0,-4.0,-1.0,-2.0
1702490618.60304,-1.0,2.0,10.0,4.0,7.0,0.0,0.0,-2.0
1702490618.60304,0.0,0.0,-9.0,-4.0,-1.0,-1.0,0.0,-1.0
1702490618.60304,-2.0,-4.0,-4.0,0.0,0.0,-2.0,-3.0,-2.0
1702490618.60304,1.0,2.0,0.0,-3.0,-2.0,-2.0,-3.0,-1.0
1702490618.6234524,0.0,3.0,4.0,-2.0,-4.0,-3.0,-3.0,0.0
1702490618.6234524,-4.0,-5.0,-5.0,-1.0,1.0,0.0,0.0,-2.0
1702490618.6234524,-2.0,-2.0,-5.0,1.0,0.0,-1.0,-1.0,0.0
1702490618.6234524,2.0,5.0,10.0,2.0,1.0,-2.0,1.0,-1.0
1702490618.6333573,-3.0,-8.0,-4.0,-1.0,-4.0,0.0,-1.0,-2.0
1702490618.6333573,2.0,8.0,-1.0,0.0,-1.0,0.0,-1.0,0.0
1702490618.6430414,-2.0,-6.0,-3.0,-1.0,5.0,1.0,-2.0,0.0
1702490618.6430414,-1.0,-3.0,-3.0,-2.0,-2.0,0.0,-2.0,-1.0
1702490618.6630397,0.0,7.0,4.0,2.0,-7.0,-2.0,-1.0,0.0
1702490618.6630397,-3.0,-11.0,-8.0,-6.0,3.0,-2.0,-1.0,-1.0
1702490618.6630397,2.0,4.0,23.0,4.0,-2.0,2.0,2.0,-1.0
1702490618.6630397,-1.0,-2.0,-26.0,0.0,4.0,-2.0,-1.0,-2.0
1702490618.6833231,-2.0,-6.0,-17.0,-3.0,-3.0,-4.0,-1.0,0.0
1702490618.6833231,0.0,4.0,5.0,1.0,-2.0,-1.0,-1.0,-1.0
1702490618.6833231,0.0,4.0,30.0,1.0,-6.0,-4.0,-2.0,0.0
1702490618.6833231,-1.0,3.0,-31.0,-5.0,1.0,0.0,1.0,-2.0
1702490618.6933067,-3.0,-18.0,-1.0,-2.0,-1.0,0.0,-3.0,-3.0
1702490618.6933067,0.0,-4.0,11.0,-2.0,6.0,2.0,2.0,0.0
1702490618.7030451,-2.0,-5.0,-18.0,-1.0,-7.0,-3.0,-3.0,-3.0
1702490618.7030451,0.0,-1.0,-7.0,-3.0,-3.0,0.0,-1.0,-2.0
1702490618.7430425,1.0,9.0,21.0,1.0,7.0,1.0,0.0,0.0
1702490618.7430425,-4.0,-6.0,-37.0,-3.0,-5.0,-2.0,-15.0,-2.0
1702490618.7430425,-4.0,-3.0,-1.0,6.0,2.0,-1.0,5.0,-3.0
1702490618.7430425,3.0,9.0,40.0,-3.0,1.0,1.0,2.0,1.0
1702490618.7430425,-2.0,2.0,14.0,-4.0,1.0,2.0,10.0,-1.0
1702490618.7430425,-1.0,3.0,-22.0,-1.0,-1.0,-5.0,-15.0,0.0
1702490618.7430425,-3.0,-13.0,-19.0,-8.0,-7.0,2.0,28.0,-2.0
1702490618.7430425,-2.0,-6.0,-32.0,-1.0,8.0,-1.0,-14.0,0.0
1702490618.7532039,1.0,13.0,48.0,9.0,8.0,5.0,20.0,-1.0
1702490618.7532039,4.0,12.0,38.0,7.0,5.0,6.0,-23.0,2.0
1702490618.7730393,-2.0,-3.0,-21.0,-1.0,-5.0,2.0,8.0,-3.0
1702490618.7730393,-4.0,-5.0,46.0,-1.0,-4.0,-5.0,9.0,-3.0
1702490618.783338,2.0,5.0,-3.0,11.0,15.0,6.0,3.0,0.0
1702490618.783338,-8.0,-12.0,-31.0,-13.0,-24.0,-8.0,15.0,-8.0
1702490618.783338,-1.0,4.0,-3.0,-4.0,-11.0,-9.0,-15.0,0.0
1702490618.783338,1.0,-1.0,11.0,-1.0,-6.0,-2.0,-1.0,-1.0
1702490618.8030875,-3.0,-2.0,-13.0,-3.0,-3.0,-5.0,-16.0,0.0
1702490618.8030875,1.0,3.0,10.0,-5.0,16.0,8.0,6.0,1.0
1702490618.8030875,2.0,-2.0,-4.0,-2.0,5.0,1.0,-4.0,1.0
1702490618.8030875,-6.0,-4.0,19.0,-1.0,-13.0,-9.0,-9.0,-5.0
1702490618.8133397,-2.0,-4.0,-38.0,-6.0,3.0,0.0,4.0,-2.0
1702490618.8133397,0.0,3.0,28.0,7.0,-8.0,-9.0,-35.0,0.0
1702490618.833039,0.0,1.0,0.0,2.0,0.0,3.0,16.0,0.0
1702490618.833039,1.0,-2.0,-11.0,1.0,-1.0,-1.0,-5.0,1.0
1702490618.8434267,-2.0,1.0,4.0,0.0,-7.0,-5.0,-9.0,-2.0
1702490618.8434267,-2.0,-3.0,8.0,0.0,2.0,-1.0,8.0,-3.0
1702490618.8434267,0.0,0.0,-6.0,1.0,5.0,-1.0,-16.0,-1.0
1702490618.8434267,1.0,-2.0,7.0,2.0,1.0,1.0,0.0,1.0
1702490618.8633974,-1.0,-5.0,-13.0,-6.0,-12.0,-4.0,-4.0,-1.0
1702490618.8633974,-1.0,-2.0,-5.0,-1.0,1.0,-2.0,11.0,-1.0
1702490618.8633974,1.0,-1.0,-3.0,-1.0,5.0,-1.0,-6.0,-1.0
1702490618.8633974,1.0,-1.0,-4.0,-4.0,-1.0,1.0,6.0,0.0
1702490618.8734138,-3.0,-4.0,-2.0,-6.0,-7.0,-4.0,-5.0,-4.0
1702490618.8734138,0.0,-1.0,-11.0,-2.0,-1.0,1.0,7.0,-1.0
1702490618.8930397,2.0,1.0,5.0,-1.0,-1.0,-2.0,-7.0,-1.0
1702490618.8930397,-3.0,-2.0,-2.0,-2.0,-3.0,-2.0,-1.0,0.0
1702490618.9033744,-2.0,-1.0,-5.0,-4.0,-8.0,-4.0,-3.0,-1.0
1702490618.9033744,1.0,1.0,-2.0,1.0,4.0,1.0,6.0,-1.0
1702490618.9033744,-3.0,0.0,4.0,-1.0,1.0,1.0,-4.0,-1.0
1702490618.9033744,-3.0,-1.0,-7.0,-3.0,-3.0,-1.0,0.0,-2.0
1702490618.923497,-2.0,-2.0,-4.0,-1.0,-7.0,-3.0,-4.0,-1.0
1702490618.923497,1.0,-3.0,0.0,1.0,11.0,5.0,4.0,1.0
1702490618.923497,0.0,1.0,1.0,-2.0,-4.0,-1.0,-4.0,0.0
1702490618.923497,0.0,-2.0,-6.0,0.0,-3.0,0.0,0.0,-1.0
1702490618.9333258,0.0,-3.0,0.0,-4.0,-4.0,0.0,-2.0,-1.0
1702490618.9333258,-1.0,0.0,1.0,-1.0,-5.0,-5.0,1.0,-2.0
1702490618.9533324,0.0,-1.0,1.0,0.0,-5.0,-2.0,-3.0,0.0
1702490618.9533324,0.0,0.0,-7.0,-1.0,6.0,1.0,0.0,-1.0
1702490618.9636924,1.0,-1.0,-2.0,0.0,5.0,-1.0,-2.0,0.0
1702490618.9636924,-1.0,-3.0,0.0,1.0,-5.0,-1.0,2.0,-2.0
1702490618.9636924,0.0,0.0,-2.0,-2.0,1.0,1.0,-2.0,-2.0
1702490618.9636924,0.0,1.0,3.0,-3.0,-9.0,-4.0,0.0,-2.0
1702490618.9835718,-1.0,-3.0,-1.0,0.0,-1.0,1.0,0.0,-1.0
1702490618.9835718,-2.0,-5.0,-7.0,-3.0,-1.0,-1.0,2.0,-1.0
1702490618.9835718,-2.0,-2.0,8.0,-2.0,-1.0,-3.0,-3.0,-2.0
1702490618.9835718,1.0,1.0,6.0,0.0,-2.0,-1.0,-3.0,0.0
1702490618.993333,-2.0,-4.0,-17.0,-1.0,-1.0,-3.0,-3.0,-2.0
1702490618.993333,0.0,-2.0,5.0,0.0,-1.0,0.0,2.0,0.0
1702490619.0033627,-3.0,-3.0,-2.0,1.0,8.0,3.0,-1.0,-2.0
1702490619.0033627,-1.0,1.0,7.0,2.0,-2.0,0.0,-2.0,0.0
1702490619.023781,1.0,4.0,6.0,-3.0,2.0,1.0,-1.0,0.0
1702490619.023781,-1.0,-1.0,-2.0,0.0,-5.0,-1.0,1.0,0.0
1702490619.023781,-2.0,-4.0,-3.0,-3.0,-3.0,-6.0,-2.0,1.0
1702490619.023781,-2.0,-2.0,-5.0,-2.0,-5.0,-1.0,-1.0,-3.0
