1702490471.307606,-1.0,-27.0,5.0,3.0,0.0,-5.0,1.0,1.0
1702490471.307606,-2.0,-3.0,16.0,-1.0,-1.0,2.0,-1.0,-2.0
1702490471.3276002,-4.0,6.0,-9.0,-3.0,-1.0,-1.0,-2.0,-1.0
1702490471.3276002,-6.0,7.0,-6.0,-7.0,-7.0,-1.0,-3.0,-5.0
1702490471.3276002,0.0,4.0,13.0,16.0,0.0,-2.0,0.0,1.0
1702490471.3276002,3.0,2.0,-25.0,-6.0,4.0,-4.0,-2.0,1.0
1702490471.3276002,3.0,-4.0,17.0,-4.0,0.0,2.0,-1.0,-1.0
1702490471.3276002,-3.0,-6.0,-18.0,1.0,3.0,1.0,0.0,-2.0
1702490471.3476014,-4.0,-3.0,9.0,-3.0,-5.0,-1.0,0.0,-1.0
1702490471.357601,2.0,32.0,13.0,4.0,2.0,-1.0,-1.0,2.0
1702490471.357601,-4.0,-42.0,0.0,0.0,-1.0,0.0,-1.0,-2.0
1702490471.357601,-1.0,1.0,-4.0,1.0,-5.0,-1.0,-1.0,-4.0
1702490471.3676088,-2.0,-18.0,-4.0,-4.0,2.0,-4.0,-1.0,2.0
1702490471.3676088,1.0,18.0,8.0,-3.0,-1.0,2.0,0.0,0.0
1702490471.3976011,-1.0,31.0,12.0,0.0,0.0,-5.0,-3.0,1.0
1702490471.3976011,1.0,19.0,2.0,-4.0,-2.0,-2.0,-1.0,-1.0
1702490471.3976011,-5.0,-2.0,30.0,8.0,0.0,-3.0,0.0,1.0
1702490471.3976011,-3.0,-4.0,-30.0,-12.0,-2.0,-2.0,-2.0,-5.0
1702490471.3976011,1.0,3.0,-4.0,-1.0,0.0,-1.0,-1.0,-4.0
1702490471.3976011,4.0,30.0,10.0,8.0,-1.0,1.0,-1.0,2.0
1702490471.417603,4.0,17.0,-8.0,-7.0,-3.0,0.0,-3.0,-4.0
1702490471.417603,-4.0,4.0,-8.0,1.0,-7.0,-3.0,1.0,-2.0
1702490471.417603,-1.0,-12.0,-5.0,-7.0,-1.0,0.0,-4.0,-3.0
1702490471.417603,1.0,8.0,4.0,4.0,1.0,-5.0,1.0,-1.0
1702490471.4276726,1.0,-22.0,-19.0,9.0,5.0,7.0,-2.0,0.0
1702490471.4276726,3.0,-6.0,22.0,-4.0,-10.0,-3.0,-2.0,-1.0
1702490471.4476,-1.0,-24.0,-41.0,-1.0,0.0,-6.0,2.0,-1.0
1702490471.4476,-1.0,-6.0,32.0,-11.0,6.0,3.0,0.0,2.0
1702490471.4476,0.0,-44.0,-2.0,3.0,-2.0,-4.0,-1.0,-1.0
1702490471.4476,-7.0,5.0,0.0,-11.0,-8.0,-2.0,0.0,-3.0
1702490471.4476,-9.0,-49.0,37.0,7.0,-3.0,-1.0,0.0,-1.0
1702490471.4476,0.0,-7.0,-66.0,-10.0,-2.0,-2.0,-3.0,-2.0
1702490471.4776049,-3.0,-4.0,11.0,3.0,2.0,1.0,0.0,0.0
1702490471.4776049,-6.0,-15.0,-14.0,-12.0,2.0,3.0,-1.0,-1.0
1702490471.4776049,0.0,21.0,10.0,2.0,-3.0,-1.0,-4.0,-2.0
1702490471.4776049,-1.0,-40.0,-10.0,-2.0,-3.0,-2.0,-4.0,-1.0
1702490471.4877634,2.0,-5.0,1.0,0.0,0.0,-1.0,3.0,2.0
1702490471.4877634,-4.0,1.0,-16.0,5.0,4.0,1.0,-1.0,-2.0
1702490471.5176013,-6.0,31.0,5.0,-1.0,-1.0,0.0,-1.0,-2.0
1702490471.5176013,-4.0,-20.0,7.0,0.0,0.0,-3.0,1.0,1.0
1702490471.5176013,5.0,15.0,1.0,-19.0,-4.0,5.0,-1.0,-5.0
1702490471.5176013,-1.0,-20.0,-25.0,-5.0,-4.0,-5.0,-3.0,-1.0
1702490471.5176013,5.0,-4.0,-1.0,10.0,0.0,-4.0,3.0,1.0
1702490471.5176013,-4.0,12.0,15.0,3.0,2.0,10.0,0.0,-4.0
1702490471.5378923,-7.0,-31.0,-46.0,-4.0,-2.0,-2.0,-2.0,-1.0
1702490471.5378923,5.0,17.0,11.0,4.0,-2.0,-2.0,2.0,3.0
1702490471.5378923,5.0,-18.0,19.0,-11.0,0.0,0.0,1.0,5.0
1702490471.5378923,1.0,6.0,-25.0,-6.0,-3.0,-9.0,-8.0,-6.0
1702490471.5477457,1.0,27.0,57.0,14.0,3.0,0.0,0.0,0.0
1702490471.5477457,-3.0,-18.0,-27.0,3.0,4.0,-5.0,-3.0,-4.0
1702490471.5576034,3.0,24.0,5.0,-1.0,-6.0,-5.0,-3.0,1.0
1702490471.5576034,-5.0,-38.0,-73.0,-14.0,-3.0,5.0,0.0,-2.0
1702490471.5677578,-4.0,23.0,74.0,2.0,-2.0,-1.0,-6.0,-5.0
1702490471.5677578,4.0,16.0,58.0,3.0,-5.0,-11.0,0.0,2.0
1702490471.5677578,2.0,3.0,-12.0,-1.0,4.0,11.0,1.0,0.0
1702490471.5677578,0.0,12.0,15.0,11.0,-5.0,-3.0,-3.0,-2.0
1702490471.5976064,2.0,21.0,9.0,4.0,5.0,-3.0,-1.0,1.0
1702490471.5976064,-6.0,-31.0,-93.0,-15.0,-7.0,3.0,0.0,-1.0
1702490471.5976064,-5.0,11.0,16.0,5.0,2.0,-2.0,-6.0,-3.0
1702490471.5976064,-2.0,-14.0,-10.0,-1.0,-1.0,4.0,-2.0,-2.0
1702490471.6276007,1.0,-26.0,-31.0,-6.0,0.0,-3.0,-2.0,0.0
1702490471.6276007,6.0,-10.0,30.0,10.0,4.0,3.0,-3.0,-2.0
1702490471.6276007,-1.0,6.0,-1.0,-11.0,-1.0,0.0,2.0,-1.0
1702490471.6276007,-2.0,7.0,-41.0,-6.0,-4.0,-4.0,11.0,0.0
1702490471.6276007,-2.0,-8.0,3.0,-1.0,-1.0,-2.0,-6.0,-2.0
1702490471.6276007,-3.0,-33.0,-79.0,-11.0,-7.0,-7.0,-10.0,-4.0
1702490471.6276007,1.0,22.0,41.0,5.0,-1.0,-1.0,-4.0,2.0
1702490471.6276007,2.0,62.0,36.0,-2.0,-1.0,-2.0,4.0,4.0
1702490471.6579554,1.0,81.0,-33.0,-6.0,-3.0,2.0,-1.0,-3.0
1702490471.6589572,3.0,68.0,36.0,5.0,3.0,1.0,2.0,-2.0
1702490471.6589572,-11.0,22.0,-14.0,-9.0,-10.0,-7.0,3.0,-2.0
1702490471.6589572,6.0,-25.0,8.0,-8.0,-7.0,-8.0,-5.0,-10.0
1702490471.6715524,0.0,6.0,-17.0,-1.0,2.0,-3.0,-12.0,-1.0
1702490471.6715524,1.0,1.0,5.0,2.0,1.0,2.0,8.0,10.0
1702490471.6815531,-7.0,-15.0,-22.0,0.0,3.0,6.0,-6.0,-7.0
1702490471.6815531,-2.0,-7.0,32.0,4.0,-2.0,-11.0,0.0,8.0
1702490471.6918595,-2.0,-19.0,-7.0,-1.0,-1.0,5.0,1.0,-7.0
1702490471.6918595,-2.0,-22.0,-21.0,-2.0,3.0,-3.0,2.0,-3.0
1702490471.6918595,3.0,-14.0,-17.0,1.0,0.0,-2.0,2.0,6.0
1702490471.6918595,-2.0,-5.0,30.0,-8.0,-6.0,-9.0,-12.0,-12.0
1702490471.7115514,3.0,-17.0,-13.0,-3.0,-4.0,0.0,3.0,-6.0
1702490471.7115514,-1.0,32.0,30.0,2.0,1.0,-1.0,4.0,-4.0
1702490471.7115514,1.0,0.0,-5.0,2.0,2.0,-4.0,-1.0,4.0
1702490471.7115514,-8.0,8.0,-1.0,0.0,-1.0,5.0,-2.0,-2.0
1702490471.7319584,8.0,2.0,-20.0,-2.0,-1.0,-2.0,1.0,7.0
1702490471.7319584,-4.0,2.0,25.0,4.0,2.0,5.0,-5.0,-7.0
1702490471.7415528,1.0,-2.0,-7.0,-3.0,-1.0,-3.0,-4.0,-4.0
1702490471.7415528,2.0,22.0,20.0,2.0,1.0,9.0,2.0,5.0
1702490471.7484684,-8.0,-35.0,-28.0,-7.0,-7.0,-3.0,-2.0,-4.0
1702490471.7484684,-1.0,-4.0,14.0,-2.0,-6.0,-4.0,1.0,4.0
1702490471.7484684,0.0,-5.0,-10.0,-15.0,6.0,5.0,2.0,-4.0
1702490471.7484684,0.0,-1.0,15.0,25.0,4.0,1.0,-3.0,-1.0
1702490471.7784784,-4.0,10.0,0.0,-9.0,2.0,-2.0,1.0,2.0
1702490471.7784784,-4.0,-13.0,-15.0,15.0,1.0,2.0,-3.0,-3.0
1702490471.7784784,1.0,-20.0,6.0,-8.0,-8.0,-2.0,0.0,1.0
1702490471.7784784,-1.0,-7.0,-14.0,-3.0,-2.0,-5.0,-4.0,-2.0
1702490471.7989094,0.0,46.0,2.0,5.0,6.0,2.0,-1.0,1.0
1702490471.7989094,-2.0,-1.0,20.0,-4.0,-14.0,-14.0,-3.0,1.0
1702490471.8084795,0.0,-7.0,12.0,-12.0,7.0,8.0,2.0,1.0
1702490471.8084795,0.0,-6.0,13.0,-4.0,5.0,1.0,1.0,1.0
1702490471.8084795,-1.0,-11.0,-37.0,-24.0,1.0,0.0,2.0,1.0
1702490471.8084795,0.0,-7.0,38.0,24.0,2.0,-2.0,-4.0,-2.0
1702490471.8185122,-2.0,10.0,1.0,-15.0,-19.0,-8.0,-6.0,-5.0
1702490471.8185122,-2.0,-4.0,-23.0,-2.0,-10.0,-1.0,0.0,-4.0
1702490471.8284793,-2.0,-2.0,20.0,16.0,7.0,-1.0,3.0,3.0
1702490471.8284793,1.0,1.0,-3.0,-15.0,5.0,5.0,1.0,2.0
1702490471.8387442,-3.0,-1.0,-18.0,0.0,-9.0,-5.0,-3.0,-6.0
1702490471.8387442,-4.0,-26.0,10.0,0.0,-1.0,-1.0,-2.0,-3.0
1702490471.8587797,-2.0,-9.0,-2.0,-13.0,-9.0,-5.0,-1.0,0.0
1702490471.8587797,1.0,3.0,0.0,-24.0,-4.0,0.0,-2.0,3.0
1702490471.8587797,3.0,8.0,28.0,67.0,23.0,3.0,4.0,-2.0
1702490471.8587797,-2.0,1.0,-11.0,-9.0,0.0,-5.0,-1.0,0.0
1702490471.8688133,-4.0,-7.0,15.0,6.0,-3.0,0.0,-1.0,-2.0
1702490471.8688133,-3.0,-1.0,20.0,0.0,3.0,0.0,-1.0,-3.0
1702490471.878517,0.0,2.0,-6.0,-26.0,-5.0,0.0,-2.0,2.0
1702490471.878517,5.0,16.0,14.0,0.0,2.0,0.0,2.0,5.0
1702490471.898626,0.0,3.0,-2.0,-4.0,-4.0,-4.0,-4.0,-2.0
1702490471.898626,-1.0,6.0,14.0,-12.0,-12.0,-5.0,-3.0,-5.0
1702490471.898626,-1.0,-3.0,-11.0,-3.0,1.0,-2.0,0.0,-2.0
1702490471.898626,-2.0,8.0,65.0,17.0,6.0,1.0,-1.0,-2.0
1702490471.919627,-2.0,-6.0,2.0,-5.0,-8.0,-5.0,-1.0,0.0
1702490471.919627,0.0,-2.0,13.0,-1.0,-3.0,-1.0,-3.0,-2.0
1702490471.9206276,1.0,-2.0,-25.0,10.0,3.0,1.0,0.0,-1.0
1702490471.9206276,-9.0,-3.0,-34.0,-12.0,-1.0,0.0,0.0,1.0
1702490471.9336205,4.0,0.0,26.0,-9.0,-8.0,-4.0,-1.0,0.0
1702490471.9336205,-1.0,-1.0,13.0,21.0,10.0,-2.0,0.0,1.0
1702490471.952944,-2.0,-25.0,-72.0,-13.0,-2.0,2.0,1.0,0.0
1702490471.952944,1.0,-2.0,48.0,-3.0,-2.0,1.0,-2.0,-4.0
1702490471.9569638,-9.0,-7.0,1.0,2.0,0.0,0.0,0.0,-2.0
1702490471.9569638,6.0,-3.0,-14.0,-3.0,1.0,0.0,2.0,1.0
1702490471.9589436,6.0,9.0,9.0,-9.0,-7.0,-6.0,-1.0,3.0
1702490471.9589436,-5.0,-12.0,-69.0,-9.0,-4.0,0.0,-4.0,-6.0
1702490471.9814963,-4.0,0.0,-8.0,8.0,0.0,1.0,-1.0,0.0
1702490471.9824963,-4.0,1.0,-9.0,-3.0,2.0,4.0,1.0,-1.0
1702490471.9824963,-3.0,4.0,26.0,-4.0,-5.0,-5.0,-2.0,-1.0
1702490471.9824963,6.0,2.0,-13.0,-5.0,-1.0,-1.0,0.0,1.0
1702490472.0029755,-3.0,2.0,2.0,11.0,1.0,-2.0,-3.0,-5.0
1702490472.0029755,-5.0,-64.0,-23.0,-5.0,1.0,2.0,-2.0,-1.0
1702490472.0029755,2.0,5.0,-3.0,1.0,1.0,6.0,-3.0,-3.0
1702490472.0029755,3.0,9.0,11.0,-5.0,-1.0,-2.0,0.0,0.0
1702490472.0175667,0.0,7.0,-13.0,2.0,5.0,-2.0,-3.0,1.0
1702490472.0175667,0.0,-3.0,6.0,-4.0,-5.0,2.0,0.0,-2.0
1702490472.018784,-4.0,-6.0,-2.0,0.0,-3.0,-5.0,-5.0,-2.0
1702490472.018784,0.0,-5.0,18.0,0.0,0.0,-1.0,-2.0,-1.0
1702490472.039524,1.0,-7.0,-5.0,-10.0,1.0,5.0,5.0,1.0
1702490472.039524,-5.0,-2.0,-18.0,0.0,17.0,4.0,-3.0,-5.0
1702490472.0405226,-1.0,-1.0,12.0,-3.0,-6.0,-2.0,2.0,-2.0
1702490472.0405226,-1.0,11.0,3.0,0.0,-5.0,2.0,-6.0,-4.0
1702490472.0619388,5.0,9.0,2.0,18.0,-1.0,-3.0,3.0,1.0
1702490472.0619388,-1.0,4.0,-9.0,-16.0,-14.0,-6.0,-3.0,0.0
1702490472.0619388,-2.0,7.0,-57.0,10.0,21.0,5.0,-1.0,-1.0
1702490472.0619388,1.0,-7.0,9.0,-7.0,-1.0,-1.0,-1.0,1.0
1702490472.0763502,-3.0,1.0,46.0,4.0,2.0,-1.0,-4.0,-4.0
1702490472.0763502,0.0,9.0,-5.0,-2.0,1.0,1.0,0.0,-3.0
1702490472.0843828,-1.0,-6.0,2.0,-4.0,-10.0,-7.0,-2.0,-3.0
1702490472.0843828,-3.0,29.0,5.0,5.0,-4.0,-6.0,-3.0,-2.0
1702490472.0998127,4.0,3.0,14.0,6.0,10.0,3.0,-2.0,1.0
1702490472.0998127,1.0,1.0,10.0,4.0,-4.0,-3.0,1.0,0.0
1702490472.1013834,-2.0,-6.0,26.0,0.0,-1.0,2.0,-5.0,-3.0
1702490472.1013834,0.0,-10.0,-26.0,8.0,12.0,3.0,2.0,1.0
1702490472.1203916,-3.0,9.0,3.0,-2.0,-3.0,-3.0,-2.0,-2.0
1702490472.1203916,-1.0,-24.0,1.0,-6.0,-6.0,-1.0,-1.0,4.0
1702490472.1203916,0.0,-5.0,-33.0,-3.0,-2.0,0.0,1.0,-2.0
1702490472.1203916,-2.0,-6.0,-40.0,-7.0,-10.0,-8.0,-3.0,-2.0
1702490472.1330094,-6.0,-10.0,-8.0,-11.0,-9.0,-8.0,-3.0,-3.0
1702490472.1330094,-1.0,7.0,44.0,27.0,18.0,8.0,-2.0,-5.0
1702490472.1330094,3.0,-5.0,-34.0,-21.0,-2.0,-1.0,0.0,1.0
1702490472.1330094,-3.0,-7.0,63.0,23.0,-2.0,0.0,2.0,-1.0
1702490472.1594663,2.0,-4.0,-25.0,-8.0,-3.0,-4.0,1.0,-2.0
1702490472.1594663,-3.0,12.0,-15.0,-1.0,0.0,4.0,-2.0,-4.0
1702490472.1594663,-4.0,8.0,48.0,6.0,-4.0,0.0,-1.0,0.0
1702490472.1594663,1.0,18.0,10.0,-18.0,-1.0,-2.0,-1.0,4.0
1702490472.1695006,-1.0,-21.0,-76.0,-10.0,-4.0,-1.0,-2.0,-6.0
1702490472.1695006,-4.0,6.0,22.0,-4.0,-17.0,-10.0,-4.0,-3.0
1702490472.1820133,11.0,-4.0,19.0,14.0,17.0,5.0,2.0,2.0
1702490472.1820133,-2.0,9.0,-1.0,-6.0,-3.0,1.0,0.0,1.0
1702490472.1970148,-2.0,-7.0,28.0,-2.0,-3.0,-2.0,-1.0,1.0
1702490472.1970148,0.0,4.0,-63.0,-12.0,-3.0,-4.0,0.0,0.0
1702490472.1987243,-3.0,0.0,2.0,-2.0,-5.0,-3.0,-1.0,-1.0
1702490472.1987243,-6.0,-16.0,0.0,2.0,2.0,-2.0,-1.0,-3.0
1702490472.2242417,0.0,-4.0,5.0,-3.0,0.0,2.0,-3.0,-1.0
1702490472.2242417,-2.0,-1.0,-4.0,0.0,1.0,0.0,1.0,0.0
1702490472.2242417,1.0,5.0,19.0,3.0,-5.0,-4.0,-2.0,1.0
1702490472.2242417,-7.0,-8.0,-15.0,1.0,4.0,1.0,0.0,-4.0
1702490472.2242417,1.0,0.0,-15.0,-3.0,-1.0,1.0,2.0,10.0
1702490472.2242417,3.0,-24.0,8.0,0.0,-4.0,-8.0,-2.0,-8.0
1702490472.2443187,-3.0,23.0,27.0,0.0,-6.0,9.0,-9.0,11.0
1702490472.2443187,-6.0,0.0,-8.0,-6.0,-2.0,-13.0,3.0,-17.0
1702490472.2542455,5.0,-43.0,-2.0,10.0,4.0,2.0,3.0,4.0
1702490472.2542455,0.0,0.0,2.0,-4.0,-1.0,-9.0,-3.0,2.0
1702490472.2542455,-2.0,-26.0,13.0,-1.0,-4.0,-6.0,2.0,1.0
1702490472.2542455,9.0,20.0,-17.0,-6.0,-2.0,1.0,-2.0,7.0
1702490472.2842433,-6.0,6.0,30.0,3.0,-2.0,-2.0,-1.0,-2.0
1702490472.2842433,-5.0,4.0,-16.0,-4.0,4.0,5.0,-3.0,1.0
1702490472.2842433,-4.0,-31.0,0.0,2.0,-3.0,-5.0,2.0,-7.0
1702490472.2842433,5.0,-10.0,-7.0,-3.0,-1.0,0.0,-3.0,0.0
1702490472.2842433,1.0,13.0,-21.0,-5.0,0.0,0.0,-1.0,-3.0
1702490472.2842433,-1.0,8.0,-1.0,-6.0,6.0,6.0,1.0,0.0
1702490472.2942913,-4.0,20.0,24.0,3.0,-6.0,-8.0,-3.0,-6.0
1702490472.2942913,-3.0,-15.0,7.0,-5.0,0.0,4.0,1.0,0.0
1702490472.3142805,-1.0,7.0,-40.0,4.0,-8.0,-5.0,-4.0,-4.0
1702490472.3142805,-3.0,2.0,5.0,-18.0,-9.0,-5.0,-1.0,-2.0
1702490472.3142805,3.0,5.0,23.0,13.0,6.0,-1.0,0.0,-2.0
1702490472.3142805,-2.0,-7.0,8.0,13.0,2.0,-1.0,0.0,-1.0
1702490472.3342443,-1.0,-2.0,-2.0,-12.0,4.0,0.0,-1.0,-1.0
1702490472.3342443,0.0,12.0,21.0,31.0,3.0,1.0,1.0,1.0
1702490472.3342443,-1.0,2.0,-23.0,-22.0,-6.0,-6.0,0.0,-4.0
1702490472.3342443,-1.0,-4.0,-8.0,-4.0,-2.0,7.0,-4.0,-2.0
1702490472.344268,-3.0,6.0,13.0,-4.0,-4.0,1.0,0.0,-2.0
1702490472.3542767,2.0,1.0,-12.0,-1.0,-3.0,-2.0,0.0,-2.0
1702490472.3542767,0.0,-2.0,6.0,4.0,3.0,0.0,1.0,-1.0
1702490472.3542767,0.0,-5.0,-22.0,-3.0,0.0,-2.0,0.0,0.0
1702490472.3846626,-1.0,-1.0,7.0,4.0,1.0,-1.0,0.0,-1.0
1702490472.3846626,2.0,4.0,0.0,0.0,0.0,0.0,-3.0,-3.0
1702490472.3846626,-5.0,-6.0,-12.0,-5.0,-5.0,-3.0,-2.0,-1.0
1702490472.3846626,0.0,-1.0,5.0,6.0,3.0,-2.0,-2.0,2.0
1702490472.4042726,-6.0,-8.0,-7.0,-14.0,-3.0,0.0,-2.0,-5.0
1702490472.4042726,1.0,3.0,9.0,-2.0,-2.0,-1.0,0.0,-1.0
1702490472.4042726,-2.0,3.0,-22.0,4.0,0.0,-1.0,-1.0,3.0
1702490472.4042726,-1.0,-8.0,-39.0,-8.0,-1.0,1.0,-3.0,-8.0
1702490472.4143348,-2.0,2.0,46.0,9.0,1.0,-7.0,2.0,3.0
1702490472.4143348,2.0,-8.0,-33.0,-5.0,-2.0,5.0,0.0,-1.0
1702490472.4143348,3.0,-1.0,-24.0,-7.0,0.0,-2.0,-1.0,6.0
1702490472.4143348,-5.0,2.0,4.0,-1.0,-4.0,-2.0,2.0,-1.0
1702490472.4342782,1.0,8.0,9.0,-3.0,-4.0,-5.0,-5.0,-2.0
1702490472.4342782,-8.0,-4.0,-3.0,0.0,-1.0,-2.0,-5.0,-5.0
1702490472.4442775,1.0,4.0,1.0,0.0,-1.0,0.0,-2.0,-2.0
1702490472.4449713,13.0,22.0,-2.0,-1.0,-2.0,-1.0,-2.0,5.0
1702490472.4711246,-5.0,-19.0,8.0,3.0,-4.0,0.0,-1.0,-3.0
1702490472.4711246,-3.0,4.0,0.0,-9.0,3.0,2.0,1.0,3.0
1702490472.4711246,-2.0,19.0,15.0,13.0,7.0,1.0,-4.0,-8.0
1702490472.4711246,2.0,-19.0,25.0,3.0,-2.0,-3.0,-1.0,0.0
1702490472.4738464,1.0,-12.0,-52.0,-8.0,-2.0,-5.0,1.0,-4.0
1702490472.4738464,2.0,-23.0,3.0,-13.0,-14.0,-4.0,-1.0,3.0
1702490472.4818058,1.0,8.0,45.0,3.0,10.0,1.0,2.0,5.0
1702490472.4818058,0.0,26.0,3.0,-10.0,-11.0,-3.0,-2.0,-10.0
1702490472.4973092,1.0,-2.0,1.0,26.0,17.0,4.0,2.0,1.0
1702490472.4973092,-2.0,-7.0,-4.0,6.0,-1.0,-4.0,2.0,-3.0
1702490472.4982162,-2.0,5.0,-23.0,-2.0,-9.0,-1.0,-2.0,-3.0
1702490472.499173,-3.0,-50.0,10.0,-12.0,1.0,-1.0,-2.0,4.0
1702490472.5201845,-2.0,20.0,-2.0,-10.0,-3.0,-3.0,-3.0,-1.0
1702490472.5201845,0.0,12.0,-6.0,6.0,-2.0,0.0,-1.0,-2.0
1702490472.5212088,-5.0,-5.0,5.0,-2.0,6.0,1.0,0.0,-4.0
1702490472.5212088,-4.0,7.0,-4.0,8.0,1.0,0.0,1.0,5.0
1702490472.53349,-1.0,-3.0,-1.0,-4.0,-7.0,-5.0,-6.0,-5.0
1702490472.53349,1.0,-5.0,7.0,5.0,5.0,2.0,0.0,1.0
1702490472.5492535,-6.0,-11.0,-16.0,-9.0,-12.0,-4.0,-4.0,-5.0
1702490472.5492535,-4.0,-10.0,-6.0,2.0,2.0,2.0,-1.0,-2.0
1702490472.5642211,-2.0,9.0,-1.0,-17.0,-6.0,-2.0,-3.0,-1.0
1702490472.5652213,2.0,35.0,19.0,11.0,3.0,-2.0,-1.0,-1.0
1702490472.5682213,3.0,-24.0,-13.0,-8.0,-9.0,-2.0,1.0,0.0
1702490472.5682213,-4.0,6.0,-17.0,-3.0,1.0,-1.0,-3.0,0.0
1702490472.579791,-7.0,-6.0,21.0,-7.0,-9.0,-2.0,-2.0,-6.0
1702490472.579791,-3.0,7.0,-6.0,-8.0,5.0,3.0,-1.0,-1.0
1702490472.5817657,1.0,-17.0,-13.0,0.0,2.0,4.0,1.0,0.0
1702490472.5817657,-2.0,-5.0,30.0,4.0,0.0,-1.0,0.0,0.0
1702490472.592977,3.0,10.0,0.0,1.0,-5.0,-1.0,-1.0,-2.0
1702490472.5937228,1.0,-7.0,3.0,-3.0,0.0,-2.0,-3.0,-1.0
1702490472.602412,-1.0,-8.0,-23.0,-3.0,-1.0,-4.0,-3.0,-3.0
1702490472.602412,6.0,10.0,21.0,3.0,0.0,-2.0,1.0,-1.0
1702490472.616889,-1.0,-28.0,1.0,5.0,2.0,1.0,0.0,3.0
1702490472.616889,-1.0,6.0,-1.0,1.0,-3.0,-3.0,0.0,-1.0
1702490472.6185484,-2.0,-8.0,0.0,-4.0,-3.0,3.0,0.0,-2.0
1702490472.6185484,-3.0,15.0,1.0,2.0,-2.0,-2.0,-2.0,-3.0
1702490472.640067,4.0,-28.0,-16.0,3.0,3.0,1.0,1.0,0.0
1702490472.640067,-3.0,-34.0,5.0,2.0,6.0,1.0,1.0,0.0
1702490472.6410298,-2.0,32.0,-3.0,-4.0,-5.0,-6.0,-3.0,-3.0
1702490472.6410298,-3.0,-8.0,-16.0,-5.0,-4.0,-1.0,-1.0,-2.0
1702490472.6618123,2.0,8.0,6.0,4.0,0.0,1.0,-2.0,-1.0
1702490472.6618123,-4.0,0.0,7.0,2.0,2.0,0.0,0.0,-2.0
1702490472.6717143,-3.0,-12.0,8.0,-3.0,-6.0,-5.0,-1.0,-2.0
1702490472.6717143,-5.0,-11.0,-36.0,-5.0,-3.0,-2.0,-2.0,-1.0
1702490472.6769066,-3.0,11.0,1.0,-1.0,-4.0,-6.0,-2.0,-1.0
1702490472.6769066,-1.0,22.0,-18.0,-2.0,0.0,3.0,-4.0,-3.0
1702490472.6785839,0.0,3.0,15.0,3.0,-1.0,-3.0,-1.0,1.0
1702490472.6785839,-2.0,-29.0,10.0,-6.0,9.0,3.0,-1.0,-1.0
1702490472.7007859,1.0,-2.0,0.0,-6.0,-1.0,0.0,0.0,0.0
1702490472.7007859,-1.0,-18.0,5.0,8.0,-13.0,-4.0,-2.0,-2.0
1702490472.7017817,0.0,30.0,-2.0,3.0,-4.0,-3.0,-1.0,-3.0
1702490472.7017817,4.0,31.0,-5.0,-3.0,-2.0,-1.0,-2.0,0.0
1702490472.7225165,-1.0,12.0,3.0,-13.0,-2.0,0.0,0.0,-2.0
1702490472.7225165,-2.0,-6.0,-6.0,-7.0,-3.0,-2.0,-3.0,-1.0
1702490472.7306397,2.0,9.0,4.0,0.0,1.0,-2.0,0.0,2.0
1702490472.7306397,-4.0,-18.0,13.0,8.0,-3.0,-2.0,1.0,-3.0
1702490472.7366407,-4.0,11.0,-8.0,-5.0,-1.0,1.0,-1.0,-1.0
1702490472.7376425,0.0,7.0,-2.0,-5.0,-1.0,-5.0,-1.0,1.0
1702490472.7472105,-3.0,-15.0,-13.0,0.0,4.0,0.0,2.0,-1.0
1702490472.7472105,1.0,5.0,1.0,2.0,1.0,-1.0,-2.0,0.0
1702490472.7594655,0.0,-8.0,12.0,4.0,-6.0,-3.0,-3.0,0.0
1702490472.7594655,0.0,-40.0,-19.0,-10.0,-4.0,-2.0,-1.0,-1.0
1702490472.7613633,1.0,29.0,9.0,3.0,1.0,2.0,-1.0,0.0
1702490472.7613633,-1.0,0.0,0.0,-9.0,-8.0,-4.0,-1.0,0.0
1702490472.781877,0.0,-19.0,1.0,13.0,2.0,-2.0,0.0,0.0
1702490472.781877,1.0,26.0,7.0,1.0,7.0,0.0,1.0,0.0
1702490472.7835443,-3.0,-17.0,-11.0,-13.0,-3.0,0.0,-2.0,-1.0
1702490472.7835443,1.0,8.0,-1.0,3.0,6.0,-1.0,2.0,0.0
1702490472.7965639,-2.0,14.0,-9.0,-1.0,-5.0,-1.0,0.0,-1.0
1702490472.7965639,-2.0,-4.0,1.0,-11.0,-9.0,-6.0,-3.0,-1.0
1702490472.8036106,0.0,-14.0,12.0,16.0,4.0,2.0,-4.0,-4.0
1702490472.8046124,1.0,5.0,-12.0,-4.0,-4.0,-1.0,0.0,0.0
1702490472.8197517,0.0,-2.0,-29.0,-6.0,2.0,2.0,0.0,-1.0
1702490472.8207073,-1.0,3.0,12.0,4.0,-2.0,0.0,-1.0,0.0
1702490472.8207073,-2.0,-8.0,-5.0,-9.0,-1.0,-3.0,-2.0,-2.0
1702490472.8207073,-4.0,-12.0,-6.0,2.0,0.0,-1.0,-2.0,0.0
1702490472.841302,-4.0,-4.0,17.0,-1.0,4.0,1.0,-1.0,-2.0
1702490472.841302,3.0,9.0,-10.0,0.0,0.0,-2.0,-3.0,0.0
1702490472.8433058,-1.0,-18.0,-8.0,1.0,5.0,3.0,2.0,-1.0
1702490472.8433058,-6.0,-2.0,13.0,2.0,0.0,-1.0,-2.0,-4.0
1702490472.8565023,2.0,5.0,-50.0,-5.0,2.0,0.0,1.0,-2.0
1702490472.8565023,0.0,-1.0,60.0,11.0,0.0,-3.0,0.0,3.0
1702490472.8635426,3.0,-6.0,-15.0,-9.0,-3.0,3.0,-1.0,-5.0
1702490472.8635426,-5.0,-2.0,-21.0,-2.0,-1.0,-3.0,1.0,-1.0
1702490472.8796659,3.0,6.0,42.0,7.0,1.0,7.0,1.0,-2.0
1702490472.8796659,-2.0,-4.0,-15.0,4.0,-1.0,3.0,0.0,-4.0
1702490472.8814235,4.0,5.0,9.0,3.0,-4.0,-6.0,-1.0,1.0
1702490472.8814235,0.0,4.0,22.0,-4.0,-4.0,0.0,1.0,1.0
1702490472.9062405,-6.0,-6.0,-50.0,-10.0,-3.0,-1.0,-1.0,10.0
1702490472.9062405,1.0,-1.0,-17.0,0.0,0.0,-1.0,-3.0,-16.0
1702490472.9062405,-3.0,-3.0,20.0,2.0,0.0,-3.0,-1.0,-1.0
1702490472.9062405,2.0,14.0,-1.0,3.0,1.0,0.0,-1.0,0.0
1702490472.9164517,3.0,10.0,47.0,16.0,-3.0,-3.0,-2.0,0.0
1702490472.9175022,-1.0,-4.0,-80.0,-22.0,3.0,1.0,0.0,2.0
1702490472.9233565,-3.0,-8.0,19.0,-25.0,-7.0,-3.0,0.0,5.0
1702490472.924382,-2.0,6.0,-22.0,-2.0,0.0,-1.0,-3.0,-14.0
1702490472.940374,-2.0,5.0,-3.0,1.0,2.0,0.0,-2.0,-4.0
1702490472.940374,-3.0,-4.0,41.0,15.0,-3.0,-1.0,2.0,5.0
1702490472.9413724,1.0,5.0,28.0,8.0,3.0,2.0,1.0,-2.0
1702490472.9413724,1.0,-17.0,-50.0,-7.0,-4.0,-1.0,-3.0,2.0
1702490472.9797847,-2.0,-46.0,-8.0,-7.0,-3.0,-5.0,3.0,-1.0
1702490472.9797847,3.0,56.0,29.0,8.0,1.0,1.0,0.0,-2.0
1702490472.9797847,-4.0,-18.0,-24.0,-3.0,2.0,1.0,2.0,1.0
1702490472.9797847,2.0,-6.0,29.0,6.0,3.0,0.0,0.0,1.0
1702490472.9797847,1.0,12.0,11.0,-5.0,-6.0,-5.0,-5.0,-6.0
1702490472.9797847,-3.0,-29.0,-5.0,-5.0,-2.0,-3.0,-3.0,1.0
1702490472.9829557,-14.0,-11.0,-16.0,3.0,0.0,2.0,-2.0,-3.0
1702490472.9829557,2.0,-24.0,-4.0,0.0,0.0,-1.0,0.0,1.0
1702490473.0112846,-1.0,10.0,-19.0,-5.0,1.0,-1.0,-1.0,-1.0
1702490473.0112846,-2.0,0.0,31.0,2.0,-3.0,-2.0,-1.0,0.0
1702490473.0112846,0.0,-24.0,-20.0,-4.0,-5.0,-4.0,-3.0,-1.0
1702490473.0112846,-6.0,26.0,9.0,3.0,3.0,4.0,-9.0,-6.0
1702490473.021438,-9.0,2.0,-6.0,2.0,5.0,2.0,-1.0,-1.0
1702490473.021438,5.0,3.0,-5.0,-1.0,-1.0,-1.0,2.0,5.0
1702490473.021438,1.0,12.0,-5.0,-13.0,-7.0,0.0,-1.0,-10.0
1702490473.021438,-10.0,4.0,49.0,38.0,4.0,-2.0,1.0,-1.0
1702490473.037535,5.0,26.0,29.0,-28.0,-2.0,1.0,-3.0,1.0
1702490473.037535,-2.0,25.0,-6.0,-20.0,-1.0,-1.0,0.0,2.0
1702490473.0433104,1.0,8.0,-24.0,13.0,1.0,-1.0,1.0,3.0
1702490473.0433104,1.0,-17.0,-5.0,-10.0,-9.0,-5.0,-1.0,-3.0
1702490473.0664237,-2.0,41.0,36.0,9.0,-3.0,-1.0,1.0,4.0
1702490473.0664237,-5.0,-2.0,-64.0,-4.0,-1.0,-6.0,-3.0,-12.0
1702490473.0664237,5.0,10.0,15.0,5.0,1.0,3.0,-2.0,1.0
1702490473.0664237,-6.0,2.0,13.0,-7.0,-1.0,-2.0,-4.0,-1.0
1702490473.0824747,-5.0,-58.0,-60.0,3.0,1.0,1.0,-3.0,-8.0
1702490473.0824747,0.0,19.0,54.0,-3.0,-3.0,-7.0,-5.0,3.0
1702490473.0843585,-9.0,-2.0,-28.0,2.0,-2.0,4.0,2.0,2.0
1702490473.0843585,5.0,2.0,9.0,1.0,0.0,-1.0,2.0,1.0
1702490473.0965679,-5.0,8.0,-8.0,1.0,1.0,-2.0,0.0,0.0
1702490473.0965679,7.0,-44.0,7.0,-7.0,2.0,6.0,3.0,10.0
1702490473.103728,-1.0,-5.0,-12.0,-1.0,-4.0,-8.0,-8.0,-16.0
1702490473.103728,3.0,4.0,54.0,-10.0,-1.0,0.0,0.0,12.0
1702490473.1224916,0.0,-11.0,-51.0,-8.0,-5.0,-4.0,-3.0,4.0
1702490473.12349,-10.0,15.0,-29.0,4.0,-4.0,0.0,-2.0,-5.0
1702490473.1318908,3.0,-6.0,-25.0,-9.0,-4.0,-3.0,2.0,5.0
1702490473.1318908,-5.0,29.0,4.0,7.0,3.0,6.0,-1.0,-6.0
1702490473.1422236,2.0,8.0,28.0,-1.0,-3.0,1.0,-1.0,-1.0
1702490473.1429002,1.0,-7.0,30.0,11.0,3.0,4.0,3.0,1.0
1702490473.1437185,2.0,76.0,-19.0,-18.0,-4.0,-6.0,-3.0,2.0
1702490473.1437185,0.0,-12.0,-56.0,-4.0,-2.0,-7.0,-2.0,-3.0
1702490473.1559837,10.0,5.0,32.0,6.0,-3.0,2.0,-3.0,-1.0
1702490473.1559837,-16.0,-62.0,-34.0,-5.0,-3.0,1.0,-2.0,-6.0
1702490473.1649992,-4.0,0.0,79.0,9.0,3.0,2.0,0.0,4.0
1702490473.1649992,1.0,20.0,-52.0,-8.0,1.0,-1.0,0.0,1.0
1702490473.1855705,6.0,-10.0,18.0,3.0,0.0,-5.0,1.0,2.0
1702490473.1855705,3.0,-16.0,9.0,0.0,-6.0,-4.0,-1.0,-4.0
1702490473.1855705,2.0,-16.0,13.0,6.0,-4.0,-19.0,-5.0,3.0
1702490473.1855705,-4.0,-25.0,-10.0,-7.0,-2.0,8.0,1.0,-5.0
1702490473.202366,-8.0,3.0,3.0,5.0,-1.0,2.0,-1.0,-6.0
1702490473.2033648,1.0,-2.0,-4.0,-1.0,-4.0,-4.0,-3.0,2.0
1702490473.20736,0.0,-11.0,-3.0,1.0,1.0,1.0,-3.0,-2.0
1702490473.20736,-1.0,-11.0,-2.0,-6.0,-4.0,-4.0,-1.0,1.0
1702490473.2164135,0.0,-9.0,-20.0,-4.0,-6.0,-8.0,-4.0,-4.0
1702490473.2164135,-2.0,9.0,10.0,-1.0,3.0,5.0,2.0,-1.0
1702490473.2470217,-3.0,-30.0,0.0,7.0,7.0,8.0,2.0,0.0
1702490473.2470217,2.0,5.0,3.0,-7.0,-2.0,-3.0,-1.0,-5.0
1702490473.2470217,-1.0,3.0,13.0,7.0,4.0,8.0,-1.0,-3.0
1702490473.2470217,1.0,2.0,-16.0,-4.0,-6.0,-5.0,-5.0,-3.0
1702490473.2470217,-3.0,-7.0,-2.0,-9.0,-3.0,-3.0,-1.0,-2.0
1702490473.2470217,-4.0,15.0,20.0,31.0,-1.0,-3.0,1.0,1.0
1702490473.2624865,-5.0,3.0,-17.0,-34.0,-2.0,0.0,-1.0,-2.0
1702490473.2624865,-3.0,56.0,-6.0,6.0,10.0,4.0,0.0,-1.0
1702490473.2637744,1.0,17.0,-5.0,0.0,4.0,4.0,1.0,0.0
1702490473.2637744,2.0,-7.0,-3.0,-19.0,-13.0,-8.0,-3.0,0.0
1702490473.2757838,-2.0,-9.0,15.0,24.0,0.0,-3.0,-1.0,-2.0
1702490473.2757838,4.0,-7.0,-8.0,-9.0,-7.0,0.0,-3.0,-1.0
1702490473.2903497,-2.0,-6.0,-16.0,8.0,-3.0,0.0,-1.0,-4.0
1702490473.2903497,2.0,-15.0,13.0,-10.0,12.0,1.0,0.0,1.0
1702490473.299768,0.0,-17.0,9.0,0.0,-10.0,-11.0,3.0,1.0
1702490473.299768,0.0,-8.0,-30.0,0.0,3.0,4.0,1.0,0.0
1702490473.3011618,0.0,-22.0,-21.0,-7.0,-5.0,-1.0,-1.0,-2.0
1702490473.3011618,-1.0,-5.0,18.0,5.0,0.0,0.0,0.0,-1.0
1702490473.3136086,-4.0,24.0,17.0,-4.0,-4.0,-4.0,-1.0,-3.0
1702490473.3136086,2.0,-10.0,9.0,8.0,3.0,-2.0,-1.0,0.0
1702490473.3231974,1.0,17.0,15.0,-3.0,0.0,2.0,-2.0,-2.0
1702490473.3231974,1.0,-15.0,-22.0,-3.0,-4.0,-1.0,0.0,-2.0
1702490473.3333817,0.0,19.0,0.0,6.0,8.0,2.0,-1.0,-2.0
1702490473.3333817,-3.0,5.0,18.0,-2.0,-13.0,-9.0,-1.0,-3.0
1702490473.3431516,-1.0,-4.0,-8.0,13.0,19.0,3.0,-1.0,0.0
1702490473.3431516,3.0,10.0,0.0,-15.0,-5.0,-3.0,-2.0,0.0
1702490473.3531487,-6.0,-4.0,3.0,12.0,0.0,3.0,1.0,-2.0
1702490473.3531487,1.0,-4.0,9.0,-3.0,-1.0,0.0,-1.0,-1.0
1702490473.3531487,-1.0,3.0,2.0,-4.0,1.0,-3.0,1.0,0.0
1702490473.3531487,-2.0,-2.0,-6.0,4.0,1.0,0.0,-1.0,0.0
1702490473.3734496,0.0,11.0,-5.0,-10.0,-6.0,-6.0,-1.0,-1.0
1702490473.3734496,-3.0,-7.0,-9.0,-3.0,3.0,6.0,-2.0,-4.0
1702490473.3831587,-2.0,-1.0,-8.0,5.0,-3.0,2.0,-1.0,0.0
1702490473.3831587,-3.0,7.0,3.0,-6.0,-3.0,-4.0,-1.0,-1.0
1702490473.4031513,1.0,1.0,-5.0,0.0,-1.0,-1.0,-1.0,-2.0
1702490473.4031513,1.0,-7.0,-14.0,-5.0,-2.0,-2.0,-1.0,0.0
1702490473.4031513,-7.0,-1.0,17.0,4.0,0.0,-2.0,1.0,-1.0
1702490473.4031513,0.0,6.0,-6.0,-1.0,-3.0,0.0,-3.0,-2.0
1702490473.4136348,0.0,-17.0,-14.0,-13.0,-3.0,-4.0,-2.0,-2.0
1702490473.4136348,-1.0,-19.0,11.0,8.0,6.0,0.0,-2.0,-3.0
1702490473.4136348,-2.0,-16.0,-12.0,-5.0,-4.0,3.0,0.0,-3.0
1702490473.4136348,-4.0,0.0,-5.0,-5.0,-1.0,-1.0,1.0,0.0
1702490473.434063,1.0,-3.0,11.0,6.0,-1.0,0.0,-3.0,-1.0
1702490473.434063,-2.0,2.0,-3.0,-6.0,-5.0,-5.0,-1.0,0.0
1702490473.443647,-1.0,-6.0,-1.0,-2.0,-10.0,-10.0,-2.0,-2.0
1702490473.443647,-1.0,-5.0,-5.0,5.0,8.0,5.0,0.0,-1.0
1702490473.453645,1.0,-14.0,1.0,4.0,2.0,3.0,0.0,1.0
1702490473.453645,-6.0,-16.0,-9.0,-8.0,-7.0,-4.0,0.0,-3.0
1702490473.4639115,0.0,7.0,-7.0,5.0,2.0,-3.0,-3.0,-1.0
1702490473.4639115,2.0,-4.0,9.0,2.0,-5.0,-3.0,-3.0,-2.0
1702490473.4739573,-2.0,-13.0,-10.0,0.0,0.0,0.0,-2.0,-1.0
1702490473.4739573,1.0,19.0,6.0,-3.0,0.0,-2.0,0.0,-1.0
1702490473.4739573,-1.0,4.0,18.0,-2.0,-3.0,-1.0,0.0,-2.0
1702490473.4739573,-3.0,-16.0,-16.0,-6.0,3.0,0.0,0.0,-2.0
1702490473.4936478,-1.0,3.0,-32.0,-1.0,3.0,5.0,0.0,-2.0
1702490473.4936478,-1.0,-1.0,18.0,2.0,-1.0,-3.0,1.0,0.0
1702490473.503647,2.0,10.0,-12.0,-8.0,-4.0,-2.0,-1.0,-1.0
1702490473.503647,1.0,-4.0,25.0,1.0,-4.0,-2.0,-2.0,1.0
1702490473.5136468,-1.0,6.0,15.0,4.0,-1.0,-3.0,-2.0,-1.0
1702490473.5136468,2.0,-11.0,-17.0,-2.0,7.0,-2.0,-3.0,1.0
1702490473.523986,0.0,1.0,-7.0,1.0,2.0,11.0,0.0,-2.0
1702490473.523986,1.0,10.0,0.0,-3.0,1.0,1.0,0.0,2.0
1702490473.5340424,-1.0,3.0,-6.0,-7.0,-4.0,-4.0,-2.0,-3.0
1702490473.5340424,-1.0,2.0,-10.0,0.0,-2.0,-3.0,0.0,-2.0
1702490473.5340424,1.0,-10.0,7.0,5.0,2.0,-3.0,-1.0,0.0
1702490473.5340424,-1.0,-4.0,-21.0,0.0,-1.0,0.0,0.0,0.0
1702490473.5538936,-1.0,10.0,15.0,3.0,1.0,-1.0,-1.0,0.0
1702490473.5538936,0.0,2.0,6.0,1.0,-2.0,2.0,-3.0,-1.0
1702490473.5636475,-1.0,-30.0,8.0,-1.0,3.0,-5.0,-5.0,-2.0
1702490473.5636475,-2.0,13.0,3.0,5.0,0.0,2.0,1.0,-2.0
1702490473.5838351,2.0,7.0,-12.0,-5.0,-1.0,-2.0,2.0,2.0
1702490473.5838351,-1.0,2.0,12.0,6.0,0.0,0.0,0.0,-1.0
1702490473.5838351,-5.0,-2.0,-7.0,-2.0,-5.0,-3.0,-1.0,-2.0
1702490473.5838351,-2.0,-2.0,7.0,-3.0,-4.0,-8.0,-1.0,-1.0
1702490473.5938888,-1.0,-19.0,22.0,1.0,4.0,8.0,-1.0,-2.0
1702490473.5938888,1.0,1.0,-8.0,-4.0,-6.0,-4.0,0.0,2.0
1702490473.5938888,-1.0,5.0,4.0,-2.0,6.0,5.0,2.0,0.0
1702490473.5938888,1.0,-3.0,-4.0,2.0,2.0,-2.0,-3.0,-3.0
1702490473.623874,-1.0,-1.0,-28.0,-3.0,-1.0,0.0,-1.0,1.0
1702490473.623874,0.0,-4.0,-4.0,-4.0,-9.0,-2.0,-2.0,-3.0
1702490473.623874,2.0,11.0,2.0,-7.0,-4.0,-3.0,-2.0,-2.0
1702490473.623874,0.0,8.0,-9.0,14.0,0.0,-2.0,-2.0,-1.0
1702490473.6636488,-5.0,-12.0,9.0,-20.0,-1.0,-3.0,-1.0,-2.0
1702490473.6636488,-2.0,-21.0,14.0,23.0,4.0,1.0,-2.0,-1.0
1702490473.6636488,1.0,-1.0,2.0,-13.0,-8.0,-4.0,0.0,3.0
1702490473.6636488,-2.0,-1.0,-25.0,15.0,7.0,8.0,-1.0,-4.0
1702490473.6636488,-2.0,-33.0,4.0,3.0,-6.0,-3.0,-1.0,0.0
1702490473.6636488,-2.0,28.0,-3.0,-6.0,0.0,-4.0,-1.0,-3.0
1702490473.6636488,-2.0,-3.0,9.0,1.0,2.0,4.0,0.0,-2.0
1702490473.6636488,-1.0,-5.0,3.0,-4.0,-4.0,-3.0,-2.0,-2.0
1702490473.6836464,-1.0,1.0,-2.0,3.0,0.0,-2.0,-2.0,-1.0
1702490473.6836464,2.0,-16.0,-11.0,-8.0,0.0,3.0,-1.0,1.0
1702490473.6936462,-2.0,4.0,1.0,-1.0,-9.0,-5.0,-2.0,-3.0
1702490473.6936462,1.0,22.0,-2.0,-10.0,-5.0,-2.0,-2.0,0.0
1702490473.7038367,-4.0,12.0,11.0,7.0,1.0,-1.0,0.0,-2.0
1702490473.7038367,-2.0,7.0,20.0,1.0,-5.0,-3.0,-3.0,-4.0
1702490473.7038367,0.0,32.0,19.0,0.0,3.0,-2.0,1.0,0.0
1702490473.7038367,0.0,-22.0,-39.0,-5.0,-5.0,-2.0,1.0,0.0
1702490473.7138882,0.0,4.0,-3.0,3.0,7.0,3.0,0.0,-1.0
1702490473.7138882,-1.0,3.0,-6.0,-1.0,-1.0,0.0,1.0,1.0
1702490473.723654,1.0,-7.0,11.0,12.0,-3.0,2.0,-1.0,0.0
1702490473.723654,-6.0,12.0,19.0,-9.0,-6.0,-4.0,-3.0,-4.0
1702490473.7536712,1.0,-31.0,-7.0,0.0,6.0,1.0,1.0,0.0
1702490473.7536712,0.0,29.0,8.0,-2.0,0.0,-1.0,-1.0,-3.0
1702490473.7536712,0.0,-9.0,-38.0,-10.0,-5.0,-5.0,-2.0,-1.0
1702490473.7536712,-4.0,-37.0,14.0,0.0,-6.0,-2.0,-1.0,0.0
1702490473.7639422,-3.0,12.0,-10.0,-5.0,-4.0,-3.0,-4.0,-3.0
1702490473.7639422,1.0,9.0,12.0,9.0,-1.0,-2.0,0.0,-1.0
1702490473.7639422,-6.0,-47.0,-39.0,-16.0,-6.0,-8.0,-2.0,-1.0
1702490473.7639422,3.0,-2.0,23.0,-1.0,4.0,3.0,-1.0,-1.0
1702490473.7792065,-4.0,19.0,0.0,3.0,-4.0,-1.0,-2.0,-5.0
1702490473.7792065,-2.0,-9.0,1.0,-3.0,2.0,1.0,-1.0,1.0
1702490473.7861497,1.0,16.0,-1.0,4.0,3.0,-2.0,-1.0,-2.0
1702490473.7861497,1.0,4.0,0.0,-4.0,-2.0,0.0,-1.0,0.0
1702490473.8024352,1.0,27.0,-2.0,-4.0,-5.0,-5.0,-2.0,-1.0
1702490473.8024352,-1.0,-25.0,-12.0,-3.0,-3.0,-4.0,-1.0,-1.0
1702490473.8024352,-3.0,1.0,-1.0,-8.0,0.0,4.0,-2.0,-3.0
1702490473.8024352,-2.0,-22.0,23.0,14.0,4.0,0.0,-2.0,-1.0
1702490473.8227649,2.0,34.0,-46.0,-11.0,-2.0,0.0,-1.0,1.0
1702490473.8227649,-5.0,-29.0,16.0,-2.0,0.0,-3.0,-1.0,-2.0
1702490473.8227649,1.0,3.0,-14.0,-8.0,-4.0,-1.0,0.0,-1.0
1702490473.8227649,1.0,-5.0,8.0,3.0,5.0,3.0,-2.0,2.0
1702490473.8424392,-2.0,-19.0,10.0,10.0,2.0,0.0,0.0,-2.0
1702490473.8424392,-4.0,8.0,-3.0,-5.0,-1.0,-2.0,1.0,0.0
1702490473.8424392,2.0,-5.0,-1.0,6.0,2.0,3.0,1.0,1.0
1702490473.8424392,1.0,27.0,-10.0,-15.0,-10.0,-8.0,-1.0,-3.0
1702490473.8624957,0.0,-10.0,12.0,4.0,-7.0,-3.0,-1.0,0.0
1702490473.8624957,-1.0,2.0,-21.0,-5.0,10.0,3.0,-2.0,-4.0
1702490473.8624957,-3.0,11.0,20.0,11.0,6.0,2.0,-4.0,-1.0
1702490473.8624957,3.0,5.0,-11.0,-7.0,0.0,-3.0,1.0,1.0
1702490473.882671,-2.0,6.0,3.0,-11.0,0.0,1.0,1.0,1.0
1702490473.882671,2.0,8.0,9.0,19.0,-5.0,-3.0,-2.0,1.0
1702490473.882671,-1.0,4.0,-7.0,4.0,4.0,0.0,1.0,0.0
1702490473.882671,-3.0,-3.0,1.0,9.0,10.0,0.0,0.0,0.0
1702490473.9024377,0.0,-1.0,6.0,-13.0,-5.0,4.0,-1.0,0.0
1702490473.9024377,-5.0,-9.0,-9.0,-4.0,-4.0,-4.0,-3.0,-1.0
1702490473.9024377,-1.0,-7.0,9.0,0.0,4.0,1.0,0.0,0.0
1702490473.9024377,-5.0,-37.0,-21.0,-5.0,-4.0,-4.0,-2.0,-2.0
1702490473.9224818,-2.0,-10.0,15.0,5.0,1.0,-2.0,-2.0,0.0
1702490473.9224818,2.0,1.0,-11.0,-9.0,-9.0,-4.0,-1.0,0.0
1702490473.9224818,-4.0,-10.0,2.0,-5.0,-4.0,-7.0,-3.0,-2.0
1702490473.9224818,-1.0,9.0,11.0,-1.0,4.0,5.0,-1.0,-4.0
1702490473.942786,0.0,-42.0,-14.0,2.0,-3.0,-5.0,-3.0,-1.0
1702490473.942786,-1.0,-3.0,-4.0,-3.0,-5.0,0.0,0.0,-1.0
1702490473.942786,0.0,-3.0,15.0,2.0,-1.0,-2.0,-3.0,0.0
1702490473.942786,-5.0,0.0,-11.0,-2.0,-6.0,-4.0,-1.0,-2.0
1702490473.9624503,3.0,4.0,-6.0,2.0,6.0,5.0,-1.0,-1.0
1702490473.9624503,-2.0,12.0,4.0,-7.0,-6.0,-6.0,-5.0,-1.0
1702490473.9624503,0.0,-4.0,-5.0,1.0,-5.0,-3.0,-2.0,-1.0
1702490473.9624503,-2.0,-11.0,14.0,-2.0,4.0,8.0,3.0,1.0
1702490473.9825034,-2.0,1.0,-41.0,-1.0,-4.0,2.0,1.0,-4.0
1702490473.9825034,1.0,7.0,-2.0,-4.0,2.0,1.0,1.0,1.0
1702490473.9825034,0.0,16.0,1.0,-4.0,-8.0,-7.0,-1.0,-1.0
1702490473.9825034,-2.0,5.0,5.0,1.0,-3.0,-4.0,-2.0,-1.0
1702490474.0024507,0.0,-8.0,12.0,6.0,5.0,-1.0,1.0,2.0
1702490474.0124428,-6.0,-30.0,-16.0,-3.0,0.0,1.0,-2.0,-4.0
1702490474.0224442,-4.0,0.0,-7.0,-5.0,-7.0,-4.0,-1.0,0.0
1702490474.0224442,2.0,25.0,-27.0,0.0,1.0,2.0,2.0,1.0
1702490474.0324368,-2.0,-1.0,-12.0,-5.0,0.0,-1.0,-2.0,1.0
1702490474.0324368,2.0,14.0,-20.0,-2.0,1.0,-2.0,1.0,-1.0
1702490474.0324368,-1.0,0.0,8.0,11.0,-2.0,-5.0,-1.0,-1.0
1702490474.0324368,2.0,-2.0,4.0,-16.0,9.0,0.0,0.0,-1.0
1702490474.042451,-3.0,11.0,13.0,21.0,0.0,3.0,2.0,1.0
1702490474.042451,4.0,-2.0,-2.0,-8.0,0.0,-1.0,1.0,2.0
1702490474.042451,-10.0,4.0,3.0,-8.0,-2.0,-3.0,-2.0,-5.0
1702490474.042451,-3.0,36.0,-10.0,-4.0,-8.0,3.0,-4.0,-2.0
1702490474.0824533,-1.0,-42.0,-4.0,-7.0,-10.0,-9.0,-7.0,-4.0
1702490474.0824533,0.0,27.0,13.0,-2.0,-3.0,-2.0,-2.0,0.0
1702490474.0824533,-2.0,8.0,5.0,-9.0,19.0,12.0,3.0,2.0
1702490474.0824533,-1.0,-63.0,-32.0,15.0,-5.0,-5.0,-2.0,0.0
1702490474.0824533,4.0,6.0,14.0,-9.0,-2.0,-2.0,-1.0,-1.0
1702490474.0824533,-9.0,-8.0,-12.0,-5.0,-6.0,-2.0,-2.0,-2.0
1702490474.0824533,4.0,-15.0,-11.0,-4.0,-8.0,-3.0,-2.0,-3.0
1702490474.0824533,1.0,13.0,14.0,1.0,-2.0,-8.0,-1.0,1.0
1702490474.1024454,-7.0,12.0,5.0,11.0,3.0,3.0,3.0,-3.0
1702490474.1024454,3.0,-30.0,18.0,-10.0,1.0,10.0,-1.0,-2.0
1702490474.1024454,2.0,-1.0,17.0,6.0,0.0,1.0,0.0,0.0
1702490474.1024454,-2.0,7.0,15.0,0.0,-3.0,-4.0,1.0,-1.0
1702490474.1324372,0.0,1.0,-6.0,-1.0,-7.0,-1.0,0.0,0.0
1702490474.1324372,3.0,0.0,0.0,3.0,10.0,1.0,-4.0,-2.0
1702490474.1324372,-1.0,53.0,11.0,4.0,3.0,1.0,-3.0,-2.0
1702490474.1324372,1.0,-10.0,7.0,18.0,0.0,-2.0,-3.0,0.0
1702490474.1324372,0.0,1.0,4.0,-32.0,-4.0,-3.0,0.0,0.0
1702490474.1324372,0.0,3.0,-3.0,7.0,1.0,3.0,-1.0,-3.0
1702490474.1427784,-1.0,-11.0,-12.0,-8.0,-7.0,-2.0,-4.0,-1.0
1702490474.1427784,0.0,0.0,-5.0,1.0,5.0,2.0,-2.0,-2.0
1702490474.162488,-6.0,9.0,6.0,7.0,3.0,0.0,-3.0,-3.0
1702490474.162488,3.0,8.0,2.0,6.0,2.0,-2.0,0.0,-1.0
1702490474.162488,1.0,-13.0,-20.0,-5.0,-11.0,-2.0,-2.0,1.0
1702490474.162488,1.0,3.0,4.0,-4.0,-4.0,-1.0,-3.0,0.0
1702490474.182438,-2.0,7.0,4.0,-5.0,-2.0,-5.0,-2.0,-1.0
1702490474.182438,0.0,3.0,19.0,-12.0,-2.0,-1.0,1.0,11.0
1702490474.182438,-6.0,-20.0,-19.0,7.0,0.0,-2.0,-1.0,-8.0
1702490474.182438,0.0,-8.0,7.0,-3.0,-3.0,0.0,0.0,-1.0
1702490474.1926541,1.0,2.0,-9.0,-2.0,-3.0,-9.0,-6.0,-5.0
1702490474.1926541,-2.0,-1.0,2.0,13.0,-1.0,0.0,2.0,-1.0
1702490474.202445,-5.0,-5.0,6.0,-6.0,-3.0,2.0,0.0,3.0
1702490474.202445,12.0,-3.0,-7.0,-17.0,-6.0,2.0,-1.0,-1.0
1702490474.2224965,5.0,11.0,18.0,21.0,4.0,-3.0,-2.0,1.0
1702490474.2224965,-7.0,-14.0,-52.0,-7.0,3.0,-2.0,-2.0,-5.0
1702490474.2224965,5.0,-4.0,13.0,5.0,0.0,-3.0,0.0,0.0
1702490474.2224965,-3.0,-4.0,10.0,-6.0,-4.0,-4.0,-1.0,0.0
1702490474.2524366,-2.0,4.0,2.0,3.0,-1.0,-2.0,-2.0,-8.0
1702490474.2524366,1.0,6.0,5.0,-4.0,-3.0,-3.0,-1.0,-6.0
1702490474.2524366,-1.0,-13.0,3.0,6.0,6.0,10.0,-1.0,0.0
1702490474.2524366,-3.0,-5.0,7.0,-3.0,-5.0,-12.0,2.0,0.0
1702490474.2524366,9.0,13.0,-11.0,-1.0,1.0,10.0,3.0,1.0
1702490474.2524366,-7.0,0.0,16.0,-4.0,-2.0,-5.0,-3.0,-2.0
1702490474.2627676,4.0,8.0,7.0,2.0,-1.0,-2.0,-2.0,-1.0
1702490474.2627676,-2.0,6.0,-3.0,-6.0,-2.0,-3.0,-2.0,-2.0
1702490474.282438,-2.0,-5.0,31.0,8.0,0.0,-4.0,38.0,1.0
1702490474.282438,1.0,-20.0,-2.0,-1.0,1.0,0.0,-22.0,-4.0
1702490474.282438,4.0,12.0,-3.0,-1.0,2.0,-2.0,-2.0,3.0
1702490474.282438,-6.0,-16.0,-18.0,-1.0,-5.0,-3.0,-14.0,-5.0
1702490474.3051124,-5.0,10.0,-7.0,0.0,0.0,-1.0,-3.0,0.0
1702490474.3051124,-5.0,2.0,16.0,-5.0,-4.0,-7.0,8.0,1.0
1702490474.30611,-4.0,-7.0,-57.0,-5.0,-4.0,1.0,3.0,-2.0
1702490474.30611,0.0,-13.0,1.0,-12.0,-8.0,-2.0,-2.0,0.0
1702490474.3190494,0.0,24.0,15.0,6.0,1.0,0.0,-11.0,-1.0
1702490474.3190494,-1.0,27.0,5.0,2.0,1.0,1.0,4.0,-1.0
1702490474.3274436,3.0,-49.0,-21.0,-2.0,4.0,3.0,-5.0,2.0
1702490474.3274436,-3.0,42.0,2.0,5.0,0.0,0.0,7.0,-2.0
1702490474.3355353,-2.0,-25.0,-10.0,-9.0,-4.0,0.0,-8.0,-2.0
1702490474.3355353,1.0,19.0,0.0,1.0,1.0,7.0,3.0,1.0
1702490474.3455768,-1.0,17.0,38.0,2.0,-1.0,-5.0,6.0,-4.0
1702490474.3455768,-5.0,-12.0,-20.0,3.0,6.0,3.0,-1.0,0.0
1702490474.365535,2.0,3.0,9.0,-1.0,-1.0,-2.0,-7.0,2.0
1702490474.365535,0.0,-17.0,-24.0,6.0,0.0,-1.0,-2.0,-2.0
1702490474.365535,-2.0,5.0,20.0,-6.0,-11.0,-8.0,-2.0,0.0
1702490474.365535,-4.0,-13.0,-10.0,7.0,1.0,1.0,0.0,0.0
1702490474.375736,0.0,-3.0,-10.0,-13.0,2.0,3.0,-9.0,-2.0
1702490474.375736,5.0,-12.0,-8.0,-2.0,-3.0,2.0,-2.0,-3.0
1702490474.3859859,-6.0,-2.0,-7.0,5.0,10.0,-2.0,0.0,1.0
1702490474.3859859,0.0,7.0,-6.0,-1.0,0.0,-1.0,-2.0,-1.0
1702490474.402908,-2.0,-7.0,-10.0,-4.0,-4.0,-2.0,-1.0,0.0
1702490474.402908,2.0,-1.0,23.0,0.0,-5.0,-4.0,-2.0,0.0
1702490474.402908,-2.0,2.0,-11.0,-3.0,-2.0,3.0,1.0,-1.0
1702490474.402908,-1.0,8.0,2.0,-9.0,2.0,2.0,-3.0,-3.0
1702490474.4232173,-2.0,17.0,4.0,12.0,6.0,0.0,-3.0,-1.0
1702490474.4232173,-6.0,-17.0,-6.0,2.0,0.0,-4.0,1.0,-2.0
1702490474.4232173,-2.0,0.0,-2.0,1.0,-1.0,1.0,-2.0,-2.0
1702490474.4232173,3.0,24.0,18.0,-6.0,-6.0,1.0,2.0,-1.0
1702490474.442918,-3.0,-11.0,-21.0,6.0,0.0,-5.0,0.0,1.0
1702490474.442918,-1.0,15.0,19.0,-15.0,-1.0,2.0,1.0,-2.0
1702490474.442918,-2.0,-2.0,12.0,-7.0,-8.0,-6.0,-4.0,-4.0
1702490474.442918,-4.0,9.0,9.0,10.0,5.0,3.0,1.0,-2.0
1702490474.4629195,1.0,-11.0,-2.0,-11.0,-9.0,-2.0,-3.0,-2.0
1702490474.4629195,-2.0,16.0,-4.0,2.0,-1.0,-1.0,0.0,0.0
1702490474.4629195,-3.0,8.0,-11.0,-6.0,3.0,2.0,-3.0,-2.0
1702490474.4629195,3.0,-33.0,37.0,5.0,-3.0,-4.0,-2.0,-2.0
1702490474.4831874,-3.0,-8.0,-51.0,-6.0,-2.0,-1.0,-2.0,0.0
1702490474.4831874,0.0,0.0,-9.0,4.0,-5.0,-3.0,0.0,-1.0
1702490474.4831874,-1.0,10.0,16.0,7.0,0.0,0.0,-1.0,-2.0
1702490474.4831874,-2.0,-4.0,-16.0,-14.0,0.0,-6.0,0.0,-1.0
1702490474.4932363,-4.0,-6.0,11.0,-2.0,-4.0,-2.0,-1.0,-4.0
1702490474.4932363,-3.0,2.0,13.0,3.0,12.0,4.0,0.0,-1.0
1702490474.502918,-1.0,-9.0,-20.0,5.0,-2.0,3.0,1.0,0.0
1702490474.502918,-3.0,0.0,3.0,8.0,5.0,2.0,1.0,0.0
1702490474.5129168,0.0,-3.0,15.0,3.0,-7.0,-5.0,-4.0,-2.0
1702490474.5129168,-1.0,-15.0,-38.0,-9.0,-4.0,-3.0,-1.0,-2.0
1702490474.5229197,0.0,-9.0,16.0,-7.0,-4.0,-2.0,0.0,0.0
1702490474.5229197,-1.0,10.0,-1.0,5.0,-3.0,-2.0,-1.0,0.0
1702490474.5432336,-2.0,2.0,5.0,-4.0,-6.0,0.0,-1.0,-1.0
1702490474.5432336,-3.0,-13.0,0.0,-8.0,-7.0,-4.0,-4.0,-4.0
1702490474.5432336,-1.0,2.0,-2.0,4.0,2.0,1.0,0.0,-1.0
1702490474.5432336,6.0,-3.0,-20.0,-12.0,-2.0,-2.0,-3.0,0.0
1702490474.5629313,-6.0,1.0,28.0,5.0,3.0,0.0,-1.0,2.0
1702490474.5629313,-1.0,-6.0,-13.0,2.0,2.0,0.0,0.0,0.0
1702490474.5729206,-2.0,-11.0,-21.0,-9.0,-5.0,-3.0,-4.0,-3.0
1702490474.5729206,-2.0,-3.0,-1.0,6.0,6.0,3.0,1.0,-2.0
1702490474.5929193,4.0,-3.0,2.0,-2.0,0.0,-1.0,0.0,1.0
1702490474.5929193,-1.0,0.0,-6.0,-2.0,-5.0,-2.0,2.0,2.0
1702490474.5929193,1.0,6.0,-2.0,-8.0,-4.0,-2.0,-1.0,1.0
1702490474.5929193,-3.0,-7.0,33.0,6.0,-3.0,-2.0,-1.0,-3.0
1702490474.602918,1.0,4.0,-9.0,6.0,1.0,0.0,-2.0,-1.0
1702490474.602918,0.0,5.0,14.0,-1.0,-2.0,2.0,0.0,-1.0
1702490474.602918,5.0,1.0,25.0,13.0,8.0,-2.0,-2.0,1.0
1702490474.602918,-6.0,-52.0,-50.0,-9.0,-5.0,-3.0,-2.0,-2.0
1702490474.6229284,-5.0,4.0,14.0,-18.0,-5.0,2.0,0.0,-3.0
1702490474.6229284,1.0,14.0,3.0,5.0,2.0,-1.0,1.0,1.0
1702490474.6229284,1.0,-52.0,0.0,21.0,-1.0,0.0,-2.0,0.0
1702490474.6229284,-3.0,5.0,11.0,-5.0,4.0,0.0,-3.0,1.0
1702490474.6329181,-3.0,21.0,-9.0,-6.0,-1.0,-5.0,-3.0,-4.0
1702490474.6329181,5.0,16.0,9.0,-4.0,-1.0,1.0,0.0,1.0
1702490474.6429152,-4.0,-11.0,-41.0,-20.0,-5.0,-5.0,-2.0,-1.0
1702490474.6429152,-6.0,5.0,-3.0,2.0,0.0,0.0,-1.0,-3.0
1702490474.6633716,-5.0,-13.0,0.0,-5.0,-1.0,-2.0,-3.0,-3.0
1702490474.6633716,0.0,-2.0,19.0,3.0,-1.0,-2.0,-2.0,-2.0
1702490474.6633716,1.0,10.0,1.0,-1.0,-2.0,1.0,-2.0,0.0
1702490474.6633716,1.0,18.0,1.0,2.0,-5.0,-2.0,0.0,1.0
1702490474.6829166,-2.0,6.0,2.0,-3.0,1.0,1.0,-2.0,0.0
1702490474.6829166,-3.0,3.0,-6.0,3.0,0.0,-1.0,-3.0,-1.0
1702490474.6829166,-8.0,-19.0,-47.0,-5.0,-2.0,0.0,-1.0,-2.0
1702490474.6829166,3.0,3.0,-10.0,-3.0,-7.0,0.0,1.0,0.0
1702490474.6932898,1.0,16.0,18.0,2.0,1.0,-2.0,0.0,-2.0
1702490474.6932898,5.0,19.0,-15.0,11.0,6.0,3.0,-3.0,-1.0
1702490474.7027986,-9.0,17.0,16.0,-26.0,-3.0,-1.0,-1.0,-5.0
1702490474.7027986,-1.0,-8.0,11.0,8.0,4.0,1.0,1.0,0.0
1702490474.7232,0.0,-5.0,-67.0,-5.0,-2.0,1.0,1.0,2.0
1702490474.7232,1.0,-2.0,26.0,4.0,-4.0,-5.0,-1.0,0.0
1702490474.7232,1.0,18.0,23.0,6.0,-1.0,-1.0,-1.0,-1.0
1702490474.7232,-1.0,4.0,18.0,-2.0,0.0,-2.0,-4.0,-2.0
1702490474.7428067,1.0,-5.0,8.0,3.0,4.0,1.0,-1.0,-3.0
1702490474.7428067,-8.0,-31.0,-28.0,-6.0,-3.0,-2.0,-1.0,-2.0
1702490474.7428067,3.0,9.0,28.0,-4.0,-2.0,-2.0,1.0,1.0
1702490474.7428067,-3.0,21.0,-11.0,12.0,4.0,0.0,-1.0,-3.0
1702490474.7530391,-3.0,-35.0,-1.0,2.0,-5.0,-1.0,-1.0,3.0
1702490474.7628145,5.0,12.0,-4.0,-1.0,-2.0,-2.0,-2.0,0.0
1702490474.7628145,-3.0,0.0,7.0,-3.0,-5.0,-4.0,-3.0,-2.0
1702490474.7628145,1.0,32.0,-4.0,-11.0,-1.0,-3.0,-1.0,2.0
1702490474.7831485,1.0,-10.0,-2.0,6.0,7.0,1.0,1.0,0.0
1702490474.7831485,-10.0,-36.0,-7.0,-13.0,-4.0,5.0,-1.0,-7.0
1702490474.7831485,3.0,10.0,2.0,9.0,4.0,3.0,1.0,0.0
1702490474.7831485,-2.0,-23.0,-7.0,-2.0,-6.0,-3.0,-4.0,-1.0
1702490474.8228066,1.0,-1.0,14.0,-7.0,-8.0,-2.0,-2.0,0.0
1702490474.8228066,-3.0,-20.0,-12.0,3.0,0.0,-3.0,-1.0,-2.0
1702490474.8228066,1.0,5.0,9.0,11.0,3.0,0.0,-1.0,-2.0
1702490474.8228066,1.0,-11.0,-2.0,-4.0,-5.0,-4.0,-1.0,1.0
1702490474.8228066,-1.0,-3.0,-15.0,-5.0,0.0,-3.0,-2.0,-1.0
1702490474.8228066,-3.0,-8.0,25.0,8.0,4.0,2.0,0.0,-1.0
1702490474.8228066,-2.0,-1.0,-8.0,-1.0,-1.0,-3.0,-2.0,-1.0
1702490474.8228066,2.0,16.0,-5.0,-1.0,3.0,-1.0,0.0,-2.0
1702490474.8447921,0.0,-8.0,8.0,-3.0,-6.0,-4.0,-3.0,-2.0
1702490474.8447921,6.0,25.0,-13.0,-7.0,-5.0,-2.0,-4.0,0.0
1702490474.8447921,-3.0,14.0,26.0,5.0,0.0,1.0,0.0,-2.0
1702490474.8447921,0.0,25.0,32.0,-3.0,-1.0,-2.0,-1.0,-2.0
1702490474.8671107,2.0,-8.0,-7.0,0.0,-4.0,-1.0,-3.0,0.0
1702490474.8671107,-1.0,-14.0,-9.0,-9.0,5.0,-1.0,1.0,2.0
1702490474.8686142,-2.0,-4.0,4.0,7.0,2.0,-1.0,-2.0,-2.0
1702490474.8686142,-4.0,-11.0,-15.0,3.0,-4.0,1.0,-1.0,-4.0
1702490474.8820055,-2.0,3.0,5.0,-5.0,0.0,-2.0,0.0,-2.0
1702490474.8823314,1.0,5.0,2.0,-3.0,-3.0,-2.0,-1.0,0.0
1702490474.8823314,0.0,-1.0,-12.0,-4.0,0.0,-1.0,-1.0,1.0
1702490474.8823314,-4.0,-18.0,-1.0,-6.0,-6.0,-3.0,-3.0,-2.0
1702490474.902331,0.0,6.0,-17.0,-3.0,-1.0,2.0,-3.0,0.0
1702490474.902331,-3.0,9.0,2.0,2.0,-9.0,-1.0,-1.0,-2.0
1702490474.902331,0.0,2.0,3.0,-7.0,2.0,1.0,-1.0,0.0
1702490474.902331,-2.0,-4.0,2.0,-11.0,-2.0,-1.0,-3.0,0.0
1702490474.9226532,-7.0,-3.0,-38.0,-9.0,-3.0,-6.0,0.0,-4.0
1702490474.9226532,-2.0,-3.0,-34.0,-7.0,0.0,-1.0,0.0,1.0
1702490474.9226532,1.0,9.0,43.0,7.0,-6.0,0.0,-2.0,-2.0
1702490474.9226532,-4.0,-17.0,-32.0,1.0,5.0,-1.0,0.0,-1.0
1702490474.9326894,0.0,-9.0,0.0,-5.0,-2.0,-5.0,1.0,1.0
1702490474.9423318,-4.0,-4.0,10.0,9.0,9.0,3.0,0.0,-3.0
1702490474.9423318,0.0,2.0,-4.0,-4.0,-4.0,-1.0,0.0,1.0
1702490474.9423318,0.0,3.0,-13.0,-6.0,-4.0,-3.0,0.0,-1.0
1702490474.9723284,0.0,-5.0,10.0,8.0,1.0,1.0,0.0,-2.0
1702490474.9723284,-3.0,-1.0,-12.0,-2.0,-3.0,-2.0,-3.0,-3.0
1702490474.9723284,1.0,-7.0,-18.0,-17.0,-1.0,-2.0,-3.0,1.0
1702490474.9723284,0.0,-2.0,26.0,23.0,-2.0,-4.0,-1.0,-1.0
1702490474.9827118,0.0,14.0,8.0,-22.0,1.0,2.0,1.0,-2.0
1702490474.9827118,-1.0,1.0,7.0,-1.0,-5.0,-3.0,-1.0,0.0
1702490474.9827118,-1.0,-15.0,-36.0,-2.0,1.0,0.0,-2.0,-3.0
1702490474.9827118,4.0,-5.0,4.0,3.0,0.0,-4.0,-1.0,15.0
1702490474.9925878,-5.0,9.0,47.0,15.0,-2.0,0.0,-1.0,-14.0
1702490474.9925878,-2.0,-10.0,-36.0,0.0,2.0,2.0,0.0,-4.0
1702490475.0023296,-5.0,0.0,20.0,-12.0,-6.0,-2.0,-1.0,-2.0
1702490475.0023296,10.0,0.0,-8.0,-3.0,2.0,1.0,0.0,3.0
1702490475.022332,4.0,1.0,-3.0,6.0,6.0,-1.0,-3.0,-1.0
1702490475.022332,-2.0,-1.0,43.0,0.0,-5.0,-5.0,-3.0,1.0
1702490475.022332,-2.0,-6.0,9.0,13.0,2.0,0.0,1.0,-2.0
1702490475.022332,-5.0,22.0,-16.0,-8.0,-1.0,1.0,1.0,-4.0
1702490475.0426428,1.0,-22.0,-11.0,2.0,0.0,-4.0,3.0,6.0
1702490475.0426428,0.0,2.0,8.0,2.0,4.0,22.0,-2.0,0.0
1702490475.0426428,-4.0,-21.0,-19.0,-10.0,-5.0,-13.0,5.0,11.0
1702490475.0426428,0.0,9.0,15.0,-4.0,-3.0,0.0,-3.0,-14.0
1702490475.052554,-9.0,11.0,-3.0,0.0,-3.0,-1.0,-5.0,-8.0
1702490475.052554,-1.0,-11.0,-3.0,-3.0,-5.0,-7.0,-3.0,2.0
1702490475.0923288,2.0,-8.0,4.0,7.0,6.0,1.0,-1.0,-3.0
1702490475.0923288,-4.0,7.0,23.0,-1.0,-1.0,1.0,0.0,1.0
1702490475.0923288,0.0,-71.0,-31.0,-3.0,-3.0,0.0,2.0,4.0
1702490475.0923288,3.0,38.0,9.0,-3.0,-3.0,-4.0,-1.0,-2.0
1702490475.0923288,-2.0,36.0,4.0,-5.0,-11.0,-1.0,-6.0,-4.0
1702490475.0923288,-2.0,-10.0,-19.0,-2.0,1.0,-6.0,1.0,-5.0
1702490475.1026454,-1.0,-41.0,35.0,8.0,6.0,9.0,-1.0,-3.0
1702490475.1026454,0.0,6.0,21.0,-3.0,-3.0,-7.0,1.0,1.0
1702490475.1026454,-1.0,-19.0,-62.0,-5.0,11.0,3.0,1.0,-2.0
1702490475.1026454,-3.0,-4.0,-7.0,-8.0,-7.0,-2.0,0.0,-1.0
1702490475.1126845,2.0,18.0,31.0,-4.0,-1.0,-2.0,1.0,3.0
1702490475.1126845,0.0,1.0,2.0,-7.0,-9.0,-5.0,-2.0,-2.0
1702490475.142329,0.0,0.0,-6.0,-13.0,-2.0,-3.0,-2.0,-3.0
1702490475.142329,2.0,-15.0,12.0,50.0,12.0,4.0,-1.0,1.0
1702490475.142329,0.0,29.0,6.0,-22.0,-7.0,-2.0,0.0,0.0
1702490475.142329,-4.0,-8.0,-9.0,1.0,0.0,-2.0,0.0,0.0
1702490475.142329,2.0,10.0,14.0,10.0,-1.0,0.0,2.0,1.0
1702490475.142329,-6.0,-4.0,-15.0,-32.0,-1.0,1.0,-3.0,-3.0
1702490475.1626744,-1.0,16.0,-5.0,13.0,-1.0,-5.0,-2.0,1.0
1702490475.1626744,0.0,-10.0,-1.0,-2.0,-1.0,-1.0,-1.0,-3.0
1702490475.1626744,-1.0,0.0,7.0,7.0,-4.0,-3.0,-3.0,-2.0
1702490475.1626744,-2.0,-34.0,-2.0,6.0,3.0,4.0,-1.0,0.0
1702490475.1725907,-2.0,11.0,-17.0,0.0,-1.0,-3.0,-1.0,1.0
1702490475.1725907,-3.0,-13.0,-12.0,-7.0,3.0,-1.0,0.0,-1.0
1702490475.2123287,-2.0,-35.0,-5.0,9.0,-5.0,-2.0,-3.0,-3.0
1702490475.2123287,1.0,1.0,4.0,-9.0,-7.0,-5.0,-1.0,-1.0
1702490475.2123287,-2.0,8.0,-7.0,-1.0,7.0,2.0,-1.0,-3.0
1702490475.2123287,-2.0,2.0,-6.0,10.0,3.0,3.0,1.0,0.0
1702490475.2123287,-2.0,2.0,16.0,5.0,6.0,4.0,1.0,0.0
1702490475.2123287,-1.0,8.0,7.0,-12.0,-13.0,-2.0,-2.0,-1.0
1702490475.2226841,-1.0,0.0,-12.0,10.0,6.0,0.0,-2.0,0.0
1702490475.2226841,0.0,-1.0,-9.0,0.0,2.0,0.0,0.0,1.0
1702490475.2226841,2.0,12.0,-19.0,-5.0,-4.0,-2.0,-2.0,-2.0
1702490475.2226841,-5.0,-20.0,2.0,-9.0,-3.0,-3.0,-3.0,-3.0
1702490475.2326844,0.0,18.0,24.0,7.0,2.0,2.0,-4.0,-2.0
1702490475.2326844,-1.0,8.0,-22.0,0.0,-3.0,-6.0,-2.0,-1.0
1702490475.2523303,-2.0,0.0,16.0,-4.0,-1.0,-1.0,-2.0,-1.0
1702490475.2523303,-1.0,-23.0,-34.0,-9.0,-1.0,0.0,2.0,0.0
1702490475.2625887,3.0,4.0,-13.0,1.0,-3.0,-2.0,1.0,0.0
1702490475.2625887,-1.0,28.0,19.0,0.0,1.0,-2.0,-1.0,0.0
1702490475.2625887,-2.0,-11.0,-3.0,-5.0,-4.0,6.0,-1.0,-3.0
1702490475.2625887,2.0,13.0,-17.0,2.0,1.0,0.0,-1.0,2.0
1702490475.2826886,-1.0,-5.0,15.0,-11.0,-6.0,-2.0,0.0,-1.0
1702490475.2826886,-1.0,-26.0,1.0,-1.0,-1.0,-4.0,-2.0,-1.0
1702490475.2826886,0.0,1.0,-3.0,0.0,-1.0,0.0,1.0,-1.0
1702490475.2826886,-1.0,8.0,14.0,6.0,5.0,1.0,0.0,-1.0
1702490475.3123293,0.0,4.0,-2.0,0.0,-2.0,0.0,-1.0,0.0
1702490475.3123293,-2.0,0.0,2.0,-5.0,-3.0,-5.0,-2.0,-2.0
1702490475.3123293,1.0,8.0,10.0,0.0,-3.0,-3.0,-1.0,1.0
1702490475.3123293,1.0,1.0,21.0,-4.0,-3.0,-2.0,-1.0,-1.0
1702490475.3223639,-9.0,-8.0,-40.0,-4.0,2.0,-2.0,-3.0,-1.0
1702490475.3223639,3.0,-13.0,19.0,9.0,7.0,5.0,3.0,2.0
1702490475.3223639,-1.0,8.0,-1.0,4.0,-3.0,-6.0,-4.0,-2.0
1702490475.3223639,-4.0,-3.0,-22.0,-6.0,-4.0,-2.0,-1.0,-1.0
1702490475.3426673,2.0,8.0,-3.0,-6.0,-9.0,-5.0,-2.0,0.0
1702490475.3426673,-3.0,-42.0,4.0,-3.0,-4.0,-1.0,-3.0,-3.0
1702490475.3426673,3.0,34.0,-24.0,-4.0,5.0,-2.0,0.0,-1.0
1702490475.3426673,0.0,4.0,33.0,5.0,0.0,-2.0,-2.0,0.0
1702490475.3772876,-1.0,-1.0,7.0,3.0,0.0,0.0,-2.0,-3.0
1702490475.3772876,-4.0,-25.0,3.0,9.0,1.0,0.0,0.0,-1.0
1702490475.3772876,1.0,3.0,-38.0,0.0,-1.0,-1.0,0.0,2.0
1702490475.3772876,-4.0,7.0,-23.0,-8.0,-1.0,0.0,-2.0,-4.0
1702490475.384637,2.0,3.0,-10.0,-4.0,-3.0,0.0,1.0,-1.0
1702490475.384637,2.0,5.0,7.0,6.0,3.0,-3.0,-3.0,-3.0
1702490475.384637,-4.0,-30.0,4.0,-7.0,-5.0,-8.0,-2.0,-1.0
1702490475.384637,-1.0,-12.0,5.0,3.0,4.0,5.0,1.0,0.0
1702490475.4047616,-2.0,18.0,-17.0,-7.0,-2.0,-6.0,-3.0,-1.0
1702490475.4047616,-3.0,27.0,-3.0,-7.0,-5.0,-2.0,-1.0,0.0
1702490475.4246323,-1.0,-12.0,17.0,0.0,3.0,-1.0,0.0,1.0
1702490475.4246323,-1.0,2.0,-10.0,0.0,-2.0,-1.0,-1.0,-3.0
1702490475.4246323,-1.0,-4.0,24.0,5.0,-2.0,-2.0,-1.0,-1.0
1702490475.4246323,1.0,5.0,4.0,-2.0,6.0,1.0,0.0,-2.0
1702490475.4246323,-2.0,-42.0,-27.0,-1.0,-1.0,2.0,-4.0,-3.0
1702490475.4246323,3.0,43.0,30.0,-1.0,-2.0,1.0,-1.0,-3.0
1702490475.4431977,-1.0,-8.0,14.0,7.0,-3.0,1.0,-1.0,-2.0
1702490475.4431977,0.0,-8.0,11.0,-7.0,3.0,-1.0,-1.0,-1.0
1702490475.4431977,-1.0,6.0,9.0,1.0,-3.0,-1.0,-1.0,-1.0
1702490475.4431977,1.0,-21.0,-42.0,-9.0,-4.0,-9.0,-4.0,1.0
1702490475.4628978,-16.0,1.0,27.0,3.0,4.0,6.0,0.0,-4.0
1702490475.4628978,3.0,30.0,-15.0,-2.0,-1.0,1.0,-2.0,0.0
1702490475.472845,-10.0,34.0,14.0,-3.0,-3.0,-4.0,-2.0,-4.0
1702490475.472845,5.0,-11.0,7.0,3.0,0.0,0.0,2.0,1.0
1702490475.4828758,3.0,2.0,-27.0,-8.0,-6.0,-4.0,-1.0,1.0
1702490475.4828758,-1.0,25.0,-22.0,-3.0,1.0,-3.0,-4.0,-1.0
1702490475.4828758,-7.0,-32.0,12.0,1.0,3.0,1.0,-3.0,-3.0
1702490475.4828758,0.0,6.0,13.0,2.0,0.0,-4.0,-3.0,-2.0
1702490475.5032022,2.0,-6.0,14.0,5.0,2.0,1.0,1.0,-2.0
1702490475.5032022,1.0,-14.0,-35.0,-9.0,-4.0,0.0,-2.0,0.0
1702490475.5032022,1.0,-13.0,-2.0,2.0,-6.0,-6.0,0.0,-1.0
1702490475.5032022,-6.0,1.0,-1.0,-8.0,0.0,0.0,-3.0,-3.0
1702490475.5228424,4.0,-17.0,-3.0,-4.0,-5.0,-1.0,0.0,0.0
1702490475.5228424,-4.0,-3.0,-2.0,2.0,0.0,-2.0,1.0,-1.0
1702490475.5228424,1.0,33.0,6.0,-19.0,-1.0,0.0,0.0,0.0
1702490475.5228424,-2.0,-8.0,2.0,12.0,-1.0,3.0,-1.0,-2.0
1702490475.5531971,-5.0,-38.0,-24.0,1.0,-4.0,-6.0,-2.0,-2.0
1702490475.5531971,-3.0,-15.0,-13.0,2.0,4.0,2.0,1.0,0.0
1702490475.5531971,0.0,11.0,0.0,-3.0,-11.0,-3.0,-1.0,1.0
1702490475.5531971,3.0,4.0,8.0,7.0,17.0,4.0,0.0,1.0
1702490475.5632093,0.0,-12.0,-21.0,-11.0,-6.0,-1.0,-2.0,-2.0
1702490475.5632093,0.0,-3.0,24.0,1.0,-6.0,-3.0,0.0,-3.0
1702490475.5632093,2.0,-23.0,-17.0,3.0,6.0,3.0,1.0,1.0
1702490475.5632093,-1.0,-1.0,-3.0,-9.0,-8.0,-1.0,-2.0,0.0
1702490475.5828424,2.0,9.0,8.0,6.0,1.0,-4.0,-1.0,0.0
1702490475.5828424,-2.0,-7.0,-9.0,-2.0,-1.0,-2.0,-2.0,-1.0
1702490475.5828424,-1.0,11.0,12.0,-2.0,1.0,1.0,-2.0,-3.0
1702490475.5828424,-1.0,-4.0,-9.0,-3.0,-6.0,-5.0,1.0,-4.0
1702490475.603004,-1.0,19.0,0.0,-1.0,10.0,4.0,3.0,2.0
1702490475.603004,-7.0,-18.0,3.0,14.0,-2.0,-2.0,-4.0,-3.0
1702490475.603004,2.0,13.0,0.0,1.0,0.0,2.0,23.0,2.0
1702490475.603004,-4.0,16.0,-11.0,-6.0,-9.0,-10.0,-29.0,-4.0
1702490475.623171,3.0,1.0,23.0,-1.0,5.0,9.0,18.0,6.0
1702490475.623171,-3.0,-3.0,-39.0,-8.0,-2.0,-2.0,3.0,0.0
1702490475.623171,-1.0,-21.0,-8.0,-3.0,-4.0,-1.0,-3.0,-3.0
1702490475.623171,-2.0,10.0,4.0,8.0,3.0,-3.0,-4.0,-2.0
1702490475.6428418,0.0,19.0,-20.0,-10.0,-10.0,-4.0,-3.0,1.0
1702490475.6428418,2.0,0.0,27.0,0.0,0.0,-3.0,-3.0,-2.0
1702490475.6428418,1.0,-7.0,10.0,9.0,6.0,5.0,-11.0,-3.0
1702490475.6428418,-4.0,6.0,3.0,-7.0,-2.0,0.0,7.0,-1.0
1702490475.6632943,0.0,-2.0,-10.0,-3.0,-3.0,-4.0,-8.0,-3.0
1702490475.6632943,0.0,10.0,19.0,2.0,-3.0,0.0,5.0,0.0
1702490475.6632943,-3.0,7.0,23.0,-1.0,0.0,-6.0,-8.0,-1.0
1702490475.6632943,-1.0,-7.0,-31.0,-6.0,2.0,4.0,4.0,0.0
1702490475.6833026,-1.0,-5.0,7.0,7.0,1.0,0.0,0.0,-3.0
1702490475.6833026,-4.0,6.0,4.0,-4.0,-4.0,-3.0,-7.0,-3.0
1702490475.6928446,0.0,0.0,-6.0,-3.0,-1.0,1.0,0.0,-1.0
1702490475.6928446,1.0,6.0,20.0,1.0,0.0,1.0,4.0,-1.0
1702490475.7028441,-6.0,-20.0,4.0,-4.0,-1.0,-5.0,-3.0,-3.0
1702490475.7028441,-1.0,-3.0,1.0,0.0,0.0,8.0,0.0,-2.0
1702490475.7028441,-1.0,-2.0,-6.0,-14.0,-6.0,-2.0,-6.0,-1.0
1702490475.7028441,-2.0,-3.0,-3.0,8.0,1.0,-1.0,3.0,-1.0
1702490475.7232368,2.0,-1.0,-6.0,3.0,1.0,-4.0,-2.0,-1.0
1702490475.7232368,-1.0,8.0,6.0,-1.0,-2.0,1.0,0.0,0.0
1702490475.7232368,-1.0,1.0,-10.0,-3.0,-1.0,-2.0,0.0,0.0
1702490475.7232368,-2.0,-23.0,-53.0,-6.0,-3.0,-1.0,-2.0,-3.0
1702490475.742894,1.0,2.0,-9.0,-1.0,-1.0,-2.0,-2.0,-2.0
1702490475.742894,2.0,4.0,3.0,0.0,0.0,-1.0,-2.0,-1.0
1702490475.752842,-1.0,-10.0,4.0,6.0,0.0,-1.0,-2.0,-1.0
1702490475.752842,-1.0,33.0,43.0,1.0,-4.0,-2.0,-1.0,-1.0
1702490475.762892,-1.0,13.0,-18.0,0.0,-3.0,-2.0,-4.0,-3.0
1702490475.762892,0.0,-8.0,-20.0,-5.0,1.0,-1.0,0.0,-2.0
1702490475.762892,-1.0,14.0,15.0,2.0,1.0,-4.0,0.0,0.0
1702490475.762892,1.0,-15.0,-1.0,-3.0,-1.0,5.0,2.0,1.0
1702490475.7832935,-2.0,0.0,22.0,2.0,2.0,2.0,-4.0,-1.0
1702490475.7832935,0.0,19.0,-9.0,-9.0,-4.0,-2.0,0.0,0.0
1702490475.7832935,-7.0,-33.0,-14.0,0.0,-4.0,-4.0,-3.0,-1.0
1702490475.7832935,-4.0,-6.0,-21.0,-5.0,-6.0,-5.0,-1.0,-1.0
1702490475.8028445,1.0,-13.0,8.0,1.0,1.0,1.0,2.0,0.0
1702490475.8028445,-1.0,-6.0,-7.0,-3.0,-2.0,-2.0,-2.0,-1.0
1702490475.8028445,0.0,8.0,1.0,1.0,-1.0,2.0,0.0,0.0
1702490475.8028445,-3.0,-5.0,-5.0,-2.0,1.0,0.0,2.0,-3.0
1702490475.8231223,0.0,-7.0,2.0,-1.0,0.0,-2.0,-4.0,0.0
1702490475.8231223,0.0,-10.0,6.0,3.0,3.0,6.0,0.0,-1.0
1702490475.8231223,-5.0,-1.0,-19.0,-2.0,0.0,-1.0,-2.0,-1.0
1702490475.8231223,-2.0,-10.0,23.0,-7.0,-2.0,-4.0,-1.0,0.0
1702490475.8431811,-2.0,6.0,-8.0,3.0,0.0,-2.0,0.0,-1.0
1702490475.8431811,-1.0,15.0,11.0,-1.0,-7.0,-7.0,-2.0,-2.0
1702490475.8431811,1.0,-23.0,-13.0,-1.0,-1.0,0.0,0.0,0.0
1702490475.8431811,2.0,3.0,6.0,5.0,-2.0,0.0,3.0,2.0
1702490475.8933268,2.0,11.0,31.0,4.0,2.0,2.0,-2.0,1.0
1702490475.8933268,-8.0,-18.0,-81.0,-14.0,-2.0,-4.0,-2.0,-3.0
1702490475.8933268,2.0,0.0,30.0,7.0,-4.0,-4.0,-1.0,-1.0
1702490475.8933268,1.0,-10.0,-17.0,-5.0,8.0,1.0,2.0,0.0
1702490475.8933268,1.0,3.0,4.0,-14.0,-4.0,-6.0,-3.0,-1.0
1702490475.8933268,1.0,4.0,48.0,20.0,-4.0,-3.0,-1.0,1.0
1702490475.8933268,0.0,7.0,-31.0,-4.0,-5.0,-3.0,-1.0,-1.0
1702490475.8933268,-3.0,-24.0,7.0,0.0,9.0,3.0,-2.0,-1.0
1702490475.915753,0.0,13.0,-2.0,26.0,2.0,2.0,-1.0,0.0
1702490475.915753,-4.0,-6.0,-4.0,-17.0,-5.0,-2.0,-2.0,-3.0
1702490475.915753,0.0,11.0,34.0,6.0,2.0,-2.0,2.0,0.0
1702490475.915753,0.0,1.0,21.0,-5.0,-9.0,-4.0,-2.0,-3.0
1702490475.9180446,-3.0,-17.0,-3.0,-15.0,-3.0,1.0,-1.0,-1.0
1702490475.9180446,2.0,16.0,-7.0,0.0,-1.0,1.0,-3.0,1.0
1702490475.9284203,0.0,-1.0,-21.0,-2.0,0.0,2.0,0.0,0.0
1702490475.9284203,-3.0,-5.0,-16.0,-5.0,-4.0,-1.0,1.0,0.0
1702490475.9383721,-1.0,3.0,0.0,-1.0,1.0,0.0,-1.0,-2.0
1702490475.9383721,0.0,-5.0,16.0,6.0,0.0,-2.0,-2.0,0.0
1702490475.9480548,-2.0,2.0,-4.0,-5.0,-2.0,-1.0,-3.0,-2.0
1702490475.9480548,0.0,4.0,-25.0,-3.0,-3.0,0.0,-1.0,0.0
1702490475.9680464,-3.0,-4.0,-13.0,5.0,-2.0,-2.0,-1.0,-1.0
1702490475.9680464,1.0,-2.0,10.0,-13.0,0.0,-4.0,-1.0,0.0
1702490475.9680464,-2.0,-6.0,-9.0,0.0,2.0,2.0,-1.0,-1.0
1702490475.9680464,-1.0,-1.0,8.0,4.0,-1.0,-2.0,-3.0,-2.0
1702490475.978079,-1.0,6.0,-3.0,-1.0,-2.0,0.0,-2.0,-1.0
1702490475.978079,1.0,-10.0,2.0,2.0,2.0,1.0,1.0,4.0
1702490475.9884858,-7.0,2.0,2.0,-5.0,-1.0,-5.0,-8.0,-8.0
1702490475.9884858,0.0,11.0,-1.0,1.0,-6.0,1.0,10.0,0.0
1702490475.9988499,3.0,-10.0,14.0,-3.0,-2.0,-1.0,-6.0,6.0
1702490475.9988499,-5.0,21.0,-7.0,-3.0,-3.0,-3.0,4.0,0.0
1702490476.0084982,11.0,-3.0,8.0,1.0,2.0,2.0,2.0,-3.0
1702490476.0084982,-14.0,-1.0,-15.0,0.0,-3.0,-2.0,-7.0,-6.0
1702490476.0284967,-1.0,-24.0,-16.0,-6.0,-1.0,0.0,-1.0,-6.0
1702490476.0284967,2.0,8.0,1.0,-4.0,1.0,4.0,-5.0,-1.0
1702490476.0284967,-4.0,47.0,15.0,7.0,-3.0,-4.0,-6.0,-1.0
1702490476.0284967,-1.0,-37.0,7.0,1.0,-3.0,-4.0,-2.0,3.0
1702490476.0385303,1.0,-7.0,-9.0,-9.0,-6.0,-1.0,2.0,0.0
1702490476.0385303,-5.0,-30.0,2.0,-13.0,-7.0,-8.0,-6.0,-5.0
1702490476.0483863,-3.0,-50.0,-32.0,-5.0,-4.0,-6.0,3.0,2.0
1702490476.0483863,5.0,19.0,6.0,1.0,-1.0,3.0,-1.0,-1.0
1702490476.058743,-5.0,-7.0,0.0,2.0,-1.0,-3.0,-2.0,-1.0
1702490476.058743,-2.0,-18.0,9.0,3.0,1.0,-2.0,-1.0,-1.0
1702490476.0685928,1.0,29.0,-36.0,7.0,-4.0,-4.0,4.0,3.0
1702490476.0685928,7.0,-15.0,23.0,5.0,3.0,4.0,-3.0,3.0
1702490476.0883963,-6.0,-7.0,-12.0,-15.0,-6.0,0.0,1.0,-3.0
1702490476.0883963,2.0,5.0,83.0,6.0,1.0,0.0,-1.0,-1.0
1702490476.0883963,0.0,-7.0,31.0,-8.0,0.0,1.0,1.0,0.0
1702490476.0883963,-6.0,6.0,25.0,-8.0,-6.0,-4.0,-5.0,-3.0
1702490476.0984223,0.0,24.0,-84.0,13.0,3.0,1.0,-1.0,-2.0
1702490476.0984223,-2.0,-13.0,22.0,-13.0,1.0,5.0,2.0,1.0
1702490476.108397,-3.0,-2.0,31.0,-4.0,1.0,-5.0,0.0,1.0
1702490476.108397,-4.0,-1.0,-32.0,-12.0,-4.0,1.0,-2.0,-2.0
1702490476.1185746,-1.0,6.0,-4.0,-1.0,3.0,-1.0,1.0,0.0
1702490476.1185746,1.0,-22.0,-13.0,12.0,1.0,-1.0,0.0,2.0
1702490476.1284032,4.0,-1.0,32.0,6.0,4.0,-3.0,-5.0,0.0
1702490476.1284032,-3.0,12.0,-39.0,-6.0,-1.0,-1.0,-3.0,-1.0
1702490476.1486244,0.0,5.0,14.0,-4.0,-1.0,1.0,0.0,-2.0
1702490476.1486244,-2.0,6.0,-31.0,3.0,2.0,-4.0,0.0,1.0
1702490476.1486244,-3.0,12.0,19.0,1.0,3.0,5.0,-5.0,-2.0
1702490476.1486244,1.0,-42.0,15.0,-2.0,-6.0,-4.0,0.0,1.0
1702490476.1586356,-3.0,-9.0,15.0,-3.0,0.0,0.0,-4.0,-5.0
1702490476.1586356,0.0,2.0,-5.0,2.0,-2.0,-3.0,-1.0,1.0
1702490476.1685853,-2.0,-2.0,-4.0,-1.0,-2.0,1.0,-1.0,0.0
1702490476.1685853,-2.0,19.0,-10.0,1.0,0.0,-2.0,0.0,-2.0
1702490476.1786358,-2.0,7.0,0.0,-5.0,1.0,-2.0,1.0,2.0
1702490476.1786358,-4.0,-4.0,13.0,5.0,-4.0,-1.0,-3.0,-4.0
1702490476.1884022,4.0,2.0,-24.0,-3.0,-2.0,-1.0,0.0,4.0
1702490476.1884022,5.0,17.0,15.0,4.0,6.0,3.0,-4.0,-5.0
1702490476.2183976,-6.0,-17.0,4.0,-2.0,-4.0,-4.0,1.0,-6.0
1702490476.2183976,2.0,37.0,-21.0,-2.0,1.0,-2.0,1.0,-1.0
1702490476.2183976,-4.0,-10.0,-8.0,-4.0,-3.0,-1.0,-4.0,-3.0
1702490476.2183976,4.0,4.0,4.0,-1.0,-2.0,-5.0,6.0,1.0
1702490476.2183976,0.0,-32.0,23.0,8.0,-2.0,-2.0,-5.0,1.0
1702490476.2183976,1.0,16.0,20.0,1.0,1.0,-1.0,-3.0,-6.0
1702490476.2286932,-2.0,-12.0,-42.0,-3.0,1.0,0.0,0.0,1.0
1702490476.2286932,-1.0,5.0,19.0,1.0,-5.0,-5.0,-1.0,0.0
1702490476.2387218,3.0,19.0,25.0,2.0,8.0,5.0,2.0,1.0
1702490476.2387218,-3.0,-18.0,-41.0,-2.0,-6.0,1.0,-1.0,-1.0
1702490476.2484024,-1.0,-3.0,17.0,-7.0,6.0,3.0,-2.0,-3.0
1702490476.2484024,-4.0,7.0,5.0,10.0,4.0,4.0,-2.0,-1.0
1702490476.2684216,1.0,4.0,-4.0,-12.0,-10.0,-5.0,-3.0,-1.0
1702490476.2684216,0.0,-15.0,5.0,1.0,-7.0,-4.0,0.0,1.0
1702490476.2684216,0.0,1.0,-9.0,-12.0,-2.0,1.0,2.0,0.0
1702490476.2684216,-3.0,-27.0,-16.0,-9.0,-7.0,-6.0,-4.0,-2.0
1702490476.2787547,0.0,-35.0,7.0,-2.0,2.0,-4.0,-2.0,0.0
1702490476.2787547,0.0,40.0,-9.0,9.0,7.0,4.0,-1.0,-2.0
1702490476.2887337,-3.0,-23.0,-6.0,1.0,-2.0,1.0,0.0,0.0
1702490476.2887337,2.0,5.0,34.0,10.0,3.0,0.0,0.0,0.0
1702490476.2987218,-1.0,12.0,-2.0,-11.0,-7.0,1.0,0.0,0.0
1702490476.2987218,-1.0,-9.0,6.0,-8.0,-3.0,-6.0,0.0,-2.0
1702490476.3084002,-7.0,-17.0,-31.0,8.0,2.0,6.0,-5.0,-5.0
1702490476.3084002,3.0,30.0,11.0,-17.0,-2.0,-1.0,1.0,2.0
1702490476.3483965,0.0,3.0,13.0,12.0,4.0,-1.0,-1.0,0.0
1702490476.3483965,-4.0,8.0,-30.0,-3.0,-8.0,-2.0,1.0,-3.0
1702490476.3483965,0.0,-4.0,8.0,-6.0,0.0,-5.0,-2.0,-1.0
1702490476.3483965,1.0,2.0,2.0,8.0,7.0,1.0,-2.0,1.0
1702490476.3483965,-5.0,-5.0,-34.0,-9.0,-8.0,-2.0,-3.0,-4.0
1702490476.3483965,-2.0,-28.0,-4.0,-5.0,5.0,2.0,0.0,0.0
1702490476.3583946,1.0,-8.0,4.0,4.0,-2.0,-2.0,0.0,-2.0
1702490476.3583946,0.0,5.0,-20.0,-1.0,-5.0,-3.0,-4.0,-3.0
1702490476.3583946,2.0,1.0,48.0,8.0,0.0,3.0,0.0,-3.0
1702490476.3583946,-2.0,6.0,-22.0,-5.0,-2.0,-2.0,0.0,-1.0
1702490476.3683977,1.0,6.0,6.0,2.0,-5.0,0.0,0.0,1.0
1702490476.3683977,-1.0,-4.0,-1.0,-3.0,-1.0,-4.0,-2.0,-3.0
1702490476.388743,-3.0,18.0,-2.0,2.0,3.0,3.0,2.0,1.0
1702490476.388743,-2.0,-9.0,12.0,1.0,0.0,0.0,0.0,-3.0
1702490476.388743,2.0,-1.0,2.0,-2.0,-3.0,-3.0,-3.0,-2.0
1702490476.388743,-3.0,23.0,9.0,1.0,-4.0,-3.0,1.0,-1.0
1702490476.398401,-2.0,5.0,-9.0,-2.0,-1.0,-6.0,-2.0,-3.0
1702490476.398401,1.0,21.0,-5.0,1.0,-1.0,3.0,-2.0,2.0
1702490476.4085038,-2.0,24.0,16.0,1.0,3.0,-2.0,-1.0,-1.0
1702490476.4085038,-1.0,-8.0,-9.0,1.0,-2.0,-2.0,-2.0,0.0
1702490476.4369662,-5.0,4.0,-9.0,-2.0,-2.0,-2.0,-4.0,-4.0
1702490476.4369662,-2.0,-8.0,15.0,3.0,-1.0,-4.0,1.0,0.0
1702490476.4369662,0.0,-4.0,1.0,0.0,-4.0,2.0,0.0,0.0
1702490476.4369662,-1.0,-7.0,6.0,2.0,1.0,-3.0,1.0,0.0
1702490476.4499445,-3.0,-2.0,6.0,-1.0,3.0,4.0,3.0,0.0
1702490476.4499445,1.0,-1.0,-78.0,-6.0,3.0,-1.0,-2.0,-2.0
1702490476.4499445,-1.0,1.0,13.0,-2.0,0.0,-2.0,-2.0,-1.0
1702490476.4499445,1.0,-9.0,-7.0,1.0,1.0,0.0,1.0,1.0
1702490476.4689994,1.0,11.0,1.0,-1.0,-5.0,-6.0,-3.0,-1.0
1702490476.4689994,1.0,-12.0,26.0,4.0,-1.0,0.0,-2.0,1.0
1702490476.4689994,-1.0,5.0,-10.0,4.0,1.0,-2.0,-1.0,0.0
1702490476.4689994,-2.0,-6.0,-12.0,-17.0,6.0,8.0,-2.0,-4.0
1702490476.4787748,1.0,4.0,-10.0,0.0,-4.0,-6.0,0.0,-1.0
1702490476.4787748,2.0,20.0,30.0,15.0,2.0,8.0,-1.0,-1.0
1702490476.488775,1.0,17.0,-23.0,-21.0,-10.0,-5.0,-1.0,1.0
1702490476.488775,-2.0,-42.0,9.0,14.0,1.0,-2.0,-2.0,1.0
1702490476.509104,-2.0,-3.0,-27.0,-11.0,1.0,1.0,0.0,0.0
1702490476.509104,-5.0,4.0,42.0,9.0,1.0,-2.0,-1.0,-2.0
1702490476.509104,0.0,-10.0,-5.0,-1.0,-2.0,-1.0,1.0,8.0
1702490476.509104,-2.0,-6.0,-5.0,-3.0,-1.0,-1.0,-4.0,-6.0
1702490476.5289404,-2.0,11.0,8.0,6.0,4.0,2.0,-1.0,-4.0
1702490476.5289404,1.0,-16.0,-25.0,-2.0,0.0,-1.0,-1.0,-2.0
1702490476.5388448,3.0,4.0,-20.0,2.0,-1.0,-2.0,-1.0,9.0
1702490476.5388448,-10.0,8.0,32.0,1.0,-7.0,-4.0,-2.0,-12.0
1702490476.5587747,0.0,-5.0,-46.0,-1.0,-1.0,-2.0,-2.0,3.0
1702490476.5587747,5.0,-8.0,-10.0,-8.0,-2.0,-3.0,-1.0,0.0
1702490476.5587747,-6.0,-1.0,-5.0,2.0,-3.0,-3.0,-3.0,-6.0
1702490476.5587747,4.0,11.0,17.0,6.0,0.0,6.0,-4.0,3.0
1702490476.568944,1.0,-9.0,-26.0,-7.0,-1.0,-1.0,1.0,-9.0
1702490476.568944,-7.0,-17.0,5.0,0.0,-1.0,-2.0,-1.0,-2.0
1702490476.568944,-3.0,3.0,-1.0,-13.0,-4.0,-4.0,-2.0,-2.0
1702490476.568944,4.0,34.0,54.0,15.0,1.0,4.0,1.0,3.0
1702490476.5887764,-2.0,-4.0,32.0,1.0,0.0,-4.0,-5.0,7.0
1702490476.5887764,2.0,-17.0,-53.0,-13.0,-5.0,5.0,0.0,1.0
1702490476.5887764,2.0,11.0,50.0,8.0,4.0,1.0,2.0,-10.0
1702490476.5887764,-5.0,-44.0,-94.0,-15.0,-4.0,-2.0,3.0,2.0
1702490476.599176,-1.0,55.0,106.0,14.0,2.0,3.0,2.0,0.0
1702490476.599176,-1.0,-6.0,-9.0,-11.0,-5.0,-7.0,-5.0,16.0
1702490476.6091218,-7.0,45.0,34.0,9.0,4.0,6.0,1.0,-10.0
1702490476.6091218,2.0,3.0,-25.0,1.0,2.0,-3.0,1.0,0.0
1702490476.6292155,6.0,0.0,-26.0,-8.0,-6.0,-10.0,-5.0,7.0
1702490476.6292155,-17.0,-1.0,3.0,0.0,-2.0,1.0,-3.0,-15.0
1702490476.6292155,-1.0,-20.0,-11.0,1.0,1.0,0.0,1.0,4.0
1702490476.6292155,-1.0,7.0,0.0,-4.0,-4.0,1.0,-2.0,-3.0
1702490476.6487753,-1.0,-2.0,-15.0,2.0,3.0,1.0,2.0,0.0
1702490476.6487753,1.0,9.0,22.0,3.0,1.0,-1.0,-4.0,-1.0
1702490476.6487753,0.0,-47.0,-12.0,0.0,-2.0,4.0,-1.0,-8.0
1702490476.6487753,-8.0,18.0,-4.0,-4.0,0.0,-3.0,-1.0,7.0
1702490476.659134,0.0,-3.0,5.0,-3.0,-14.0,-6.0,-3.0,1.0
1702490476.659134,2.0,1.0,3.0,0.0,10.0,2.0,2.0,-2.0
1702490476.6691115,5.0,-7.0,-5.0,-3.0,2.0,3.0,0.0,1.0
1702490476.6691115,-2.0,-26.0,8.0,-2.0,0.0,-1.0,-1.0,-2.0
1702490476.6891701,1.0,-4.0,-19.0,-2.0,-2.0,2.0,2.0,-5.0
1702490476.6891701,-2.0,5.0,-5.0,-6.0,-6.0,0.0,0.0,-1.0
1702490476.6891701,-4.0,-5.0,-22.0,-1.0,-3.0,-4.0,-2.0,0.0
1702490476.6891701,3.0,18.0,3.0,7.0,-1.0,-3.0,-1.0,-1.0
1702490476.7087743,-4.0,9.0,16.0,10.0,9.0,8.0,-1.0,-2.0
1702490476.7087743,0.0,-13.0,-6.0,-17.0,-4.0,-4.0,-5.0,-6.0
1702490476.7087743,-2.0,-21.0,6.0,-4.0,-3.0,-2.0,-1.0,-1.0
1702490476.7087743,6.0,23.0,17.0,17.0,11.0,1.0,3.0,0.0
1702490476.7191458,3.0,3.0,-71.0,-9.0,-6.0,-3.0,-1.0,-1.0
1702490476.7191458,-8.0,-26.0,-10.0,-7.0,-7.0,-2.0,-1.0,-2.0
1702490476.7287803,4.0,17.0,21.0,-4.0,-2.0,-1.0,-3.0,0.0
1702490476.7287803,-12.0,3.0,-26.0,-10.0,-6.0,-3.0,-3.0,-5.0
1702490476.748776,-3.0,-34.0,10.0,12.0,3.0,1.0,1.0,8.0
1702490476.748776,7.0,21.0,18.0,3.0,-4.0,-2.0,-2.0,-3.0
1702490476.748776,-5.0,2.0,-11.0,-8.0,-4.0,-4.0,-1.0,3.0
1702490476.748776,8.0,-22.0,-4.0,-2.0,-2.0,-1.0,-1.0,1.0
1702490476.769136,-9.0,-18.0,15.0,-8.0,-6.0,-11.0,-2.0,-5.0
1702490476.769136,-1.0,-1.0,-5.0,2.0,2.0,5.0,2.0,-3.0
1702490476.769136,3.0,-1.0,2.0,4.0,-1.0,-5.0,-3.0,-13.0
1702490476.769136,5.0,3.0,-13.0,-2.0,2.0,4.0,-2.0,-11.0
1702490476.7791595,-10.0,-10.0,11.0,-9.0,-2.0,-2.0,5.0,13.0
1702490476.7791595,-2.0,9.0,12.0,9.0,-2.0,-2.0,-2.0,-29.0
1702490476.7990124,-3.0,-4.0,-34.0,-3.0,2.0,1.0,4.0,0.0
1702490476.7990124,0.0,-5.0,4.0,-8.0,-1.0,-11.0,-3.0,-5.0
1702490476.8087778,7.0,21.0,20.0,5.0,2.0,13.0,-1.0,-9.0
1702490476.8087778,-3.0,-7.0,-5.0,5.0,4.0,-6.0,3.0,10.0
1702490476.8087778,5.0,-4.0,-1.0,-2.0,1.0,2.0,-3.0,-1.0
1702490476.8087778,-4.0,23.0,-5.0,-11.0,-7.0,-8.0,-9.0,-5.0
1702490476.8291209,5.0,17.0,8.0,0.0,3.0,6.0,-2.0,2.0
1702490476.8291209,3.0,5.0,29.0,7.0,-1.0,4.0,-1.0,9.0
1702490476.8291209,-5.0,-16.0,-11.0,-3.0,-2.0,3.0,-4.0,1.0
1702490476.8291209,0.0,28.0,25.0,2.0,-4.0,0.0,-5.0,2.0
1702490476.8394132,0.0,-16.0,-67.0,-15.0,-3.0,-5.0,-2.0,-5.0
1702490476.8394132,-3.0,13.0,47.0,17.0,5.0,1.0,-1.0,1.0
1702490476.8493233,0.0,15.0,-13.0,-6.0,-4.0,-3.0,2.0,-2.0
1702490476.8493233,-3.0,-10.0,-2.0,0.0,-3.0,1.0,1.0,1.0
1702490476.8691416,0.0,-10.0,11.0,5.0,4.0,1.0,-4.0,-4.0
1702490476.8691416,4.0,-28.0,-38.0,-14.0,-5.0,-6.0,1.0,-1.0
1702490476.8891377,-9.0,-9.0,21.0,4.0,0.0,0.0,-2.0,1.0
1702490476.8891377,3.0,-13.0,-66.0,-11.0,-2.0,0.0,2.0,2.0
1702490476.8891377,-4.0,-27.0,-27.0,-14.0,-3.0,-2.0,-3.0,-7.0
1702490476.8891377,-1.0,24.0,42.0,14.0,-2.0,-2.0,-1.0,7.0
1702490476.8891377,0.0,10.0,-4.0,5.0,4.0,-2.0,-1.0,-2.0
1702490476.8891377,-8.0,-14.0,4.0,-5.0,-1.0,0.0,-2.0,-4.0
1702490476.8991802,-2.0,-1.0,3.0,-5.0,-7.0,-6.0,-2.0,-4.0
1702490476.8991802,0.0,-26.0,10.0,-7.0,-2.0,0.0,-3.0,0.0
1702490476.9095101,-4.0,8.0,-7.0,-6.0,-6.0,-4.0,-2.0,0.0
1702490476.9095101,1.0,0.0,-5.0,28.0,11.0,1.0,4.0,0.0
1702490476.9291384,3.0,-5.0,-12.0,-6.0,-1.0,4.0,0.0,0.0
1702490476.9291384,-4.0,9.0,-7.0,-11.0,2.0,-1.0,0.0,2.0
1702490476.9291384,-2.0,-39.0,-10.0,2.0,-8.0,-5.0,-1.0,-5.0
1702490476.9291384,0.0,8.0,14.0,-27.0,-6.0,2.0,-3.0,1.0
1702490476.9493206,-5.0,0.0,18.0,16.0,-1.0,-5.0,0.0,-4.0
1702490476.9493206,-1.0,17.0,-30.0,5.0,0.0,-4.0,0.0,9.0
1702490476.9493206,3.0,3.0,-7.0,-10.0,0.0,1.0,0.0,-7.0
1702490476.9493206,-3.0,-28.0,-3.0,-8.0,-1.0,4.0,1.0,1.0
1702490476.9661913,-5.0,-4.0,36.0,4.0,2.0,-2.0,-1.0,-4.0
1702490476.9661913,-4.0,35.0,-47.0,-9.0,-4.0,-3.0,-3.0,-6.0
1702490476.9826617,0.0,23.0,7.0,13.0,4.0,5.0,-1.0,4.0
1702490476.9826617,-4.0,-20.0,25.0,-1.0,-8.0,-6.0,-1.0,0.0
1702490476.9826617,4.0,14.0,-36.0,-6.0,-4.0,-2.0,1.0,-1.0
1702490476.9826617,0.0,-31.0,-2.0,4.0,3.0,3.0,-2.0,-3.0
1702490476.9826617,-6.0,-1.0,14.0,-1.0,-6.0,-3.0,-1.0,0.0
1702490476.9826617,3.0,-2.0,11.0,4.0,5.0,3.0,1.0,1.0
1702490477.0129077,0.0,-10.0,3.0,3.0,1.0,-1.0,-1.0,-1.0
1702490477.0129077,1.0,0.0,27.0,6.0,0.0,-3.0,1.0,-3.0
1702490477.0129077,0.0,6.0,-31.0,-10.0,-8.0,-4.0,-5.0,-1.0
1702490477.0129077,-12.0,11.0,-15.0,0.0,1.0,3.0,-1.0,-2.0
1702490477.0229099,-1.0,1.0,20.0,4.0,0.0,-1.0,-1.0,1.0
1702490477.0229099,1.0,-6.0,-29.0,-11.0,0.0,2.0,2.0,-1.0
1702490477.052903,-7.0,-26.0,24.0,4.0,3.0,-3.0,-2.0,-3.0
1702490477.052903,13.0,14.0,1.0,0.0,-6.0,-7.0,1.0,6.0
1702490477.052903,-5.0,-6.0,5.0,-5.0,-1.0,8.0,-3.0,-4.0
1702490477.052903,0.0,7.0,-5.0,-6.0,0.0,0.0,-1.0,-1.0
1702490477.052903,-1.0,-16.0,2.0,-2.0,-1.0,-5.0,-1.0,-3.0
1702490477.052903,-6.0,1.0,-13.0,0.0,-3.0,-5.0,0.0,-2.0
1702490477.0797791,2.0,-11.0,11.0,-1.0,-1.0,0.0,0.0,0.0
1702490477.0797791,3.0,3.0,5.0,-3.0,-1.0,-2.0,-2.0,-1.0
1702490477.0797791,-1.0,25.0,11.0,-1.0,0.0,2.0,-1.0,0.0
1702490477.0797791,-2.0,4.0,13.0,1.0,-1.0,0.0,-3.0,-4.0
1702490477.0797791,-1.0,8.0,-5.0,0.0,-3.0,-3.0,-2.0,-1.0
1702490477.0797791,-3.0,-18.0,17.0,4.0,-1.0,1.0,0.0,-3.0
1702490477.0997114,-2.0,-14.0,-80.0,-10.0,2.0,-3.0,1.0,0.0
1702490477.0997114,-1.0,15.0,17.0,8.0,-2.0,-2.0,-2.0,-3.0
1702490477.109717,2.0,-4.0,2.0,-6.0,-3.0,-2.0,-2.0,-1.0
1702490477.109717,-5.0,7.0,21.0,4.0,-2.0,0.0,-2.0,-4.0
1702490477.109717,3.0,16.0,6.0,-3.0,4.0,2.0,1.0,2.0
1702490477.109717,-2.0,-28.0,1.0,-2.0,1.0,2.0,0.0,-2.0
1702490477.1300068,-3.0,-1.0,-16.0,1.0,0.0,-3.0,-4.0,-3.0
1702490477.1300068,-3.0,-6.0,-12.0,-8.0,-5.0,-5.0,-2.0,-2.0
1702490477.1300068,0.0,7.0,43.0,8.0,-1.0,-2.0,-5.0,-1.0
1702490477.1300068,2.0,0.0,-43.0,-5.0,0.0,1.0,-1.0,-1.0
1702490477.1399462,-2.0,1.0,-3.0,-6.0,-4.0,-3.0,-3.0,-2.0
1702490477.1399462,-4.0,-19.0,-22.0,-3.0,2.0,3.0,-2.0,-4.0
1702490477.169715,0.0,40.0,22.0,1.0,0.0,-1.0,1.0,6.0
1702490477.169715,3.0,10.0,8.0,10.0,1.0,0.0,0.0,-1.0
1702490477.169715,-1.0,-5.0,-35.0,-19.0,-5.0,-2.0,0.0,0.0
1702490477.169715,0.0,-26.0,3.0,6.0,1.0,-4.0,0.0,2.0
1702490477.169715,8.0,11.0,12.0,-3.0,-4.0,4.0,-4.0,-4.0
1702490477.169715,-8.0,-9.0,6.0,-3.0,3.0,-3.0,0.0,-1.0
1702490477.1897573,10.0,10.0,22.0,7.0,3.0,-1.0,0.0,1.0
1702490477.1897573,-5.0,8.0,-27.0,-9.0,-3.0,0.0,-2.0,3.0
1702490477.1897573,10.0,-6.0,45.0,19.0,0.0,-2.0,1.0,-2.0
1702490477.1897573,-2.0,-11.0,-27.0,-10.0,-5.0,-2.0,-1.0,-2.0
1702490477.2097132,-6.0,-10.0,16.0,2.0,-1.0,-2.0,1.0,-3.0
1702490477.2097132,0.0,11.0,-7.0,0.0,-1.0,-1.0,-1.0,0.0
1702490477.2097132,-1.0,-15.0,-18.0,-1.0,1.0,2.0,2.0,13.0
1702490477.2097132,-4.0,-17.0,9.0,-5.0,-4.0,-2.0,-4.0,-12.0
1702490477.22987,-1.0,-9.0,-7.0,2.0,0.0,-5.0,0.0,5.0
1702490477.22987,11.0,22.0,35.0,7.0,0.0,-4.0,-4.0,5.0
1702490477.22987,-18.0,-24.0,-45.0,-7.0,-3.0,4.0,3.0,-6.0
1702490477.22987,-4.0,-9.0,8.0,-3.0,-1.0,-4.0,2.0,5.0
1702490477.249714,1.0,5.0,12.0,4.0,3.0,3.0,-10.0,-2.0
1702490477.249714,-2.0,-40.0,-15.0,-1.0,-1.0,0.0,2.0,-1.0
1702490477.249714,2.0,5.0,21.0,2.0,-3.0,-6.0,-2.0,-2.0
1702490477.249714,0.0,1.0,-6.0,-3.0,-1.0,4.0,-6.0,-2.0
1702490477.2597122,-5.0,4.0,-16.0,3.0,5.0,-1.0,7.0,2.0
1702490477.2597122,-2.0,-3.0,11.0,1.0,-3.0,-3.0,1.0,-4.0
1702490477.2698953,0.0,-1.0,-13.0,-4.0,5.0,0.0,-1.0,0.0
1702490477.2698953,-3.0,-3.0,7.0,-4.0,-8.0,-4.0,3.0,-2.0
1702490477.2897606,2.0,-1.0,4.0,-1.0,-2.0,-3.0,0.0,0.0
1702490477.2897606,-2.0,5.0,-11.0,-7.0,2.0,4.0,-3.0,-3.0
1702490477.2897606,-1.0,-16.0,7.0,4.0,5.0,5.0,-2.0,-4.0
1702490477.2897606,6.0,19.0,3.0,10.0,6.0,1.0,1.0,3.0
1702490477.309788,0.0,-1.0,-3.0,7.0,-4.0,1.0,0.0,-1.0
1702490477.309788,-4.0,-1.0,-7.0,-17.0,-6.0,-5.0,-3.0,-3.0
1702490477.319718,0.0,1.0,-3.0,6.0,-1.0,-6.0,0.0,0.0
1702490477.319718,1.0,-8.0,-2.0,-24.0,-5.0,0.0,-2.0,-1.0
1702490477.3397133,-5.0,10.0,0.0,19.0,2.0,-2.0,-1.0,-4.0
1702490477.3397133,-1.0,-2.0,7.0,8.0,0.0,0.0,0.0,-4.0
1702490477.3397133,-1.0,30.0,0.0,-4.0,-2.0,-3.0,-4.0,0.0
1702490477.3397133,0.0,13.0,-25.0,-4.0,-2.0,0.0,-2.0,-1.0
1702490477.3397133,-4.0,2.0,31.0,-7.0,-4.0,-2.0,-1.0,-4.0
1702490477.3397133,0.0,16.0,2.0,4.0,2.0,4.0,0.0,0.0
1702490477.3497443,1.0,-15.0,6.0,-2.0,-3.0,-4.0,-3.0,-4.0
1702490477.3497443,-1.0,-7.0,16.0,4.0,0.0,1.0,-1.0,0.0
1702490477.369714,0.0,10.0,12.0,5.0,6.0,1.0,1.0,0.0
1702490477.369714,-3.0,-14.0,-2.0,-7.0,-3.0,-1.0,0.0,-3.0
1702490477.3797133,-1.0,17.0,31.0,-4.0,-1.0,-2.0,0.0,-1.0
1702490477.3797133,-2.0,-35.0,-41.0,2.0,-2.0,-3.0,-1.0,0.0
1702490477.3899295,2.0,-11.0,-18.0,-3.0,2.0,2.0,-3.0,0.0
1702490477.3899295,-2.0,-2.0,14.0,-3.0,-2.0,-2.0,3.0,-1.0
1702490477.3899295,-1.0,-8.0,-18.0,-8.0,-1.0,8.0,-1.0,-1.0
1702490477.3899295,0.0,7.0,8.0,5.0,3.0,0.0,1.0,0.0
1702490477.4097838,-2.0,-27.0,-4.0,-5.0,-3.0,1.0,-2.0,-2.0
1702490477.4097838,1.0,18.0,-13.0,-2.0,-2.0,-1.0,0.0,-1.0
1702490477.4097838,-3.0,-32.0,-25.0,-5.0,-3.0,-5.0,-1.0,-4.0
1702490477.4097838,0.0,-3.0,20.0,6.0,3.0,-3.0,-1.0,2.0
1702490477.4397151,-2.0,2.0,-17.0,-4.0,1.0,3.0,-1.0,-2.0
1702490477.4397151,2.0,26.0,23.0,1.0,-2.0,-3.0,-2.0,0.0
1702490477.4397151,-5.0,8.0,-50.0,-6.0,-2.0,-3.0,-2.0,-2.0
1702490477.4397151,0.0,-7.0,12.0,5.0,2.0,3.0,-2.0,1.0
1702490477.4498734,-1.0,35.0,7.0,-4.0,-3.0,0.0,1.0,-1.0
1702490477.4498734,-3.0,-12.0,1.0,3.0,3.0,-1.0,-2.0,-1.0
1702490477.4600189,1.0,9.0,-1.0,5.0,0.0,-1.0,1.0,1.0
1702490477.4600189,-3.0,0.0,-5.0,-6.0,-6.0,-9.0,-1.0,2.0
1702490477.4697568,-4.0,3.0,-4.0,-1.0,-5.0,-3.0,-1.0,-1.0
1702490477.4697568,-3.0,-21.0,-6.0,-8.0,0.0,-1.0,-2.0,-2.0
1702490477.4697568,-2.0,-14.0,3.0,-9.0,0.0,0.0,-2.0,-1.0
1702490477.4697568,-3.0,6.0,15.0,15.0,-6.0,-2.0,-4.0,-3.0
1702490477.4918673,-2.0,-13.0,7.0,-20.0,-4.0,-2.0,-4.0,-1.0
1702490477.4918673,-2.0,11.0,-23.0,10.0,-3.0,-1.0,-1.0,0.0
1702490477.4937434,0.0,9.0,25.0,1.0,4.0,-1.0,0.0,0.0
1702490477.4937434,1.0,-3.0,-12.0,-11.0,-3.0,0.0,-1.0,-2.0
1702490477.5148802,-2.0,15.0,-4.0,1.0,-3.0,-3.0,-2.0,-3.0
1702490477.5148802,-1.0,-21.0,-3.0,-10.0,-10.0,-1.0,-3.0,-1.0
1702490477.5158334,1.0,3.0,14.0,-2.0,-1.0,-3.0,-1.0,1.0
1702490477.5158334,-2.0,22.0,11.0,1.0,-2.0,-3.0,-3.0,-2.0
1702490477.5258305,-1.0,-29.0,-14.0,-4.0,-3.0,-1.0,-1.0,-2.0
1702490477.5258305,0.0,0.0,7.0,1.0,3.0,-9.0,1.0,0.0
1702490477.5358381,-2.0,0.0,2.0,2.0,-2.0,4.0,1.0,-2.0
1702490477.5358381,0.0,-17.0,-15.0,-8.0,0.0,-2.0,0.0,-1.0
1702490477.5460782,-2.0,-14.0,21.0,9.0,-2.0,-4.0,-3.0,-1.0
1702490477.5460782,-3.0,26.0,-5.0,-5.0,-1.0,-2.0,-2.0,-1.0
1702490477.5460782,-1.0,-7.0,-5.0,-1.0,-3.0,-2.0,0.0,1.0
1702490477.5460782,-3.0,1.0,2.0,-1.0,1.0,4.0,0.0,0.0
1702490477.575836,1.0,2.0,-26.0,-10.0,1.0,-1.0,-1.0,0.0
1702490477.575836,4.0,-14.0,9.0,6.0,5.0,3.0,-2.0,4.0
1702490477.575836,0.0,16.0,1.0,-1.0,-5.0,-2.0,-2.0,0.0
1702490477.575836,-7.0,-18.0,-8.0,-6.0,0.0,1.0,1.0,-3.0
1702490477.60583,1.0,1.0,-1.0,8.0,1.0,0.0,0.0,-1.0
1702490477.60583,-1.0,12.0,-2.0,-5.0,-1.0,-6.0,-1.0,-1.0
1702490477.60583,-6.0,-33.0,-16.0,-3.0,2.0,7.0,-2.0,-4.0
1702490477.60583,1.0,9.0,12.0,5.0,-2.0,-3.0,-1.0,0.0
1702490477.60583,-1.0,9.0,0.0,-2.0,-1.0,-4.0,-1.0,-1.0
1702490477.60583,-3.0,-12.0,-15.0,-2.0,4.0,4.0,0.0,-1.0
1702490477.60583,-4.0,-10.0,16.0,8.0,1.0,-2.0,1.0,0.0
1702490477.60583,1.0,21.0,-13.0,-6.0,-3.0,-4.0,-1.0,-1.0
1702490477.6262426,0.0,3.0,16.0,3.0,0.0,0.0,0.0,0.0
1702490477.6262426,1.0,-9.0,-33.0,-1.0,-2.0,4.0,1.0,-3.0
1702490477.6358294,1.0,-3.0,-14.0,-8.0,2.0,-1.0,-3.0,-1.0
1702490477.6358294,-1.0,8.0,8.0,2.0,4.0,1.0,-2.0,-2.0
1702490477.6558278,-2.0,-3.0,43.0,1.0,-1.0,-3.0,-1.0,0.0
1702490477.6558278,-3.0,6.0,-25.0,-10.0,-8.0,-1.0,-2.0,-3.0
1702490477.6558278,1.0,8.0,-31.0,-2.0,-1.0,-3.0,-4.0,0.0
1702490477.6558278,-3.0,-18.0,-4.0,3.0,4.0,3.0,1.0,-2.0
1702490477.665834,-1.0,-5.0,-50.0,-12.0,-4.0,-4.0,0.0,-1.0
1702490477.665834,-2.0,8.0,77.0,18.0,9.0,6.0,-1.0,-4.0
1702490477.665834,-1.0,9.0,-30.0,-8.0,-9.0,-4.0,-1.0,0.0
1702490477.665834,-1.0,-6.0,51.0,9.0,4.0,-1.0,-2.0,0.0
1702490477.6859708,-1.0,-6.0,-88.0,-11.0,0.0,2.0,-3.0,0.0
1702490477.6859708,-1.0,-2.0,21.0,-11.0,-7.0,-7.0,-3.0,-1.0
1702490477.6958337,0.0,3.0,9.0,3.0,3.0,-2.0,-1.0,0.0
1702490477.6958337,-2.0,-6.0,21.0,-2.0,-3.0,-1.0,-2.0,0.0
1702490477.7258294,1.0,-3.0,9.0,9.0,0.0,0.0,-1.0,-2.0
1702490477.7258294,0.0,-1.0,19.0,9.0,0.0,0.0,-1.0,-1.0
1702490477.7258294,-3.0,-23.0,-34.0,-21.0,-4.0,0.0,-1.0,-4.0
1702490477.7258294,-2.0,1.0,2.0,-2.0,1.0,-1.0,-2.0,5.0
1702490477.7258294,0.0,5.0,27.0,5.0,-1.0,-1.0,-3.0,-16.0
1702490477.7258294,-3.0,-2.0,-32.0,-3.0,-2.0,-4.0,1.0,-1.0
1702490477.7258294,-2.0,1.0,8.0,10.0,5.0,7.0,-2.0,-3.0
1702490477.7258294,4.0,-2.0,-35.0,-8.0,-6.0,-1.0,-1.0,0.0
1702490477.7461965,-10.0,4.0,-6.0,-8.0,-3.0,-3.0,-1.0,-1.0
1702490477.7461965,-2.0,4.0,6.0,0.0,0.0,-1.0,0.0,3.0
1702490477.7558284,10.0,7.0,35.0,7.0,-1.0,-5.0,-1.0,-1.0
1702490477.7558284,-1.0,7.0,-5.0,-6.0,-4.0,2.0,-4.0,-7.0
1702490477.7658293,1.0,-12.0,1.0,5.0,4.0,3.0,0.0,7.0
1702490477.7658293,-1.0,21.0,-4.0,2.0,1.0,2.0,1.0,-2.0
1702490477.775826,-5.0,-11.0,20.0,-1.0,-4.0,-6.0,-4.0,2.0
1702490477.775826,-4.0,-8.0,-31.0,-5.0,-2.0,-3.0,-5.0,0.0
1702490477.7862146,4.0,6.0,8.0,2.0,-2.0,-3.0,-3.0,1.0
1702490477.7862146,-3.0,-8.0,2.0,-1.0,-2.0,1.0,0.0,-5.0
1702490477.7862146,-2.0,-1.0,-9.0,4.0,-1.0,-5.0,1.0,-1.0
1702490477.7862146,0.0,3.0,2.0,-2.0,1.0,3.0,1.0,0.0
1702490477.8158295,-2.0,22.0,14.0,-1.0,0.0,0.0,1.0,-2.0
1702490477.8158295,1.0,-16.0,-67.0,-14.0,-9.0,-7.0,-3.0,3.0
1702490477.8158295,-2.0,-7.0,26.0,9.0,-12.0,-6.0,-3.0,-2.0
1702490477.8158295,-3.0,-14.0,3.0,1.0,22.0,5.0,0.0,-4.0
1702490477.825829,-3.0,-17.0,-12.0,-2.0,-2.0,4.0,0.0,2.0
1702490477.825829,1.0,-7.0,23.0,-4.0,-3.0,-5.0,-5.0,-2.0
1702490477.8358288,1.0,1.0,-20.0,-6.0,-3.0,0.0,0.0,-3.0
1702490477.8358288,-1.0,13.0,5.0,8.0,-11.0,-6.0,-1.0,-1.0
1702490477.8462236,5.0,-11.0,56.0,8.0,-2.0,-4.0,2.0,3.0
1702490477.8462236,0.0,23.0,8.0,-2.0,-1.0,3.0,-1.0,-1.0
1702490477.8462236,-5.0,-11.0,-17.0,-3.0,0.0,0.0,-2.0,-2.0
1702490477.8462236,-1.0,21.0,6.0,-3.0,6.0,2.0,1.0,0.0
1702490477.8758266,2.0,11.0,-30.0,-8.0,0.0,-1.0,1.0,-1.0
1702490477.8758266,2.0,-13.0,1.0,4.0,-5.0,-4.0,-3.0,-2.0
1702490477.8758266,-1.0,12.0,22.0,-1.0,3.0,1.0,-1.0,0.0
1702490477.8758266,0.0,-28.0,-8.0,-3.0,-5.0,-1.0,-1.0,0.0
1702490477.8860667,-7.0,7.0,5.0,7.0,6.0,1.0,-3.0,-2.0
1702490477.8860667,0.0,-15.0,-6.0,-5.0,-4.0,-1.0,-2.0,1.0
1702490477.8961244,-1.0,1.0,-9.0,-2.0,5.0,1.0,-1.0,-2.0
1702490477.8961244,1.0,9.0,0.0,-6.0,-7.0,-5.0,-1.0,0.0
1702490477.906141,0.0,-18.0,-12.0,3.0,2.0,-4.0,-3.0,-1.0
1702490477.906141,-1.0,-5.0,-8.0,-2.0,0.0,2.0,3.0,-1.0
1702490477.906141,-3.0,-5.0,6.0,7.0,8.0,7.0,1.0,-1.0
1702490477.906141,-1.0,-19.0,-11.0,-2.0,-4.0,-2.0,-1.0,-2.0
1702490477.9358366,-4.0,-1.0,1.0,-6.0,-6.0,-3.0,-3.0,-2.0
1702490477.9358366,-1.0,4.0,21.0,-3.0,1.0,-3.0,0.0,0.0
1702490477.9558268,3.0,6.0,-16.0,4.0,7.0,1.0,-1.0,1.0
1702490477.9558268,-1.0,-22.0,10.0,-6.0,-11.0,-5.0,-3.0,-1.0
1702490477.9558268,-9.0,5.0,20.0,-6.0,-1.0,-2.0,-3.0,-4.0
1702490477.9558268,-4.0,-18.0,-35.0,0.0,11.0,8.0,-2.0,0.0
1702490477.9558268,1.0,24.0,-19.0,-7.0,-6.0,-1.0,1.0,-1.0
1702490477.9558268,2.0,-5.0,19.0,7.0,-1.0,-2.0,-1.0,-1.0
1702490477.9658632,2.0,21.0,3.0,-5.0,-6.0,-2.0,1.0,-2.0
1702490477.9658632,-1.0,18.0,-1.0,2.0,-1.0,-2.0,-2.0,-3.0
1702490477.9658632,-2.0,-4.0,39.0,-3.0,-4.0,-7.0,-2.0,0.0
1702490477.9658632,-5.0,8.0,-26.0,-5.0,0.0,0.0,1.0,-3.0
1702490477.9958274,1.0,-3.0,-8.0,-2.0,-4.0,-4.0,-3.0,1.0
1702490477.9958274,0.0,3.0,16.0,1.0,1.0,-2.0,-2.0,-2.0
1702490477.9958274,-3.0,-4.0,7.0,5.0,3.0,0.0,0.0,0.0
1702490477.9958274,-1.0,20.0,9.0,0.0,-3.0,-4.0,-1.0,-2.0
1702490478.0170574,-1.0,-28.0,-6.0,0.0,-4.0,1.0,-2.0,2.0
1702490478.018049,-4.0,-16.0,-13.0,-2.0,-1.0,0.0,-2.0,-2.0
1702490478.0185447,1.0,3.0,5.0,0.0,-4.0,-3.0,-1.0,0.0
1702490478.0185447,-1.0,17.0,-24.0,-1.0,6.0,0.0,-1.0,-1.0
1702490478.0318692,-3.0,-14.0,-9.0,4.0,2.0,1.0,-2.0,-2.0
1702490478.0318692,-1.0,-1.0,4.0,-8.0,-1.0,0.0,0.0,-1.0
1702490478.0339077,-1.0,-7.0,4.0,3.0,-3.0,-4.0,1.0,-1.0
1702490478.0339077,0.0,6.0,1.0,2.0,2.0,4.0,-1.0,0.0
1702490478.0495486,1.0,1.0,-16.0,-3.0,1.0,-1.0,-1.0,-2.0
1702490478.0495486,2.0,-7.0,-4.0,0.0,-1.0,-1.0,-2.0,-1.0
1702490478.0495486,-3.0,2.0,20.0,-2.0,-6.0,-4.0,0.0,0.0
1702490478.0495486,-2.0,15.0,10.0,-1.0,-4.0,-2.0,-3.0,-5.0
1702490478.0598667,2.0,3.0,-46.0,-7.0,-3.0,0.0,0.0,1.0
1702490478.0598667,0.0,0.0,18.0,7.0,0.0,-3.0,0.0,-1.0
1702490478.0698159,-1.0,-15.0,-15.0,-3.0,4.0,7.0,1.0,-2.0
1702490478.0698159,0.0,-27.0,4.0,1.0,-1.0,-1.0,0.0,-1.0
1702490478.0897095,0.0,-17.0,4.0,3.0,-1.0,-2.0,-3.0,-3.0
1702490478.0897095,-3.0,7.0,-19.0,-2.0,-3.0,-2.0,0.0,-2.0
1702490478.0995533,-2.0,-8.0,6.0,-4.0,-5.0,2.0,-6.0,-2.0
1702490478.0995533,0.0,8.0,-18.0,-4.0,-2.0,-3.0,-1.0,1.0
1702490478.106562,1.0,10.0,26.0,0.0,1.0,-3.0,0.0,-1.0
1702490478.106562,0.0,-6.0,-32.0,-3.0,3.0,3.0,0.0,0.0
1702490478.106562,0.0,-24.0,-1.0,-3.0,-2.0,-3.0,-2.0,0.0
1702490478.1166115,-4.0,4.0,-10.0,-2.0,-3.0,-3.0,0.0,-1.0
1702490478.1366348,0.0,-6.0,19.0,5.0,-3.0,-1.0,-2.0,0.0
1702490478.1366348,-1.0,19.0,31.0,0.0,4.0,1.0,0.0,0.0
1702490478.1366348,0.0,3.0,-18.0,-8.0,-1.0,-1.0,-1.0,-3.0
1702490478.1366348,0.0,1.0,3.0,1.0,0.0,-1.0,-2.0,-1.0
1702490478.146846,2.0,3.0,-4.0,-3.0,-2.0,-2.0,0.0,-1.0
1702490478.146846,1.0,3.0,20.0,-1.0,-4.0,0.0,-1.0,-1.0
1702490478.146846,-4.0,-2.0,5.0,5.0,1.0,-1.0,1.0,-3.0
1702490478.146846,-3.0,0.0,0.0,3.0,9.0,3.0,-3.0,-1.0
1702490478.1665697,0.0,10.0,8.0,-2.0,-7.0,-2.0,-2.0,0.0
1702490478.1665697,-1.0,6.0,-3.0,-1.0,6.0,3.0,-1.0,0.0
1702490478.1665697,-1.0,-17.0,-11.0,-5.0,-3.0,-1.0,-1.0,-2.0
1702490478.1665697,2.0,2.0,-4.0,1.0,-2.0,-4.0,-1.0,0.0
1702490478.1965792,-5.0,2.0,4.0,3.0,0.0,-1.0,-1.0,-1.0
1702490478.1965792,1.0,6.0,2.0,1.0,-5.0,-3.0,-1.0,-3.0
1702490478.1965792,2.0,15.0,-9.0,-4.0,-2.0,-4.0,0.0,0.0
1702490478.1965792,-2.0,10.0,-3.0,5.0,2.0,1.0,-1.0,1.0
1702490478.2067535,-4.0,-18.0,17.0,-3.0,-2.0,-4.0,-2.0,-1.0
1702490478.2067535,0.0,0.0,-52.0,-5.0,-2.0,2.0,0.0,-1.0
1702490478.2067535,-4.0,15.0,18.0,5.0,5.0,3.0,-3.0,-2.0
1702490478.2067535,2.0,-11.0,1.0,-3.0,-6.0,-2.0,-1.0,-1.0
1702490478.2465694,3.0,4.0,-20.0,-5.0,-2.0,-4.0,-1.0,1.0
1702490478.2465694,-3.0,-20.0,1.0,3.0,-3.0,0.0,-2.0,0.0
1702490478.2465694,-5.0,50.0,14.0,-3.0,-1.0,-3.0,-2.0,-3.0
1702490478.2465694,-1.0,1.0,-13.0,-9.0,-6.0,-1.0,-3.0,-3.0
1702490478.256571,0.0,-3.0,-6.0,-1.0,3.0,0.0,0.0,-2.0
1702490478.256571,5.0,8.0,23.0,4.0,-3.0,-7.0,-2.0,1.0
1702490478.256571,-8.0,-23.0,14.0,7.0,1.0,2.0,-1.0,-3.0
1702490478.256571,-4.0,-22.0,-16.0,-7.0,-2.0,-3.0,-3.0,-1.0
1702490478.2665691,-2.0,21.0,8.0,-4.0,-2.0,1.0,-1.0,-2.0
1702490478.2665691,-4.0,-33.0,-23.0,-4.0,2.0,3.0,1.0,0.0
1702490478.2665691,2.0,3.0,59.0,14.0,-3.0,-3.0,0.0,-2.0
1702490478.2665691,-1.0,-11.0,-29.0,-5.0,-1.0,-2.0,-1.0,-2.0
1702490478.2867928,-1.0,-2.0,39.0,8.0,1.0,-1.0,-3.0,2.0
1702490478.2867928,-3.0,-18.0,-45.0,-4.0,-1.0,0.0,-1.0,-1.0
1702490478.2867928,3.0,-20.0,-28.0,-4.0,-5.0,-6.0,-1.0,2.0
1702490478.2867928,-3.0,14.0,45.0,3.0,-1.0,1.0,-1.0,-3.0
1702490478.3165734,-1.0,-15.0,-26.0,0.0,2.0,0.0,0.0,-3.0
1702490478.3165734,-1.0,6.0,12.0,1.0,-4.0,-2.0,-2.0,-1.0
1702490478.3165734,1.0,-21.0,-23.0,-1.0,5.0,0.0,-1.0,0.0
1702490478.3165734,0.0,5.0,-3.0,-6.0,-8.0,-3.0,1.0,-1.0
1702490478.3365722,-1.0,15.0,23.0,-3.0,-1.0,2.0,3.0,0.0
1702490478.3365722,1.0,5.0,5.0,4.0,-2.0,-1.0,-3.0,-3.0
1702490478.3365722,-1.0,-13.0,-21.0,-11.0,-3.0,-2.0,-3.0,-1.0
1702490478.3365722,-3.0,-14.0,-1.0,8.0,0.0,0.0,-1.0,0.0
1702490478.3465955,-1.0,2.0,4.0,3.0,7.0,0.0,1.0,1.0
1702490478.3465955,-2.0,-8.0,9.0,-6.0,-4.0,-1.0,1.0,-1.0
1702490478.3465955,2.0,19.0,-16.0,-7.0,-2.0,-4.0,-3.0,-3.0
1702490478.3465955,2.0,-27.0,-8.0,0.0,-2.0,0.0,1.0,-1.0
1702490478.3769362,-2.0,19.0,-16.0,-5.0,-5.0,-3.0,-1.0,-4.0
1702490478.3769362,-3.0,-4.0,9.0,1.0,0.0,1.0,0.0,-1.0
1702490478.3769362,0.0,18.0,6.0,-8.0,0.0,-2.0,-3.0,-1.0
1702490478.3769362,-6.0,-7.0,52.0,9.0,0.0,-4.0,-1.0,-3.0
1702490478.3869646,0.0,11.0,-65.0,-4.0,3.0,6.0,-1.0,-2.0
1702490478.3869646,1.0,-6.0,17.0,1.0,-1.0,-2.0,0.0,-1.0
1702490478.3869646,2.0,-3.0,-1.0,-6.0,-5.0,-3.0,-1.0,-1.0
1702490478.3869646,-5.0,12.0,3.0,-3.0,-1.0,-2.0,-2.0,-2.0
1702490478.4073575,2.0,-8.0,26.0,4.0,-6.0,-1.0,-1.0,1.0
1702490478.4073575,-1.0,11.0,9.0,-6.0,4.0,1.0,0.0,-1.0
1702490478.4073575,0.0,0.0,1.0,0.0,-9.0,-10.0,1.0,-1.0
1702490478.4073575,-1.0,-2.0,-14.0,-4.0,9.0,7.0,1.0,-2.0
1702490478.4372015,-2.0,-2.0,6.0,1.0,2.0,4.0,-1.0,-4.0
1702490478.4372015,1.0,-41.0,-10.0,-5.0,-4.0,-3.0,-3.0,-2.0
1702490478.4372015,0.0,-5.0,-1.0,8.0,0.0,0.0,-1.0,0.0
1702490478.4372015,3.0,6.0,-12.0,-3.0,-6.0,-6.0,-2.0,1.0
1702490478.4475849,-4.0,-7.0,-3.0,1.0,-1.0,-1.0,-1.0,-1.0
1702490478.4475849,-1.0,14.0,2.0,-5.0,-4.0,-3.0,-2.0,-1.0
1702490478.4475849,-2.0,-39.0,-29.0,-9.0,0.0,-1.0,0.0,-1.0
1702490478.4475849,1.0,-7.0,10.0,5.0,1.0,0.0,-1.0,1.0
1702490478.4674969,-1.0,8.0,-23.0,-4.0,-4.0,0.0,-1.0,-3.0
1702490478.4674969,-1.0,4.0,-19.0,-5.0,-2.0,-1.0,-2.0,-2.0
1702490478.4674969,0.0,12.0,-1.0,4.0,-1.0,2.0,-2.0,-3.0
1702490478.4674969,0.0,-8.0,2.0,3.0,2.0,3.0,-3.0,0.0
1702490478.4972024,0.0,-3.0,-3.0,-2.0,2.0,3.0,1.0,0.0
1702490478.4972024,-5.0,1.0,0.0,0.0,-1.0,-2.0,1.0,0.0
1702490478.4972024,-3.0,1.0,0.0,4.0,0.0,0.0,-4.0,-2.0
1702490478.4972024,-4.0,-9.0,2.0,-11.0,-6.0,-3.0,0.0,-2.0
1702490478.5073462,2.0,-13.0,11.0,3.0,-1.0,-3.0,0.0,1.0
1702490478.5073462,-1.0,-12.0,24.0,0.0,-1.0,-1.0,-2.0,-3.0
1702490478.517457,1.0,6.0,-25.0,-1.0,-1.0,-3.0,1.0,3.0
1702490478.517457,-2.0,-16.0,-45.0,-12.0,5.0,3.0,-1.0,0.0
1702490478.5274959,0.0,22.0,-2.0,-1.0,-3.0,-2.0,-4.0,-1.0
1702490478.5274959,0.0,-5.0,38.0,2.0,-4.0,-4.0,-1.0,0.0
1702490478.5274959,-4.0,-15.0,-3.0,1.0,-4.0,-3.0,-1.0,-2.0
1702490478.5274959,0.0,14.0,-36.0,0.0,-5.0,-3.0,-1.0,-1.0
1702490478.5644398,0.0,-9.0,1.0,-5.0,-1.0,-1.0,1.0,1.0
1702490478.5644398,0.0,39.0,-10.0,5.0,0.0,-4.0,-2.0,0.0
1702490478.5744412,1.0,4.0,41.0,1.0,0.0,5.0,0.0,-1.0
1702490478.5744412,-1.0,29.0,-27.0,1.0,-4.0,-4.0,-2.0,-3.0
1702490478.5744412,-2.0,-4.0,6.0,-7.0,-2.0,0.0,-2.0,-3.0
1702490478.5744412,2.0,4.0,11.0,3.0,-2.0,0.0,-1.0,2.0
1702490478.5744412,0.0,7.0,-36.0,-6.0,0.0,-1.0,-1.0,-1.0
1702490478.5744412,0.0,-1.0,27.0,-2.0,-1.0,-1.0,-1.0,-1.0
1702490478.584785,-1.0,-9.0,3.0,1.0,0.0,-3.0,2.0,-1.0
1702490478.594838,-1.0,5.0,-35.0,-1.0,0.0,0.0,-1.0,-4.0
1702490478.594838,-1.0,15.0,23.0,3.0,-3.0,-2.0,-2.0,-1.0
1702490478.594838,3.0,-4.0,7.0,-5.0,0.0,3.0,2.0,-1.0
1702490478.6147976,-6.0,-19.0,-40.0,-6.0,-5.0,-4.0,-4.0,-2.0
1702490478.6147976,-1.0,2.0,36.0,8.0,0.0,-2.0,-2.0,2.0
1702490478.6147976,0.0,7.0,-36.0,-8.0,0.0,1.0,0.0,0.0
1702490478.6147976,-1.0,-1.0,6.0,7.0,1.0,5.0,1.0,0.0
1702490478.625119,1.0,-5.0,24.0,-4.0,-1.0,0.0,-1.0,-2.0
1702490478.625119,-5.0,-1.0,-20.0,1.0,-3.0,-4.0,-2.0,-1.0
1702490478.625119,0.0,1.0,25.0,-4.0,1.0,-2.0,-2.0,-8.0
1702490478.625119,-1.0,3.0,13.0,4.0,-1.0,-1.0,-2.0,-2.0
1702490478.6448073,-4.0,-11.0,4.0,-1.0,1.0,-2.0,1.0,-2.0
1702490478.6448073,3.0,21.0,-14.0,-5.0,-2.0,-1.0,-2.0,-6.0
1702490478.654806,-1.0,4.0,17.0,2.0,0.0,0.0,-2.0,4.0
1702490478.654806,-2.0,-11.0,7.0,0.0,-1.0,0.0,0.0,-3.0
1702490478.6750603,3.0,-20.0,-11.0,-2.0,-1.0,-1.0,-2.0,-1.0
1702490478.6750603,-1.0,-13.0,-10.0,-7.0,-1.0,-5.0,-1.0,3.0
1702490478.6750603,-2.0,-4.0,-3.0,6.0,3.0,7.0,0.0,0.0
1702490478.6750603,-2.0,-1.0,15.0,-10.0,-3.0,-4.0,-3.0,-3.0
1702490478.684803,-2.0,6.0,-19.0,-2.0,-3.0,0.0,0.0,0.0
1702490478.684803,3.0,-3.0,18.0,8.0,2.0,-1.0,-1.0,-1.0
1702490478.684803,-6.0,-15.0,2.0,-9.0,-4.0,-5.0,-1.0,0.0
1702490478.684803,-2.0,-16.0,-1.0,5.0,3.0,2.0,0.0,-1.0
1702490478.7348003,-2.0,10.0,44.0,1.0,-4.0,-2.0,-2.0,-2.0
1702490478.7348003,-1.0,3.0,5.0,1.0,2.0,1.0,-2.0,-4.0
1702490478.7348003,0.0,-22.0,-45.0,-10.0,-2.0,-4.0,1.0,-2.0
1702490478.7348003,-2.0,7.0,77.0,13.0,-3.0,-2.0,-1.0,2.0
1702490478.744829,1.0,7.0,-14.0,-5.0,-3.0,-5.0,-2.0,-1.0
1702490478.744829,0.0,-7.0,-23.0,-9.0,-3.0,0.0,1.0,0.0
1702490478.744829,-3.0,1.0,47.0,4.0,1.0,-1.0,-1.0,-2.0
1702490478.744829,2.0,5.0,8.0,0.0,-1.0,-2.0,-1.0,1.0
1702490478.744829,-1.0,1.0,-27.0,8.0,10.0,5.0,0.0,-1.0
1702490478.744829,-4.0,-8.0,-9.0,-6.0,-6.0,-2.0,0.0,-2.0
1702490478.744829,0.0,-9.0,-31.0,-13.0,-2.0,0.0,-1.0,1.0
1702490478.744829,-2.0,0.0,-21.0,-9.0,-5.0,-7.0,-3.0,-3.0
1702490478.7752266,-1.0,6.0,38.0,9.0,-3.0,-3.0,-3.0,-2.0
1702490478.7752266,1.0,-3.0,-27.0,-2.0,-1.0,2.0,0.0,-1.0
1702490478.7752266,1.0,9.0,-3.0,11.0,3.0,0.0,0.0,-2.0
1702490478.7752266,2.0,-3.0,-3.0,-3.0,-3.0,-2.0,-1.0,8.0
1702490478.7955432,-3.0,-1.0,-6.0,-8.0,-1.0,-1.0,-1.0,-6.0
1702490478.7955432,-2.0,-3.0,8.0,1.0,1.0,-2.0,0.0,-3.0
1702490478.7955432,0.0,1.0,10.0,2.0,-1.0,-3.0,-1.0,-1.0
1702490478.7955432,-9.0,2.0,-13.0,7.0,2.0,-1.0,1.0,-1.0
1702490478.8154852,12.0,-3.0,-4.0,-6.0,-4.0,-2.0,0.0,11.0
1702490478.8154852,-8.0,-3.0,0.0,0.0,0.0,0.0,1.0,-9.0
1702490478.8154852,6.0,3.0,9.0,2.0,-5.0,-3.0,4.0,2.0
1702490478.8154852,-6.0,3.0,-8.0,-1.0,1.0,-1.0,-5.0,-4.0
1702490478.8349721,-4.0,-10.0,-53.0,-11.0,-3.0,-1.0,-1.0,-2.0
1702490478.8349721,0.0,-4.0,11.0,-1.0,-3.0,-1.0,-3.0,-1.0
1702490478.8349721,-2.0,-1.0,-11.0,-4.0,0.0,-6.0,-2.0,-1.0
1702490478.8349721,1.0,21.0,3.0,-5.0,-1.0,1.0,0.0,-3.0
1702490478.8552887,-5.0,19.0,33.0,5.0,-4.0,-1.0,-5.0,0.0
1702490478.8552887,1.0,-8.0,14.0,3.0,-1.0,1.0,5.0,4.0
1702490478.8552887,-6.0,27.0,-15.0,4.0,6.0,1.0,-5.0,-4.0
1702490478.8552887,4.0,-25.0,4.0,-1.0,-2.0,-1.0,1.0,-2.0
1702490478.865001,-5.0,-27.0,5.0,3.0,0.0,-3.0,2.0,-1.0
1702490478.865001,3.0,-6.0,-7.0,-6.0,-6.0,-1.0,-1.0,1.0
1702490478.8949945,4.0,15.0,11.0,5.0,4.0,3.0,0.0,2.0
1702490478.8949945,-2.0,4.0,-34.0,-5.0,0.0,1.0,-1.0,-4.0
1702490478.8949945,-1.0,17.0,14.0,2.0,-5.0,-8.0,-3.0,2.0
1702490478.8949945,-3.0,-13.0,-5.0,1.0,5.0,5.0,-1.0,-5.0
1702490478.8949945,-1.0,-3.0,-8.0,-2.0,-4.0,0.0,-1.0,-3.0
1702490478.8949945,-1.0,-11.0,-12.0,-10.0,-6.0,-3.0,-6.0,-4.0
1702490478.915321,-2.0,-9.0,8.0,23.0,5.0,-4.0,7.0,1.0
1702490478.915321,-4.0,1.0,8.0,-4.0,-4.0,2.0,-3.0,-1.0
1702490478.915321,2.0,-3.0,4.0,-25.0,-5.0,-2.0,2.0,2.0
1702490478.915321,3.0,5.0,-10.0,5.0,5.0,-1.0,4.0,1.0
1702490478.9253159,-4.0,4.0,18.0,-12.0,-11.0,-6.0,-5.0,-5.0
1702490478.9253159,-2.0,3.0,-5.0,11.0,3.0,-1.0,-4.0,-2.0
1702490478.944993,0.0,-9.0,-5.0,-4.0,9.0,4.0,-2.0,-1.0
1702490478.944993,0.0,-5.0,0.0,-3.0,-2.0,-1.0,-1.0,1.0
1702490478.9550006,-1.0,3.0,-6.0,5.0,4.0,2.0,1.0,-3.0
1702490478.9550006,0.0,0.0,4.0,0.0,-6.0,-8.0,-1.0,0.0
1702490478.9550006,-4.0,13.0,-11.0,1.0,-6.0,7.0,-2.0,-4.0
1702490478.9550006,1.0,-9.0,10.0,-2.0,-2.0,-4.0,-1.0,-2.0
1702490478.9752464,-1.0,0.0,-19.0,-1.0,2.0,3.0,-2.0,-4.0
1702490478.9752464,-2.0,24.0,51.0,2.0,0.0,-1.0,1.0,0.0
1702490478.9752464,-2.0,-33.0,-15.0,-6.0,-7.0,-5.0,-2.0,0.0
1702490478.9752464,4.0,9.0,-13.0,-11.0,1.0,-1.0,-1.0,2.0
1702490478.9949963,-1.0,-4.0,2.0,16.0,5.0,3.0,2.0,-2.0
1702490478.9949963,-1.0,32.0,12.0,-4.0,-4.0,-2.0,-2.0,0.0
1702490478.9949963,-4.0,-11.0,20.0,11.0,3.0,-2.0,-2.0,-4.0
1702490478.9949963,-2.0,-7.0,-32.0,6.0,4.0,4.0,1.0,-2.0
1702490479.015335,-1.0,-19.0,-9.0,-18.0,-8.0,-3.0,-4.0,0.0
1702490479.015335,2.0,0.0,-1.0,-4.0,4.0,-1.0,-1.0,0.0
1702490479.015335,0.0,2.0,21.0,5.0,-6.0,-4.0,-1.0,0.0
1702490479.015335,0.0,0.0,-39.0,-9.0,-4.0,2.0,-5.0,-5.0
1702490479.044996,-3.0,24.0,25.0,-1.0,0.0,1.0,1.0,-1.0
1702490479.044996,0.0,-22.0,-35.0,-4.0,-6.0,-3.0,-1.0,0.0
1702490479.044996,-2.0,25.0,18.0,7.0,5.0,2.0,-1.0,-2.0
1702490479.044996,-5.0,15.0,19.0,-3.0,0.0,-4.0,2.0,-2.0
1702490479.044996,0.0,5.0,-12.0,-4.0,-4.0,-1.0,-3.0,-1.0
1702490479.044996,3.0,-33.0,-1.0,0.0,-2.0,-1.0,-1.0,1.0
1702490479.0549963,-1.0,-1.0,-7.0,0.0,0.0,-4.0,1.0,0.0
1702490479.0549963,-3.0,-11.0,-11.0,4.0,-3.0,-4.0,-1.0,0.0
1702490479.0649958,-2.0,-6.0,-1.0,-15.0,-4.0,-2.0,-2.0,-4.0
1702490479.0649958,-3.0,-1.0,-7.0,-6.0,-3.0,-4.0,-1.0,0.0
1702490479.0749974,2.0,8.0,4.0,9.0,9.0,3.0,2.0,1.0
1702490479.0749974,1.0,-11.0,-16.0,-1.0,-4.0,-2.0,0.0,0.0
1702490479.0960813,1.0,18.0,9.0,-3.0,2.0,2.0,-1.0,0.0
1702490479.0960813,-3.0,-6.0,-13.0,2.0,-4.0,0.0,-5.0,-3.0
1702490479.097321,-4.0,-14.0,-5.0,-5.0,-8.0,-5.0,-3.0,-3.0
1702490479.097321,-1.0,1.0,19.0,10.0,1.0,3.0,0.0,0.0
1702490479.1073222,0.0,-14.0,-24.0,-4.0,-1.0,-1.0,0.0,1.0
1702490479.1073222,0.0,29.0,5.0,-7.0,3.0,1.0,-2.0,-3.0
1702490479.1177108,-5.0,-6.0,20.0,5.0,-9.0,-5.0,-2.0,-3.0
1702490479.1177108,0.0,-11.0,14.0,-4.0,-5.0,-6.0,-4.0,-1.0
1702490479.127563,-1.0,-10.0,-5.0,0.0,1.0,-1.0,-1.0,0.0
1702490479.127563,-2.0,-3.0,-18.0,1.0,2.0,0.0,1.0,-1.0
1702490479.127563,1.0,-10.0,-21.0,-7.0,-2.0,-1.0,-2.0,-1.0
1702490479.127563,2.0,10.0,16.0,-2.0,-3.0,-3.0,-2.0,-1.0
1702490479.1560528,-6.0,-15.0,4.0,0.0,1.0,3.0,-2.0,-4.0
1702490479.1560528,-2.0,-43.0,-38.0,-7.0,-8.0,-3.0,-2.0,-1.0
1702490479.1560528,-2.0,-2.0,-21.0,-1.0,3.0,-1.0,0.0,0.0
1702490479.1560528,1.0,9.0,20.0,9.0,11.0,6.0,1.0,0.0
1702490479.1658285,-1.0,3.0,6.0,2.0,-1.0,-1.0,0.0,-3.0
1702490479.1658285,0.0,12.0,-10.0,4.0,3.0,-1.0,2.0,0.0
1702490479.1760635,-3.0,-14.0,-13.0,-7.0,-12.0,-5.0,-3.0,-3.0
1702490479.1760635,-2.0,1.0,-4.0,0.0,-3.0,-2.0,-1.0,-1.0
1702490479.1858423,1.0,33.0,-7.0,-2.0,5.0,1.0,-1.0,2.0
1702490479.1858423,1.0,29.0,31.0,6.0,-2.0,-2.0,1.0,0.0
1702490479.1858423,1.0,-6.0,-4.0,3.0,4.0,3.0,-1.0,0.0
1702490479.19587,0.0,1.0,5.0,-4.0,-3.0,-3.0,-1.0,0.0
1702490479.2160547,0.0,-5.0,0.0,0.0,-2.0,-1.0,0.0,-1.0
1702490479.2160547,0.0,0.0,1.0,-4.0,-1.0,-7.0,0.0,0.0
1702490479.2160547,-2.0,5.0,3.0,-10.0,-4.0,1.0,0.0,1.0
1702490479.2160547,1.0,6.0,-10.0,5.0,-2.0,-2.0,-1.0,-1.0
1702490479.2259932,-3.0,-38.0,-24.0,3.0,2.0,2.0,-2.0,-2.0
1702490479.2259932,-9.0,-13.0,-14.0,-5.0,6.0,1.0,-1.0,-1.0
1702490479.265826,2.0,7.0,18.0,2.0,-4.0,-2.0,-1.0,0.0
1702490479.265826,-3.0,-6.0,3.0,-6.0,-3.0,0.0,0.0,-1.0
1702490479.265826,0.0,-22.0,-14.0,0.0,-3.0,-5.0,-1.0,1.0
1702490479.265826,-2.0,-3.0,14.0,-7.0,-1.0,3.0,-2.0,-3.0
1702490479.265826,0.0,-18.0,-1.0,1.0,1.0,1.0,2.0,1.0
1702490479.265826,-3.0,5.0,2.0,-5.0,-3.0,-2.0,-2.0,-2.0
1702490479.275826,2.0,14.0,0.0,-3.0,-4.0,-5.0,-1.0,0.0
1702490479.275826,0.0,-1.0,0.0,2.0,0.0,2.0,2.0,0.0
1702490479.275826,-2.0,12.0,3.0,-1.0,-5.0,-5.0,-1.0,-2.0
1702490479.275826,0.0,0.0,-2.0,-4.0,1.0,2.0,-2.0,0.0
1702490479.2967055,-1.0,-11.0,-5.0,-2.0,-4.0,-1.0,-1.0,-3.0
1702490479.2967055,-2.0,-2.0,2.0,2.0,-3.0,-2.0,-3.0,-2.0
1702490479.2967055,0.0,7.0,6.0,-2.0,4.0,2.0,-1.0,-1.0
1702490479.2967055,3.0,0.0,14.0,4.0,-1.0,-6.0,0.0,1.0
1702490479.3062978,-2.0,32.0,-27.0,-6.0,-2.0,3.0,-1.0,-2.0
1702490479.3062978,-1.0,17.0,-4.0,-3.0,-2.0,0.0,-1.0,-2.0
1702490479.3062978,1.0,-9.0,-10.0,-2.0,-3.0,-2.0,-2.0,-2.0
1702490479.3062978,-2.0,-9.0,5.0,-4.0,-2.0,-3.0,0.0,-1.0
1702490479.3357592,1.0,-7.0,8.0,-2.0,-1.0,0.0,-1.0,0.0
1702490479.3357592,-3.0,-2.0,9.0,-2.0,-6.0,-3.0,0.0,-1.0
1702490479.3357592,-1.0,2.0,-7.0,-5.0,-3.0,0.0,-3.0,-4.0
1702490479.3357592,-4.0,-9.0,-18.0,-3.0,0.0,-1.0,-1.0,-1.0
1702490479.3561354,-2.0,4.0,-1.0,1.0,-5.0,-8.0,2.0,1.0
1702490479.3561354,0.0,-7.0,2.0,2.0,2.0,5.0,1.0,1.0
1702490479.3561354,-1.0,15.0,7.0,-3.0,1.0,-3.0,-3.0,-3.0
1702490479.3561354,0.0,-6.0,2.0,-2.0,-8.0,-5.0,-5.0,0.0
1702490479.3658674,-2.0,5.0,24.0,-3.0,2.0,0.0,0.0,-3.0
1702490479.3658674,-3.0,-5.0,-20.0,1.0,2.0,0.0,-2.0,-2.0
1702490479.3658674,1.0,-7.0,0.0,1.0,-1.0,1.0,0.0,2.0
1702490479.3658674,-2.0,-1.0,-4.0,0.0,-1.0,0.0,0.0,-3.0
1702490479.396065,-1.0,11.0,8.0,4.0,-5.0,-3.0,-2.0,-1.0
1702490479.396065,1.0,-8.0,2.0,-6.0,3.0,-1.0,-2.0,-1.0
1702490479.396065,-4.0,-6.0,-6.0,13.0,-2.0,-3.0,-3.0,-3.0
1702490479.396065,4.0,12.0,-3.0,-2.0,3.0,2.0,0.0,1.0
1702490479.416322,-4.0,12.0,6.0,-4.0,0.0,1.0,1.0,1.0
1702490479.416322,-3.0,3.0,9.0,2.0,-2.0,-5.0,1.0,-1.0
1702490479.416322,5.0,4.0,-11.0,-1.0,-1.0,3.0,0.0,-1.0
1702490479.416322,-2.0,-34.0,-9.0,-7.0,-5.0,-4.0,-4.0,-1.0
1702490479.426071,1.0,-10.0,11.0,2.0,4.0,0.0,0.0,0.0
1702490479.426071,-1.0,-5.0,-20.0,-10.0,-6.0,-4.0,-1.0,1.0
1702490479.426071,1.0,22.0,5.0,-9.0,-1.0,0.0,3.0,3.0
1702490479.426071,-3.0,-26.0,-5.0,22.0,4.0,1.0,0.0,-3.0
1702490479.4660661,-3.0,11.0,15.0,2.0,2.0,0.0,0.0,-1.0
1702490479.4660661,0.0,-7.0,-1.0,-6.0,-6.0,-3.0,-2.0,-3.0
1702490479.4660661,-1.0,-24.0,-7.0,-5.0,-5.0,-3.0,-2.0,0.0
1702490479.4660661,0.0,9.0,4.0,-5.0,-1.0,2.0,0.0,-1.0
1702490479.4761016,1.0,-9.0,-17.0,2.0,-1.0,-3.0,-1.0,0.0
1702490479.4761016,-2.0,9.0,1.0,2.0,-1.0,0.0,-3.0,0.0
1702490479.4761016,-6.0,-21.0,23.0,-1.0,-1.0,-2.0,-5.0,-4.0
1702490479.4761016,0.0,5.0,-25.0,0.0,6.0,2.0,3.0,-2.0
1702490479.486069,-2.0,-40.0,-25.0,-14.0,-7.0,-1.0,-3.0,-3.0
1702490479.486069,-2.0,-10.0,10.0,4.0,0.0,-1.0,-1.0,-2.0
1702490479.4960692,-1.0,-9.0,-30.0,-3.0,2.0,-3.0,-1.0,-1.0
1702490479.4960692,3.0,24.0,18.0,-4.0,-6.0,-5.0,-1.0,-1.0
1702490479.5164301,-2.0,5.0,12.0,-1.0,-1.0,-1.0,-2.0,-3.0
1702490479.5164301,3.0,24.0,-1.0,-5.0,-7.0,-1.0,-2.0,1.0
1702490479.5164301,-3.0,-3.0,-5.0,-1.0,1.0,-2.0,0.0,-2.0
1702490479.5164301,-3.0,-22.0,10.0,7.0,1.0,3.0,0.0,-2.0
1702490479.5364475,3.0,11.0,-20.0,-6.0,1.0,0.0,1.0,-2.0
1702490479.5364475,1.0,5.0,3.0,3.0,-1.0,-2.0,-1.0,0.0
1702490479.5364475,-1.0,10.0,11.0,0.0,2.0,1.0,-2.0,-1.0
1702490479.5364475,0.0,-1.0,-34.0,-8.0,-2.0,-3.0,-2.0,0.0
1702490479.546068,-6.0,7.0,10.0,-2.0,-4.0,-1.0,0.0,0.0
1702490479.546068,2.0,-11.0,-14.0,2.0,1.0,2.0,0.0,3.0
1702490479.546068,2.0,-1.0,1.0,0.0,1.0,-3.0,1.0,-7.0
1702490479.546068,-1.0,2.0,37.0,9.0,2.0,-1.0,3.0,4.0
1702490479.576099,-11.0,-8.0,16.0,-4.0,-5.0,-2.0,-1.0,-30.0
1702490479.576099,-21.0,-1.0,-42.0,2.0,3.0,1.0,-5.0,-13.0
1702490479.576099,16.0,-3.0,-18.0,-14.0,-5.0,-6.0,-4.0,-9.0
1702490479.576099,2.0,-7.0,16.0,9.0,3.0,-3.0,-2.0,-4.0
1702490479.596428,10.0,-21.0,23.0,7.0,5.0,5.0,1.0,3.0
1702490479.596428,-1.0,-15.0,29.0,1.0,0.0,1.0,0.0,14.0
1702490479.596428,-10.0,29.0,-11.0,-4.0,-2.0,-2.0,-1.0,-2.0
1702490479.596428,-5.0,18.0,-10.0,-9.0,-7.0,-2.0,1.0,4.0
1702490479.6138463,3.0,-7.0,29.0,7.0,0.0,-3.0,-2.0,4.0
1702490479.6148446,2.0,-5.0,-2.0,2.0,0.0,-3.0,-2.0,-5.0
1702490479.6148446,-2.0,-13.0,-23.0,-2.0,0.0,3.0,-1.0,7.0
1702490479.6148446,1.0,-12.0,30.0,3.0,-1.0,-3.0,-3.0,-2.0
1702490479.6468155,0.0,32.0,-23.0,1.0,0.0,-4.0,-3.0,5.0
1702490479.6468155,3.0,0.0,26.0,0.0,0.0,-1.0,-1.0,-3.0
1702490479.6468155,-1.0,0.0,-21.0,5.0,3.0,0.0,2.0,3.0
1702490479.6468155,-7.0,26.0,3.0,-10.0,-6.0,-3.0,-6.0,-5.0
1702490479.65712,0.0,-7.0,2.0,-3.0,-2.0,0.0,-2.0,2.0
1702490479.65712,0.0,-8.0,-49.0,-18.0,-9.0,-7.0,-1.0,-1.0
1702490479.65712,-2.0,-8.0,20.0,4.0,-2.0,10.0,-5.0,-2.0
1702490479.65712,-1.0,0.0,-14.0,-16.0,-6.0,-5.0,0.0,-3.0
1702490479.6768143,-5.0,-5.0,0.0,-1.0,2.0,0.0,1.0,6.0
1702490479.6768143,1.0,1.0,-25.0,-1.0,2.0,-3.0,0.0,12.0
1702490479.6768143,5.0,20.0,16.0,11.0,-1.0,-4.0,-3.0,-14.0
1702490479.6768143,-6.0,-47.0,-9.0,-6.0,-3.0,-2.0,-2.0,-3.0
1702490479.6968458,-2.0,11.0,-26.0,1.0,-4.0,-10.0,-7.0,-4.0
1702490479.6968458,4.0,9.0,22.0,0.0,3.0,12.0,8.0,5.0
1702490479.6968458,-4.0,-15.0,42.0,6.0,1.0,8.0,-9.0,2.0
1702490479.6968458,5.0,-14.0,-12.0,-4.0,-5.0,-8.0,11.0,6.0
1702490479.727218,-3.0,1.0,-17.0,-7.0,-3.0,-11.0,-4.0,0.0
1702490479.727218,-3.0,-8.0,4.0,4.0,-3.0,-12.0,-3.0,-7.0
1702490479.727218,7.0,1.0,-73.0,-6.0,4.0,8.0,7.0,5.0
1702490479.727218,-8.0,-40.0,45.0,-5.0,-4.0,-1.0,-5.0,-7.0
1702490479.727218,-1.0,20.0,46.0,-6.0,-3.0,4.0,2.0,3.0
1702490479.727218,2.0,3.0,-3.0,2.0,-3.0,1.0,-8.0,-6.0
1702490479.727218,-4.0,36.0,19.0,-5.0,-2.0,-4.0,0.0,2.0
1702490479.727218,2.0,5.0,-16.0,0.0,1.0,-1.0,-5.0,-8.0
1702490479.7470493,6.0,14.0,-23.0,-1.0,-3.0,-1.0,2.0,6.0
1702490479.7470493,2.0,2.0,-25.0,-4.0,0.0,-2.0,2.0,-4.0
1702490479.7570565,-10.0,-36.0,29.0,-1.0,0.0,-4.0,3.0,0.0
1702490479.7570565,2.0,29.0,-48.0,-15.0,-3.0,-2.0,-6.0,-4.0
1702490479.7770495,-3.0,-23.0,41.0,27.0,6.0,3.0,-1.0,4.0
1702490479.7770495,2.0,12.0,35.0,10.0,2.0,-1.0,-5.0,-2.0
1702490479.7870479,-5.0,-17.0,33.0,-6.0,-8.0,-8.0,-1.0,1.0
1702490479.7870479,0.0,19.0,-11.0,-7.0,-4.0,2.0,0.0,5.0
1702490479.7870479,-2.0,-30.0,3.0,1.0,-8.0,-6.0,-1.0,-1.0
1702490479.7870479,-3.0,6.0,24.0,-4.0,11.0,6.0,0.0,-3.0
1702490479.7870479,-3.0,-16.0,-55.0,-2.0,10.0,5.0,3.0,0.0
1702490479.7870479,-4.0,-2.0,12.0,16.0,3.0,4.0,-2.0,-2.0
1702490479.817049,2.0,2.0,-23.0,-2.0,4.0,0.0,0.0,-5.0
1702490479.817049,3.0,-22.0,-3.0,-2.0,-8.0,-7.0,2.0,-3.0
1702490479.817049,0.0,-2.0,19.0,-3.0,-4.0,-8.0,-4.0,1.0
1702490479.817049,1.0,10.0,6.0,4.0,-1.0,1.0,-1.0,0.0
1702490479.847046,0.0,2.0,-17.0,-15.0,-6.0,-2.0,-2.0,1.0
1702490479.847046,-3.0,-19.0,4.0,-1.0,4.0,-2.0,2.0,0.0
1702490479.847046,-1.0,20.0,2.0,4.0,-2.0,-3.0,0.0,-2.0
1702490479.847046,1.0,3.0,14.0,1.0,-1.0,-2.0,-2.0,2.0
1702490479.847046,-3.0,-13.0,-17.0,-4.0,-5.0,-2.0,-1.0,0.0
1702490479.847046,-3.0,4.0,16.0,4.0,3.0,3.0,2.0,-3.0
1702490479.8574028,-1.0,6.0,-10.0,-6.0,-1.0,-1.0,0.0,-1.0
1702490479.8574028,0.0,-2.0,4.0,4.0,-6.0,-4.0,-6.0,-4.0
1702490479.8770487,-4.0,-3.0,8.0,-13.0,6.0,2.0,-1.0,1.0
1702490479.8770487,-3.0,-13.0,-29.0,-2.0,-2.0,4.0,-2.0,-3.0
1702490479.8770487,-5.0,-14.0,-22.0,-2.0,-1.0,-3.0,0.0,-1.0
1702490479.8770487,3.0,4.0,43.0,-3.0,-3.0,-3.0,0.0,1.0
1702490479.8972976,-4.0,-27.0,-8.0,-12.0,-4.0,-1.0,-2.0,-3.0
1702490479.8972976,4.0,12.0,19.0,7.0,-1.0,-7.0,1.0,2.0
1702490479.8972976,-1.0,7.0,24.0,15.0,5.0,4.0,2.0,2.0
1702490479.8972976,-5.0,-4.0,-54.0,5.0,0.0,-4.0,-1.0,-1.0
1702490479.9170477,2.0,13.0,-6.0,1.0,7.0,10.0,1.0,-1.0
1702490479.9170477,0.0,6.0,-1.0,-13.0,-4.0,-3.0,-1.0,1.0
1702490479.9170477,1.0,8.0,29.0,0.0,-5.0,-5.0,-4.0,-5.0
1702490479.9170477,1.0,13.0,-23.0,-4.0,3.0,1.0,2.0,2.0
1702490479.9274323,-2.0,0.0,17.0,12.0,1.0,0.0,-2.0,-4.0
1702490479.9369395,-8.0,-1.0,-31.0,-2.0,-8.0,-6.0,-3.0,0.0
1702490479.9369395,4.0,14.0,-1.0,0.0,6.0,1.0,0.0,1.0
1702490479.9369395,-3.0,1.0,24.0,8.0,4.0,1.0,-2.0,-1.0
1702490479.9571872,2.0,-10.0,-44.0,-7.0,-5.0,-5.0,-2.0,1.0
1702490479.9571872,1.0,-2.0,12.0,-1.0,0.0,2.0,0.0,-1.0
1702490479.9571872,-3.0,-8.0,4.0,0.0,-4.0,-3.0,-2.0,1.0
1702490479.9571872,-3.0,-14.0,5.0,-2.0,3.0,7.0,-2.0,-2.0
1702490479.9669588,1.0,-12.0,-10.0,3.0,2.0,1.0,3.0,0.0
1702490479.9669588,-1.0,-10.0,34.0,-2.0,-4.0,-7.0,-2.0,-3.0
1702490479.977323,-2.0,19.0,-32.0,-4.0,-8.0,2.0,-3.0,-3.0
1702490479.977323,2.0,1.0,-12.0,-3.0,-3.0,-3.0,1.0,5.0
1702490479.9872568,2.0,-31.0,6.0,-1.0,0.0,-2.0,-2.0,-1.0
1702490479.9969518,-3.0,2.0,-21.0,0.0,0.0,0.0,-1.0,-2.0
1702490479.9969518,1.0,-18.0,-1.0,-2.0,-1.0,-3.0,2.0,1.0
1702490479.9969518,-3.0,12.0,8.0,-3.0,-1.0,2.0,0.0,-3.0
1702490480.0173306,-2.0,-1.0,-15.0,-2.0,-7.0,-5.0,-3.0,-3.0
1702490480.0173306,-1.0,-4.0,31.0,-8.0,-1.0,0.0,-1.0,1.0
1702490480.0173306,0.0,-5.0,4.0,21.0,12.0,2.0,2.0,2.0
1702490480.0173306,-4.0,-6.0,-30.0,-5.0,-4.0,-3.0,0.0,-1.0
1702490480.027208,1.0,16.0,13.0,-1.0,-4.0,0.0,0.0,0.0
1702490480.027208,1.0,1.0,-28.0,-8.0,1.0,0.0,-3.0,-3.0
1702490480.037325,0.0,-4.0,15.0,-10.0,-12.0,-4.0,-4.0,-3.0
1702490480.037325,1.0,10.0,20.0,18.0,3.0,1.0,-1.0,-4.0
1702490480.047219,0.0,10.0,1.0,-9.0,-11.0,-5.0,0.0,-4.0
1702490480.047219,-1.0,4.0,-11.0,2.0,-3.0,3.0,-2.0,0.0
1702490480.0569553,-3.0,-5.0,-21.0,1.0,1.0,-2.0,-3.0,-2.0
1702490480.0569553,0.0,-2.0,5.0,-7.0,-2.0,-1.0,-2.0,0.0
1702490480.077281,-1.0,9.0,1.0,3.0,-2.0,-4.0,-1.0,-1.0
1702490480.077281,1.0,15.0,-14.0,-10.0,-5.0,-7.0,-2.0,0.0
1702490480.077281,-3.0,-5.0,40.0,-14.0,-4.0,1.0,-2.0,-2.0
1702490480.077281,0.0,5.0,-21.0,11.0,1.0,-3.0,-1.0,-2.0
1702490480.0869482,-3.0,0.0,38.0,-8.0,-4.0,-2.0,-3.0,-1.0
1702490480.0869482,1.0,5.0,58.0,-3.0,15.0,2.0,-2.0,0.0
1702490480.097195,0.0,-5.0,-67.0,3.0,-8.0,-3.0,-2.0,-1.0
1702490480.097195,-2.0,-5.0,-51.0,-11.0,-3.0,0.0,-2.0,-3.0
1702490480.1072712,0.0,25.0,35.0,9.0,7.0,4.0,1.0,0.0
1702490480.1072712,-3.0,-36.0,-49.0,9.0,-3.0,0.0,-2.0,-3.0
1702490480.116949,0.0,-2.0,18.0,-5.0,-6.0,-5.0,1.0,0.0
1702490480.116949,-1.0,-2.0,18.0,-10.0,1.0,1.0,1.0,0.0
1702490480.139193,-2.0,8.0,-13.0,7.0,4.0,2.0,0.0,0.0
1702490480.139193,2.0,5.0,-20.0,-12.0,-4.0,-2.0,1.0,0.0
1702490480.1402147,-3.0,8.0,12.0,8.0,2.0,4.0,-2.0,0.0
1702490480.1402147,1.0,-1.0,0.0,-7.0,-7.0,-4.0,-2.0,-1.0
1702490480.1561234,1.0,1.0,-6.0,3.0,1.0,1.0,-2.0,-1.0
1702490480.1561234,1.0,22.0,11.0,9.0,2.0,-2.0,-1.0,0.0
1702490480.162114,1.0,-9.0,-9.0,-11.0,-4.0,-3.0,0.0,0.0
1702490480.162114,-3.0,15.0,5.0,-2.0,1.0,-1.0,-1.0,-2.0
1702490480.1832094,-3.0,-4.0,1.0,-1.0,-4.0,-7.0,-2.0,-3.0
1702490480.1832094,-3.0,37.0,-6.0,-4.0,0.0,6.0,1.0,2.0
1702490480.1832094,-1.0,-42.0,8.0,3.0,3.0,2.0,5.0,-3.0
1702490480.1832094,2.0,-28.0,1.0,1.0,-1.0,-2.0,1.0,5.0
1702490480.1934378,-1.0,1.0,-28.0,-10.0,1.0,-3.0,-3.0,-7.0
1702490480.1934378,-2.0,-5.0,21.0,14.0,-2.0,-2.0,3.0,-2.0
1702490480.1934378,2.0,19.0,3.0,-6.0,-4.0,-5.0,-6.0,3.0
1702490480.1934378,-1.0,-3.0,9.0,4.0,2.0,7.0,3.0,4.0
1702490480.213226,-4.0,-10.0,-22.0,-8.0,-1.0,-3.0,-4.0,1.0
1702490480.213226,6.0,-29.0,6.0,7.0,-2.0,-7.0,-4.0,0.0
1702490480.2232244,-9.0,35.0,16.0,5.0,0.0,-1.0,-3.0,-7.0
1702490480.2232244,-1.0,-1.0,-21.0,-7.0,-3.0,-7.0,-2.0,0.0
1702490480.253212,4.0,20.0,-8.0,1.0,3.0,3.0,3.0,2.0
1702490480.253212,-7.0,-36.0,-5.0,-5.0,-4.0,-2.0,-3.0,-4.0
1702490480.253212,4.0,28.0,-13.0,-5.0,-2.0,-4.0,-5.0,-1.0
1702490480.253212,-3.0,15.0,16.0,2.0,3.0,-1.0,-2.0,-2.0
1702490480.253212,-4.0,-11.0,33.0,4.0,0.0,2.0,1.0,0.0
1702490480.253212,1.0,13.0,-23.0,-2.0,-1.0,-2.0,-1.0,2.0
1702490480.253212,0.0,-29.0,-56.0,-9.0,-2.0,1.0,1.0,2.0
1702490480.253212,-8.0,4.0,31.0,-4.0,-4.0,-2.0,-2.0,-6.0
1702490480.273614,9.0,-2.0,13.0,14.0,5.0,0.0,-3.0,-1.0
1702490480.273614,0.0,11.0,27.0,-1.0,-8.0,-4.0,-3.0,-2.0
1702490480.2832634,-1.0,-10.0,-75.0,-21.0,-1.0,-4.0,-1.0,-1.0
1702490480.2832634,2.0,0.0,58.0,6.0,-2.0,-1.0,-1.0,-4.0
1702490480.2933707,-4.0,5.0,39.0,-3.0,3.0,-5.0,1.0,-1.0
1702490480.2933707,-1.0,6.0,17.0,3.0,-5.0,6.0,-1.0,-4.0
1702490480.2933707,-2.0,-15.0,4.0,-10.0,3.0,0.0,1.0,1.0
1702490480.2933707,-2.0,8.0,-5.0,-5.0,-4.0,1.0,-4.0,-4.0
1702490480.3134818,0.0,-6.0,-15.0,-5.0,-5.0,-1.0,-1.0,1.0
1702490480.3134818,-3.0,-2.0,2.0,-1.0,4.0,2.0,-1.0,-2.0
1702490480.3134818,10.0,13.0,36.0,11.0,-4.0,-3.0,1.0,5.0
1702490480.3134818,-3.0,-8.0,-19.0,-1.0,0.0,3.0,0.0,-2.0
1702490480.3332121,0.0,1.0,19.0,-4.0,-7.0,-1.0,1.0,0.0
1702490480.3332121,-1.0,-2.0,10.0,11.0,0.0,-4.0,-2.0,-1.0
1702490480.3332121,-4.0,10.0,21.0,-1.0,0.0,-1.0,1.0,-2.0
1702490480.3332121,-1.0,-34.0,-47.0,-5.0,4.0,0.0,0.0,-2.0
1702490480.353637,-1.0,-5.0,-18.0,-5.0,-6.0,-3.0,0.0,0.0
1702490480.353637,2.0,10.0,42.0,8.0,1.0,5.0,1.0,2.0
1702490480.353637,-2.0,-4.0,-29.0,7.0,1.0,-4.0,-2.0,-2.0
1702490480.353637,-2.0,7.0,2.0,3.0,1.0,1.0,-1.0,-1.0
1702490480.3736517,0.0,7.0,9.0,8.0,4.0,-2.0,1.0,3.0
1702490480.3736517,3.0,-4.0,-22.0,-10.0,-2.0,-1.0,-1.0,0.0
1702490480.3736517,2.0,-21.0,18.0,2.0,-1.0,-2.0,-1.0,-2.0
1702490480.3736517,-2.0,5.0,-17.0,-8.0,-6.0,-5.0,-2.0,10.0
1702490480.4032154,-7.0,2.0,-1.0,5.0,1.0,2.0,-3.0,-21.0
1702490480.4032154,1.0,-6.0,-30.0,-8.0,-3.0,-10.0,-11.0,-2.0
1702490480.4032154,-13.0,-6.0,24.0,-2.0,-4.0,6.0,3.0,0.0
1702490480.4032154,9.0,-4.0,11.0,5.0,1.0,1.0,10.0,6.0
1702490480.4132342,-9.0,-6.0,-19.0,-2.0,-2.0,-2.0,-4.0,0.0
1702490480.4132342,-2.0,-10.0,-13.0,-4.0,3.0,0.0,0.0,-5.0
1702490480.4132342,0.0,31.0,16.0,-3.0,-2.0,-7.0,-9.0,-5.0
1702490480.4132342,-2.0,-18.0,22.0,13.0,1.0,-8.0,-7.0,0.0
1702490480.4335952,-2.0,-22.0,-15.0,-7.0,-4.0,2.0,4.0,1.0
1702490480.4335952,-2.0,8.0,-19.0,-7.0,-1.0,-4.0,2.0,-1.0
1702490480.4335952,-4.0,-7.0,8.0,2.0,-2.0,3.0,-4.0,-1.0
1702490480.4335952,1.0,-3.0,-29.0,-4.0,-1.0,2.0,-3.0,-3.0
1702490480.453372,5.0,4.0,-1.0,2.0,0.0,-2.0,-3.0,4.0
1702490480.453372,-3.0,1.0,2.0,-2.0,-5.0,-2.0,-1.0,-2.0
1702490480.453372,1.0,-17.0,-12.0,3.0,4.0,4.0,0.0,-4.0
1702490480.453372,1.0,9.0,29.0,6.0,-8.0,-8.0,-3.0,-3.0
1702490480.4737866,-4.0,-8.0,-20.0,-30.0,5.0,4.0,-1.0,-4.0
1702490480.4737866,2.0,3.0,-2.0,24.0,3.0,0.0,5.0,5.0
1702490480.4737866,0.0,6.0,40.0,22.0,3.0,6.0,-1.0,-1.0
1702490480.4737866,1.0,18.0,-4.0,-11.0,-11.0,-8.0,-1.0,-2.0
1702490480.4937327,3.0,12.0,-4.0,9.0,8.0,6.0,1.0,5.0
1702490480.4937327,-5.0,-2.0,-13.0,-14.0,-5.0,-2.0,-2.0,-4.0
1702490480.4937327,2.0,-1.0,8.0,-28.0,14.0,-1.0,2.0,1.0
1702490480.4937327,1.0,8.0,-2.0,32.0,9.0,6.0,-1.0,-1.0
1702490480.5233693,-2.0,-6.0,20.0,7.0,-15.0,-8.0,-5.0,2.0
1702490480.5233693,-3.0,0.0,13.0,4.0,5.0,-1.0,-6.0,-7.0
1702490480.5233693,2.0,-8.0,-30.0,-2.0,-6.0,-4.0,2.0,1.0
1702490480.5233693,-1.0,-1.0,-16.0,-16.0,1.0,4.0,0.0,4.0
1702490480.5337129,1.0,2.0,-5.0,-15.0,-3.0,-3.0,-3.0,-3.0
1702490480.5337129,-4.0,-3.0,7.0,24.0,4.0,0.0,1.0,0.0
1702490480.5337129,-4.0,-3.0,-20.0,-7.0,-6.0,1.0,-7.0,-6.0
1702490480.5337129,-1.0,-5.0,-3.0,-15.0,1.0,-3.0,-1.0,-3.0
1702490480.5633724,-1.0,3.0,59.0,22.0,0.0,3.0,1.0,-1.0
1702490480.5633724,-2.0,-2.0,-55.0,-19.0,-3.0,1.0,-3.0,1.0
1702490480.5633724,-5.0,-1.0,11.0,-3.0,-5.0,-5.0,-4.0,-2.0
1702490480.5633724,3.0,12.0,13.0,2.0,6.0,1.0,3.0,3.0
1702490480.5736012,-3.0,16.0,-8.0,-4.0,-7.0,-4.0,-2.0,-1.0
1702490480.5736012,-2.0,-1.0,29.0,-9.0,-3.0,-4.0,1.0,-2.0
1702490480.583421,0.0,3.0,-10.0,-3.0,-4.0,-1.0,1.0,2.0
1702490480.583421,-1.0,6.0,8.0,2.0,-2.0,-6.0,-2.0,-3.0
1702490480.5936606,-1.0,1.0,10.0,6.0,-1.0,0.0,0.0,-3.0
1702490480.5936606,-1.0,-4.0,-18.0,-6.0,-1.0,0.0,-11.0,-11.0
1702490480.5936606,-1.0,2.0,8.0,4.0,0.0,-2.0,-1.0,5.0
1702490480.5936606,-1.0,2.0,10.0,-6.0,-2.0,1.0,6.0,3.0
1702490480.613388,6.0,-10.0,-41.0,0.0,1.0,3.0,9.0,1.0
1702490480.613388,-4.0,-18.0,1.0,-5.0,-4.0,1.0,-2.0,-2.0
1702490480.6333768,1.0,0.0,4.0,5.0,-3.0,-2.0,-6.0,-7.0
1702490480.6333768,-7.0,-16.0,-24.0,-6.0,-3.0,-8.0,-7.0,-2.0
1702490480.653371,-3.0,0.0,-33.0,-3.0,4.0,-1.0,-5.0,2.0
1702490480.653371,2.0,7.0,31.0,7.0,3.0,2.0,8.0,1.0
1702490480.653371,-2.0,-4.0,-6.0,1.0,-5.0,-5.0,-1.0,0.0
1702490480.653371,-2.0,-5.0,-3.0,-7.0,-1.0,0.0,0.0,-1.0
1702490480.653371,-1.0,3.0,2.0,3.0,-1.0,-3.0,-2.0,-1.0
1702490480.653371,1.0,3.0,1.0,-5.0,-7.0,-2.0,0.0,0.0
1702490480.653371,-1.0,-5.0,-6.0,3.0,4.0,1.0,3.0,2.0
1702490480.653371,-3.0,-2.0,-17.0,-1.0,0.0,3.0,-4.0,-6.0
1702490480.6870925,-1.0,-4.0,5.0,2.0,-4.0,-1.0,-3.0,-3.0
1702490480.6870925,-1.0,1.0,12.0,-5.0,2.0,0.0,-1.0,3.0
1702490480.6876721,-2.0,-2.0,5.0,-3.0,-5.0,0.0,2.0,3.0
1702490480.6876721,-2.0,1.0,39.0,3.0,-2.0,1.0,-1.0,-5.0
1702490480.696105,-2.0,-5.0,-35.0,-5.0,0.0,-1.0,-4.0,-2.0
1702490480.696105,-5.0,-9.0,-55.0,-5.0,0.0,-1.0,2.0,1.0
1702490480.696105,1.0,5.0,42.0,3.0,1.0,-2.0,0.0,-3.0
1702490480.696105,-1.0,-3.0,-49.0,-1.0,0.0,2.0,-3.0,-3.0
1702490480.7161076,-2.0,2.0,22.0,-6.0,-2.0,-1.0,-1.0,1.0
1702490480.7161076,1.0,0.0,9.0,1.0,-2.0,-2.0,1.0,0.0
1702490480.7161076,-2.0,-13.0,-4.0,-3.0,-1.0,-2.0,-1.0,-4.0
1702490480.7161076,-2.0,-1.0,-29.0,-6.0,-3.0,-7.0,-1.0,2.0
1702490480.7361064,-2.0,-4.0,-1.0,-4.0,-3.0,3.0,2.0,-2.0
1702490480.7361064,-4.0,-3.0,-8.0,0.0,-2.0,-1.0,-2.0,-2.0
1702490480.7361064,3.0,7.0,10.0,5.0,-3.0,0.0,-1.0,1.0
1702490480.7361064,5.0,3.0,46.0,2.0,3.0,1.0,1.0,3.0
1702490480.7540636,-2.0,-2.0,-19.0,-4.0,-3.0,-5.0,-3.0,-1.0
1702490480.7540636,-5.0,-5.0,31.0,-4.0,-3.0,-4.0,-1.0,-1.0
1702490480.7540636,-2.0,2.0,-1.0,2.0,-2.0,0.0,1.0,-2.0
1702490480.7540636,-1.0,-2.0,15.0,1.0,0.0,1.0,-1.0,-1.0
1702490480.7742498,3.0,12.0,5.0,-1.0,1.0,-3.0,-1.0,-2.0
1702490480.7742498,-1.0,17.0,-10.0,3.0,-1.0,0.0,-1.0,-2.0
1702490480.7742498,-3.0,-16.0,-2.0,3.0,-2.0,-2.0,-1.0,-2.0
1702490480.7742498,-3.0,-7.0,-17.0,-7.0,-1.0,0.0,-2.0,-3.0
1702490480.7941532,-2.0,-5.0,10.0,-3.0,3.0,2.0,0.0,-2.0
1702490480.7941532,0.0,0.0,-5.0,-4.0,-3.0,-2.0,-4.0,-1.0
1702490480.7941532,-2.0,2.0,-9.0,-5.0,0.0,-2.0,-3.0,-1.0
1702490480.7941532,0.0,3.0,15.0,5.0,0.0,0.0,-2.0,-1.0
1702490480.814312,-1.0,-7.0,-8.0,-1.0,-4.0,-3.0,-2.0,0.0
1702490480.814312,2.0,13.0,12.0,1.0,-1.0,-1.0,-1.0,2.0
1702490480.814312,-2.0,-4.0,-26.0,-9.0,1.0,1.0,-1.0,-2.0
1702490480.814312,-2.0,-26.0,4.0,-3.0,-5.0,-4.0,-2.0,-3.0
1702490480.834155,0.0,10.0,11.0,3.0,0.0,1.0,-1.0,-3.0
1702490480.834155,0.0,-6.0,6.0,2.0,-1.0,-3.0,0.0,2.0
1702490480.864078,0.0,-12.0,-11.0,-10.0,-4.0,-2.0,-4.0,-2.0
1702490480.864078,0.0,2.0,1.0,6.0,2.0,-5.0,0.0,1.0
1702490480.864078,2.0,-5.0,-1.0,-13.0,-6.0,3.0,2.0,0.0
1702490480.864078,-4.0,-40.0,-7.0,16.0,12.0,2.0,1.0,-1.0
1702490480.864078,1.0,14.0,20.0,9.0,-1.0,1.0,1.0,0.0
1702490480.864078,0.0,20.0,-17.0,-2.0,-3.0,0.0,-1.0,-2.0
1702490480.8744035,-4.0,-34.0,-18.0,-1.0,-7.0,-7.0,0.0,0.0
1702490480.8744035,-2.0,20.0,7.0,-16.0,-8.0,-4.0,-2.0,-1.0
1702490480.8744035,-1.0,-3.0,18.0,8.0,7.0,3.0,0.0,-3.0
1702490480.8744035,2.0,30.0,34.0,7.0,15.0,7.0,-1.0,1.0
1702490480.894201,3.0,18.0,12.0,13.0,1.0,-3.0,-2.0,1.0
1702490480.894201,-3.0,-31.0,-30.0,-14.0,-7.0,-4.0,-3.0,-4.0
1702490480.9040763,-1.0,-8.0,-14.0,-10.0,-7.0,-10.0,-1.0,1.0
1702490480.9040763,-2.0,22.0,-10.0,-3.0,-9.0,1.0,-1.0,-4.0
1702490480.914223,1.0,-7.0,13.0,6.0,11.0,2.0,-3.0,0.0
1702490480.914223,-1.0,11.0,0.0,-4.0,2.0,-1.0,0.0,1.0
1702490480.914223,0.0,40.0,-8.0,5.0,-11.0,-5.0,-2.0,-1.0
1702490480.914223,-1.0,-15.0,10.0,-2.0,1.0,1.0,0.0,-1.0
1702490480.934355,-3.0,4.0,13.0,3.0,9.0,4.0,0.0,0.0
1702490480.934355,2.0,-10.0,3.0,-8.0,-5.0,1.0,1.0,1.0
1702490480.934355,-2.0,-11.0,-17.0,13.0,0.0,-2.0,-2.0,-4.0
1702490480.934355,-5.0,-16.0,-21.0,-15.0,-9.0,-2.0,-4.0,-3.0
1702490480.9640756,0.0,3.0,-17.0,-5.0,1.0,-3.0,-2.0,0.0
1702490480.9640756,4.0,13.0,27.0,20.0,16.0,7.0,0.0,-1.0
1702490480.9640756,0.0,-10.0,-26.0,-9.0,4.0,2.0,-1.0,1.0
1702490480.9640756,-2.0,-12.0,-13.0,2.0,-8.0,-7.0,-3.0,0.0
1702490480.974075,-3.0,-9.0,-21.0,-5.0,-4.0,-5.0,0.0,0.0
1702490480.974075,0.0,8.0,19.0,2.0,1.0,3.0,1.0,0.0
1702490480.974075,-1.0,-11.0,2.0,-9.0,-3.0,-2.0,-1.0,2.0
1702490480.974075,-1.0,-4.0,34.0,8.0,-3.0,-2.0,-1.0,-4.0
1702490480.9944222,-1.0,-1.0,-13.0,-6.0,-5.0,-5.0,-1.0,1.0
1702490480.9944222,1.0,6.0,-36.0,0.0,-2.0,1.0,1.0,-1.0
1702490480.9944222,-4.0,-11.0,15.0,1.0,1.0,-1.0,-1.0,-2.0
1702490480.9944222,1.0,-7.0,-10.0,-8.0,3.0,0.0,-1.0,1.0
1702490481.014075,-2.0,9.0,43.0,10.0,-2.0,-1.0,-1.0,-2.0
1702490481.014075,-3.0,0.0,-14.0,6.0,2.0,-1.0,0.0,-2.0
1702490481.0241578,4.0,1.0,7.0,-31.0,-7.0,0.0,1.0,0.0
1702490481.0241578,0.0,-12.0,32.0,13.0,2.0,0.0,-2.0,-3.0
1702490481.0343575,-2.0,12.0,-41.0,-8.0,-14.0,-2.0,-2.0,-2.0
1702490481.0343575,3.0,31.0,22.0,6.0,5.0,-1.0,1.0,0.0
1702490481.0343575,-5.0,-24.0,-15.0,1.0,1.0,6.0,-1.0,-3.0
1702490481.0343575,-2.0,-3.0,1.0,-6.0,-6.0,-2.0,-1.0,-1.0
1702490481.0543077,-3.0,-22.0,-16.0,-16.0,-2.0,0.0,-1.0,-3.0
1702490481.0543077,0.0,16.0,19.0,9.0,-4.0,-1.0,0.0,0.0
1702490481.0543077,0.0,18.0,-7.0,4.0,5.0,1.0,0.0,-1.0
1702490481.0543077,-1.0,-15.0,-13.0,0.0,-3.0,-8.0,-4.0,1.0
1702490481.0840752,-3.0,18.0,12.0,-1.0,0.0,1.0,-2.0,0.0
1702490481.0840752,-2.0,-19.0,7.0,-6.0,-7.0,-1.0,-2.0,-2.0
1702490481.0840752,1.0,-18.0,8.0,10.0,11.0,5.0,0.0,0.0
1702490481.0840752,-4.0,-2.0,-21.0,-5.0,-5.0,-2.0,-1.0,-4.0
1702490481.0944095,-1.0,-5.0,16.0,14.0,4.0,-2.0,-3.0,-3.0
1702490481.0944095,2.0,-22.0,-23.0,-17.0,-6.0,-5.0,-4.0,1.0
1702490481.0944095,-5.0,27.0,1.0,-1.0,-5.0,-8.0,-2.0,-3.0
1702490481.0944095,-1.0,-6.0,15.0,-1.0,0.0,4.0,3.0,-1.0
1702490481.114422,-3.0,7.0,-59.0,-8.0,-2.0,-1.0,-5.0,-1.0
1702490481.114422,0.0,-25.0,-5.0,2.0,-2.0,-2.0,-3.0,-2.0
1702490481.114422,-1.0,-2.0,13.0,5.0,6.0,2.0,0.0,0.0
1702490481.114422,3.0,20.0,-25.0,-3.0,4.0,0.0,-1.0,-1.0
1702490481.1340747,3.0,-5.0,26.0,-3.0,0.0,-2.0,1.0,-2.0
1702490481.1340747,-4.0,14.0,14.0,-5.0,-10.0,-3.0,-2.0,-2.0
1702490481.1442761,1.0,-7.0,-15.0,-1.0,-4.0,-4.0,-1.0,0.0
1702490481.1442761,-3.0,7.0,-3.0,-9.0,-4.0,1.0,-2.0,-1.0
1702490481.1545193,-2.0,-20.0,7.0,8.0,6.0,2.0,2.0,-1.0
1702490481.1545193,3.0,3.0,-44.0,-9.0,-1.0,1.0,0.0,2.0
1702490481.1545193,0.0,5.0,23.0,0.0,-5.0,-3.0,-1.0,1.0
1702490481.1545193,3.0,-4.0,3.0,4.0,4.0,-4.0,1.0,1.0
1702490481.1740792,-7.0,-18.0,4.0,8.0,-3.0,-2.0,-1.0,-2.0
1702490481.1740792,-5.0,-32.0,-1.0,-7.0,-3.0,0.0,0.0,-1.0
1702490481.1740792,0.0,10.0,-10.0,-5.0,-7.0,-3.0,-1.0,0.0
1702490481.1740792,-4.0,-13.0,-12.0,0.0,7.0,3.0,-3.0,-4.0
1702490481.1959085,4.0,9.0,33.0,-1.0,3.0,0.0,-2.0,0.0
1702490481.1959085,1.0,2.0,-13.0,-1.0,2.0,-3.0,0.0,-1.0
1702490481.2059116,3.0,0.0,24.0,5.0,0.0,-1.0,-3.0,0.0
1702490481.2059116,-2.0,6.0,-65.0,-12.0,-8.0,-6.0,0.0,0.0
1702490481.2161682,-4.0,-15.0,-1.0,-3.0,-1.0,0.0,0.0,-3.0
1702490481.2161682,-1.0,47.0,14.0,6.0,6.0,2.0,-1.0,0.0
1702490481.2161682,-4.0,-8.0,-3.0,3.0,-1.0,-2.0,-1.0,-2.0
1702490481.2161682,-1.0,16.0,11.0,-5.0,0.0,2.0,1.0,-2.0
1702490481.2546933,-1.0,-2.0,-4.0,-2.0,-3.0,4.0,-4.0,-2.0
1702490481.2546933,-1.0,-12.0,-9.0,-5.0,-5.0,-3.0,-1.0,0.0
1702490481.2546933,-1.0,0.0,-13.0,-1.0,-1.0,-1.0,0.0,-4.0
1702490481.2546933,-1.0,7.0,34.0,14.0,-2.0,0.0,-3.0,-1.0
1702490481.264705,0.0,-5.0,-52.0,-18.0,0.0,-2.0,1.0,-2.0
1702490481.264705,0.0,-3.0,18.0,2.0,-1.0,0.0,1.0,0.0
1702490481.264705,2.0,4.0,39.0,6.0,1.0,-2.0,-2.0,0.0
1702490481.264705,-1.0,-9.0,-32.0,3.0,1.0,4.0,-1.0,1.0
1702490481.274991,-2.0,10.0,41.0,-5.0,-6.0,-7.0,-4.0,-2.0
1702490481.274991,-4.0,-28.0,-22.0,-7.0,-3.0,-1.0,-1.0,-2.0
1702490481.274991,-2.0,-2.0,-25.0,0.0,0.0,-2.0,-3.0,-2.0
1702490481.274991,1.0,-7.0,16.0,0.0,-1.0,14.0,-5.0,-2.0
1702490481.3047018,0.0,18.0,19.0,8.0,0.0,-12.0,10.0,4.0
1702490481.3047018,-5.0,10.0,18.0,-2.0,-1.0,1.0,2.0,5.0
1702490481.3047018,-3.0,-10.0,-22.0,-3.0,-2.0,2.0,6.0,-7.0
1702490481.3047018,-5.0,25.0,28.0,-2.0,-1.0,-7.0,-7.0,-7.0
1702490481.3248112,0.0,8.0,-24.0,-6.0,-3.0,5.0,-2.0,-2.0
1702490481.3248112,3.0,-9.0,22.0,5.0,-1.0,-3.0,-3.0,0.0
1702490481.3248112,-4.0,-2.0,-7.0,-2.0,-3.0,-3.0,-3.0,0.0
1702490481.3248112,-4.0,-5.0,-5.0,-5.0,-2.0,-3.0,1.0,2.0
1702490481.3350656,0.0,-25.0,-6.0,1.0,-1.0,-5.0,-2.0,1.0
1702490481.3350656,1.0,-3.0,-8.0,0.0,-1.0,3.0,0.0,-4.0
1702490481.3350656,0.0,9.0,-3.0,-5.0,0.0,1.0,-2.0,1.0
1702490481.3350656,1.0,-5.0,-4.0,-3.0,-5.0,-6.0,1.0,0.0
1702490481.354702,0.0,21.0,7.0,1.0,4.0,0.0,0.0,0.0
1702490481.354702,-4.0,-9.0,-5.0,0.0,4.0,-1.0,1.0,-1.0
1702490481.354702,3.0,-10.0,2.0,8.0,4.0,5.0,0.0,0.0
1702490481.354702,1.0,1.0,-47.0,-14.0,-2.0,-3.0,-1.0,0.0
1702490481.3847659,0.0,-10.0,1.0,-8.0,-9.0,-7.0,-1.0,0.0
1702490481.3847659,8.0,-18.0,-25.0,6.0,1.0,3.0,-2.0,-3.0
1702490481.3847659,-6.0,-17.0,10.0,-15.0,-10.0,1.0,0.0,-1.0
1702490481.3847659,1.0,5.0,11.0,2.0,-1.0,-4.0,-2.0,-1.0
1702490481.4147024,1.0,8.0,-2.0,1.0,-7.0,0.0,0.0,-2.0
1702490481.4147024,1.0,3.0,-5.0,17.0,6.0,1.0,-1.0,-2.0
1702490481.4147024,0.0,3.0,-13.0,8.0,3.0,-4.0,0.0,0.0
1702490481.4147024,1.0,-42.0,18.0,-12.0,-8.0,1.0,0.0,1.0
1702490481.4147024,-2.0,-6.0,0.0,-12.0,-6.0,0.0,-3.0,-4.0
1702490481.4147024,-6.0,-6.0,-24.0,-10.0,-1.0,-1.0,-3.0,-2.0
1702490481.4147024,5.0,41.0,22.0,24.0,6.0,0.0,1.0,3.0
1702490481.4147024,-3.0,66.0,6.0,-8.0,1.0,-7.0,1.0,-2.0
1702490481.4447787,3.0,-27.0,-2.0,11.0,-1.0,4.0,-1.0,-2.0
1702490481.4447787,3.0,11.0,10.0,-5.0,-8.0,-5.0,1.0,0.0
1702490481.4447787,-7.0,-41.0,-33.0,-4.0,4.0,-1.0,-5.0,-4.0
1702490481.4447787,-4.0,-2.0,-12.0,-4.0,2.0,2.0,3.0,0.0
1702490481.4647005,0.0,4.0,17.0,12.0,-1.0,-4.0,-2.0,0.0
1702490481.4647005,0.0,90.0,18.0,2.0,7.0,-1.0,-1.0,-1.0
1702490481.4647005,0.0,-27.0,-6.0,-16.0,-5.0,-1.0,0.0,1.0
1702490481.4647005,-1.0,-35.0,13.0,26.0,1.0,-4.0,-2.0,-1.0
1702490481.4750624,0.0,19.0,1.0,-4.0,2.0,2.0,-2.0,-1.0
1702490481.4750624,-4.0,-19.0,0.0,-10.0,0.0,1.0,-3.0,0.0
1702490481.4750624,3.0,21.0,-12.0,-2.0,1.0,-5.0,-2.0,-1.0
1702490481.4750624,1.0,-9.0,27.0,3.0,0.0,6.0,-1.0,1.0
1702490481.5047498,-15.0,-16.0,-35.0,4.0,1.0,6.0,-1.0,-3.0
1702490481.5047498,-11.0,-32.0,-10.0,-12.0,-10.0,-7.0,-1.0,-5.0
1702490481.5047498,6.0,2.0,-6.0,-9.0,-4.0,-6.0,0.0,-1.0
1702490481.5047498,4.0,3.0,20.0,11.0,2.0,-2.0,-2.0,-1.0
1702490481.5247025,-9.0,-35.0,-42.0,-10.0,0.0,0.0,-1.0,1.0
1702490481.5247025,5.0,-28.0,-48.0,-11.0,-2.0,0.0,-2.0,-2.0
1702490481.5247025,5.0,10.0,31.0,1.0,1.0,-1.0,-2.0,-2.0
1702490481.5247025,-11.0,-27.0,-31.0,-6.0,-3.0,-4.0,0.0,-2.0
1702490481.535047,11.0,29.0,-11.0,-8.0,-3.0,1.0,-1.0,2.0
1702490481.535047,-2.0,62.0,41.0,11.0,3.0,-1.0,-1.0,1.0
1702490481.535047,-4.0,-40.0,-5.0,-9.0,-5.0,-1.0,-1.0,-1.0
1702490481.535047,9.0,14.0,13.0,3.0,3.0,8.0,0.0,-1.0
1702490481.5647507,-5.0,6.0,25.0,3.0,3.0,-1.0,-2.0,-3.0
1702490481.5647507,-2.0,-6.0,14.0,-1.0,-2.0,0.0,2.0,0.0
1702490481.5647507,-3.0,7.0,-11.0,-4.0,-4.0,-2.0,1.0,-1.0
1702490481.5647507,1.0,0.0,-11.0,0.0,-3.0,-1.0,-1.0,0.0
1702490481.5847003,-2.0,-11.0,-18.0,0.0,-1.0,-6.0,-1.0,-1.0
1702490481.5847003,-2.0,-13.0,15.0,-3.0,1.0,3.0,-3.0,-3.0
1702490481.5847003,-3.0,-11.0,-17.0,2.0,-1.0,2.0,-3.0,-4.0
1702490481.5847003,-3.0,-19.0,-12.0,-7.0,-2.0,-4.0,-3.0,-5.0
1702490481.5947614,4.0,-6.0,21.0,4.0,-2.0,-1.0,-3.0,-1.0
1702490481.5947614,2.0,-3.0,2.0,3.0,2.0,-7.0,0.0,0.0
1702490481.5947614,-2.0,6.0,6.0,0.0,-1.0,1.0,2.0,2.0
1702490481.5947614,-1.0,6.0,-23.0,-9.0,1.0,-1.0,-1.0,0.0
1702490481.6247027,2.0,4.0,36.0,7.0,3.0,-3.0,2.0,0.0
1702490481.6247027,-5.0,-32.0,-20.0,-10.0,-8.0,-3.0,0.0,-1.0
1702490481.6247027,0.0,40.0,6.0,-2.0,-5.0,3.0,-2.0,-1.0
1702490481.6247027,-7.0,-23.0,-22.0,0.0,4.0,0.0,-4.0,-3.0
1702490481.634737,0.0,-3.0,6.0,3.0,5.0,0.0,-1.0,-1.0
1702490481.634737,-3.0,-17.0,-46.0,-10.0,-6.0,-4.0,-3.0,0.0
1702490481.634737,1.0,2.0,13.0,4.0,1.0,-3.0,-1.0,0.0
1702490481.634737,0.0,3.0,2.0,-9.0,-9.0,-6.0,-3.0,0.0
1702490481.6549785,1.0,2.0,-14.0,-5.0,-4.0,2.0,0.0,1.0
1702490481.6549785,-1.0,14.0,19.0,6.0,-1.0,0.0,-3.0,-4.0
1702490481.6549785,-1.0,-5.0,2.0,16.0,14.0,2.0,1.0,-2.0
1702490481.6549785,1.0,1.0,-11.0,-3.0,-1.0,1.0,0.0,1.0
1702490481.704701,-3.0,9.0,-1.0,-4.0,-5.0,-2.0,-2.0,-3.0
1702490481.704701,2.0,5.0,14.0,1.0,-2.0,-1.0,0.0,0.0
1702490481.704701,-3.0,-23.0,-7.0,-1.0,-2.0,1.0,-6.0,-2.0
1702490481.704701,-1.0,-18.0,9.0,1.0,2.0,1.0,-1.0,-2.0
1702490481.704701,1.0,38.0,-6.0,-3.0,8.0,-2.0,-2.0,-1.0
1702490481.704701,-4.0,1.0,8.0,27.0,4.0,5.0,1.0,0.0
1702490481.704701,-4.0,16.0,2.0,-9.0,-17.0,-9.0,-1.0,0.0
1702490481.704701,1.0,-1.0,21.0,8.0,21.0,2.0,-1.0,1.0
1702490481.7149215,-1.0,-12.0,-19.0,5.0,5.0,7.0,-3.0,-1.0
1702490481.7149215,-1.0,5.0,2.0,-10.0,-5.0,-5.0,-4.0,-2.0
1702490481.7289042,1.0,17.0,1.0,-22.0,-4.0,-2.0,0.0,2.0
1702490481.7299283,0.0,3.0,-8.0,22.0,-1.0,-1.0,2.0,-1.0
1702490481.7649055,-2.0,-15.0,54.0,-2.0,-6.0,-4.0,0.0,-2.0
1702490481.7649055,-1.0,3.0,3.0,-5.0,1.0,0.0,0.0,2.0
1702490481.7649055,-1.0,-1.0,-20.0,4.0,3.0,1.0,-1.0,0.0
1702490481.7649055,-4.0,1.0,-40.0,-18.0,-13.0,-6.0,-3.0,-2.0
1702490481.7649055,1.0,11.0,22.0,7.0,8.0,3.0,1.0,0.0
1702490481.7649055,1.0,-14.0,13.0,-10.0,-3.0,-3.0,-2.0,-2.0
1702490481.7649055,0.0,-11.0,-1.0,2.0,-1.0,-2.0,1.0,-1.0
