1702490306.1078281,-4.0,-2.0,-1.0,-2.0,-2.0,-2.0,-1.0,-2.0
1702490306.1178024,0.0,-4.0,-3.0,-2.0,-1.0,-2.0,-2.0,0.0
1702490306.1178024,-2.0,-2.0,0.0,-1.0,-1.0,-1.0,-2.0,-2.0
1702490306.1178024,0.0,1.0,1.0,-3.0,-1.0,-1.0,-1.0,0.0
1702490306.1378381,1.0,0.0,0.0,-1.0,-1.0,-1.0,-3.0,-2.0
1702490306.1378381,0.0,0.0,-1.0,-1.0,-1.0,0.0,-2.0,-1.0
1702490306.1378381,-1.0,-1.0,-2.0,0.0,-1.0,-2.0,-2.0,-1.0
1702490306.1378381,-2.0,-2.0,-1.0,-2.0,-1.0,-2.0,-1.0,-1.0
1702490306.1630263,0.0,-1.0,-3.0,-1.0,-1.0,-1.0,1.0,0.0
1702490306.1630263,-2.0,-1.0,-1.0,0.0,-2.0,-2.0,-2.0,-1.0
1702490306.1639705,1.0,0.0,0.0,0.0,0.0,-1.0,-2.0,0.0
1702490306.1639705,-2.0,-1.0,-1.0,-1.0,-2.0,3.0,0.0,-1.0
1702490306.192998,-1.0,0.0,-1.0,-2.0,-1.0,-2.0,0.0,-1.0
1702490306.192998,0.0,-1.0,-2.0,-2.0,-2.0,-2.0,0.0,0.0
1702490306.192998,-1.0,-1.0,-1.0,-1.0,0.0,-1.0,0.0,-1.0
1702490306.192998,-1.0,-2.0,0.0,-2.0,-1.0,-1.0,-1.0,-1.0
1702490306.192998,-1.0,1.0,-1.0,0.0,-1.0,-2.0,-1.0,0.0
1702490306.192998,-1.0,1.0,-2.0,-2.0,-1.0,-2.0,-1.0,-1.0
1702490306.192998,0.0,0.0,-1.0,1.0,0.0,0.0,-1.0,-2.0
1702490306.192998,-2.0,-2.0,-1.0,2.0,-1.0,1.0,-1.0,-2.0
1702490306.2230012,0.0,-2.0,1.0,0.0,-1.0,0.0,-3.0,-1.0
1702490306.2230012,-1.0,-1.0,0.0,-2.0,1.0,1.0,0.0,0.0
1702490306.233002,1.0,0.0,0.0,-1.0,0.0,0.0,0.0,0.0
1702490306.233002,-1.0,0.0,-1.0,-1.0,0.0,-3.0,-1.0,-1.0
1702490306.2429955,-2.0,-2.0,0.0,1.0,-2.0,-1.0,-1.0,-2.0
1702490306.2429955,-1.0,-1.0,1.0,-1.0,-2.0,-2.0,-1.0,-1.0
1702490306.2429955,-1.0,0.0,0.0,-1.0,-2.0,-1.0,-1.0,-1.0
1702490306.2429955,-2.0,1.0,-1.0,0.0,-1.0,-1.0,0.0,0.0
1702490306.2529962,-1.0,0.0,-1.0,-2.0,0.0,-2.0,-2.0,-1.0
1702490306.2529962,0.0,0.0,-1.0,-1.0,0.0,-1.0,-1.0,-1.0
1702490306.2529962,0.0,-1.0,-1.0,-1.0,0.0,-1.0,-1.0,-2.0
1702490306.2529962,0.0,-2.0,-1.0,-1.0,-1.0,-2.0,0.0,-2.0
1702490306.2829995,-2.0,-1.0,0.0,-1.0,-1.0,-1.0,-1.0,-1.0
1702490306.2829995,-1.0,0.0,-2.0,0.0,-1.0,-1.0,-2.0,-1.0
1702490306.2829995,-1.0,-2.0,-1.0,-1.0,-1.0,0.0,-2.0,0.0
1702490306.2829995,1.0,1.0,0.0,0.0,1.0,-1.0,-1.0,-3.0
1702490306.2932124,0.0,-1.0,0.0,-2.0,0.0,-2.0,0.0,-1.0
1702490306.2932124,-1.0,0.0,-2.0,0.0,-1.0,0.0,-2.0,-2.0
1702490306.2932124,-2.0,-1.0,-1.0,-1.0,-2.0,-1.0,1.0,-2.0
1702490306.2932124,-2.0,-1.0,0.0,-1.0,-2.0,1.0,-1.0,1.0
1702490306.3130443,0.0,-1.0,-1.0,1.0,0.0,0.0,-1.0,-2.0
1702490306.3130443,0.0,-1.0,-2.0,-1.0,-2.0,-1.0,-1.0,-2.0
1702490306.3130443,-2.0,-2.0,-1.0,-1.0,-1.0,-1.0,-1.0,0.0
1702490306.3130443,0.0,-2.0,-1.0,-3.0,-2.0,-1.0,-1.0,0.0
1702490306.343006,-1.0,-2.0,-2.0,-1.0,-1.0,-1.0,-1.0,-2.0
1702490306.343006,1.0,-1.0,-1.0,-1.0,-1.0,0.0,0.0,-1.0
1702490306.343006,0.0,0.0,-3.0,-1.0,-2.0,-2.0,-1.0,-2.0
1702490306.343006,-1.0,-1.0,-3.0,-1.0,-1.0,0.0,0.0,0.0
1702490306.3629982,-1.0,-2.0,-1.0,0.0,-1.0,0.0,0.0,-2.0
1702490306.3629982,-2.0,-2.0,0.0,0.0,-1.0,0.0,0.0,-1.0
1702490306.3629982,-3.0,0.0,-2.0,-1.0,-1.0,-1.0,0.0,-1.0
1702490306.3629982,-1.0,-2.0,0.0,0.0,-1.0,-2.0,-2.0,-1.0
1702490306.3829987,-2.0,0.0,-1.0,0.0,-1.0,-1.0,-2.0,-1.0
1702490306.3829987,-1.0,-2.0,-1.0,-1.0,1.0,-2.0,0.0,0.0
1702490306.3829987,0.0,0.0,-1.0,-1.0,-1.0,-1.0,-1.0,-1.0
1702490306.3829987,-3.0,-2.0,-1.0,-2.0,-2.0,0.0,-1.0,-1.0
1702490306.4030063,-1.0,0.0,-2.0,-2.0,-1.0,-1.0,-2.0,0.0
1702490306.4030063,0.0,0.0,-2.0,0.0,-1.0,-1.0,-1.0,-1.0
1702490306.4030063,-1.0,-1.0,1.0,0.0,-1.0,-2.0,-2.0,0.0
1702490306.4030063,-1.0,-1.0,-1.0,0.0,-1.0,-1.0,-1.0,-1.0
1702490306.4129956,1.0,-2.0,-2.0,-1.0,-2.0,-1.0,-1.0,0.0
1702490306.4129956,-1.0,1.0,0.0,-3.0,-1.0,-1.0,-1.0,-1.0
1702490306.4129956,0.0,-1.0,-1.0,-2.0,-1.0,-1.0,-1.0,-1.0
1702490306.4129956,-2.0,-1.0,-1.0,0.0,-2.0,-3.0,-2.0,-2.0
1702490306.4430313,-3.0,0.0,-3.0,-1.0,-1.0,-3.0,0.0,1.0
1702490306.4430313,-3.0,0.0,-2.0,-1.0,-1.0,-2.0,-1.0,-1.0
1702490306.4430313,-2.0,-2.0,0.0,1.0,-1.0,-2.0,-1.0,-3.0
1702490306.4430313,0.0,0.0,0.0,-1.0,0.0,-3.0,-1.0,-1.0
1702490306.4529958,-1.0,-3.0,-2.0,-1.0,-1.0,-1.0,-1.0,-1.0
1702490306.4529958,-1.0,-2.0,0.0,-2.0,-1.0,-2.0,-1.0,-2.0
1702490306.4629958,-1.0,-1.0,-1.0,-3.0,-2.0,-1.0,-1.0,1.0
1702490306.4629958,-2.0,-3.0,-2.0,0.0,0.0,-1.0,-3.0,-1.0
1702490306.4730332,-1.0,-1.0,0.0,-1.0,-1.0,-1.0,-1.0,-3.0
1702490306.4730332,-3.0,-1.0,-1.0,0.0,2.0,-1.0,-1.0,-2.0
1702490306.4730332,0.0,-1.0,0.0,0.0,-1.0,-2.0,-1.0,-1.0
1702490306.4730332,0.0,0.0,0.0,-1.0,-1.0,-1.0,-1.0,0.0
1702490306.4934208,0.0,-1.0,-1.0,1.0,0.0,-2.0,-1.0,-1.0
1702490306.4934208,-1.0,-2.0,-1.0,1.0,-2.0,-1.0,0.0,0.0
1702490306.4934208,-2.0,-1.0,-2.0,-1.0,1.0,-1.0,-1.0,-2.0
1702490306.4934208,0.0,-1.0,-2.0,-1.0,-1.0,0.0,-1.0,-1.0
1702490306.5129955,-3.0,-1.0,-2.0,-4.0,-2.0,2.0,0.0,-1.0
1702490306.5129955,1.0,0.0,-1.0,-1.0,-2.0,1.0,-2.0,-1.0
1702490306.5230007,-1.0,-2.0,-1.0,0.0,-2.0,-2.0,-1.0,-2.0
1702490306.5230007,-1.0,-1.0,-1.0,-1.0,-1.0,-2.0,0.0,-1.0
1702490306.5330029,0.0,0.0,-1.0,-2.0,-1.0,-1.0,1.0,-1.0
1702490306.5330029,-1.0,-2.0,-1.0,-1.0,0.0,0.0,0.0,-1.0
1702490306.5432813,-1.0,-1.0,-2.0,0.0,0.0,1.0,0.0,-1.0
1702490306.5432813,-2.0,0.0,-2.0,-1.0,-3.0,1.0,-2.0,-2.0
1702490306.553272,0.0,-1.0,0.0,1.0,0.0,-1.0,-1.0,-1.0
1702490306.553272,-1.0,-1.0,-2.0,-1.0,-1.0,0.0,-1.0,0.0
1702490306.553272,-2.0,-1.0,-1.0,0.0,-1.0,-1.0,-2.0,1.0
1702490306.553272,0.0,0.0,1.0,-1.0,-1.0,-2.0,0.0,-1.0
1702490306.592996,-2.0,-1.0,-2.0,-1.0,-1.0,-1.0,-1.0,0.0
1702490306.592996,0.0,-1.0,0.0,-1.0,-1.0,-1.0,-2.0,-1.0
1702490306.592996,0.0,-2.0,-2.0,-3.0,1.0,-2.0,-1.0,-2.0
1702490306.592996,0.0,0.0,-1.0,-2.0,1.0,0.0,1.0,-1.0
1702490306.592996,1.0,1.0,0.0,-1.0,0.0,0.0,-1.0,-2.0
1702490306.592996,0.0,0.0,1.0,-1.0,1.0,0.0,0.0,-2.0
1702490306.602997,0.0,0.0,0.0,-1.0,0.0,1.0,-1.0,1.0
1702490306.602997,-2.0,-2.0,-3.0,0.0,0.0,-3.0,1.0,0.0
1702490306.6229956,-1.0,-1.0,-2.0,-2.0,-1.0,-2.0,-1.0,0.0
1702490306.6229956,-2.0,1.0,0.0,-2.0,-2.0,-1.0,0.0,0.0
1702490306.632998,-1.0,0.0,0.0,0.0,-1.0,-1.0,-1.0,-2.0
1702490306.632998,0.0,-1.0,-2.0,0.0,-1.0,0.0,-1.0,0.0
1702490306.632998,-1.0,-1.0,-1.0,0.0,-1.0,-3.0,-2.0,-1.0
1702490306.632998,0.0,-1.0,-2.0,-2.0,-3.0,-1.0,-2.0,-1.0
1702490306.6429954,0.0,-1.0,0.0,-2.0,-1.0,-2.0,0.0,-1.0
1702490306.6429954,0.0,-2.0,0.0,-1.0,-1.0,0.0,-2.0,-1.0
1702490306.6532671,0.0,0.0,1.0,0.0,1.0,-1.0,-1.0,-3.0
1702490306.6532671,0.0,-1.0,-2.0,-1.0,-1.0,-2.0,-1.0,0.0
1702490306.663282,1.0,0.0,-1.0,-1.0,-2.0,-1.0,-2.0,0.0
1702490306.663282,-2.0,-2.0,-2.0,0.0,-1.0,-2.0,-1.0,-1.0
1702490306.703691,-2.0,-2.0,-1.0,-1.0,-1.0,-2.0,0.0,-1.0
1702490306.703691,0.0,-1.0,1.0,-1.0,0.0,0.0,-1.0,0.0
1702490306.703691,-1.0,-2.0,-1.0,0.0,-1.0,-1.0,-1.0,0.0
1702490306.703691,-2.0,0.0,-3.0,-2.0,-1.0,-1.0,0.0,0.0
1702490306.703691,0.0,-1.0,-2.0,-1.0,-1.0,0.0,0.0,-1.0
1702490306.703691,0.0,0.0,-3.0,1.0,0.0,-1.0,-1.0,-2.0
1702490306.703691,0.0,-1.0,-2.0,-3.0,0.0,0.0,0.0,-1.0
1702490306.703691,-2.0,0.0,1.0,-2.0,0.0,0.0,-2.0,-2.0
1702490306.716181,-1.0,-1.0,-1.0,-1.0,-1.0,-1.0,-1.0,0.0
1702490306.716181,-1.0,-1.0,-1.0,1.0,-1.0,-1.0,-3.0,-1.0
1702490306.716181,-2.0,-1.0,-2.0,-1.0,0.0,0.0,-1.0,-1.0
1702490306.716181,-2.0,0.0,-1.0,-3.0,0.0,-1.0,-1.0,-1.0
1702490306.7366004,-1.0,-1.0,-1.0,0.0,1.0,-1.0,-1.0,-1.0
1702490306.7366004,-1.0,-1.0,0.0,-1.0,-1.0,-2.0,0.0,0.0
1702490306.7366004,-1.0,-1.0,-2.0,-1.0,0.0,-1.0,-2.0,-1.0
1702490306.7366004,-1.0,-1.0,-1.0,0.0,-2.0,0.0,-3.0,1.0
1702490306.7569928,0.0,0.0,-2.0,-1.0,-2.0,-1.0,-3.0,-1.0
1702490306.7569928,0.0,-1.0,-2.0,-2.0,0.0,-3.0,0.0,-1.0
1702490306.7569928,-1.0,0.0,-1.0,-1.0,-2.0,-2.0,0.0,-2.0
1702490306.7569928,-1.0,-1.0,-1.0,-1.0,-3.0,-1.0,1.0,0.0
1702490306.776658,-1.0,-2.0,-2.0,-3.0,-2.0,-1.0,-1.0,0.0
1702490306.776658,-1.0,-2.0,-2.0,-1.0,-1.0,0.0,-1.0,-1.0
1702490306.7834797,-1.0,-3.0,-3.0,-1.0,-1.0,-2.0,-1.0,-1.0
1702490306.7834797,0.0,-2.0,-1.0,1.0,-1.0,0.0,-1.0,-2.0
1702490306.803489,-1.0,-1.0,-2.0,-1.0,0.0,1.0,-1.0,-2.0
1702490306.803489,0.0,-1.0,-1.0,-2.0,-1.0,1.0,-1.0,-1.0
1702490306.803489,-1.0,1.0,-1.0,-2.0,-1.0,1.0,-1.0,-1.0
1702490306.803489,-2.0,-2.0,-1.0,0.0,0.0,-4.0,-1.0,-1.0
1702490306.8138037,-2.0,-1.0,0.0,0.0,-2.0,-1.0,0.0,0.0
1702490306.8138037,-1.0,0.0,-1.0,1.0,-2.0,0.0,-1.0,-1.0
1702490306.8237457,1.0,-2.0,-1.0,0.0,-2.0,-1.0,-1.0,0.0
1702490306.8237457,0.0,-1.0,-2.0,-2.0,-1.0,0.0,-2.0,-1.0
1702490306.843489,-1.0,-1.0,1.0,-1.0,0.0,0.0,0.0,-1.0
1702490306.843489,-2.0,-2.0,-3.0,-1.0,-3.0,-3.0,-1.0,-1.0
1702490306.843489,0.0,0.0,0.0,-2.0,0.0,-2.0,0.0,1.0
1702490306.843489,-2.0,-1.0,-2.0,-1.0,-1.0,-2.0,-1.0,0.0
1702490306.8535233,-1.0,0.0,-1.0,-2.0,0.0,0.0,-2.0,0.0
1702490306.8535233,0.0,-1.0,-1.0,-1.0,-1.0,-1.0,-1.0,0.0
1702490306.8535233,-2.0,-1.0,0.0,-1.0,-2.0,-1.0,-1.0,-1.0
1702490306.8535233,1.0,1.0,0.0,-2.0,0.0,-1.0,-2.0,-3.0
1702490306.8738508,-1.0,-2.0,0.0,-1.0,-1.0,-1.0,-1.0,-1.0
1702490306.8738508,-1.0,-1.0,-1.0,0.0,-2.0,-1.0,1.0,-1.0
1702490306.8833592,-2.0,-2.0,-2.0,-2.0,0.0,0.0,-1.0,0.0
1702490306.8833592,-1.0,-1.0,0.0,0.0,-2.0,0.0,-1.0,0.0
1702490306.9036846,-2.0,1.0,-2.0,-1.0,-2.0,-2.0,-2.0,-1.0
1702490306.9036846,0.0,1.0,1.0,-1.0,0.0,0.0,-1.0,-1.0
1702490306.9036846,-1.0,-1.0,-1.0,0.0,-2.0,0.0,-1.0,-3.0
1702490306.9036846,-1.0,0.0,-2.0,-1.0,0.0,-2.0,-2.0,-1.0
1702490306.9233675,0.0,-1.0,-1.0,0.0,-2.0,-1.0,-1.0,-2.0
1702490306.9233675,-2.0,-2.0,-2.0,-1.0,0.0,-3.0,-2.0,-1.0
1702490306.9233675,-2.0,-1.0,1.0,1.0,-1.0,-3.0,-2.0,0.0
1702490306.9233675,-3.0,-2.0,-1.0,1.0,-3.0,1.0,0.0,-2.0
1702490306.9433722,0.0,0.0,-1.0,-1.0,-2.0,0.0,-1.0,-1.0
1702490306.9433722,-2.0,-1.0,0.0,0.0,0.0,1.0,1.0,0.0
1702490306.9433722,0.0,-3.0,-2.0,0.0,-2.0,0.0,0.0,-1.0
1702490306.9433722,0.0,-3.0,0.0,-1.0,1.0,-1.0,1.0,0.0
1702490306.9833677,-1.0,-2.0,0.0,0.0,-1.0,0.0,-1.0,-3.0
1702490306.9833677,-1.0,0.0,-1.0,-1.0,0.0,-1.0,0.0,0.0
1702490306.9833677,-1.0,2.0,1.0,0.0,-2.0,-1.0,-1.0,0.0
1702490306.9833677,-2.0,-2.0,-12.0,-3.0,-1.0,-2.0,1.0,0.0
1702490306.9833677,-2.0,-1.0,0.0,-3.0,-1.0,0.0,-1.0,-1.0
1702490306.9833677,-1.0,0.0,0.0,-3.0,-1.0,-2.0,-2.0,-2.0
1702490306.9833677,-3.0,-2.0,1.0,-1.0,-1.0,-2.0,-1.0,-1.0
1702490306.9833677,0.0,-2.0,-3.0,-1.0,-1.0,0.0,0.0,-1.0
1702490307.0037034,-2.0,-1.0,0.0,1.0,0.0,-1.0,0.0,-1.0
1702490307.0037034,-2.0,-2.0,-1.0,-2.0,1.0,0.0,-1.0,-2.0
1702490307.0037034,-1.0,1.0,13.0,-2.0,-1.0,-2.0,-2.0,-1.0
1702490307.0037034,0.0,0.0,2.0,-1.0,-1.0,-2.0,-2.0,0.0
1702490307.0233674,-1.0,0.0,-17.0,-3.0,-1.0,-4.0,-1.0,-1.0
1702490307.0233674,1.0,0.0,0.0,-2.0,-2.0,-3.0,-1.0,-1.0
1702490307.0233674,-1.0,-2.0,2.0,-1.0,-1.0,-1.0,-1.0,-1.0
1702490307.0233674,-1.0,0.0,7.0,-2.0,-2.0,-2.0,-2.0,-1.0
1702490307.0334506,-1.0,-1.0,3.0,0.0,-1.0,0.0,-1.0,0.0
1702490307.0334506,-1.0,0.0,-4.0,-1.0,-2.0,-1.0,-2.0,-1.0
1702490307.0334506,-2.0,1.0,-1.0,0.0,0.0,0.0,-2.0,0.0
1702490307.0334506,-1.0,-2.0,5.0,-2.0,-3.0,0.0,-2.0,-2.0
1702490307.0633748,-1.0,2.0,7.0,0.0,-2.0,-1.0,-2.0,1.0
1702490307.0633748,-1.0,-1.0,-15.0,0.0,-1.0,-3.0,-1.0,-1.0
1702490307.0633748,0.0,-3.0,-5.0,0.0,0.0,0.0,0.0,-1.0
1702490307.0633748,0.0,1.0,13.0,2.0,0.0,-2.0,-1.0,-3.0
1702490307.0833683,0.0,-4.0,-13.0,-2.0,-2.0,0.0,-2.0,-1.0
1702490307.0833683,-1.0,-2.0,-2.0,0.0,-1.0,-1.0,-1.0,0.0
1702490307.0833683,1.0,0.0,-5.0,-1.0,-2.0,-1.0,1.0,-2.0
1702490307.0833683,-2.0,1.0,-20.0,0.0,1.0,-1.0,0.0,0.0
1702490307.093368,-1.0,1.0,2.0,1.0,0.0,-1.0,1.0,0.0
1702490307.093368,-3.0,-12.0,-35.0,-8.0,-2.0,0.0,0.0,-2.0
1702490307.093368,0.0,0.0,20.0,1.0,0.0,0.0,-3.0,-1.0
1702490307.093368,-1.0,-1.0,8.0,0.0,-2.0,2.0,1.0,0.0
1702490307.1137843,0.0,2.0,-25.0,-5.0,-2.0,-2.0,-1.0,-1.0
1702490307.1137843,-1.0,-1.0,31.0,2.0,-1.0,0.0,-1.0,-2.0
1702490307.123376,-1.0,-2.0,-3.0,-1.0,-1.0,-1.0,0.0,0.0
1702490307.123376,1.0,0.0,10.0,1.0,-1.0,0.0,-1.0,-1.0
1702490307.1433678,0.0,-7.0,-1.0,0.0,-2.0,-1.0,-1.0,-3.0
1702490307.1433678,1.0,4.0,24.0,1.0,1.0,0.0,-3.0,-1.0
1702490307.1433678,-1.0,-1.0,-32.0,-3.0,-1.0,-1.0,1.0,-2.0
1702490307.1433678,-2.0,0.0,16.0,-2.0,-1.0,-2.0,1.0,0.0
1702490307.1534019,-3.0,-5.0,-23.0,-2.0,-1.0,0.0,1.0,0.0
1702490307.1534019,-1.0,3.0,19.0,1.0,1.0,0.0,-1.0,1.0
1702490307.1534019,-2.0,-4.0,7.0,-1.0,-2.0,0.0,-1.0,-1.0
1702490307.1534019,-1.0,2.0,24.0,0.0,-1.0,-2.0,-1.0,0.0
1702490307.183376,0.0,-2.0,8.0,2.0,-1.0,-1.0,-2.0,-1.0
1702490307.183376,-3.0,-4.0,-5.0,-2.0,-1.0,0.0,0.0,-1.0
1702490307.183376,-3.0,-3.0,-27.0,-1.0,0.0,-1.0,-2.0,-1.0
1702490307.183376,-2.0,-4.0,0.0,-3.0,-2.0,-1.0,0.0,0.0
1702490307.203698,-2.0,1.0,0.0,-3.0,-1.0,0.0,-1.0,-1.0
1702490307.203698,1.0,3.0,-10.0,2.0,0.0,-2.0,-2.0,-1.0
1702490307.203698,-1.0,-5.0,0.0,-6.0,-4.0,-1.0,-1.0,-3.0
1702490307.203698,-1.0,-4.0,-30.0,-3.0,-1.0,-1.0,0.0,-2.0
1702490307.2137353,-3.0,-2.0,1.0,0.0,1.0,0.0,0.0,-1.0
1702490307.2137353,0.0,1.0,20.0,1.0,0.0,-1.0,-1.0,-2.0
1702490307.2137353,0.0,-1.0,-33.0,-1.0,0.0,0.0,-2.0,0.0
1702490307.2137353,-2.0,-2.0,-10.0,0.0,-2.0,-1.0,-3.0,-1.0
1702490307.2418714,0.0,-1.0,16.0,-2.0,-1.0,-2.0,-2.0,-3.0
1702490307.2418714,-2.0,-2.0,-2.0,-1.0,-4.0,-2.0,-3.0,0.0
1702490307.2490048,1.0,-2.0,-10.0,-1.0,0.0,-1.0,0.0,-1.0
1702490307.2490048,-1.0,1.0,5.0,0.0,0.0,1.0,-2.0,-2.0
1702490307.2690058,-1.0,-4.0,-6.0,-2.0,-2.0,-2.0,0.0,-2.0
1702490307.2690058,1.0,1.0,1.0,-1.0,-2.0,-1.0,-1.0,0.0
1702490307.2690058,-3.0,1.0,13.0,2.0,0.0,-1.0,0.0,-2.0
1702490307.2690058,0.0,0.0,-4.0,-2.0,0.0,-1.0,-1.0,-1.0
1702490307.2793949,0.0,2.0,4.0,0.0,1.0,-1.0,0.0,-2.0
1702490307.2793949,-1.0,-1.0,-7.0,-2.0,-1.0,-1.0,-1.0,-1.0
1702490307.2793949,-2.0,-2.0,17.0,-1.0,-2.0,-2.0,0.0,1.0
1702490307.2793949,0.0,-2.0,-6.0,0.0,-3.0,0.0,-3.0,-1.0
1702490307.299009,1.0,-1.0,12.0,-1.0,-5.0,1.0,-1.0,-1.0
1702490307.299009,0.0,-2.0,-8.0,-3.0,-1.0,3.0,-1.0,-3.0
1702490307.299009,-2.0,2.0,10.0,-1.0,0.0,-1.0,-2.0,-2.0
1702490307.299009,-3.0,-1.0,18.0,-1.0,-1.0,-1.0,-1.0,1.0
1702490307.3193955,-1.0,-2.0,-18.0,0.0,1.0,-3.0,-2.0,1.0
1702490307.3193955,-1.0,-3.0,-5.0,-2.0,0.0,-1.0,0.0,-1.0
1702490307.3193955,0.0,-1.0,0.0,0.0,-1.0,0.0,-1.0,-1.0
1702490307.3193955,-2.0,-1.0,4.0,1.0,-2.0,-2.0,-2.0,-1.0
1702490307.3394327,-1.0,1.0,12.0,-3.0,-1.0,-2.0,1.0,-1.0
1702490307.3394327,-1.0,0.0,-7.0,-1.0,-1.0,-1.0,-1.0,1.0
1702490307.3394327,-1.0,1.0,5.0,-1.0,1.0,0.0,0.0,0.0
1702490307.3394327,-1.0,-1.0,-15.0,-2.0,-1.0,0.0,1.0,-2.0
1702490307.3590066,-2.0,1.0,5.0,0.0,-1.0,1.0,0.0,1.0
1702490307.3590066,-1.0,-1.0,-7.0,-3.0,0.0,0.0,-1.0,0.0
1702490307.3590066,1.0,-2.0,3.0,-1.0,-1.0,-1.0,-3.0,0.0
1702490307.3590066,-1.0,-2.0,-11.0,-1.0,0.0,-1.0,0.0,-2.0
1702490307.3792858,-2.0,-2.0,0.0,0.0,0.0,-1.0,-3.0,0.0
1702490307.3792858,-1.0,-2.0,6.0,-2.0,-3.0,-1.0,0.0,-1.0
1702490307.3792858,0.0,0.0,1.0,-1.0,-2.0,-1.0,-1.0,-2.0
1702490307.3792858,2.0,-1.0,-8.0,-1.0,0.0,-2.0,-1.0,-1.0
1702490307.399014,0.0,-1.0,6.0,-4.0,0.0,1.0,-1.0,-2.0
1702490307.399014,-1.0,-3.0,-5.0,0.0,-1.0,-2.0,-1.0,-1.0
1702490307.399014,-1.0,0.0,0.0,0.0,1.0,-1.0,-1.0,-1.0
1702490307.399014,-1.0,-1.0,-6.0,-1.0,-1.0,-2.0,-1.0,-1.0
1702490307.4290066,0.0,-1.0,3.0,1.0,0.0,1.0,-1.0,-2.0
1702490307.4290066,-2.0,-2.0,-4.0,-1.0,-1.0,-1.0,-2.0,-2.0
1702490307.4290066,-1.0,0.0,-1.0,-3.0,-2.0,-1.0,0.0,-1.0
1702490307.4290066,0.0,1.0,-1.0,1.0,-3.0,-2.0,-1.0,-1.0
1702490307.4390056,0.0,-2.0,2.0,0.0,-2.0,0.0,-2.0,-2.0
1702490307.4390056,0.0,-1.0,-2.0,-2.0,0.0,-1.0,2.0,0.0
1702490307.4390056,0.0,1.0,-1.0,-1.0,-2.0,0.0,-1.0,-1.0
1702490307.4390056,-2.0,-1.0,-3.0,-3.0,-1.0,-1.0,-2.0,0.0
1702490307.4590733,0.0,-1.0,2.0,0.0,-2.0,0.0,0.0,-2.0
1702490307.4590733,0.0,0.0,-3.0,-1.0,-2.0,0.0,-1.0,-1.0
1702490307.4590733,-1.0,-1.0,-1.0,0.0,-1.0,1.0,-1.0,0.0
1702490307.4590733,-2.0,1.0,-1.0,0.0,-2.0,0.0,-1.0,-1.0
1702490307.4790065,0.0,-1.0,-1.0,0.0,-1.0,0.0,-3.0,-1.0
1702490307.4790065,0.0,1.0,0.0,-2.0,-1.0,-3.0,-2.0,-1.0
1702490307.489439,-3.0,-4.0,0.0,-1.0,-3.0,-1.0,-1.0,-1.0
1702490307.489439,-1.0,2.0,-6.0,-2.0,-2.0,-1.0,-1.0,0.0
1702490307.499282,-2.0,-2.0,2.0,0.0,0.0,-1.0,1.0,0.0
1702490307.499282,-1.0,0.0,-1.0,-3.0,0.0,-1.0,0.0,-2.0
1702490307.499282,-1.0,-2.0,-1.0,1.0,0.0,-2.0,-1.0,-1.0
1702490307.499282,-1.0,-3.0,0.0,0.0,1.0,0.0,0.0,-2.0
1702490307.5190072,-1.0,-2.0,0.0,-2.0,-1.0,-2.0,-1.0,-2.0
1702490307.5190072,0.0,-2.0,-2.0,0.0,-2.0,-1.0,-3.0,-3.0
1702490307.5290086,-1.0,2.0,-2.0,-2.0,-1.0,0.0,-3.0,-2.0
1702490307.5290086,1.0,-3.0,-2.0,0.0,0.0,-2.0,-2.0,-2.0
1702490307.5390139,0.0,-1.0,-1.0,-1.0,0.0,-1.0,-1.0,-2.0
1702490307.5390139,-2.0,0.0,-2.0,-1.0,-2.0,0.0,0.0,-1.0
1702490307.5491688,0.0,-2.0,0.0,0.0,-2.0,-1.0,-1.0,-1.0
1702490307.5491688,-1.0,-2.0,-1.0,-2.0,-2.0,0.0,0.0,-1.0
1702490307.5593202,-1.0,2.0,-1.0,-2.0,-1.0,-1.0,-2.0,1.0
1702490307.5593202,0.0,-3.0,-2.0,0.0,1.0,-2.0,-2.0,0.0
1702490307.5593202,1.0,-1.0,0.0,-2.0,0.0,-2.0,0.0,0.0
1702490307.5593202,0.0,-1.0,-1.0,-1.0,-1.0,0.0,-2.0,-1.0
1702490307.5890062,-2.0,-2.0,-3.0,-1.0,-3.0,-1.0,-1.0,0.0
1702490307.5890062,-3.0,-3.0,0.0,-1.0,-1.0,-2.0,-2.0,-1.0
1702490307.5890062,1.0,-1.0,-1.0,-1.0,-1.0,-2.0,-1.0,0.0
1702490307.5890062,0.0,-2.0,-1.0,-1.0,1.0,0.0,0.0,-2.0
1702490307.599036,-3.0,0.0,0.0,-2.0,-1.0,0.0,-2.0,-2.0
1702490307.599036,0.0,-1.0,0.0,0.0,-3.0,0.0,1.0,0.0
1702490307.6094315,0.0,-2.0,-2.0,-2.0,-1.0,-1.0,-1.0,-1.0
1702490307.6094315,-1.0,-1.0,-1.0,0.0,-2.0,-1.0,0.0,0.0
1702490307.6193902,0.0,2.0,-2.0,0.0,1.0,-1.0,-3.0,-3.0
1702490307.6193902,-2.0,-1.0,0.0,-1.0,0.0,-1.0,0.0,0.0
1702490307.629281,-1.0,0.0,1.0,-2.0,-1.0,-3.0,0.0,-2.0
1702490307.629281,-1.0,0.0,-2.0,-2.0,-2.0,-2.0,1.0,-2.0
1702490307.6390078,-1.0,-1.0,-1.0,0.0,-1.0,-1.0,0.0,-1.0
1702490307.6390078,-1.0,1.0,-1.0,-1.0,-2.0,-1.0,-3.0,-2.0
1702490307.6390078,-1.0,2.0,-1.0,-2.0,0.0,-2.0,-1.0,1.0
1702490307.6390078,-2.0,1.0,-1.0,0.0,0.0,1.0,-3.0,-2.0
1702490307.6594326,0.0,-2.0,-1.0,-2.0,-1.0,-2.0,0.0,-3.0
1702490307.6594326,-1.0,0.0,1.0,-1.0,-1.0,-2.0,-2.0,0.0
1702490307.6693945,0.0,-2.0,-1.0,-1.0,-3.0,-1.0,1.0,-3.0
1702490307.6693945,-2.0,1.0,0.0,-1.0,-2.0,-1.0,-1.0,-1.0
1702490307.6890059,-2.0,1.0,0.0,-1.0,-2.0,0.0,-1.0,-2.0
1702490307.6890059,-1.0,-2.0,0.0,-1.0,-1.0,0.0,-1.0,-4.0
1702490307.6890059,-1.0,-2.0,-2.0,-1.0,-1.0,-1.0,-1.0,-2.0
1702490307.6890059,0.0,-1.0,-1.0,-2.0,-3.0,-1.0,0.0,-2.0
1702490307.6990087,-1.0,1.0,-1.0,1.0,-1.0,-2.0,0.0,0.0
1702490307.6990087,0.0,-1.0,-1.0,-2.0,0.0,-2.0,-1.0,-1.0
1702490307.6990087,-1.0,-2.0,-1.0,-1.0,-1.0,0.0,-3.0,-2.0
1702490307.6990087,-1.0,-1.0,-2.0,-1.0,0.0,-1.0,0.0,-1.0
1702490307.719008,-1.0,-1.0,-1.0,-1.0,0.0,0.0,-1.0,-2.0
1702490307.719008,1.0,-3.0,-1.0,0.0,-2.0,-2.0,-2.0,0.0
1702490307.7292564,-2.0,-1.0,-1.0,-1.0,-1.0,0.0,-1.0,-2.0
1702490307.7292564,0.0,-2.0,-2.0,-1.0,1.0,-1.0,-2.0,0.0
1702490307.739302,-1.0,0.0,0.0,-1.0,-2.0,0.0,0.0,0.0
1702490307.739302,-1.0,0.0,0.0,-1.0,-1.0,0.0,0.0,0.0
1702490307.739302,-1.0,-2.0,0.0,-1.0,1.0,-1.0,0.0,1.0
1702490307.739302,-1.0,0.0,0.0,-1.0,-2.0,-1.0,0.0,-1.0
1702490307.7674603,-1.0,-1.0,-1.0,0.0,-1.0,-1.0,-2.0,-2.0
1702490307.7674603,0.0,1.0,-2.0,0.0,-2.0,-1.0,0.0,-2.0
1702490307.7695153,-1.0,0.0,-1.0,-1.0,-1.0,-2.0,-1.0,-2.0
1702490307.7695153,1.0,-2.0,-1.0,-1.0,0.0,-2.0,-2.0,-1.0
1702490307.7821267,0.0,-1.0,-1.0,-2.0,-2.0,-2.0,-2.0,2.0
1702490307.7821267,-1.0,1.0,0.0,0.0,-2.0,0.0,-2.0,-1.0
1702490307.7821267,-1.0,-2.0,0.0,1.0,-1.0,-1.0,0.0,-2.0
1702490307.7821267,-2.0,-1.0,-1.0,0.0,0.0,-1.0,-1.0,1.0
1702490307.8096366,-1.0,-1.0,-1.0,-1.0,0.0,-1.0,0.0,-1.0
1702490307.8096366,-1.0,0.0,-2.0,-2.0,0.0,-2.0,-1.0,1.0
1702490307.8096366,1.0,-1.0,-1.0,-1.0,-1.0,1.0,1.0,-2.0
1702490307.8096366,0.0,-2.0,-1.0,0.0,-3.0,-1.0,-2.0,-2.0
1702490307.8198714,0.0,-1.0,-1.0,-3.0,-3.0,-2.0,-2.0,0.0
1702490307.8198714,-2.0,-2.0,-2.0,-2.0,-2.0,-1.0,0.0,-1.0
1702490307.8296566,-2.0,-1.0,0.0,0.0,-3.0,-2.0,-1.0,0.0
1702490307.8296566,0.0,-2.0,-1.0,-2.0,0.0,-1.0,0.0,-1.0
1702490307.8399124,-3.0,-1.0,0.0,0.0,-1.0,0.0,0.0,-1.0
1702490307.8399124,0.0,-2.0,-1.0,-1.0,0.0,-2.0,-1.0,0.0
1702490307.8496525,-2.0,-1.0,-2.0,-2.0,1.0,-2.0,1.0,-1.0
1702490307.8496525,-1.0,0.0,-2.0,-1.0,-2.0,0.0,-1.0,0.0
1702490307.8796642,-1.0,-1.0,-2.0,0.0,0.0,-2.0,0.0,0.0
1702490307.8796642,0.0,0.0,-1.0,-1.0,-1.0,-1.0,-2.0,0.0
1702490307.8796642,0.0,0.0,0.0,0.0,-1.0,-1.0,-1.0,-2.0
1702490307.8796642,-1.0,1.0,-1.0,-2.0,0.0,-2.0,-3.0,-1.0
1702490307.8796642,1.0,0.0,-1.0,-1.0,-1.0,-2.0,-1.0,-1.0
1702490307.8796642,-3.0,-1.0,0.0,-1.0,-1.0,0.0,0.0,-1.0
1702490307.8896477,-2.0,-2.0,-2.0,-1.0,-2.0,0.0,-2.0,0.0
1702490307.8896477,-1.0,-1.0,-1.0,-1.0,-1.0,-1.0,0.0,-1.0
1702490307.9096522,-1.0,-2.0,-1.0,-1.0,-2.0,0.0,0.0,-1.0
1702490307.9096522,-1.0,-2.0,-2.0,-2.0,0.0,-2.0,0.0,-3.0
1702490307.9096522,-2.0,-1.0,0.0,-2.0,-1.0,0.0,-1.0,-1.0
1702490307.9096522,-3.0,0.0,-3.0,-1.0,-1.0,0.0,0.0,-1.0
1702490307.9197552,-3.0,0.0,-2.0,0.0,0.0,-2.0,-2.0,0.0
1702490307.9197552,-1.0,-1.0,-1.0,-1.0,0.0,0.0,-2.0,1.0
1702490307.9197552,0.0,-2.0,0.0,1.0,-1.0,-1.0,-2.0,0.0
1702490307.9197552,-1.0,-1.0,1.0,-2.0,-2.0,-1.0,-2.0,-1.0
1702490307.940239,1.0,-1.0,0.0,1.0,0.0,-1.0,-1.0,-1.0
1702490307.940239,-1.0,-2.0,1.0,0.0,-2.0,1.0,0.0,-1.0
1702490307.9499316,-1.0,-2.0,-1.0,0.0,0.0,-2.0,-3.0,0.0
1702490307.9499316,-3.0,-3.0,-3.0,1.0,-3.0,-2.0,-1.0,0.0
1702490307.960079,0.0,-1.0,0.0,-1.0,-1.0,0.0,-1.0,-1.0
1702490307.960079,1.0,0.0,-2.0,-2.0,1.0,-1.0,0.0,0.0
1702490307.9899292,-1.0,0.0,-1.0,-1.0,-1.0,-1.0,0.0,0.0
1702490307.9899292,0.0,-1.0,-1.0,-2.0,-2.0,-1.0,0.0,-1.0
1702490307.9899292,-2.0,0.0,-5.0,-3.0,0.0,-1.0,-2.0,-2.0
1702490307.9899292,-2.0,-1.0,-1.0,0.0,-3.0,-1.0,0.0,-1.0
1702490307.9899292,-2.0,0.0,-1.0,0.0,-1.0,-1.0,-1.0,-2.0
1702490307.9899292,-2.0,0.0,0.0,0.0,0.0,-1.0,0.0,-1.0
1702490308.0002613,-2.0,-1.0,-1.0,-1.0,0.0,1.0,-1.0,-2.0
1702490308.0002613,-1.0,-2.0,-1.0,0.0,-1.0,-1.0,-1.0,-1.0
1702490308.0002613,1.0,0.0,-2.0,0.0,-1.0,-1.0,-2.0,0.0
1702490308.0002613,-1.0,-1.0,-1.0,0.0,1.0,-1.0,-2.0,-1.0
1702490308.0199883,-2.0,-1.0,1.0,0.0,0.0,-1.0,0.0,-1.0
1702490308.0199883,-1.0,-1.0,-1.0,-2.0,-1.0,-1.0,-2.0,-2.0
1702490308.029781,0.0,-1.0,-3.0,-1.0,-2.0,0.0,-1.0,0.0
1702490308.029781,1.0,-2.0,-2.0,0.0,-1.0,0.0,0.0,0.0
1702490308.0398123,0.0,-1.0,-2.0,-3.0,-2.0,-1.0,0.0,-1.0
1702490308.0398123,-1.0,0.0,-1.0,-1.0,-1.0,-1.0,-3.0,0.0
1702490308.0398123,-1.0,-2.0,-1.0,-2.0,0.0,-1.0,-2.0,0.0
1702490308.0398123,-1.0,-2.0,-1.0,1.0,-1.0,-1.0,-2.0,-3.0
1702490308.0601768,0.0,-2.0,-1.0,-1.0,-3.0,0.0,0.0,-1.0
1702490308.0601768,-2.0,-1.0,-1.0,0.0,-2.0,-1.0,-1.0,-2.0
1702490308.06978,-2.0,-2.0,-2.0,-2.0,0.0,-1.0,-1.0,-2.0
1702490308.06978,-1.0,0.0,0.0,-1.0,-3.0,-1.0,-1.0,-1.0
1702490308.08021,-1.0,-1.0,1.0,-2.0,-1.0,-1.0,-2.0,-1.0
1702490308.08021,0.0,-1.0,21.0,0.0,1.0,-1.0,-1.0,0.0
1702490308.0897791,0.0,-1.0,-23.0,-3.0,0.0,0.0,0.0,-2.0
1702490308.0897791,-1.0,1.0,1.0,1.0,1.0,0.0,-1.0,-2.0
1702490308.1097782,-3.0,-2.0,-1.0,1.0,0.0,-1.0,0.0,1.0
1702490308.1097782,0.0,-1.0,5.0,-2.0,-2.0,1.0,-1.0,0.0
1702490308.1097782,-1.0,-2.0,11.0,-1.0,-2.0,0.0,-2.0,0.0
1702490308.1097782,0.0,-2.0,-3.0,-1.0,-1.0,-1.0,0.0,-1.0
1702490308.119779,-2.0,2.0,11.0,1.0,0.0,0.0,-1.0,-1.0
1702490308.119779,-1.0,-3.0,-16.0,-1.0,-1.0,-3.0,-1.0,-2.0
1702490308.1297781,0.0,0.0,-8.0,-3.0,-3.0,-1.0,1.0,-1.0
1702490308.1297781,1.0,2.0,11.0,6.0,2.0,0.0,0.0,-1.0
1702490308.1400337,-1.0,-11.0,-42.0,-7.0,-4.0,0.0,-1.0,0.0
1702490308.1400337,0.0,5.0,43.0,3.0,0.0,-1.0,1.0,0.0
1702490308.1497803,-2.0,-7.0,-59.0,-7.0,-4.0,-1.0,0.0,-2.0
1702490308.1497803,-2.0,1.0,4.0,-1.0,-2.0,-1.0,0.0,-1.0
1702490308.160042,1.0,3.0,9.0,-2.0,0.0,-1.0,0.0,-2.0
1702490308.160042,-2.0,-4.0,-10.0,-3.0,-2.0,-3.0,-2.0,0.0
1702490308.160042,1.0,6.0,46.0,11.0,5.0,-1.0,-1.0,0.0
1702490308.160042,-1.0,-6.0,-42.0,5.0,0.0,-1.0,-2.0,-1.0
1702490308.1801167,0.0,2.0,-2.0,0.0,0.0,1.0,0.0,-1.0
1702490308.1801167,-1.0,0.0,21.0,-20.0,-8.0,-2.0,-2.0,-1.0
1702490308.189784,-2.0,-1.0,37.0,15.0,2.0,0.0,0.0,0.0
1702490308.189784,1.0,-4.0,-9.0,-1.0,2.0,0.0,0.0,0.0
1702490308.2097821,0.0,0.0,14.0,5.0,1.0,-1.0,-3.0,0.0
1702490308.2097821,-1.0,-1.0,-23.0,14.0,1.0,-1.0,0.0,-2.0
1702490308.2297783,-1.0,2.0,64.0,-11.0,-7.0,-2.0,-1.0,-1.0
1702490308.2297783,-4.0,-6.0,-16.0,0.0,-1.0,-1.0,0.0,0.0
1702490308.2297783,1.0,0.0,-8.0,-7.0,2.0,-1.0,1.0,1.0
1702490308.2297783,0.0,-4.0,-14.0,-8.0,-3.0,-1.0,0.0,-3.0
1702490308.2297783,0.0,2.0,26.0,10.0,-1.0,0.0,-2.0,-1.0
1702490308.2297783,0.0,1.0,20.0,0.0,-2.0,-2.0,-2.0,-3.0
1702490308.240133,-2.0,-2.0,22.0,0.0,-2.0,-2.0,-1.0,0.0
1702490308.240133,0.0,4.0,13.0,3.0,1.0,-1.0,-2.0,0.0
1702490308.249779,-2.0,-8.0,-30.0,-9.0,-1.0,-2.0,-1.0,-2.0
1702490308.249779,0.0,-2.0,-36.0,-12.0,-4.0,-1.0,-2.0,1.0
1702490308.259781,-1.0,-4.0,-17.0,-2.0,-4.0,-2.0,0.0,-3.0
1702490308.259781,1.0,0.0,3.0,-2.0,2.0,-1.0,1.0,2.0
1702490308.269995,-1.0,-2.0,-30.0,-1.0,-1.0,-1.0,-3.0,-2.0
1702490308.269995,-1.0,2.0,48.0,-3.0,-4.0,-1.0,-3.0,0.0
1702490308.292607,-1.0,0.0,-5.0,-3.0,-3.0,-1.0,-1.0,-2.0
1702490308.292607,0.0,-2.0,-9.0,3.0,1.0,0.0,-3.0,0.0
1702490308.292607,2.0,-2.0,-29.0,-6.0,-2.0,-1.0,-1.0,-2.0
1702490308.292607,-2.0,-2.0,-5.0,1.0,0.0,-1.0,-1.0,-1.0
1702490308.302565,0.0,-2.0,-8.0,-2.0,0.0,-1.0,-2.0,-2.0
1702490308.302565,-2.0,-3.0,-5.0,-2.0,-1.0,-1.0,-1.0,-1.0
1702490308.3197048,-2.0,0.0,7.0,-1.0,-1.0,0.0,-1.0,1.0
1702490308.3197048,1.0,3.0,-2.0,-3.0,-2.0,0.0,-1.0,-1.0
1702490308.3207052,-1.0,-3.0,4.0,2.0,-1.0,-1.0,-2.0,0.0
1702490308.3207052,-2.0,-1.0,-6.0,-1.0,-1.0,0.0,-1.0,-1.0
1702490308.3297076,-1.0,-1.0,-9.0,-4.0,0.0,-1.0,-1.0,-2.0
1702490308.3297076,0.0,1.0,2.0,-1.0,-1.0,-1.0,0.0,-1.0
1702490308.3414485,-2.0,0.0,2.0,-1.0,0.0,0.0,0.0,0.0
1702490308.3414485,1.0,-2.0,-7.0,2.0,0.0,-1.0,1.0,-1.0
1702490308.3414485,-1.0,-1.0,-4.0,-2.0,-2.0,0.0,-1.0,0.0
1702490308.3414485,-1.0,-2.0,3.0,-4.0,0.0,-1.0,-2.0,-1.0
1702490308.3610182,-1.0,1.0,8.0,-1.0,-1.0,-2.0,-2.0,1.0
1702490308.3610182,-1.0,-2.0,-11.0,0.0,0.0,-1.0,0.0,-2.0
1702490308.3610182,-1.0,1.0,7.0,1.0,-1.0,-2.0,0.0,-1.0
1702490308.3610182,-1.0,0.0,4.0,-1.0,-2.0,-1.0,-2.0,0.0
1702490308.381041,-1.0,0.0,-5.0,-1.0,-2.0,-3.0,-1.0,-1.0
1702490308.381041,-1.0,-2.0,-4.0,-1.0,0.0,-2.0,-3.0,-2.0
1702490308.381041,0.0,-2.0,-5.0,-4.0,-1.0,0.0,-2.0,-1.0
1702490308.381041,0.0,1.0,1.0,-1.0,-2.0,-3.0,-1.0,-1.0
1702490308.4012947,0.0,0.0,-2.0,0.0,-2.0,-1.0,0.0,-1.0
1702490308.4012947,-2.0,0.0,-3.0,0.0,-1.0,0.0,-3.0,-1.0
1702490308.4012947,-1.0,0.0,-1.0,-1.0,-1.0,0.0,-1.0,0.0
1702490308.4012947,-2.0,-3.0,-1.0,-1.0,-1.0,-1.0,-1.0,0.0
1702490308.4203522,0.0,1.0,3.0,1.0,-1.0,0.0,0.0,0.0
1702490308.4203522,-1.0,-1.0,-4.0,-1.0,-2.0,0.0,-3.0,-1.0
1702490308.4203522,-1.0,-1.0,-6.0,-2.0,-1.0,-2.0,-1.0,0.0
1702490308.4203522,0.0,1.0,2.0,-1.0,-2.0,-1.0,-1.0,-1.0
1702490308.4407625,-1.0,-2.0,-1.0,-1.0,-1.0,1.0,0.0,-1.0
1702490308.4407625,-1.0,-1.0,-2.0,0.0,-3.0,-1.0,1.0,-2.0
1702490308.4503531,-2.0,-1.0,-3.0,-2.0,-2.0,-1.0,-1.0,1.0
1702490308.4503531,0.0,-2.0,2.0,0.0,0.0,-1.0,1.0,-1.0
1702490308.4603708,0.0,-2.0,1.0,-1.0,0.0,-1.0,-1.0,0.0
1702490308.4603708,-1.0,-1.0,-5.0,-1.0,-1.0,0.0,0.0,1.0
1702490308.4703693,-1.0,-1.0,1.0,-1.0,-1.0,-1.0,-2.0,-1.0
1702490308.4703693,-2.0,1.0,1.0,1.0,1.0,-2.0,-2.0,-1.0
1702490308.4905512,0.0,-3.0,-2.0,0.0,1.0,-3.0,0.0,0.0
1702490308.4905512,-2.0,-2.0,0.0,0.0,0.0,0.0,0.0,-1.0
1702490308.4905512,1.0,0.0,-4.0,0.0,0.0,-2.0,1.0,0.0
1702490308.4905512,-1.0,-1.0,0.0,-2.0,-2.0,1.0,0.0,-1.0
1702490308.5005639,-2.0,4.0,2.0,0.0,0.0,2.0,-2.0,-1.0
1702490308.5005639,0.0,0.0,-1.0,1.0,-2.0,-1.0,-2.0,-1.0
1702490308.5103557,-1.0,-2.0,0.0,0.0,0.0,-1.0,-1.0,-1.0
1702490308.5103557,1.0,2.0,-2.0,-3.0,-1.0,-2.0,0.0,0.0
1702490308.5303519,-1.0,-2.0,-1.0,-1.0,-2.0,1.0,-1.0,0.0
1702490308.5303519,0.0,-2.0,-3.0,-3.0,0.0,-1.0,-1.0,-1.0
1702490308.5303519,1.0,-1.0,-1.0,-1.0,1.0,0.0,-1.0,-2.0
1702490308.5303519,-2.0,-4.0,-1.0,0.0,-1.0,1.0,-3.0,0.0
1702490308.5406337,-2.0,-1.0,-2.0,0.0,-1.0,-3.0,-1.0,-2.0
1702490308.5406337,-4.0,-2.0,1.0,0.0,-2.0,-2.0,0.0,1.0
1702490308.5406337,-1.0,-3.0,-3.0,-1.0,-1.0,-2.0,1.0,-2.0
1702490308.5406337,-2.0,-3.0,-1.0,0.0,0.0,-2.0,0.0,-2.0
1702490308.5603707,1.0,-1.0,-1.0,-2.0,-2.0,0.0,0.0,-1.0
1702490308.5603707,-1.0,1.0,-2.0,-3.0,-1.0,0.0,-2.0,-1.0
1702490308.5703516,3.0,-2.0,-3.0,-3.0,-2.0,-2.0,-1.0,-1.0
1702490308.5703516,-2.0,-1.0,0.0,-1.0,-2.0,-2.0,0.0,-1.0
1702490308.5803552,-1.0,-1.0,1.0,-3.0,-2.0,-1.0,-1.0,-1.0
1702490308.5803552,2.0,0.0,-1.0,0.0,-1.0,-1.0,0.0,1.0
1702490308.5903838,-2.0,1.0,0.0,0.0,-1.0,0.0,-2.0,0.0
1702490308.5903838,-3.0,2.0,0.0,0.0,-1.0,-1.0,-1.0,-2.0
1702490308.6006346,1.0,-2.0,-1.0,0.0,1.0,-1.0,-1.0,-1.0
1702490308.6006346,-1.0,-1.0,-2.0,-2.0,-1.0,1.0,-1.0,-2.0
1702490308.6006346,0.0,0.0,0.0,-2.0,-2.0,-1.0,-1.0,-2.0
1702490308.6006346,-1.0,-1.0,0.0,-1.0,-1.0,-1.0,0.0,0.0
1702490308.6207097,-3.0,-1.0,-1.0,-1.0,-2.0,-1.0,-1.0,0.0
1702490308.6207097,-1.0,-3.0,-2.0,-1.0,2.0,-1.0,1.0,-1.0
1702490308.6303563,-2.0,-1.0,-1.0,-1.0,-1.0,0.0,0.0,-1.0
1702490308.6303563,1.0,-2.0,-4.0,-1.0,-2.0,-2.0,0.0,-1.0
1702490308.6406255,-1.0,-1.0,-3.0,-1.0,-2.0,-2.0,0.0,-2.0
1702490308.6406255,0.0,-2.0,-2.0,-1.0,-1.0,-1.0,-1.0,-2.0
1702490308.650353,-1.0,1.0,1.0,0.0,0.0,-2.0,-3.0,0.0
1702490308.650353,-1.0,-2.0,-1.0,-1.0,-2.0,-2.0,0.0,-1.0
1702490308.660351,-1.0,-1.0,-1.0,0.0,-1.0,0.0,-1.0,-3.0
1702490308.660351,-2.0,-2.0,-3.0,-1.0,-2.0,-1.0,0.0,-1.0
1702490308.660351,0.0,-2.0,-2.0,-3.0,-3.0,0.0,0.0,-2.0
1702490308.660351,-1.0,-1.0,0.0,0.0,-1.0,0.0,-3.0,-1.0
1702490308.6806195,-1.0,0.0,0.0,-1.0,-2.0,-2.0,-1.0,0.0
1702490308.6806195,0.0,0.0,-1.0,-1.0,0.0,-1.0,-1.0,-1.0
1702490308.690355,-2.0,-2.0,-2.0,-1.0,0.0,-1.0,-1.0,0.0
1702490308.690355,0.0,-1.0,-1.0,0.0,-1.0,0.0,-1.0,0.0
1702490308.7003527,-1.0,-2.0,-1.0,-1.0,0.0,0.0,-2.0,-3.0
1702490308.7003527,-2.0,-1.0,0.0,1.0,-2.0,-1.0,-2.0,-1.0
1702490308.7103853,-2.0,-3.0,0.0,0.0,0.0,-1.0,-2.0,-2.0
1702490308.7103853,-1.0,-1.0,-2.0,-3.0,-2.0,-2.0,0.0,-1.0
1702490308.7207246,1.0,0.0,-3.0,0.0,0.0,0.0,1.0,1.0
1702490308.7207246,-1.0,-1.0,-1.0,1.0,-1.0,-1.0,-1.0,-2.0
1702490308.7303598,-2.0,1.0,-2.0,0.0,0.0,0.0,-2.0,0.0
1702490308.7303598,-1.0,-1.0,-1.0,-1.0,-1.0,0.0,0.0,1.0
1702490308.7503607,-1.0,-3.0,0.0,-2.0,-2.0,0.0,-1.0,0.0
1702490308.7503607,-2.0,-3.0,0.0,-1.0,-2.0,0.0,0.0,1.0
1702490308.7503607,-1.0,-1.0,-1.0,-1.0,0.0,-1.0,-1.0,-2.0
1702490308.7503607,-1.0,-1.0,0.0,-1.0,-1.0,-1.0,-1.0,-1.0
1702490308.760714,-2.0,0.0,-1.0,-2.0,-3.0,-2.0,-2.0,-1.0
1702490308.760714,-2.0,0.0,0.0,0.0,1.0,0.0,-2.0,-1.0
1702490308.7803495,-1.0,-1.0,-1.0,-1.0,0.0,0.0,-2.0,-1.0
1702490308.7803495,-2.0,-2.0,-1.0,-1.0,-2.0,-1.0,1.0,-1.0
1702490308.7803495,-2.0,-1.0,-2.0,-2.0,-1.0,-4.0,-1.0,-3.0
1702490308.7803495,0.0,0.0,-2.0,-2.0,-1.0,0.0,-2.0,-2.0
1702490308.7803495,1.0,-2.0,0.0,-1.0,0.0,-1.0,0.0,-2.0
1702490308.7803495,-1.0,0.0,-2.0,-3.0,-1.0,-2.0,-1.0,-2.0
1702490308.8174615,1.0,0.0,-1.0,1.0,-2.0,0.0,-1.0,0.0
1702490308.8174615,-1.0,-1.0,-2.0,-1.0,-3.0,-3.0,-2.0,0.0
1702490308.8174615,-4.0,-1.0,-1.0,-2.0,-1.0,-1.0,-1.0,-1.0
1702490308.8174615,-2.0,0.0,3.0,0.0,0.0,-1.0,-1.0,0.0
1702490308.8245082,-2.0,-1.0,-1.0,0.0,-1.0,-3.0,-2.0,0.0
1702490308.8245082,-1.0,0.0,-1.0,-1.0,0.0,0.0,1.0,0.0
1702490308.8308177,-1.0,-1.0,-4.0,0.0,1.0,-1.0,1.0,0.0
1702490308.8308177,-1.0,-2.0,-2.0,-2.0,0.0,0.0,-1.0,-3.0
1702490308.8411593,-1.0,0.0,0.0,0.0,0.0,-2.0,-3.0,0.0
1702490308.8411593,-1.0,-1.0,-2.0,0.0,-1.0,1.0,-1.0,-1.0
1702490308.8411593,-1.0,-1.0,-1.0,-4.0,-2.0,-2.0,0.0,-1.0
1702490308.8411593,-1.0,-1.0,0.0,-1.0,-2.0,-1.0,-2.0,0.0
1702490308.87081,-1.0,-1.0,-1.0,-1.0,0.0,0.0,-1.0,-2.0
1702490308.87081,0.0,-2.0,-2.0,-2.0,-1.0,-2.0,-1.0,-2.0
1702490308.87081,-2.0,0.0,-2.0,0.0,0.0,0.0,-2.0,-1.0
1702490308.87081,0.0,-1.0,-2.0,-1.0,0.0,0.0,-2.0,-1.0
1702490308.880812,-1.0,-2.0,-1.0,-1.0,-2.0,-1.0,-1.0,-2.0
1702490308.880812,-2.0,-2.0,0.0,0.0,0.0,-3.0,1.0,-1.0
1702490308.890809,0.0,0.0,-2.0,-2.0,-2.0,-2.0,-1.0,-2.0
1702490308.890809,-1.0,0.0,-1.0,-2.0,-2.0,1.0,-1.0,-2.0
1702490308.9111483,-1.0,-1.0,-1.0,-1.0,1.0,2.0,-1.0,-1.0
1702490308.9111483,-2.0,-1.0,-1.0,-2.0,-1.0,-1.0,-2.0,-1.0
1702490308.9111483,-1.0,-2.0,1.0,1.0,0.0,1.0,0.0,-1.0
1702490308.9111483,-1.0,0.0,1.0,0.0,-1.0,-2.0,-1.0,-2.0
1702490308.9508123,-1.0,-2.0,-8.0,-2.0,0.0,1.0,0.0,-1.0
1702490308.9508123,-1.0,-1.0,1.0,-3.0,-1.0,-1.0,-1.0,-1.0
1702490308.9508123,1.0,0.0,3.0,3.0,0.0,-1.0,-1.0,1.0
1702490308.9508123,-1.0,-4.0,-12.0,0.0,-2.0,-1.0,-2.0,0.0
1702490308.9508123,0.0,1.0,2.0,-1.0,-1.0,-1.0,0.0,-1.0
1702490308.9508123,-1.0,0.0,1.0,-2.0,0.0,0.0,-1.0,-2.0
1702490308.9508123,0.0,0.0,-2.0,-1.0,-2.0,-1.0,-2.0,-1.0
1702490308.9508123,-1.0,0.0,22.0,1.0,-1.0,0.0,0.0,-1.0
1702490308.961157,1.0,-4.0,-28.0,-3.0,-1.0,0.0,-2.0,-1.0
1702490308.961157,-2.0,0.0,-4.0,0.0,0.0,-1.0,-3.0,0.0
1702490308.9708095,-3.0,-3.0,-10.0,-2.0,-1.0,0.0,-2.0,-1.0
1702490308.9708095,0.0,-1.0,8.0,0.0,2.0,-1.0,-2.0,0.0
1702490308.9908142,-2.0,-1.0,4.0,0.0,1.0,0.0,0.0,-1.0
1702490308.9908142,-1.0,0.0,2.0,-2.0,-1.0,-1.0,-1.0,0.0
1702490308.9908142,-2.0,-2.0,2.0,-3.0,0.0,-1.0,1.0,-1.0
1702490308.9908142,-3.0,-1.0,10.0,0.0,-1.0,-3.0,-2.0,-1.0
1702490309.0010793,0.0,-2.0,-3.0,-1.0,-2.0,-1.0,-1.0,0.0
1702490309.0010793,-2.0,-2.0,-4.0,1.0,-3.0,0.0,1.0,-3.0
1702490309.0111053,1.0,1.0,9.0,-1.0,-2.0,-1.0,-1.0,-1.0
1702490309.0111053,-1.0,-4.0,-22.0,-8.0,-4.0,-2.0,0.0,0.0
1702490309.0210333,-2.0,1.0,7.0,0.0,-1.0,-1.0,-1.0,-1.0
1702490309.0210333,-1.0,-2.0,3.0,0.0,-2.0,-2.0,-2.0,1.0
1702490309.0210333,-2.0,-1.0,1.0,0.0,-2.0,-1.0,-1.0,-1.0
1702490309.0210333,-1.0,0.0,-3.0,1.0,0.0,0.0,-1.0,-2.0
1702490309.05081,-2.0,-1.0,6.0,-1.0,-1.0,-2.0,0.0,-1.0
1702490309.05081,0.0,-1.0,-10.0,-3.0,-2.0,-2.0,-1.0,0.0
1702490309.05081,0.0,1.0,1.0,0.0,-2.0,-2.0,-1.0,-1.0
1702490309.05081,0.0,1.0,-5.0,-3.0,0.0,-1.0,-2.0,0.0
1702490309.0610783,0.0,0.0,0.0,0.0,0.0,-4.0,-3.0,-1.0
1702490309.0610783,0.0,0.0,7.0,0.0,-1.0,-2.0,-3.0,0.0
1702490309.0711083,0.0,-2.0,-5.0,-2.0,-1.0,-3.0,-2.0,-2.0
1702490309.0711083,-2.0,2.0,-1.0,0.0,-1.0,-1.0,-2.0,-2.0
1702490309.0809593,-2.0,1.0,0.0,-2.0,-2.0,-3.0,-2.0,-2.0
1702490309.0809593,-1.0,-1.0,-3.0,-2.0,-1.0,-2.0,-2.0,0.0
1702490309.1008108,-1.0,1.0,5.0,-2.0,0.0,-3.0,-2.0,-1.0
1702490309.1008108,-1.0,-1.0,-5.0,-1.0,1.0,0.0,-2.0,0.0
1702490309.110809,-1.0,-4.0,-6.0,-3.0,0.0,0.0,-2.0,-2.0
1702490309.110809,0.0,-1.0,0.0,-1.0,-2.0,-1.0,-2.0,-2.0
1702490309.110809,-1.0,-2.0,-5.0,0.0,-1.0,0.0,-1.0,-2.0
1702490309.110809,0.0,-1.0,5.0,2.0,-2.0,1.0,2.0,0.0
1702490309.120974,0.0,0.0,2.0,-2.0,0.0,-1.0,-1.0,-2.0
1702490309.120974,-2.0,-1.0,-3.0,-2.0,0.0,0.0,0.0,-1.0
1702490309.1310499,-1.0,-2.0,-3.0,-1.0,0.0,0.0,0.0,-1.0
1702490309.1310499,0.0,0.0,-5.0,-3.0,-2.0,-3.0,-1.0,-2.0
1702490309.1412055,0.0,0.0,1.0,0.0,-1.0,-1.0,-1.0,-1.0
1702490309.1412055,-1.0,-2.0,-5.0,-1.0,0.0,-1.0,-1.0,-1.0
1702490309.1508117,-1.0,-1.0,-1.0,-1.0,-3.0,0.0,-1.0,-1.0
1702490309.1508117,0.0,-2.0,-5.0,1.0,0.0,2.0,-2.0,-2.0
1702490309.1708143,-2.0,0.0,14.0,0.0,1.0,-1.0,0.0,-1.0
1702490309.1708143,-1.0,-3.0,1.0,1.0,-1.0,0.0,-2.0,-2.0
1702490309.1708143,-1.0,0.0,-2.0,-1.0,-1.0,-1.0,0.0,-1.0
1702490309.1708143,-2.0,-2.0,-3.0,-1.0,-2.0,-1.0,-1.0,-2.0
1702490309.1908853,-1.0,1.0,5.0,-2.0,-3.0,-1.0,-2.0,-1.0
1702490309.1908853,-1.0,-1.0,-2.0,0.0,-2.0,0.0,-1.0,0.0
1702490309.200818,-3.0,-1.0,-3.0,-2.0,0.0,2.0,1.0,-1.0
1702490309.200818,0.0,-2.0,1.0,0.0,1.0,-3.0,-1.0,-1.0
1702490309.2208085,0.0,-2.0,-4.0,-1.0,-1.0,0.0,-1.0,-1.0
1702490309.2208085,-2.0,-1.0,-1.0,-2.0,1.0,-1.0,1.0,-2.0
1702490309.2208085,-1.0,-1.0,-5.0,0.0,-2.0,0.0,-1.0,-1.0
1702490309.2208085,-2.0,1.0,0.0,-2.0,-1.0,-1.0,-1.0,-1.0
1702490309.2208085,-2.0,-1.0,-4.0,1.0,0.0,-1.0,0.0,-2.0
1702490309.2208085,-1.0,-1.0,-3.0,-2.0,-1.0,-2.0,-2.0,-2.0
1702490309.230812,-2.0,-1.0,2.0,-1.0,0.0,-2.0,-2.0,-1.0
1702490309.230812,-1.0,-1.0,-3.0,-2.0,-1.0,0.0,-1.0,0.0
1702490309.2408113,-2.0,-1.0,-4.0,-2.0,-1.0,0.0,-1.0,0.0
1702490309.2408113,-1.0,-1.0,-1.0,1.0,-1.0,-1.0,0.0,-2.0
1702490309.2508547,0.0,-3.0,0.0,0.0,-1.0,0.0,-1.0,-2.0
1702490309.2508547,-1.0,-1.0,-1.0,-1.0,0.0,0.0,-1.0,-1.0
1702490309.260811,1.0,-2.0,-2.0,-2.0,-1.0,1.0,-1.0,-2.0
1702490309.260811,-1.0,-1.0,-1.0,-2.0,-2.0,0.0,-1.0,0.0
1702490309.260811,-2.0,-1.0,-1.0,-1.0,0.0,-4.0,-2.0,-2.0
1702490309.260811,-1.0,-1.0,-1.0,-1.0,0.0,-2.0,-1.0,-2.0
1702490309.291253,-1.0,-2.0,-2.0,-1.0,-2.0,0.0,-1.0,-2.0
1702490309.291253,0.0,0.0,-2.0,-3.0,-2.0,0.0,-2.0,-3.0
1702490309.291253,-1.0,-1.0,-2.0,-2.0,-3.0,-1.0,-1.0,-1.0
1702490309.291253,0.0,0.0,-2.0,0.0,-1.0,-1.0,-2.0,-1.0
1702490309.3011491,-3.0,-2.0,0.0,-1.0,-1.0,-1.0,-2.0,-1.0
1702490309.3011491,-1.0,1.0,-1.0,1.0,0.0,-1.0,0.0,-1.0
1702490309.3108552,-1.0,-1.0,-4.0,-2.0,-1.0,-1.0,-1.0,0.0
1702490309.3108552,0.0,-1.0,-2.0,-3.0,-2.0,-3.0,0.0,-1.0
1702490309.3310237,-1.0,-2.0,-1.0,0.0,0.0,0.0,-1.0,0.0
1702490309.3310237,-2.0,-1.0,1.0,0.0,-1.0,-1.0,-1.0,0.0
1702490309.3310237,0.0,-2.0,-1.0,0.0,0.0,-2.0,0.0,-2.0
1702490309.3310237,-3.0,-1.0,-3.0,0.0,0.0,-1.0,-1.0,0.0
1702490309.3503819,-1.0,-2.0,-1.0,1.0,-1.0,-2.0,0.0,2.0
1702490309.3514044,-2.0,0.0,-1.0,-1.0,1.0,1.0,-2.0,-1.0
1702490309.3523986,-1.0,-2.0,-1.0,0.0,-1.0,0.0,-1.0,-2.0
1702490309.3523986,0.0,-1.0,-1.0,-1.0,0.0,-1.0,-1.0,-2.0
1702490309.3639653,-1.0,1.0,-2.0,-1.0,-1.0,-1.0,0.0,-2.0
1702490309.3639653,-1.0,-1.0,-1.0,-1.0,-1.0,-1.0,0.0,0.0
1702490309.383957,-1.0,3.0,-1.0,-2.0,-1.0,-2.0,-1.0,-1.0
1702490309.383957,-2.0,0.0,0.0,-3.0,-2.0,-1.0,-1.0,-2.0
1702490309.383957,0.0,-1.0,2.0,0.0,-2.0,-2.0,0.0,1.0
1702490309.383957,-2.0,-1.0,-1.0,-2.0,-2.0,-2.0,0.0,-3.0
1702490309.383957,-2.0,-2.0,-2.0,-2.0,0.0,-1.0,-1.0,-1.0
1702490309.383957,0.0,-3.0,-1.0,0.0,0.0,0.0,-1.0,-2.0
1702490309.4045382,0.0,-1.0,-1.0,-2.0,-1.0,-3.0,0.0,-1.0
1702490309.4045382,-2.0,-3.0,-2.0,-2.0,0.0,-2.0,-1.0,0.0
1702490309.4045382,0.0,-2.0,-2.0,-2.0,-2.0,-3.0,-1.0,0.0
1702490309.4045382,-2.0,-1.0,-2.0,-1.0,-2.0,-1.0,-1.0,-1.0
1702490309.4241333,-1.0,-2.0,-2.0,-1.0,0.0,-2.0,-2.0,-2.0
1702490309.4241333,0.0,-1.0,-1.0,-1.0,-3.0,-1.0,0.0,-1.0
1702490309.4241333,-2.0,-3.0,-1.0,-1.0,0.0,2.0,1.0,-1.0
1702490309.4241333,-1.0,-1.0,-1.0,-3.0,-1.0,0.0,-3.0,-1.0
1702490309.4415944,-1.0,-1.0,-1.0,0.0,-1.0,1.0,1.0,-1.0
1702490309.4415944,-1.0,-2.0,-2.0,-2.0,-1.0,-3.0,-1.0,-1.0
1702490309.4415944,-1.0,-1.0,1.0,0.0,-1.0,-2.0,-1.0,1.0
1702490309.4415944,1.0,-1.0,-1.0,-1.0,-1.0,-1.0,-1.0,-1.0
1702490309.4619908,-1.0,-4.0,-1.0,-1.0,0.0,0.0,-2.0,-1.0
1702490309.4619908,-1.0,-2.0,1.0,1.0,0.0,1.0,-1.0,-4.0
1702490309.4716082,0.0,-1.0,0.0,-1.0,-3.0,0.0,-1.0,0.0
1702490309.4716082,1.0,0.0,-1.0,-1.0,0.0,0.0,0.0,-1.0
1702490309.4916065,-2.0,0.0,-2.0,-1.0,-1.0,-2.0,-2.0,-1.0
1702490309.4916065,-1.0,1.0,-1.0,-1.0,0.0,-2.0,-1.0,0.0
1702490309.4916065,-1.0,-1.0,-2.0,-1.0,0.0,-1.0,-2.0,-1.0
1702490309.4916065,-2.0,-3.0,-1.0,-1.0,-2.0,-2.0,-1.0,0.0
1702490309.5016286,-1.0,-1.0,0.0,-2.0,-1.0,0.0,-1.0,1.0
1702490309.5016286,0.0,-1.0,-3.0,-2.0,-1.0,-1.0,-1.0,-1.0
1702490309.5119767,-1.0,0.0,1.0,-1.0,-1.0,-1.0,0.0,-1.0
1702490309.5119767,-2.0,-1.0,-3.0,-1.0,-2.0,0.0,-2.0,-2.0
1702490309.5221834,-2.0,-1.0,0.0,-2.0,-1.0,-2.0,0.0,-3.0
1702490309.5221834,0.0,0.0,-1.0,-1.0,-2.0,-1.0,-3.0,-2.0
1702490309.5319881,0.0,0.0,0.0,-1.0,-1.0,1.0,-1.0,0.0
1702490309.5319881,-1.0,0.0,1.0,-1.0,-2.0,-3.0,-2.0,-1.0
1702490309.5414965,-2.0,-1.0,-2.0,0.0,-1.0,-3.0,-1.0,-1.0
1702490309.5414965,-1.0,-1.0,-1.0,-2.0,-1.0,0.0,-1.0,1.0
1702490309.551854,-1.0,-3.0,0.0,0.0,-1.0,-2.0,-1.0,0.0
1702490309.551854,-1.0,-1.0,-2.0,-2.0,0.0,-1.0,0.0,-1.0
1702490309.5718582,0.0,1.0,-1.0,-1.0,-1.0,-2.0,-2.0,-1.0
1702490309.5718582,-1.0,-1.0,0.0,-1.0,-1.0,0.0,-1.0,0.0
1702490309.5718582,0.0,0.0,-1.0,-1.0,-2.0,-1.0,-1.0,-1.0
1702490309.5718582,-2.0,-1.0,-1.0,-1.0,0.0,1.0,0.0,-1.0
1702490309.5915039,-2.0,1.0,-1.0,1.0,-1.0,1.0,0.0,-2.0
1702490309.5915039,-2.0,-1.0,-1.0,-1.0,0.0,0.0,0.0,-1.0
1702490309.5915039,-1.0,-1.0,0.0,-1.0,-1.0,-2.0,-2.0,-2.0
1702490309.5915039,0.0,-1.0,1.0,0.0,-1.0,0.0,-2.0,1.0
1702490309.6015031,-2.0,-1.0,-3.0,-1.0,-3.0,-2.0,-2.0,0.0
1702490309.6015031,-1.0,-2.0,-1.0,0.0,2.0,0.0,1.0,0.0
1702490309.6118646,-2.0,-1.0,-3.0,-2.0,-2.0,-1.0,0.0,-1.0
1702490309.6118646,-2.0,-1.0,-1.0,-2.0,-1.0,0.0,0.0,0.0
1702490309.621894,1.0,-1.0,-2.0,-1.0,0.0,-1.0,0.0,-2.0
1702490309.621894,-1.0,-1.0,1.0,0.0,-2.0,-1.0,0.0,0.0
1702490309.6318018,1.0,-2.0,14.0,-1.0,-1.0,-1.0,-2.0,-1.0
1702490309.6318018,0.0,0.0,-5.0,-2.0,0.0,0.0,0.0,-2.0
1702490309.651504,-1.0,0.0,2.0,-2.0,-2.0,-1.0,-2.0,-1.0
1702490309.651504,0.0,-1.0,4.0,1.0,0.0,-1.0,-1.0,-2.0
1702490309.651504,-1.0,-1.0,-15.0,-1.0,-1.0,-1.0,-1.0,-1.0
1702490309.651504,0.0,-1.0,38.0,1.0,-2.0,-3.0,0.0,-2.0
1702490309.671884,-2.0,-7.0,-37.0,-3.0,-1.0,1.0,-2.0,-1.0
1702490309.671884,-1.0,-1.0,15.0,1.0,-1.0,-1.0,-1.0,-1.0
1702490309.671884,0.0,6.0,10.0,0.0,-2.0,0.0,-1.0,-1.0
1702490309.671884,0.0,-7.0,-35.0,-9.0,-2.0,-1.0,0.0,-1.0
1702490309.681797,-3.0,0.0,17.0,9.0,3.0,2.0,0.0,1.0
1702490309.681797,0.0,8.0,23.0,-9.0,-4.0,0.0,1.0,0.0
1702490309.6917994,-2.0,-24.0,-33.0,-4.0,3.0,1.0,-1.0,-3.0
1702490309.6917994,-2.0,34.0,-3.0,-11.0,-8.0,-2.0,0.0,-2.0
1702490309.7215025,-4.0,-47.0,37.0,16.0,2.0,-1.0,0.0,-2.0
1702490309.7215025,-3.0,-21.0,7.0,-19.0,-2.0,-1.0,-1.0,-1.0
1702490309.7215025,0.0,7.0,-73.0,2.0,-1.0,1.0,1.0,-1.0
1702490309.7215025,1.0,1.0,87.0,2.0,1.0,-2.0,-1.0,-1.0
1702490309.7316904,0.0,-3.0,-72.0,-17.0,-5.0,-2.0,1.0,-3.0
1702490309.7316904,0.0,7.0,45.0,17.0,4.0,-1.0,-1.0,-1.0
1702490309.7316904,-4.0,-17.0,52.0,-6.0,-3.0,-2.0,-1.0,-2.0
1702490309.7316904,-1.0,-6.0,-42.0,-2.0,1.0,-1.0,0.0,0.0
1702490309.741746,2.0,25.0,42.0,5.0,0.0,-2.0,-2.0,-2.0
1702490309.741746,-1.0,-1.0,-11.0,2.0,-1.0,-2.0,-2.0,-2.0
1702490309.7517152,-1.0,4.0,-60.0,-5.0,-2.0,-3.0,-2.0,-1.0
1702490309.7517152,-1.0,0.0,10.0,8.0,-1.0,-3.0,-1.0,-3.0
1702490309.7617083,1.0,7.0,12.0,-4.0,-4.0,-2.0,-1.0,1.0
1702490309.7617083,0.0,-4.0,-11.0,-4.0,-3.0,-3.0,-3.0,-2.0
1702490309.771512,2.0,6.0,26.0,6.0,-1.0,-2.0,-3.0,-1.0
1702490309.771512,-3.0,-11.0,-8.0,-1.0,-1.0,-1.0,-4.0,0.0
1702490309.801507,-2.0,-3.0,-8.0,-10.0,-4.0,-1.0,-1.0,-1.0
1702490309.801507,-1.0,-1.0,-32.0,3.0,-2.0,-1.0,-1.0,0.0
1702490309.801507,0.0,6.0,15.0,0.0,-2.0,-2.0,1.0,-2.0
1702490309.801507,-2.0,-9.0,-17.0,1.0,0.0,-1.0,0.0,1.0
1702490309.801507,-3.0,5.0,0.0,-3.0,1.0,0.0,-2.0,-1.0
1702490309.801507,0.0,5.0,-9.0,1.0,-2.0,-1.0,0.0,-1.0
1702490309.8115053,-3.0,0.0,15.0,0.0,0.0,1.0,-2.0,-1.0
1702490309.8115053,0.0,-6.0,-5.0,-4.0,-1.0,-2.0,-1.0,-1.0
1702490309.8215377,-1.0,4.0,5.0,1.0,0.0,-2.0,0.0,-2.0
1702490309.8215377,-1.0,-4.0,-10.0,-3.0,-2.0,-2.0,-2.0,-2.0
1702490309.8315065,1.0,-2.0,6.0,-1.0,-1.0,-2.0,1.0,0.0
1702490309.8315065,1.0,-1.0,-13.0,1.0,-3.0,0.0,-2.0,0.0
1702490309.8518198,1.0,1.0,-1.0,-1.0,-1.0,-3.0,1.0,0.0
1702490309.8518198,-2.0,-1.0,-8.0,0.0,1.0,-1.0,-2.0,0.0
1702490309.8518198,-2.0,3.0,7.0,-2.0,-2.0,-1.0,0.0,-1.0
1702490309.8518198,-1.0,-2.0,-3.0,2.0,-1.0,-1.0,-1.0,-1.0
1702490309.8618348,-1.0,-1.0,0.0,-3.0,0.0,-1.0,-1.0,-1.0
1702490309.8618348,-1.0,-2.0,-3.0,-1.0,-2.0,-1.0,0.0,-2.0
1702490309.880106,-1.0,0.0,6.0,-1.0,0.0,0.0,-1.0,0.0
1702490309.880106,-3.0,-3.0,-3.0,-2.0,0.0,-1.0,0.0,-3.0
1702490309.890383,0.0,-1.0,-1.0,-2.0,-3.0,-1.0,-2.0,0.0
1702490309.890383,1.0,-1.0,-6.0,0.0,0.0,2.0,0.0,-2.0
1702490309.891754,-2.0,2.0,7.0,-1.0,-1.0,-1.0,-1.0,-2.0
1702490309.891754,-1.0,-5.0,-10.0,0.0,-2.0,-1.0,-2.0,-1.0
1702490309.9070358,-2.0,4.0,-7.0,-1.0,1.0,-1.0,1.0,0.0
1702490309.9070358,0.0,-3.0,4.0,-2.0,-2.0,-4.0,-2.0,-1.0
1702490309.9070358,-10.0,1.0,6.0,2.0,2.0,2.0,1.0,-3.0
1702490309.9070358,0.0,-3.0,0.0,-1.0,-2.0,-2.0,0.0,0.0
1702490309.9266875,-11.0,-8.0,0.0,2.0,0.0,0.0,-1.0,-3.0
1702490309.9266875,-7.0,40.0,8.0,6.0,4.0,0.0,1.0,-1.0
1702490309.9366477,4.0,3.0,0.0,-3.0,-3.0,-2.0,-2.0,-1.0
1702490309.9366477,-1.0,-2.0,-2.0,0.0,0.0,-1.0,-1.0,0.0
1702490309.946664,2.0,-1.0,-1.0,-1.0,0.0,0.0,-1.0,-1.0
1702490309.946664,-2.0,-14.0,-6.0,-3.0,0.0,-1.0,-2.0,-1.0
1702490309.946664,-1.0,-2.0,1.0,-1.0,-2.0,-3.0,-1.0,-1.0
1702490309.946664,0.0,9.0,-1.0,0.0,-1.0,1.0,0.0,0.0
1702490309.967008,1.0,0.0,2.0,-1.0,-1.0,-2.0,1.0,-1.0
1702490309.967008,1.0,-8.0,-5.0,-2.0,-2.0,-1.0,-2.0,0.0
1702490309.967008,1.0,-1.0,-1.0,0.0,-1.0,-1.0,-1.0,1.0
1702490309.967008,0.0,-8.0,-3.0,-2.0,-1.0,0.0,-2.0,-2.0
1702490309.9870188,0.0,2.0,-1.0,-2.0,-2.0,-2.0,-3.0,1.0
1702490309.9870188,0.0,-7.0,-6.0,-1.0,-2.0,-1.0,-1.0,-1.0
1702490309.9870188,0.0,-2.0,-1.0,-1.0,-1.0,-2.0,-2.0,-1.0
1702490309.9870188,-1.0,-1.0,0.0,0.0,1.0,-1.0,-1.0,-1.0
1702490310.0072963,-2.0,0.0,0.0,-2.0,0.0,-1.0,-1.0,-2.0
1702490310.0072963,1.0,3.0,-6.0,0.0,-1.0,-1.0,-1.0,0.0
1702490310.0072963,-2.0,-2.0,0.0,-1.0,-1.0,-2.0,-1.0,-2.0
1702490310.0072963,-1.0,-1.0,-2.0,-2.0,-1.0,-2.0,0.0,-1.0
1702490310.0273933,0.0,0.0,0.0,0.0,0.0,-2.0,-2.0,-1.0
1702490310.0273933,0.0,-9.0,-5.0,-5.0,-5.0,-2.0,1.0,0.0
1702490310.0370188,-1.0,0.0,0.0,-2.0,0.0,0.0,0.0,0.0
1702490310.0370188,-1.0,-2.0,-2.0,0.0,-1.0,1.0,-2.0,0.0
1702490310.0370188,0.0,-3.0,-2.0,-2.0,-4.0,-1.0,0.0,1.0
1702490310.0370188,-1.0,-3.0,-1.0,1.0,-1.0,1.0,-1.0,-3.0
1702490310.0470448,0.0,-1.0,-2.0,0.0,0.0,-1.0,-2.0,-2.0
1702490310.0470448,-1.0,3.0,0.0,0.0,0.0,1.0,-1.0,-2.0
1702490310.067327,2.0,-1.0,-1.0,-2.0,-2.0,-1.0,-1.0,0.0
1702490310.067327,-2.0,-2.0,-1.0,-2.0,-2.0,-2.0,-2.0,-2.0
1702490310.067327,-1.0,-1.0,-1.0,-2.0,-1.0,0.0,-1.0,-2.0
1702490310.067327,-2.0,-4.0,-1.0,-1.0,-2.0,-1.0,-2.0,0.0
1702490310.0873713,-2.0,0.0,-1.0,0.0,0.0,-1.0,0.0,-2.0
1702490310.0873713,-3.0,-2.0,-3.0,2.0,-1.0,0.0,0.0,-1.0
1702490310.0970206,0.0,-1.0,-2.0,-2.0,-1.0,0.0,-1.0,-2.0
1702490310.0970206,0.0,-2.0,0.0,2.0,0.0,-2.0,-1.0,0.0
1702490310.0970206,1.0,-1.0,0.0,-1.0,-1.0,-1.0,-1.0,-1.0
1702490310.0970206,0.0,-3.0,-1.0,-2.0,-1.0,-2.0,-3.0,1.0
1702490310.107135,1.0,-1.0,0.0,-3.0,-1.0,-1.0,0.0,2.0
1702490310.107135,-2.0,0.0,-2.0,-1.0,-3.0,-1.0,0.0,-2.0
1702490310.127367,-1.0,0.0,-1.0,-3.0,-1.0,-1.0,0.0,-1.0
1702490310.127367,-2.0,-2.0,-2.0,-2.0,0.0,1.0,0.0,-1.0
1702490310.127367,0.0,-3.0,0.0,1.0,-1.0,0.0,-1.0,-1.0
1702490310.127367,-1.0,1.0,0.0,-1.0,-1.0,-3.0,-1.0,-1.0
1702490310.1472378,-1.0,0.0,0.0,-1.0,-3.0,-1.0,-2.0,-4.0
1702490310.1472378,0.0,-1.0,-1.0,-1.0,-1.0,-3.0,-1.0,-2.0
1702490310.1472378,-1.0,0.0,-1.0,0.0,-2.0,-1.0,-1.0,-1.0
1702490310.1472378,0.0,0.0,-1.0,0.0,0.0,-1.0,0.0,-1.0
1702490310.1670282,-1.0,-1.0,-2.0,-2.0,0.0,0.0,-2.0,0.0
1702490310.1670282,0.0,-1.0,-1.0,-2.0,-1.0,-2.0,-2.0,-2.0
1702490310.1970215,-2.0,-1.0,0.0,-2.0,0.0,0.0,0.0,-2.0
1702490310.1970215,-2.0,-3.0,-1.0,-1.0,-1.0,0.0,-1.0,-1.0
1702490310.1970215,0.0,-2.0,-3.0,-1.0,0.0,-2.0,-1.0,-2.0
1702490310.1970215,-1.0,-2.0,1.0,0.0,-1.0,2.0,-2.0,0.0
1702490310.1970215,-1.0,0.0,0.0,0.0,-1.0,-2.0,-1.0,0.0
1702490310.1970215,0.0,-1.0,-2.0,-1.0,-1.0,0.0,-1.0,-2.0
1702490310.207018,-1.0,-1.0,0.0,0.0,-1.0,-1.0,-2.0,-2.0
1702490310.207018,1.0,1.0,-3.0,-1.0,0.0,-2.0,-1.0,0.0
1702490310.207018,0.0,0.0,-2.0,0.0,-3.0,-2.0,-2.0,-2.0
1702490310.207018,-1.0,-2.0,0.0,1.0,-2.0,-1.0,-2.0,0.0
1702490310.22702,-1.0,-1.0,0.0,-2.0,-2.0,-2.0,-2.0,-1.0
1702490310.22702,-1.0,-2.0,-2.0,-2.0,-1.0,-1.0,-2.0,-1.0
1702490310.22702,-1.0,-1.0,-3.0,-1.0,-3.0,-1.0,0.0,0.0
1702490310.22702,-2.0,-2.0,-2.0,-2.0,-2.0,-2.0,-2.0,-1.0
1702490310.24735,-1.0,-1.0,-2.0,0.0,-1.0,-2.0,-1.0,0.0
1702490310.24735,-1.0,-2.0,0.0,-2.0,-2.0,-2.0,-1.0,-1.0
1702490310.24735,0.0,-2.0,0.0,-1.0,0.0,-2.0,-2.0,0.0
1702490310.24735,0.0,-1.0,0.0,-1.0,-1.0,0.0,-2.0,-2.0
1702490310.2770216,-2.0,1.0,0.0,0.0,-2.0,-1.0,0.0,0.0
1702490310.2770216,0.0,0.0,13.0,-2.0,0.0,0.0,0.0,-1.0
1702490310.2770216,1.0,-2.0,-10.0,-1.0,-2.0,0.0,-1.0,-1.0
1702490310.2770216,-2.0,-3.0,-1.0,-2.0,-1.0,-2.0,-1.0,-2.0
1702490310.2770216,-1.0,0.0,1.0,0.0,-1.0,0.0,0.0,-1.0
1702490310.2770216,-2.0,-1.0,2.0,0.0,0.0,-2.0,1.0,0.0
1702490310.2873378,0.0,2.0,10.0,1.0,-1.0,0.0,-1.0,1.0
1702490310.2873378,-2.0,-2.0,-7.0,-3.0,-2.0,0.0,0.0,-1.0
1702490310.3074605,0.0,-2.0,0.0,1.0,0.0,0.0,0.0,0.0
1702490310.3074605,-1.0,-2.0,-4.0,-2.0,-1.0,0.0,0.0,-3.0
1702490310.3074605,-1.0,-3.0,2.0,-3.0,-1.0,-1.0,-2.0,-3.0
1702490310.3074605,-1.0,1.0,1.0,0.0,-1.0,-4.0,-2.0,0.0
1702490310.3270192,-1.0,-1.0,-1.0,-2.0,-1.0,-3.0,-1.0,-2.0
1702490310.3270192,-1.0,1.0,2.0,0.0,-3.0,-2.0,-1.0,-1.0
1702490310.3270192,-2.0,-2.0,3.0,-1.0,-2.0,0.0,1.0,-3.0
1702490310.3270192,-1.0,-2.0,0.0,-1.0,-2.0,-1.0,0.0,-2.0
1702490310.3370523,-1.0,-2.0,2.0,-2.0,-1.0,-2.0,-1.0,-1.0
1702490310.3370523,-1.0,-3.0,-6.0,0.0,-2.0,-1.0,-2.0,0.0
1702490310.3472867,-1.0,1.0,0.0,0.0,-1.0,-1.0,0.0,0.0
1702490310.3472867,0.0,1.0,1.0,0.0,-1.0,-1.0,1.0,0.0
1702490310.3670208,0.0,-3.0,-2.0,-4.0,-2.0,1.0,0.0,-1.0
1702490310.3670208,-1.0,-5.0,-3.0,-1.0,-1.0,0.0,-1.0,-1.0
1702490310.3670208,1.0,15.0,-3.0,-2.0,-1.0,0.0,1.0,-1.0
1702490310.3670208,1.0,-19.0,5.0,-2.0,-1.0,-1.0,-2.0,-2.0
1702490310.387018,-4.0,4.0,10.0,-1.0,2.0,1.0,0.0,0.0
1702490310.387018,-3.0,7.0,-6.0,-2.0,0.0,-1.0,-1.0,-3.0
1702490310.387018,-2.0,-1.0,10.0,1.0,-1.0,-2.0,-2.0,0.0
1702490310.387018,0.0,2.0,-36.0,-3.0,0.0,-4.0,-3.0,-2.0
1702490310.406444,0.0,8.0,5.0,-2.0,-1.0,-3.0,-3.0,1.0
1702490310.406444,-2.0,-5.0,-4.0,-2.0,-2.0,-2.0,-1.0,-1.0
1702490310.4155388,-2.0,-6.0,-6.0,-2.0,0.0,-4.0,-3.0,-3.0
1702490310.4155388,0.0,1.0,1.0,-1.0,-1.0,-2.0,0.0,0.0
1702490310.4475152,0.0,-7.0,-8.0,-3.0,-1.0,-2.0,-3.0,-1.0
1702490310.4475152,-1.0,2.0,-5.0,-2.0,-2.0,-4.0,-1.0,-1.0
1702490310.4475152,-1.0,-5.0,-8.0,-1.0,-2.0,-1.0,-5.0,0.0
1702490310.4475152,0.0,4.0,9.0,-2.0,0.0,0.0,-3.0,-1.0
1702490310.4475152,-1.0,-2.0,-7.0,0.0,-3.0,-1.0,-2.0,-1.0
1702490310.4475152,-1.0,0.0,2.0,-1.0,-2.0,0.0,0.0,0.0
1702490310.4475152,-1.0,-5.0,8.0,-1.0,-2.0,0.0,0.0,-3.0
1702490310.4475152,-2.0,-2.0,-25.0,-1.0,0.0,1.0,0.0,0.0
1702490310.4578426,-1.0,-2.0,-4.0,-1.0,-2.0,0.0,-1.0,-2.0
1702490310.4578426,-1.0,-5.0,-2.0,-1.0,0.0,-1.0,0.0,-2.0
1702490310.4677932,-2.0,-3.0,-1.0,0.0,-1.0,-1.0,1.0,-1.0
1702490310.4677932,-3.0,4.0,7.0,-1.0,-1.0,0.0,0.0,0.0
1702490310.4875636,0.0,-1.0,-3.0,-1.0,-1.0,-1.0,0.0,-3.0
1702490310.4875636,0.0,-1.0,-1.0,-1.0,0.0,-2.0,-1.0,-3.0
1702490310.4975243,-1.0,-2.0,-4.0,-2.0,-2.0,1.0,0.0,-2.0
1702490310.4975243,0.0,2.0,5.0,-1.0,-2.0,-1.0,0.0,-2.0
1702490310.5078516,-1.0,-1.0,-2.0,1.0,-1.0,1.0,-1.0,-1.0
1702490310.5078516,-1.0,-2.0,2.0,-1.0,-2.0,1.0,-1.0,-1.0
1702490310.5078516,0.0,-2.0,-5.0,-1.0,0.0,-1.0,0.0,0.0
1702490310.5078516,-1.0,0.0,6.0,0.0,-2.0,0.0,0.0,-1.0
1702490310.5178416,-1.0,-2.0,-1.0,-2.0,0.0,0.0,-2.0,1.0
1702490310.5178416,-2.0,0.0,-4.0,-1.0,-2.0,2.0,0.0,0.0
1702490310.5376005,0.0,-1.0,-5.0,-1.0,0.0,0.0,-3.0,-1.0
1702490310.5376005,-1.0,-1.0,6.0,-2.0,-2.0,-1.0,-1.0,-1.0
1702490310.5475242,-1.0,-2.0,-4.0,-1.0,-2.0,-1.0,1.0,-1.0
1702490310.5475242,-1.0,0.0,0.0,-2.0,0.0,-2.0,-1.0,0.0
1702490310.5475242,-1.0,-1.0,-2.0,1.0,-2.0,-1.0,-1.0,-1.0
1702490310.5475242,-1.0,1.0,4.0,1.0,-1.0,-1.0,-2.0,1.0
1702490310.5678484,0.0,0.0,-3.0,1.0,-1.0,-2.0,-1.0,0.0
1702490310.5678484,0.0,-3.0,-3.0,0.0,-1.0,0.0,-1.0,1.0
1702490310.5678484,-1.0,-2.0,-3.0,-2.0,0.0,0.0,-1.0,-1.0
1702490310.5678484,0.0,-2.0,3.0,-1.0,-2.0,1.0,0.0,-2.0
1702490310.5778122,0.0,-2.0,-2.0,-1.0,-1.0,-1.0,0.0,-3.0
1702490310.5778122,-1.0,1.0,-1.0,-1.0,0.0,0.0,0.0,-1.0
1702490310.5877504,-3.0,-1.0,11.0,-2.0,-1.0,-4.0,-1.0,-1.0
1702490310.5877504,-1.0,1.0,-9.0,-1.0,-2.0,0.0,0.0,-1.0
1702490310.6175222,-1.0,-2.0,0.0,-1.0,0.0,-1.0,-2.0,-2.0
1702490310.6175222,0.0,-1.0,2.0,-2.0,-1.0,1.0,-1.0,-1.0
1702490310.6175222,-2.0,-2.0,1.0,-2.0,0.0,-2.0,-1.0,-2.0
1702490310.6175222,-2.0,0.0,4.0,0.0,-1.0,0.0,-2.0,-2.0
1702490310.6278687,-2.0,-2.0,-3.0,-1.0,-3.0,-2.0,-1.0,-2.0
1702490310.6278687,0.0,1.0,-3.0,-1.0,-2.0,-1.0,-2.0,0.0
1702490310.6278687,-1.0,-1.0,-6.0,-2.0,0.0,-1.0,2.0,-2.0
1702490310.6278687,-2.0,-1.0,2.0,-2.0,0.0,1.0,-1.0,0.0
1702490310.6675231,-1.0,-1.0,-4.0,-2.0,-1.0,0.0,1.0,0.0
1702490310.6675231,-2.0,-3.0,1.0,-1.0,-1.0,0.0,-2.0,-2.0
1702490310.6675231,-1.0,-1.0,-5.0,-2.0,-1.0,-1.0,-1.0,0.0
1702490310.6675231,1.0,-2.0,1.0,-2.0,-2.0,0.0,1.0,-1.0
1702490310.6675231,-1.0,1.0,2.0,-1.0,0.0,0.0,0.0,-2.0
1702490310.6675231,-1.0,-2.0,-3.0,-1.0,-2.0,-2.0,-2.0,-2.0
1702490310.6675231,0.0,0.0,-2.0,-2.0,-2.0,0.0,-1.0,0.0
1702490310.6675231,-2.0,-2.0,0.0,-1.0,0.0,-2.0,0.0,0.0
1702490310.6878808,1.0,-1.0,-1.0,0.0,1.0,0.0,0.0,0.0
1702490310.6878808,-1.0,-2.0,-1.0,-1.0,0.0,-2.0,-2.0,-2.0
1702490310.6878808,-1.0,-1.0,-3.0,0.0,-2.0,0.0,-2.0,-1.0
1702490310.6878808,0.0,-2.0,-1.0,0.0,-2.0,-2.0,-1.0,-1.0
1702490310.7175226,-2.0,-1.0,0.0,-2.0,-1.0,-1.0,0.0,-1.0
1702490310.7175226,0.0,0.0,-2.0,-1.0,-1.0,-1.0,-1.0,-1.0
1702490310.7175226,-1.0,-2.0,-2.0,-2.0,-1.0,1.0,0.0,-2.0
1702490310.7175226,0.0,-1.0,-1.0,-1.0,-1.0,-1.0,-1.0,0.0
1702490310.7277606,-3.0,-1.0,-2.0,0.0,-1.0,1.0,-1.0,-1.0
1702490310.7277606,-1.0,-1.0,-1.0,0.0,-1.0,0.0,0.0,-3.0
1702490310.7277606,-2.0,-2.0,0.0,-2.0,0.0,-1.0,0.0,-1.0
1702490310.7277606,-2.0,0.0,0.0,0.0,0.0,-1.0,-2.0,0.0
1702490310.747603,-3.0,-1.0,0.0,-2.0,-1.0,0.0,-1.0,0.0
1702490310.747603,0.0,1.0,-1.0,0.0,-2.0,-1.0,-1.0,0.0
1702490310.747603,1.0,0.0,-2.0,0.0,-1.0,-1.0,-1.0,-1.0
1702490310.747603,-1.0,-3.0,-2.0,-1.0,-1.0,-1.0,-1.0,-3.0
1702490310.7975247,-2.0,-2.0,-2.0,-1.0,-1.0,-2.0,-2.0,0.0
1702490310.7975247,0.0,-2.0,-1.0,-1.0,-1.0,0.0,0.0,-1.0
1702490310.7975247,-1.0,0.0,1.0,-1.0,-1.0,1.0,-1.0,-1.0
1702490310.7975247,-1.0,0.0,1.0,0.0,-1.0,-1.0,-1.0,0.0
1702490310.7975247,-1.0,-1.0,-1.0,0.0,0.0,-1.0,0.0,-3.0
1702490310.7975247,-2.0,0.0,-1.0,0.0,-1.0,0.0,-1.0,-2.0
1702490310.7975247,0.0,-1.0,-2.0,-1.0,-2.0,-2.0,-1.0,-1.0
1702490310.7975247,-1.0,-1.0,1.0,0.0,-1.0,1.0,-3.0,-3.0
1702490310.8078508,0.0,-3.0,-1.0,-2.0,-1.0,0.0,-1.0,-2.0
1702490310.8078508,0.0,0.0,-2.0,0.0,-1.0,0.0,-1.0,-2.0
1702490310.8078508,-1.0,-1.0,0.0,-1.0,-1.0,-3.0,-2.0,1.0
1702490310.8078508,-1.0,0.0,0.0,-1.0,1.0,-1.0,-1.0,-2.0
1702490310.837523,0.0,0.0,-1.0,-1.0,-1.0,-2.0,-1.0,0.0
1702490310.837523,-1.0,-1.0,-1.0,-1.0,-1.0,-2.0,-1.0,-1.0
1702490310.837523,-1.0,0.0,-1.0,0.0,-1.0,1.0,-3.0,-2.0
1702490310.837523,0.0,-1.0,-2.0,0.0,-1.0,-2.0,0.0,-1.0
1702490310.84772,-2.0,0.0,0.0,0.0,-2.0,-2.0,0.0,0.0
1702490310.84772,-1.0,-2.0,0.0,-2.0,1.0,-2.0,0.0,-1.0
1702490310.8575277,-1.0,0.0,-3.0,0.0,-1.0,1.0,-2.0,-2.0
1702490310.8575277,-2.0,1.0,-2.0,0.0,0.0,-1.0,-1.0,-2.0
1702490310.867598,1.0,0.0,-2.0,-2.0,-2.0,0.0,-1.0,-2.0
1702490310.867598,-1.0,-1.0,-1.0,-2.0,0.0,-2.0,-2.0,0.0
1702490310.8875244,0.0,-2.0,-3.0,-1.0,-1.0,-1.0,0.0,0.0
1702490310.8875244,1.0,-2.0,-2.0,-1.0,-1.0,-2.0,0.0,-2.0
1702490310.8875244,-1.0,1.0,-1.0,-3.0,-1.0,-3.0,-1.0,1.0
1702490310.8875244,-1.0,0.0,-2.0,-3.0,-1.0,-2.0,0.0,-1.0
1702490310.8875244,-1.0,-1.0,-1.0,-1.0,0.0,-2.0,-1.0,0.0
1702490310.8875244,0.0,0.0,1.0,-1.0,-2.0,-1.0,0.0,-2.0
1702490310.9079225,-2.0,-2.0,-2.0,0.0,0.0,1.0,0.0,-1.0
1702490310.9079225,-2.0,-1.0,-3.0,-2.0,-2.0,-1.0,-1.0,-1.0
1702490310.9175248,0.0,0.0,0.0,-2.0,0.0,-2.0,0.0,-1.0
1702490310.9175248,-1.0,-2.0,-2.0,-1.0,-2.0,-1.0,-1.0,-1.0
1702490310.9325778,0.0,-1.0,-1.0,-1.0,0.0,0.0,-2.0,0.0
1702490310.9325778,1.0,-1.0,-2.0,0.0,-1.0,-1.0,-1.0,0.0
1702490310.942566,-2.0,0.0,-1.0,-1.0,0.0,0.0,0.0,-1.0
1702490310.942566,-1.0,-1.0,0.0,0.0,-1.0,-2.0,-1.0,-1.0
1702490310.9545407,-1.0,3.0,-1.0,-1.0,-1.0,1.0,0.0,-2.0
1702490310.9545407,-1.0,-11.0,1.0,-1.0,1.0,0.0,-1.0,0.0
1702490310.9621184,0.0,33.0,1.0,-3.0,-4.0,-1.0,-2.0,-2.0
1702490310.9621184,-5.0,-46.0,-4.0,-2.0,-1.0,0.0,-1.0,-1.0
1702490310.9621184,3.0,19.0,4.0,1.0,-2.0,-1.0,-1.0,0.0
1702490310.9621184,-2.0,1.0,5.0,0.0,0.0,-1.0,0.0,-1.0
1702490310.9723167,3.0,-12.0,-4.0,-1.0,-1.0,-1.0,0.0,1.0
1702490310.9723167,-10.0,-19.0,15.0,0.0,0.0,-2.0,-2.0,-3.0
1702490311.0224738,0.0,-16.0,-15.0,-2.0,-3.0,-2.0,-2.0,-2.0
1702490311.0224738,-2.0,28.0,12.0,-1.0,-1.0,0.0,-1.0,-1.0
1702490311.0224738,0.0,-31.0,-19.0,-2.0,1.0,0.0,0.0,2.0
1702490311.0224738,3.0,28.0,-1.0,-4.0,-3.0,-2.0,-1.0,-1.0
1702490311.0224738,-1.0,-5.0,10.0,1.0,-1.0,0.0,0.0,-2.0
1702490311.0224738,5.0,-28.0,-1.0,2.0,2.0,0.0,2.0,1.0
1702490311.0224738,2.0,-12.0,8.0,1.0,-1.0,2.0,0.0,-1.0
1702490311.0224738,0.0,72.0,1.0,0.0,-1.0,-1.0,0.0,-2.0
1702490311.0224738,-3.0,8.0,-45.0,-7.0,-2.0,-1.0,-2.0,-1.0
1702490311.0224738,-12.0,-29.0,8.0,2.0,1.0,2.0,1.0,-3.0
1702490311.032471,-4.0,-9.0,1.0,1.0,-1.0,0.0,-1.0,-1.0
1702490311.032471,-5.0,5.0,1.0,-1.0,-1.0,0.0,0.0,0.0
1702490311.048982,-6.0,-70.0,7.0,-3.0,0.0,-1.0,-2.0,-1.0
1702490311.048982,5.0,-55.0,-29.0,-6.0,-3.0,-3.0,-3.0,-2.0
1702490311.048982,-15.0,-46.0,7.0,4.0,2.0,-1.0,0.0,-2.0
1702490311.048982,2.0,29.0,6.0,-3.0,-2.0,-1.0,-1.0,1.0
1702490311.0689907,6.0,25.0,-2.0,2.0,-1.0,0.0,0.0,1.0
1702490311.0689907,-4.0,-7.0,-2.0,-2.0,-3.0,-2.0,-2.0,0.0
1702490311.0689907,1.0,-2.0,7.0,-3.0,-1.0,-2.0,-2.0,-2.0
1702490311.0689907,6.0,-46.0,-5.0,2.0,-2.0,0.0,-1.0,0.0
1702490311.0889902,-6.0,20.0,13.0,-2.0,-1.0,-1.0,-1.0,-2.0
1702490311.0889902,4.0,35.0,-10.0,-1.0,0.0,-3.0,-1.0,-2.0
1702490311.0889902,3.0,4.0,3.0,-1.0,-2.0,-2.0,0.0,-3.0
1702490311.0889902,0.0,5.0,-30.0,-3.0,1.0,-2.0,-2.0,-1.0
1702490311.1189916,-1.0,17.0,9.0,-1.0,-1.0,-2.0,-1.0,-4.0
1702490311.1189916,-2.0,6.0,13.0,-2.0,-3.0,-1.0,-1.0,-1.0
1702490311.1189916,-1.0,19.0,-13.0,-3.0,-2.0,-1.0,-3.0,-2.0
1702490311.1189916,-1.0,-17.0,2.0,-2.0,1.0,-2.0,-2.0,-1.0
1702490311.1292078,-2.0,-8.0,1.0,-1.0,-1.0,-3.0,0.0,-1.0
1702490311.1292078,-1.0,8.0,3.0,1.0,-1.0,-2.0,-3.0,-1.0
1702490311.1292078,-4.0,9.0,0.0,1.0,-1.0,-2.0,-2.0,-2.0
1702490311.1292078,1.0,1.0,2.0,0.0,-3.0,1.0,-2.0,-1.0
1702490311.1489942,-1.0,-9.0,0.0,0.0,-1.0,-3.0,-1.0,-1.0
1702490311.1489942,1.0,16.0,-2.0,-3.0,-1.0,-1.0,0.0,-1.0
1702490311.1489942,3.0,6.0,-2.0,-3.0,-2.0,0.0,-1.0,-1.0
1702490311.1489942,-3.0,-11.0,-5.0,-1.0,-1.0,-1.0,0.0,-2.0
1702490311.178993,1.0,4.0,4.0,0.0,-1.0,-1.0,-1.0,-2.0
1702490311.178993,-1.0,2.0,-4.0,1.0,0.0,0.0,-3.0,-1.0
1702490311.178993,1.0,3.0,0.0,-2.0,-2.0,-2.0,1.0,0.0
1702490311.178993,0.0,-7.0,3.0,0.0,1.0,-1.0,-1.0,-1.0
1702490311.1891694,-4.0,-5.0,0.0,1.0,1.0,1.0,-2.0,-1.0
1702490311.1891694,1.0,8.0,0.0,0.0,-2.0,0.0,-1.0,0.0
1702490311.1891694,-1.0,0.0,-3.0,0.0,-1.0,-1.0,-1.0,-1.0
1702490311.1891694,2.0,12.0,3.0,0.0,-1.0,0.0,-1.0,2.0
1702490311.2090468,1.0,4.0,1.0,1.0,-2.0,-1.0,-1.0,-2.0
1702490311.2090468,-2.0,0.0,-5.0,-2.0,-2.0,1.0,-2.0,0.0
1702490311.2090468,1.0,9.0,1.0,0.0,-2.0,-1.0,-1.0,0.0
1702490311.2090468,-2.0,-10.0,-2.0,-3.0,0.0,0.0,1.0,-1.0
1702490311.2393973,-3.0,-4.0,-1.0,-1.0,-2.0,-1.0,-2.0,-1.0
1702490311.2393973,0.0,-3.0,-3.0,-3.0,-1.0,-2.0,0.0,-1.0
1702490311.2393973,-1.0,-2.0,-2.0,0.0,-1.0,-1.0,-1.0,-2.0
1702490311.2393973,1.0,-5.0,-1.0,-4.0,-2.0,-1.0,1.0,-1.0
1702490311.2492888,-2.0,3.0,0.0,-2.0,1.0,1.0,-2.0,-1.0
1702490311.2492888,-1.0,0.0,0.0,0.0,0.0,-2.0,-2.0,-1.0
1702490311.2492888,-4.0,3.0,1.0,0.0,-1.0,0.0,-1.0,-1.0
1702490311.2492888,-1.0,-4.0,0.0,0.0,-1.0,0.0,-3.0,-1.0
1702490311.2693005,-1.0,-1.0,1.0,-1.0,0.0,0.0,-1.0,-1.0
1702490311.2693005,-1.0,0.0,-1.0,0.0,-2.0,0.0,-1.0,-1.0
1702490311.2693005,1.0,0.0,-1.0,-1.0,-1.0,-1.0,-2.0,-1.0
1702490311.2693005,-1.0,-2.0,0.0,-1.0,-1.0,0.0,0.0,0.0
1702490311.2896926,1.0,-3.0,-1.0,0.0,-3.0,-1.0,-1.0,-1.0
1702490311.2896926,-1.0,3.0,-2.0,-1.0,-1.0,-1.0,-1.0,-1.0
1702490311.2896926,0.0,0.0,0.0,-4.0,-1.0,-1.0,1.0,0.0
1702490311.2896926,2.0,-1.0,-1.0,-2.0,-3.0,0.0,0.0,-1.0
1702490311.3097014,0.0,1.0,-1.0,-2.0,-1.0,-2.0,-1.0,0.0
1702490311.3097014,-2.0,-1.0,-2.0,-1.0,0.0,-3.0,-2.0,0.0
1702490311.3097014,-2.0,3.0,0.0,-2.0,0.0,0.0,-3.0,0.0
1702490311.3097014,-4.0,-4.0,-1.0,0.0,-2.0,-1.0,0.0,-2.0
1702490311.329298,0.0,1.0,0.0,-1.0,-1.0,-2.0,0.0,-1.0
1702490311.329298,-3.0,1.0,-1.0,0.0,-1.0,-1.0,-1.0,-1.0
1702490311.329298,-1.0,-1.0,-1.0,1.0,-2.0,-2.0,-1.0,0.0
1702490311.329298,-1.0,-1.0,-2.0,-1.0,0.0,-3.0,-1.0,-2.0
1702490311.349518,1.0,-3.0,-2.0,-2.0,0.0,-3.0,-1.0,-1.0
1702490311.349518,-1.0,-1.0,-1.0,-2.0,-2.0,-1.0,0.0,-2.0
1702490311.359303,-2.0,-1.0,0.0,0.0,-1.0,0.0,-1.0,-2.0
1702490311.359303,-1.0,0.0,-2.0,0.0,-1.0,-2.0,-1.0,0.0
1702490311.3695586,-1.0,-3.0,-1.0,1.0,-3.0,0.0,0.0,-1.0
1702490311.3695586,-2.0,-1.0,2.0,0.0,-2.0,-3.0,0.0,-2.0
1702490311.3695586,-1.0,-3.0,-1.0,0.0,-1.0,0.0,0.0,1.0
1702490311.3695586,-2.0,-1.0,0.0,0.0,-1.0,0.0,-1.0,-1.0
1702490311.4092994,-2.0,0.0,0.0,0.0,0.0,1.0,-1.0,-1.0
1702490311.4092994,-1.0,-3.0,-1.0,0.0,0.0,0.0,-1.0,0.0
1702490311.4092994,-2.0,2.0,0.0,-3.0,-3.0,-1.0,0.0,1.0
1702490311.4092994,0.0,-1.0,0.0,1.0,-2.0,1.0,-1.0,-2.0
1702490311.4092994,0.0,-2.0,10.0,-1.0,-2.0,-1.0,-1.0,1.0
1702490311.4092994,-1.0,-2.0,-12.0,-2.0,-2.0,0.0,-1.0,-1.0
1702490311.4092994,2.0,-2.0,-1.0,-1.0,0.0,-3.0,-2.0,-2.0
1702490311.4092994,0.0,-2.0,-1.0,-2.0,1.0,-1.0,-2.0,-1.0
1702490311.429298,-1.0,-2.0,2.0,0.0,-1.0,0.0,-3.0,-2.0
1702490311.429298,-1.0,-1.0,4.0,1.0,1.0,1.0,-1.0,-1.0
1702490311.429298,-1.0,-1.0,-2.0,-2.0,-1.0,-2.0,1.0,-1.0
1702490311.429298,-1.0,2.0,-2.0,0.0,0.0,-2.0,0.0,0.0
1702490311.4492967,-2.0,-2.0,-5.0,-1.0,-2.0,-1.0,0.0,-1.0
1702490311.4492967,0.0,-2.0,0.0,-2.0,1.0,0.0,-2.0,-2.0
1702490311.4492967,-1.0,-1.0,-1.0,1.0,-1.0,0.0,-1.0,-2.0
1702490311.4492967,0.0,-5.0,0.0,-3.0,-2.0,-1.0,-1.0,-1.0
1702490311.472153,-1.0,5.0,8.0,2.0,-3.0,0.0,0.0,-2.0
1702490311.472153,-1.0,0.0,-1.0,-3.0,0.0,-1.0,-1.0,-1.0
1702490311.4792054,-1.0,-1.0,0.0,-3.0,-1.0,-1.0,0.0,-1.0
1702490311.4792054,0.0,2.0,13.0,3.0,0.0,-1.0,0.0,0.0
1702490311.4947324,-2.0,-5.0,-17.0,-2.0,-2.0,0.0,0.0,1.0
1702490311.4947324,-1.0,0.0,23.0,1.0,-2.0,1.0,0.0,-1.0
1702490311.5047197,-1.0,0.0,-12.0,-2.0,1.0,-1.0,-2.0,0.0
1702490311.5047197,-3.0,-2.0,14.0,-2.0,0.0,-1.0,-1.0,-1.0
1702490311.5047197,-1.0,1.0,5.0,0.0,-1.0,-1.0,0.0,1.0
1702490311.5047197,0.0,3.0,9.0,4.0,-2.0,-4.0,0.0,-1.0
1702490311.5151029,-1.0,-1.0,-21.0,-1.0,-1.0,-1.0,0.0,-1.0
1702490311.5151029,1.0,1.0,2.0,-3.0,-1.0,-2.0,1.0,-2.0
1702490311.5251834,0.0,-2.0,1.0,-3.0,1.0,-1.0,-3.0,-2.0
1702490311.5251834,-1.0,-2.0,-22.0,-4.0,-1.0,-1.0,-1.0,-2.0
1702490311.5355635,-1.0,0.0,21.0,3.0,-2.0,0.0,-2.0,-1.0
1702490311.5355635,-4.0,-6.0,-34.0,-3.0,-1.0,0.0,1.0,1.0
1702490311.5554328,0.0,-2.0,2.0,0.0,0.0,-3.0,0.0,-1.0
1702490311.5554328,-1.0,-2.0,-5.0,-2.0,-1.0,0.0,-2.0,-1.0
1702490311.5554328,-1.0,0.0,4.0,-2.0,-1.0,-1.0,-2.0,-1.0
1702490311.5554328,0.0,1.0,0.0,-1.0,-3.0,-2.0,-1.0,-1.0
1702490311.5752294,-1.0,-2.0,-15.0,-4.0,-1.0,-3.0,-1.0,1.0
1702490311.5752294,-1.0,-1.0,-14.0,-3.0,-2.0,0.0,0.0,0.0
1702490311.5752294,-1.0,2.0,12.0,3.0,1.0,-2.0,-2.0,0.0
1702490311.5752294,-3.0,-4.0,-2.0,0.0,-2.0,-2.0,0.0,-2.0
1702490311.5854166,-2.0,3.0,17.0,0.0,-3.0,0.0,-1.0,-2.0
1702490311.5854166,-1.0,-2.0,-5.0,-3.0,-1.0,-1.0,0.0,-1.0
1702490311.5953557,-2.0,-3.0,-16.0,-3.0,-2.0,-2.0,-2.0,-1.0
1702490311.5953557,0.0,5.0,33.0,3.0,1.0,0.0,-2.0,-2.0
1702490311.6152692,-2.0,-8.0,-18.0,-5.0,-1.0,-1.0,0.0,-1.0
1702490311.6152692,-1.0,0.0,14.0,2.0,-1.0,1.0,-1.0,0.0
1702490311.6152692,-2.0,-1.0,19.0,0.0,-1.0,0.0,-1.0,-2.0
1702490311.6152692,-2.0,-1.0,-12.0,2.0,0.0,0.0,-2.0,1.0
1702490311.6451945,-1.0,2.0,69.0,2.0,-3.0,0.0,-1.0,-1.0
1702490311.6451945,1.0,0.0,-35.0,-4.0,0.0,-2.0,-1.0,0.0
1702490311.6451945,-3.0,-12.0,-32.0,-5.0,0.0,1.0,1.0,-1.0
1702490311.6451945,-1.0,6.0,30.0,2.0,-3.0,-1.0,-1.0,-1.0
1702490311.6451945,-2.0,-5.0,-46.0,-3.0,0.0,0.0,-1.0,-1.0
1702490311.6451945,-3.0,-4.0,-1.0,-2.0,-1.0,-2.0,0.0,-1.0
1702490311.6553607,0.0,1.0,-10.0,-2.0,0.0,-1.0,-2.0,-1.0
1702490311.6553607,2.0,2.0,9.0,1.0,0.0,-1.0,0.0,0.0
1702490311.6751952,0.0,-2.0,-16.0,-2.0,0.0,-3.0,-2.0,-1.0
1702490311.6751952,-5.0,-10.0,-56.0,-8.0,-4.0,-2.0,-1.0,-2.0
1702490311.6751952,0.0,3.0,-4.0,0.0,0.0,0.0,0.0,1.0
1702490311.6751952,-1.0,-3.0,-16.0,-3.0,-3.0,-2.0,0.0,-1.0
1702490311.6955194,0.0,6.0,37.0,0.0,-1.0,-1.0,-2.0,-1.0
1702490311.6955194,-1.0,0.0,11.0,3.0,-2.0,0.0,-1.0,-1.0
1702490311.6955194,-1.0,-3.0,8.0,-2.0,-2.0,0.0,-2.0,-2.0
1702490311.6955194,-2.0,-3.0,-12.0,-3.0,-2.0,-1.0,-1.0,-1.0
1702490311.7055817,0.0,-2.0,-12.0,0.0,0.0,-1.0,0.0,1.0
1702490311.7055817,0.0,0.0,17.0,-1.0,1.0,-1.0,-2.0,-1.0
1702490311.7251935,0.0,-3.0,6.0,-2.0,0.0,0.0,0.0,-2.0
1702490311.7251935,-1.0,-2.0,-7.0,-2.0,-1.0,-2.0,-3.0,-2.0
1702490311.735301,0.0,-2.0,-10.0,-1.0,-2.0,-1.0,-2.0,-1.0
1702490311.735301,-1.0,2.0,14.0,1.0,0.0,-2.0,-3.0,-2.0
1702490311.735301,-1.0,2.0,5.0,-2.0,-3.0,-3.0,-2.0,-2.0
1702490311.735301,-2.0,-1.0,-8.0,-3.0,0.0,-1.0,-2.0,-2.0
1702490311.7552648,-2.0,-2.0,-11.0,-1.0,-1.0,-2.0,-1.0,-2.0
1702490311.7552648,1.0,1.0,13.0,-1.0,-3.0,-3.0,-1.0,-1.0
1702490311.7552648,-1.0,1.0,3.0,0.0,-2.0,-1.0,-1.0,0.0
1702490311.7552648,-1.0,-2.0,-10.0,-3.0,-1.0,-1.0,-1.0,-2.0
1702490311.765437,-2.0,0.0,-4.0,-3.0,-3.0,-2.0,0.0,-1.0
1702490311.765437,-1.0,2.0,13.0,0.0,0.0,-1.0,1.0,-3.0
1702490311.7951941,1.0,-1.0,1.0,-1.0,-2.0,-3.0,-3.0,-2.0
1702490311.7951941,-2.0,-5.0,-6.0,-3.0,0.0,-1.0,-1.0,-1.0
1702490311.7951941,0.0,1.0,-5.0,0.0,-2.0,-1.0,-2.0,0.0
1702490311.7951941,0.0,1.0,6.0,0.0,-2.0,0.0,-1.0,1.0
1702490311.7951941,0.0,0.0,0.0,-1.0,-2.0,-1.0,-1.0,-1.0
1702490311.7951941,-1.0,-1.0,-4.0,-3.0,0.0,0.0,-1.0,0.0
1702490311.8154685,-1.0,-1.0,-3.0,1.0,0.0,-1.0,0.0,-3.0
1702490311.8154685,0.0,-2.0,3.0,-1.0,-1.0,1.0,-1.0,-2.0
1702490311.8154685,-1.0,-1.0,1.0,-1.0,0.0,0.0,-1.0,-1.0
1702490311.8154685,-1.0,-2.0,-3.0,-2.0,-1.0,-1.0,-2.0,0.0
1702490311.8254807,-1.0,-3.0,-4.0,-3.0,-1.0,-1.0,-1.0,0.0
1702490311.8254807,0.0,0.0,1.0,0.0,1.0,-3.0,-1.0,0.0
1702490311.855195,-1.0,0.0,0.0,0.0,0.0,-2.0,1.0,-1.0
1702490311.855195,0.0,0.0,-2.0,0.0,-2.0,-1.0,0.0,-2.0
1702490311.855195,-3.0,0.0,-5.0,0.0,-1.0,0.0,-1.0,-1.0
1702490311.855195,-3.0,-2.0,2.0,-2.0,-2.0,0.0,0.0,0.0
1702490311.855195,-2.0,-2.0,0.0,-1.0,-2.0,-2.0,0.0,-1.0
1702490311.855195,-1.0,-3.0,-1.0,-2.0,-1.0,0.0,1.0,-1.0
1702490311.8752623,-1.0,-1.0,-2.0,1.0,-2.0,-1.0,-1.0,-2.0
1702490311.8752623,1.0,-1.0,1.0,1.0,0.0,0.0,-1.0,1.0
1702490311.8951945,0.0,1.0,1.0,-1.0,0.0,0.0,0.0,-1.0
1702490311.8951945,-1.0,-2.0,-2.0,-3.0,-1.0,-1.0,-1.0,0.0
1702490311.905196,0.0,-3.0,-2.0,-2.0,1.0,0.0,0.0,-2.0
1702490311.905196,-2.0,0.0,1.0,0.0,0.0,1.0,-2.0,0.0
1702490311.905196,0.0,-1.0,-2.0,0.0,-1.0,0.0,0.0,0.0
1702490311.905196,-2.0,-2.0,-2.0,-3.0,-2.0,1.0,-2.0,0.0
1702490311.9153972,-1.0,-1.0,-1.0,-1.0,0.0,0.0,-2.0,-2.0
1702490311.9153972,0.0,-2.0,0.0,0.0,-3.0,0.0,-2.0,-3.0
1702490311.9153972,-1.0,-2.0,2.0,-1.0,-1.0,0.0,0.0,-1.0
1702490311.9153972,-1.0,0.0,-2.0,0.0,0.0,0.0,-1.0,-1.0
1702490311.9353163,-1.0,-1.0,0.0,-1.0,-2.0,-1.0,1.0,-1.0
1702490311.9353163,0.0,-1.0,2.0,0.0,0.0,0.0,-1.0,-2.0
1702490311.945194,-1.0,-1.0,0.0,-1.0,-1.0,-2.0,-3.0,-2.0
1702490311.945194,-2.0,1.0,-2.0,0.0,0.0,-2.0,0.0,-3.0
1702490311.945194,-1.0,-1.0,-1.0,-1.0,-1.0,0.0,-1.0,1.0
1702490311.945194,-2.0,-2.0,0.0,-2.0,0.0,-2.0,-1.0,-2.0
1702490311.9655814,0.0,-3.0,-2.0,-3.0,-2.0,0.0,-1.0,1.0
1702490311.9655814,1.0,-2.0,-2.0,-1.0,0.0,-2.0,-1.0,-2.0
1702490311.9754238,0.0,-1.0,0.0,-3.0,0.0,-1.0,-2.0,-1.0
1702490311.9754238,-1.0,-2.0,0.0,-1.0,-2.0,-1.0,-1.0,0.0
1702490311.9754238,-3.0,0.0,-1.0,-1.0,-2.0,-1.0,-1.0,-1.0
1702490311.9754238,-1.0,-4.0,0.0,2.0,-1.0,-1.0,-4.0,-2.0
1702490311.9974506,-1.0,-1.0,0.0,1.0,-1.0,-1.0,-2.0,-1.0
1702490311.9974506,-2.0,-1.0,-1.0,-2.0,0.0,-2.0,-1.0,0.0
1702490312.0084887,-2.0,-1.0,-1.0,-1.0,-1.0,-2.0,-1.0,-1.0
1702490312.0084887,-3.0,-1.0,-1.0,-2.0,-1.0,-2.0,0.0,1.0
1702490312.0104911,-1.0,-1.0,-2.0,-2.0,-1.0,-2.0,-1.0,-2.0
1702490312.0104911,-1.0,0.0,-1.0,-1.0,-2.0,0.0,-4.0,-3.0
1702490312.0197084,1.0,-1.0,-1.0,0.0,0.0,-1.0,0.0,0.0
1702490312.0197084,-1.0,1.0,-1.0,-1.0,-2.0,0.0,-1.0,0.0
1702490312.0278707,-1.0,0.0,-2.0,0.0,0.0,1.0,0.0,-1.0
1702490312.0278707,-1.0,-1.0,0.0,-2.0,-1.0,0.0,-2.0,0.0
1702490312.0278707,-2.0,-1.0,-1.0,0.0,-2.0,-1.0,0.0,-3.0
1702490312.0278707,0.0,-2.0,0.0,0.0,-1.0,-2.0,-2.0,0.0
1702490312.0578742,0.0,-1.0,-3.0,-1.0,-1.0,-2.0,-1.0,-2.0
1702490312.0578742,-2.0,-1.0,-1.0,-2.0,-2.0,-3.0,0.0,-1.0
1702490312.0578742,0.0,-2.0,0.0,0.0,-1.0,-1.0,-2.0,-1.0
1702490312.0578742,0.0,0.0,-1.0,-2.0,-1.0,-1.0,0.0,-1.0
1702490312.067871,-2.0,-2.0,0.0,-1.0,-2.0,-2.0,-1.0,0.0
1702490312.067871,-1.0,0.0,-1.0,-1.0,1.0,-1.0,0.0,-1.0
1702490312.075378,-2.0,-1.0,-2.0,-3.0,-2.0,-2.0,-1.0,-1.0
1702490312.075378,-1.0,-1.0,-2.0,-2.0,-1.0,-1.0,-1.0,-2.0
1702490312.0953856,0.0,1.0,0.0,-1.0,-1.0,0.0,-1.0,-1.0
1702490312.0953856,-2.0,-2.0,-1.0,-2.0,0.0,0.0,-1.0,-3.0
1702490312.0953856,-1.0,0.0,-1.0,-2.0,-1.0,-1.0,-2.0,-2.0
1702490312.0953856,-1.0,-3.0,-2.0,0.0,-3.0,0.0,0.0,1.0
1702490312.1154177,-1.0,-1.0,0.0,0.0,-1.0,1.0,-1.0,0.0
1702490312.1154177,0.0,-2.0,0.0,-1.0,-2.0,-1.0,1.0,0.0
1702490312.1154177,-1.0,0.0,-2.0,-1.0,0.0,-1.0,0.0,-1.0
1702490312.1154177,-2.0,-2.0,-1.0,-1.0,0.0,0.0,-2.0,-3.0
1702490312.1257527,-1.0,-1.0,-2.0,0.0,-1.0,0.0,0.0,0.0
1702490312.1257527,-3.0,-1.0,-1.0,0.0,0.0,0.0,-1.0,-1.0
1702490312.1357195,-3.0,-2.0,0.0,-2.0,0.0,-1.0,0.0,0.0
1702490312.1357195,0.0,1.0,-1.0,-1.0,1.0,-3.0,-1.0,-1.0
1702490312.1554468,-2.0,-1.0,-2.0,-1.0,-1.0,-3.0,-2.0,-2.0
1702490312.1554468,0.0,0.0,0.0,1.0,-1.0,-2.0,0.0,-2.0
1702490312.1554468,-2.0,-1.0,0.0,-1.0,-1.0,-2.0,-3.0,-1.0
1702490312.1554468,-2.0,0.0,0.0,-1.0,0.0,-2.0,-2.0,0.0
1702490312.1753898,0.0,-2.0,0.0,-3.0,0.0,-2.0,-3.0,0.0
1702490312.1753898,1.0,-1.0,-2.0,0.0,-1.0,-1.0,-2.0,1.0
1702490312.1753898,1.0,-1.0,-2.0,1.0,1.0,0.0,0.0,-1.0
1702490312.1753898,-1.0,-2.0,-1.0,0.0,-1.0,-1.0,0.0,1.0
1702490312.1853917,0.0,-2.0,-2.0,0.0,-1.0,-2.0,-1.0,-1.0
1702490312.1853917,-1.0,-1.0,0.0,-2.0,-1.0,0.0,0.0,-2.0
1702490312.1955874,-1.0,-1.0,0.0,-1.0,-1.0,-2.0,0.0,-1.0
1702490312.1955874,-1.0,-1.0,-1.0,0.0,-2.0,0.0,-3.0,-1.0
1702490312.2153883,0.0,-1.0,-1.0,-1.0,0.0,0.0,-1.0,-4.0
1702490312.2153883,-1.0,-2.0,0.0,0.0,0.0,-1.0,-3.0,0.0
1702490312.2153883,0.0,0.0,0.0,-3.0,-2.0,0.0,-1.0,-2.0
1702490312.2153883,0.0,-1.0,0.0,-1.0,-1.0,1.0,-1.0,-1.0
1702490312.2453856,-3.0,-1.0,-1.0,0.0,-1.0,0.0,0.0,-1.0
1702490312.2453856,-1.0,-1.0,-1.0,-1.0,-1.0,0.0,0.0,-2.0
1702490312.2553837,-1.0,-2.0,-1.0,1.0,-1.0,0.0,1.0,-2.0
1702490312.2553837,0.0,-1.0,-1.0,-2.0,-2.0,0.0,1.0,-1.0
1702490312.2553837,1.0,1.0,-2.0,-1.0,0.0,-1.0,0.0,2.0
1702490312.2553837,-2.0,0.0,-1.0,-2.0,0.0,0.0,-1.0,-1.0
1702490312.2553837,-2.0,-1.0,-1.0,0.0,-2.0,-2.0,-2.0,0.0
1702490312.2553837,0.0,0.0,-1.0,-1.0,0.0,-1.0,-1.0,0.0
1702490312.2754476,-2.0,-1.0,-1.0,-1.0,-4.0,-1.0,0.0,-1.0
1702490312.2754476,0.0,-2.0,0.0,-1.0,-2.0,0.0,0.0,0.0
1702490312.2754476,0.0,-1.0,-1.0,0.0,-1.0,0.0,-2.0,0.0
1702490312.2754476,-2.0,-2.0,0.0,0.0,0.0,0.0,0.0,-2.0
1702490312.2953851,-2.0,0.0,0.0,-2.0,-1.0,-2.0,-1.0,0.0
1702490312.2953851,-2.0,-2.0,-1.0,-1.0,-1.0,-2.0,-1.0,0.0
1702490312.2953851,0.0,-1.0,-4.0,-2.0,1.0,-1.0,-2.0,-2.0
1702490312.2953851,-2.0,-1.0,0.0,-1.0,-2.0,-2.0,-3.0,-2.0
1702490312.3057163,-1.0,0.0,0.0,-2.0,0.0,-3.0,-2.0,-1.0
1702490312.3057163,-1.0,-1.0,-1.0,-1.0,-2.0,-1.0,0.0,0.0
1702490312.3157296,-1.0,-2.0,0.0,0.0,-3.0,-1.0,0.0,-1.0
1702490312.3157296,-1.0,0.0,-2.0,-2.0,-1.0,-2.0,-1.0,-1.0
1702490312.3354514,-2.0,1.0,-1.0,-2.0,0.0,-2.0,-3.0,-2.0
1702490312.3354514,1.0,0.0,-1.0,0.0,-1.0,-1.0,-3.0,0.0
1702490312.3354514,0.0,0.0,0.0,0.0,-1.0,0.0,-2.0,-2.0
1702490312.3354514,-1.0,0.0,-1.0,-1.0,-1.0,0.0,-1.0,-2.0
1702490312.3554187,-1.0,-2.0,-2.0,-1.0,-2.0,0.0,0.0,-2.0
1702490312.3554187,-2.0,-1.0,-2.0,-2.0,-1.0,-1.0,0.0,0.0
1702490312.3554187,-1.0,0.0,0.0,-2.0,0.0,-2.0,-2.0,1.0
1702490312.3554187,0.0,-2.0,-1.0,-2.0,-2.0,0.0,1.0,-1.0
1702490312.3656418,-2.0,-1.0,-2.0,-1.0,-3.0,0.0,-1.0,0.0
1702490312.3656418,-1.0,0.0,-2.0,-2.0,-3.0,0.0,-2.0,-1.0
1702490312.3855295,0.0,0.0,-1.0,0.0,-3.0,-1.0,-2.0,-1.0
1702490312.3855295,-2.0,-1.0,-1.0,-1.0,-1.0,-1.0,-3.0,-2.0
1702490312.415385,0.0,0.0,0.0,-1.0,0.0,-1.0,0.0,-1.0
1702490312.415385,-2.0,-2.0,0.0,0.0,-1.0,-2.0,-1.0,-2.0
1702490312.415385,-1.0,-1.0,-2.0,0.0,-1.0,0.0,0.0,-2.0
1702490312.415385,-1.0,-1.0,-2.0,1.0,-1.0,-3.0,0.0,-1.0
1702490312.415385,-2.0,0.0,2.0,-2.0,-1.0,0.0,-2.0,-2.0
1702490312.415385,0.0,0.0,-2.0,-1.0,0.0,0.0,-1.0,-1.0
1702490312.415385,-2.0,-1.0,-1.0,-3.0,-2.0,0.0,0.0,0.0
1702490312.415385,-1.0,-1.0,-2.0,-1.0,-2.0,0.0,-1.0,-1.0
1702490312.42566,-1.0,-2.0,-2.0,1.0,-1.0,0.0,0.0,-1.0
1702490312.42566,-1.0,0.0,0.0,-1.0,-1.0,0.0,-1.0,-1.0
1702490312.4357028,-3.0,-3.0,-2.0,-3.0,0.0,1.0,-1.0,0.0
1702490312.4357028,0.0,-1.0,0.0,-1.0,0.0,-1.0,1.0,-1.0
1702490312.4553888,-1.0,-1.0,10.0,0.0,0.0,0.0,0.0,-2.0
1702490312.4553888,0.0,2.0,5.0,0.0,0.0,0.0,0.0,-1.0
1702490312.4553888,-1.0,-1.0,-8.0,0.0,0.0,-1.0,-1.0,-2.0
1702490312.4553888,1.0,2.0,17.0,0.0,-2.0,-1.0,-2.0,-2.0
1702490312.4757934,0.0,-4.0,-20.0,-2.0,-1.0,-3.0,-2.0,0.0
1702490312.4757934,0.0,1.0,7.0,-1.0,0.0,-1.0,0.0,0.0
1702490312.4757934,0.0,-3.0,0.0,-2.0,-3.0,-1.0,-2.0,0.0
1702490312.4757934,-1.0,2.0,1.0,2.0,-1.0,-1.0,-1.0,1.0
1702490312.485746,1.0,0.0,-1.0,-1.0,-2.0,-2.0,0.0,-1.0
1702490312.485746,-1.0,0.0,-13.0,-2.0,-3.0,-1.0,0.0,-1.0
1702490312.4956923,0.0,2.0,16.0,-1.0,-2.0,-2.0,-2.0,0.0
1702490312.4956923,-3.0,-9.0,-32.0,-7.0,-1.0,0.0,0.0,-1.0
1702490312.522386,-3.0,-1.0,11.0,2.0,1.0,-2.0,1.0,0.0
1702490312.522386,-2.0,-1.0,-12.0,-2.0,-3.0,-1.0,-2.0,0.0
1702490312.5243437,-1.0,-1.0,-23.0,0.0,0.0,-1.0,0.0,0.0
1702490312.5243437,-1.0,0.0,5.0,-1.0,-3.0,-2.0,-3.0,-1.0
1702490312.5373425,-1.0,-1.0,10.0,-2.0,0.0,0.0,-1.0,-2.0
1702490312.538256,-2.0,1.0,3.0,0.0,-1.0,-2.0,-1.0,-3.0
1702490312.5412369,1.0,4.0,21.0,6.0,0.0,-2.0,-1.0,-1.0
1702490312.5412369,-3.0,-17.0,-23.0,-11.0,-3.0,-2.0,-1.0,-2.0
1702490312.5636225,-1.0,1.0,-4.0,0.0,-2.0,-1.0,-1.0,0.0
1702490312.5636225,0.0,-1.0,7.0,1.0,0.0,-2.0,-2.0,0.0
1702490312.5636225,-2.0,2.0,8.0,-2.0,-1.0,-1.0,-2.0,-1.0
1702490312.5636225,0.0,4.0,16.0,3.0,1.0,-2.0,1.0,-2.0
1702490312.5739336,0.0,-1.0,-2.0,-1.0,-2.0,-1.0,0.0,-2.0
1702490312.5739336,0.0,-2.0,0.0,-2.0,-2.0,0.0,-2.0,0.0
1702490312.583889,-1.0,-2.0,-2.0,-2.0,-1.0,0.0,-2.0,-1.0
1702490312.583889,0.0,3.0,-2.0,2.0,-2.0,-1.0,-2.0,0.0
1702490312.5936768,-1.0,-2.0,2.0,-3.0,0.0,-1.0,-1.0,-1.0
1702490312.5936768,-1.0,-1.0,-8.0,0.0,-1.0,-1.0,0.0,-1.0
1702490312.5936768,-3.0,-4.0,-1.0,-4.0,-2.0,-2.0,0.0,-2.0
1702490312.5936768,-1.0,0.0,-4.0,-1.0,-1.0,-1.0,-2.0,1.0
1702490312.6236863,-1.0,0.0,-12.0,0.0,-2.0,-1.0,-2.0,-1.0
1702490312.6236863,1.0,0.0,-2.0,-4.0,0.0,-2.0,-1.0,-2.0
1702490312.6236863,-3.0,-7.0,-3.0,-3.0,0.0,-1.0,-1.0,-1.0
1702490312.6236863,0.0,2.0,8.0,-1.0,0.0,0.0,0.0,-1.0
1702490312.6340919,-1.0,1.0,4.0,1.0,-2.0,0.0,-1.0,-2.0
1702490312.6340919,-3.0,-4.0,-9.0,-1.0,-2.0,-2.0,-2.0,-2.0
1702490312.6340919,0.0,1.0,-12.0,-1.0,-1.0,0.0,0.0,-3.0
1702490312.6340919,0.0,0.0,-28.0,-3.0,-2.0,0.0,0.0,-1.0
1702490312.6540895,-2.0,-2.0,-2.0,-2.0,0.0,0.0,0.0,-1.0
1702490312.6540895,0.0,-2.0,9.0,0.0,-1.0,-1.0,0.0,-3.0
1702490312.6540895,-1.0,0.0,8.0,-2.0,-2.0,0.0,0.0,-1.0
1702490312.6540895,-2.0,0.0,7.0,2.0,-2.0,-1.0,-1.0,-2.0
1702490312.683688,0.0,0.0,1.0,0.0,-2.0,-2.0,-2.0,-1.0
1702490312.683688,0.0,-1.0,-3.0,-3.0,-2.0,0.0,-1.0,-2.0
1702490312.683688,-1.0,0.0,3.0,1.0,0.0,-1.0,-1.0,-2.0
1702490312.683688,-1.0,-1.0,3.0,0.0,-2.0,-1.0,0.0,-1.0
1702490312.693706,-1.0,0.0,0.0,-3.0,0.0,1.0,-1.0,0.0
1702490312.693706,-2.0,-1.0,2.0,1.0,0.0,-2.0,0.0,0.0
1702490312.7036924,0.0,-1.0,-9.0,0.0,-3.0,-1.0,-2.0,1.0
1702490312.7036924,0.0,0.0,8.0,0.0,0.0,-1.0,-2.0,-2.0
1702490312.7239587,-2.0,-3.0,-10.0,-2.0,-2.0,-2.0,-3.0,-1.0
1702490312.7239587,-1.0,-3.0,-3.0,-2.0,-1.0,1.0,0.0,0.0
1702490312.7239587,0.0,-1.0,-5.0,-1.0,1.0,0.0,0.0,-1.0
1702490312.7239587,-1.0,0.0,-2.0,0.0,0.0,1.0,-2.0,-1.0
1702490312.7536871,2.0,-1.0,5.0,1.0,-1.0,0.0,0.0,-2.0
1702490312.7536871,0.0,1.0,-1.0,-1.0,-1.0,-1.0,-1.0,-1.0
1702490312.7536871,-3.0,-2.0,-5.0,-2.0,-1.0,-1.0,-3.0,0.0
1702490312.7536871,0.0,2.0,11.0,2.0,1.0,-2.0,-1.0,-3.0
1702490312.7536871,-1.0,-2.0,-8.0,-5.0,-2.0,-2.0,-1.0,-1.0
1702490312.7536871,-1.0,-2.0,-5.0,0.0,0.0,0.0,-1.0,0.0
1702490312.7637146,-2.0,-2.0,12.0,-3.0,-2.0,-1.0,-1.0,0.0
1702490312.7637146,-1.0,0.0,-2.0,-2.0,0.0,1.0,-3.0,-1.0
1702490312.7739074,-1.0,-1.0,4.0,0.0,-2.0,1.0,-3.0,0.0
1702490312.7739074,-2.0,-1.0,-2.0,0.0,-2.0,-2.0,-1.0,-1.0
1702490312.7936902,-2.0,0.0,-4.0,-1.0,-1.0,0.0,-2.0,-1.0
1702490312.7936902,-1.0,-1.0,2.0,0.0,-2.0,-1.0,-1.0,0.0
1702490312.8036864,-2.0,0.0,1.0,-2.0,-1.0,-3.0,-1.0,-1.0
1702490312.8036864,0.0,-2.0,-2.0,-1.0,-2.0,-1.0,-1.0,0.0
1702490312.8036864,1.0,-1.0,-6.0,0.0,0.0,-1.0,0.0,-1.0
1702490312.8036864,-1.0,-2.0,-3.0,-2.0,0.0,0.0,0.0,-1.0
1702490312.8139365,0.0,-2.0,-8.0,0.0,-1.0,0.0,-1.0,-2.0
1702490312.8139365,-2.0,-3.0,-1.0,-3.0,-1.0,-2.0,0.0,-3.0
1702490312.8139365,-3.0,-1.0,-2.0,0.0,0.0,-2.0,-1.0,-1.0
1702490312.8139365,-1.0,-2.0,-2.0,-1.0,-2.0,0.0,0.0,-1.0
1702490312.833903,0.0,0.0,14.0,0.0,-1.0,0.0,-1.0,-1.0
1702490312.833903,-3.0,-3.0,-15.0,-3.0,-1.0,0.0,0.0,0.0
1702490312.8436878,0.0,-3.0,-9.0,0.0,-1.0,-1.0,0.0,-1.0
1702490312.8436878,0.0,-1.0,-10.0,-2.0,0.0,-1.0,0.0,1.0
1702490312.8538475,-2.0,-4.0,1.0,-1.0,-1.0,-1.0,1.0,-1.0
1702490312.8538475,0.0,1.0,8.0,1.0,-1.0,-1.0,-1.0,-1.0
1702490312.8538475,-2.0,-3.0,13.0,-3.0,-1.0,-2.0,-1.0,-1.0
1702490312.8538475,-2.0,-2.0,10.0,-1.0,-1.0,-2.0,0.0,-2.0
1702490312.8738618,0.0,0.0,-3.0,1.0,-1.0,0.0,0.0,0.0
1702490312.8738618,1.0,1.0,-7.0,1.0,-1.0,-1.0,-1.0,-2.0
1702490312.8738618,-1.0,-2.0,-3.0,0.0,-2.0,0.0,-2.0,0.0
1702490312.8836977,-1.0,0.0,1.0,0.0,0.0,-2.0,1.0,-1.0
1702490312.913689,-1.0,-1.0,-1.0,-2.0,-1.0,-1.0,0.0,0.0
1702490312.913689,-1.0,-1.0,5.0,-2.0,1.0,-2.0,-1.0,1.0
1702490312.913689,-1.0,2.0,-10.0,-1.0,-2.0,-1.0,0.0,-2.0
1702490312.913689,-2.0,0.0,3.0,0.0,0.0,-1.0,-1.0,-1.0
1702490312.913689,0.0,-2.0,-16.0,-2.0,-1.0,0.0,-1.0,0.0
1702490312.913689,-1.0,-2.0,3.0,1.0,-2.0,-1.0,0.0,0.0
1702490312.913689,-1.0,-1.0,3.0,-1.0,-1.0,-1.0,-1.0,-1.0
1702490312.913689,0.0,-2.0,-6.0,-1.0,-2.0,-2.0,-2.0,-1.0
1702490312.9338827,-1.0,1.0,4.0,1.0,-2.0,-1.0,0.0,-1.0
1702490312.9338827,-1.0,-1.0,3.0,0.0,-1.0,-1.0,-1.0,0.0
1702490312.9338827,-1.0,1.0,2.0,-2.0,-1.0,1.0,0.0,-1.0
1702490312.9338827,1.0,1.0,5.0,1.0,-2.0,1.0,-1.0,-1.0
1702490312.953687,0.0,-2.0,-5.0,1.0,-1.0,-2.0,-1.0,-1.0
1702490312.953687,-1.0,-1.0,5.0,-2.0,2.0,-2.0,-1.0,-2.0
1702490312.953687,-1.0,-2.0,0.0,0.0,-2.0,-2.0,-1.0,-1.0
1702490312.953687,-2.0,-1.0,2.0,0.0,-1.0,-3.0,0.0,-1.0
1702490312.9739573,-1.0,-2.0,5.0,-2.0,-1.0,-1.0,0.0,-2.0
1702490312.9739573,-1.0,0.0,-5.0,-3.0,0.0,0.0,0.0,1.0
1702490312.9739573,0.0,0.0,-3.0,-2.0,0.0,-1.0,0.0,-2.0
1702490312.9739573,-1.0,0.0,0.0,-1.0,-3.0,0.0,1.0,-1.0
1702490312.9939356,-1.0,-2.0,-4.0,-2.0,-2.0,-2.0,-2.0,-1.0
1702490312.9939356,0.0,-1.0,0.0,1.0,0.0,-2.0,-2.0,-2.0
1702490313.0036888,-1.0,-1.0,-2.0,-3.0,-1.0,-1.0,-1.0,-2.0
1702490313.0036888,-1.0,-1.0,-5.0,-3.0,-1.0,-1.0,-2.0,-2.0
1702490313.0136857,0.0,-1.0,-3.0,-1.0,0.0,-1.0,-2.0,0.0
1702490313.0136857,-2.0,-3.0,1.0,-1.0,0.0,-2.0,-2.0,0.0
1702490313.0136857,0.0,-1.0,-1.0,1.0,-2.0,-1.0,-1.0,1.0
1702490313.0136857,0.0,-3.0,-5.0,-1.0,-2.0,-1.0,-1.0,-2.0
1702490313.0340967,-2.0,0.0,2.0,0.0,-3.0,-1.0,-2.0,-2.0
1702490313.0340967,0.0,-1.0,1.0,0.0,-1.0,1.0,-1.0,0.0
1702490313.0340967,-1.0,0.0,-3.0,-3.0,-1.0,-3.0,1.0,-2.0
1702490313.0340967,1.0,-2.0,-1.0,-3.0,1.0,-2.0,-1.0,-1.0
1702490313.054469,0.0,-1.0,-2.0,-1.0,2.0,-2.0,0.0,-1.0
1702490313.054469,-2.0,1.0,-1.0,-1.0,-2.0,-2.0,1.0,-1.0
1702490313.0625114,0.0,-1.0,-5.0,0.0,1.0,-1.0,0.0,-2.0
1702490313.0625114,-1.0,1.0,-1.0,-2.0,-1.0,0.0,-1.0,1.0
1702490313.0765808,-2.0,0.0,-1.0,-1.0,-1.0,-1.0,-1.0,-1.0
1702490313.0765808,-1.0,-1.0,-2.0,-2.0,-2.0,-1.0,-1.0,-2.0
1702490313.0765808,0.0,-1.0,-2.0,-1.0,-2.0,-2.0,-1.0,-1.0
1702490313.0765808,0.0,-2.0,0.0,-1.0,-1.0,-2.0,1.0,-1.0
1702490313.0941691,-1.0,-1.0,-1.0,-1.0,-2.0,0.0,-1.0,-2.0
1702490313.0941691,-1.0,-2.0,0.0,-1.0,-1.0,-1.0,-1.0,-2.0
1702490313.0941691,-1.0,-1.0,-1.0,-1.0,-1.0,-1.0,0.0,-1.0
1702490313.0941691,-1.0,0.0,-3.0,0.0,-1.0,-1.0,-2.0,-1.0
1702490313.1045165,-2.0,0.0,-1.0,-1.0,-1.0,-2.0,0.0,-2.0
1702490313.1145334,0.0,-3.0,0.0,-3.0,-2.0,-2.0,0.0,1.0
1702490313.1145334,0.0,-1.0,-1.0,-3.0,-1.0,0.0,0.0,-1.0
1702490313.1145334,-1.0,-2.0,-3.0,0.0,-1.0,-2.0,-1.0,-2.0
1702490313.1345284,-1.0,-1.0,-2.0,-2.0,-1.0,-1.0,0.0,0.0
1702490313.1345284,-2.0,-2.0,1.0,0.0,-2.0,-1.0,0.0,0.0
1702490313.1345284,0.0,-2.0,-3.0,-1.0,-1.0,-1.0,-2.0,0.0
1702490313.1345284,-2.0,-1.0,0.0,0.0,-1.0,-2.0,-1.0,0.0
1702490313.1548178,0.0,-1.0,-3.0,-1.0,1.0,0.0,-1.0,-1.0
1702490313.1548178,-1.0,0.0,-3.0,-1.0,0.0,0.0,-1.0,-1.0
1702490313.1548178,0.0,1.0,1.0,-2.0,0.0,-1.0,0.0,0.0
1702490313.1548178,-2.0,-1.0,-1.0,-2.0,0.0,-1.0,0.0,-1.0
1702490313.194037,0.0,-2.0,0.0,0.0,-3.0,-1.0,-2.0,-1.0
1702490313.194037,0.0,0.0,-1.0,-1.0,0.0,-3.0,-1.0,-2.0
1702490313.194037,-2.0,-1.0,-1.0,-1.0,0.0,0.0,0.0,-1.0
1702490313.194037,-1.0,0.0,0.0,-2.0,0.0,0.0,-2.0,-1.0
1702490313.194037,-1.0,-2.0,-1.0,-2.0,0.0,-1.0,0.0,-1.0
1702490313.194037,1.0,0.0,-1.0,-1.0,-2.0,-1.0,-1.0,-2.0
1702490313.194037,-2.0,-2.0,-1.0,-2.0,-2.0,-2.0,-2.0,-1.0
1702490313.194037,-2.0,0.0,-2.0,-2.0,-1.0,-1.0,-2.0,0.0
1702490313.2144296,-3.0,-2.0,1.0,-3.0,0.0,-1.0,0.0,-2.0
1702490313.2144296,-2.0,0.0,-3.0,0.0,-3.0,-1.0,-1.0,-1.0
1702490313.2144296,-1.0,0.0,-3.0,0.0,-2.0,0.0,1.0,-3.0
1702490313.2144296,1.0,-1.0,-1.0,-1.0,-1.0,0.0,0.0,1.0
1702490313.2340448,-2.0,-1.0,-1.0,-4.0,-1.0,-1.0,-2.0,-1.0
1702490313.2340448,-3.0,-2.0,0.0,-1.0,0.0,-1.0,-2.0,-1.0
1702490313.2340448,0.0,-2.0,-2.0,-1.0,0.0,0.0,-1.0,0.0
1702490313.2340448,-1.0,-2.0,-1.0,0.0,-3.0,-2.0,0.0,-2.0
1702490313.2544928,-1.0,-1.0,-1.0,0.0,0.0,0.0,0.0,-1.0
1702490313.2544928,-1.0,0.0,2.0,0.0,-1.0,-1.0,2.0,-1.0
1702490313.2544928,-1.0,1.0,0.0,0.0,-1.0,-2.0,0.0,2.0
1702490313.2544928,-1.0,0.0,-1.0,-2.0,-3.0,0.0,-1.0,-2.0
1702490313.2744198,-2.0,0.0,-1.0,0.0,-3.0,-2.0,-2.0,-2.0
1702490313.2744198,-1.0,0.0,-1.0,-1.0,-2.0,0.0,-2.0,-3.0
1702490313.2744198,1.0,-1.0,-1.0,-1.0,0.0,-2.0,-1.0,-1.0
1702490313.2744198,-1.0,-3.0,-1.0,0.0,-1.0,0.0,0.0,-1.0
1702490313.2940466,0.0,-1.0,0.0,-2.0,-1.0,-1.0,-1.0,0.0
1702490313.2940466,-2.0,-3.0,-1.0,-2.0,-2.0,0.0,-1.0,-2.0
1702490313.3040447,-2.0,-1.0,-2.0,-1.0,0.0,-2.0,0.0,-2.0
1702490313.3040447,0.0,-2.0,-2.0,-1.0,2.0,-1.0,-1.0,-1.0
1702490313.3143198,1.0,-1.0,-1.0,-2.0,-1.0,-1.0,-2.0,-1.0
1702490313.3143198,0.0,0.0,-1.0,-2.0,1.0,-2.0,-2.0,0.0
1702490313.3240457,-2.0,0.0,1.0,-1.0,-2.0,0.0,-2.0,0.0
1702490313.3240457,-1.0,-1.0,-1.0,-1.0,-1.0,-1.0,-2.0,0.0
1702490313.3344686,0.0,-1.0,-2.0,1.0,-1.0,1.0,0.0,-2.0
1702490313.3344686,-2.0,-3.0,0.0,-1.0,0.0,-1.0,0.0,0.0
1702490313.3344686,0.0,-1.0,-1.0,-2.0,-3.0,-1.0,0.0,-2.0
1702490313.3344686,0.0,0.0,-3.0,0.0,-2.0,-1.0,0.0,-1.0
1702490313.3540473,-1.0,-2.0,-2.0,0.0,-1.0,0.0,-1.0,0.0
1702490313.3540473,0.0,-2.0,-2.0,-1.0,-3.0,1.0,-1.0,-2.0
1702490313.3540473,-2.0,-2.0,0.0,-2.0,-4.0,0.0,-3.0,-2.0
1702490313.3540473,-1.0,-2.0,1.0,-4.0,-1.0,-1.0,-1.0,-1.0
1702490313.374412,-3.0,-1.0,-1.0,-2.0,-1.0,-1.0,0.0,-1.0
1702490313.374412,0.0,0.0,0.0,0.0,1.0,-1.0,0.0,-2.0
1702490313.3840442,-1.0,0.0,0.0,0.0,-2.0,-1.0,0.0,-2.0
1702490313.3840442,0.0,0.0,-1.0,-1.0,-1.0,-1.0,-2.0,-1.0
1702490313.404043,0.0,-1.0,-2.0,-2.0,-1.0,-1.0,-1.0,0.0
1702490313.404043,1.0,-1.0,0.0,0.0,0.0,-1.0,0.0,0.0
1702490313.404043,-1.0,-2.0,-2.0,-1.0,-1.0,-1.0,-2.0,0.0
1702490313.404043,-1.0,-1.0,-1.0,-1.0,-1.0,-2.0,-2.0,-1.0
1702490313.414045,0.0,-4.0,0.0,-1.0,-2.0,-4.0,-1.0,-3.0
1702490313.414045,0.0,-1.0,-2.0,-2.0,-3.0,-2.0,-2.0,-1.0
1702490313.414045,0.0,0.0,-2.0,-1.0,-2.0,-1.0,-1.0,-1.0
1702490313.414045,-1.0,-2.0,0.0,0.0,0.0,0.0,1.0,-2.0
1702490313.4344673,-2.0,-1.0,0.0,0.0,-2.0,-1.0,-1.0,-2.0
1702490313.4344673,-3.0,-1.0,-1.0,-2.0,-2.0,-1.0,0.0,-1.0
1702490313.4440453,0.0,-2.0,-1.0,-3.0,-1.0,-1.0,-1.0,-1.0
1702490313.4440453,-3.0,-1.0,-1.0,0.0,-1.0,-1.0,-1.0,-2.0
1702490313.4640462,0.0,-1.0,-1.0,0.0,0.0,0.0,0.0,1.0
1702490313.4640462,-1.0,-1.0,-2.0,-2.0,1.0,-1.0,-2.0,-1.0
1702490313.4640462,0.0,0.0,-2.0,-1.0,0.0,1.0,0.0,-2.0
1702490313.4640462,1.0,-1.0,0.0,-1.0,-2.0,-1.0,0.0,-1.0
1702490313.474298,0.0,0.0,-2.0,-3.0,0.0,-1.0,-1.0,-2.0
1702490313.474298,-1.0,-2.0,-2.0,0.0,-1.0,-3.0,-1.0,1.0
1702490313.4840493,-1.0,-3.0,-1.0,-2.0,-1.0,-2.0,-2.0,-3.0
1702490313.4840493,-1.0,-1.0,-3.0,-1.0,-1.0,-1.0,-2.0,-2.0
1702490313.4942827,-2.0,0.0,0.0,1.0,-1.0,-1.0,-1.0,-1.0
1702490313.4942827,-1.0,-1.0,-1.0,-2.0,1.0,-1.0,-1.0,0.0
1702490313.5040483,-1.0,0.0,2.0,-2.0,-1.0,0.0,-1.0,1.0
1702490313.5040483,-1.0,-1.0,-1.0,-1.0,-1.0,0.0,0.0,0.0
1702490313.5143163,-1.0,0.0,-1.0,-1.0,0.0,-2.0,-2.0,-2.0
1702490313.5143163,-1.0,-1.0,-1.0,-2.0,-1.0,-2.0,-1.0,-4.0
1702490313.5143163,-2.0,-1.0,1.0,-1.0,-1.0,-1.0,-1.0,-1.0
1702490313.5143163,0.0,-1.0,-2.0,-3.0,-2.0,-3.0,-2.0,-1.0
1702490313.564045,0.0,-1.0,-2.0,-1.0,0.0,3.0,0.0,-1.0
1702490313.564045,1.0,0.0,-1.0,-1.0,-4.0,-7.0,-1.0,0.0
1702490313.574043,-3.0,0.0,-1.0,0.0,-1.0,17.0,-1.0,-2.0
1702490313.574043,0.0,0.0,1.0,-2.0,-2.0,-16.0,1.0,0.0
1702490313.574043,-2.0,-1.0,0.0,0.0,-1.0,-2.0,-3.0,-2.0
1702490313.574043,-1.0,-1.0,-3.0,-2.0,-1.0,-2.0,-2.0,-1.0
1702490313.584451,1.0,-2.0,-1.0,-2.0,0.0,-3.0,-2.0,-2.0
1702490313.584451,-3.0,-2.0,-1.0,1.0,1.0,5.0,0.0,-1.0
1702490313.584451,-1.0,0.0,0.0,-3.0,-2.0,-1.0,0.0,-1.0
1702490313.584451,-1.0,-1.0,-1.0,-1.0,0.0,1.0,-1.0,-2.0
1702490313.584451,-1.0,-1.0,0.0,0.0,0.0,-4.0,-1.0,-2.0
1702490313.584451,-3.0,0.0,-1.0,-1.0,-2.0,2.0,-2.0,-2.0
1702490313.602124,0.0,-2.0,-3.0,-1.0,-1.0,-5.0,-1.0,0.0
1702490313.602124,-3.0,0.0,-2.0,0.0,-2.0,3.0,-1.0,-1.0
1702490313.6041234,-1.0,-1.0,0.0,1.0,-1.0,-4.0,1.0,0.0
1702490313.6041234,-2.0,-3.0,0.0,-2.0,1.0,0.0,-1.0,-2.0
1702490313.609487,-1.0,1.0,0.0,-2.0,0.0,1.0,-1.0,0.0
1702490313.609487,-1.0,-1.0,-1.0,-2.0,0.0,0.0,-2.0,0.0
1702490313.6195066,0.0,-2.0,0.0,-1.0,-1.0,-4.0,-3.0,0.0
1702490313.6195066,1.0,0.0,-1.0,-1.0,-1.0,0.0,-1.0,-2.0
1702490313.6398425,-2.0,1.0,1.0,0.0,0.0,0.0,0.0,0.0
1702490313.6398425,0.0,0.0,0.0,0.0,-1.0,-2.0,-1.0,-2.0
1702490313.6398425,-2.0,0.0,-1.0,-2.0,0.0,-3.0,-1.0,-2.0
1702490313.6398425,-2.0,-1.0,1.0,-2.0,1.0,2.0,-3.0,-2.0
1702490313.659727,-2.0,-1.0,0.0,-2.0,-1.0,0.0,-2.0,-3.0
1702490313.659727,0.0,-1.0,-2.0,0.0,-2.0,-2.0,1.0,-1.0
1702490313.659727,-2.0,-1.0,0.0,0.0,-1.0,-2.0,0.0,0.0
1702490313.659727,-1.0,-1.0,-2.0,-1.0,-2.0,0.0,0.0,-1.0
1702490313.6697924,-1.0,-1.0,-1.0,0.0,-1.0,0.0,0.0,-1.0
1702490313.6697924,-1.0,-1.0,-1.0,-3.0,0.0,-1.0,-1.0,-1.0
1702490313.6894872,-1.0,-1.0,0.0,-1.0,0.0,-3.0,-3.0,0.0
1702490313.6894872,0.0,0.0,-2.0,-1.0,-1.0,0.0,0.0,2.0
1702490313.6998172,1.0,-2.0,-1.0,-2.0,0.0,0.0,1.0,-1.0
1702490313.6998172,-1.0,0.0,0.0,-1.0,-1.0,2.0,-1.0,-1.0
1702490313.6998172,-2.0,1.0,-2.0,0.0,-1.0,0.0,-2.0,-1.0
1702490313.6998172,-1.0,-1.0,-3.0,-2.0,0.0,-1.0,1.0,0.0
1702490313.719903,-1.0,-2.0,3.0,-2.0,-2.0,-2.0,-2.0,-2.0
1702490313.719903,-1.0,-2.0,-1.0,-2.0,-1.0,-1.0,0.0,-1.0
1702490313.719903,0.0,-2.0,-1.0,-1.0,-1.0,-3.0,1.0,-1.0
1702490313.719903,-2.0,-1.0,0.0,-1.0,-1.0,1.0,-3.0,-1.0
1702490313.7297933,-2.0,0.0,-2.0,-2.0,-2.0,-3.0,0.0,0.0
1702490313.7297933,-1.0,-2.0,0.0,-1.0,-2.0,-1.0,1.0,-2.0
1702490313.749486,0.0,-2.0,-2.0,-3.0,-1.0,-4.0,-2.0,-2.0
1702490313.749486,0.0,-1.0,-1.0,-1.0,1.0,-1.0,-3.0,-1.0
1702490313.7596436,-1.0,-1.0,-2.0,0.0,-1.0,-1.0,-1.0,-1.0
1702490313.7596436,0.0,-1.0,0.0,1.0,-2.0,-1.0,-1.0,-1.0
1702490313.7596436,0.0,-1.0,-3.0,-1.0,-2.0,-1.0,-1.0,-2.0
1702490313.7596436,-1.0,-1.0,-1.0,-2.0,-1.0,0.0,-2.0,-1.0
1702490313.7795026,0.0,0.0,0.0,-1.0,-2.0,-1.0,-1.0,1.0
1702490313.7795026,-1.0,0.0,-1.0,-3.0,-1.0,1.0,-1.0,-2.0
1702490313.7994895,-1.0,-1.0,-1.0,-1.0,-2.0,1.0,1.0,-2.0
1702490313.7994895,0.0,-2.0,0.0,-1.0,-1.0,1.0,0.0,0.0
1702490313.8094869,1.0,-1.0,-1.0,0.0,0.0,0.0,-1.0,-1.0
1702490313.8094869,1.0,-1.0,-3.0,1.0,-1.0,-2.0,-1.0,-1.0
1702490313.8094869,-1.0,1.0,-3.0,-1.0,-1.0,-3.0,-2.0,-1.0
1702490313.8094869,-3.0,-1.0,0.0,-1.0,-2.0,-1.0,-2.0,-2.0
1702490313.8195264,-1.0,-2.0,-3.0,-2.0,-2.0,1.0,0.0,-3.0
1702490313.8195264,0.0,0.0,-2.0,0.0,0.0,-2.0,1.0,-1.0
1702490313.8195264,-2.0,-2.0,0.0,-1.0,-1.0,0.0,2.0,0.0
1702490313.8195264,1.0,-3.0,-1.0,-1.0,0.0,-2.0,-1.0,0.0
1702490313.8395853,-2.0,-1.0,-1.0,-1.0,-1.0,-1.0,-1.0,-2.0
1702490313.8395853,-2.0,-1.0,0.0,-1.0,0.0,-1.0,-2.0,-1.0
1702490313.8395853,-1.0,-2.0,2.0,0.0,0.0,0.0,-1.0,-2.0
1702490313.8395853,-2.0,1.0,-2.0,0.0,-1.0,0.0,1.0,0.0
1702490313.8595366,-3.0,-2.0,-2.0,0.0,-2.0,-2.0,-1.0,-2.0
1702490313.8595366,-2.0,-2.0,0.0,-1.0,-1.0,0.0,-1.0,0.0
1702490313.8595366,0.0,-1.0,-2.0,0.0,-1.0,-1.0,0.0,-1.0
1702490313.8595366,-1.0,0.0,-1.0,0.0,-1.0,-1.0,-1.0,0.0
1702490313.8797622,-1.0,-2.0,-1.0,-1.0,0.0,1.0,-1.0,1.0
1702490313.8797622,-4.0,-2.0,0.0,-2.0,-1.0,-1.0,-1.0,-1.0
1702490313.8797622,-1.0,-3.0,-1.0,-1.0,-1.0,-2.0,-2.0,-1.0
1702490313.8797622,-2.0,0.0,0.0,-1.0,-2.0,0.0,0.0,-3.0
1702490313.9295409,-2.0,1.0,0.0,0.0,0.0,-2.0,0.0,0.0
1702490313.9295409,-2.0,-2.0,-1.0,0.0,-2.0,1.0,0.0,0.0
1702490313.9295409,-2.0,-2.0,-1.0,-2.0,-2.0,-2.0,-2.0,-3.0
1702490313.9295409,-1.0,-2.0,1.0,-1.0,0.0,0.0,1.0,-1.0
1702490313.9295409,-1.0,-1.0,-1.0,1.0,0.0,-1.0,-1.0,0.0
1702490313.9295409,-1.0,0.0,-1.0,-1.0,0.0,-2.0,-1.0,-3.0
1702490313.9295409,0.0,-1.0,0.0,-3.0,0.0,-2.0,-2.0,-1.0
1702490313.9295409,-1.0,0.0,-2.0,0.0,-1.0,-1.0,-3.0,-3.0
1702490313.9498973,-1.0,0.0,-1.0,-1.0,1.0,-3.0,-2.0,0.0
1702490313.9498973,0.0,1.0,0.0,0.0,-2.0,-3.0,-2.0,0.0
1702490313.9498973,0.0,0.0,-1.0,0.0,-3.0,-2.0,-1.0,0.0
1702490313.9498973,-1.0,0.0,-2.0,-1.0,-3.0,-2.0,-3.0,-2.0
1702490313.9595954,1.0,-2.0,-1.0,-1.0,-2.0,-2.0,-3.0,-2.0
1702490313.9595954,-1.0,1.0,1.0,-2.0,-1.0,-1.0,-1.0,0.0
1702490313.9695375,-2.0,3.0,-4.0,-1.0,-1.0,-1.0,-1.0,0.0
1702490313.9695375,0.0,-1.0,-2.0,1.0,-1.0,-2.0,0.0,0.0
1702490313.9695375,0.0,-2.0,0.0,-3.0,-3.0,-2.0,-1.0,-1.0
1702490313.9695375,-1.0,-2.0,-2.0,-1.0,-2.0,-1.0,-1.0,-1.0
1702490313.9798262,-2.0,-2.0,-1.0,-1.0,-1.0,0.0,0.0,0.0
1702490313.9798262,1.0,0.0,-2.0,-1.0,0.0,-2.0,0.0,1.0
1702490313.9999156,0.0,0.0,-3.0,1.0,-1.0,-1.0,-1.0,-1.0
1702490313.9999156,1.0,0.0,16.0,1.0,-1.0,0.0,-2.0,-1.0
1702490313.9999156,0.0,-3.0,-44.0,-3.0,0.0,0.0,1.0,0.0
1702490313.9999156,-4.0,-1.0,3.0,-1.0,-2.0,-3.0,0.0,-3.0
1702490314.029536,-1.0,-3.0,1.0,0.0,1.0,-2.0,-1.0,-1.0
1702490314.029536,-1.0,0.0,5.0,-1.0,1.0,-1.0,0.0,-1.0
1702490314.029536,1.0,5.0,31.0,3.0,0.0,-1.0,0.0,0.0
1702490314.029536,-1.0,-4.0,-17.0,-2.0,-1.0,-2.0,0.0,-1.0
1702490314.029536,0.0,4.0,4.0,4.0,-1.0,1.0,0.0,-1.0
1702490314.029536,-2.0,-2.0,45.0,-4.0,-1.0,-2.0,-1.0,0.0
1702490314.0398486,-3.0,-9.0,-43.0,-8.0,-3.0,-1.0,-1.0,-1.0
1702490314.0398486,1.0,-2.0,-10.0,-1.0,-1.0,-2.0,-1.0,-2.0
1702490314.0598068,-1.0,0.0,-1.0,-2.0,-1.0,3.0,3.0,-2.0
1702490314.0598068,-1.0,2.0,14.0,2.0,1.0,0.0,-3.0,-1.0
1702490314.0598068,-2.0,1.0,24.0,2.0,1.0,-1.0,-2.0,0.0
1702490314.0598068,-1.0,-2.0,4.0,-1.0,-1.0,0.0,-3.0,0.0
1702490314.0795364,-3.0,-5.0,-9.0,-4.0,-2.0,-4.0,16.0,-1.0
1702490314.0795364,0.0,0.0,-23.0,-3.0,-3.0,1.0,0.0,-2.0
1702490314.0795364,-2.0,1.0,4.0,0.0,-1.0,0.0,-3.0,0.0
1702490314.0795364,-2.0,-1.0,-4.0,-2.0,-3.0,-1.0,-5.0,-1.0
1702490314.0895498,-1.0,-2.0,3.0,-1.0,0.0,-1.0,-1.0,-1.0
1702490314.0895498,-1.0,-1.0,-13.0,-1.0,-1.0,-1.0,0.0,2.0
1702490314.0998414,0.0,1.0,19.0,1.0,-1.0,-1.0,-1.0,-1.0
1702490314.0998414,0.0,2.0,2.0,-1.0,1.0,0.0,2.0,-1.0
1702490314.120366,0.0,-6.0,-25.0,-3.0,-1.0,-1.0,-5.0,0.0
1702490314.120366,-1.0,-2.0,-15.0,0.0,0.0,-2.0,0.0,-2.0
1702490314.1217957,-1.0,-1.0,15.0,-3.0,-2.0,-1.0,-2.0,0.0
1702490314.1217957,-2.0,-1.0,6.0,-2.0,-1.0,-1.0,-2.0,0.0
1702490314.1419318,1.0,-1.0,2.0,-3.0,-3.0,-1.0,-5.0,-3.0
1702490314.1419318,-2.0,-3.0,-12.0,1.0,0.0,0.0,-3.0,-2.0
1702490314.1419318,1.0,1.0,4.0,0.0,-1.0,0.0,2.0,0.0
1702490314.1419318,-1.0,-2.0,2.0,-2.0,-2.0,-2.0,0.0,-2.0
1702490314.1622787,-2.0,-3.0,-20.0,0.0,1.0,-1.0,-5.0,-1.0
1702490314.1622787,-1.0,0.0,-4.0,-1.0,-2.0,-2.0,1.0,-2.0
1702490314.1622787,0.0,1.0,5.0,0.0,-1.0,0.0,0.0,-1.0
1702490314.1622787,-1.0,-4.0,2.0,0.0,1.0,0.0,1.0,0.0
1702490314.172326,-2.0,3.0,15.0,1.0,1.0,-2.0,-3.0,0.0
1702490314.172326,-1.0,-1.0,-13.0,-3.0,-1.0,-1.0,-1.0,1.0
1702490314.182263,-2.0,-5.0,-8.0,-1.0,-2.0,-2.0,0.0,-2.0
1702490314.182263,-1.0,-1.0,-3.0,0.0,-2.0,-1.0,-2.0,-2.0
1702490314.2019596,-2.0,0.0,0.0,0.0,-2.0,-1.0,-1.0,-2.0
1702490314.2019596,-2.0,-3.0,-2.0,-1.0,-1.0,-1.0,-1.0,-2.0
1702490314.2019596,-2.0,-1.0,-4.0,-1.0,0.0,-1.0,0.0,-2.0
1702490314.2019596,-1.0,1.0,12.0,0.0,-2.0,-1.0,1.0,-1.0
1702490314.2103145,-1.0,-1.0,-29.0,-5.0,-3.0,0.0,-1.0,0.0
1702490314.2103145,0.0,1.0,0.0,0.0,-3.0,-3.0,-1.0,0.0
1702490314.2206354,-2.0,-2.0,-1.0,1.0,-2.0,-1.0,-2.0,-2.0
1702490314.2206354,-1.0,-1.0,-25.0,-4.0,1.0,1.0,0.0,-1.0
1702490314.240442,-3.0,-1.0,14.0,0.0,-1.0,0.0,-3.0,0.0
1702490314.240442,-1.0,-1.0,-3.0,-1.0,-2.0,-1.0,-2.0,-2.0
1702490314.240442,-2.0,-1.0,-2.0,1.0,0.0,-1.0,0.0,-1.0
1702490314.240442,-2.0,0.0,-14.0,-2.0,-1.0,0.0,-4.0,-1.0
1702490314.2603226,1.0,1.0,10.0,-2.0,-2.0,-2.0,-2.0,-1.0
1702490314.2603226,-2.0,-1.0,-8.0,-1.0,1.0,0.0,-2.0,-1.0
1702490314.2603226,-1.0,0.0,10.0,1.0,-1.0,-1.0,-2.0,-1.0
1702490314.2603226,-1.0,-1.0,8.0,0.0,0.0,-1.0,-1.0,0.0
1702490314.2706962,1.0,0.0,0.0,-2.0,-1.0,-2.0,-2.0,-1.0
1702490314.2706962,-1.0,-1.0,1.0,-2.0,-3.0,-2.0,-1.0,0.0
1702490314.2806907,1.0,-4.0,-17.0,-2.0,0.0,0.0,-1.0,-3.0
1702490314.2806907,-1.0,-2.0,4.0,0.0,-1.0,-1.0,0.0,-2.0
1702490314.291035,-4.0,0.0,-1.0,-2.0,-1.0,-1.0,0.0,-1.0
1702490314.291035,-1.0,1.0,1.0,-1.0,0.0,0.0,1.0,-2.0
1702490314.310258,-2.0,0.0,-1.0,-1.0,-1.0,-1.0,-3.0,0.0
1702490314.310258,-1.0,0.0,-1.0,-1.0,-2.0,0.0,2.0,0.0
1702490314.320267,0.0,0.0,13.0,1.0,0.0,-1.0,0.0,-2.0
1702490314.320267,-1.0,-3.0,-25.0,-3.0,-2.0,-1.0,0.0,1.0
1702490314.320267,-1.0,0.0,-2.0,-1.0,-2.0,-1.0,-2.0,-2.0
1702490314.320267,0.0,0.0,6.0,0.0,-3.0,-1.0,-1.0,-1.0
1702490314.330613,-2.0,-1.0,1.0,0.0,-2.0,-1.0,-1.0,0.0
1702490314.330613,-3.0,-1.0,3.0,-1.0,-1.0,-3.0,-1.0,-1.0
1702490314.3405476,-1.0,-2.0,-4.0,-2.0,1.0,0.0,-1.0,0.0
1702490314.3405476,-2.0,-2.0,1.0,-1.0,0.0,-3.0,0.0,0.0
1702490314.36027,-1.0,-1.0,2.0,-2.0,-1.0,-2.0,-3.0,0.0
1702490314.36027,0.0,-1.0,2.0,-1.0,0.0,1.0,0.0,0.0
1702490314.36027,-1.0,1.0,11.0,0.0,-2.0,-3.0,0.0,-2.0
1702490314.36027,0.0,-1.0,-15.0,-2.0,-2.0,-2.0,-1.0,-2.0
1702490314.3806815,0.0,-1.0,0.0,-1.0,-4.0,0.0,-1.0,0.0
1702490314.3806815,-1.0,-2.0,2.0,-1.0,1.0,-1.0,-10.0,-5.0
1702490314.3806815,-1.0,1.0,-3.0,-1.0,-1.0,0.0,-1.0,-1.0
1702490314.3806815,-2.0,1.0,6.0,1.0,0.0,-2.0,-4.0,0.0
1702490314.400814,-1.0,1.0,-1.0,-2.0,-1.0,-1.0,-3.0,-3.0
1702490314.400814,0.0,-1.0,3.0,-3.0,-2.0,-1.0,-1.0,0.0
1702490314.4203331,-1.0,-1.0,4.0,-2.0,-2.0,-2.0,-2.0,-2.0
1702490314.4203331,-1.0,0.0,4.0,-1.0,-1.0,1.0,-1.0,-1.0
1702490314.4203331,-1.0,-1.0,-4.0,-2.0,1.0,-2.0,3.0,-2.0
1702490314.4203331,-1.0,1.0,8.0,1.0,-2.0,-1.0,2.0,-1.0
1702490314.4203331,0.0,0.0,-8.0,0.0,-1.0,0.0,0.0,-1.0
1702490314.4203331,-1.0,0.0,-1.0,-1.0,0.0,-1.0,0.0,0.0
1702490314.4406116,-1.0,-1.0,4.0,-1.0,-2.0,-2.0,-1.0,-2.0
1702490314.4406116,-1.0,-2.0,0.0,-1.0,-1.0,-1.0,-1.0,0.0
1702490314.4406116,0.0,-1.0,-5.0,-1.0,-1.0,-2.0,-2.0,-1.0
1702490314.4406116,-1.0,-1.0,2.0,-2.0,-3.0,-2.0,-4.0,-3.0
1702490314.4803338,-1.0,-3.0,0.0,0.0,-1.0,-2.0,-1.0,0.0
1702490314.4803338,0.0,0.0,-2.0,-1.0,-1.0,-2.0,1.0,0.0
1702490314.4803338,-1.0,-3.0,-6.0,-1.0,-2.0,-1.0,1.0,1.0
1702490314.4803338,0.0,-2.0,4.0,-1.0,-2.0,0.0,0.0,-2.0
1702490314.4803338,-1.0,-1.0,-4.0,-1.0,0.0,-2.0,-2.0,-1.0
1702490314.4803338,0.0,-1.0,-4.0,-2.0,-2.0,-2.0,-1.0,0.0
1702490314.4803338,0.0,0.0,1.0,-2.0,0.0,-1.0,0.0,-2.0
1702490314.4803338,-2.0,1.0,-2.0,-2.0,-3.0,0.0,0.0,-1.0
1702490314.5006194,-1.0,-2.0,-1.0,-2.0,0.0,1.0,-2.0,-1.0
1702490314.5006194,-3.0,-2.0,-2.0,0.0,-1.0,1.0,0.0,0.0
1702490314.5006194,-2.0,-3.0,-1.0,0.0,-2.0,0.0,0.0,-1.0
1702490314.5006194,0.0,1.0,5.0,0.0,-1.0,-2.0,-1.0,-2.0
1702490314.5303319,-1.0,-2.0,-31.0,-3.0,2.0,0.0,0.0,-2.0
1702490314.5303319,-1.0,-2.0,2.0,0.0,0.0,-1.0,2.0,0.0
1702490314.5303319,-1.0,0.0,2.0,-1.0,-1.0,2.0,-1.0,0.0
1702490314.5303319,0.0,-1.0,3.0,-1.0,0.0,1.0,0.0,-2.0
1702490314.5303319,-2.0,-1.0,-13.0,-2.0,0.0,-1.0,-3.0,-2.0
1702490314.5303319,-1.0,0.0,5.0,-2.0,0.0,-2.0,0.0,-1.0
1702490314.5403368,-1.0,-2.0,-9.0,-1.0,1.0,-3.0,-1.0,-1.0
1702490314.5403368,-1.0,-3.0,5.0,-1.0,0.0,0.0,-1.0,0.0
1702490314.5606313,1.0,-1.0,12.0,0.0,0.0,-2.0,1.0,-1.0
1702490314.5606313,0.0,0.0,9.0,-1.0,1.0,1.0,-2.0,-1.0
1702490314.5606313,-1.0,-2.0,-18.0,-1.0,1.0,-3.0,-2.0,0.0
1702490314.5606313,-2.0,0.0,-1.0,-2.0,0.0,-1.0,-2.0,0.0
1702490314.5903373,-2.0,0.0,7.0,-1.0,-3.0,1.0,-1.0,-1.0
1702490314.5903373,0.0,-3.0,-4.0,-1.0,-7.0,0.0,-2.0,-1.0
1702490314.5903373,-1.0,0.0,7.0,0.0,-6.0,0.0,0.0,-1.0
1702490314.5903373,0.0,-2.0,1.0,0.0,-5.0,0.0,0.0,0.0
1702490314.5903373,-3.0,-1.0,0.0,-4.0,-7.0,-3.0,0.0,-1.0
1702490314.5903373,-2.0,0.0,-2.0,-2.0,-3.0,-3.0,-3.0,-2.0
1702490314.6105404,-1.0,3.0,30.0,0.0,0.0,-1.0,-2.0,-1.0
1702490314.6105404,0.0,-3.0,-19.0,-1.0,0.0,-2.0,-1.0,-1.0
1702490314.6204004,-1.0,-1.0,13.0,1.0,0.0,-2.0,-2.0,-2.0
1702490314.6204004,-2.0,-2.0,3.0,-1.0,0.0,-1.0,0.0,-1.0
1702490314.630334,-2.0,-3.0,-13.0,-2.0,-2.0,0.0,-1.0,-2.0
1702490314.630334,0.0,1.0,13.0,1.0,0.0,0.0,-2.0,-2.0
1702490314.64534,0.0,0.0,4.0,0.0,0.0,0.0,-1.0,-2.0
1702490314.64534,0.0,-1.0,-4.0,0.0,2.0,-1.0,-1.0,-1.0
1702490314.646666,-2.0,-2.0,-4.0,-1.0,0.0,-1.0,-1.0,-1.0
1702490314.646666,-1.0,-2.0,-7.0,-3.0,0.0,-2.0,-1.0,-1.0
1702490314.6586757,0.0,-2.0,-7.0,-2.0,2.0,-1.0,-2.0,0.0
1702490314.6586757,-2.0,0.0,-7.0,0.0,0.0,-3.0,0.0,-2.0
1702490314.6679058,2.0,-1.0,2.0,1.0,-1.0,-3.0,0.0,-1.0
1702490314.6679058,0.0,-3.0,-6.0,0.0,-1.0,0.0,0.0,-1.0
1702490314.6751833,0.0,1.0,-1.0,-2.0,-2.0,-1.0,-2.0,-1.0
1702490314.6751833,0.0,0.0,0.0,-2.0,-1.0,-1.0,-1.0,0.0
1702490314.6851866,-1.0,0.0,-2.0,-2.0,0.0,-3.0,0.0,-2.0
1702490314.6851866,-2.0,0.0,-1.0,-1.0,0.0,-2.0,-1.0,-1.0
1702490314.7053876,0.0,-2.0,1.0,0.0,-2.0,-2.0,-1.0,-2.0
1702490314.7053876,-1.0,0.0,-3.0,-1.0,0.0,1.0,-2.0,-1.0
1702490314.7053876,-1.0,-2.0,-5.0,-2.0,-3.0,-1.0,-1.0,-2.0
1702490314.7053876,-2.0,-1.0,-4.0,-1.0,-1.0,-2.0,-1.0,-1.0
1702490314.7155957,-1.0,2.0,12.0,1.0,-1.0,-1.0,-1.0,0.0
1702490314.7155957,-1.0,-2.0,-19.0,-3.0,-1.0,0.0,-2.0,-1.0
1702490314.7254322,-1.0,0.0,0.0,0.0,0.0,0.0,-1.0,-1.0
1702490314.7254322,-1.0,0.0,5.0,-2.0,-2.0,-3.0,-2.0,-3.0
1702490314.7355835,-1.0,-2.0,-1.0,-1.0,-1.0,-2.0,-1.0,-1.0
1702490314.7355835,-1.0,2.0,8.0,1.0,-2.0,-1.0,-1.0,0.0
1702490314.7355835,0.0,-2.0,-2.0,-3.0,-1.0,1.0,-1.0,-1.0
1702490314.7355835,-1.0,-1.0,-4.0,-1.0,-2.0,0.0,-1.0,1.0
1702490314.7653205,-2.0,-1.0,0.0,-2.0,-2.0,0.0,-3.0,0.0
1702490314.7653205,-1.0,-3.0,-2.0,0.0,-1.0,-1.0,-1.0,-1.0
1702490314.7653205,-2.0,-1.0,-3.0,0.0,0.0,-2.0,-2.0,-1.0
1702490314.7653205,-1.0,-1.0,-1.0,0.0,1.0,-2.0,0.0,-1.0
1702490314.7951853,-2.0,-1.0,-3.0,-1.0,-2.0,-1.0,-1.0,-1.0
1702490314.7951853,-1.0,-2.0,-8.0,-3.0,1.0,-1.0,-1.0,-2.0
1702490314.7951853,-1.0,-2.0,0.0,-2.0,-1.0,-2.0,-2.0,0.0
1702490314.7951853,-1.0,-3.0,0.0,-2.0,-1.0,-2.0,-1.0,-1.0
1702490314.8051846,0.0,0.0,-6.0,0.0,1.0,0.0,1.0,-2.0
1702490314.8051846,-1.0,-2.0,1.0,0.0,-1.0,-3.0,1.0,-3.0
1702490314.8051846,1.0,-1.0,2.0,1.0,-1.0,0.0,1.0,-2.0
1702490314.8051846,0.0,1.0,-2.0,0.0,-3.0,0.0,-1.0,0.0
1702490314.8251905,0.0,0.0,-1.0,-2.0,-1.0,0.0,-1.0,0.0
1702490314.8251905,-2.0,0.0,2.0,-2.0,-1.0,-2.0,-1.0,-2.0
1702490314.8251905,-3.0,0.0,-4.0,-2.0,-1.0,-1.0,-1.0,-1.0
1702490314.8251905,-2.0,-1.0,-1.0,0.0,-1.0,-3.0,-2.0,0.0
1702490314.845354,-1.0,-1.0,-3.0,-1.0,0.0,-1.0,0.0,0.0
1702490314.845354,-1.0,1.0,2.0,-1.0,-2.0,-1.0,0.0,-2.0
1702490314.8551862,-1.0,-1.0,-2.0,-2.0,-2.0,0.0,1.0,-2.0
1702490314.8551862,-1.0,-2.0,-1.0,-1.0,-1.0,0.0,-2.0,-2.0
1702490314.8551862,-1.0,-1.0,0.0,-1.0,-2.0,-1.0,0.0,0.0
1702490314.8551862,0.0,-2.0,-1.0,0.0,0.0,-2.0,0.0,-1.0
1702490314.8551862,-2.0,0.0,-1.0,-1.0,-2.0,-2.0,-1.0,-1.0
1702490314.8551862,0.0,-2.0,-1.0,-1.0,1.0,-1.0,-2.0,-3.0
1702490314.8856022,0.0,-1.0,-3.0,-1.0,1.0,0.0,0.0,-1.0
1702490314.8856022,-1.0,0.0,0.0,0.0,-3.0,0.0,-1.0,-2.0
1702490314.8856022,0.0,-1.0,-2.0,-2.0,-1.0,-2.0,-2.0,-1.0
1702490314.8856022,1.0,0.0,-1.0,-2.0,-1.0,-1.0,1.0,0.0
1702490314.8951843,-2.0,1.0,-1.0,-1.0,-2.0,-1.0,-3.0,-3.0
1702490314.8951843,-1.0,-3.0,-1.0,-1.0,-2.0,-1.0,0.0,0.0
1702490314.9054434,-1.0,1.0,0.0,-1.0,0.0,-1.0,-2.0,1.0
1702490314.9054434,-1.0,-1.0,-1.0,-1.0,-2.0,-2.0,0.0,-1.0
1702490314.9251852,-1.0,-1.0,2.0,0.0,-1.0,-1.0,-2.0,0.0
1702490314.9251852,-1.0,0.0,-3.0,-1.0,0.0,-1.0,-1.0,-2.0
1702490314.9251852,-3.0,-1.0,-1.0,0.0,-2.0,0.0,1.0,-2.0
1702490314.9251852,0.0,0.0,-1.0,-1.0,0.0,-1.0,-1.0,-1.0
1702490314.9452531,1.0,-2.0,-1.0,1.0,0.0,-1.0,0.0,1.0
1702490314.9452531,0.0,-1.0,-3.0,-3.0,-3.0,-1.0,-2.0,-1.0
1702490314.9452531,-1.0,-2.0,-2.0,0.0,0.0,-1.0,-2.0,-3.0
1702490314.9452531,-3.0,0.0,0.0,1.0,1.0,-1.0,-2.0,-1.0
1702490314.955486,-1.0,-1.0,0.0,-1.0,-1.0,-2.0,-1.0,-2.0
1702490314.955486,-3.0,-2.0,0.0,-1.0,0.0,-1.0,-2.0,0.0
1702490314.9654043,-1.0,-3.0,-1.0,-1.0,0.0,1.0,-1.0,1.0
1702490314.9654043,-2.0,-2.0,-1.0,-1.0,-1.0,0.0,-2.0,0.0
1702490314.975399,-1.0,-1.0,-2.0,-1.0,-1.0,-1.0,-1.0,-2.0
1702490314.975399,-1.0,-1.0,-2.0,0.0,-1.0,-1.0,-1.0,-3.0
1702490314.975399,-2.0,-2.0,1.0,-1.0,-2.0,-1.0,-1.0,-2.0
1702490314.9851944,0.0,0.0,-2.0,-4.0,-1.0,1.0,0.0,-2.0
1702490315.005186,-3.0,0.0,0.0,1.0,-1.0,-1.0,-3.0,-1.0
1702490315.005186,1.0,-2.0,-1.0,-1.0,0.0,0.0,-1.0,1.0
1702490315.005186,1.0,3.0,0.0,0.0,1.0,-1.0,-1.0,0.0
1702490315.005186,0.0,-2.0,-2.0,-1.0,-3.0,-1.0,-2.0,0.0
1702490315.015538,-3.0,2.0,-1.0,-2.0,-1.0,-1.0,-1.0,-2.0
1702490315.015538,-2.0,-2.0,0.0,-4.0,0.0,-2.0,-2.0,-2.0
1702490315.025354,1.0,-1.0,-2.0,0.0,-2.0,-2.0,-1.0,1.0
1702490315.025354,0.0,-2.0,-3.0,-3.0,0.0,-1.0,0.0,1.0
1702490315.0351844,-2.0,0.0,0.0,-2.0,0.0,-1.0,-1.0,-4.0
1702490315.0351844,-1.0,-2.0,-3.0,0.0,0.0,0.0,-2.0,0.0
1702490315.0351844,0.0,-2.0,2.0,0.0,-2.0,-2.0,-1.0,-2.0
1702490315.0351844,-2.0,0.0,2.0,0.0,0.0,0.0,-1.0,-2.0
1702490315.0653965,1.0,-1.0,-4.0,-1.0,-3.0,1.0,-1.0,0.0
1702490315.0653965,-1.0,-2.0,4.0,0.0,0.0,-1.0,1.0,1.0
1702490315.0653965,-2.0,-2.0,0.0,-1.0,-1.0,-1.0,0.0,-2.0
1702490315.0653965,-1.0,0.0,-2.0,0.0,-2.0,-1.0,-1.0,-2.0
1702490315.0751843,-1.0,-3.0,4.0,-1.0,-2.0,-1.0,-1.0,-1.0
1702490315.0751843,-2.0,2.0,-1.0,0.0,-2.0,0.0,-1.0,-2.0
1702490315.0851824,-1.0,0.0,-2.0,-3.0,-1.0,0.0,0.0,1.0
1702490315.0851824,0.0,2.0,1.0,-1.0,-1.0,-1.0,-1.0,-2.0
1702490315.0955663,0.0,-3.0,-14.0,-3.0,-2.0,-4.0,0.0,-1.0
1702490315.0955663,-2.0,-1.0,0.0,-1.0,0.0,-1.0,-1.0,-1.0
1702490315.0955663,0.0,0.0,-2.0,-2.0,-1.0,-1.0,-1.0,-2.0
1702490315.0955663,-1.0,-1.0,-1.0,-1.0,-1.0,-2.0,0.0,-1.0
1702490315.1254995,-1.0,-1.0,0.0,1.0,-1.0,0.0,-2.0,1.0
1702490315.1254995,3.0,0.0,-4.0,-2.0,-3.0,-1.0,0.0,0.0
1702490315.1254995,0.0,-1.0,4.0,0.0,0.0,-1.0,-1.0,-1.0
1702490315.1254995,-2.0,-2.0,-2.0,-1.0,-1.0,-1.0,1.0,-1.0
1702490315.135185,-3.0,0.0,-1.0,-1.0,-2.0,-1.0,2.0,0.0
1702490315.135185,0.0,-2.0,-1.0,-1.0,0.0,-2.0,-1.0,-2.0
1702490315.1551852,-1.0,1.0,-1.0,0.0,-3.0,-2.0,-1.0,1.0
1702490315.1551852,-2.0,-6.0,5.0,0.0,-2.0,0.0,-2.0,-1.0
1702490315.1551852,-1.0,-4.0,-30.0,-2.0,0.0,0.0,-1.0,-2.0
1702490315.1551852,-2.0,-1.0,0.0,-1.0,-1.0,0.0,0.0,-1.0
1702490315.1688294,-2.0,-1.0,0.0,-2.0,0.0,0.0,-2.0,-1.0
1702490315.1688294,-1.0,-2.0,-3.0,-2.0,-1.0,-2.0,-1.0,-1.0
1702490315.1850903,-2.0,-1.0,9.0,-1.0,-1.0,0.0,0.0,-1.0
1702490315.1850903,-2.0,-1.0,1.0,-1.0,1.0,0.0,-1.0,-1.0
1702490315.1868367,-2.0,-2.0,-5.0,0.0,-1.0,-2.0,-2.0,-2.0
1702490315.1868367,-2.0,0.0,0.0,-1.0,-1.0,-1.0,-2.0,-1.0
1702490315.201432,1.0,-1.0,6.0,0.0,0.0,0.0,0.0,0.0
1702490315.201432,0.0,-1.0,-2.0,0.0,0.0,-1.0,0.0,0.0
1702490315.201432,-2.0,-1.0,3.0,-2.0,-1.0,-2.0,1.0,0.0
1702490315.201432,1.0,1.0,9.0,-1.0,0.0,0.0,1.0,-1.0
1702490315.2218237,0.0,-1.0,2.0,-1.0,-2.0,0.0,-1.0,0.0
1702490315.2218237,-1.0,-2.0,-4.0,0.0,-1.0,-1.0,-2.0,-2.0
1702490315.2218237,-1.0,0.0,-5.0,-1.0,-2.0,0.0,-1.0,-2.0
1702490315.2218237,-2.0,-2.0,-9.0,-2.0,-1.0,-1.0,-1.0,-1.0
1702490315.2414343,-2.0,-1.0,4.0,-1.0,0.0,-2.0,-1.0,-1.0
1702490315.2414343,-1.0,0.0,7.0,-1.0,-2.0,-1.0,0.0,0.0
1702490315.2414343,-1.0,0.0,-2.0,-1.0,-2.0,-1.0,0.0,-3.0
1702490315.2414343,0.0,-3.0,-7.0,0.0,-2.0,-2.0,-1.0,-1.0
1702490315.2514346,-1.0,-1.0,5.0,0.0,-1.0,0.0,0.0,-1.0
1702490315.2514346,-2.0,-2.0,-7.0,-3.0,-1.0,0.0,-3.0,0.0
1702490315.2614582,-1.0,-1.0,-2.0,-3.0,0.0,0.0,-1.0,1.0
1702490315.2614582,-1.0,-1.0,-5.0,-1.0,-1.0,-3.0,-1.0,0.0
1702490315.281445,-1.0,-1.0,-1.0,-2.0,-1.0,-1.0,-1.0,0.0
1702490315.281445,-1.0,-3.0,3.0,2.0,-1.0,0.0,-1.0,-3.0
1702490315.291576,-3.0,-7.0,-4.0,0.0,0.0,0.0,-1.0,-2.0
1702490315.291576,1.0,2.0,1.0,0.0,-2.0,1.0,-2.0,0.0
1702490315.3016288,-3.0,2.0,0.0,0.0,1.0,-1.0,-1.0,-2.0
1702490315.3016288,-1.0,-2.0,-4.0,-3.0,-2.0,0.0,-2.0,0.0
1702490315.3016288,-1.0,-3.0,0.0,-1.0,0.0,-1.0,0.0,0.0
1702490315.3016288,-1.0,-2.0,-6.0,-9.0,-3.0,-2.0,1.0,0.0
1702490315.3414333,-1.0,-3.0,-6.0,-9.0,-5.0,-3.0,-2.0,-1.0
1702490315.3414333,-3.0,-4.0,2.0,8.0,2.0,2.0,-1.0,-1.0
1702490315.3414333,-2.0,2.0,6.0,23.0,8.0,2.0,1.0,0.0
1702490315.3414333,-2.0,-1.0,0.0,-6.0,-3.0,-2.0,-1.0,-2.0
1702490315.3414333,-2.0,-2.0,-1.0,-11.0,-2.0,-1.0,-2.0,0.0
1702490315.3414333,0.0,0.0,-4.0,-2.0,-9.0,-4.0,-2.0,-2.0
1702490315.3414333,0.0,0.0,3.0,6.0,-1.0,-2.0,-1.0,-1.0
1702490315.3414333,-1.0,1.0,1.0,-4.0,7.0,-2.0,-1.0,-1.0
1702490315.3618023,0.0,-3.0,-2.0,4.0,-2.0,-2.0,-2.0,-2.0
1702490315.3618023,1.0,4.0,8.0,12.0,5.0,-1.0,1.0,0.0
1702490315.3618023,-1.0,-1.0,-5.0,-21.0,-9.0,-2.0,-3.0,0.0
1702490315.3618023,0.0,1.0,-1.0,2.0,-1.0,-1.0,-2.0,1.0
1702490315.3822317,-2.0,-1.0,0.0,-7.0,-1.0,-3.0,-2.0,-2.0
1702490315.3822317,-3.0,-2.0,-3.0,-9.0,-2.0,-2.0,-2.0,0.0
1702490315.3822317,-1.0,0.0,-2.0,-3.0,-3.0,-2.0,0.0,-1.0
1702490315.3822317,-2.0,-2.0,-2.0,3.0,-4.0,0.0,0.0,-1.0
1702490315.4022484,-1.0,0.0,0.0,5.0,0.0,0.0,1.0,-2.0
1702490315.4022484,-1.0,0.0,-3.0,-1.0,-1.0,0.0,0.0,0.0
1702490315.4118025,-3.0,-1.0,1.0,-3.0,-2.0,-1.0,-2.0,-1.0
1702490315.4118025,-1.0,1.0,5.0,1.0,0.0,1.0,-3.0,-1.0
1702490315.4433877,0.0,-1.0,-23.0,1.0,-1.0,0.0,0.0,1.0
1702490315.4433877,-3.0,0.0,-1.0,-3.0,-1.0,0.0,0.0,-1.0
1702490315.4433877,0.0,-2.0,0.0,-5.0,-2.0,-3.0,0.0,-2.0
1702490315.4433877,-1.0,-1.0,7.0,-1.0,-2.0,0.0,0.0,-1.0
1702490315.4433877,0.0,-2.0,-20.0,0.0,-1.0,0.0,-1.0,0.0
1702490315.4433877,0.0,0.0,2.0,-8.0,-2.0,-1.0,-2.0,-1.0
1702490315.4433877,-2.0,-2.0,-6.0,-1.0,-1.0,-2.0,-2.0,-1.0
1702490315.4433877,-1.0,-3.0,3.0,1.0,-2.0,-2.0,-1.0,0.0
1702490315.4517763,1.0,1.0,10.0,0.0,-1.0,-2.0,-2.0,-1.0
1702490315.4617097,-1.0,-2.0,-5.0,-2.0,0.0,-3.0,-1.0,-2.0
1702490315.4717054,0.0,-1.0,0.0,-3.0,-1.0,-2.0,-1.0,-2.0
1702490315.4717054,-4.0,0.0,-3.0,2.0,0.0,-1.0,0.0,-2.0
1702490315.4820523,-1.0,-2.0,7.0,0.0,0.0,-1.0,-1.0,0.0
1702490315.4820523,-3.0,-1.0,-1.0,1.0,-3.0,-1.0,-2.0,0.0
1702490315.4820523,-1.0,-2.0,0.0,0.0,-2.0,0.0,-2.0,-2.0
1702490315.4820523,-2.0,-1.0,-7.0,-4.0,-3.0,-2.0,-2.0,-1.0
1702490315.502147,-1.0,-1.0,3.0,2.0,1.0,-2.0,-2.0,-1.0
1702490315.502147,0.0,-3.0,-2.0,-2.0,-4.0,-1.0,-1.0,-1.0
1702490315.511703,-1.0,4.0,-3.0,-2.0,-1.0,-1.0,-1.0,-1.0
1702490315.511703,0.0,-1.0,-4.0,1.0,-1.0,-2.0,0.0,-1.0
1702490315.511703,1.0,-2.0,6.0,0.0,-1.0,-1.0,1.0,0.0
1702490315.5217092,-1.0,-3.0,0.0,-3.0,-1.0,-2.0,0.0,0.0
1702490315.5317028,-1.0,-2.0,-2.0,-2.0,-1.0,-1.0,-1.0,0.0
1702490315.5317028,-1.0,1.0,-3.0,-1.0,0.0,0.0,0.0,-1.0
1702490315.5418642,-1.0,-2.0,4.0,-1.0,-1.0,-1.0,-1.0,-2.0
1702490315.5418642,-2.0,-1.0,-3.0,-1.0,-1.0,-1.0,-1.0,-2.0
1702490315.5418642,-2.0,-1.0,-2.0,0.0,0.0,0.0,-1.0,0.0
1702490315.5418642,-3.0,-3.0,-1.0,-2.0,-2.0,-2.0,-2.0,-1.0
1702490315.571982,-3.0,0.0,4.0,-2.0,-1.0,0.0,0.0,-2.0
1702490315.571982,0.0,-1.0,-1.0,-1.0,1.0,-1.0,-1.0,0.0
1702490315.571982,-1.0,-2.0,-2.0,-2.0,-2.0,-1.0,-2.0,-1.0
1702490315.571982,0.0,-1.0,-4.0,-1.0,-2.0,-1.0,-1.0,-1.0
1702490315.581709,1.0,-1.0,1.0,-3.0,-2.0,-1.0,-1.0,-2.0
1702490315.581709,-2.0,1.0,-1.0,-1.0,-1.0,0.0,-2.0,-2.0
1702490315.611702,-2.0,1.0,1.0,-2.0,-2.0,-2.0,0.0,-1.0
1702490315.611702,2.0,0.0,-2.0,0.0,-1.0,-1.0,0.0,0.0
1702490315.611702,-2.0,-1.0,0.0,0.0,-1.0,0.0,0.0,0.0
1702490315.611702,-3.0,-2.0,0.0,1.0,-1.0,1.0,-1.0,-2.0
1702490315.611702,-1.0,-2.0,0.0,0.0,-1.0,-1.0,0.0,-1.0
1702490315.611702,-1.0,-2.0,-2.0,0.0,0.0,0.0,-2.0,-2.0
1702490315.6220891,-2.0,0.0,1.0,3.0,0.0,0.0,-1.0,0.0
1702490315.6220891,1.0,-1.0,-2.0,-4.0,0.0,-2.0,0.0,0.0
1702490315.6220891,-1.0,-2.0,-2.0,-2.0,1.0,-1.0,0.0,-1.0
1702490315.6220891,-1.0,-2.0,1.0,-2.0,-1.0,-2.0,0.0,-2.0
1702490315.641704,-2.0,-2.0,1.0,0.0,-1.0,-1.0,0.0,-1.0
1702490315.641704,0.0,-1.0,0.0,-1.0,0.0,-1.0,-1.0,-2.0
1702490315.641704,-2.0,0.0,-2.0,-1.0,-1.0,-1.0,1.0,-1.0
1702490315.641704,0.0,1.0,0.0,-1.0,-1.0,-1.0,-1.0,0.0
1702490315.6617024,-2.0,-2.0,0.0,-2.0,-2.0,-1.0,-1.0,-1.0
1702490315.6617024,-1.0,-1.0,-2.0,-1.0,-2.0,-1.0,-1.0,-1.0
1702490315.6617024,0.0,-1.0,0.0,-1.0,-1.0,0.0,-1.0,0.0
1702490315.6617024,-1.0,-2.0,-1.0,0.0,0.0,-1.0,-1.0,-3.0
1702490315.6821337,-1.0,-1.0,-2.0,-1.0,-1.0,-2.0,0.0,0.0
1702490315.6821337,0.0,-2.0,-1.0,-1.0,0.0,-1.0,0.0,0.0
1702490315.691703,-1.0,-1.0,0.0,-1.0,-1.0,-1.0,0.0,-2.0
1702490315.691703,-2.0,-2.0,0.0,0.0,-4.0,0.0,1.0,-1.0
1702490315.691703,0.0,0.0,0.0,-1.0,-2.0,0.0,-1.0,-1.0
1702490315.691703,-1.0,0.0,0.0,-1.0,2.0,-2.0,-1.0,-2.0
1702490315.71075,-1.0,-1.0,-1.0,-1.0,0.0,-1.0,-3.0,0.0
1702490315.71075,1.0,-1.0,0.0,0.0,0.0,0.0,-2.0,1.0
1702490315.7242744,1.0,0.0,-2.0,-1.0,-1.0,0.0,-1.0,-1.0
1702490315.7242744,-1.0,-2.0,-2.0,-2.0,-2.0,-1.0,-1.0,-1.0
1702490315.7242744,-2.0,-2.0,-1.0,-1.0,-2.0,0.0,-1.0,-2.0
1702490315.7242744,0.0,0.0,-1.0,-1.0,-2.0,-1.0,-2.0,-1.0
1702490315.7442794,-2.0,-2.0,-1.0,0.0,-1.0,-1.0,-3.0,-2.0
1702490315.7442794,0.0,0.0,-3.0,0.0,-1.0,0.0,-1.0,-1.0
1702490315.7542841,-1.0,-3.0,-1.0,-1.0,0.0,-1.0,0.0,-2.0
1702490315.7542841,-2.0,-1.0,-1.0,-2.0,-1.0,-3.0,0.0,-1.0
1702490315.7542841,-3.0,-1.0,-1.0,0.0,0.0,1.0,-2.0,0.0
1702490315.7542841,0.0,1.0,0.0,-4.0,-6.0,-2.0,-2.0,-1.0
1702490315.7644014,0.0,0.0,0.0,6.0,-2.0,-2.0,-1.0,-2.0
1702490315.7644014,0.0,0.0,-3.0,-2.0,3.0,1.0,-1.0,-3.0
1702490315.782681,-2.0,0.0,-2.0,-14.0,-4.0,-2.0,-1.0,-1.0
1702490315.782681,-1.0,-2.0,-1.0,14.0,2.0,0.0,0.0,-1.0
1702490315.782681,0.0,-1.0,0.0,-2.0,-1.0,-1.0,1.0,0.0
1702490315.782681,-3.0,-1.0,-1.0,0.0,-3.0,-1.0,0.0,0.0
1702490315.8026125,-1.0,-1.0,1.0,-4.0,0.0,-2.0,0.0,-2.0
1702490315.8026125,1.0,2.0,1.0,-9.0,-1.0,-2.0,-1.0,1.0
1702490315.8122785,-1.0,-1.0,-26.0,0.0,1.0,-1.0,-1.0,-2.0
1702490315.8122785,-1.0,0.0,3.0,9.0,0.0,-2.0,-1.0,-1.0
1702490315.8122785,1.0,-3.0,-2.0,-8.0,-3.0,-3.0,-3.0,-2.0
1702490315.8122785,-1.0,-3.0,7.0,-3.0,-5.0,1.0,-1.0,-1.0
1702490315.8223722,-1.0,-1.0,-3.0,0.0,-1.0,0.0,0.0,0.0
1702490315.8223722,-2.0,-2.0,-2.0,4.0,-1.0,-1.0,1.0,0.0
1702490315.8425949,0.0,0.0,1.0,7.0,0.0,-1.0,0.0,-3.0
1702490315.8425949,-3.0,1.0,11.0,-3.0,-2.0,-2.0,-1.0,-1.0
1702490315.8526285,-1.0,-2.0,-4.0,-5.0,-3.0,0.0,-1.0,-1.0
1702490315.8526285,-1.0,0.0,10.0,-8.0,-2.0,-1.0,0.0,-1.0
1702490315.8625495,0.0,2.0,14.0,2.0,1.0,-2.0,1.0,0.0
1702490315.8625495,-4.0,-5.0,-41.0,-3.0,-1.0,0.0,-1.0,-3.0
1702490315.8722656,-2.0,2.0,16.0,-4.0,-2.0,0.0,-2.0,-1.0
1702490315.8722656,-1.0,-1.0,1.0,-7.0,-1.0,0.0,-2.0,0.0
1702490315.8822963,0.0,-2.0,-32.0,11.0,0.0,-1.0,0.0,-2.0
1702490315.8822963,0.0,-1.0,10.0,-2.0,1.0,-1.0,0.0,-2.0
1702490315.8822963,-1.0,0.0,-2.0,2.0,2.0,-1.0,-2.0,-2.0
1702490315.8822963,-1.0,-1.0,3.0,-3.0,-3.0,-1.0,-1.0,-1.0
1702490315.9030147,-1.0,1.0,21.0,1.0,2.0,0.0,-2.0,1.0
1702490315.9030147,0.0,-2.0,-5.0,-2.0,-1.0,-1.0,-1.0,-1.0
1702490315.9126482,0.0,-1.0,-6.0,-2.0,-3.0,0.0,-1.0,0.0
1702490315.9126482,2.0,-2.0,3.0,1.0,0.0,1.0,0.0,-1.0
1702490315.9226427,-2.0,-3.0,-7.0,-3.0,-1.0,-1.0,-1.0,-1.0
1702490315.9226427,0.0,-1.0,-7.0,1.0,-2.0,-1.0,0.0,-1.0
1702490315.9226427,1.0,2.0,14.0,-1.0,2.0,0.0,1.0,0.0
1702490315.9226427,-1.0,0.0,-13.0,-2.0,-1.0,-2.0,-1.0,-1.0
1702490315.9329515,-1.0,-4.0,-12.0,-1.0,-3.0,0.0,1.0,-3.0
1702490315.9329515,-1.0,1.0,6.0,-1.0,0.0,-1.0,0.0,-1.0
1702490315.9530194,-2.0,-1.0,16.0,-2.0,-1.0,-2.0,-1.0,-1.0
1702490315.9530194,-2.0,0.0,17.0,-1.0,1.0,0.0,-1.0,-1.0
1702490315.9629588,-3.0,-2.0,-9.0,0.0,0.0,-1.0,0.0,0.0
1702490315.9629588,-1.0,-1.0,11.0,0.0,-1.0,-1.0,-2.0,-1.0
1702490315.9629588,-2.0,-2.0,-7.0,-2.0,-2.0,0.0,-1.0,-2.0
1702490315.9629588,-1.0,-1.0,-1.0,1.0,-1.0,0.0,-1.0,-1.0
1702490315.9824748,-3.0,-1.0,4.0,-2.0,-1.0,-2.0,0.0,0.0
1702490315.9824748,0.0,-2.0,-4.0,-1.0,-1.0,0.0,-2.0,0.0
1702490315.9824748,1.0,-1.0,-3.0,0.0,0.0,-2.0,-1.0,-1.0
1702490315.9824748,-1.0,0.0,-10.0,-4.0,-1.0,-3.0,-2.0,-2.0
1702490315.9927344,1.0,1.0,1.0,-1.0,1.0,-1.0,-1.0,-2.0
1702490315.9927344,-2.0,1.0,-3.0,0.0,0.0,-1.0,-2.0,-1.0
1702490316.0024774,-3.0,0.0,-1.0,-3.0,-2.0,-4.0,-3.0,-1.0
1702490316.0024774,0.0,-2.0,-6.0,-2.0,-3.0,-2.0,-2.0,-1.0
1702490316.0228693,1.0,2.0,-1.0,-1.0,-2.0,-2.0,-1.0,-1.0
1702490316.0228693,-1.0,0.0,2.0,-2.0,-2.0,-3.0,-2.0,-1.0
1702490316.0228693,-1.0,0.0,-4.0,-1.0,-2.0,-1.0,-3.0,-1.0
1702490316.0228693,-2.0,-1.0,-3.0,0.0,-2.0,-1.0,-2.0,-1.0
1702490316.0424745,-2.0,1.0,0.0,0.0,-1.0,-2.0,-3.0,-1.0
1702490316.0424745,-2.0,-2.0,6.0,-2.0,-2.0,-2.0,-1.0,-2.0
1702490316.0424745,-1.0,-3.0,2.0,-2.0,0.0,-1.0,0.0,0.0
1702490316.0424745,-3.0,-6.0,-19.0,-3.0,0.0,-1.0,0.0,-2.0
1702490316.0526779,-1.0,-3.0,4.0,-2.0,0.0,0.0,-2.0,-1.0
1702490316.062486,0.0,-2.0,-2.0,0.0,-1.0,1.0,0.0,-1.0
1702490316.062486,-1.0,0.0,5.0,-1.0,0.0,0.0,-1.0,-2.0
1702490316.062486,0.0,0.0,3.0,0.0,-1.0,0.0,-2.0,-1.0
1702490316.082478,0.0,1.0,-4.0,-3.0,-3.0,1.0,-2.0,-2.0
1702490316.082478,0.0,-2.0,-1.0,-3.0,1.0,-3.0,0.0,0.0
1702490316.1024742,0.0,-1.0,-3.0,-2.0,-2.0,-1.0,0.0,-2.0
1702490316.1024742,-2.0,-1.0,-2.0,-1.0,1.0,-1.0,-3.0,-1.0
1702490316.1024742,-1.0,-1.0,1.0,0.0,-3.0,-1.0,0.0,-1.0
1702490316.1024742,-2.0,-1.0,-3.0,1.0,0.0,0.0,0.0,-1.0
1702490316.1024742,-1.0,1.0,-3.0,-2.0,-1.0,-2.0,0.0,-2.0
1702490316.1024742,-2.0,-1.0,-2.0,0.0,-1.0,1.0,0.0,0.0
1702490316.122867,-2.0,0.0,4.0,-1.0,0.0,1.0,0.0,-1.0
1702490316.122867,0.0,-2.0,-1.0,-2.0,-1.0,-1.0,-1.0,-1.0
1702490316.122867,-1.0,-2.0,-4.0,-1.0,0.0,1.0,0.0,-1.0
1702490316.122867,0.0,-1.0,1.0,0.0,-1.0,0.0,0.0,-1.0
1702490316.1424744,0.0,-2.0,-2.0,0.0,-1.0,0.0,0.0,-2.0
1702490316.1424744,0.0,0.0,-3.0,0.0,-2.0,-1.0,-1.0,0.0
1702490316.1424744,-1.0,-2.0,-3.0,-2.0,-1.0,1.0,1.0,-1.0
1702490316.1424744,-1.0,-2.0,0.0,-1.0,-1.0,0.0,-3.0,-2.0
1702490316.1628006,-1.0,-1.0,-1.0,-2.0,-2.0,0.0,-2.0,1.0
1702490316.1628006,-2.0,-2.0,-3.0,-1.0,-1.0,0.0,-1.0,0.0
1702490316.1628006,-1.0,-1.0,2.0,0.0,-2.0,-2.0,0.0,-1.0
1702490316.1628006,0.0,-1.0,5.0,0.0,0.0,-2.0,-1.0,0.0
1702490316.172764,-3.0,-1.0,0.0,-2.0,-2.0,-2.0,-1.0,-1.0
1702490316.172764,-1.0,0.0,1.0,-3.0,-2.0,0.0,-2.0,-2.0
1702490316.182711,1.0,-2.0,-4.0,0.0,-1.0,-1.0,-1.0,-1.0
1702490316.182711,0.0,0.0,1.0,0.0,1.0,-1.0,0.0,-1.0
1702490316.2124732,-3.0,-2.0,0.0,-2.0,0.0,-1.0,-1.0,-1.0
1702490316.2124732,1.0,-1.0,-3.0,0.0,0.0,-1.0,-1.0,-1.0
1702490316.2124732,-2.0,-2.0,2.0,0.0,-1.0,-1.0,0.0,0.0
1702490316.2124732,-1.0,-1.0,-4.0,-2.0,-1.0,-2.0,0.0,-2.0
1702490316.2352035,0.0,-1.0,-2.0,-1.0,1.0,-1.0,1.0,-1.0
1702490316.2352035,-3.0,-1.0,-3.0,0.0,-2.0,0.0,-2.0,-1.0
1702490316.2362301,0.0,-2.0,-3.0,-1.0,-1.0,0.0,-3.0,0.0
1702490316.2362301,-1.0,-2.0,-3.0,-2.0,-1.0,0.0,0.0,-2.0
1702490316.2412202,-1.0,0.0,-4.0,-2.0,-2.0,-2.0,-2.0,-2.0
1702490316.2412202,-1.0,-3.0,0.0,1.0,0.0,0.0,1.0,-2.0
1702490316.2558155,-2.0,1.0,-3.0,-1.0,-2.0,0.0,0.0,-1.0
1702490316.2565725,-1.0,-1.0,-2.0,-2.0,-2.0,-1.0,-2.0,-1.0
1702490316.2565725,-1.0,-2.0,2.0,-2.0,-3.0,0.0,1.0,0.0
1702490316.2565725,0.0,0.0,-2.0,-2.0,-1.0,-1.0,-1.0,-1.0
1702490316.2668283,-1.0,-3.0,-2.0,-1.0,-2.0,-3.0,0.0,-2.0
1702490316.2668283,-2.0,-2.0,-2.0,-2.0,-1.0,-2.0,0.0,-1.0
1702490316.293049,-1.0,-2.0,-1.0,0.0,0.0,-1.0,-3.0,-2.0
1702490316.293049,0.0,-2.0,-3.0,-1.0,0.0,-1.0,-2.0,-1.0
1702490316.293049,-1.0,-2.0,-2.0,-2.0,-1.0,-3.0,0.0,-1.0
1702490316.293049,-2.0,-1.0,-1.0,0.0,-2.0,-3.0,0.0,0.0
1702490316.3130493,0.0,-1.0,-3.0,0.0,1.0,-2.0,0.0,0.0
1702490316.3130493,-2.0,-1.0,-1.0,0.0,-1.0,-2.0,-2.0,-1.0
1702490316.3130493,-2.0,0.0,0.0,-1.0,-2.0,0.0,-1.0,-1.0
1702490316.3130493,0.0,0.0,-2.0,0.0,-1.0,-1.0,-1.0,1.0
1702490316.3231392,-1.0,-1.0,-1.0,-2.0,-1.0,0.0,0.0,-1.0
1702490316.3231392,-2.0,-1.0,-1.0,-1.0,-2.0,-1.0,-1.0,-2.0
1702490316.3231392,-1.0,-1.0,1.0,-1.0,1.0,-1.0,1.0,-1.0
1702490316.3231392,-1.0,0.0,-1.0,-2.0,-2.0,-1.0,-3.0,-2.0
1702490316.3433173,-2.0,-1.0,1.0,-1.0,-1.0,-2.0,-1.0,-2.0
1702490316.3433173,1.0,0.0,-3.0,-1.0,-1.0,-1.0,-1.0,-1.0
1702490316.3433173,-1.0,2.0,-2.0,-2.0,-2.0,-1.0,-1.0,-1.0
1702490316.3433173,-1.0,0.0,-2.0,-1.0,-2.0,0.0,-1.0,-1.0
1702490316.393049,-1.0,-1.0,0.0,1.0,-1.0,-2.0,-1.0,-1.0
1702490316.393049,-2.0,-1.0,-1.0,1.0,0.0,-2.0,-1.0,-2.0
1702490316.393049,-2.0,-3.0,0.0,-1.0,-1.0,-1.0,-1.0,-2.0
1702490316.393049,-2.0,-1.0,-3.0,-1.0,-1.0,0.0,0.0,-1.0
1702490316.393049,-2.0,-2.0,-1.0,-1.0,-2.0,2.0,-2.0,-1.0
1702490316.393049,-1.0,-1.0,-2.0,-2.0,-1.0,-3.0,1.0,-1.0
1702490316.393049,0.0,0.0,1.0,-1.0,-2.0,-1.0,-1.0,0.0
1702490316.393049,-1.0,-1.0,-6.0,-2.0,-2.0,0.0,-3.0,-2.0
1702490316.4033165,-2.0,0.0,1.0,0.0,-3.0,-1.0,-1.0,-2.0
1702490316.4033165,-1.0,-1.0,1.0,-1.0,-1.0,1.0,1.0,-1.0
1702490316.4033165,-1.0,-1.0,-3.0,-1.0,-2.0,-1.0,-1.0,0.0
1702490316.4033165,0.0,-1.0,3.0,-2.0,-2.0,-2.0,-1.0,-1.0
1702490316.4330497,0.0,-1.0,-2.0,0.0,-1.0,-1.0,-2.0,-1.0
1702490316.4330497,-1.0,1.0,-3.0,0.0,0.0,0.0,0.0,-1.0
1702490316.4330497,-1.0,0.0,3.0,-1.0,-1.0,-2.0,-1.0,-1.0
1702490316.4330497,-1.0,-1.0,-1.0,0.0,-1.0,-2.0,1.0,-1.0
1702490316.4434376,0.0,-3.0,11.0,-2.0,-1.0,-1.0,0.0,-1.0
1702490316.4434376,-2.0,-3.0,-15.0,-4.0,-2.0,-1.0,-1.0,-1.0
1702490316.4530535,0.0,-3.0,3.0,0.0,-1.0,0.0,-2.0,-2.0
1702490316.4530535,0.0,0.0,0.0,-1.0,-1.0,-2.0,-2.0,-1.0
1702490316.4730432,-2.0,-1.0,-4.0,-1.0,-2.0,1.0,-2.0,-1.0
1702490316.4730432,1.0,-1.0,6.0,0.0,-2.0,0.0,0.0,-2.0
1702490316.4730432,-1.0,0.0,1.0,1.0,-1.0,-1.0,-2.0,0.0
1702490316.4730432,-3.0,-4.0,-25.0,-3.0,1.0,-1.0,0.0,0.0
1702490316.4930525,-1.0,-1.0,3.0,0.0,0.0,-2.0,0.0,-1.0
1702490316.4930525,0.0,-1.0,2.0,-2.0,-1.0,0.0,-2.0,0.0
1702490316.4930525,-1.0,-1.0,-6.0,-1.0,1.0,-1.0,-1.0,-3.0
1702490316.4930525,1.0,-2.0,10.0,-1.0,-1.0,-2.0,-1.0,-1.0
1702490316.5130575,-1.0,-1.0,-7.0,0.0,-2.0,-2.0,-1.0,-2.0
1702490316.5130575,-1.0,-2.0,-5.0,-1.0,-1.0,-1.0,-2.0,-1.0
1702490316.5130575,0.0,-2.0,-3.0,-1.0,0.0,-1.0,-1.0,-1.0
1702490316.5130575,0.0,-1.0,7.0,0.0,-2.0,1.0,-2.0,-1.0
1702490316.5231185,0.0,0.0,-3.0,-1.0,0.0,0.0,-2.0,0.0
1702490316.5231185,-2.0,1.0,11.0,-2.0,-1.0,-2.0,-3.0,-2.0
1702490316.5430555,-1.0,0.0,-17.0,-1.0,0.0,-2.0,-1.0,0.0
1702490316.5430555,-1.0,0.0,2.0,0.0,0.0,-2.0,-1.0,-2.0
1702490316.553053,0.0,-1.0,-4.0,-2.0,-2.0,-2.0,-2.0,0.0
1702490316.553053,-1.0,0.0,6.0,1.0,-1.0,-2.0,0.0,1.0
1702490316.553053,0.0,-1.0,-15.0,-3.0,-1.0,-1.0,-2.0,-1.0
1702490316.553053,-2.0,-1.0,1.0,0.0,-1.0,-1.0,0.0,-1.0
1702490316.563211,-2.0,0.0,0.0,-1.0,-1.0,-2.0,1.0,-2.0
1702490316.563211,-2.0,-1.0,-2.0,-2.0,-1.0,-2.0,-2.0,0.0
1702490316.5730596,-4.0,-2.0,4.0,2.0,-1.0,-1.0,-1.0,0.0
1702490316.5730596,2.0,-2.0,-1.0,-4.0,-2.0,0.0,1.0,0.0
1702490316.583105,-2.0,-2.0,-2.0,1.0,0.0,2.0,0.0,0.0
1702490316.583105,0.0,-3.0,-1.0,-1.0,1.0,-1.0,0.0,0.0
1702490316.5930526,-2.0,0.0,2.0,0.0,0.0,1.0,-1.0,0.0
1702490316.5930526,-2.0,-2.0,-1.0,-2.0,-2.0,0.0,-1.0,-1.0
1702490316.6031578,-1.0,-3.0,-1.0,-1.0,-1.0,-2.0,-2.0,-2.0
1702490316.6031578,1.0,1.0,-2.0,3.0,2.0,1.0,-2.0,0.0
1702490316.6031578,-1.0,-1.0,9.0,0.0,-2.0,-2.0,0.0,0.0
1702490316.61306,-4.0,0.0,15.0,3.0,-1.0,-1.0,-1.0,-4.0
1702490316.6230981,-1.0,0.0,-10.0,-5.0,-1.0,1.0,-1.0,0.0
1702490316.6230981,-2.0,-3.0,0.0,-5.0,-2.0,-1.0,-1.0,-2.0
1702490316.6330554,1.0,1.0,3.0,6.0,-2.0,0.0,-1.0,-2.0
1702490316.6330554,-1.0,-2.0,10.0,-4.0,-2.0,-1.0,-1.0,0.0
