1702490760.5737917,8.0,-12.0,-22.0,-1.0,-2.0,-2.0,3.0,-9.0
1702490760.5737917,-15.0,-22.0,-17.0,-11.0,-3.0,-3.0,-1.0,-4.0
1702490760.5737917,-16.0,2.0,-31.0,-11.0,1.0,1.0,-3.0,2.0
1702490760.5737917,-43.0,-9.0,8.0,1.0,-5.0,-3.0,-6.0,-10.0
1702490760.583897,14.0,7.0,-2.0,1.0,-3.0,-1.0,7.0,9.0
1702490760.583897,5.0,-43.0,15.0,10.0,3.0,2.0,-1.0,0.0
1702490760.5939174,-13.0,-49.0,-13.0,-2.0,-3.0,-4.0,4.0,-8.0
1702490760.5939174,12.0,19.0,-1.0,-5.0,0.0,-5.0,-17.0,1.0
1702490760.6138444,-8.0,-14.0,-6.0,5.0,-4.0,-4.0,-11.0,2.0
1702490760.6138444,5.0,67.0,-10.0,-4.0,0.0,2.0,8.0,6.0
1702490760.6138444,-14.0,-30.0,14.0,1.0,0.0,2.0,-8.0,-9.0
1702490760.6138444,12.0,3.0,-7.0,-1.0,-2.0,-2.0,18.0,-3.0
1702490760.6337843,5.0,48.0,21.0,2.0,-1.0,0.0,-4.0,-1.0
1702490760.6337843,5.0,-3.0,37.0,0.0,0.0,0.0,2.0,-6.0
1702490760.6337843,-7.0,13.0,-64.0,-2.0,-2.0,0.0,-4.0,-4.0
1702490760.6337843,-23.0,-8.0,3.0,-6.0,-1.0,-3.0,12.0,3.0
1702490760.6540058,-2.0,-11.0,15.0,-4.0,-1.0,7.0,6.0,-1.0
1702490760.6540058,12.0,1.0,-1.0,-3.0,-3.0,-4.0,-3.0,-4.0
1702490760.6540058,0.0,-6.0,23.0,0.0,1.0,-3.0,-4.0,-1.0
1702490760.6540058,-2.0,1.0,5.0,6.0,0.0,1.0,-9.0,-1.0
1702490760.6737962,0.0,-16.0,-55.0,-12.0,-5.0,-4.0,-10.0,-7.0
1702490760.6737962,-9.0,20.0,0.0,2.0,2.0,3.0,6.0,5.0
1702490760.6737962,5.0,-8.0,15.0,3.0,0.0,0.0,-1.0,2.0
1702490760.6737962,11.0,28.0,26.0,3.0,2.0,-1.0,-6.0,2.0
1702490760.6938934,-5.0,18.0,-19.0,-4.0,-3.0,-1.0,-7.0,0.0
1702490760.6938934,10.0,12.0,8.0,-1.0,0.0,-1.0,3.0,3.0
1702490760.6938934,-15.0,-1.0,-23.0,-2.0,-3.0,-5.0,-4.0,-11.0
1702490760.6938934,0.0,-10.0,-7.0,0.0,1.0,0.0,-25.0,-8.0
1702490760.7140696,-9.0,4.0,38.0,5.0,1.0,2.0,25.0,4.0
1702490760.7140696,13.0,-16.0,-25.0,-5.0,2.0,-3.0,-14.0,-5.0
1702490760.7140696,-24.0,40.0,44.0,4.0,-1.0,-1.0,7.0,7.0
1702490760.7140696,18.0,-9.0,-31.0,-7.0,0.0,-1.0,-3.0,5.0
1702490760.7437875,4.0,-21.0,-9.0,-3.0,-5.0,-4.0,-3.0,-4.0
1702490760.7437875,-10.0,-6.0,-5.0,-2.0,-4.0,-3.0,-2.0,-3.0
1702490760.7537847,7.0,4.0,58.0,7.0,2.0,0.0,0.0,8.0
1702490760.7537847,10.0,19.0,-80.0,-4.0,0.0,0.0,6.0,-11.0
1702490760.7537847,-18.0,-2.0,7.0,-6.0,-4.0,-2.0,-1.0,0.0
1702490760.7537847,8.0,-1.0,41.0,7.0,1.0,-1.0,1.0,-2.0
1702490760.7537847,-9.0,-50.0,-80.0,-13.0,-5.0,0.0,0.0,-6.0
1702490760.7537847,-6.0,-15.0,20.0,3.0,-2.0,-2.0,-1.0,8.0
1702490760.8041024,8.0,24.0,13.0,0.0,-1.0,-3.0,1.0,0.0
1702490760.8041024,-12.0,-8.0,-29.0,2.0,2.0,5.0,6.0,-7.0
1702490760.8141017,9.0,21.0,23.0,1.0,1.0,0.0,2.0,7.0
1702490760.8141017,-16.0,-56.0,9.0,0.0,-1.0,-1.0,1.0,-9.0
1702490760.8141017,18.0,0.0,-12.0,-1.0,1.0,0.0,0.0,7.0
1702490760.8141017,5.0,18.0,34.0,-2.0,-3.0,-4.0,-7.0,4.0
1702490760.8141017,14.0,2.0,-31.0,4.0,4.0,0.0,-9.0,6.0
1702490760.8141017,-1.0,3.0,9.0,-5.0,-3.0,1.0,21.0,-9.0
1702490760.8141017,-4.0,0.0,-24.0,-5.0,2.0,-3.0,-4.0,16.0
1702490760.8141017,-4.0,-4.0,1.0,-1.0,-3.0,-2.0,-5.0,7.0
1702490760.8141017,8.0,10.0,0.0,0.0,-1.0,-1.0,-10.0,0.0
1702490760.8141017,7.0,45.0,20.0,2.0,-2.0,-1.0,8.0,-2.0
1702490760.8341427,-4.0,-44.0,11.0,0.0,-2.0,1.0,-2.0,-10.0
1702490760.8341427,0.0,12.0,-17.0,-4.0,0.0,-2.0,-2.0,-3.0
1702490760.8341427,1.0,4.0,-1.0,-3.0,-3.0,0.0,-5.0,3.0
1702490760.8341427,3.0,-10.0,14.0,2.0,4.0,4.0,-2.0,3.0
1702490760.863674,-19.0,33.0,20.0,8.0,2.0,-4.0,2.0,-5.0
1702490760.863674,2.0,-1.0,15.0,1.0,-2.0,0.0,6.0,4.0
1702490760.863674,0.0,-19.0,25.0,0.0,0.0,-3.0,-1.0,-17.0
1702490760.863674,0.0,5.0,-17.0,0.0,-4.0,-2.0,-7.0,4.0
1702490760.8736882,9.0,19.0,-23.0,-5.0,1.0,1.0,1.0,-14.0
1702490760.8736882,-5.0,0.0,14.0,-4.0,-4.0,-2.0,-16.0,-8.0
1702490760.8736882,-45.0,-23.0,-1.0,2.0,-2.0,-3.0,-14.0,-9.0
1702490760.8736882,-5.0,18.0,-42.0,-5.0,-1.0,1.0,11.0,5.0
1702490760.9036522,12.0,-13.0,87.0,2.0,1.0,0.0,2.0,9.0
1702490760.9036522,-17.0,-43.0,-96.0,-2.0,0.0,-3.0,2.0,-11.0
1702490760.9036522,13.0,21.0,4.0,-7.0,-5.0,-2.0,-2.0,-2.0
1702490760.9036522,0.0,37.0,19.0,3.0,0.0,-3.0,-16.0,3.0
1702490760.9136815,-14.0,-41.0,-2.0,4.0,-2.0,-2.0,4.0,-16.0
1702490760.9136815,12.0,5.0,3.0,-4.0,-4.0,-2.0,-36.0,3.0
1702490760.9236524,16.0,-9.0,9.0,-6.0,0.0,1.0,19.0,20.0
1702490760.9236524,-8.0,-21.0,-42.0,-9.0,-2.0,-2.0,-15.0,-13.0
1702490760.9340196,-6.0,6.0,-5.0,1.0,2.0,0.0,18.0,1.0
1702490760.9340196,-5.0,-8.0,8.0,-1.0,-1.0,-10.0,-49.0,-28.0
1702490760.9340196,12.0,4.0,-12.0,-3.0,-2.0,6.0,70.0,31.0
1702490760.9340196,-17.0,3.0,34.0,3.0,0.0,-6.0,1.0,2.0
1702490760.9536538,1.0,-3.0,-16.0,-5.0,-3.0,4.0,-32.0,-9.0
1702490760.9536538,-3.0,1.0,3.0,6.0,5.0,13.0,9.0,10.0
1702490760.9536538,-12.0,3.0,6.0,5.0,1.0,-8.0,-7.0,-13.0
1702490760.9536538,16.0,-12.0,0.0,-5.0,-6.0,-8.0,24.0,9.0
1702490760.973717,3.0,19.0,-9.0,1.0,0.0,-7.0,5.0,9.0
1702490760.973717,3.0,-9.0,7.0,1.0,1.0,-1.0,-2.0,-1.0
1702490760.9836535,-3.0,14.0,-1.0,1.0,-2.0,0.0,-26.0,-12.0
1702490760.9836535,11.0,0.0,18.0,3.0,2.0,6.0,10.0,-1.0
1702490760.9939952,-7.0,-14.0,8.0,3.0,1.0,-1.0,-13.0,0.0
1702490760.9939952,-6.0,4.0,-20.0,-5.0,-5.0,-1.0,22.0,0.0
1702490760.9939952,18.0,60.0,19.0,-6.0,3.0,3.0,0.0,-1.0
1702490760.9939952,-21.0,-34.0,-37.0,-1.0,-4.0,0.0,-6.0,-3.0
1702490761.0136526,11.0,-24.0,7.0,-17.0,-14.0,-1.0,5.0,2.0
1702490761.0136526,-15.0,56.0,27.0,20.0,13.0,2.0,13.0,4.0
1702490761.0136526,-4.0,-29.0,-7.0,-14.0,-11.0,-8.0,-7.0,-6.0
1702490761.0136526,2.0,19.0,-6.0,10.0,8.0,4.0,-11.0,-3.0
1702490761.035246,1.0,9.0,-20.0,-4.0,-5.0,-1.0,-1.0,1.0
1702490761.035246,-5.0,-34.0,39.0,-3.0,-2.0,-4.0,10.0,2.0
1702490761.0436149,-1.0,5.0,-45.0,-7.0,-1.0,-3.0,-15.0,-6.0
1702490761.0436149,10.0,-12.0,32.0,3.0,1.0,1.0,-6.0,-1.0
1702490761.0652606,3.0,-14.0,9.0,2.0,-6.0,-3.0,-2.0,0.0
1702490761.0652606,0.0,13.0,4.0,-12.0,-3.0,-3.0,6.0,0.0
1702490761.0652606,2.0,-1.0,12.0,16.0,6.0,5.0,1.0,-1.0
1702490761.0652606,0.0,2.0,11.0,-13.0,-7.0,-3.0,-3.0,0.0
1702490761.0752797,-2.0,12.0,-15.0,-6.0,2.0,-2.0,1.0,1.0
1702490761.0752797,3.0,-6.0,-7.0,8.0,0.0,-4.0,-10.0,-6.0
1702490761.0752797,0.0,-12.0,0.0,-8.0,-6.0,-3.0,-6.0,0.0
1702490761.0752797,-7.0,-17.0,-17.0,4.0,3.0,3.0,4.0,0.0
1702490761.0953257,-10.0,19.0,-8.0,-3.0,4.0,3.0,3.0,-1.0
1702490761.0953257,10.0,-13.0,0.0,-5.0,-3.0,-2.0,-6.0,1.0
1702490761.0953257,13.0,-34.0,23.0,12.0,2.0,-1.0,16.0,0.0
1702490761.0953257,-5.0,13.0,-54.0,-9.0,-1.0,-3.0,-22.0,-5.0
1702490761.1152737,19.0,31.0,13.0,3.0,-1.0,0.0,9.0,7.0
1702490761.1152737,1.0,7.0,-9.0,-9.0,-6.0,-4.0,-14.0,-6.0
1702490761.125273,-16.0,61.0,11.0,7.0,5.0,5.0,14.0,-4.0
1702490761.125273,9.0,5.0,30.0,1.0,-1.0,-7.0,5.0,7.0
1702490761.1353765,-1.0,-2.0,31.0,-1.0,-5.0,-1.0,-8.0,5.0
1702490761.1353765,-8.0,-47.0,-98.0,-5.0,1.0,0.0,4.0,-15.0
1702490761.1353765,0.0,8.0,31.0,-5.0,-6.0,-6.0,-13.0,-4.0
1702490761.1353765,4.0,10.0,9.0,2.0,3.0,1.0,-3.0,-6.0
1702490761.1545706,-4.0,1.0,-20.0,2.0,2.0,-5.0,-19.0,-3.0
1702490761.1545706,8.0,-9.0,18.0,0.0,0.0,2.0,18.0,11.0
1702490761.1545706,-10.0,33.0,11.0,-5.0,-3.0,-1.0,-8.0,-8.0
1702490761.1545706,-7.0,-39.0,4.0,-3.0,-4.0,0.0,5.0,0.0
1702490761.187039,-7.0,-32.0,-3.0,1.0,0.0,-2.0,-15.0,-10.0
1702490761.187039,-11.0,10.0,32.0,4.0,1.0,3.0,21.0,2.0
1702490761.187039,-6.0,-61.0,-78.0,-2.0,0.0,-1.0,-5.0,-3.0
1702490761.187039,1.0,10.0,40.0,-6.0,-2.0,-2.0,-8.0,3.0
1702490761.2011678,-31.0,17.0,-4.0,0.0,-1.0,0.0,6.0,-6.0
1702490761.2011678,-9.0,-1.0,5.0,-7.0,-9.0,-3.0,-1.0,-1.0
1702490761.203144,-2.0,-5.0,12.0,-4.0,-1.0,-2.0,-5.0,3.0
1702490761.203144,7.0,8.0,12.0,10.0,5.0,2.0,4.0,-4.0
1702490761.2151458,-1.0,-14.0,-11.0,-17.0,-7.0,-3.0,5.0,-1.0
1702490761.2151458,6.0,16.0,-8.0,15.0,10.0,1.0,0.0,3.0
1702490761.2235062,-14.0,-28.0,7.0,5.0,0.0,-3.0,-5.0,-2.0
1702490761.2235062,4.0,2.0,-14.0,-2.0,-3.0,-2.0,0.0,0.0
1702490761.2491076,10.0,26.0,1.0,4.0,1.0,1.0,0.0,-4.0
1702490761.2491076,-11.0,14.0,-22.0,-12.0,-3.0,-5.0,-6.0,-1.0
1702490761.2491076,12.0,-3.0,-1.0,-2.0,0.0,0.0,-12.0,-1.0
1702490761.2491076,-14.0,-5.0,-13.0,-2.0,-2.0,1.0,12.0,0.0
1702490761.2614655,5.0,5.0,6.0,7.0,1.0,0.0,2.0,1.0
1702490761.2614655,5.0,-28.0,-51.0,-6.0,-3.0,1.0,-2.0,3.0
1702490761.2633007,-7.0,-17.0,0.0,-4.0,0.0,-1.0,0.0,-5.0
1702490761.2633007,7.0,-13.0,-4.0,-6.0,-5.0,-6.0,1.0,-4.0
1702490761.274297,0.0,-33.0,18.0,6.0,6.0,5.0,-23.0,-1.0
1702490761.2753103,-10.0,43.0,-33.0,-5.0,-5.0,-4.0,49.0,-8.0
1702490761.2834904,-4.0,-61.0,-7.0,-2.0,-2.0,1.0,4.0,8.0
1702490761.2834904,2.0,-27.0,9.0,2.0,-2.0,-2.0,-1.0,-3.0
1702490761.311121,-3.0,-23.0,-42.0,-3.0,-3.0,-5.0,6.0,3.0
1702490761.311121,7.0,-18.0,60.0,-3.0,-2.0,-3.0,-23.0,14.0
1702490761.311121,-6.0,-25.0,-21.0,3.0,0.0,-2.0,-4.0,7.0
1702490761.311121,17.0,63.0,20.0,0.0,-2.0,-3.0,11.0,-3.0
1702490761.3215694,-41.0,-54.0,1.0,5.0,3.0,-3.0,-1.0,-5.0
1702490761.3215694,-1.0,13.0,-10.0,-5.0,-5.0,5.0,0.0,-9.0
1702490761.3235636,-10.0,25.0,18.0,2.0,-2.0,0.0,2.0,-1.0
1702490761.3235636,7.0,2.0,-3.0,2.0,1.0,-2.0,-24.0,1.0
1702490761.3352199,8.0,-10.0,-9.0,-4.0,-6.0,-4.0,17.0,-3.0
1702490761.3352199,11.0,54.0,21.0,1.0,1.0,-1.0,-13.0,1.0
1702490761.3432178,-7.0,16.0,6.0,0.0,3.0,-4.0,-10.0,-5.0
1702490761.3442516,-7.0,-12.0,-18.0,-5.0,-6.0,0.0,0.0,-4.0
1702490761.3581302,9.0,30.0,-3.0,-3.0,0.0,2.0,-1.0,-1.0
1702490761.3581302,-3.0,-32.0,19.0,2.0,-2.0,-3.0,0.0,0.0
1702490761.3603616,8.0,14.0,-14.0,-2.0,-2.0,-2.0,-7.0,-1.0
1702490761.3603616,-3.0,1.0,10.0,-3.0,1.0,2.0,4.0,3.0
1702490761.3816383,2.0,0.0,-14.0,-4.0,-4.0,-2.0,-4.0,-3.0
1702490761.3816383,-7.0,-28.0,22.0,-7.0,-3.0,-1.0,-7.0,1.0
1702490761.3816383,11.0,9.0,0.0,1.0,-2.0,-1.0,8.0,-2.0
1702490761.3816383,-1.0,5.0,-7.0,-3.0,2.0,1.0,-2.0,-1.0
1702490761.3915007,6.0,9.0,10.0,1.0,2.0,-2.0,0.0,1.0
1702490761.3915007,18.0,-38.0,-15.0,-9.0,-4.0,-1.0,-4.0,-2.0
1702490761.401215,5.0,42.0,11.0,2.0,-3.0,1.0,2.0,-2.0
1702490761.401215,-12.0,-35.0,-5.0,2.0,2.0,0.0,-1.0,-2.0
1702490761.411242,16.0,10.0,-20.0,-2.0,-1.0,0.0,-2.0,-2.0
1702490761.411242,0.0,-23.0,-26.0,-9.0,-1.0,1.0,-13.0,-1.0
1702490761.411242,1.0,4.0,5.0,1.0,2.0,4.0,11.0,1.0
1702490761.4212835,-2.0,29.0,5.0,0.0,-2.0,-3.0,-1.0,-2.0
1702490761.4415538,0.0,19.0,29.0,-2.0,-5.0,-3.0,-5.0,-4.0
1702490761.4415538,-3.0,-6.0,-16.0,6.0,-1.0,-2.0,-6.0,-2.0
1702490761.4415538,-8.0,13.0,1.0,-3.0,0.0,2.0,-11.0,-4.0
1702490761.4415538,-2.0,-30.0,-10.0,1.0,-1.0,-1.0,4.0,3.0
1702490761.4515653,5.0,12.0,-25.0,5.0,2.0,2.0,-6.0,2.0
1702490761.4515653,-12.0,3.0,-10.0,-2.0,-1.0,-4.0,-12.0,6.0
1702490761.4614975,13.0,-10.0,29.0,1.0,-3.0,-1.0,13.0,-11.0
1702490761.4614975,-3.0,-20.0,15.0,2.0,1.0,2.0,-12.0,0.0
1702490761.4812162,-10.0,-38.0,2.0,1.0,3.0,4.0,8.0,4.0
1702490761.4812162,9.0,37.0,32.0,1.0,-3.0,-6.0,-5.0,-7.0
1702490761.4812162,5.0,18.0,-7.0,-1.0,1.0,-3.0,-3.0,5.0
1702490761.4812162,-15.0,-18.0,14.0,2.0,-4.0,-4.0,-25.0,-8.0
1702490761.5016844,-2.0,-31.0,-27.0,-5.0,2.0,3.0,33.0,-2.0
1702490761.5016844,-8.0,-10.0,5.0,-1.0,-3.0,-1.0,-7.0,-3.0
1702490761.5016844,0.0,38.0,4.0,0.0,4.0,3.0,0.0,2.0
1702490761.5016844,3.0,-43.0,-4.0,-5.0,-5.0,-3.0,1.0,-1.0
1702490761.5119984,6.0,-3.0,15.0,0.0,-1.0,0.0,-14.0,-3.0
1702490761.5119984,4.0,33.0,2.0,4.0,0.0,-4.0,4.0,-1.0
1702490761.5316188,-14.0,-44.0,-5.0,-4.0,-1.0,-2.0,-8.0,-2.0
1702490761.5316188,-9.0,44.0,-52.0,-5.0,-1.0,-1.0,-7.0,0.0
1702490761.5316188,3.0,6.0,1.0,-5.0,-3.0,-4.0,-10.0,1.0
1702490761.5316188,0.0,-20.0,17.0,2.0,2.0,1.0,25.0,6.0
1702490761.5316188,-5.0,-8.0,13.0,1.0,-1.0,-1.0,-4.0,-4.0
1702490761.5316188,-1.0,-39.0,3.0,-2.0,-3.0,0.0,9.0,1.0
1702490761.5622509,-7.0,-12.0,6.0,-8.0,-5.0,-3.0,-7.0,0.0
1702490761.5622509,-5.0,14.0,14.0,4.0,4.0,-4.0,2.0,-9.0
1702490761.5632825,20.0,-38.0,-25.0,-2.0,-3.0,1.0,-6.0,8.0
1702490761.5632825,-1.0,27.0,17.0,4.0,1.0,0.0,4.0,1.0
1702490761.5876021,12.0,21.0,-6.0,1.0,-3.0,-4.0,-6.0,-10.0
1702490761.5876021,-6.0,-14.0,-2.0,1.0,1.0,9.0,13.0,-4.0
1702490761.5876021,13.0,8.0,-6.0,2.0,0.0,0.0,-21.0,1.0
1702490761.5876021,-14.0,13.0,7.0,-2.0,-3.0,-5.0,33.0,1.0
1702490761.59764,-8.0,1.0,2.0,1.0,0.0,-5.0,-18.0,-2.0
1702490761.59764,-4.0,-1.0,-7.0,-4.0,-1.0,8.0,20.0,4.0
1702490761.59764,-2.0,22.0,-5.0,-2.0,-1.0,-6.0,-2.0,-10.0
1702490761.59764,3.0,4.0,-9.0,-8.0,-5.0,-4.0,-30.0,-7.0
1702490761.6180162,0.0,18.0,8.0,11.0,11.0,5.0,33.0,7.0
1702490761.6180162,-11.0,-38.0,-13.0,-6.0,-4.0,-2.0,-44.0,-1.0
1702490761.6180162,7.0,55.0,1.0,-4.0,-4.0,-4.0,28.0,9.0
1702490761.6180162,-11.0,-12.0,-6.0,2.0,0.0,-1.0,3.0,-12.0
1702490761.6376033,1.0,33.0,2.0,-6.0,-6.0,-3.0,-4.0,2.0
1702490761.6376033,7.0,14.0,37.0,5.0,-1.0,-4.0,-5.0,1.0
1702490761.6376033,-10.0,-23.0,-1.0,0.0,4.0,2.0,-12.0,0.0
1702490761.6376033,9.0,19.0,22.0,5.0,-2.0,-2.0,-4.0,1.0
1702490761.657824,-8.0,11.0,-27.0,-13.0,-6.0,-1.0,-5.0,-3.0
1702490761.657824,10.0,-12.0,5.0,6.0,4.0,1.0,9.0,3.0
1702490761.657824,-51.0,-25.0,0.0,-6.0,-4.0,-5.0,-5.0,-8.0
1702490761.657824,5.0,35.0,4.0,-4.0,-3.0,1.0,5.0,2.0
1702490761.6778257,2.0,-22.0,2.0,-4.0,0.0,1.0,4.0,-4.0
1702490761.6778257,-9.0,1.0,8.0,9.0,-6.0,-5.0,-6.0,-1.0
1702490761.6778257,14.0,-23.0,-22.0,-15.0,-3.0,1.0,8.0,-3.0
1702490761.6778257,2.0,56.0,35.0,-3.0,-2.0,0.0,-8.0,1.0
1702490761.704095,-2.0,-24.0,-52.0,5.0,1.0,-1.0,-8.0,-2.0
1702490761.704095,1.0,19.0,22.0,-1.0,-1.0,-4.0,-1.0,-3.0
1702490761.7062018,-2.0,-24.0,-4.0,3.0,-2.0,-2.0,-1.0,-3.0
1702490761.7062018,9.0,10.0,-39.0,1.0,4.0,1.0,-1.0,-1.0
1702490761.719218,0.0,-1.0,49.0,-5.0,-4.0,-3.0,-5.0,-1.0
1702490761.719218,-10.0,-1.0,-12.0,0.0,3.0,-2.0,-16.0,-8.0
1702490761.7201834,0.0,-7.0,-4.0,1.0,-2.0,0.0,39.0,-1.0
1702490761.7201834,-13.0,-41.0,27.0,1.0,-1.0,-1.0,-4.0,1.0
1702490761.7477856,-5.0,5.0,-30.0,1.0,2.0,-3.0,-3.0,-3.0
1702490761.7477856,1.0,-13.0,-16.0,-4.0,-1.0,-3.0,-4.0,-6.0
1702490761.7477856,3.0,47.0,16.0,4.0,-4.0,-5.0,-43.0,-4.0
1702490761.7477856,-3.0,-35.0,-44.0,-6.0,0.0,7.0,12.0,4.0
1702490761.7639024,5.0,-15.0,35.0,1.0,-4.0,0.0,2.0,-1.0
1702490761.764925,-5.0,15.0,-6.0,-5.0,-2.0,-2.0,-10.0,-2.0
1702490761.7659194,3.0,4.0,22.0,2.0,4.0,-1.0,-55.0,-1.0
1702490761.7659194,8.0,-13.0,-2.0,-4.0,-4.0,3.0,76.0,19.0
1702490761.778921,-31.0,-11.0,31.0,1.0,-5.0,-5.0,-9.0,-20.0
1702490761.778921,3.0,37.0,-30.0,-8.0,-5.0,-2.0,-18.0,1.0
1702490761.792701,-2.0,-9.0,-17.0,0.0,-3.0,-1.0,35.0,3.0
1702490761.792701,-20.0,-3.0,10.0,2.0,1.0,0.0,-9.0,-7.0
1702490761.8088932,13.0,-8.0,6.0,-1.0,5.0,3.0,3.0,5.0
1702490761.8099146,-8.0,-15.0,-15.0,-4.0,-6.0,-4.0,10.0,-7.0
1702490761.8109117,-2.0,-29.0,-8.0,-1.0,-1.0,2.0,-1.0,0.0
1702490761.8109117,2.0,21.0,-3.0,-1.0,-1.0,-7.0,-20.0,-5.0
1702490761.8470614,11.0,40.0,-12.0,9.0,2.0,-1.0,7.0,3.0
1702490761.8470614,-11.0,-50.0,-1.0,-9.0,1.0,0.0,-10.0,0.0
1702490761.8470614,0.0,-3.0,0.0,-2.0,-3.0,-1.0,13.0,3.0
1702490761.8470614,15.0,-5.0,17.0,1.0,-1.0,-1.0,-8.0,-2.0
1702490761.8470614,-13.0,-26.0,-28.0,-5.0,-4.0,-3.0,-7.0,0.0
1702490761.8470614,4.0,45.0,5.0,7.0,0.0,-2.0,7.0,0.0
1702490761.8470614,-6.0,4.0,-9.0,-3.0,-4.0,1.0,6.0,0.0
1702490761.8470614,23.0,-2.0,-5.0,-4.0,-1.0,1.0,-9.0,-2.0
1702490761.8658383,-12.0,15.0,12.0,3.0,-1.0,-8.0,-21.0,-4.0
1702490761.8658383,-7.0,2.0,22.0,-2.0,-1.0,-1.0,15.0,-2.0
1702490761.8658383,-5.0,3.0,-4.0,-3.0,0.0,1.0,17.0,-9.0
1702490761.8658383,5.0,13.0,-10.0,-1.0,2.0,0.0,-17.0,-2.0
1702490761.884001,9.0,-16.0,8.0,-2.0,-3.0,0.0,1.0,4.0
1702490761.884001,4.0,-1.0,-4.0,1.0,1.0,3.0,7.0,3.0
1702490761.8850112,-5.0,2.0,-1.0,4.0,0.0,1.0,-12.0,-2.0
1702490761.8860142,-11.0,-8.0,7.0,-5.0,-3.0,-3.0,-10.0,-3.0
1702490761.8985903,8.0,3.0,-7.0,1.0,1.0,6.0,9.0,3.0
1702490761.8985903,-5.0,-16.0,-15.0,-2.0,1.0,0.0,17.0,-4.0
1702490761.9043968,7.0,-7.0,1.0,1.0,-3.0,-3.0,-4.0,-1.0
1702490761.9043968,-5.0,18.0,-10.0,2.0,0.0,-3.0,-11.0,-5.0
1702490761.9229028,2.0,-34.0,-12.0,-7.0,-6.0,-5.0,-4.0,2.0
1702490761.9229028,-5.0,17.0,-4.0,-3.0,-2.0,-1.0,-9.0,3.0
1702490761.9229028,-22.0,-2.0,0.0,-10.0,-3.0,2.0,-7.0,-4.0
1702490761.9229028,-4.0,-2.0,-8.0,-7.0,3.0,1.0,1.0,0.0
1702490761.9436858,0.0,30.0,16.0,-8.0,-5.0,-4.0,-37.0,-1.0
1702490761.9436858,17.0,-32.0,1.0,26.0,5.0,4.0,28.0,6.0
1702490761.945473,4.0,0.0,-3.0,0.0,-4.0,-5.0,-3.0,-1.0
1702490761.945473,-9.0,-11.0,-10.0,-9.0,-2.0,1.0,-6.0,-5.0
1702490761.9583597,-1.0,8.0,-16.0,-3.0,-2.0,-3.0,13.0,-4.0
1702490761.9583597,-15.0,15.0,12.0,-5.0,-2.0,-5.0,33.0,-4.0
1702490761.9653711,21.0,3.0,-3.0,-11.0,-1.0,-2.0,-30.0,1.0
1702490761.9653711,-14.0,18.0,2.0,10.0,-2.0,-4.0,36.0,-2.0
1702490761.9809802,-2.0,-3.0,2.0,-4.0,0.0,3.0,-12.0,9.0
1702490761.9809802,11.0,24.0,5.0,-3.0,-1.0,3.0,9.0,-11.0
1702490761.9829798,-3.0,30.0,10.0,4.0,-1.0,-4.0,-14.0,0.0
1702490761.9829798,-2.0,-18.0,13.0,-4.0,-4.0,-2.0,11.0,-1.0
1702490762.0043387,6.0,38.0,-29.0,2.0,-1.0,0.0,15.0,2.0
1702490762.0043387,-16.0,6.0,23.0,-3.0,-1.0,2.0,-26.0,-1.0
1702490762.0053308,8.0,-5.0,-18.0,5.0,0.0,1.0,7.0,5.0
1702490762.0053308,16.0,-2.0,-1.0,3.0,-1.0,-6.0,-25.0,-6.0
1702490762.0269058,-41.0,-7.0,14.0,-2.0,-4.0,3.0,15.0,-1.0
1702490762.0269058,4.0,-6.0,-31.0,-2.0,0.0,2.0,3.0,12.0
1702490762.0269058,11.0,20.0,31.0,-8.0,-2.0,-2.0,7.0,-8.0
1702490762.0269058,3.0,-31.0,-68.0,-1.0,-2.0,-3.0,-6.0,1.0
1702490762.0414891,9.0,-18.0,3.0,3.0,3.0,-1.0,0.0,-4.0
1702490762.0414891,0.0,-23.0,-11.0,4.0,-4.0,-3.0,-15.0,-7.0
1702490762.0428512,-5.0,8.0,8.0,-2.0,-2.0,-3.0,7.0,4.0
1702490762.0428512,-5.0,13.0,7.0,0.0,-5.0,-1.0,0.0,1.0
1702490762.0628514,13.0,-24.0,-2.0,6.0,-1.0,-1.0,-4.0,-6.0
1702490762.0628514,-4.0,-39.0,-22.0,-20.0,-7.0,-3.0,-13.0,1.0
1702490762.0894208,8.0,-2.0,-4.0,-24.0,0.0,0.0,8.0,-3.0
1702490762.0894208,2.0,11.0,35.0,47.0,10.0,4.0,-7.0,0.0
1702490762.0894208,-5.0,46.0,-8.0,-12.0,-1.0,-1.0,0.0,-3.0
1702490762.0894208,-21.0,-31.0,24.0,31.0,10.0,2.0,-3.0,-1.0
1702490762.0904498,-4.0,-49.0,-68.0,-10.0,-7.0,-6.0,0.0,-4.0
1702490762.0904498,3.0,24.0,45.0,-12.0,-7.0,-1.0,-9.0,-3.0
1702490762.1015184,6.0,-30.0,6.0,-2.0,2.0,-1.0,-5.0,2.0
1702490762.1015184,-20.0,32.0,2.0,-3.0,3.0,-1.0,-14.0,-4.0
1702490762.10243,-6.0,18.0,26.0,9.0,4.0,0.0,1.0,0.0
1702490762.10243,2.0,-28.0,-13.0,-7.0,0.0,1.0,-6.0,4.0
1702490762.1238527,-8.0,-47.0,-12.0,0.0,-4.0,-2.0,19.0,-2.0
1702490762.1238527,6.0,21.0,6.0,-9.0,-1.0,3.0,-9.0,-3.0
1702490762.1256764,-1.0,-26.0,12.0,9.0,-3.0,-1.0,-2.0,-4.0
1702490762.1256764,3.0,10.0,-5.0,-4.0,-2.0,-2.0,-4.0,-3.0
1702490762.1464052,-1.0,-18.0,-1.0,-5.0,0.0,4.0,5.0,1.0
1702490762.1464052,-5.0,-16.0,-27.0,-7.0,-2.0,-4.0,-8.0,0.0
1702490762.1464052,-5.0,-7.0,-43.0,9.0,4.0,0.0,5.0,3.0
1702490762.1464052,0.0,55.0,1.0,-10.0,0.0,-5.0,-32.0,-3.0
1702490762.1615794,-3.0,29.0,7.0,4.0,0.0,1.0,12.0,-4.0
1702490762.1615794,8.0,-18.0,22.0,-2.0,-7.0,-5.0,-9.0,1.0
1702490762.162957,1.0,10.0,-51.0,4.0,2.0,3.0,12.0,-2.0
1702490762.162957,-8.0,-4.0,10.0,-5.0,-3.0,-4.0,9.0,4.0
1702490762.1844442,-16.0,-33.0,-25.0,2.0,3.0,0.0,-8.0,-4.0
1702490762.1844442,32.0,44.0,2.0,4.0,0.0,2.0,-2.0,2.0
1702490762.1954422,-12.0,-3.0,40.0,-8.0,-8.0,-7.0,-14.0,-6.0
1702490762.1954422,0.0,-20.0,-26.0,-2.0,4.0,6.0,40.0,2.0
1702490762.197568,9.0,1.0,14.0,1.0,-2.0,-2.0,-4.0,1.0
1702490762.197568,-6.0,8.0,1.0,-11.0,-3.0,-2.0,4.0,-2.0
1702490762.2061214,-15.0,-28.0,29.0,8.0,6.0,2.0,-7.0,2.0
1702490762.2061214,12.0,22.0,-23.0,3.0,4.0,5.0,1.0,0.0
1702490762.220891,8.0,-39.0,5.0,-7.0,-5.0,0.0,-6.0,-4.0
1702490762.220891,2.0,-14.0,-2.0,8.0,-4.0,-1.0,2.0,0.0
1702490762.2229643,0.0,15.0,8.0,-2.0,-3.0,-2.0,2.0,2.0
1702490762.2229643,-11.0,-18.0,-4.0,-6.0,-5.0,2.0,-5.0,-1.0
1702490762.2432392,3.0,7.0,21.0,0.0,-1.0,-3.0,0.0,0.0
1702490762.2432392,1.0,9.0,-23.0,-4.0,1.0,0.0,-4.0,-2.0
1702490762.245405,-3.0,-31.0,26.0,-1.0,0.0,-3.0,0.0,2.0
1702490762.245405,-1.0,-5.0,-27.0,4.0,-2.0,-2.0,-5.0,2.0
1702490762.2612488,5.0,15.0,14.0,-3.0,-3.0,-1.0,0.0,-2.0
1702490762.2612488,-3.0,-22.0,-10.0,0.0,0.0,-3.0,-17.0,-3.0
1702490762.266485,6.0,4.0,17.0,4.0,-1.0,1.0,11.0,7.0
1702490762.266485,-20.0,-14.0,20.0,-5.0,-2.0,-5.0,-12.0,-7.0
1702490762.281483,-3.0,20.0,5.0,-1.0,-2.0,-4.0,-9.0,1.0
1702490762.281483,-15.0,-15.0,-18.0,-7.0,-4.0,-1.0,9.0,0.0
1702490762.2833471,0.0,-33.0,-1.0,5.0,5.0,-2.0,-2.0,0.0
1702490762.2833471,4.0,61.0,55.0,5.0,-3.0,-4.0,-5.0,-3.0
1702490762.3119903,-9.0,-7.0,-11.0,4.0,-1.0,1.0,-1.0,-2.0
1702490762.3119903,10.0,-7.0,23.0,0.0,2.0,2.0,11.0,0.0
1702490762.3119903,3.0,5.0,-22.0,-2.0,-2.0,3.0,5.0,0.0
1702490762.3119903,-8.0,-27.0,5.0,-2.0,-4.0,-3.0,-1.0,-2.0
1702490762.3177855,-10.0,20.0,14.0,1.0,1.0,-3.0,-16.0,-7.0
1702490762.3177855,18.0,-68.0,-43.0,-4.0,-2.0,0.0,8.0,6.0
1702490762.3258257,-8.0,36.0,-33.0,-11.0,-7.0,-1.0,-16.0,-10.0
1702490762.3258257,-10.0,-16.0,13.0,-3.0,3.0,-2.0,-7.0,-6.0
1702490762.348948,28.0,2.0,9.0,1.0,-3.0,-6.0,-15.0,0.0
1702490762.348948,-46.0,22.0,21.0,1.0,1.0,3.0,65.0,-5.0
1702490762.3504238,5.0,-17.0,-26.0,-3.0,-1.0,2.0,3.0,-2.0
1702490762.3504238,15.0,-14.0,-21.0,-5.0,-3.0,2.0,-3.0,0.0
1702490762.3722367,-14.0,10.0,-1.0,1.0,0.0,-4.0,35.0,7.0
1702490762.3722367,24.0,19.0,7.0,-1.0,3.0,7.0,-100.0,-7.0
1702490762.3722367,-21.0,9.0,8.0,-3.0,-4.0,-6.0,74.0,13.0
1702490762.3722367,2.0,-1.0,-3.0,4.0,4.0,10.0,18.0,1.0
1702490762.3777041,0.0,1.0,-23.0,-5.0,-1.0,-1.0,-2.0,-2.0
1702490762.378727,-3.0,-21.0,-1.0,-7.0,-2.0,-1.0,-10.0,1.0
1702490762.3872328,6.0,39.0,9.0,4.0,0.0,0.0,-20.0,-5.0
1702490762.3872328,12.0,-18.0,-1.0,-3.0,-2.0,-1.0,-22.0,1.0
1702490762.401233,3.0,43.0,7.0,7.0,2.0,0.0,9.0,6.0
1702490762.4022307,1.0,-47.0,-65.0,-11.0,0.0,-5.0,7.0,-3.0
1702490762.40323,-16.0,-14.0,24.0,-7.0,-3.0,0.0,-15.0,-3.0
1702490762.40323,-4.0,51.0,-13.0,-2.0,-10.0,-11.0,11.0,1.0
1702490762.4310958,2.0,-11.0,-2.0,-3.0,3.0,7.0,-12.0,-5.0
1702490762.4310958,4.0,64.0,31.0,1.0,3.0,-4.0,14.0,0.0
1702490762.4310958,3.0,-40.0,-4.0,11.0,2.0,-3.0,-19.0,-1.0
1702490762.4310958,-9.0,12.0,3.0,-6.0,1.0,0.0,3.0,-3.0
1702490762.43712,0.0,20.0,-9.0,-10.0,-10.0,-3.0,1.0,-3.0
1702490762.43712,-2.0,-2.0,5.0,8.0,1.0,0.0,3.0,1.0
1702490762.4462574,12.0,-16.0,-4.0,-14.0,1.0,1.0,-3.0,-3.0
1702490762.4462574,5.0,-23.0,14.0,-3.0,-5.0,0.0,-1.0,4.0
1702490762.4608269,-9.0,16.0,-5.0,12.0,-1.0,-1.0,-4.0,-4.0
1702490762.4618602,-15.0,-4.0,8.0,-4.0,-4.0,-5.0,9.0,-1.0
1702490762.4628236,9.0,11.0,-4.0,-10.0,-5.0,1.0,-15.0,-2.0
1702490762.4628236,-2.0,-27.0,-16.0,-4.0,-2.0,-4.0,-1.0,-3.0
1702490762.484206,1.0,-1.0,19.0,5.0,0.0,0.0,2.0,1.0
1702490762.484206,10.0,12.0,-5.0,-19.0,-10.0,-7.0,-12.0,1.0
1702490762.4852073,-14.0,-9.0,9.0,22.0,8.0,3.0,0.0,-5.0
1702490762.4852073,-7.0,-13.0,-2.0,-3.0,-2.0,-2.0,-5.0,-2.0
1702490762.497374,2.0,-9.0,1.0,3.0,1.0,-1.0,-3.0,2.0
1702490762.497374,1.0,17.0,4.0,-3.0,-5.0,-1.0,2.0,0.0
1702490762.5057251,6.0,20.0,0.0,-2.0,-1.0,-1.0,-2.0,0.0
1702490762.5067284,-9.0,-26.0,12.0,7.0,1.0,0.0,1.0,-1.0
1702490762.5206423,2.0,13.0,-60.0,-15.0,-2.0,-2.0,-22.0,-5.0
1702490762.5206423,0.0,-34.0,8.0,-2.0,-2.0,1.0,18.0,4.0
1702490762.5276592,-12.0,29.0,6.0,2.0,-2.0,-3.0,-19.0,-10.0
1702490762.5276592,39.0,34.0,6.0,-3.0,-3.0,-1.0,22.0,4.0
1702490762.5438259,-18.0,1.0,-5.0,2.0,0.0,0.0,-6.0,-4.0
1702490762.5438259,-2.0,-39.0,42.0,4.0,-3.0,-5.0,-20.0,-3.0
1702490762.5457122,24.0,-2.0,-12.0,0.0,0.0,-4.0,18.0,4.0
1702490762.5457122,-30.0,-54.0,7.0,1.0,1.0,2.0,0.0,-5.0
1702490762.5648174,14.0,22.0,27.0,-6.0,-2.0,1.0,4.0,1.0
1702490762.5648174,2.0,13.0,-15.0,9.0,1.0,-1.0,2.0,3.0
1702490762.5648174,-1.0,-32.0,17.0,-1.0,-1.0,-2.0,-10.0,-4.0
1702490762.5648174,-4.0,22.0,-15.0,-5.0,4.0,-1.0,-5.0,1.0
1702490762.5810964,-7.0,-8.0,-4.0,11.0,0.0,-2.0,13.0,3.0
1702490762.5810964,-12.0,3.0,8.0,1.0,0.0,2.0,-21.0,-3.0
1702490762.5810964,15.0,21.0,-8.0,0.0,3.0,4.0,24.0,4.0
1702490762.5810964,-14.0,2.0,-21.0,-2.0,-5.0,-5.0,-1.0,-4.0
1702490762.601393,-5.0,-19.0,-6.0,-8.0,-1.0,-4.0,-9.0,-4.0
1702490762.601393,6.0,32.0,-6.0,3.0,1.0,5.0,20.0,4.0
1702490762.601393,-10.0,-24.0,-6.0,-3.0,-4.0,-5.0,-19.0,-1.0
1702490762.601393,0.0,-37.0,-7.0,-7.0,-3.0,1.0,-1.0,-1.0
1702490762.6263092,16.0,-13.0,3.0,-7.0,-4.0,-2.0,-6.0,-1.0
1702490762.6263092,3.0,6.0,-5.0,3.0,2.0,-5.0,-29.0,-5.0
1702490762.6283205,-10.0,27.0,6.0,-3.0,-2.0,-1.0,10.0,-1.0
1702490762.6283205,-8.0,-8.0,-16.0,1.0,2.0,4.0,-22.0,0.0
1702490762.6433148,20.0,-9.0,1.0,-3.0,0.0,-1.0,32.0,4.0
1702490762.6433148,-3.0,-2.0,-9.0,-3.0,-4.0,1.0,21.0,3.0
1702490762.6433148,0.0,-5.0,28.0,5.0,-1.0,-3.0,-15.0,1.0
1702490762.6433148,-43.0,-9.0,-24.0,1.0,1.0,-1.0,-9.0,-3.0
1702490762.663966,-8.0,-11.0,3.0,-1.0,3.0,6.0,-5.0,-4.0
1702490762.663966,13.0,11.0,0.0,-3.0,-4.0,-4.0,7.0,-1.0
1702490762.663966,-2.0,6.0,-4.0,0.0,-2.0,-1.0,3.0,-1.0
1702490762.663966,2.0,10.0,-11.0,-1.0,-4.0,-4.0,-13.0,1.0
1702490762.6817284,3.0,-8.0,1.0,3.0,0.0,0.0,6.0,3.0
1702490762.6817284,-5.0,24.0,10.0,3.0,-1.0,-4.0,0.0,-4.0
1702490762.6817284,-5.0,26.0,-10.0,-20.0,-1.0,2.0,-3.0,-2.0
1702490762.6817284,0.0,-1.0,-10.0,3.0,-5.0,-1.0,4.0,-2.0
1702490762.7012975,5.0,-14.0,3.0,-4.0,0.0,1.0,-5.0,2.0
1702490762.7012975,7.0,6.0,-4.0,10.0,-1.0,-3.0,2.0,-1.0
1702490762.7012975,-14.0,-42.0,-13.0,-13.0,-4.0,-4.0,-8.0,-5.0
1702490762.7012975,6.0,23.0,32.0,-1.0,-2.0,-2.0,6.0,-1.0
1702490762.7315247,-3.0,0.0,-22.0,3.0,-1.0,-4.0,-2.0,1.0
1702490762.7315247,-7.0,-21.0,10.0,-9.0,-5.0,0.0,-3.0,-7.0
1702490762.7315247,-3.0,5.0,0.0,-10.0,-2.0,-4.0,-3.0,-1.0
1702490762.7315247,-2.0,-35.0,3.0,16.0,2.0,-1.0,0.0,-3.0
1702490762.7415776,-11.0,-16.0,8.0,19.0,-1.0,-2.0,-7.0,-4.0
1702490762.7415776,8.0,65.0,1.0,-1.0,3.0,4.0,4.0,2.0
1702490762.7415776,-3.0,15.0,7.0,-1.0,2.0,3.0,12.0,5.0
1702490762.7415776,20.0,87.0,17.0,7.0,2.0,1.0,5.0,1.0
1702490762.7712972,7.0,-65.0,2.0,-13.0,-8.0,-5.0,-1.0,-1.0
1702490762.7712972,-13.0,-91.0,-10.0,7.0,1.0,-2.0,-3.0,-4.0
1702490762.7712972,5.0,87.0,2.0,2.0,2.0,1.0,-5.0,-4.0
1702490762.7712972,7.0,-44.0,14.0,-5.0,-6.0,-5.0,2.0,2.0
1702490762.7814822,-15.0,-15.0,-20.0,-9.0,-1.0,0.0,-1.0,-1.0
1702490762.7814822,8.0,8.0,22.0,2.0,3.0,1.0,-26.0,4.0
1702490762.7814822,3.0,-31.0,-23.0,3.0,-2.0,-1.0,45.0,0.0
1702490762.7814822,9.0,-29.0,-56.0,-5.0,1.0,-1.0,-9.0,0.0
1702490762.8017511,-6.0,42.0,10.0,2.0,-2.0,-1.0,3.0,-1.0
1702490762.8017511,-3.0,-7.0,-5.0,-5.0,0.0,-2.0,-11.0,0.0
1702490762.8017511,13.0,-6.0,31.0,4.0,-6.0,1.0,-45.0,-5.0
1702490762.8017511,6.0,5.0,-57.0,-7.0,0.0,-1.0,1.0,1.0
1702490762.8212974,-17.0,-57.0,23.0,3.0,0.0,-4.0,21.0,-1.0
1702490762.8212974,1.0,4.0,-52.0,-7.0,-3.0,-1.0,0.0,-4.0
1702490762.8212974,-3.0,-21.0,-3.0,3.0,1.0,-1.0,4.0,3.0
1702490762.8212974,-9.0,-23.0,28.0,-4.0,-2.0,2.0,13.0,-6.0
1702490762.841688,1.0,36.0,23.0,0.0,0.0,2.0,-25.0,-5.0
1702490762.841688,-4.0,-25.0,-1.0,-1.0,-1.0,-2.0,14.0,0.0
1702490762.841688,-2.0,-22.0,3.0,0.0,-6.0,-3.0,-5.0,-3.0
1702490762.841688,12.0,17.0,1.0,-6.0,5.0,1.0,-10.0,1.0
1702490762.861298,-3.0,12.0,4.0,2.0,-1.0,-1.0,10.0,-6.0
1702490762.861298,1.0,5.0,8.0,-2.0,1.0,0.0,6.0,2.0
1702490762.861298,-11.0,-4.0,-20.0,1.0,0.0,-4.0,5.0,-5.0
1702490762.861298,12.0,21.0,25.0,-3.0,-1.0,-1.0,-3.0,3.0
1702490762.8812993,3.0,48.0,1.0,5.0,-2.0,-6.0,-7.0,-2.0
1702490762.8812993,5.0,19.0,8.0,4.0,-4.0,3.0,9.0,-2.0
1702490762.8812993,-5.0,-21.0,-6.0,3.0,3.0,-3.0,-8.0,-2.0
1702490762.8812993,-17.0,-14.0,7.0,-4.0,-6.0,-3.0,-23.0,-5.0
1702490762.9017358,-5.0,21.0,-8.0,-3.0,0.0,-2.0,-4.0,-1.0
1702490762.9017358,15.0,0.0,-3.0,-5.0,-1.0,3.0,-4.0,-6.0
1702490762.9017358,-9.0,-13.0,-6.0,2.0,0.0,-4.0,-28.0,1.0
1702490762.9017358,-2.0,21.0,3.0,-4.0,0.0,3.0,37.0,-4.0
1702490762.9213014,-6.0,-15.0,-11.0,-2.0,-1.0,-5.0,-17.0,-1.0
1702490762.9213014,-9.0,-2.0,2.0,0.0,0.0,1.0,-1.0,-3.0
1702490762.9213014,-2.0,-39.0,-7.0,-2.0,-1.0,7.0,3.0,2.0
1702490762.9213014,-8.0,16.0,12.0,4.0,1.0,4.0,-2.0,2.0
1702490762.9413,11.0,30.0,-2.0,-7.0,-4.0,-2.0,-2.0,2.0
1702490762.9413,-25.0,-60.0,-4.0,-2.0,-9.0,-8.0,20.0,-3.0
1702490762.9413,5.0,38.0,4.0,21.0,18.0,5.0,-6.0,-1.0
1702490762.9413,-2.0,-26.0,-6.0,-13.0,-8.0,-6.0,-5.0,0.0
1702490762.9612982,1.0,7.0,13.0,8.0,3.0,5.0,10.0,3.0
1702490762.9612982,-3.0,22.0,-8.0,-9.0,-6.0,-5.0,-15.0,-2.0
1702490762.9612982,6.0,16.0,-9.0,-19.0,2.0,1.0,9.0,-1.0
1702490762.9612982,4.0,-3.0,6.0,-34.0,-4.0,-7.0,0.0,0.0
1702490762.981298,-6.0,-29.0,23.0,47.0,5.0,2.0,-7.0,-2.0
1702490762.981298,-5.0,15.0,-50.0,-5.0,10.0,5.0,2.0,2.0
1702490762.981298,-9.0,-26.0,-18.0,-81.0,-29.0,-3.0,-3.0,-6.0
1702490762.981298,7.0,10.0,44.0,72.0,16.0,-10.0,-2.0,3.0
1702490763.001299,-2.0,-2.0,-13.0,-34.0,-15.0,3.0,-2.0,-2.0
1702490763.001299,2.0,9.0,42.0,28.0,2.0,7.0,6.0,1.0
1702490763.001299,5.0,2.0,-23.0,-17.0,-4.0,-5.0,7.0,4.0
1702490763.001299,-6.0,-10.0,-16.0,-16.0,-4.0,0.0,-10.0,-4.0
1702490763.0215604,-15.0,-16.0,51.0,24.0,5.0,0.0,3.0,-2.0
1702490763.0215604,-2.0,-7.0,22.0,-32.0,-1.0,-7.0,-6.0,-1.0
1702490763.0215604,-10.0,1.0,-63.0,10.0,-8.0,-10.0,-14.0,-5.0
1702490763.0215604,-5.0,4.0,-46.0,-8.0,-9.0,3.0,-5.0,-2.0
1702490763.0412982,5.0,-7.0,-17.0,-2.0,4.0,0.0,0.0,2.0
1702490763.0412982,10.0,13.0,17.0,-16.0,-4.0,-1.0,-1.0,-1.0
1702490763.0412982,5.0,-26.0,27.0,9.0,5.0,0.0,2.0,2.0
1702490763.0412982,-5.0,-21.0,-21.0,11.0,4.0,5.0,-1.0,0.0
1702490763.0516226,7.0,6.0,-4.0,-10.0,5.0,1.0,-1.0,0.0
1702490763.0516226,-28.0,53.0,-37.0,-11.0,-6.0,-3.0,-6.0,-8.0
1702490763.0615835,1.0,-3.0,27.0,8.0,-1.0,-1.0,3.0,1.0
1702490763.0615835,-2.0,-11.0,-49.0,-1.0,3.0,-3.0,-6.0,4.0
1702490763.0912967,-1.0,61.0,-9.0,-34.0,-4.0,-2.0,1.0,-7.0
1702490763.0912967,0.0,-10.0,-53.0,4.0,-4.0,-7.0,-5.0,2.0
1702490763.0912967,-1.0,-14.0,37.0,26.0,4.0,7.0,2.0,-7.0
1702490763.0912967,-8.0,-15.0,14.0,-11.0,-9.0,-1.0,9.0,7.0
1702490763.1017098,2.0,45.0,-3.0,-27.0,-6.0,-5.0,-6.0,-11.0
1702490763.1017098,0.0,8.0,13.0,31.0,16.0,-7.0,1.0,-2.0
1702490763.1017098,11.0,42.0,-9.0,3.0,-7.0,4.0,-41.0,5.0
1702490763.1017098,4.0,24.0,31.0,-18.0,0.0,8.0,42.0,7.0
1702490763.111677,38.0,4.0,0.0,29.0,-3.0,-1.0,1.0,9.0
1702490763.111677,-41.0,1.0,16.0,-1.0,-5.0,-5.0,7.0,-5.0
1702490763.1215477,21.0,33.0,6.0,9.0,5.0,-5.0,-20.0,-6.0
1702490763.1215477,-11.0,-20.0,10.0,2.0,-6.0,2.0,-1.0,-15.0
1702490763.1413002,-9.0,-31.0,-23.0,-11.0,-1.0,-6.0,14.0,15.0
1702490763.1413002,23.0,12.0,-20.0,-15.0,-3.0,1.0,-6.0,-3.0
1702490763.1413002,-14.0,-8.0,50.0,18.0,5.0,-5.0,8.0,-4.0
1702490763.1413002,18.0,2.0,-9.0,-2.0,-6.0,-5.0,-19.0,0.0
1702490763.1637642,-7.0,-11.0,-5.0,-7.0,-1.0,2.0,1.0,-9.0
1702490763.1637642,8.0,-26.0,6.0,2.0,-4.0,1.0,-1.0,4.0
1702490763.1637642,-22.0,-14.0,-15.0,-5.0,-4.0,-3.0,8.0,3.0
1702490763.1637642,17.0,-4.0,12.0,3.0,3.0,-1.0,-5.0,-3.0
1702490763.180101,12.0,-54.0,-12.0,4.0,-2.0,3.0,-19.0,-4.0
1702490763.180101,-7.0,-6.0,0.0,2.0,-3.0,0.0,9.0,4.0
1702490763.189229,-6.0,1.0,4.0,4.0,-1.0,-1.0,8.0,3.0
1702490763.189229,9.0,10.0,43.0,8.0,2.0,-8.0,-7.0,-2.0
1702490763.2117655,8.0,-9.0,-33.0,-8.0,-5.0,3.0,2.0,5.0
1702490763.2117655,-11.0,19.0,-24.0,-2.0,3.0,2.0,-8.0,-7.0
1702490763.2117655,-51.0,-13.0,-3.0,-16.0,-5.0,-3.0,14.0,0.0
1702490763.2117655,3.0,-1.0,32.0,19.0,4.0,-4.0,-4.0,-2.0
1702490763.2220414,-10.0,-38.0,-9.0,-4.0,-1.0,-2.0,-3.0,6.0
1702490763.2220414,2.0,25.0,31.0,4.0,1.0,0.0,1.0,2.0
1702490763.2220414,26.0,-3.0,-18.0,3.0,-1.0,-3.0,10.0,-1.0
1702490763.2220414,-4.0,13.0,-9.0,-33.0,-4.0,-1.0,-9.0,-5.0
1702490763.2320597,-7.0,-18.0,-26.0,0.0,-5.0,-3.0,-3.0,0.0
1702490763.2320597,5.0,-25.0,-11.0,13.0,6.0,1.0,8.0,2.0
1702490763.251733,6.0,1.0,-19.0,8.0,3.0,3.0,3.0,-4.0
1702490763.251733,-11.0,-6.0,13.0,1.0,-2.0,0.0,-2.0,4.0
1702490763.2618785,-11.0,43.0,11.0,-2.0,1.0,-5.0,-1.0,-5.0
1702490763.2618785,-8.0,-27.0,9.0,-10.0,-5.0,-2.0,-4.0,-4.0
1702490763.2618785,9.0,-19.0,-18.0,-25.0,-6.0,-2.0,-6.0,4.0
1702490763.2618785,-7.0,17.0,3.0,53.0,13.0,5.0,-1.0,-4.0
1702490763.2819297,-16.0,0.0,5.0,-14.0,-2.0,-1.0,-2.0,-2.0
1702490763.2819297,3.0,-11.0,18.0,-10.0,-7.0,-2.0,-4.0,3.0
1702490763.2819297,18.0,0.0,1.0,2.0,-1.0,-1.0,0.0,-2.0
1702490763.2819297,-10.0,-18.0,-24.0,-5.0,1.0,0.0,-3.0,-2.0
1702490763.2921176,4.0,12.0,-11.0,-6.0,3.0,-3.0,-2.0,-3.0
1702490763.2921176,7.0,-2.0,34.0,8.0,-3.0,-1.0,-5.0,-1.0
1702490763.3121278,-2.0,6.0,18.0,-3.0,-1.0,-4.0,2.0,-3.0
1702490763.3121278,-2.0,-33.0,24.0,-9.0,-2.0,-5.0,-11.0,-5.0
1702490763.3223772,13.0,3.0,-39.0,8.0,-2.0,-1.0,-6.0,1.0
1702490763.3223772,11.0,-7.0,5.0,-1.0,1.0,-1.0,-8.0,5.0
1702490763.3223772,-7.0,-10.0,0.0,0.0,0.0,3.0,8.0,1.0
1702490763.3223772,-17.0,3.0,-3.0,-7.0,-9.0,-7.0,-13.0,-11.0
1702490763.3424203,7.0,-31.0,3.0,0.0,-1.0,-10.0,0.0,7.0
1702490763.3424203,-25.0,6.0,15.0,5.0,0.0,9.0,-7.0,-4.0
1702490763.3424203,27.0,-13.0,-27.0,9.0,0.0,-1.0,1.0,0.0
1702490763.3424203,-14.0,55.0,-11.0,-20.0,-7.0,-3.0,2.0,10.0
1702490763.3524027,-16.0,-66.0,7.0,3.0,1.0,-1.0,-4.0,-13.0
1702490763.3524027,-5.0,-27.0,-14.0,-5.0,-2.0,-4.0,2.0,-5.0
1702490763.3623025,17.0,65.0,17.0,-3.0,0.0,-2.0,-4.0,7.0
1702490763.3623025,1.0,-11.0,-12.0,12.0,0.0,-1.0,5.0,-3.0
1702490763.3921275,-12.0,24.0,12.0,-6.0,0.0,2.0,-4.0,-3.0
1702490763.3921275,30.0,28.0,14.0,-3.0,-2.0,-2.0,13.0,3.0
1702490763.3921275,-18.0,-1.0,-28.0,1.0,-1.0,1.0,-4.0,-6.0
1702490763.3921275,1.0,-21.0,2.0,6.0,2.0,-3.0,1.0,5.0
1702490763.402296,1.0,13.0,-2.0,-2.0,-2.0,-6.0,-37.0,-4.0
1702490763.402296,-8.0,19.0,3.0,1.0,2.0,0.0,4.0,1.0
1702490763.402296,-5.0,-48.0,13.0,9.0,0.0,-2.0,2.0,9.0
1702490763.402296,-19.0,12.0,7.0,-6.0,1.0,2.0,14.0,-8.0
1702490763.4124951,-2.0,37.0,-36.0,3.0,0.0,-2.0,-6.0,-1.0
1702490763.4124951,1.0,13.0,14.0,-6.0,-1.0,-4.0,-6.0,-3.0
1702490763.432128,11.0,14.0,14.0,3.0,-4.0,-2.0,-6.0,-5.0
1702490763.432128,-15.0,-34.0,-36.0,-8.0,-5.0,-1.0,-8.0,2.0
1702490763.442162,-7.0,11.0,12.0,-8.0,-6.0,5.0,24.0,0.0
1702490763.442162,-1.0,9.0,1.0,6.0,2.0,-2.0,-4.0,-4.0
1702490763.452509,-9.0,-5.0,-31.0,-7.0,-2.0,-5.0,4.0,-2.0
1702490763.452509,18.0,-2.0,-9.0,-11.0,-3.0,6.0,-5.0,0.0
1702490763.462507,-15.0,21.0,60.0,37.0,-2.0,3.0,11.0,5.0
1702490763.462507,10.0,-39.0,-47.0,-14.0,-3.0,-2.0,-3.0,3.0
1702490763.462507,-7.0,4.0,41.0,-2.0,1.0,0.0,-1.0,-4.0
1702490763.462507,15.0,51.0,1.0,-2.0,1.0,-4.0,7.0,-1.0
1702490763.472128,22.0,-9.0,5.0,-8.0,2.0,6.0,-2.0,4.0
1702490763.472128,-40.0,-1.0,22.0,1.0,0.0,-2.0,-20.0,3.0
1702490763.482163,-11.0,-21.0,-7.0,8.0,1.0,5.0,9.0,-9.0
1702490763.482163,11.0,11.0,-32.0,-10.0,-7.0,-3.0,-7.0,-4.0
1702490763.5023563,17.0,-13.0,36.0,-8.0,0.0,0.0,0.0,1.0
1702490763.5023563,-9.0,-20.0,-60.0,-3.0,-7.0,-5.0,12.0,-3.0
1702490763.5023563,3.0,28.0,-1.0,-1.0,0.0,0.0,-2.0,-1.0
1702490763.5023563,19.0,-8.0,19.0,-1.0,-2.0,-2.0,-5.0,1.0
1702490763.5224364,-28.0,-2.0,-24.0,-2.0,3.0,2.0,0.0,-4.0
1702490763.5224364,9.0,-11.0,-24.0,-2.0,-2.0,-3.0,-6.0,-3.0
1702490763.5224364,-15.0,0.0,9.0,-1.0,-1.0,-4.0,-12.0,0.0
1702490763.5224364,11.0,38.0,-7.0,1.0,1.0,0.0,3.0,4.0
1702490763.5421624,-17.0,-9.0,16.0,-1.0,-4.0,-4.0,-2.0,1.0
1702490763.5421624,4.0,38.0,24.0,5.0,3.0,-1.0,-6.0,-7.0
1702490763.5421624,-13.0,-9.0,-18.0,1.0,-2.0,3.0,21.0,0.0
1702490763.5421624,-2.0,-30.0,3.0,2.0,0.0,2.0,-14.0,-5.0
1702490763.5621326,0.0,-10.0,0.0,-7.0,2.0,-1.0,12.0,0.0
1702490763.5621326,-1.0,12.0,-13.0,0.0,-2.0,-1.0,-8.0,1.0
1702490763.5621326,1.0,-5.0,17.0,-1.0,-3.0,-4.0,-9.0,2.0
1702490763.5621326,-23.0,-21.0,-20.0,6.0,3.0,1.0,6.0,-4.0
1702490763.5824778,5.0,0.0,10.0,-5.0,-5.0,-5.0,-13.0,-2.0
1702490763.5824778,26.0,9.0,38.0,3.0,1.0,2.0,15.0,-1.0
1702490763.5824778,-11.0,-12.0,-33.0,0.0,1.0,-2.0,-14.0,-1.0
1702490763.5824778,48.0,-24.0,-23.0,-16.0,-6.0,0.0,15.0,2.0
1702490763.6121297,-86.0,-35.0,32.0,15.0,5.0,0.0,1.0,-3.0
1702490763.6121297,19.0,-2.0,-8.0,-7.0,-4.0,-3.0,-6.0,-2.0
1702490763.6121297,8.0,1.0,5.0,0.0,1.0,3.0,-4.0,-2.0
1702490763.6121297,-7.0,-17.0,35.0,0.0,-5.0,-2.0,2.0,8.0
1702490763.6225195,65.0,47.0,-22.0,1.0,-2.0,-1.0,7.0,-14.0
1702490763.6225195,-2.0,-24.0,-36.0,-10.0,-2.0,-3.0,-18.0,1.0
1702490763.6225195,-2.0,2.0,5.0,5.0,2.0,-3.0,-9.0,-10.0
1702490763.6225195,-5.0,-22.0,-6.0,-11.0,-8.0,-4.0,4.0,0.0
1702490763.6425242,-15.0,-9.0,-42.0,-2.0,1.0,2.0,4.0,1.0
1702490763.6425242,-2.0,-13.0,36.0,2.0,1.0,0.0,5.0,2.0
1702490763.6425242,17.0,34.0,-15.0,4.0,1.0,1.0,2.0,6.0
1702490763.6425242,9.0,-7.0,-31.0,0.0,1.0,-2.0,-10.0,0.0
1702490763.6621614,-33.0,-14.0,-6.0,-2.0,-3.0,-3.0,-11.0,-7.0
1702490763.6621614,4.0,6.0,19.0,2.0,0.0,-1.0,7.0,-13.0
1702490763.6621614,-30.0,-51.0,-13.0,-2.0,0.0,-5.0,-3.0,4.0
1702490763.6621614,-25.0,-16.0,29.0,3.0,4.0,0.0,8.0,0.0
1702490763.6835105,43.0,-39.0,-16.0,-10.0,-4.0,-2.0,-1.0,3.0
1702490763.6835105,-17.0,4.0,1.0,2.0,-1.0,2.0,9.0,-3.0
1702490763.6896906,11.0,0.0,17.0,0.0,-3.0,-4.0,-12.0,-4.0
1702490763.6896906,-14.0,71.0,18.0,4.0,3.0,0.0,-4.0,-3.0
1702490763.7035837,0.0,-25.0,-13.0,-2.0,0.0,-4.0,5.0,0.0
1702490763.7035837,-1.0,-12.0,-12.0,1.0,-1.0,-1.0,4.0,-2.0
1702490763.7035837,6.0,-1.0,24.0,-3.0,-6.0,0.0,7.0,3.0
1702490763.7035837,-7.0,9.0,-24.0,-4.0,-8.0,-5.0,-1.0,2.0
1702490763.7241614,14.0,17.0,-18.0,13.0,7.0,-1.0,-3.0,1.0
1702490763.7241614,29.0,-1.0,-1.0,-18.0,-5.0,0.0,-5.0,8.0
1702490763.7338927,-51.0,12.0,-3.0,-7.0,0.0,1.0,8.0,-3.0
1702490763.7338927,14.0,-13.0,-51.0,10.0,1.0,0.0,-8.0,-6.0
1702490763.7438905,0.0,11.0,30.0,1.0,-1.0,-2.0,0.0,3.0
1702490763.7438905,25.0,3.0,8.0,-4.0,-5.0,1.0,-2.0,1.0
1702490763.7438905,8.0,-16.0,-7.0,-3.0,-1.0,-3.0,-1.0,-7.0
1702490763.7438905,-7.0,12.0,17.0,-1.0,-1.0,0.0,0.0,0.0
1702490763.7828999,-11.0,-18.0,-18.0,-20.0,-9.0,-2.0,-2.0,-5.0
1702490763.7828999,-12.0,-2.0,7.0,11.0,6.0,-1.0,3.0,-1.0
1702490763.7828999,4.0,-28.0,1.0,-1.0,-2.0,1.0,1.0,2.0
1702490763.7828999,6.0,20.0,16.0,-3.0,-1.0,1.0,6.0,6.0
1702490763.7828999,-4.0,-36.0,6.0,2.0,-4.0,-5.0,-6.0,-24.0
1702490763.7828999,-1.0,-21.0,-23.0,-7.0,-5.0,-5.0,-12.0,-13.0
1702490763.7828999,13.0,-69.0,-3.0,-3.0,0.0,-1.0,-9.0,4.0
1702490763.7828999,-6.0,52.0,-12.0,-2.0,-2.0,-4.0,-16.0,-4.0
1702490763.8031797,0.0,3.0,1.0,-4.0,1.0,4.0,10.0,7.0
1702490763.8031797,-4.0,-10.0,9.0,-1.0,-2.0,-5.0,3.0,4.0
1702490763.8031797,-6.0,58.0,13.0,6.0,2.0,-3.0,-3.0,-9.0
1702490763.8031797,10.0,0.0,6.0,2.0,6.0,7.0,-4.0,-2.0
1702490763.8229089,-1.0,24.0,21.0,3.0,2.0,3.0,-12.0,-3.0
1702490763.8229089,-22.0,-22.0,-12.0,1.0,-2.0,-4.0,7.0,0.0
1702490763.8229089,15.0,47.0,-8.0,-1.0,2.0,0.0,1.0,15.0
1702490763.8229089,-10.0,-56.0,11.0,-5.0,-8.0,-8.0,-1.0,-11.0
1702490763.843335,4.0,49.0,3.0,5.0,1.0,6.0,17.0,-3.0
1702490763.843335,-10.0,8.0,6.0,1.0,1.0,-1.0,-4.0,-3.0
1702490763.843335,-7.0,3.0,-8.0,-4.0,-3.0,2.0,-7.0,-1.0
1702490763.843335,-7.0,-5.0,4.0,3.0,3.0,-2.0,6.0,8.0
1702490763.863349,6.0,-17.0,-7.0,-2.0,0.0,-2.0,12.0,2.0
1702490763.863349,-6.0,-10.0,-4.0,3.0,3.0,2.0,-15.0,-11.0
1702490763.863349,-2.0,-7.0,-6.0,-4.0,-4.0,-4.0,6.0,7.0
1702490763.863349,4.0,-8.0,8.0,1.0,-1.0,-4.0,-7.0,-3.0
1702490763.8829086,1.0,13.0,3.0,5.0,-2.0,-1.0,-1.0,11.0
1702490763.8829086,-5.0,8.0,5.0,-4.0,-3.0,-2.0,2.0,0.0
1702490763.8829086,29.0,17.0,27.0,-5.0,-4.0,-2.0,3.0,-5.0
1702490763.8829086,-18.0,-14.0,-22.0,-4.0,-2.0,-3.0,-2.0,-3.0
1702490763.9032395,6.0,-11.0,7.0,1.0,3.0,-2.0,-6.0,2.0
1702490763.9032395,7.0,9.0,-46.0,-9.0,-5.0,0.0,-2.0,0.0
1702490763.9032395,7.0,-29.0,2.0,2.0,4.0,-1.0,-3.0,0.0
1702490763.9032395,-7.0,-15.0,14.0,2.0,-4.0,1.0,-1.0,-12.0
1702490763.9232166,1.0,15.0,-32.0,-11.0,-5.0,-4.0,-16.0,0.0
1702490763.9232166,-3.0,-1.0,41.0,12.0,2.0,1.0,15.0,11.0
1702490763.9232166,-9.0,-33.0,-15.0,-6.0,-8.0,-2.0,3.0,-5.0
1702490763.9232166,10.0,23.0,-10.0,-10.0,2.0,0.0,0.0,4.0
1702490763.94291,-12.0,5.0,21.0,5.0,0.0,-2.0,-5.0,-1.0
1702490763.94291,8.0,18.0,-34.0,-3.0,-2.0,0.0,-4.0,0.0
1702490763.94291,-14.0,0.0,-18.0,3.0,0.0,0.0,5.0,-2.0
1702490763.94291,-11.0,-3.0,29.0,-12.0,-2.0,1.0,-4.0,-15.0
1702490763.9633617,12.0,42.0,-15.0,6.0,5.0,2.0,1.0,6.0
1702490763.9633617,-5.0,-28.0,22.0,11.0,1.0,-1.0,-5.0,-1.0
1702490763.9633617,7.0,9.0,5.0,-1.0,-4.0,0.0,18.0,0.0
1702490763.9633617,8.0,3.0,-4.0,5.0,-1.0,-4.0,1.0,-8.0
1702490763.9827812,-3.0,22.0,8.0,-13.0,-7.0,0.0,2.0,10.0
1702490763.9827812,-1.0,32.0,-11.0,-1.0,-4.0,-3.0,-4.0,0.0
1702490763.9927886,-20.0,-16.0,-11.0,6.0,2.0,1.0,-8.0,-2.0
1702490763.9927886,-2.0,5.0,42.0,1.0,-1.0,-2.0,-2.0,-1.0
1702490764.013168,-6.0,-75.0,-24.0,-7.0,-4.0,-3.0,-5.0,-9.0
1702490764.013168,0.0,13.0,18.0,-7.0,1.0,-1.0,7.0,9.0
1702490764.013168,8.0,-37.0,17.0,8.0,3.0,-1.0,-14.0,-15.0
1702490764.013168,-7.0,-15.0,-29.0,-9.0,-9.0,-11.0,2.0,3.0
1702490764.0230894,12.0,24.0,12.0,9.0,3.0,3.0,0.0,4.0
1702490764.0230894,3.0,-57.0,-2.0,-4.0,1.0,1.0,0.0,3.0
1702490764.0230894,-18.0,52.0,-1.0,-10.0,-5.0,-8.0,-13.0,-6.0
1702490764.0230894,-8.0,-8.0,-27.0,3.0,2.0,3.0,9.0,4.0
1702490764.0428026,-7.0,-6.0,-10.0,-5.0,-7.0,-5.0,-4.0,-10.0
1702490764.0428026,1.0,-10.0,-20.0,-3.0,1.0,-2.0,-4.0,1.0
1702490764.0428026,9.0,81.0,22.0,5.0,1.0,0.0,9.0,0.0
1702490764.0428026,-5.0,-21.0,-3.0,4.0,0.0,1.0,-3.0,4.0
1702490764.063183,-15.0,49.0,-3.0,-3.0,-2.0,-4.0,1.0,-6.0
1702490764.063183,-5.0,12.0,11.0,1.0,0.0,0.0,-7.0,-2.0
1702490764.063183,20.0,-13.0,8.0,-1.0,-2.0,2.0,11.0,-2.0
1702490764.063183,-12.0,3.0,-19.0,-1.0,0.0,1.0,-3.0,4.0
1702490764.0828695,15.0,32.0,5.0,-3.0,-2.0,-3.0,0.0,-3.0
1702490764.0828695,-3.0,-26.0,-3.0,-3.0,-6.0,-3.0,-1.0,-5.0
1702490764.092885,-9.0,9.0,8.0,2.0,0.0,-1.0,-3.0,-3.0
1702490764.092885,21.0,7.0,-5.0,1.0,1.0,3.0,-4.0,-3.0
1702490764.092885,-3.0,-24.0,23.0,-3.0,0.0,-1.0,2.0,0.0
1702490764.092885,4.0,8.0,6.0,4.0,1.0,-2.0,-1.0,-4.0
1702490764.1128955,-42.0,-14.0,-14.0,-1.0,0.0,-2.0,-1.0,0.0
1702490764.1128955,7.0,1.0,40.0,-1.0,0.0,1.0,-2.0,-1.0
1702490764.1232612,1.0,-20.0,-33.0,-1.0,-2.0,1.0,-3.0,-5.0
1702490764.1232612,-3.0,6.0,-12.0,-7.0,-2.0,0.0,-3.0,0.0
1702490764.1232612,9.0,23.0,24.0,4.0,5.0,-1.0,-9.0,1.0
1702490764.1232612,-2.0,-47.0,-12.0,3.0,1.0,-1.0,8.0,0.0
1702490764.1528833,-10.0,-8.0,-27.0,-1.0,0.0,0.0,-5.0,-2.0
1702490764.1528833,-7.0,11.0,2.0,-1.0,-1.0,1.0,0.0,-4.0
1702490764.1528833,13.0,-12.0,-17.0,-2.0,-1.0,-1.0,-3.0,-1.0
1702490764.1528833,-5.0,0.0,4.0,2.0,2.0,-5.0,-3.0,2.0
1702490764.1628869,23.0,-20.0,11.0,-4.0,-3.0,-1.0,-7.0,1.0
1702490764.1628869,-15.0,-10.0,0.0,4.0,-1.0,0.0,3.0,0.0
1702490764.1628869,-2.0,-18.0,-16.0,-3.0,-6.0,-2.0,0.0,-5.0
1702490764.1628869,9.0,17.0,-1.0,2.0,3.0,3.0,1.0,3.0
1702490764.1855915,-13.0,-19.0,-27.0,-2.0,-5.0,-2.0,4.0,3.0
1702490764.1855915,-23.0,-7.0,-2.0,-4.0,-2.0,-3.0,-2.0,-3.0
1702490764.1855915,8.0,6.0,11.0,0.0,3.0,-1.0,-3.0,1.0
1702490764.1855915,-2.0,-1.0,8.0,0.0,-3.0,-1.0,-9.0,-2.0
1702490764.2349796,-12.0,2.0,15.0,-3.0,-2.0,-1.0,15.0,-3.0
1702490764.2349796,0.0,18.0,-8.0,-1.0,-2.0,2.0,-6.0,-5.0
1702490764.2349796,-7.0,-23.0,-10.0,-2.0,-2.0,1.0,12.0,1.0
1702490764.2349796,2.0,4.0,-14.0,-6.0,-6.0,-4.0,4.0,-2.0
1702490764.2349796,7.0,25.0,26.0,1.0,2.0,3.0,-8.0,2.0
1702490764.2349796,1.0,7.0,-15.0,3.0,-2.0,-5.0,9.0,0.0
1702490764.2349796,1.0,-21.0,17.0,-4.0,-2.0,2.0,-4.0,4.0
1702490764.2349796,0.0,29.0,30.0,5.0,1.0,-1.0,-1.0,-3.0
1702490764.2451785,27.0,-7.0,-2.0,0.0,-1.0,-2.0,-3.0,-3.0
1702490764.2451785,-8.0,-48.0,39.0,-8.0,-2.0,-2.0,-2.0,0.0
1702490764.2451785,-4.0,-20.0,-57.0,2.0,2.0,1.0,-5.0,3.0
1702490764.2451785,-5.0,31.0,45.0,4.0,2.0,4.0,-3.0,1.0
1702490764.2749789,13.0,3.0,-71.0,0.0,-3.0,-4.0,9.0,3.0
1702490764.2749789,-3.0,8.0,25.0,-3.0,-3.0,-1.0,3.0,-6.0
1702490764.2749789,21.0,9.0,-1.0,0.0,1.0,0.0,-1.0,0.0
1702490764.2749789,-5.0,-61.0,-27.0,-8.0,1.0,-2.0,0.0,-2.0
1702490764.2749789,-13.0,41.0,27.0,10.0,3.0,4.0,-1.0,0.0
1702490764.2749789,18.0,-1.0,-34.0,1.0,-2.0,-2.0,-3.0,1.0
1702490764.285019,5.0,0.0,-18.0,-6.0,-3.0,-4.0,-12.0,-2.0
1702490764.285019,-2.0,25.0,-12.0,3.0,-5.0,0.0,1.0,-3.0
1702490764.304982,-16.0,-21.0,25.0,-4.0,0.0,-6.0,-6.0,-2.0
1702490764.304982,16.0,-5.0,-8.0,1.0,3.0,5.0,-4.0,1.0
1702490764.304982,10.0,9.0,14.0,0.0,-4.0,-4.0,-5.0,6.0
1702490764.304982,-29.0,-4.0,-15.0,-4.0,-2.0,-1.0,6.0,-10.0
1702490764.3245401,-16.0,-14.0,5.0,0.0,1.0,3.0,-13.0,4.0
1702490764.3245401,16.0,12.0,-14.0,-3.0,-6.0,-5.0,-10.0,-9.0
1702490764.3245401,27.0,0.0,9.0,2.0,1.0,-2.0,7.0,1.0
1702490764.3245401,-2.0,-5.0,-15.0,-3.0,-3.0,-3.0,-7.0,1.0
1702490764.3348854,-24.0,-28.0,1.0,-4.0,1.0,-2.0,1.0,-1.0
1702490764.3348854,-6.0,3.0,8.0,4.0,3.0,-1.0,-3.0,-2.0
1702490764.3448346,-10.0,-7.0,-2.0,-5.0,-4.0,-6.0,-25.0,-1.0
1702490764.3448346,6.0,-11.0,-8.0,0.0,1.0,3.0,2.0,4.0
1702490764.364693,-2.0,-53.0,8.0,0.0,-1.0,1.0,14.0,-9.0
1702490764.364693,9.0,26.0,6.0,0.0,0.0,-2.0,-3.0,4.0
1702490764.364693,-20.0,46.0,-9.0,-1.0,-2.0,-2.0,1.0,-9.0
1702490764.364693,3.0,38.0,35.0,-1.0,-1.0,-1.0,-10.0,-1.0
1702490764.3848193,12.0,42.0,-8.0,-3.0,-1.0,-3.0,-6.0,4.0
1702490764.3848193,-12.0,-15.0,-7.0,4.0,3.0,5.0,4.0,-3.0
1702490764.3848193,6.0,-32.0,18.0,-3.0,-1.0,1.0,5.0,-1.0
1702490764.3848193,2.0,35.0,10.0,-1.0,1.0,-1.0,0.0,-2.0
1702490764.394618,-8.0,-49.0,2.0,-3.0,0.0,1.0,0.0,0.0
1702490764.394618,-6.0,41.0,15.0,8.0,3.0,-1.0,1.0,-1.0
1702490764.40483,-13.0,-23.0,-20.0,-3.0,-1.0,2.0,5.0,1.0
1702490764.40483,14.0,-20.0,-14.0,5.0,-1.0,-2.0,-3.0,3.0
1702490764.4246473,-14.0,13.0,25.0,2.0,1.0,-1.0,-4.0,-7.0
1702490764.4246473,0.0,-4.0,-1.0,-3.0,1.0,1.0,-1.0,4.0
1702490764.4246473,-3.0,3.0,7.0,-8.0,-1.0,-3.0,-4.0,0.0
1702490764.4246473,0.0,-16.0,-8.0,1.0,-1.0,0.0,9.0,2.0
1702490764.4446952,-11.0,28.0,-40.0,-6.0,-2.0,-5.0,-8.0,-3.0
1702490764.4446952,1.0,-5.0,11.0,-1.0,-6.0,-5.0,1.0,1.0
1702490764.4446952,15.0,24.0,-17.0,-2.0,3.0,0.0,-2.0,-1.0
1702490764.4446952,-14.0,-10.0,-29.0,1.0,2.0,2.0,-1.0,1.0
1702490764.4648373,9.0,-23.0,-27.0,0.0,-4.0,-7.0,-1.0,-2.0
1702490764.4648373,-2.0,-63.0,0.0,-14.0,-4.0,-1.0,-9.0,-1.0
1702490764.4648373,-7.0,0.0,13.0,11.0,-5.0,0.0,17.0,-5.0
1702490764.4648373,5.0,8.0,-6.0,-8.0,-1.0,-4.0,-6.0,-1.0
1702490764.484623,-9.0,-19.0,15.0,2.0,1.0,1.0,0.0,1.0
1702490764.484623,5.0,21.0,-3.0,-2.0,-5.0,-5.0,-5.0,1.0
1702490764.484623,-2.0,-18.0,-20.0,5.0,9.0,5.0,0.0,0.0
1702490764.484623,-11.0,1.0,6.0,1.0,-1.0,-3.0,8.0,-3.0
1702490764.5045474,4.0,24.0,10.0,-7.0,-4.0,-3.0,-2.0,-2.0
1702490764.5045474,4.0,11.0,-8.0,1.0,4.0,1.0,8.0,1.0
1702490764.5045474,-34.0,-9.0,9.0,-5.0,-6.0,-2.0,-11.0,-4.0
1702490764.5045474,-1.0,-4.0,2.0,1.0,3.0,-2.0,-20.0,-7.0
1702490764.5249043,10.0,9.0,5.0,7.0,4.0,1.0,27.0,6.0
1702490764.5249043,-10.0,11.0,-2.0,-1.0,-1.0,3.0,-2.0,1.0
1702490764.5249043,15.0,-65.0,-10.0,-7.0,-4.0,-4.0,-1.0,7.0
1702490764.5249043,-6.0,23.0,1.0,1.0,-1.0,0.0,-16.0,-8.0
1702490764.5445476,9.0,12.0,4.0,0.0,-6.0,-1.0,10.0,-7.0
1702490764.5445476,-13.0,-14.0,-6.0,1.0,1.0,-4.0,-25.0,-5.0
1702490764.5445476,-5.0,-16.0,-2.0,0.0,0.0,1.0,14.0,7.0
1702490764.5445476,2.0,22.0,-2.0,-2.0,-2.0,-2.0,-8.0,-6.0
1702490764.5645528,5.0,-53.0,25.0,0.0,-1.0,-2.0,-18.0,2.0
1702490764.5645528,-16.0,11.0,7.0,-1.0,0.0,1.0,14.0,0.0
1702490764.5645528,5.0,40.0,20.0,4.0,-3.0,-4.0,-3.0,-1.0
1702490764.5645528,-6.0,-21.0,-55.0,-27.0,-8.0,-2.0,4.0,1.0
1702490764.5846605,0.0,35.0,21.0,11.0,-6.0,0.0,-1.0,-1.0
1702490764.5846605,5.0,-14.0,44.0,10.0,-1.0,-2.0,3.0,-1.0
1702490764.5846605,-3.0,7.0,-55.0,-14.0,5.0,1.0,0.0,-3.0
1702490764.5846605,1.0,1.0,39.0,-4.0,-11.0,-1.0,0.0,0.0
1702490764.604612,2.0,9.0,18.0,-6.0,-5.0,-1.0,-7.0,-1.0
1702490764.604612,-1.0,11.0,-17.0,11.0,-2.0,1.0,-1.0,-3.0
1702490764.6345499,-1.0,31.0,11.0,-5.0,0.0,2.0,-5.0,-5.0
1702490764.6345499,7.0,-19.0,6.0,-14.0,-3.0,-6.0,6.0,1.0
1702490764.6345499,4.0,12.0,1.0,24.0,10.0,-1.0,-3.0,2.0
1702490764.6345499,-11.0,5.0,20.0,-4.0,0.0,2.0,2.0,-2.0
1702490764.6345499,26.0,18.0,-16.0,-19.0,-6.0,-1.0,1.0,-1.0
1702490764.6345499,3.0,-28.0,17.0,47.0,13.0,2.0,1.0,2.0
1702490764.6445494,2.0,18.0,-8.0,2.0,-4.0,0.0,-4.0,-1.0
1702490764.6445494,-7.0,4.0,2.0,-6.0,0.0,-1.0,-2.0,-1.0
1702490764.6445494,2.0,16.0,-1.0,-1.0,1.0,1.0,-5.0,-4.0
1702490764.6445494,-3.0,-3.0,-14.0,-7.0,-2.0,-2.0,6.0,0.0
1702490764.6645467,-6.0,8.0,8.0,-45.0,-16.0,-7.0,-7.0,-3.0
1702490764.6645467,10.0,13.0,-10.0,43.0,18.0,5.0,4.0,0.0
1702490764.6645467,4.0,-29.0,13.0,13.0,-9.0,-4.0,-1.0,0.0
1702490764.6645467,-20.0,69.0,13.0,-8.0,-3.0,-1.0,-2.0,-2.0
1702490764.6845546,2.0,-89.0,-41.0,-12.0,-3.0,-1.0,-3.0,-1.0
1702490764.6845546,-6.0,49.0,-8.0,-16.0,-13.0,-6.0,-2.0,-3.0
1702490764.6845546,-8.0,-7.0,19.0,1.0,9.0,6.0,0.0,0.0
1702490764.6845546,9.0,-28.0,-42.0,6.0,-5.0,0.0,-1.0,1.0
1702490764.7245498,7.0,18.0,12.0,6.0,2.0,-3.0,2.0,5.0
1702490764.7245498,5.0,32.0,-26.0,-15.0,0.0,-3.0,-3.0,2.0
1702490764.7245498,2.0,-76.0,1.0,5.0,0.0,0.0,0.0,-3.0
1702490764.7245498,-11.0,-3.0,-10.0,-13.0,-4.0,-5.0,-10.0,5.0
1702490764.7245498,28.0,46.0,-18.0,3.0,-1.0,3.0,14.0,-1.0
1702490764.7245498,5.0,-47.0,7.0,-11.0,-3.0,-2.0,-4.0,13.0
1702490764.7245498,-6.0,44.0,6.0,4.0,-2.0,-3.0,7.0,-5.0
1702490764.7345555,0.0,-17.0,6.0,-2.0,-3.0,-2.0,-3.0,-3.0
1702490764.7488303,0.0,-26.0,-1.0,-4.0,-1.0,-1.0,-10.0,-4.0
1702490764.749853,-23.0,-54.0,-14.0,-8.0,-1.0,-1.0,-6.0,-3.0
1702490764.7509773,-7.0,28.0,1.0,5.0,0.0,2.0,2.0,3.0
1702490764.75138,8.0,-1.0,-1.0,0.0,-1.0,0.0,1.0,2.0
1702490764.78806,-27.0,-14.0,-1.0,3.0,3.0,1.0,-5.0,-8.0
1702490764.78806,7.0,-25.0,-8.0,-5.0,-2.0,-3.0,1.0,-4.0
1702490764.78806,-11.0,-8.0,7.0,-7.0,-8.0,-4.0,-6.0,-2.0
1702490764.78806,5.0,-22.0,-16.0,6.0,4.0,0.0,3.0,-1.0
1702490764.78806,-12.0,-1.0,-46.0,0.0,3.0,1.0,-4.0,0.0
1702490764.78806,1.0,12.0,11.0,-7.0,-8.0,0.0,-1.0,-1.0
1702490764.78806,11.0,6.0,2.0,-6.0,2.0,-1.0,-4.0,-4.0
1702490764.78806,1.0,-7.0,6.0,0.0,0.0,0.0,-1.0,5.0
1702490764.8084605,-1.0,16.0,14.0,-3.0,-1.0,-1.0,-8.0,-6.0
1702490764.8084605,-1.0,6.0,-21.0,-1.0,-4.0,-2.0,1.0,-5.0
1702490764.8084605,-3.0,13.0,-3.0,1.0,0.0,-1.0,2.0,14.0
1702490764.8084605,1.0,-7.0,12.0,-5.0,-1.0,1.0,-4.0,-18.0
1702490764.828061,-6.0,1.0,5.0,0.0,3.0,-1.0,-3.0,3.0
1702490764.828061,12.0,0.0,2.0,-1.0,0.0,1.0,5.0,-4.0
1702490764.828061,-15.0,5.0,10.0,-5.0,-6.0,-4.0,-4.0,4.0
1702490764.828061,12.0,-97.0,-51.0,-8.0,1.0,-2.0,3.0,2.0
1702490764.845051,-2.0,59.0,21.0,3.0,-6.0,-2.0,0.0,1.0
1702490764.845051,15.0,46.0,10.0,3.0,-1.0,0.0,0.0,-1.0
1702490764.845051,-6.0,-2.0,-42.0,-5.0,-2.0,0.0,0.0,-6.0
1702490764.845051,-16.0,1.0,18.0,1.0,0.0,1.0,0.0,2.0
1702490764.8646944,15.0,-3.0,-18.0,-5.0,-2.0,-1.0,-4.0,-4.0
1702490764.8646944,-20.0,-16.0,-7.0,-2.0,1.0,0.0,3.0,0.0
1702490764.8646944,5.0,-9.0,4.0,4.0,-1.0,-2.0,-3.0,-2.0
1702490764.8646944,-8.0,31.0,21.0,-1.0,-4.0,-3.0,-1.0,-2.0
1702490764.8846896,26.0,-19.0,5.0,-2.0,2.0,0.0,-2.0,4.0
1702490764.8846896,-44.0,-3.0,-43.0,-3.0,-3.0,-1.0,2.0,-7.0
1702490764.8846896,-7.0,-20.0,3.0,-4.0,-4.0,-2.0,-4.0,-6.0
1702490764.8846896,9.0,39.0,-1.0,2.0,1.0,-2.0,-1.0,9.0
1702490764.9050121,-36.0,-35.0,47.0,7.0,1.0,0.0,1.0,-18.0
1702490764.9050121,25.0,40.0,-5.0,2.0,-3.0,0.0,7.0,8.0
1702490764.9050121,13.0,22.0,10.0,-7.0,0.0,1.0,1.0,-5.0
1702490764.9050121,-2.0,14.0,-41.0,1.0,-4.0,-2.0,-3.0,-5.0
1702490764.9346895,-2.0,0.0,14.0,0.0,5.0,1.0,-1.0,3.0
1702490764.9346895,4.0,-24.0,-13.0,-4.0,-3.0,-2.0,-3.0,2.0
1702490764.9346895,-6.0,-6.0,4.0,5.0,0.0,-1.0,-1.0,-3.0
1702490764.9346895,15.0,23.0,28.0,1.0,1.0,0.0,1.0,2.0
1702490764.9450324,-19.0,-9.0,-2.0,2.0,-3.0,-3.0,-3.0,-4.0
1702490764.9450324,14.0,-63.0,19.0,-2.0,-2.0,-1.0,-5.0,-5.0
1702490764.9450324,-5.0,-9.0,-20.0,-8.0,-3.0,-3.0,-2.0,4.0
1702490764.9450324,-2.0,42.0,15.0,-3.0,0.0,0.0,0.0,-3.0
1702490764.9650583,0.0,-19.0,-33.0,0.0,-2.0,0.0,0.0,0.0
1702490764.9650583,2.0,-1.0,42.0,-2.0,-1.0,-3.0,-7.0,1.0
1702490764.9650583,23.0,-8.0,-47.0,-6.0,-5.0,-2.0,-4.0,-9.0
1702490764.9650583,-4.0,-18.0,28.0,4.0,1.0,-1.0,-1.0,0.0
1702490764.9846954,3.0,5.0,4.0,6.0,2.0,0.0,9.0,2.0
1702490764.9846954,-2.0,13.0,-2.0,-4.0,-2.0,1.0,-7.0,-2.0
1702490764.9946916,5.0,13.0,6.0,5.0,0.0,-3.0,-2.0,-2.0
1702490764.9946916,-9.0,-28.0,10.0,1.0,1.0,3.0,2.0,0.0
1702490765.0046902,0.0,-51.0,4.0,-4.0,-3.0,-4.0,-6.0,5.0
1702490765.0046902,-1.0,-31.0,-8.0,-3.0,-2.0,-2.0,-11.0,-3.0
1702490765.0150154,-4.0,23.0,-42.0,5.0,1.0,2.0,7.0,6.0
1702490765.0150154,-3.0,-2.0,17.0,-3.0,-3.0,1.0,3.0,-1.0
1702490765.0250373,-6.0,-11.0,-49.0,-8.0,-4.0,-1.0,0.0,-1.0
1702490765.0250373,5.0,1.0,5.0,2.0,2.0,-4.0,-5.0,5.0
1702490765.0345523,2.0,0.0,20.0,2.0,-1.0,0.0,-5.0,-6.0
1702490765.0345523,3.0,13.0,8.0,-7.0,0.0,0.0,6.0,3.0
1702490765.0545614,-5.0,-16.0,-24.0,-1.0,-3.0,-2.0,-6.0,-1.0
1702490765.0545614,9.0,11.0,-3.0,-10.0,-2.0,-1.0,-9.0,-10.0
1702490765.0545614,-16.0,-2.0,17.0,0.0,-1.0,-3.0,-1.0,-3.0
1702490765.0545614,-3.0,-7.0,-23.0,-5.0,-6.0,-5.0,-4.0,-6.0
1702490765.0647304,3.0,9.0,15.0,0.0,1.0,0.0,-7.0,-2.0
1702490765.0647304,1.0,24.0,-8.0,4.0,1.0,-1.0,9.0,-1.0
1702490765.0647304,-6.0,-44.0,16.0,-2.0,-1.0,-1.0,1.0,2.0
1702490765.0647304,-11.0,26.0,-6.0,-2.0,-2.0,-4.0,-10.0,-9.0
1702490765.0846157,-10.0,26.0,-8.0,0.0,-1.0,-3.0,-4.0,1.0
1702490765.0846157,4.0,-8.0,36.0,5.0,4.0,1.0,-2.0,-2.0
1702490765.094569,27.0,15.0,-28.0,-7.0,-6.0,-2.0,8.0,2.0
1702490765.094569,-9.0,-81.0,11.0,-1.0,5.0,-1.0,-5.0,6.0
1702490765.134561,8.0,10.0,8.0,7.0,0.0,-2.0,-3.0,-14.0
1702490765.134561,-35.0,-32.0,-14.0,-2.0,-1.0,0.0,1.0,1.0
1702490765.134561,2.0,34.0,47.0,1.0,-2.0,-4.0,2.0,-9.0
1702490765.134561,6.0,-23.0,-10.0,-1.0,3.0,3.0,-6.0,10.0
1702490765.134561,10.0,2.0,4.0,-4.0,-1.0,-1.0,0.0,-7.0
1702490765.134561,-8.0,18.0,21.0,0.0,-1.0,-3.0,2.0,-3.0
1702490765.134561,-8.0,23.0,-60.0,-3.0,-1.0,-2.0,-3.0,5.0
1702490765.134561,-4.0,-4.0,-53.0,-5.0,-3.0,-2.0,5.0,-1.0
1702490765.1446893,-7.0,10.0,20.0,0.0,1.0,1.0,4.0,2.0
1702490765.1446893,0.0,14.0,-44.0,0.0,0.0,1.0,0.0,-3.0
1702490765.154564,-7.0,-15.0,29.0,-4.0,-2.0,0.0,-5.0,-6.0
1702490765.154564,6.0,40.0,25.0,6.0,-4.0,-4.0,-4.0,-2.0
1702490765.1647396,10.0,20.0,37.0,-6.0,-1.0,1.0,3.0,-5.0
1702490765.1647396,-4.0,1.0,-34.0,0.0,-1.0,-1.0,5.0,10.0
1702490765.1647396,-1.0,-19.0,13.0,-10.0,-2.0,-1.0,-7.0,-12.0
1702490765.1647396,-24.0,-30.0,6.0,3.0,-4.0,-2.0,0.0,-3.0
1702490765.1845672,32.0,40.0,28.0,5.0,6.0,1.0,3.0,4.0
1702490765.1845672,0.0,-6.0,17.0,7.0,-1.0,0.0,1.0,12.0
1702490765.1845672,-19.0,-3.0,-5.0,0.0,1.0,-3.0,-16.0,-11.0
1702490765.1845672,9.0,-3.0,8.0,-7.0,-4.0,0.0,6.0,-9.0
1702490765.2046213,-21.0,9.0,-26.0,-8.0,-4.0,-1.0,-2.0,6.0
1702490765.2046213,31.0,43.0,4.0,-5.0,-1.0,-7.0,4.0,2.0
1702490765.2046213,-4.0,-12.0,-3.0,2.0,-1.0,5.0,9.0,3.0
1702490765.2046213,-15.0,14.0,1.0,-4.0,0.0,-3.0,-9.0,-5.0
1702490765.2445621,-6.0,-22.0,-11.0,2.0,-1.0,1.0,4.0,-2.0
1702490765.2445621,-25.0,4.0,-11.0,-5.0,0.0,1.0,1.0,-7.0
1702490765.2445621,-25.0,-15.0,22.0,6.0,-1.0,-4.0,-12.0,-2.0
1702490765.2445621,9.0,8.0,-3.0,3.0,3.0,-1.0,10.0,0.0
1702490765.2445621,21.0,23.0,-12.0,-4.0,-4.0,1.0,-7.0,12.0
1702490765.2445621,-8.0,-22.0,1.0,0.0,-2.0,-3.0,-2.0,-2.0
1702490765.2445621,7.0,27.0,8.0,1.0,1.0,-2.0,-10.0,-9.0
1702490765.2445621,-13.0,7.0,-6.0,0.0,-2.0,-1.0,9.0,0.0
1702490765.2647173,0.0,9.0,-8.0,3.0,0.0,1.0,11.0,1.0
1702490765.2647173,-11.0,-8.0,-1.0,-8.0,-1.0,-1.0,-9.0,-7.0
1702490765.2821386,-2.0,-17.0,3.0,-1.0,-1.0,-6.0,8.0,7.0
1702490765.2821386,34.0,-17.0,-8.0,2.0,5.0,6.0,-2.0,3.0
1702490765.2884817,-12.0,20.0,5.0,-3.0,-1.0,-5.0,-7.0,-8.0
1702490765.2884817,9.0,-7.0,16.0,2.0,-4.0,0.0,3.0,-7.0
1702490765.2904892,-9.0,13.0,-17.0,3.0,1.0,2.0,-1.0,2.0
1702490765.2904892,11.0,15.0,13.0,-2.0,-3.0,-1.0,5.0,2.0
1702490765.3112502,7.0,-10.0,2.0,0.0,1.0,-2.0,-6.0,3.0
1702490765.3112502,1.0,-3.0,-13.0,-6.0,-5.0,1.0,8.0,5.0
1702490765.3112502,3.0,-1.0,-6.0,-1.0,0.0,1.0,-4.0,1.0
1702490765.3112502,-14.0,13.0,-1.0,3.0,-1.0,-1.0,-7.0,-12.0
1702490765.3211715,-3.0,-32.0,11.0,0.0,-1.0,3.0,3.0,4.0
1702490765.3211715,3.0,32.0,25.0,-1.0,-4.0,-2.0,-1.0,3.0
1702490765.3408592,0.0,-28.0,-17.0,-4.0,-3.0,-1.0,1.0,-2.0
1702490765.3408592,-2.0,-1.0,3.0,-4.0,-1.0,-4.0,-7.0,4.0
1702490765.3408592,-14.0,-33.0,-12.0,-2.0,0.0,-1.0,0.0,0.0
1702490765.3408592,19.0,33.0,-5.0,6.0,3.0,0.0,-3.0,-16.0
1702490765.3508673,-21.0,-6.0,11.0,0.0,0.0,0.0,4.0,9.0
1702490765.3508673,2.0,-16.0,-5.0,-1.0,-3.0,-2.0,-3.0,-4.0
1702490765.3709319,-10.0,-8.0,-5.0,-3.0,-2.0,-1.0,-5.0,-3.0
1702490765.3709319,20.0,-37.0,7.0,0.0,-1.0,-1.0,-1.0,2.0
1702490765.3709319,0.0,42.0,-3.0,3.0,-1.0,-2.0,0.0,5.0
1702490765.3709319,-15.0,-19.0,-13.0,-5.0,-3.0,-3.0,3.0,-6.0
1702490765.4008608,25.0,-20.0,-7.0,-4.0,-3.0,-4.0,-2.0,-1.0
1702490765.4008608,-24.0,3.0,-6.0,2.0,-1.0,-2.0,-4.0,-1.0
1702490765.4008608,8.0,-24.0,-12.0,-3.0,-4.0,-2.0,-8.0,0.0
1702490765.4008608,1.0,10.0,-3.0,-4.0,0.0,0.0,-1.0,-3.0
1702490765.4008608,-16.0,32.0,6.0,-2.0,-2.0,-1.0,-1.0,4.0
1702490765.4008608,-8.0,-30.0,-9.0,-2.0,-2.0,-2.0,3.0,-6.0
1702490765.4108653,9.0,-1.0,20.0,3.0,2.0,0.0,-4.0,3.0
1702490765.4108653,1.0,-1.0,-34.0,2.0,0.0,-1.0,2.0,3.0
1702490765.430925,-4.0,-4.0,-8.0,-2.0,-1.0,0.0,4.0,-7.0
1702490765.430925,-8.0,18.0,1.0,-4.0,-1.0,-2.0,-8.0,0.0
1702490765.430925,-4.0,-29.0,10.0,3.0,-2.0,-1.0,2.0,1.0
1702490765.430925,2.0,-4.0,-6.0,-1.0,1.0,2.0,-3.0,-1.0
1702490765.450859,-7.0,13.0,4.0,2.0,-1.0,-2.0,2.0,-5.0
1702490765.450859,15.0,-17.0,-9.0,-4.0,-1.0,1.0,-8.0,5.0
1702490765.450859,4.0,5.0,15.0,4.0,3.0,1.0,11.0,1.0
1702490765.450859,-13.0,-7.0,3.0,1.0,-1.0,-2.0,-3.0,-2.0
1702490765.4612107,8.0,-36.0,-1.0,1.0,-1.0,-4.0,-3.0,-1.0
1702490765.4612107,14.0,26.0,7.0,-1.0,1.0,-1.0,1.0,2.0
1702490765.4708622,6.0,15.0,-3.0,-6.0,-5.0,-4.0,0.0,-6.0
1702490765.4708622,-13.0,1.0,8.0,2.0,3.0,4.0,-11.0,9.0
1702490765.4909165,35.0,0.0,-11.0,-2.0,-2.0,-4.0,-7.0,4.0
1702490765.4909165,-19.0,-22.0,-3.0,-1.0,-1.0,0.0,7.0,-12.0
1702490765.4909165,-11.0,57.0,1.0,-1.0,0.0,-2.0,-1.0,-6.0
1702490765.4909165,-10.0,74.0,39.0,-1.0,-3.0,-3.0,2.0,2.0
1702490765.510895,-8.0,-42.0,-18.0,-2.0,-4.0,-1.0,-3.0,-4.0
1702490765.510895,8.0,14.0,-45.0,3.0,2.0,0.0,-6.0,1.0
1702490765.510895,4.0,-11.0,6.0,4.0,0.0,2.0,-8.0,2.0
1702490765.510895,13.0,7.0,19.0,0.0,-1.0,-1.0,0.0,-3.0
1702490765.520935,-14.0,22.0,25.0,-2.0,0.0,-2.0,-7.0,-2.0
1702490765.520935,-1.0,-8.0,-4.0,0.0,1.0,-3.0,4.0,-4.0
1702490765.5308623,-10.0,-28.0,-32.0,-5.0,-2.0,-2.0,-1.0,-3.0
1702490765.5308623,14.0,-18.0,-13.0,2.0,-1.0,-1.0,-1.0,1.0
1702490765.5509121,-11.0,4.0,27.0,4.0,-1.0,1.0,1.0,-4.0
1702490765.5509121,-21.0,-24.0,-40.0,-12.0,-4.0,-1.0,-5.0,0.0
1702490765.5509121,10.0,15.0,31.0,1.0,-1.0,-2.0,-3.0,-1.0
1702490765.5509121,2.0,-45.0,-55.0,-9.0,-4.0,-6.0,5.0,2.0
1702490765.571054,1.0,47.0,-2.0,0.0,-2.0,0.0,-6.0,-8.0
1702490765.571054,1.0,-31.0,22.0,1.0,-1.0,0.0,-3.0,0.0
1702490765.571054,-4.0,-7.0,-3.0,-2.0,0.0,-1.0,1.0,2.0
1702490765.571054,2.0,-3.0,9.0,-1.0,-2.0,-2.0,-1.0,3.0
1702490765.5810833,-11.0,-10.0,-31.0,-3.0,1.0,0.0,-10.0,-8.0
1702490765.5810833,-2.0,13.0,5.0,2.0,-2.0,0.0,14.0,2.0
1702490765.5910313,11.0,-11.0,22.0,-2.0,-1.0,0.0,0.0,-1.0
1702490765.5910313,-1.0,-3.0,-2.0,1.0,-2.0,-2.0,-15.0,-1.0
1702490765.620864,-11.0,-4.0,3.0,-2.0,-2.0,-5.0,5.0,0.0
1702490765.620864,-5.0,2.0,13.0,3.0,2.0,1.0,-20.0,-6.0
1702490765.620864,-4.0,-19.0,-17.0,-4.0,-5.0,-1.0,22.0,3.0
1702490765.620864,5.0,7.0,2.0,2.0,0.0,-2.0,-6.0,-3.0
1702490765.6308956,20.0,9.0,-2.0,0.0,-1.0,-4.0,12.0,4.0
1702490765.6308956,-1.0,-2.0,-2.0,0.0,1.0,0.0,8.0,2.0
1702490765.6308956,2.0,-5.0,-3.0,3.0,-3.0,-3.0,-9.0,-4.0
1702490765.6308956,12.0,3.0,0.0,-3.0,0.0,-1.0,1.0,-1.0
1702490765.641209,5.0,-7.0,-3.0,1.0,-1.0,2.0,11.0,0.0
1702490765.641209,-2.0,2.0,4.0,-4.0,-1.0,0.0,-17.0,4.0
1702490765.6511347,-9.0,-3.0,-7.0,2.0,3.0,6.0,17.0,-5.0
1702490765.6511347,5.0,-34.0,3.0,-2.0,-3.0,1.0,10.0,0.0
1702490765.670894,-13.0,-33.0,-10.0,-8.0,-4.0,-3.0,2.0,-1.0
1702490765.670894,9.0,11.0,25.0,-1.0,0.0,-1.0,0.0,1.0
1702490765.6808658,-16.0,-7.0,-4.0,4.0,0.0,1.0,-5.0,0.0
1702490765.6808658,-2.0,-4.0,-59.0,-9.0,0.0,0.0,-9.0,-11.0
1702490765.6908655,-14.0,-2.0,5.0,-3.0,2.0,-2.0,2.0,0.0
1702490765.6908655,-5.0,-27.0,11.0,1.0,-3.0,-4.0,-4.0,-3.0
1702490765.6908655,13.0,12.0,-52.0,-9.0,-4.0,-2.0,-4.0,5.0
1702490765.6908655,-22.0,-19.0,-5.0,-2.0,-1.0,0.0,2.0,-3.0
1702490765.7010095,-1.0,12.0,17.0,7.0,2.0,0.0,-8.0,0.0
1702490765.7010095,2.0,-13.0,-5.0,-4.0,0.0,-1.0,4.0,0.0
1702490765.711078,14.0,2.0,10.0,-3.0,-3.0,-3.0,-9.0,-4.0
1702490765.711078,-9.0,28.0,39.0,1.0,0.0,-1.0,1.0,-1.0
1702490765.7408633,-6.0,10.0,-22.0,3.0,-3.0,-3.0,-7.0,-4.0
1702490765.7408633,-3.0,-2.0,-4.0,-1.0,-1.0,-1.0,2.0,-1.0
1702490765.7408633,-1.0,-5.0,-7.0,-6.0,-1.0,-1.0,-1.0,-3.0
1702490765.7408633,-1.0,2.0,-16.0,2.0,-1.0,2.0,1.0,1.0
1702490765.7510319,5.0,3.0,15.0,-4.0,1.0,-4.0,5.0,2.0
1702490765.7510319,-7.0,-6.0,-10.0,-4.0,-6.0,1.0,3.0,-3.0
1702490765.7510319,7.0,13.0,-3.0,-4.0,0.0,-1.0,-5.0,2.0
1702490765.7510319,-37.0,-43.0,18.0,3.0,1.0,-4.0,-3.0,1.0
1702490765.770863,-8.0,17.0,8.0,1.0,-1.0,2.0,1.0,-2.0
1702490765.770863,8.0,15.0,-8.0,-3.0,0.0,-1.0,2.0,0.0
1702490765.7808611,4.0,0.0,9.0,3.0,-3.0,-1.0,-3.0,1.0
1702490765.7808611,1.0,15.0,36.0,-1.0,-5.0,-1.0,-5.0,0.0
1702490765.791243,0.0,1.0,-66.0,-5.0,-2.0,-1.0,-3.0,7.0
1702490765.791243,-10.0,-14.0,-22.0,-7.0,-2.0,-1.0,-2.0,-11.0
1702490765.791243,-3.0,1.0,27.0,6.0,3.0,1.0,0.0,-7.0
1702490765.791243,18.0,12.0,2.0,2.0,2.0,-3.0,2.0,0.0
1702490765.813815,-1.0,-35.0,-14.0,-11.0,-6.0,-2.0,-1.0,1.0
1702490765.8144662,6.0,55.0,31.0,17.0,9.0,6.0,-2.0,6.0
1702490765.8154879,-5.0,12.0,22.0,4.0,-2.0,-4.0,-2.0,-3.0
1702490765.8154879,3.0,-4.0,24.0,-13.0,-2.0,-1.0,-3.0,-2.0
1702490765.8350363,-2.0,-71.0,21.0,6.0,1.0,-3.0,-2.0,-5.0
1702490765.8350363,15.0,-36.0,-8.0,-20.0,-12.0,-7.0,0.0,4.0
1702490765.8350363,-63.0,-22.0,25.0,16.0,10.0,5.0,-2.0,-9.0
1702490765.8350363,11.0,2.0,-20.0,2.0,0.0,1.0,2.0,2.0
1702490765.851394,-13.0,71.0,-10.0,-7.0,-4.0,0.0,-4.0,-1.0
1702490765.851394,3.0,12.0,-5.0,-4.0,0.0,-1.0,1.0,-1.0
1702490765.851394,12.0,-44.0,-20.0,-1.0,-7.0,-5.0,-5.0,-2.0
1702490765.851394,-3.0,47.0,26.0,-9.0,-4.0,-2.0,-3.0,-3.0
1702490765.8717577,-4.0,-20.0,-20.0,-3.0,1.0,2.0,-4.0,-1.0
1702490765.8717577,-19.0,-8.0,-4.0,-5.0,-3.0,-2.0,11.0,0.0
1702490765.8717577,2.0,-5.0,-5.0,-8.0,-1.0,1.0,2.0,3.0
1702490765.8717577,5.0,2.0,-20.0,10.0,3.0,1.0,7.0,1.0
1702490765.9117746,20.0,33.0,53.0,-2.0,-3.0,-2.0,-10.0,-1.0
1702490765.9117746,-16.0,24.0,-10.0,3.0,0.0,1.0,7.0,1.0
1702490765.9117746,12.0,33.0,19.0,-4.0,-6.0,-4.0,-3.0,2.0
1702490765.9117746,-13.0,10.0,-12.0,-1.0,-4.0,0.0,-8.0,-10.0
1702490765.9117746,-5.0,-12.0,-4.0,-1.0,-3.0,1.0,7.0,3.0
1702490765.9117746,0.0,-17.0,4.0,5.0,4.0,-1.0,-4.0,6.0
1702490765.9117746,5.0,-9.0,-4.0,-1.0,0.0,-3.0,-14.0,-11.0
1702490765.9117746,-26.0,-22.0,-7.0,-1.0,-2.0,-4.0,11.0,-5.0
1702490765.9321735,-10.0,18.0,-25.0,-3.0,-5.0,-3.0,1.0,-6.0
1702490765.9321735,13.0,20.0,22.0,8.0,5.0,3.0,-6.0,1.0
1702490765.9321735,-1.0,-40.0,-53.0,-12.0,-3.0,0.0,14.0,0.0
1702490765.9321735,-2.0,-4.0,11.0,4.0,4.0,1.0,-10.0,2.0
1702490765.9517748,1.0,-23.0,-7.0,0.0,-4.0,-3.0,-3.0,-4.0
1702490765.9517748,-1.0,10.0,7.0,-1.0,-3.0,-5.0,-1.0,-2.0
1702490765.9517748,-4.0,-15.0,2.0,-2.0,-2.0,-2.0,-8.0,1.0
1702490765.9517748,22.0,32.0,-15.0,2.0,2.0,0.0,-1.0,-3.0
1702490765.9620883,-3.0,7.0,13.0,8.0,3.0,0.0,4.0,1.0
1702490765.9620883,4.0,21.0,-4.0,-5.0,-7.0,-6.0,-5.0,-8.0
1702490765.971777,5.0,-8.0,14.0,-5.0,-2.0,0.0,6.0,3.0
1702490765.971777,6.0,1.0,12.0,8.0,0.0,-2.0,1.0,1.0
1702490766.0017734,-4.0,15.0,7.0,-5.0,3.0,0.0,-3.0,-3.0
1702490766.0017734,-15.0,16.0,19.0,9.0,0.0,1.0,-5.0,-1.0
1702490766.0017734,24.0,20.0,-75.0,-2.0,-1.0,-3.0,0.0,1.0
1702490766.0017734,-5.0,-2.0,59.0,-7.0,-4.0,-2.0,0.0,0.0
1702490766.0017734,23.0,-6.0,-36.0,0.0,2.0,0.0,-4.0,1.0
1702490766.0017734,-17.0,-20.0,-15.0,-5.0,-4.0,-2.0,-8.0,-9.0
1702490766.0120022,-12.0,15.0,48.0,2.0,0.0,-3.0,7.0,7.0
1702490766.0120022,21.0,-31.0,-30.0,-2.0,-1.0,1.0,-10.0,-10.0
1702490766.031775,-6.0,7.0,13.0,0.0,-2.0,-1.0,0.0,1.0
1702490766.031775,14.0,12.0,8.0,-7.0,-6.0,-2.0,1.0,6.0
1702490766.031775,10.0,9.0,9.0,-2.0,-1.0,-1.0,-3.0,-3.0
1702490766.031775,3.0,3.0,0.0,1.0,-2.0,-3.0,3.0,8.0
1702490766.0516574,-6.0,-12.0,13.0,-2.0,1.0,-3.0,3.0,-1.0
1702490766.0516574,-6.0,-28.0,-18.0,3.0,3.0,4.0,2.0,-3.0
1702490766.061665,-16.0,24.0,5.0,-1.0,-2.0,-2.0,-14.0,-4.0
1702490766.061665,9.0,-19.0,-8.0,-4.0,-1.0,-8.0,-21.0,5.0
1702490766.061665,6.0,5.0,-2.0,-3.0,-6.0,-3.0,44.0,-11.0
1702490766.061665,28.0,-8.0,-11.0,0.0,2.0,3.0,-2.0,11.0
1702490766.071999,-51.0,-9.0,6.0,1.0,3.0,-3.0,-17.0,-6.0
1702490766.071999,-22.0,-14.0,-17.0,-6.0,-10.0,-1.0,32.0,-6.0
1702490766.0917134,-11.0,7.0,-3.0,0.0,1.0,4.0,-59.0,3.0
1702490766.0917134,16.0,-3.0,5.0,5.0,3.0,-2.0,6.0,-1.0
1702490766.0917134,6.0,-7.0,7.0,-2.0,-3.0,2.0,6.0,-4.0
1702490766.0917134,1.0,24.0,-10.0,3.0,1.0,-7.0,-13.0,0.0
1702490766.1216657,-7.0,-23.0,24.0,3.0,4.0,4.0,-6.0,3.0
1702490766.1216657,-16.0,-11.0,-30.0,-4.0,-3.0,-3.0,31.0,-4.0
1702490766.1216657,16.0,-23.0,-7.0,-6.0,-1.0,0.0,-13.0,-2.0
1702490766.1216657,-6.0,41.0,-6.0,-2.0,0.0,4.0,-2.0,3.0
1702490766.1216657,6.0,4.0,8.0,3.0,-2.0,-3.0,-6.0,5.0
1702490766.1216657,-15.0,-77.0,-2.0,-3.0,-3.0,-1.0,-7.0,-8.0
1702490766.1316988,19.0,92.0,11.0,1.0,-3.0,-1.0,11.0,2.0
1702490766.1316988,-13.0,39.0,-2.0,5.0,2.0,2.0,1.0,-1.0
1702490766.1516702,-12.0,-34.0,-63.0,-13.0,-3.0,-3.0,5.0,-3.0
1702490766.1516702,-5.0,-25.0,-15.0,6.0,-2.0,-3.0,-11.0,-5.0
1702490766.1516702,2.0,-15.0,3.0,-14.0,-5.0,-2.0,-2.0,3.0
1702490766.1516702,-11.0,18.0,36.0,15.0,1.0,5.0,4.0,3.0
1702490766.1916661,10.0,66.0,20.0,-3.0,-2.0,-2.0,1.0,-2.0
1702490766.1916661,-17.0,-13.0,0.0,0.0,-1.0,-5.0,-8.0,-3.0
1702490766.1916661,1.0,-22.0,-78.0,-1.0,0.0,1.0,6.0,-2.0
1702490766.1916661,15.0,-15.0,-22.0,-15.0,-1.0,0.0,-2.0,0.0
1702490766.201667,6.0,-26.0,32.0,9.0,5.0,2.0,7.0,1.0
1702490766.201667,-27.0,28.0,10.0,-9.0,-6.0,-1.0,-7.0,-5.0
1702490766.201667,-8.0,10.0,58.0,4.0,-3.0,-1.0,2.0,3.0
1702490766.201667,18.0,-47.0,-51.0,-3.0,3.0,0.0,-3.0,-7.0
1702490766.2116694,-1.0,5.0,10.0,2.0,-2.0,-4.0,-1.0,1.0
1702490766.2116694,12.0,5.0,-3.0,-6.0,-3.0,0.0,-2.0,-1.0
1702490766.2116694,7.0,6.0,8.0,6.0,5.0,3.0,3.0,-1.0
1702490766.2116694,-20.0,-6.0,24.0,5.0,-4.0,-2.0,0.0,0.0
1702490766.2316644,5.0,-33.0,-65.0,-13.0,-7.0,-3.0,1.0,-4.0
1702490766.2316644,-5.0,42.0,-20.0,-1.0,4.0,-1.0,-3.0,7.0
1702490766.2316644,8.0,-42.0,-24.0,-2.0,-3.0,-2.0,6.0,-6.0
1702490766.2316644,-11.0,-7.0,16.0,-4.0,-3.0,-3.0,-4.0,-10.0
1702490766.242041,19.0,-4.0,24.0,5.0,1.0,2.0,-9.0,3.0
1702490766.242041,-2.0,46.0,41.0,1.0,-2.0,2.0,20.0,2.0
1702490766.251963,-4.0,-35.0,9.0,5.0,-1.0,1.0,-2.0,4.0
1702490766.251963,7.0,32.0,-9.0,-6.0,0.0,2.0,4.0,3.0
1702490766.2620146,-21.0,-30.0,64.0,3.0,-5.0,-4.0,-8.0,-5.0
1702490766.2716713,17.0,12.0,-95.0,-14.0,0.0,-5.0,-22.0,-2.0
1702490766.2716713,-10.0,-51.0,6.0,-1.0,1.0,1.0,11.0,-2.0
1702490766.2716713,4.0,9.0,14.0,-11.0,-4.0,-3.0,-3.0,-13.0
1702490766.292008,-19.0,22.0,39.0,25.0,8.0,3.0,6.0,0.0
1702490766.292008,6.0,-24.0,6.0,0.0,0.0,2.0,-5.0,1.0
1702490766.292008,-3.0,21.0,7.0,-9.0,-4.0,-5.0,1.0,-6.0
1702490766.292008,3.0,-11.0,-37.0,-6.0,1.0,0.0,-7.0,7.0
1702490766.3019617,-1.0,26.0,0.0,-3.0,-1.0,-4.0,3.0,4.0
1702490766.3019617,1.0,-10.0,22.0,4.0,3.0,-1.0,0.0,-9.0
1702490766.3119977,-2.0,-8.0,-40.0,-8.0,-2.0,-2.0,-5.0,-3.0
1702490766.3119977,3.0,6.0,13.0,7.0,-3.0,-2.0,4.0,4.0
1702490766.3330314,-7.0,23.0,-33.0,-14.0,-3.0,-2.0,-7.0,0.0
1702490766.3330314,15.0,2.0,12.0,11.0,0.0,-3.0,-4.0,-10.0
1702490766.3330314,0.0,-50.0,18.0,-3.0,2.0,0.0,0.0,-3.0
1702490766.3330314,0.0,-12.0,-22.0,5.0,-2.0,-2.0,2.0,0.0
1702490766.3524282,-2.0,-5.0,1.0,-11.0,-4.0,-2.0,-2.0,2.0
1702490766.3524282,2.0,-1.0,1.0,8.0,2.0,1.0,7.0,-6.0
1702490766.3524282,-6.0,28.0,36.0,0.0,-4.0,-7.0,-9.0,-7.0
1702490766.3524282,4.0,-32.0,-36.0,-3.0,-1.0,2.0,4.0,26.0
1702490766.376759,3.0,-17.0,-20.0,-1.0,1.0,-2.0,-31.0,-19.0
1702490766.376759,-44.0,-27.0,18.0,-7.0,-5.0,0.0,46.0,15.0
1702490766.3787563,16.0,13.0,-4.0,5.0,-3.0,0.0,1.0,-20.0
1702490766.3787563,-6.0,-22.0,31.0,2.0,-1.0,-4.0,-29.0,-21.0
1702490766.3902404,-11.0,-2.0,-42.0,-8.0,-5.0,5.0,52.0,25.0
1702490766.3902404,17.0,13.0,50.0,0.0,-2.0,-6.0,-17.0,2.0
1702490766.3902404,-9.0,10.0,36.0,9.0,3.0,4.0,11.0,2.0
1702490766.3902404,-10.0,-12.0,-51.0,-14.0,-2.0,1.0,-6.0,14.0
1702490766.4202337,-17.0,7.0,41.0,6.0,-2.0,-4.0,-22.0,-33.0
1702490766.4202337,9.0,-7.0,-17.0,-10.0,-4.0,-3.0,-9.0,-1.0
1702490766.4202337,7.0,19.0,19.0,5.0,1.0,0.0,12.0,13.0
1702490766.4202337,27.0,16.0,43.0,6.0,1.0,1.0,-8.0,-13.0
1702490766.430596,3.0,-13.0,-32.0,-5.0,0.0,4.0,-4.0,1.0
1702490766.430596,-9.0,18.0,4.0,2.0,1.0,3.0,16.0,11.0
1702490766.430596,28.0,18.0,18.0,0.0,-2.0,-4.0,-28.0,2.0
1702490766.430596,-5.0,-15.0,-46.0,-6.0,-3.0,-1.0,20.0,-4.0
1702490766.4502337,-4.0,-18.0,-14.0,-10.0,0.0,-7.0,-14.0,-3.0
1702490766.4502337,-2.0,-16.0,39.0,9.0,-2.0,4.0,6.0,-6.0
1702490766.4502337,-11.0,11.0,-40.0,-1.0,3.0,6.0,-3.0,3.0
1702490766.4502337,-5.0,-6.0,19.0,1.0,1.0,-1.0,0.0,-3.0
1702490766.4706264,-3.0,-9.0,4.0,2.0,-1.0,-5.0,11.0,2.0
1702490766.4706264,2.0,-5.0,-8.0,-5.0,-6.0,-5.0,-20.0,-6.0
1702490766.4706264,-1.0,42.0,-3.0,-10.0,-2.0,-6.0,-1.0,4.0
1702490766.4706264,-6.0,-59.0,-15.0,16.0,1.0,-2.0,11.0,-1.0
1702490766.4905508,8.0,36.0,-1.0,-6.0,-7.0,0.0,-1.0,2.0
1702490766.4905508,3.0,-29.0,-36.0,-1.0,6.0,1.0,-8.0,-4.0
1702490766.4905508,-31.0,1.0,-11.0,-2.0,-3.0,3.0,1.0,4.0
1702490766.4905508,20.0,10.0,-16.0,-12.0,-1.0,-3.0,-2.0,-3.0
1702490766.5102327,22.0,17.0,-34.0,-13.0,-5.0,-1.0,4.0,3.0
1702490766.5102327,-12.0,0.0,11.0,12.0,-1.0,-3.0,-19.0,-4.0
1702490766.5102327,-30.0,-70.0,-23.0,-1.0,-1.0,-1.0,1.0,-2.0
1702490766.5102327,17.0,15.0,50.0,-3.0,-1.0,-2.0,9.0,-1.0
1702490766.530233,-3.0,-30.0,20.0,6.0,0.0,0.0,1.0,0.0
1702490766.530233,5.0,4.0,-3.0,-7.0,0.0,3.0,-3.0,-1.0
1702490766.530233,-6.0,-34.0,-16.0,-1.0,-3.0,-6.0,-5.0,10.0
1702490766.530233,-17.0,-11.0,18.0,5.0,-1.0,-2.0,-27.0,-19.0
1702490766.5504813,1.0,4.0,-2.0,6.0,1.0,3.0,22.0,3.0
1702490766.5504813,5.0,1.0,6.0,-4.0,-1.0,-3.0,1.0,0.0
1702490766.5504813,-3.0,8.0,2.0,0.0,0.0,2.0,-10.0,3.0
1702490766.5504813,-1.0,24.0,-4.0,-7.0,-3.0,-8.0,14.0,-13.0
1702490766.5702665,-9.0,5.0,8.0,3.0,0.0,3.0,-10.0,-5.0
1702490766.5702665,1.0,-2.0,-13.0,-6.0,0.0,-3.0,0.0,8.0
1702490766.5702665,10.0,6.0,-6.0,3.0,-5.0,0.0,-7.0,-5.0
1702490766.5702665,-16.0,-24.0,-13.0,-3.0,-3.0,-2.0,17.0,-5.0
1702490766.5905406,9.0,4.0,16.0,3.0,0.0,-2.0,-2.0,-1.0
1702490766.5905406,-3.0,-5.0,4.0,1.0,-2.0,-1.0,2.0,-20.0
1702490766.5905406,8.0,41.0,24.0,-1.0,-1.0,-3.0,-13.0,-2.0
1702490766.5905406,-17.0,14.0,-15.0,-7.0,-5.0,0.0,8.0,3.0
1702490766.6302345,5.0,28.0,18.0,9.0,6.0,5.0,10.0,2.0
1702490766.6302345,-1.0,-5.0,6.0,-1.0,-3.0,-1.0,-3.0,9.0
1702490766.6302345,16.0,35.0,25.0,9.0,3.0,-1.0,-1.0,2.0
1702490766.6302345,-18.0,-55.0,-14.0,-10.0,-2.0,2.0,-14.0,-3.0
1702490766.6302345,-4.0,-6.0,46.0,1.0,2.0,0.0,-1.0,5.0
1702490766.6302345,-1.0,22.0,-22.0,-9.0,-4.0,-3.0,-8.0,-6.0
1702490766.6302345,8.0,6.0,14.0,-3.0,-4.0,-2.0,8.0,-3.0
1702490766.6302345,-10.0,53.0,19.0,-4.0,-4.0,-1.0,1.0,10.0
1702490766.6502323,6.0,0.0,-25.0,-6.0,-4.0,-5.0,-8.0,-2.0
1702490766.6502323,-3.0,-29.0,-16.0,-6.0,0.0,-4.0,1.0,2.0
1702490766.6502323,-5.0,12.0,0.0,-2.0,-3.0,-3.0,-4.0,-7.0
1702490766.6502323,7.0,-15.0,10.0,2.0,5.0,2.0,-2.0,5.0
1702490766.6702328,-10.0,-6.0,-23.0,-20.0,-7.0,-2.0,3.0,-1.0
1702490766.6702328,5.0,54.0,15.0,21.0,3.0,0.0,0.0,-3.0
1702490766.6702328,8.0,12.0,6.0,8.0,3.0,0.0,2.0,1.0
1702490766.6702328,-11.0,37.0,-10.0,0.0,1.0,-1.0,-3.0,6.0
1702490766.690653,17.0,-2.0,-30.0,7.0,6.0,3.0,-6.0,-2.0
1702490766.690653,-26.0,-14.0,-46.0,-19.0,-8.0,-5.0,-3.0,-1.0
1702490766.690653,-4.0,8.0,11.0,0.0,0.0,2.0,5.0,-2.0
1702490766.690653,-1.0,-40.0,26.0,9.0,-1.0,-1.0,-7.0,8.0
1702490766.7106853,1.0,20.0,-5.0,2.0,-7.0,-2.0,-2.0,-5.0
1702490766.7106853,16.0,-44.0,5.0,3.0,1.0,1.0,0.0,1.0
1702490766.7106853,4.0,9.0,2.0,2.0,-1.0,-5.0,-7.0,3.0
1702490766.7106853,3.0,7.0,-17.0,-4.0,2.0,2.0,-4.0,-7.0
1702490766.7302353,5.0,-14.0,11.0,2.0,-3.0,-2.0,2.0,5.0
1702490766.7302353,7.0,-18.0,26.0,-7.0,0.0,1.0,-16.0,-2.0
1702490766.7302353,-8.0,-32.0,-35.0,-5.0,1.0,1.0,10.0,-1.0
1702490766.7302353,10.0,62.0,24.0,-5.0,-3.0,-4.0,5.0,6.0
1702490766.7505686,-2.0,-59.0,31.0,-4.0,-6.0,-5.0,-3.0,-12.0
1702490766.7505686,-1.0,-20.0,-15.0,6.0,-1.0,0.0,-8.0,1.0
1702490766.7505686,-3.0,-4.0,-10.0,-10.0,0.0,0.0,3.0,-4.0
1702490766.7505686,1.0,28.0,17.0,19.0,4.0,4.0,15.0,-4.0
1702490766.770607,-7.0,-16.0,-39.0,-11.0,-3.0,-2.0,-10.0,8.0
1702490766.770607,32.0,50.0,22.0,-1.0,-2.0,-1.0,-7.0,0.0
1702490766.770607,-11.0,-43.0,-34.0,-7.0,-1.0,2.0,-2.0,-13.0
1702490766.770607,6.0,-18.0,-5.0,-6.0,-6.0,-4.0,-9.0,-3.0
1702490766.7902331,-11.0,11.0,14.0,10.0,2.0,-3.0,-10.0,-6.0
1702490766.7902331,10.0,-1.0,-16.0,-3.0,2.0,-3.0,15.0,4.0
1702490766.7902331,0.0,-8.0,-8.0,-5.0,-3.0,-8.0,-9.0,3.0
1702490766.7902331,5.0,-10.0,2.0,2.0,1.0,8.0,9.0,-1.0
1702490766.8105505,-18.0,-5.0,1.0,-4.0,-5.0,-4.0,-12.0,-5.0
1702490766.8105505,-4.0,3.0,13.0,-4.0,-3.0,3.0,14.0,2.0
1702490766.8105505,4.0,24.0,3.0,10.0,10.0,7.0,35.0,4.0
1702490766.8105505,2.0,-29.0,-8.0,-11.0,-13.0,-7.0,4.0,-3.0
1702490766.8502326,-1.0,8.0,-6.0,-1.0,1.0,-3.0,-12.0,0.0
1702490766.8502326,-12.0,-16.0,3.0,2.0,-1.0,-2.0,-25.0,-6.0
1702490766.8502326,-15.0,-5.0,1.0,-1.0,-3.0,-1.0,11.0,4.0
1702490766.8502326,20.0,-23.0,-4.0,-4.0,0.0,-1.0,14.0,0.0
1702490766.8502326,-7.0,14.0,-4.0,1.0,1.0,4.0,18.0,1.0
1702490766.8502326,4.0,-12.0,39.0,5.0,-6.0,-5.0,-5.0,-6.0
1702490766.8502326,-9.0,-2.0,-39.0,-11.0,-3.0,0.0,-13.0,-2.0
1702490766.8502326,9.0,14.0,20.0,1.0,-1.0,-6.0,-17.0,1.0
1702490766.870188,-7.0,-3.0,-29.0,-6.0,3.0,1.0,1.0,-4.0
1702490766.870188,-13.0,13.0,6.0,-8.0,-1.0,3.0,1.0,1.0
1702490766.8784494,2.0,-55.0,36.0,-22.0,-9.0,-8.0,-10.0,-1.0
1702490766.8784494,-11.0,-14.0,-49.0,31.0,3.0,1.0,-6.0,-7.0
1702490766.892889,7.0,10.0,-12.0,0.0,2.0,0.0,-2.0,0.0
1702490766.892889,1.0,-15.0,-39.0,-3.0,0.0,2.0,4.0,-2.0
1702490766.892889,2.0,31.0,-60.0,-10.0,-5.0,-3.0,-1.0,-3.0
1702490766.892889,5.0,-12.0,35.0,-19.0,-4.0,-5.0,-12.0,5.0
1702490766.9132671,-13.0,-23.0,-26.0,6.0,-1.0,-3.0,4.0,-11.0
1702490766.9132671,-14.0,17.0,-5.0,5.0,3.0,0.0,2.0,-1.0
1702490766.9132671,13.0,-7.0,34.0,8.0,-3.0,0.0,-8.0,-4.0
1702490766.9132671,14.0,19.0,7.0,2.0,0.0,0.0,-11.0,5.0
1702490766.9232748,-1.0,2.0,15.0,2.0,-1.0,-1.0,-2.0,-3.0
1702490766.9232748,-11.0,-5.0,-10.0,-8.0,-1.0,2.0,-15.0,0.0
1702490766.9328885,5.0,18.0,-2.0,0.0,-5.0,-6.0,26.0,2.0
1702490766.9328885,-13.0,-22.0,-4.0,-5.0,-3.0,3.0,-11.0,0.0
1702490766.9528875,-2.0,23.0,22.0,0.0,-2.0,-5.0,19.0,-1.0
1702490766.9528875,-8.0,-15.0,-14.0,-9.0,-4.0,-3.0,-5.0,1.0
1702490766.9528875,1.0,5.0,14.0,8.0,6.0,7.0,-3.0,-8.0
1702490766.9528875,-6.0,-29.0,-13.0,-6.0,-1.0,-4.0,8.0,4.0
1702490766.9717734,5.0,2.0,19.0,-1.0,-5.0,-2.0,-2.0,0.0
1702490766.9717734,19.0,60.0,-19.0,4.0,-4.0,-4.0,2.0,-2.0
1702490766.9717734,-19.0,-40.0,28.0,10.0,3.0,4.0,-5.0,3.0
1702490766.9717734,-4.0,19.0,-70.0,-17.0,0.0,-1.0,2.0,-5.0
1702490766.9821293,13.0,-16.0,10.0,-1.0,1.0,1.0,-7.0,2.0
1702490766.9821293,0.0,-6.0,28.0,1.0,3.0,-1.0,5.0,1.0
1702490766.9920685,3.0,51.0,1.0,-4.0,-4.0,-4.0,-18.0,2.0
1702490766.9920685,-5.0,14.0,0.0,-1.0,-6.0,-2.0,7.0,-4.0
1702490767.021781,-1.0,-10.0,21.0,-2.0,-4.0,-3.0,-3.0,2.0
1702490767.021781,-1.0,-4.0,-48.0,3.0,9.0,2.0,9.0,-1.0
1702490767.021781,-10.0,8.0,-10.0,7.0,2.0,-1.0,-6.0,-3.0
1702490767.021781,-11.0,0.0,37.0,-5.0,-4.0,-1.0,-8.0,-1.0
1702490767.0320153,-2.0,2.0,-18.0,-15.0,-2.0,-3.0,-1.0,0.0
1702490767.0320153,-3.0,9.0,39.0,30.0,-1.0,-2.0,0.0,-1.0
1702490767.0320153,2.0,-8.0,-8.0,-25.0,-8.0,0.0,-6.0,-1.0
1702490767.0320153,7.0,0.0,36.0,27.0,8.0,1.0,-3.0,1.0
1702490767.0419767,-2.0,-4.0,16.0,1.0,0.0,3.0,3.0,0.0
1702490767.0419767,-6.0,1.0,-16.0,-25.0,-9.0,-6.0,-6.0,-7.0
1702490767.0817814,-4.0,-25.0,7.0,-1.0,-2.0,-3.0,-18.0,2.0
1702490767.0817814,4.0,11.0,-40.0,-5.0,-2.0,0.0,12.0,1.0
1702490767.0817814,-1.0,6.0,-8.0,-5.0,-2.0,2.0,5.0,2.0
1702490767.0817814,-12.0,-15.0,56.0,-1.0,-5.0,-7.0,-7.0,-3.0
1702490767.0817814,-12.0,10.0,-31.0,2.0,-1.0,0.0,-1.0,-4.0
1702490767.0817814,25.0,-17.0,80.0,-5.0,0.0,0.0,-18.0,-8.0
1702490767.0920954,-1.0,-34.0,-78.0,-1.0,5.0,1.0,-31.0,2.0
1702490767.0920954,0.0,-23.0,20.0,-5.0,-3.0,5.0,11.0,0.0
1702490767.0920954,5.0,36.0,23.0,6.0,-1.0,-4.0,11.0,-3.0
1702490767.0920954,-10.0,12.0,-5.0,4.0,1.0,2.0,0.0,-1.0
1702490767.1020827,-11.0,-25.0,-19.0,-3.0,-6.0,-5.0,-10.0,-7.0
1702490767.1020827,7.0,-2.0,15.0,-1.0,-4.0,-1.0,-8.0,-2.0
1702490767.111819,14.0,6.0,-28.0,5.0,4.0,2.0,-8.0,1.0
1702490767.111819,-5.0,-79.0,-27.0,-4.0,0.0,-1.0,-3.0,-1.0
1702490767.131781,6.0,39.0,33.0,4.0,-1.0,-2.0,26.0,-1.0
1702490767.131781,-14.0,-10.0,-31.0,-5.0,0.0,2.0,12.0,4.0
1702490767.131781,20.0,8.0,28.0,0.0,-2.0,-2.0,6.0,-1.0
1702490767.131781,1.0,15.0,-18.0,-7.0,-6.0,-7.0,1.0,-2.0
1702490767.1521025,4.0,12.0,33.0,4.0,0.0,1.0,-11.0,0.0
1702490767.1521025,-3.0,-13.0,11.0,-2.0,1.0,0.0,-2.0,-3.0
1702490767.1521025,-8.0,-9.0,-4.0,2.0,-1.0,-1.0,2.0,1.0
1702490767.1521025,-1.0,31.0,34.0,6.0,-1.0,-2.0,-11.0,1.0
1702490767.162117,8.0,-21.0,17.0,-10.0,0.0,0.0,2.0,0.0
1702490767.162117,-5.0,2.0,-26.0,-3.0,0.0,0.0,-1.0,-2.0
1702490767.1817844,-1.0,-12.0,36.0,-7.0,-6.0,-1.0,-3.0,0.0
1702490767.1817844,-14.0,1.0,-35.0,-2.0,1.0,-2.0,-2.0,-2.0
1702490767.1919594,0.0,10.0,27.0,1.0,-3.0,0.0,2.0,-1.0
1702490767.1919594,-8.0,-8.0,-32.0,-2.0,2.0,0.0,3.0,-1.0
1702490767.1919594,5.0,0.0,-18.0,-3.0,-2.0,-4.0,-5.0,-1.0
1702490767.1919594,-6.0,-4.0,-38.0,-12.0,-8.0,-5.0,-13.0,-5.0
1702490767.2120945,2.0,34.0,14.0,8.0,0.0,1.0,21.0,-2.0
1702490767.2120945,-10.0,-38.0,11.0,-1.0,2.0,1.0,-29.0,-1.0
1702490767.2120945,6.0,-9.0,-13.0,2.0,2.0,0.0,-3.0,1.0
1702490767.2120945,-14.0,-6.0,-4.0,-5.0,-1.0,6.0,29.0,-9.0
1702490767.2220101,0.0,-53.0,2.0,2.0,-5.0,-10.0,-24.0,2.0
1702490767.2220101,-1.0,39.0,-2.0,0.0,3.0,4.0,-16.0,-7.0
1702490767.261781,4.0,-38.0,-8.0,-1.0,-5.0,-2.0,1.0,4.0
1702490767.261781,0.0,47.0,20.0,-2.0,2.0,4.0,47.0,11.0
1702490767.261781,-14.0,-64.0,-31.0,-7.0,-4.0,3.0,-17.0,-3.0
1702490767.261781,-15.0,1.0,9.0,-3.0,-3.0,-2.0,21.0,-2.0
1702490767.261781,-10.0,4.0,-9.0,3.0,4.0,-3.0,-13.0,-6.0
1702490767.261781,4.0,27.0,16.0,2.0,3.0,1.0,-15.0,0.0
1702490767.2719607,-8.0,4.0,-9.0,3.0,1.0,1.0,28.0,-1.0
1702490767.2719607,8.0,13.0,14.0,-3.0,-2.0,-1.0,-13.0,0.0
1702490767.2719607,-6.0,-40.0,-40.0,-2.0,0.0,-1.0,-6.0,-1.0
1702490767.2719607,5.0,-38.0,-15.0,-2.0,-3.0,-3.0,-9.0,0.0
1702490767.2917821,1.0,31.0,9.0,3.0,3.0,1.0,4.0,-2.0
1702490767.2917821,9.0,-18.0,3.0,3.0,-4.0,-4.0,3.0,-1.0
1702490767.2917821,-4.0,12.0,24.0,2.0,-1.0,0.0,2.0,-2.0
1702490767.2917821,-7.0,10.0,-15.0,-12.0,-5.0,-2.0,-7.0,-3.0
1702490767.3121803,-10.0,9.0,-9.0,21.0,3.0,-2.0,-12.0,0.0
1702490767.3121803,20.0,12.0,11.0,-20.0,-6.0,-3.0,7.0,1.0
1702490767.3121803,-6.0,6.0,2.0,-8.0,-3.0,-1.0,7.0,-2.0
1702490767.3121803,-7.0,0.0,3.0,-2.0,0.0,-2.0,-9.0,-1.0
1702490767.3417845,5.0,16.0,9.0,-10.0,-3.0,-3.0,2.0,-2.0
1702490767.3417845,-12.0,-12.0,-29.0,7.0,1.0,-3.0,-1.0,1.0
1702490767.3417845,17.0,27.0,19.0,-1.0,-3.0,-1.0,8.0,-4.0
1702490767.3417845,-1.0,-14.0,-12.0,-3.0,-1.0,-3.0,-12.0,-1.0
1702490767.3518462,-9.0,3.0,-9.0,-20.0,-6.0,1.0,5.0,1.0
1702490767.3518462,5.0,17.0,26.0,9.0,3.0,2.0,-2.0,0.0
1702490767.3518462,3.0,-11.0,-6.0,1.0,1.0,-2.0,-5.0,0.0
1702490767.3518462,4.0,58.0,15.0,8.0,-1.0,1.0,-3.0,-4.0
1702490767.372139,4.0,13.0,22.0,4.0,2.0,-2.0,-4.0,-2.0
1702490767.372139,-2.0,-69.0,-59.0,-7.0,-5.0,-3.0,10.0,0.0
1702490767.372139,-4.0,32.0,20.0,-2.0,1.0,2.0,14.0,-3.0
1702490767.372139,-8.0,3.0,12.0,10.0,4.0,1.0,-5.0,1.0
1702490767.396295,1.0,1.0,18.0,-4.0,-1.0,-4.0,-10.0,-2.0
1702490767.396295,1.0,13.0,-14.0,-4.0,0.0,2.0,4.0,4.0
1702490767.397661,2.0,-32.0,-24.0,2.0,-1.0,1.0,16.0,2.0
1702490767.397661,-2.0,-15.0,-8.0,4.0,0.0,-3.0,3.0,2.0
1702490767.4153633,2.0,36.0,-4.0,1.0,1.0,-1.0,0.0,-1.0
1702490767.4153633,-15.0,3.0,52.0,4.0,4.0,2.0,-4.0,6.0
1702490767.4153633,-9.0,18.0,15.0,1.0,-4.0,-4.0,-6.0,-14.0
1702490767.4153633,3.0,3.0,62.0,-1.0,-2.0,-2.0,-6.0,0.0
1702490767.4258125,-6.0,-2.0,-89.0,-4.0,0.0,4.0,-7.0,-2.0
1702490767.4258125,11.0,11.0,14.0,4.0,1.0,-2.0,-7.0,5.0
1702490767.4458258,0.0,40.0,-2.0,-1.0,2.0,2.0,7.0,2.0
1702490767.4458258,-2.0,-51.0,-3.0,3.0,-1.0,-1.0,10.0,0.0
1702490767.4558237,14.0,-14.0,5.0,3.0,-2.0,-3.0,-14.0,-1.0
1702490767.4558237,-6.0,4.0,11.0,-4.0,-6.0,-5.0,-5.0,-5.0
1702490767.4558237,0.0,3.0,-25.0,2.0,1.0,-3.0,-8.0,0.0
1702490767.4558237,2.0,7.0,2.0,3.0,3.0,-3.0,-22.0,-5.0
1702490767.4727702,-1.0,13.0,11.0,-5.0,0.0,-1.0,11.0,2.0
1702490767.4727702,-7.0,-50.0,-25.0,-1.0,-5.0,-3.0,-1.0,-6.0
1702490767.4727702,-3.0,-37.0,17.0,-7.0,-2.0,0.0,-1.0,4.0
1702490767.4727702,-1.0,30.0,-3.0,2.0,3.0,2.0,-3.0,0.0
1702490767.4929879,-4.0,-24.0,6.0,-2.0,-2.0,-4.0,-16.0,-2.0
1702490767.4929879,3.0,1.0,-9.0,1.0,-1.0,4.0,0.0,-3.0
1702490767.4929879,1.0,-5.0,-3.0,-3.0,-4.0,-2.0,8.0,1.0
1702490767.4929879,-10.0,-19.0,-6.0,-5.0,-4.0,-1.0,-4.0,-2.0
1702490767.5127795,4.0,3.0,-14.0,0.0,2.0,0.0,17.0,0.0
1702490767.5127795,-7.0,1.0,20.0,2.0,-2.0,-1.0,-8.0,-8.0
1702490767.5127795,-5.0,-9.0,-3.0,4.0,3.0,2.0,-11.0,2.0
1702490767.5127795,13.0,53.0,-9.0,-1.0,1.0,-2.0,2.0,-1.0
1702490767.5330343,-19.0,-35.0,16.0,2.0,-2.0,-4.0,-10.0,-3.0
1702490767.5330343,11.0,34.0,-1.0,-1.0,0.0,-2.0,-1.0,1.0
1702490767.5330343,-10.0,-2.0,3.0,-2.0,-3.0,1.0,-7.0,-1.0
1702490767.5330343,10.0,-23.0,-6.0,-3.0,-2.0,-4.0,-1.0,1.0
1702490767.5531175,-5.0,-16.0,25.0,3.0,-2.0,2.0,-6.0,-2.0
1702490767.5531175,1.0,30.0,-63.0,-15.0,-3.0,-3.0,3.0,-2.0
1702490767.5531175,-1.0,7.0,-18.0,0.0,-3.0,-4.0,-12.0,-2.0
1702490767.5531175,-7.0,-4.0,6.0,6.0,2.0,2.0,3.0,1.0
1702490767.5727823,8.0,-20.0,3.0,0.0,-3.0,-5.0,-3.0,2.0
1702490767.5727823,3.0,15.0,-2.0,1.0,2.0,3.0,9.0,1.0
1702490767.5727823,8.0,6.0,-11.0,-1.0,-2.0,-2.0,7.0,2.0
1702490767.5727823,-43.0,-35.0,-14.0,-15.0,-7.0,-2.0,-3.0,-6.0
1702490767.593066,-2.0,18.0,34.0,9.0,6.0,0.0,4.0,-3.0
1702490767.593066,22.0,33.0,-27.0,2.0,-1.0,-1.0,4.0,1.0
1702490767.593066,-5.0,-7.0,5.0,-4.0,-2.0,-4.0,-9.0,1.0
1702490767.593066,6.0,-2.0,20.0,3.0,-2.0,-1.0,-3.0,1.0
1702490767.642781,-11.0,14.0,-49.0,-7.0,-3.0,-2.0,2.0,-2.0
1702490767.642781,6.0,-12.0,25.0,-1.0,0.0,-6.0,-25.0,1.0
1702490767.642781,-2.0,-4.0,3.0,7.0,2.0,-2.0,32.0,-6.0
1702490767.642781,7.0,-1.0,-6.0,-8.0,-4.0,2.0,-8.0,-1.0
1702490767.642781,0.0,9.0,3.0,-2.0,-3.0,-3.0,-4.0,-3.0
1702490767.642781,-8.0,-9.0,17.0,1.0,-1.0,5.0,46.0,1.0
1702490767.642781,1.0,-10.0,-2.0,-1.0,-2.0,-3.0,-21.0,0.0
1702490767.642781,-7.0,7.0,-3.0,3.0,5.0,5.0,-5.0,1.0
1702490767.6527812,8.0,6.0,-1.0,-3.0,3.0,1.0,-30.0,-3.0
1702490767.6527812,-8.0,-7.0,5.0,-2.0,-3.0,-4.0,13.0,-4.0
1702490767.6527812,1.0,6.0,15.0,0.0,-1.0,0.0,1.0,-1.0
1702490767.6527812,3.0,-28.0,-10.0,-2.0,-2.0,-7.0,-19.0,-1.0
1702490767.6730244,11.0,92.0,6.0,-1.0,-6.0,-6.0,-6.0,4.0
1702490767.6730244,1.0,-48.0,-2.0,-4.0,-4.0,0.0,-7.0,-5.0
1702490767.6730244,-12.0,-24.0,8.0,7.0,4.0,6.0,2.0,2.0
1702490767.6730244,7.0,35.0,-5.0,-10.0,-19.0,-10.0,10.0,-2.0
1702490767.6930387,14.0,44.0,-3.0,-12.0,-3.0,2.0,7.0,0.0
1702490767.6930387,-21.0,-32.0,25.0,25.0,4.0,1.0,-8.0,-4.0
1702490767.6930387,17.0,-12.0,-12.0,3.0,2.0,-2.0,-4.0,0.0
1702490767.6930387,-20.0,52.0,-59.0,-10.0,-4.0,-4.0,-2.0,-1.0
1702490767.7134805,-4.0,-77.0,29.0,10.0,0.0,5.0,10.0,2.0
1702490767.7134805,1.0,23.0,-13.0,-13.0,-3.0,-2.0,-1.0,-2.0
1702490767.723414,-4.0,4.0,26.0,0.0,2.0,-2.0,-6.0,-1.0
1702490767.723414,10.0,-1.0,-18.0,2.0,-1.0,3.0,5.0,2.0
1702490767.7330432,-5.0,-5.0,17.0,-2.0,-2.0,-3.0,7.0,-2.0
1702490767.7330432,-2.0,8.0,-25.0,-1.0,0.0,1.0,-2.0,3.0
1702490767.7330432,-6.0,-11.0,-2.0,-3.0,-3.0,-2.0,-4.0,-5.0
1702490767.7330432,12.0,-1.0,-3.0,1.0,3.0,0.0,-5.0,-2.0
1702490767.753306,-20.0,-21.0,-16.0,-6.0,-2.0,-3.0,-5.0,-4.0
1702490767.753306,5.0,14.0,18.0,2.0,1.0,-3.0,7.0,0.0
1702490767.753306,-9.0,18.0,-11.0,-3.0,-4.0,-1.0,10.0,4.0
1702490767.753306,-2.0,-21.0,9.0,1.0,1.0,1.0,-2.0,-1.0
1702490767.7732935,10.0,-30.0,-17.0,-5.0,-5.0,1.0,7.0,2.0
1702490767.7732935,-13.0,11.0,8.0,-3.0,-4.0,-9.0,-21.0,-3.0
1702490767.7809622,10.0,10.0,-12.0,-7.0,-1.0,-2.0,26.0,0.0
1702490767.7809622,-8.0,-49.0,15.0,0.0,3.0,2.0,9.0,-4.0
1702490767.8109756,6.0,30.0,-1.0,-2.0,-1.0,1.0,6.0,3.0
1702490767.8109756,9.0,-6.0,3.0,-4.0,1.0,2.0,0.0,6.0
1702490767.8109756,-8.0,48.0,10.0,1.0,-4.0,-6.0,-20.0,-11.0
1702490767.8109756,-1.0,-10.0,0.0,-2.0,3.0,5.0,9.0,0.0
1702490767.8109756,3.0,-20.0,-10.0,5.0,3.0,1.0,8.0,5.0
1702490767.8109756,-5.0,53.0,6.0,-3.0,-3.0,-3.0,16.0,-4.0
1702490767.8109756,10.0,-1.0,4.0,1.0,3.0,9.0,-7.0,-1.0
1702490767.8109756,9.0,8.0,3.0,-2.0,-1.0,-4.0,-13.0,-3.0
1702490767.8309793,-1.0,-10.0,-1.0,-1.0,-1.0,-1.0,2.0,-2.0
1702490767.8309793,-11.0,-67.0,-7.0,-3.0,-5.0,-13.0,-77.0,-4.0
1702490767.8309793,-4.0,-40.0,10.0,2.0,-4.0,-4.0,6.0,6.0
1702490767.8309793,1.0,15.0,4.0,-2.0,1.0,8.0,29.0,-2.0
1702490767.8603675,-1.0,29.0,-1.0,-1.0,-2.0,-10.0,-22.0,8.0
1702490767.8603675,-1.0,-24.0,0.0,-2.0,1.0,-11.0,34.0,-20.0
1702490767.8613675,-4.0,9.0,-12.0,-4.0,-2.0,13.0,-24.0,10.0
1702490767.8613675,-6.0,-27.0,4.0,0.0,-3.0,-10.0,-17.0,-7.0
1702490767.876358,-1.0,-19.0,-4.0,0.0,-1.0,3.0,15.0,-1.0
1702490767.877113,4.0,22.0,10.0,2.0,0.0,7.0,-8.0,2.0
1702490767.877113,-1.0,-13.0,-11.0,-5.0,-2.0,-9.0,2.0,-3.0
1702490767.8781135,5.0,-17.0,-32.0,2.0,2.0,-3.0,7.0,3.0
1702490767.9065638,-7.0,-16.0,22.0,0.0,2.0,-1.0,0.0,-3.0
1702490767.9065638,6.0,-1.0,-63.0,-5.0,-2.0,1.0,2.0,2.0
1702490767.9065638,-7.0,7.0,11.0,-1.0,-1.0,2.0,3.0,-4.0
1702490767.9065638,6.0,-3.0,26.0,6.0,-2.0,0.0,-9.0,4.0
1702490767.9132354,-5.0,10.0,-8.0,-3.0,-4.0,1.0,-6.0,-5.0
1702490767.9132354,0.0,-21.0,22.0,-4.0,0.0,3.0,7.0,6.0
1702490767.921231,0.0,47.0,20.0,12.0,5.0,-5.0,-7.0,-1.0
1702490767.921231,-1.0,6.0,-17.0,-10.0,-2.0,3.0,0.0,-1.0
1702490767.9366474,-11.0,-27.0,0.0,-8.0,-3.0,-3.0,2.0,-5.0
1702490767.9366474,2.0,23.0,31.0,-17.0,-4.0,3.0,8.0,0.0
1702490767.9376109,6.0,-11.0,-27.0,12.0,-1.0,0.0,-11.0,4.0
1702490767.9376109,-8.0,-3.0,26.0,17.0,1.0,-5.0,-6.0,-5.0
1702490767.973614,-2.0,9.0,-16.0,-15.0,-8.0,-1.0,-1.0,-4.0
1702490767.973614,4.0,4.0,1.0,17.0,-1.0,-1.0,-21.0,1.0
1702490767.9746134,-12.0,-19.0,6.0,-44.0,-10.0,-4.0,9.0,-7.0
1702490767.9746134,3.0,46.0,3.0,22.0,10.0,1.0,5.0,4.0
1702490767.9746134,3.0,-12.0,-15.0,1.0,5.0,2.0,1.0,-1.0
1702490767.9746134,3.0,-19.0,18.0,19.0,3.0,-1.0,-3.0,-3.0
1702490767.9818065,-5.0,7.0,1.0,-13.0,3.0,-1.0,-2.0,1.0
1702490767.9818065,-11.0,-42.0,-31.0,-5.0,-7.0,-1.0,1.0,1.0
1702490767.9918282,-8.0,9.0,17.0,-18.0,-12.0,-4.0,5.0,-6.0
1702490767.9918282,13.0,53.0,27.0,-7.0,0.0,0.0,4.0,5.0
1702490768.003636,2.0,-3.0,-6.0,16.0,8.0,7.0,2.0,-5.0
1702490768.003636,6.0,-68.0,12.0,-22.0,-8.0,-4.0,-2.0,-3.0
1702490768.0239248,2.0,7.0,-3.0,0.0,14.0,3.0,-5.0,1.0
1702490768.0239248,7.0,6.0,3.0,-5.0,-9.0,-8.0,6.0,10.0
1702490768.0239248,-12.0,-54.0,-21.0,5.0,2.0,3.0,-3.0,-11.0
1702490768.0239248,12.0,50.0,13.0,5.0,2.0,2.0,-6.0,0.0
1702490768.031708,0.0,-39.0,4.0,14.0,-2.0,-1.0,5.0,0.0
1702490768.031708,1.0,32.0,3.0,3.0,5.0,-1.0,2.0,-1.0
1702490768.031708,13.0,-2.0,12.0,-3.0,-7.0,-5.0,1.0,4.0
1702490768.031708,-4.0,-10.0,22.0,-10.0,-9.0,-3.0,-10.0,0.0
1702490768.051982,-2.0,-9.0,-4.0,11.0,1.0,1.0,-1.0,5.0
1702490768.051982,-10.0,2.0,-40.0,-12.0,-2.0,1.0,17.0,-6.0
1702490768.0620155,-3.0,-41.0,-26.0,-5.0,-6.0,-6.0,5.0,4.0
1702490768.0620155,1.0,35.0,-3.0,0.0,1.0,0.0,-15.0,-7.0
1702490768.0817013,-2.0,15.0,4.0,-1.0,-4.0,-2.0,-19.0,-3.0
1702490768.0817013,-5.0,-30.0,-5.0,3.0,2.0,3.0,5.0,8.0
1702490768.0817013,-4.0,45.0,9.0,3.0,1.0,-1.0,-5.0,2.0
1702490768.0817013,-1.0,-3.0,8.0,1.0,2.0,-5.0,-28.0,0.0
1702490768.0919843,-5.0,-8.0,-38.0,2.0,4.0,3.0,32.0,0.0
1702490768.0919843,3.0,-8.0,16.0,-7.0,-5.0,-4.0,-14.0,-6.0
1702490768.0919843,-8.0,11.0,11.0,3.0,3.0,0.0,-4.0,-1.0
1702490768.0919843,-19.0,10.0,-10.0,-10.0,-1.0,2.0,-2.0,-3.0
1702490768.1119866,0.0,7.0,-10.0,7.0,-2.0,-5.0,6.0,-8.0
1702490768.1119866,-8.0,-24.0,27.0,-1.0,-3.0,2.0,-1.0,6.0
1702490768.1219969,19.0,-1.0,-1.0,3.0,-1.0,-2.0,-11.0,-2.0
1702490768.1219969,-5.0,0.0,-7.0,1.0,-3.0,-6.0,5.0,-9.0
1702490768.1320317,-2.0,2.0,-16.0,-4.0,-5.0,-1.0,-7.0,3.0
1702490768.1320317,-6.0,-2.0,11.0,0.0,0.0,1.0,2.0,-6.0
1702490768.1320317,-13.0,-37.0,-10.0,-1.0,-3.0,-3.0,-7.0,2.0
1702490768.1320317,-10.0,17.0,-7.0,7.0,0.0,-3.0,7.0,1.0
1702490768.152726,16.0,-9.0,13.0,-6.0,-2.0,2.0,-7.0,-3.0
1702490768.152726,15.0,21.0,-53.0,-8.0,-3.0,-2.0,0.0,3.0
1702490768.160726,-5.0,-3.0,-15.0,0.0,-3.0,3.0,-14.0,-15.0
1702490768.1617255,-23.0,-2.0,16.0,-1.0,0.0,3.0,23.0,9.0
1702490768.1751418,4.0,-3.0,8.0,1.0,-1.0,-2.0,-31.0,2.0
1702490768.1751418,-12.0,-27.0,-13.0,0.0,0.0,-2.0,34.0,3.0
1702490768.1880982,13.0,6.0,24.0,-5.0,-4.0,-4.0,0.0,-20.0
1702490768.1880982,12.0,-15.0,-18.0,2.0,1.0,2.0,0.0,5.0
1702490768.1982582,-5.0,37.0,11.0,-2.0,0.0,0.0,-7.0,-2.0
1702490768.1982582,-3.0,-41.0,14.0,2.0,-1.0,-2.0,-20.0,-4.0
1702490768.2002518,-2.0,33.0,-1.0,-1.0,-5.0,-3.0,1.0,4.0
1702490768.2002518,-1.0,10.0,-9.0,-9.0,-3.0,1.0,11.0,7.0
1702490768.212493,8.0,-16.0,9.0,2.0,-3.0,-5.0,-4.0,-13.0
1702490768.212493,-22.0,13.0,-29.0,-2.0,2.0,7.0,-20.0,-10.0
1702490768.2147915,24.0,4.0,7.0,-2.0,0.0,-3.0,23.0,6.0
1702490768.2147915,-31.0,2.0,-14.0,0.0,0.0,-1.0,-17.0,-9.0
1702490768.2347922,-11.0,-72.0,37.0,6.0,3.0,2.0,12.0,4.0
1702490768.2347922,-4.0,19.0,-17.0,-2.0,-2.0,-1.0,-6.0,-1.0
1702490768.2506683,1.0,3.0,4.0,-4.0,-4.0,-2.0,1.0,3.0
1702490768.2506683,18.0,9.0,7.0,1.0,0.0,-2.0,-12.0,1.0
1702490768.258528,-9.0,9.0,14.0,-4.0,-1.0,-1.0,12.0,6.0
1702490768.258528,-12.0,-9.0,1.0,11.0,-3.0,-2.0,1.0,-2.0
1702490768.2596784,-8.0,-48.0,-25.0,-5.0,-2.0,1.0,-10.0,1.0
1702490768.2606907,6.0,-16.0,19.0,3.0,2.0,-3.0,-2.0,-5.0
1702490768.2818513,10.0,27.0,-16.0,-1.0,0.0,1.0,0.0,2.0
1702490768.2818513,2.0,9.0,5.0,-6.0,-1.0,-2.0,-1.0,0.0
1702490768.2828703,7.0,25.0,-19.0,-2.0,-1.0,-5.0,-16.0,9.0
1702490768.2828703,5.0,-28.0,13.0,0.0,-3.0,-2.0,15.0,-7.0
1702490768.2968683,-49.0,3.0,-23.0,-3.0,-4.0,-1.0,-7.0,-9.0
1702490768.2968683,8.0,1.0,10.0,-1.0,0.0,-2.0,-1.0,8.0
1702490768.3026693,-4.0,9.0,16.0,-3.0,-2.0,-2.0,0.0,-20.0
1702490768.3026693,5.0,15.0,11.0,-1.0,2.0,5.0,-4.0,11.0
1702490768.3188004,8.0,-19.0,-33.0,-2.0,-1.0,-6.0,-1.0,1.0
1702490768.3188004,-7.0,-8.0,31.0,-5.0,-5.0,1.0,-1.0,-4.0
1702490768.3197997,-2.0,8.0,10.0,8.0,6.0,-2.0,-15.0,4.0
1702490768.3197997,17.0,2.0,-12.0,-6.0,-3.0,-1.0,3.0,5.0
1702490768.341519,-5.0,-2.0,17.0,2.0,2.0,3.0,16.0,-4.0
1702490768.341519,-4.0,5.0,6.0,-5.0,-3.0,-3.0,-5.0,-3.0
1702490768.3424914,-2.0,-15.0,13.0,3.0,-1.0,-4.0,5.0,-2.0
1702490768.3434935,13.0,24.0,-34.0,-7.0,-3.0,0.0,6.0,3.0
1702490768.3560553,1.0,-4.0,12.0,5.0,1.0,0.0,-7.0,-2.0
1702490768.3560553,20.0,-16.0,-5.0,-2.0,-3.0,-2.0,-3.0,-5.0
1702490768.3577216,-46.0,12.0,9.0,-1.0,-2.0,5.0,10.0,4.0
1702490768.3577216,5.0,-10.0,9.0,3.0,2.0,-3.0,-5.0,-2.0
1702490768.378911,2.0,38.0,17.0,-4.0,-3.0,-2.0,-11.0,-3.0
1702490768.378911,21.0,21.0,-26.0,3.0,3.0,4.0,14.0,0.0
1702490768.3810422,2.0,2.0,0.0,-3.0,-1.0,1.0,-7.0,3.0
1702490768.3810422,0.0,-16.0,-6.0,-1.0,-4.0,-4.0,-18.0,-6.0
1702490768.3932629,6.0,-4.0,-10.0,-4.0,0.0,4.0,9.0,5.0
1702490768.3932629,-6.0,6.0,-1.0,2.0,4.0,1.0,-17.0,-6.0
1702490768.4033089,6.0,16.0,14.0,-2.0,-5.0,-3.0,25.0,28.0
1702490768.4033089,-25.0,8.0,21.0,-4.0,-1.0,-3.0,-3.0,-34.0
1702490768.4132557,20.0,-14.0,1.0,4.0,1.0,-1.0,-5.0,3.0
1702490768.4132557,-18.0,2.0,22.0,0.0,-1.0,-5.0,-14.0,-2.0
1702490768.4432507,7.0,-12.0,-20.0,-6.0,-5.0,1.0,7.0,-1.0
1702490768.4432507,6.0,-63.0,13.0,2.0,3.0,0.0,3.0,5.0
1702490768.4432507,6.0,46.0,13.0,-1.0,-4.0,-4.0,-2.0,-3.0
1702490768.4432507,-6.0,-23.0,-26.0,-2.0,-1.0,0.0,4.0,0.0
1702490768.4432507,9.0,1.0,15.0,1.0,1.0,-1.0,-7.0,-3.0
1702490768.4432507,-1.0,-6.0,-11.0,-3.0,-1.0,1.0,7.0,0.0
1702490768.4615376,-11.0,-11.0,-15.0,1.0,2.0,0.0,0.0,0.0
1702490768.4615376,11.0,6.0,5.0,-2.0,-2.0,-7.0,-2.0,0.0
1702490768.4625466,5.0,-6.0,-27.0,-1.0,-2.0,-1.0,-3.0,-9.0
1702490768.4625466,2.0,13.0,17.0,-2.0,-2.0,-3.0,-14.0,-1.0
1702490768.4758797,3.0,0.0,-32.0,-3.0,2.0,-2.0,-9.0,7.0
1702490768.4758797,0.0,28.0,9.0,-7.0,-6.0,0.0,13.0,0.0
1702490768.4834788,-16.0,-41.0,-13.0,4.0,2.0,1.0,3.0,-5.0
1702490768.4834788,-2.0,4.0,25.0,-1.0,-6.0,-2.0,-2.0,3.0
1702490768.493602,-5.0,-5.0,-39.0,-2.0,-2.0,-3.0,-8.0,-4.0
1702490768.493602,22.0,-15.0,-19.0,4.0,1.0,2.0,1.0,-9.0
1702490768.493602,-49.0,13.0,3.0,-6.0,-4.0,-2.0,-11.0,-11.0
1702490768.493602,2.0,13.0,29.0,7.0,4.0,0.0,15.0,12.0
1702490768.5134876,-4.0,-13.0,-35.0,-4.0,-4.0,2.0,-6.0,-18.0
1702490768.5134876,-9.0,1.0,23.0,-2.0,-3.0,-1.0,0.0,2.0
1702490768.5134876,9.0,-18.0,-10.0,-3.0,0.0,-2.0,-1.0,2.0
1702490768.5134876,-1.0,2.0,0.0,7.0,-2.0,-2.0,-4.0,3.0
1702490768.5351145,-2.0,-9.0,-8.0,-10.0,-2.0,-2.0,-10.0,4.0
1702490768.5351145,-15.0,-2.0,10.0,4.0,2.0,5.0,35.0,-1.0
1702490768.54269,9.0,10.0,36.0,2.0,-3.0,-4.0,-2.0,-3.0
1702490768.54269,0.0,24.0,-32.0,-7.0,-7.0,-2.0,-23.0,0.0
1702490768.5585594,6.0,-20.0,17.0,4.0,0.0,-1.0,-8.0,12.0
1702490768.5585594,-19.0,-8.0,-38.0,-9.0,0.0,8.0,1.0,-6.0
1702490768.5595777,21.0,12.0,16.0,7.0,1.0,-9.0,-21.0,3.0
1702490768.5605733,-9.0,4.0,-14.0,-3.0,0.0,-2.0,30.0,2.0
1702490768.5876205,16.0,4.0,2.0,0.0,-2.0,3.0,-33.0,2.0
1702490768.5876205,-3.0,-3.0,9.0,2.0,-1.0,6.0,45.0,10.0
1702490768.5876205,-3.0,-2.0,-15.0,-6.0,-2.0,2.0,-17.0,-9.0
1702490768.5876205,4.0,-1.0,-5.0,0.0,0.0,-17.0,-16.0,4.0
1702490768.5956535,7.0,5.0,14.0,0.0,-1.0,7.0,-14.0,-6.0
1702490768.5956535,-6.0,1.0,7.0,4.0,4.0,-4.0,7.0,3.0
1702490768.6026518,5.0,0.0,-11.0,-2.0,-1.0,4.0,-18.0,-11.0
1702490768.6026518,-7.0,-6.0,-17.0,-4.0,0.0,0.0,27.0,-1.0
1702490768.6187801,-2.0,7.0,21.0,0.0,-3.0,-6.0,13.0,-1.0
1702490768.6187801,-2.0,10.0,-4.0,3.0,-1.0,0.0,-35.0,-3.0
1702490768.6208198,-12.0,-15.0,-17.0,-9.0,-4.0,-5.0,2.0,-2.0
1702490768.6208198,-11.0,57.0,-3.0,-5.0,-1.0,4.0,-7.0,-6.0
1702490768.6447797,7.0,-22.0,14.0,10.0,1.0,-1.0,15.0,-1.0
1702490768.6447797,24.0,22.0,3.0,-2.0,-4.0,-4.0,-9.0,-1.0
1702490768.6447797,-12.0,6.0,4.0,13.0,5.0,1.0,10.0,4.0
1702490768.6447797,-9.0,-58.0,28.0,2.0,-2.0,1.0,-1.0,-5.0
1702490768.655781,2.0,-8.0,-97.0,-34.0,-8.0,-3.0,14.0,0.0
1702490768.655781,-12.0,-14.0,41.0,-1.0,-3.0,-6.0,-14.0,1.0
1702490768.6624634,-1.0,-12.0,-35.0,-3.0,0.0,3.0,7.0,3.0
1702490768.6624634,9.0,-20.0,-32.0,-13.0,-2.0,0.0,-2.0,-1.0
1702490768.6787188,-1.0,19.0,107.0,14.0,3.0,-3.0,5.0,-4.0
1702490768.6787188,0.0,-25.0,-69.0,-7.0,-3.0,-2.0,-17.0,-3.0
1702490768.68059,7.0,0.0,20.0,-1.0,0.0,2.0,6.0,-5.0
1702490768.68059,-4.0,7.0,-16.0,2.0,0.0,0.0,0.0,-1.0
1702490768.7038236,-2.0,1.0,17.0,0.0,-1.0,-4.0,4.0,-5.0
1702490768.7048237,-3.0,0.0,1.0,4.0,3.0,-1.0,-1.0,1.0
1702490768.7048237,1.0,16.0,27.0,-4.0,-3.0,-3.0,-13.0,0.0
1702490768.7048237,-8.0,5.0,-14.0,3.0,0.0,2.0,30.0,16.0
1702490768.7162464,4.0,11.0,20.0,5.0,-3.0,-1.0,-7.0,-8.0
1702490768.7162464,2.0,1.0,-2.0,-4.0,2.0,4.0,1.0,0.0
1702490768.722207,4.0,-8.0,-22.0,-5.0,-5.0,-5.0,27.0,-2.0
1702490768.722207,-11.0,-23.0,0.0,-3.0,-1.0,0.0,-19.0,0.0
1702490768.7613719,5.0,24.0,-14.0,1.0,-1.0,2.0,21.0,9.0
1702490768.7613719,-11.0,-14.0,-4.0,0.0,-4.0,-10.0,10.0,-10.0
1702490768.764371,0.0,-20.0,-9.0,1.0,0.0,2.0,-24.0,2.0
1702490768.764371,15.0,39.0,10.0,2.0,1.0,-8.0,-9.0,-4.0
1702490768.764371,-30.0,-9.0,2.0,-4.0,-7.0,-4.0,-16.0,-6.0
1702490768.764371,7.0,-5.0,0.0,-1.0,2.0,0.0,-14.0,-5.0
1702490768.764371,-8.0,0.0,9.0,-1.0,2.0,-1.0,6.0,2.0
1702490768.764371,5.0,8.0,4.0,-3.0,-5.0,2.0,-5.0,-5.0
1702490768.774557,-1.0,-2.0,-11.0,2.0,4.0,-3.0,-8.0,-3.0
1702490768.774557,-6.0,-24.0,-1.0,-1.0,0.0,-1.0,-8.0,-1.0
1702490768.784148,2.0,7.0,1.0,0.0,-1.0,-2.0,0.0,2.0
1702490768.784148,4.0,-23.0,-13.0,-2.0,2.0,4.0,12.0,-2.0
1702490768.8083446,0.0,35.0,8.0,-2.0,1.0,-1.0,-1.0,0.0
1702490768.8083446,-2.0,-25.0,-30.0,1.0,-3.0,-3.0,-2.0,0.0
1702490768.8083446,-1.0,36.0,-34.0,-13.0,-3.0,1.0,11.0,1.0
1702490768.8083446,5.0,-21.0,9.0,-1.0,-4.0,-1.0,-13.0,-5.0
1702490768.8223028,-6.0,7.0,0.0,-1.0,2.0,-4.0,6.0,10.0
1702490768.8223028,3.0,25.0,64.0,3.0,-1.0,0.0,-4.0,-8.0
1702490768.8233063,9.0,-10.0,-19.0,-4.0,-2.0,-4.0,-5.0,-3.0
1702490768.8233063,8.0,41.0,21.0,-1.0,-4.0,3.0,-3.0,-3.0
1702490768.8348956,-49.0,-38.0,3.0,-2.0,-3.0,-1.0,4.0,3.0
1702490768.835922,3.0,-9.0,-36.0,-4.0,-3.0,-3.0,-16.0,-2.0
1702490768.8441422,1.0,-33.0,19.0,-4.0,-1.0,1.0,24.0,-2.0
1702490768.8441422,6.0,15.0,39.0,13.0,3.0,-2.0,-4.0,-5.0
1702490768.8688724,6.0,-15.0,-50.0,2.0,2.0,0.0,-7.0,1.0
1702490768.8688724,-5.0,6.0,-29.0,-5.0,0.0,0.0,23.0,8.0
1702490768.8698728,0.0,77.0,31.0,1.0,-2.0,1.0,-11.0,-7.0
1702490768.8698728,1.0,-16.0,34.0,4.0,1.0,-1.0,1.0,-1.0
1702490768.8810165,9.0,-13.0,6.0,1.0,-4.0,-6.0,-10.0,7.0
1702490768.881971,-7.0,-20.0,-7.0,-10.0,-4.0,2.0,-8.0,-22.0
1702490768.8829722,3.0,45.0,15.0,-1.0,-2.0,-11.0,-8.0,1.0
1702490768.8829722,-7.0,-16.0,-2.0,-2.0,-2.0,1.0,1.0,-5.0
1702490768.8953302,3.0,22.0,1.0,0.0,0.0,0.0,4.0,-8.0
1702490768.8953302,0.0,-33.0,26.0,2.0,0.0,-2.0,-9.0,7.0
1702490768.9033654,-17.0,1.0,16.0,4.0,1.0,-1.0,15.0,13.0
1702490768.9043996,7.0,4.0,-25.0,-13.0,-6.0,1.0,-4.0,-17.0
1702490768.9317734,11.0,1.0,-10.0,5.0,2.0,3.0,5.0,2.0
1702490768.9317734,-24.0,22.0,18.0,3.0,1.0,-11.0,-17.0,-4.0
1702490768.9317734,-1.0,-18.0,-3.0,1.0,2.0,16.0,-2.0,1.0
1702490768.9317734,-2.0,-1.0,1.0,-2.0,-3.0,-4.0,-7.0,6.0
1702490768.941836,-1.0,-19.0,-4.0,-7.0,-5.0,-5.0,1.0,-5.0
1702490768.941836,6.0,18.0,-11.0,2.0,0.0,4.0,8.0,6.0
1702490768.941836,-5.0,-24.0,3.0,4.0,5.0,0.0,-18.0,-4.0
1702490768.941836,-7.0,-8.0,-22.0,0.0,1.0,4.0,-7.0,2.0
1702490768.9547598,8.0,-1.0,-2.0,-12.0,-6.0,-2.0,16.0,-9.0
1702490768.9547598,13.0,20.0,6.0,1.0,2.0,-1.0,-8.0,5.0
1702490768.9830394,-6.0,-24.0,-16.0,0.0,-2.0,-6.0,-1.0,-9.0
1702490768.9830394,-9.0,-8.0,-18.0,-3.0,3.0,2.0,4.0,7.0
1702490768.9830394,4.0,12.0,2.0,-4.0,-2.0,-9.0,-20.0,-8.0
1702490768.9830394,4.0,-18.0,7.0,-2.0,1.0,-7.0,4.0,0.0
1702490768.9850373,19.0,22.0,-9.0,-2.0,1.0,9.0,-3.0,-2.0
1702490768.9850373,-7.0,-43.0,-22.0,-1.0,-8.0,-6.0,1.0,1.0
1702490769.0015323,8.0,-5.0,22.0,-2.0,2.0,5.0,4.0,5.0
1702490769.0015323,-9.0,12.0,16.0,-4.0,-1.0,-2.0,-11.0,1.0
1702490769.002542,5.0,-1.0,9.0,0.0,-6.0,-5.0,8.0,-1.0
1702490769.002542,6.0,8.0,-43.0,-6.0,1.0,-2.0,-10.0,-4.0
1702490769.0138075,0.0,2.0,11.0,20.0,9.0,6.0,4.0,2.0
1702490769.0138075,12.0,5.0,19.0,-4.0,-5.0,0.0,11.0,3.0
1702490769.0238075,-9.0,17.0,16.0,15.0,0.0,-3.0,-4.0,-2.0
1702490769.0238075,-16.0,19.0,-7.0,-11.0,-3.0,-1.0,5.0,-1.0
1702490769.0338442,-3.0,-28.0,29.0,-2.0,-9.0,-4.0,-3.0,3.0
1702490769.0338442,-12.0,-9.0,-100.0,1.0,5.0,6.0,0.0,-4.0
1702490769.0338442,5.0,2.0,41.0,-7.0,-5.0,-2.0,0.0,3.0
1702490769.0338442,-9.0,-22.0,22.0,2.0,3.0,-3.0,-33.0,-3.0
1702490769.0610404,-11.0,-3.0,-12.0,-3.0,-2.0,4.0,40.0,2.0
1702490769.0617523,1.0,37.0,23.0,7.0,2.0,1.0,-12.0,4.0
1702490769.0629582,26.0,-20.0,-41.0,-12.0,-4.0,-9.0,17.0,-4.0
1702490769.06377,8.0,-14.0,-12.0,-2.0,-3.0,2.0,-2.0,-3.0
1702490769.0746756,3.0,-7.0,10.0,4.0,0.0,1.0,-4.0,2.0
1702490769.0746756,-17.0,14.0,10.0,-3.0,-2.0,2.0,-11.0,1.0
1702490769.0842834,4.0,1.0,-2.0,1.0,5.0,6.0,1.0,11.0
1702490769.0842834,-6.0,-81.0,-7.0,-2.0,-4.0,-5.0,-10.0,-8.0
1702490769.0946274,-9.0,18.0,-45.0,2.0,3.0,-4.0,-3.0,-4.0
1702490769.0946274,9.0,15.0,-19.0,-3.0,-5.0,5.0,1.0,-3.0
1702490769.0946274,-20.0,-1.0,1.0,0.0,-1.0,-3.0,-12.0,-11.0
1702490769.0946274,0.0,-6.0,11.0,2.0,-2.0,-7.0,2.0,9.0
1702490769.1145618,11.0,-3.0,26.0,-2.0,3.0,5.0,-2.0,-2.0
1702490769.1145618,11.0,22.0,9.0,3.0,2.0,-3.0,-1.0,6.0
1702490769.1145618,6.0,77.0,-5.0,-5.0,-5.0,2.0,5.0,-2.0
1702490769.1145618,-2.0,7.0,1.0,-1.0,-6.0,-3.0,0.0,-4.0
1702490769.1442893,2.0,63.0,-10.0,-3.0,-2.0,-4.0,3.0,-3.0
1702490769.1442893,-1.0,13.0,25.0,5.0,4.0,-5.0,-8.0,-1.0
1702490769.1442893,-14.0,-54.0,-26.0,-4.0,1.0,4.0,-4.0,-6.0
1702490769.1442893,24.0,50.0,36.0,4.0,-1.0,0.0,6.0,-2.0
1702490769.1546965,-2.0,-2.0,-57.0,-9.0,-5.0,0.0,-10.0,3.0
1702490769.1546965,1.0,-24.0,-2.0,-17.0,-7.0,-4.0,-7.0,-2.0
1702490769.1546965,-14.0,-26.0,14.0,23.0,7.0,-2.0,-2.0,0.0
1702490769.1546965,-4.0,6.0,-9.0,-3.0,2.0,4.0,17.0,5.0
1702490769.1746962,-9.0,-29.0,24.0,7.0,2.0,0.0,-12.0,-6.0
1702490769.1746962,8.0,-1.0,11.0,-5.0,-2.0,-1.0,13.0,0.0
1702490769.1746962,-9.0,-27.0,-5.0,-37.0,-6.0,-7.0,-5.0,-3.0
1702490769.1746962,1.0,19.0,10.0,26.0,7.0,3.0,1.0,1.0
1702490769.20426,-7.0,9.0,29.0,-7.0,-3.0,-2.0,0.0,-6.0
1702490769.20426,1.0,-16.0,-16.0,22.0,6.0,3.0,-1.0,1.0
1702490769.20426,6.0,-7.0,4.0,-4.0,-5.0,-4.0,-5.0,2.0
1702490769.20426,-13.0,13.0,-37.0,-17.0,-6.0,0.0,4.0,-2.0
1702490769.2145305,6.0,-21.0,21.0,-7.0,-4.0,-4.0,-10.0,-3.0
1702490769.2145305,1.0,-7.0,4.0,-6.0,-4.0,-3.0,4.0,-1.0
1702490769.2145305,1.0,-13.0,-5.0,-4.0,-6.0,-1.0,5.0,2.0
1702490769.2145305,-9.0,-4.0,-21.0,-15.0,-1.0,-1.0,5.0,-2.0
1702490769.2346034,2.0,-2.0,17.0,17.0,2.0,-2.0,-2.0,2.0
1702490769.2346034,-16.0,-10.0,-3.0,-5.0,-2.0,-2.0,0.0,-8.0
1702490769.2346034,13.0,-2.0,-15.0,11.0,3.0,1.0,8.0,3.0
1702490769.2346034,-1.0,7.0,-11.0,-5.0,0.0,4.0,-8.0,0.0
1702490769.2542148,-3.0,2.0,-8.0,-11.0,-3.0,1.0,-3.0,2.0
1702490769.264263,-10.0,-64.0,2.0,-2.0,-8.0,-7.0,1.0,-2.0
1702490769.264263,0.0,-28.0,-16.0,-4.0,-2.0,-4.0,-7.0,-5.0
1702490769.264263,9.0,47.0,18.0,4.0,6.0,-1.0,2.0,3.0
1702490769.2784882,-3.0,6.0,8.0,-7.0,1.0,2.0,15.0,2.0
1702490769.2784882,-1.0,-4.0,-42.0,11.0,-1.0,-2.0,-2.0,3.0
1702490769.285383,-6.0,22.0,5.0,3.0,-5.0,-2.0,-4.0,15.0
1702490769.285383,5.0,-60.0,4.0,20.0,8.0,3.0,8.0,-4.0
1702490769.3008142,-8.0,4.0,-1.0,-3.0,-4.0,-5.0,-5.0,-9.0
1702490769.3008142,6.0,21.0,-1.0,-5.0,1.0,4.0,-9.0,9.0
1702490769.3029153,-4.0,-39.0,-4.0,-16.0,-4.0,-6.0,-4.0,12.0
1702490769.3029153,2.0,17.0,2.0,6.0,-7.0,-8.0,-4.0,14.0
1702490769.323871,0.0,-42.0,-23.0,-5.0,-3.0,-6.0,-24.0,-23.0
1702490769.323871,-16.0,66.0,31.0,1.0,-2.0,1.0,5.0,-1.0
1702490769.3248625,6.0,0.0,-7.0,-2.0,-3.0,0.0,-15.0,-9.0
1702490769.3248625,-14.0,-5.0,7.0,-7.0,-1.0,3.0,5.0,-2.0
1702490769.3382497,8.0,-2.0,2.0,5.0,0.0,1.0,-4.0,9.0
1702490769.3382497,3.0,-21.0,-9.0,-8.0,-5.0,-5.0,-3.0,-6.0
1702490769.3449259,2.0,13.0,-2.0,8.0,0.0,-2.0,-2.0,-10.0
1702490769.3449259,3.0,24.0,27.0,-6.0,-2.0,-3.0,-24.0,-3.0
1702490769.3609393,-1.0,5.0,-14.0,-1.0,3.0,6.0,4.0,7.0
1702490769.3609393,-3.0,-12.0,10.0,-2.0,1.0,6.0,34.0,2.0
1702490769.362937,3.0,8.0,-5.0,-1.0,2.0,-1.0,11.0,-1.0
1702490769.3639417,3.0,-11.0,-1.0,-7.0,-4.0,-4.0,-4.0,-11.0
1702490769.3829029,-4.0,5.0,-3.0,-8.0,-13.0,-7.0,3.0,6.0
1702490769.3839028,10.0,-12.0,-4.0,15.0,10.0,1.0,-23.0,-4.0
1702490769.389725,-1.0,33.0,30.0,3.0,2.0,0.0,0.0,-3.0
1702490769.389725,-7.0,-60.0,-76.0,17.0,-1.0,-2.0,-2.0,1.0
1702490769.398175,-23.0,-60.0,6.0,-11.0,-3.0,-1.0,3.0,-10.0
1702490769.398175,13.0,-1.0,-13.0,-16.0,-2.0,0.0,-2.0,-1.0
1702490769.4051728,-23.0,23.0,8.0,-4.0,-8.0,-2.0,-8.0,2.0
1702490769.4051728,3.0,22.0,18.0,-13.0,-2.0,-1.0,0.0,-17.0
1702490769.424308,-3.0,-98.0,35.0,14.0,2.0,-2.0,3.0,3.0
1702490769.424308,-6.0,51.0,-49.0,-10.0,-6.0,-3.0,0.0,-4.0
1702490769.427307,0.0,-8.0,-11.0,-8.0,1.0,2.0,-7.0,-2.0
1702490769.427307,16.0,18.0,-9.0,-7.0,-3.0,-2.0,7.0,7.0
1702490769.4433143,2.0,30.0,35.0,-5.0,1.0,1.0,1.0,3.0
1702490769.4443078,-5.0,-12.0,16.0,-2.0,-3.0,-5.0,-4.0,0.0
1702490769.4453068,5.0,-26.0,-20.0,0.0,-2.0,0.0,-2.0,-13.0
1702490769.4453068,-5.0,3.0,-34.0,5.0,-1.0,-3.0,4.0,3.0
1702490769.458305,2.0,28.0,-6.0,-6.0,1.0,-1.0,-7.0,-15.0
1702490769.458305,5.0,-13.0,2.0,1.0,-4.0,-4.0,4.0,7.0
1702490769.4653418,-2.0,-2.0,-20.0,1.0,1.0,2.0,-6.0,1.0
1702490769.4653418,-3.0,0.0,40.0,-1.0,-2.0,-1.0,-17.0,-1.0
1702490769.4883034,9.0,29.0,-25.0,1.0,2.0,7.0,72.0,-14.0
1702490769.4883034,8.0,-5.0,9.0,0.0,-1.0,-2.0,3.0,13.0
1702490769.4893036,-22.0,-8.0,-3.0,11.0,4.0,2.0,-1.0,9.0
1702490769.4893036,-9.0,-5.0,10.0,-10.0,-3.0,-3.0,-22.0,-1.0
1702490769.5035136,0.0,16.0,-42.0,-2.0,-1.0,-2.0,-35.0,9.0
1702490769.5035136,-15.0,-3.0,30.0,2.0,-1.0,-7.0,14.0,-17.0
1702490769.505513,5.0,-14.0,3.0,-4.0,-3.0,9.0,22.0,-14.0
1702490769.505513,10.0,25.0,11.0,3.0,3.0,-1.0,6.0,13.0
1702490769.5175133,-20.0,6.0,-36.0,2.0,2.0,4.0,-28.0,-2.0
1702490769.5175133,2.0,-11.0,-10.0,-3.0,3.0,6.0,15.0,-5.0
1702490769.524517,9.0,-2.0,13.0,4.0,2.0,-13.0,-58.0,0.0
1702490769.524517,-2.0,3.0,4.0,-5.0,-5.0,-3.0,21.0,-8.0
1702490769.5435126,5.0,11.0,-3.0,2.0,-3.0,-4.0,-2.0,0.0
1702490769.5435126,-5.0,17.0,17.0,2.0,0.0,-1.0,-38.0,0.0
1702490769.5445132,-5.0,30.0,-9.0,-2.0,-3.0,0.0,10.0,-2.0
1702490769.5445132,-4.0,-5.0,-3.0,-8.0,-1.0,0.0,-2.0,-6.0
1702490769.563518,-10.0,11.0,18.0,3.0,-3.0,-7.0,-13.0,6.0
1702490769.563518,-8.0,3.0,-22.0,-3.0,-6.0,7.0,8.0,-2.0
1702490769.565521,13.0,-6.0,19.0,-6.0,-3.0,-1.0,10.0,-2.0
1702490769.565521,-9.0,-37.0,14.0,11.0,12.0,1.0,6.0,1.0
1702490769.5887296,11.0,40.0,6.0,-8.0,-4.0,-2.0,-13.0,2.0
1702490769.5887296,-2.0,-86.0,-53.0,-13.0,-7.0,-1.0,5.0,-8.0
1702490769.5897295,-2.0,-28.0,-19.0,0.0,1.0,-3.0,4.0,-3.0
1702490769.5897295,0.0,-20.0,42.0,-27.0,-5.0,-2.0,1.0,1.0
1702490769.60073,13.0,51.0,19.0,48.0,7.0,2.0,4.0,4.0
1702490769.60073,-3.0,-6.0,-15.0,5.0,-3.0,-6.0,-8.0,-5.0
1702490769.6027288,14.0,11.0,55.0,-8.0,0.0,1.0,6.0,0.0
1702490769.6027288,-55.0,-40.0,-73.0,28.0,0.0,0.0,-5.0,-6.0
1702490769.6231854,10.0,2.0,-5.0,-15.0,1.0,-1.0,5.0,2.0
1702490769.6231854,3.0,5.0,4.0,-7.0,-3.0,-4.0,3.0,2.0
1702490769.6251981,0.0,-33.0,-12.0,15.0,5.0,4.0,11.0,0.0
1702490769.6251981,2.0,39.0,22.0,-14.0,-8.0,-4.0,-10.0,5.0
1702490769.6383116,8.0,-18.0,-16.0,-4.0,-3.0,-3.0,5.0,-11.0
1702490769.6383116,-11.0,4.0,34.0,10.0,6.0,1.0,-3.0,-2.0
1702490769.6451137,-12.0,9.0,-51.0,-11.0,-5.0,-1.0,-8.0,2.0
1702490769.6451137,15.0,4.0,2.0,3.0,-1.0,-1.0,-1.0,-1.0
1702490769.666731,-4.0,36.0,-3.0,-11.0,-6.0,0.0,12.0,0.0
1702490769.666731,12.0,1.0,25.0,1.0,0.0,-1.0,-6.0,1.0
1702490769.666731,4.0,11.0,24.0,7.0,1.0,-3.0,3.0,0.0
1702490769.666731,-1.0,15.0,-41.0,-8.0,-7.0,-3.0,0.0,-1.0
1702490769.683728,-5.0,-25.0,22.0,5.0,3.0,3.0,-5.0,1.0
1702490769.683728,-2.0,22.0,-14.0,-4.0,-3.0,-4.0,1.0,-2.0
1702490769.6940806,-1.0,-48.0,3.0,-6.0,-4.0,-5.0,-3.0,2.0
1702490769.6940806,22.0,-15.0,-15.0,7.0,3.0,3.0,2.0,-5.0
1702490769.697787,1.0,-23.0,16.0,-9.0,-2.0,-2.0,2.0,-1.0
1702490769.697787,3.0,9.0,-30.0,-2.0,0.0,3.0,-2.0,1.0
1702490769.7061236,4.0,-3.0,3.0,4.0,-4.0,-6.0,-7.0,-2.0
1702490769.7061236,-11.0,2.0,19.0,-7.0,-1.0,2.0,0.0,-10.0
1702490769.7209451,9.0,-17.0,-5.0,-3.0,2.0,0.0,3.0,2.0
1702490769.7209451,-15.0,-7.0,22.0,2.0,1.0,-2.0,-10.0,-4.0
1702490769.722912,-5.0,29.0,-14.0,2.0,-2.0,-4.0,-2.0,-3.0
1702490769.722912,14.0,8.0,9.0,-2.0,0.0,0.0,3.0,6.0
1702490769.7436545,-23.0,-5.0,-7.0,0.0,0.0,0.0,-9.0,5.0
1702490769.7436545,-4.0,8.0,26.0,-1.0,-1.0,-3.0,4.0,-9.0
1702490769.752796,-3.0,10.0,-1.0,-3.0,2.0,4.0,2.0,-1.0
1702490769.752796,1.0,2.0,-31.0,-4.0,1.0,0.0,1.0,-1.0
1702490769.7587938,-2.0,-40.0,-77.0,-5.0,-1.0,-4.0,0.0,9.0
1702490769.7587938,-1.0,20.0,82.0,2.0,2.0,0.0,-3.0,-14.0
1702490769.7670915,0.0,2.0,-39.0,2.0,-3.0,0.0,-1.0,-1.0
1702490769.7670915,1.0,11.0,25.0,2.0,-1.0,1.0,2.0,0.0
1702490769.7817624,0.0,-12.0,7.0,-4.0,-3.0,-3.0,-31.0,-10.0
1702490769.782755,4.0,0.0,-19.0,0.0,3.0,8.0,28.0,15.0
1702490769.7837555,-5.0,22.0,8.0,0.0,-1.0,1.0,-11.0,-4.0
1702490769.7837555,-9.0,1.0,36.0,1.0,0.0,-1.0,6.0,-3.0
1702490769.81526,-8.0,-7.0,-7.0,-5.0,-3.0,-7.0,-20.0,-7.0
1702490769.81526,12.0,-9.0,0.0,-3.0,-3.0,0.0,10.0,0.0
1702490769.81526,-8.0,-4.0,1.0,1.0,4.0,-1.0,1.0,4.0
1702490769.81526,-4.0,1.0,2.0,-1.0,-4.0,-4.0,-2.0,0.0
1702490769.8172526,-4.0,6.0,12.0,-1.0,-3.0,1.0,20.0,-4.0
1702490769.8172526,5.0,15.0,-9.0,3.0,-1.0,-5.0,-17.0,0.0
1702490769.8263693,-7.0,-37.0,6.0,-7.0,0.0,1.0,15.0,-2.0
1702490769.8263693,8.0,5.0,-8.0,3.0,-4.0,-6.0,-5.0,-8.0
1702490769.849758,5.0,12.0,5.0,5.0,1.0,1.0,-1.0,-1.0
1702490769.849758,-12.0,-66.0,-23.0,-4.0,-5.0,-7.0,1.0,0.0
1702490769.849758,4.0,18.0,-3.0,-1.0,-2.0,-2.0,-15.0,-2.0
1702490769.849758,1.0,64.0,7.0,-4.0,-2.0,-2.0,-6.0,-3.0
1702490769.864955,0.0,1.0,-2.0,-1.0,-4.0,-1.0,4.0,6.0
1702490769.864955,-10.0,-3.0,19.0,3.0,0.0,-1.0,-7.0,-6.0
1702490769.8753843,2.0,-83.0,-21.0,-5.0,1.0,-2.0,0.0,-2.0
1702490769.8753843,1.0,-9.0,-43.0,-4.0,1.0,1.0,2.0,4.0
1702490769.8773847,13.0,49.0,29.0,2.0,0.0,1.0,-5.0,-1.0
1702490769.8773847,-14.0,24.0,-8.0,-10.0,-7.0,-4.0,-6.0,-8.0
1702490769.8872988,-5.0,12.0,35.0,4.0,2.0,0.0,5.0,0.0
1702490769.8872988,-6.0,-12.0,-19.0,1.0,0.0,2.0,3.0,2.0
1702490769.9011924,11.0,-11.0,-33.0,-6.0,-1.0,-3.0,2.0,0.0
1702490769.9011924,0.0,-3.0,-36.0,-3.0,-3.0,-3.0,-9.0,2.0
1702490769.9031157,1.0,4.0,-18.0,4.0,0.0,2.0,3.0,-5.0
1702490769.9031157,-1.0,-22.0,13.0,-6.0,-5.0,-7.0,-5.0,12.0
1702490769.935141,-35.0,-1.0,12.0,0.0,0.0,-1.0,1.0,-6.0
1702490769.935141,10.0,0.0,6.0,-5.0,-4.0,-1.0,-16.0,-7.0
1702490769.935141,-1.0,8.0,-6.0,-2.0,-5.0,-4.0,29.0,-3.0
1702490769.935141,0.0,11.0,7.0,-1.0,0.0,3.0,0.0,-3.0
1702490769.947894,12.0,-14.0,-3.0,1.0,2.0,2.0,-1.0,0.0
1702490769.947894,-10.0,-10.0,-2.0,-1.0,-3.0,-1.0,-5.0,1.0
1702490769.9508922,2.0,26.0,3.0,-1.0,-3.0,-1.0,-9.0,1.0
1702490769.9508922,-15.0,-6.0,7.0,0.0,2.0,-4.0,-8.0,-9.0
1702490769.9613376,11.0,10.0,5.0,-3.0,0.0,5.0,9.0,3.0
1702490769.9613376,1.0,-8.0,-11.0,2.0,1.0,-1.0,-17.0,2.0
1702490769.9613376,7.0,38.0,9.0,0.0,-2.0,-8.0,-3.0,-9.0
1702490769.9613376,22.0,18.0,5.0,1.0,6.0,8.0,28.0,3.0
1702490769.9830086,-30.0,-11.0,-8.0,-5.0,-4.0,-2.0,-10.0,-7.0
1702490769.9830086,7.0,16.0,5.0,0.0,0.0,1.0,3.0,6.0
1702490769.9841168,2.0,-5.0,1.0,-3.0,-1.0,2.0,-2.0,3.0
1702490769.9841168,-2.0,-15.0,5.0,1.0,-1.0,-3.0,-10.0,-3.0
1702490770.0062144,0.0,-1.0,-4.0,1.0,-1.0,-1.0,2.0,-5.0
1702490770.0062144,5.0,-19.0,2.0,0.0,0.0,-1.0,3.0,1.0
1702490770.0062144,-8.0,-22.0,1.0,-1.0,-3.0,-2.0,-7.0,0.0
1702490770.0062144,-4.0,-6.0,-3.0,0.0,0.0,1.0,-2.0,-6.0
1702490770.0209453,0.0,11.0,5.0,-1.0,-1.0,-2.0,5.0,1.0
1702490770.0209453,1.0,9.0,1.0,0.0,-3.0,-2.0,-2.0,-1.0
1702490770.0209453,-1.0,29.0,0.0,0.0,0.0,0.0,-9.0,0.0
1702490770.0209453,4.0,-99.0,-7.0,-2.0,-4.0,-1.0,-2.0,-2.0
1702490770.0426555,6.0,23.0,17.0,-3.0,-5.0,-6.0,-8.0,-1.0
1702490770.0426555,-6.0,14.0,-23.0,2.0,2.0,3.0,5.0,-2.0
1702490770.043656,-6.0,29.0,-4.0,-2.0,-6.0,-4.0,-1.0,-4.0
1702490770.043656,8.0,-32.0,2.0,-2.0,-3.0,-2.0,2.0,2.0
1702490770.0657823,-4.0,30.0,8.0,-1.0,-1.0,-2.0,-3.0,-4.0
1702490770.0657823,8.0,-30.0,32.0,-6.0,-1.0,-3.0,4.0,1.0
1702490770.0657823,3.0,-19.0,-27.0,0.0,4.0,3.0,-4.0,2.0
1702490770.066784,-8.0,32.0,-64.0,-5.0,-3.0,-3.0,-6.0,-3.0
1702490770.0812478,0.0,-45.0,-9.0,-1.0,-2.0,-1.0,-4.0,4.0
1702490770.0812478,0.0,35.0,24.0,-7.0,-2.0,-4.0,-7.0,-3.0
1702490770.0812478,-8.0,-44.0,23.0,5.0,3.0,3.0,-5.0,-4.0
1702490770.0812478,0.0,46.0,30.0,4.0,-2.0,-1.0,-2.0,0.0
1702490770.1032686,-2.0,-23.0,-100.0,-7.0,-3.0,-2.0,2.0,-2.0
1702490770.1032686,-12.0,-3.0,1.0,0.0,2.0,4.0,4.0,-3.0
1702490770.1041217,13.0,19.0,10.0,-12.0,-5.0,-4.0,-2.0,4.0
1702490770.1041217,-13.0,-12.0,4.0,11.0,1.0,-1.0,0.0,-4.0
1702490770.1260166,8.0,-49.0,25.0,2.0,0.0,-2.0,-3.0,5.0
1702490770.1260166,14.0,38.0,8.0,-5.0,-1.0,0.0,-12.0,0.0
1702490770.1260166,-2.0,26.0,-41.0,-8.0,-9.0,-4.0,-13.0,-7.0
1702490770.1260166,19.0,5.0,7.0,-1.0,7.0,4.0,20.0,5.0
1702490770.139867,6.0,-18.0,-1.0,1.0,-4.0,-5.0,3.0,1.0
1702490770.139867,7.0,27.0,1.0,4.0,0.0,1.0,-3.0,-3.0
1702490770.1583767,-18.0,-3.0,21.0,3.0,0.0,-2.0,6.0,-3.0
1702490770.1583767,6.0,1.0,-8.0,-6.0,-3.0,-1.0,5.0,-2.0
1702490770.1630955,-4.0,28.0,22.0,2.0,-1.0,-1.0,-5.0,0.0
1702490770.1630955,-6.0,-22.0,-11.0,-2.0,-5.0,-4.0,-6.0,-7.0
1702490770.164169,16.0,-18.0,6.0,-1.0,-2.0,-2.0,-8.0,3.0
1702490770.164169,-10.0,0.0,-1.0,-6.0,-4.0,-3.0,-2.0,-1.0
1702490770.1857393,6.0,-2.0,7.0,-2.0,-1.0,4.0,2.0,-4.0
1702490770.1857393,-6.0,-6.0,-6.0,7.0,1.0,0.0,0.0,3.0
1702490770.1867733,-8.0,-25.0,5.0,0.0,1.0,1.0,1.0,0.0
1702490770.1867733,2.0,12.0,16.0,1.0,-2.0,0.0,-10.0,-2.0
1702490770.2021255,-34.0,-1.0,7.0,-1.0,-3.0,-4.0,7.0,1.0
1702490770.2021255,2.0,-7.0,-14.0,0.0,4.0,0.0,7.0,1.0
1702490770.2021255,0.0,12.0,-2.0,-4.0,-5.0,0.0,-1.0,-7.0
1702490770.2021255,-1.0,14.0,45.0,5.0,-4.0,-2.0,-3.0,1.0
1702490770.2227688,-5.0,-15.0,28.0,-9.0,-3.0,-3.0,-5.0,-11.0
1702490770.2227688,1.0,-1.0,-28.0,4.0,5.0,4.0,4.0,1.0
1702490770.2239137,3.0,6.0,8.0,-1.0,-2.0,2.0,8.0,6.0
1702490770.2239137,-10.0,-8.0,-55.0,-9.0,2.0,0.0,-9.0,-2.0
1702490770.246613,2.0,-5.0,14.0,2.0,3.0,1.0,-1.0,0.0
1702490770.246613,-1.0,-2.0,27.0,-5.0,-4.0,-5.0,0.0,0.0
1702490770.246613,-3.0,-15.0,2.0,4.0,6.0,3.0,-1.0,-1.0
1702490770.246613,5.0,10.0,1.0,0.0,-3.0,-3.0,-3.0,0.0
1702490770.260602,6.0,16.0,-16.0,-4.0,-1.0,-1.0,-2.0,-1.0
1702490770.260602,-1.0,-3.0,4.0,3.0,1.0,2.0,6.0,-2.0
1702490770.260602,-4.0,-1.0,-29.0,-3.0,-6.0,-4.0,0.0,1.0
1702490770.260602,-9.0,11.0,14.0,-2.0,-3.0,-3.0,-11.0,-4.0
1702490770.282977,-3.0,-24.0,-18.0,4.0,1.0,0.0,1.0,-5.0
1702490770.282977,-1.0,-1.0,8.0,1.0,-1.0,-1.0,1.0,1.0
1702490770.2837443,0.0,-4.0,12.0,-3.0,-2.0,-2.0,-2.0,-1.0
1702490770.2837443,-1.0,-8.0,-33.0,-3.0,-1.0,0.0,-2.0,0.0
1702490770.3056488,7.0,27.0,3.0,6.0,0.0,-1.0,-4.0,0.0
1702490770.3056488,9.0,-49.0,2.0,-4.0,-2.0,0.0,1.0,6.0
1702490770.3056488,-40.0,14.0,2.0,-2.0,1.0,-2.0,-3.0,-16.0
1702490770.3056488,-7.0,34.0,3.0,-6.0,-3.0,-1.0,3.0,-3.0
1702490770.3235066,3.0,4.0,-5.0,-1.0,0.0,1.0,-1.0,1.0
1702490770.3235066,-8.0,-7.0,-13.0,-6.0,-3.0,-1.0,2.0,-1.0
1702490770.3275065,19.0,3.0,-1.0,-1.0,0.0,0.0,0.0,3.0
1702490770.3275065,-4.0,-49.0,2.0,-4.0,1.0,-2.0,-3.0,0.0
1702490770.3432815,-1.0,1.0,14.0,1.0,0.0,-1.0,0.0,0.0
1702490770.3432815,-3.0,23.0,-12.0,-3.0,-3.0,-2.0,-2.0,-2.0
1702490770.3442802,4.0,-20.0,-4.0,8.0,-5.0,-5.0,-6.0,1.0
1702490770.3442802,1.0,5.0,-7.0,-3.0,-2.0,-1.0,6.0,-1.0
1702490770.3652656,1.0,4.0,2.0,-6.0,1.0,-1.0,1.0,3.0
1702490770.3652656,-2.0,-5.0,-6.0,0.0,-4.0,-2.0,-1.0,-2.0
1702490770.3663204,3.0,4.0,2.0,1.0,4.0,0.0,0.0,4.0
1702490770.3663204,1.0,3.0,37.0,0.0,-3.0,0.0,-3.0,0.0
1702490770.382263,-6.0,-8.0,-69.0,7.0,2.0,1.0,-1.0,-3.0
1702490770.382263,-2.0,1.0,-4.0,-6.0,-7.0,-3.0,-1.0,-2.0
1702490770.396063,0.0,3.0,8.0,-7.0,-2.0,-2.0,-1.0,-2.0
1702490770.396063,1.0,2.0,15.0,1.0,3.0,1.0,-1.0,1.0
1702490770.4032555,-3.0,-3.0,19.0,12.0,1.0,1.0,-1.0,-1.0
1702490770.4032555,1.0,9.0,-9.0,3.0,-2.0,0.0,-1.0,-2.0
1702490770.404062,3.0,-9.0,-4.0,-3.0,-4.0,-3.0,0.0,0.0
1702490770.404062,0.0,-5.0,11.0,6.0,2.0,-1.0,0.0,1.0
1702490770.4323804,-2.0,4.0,-5.0,-13.0,-4.0,-1.0,-3.0,-2.0
1702490770.4323804,-1.0,2.0,7.0,-4.0,0.0,0.0,-1.0,-4.0
1702490770.4323804,-6.0,-7.0,4.0,15.0,0.0,-2.0,-1.0,-1.0
1702490770.4323804,-1.0,-2.0,-14.0,-4.0,-2.0,-1.0,-2.0,-2.0
1702490770.4483805,-1.0,-2.0,8.0,-4.0,-3.0,-1.0,-1.0,-1.0
1702490770.4483805,1.0,4.0,-11.0,11.0,2.0,-3.0,-1.0,-1.0
1702490770.4493728,2.0,2.0,4.0,-11.0,-1.0,0.0,1.0,0.0
1702490770.4493728,-3.0,1.0,-8.0,0.0,1.0,-2.0,-6.0,-2.0
1702490770.4636374,0.0,-24.0,-30.0,-6.0,1.0,1.0,1.0,1.0
1702490770.4636374,-5.0,0.0,10.0,-5.0,-5.0,-3.0,-10.0,-4.0
1702490770.4636374,6.0,25.0,12.0,5.0,4.0,3.0,2.0,2.0
1702490770.4636374,-5.0,-9.0,-7.0,-3.0,-3.0,-5.0,-3.0,-2.0
1702490770.4918237,2.0,14.0,22.0,-8.0,-7.0,-3.0,-6.0,0.0
1702490770.4918237,1.0,-2.0,-12.0,-4.0,1.0,-1.0,7.0,-2.0
1702490770.4918237,-5.0,-13.0,-7.0,-2.0,-2.0,2.0,9.0,-3.0
1702490770.4918237,2.0,14.0,5.0,0.0,-1.0,1.0,-6.0,0.0
1702490770.501796,0.0,1.0,10.0,4.0,-2.0,-2.0,2.0,-1.0
1702490770.501796,-3.0,0.0,1.0,-6.0,-2.0,-2.0,-1.0,-1.0
1702490770.502826,2.0,2.0,5.0,12.0,4.0,0.0,-3.0,0.0
1702490770.502826,1.0,-1.0,-1.0,3.0,5.0,1.0,1.0,-1.0
1702490770.5227988,-1.0,-1.0,9.0,5.0,3.0,1.0,0.0,1.0
1702490770.5238612,-2.0,0.0,-24.0,-21.0,-8.0,-4.0,-6.0,-1.0
1702490770.5238612,1.0,-3.0,2.0,28.0,13.0,4.0,-1.0,0.0
1702490770.5238612,-4.0,-12.0,-12.0,-10.0,-10.0,-4.0,1.0,-2.0
1702490770.5489888,0.0,10.0,27.0,9.0,0.0,-2.0,-2.0,-3.0
1702490770.5489888,0.0,5.0,38.0,-15.0,1.0,-1.0,-1.0,3.0
1702490770.5489888,-6.0,-30.0,-111.0,-8.0,-5.0,-1.0,-2.0,-4.0
1702490770.5489888,6.0,1.0,7.0,0.0,0.0,0.0,1.0,1.0
1702490770.5606961,-13.0,-1.0,7.0,3.0,-1.0,-1.0,-4.0,-4.0
1702490770.5606961,7.0,8.0,25.0,-7.0,1.0,1.0,1.0,3.0
1702490770.5606961,-8.0,18.0,-12.0,-1.0,-5.0,-3.0,-5.0,-3.0
1702490770.5606961,-2.0,-91.0,2.0,1.0,6.0,5.0,0.0,2.0
1702490770.5831761,1.0,35.0,-18.0,-8.0,-3.0,-3.0,-3.0,-4.0
1702490770.5831761,-7.0,4.0,5.0,50.0,10.0,4.0,1.0,1.0
1702490770.5839653,28.0,21.0,8.0,-3.0,0.0,-2.0,-3.0,3.0
1702490770.5839653,-17.0,8.0,19.0,8.0,1.0,-5.0,-1.0,-2.0
1702490770.608637,-3.0,-6.0,-41.0,-11.0,-2.0,0.0,0.0,1.0
1702490770.608637,-6.0,-27.0,-7.0,-11.0,-4.0,-3.0,-1.0,-6.0
1702490770.608637,4.0,-3.0,32.0,-4.0,-5.0,-5.0,-11.0,0.0
1702490770.608637,10.0,30.0,25.0,4.0,-8.0,0.0,6.0,-1.0
1702490770.6196363,-13.0,34.0,5.0,1.0,9.0,2.0,0.0,-4.0
1702490770.6196363,7.0,0.0,-5.0,0.0,4.0,2.0,-3.0,-1.0
1702490770.6276715,-9.0,-20.0,-21.0,-18.0,-4.0,-1.0,-3.0,-2.0
1702490770.6286447,-5.0,9.0,-10.0,-1.0,0.0,-1.0,4.0,-1.0
1702490770.652741,-1.0,-21.0,-1.0,-6.0,-7.0,-1.0,-8.0,0.0
1702490770.652741,13.0,18.0,-8.0,-3.0,-5.0,-2.0,-2.0,0.0
1702490770.652741,-53.0,-20.0,38.0,-6.0,-4.0,-1.0,-2.0,-7.0
1702490770.652741,0.0,-1.0,-16.0,0.0,-1.0,-1.0,-3.0,-1.0
1702490770.673855,7.0,-2.0,-5.0,1.0,-2.0,-2.0,2.0,1.0
1702490770.673855,-2.0,6.0,0.0,-2.0,0.0,0.0,-1.0,-1.0
1702490770.674811,11.0,-6.0,9.0,1.0,1.0,-1.0,0.0,2.0
1702490770.674811,-4.0,9.0,-22.0,-4.0,-4.0,-1.0,-4.0,-4.0
1702490770.6797843,-1.0,-30.0,11.0,-3.0,1.0,-1.0,0.0,0.0
1702490770.6797843,-6.0,-17.0,-3.0,3.0,-1.0,-3.0,-2.0,-5.0
1702490770.6881478,13.0,26.0,2.0,-5.0,-2.0,-2.0,2.0,1.0
1702490770.6881478,-1.0,-5.0,-9.0,-4.0,0.0,-1.0,-5.0,-4.0
1702490770.7130654,6.0,4.0,10.0,1.0,1.0,0.0,-6.0,2.0
1702490770.7130654,-8.0,-56.0,-11.0,-1.0,-4.0,-1.0,9.0,-1.0
1702490770.7130654,6.0,15.0,1.0,-1.0,-2.0,0.0,1.0,-2.0
1702490770.7130654,5.0,13.0,11.0,-5.0,-4.0,-1.0,-2.0,2.0
1702490770.7265005,8.0,-5.0,-7.0,-1.0,-2.0,-4.0,1.0,2.0
1702490770.7265005,-16.0,-36.0,-19.0,-8.0,-1.0,-1.0,-5.0,-4.0
1702490770.7271256,27.0,-8.0,6.0,0.0,1.0,-5.0,11.0,3.0
1702490770.7271256,-49.0,7.0,16.0,-9.0,3.0,4.0,-4.0,-5.0
1702490770.7485647,-2.0,-31.0,23.0,0.0,-6.0,-3.0,2.0,-1.0
1702490770.7495375,5.0,20.0,-10.0,-6.0,0.0,0.0,-2.0,2.0
1702490770.7495375,13.0,-6.0,15.0,8.0,-1.0,0.0,4.0,2.0
1702490770.7495375,10.0,-6.0,-17.0,-5.0,-1.0,-3.0,-15.0,-4.0
1702490770.776076,0.0,7.0,-28.0,-4.0,-1.0,1.0,21.0,1.0
1702490770.776076,-12.0,6.0,4.0,-3.0,-1.0,2.0,0.0,-1.0
1702490770.776076,5.0,-18.0,24.0,-13.0,-6.0,-1.0,-7.0,-1.0
1702490770.776076,-26.0,-1.0,3.0,4.0,-2.0,-2.0,3.0,2.0
1702490770.7866907,-3.0,-4.0,1.0,-2.0,1.0,-1.0,-10.0,-7.0
1702490770.7866907,-4.0,-2.0,38.0,9.0,-1.0,-2.0,-4.0,2.0
1702490770.7866907,7.0,20.0,-62.0,-5.0,3.0,-1.0,-1.0,-4.0
1702490770.7866907,17.0,44.0,17.0,5.0,-7.0,-5.0,-9.0,-7.0
1702490770.7997487,9.0,33.0,15.0,0.0,-2.0,-3.0,-10.0,3.0
1702490770.7997487,6.0,-2.0,-11.0,-4.0,-3.0,1.0,11.0,9.0
1702490770.8077598,-35.0,-6.0,29.0,4.0,-1.0,1.0,-3.0,-15.0
1702490770.8077598,30.0,34.0,-53.0,-10.0,1.0,-2.0,7.0,-1.0
1702490770.8326108,-10.0,-32.0,19.0,-3.0,-2.0,-1.0,-5.0,-4.0
1702490770.8326108,1.0,19.0,-5.0,4.0,1.0,-3.0,-10.0,3.0
1702490770.8326108,8.0,-3.0,15.0,-4.0,-3.0,1.0,1.0,5.0
1702490770.8326108,5.0,-44.0,-7.0,11.0,7.0,1.0,3.0,1.0
1702490770.8456361,-7.0,-17.0,-9.0,-5.0,-3.0,-1.0,-4.0,-3.0
1702490770.8456361,19.0,43.0,6.0,7.0,1.0,-3.0,4.0,-4.0
1702490770.8466423,-28.0,6.0,-10.0,-3.0,-3.0,-1.0,0.0,3.0
1702490770.8466423,-12.0,-50.0,19.0,-2.0,-3.0,0.0,-1.0,-2.0
1702490770.8680289,11.0,-8.0,-29.0,3.0,-3.0,-2.0,-14.0,-1.0
1702490770.8680289,18.0,80.0,16.0,-3.0,-2.0,-5.0,-15.0,-4.0
1702490770.8688774,-23.0,-14.0,-4.0,-5.0,-3.0,0.0,3.0,-5.0
1702490770.8688774,22.0,70.0,18.0,14.0,1.0,1.0,5.0,8.0
1702490770.8828576,-10.0,-48.0,-24.0,-8.0,3.0,0.0,-5.0,4.0
1702490770.8828576,-17.0,-18.0,-6.0,-8.0,-7.0,-2.0,10.0,-14.0
1702490770.8836915,6.0,-5.0,20.0,-2.0,1.0,-1.0,-2.0,1.0
1702490770.8836915,-3.0,2.0,-32.0,-1.0,2.0,-2.0,-12.0,-2.0
1702490770.9058022,-11.0,-3.0,-3.0,-5.0,-4.0,0.0,10.0,5.0
1702490770.9058022,-3.0,1.0,14.0,8.0,3.0,-1.0,1.0,-5.0
1702490770.9058022,15.0,-14.0,-56.0,-6.0,-1.0,-4.0,1.0,3.0
1702490770.9058022,8.0,1.0,25.0,2.0,-4.0,0.0,5.0,3.0
1702490770.935464,-5.0,10.0,-36.0,-2.0,0.0,-2.0,-7.0,-3.0
1702490770.935464,-18.0,-13.0,12.0,1.0,3.0,6.0,3.0,1.0
