1701634030.2276142,26.0,-31.0,-10.0,10.0,6.0,10.0,22.0,-1.0
1701634030.2276142,-10.0,21.0,-62.0,-12.0,-1.0,-1.0,1.0,-62.0
1701634030.2476137,-6.0,1.0,-2.0,-8.0,-10.0,-46.0,-83.0,9.0
1701634030.2476137,-55.0,24.0,6.0,18.0,8.0,23.0,49.0,-61.0
1701634030.2476137,2.0,9.0,33.0,2.0,-6.0,-7.0,-1.0,6.0
1701634030.2476137,-29.0,1.0,17.0,4.0,6.0,19.0,28.0,68.0
1701634030.2676144,-34.0,-22.0,-18.0,-15.0,-4.0,-15.0,-12.0,-97.0
1701634030.2676144,31.0,28.0,6.0,5.0,-2.0,0.0,2.0,15.0
1701634030.2676144,-22.0,-30.0,-9.0,-10.0,-6.0,-5.0,9.0,-14.0
1701634030.2676144,-1.0,-4.0,-20.0,-6.0,0.0,-8.0,-21.0,-15.0
1701634030.2776387,36.0,45.0,20.0,16.0,14.0,18.0,4.0,-20.0
1701634030.2776387,39.0,12.0,13.0,13.0,17.0,20.0,21.0,19.0
1701634030.2876544,1.0,-5.0,1.0,-4.0,-2.0,2.0,-22.0,32.0
1701634030.2876544,41.0,-6.0,-11.0,-7.0,-10.0,2.0,34.0,1.0
1701634030.3077128,40.0,6.0,-15.0,-5.0,-3.0,-3.0,27.0,-29.0
1701634030.3077128,19.0,3.0,7.0,-2.0,-5.0,-2.0,-15.0,41.0
1701634030.3077128,-25.0,9.0,3.0,3.0,9.0,-18.0,-39.0,-25.0
1701634030.3077128,67.0,-5.0,4.0,7.0,-6.0,32.0,54.0,50.0
1701634030.3376133,-6.0,5.0,-1.0,-6.0,2.0,8.0,-44.0,-92.0
1701634030.3376133,34.0,2.0,-2.0,5.0,-3.0,-17.0,-59.0,50.0
1701634030.3376133,28.0,2.0,-5.0,-3.0,5.0,19.0,-2.0,-11.0
1701634030.3376133,-24.0,15.0,-8.0,-11.0,-11.0,-22.0,19.0,25.0
1701634030.3478456,-32.0,-5.0,-2.0,-6.0,-12.0,-31.0,-48.0,-33.0
1701634030.3478456,-64.0,-8.0,-4.0,-7.0,-20.0,9.0,37.0,16.0
1701634030.3478456,33.0,25.0,13.0,14.0,27.0,16.0,-10.0,63.0
1701634030.3478456,-66.0,-5.0,3.0,-4.0,-9.0,-19.0,-92.0,-97.0
1701634030.3678932,84.0,15.0,10.0,7.0,15.0,80.0,102.0,127.0
1701634030.3678932,93.0,-3.0,0.0,-3.0,-5.0,-48.0,-95.0,-72.0
1701634030.3678932,17.0,-10.0,-2.0,-2.0,-6.0,10.0,79.0,64.0
1701634030.3678932,-13.0,3.0,-10.0,-9.0,-7.0,-12.0,-25.0,-30.0
1701634030.3979175,11.0,2.0,6.0,5.0,7.0,-12.0,-28.0,-9.0
1701634030.3979175,46.0,14.0,-1.0,5.0,5.0,7.0,31.0,20.0
1701634030.3979175,26.0,-8.0,-1.0,-6.0,-9.0,13.0,23.0,-47.0
1701634030.3979175,-44.0,-5.0,-8.0,-7.0,-6.0,-38.0,-67.0,27.0
1701634030.4079227,31.0,4.0,6.0,2.0,1.0,-6.0,-14.0,-66.0
1701634030.4079227,-54.0,2.0,0.0,-1.0,2.0,12.0,10.0,-39.0
1701634030.4079227,-11.0,-8.0,-13.0,-11.0,-8.0,-9.0,-42.0,-71.0
1701634030.4079227,0.0,-2.0,-6.0,-2.0,-5.0,-6.0,22.0,79.0
1701634030.4276135,-7.0,-22.0,6.0,6.0,10.0,3.0,29.0,60.0
1701634030.4276135,14.0,7.0,-6.0,-5.0,-2.0,20.0,29.0,18.0
1701634030.4276135,34.0,15.0,7.0,5.0,-2.0,-33.0,-58.0,53.0
1701634030.4276135,-39.0,6.0,8.0,5.0,1.0,7.0,21.0,-45.0
1701634030.4480555,-1.0,-3.0,-8.0,-18.0,-18.0,-12.0,-3.0,1.0
1701634030.4480555,2.0,5.0,-3.0,6.0,15.0,0.0,-10.0,-28.0
1701634030.4480555,4.0,-23.0,-1.0,-3.0,-2.0,-7.0,-2.0,32.0
1701634030.4480555,-41.0,2.0,4.0,4.0,2.0,-2.0,0.0,-25.0
1701634030.4680638,-36.0,-8.0,-6.0,7.0,2.0,-2.0,2.0,-63.0
1701634030.4680638,-26.0,15.0,8.0,1.0,0.0,-10.0,-5.0,46.0
1701634030.4680638,-22.0,2.0,0.0,5.0,-1.0,-3.0,-30.0,-56.0
1701634030.4680638,-20.0,-61.0,-10.0,-10.0,-1.0,6.0,23.0,-3.0
1701634030.492949,18.0,75.0,16.0,6.0,-5.0,0.0,7.0,4.0
1701634030.492949,-34.0,-48.0,-17.0,-6.0,1.0,4.0,8.0,7.0
1701634030.494264,-10.0,-32.0,-16.0,-11.0,-5.0,1.0,0.0,-16.0
1701634030.494264,22.0,45.0,0.0,0.0,-1.0,3.0,-5.0,-5.0
1701634030.511342,-28.0,-30.0,-7.0,0.0,2.0,2.0,3.0,10.0
1701634030.511342,-1.0,26.0,21.0,13.0,5.0,1.0,5.0,4.0
1701634030.5134115,-22.0,-38.0,-24.0,-9.0,-1.0,6.0,15.0,42.0
1701634030.5134115,-19.0,15.0,16.0,6.0,4.0,2.0,-6.0,-22.0
1701634030.5311115,-56.0,-52.0,-29.0,-20.0,-11.0,-9.0,-20.0,19.0
1701634030.5311115,-30.0,42.0,10.0,4.0,-1.0,-2.0,0.0,-4.0
1701634030.5311115,0.0,-34.0,6.0,8.0,2.0,2.0,18.0,9.0
1701634030.5311115,13.0,67.0,14.0,-1.0,-3.0,-3.0,2.0,3.0
1701634030.5508058,5.0,-27.0,-7.0,0.0,-2.0,-8.0,-20.0,-28.0
1701634030.5508058,-25.0,-82.0,-9.0,0.0,-1.0,-9.0,-7.0,-24.0
1701634030.5508058,-2.0,22.0,6.0,0.0,-6.0,-2.0,-15.0,-42.0
1701634030.5508058,25.0,8.0,-3.0,-7.0,-1.0,3.0,7.0,18.0
1701634030.5707963,-23.0,-39.0,-8.0,-6.0,2.0,2.0,6.0,-12.0
1701634030.5707963,-9.0,-34.0,-6.0,-4.0,-6.0,-1.0,-2.0,0.0
1701634030.5707963,13.0,87.0,25.0,14.0,5.0,-2.0,9.0,-16.0
1701634030.5707963,-8.0,-63.0,-5.0,1.0,3.0,0.0,-13.0,-19.0
1701634030.600924,5.0,51.0,2.0,-2.0,-2.0,2.0,7.0,4.0
1701634030.600924,-8.0,-25.0,-7.0,1.0,5.0,2.0,-6.0,-4.0
1701634030.600924,-26.0,-15.0,-4.0,-4.0,-2.0,-1.0,0.0,5.0
1701634030.600924,29.0,33.0,25.0,14.0,3.0,1.0,7.0,15.0
1701634030.6107955,-13.0,-24.0,-9.0,-6.0,-8.0,-13.0,-9.0,-7.0
1701634030.6107955,-2.0,6.0,3.0,-4.0,-6.0,-8.0,-9.0,-9.0
1701634030.6107955,-4.0,41.0,2.0,3.0,0.0,-3.0,14.0,9.0
1701634030.6107955,-1.0,-12.0,-3.0,1.0,7.0,9.0,8.0,13.0
1701634030.631096,-2.0,12.0,7.0,-3.0,-1.0,5.0,-18.0,-12.0
1701634030.631096,11.0,7.0,6.0,4.0,0.0,-3.0,-7.0,0.0
1701634030.631096,-15.0,-72.0,-18.0,-4.0,-2.0,0.0,10.0,6.0
1701634030.631096,-12.0,-2.0,6.0,-3.0,-5.0,-9.0,-15.0,-14.0
1701634030.6511626,21.0,49.0,7.0,11.0,2.0,-1.0,14.0,23.0
1701634030.6511626,0.0,-5.0,-17.0,-6.0,0.0,5.0,5.0,-1.0
1701634030.6511626,23.0,124.0,7.0,5.0,4.0,1.0,-7.0,-5.0
1701634030.6511626,-23.0,-117.0,-19.0,-14.0,-7.0,-4.0,0.0,1.0
1701634030.660797,9.0,111.0,-3.0,-2.0,4.0,8.0,3.0,-3.0
1701634030.660797,-7.0,-84.0,-30.0,-8.0,-10.0,-12.0,-13.0,8.0
1701634030.67083,8.0,51.0,-20.0,-4.0,-8.0,-10.0,-21.0,-15.0
1701634030.67083,8.0,63.0,14.0,-5.0,4.0,3.0,1.0,-2.0
1701634030.6911414,6.0,-22.0,24.0,1.0,-2.0,-2.0,-4.0,31.0
1701634030.6911414,0.0,1.0,-14.0,-2.0,2.0,5.0,9.0,13.0
1701634030.6911414,25.0,40.0,9.0,-8.0,-7.0,-1.0,7.0,9.0
1701634030.6911414,6.0,-29.0,-3.0,17.0,3.0,-3.0,0.0,9.0
1701634030.7107985,-9.0,-63.0,-12.0,4.0,3.0,3.0,10.0,1.0
1701634030.7107985,-13.0,-1.0,13.0,7.0,2.0,-5.0,-6.0,-6.0
1701634030.7107985,-16.0,-63.0,7.0,-3.0,1.0,3.0,-1.0,-15.0
1701634030.7107985,26.0,120.0,52.0,25.0,9.0,4.0,1.0,-18.0
1701634030.7312033,4.0,-109.0,-39.0,-8.0,-4.0,-7.0,-4.0,-19.0
1701634030.7312033,11.0,67.0,26.0,8.0,-8.0,-16.0,-31.0,-17.0
1701634030.7312033,-22.0,-72.0,-15.0,-5.0,0.0,2.0,3.0,-5.0
1701634030.7312033,0.0,5.0,-7.0,-3.0,0.0,2.0,7.0,9.0
1701634030.7510016,-5.0,-34.0,8.0,4.0,1.0,-1.0,-4.0,-12.0
1701634030.7510016,3.0,118.0,-14.0,0.0,0.0,4.0,11.0,11.0
1701634030.7510016,-14.0,-64.0,31.0,-4.0,-1.0,-1.0,-7.0,-16.0
1701634030.7510016,-1.0,-14.0,-40.0,-14.0,-12.0,-10.0,-4.0,12.0
1701634030.7708285,-3.0,-29.0,-4.0,-10.0,-4.0,-4.0,1.0,-7.0
1701634030.7708285,5.0,70.0,19.0,2.0,5.0,7.0,3.0,-16.0
1701634030.7708285,-28.0,-103.0,-42.0,12.0,6.0,0.0,-1.0,-2.0
1701634030.7708285,10.0,33.0,1.0,0.0,2.0,3.0,0.0,5.0
1701634030.781162,7.0,68.0,64.0,-2.0,-3.0,-2.0,-3.0,4.0
1701634030.781162,-7.0,-59.0,-43.0,-26.0,-11.0,-7.0,-2.0,-7.0
1701634030.7911372,-1.0,-1.0,8.0,-20.0,-6.0,1.0,4.0,0.0
1701634030.7911372,-1.0,-36.0,1.0,15.0,4.0,2.0,-1.0,1.0
1701634030.810986,-6.0,-19.0,-75.0,-9.0,3.0,5.0,6.0,4.0
1701634030.810986,0.0,-16.0,20.0,19.0,10.0,6.0,2.0,5.0
1701634030.810986,19.0,111.0,51.0,5.0,-2.0,-1.0,3.0,7.0
1701634030.810986,-14.0,-72.0,-72.0,-33.0,-14.0,-10.0,-7.0,4.0
1701634030.8311536,-6.0,21.0,-2.0,-1.0,-9.0,-8.0,-5.0,1.0
1701634030.8311536,10.0,48.0,54.0,22.0,7.0,7.0,6.0,5.0
1701634030.8311536,15.0,54.0,13.0,44.0,22.0,8.0,5.0,6.0
1701634030.8311536,-31.0,-69.0,-75.0,-85.0,-18.0,-6.0,-6.0,-15.0
1701634030.8411534,3.0,71.0,115.0,11.0,-12.0,-16.0,-9.0,-2.0
1701634030.8411534,4.0,8.0,-21.0,-4.0,4.0,5.0,4.0,1.0
1701634030.8511245,-4.0,26.0,-44.0,9.0,0.0,-2.0,1.0,1.0
1701634030.8511245,10.0,19.0,-36.0,15.0,6.0,8.0,6.0,9.0
1701634030.8611412,-10.0,-27.0,35.0,-30.0,-11.0,-7.0,-10.0,-6.0
1701634030.8611412,-11.0,5.0,-60.0,-47.0,-37.0,-25.0,-13.0,-12.0
1701634030.8807962,-19.0,-39.0,85.0,22.0,8.0,6.0,1.0,0.0
1701634030.8807962,3.0,39.0,-105.0,-10.0,-7.0,-3.0,-3.0,-2.0
1701634030.8911412,14.0,67.0,61.0,36.0,25.0,11.0,5.0,6.0
1701634030.8911412,-4.0,7.0,-29.0,-41.0,-15.0,1.0,5.0,1.0
1701634030.8911412,3.0,3.0,11.0,-19.0,-5.0,-7.0,-5.0,0.0
1701634030.8911412,-28.0,-93.0,46.0,-6.0,-13.0,-11.0,-12.0,-15.0
1701634030.9008794,-2.0,-34.0,84.0,13.0,0.0,6.0,3.0,2.0
1701634030.9008794,-1.0,-34.0,15.0,16.0,-7.0,-5.0,0.0,2.0
1701634030.910982,-15.0,-18.0,-107.0,-71.0,-9.0,-2.0,-2.0,-5.0
1701634030.910982,25.0,111.0,127.0,59.0,26.0,12.0,10.0,13.0
1701634030.9309301,3.0,35.0,-128.0,-6.0,5.0,-1.0,2.0,6.0
1701634030.9309301,-17.0,-73.0,89.0,48.0,9.0,-5.0,-6.0,-9.0
1701634030.9309301,-25.0,-87.0,-104.0,-66.0,-31.0,-14.0,-11.0,-13.0
1701634030.9309301,32.0,93.0,127.0,25.0,-5.0,3.0,9.0,14.0
1701634030.9511447,-21.0,-43.0,-7.0,-77.0,6.0,2.0,-3.0,-10.0
1701634030.9511447,16.0,38.0,127.0,97.0,10.0,4.0,2.0,5.0
1701634030.9511447,30.0,74.0,47.0,20.0,20.0,8.0,9.0,14.0
1701634030.9511447,-9.0,16.0,34.0,35.0,2.0,-9.0,-8.0,-7.0
1701634030.9610522,-4.0,-61.0,-83.0,-62.0,-4.0,16.0,8.0,6.0
1701634030.9610522,-7.0,-41.0,43.0,21.0,-19.0,-11.0,-7.0,-10.0
1701634030.971134,-23.0,-66.0,5.0,-2.0,-7.0,-14.0,-9.0,-14.0
1701634030.971134,17.0,-101.0,9.0,11.0,22.0,22.0,14.0,19.0
1701634030.9907954,-67.0,-51.0,75.0,-37.0,-68.0,-55.0,-39.0,-42.0
1701634030.9907954,25.0,78.0,106.0,5.0,32.0,19.0,12.0,13.0
1701634030.9907954,15.0,98.0,107.0,63.0,21.0,20.0,15.0,14.0
1701634030.9907954,-3.0,-21.0,-82.0,-19.0,-12.0,-14.0,-8.0,-9.0
1701634031.010842,9.0,19.0,1.0,39.0,29.0,7.0,6.0,9.0
1701634031.010842,2.0,-10.0,-8.0,-8.0,21.0,16.0,10.0,4.0
1701634031.010842,14.0,29.0,109.0,23.0,2.0,2.0,-3.0,3.0
1701634031.010842,-12.0,-58.0,-22.0,-53.0,-23.0,-15.0,-1.0,0.0
1701634031.027176,0.0,34.0,89.0,56.0,4.0,4.0,-12.0,-10.0
1701634031.027176,-21.0,-42.0,-128.0,-103.0,-37.0,-18.0,-11.0,-11.0
1701634031.0359807,34.0,79.0,69.0,45.0,20.0,12.0,13.0,17.0
1701634031.0359807,-24.0,-35.0,-86.0,-2.0,-12.0,-3.0,-7.0,-17.0
1701634031.0505996,5.0,-14.0,-56.0,-26.0,-9.0,-4.0,2.0,4.0
1701634031.0505996,16.0,12.0,-28.0,-4.0,9.0,0.0,4.0,8.0
1701634031.0532916,-6.0,-75.0,-51.0,-36.0,-17.0,-9.0,2.0,10.0
1701634031.0535421,-12.0,61.0,101.0,23.0,0.0,-19.0,-27.0,-31.0
1701634031.0737092,4.0,-4.0,16.0,42.0,33.0,37.0,23.0,3.0
1701634031.0737092,17.0,-22.0,16.0,-1.0,12.0,16.0,10.0,31.0
1701634031.0737092,-22.0,-37.0,-105.0,-39.0,-21.0,-17.0,-16.0,-35.0
1701634031.0737092,29.0,-6.0,72.0,-6.0,-2.0,0.0,7.0,32.0
1701634031.0835345,-24.0,45.0,-7.0,10.0,-7.0,-18.0,1.0,-8.0
1701634031.0835345,-3.0,31.0,-66.0,-3.0,2.0,2.0,-10.0,-65.0
1701634031.0937512,-74.0,-79.0,-93.0,-20.0,-13.0,-8.0,-11.0,10.0
1701634031.0937512,-31.0,33.0,10.0,7.0,4.0,7.0,1.0,-45.0
1701634031.1035333,102.0,14.0,-40.0,-5.0,0.0,-6.0,3.0,84.0
1701634031.1035333,-59.0,-12.0,17.0,10.0,3.0,2.0,0.0,101.0
1701634031.1035333,73.0,62.0,53.0,2.0,-4.0,-7.0,-2.0,-11.0
1701634031.1035333,-44.0,14.0,-47.0,-4.0,12.0,15.0,8.0,-71.0
1701634031.1337366,81.0,10.0,5.0,13.0,-14.0,-9.0,6.0,86.0
1701634031.1337366,-37.0,-3.0,-2.0,-10.0,-10.0,-18.0,-36.0,-85.0
1701634031.1337366,82.0,8.0,-3.0,7.0,19.0,22.0,43.0,91.0
1701634031.1337366,-11.0,-42.0,-10.0,-13.0,-13.0,-1.0,6.0,36.0
1701634031.1439312,-42.0,27.0,-16.0,-5.0,-4.0,-12.0,-10.0,-88.0
1701634031.1439312,-31.0,-13.0,1.0,-3.0,2.0,-6.0,-34.0,-6.0
1701634031.1537955,-3.0,-19.0,-2.0,3.0,-4.0,-41.0,-37.0,-35.0
1701634031.1537955,85.0,23.0,-12.0,-3.0,2.0,26.0,16.0,74.0
1701634031.1635358,-43.0,9.0,7.0,5.0,-2.0,-2.0,-3.0,-44.0
1701634031.1635358,45.0,-3.0,-17.0,-12.0,-10.0,0.0,16.0,40.0
1701634031.1635358,-71.0,3.0,18.0,11.0,3.0,3.0,34.0,-36.0
1701634031.1635358,-49.0,-13.0,-5.0,-10.0,-9.0,-23.0,-56.0,-5.0
1701634031.193536,11.0,3.0,-8.0,7.0,5.0,3.0,-31.0,-27.0
1701634031.193536,25.0,24.0,9.0,4.0,6.0,1.0,-3.0,-12.0
1701634031.193536,87.0,0.0,3.0,0.0,-1.0,15.0,15.0,29.0
1701634031.193536,14.0,20.0,-2.0,-3.0,-1.0,-2.0,23.0,12.0
1701634031.2039013,-28.0,-25.0,-11.0,1.0,2.0,8.0,6.0,-5.0
1701634031.2039013,5.0,-17.0,-6.0,-4.0,-4.0,-11.0,12.0,-5.0
1701634031.2137697,-31.0,-19.0,3.0,-3.0,-6.0,6.0,2.0,16.0
1701634031.2137697,19.0,22.0,-6.0,5.0,7.0,7.0,39.0,-5.0
1701634031.2235332,66.0,22.0,6.0,8.0,4.0,4.0,14.0,66.0
1701634031.2235332,-42.0,-11.0,0.0,-4.0,0.0,-4.0,0.0,-20.0
1701634031.2235332,-45.0,-10.0,-3.0,-5.0,-9.0,-18.0,-93.0,-90.0
1701634031.2235332,-9.0,2.0,2.0,-2.0,2.0,-8.0,-20.0,-19.0
1701634031.2439847,-24.0,-11.0,-3.0,4.0,7.0,18.0,28.0,33.0
1701634031.2535877,28.0,7.0,4.0,3.0,7.0,-7.0,25.0,14.0
1701634031.2535877,2.0,21.0,-7.0,-6.0,-6.0,29.0,29.0,18.0
1701634031.2535877,15.0,-17.0,4.0,6.0,6.0,-2.0,-4.0,2.0
1701634031.2635694,-66.0,-10.0,-2.0,-1.0,-4.0,-18.0,-16.0,-48.0
1701634031.2635694,54.0,4.0,-8.0,-9.0,-11.0,-7.0,7.0,52.0
1701634031.2735655,17.0,2.0,9.0,10.0,14.0,29.0,12.0,-21.0
1701634031.2735655,-28.0,26.0,-3.0,-4.0,-3.0,-15.0,-29.0,-60.0
1701634031.2835333,10.0,-20.0,-4.0,-1.0,4.0,24.0,22.0,21.0
1701634031.2835333,-2.0,9.0,-4.0,-2.0,-3.0,-17.0,-27.0,-34.0
1701634031.2939,-5.0,-10.0,0.0,0.0,-1.0,-6.0,-4.0,0.0
1701634031.2939,-33.0,-16.0,-2.0,-6.0,-6.0,6.0,13.0,22.0
1701634031.313748,0.0,13.0,5.0,3.0,4.0,3.0,0.0,-16.0
1701634031.313748,-20.0,-10.0,-4.0,-2.0,3.0,7.0,12.0,31.0
1701634031.313748,-12.0,-3.0,2.0,0.0,0.0,-12.0,7.0,46.0
1701634031.313748,-15.0,-6.0,-2.0,-4.0,-3.0,-7.0,-31.0,-54.0
1701634031.3335323,-22.0,8.0,2.0,2.0,3.0,-2.0,10.0,-6.0
1701634031.3335323,47.0,-4.0,0.0,-1.0,1.0,5.0,1.0,18.0
1701634031.3335323,-52.0,-1.0,-5.0,-4.0,-6.0,-45.0,-48.0,-19.0
1701634031.3335323,47.0,2.0,2.0,3.0,8.0,53.0,63.0,41.0
1701634031.3439379,40.0,4.0,2.0,-2.0,-2.0,-12.0,-3.0,39.0
1701634031.3439379,-1.0,-6.0,-1.0,-3.0,0.0,20.0,-5.0,-82.0
1701634031.353536,19.0,4.0,-3.0,-4.0,-6.0,-23.0,-27.0,-10.0
1701634031.353536,13.0,-14.0,-14.0,-9.0,-5.0,-19.0,-21.0,49.0
1701634031.373957,12.0,13.0,5.0,4.0,0.0,-3.0,-6.0,5.0
1701634031.373957,-28.0,-17.0,-11.0,-8.0,-16.0,-45.0,-32.0,-32.0
1701634031.373957,-22.0,22.0,-8.0,-4.0,0.0,54.0,46.0,-15.0
1701634031.373957,-31.0,-9.0,-1.0,-2.0,-3.0,-25.0,-39.0,-9.0
1701634031.393955,8.0,-7.0,-6.0,-5.0,-4.0,-6.0,-4.0,45.0
1701634031.393955,-22.0,-6.0,0.0,-2.0,-3.0,14.0,37.0,8.0
1701634031.393955,3.0,0.0,0.0,3.0,5.0,4.0,12.0,-22.0
1701634031.393955,-51.0,-1.0,-6.0,-4.0,-8.0,-43.0,-53.0,-36.0
1701634031.4042645,-18.0,0.0,12.0,9.0,8.0,52.0,30.0,59.0
1701634031.4042645,41.0,-3.0,-3.0,-4.0,-4.0,10.0,71.0,34.0
1701634031.4142509,-7.0,0.0,2.0,-2.0,7.0,20.0,-18.0,-10.0
1701634031.4142509,-28.0,5.0,1.0,2.0,4.0,25.0,22.0,-2.0
1701634031.4339564,-61.0,-30.0,-5.0,-8.0,-13.0,-71.0,-62.0,-57.0
1701634031.4339564,27.0,1.0,-5.0,-6.0,-9.0,3.0,-7.0,-19.0
1701634031.4339564,14.0,6.0,1.0,-4.0,-9.0,-5.0,40.0,71.0
1701634031.4339564,-16.0,-9.0,-3.0,2.0,10.0,22.0,18.0,16.0
1701634031.4539557,-20.0,-9.0,-4.0,-6.0,-8.0,-46.0,-70.0,-128.0
1701634031.4539557,16.0,8.0,5.0,5.0,5.0,20.0,11.0,28.0
1701634031.4539557,-22.0,-10.0,-8.0,-7.0,-11.0,-19.0,-33.0,-4.0
1701634031.4539557,0.0,23.0,-5.0,-7.0,-10.0,-24.0,-1.0,63.0
1701634031.474372,-23.0,-21.0,8.0,7.0,7.0,30.0,60.0,28.0
1701634031.474372,-44.0,-2.0,1.0,-1.0,2.0,-24.0,-67.0,-105.0
1701634031.474372,-18.0,-11.0,-2.0,-1.0,-3.0,-21.0,-41.0,-28.0
1701634031.474372,39.0,20.0,3.0,7.0,3.0,-34.0,0.0,-17.0
1701634031.4939773,-44.0,1.0,-13.0,-6.0,-5.0,52.0,23.0,29.0
1701634031.4939773,-21.0,-2.0,3.0,5.0,9.0,-1.0,13.0,44.0
1701634031.4939773,32.0,12.0,11.0,7.0,5.0,0.0,7.0,16.0
1701634031.4939773,40.0,4.0,1.0,-6.0,-2.0,29.0,27.0,-23.0
1701634031.5143056,-10.0,6.0,-9.0,-3.0,-3.0,18.0,19.0,-7.0
1701634031.5143056,-22.0,-4.0,-5.0,-4.0,-5.0,-29.0,-32.0,-36.0
1701634031.5143056,7.0,-8.0,-2.0,0.0,1.0,31.0,15.0,25.0
1701634031.5143056,14.0,-4.0,2.0,2.0,-2.0,-17.0,-16.0,15.0
1701634031.5242808,57.0,8.0,-2.0,1.0,3.0,6.0,34.0,3.0
1701634031.5242808,3.0,-4.0,-1.0,-2.0,0.0,7.0,-9.0,25.0
1701634031.5342224,-39.0,-8.0,-2.0,1.0,6.0,5.0,23.0,-4.0
1701634031.5342224,5.0,-10.0,-2.0,-6.0,-11.0,-14.0,2.0,-5.0
1701634031.5605562,8.0,3.0,3.0,2.0,8.0,13.0,-18.0,9.0
1701634031.5605562,-11.0,4.0,0.0,0.0,-3.0,-11.0,-2.0,-14.0
1701634031.5615563,-1.0,-4.0,0.0,-2.0,0.0,5.0,3.0,-36.0
1701634031.5615563,14.0,0.0,1.0,-1.0,-3.0,-25.0,-58.0,-64.0
1701634031.5756726,29.0,2.0,0.0,0.0,6.0,37.0,66.0,13.0
1701634031.5756726,-31.0,-6.0,-1.0,-2.0,-4.0,-18.0,-34.0,31.0
1701634031.577553,40.0,0.0,-1.0,0.0,-4.0,-20.0,-8.0,7.0
1701634031.577553,8.0,-7.0,-2.0,2.0,5.0,17.0,25.0,16.0
1701634031.5863574,5.0,1.0,-6.0,-7.0,-8.0,-17.0,-21.0,-32.0
1701634031.5863574,-5.0,-1.0,-1.0,-3.0,-2.0,13.0,28.0,9.0
1701634031.5967553,9.0,1.0,-7.0,-5.0,-6.0,-14.0,-19.0,-4.0
1701634031.5967553,-9.0,-4.0,6.0,2.0,3.0,6.0,17.0,37.0
1701634031.6163597,-2.0,-3.0,-4.0,0.0,-4.0,-30.0,-18.0,-13.0
1701634031.6163597,-16.0,1.0,-1.0,-2.0,-3.0,1.0,-3.0,-6.0
1701634031.6163597,-16.0,-6.0,-2.0,0.0,1.0,-5.0,-17.0,-1.0
1701634031.6163597,-3.0,-3.0,-3.0,0.0,-1.0,11.0,30.0,-2.0
1701634031.6364214,7.0,0.0,2.0,1.0,4.0,-11.0,-31.0,-8.0
1701634031.6364214,2.0,1.0,-2.0,0.0,0.0,11.0,7.0,-6.0
1701634031.6364214,-9.0,0.0,0.0,-4.0,-3.0,-11.0,-9.0,0.0
1701634031.6364214,0.0,-5.0,-1.0,-1.0,0.0,-5.0,-9.0,1.0
1701634031.6466682,0.0,3.0,0.0,-1.0,2.0,7.0,-2.0,-12.0
1701634031.6466682,2.0,-3.0,-1.0,2.0,6.0,12.0,2.0,18.0
1701634031.666361,-7.0,-1.0,0.0,-1.0,-4.0,-6.0,10.0,-4.0
1701634031.666361,-5.0,-3.0,-2.0,-2.0,-1.0,-2.0,2.0,8.0
1701634031.666361,15.0,2.0,0.0,1.0,1.0,-8.0,0.0,6.0
1701634031.666361,4.0,-1.0,0.0,0.0,3.0,1.0,-6.0,-6.0
1701634031.666361,-7.0,-2.0,-2.0,-4.0,-8.0,-12.0,3.0,3.0
1701634031.666361,-5.0,-2.0,1.0,6.0,0.0,8.0,-15.0,-13.0
1701634031.6964147,-12.0,-5.0,-4.0,0.0,-5.0,-12.0,-13.0,24.0
1701634031.6964147,15.0,2.0,0.0,1.0,2.0,17.0,0.0,-26.0
1701634031.6964147,6.0,-2.0,-3.0,-4.0,-3.0,-11.0,1.0,-2.0
1701634031.6964147,2.0,-1.0,-3.0,-1.0,0.0,5.0,-7.0,9.0
1701634031.7066622,-2.0,-3.0,-3.0,-4.0,-6.0,-25.0,-28.0,-13.0
1701634031.7066622,-12.0,-1.0,2.0,4.0,1.0,14.0,6.0,10.0
1701634031.7363577,-1.0,-1.0,-3.0,2.0,-5.0,9.0,3.0,-1.0
1701634031.7363577,-1.0,-5.0,-1.0,0.0,-4.0,3.0,-7.0,-18.0
1701634031.7363577,22.0,0.0,-2.0,3.0,-8.0,-7.0,-11.0,4.0
1701634031.7363577,2.0,3.0,-2.0,2.0,-3.0,8.0,6.0,2.0
1701634031.7363577,1.0,-2.0,-2.0,-2.0,-2.0,0.0,2.0,-1.0
1701634031.7363577,4.0,-1.0,-1.0,-3.0,1.0,-1.0,2.0,8.0
1701634031.756707,-15.0,1.0,-1.0,-7.0,-2.0,-9.0,0.0,-13.0
1701634031.756707,-5.0,-5.0,-3.0,-10.0,-4.0,-19.0,-11.0,6.0
1701634031.756707,-8.0,6.0,5.0,-1.0,6.0,1.0,7.0,4.0
1701634031.756707,-8.0,-2.0,1.0,-3.0,3.0,0.0,4.0,2.0
1701634031.7667868,6.0,0.0,-1.0,-5.0,-1.0,-6.0,-5.0,-34.0
1701634031.7667868,12.0,4.0,2.0,-3.0,0.0,-9.0,-6.0,5.0
1701634031.7763584,-7.0,0.0,-3.0,0.0,2.0,-3.0,-2.0,-13.0
1701634031.7763584,1.0,-2.0,2.0,1.0,-2.0,-7.0,4.0,4.0
1701634031.7864363,-3.0,0.0,-1.0,-1.0,3.0,11.0,0.0,4.0
1701634031.7864363,-3.0,-2.0,5.0,1.0,3.0,0.0,2.0,5.0
1701634031.7864363,-1.0,3.0,24.0,7.0,2.0,3.0,-1.0,-6.0
1701634031.7864363,-1.0,-7.0,-65.0,-13.0,0.0,0.0,2.0,9.0
1701634031.816489,-4.0,-3.0,9.0,-2.0,-3.0,-5.0,-1.0,2.0
1701634031.816489,5.0,3.0,-8.0,2.0,0.0,0.0,0.0,3.0
1701634031.816489,-2.0,-2.0,13.0,5.0,2.0,1.0,4.0,4.0
1701634031.816489,-6.0,-1.0,3.0,1.0,1.0,5.0,-3.0,-3.0
1701634031.8269386,0.0,2.0,-1.0,2.0,-1.0,0.0,1.0,5.0
1701634031.8269386,-1.0,-3.0,-7.0,-7.0,-3.0,-1.0,-4.0,-6.0
1701634031.8464928,-1.0,6.0,7.0,2.0,-2.0,-1.0,-5.0,12.0
1701634031.8464928,1.0,-1.0,4.0,1.0,-2.0,-2.0,-1.0,-4.0
1701634031.8464928,-10.0,-6.0,-17.0,-1.0,-1.0,1.0,1.0,-1.0
1701634031.8464928,-11.0,-9.0,8.0,-4.0,-1.0,-4.0,0.0,5.0
1701634031.8464928,-15.0,2.0,-7.0,1.0,3.0,2.0,-2.0,-15.0
1701634031.8464928,5.0,2.0,1.0,-2.0,-2.0,1.0,-1.0,14.0
1701634031.8764887,4.0,6.0,5.0,-2.0,-3.0,-1.0,-3.0,4.0
1701634031.8764887,6.0,4.0,3.0,2.0,-1.0,-2.0,-2.0,1.0
1701634031.8764887,-1.0,-11.0,-17.0,-6.0,-5.0,-2.0,-2.0,-3.0
1701634031.8764887,-7.0,1.0,33.0,6.0,1.0,3.0,1.0,-9.0
1701634031.8964894,2.0,1.0,-15.0,-4.0,-3.0,-6.0,2.0,-3.0
1701634031.8964894,37.0,-12.0,-19.0,-9.0,-1.0,-1.0,-1.0,5.0
1701634031.8964894,7.0,-8.0,4.0,-2.0,0.0,-1.0,-3.0,-39.0
1701634031.8964894,6.0,4.0,-18.0,-16.0,-4.0,-1.0,0.0,4.0
1701634031.9065835,-1.0,2.0,39.0,9.0,1.0,-1.0,0.0,8.0
1701634031.9065835,-12.0,-25.0,-21.0,-4.0,-3.0,-1.0,-3.0,-11.0
1701634031.9065835,14.0,11.0,11.0,-1.0,-1.0,-1.0,3.0,16.0
1701634031.9065835,-10.0,-2.0,9.0,14.0,3.0,2.0,4.0,9.0
1701634031.9364922,-4.0,-27.0,-1.0,-15.0,-9.0,-5.0,-9.0,-9.0
1701634031.9364922,-9.0,29.0,31.0,20.0,7.0,4.0,4.0,13.0
1701634031.9364922,-10.0,-22.0,-55.0,-15.0,-3.0,-1.0,4.0,16.0
1701634031.9364922,-6.0,4.0,11.0,5.0,2.0,1.0,-2.0,-8.0
1701634031.9464877,11.0,13.0,4.0,2.0,-3.0,-2.0,1.0,11.0
1701634031.9464877,-19.0,-25.0,17.0,0.0,-2.0,-4.0,-5.0,-8.0
1701634031.9568615,-1.0,-2.0,-8.0,0.0,-1.0,2.0,6.0,15.0
1701634031.9568615,7.0,3.0,-2.0,1.0,0.0,0.0,0.0,-9.0
1701634031.9669335,-8.0,-5.0,-9.0,-1.0,0.0,0.0,-1.0,-5.0
1701634031.9669335,-5.0,16.0,19.0,7.0,-1.0,3.0,-1.0,-1.0
1701634031.9669335,3.0,0.0,-11.0,-9.0,-1.0,0.0,-3.0,-5.0
1701634031.9669335,-2.0,-4.0,35.0,12.0,-1.0,0.0,-2.0,-3.0
1701634031.9964902,2.0,11.0,-41.0,-20.0,-2.0,0.0,1.0,-6.0
1701634031.9964902,-4.0,16.0,-6.0,7.0,1.0,1.0,3.0,2.0
1701634031.9964902,-3.0,-36.0,4.0,1.0,-3.0,-3.0,-6.0,-3.0
1701634031.9964902,0.0,10.0,0.0,-6.0,-2.0,-1.0,-1.0,-5.0
1701634032.0068464,-1.0,-15.0,-29.0,4.0,1.0,0.0,-1.0,6.0
1701634032.0068464,8.0,17.0,12.0,-3.0,-1.0,-1.0,1.0,-2.0
1701634032.0164888,-1.0,26.0,13.0,4.0,0.0,1.0,0.0,-1.0
1701634032.0164888,-1.0,-2.0,24.0,1.0,-5.0,-3.0,-3.0,-1.0
1701634032.0265253,0.0,-1.0,17.0,7.0,4.0,-1.0,1.0,-2.0
1701634032.0265253,1.0,-12.0,-23.0,-12.0,-5.0,0.0,-1.0,-2.0
1701634032.0265253,-1.0,10.0,5.0,2.0,-1.0,0.0,-1.0,-3.0
1701634032.0265253,0.0,14.0,17.0,5.0,1.0,1.0,2.0,1.0
1701634032.056488,-17.0,-40.0,-13.0,-8.0,-4.0,-3.0,-2.0,-5.0
1701634032.056488,5.0,1.0,26.0,18.0,1.0,-2.0,0.0,-4.0
1701634032.056488,0.0,-24.0,-88.0,-49.0,-8.0,-5.0,-4.0,-2.0
1701634032.056488,-1.0,11.0,1.0,-4.0,-3.0,-1.0,-2.0,-3.0
1701634032.0667644,2.0,13.0,10.0,6.0,0.0,1.0,-1.0,1.0
1701634032.0667644,-9.0,-10.0,39.0,3.0,-4.0,-4.0,-4.0,-4.0
1701634032.0785117,2.0,-7.0,10.0,16.0,4.0,1.0,-1.0,-2.0
1701634032.0785117,-4.0,-20.0,-1.0,-10.0,-5.0,-7.0,-3.0,-5.0
1701634032.094073,5.0,7.0,-22.0,-4.0,-3.0,-2.0,-1.0,2.0
1701634032.094073,-15.0,23.0,3.0,9.0,5.0,5.0,4.0,1.0
1701634032.0951104,-1.0,2.0,-2.0,-3.0,-2.0,-5.0,-3.0,-2.0
1701634032.0951104,1.0,-5.0,-14.0,-9.0,0.0,0.0,1.0,0.0
1701634032.1229525,-1.0,33.0,25.0,8.0,-2.0,0.0,-1.0,0.0
1701634032.1229525,4.0,37.0,-14.0,-22.0,-6.0,-5.0,-2.0,-1.0
1701634032.1229525,0.0,24.0,57.0,25.0,4.0,3.0,5.0,3.0
1701634032.1229525,-9.0,-72.0,-65.0,-16.0,-4.0,-3.0,-4.0,-4.0
1701634032.1229525,0.0,14.0,108.0,24.0,1.0,-3.0,-2.0,-8.0
1701634032.1229525,13.0,-16.0,-106.0,-12.0,2.0,1.0,2.0,13.0
1701634032.1329741,-5.0,5.0,94.0,10.0,-3.0,-3.0,-1.0,-4.0
1701634032.1329741,0.0,12.0,16.0,-2.0,2.0,2.0,1.0,1.0
1701634032.1532433,1.0,0.0,-2.0,6.0,4.0,4.0,3.0,-1.0
1701634032.1532433,-5.0,-30.0,-35.0,-17.0,-15.0,-10.0,-6.0,-7.0
1701634032.1532433,1.0,-6.0,-5.0,24.0,6.0,3.0,-1.0,2.0
1701634032.1532433,-8.0,13.0,17.0,-23.0,-9.0,-7.0,-3.0,-5.0
1701634032.1729789,4.0,-7.0,66.0,14.0,3.0,-1.0,0.0,1.0
1701634032.1729789,-3.0,5.0,-7.0,-25.0,-6.0,-4.0,-2.0,-3.0
1701634032.1729789,0.0,-53.0,-19.0,6.0,8.0,2.0,3.0,2.0
1701634032.1729789,0.0,11.0,-31.0,18.0,8.0,6.0,4.0,1.0
1701634032.1832943,-5.0,-8.0,69.0,-14.0,-9.0,-5.0,-5.0,-5.0
1701634032.1832943,4.0,-11.0,-1.0,4.0,-1.0,-4.0,-3.0,0.0
1701634032.1929805,2.0,21.0,-77.0,-16.0,3.0,3.0,1.0,0.0
1701634032.1929805,-2.0,4.0,-28.0,-15.0,-3.0,-2.0,-2.0,-2.0
1701634032.2133257,5.0,14.0,62.0,24.0,5.0,-1.0,0.0,1.0
1701634032.2133257,-10.0,-58.0,-105.0,-30.0,-6.0,0.0,-3.0,-6.0
1701634032.2133257,-2.0,41.0,86.0,-8.0,-9.0,-7.0,-5.0,-3.0
1701634032.2133257,1.0,-3.0,67.0,17.0,1.0,0.0,1.0,1.0
1701634032.232977,0.0,-2.0,-128.0,-4.0,3.0,3.0,2.0,3.0
1701634032.232977,-2.0,2.0,44.0,-7.0,-1.0,0.0,-3.0,-3.0
1701634032.232977,6.0,24.0,11.0,5.0,-1.0,0.0,0.0,1.0
1701634032.232977,-1.0,6.0,24.0,17.0,2.0,-1.0,2.0,-2.0
1701634032.243299,4.0,-5.0,-39.0,-30.0,-8.0,-5.0,-2.0,0.0
1701634032.243299,7.0,3.0,67.0,50.0,14.0,6.0,4.0,2.0
1701634032.263424,-7.0,-40.0,-103.0,-19.0,-7.0,-5.0,-4.0,-4.0
1701634032.263424,-1.0,-21.0,46.0,-25.0,-11.0,-6.0,-7.0,-9.0
1701634032.2733836,0.0,45.0,-22.0,-25.0,-7.0,-3.0,0.0,7.0
1701634032.2733836,19.0,69.0,104.0,27.0,9.0,7.0,2.0,3.0
1701634032.2733836,-9.0,1.0,-20.0,-2.0,-2.0,0.0,-1.0,-6.0
1701634032.2733836,1.0,-14.0,11.0,-11.0,-6.0,-2.0,2.0,13.0
1701634032.2933815,-2.0,3.0,5.0,16.0,0.0,-1.0,-6.0,-22.0
1701634032.2933815,-26.0,-3.0,66.0,-9.0,1.0,1.0,4.0,-3.0
1701634032.2933815,3.0,2.0,-97.0,-19.0,-8.0,-4.0,-15.0,0.0
1701634032.2933815,8.0,31.0,8.0,23.0,10.0,6.0,12.0,-7.0
1701634032.313725,-7.0,-17.0,47.0,-43.0,-12.0,-6.0,1.0,17.0
1701634032.313725,1.0,-22.0,2.0,24.0,3.0,-1.0,-7.0,-1.0
1701634032.313725,0.0,9.0,-26.0,-28.0,-10.0,-5.0,10.0,0.0
1701634032.313725,-9.0,-18.0,-31.0,-10.0,-5.0,-6.0,-9.0,-5.0
1701634032.3333812,0.0,51.0,-28.0,1.0,6.0,8.0,3.0,-2.0
1701634032.3333812,10.0,-23.0,32.0,15.0,4.0,1.0,-1.0,0.0
1701634032.3333812,-14.0,-18.0,22.0,11.0,-2.0,-2.0,3.0,6.0
1701634032.3333812,1.0,-5.0,16.0,8.0,-1.0,0.0,-6.0,-2.0
1701634032.3533814,2.0,-16.0,-11.0,-14.0,1.0,-3.0,-1.0,-3.0
1701634032.3533814,-7.0,-29.0,-58.0,-15.0,-8.0,-6.0,-3.0,-1.0
1701634032.3533814,-18.0,-52.0,-47.0,-24.0,-7.0,-7.0,-3.0,-10.0
1701634032.3533814,-5.0,4.0,-3.0,-8.0,-2.0,-4.0,-2.0,-2.0
1701634032.3733857,-8.0,-46.0,9.0,37.0,9.0,3.0,-1.0,0.0
1701634032.3733857,3.0,58.0,43.0,-13.0,-8.0,-4.0,-2.0,-4.0
1701634032.3733857,1.0,-48.0,19.0,21.0,5.0,1.0,0.0,1.0
1701634032.3733857,6.0,8.0,-5.0,0.0,-11.0,-5.0,-4.0,0.0
1701634032.3833935,0.0,-1.0,10.0,-6.0,-1.0,-4.0,-5.0,-1.0
1701634032.3934097,-3.0,-20.0,-32.0,-12.0,0.0,1.0,4.0,-2.0
1701634032.4034047,13.0,53.0,-6.0,15.0,6.0,4.0,1.0,4.0
1701634032.4034047,-1.0,17.0,13.0,8.0,10.0,4.0,0.0,1.0
1701634032.4137588,-15.0,-17.0,9.0,-22.0,-21.0,-12.0,-8.0,-10.0
1701634032.4137588,-2.0,9.0,21.0,-5.0,0.0,-1.0,4.0,-1.0
1701634032.4137588,9.0,24.0,79.0,35.0,10.0,2.0,-4.0,-4.0
1701634032.4137588,-12.0,-26.0,-51.0,-15.0,-3.0,-1.0,-1.0,-7.0
1701634032.4337974,3.0,-25.0,-68.0,-8.0,-4.0,-2.0,-5.0,5.0
1701634032.4337974,-25.0,13.0,32.0,3.0,3.0,-1.0,1.0,-11.0
1701634032.4337974,-3.0,25.0,28.0,-19.0,-12.0,-5.0,1.0,5.0
1701634032.4337974,-2.0,-8.0,-53.0,13.0,12.0,5.0,4.0,-2.0
1701634032.453405,3.0,16.0,47.0,19.0,-3.0,-4.0,-1.0,-2.0
1701634032.453405,-8.0,-63.0,67.0,-3.0,-5.0,2.0,-3.0,-4.0
1701634032.453405,7.0,56.0,2.0,7.0,6.0,3.0,1.0,3.0
1701634032.453405,-1.0,1.0,29.0,3.0,-2.0,-2.0,-2.0,3.0
1701634032.4734066,-7.0,-20.0,-26.0,-7.0,-3.0,-2.0,-3.0,-9.0
1701634032.4734066,6.0,-8.0,-49.0,9.0,2.0,0.0,0.0,3.0
1701634032.4734066,-3.0,-6.0,66.0,-3.0,-5.0,-1.0,-3.0,-4.0
1701634032.4734066,16.0,24.0,12.0,46.0,22.0,16.0,9.0,10.0
1701634032.4934413,-2.0,6.0,-40.0,6.0,-3.0,-3.0,-1.0,-4.0
1701634032.4934413,6.0,25.0,87.0,-10.0,-9.0,-6.0,-5.0,0.0
1701634032.4934413,-8.0,-48.0,119.0,9.0,1.0,0.0,-1.0,-4.0
1701634032.4934413,-1.0,-12.0,-69.0,-40.0,-13.0,-8.0,-6.0,2.0
1701634032.5034795,1.0,-7.0,45.0,6.0,3.0,3.0,4.0,0.0
1701634032.5034795,11.0,27.0,44.0,-10.0,0.0,-1.0,0.0,3.0
1701634032.513476,8.0,8.0,-19.0,-6.0,-6.0,-4.0,-2.0,3.0
1701634032.513476,-10.0,13.0,32.0,-33.0,-12.0,-7.0,-7.0,-7.0
1701634032.5334716,-7.0,-29.0,4.0,5.0,1.0,-3.0,1.0,-1.0
1701634032.5334716,17.0,65.0,-64.0,8.0,6.0,4.0,2.0,7.0
1701634032.5334716,-8.0,-54.0,-27.0,-10.0,-7.0,-8.0,-6.0,-6.0
1701634032.5334716,-11.0,-47.0,-5.0,-21.0,-11.0,-6.0,-4.0,-7.0
1701634032.553486,1.0,-20.0,-23.0,14.0,8.0,4.0,1.0,0.0
1701634032.553486,-6.0,-45.0,-128.0,-20.0,-4.0,-4.0,-4.0,-2.0
1701634032.553486,7.0,54.0,116.0,9.0,1.0,2.0,0.0,-1.0
1701634032.553486,-12.0,-74.0,-86.0,-16.0,-8.0,-7.0,-5.0,-3.0
1701634032.56357,4.0,36.0,12.0,-4.0,-4.0,-3.0,-1.0,1.0
1701634032.56357,7.0,16.0,-8.0,23.0,6.0,3.0,1.0,3.0
1701634032.5835886,-5.0,-39.0,-62.0,-6.0,1.0,0.0,0.0,-5.0
1701634032.5835886,9.0,71.0,70.0,20.0,2.0,-1.0,-1.0,1.0
1701634032.5935807,9.0,30.0,45.0,12.0,5.0,6.0,4.0,5.0
1701634032.5935807,-1.0,-20.0,29.0,-5.0,-8.0,-5.0,-5.0,-4.0
1701634032.5935807,-11.0,-3.0,-61.0,-47.0,-13.0,-9.0,-8.0,-7.0
1701634032.5935807,8.0,27.0,47.0,40.0,17.0,14.0,9.0,3.0
1701634032.6350172,-2.0,4.0,-36.0,-11.0,-9.0,-7.0,-3.0,-3.0
1701634032.6350172,6.0,2.0,-27.0,18.0,6.0,2.0,3.0,2.0
1701634032.6350172,-6.0,-4.0,59.0,-11.0,-9.0,-5.0,-5.0,-6.0
1701634032.6350172,2.0,13.0,40.0,16.0,3.0,1.0,0.0,1.0
1701634032.6350172,-3.0,1.0,-33.0,-8.0,1.0,1.0,-2.0,-3.0
1701634032.6350172,4.0,67.0,-5.0,2.0,3.0,1.0,2.0,2.0
1701634032.6350172,6.0,12.0,64.0,41.0,18.0,8.0,4.0,3.0
1701634032.6350172,2.0,14.0,23.0,-1.0,-10.0,-9.0,-4.0,-4.0
1701634032.6552582,-1.0,9.0,127.0,-2.0,-2.0,0.0,-1.0,-3.0
1701634032.6552582,-3.0,15.0,-61.0,-30.0,-3.0,-3.0,-2.0,-3.0
1701634032.6552582,-8.0,-36.0,-56.0,15.0,5.0,4.0,4.0,0.0
1701634032.6552582,8.0,49.0,83.0,27.0,5.0,-1.0,1.0,4.0
1701634032.6950197,-14.0,-25.0,-64.0,-47.0,-10.0,-5.0,-7.0,-8.0
1701634032.6950197,-5.0,-65.0,31.0,10.0,-4.0,-3.0,-3.0,-3.0
1701634032.6950197,-1.0,6.0,-80.0,-13.0,0.0,1.0,0.0,-2.0
1701634032.6950197,2.0,-34.0,-16.0,-8.0,-8.0,-4.0,-3.0,-1.0
1701634032.6950197,3.0,-25.0,-63.0,-2.0,1.0,-1.0,0.0,2.0
1701634032.6950197,-1.0,14.0,42.0,15.0,6.0,5.0,-1.0,-3.0
1701634032.6950197,-4.0,-28.0,60.0,-13.0,-12.0,-9.0,-6.0,-4.0
1701634032.6950197,-1.0,-67.0,-80.0,20.0,10.0,7.0,4.0,5.0
1701634032.7155507,1.0,40.0,77.0,-23.0,-9.0,-4.0,-3.0,-6.0
1701634032.7155507,-3.0,-1.0,-3.0,-12.0,-4.0,-2.0,-3.0,0.0
1701634032.7155507,1.0,-8.0,57.0,25.0,4.0,2.0,0.0,-1.0
1701634032.7155507,-2.0,-11.0,-23.0,-22.0,-3.0,-5.0,-5.0,-2.0
1701634032.7356613,5.0,1.0,10.0,30.0,9.0,3.0,5.0,6.0
1701634032.7356613,1.0,-1.0,-15.0,1.0,-3.0,-1.0,-2.0,-1.0
1701634032.7356613,4.0,45.0,-19.0,-19.0,-7.0,-4.0,0.0,1.0
1701634032.7356613,-4.0,-33.0,-22.0,4.0,-3.0,-1.0,-2.0,-1.0
1701634032.7453125,-4.0,-32.0,6.0,-31.0,-10.0,-7.0,-5.0,-5.0
1701634032.7453125,-2.0,11.0,33.0,20.0,6.0,3.0,1.0,2.0
1701634032.755269,7.0,48.0,-28.0,-25.0,-6.0,0.0,-1.0,4.0
1701634032.755269,-14.0,-7.0,-91.0,-68.0,-18.0,-9.0,-7.0,-10.0
1701634032.775289,7.0,34.0,34.0,34.0,12.0,4.0,1.0,2.0
1701634032.775289,-5.0,-40.0,-32.0,26.0,11.0,4.0,0.0,0.0
1701634032.775289,0.0,21.0,54.0,-19.0,-9.0,-4.0,-3.0,-3.0
1701634032.775289,6.0,50.0,8.0,-6.0,-1.0,1.0,1.0,0.0
1701634032.8057318,-4.0,-21.0,-7.0,4.0,-7.0,-6.0,-4.0,-3.0
1701634032.8057318,-14.0,-5.0,-41.0,-47.0,-15.0,-5.0,-3.0,-3.0
1701634032.8152676,5.0,20.0,8.0,36.0,12.0,6.0,3.0,4.0
1701634032.8152676,0.0,4.0,-18.0,6.0,-1.0,-2.0,-1.0,2.0
1701634032.8152676,-1.0,-15.0,-26.0,7.0,0.0,2.0,0.0,0.0
1701634032.8152676,0.0,0.0,-9.0,0.0,8.0,1.0,-1.0,-4.0
1701634032.8152676,9.0,72.0,30.0,-6.0,-4.0,-1.0,2.0,4.0
1701634032.8152676,-7.0,14.0,79.0,19.0,-7.0,-3.0,-2.0,-2.0
1701634032.8355238,-4.0,-51.0,-59.0,6.0,12.0,7.0,3.0,3.0
1701634032.8355238,4.0,7.0,37.0,-23.0,-10.0,-8.0,-3.0,0.0
1701634032.8355238,-11.0,-59.0,-68.0,-16.0,2.0,-1.0,-5.0,-5.0
1701634032.8355238,5.0,42.0,27.0,3.0,-1.0,-2.0,0.0,0.0
1701634032.8552673,2.0,-6.0,4.0,24.0,8.0,3.0,3.0,1.0
1701634032.8552673,-2.0,-6.0,-39.0,-8.0,-5.0,1.0,1.0,-1.0
1701634032.865585,-10.0,-17.0,33.0,-14.0,-11.0,-7.0,-6.0,-8.0
1701634032.865585,1.0,-10.0,4.0,0.0,1.0,-2.0,-1.0,1.0
1701634032.865585,-3.0,-9.0,-22.0,-16.0,-6.0,-3.0,-2.0,-1.0
1701634032.865585,-7.0,-49.0,21.0,-5.0,-7.0,-7.0,-5.0,-7.0
1701634032.875468,2.0,-26.0,-26.0,25.0,11.0,4.0,2.0,1.0
1701634032.875468,2.0,14.0,8.0,8.0,3.0,4.0,0.0,1.0
1701634032.8952734,-16.0,-53.0,-44.0,-36.0,-17.0,-10.0,-8.0,-8.0
1701634032.8952734,2.0,25.0,-3.0,-12.0,-3.0,0.0,-1.0,1.0
1701634032.8952734,4.0,3.0,-55.0,28.0,9.0,4.0,1.0,3.0
1701634032.8952734,6.0,46.0,114.0,-8.0,-6.0,-4.0,0.0,0.0
1701634032.915272,-11.0,-6.0,3.0,-28.0,-10.0,-4.0,-4.0,-5.0
1701634032.915272,0.0,-10.0,-9.0,6.0,-1.0,-2.0,-2.0,-2.0
1701634032.915272,-4.0,-19.0,-1.0,28.0,-3.0,-3.0,-3.0,-2.0
1701634032.915272,-2.0,-27.0,-22.0,-26.0,0.0,0.0,0.0,-1.0
1701634032.9253008,17.0,110.0,-5.0,16.0,15.0,7.0,4.0,5.0
1701634032.9253008,-4.0,-21.0,15.0,10.0,-1.0,-4.0,-4.0,-2.0
1701634032.9355767,-2.0,34.0,12.0,18.0,7.0,3.0,0.0,1.0
1701634032.9355767,-3.0,-47.0,-92.0,-10.0,-2.0,0.0,-3.0,-2.0
1701634032.9553027,-6.0,-33.0,47.0,-12.0,-19.0,-14.0,-9.0,-3.0
1701634032.9553027,0.0,-14.0,46.0,22.0,17.0,9.0,7.0,4.0
1701634032.9553027,5.0,-1.0,-22.0,1.0,-4.0,-1.0,1.0,0.0
1701634032.9553027,0.0,2.0,5.0,-2.0,8.0,4.0,2.0,2.0
1701634032.9757006,-1.0,-9.0,-12.0,-2.0,-7.0,-3.0,-3.0,-5.0
1701634032.9757006,-4.0,-9.0,9.0,-8.0,4.0,-3.0,-5.0,-5.0
1701634032.9757006,0.0,-30.0,14.0,-5.0,-6.0,0.0,2.0,4.0
1701634032.9757006,-1.0,8.0,-15.0,25.0,12.0,3.0,0.0,-1.0
1701634032.9856665,-1.0,5.0,-17.0,-6.0,6.0,3.0,0.0,1.0
1701634032.9856665,-8.0,-48.0,-2.0,-30.0,-24.0,-10.0,-5.0,-3.0
1701634032.995623,0.0,4.0,-37.0,35.0,17.0,4.0,-1.0,-2.0
1701634032.995623,-9.0,16.0,-14.0,-61.0,-18.0,-12.0,-8.0,-9.0
1701634033.015267,6.0,18.0,20.0,33.0,10.0,6.0,6.0,4.0
1701634033.015267,-1.0,2.0,3.0,10.0,-4.0,-2.0,-2.0,-3.0
1701634033.015267,-2.0,-11.0,-19.0,-38.0,-12.0,-7.0,-2.0,-2.0
1701634033.015267,-5.0,-30.0,33.0,35.0,-3.0,1.0,-1.0,0.0
1701634033.0357363,-1.0,-19.0,-38.0,-15.0,5.0,0.0,-2.0,-1.0
1701634033.0357363,-2.0,16.0,12.0,-3.0,-6.0,-2.0,-2.0,-1.0
1701634033.0357363,-5.0,2.0,18.0,-14.0,-2.0,-4.0,-2.0,-2.0
1701634033.0357363,-2.0,-17.0,-10.0,20.0,-3.0,-7.0,-5.0,-1.0
1701634033.0456583,-1.0,-3.0,1.0,-24.0,-16.0,-3.0,-3.0,-1.0
1701634033.0456583,0.0,26.0,41.0,5.0,3.0,-1.0,-1.0,-3.0
1701634033.0556223,-1.0,10.0,37.0,-11.0,9.0,7.0,7.0,4.0
1701634033.0556223,-2.0,12.0,-25.0,-4.0,1.0,-1.0,-5.0,-6.0
1701634033.0752995,-4.0,-26.0,-14.0,21.0,0.0,-12.0,-2.0,4.0
1701634033.0752995,-1.0,21.0,-11.0,-10.0,-10.0,3.0,-5.0,-12.0
1701634033.0752995,1.0,8.0,39.0,-3.0,1.0,13.0,5.0,1.0
1701634033.0752995,4.0,26.0,77.0,3.0,-6.0,-30.0,-1.0,8.0
1701634033.095722,-2.0,16.0,-2.0,18.0,7.0,16.0,-6.0,-7.0
1701634033.095722,2.0,1.0,-20.0,-4.0,1.0,5.0,4.0,5.0
1701634033.095722,-3.0,-8.0,40.0,6.0,11.0,9.0,-1.0,-3.0
1701634033.095722,4.0,19.0,-6.0,25.0,20.0,20.0,10.0,2.0
1701634033.105664,-2.0,-13.0,39.0,-10.0,-8.0,-14.0,-4.0,0.0
1701634033.105664,-9.0,-6.0,18.0,-29.0,-19.0,-17.0,-7.0,-3.0
1701634033.1156213,2.0,10.0,-19.0,-5.0,-1.0,-2.0,0.0,1.0
1701634033.1156213,4.0,14.0,-2.0,2.0,-6.0,2.0,2.0,7.0
1701634033.1364195,3.0,36.0,41.0,11.0,7.0,-6.0,-4.0,-5.0
1701634033.1364195,1.0,-18.0,-59.0,17.0,13.0,16.0,7.0,2.0
1701634033.1434186,-8.0,-29.0,-24.0,-27.0,-16.0,-12.0,-5.0,-5.0
1701634033.1434186,0.0,7.0,12.0,-10.0,-9.0,-8.0,-8.0,-3.0
1701634033.1584182,8.0,28.0,-29.0,15.0,5.0,8.0,8.0,7.0
1701634033.1584182,1.0,14.0,60.0,14.0,7.0,3.0,-2.0,-2.0
1701634033.1594188,2.0,14.0,-26.0,-16.0,-6.0,-7.0,-5.0,-3.0
1701634033.1594188,-5.0,-46.0,-49.0,0.0,3.0,6.0,1.0,-2.0
1701634033.1678495,-5.0,-4.0,14.0,-8.0,-1.0,1.0,-1.0,-2.0
1701634033.1678495,6.0,-4.0,-2.0,15.0,0.0,-8.0,-2.0,4.0
1701634033.177852,-3.0,9.0,-30.0,-10.0,-9.0,-6.0,-2.0,-3.0
1701634033.177852,0.0,16.0,47.0,-12.0,-4.0,-3.0,2.0,-2.0
1701634033.1878822,3.0,6.0,-2.0,16.0,6.0,5.0,-4.0,-3.0
1701634033.1878822,-6.0,-3.0,-6.0,-12.0,-5.0,-5.0,-6.0,-3.0
1701634033.1980681,-3.0,-24.0,19.0,25.0,5.0,3.0,1.0,1.0
1701634033.1980681,-11.0,-73.0,-30.0,-6.0,-4.0,3.0,-2.0,-5.0
1701634033.218075,4.0,2.0,-6.0,-7.0,-1.0,-2.0,4.0,5.0
1701634033.218075,-3.0,4.0,-29.0,-8.0,0.0,-1.0,-2.0,-3.0
1701634033.218075,3.0,20.0,5.0,-11.0,-10.0,-12.0,-7.0,0.0
1701634033.218075,0.0,14.0,64.0,24.0,6.0,5.0,6.0,1.0
1701634033.2278545,-1.0,-22.0,-79.0,-14.0,0.0,8.0,0.0,-3.0
1701634033.2278545,-7.0,2.0,43.0,-8.0,-4.0,1.0,1.0,-5.0
1701634033.2378523,-2.0,-10.0,9.0,12.0,4.0,-6.0,-4.0,-1.0
1701634033.2378523,-5.0,-17.0,-48.0,4.0,-1.0,0.0,-2.0,-3.0
1701634033.2480636,5.0,28.0,31.0,16.0,3.0,-2.0,0.0,3.0
1701634033.2480636,-1.0,-8.0,-72.0,-35.0,-18.0,-12.0,-4.0,-1.0
1701634033.2581527,6.0,51.0,-3.0,12.0,6.0,-1.0,-1.0,0.0
1701634033.2581527,-5.0,2.0,63.0,-28.0,-10.0,-6.0,-9.0,-8.0
1701634033.2782707,-2.0,-14.0,1.0,37.0,12.0,7.0,8.0,1.0
1701634033.2782707,-1.0,-18.0,-18.0,-10.0,-10.0,-19.0,-7.0,2.0
1701634033.2782707,-10.0,-20.0,8.0,-24.0,-1.0,14.0,1.0,-13.0
1701634033.2782707,11.0,45.0,6.0,40.0,21.0,16.0,5.0,5.0
1701634033.3081746,-4.0,-14.0,-27.0,-29.0,-11.0,-8.0,-2.0,-2.0
1701634033.3081746,9.0,31.0,-26.0,13.0,4.0,2.0,3.0,5.0
1701634033.3081746,-4.0,-10.0,16.0,-4.0,-11.0,-13.0,-4.0,-3.0
1701634033.3081746,0.0,-14.0,-38.0,-9.0,-3.0,3.0,1.0,-2.0
1701634033.3178632,-7.0,-11.0,38.0,-7.0,-5.0,-4.0,-4.0,-6.0
1701634033.3178632,3.0,4.0,6.0,15.0,4.0,0.0,-2.0,5.0
1701634033.3281002,-2.0,-26.0,-63.0,-3.0,-1.0,-3.0,2.0,-2.0
1701634033.3281002,3.0,23.0,-20.0,-3.0,4.0,15.0,7.0,4.0
1701634033.3378508,-1.0,-2.0,54.0,-3.0,1.0,-8.0,-8.0,-2.0
1701634033.3378508,-3.0,-55.0,-11.0,24.0,8.0,9.0,2.0,-1.0
1701634033.3378508,-2.0,13.0,20.0,-17.0,-5.0,4.0,-1.0,-3.0
1701634033.3378508,1.0,-7.0,-39.0,-6.0,-6.0,-14.0,-5.0,4.0
1701634033.3582597,-5.0,-19.0,8.0,6.0,2.0,10.0,4.0,-2.0
1701634033.3582597,9.0,57.0,8.0,8.0,-1.0,-10.0,-3.0,4.0
1701634033.3582597,-10.0,-38.0,11.0,-14.0,-6.0,2.0,-2.0,-10.0
1701634033.3582597,-4.0,-4.0,34.0,-3.0,-1.0,3.0,-1.0,-3.0
1701634033.3682065,-7.0,-6.0,-30.0,-9.0,-7.0,-6.0,-1.0,-2.0
1701634033.3682065,-1.0,-6.0,23.0,7.0,5.0,4.0,0.0,-3.0
1701634033.3781626,3.0,6.0,-3.0,8.0,-2.0,-6.0,1.0,4.0
1701634033.3781626,1.0,12.0,-9.0,-12.0,-4.0,-6.0,-5.0,-2.0
1701634033.3978515,1.0,-11.0,-49.0,3.0,4.0,1.0,-1.0,-1.0
1701634033.3978515,4.0,40.0,58.0,-18.0,-8.0,-1.0,1.0,-1.0
1701634033.3978515,4.0,35.0,-13.0,11.0,3.0,-3.0,0.0,2.0
1701634033.3978515,-8.0,-15.0,-8.0,-13.0,-3.0,-4.0,-6.0,-5.0
1701634033.41814,0.0,36.0,0.0,3.0,1.0,5.0,1.0,1.0
1701634033.41814,-1.0,-14.0,-10.0,8.0,3.0,2.0,1.0,-1.0
1701634033.41814,3.0,-10.0,-38.0,-2.0,-2.0,-2.0,-2.0,0.0
1701634033.41814,4.0,-7.0,29.0,11.0,-1.0,-3.0,-4.0,-2.0
1701634033.4280849,-5.0,-9.0,-9.0,-29.0,-12.0,-5.0,-2.0,-3.0
1701634033.4280849,-8.0,-40.0,-13.0,-2.0,2.0,2.0,-1.0,-5.0
1701634033.4381483,8.0,86.0,30.0,6.0,1.0,-1.0,-1.0,5.0
1701634033.4381483,-9.0,17.0,-5.0,-4.0,-5.0,-1.0,2.0,-2.0
1701634033.457851,0.0,1.0,-48.0,-10.0,-5.0,-5.0,-4.0,-4.0
1701634033.457851,-6.0,-26.0,-14.0,-3.0,1.0,2.0,-2.0,-5.0
1701634033.457851,0.0,-38.0,-4.0,7.0,2.0,-1.0,-2.0,-1.0
1701634033.457851,-3.0,-43.0,-29.0,-13.0,-3.0,-5.0,0.0,-3.0
1701634033.4781256,-1.0,10.0,30.0,3.0,-1.0,-2.0,-2.0,-3.0
1701634033.4781256,0.0,17.0,3.0,5.0,3.0,2.0,1.0,0.0
1701634033.4781256,-1.0,-4.0,7.0,-4.0,1.0,1.0,-1.0,1.0
1701634033.4781256,0.0,9.0,9.0,1.0,1.0,-2.0,-1.0,-1.0
1701634033.4881701,-2.0,-40.0,-12.0,3.0,2.0,-1.0,-3.0,-4.0
1701634033.4881701,0.0,12.0,-9.0,3.0,0.0,-2.0,1.0,-1.0
1701634033.4978588,-8.0,-82.0,1.0,0.0,0.0,0.0,-1.0,-3.0
1701634033.4978588,-4.0,29.0,-3.0,1.0,-1.0,-1.0,0.0,-1.0
1701634033.5182035,5.0,-1.0,19.0,-3.0,-2.0,-2.0,-1.0,0.0
1701634033.5182035,2.0,-1.0,-20.0,0.0,0.0,2.0,0.0,0.0
1701634033.5182035,-5.0,-40.0,-32.0,-3.0,-2.0,0.0,-1.0,-2.0
1701634033.5182035,3.0,15.0,1.0,-4.0,-1.0,0.0,-1.0,-2.0
1701634033.5382507,1.0,0.0,20.0,6.0,-2.0,0.0,-1.0,2.0
1701634033.5382507,-4.0,-6.0,-9.0,-4.0,-2.0,1.0,0.0,-1.0
1701634033.5382507,-1.0,19.0,9.0,0.0,1.0,1.0,1.0,1.0
1701634033.5382507,1.0,-1.0,-11.0,3.0,0.0,-2.0,-2.0,-1.0
1701634033.5481868,1.0,20.0,11.0,-1.0,-1.0,0.0,2.0,0.0
1701634033.5481868,-6.0,2.0,4.0,-2.0,0.0,-1.0,0.0,-4.0
1701634033.5678494,-1.0,-3.0,-3.0,1.0,-2.0,-2.0,-3.0,1.0
1701634033.5678494,-12.0,-21.0,-15.0,-6.0,-3.0,-3.0,-1.0,-3.0
1701634033.5782077,0.0,36.0,13.0,1.0,-2.0,-1.0,1.0,1.0
1701634033.5782077,-3.0,-17.0,-8.0,-5.0,-2.0,-2.0,-2.0,-1.0
1701634033.5782077,0.0,24.0,-5.0,3.0,1.0,0.0,0.0,-2.0
1701634033.5782077,3.0,-18.0,-10.0,-5.0,-1.0,-4.0,-3.0,-1.0
1701634033.5982707,3.0,-7.0,9.0,3.0,1.0,0.0,-1.0,1.0
1701634033.5982707,1.0,19.0,2.0,1.0,-1.0,-1.0,-1.0,-1.0
1701634033.5982707,-3.0,-25.0,-6.0,-2.0,0.0,-2.0,0.0,-2.0
1701634033.5982707,2.0,-2.0,-2.0,-2.0,-2.0,-2.0,-2.0,0.0
1701634033.6081848,0.0,13.0,7.0,-3.0,2.0,-2.0,-3.0,-2.0
1701634033.6081848,-4.0,-13.0,-2.0,0.0,0.0,0.0,-1.0,1.0
1701634033.6181424,-3.0,14.0,2.0,-1.0,-1.0,-1.0,-1.0,-1.0
1701634033.6181424,1.0,15.0,-3.0,-6.0,-2.0,-3.0,-1.0,-1.0
1701634033.6378524,-6.0,2.0,3.0,5.0,1.0,0.0,-1.0,-1.0
1701634033.6378524,3.0,4.0,-7.0,2.0,-1.0,-3.0,-1.0,-1.0
1701634033.6378524,-1.0,2.0,4.0,2.0,0.0,-3.0,-2.0,-1.0
1701634033.6378524,-1.0,-7.0,-1.0,-3.0,-1.0,-1.0,-2.0,-2.0
1701634033.6581066,-7.0,-13.0,-2.0,-3.0,-1.0,1.0,-1.0,-4.0
1701634033.6581066,4.0,5.0,5.0,-3.0,-4.0,-1.0,-2.0,0.0
1701634033.6581066,2.0,-1.0,1.0,1.0,1.0,-1.0,-2.0,-1.0
1701634033.6581066,-4.0,3.0,-5.0,2.0,-2.0,-2.0,0.0,-1.0
1701634033.668097,-2.0,-10.0,2.0,-7.0,-3.0,-2.0,-1.0,1.0
1701634033.668097,0.0,13.0,0.0,-1.0,0.0,0.0,-3.0,-1.0
1701634033.700542,4.0,15.0,-3.0,1.0,-1.0,-1.0,-4.0,-2.0
1701634033.700542,-2.0,-39.0,-7.0,-7.0,-3.0,-1.0,-1.0,-3.0
1701634033.700542,-1.0,-50.0,-3.0,0.0,-2.0,-2.0,-2.0,-2.0
1701634033.700542,-2.0,3.0,0.0,-3.0,-1.0,-3.0,-3.0,-2.0
1701634033.700542,-1.0,-6.0,-4.0,0.0,0.0,-2.0,-1.0,0.0
1701634033.700542,0.0,20.0,1.0,2.0,0.0,-1.0,-2.0,-3.0
1701634033.7208316,-4.0,13.0,-2.0,-1.0,-2.0,0.0,1.0,-1.0
1701634033.7208316,4.0,-16.0,-8.0,-4.0,-1.0,1.0,-2.0,-6.0
1701634033.7208316,-3.0,-5.0,1.0,-1.0,-1.0,-2.0,-2.0,2.0
1701634033.7208316,6.0,5.0,6.0,2.0,0.0,-2.0,-2.0,1.0
1701634033.730849,1.0,22.0,3.0,2.0,1.0,0.0,1.0,3.0
1701634033.730849,0.0,2.0,-4.0,0.0,0.0,0.0,5.0,8.0
1701634033.740811,0.0,3.0,-2.0,-5.0,-4.0,-3.0,-10.0,-16.0
1701634033.740811,-2.0,-2.0,0.0,-1.0,1.0,0.0,0.0,0.0
1701634033.7705443,1.0,-8.0,-1.0,-1.0,-2.0,-1.0,0.0,-2.0
1701634033.7705443,-1.0,70.0,10.0,1.0,2.0,2.0,2.0,3.0
1701634033.7705443,-2.0,1.0,-1.0,2.0,0.0,1.0,-1.0,-6.0
1701634033.7705443,0.0,4.0,0.0,-5.0,0.0,-4.0,-12.0,1.0
1701634033.7806325,10.0,-3.0,-5.0,-2.0,-2.0,0.0,10.0,3.0
1701634033.7806325,-17.0,-32.0,-5.0,-1.0,1.0,-1.0,-5.0,-15.0
1701634033.7806325,0.0,22.0,5.0,-2.0,1.0,3.0,10.0,22.0
1701634033.7806325,-4.0,51.0,1.0,2.0,-1.0,-2.0,-1.0,-11.0
1701634033.7905443,-9.0,-18.0,-1.0,-1.0,-1.0,-7.0,-12.0,-6.0
1701634033.7905443,7.0,-6.0,-2.0,-3.0,-5.0,-1.0,8.0,-7.0
1701634033.8005764,5.0,-7.0,-1.0,0.0,-1.0,-1.0,0.0,19.0
1701634033.8005764,7.0,-31.0,-1.0,2.0,0.0,0.0,1.0,7.0
1701634033.8109546,-15.0,10.0,-1.0,-2.0,-3.0,-1.0,3.0,9.0
1701634033.8109546,-4.0,9.0,2.0,2.0,1.0,-5.0,-5.0,-2.0
1701634033.8109546,-7.0,-10.0,-3.0,-3.0,-2.0,0.0,2.0,-1.0
1701634033.8109546,5.0,-26.0,-9.0,-3.0,-1.0,-2.0,-1.0,-6.0
1701634033.8408496,-12.0,10.0,0.0,0.0,-2.0,-5.0,-6.0,-10.0
1701634033.8408496,-6.0,-3.0,-1.0,-2.0,-2.0,-14.0,-18.0,4.0
1701634033.8408496,-1.0,2.0,-2.0,-6.0,-5.0,6.0,18.0,-7.0
1701634033.8408496,0.0,-22.0,-3.0,-1.0,0.0,6.0,5.0,6.0
1701634033.850544,-4.0,14.0,-1.0,1.0,-1.0,4.0,-4.0,-23.0
1701634033.850544,7.0,-35.0,-6.0,-5.0,-1.0,2.0,-1.0,14.0
1701634033.8605454,5.0,3.0,1.0,-1.0,-4.0,-19.0,-19.0,-19.0
1701634033.8605454,-30.0,-32.0,-5.0,2.0,2.0,4.0,-3.0,-24.0
1701634033.870918,10.0,45.0,4.0,3.0,0.0,0.0,8.0,11.0
1701634033.870918,-13.0,-3.0,-5.0,-5.0,-2.0,5.0,-2.0,26.0
1701634033.870918,10.0,-38.0,-5.0,0.0,2.0,-3.0,-20.0,-46.0
1701634033.870918,3.0,-2.0,3.0,2.0,0.0,2.0,8.0,6.0
1701634033.9008336,-3.0,-27.0,-4.0,0.0,3.0,-1.0,-12.0,2.0
1701634033.9008336,-3.0,4.0,0.0,-1.0,-1.0,-1.0,5.0,-7.0
1701634033.9008336,0.0,-64.0,-12.0,-6.0,-2.0,-3.0,2.0,15.0
1701634033.9008336,6.0,6.0,-3.0,-5.0,-3.0,-5.0,-1.0,27.0
1701634033.9105432,26.0,-30.0,-4.0,-4.0,-2.0,-4.0,-1.0,6.0
1701634033.9105432,5.0,33.0,7.0,4.0,2.0,4.0,2.0,-10.0
1701634033.9305484,-4.0,-31.0,-2.0,1.0,0.0,2.0,0.0,-9.0
1701634033.9305484,11.0,21.0,16.0,3.0,0.0,-5.0,1.0,18.0
1701634033.9305484,5.0,26.0,-12.0,-2.0,-1.0,0.0,-2.0,-8.0
1701634033.9305484,6.0,-9.0,3.0,-2.0,-3.0,-2.0,-3.0,-4.0
1701634033.9305484,-17.0,65.0,27.0,4.0,1.0,2.0,2.0,0.0
1701634033.9305484,-1.0,-11.0,-5.0,3.0,0.0,-1.0,-2.0,-3.0
1701634033.9608543,-18.0,-10.0,-22.0,-9.0,-4.0,-1.0,4.0,8.0
1701634033.9608543,-2.0,-12.0,9.0,-1.0,0.0,0.0,-3.0,-11.0
1701634033.9608543,-4.0,15.0,-16.0,0.0,1.0,0.0,0.0,1.0
1701634033.9608543,-4.0,12.0,30.0,2.0,-1.0,-2.0,0.0,-3.0
1701634033.970544,-1.0,0.0,6.0,4.0,1.0,0.0,-1.0,-7.0
1701634033.970544,1.0,-7.0,-12.0,-1.0,0.0,0.0,1.0,9.0
1701634033.9805794,6.0,5.0,15.0,0.0,-2.0,-3.0,-5.0,-1.0
1701634033.9805794,4.0,5.0,-22.0,-3.0,-3.0,-2.0,-5.0,-13.0
1701634033.9905443,1.0,-5.0,1.0,-3.0,2.0,-2.0,-2.0,1.0
1701634033.9905443,-5.0,-9.0,-4.0,-3.0,-2.0,-3.0,-1.0,-3.0
1701634033.9905443,-4.0,-1.0,6.0,-2.0,-2.0,-4.0,4.0,13.0
1701634033.9905443,-3.0,11.0,3.0,3.0,1.0,1.0,-1.0,-8.0
1701634034.020591,-5.0,9.0,3.0,1.0,-1.0,-3.0,-1.0,-8.0
1701634034.020591,-1.0,-32.0,-3.0,-5.0,-2.0,-2.0,1.0,0.0
1701634034.020591,0.0,17.0,0.0,3.0,0.0,2.0,-1.0,1.0
1701634034.020591,-6.0,-19.0,-11.0,-3.0,-3.0,-1.0,-3.0,-9.0
1701634034.0308402,3.0,12.0,6.0,-1.0,-1.0,2.0,2.0,11.0
1701634034.0308402,10.0,-3.0,-2.0,1.0,0.0,1.0,0.0,-3.0
1701634034.0408268,3.0,1.0,-12.0,-5.0,-2.0,0.0,0.0,3.0
1701634034.0408268,-6.0,2.0,-5.0,-3.0,-1.0,-1.0,0.0,2.0
1701634034.0508418,-6.0,5.0,7.0,2.0,1.0,0.0,3.0,1.0
1701634034.0508418,0.0,-4.0,-2.0,2.0,1.0,-1.0,-2.0,-9.0
1701634034.060549,-2.0,6.0,3.0,-1.0,1.0,-1.0,-2.0,-14.0
1701634034.060549,-6.0,-3.0,10.0,0.0,0.0,-1.0,4.0,18.0
1701634034.090545,5.0,-22.0,-36.0,-7.0,-2.0,-4.0,-11.0,-27.0
1701634034.090545,-12.0,1.0,-12.0,-3.0,-1.0,-4.0,-1.0,-13.0
1701634034.090545,4.0,-2.0,1.0,-4.0,-3.0,1.0,3.0,25.0
1701634034.090545,-3.0,14.0,9.0,1.0,-2.0,0.0,3.0,7.0
1701634034.090545,1.0,-10.0,4.0,2.0,0.0,-3.0,-5.0,-23.0
1701634034.090545,27.0,10.0,19.0,6.0,0.0,2.0,1.0,15.0
1701634034.1007738,-33.0,-5.0,-34.0,-2.0,0.0,2.0,-3.0,-16.0
1701634034.1007738,-1.0,-7.0,0.0,-5.0,-3.0,-2.0,6.0,19.0
1701634034.1107228,0.0,-25.0,-13.0,-10.0,-6.0,-3.0,-4.0,-5.0
1701634034.1107228,22.0,7.0,-2.0,-2.0,1.0,-1.0,-1.0,21.0
1701634034.1305437,4.0,23.0,17.0,6.0,3.0,2.0,0.0,-14.0
1701634034.1305437,-17.0,-22.0,-1.0,-2.0,-1.0,-1.0,-3.0,-5.0
1701634034.1407928,6.0,3.0,7.0,2.0,0.0,1.0,2.0,7.0
1701634034.1407928,-5.0,12.0,-10.0,-2.0,-1.0,-1.0,-1.0,-8.0
1701634034.1407928,-2.0,-15.0,-7.0,-4.0,-2.0,-1.0,-1.0,10.0
1701634034.1407928,6.0,-16.0,0.0,1.0,-1.0,-1.0,-6.0,-10.0
1701634034.1508684,8.0,22.0,7.0,3.0,2.0,0.0,2.0,14.0
1701634034.1508684,-10.0,-22.0,-1.0,-2.0,-1.0,-1.0,-3.0,-11.0
1701634034.1608412,-10.0,11.0,7.0,2.0,0.0,-3.0,0.0,-7.0
1701634034.1608412,1.0,7.0,-20.0,-5.0,-1.0,-1.0,-3.0,7.0
1701634034.1805434,-17.0,-3.0,22.0,2.0,-3.0,-1.0,-1.0,-25.0
1701634034.1805434,-6.0,11.0,8.0,2.0,2.0,-2.0,2.0,8.0
1701634034.1805434,-2.0,-8.0,-29.0,-12.0,-3.0,-3.0,-4.0,-3.0
1701634034.1805434,4.0,-2.0,3.0,1.0,1.0,0.0,-3.0,-5.0
1701634034.2087326,29.0,11.0,14.0,8.0,0.0,3.0,7.0,41.0
1701634034.2097542,-27.0,-19.0,-37.0,-19.0,-5.0,1.0,-2.0,-32.0
1701634034.2107494,4.0,12.0,11.0,3.0,0.0,0.0,-1.0,8.0
1701634034.2107494,-13.0,-7.0,-8.0,0.0,0.0,0.0,-1.0,-15.0
1701634034.223686,16.0,-1.0,-1.0,-1.0,-1.0,1.0,2.0,10.0
1701634034.2247076,5.0,13.0,8.0,3.0,-3.0,-1.0,-1.0,-3.0
1701634034.225702,9.0,-1.0,4.0,1.0,0.0,0.0,0.0,3.0
1701634034.225702,11.0,5.0,-3.0,-4.0,-4.0,-4.0,-3.0,-2.0
1701634034.2542455,-20.0,-20.0,-4.0,-2.0,0.0,-2.0,-2.0,-8.0
1701634034.2542455,-7.0,-13.0,21.0,4.0,-1.0,-2.0,0.0,3.0
1701634034.2542455,-18.0,-6.0,-25.0,-10.0,-4.0,-3.0,0.0,4.0
1701634034.2542455,-15.0,13.0,3.0,0.0,-1.0,-4.0,-3.0,-17.0
1701634034.2542455,8.0,1.0,0.0,-4.0,-1.0,1.0,6.0,30.0
1701634034.2542455,1.0,-2.0,2.0,-1.0,-1.0,-4.0,-5.0,3.0
1701634034.2542455,13.0,-8.0,13.0,2.0,-1.0,-1.0,1.0,15.0
1701634034.2542455,0.0,1.0,-11.0,-2.0,-1.0,-2.0,-2.0,-13.0
1701634034.2745564,11.0,-9.0,-5.0,-5.0,0.0,-3.0,4.0,26.0
1701634034.2745564,-2.0,9.0,2.0,-1.0,2.0,-2.0,2.0,1.0
1701634034.2842474,-18.0,-2.0,6.0,-2.0,4.0,-5.0,-6.0,-29.0
1701634034.2842474,-11.0,9.0,1.0,-3.0,2.0,-3.0,2.0,-7.0
1701634034.2942476,8.0,1.0,-1.0,-4.0,-1.0,-6.0,-3.0,15.0
1701634034.2942476,15.0,17.0,20.0,6.0,3.0,1.0,-2.0,-4.0
1701634034.3042796,36.0,-15.0,-33.0,-3.0,-1.0,2.0,-1.0,7.0
1701634034.3042796,11.0,-2.0,22.0,0.0,-1.0,3.0,-1.0,-4.0
1701634034.3146875,-32.0,-10.0,-1.0,1.0,-5.0,0.0,-6.0,-34.0
1701634034.3146875,-2.0,0.0,3.0,4.0,-1.0,3.0,6.0,25.0
1701634034.3146875,16.0,31.0,34.0,3.0,-3.0,1.0,-4.0,-9.0
1701634034.3146875,3.0,-13.0,-44.0,-13.0,-4.0,1.0,-2.0,7.0
1701634034.344249,-13.0,-22.0,5.0,-7.0,-6.0,-1.0,-4.0,-10.0
1701634034.344249,-21.0,6.0,-7.0,5.0,-2.0,2.0,0.0,2.0
1701634034.344249,-38.0,5.0,9.0,1.0,0.0,0.0,1.0,-3.0
1701634034.344249,-6.0,17.0,42.0,13.0,1.0,1.0,-1.0,5.0
1701634034.3642445,-13.0,4.0,-19.0,-5.0,-3.0,-4.0,-13.0,-66.0
1701634034.3642445,-12.0,-34.0,-34.0,-12.0,-4.0,-2.0,-2.0,-9.0
1701634034.3642445,0.0,-3.0,7.0,7.0,4.0,1.0,3.0,6.0
1701634034.3642445,-10.0,-6.0,52.0,19.0,0.0,0.0,2.0,17.0
1701634034.3745222,-4.0,4.0,-67.0,-26.0,-4.0,0.0,1.0,3.0
1701634034.3745222,13.0,17.0,18.0,5.0,2.0,2.0,0.0,-3.0
1701634034.3745222,2.0,-43.0,-18.0,-3.0,-9.0,-4.0,-5.0,-24.0
1701634034.3745222,18.0,9.0,20.0,3.0,-1.0,1.0,4.0,35.0
1701634034.4042513,8.0,34.0,65.0,28.0,7.0,3.0,3.0,10.0
1701634034.4042513,-33.0,-48.0,-29.0,-24.0,-9.0,-6.0,-4.0,-24.0
1701634034.4042513,27.0,7.0,48.0,14.0,6.0,2.0,1.0,-14.0
1701634034.4042513,12.0,38.0,-14.0,-4.0,3.0,2.0,0.0,-19.0
1701634034.42425,-13.0,-33.0,16.0,5.0,-3.0,-6.0,-6.0,-14.0
1701634034.42425,12.0,68.0,33.0,12.0,2.0,-1.0,-2.0,-13.0
1701634034.42425,-13.0,-64.0,7.0,-5.0,0.0,0.0,2.0,16.0
1701634034.42425,9.0,-6.0,-45.0,1.0,-7.0,-5.0,-4.0,-11.0
1701634034.4342818,-14.0,-6.0,-47.0,12.0,7.0,9.0,3.0,8.0
1701634034.4342818,-6.0,21.0,33.0,1.0,0.0,2.0,1.0,-4.0
1701634034.4342818,26.0,13.0,-88.0,-1.0,0.0,2.0,2.0,5.0
1701634034.4342818,8.0,-17.0,4.0,-27.0,-5.0,-2.0,-2.0,0.0
1701634034.464246,-9.0,-5.0,74.0,8.0,-6.0,-3.0,4.0,33.0
1701634034.464246,-2.0,6.0,-17.0,-8.0,0.0,2.0,4.0,11.0
1701634034.464246,7.0,21.0,-2.0,4.0,-3.0,-2.0,-1.0,17.0
1701634034.464246,-12.0,-11.0,-13.0,2.0,5.0,5.0,3.0,-31.0
1701634034.4845843,50.0,-4.0,-45.0,-9.0,-3.0,-3.0,-3.0,4.0
1701634034.4845843,23.0,-9.0,40.0,4.0,-2.0,-1.0,2.0,21.0
1701634034.4845843,-7.0,13.0,21.0,1.0,0.0,-2.0,1.0,7.0
1701634034.4845843,-30.0,-17.0,-28.0,-10.0,-4.0,-7.0,-7.0,-19.0
1701634034.4945414,4.0,22.0,44.0,6.0,3.0,0.0,2.0,1.0
1701634034.4945414,14.0,-27.0,-94.0,-7.0,-1.0,-1.0,-3.0,2.0
1701634034.4945414,-16.0,9.0,36.0,-7.0,-5.0,-2.0,-4.0,-12.0
1701634034.4945414,9.0,-1.0,-7.0,-4.0,-5.0,-5.0,-4.0,11.0
1701634034.5242486,-18.0,-3.0,2.0,0.0,3.0,-2.0,0.0,-22.0
1701634034.5242486,4.0,6.0,39.0,8.0,3.0,-1.0,-3.0,3.0
1701634034.5242486,-8.0,-16.0,-44.0,-18.0,-7.0,-4.0,-5.0,8.0
1701634034.5242486,1.0,-6.0,24.0,7.0,-3.0,-3.0,-1.0,-2.0
1701634034.5345929,3.0,19.0,17.0,2.0,0.0,-2.0,-1.0,-1.0
1701634034.5345929,-13.0,-27.0,-42.0,-9.0,-4.0,-3.0,-4.0,-10.0
1701634034.5446472,-3.0,10.0,9.0,3.0,2.0,1.0,3.0,3.0
1701634034.5446472,-2.0,8.0,5.0,-1.0,2.0,-1.0,-2.0,2.0
1701634034.5546741,-4.0,-22.0,-54.0,-12.0,-4.0,-2.0,3.0,24.0
1701634034.5546741,-5.0,5.0,18.0,4.0,-1.0,-1.0,-3.0,-18.0
1701634034.5546741,-8.0,1.0,-1.0,-2.0,-2.0,0.0,-2.0,0.0
1701634034.5546741,4.0,6.0,-1.0,0.0,-1.0,-2.0,1.0,0.0
1701634034.5842466,-7.0,3.0,2.0,-5.0,-1.0,-1.0,-2.0,2.0
1701634034.5842466,-2.0,-6.0,-4.0,1.0,-1.0,-2.0,-1.0,0.0
1701634034.5842466,-6.0,3.0,2.0,-3.0,-1.0,-2.0,-1.0,-3.0
1701634034.5842466,8.0,1.0,-4.0,-4.0,-2.0,-1.0,-1.0,1.0
1701634034.5942469,-5.0,-3.0,3.0,-1.0,-1.0,0.0,-1.0,-5.0
1701634034.5942469,-6.0,-4.0,-2.0,-2.0,-1.0,-2.0,-2.0,-2.0
1701634034.6042485,1.0,-2.0,4.0,-2.0,1.0,0.0,-1.0,-4.0
1701634034.6042485,-14.0,-5.0,-4.0,0.0,1.0,0.0,-1.0,-3.0
1701634034.6145933,-9.0,-2.0,-5.0,-3.0,-2.0,-4.0,-4.0,-6.0
1701634034.6145933,-12.0,-2.0,2.0,-1.0,-3.0,-3.0,-2.0,-12.0
1701634034.6145933,-3.0,1.0,3.0,-2.0,0.0,0.0,0.0,12.0
1701634034.6145933,-3.0,-4.0,-6.0,1.0,0.0,1.0,6.0,29.0
1701634034.6446724,1.0,5.0,0.0,-2.0,-3.0,0.0,-2.0,-8.0
1701634034.6446724,-4.0,-4.0,1.0,-2.0,0.0,0.0,3.0,22.0
1701634034.6446724,7.0,0.0,3.0,0.0,-2.0,-3.0,-3.0,-12.0
1701634034.6446724,37.0,0.0,-3.0,2.0,1.0,0.0,0.0,3.0
1701634034.6545832,2.0,1.0,1.0,-2.0,-1.0,-1.0,0.0,-8.0
1701634034.6545832,9.0,1.0,1.0,0.0,-1.0,-2.0,-4.0,-2.0
1701634034.6646626,1.0,-1.0,-3.0,-2.0,-2.0,-2.0,0.0,7.0
1701634034.6646626,5.0,3.0,1.0,-1.0,-1.0,-2.0,-4.0,-10.0
1701634034.6746192,0.0,5.0,-1.0,-1.0,-2.0,-2.0,-1.0,-3.0
1701634034.6746192,1.0,-5.0,-1.0,-1.0,0.0,-2.0,-1.0,-8.0
1701634034.6746192,7.0,-1.0,-3.0,-1.0,0.0,-1.0,0.0,-1.0
1701634034.6746192,-25.0,-5.0,-3.0,-2.0,-2.0,-2.0,-4.0,-11.0
1701634034.7042484,-5.0,0.0,2.0,-1.0,-1.0,0.0,-1.0,-2.0
1701634034.7042484,-8.0,-1.0,-1.0,-2.0,-2.0,-1.0,-1.0,4.0
1701634034.7042484,-7.0,-5.0,0.0,0.0,-1.0,-2.0,-1.0,-3.0
1701634034.7042484,-9.0,1.0,-1.0,-2.0,-1.0,-1.0,-1.0,-9.0
1701634034.7146988,-5.0,-4.0,-1.0,-2.0,-1.0,-2.0,-2.0,-2.0
1701634034.7146988,-3.0,1.0,1.0,2.0,0.0,1.0,0.0,1.0
1701634034.7246542,1.0,8.0,0.0,-2.0,-1.0,-4.0,1.0,-5.0
1701634034.7246542,11.0,-13.0,-6.0,0.0,-2.0,-3.0,-3.0,2.0
1701634034.741006,6.0,0.0,-2.0,-2.0,-3.0,-2.0,-1.0,-4.0
1701634034.741006,-7.0,3.0,-1.0,1.0,-2.0,-3.0,-1.0,-2.0
1701634034.7420108,13.0,-7.0,-2.0,1.0,-2.0,0.0,-3.0,-2.0
1701634034.7420108,-5.0,2.0,-2.0,1.0,-2.0,1.0,0.0,-14.0
1701634034.7678192,15.0,-3.0,0.0,-1.0,0.0,0.0,-2.0,-4.0
1701634034.7678192,1.0,2.0,3.0,2.0,1.0,-1.0,0.0,10.0
1701634034.7678192,-3.0,-3.0,-4.0,-3.0,-1.0,0.0,0.0,11.0
1701634034.7678192,18.0,2.0,0.0,-2.0,-1.0,-2.0,-4.0,-4.0
1701634034.7678192,-17.0,-6.0,-2.0,0.0,-1.0,-4.0,-7.0,10.0
1701634034.7678192,-2.0,3.0,-1.0,-1.0,-3.0,-3.0,9.0,13.0
1701634034.777835,-8.0,-3.0,-2.0,-5.0,-3.0,1.0,-7.0,-13.0
1701634034.777835,-15.0,-9.0,2.0,1.0,1.0,6.0,14.0,20.0
1701634034.8078227,-5.0,-3.0,-5.0,0.0,1.0,-1.0,-4.0,7.0
1701634034.8078227,-19.0,-2.0,-3.0,-3.0,-5.0,-4.0,-3.0,-43.0
1701634034.8078227,5.0,-1.0,0.0,-1.0,-2.0,-5.0,-7.0,-6.0
1701634034.8078227,-19.0,-5.0,-7.0,-2.0,-2.0,0.0,-5.0,12.0
1701634034.8178246,2.0,5.0,4.0,0.0,0.0,-1.0,-2.0,-4.0
1701634034.8178246,15.0,2.0,-3.0,-3.0,-2.0,-7.0,-17.0,-22.0
1701634034.8178246,-9.0,-10.0,-2.0,0.0,-1.0,9.0,24.0,9.0
1701634034.8178246,-3.0,14.0,4.0,-1.0,-1.0,0.0,-3.0,-12.0
1701634034.837882,1.0,-6.0,-3.0,-2.0,-3.0,-5.0,-1.0,-11.0
1701634034.837882,11.0,-2.0,-3.0,-2.0,-2.0,-1.0,-8.0,8.0
1701634034.8481054,-8.0,8.0,2.0,1.0,-2.0,-5.0,0.0,-2.0
1701634034.8481054,2.0,-8.0,-1.0,0.0,4.0,8.0,8.0,-2.0
1701634034.8681278,0.0,13.0,5.0,1.0,-2.0,-4.0,-2.0,3.0
1701634034.8681278,-4.0,-15.0,-7.0,-5.0,-7.0,-4.0,2.0,10.0
1701634034.8881216,-3.0,10.0,3.0,3.0,2.0,4.0,-2.0,1.0
1701634034.8881216,2.0,-14.0,-3.0,1.0,4.0,-1.0,-5.0,-1.0
1701634034.8881216,-4.0,1.0,1.0,0.0,1.0,6.0,1.0,-6.0
1701634034.8881216,-3.0,0.0,1.0,1.0,1.0,-2.0,-7.0,-3.0
1701634034.8881216,4.0,15.0,5.0,-1.0,-7.0,-7.0,-6.0,-2.0
1701634034.8881216,-6.0,-19.0,-8.0,-6.0,-6.0,-10.0,-8.0,-11.0
1701634034.8881216,-4.0,1.0,-3.0,-2.0,2.0,0.0,2.0,0.0
1701634034.8981347,16.0,-2.0,0.0,-2.0,0.0,3.0,-3.0,1.0
1701634034.8981347,-2.0,-5.0,-2.0,0.0,-1.0,-3.0,7.0,3.0
1701634034.8981347,-5.0,17.0,2.0,-3.0,-3.0,0.0,-7.0,6.0
1701634034.9281218,3.0,-19.0,-5.0,0.0,-4.0,-5.0,2.0,-9.0
1701634034.9281218,3.0,1.0,-1.0,-5.0,-2.0,2.0,11.0,9.0
1701634034.9281218,-6.0,0.0,-1.0,-2.0,-1.0,-7.0,-7.0,21.0
1701634034.9281218,-10.0,2.0,-2.0,-1.0,-1.0,-2.0,-3.0,-18.0
1701634034.9385262,1.0,6.0,0.0,-2.0,-3.0,-2.0,2.0,4.0
1701634034.9385262,-4.0,-9.0,-3.0,-2.0,-1.0,2.0,-5.0,-7.0
1701634034.9385262,-5.0,4.0,10.0,5.0,3.0,0.0,-11.0,-7.0
1701634034.9385262,7.0,-13.0,-8.0,-4.0,-5.0,-7.0,-6.0,6.0
1701634034.9484868,-10.0,-14.0,-6.0,-3.0,-2.0,2.0,-1.0,-2.0
1701634034.9484868,-4.0,-4.0,-2.0,2.0,-1.0,0.0,7.0,5.0
1701634034.9583917,3.0,8.0,-3.0,-2.0,-1.0,-2.0,-3.0,-5.0
1701634034.9583917,1.0,0.0,5.0,5.0,1.0,1.0,0.0,-1.0
1701634034.9781222,-6.0,3.0,-3.0,-3.0,3.0,4.0,5.0,-4.0
1701634034.9781222,-1.0,1.0,7.0,3.0,1.0,-7.0,-23.0,-3.0
1701634034.9781222,2.0,-3.0,-9.0,-6.0,-1.0,4.0,18.0,-2.0
1701634034.9881349,-2.0,17.0,2.0,-4.0,-8.0,-4.0,4.0,-2.0
1701634034.998468,16.0,-1.0,3.0,-1.0,-6.0,-1.0,-8.0,4.0
1701634034.998468,-14.0,-1.0,-1.0,2.0,11.0,2.0,-9.0,-4.0
1701634034.998468,-19.0,-2.0,0.0,1.0,0.0,3.0,11.0,-1.0
1701634034.998468,-6.0,6.0,4.0,1.0,2.0,-4.0,-7.0,-3.0
1701634035.0281298,-8.0,3.0,5.0,1.0,-1.0,0.0,7.0,1.0
1701634035.0281298,3.0,-1.0,-5.0,-5.0,-10.0,-9.0,1.0,-6.0
1701634035.0281298,3.0,4.0,3.0,1.0,-4.0,-5.0,-30.0,-9.0
1701634035.0281298,-4.0,-14.0,-12.0,-5.0,1.0,6.0,20.0,3.0
1701634035.0381594,-4.0,3.0,1.0,2.0,2.0,-1.0,-6.0,1.0
1701634035.0381594,-2.0,6.0,1.0,0.0,0.0,1.0,-3.0,-7.0
1701634035.0381594,1.0,1.0,0.0,5.0,4.0,-2.0,4.0,3.0
1701634035.0381594,1.0,-10.0,-1.0,-5.0,-7.0,-7.0,-20.0,-15.0
1701634035.0584671,4.0,5.0,-5.0,-5.0,-5.0,-4.0,-2.0,-1.0
1701634035.0584671,1.0,0.0,0.0,0.0,-1.0,2.0,11.0,6.0
1701634035.0584671,7.0,6.0,3.0,-2.0,-5.0,-2.0,-7.0,-3.0
1701634035.0584671,1.0,9.0,8.0,1.0,-3.0,1.0,2.0,1.0
1701634035.098126,-5.0,-16.0,-11.0,-2.0,11.0,1.0,0.0,-3.0
1701634035.098126,3.0,9.0,-2.0,-2.0,-2.0,6.0,10.0,1.0
1701634035.098126,-1.0,-14.0,-2.0,0.0,-2.0,-2.0,0.0,-3.0
1701634035.098126,0.0,3.0,-5.0,-3.0,-2.0,-1.0,0.0,3.0
1701634035.098126,-2.0,-3.0,1.0,-4.0,-10.0,-8.0,-9.0,-4.0
1701634035.098126,2.0,6.0,3.0,2.0,-2.0,-1.0,6.0,3.0
1701634035.098126,0.0,-13.0,-6.0,-2.0,2.0,3.0,-9.0,-3.0
1701634035.098126,1.0,2.0,2.0,-2.0,9.0,3.0,1.0,0.0
1701634035.1181352,0.0,14.0,-1.0,-1.0,-12.0,2.0,8.0,1.0
1701634035.1181352,-4.0,-16.0,-3.0,-4.0,-12.0,-2.0,-3.0,2.0
1701634035.1181352,4.0,4.0,2.0,5.0,26.0,6.0,7.0,2.0
1701634035.1181352,1.0,-8.0,-1.0,7.0,9.0,0.0,-4.0,3.0
1701634035.128172,-6.0,-23.0,-5.0,-5.0,-4.0,-7.0,-6.0,-2.0
1701634035.128172,6.0,1.0,1.0,-4.0,-12.0,-5.0,3.0,4.0
1701634035.158124,-15.0,-18.0,-11.0,-10.0,-23.0,-12.0,-2.0,-6.0
1701634035.158124,1.0,8.0,2.0,1.0,2.0,4.0,-5.0,2.0
1701634035.158124,7.0,24.0,6.0,11.0,20.0,7.0,2.0,4.0
1701634035.158124,-2.0,-23.0,-6.0,-4.0,-9.0,-2.0,4.0,1.0
1701634035.158124,3.0,0.0,1.0,-3.0,-15.0,-11.0,-17.0,-5.0
1701634035.158124,-2.0,0.0,-6.0,-5.0,-3.0,7.0,15.0,-4.0
1701634035.1784506,-1.0,5.0,-2.0,-2.0,-15.0,-2.0,4.0,1.0
1701634035.1784506,7.0,5.0,14.0,5.0,26.0,25.0,1.0,2.0
1701634035.1784506,-1.0,-8.0,-11.0,3.0,25.0,3.0,7.0,2.0
1701634035.1784506,-9.0,6.0,-1.0,-7.0,-10.0,-16.0,-7.0,0.0
1701634035.198125,-10.0,-13.0,4.0,-4.0,4.0,-12.0,-11.0,-7.0
1701634035.198125,-5.0,5.0,-3.0,-1.0,0.0,-6.0,7.0,-1.0
1701634035.2081249,2.0,6.0,2.0,-6.0,-8.0,1.0,1.0,-3.0
1701634035.2081249,3.0,-3.0,1.0,-2.0,-29.0,-20.0,-11.0,-5.0
1701634035.2185884,-7.0,-24.0,-14.0,-13.0,8.0,-2.0,-3.0,-4.0
1701634035.2185884,1.0,9.0,-5.0,11.0,23.0,18.0,0.0,1.0
1701634035.2185884,-1.0,5.0,9.0,0.0,-3.0,0.0,2.0,0.0
1701634035.2185884,1.0,8.0,3.0,3.0,-3.0,-7.0,0.0,3.0
1701634035.2381678,-3.0,6.0,2.0,-5.0,-10.0,-11.0,-14.0,-9.0
1701634035.2381678,-3.0,2.0,-1.0,-7.0,-11.0,-1.0,-1.0,-6.0
1701634035.2381678,-3.0,-30.0,-10.0,3.0,12.0,11.0,9.0,3.0
1701634035.2381678,7.0,15.0,6.0,9.0,13.0,12.0,8.0,4.0
1701634035.2662995,-3.0,-10.0,2.0,1.0,-9.0,-5.0,-10.0,-1.0
1701634035.2662995,22.0,-3.0,-7.0,-5.0,-3.0,-16.0,-7.0,6.0
1701634035.2674255,-5.0,6.0,1.0,-10.0,-18.0,10.0,17.0,-3.0
1701634035.2674255,-2.0,-5.0,-6.0,-12.0,-9.0,-9.0,-18.0,0.0
1701634035.2804365,2.0,15.0,4.0,3.0,-8.0,1.0,7.0,10.0
1701634035.2804365,-9.0,1.0,9.0,9.0,20.0,12.0,6.0,-13.0
1701634035.2828162,9.0,7.0,-11.0,-1.0,5.0,-8.0,-2.0,8.0
1701634035.2828162,3.0,5.0,1.0,2.0,8.0,3.0,0.0,-3.0
1701634035.3028176,4.0,-13.0,-11.0,-7.0,-5.0,-2.0,4.0,7.0
1701634035.3028176,-11.0,-2.0,2.0,-10.0,-27.0,-27.0,-28.0,-6.0
1701634035.3028176,0.0,0.0,3.0,-2.0,-14.0,-5.0,-6.0,-6.0
1701634035.3028176,-1.0,-5.0,-9.0,3.0,32.0,32.0,14.0,0.0
1701634035.3230824,17.0,20.0,8.0,8.0,-6.0,-9.0,-5.0,-7.0
1701634035.3230824,-11.0,-10.0,-5.0,4.0,12.0,18.0,9.0,1.0
1701634035.3230824,8.0,12.0,5.0,2.0,-11.0,-9.0,-5.0,0.0
1701634035.3230824,-3.0,2.0,-7.0,-10.0,-11.0,-1.0,-5.0,-1.0
1701634035.3330638,-6.0,-17.0,-6.0,1.0,-2.0,9.0,3.0,-3.0
1701634035.3330638,-4.0,-11.0,-6.0,-3.0,-1.0,-25.0,-5.0,2.0
1701634035.3428211,-6.0,2.0,8.0,4.0,3.0,12.0,-8.0,-2.0
1701634035.3428211,-5.0,-12.0,-17.0,-11.0,-15.0,-14.0,9.0,-5.0
1701634035.3631408,-1.0,20.0,10.0,-1.0,4.0,13.0,1.0,-2.0
1701634035.3631408,5.0,7.0,-1.0,7.0,19.0,17.0,21.0,9.0
1701634035.3631408,-13.0,-5.0,-8.0,-12.0,-48.0,-38.0,-20.0,-3.0
1701634035.3631408,-5.0,12.0,7.0,-7.0,17.0,3.0,-5.0,-10.0
1701634035.3828194,-5.0,-26.0,-1.0,14.0,35.0,15.0,3.0,-1.0
1701634035.3828194,-1.0,-2.0,-4.0,-3.0,-19.0,-10.0,-6.0,0.0
1701634035.3828194,3.0,-5.0,0.0,-2.0,9.0,2.0,-1.0,0.0
1701634035.3828194,-3.0,-5.0,1.0,-2.0,-31.0,-24.0,-3.0,2.0
1701634035.3928437,1.0,11.0,1.0,0.0,-6.0,-27.0,6.0,6.0
1701634035.3928437,-8.0,-3.0,-3.0,-4.0,10.0,53.0,28.0,-6.0
1701634035.40282,3.0,0.0,2.0,4.0,12.0,4.0,-3.0,2.0
1701634035.40282,5.0,1.0,-2.0,5.0,0.0,-32.0,-23.0,-1.0
1701634035.42285,-12.0,-11.0,-5.0,-5.0,2.0,32.0,21.0,-3.0
1701634035.42285,4.0,-13.0,-2.0,-5.0,-14.0,-20.0,-10.0,-3.0
1701634035.42285,-5.0,-6.0,-5.0,-3.0,0.0,-3.0,2.0,-1.0
1701634035.42285,7.0,14.0,7.0,4.0,2.0,10.0,5.0,4.0
1701634035.443225,-3.0,2.0,-2.0,5.0,7.0,-8.0,-8.0,-2.0
1701634035.443225,-5.0,3.0,1.0,-7.0,-16.0,-12.0,-9.0,-2.0
1701634035.443225,1.0,0.0,3.0,1.0,3.0,3.0,0.0,-6.0
1701634035.443225,-5.0,-23.0,-4.0,-1.0,4.0,1.0,-2.0,3.0
1701634035.453184,3.0,9.0,1.0,1.0,-3.0,3.0,2.0,0.0
1701634035.453184,-3.0,-3.0,-1.0,2.0,-6.0,-13.0,-8.0,-5.0
1701634035.4728165,7.0,20.0,9.0,8.0,15.0,6.0,5.0,3.0
1701634035.4728165,-4.0,-13.0,5.0,3.0,0.0,9.0,4.0,0.0
1701634035.482997,-6.0,-16.0,-9.0,-8.0,-8.0,-5.0,-6.0,-4.0
1701634035.482997,1.0,11.0,5.0,-2.0,-4.0,-11.0,-7.0,-1.0
1701634035.482997,-1.0,1.0,-6.0,-5.0,-2.0,-5.0,-3.0,-2.0
1701634035.482997,-10.0,-34.0,0.0,-12.0,-15.0,1.0,-2.0,-2.0
1701634035.503226,0.0,1.0,-15.0,-1.0,8.0,0.0,-2.0,-2.0
1701634035.503226,-2.0,-4.0,-28.0,-9.0,-2.0,-7.0,-7.0,1.0
1701634035.503226,2.0,21.0,27.0,-3.0,-3.0,1.0,0.0,-3.0
1701634035.503226,1.0,-5.0,18.0,11.0,1.0,2.0,3.0,-1.0
1701634035.51316,4.0,17.0,44.0,2.0,-5.0,-1.0,-1.0,0.0
1701634035.51316,-5.0,-6.0,-3.0,3.0,-2.0,0.0,-1.0,-2.0
1701634035.5328178,-1.0,-4.0,-17.0,-3.0,-2.0,3.0,2.0,1.0
1701634035.5328178,-5.0,-23.0,-21.0,-12.0,3.0,6.0,1.0,0.0
1701634035.5428207,-1.0,8.0,4.0,5.0,-2.0,-6.0,-5.0,-1.0
1701634035.5428207,5.0,22.0,33.0,12.0,5.0,3.0,2.0,4.0
1701634035.5428207,-5.0,-14.0,-23.0,-4.0,-1.0,0.0,0.0,-3.0
1701634035.5428207,1.0,8.0,17.0,0.0,1.0,0.0,0.0,0.0
1701634035.563068,3.0,0.0,-9.0,-7.0,-6.0,-2.0,0.0,1.0
1701634035.563068,-9.0,-27.0,11.0,-1.0,-8.0,-8.0,-6.0,-4.0
1701634035.563068,-4.0,-12.0,-7.0,0.0,8.0,5.0,2.0,-3.0
1701634035.563068,0.0,-4.0,21.0,12.0,3.0,2.0,2.0,0.0
1701634035.5730488,1.0,22.0,-26.0,-23.0,-11.0,-6.0,-4.0,-1.0
1701634035.5730488,-3.0,-12.0,2.0,-1.0,-2.0,-3.0,0.0,1.0
1701634035.5830355,6.0,16.0,6.0,10.0,7.0,2.0,4.0,6.0
1701634035.5830355,-7.0,-13.0,-18.0,-4.0,-3.0,-1.0,-2.0,-4.0
1701634035.6028178,3.0,3.0,25.0,11.0,-5.0,-5.0,-3.0,-1.0
1701634035.6028178,1.0,12.0,-24.0,1.0,9.0,6.0,0.0,1.0
1701634035.6028178,-1.0,8.0,38.0,3.0,-3.0,-2.0,-1.0,-2.0
1701634035.6028178,-5.0,-11.0,8.0,8.0,3.0,0.0,0.0,-2.0
1701634035.6232343,9.0,30.0,-28.0,3.0,-1.0,1.0,0.0,2.0
1701634035.6232343,-8.0,-32.0,-36.0,-21.0,-5.0,-5.0,-3.0,-4.0
1701634035.6232343,-7.0,-28.0,-16.0,-1.0,0.0,0.0,-1.0,-2.0
1701634035.6232343,3.0,26.0,3.0,-7.0,-6.0,-5.0,-3.0,0.0
1701634035.633178,-4.0,-23.0,-61.0,-3.0,3.0,3.0,-2.0,-3.0
1701634035.633178,3.0,21.0,2.0,-12.0,-10.0,-10.0,-4.0,-1.0
1701634035.652817,-3.0,-8.0,2.0,-1.0,0.0,2.0,-3.0,-2.0
1701634035.652817,2.0,9.0,-1.0,3.0,4.0,4.0,2.0,1.0
1701634035.663189,2.0,-1.0,52.0,4.0,-4.0,-3.0,-3.0,-1.0
1701634035.663189,-12.0,-26.0,-60.0,-14.0,-9.0,-7.0,-6.0,-6.0
1701634035.663189,-3.0,-3.0,27.0,3.0,-5.0,-6.0,-3.0,-2.0
1701634035.663189,4.0,18.0,36.0,7.0,2.0,-1.0,-1.0,1.0
1701634035.6830904,-6.0,-41.0,-70.0,-15.0,3.0,5.0,4.0,-2.0
1701634035.6830904,5.0,19.0,57.0,10.0,-1.0,-3.0,-3.0,1.0
1701634035.6830904,-2.0,-3.0,-3.0,-6.0,-5.0,-3.0,-3.0,-2.0
1701634035.6830904,4.0,22.0,-9.0,-1.0,-2.0,-2.0,-4.0,1.0
1701634035.6928177,0.0,-2.0,29.0,2.0,0.0,2.0,2.0,0.0
1701634035.6928177,5.0,10.0,-3.0,3.0,1.0,0.0,0.0,0.0
1701634035.7031271,-1.0,-2.0,-25.0,-3.0,2.0,2.0,0.0,-1.0
1701634035.7031271,1.0,1.0,-3.0,12.0,4.0,1.0,0.0,1.0
1701634035.7228513,-10.0,-11.0,5.0,-1.0,-8.0,-6.0,-3.0,-5.0
1701634035.7228513,-18.0,-52.0,-10.0,-4.0,0.0,-2.0,-3.0,-8.0
1701634035.7228513,5.0,2.0,-2.0,-5.0,2.0,0.0,0.0,1.0
1701634035.7228513,-1.0,3.0,-18.0,-11.0,-5.0,-3.0,1.0,0.0
1701634035.7428193,-3.0,0.0,12.0,5.0,1.0,-2.0,-1.0,1.0
1701634035.7428193,12.0,30.0,17.0,-1.0,-1.0,1.0,2.0,4.0
1701634035.7428193,-6.0,-15.0,-17.0,-19.0,8.0,0.0,-1.0,-1.0
1701634035.7428193,-2.0,-4.0,-18.0,23.0,-9.0,0.0,0.0,-2.0
1701634035.7528176,6.0,13.0,7.0,9.0,11.0,4.0,1.0,3.0
1701634035.7528176,4.0,15.0,15.0,15.0,5.0,0.0,1.0,1.0
1701634035.7731183,-5.0,-11.0,-5.0,2.0,-2.0,-3.0,-2.0,-2.0
1701634035.7731183,6.0,14.0,-3.0,-25.0,-7.0,-2.0,0.0,0.0
1701634035.7830856,-2.0,2.0,11.0,-3.0,-7.0,-5.0,-2.0,-2.0
1701634035.7830856,-7.0,-23.0,-2.0,5.0,-1.0,-4.0,-2.0,-4.0
1701634035.7830856,2.0,7.0,0.0,0.0,1.0,1.0,1.0,0.0
1701634035.7830856,-12.0,-26.0,-18.0,-8.0,-2.0,-5.0,-6.0,-6.0
1701634035.8069577,-3.0,-3.0,8.0,2.0,-6.0,-2.0,-1.0,0.0
1701634035.8069577,1.0,6.0,-3.0,-3.0,3.0,3.0,-2.0,-2.0
1701634035.8109097,2.0,-2.0,-1.0,7.0,-3.0,0.0,2.0,3.0
1701634035.8109097,6.0,16.0,10.0,6.0,4.0,1.0,0.0,2.0
1701634035.8255472,-6.0,-14.0,-7.0,-9.0,-8.0,-8.0,-6.0,-5.0
1701634035.8255472,2.0,11.0,3.0,-1.0,1.0,-1.0,-1.0,-1.0
1701634035.8255472,2.0,14.0,0.0,-1.0,-2.0,-1.0,-2.0,2.0
1701634035.8255472,-11.0,-20.0,-13.0,0.0,4.0,1.0,-1.0,-3.0
1701634035.8355691,0.0,10.0,6.0,-6.0,-5.0,-2.0,-3.0,-3.0
1701634035.8355691,2.0,2.0,3.0,4.0,1.0,3.0,-1.0,3.0
1701634035.8455844,-14.0,0.0,3.0,8.0,0.0,-3.0,2.0,-11.0
1701634035.8455844,-2.0,3.0,1.0,-3.0,-4.0,-9.0,-1.0,0.0
1701634035.8657463,14.0,7.0,3.0,-2.0,-2.0,-11.0,-3.0,14.0
1701634035.8657463,-8.0,-5.0,-1.0,-2.0,1.0,10.0,0.0,6.0
1701634035.8855438,6.0,-4.0,-1.0,5.0,1.0,-1.0,2.0,-5.0
1701634035.8855438,-26.0,1.0,-9.0,-9.0,-3.0,11.0,-4.0,-26.0
1701634035.8855438,-4.0,-2.0,0.0,-1.0,-8.0,-27.0,-6.0,-17.0
1701634035.8855438,-2.0,10.0,1.0,-6.0,-6.0,3.0,-20.0,-10.0
1701634035.8855438,-11.0,-7.0,-1.0,-1.0,2.0,23.0,26.0,-7.0
1701634035.8855438,2.0,-2.0,4.0,6.0,2.0,3.0,-5.0,5.0
1701634035.8955433,3.0,2.0,-2.0,2.0,2.0,-2.0,1.0,5.0
1701634035.8955433,-7.0,-13.0,-3.0,0.0,-3.0,-4.0,9.0,-17.0
1701634035.8955433,18.0,4.0,-4.0,-8.0,-9.0,-15.0,-12.0,10.0
1701634035.8955433,4.0,-9.0,-1.0,4.0,2.0,2.0,5.0,12.0
1701634035.9255753,-5.0,-3.0,3.0,-1.0,2.0,1.0,-2.0,-2.0
1701634035.9255753,0.0,-6.0,5.0,3.0,2.0,-1.0,9.0,0.0
1701634035.9255753,-3.0,-9.0,-6.0,-2.0,-5.0,-9.0,-7.0,4.0
1701634035.9255753,8.0,4.0,0.0,-3.0,-2.0,-4.0,3.0,3.0
1701634035.9359784,-4.0,3.0,-1.0,-3.0,4.0,14.0,2.0,-2.0
1701634035.9359784,6.0,10.0,3.0,3.0,0.0,-3.0,0.0,8.0
1701634035.9459367,-2.0,-7.0,-3.0,-1.0,-2.0,1.0,1.0,9.0
1701634035.9459367,9.0,11.0,7.0,4.0,1.0,-9.0,-12.0,-15.0
1701634035.9559534,-4.0,-18.0,-9.0,-2.0,0.0,5.0,2.0,7.0
1701634035.9559534,5.0,16.0,1.0,-3.0,-3.0,-5.0,-2.0,1.0
1701634035.9559534,-2.0,-2.0,-5.0,-3.0,0.0,5.0,7.0,0.0
1701634035.9559534,3.0,6.0,5.0,-2.0,0.0,-1.0,-2.0,3.0
1701634035.9855692,-8.0,0.0,5.0,5.0,4.0,10.0,-5.0,0.0
1701634035.9855692,4.0,-5.0,-9.0,-2.0,-2.0,2.0,11.0,2.0
1701634035.9855692,-4.0,-7.0,-6.0,-5.0,-6.0,-10.0,-12.0,-9.0
1701634035.9855692,-4.0,-11.0,-2.0,-3.0,-1.0,1.0,1.0,5.0
1701634035.9958801,-5.0,1.0,5.0,0.0,-3.0,0.0,-2.0,-6.0
1701634035.9958801,-10.0,-9.0,-10.0,-5.0,-1.0,-7.0,-2.0,0.0
1701634036.0058606,9.0,6.0,3.0,1.0,-5.0,-5.0,-10.0,6.0
1701634036.0058606,-14.0,-1.0,0.0,-3.0,-3.0,3.0,10.0,1.0
1701634036.015895,7.0,7.0,10.0,4.0,2.0,8.0,-3.0,3.0
1701634036.015895,-12.0,-11.0,-7.0,-1.0,1.0,-3.0,-7.0,-15.0
1701634036.0258055,2.0,-4.0,0.0,1.0,1.0,-1.0,1.0,5.0
1701634036.0258055,-5.0,-15.0,-8.0,-8.0,-4.0,-9.0,1.0,17.0
1701634036.0455744,-8.0,-17.0,-1.0,-3.0,-6.0,-2.0,4.0,-18.0
1701634036.0455744,15.0,17.0,4.0,-2.0,1.0,-6.0,-16.0,10.0
1701634036.0455744,11.0,5.0,1.0,2.0,-2.0,-2.0,-3.0,-13.0
1701634036.0455744,3.0,-5.0,-10.0,-9.0,-6.0,-8.0,1.0,6.0
1701634036.0559459,-11.0,-3.0,-7.0,-6.0,0.0,14.0,4.0,3.0
1701634036.0559459,-9.0,-4.0,10.0,4.0,2.0,11.0,15.0,9.0
1701634036.0659494,-23.0,3.0,-2.0,-5.0,-2.0,-1.0,-15.0,-18.0
1701634036.0659494,-11.0,-2.0,0.0,-1.0,-2.0,-8.0,-6.0,-5.0
1701634036.0760078,3.0,1.0,-5.0,0.0,-5.0,-13.0,-11.0,-2.0
1701634036.0760078,-14.0,-19.0,-9.0,-4.0,-4.0,7.0,5.0,-4.0
1701634036.086317,13.0,3.0,-1.0,-4.0,-5.0,-15.0,-14.0,-16.0
1701634036.086317,-2.0,3.0,1.0,1.0,2.0,17.0,-5.0,5.0
1701634036.1060188,-6.0,-7.0,-1.0,0.0,-2.0,-12.0,-7.0,5.0
1701634036.1060188,7.0,14.0,1.0,-2.0,0.0,12.0,2.0,-6.0
1701634036.1060188,-4.0,-1.0,-2.0,-2.0,0.0,-4.0,7.0,2.0
1701634036.1060188,7.0,-7.0,-7.0,0.0,0.0,4.0,-1.0,-13.0
1701634036.1263347,3.0,0.0,1.0,-1.0,1.0,-2.0,-1.0,-7.0
1701634036.1263347,11.0,10.0,3.0,0.0,1.0,0.0,6.0,14.0
1701634036.1263347,-10.0,-4.0,4.0,3.0,-1.0,-4.0,4.0,3.0
1701634036.1263347,0.0,7.0,3.0,0.0,2.0,-5.0,-7.0,-13.0
1701634036.1560566,5.0,7.0,-3.0,-4.0,-2.0,2.0,6.0,14.0
1701634036.1560566,2.0,4.0,4.0,0.0,-2.0,-11.0,-11.0,-4.0
1701634036.1560566,6.0,-16.0,-8.0,-2.0,1.0,14.0,3.0,2.0
1701634036.1560566,16.0,10.0,15.0,4.0,4.0,1.0,9.0,0.0
1701634036.1560566,4.0,0.0,1.0,1.0,-2.0,-2.0,-12.0,-10.0
1701634036.1660707,-5.0,9.0,2.0,2.0,0.0,-1.0,-4.0,1.0
1701634036.1660707,-17.0,1.0,7.0,3.0,-1.0,3.0,13.0,13.0
1701634036.1660707,13.0,-10.0,-17.0,-7.0,-2.0,-3.0,-3.0,-2.0
1701634036.1864862,10.0,-5.0,-1.0,1.0,0.0,-1.0,21.0,3.0
1701634036.1864862,-4.0,-11.0,1.0,0.0,-2.0,-9.0,2.0,-7.0
1701634036.1961083,10.0,4.0,-6.0,-4.0,1.0,7.0,0.0,14.0
1701634036.1961083,-10.0,4.0,3.0,4.0,0.0,1.0,-4.0,-11.0
1701634036.2060719,2.0,3.0,0.0,0.0,2.0,-1.0,9.0,14.0
1701634036.2060719,13.0,-4.0,-9.0,-5.0,-4.0,2.0,1.0,1.0
1701634036.2060719,-6.0,-3.0,-2.0,1.0,1.0,3.0,-6.0,-18.0
1701634036.2060719,-10.0,-8.0,-6.0,-3.0,-3.0,-8.0,3.0,8.0
1701634036.2260733,3.0,-2.0,-6.0,-1.0,-3.0,0.0,-7.0,-4.0
1701634036.2260733,3.0,-4.0,0.0,2.0,-1.0,-1.0,-3.0,4.0
1701634036.2260733,-7.0,-11.0,-8.0,-3.0,-2.0,-1.0,-3.0,-6.0
1701634036.2260733,0.0,0.0,-6.0,-5.0,-6.0,-2.0,-8.0,-12.0
1701634036.2460804,4.0,-12.0,-11.0,-6.0,-4.0,0.0,-6.0,-3.0
1701634036.2460804,-6.0,13.0,11.0,4.0,0.0,4.0,1.0,-4.0
1701634036.2460804,0.0,-2.0,0.0,1.0,-2.0,-5.0,-3.0,1.0
1701634036.2460804,-6.0,-13.0,-6.0,-6.0,-5.0,-6.0,-3.0,-2.0
1701634036.2660701,-13.0,-15.0,-2.0,5.0,4.0,4.0,1.0,-3.0
1701634036.2660701,1.0,-12.0,-9.0,-4.0,-2.0,-6.0,-5.0,-5.0
1701634036.2660701,0.0,16.0,4.0,0.0,0.0,-1.0,0.0,0.0
1701634036.2660701,6.0,4.0,7.0,4.0,3.0,2.0,0.0,8.0
1701634036.2860858,3.0,6.0,3.0,1.0,1.0,0.0,0.0,8.0
1701634036.2860858,-1.0,-6.0,-7.0,-3.0,-2.0,-3.0,-3.0,-3.0
1701634036.2860858,-4.0,-3.0,-2.0,-1.0,-2.0,-5.0,-4.0,-1.0
1701634036.2860858,1.0,2.0,1.0,0.0,-2.0,2.0,0.0,1.0
1701634036.3064709,-4.0,1.0,1.0,-5.0,-2.0,-2.0,-3.0,-8.0
1701634036.3064709,-43.0,-21.0,-8.0,-7.0,-5.0,-6.0,-5.0,-10.0
1701634036.3064709,-6.0,2.0,-4.0,-4.0,-4.0,0.0,-2.0,3.0
1701634036.3064709,-2.0,0.0,0.0,1.0,-3.0,-3.0,-2.0,-12.0
1701634036.3164816,-5.0,13.0,6.0,1.0,0.0,3.0,0.0,-7.0
1701634036.3164816,6.0,-4.0,-5.0,-3.0,-2.0,0.0,0.0,5.0
1701634036.329369,-2.0,-4.0,-1.0,1.0,0.0,-1.0,-4.0,-4.0
1701634036.329369,-9.0,-3.0,-4.0,-2.0,-2.0,-2.0,1.0,9.0
1701634036.3460414,-8.0,-4.0,-5.0,0.0,1.0,2.0,1.0,-3.0
1701634036.3460414,9.0,8.0,10.0,2.0,0.0,0.0,-1.0,0.0
1701634036.3470592,-1.0,-9.0,-51.0,-12.0,-4.0,-4.0,-2.0,0.0
1701634036.3480554,3.0,0.0,6.0,5.0,4.0,1.0,-1.0,-1.0
1701634036.3685896,-9.0,-24.0,-23.0,-13.0,-9.0,-6.0,-4.0,-7.0
1701634036.3685896,4.0,4.0,0.0,-2.0,-2.0,-4.0,1.0,4.0
1701634036.3685896,-2.0,1.0,28.0,2.0,2.0,3.0,2.0,0.0
1701634036.3685896,-10.0,-33.0,-14.0,-6.0,-2.0,0.0,0.0,-2.0
1701634036.3783154,-2.0,7.0,2.0,2.0,1.0,1.0,-2.0,-4.0
1701634036.3783154,-2.0,1.0,13.0,2.0,-1.0,-3.0,-4.0,-2.0
1701634036.3983135,-4.0,11.0,-7.0,-2.0,-1.0,0.0,-2.0,-1.0
1701634036.3983135,10.0,3.0,1.0,1.0,0.0,-2.0,-1.0,7.0
1701634036.3983135,2.0,1.0,28.0,7.0,2.0,-3.0,-2.0,-6.0
1701634036.3983135,3.0,8.0,-27.0,-2.0,1.0,0.0,0.0,0.0
1701634036.3983135,4.0,-17.0,9.0,3.0,0.0,-2.0,0.0,2.0
1701634036.4083192,-6.0,-14.0,-8.0,-4.0,0.0,2.0,1.0,1.0
1701634036.4383123,3.0,19.0,39.0,8.0,2.0,-3.0,-1.0,2.0
1701634036.4383123,-3.0,-20.0,-12.0,-3.0,-1.0,0.0,-1.0,-2.0
1701634036.4383123,-1.0,13.0,5.0,5.0,2.0,1.0,1.0,-1.0
1701634036.4383123,6.0,22.0,9.0,-9.0,-3.0,-4.0,-3.0,-2.0
1701634036.4383123,-5.0,-18.0,-8.0,0.0,-1.0,-1.0,0.0,-2.0
1701634036.4383123,7.0,14.0,-8.0,13.0,6.0,4.0,2.0,1.0
1701634036.448319,-1.0,-7.0,7.0,-5.0,-3.0,-2.0,-3.0,-1.0
1701634036.448319,0.0,-1.0,-23.0,1.0,-3.0,-2.0,-1.0,-2.0
1701634036.4583144,-3.0,-3.0,5.0,-16.0,-9.0,-5.0,-7.0,-3.0
1701634036.4583144,2.0,7.0,17.0,-5.0,-5.0,-3.0,-2.0,1.0
1701634036.4686542,2.0,3.0,14.0,12.0,5.0,-2.0,0.0,1.0
1701634036.4686542,-2.0,13.0,-22.0,-17.0,-4.0,-1.0,-1.0,-3.0
1701634036.4883125,-2.0,-4.0,-12.0,8.0,0.0,1.0,1.0,0.0
1701634036.4883125,-4.0,-11.0,26.0,-1.0,-2.0,-1.0,-2.0,-6.0
1701634036.4883125,3.0,6.0,-15.0,-1.0,0.0,-1.0,-1.0,0.0
1701634036.4883125,6.0,33.0,-7.0,12.0,2.0,2.0,1.0,1.0
1701634036.4983482,-17.0,-71.0,-53.0,-27.0,-13.0,-8.0,-4.0,-6.0
1701634036.4983482,1.0,4.0,73.0,16.0,1.0,-2.0,-2.0,0.0
1701634036.5083356,1.0,4.0,-79.0,-31.0,-5.0,0.0,0.0,0.0
1701634036.5083356,-7.0,-13.0,29.0,-6.0,-8.0,-6.0,-3.0,-5.0
1701634036.518628,5.0,17.0,-43.0,4.0,4.0,2.0,2.0,2.0
1701634036.518628,1.0,5.0,40.0,8.0,0.0,-1.0,-2.0,-1.0
1701634036.518628,-6.0,-20.0,-40.0,-3.0,-4.0,-3.0,-4.0,-3.0
1701634036.518628,4.0,21.0,17.0,13.0,7.0,4.0,2.0,4.0
1701634036.5487187,0.0,-2.0,17.0,6.0,2.0,2.0,1.0,1.0
1701634036.5487187,-2.0,2.0,-2.0,-15.0,-4.0,-2.0,-3.0,0.0
1701634036.5487187,4.0,13.0,39.0,0.0,-3.0,-4.0,-1.0,0.0
1701634036.5487187,-6.0,-34.0,-49.0,-10.0,-2.0,0.0,-2.0,-3.0
1701634036.5586655,5.0,26.0,14.0,25.0,7.0,4.0,0.0,3.0
1701634036.5586655,1.0,4.0,21.0,-4.0,1.0,1.0,-1.0,0.0
1701634036.568636,-7.0,-14.0,-24.0,-13.0,-6.0,-2.0,-2.0,-4.0
1701634036.568636,2.0,-1.0,20.0,0.0,-1.0,-1.0,1.0,0.0
1701634036.578675,-3.0,1.0,-42.0,0.0,1.0,-1.0,1.0,-1.0
1701634036.578675,6.0,15.0,21.0,1.0,3.0,1.0,1.0,1.0
1701634036.5983124,0.0,3.0,29.0,4.0,-4.0,-3.0,0.0,-1.0
1701634036.5983124,1.0,13.0,49.0,5.0,2.0,3.0,0.0,1.0
1701634036.6085992,-8.0,-14.0,-58.0,-35.0,-14.0,-7.0,-6.0,-7.0
1701634036.6085992,-3.0,-2.0,21.0,-9.0,-1.0,-2.0,-2.0,-2.0
1701634036.6085992,9.0,25.0,95.0,48.0,14.0,7.0,5.0,6.0
1701634036.6085992,-7.0,-6.0,-11.0,-24.0,-7.0,-7.0,-4.0,-5.0
1701634036.6183167,8.0,23.0,70.0,36.0,10.0,5.0,3.0,4.0
1701634036.6183167,-11.0,-33.0,-65.0,-38.0,-15.0,-9.0,-5.0,-7.0
1701634036.6285903,-7.0,-9.0,-17.0,-23.0,-6.0,-2.0,-5.0,-4.0
1701634036.6285903,3.0,9.0,34.0,23.0,8.0,4.0,1.0,2.0
1701634036.638605,0.0,16.0,35.0,0.0,-4.0,-3.0,-2.0,-2.0
1701634036.638605,8.0,32.0,32.0,37.0,11.0,6.0,5.0,4.0
1701634036.648317,-15.0,-50.0,-91.0,-42.0,-15.0,-7.0,-5.0,-9.0
1701634036.648317,1.0,-1.0,5.0,6.0,4.0,3.0,3.0,0.0
1701634036.6683118,1.0,10.0,63.0,-20.0,-7.0,-5.0,-5.0,-3.0
1701634036.6683118,-5.0,-24.0,-95.0,6.0,2.0,1.0,1.0,0.0
1701634036.6683118,4.0,34.0,71.0,3.0,-2.0,-3.0,-1.0,0.0
1701634036.6683118,-8.0,-35.0,-22.0,-2.0,-3.0,-2.0,-2.0,-3.0
1701634036.678313,0.0,-2.0,-9.0,-13.0,-8.0,-5.0,-1.0,0.0
1701634036.678313,-2.0,-3.0,-43.0,7.0,0.0,-1.0,-2.0,-2.0
1701634036.6983125,3.0,3.0,24.0,13.0,14.0,5.0,3.0,2.0
1701634036.6983125,-6.0,-14.0,-18.0,5.0,-2.0,-1.0,-2.0,0.0
1701634036.6983125,4.0,16.0,50.0,-1.0,2.0,0.0,0.0,1.0
1701634036.6983125,-3.0,-15.0,-44.0,-80.0,-28.0,-11.0,-5.0,-3.0
1701634036.6983125,-5.0,-13.0,15.0,26.0,9.0,0.0,-6.0,-4.0
1701634036.6983125,2.0,20.0,-7.0,19.0,7.0,0.0,-1.0,-2.0
1701634036.7287593,-3.0,-35.0,22.0,4.0,2.0,1.0,0.0,0.0
1701634036.7287593,0.0,11.0,4.0,0.0,-1.0,-2.0,1.0,-1.0
1701634036.7287593,-5.0,-4.0,-52.0,-13.0,-2.0,-4.0,-3.0,-3.0
1701634036.7287593,-2.0,-23.0,-3.0,-12.0,-9.0,-6.0,-4.0,-3.0
1701634036.7385852,6.0,11.0,68.0,57.0,23.0,15.0,7.0,4.0
1701634036.7385852,-7.0,-44.0,-47.0,-34.0,-3.0,-2.0,-2.0,-1.0
1701634036.7483323,-4.0,5.0,14.0,-8.0,-15.0,-14.0,-12.0,-10.0
1701634036.7483323,-5.0,-74.0,-29.0,-61.0,-19.0,-14.0,-10.0,-7.0
1701634036.7583122,-13.0,-34.0,-67.0,19.0,4.0,1.0,4.0,0.0
1701634036.7583122,7.0,1.0,12.0,49.0,4.0,7.0,8.0,6.0
1701634036.7583122,5.0,13.0,58.0,-4.0,-1.0,3.0,3.0,1.0
1701634036.7583122,1.0,-1.0,-44.0,-22.0,-7.0,3.0,3.0,3.0
1701634036.7887661,0.0,-16.0,-19.0,-37.0,-16.0,-16.0,-10.0,-7.0
1701634036.7887661,0.0,34.0,95.0,40.0,12.0,8.0,2.0,-1.0
1701634036.7887661,4.0,29.0,29.0,36.0,14.0,6.0,6.0,7.0
1701634036.7887661,2.0,40.0,-38.0,24.0,11.0,7.0,3.0,0.0
1701634036.7987466,-6.0,-29.0,-25.0,-27.0,-7.0,-4.0,-4.0,-4.0
1701634036.7987466,-1.0,58.0,-23.0,17.0,0.0,0.0,-3.0,0.0
1701634036.8083305,-1.0,-19.0,54.0,-16.0,-11.0,0.0,1.0,0.0
1701634036.8083305,0.0,8.0,-26.0,22.0,8.0,4.0,-1.0,1.0
1701634036.8183157,-5.0,15.0,44.0,-26.0,-7.0,-4.0,-6.0,-6.0
1701634036.8183157,1.0,-47.0,27.0,20.0,3.0,-2.0,-3.0,-2.0
1701634036.8183157,-8.0,-34.0,6.0,4.0,-3.0,-3.0,-3.0,-4.0
1701634036.8183157,4.0,28.0,-43.0,-30.0,-6.0,-3.0,-1.0,1.0
1701634036.848758,4.0,6.0,-23.0,13.0,1.0,1.0,-1.0,-2.0
1701634036.848758,6.0,51.0,31.0,9.0,5.0,-1.0,0.0,-1.0
1701634036.848758,2.0,43.0,26.0,27.0,6.0,6.0,4.0,4.0
1701634036.848758,-15.0,-16.0,-39.0,-22.0,-12.0,-6.0,-2.0,-6.0
1701634036.8618104,-4.0,9.0,35.0,3.0,-2.0,0.0,-1.0,-2.0
1701634036.8618104,2.0,-13.0,-31.0,2.0,0.0,1.0,1.0,3.0
1701634036.8728163,-2.0,-37.0,-74.0,-21.0,-3.0,-6.0,-6.0,-5.0
1701634036.8728163,1.0,40.0,73.0,8.0,0.0,0.0,1.0,3.0
1701634036.8812222,2.0,5.0,-55.0,-12.0,-6.0,-4.0,-2.0,-1.0
1701634036.8812222,-8.0,-24.0,33.0,9.0,4.0,0.0,-1.0,-3.0
1701634036.8812222,4.0,-5.0,-39.0,12.0,2.0,3.0,2.0,5.0
1701634036.8812222,-7.0,13.0,117.0,-1.0,-5.0,-2.0,-2.0,-4.0
1701634036.9015985,1.0,-33.0,-100.0,-14.0,-2.0,-1.0,1.0,2.0
1701634036.9015985,3.0,7.0,43.0,10.0,1.0,-1.0,-2.0,-1.0
1701634036.9015985,3.0,8.0,-58.0,-16.0,-3.0,-1.0,0.0,0.0
1701634036.9015985,1.0,-14.0,46.0,21.0,5.0,-1.0,1.0,1.0
1701634036.9212244,2.0,-32.0,4.0,4.0,-3.0,-2.0,-2.0,-1.0
1701634036.9212244,-14.0,-58.0,-59.0,-22.0,-4.0,-3.0,-3.0,-4.0
1701634036.9212244,9.0,52.0,-2.0,-12.0,-8.0,-3.0,0.0,1.0
1701634036.9212244,-19.0,-64.0,-52.0,-22.0,-8.0,-4.0,-6.0,-9.0
1701634036.941529,4.0,23.0,63.0,22.0,4.0,0.0,0.0,0.0
1701634036.941529,0.0,4.0,-70.0,-12.0,-2.0,-1.0,-1.0,-1.0
1701634036.941529,1.0,-6.0,-12.0,-8.0,-3.0,-2.0,-1.0,-2.0
1701634036.941529,0.0,-43.0,52.0,21.0,2.0,-3.0,-2.0,0.0
1701634036.9615624,7.0,46.0,14.0,4.0,0.0,0.0,0.0,3.0
1701634036.9615624,7.0,79.0,37.0,2.0,4.0,1.0,-1.0,2.0
1701634036.9615624,4.0,-33.0,41.0,8.0,-1.0,0.0,0.0,4.0
1701634036.9712353,25.0,121.0,8.0,15.0,10.0,8.0,6.0,8.0
1701634037.0012221,-9.0,-19.0,-28.0,-37.0,-16.0,-10.0,-7.0,-9.0
1701634037.0012221,1.0,-43.0,-18.0,-9.0,-4.0,1.0,2.0,2.0
1701634037.0012221,-9.0,-53.0,24.0,-10.0,-6.0,-6.0,-10.0,-12.0
1701634037.0012221,3.0,34.0,21.0,15.0,5.0,2.0,1.0,2.0
1701634037.0012221,5.0,25.0,32.0,21.0,10.0,6.0,4.0,4.0
1701634037.0012221,-1.0,-11.0,-68.0,-21.0,-6.0,-1.0,-2.0,0.0
1701634037.0115857,-3.0,-15.0,42.0,5.0,-5.0,-1.0,0.0,2.0
1701634037.0115857,-4.0,-4.0,52.0,-23.0,-5.0,-6.0,-5.0,-5.0
1701634037.0216684,-5.0,43.0,60.0,9.0,4.0,6.0,2.0,1.0
1701634037.0216684,3.0,1.0,11.0,-6.0,-4.0,-5.0,-3.0,-2.0
1701634037.0216684,-9.0,-38.0,-42.0,2.0,-1.0,-4.0,-1.0,-4.0
1701634037.0216684,3.0,-2.0,-17.0,0.0,-4.0,-4.0,-2.0,-2.0
1701634037.0412219,-3.0,-42.0,18.0,3.0,0.0,-1.0,-1.0,-3.0
1701634037.0412219,-5.0,15.0,56.0,-15.0,-6.0,-4.0,-6.0,-7.0
1701634037.0512216,-13.0,-36.0,-11.0,-3.0,2.0,0.0,0.0,-4.0
1701634037.0512216,3.0,5.0,67.0,22.0,4.0,1.0,2.0,2.0
1701634037.061639,1.0,-32.0,1.0,9.0,2.0,-2.0,-5.0,-5.0
1701634037.061639,-6.0,-46.0,-36.0,4.0,4.0,0.0,0.0,0.0
1701634037.071606,0.0,-5.0,-38.0,3.0,1.0,2.0,0.0,0.0
1701634037.071606,-5.0,1.0,-1.0,-2.0,-7.0,-5.0,-6.0,-5.0
1701634037.0816615,-1.0,-10.0,11.0,-6.0,-5.0,-2.0,-1.0,0.0
1701634037.0816615,0.0,-58.0,127.0,22.0,4.0,-1.0,-1.0,-1.0
1701634037.0816615,1.0,20.0,-70.0,-27.0,-5.0,-2.0,-1.0,1.0
1701634037.0816615,8.0,32.0,-31.0,20.0,13.0,7.0,7.0,7.0
1701634037.1112237,-13.0,-40.0,-29.0,-32.0,-20.0,-12.0,-10.0,-10.0
1701634037.1112237,5.0,37.0,38.0,11.0,7.0,3.0,1.0,0.0
1701634037.1112237,-4.0,-14.0,0.0,-16.0,-5.0,-3.0,-2.0,-5.0
1701634037.1112237,-7.0,-35.0,4.0,-10.0,-8.0,-5.0,-5.0,-3.0
1701634037.1212564,0.0,13.0,-16.0,32.0,12.0,5.0,2.0,0.0
1701634037.1212564,2.0,27.0,-5.0,1.0,-4.0,-2.0,-1.0,-1.0
1701634037.1315062,3.0,45.0,48.0,-3.0,4.0,1.0,1.0,3.0
1701634037.1315062,-9.0,-88.0,-74.0,-20.0,-10.0,-4.0,-2.0,-4.0
1701634037.1414814,16.0,85.0,-43.0,18.0,9.0,6.0,8.0,9.0
1701634037.1414814,-1.0,30.0,58.0,-11.0,-2.0,0.0,0.0,-1.0
1701634037.1414814,-5.0,15.0,56.0,9.0,-4.0,-6.0,-6.0,-7.0
1701634037.151233,0.0,-64.0,-34.0,-15.0,-4.0,-3.0,-1.0,-1.0
1701634037.1812217,1.0,22.0,-36.0,-1.0,2.0,3.0,2.0,2.0
1701634037.1812217,-1.0,-36.0,-24.0,1.0,2.0,2.0,2.0,2.0
1701634037.1812217,8.0,52.0,-26.0,-7.0,0.0,2.0,2.0,5.0
1701634037.1812217,-6.0,-36.0,51.0,18.0,-1.0,-2.0,-3.0,-3.0
1701634037.1812217,-17.0,-58.0,-11.0,-21.0,-11.0,-9.0,-6.0,-7.0
1701634037.1812217,12.0,93.0,-25.0,-3.0,0.0,3.0,3.0,3.0
1701634037.191465,-6.0,13.0,-1.0,-3.0,-1.0,-2.0,0.0,-4.0
1701634037.191465,4.0,11.0,12.0,12.0,3.0,2.0,-1.0,1.0
1701634037.2212257,12.0,-12.0,-21.0,3.0,12.0,5.0,4.0,6.0
1701634037.2212257,-13.0,-4.0,35.0,-19.0,-15.0,-11.0,-9.0,-12.0
1701634037.2212257,1.0,40.0,-47.0,0.0,1.0,1.0,1.0,0.0
1701634037.2212257,-2.0,33.0,-5.0,1.0,4.0,1.0,-2.0,-2.0
1701634037.2312226,4.0,-6.0,59.0,11.0,2.0,-1.0,-1.0,2.0
1701634037.2312226,-5.0,7.0,-1.0,15.0,6.0,3.0,1.0,-1.0
1701634037.2312226,0.0,87.0,-19.0,-17.0,-8.0,-5.0,-3.0,0.0
1701634037.2312226,-1.0,56.0,23.0,7.0,2.0,1.0,1.0,-3.0
1701634037.2412593,1.0,-6.0,-39.0,-9.0,-4.0,0.0,-1.0,-2.0
1701634037.2412593,7.0,32.0,10.0,3.0,-1.0,-5.0,-2.0,-1.0
1701634037.2516148,5.0,44.0,6.0,10.0,7.0,6.0,6.0,5.0
1701634037.2516148,5.0,38.0,-31.0,17.0,10.0,7.0,1.0,0.0
1701634037.2712226,-1.0,48.0,31.0,-13.0,-4.0,-3.0,-2.0,-2.0
1701634037.2712226,-2.0,-12.0,-123.0,-14.0,-2.0,0.0,2.0,2.0
1701634037.2712226,1.0,-40.0,80.0,-10.0,-7.0,-4.0,-2.0,-2.0
1701634037.2712226,2.0,-10.0,61.0,10.0,-2.0,-2.0,-1.0,-1.0
1701634037.2912233,-12.0,-21.0,-41.0,-12.0,-4.0,-1.0,-1.0,-6.0
1701634037.2912233,-3.0,-38.0,66.0,1.0,-7.0,-8.0,-7.0,-5.0
1701634037.2912233,-1.0,-9.0,27.0,17.0,11.0,5.0,4.0,3.0
1701634037.2912233,-9.0,41.0,-29.0,-22.0,-8.0,-4.0,-2.0,1.0
1701634037.3116753,-6.0,-14.0,-71.0,-23.0,-6.0,-2.0,-4.0,-3.0
1701634037.3116753,-4.0,1.0,-53.0,-3.0,-3.0,0.0,0.0,2.0
1701634037.3116753,-5.0,-62.0,-43.0,-20.0,-12.0,-8.0,-8.0,-8.0
1701634037.3116753,-7.0,44.0,-19.0,-17.0,-6.0,-5.0,-3.0,-6.0
1701634037.3312228,-5.0,106.0,28.0,7.0,-1.0,2.0,0.0,-1.0
1701634037.3312228,3.0,6.0,18.0,12.0,4.0,0.0,1.0,2.0
1701634037.3312228,-3.0,-19.0,10.0,-17.0,-11.0,-5.0,-4.0,-5.0
1701634037.3312228,10.0,-77.0,-125.0,-2.0,12.0,6.0,2.0,4.0
1701634037.3512237,2.0,23.0,113.0,6.0,-6.0,-4.0,-3.0,-3.0
1701634037.3512237,-9.0,-20.0,35.0,-21.0,-3.0,-1.0,-1.0,-4.0
1701634037.3512237,-3.0,-17.0,26.0,-2.0,-3.0,-3.0,-5.0,-4.0
1701634037.3512237,1.0,-83.0,39.0,19.0,3.0,-1.0,2.0,0.0
1701634037.3615017,-6.0,-29.0,-23.0,4.0,-6.0,-6.0,-3.0,-3.0
1701634037.3615017,16.0,30.0,-93.0,47.0,27.0,17.0,9.0,9.0
1701634037.3715541,-18.0,-41.0,41.0,-56.0,-26.0,-16.0,-9.0,-10.0
1701634037.3715541,1.0,0.0,-84.0,-18.0,-6.0,-3.0,-3.0,-2.0
1701634037.3904014,2.0,83.0,8.0,28.0,3.0,-1.0,1.0,0.0
1701634037.3904014,-1.0,-23.0,-94.0,-18.0,4.0,2.0,0.0,0.0
1701634037.3904014,3.0,-16.0,51.0,28.0,10.0,6.0,2.0,3.0
1701634037.3914132,10.0,6.0,12.0,-7.0,10.0,9.0,2.0,3.0
1701634037.4116614,-7.0,-23.0,73.0,-25.0,-24.0,-16.0,-10.0,-8.0
1701634037.4116614,-1.0,-64.0,22.0,2.0,-7.0,-11.0,-9.0,-6.0
1701634037.4126613,5.0,96.0,36.0,46.0,17.0,10.0,7.0,4.0
1701634037.4126613,-4.0,-33.0,-86.0,-35.0,-11.0,-1.0,3.0,3.0
1701634037.424001,13.0,-36.0,40.0,52.0,37.0,20.0,6.0,3.0
1701634037.424001,-22.0,-26.0,59.0,-96.0,-63.0,-33.0,-22.0,-22.0
1701634037.443996,4.0,-105.0,-121.0,26.0,30.0,11.0,5.0,8.0
1701634037.443996,-3.0,93.0,127.0,38.0,-9.0,-9.0,-7.0,-9.0
1701634037.443996,3.0,-91.0,-80.0,-27.0,2.0,4.0,3.0,5.0
1701634037.443996,-6.0,-39.0,50.0,32.0,5.0,-1.0,1.0,-2.0
1701634037.443996,2.0,2.0,73.0,23.0,13.0,9.0,5.0,4.0
1701634037.443996,-4.0,-9.0,-64.0,-29.0,-7.0,-6.0,-4.0,-2.0
1701634037.4639955,-11.0,11.0,25.0,4.0,-27.0,-10.0,-5.0,-6.0
1701634037.4639955,4.0,-29.0,58.0,35.0,20.0,5.0,-2.0,-2.0
1701634037.4740038,3.0,91.0,50.0,-59.0,-27.0,-7.0,-3.0,-3.0
1701634037.4740038,12.0,85.0,91.0,59.0,11.0,1.0,1.0,4.0
1701634037.4939933,-14.0,-12.0,66.0,-22.0,-11.0,-5.0,0.0,-2.0
1701634037.4939933,0.0,-42.0,-45.0,-35.0,4.0,7.0,1.0,3.0
1701634037.4939933,-19.0,-79.0,-128.0,-51.0,-19.0,-11.0,-10.0,-12.0
1701634037.4939933,22.0,1.0,108.0,91.0,12.0,9.0,8.0,12.0
1701634037.5041873,-13.0,-43.0,-87.0,-93.0,-9.0,-9.0,-8.0,-8.0
1701634037.5041873,-4.0,49.0,-114.0,23.0,10.0,5.0,6.0,3.0
1701634037.5041873,10.0,19.0,-38.0,29.0,40.0,16.0,8.0,7.0
1701634037.5041873,-20.0,-51.0,23.0,-12.0,-24.0,-9.0,-6.0,-7.0
1701634037.5540066,13.0,1.0,-79.0,34.0,21.0,9.0,8.0,7.0
1701634037.5540066,4.0,36.0,9.0,-25.0,-20.0,-6.0,-5.0,1.0
1701634037.5540066,-3.0,-71.0,-55.0,37.0,12.0,5.0,4.0,2.0
1701634037.5540066,-14.0,22.0,-24.0,18.0,3.0,-14.0,-16.0,-20.0
1701634037.5540066,-5.0,21.0,15.0,5.0,-1.0,-1.0,0.0,-1.0
1701634037.5540066,-12.0,50.0,54.0,42.0,3.0,-5.0,-3.0,-2.0
1701634037.5540066,24.0,61.0,83.0,88.0,18.0,13.0,9.0,14.0
1701634037.5540066,-9.0,27.0,-82.0,-61.0,-15.0,-4.0,0.0,-1.0
1701634037.5639927,16.0,27.0,107.0,78.0,25.0,13.0,6.0,8.0
1701634037.5639927,-10.0,21.0,-93.0,-119.0,-15.0,-12.0,-9.0,-13.0
1701634037.5639927,-3.0,-13.0,102.0,-7.0,-36.0,-15.0,-9.0,-5.0
1701634037.5639927,2.0,-19.0,21.0,47.0,30.0,13.0,8.0,7.0
1701634037.5843687,-7.0,-14.0,-95.0,-22.0,-5.0,-12.0,-7.0,-8.0
1701634037.5843687,19.0,33.0,126.0,104.0,36.0,20.0,10.0,9.0
1701634037.5843687,-14.0,-92.0,-118.0,-79.0,-24.0,-14.0,-7.0,-9.0
1701634037.5843687,-7.0,24.0,59.0,-84.0,-8.0,3.0,-1.0,-2.0
1701634037.6040266,6.0,-3.0,95.0,53.0,-10.0,-5.0,-4.0,0.0
1701634037.6040266,-21.0,-64.0,-35.0,10.0,-15.0,-3.0,-2.0,-6.0
1701634037.6144137,8.0,49.0,94.0,18.0,3.0,1.0,-1.0,1.0
1701634037.6144137,-15.0,-52.0,-97.0,-45.0,-18.0,-14.0,-9.0,-11.0
1701634037.624325,2.0,-3.0,72.0,-29.0,-5.0,4.0,4.0,2.0
1701634037.624325,6.0,20.0,0.0,23.0,16.0,10.0,8.0,9.0
1701634037.624325,12.0,15.0,12.0,-2.0,-12.0,-2.0,-4.0,0.0
1701634037.624325,-14.0,-110.0,-120.0,-61.0,-5.0,-2.0,-1.0,-1.0
1701634037.6443295,9.0,8.0,90.0,-20.0,-5.0,0.0,-1.0,1.0
1701634037.6443295,-3.0,-37.0,-43.0,9.0,-8.0,-10.0,-5.0,-4.0
1701634037.6443295,-21.0,-63.0,-46.0,-68.0,-4.0,-1.0,-1.0,-7.0
1701634037.6443295,32.0,26.0,13.0,7.0,16.0,18.0,15.0,19.0
1701634037.6640275,-45.0,-34.0,-128.0,-67.0,-27.0,-30.0,-28.0,-36.0
1701634037.6640275,-5.0,-67.0,102.0,12.0,-19.0,-7.0,-2.0,1.0
1701634037.6640275,-4.0,17.0,-16.0,-4.0,-8.0,-5.0,-2.0,-1.0
1701634037.6739998,9.0,28.0,-51.0,-16.0,2.0,5.0,2.0,2.0
1701634037.6844106,21.0,0.0,-66.0,37.0,62.0,34.0,18.0,18.0
1701634037.6844106,13.0,31.0,-71.0,22.0,-12.0,-8.0,-5.0,0.0
1701634037.6844106,-10.0,16.0,68.0,61.0,33.0,11.0,6.0,4.0
1701634037.6844106,-20.0,-3.0,-5.0,-63.0,-38.0,-22.0,-21.0,-24.0
1701634037.7044027,7.0,-1.0,-5.0,28.0,-8.0,-4.0,-1.0,3.0
1701634037.7044027,-2.0,-17.0,-10.0,-71.0,-3.0,3.0,2.0,0.0
1701634037.7044027,17.0,0.0,-44.0,18.0,-9.0,-5.0,0.0,4.0
1701634037.7044027,22.0,76.0,43.0,17.0,35.0,18.0,13.0,11.0
1701634037.7240279,4.0,79.0,105.0,77.0,-20.0,-12.0,-6.0,-2.0
1701634037.7240279,-17.0,-1.0,-78.0,-109.0,-12.0,-12.0,-9.0,-8.0
1701634037.7240279,17.0,32.0,59.0,86.0,30.0,10.0,6.0,8.0
1701634037.7340007,8.0,3.0,118.0,83.0,27.0,15.0,11.0,9.0
1701634037.7439966,-41.0,-98.0,54.0,-55.0,-57.0,-36.0,-23.0,-27.0
1701634037.7439966,27.0,5.0,-64.0,53.0,55.0,33.0,26.0,25.0
1701634037.7439966,-18.0,53.0,97.0,38.0,-10.0,-20.0,-17.0,-17.0
1701634037.7439966,28.0,-34.0,91.0,127.0,51.0,32.0,25.0,29.0
1701634037.7639947,-15.0,76.0,-115.0,-103.0,-35.0,-18.0,-16.0,-17.0
1701634037.7639947,-17.0,-12.0,83.0,9.0,-6.0,-12.0,-11.0,-16.0
1701634037.7639947,0.0,-25.0,-63.0,-11.0,5.0,5.0,2.0,4.0
1701634037.7639947,-13.0,49.0,96.0,13.0,-69.0,-30.0,-19.0,-17.0
1701634037.784316,25.0,-11.0,20.0,51.0,78.0,38.0,24.0,28.0
1701634037.784316,-23.0,58.0,-36.0,-67.0,-41.0,-20.0,-15.0,-18.0
1701634037.7940001,25.0,50.0,19.0,-38.0,0.0,4.0,9.0,13.0
1701634037.7940001,18.0,33.0,51.0,6.0,13.0,5.0,3.0,8.0
1701634037.8039973,-6.0,7.0,0.0,-21.0,-13.0,-4.0,-3.0,-3.0
1701634037.8039973,32.0,71.0,96.0,44.0,28.0,23.0,15.0,18.0
1701634037.8239987,-30.0,-45.0,-73.0,-39.0,-20.0,-14.0,-14.0,-19.0
1701634037.8239987,15.0,-40.0,-93.0,86.0,46.0,21.0,11.0,11.0
1701634037.8340003,6.0,84.0,-38.0,-59.0,-17.0,-9.0,-3.0,-2.0
1701634037.8340003,6.0,-9.0,40.0,47.0,3.0,5.0,5.0,4.0
1701634037.8439958,-14.0,11.0,79.0,-12.0,-21.0,-15.0,-13.0,-13.0
1701634037.8439958,4.0,-12.0,-128.0,9.0,4.0,6.0,5.0,5.0
1701634037.8439958,11.0,-94.0,-72.0,15.0,18.0,13.0,9.0,8.0
1701634037.8439958,4.0,2.0,-23.0,-11.0,-14.0,-7.0,-4.0,1.0
1701634037.8439958,-11.0,-29.0,32.0,14.0,-3.0,-1.0,-1.0,-3.0
1701634037.8439958,-19.0,-1.0,-68.0,-80.0,-45.0,-26.0,-16.0,-16.0
1701634037.8642788,-9.0,29.0,76.0,125.0,11.0,-9.0,-10.0,-11.0
1701634037.8642788,11.0,0.0,-97.0,26.0,34.0,12.0,3.0,1.0
1701634037.8741791,-10.0,-33.0,-85.0,-94.0,-33.0,-16.0,-8.0,-9.0
1701634037.8741791,2.0,37.0,96.0,-70.0,-5.0,1.0,-1.0,2.0
1701634037.9175258,-2.0,-47.0,-71.0,-26.0,-9.0,2.0,2.0,1.0
1701634037.9175258,-7.0,48.0,74.0,-18.0,-24.0,-8.0,-8.0,-14.0
1701634037.9175258,10.0,17.0,-76.0,34.0,18.0,7.0,5.0,9.0
1701634037.9175258,-18.0,-29.0,19.0,16.0,7.0,-7.0,-8.0,-9.0
1701634037.9175258,1.0,-49.0,-94.0,-15.0,-10.0,-5.0,-2.0,4.0
1701634037.9175258,-7.0,-22.0,-55.0,-38.0,-11.0,-5.0,-4.0,-4.0
1701634037.9175258,16.0,17.0,63.0,-32.0,-1.0,8.0,3.0,4.0
1701634037.9175258,-32.0,-50.0,-83.0,-49.0,-23.0,-16.0,-16.0,-20.0
1701634037.9279277,19.0,-6.0,22.0,20.0,36.0,25.0,18.0,17.0
1701634037.9289901,-15.0,-36.0,-29.0,-15.0,-5.0,-9.0,-8.0,-8.0
1701634037.9355245,-12.0,-66.0,-30.0,3.0,-23.0,-12.0,-2.0,-2.0
1701634037.9355245,8.0,57.0,-11.0,12.0,15.0,4.0,-3.0,-1.0
1701634037.956682,-7.0,-45.0,10.0,32.0,14.0,3.0,3.0,2.0
1701634037.956682,0.0,-1.0,100.0,-33.0,-26.0,-13.0,-9.0,-6.0
1701634037.956682,-14.0,-26.0,-117.0,-2.0,6.0,0.0,-2.0,-5.0
1701634037.956682,-1.0,-8.0,84.0,41.0,6.0,5.0,3.0,2.0
1701634037.956682,15.0,86.0,40.0,-53.0,-13.0,-6.0,-2.0,0.0
1701634037.956682,-9.0,-49.0,83.0,77.0,32.0,10.0,5.0,6.0
1701634037.9670272,-3.0,-29.0,64.0,8.0,7.0,8.0,3.0,3.0
1701634037.9670272,-8.0,-28.0,-1.0,-28.0,-10.0,-9.0,-5.0,-5.0
1701634037.9866827,-7.0,4.0,-75.0,-25.0,-20.0,-8.0,-5.0,-11.0
1701634037.9866827,-12.0,-63.0,-43.0,-17.0,-1.0,-2.0,-3.0,1.0
1701634037.9866827,-1.0,7.0,-9.0,28.0,14.0,7.0,4.0,2.0
1701634037.9866827,-7.0,-32.0,-24.0,-55.0,-28.0,-16.0,-13.0,-9.0
1701634038.0070205,3.0,40.0,38.0,9.0,3.0,3.0,0.0,-3.0
1701634038.0070205,-1.0,-22.0,-24.0,28.0,11.0,3.0,6.0,11.0
1701634038.0070205,0.0,-58.0,-56.0,-15.0,-8.0,-4.0,1.0,0.0
1701634038.0070205,-7.0,40.0,40.0,-46.0,-19.0,-11.0,-12.0,-31.0
1701634038.0274694,-9.0,-57.0,-39.0,17.0,9.0,4.0,6.0,7.0
1701634038.0274694,-5.0,-31.0,-7.0,-4.0,-11.0,-6.0,-2.0,7.0
1701634038.0274694,5.0,51.0,18.0,2.0,6.0,2.0,-1.0,-6.0
1701634038.0274694,8.0,-33.0,-5.0,4.0,-5.0,-7.0,-7.0,-14.0
1701634038.0470796,11.0,20.0,22.0,2.0,2.0,5.0,4.0,44.0
1701634038.0470796,-1.0,44.0,35.0,-1.0,-8.0,-9.0,-15.0,-52.0
1701634038.0470796,-2.0,55.0,-1.0,-2.0,4.0,6.0,4.0,22.0
1701634038.0470796,14.0,71.0,1.0,4.0,1.0,-2.0,-1.0,1.0
1701634038.0673895,-31.0,-30.0,20.0,-20.0,-3.0,6.0,5.0,3.0
1701634038.0673895,35.0,13.0,-10.0,6.0,0.0,0.0,7.0,-10.0
1701634038.0673895,-2.0,26.0,5.0,-13.0,5.0,1.0,-9.0,-14.0
1701634038.0673895,4.0,29.0,15.0,-4.0,-14.0,-9.0,-11.0,7.0
1701634038.0873837,-8.0,-58.0,15.0,0.0,-4.0,-3.0,-6.0,-33.0
1701634038.0873837,5.0,-11.0,-39.0,5.0,4.0,5.0,8.0,23.0
1701634038.0873837,4.0,41.0,-47.0,4.0,3.0,1.0,2.0,2.0
1701634038.0873837,2.0,-40.0,10.0,-23.0,-1.0,1.0,7.0,20.0
1701634038.1170778,-5.0,31.0,-4.0,-10.0,-4.0,-2.0,1.0,-16.0
1701634038.1170778,4.0,41.0,-35.0,4.0,0.0,-1.0,-1.0,24.0
1701634038.1170778,3.0,-19.0,13.0,-8.0,-4.0,-6.0,-1.0,-18.0
1701634038.1170778,-17.0,-28.0,-18.0,-3.0,5.0,6.0,4.0,9.0
1701634038.1373851,4.0,2.0,39.0,5.0,-7.0,-6.0,-9.0,6.0
1701634038.1373851,-12.0,-19.0,-17.0,-2.0,0.0,-3.0,1.0,4.0
1701634038.1373851,23.0,45.0,12.0,24.0,16.0,6.0,5.0,16.0
1701634038.1373851,-17.0,-31.0,28.0,-3.0,-12.0,-8.0,-5.0,5.0
1701634038.1473355,-21.0,41.0,44.0,22.0,12.0,5.0,4.0,-27.0
1701634038.1473355,3.0,-13.0,-56.0,-25.0,-7.0,-9.0,-10.0,2.0
1701634038.1473355,-26.0,-22.0,85.0,6.0,-14.0,-9.0,-6.0,31.0
1701634038.1473355,-36.0,5.0,-11.0,8.0,7.0,3.0,-1.0,-57.0
1701634038.187079,32.0,4.0,-44.0,0.0,4.0,4.0,9.0,33.0
1701634038.187079,25.0,57.0,37.0,6.0,-4.0,-4.0,-5.0,-5.0
1701634038.187079,13.0,-54.0,-15.0,-5.0,0.0,-4.0,-7.0,-1.0
1701634038.187079,-9.0,18.0,-2.0,19.0,12.0,9.0,26.0,42.0
1701634038.187079,10.0,-28.0,-13.0,-4.0,-9.0,-11.0,-32.0,-49.0
1701634038.187079,-2.0,-11.0,12.0,-6.0,4.0,10.0,20.0,6.0
1701634038.187079,4.0,13.0,11.0,2.0,-1.0,0.0,-4.0,-21.0
1701634038.187079,-12.0,-21.0,-50.0,6.0,17.0,8.0,1.0,-43.0
1701634038.2170784,15.0,40.0,48.0,14.0,-7.0,-8.0,3.0,25.0
1701634038.2170784,-42.0,-18.0,-24.0,-7.0,1.0,5.0,4.0,25.0
1701634038.2170784,24.0,15.0,-5.0,-1.0,-2.0,-1.0,-11.0,-58.0
1701634038.2170784,4.0,0.0,-6.0,13.0,4.0,3.0,0.0,11.0
1701634038.2273057,24.0,-2.0,-4.0,-2.0,5.0,4.0,25.0,79.0
1701634038.2273057,22.0,41.0,36.0,-5.0,-5.0,-6.0,-22.0,-32.0
1701634038.2273057,17.0,30.0,13.0,18.0,3.0,5.0,13.0,33.0
1701634038.2273057,5.0,-15.0,-18.0,-8.0,-4.0,-3.0,-8.0,-24.0
1701634038.2473316,-19.0,42.0,0.0,-14.0,-1.0,1.0,-2.0,-3.0
1701634038.2473316,-24.0,-48.0,-11.0,-8.0,-9.0,-13.0,-8.0,30.0
1701634038.2473316,8.0,12.0,-7.0,4.0,5.0,3.0,4.0,-16.0
1701634038.2473316,23.0,-16.0,24.0,-1.0,-6.0,-1.0,21.0,99.0
1701634038.2870796,-15.0,-9.0,-23.0,-12.0,-6.0,-3.0,0.0,-73.0
1701634038.2870796,-1.0,-4.0,-3.0,10.0,5.0,6.0,3.0,23.0
1701634038.2870796,16.0,15.0,-2.0,-6.0,-1.0,-3.0,-12.0,-28.0
1701634038.2870796,23.0,0.0,19.0,3.0,-6.0,-8.0,-14.0,13.0
1701634038.2870796,11.0,0.0,-3.0,-1.0,5.0,-21.0,12.0,-13.0
1701634038.2870796,-60.0,-15.0,-15.0,-8.0,-12.0,3.0,-23.0,16.0
1701634038.2870796,-24.0,15.0,16.0,-1.0,4.0,10.0,17.0,-7.0
1701634038.2870796,-12.0,-21.0,5.0,-4.0,-9.0,-20.0,-20.0,-18.0
1701634038.307295,4.0,-12.0,-15.0,1.0,7.0,9.0,8.0,-34.0
1701634038.307295,-47.0,-16.0,2.0,-4.0,-8.0,-26.0,5.0,-32.0
1701634038.307295,25.0,4.0,-5.0,4.0,2.0,7.0,-34.0,-39.0
1701634038.307295,-2.0,-7.0,-9.0,2.0,10.0,46.0,57.0,108.0
1701634038.3470788,-48.0,-11.0,-5.0,-9.0,-9.0,-15.0,-51.0,-98.0
1701634038.3470788,61.0,13.0,3.0,1.0,-3.0,-25.0,-18.0,67.0
1701634038.3470788,-60.0,-80.0,-18.0,-5.0,-7.0,8.0,31.0,41.0
1701634038.3470788,-13.0,7.0,-4.0,-8.0,-6.0,-26.0,-31.0,-101.0
1701634038.3470788,-16.0,-13.0,-6.0,-5.0,-4.0,16.0,-9.0,13.0
1701634038.3470788,54.0,-5.0,-1.0,4.0,5.0,16.0,20.0,7.0
1701634038.3970776,41.0,18.0,4.0,-4.0,-8.0,-37.0,-20.0,30.0
1701634038.3970776,-29.0,-16.0,1.0,5.0,-1.0,1.0,3.0,23.0
1701634038.3970776,-44.0,-12.0,-11.0,-2.0,3.0,27.0,30.0,-13.0
1701634038.3970776,13.0,41.0,13.0,6.0,5.0,12.0,10.0,44.0
1701634038.3970776,26.0,-26.0,-15.0,-8.0,-4.0,-35.0,-30.0,29.0
1701634038.3970776,-27.0,10.0,5.0,2.0,-2.0,-2.0,-41.0,-60.0
1701634038.3970776,54.0,16.0,3.0,6.0,9.0,21.0,25.0,17.0
1701634038.3970776,-43.0,-3.0,2.0,-1.0,-2.0,-20.0,-25.0,-12.0
1701634038.3970776,28.0,7.0,12.0,5.0,-1.0,-11.0,17.0,-17.0
1701634038.3970776,-55.0,-19.0,-24.0,1.0,17.0,50.0,38.0,9.0
1701634038.4074297,90.0,11.0,6.0,-6.0,-4.0,9.0,41.0,14.0
1701634038.4074297,-30.0,1.0,-6.0,-6.0,-5.0,3.0,-66.0,-99.0
1701634038.4170845,-58.0,-4.0,5.0,0.0,-5.0,-26.0,-28.0,72.0
1701634038.4170845,-20.0,12.0,7.0,-6.0,-12.0,-26.0,-16.0,-77.0
1701634038.4271448,-31.0,-24.0,-12.0,1.0,6.0,11.0,32.0,79.0
1701634038.4271448,14.0,-25.0,-3.0,4.0,6.0,16.0,32.0,-55.0
1701634038.4271448,-87.0,8.0,-5.0,-3.0,-5.0,-12.0,-34.0,-40.0
1701634038.4271448,86.0,13.0,7.0,1.0,-3.0,-3.0,31.0,84.0
1701634038.4536524,16.0,6.0,-4.0,-4.0,-2.0,-11.0,-39.0,-36.0
1701634038.4546733,85.0,24.0,19.0,12.0,16.0,9.0,-19.0,65.0
1701634038.4556692,56.0,10.0,-3.0,-6.0,-3.0,29.0,32.0,-12.0
1701634038.4556692,5.0,13.0,15.0,8.0,6.0,-4.0,23.0,-89.0
1701634038.4631064,64.0,-18.0,-7.0,-3.0,1.0,10.0,10.0,121.0
1701634038.4631064,56.0,-11.0,-11.0,-4.0,-5.0,0.0,-12.0,2.0
1701634038.4731736,-5.0,17.0,4.0,4.0,5.0,-17.0,10.0,-19.0
1701634038.4731736,39.0,7.0,10.0,4.0,5.0,-12.0,15.0,83.0
1701634038.4831088,-45.0,-1.0,-4.0,-5.0,-1.0,40.0,25.0,23.0
1701634038.4831088,-12.0,-5.0,-15.0,-13.0,-15.0,-13.0,-18.0,52.0
1701634038.4831088,50.0,-22.0,-13.0,-7.0,-6.0,1.0,-28.0,-37.0
1701634038.4831088,26.0,10.0,-4.0,-8.0,-14.0,-42.0,30.0,55.0
1701634038.513148,-74.0,-11.0,-7.0,-3.0,0.0,-9.0,-55.0,-94.0
1701634038.513148,20.0,21.0,24.0,9.0,2.0,-2.0,46.0,-6.0
1701634038.513148,49.0,7.0,0.0,3.0,5.0,11.0,45.0,42.0
1701634038.513148,-77.0,-30.0,-13.0,-10.0,-8.0,20.0,-34.0,85.0
1701634038.5234165,8.0,9.0,8.0,2.0,3.0,0.0,1.0,-79.0
1701634038.5234165,28.0,-1.0,-15.0,-6.0,-6.0,-14.0,-2.0,16.0
1701634038.543155,-66.0,2.0,2.0,-1.0,0.0,-16.0,1.0,52.0
1701634038.543155,-18.0,-15.0,-13.0,-6.0,-6.0,9.0,-11.0,-80.0
1701634038.543155,5.0,-2.0,2.0,3.0,0.0,-13.0,-9.0,65.0
1701634038.543155,24.0,-7.0,0.0,1.0,0.0,-13.0,23.0,-41.0
1701634038.543155,27.0,12.0,1.0,1.0,10.0,43.0,14.0,28.0
1701634038.5531163,9.0,-3.0,-7.0,-4.0,-3.0,11.0,-14.0,-27.0
1701634038.5732338,15.0,-2.0,-4.0,-1.0,-6.0,-31.0,-8.0,25.0
1701634038.5732338,-21.0,9.0,-2.0,0.0,0.0,-8.0,-8.0,-61.0
1701634038.5732338,22.0,-5.0,-4.0,0.0,4.0,33.0,34.0,44.0
1701634038.5732338,21.0,11.0,8.0,2.0,7.0,12.0,-21.0,-91.0
1701634038.5835276,37.0,4.0,12.0,2.0,-1.0,-4.0,-21.0,-1.0
1701634038.5835276,-53.0,-26.0,-15.0,-9.0,-15.0,-49.0,0.0,-40.0
1701634038.5932207,-43.0,8.0,5.0,7.0,7.0,2.0,-17.0,-34.0
1701634038.5932207,-10.0,-1.0,3.0,-1.0,-3.0,-3.0,25.0,-56.0
1701634038.6131306,-34.0,6.0,5.0,-1.0,-4.0,-18.0,-23.0,-64.0
1701634038.6131306,50.0,-12.0,-4.0,2.0,4.0,18.0,-3.0,-41.0
1701634038.6131306,-46.0,-11.0,5.0,2.0,3.0,6.0,35.0,-34.0
1701634038.6131306,53.0,8.0,-2.0,4.0,3.0,-31.0,-30.0,12.0
1701634038.633325,-14.0,5.0,-1.0,0.0,-1.0,6.0,40.0,51.0
1701634038.633325,4.0,8.0,5.0,1.0,6.0,26.0,11.0,-40.0
1701634038.633325,69.0,11.0,-3.0,-3.0,-6.0,3.0,-5.0,-34.0
1701634038.633325,41.0,-3.0,7.0,0.0,-3.0,-17.0,-39.0,9.0
1701634038.6531925,-16.0,-5.0,-4.0,-6.0,-6.0,-25.0,-13.0,41.0
1701634038.6531925,-36.0,4.0,-2.0,4.0,10.0,41.0,38.0,58.0
1701634038.6531925,23.0,0.0,0.0,0.0,-3.0,-18.0,-16.0,-47.0
1701634038.6531925,-49.0,3.0,-8.0,-7.0,-13.0,-59.0,-53.0,44.0
1701634038.6631036,26.0,-12.0,-18.0,-10.0,-2.0,30.0,24.0,22.0
1701634038.6631036,-32.0,-6.0,2.0,-1.0,-7.0,-9.0,-35.0,-19.0
1701634038.6631036,3.0,1.0,7.0,6.0,7.0,44.0,53.0,-19.0
1701634038.6631036,4.0,-8.0,-15.0,-8.0,-11.0,-14.0,2.0,66.0
1701634038.6931102,-38.0,-14.0,-5.0,-3.0,-3.0,1.0,6.0,-17.0
1701634038.6931102,-38.0,10.0,10.0,6.0,9.0,-6.0,2.0,-14.0
1701634038.6931102,-24.0,-18.0,-10.0,-9.0,-17.0,-48.0,-48.0,-11.0
1701634038.6931102,-39.0,6.0,7.0,-2.0,-4.0,-27.0,36.0,-9.0
1701634038.713172,-78.0,-29.0,-13.0,-5.0,-5.0,32.0,-12.0,-63.0
1701634038.713172,7.0,-5.0,-2.0,-8.0,-13.0,-8.0,-7.0,-35.0
1701634038.713172,-12.0,-24.0,-16.0,-15.0,-9.0,34.0,-12.0,20.0
1701634038.713172,26.0,-8.0,-9.0,-3.0,1.0,13.0,0.0,-65.0
1701634038.7331061,-3.0,11.0,-2.0,-4.0,-5.0,-32.0,-37.0,-21.0
1701634038.7331061,1.0,-1.0,-6.0,-7.0,-13.0,-50.0,2.0,2.0
1701634038.7331061,-20.0,13.0,5.0,4.0,5.0,-7.0,-25.0,3.0
1701634038.7331061,16.0,-1.0,0.0,8.0,17.0,76.0,23.0,-39.0
1701634038.7531767,11.0,6.0,4.0,-1.0,-3.0,-28.0,-4.0,17.0
1701634038.7531767,27.0,9.0,-3.0,4.0,7.0,23.0,-8.0,1.0
1701634038.7531767,-13.0,-19.0,-6.0,-7.0,-11.0,-35.0,3.0,7.0
1701634038.7531767,38.0,24.0,5.0,5.0,4.0,1.0,-6.0,20.0
1701634038.773103,65.0,0.0,8.0,5.0,1.0,-5.0,3.0,4.0
1701634038.773103,-88.0,-26.0,9.0,-2.0,-3.0,-22.0,-4.0,-14.0
1701634038.773103,0.0,13.0,11.0,11.0,16.0,26.0,1.0,-1.0
1701634038.773103,-7.0,7.0,22.0,7.0,5.0,3.0,0.0,-13.0
1701634038.7832155,1.0,-3.0,-49.0,-10.0,-4.0,-7.0,-5.0,15.0
1701634038.7832155,-20.0,12.0,-15.0,-17.0,-7.0,-5.0,-3.0,16.0
1701634038.7832155,-3.0,-23.0,18.0,4.0,-4.0,-11.0,-1.0,1.0
1701634038.7832155,-10.0,-8.0,-12.0,5.0,2.0,10.0,-4.0,-7.0
1701634038.8131888,7.0,5.0,-47.0,3.0,3.0,-12.0,0.0,-10.0
1701634038.8131888,2.0,11.0,28.0,19.0,11.0,35.0,23.0,22.0
1701634038.8131888,-12.0,11.0,-58.0,-15.0,2.0,2.0,-3.0,-13.0
1701634038.8131888,-8.0,-14.0,20.0,-57.0,-24.0,-11.0,-9.0,3.0
1701634038.8331382,5.0,0.0,101.0,30.0,7.0,13.0,6.0,8.0
1701634038.8331382,-8.0,2.0,-111.0,-13.0,8.0,12.0,6.0,3.0
1701634038.8331382,8.0,10.0,56.0,21.0,4.0,6.0,5.0,12.0
1701634038.8331382,-19.0,6.0,91.0,55.0,-3.0,-12.0,-13.0,-2.0
1701634038.84337,2.0,-11.0,-19.0,13.0,13.0,2.0,-2.0,-2.0
1701634038.84337,-23.0,8.0,-9.0,-78.0,-30.0,-7.0,-13.0,-17.0
1701634038.84337,23.0,13.0,-78.0,6.0,1.0,-8.0,-4.0,-4.0
1701634038.84337,-31.0,-36.0,-27.0,-20.0,-9.0,-8.0,-5.0,-6.0
1701634038.8731835,-7.0,30.0,57.0,36.0,8.0,7.0,4.0,1.0
1701634038.8731835,20.0,-16.0,-2.0,50.0,23.0,22.0,15.0,20.0
1701634038.8731835,-20.0,-21.0,-42.0,-59.0,-24.0,-19.0,-14.0,-14.0
1701634038.8731835,32.0,29.0,15.0,-9.0,0.0,7.0,10.0,10.0
1701634038.893227,-26.0,-6.0,-11.0,-1.0,-3.0,-1.0,0.0,3.0
1701634038.893227,26.0,7.0,30.0,27.0,11.0,7.0,7.0,10.0
1701634038.893227,-23.0,-5.0,16.0,22.0,6.0,6.0,6.0,4.0
1701634038.893227,-9.0,17.0,10.0,-18.0,-11.0,-2.0,-4.0,-7.0
1701634038.9031045,11.0,-2.0,-60.0,-13.0,-7.0,-9.0,-5.0,-10.0
1701634038.9031045,3.0,-45.0,-48.0,-39.0,-6.0,9.0,5.0,7.0
1701634038.9031045,-3.0,-15.0,126.0,-5.0,-11.0,-11.0,-7.0,-6.0
1701634038.9031045,-5.0,-1.0,-33.0,-5.0,7.0,0.0,-3.0,-4.0
1701634038.9334824,20.0,42.0,61.0,37.0,16.0,12.0,9.0,15.0
1701634038.9334824,-23.0,16.0,-20.0,-22.0,-21.0,-11.0,-10.0,-10.0
1701634038.9334824,15.0,-15.0,-88.0,30.0,19.0,15.0,10.0,8.0
1701634038.9334824,2.0,31.0,57.0,-5.0,-10.0,-7.0,0.0,4.0
1701634038.963483,6.0,-29.0,104.0,-8.0,2.0,-3.0,-1.0,-1.0
1701634038.963483,4.0,21.0,-50.0,26.0,7.0,5.0,7.0,4.0
1701634038.9765782,-8.0,6.0,32.0,2.0,14.0,4.0,-8.0,-12.0
1701634038.9765782,3.0,16.0,-37.0,25.0,1.0,0.0,0.0,3.0
1701634038.981574,-30.0,-112.0,-77.0,-55.0,-10.0,-7.0,-8.0,-15.0
1701634038.981574,4.0,66.0,127.0,73.0,-5.0,-6.0,-6.0,-5.0
1701634038.981574,18.0,24.0,-40.0,35.0,9.0,9.0,11.0,17.0
1701634038.9825742,-7.0,-46.0,-128.0,-69.0,-7.0,-1.0,-2.0,2.0
1701634038.9929361,-7.0,82.0,20.0,-2.0,-12.0,-12.0,-14.0,-34.0
1701634038.9929361,-1.0,-44.0,17.0,1.0,13.0,8.0,5.0,6.0
1701634038.9929361,-12.0,-34.0,100.0,12.0,-12.0,-9.0,-5.0,-9.0
1701634038.9929361,9.0,37.0,-62.0,-6.0,19.0,16.0,8.0,10.0
1701634039.005813,-18.0,-23.0,27.0,-43.0,-29.0,-22.0,-13.0,-8.0
1701634039.005813,-8.0,-34.0,55.0,44.0,12.0,5.0,5.0,14.0
1701634039.0158098,16.0,110.0,40.0,-44.0,-25.0,-15.0,-11.0,-31.0
1701634039.0158098,-26.0,-71.0,127.0,98.0,30.0,16.0,13.0,26.0
1701634039.0261433,2.0,-50.0,-108.0,-64.0,-11.0,-4.0,6.0,55.0
1701634039.0261433,-6.0,2.0,106.0,9.0,-11.0,0.0,4.0,-7.0
1701634039.0261433,48.0,53.0,-101.0,39.0,26.0,14.0,3.0,2.0
1701634039.0261433,-17.0,-1.0,11.0,-22.0,-38.0,-25.0,-21.0,-28.0
1701634039.0460932,9.0,10.0,-10.0,35.0,28.0,19.0,12.0,4.0
1701634039.0460932,-16.0,-35.0,-92.0,-55.0,-19.0,-11.0,-11.0,-10.0
1701634039.0460932,-14.0,14.0,-46.0,-54.0,-15.0,-10.0,1.0,15.0
1701634039.0460932,34.0,32.0,18.0,13.0,17.0,18.0,10.0,-2.0
1701634039.0658126,15.0,-8.0,98.0,45.0,7.0,3.0,0.0,-5.0
1701634039.0658126,-8.0,-35.0,-128.0,-54.0,5.0,5.0,-2.0,-6.0
1701634039.0758092,-20.0,15.0,127.0,26.0,-24.0,-16.0,-2.0,40.0
1701634039.0758092,31.0,45.0,83.0,56.0,15.0,5.0,1.0,-1.0
1701634039.086111,1.0,21.0,-51.0,-57.0,-7.0,-1.0,5.0,20.0
1701634039.086111,11.0,69.0,-10.0,-11.0,-9.0,-6.0,-12.0,-34.0
1701634039.0961509,-29.0,-128.0,11.0,-12.0,-12.0,-8.0,-9.0,8.0
1701634039.0961509,-4.0,0.0,-39.0,10.0,9.0,3.0,6.0,8.0
1701634039.1158104,9.0,25.0,-37.0,9.0,8.0,7.0,-2.0,7.0
1701634039.1158104,8.0,90.0,88.0,39.0,12.0,6.0,6.0,10.0
1701634039.1158104,-21.0,-53.0,-101.0,-35.0,-13.0,-16.0,-10.0,-24.0
1701634039.1158104,-13.0,-60.0,-83.0,-29.0,-4.0,6.0,-3.0,-7.0
1701634039.135818,-17.0,-52.0,20.0,12.0,-4.0,-6.0,-2.0,-16.0
1701634039.135818,11.0,-3.0,-80.0,-17.0,-4.0,-2.0,-5.0,-25.0
1701634039.135818,-2.0,16.0,72.0,20.0,9.0,2.0,2.0,-7.0
1701634039.135818,-5.0,-8.0,34.0,-6.0,-17.0,-10.0,-9.0,-6.0
1701634039.1460278,-19.0,-9.0,-52.0,-28.0,1.0,6.0,3.0,-23.0
1701634039.1460278,30.0,48.0,127.0,37.0,11.0,3.0,5.0,34.0
1701634039.15606,-46.0,-99.0,14.0,-46.0,-31.0,-17.0,-15.0,-23.0
1701634039.15606,3.0,25.0,28.0,-2.0,-4.0,-15.0,-13.0,-23.0
1701634039.1858149,21.0,28.0,39.0,37.0,11.0,10.0,8.0,14.0
1701634039.1858149,-16.0,-31.0,39.0,26.0,-11.0,-11.0,-12.0,-36.0
1701634039.1858149,11.0,24.0,58.0,13.0,6.0,5.0,3.0,-2.0
1701634039.1858149,-14.0,-61.0,-59.0,-29.0,-2.0,-6.0,-4.0,0.0
1701634039.1858149,12.0,72.0,43.0,18.0,-4.0,-7.0,-3.0,-3.0
1701634039.1858149,-19.0,-99.0,-72.0,-24.0,1.0,2.0,3.0,8.0
1701634039.1958091,3.0,-8.0,-97.0,2.0,13.0,13.0,8.0,2.0
1701634039.1958091,2.0,-3.0,66.0,40.0,5.0,0.0,3.0,-2.0
1701634039.2060342,-5.0,32.0,39.0,-6.0,-12.0,-10.0,-3.0,-2.0
1701634039.2060342,-2.0,-4.0,-29.0,-2.0,6.0,0.0,0.0,10.0
1701634039.2258132,4.0,35.0,23.0,-4.0,1.0,4.0,-4.0,-9.0
1701634039.2258132,-4.0,-3.0,10.0,-5.0,-1.0,1.0,3.0,6.0
1701634039.2258132,-7.0,-19.0,-78.0,-10.0,-1.0,-4.0,-9.0,-13.0
1701634039.2258132,3.0,3.0,31.0,-11.0,-1.0,2.0,4.0,10.0
1701634039.2258132,6.0,8.0,1.0,-12.0,-16.0,-19.0,-3.0,1.0
1701634039.2258132,11.0,61.0,6.0,6.0,10.0,13.0,9.0,5.0
1701634039.2458103,-8.0,-35.0,41.0,19.0,13.0,15.0,2.0,-1.0
1701634039.2458103,-17.0,-2.0,45.0,1.0,-9.0,-4.0,-3.0,-4.0
1701634039.2558105,4.0,10.0,-48.0,-25.0,-4.0,-1.0,-2.0,-3.0
1701634039.2558105,8.0,34.0,48.0,14.0,-2.0,-12.0,0.0,8.0
1701634039.2661333,6.0,23.0,32.0,21.0,-19.0,-7.0,-5.0,-1.0
1701634039.2661333,21.0,14.0,-25.0,-3.0,34.0,11.0,12.0,21.0
1701634039.2758121,-23.0,-22.0,116.0,50.0,5.0,1.0,-10.0,-19.0
1701634039.2758121,-18.0,-103.0,-108.0,-90.0,-26.0,-6.0,-10.0,-11.0
1701634039.2858346,5.0,76.0,95.0,17.0,14.0,7.0,7.0,1.0
1701634039.2858346,8.0,19.0,44.0,-9.0,-18.0,-9.0,-3.0,5.0
1701634039.2858346,12.0,8.0,41.0,40.0,18.0,13.0,10.0,9.0
1701634039.2858346,-1.0,-36.0,-97.0,-60.0,-3.0,-2.0,3.0,0.0
1701634039.3161442,-9.0,-8.0,71.0,-5.0,-25.0,-15.0,-10.0,-9.0
1701634039.3161442,12.0,33.0,-45.0,-8.0,-1.0,3.0,6.0,6.0
1701634039.3161442,-4.0,26.0,-80.0,2.0,0.0,-4.0,0.0,2.0
1701634039.3161442,-7.0,-9.0,81.0,23.0,8.0,9.0,-2.0,-3.0
1701634039.3264077,12.0,-43.0,-107.0,37.0,11.0,8.0,7.0,11.0
1701634039.3264077,-18.0,-28.0,124.0,-19.0,-17.0,-15.0,-11.0,-12.0
1701634039.356139,3.0,-2.0,13.0,-16.0,3.0,-2.0,-8.0,-5.0
1701634039.356139,-16.0,1.0,-61.0,-34.0,-31.0,-11.0,-3.0,-5.0
1701634039.356139,13.0,31.0,107.0,-1.0,27.0,10.0,5.0,2.0
1701634039.356139,-18.0,-59.0,5.0,25.0,-1.0,-6.0,0.0,-7.0
1701634039.356139,11.0,9.0,-81.0,-5.0,-15.0,-4.0,-6.0,0.0
1701634039.356139,-5.0,66.0,21.0,-24.0,20.0,6.0,-3.0,-8.0
1701634039.3761442,-3.0,29.0,33.0,33.0,-15.0,-2.0,2.0,3.0
1701634039.3761442,15.0,-11.0,-41.0,17.0,31.0,12.0,3.0,5.0
1701634039.3761442,12.0,100.0,50.0,-30.0,-10.0,-1.0,6.0,9.0
1701634039.3761442,-46.0,-93.0,-62.0,20.0,-9.0,-15.0,-14.0,-26.0
1701634039.3864028,1.0,-19.0,-28.0,-28.0,-15.0,-11.0,-7.0,-4.0
1701634039.3864028,2.0,52.0,-13.0,-16.0,-7.0,-2.0,4.0,3.0
1701634039.4161377,11.0,-29.0,19.0,46.0,25.0,16.0,4.0,4.0
1701634039.4161377,40.0,22.0,44.0,12.0,-6.0,6.0,5.0,16.0
1701634039.4161377,-25.0,-5.0,0.0,-5.0,7.0,-3.0,-3.0,-10.0
1701634039.4161377,-41.0,-63.0,-10.0,50.0,6.0,-3.0,-6.0,-13.0
1701634039.4161377,19.0,0.0,-26.0,-43.0,-13.0,-5.0,2.0,3.0
1701634039.4161377,0.0,47.0,104.0,24.0,4.0,0.0,-2.0,0.0
1701634039.4261603,5.0,-59.0,-120.0,-46.0,-10.0,-5.0,-4.0,-2.0
1701634039.4261603,32.0,60.0,63.0,67.0,-13.0,-2.0,1.0,12.0
1701634039.4361424,-1.0,-59.0,-26.0,-30.0,19.0,14.0,7.0,4.0
1701634039.4361424,-11.0,13.0,-3.0,-25.0,-11.0,-8.0,-2.0,2.0
1701634039.446494,-1.0,0.0,-18.0,-75.0,-41.0,-14.0,-11.0,-10.0
1701634039.446494,2.0,-31.0,-55.0,40.0,45.0,20.0,6.0,3.0
1701634039.4561393,22.0,42.0,37.0,3.0,-11.0,-6.0,-1.0,-4.0
1701634039.4561393,-26.0,-14.0,-8.0,-17.0,-13.0,-4.0,0.0,-2.0
1701634039.476477,0.0,-25.0,-29.0,44.0,14.0,-5.0,-8.0,-4.0
1701634039.476477,-28.0,-10.0,-45.0,-84.0,-44.0,-15.0,-9.0,-9.0
1701634039.476477,-15.0,-55.0,14.0,74.0,23.0,0.0,-3.0,-6.0
1701634039.476477,11.0,-2.0,35.0,-28.0,-30.0,-2.0,3.0,8.0
1701634039.4863987,-4.0,-31.0,-90.0,40.0,48.0,12.0,2.0,-5.0
1701634039.496146,14.0,42.0,-29.0,-44.0,-15.0,-8.0,-4.0,-1.0
1701634039.4968662,-2.0,7.0,43.0,-2.0,-20.0,-21.0,-1.0,3.0
1701634039.4968662,0.0,-10.0,9.0,-5.0,-10.0,11.0,0.0,-4.0
1701634039.510187,-17.0,-35.0,-8.0,23.0,2.0,-1.0,0.0,-6.0
1701634039.510187,2.0,-11.0,-25.0,-2.0,-4.0,-4.0,-4.0,-1.0
1701634039.5283265,-4.0,2.0,42.0,38.0,9.0,-9.0,-3.0,7.0
1701634039.5283265,14.0,2.0,-2.0,18.0,21.0,19.0,12.0,5.0
1701634039.5283265,-10.0,11.0,-6.0,-33.0,-19.0,1.0,2.0,1.0
1701634039.5283265,-2.0,-9.0,9.0,-21.0,12.0,10.0,2.0,-1.0
1701634039.5283265,-10.0,0.0,-1.0,3.0,-13.0,-1.0,4.0,3.0
1701634039.5283265,21.0,-4.0,-8.0,23.0,19.0,-2.0,-5.0,-3.0
1701634039.5487607,-42.0,-4.0,38.0,-16.0,-26.0,-18.0,-17.0,-19.0
1701634039.5487607,-15.0,-10.0,20.0,-21.0,-22.0,-8.0,-5.0,-6.0
1701634039.559064,-6.0,14.0,-32.0,-19.0,17.0,13.0,4.0,0.0
1701634039.559064,17.0,20.0,-13.0,11.0,0.0,1.0,7.0,11.0
1701634039.5687733,12.0,-4.0,-9.0,-25.0,-5.0,-3.0,7.0,4.0
1701634039.5687733,2.0,34.0,77.0,39.0,-22.0,-10.0,-5.0,-7.0
1701634039.5787709,-2.0,-9.0,-115.0,-42.0,9.0,5.0,-12.0,-6.0
1701634039.5787709,7.0,-19.0,16.0,-44.0,6.0,5.0,7.0,7.0
1701634039.5889962,3.0,35.0,22.0,33.0,-2.0,-10.0,-9.0,-6.0
1701634039.5889962,-12.0,-38.0,-10.0,4.0,16.0,16.0,9.0,8.0
1701634039.5889962,-10.0,23.0,-8.0,-48.0,-28.0,-17.0,-12.0,-17.0
1701634039.5889962,6.0,8.0,19.0,34.0,15.0,3.0,-3.0,2.0
1701634039.6090326,17.0,11.0,-49.0,-48.0,-14.0,-5.0,6.0,12.0
1701634039.6090326,10.0,8.0,-14.0,-33.0,2.0,13.0,3.0,1.0
1701634039.6090326,-13.0,-13.0,26.0,20.0,6.0,-1.0,-1.0,-5.0
1701634039.6090326,-9.0,-2.0,-7.0,0.0,-6.0,-2.0,-10.0,-7.0
1701634039.628906,-7.0,-16.0,13.0,-13.0,-8.0,-7.0,-4.0,-5.0
1701634039.628906,3.0,-4.0,-9.0,31.0,9.0,-3.0,-5.0,-2.0
1701634039.6487715,0.0,-9.0,-10.0,-28.0,-21.0,-18.0,3.0,4.0
1701634039.6487715,3.0,36.0,10.0,38.0,11.0,14.0,2.0,0.0
1701634039.6487715,3.0,-9.0,24.0,16.0,7.0,13.0,9.0,1.0
1701634039.6487715,-10.0,-25.0,-22.0,-34.0,-12.0,-17.0,-11.0,-9.0
1701634039.6487715,-5.0,4.0,16.0,4.0,10.0,13.0,-1.0,0.0
1701634039.6487715,-1.0,6.0,-16.0,37.0,9.0,-20.0,-8.0,-5.0
1701634039.6687698,12.0,43.0,32.0,-2.0,-2.0,8.0,8.0,9.0
1701634039.6687698,-2.0,-25.0,-28.0,-65.0,-17.0,7.0,5.0,0.0
1701634039.6687698,9.0,23.0,31.0,5.0,-11.0,-8.0,0.0,3.0
1701634039.6687698,-14.0,-35.0,-94.0,-2.0,-1.0,-4.0,-8.0,-11.0
1701634039.6891305,-2.0,15.0,33.0,-23.0,-6.0,4.0,-1.0,0.0
1701634039.6891305,-7.0,-33.0,8.0,-3.0,-5.0,-17.0,-7.0,-6.0
1701634039.6891305,6.0,18.0,16.0,42.0,26.0,14.0,6.0,3.0
1701634039.6891305,6.0,2.0,3.0,-21.0,-13.0,-3.0,1.0,6.0
1701634039.7090783,-2.0,-22.0,-16.0,19.0,5.0,-10.0,-5.0,-5.0
1701634039.7090783,-10.0,14.0,-15.0,36.0,13.0,7.0,2.0,1.0
1701634039.7090783,-4.0,13.0,5.0,-19.0,-11.0,-1.0,3.0,-4.0
1701634039.7090783,-3.0,-9.0,45.0,13.0,-4.0,7.0,-3.0,-2.0
1701634039.7291172,-4.0,-38.0,-4.0,57.0,23.0,-4.0,-5.0,-3.0
1701634039.7291172,13.0,22.0,-26.0,-27.0,-6.0,0.0,8.0,8.0
1701634039.7291172,-4.0,-27.0,-1.0,4.0,-10.0,-4.0,-2.0,-2.0
1701634039.7291172,-2.0,15.0,-1.0,-16.0,-10.0,-10.0,-3.0,-2.0
1701634039.7487721,11.0,42.0,69.0,2.0,5.0,10.0,3.0,4.0
1701634039.7487721,-7.0,-38.0,-33.0,42.0,14.0,0.0,-3.0,-8.0
1701634039.7487721,-1.0,0.0,-16.0,-27.0,-6.0,-14.0,-3.0,1.0
1701634039.7487721,-5.0,-1.0,5.0,-2.0,4.0,11.0,1.0,-5.0
1701634039.769035,1.0,11.0,-6.0,18.0,2.0,2.0,1.0,-1.0
1701634039.769035,1.0,6.0,25.0,-18.0,-4.0,-6.0,0.0,-2.0
1701634039.769035,-4.0,-4.0,-12.0,4.0,-9.0,8.0,-3.0,-2.0
1701634039.769035,-11.0,-21.0,27.0,21.0,14.0,-4.0,4.0,-3.0
1701634039.8187735,-9.0,-20.0,-64.0,-19.0,3.0,6.0,-1.0,-3.0
1701634039.8187735,7.0,31.0,15.0,1.0,-12.0,-10.0,-5.0,-1.0
1701634039.8187735,-1.0,-14.0,16.0,-37.0,-12.0,-5.0,-6.0,-1.0
1701634039.8187735,0.0,0.0,-8.0,51.0,14.0,2.0,1.0,0.0
1701634039.8187735,-3.0,-3.0,-16.0,-48.0,-16.0,-4.0,-4.0,-1.0
1701634039.8187735,7.0,21.0,-3.0,8.0,4.0,-1.0,1.0,2.0
1701634039.8187735,-6.0,-12.0,-7.0,8.0,6.0,6.0,-1.0,-3.0
1701634039.8187735,-2.0,-19.0,-16.0,-23.0,-15.0,-15.0,1.0,0.0
1701634039.8291056,1.0,-8.0,-12.0,-21.0,-2.0,9.0,1.0,2.0
1701634039.8291056,3.0,14.0,19.0,41.0,11.0,2.0,-6.0,-2.0
1701634039.8291056,-4.0,-6.0,-12.0,-21.0,-7.0,-6.0,3.0,1.0
1701634039.8291056,1.0,11.0,-12.0,19.0,8.0,5.0,-10.0,-4.0
1701634039.8587708,-4.0,-8.0,-13.0,-27.0,-4.0,0.0,4.0,-2.0
1701634039.8587708,-2.0,7.0,11.0,-5.0,-11.0,-7.0,-6.0,-3.0
1701634039.8587708,-2.0,5.0,13.0,40.0,10.0,5.0,1.0,-2.0
1701634039.8587708,8.0,21.0,20.0,-22.0,-9.0,-11.0,-5.0,4.0
1701634039.8688447,3.0,-8.0,-19.0,10.0,1.0,-2.0,4.0,2.0
1701634039.8787763,-8.0,-30.0,11.0,12.0,7.0,6.0,-7.0,-8.0
1701634039.8787763,1.0,-1.0,15.0,4.0,-5.0,-8.0,-3.0,-3.0
1701634039.8787763,-7.0,-4.0,-26.0,-27.0,-10.0,-1.0,1.0,1.0
1701634039.9087696,3.0,0.0,-2.0,18.0,16.0,5.0,-4.0,-2.0
1701634039.9087696,4.0,-15.0,-23.0,-24.0,-1.0,5.0,9.0,7.0
1701634039.9087696,-17.0,-9.0,6.0,21.0,5.0,0.0,-5.0,-8.0
1701634039.9087696,0.0,-2.0,15.0,-22.0,-7.0,-14.0,-3.0,2.0
1701634039.9087696,0.0,22.0,8.0,53.0,9.0,-2.0,-2.0,-3.0
1701634039.9087696,-2.0,-6.0,25.0,-39.0,-25.0,-9.0,-1.0,1.0
1701634039.9087696,4.0,-10.0,-50.0,13.0,26.0,13.0,3.0,4.0
1701634039.9087696,3.0,13.0,9.0,7.0,-4.0,4.0,5.0,2.0
1701634039.929038,1.0,18.0,23.0,-6.0,-8.0,-7.0,-8.0,-4.0
1701634039.9387765,-4.0,-7.0,6.0,-29.0,-5.0,-7.0,-5.0,-4.0
1701634039.9387765,1.0,-22.0,-6.0,42.0,6.0,4.0,3.0,3.0
1701634039.9387765,-9.0,0.0,-4.0,9.0,1.0,3.0,2.0,-3.0
1701634039.9587715,-1.0,8.0,4.0,-16.0,-17.0,-12.0,-4.0,-1.0
1701634039.9587715,-9.0,-34.0,-31.0,-13.0,0.0,-2.0,-6.0,-8.0
1701634039.9587715,11.0,30.0,14.0,-6.0,-8.0,-3.0,-1.0,2.0
1701634039.9587715,-11.0,-40.0,-15.0,11.0,2.0,-1.0,-2.0,-1.0
1701634039.9688034,-4.0,-19.0,7.0,26.0,7.0,4.0,4.0,0.0
1701634039.9688034,8.0,44.0,34.0,1.0,7.0,-2.0,0.0,5.0
1701634039.9688034,-5.0,1.0,-4.0,-22.0,-10.0,-6.0,-3.0,-8.0
1701634039.9688034,9.0,7.0,-9.0,9.0,12.0,13.0,-1.0,3.0
1701634039.9891124,-5.0,-17.0,7.0,-34.0,-16.0,-9.0,0.0,1.0
1701634039.9891124,2.0,9.0,-11.0,6.0,-1.0,-2.0,-4.0,-1.0
1701634039.9987736,2.0,12.0,30.0,13.0,0.0,4.0,-1.0,-3.0
1701634039.9987736,0.0,9.0,2.0,-5.0,8.0,2.0,3.0,2.0
1701634040.0087721,-9.0,-25.0,-44.0,-22.0,-15.0,-7.0,-9.0,-8.0
1701634040.0087721,-2.0,-1.0,-4.0,-21.0,-5.0,1.0,1.0,-2.0
1701634040.0087721,0.0,6.0,15.0,22.0,8.0,1.0,-1.0,2.0
1701634040.0087721,-1.0,-12.0,-25.0,-12.0,-5.0,0.0,3.0,-3.0
1701634040.035861,4.0,18.0,8.0,10.0,-1.0,-4.0,-6.0,0.0
1701634040.035861,1.0,5.0,-6.0,-7.0,-5.0,-5.0,1.0,0.0
1701634040.0363507,-8.0,-25.0,-18.0,-1.0,0.0,5.0,-1.0,-3.0
1701634040.0363507,-1.0,8.0,27.0,1.0,-2.0,-6.0,-5.0,-2.0
1701634040.0610626,6.0,7.0,4.0,1.0,9.0,1.0,4.0,5.0
1701634040.0610626,-2.0,4.0,2.0,-8.0,-3.0,-1.0,1.0,0.0
1701634040.0610626,-7.0,-25.0,-55.0,-5.0,-3.0,-6.0,-3.0,-6.0
1701634040.0610626,2.0,15.0,4.0,-25.0,-27.0,-8.0,-1.0,-1.0
1701634040.0712862,-8.0,-11.0,2.0,36.0,22.0,5.0,-4.0,-6.0
1701634040.0712862,-1.0,-4.0,4.0,-15.0,-8.0,-2.0,-4.0,1.0
1701634040.0712862,0.0,11.0,-10.0,-3.0,9.0,5.0,5.0,2.0
1701634040.0712862,-2.0,-8.0,30.0,29.0,3.0,4.0,-2.0,-2.0
1701634040.0913699,2.0,3.0,-62.0,-31.0,-10.0,-3.0,5.0,4.0
1701634040.0913699,-1.0,-11.0,20.0,9.0,0.0,3.0,-2.0,-3.0
1701634040.0913699,-3.0,-9.0,2.0,-13.0,-2.0,-6.0,-5.0,-2.0
1701634040.0913699,3.0,8.0,-25.0,-9.0,-3.0,-1.0,-1.0,-5.0
1701634040.1310663,-3.0,-1.0,42.0,12.0,5.0,-1.0,-2.0,-1.0
1701634040.1310663,-2.0,19.0,-28.0,19.0,-2.0,-8.0,-1.0,-1.0
1701634040.1310663,-3.0,-17.0,2.0,-19.0,-13.0,-10.0,-5.0,-3.0
1701634040.1310663,2.0,7.0,-7.0,6.0,10.0,11.0,4.0,-1.0
1701634040.1310663,-1.0,-10.0,20.0,-7.0,-15.0,-8.0,-9.0,-6.0
1701634040.1310663,1.0,-3.0,-32.0,-6.0,2.0,4.0,6.0,4.0
1701634040.1310663,3.0,1.0,50.0,58.0,10.0,2.0,1.0,3.0
1701634040.1310663,0.0,23.0,-41.0,-27.0,5.0,-5.0,1.0,4.0
1701634040.1513164,-1.0,-10.0,-9.0,-29.0,-9.0,-3.0,-2.0,-5.0
1701634040.1513164,1.0,6.0,8.0,26.0,-1.0,-5.0,-2.0,-1.0
1701634040.1513164,-1.0,-7.0,-15.0,-27.0,4.0,8.0,5.0,2.0
1701634040.1513164,0.0,-4.0,18.0,-2.0,-2.0,-1.0,-2.0,-1.0
1701634040.1810672,0.0,13.0,10.0,28.0,4.0,0.0,3.0,2.0
1701634040.1810672,-1.0,-17.0,2.0,0.0,2.0,4.0,0.0,-2.0
1701634040.1810672,4.0,13.0,-10.0,-42.0,-14.0,0.0,-1.0,3.0
1701634040.1810672,-2.0,-10.0,-16.0,-34.0,-17.0,-7.0,-2.0,-1.0
1701634040.1910996,-7.0,-6.0,-41.0,3.0,2.0,-8.0,-7.0,-3.0
1701634040.1910996,-1.0,7.0,18.0,7.0,5.0,8.0,3.0,-5.0
1701634040.1910996,-2.0,-8.0,-3.0,5.0,13.0,5.0,2.0,3.0
1701634040.1910996,5.0,3.0,-4.0,-5.0,-6.0,-9.0,-4.0,0.0
1701634040.2114246,-3.0,0.0,26.0,-11.0,-9.0,-2.0,0.0,-2.0
1701634040.2114246,-3.0,-4.0,-17.0,7.0,-3.0,-3.0,-4.0,-2.0
1701634040.2114246,0.0,-13.0,-6.0,-21.0,-8.0,-5.0,2.0,0.0
1701634040.2114246,-9.0,-19.0,-8.0,12.0,8.0,4.0,-7.0,-6.0
1701634040.241065,2.0,20.0,-3.0,7.0,7.0,1.0,1.0,3.0
1701634040.241065,-2.0,6.0,7.0,-5.0,-8.0,-5.0,-9.0,-9.0
1701634040.241065,-5.0,-9.0,20.0,6.0,-6.0,0.0,-2.0,-2.0
1701634040.241065,7.0,2.0,8.0,2.0,-6.0,-8.0,2.0,3.0
1701634040.2513938,-2.0,-6.0,33.0,3.0,10.0,10.0,4.0,-2.0
1701634040.2513938,-3.0,-8.0,-44.0,2.0,1.0,-2.0,-2.0,-2.0
1701634040.2513938,1.0,19.0,3.0,5.0,-7.0,-14.0,-8.0,-5.0
1701634040.2513938,-3.0,-5.0,6.0,-7.0,-3.0,5.0,-1.0,-1.0
1701634040.2714634,-2.0,-27.0,-1.0,15.0,3.0,3.0,7.0,1.0
1701634040.2714634,1.0,14.0,22.0,-3.0,0.0,5.0,0.0,2.0
1701634040.2714634,-2.0,-6.0,-11.0,-2.0,13.0,6.0,0.0,-2.0
1701634040.2714634,-8.0,-4.0,1.0,8.0,-5.0,-7.0,-5.0,-9.0
1701634040.2910984,3.0,14.0,-6.0,-17.0,-8.0,-4.0,-7.0,0.0
1701634040.2910984,-2.0,-17.0,-6.0,3.0,3.0,-4.0,2.0,1.0
1701634040.2910984,2.0,9.0,-8.0,2.0,-9.0,-5.0,-7.0,-5.0
1701634040.2910984,0.0,9.0,26.0,30.0,7.0,2.0,4.0,6.0
1701634040.3114061,-6.0,-30.0,-2.0,-48.0,-16.0,-4.0,1.0,-1.0
1701634040.3114061,-2.0,2.0,6.0,24.0,8.0,0.0,-1.0,0.0
1701634040.3114061,4.0,22.0,8.0,-30.0,-12.0,-5.0,-3.0,4.0
1701634040.3114061,-6.0,-11.0,-8.0,21.0,14.0,3.0,5.0,-8.0
1701634040.3313649,2.0,8.0,19.0,-4.0,-3.0,11.0,2.0,-2.0
1701634040.3313649,-2.0,-11.0,-33.0,-1.0,0.0,-8.0,0.0,1.0
1701634040.3313649,-2.0,1.0,8.0,-21.0,-6.0,5.0,1.0,-1.0
1701634040.3313649,3.0,7.0,4.0,37.0,16.0,-7.0,-5.0,1.0
1701634040.3610654,-2.0,-25.0,-21.0,-11.0,-3.0,-2.0,-1.0,2.0
1701634040.3610654,-4.0,10.0,42.0,31.0,10.0,9.0,4.0,0.0
1701634040.3610654,-10.0,-42.0,-61.0,-26.0,-12.0,-6.0,-6.0,-6.0
1701634040.3610654,0.0,13.0,10.0,-15.0,-5.0,0.0,-8.0,2.0
1701634040.3711004,0.0,3.0,3.0,23.0,1.0,-1.0,5.0,-2.0
1701634040.3711004,-2.0,-5.0,2.0,-19.0,0.0,-8.0,-8.0,-2.0
1701634040.381071,0.0,6.0,17.0,25.0,14.0,10.0,8.0,-2.0
1701634040.381071,4.0,2.0,0.0,-22.0,-14.0,-3.0,2.0,7.0
1701634040.391339,-2.0,2.0,-6.0,-4.0,1.0,0.0,-3.0,-2.0
1701634040.391339,6.0,0.0,-13.0,-10.0,6.0,4.0,-2.0,-1.0
1701634040.391339,0.0,15.0,-2.0,9.0,-7.0,-1.0,0.0,-4.0
1701634040.391339,-6.0,-21.0,-6.0,-22.0,-17.0,-5.0,-8.0,-4.0
1701634040.4110682,5.0,24.0,16.0,26.0,11.0,4.0,-1.0,5.0
1701634040.4110682,-6.0,-18.0,7.0,-10.0,-6.0,-2.0,2.0,-3.0
1701634040.4110682,5.0,2.0,-11.0,3.0,10.0,9.0,0.0,2.0
1701634040.4110682,0.0,-2.0,6.0,11.0,11.0,1.0,6.0,2.0
1701634040.4314466,4.0,11.0,4.0,-13.0,-14.0,-12.0,-8.0,1.0
1701634040.4314466,-1.0,-3.0,-2.0,2.0,-7.0,3.0,-1.0,1.0
1701634040.4314466,-2.0,13.0,14.0,-10.0,1.0,-3.0,-1.0,0.0
1701634040.4314466,-2.0,-7.0,-1.0,4.0,-7.0,-1.0,-6.0,-1.0
1701634040.451467,-4.0,-12.0,-26.0,-8.0,-4.0,-6.0,-5.0,-2.0
1701634040.451467,-1.0,-1.0,15.0,-10.0,5.0,-5.0,-2.0,-1.0
1701634040.451467,3.0,15.0,-3.0,16.0,-1.0,5.0,-1.0,0.0
