1701634405.434332,-3.0,-13.0,-5.0,-24.0,-13.0,2.0,8.0,7.0
1701634405.434332,0.0,17.0,0.0,0.0,3.0,6.0,21.0,17.0
1701634405.4543667,13.0,-27.0,-3.0,6.0,0.0,-5.0,-4.0,1.0
1701634405.4543667,17.0,19.0,21.0,-8.0,-8.0,-3.0,-25.0,-10.0
1701634405.4543667,-28.0,8.0,-4.0,1.0,2.0,-6.0,-16.0,-19.0
1701634405.4543667,-8.0,15.0,-10.0,0.0,3.0,-2.0,7.0,-3.0
1701634405.4943318,-1.0,-23.0,-10.0,-15.0,-11.0,0.0,12.0,13.0
1701634405.4943318,9.0,-1.0,3.0,-4.0,1.0,-1.0,-3.0,0.0
1701634405.4943318,4.0,-24.0,11.0,12.0,11.0,3.0,2.0,5.0
1701634405.4943318,7.0,16.0,-20.0,-11.0,-12.0,-8.0,-22.0,-12.0
1701634405.4943318,-7.0,-14.0,-4.0,7.0,-1.0,-5.0,19.0,3.0
1701634405.4943318,15.0,2.0,20.0,3.0,9.0,8.0,18.0,27.0
1701634405.4943318,0.0,11.0,2.0,-4.0,6.0,3.0,-10.0,-16.0
1701634405.4943318,19.0,18.0,10.0,-4.0,-6.0,-7.0,-14.0,-9.0
1701634405.5243287,14.0,-14.0,-25.0,1.0,-9.0,2.0,22.0,60.0
1701634405.5243287,-39.0,21.0,8.0,11.0,5.0,2.0,-6.0,-54.0
1701634405.5243287,17.0,-33.0,-15.0,-16.0,-7.0,-15.0,-19.0,-1.0
1701634405.5243287,-7.0,-16.0,4.0,7.0,-2.0,3.0,-8.0,-5.0
1701634405.5343566,4.0,46.0,41.0,9.0,-1.0,-9.0,4.0,19.0
1701634405.5343566,11.0,-8.0,-41.0,-14.0,-8.0,10.0,3.0,-29.0
1701634405.5343566,0.0,35.0,-28.0,-4.0,15.0,16.0,17.0,-11.0
1701634405.5343566,0.0,-11.0,43.0,14.0,-7.0,-1.0,-1.0,1.0
1701634405.56304,-7.0,-46.0,39.0,19.0,16.0,-8.0,-18.0,-30.0
1701634405.56304,4.0,-22.0,8.0,-4.0,-10.0,-6.0,7.0,94.0
1701634405.5640388,15.0,21.0,-29.0,-30.0,-27.0,-30.0,-16.0,-57.0
1701634405.5650456,19.0,12.0,7.0,-10.0,-5.0,-18.0,-16.0,16.0
1701634405.5908513,10.0,12.0,-33.0,-3.0,5.0,70.0,40.0,-59.0
1701634405.5908513,-40.0,0.0,11.0,10.0,12.0,-17.0,-20.0,31.0
1701634405.5908513,-23.0,-31.0,14.0,-3.0,-18.0,-14.0,-10.0,17.0
1701634405.5908513,7.0,14.0,27.0,4.0,8.0,19.0,39.0,46.0
1701634405.5908513,1.0,27.0,-19.0,11.0,11.0,-16.0,-11.0,-11.0
1701634405.5908513,-34.0,-35.0,-30.0,-16.0,-16.0,31.0,8.0,-54.0
1701634405.6008482,11.0,-4.0,-6.0,10.0,10.0,-10.0,-14.0,55.0
1701634405.6008482,-30.0,3.0,16.0,-7.0,-21.0,-58.0,-71.0,-88.0
1701634405.6208527,-39.0,-59.0,-74.0,-35.0,-15.0,-7.0,-7.0,51.0
1701634405.6208527,42.0,31.0,46.0,10.0,-1.0,19.0,34.0,47.0
1701634405.6208527,-23.0,-10.0,-52.0,-7.0,20.0,23.0,9.0,-49.0
1701634405.6208527,0.0,12.0,55.0,26.0,0.0,10.0,7.0,1.0
1701634405.6408508,-12.0,-25.0,-51.0,-25.0,-10.0,-28.0,-10.0,-12.0
1701634405.6408508,24.0,7.0,8.0,11.0,4.0,-23.0,-67.0,-7.0
1701634405.6408508,-1.0,-8.0,20.0,-48.0,-29.0,2.0,41.0,28.0
1701634405.6408508,21.0,24.0,-24.0,47.0,13.0,9.0,8.0,6.0
1701634405.6511567,-2.0,-9.0,18.0,12.0,18.0,9.0,30.0,18.0
1701634405.6511567,-16.0,4.0,17.0,-19.0,-16.0,-19.0,-45.0,-59.0
1701634405.6608534,6.0,3.0,-10.0,-19.0,14.0,6.0,-6.0,2.0
1701634405.6608534,-17.0,-21.0,-10.0,-9.0,-28.0,7.0,11.0,-2.0
1701634405.6812115,11.0,8.0,48.0,31.0,22.0,5.0,41.0,41.0
1701634405.6812115,-10.0,0.0,-13.0,35.0,31.0,3.0,-22.0,-27.0
1701634405.6812115,-13.0,10.0,19.0,15.0,-6.0,-7.0,3.0,-4.0
1701634405.6812115,-8.0,-24.0,-20.0,-75.0,-41.0,-18.0,-31.0,-10.0
1701634405.7008512,1.0,9.0,-2.0,34.0,0.0,-4.0,-17.0,-12.0
1701634405.7008512,7.0,-1.0,-1.0,14.0,34.0,8.0,22.0,7.0
1701634405.7008512,-3.0,-4.0,9.0,0.0,-9.0,-7.0,-23.0,-5.0
1701634405.7008512,-4.0,2.0,-22.0,-7.0,6.0,5.0,28.0,26.0
1701634405.7208576,14.0,9.0,7.0,-21.0,-15.0,6.0,49.0,21.0
1701634405.7208576,-15.0,-17.0,2.0,-8.0,-16.0,-13.0,-44.0,-45.0
1701634405.7208576,2.0,27.0,1.0,15.0,12.0,-4.0,-15.0,13.0
1701634405.7208576,-2.0,-11.0,-10.0,-11.0,0.0,7.0,10.0,4.0
1701634405.7408602,0.0,-19.0,4.0,0.0,-5.0,-3.0,-42.0,-65.0
1701634405.7408602,15.0,32.0,31.0,0.0,-6.0,-1.0,52.0,49.0
1701634405.7408602,-4.0,-21.0,-53.0,3.0,-4.0,7.0,15.0,7.0
1701634405.7408602,1.0,11.0,40.0,11.0,8.0,-3.0,-15.0,-13.0
1701634405.7509387,-7.0,-16.0,-73.0,-33.0,-6.0,-3.0,-8.0,15.0
1701634405.7509387,7.0,-19.0,35.0,15.0,11.0,8.0,29.0,6.0
1701634405.770851,-3.0,20.0,2.0,2.0,-9.0,-17.0,-28.0,-17.0
1701634405.770851,9.0,5.0,-36.0,12.0,16.0,36.0,25.0,3.0
1701634405.770851,-40.0,-15.0,-51.0,-28.0,-16.0,-19.0,-19.0,24.0
1701634405.770851,20.0,-10.0,28.0,10.0,-6.0,-11.0,-8.0,6.0
1701634405.7808533,3.0,10.0,69.0,8.0,0.0,19.0,26.0,23.0
1701634405.7808533,-7.0,-28.0,-64.0,-24.0,-13.0,-14.0,-4.0,-5.0
1701634405.80124,14.0,-17.0,65.0,10.0,13.0,14.0,17.0,-12.0
1701634405.80124,-13.0,16.0,-1.0,-14.0,-13.0,-12.0,-41.0,-17.0
1701634405.80124,-3.0,2.0,-7.0,2.0,-6.0,-6.0,16.0,9.0
1701634405.80124,3.0,4.0,66.0,28.0,23.0,1.0,-21.0,-9.0
1701634405.8108957,-4.0,22.0,51.0,-14.0,-24.0,-12.0,-16.0,-20.0
1701634405.8108957,18.0,4.0,39.0,-11.0,-16.0,-2.0,24.0,18.0
1701634405.8208504,-42.0,-7.0,-6.0,22.0,18.0,5.0,-17.0,-25.0
1701634405.8208504,4.0,-38.0,-62.0,-38.0,-9.0,-3.0,26.0,22.0
1701634405.840852,18.0,39.0,49.0,10.0,-3.0,-1.0,-26.0,-4.0
1701634405.840852,-5.0,-5.0,-64.0,51.0,34.0,9.0,23.0,5.0
1701634405.840852,5.0,18.0,16.0,-18.0,-32.0,-3.0,-4.0,-23.0
1701634405.840852,-5.0,-10.0,-23.0,2.0,33.0,8.0,-27.0,2.0
1701634405.8608503,1.0,1.0,-1.0,-20.0,-19.0,-13.0,-16.0,-6.0
1701634405.8608503,-17.0,-15.0,-14.0,-21.0,-4.0,-2.0,16.0,8.0
1701634405.8608503,17.0,-9.0,-14.0,-22.0,-13.0,-1.0,4.0,-4.0
1701634405.8608503,-2.0,11.0,7.0,55.0,34.0,-1.0,2.0,-3.0
1701634405.8708854,5.0,12.0,18.0,-18.0,-12.0,-12.0,-33.0,-17.0
1701634405.8708854,1.0,-19.0,-40.0,-5.0,-28.0,-5.0,24.0,8.0
1701634405.881223,9.0,11.0,19.0,7.0,26.0,5.0,4.0,17.0
1701634405.881223,-24.0,-9.0,-2.0,-14.0,-9.0,-6.0,-5.0,-15.0
1701634405.8912416,5.0,6.0,-8.0,12.0,6.0,2.0,-4.0,0.0
1701634405.8912416,-7.0,-4.0,-4.0,-21.0,-12.0,-5.0,5.0,-2.0
1701634405.9008524,2.0,-5.0,-20.0,-11.0,-10.0,-5.0,-6.0,3.0
1701634405.9008524,6.0,8.0,-17.0,-14.0,-10.0,-5.0,1.0,-2.0
1701634405.9308503,-3.0,-15.0,-30.0,9.0,5.0,4.0,2.0,-4.0
1701634405.9308503,-15.0,0.0,8.0,-12.0,0.0,1.0,9.0,12.0
1701634405.9308503,11.0,6.0,29.0,18.0,-1.0,-3.0,-22.0,-22.0
1701634405.9308503,-10.0,8.0,-9.0,-2.0,-7.0,-2.0,3.0,7.0
1701634405.9308503,17.0,-38.0,39.0,13.0,11.0,0.0,-4.0,-25.0
1701634405.9308503,18.0,47.0,-48.0,0.0,4.0,11.0,7.0,2.0
1701634405.9411736,-44.0,-24.0,-13.0,12.0,4.0,-7.0,-1.0,31.0
1701634405.9411736,6.0,7.0,7.0,-33.0,-23.0,-20.0,-12.0,-26.0
1701634405.9512444,-29.0,-11.0,-62.0,4.0,8.0,12.0,17.0,10.0
1701634405.9512444,9.0,-6.0,31.0,-3.0,-2.0,11.0,1.0,5.0
1701634405.9608524,-18.0,25.0,54.0,17.0,6.0,4.0,-6.0,-11.0
1701634405.9608524,1.0,-31.0,-65.0,-32.0,-19.0,-14.0,8.0,63.0
1701634405.9808831,-8.0,3.0,26.0,16.0,9.0,18.0,-1.0,-37.0
1701634405.9808831,-18.0,-26.0,-20.0,-33.0,-18.0,-18.0,-30.0,-31.0
1701634405.9808831,-9.0,-10.0,-80.0,-12.0,3.0,1.0,9.0,-16.0
1701634405.9808831,24.0,-17.0,26.0,-9.0,0.0,3.0,-3.0,15.0
1701634405.9911437,9.0,-1.0,32.0,24.0,-3.0,-7.0,16.0,24.0
1701634405.9911437,-8.0,6.0,-6.0,-4.0,2.0,-5.0,-11.0,-15.0
1701634406.0011008,16.0,-1.0,37.0,-4.0,-6.0,0.0,-3.0,-7.0
1701634406.0011008,-14.0,1.0,-6.0,21.0,1.0,-3.0,-32.0,-34.0
1701634406.0111465,19.0,-5.0,-20.0,2.0,23.0,14.0,16.0,17.0
1701634406.020857,-16.0,-4.0,2.0,-19.0,2.0,-2.0,16.0,1.0
1701634406.020857,13.0,-4.0,-1.0,3.0,-10.0,-2.0,1.0,6.0
1701634406.020857,-4.0,6.0,16.0,10.0,-6.0,-2.0,-7.0,-3.0
1701634406.0484774,-3.0,22.0,-9.0,0.0,3.0,2.0,10.0,13.0
1701634406.0484774,-3.0,-20.0,-2.0,-6.0,-15.0,-3.0,-11.0,-1.0
1701634406.0484774,5.0,10.0,9.0,4.0,20.0,-2.0,-8.0,-1.0
1701634406.0484774,-6.0,4.0,10.0,-15.0,-11.0,5.0,16.0,-7.0
1701634406.0552542,-7.0,-13.0,-5.0,-14.0,-6.0,-9.0,-9.0,0.0
1701634406.0552542,10.0,4.0,3.0,2.0,0.0,3.0,15.0,6.0
1701634406.0642266,4.0,-10.0,1.0,-9.0,-8.0,1.0,8.0,-2.0
1701634406.0642266,33.0,12.0,6.0,18.0,6.0,5.0,5.0,34.0
1701634406.0792744,-29.0,39.0,32.0,1.0,-1.0,1.0,-2.0,-60.0
1701634406.0792744,14.0,-41.0,2.0,7.0,5.0,-3.0,-5.0,25.0
1701634406.0812633,-7.0,-11.0,-41.0,-5.0,2.0,1.0,2.0,21.0
1701634406.0812633,27.0,16.0,16.0,-13.0,-5.0,3.0,1.0,-23.0
1701634406.1022584,-9.0,7.0,-37.0,0.0,2.0,-7.0,-3.0,0.0
1701634406.1022584,-4.0,-19.0,14.0,7.0,-7.0,-5.0,-13.0,-16.0
1701634406.1032271,-3.0,6.0,-28.0,-32.0,-11.0,-3.0,4.0,-12.0
1701634406.1032271,10.0,2.0,36.0,30.0,9.0,4.0,14.0,24.0
1701634406.1162584,12.0,-42.0,-54.0,-23.0,-15.0,-9.0,-9.0,25.0
1701634406.1162584,-12.0,35.0,17.0,-41.0,-24.0,-5.0,-14.0,-31.0
1701634406.1242638,6.0,-20.0,34.0,24.0,12.0,-5.0,-1.0,8.0
1701634406.1242638,-16.0,5.0,12.0,71.0,37.0,12.0,10.0,-2.0
1701634406.1442516,0.0,-11.0,-24.0,-44.0,-20.0,-6.0,-6.0,6.0
1701634406.1442516,-4.0,9.0,-22.0,24.0,1.0,-5.0,-4.0,4.0
1701634406.1456094,3.0,-29.0,35.0,22.0,-23.0,-7.0,3.0,-2.0
1701634406.1456094,-6.0,6.0,-46.0,-29.0,34.0,15.0,22.0,-1.0
1701634406.1623912,-2.0,3.0,49.0,38.0,26.0,2.0,-33.0,-16.0
1701634406.1623912,3.0,12.0,-39.0,-33.0,-9.0,1.0,15.0,-4.0
1701634406.163389,6.0,28.0,8.0,7.0,-8.0,-2.0,-5.0,5.0
1701634406.163389,-12.0,-3.0,13.0,13.0,-10.0,-11.0,-21.0,-21.0
1701634406.1762595,-3.0,2.0,-23.0,-49.0,-22.0,-2.0,5.0,12.0
1701634406.1762595,2.0,19.0,-5.0,22.0,14.0,0.0,7.0,6.0
1701634406.1843019,0.0,-29.0,24.0,47.0,22.0,7.0,21.0,4.0
1701634406.1843019,-14.0,-27.0,-28.0,-27.0,-13.0,-7.0,-30.0,-27.0
1701634406.1994164,2.0,13.0,-5.0,-12.0,1.0,-6.0,9.0,8.0
1701634406.1994164,-5.0,-6.0,18.0,12.0,3.0,10.0,7.0,-5.0
1701634406.201195,8.0,17.0,13.0,-17.0,-2.0,5.0,-6.0,-8.0
1701634406.201195,7.0,35.0,22.0,14.0,7.0,4.0,14.0,12.0
1701634406.2218597,-27.0,-12.0,-60.0,-13.0,-12.0,-10.0,-12.0,-10.0
1701634406.2218597,3.0,-11.0,15.0,-7.0,0.0,0.0,-2.0,-23.0
1701634406.2238574,-6.0,-45.0,-26.0,1.0,4.0,-3.0,-3.0,-24.0
1701634406.2238574,-11.0,16.0,10.0,3.0,-12.0,0.0,-3.0,13.0
1701634406.236144,14.0,48.0,38.0,11.0,2.0,1.0,8.0,8.0
1701634406.236144,10.0,-46.0,1.0,6.0,18.0,4.0,-6.0,10.0
1701634406.2445817,-5.0,11.0,-37.0,-25.0,-7.0,-8.0,-3.0,-5.0
1701634406.2445817,-17.0,28.0,27.0,-7.0,-8.0,1.0,-9.0,-32.0
1701634406.2594538,21.0,-5.0,25.0,36.0,10.0,11.0,29.0,32.0
1701634406.2594538,-3.0,13.0,-7.0,-1.0,4.0,2.0,-21.0,-2.0
1701634406.2613106,15.0,-1.0,8.0,-17.0,-9.0,-6.0,-1.0,26.0
1701634406.2613106,-9.0,-5.0,-4.0,-6.0,-9.0,-13.0,9.0,9.0
1701634406.2797172,5.0,2.0,-16.0,9.0,-2.0,-7.0,-4.0,-9.0
1701634406.2797172,-14.0,-22.0,12.0,5.0,4.0,2.0,-6.0,-16.0
1701634406.2797172,16.0,13.0,0.0,-10.0,-1.0,15.0,11.0,3.0
1701634406.2797172,-7.0,-13.0,-30.0,-25.0,-10.0,-1.0,-2.0,-3.0
1701634406.2900088,4.0,-24.0,14.0,-1.0,-9.0,-6.0,0.0,25.0
1701634406.2900088,-3.0,14.0,-17.0,10.0,4.0,-10.0,-5.0,6.0
1701634406.3000047,-16.0,-1.0,5.0,-11.0,-1.0,-1.0,-22.0,-32.0
1701634406.3000047,1.0,4.0,2.0,7.0,-13.0,-4.0,4.0,8.0
1701634406.3100097,1.0,-17.0,9.0,4.0,4.0,-2.0,-13.0,-11.0
1701634406.3197243,-4.0,15.0,-2.0,-9.0,-1.0,-2.0,-9.0,0.0
1701634406.3297467,-4.0,11.0,0.0,-3.0,-8.0,-2.0,9.0,12.0
1701634406.3297467,9.0,-13.0,-21.0,-8.0,13.0,7.0,22.0,4.0
1701634406.339991,-10.0,-31.0,8.0,19.0,3.0,-2.0,-26.0,-15.0
1701634406.339991,2.0,35.0,19.0,5.0,3.0,4.0,13.0,-4.0
1701634406.339991,-1.0,-1.0,-33.0,-15.0,-6.0,-6.0,-1.0,23.0
1701634406.339991,1.0,-17.0,3.0,-5.0,-7.0,-4.0,-19.0,-34.0
1701634406.3697183,-3.0,-4.0,7.0,6.0,2.0,3.0,17.0,10.0
1701634406.3697183,5.0,21.0,31.0,-1.0,-3.0,1.0,-12.0,-4.0
1701634406.3697183,14.0,-19.0,-24.0,5.0,-1.0,-4.0,-5.0,20.0
1701634406.3697183,-32.0,-2.0,30.0,5.0,3.0,3.0,1.0,-52.0
1701634406.379753,6.0,8.0,5.0,-4.0,3.0,2.0,8.0,13.0
1701634406.379753,8.0,8.0,-15.0,-5.0,-13.0,2.0,2.0,1.0
1701634406.379753,-11.0,1.0,15.0,8.0,16.0,4.0,1.0,-10.0
1701634406.379753,35.0,44.0,32.0,6.0,-3.0,0.0,-3.0,23.0
1701634406.3997886,-24.0,-61.0,-53.0,-15.0,-9.0,-9.0,-7.0,37.0
1701634406.3997886,-1.0,-22.0,10.0,-8.0,-4.0,-15.0,-18.0,30.0
1701634406.3997886,10.0,52.0,17.0,17.0,6.0,15.0,5.0,-48.0
1701634406.3997886,-7.0,-22.0,-52.0,-30.0,-10.0,-12.0,19.0,57.0
1701634406.4297204,9.0,29.0,57.0,22.0,10.0,15.0,-5.0,-19.0
1701634406.4297204,-5.0,-12.0,-21.0,-5.0,-13.0,-9.0,-3.0,9.0
1701634406.4297204,36.0,17.0,34.0,-1.0,-3.0,-11.0,-20.0,16.0
1701634406.4297204,26.0,0.0,-16.0,2.0,13.0,-5.0,0.0,0.0
1701634406.439723,-11.0,10.0,-10.0,-6.0,5.0,30.0,33.0,-65.0
1701634406.439723,4.0,-4.0,-27.0,8.0,2.0,2.0,6.0,39.0
1701634406.439723,-18.0,0.0,33.0,-3.0,-5.0,6.0,0.0,17.0
1701634406.439723,-28.0,-15.0,-39.0,-6.0,-19.0,-20.0,-48.0,-33.0
1701634406.459723,23.0,3.0,7.0,3.0,5.0,-14.0,23.0,26.0
1701634406.459723,-30.0,-24.0,-4.0,0.0,9.0,25.0,20.0,-22.0
1701634406.459723,-1.0,-2.0,1.0,-4.0,-8.0,-9.0,-29.0,-27.0
1701634406.459723,7.0,-14.0,-10.0,10.0,5.0,4.0,11.0,38.0
1701634406.47972,-12.0,19.0,5.0,0.0,-8.0,-13.0,-5.0,-9.0
1701634406.47972,-4.0,-5.0,10.0,-38.0,-7.0,-7.0,-37.0,-34.0
1701634406.47972,-3.0,-7.0,11.0,13.0,-6.0,-9.0,19.0,23.0
1701634406.47972,-3.0,2.0,14.0,23.0,6.0,14.0,6.0,-8.0
1701634406.4997675,1.0,-5.0,-34.0,-37.0,-7.0,-4.0,-26.0,-8.0
1701634406.4997675,3.0,17.0,5.0,64.0,30.0,-4.0,21.0,7.0
1701634406.4997675,-18.0,-34.0,-39.0,-94.0,-22.0,-13.0,-41.0,-38.0
1701634406.4997675,0.0,9.0,35.0,68.0,5.0,-1.0,8.0,8.0
1701634406.519921,-6.0,-7.0,17.0,-2.0,-13.0,13.0,18.0,7.0
1701634406.519921,9.0,2.0,-21.0,34.0,23.0,-3.0,-15.0,-17.0
1701634406.519921,-12.0,8.0,-3.0,9.0,9.0,1.0,8.0,11.0
1701634406.519921,-6.0,-14.0,9.0,-24.0,-16.0,1.0,19.0,-10.0
1701634406.5397353,3.0,-5.0,-21.0,-22.0,-1.0,-10.0,-18.0,11.0
1701634406.5397353,7.0,-5.0,-8.0,-23.0,-9.0,1.0,6.0,-2.0
1701634406.5397353,-9.0,14.0,11.0,40.0,10.0,5.0,3.0,1.0
1701634406.5397353,3.0,11.0,31.0,-29.0,-4.0,1.0,-10.0,-16.0
1701634406.5600476,-6.0,2.0,-65.0,-7.0,-15.0,-12.0,-11.0,-14.0
1701634406.5600476,3.0,-8.0,0.0,-13.0,-7.0,-2.0,2.0,-1.0
1701634406.56973,-8.0,-12.0,-3.0,4.0,5.0,3.0,27.0,-6.0
1701634406.56973,7.0,-4.0,-7.0,-14.0,-6.0,-3.0,-12.0,21.0
1701634406.599715,-2.0,0.0,33.0,16.0,9.0,0.0,-13.0,-11.0
1701634406.599715,-16.0,12.0,10.0,5.0,-3.0,0.0,4.0,2.0
1701634406.599715,-2.0,-8.0,49.0,6.0,-10.0,-14.0,-1.0,-18.0
1701634406.599715,7.0,16.0,-101.0,-17.0,11.0,10.0,10.0,34.0
1701634406.599715,19.0,-27.0,-25.0,-10.0,-1.0,9.0,-13.0,3.0
1701634406.599715,2.0,24.0,54.0,-14.0,-11.0,-6.0,13.0,4.0
1701634406.6105466,6.0,13.0,66.0,35.0,3.0,-23.0,18.0,41.0
1701634406.6115565,-13.0,0.0,-45.0,-29.0,1.0,36.0,-2.0,-15.0
1701634406.6195545,-9.0,20.0,83.0,14.0,-6.0,-21.0,-16.0,-22.0
1701634406.6195545,-26.0,-40.0,73.0,-16.0,-8.0,-8.0,-6.0,5.0
1701634406.6215572,-52.0,-15.0,-70.0,0.0,3.0,6.0,-24.0,-42.0
1701634406.6215572,5.0,19.0,-13.0,-21.0,-3.0,5.0,29.0,5.0
1701634406.6536074,-16.0,9.0,1.0,23.0,2.0,-2.0,-2.0,5.0
1701634406.6536074,-8.0,-23.0,10.0,8.0,3.0,2.0,12.0,-16.0
1701634406.6536074,3.0,13.0,1.0,-3.0,-3.0,-11.0,-39.0,-7.0
1701634406.6536074,3.0,1.0,35.0,7.0,0.0,-5.0,47.0,20.0
1701634406.6650891,29.0,17.0,-20.0,-24.0,-15.0,-7.0,-68.0,-36.0
1701634406.6650891,-22.0,-24.0,-13.0,33.0,9.0,-8.0,-2.0,16.0
1701634406.6664784,6.0,-3.0,-28.0,-26.0,-3.0,15.0,33.0,6.0
1701634406.6664784,16.0,7.0,34.0,34.0,16.0,2.0,-15.0,-6.0
1701634406.679198,-9.0,-13.0,-12.0,-55.0,-9.0,0.0,60.0,21.0
1701634406.679198,26.0,28.0,-31.0,-27.0,-17.0,2.0,7.0,5.0
1701634406.6860032,-1.0,-9.0,-15.0,55.0,7.0,-3.0,-83.0,-31.0
1701634406.6860032,-18.0,-16.0,30.0,-9.0,-13.0,-8.0,8.0,-10.0
1701634406.7091074,7.0,6.0,14.0,48.0,25.0,-1.0,-3.0,2.0
1701634406.7091074,3.0,-14.0,-49.0,-21.0,-7.0,5.0,41.0,27.0
1701634406.7091074,14.0,-5.0,2.0,-86.0,-25.0,10.0,24.0,1.0
1701634406.7091074,-16.0,-5.0,14.0,71.0,23.0,-5.0,0.0,-13.0
1701634406.7249513,-8.0,-6.0,18.0,5.0,-18.0,-7.0,-27.0,-10.0
1701634406.7249513,2.0,0.0,-26.0,-15.0,-3.0,-4.0,-4.0,5.0
1701634406.7259514,9.0,-3.0,-8.0,9.0,22.0,3.0,14.0,8.0
1701634406.7259514,-2.0,-15.0,2.0,-20.0,-12.0,-9.0,-30.0,-17.0
1701634406.7389243,-2.0,0.0,-18.0,-5.0,-4.0,-2.0,5.0,11.0
1701634406.7389243,4.0,9.0,3.0,21.0,0.0,-1.0,-17.0,-15.0
1701634406.7457414,-1.0,-7.0,-8.0,-19.0,-8.0,3.0,17.0,-1.0
1701634406.7457414,-4.0,-16.0,7.0,2.0,3.0,-11.0,-8.0,-7.0
1701634406.7682245,-6.0,1.0,-1.0,10.0,14.0,18.0,22.0,0.0
1701634406.7682245,4.0,5.0,-31.0,-1.0,2.0,-2.0,-21.0,-14.0
1701634406.7682245,-14.0,9.0,8.0,1.0,-3.0,-6.0,7.0,15.0
1701634406.7682245,2.0,-16.0,-57.0,-23.0,-15.0,-11.0,-12.0,5.0
1701634406.786044,-1.0,22.0,44.0,15.0,-2.0,-7.0,9.0,7.0
1701634406.786044,25.0,-9.0,0.0,-7.0,-4.0,18.0,4.0,-26.0
1701634406.7880359,12.0,2.0,-15.0,10.0,10.0,11.0,13.0,13.0
1701634406.7880359,-16.0,6.0,24.0,-1.0,-4.0,-10.0,-5.0,-13.0
1701634406.7991195,-17.0,-18.0,-4.0,-18.0,1.0,5.0,0.0,-19.0
1701634406.800113,8.0,5.0,-9.0,7.0,-3.0,-17.0,-4.0,10.0
1701634406.8298626,0.0,-8.0,19.0,21.0,2.0,8.0,4.0,6.0
1701634406.8298626,17.0,0.0,-13.0,-35.0,-13.0,-8.0,-12.0,-13.0
1701634406.8308625,1.0,12.0,-3.0,18.0,8.0,-1.0,7.0,2.0
1701634406.8308625,-10.0,-15.0,23.0,-2.0,8.0,8.0,9.0,18.0
1701634406.8308625,-2.0,5.0,1.0,5.0,3.0,-10.0,-14.0,-23.0
1701634406.8308625,0.0,-6.0,-8.0,9.0,-14.0,-9.0,-13.0,1.0
1701634406.844786,0.0,-16.0,4.0,-9.0,6.0,6.0,9.0,7.0
1701634406.844786,3.0,21.0,9.0,16.0,6.0,-5.0,-11.0,-4.0
1701634406.8465745,-6.0,-2.0,-20.0,-13.0,-20.0,-8.0,5.0,9.0
1701634406.8465745,3.0,-1.0,-4.0,-15.0,14.0,13.0,12.0,6.0
1701634406.8587406,3.0,-7.0,-11.0,3.0,-10.0,0.0,0.0,12.0
1701634406.8587406,-15.0,5.0,6.0,2.0,0.0,-8.0,-31.0,-27.0
1701634406.8743622,2.0,-5.0,-18.0,-24.0,-7.0,-2.0,3.0,0.0
1701634406.8743622,-3.0,-1.0,21.0,35.0,9.0,2.0,1.0,-7.0
1701634406.8822587,-1.0,-5.0,-11.0,-10.0,-4.0,-8.0,-13.0,-5.0
1701634406.8822587,1.0,2.0,-13.0,-32.0,-13.0,0.0,19.0,10.0
1701634406.8837264,3.0,-4.0,10.0,27.0,-10.0,1.0,9.0,4.0
1701634406.8837264,-3.0,-4.0,-2.0,-2.0,13.0,-8.0,-33.0,-12.0
1701634406.904685,-6.0,2.0,-21.0,-8.0,-4.0,3.0,-3.0,-15.0
1701634406.904685,-3.0,4.0,9.0,5.0,-5.0,-9.0,-7.0,10.0
1701634406.9066937,4.0,3.0,-2.0,-3.0,8.0,4.0,15.0,-4.0
1701634406.9066937,-3.0,-2.0,-4.0,-5.0,-8.0,-9.0,17.0,31.0
1701634406.9196992,6.0,-11.0,-10.0,12.0,12.0,4.0,-5.0,-5.0
1701634406.9196992,15.0,-6.0,-11.0,-26.0,-14.0,10.0,7.0,13.0
1701634406.925609,-23.0,29.0,19.0,9.0,5.0,-8.0,-17.0,-19.0
1701634406.925609,0.0,-14.0,-1.0,-4.0,-4.0,-4.0,-10.0,-26.0
1701634406.941949,-5.0,-1.0,26.0,-17.0,-4.0,-2.0,3.0,15.0
1701634406.941949,-1.0,-1.0,-26.0,25.0,1.0,-7.0,7.0,5.0
1701634406.9435854,6.0,-4.0,-3.0,-6.0,-3.0,-2.0,-3.0,-3.0
1701634406.9435854,-5.0,-2.0,11.0,4.0,21.0,20.0,1.0,6.0
1701634406.9651496,-6.0,5.0,16.0,-11.0,-14.0,-13.0,-6.0,5.0
1701634406.9651496,-2.0,-23.0,-44.0,1.0,3.0,-3.0,-11.0,-34.0
1701634406.9662921,-5.0,17.0,5.0,8.0,-5.0,-8.0,0.0,-5.0
1701634406.9662921,20.0,11.0,5.0,-22.0,-14.0,-10.0,7.0,4.0
1701634406.9783075,3.0,-6.0,-21.0,8.0,11.0,14.0,18.0,10.0
1701634406.9783075,-11.0,-3.0,19.0,1.0,5.0,-3.0,-21.0,-16.0
1701634406.993755,4.0,-18.0,-19.0,-6.0,-2.0,1.0,8.0,13.0
1701634406.993755,-6.0,13.0,8.0,-8.0,-5.0,-1.0,-2.0,-5.0
1701634407.0034544,-2.0,-1.0,20.0,8.0,0.0,-7.0,-1.0,-7.0
1701634407.0034544,5.0,8.0,-6.0,11.0,-1.0,-7.0,-9.0,1.0
1701634407.0054998,-13.0,-2.0,-6.0,-16.0,10.0,11.0,18.0,0.0
1701634407.0054998,-9.0,-3.0,11.0,11.0,-10.0,-3.0,-6.0,-5.0
1701634407.0251212,0.0,-2.0,-22.0,-7.0,-1.0,-3.0,-17.0,-9.0
1701634407.0251212,-3.0,8.0,11.0,18.0,14.0,8.0,-1.0,1.0
1701634407.0271635,13.0,-12.0,-5.0,7.0,2.0,-5.0,-3.0,7.0
1701634407.0271635,-7.0,7.0,27.0,-1.0,-5.0,5.0,4.0,3.0
1701634407.0538247,-4.0,-7.0,-58.0,-8.0,-3.0,-6.0,5.0,0.0
1701634407.0538247,0.0,3.0,6.0,-19.0,-8.0,-2.0,5.0,9.0
1701634407.0538247,5.0,-6.0,11.0,-12.0,-9.0,-3.0,-2.0,5.0
1701634407.0538247,1.0,2.0,18.0,12.0,4.0,1.0,1.0,-5.0
1701634407.0630417,-1.0,4.0,-1.0,-11.0,-8.0,-5.0,-7.0,7.0
1701634407.0630417,-6.0,-1.0,-2.0,2.0,4.0,-1.0,-8.0,-16.0
1701634407.0640984,1.0,-8.0,-13.0,0.0,-1.0,2.0,-3.0,7.0
1701634407.0640984,-2.0,-4.0,-16.0,-11.0,-2.0,0.0,-6.0,-18.0
1701634407.0848799,-2.0,1.0,24.0,13.0,-1.0,-2.0,0.0,-7.0
1701634407.0848799,5.0,6.0,1.0,13.0,8.0,5.0,12.0,14.0
1701634407.0858822,-3.0,-8.0,8.0,12.0,6.0,-2.0,-5.0,19.0
1701634407.0858822,-1.0,-4.0,-12.0,-4.0,-5.0,-2.0,-5.0,1.0
1701634407.1052282,9.0,0.0,4.0,-14.0,-10.0,-4.0,-3.0,-4.0
1701634407.1052282,-4.0,-21.0,3.0,-18.0,-7.0,3.0,2.0,-6.0
1701634407.1070728,-2.0,8.0,-21.0,8.0,0.0,1.0,-2.0,-10.0
1701634407.1070728,-5.0,13.0,6.0,-6.0,-2.0,-1.0,-2.0,0.0
1701634407.1262527,-14.0,-7.0,2.0,9.0,5.0,-2.0,-1.0,-5.0
1701634407.1262527,13.0,28.0,14.0,-3.0,-8.0,-4.0,1.0,6.0
1701634407.1262527,-4.0,-54.0,-15.0,-10.0,-11.0,-6.0,-8.0,-15.0
1701634407.1262527,4.0,5.0,-6.0,2.0,11.0,7.0,13.0,10.0
1701634407.1444912,-2.0,25.0,12.0,3.0,-3.0,-2.0,-5.0,22.0
1701634407.1444912,-6.0,-19.0,3.0,0.0,-2.0,-4.0,-13.0,-25.0
1701634407.1465464,-5.0,-35.0,-17.0,-11.0,0.0,-2.0,-1.0,-10.0
1701634407.1465464,-7.0,-6.0,-14.0,-8.0,-9.0,-7.0,0.0,-8.0
1701634407.164502,-21.0,9.0,10.0,11.0,4.0,-1.0,-15.0,-5.0
1701634407.164502,7.0,19.0,4.0,-7.0,-6.0,2.0,5.0,2.0
1701634407.166513,12.0,24.0,12.0,13.0,17.0,3.0,1.0,13.0
1701634407.1675177,-2.0,-27.0,-11.0,-6.0,-8.0,-2.0,4.0,-5.0
1701634407.182251,6.0,6.0,-11.0,1.0,3.0,5.0,13.0,1.0
1701634407.182251,-18.0,-1.0,15.0,-41.0,-17.0,-14.0,-23.0,-12.0
1701634407.1842763,18.0,25.0,19.0,52.0,17.0,4.0,-3.0,-4.0
1701634407.1842763,-18.0,-41.0,-10.0,-8.0,-5.0,-8.0,-13.0,-11.0
1701634407.2122574,11.0,-9.0,-10.0,2.0,-1.0,6.0,11.0,14.0
1701634407.2122574,1.0,5.0,-9.0,-4.0,2.0,5.0,19.0,24.0
1701634407.2143528,-5.0,2.0,-4.0,-21.0,-10.0,-6.0,-24.0,-31.0
1701634407.2143528,2.0,16.0,19.0,4.0,2.0,3.0,-2.0,-18.0
1701634407.218335,-14.0,-16.0,-1.0,-2.0,-5.0,-13.0,-3.0,3.0
1701634407.218335,0.0,-8.0,10.0,7.0,-2.0,3.0,12.0,4.0
1701634407.227331,-1.0,22.0,8.0,-9.0,-1.0,3.0,12.0,5.0
1701634407.227331,-3.0,8.0,-17.0,0.0,-2.0,-1.0,-18.0,-12.0
1701634407.2418728,-3.0,-34.0,-19.0,-3.0,-4.0,-3.0,2.0,-15.0
1701634407.2418728,-1.0,10.0,-6.0,14.0,9.0,4.0,5.0,5.0
1701634407.2436185,1.0,-3.0,-6.0,-12.0,-3.0,0.0,11.0,14.0
1701634407.2436185,8.0,3.0,-11.0,-18.0,-13.0,-8.0,-7.0,2.0
1701634407.2648287,3.0,-14.0,10.0,3.0,5.0,2.0,-3.0,8.0
1701634407.2648287,2.0,25.0,14.0,23.0,-2.0,3.0,2.0,4.0
1701634407.2658288,-12.0,-25.0,-31.0,-27.0,-4.0,-8.0,-22.0,-12.0
1701634407.2658288,-1.0,0.0,12.0,8.0,3.0,-1.0,-6.0,-2.0
1701634407.278474,2.0,5.0,-6.0,-38.0,-14.0,-5.0,-3.0,-1.0
1701634407.278474,0.0,-12.0,0.0,47.0,12.0,0.0,26.0,9.0
1701634407.2873733,-1.0,-1.0,31.0,-21.0,-12.0,-2.0,-22.0,-21.0
1701634407.2873733,-1.0,-1.0,-46.0,4.0,17.0,8.0,6.0,18.0
1701634407.3019187,-1.0,6.0,-9.0,-12.0,-3.0,3.0,17.0,1.0
1701634407.3019187,-11.0,-11.0,7.0,8.0,1.0,-7.0,-47.0,-29.0
1701634407.3039186,-1.0,12.0,-6.0,-1.0,-8.0,-7.0,1.0,-14.0
1701634407.3039186,16.0,-3.0,18.0,17.0,9.0,8.0,24.0,47.0
1701634407.324385,4.0,17.0,1.0,0.0,-7.0,-6.0,-20.0,-13.0
1701634407.324385,-6.0,-23.0,-32.0,-29.0,-7.0,-3.0,7.0,-10.0
1701634407.326398,-2.0,-5.0,6.0,13.0,0.0,0.0,14.0,37.0
1701634407.326398,-1.0,20.0,8.0,-9.0,-6.0,-4.0,-22.0,-16.0
1701634407.339457,13.0,-22.0,2.0,9.0,-1.0,1.0,11.0,6.0
1701634407.339457,-4.0,23.0,44.0,3.0,6.0,0.0,-8.0,-22.0
1701634407.347884,-9.0,12.0,-48.0,-6.0,-1.0,2.0,-6.0,1.0
1701634407.347884,-12.0,-34.0,-39.0,-15.0,-6.0,-11.0,11.0,-18.0
1701634407.3632417,17.0,32.0,63.0,25.0,7.0,12.0,-2.0,-8.0
1701634407.3632417,20.0,14.0,-5.0,4.0,4.0,3.0,-6.0,18.0
1701634407.364237,0.0,-27.0,-25.0,-9.0,-11.0,-3.0,20.0,41.0
1701634407.365244,-21.0,-38.0,-16.0,-6.0,-3.0,2.0,0.0,-13.0
1701634407.4031706,-3.0,-33.0,-46.0,-9.0,-2.0,-3.0,7.0,-23.0
1701634407.4031706,9.0,-3.0,-3.0,-2.0,0.0,-1.0,-2.0,23.0
1701634407.4031706,-10.0,49.0,54.0,17.0,3.0,0.0,-2.0,-2.0
1701634407.4031706,21.0,31.0,35.0,4.0,-5.0,0.0,-20.0,-1.0
1701634407.4031706,-7.0,-10.0,4.0,15.0,6.0,-2.0,0.0,6.0
1701634407.4031706,-12.0,-1.0,-8.0,-18.0,-7.0,-3.0,0.0,-7.0
1701634407.4071593,8.0,-4.0,-2.0,15.0,14.0,14.0,40.0,18.0
1701634407.4071593,-2.0,4.0,3.0,17.0,15.0,-3.0,-50.0,-20.0
1701634407.4373865,-5.0,8.0,6.0,-14.0,-7.0,0.0,28.0,21.0
1701634407.4373865,-3.0,4.0,-20.0,-16.0,-6.0,-3.0,-6.0,0.0
1701634407.4373865,15.0,-4.0,1.0,-40.0,-15.0,-7.0,-33.0,-31.0
1701634407.4373865,-13.0,-17.0,1.0,41.0,4.0,9.0,67.0,34.0
1701634407.4447155,-5.0,11.0,-3.0,-4.0,-5.0,-3.0,-35.0,-22.0
1701634407.4453876,3.0,-23.0,-5.0,4.0,2.0,-5.0,-3.0,2.0
1701634407.446357,-6.0,-3.0,16.0,-10.0,-4.0,-4.0,0.0,-8.0
1701634407.446357,16.0,26.0,-18.0,-13.0,-6.0,5.0,11.0,13.0
1701634407.4672542,-11.0,0.0,-21.0,-17.0,5.0,-6.0,-11.0,-4.0
1701634407.4672542,-10.0,-2.0,1.0,18.0,-1.0,3.0,1.0,-11.0
1701634407.4687436,3.0,-18.0,-28.0,-10.0,-3.0,-2.0,-7.0,-10.0
1701634407.4687436,-3.0,6.0,-3.0,-16.0,-10.0,0.0,6.0,3.0
1701634407.488746,-5.0,1.0,15.0,20.0,11.0,-1.0,-3.0,-1.0
1701634407.488746,2.0,-7.0,8.0,-15.0,-2.0,-1.0,-2.0,-6.0
1701634407.488746,-1.0,3.0,-8.0,9.0,3.0,-2.0,-6.0,-4.0
1701634407.488746,3.0,12.0,14.0,1.0,-4.0,-31.0,-36.0,-12.0
1701634407.4990065,-7.0,-16.0,-12.0,-14.0,-6.0,20.0,40.0,20.0
1701634407.4990065,-19.0,6.0,21.0,3.0,4.0,4.0,-6.0,10.0
1701634407.4990065,15.0,19.0,52.0,26.0,5.0,-31.0,-17.0,-2.0
1701634407.4990065,-24.0,-6.0,-44.0,-25.0,-4.0,53.0,43.0,28.0
1701634407.5190544,0.0,-9.0,-38.0,10.0,-2.0,-32.0,-65.0,-42.0
1701634407.5190544,-3.0,14.0,48.0,2.0,-9.0,-42.0,1.0,18.0
1701634407.528752,-39.0,-25.0,3.0,17.0,10.0,72.0,58.0,-42.0
1701634407.528752,33.0,7.0,-24.0,-24.0,-21.0,-100.0,-95.0,9.0
1701634407.5587492,60.0,-12.0,-14.0,-17.0,2.0,93.0,73.0,93.0
1701634407.5587492,-50.0,0.0,-19.0,-3.0,-10.0,-39.0,-9.0,-62.0
1701634407.5587492,-36.0,-42.0,-71.0,-25.0,-15.0,2.0,-25.0,-56.0
1701634407.5587492,-29.0,1.0,29.0,2.0,10.0,15.0,13.0,-6.0
1701634407.5587492,15.0,32.0,22.0,17.0,5.0,-19.0,-10.0,-8.0
1701634407.5587492,24.0,-35.0,-48.0,-16.0,-1.0,-9.0,-10.0,8.0
1701634407.5587492,-3.0,30.0,76.0,14.0,-11.0,-30.0,-28.0,-6.0
1701634407.5587492,0.0,-4.0,26.0,18.0,6.0,11.0,14.0,0.0
1701634407.5789335,-9.0,-1.0,-34.0,-19.0,-11.0,-29.0,-29.0,-11.0
1701634407.5789335,2.0,10.0,-24.0,-56.0,-19.0,16.0,59.0,20.0
1701634407.5888388,12.0,-7.0,-29.0,60.0,21.0,-10.0,-64.0,-17.0
1701634407.5888388,19.0,-12.0,18.0,12.0,12.0,27.0,49.0,26.0
1701634407.5987458,-3.0,20.0,48.0,-6.0,0.0,-11.0,35.0,5.0
1701634407.5987458,7.0,-22.0,-18.0,-6.0,0.0,7.0,-45.0,-23.0
1701634407.609044,-1.0,-6.0,-17.0,-22.0,-12.0,3.0,22.0,47.0
1701634407.609044,9.0,36.0,44.0,46.0,24.0,-2.0,-15.0,-29.0
1701634407.6190834,-12.0,-6.0,12.0,12.0,-12.0,-8.0,-1.0,2.0
1701634407.6190834,0.0,17.0,5.0,-6.0,9.0,18.0,17.0,24.0
1701634407.6190834,30.0,12.0,-2.0,-30.0,7.0,1.0,24.0,19.0
1701634407.6190834,-16.0,-18.0,6.0,32.0,6.0,-5.0,-41.0,-46.0
1701634407.63878,-18.0,-8.0,-19.0,-24.0,-14.0,-14.0,-3.0,-11.0
1701634407.63878,8.0,-6.0,-10.0,-6.0,4.0,12.0,2.0,6.0
1701634407.648748,16.0,-1.0,-1.0,22.0,9.0,-1.0,8.0,17.0
1701634407.648748,5.0,5.0,4.0,-25.0,-6.0,3.0,16.0,4.0
1701634407.6721003,-15.0,-7.0,-10.0,6.0,-9.0,-6.0,-3.0,-2.0
1701634407.6721003,-2.0,-7.0,3.0,1.0,-13.0,-7.0,-23.0,-14.0
1701634407.6721003,3.0,10.0,-1.0,-5.0,14.0,-3.0,11.0,11.0
1701634407.6721003,-7.0,0.0,5.0,-8.0,-11.0,3.0,7.0,1.0
1701634407.6854377,-3.0,4.0,11.0,-2.0,2.0,1.0,-6.0,-14.0
1701634407.6854377,-9.0,-20.0,-15.0,9.0,-2.0,-3.0,-22.0,-6.0
1701634407.6864858,-1.0,11.0,18.0,8.0,-7.0,-2.0,18.0,18.0
1701634407.6864858,1.0,-9.0,0.0,-20.0,-9.0,-5.0,-4.0,-16.0
1701634407.7128024,0.0,6.0,17.0,4.0,11.0,-1.0,-21.0,6.0
1701634407.7128024,4.0,3.0,16.0,28.0,12.0,9.0,23.0,3.0
1701634407.7128024,-16.0,-26.0,2.0,-11.0,0.0,-1.0,-9.0,22.0
1701634407.7128024,0.0,8.0,-21.0,-11.0,-10.0,-3.0,14.0,9.0
1701634407.7128024,-1.0,-9.0,6.0,11.0,8.0,2.0,3.0,-40.0
1701634407.7128024,23.0,7.0,-15.0,11.0,2.0,8.0,9.0,1.0
1701634407.7228477,-6.0,17.0,20.0,-9.0,-13.0,-33.0,-32.0,-4.0
1701634407.7228477,-5.0,-43.0,-37.0,-23.0,-3.0,28.0,9.0,-12.0
1701634407.7431831,24.0,37.0,62.0,20.0,3.0,2.0,-14.0,-33.0
1701634407.7431831,-6.0,-35.0,-58.0,-7.0,1.0,-8.0,13.0,15.0
1701634407.7431831,6.0,30.0,14.0,5.0,8.0,21.0,18.0,26.0
1701634407.7431831,8.0,1.0,22.0,7.0,-5.0,-10.0,13.0,-4.0
1701634407.772803,-9.0,-23.0,-40.0,-24.0,-12.0,-10.0,-6.0,54.0
1701634407.772803,14.0,7.0,-2.0,-20.0,-1.0,2.0,2.0,-34.0
1701634407.772803,25.0,-19.0,-8.0,18.0,10.0,15.0,10.0,9.0
1701634407.772803,14.0,23.0,27.0,-5.0,-9.0,-19.0,-25.0,-11.0
1701634407.7828712,-16.0,-5.0,34.0,19.0,11.0,10.0,-15.0,-19.0
1701634407.7828712,-3.0,-5.0,-58.0,-6.0,-6.0,-4.0,4.0,21.0
1701634407.7828712,-18.0,-5.0,16.0,-19.0,-14.0,-10.0,-1.0,-10.0
1701634407.7828712,9.0,2.0,-24.0,-9.0,0.0,1.0,4.0,-12.0
1701634407.8032367,-16.0,-3.0,12.0,9.0,0.0,-6.0,-5.0,-4.0
1701634407.8032367,12.0,10.0,0.0,7.0,6.0,11.0,15.0,19.0
1701634407.8032367,-3.0,-3.0,11.0,-5.0,-5.0,-11.0,-26.0,-47.0
1701634407.8032367,-7.0,-9.0,-5.0,-14.0,-8.0,4.0,13.0,27.0
1701634407.8332462,-14.0,10.0,-30.0,2.0,1.0,-1.0,1.0,3.0
1701634407.8332462,-3.0,-2.0,40.0,6.0,10.0,2.0,-32.0,-21.0
1701634407.8332462,-12.0,-20.0,3.0,5.0,-1.0,-3.0,9.0,6.0
1701634407.8332462,-13.0,15.0,0.0,-9.0,-4.0,-5.0,-2.0,0.0
1701634407.8332462,10.0,-18.0,-31.0,16.0,2.0,0.0,34.0,31.0
1701634407.8332462,-5.0,18.0,45.0,-16.0,14.0,2.0,-23.0,-26.0
1701634407.8432531,6.0,-3.0,-26.0,39.0,8.0,12.0,3.0,-10.0
1701634407.8432531,-10.0,-9.0,18.0,-13.0,-6.0,-11.0,-35.0,-10.0
1701634407.8634694,-4.0,-3.0,-46.0,-20.0,-2.0,-1.0,9.0,-4.0
1701634407.8634694,-11.0,-15.0,11.0,-31.0,-24.0,-5.0,-1.0,12.0
1701634407.8634694,0.0,9.0,-7.0,19.0,7.0,-4.0,4.0,5.0
1701634407.8634694,-3.0,-17.0,-18.0,-1.0,2.0,0.0,3.0,1.0
1701634407.9032478,1.0,5.0,24.0,16.0,13.0,0.0,-14.0,-11.0
1701634407.9032478,-9.0,4.0,19.0,5.0,-11.0,-9.0,-5.0,-7.0
1701634407.9032478,-2.0,-4.0,-34.0,-44.0,-12.0,-13.0,-6.0,-2.0
1701634407.9032478,-5.0,-25.0,-7.0,14.0,3.0,7.0,7.0,-3.0
1701634407.9032478,-2.0,29.0,25.0,-11.0,-6.0,-4.0,-12.0,-11.0
1701634407.9032478,3.0,5.0,-6.0,11.0,-1.0,-2.0,-15.0,-37.0
1701634407.9032478,10.0,12.0,23.0,4.0,3.0,9.0,18.0,20.0
1701634407.9032478,-2.0,-16.0,-30.0,-7.0,-7.0,-14.0,-17.0,-16.0
1701634407.9235423,38.0,12.0,23.0,-3.0,7.0,3.0,6.0,27.0
1701634407.9235423,-10.0,12.0,9.0,26.0,5.0,-3.0,6.0,-2.0
1701634407.9235423,-11.0,-29.0,-36.0,-15.0,-7.0,6.0,-8.0,-13.0
1701634407.9235423,4.0,16.0,-42.0,-11.0,0.0,-1.0,5.0,-4.0
1701634407.9435554,-2.0,7.0,-6.0,1.0,-7.0,-3.0,-2.0,-4.0
1701634407.9435554,-1.0,20.0,38.0,18.0,-4.0,0.0,16.0,18.0
1701634407.9435554,-6.0,-22.0,6.0,-6.0,4.0,-3.0,-18.0,-20.0
1701634407.9435554,-7.0,-8.0,-24.0,-2.0,3.0,9.0,8.0,39.0
1701634407.953249,-10.0,-10.0,3.0,-1.0,0.0,1.0,1.0,-12.0
1701634407.953249,5.0,22.0,-5.0,6.0,6.0,-5.0,-6.0,4.0
1701634407.963444,-8.0,-10.0,4.0,-39.0,-14.0,-2.0,5.0,2.0
1701634407.963444,-1.0,6.0,24.0,27.0,3.0,1.0,-2.0,-1.0
1701634407.9832492,-7.0,-22.0,4.0,37.0,8.0,-2.0,-3.0,-9.0
1701634407.9832492,-6.0,2.0,-51.0,-19.0,7.0,1.0,-3.0,8.0
1701634407.9832492,5.0,20.0,1.0,-4.0,-4.0,-4.0,-3.0,-2.0
1701634407.9832492,4.0,10.0,23.0,0.0,11.0,10.0,9.0,1.0
1701634408.0035212,-2.0,-10.0,-18.0,-6.0,-23.0,-14.0,-10.0,-8.0
1701634408.0035212,-5.0,-21.0,4.0,20.0,24.0,10.0,11.0,5.0
1701634408.0035212,-1.0,6.0,-3.0,7.0,-10.0,-8.0,-13.0,-5.0
1701634408.0035212,6.0,26.0,21.0,2.0,5.0,1.0,-1.0,-1.0
1701634408.0135732,-5.0,-9.0,1.0,-8.0,0.0,3.0,3.0,1.0
1701634408.0135732,0.0,-4.0,-3.0,3.0,-5.0,-2.0,1.0,4.0
1701634408.0235417,1.0,-8.0,-11.0,-29.0,-9.0,-7.0,0.0,1.0
1701634408.0235417,-5.0,-4.0,-2.0,22.0,3.0,-1.0,5.0,1.0
1701634408.0432472,9.0,63.0,10.0,-12.0,0.0,3.0,0.0,3.0
1701634408.0432472,-9.0,-58.0,-8.0,-6.0,-15.0,0.0,8.0,-4.0
1701634408.0432472,-6.0,-3.0,-6.0,0.0,7.0,0.0,1.0,13.0
1701634408.0432472,9.0,70.0,12.0,0.0,-9.0,-2.0,-5.0,-13.0
1701634408.0635333,-20.0,-121.0,-26.0,-5.0,8.0,1.0,-1.0,-5.0
1701634408.0635333,-4.0,25.0,-7.0,-25.0,-11.0,0.0,-2.0,-5.0
1701634408.0635333,6.0,43.0,13.0,25.0,15.0,1.0,5.0,-5.0
1701634408.0635333,-3.0,-34.0,-13.0,2.0,-3.0,-3.0,-2.0,14.0
1701634408.0734615,19.0,106.0,14.0,-1.0,-3.0,-3.0,-7.0,-12.0
1701634408.0734615,-7.0,-72.0,14.0,-1.0,0.0,-1.0,-2.0,13.0
1701634408.0834227,-18.0,-63.0,-20.0,-19.0,-7.0,-1.0,0.0,-21.0
1701634408.0834227,3.0,23.0,10.0,0.0,-1.0,-1.0,16.0,28.0
1701634408.1232476,3.0,13.0,-2.0,-5.0,1.0,-3.0,-15.0,1.0
1701634408.1232476,6.0,10.0,-17.0,-12.0,-11.0,-1.0,-4.0,-14.0
1701634408.133247,3.0,34.0,21.0,17.0,11.0,-1.0,-25.0,-11.0
1701634408.133247,-6.0,-30.0,1.0,-3.0,2.0,-2.0,-3.0,15.0
1701634408.133247,-11.0,-16.0,-4.0,0.0,-3.0,-5.0,6.0,3.0
1701634408.133247,-2.0,10.0,5.0,5.0,6.0,11.0,11.0,8.0
1701634408.133247,11.0,13.0,9.0,4.0,-2.0,0.0,23.0,17.0
1701634408.133247,-8.0,-14.0,-6.0,-25.0,-11.0,-11.0,-22.0,-17.0
1701634408.133247,-3.0,-19.0,-12.0,-1.0,-3.0,2.0,17.0,5.0
1701634408.133247,-4.0,7.0,9.0,-10.0,-9.0,-8.0,-10.0,-4.0
1701634408.14354,2.0,4.0,-5.0,18.0,12.0,8.0,14.0,9.0
1701634408.14354,-6.0,-12.0,-3.0,6.0,-2.0,-14.0,-54.0,-33.0
1701634408.1632488,-8.0,-13.0,-9.0,-28.0,-7.0,7.0,21.0,-2.0
1701634408.1632488,-2.0,8.0,-1.0,10.0,-6.0,-16.0,-4.0,-2.0
1701634408.1632488,6.0,5.0,0.0,3.0,-1.0,31.0,54.0,31.0
1701634408.1632488,-5.0,-9.0,-10.0,-14.0,4.0,5.0,8.0,-22.0
1701634408.183574,-2.0,-6.0,-1.0,-7.0,-3.0,-10.0,-38.0,-11.0
1701634408.183574,1.0,12.0,4.0,14.0,0.0,-4.0,0.0,4.0
1701634408.183574,-1.0,-3.0,-3.0,-7.0,-3.0,-2.0,-7.0,-2.0
1701634408.183574,-1.0,-5.0,2.0,9.0,5.0,1.0,32.0,11.0
1701634408.201138,-2.0,-5.0,-10.0,-16.0,-9.0,4.0,-7.0,-4.0
1701634408.201138,-3.0,-1.0,-5.0,9.0,3.0,4.0,-4.0,7.0
1701634408.2102869,2.0,2.0,-3.0,-7.0,3.0,-6.0,-5.0,-2.0
1701634408.2102869,1.0,4.0,5.0,-17.0,-6.0,3.0,1.0,-6.0
1701634408.219402,-2.0,-6.0,24.0,26.0,4.0,-4.0,2.0,-2.0
1701634408.219402,-6.0,-2.0,-41.0,-11.0,-7.0,-4.0,-6.0,-17.0
1701634408.219402,25.0,12.0,-14.0,-4.0,-11.0,-10.0,-11.0,32.0
1701634408.219402,-22.0,-23.0,-2.0,-3.0,8.0,7.0,1.0,-42.0
1701634408.2394211,16.0,6.0,42.0,6.0,-2.0,-8.0,0.0,21.0
1701634408.2394211,23.0,15.0,43.0,2.0,3.0,8.0,17.0,70.0
1701634408.2394211,-36.0,-21.0,-62.0,5.0,6.0,33.0,28.0,-28.0
1701634408.2394211,24.0,-8.0,-17.0,-20.0,-22.0,-5.0,3.0,45.0
1701634408.2594063,-39.0,-32.0,-50.0,-14.0,6.0,23.0,3.0,-46.0
1701634408.2594063,30.0,-34.0,-27.0,-3.0,0.0,-26.0,-51.0,34.0
1701634408.2694032,-60.0,31.0,44.0,-7.0,-13.0,2.0,24.0,-71.0
1701634408.2694032,-1.0,-16.0,-14.0,5.0,4.0,-2.0,1.0,-4.0
1701634408.2797642,1.0,3.0,-41.0,-3.0,-4.0,-10.0,-5.0,-11.0
1701634408.2797642,12.0,11.0,21.0,15.0,7.0,22.0,34.0,49.0
1701634408.2797642,9.0,-16.0,-11.0,-11.0,-17.0,-38.0,-42.0,-11.0
1701634408.2797642,-14.0,22.0,40.0,12.0,2.0,-5.0,-29.0,-35.0
1701634408.2998128,-6.0,-9.0,-16.0,-5.0,-7.0,-22.0,-17.0,7.0
1701634408.2998128,-18.0,27.0,23.0,2.0,-3.0,-8.0,8.0,-36.0
1701634408.2998128,30.0,-9.0,12.0,1.0,0.0,2.0,-9.0,28.0
1701634408.3094094,-5.0,9.0,-8.0,0.0,-1.0,-13.0,-26.0,-8.0
1701634408.3197598,11.0,-19.0,-3.0,3.0,7.0,11.0,29.0,33.0
1701634408.3197598,-8.0,35.0,20.0,27.0,3.0,9.0,30.0,-20.0
1701634408.329406,-4.0,-7.0,0.0,-26.0,-10.0,-11.0,-83.0,-36.0
1701634408.329406,1.0,-27.0,-28.0,-55.0,1.0,10.0,44.0,28.0
1701634408.339766,-23.0,1.0,2.0,56.0,5.0,-19.0,-23.0,-9.0
1701634408.339766,-12.0,-34.0,-10.0,1.0,3.0,4.0,0.0,-35.0
1701634408.3494098,16.0,40.0,23.0,2.0,-1.0,-4.0,-16.0,10.0
1701634408.3494098,-5.0,23.0,-2.0,8.0,23.0,3.0,-3.0,2.0
1701634408.3594024,10.0,0.0,4.0,-39.0,-9.0,5.0,22.0,18.0
1701634408.3594024,-10.0,-7.0,-1.0,1.0,4.0,-3.0,3.0,-7.0
1701634408.3594024,5.0,-30.0,15.0,31.0,1.0,-2.0,18.0,20.0
1701634408.3594024,9.0,20.0,-11.0,1.0,-3.0,-5.0,-17.0,-10.0
1701634408.3894393,7.0,3.0,1.0,9.0,5.0,7.0,13.0,9.0
1701634408.3894393,-8.0,-10.0,3.0,-9.0,0.0,1.0,-6.0,-3.0
1701634408.3894393,-7.0,-1.0,-10.0,-25.0,-11.0,-11.0,-19.0,-19.0
1701634408.3894393,3.0,1.0,21.0,12.0,-1.0,7.0,25.0,15.0
1701634408.4098375,2.0,12.0,15.0,6.0,-7.0,-5.0,-3.0,9.0
1701634408.4098375,-3.0,0.0,-27.0,-20.0,-4.0,-6.0,-31.0,-27.0
1701634408.4194071,-3.0,-1.0,23.0,11.0,7.0,-4.0,10.0,10.0
1701634408.4194071,4.0,-36.0,-21.0,-1.0,-10.0,6.0,28.0,20.0
1701634408.4194071,4.0,31.0,26.0,1.0,4.0,-1.0,-23.0,-25.0
1701634408.4194071,16.0,-13.0,-11.0,-14.0,-2.0,4.0,-9.0,-13.0
1701634408.4194071,15.0,26.0,-27.0,4.0,6.0,-7.0,11.0,20.0
1701634408.4194071,-17.0,-23.0,58.0,17.0,6.0,23.0,11.0,-24.0
1701634408.4398372,2.0,-12.0,-39.0,-8.0,-2.0,-3.0,-6.0,13.0
1701634408.4398372,-6.0,-2.0,49.0,3.0,-1.0,-8.0,-17.0,-11.0
1701634408.4498346,1.0,14.0,-3.0,0.0,3.0,17.0,25.0,-4.0
1701634408.4498346,-21.0,-30.0,-67.0,-24.0,-22.0,-27.0,-26.0,11.0
1701634408.460192,1.0,19.0,109.0,21.0,8.0,6.0,-1.0,-27.0
1701634408.460192,10.0,1.0,-84.0,-14.0,-5.0,1.0,4.0,7.0
1701634408.460192,-3.0,-20.0,-22.0,1.0,0.0,-3.0,-1.0,16.0
1701634408.460192,8.0,27.0,42.0,20.0,4.0,6.0,0.0,-2.0
1701634408.4898357,-1.0,-15.0,-29.0,-14.0,-5.0,-2.0,3.0,6.0
1701634408.4898357,-1.0,30.0,48.0,11.0,8.0,2.0,7.0,0.0
1701634408.4898357,-4.0,-7.0,-11.0,-6.0,2.0,1.0,-2.0,-8.0
1701634408.4898357,8.0,14.0,57.0,-22.0,-17.0,-7.0,-8.0,-11.0
1701634408.509888,-12.0,-23.0,-71.0,6.0,9.0,-7.0,-10.0,-9.0
1701634408.509888,-1.0,12.0,1.0,14.0,-4.0,2.0,-15.0,-8.0
1701634408.509888,-6.0,-13.0,-4.0,-11.0,-9.0,-7.0,8.0,9.0
1701634408.509888,5.0,3.0,41.0,-4.0,-2.0,-1.0,7.0,14.0
1701634408.520157,-12.0,1.0,9.0,-21.0,-7.0,-1.0,1.0,-9.0
1701634408.520157,-3.0,-3.0,2.0,-8.0,-1.0,-3.0,12.0,3.0
1701634408.520157,-3.0,-19.0,-19.0,27.0,5.0,3.0,-24.0,-17.0
1701634408.520157,19.0,17.0,-9.0,11.0,8.0,-2.0,36.0,25.0
1701634408.5601842,-4.0,5.0,-4.0,-29.0,-15.0,-4.0,-43.0,-24.0
1701634408.5601842,-9.0,3.0,-14.0,7.0,5.0,5.0,2.0,7.0
1701634408.5601842,-7.0,-9.0,23.0,-20.0,5.0,0.0,6.0,-5.0
1701634408.5601842,-1.0,-8.0,-41.0,19.0,-4.0,-4.0,-7.0,-6.0
1701634408.5601842,5.0,13.0,-9.0,-7.0,-2.0,2.0,9.0,10.0
1701634408.5601842,-3.0,-4.0,7.0,-6.0,4.0,-5.0,-10.0,-9.0
1701634408.5601842,5.0,6.0,6.0,-5.0,3.0,5.0,37.0,22.0
1701634408.5601842,-6.0,-3.0,-9.0,17.0,4.0,-4.0,-56.0,-17.0
1701634408.5907583,1.0,-9.0,-9.0,-13.0,-7.0,-4.0,11.0,-4.0
1701634408.5907583,0.0,6.0,51.0,27.0,-1.0,1.0,-16.0,-4.0
1701634408.5907583,-1.0,-4.0,-44.0,-18.0,-6.0,-12.0,12.0,10.0
1701634408.5907583,-7.0,-8.0,-5.0,-3.0,-4.0,14.0,38.0,3.0
1701634408.6204488,-3.0,-18.0,-16.0,-9.0,-9.0,-13.0,-27.0,11.0
1701634408.6204488,6.0,19.0,-13.0,-6.0,0.0,6.0,9.0,1.0
1701634408.6204488,0.0,-5.0,14.0,7.0,3.0,-4.0,-14.0,-5.0
1701634408.6204488,-3.0,21.0,28.0,3.0,0.0,-7.0,-4.0,-8.0
1701634408.6204488,13.0,-14.0,-32.0,-1.0,-4.0,-5.0,20.0,41.0
1701634408.6204488,5.0,-4.0,24.0,-2.0,-1.0,2.0,18.0,-8.0
1701634408.6204488,19.0,6.0,-21.0,0.0,-2.0,-5.0,-28.0,0.0
1701634408.6204488,-11.0,-7.0,5.0,-7.0,-3.0,-11.0,-18.0,-30.0
1701634408.6408105,-2.0,3.0,-26.0,2.0,5.0,0.0,-15.0,-8.0
1701634408.6408105,-8.0,-17.0,15.0,11.0,6.0,8.0,38.0,17.0
1701634408.650836,-5.0,20.0,24.0,-1.0,-17.0,-8.0,-21.0,-17.0
1701634408.650836,8.0,-27.0,-47.0,-3.0,11.0,4.0,3.0,32.0
1701634408.6704426,9.0,28.0,43.0,2.0,-5.0,3.0,39.0,11.0
1701634408.6704426,-19.0,-5.0,-28.0,-9.0,-11.0,-12.0,-40.0,-33.0
1701634408.6704426,0.0,-14.0,15.0,4.0,5.0,0.0,-12.0,-12.0
1701634408.6704426,-1.0,-9.0,-8.0,-4.0,3.0,5.0,16.0,7.0
1701634408.680441,0.0,-17.0,-7.0,-6.0,-4.0,4.0,34.0,10.0
1701634408.680441,1.0,9.0,1.0,-12.0,-12.0,-13.0,-28.0,4.0
1701634408.680441,-1.0,7.0,38.0,5.0,5.0,1.0,-9.0,-15.0
1701634408.680441,-3.0,2.0,-40.0,-10.0,-10.0,-2.0,-8.0,-6.0
1701634408.7006223,0.0,-19.0,-23.0,-4.0,-4.0,-1.0,3.0,-5.0
1701634408.7006223,1.0,26.0,47.0,-6.0,-12.0,4.0,32.0,23.0
1701634408.7104435,-8.0,-16.0,-14.0,51.0,34.0,4.0,-29.0,-32.0
1701634408.7104435,1.0,-2.0,-16.0,-9.0,4.0,3.0,15.0,15.0
1701634408.7269027,-9.0,5.0,27.0,8.0,4.0,-2.0,-17.0,-27.0
1701634408.7269027,1.0,-2.0,-14.0,-20.0,-13.0,-4.0,-9.0,-4.0
1701634408.7269027,0.0,-7.0,-29.0,-18.0,-12.0,5.0,27.0,19.0
1701634408.7269027,0.0,17.0,2.0,5.0,2.0,-1.0,-7.0,-7.0
1701634408.7490442,9.0,21.0,21.0,9.0,2.0,-1.0,5.0,-3.0
1701634408.7490442,-17.0,-44.0,-44.0,-10.0,1.0,-3.0,-8.0,0.0
1701634408.7490442,-1.0,-8.0,14.0,-3.0,-7.0,-2.0,8.0,6.0
1701634408.7490442,1.0,12.0,3.0,4.0,1.0,2.0,-6.0,-9.0
1701634408.7611744,0.0,-1.0,4.0,-1.0,-6.0,-3.0,-14.0,3.0
1701634408.7611744,3.0,-3.0,-4.0,11.0,13.0,3.0,-6.0,-7.0
1701634408.7708807,-1.0,4.0,-12.0,-5.0,-5.0,0.0,18.0,12.0
1701634408.7708807,-1.0,0.0,20.0,-7.0,-9.0,-6.0,-8.0,-4.0
1701634408.7809083,-3.0,-2.0,7.0,10.0,9.0,7.0,-1.0,7.0
1701634408.7809083,6.0,-3.0,-23.0,-4.0,-5.0,-5.0,0.0,-22.0
1701634408.7809083,-13.0,-8.0,14.0,-7.0,-14.0,-11.0,-5.0,12.0
1701634408.7809083,-4.0,11.0,1.0,4.0,5.0,1.0,-9.0,-31.0
1701634408.801284,15.0,7.0,-10.0,4.0,10.0,9.0,-3.0,6.0
1701634408.801284,4.0,-10.0,2.0,5.0,7.0,1.0,2.0,-5.0
1701634408.801284,11.0,20.0,-6.0,-12.0,-9.0,-5.0,-1.0,11.0
1701634408.801284,-30.0,-43.0,7.0,10.0,-9.0,-6.0,-7.0,-20.0
1701634408.821227,-24.0,-6.0,-31.0,-14.0,-3.0,-7.0,-11.0,-10.0
1701634408.821227,-10.0,-19.0,23.0,-4.0,-4.0,1.0,-5.0,-11.0
1701634408.8308804,0.0,49.0,-23.0,-14.0,-6.0,-4.0,0.0,-36.0
1701634408.8308804,18.0,-2.0,11.0,13.0,2.0,1.0,2.0,40.0
1701634408.8409045,-27.0,-67.0,-30.0,-24.0,-6.0,-7.0,-7.0,-15.0
1701634408.8409045,-18.0,44.0,-12.0,7.0,-3.0,-4.0,2.0,5.0
1701634408.8409045,-7.0,-78.0,-36.0,-21.0,-7.0,2.0,3.0,6.0
1701634408.8409045,18.0,99.0,52.0,-1.0,-1.0,3.0,2.0,2.0
1701634408.8813632,-9.0,-10.0,-3.0,29.0,17.0,4.0,1.0,-14.0
1701634408.8813632,13.0,49.0,18.0,-9.0,0.0,0.0,4.0,-1.0
1701634408.8813632,-7.0,-14.0,22.0,9.0,0.0,1.0,-1.0,18.0
1701634408.8813632,1.0,-15.0,-21.0,4.0,9.0,3.0,0.0,-1.0
1701634408.8915656,15.0,12.0,29.0,-33.0,-17.0,-5.0,5.0,9.0
1701634408.8915656,-1.0,-17.0,5.0,8.0,0.0,-1.0,-10.0,-5.0
1701634408.8915656,2.0,14.0,-14.0,32.0,11.0,4.0,14.0,1.0
1701634408.8915656,2.0,-24.0,-5.0,-15.0,0.0,1.0,-4.0,4.0
1701634408.9015958,1.0,16.0,-5.0,17.0,1.0,-7.0,-23.0,-21.0
1701634408.9015958,4.0,-20.0,-4.0,-5.0,-1.0,3.0,12.0,17.0
1701634408.9015958,-13.0,1.0,9.0,-29.0,-14.0,-7.0,-5.0,-9.0
1701634408.9015958,-9.0,-3.0,-33.0,-6.0,2.0,-3.0,-2.0,2.0
1701634408.921366,9.0,12.0,24.0,8.0,-4.0,5.0,11.0,7.0
1701634408.921366,-2.0,-11.0,-20.0,2.0,-5.0,-2.0,-1.0,10.0
1701634408.921366,11.0,-7.0,22.0,21.0,10.0,5.0,15.0,15.0
1701634408.921366,6.0,-9.0,-14.0,-10.0,-1.0,1.0,8.0,3.0
1701634408.96136,-9.0,30.0,6.0,-25.0,-11.0,-9.0,-45.0,-34.0
1701634408.96136,1.0,-24.0,-8.0,25.0,6.0,-2.0,-1.0,6.0
1701634408.96136,5.0,11.0,1.0,-32.0,-6.0,1.0,6.0,8.0
1701634408.96136,-3.0,-2.0,3.0,17.0,4.0,0.0,-8.0,-21.0
1701634408.96136,9.0,-6.0,3.0,0.0,-3.0,1.0,14.0,13.0
1701634408.96136,-15.0,-10.0,-15.0,-8.0,-3.0,-5.0,-1.0,4.0
1701634408.96136,-6.0,12.0,11.0,8.0,10.0,1.0,-5.0,-12.0
1701634408.96136,-2.0,-9.0,-3.0,-2.0,-10.0,-3.0,-2.0,-2.0
1701634408.9814055,9.0,-1.0,5.0,13.0,12.0,7.0,10.0,30.0
1701634408.9814055,31.0,4.0,-4.0,-14.0,-6.0,-4.0,13.0,-17.0
1701634408.9814055,12.0,15.0,40.0,18.0,8.0,21.0,8.0,3.0
1701634408.9814055,-4.0,-12.0,-45.0,-14.0,-15.0,-23.0,-8.0,7.0
1701634409.002191,4.0,-14.0,-23.0,4.0,0.0,18.0,-3.0,-49.0
1701634409.002191,-20.0,23.0,23.0,0.0,5.0,-15.0,-16.0,-2.0
1701634409.002191,0.0,-15.0,21.0,4.0,-3.0,-28.0,5.0,18.0
1701634409.011818,19.0,-11.0,-5.0,2.0,0.0,24.0,-1.0,13.0
1701634409.0318143,28.0,20.0,-52.0,-14.0,-7.0,-20.0,-2.0,61.0
1701634409.0318143,-48.0,-8.0,40.0,3.0,0.0,11.0,6.0,-83.0
1701634409.0318143,-25.0,2.0,-5.0,2.0,-5.0,37.0,9.0,11.0
1701634409.0318143,23.0,-3.0,-17.0,-16.0,1.0,-39.0,-32.0,9.0
1701634409.0420818,-11.0,-15.0,-14.0,6.0,2.0,31.0,47.0,47.0
1701634409.0420818,2.0,-19.0,-24.0,-10.0,-12.0,-39.0,-31.0,-41.0
1701634409.0420818,-8.0,11.0,44.0,6.0,11.0,38.0,30.0,2.0
1701634409.0420818,-14.0,-16.0,-49.0,0.0,0.0,-13.0,-24.0,-31.0
1701634409.0918114,-1.0,22.0,52.0,7.0,-4.0,-13.0,-9.0,-9.0
1701634409.0918114,6.0,5.0,-17.0,-16.0,-9.0,7.0,-18.0,2.0
1701634409.0918114,-23.0,-17.0,-3.0,7.0,-5.0,-40.0,-32.0,-29.0
1701634409.0918114,2.0,0.0,12.0,1.0,-3.0,16.0,38.0,18.0
1701634409.0918114,-3.0,-8.0,30.0,7.0,-10.0,-1.0,-7.0,-38.0
1701634409.0918114,-6.0,-17.0,18.0,23.0,19.0,5.0,-6.0,40.0
1701634409.0918114,25.0,10.0,-37.0,-28.0,-6.0,-8.0,9.0,13.0
1701634409.0918114,-1.0,22.0,35.0,-32.0,-15.0,10.0,-24.0,-24.0
1701634409.1018112,-32.0,-13.0,-22.0,30.0,11.0,-6.0,-3.0,-6.0
1701634409.1018112,5.0,0.0,-5.0,-3.0,-5.0,4.0,24.0,35.0
1701634409.1018112,0.0,-16.0,-29.0,-29.0,-21.0,-6.0,0.0,-6.0
1701634409.1018112,9.0,18.0,60.0,29.0,6.0,-4.0,-23.0,-16.0
1701634409.1318145,-5.0,-11.0,-47.0,-10.0,15.0,-7.0,-9.0,-13.0
1701634409.1318145,13.0,2.0,-17.0,12.0,3.0,17.0,22.0,23.0
1701634409.1318145,4.0,11.0,-8.0,4.0,8.0,-9.0,-29.0,-20.0
1701634409.1318145,-12.0,-14.0,24.0,1.0,-3.0,-5.0,12.0,6.0
1701634409.1421502,11.0,3.0,21.0,-15.0,-13.0,-7.0,-10.0,-7.0
1701634409.1421502,1.0,4.0,-3.0,1.0,9.0,6.0,17.0,24.0
1701634409.1421502,2.0,-28.0,-50.0,-5.0,-6.0,-2.0,-6.0,-12.0
1701634409.1421502,-16.0,30.0,18.0,6.0,0.0,-7.0,-11.0,-10.0
1701634409.1718125,6.0,-3.0,6.0,5.0,5.0,-5.0,-3.0,-1.0
1701634409.1718125,1.0,-2.0,-6.0,-13.0,-1.0,4.0,9.0,7.0
1701634409.1718125,5.0,5.0,16.0,7.0,-5.0,8.0,10.0,-20.0
1701634409.1718125,-12.0,-4.0,8.0,6.0,12.0,4.0,15.0,26.0
1701634409.1820693,16.0,17.0,8.0,10.0,-1.0,-22.0,-6.0,-4.0
1701634409.1820693,-25.0,-22.0,-8.0,-16.0,-1.0,28.0,4.0,18.0
1701634409.1820693,-1.0,-5.0,-22.0,-4.0,-3.0,-12.0,-4.0,19.0
1701634409.1820693,-38.0,-22.0,-1.0,7.0,3.0,11.0,-8.0,-53.0
1701634409.2021081,18.0,41.0,10.0,-1.0,4.0,1.0,9.0,10.0
1701634409.2021081,-11.0,-7.0,46.0,7.0,-6.0,-4.0,-26.0,-28.0
1701634409.2021081,-29.0,4.0,47.0,14.0,10.0,15.0,16.0,13.0
1701634409.2021081,43.0,27.0,-45.0,-28.0,-13.0,3.0,23.0,60.0
1701634409.2218146,-7.0,-69.0,1.0,-15.0,-10.0,6.0,-16.0,-8.0
1701634409.2218146,60.0,17.0,-36.0,-10.0,-11.0,-3.0,-15.0,-12.0
1701634409.2218146,-31.0,19.0,21.0,-4.0,-1.0,-15.0,-4.0,-19.0
1701634409.2218146,1.0,-16.0,36.0,20.0,11.0,4.0,2.0,10.0
1701634409.242086,-22.0,2.0,9.0,-12.0,-5.0,-5.0,-7.0,-29.0
1701634409.242086,12.0,-24.0,-79.0,-2.0,5.0,0.0,20.0,22.0
1701634409.2518194,12.0,-24.0,49.0,5.0,-4.0,-4.0,-26.0,-4.0
1701634409.2518194,2.0,41.0,-22.0,-7.0,-12.0,-15.0,20.0,9.0
1701634409.2668872,-15.0,-11.0,5.0,13.0,4.0,3.0,-27.0,-23.0
1701634409.2668872,-22.0,-15.0,-16.0,-11.0,-1.0,-4.0,-14.0,-24.0
1701634409.267904,20.0,25.0,-3.0,1.0,-1.0,-3.0,19.0,15.0
1701634409.267904,-6.0,-14.0,-17.0,-19.0,-4.0,6.0,10.0,-6.0
1701634409.303635,-5.0,6.0,24.0,5.0,-2.0,7.0,28.0,30.0
1701634409.303635,7.0,-5.0,6.0,31.0,13.0,-8.0,-48.0,-28.0
1701634409.303635,1.0,11.0,-19.0,-16.0,-15.0,-12.0,-18.0,-10.0
1701634409.303635,16.0,-10.0,14.0,35.0,21.0,9.0,8.0,10.0
1701634409.303635,-10.0,-3.0,-34.0,-60.0,-24.0,3.0,22.0,7.0
1701634409.303635,-9.0,8.0,19.0,31.0,8.0,-7.0,16.0,13.0
1701634409.303635,5.0,-12.0,-17.0,18.0,6.0,3.0,17.0,17.0
1701634409.303635,-2.0,5.0,7.0,-3.0,1.0,-6.0,-36.0,-38.0
1701634409.323723,7.0,28.0,3.0,-13.0,-10.0,-4.0,7.0,7.0
1701634409.323723,-11.0,-2.0,-6.0,-23.0,-14.0,-9.0,-3.0,0.0
1701634409.323723,-2.0,-26.0,-15.0,-2.0,6.0,2.0,-2.0,-8.0
1701634409.323723,-2.0,-5.0,1.0,-6.0,-9.0,-2.0,9.0,9.0
1701634409.3437169,-2.0,-2.0,-1.0,12.0,1.0,-8.0,-10.0,1.0
1701634409.3437169,1.0,3.0,11.0,-10.0,-3.0,-2.0,1.0,-14.0
1701634409.3437169,11.0,15.0,-14.0,-1.0,4.0,3.0,-3.0,18.0
1701634409.3437169,-17.0,-11.0,41.0,9.0,1.0,-5.0,-9.0,-5.0
1701634409.3639972,8.0,0.0,-69.0,5.0,9.0,8.0,10.0,39.0
1701634409.3639972,-9.0,-4.0,-42.0,-12.0,-7.0,-3.0,8.0,-3.0
1701634409.3639972,-10.0,-2.0,14.0,-6.0,-11.0,-8.0,-17.0,-32.0
1701634409.3639972,-10.0,-26.0,-5.0,-3.0,0.0,-4.0,-9.0,-11.0
1701634409.3840988,11.0,-3.0,33.0,11.0,10.0,7.0,17.0,6.0
1701634409.3840988,1.0,14.0,19.0,-1.0,-13.0,-17.0,-11.0,9.0
1701634409.3840988,-18.0,-14.0,-56.0,-20.0,3.0,11.0,13.0,-11.0
1701634409.3840988,0.0,13.0,15.0,7.0,-5.0,3.0,3.0,7.0
1701634409.4037173,-4.0,1.0,-16.0,7.0,6.0,0.0,-3.0,-17.0
1701634409.4037173,-5.0,-24.0,-7.0,-5.0,-5.0,-7.0,-3.0,8.0
1701634409.4037173,17.0,14.0,19.0,-3.0,10.0,-5.0,-16.0,-1.0
1701634409.4037173,6.0,-13.0,-11.0,0.0,-10.0,-4.0,9.0,3.0
1701634409.4241216,-7.0,-8.0,29.0,-7.0,-6.0,-1.0,-4.0,-8.0
1701634409.4241216,6.0,18.0,13.0,5.0,-2.0,2.0,6.0,9.0
1701634409.4241216,-8.0,6.0,-7.0,3.0,-2.0,1.0,-2.0,13.0
1701634409.4241216,-4.0,8.0,2.0,-22.0,-8.0,-6.0,0.0,4.0
1701634409.453756,-1.0,-24.0,-14.0,39.0,16.0,-2.0,-12.0,-16.0
1701634409.453756,-2.0,-8.0,2.0,-38.0,-17.0,-9.0,2.0,1.0
1701634409.453756,4.0,-7.0,0.0,23.0,11.0,8.0,1.0,-1.0
1701634409.453756,13.0,29.0,-2.0,-16.0,-2.0,3.0,1.0,-8.0
1701634409.463715,-16.0,-4.0,14.0,1.0,-19.0,-8.0,-1.0,4.0
1701634409.463715,1.0,0.0,-1.0,22.0,27.0,9.0,2.0,-1.0
1701634409.463715,3.0,-6.0,-12.0,-31.0,-20.0,-6.0,5.0,7.0
1701634409.463715,-2.0,0.0,-10.0,28.0,14.0,0.0,-15.0,-9.0
1701634409.4840326,3.0,10.0,9.0,-21.0,-5.0,-1.0,-8.0,-8.0
1701634409.4840326,-1.0,3.0,0.0,-15.0,-12.0,-2.0,5.0,9.0
1701634409.4840326,3.0,-5.0,20.0,28.0,7.0,5.0,-6.0,-14.0
1701634409.4840326,-6.0,-13.0,-30.0,-19.0,-12.0,-3.0,8.0,-7.0
1701634409.5037153,3.0,20.0,14.0,8.0,7.0,4.0,3.0,20.0
1701634409.5037153,2.0,-9.0,10.0,-10.0,2.0,-4.0,-5.0,-3.0
1701634409.5037153,2.0,10.0,17.0,3.0,-1.0,-1.0,6.0,8.0
1701634409.5037153,-12.0,-28.0,-18.0,0.0,5.0,1.0,-3.0,-27.0
1701634409.5239992,3.0,12.0,-1.0,-4.0,-3.0,-5.0,-6.0,4.0
1701634409.5239992,2.0,6.0,5.0,-15.0,-12.0,-1.0,6.0,9.0
1701634409.5239992,-7.0,-13.0,4.0,16.0,10.0,-1.0,-5.0,15.0
1701634409.5239992,-1.0,0.0,-11.0,-5.0,-6.0,-3.0,1.0,0.0
1701634409.5737185,-1.0,0.0,1.0,-5.0,-6.0,1.0,-6.0,-19.0
1701634409.5737185,-10.0,16.0,13.0,10.0,9.0,4.0,3.0,-21.0
1701634409.5737185,7.0,-11.0,-3.0,-10.0,-5.0,-7.0,-8.0,6.0
1701634409.5737185,-6.0,5.0,-9.0,2.0,-7.0,-6.0,-9.0,-7.0
1701634409.5737185,10.0,1.0,2.0,5.0,9.0,2.0,2.0,-15.0
1701634409.5737185,-4.0,-23.0,-1.0,6.0,7.0,8.0,3.0,9.0
1701634409.5737185,-5.0,2.0,-16.0,-10.0,-6.0,-6.0,-5.0,-9.0
1701634409.5737185,10.0,10.0,2.0,-6.0,-7.0,-9.0,2.0,15.0
1701634409.5840845,0.0,-4.0,-10.0,-7.0,3.0,5.0,3.0,8.0
1701634409.5840845,8.0,15.0,9.0,6.0,-5.0,-5.0,2.0,31.0
1701634409.5840845,6.0,-20.0,-4.0,-6.0,-12.0,-7.0,-26.0,-29.0
1701634409.5840845,-3.0,-30.0,-14.0,-3.0,8.0,5.0,20.0,19.0
1701634409.6137156,-7.0,6.0,0.0,6.0,1.0,0.0,-4.0,-14.0
1701634409.6137156,7.0,-1.0,2.0,1.0,3.0,-2.0,-12.0,-5.0
1701634409.6137156,13.0,22.0,-7.0,-10.0,-5.0,-6.0,1.0,15.0
1701634409.6137156,-7.0,19.0,8.0,-7.0,-4.0,6.0,18.0,-2.0
1701634409.6240554,7.0,-29.0,15.0,20.0,1.0,4.0,12.0,41.0
1701634409.6240554,2.0,27.0,8.0,-13.0,-6.0,-1.0,-6.0,-11.0
1701634409.6240554,1.0,-5.0,-31.0,-1.0,0.0,-4.0,-5.0,-11.0
1701634409.6240554,-3.0,-11.0,6.0,17.0,5.0,4.0,2.0,-9.0
1701634409.6440787,-10.0,-13.0,-8.0,-15.0,-4.0,-7.0,13.0,8.0
1701634409.6440787,4.0,12.0,13.0,4.0,-7.0,1.0,-21.0,-5.0
1701634409.6440787,-9.0,-4.0,9.0,-10.0,-1.0,0.0,19.0,15.0
1701634409.6440787,5.0,-7.0,-29.0,-19.0,0.0,-1.0,-7.0,4.0
1701634409.6737149,-17.0,6.0,17.0,9.0,3.0,-4.0,-30.0,-34.0
1701634409.6737149,-8.0,-7.0,-7.0,5.0,-6.0,-3.0,17.0,7.0
1701634409.6737149,-7.0,0.0,23.0,-13.0,-10.0,0.0,-12.0,-19.0
1701634409.6737149,4.0,10.0,5.0,41.0,26.0,13.0,16.0,22.0
1701634409.683926,29.0,-9.0,-22.0,-23.0,-12.0,-6.0,1.0,4.0
1701634409.683926,-4.0,-12.0,-7.0,9.0,5.0,4.0,7.0,-12.0
1701634409.683926,0.0,-1.0,2.0,-2.0,-2.0,-4.0,-10.0,-15.0
1701634409.683926,4.0,12.0,13.0,-7.0,-9.0,-7.0,-10.0,2.0
1701634409.7040727,-11.0,-6.0,-1.0,-5.0,-8.0,-2.0,-4.0,-12.0
1701634409.7040727,3.0,26.0,-11.0,2.0,18.0,4.0,16.0,8.0
1701634409.7040727,-9.0,-1.0,-14.0,3.0,-2.0,0.0,-8.0,-14.0
1701634409.7040727,6.0,-13.0,-3.0,-3.0,-4.0,-7.0,-17.0,0.0
1701634409.7237487,-13.0,1.0,8.0,-13.0,-9.0,-7.0,-10.0,-15.0
1701634409.7237487,-25.0,-12.0,-25.0,2.0,2.0,6.0,10.0,-16.0
1701634409.7237487,2.0,16.0,2.0,6.0,8.0,6.0,6.0,4.0
1701634409.7237487,-8.0,-13.0,-2.0,-4.0,-7.0,-7.0,-11.0,-9.0
1701634409.743726,-13.0,-11.0,36.0,8.0,8.0,10.0,16.0,11.0
1701634409.743726,13.0,-7.0,-69.0,-9.0,-10.0,-7.0,-3.0,8.0
1701634409.743726,11.0,12.0,10.0,3.0,1.0,-6.0,-15.0,-18.0
1701634409.743726,12.0,2.0,1.0,-5.0,-2.0,-1.0,2.0,-7.0
1701634409.7640185,-27.0,9.0,7.0,4.0,4.0,6.0,5.0,-14.0
1701634409.7640185,0.0,-14.0,25.0,-4.0,-8.0,-7.0,-13.0,14.0
1701634409.7640185,-3.0,-30.0,-43.0,-11.0,-5.0,7.0,12.0,14.0
1701634409.7640185,-15.0,10.0,30.0,2.0,-1.0,-11.0,-16.0,-33.0
1701634409.8005362,8.0,17.0,-19.0,7.0,5.0,11.0,17.0,6.0
1701634409.8005362,16.0,-29.0,-35.0,-7.0,6.0,-13.0,-10.0,-9.0
1701634409.8005362,2.0,29.0,25.0,9.0,1.0,-11.0,8.0,-4.0
1701634409.8005362,19.0,-10.0,-19.0,-10.0,0.0,17.0,-1.0,21.0
1701634409.8058393,47.0,21.0,-15.0,-4.0,-2.0,-10.0,12.0,54.0
1701634409.8058393,-56.0,-1.0,26.0,-10.0,-6.0,25.0,-5.0,-7.0
1701634409.8068829,12.0,-20.0,-42.0,6.0,2.0,-12.0,-8.0,3.0
1701634409.8068829,-17.0,4.0,5.0,-10.0,-11.0,-6.0,13.0,-4.0
1701634409.8264315,-6.0,-5.0,50.0,12.0,-2.0,-30.0,-67.0,-34.0
1701634409.8264315,76.0,15.0,-9.0,4.0,-6.0,-7.0,-3.0,15.0
1701634409.8264315,-51.0,-32.0,-25.0,-5.0,14.0,-1.0,42.0,39.0
1701634409.8264315,17.0,-1.0,7.0,-4.0,1.0,57.0,30.0,-16.0
1701634409.856202,-9.0,-17.0,-23.0,3.0,3.0,3.0,3.0,-2.0
1701634409.856202,12.0,-1.0,79.0,-2.0,-14.0,-11.0,-15.0,-2.0
1701634409.856202,-11.0,35.0,14.0,2.0,-6.0,-19.0,-57.0,-59.0
1701634409.856202,10.0,-9.0,-19.0,9.0,10.0,-10.0,8.0,43.0
1701634409.8664904,21.0,3.0,-25.0,-6.0,-10.0,2.0,52.0,20.0
1701634409.8664904,-21.0,7.0,17.0,10.0,4.0,-2.0,-24.0,-21.0
1701634409.8664904,13.0,-16.0,-1.0,-8.0,0.0,13.0,6.0,0.0
1701634409.8664904,-22.0,-6.0,-36.0,-7.0,0.0,-13.0,3.0,11.0
1701634409.886645,4.0,5.0,-12.0,-8.0,0.0,13.0,12.0,4.0
1701634409.886645,-8.0,0.0,11.0,14.0,4.0,-12.0,-39.0,-31.0
1701634409.886645,1.0,-9.0,3.0,-3.0,-5.0,-1.0,22.0,12.0
1701634409.886645,-8.0,16.0,16.0,-4.0,-7.0,-1.0,-6.0,-17.0
1701634409.906704,-7.0,-27.0,-12.0,-4.0,3.0,-2.0,-20.0,-9.0
1701634409.906704,-12.0,24.0,-10.0,-11.0,-5.0,3.0,52.0,10.0
1701634409.906704,-6.0,32.0,40.0,13.0,10.0,8.0,-30.0,-1.0
1701634409.906704,-8.0,-11.0,-20.0,-2.0,-21.0,-14.0,-19.0,-26.0
1701634409.926661,-4.0,-3.0,-24.0,16.0,32.0,1.0,-10.0,-8.0
1701634409.926661,-3.0,-28.0,0.0,-9.0,-9.0,1.0,27.0,11.0
1701634409.926661,9.0,11.0,7.0,-1.0,-9.0,-1.0,-21.0,-16.0
1701634409.926661,19.0,14.0,21.0,-12.0,0.0,-6.0,-1.0,4.0
1701634409.9566638,-40.0,-12.0,-13.0,-14.0,-16.0,-3.0,-21.0,-26.0
1701634409.9566638,6.0,-5.0,-33.0,20.0,16.0,4.0,4.0,7.0
1701634409.9566638,-6.0,-8.0,29.0,-3.0,1.0,5.0,19.0,17.0
1701634409.9566638,-4.0,1.0,6.0,8.0,-5.0,-9.0,-7.0,-8.0
1701634409.9666932,-1.0,-13.0,-22.0,-21.0,-12.0,-8.0,-17.0,-5.0
1701634409.9666932,-5.0,2.0,-8.0,-18.0,-9.0,0.0,17.0,12.0
1701634409.9666932,9.0,-1.0,-9.0,8.0,14.0,8.0,6.0,15.0
1701634409.9666932,2.0,3.0,11.0,11.0,14.0,4.0,-18.0,-27.0
1701634409.9869454,11.0,4.0,8.0,6.0,-1.0,-9.0,3.0,28.0
1701634409.9869454,13.0,-5.0,9.0,-6.0,-6.0,5.0,-5.0,-1.0
1701634409.9869454,-8.0,2.0,10.0,-1.0,-16.0,-11.0,-21.0,-11.0
1701634409.9869454,-9.0,-9.0,-41.0,-7.0,3.0,4.0,12.0,-1.0
1701634410.006657,3.0,5.0,-16.0,-5.0,4.0,7.0,14.0,-29.0
1701634410.006657,-12.0,-3.0,50.0,16.0,2.0,-9.0,-18.0,14.0
1701634410.006657,0.0,-18.0,-13.0,-10.0,2.0,5.0,3.0,3.0
1701634410.006657,-7.0,-16.0,20.0,5.0,-1.0,-7.0,-2.0,1.0
1701634410.0269685,11.0,5.0,-3.0,-16.0,-15.0,-10.0,-8.0,-9.0
1701634410.0269685,-1.0,0.0,1.0,12.0,10.0,7.0,0.0,5.0
1701634410.0269685,1.0,8.0,21.0,-3.0,-1.0,-1.0,18.0,4.0
1701634410.0269685,-13.0,-4.0,3.0,-14.0,-10.0,-11.0,-17.0,14.0
1701634410.0466611,-3.0,-5.0,15.0,13.0,0.0,5.0,-6.0,-10.0
1701634410.0466611,-6.0,11.0,-11.0,-2.0,10.0,4.0,-4.0,-24.0
1701634410.0466611,-4.0,-8.0,10.0,-1.0,-2.0,4.0,17.0,10.0
1701634410.0466611,2.0,-3.0,-30.0,-1.0,-2.0,3.0,4.0,6.0
1701634410.0966556,-4.0,-7.0,27.0,-16.0,-5.0,4.0,18.0,6.0
1701634410.0966556,-11.0,-11.0,-31.0,-12.0,-17.0,-17.0,-38.0,-19.0
1701634410.0966556,2.0,-4.0,-20.0,1.0,-3.0,-2.0,0.0,-7.0
1701634410.0966556,-7.0,5.0,49.0,23.0,21.0,8.0,0.0,5.0
1701634410.0966556,-2.0,9.0,-13.0,-29.0,-12.0,-4.0,12.0,4.0
1701634410.0966556,-5.0,-17.0,-30.0,32.0,22.0,4.0,3.0,-3.0
1701634410.0966556,7.0,14.0,1.0,-20.0,-6.0,4.0,11.0,6.0
1701634410.0966556,0.0,-6.0,-8.0,-11.0,-16.0,-11.0,-21.0,-7.0
1701634410.0966556,4.0,11.0,14.0,24.0,15.0,7.0,9.0,14.0
1701634410.0966556,3.0,-19.0,16.0,-8.0,1.0,5.0,15.0,4.0
1701634410.1066582,-9.0,1.0,-15.0,0.0,-5.0,-9.0,-34.0,-29.0
1701634410.1066582,-2.0,6.0,-20.0,-31.0,-14.0,-5.0,10.0,16.0
1701634410.1266565,-1.0,1.0,12.0,42.0,16.0,5.0,-8.0,11.0
1701634410.1266565,2.0,17.0,-2.0,-27.0,-25.0,-5.0,14.0,7.0
1701634410.1266565,0.0,-20.0,-10.0,10.0,22.0,8.0,23.0,16.0
1701634410.1266565,-6.0,-4.0,-9.0,-8.0,-4.0,-11.0,-42.0,-29.0
1701634410.1469486,-3.0,-1.0,-11.0,-16.0,-14.0,-8.0,-2.0,0.0
1701634410.1469486,1.0,4.0,15.0,34.0,24.0,14.0,0.0,-3.0
1701634410.1469486,-8.0,-35.0,-22.0,-13.0,-12.0,-2.0,13.0,-11.0
1701634410.1469486,-1.0,7.0,18.0,4.0,-1.0,-5.0,3.0,13.0
1701634410.1866584,-2.0,9.0,-5.0,-10.0,-4.0,-5.0,-9.0,-7.0
1701634410.1866584,3.0,20.0,17.0,-6.0,-1.0,1.0,6.0,-4.0
1701634410.1866584,2.0,-8.0,-28.0,16.0,-3.0,-2.0,2.0,6.0
1701634410.1866584,-7.0,1.0,2.0,-9.0,5.0,9.0,7.0,-8.0
1701634410.1866584,-8.0,-2.0,3.0,8.0,-2.0,-8.0,-9.0,0.0
1701634410.1866584,-11.0,6.0,-7.0,-23.0,-6.0,-1.0,-1.0,-19.0
1701634410.1866584,13.0,-3.0,2.0,10.0,-2.0,-4.0,-23.0,20.0
1701634410.1866584,12.0,8.0,-1.0,11.0,-4.0,-1.0,15.0,-4.0
1701634410.2069945,-3.0,-20.0,-15.0,-7.0,4.0,10.0,21.0,-3.0
1701634410.2069945,5.0,-15.0,14.0,-8.0,-13.0,-1.0,11.0,0.0
1701634410.2069945,9.0,14.0,-5.0,-6.0,10.0,-6.0,-28.0,-11.0
1701634410.2069945,1.0,1.0,10.0,11.0,3.0,-2.0,-5.0,26.0
1701634410.226659,0.0,12.0,2.0,-8.0,-5.0,1.0,17.0,-15.0
1701634410.226659,9.0,-3.0,-8.0,0.0,-6.0,-8.0,-24.0,-19.0
1701634410.226659,-15.0,7.0,15.0,5.0,-4.0,6.0,14.0,2.0
1701634410.226659,-6.0,-8.0,-39.0,-7.0,0.0,1.0,17.0,5.0
1701634410.2470875,-5.0,-6.0,3.0,-1.0,3.0,-6.0,-21.0,-13.0
1701634410.2470875,-17.0,-14.0,20.0,2.0,-6.0,-3.0,2.0,10.0
1701634410.2470875,1.0,-3.0,-52.0,-33.0,-6.0,1.0,2.0,4.0
1701634410.2470875,1.0,31.0,42.0,41.0,17.0,2.0,4.0,-11.0
1701634410.2670834,0.0,1.0,-2.0,12.0,0.0,-4.0,-8.0,8.0
1701634410.2670834,4.0,-1.0,-13.0,-11.0,-3.0,0.0,17.0,9.0
1701634410.2670834,-3.0,-4.0,20.0,6.0,2.0,-6.0,-21.0,-14.0
1701634410.2670834,-4.0,-20.0,-30.0,-21.0,-12.0,-2.0,1.0,0.0
1701634410.296657,0.0,12.0,23.0,9.0,6.0,4.0,11.0,12.0
1701634410.296657,1.0,18.0,-7.0,2.0,1.0,1.0,-14.0,5.0
1701634410.296657,-15.0,-9.0,-26.0,-19.0,-7.0,-5.0,8.0,-10.0
1701634410.296657,9.0,-9.0,-7.0,-5.0,-1.0,-4.0,-5.0,19.0
1701634410.3066916,-3.0,2.0,34.0,20.0,0.0,-1.0,-8.0,-15.0
1701634410.3066916,-2.0,0.0,-10.0,-6.0,-6.0,-6.0,-5.0,-8.0
1701634410.3066916,0.0,20.0,41.0,15.0,6.0,6.0,2.0,-12.0
1701634410.3066916,-4.0,-19.0,-4.0,8.0,8.0,2.0,1.0,9.0
1701634410.3326921,19.0,-12.0,-86.0,-25.0,-12.0,-11.0,-12.0,1.0
1701634410.3326921,-3.0,3.0,4.0,-9.0,-5.0,2.0,0.0,-1.0
1701634410.3326921,-2.0,-7.0,4.0,8.0,-3.0,-8.0,0.0,-5.0
1701634410.3326921,-10.0,14.0,14.0,5.0,4.0,7.0,8.0,-15.0
1701634410.3504896,4.0,-12.0,28.0,3.0,3.0,6.0,-15.0,-3.0
1701634410.3504896,5.0,-4.0,-8.0,-10.0,-2.0,-7.0,6.0,17.0
1701634410.3504896,-13.0,-31.0,1.0,2.0,-5.0,3.0,5.0,5.0
1701634410.3504896,3.0,11.0,27.0,2.0,-8.0,-5.0,-1.0,-9.0
1701634410.360824,-10.0,5.0,-46.0,-12.0,2.0,-2.0,-3.0,-1.0
1701634410.360824,5.0,10.0,23.0,7.0,11.0,-2.0,-18.0,-4.0
1701634410.360824,1.0,-17.0,14.0,8.0,-2.0,6.0,2.0,-2.0
1701634410.360824,0.0,-9.0,-1.0,-6.0,1.0,-1.0,40.0,36.0
1701634410.3904939,-5.0,-4.0,24.0,23.0,-1.0,2.0,-44.0,-43.0
1701634410.3904939,4.0,13.0,-29.0,-6.0,8.0,1.0,5.0,11.0
1701634410.3904939,5.0,-2.0,11.0,1.0,0.0,-5.0,0.0,8.0
1701634410.3904939,-9.0,-9.0,-50.0,-17.0,-5.0,-3.0,-3.0,-16.0
1701634410.4108992,9.0,8.0,1.0,-6.0,-8.0,-6.0,0.0,12.0
1701634410.4108992,5.0,1.0,32.0,11.0,4.0,3.0,-6.0,-12.0
1701634410.4108992,-31.0,12.0,24.0,-20.0,-17.0,-7.0,-22.0,-13.0
1701634410.4108992,6.0,-5.0,-12.0,28.0,9.0,4.0,12.0,-5.0
1701634410.4208617,-9.0,3.0,5.0,-8.0,7.0,1.0,-20.0,-3.0
1701634410.4208617,4.0,-57.0,-45.0,-8.0,-1.0,3.0,7.0,6.0
1701634410.4208617,-1.0,25.0,22.0,10.0,-2.0,-6.0,12.0,-1.0
1701634410.4208617,-3.0,2.0,16.0,-40.0,-12.0,-5.0,-26.0,-12.0
1701634410.4504943,-16.0,-7.0,-21.0,9.0,0.0,1.0,16.0,-4.0
1701634410.4504943,2.0,10.0,2.0,7.0,-2.0,-2.0,-3.0,2.0
1701634410.4504943,9.0,9.0,-34.0,-8.0,-1.0,-1.0,2.0,6.0
1701634410.4504943,-5.0,5.0,20.0,-2.0,-3.0,-4.0,-3.0,-5.0
1701634410.4709072,7.0,8.0,19.0,-2.0,-3.0,-1.0,11.0,9.0
1701634410.4709072,-11.0,-18.0,-13.0,-4.0,-4.0,-2.0,4.0,-2.0
1701634410.4709072,10.0,15.0,-4.0,6.0,6.0,6.0,8.0,8.0
1701634410.4709072,-3.0,-12.0,-15.0,2.0,0.0,-4.0,-20.0,-16.0
1701634410.4804945,-3.0,-3.0,10.0,-3.0,0.0,-8.0,7.0,7.0
1701634410.4804945,0.0,5.0,-5.0,-2.0,-5.0,15.0,8.0,-1.0
1701634410.4804945,6.0,2.0,-5.0,0.0,-2.0,-5.0,-17.0,-19.0
1701634410.4804945,-1.0,0.0,7.0,3.0,0.0,4.0,18.0,4.0
1701634410.5104923,-4.0,6.0,8.0,-6.0,-2.0,2.0,6.0,9.0
1701634410.5104923,-15.0,-1.0,-11.0,1.0,-2.0,-14.0,-15.0,-34.0
1701634410.5104923,16.0,-27.0,10.0,0.0,-5.0,-9.0,-4.0,8.0
1701634410.5104923,10.0,22.0,5.0,-5.0,12.0,14.0,-6.0,15.0
1701634410.530888,-16.0,-13.0,-5.0,-3.0,-8.0,-6.0,11.0,-24.0
1701634410.530888,-13.0,4.0,15.0,-2.0,-3.0,-11.0,-10.0,23.0
1701634410.530888,12.0,9.0,-50.0,-1.0,-2.0,-7.0,6.0,11.0
1701634410.530888,-26.0,-13.0,12.0,15.0,5.0,10.0,0.0,-28.0
1701634410.5404925,-2.0,20.0,56.0,8.0,0.0,7.0,6.0,2.0
1701634410.5404925,3.0,5.0,-65.0,-19.0,2.0,-4.0,11.0,7.0
1701634410.5404925,-2.0,-9.0,26.0,8.0,-2.0,-11.0,-32.0,2.0
1701634410.5404925,6.0,-1.0,-40.0,-14.0,-5.0,10.0,17.0,3.0
1701634410.5707548,-6.0,-7.0,55.0,17.0,7.0,1.0,-13.0,6.0
1701634410.5707548,31.0,-12.0,-6.0,-6.0,-7.0,13.0,29.0,15.0
1701634410.5707548,-7.0,-3.0,-7.0,2.0,13.0,-5.0,2.0,-2.0
1701634410.5707548,22.0,-11.0,41.0,1.0,-8.0,-4.0,-31.0,-17.0
1701634410.5908089,-33.0,-12.0,-58.0,-21.0,-15.0,6.0,4.0,0.0
1701634410.5908089,10.0,28.0,17.0,16.0,18.0,17.0,15.0,26.0
1701634410.5908089,-12.0,-2.0,-23.0,-10.0,-4.0,7.0,2.0,-31.0
1701634410.5908089,-12.0,-24.0,-20.0,1.0,-1.0,-9.0,-13.0,1.0
1701634410.6004972,38.0,-6.0,17.0,0.0,-3.0,-38.0,-17.0,17.0
1701634410.6004972,-13.0,9.0,-16.0,-13.0,-7.0,4.0,10.0,-22.0
1701634410.6104975,-8.0,-3.0,56.0,5.0,-2.0,11.0,-8.0,-23.0
1701634410.6104975,5.0,22.0,3.0,8.0,0.0,-10.0,7.0,28.0
1701634410.630492,9.0,3.0,-13.0,-7.0,-5.0,-7.0,-7.0,-9.0
1701634410.630492,-12.0,-1.0,-26.0,10.0,7.0,1.0,1.0,-25.0
1701634410.630492,17.0,-7.0,4.0,-8.0,-3.0,-7.0,11.0,13.0
1701634410.630492,-7.0,-5.0,2.0,-8.0,-7.0,-12.0,-50.0,-23.0
1701634410.6509025,16.0,14.0,15.0,13.0,7.0,-8.0,2.0,22.0
1701634410.6509025,-21.0,-32.0,24.0,-2.0,2.0,29.0,10.0,-41.0
1701634410.6509025,13.0,28.0,-34.0,0.0,-7.0,3.0,13.0,49.0
1701634410.6509025,-3.0,10.0,-5.0,-5.0,1.0,-17.0,-6.0,-13.0
1701634410.6608791,2.0,-4.0,5.0,1.0,0.0,18.0,7.0,2.0
1701634410.6608791,-13.0,-22.0,-4.0,-4.0,-2.0,-21.0,-25.0,-5.0
1701634410.6608791,-2.0,19.0,16.0,3.0,-5.0,-4.0,-12.0,-7.0
1701634410.6608791,-11.0,-18.0,-26.0,-8.0,-1.0,3.0,18.0,2.0
1701634410.6908672,3.0,-1.0,-11.0,-6.0,-2.0,4.0,4.0,-10.0
1701634410.6908672,5.0,3.0,8.0,-5.0,-15.0,-10.0,28.0,38.0
1701634410.6908672,-4.0,-2.0,-13.0,-4.0,0.0,-2.0,-45.0,-40.0
1701634410.6908672,5.0,1.0,13.0,20.0,9.0,6.0,-4.0,-3.0
1701634410.7109144,-7.0,4.0,-19.0,-2.0,5.0,1.0,-1.0,-5.0
1701634410.7109144,10.0,5.0,8.0,-17.0,-13.0,-10.0,15.0,12.0
1701634410.7109144,-14.0,10.0,30.0,-1.0,-6.0,8.0,30.0,17.0
1701634410.7109144,13.0,19.0,-15.0,23.0,16.0,-6.0,-32.0,-15.0
1701634410.7208152,-2.0,5.0,-25.0,-17.0,2.0,6.0,17.0,4.0
1701634410.7208152,-8.0,-22.0,-9.0,10.0,1.0,-12.0,-57.0,-26.0
1701634410.7208152,7.0,15.0,11.0,-55.0,-25.0,-4.0,27.0,16.0
1701634410.7208152,-4.0,-11.0,16.0,49.0,0.0,6.0,45.0,31.0
1701634410.750548,11.0,-5.0,-22.0,-12.0,1.0,1.0,-39.0,-26.0
1701634410.750548,-8.0,18.0,14.0,-13.0,-4.0,-2.0,17.0,18.0
1701634410.750548,-12.0,-15.0,-2.0,25.0,13.0,-3.0,-20.0,-15.0
1701634410.750548,7.0,0.0,-2.0,-11.0,-4.0,0.0,8.0,10.0
1701634410.7708588,-8.0,-14.0,3.0,-10.0,-2.0,7.0,11.0,-1.0
1701634410.7708588,4.0,14.0,0.0,-5.0,-12.0,-12.0,-11.0,11.0
1701634410.7708588,-9.0,-18.0,-11.0,-3.0,3.0,2.0,1.0,-10.0
1701634410.7708588,-4.0,-2.0,-26.0,-18.0,-5.0,6.0,9.0,0.0
1701634410.7804947,2.0,-9.0,14.0,12.0,0.0,-5.0,8.0,3.0
1701634410.7804947,2.0,-5.0,2.0,-7.0,-4.0,-2.0,-28.0,-12.0
1701634410.7804947,-1.0,8.0,15.0,13.0,4.0,5.0,26.0,13.0
1701634410.7804947,0.0,-6.0,8.0,-9.0,3.0,-2.0,-18.0,-18.0
1701634410.810907,-12.0,-10.0,-18.0,-7.0,-2.0,10.0,10.0,7.0
1701634410.810907,1.0,4.0,25.0,12.0,-2.0,-11.0,7.0,-7.0
1701634410.810907,20.0,10.0,-2.0,8.0,3.0,4.0,-1.0,-30.0
1701634410.810907,15.0,-14.0,-5.0,-16.0,-6.0,-3.0,-1.0,17.0
1701634410.8308735,2.0,-34.0,-5.0,-11.0,-11.0,-40.0,-32.0,-9.0
1701634410.8308735,-21.0,54.0,16.0,19.0,24.0,60.0,43.0,-6.0
1701634410.8308735,2.0,3.0,-17.0,5.0,6.0,8.0,2.0,-2.0
1701634410.8308735,-2.0,-15.0,13.0,-21.0,-10.0,-8.0,-2.0,26.0
1701634410.8404922,3.0,13.0,9.0,0.0,-13.0,-7.0,-8.0,-22.0
1701634410.8404922,-4.0,-9.0,-20.0,-1.0,3.0,-18.0,-12.0,4.0
1701634410.8404922,33.0,12.0,48.0,19.0,6.0,-9.0,-5.0,16.0
1701634410.8404922,-19.0,5.0,-16.0,-3.0,2.0,8.0,18.0,16.0
1701634410.8717844,-14.0,-22.0,-7.0,-5.0,2.0,4.0,-5.0,-5.0
1701634410.8717844,8.0,-2.0,11.0,5.0,-12.0,-37.0,-51.0,-21.0
1701634410.8717844,-15.0,2.0,-8.0,0.0,5.0,50.0,43.0,63.0
1701634410.8717844,9.0,-13.0,-17.0,-19.0,-8.0,-15.0,-8.0,-22.0
1701634410.8925688,8.0,-5.0,-31.0,7.0,3.0,3.0,-3.0,24.0
1701634410.8925688,3.0,20.0,66.0,12.0,2.0,-10.0,-20.0,-9.0
1701634410.8925688,36.0,-6.0,-53.0,-8.0,-10.0,-8.0,11.0,15.0
1701634410.8925688,-43.0,-1.0,20.0,2.0,2.0,-1.0,4.0,8.0
1701634410.9022615,-11.0,3.0,12.0,0.0,-4.0,10.0,-6.0,-39.0
1701634410.9022615,-9.0,-13.0,-38.0,5.0,8.0,-24.0,5.0,10.0
1701634410.9122918,-12.0,-31.0,13.0,7.0,8.0,16.0,-10.0,-36.0
1701634410.9122918,-3.0,1.0,-4.0,3.0,-6.0,14.0,20.0,11.0
1701634410.9223652,7.0,55.0,51.0,8.0,4.0,-2.0,24.0,12.0
1701634410.9223652,8.0,-23.0,-15.0,-4.0,-2.0,-3.0,5.0,4.0
1701634410.9323168,-25.0,5.0,-7.0,-4.0,-3.0,-5.0,-12.0,-26.0
1701634410.9323168,5.0,-19.0,-31.0,-13.0,-2.0,-5.0,-15.0,-31.0
1701634410.9524903,-17.0,18.0,47.0,10.0,-4.0,-6.0,-7.0,10.0
1701634410.9524903,13.0,-16.0,-31.0,-2.0,-1.0,9.0,4.0,1.0
1701634410.9524903,12.0,2.0,20.0,-11.0,-1.0,-11.0,-17.0,-12.0
1701634410.9524903,-20.0,3.0,-40.0,-26.0,-26.0,-6.0,16.0,0.0
1701634410.962261,-7.0,-2.0,-42.0,39.0,33.0,11.0,13.0,4.0
1701634410.962261,4.0,5.0,12.0,6.0,6.0,-2.0,-8.0,-5.0
1701634410.9723597,-30.0,-17.0,-35.0,-17.0,-16.0,-27.0,-35.0,-23.0
1701634410.9723597,16.0,6.0,56.0,-8.0,5.0,12.0,23.0,24.0
1701634410.9923174,-9.0,-7.0,-48.0,-22.0,-15.0,-5.0,2.0,-2.0
1701634410.9923174,5.0,-21.0,-15.0,24.0,14.0,5.0,-18.0,-13.0
1701634410.9923174,-5.0,11.0,13.0,27.0,18.0,-4.0,13.0,8.0
1701634410.9923174,10.0,18.0,2.0,17.0,-6.0,-13.0,-31.0,-26.0
1701634411.0123515,6.0,5.0,21.0,-41.0,-20.0,7.0,25.0,27.0
1701634411.0123515,-6.0,-2.0,-8.0,-32.0,-13.0,5.0,19.0,8.0
1701634411.0123515,3.0,-7.0,9.0,9.0,3.0,-7.0,-14.0,-7.0
1701634411.0123515,-4.0,-1.0,-61.0,-11.0,7.0,-5.0,-13.0,-10.0
1701634411.0224402,8.0,-7.0,-1.0,13.0,0.0,-1.0,0.0,-5.0
1701634411.0224402,-5.0,5.0,14.0,-6.0,-5.0,3.0,-15.0,-3.0
1701634411.0325243,-4.0,-4.0,-16.0,-17.0,-8.0,-11.0,0.0,1.0
1701634411.0325243,0.0,8.0,47.0,7.0,-3.0,-4.0,1.0,1.0
1701634411.0426276,-1.0,-5.0,2.0,2.0,4.0,7.0,-7.0,-21.0
1701634411.0526521,-1.0,2.0,-32.0,-3.0,6.0,-3.0,2.0,-1.0
1701634411.0526521,-5.0,-17.0,-5.0,-11.0,-4.0,0.0,14.0,36.0
1701634411.0526521,24.0,13.0,31.0,16.0,5.0,-8.0,-23.0,-17.0
1701634411.0826612,-12.0,9.0,-23.0,-3.0,-6.0,11.0,15.0,-27.0
1701634411.0826612,3.0,1.0,17.0,0.0,-4.0,-6.0,1.0,14.0
1701634411.0926478,11.0,-12.0,-8.0,-8.0,-4.0,-6.0,5.0,7.0
1701634411.0926478,12.0,2.0,-14.0,9.0,6.0,7.0,-7.0,14.0
1701634411.1026444,-10.0,-23.0,-71.0,-26.0,-2.0,-5.0,-11.0,-1.0
1701634411.1026444,2.0,34.0,75.0,19.0,1.0,-5.0,6.0,3.0
1701634411.1026444,9.0,-15.0,-39.0,-17.0,-8.0,-3.0,-2.0,-16.0
1701634411.1026444,2.0,13.0,64.0,19.0,0.0,9.0,14.0,-25.0
1701634411.1026444,-8.0,-6.0,-45.0,0.0,4.0,6.0,-3.0,22.0
1701634411.1126504,-5.0,-9.0,-23.0,-19.0,-7.0,7.0,6.0,-9.0
1701634411.1126504,-3.0,15.0,38.0,10.0,10.0,-2.0,-5.0,2.0
1701634411.1126504,-6.0,17.0,-7.0,-3.0,-2.0,-2.0,1.0,0.0
1701634411.1326501,-1.0,-31.0,-15.0,4.0,1.0,-2.0,0.0,-11.0
1701634411.1326501,1.0,7.0,45.0,3.0,-1.0,2.0,-10.0,1.0
1701634411.1326501,-11.0,-9.0,-86.0,-13.0,-11.0,-3.0,1.0,2.0
1701634411.1326501,-9.0,-7.0,8.0,-1.0,0.0,0.0,3.0,-4.0
1701634411.142671,5.0,8.0,31.0,-2.0,-1.0,-2.0,-3.0,8.0
1701634411.142671,5.0,-11.0,-28.0,8.0,4.0,3.0,9.0,16.0
1701634411.1530178,-8.0,9.0,39.0,13.0,5.0,5.0,6.0,-9.0
1701634411.1530178,-5.0,-1.0,-15.0,-15.0,-7.0,-8.0,-25.0,-13.0
1701634411.1630335,0.0,-10.0,13.0,13.0,-2.0,-12.0,-19.0,-3.0
1701634411.1630335,-1.0,-9.0,-11.0,-15.0,-4.0,2.0,1.0,-2.0
1701634411.1630335,-4.0,2.0,1.0,1.0,-5.0,4.0,28.0,15.0
1701634411.1630335,-6.0,-4.0,-12.0,2.0,4.0,1.0,-26.0,-12.0
1701634411.1926453,11.0,9.0,35.0,19.0,9.0,0.0,18.0,16.0
1701634411.1926453,-2.0,-7.0,-18.0,-11.0,-1.0,4.0,7.0,-1.0
1701634411.1926453,-2.0,3.0,4.0,-1.0,0.0,0.0,-27.0,-10.0
1701634411.1926453,-6.0,-15.0,-3.0,-13.0,-4.0,-2.0,11.0,9.0
1701634411.2029703,3.0,4.0,10.0,-2.0,-1.0,-2.0,3.0,5.0
1701634411.2029703,-5.0,-11.0,-11.0,-4.0,-8.0,-15.0,-21.0,-15.0
1701634411.213013,-1.0,1.0,1.0,6.0,-2.0,3.0,15.0,-18.0
1701634411.213013,-2.0,-8.0,-4.0,-10.0,-14.0,-2.0,-12.0,9.0
1701634411.232645,9.0,22.0,35.0,5.0,26.0,9.0,2.0,-1.0
1701634411.232645,-5.0,-8.0,-32.0,-5.0,-6.0,-2.0,2.0,-2.0
1701634411.232645,-2.0,-4.0,16.0,2.0,-1.0,2.0,-10.0,-7.0
1701634411.232645,-3.0,-15.0,-6.0,4.0,-1.0,0.0,14.0,-3.0
1701634411.252917,0.0,3.0,16.0,-2.0,-11.0,-8.0,-16.0,-6.0
1701634411.252917,-4.0,5.0,5.0,-13.0,-8.0,-6.0,4.0,9.0
1701634411.252917,-18.0,-6.0,8.0,8.0,5.0,-3.0,-15.0,-15.0
1701634411.252917,3.0,-6.0,-22.0,-1.0,4.0,-4.0,1.0,16.0
1701634411.2726526,5.0,2.0,18.0,-11.0,-11.0,5.0,-9.0,19.0
1701634411.2726526,-4.0,-13.0,-41.0,-5.0,-4.0,3.0,3.0,-23.0
1701634411.2726526,-2.0,0.0,4.0,3.0,0.0,-2.0,7.0,12.0
1701634411.2726526,-3.0,4.0,7.0,6.0,9.0,8.0,20.0,0.0
1701634411.3126438,-5.0,5.0,-17.0,-9.0,-8.0,-11.0,-30.0,-10.0
1701634411.3126438,3.0,-5.0,-10.0,12.0,7.0,5.0,11.0,31.0
1701634411.3126438,2.0,9.0,2.0,-20.0,-13.0,-10.0,-12.0,-19.0
1701634411.3126438,-16.0,-6.0,5.0,-7.0,-1.0,-11.0,-30.0,-32.0
1701634411.3126438,1.0,-5.0,-5.0,3.0,-1.0,14.0,25.0,11.0
1701634411.3126438,4.0,5.0,11.0,20.0,14.0,14.0,10.0,3.0
1701634411.3126438,1.0,13.0,-16.0,2.0,13.0,-1.0,-27.0,-8.0
1701634411.3126438,-3.0,5.0,23.0,-17.0,-15.0,3.0,14.0,4.0
1701634411.333076,-3.0,-20.0,-3.0,25.0,6.0,-4.0,5.0,-5.0
1701634411.333076,2.0,3.0,-27.0,-18.0,-12.0,-8.0,12.0,2.0
1701634411.333076,-1.0,-2.0,5.0,-5.0,-13.0,-4.0,-12.0,-4.0
1701634411.333076,13.0,1.0,17.0,13.0,15.0,5.0,19.0,11.0
1701634411.3526452,-8.0,-5.0,-26.0,-3.0,2.0,-4.0,-18.0,-15.0
1701634411.3526452,7.0,8.0,19.0,2.0,3.0,5.0,-2.0,7.0
1701634411.3526452,-4.0,-3.0,-7.0,-13.0,-1.0,-4.0,3.0,0.0
1701634411.3526452,4.0,5.0,-8.0,0.0,-7.0,-5.0,10.0,24.0
1701634411.3824222,0.0,-6.0,1.0,-11.0,-9.0,-10.0,-41.0,-26.0
1701634411.3824222,-10.0,-16.0,10.0,24.0,11.0,2.0,6.0,0.0
1701634411.3834252,2.0,12.0,-20.0,-22.0,-9.0,-4.0,-12.0,0.0
1701634411.3834252,-4.0,-10.0,-4.0,8.0,5.0,3.0,12.0,2.0
1701634411.3982077,12.0,15.0,2.0,10.0,4.0,6.0,50.0,24.0
1701634411.3982077,-9.0,-9.0,6.0,-10.0,-11.0,-14.0,-49.0,-27.0
1701634411.3982077,-4.0,-6.0,12.0,4.0,2.0,2.0,8.0,4.0
1701634411.3982077,-1.0,4.0,-7.0,7.0,3.0,0.0,-6.0,-5.0
1701634411.4282057,5.0,3.0,-7.0,-12.0,-6.0,-3.0,-7.0,-16.0
1701634411.4282057,3.0,8.0,10.0,-18.0,-10.0,-16.0,-15.0,2.0
1701634411.4282057,-1.0,1.0,14.0,18.0,5.0,16.0,26.0,-3.0
1701634411.4282057,-12.0,-9.0,-10.0,-1.0,3.0,-5.0,-10.0,42.0
1701634411.4282057,-14.0,-7.0,-11.0,-8.0,-5.0,-3.0,-11.0,-9.0
1701634411.4282057,0.0,3.0,46.0,3.0,-14.0,-14.0,5.0,-2.0
1701634411.4282057,0.0,-15.0,-59.0,-2.0,15.0,13.0,15.0,16.0
1701634411.4282057,11.0,5.0,11.0,-5.0,1.0,7.0,-5.0,-10.0
1701634411.4684963,4.0,33.0,11.0,5.0,1.0,-7.0,-2.0,14.0
1701634411.4684963,0.0,-5.0,-28.0,-5.0,-3.0,-6.0,-4.0,18.0
1701634411.4684963,-24.0,-16.0,-20.0,-4.0,-3.0,-13.0,3.0,-3.0
1701634411.4684963,-9.0,-18.0,59.0,0.0,-8.0,4.0,-6.0,-20.0
1701634411.4684963,-17.0,1.0,-4.0,5.0,-1.0,-7.0,1.0,13.0
1701634411.4684963,13.0,-10.0,-14.0,3.0,2.0,12.0,2.0,-16.0
1701634411.4684963,-1.0,-7.0,-26.0,-1.0,-7.0,-17.0,-13.0,8.0
1701634411.4684963,41.0,24.0,-12.0,4.0,3.0,2.0,-2.0,5.0
1701634411.4889169,-17.0,-28.0,-19.0,-14.0,-3.0,2.0,5.0,-11.0
1701634411.4889169,-18.0,-4.0,1.0,6.0,4.0,5.0,13.0,20.0
1701634411.4889169,9.0,14.0,24.0,6.0,1.0,1.0,13.0,12.0
1701634411.4889169,20.0,-8.0,-26.0,-14.0,-13.0,-13.0,-45.0,-49.0
1701634411.5088253,2.0,-9.0,15.0,-6.0,-9.0,-4.0,3.0,-9.0
1701634411.5088253,3.0,30.0,28.0,-4.0,-5.0,5.0,7.0,-10.0
1701634411.5088253,1.0,-16.0,11.0,2.0,-4.0,-8.0,-30.0,2.0
1701634411.5088253,1.0,6.0,6.0,7.0,2.0,-3.0,6.0,25.0
1701634411.5384948,2.0,3.0,-15.0,-11.0,2.0,4.0,-1.0,-25.0
1701634411.5384948,-1.0,-13.0,-9.0,0.0,1.0,-6.0,-4.0,21.0
1701634411.5384948,9.0,-15.0,-2.0,-2.0,-1.0,8.0,15.0,1.0
1701634411.5384948,-13.0,28.0,32.0,7.0,0.0,5.0,5.0,-4.0
1701634411.5487607,-1.0,-30.0,0.0,-1.0,3.0,-2.0,-6.0,-3.0
1701634411.5487607,4.0,10.0,-5.0,4.0,0.0,-6.0,2.0,-6.0
1701634411.5487607,-13.0,22.0,13.0,1.0,-2.0,4.0,-12.0,-25.0
1701634411.5487607,-17.0,-18.0,1.0,-3.0,7.0,0.0,16.0,7.0
1701634411.5884938,10.0,2.0,-52.0,-18.0,-13.0,-8.0,-19.0,-16.0
1701634411.5884938,-1.0,13.0,10.0,4.0,4.0,4.0,2.0,-7.0
1701634411.5884938,-11.0,-28.0,7.0,5.0,-1.0,-8.0,-3.0,5.0
1701634411.5884938,-8.0,-3.0,-22.0,-12.0,-8.0,-8.0,10.0,-6.0
1701634411.5884938,1.0,11.0,12.0,9.0,10.0,7.0,19.0,15.0
1701634411.5884938,4.0,-2.0,0.0,-2.0,2.0,0.0,-32.0,-29.0
1701634411.5884938,11.0,18.0,20.0,-7.0,-6.0,5.0,13.0,-2.0
1701634411.5884938,-8.0,-25.0,-32.0,-4.0,-4.0,-8.0,-2.0,3.0
1701634411.608906,-4.0,0.0,20.0,5.0,-3.0,-7.0,-14.0,2.0
1701634411.608906,2.0,-1.0,9.0,7.0,4.0,0.0,-17.0,-3.0
1701634411.608906,-11.0,1.0,-31.0,-12.0,-2.0,-8.0,22.0,21.0
1701634411.608906,-6.0,-3.0,-11.0,-7.0,-10.0,-1.0,-16.0,-23.0
1701634411.6384954,10.0,9.0,47.0,3.0,-4.0,7.0,28.0,26.0
1701634411.6384954,-7.0,-8.0,-45.0,1.0,8.0,4.0,-11.0,-37.0
1701634411.6384954,9.0,-1.0,20.0,-15.0,-7.0,-1.0,34.0,40.0
1701634411.6384954,-2.0,-5.0,-12.0,22.0,2.0,-3.0,-31.0,-15.0
1701634411.6487334,-2.0,-4.0,7.0,6.0,11.0,-4.0,-4.0,6.0
1701634411.6487334,-6.0,-5.0,15.0,-3.0,-5.0,1.0,-16.0,-8.0
1701634411.6487334,9.0,7.0,-11.0,-2.0,1.0,0.0,-3.0,0.0
1701634411.6487334,-8.0,5.0,-7.0,-16.0,-10.0,-5.0,12.0,3.0
1701634411.6685107,4.0,11.0,8.0,2.0,-3.0,1.0,9.0,-5.0
1701634411.6685107,-3.0,-16.0,-9.0,-1.0,-5.0,-1.0,8.0,11.0
1701634411.6685107,4.0,-2.0,-3.0,2.0,1.0,-4.0,-14.0,-11.0
1701634411.6685107,-5.0,2.0,-5.0,1.0,7.0,17.0,9.0,-4.0
1701634411.6984942,6.0,5.0,10.0,6.0,1.0,1.0,36.0,23.0
1701634411.6984942,-12.0,-8.0,-10.0,-4.0,-1.0,0.0,-8.0,-9.0
1701634411.6984942,-1.0,8.0,36.0,0.0,-8.0,-10.0,-38.0,-20.0
1701634411.6984942,6.0,13.0,-22.0,-10.0,7.0,2.0,3.0,1.0
1701634411.7088816,-5.0,-7.0,9.0,8.0,-1.0,1.0,7.0,12.0
1701634411.7088816,6.0,3.0,7.0,-10.0,-6.0,1.0,20.0,21.0
1701634411.7088816,2.0,11.0,14.0,11.0,1.0,0.0,-11.0,-22.0
1701634411.7088816,-5.0,-7.0,-4.0,1.0,0.0,-4.0,1.0,-5.0
1701634411.728789,2.0,5.0,-16.0,-13.0,-4.0,-3.0,0.0,-2.0
1701634411.728789,0.0,-18.0,-29.0,-5.0,-2.0,-5.0,-4.0,22.0
1701634411.728789,4.0,-8.0,22.0,2.0,5.0,10.0,15.0,1.0
1701634411.728789,3.0,3.0,20.0,3.0,0.0,-3.0,2.0,2.0
1701634411.7484958,-4.0,0.0,9.0,3.0,1.0,-5.0,-29.0,-13.0
1701634411.7484958,-10.0,-26.0,-55.0,-13.0,-2.0,-1.0,4.0,7.0
1701634411.758502,-37.0,19.0,26.0,5.0,-5.0,0.0,0.0,-12.0
1701634411.758502,21.0,3.0,-7.0,10.0,5.0,3.0,4.0,5.0
1701634411.7687933,2.0,1.0,14.0,-2.0,-2.0,0.0,-10.0,5.0
1701634411.7687933,-3.0,14.0,29.0,5.0,-2.0,-7.0,-4.0,-20.0
1701634411.7687933,14.0,-20.0,-32.0,-1.0,6.0,10.0,4.0,15.0
1701634411.7687933,-8.0,-8.0,5.0,6.0,3.0,2.0,3.0,-2.0
1701634411.7888036,-18.0,-7.0,-43.0,-14.0,-8.0,-5.0,-12.0,-27.0
1701634411.7888036,18.0,31.0,10.0,2.0,0.0,4.0,15.0,15.0
1701634411.7888036,-1.0,-33.0,-30.0,-8.0,-6.0,-8.0,-8.0,0.0
1701634411.7888036,-10.0,-11.0,6.0,-1.0,-4.0,-3.0,-2.0,-3.0
1701634411.8184958,7.0,7.0,-4.0,0.0,-1.0,1.0,-1.0,2.0
1701634411.8184958,0.0,11.0,33.0,-1.0,-2.0,0.0,9.0,0.0
1701634411.8184958,2.0,0.0,-60.0,-2.0,0.0,1.0,-6.0,-2.0
1701634411.8184958,-2.0,5.0,-2.0,-1.0,4.0,2.0,6.0,2.0
1701634411.8285294,2.0,3.0,4.0,-4.0,-2.0,-2.0,7.0,6.0
1701634411.8285294,-10.0,-7.0,-5.0,-2.0,-8.0,-7.0,-18.0,-25.0
1701634411.8387935,-3.0,0.0,33.0,8.0,3.0,-5.0,-19.0,-10.0
1701634411.8387935,0.0,0.0,0.0,14.0,6.0,6.0,10.0,11.0
1701634411.8484964,8.0,-2.0,-19.0,-7.0,0.0,4.0,11.0,8.0
1701634411.8484964,-4.0,-3.0,6.0,1.0,3.0,2.0,3.0,5.0
1701634411.8484964,-1.0,4.0,0.0,-2.0,-3.0,-2.0,-8.0,-10.0
1701634411.8484964,-2.0,1.0,-6.0,-8.0,-7.0,-4.0,17.0,11.0
1701634411.8688078,0.0,-1.0,11.0,4.0,0.0,-5.0,-42.0,-26.0
1701634411.8688078,2.0,0.0,-1.0,-5.0,-4.0,1.0,13.0,7.0
1701634411.878834,1.0,-2.0,5.0,2.0,1.0,0.0,11.0,4.0
1701634411.878834,-5.0,8.0,1.0,-6.0,-8.0,-9.0,-9.0,-7.0
1701634411.8888636,-4.0,5.0,10.0,2.0,-2.0,4.0,2.0,-1.0
1701634411.8888636,-3.0,-17.0,-7.0,-2.0,14.0,6.0,-3.0,-6.0
1701634411.8987253,5.0,6.0,1.0,8.0,0.0,-1.0,10.0,7.0
1701634411.8987253,-1.0,-7.0,2.0,-7.0,-1.0,2.0,-3.0,-4.0
1701634411.9139023,-1.0,-10.0,-33.0,-13.0,-14.0,-9.0,3.0,1.0
1701634411.9139023,-2.0,7.0,24.0,2.0,-4.0,-7.0,-22.0,-11.0
1701634411.9139023,0.0,-15.0,-30.0,-4.0,4.0,3.0,9.0,3.0
1701634411.9149015,1.0,10.0,25.0,3.0,-3.0,-5.0,-7.0,-1.0
1701634411.9313214,-4.0,-8.0,-11.0,0.0,-2.0,-3.0,-10.0,-12.0
1701634411.9313214,-2.0,-9.0,-9.0,-5.0,13.0,4.0,-5.0,-14.0
1701634411.9313214,-1.0,0.0,38.0,7.0,4.0,1.0,7.0,1.0
1701634411.9313214,0.0,-7.0,-10.0,-5.0,0.0,-3.0,-12.0,3.0
1701634411.951328,-1.0,-5.0,-3.0,-5.0,-4.0,0.0,14.0,4.0
1701634411.951328,4.0,7.0,18.0,4.0,-4.0,1.0,4.0,2.0
1701634411.951328,4.0,1.0,7.0,11.0,-2.0,-2.0,10.0,14.0
1701634411.951328,-12.0,-11.0,-44.0,-19.0,-6.0,-10.0,-31.0,-38.0
1701634411.9815755,0.0,7.0,46.0,10.0,2.0,-2.0,-5.0,-5.0
1701634411.9815755,1.0,-5.0,-51.0,-10.0,-4.0,1.0,2.0,1.0
1701634411.9815755,0.0,-3.0,7.0,0.0,6.0,6.0,0.0,4.0
1701634411.9815755,3.0,8.0,-3.0,1.0,-4.0,3.0,19.0,13.0
1701634411.9916234,-3.0,-7.0,5.0,-2.0,2.0,1.0,-8.0,-6.0
1701634411.9916234,3.0,4.0,-4.0,3.0,-2.0,1.0,9.0,5.0
1701634411.9916234,-4.0,-1.0,11.0,-11.0,-12.0,-14.0,-24.0,-14.0
1701634411.9916234,-2.0,-7.0,-4.0,-2.0,-4.0,-4.0,4.0,5.0
1701634412.011578,-3.0,2.0,-4.0,-1.0,9.0,4.0,-15.0,-8.0
1701634412.011578,1.0,3.0,-5.0,6.0,12.0,8.0,18.0,6.0
1701634412.011578,3.0,6.0,-5.0,4.0,0.0,-1.0,-10.0,-3.0
1701634412.011578,-2.0,-3.0,11.0,0.0,1.0,-3.0,0.0,7.0
1701634412.0415733,1.0,-7.0,-18.0,-1.0,-6.0,-1.0,6.0,-3.0
1701634412.0415733,-3.0,-3.0,9.0,-6.0,-7.0,-2.0,8.0,9.0
1701634412.0415733,-1.0,1.0,-2.0,-8.0,4.0,-2.0,-10.0,-11.0
1701634412.0415733,3.0,6.0,4.0,5.0,3.0,0.0,-5.0,-3.0
1701634412.0518422,-2.0,-2.0,-4.0,-9.0,-1.0,4.0,7.0,-18.0
1701634412.0518422,7.0,5.0,15.0,4.0,-8.0,-5.0,7.0,26.0
1701634412.0518422,0.0,-2.0,-22.0,-6.0,-4.0,-1.0,8.0,7.0
1701634412.0518422,-2.0,0.0,2.0,6.0,5.0,8.0,2.0,-4.0
1701634412.0915742,3.0,3.0,21.0,4.0,4.0,-1.0,-7.0,-2.0
1701634412.0915742,-11.0,-6.0,11.0,-6.0,-12.0,-5.0,-2.0,-5.0
1701634412.0915742,2.0,6.0,12.0,5.0,4.0,-6.0,-12.0,-8.0
1701634412.0915742,2.0,3.0,-10.0,-7.0,-5.0,-3.0,-2.0,3.0
1701634412.0915742,-2.0,-9.0,-22.0,3.0,5.0,7.0,42.0,31.0
1701634412.0915742,-6.0,-6.0,13.0,-2.0,-6.0,-5.0,-31.0,-24.0
1701634412.0915742,-1.0,0.0,-8.0,-4.0,-3.0,-4.0,1.0,14.0
1701634412.0915742,-3.0,2.0,25.0,4.0,5.0,0.0,-8.0,-20.0
1701634412.1119943,3.0,-3.0,-31.0,-22.0,-8.0,-9.0,-11.0,-1.0
1701634412.1119943,5.0,6.0,7.0,16.0,4.0,5.0,14.0,2.0
1701634412.1119943,-3.0,-1.0,-11.0,-4.0,-4.0,-3.0,3.0,-6.0
1701634412.1119943,0.0,-17.0,-10.0,2.0,1.0,1.0,5.0,4.0
1701634412.1315749,0.0,35.0,77.0,16.0,2.0,-2.0,-4.0,8.0
1701634412.1315749,-3.0,-17.0,-49.0,-14.0,-2.0,-4.0,-9.0,-7.0
1701634412.1315749,-2.0,8.0,9.0,-1.0,-4.0,-1.0,-2.0,-8.0
1701634412.1315749,-4.0,-14.0,-7.0,-3.0,-3.0,-5.0,0.0,1.0
1701634412.1519904,3.0,-5.0,-10.0,-4.0,-7.0,-2.0,-2.0,4.0
1701634412.1519904,-3.0,3.0,8.0,-4.0,-7.0,-2.0,7.0,-10.0
1701634412.1618867,1.0,0.0,-22.0,-4.0,-2.0,1.0,-8.0,9.0
1701634412.1618867,4.0,8.0,9.0,-10.0,2.0,-3.0,11.0,18.0
1701634412.1719925,-6.0,-7.0,9.0,20.0,4.0,2.0,-25.0,-22.0
1701634412.1719925,1.0,3.0,-10.0,-2.0,6.0,-1.0,-1.0,2.0
1701634412.1719925,-1.0,-11.0,5.0,-4.0,-8.0,-1.0,9.0,4.0
1701634412.1719925,1.0,9.0,8.0,12.0,3.0,5.0,7.0,-1.0
1701634412.2015738,-8.0,-17.0,-63.0,-26.0,-8.0,-6.0,7.0,11.0
1701634412.2015738,1.0,-9.0,18.0,3.0,-1.0,-8.0,-14.0,-20.0
1701634412.2015738,1.0,10.0,5.0,-16.0,-6.0,-6.0,-20.0,-12.0
1701634412.2015738,-6.0,19.0,14.0,26.0,12.0,6.0,-11.0,-3.0
1701634412.211839,5.0,-2.0,4.0,8.0,14.0,7.0,5.0,2.0
1701634412.211839,1.0,0.0,-8.0,-1.0,1.0,5.0,15.0,10.0
1701634412.211839,0.0,-1.0,18.0,4.0,-10.0,-4.0,11.0,1.0
1701634412.211839,5.0,-7.0,-2.0,11.0,1.0,-2.0,-11.0,-9.0
1701634412.2415748,-4.0,-10.0,-20.0,-3.0,2.0,0.0,2.0,1.0
1701634412.2415748,-4.0,5.0,11.0,12.0,3.0,0.0,4.0,5.0
1701634412.2415748,3.0,4.0,14.0,-2.0,-2.0,3.0,0.0,-5.0
1701634412.2415748,-6.0,-12.0,-20.0,-16.0,-2.0,-2.0,6.0,5.0
1701634412.2518208,-5.0,-7.0,-6.0,5.0,-3.0,-5.0,-20.0,-10.0
1701634412.2518208,3.0,3.0,12.0,-5.0,4.0,5.0,6.0,-1.0
1701634412.2615795,-3.0,7.0,0.0,-1.0,-7.0,-7.0,-7.0,3.0
1701634412.2615795,-1.0,-7.0,-10.0,-16.0,-14.0,-11.0,-4.0,-7.0
1701634412.2718852,2.0,-5.0,22.0,2.0,6.0,11.0,20.0,11.0
1701634412.2718852,-1.0,2.0,-2.0,-6.0,-2.0,-3.0,-10.0,-12.0
1701634412.2718852,1.0,-2.0,-3.0,5.0,3.0,3.0,7.0,1.0
1701634412.2718852,-2.0,3.0,-10.0,-6.0,-5.0,-5.0,3.0,1.0
1701634412.3115764,0.0,-1.0,7.0,-4.0,-5.0,-7.0,-10.0,-5.0
1701634412.3115764,1.0,11.0,1.0,2.0,-2.0,0.0,1.0,5.0
1701634412.3115764,-1.0,-15.0,-5.0,5.0,10.0,4.0,7.0,-2.0
1701634412.3115764,0.0,13.0,10.0,0.0,-3.0,-3.0,-7.0,-4.0
1701634412.3115764,-1.0,8.0,19.0,0.0,-5.0,-1.0,1.0,-1.0
1701634412.3115764,4.0,-10.0,2.0,2.0,-1.0,2.0,-1.0,3.0
1701634412.3115764,-10.0,7.0,-44.0,-27.0,-14.0,-7.0,-7.0,-9.0
1701634412.3115764,0.0,-17.0,14.0,5.0,6.0,4.0,-2.0,-1.0
1701634412.331863,0.0,6.0,13.0,-1.0,0.0,1.0,4.0,1.0
1701634412.331863,0.0,1.0,9.0,-2.0,7.0,-4.0,-4.0,3.0
1701634412.331863,1.0,-3.0,3.0,14.0,7.0,4.0,-1.0,-2.0
1701634412.331863,-4.0,-10.0,-15.0,-17.0,-22.0,-10.0,-5.0,-4.0
1701634412.371575,-1.0,-3.0,-12.0,1.0,3.0,-1.0,1.0,1.0
1701634412.371575,0.0,5.0,1.0,9.0,3.0,0.0,-3.0,2.0
1701634412.371575,-3.0,-9.0,-1.0,-1.0,-1.0,-1.0,7.0,8.0
1701634412.371575,-2.0,-5.0,-13.0,-6.0,-3.0,-2.0,-6.0,-7.0
1701634412.371575,-1.0,5.0,0.0,-3.0,-4.0,-7.0,-5.0,0.0
1701634412.371575,-3.0,0.0,-12.0,-22.0,-12.0,-8.0,-8.0,-5.0
1701634412.371575,-1.0,0.0,20.0,25.0,14.0,7.0,4.0,-6.0
1701634412.371575,1.0,10.0,-16.0,-1.0,2.0,2.0,6.0,-10.0
1701634412.3918557,-2.0,-4.0,-12.0,-7.0,-7.0,-5.0,-2.0,9.0
1701634412.3918557,-1.0,7.0,-6.0,3.0,-2.0,-1.0,-1.0,-8.0
1701634412.3918557,-7.0,-27.0,-2.0,-7.0,-4.0,2.0,0.0,-7.0
1701634412.3918557,9.0,-9.0,7.0,3.0,12.0,2.0,-1.0,4.0
1701634412.4115753,7.0,27.0,12.0,8.0,-3.0,-3.0,-2.0,-3.0
1701634412.4115753,-9.0,-8.0,-21.0,-4.0,0.0,1.0,2.0,3.0
1701634412.4115753,11.0,20.0,36.0,2.0,-2.0,-6.0,-7.0,-3.0
1701634412.4115753,-6.0,-12.0,-18.0,-9.0,-6.0,-2.0,-5.0,-2.0
1701634412.4400122,-8.0,-13.0,1.0,-6.0,-4.0,-3.0,1.0,10.0
1701634412.4410346,7.0,-18.0,-7.0,-2.0,-5.0,-2.0,-5.0,-13.0
1701634412.4410346,-4.0,26.0,27.0,3.0,6.0,-2.0,-4.0,-3.0
1701634412.4410346,2.0,-6.0,-43.0,-1.0,2.0,6.0,3.0,4.0
1701634412.4546304,-5.0,-29.0,-11.0,-5.0,-1.0,5.0,25.0,25.0
1701634412.4546304,-13.0,-9.0,-5.0,-10.0,-8.0,-12.0,-34.0,-26.0
1701634412.4546304,6.0,30.0,-13.0,-1.0,0.0,-7.0,-19.0,-3.0
1701634412.4546304,10.0,7.0,26.0,-4.0,-5.0,-1.0,-10.0,9.0
1701634412.4748394,-6.0,-5.0,0.0,2.0,4.0,6.0,7.0,-13.0
1701634412.4748394,5.0,-13.0,10.0,13.0,4.0,6.0,19.0,27.0
1701634412.4748394,-6.0,-10.0,-20.0,-17.0,-9.0,-4.0,0.0,-8.0
1701634412.4748394,-3.0,17.0,1.0,-9.0,-14.0,-11.0,-4.0,-1.0
1701634412.4951186,8.0,8.0,-4.0,6.0,4.0,-2.0,-9.0,5.0
1701634412.4951186,0.0,6.0,11.0,-1.0,7.0,3.0,21.0,21.0
1701634412.4951186,4.0,-7.0,3.0,14.0,9.0,6.0,-4.0,-3.0
1701634412.4951186,3.0,-18.0,-3.0,-3.0,-2.0,-2.0,7.0,5.0
1701634412.5051599,-2.0,11.0,-4.0,-5.0,-2.0,-3.0,-20.0,-16.0
1701634412.5051599,6.0,11.0,1.0,2.0,-6.0,-6.0,-15.0,-8.0
1701634412.5151823,-4.0,-18.0,-10.0,-2.0,-5.0,1.0,12.0,11.0
1701634412.5151823,-2.0,-2.0,2.0,-2.0,-3.0,1.0,4.0,6.0
1701634412.5451763,-3.0,-12.0,-2.0,-4.0,-3.0,-3.0,-9.0,-12.0
1701634412.5451763,-1.0,24.0,6.0,8.0,-3.0,-2.0,4.0,0.0
1701634412.5451763,-3.0,-19.0,-17.0,-12.0,0.0,4.0,4.0,2.0
1701634412.5451763,-8.0,-20.0,-4.0,5.0,2.0,1.0,1.0,-3.0
1701634412.5554194,3.0,28.0,10.0,-2.0,-3.0,-6.0,-8.0,-10.0
1701634412.5554194,2.0,-25.0,-1.0,-4.0,0.0,2.0,2.0,2.0
1701634412.5554194,0.0,5.0,4.0,4.0,-2.0,3.0,8.0,3.0
1701634412.5554194,-12.0,8.0,4.0,-4.0,2.0,-5.0,-9.0,-12.0
1701634412.5653806,-2.0,-8.0,-2.0,-1.0,-2.0,-1.0,1.0,-3.0
1701634412.5653806,-1.0,-3.0,-2.0,-3.0,-3.0,1.0,26.0,12.0
1701634412.5751843,-5.0,-24.0,-17.0,-3.0,4.0,-2.0,-24.0,-9.0
1701634412.5751843,6.0,8.0,10.0,-1.0,0.0,-2.0,-11.0,-12.0
1701634412.595178,-4.0,8.0,-5.0,1.0,-2.0,0.0,5.0,0.0
1701634412.595178,-6.0,-15.0,-6.0,-2.0,-1.0,0.0,-1.0,-6.0
1701634412.595178,1.0,16.0,13.0,-4.0,-3.0,-2.0,1.0,5.0
1701634412.595178,-3.0,3.0,-1.0,7.0,4.0,2.0,1.0,-1.0
1701634412.6154356,4.0,12.0,7.0,2.0,4.0,3.0,-4.0,-3.0
1701634412.6154356,-4.0,-16.0,-19.0,-9.0,-4.0,-2.0,-3.0,-1.0
1701634412.6154356,-11.0,-38.0,-28.0,-7.0,-13.0,-8.0,6.0,-1.0
1701634412.6154356,-5.0,17.0,55.0,14.0,7.0,6.0,1.0,-4.0
1701634412.625371,-3.0,-31.0,-66.0,-8.0,3.0,0.0,-6.0,1.0
1701634412.625371,1.0,23.0,16.0,2.0,-3.0,-3.0,-8.0,-7.0
1701634412.635184,9.0,2.0,22.0,1.0,1.0,0.0,4.0,10.0
1701634412.635184,9.0,-26.0,-10.0,-13.0,-12.0,-10.0,-11.0,-31.0
1701634412.6651762,33.0,32.0,-18.0,1.0,-3.0,4.0,7.0,21.0
1701634412.6651762,-45.0,-14.0,-36.0,-11.0,3.0,-8.0,-24.0,-25.0
1701634412.6651762,12.0,17.0,17.0,20.0,9.0,6.0,6.0,-20.0
1701634412.6651762,-14.0,-4.0,39.0,-3.0,-2.0,-2.0,3.0,28.0
1701634412.6755216,26.0,16.0,-1.0,7.0,-4.0,-16.0,-12.0,-32.0
1701634412.6755216,43.0,-4.0,2.0,-20.0,-18.0,-13.0,-9.0,45.0
1701634412.6755216,-8.0,7.0,21.0,-6.0,-10.0,6.0,8.0,1.0
1701634412.6755216,8.0,24.0,-33.0,8.0,8.0,0.0,6.0,30.0
1701634412.6951783,-73.0,-62.0,-23.0,-9.0,3.0,9.0,33.0,-33.0
1701634412.6951783,1.0,19.0,26.0,3.0,-7.0,2.0,-35.0,-26.0
1701634412.6951783,-8.0,-5.0,-46.0,-7.0,11.0,-18.0,-30.0,-13.0
1701634412.6951783,-5.0,-23.0,9.0,13.0,-3.0,5.0,10.0,7.0
1701634412.7154489,14.0,-9.0,-11.0,-27.0,-10.0,-1.0,3.0,59.0
1701634412.7154489,2.0,49.0,41.0,20.0,7.0,-9.0,12.0,-14.0
1701634412.7154489,-17.0,-10.0,-6.0,-1.0,9.0,21.0,2.0,-33.0
1701634412.7154489,-15.0,-16.0,-34.0,-5.0,-7.0,-11.0,-24.0,13.0
1701634412.7354448,15.0,13.0,35.0,9.0,-5.0,-2.0,16.0,11.0
1701634412.7354448,-13.0,-30.0,-33.0,-9.0,-2.0,-23.0,-21.0,-5.0
1701634412.7354448,24.0,20.0,-4.0,7.0,5.0,4.0,14.0,28.0
1701634412.7354448,-11.0,-15.0,-51.0,-21.0,-4.0,3.0,-15.0,-36.0
1701634412.765178,-5.0,-10.0,23.0,8.0,0.0,7.0,27.0,9.0
1701634412.765178,5.0,0.0,7.0,-5.0,-3.0,5.0,-10.0,1.0
1701634412.765178,-1.0,-16.0,-15.0,-20.0,-14.0,-17.0,-32.0,2.0
1701634412.765178,0.0,27.0,-4.0,18.0,5.0,7.0,36.0,11.0
1701634412.775436,-20.0,-4.0,16.0,17.0,11.0,-4.0,-16.0,-13.0
1701634412.775436,-1.0,-3.0,-29.0,0.0,-1.0,0.0,-4.0,-20.0
1701634412.775436,-5.0,-18.0,22.0,-12.0,-6.0,4.0,24.0,22.0
1701634412.775436,37.0,49.0,6.0,5.0,1.0,-4.0,-3.0,-7.0
1701634412.7955468,-16.0,-22.0,9.0,-21.0,-17.0,-8.0,-21.0,-23.0
1701634412.7955468,0.0,1.0,-25.0,8.0,21.0,10.0,12.0,12.0
1701634412.7955468,-4.0,6.0,49.0,12.0,-3.0,-4.0,-20.0,-16.0
1701634412.7955468,-3.0,-27.0,-74.0,-34.0,-11.0,-6.0,3.0,9.0
1701634412.815213,10.0,23.0,10.0,39.0,8.0,6.0,3.0,3.0
1701634412.815213,-6.0,-19.0,-9.0,-6.0,-1.0,4.0,10.0,3.0
1701634412.815213,-7.0,-1.0,-14.0,-6.0,-3.0,-5.0,1.0,3.0
1701634412.815213,6.0,9.0,35.0,6.0,7.0,7.0,14.0,-1.0
1701634412.8351803,1.0,-1.0,-5.0,-19.0,-7.0,-8.0,-18.0,-6.0
1701634412.8351803,-6.0,-1.0,2.0,-6.0,-10.0,2.0,3.0,-2.0
1701634412.8351803,5.0,3.0,-12.0,8.0,2.0,-2.0,9.0,2.0
1701634412.8351803,0.0,0.0,19.0,-4.0,-5.0,0.0,-7.0,-4.0
1701634412.8555214,-8.0,-6.0,-1.0,-7.0,1.0,-2.0,-14.0,-12.0
1701634412.8555214,12.0,18.0,18.0,13.0,11.0,10.0,14.0,11.0
1701634412.8555214,0.0,7.0,-8.0,6.0,11.0,4.0,8.0,2.0
1701634412.8555214,-10.0,-28.0,13.0,1.0,-1.0,1.0,-1.0,-3.0
1701634412.8654592,7.0,51.0,12.0,-2.0,-8.0,-6.0,-8.0,-2.0
1701634412.8654592,-2.0,-10.0,33.0,1.0,-4.0,-1.0,9.0,-1.0
1701634412.8851798,1.0,3.0,-61.0,-10.0,-6.0,-4.0,-1.0,3.0
1701634412.8851798,-12.0,-5.0,3.0,-6.0,-5.0,-4.0,-4.0,6.0
1701634412.895491,9.0,-17.0,-23.0,-25.0,-14.0,-3.0,-5.0,-20.0
1701634412.895491,-3.0,2.0,0.0,19.0,-2.0,-6.0,-5.0,1.0
1701634412.895491,-4.0,12.0,19.0,-9.0,14.0,10.0,2.0,-3.0
1701634412.895491,-6.0,3.0,48.0,10.0,1.0,-3.0,-1.0,-1.0
1701634412.9151795,5.0,-12.0,-51.0,28.0,17.0,-1.0,-2.0,7.0
1701634412.9151795,2.0,22.0,30.0,-14.0,-38.0,4.0,50.0,28.0
1701634412.9151795,-8.0,-10.0,-9.0,51.0,57.0,1.0,-42.0,-31.0
1701634412.9151795,8.0,22.0,17.0,7.0,-2.0,-2.0,-14.0,-8.0
1701634412.925498,-18.0,-57.0,-5.0,-2.0,-2.0,-6.0,0.0,1.0
1701634412.925498,-11.0,-37.0,-26.0,-45.0,-1.0,3.0,-15.0,-13.0
1701634412.9354527,14.0,66.0,10.0,-1.0,-20.0,5.0,48.0,32.0
1701634412.9354527,5.0,9.0,-4.0,-27.0,-9.0,-5.0,12.0,11.0
1701634412.9555578,-14.0,-38.0,25.0,-2.0,-5.0,-7.0,-33.0,-34.0
1701634412.9555578,6.0,12.0,-20.0,17.0,2.0,1.0,-10.0,7.0
1701634412.9555578,-6.0,-43.0,1.0,-43.0,-19.0,-7.0,6.0,11.0
1701634412.9555578,4.0,20.0,-39.0,22.0,13.0,2.0,-21.0,-18.0
1701634412.9793735,7.0,75.0,21.0,-11.0,-11.0,0.0,23.0,6.0
1701634412.9793735,-6.0,-44.0,4.0,9.0,11.0,0.0,-17.0,7.0
1701634412.980339,10.0,25.0,-9.0,-2.0,-9.0,-1.0,11.0,5.0
1701634412.980339,-9.0,-63.0,22.0,11.0,-3.0,-2.0,-3.0,-4.0
1701634412.9942122,-4.0,8.0,-4.0,6.0,10.0,5.0,4.0,6.0
1701634412.9942122,-8.0,-6.0,-25.0,-21.0,-2.0,-5.0,-10.0,-4.0
1701634412.9969969,12.0,70.0,33.0,9.0,-14.0,-6.0,-4.0,-9.0
1701634412.9969969,-7.0,-50.0,-3.0,-1.0,-1.0,0.0,11.0,6.0
1701634413.01705,0.0,-1.0,4.0,-9.0,9.0,4.0,-3.0,2.0
1701634413.01705,1.0,22.0,-4.0,24.0,23.0,10.0,11.0,3.0
1701634413.01705,-3.0,-16.0,14.0,-23.0,-13.0,-4.0,12.0,9.0
1701634413.01705,1.0,17.0,17.0,17.0,1.0,-2.0,-28.0,-15.0
1701634413.0470026,1.0,-8.0,-21.0,-36.0,-18.0,-10.0,-7.0,1.0
1701634413.0470026,-3.0,8.0,9.0,-7.0,-8.0,-3.0,-1.0,-7.0
1701634413.0470026,-10.0,-48.0,-17.0,28.0,12.0,0.0,-16.0,-10.0
1701634413.0470026,-6.0,19.0,2.0,4.0,8.0,5.0,-11.0,-6.0
1701634413.0470026,11.0,8.0,-1.0,-3.0,2.0,1.0,9.0,12.0
1701634413.0470026,-6.0,-8.0,2.0,-9.0,-14.0,-16.0,-2.0,-4.0
1701634413.057017,-5.0,-22.0,-10.0,-17.0,-11.0,5.0,5.0,-1.0
1701634413.057017,-4.0,2.0,-4.0,5.0,17.0,4.0,8.0,-4.0
1701634413.0869956,3.0,-3.0,14.0,7.0,-4.0,-3.0,-14.0,4.0
1701634413.0869956,8.0,7.0,-11.0,-12.0,-4.0,2.0,7.0,-3.0
1701634413.0869956,-10.0,-10.0,-8.0,-1.0,-8.0,-7.0,-11.0,-9.0
1701634413.0869956,-4.0,3.0,-4.0,-10.0,-9.0,-1.0,3.0,0.0
1701634413.0970924,0.0,-5.0,4.0,7.0,5.0,4.0,7.0,6.0
1701634413.0970924,0.0,-5.0,1.0,2.0,0.0,0.0,-1.0,-10.0
1701634413.0970924,-7.0,-15.0,-6.0,0.0,-8.0,-7.0,-6.0,11.0
1701634413.0970924,7.0,1.0,-7.0,-1.0,5.0,5.0,-3.0,-11.0
1701634413.1171443,-1.0,5.0,-21.0,-2.0,-2.0,-5.0,4.0,-25.0
1701634413.1171443,-1.0,11.0,17.0,19.0,6.0,2.0,-2.0,12.0
1701634413.1171443,-16.0,3.0,-5.0,-2.0,6.0,-2.0,-3.0,-24.0
1701634413.1171443,17.0,1.0,15.0,-20.0,-16.0,0.0,0.0,-4.0
1701634413.1469965,-21.0,-21.0,19.0,8.0,-2.0,-16.0,-5.0,17.0
1701634413.1469965,5.0,15.0,-5.0,0.0,-8.0,-27.0,-40.0,-26.0
1701634413.1469965,-4.0,-32.0,1.0,1.0,3.0,34.0,34.0,3.0
1701634413.1469965,-30.0,4.0,-44.0,-16.0,-17.0,-26.0,-7.0,19.0
1701634413.156992,-2.0,11.0,-19.0,-6.0,5.0,16.0,5.0,1.0
1701634413.156992,14.0,-6.0,12.0,-1.0,3.0,-5.0,6.0,18.0
1701634413.156992,-8.0,-20.0,31.0,3.0,-1.0,-4.0,6.0,-13.0
1701634413.156992,20.0,6.0,19.0,-14.0,-4.0,-5.0,-20.0,5.0
1701634413.1773674,22.0,-7.0,-11.0,6.0,7.0,5.0,7.0,9.0
1701634413.1773674,-15.0,-1.0,-49.0,-7.0,-4.0,-22.0,-37.0,-18.0
1701634413.1773674,4.0,-5.0,-21.0,3.0,1.0,9.0,24.0,13.0
1701634413.1773674,-16.0,8.0,42.0,14.0,3.0,13.0,4.0,-4.0
1701634413.1969929,19.0,-5.0,-28.0,-4.0,3.0,6.0,9.0,17.0
1701634413.1969929,-11.0,0.0,13.0,-3.0,0.0,15.0,-3.0,-32.0
1701634413.1969929,13.0,23.0,-15.0,-8.0,-6.0,-12.0,1.0,17.0
1701634413.1969929,-16.0,-29.0,-31.0,-8.0,-9.0,-19.0,-26.0,-20.0
1701634413.2175248,22.0,63.0,41.0,8.0,5.0,1.0,5.0,14.0
1701634413.2175248,-11.0,-37.0,-14.0,-22.0,-6.0,26.0,71.0,11.0
1701634413.2175248,1.0,-8.0,8.0,40.0,9.0,0.0,48.0,46.0
1701634413.2175248,8.0,8.0,-5.0,-26.0,-6.0,-16.0,-74.0,-71.0
1701634413.2375135,-19.0,23.0,20.0,-31.0,-29.0,-16.0,-15.0,-21.0
1701634413.2375135,-6.0,3.0,-18.0,34.0,21.0,13.0,24.0,5.0
1701634413.2375135,-4.0,-18.0,-3.0,-9.0,-4.0,-9.0,-28.0,-3.0
1701634413.2375135,-5.0,-22.0,5.0,5.0,4.0,10.0,64.0,30.0
1701634413.2571535,-5.0,-17.0,1.0,-9.0,-27.0,-11.0,-19.0,-19.0
1701634413.2571535,13.0,-8.0,-18.0,-5.0,12.0,2.0,17.0,21.0
1701634413.2571535,4.0,37.0,6.0,-43.0,-10.0,-2.0,-20.0,-2.0
1701634413.2571535,-3.0,2.0,16.0,35.0,15.0,1.0,-16.0,-9.0
1701634413.2774763,-8.0,-31.0,-54.0,-29.0,-20.0,-6.0,-13.0,-11.0
1701634413.2774763,2.0,12.0,24.0,26.0,6.0,-3.0,-10.0,-2.0
1701634413.2774763,2.0,-13.0,-20.0,9.0,6.0,1.0,12.0,-2.0
1701634413.2774763,-3.0,4.0,-2.0,-13.0,-9.0,-2.0,7.0,5.0
1701634413.3071494,-5.0,-10.0,21.0,7.0,9.0,4.0,5.0,4.0
1701634413.3071494,7.0,12.0,55.0,19.0,0.0,2.0,-3.0,0.0
1701634413.3071494,-4.0,8.0,-30.0,-7.0,0.0,-4.0,-31.0,-39.0
1701634413.3071494,12.0,-1.0,-6.0,-12.0,-3.0,6.0,36.0,16.0
1701634413.3071494,-33.0,-14.0,38.0,32.0,21.0,5.0,-3.0,9.0
1701634413.3071494,20.0,-32.0,-13.0,-11.0,-4.0,1.0,-5.0,-42.0
1701634413.31724,-8.0,29.0,86.0,4.0,-5.0,-25.0,-44.0,-4.0
1701634413.31724,-16.0,25.0,-59.0,15.0,11.0,28.0,34.0,-13.0
1701634413.337531,7.0,-40.0,-36.0,-22.0,-14.0,-32.0,5.0,77.0
1701634413.337531,11.0,-2.0,-75.0,-8.0,15.0,67.0,-3.0,-58.0
1701634413.337531,29.0,-20.0,-33.0,-12.0,2.0,-11.0,-3.0,54.0
1701634413.337531,-21.0,30.0,120.0,35.0,-2.0,-11.0,-8.0,-69.0
1701634413.36715,20.0,29.0,48.0,23.0,9.0,3.0,-6.0,-32.0
1701634413.36715,-11.0,1.0,-60.0,-25.0,-5.0,-7.0,31.0,83.0
1701634413.36715,5.0,-21.0,-19.0,-5.0,-6.0,-7.0,-23.0,-14.0
1701634413.36715,-7.0,9.0,19.0,8.0,1.0,0.0,21.0,19.0
1701634413.3771517,1.0,31.0,16.0,18.0,6.0,2.0,-26.0,-34.0
1701634413.3771517,-9.0,1.0,47.0,10.0,0.0,-12.0,2.0,14.0
1701634413.3771517,-1.0,-7.0,-30.0,-37.0,-16.0,10.0,-5.0,-20.0
1701634413.3771517,14.0,14.0,-2.0,20.0,5.0,-14.0,8.0,44.0
1701634413.3974867,-3.0,-3.0,5.0,-3.0,-6.0,8.0,11.0,-15.0
1701634413.3974867,-3.0,-2.0,21.0,-12.0,-7.0,-11.0,-8.0,4.0
1701634413.3974867,0.0,-13.0,10.0,65.0,57.0,11.0,-15.0,-11.0
1701634413.3974867,-7.0,10.0,-34.0,-94.0,-30.0,-3.0,45.0,40.0
1701634413.42715,0.0,-29.0,-8.0,25.0,-15.0,-4.0,-19.0,-10.0
1701634413.42715,-10.0,4.0,0.0,15.0,-4.0,-15.0,-41.0,-28.0
1701634413.42715,-1.0,6.0,2.0,22.0,22.0,8.0,25.0,-13.0
1701634413.42715,5.0,3.0,-24.0,-21.0,-8.0,-9.0,-41.0,-3.0
1701634413.4371545,-9.0,-9.0,-22.0,-8.0,32.0,18.0,48.0,21.0
1701634413.4371545,6.0,2.0,25.0,-28.0,-32.0,-15.0,13.0,12.0
1701634413.4371545,-11.0,1.0,5.0,-1.0,-18.0,-15.0,-51.0,-28.0
1701634413.4371545,9.0,-17.0,-24.0,28.0,16.0,8.0,-1.0,3.0
1701634413.4575124,2.0,10.0,-5.0,-21.0,-3.0,3.0,5.0,-1.0
1701634413.4575124,-11.0,4.0,19.0,12.0,-5.0,-7.0,-4.0,-6.0
1701634413.4575124,9.0,4.0,-28.0,-17.0,-4.0,5.0,22.0,11.0
1701634413.4575124,-2.0,-17.0,-29.0,-19.0,-16.0,-5.0,-6.0,-3.0
1701634413.4774592,-6.0,-6.0,3.0,15.0,5.0,-1.0,-10.0,-7.0
1701634413.4774592,2.0,2.0,-4.0,10.0,13.0,2.0,0.0,9.0
1701634413.4774592,-35.0,3.0,9.0,-7.0,-2.0,4.0,10.0,-8.0
1701634413.4774592,4.0,-4.0,29.0,12.0,6.0,1.0,-8.0,8.0
1701634413.4971533,22.0,-3.0,-57.0,0.0,-5.0,2.0,2.0,-18.0
1701634413.4971533,-15.0,7.0,18.0,2.0,-2.0,-11.0,-19.0,-19.0
1701634413.4976575,-14.0,0.0,-4.0,-19.0,-23.0,-3.0,12.0,-3.0
1701634413.4976575,-5.0,-18.0,21.0,18.0,16.0,6.0,0.0,9.0
1701634413.519273,3.0,1.0,-6.0,-7.0,-1.0,-3.0,0.0,3.0
1701634413.519273,19.0,3.0,-25.0,-4.0,2.0,4.0,-1.0,28.0
1701634413.5202115,-25.0,-11.0,-10.0,-4.0,-14.0,-9.0,-2.0,-4.0
1701634413.5202115,10.0,-6.0,8.0,-2.0,-2.0,-2.0,-10.0,-22.0
1701634413.5396726,-16.0,-9.0,8.0,-6.0,-10.0,-11.0,-11.0,-8.0
1701634413.5396726,1.0,8.0,3.0,-1.0,-6.0,-4.0,1.0,2.0
1701634413.5396726,2.0,14.0,38.0,7.0,15.0,9.0,8.0,-1.0
1701634413.5396726,8.0,4.0,-29.0,7.0,10.0,2.0,4.0,17.0
1701634413.5496716,-5.0,2.0,-3.0,-11.0,1.0,3.0,-3.0,1.0
1701634413.5496716,-9.0,-13.0,-6.0,-4.0,-11.0,-6.0,-7.0,-6.0
1701634413.5496716,19.0,-5.0,-9.0,26.0,3.0,-1.0,7.0,14.0
1701634413.5496716,-3.0,11.0,14.0,3.0,-7.0,3.0,0.0,-15.0
1701634413.5797253,-9.0,-4.0,56.0,6.0,3.0,-3.0,-11.0,-4.0
1701634413.5797253,6.0,1.0,-71.0,-1.0,13.0,9.0,13.0,3.0
1701634413.5797253,1.0,-12.0,-1.0,-16.0,-16.0,-7.0,-15.0,-9.0
1701634413.5797253,-2.0,-14.0,-27.0,-12.0,4.0,-1.0,-8.0,-2.0
1701634413.6000257,-8.0,8.0,31.0,-3.0,-3.0,9.0,26.0,6.0
1701634413.6000257,-4.0,-3.0,24.0,-14.0,-12.0,-14.0,-26.0,-6.0
1701634413.6000257,7.0,6.0,14.0,4.0,0.0,-2.0,-5.0,-2.0
1701634413.6000257,2.0,-1.0,-14.0,1.0,-2.0,1.0,15.0,12.0
1701634413.610045,4.0,4.0,-13.0,3.0,5.0,1.0,-4.0,-2.0
1701634413.610045,-8.0,-1.0,16.0,-4.0,-9.0,-2.0,2.0,-15.0
1701634413.610045,11.0,4.0,-1.0,0.0,2.0,5.0,11.0,12.0
1701634413.610045,-9.0,-8.0,3.0,3.0,0.0,-8.0,-30.0,-25.0
1701634413.6399634,-2.0,-8.0,-28.0,0.0,6.0,0.0,10.0,5.0
1701634413.6399634,-4.0,2.0,11.0,-3.0,1.0,-8.0,-19.0,4.0
1701634413.6399634,0.0,2.0,5.0,-3.0,-11.0,13.0,39.0,7.0
1701634413.6399634,-2.0,-9.0,-31.0,-6.0,-2.0,2.0,-1.0,-6.0
1701634413.6597033,-10.0,-1.0,9.0,4.0,0.0,-3.0,-5.0,6.0
1701634413.6597033,-3.0,-8.0,-6.0,-5.0,-1.0,-7.0,-5.0,3.0
1701634413.6597033,-2.0,7.0,4.0,-14.0,-7.0,-1.0,14.0,4.0
1701634413.6597033,2.0,-11.0,20.0,12.0,13.0,10.0,2.0,-3.0
1701634413.6700435,33.0,1.0,-21.0,-6.0,-5.0,-5.0,0.0,2.0
1701634413.6700435,10.0,38.0,30.0,7.0,-2.0,-1.0,-18.0,8.0
1701634413.6800284,-3.0,-19.0,-36.0,-15.0,-2.0,-10.0,-16.0,-7.0
1701634413.6800284,-3.0,6.0,9.0,4.0,-1.0,0.0,15.0,14.0
1701634413.6997328,-4.0,-3.0,-12.0,-5.0,-8.0,-5.0,4.0,-6.0
1701634413.6997328,2.0,10.0,27.0,-9.0,-4.0,2.0,12.0,3.0
1701634413.6997328,5.0,16.0,36.0,32.0,23.0,3.0,-24.0,-25.0
1701634413.6997328,6.0,-14.0,-39.0,-13.0,-8.0,0.0,12.0,22.0
1701634413.7199018,-15.0,11.0,-7.0,-9.0,-6.0,-2.0,-17.0,-13.0
1701634413.7199018,-7.0,-16.0,-5.0,4.0,3.0,3.0,20.0,5.0
1701634413.7199018,-1.0,14.0,12.0,-12.0,-6.0,-9.0,-20.0,-8.0
1701634413.7199018,-7.0,-1.0,-5.0,2.0,-6.0,-11.0,8.0,5.0
1701634413.729843,-7.0,-6.0,-5.0,11.0,6.0,8.0,12.0,-2.0
1701634413.729843,-6.0,-5.0,-6.0,-4.0,5.0,0.0,-6.0,9.0
1701634413.7399225,3.0,-7.0,-1.0,1.0,5.0,3.0,1.0,-24.0
1701634413.7399225,-8.0,-4.0,13.0,-6.0,-6.0,-8.0,-50.0,-16.0
1701634413.7596693,-5.0,-7.0,-11.0,-10.0,-5.0,0.0,19.0,16.0
1701634413.7596693,5.0,5.0,12.0,10.0,0.0,-4.0,-1.0,-17.0
1701634413.7596693,9.0,-2.0,-15.0,-10.0,-9.0,-5.0,1.0,8.0
1701634413.7596693,18.0,7.0,-7.0,-3.0,-1.0,2.0,11.0,15.0
1701634413.7800848,-6.0,-4.0,9.0,6.0,-2.0,-9.0,-20.0,-21.0
1701634413.7800848,-5.0,-8.0,16.0,0.0,9.0,17.0,19.0,-3.0
1701634413.7800848,-2.0,-5.0,-7.0,-12.0,-16.0,-10.0,-7.0,8.0
1701634413.7800848,17.0,8.0,-2.0,-10.0,2.0,4.0,17.0,8.0
1701634413.789983,-2.0,1.0,1.0,16.0,1.0,-3.0,-31.0,1.0
1701634413.789983,-6.0,-11.0,13.0,-4.0,0.0,-4.0,-12.0,-34.0
1701634413.7999587,1.0,-11.0,-28.0,-4.0,-3.0,0.0,0.0,4.0
1701634413.7999587,0.0,3.0,-2.0,2.0,-3.0,0.0,6.0,-2.0
1701634413.8096745,-2.0,8.0,-20.0,-2.0,1.0,3.0,18.0,10.0
1701634413.8096745,2.0,-5.0,-21.0,1.0,-1.0,2.0,-5.0,-5.0
1701634413.8197012,-14.0,4.0,11.0,-7.0,-4.0,0.0,15.0,12.0
1701634413.8197012,-13.0,-12.0,6.0,3.0,-8.0,-10.0,-40.0,-9.0
1701634413.840071,2.0,-14.0,-4.0,3.0,0.0,1.0,2.0,3.0
1701634413.840071,-2.0,-3.0,-10.0,-1.0,-4.0,-10.0,-9.0,-13.0
1701634413.840071,-2.0,-14.0,-14.0,-2.0,-1.0,4.0,6.0,5.0
1701634413.840071,1.0,14.0,10.0,-2.0,6.0,6.0,22.0,11.0
1701634413.849887,-7.0,-3.0,5.0,-17.0,-6.0,-2.0,-10.0,-17.0
1701634413.849887,-20.0,-17.0,-50.0,13.0,8.0,0.0,3.0,6.0
1701634413.8696702,12.0,28.0,10.0,5.0,1.0,1.0,-6.0,-10.0
1701634413.8696702,-4.0,14.0,26.0,1.0,-8.0,-8.0,-15.0,8.0
1701634413.8796751,-2.0,-6.0,-34.0,-5.0,11.0,6.0,18.0,1.0
1701634413.8796751,-5.0,-4.0,8.0,-21.0,-8.0,-8.0,-14.0,-7.0
1701634413.8796751,-4.0,-28.0,10.0,27.0,2.0,-7.0,-14.0,5.0
1701634413.8796751,7.0,31.0,6.0,-4.0,-9.0,-2.0,25.0,16.0
1701634413.8999925,-2.0,31.0,-8.0,0.0,6.0,2.0,-32.0,-29.0
1701634413.8999925,1.0,-34.0,-21.0,-3.0,11.0,11.0,40.0,16.0
1701634413.8999925,-5.0,-10.0,0.0,-3.0,-5.0,-9.0,-21.0,12.0
1701634413.8999925,-7.0,-31.0,10.0,-20.0,-8.0,2.0,-13.0,-25.0
1701634413.9296863,12.0,9.0,38.0,25.0,4.0,2.0,20.0,28.0
1701634413.9296863,1.0,23.0,-39.0,-8.0,4.0,5.0,14.0,-3.0
1701634413.9296863,-19.0,-13.0,17.0,8.0,-11.0,-10.0,-41.0,-39.0
1701634413.9296863,11.0,9.0,-17.0,0.0,2.0,4.0,20.0,9.0
1701634413.9398975,4.0,3.0,4.0,-3.0,5.0,3.0,3.0,4.0
1701634413.9398975,-8.0,-6.0,17.0,5.0,-4.0,-2.0,-3.0,5.0
1701634413.9398975,9.0,-1.0,-7.0,-19.0,-15.0,-5.0,1.0,1.0
1701634413.9398975,-9.0,-2.0,0.0,7.0,14.0,4.0,-11.0,-8.0
1701634413.9596765,9.0,2.0,19.0,1.0,-7.0,1.0,6.0,1.0
1701634413.9596765,2.0,5.0,-4.0,-15.0,-16.0,-9.0,-17.0,1.0
1701634413.9596765,-2.0,2.0,16.0,24.0,20.0,4.0,14.0,9.0
1701634413.9596765,-9.0,-1.0,-7.0,0.0,-5.0,-9.0,-4.0,-17.0
1701634413.9796715,2.0,2.0,16.0,4.0,3.0,5.0,-2.0,6.0
1701634413.9796715,7.0,-2.0,15.0,3.0,-3.0,-2.0,-2.0,2.0
1701634413.9796715,6.0,12.0,-5.0,-21.0,-7.0,0.0,12.0,16.0
1701634413.9796715,-14.0,-20.0,-6.0,8.0,6.0,1.0,-9.0,-23.0
1701634414.0000777,-4.0,-5.0,12.0,38.0,11.0,-3.0,1.0,2.0
1701634414.0000777,0.0,1.0,17.0,-7.0,-10.0,1.0,-4.0,-11.0
1701634414.0000777,-2.0,-10.0,-45.0,-13.0,-1.0,-3.0,-8.0,-14.0
1701634414.0000777,10.0,13.0,15.0,-2.0,0.0,5.0,9.0,-3.0
1701634414.020086,-63.0,-20.0,15.0,-16.0,-3.0,-6.0,-7.0,5.0
1701634414.020086,27.0,15.0,-27.0,8.0,11.0,7.0,-10.0,10.0
1701634414.020086,-9.0,7.0,15.0,1.0,-6.0,3.0,17.0,-11.0
1701634414.020086,-6.0,-15.0,-28.0,3.0,3.0,-5.0,-5.0,3.0
1701634414.0426366,5.0,7.0,0.0,-24.0,-10.0,-5.0,-2.0,-10.0
1701634414.0426366,-3.0,-5.0,24.0,18.0,-6.0,-11.0,-9.0,0.0
1701634414.044797,5.0,-26.0,-20.0,-12.0,-12.0,-6.0,-6.0,-14.0
1701634414.044797,3.0,41.0,-23.0,-3.0,-8.0,-5.0,-2.0,15.0
1701634414.0605803,22.0,10.0,49.0,11.0,16.0,16.0,-2.0,4.0
1701634414.0605803,-11.0,-7.0,13.0,0.0,3.0,-1.0,1.0,-13.0
1701634414.0623214,0.0,-22.0,-34.0,-3.0,8.0,6.0,13.0,20.0
1701634414.0623214,-20.0,-68.0,3.0,-11.0,-14.0,-6.0,-5.0,-9.0
1701634414.0823307,4.0,-1.0,-40.0,-33.0,-25.0,-9.0,-9.0,-10.0
1701634414.0823307,2.0,36.0,-4.0,27.0,26.0,11.0,11.0,15.0
1701634414.0823307,-11.0,10.0,15.0,-9.0,-9.0,-9.0,-5.0,-5.0
1701634414.0823307,1.0,-15.0,9.0,33.0,22.0,7.0,28.0,11.0
1701634414.1223202,8.0,27.0,-6.0,-10.0,-7.0,5.0,20.0,25.0
1701634414.1223202,-7.0,6.0,13.0,-22.0,-23.0,-22.0,-85.0,-62.0
1701634414.1223202,-8.0,1.0,-24.0,7.0,13.0,1.0,19.0,17.0
1701634414.1223202,10.0,8.0,-8.0,-7.0,-2.0,6.0,-3.0,-17.0
1701634414.1223202,-6.0,-24.0,29.0,-3.0,-4.0,-6.0,-6.0,1.0
1701634414.1223202,0.0,3.0,-45.0,3.0,5.0,4.0,24.0,14.0
1701634414.1223202,7.0,16.0,26.0,20.0,6.0,1.0,-12.0,-8.0
1701634414.1223202,-8.0,-23.0,-2.0,-45.0,-19.0,-6.0,2.0,-10.0
1701634414.1425822,0.0,-5.0,-38.0,20.0,9.0,1.0,-10.0,-5.0
1701634414.1425822,1.0,-7.0,15.0,-1.0,-2.0,-3.0,-5.0,3.0
1701634414.1425822,2.0,9.0,-8.0,10.0,3.0,0.0,-5.0,-2.0
1701634414.1425822,-7.0,17.0,4.0,-17.0,-14.0,-5.0,-3.0,-1.0
1701634414.1723187,1.0,-27.0,-6.0,10.0,2.0,-6.0,-9.0,-13.0
1701634414.1723187,1.0,20.0,14.0,5.0,9.0,7.0,21.0,17.0
1701634414.1723187,7.0,9.0,6.0,-15.0,-5.0,-1.0,12.0,4.0
1701634414.1723187,4.0,6.0,10.0,10.0,2.0,3.0,-14.0,1.0
1701634414.1723187,-1.0,-11.0,-18.0,-10.0,-12.0,-17.0,-22.0,-18.0
1701634414.1723187,-11.0,-16.0,-2.0,-4.0,-4.0,1.0,15.0,7.0
1701634414.1825514,0.0,2.0,12.0,4.0,0.0,-1.0,-9.0,-2.0
1701634414.1825514,1.0,11.0,-6.0,1.0,1.0,-3.0,-8.0,-4.0
1701634414.2023623,-5.0,-3.0,-2.0,2.0,0.0,7.0,6.0,-6.0
1701634414.2023623,-2.0,-7.0,5.0,1.0,2.0,3.0,30.0,47.0
1701634414.2023623,-4.0,11.0,6.0,-5.0,8.0,0.0,-18.0,-37.0
1701634414.2023623,12.0,-11.0,-10.0,8.0,-4.0,-4.0,-5.0,17.0
1701634414.2223253,6.0,3.0,1.0,-2.0,-5.0,-20.0,-24.0,-5.0
1701634414.2223253,-4.0,3.0,20.0,-2.0,-8.0,26.0,27.0,5.0
1701634414.2223253,3.0,-30.0,-65.0,-16.0,-3.0,-7.0,-8.0,-9.0
1701634414.2223253,-13.0,11.0,43.0,8.0,-6.0,-9.0,-8.0,-15.0
1701634414.2323554,-8.0,-25.0,-7.0,8.0,5.0,-3.0,-3.0,-25.0
1701634414.2323554,-24.0,-11.0,-40.0,-26.0,-13.0,-36.0,-22.0,-21.0
1701634414.2423756,6.0,25.0,79.0,14.0,3.0,36.0,17.0,-4.0
1701634414.2423756,19.0,-9.0,1.0,2.0,-17.0,-14.0,0.0,16.0
1701634414.262322,47.0,58.0,-46.0,-9.0,15.0,13.0,33.0,16.0
1701634414.262322,-22.0,-39.0,-1.0,-11.0,1.0,-10.0,-23.0,29.0
1701634414.262322,-41.0,-10.0,-36.0,-5.0,7.0,33.0,29.0,-5.0
1701634414.262322,-20.0,3.0,32.0,6.0,-10.0,-19.0,-9.0,4.0
1701634414.2826812,10.0,9.0,43.0,15.0,8.0,4.0,5.0,24.0
1701634414.2826812,-2.0,-17.0,7.0,3.0,-7.0,9.0,10.0,-31.0
1701634414.2826812,12.0,1.0,-71.0,-20.0,-2.0,-9.0,20.0,43.0
1701634414.2826812,3.0,8.0,23.0,16.0,7.0,3.0,-25.0,-12.0
1701634414.2926521,-27.0,-4.0,-24.0,-26.0,-18.0,-12.0,0.0,-6.0
1701634414.2926521,24.0,-7.0,28.0,9.0,1.0,-3.0,-4.0,-4.0
1701634414.3026388,-11.0,-5.0,14.0,-17.0,-13.0,-18.0,-16.0,-26.0
1701634414.3026388,-7.0,-15.0,-41.0,9.0,16.0,12.0,-30.0,-24.0
1701634414.3223221,7.0,6.0,25.0,3.0,-2.0,2.0,44.0,19.0
1701634414.3223221,3.0,7.0,-21.0,15.0,27.0,16.0,-31.0,-14.0
1701634414.3223221,2.0,1.0,69.0,-32.0,-42.0,-20.0,-10.0,0.0
1701634414.3223221,0.0,-6.0,-17.0,63.0,57.0,17.0,18.0,4.0
1701634414.3425734,-17.0,-9.0,-13.0,-6.0,-6.0,2.0,21.0,28.0
1701634414.3425734,8.0,7.0,12.0,-20.0,-13.0,1.0,-18.0,-27.0
1701634414.3425734,-11.0,-17.0,-25.0,14.0,7.0,-8.0,-8.0,6.0
1701634414.3425734,0.0,-2.0,-20.0,-38.0,-1.0,-4.0,10.0,9.0
1701634414.3525515,-7.0,4.0,-5.0,36.0,1.0,4.0,24.0,0.0
1701634414.3525515,-2.0,-5.0,-3.0,-13.0,-8.0,-12.0,-17.0,-6.0
1701634414.3823214,9.0,24.0,13.0,10.0,-1.0,-8.0,-33.0,-18.0
1701634414.3823214,16.0,17.0,-1.0,-15.0,-7.0,-6.0,8.0,2.0
1701634414.3823214,0.0,-13.0,-5.0,-3.0,5.0,13.0,5.0,3.0
1701634414.3823214,-20.0,-11.0,8.0,11.0,1.0,-5.0,17.0,11.0
1701634414.3823214,2.0,9.0,-8.0,3.0,4.0,-5.0,-7.0,-2.0
1701634414.3823214,1.0,-12.0,-4.0,-12.0,-7.0,9.0,19.0,-2.0
1701634414.402742,-4.0,-3.0,-1.0,-13.0,-9.0,-2.0,-17.0,8.0
1701634414.402742,4.0,18.0,9.0,17.0,1.0,-1.0,0.0,-17.0
1701634414.402742,0.0,-36.0,-20.0,-2.0,1.0,-3.0,5.0,23.0
1701634414.402742,-13.0,11.0,18.0,1.0,-2.0,-3.0,5.0,-35.0
1701634414.43232,-6.0,-7.0,11.0,-16.0,-10.0,-4.0,-25.0,-5.0
1701634414.43232,1.0,-6.0,-9.0,-17.0,-11.0,-4.0,5.0,5.0
1701634414.43232,28.0,22.0,32.0,31.0,13.0,10.0,15.0,23.0
1701634414.43232,-11.0,12.0,17.0,-21.0,-11.0,-10.0,-7.0,-7.0
1701634414.4423692,-5.0,-24.0,-8.0,4.0,4.0,0.0,-14.0,-15.0
1701634414.4423692,-16.0,-7.0,-44.0,9.0,3.0,-4.0,4.0,1.0
1701634414.4423692,-3.0,-10.0,-32.0,-15.0,-6.0,-4.0,1.0,-28.0
1701634414.4423692,-5.0,8.0,77.0,6.0,-10.0,2.0,-3.0,31.0
1701634414.4625604,3.0,-20.0,-75.0,12.0,20.0,0.0,-14.0,-10.0
1701634414.4625604,13.0,49.0,34.0,6.0,-13.0,-5.0,10.0,11.0
1701634414.4625604,0.0,5.0,26.0,-5.0,-9.0,-4.0,-1.0,0.0
1701634414.4625604,8.0,23.0,-35.0,1.0,31.0,18.0,11.0,4.0
1701634414.472622,-9.0,-50.0,10.0,9.0,-3.0,-2.0,-8.0,-13.0
1701634414.472622,-9.0,-35.0,-23.0,-22.0,-22.0,-10.0,-3.0,-2.0
1701634414.4923203,2.0,15.0,12.0,11.0,9.0,-1.0,-1.0,6.0
1701634414.4923203,-2.0,-25.0,-34.0,-2.0,-1.0,2.0,3.0,6.0
1701634414.5023236,5.0,59.0,26.0,-24.0,-4.0,2.0,16.0,4.0
1701634414.5023236,1.0,-15.0,6.0,28.0,9.0,-2.0,-15.0,-14.0
1701634414.5023236,-5.0,4.0,1.0,-17.0,-18.0,-18.0,-44.0,-10.0
1701634414.5023236,3.0,1.0,-25.0,1.0,-4.0,4.0,8.0,6.0
1701634414.5225873,-4.0,3.0,12.0,2.0,1.0,-2.0,17.0,3.0
1701634414.5225873,7.0,19.0,-4.0,-26.0,-11.0,-6.0,-20.0,-17.0
1701634414.5225873,-2.0,-19.0,3.0,16.0,12.0,9.0,6.0,5.0
1701634414.5225873,-3.0,-5.0,-17.0,-14.0,-6.0,-5.0,13.0,4.0
1701634414.5325434,8.0,3.0,-2.0,11.0,-3.0,2.0,3.0,13.0
1701634414.5325434,-14.0,-8.0,17.0,3.0,0.0,-7.0,-35.0,-27.0
1701634414.5425022,-1.0,0.0,-5.0,1.0,9.0,-1.0,4.0,9.0
1701634414.5425022,-1.0,-11.0,-14.0,-29.0,-25.0,-2.0,-7.0,-5.0
1701634414.578503,-2.0,-1.0,14.0,18.0,7.0,-1.0,5.0,-4.0
1701634414.578503,12.0,5.0,-13.0,7.0,0.0,-13.0,6.0,14.0
1701634414.578503,-8.0,-7.0,3.0,-1.0,-3.0,12.0,9.0,-5.0
1701634414.578503,-6.0,-4.0,-5.0,-1.0,2.0,-9.0,-14.0,-8.0
1701634414.578503,2.0,-4.0,-4.0,-19.0,-16.0,0.0,1.0,3.0
1701634414.578503,3.0,10.0,11.0,1.0,6.0,-1.0,6.0,-28.0
1701634414.578503,-1.0,-1.0,-13.0,-3.0,5.0,3.0,8.0,20.0
1701634414.578503,8.0,3.0,47.0,18.0,-2.0,2.0,7.0,1.0
1701634414.5985065,-25.0,-10.0,-51.0,-24.0,-8.0,-12.0,-36.0,-25.0
1701634414.5985065,-7.0,-33.0,-22.0,7.0,15.0,5.0,11.0,19.0
1701634414.5985065,2.0,7.0,46.0,-11.0,-13.0,-8.0,10.0,5.0
1701634414.5985065,22.0,1.0,25.0,11.0,8.0,2.0,-5.0,10.0
1701634414.6185284,-16.0,-7.0,31.0,14.0,10.0,2.0,-16.0,-42.0
1701634414.6185284,1.0,-5.0,-64.0,-36.0,-16.0,-5.0,11.0,29.0
1701634414.6185284,0.0,14.0,15.0,13.0,-1.0,-1.0,-1.0,-18.0
1701634414.6185284,-7.0,-20.0,-45.0,-19.0,-6.0,-6.0,-3.0,26.0
1701634414.6387973,12.0,-27.0,12.0,-4.0,-9.0,-8.0,-17.0,-32.0
1701634414.6387973,14.0,55.0,54.0,-16.0,-4.0,15.0,20.0,9.0
1701634414.6387973,-3.0,-34.0,-59.0,23.0,21.0,-1.0,-1.0,1.0
1701634414.6387973,7.0,60.0,-11.0,-1.0,5.0,8.0,8.0,-6.0
1701634414.6685262,1.0,41.0,-7.0,7.0,-20.0,-10.0,-6.0,1.0
1701634414.6685262,-14.0,-87.0,1.0,-4.0,-5.0,1.0,8.0,12.0
1701634414.6685262,-3.0,3.0,-11.0,-14.0,-5.0,-5.0,8.0,1.0
1701634414.6685262,-10.0,-2.0,14.0,16.0,-5.0,-7.0,-40.0,-29.0
1701634414.6785553,7.0,13.0,-23.0,-36.0,-4.0,1.0,-3.0,5.0
1701634414.6785553,2.0,-9.0,31.0,30.0,8.0,8.0,44.0,9.0
1701634414.6785553,-14.0,-5.0,12.0,-19.0,-2.0,-9.0,-49.0,-20.0
1701634414.6785553,2.0,-7.0,-24.0,21.0,2.0,-4.0,20.0,13.0
1701634414.6989496,-5.0,20.0,30.0,-1.0,9.0,5.0,-8.0,4.0
1701634414.6989496,6.0,7.0,-14.0,15.0,13.0,5.0,21.0,21.0
1701634414.6989496,5.0,-5.0,-7.0,-6.0,0.0,3.0,5.0,-3.0
1701634414.6989496,-4.0,-8.0,-3.0,-5.0,-7.0,-8.0,-11.0,-16.0
1701634414.7085547,4.0,6.0,13.0,18.0,5.0,-3.0,-20.0,3.0
1701634414.718525,1.0,7.0,0.0,-5.0,-8.0,6.0,54.0,39.0
1701634414.718525,-13.0,-9.0,3.0,0.0,2.0,-9.0,-58.0,-42.0
1701634414.718525,13.0,40.0,3.0,-40.0,-11.0,-3.0,-19.0,-11.0
1701634414.738623,-9.0,-45.0,6.0,48.0,9.0,4.0,18.0,10.0
1701634414.738623,-8.0,9.0,0.0,-7.0,1.0,2.0,-4.0,-3.0
1701634414.738623,16.0,11.0,15.0,-31.0,-18.0,4.0,36.0,26.0
1701634414.738623,-6.0,-6.0,-30.0,31.0,20.0,1.0,-1.0,-6.0
1701634414.7689629,7.0,-9.0,-4.0,-24.0,-6.0,1.0,3.0,2.0
1701634414.7689629,-2.0,26.0,11.0,6.0,1.0,-3.0,-33.0,-17.0
1701634414.7689629,-10.0,-6.0,2.0,7.0,-4.0,-4.0,7.0,4.0
1701634414.7689629,3.0,-16.0,1.0,-16.0,-10.0,8.0,22.0,18.0
1701634414.7786157,-2.0,-2.0,0.0,-10.0,7.0,-1.0,1.0,-6.0
1701634414.7786157,2.0,4.0,-5.0,19.0,3.0,-7.0,-25.0,-18.0
1701634414.7886145,3.0,4.0,0.0,0.0,1.0,-3.0,2.0,4.0
1701634414.7886145,-7.0,-20.0,-3.0,-3.0,-9.0,-1.0,16.0,11.0
1701634414.7986479,-1.0,10.0,-4.0,-7.0,-1.0,-1.0,0.0,2.0
1701634414.7986479,4.0,2.0,2.0,-3.0,13.0,8.0,-16.0,-2.0
1701634414.7986479,-1.0,-4.0,0.0,9.0,-1.0,-7.0,8.0,-30.0
1701634414.7986479,8.0,-11.0,-8.0,0.0,-5.0,-1.0,-7.0,18.0
1701634414.8190382,5.0,2.0,5.0,-9.0,-10.0,-13.0,-7.0,6.0
1701634414.8190382,33.0,8.0,1.0,0.0,0.0,-20.0,-35.0,11.0
1701634414.8190382,-10.0,18.0,31.0,21.0,2.0,-1.0,38.0,12.0
1701634414.8190382,-37.0,-28.0,-100.0,-28.0,-5.0,18.0,-15.0,-78.0
1701634414.828673,-26.0,-18.0,66.0,4.0,-11.0,-47.0,-21.0,13.0
1701634414.828673,2.0,38.0,40.0,-13.0,-9.0,39.0,23.0,0.0
1701634414.838614,-8.0,-32.0,-64.0,2.0,-5.0,-93.0,-75.0,9.0
1701634414.838614,-33.0,-23.0,-7.0,-12.0,7.0,87.0,63.0,-48.0
1701634414.859036,10.0,7.0,-3.0,-15.0,-13.0,-17.0,-1.0,21.0
1701634414.859036,-36.0,-27.0,-18.0,20.0,20.0,-8.0,3.0,-8.0
1701634414.8686156,30.0,49.0,58.0,33.0,18.0,26.0,26.0,67.0
1701634414.8686156,-9.0,-58.0,-27.0,-26.0,-3.0,-43.0,-32.0,-43.0
1701634414.8786154,-30.0,13.0,22.0,9.0,-1.0,18.0,-24.0,-52.0
1701634414.8786154,67.0,6.0,19.0,-1.0,-9.0,1.0,24.0,42.0
1701634414.8786154,-11.0,0.0,-41.0,-20.0,-12.0,-2.0,-42.0,-55.0
1701634414.8786154,-26.0,-7.0,22.0,12.0,-7.0,-25.0,-4.0,33.0
1701634414.8986154,17.0,24.0,-9.0,-12.0,6.0,20.0,48.0,35.0
1701634414.8986154,-7.0,20.0,-9.0,7.0,2.0,-17.0,-45.0,-40.0
1701634414.8986154,-13.0,-35.0,22.0,-43.0,-16.0,16.0,46.0,21.0
1701634414.8986154,11.0,35.0,22.0,48.0,6.0,-15.0,-22.0,3.0
1701634414.9186206,27.0,-22.0,-29.0,-21.0,9.0,10.0,7.0,-6.0
1701634414.9186206,-20.0,1.0,-5.0,13.0,-9.0,-16.0,-27.0,-24.0
1701634414.928618,10.0,-13.0,-17.0,-52.0,5.0,36.0,103.0,58.0
1701634414.928618,-9.0,5.0,36.0,50.0,-3.0,-28.0,-102.0,-54.0
1701634414.9386504,-5.0,-19.0,-20.0,-44.0,-40.0,-10.0,9.0,7.0
1701634414.9386504,8.0,25.0,-10.0,53.0,48.0,7.0,9.0,-1.0
1701634414.9386504,-7.0,4.0,4.0,-39.0,-18.0,1.0,-4.0,-6.0
1701634414.9386504,11.0,6.0,15.0,5.0,8.0,-5.0,29.0,29.0
1701634414.958616,1.0,-6.0,3.0,26.0,13.0,0.0,-23.0,-13.0
1701634414.958616,-11.0,-6.0,-19.0,-22.0,-20.0,0.0,32.0,15.0
1701634414.958616,-4.0,-3.0,-1.0,6.0,1.0,4.0,-48.0,-35.0
1701634414.958616,18.0,5.0,14.0,-12.0,14.0,5.0,27.0,33.0
1701634414.9786634,-9.0,-11.0,-24.0,0.0,-15.0,-12.0,-25.0,-15.0
1701634414.9786634,-9.0,-8.0,-19.0,-30.0,-15.0,0.0,2.0,-4.0
1701634414.9786634,7.0,8.0,-9.0,30.0,13.0,9.0,-2.0,6.0
1701634414.9786634,6.0,5.0,23.0,-10.0,-9.0,-12.0,9.0,9.0
1701634414.9988296,3.0,9.0,29.0,21.0,16.0,17.0,16.0,16.0
1701634414.9988296,-9.0,-23.0,-29.0,-18.0,-11.0,-9.0,-5.0,-15.0
1701634414.9988296,0.0,6.0,17.0,21.0,2.0,3.0,4.0,10.0
1701634414.9988296,12.0,14.0,7.0,-3.0,-4.0,-5.0,2.0,39.0
1701634415.018929,-15.0,-22.0,-27.0,-1.0,-5.0,-28.0,-46.0,-56.0
1701634415.018929,-10.0,16.0,7.0,-6.0,8.0,34.0,36.0,0.0
1701634415.0286222,10.0,-19.0,7.0,24.0,9.0,11.0,-2.0,13.0
1701634415.0286222,-23.0,1.0,-25.0,-29.0,-17.0,-15.0,-5.0,-40.0
1701634415.0486133,0.0,22.0,15.0,8.0,3.0,6.0,8.0,16.0
1701634415.0486133,3.0,12.0,13.0,9.0,-7.0,-36.0,-26.0,31.0
1701634415.0486133,-1.0,-23.0,-42.0,-12.0,5.0,24.0,13.0,-32.0
1701634415.0486133,-18.0,-1.0,10.0,3.0,9.0,10.0,13.0,-7.0
1701634415.0588763,24.0,0.0,26.0,2.0,-1.0,-4.0,15.0,77.0
1701634415.0588763,-7.0,-37.0,-58.0,-19.0,-14.0,-14.0,-28.0,-44.0
1701634415.0588763,9.0,54.0,57.0,34.0,12.0,-5.0,-6.0,-19.0
1701634415.0588763,11.0,-34.0,17.0,-16.0,-9.0,-4.0,-7.0,8.0
1701634415.0788383,11.0,12.0,-35.0,1.0,11.0,15.0,9.0,-32.0
1701634415.0788383,16.0,3.0,3.0,4.0,2.0,1.0,-1.0,28.0
1701634415.0893364,-48.0,-30.0,-25.0,1.0,-14.0,-18.0,-8.0,-2.0
1701634415.0893364,24.0,22.0,3.0,-1.0,1.0,9.0,13.0,-4.0
1701634415.1130645,-4.0,-7.0,-37.0,-5.0,8.0,6.0,6.0,6.0
1701634415.1130645,-15.0,-8.0,-13.0,-23.0,-5.0,0.0,3.0,-13.0
1701634415.1130645,-13.0,-7.0,23.0,11.0,-8.0,-16.0,-42.0,-33.0
1701634415.1130645,-6.0,5.0,10.0,9.0,5.0,4.0,14.0,25.0
1701634415.1230998,-11.0,-9.0,7.0,-1.0,-5.0,5.0,30.0,7.0
1701634415.1230998,9.0,-2.0,-28.0,-7.0,10.0,4.0,2.0,8.0
1701634415.1230998,11.0,12.0,-8.0,-4.0,-1.0,-8.0,-37.0,-26.0
1701634415.1230998,4.0,2.0,10.0,0.0,-10.0,-6.0,5.0,20.0
1701634415.1434102,-1.0,-1.0,-18.0,-5.0,3.0,1.0,-4.0,-7.0
1701634415.1434102,-12.0,-7.0,41.0,4.0,-5.0,-15.0,-24.0,-20.0
1701634415.1434102,10.0,13.0,5.0,-8.0,-3.0,24.0,18.0,12.0
1701634415.1434102,3.0,-7.0,-22.0,-33.0,-10.0,-7.0,16.0,19.0
1701634415.1630664,-3.0,-6.0,-13.0,41.0,23.0,10.0,15.0,-15.0
1701634415.1630664,-18.0,-12.0,29.0,46.0,21.0,-9.0,-44.0,-23.0
1701634415.1630664,8.0,-4.0,-9.0,-12.0,-10.0,-12.0,21.0,28.0
1701634415.1630664,1.0,10.0,0.0,-10.0,-8.0,4.0,-12.0,-20.0
1701634415.1834414,10.0,23.0,13.0,-8.0,-7.0,6.0,13.0,2.0
1701634415.1834414,3.0,-23.0,27.0,-9.0,-12.0,11.0,13.0,-1.0
1701634415.1834414,-3.0,21.0,-17.0,2.0,15.0,0.0,13.0,14.0
1701634415.1834414,7.0,-4.0,33.0,4.0,-3.0,-1.0,7.0,10.0
1701634415.213065,-12.0,-12.0,-37.0,-10.0,-4.0,-11.0,-18.0,-24.0
1701634415.213065,13.0,12.0,29.0,-13.0,-10.0,-5.0,-9.0,-16.0
1701634415.213065,10.0,-15.0,-29.0,2.0,-1.0,-3.0,-1.0,10.0
1701634415.213065,4.0,11.0,10.0,6.0,2.0,-1.0,7.0,3.0
1701634415.213065,-13.0,-1.0,17.0,-1.0,1.0,-3.0,-23.0,-17.0
1701634415.213065,-9.0,-7.0,-39.0,-20.0,-10.0,-1.0,18.0,10.0
1701634415.2230694,3.0,-3.0,4.0,3.0,0.0,-6.0,-9.0,-14.0
1701634415.2230694,11.0,0.0,-2.0,18.0,11.0,5.0,-3.0,4.0
1701634415.2432914,0.0,-11.0,9.0,-10.0,-2.0,0.0,-3.0,-4.0
1701634415.2432914,21.0,4.0,-3.0,-22.0,-11.0,-1.0,21.0,44.0
1701634415.2432914,-23.0,-9.0,-24.0,-18.0,-18.0,-7.0,-10.0,-32.0
1701634415.2432914,-8.0,-16.0,-16.0,11.0,14.0,3.0,-10.0,0.0
1701634415.2730658,4.0,18.0,10.0,7.0,-2.0,5.0,0.0,-5.0
1701634415.2730658,-2.0,-15.0,24.0,2.0,3.0,-3.0,-5.0,-14.0
1701634415.2730658,9.0,-15.0,16.0,17.0,10.0,11.0,12.0,29.0
1701634415.2730658,-7.0,-3.0,-26.0,-32.0,-16.0,-12.0,-13.0,0.0
1701634415.2730658,-5.0,-12.0,17.0,-4.0,-10.0,-8.0,-8.0,1.0
1701634415.2730658,-2.0,8.0,16.0,15.0,-2.0,4.0,8.0,3.0
1701634415.2833273,7.0,25.0,21.0,12.0,17.0,5.0,-1.0,-1.0
1701634415.2833273,-10.0,-18.0,-49.0,-14.0,7.0,3.0,-2.0,-13.0
1701634415.3034322,0.0,11.0,32.0,8.0,-1.0,-5.0,9.0,10.0
1701634415.3034322,-1.0,5.0,-39.0,-26.0,-6.0,-1.0,-6.0,-7.0
1701634415.3034322,-3.0,5.0,35.0,13.0,-10.0,-7.0,-11.0,-12.0
1701634415.3034322,2.0,-3.0,-7.0,1.0,-1.0,-5.0,-2.0,3.0
1701634415.3234005,-2.0,-9.0,-4.0,-2.0,1.0,4.0,21.0,17.0
1701634415.3234005,-10.0,-11.0,-59.0,-4.0,-4.0,-2.0,-23.0,-34.0
1701634415.3234005,-19.0,-9.0,24.0,-3.0,2.0,-6.0,-18.0,11.0
1701634415.3234005,24.0,21.0,17.0,9.0,0.0,-2.0,-7.0,3.0
1701634415.3430688,2.0,0.0,-19.0,-1.0,2.0,10.0,29.0,30.0
1701634415.3430688,-8.0,4.0,19.0,2.0,0.0,4.0,-9.0,-1.0
1701634415.353099,11.0,-7.0,-30.0,-5.0,-6.0,-5.0,7.0,-4.0
1701634415.353099,-11.0,-7.0,19.0,2.0,0.0,1.0,7.0,8.0
1701634415.3634205,4.0,8.0,-40.0,0.0,5.0,-2.0,-16.0,-22.0
1701634415.3634205,-1.0,2.0,7.0,-1.0,5.0,1.0,10.0,-8.0
1701634415.3634205,-10.0,-13.0,-24.0,-17.0,-8.0,-21.0,-11.0,0.0
1701634415.3634205,0.0,-3.0,-1.0,18.0,-5.0,15.0,4.0,5.0
1701634415.3830707,-4.0,5.0,3.0,-11.0,-8.0,-9.0,-15.0,-18.0
1701634415.3830707,-1.0,-4.0,5.0,-15.0,-2.0,4.0,9.0,7.0
1701634415.3830707,-1.0,-1.0,8.0,22.0,14.0,1.0,4.0,-2.0
1701634415.3830707,-12.0,-9.0,3.0,1.0,-6.0,-5.0,6.0,-3.0
1701634415.4030647,4.0,8.0,30.0,-1.0,-4.0,-9.0,-16.0,0.0
1701634415.4030647,-8.0,-1.0,-8.0,10.0,1.0,0.0,-4.0,-2.0
1701634415.4030647,-6.0,-9.0,-69.0,-30.0,-15.0,0.0,26.0,24.0
1701634415.4030647,3.0,9.0,11.0,1.0,6.0,1.0,-34.0,-46.0
1701634415.4231186,-1.0,-3.0,10.0,5.0,3.0,0.0,1.0,2.0
1701634415.4231186,-5.0,0.0,-10.0,-1.0,-4.0,-3.0,3.0,1.0
1701634415.4231186,4.0,-5.0,30.0,-5.0,-3.0,-1.0,-10.0,-23.0
1701634415.4231186,16.0,-6.0,-28.0,2.0,7.0,3.0,18.0,38.0
1701634415.4432154,-27.0,-15.0,-2.0,-3.0,-7.0,-5.0,-22.0,-42.0
1701634415.4432154,1.0,5.0,-1.0,-1.0,16.0,3.0,11.0,6.0
1701634415.4432154,4.0,4.0,11.0,2.0,-8.0,-2.0,6.0,8.0
1701634415.4432154,-8.0,-8.0,-20.0,-9.0,-10.0,-11.0,-9.0,-10.0
1701634415.4532886,5.0,-2.0,8.0,-4.0,-7.0,-10.0,-15.0,6.0
1701634415.4532886,-6.0,1.0,20.0,3.0,-2.0,18.0,27.0,-2.0
1701634415.46307,19.0,-14.0,-44.0,-2.0,12.0,5.0,-20.0,4.0
1701634415.46307,11.0,25.0,32.0,8.0,-2.0,-3.0,12.0,13.0
1701634415.4831161,-13.0,4.0,-8.0,-4.0,-2.0,-1.0,1.0,0.0
1701634415.4831161,-6.0,-8.0,16.0,4.0,-5.0,-8.0,-8.0,-5.0
1701634415.4831161,-4.0,-4.0,0.0,-6.0,-10.0,-17.0,-19.0,-4.0
1701634415.4831161,-10.0,-3.0,-17.0,-5.0,2.0,13.0,17.0,-13.0
1701634415.5130641,9.0,-9.0,9.0,3.0,3.0,1.0,-11.0,20.0
1701634415.5130641,6.0,12.0,-26.0,4.0,-1.0,-1.0,6.0,9.0
1701634415.5130641,-7.0,5.0,-1.0,-2.0,1.0,0.0,-21.0,-22.0
1701634415.5130641,-4.0,-5.0,-10.0,-12.0,-6.0,-11.0,1.0,12.0
1701634415.5130641,1.0,6.0,31.0,4.0,6.0,7.0,3.0,3.0
1701634415.5130641,-5.0,-17.0,-12.0,1.0,-12.0,-27.0,-34.0,-12.0
1701634415.5333605,5.0,11.0,18.0,10.0,7.0,15.0,49.0,24.0
1701634415.5333605,-10.0,0.0,-4.0,6.0,5.0,9.0,-20.0,-5.0
1701634415.5431366,-3.0,-18.0,-24.0,-16.0,-9.0,-3.0,1.0,-7.0
1701634415.5431366,3.0,23.0,13.0,-1.0,0.0,-5.0,-10.0,9.0
1701634415.5431366,15.0,4.0,36.0,4.0,-2.0,-2.0,12.0,7.0
1701634415.5431366,-14.0,-11.0,-16.0,-1.0,-5.0,0.0,6.0,0.0
1701634415.5630627,4.0,7.0,6.0,3.0,7.0,-10.0,-44.0,-31.0
1701634415.5630627,14.0,5.0,-16.0,-5.0,-5.0,6.0,23.0,27.0
1701634415.5630627,-15.0,-16.0,34.0,12.0,6.0,2.0,-18.0,-36.0
1701634415.5630627,0.0,-7.0,-31.0,-15.0,-2.0,-5.0,22.0,25.0
1701634415.5732424,11.0,19.0,-42.0,-3.0,-2.0,4.0,27.0,3.0
1701634415.5732424,-9.0,-24.0,15.0,8.0,3.0,-12.0,-33.0,-17.0
