1701634241.361292,-10.0,-3.0,-28.0,-30.0,-21.0,-10.0,-9.0,-8.0
1701634241.361292,13.0,0.0,13.0,26.0,24.0,9.0,-1.0,6.0
1701634241.361292,-4.0,4.0,-12.0,-3.0,1.0,-9.0,0.0,-1.0
1701634241.361292,8.0,9.0,25.0,8.0,5.0,2.0,-8.0,0.0
1701634241.4012918,-3.0,-5.0,-9.0,-10.0,-9.0,-12.0,1.0,1.0
1701634241.4012918,4.0,-30.0,4.0,-1.0,-4.0,5.0,8.0,4.0
1701634241.4012918,-7.0,-2.0,9.0,-7.0,-2.0,9.0,-1.0,-1.0
1701634241.4012918,10.0,22.0,-12.0,-4.0,-7.0,-17.0,-5.0,3.0
1701634241.4012918,-6.0,-12.0,-3.0,1.0,0.0,4.0,-5.0,-17.0
1701634241.4012918,3.0,11.0,11.0,-13.0,-7.0,-10.0,-5.0,1.0
1701634241.4012918,2.0,-11.0,-27.0,4.0,5.0,9.0,-3.0,-6.0
1701634241.4012918,-4.0,0.0,0.0,0.0,-4.0,6.0,3.0,-1.0
1701634241.4215226,0.0,14.0,6.0,5.0,-2.0,-3.0,-7.0,2.0
1701634241.4215226,6.0,-6.0,-7.0,-19.0,6.0,8.0,3.0,-2.0
1701634241.4215226,-2.0,1.0,50.0,30.0,-6.0,2.0,1.0,-3.0
1701634241.4215226,-7.0,-9.0,-33.0,-6.0,9.0,-9.0,-3.0,-1.0
1701634241.4552734,-5.0,6.0,21.0,1.0,-1.0,13.0,1.0,-2.0
1701634241.4552734,14.0,4.0,-37.0,-9.0,-6.0,-8.0,3.0,2.0
1701634241.4552734,-21.0,-18.0,-23.0,-11.0,-4.0,-5.0,1.0,0.0
1701634241.4552734,11.0,-2.0,44.0,24.0,0.0,-1.0,-5.0,-2.0
1701634241.4614022,-18.0,-3.0,-6.0,-29.0,-10.0,5.0,3.0,1.0
1701634241.4614022,-2.0,11.0,-18.0,-1.0,6.0,2.0,-12.0,-4.0
1701634241.4644578,1.0,2.0,18.0,-2.0,-2.0,0.0,2.0,-4.0
1701634241.4644578,5.0,3.0,-18.0,5.0,6.0,-3.0,2.0,1.0
1701634241.4849133,15.0,7.0,12.0,13.0,5.0,-6.0,0.0,6.0
1701634241.4849133,-24.0,-8.0,-6.0,3.0,-8.0,-2.0,-5.0,-6.0
1701634241.4849133,-2.0,-9.0,-13.0,-17.0,1.0,2.0,3.0,0.0
1701634241.4849133,-2.0,1.0,8.0,12.0,3.0,-3.0,-2.0,0.0
1701634241.5148728,8.0,11.0,-3.0,-23.0,-12.0,-20.0,-1.0,2.0
1701634241.5148728,0.0,-3.0,77.0,39.0,9.0,19.0,5.0,2.0
1701634241.5148728,-3.0,-8.0,-92.0,-35.0,-3.0,-7.0,-10.0,-9.0
1701634241.5148728,-7.0,13.0,25.0,5.0,-6.0,3.0,4.0,-1.0
1701634241.5148728,-5.0,-5.0,-16.0,4.0,-2.0,-17.0,-3.0,-3.0
1701634241.5148728,9.0,3.0,-10.0,-14.0,-14.0,-14.0,1.0,3.0
1701634241.5251796,-1.0,-8.0,19.0,22.0,8.0,4.0,-3.0,-2.0
1701634241.5251796,2.0,-9.0,-14.0,-35.0,-6.0,-3.0,5.0,-2.0
1701634241.544875,-2.0,-10.0,-6.0,19.0,-9.0,-1.0,-2.0,-2.0
1701634241.544875,-9.0,5.0,-16.0,-21.0,0.0,2.0,-3.0,-6.0
1701634241.544875,11.0,12.0,38.0,10.0,11.0,-6.0,3.0,8.0
1701634241.544875,-2.0,-3.0,44.0,7.0,-8.0,-5.0,-8.0,-7.0
1701634241.5651948,-6.0,-5.0,-8.0,23.0,12.0,5.0,1.0,-1.0
1701634241.5651948,4.0,5.0,-4.0,-16.0,-7.0,-7.0,-13.0,3.0
1701634241.5651948,-6.0,26.0,11.0,2.0,2.0,6.0,13.0,0.0
1701634241.5651948,2.0,-21.0,-65.0,-23.0,-7.0,-3.0,-3.0,-2.0
1701634241.5752025,-3.0,-11.0,25.0,-14.0,-1.0,6.0,0.0,-4.0
1701634241.5752025,1.0,13.0,34.0,48.0,-5.0,-13.0,-7.0,-3.0
1701634241.585187,-3.0,-10.0,-33.0,-10.0,6.0,2.0,-4.0,-2.0
1701634241.585187,4.0,19.0,4.0,7.0,2.0,13.0,-1.0,3.0
1701634241.6048758,-1.0,1.0,-15.0,-11.0,-1.0,-5.0,-5.0,-3.0
1701634241.6048758,-3.0,-17.0,-47.0,-46.0,-1.0,-3.0,1.0,-2.0
1701634241.6048758,-6.0,9.0,63.0,36.0,-7.0,1.0,-6.0,1.0
1701634241.6048758,2.0,-4.0,-20.0,5.0,8.0,6.0,6.0,13.0
1701634241.6250565,-9.0,0.0,-2.0,0.0,1.0,-6.0,-4.0,-4.0
1701634241.6250565,-4.0,2.0,1.0,-12.0,-2.0,-2.0,1.0,-2.0
1701634241.6250565,7.0,-11.0,-19.0,-10.0,-4.0,1.0,-1.0,-3.0
1701634241.6250565,-12.0,-22.0,-23.0,-12.0,-3.0,-8.0,-3.0,0.0
1701634241.6348817,3.0,13.0,12.0,6.0,-5.0,-4.0,-2.0,-2.0
1701634241.6348817,4.0,3.0,28.0,4.0,1.0,2.0,0.0,-1.0
1701634241.6450794,-10.0,-8.0,-43.0,-29.0,-16.0,-17.0,-1.0,-4.0
1701634241.6450794,7.0,10.0,11.0,17.0,10.0,-3.0,1.0,-1.0
1701634241.6748712,1.0,-15.0,-8.0,0.0,5.0,1.0,2.0,-1.0
1701634241.6748712,3.0,1.0,-32.0,-12.0,4.0,-5.0,5.0,5.0
1701634241.6748712,-13.0,3.0,32.0,18.0,-13.0,4.0,-11.0,-10.0
1701634241.6748712,-2.0,1.0,6.0,-7.0,-6.0,-5.0,-8.0,-5.0
1701634241.6850867,7.0,-17.0,30.0,3.0,-2.0,-9.0,-8.0,-8.0
1701634241.6850867,-16.0,18.0,-24.0,14.0,-2.0,-5.0,-21.0,-6.0
1701634241.6850867,37.0,-10.0,10.0,1.0,2.0,1.0,21.0,27.0
1701634241.6850867,12.0,13.0,5.0,8.0,-2.0,3.0,14.0,0.0
1701634241.7051523,-13.0,10.0,-39.0,-28.0,1.0,14.0,26.0,27.0
1701634241.7051523,13.0,-59.0,6.0,6.0,-6.0,-9.0,-18.0,-44.0
1701634241.7051523,-17.0,22.0,-4.0,-12.0,2.0,-11.0,-32.0,-17.0
1701634241.7051523,0.0,3.0,8.0,16.0,1.0,-7.0,-7.0,-3.0
1701634241.734873,8.0,11.0,11.0,4.0,2.0,-10.0,44.0,58.0
1701634241.734873,-39.0,1.0,-10.0,-18.0,3.0,30.0,50.0,19.0
1701634241.734873,-13.0,-2.0,15.0,-4.0,-3.0,2.0,-90.0,-67.0
1701634241.734873,-7.0,-8.0,-43.0,-14.0,-5.0,-3.0,-6.0,7.0
1701634241.7448728,-16.0,21.0,31.0,10.0,1.0,2.0,17.0,-6.0
1701634241.7448728,1.0,-10.0,-27.0,-4.0,-12.0,-20.0,-19.0,-8.0
1701634241.7448728,-8.0,-30.0,-12.0,-10.0,-1.0,-12.0,13.0,6.0
1701634241.7448728,11.0,22.0,1.0,-2.0,1.0,26.0,41.0,32.0
1701634241.765238,-9.0,27.0,13.0,3.0,-4.0,-5.0,-48.0,-21.0
1701634241.765238,8.0,-32.0,22.0,14.0,-2.0,3.0,10.0,-11.0
1701634241.765238,1.0,24.0,-9.0,-20.0,-3.0,-12.0,-3.0,-18.0
1701634241.765238,-23.0,-59.0,-39.0,-10.0,-2.0,3.0,-27.0,-25.0
1701634241.7748759,22.0,28.0,38.0,12.0,-10.0,-11.0,7.0,13.0
1701634241.7748759,12.0,34.0,23.0,11.0,9.0,13.0,5.0,14.0
1701634241.7848732,2.0,9.0,24.0,13.0,1.0,-1.0,19.0,19.0
1701634241.7848732,-1.0,-31.0,-33.0,-38.0,-12.0,-20.0,5.0,4.0
1701634241.8048768,3.0,16.0,40.0,42.0,13.0,24.0,-8.0,-15.0
1701634241.8048768,-2.0,-1.0,5.0,-11.0,6.0,-9.0,-9.0,4.0
1701634241.8048768,-10.0,-9.0,-30.0,-29.0,-17.0,17.0,23.0,8.0
1701634241.8048768,10.0,26.0,11.0,28.0,23.0,13.0,-5.0,-5.0
1701634241.8248727,-13.0,-25.0,17.0,9.0,-4.0,-7.0,-21.0,-21.0
1701634241.8248727,11.0,5.0,-10.0,-9.0,-8.0,-26.0,-12.0,1.0
1701634241.8248727,-2.0,-8.0,38.0,-23.0,-17.0,-4.0,28.0,22.0
1701634241.8248727,11.0,15.0,39.0,-4.0,-3.0,2.0,-3.0,-8.0
1701634241.8449285,-8.0,-7.0,21.0,51.0,22.0,10.0,-5.0,-11.0
1701634241.8449285,5.0,11.0,6.0,-20.0,7.0,8.0,3.0,9.0
1701634241.8449285,5.0,-6.0,-1.0,0.0,3.0,6.0,7.0,10.0
1701634241.8449285,-2.0,27.0,35.0,38.0,0.0,-11.0,-17.0,-11.0
1701634241.8652384,10.0,-25.0,-62.0,-51.0,-17.0,-17.0,-3.0,0.0
1701634241.8652384,-33.0,8.0,7.0,10.0,-7.0,-3.0,9.0,-13.0
1701634241.8652384,16.0,5.0,-41.0,30.0,19.0,18.0,-2.0,6.0
1701634241.8652384,61.0,-9.0,55.0,-32.0,-21.0,-22.0,-13.0,-6.0
1701634241.8848736,-20.0,-3.0,4.0,35.0,16.0,19.0,20.0,21.0
1701634241.8848736,23.0,2.0,-95.0,-46.0,-13.0,-5.0,-5.0,-12.0
1701634241.8848736,-48.0,-19.0,2.0,-11.0,-3.0,0.0,4.0,10.0
1701634241.8848736,31.0,37.0,21.0,36.0,10.0,8.0,7.0,7.0
1701634241.9048827,-56.0,-52.0,-80.0,-43.0,-15.0,-23.0,-14.0,-4.0
1701634241.9048827,-11.0,20.0,74.0,12.0,-6.0,18.0,11.0,8.0
1701634241.9048827,20.0,23.0,-37.0,-2.0,13.0,-4.0,18.0,39.0
1701634241.9048827,-89.0,-16.0,-18.0,20.0,4.0,-14.0,-17.0,-25.0
1701634241.9251444,44.0,7.0,-25.0,-46.0,-11.0,27.0,18.0,-20.0
1701634241.9251444,-37.0,-16.0,51.0,47.0,12.0,6.0,7.0,28.0
1701634241.9251444,29.0,-12.0,-41.0,-24.0,-9.0,-12.0,-2.0,15.0
1701634241.9251444,2.0,-17.0,41.0,3.0,3.0,-2.0,-2.0,-10.0
1701634241.9448738,30.0,-1.0,-10.0,-2.0,-2.0,-10.0,-21.0,-12.0
1701634241.9448738,20.0,9.0,6.0,4.0,1.0,-13.0,11.0,19.0
1701634241.9448738,-5.0,-7.0,-12.0,4.0,-1.0,5.0,-30.0,-34.0
1701634241.9448738,-2.0,-2.0,-9.0,-18.0,-15.0,-13.0,-8.0,7.0
1701634241.9649332,21.0,-8.0,-18.0,-19.0,-8.0,-3.0,-14.0,-24.0
1701634241.9649332,39.0,3.0,15.0,8.0,-2.0,-2.0,-2.0,9.0
1701634241.9649332,10.0,-18.0,13.0,-2.0,3.0,-4.0,-3.0,-1.0
1701634241.9649332,-26.0,7.0,-9.0,0.0,-3.0,-11.0,7.0,-15.0
1701634241.9806933,-16.0,0.0,73.0,24.0,3.0,10.0,-3.0,3.0
1701634241.9806933,-5.0,-19.0,-92.0,-69.0,-13.0,-8.0,-6.0,-4.0
1701634241.9806933,4.0,8.0,33.0,32.0,19.0,8.0,8.0,-9.0
1701634241.9806933,3.0,-5.0,-21.0,-12.0,-1.0,8.0,13.0,12.0
1701634242.0006924,3.0,17.0,37.0,-4.0,-12.0,-30.0,1.0,10.0
1701634242.0006924,3.0,-11.0,-6.0,0.0,-2.0,2.0,-11.0,-5.0
1701634242.0108805,-9.0,2.0,49.0,29.0,-1.0,1.0,3.0,-14.0
1701634242.0108805,-6.0,-4.0,-65.0,-51.0,-7.0,-11.0,-3.0,8.0
1701634242.0210795,-1.0,0.0,50.0,63.0,11.0,-4.0,-5.0,0.0
1701634242.0210795,-7.0,4.0,-15.0,-5.0,4.0,4.0,-7.0,-19.0
1701634242.0210795,4.0,-2.0,27.0,-8.0,-12.0,-13.0,-3.0,-9.0
1701634242.0210795,8.0,5.0,-10.0,16.0,7.0,17.0,10.0,4.0
1701634242.041034,0.0,4.0,-3.0,-31.0,-19.0,-8.0,-8.0,2.0
1701634242.041034,17.0,-6.0,-29.0,13.0,12.0,6.0,0.0,9.0
1701634242.041034,-43.0,9.0,-15.0,-14.0,-2.0,13.0,0.0,-28.0
1701634242.041034,-2.0,-7.0,78.0,17.0,-2.0,-2.0,-13.0,-4.0
1701634242.0610862,3.0,-6.0,3.0,17.0,4.0,7.0,1.0,1.0
1701634242.0610862,-13.0,11.0,-58.0,-25.0,0.0,12.0,6.0,-8.0
1701634242.0610862,4.0,-1.0,24.0,26.0,-3.0,-11.0,-2.0,1.0
1701634242.0710824,-7.0,-12.0,-35.0,-29.0,12.0,19.0,13.0,-2.0
1701634242.081322,2.0,2.0,-57.0,-20.0,-6.0,-11.0,-12.0,-12.0
1701634242.081322,-35.0,-3.0,53.0,15.0,-4.0,-5.0,-7.0,-11.0
1701634242.081322,17.0,9.0,-8.0,11.0,5.0,-1.0,2.0,18.0
1701634242.081322,-23.0,-1.0,1.0,14.0,0.0,-4.0,-10.0,-17.0
1701634242.121127,3.0,-25.0,-19.0,-17.0,1.0,-8.0,0.0,11.0
1701634242.121127,3.0,-6.0,21.0,12.0,-2.0,8.0,2.0,-7.0
1701634242.1310825,-11.0,0.0,-13.0,-35.0,-7.0,2.0,6.0,3.0
1701634242.1310825,11.0,15.0,1.0,10.0,2.0,-3.0,-6.0,3.0
1701634242.1310825,-12.0,-12.0,12.0,20.0,19.0,16.0,4.0,0.0
1701634242.1310825,2.0,-11.0,-16.0,-10.0,-11.0,-11.0,-4.0,-3.0
1701634242.1310825,9.0,3.0,12.0,15.0,7.0,20.0,-5.0,-4.0
1701634242.1310825,-18.0,-11.0,-40.0,-35.0,-15.0,-5.0,1.0,3.0
1701634242.141408,-1.0,18.0,59.0,1.0,1.0,8.0,1.0,-4.0
1701634242.141408,7.0,7.0,-2.0,7.0,-5.0,-3.0,-3.0,1.0
1701634242.141408,-1.0,-29.0,-14.0,4.0,1.0,-3.0,1.0,6.0
1701634242.141408,1.0,-17.0,-17.0,-6.0,-7.0,-5.0,-2.0,-4.0
1701634242.171082,-13.0,6.0,-22.0,-19.0,0.0,2.0,0.0,-4.0
1701634242.171082,-10.0,-6.0,77.0,39.0,2.0,4.0,7.0,1.0
1701634242.171082,17.0,6.0,-34.0,-36.0,-13.0,-10.0,-8.0,-2.0
1701634242.171082,-29.0,18.0,18.0,21.0,11.0,13.0,6.0,7.0
1701634242.1810808,6.0,-27.0,-19.0,17.0,13.0,1.0,-3.0,-3.0
1701634242.1810808,17.0,4.0,-19.0,-23.0,-11.0,-13.0,-4.0,9.0
1701634242.1910849,-4.0,3.0,7.0,4.0,6.0,-2.0,3.0,0.0
1701634242.1910849,29.0,6.0,11.0,-5.0,0.0,6.0,6.0,1.0
1701634242.2014468,9.0,1.0,-14.0,-4.0,-6.0,-4.0,-5.0,4.0
1701634242.2014468,1.0,6.0,20.0,18.0,2.0,-15.0,-3.0,6.0
1701634242.2014468,6.0,0.0,-32.0,-13.0,-2.0,16.0,13.0,-12.0
1701634242.2014468,12.0,-8.0,-14.0,-10.0,-5.0,-13.0,-8.0,11.0
1701634242.2310817,-20.0,9.0,-18.0,-17.0,-1.0,6.0,10.0,-7.0
1701634242.2310817,3.0,-12.0,9.0,13.0,0.0,-6.0,-13.0,-9.0
1701634242.2310817,-4.0,12.0,2.0,1.0,7.0,-5.0,3.0,2.0
1701634242.2310817,7.0,16.0,65.0,28.0,-9.0,-4.0,-1.0,3.0
1701634242.24141,-3.0,-18.0,-62.0,-32.0,-9.0,0.0,1.0,-6.0
1701634242.24141,-10.0,16.0,38.0,-7.0,7.0,0.0,-4.0,3.0
1701634242.2510848,15.0,-6.0,0.0,12.0,3.0,4.0,-5.0,4.0
1701634242.2510848,4.0,3.0,17.0,6.0,5.0,2.0,1.0,-7.0
1701634242.261439,13.0,-10.0,-31.0,-8.0,-8.0,-9.0,-3.0,5.0
1701634242.261439,-31.0,13.0,3.0,1.0,-3.0,13.0,-6.0,-10.0
1701634242.2714052,-9.0,-9.0,-13.0,8.0,4.0,-7.0,-4.0,-1.0
1701634242.2714052,2.0,-9.0,15.0,-7.0,-10.0,-10.0,-7.0,-10.0
1701634242.2910838,-18.0,-16.0,8.0,-6.0,-4.0,-3.0,-12.0,-13.0
1701634242.2910838,13.0,6.0,-92.0,-29.0,1.0,2.0,6.0,2.0
1701634242.2910838,-2.0,-10.0,31.0,11.0,-10.0,-19.0,-8.0,-10.0
1701634242.2910838,-13.0,-2.0,-21.0,1.0,5.0,12.0,2.0,2.0
1701634242.3110876,2.0,4.0,17.0,8.0,-7.0,-21.0,2.0,27.0
1701634242.3110876,53.0,5.0,14.0,21.0,8.0,17.0,3.0,-6.0
1701634242.3110876,-25.0,7.0,-10.0,-35.0,-6.0,1.0,-2.0,-3.0
1701634242.3110876,9.0,-20.0,-11.0,2.0,0.0,-3.0,-2.0,4.0
1701634242.3213217,6.0,16.0,-11.0,1.0,-4.0,-1.0,4.0,-14.0
1701634242.3213217,-6.0,-4.0,1.0,-5.0,0.0,2.0,-3.0,5.0
1701634242.3310835,-2.0,-12.0,-18.0,-4.0,-8.0,-1.0,5.0,5.0
1701634242.3310835,17.0,14.0,18.0,-1.0,3.0,4.0,7.0,3.0
1701634242.3411326,-27.0,1.0,50.0,16.0,6.0,9.0,-1.0,-8.0
1701634242.3411326,-9.0,-11.0,-51.0,-15.0,-3.0,-5.0,0.0,15.0
1701634242.3411326,-8.0,-5.0,-21.0,-11.0,-2.0,-12.0,-15.0,-27.0
1701634242.3411326,-18.0,-6.0,-4.0,0.0,3.0,10.0,-7.0,-1.0
1701634242.3614197,5.0,16.0,10.0,7.0,3.0,-4.0,-1.0,-3.0
1701634242.3614197,-2.0,-6.0,19.0,9.0,2.0,-6.0,1.0,-3.0
1701634242.3710845,12.0,16.0,26.0,5.0,-1.0,-1.0,-5.0,12.0
1701634242.3710845,-6.0,-23.0,-26.0,-8.0,-5.0,-11.0,-4.0,4.0
1701634242.3811202,-25.0,-15.0,-27.0,-12.0,-3.0,11.0,-3.0,-4.0
1701634242.3811202,-11.0,9.0,91.0,27.0,1.0,2.0,-2.0,-24.0
1701634242.391085,-19.0,-28.0,-37.0,-40.0,-7.0,-5.0,-2.0,-9.0
1701634242.391085,1.0,12.0,7.0,2.0,-1.0,-7.0,9.0,3.0
1701634242.4011118,2.0,-7.0,-5.0,-3.0,-7.0,-7.0,-6.0,-4.0
1701634242.4011118,27.0,16.0,30.0,6.0,-4.0,-2.0,-5.0,11.0
1701634242.4011118,4.0,21.0,6.0,26.0,5.0,9.0,15.0,5.0
1701634242.4011118,11.0,-16.0,-40.0,-19.0,14.0,0.0,-10.0,9.0
1701634242.421338,-15.0,-21.0,14.0,-4.0,-1.0,1.0,4.0,6.0
1701634242.421338,15.0,-17.0,-18.0,-4.0,-7.0,-18.0,-12.0,-13.0
1701634242.4310856,6.0,22.0,2.0,11.0,2.0,9.0,6.0,10.0
1701634242.4310856,3.0,-24.0,-32.0,-23.0,-9.0,-18.0,-3.0,-7.0
1701634242.4511228,9.0,25.0,8.0,25.0,0.0,6.0,-5.0,-1.0
1701634242.4511228,2.0,-30.0,-51.0,-16.0,5.0,-1.0,2.0,2.0
1701634242.4511228,-6.0,9.0,19.0,7.0,6.0,3.0,-3.0,0.0
1701634242.4511228,-2.0,20.0,29.0,18.0,-4.0,-9.0,-3.0,-13.0
1701634242.461439,11.0,-3.0,-28.0,-27.0,-5.0,-4.0,0.0,9.0
1701634242.461439,7.0,5.0,32.0,5.0,-8.0,0.0,-3.0,2.0
1701634242.461439,-27.0,-22.0,-46.0,-19.0,3.0,5.0,9.0,4.0
1701634242.461439,-15.0,8.0,3.0,0.0,-9.0,-3.0,-7.0,-33.0
1701634242.4812477,24.0,4.0,-9.0,-1.0,-2.0,2.0,-4.0,-4.0
1701634242.4812477,-7.0,13.0,-17.0,-2.0,-1.0,-6.0,-3.0,9.0
1701634242.4911926,15.0,-23.0,45.0,12.0,-2.0,-3.0,1.0,24.0
1701634242.4911926,-2.0,-16.0,-26.0,-20.0,-10.0,1.0,-3.0,-33.0
1701634242.5034547,6.0,23.0,11.0,6.0,9.0,-3.0,4.0,16.0
1701634242.5034547,-19.0,-5.0,-15.0,-12.0,-8.0,-7.0,2.0,-9.0
1701634242.5117872,-9.0,1.0,11.0,21.0,0.0,1.0,-2.0,12.0
1701634242.5117872,3.0,17.0,21.0,3.0,-2.0,-12.0,-1.0,-3.0
1701634242.5237303,4.0,-21.0,-16.0,-17.0,0.0,3.0,5.0,-4.0
1701634242.5237303,-43.0,-34.0,-55.0,-26.0,-7.0,7.0,-1.0,-20.0
1701634242.5237303,14.0,13.0,10.0,9.0,1.0,0.0,2.0,-5.0
1701634242.5237303,3.0,-5.0,-14.0,5.0,-3.0,-1.0,2.0,15.0
1701634242.5435643,-31.0,9.0,27.0,1.0,2.0,-4.0,-3.0,-10.0
1701634242.5435643,1.0,5.0,33.0,-7.0,-4.0,2.0,-3.0,9.0
1701634242.5435643,-12.0,0.0,-12.0,-6.0,-1.0,-9.0,-28.0,-30.0
1701634242.5435643,-6.0,-8.0,11.0,2.0,3.0,15.0,31.0,23.0
1701634242.563381,15.0,0.0,-39.0,-1.0,1.0,4.0,7.0,2.0
1701634242.563381,5.0,23.0,14.0,3.0,3.0,12.0,12.0,5.0
1701634242.5733788,-19.0,-21.0,-9.0,0.0,-2.0,-17.0,7.0,14.0
1701634242.5733788,-3.0,10.0,18.0,13.0,10.0,21.0,-4.0,9.0
1701634242.5837216,12.0,-1.0,5.0,-1.0,-7.0,-10.0,-8.0,-34.0
1701634242.5837216,-11.0,20.0,39.0,19.0,7.0,-4.0,-2.0,0.0
1701634242.5837216,17.0,2.0,-18.0,-15.0,-4.0,-3.0,5.0,-32.0
1701634242.5837216,-50.0,-5.0,38.0,24.0,2.0,-6.0,-17.0,-11.0
1701634242.603679,26.0,7.0,-55.0,-9.0,-2.0,-1.0,21.0,36.0
1701634242.603679,-11.0,0.0,-41.0,-29.0,0.0,5.0,7.0,-3.0
1701634242.603679,-10.0,8.0,69.0,17.0,0.0,12.0,1.0,-2.0
1701634242.603679,9.0,-29.0,0.0,-7.0,-7.0,-7.0,-6.0,-6.0
1701634242.6333828,13.0,8.0,25.0,15.0,7.0,2.0,-5.0,-9.0
1701634242.6333828,8.0,20.0,-19.0,0.0,-6.0,-7.0,-1.0,11.0
1701634242.6333828,-55.0,-44.0,-64.0,-19.0,7.0,2.0,-4.0,-17.0
1701634242.6333828,11.0,27.0,97.0,20.0,2.0,3.0,3.0,9.0
1701634242.6438518,-5.0,5.0,-65.0,-1.0,-1.0,2.0,-18.0,-7.0
1701634242.6438518,-1.0,-34.0,-12.0,1.0,-8.0,-7.0,-1.0,-1.0
1701634242.6542075,8.0,14.0,4.0,-7.0,-1.0,2.0,1.0,12.0
1701634242.6542075,16.0,-7.0,-41.0,-21.0,-3.0,0.0,-4.0,-7.0
1701634242.6642346,-18.0,20.0,103.0,25.0,1.0,-4.0,-4.0,8.0
1701634242.6642346,-20.0,-32.0,-90.0,-15.0,5.0,14.0,-2.0,-11.0
1701634242.6642346,-14.0,-38.0,4.0,-23.0,-7.0,6.0,13.0,-9.0
1701634242.6642346,8.0,8.0,-27.0,-17.0,-8.0,-19.0,-10.0,6.0
1701634242.6838953,59.0,12.0,52.0,-1.0,-7.0,-8.0,-8.0,14.0
1701634242.6838953,11.0,28.0,34.0,22.0,1.0,-12.0,4.0,-4.0
1701634242.693866,40.0,-7.0,-1.0,11.0,8.0,9.0,-8.0,10.0
1701634242.693866,-13.0,1.0,0.0,-1.0,3.0,9.0,9.0,14.0
1701634242.704253,-14.0,-12.0,3.0,-1.0,-3.0,-13.0,-8.0,-18.0
1701634242.704253,12.0,13.0,-52.0,-28.0,-4.0,-1.0,-4.0,6.0
1701634242.704253,10.0,23.0,8.0,7.0,-6.0,-5.0,3.0,-2.0
1701634242.704253,-1.0,-15.0,-7.0,6.0,3.0,-5.0,-6.0,5.0
1701634242.723863,-23.0,2.0,-24.0,-15.0,4.0,0.0,-15.0,-5.0
1701634242.723863,-10.0,-32.0,20.0,15.0,2.0,5.0,21.0,3.0
1701634242.723863,15.0,39.0,22.0,8.0,-7.0,5.0,12.0,14.0
1701634242.723863,-6.0,2.0,-16.0,-3.0,0.0,6.0,-1.0,-17.0
1701634242.7538679,4.0,-6.0,4.0,-26.0,-10.0,3.0,8.0,14.0
1701634242.7538679,-36.0,-3.0,-18.0,33.0,22.0,7.0,-7.0,-14.0
1701634242.7538679,9.0,-13.0,78.0,18.0,-3.0,-11.0,-11.0,3.0
1701634242.7538679,2.0,7.0,-10.0,4.0,-8.0,-13.0,-4.0,-5.0
1701634242.7638667,13.0,16.0,-47.0,-23.0,-3.0,-4.0,-4.0,-3.0
1701634242.7638667,4.0,-11.0,9.0,-18.0,-6.0,-4.0,-5.0,0.0
1701634242.7638667,29.0,24.0,25.0,19.0,2.0,-2.0,0.0,9.0
1701634242.7638667,6.0,-8.0,-14.0,-3.0,-2.0,4.0,3.0,3.0
1701634242.7938616,-31.0,10.0,32.0,29.0,9.0,6.0,10.0,6.0
1701634242.7938616,-10.0,-42.0,23.0,-29.0,-10.0,-15.0,-18.0,-41.0
1701634242.7938616,-1.0,14.0,-31.0,0.0,-7.0,-12.0,-17.0,9.0
1701634242.7938616,14.0,17.0,26.0,8.0,3.0,10.0,7.0,8.0
1701634242.8138683,0.0,-39.0,-49.0,-11.0,-2.0,-5.0,2.0,-10.0
1701634242.8138683,-31.0,21.0,50.0,20.0,7.0,11.0,10.0,11.0
1701634242.8138683,-4.0,-14.0,-5.0,2.0,3.0,5.0,-13.0,-14.0
1701634242.8138683,4.0,12.0,-47.0,-10.0,0.0,3.0,2.0,9.0
1701634242.824122,-18.0,-9.0,45.0,6.0,-5.0,2.0,1.0,-10.0
1701634242.824122,19.0,17.0,-30.0,-4.0,0.0,-7.0,-16.0,3.0
1701634242.8339853,3.0,-35.0,-7.0,-25.0,-7.0,0.0,6.0,-1.0
1701634242.8339853,3.0,13.0,-23.0,0.0,8.0,1.0,-10.0,3.0
1701634242.8538632,-30.0,6.0,-5.0,-2.0,0.0,-6.0,7.0,5.0
1701634242.8538632,-2.0,-4.0,3.0,6.0,-6.0,-2.0,-2.0,-14.0
1701634242.8538632,-14.0,-16.0,-26.0,-4.0,-1.0,-4.0,1.0,10.0
1701634242.8538632,-17.0,0.0,1.0,-15.0,7.0,-7.0,-3.0,-26.0
1701634242.863862,2.0,-22.0,41.0,14.0,-13.0,-9.0,-18.0,-4.0
1701634242.863862,13.0,12.0,21.0,9.0,-2.0,-9.0,-2.0,16.0
1701634242.8738647,10.0,8.0,-25.0,-10.0,11.0,11.0,4.0,1.0
1701634242.8738647,-36.0,-21.0,21.0,-4.0,-12.0,-6.0,2.0,-18.0
1701634242.8842356,-3.0,22.0,11.0,6.0,2.0,-2.0,-11.0,-2.0
1701634242.8842356,8.0,-15.0,18.0,-5.0,-5.0,1.0,-8.0,0.0
1701634242.8842356,-26.0,1.0,-25.0,-24.0,-13.0,-27.0,-18.0,-15.0
1701634242.8842356,-22.0,4.0,1.0,5.0,-2.0,7.0,-1.0,28.0
1701634242.9038625,-4.0,-9.0,-23.0,-13.0,3.0,5.0,12.0,-7.0
1701634242.9038625,1.0,9.0,25.0,13.0,-2.0,17.0,15.0,13.0
1701634242.9038625,-2.0,23.0,13.0,16.0,4.0,5.0,7.0,8.0
1701634242.9038625,-3.0,-15.0,0.0,-12.0,-6.0,-3.0,4.0,-8.0
1701634242.9238656,-1.0,-5.0,7.0,4.0,0.0,-7.0,-13.0,-8.0
1701634242.9238656,-10.0,-21.0,-28.0,-21.0,-5.0,-13.0,0.0,1.0
1701634242.9238656,17.0,15.0,-13.0,12.0,9.0,1.0,-18.0,10.0
1701634242.933867,4.0,3.0,-11.0,-5.0,-6.0,1.0,2.0,4.0
1701634242.944204,11.0,-22.0,1.0,-4.0,-7.0,3.0,7.0,-7.0
1701634242.944204,4.0,21.0,47.0,30.0,16.0,0.0,1.0,8.0
1701634242.944204,8.0,5.0,-43.0,-19.0,-10.0,-8.0,-4.0,-5.0
1701634242.944204,23.0,-8.0,15.0,14.0,1.0,-15.0,-4.0,6.0
1701634242.9638624,15.0,16.0,-2.0,-24.0,-11.0,4.0,9.0,8.0
1701634242.9638624,-5.0,-13.0,-13.0,3.0,6.0,4.0,-7.0,0.0
1701634242.9638624,-2.0,-11.0,20.0,24.0,8.0,5.0,1.0,-22.0
1701634242.9638624,13.0,-3.0,3.0,-7.0,-8.0,-18.0,6.0,8.0
1701634242.993868,-5.0,17.0,30.0,-20.0,-4.0,3.0,4.0,4.0
1701634242.993868,-6.0,-13.0,-18.0,-13.0,-6.0,0.0,-2.0,-11.0
1701634242.993868,-7.0,24.0,20.0,18.0,8.0,0.0,5.0,7.0
1701634242.993868,19.0,2.0,-5.0,-11.0,-5.0,-9.0,-5.0,-13.0
1701634243.028912,-7.0,-35.0,-28.0,18.0,9.0,14.0,13.0,-3.0
1701634243.028912,11.0,18.0,12.0,-20.0,-15.0,-7.0,-4.0,13.0
1701634243.028912,-24.0,-8.0,-12.0,-22.0,-3.0,-1.0,-1.0,-1.0
1701634243.028912,-4.0,-6.0,-13.0,20.0,7.0,4.0,-6.0,16.0
1701634243.0299387,-10.0,-6.0,-4.0,4.0,-6.0,9.0,2.0,-16.0
1701634243.0299387,0.0,2.0,-9.0,-1.0,0.0,-5.0,-10.0,-8.0
1701634243.0309124,15.0,0.0,17.0,-4.0,-3.0,7.0,17.0,30.0
1701634243.0309124,-21.0,-16.0,-35.0,-21.0,0.0,3.0,-3.0,-12.0
1701634243.0463269,15.0,2.0,-19.0,9.0,1.0,-9.0,-8.0,23.0
1701634243.0463269,35.0,12.0,-5.0,-21.0,-3.0,-10.0,-1.0,3.0
1701634243.0463269,-27.0,-3.0,22.0,11.0,0.0,6.0,-4.0,-14.0
1701634243.0463269,3.0,-4.0,-20.0,-7.0,-7.0,-2.0,0.0,-1.0
1701634243.066328,1.0,23.0,31.0,4.0,7.0,4.0,-3.0,0.0
1701634243.066328,-7.0,-18.0,-17.0,9.0,-2.0,-1.0,1.0,-6.0
1701634243.066328,7.0,5.0,31.0,6.0,-6.0,-1.0,-1.0,1.0
1701634243.066328,5.0,1.0,-17.0,-2.0,11.0,6.0,1.0,-2.0
1701634243.0866184,-13.0,-17.0,-41.0,-17.0,-5.0,-8.0,-3.0,-11.0
1701634243.0866184,5.0,23.0,31.0,4.0,-6.0,1.0,3.0,5.0
1701634243.0866184,3.0,-14.0,-9.0,-1.0,1.0,-1.0,-1.0,-5.0
1701634243.0866184,6.0,-3.0,17.0,11.0,-2.0,-4.0,-3.0,2.0
1701634243.10662,-1.0,-3.0,-11.0,-4.0,5.0,11.0,5.0,3.0
1701634243.10662,-14.0,-4.0,29.0,11.0,-4.0,-4.0,-6.0,-24.0
1701634243.10662,2.0,-6.0,-23.0,-6.0,-1.0,-5.0,3.0,0.0
1701634243.10662,1.0,8.0,23.0,6.0,-5.0,2.0,3.0,7.0
1701634243.1463263,1.0,9.0,-1.0,-1.0,3.0,-13.0,-19.0,-24.0
1701634243.1463263,-19.0,-22.0,-27.0,-12.0,2.0,15.0,3.0,-1.0
1701634243.1463263,9.0,2.0,-7.0,-6.0,-4.0,-13.0,8.0,-5.0
1701634243.1463263,-16.0,16.0,7.0,8.0,6.0,29.0,6.0,9.0
1701634243.1463263,4.0,-6.0,11.0,4.0,-1.0,-2.0,5.0,-6.0
1701634243.1463263,1.0,-1.0,-16.0,1.0,1.0,-6.0,-4.0,15.0
1701634243.1463263,12.0,6.0,-3.0,-14.0,0.0,0.0,0.0,-8.0
1701634243.1463263,-12.0,1.0,18.0,10.0,-6.0,-11.0,-13.0,0.0
1701634243.1763272,2.0,-3.0,-32.0,-8.0,4.0,-4.0,2.0,6.0
1701634243.1763272,-2.0,0.0,6.0,8.0,5.0,-1.0,-15.0,-5.0
1701634243.1763272,-1.0,4.0,27.0,-4.0,-9.0,-5.0,6.0,-2.0
1701634243.1763272,9.0,4.0,-26.0,-9.0,-2.0,-1.0,1.0,-9.0
1701634243.1867087,-10.0,-5.0,16.0,-4.0,-1.0,2.0,-7.0,-1.0
1701634243.1867087,-2.0,5.0,-25.0,14.0,5.0,3.0,11.0,21.0
1701634243.1867087,-34.0,-25.0,-14.0,0.0,-5.0,-11.0,-13.0,-18.0
1701634243.1867087,-4.0,-19.0,33.0,8.0,1.0,0.0,-2.0,0.0
1701634243.2067423,16.0,2.0,-33.0,-18.0,-4.0,-10.0,-5.0,-6.0
1701634243.2067423,17.0,15.0,-2.0,5.0,4.0,10.0,6.0,13.0
1701634243.2067423,-9.0,-3.0,-13.0,-3.0,0.0,0.0,-10.0,-5.0
1701634243.2067423,3.0,-5.0,13.0,-1.0,-2.0,6.0,11.0,-4.0
1701634243.2363276,0.0,16.0,14.0,6.0,-3.0,5.0,-2.0,9.0
1701634243.2363276,-3.0,0.0,12.0,14.0,7.0,-5.0,-2.0,-15.0
1701634243.2363276,5.0,-5.0,-9.0,-2.0,1.0,-1.0,-2.0,-1.0
1701634243.2363276,-4.0,-10.0,-4.0,7.0,-2.0,-5.0,-5.0,-7.0
1701634243.246326,11.0,3.0,-18.0,-18.0,-7.0,-8.0,-5.0,13.0
1701634243.246326,-14.0,-7.0,27.0,-2.0,-13.0,-8.0,0.0,-16.0
1701634243.246326,-21.0,-2.0,-19.0,0.0,3.0,0.0,-2.0,-1.0
1701634243.246326,2.0,-2.0,-11.0,-6.0,3.0,0.0,4.0,2.0
1701634243.2667456,-3.0,6.0,-30.0,5.0,0.0,-10.0,-7.0,-2.0
1701634243.2667456,2.0,-3.0,-18.0,-26.0,-2.0,4.0,-5.0,4.0
1701634243.2667456,11.0,1.0,49.0,18.0,2.0,14.0,10.0,-4.0
1701634243.2667456,-13.0,-8.0,-45.0,-23.0,-11.0,-12.0,-5.0,-4.0
1701634243.2863262,-15.0,-10.0,15.0,18.0,15.0,14.0,12.0,12.0
1701634243.2863262,9.0,-7.0,23.0,12.0,-1.0,1.0,0.0,-9.0
1701634243.2863262,19.0,25.0,3.0,2.0,-5.0,-5.0,-6.0,27.0
1701634243.2863262,-30.0,-9.0,-19.0,-16.0,2.0,-2.0,-3.0,-32.0
1701634243.3065014,4.0,4.0,17.0,0.0,-1.0,-3.0,-4.0,-4.0
1701634243.3065014,-1.0,17.0,-22.0,-6.0,-8.0,2.0,14.0,5.0
1701634243.3065014,3.0,-25.0,-16.0,-8.0,2.0,0.0,-1.0,2.0
1701634243.3065014,12.0,2.0,2.0,-6.0,-7.0,-6.0,-4.0,1.0
1701634243.3267713,-4.0,-10.0,17.0,23.0,5.0,1.0,-2.0,1.0
1701634243.3267713,-11.0,1.0,10.0,-18.0,-7.0,-13.0,-7.0,-13.0
1701634243.3267713,-3.0,-2.0,8.0,5.0,-3.0,2.0,0.0,-4.0
1701634243.3267713,10.0,10.0,-7.0,3.0,5.0,4.0,-6.0,3.0
1701634243.3463635,-15.0,-27.0,-17.0,-21.0,-7.0,-1.0,0.0,-7.0
1701634243.3463635,25.0,13.0,43.0,18.0,0.0,-3.0,2.0,8.0
1701634243.3463635,-5.0,-6.0,5.0,12.0,5.0,3.0,6.0,0.0
1701634243.3463635,18.0,2.0,-25.0,-2.0,1.0,-11.0,-8.0,2.0
1701634243.3665452,-12.0,0.0,-38.0,-35.0,-11.0,2.0,5.0,-3.0
1701634243.3665452,0.0,-5.0,-14.0,3.0,4.0,3.0,-4.0,8.0
1701634243.3665452,7.0,20.0,11.0,2.0,1.0,-3.0,0.0,-15.0
1701634243.3665452,4.0,-4.0,34.0,7.0,2.0,4.0,7.0,4.0
1701634243.386662,-21.0,-5.0,-14.0,8.0,3.0,-6.0,3.0,-7.0
1701634243.386662,-9.0,0.0,-11.0,-13.0,-9.0,-15.0,-9.0,-4.0
1701634243.386662,12.0,-16.0,-21.0,0.0,5.0,3.0,9.0,3.0
1701634243.386662,-7.0,7.0,6.0,3.0,-2.0,6.0,4.0,4.0
1701634243.4063594,-19.0,-5.0,-8.0,3.0,-1.0,4.0,-4.0,-7.0
1701634243.4063594,2.0,4.0,19.0,-5.0,-3.0,-3.0,-1.0,-4.0
1701634243.4063594,4.0,7.0,-12.0,-6.0,1.0,-4.0,-6.0,1.0
1701634243.4063594,5.0,-4.0,0.0,-14.0,-3.0,-5.0,6.0,-2.0
1701634243.4264033,-3.0,13.0,32.0,33.0,2.0,0.0,-6.0,15.0
1701634243.4264033,-17.0,-16.0,-20.0,-40.0,-8.0,-3.0,-3.0,-9.0
1701634243.436543,10.0,-1.0,-5.0,15.0,-3.0,-17.0,-5.0,4.0
1701634243.436543,-25.0,-9.0,-6.0,-5.0,-3.0,6.0,-7.0,-4.0
1701634243.4465897,10.0,9.0,6.0,-2.0,5.0,0.0,10.0,-9.0
1701634243.4465897,2.0,-6.0,2.0,4.0,-1.0,4.0,-3.0,-2.0
1701634243.4465897,13.0,8.0,23.0,-3.0,-5.0,-9.0,3.0,5.0
1701634243.4465897,17.0,8.0,18.0,2.0,6.0,8.0,0.0,13.0
1701634243.4666011,13.0,13.0,-1.0,-1.0,-7.0,-5.0,6.0,6.0
1701634243.4666011,-11.0,-18.0,-37.0,3.0,3.0,-3.0,-17.0,-31.0
1701634243.4666011,-11.0,-20.0,9.0,-8.0,6.0,15.0,16.0,-1.0
1701634243.4666011,18.0,12.0,-39.0,-3.0,-6.0,-17.0,-19.0,-7.0
1701634243.506328,4.0,1.0,32.0,11.0,0.0,1.0,4.0,7.0
1701634243.506328,-5.0,-16.0,-23.0,-3.0,5.0,2.0,1.0,5.0
1701634243.506328,-8.0,9.0,-2.0,-5.0,-10.0,-4.0,-15.0,-8.0
1701634243.506328,-2.0,9.0,20.0,4.0,1.0,-8.0,-4.0,-3.0
1701634243.506328,12.0,-16.0,6.0,-6.0,-2.0,11.0,12.0,6.0
1701634243.506328,-22.0,8.0,-16.0,10.0,-10.0,-4.0,7.0,-3.0
1701634243.506328,-2.0,-17.0,-27.0,-11.0,6.0,2.0,1.0,-3.0
1701634243.506328,-5.0,2.0,2.0,4.0,-2.0,-8.0,-6.0,1.0
1701634243.5265672,9.0,5.0,34.0,7.0,4.0,-2.0,-10.0,-9.0
1701634243.5265672,-1.0,12.0,13.0,18.0,2.0,-2.0,8.0,11.0
1701634243.5265672,-12.0,-8.0,-5.0,-20.0,-8.0,2.0,-9.0,-12.0
1701634243.5265672,-1.0,-1.0,-5.0,1.0,-6.0,-8.0,-2.0,11.0
1701634243.5550659,1.0,3.0,-22.0,-20.0,-3.0,0.0,-8.0,-4.0
1701634243.5560687,9.0,3.0,14.0,5.0,5.0,3.0,5.0,15.0
1701634243.5571175,-12.0,-16.0,-18.0,-13.0,-4.0,-6.0,-14.0,-12.0
1701634243.5571175,-2.0,-1.0,38.0,11.0,6.0,3.0,7.0,4.0
1701634243.576391,1.0,-2.0,-49.0,-20.0,-12.0,-9.0,-9.0,4.0
1701634243.5773966,-10.0,-8.0,42.0,19.0,3.0,4.0,2.0,0.0
1701634243.5890076,17.0,3.0,-53.0,-16.0,-3.0,-3.0,-4.0,5.0
1701634243.5890076,-16.0,-18.0,3.0,8.0,-1.0,0.0,-2.0,-9.0
1701634243.5890076,2.0,-2.0,26.0,12.0,3.0,-2.0,-9.0,0.0
1701634243.5890076,13.0,11.0,-23.0,-21.0,-8.0,-17.0,-6.0,-28.0
1701634243.5890076,-1.0,18.0,9.0,16.0,5.0,8.0,0.0,6.0
1701634243.5890076,3.0,-6.0,-8.0,-9.0,-3.0,3.0,0.0,-4.0
1701634243.6090462,-8.0,3.0,1.0,13.0,4.0,-3.0,-1.0,-4.0
1701634243.6090462,0.0,-7.0,2.0,3.0,-4.0,1.0,-4.0,2.0
1701634243.6090462,-3.0,-6.0,2.0,3.0,2.0,2.0,-1.0,2.0
1701634243.6090462,4.0,7.0,-4.0,-4.0,4.0,9.0,2.0,-5.0
1701634243.6290057,-9.0,-25.0,-28.0,-20.0,-6.0,2.0,4.0,-3.0
1701634243.6290057,18.0,18.0,8.0,4.0,0.0,-4.0,0.0,11.0
1701634243.6290057,5.0,17.0,8.0,5.0,-6.0,-6.0,8.0,0.0
1701634243.6290057,-23.0,-20.0,0.0,-11.0,3.0,-4.0,2.0,-8.0
1701634243.6492455,8.0,-9.0,-3.0,3.0,2.0,9.0,-3.0,14.0
1701634243.6492455,21.0,-8.0,-3.0,-8.0,-2.0,2.0,10.0,-4.0
1701634243.6492455,-1.0,3.0,0.0,18.0,4.0,2.0,-8.0,-1.0
1701634243.6492455,0.0,-9.0,-55.0,-23.0,-7.0,-17.0,-11.0,-5.0
1701634243.6690218,-3.0,12.0,41.0,-4.0,0.0,10.0,18.0,-11.0
1701634243.6690218,-7.0,-14.0,-39.0,-15.0,-5.0,2.0,-3.0,3.0
1701634243.6690218,5.0,6.0,11.0,1.0,-4.0,-2.0,5.0,6.0
1701634243.6690218,-7.0,4.0,4.0,20.0,4.0,2.0,5.0,4.0
1701634243.6890519,3.0,-15.0,3.0,-3.0,2.0,-2.0,-6.0,-4.0
1701634243.6890519,-7.0,-1.0,6.0,3.0,3.0,4.0,-2.0,-2.0
1701634243.709008,-6.0,-22.0,-1.0,-2.0,0.0,0.0,-3.0,-7.0
1701634243.709008,3.0,11.0,6.0,7.0,-1.0,0.0,-10.0,-4.0
1701634243.7190042,-13.0,9.0,-21.0,-21.0,-9.0,-5.0,-2.0,-4.0
1701634243.7190042,4.0,-3.0,44.0,21.0,2.0,-10.0,-4.0,-2.0
1701634243.7190042,-6.0,6.0,0.0,2.0,-6.0,-1.0,-5.0,-7.0
1701634243.7190042,4.0,-4.0,0.0,-11.0,0.0,8.0,-1.0,5.0
1701634243.7390318,14.0,4.0,9.0,33.0,3.0,-7.0,3.0,3.0
1701634243.7390318,-20.0,4.0,12.0,-28.0,-6.0,3.0,-3.0,-1.0
1701634243.7390318,-9.0,-7.0,-49.0,2.0,1.0,-12.0,-7.0,-2.0
1701634243.7390318,14.0,10.0,6.0,-6.0,-2.0,4.0,2.0,0.0
1701634243.7493284,10.0,0.0,-25.0,-5.0,-2.0,-7.0,-7.0,2.0
1701634243.7493284,-22.0,3.0,11.0,3.0,2.0,4.0,-3.0,-3.0
1701634243.7593622,-32.0,1.0,13.0,-8.0,-6.0,-6.0,9.0,0.0
1701634243.7593622,-7.0,-1.0,8.0,9.0,8.0,-4.0,-7.0,-6.0
1701634243.769323,1.0,4.0,-1.0,-3.0,0.0,15.0,3.0,-9.0
1701634243.769323,4.0,-7.0,-16.0,-2.0,-5.0,0.0,0.0,5.0
1701634243.769323,-1.0,13.0,8.0,-11.0,-1.0,0.0,-3.0,1.0
1701634243.769323,8.0,-4.0,-3.0,-4.0,-4.0,-3.0,3.0,3.0
1701634243.7890055,-2.0,3.0,6.0,3.0,3.0,-6.0,-12.0,-11.0
1701634243.7890055,23.0,14.0,27.0,20.0,5.0,3.0,6.0,13.0
1701634243.7890055,-20.0,-27.0,-30.0,-27.0,-5.0,2.0,-3.0,-10.0
1701634243.7890055,2.0,0.0,-11.0,15.0,-1.0,-2.0,-4.0,-3.0
1701634243.8097916,3.0,-6.0,25.0,9.0,-7.0,-6.0,-6.0,5.0
1701634243.8097916,2.0,5.0,-14.0,1.0,1.0,-4.0,3.0,-4.0
1701634243.8097916,22.0,4.0,7.0,-23.0,-6.0,-4.0,2.0,16.0
1701634243.8097916,-17.0,-5.0,0.0,1.0,3.0,4.0,5.0,-2.0
1701634243.8297684,-13.0,4.0,-3.0,-3.0,8.0,4.0,4.0,1.0
1701634243.8297684,2.0,1.0,-27.0,-6.0,-6.0,-6.0,-2.0,-7.0
1701634243.8297684,-12.0,3.0,19.0,3.0,1.0,-3.0,-3.0,0.0
1701634243.8297684,1.0,-11.0,13.0,24.0,0.0,-4.0,-4.0,-17.0
1701634243.8493664,-4.0,-15.0,-19.0,-21.0,-8.0,-10.0,-2.0,-3.0
1701634243.8493664,-1.0,2.0,-7.0,-11.0,0.0,0.0,-8.0,2.0
1701634243.8493664,14.0,3.0,22.0,9.0,6.0,9.0,13.0,2.0
1701634243.8493664,-8.0,-11.0,-16.0,-19.0,-14.0,-9.0,-3.0,1.0
1701634243.869477,2.0,4.0,17.0,15.0,8.0,2.0,14.0,1.0
1701634243.869477,-14.0,-15.0,-39.0,-6.0,-2.0,2.0,3.0,-3.0
1701634243.869477,11.0,11.0,50.0,16.0,0.0,8.0,-13.0,1.0
1701634243.869477,-1.0,-14.0,-16.0,-24.0,-3.0,5.0,14.0,8.0
1701634243.8896756,23.0,2.0,9.0,-15.0,-8.0,-9.0,-8.0,-24.0
1701634243.8896756,2.0,-1.0,0.0,-5.0,-2.0,-5.0,-3.0,3.0
1701634243.8896756,-6.0,4.0,-1.0,4.0,-3.0,-8.0,1.0,-13.0
1701634243.8896756,28.0,19.0,20.0,17.0,-3.0,-2.0,-2.0,7.0
1701634243.9293642,-11.0,-6.0,-11.0,2.0,4.0,6.0,-6.0,-5.0
1701634243.9293642,-11.0,-14.0,-7.0,0.0,-5.0,-4.0,-3.0,-3.0
1701634243.9293642,-6.0,-4.0,-36.0,-9.0,3.0,-2.0,-11.0,-7.0
1701634243.9293642,1.0,14.0,30.0,2.0,-4.0,7.0,-2.0,3.0
1701634243.9293642,-3.0,6.0,-24.0,-2.0,2.0,-5.0,7.0,5.0
1701634243.9293642,3.0,0.0,8.0,19.0,15.0,4.0,1.0,5.0
1701634243.9293642,-14.0,-28.0,36.0,33.0,6.0,-1.0,-6.0,6.0
1701634243.9293642,-8.0,5.0,-12.0,-52.0,-13.0,-6.0,-1.0,-19.0
1701634243.9497876,-14.0,-2.0,-4.0,3.0,-5.0,-1.0,-2.0,7.0
1701634243.9497876,4.0,18.0,-16.0,-3.0,-7.0,-5.0,0.0,0.0
1701634243.9497876,9.0,0.0,-18.0,-5.0,14.0,2.0,-11.0,-6.0
1701634243.9497876,2.0,19.0,10.0,10.0,7.0,7.0,-2.0,6.0
1701634243.9693658,-9.0,-25.0,-16.0,-2.0,-11.0,2.0,8.0,-9.0
1701634243.9693658,-13.0,-3.0,-5.0,3.0,10.0,-6.0,2.0,0.0
1701634243.9693658,3.0,2.0,-13.0,-6.0,-4.0,16.0,-2.0,2.0
1701634243.9693658,-4.0,13.0,21.0,13.0,6.0,5.0,6.0,-2.0
1701634243.9896235,10.0,-13.0,3.0,-18.0,-16.0,-14.0,-13.0,3.0
1701634243.9896235,14.0,-12.0,-3.0,5.0,0.0,11.0,8.0,9.0
1701634243.999366,-22.0,16.0,-5.0,-3.0,-8.0,-15.0,-5.0,-4.0
1701634243.999366,5.0,-6.0,29.0,14.0,13.0,1.0,2.0,-1.0
1701634244.0093677,-11.0,-10.0,13.0,6.0,4.0,9.0,13.0,10.0
1701634244.0093677,-5.0,-17.0,6.0,-3.0,-1.0,4.0,-6.0,4.0
1701634244.019364,6.0,11.0,-38.0,-10.0,-10.0,-8.0,-1.0,-6.0
1701634244.019364,0.0,-8.0,-44.0,-25.0,-5.0,-3.0,-8.0,-12.0
1701634244.0393734,-15.0,21.0,10.0,6.0,1.0,-14.0,0.0,-4.0
1701634244.0393734,-4.0,-3.0,21.0,3.0,-4.0,15.0,-1.0,-7.0
1701634244.0393734,16.0,16.0,15.0,-3.0,0.0,5.0,3.0,-1.0
1701634244.0393734,-14.0,-18.0,10.0,0.0,-5.0,-16.0,-11.0,-1.0
1701634244.0493698,19.0,14.0,-25.0,4.0,-1.0,3.0,12.0,28.0
1701634244.0493698,-20.0,-16.0,-21.0,-14.0,0.0,2.0,-14.0,-33.0
1701634244.0493698,14.0,-3.0,9.0,2.0,-7.0,-9.0,-3.0,11.0
1701634244.0493698,-6.0,13.0,14.0,16.0,9.0,12.0,12.0,-4.0
1701634244.090104,39.0,-19.0,46.0,5.0,-1.0,-13.0,-20.0,16.0
1701634244.090104,6.0,25.0,-15.0,-10.0,-6.0,-10.0,-25.0,-8.0
1701634244.090104,3.0,-35.0,-8.0,-1.0,1.0,5.0,24.0,8.0
1701634244.090104,0.0,5.0,-25.0,-4.0,-1.0,17.0,5.0,2.0
1701634244.095105,-18.0,5.0,5.0,11.0,1.0,-10.0,-12.0,-1.0
1701634244.095105,43.0,6.0,51.0,-5.0,-6.0,8.0,-9.0,-3.0
1701634244.096104,-19.0,6.0,26.0,11.0,0.0,-11.0,0.0,-4.0
1701634244.0971062,13.0,-7.0,-50.0,-21.0,-10.0,-11.0,-1.0,13.0
1701634244.1093168,-18.0,0.0,2.0,10.0,8.0,6.0,-7.0,-22.0
1701634244.1093168,22.0,-2.0,-70.0,-36.0,-8.0,0.0,17.0,24.0
1701634244.1118073,4.0,-16.0,1.0,0.0,-6.0,-14.0,-23.0,3.0
1701634244.1118073,-20.0,6.0,10.0,4.0,-2.0,10.0,29.0,1.0
1701634244.131808,-4.0,-10.0,6.0,3.0,-11.0,-19.0,1.0,-9.0
1701634244.131808,-27.0,11.0,16.0,3.0,2.0,3.0,12.0,16.0
1701634244.1418078,2.0,-5.0,-10.0,-15.0,3.0,2.0,-6.0,-20.0
1701634244.1418078,-2.0,-1.0,10.0,-2.0,-6.0,-10.0,-15.0,7.0
1701634244.1522014,-18.0,-14.0,-34.0,-12.0,-4.0,0.0,4.0,1.0
1701634244.1522014,19.0,10.0,30.0,27.0,11.0,-11.0,2.0,-7.0
1701634244.1522014,-4.0,15.0,-29.0,3.0,4.0,14.0,5.0,0.0
1701634244.1522014,0.0,-34.0,20.0,3.0,-5.0,-6.0,-15.0,-6.0
1701634244.1621804,-10.0,6.0,-36.0,-38.0,-7.0,6.0,5.0,21.0
1701634244.1621804,6.0,-3.0,8.0,8.0,0.0,1.0,1.0,-11.0
1701634244.181809,-5.0,14.0,-5.0,7.0,7.0,6.0,9.0,2.0
1701634244.181809,11.0,2.0,-3.0,12.0,2.0,-5.0,-12.0,-2.0
1701634244.1918151,5.0,-2.0,-7.0,-1.0,-4.0,13.0,2.0,-6.0
1701634244.1918151,-7.0,-6.0,9.0,-7.0,-10.0,-15.0,0.0,4.0
1701634244.1918151,-19.0,-18.0,-31.0,-4.0,14.0,3.0,-1.0,-7.0
1701634244.1918151,3.0,16.0,35.0,12.0,-3.0,5.0,0.0,2.0
1701634244.2120786,7.0,-17.0,-23.0,-8.0,-2.0,-6.0,-19.0,-3.0
1701634244.2120786,-5.0,-1.0,-15.0,3.0,-1.0,2.0,9.0,-3.0
1701634244.2120786,5.0,-1.0,35.0,27.0,4.0,8.0,17.0,7.0
1701634244.2120786,-9.0,-11.0,-30.0,-49.0,-8.0,-8.0,-8.0,-5.0
1701634244.2220771,2.0,25.0,38.0,16.0,5.0,3.0,-4.0,-1.0
1701634244.2220771,-24.0,-12.0,-49.0,-8.0,3.0,-7.0,-5.0,-2.0
1701634244.2518117,14.0,-3.0,50.0,17.0,-18.0,-12.0,-16.0,15.0
1701634244.2518117,21.0,10.0,-18.0,-8.0,6.0,4.0,14.0,-12.0
1701634244.2518117,-4.0,7.0,14.0,2.0,-1.0,-1.0,-2.0,-21.0
1701634244.2518117,-13.0,-5.0,-43.0,-19.0,4.0,4.0,-2.0,-4.0
1701634244.2518117,6.0,8.0,1.0,-4.0,0.0,-9.0,-5.0,-3.0
1701634244.2518117,10.0,2.0,29.0,16.0,-4.0,2.0,-2.0,7.0
1701634244.2722156,-10.0,-15.0,-52.0,-21.0,-5.0,-10.0,7.0,-2.0
1701634244.2722156,-16.0,15.0,38.0,12.0,4.0,6.0,4.0,-3.0
1701634244.2722156,1.0,-15.0,-54.0,-54.0,-15.0,-6.0,-7.0,-11.0
1701634244.2722156,-22.0,-6.0,34.0,29.0,0.0,-10.0,-12.0,-7.0
1701634244.2821903,11.0,3.0,-6.0,10.0,9.0,12.0,8.0,5.0
1701634244.2821903,-7.0,-8.0,37.0,22.0,-2.0,-10.0,-10.0,-8.0
1701634244.3018076,-1.0,0.0,-19.0,-30.0,-10.0,-10.0,-4.0,-4.0
1701634244.3018076,-10.0,5.0,4.0,-4.0,-3.0,3.0,5.0,0.0
1701634244.312083,-12.0,-5.0,18.0,20.0,5.0,4.0,-5.0,-5.0
1701634244.312083,5.0,4.0,12.0,-11.0,-3.0,-4.0,2.0,2.0
1701634244.312083,-6.0,-4.0,24.0,-2.0,-9.0,8.0,-1.0,-1.0
1701634244.312083,16.0,-6.0,-35.0,-14.0,3.0,-9.0,5.0,0.0
1701634244.3321311,10.0,39.0,30.0,-1.0,6.0,0.0,-9.0,-3.0
1701634244.3321311,-2.0,-53.0,12.0,7.0,1.0,-3.0,0.0,5.0
1701634244.3321311,5.0,8.0,-65.0,-13.0,-3.0,-3.0,-7.0,-7.0
1701634244.3321311,-29.0,-3.0,9.0,18.0,5.0,16.0,-20.0,-14.0
1701634244.3420746,3.0,-8.0,-8.0,-16.0,-4.0,3.0,21.0,1.0
1701634244.3420746,6.0,17.0,54.0,26.0,8.0,11.0,0.0,8.0
1701634244.36181,-4.0,-10.0,-34.0,-31.0,-6.0,-6.0,6.0,-4.0
1701634244.36181,0.0,6.0,31.0,42.0,5.0,-8.0,-9.0,9.0
1701634244.3718436,-4.0,-10.0,9.0,-12.0,-4.0,-4.0,-6.0,1.0
1701634244.3718436,20.0,17.0,-29.0,6.0,3.0,-11.0,-13.0,-17.0
1701634244.3718436,-10.0,-8.0,48.0,18.0,11.0,13.0,11.0,-4.0
1701634244.3718436,9.0,-23.0,-22.0,-13.0,-9.0,-17.0,1.0,20.0
1701634244.3921099,6.0,22.0,31.0,22.0,7.0,8.0,-1.0,-1.0
1701634244.3921099,-4.0,3.0,7.0,15.0,-5.0,-9.0,-2.0,19.0
1701634244.3921099,39.0,-9.0,-62.0,-24.0,-5.0,0.0,-11.0,-27.0
1701634244.3921099,5.0,14.0,43.0,9.0,1.0,-8.0,2.0,-10.0
1701634244.4218082,9.0,-29.0,-38.0,-27.0,-9.0,6.0,2.0,-3.0
1701634244.4218082,8.0,10.0,60.0,10.0,-1.0,-9.0,-5.0,6.0
1701634244.4218082,-8.0,8.0,-25.0,-16.0,-7.0,-13.0,0.0,3.0
1701634244.4218082,-4.0,-8.0,13.0,13.0,5.0,13.0,0.0,-7.0
1701634244.4320533,-1.0,14.0,-32.0,-5.0,-3.0,-4.0,6.0,8.0
1701634244.4320533,-9.0,2.0,33.0,9.0,-13.0,-13.0,-3.0,-2.0
1701634244.4320533,11.0,-18.0,-21.0,-6.0,10.0,15.0,6.0,11.0
1701634244.4320533,-9.0,-4.0,-16.0,-7.0,0.0,4.0,11.0,-2.0
1701634244.4521334,7.0,-3.0,18.0,17.0,-4.0,-11.0,-20.0,3.0
1701634244.4521334,9.0,1.0,-32.0,-21.0,-2.0,-14.0,0.0,-5.0
1701634244.4521334,7.0,27.0,88.0,33.0,6.0,4.0,-1.0,-1.0
1701634244.4521334,-16.0,-3.0,-54.0,-35.0,-17.0,-7.0,5.0,10.0
1701634244.4718094,-7.0,-13.0,-38.0,-51.0,-7.0,18.0,1.0,-9.0
1701634244.4718094,-2.0,-16.0,-7.0,-4.0,-7.0,-15.0,-15.0,-11.0
1701634244.4718094,-1.0,-12.0,3.0,30.0,4.0,-2.0,12.0,19.0
1701634244.4718094,39.0,-5.0,-42.0,-40.0,-3.0,1.0,1.0,-7.0
1701634244.492114,-12.0,14.0,36.0,38.0,9.0,-4.0,6.0,-15.0
1701634244.492114,14.0,9.0,-18.0,-25.0,-6.0,13.0,-14.0,-14.0
1701634244.492114,1.0,25.0,58.0,38.0,13.0,3.0,10.0,27.0
1701634244.492114,-27.0,-40.0,-57.0,-22.0,-9.0,-2.0,-8.0,-31.0
1701634244.5121133,-38.0,6.0,-11.0,-12.0,-2.0,-11.0,-8.0,-5.0
1701634244.5121133,4.0,-10.0,-25.0,-1.0,9.0,18.0,15.0,13.0
1701634244.5121133,-27.0,3.0,11.0,-2.0,-8.0,-6.0,-16.0,-26.0
1701634244.5121133,-20.0,16.0,32.0,18.0,-5.0,-5.0,-9.0,0.0
1701634244.541808,14.0,15.0,28.0,17.0,7.0,12.0,3.0,3.0
1701634244.541808,-14.0,-34.0,-54.0,-26.0,-1.0,-4.0,0.0,-4.0
1701634244.541808,-13.0,16.0,17.0,0.0,-3.0,-5.0,-6.0,0.0
1701634244.541808,13.0,6.0,22.0,1.0,-4.0,-1.0,2.0,12.0
1701634244.5519762,-12.0,-7.0,-15.0,0.0,-2.0,-19.0,-28.0,-9.0
1701634244.5519762,0.0,-7.0,21.0,31.0,12.0,7.0,0.0,3.0
1701634244.5519762,-8.0,12.0,-74.0,-41.0,-10.0,11.0,18.0,5.0
1701634244.5519762,-4.0,-36.0,55.0,8.0,5.0,-6.0,-17.0,-8.0
1701634244.5720904,-18.0,-9.0,21.0,15.0,-4.0,-11.0,2.0,15.0
1701634244.5720904,-8.0,4.0,-41.0,-18.0,2.0,13.0,5.0,-5.0
1701634244.5720904,1.0,-9.0,9.0,8.0,-1.0,-9.0,-6.0,15.0
1701634244.5720904,12.0,26.0,41.0,5.0,-4.0,-11.0,-5.0,-33.0
1701634244.5918434,14.0,10.0,-7.0,-1.0,-3.0,13.0,20.0,30.0
1701634244.5918434,-5.0,-25.0,-51.0,-20.0,-14.0,-18.0,-7.0,-13.0
1701634244.5918434,-13.0,-22.0,29.0,8.0,2.0,4.0,-3.0,-5.0
1701634244.5918434,31.0,20.0,-36.0,-8.0,3.0,1.0,7.0,26.0
1701634244.6138587,25.0,3.0,32.0,15.0,-4.0,-8.0,-14.0,-21.0
1701634244.6138587,-20.0,-9.0,-45.0,-25.0,-6.0,2.0,18.0,-7.0
1701634244.6148653,16.0,-8.0,31.0,10.0,-5.0,-4.0,-7.0,7.0
1701634244.6148653,8.0,24.0,-11.0,7.0,6.0,-7.0,-5.0,20.0
1701634244.6347802,-14.0,-18.0,-26.0,-8.0,-7.0,-6.0,3.0,-8.0
1701634244.6347802,-19.0,3.0,15.0,-17.0,-4.0,1.0,-4.0,4.0
1701634244.6367404,13.0,4.0,-8.0,23.0,11.0,-2.0,-10.0,-20.0
1701634244.6367404,-24.0,10.0,-3.0,-16.0,-4.0,-3.0,6.0,3.0
1701634244.6548297,5.0,0.0,-5.0,8.0,1.0,-17.0,5.0,0.0
1701634244.6548297,45.0,6.0,16.0,7.0,8.0,39.0,27.0,9.0
1701634244.6548297,-6.0,2.0,-41.0,-4.0,3.0,9.0,3.0,-7.0
1701634244.6548297,-11.0,-25.0,-18.0,-2.0,-1.0,0.0,3.0,1.0
1701634244.6647897,0.0,-7.0,-5.0,-23.0,-2.0,5.0,-3.0,-21.0
1701634244.6647897,5.0,8.0,-1.0,5.0,-6.0,-17.0,-9.0,4.0
1701634244.6748242,-14.0,7.0,27.0,-5.0,-1.0,-8.0,-15.0,0.0
1701634244.6748242,-2.0,5.0,-19.0,8.0,0.0,5.0,8.0,-1.0
1701634244.6947885,-5.0,-18.0,-11.0,-4.0,-3.0,-3.0,-7.0,-3.0
1701634244.6947885,-8.0,11.0,25.0,5.0,0.0,-3.0,-6.0,7.0
1701634244.6947885,-10.0,-11.0,12.0,-2.0,-10.0,-4.0,6.0,8.0
1701634244.6947885,-13.0,12.0,38.0,15.0,15.0,-3.0,0.0,3.0
1701634244.7148242,1.0,-7.0,-26.0,-3.0,-3.0,4.0,0.0,0.0
1701634244.7148242,6.0,14.0,20.0,5.0,-4.0,-6.0,-1.0,2.0
1701634244.7148242,-4.0,-13.0,-6.0,2.0,-2.0,-18.0,-10.0,-1.0
1701634244.7148242,10.0,22.0,-4.0,5.0,-4.0,14.0,24.0,7.0
1701634244.7248237,-12.0,-14.0,36.0,-1.0,2.0,5.0,0.0,-3.0
1701634244.7248237,-14.0,-8.0,-52.0,-18.0,-5.0,-1.0,-6.0,-9.0
1701634244.734828,4.0,10.0,-2.0,4.0,-13.0,-14.0,-5.0,-7.0
1701634244.734828,0.0,-8.0,18.0,-14.0,8.0,10.0,-4.0,-3.0
1701634244.7548294,3.0,-2.0,-17.0,17.0,13.0,6.0,2.0,3.0
1701634244.7548294,-1.0,7.0,9.0,-13.0,-8.0,2.0,-5.0,-1.0
1701634244.7548294,-1.0,-1.0,16.0,15.0,0.0,5.0,2.0,2.0
1701634244.7548294,-7.0,-8.0,36.0,34.0,0.0,-4.0,-8.0,-10.0
1701634244.774827,-5.0,6.0,-67.0,-54.0,-21.0,-6.0,4.0,3.0
1701634244.774827,12.0,-7.0,27.0,24.0,12.0,-8.0,-2.0,3.0
1701634244.774827,-8.0,5.0,-5.0,-11.0,8.0,12.0,4.0,-6.0
1701634244.774827,8.0,-4.0,6.0,1.0,-5.0,3.0,-4.0,-1.0
1701634244.7848256,-11.0,-4.0,10.0,11.0,8.0,0.0,-1.0,2.0
1701634244.7848256,-7.0,7.0,39.0,16.0,-15.0,6.0,-2.0,-8.0
1701634244.794823,13.0,-8.0,-29.0,-44.0,7.0,8.0,2.0,-1.0
1701634244.794823,2.0,2.0,-33.0,14.0,2.0,-2.0,-2.0,-5.0
1701634244.814791,15.0,-2.0,25.0,0.0,8.0,4.0,0.0,6.0
1701634244.814791,-13.0,6.0,19.0,-11.0,-11.0,-7.0,-2.0,-1.0
1701634244.814791,-6.0,-10.0,-49.0,-1.0,2.0,2.0,-1.0,-7.0
1701634244.814791,-4.0,-8.0,4.0,-1.0,-8.0,-1.0,-7.0,8.0
1701634244.834792,5.0,17.0,-7.0,-18.0,-12.0,-5.0,-2.0,-2.0
1701634244.834792,-4.0,-17.0,5.0,22.0,7.0,-1.0,-2.0,-3.0
1701634244.834792,1.0,25.0,25.0,8.0,7.0,0.0,-2.0,-2.0
1701634244.834792,-3.0,6.0,4.0,-9.0,-7.0,-6.0,-3.0,5.0
1701634244.85479,3.0,2.0,13.0,0.0,-1.0,0.0,0.0,-5.0
1701634244.85479,-9.0,1.0,-9.0,-26.0,-11.0,3.0,5.0,-1.0
1701634244.85479,0.0,-8.0,-18.0,-26.0,-19.0,-11.0,-7.0,4.0
1701634244.85479,17.0,-3.0,-19.0,15.0,7.0,1.0,0.0,17.0
1701634244.8748288,-12.0,-14.0,2.0,2.0,-5.0,-3.0,-8.0,-18.0
1701634244.8748288,8.0,1.0,-7.0,-13.0,1.0,-6.0,1.0,7.0
1701634244.8748288,1.0,2.0,46.0,37.0,14.0,5.0,0.0,-7.0
1701634244.8748288,-10.0,-4.0,-70.0,-34.0,-2.0,2.0,3.0,-3.0
1701634244.8948314,4.0,6.0,11.0,10.0,-3.0,-5.0,-2.0,-3.0
1701634244.8948314,-17.0,-8.0,5.0,13.0,9.0,2.0,1.0,1.0
1701634244.8948314,6.0,-33.0,-26.0,-13.0,-9.0,-5.0,-8.0,-23.0
1701634244.8948314,-2.0,-13.0,18.0,-4.0,-9.0,-9.0,-5.0,-5.0
1701634244.91479,0.0,21.0,11.0,1.0,1.0,6.0,2.0,-10.0
1701634244.91479,-5.0,4.0,6.0,2.0,6.0,0.0,-1.0,4.0
1701634244.91479,-2.0,-8.0,-12.0,3.0,-13.0,-6.0,2.0,24.0
1701634244.91479,1.0,0.0,-21.0,-37.0,-2.0,-1.0,-7.0,-28.0
1701634244.9348297,21.0,-13.0,1.0,5.0,0.0,1.0,2.0,3.0
1701634244.9348297,-30.0,18.0,34.0,5.0,1.0,5.0,-3.0,-5.0
1701634244.9348297,6.0,7.0,1.0,10.0,-3.0,-5.0,-1.0,5.0
1701634244.9348297,-2.0,-20.0,15.0,6.0,1.0,7.0,4.0,1.0
1701634244.95483,6.0,3.0,11.0,14.0,4.0,-6.0,-1.0,28.0
1701634244.95483,8.0,9.0,23.0,3.0,-2.0,1.0,-2.0,-17.0
1701634244.95483,-9.0,7.0,-50.0,-18.0,-2.0,0.0,5.0,6.0
1701634244.95483,-17.0,-21.0,-10.0,-7.0,-5.0,-3.0,-10.0,-15.0
1701634244.9747899,13.0,8.0,36.0,16.0,11.0,10.0,-3.0,-3.0
1701634244.9747899,2.0,-38.0,-45.0,-9.0,0.0,-4.0,-1.0,-2.0
1701634244.9747899,9.0,19.0,15.0,-4.0,-3.0,1.0,6.0,18.0
1701634244.9747899,-44.0,-6.0,14.0,2.0,-1.0,-10.0,-8.0,-41.0
1701634244.9948304,5.0,50.0,25.0,7.0,-7.0,-2.0,1.0,30.0
1701634244.9948304,-2.0,-31.0,-83.0,-12.0,5.0,0.0,4.0,11.0
1701634244.9948304,22.0,0.0,55.0,8.0,1.0,3.0,-2.0,-30.0
1701634244.9948304,-10.0,-5.0,5.0,-5.0,-4.0,-10.0,-3.0,-4.0
1701634245.0148284,-27.0,-8.0,-44.0,22.0,14.0,17.0,9.0,-4.0
1701634245.0148284,15.0,1.0,-1.0,-14.0,-9.0,-9.0,-5.0,1.0
1701634245.0247903,5.0,13.0,6.0,-1.0,-5.0,-4.0,-1.0,16.0
1701634245.0247903,20.0,-8.0,-15.0,-21.0,-3.0,-13.0,0.0,0.0
1701634245.0247903,-5.0,0.0,37.0,21.0,7.0,11.0,-4.0,-26.0
1701634245.0247903,-6.0,-10.0,1.0,6.0,2.0,-1.0,4.0,2.0
1701634245.0348296,11.0,7.0,56.0,12.0,-4.0,-10.0,-3.0,-9.0
1701634245.0348296,10.0,4.0,-60.0,-32.0,-9.0,-3.0,-5.0,13.0
1701634245.0548322,-5.0,-29.0,0.0,-8.0,-10.0,-20.0,-6.0,-19.0
1701634245.0548322,30.0,2.0,-9.0,-23.0,0.0,9.0,-4.0,-4.0
1701634245.0548322,-15.0,10.0,37.0,12.0,-3.0,-15.0,-8.0,-6.0
1701634245.0548322,21.0,15.0,13.0,3.0,-1.0,13.0,-4.0,10.0
1701634245.074797,34.0,9.0,30.0,18.0,4.0,-11.0,9.0,17.0
1701634245.074797,-24.0,-35.0,-43.0,-42.0,-10.0,-3.0,-6.0,2.0
1701634245.074797,-9.0,-5.0,-10.0,6.0,-2.0,2.0,-7.0,-37.0
1701634245.074797,19.0,20.0,13.0,26.0,8.0,1.0,5.0,20.0
1701634245.0847917,-6.0,-14.0,-9.0,-15.0,-7.0,3.0,-6.0,-9.0
1701634245.0847917,8.0,54.0,31.0,22.0,5.0,-7.0,-3.0,-1.0
1701634245.104831,-21.0,-32.0,-12.0,-6.0,0.0,8.0,7.0,4.0
1701634245.104831,-18.0,-11.0,-12.0,-7.0,-1.0,6.0,-1.0,-4.0
1701634245.11483,-4.0,5.0,-11.0,-7.0,1.0,-2.0,-6.0,-8.0
1701634245.11483,-10.0,-41.0,6.0,29.0,2.0,-2.0,1.0,0.0
1701634245.11483,12.0,65.0,-62.0,-52.0,-13.0,-9.0,0.0,17.0
1701634245.11483,12.0,-11.0,32.0,25.0,5.0,11.0,3.0,-2.0
1701634245.1461325,-33.0,-45.0,-59.0,-12.0,0.0,2.0,-2.0,3.0
1701634245.1461325,21.0,37.0,34.0,16.0,-7.0,-9.0,-1.0,10.0
1701634245.1471324,-2.0,-34.0,-27.0,-2.0,0.0,7.0,-9.0,2.0
1701634245.1471324,-1.0,42.0,-19.0,-7.0,3.0,1.0,2.0,0.0
1701634245.1511319,10.0,9.0,-4.0,-9.0,-3.0,2.0,2.0,15.0
1701634245.1511319,-7.0,-29.0,-3.0,17.0,1.0,-5.0,3.0,12.0
1701634245.160179,21.0,33.0,60.0,8.0,3.0,-3.0,-1.0,-29.0
1701634245.160179,4.0,7.0,-2.0,17.0,1.0,0.0,-2.0,43.0
1701634245.1751323,12.0,-6.0,-36.0,-30.0,-7.0,4.0,10.0,-13.0
1701634245.1751323,-17.0,-4.0,6.0,10.0,4.0,-6.0,-13.0,-22.0
1701634245.1761322,12.0,7.0,23.0,-2.0,-1.0,8.0,17.0,28.0
1701634245.1761322,-3.0,-19.0,14.0,4.0,-3.0,-7.0,-9.0,-11.0
1701634245.1973686,6.0,-10.0,15.0,0.0,-2.0,-7.0,-6.0,8.0
1701634245.1973686,-19.0,32.0,-9.0,-5.0,-1.0,3.0,-3.0,-14.0
1701634245.1973686,-10.0,20.0,-18.0,1.0,2.0,-5.0,-8.0,-2.0
1701634245.1973686,-7.0,-62.0,-20.0,-18.0,-4.0,1.0,3.0,-9.0
1701634245.207378,4.0,12.0,5.0,-8.0,-6.0,0.0,0.0,7.0
1701634245.207378,1.0,2.0,6.0,0.0,0.0,-4.0,-1.0,-11.0
1701634245.2173686,-4.0,-23.0,-19.0,11.0,25.0,16.0,5.0,7.0
1701634245.2173686,-12.0,34.0,30.0,2.0,-8.0,-11.0,-6.0,-19.0
1701634245.237374,-12.0,-2.0,-27.0,-6.0,1.0,-5.0,-1.0,-9.0
1701634245.237374,5.0,-2.0,6.0,-4.0,-8.0,3.0,2.0,5.0
1701634245.237374,8.0,-19.0,-7.0,-12.0,-2.0,-1.0,-5.0,-4.0
1701634245.237374,11.0,19.0,13.0,-22.0,-12.0,1.0,6.0,5.0
1701634245.2573707,-21.0,-28.0,-23.0,4.0,4.0,-7.0,-3.0,-15.0
1701634245.2573707,5.0,3.0,-25.0,-23.0,-3.0,-3.0,-1.0,13.0
1701634245.2573707,-3.0,-7.0,14.0,8.0,-16.0,-5.0,-5.0,-15.0
1701634245.2573707,-13.0,-4.0,-11.0,-8.0,-1.0,2.0,6.0,2.0
1701634245.2673707,0.0,-5.0,40.0,31.0,20.0,4.0,-6.0,-1.0
1701634245.2673707,1.0,26.0,44.0,24.0,11.0,6.0,6.0,4.0
1701634245.2873282,-1.0,-20.0,-106.0,-31.0,-3.0,-5.0,-7.0,-19.0
1701634245.2873282,-10.0,6.0,35.0,-22.0,-18.0,-3.0,-4.0,1.0
1701634245.2873282,-7.0,-18.0,19.0,7.0,-3.0,-7.0,-5.0,-7.0
1701634245.2873282,-4.0,8.0,2.0,3.0,7.0,6.0,2.0,-4.0
1701634245.2873282,-25.0,-14.0,-8.0,-13.0,-5.0,-8.0,2.0,9.0
1701634245.2873282,10.0,15.0,14.0,28.0,4.0,7.0,0.0,-5.0
1701634245.317371,0.0,-1.0,-21.0,3.0,-1.0,-1.0,-2.0,7.0
1701634245.317371,7.0,12.0,4.0,-27.0,-9.0,-2.0,-3.0,-7.0
1701634245.317371,-9.0,-22.0,-1.0,5.0,-4.0,-2.0,2.0,4.0
1701634245.317371,-15.0,-11.0,-27.0,-5.0,5.0,3.0,2.0,-2.0
1701634245.3273726,10.0,30.0,46.0,13.0,0.0,3.0,1.0,4.0
1701634245.3273726,-17.0,-11.0,-29.0,1.0,6.0,1.0,-4.0,-8.0
1701634245.3373694,0.0,-1.0,24.0,6.0,-1.0,-2.0,-3.0,-4.0
1701634245.3373694,-21.0,-20.0,-16.0,4.0,12.0,3.0,0.0,0.0
1701634245.3473704,3.0,17.0,12.0,-8.0,-11.0,-1.0,-5.0,-2.0
1701634245.3473704,9.0,-11.0,8.0,2.0,-8.0,-3.0,0.0,-2.0
1701634245.3473704,-7.0,0.0,4.0,5.0,9.0,4.0,2.0,11.0
1701634245.3473704,10.0,-14.0,-7.0,-1.0,-3.0,-7.0,-8.0,-20.0
1701634245.3773692,-8.0,11.0,-4.0,-11.0,-2.0,-2.0,3.0,3.0
1701634245.3773692,0.0,-2.0,-41.0,-10.0,1.0,9.0,4.0,-1.0
1701634245.3773692,-17.0,-17.0,36.0,22.0,0.0,-4.0,-9.0,-15.0
1701634245.3773692,24.0,25.0,49.0,14.0,0.0,0.0,7.0,0.0
1701634245.3873708,-20.0,0.0,-41.0,-28.0,-3.0,-4.0,1.0,17.0
1701634245.3873708,-16.0,-19.0,-23.0,7.0,3.0,1.0,-4.0,-4.0
1701634245.3973713,13.0,16.0,26.0,1.0,-6.0,-2.0,-3.0,0.0
1701634245.3973713,4.0,-5.0,-26.0,5.0,8.0,2.0,6.0,18.0
1701634245.4073741,-17.0,-15.0,29.0,0.0,-9.0,-4.0,-10.0,-12.0
1701634245.4073741,11.0,16.0,-6.0,0.0,-2.0,-4.0,13.0,4.0
1701634245.4073741,-12.0,-13.0,-1.0,-5.0,3.0,11.0,-1.0,-36.0
1701634245.4073741,-7.0,-1.0,5.0,5.0,0.0,0.0,-8.0,-24.0
1701634245.4373786,-4.0,-1.0,-26.0,-5.0,1.0,4.0,-1.0,-4.0
1701634245.4373786,-19.0,-15.0,34.0,-15.0,-11.0,-13.0,-7.0,4.0
1701634245.4373786,-14.0,10.0,-12.0,-12.0,-6.0,3.0,-3.0,5.0
1701634245.4373786,-2.0,0.0,-2.0,7.0,8.0,5.0,2.0,-2.0
1701634245.4573696,6.0,-1.0,-12.0,-3.0,-6.0,-3.0,1.0,-5.0
1701634245.4573696,-2.0,-5.0,12.0,16.0,-1.0,-2.0,-4.0,-14.0
1701634245.4573696,11.0,-3.0,3.0,-6.0,-2.0,1.0,3.0,20.0
1701634245.4573696,-31.0,-11.0,-20.0,8.0,7.0,1.0,-2.0,-3.0
1701634245.4773293,6.0,8.0,12.0,4.0,-3.0,-1.0,2.0,9.0
1701634245.4773293,1.0,17.0,-6.0,-17.0,1.0,-1.0,-2.0,5.0
1701634245.4773293,-14.0,-20.0,0.0,5.0,-5.0,-3.0,-2.0,-1.0
1701634245.4773293,22.0,10.0,11.0,14.0,-10.0,-6.0,-2.0,9.0
1701634245.4973295,3.0,-6.0,-26.0,-11.0,-4.0,1.0,-6.0,-11.0
1701634245.4973295,15.0,11.0,9.0,-15.0,0.0,-2.0,2.0,1.0
1701634245.4973295,-4.0,-9.0,-9.0,-47.0,-30.0,-15.0,-4.0,-6.0
1701634245.4973295,-11.0,-55.0,-37.0,46.0,36.0,4.0,2.0,3.0
1701634245.5173306,16.0,41.0,1.0,-30.0,-16.0,-2.0,-5.0,-4.0
1701634245.5173306,-22.0,-80.0,-22.0,26.0,15.0,1.0,-2.0,-3.0
1701634245.5173306,6.0,19.0,-16.0,-9.0,9.0,12.0,11.0,10.0
1701634245.5173306,-10.0,11.0,20.0,-19.0,-20.0,-5.0,-4.0,-1.0
1701634245.5273764,-5.0,-8.0,-5.0,-11.0,0.0,-6.0,-1.0,-2.0
1701634245.5273764,11.0,46.0,82.0,39.0,6.0,2.0,0.0,3.0
1701634245.5273764,-1.0,-25.0,-89.0,-36.0,-5.0,-10.0,-4.0,-4.0
1701634245.5273764,-2.0,1.0,12.0,-3.0,4.0,1.0,-1.0,-1.0
1701634245.5573616,-4.0,-22.0,26.0,1.0,-6.0,-1.0,-1.0,-3.0
1701634245.5573616,7.0,17.0,5.0,1.0,-8.0,-5.0,-7.0,0.0
1701634245.5673308,5.0,9.0,16.0,24.0,5.0,2.0,1.0,6.0
1701634245.5673308,9.0,29.0,-5.0,-24.0,-11.0,1.0,-3.0,2.0
1701634245.587329,-12.0,-20.0,-43.0,-7.0,0.0,-1.0,0.0,1.0
1701634245.587329,1.0,-7.0,-11.0,1.0,2.0,3.0,1.0,-2.0
1701634245.587329,0.0,-7.0,29.0,25.0,11.0,-1.0,-2.0,-1.0
1701634245.587329,1.0,-12.0,3.0,-18.0,-18.0,-8.0,0.0,3.0
1701634245.587329,0.0,10.0,28.0,15.0,12.0,-1.0,0.0,-2.0
1701634245.587329,5.0,2.0,-5.0,-9.0,-4.0,3.0,-2.0,-2.0
1701634245.5973299,-4.0,5.0,-35.0,-18.0,-1.0,-1.0,1.0,0.0
1701634245.5973299,-2.0,-2.0,-8.0,13.0,6.0,-4.0,-4.0,0.0
1701634245.6173713,-1.0,-7.0,8.0,18.0,3.0,5.0,-3.0,-3.0
1701634245.6173713,12.0,1.0,-45.0,-23.0,-8.0,-3.0,-2.0,0.0
1701634245.6173713,-7.0,9.0,63.0,-11.0,-11.0,-5.0,1.0,6.0
1701634245.6173713,3.0,-19.0,-53.0,-3.0,0.0,1.0,-7.0,-12.0
1701634245.637369,-7.0,1.0,14.0,4.0,3.0,2.0,6.0,2.0
1701634245.637369,2.0,7.0,8.0,10.0,-3.0,-5.0,-3.0,-2.0
1701634245.637369,4.0,-1.0,6.0,15.0,5.0,2.0,2.0,4.0
1701634245.637369,7.0,18.0,-3.0,-9.0,-5.0,-9.0,-1.0,5.0
1701634245.6473289,-2.0,6.0,-10.0,4.0,-3.0,0.0,1.0,6.0
1701634245.6473289,-9.0,-5.0,6.0,-15.0,0.0,5.0,-2.0,-8.0
1701634245.6573303,-6.0,1.0,-16.0,-6.0,1.0,1.0,-1.0,-2.0
1701634245.6573303,1.0,-2.0,16.0,37.0,13.0,1.0,3.0,1.0
1701634245.6771624,3.0,-3.0,-19.0,-10.0,-4.0,-8.0,-8.0,-6.0
1701634245.6771624,-1.0,8.0,1.0,-12.0,-14.0,-2.0,0.0,-9.0
1701634245.6791136,-4.0,-12.0,40.0,21.0,11.0,3.0,-1.0,2.0
1701634245.6791136,16.0,12.0,-33.0,-13.0,3.0,-2.0,5.0,7.0
1701634245.6934264,-20.0,-18.0,5.0,4.0,-2.0,2.0,-4.0,-2.0
1701634245.6934264,2.0,4.0,-5.0,-12.0,-5.0,2.0,-6.0,-8.0
1701634245.70343,-2.0,-6.0,6.0,11.0,-2.0,-1.0,-1.0,-5.0
1701634245.70343,-2.0,16.0,14.0,-17.0,0.0,2.0,0.0,0.0
1701634245.713474,10.0,-22.0,-5.0,14.0,6.0,-4.0,-7.0,11.0
1701634245.713474,-6.0,-1.0,-18.0,-5.0,-2.0,2.0,5.0,4.0
1701634245.713474,-1.0,8.0,20.0,29.0,4.0,3.0,3.0,-4.0
1701634245.713474,-33.0,-4.0,25.0,-28.0,-10.0,0.0,1.0,11.0
1701634245.7334664,18.0,8.0,-26.0,-18.0,-7.0,-4.0,-3.0,-3.0
1701634245.7334664,-9.0,-21.0,0.0,6.0,1.0,-4.0,-3.0,1.0
1701634245.7334664,-4.0,-2.0,-25.0,0.0,-3.0,-6.0,-5.0,-1.0
1701634245.7334664,-7.0,4.0,5.0,-1.0,-9.0,-8.0,-4.0,-13.0
1701634245.7534301,11.0,4.0,29.0,11.0,16.0,18.0,10.0,3.0
1701634245.7534301,-10.0,-12.0,-21.0,-12.0,0.0,-6.0,-4.0,-1.0
1701634245.7534301,-1.0,13.0,7.0,17.0,4.0,0.0,0.0,-9.0
1701634245.7534301,3.0,-4.0,-15.0,-30.0,-14.0,-4.0,0.0,0.0
1701634245.7734697,-3.0,1.0,5.0,-6.0,-6.0,-6.0,0.0,-6.0
1701634245.7734697,7.0,7.0,-8.0,15.0,6.0,3.0,0.0,1.0
1701634245.7734697,4.0,-10.0,-9.0,-3.0,2.0,-6.0,-3.0,5.0
1701634245.7734697,3.0,5.0,24.0,10.0,-6.0,-4.0,-5.0,-1.0
1701634245.7934394,-6.0,-1.0,16.0,19.0,5.0,8.0,2.0,-2.0
1701634245.7934394,11.0,7.0,-42.0,-44.0,-19.0,-6.0,-4.0,0.0
1701634245.8034282,-15.0,-16.0,0.0,4.0,-3.0,-11.0,-6.0,0.0
1701634245.8034282,-3.0,7.0,-6.0,0.0,-3.0,-3.0,-3.0,-11.0
1701634245.8134656,-9.0,-15.0,15.0,0.0,2.0,1.0,1.0,-8.0
1701634245.8134656,9.0,12.0,15.0,3.0,-3.0,-3.0,-1.0,-7.0
1701634245.8134656,14.0,19.0,-9.0,-17.0,-7.0,-5.0,-5.0,4.0
1701634245.8134656,-2.0,-41.0,0.0,24.0,5.0,4.0,0.0,0.0
1701634245.8334692,-12.0,-9.0,13.0,-20.0,-12.0,-10.0,-6.0,-7.0
1701634245.8334692,-9.0,-7.0,-21.0,1.0,0.0,-5.0,-4.0,1.0
1701634245.8334692,13.0,11.0,9.0,4.0,5.0,2.0,1.0,3.0
1701634245.8334692,-6.0,6.0,-5.0,-12.0,-7.0,1.0,0.0,0.0
1701634245.863428,-9.0,27.0,13.0,22.0,5.0,0.0,2.0,-1.0
1701634245.863428,7.0,-29.0,2.0,-9.0,-1.0,4.0,1.0,8.0
1701634245.863428,-29.0,-6.0,-14.0,-2.0,3.0,4.0,2.0,-10.0
1701634245.863428,37.0,14.0,15.0,1.0,0.0,-3.0,-1.0,2.0
1701634245.8734643,16.0,-9.0,-36.0,-12.0,-13.0,-5.0,0.0,12.0
1701634245.8734643,-5.0,-2.0,27.0,-2.0,0.0,2.0,5.0,-3.0
1701634245.8734643,12.0,8.0,3.0,12.0,15.0,6.0,1.0,1.0
1701634245.8734643,-13.0,-7.0,-15.0,-4.0,-2.0,0.0,-2.0,-5.0
1701634245.8934684,-3.0,-4.0,-6.0,-7.0,-12.0,-7.0,1.0,3.0
1701634245.8934684,11.0,12.0,14.0,-11.0,8.0,5.0,-1.0,-13.0
1701634245.8934684,6.0,-5.0,-14.0,6.0,2.0,-5.0,-1.0,2.0
1701634245.8934684,3.0,14.0,26.0,24.0,2.0,10.0,0.0,1.0
1701634245.9234319,-2.0,7.0,-8.0,0.0,7.0,4.0,5.0,4.0
1701634245.9234319,-12.0,-14.0,14.0,2.0,-1.0,3.0,-6.0,1.0
1701634245.9234319,9.0,-5.0,12.0,-4.0,-4.0,-1.0,-1.0,0.0
1701634245.9234319,-2.0,11.0,-29.0,-9.0,0.0,-1.0,-1.0,-5.0
1701634245.9334686,5.0,-9.0,-11.0,-5.0,-1.0,-9.0,-5.0,-1.0
1701634245.9334686,-27.0,-14.0,5.0,13.0,1.0,1.0,3.0,20.0
1701634245.9334686,-12.0,-5.0,-3.0,-15.0,-5.0,-4.0,-9.0,-30.0
1701634245.9334686,18.0,7.0,14.0,3.0,0.0,0.0,2.0,10.0
1701634245.953469,4.0,6.0,-25.0,-10.0,1.0,5.0,-2.0,-4.0
1701634245.953469,-16.0,1.0,12.0,16.0,10.0,2.0,1.0,0.0
1701634245.953469,-4.0,-10.0,2.0,-8.0,-8.0,-1.0,-1.0,5.0
1701634245.953469,-6.0,-4.0,28.0,10.0,-1.0,-4.0,-2.0,-3.0
1701634245.98347,5.0,12.0,25.0,-3.0,8.0,3.0,0.0,-3.0
1701634245.98347,-4.0,10.0,-4.0,10.0,3.0,2.0,5.0,-2.0
1701634245.98347,-11.0,-15.0,-15.0,-8.0,-5.0,2.0,-2.0,0.0
1701634245.98347,-7.0,1.0,0.0,-17.0,-12.0,-11.0,-5.0,-10.0
1701634246.0034294,-1.0,-3.0,25.0,16.0,5.0,4.0,-2.0,4.0
1701634246.0034294,13.0,1.0,-18.0,13.0,1.0,1.0,0.0,1.0
1701634246.0034294,7.0,7.0,34.0,11.0,2.0,5.0,3.0,3.0
1701634246.0034294,-6.0,-21.0,-7.0,-16.0,0.0,-2.0,8.0,5.0
1701634246.0134628,-8.0,-11.0,-64.0,-25.0,-13.0,-12.0,-11.0,-12.0
1701634246.0134628,29.0,10.0,42.0,10.0,-1.0,3.0,5.0,1.0
1701634246.0134628,-5.0,-6.0,-49.0,-16.0,-7.0,-7.0,-2.0,23.0
1701634246.0134628,-5.0,1.0,7.0,0.0,-2.0,-2.0,-8.0,-40.0
1701634246.0434296,-46.0,-6.0,31.0,17.0,5.0,8.0,6.0,-13.0
1701634246.0434296,8.0,5.0,-20.0,-17.0,-2.0,-6.0,-5.0,0.0
1701634246.0434296,-6.0,0.0,45.0,7.0,-8.0,-8.0,-2.0,-4.0
1701634246.0434296,-22.0,-10.0,-17.0,0.0,7.0,4.0,2.0,-10.0
1701634246.053461,16.0,6.0,14.0,5.0,0.0,-3.0,2.0,21.0
1701634246.053461,11.0,-3.0,-14.0,-4.0,-6.0,3.0,-14.0,-10.0
1701634246.053461,-3.0,5.0,9.0,-4.0,0.0,0.0,1.0,-5.0
1701634246.053461,17.0,1.0,-24.0,-1.0,6.0,2.0,1.0,11.0
1701634246.0736763,-36.0,-1.0,9.0,-9.0,-5.0,2.0,-2.0,-14.0
1701634246.0736763,-2.0,1.0,-10.0,-5.0,-1.0,-5.0,1.0,8.0
1701634246.0834277,-7.0,2.0,16.0,4.0,0.0,6.0,-4.0,-14.0
1701634246.0834277,5.0,3.0,-18.0,14.0,10.0,3.0,5.0,26.0
1701634246.0936692,17.0,1.0,12.0,-8.0,-10.0,-6.0,-4.0,-4.0
1701634246.0936692,-16.0,-13.0,9.0,17.0,8.0,3.0,-1.0,0.0
1701634246.0936692,-1.0,5.0,-44.0,-26.0,-11.0,-5.0,-4.0,-17.0
1701634246.0936692,-2.0,18.0,15.0,0.0,5.0,9.0,1.0,17.0
1701634246.1137464,-1.0,-34.0,-5.0,-21.0,-16.0,-6.0,0.0,0.0
1701634246.1137464,-2.0,24.0,0.0,1.0,3.0,-10.0,-6.0,-6.0
1701634246.1137464,17.0,8.0,-1.0,25.0,9.0,2.0,0.0,8.0
1701634246.1137464,-20.0,-49.0,37.0,-5.0,-2.0,-2.0,-6.0,-4.0
1701634246.1334333,18.0,6.0,-7.0,-13.0,-2.0,-2.0,-2.0,0.0
1701634246.1334333,-3.0,24.0,30.0,-10.0,-21.0,-7.0,-3.0,-14.0
1701634246.1534305,-9.0,-39.0,-17.0,3.0,2.0,-3.0,0.0,3.0
1701634246.1534305,14.0,15.0,12.0,-12.0,-5.0,3.0,-2.0,4.0
1701634246.1534305,0.0,-13.0,-32.0,19.0,18.0,8.0,3.0,-9.0
1701634246.1534305,0.0,41.0,32.0,-7.0,-17.0,-23.0,-1.0,8.0
1701634246.1534305,3.0,-6.0,8.0,-9.0,3.0,11.0,2.0,3.0
1701634246.1534305,4.0,0.0,-30.0,-14.0,-8.0,-6.0,-5.0,-2.0
1701634246.1738706,-2.0,3.0,0.0,2.0,2.0,-4.0,-1.0,0.0
1701634246.1738706,5.0,-18.0,-33.0,-7.0,0.0,2.0,4.0,1.0
1701634246.1738706,-12.0,13.0,14.0,8.0,1.0,0.0,-2.0,-5.0
1701634246.1738706,-4.0,4.0,10.0,7.0,1.0,1.0,1.0,-5.0
1701634246.1934886,-1.0,-14.0,-52.0,-12.0,0.0,0.0,-5.0,2.0
1701634246.1934886,-8.0,-15.0,-10.0,2.0,4.0,2.0,-3.0,-11.0
1701634246.2101278,7.0,-13.0,9.0,3.0,-1.0,-7.0,1.0,1.0
1701634246.2101278,-2.0,25.0,-40.0,-20.0,1.0,5.0,-2.0,2.0
1701634246.2180216,1.0,34.0,64.0,24.0,0.0,-4.0,-1.0,-13.0
1701634246.2180216,2.0,-27.0,-16.0,12.0,1.0,7.0,3.0,11.0
1701634246.2190886,5.0,9.0,41.0,16.0,6.0,-1.0,-3.0,7.0
1701634246.2190886,0.0,-8.0,-14.0,-5.0,-4.0,-6.0,2.0,-4.0
1701634246.2368016,12.0,19.0,11.0,-9.0,-2.0,-3.0,-2.0,11.0
1701634246.2368016,-12.0,-28.0,-40.0,-12.0,2.0,16.0,8.0,-13.0
1701634246.2368016,3.0,19.0,-8.0,14.0,7.0,12.0,4.0,4.0
1701634246.2368016,4.0,0.0,5.0,9.0,5.0,-2.0,-10.0,3.0
1701634246.246412,1.0,-14.0,41.0,4.0,-7.0,3.0,7.0,0.0
1701634246.246412,27.0,30.0,44.0,22.0,7.0,-4.0,-1.0,7.0
1701634246.2763689,-22.0,-29.0,-84.0,-44.0,-14.0,-5.0,-2.0,4.0
1701634246.2763689,17.0,12.0,20.0,14.0,-2.0,-7.0,-6.0,-5.0
1701634246.2763689,-25.0,-3.0,-41.0,-21.0,-6.0,-3.0,-1.0,-5.0
1701634246.2763689,-2.0,-31.0,29.0,10.0,5.0,-2.0,0.0,10.0
1701634246.2763689,8.0,27.0,-31.0,-9.0,2.0,1.0,4.0,5.0
1701634246.2763689,7.0,13.0,33.0,11.0,1.0,-6.0,-12.0,-17.0
1701634246.2967806,34.0,-27.0,-64.0,-20.0,-2.0,0.0,-7.0,10.0
1701634246.2967806,-53.0,-13.0,12.0,10.0,-14.0,-12.0,-2.0,2.0
1701634246.2967806,5.0,-11.0,29.0,4.0,10.0,8.0,-2.0,-27.0
1701634246.2967806,-32.0,-9.0,-13.0,-2.0,-5.0,5.0,2.0,3.0
1701634246.306371,10.0,32.0,15.0,18.0,9.0,1.0,7.0,5.0
1701634246.306371,12.0,7.0,-1.0,-9.0,-8.0,-6.0,-10.0,-11.0
1701634246.3164043,2.0,-2.0,-28.0,-17.0,2.0,-11.0,-7.0,7.0
1701634246.3164043,-2.0,-16.0,7.0,15.0,-6.0,-11.0,1.0,7.0
1701634246.336771,1.0,-12.0,-3.0,8.0,11.0,22.0,3.0,-11.0
1701634246.336771,5.0,14.0,6.0,-6.0,9.0,3.0,-1.0,3.0
1701634246.3463755,-10.0,-3.0,22.0,-9.0,-33.0,-15.0,-1.0,-3.0
1701634246.3463755,2.0,-18.0,-24.0,-6.0,33.0,2.0,4.0,-1.0
1701634246.356763,-6.0,11.0,57.0,23.0,3.0,3.0,1.0,0.0
1701634246.356763,-7.0,-8.0,-32.0,-27.0,-17.0,-35.0,-6.0,-9.0
1701634246.356763,4.0,2.0,6.0,16.0,4.0,16.0,3.0,2.0
1701634246.356763,-6.0,-4.0,0.0,16.0,-4.0,-6.0,0.0,-3.0
1701634246.3766716,-2.0,-22.0,-13.0,-27.0,-33.0,-23.0,-7.0,5.0
1701634246.3766716,3.0,4.0,-9.0,6.0,25.0,9.0,3.0,-3.0
1701634246.3766716,3.0,19.0,-10.0,-6.0,-11.0,-19.0,-13.0,-12.0
1701634246.3766716,2.0,-7.0,68.0,17.0,12.0,19.0,6.0,5.0
1701634246.3963706,-18.0,-13.0,-40.0,-22.0,-9.0,-24.0,-4.0,-6.0
1701634246.3963706,6.0,11.0,-24.0,2.0,-4.0,12.0,4.0,-3.0
1701634246.3963706,-12.0,-19.0,-3.0,-19.0,-10.0,-12.0,-11.0,-6.0
1701634246.3963706,2.0,-50.0,-2.0,4.0,-4.0,1.0,-1.0,6.0
1701634246.42637,13.0,100.0,88.0,34.0,15.0,10.0,8.0,10.0
1701634246.42637,-24.0,-39.0,-88.0,-42.0,-16.0,-12.0,6.0,-8.0
1701634246.42637,2.0,-30.0,2.0,0.0,6.0,9.0,-8.0,2.0
1701634246.42637,-9.0,3.0,8.0,-12.0,-15.0,-15.0,-17.0,-36.0
1701634246.4364038,-18.0,-28.0,-65.0,-6.0,-3.0,-1.0,1.0,-26.0
1701634246.4364038,44.0,39.0,41.0,8.0,1.0,7.0,7.0,31.0
1701634246.4364038,-4.0,-20.0,-21.0,-13.0,7.0,10.0,40.0,23.0
1701634246.4364038,4.0,80.0,41.0,8.0,-10.0,-1.0,1.0,19.0
1701634246.4566376,-4.0,-41.0,-22.0,-11.0,-3.0,-21.0,-74.0,-88.0
1701634246.4566376,23.0,32.0,25.0,33.0,13.0,7.0,0.0,-3.0
1701634246.4566376,3.0,15.0,15.0,1.0,-12.0,-10.0,12.0,39.0
1701634246.4566376,13.0,-4.0,0.0,1.0,6.0,15.0,15.0,1.0
1701634246.47674,-22.0,-28.0,-54.0,-18.0,-7.0,-4.0,34.0,41.0
1701634246.47674,5.0,15.0,4.0,-1.0,6.0,1.0,-10.0,3.0
1701634246.47674,15.0,-1.0,55.0,15.0,5.0,12.0,15.0,-4.0
1701634246.47674,-10.0,13.0,-61.0,-27.0,-6.0,9.0,2.0,10.0
1701634246.4966571,11.0,-10.0,19.0,5.0,3.0,-10.0,-32.0,-19.0
1701634246.4966571,-32.0,-31.0,2.0,-4.0,-12.0,-4.0,4.0,5.0
1701634246.4966571,14.0,63.0,-26.0,4.0,16.0,2.0,6.0,10.0
1701634246.4966571,-25.0,-81.0,21.0,7.0,-11.0,-23.0,-92.0,-89.0
1701634246.5467482,-2.0,-16.0,-40.0,-8.0,-2.0,9.0,16.0,27.0
1701634246.5467482,6.0,11.0,16.0,-13.0,-8.0,1.0,15.0,9.0
1701634246.5467482,13.0,1.0,4.0,-14.0,-8.0,-11.0,14.0,17.0
1701634246.5467482,14.0,10.0,-32.0,-3.0,14.0,14.0,34.0,20.0
1701634246.5467482,-2.0,7.0,43.0,16.0,1.0,7.0,8.0,9.0
1701634246.5467482,-10.0,-21.0,-26.0,-2.0,1.0,-1.0,-6.0,-1.0
1701634246.5467482,11.0,28.0,19.0,4.0,-9.0,-7.0,-12.0,-20.0
1701634246.5467482,-27.0,-9.0,-29.0,-9.0,-5.0,-7.0,11.0,11.0
1701634246.5667617,1.0,-25.0,-42.0,-38.0,3.0,3.0,-10.0,-3.0
1701634246.5667617,5.0,13.0,77.0,41.0,2.0,5.0,-4.0,2.0
1701634246.5667617,-9.0,-34.0,0.0,0.0,2.0,5.0,-19.0,-22.0
1701634246.5667617,9.0,17.0,-60.0,-34.0,-18.0,-18.0,5.0,13.0
1701634246.576729,10.0,31.0,28.0,35.0,17.0,20.0,31.0,23.0
1701634246.576729,6.0,-1.0,56.0,11.0,9.0,-4.0,-18.0,-16.0
1701634246.576729,-15.0,-34.0,-9.0,-17.0,-8.0,-11.0,-18.0,-19.0
1701634246.576729,5.0,9.0,3.0,9.0,5.0,7.0,15.0,16.0
1701634246.5963693,0.0,12.0,33.0,-17.0,-17.0,-8.0,0.0,3.0
1701634246.5963693,-12.0,-8.0,-31.0,18.0,13.0,0.0,-10.0,-16.0
1701634246.5963693,-11.0,-7.0,-100.0,-22.0,0.0,-1.0,0.0,2.0
1701634246.5963693,-11.0,-21.0,-73.0,-46.0,1.0,3.0,11.0,7.0
1701634246.6167347,-2.0,4.0,57.0,17.0,-17.0,-17.0,-16.0,-8.0
1701634246.6167347,3.0,20.0,45.0,50.0,6.0,3.0,4.0,-2.0
1701634246.6167347,-3.0,-24.0,11.0,-35.0,2.0,5.0,-4.0,-3.0
1701634246.6167347,-19.0,8.0,4.0,4.0,-4.0,-2.0,-2.0,-6.0
1701634246.6365442,8.0,-30.0,-49.0,-14.0,2.0,1.0,-2.0,-4.0
1701634246.6365442,-20.0,-14.0,-4.0,-17.0,-13.0,0.0,9.0,-5.0
1701634246.6365442,19.0,16.0,27.0,36.0,8.0,-4.0,-8.0,1.0
1701634246.6365442,18.0,-17.0,-21.0,-17.0,-5.0,1.0,9.0,0.0
1701634246.6563687,-3.0,27.0,30.0,7.0,0.0,2.0,-1.0,1.0
1701634246.6563687,-2.0,1.0,-33.0,-20.0,-6.0,-1.0,-3.0,0.0
1701634246.6563687,5.0,-5.0,-4.0,-6.0,-11.0,-14.0,-4.0,0.0
1701634246.6563687,3.0,-13.0,45.0,15.0,9.0,9.0,0.0,-6.0
1701634246.6767933,-8.0,39.0,14.0,28.0,12.0,-3.0,8.0,9.0
1701634246.6767933,2.0,-35.0,-8.0,-30.0,-6.0,7.0,0.0,-7.0
1701634246.6767933,-8.0,6.0,10.0,16.0,6.0,-3.0,-4.0,-5.0
1701634246.6767933,-16.0,1.0,6.0,5.0,-8.0,-11.0,-1.0,12.0
1701634246.69637,1.0,-42.0,-22.0,-15.0,-2.0,-4.0,-5.0,-6.0
1701634246.69637,-20.0,4.0,-17.0,-17.0,1.0,-1.0,-4.0,-1.0
1701634246.69637,5.0,23.0,26.0,25.0,5.0,-2.0,1.0,-5.0
1701634246.69637,9.0,8.0,28.0,14.0,6.0,4.0,-5.0,2.0
1701634246.7168043,12.0,-17.0,-41.0,-11.0,3.0,9.0,-5.0,4.0
1701634246.7168043,-20.0,-1.0,-16.0,-16.0,-7.0,-11.0,-6.0,-4.0
1701634246.7267497,-2.0,1.0,22.0,11.0,-3.0,7.0,4.0,-3.0
1701634246.7267497,-15.0,6.0,-36.0,-6.0,-5.0,0.0,1.0,-1.0
1701634246.7425761,5.0,0.0,3.0,10.0,3.0,-4.0,7.0,6.0
1701634246.7425761,19.0,-15.0,-7.0,-7.0,6.0,12.0,20.0,20.0
1701634246.744579,-16.0,-12.0,-37.0,5.0,2.0,0.0,-33.0,-26.0
1701634246.744579,12.0,15.0,30.0,-5.0,-9.0,-11.0,-10.0,-12.0
1701634246.7594697,-4.0,6.0,12.0,6.0,-1.0,1.0,7.0,-1.0
1701634246.7594697,1.0,3.0,-13.0,1.0,3.0,-2.0,-3.0,-1.0
1701634246.779733,-9.0,1.0,12.0,-13.0,-6.0,0.0,10.0,14.0
1701634246.779733,7.0,-7.0,21.0,1.0,2.0,2.0,-15.0,-11.0
1701634246.779733,-2.0,10.0,8.0,9.0,5.0,5.0,7.0,-6.0
1701634246.779733,2.0,-8.0,-1.0,2.0,-4.0,-14.0,4.0,-1.0
1701634246.7895303,7.0,-13.0,-28.0,-18.0,-3.0,11.0,6.0,3.0
1701634246.7895303,-11.0,-2.0,-11.0,18.0,4.0,-11.0,-6.0,-3.0
1701634246.7997603,3.0,29.0,2.0,-13.0,-5.0,-2.0,6.0,13.0
1701634246.7997603,11.0,-3.0,3.0,-6.0,-9.0,-2.0,-4.0,-5.0
1701634246.7997603,-5.0,7.0,14.0,6.0,1.0,-7.0,-7.0,3.0
1701634246.7997603,2.0,-11.0,11.0,1.0,6.0,4.0,6.0,2.0
1701634246.8394716,2.0,5.0,0.0,8.0,2.0,-1.0,0.0,6.0
1701634246.8394716,1.0,-2.0,-16.0,-5.0,-1.0,-1.0,-10.0,-8.0
1701634246.8394716,6.0,5.0,29.0,10.0,-1.0,-4.0,1.0,-2.0
1701634246.8394716,-7.0,-4.0,-56.0,-14.0,-5.0,-2.0,0.0,11.0
1701634246.8394716,2.0,0.0,12.0,7.0,1.0,8.0,3.0,-4.0
1701634246.8394716,-7.0,-12.0,2.0,-1.0,-4.0,-11.0,-10.0,-4.0
1701634246.849518,7.0,5.0,5.0,1.0,-2.0,2.0,6.0,0.0
1701634246.849518,-9.0,-7.0,1.0,3.0,5.0,2.0,7.0,1.0
1701634246.8597739,2.0,-10.0,12.0,-5.0,-6.0,-10.0,-4.0,-2.0
1701634246.8597739,2.0,10.0,-55.0,6.0,2.0,11.0,-1.0,-8.0
1701634246.8597739,7.0,-8.0,2.0,1.0,-1.0,-8.0,-4.0,-1.0
1701634246.8597739,-6.0,11.0,28.0,-12.0,-5.0,2.0,0.0,-3.0
1701634246.8794715,-17.0,-17.0,-4.0,3.0,-2.0,-6.0,-11.0,-7.0
1701634246.8794715,-3.0,-13.0,14.0,-8.0,1.0,9.0,-3.0,-4.0
1701634246.8794715,-6.0,13.0,9.0,18.0,2.0,-2.0,3.0,-1.0
1701634246.8794715,8.0,-1.0,0.0,21.0,12.0,0.0,1.0,1.0
1701634246.9001057,3.0,3.0,12.0,-4.0,5.0,5.0,3.0,-1.0
1701634246.9001057,4.0,4.0,-18.0,-17.0,-12.0,-17.0,-9.0,8.0
1701634246.9001057,1.0,8.0,-17.0,-3.0,0.0,7.0,7.0,12.0
1701634246.9001057,-12.0,-4.0,11.0,-10.0,-10.0,-8.0,-11.0,-21.0
1701634246.9197898,-2.0,-1.0,-10.0,-3.0,-3.0,11.0,2.0,-1.0
1701634246.9197898,9.0,4.0,35.0,14.0,7.0,9.0,-5.0,-3.0
1701634246.9197898,-10.0,-21.0,-47.0,-15.0,-5.0,-2.0,-4.0,-2.0
1701634246.9197898,12.0,18.0,1.0,-10.0,-6.0,-8.0,8.0,6.0
1701634246.9497828,-2.0,-3.0,10.0,-9.0,-10.0,-4.0,-4.0,7.0
1701634246.9497828,-10.0,-4.0,-14.0,-7.0,2.0,4.0,5.0,-2.0
1701634246.9497828,2.0,7.0,22.0,14.0,12.0,9.0,2.0,-3.0
1701634246.9497828,-14.0,0.0,-14.0,6.0,-5.0,4.0,3.0,-4.0
1701634246.9600456,7.0,-10.0,-13.0,-15.0,2.0,-5.0,-1.0,-4.0
1701634246.9600456,-4.0,-5.0,30.0,18.0,-9.0,-9.0,1.0,2.0
1701634246.9600456,-2.0,-16.0,-3.0,1.0,8.0,12.0,-2.0,-5.0
1701634246.9600456,15.0,11.0,11.0,6.0,-1.0,-3.0,1.0,5.0
1701634246.9797845,-20.0,-15.0,-56.0,-22.0,-6.0,-3.0,-2.0,-5.0
1701634246.9797845,-3.0,9.0,-6.0,1.0,2.0,1.0,4.0,5.0
1701634246.9797845,-1.0,9.0,15.0,-11.0,-11.0,-8.0,-5.0,-6.0
1701634246.9797845,7.0,-4.0,4.0,-6.0,1.0,3.0,5.0,6.0
1701634247.0097792,8.0,11.0,41.0,23.0,2.0,-1.0,1.0,2.0
1701634247.0097792,8.0,-6.0,-10.0,-14.0,-6.0,-2.0,-6.0,-5.0
1701634247.0097792,-2.0,-3.0,13.0,4.0,-2.0,-11.0,0.0,4.0
1701634247.0097792,-8.0,-3.0,11.0,-6.0,-2.0,3.0,-1.0,-5.0
1701634247.020131,-7.0,-5.0,-13.0,0.0,2.0,-8.0,-1.0,8.0
1701634247.020131,-1.0,2.0,25.0,3.0,-2.0,1.0,-11.0,-13.0
1701634247.020131,0.0,4.0,6.0,-15.0,-3.0,-2.0,-1.0,3.0
1701634247.020131,2.0,-19.0,-32.0,-6.0,-6.0,-2.0,2.0,0.0
1701634247.0398057,-2.0,-6.0,2.0,6.0,1.0,-10.0,1.0,2.0
1701634247.0398057,-7.0,7.0,-2.0,3.0,7.0,11.0,0.0,3.0
1701634247.0498369,-3.0,-6.0,-8.0,-2.0,0.0,11.0,2.0,-4.0
1701634247.0498369,16.0,7.0,31.0,9.0,0.0,-10.0,-4.0,3.0
1701634247.0498369,-10.0,3.0,-27.0,-4.0,-6.0,-13.0,-5.0,-11.0
1701634247.0498369,-4.0,-5.0,-12.0,-15.0,4.0,23.0,5.0,0.0
1701634247.060208,15.0,2.0,8.0,-25.0,-12.0,-6.0,1.0,2.0
1701634247.060208,-8.0,-2.0,-27.0,38.0,21.0,2.0,-3.0,2.0
1701634247.0799854,1.0,8.0,21.0,-18.0,-5.0,2.0,-1.0,-11.0
1701634247.0799854,11.0,14.0,17.0,1.0,-7.0,-15.0,-5.0,6.0
1701634247.0799854,-26.0,-20.0,-29.0,1.0,-2.0,-4.0,-4.0,-9.0
1701634247.0799854,-4.0,-5.0,18.0,-16.0,-6.0,-2.0,-5.0,2.0
1701634247.0998619,6.0,-5.0,10.0,8.0,6.0,4.0,4.0,-4.0
1701634247.0998619,-10.0,-9.0,-53.0,-8.0,0.0,-15.0,5.0,-1.0
1701634247.0998619,12.0,12.0,69.0,26.0,7.0,6.0,3.0,6.0
1701634247.0998619,-15.0,-5.0,-70.0,-29.0,-8.0,-7.0,-4.0,3.0
1701634247.1101778,14.0,9.0,21.0,15.0,7.0,11.0,-2.0,-3.0
1701634247.1101778,10.0,-7.0,-12.0,-7.0,-4.0,-3.0,6.0,16.0
1701634247.1203976,-23.0,-18.0,-26.0,-4.0,1.0,-6.0,-10.0,-21.0
1701634247.1203976,5.0,-4.0,69.0,22.0,-7.0,0.0,0.0,-4.0
1701634247.1402001,-6.0,10.0,17.0,-2.0,3.0,-2.0,-1.0,0.0
1701634247.1402001,5.0,-12.0,-45.0,-7.0,4.0,4.0,9.0,3.0
1701634247.1402001,-2.0,-17.0,-18.0,-11.0,-3.0,-5.0,-4.0,-2.0
1701634247.1402001,-27.0,25.0,13.0,-3.0,-5.0,-3.0,2.0,0.0
1701634247.1601963,19.0,-12.0,31.0,18.0,4.0,5.0,1.0,6.0
1701634247.1601963,4.0,9.0,-27.0,-15.0,-1.0,2.0,-5.0,-11.0
1701634247.1601963,-13.0,-11.0,17.0,5.0,-6.0,-5.0,-1.0,-1.0
1701634247.1601963,9.0,-7.0,-8.0,-9.0,-3.0,-2.0,1.0,-8.0
1701634247.1702285,13.0,11.0,-3.0,11.0,7.0,16.0,2.0,13.0
1701634247.1702285,-28.0,3.0,63.0,7.0,-5.0,-7.0,0.0,-11.0
1701634247.1804116,16.0,21.0,-15.0,-2.0,2.0,5.0,1.0,-2.0
1701634247.1804116,-22.0,-22.0,3.0,-4.0,-4.0,8.0,-2.0,-4.0
1701634247.2001996,13.0,6.0,-38.0,-11.0,-4.0,-16.0,-2.0,3.0
1701634247.2001996,10.0,12.0,9.0,-2.0,-1.0,1.0,-12.0,0.0
1701634247.2001996,-3.0,1.0,-13.0,3.0,2.0,0.0,15.0,13.0
1701634247.2001996,6.0,-25.0,43.0,18.0,6.0,-3.0,1.0,-12.0
1701634247.2204056,-16.0,-21.0,-21.0,-22.0,-21.0,-5.0,-12.0,-6.0
1701634247.2204056,31.0,18.0,13.0,9.0,6.0,-9.0,-20.0,-15.0
1701634247.2204056,-4.0,21.0,24.0,10.0,2.0,5.0,11.0,11.0
1701634247.2204056,37.0,10.0,-59.0,-16.0,1.0,-2.0,7.0,30.0
1701634247.230341,-40.0,-39.0,3.0,0.0,1.0,-6.0,-4.0,-44.0
1701634247.230341,43.0,3.0,-36.0,-2.0,0.0,-12.0,-9.0,21.0
1701634247.2403884,-30.0,-24.0,21.0,18.0,3.0,-3.0,-3.0,-14.0
1701634247.2403884,-8.0,4.0,-15.0,-37.0,-13.0,-9.0,-8.0,-19.0
1701634247.2608542,29.0,7.0,-44.0,-4.0,-1.0,3.0,-6.0,5.0
1701634247.2608542,-65.0,-30.0,26.0,-12.0,-18.0,-1.0,4.0,26.0
1701634247.2619019,19.0,17.0,-13.0,28.0,12.0,-10.0,-18.0,-14.0
1701634247.2628522,-6.0,-13.0,-47.0,-42.0,-13.0,-5.0,4.0,8.0
1701634247.282728,11.0,30.0,8.0,13.0,5.0,-10.0,4.0,8.0
1701634247.282728,23.0,-8.0,5.0,-25.0,-3.0,5.0,-8.0,-25.0
1701634247.2842798,-38.0,5.0,40.0,12.0,-2.0,9.0,12.0,11.0
1701634247.2842798,-7.0,-2.0,70.0,20.0,-2.0,-16.0,-13.0,-9.0
1701634247.2920296,6.0,13.0,-17.0,-25.0,-1.0,-6.0,-11.0,6.0
1701634247.2920296,22.0,-15.0,-3.0,29.0,15.0,30.0,33.0,6.0
1701634247.3023303,-1.0,-19.0,-87.0,-27.0,-11.0,-6.0,-10.0,1.0
1701634247.3023303,15.0,27.0,13.0,23.0,7.0,7.0,1.0,-7.0
1701634247.3123279,-11.0,-8.0,41.0,4.0,2.0,-9.0,9.0,10.0
1701634247.3123279,1.0,17.0,35.0,-14.0,-9.0,-8.0,-3.0,6.0
1701634247.3320303,-12.0,-41.0,-25.0,-16.0,-3.0,2.0,-1.0,-20.0
1701634247.3320303,3.0,-4.0,58.0,36.0,5.0,-4.0,6.0,2.0
1701634247.342367,4.0,15.0,-43.0,-21.0,2.0,26.0,-20.0,26.0
1701634247.342367,-42.0,-30.0,-46.0,-11.0,-15.0,-11.0,2.0,-34.0
1701634247.342367,19.0,37.0,42.0,1.0,1.0,-3.0,-2.0,10.0
1701634247.342367,-9.0,19.0,-23.0,-5.0,3.0,13.0,19.0,7.0
1701634247.372032,-13.0,5.0,34.0,25.0,8.0,1.0,-18.0,-39.0
1701634247.372032,-13.0,-14.0,-5.0,-10.0,2.0,-15.0,22.0,25.0
1701634247.372032,0.0,-30.0,-38.0,-17.0,1.0,22.0,4.0,12.0
1701634247.372032,-17.0,-10.0,-82.0,-13.0,1.0,4.0,-12.0,-8.0
1701634247.372032,-11.0,18.0,63.0,10.0,-14.0,-11.0,-8.0,-7.0
1701634247.372032,-9.0,-8.0,-28.0,10.0,9.0,0.0,-3.0,-27.0
1701634247.3920295,27.0,33.0,-54.0,-26.0,-11.0,-13.0,-1.0,7.0
1701634247.3920295,-4.0,-24.0,5.0,0.0,-5.0,-16.0,-22.0,-6.0
1701634247.4023478,-20.0,-31.0,-46.0,-4.0,9.0,24.0,22.0,20.0
1701634247.4023478,-11.0,4.0,53.0,9.0,-8.0,-5.0,-17.0,-19.0
1701634247.4023478,23.0,13.0,-5.0,-14.0,3.0,1.0,-3.0,-4.0
1701634247.4023478,-3.0,8.0,33.0,15.0,4.0,14.0,2.0,19.0
1701634247.422084,-20.0,-17.0,-37.0,-12.0,-10.0,-16.0,-3.0,-47.0
1701634247.422084,11.0,-6.0,-24.0,-13.0,0.0,0.0,2.0,19.0
1701634247.422084,-22.0,13.0,58.0,33.0,4.0,-2.0,-1.0,9.0
1701634247.422084,41.0,-1.0,-10.0,-14.0,-2.0,-1.0,7.0,1.0
1701634247.43205,-32.0,-42.0,-25.0,7.0,0.0,-5.0,4.0,5.0
1701634247.43205,-22.0,11.0,26.0,-4.0,-7.0,-3.0,-4.0,-15.0
1701634247.4420302,26.0,-1.0,-4.0,2.0,7.0,9.0,10.0,11.0
1701634247.4420302,-23.0,-11.0,6.0,4.0,-11.0,-8.0,-1.0,7.0
1701634247.4623983,45.0,8.0,0.0,7.0,10.0,1.0,-3.0,-3.0
1701634247.4623983,-9.0,-17.0,12.0,11.0,-3.0,16.0,1.0,5.0
1701634247.4623983,32.0,47.0,10.0,-25.0,-13.0,-12.0,-4.0,-6.0
1701634247.4623983,-21.0,2.0,61.0,41.0,38.0,10.0,6.0,7.0
1701634247.4822173,-1.0,-36.0,-88.0,-19.0,-12.0,-1.0,-1.0,-7.0
1701634247.4822173,-5.0,-5.0,-59.0,-32.0,-11.0,-14.0,6.0,14.0
1701634247.4822173,-47.0,-6.0,18.0,-4.0,-5.0,3.0,-2.0,-21.0
1701634247.4822173,41.0,23.0,30.0,21.0,-2.0,10.0,-2.0,5.0
1701634247.4920306,10.0,-1.0,13.0,-9.0,-2.0,-4.0,-3.0,-4.0
1701634247.4920306,-48.0,-16.0,-42.0,-4.0,3.0,-14.0,-22.0,-24.0
1701634247.5020566,33.0,-11.0,46.0,5.0,-6.0,-3.0,-2.0,8.0
1701634247.5020566,-29.0,-7.0,-47.0,-19.0,-6.0,-8.0,-6.0,-6.0
1701634247.5223937,-25.0,-5.0,16.0,-10.0,-6.0,4.0,-7.0,0.0
1701634247.5223937,40.0,43.0,11.0,13.0,5.0,10.0,9.0,34.0
1701634247.5223937,13.0,20.0,33.0,8.0,-1.0,-23.0,-9.0,-18.0
1701634247.5223937,9.0,-5.0,-26.0,-14.0,1.0,5.0,12.0,18.0
1701634247.5420303,-10.0,37.0,38.0,8.0,-6.0,0.0,11.0,-17.0
1701634247.5420303,7.0,-22.0,63.0,22.0,8.0,0.0,-6.0,3.0
1701634247.5420303,-14.0,-23.0,-62.0,1.0,-3.0,-2.0,10.0,-4.0
1701634247.5420303,16.0,4.0,-13.0,-9.0,-8.0,-4.0,-9.0,-26.0
1701634247.5523539,-4.0,3.0,6.0,-6.0,1.0,-1.0,13.0,20.0
1701634247.5523539,6.0,4.0,15.0,3.0,10.0,6.0,-19.0,-18.0
1701634247.5622656,5.0,-9.0,-7.0,5.0,2.0,0.0,-8.0,35.0
1701634247.5622656,-21.0,-9.0,-36.0,-27.0,-13.0,-10.0,-20.0,-61.0
1701634247.582416,6.0,-1.0,18.0,-15.0,-9.0,3.0,4.0,29.0
1701634247.582416,9.0,18.0,18.0,31.0,8.0,2.0,-6.0,-9.0
1701634247.582416,-24.0,-38.0,-43.0,4.0,9.0,-9.0,-43.0,-68.0
1701634247.582416,6.0,-1.0,7.0,0.0,1.0,10.0,49.0,57.0
1701634247.60203,16.0,18.0,20.0,-22.0,-16.0,-16.0,-42.0,-43.0
1701634247.60203,3.0,-20.0,-13.0,-10.0,-7.0,-5.0,1.0,9.0
1701634247.60203,-8.0,3.0,-20.0,19.0,20.0,10.0,17.0,22.0
1701634247.60203,13.0,4.0,27.0,18.0,10.0,7.0,3.0,5.0
1701634247.6123688,-26.0,-11.0,-23.0,2.0,1.0,-3.0,14.0,1.0
1701634247.6123688,16.0,25.0,4.0,-8.0,-15.0,-5.0,10.0,10.0
1701634247.6223097,21.0,-7.0,43.0,4.0,-8.0,-9.0,-18.0,-12.0
1701634247.6223097,-18.0,-1.0,-34.0,-21.0,-1.0,7.0,12.0,-9.0
1701634247.6424048,7.0,-22.0,6.0,8.0,2.0,8.0,11.0,24.0
1701634247.6424048,-2.0,10.0,34.0,5.0,1.0,-7.0,-10.0,-13.0
1701634247.6520312,2.0,-16.0,-20.0,-7.0,-31.0,-29.0,-11.0,7.0
1701634247.6520312,22.0,5.0,-69.0,-12.0,15.0,0.0,-8.0,0.0
1701634247.662029,1.0,13.0,55.0,37.0,10.0,7.0,4.0,5.0
1701634247.662029,10.0,-18.0,-37.0,-2.0,5.0,2.0,8.0,0.0
1701634247.662029,-20.0,-18.0,-42.0,-55.0,-20.0,-6.0,6.0,-1.0
1701634247.662029,-4.0,21.0,75.0,40.0,-4.0,-10.0,-18.0,-7.0
1701634247.672301,11.0,1.0,-37.0,-13.0,7.0,6.0,-1.0,7.0
1701634247.672301,-13.0,10.0,53.0,16.0,10.0,4.0,17.0,14.0
1701634247.6822805,-2.0,-2.0,39.0,9.0,-6.0,4.0,0.0,-8.0
1701634247.6822805,-31.0,-13.0,-99.0,-32.0,-15.0,-12.0,-9.0,-2.0
1701634247.702034,22.0,0.0,-14.0,23.0,15.0,15.0,3.0,2.0
1701634247.702034,-19.0,23.0,12.0,-4.0,0.0,-2.0,3.0,13.0
1701634247.702034,-40.0,-19.0,-12.0,-2.0,2.0,12.0,-5.0,-48.0
1701634247.702034,-2.0,-2.0,22.0,6.0,-3.0,2.0,1.0,19.0
1701634247.7220302,-14.0,-11.0,10.0,2.0,-1.0,-10.0,1.0,1.0
1701634247.7220302,-14.0,-19.0,-44.0,4.0,-1.0,-4.0,-9.0,-23.0
1701634247.7220302,19.0,14.0,-23.0,-19.0,-2.0,2.0,9.0,39.0
1701634247.7220302,-25.0,16.0,65.0,23.0,0.0,-3.0,-15.0,-19.0
1701634247.7420337,9.0,15.0,-41.0,-15.0,-1.0,17.0,10.0,25.0
1701634247.7420337,3.0,-31.0,-4.0,-8.0,-4.0,-2.0,-3.0,-15.0
1701634247.7420337,-2.0,16.0,30.0,14.0,1.0,2.0,3.0,7.0
1701634247.7420337,18.0,36.0,19.0,2.0,2.0,-5.0,-5.0,-1.0
1701634247.772029,11.0,-38.0,12.0,-3.0,-9.0,-12.0,-1.0,-5.0
1701634247.772029,-10.0,3.0,-58.0,-28.0,-7.0,-6.0,-6.0,-14.0
1701634247.772029,15.0,58.0,48.0,24.0,14.0,5.0,3.0,0.0
1701634247.772029,-27.0,-126.0,-61.0,-10.0,-6.0,-2.0,-1.0,2.0
1701634247.7823792,-7.0,57.0,20.0,-21.0,-3.0,-4.0,-5.0,-16.0
1701634247.7823792,24.0,73.0,-23.0,0.0,-9.0,-7.0,-2.0,7.0
1701634247.7823792,-27.0,-56.0,28.0,21.0,14.0,10.0,3.0,3.0
1701634247.7823792,11.0,5.0,-47.0,-23.0,-6.0,-2.0,-6.0,-6.0
1701634247.7999475,-2.0,-33.0,1.0,41.0,9.0,-12.0,0.0,1.0
1701634247.7999475,-1.0,-23.0,33.0,-9.0,-19.0,-3.0,-2.0,5.0
1701634247.806358,24.0,66.0,6.0,-17.0,-4.0,-8.0,-1.0,6.0
1701634247.806358,5.0,14.0,30.0,20.0,4.0,16.0,-5.0,-7.0
1701634247.82476,-3.0,3.0,24.0,-3.0,-1.0,-3.0,-4.0,-12.0
1701634247.82476,-7.0,-37.0,-16.0,-9.0,7.0,5.0,0.0,4.0
1701634247.82476,27.0,13.0,44.0,28.0,4.0,-5.0,-1.0,-11.0
1701634247.82476,9.0,-16.0,-35.0,-30.0,-1.0,16.0,16.0,-32.0
1701634247.8451385,10.0,22.0,62.0,0.0,-12.0,-7.0,2.0,27.0
1701634247.8451385,19.0,26.0,-38.0,8.0,13.0,15.0,4.0,8.0
1701634247.8451385,-33.0,21.0,26.0,0.0,1.0,-23.0,-28.0,-10.0
1701634247.8451385,-3.0,-59.0,-5.0,1.0,-5.0,8.0,4.0,-5.0
1701634247.855086,-22.0,17.0,-4.0,-11.0,-4.0,3.0,-5.0,-3.0
1701634247.855086,9.0,35.0,41.0,18.0,6.0,4.0,9.0,-2.0
1701634247.8650775,-19.0,-40.0,-27.0,-9.0,-2.0,-7.0,-4.0,-6.0
1701634247.8650775,18.0,48.0,11.0,0.0,-9.0,-18.0,-20.0,5.0
1701634247.884761,-8.0,-20.0,-29.0,-19.0,-13.0,4.0,-4.0,-10.0
1701634247.884761,-11.0,-46.0,21.0,4.0,0.0,-2.0,-4.0,-4.0
1701634247.884761,4.0,35.0,-10.0,9.0,3.0,0.0,5.0,8.0
1701634247.884761,-7.0,15.0,7.0,-51.0,-13.0,-4.0,6.0,13.0
1701634247.9051347,-13.0,-31.0,-55.0,19.0,8.0,-3.0,-7.0,-10.0
1701634247.9051347,13.0,17.0,5.0,-9.0,-5.0,-9.0,11.0,4.0
1701634247.9051347,2.0,-9.0,36.0,21.0,33.0,55.0,12.0,9.0
1701634247.9051347,14.0,12.0,8.0,-5.0,-9.0,-12.0,0.0,1.0
1701634247.9151614,2.0,6.0,-41.0,-32.0,-12.0,-10.0,1.0,-3.0
1701634247.9151614,-9.0,-12.0,-37.0,-36.0,-21.0,-15.0,-4.0,-3.0
1701634247.9251525,-5.0,-22.0,12.0,44.0,7.0,0.0,10.0,4.0
1701634247.9251525,-5.0,12.0,82.0,38.0,6.0,-10.0,-10.0,-2.0
1701634247.9447627,8.0,12.0,-58.0,-22.0,6.0,-3.0,3.0,3.0
1701634247.9447627,-13.0,-6.0,62.0,23.0,-9.0,-14.0,-9.0,-5.0
1701634247.9447627,0.0,-27.0,-68.0,-63.0,-21.0,-10.0,-5.0,-7.0
1701634247.9447627,2.0,16.0,15.0,18.0,5.0,2.0,3.0,5.0
1701634247.9651868,-6.0,-10.0,-12.0,5.0,17.0,8.0,2.0,0.0
1701634247.9651868,4.0,-7.0,-29.0,-12.0,1.0,4.0,-7.0,-5.0
1701634247.9651868,-3.0,-3.0,-4.0,-9.0,-9.0,-6.0,2.0,2.0
1701634247.9651868,6.0,10.0,17.0,-3.0,-1.0,-4.0,3.0,26.0
1701634247.9751644,3.0,-13.0,5.0,-3.0,-2.0,-6.0,-6.0,-17.0
1701634247.9751644,-20.0,-1.0,6.0,12.0,5.0,10.0,-1.0,1.0
1701634247.9847643,17.0,-13.0,-38.0,-17.0,-9.0,-2.0,2.0,-1.0
1701634247.9847643,12.0,2.0,16.0,4.0,4.0,2.0,-3.0,0.0
1701634247.9947958,1.0,-3.0,10.0,11.0,-3.0,6.0,-10.0,-7.0
1701634247.9947958,3.0,14.0,-23.0,-1.0,15.0,17.0,2.0,-1.0
1701634247.9947958,-9.0,-8.0,-5.0,-3.0,-2.0,-2.0,5.0,4.0
1701634247.9947958,-9.0,10.0,-8.0,-4.0,3.0,4.0,-4.0,5.0
1701634248.0247965,-14.0,-14.0,23.0,7.0,-8.0,-3.0,2.0,-4.0
1701634248.0247965,5.0,-3.0,21.0,-1.0,-3.0,-9.0,-2.0,-7.0
1701634248.0247965,7.0,2.0,-22.0,-8.0,3.0,-4.0,-3.0,5.0
1701634248.0247965,-8.0,-18.0,-13.0,-6.0,-10.0,-6.0,-1.0,-10.0
1701634248.0347652,-7.0,4.0,21.0,4.0,1.0,4.0,2.0,9.0
1701634248.0347652,0.0,-11.0,-18.0,13.0,2.0,-8.0,-4.0,17.0
1701634248.0448182,4.0,14.0,2.0,-26.0,-14.0,-4.0,-1.0,-4.0
1701634248.0448182,11.0,3.0,4.0,-6.0,-2.0,-1.0,-1.0,-6.0
1701634248.0647657,-6.0,-12.0,1.0,17.0,2.0,-6.0,-2.0,6.0
1701634248.0647657,14.0,-8.0,-17.0,-1.0,1.0,1.0,5.0,-1.0
1701634248.0647657,-5.0,1.0,37.0,5.0,-4.0,-2.0,-4.0,-16.0
1701634248.0647657,-11.0,1.0,-13.0,-2.0,1.0,-2.0,-1.0,-4.0
1701634248.0847626,7.0,16.0,41.0,19.0,4.0,3.0,4.0,4.0
1701634248.0847626,-3.0,-2.0,-22.0,-16.0,1.0,0.0,-5.0,-4.0
1701634248.0847626,-11.0,-30.0,10.0,2.0,-4.0,0.0,3.0,0.0
1701634248.0847626,-7.0,1.0,-57.0,-5.0,1.0,-3.0,-4.0,-8.0
1701634248.094763,-5.0,8.0,45.0,-1.0,-8.0,-5.0,-5.0,-8.0
1701634248.094763,-3.0,0.0,30.0,3.0,2.0,0.0,-1.0,2.0
1701634248.1047628,-5.0,-10.0,-54.0,-5.0,-1.0,-4.0,-6.0,-3.0
1701634248.1047628,-1.0,-2.0,14.0,5.0,-5.0,-9.0,-2.0,1.0
1701634248.1147618,19.0,-2.0,10.0,6.0,1.0,-5.0,1.0,0.0
1701634248.1147618,2.0,4.0,-43.0,-19.0,-3.0,8.0,0.0,2.0
1701634248.1147618,-17.0,-29.0,-22.0,-5.0,0.0,5.0,7.0,21.0
1701634248.1147618,3.0,6.0,29.0,3.0,-4.0,2.0,-9.0,-12.0
1701634248.1347628,2.0,21.0,-46.0,-28.0,-17.0,-8.0,-2.0,-5.0
1701634248.1347628,2.0,-7.0,21.0,16.0,5.0,-9.0,0.0,-3.0
1701634248.144765,-9.0,9.0,-9.0,12.0,3.0,10.0,-2.0,0.0
1701634248.144765,7.0,-22.0,-5.0,-20.0,-12.0,-15.0,-1.0,3.0
1701634248.154762,-6.0,17.0,20.0,1.0,9.0,15.0,3.0,1.0
1701634248.154762,1.0,-4.0,-4.0,-2.0,-7.0,13.0,-6.0,-19.0
1701634248.1647615,11.0,18.0,11.0,6.0,7.0,-4.0,-2.0,-5.0
1701634248.1647615,-1.0,-13.0,-10.0,8.0,3.0,-6.0,1.0,8.0
1701634248.1747637,1.0,-22.0,-28.0,-23.0,-12.0,1.0,-1.0,-5.0
1701634248.1747637,14.0,18.0,39.0,13.0,7.0,-8.0,-1.0,18.0
1701634248.1847613,-16.0,-23.0,-26.0,8.0,4.0,1.0,1.0,-8.0
1701634248.1847613,8.0,11.0,-27.0,-8.0,4.0,9.0,-2.0,-4.0
1701634248.2047632,-2.0,-5.0,8.0,1.0,-2.0,-13.0,-3.0,4.0
1701634248.2047632,-6.0,-5.0,-12.0,6.0,7.0,6.0,2.0,-7.0
1701634248.2047632,-6.0,-9.0,14.0,-8.0,-4.0,-6.0,-2.0,-3.0
1701634248.2047632,-12.0,35.0,40.0,13.0,6.0,9.0,4.0,-1.0
1701634248.2147639,30.0,17.0,-38.0,-19.0,-17.0,-14.0,-7.0,4.0
1701634248.2147639,-10.0,-17.0,-3.0,29.0,20.0,3.0,2.0,-1.0
1701634248.2251513,5.0,-6.0,15.0,3.0,-4.0,-3.0,-1.0,-4.0
1701634248.2251513,-1.0,-32.0,-15.0,-10.0,-1.0,1.0,-3.0,-7.0
1701634248.234765,-14.0,9.0,-3.0,-11.0,-4.0,-2.0,0.0,-5.0
1701634248.234765,-11.0,5.0,17.0,-8.0,-3.0,-2.0,-1.0,-8.0
1701634248.24503,1.0,15.0,18.0,1.0,-2.0,-5.0,-15.0,4.0
1701634248.24503,18.0,28.0,9.0,-1.0,5.0,9.0,7.0,21.0
1701634248.2649217,7.0,11.0,-3.0,-1.0,1.0,-5.0,5.0,20.0
1701634248.2649217,-36.0,-61.0,-14.0,-12.0,-16.0,-5.0,-12.0,-21.0
1701634248.2649217,-4.0,-29.0,-52.0,-2.0,11.0,-3.0,-16.0,-15.0
1701634248.2649217,-20.0,-17.0,12.0,-6.0,-4.0,0.0,15.0,-11.0
1701634248.2747614,45.0,31.0,15.0,11.0,3.0,2.0,-1.0,12.0
1701634248.2747614,-11.0,24.0,21.0,25.0,5.0,4.0,3.0,2.0
1701634248.2850075,26.0,24.0,-18.0,-38.0,-35.0,-12.0,1.0,-8.0
1701634248.2850075,-29.0,-50.0,33.0,37.0,33.0,-3.0,-14.0,-12.0
1701634248.2950408,12.0,16.0,-45.0,-2.0,5.0,22.0,10.0,-2.0
1701634248.2950408,-33.0,8.0,6.0,-20.0,-16.0,-34.0,-2.0,-5.0
1701634248.3049831,27.0,34.0,17.0,21.0,18.0,18.0,11.0,5.0
1701634248.3049831,-2.0,8.0,-3.0,-8.0,-16.0,6.0,3.0,2.0
1701634248.3257976,-14.0,-34.0,-13.0,4.0,-4.0,-19.0,-8.0,-3.0
1701634248.3257976,4.0,14.0,60.0,-8.0,-9.0,-8.0,-5.0,-2.0
1701634248.326743,1.0,2.0,-58.0,-23.0,-10.0,3.0,5.0,15.0
1701634248.326743,-8.0,-7.0,0.0,24.0,13.0,10.0,-2.0,0.0
1701634248.3511267,-23.0,-2.0,39.0,8.0,9.0,13.0,-9.0,-23.0
1701634248.3511267,27.0,-7.0,-26.0,-16.0,-16.0,-12.0,7.0,10.0
1701634248.3511267,-14.0,-18.0,45.0,17.0,14.0,20.0,2.0,-4.0
1701634248.3511267,1.0,-7.0,15.0,-11.0,-24.0,-42.0,-11.0,-7.0
1701634248.3611727,2.0,-5.0,-89.0,-16.0,-3.0,1.0,15.0,4.0
1701634248.3611727,-2.0,21.0,15.0,-5.0,15.0,44.0,-6.0,-11.0
1701634248.3611727,-1.0,19.0,55.0,26.0,11.0,10.0,-3.0,3.0
1701634248.3611727,0.0,-18.0,-33.0,-17.0,-14.0,-18.0,-3.0,-3.0
1701634248.3811388,-13.0,-22.0,21.0,5.0,5.0,0.0,-4.0,-4.0
1701634248.3811388,7.0,-8.0,-40.0,1.0,-7.0,-8.0,0.0,4.0
1701634248.3811388,-13.0,0.0,16.0,-1.0,4.0,-4.0,-1.0,1.0
1701634248.3811388,-3.0,17.0,-30.0,-2.0,5.0,19.0,2.0,-5.0
1701634248.4014478,-12.0,-5.0,15.0,-7.0,-7.0,-17.0,-17.0,-4.0
1701634248.4014478,3.0,23.0,6.0,13.0,5.0,10.0,15.0,3.0
1701634248.4014478,0.0,-17.0,-3.0,-5.0,-2.0,-15.0,-6.0,-2.0
1701634248.4014478,34.0,30.0,25.0,4.0,1.0,16.0,8.0,9.0
1701634248.4214258,-49.0,-45.0,-19.0,-4.0,-1.0,-6.0,-14.0,-16.0
1701634248.4214258,16.0,12.0,-48.0,-21.0,-5.0,-6.0,-4.0,9.0
1701634248.4214258,-6.0,-17.0,-12.0,-7.0,-10.0,-7.0,2.0,-5.0
1701634248.4214258,-3.0,10.0,-4.0,6.0,15.0,13.0,5.0,3.0
1701634248.4411392,30.0,4.0,36.0,18.0,9.0,-4.0,8.0,19.0
1701634248.4411392,6.0,-1.0,18.0,-3.0,7.0,14.0,17.0,4.0
1701634248.4411392,-47.0,-9.0,-45.0,2.0,-6.0,-7.0,-29.0,-34.0
1701634248.4411392,-3.0,14.0,12.0,10.0,5.0,5.0,-13.0,-9.0
1701634248.461477,19.0,8.0,39.0,-9.0,-6.0,-3.0,-3.0,-5.0
1701634248.461477,-19.0,-20.0,-23.0,10.0,2.0,-10.0,2.0,13.0
1701634248.461477,16.0,21.0,4.0,-5.0,-1.0,-4.0,14.0,14.0
1701634248.461477,-7.0,-39.0,-40.0,1.0,-10.0,-8.0,3.0,5.0
1701634248.4815133,-18.0,-6.0,5.0,-23.0,-12.0,4.0,1.0,-1.0
1701634248.4815133,12.0,-15.0,2.0,21.0,19.0,-19.0,-4.0,-6.0
1701634248.4815133,-8.0,3.0,4.0,-11.0,-14.0,11.0,1.0,-5.0
1701634248.4815133,16.0,19.0,10.0,41.0,31.0,7.0,-2.0,7.0
1701634248.5014932,-8.0,2.0,3.0,-2.0,14.0,8.0,18.0,-1.0
1701634248.5014932,18.0,-17.0,-17.0,-26.0,-8.0,-3.0,-11.0,-3.0
1701634248.5014932,-10.0,-10.0,22.0,8.0,-8.0,-12.0,-24.0,-22.0
1701634248.5014932,22.0,26.0,-7.0,-50.0,-35.0,-25.0,-19.0,-14.0
1701634248.5211372,-35.0,14.0,43.0,50.0,30.0,5.0,2.0,1.0
1701634248.5211372,16.0,10.0,-36.0,-12.0,-7.0,-8.0,-9.0,1.0
1701634248.5211372,14.0,-42.0,9.0,-8.0,-1.0,10.0,26.0,21.0
1701634248.5211372,-12.0,-2.0,-37.0,-21.0,-12.0,-19.0,4.0,6.0
1701634248.5414386,12.0,-6.0,-27.0,-26.0,-15.0,-9.0,-13.0,-12.0
1701634248.5414386,30.0,20.0,23.0,-8.0,-17.0,-1.0,-1.0,1.0
1701634248.5414386,-41.0,10.0,-45.0,2.0,21.0,1.0,6.0,14.0
1701634248.5414386,36.0,-7.0,78.0,14.0,-3.0,3.0,3.0,17.0
1701634248.5611382,-10.0,-17.0,-17.0,5.0,-8.0,-8.0,-9.0,3.0
1701634248.5611382,34.0,26.0,-7.0,-8.0,-9.0,-4.0,-8.0,-15.0
1701634248.5611382,-12.0,-14.0,-21.0,-13.0,-3.0,6.0,17.0,-17.0
1701634248.5611382,2.0,-14.0,-39.0,-15.0,5.0,-10.0,1.0,2.0
1701634248.5815113,38.0,26.0,16.0,8.0,-2.0,24.0,8.0,7.0
1701634248.5815113,-16.0,-10.0,16.0,5.0,-1.0,-4.0,-17.0,-9.0
1701634248.5815113,4.0,19.0,13.0,-10.0,0.0,-6.0,23.0,39.0
1701634248.5815113,-12.0,25.0,-22.0,-8.0,3.0,14.0,-8.0,-36.0
1701634248.6011386,-43.0,-34.0,19.0,-9.0,-14.0,-14.0,24.0,1.0
1701634248.6011386,36.0,-27.0,-50.0,9.0,9.0,15.0,17.0,60.0
1701634248.6011386,7.0,22.0,24.0,18.0,4.0,-26.0,-30.0,-24.0
1701634248.6011386,13.0,16.0,-1.0,-18.0,-4.0,8.0,-17.0,-15.0
1701634248.6215186,35.0,0.0,4.0,-9.0,-5.0,-8.0,-1.0,4.0
1701634248.6215186,-66.0,-14.0,10.0,9.0,0.0,3.0,10.0,-21.0
1701634248.6215186,34.0,-2.0,26.0,12.0,0.0,3.0,-5.0,15.0
1701634248.6215186,-36.0,-14.0,0.0,6.0,-7.0,-27.0,-9.0,-7.0
1701634248.6414337,-5.0,-5.0,-15.0,2.0,10.0,16.0,0.0,-5.0
1701634248.6414337,-49.0,-22.0,0.0,-5.0,3.0,-3.0,-11.0,-1.0
1701634248.6414337,9.0,8.0,-6.0,-17.0,-18.0,-16.0,1.0,-4.0
1701634248.6414337,-8.0,-10.0,0.0,-4.0,-10.0,0.0,2.0,3.0
1701634248.66114,17.0,13.0,-16.0,6.0,12.0,2.0,-9.0,-9.0
1701634248.66114,-4.0,7.0,27.0,-5.0,-12.0,-5.0,0.0,-6.0
1701634248.66114,8.0,13.0,-1.0,1.0,-14.0,-2.0,-1.0,-1.0
1701634248.66114,-26.0,-19.0,-33.0,9.0,24.0,16.0,6.0,-8.0
1701634248.6813679,-6.0,9.0,20.0,-12.0,-5.0,-7.0,-4.0,0.0
1701634248.6813679,-19.0,17.0,55.0,23.0,-4.0,-1.0,-3.0,-13.0
1701634248.6813679,35.0,-11.0,-27.0,-29.0,9.0,16.0,-2.0,4.0
1701634248.6813679,-15.0,-21.0,33.0,27.0,4.0,6.0,0.0,2.0
1701634248.7014117,-4.0,-10.0,-79.0,-50.0,-19.0,-13.0,-8.0,-6.0
1701634248.7014117,0.0,8.0,12.0,34.0,18.0,7.0,-4.0,-5.0
1701634248.711362,3.0,3.0,4.0,11.0,9.0,0.0,-2.0,-4.0
1701634248.711362,13.0,9.0,103.0,28.0,0.0,0.0,6.0,15.0
1701634248.7411387,-21.0,-14.0,-61.0,-26.0,-6.0,0.0,-9.0,-10.0
1701634248.7411387,1.0,3.0,30.0,0.0,-12.0,-7.0,-5.0,-13.0
1701634248.7411387,-11.0,0.0,54.0,20.0,12.0,3.0,6.0,8.0
1701634248.7411387,13.0,19.0,-17.0,-26.0,-5.0,-6.0,9.0,2.0
1701634248.7411387,-12.0,-8.0,70.0,60.0,16.0,9.0,-1.0,-5.0
1701634248.7411387,10.0,-8.0,-67.0,-37.0,-9.0,-13.0,-4.0,4.0
1701634248.7411387,5.0,2.0,12.0,-6.0,3.0,7.0,-8.0,-6.0
1701634248.7411387,-4.0,-4.0,5.0,6.0,-2.0,4.0,1.0,8.0
1701634248.7615178,1.0,15.0,1.0,8.0,-1.0,4.0,14.0,-3.0
1701634248.7615178,2.0,-1.0,-22.0,-18.0,-1.0,-5.0,3.0,4.0
1701634248.7615178,-12.0,9.0,43.0,9.0,0.0,-5.0,-5.0,-16.0
1701634248.7615178,-30.0,-18.0,-49.0,-18.0,-9.0,-10.0,-4.0,-8.0
1701634248.781484,0.0,5.0,9.0,15.0,4.0,-2.0,-4.0,5.0
1701634248.781484,-2.0,20.0,5.0,4.0,9.0,7.0,-1.0,3.0
1701634248.781484,-14.0,-7.0,-6.0,-5.0,-10.0,-9.0,1.0,-1.0
1701634248.781484,7.0,-14.0,-8.0,-16.0,-12.0,-5.0,-6.0,2.0
1701634248.8011708,7.0,-6.0,13.0,0.0,-4.0,-12.0,0.0,38.0
1701634248.8011708,5.0,6.0,-9.0,2.0,6.0,5.0,-5.0,-50.0
1701634248.8011708,-4.0,-9.0,-32.0,-9.0,-3.0,21.0,-1.0,13.0
1701634248.8011708,2.0,17.0,13.0,5.0,2.0,4.0,4.0,11.0
1701634248.821349,3.0,-5.0,5.0,-7.0,1.0,-3.0,-3.0,4.0
1701634248.821349,0.0,4.0,37.0,2.0,-11.0,-7.0,-4.0,-1.0
1701634248.821349,-4.0,-23.0,-20.0,0.0,-6.0,-4.0,8.0,7.0
1701634248.821349,2.0,-1.0,-22.0,-22.0,15.0,17.0,-1.0,-5.0
1701634248.86242,3.0,11.0,6.0,17.0,-3.0,1.0,-12.0,-16.0
1701634248.86242,-8.0,-10.0,7.0,4.0,9.0,-5.0,2.0,8.0
1701634248.86242,11.0,9.0,-27.0,-10.0,-12.0,1.0,1.0,-6.0
1701634248.86242,-7.0,-1.0,12.0,18.0,6.0,-4.0,-2.0,-1.0
1701634248.865422,5.0,8.0,6.0,-17.0,-10.0,-8.0,0.0,-9.0
1701634248.865422,-12.0,5.0,2.0,1.0,-3.0,0.0,-1.0,1.0
1701634248.8664207,-3.0,-17.0,-6.0,9.0,5.0,-2.0,-1.0,0.0
1701634248.8664207,-1.0,-12.0,-67.0,-9.0,-1.0,1.0,1.0,-2.0
1701634248.8939545,14.0,29.0,7.0,-11.0,-1.0,8.0,-3.0,3.0
1701634248.8939545,-17.0,-26.0,17.0,11.0,0.0,-3.0,3.0,-1.0
1701634248.8939545,-15.0,7.0,24.0,3.0,-9.0,-12.0,-8.0,-7.0
1701634248.8939545,-2.0,-18.0,-7.0,-20.0,4.0,0.0,-3.0,-8.0
1701634248.8939545,-8.0,-5.0,-8.0,6.0,6.0,2.0,5.0,13.0
1701634248.8939545,7.0,4.0,-31.0,-9.0,0.0,8.0,1.0,7.0
1701634248.9042134,44.0,6.0,20.0,-7.0,-10.0,-11.0,6.0,-9.0
1701634248.9042134,-11.0,-4.0,4.0,9.0,-5.0,-2.0,-2.0,7.0
1701634248.924307,-16.0,-12.0,-3.0,6.0,-6.0,-16.0,-15.0,-1.0
1701634248.924307,17.0,5.0,-18.0,-9.0,12.0,25.0,11.0,3.0
1701634248.924307,-20.0,4.0,2.0,2.0,4.0,-3.0,3.0,-3.0
1701634248.924307,1.0,-3.0,7.0,11.0,2.0,5.0,8.0,-2.0
1701634248.9539554,-3.0,5.0,29.0,-2.0,-4.0,-10.0,-8.0,-9.0
1701634248.9539554,17.0,-3.0,-5.0,-20.0,-15.0,-19.0,5.0,31.0
1701634248.9539554,-9.0,2.0,-44.0,4.0,11.0,21.0,-11.0,-14.0
1701634248.9539554,-3.0,13.0,30.0,3.0,-8.0,-12.0,-7.0,-1.0
1701634248.9539554,-1.0,-12.0,-5.0,1.0,3.0,14.0,12.0,-11.0
1701634248.9539554,-1.0,-15.0,-10.0,-3.0,-8.0,-11.0,-10.0,-2.0
1701634248.9642618,11.0,-9.0,-5.0,3.0,10.0,-3.0,2.0,10.0
1701634248.9642618,-17.0,8.0,4.0,-11.0,-4.0,2.0,-7.0,-8.0
1701634248.9843373,0.0,-2.0,1.0,12.0,3.0,3.0,-4.0,-1.0
1701634248.9843373,23.0,-14.0,-10.0,-4.0,-4.0,-5.0,7.0,-6.0
1701634248.9843373,8.0,2.0,-19.0,-7.0,-4.0,-2.0,-6.0,2.0
1701634248.9843373,-18.0,17.0,-20.0,-32.0,-21.0,-21.0,-10.0,-11.0
1701634249.0039563,-21.0,-40.0,7.0,17.0,13.0,-4.0,-1.0,-5.0
1701634249.0039563,13.0,7.0,-4.0,-4.0,-1.0,3.0,-8.0,-2.0
1701634249.0139549,-17.0,1.0,16.0,8.0,7.0,5.0,19.0,1.0
1701634249.0139549,25.0,7.0,3.0,4.0,-5.0,-1.0,5.0,6.0
1701634249.0139549,-1.0,12.0,-18.0,-5.0,9.0,3.0,-6.0,-5.0
1701634249.0139549,-36.0,-21.0,9.0,-6.0,0.0,3.0,3.0,-13.0
1701634249.0341754,10.0,-14.0,-16.0,-1.0,-5.0,-13.0,-9.0,4.0
1701634249.0341754,22.0,3.0,2.0,-3.0,-4.0,-8.0,-1.0,5.0
1701634249.044029,12.0,18.0,-8.0,-12.0,-8.0,16.0,-1.0,-5.0
1701634249.044029,-7.0,-4.0,16.0,18.0,3.0,9.0,-8.0,1.0
1701634249.044029,6.0,5.0,13.0,-16.0,-5.0,-4.0,-1.0,1.0
1701634249.044029,-4.0,9.0,-1.0,10.0,3.0,-6.0,7.0,-5.0
1701634249.0741255,-9.0,-21.0,-26.0,-17.0,-6.0,-4.0,6.0,-3.0
1701634249.0741255,2.0,8.0,-21.0,-16.0,-1.0,-1.0,-7.0,-3.0
1701634249.0741255,-1.0,4.0,45.0,13.0,1.0,1.0,-4.0,-3.0
1701634249.0741255,3.0,-11.0,2.0,10.0,2.0,0.0,-4.0,-3.0
1701634249.0741255,1.0,-7.0,-1.0,2.0,-5.0,-5.0,-2.0,-3.0
1701634249.0741255,-9.0,18.0,-17.0,-15.0,-6.0,-5.0,-3.0,-4.0
1701634249.0841668,0.0,-14.0,-18.0,-3.0,8.0,5.0,8.0,0.0
1701634249.0841668,-5.0,-3.0,-4.0,-4.0,0.0,10.0,-6.0,2.0
1701634249.1040628,2.0,3.0,52.0,14.0,2.0,-1.0,-2.0,-13.0
1701634249.1040628,0.0,-3.0,-39.0,-5.0,-2.0,-1.0,-5.0,0.0
1701634249.1040628,-1.0,11.0,11.0,0.0,-9.0,-13.0,-5.0,0.0
1701634249.1040628,-2.0,-9.0,8.0,17.0,2.0,12.0,-4.0,2.0
1701634249.123955,-10.0,-13.0,-17.0,-18.0,-4.0,-7.0,14.0,3.0
1701634249.123955,1.0,-3.0,48.0,14.0,7.0,10.0,-1.0,-5.0
1701634249.123955,-1.0,13.0,-7.0,-14.0,-3.0,-1.0,-2.0,-2.0
1701634249.123955,-2.0,-7.0,-29.0,-5.0,4.0,-8.0,-3.0,4.0
1701634249.134147,12.0,26.0,27.0,-23.0,-20.0,-5.0,2.0,7.0
1701634249.134147,-7.0,0.0,16.0,48.0,30.0,4.0,-1.0,-15.0
1701634249.1441433,-3.0,20.0,6.0,1.0,7.0,4.0,1.0,5.0
1701634249.1441433,19.0,-12.0,1.0,-3.0,-11.0,-9.0,-8.0,-2.0
1701634249.1839545,-22.0,-6.0,-55.0,-14.0,4.0,-3.0,-2.0,-3.0
1701634249.1839545,1.0,2.0,10.0,-14.0,-10.0,-8.0,-2.0,1.0
1701634249.1839545,-14.0,-5.0,-12.0,0.0,-10.0,-11.0,-1.0,-2.0
1701634249.1839545,32.0,-2.0,4.0,-5.0,7.0,7.0,6.0,0.0
1701634249.1839545,8.0,14.0,8.0,9.0,0.0,-12.0,-10.0,-1.0
1701634249.1839545,-3.0,-4.0,-1.0,-12.0,-8.0,8.0,15.0,7.0
1701634249.1839545,-7.0,-17.0,-15.0,12.0,7.0,-5.0,-7.0,-4.0
1701634249.1839545,-12.0,7.0,12.0,7.0,2.0,5.0,-1.0,2.0
1701634249.203959,11.0,-12.0,-40.0,-24.0,-12.0,-16.0,-11.0,1.0
1701634249.203959,-1.0,13.0,-8.0,-3.0,0.0,20.0,5.0,-2.0
1701634249.203959,0.0,-35.0,-14.0,5.0,0.0,2.0,4.0,0.0
1701634249.203959,-6.0,11.0,51.0,13.0,2.0,0.0,2.0,-1.0
1701634249.2239547,15.0,11.0,-20.0,8.0,7.0,1.0,-6.0,0.0
1701634249.2239547,-15.0,-13.0,-6.0,-14.0,-16.0,-7.0,-3.0,0.0
1701634249.2239547,-2.0,9.0,-4.0,14.0,21.0,17.0,0.0,-1.0
1701634249.2239547,-6.0,-2.0,7.0,-1.0,1.0,1.0,1.0,-5.0
1701634249.2439566,18.0,6.0,14.0,6.0,1.0,-8.0,2.0,15.0
1701634249.2439566,-14.0,-30.0,-9.0,15.0,3.0,4.0,8.0,-1.0
1701634249.2439566,-8.0,10.0,13.0,-28.0,-27.0,-24.0,-8.0,-6.0
1701634249.2439566,2.0,4.0,22.0,2.0,10.0,7.0,4.0,-1.0
1701634249.2642305,9.0,11.0,6.0,13.0,-2.0,1.0,-4.0,1.0
1701634249.2642305,-19.0,-25.0,-92.0,-31.0,-4.0,-15.0,-8.0,-5.0
1701634249.2642305,-6.0,0.0,24.0,1.0,-3.0,-10.0,-9.0,-8.0
1701634249.2642305,9.0,3.0,-6.0,1.0,4.0,19.0,13.0,7.0
1701634249.2839882,-14.0,-1.0,35.0,10.0,1.0,15.0,4.0,-7.0
1701634249.2839882,25.0,20.0,4.0,-9.0,-4.0,-6.0,-13.0,1.0
1701634249.2839882,-6.0,-7.0,2.0,11.0,0.0,-12.0,-5.0,7.0
1701634249.2839882,-4.0,6.0,4.0,-16.0,-13.0,12.0,-5.0,-2.0
1701634249.3140347,-12.0,-11.0,-18.0,3.0,6.0,5.0,-3.0,-8.0
1701634249.3140347,3.0,2.0,18.0,11.0,2.0,-2.0,3.0,-11.0
1701634249.3140347,5.0,3.0,-19.0,-17.0,-4.0,1.0,-3.0,3.0
1701634249.3140347,5.0,8.0,5.0,-1.0,-8.0,-15.0,-3.0,2.0
1701634249.3242884,-23.0,-22.0,16.0,22.0,10.0,3.0,-6.0,-8.0
1701634249.3242884,4.0,1.0,4.0,2.0,1.0,4.0,-5.0,8.0
1701634249.3242884,12.0,6.0,3.0,-16.0,-11.0,2.0,10.0,17.0
1701634249.3242884,-3.0,1.0,-17.0,-2.0,5.0,-14.0,-7.0,-25.0
1701634249.3439884,-15.0,-12.0,15.0,-3.0,-7.0,0.0,7.0,0.0
1701634249.3439884,3.0,-12.0,-45.0,4.0,0.0,-2.0,-10.0,-3.0
1701634249.3439884,-8.0,-1.0,27.0,-13.0,3.0,18.0,-3.0,1.0
1701634249.3439884,-4.0,-2.0,-25.0,-4.0,-4.0,0.0,-2.0,4.0
1701634249.364339,9.0,16.0,1.0,7.0,5.0,-3.0,6.0,4.0
1701634249.364339,-1.0,8.0,42.0,9.0,-3.0,-4.0,6.0,8.0
1701634249.364339,7.0,-9.0,-30.0,-1.0,-4.0,-3.0,-1.0,2.0
1701634249.364339,-23.0,11.0,14.0,2.0,-2.0,-6.0,-1.0,-4.0
1701634249.389716,11.0,-6.0,3.0,-11.0,-5.0,-2.0,-4.0,-8.0
1701634249.389716,-4.0,7.0,37.0,13.0,-4.0,-13.0,-5.0,8.0
1701634249.3917158,5.0,8.0,-4.0,0.0,10.0,11.0,4.0,-10.0
1701634249.3917158,0.0,-20.0,-35.0,5.0,5.0,-7.0,-1.0,0.0
1701634249.4047155,-15.0,-6.0,-6.0,-12.0,-6.0,-5.0,-13.0,-7.0
1701634249.4047155,-7.0,4.0,26.0,1.0,1.0,-1.0,10.0,-1.0
1701634249.4068575,-5.0,5.0,8.0,2.0,-2.0,2.0,-22.0,-18.0
1701634249.4068575,6.0,2.0,-11.0,0.0,-1.0,3.0,18.0,3.0
1701634249.4271,5.0,1.0,6.0,-5.0,-3.0,-6.0,-2.0,4.0
1701634249.4271,-13.0,3.0,-6.0,-9.0,-7.0,0.0,-2.0,-8.0
1701634249.4271,-3.0,-17.0,-23.0,1.0,-6.0,-7.0,-9.0,-3.0
1701634249.4271,4.0,-8.0,-19.0,-3.0,-3.0,-3.0,0.0,8.0
1701634249.4468603,4.0,1.0,-36.0,-10.0,-5.0,-6.0,6.0,-14.0
1701634249.4468603,-24.0,3.0,68.0,18.0,9.0,9.0,-9.0,0.0
1701634249.4468603,2.0,1.0,-40.0,-9.0,-4.0,7.0,10.0,5.0
1701634249.4468603,-4.0,-9.0,-28.0,-16.0,-1.0,7.0,-10.0,-9.0
1701634249.4569743,11.0,-2.0,18.0,16.0,4.0,3.0,2.0,7.0
1701634249.4569743,-4.0,-2.0,20.0,-2.0,-4.0,-2.0,-14.0,-6.0
1701634249.4668665,3.0,-7.0,-2.0,-5.0,-8.0,-8.0,6.0,6.0
1701634249.4668665,-14.0,-18.0,26.0,13.0,14.0,6.0,8.0,-3.0
1701634249.4868662,-5.0,3.0,-52.0,-16.0,-9.0,10.0,-3.0,-15.0
1701634249.4868662,4.0,12.0,-30.0,-8.0,6.0,-9.0,3.0,2.0
1701634249.4868662,3.0,-6.0,7.0,10.0,3.0,-5.0,1.0,2.0
1701634249.4868662,9.0,0.0,13.0,-7.0,-12.0,-8.0,-11.0,-1.0
1701634249.5068643,6.0,-14.0,11.0,-1.0,11.0,13.0,6.0,7.0
1701634249.5068643,9.0,2.0,8.0,-2.0,-9.0,-11.0,-5.0,-3.0
1701634249.5068643,-4.0,2.0,4.0,6.0,7.0,13.0,0.0,-2.0
1701634249.5068643,-3.0,0.0,-33.0,-15.0,-2.0,-2.0,-8.0,2.0
1701634249.5169632,-3.0,11.0,22.0,13.0,-2.0,-1.0,2.0,2.0
1701634249.5169632,5.0,-1.0,32.0,-8.0,-1.0,-12.0,-5.0,1.0
1701634249.527218,-6.0,-10.0,-22.0,0.0,-5.0,1.0,9.0,-1.0
1701634249.527218,-6.0,-1.0,6.0,2.0,-1.0,-1.0,-9.0,3.0
1701634249.5475888,-6.0,1.0,33.0,9.0,-1.0,3.0,-12.0,-18.0
1701634249.5475888,6.0,8.0,6.0,-34.0,-17.0,-9.0,-1.0,-3.0
1701634249.5475888,-1.0,12.0,7.0,39.0,28.0,7.0,1.0,-1.0
1701634249.5475888,10.0,-15.0,-12.0,-8.0,-6.0,-14.0,5.0,5.0
1701634249.567284,-16.0,6.0,6.0,-1.0,1.0,2.0,-1.0,5.0
1701634249.567284,5.0,-3.0,-24.0,-1.0,2.0,6.0,6.0,1.0
1701634249.5772305,14.0,8.0,10.0,-9.0,-8.0,-9.0,0.0,-4.0
1701634249.5772305,-16.0,19.0,24.0,3.0,0.0,-8.0,-4.0,-1.0
1701634249.5772305,-14.0,-21.0,-12.0,0.0,-1.0,-8.0,1.0,-7.0
1701634249.5772305,0.0,8.0,1.0,6.0,1.0,-1.0,5.0,5.0
1701634249.5872283,14.0,-2.0,27.0,-14.0,-8.0,8.0,-8.0,-2.0
1701634249.5872283,30.0,-2.0,3.0,-5.0,0.0,-4.0,-7.0,9.0
1701634249.607616,0.0,3.0,-19.0,0.0,-4.0,-13.0,-1.0,1.0
1701634249.607616,1.0,7.0,12.0,15.0,12.0,22.0,14.0,1.0
1701634249.607616,-19.0,16.0,-34.0,-13.0,0.0,-7.0,-2.0,-11.0
1701634249.607616,-21.0,-17.0,13.0,7.0,-1.0,5.0,0.0,-7.0
1701634249.6272283,-2.0,-5.0,-9.0,-19.0,-7.0,-3.0,-2.0,12.0
1701634249.6272283,5.0,-15.0,-9.0,4.0,0.0,-6.0,-11.0,-9.0
1701634249.6272283,7.0,18.0,14.0,9.0,-1.0,0.0,-1.0,0.0
1701634249.6272283,-3.0,-4.0,10.0,-10.0,-9.0,6.0,4.0,-5.0
1701634249.6372352,-1.0,3.0,-34.0,-7.0,9.0,-19.0,1.0,6.0
1701634249.6372352,-4.0,-5.0,-4.0,9.0,1.0,9.0,-1.0,-5.0
1701634249.6474154,-7.0,-13.0,17.0,-4.0,-8.0,-11.0,0.0,-2.0
1701634249.6474154,4.0,13.0,-6.0,2.0,-3.0,-5.0,-11.0,-5.0
1701634249.6772294,1.0,-15.0,-1.0,-2.0,-3.0,6.0,14.0,1.0
1701634249.6772294,8.0,-15.0,-23.0,-5.0,-2.0,-5.0,-5.0,0.0
1701634249.6772294,-16.0,-2.0,11.0,-3.0,-5.0,-5.0,-6.0,-3.0
1701634249.6772294,-10.0,-21.0,-62.0,-8.0,-5.0,-13.0,4.0,1.0
1701634249.6872623,16.0,11.0,19.0,1.0,5.0,25.0,2.0,4.0
1701634249.6872623,-10.0,-4.0,10.0,10.0,1.0,7.0,-6.0,-7.0
1701634249.6872623,-6.0,-9.0,0.0,-3.0,-4.0,-3.0,0.0,2.0
1701634249.6872623,-5.0,20.0,7.0,3.0,0.0,-3.0,8.0,12.0
1701634249.6975546,-24.0,-8.0,12.0,3.0,-2.0,-7.0,-5.0,0.0
1701634249.6975546,7.0,-6.0,-31.0,-16.0,-5.0,5.0,-2.0,-2.0
1701634249.7075152,-4.0,-5.0,-1.0,25.0,10.0,1.0,-20.0,-8.0
1701634249.7075152,10.0,0.0,-5.0,-41.0,-12.0,-3.0,13.0,-9.0
1701634249.727229,7.0,15.0,30.0,-9.0,-15.0,-5.0,-5.0,19.0
1701634249.727229,-25.0,-5.0,-6.0,13.0,12.0,-1.0,1.0,0.0
1701634249.727229,-6.0,-1.0,-3.0,-11.0,-13.0,-11.0,-3.0,1.0
1701634249.727229,0.0,-7.0,-7.0,19.0,11.0,4.0,-4.0,-6.0
1701634249.7476008,20.0,-4.0,6.0,3.0,-1.0,2.0,-3.0,-7.0
1701634249.7476008,3.0,1.0,-47.0,-23.0,-9.0,-22.0,-1.0,-4.0
1701634249.7476008,-2.0,9.0,46.0,5.0,4.0,7.0,6.0,-3.0
1701634249.7476008,-8.0,-5.0,25.0,15.0,0.0,3.0,-6.0,-7.0
1701634249.7575505,15.0,-10.0,-65.0,-26.0,-10.0,-20.0,-5.0,-1.0
1701634249.7575505,2.0,5.0,8.0,-5.0,-2.0,4.0,-2.0,5.0
1701634249.7675157,3.0,-5.0,-9.0,0.0,-1.0,4.0,2.0,2.0
1701634249.7675157,9.0,26.0,30.0,17.0,13.0,6.0,-4.0,-2.0
1701634249.7872295,-11.0,-5.0,-24.0,5.0,3.0,4.0,3.0,6.0
1701634249.7872295,5.0,-6.0,7.0,0.0,-2.0,-3.0,2.0,3.0
1701634249.7872295,-1.0,-4.0,-20.0,-7.0,-6.0,-9.0,-4.0,-4.0
1701634249.7872295,-1.0,-13.0,17.0,5.0,-10.0,4.0,-2.0,-1.0
1701634249.807536,3.0,10.0,14.0,-11.0,6.0,10.0,-10.0,-9.0
1701634249.807536,2.0,10.0,-20.0,-3.0,-9.0,-9.0,-2.0,3.0
1701634249.807536,-1.0,-15.0,-31.0,-19.0,0.0,-1.0,2.0,-1.0
1701634249.807536,-25.0,-6.0,36.0,17.0,0.0,-9.0,-10.0,-7.0
1701634249.81754,-6.0,11.0,26.0,11.0,0.0,1.0,6.0,-4.0
1701634249.81754,17.0,-2.0,-2.0,-13.0,-7.0,-3.0,-1.0,-4.0
1701634249.827521,3.0,-5.0,-10.0,-1.0,6.0,-3.0,4.0,6.0
1701634249.827521,-1.0,-9.0,-53.0,-10.0,-7.0,-10.0,-6.0,-4.0
1701634249.8472314,-4.0,8.0,20.0,1.0,-1.0,8.0,1.0,-1.0
1701634249.8472314,-10.0,-7.0,-8.0,0.0,-2.0,-5.0,-5.0,-7.0
1701634249.8472314,-5.0,9.0,63.0,24.0,4.0,13.0,8.0,5.0
1701634249.8472314,-13.0,-25.0,-51.0,-14.0,4.0,1.0,4.0,4.0
1701634249.867481,7.0,-1.0,-31.0,-14.0,-8.0,-13.0,-9.0,-20.0
1701634249.867481,-1.0,-14.0,13.0,10.0,3.0,-1.0,-1.0,1.0
1701634249.867481,2.0,6.0,-10.0,-3.0,0.0,3.0,1.0,-2.0
1701634249.867481,9.0,16.0,27.0,5.0,-1.0,8.0,4.0,-1.0
1701634249.8774388,-5.0,-3.0,-9.0,0.0,3.0,-4.0,-1.0,12.0
1701634249.8774388,-9.0,-3.0,5.0,7.0,3.0,-6.0,2.0,-13.0
1701634249.9178627,3.0,-2.0,-22.0,-7.0,7.0,8.0,-7.0,-10.0
1701634249.9178627,17.0,14.0,-4.0,-3.0,0.0,8.0,9.0,7.0
1701634249.9178627,-6.0,6.0,20.0,10.0,-1.0,1.0,2.0,-2.0
1701634249.9178627,-2.0,-12.0,-7.0,-26.0,-5.0,0.0,-2.0,1.0
1701634249.9178627,1.0,-15.0,-21.0,7.0,-2.0,-7.0,-5.0,5.0
1701634249.9178627,2.0,18.0,22.0,14.0,14.0,10.0,7.0,-3.0
1701634249.9376168,2.0,1.0,-33.0,1.0,2.0,27.0,7.0,-1.0
1701634249.9376168,3.0,-6.0,3.0,-11.0,-6.0,-4.0,-8.0,0.0
1701634249.9393497,-6.0,4.0,6.0,7.0,-5.0,-16.0,2.0,-2.0
1701634249.9393497,3.0,-12.0,-7.0,-23.0,-13.0,1.0,-2.0,2.0
1701634249.9393497,-3.0,-9.0,9.0,3.0,-4.0,-10.0,-2.0,-7.0
1701634249.9393497,1.0,10.0,18.0,9.0,7.0,-1.0,1.0,1.0
1701634249.9693522,-4.0,3.0,-37.0,-20.0,-5.0,5.0,5.0,3.0
1701634249.9693522,-2.0,1.0,2.0,14.0,11.0,-3.0,-10.0,-4.0
1701634249.9693522,1.0,-26.0,1.0,-2.0,-5.0,-6.0,-3.0,-2.0
1701634249.9693522,-1.0,12.0,25.0,5.0,-4.0,-4.0,-3.0,-5.0
1701634249.9693522,-5.0,-4.0,-44.0,-18.0,-4.0,-8.0,-4.0,-6.0
1701634249.9693522,3.0,6.0,18.0,-4.0,-10.0,-8.0,-2.0,0.0
1701634249.989368,-1.0,-11.0,5.0,2.0,4.0,-1.0,0.0,-3.0
1701634249.989368,7.0,15.0,0.0,6.0,-2.0,2.0,1.0,6.0
1701634249.989368,6.0,-7.0,-1.0,-1.0,3.0,-1.0,-7.0,-2.0
1701634249.989368,-25.0,-1.0,-1.0,-3.0,-4.0,-12.0,-7.0,-10.0
1701634249.9997013,20.0,12.0,-26.0,2.0,7.0,-1.0,-1.0,10.0
1701634249.9997013,-15.0,-2.0,20.0,9.0,2.0,4.0,-2.0,6.0
1701634250.0093555,4.0,-5.0,20.0,-6.0,-8.0,-7.0,-1.0,-1.0
1701634250.0093555,3.0,-13.0,-16.0,-9.0,-5.0,-9.0,10.0,6.0
1701634250.019381,4.0,13.0,23.0,9.0,1.0,2.0,-5.0,-5.0
1701634250.019381,-6.0,14.0,-13.0,-5.0,-1.0,-3.0,-1.0,-4.0
1701634250.0294092,-7.0,-5.0,7.0,12.0,9.0,6.0,5.0,10.0
1701634250.0294092,-3.0,-7.0,-8.0,9.0,2.0,-4.0,-5.0,-8.0
1701634250.0498664,0.0,-5.0,8.0,-17.0,-11.0,-23.0,0.0,0.0
1701634250.0498664,6.0,-6.0,-48.0,-19.0,-2.0,10.0,-6.0,0.0
1701634250.0498664,-2.0,3.0,17.0,-1.0,-6.0,-2.0,1.0,-2.0
1701634250.0498664,5.0,10.0,5.0,2.0,0.0,-1.0,6.0,2.0
1701634250.0697536,-10.0,-5.0,-9.0,0.0,-8.0,1.0,-1.0,0.0
1701634250.0697536,0.0,-10.0,0.0,3.0,1.0,-2.0,-7.0,-12.0
1701634250.0697536,7.0,-1.0,11.0,0.0,-6.0,-7.0,-14.0,-3.0
1701634250.0697536,1.0,-4.0,-22.0,-19.0,-4.0,-13.0,8.0,1.0
1701634250.0797977,4.0,29.0,2.0,2.0,2.0,2.0,1.0,0.0
1701634250.0797977,-8.0,-14.0,16.0,4.0,7.0,7.0,9.0,2.0
1701634250.0897548,-2.0,-6.0,-10.0,2.0,1.0,-11.0,-11.0,0.0
1701634250.0897548,24.0,10.0,12.0,5.0,-3.0,8.0,-1.0,-5.0
1701634250.109897,-18.0,-7.0,15.0,2.0,0.0,-3.0,2.0,-2.0
1701634250.109897,6.0,9.0,-16.0,1.0,-3.0,-9.0,-2.0,7.0
1701634250.109897,-5.0,1.0,5.0,-4.0,-4.0,-3.0,4.0,-10.0
1701634250.109897,10.0,-4.0,-10.0,-9.0,1.0,2.0,-6.0,11.0
1701634250.1297526,15.0,2.0,9.0,15.0,-8.0,-5.0,-5.0,-1.0
1701634250.1297526,-11.0,-10.0,-5.0,-19.0,4.0,-1.0,0.0,-5.0
1701634250.1297526,-3.0,-13.0,-22.0,-13.0,-5.0,-8.0,10.0,1.0
1701634250.1297526,-2.0,-4.0,22.0,29.0,11.0,12.0,-6.0,2.0
1701634250.1397815,-2.0,-8.0,-17.0,-5.0,1.0,-4.0,-2.0,-15.0
1701634250.1397815,0.0,0.0,-27.0,12.0,-4.0,-1.0,2.0,0.0
1701634250.150078,8.0,1.0,-14.0,-36.0,-10.0,3.0,3.0,-3.0
1701634250.150078,-14.0,-16.0,17.0,-6.0,1.0,7.0,-6.0,-4.0
1701634250.169801,-11.0,-7.0,-13.0,7.0,-1.0,-14.0,-6.0,4.0
1701634250.169801,34.0,6.0,15.0,7.0,-6.0,-2.0,6.0,4.0
1701634250.169801,-17.0,-7.0,6.0,-3.0,11.0,15.0,7.0,-5.0
1701634250.169801,2.0,0.0,-22.0,-12.0,-8.0,-4.0,-2.0,0.0
1701634250.1899977,-21.0,-11.0,24.0,15.0,7.0,5.0,-4.0,-5.0
1701634250.1899977,-13.0,4.0,20.0,-11.0,-8.0,-11.0,-9.0,-2.0
1701634250.1997542,28.0,5.0,-2.0,16.0,1.0,-8.0,1.0,4.0
1701634250.1997542,-17.0,-1.0,23.0,-3.0,-4.0,2.0,-5.0,-10.0
1701634250.1997542,0.0,-3.0,-44.0,-39.0,-11.0,-1.0,1.0,5.0
1701634250.1997542,2.0,1.0,-1.0,30.0,14.0,11.0,-8.0,-5.0
1701634250.2097538,-14.0,-21.0,20.0,-1.0,-8.0,-14.0,-6.0,-3.0
1701634250.2097538,-15.0,8.0,1.0,1.0,0.0,-7.0,-2.0,-2.0
1701634250.2299266,-3.0,6.0,5.0,4.0,2.0,18.0,8.0,-3.0
1701634250.2299266,-8.0,4.0,11.0,3.0,-1.0,0.0,4.0,1.0
1701634250.2498546,6.0,-2.0,-6.0,2.0,4.0,6.0,-8.0,-3.0
1701634250.2498546,6.0,-9.0,-35.0,-1.0,-3.0,-7.0,0.0,5.0
1701634250.2498546,8.0,16.0,29.0,10.0,-2.0,-15.0,1.0,9.0
1701634250.2498546,3.0,0.0,-22.0,-29.0,-7.0,-1.0,1.0,-8.0
1701634250.2598677,-10.0,3.0,51.0,33.0,7.0,6.0,-9.0,-14.0
1701634250.2598677,-2.0,-9.0,-55.0,-22.0,-5.0,0.0,-1.0,-3.0
1701634250.2598677,-5.0,-12.0,9.0,4.0,4.0,-3.0,-5.0,-1.0
1701634250.2598677,3.0,5.0,-10.0,3.0,2.0,-2.0,-1.0,13.0
1701634250.2598677,-4.0,14.0,-21.0,-6.0,-8.0,-11.0,0.0,9.0
1701634250.2598677,-9.0,-1.0,25.0,21.0,9.0,14.0,1.0,-8.0
1701634250.2898688,3.0,-6.0,-5.0,-6.0,-2.0,6.0,-4.0,-1.0
1701634250.2898688,-3.0,-2.0,13.0,-11.0,-8.0,-14.0,-3.0,-4.0
1701634250.2898688,-5.0,11.0,5.0,25.0,14.0,27.0,3.0,-2.0
1701634250.2898688,1.0,-10.0,-6.0,-24.0,-11.0,-4.0,-6.0,3.0
1701634250.3101122,2.0,2.0,13.0,28.0,16.0,9.0,-22.0,-12.0
1701634250.3101122,-2.0,-3.0,-10.0,-12.0,-3.0,12.0,21.0,5.0
1701634250.3101122,-2.0,-2.0,-40.0,-30.0,-9.0,-3.0,-3.0,-2.0
1701634250.3101122,2.0,1.0,7.0,10.0,-4.0,-10.0,-6.0,-2.0
1701634250.3298798,2.0,-2.0,14.0,3.0,-3.0,-5.0,-3.0,-12.0
1701634250.3298798,-2.0,-8.0,-14.0,11.0,1.0,-1.0,-3.0,11.0
1701634250.3298798,3.0,9.0,16.0,-5.0,1.0,-3.0,3.0,-8.0
1701634250.3298798,-8.0,-7.0,-6.0,-5.0,-1.0,-7.0,-5.0,1.0
1701634250.3598673,10.0,9.0,13.0,5.0,-4.0,0.0,9.0,3.0
1701634250.3598673,7.0,-6.0,-11.0,-1.0,2.0,-4.0,-11.0,2.0
1701634250.3598673,-3.0,1.0,-5.0,-5.0,-8.0,-1.0,10.0,3.0
1701634250.3598673,-3.0,14.0,26.0,8.0,-4.0,-19.0,-8.0,-1.0
1701634250.3802543,2.0,-16.0,-22.0,-20.0,1.0,7.0,2.0,3.0
1701634250.3802543,-1.0,-1.0,-6.0,3.0,0.0,1.0,-2.0,-7.0
1701634250.3802543,-3.0,3.0,6.0,-2.0,-7.0,-1.0,3.0,11.0
1701634250.3802543,10.0,-4.0,17.0,2.0,1.0,-2.0,-4.0,-4.0
1701634250.3802543,-20.0,-7.0,-23.0,3.0,-7.0,-22.0,-1.0,1.0
1701634250.3802543,-9.0,-2.0,-15.0,-5.0,2.0,12.0,4.0,-9.0
1701634250.3901825,-1.0,-4.0,-17.0,-10.0,-5.0,-10.0,7.0,-3.0
1701634250.3901825,9.0,13.0,7.0,1.0,-4.0,7.0,2.0,1.0
1701634250.4098678,-4.0,-5.0,-19.0,-15.0,-1.0,3.0,6.0,1.0
1701634250.4098678,-13.0,-7.0,52.0,27.0,9.0,2.0,-12.0,-9.0
1701634250.4098678,-8.0,-2.0,-2.0,-4.0,-4.0,-5.0,3.0,-5.0
1701634250.4098678,15.0,-9.0,-14.0,0.0,4.0,14.0,8.0,2.0
1701634250.430165,5.0,-3.0,6.0,-7.0,4.0,9.0,10.0,3.0
1701634250.430165,-3.0,0.0,-8.0,-8.0,-5.0,-9.0,-4.0,-4.0
1701634250.430165,2.0,-2.0,21.0,13.0,-5.0,-7.0,-5.0,7.0
1701634250.430165,-2.0,-1.0,-10.0,6.0,3.0,-2.0,-1.0,-9.0
1701634250.4467006,-5.0,2.0,2.0,-12.0,-3.0,10.0,0.0,4.0
1701634250.4467006,12.0,7.0,-2.0,4.0,0.0,-3.0,2.0,4.0
1701634250.4567006,2.0,-8.0,-4.0,-16.0,-7.0,-8.0,-11.0,-3.0
1701634250.4567006,-6.0,-4.0,-22.0,6.0,9.0,5.0,-2.0,3.0
1701634250.4703567,-4.0,12.0,29.0,2.0,-8.0,-7.0,-2.0,-3.0
1701634250.4703567,1.0,-4.0,-9.0,-1.0,-3.0,-11.0,1.0,0.0
1701634250.471414,-3.0,11.0,10.0,-6.0,1.0,24.0,-1.0,-3.0
1701634250.471414,-6.0,-9.0,-12.0,-2.0,-3.0,-2.0,-3.0,-4.0
1701634250.4925382,2.0,7.0,-19.0,19.0,7.0,3.0,-5.0,0.0
1701634250.4925382,2.0,-10.0,5.0,-7.0,2.0,0.0,3.0,2.0
1701634250.4925382,0.0,1.0,-12.0,-2.0,0.0,-3.0,-3.0,-2.0
1701634250.4925382,-8.0,13.0,10.0,-14.0,-11.0,-3.0,3.0,7.0
1701634250.5122244,-2.0,-22.0,0.0,-1.0,3.0,-5.0,-6.0,-3.0
1701634250.5122244,-2.0,0.0,-27.0,-10.0,-7.0,-1.0,-4.0,0.0
1701634250.5122244,0.0,-5.0,13.0,13.0,6.0,-1.0,9.0,2.0
1701634250.5122244,-13.0,20.0,11.0,1.0,4.0,0.0,-2.0,-2.0
1701634250.522526,-6.0,-21.0,-21.0,-10.0,-5.0,6.0,-6.0,-3.0
1701634250.522526,2.0,15.0,39.0,16.0,-1.0,-5.0,-4.0,-6.0
1701634250.5322695,-5.0,-5.0,-25.0,-20.0,-7.0,11.0,-1.0,-4.0
1701634250.5322695,3.0,-2.0,43.0,15.0,9.0,-6.0,-10.0,-14.0
1701634250.552598,11.0,-2.0,-23.0,-18.0,-6.0,-2.0,5.0,-8.0
1701634250.552598,-6.0,-4.0,9.0,15.0,12.0,10.0,4.0,1.0
1701634250.552598,3.0,-5.0,-10.0,2.0,1.0,-5.0,-7.0,-1.0
1701634250.552598,1.0,-2.0,-7.0,-7.0,-10.0,-4.0,-1.0,1.0
1701634250.5722234,-4.0,0.0,-5.0,-13.0,-2.0,-1.0,-2.0,-1.0
1701634250.5722234,-2.0,6.0,26.0,5.0,-4.0,8.0,0.0,-2.0
1701634250.5722234,7.0,-7.0,-1.0,20.0,11.0,-4.0,-4.0,2.0
1701634250.5722234,-3.0,1.0,-15.0,-9.0,2.0,1.0,-6.0,1.0
1701634250.5824943,-5.0,-9.0,14.0,9.0,-2.0,0.0,0.0,-2.0
1701634250.5824943,-1.0,22.0,-2.0,6.0,-4.0,-2.0,-14.0,2.0
1701634250.5925174,-3.0,2.0,-28.0,-30.0,-10.0,1.0,10.0,-5.0
1701634250.5925174,-6.0,-11.0,-4.0,-1.0,-3.0,2.0,1.0,-1.0
1701634250.612829,-2.0,0.0,-22.0,-9.0,1.0,2.0,-2.0,0.0
1701634250.612829,-2.0,-6.0,9.0,5.0,-1.0,-9.0,-3.0,0.0
1701634250.612829,7.0,4.0,44.0,18.0,6.0,-2.0,-4.0,1.0
1701634250.612829,3.0,-6.0,-32.0,-16.0,-2.0,1.0,5.0,2.0
1701634250.6425123,-9.0,16.0,23.0,6.0,0.0,-10.0,-10.0,-6.0
1701634250.6425123,2.0,-21.0,-23.0,-12.0,-5.0,-6.0,8.0,-4.0
1701634250.6425123,13.0,14.0,-2.0,6.0,-1.0,6.0,-10.0,7.0
1701634250.6425123,-8.0,1.0,-1.0,-10.0,-11.0,-5.0,-2.0,-5.0
1701634250.6425123,-9.0,-2.0,-11.0,-9.0,-1.0,-5.0,-6.0,0.0
1701634250.6425123,6.0,-12.0,-20.0,-6.0,-1.0,3.0,3.0,3.0
1701634250.6425123,3.0,7.0,1.0,9.0,9.0,5.0,3.0,-5.0
1701634250.6425123,-8.0,-5.0,21.0,10.0,4.0,-2.0,0.0,4.0
1701634250.6729016,4.0,5.0,-20.0,4.0,-4.0,9.0,6.0,0.0
1701634250.6729016,2.0,1.0,-8.0,-28.0,-8.0,-13.0,-5.0,-3.0
1701634250.6729016,-11.0,-5.0,0.0,8.0,2.0,14.0,-3.0,-7.0
1701634250.6729016,-7.0,-7.0,-11.0,8.0,2.0,0.0,-4.0,-3.0
1701634250.6925116,7.0,10.0,21.0,4.0,-4.0,-9.0,6.0,2.0
1701634250.6925116,-5.0,3.0,-23.0,1.0,-5.0,-5.0,2.0,-4.0
1701634250.7025137,7.0,4.0,47.0,3.0,-2.0,1.0,-3.0,2.0
1701634250.7025137,-28.0,-10.0,-18.0,-1.0,0.0,5.0,-3.0,-5.0
1701634250.7025137,18.0,4.0,14.0,-1.0,-2.0,-1.0,-7.0,-3.0
1701634250.7025137,0.0,-6.0,-28.0,-9.0,0.0,1.0,0.0,10.0
1701634250.7025137,-10.0,2.0,-7.0,-5.0,0.0,-2.0,-1.0,-12.0
1701634250.7025137,19.0,-3.0,18.0,-1.0,-8.0,-9.0,3.0,8.0
1701634250.7325134,-3.0,-6.0,0.0,-4.0,-3.0,-12.0,-9.0,-6.0
1701634250.7325134,-14.0,7.0,17.0,2.0,5.0,11.0,-1.0,-14.0
1701634250.7325134,6.0,-12.0,-30.0,-7.0,-3.0,-12.0,0.0,3.0
1701634250.7325134,9.0,12.0,12.0,-3.0,0.0,7.0,9.0,2.0
1701634250.7425659,-2.0,2.0,-5.0,2.0,-7.0,-17.0,-9.0,1.0
1701634250.7425659,-13.0,-12.0,12.0,3.0,6.0,9.0,0.0,-3.0
1701634250.7526958,3.0,6.0,17.0,11.0,6.0,3.0,2.0,6.0
1701634250.7526958,-8.0,-16.0,-54.0,-17.0,-10.0,-8.0,-7.0,-14.0
1701634250.7626169,-4.0,17.0,23.0,1.0,0.0,6.0,0.0,-1.0
1701634250.7626169,-4.0,-11.0,-23.0,1.0,3.0,-6.0,-6.0,0.0
1701634250.7726278,1.0,-3.0,16.0,11.0,-8.0,-9.0,-4.0,-2.0
1701634250.7726278,12.0,10.0,20.0,7.0,10.0,4.0,-4.0,4.0
1701634250.81273,-7.0,-13.0,-28.0,-22.0,-2.0,4.0,0.0,-3.0
1701634250.81273,-4.0,4.0,-20.0,-16.0,-10.0,-3.0,-3.0,-4.0
1701634250.81273,-11.0,5.0,10.0,0.0,-5.0,-7.0,-6.0,-9.0
1701634250.81273,14.0,-1.0,25.0,16.0,8.0,4.0,-1.0,7.0
1701634250.81273,-10.0,14.0,68.0,28.0,5.0,-7.0,-1.0,-1.0
1701634250.81273,-3.0,-26.0,-85.0,-43.0,-7.0,14.0,-10.0,-7.0
1701634250.81273,-1.0,4.0,34.0,7.0,-7.0,-7.0,3.0,4.0
1701634250.81273,0.0,-14.0,-57.0,7.0,4.0,-19.0,3.0,-3.0
1701634250.8230503,-4.0,-9.0,10.0,-17.0,-1.0,21.0,14.0,-3.0
1701634250.8230503,8.0,17.0,23.0,16.0,7.0,-4.0,3.0,10.0
1701634250.8230503,0.0,0.0,22.0,-5.0,-6.0,-8.0,-3.0,6.0
1701634250.8230503,-36.0,-2.0,-4.0,0.0,-4.0,3.0,-7.0,-22.0
1701634250.8527274,-10.0,-12.0,-112.0,-26.0,-3.0,0.0,-4.0,1.0
1701634250.8527274,22.0,16.0,60.0,26.0,4.0,-2.0,1.0,-1.0
1701634250.8527274,-1.0,-26.0,-44.0,-28.0,-1.0,3.0,-1.0,-1.0
1701634250.8527274,13.0,15.0,44.0,4.0,-4.0,-4.0,6.0,17.0
1701634250.8627336,-10.0,-6.0,-29.0,2.0,-2.0,-1.0,-5.0,-16.0
1701634250.8627336,-5.0,7.0,51.0,12.0,-4.0,-3.0,-4.0,12.0
1701634250.8730001,7.0,-2.0,2.0,-3.0,0.0,-5.0,-21.0,-16.0
1701634250.8730001,-16.0,-7.0,-28.0,22.0,6.0,9.0,10.0,14.0
1701634250.883006,3.0,2.0,-20.0,-28.0,-2.0,-7.0,5.0,7.0
1701634250.883006,24.0,-17.0,-5.0,-4.0,-6.0,0.0,15.0,2.0
1701634250.883006,30.0,25.0,65.0,28.0,13.0,9.0,-4.0,14.0
1701634250.883006,19.0,-10.0,-78.0,-59.0,-17.0,-15.0,-10.0,-7.0
1701634250.9227266,-18.0,3.0,33.0,26.0,5.0,-5.0,1.0,38.0
1701634250.9227266,-13.0,3.0,64.0,19.0,3.0,-20.0,-37.0,-65.0
1701634250.9227266,-3.0,26.0,-48.0,-16.0,-3.0,19.0,26.0,34.0
1701634250.9227266,-13.0,-27.0,29.0,11.0,4.0,4.0,1.0,-8.0
1701634250.9227266,-13.0,-18.0,38.0,5.0,2.0,15.0,15.0,14.0
1701634250.9227266,38.0,42.0,48.0,12.0,-4.0,-6.0,3.0,11.0
1701634250.9327607,-10.0,-45.0,-80.0,-37.0,-3.0,-13.0,-11.0,-21.0
1701634250.9327607,-16.0,35.0,42.0,-1.0,-4.0,21.0,2.0,9.0
1701634250.943135,-1.0,-53.0,-3.0,5.0,-4.0,-12.0,-14.0,-19.0
1701634250.943135,-27.0,-5.0,-28.0,1.0,0.0,11.0,24.0,7.0
1701634250.943135,-31.0,39.0,-20.0,-4.0,-2.0,-6.0,5.0,-9.0
1701634250.943135,9.0,-11.0,25.0,1.0,-2.0,0.0,-1.0,-5.0
1701634250.973718,-2.0,-15.0,-22.0,-7.0,-9.0,-29.0,-20.0,-17.0
1701634250.973718,-20.0,7.0,3.0,1.0,6.0,12.0,1.0,4.0
1701634250.9747167,-10.0,-18.0,4.0,8.0,-2.0,-14.0,3.0,3.0
1701634250.9747167,17.0,1.0,-65.0,-33.0,-6.0,-1.0,-2.0,5.0
1701634250.9864943,13.0,32.0,48.0,51.0,10.0,7.0,7.0,0.0
1701634250.9864943,-3.0,-14.0,-25.0,-11.0,0.0,-3.0,-6.0,6.0
1701634250.9949431,-3.0,-7.0,-3.0,-3.0,2.0,1.0,6.0,-1.0
1701634250.9949431,-3.0,-2.0,30.0,-3.0,-3.0,9.0,0.0,-7.0
1701634251.0050087,14.0,15.0,-20.0,17.0,18.0,12.0,-3.0,-6.0
1701634251.0050087,0.0,5.0,-8.0,-7.0,-8.0,-11.0,2.0,8.0
1701634251.0050087,1.0,-15.0,8.0,2.0,-1.0,2.0,-5.0,-1.0
1701634251.0050087,-15.0,-5.0,37.0,21.0,1.0,-8.0,-3.0,-7.0
1701634251.0250428,0.0,18.0,-10.0,-11.0,-13.0,-12.0,-3.0,1.0
1701634251.0250428,-5.0,-20.0,-10.0,-20.0,-2.0,24.0,4.0,3.0
1701634251.0250428,6.0,4.0,11.0,-4.0,-6.0,-3.0,1.0,0.0
1701634251.0250428,1.0,5.0,-18.0,-18.0,-6.0,-22.0,-13.0,-5.0
1701634251.0453448,4.0,9.0,23.0,14.0,-2.0,2.0,3.0,-1.0
1701634251.0453448,-4.0,-5.0,-2.0,10.0,6.0,-10.0,-2.0,-2.0
1701634251.0550094,-4.0,-1.0,-3.0,-15.0,3.0,15.0,7.0,-6.0
1701634251.0550094,2.0,-8.0,2.0,-7.0,-1.0,5.0,-4.0,-4.0
1701634251.065392,7.0,1.0,17.0,6.0,1.0,-3.0,-11.0,-2.0
1701634251.065392,-7.0,-8.0,-16.0,-5.0,-9.0,0.0,7.0,-3.0
1701634251.075008,9.0,2.0,-13.0,-2.0,1.0,4.0,-3.0,13.0
1701634251.075008,-10.0,-1.0,0.0,10.0,11.0,-4.0,3.0,-8.0
1701634251.085006,7.0,6.0,17.0,-22.0,-16.0,-2.0,4.0,6.0
1701634251.085006,-6.0,-11.0,-7.0,3.0,1.0,-6.0,-10.0,-5.0
1701634251.0950122,0.0,-14.0,-23.0,1.0,-6.0,-11.0,1.0,1.0
1701634251.0950122,4.0,10.0,4.0,15.0,6.0,-1.0,0.0,1.0
1701634251.1052756,4.0,-7.0,-36.0,-12.0,5.0,9.0,5.0,-3.0
1701634251.1052756,-6.0,13.0,-6.0,-24.0,-17.0,-2.0,-10.0,-5.0
1701634251.1150131,-7.0,-11.0,36.0,29.0,11.0,0.0,-2.0,-4.0
1701634251.1150131,6.0,1.0,-17.0,-4.0,11.0,1.0,-4.0,-1.0
1701634251.1450064,-3.0,11.0,25.0,8.0,-9.0,-8.0,1.0,-3.0
1701634251.1450064,-2.0,-26.0,-31.0,-9.0,6.0,9.0,5.0,2.0
1701634251.1450064,10.0,18.0,8.0,-19.0,-8.0,-8.0,-10.0,-11.0
1701634251.1450064,-17.0,-10.0,7.0,1.0,-7.0,-2.0,-2.0,-3.0
1701634251.1450064,-5.0,-7.0,40.0,8.0,4.0,5.0,1.0,1.0
1701634251.1450064,5.0,8.0,-13.0,-2.0,-8.0,-15.0,-3.0,-1.0
1701634251.1450064,4.0,1.0,16.0,6.0,-1.0,-6.0,-1.0,-1.0
1701634251.1550152,6.0,-11.0,-67.0,-16.0,-2.0,4.0,2.0,2.0
1701634251.1750546,-3.0,-5.0,7.0,-1.0,-3.0,-2.0,-1.0,-2.0
1701634251.1750546,-3.0,-3.0,18.0,3.0,3.0,3.0,8.0,3.0
1701634251.1750546,-13.0,2.0,-12.0,4.0,0.0,-4.0,-13.0,-6.0
1701634251.1750546,9.0,8.0,54.0,37.0,20.0,13.0,3.0,2.0
1701634251.1950066,4.0,6.0,-54.0,-31.0,-7.0,-7.0,-9.0,-3.0
1701634251.1950066,-22.0,-22.0,-19.0,-10.0,1.0,7.0,14.0,-2.0
1701634251.1950066,-4.0,1.0,-10.0,1.0,-5.0,-2.0,-6.0,-4.0
1701634251.1950066,7.0,1.0,21.0,-4.0,-9.0,-2.0,-7.0,-3.0
1701634251.2053225,-4.0,-9.0,11.0,6.0,8.0,8.0,-3.0,0.0
1701634251.2053225,12.0,15.0,15.0,12.0,4.0,1.0,-6.0,2.0
1701634251.2053225,-22.0,-15.0,-15.0,-5.0,-2.0,-7.0,-2.0,-7.0
1701634251.2053225,37.0,17.0,21.0,-7.0,-17.0,-11.0,13.0,6.0
1701634251.2350628,17.0,-6.0,-17.0,-4.0,5.0,11.0,-5.0,-3.0
1701634251.2350628,-20.0,14.0,-16.0,-7.0,-2.0,-13.0,-10.0,-8.0
1701634251.2350628,0.0,-30.0,15.0,25.0,4.0,-5.0,-1.0,0.0
1701634251.2350628,-1.0,4.0,-1.0,-28.0,-12.0,-4.0,-2.0,1.0
1701634251.2450078,-15.0,-9.0,-13.0,-2.0,-2.0,-10.0,-1.0,0.0
1701634251.2450078,18.0,9.0,12.0,19.0,11.0,12.0,2.0,-1.0
1701634251.2450078,-6.0,23.0,0.0,-4.0,0.0,5.0,-7.0,-2.0
1701634251.2450078,7.0,2.0,-15.0,-30.0,-22.0,-29.0,0.0,0.0
1701634251.2653797,-11.0,-5.0,8.0,8.0,-3.0,26.0,11.0,1.0
1701634251.2653797,-19.0,-22.0,0.0,14.0,11.0,-3.0,-6.0,-2.0
1701634251.2653797,-2.0,9.0,1.0,16.0,5.0,4.0,-2.0,1.0
1701634251.2653797,2.0,2.0,2.0,-21.0,-4.0,-2.0,-2.0,-3.0
1701634251.2950652,-2.0,-8.0,-10.0,3.0,-4.0,-4.0,0.0,-6.0
1701634251.2950652,9.0,22.0,-1.0,-30.0,-22.0,-18.0,-4.0,0.0
1701634251.2950652,6.0,-15.0,26.0,20.0,6.0,10.0,7.0,6.0
1701634251.2950652,-16.0,3.0,-3.0,7.0,-1.0,-4.0,2.0,-5.0
1701634251.3050077,8.0,-14.0,-25.0,-4.0,4.0,-2.0,-12.0,-1.0
1701634251.3050077,10.0,13.0,23.0,13.0,14.0,18.0,19.0,10.0
1701634251.3152013,-2.0,-5.0,-18.0,-24.0,-12.0,-14.0,0.0,-6.0
1701634251.3152013,-4.0,-6.0,-2.0,19.0,0.0,8.0,9.0,5.0
1701634251.325254,-16.0,-7.0,72.0,-5.0,-7.0,-15.0,-10.0,-11.0
1701634251.325254,8.0,-9.0,-50.0,1.0,9.0,6.0,12.0,1.0
1701634251.3350124,1.0,13.0,-19.0,-16.0,-5.0,5.0,0.0,2.0
1701634251.3350124,-10.0,-2.0,15.0,15.0,8.0,12.0,-7.0,-1.0
1701634251.3650095,5.0,5.0,6.0,-4.0,-2.0,-10.0,2.0,-1.0
1701634251.3650095,14.0,3.0,-1.0,-2.0,6.0,-8.0,-13.0,7.0
1701634251.3650095,7.0,-24.0,-2.0,7.0,1.0,6.0,9.0,1.0
1701634251.3650095,0.0,14.0,-20.0,7.0,5.0,0.0,-4.0,0.0
1701634251.3650095,8.0,8.0,33.0,-17.0,-14.0,-6.0,-5.0,-4.0
1701634251.3650095,-18.0,2.0,-36.0,-4.0,-4.0,-8.0,-3.0,-2.0
1701634251.3751764,1.0,-3.0,-3.0,-7.0,1.0,5.0,1.0,-2.0
1701634251.3751764,5.0,14.0,19.0,9.0,6.0,-1.0,4.0,10.0
1701634251.3852773,6.0,15.0,-10.0,0.0,3.0,3.0,3.0,-6.0
1701634251.3852773,2.0,2.0,10.0,-9.0,-8.0,-13.0,-9.0,-4.0
1701634251.3852773,-8.0,-24.0,-18.0,7.0,5.0,1.0,6.0,-1.0
1701634251.3950152,8.0,-7.0,16.0,-9.0,-2.0,6.0,-4.0,3.0
1701634251.4250114,-32.0,-8.0,-26.0,-4.0,-6.0,-6.0,-2.0,-4.0
1701634251.4250114,6.0,6.0,28.0,1.0,1.0,-1.0,-9.0,-3.0
1701634251.4250114,1.0,-2.0,-41.0,2.0,-8.0,4.0,-1.0,0.0
1701634251.4250114,-8.0,-22.0,12.0,0.0,3.0,-7.0,-17.0,-8.0
1701634251.4250114,22.0,22.0,2.0,3.0,8.0,12.0,16.0,9.0
1701634251.4250114,-13.0,0.0,9.0,-14.0,-5.0,-5.0,-2.0,-6.0
1701634251.435141,6.0,6.0,4.0,0.0,0.0,-4.0,-10.0,-4.0
1701634251.435141,-3.0,-6.0,2.0,-5.0,-5.0,-2.0,2.0,3.0
1701634251.4452622,0.0,-5.0,-30.0,13.0,8.0,-2.0,-11.0,-1.0
1701634251.4452622,4.0,-9.0,9.0,4.0,-4.0,3.0,2.0,2.0
1701634251.4550116,-3.0,14.0,11.0,-16.0,-4.0,-13.0,-6.0,-6.0
1701634251.4550116,-3.0,-14.0,-7.0,3.0,-3.0,-2.0,-6.0,-11.0
1701634251.475156,-11.0,-25.0,-6.0,0.0,3.0,-8.0,4.0,1.0
1701634251.475156,-5.0,1.0,-7.0,3.0,-5.0,8.0,-1.0,-1.0
1701634251.475156,-9.0,-11.0,-21.0,-5.0,-7.0,-6.0,-13.0,-16.0
1701634251.475156,-6.0,-11.0,0.0,-4.0,-5.0,-9.0,8.0,-5.0
1701634251.4852462,15.0,7.0,3.0,0.0,0.0,1.0,-10.0,7.0
1701634251.4852462,15.0,-17.0,-9.0,0.0,4.0,2.0,-6.0,12.0
1701634251.5187154,-24.0,6.0,15.0,-7.0,-4.0,-2.0,7.0,-11.0
1701634251.5187154,8.0,13.0,5.0,7.0,7.0,6.0,-11.0,13.0
1701634251.5197155,16.0,4.0,-12.0,2.0,4.0,8.0,4.0,-25.0
1701634251.5197155,-38.0,-19.0,-5.0,-6.0,-8.0,-11.0,18.0,35.0
1701634251.5197155,-20.0,-13.0,-3.0,-12.0,0.0,-2.0,-11.0,-5.0
1701634251.5197155,8.0,33.0,19.0,8.0,2.0,1.0,-5.0,9.0
1701634251.5310023,25.0,2.0,2.0,-2.0,-5.0,8.0,12.0,15.0
1701634251.5310023,-55.0,-13.0,-10.0,2.0,-2.0,-1.0,4.0,5.0
1701634251.5310023,-3.0,-11.0,-7.0,-12.0,-8.0,-22.0,-70.0,-57.0
1701634251.5310023,-22.0,5.0,-5.0,9.0,5.0,6.0,-25.0,-59.0
1701634251.5412953,4.0,4.0,-6.0,-6.0,-9.0,-19.0,-6.0,12.0
1701634251.5412953,19.0,1.0,16.0,6.0,4.0,21.0,26.0,14.0
1701634251.5510018,12.0,3.0,-4.0,-15.0,-1.0,2.0,34.0,36.0
1701634251.5510018,-9.0,-22.0,-16.0,5.0,-16.0,-11.0,-18.0,1.0
1701634251.570973,-10.0,7.0,-8.0,-1.0,1.0,-8.0,7.0,-3.0
1701634251.570973,29.0,17.0,21.0,7.0,3.0,6.0,6.0,10.0
1701634251.570973,2.0,-4.0,2.0,-3.0,5.0,4.0,18.0,12.0
1701634251.570973,8.0,8.0,-36.0,-23.0,-4.0,0.0,5.0,-7.0
