1701634083.451271,6.0,-28.0,-10.0,-82.0,-21.0,27.0,70.0,52.0
1701634083.4529488,-28.0,-71.0,34.0,116.0,84.0,4.0,-24.0,-45.0
1701634083.4975238,-10.0,-45.0,-38.0,-34.0,-16.0,-23.0,-43.0,-11.0
1701634083.4975238,20.0,20.0,-2.0,-23.0,-8.0,12.0,49.0,36.0
1701634083.4975238,-30.0,57.0,-23.0,-39.0,-11.0,-30.0,-64.0,-59.0
1701634083.4975238,31.0,31.0,-14.0,-124.0,-64.0,-6.0,51.0,82.0
1701634083.5005233,-24.0,33.0,61.0,127.0,44.0,15.0,-24.0,-61.0
1701634083.5005233,-8.0,-109.0,-74.0,62.0,55.0,2.0,59.0,42.0
1701634083.5005233,5.0,35.0,2.0,-14.0,20.0,13.0,-52.0,-63.0
1701634083.5005233,-6.0,53.0,7.0,-44.0,-6.0,-21.0,-103.0,-79.0
1701634083.5109665,5.0,-23.0,4.0,-83.0,-64.0,-15.0,-1.0,16.0
1701634083.5109665,-7.0,-35.0,1.0,-106.0,-50.0,0.0,23.0,10.0
1701634083.5109665,15.0,32.0,31.0,127.0,85.0,33.0,75.0,66.0
1701634083.5109665,-6.0,-23.0,-15.0,-12.0,-4.0,23.0,14.0,-8.0
1701634083.5558858,16.0,8.0,0.0,-10.0,6.0,-12.0,-9.0,8.0
1701634083.5558858,-11.0,-22.0,5.0,-4.0,-1.0,9.0,2.0,-6.0
1701634083.5558858,3.0,-9.0,6.0,-5.0,-24.0,-9.0,0.0,13.0
1701634083.5558858,1.0,0.0,-17.0,13.0,4.0,5.0,1.0,-8.0
1701634083.5558858,10.0,17.0,-2.0,-12.0,8.0,8.0,33.0,30.0
1701634083.5558858,-13.0,-11.0,-8.0,12.0,11.0,-11.0,-37.0,-29.0
1701634083.5558858,8.0,5.0,15.0,-27.0,-25.0,-18.0,-26.0,-16.0
1701634083.5558858,3.0,9.0,1.0,12.0,-3.0,-6.0,15.0,24.0
1701634083.599607,-4.0,1.0,-3.0,11.0,17.0,5.0,1.0,-12.0
1701634083.599607,19.0,3.0,1.0,3.0,-5.0,0.0,-21.0,-12.0
1701634083.599607,-12.0,-20.0,5.0,7.0,-4.0,-8.0,-17.0,-14.0
1701634083.599607,-18.0,-3.0,-3.0,2.0,-6.0,7.0,23.0,23.0
1701634083.599607,9.0,14.0,5.0,-2.0,2.0,11.0,2.0,7.0
1701634083.599607,-3.0,-26.0,-23.0,1.0,0.0,-2.0,-31.0,-36.0
1701634083.6006093,8.0,9.0,-3.0,-14.0,-12.0,-4.0,10.0,14.0
1701634083.6006093,5.0,-4.0,-27.0,2.0,2.0,-5.0,4.0,-1.0
1701634083.6051514,6.0,20.0,-4.0,-14.0,-1.0,3.0,3.0,10.0
1701634083.6051514,-9.0,2.0,12.0,7.0,2.0,-3.0,-9.0,-3.0
1701634083.6051514,-1.0,-16.0,0.0,-2.0,-10.0,-8.0,-5.0,-6.0
1701634083.611363,1.0,7.0,-4.0,4.0,-2.0,1.0,6.0,8.0
1701634083.6627567,0.0,-2.0,6.0,0.0,4.0,1.0,-1.0,-12.0
1701634083.6627567,-17.0,-3.0,2.0,0.0,0.0,0.0,-1.0,13.0
1701634083.6627567,1.0,1.0,4.0,0.0,-4.0,-4.0,-5.0,-7.0
1701634083.6627567,2.0,6.0,3.0,-7.0,-2.0,-3.0,-1.0,-1.0
1701634083.6627567,0.0,-14.0,-9.0,-3.0,0.0,2.0,7.0,-12.0
1701634083.6627567,-1.0,-2.0,15.0,0.0,0.0,-6.0,-6.0,8.0
1701634083.6627567,12.0,1.0,-13.0,-5.0,-6.0,-5.0,-5.0,14.0
1701634083.6627567,-24.0,-7.0,7.0,4.0,1.0,-1.0,8.0,22.0
1701634083.6647022,22.0,0.0,-26.0,-11.0,-1.0,-4.0,-8.0,-32.0
1701634083.6647022,-6.0,3.0,2.0,-4.0,-4.0,-2.0,-6.0,-9.0
1701634083.6647022,-4.0,-9.0,-14.0,2.0,0.0,-1.0,-5.0,-8.0
1701634083.6647022,11.0,3.0,11.0,4.0,0.0,0.0,4.0,9.0
1701634083.730873,-8.0,-2.0,10.0,3.0,1.0,-1.0,4.0,14.0
1701634083.730873,-7.0,0.0,2.0,0.0,3.0,-1.0,-7.0,-14.0
1701634083.730873,1.0,5.0,20.0,-10.0,-9.0,-6.0,-1.0,1.0
1701634083.730873,1.0,0.0,27.0,-11.0,-4.0,-3.0,-4.0,-13.0
1701634083.730873,-9.0,-2.0,26.0,3.0,0.0,-2.0,2.0,7.0
1701634083.730873,6.0,-2.0,-17.0,-5.0,1.0,0.0,-4.0,-7.0
1701634083.730873,-4.0,-5.0,-19.0,7.0,3.0,2.0,3.0,5.0
1701634083.730873,1.0,0.0,-1.0,-2.0,-4.0,-1.0,-1.0,-9.0
1701634083.734282,-1.0,-1.0,-3.0,7.0,3.0,-1.0,0.0,2.0
1701634083.734282,-2.0,4.0,5.0,-8.0,-4.0,0.0,0.0,3.0
1701634083.734282,3.0,-1.0,17.0,-7.0,-6.0,-3.0,-2.0,-1.0
1701634083.734282,-4.0,0.0,-11.0,8.0,4.0,0.0,0.0,-12.0
1701634083.7794852,-5.0,1.0,4.0,-8.0,-3.0,-1.0,3.0,11.0
1701634083.7794852,-1.0,-3.0,-24.0,7.0,3.0,-2.0,-2.0,-2.0
1701634083.7794852,-1.0,-1.0,29.0,-2.0,2.0,0.0,-3.0,-2.0
1701634083.7794852,4.0,-1.0,-20.0,-1.0,0.0,-1.0,-3.0,-6.0
1701634083.7794852,-2.0,1.0,1.0,-3.0,-3.0,3.0,-1.0,1.0
1701634083.7794852,-2.0,-2.0,-5.0,3.0,0.0,5.0,-2.0,-1.0
1701634083.7794852,-2.0,-2.0,-2.0,5.0,-2.0,3.0,-2.0,-4.0
1701634083.7804842,5.0,-4.0,-5.0,3.0,1.0,5.0,1.0,0.0
1701634083.7908342,-3.0,0.0,4.0,1.0,-6.0,1.0,-2.0,1.0
1701634083.7908342,0.0,-3.0,-3.0,-5.0,-4.0,-3.0,-1.0,-4.0
1701634083.7908342,-7.0,0.0,-3.0,-4.0,-2.0,-2.0,-1.0,-3.0
1701634083.7918353,2.0,1.0,-12.0,-3.0,-2.0,-3.0,-1.0,-1.0
1701634083.8370378,-3.0,-2.0,-8.0,-6.0,2.0,-3.0,1.0,3.0
1701634083.8370378,-2.0,3.0,9.0,1.0,1.0,-4.0,5.0,4.0
1701634083.8370378,-4.0,-2.0,-11.0,4.0,3.0,-2.0,4.0,0.0
1701634083.8370378,1.0,5.0,26.0,-7.0,-5.0,-4.0,-11.0,1.0
1701634083.845847,-9.0,-6.0,9.0,-5.0,-2.0,-6.0,-9.0,-14.0
1701634083.845847,-3.0,-3.0,-4.0,3.0,-1.0,-2.0,-8.0,-8.0
1701634083.845847,-3.0,-2.0,-9.0,-8.0,-3.0,-1.0,4.0,6.0
1701634083.845847,2.0,0.0,-4.0,8.0,3.0,-1.0,2.0,0.0
1701634083.8473718,7.0,5.0,-3.0,-10.0,2.0,0.0,15.0,16.0
1701634083.8473718,0.0,-1.0,-3.0,-6.0,-3.0,-1.0,11.0,13.0
1701634083.8473718,-13.0,-1.0,7.0,-22.0,-5.0,-8.0,-17.0,-31.0
1701634083.8473718,9.0,7.0,3.0,26.0,11.0,1.0,-4.0,0.0
1701634083.8975995,-3.0,-8.0,-22.0,4.0,0.0,7.0,1.0,2.0
1701634083.8975995,1.0,-5.0,-1.0,-4.0,-5.0,4.0,0.0,4.0
1701634083.8975995,3.0,-8.0,0.0,0.0,-5.0,5.0,-3.0,4.0
1701634083.8975995,3.0,-6.0,-9.0,-2.0,-5.0,3.0,1.0,-19.0
1701634083.8997965,23.0,20.0,-2.0,1.0,-5.0,-1.0,7.0,21.0
1701634083.8997965,0.0,-12.0,-2.0,-21.0,-1.0,1.0,-6.0,-11.0
1701634083.8997965,-15.0,5.0,1.0,24.0,2.0,-6.0,5.0,6.0
1701634083.8997965,-7.0,-7.0,-9.0,5.0,1.0,-3.0,-28.0,-19.0
1701634083.9009526,-4.0,-6.0,-4.0,7.0,0.0,8.0,8.0,10.0
1701634083.9009526,0.0,8.0,1.0,3.0,-8.0,2.0,-35.0,-33.0
1701634083.9110854,13.0,-7.0,-8.0,0.0,-4.0,11.0,28.0,23.0
1701634083.9110854,5.0,-1.0,-6.0,-6.0,-3.0,3.0,16.0,18.0
1701634083.9556923,-4.0,0.0,-6.0,-14.0,-5.0,-6.0,-5.0,-5.0
1701634083.9556923,-2.0,0.0,5.0,3.0,-2.0,-7.0,13.0,4.0
1701634083.9556923,-10.0,-7.0,3.0,3.0,11.0,-20.0,-63.0,-61.0
1701634083.9566908,-25.0,0.0,-4.0,0.0,2.0,-7.0,17.0,16.0
1701634083.9566908,6.0,-1.0,-1.0,0.0,-2.0,-1.0,5.0,3.0
1701634083.9566908,0.0,-4.0,3.0,-8.0,3.0,1.0,16.0,15.0
1701634083.9566908,5.0,-7.0,0.0,1.0,-10.0,-2.0,15.0,13.0
1701634083.9566908,-10.0,3.0,5.0,0.0,4.0,1.0,-8.0,-14.0
1701634083.9781537,-5.0,-7.0,-10.0,-8.0,-1.0,-2.0,-20.0,-9.0
1701634083.9781537,-5.0,-7.0,-4.0,5.0,0.0,0.0,-5.0,-6.0
1701634083.9781537,7.0,9.0,-1.0,5.0,0.0,7.0,11.0,20.0
1701634083.9781537,14.0,8.0,-1.0,-7.0,-5.0,5.0,10.0,20.0
1701634083.9893258,-8.0,-13.0,-7.0,-1.0,-6.0,1.0,1.0,-5.0
1701634083.9893258,6.0,-1.0,-3.0,3.0,0.0,3.0,-3.0,-12.0
1701634083.9893258,-27.0,6.0,3.0,-5.0,-2.0,-5.0,-28.0,-38.0
1701634083.9893258,10.0,-12.0,-7.0,-21.0,-8.0,-8.0,0.0,11.0
1701634084.0052009,-4.0,18.0,1.0,-2.0,0.0,-10.0,-12.0,-21.0
1701634084.007883,-5.0,-13.0,-1.0,10.0,3.0,-7.0,12.0,30.0
1701634084.0089803,-13.0,13.0,-1.0,0.0,13.0,3.0,25.0,-3.0
1701634084.0089803,-4.0,13.0,4.0,-8.0,-5.0,-6.0,-27.0,-12.0
1701634084.0625746,-1.0,-5.0,3.0,12.0,9.0,3.0,0.0,4.0
1701634084.0625746,6.0,8.0,0.0,-5.0,-4.0,3.0,-5.0,-7.0
1701634084.0625746,5.0,-15.0,0.0,-10.0,-7.0,8.0,7.0,20.0
1701634084.0625746,12.0,-3.0,-3.0,13.0,9.0,6.0,4.0,-1.0
1701634084.0664601,-7.0,5.0,5.0,-1.0,-3.0,1.0,-3.0,-6.0
1701634084.0664601,-11.0,0.0,3.0,-2.0,-1.0,0.0,-4.0,-6.0
1701634084.0664601,10.0,-4.0,-8.0,5.0,-4.0,0.0,6.0,12.0
1701634084.0664601,1.0,25.0,2.0,6.0,2.0,7.0,6.0,-8.0
1701634084.066866,3.0,-23.0,-11.0,-8.0,-8.0,4.0,12.0,6.0
1701634084.066866,-1.0,-9.0,-11.0,-4.0,5.0,6.0,5.0,-16.0
1701634084.0701108,6.0,14.0,7.0,-11.0,-8.0,3.0,-3.0,6.0
1701634084.0701108,2.0,-21.0,-6.0,-5.0,-10.0,-2.0,12.0,-4.0
1701634084.122919,3.0,13.0,-2.0,32.0,10.0,0.0,-7.0,-4.0
1701634084.122919,1.0,32.0,4.0,7.0,-4.0,-1.0,10.0,3.0
1701634084.122919,5.0,-13.0,2.0,26.0,0.0,-7.0,-14.0,-9.0
1701634084.122919,-4.0,-1.0,-16.0,-52.0,-7.0,-4.0,6.0,7.0
1701634084.122919,-3.0,-6.0,2.0,-12.0,-4.0,-7.0,10.0,15.0
1701634084.122919,-2.0,-14.0,-5.0,4.0,-2.0,-14.0,-23.0,-23.0
1701634084.122919,-18.0,-4.0,-3.0,-16.0,3.0,-8.0,1.0,6.0
1701634084.122919,-6.0,17.0,14.0,17.0,9.0,-7.0,-3.0,-5.0
1701634084.1239233,-11.0,-15.0,-6.0,-11.0,1.0,-9.0,-12.0,-2.0
1701634084.1239233,-2.0,8.0,9.0,-6.0,-1.0,-3.0,-3.0,8.0
1701634084.1340826,5.0,10.0,-1.0,-22.0,-7.0,-4.0,-1.0,2.0
1701634084.1340826,-6.0,-5.0,10.0,37.0,10.0,-4.0,-7.0,-5.0
1701634084.1823082,-7.0,-1.0,-2.0,-20.0,4.0,-3.0,-2.0,-7.0
1701634084.1823082,-3.0,13.0,9.0,-5.0,6.0,-5.0,3.0,1.0
1701634084.1823082,-6.0,-18.0,1.0,7.0,3.0,-8.0,-12.0,-6.0
1701634084.183308,-1.0,3.0,1.0,-14.0,1.0,-1.0,-4.0,-7.0
1701634084.183308,3.0,-19.0,-8.0,-26.0,-14.0,-8.0,-7.0,-10.0
1701634084.183308,-17.0,-2.0,9.0,30.0,10.0,6.0,9.0,8.0
1701634084.183308,-1.0,-4.0,-8.0,-21.0,2.0,2.0,-6.0,-8.0
1701634084.183308,1.0,2.0,-5.0,-6.0,-7.0,0.0,-1.0,-1.0
1701634084.183308,1.0,-12.0,2.0,15.0,6.0,5.0,7.0,5.0
1701634084.183308,8.0,20.0,6.0,15.0,6.0,8.0,7.0,6.0
1701634084.1933935,3.0,-11.0,5.0,4.0,-12.0,-7.0,-6.0,-2.0
1701634084.1933935,-2.0,-21.0,-18.0,3.0,8.0,8.0,-2.0,-4.0
1701634084.247048,8.0,10.0,-1.0,-3.0,-6.0,3.0,5.0,4.0
1701634084.247048,-14.0,-41.0,8.0,-20.0,-6.0,5.0,13.0,4.0
1701634084.247048,19.0,28.0,6.0,20.0,3.0,7.0,8.0,15.0
1701634084.247048,1.0,-14.0,1.0,-29.0,-19.0,-9.0,-25.0,-17.0
1701634084.2495503,2.0,18.0,-3.0,20.0,11.0,4.0,-12.0,-5.0
1701634084.2495503,0.0,-26.0,-10.0,22.0,2.0,-4.0,-11.0,-9.0
1701634084.2505493,3.0,30.0,-5.0,-23.0,-5.0,6.0,15.0,12.0
1701634084.2505493,-1.0,-18.0,10.0,30.0,-6.0,-9.0,2.0,3.0
1701634084.2550614,-4.0,17.0,-20.0,-49.0,-2.0,-4.0,-7.0,-11.0
1701634084.2550614,1.0,13.0,-1.0,-41.0,-26.0,-11.0,-4.0,1.0
1701634084.2719722,-7.0,-31.0,-9.0,47.0,26.0,-1.0,-4.0,-8.0
1701634084.2719722,-1.0,-3.0,6.0,6.0,-5.0,0.0,20.0,18.0
1701634084.2719722,-6.0,8.0,4.0,-8.0,5.0,3.0,-5.0,-9.0
1701634084.2719722,5.0,-8.0,2.0,6.0,-9.0,-10.0,-9.0,0.0
1701634084.2719722,-1.0,-2.0,-16.0,-20.0,10.0,8.0,-5.0,-11.0
1701634084.2719722,0.0,13.0,4.0,8.0,-9.0,-4.0,0.0,1.0
1701634084.2931037,1.0,-17.0,19.0,30.0,3.0,6.0,2.0,1.0
1701634084.2931037,8.0,9.0,-24.0,-52.0,-4.0,5.0,4.0,8.0
1701634084.2933283,-18.0,-44.0,-2.0,-34.0,-27.0,-11.0,-3.0,-7.0
1701634084.2933283,-9.0,-25.0,-13.0,43.0,18.0,8.0,7.0,-4.0
1701634084.3436663,2.0,-1.0,-18.0,-20.0,-13.0,-2.0,-1.0,1.0
1701634084.3436663,9.0,30.0,4.0,15.0,2.0,-5.0,-11.0,-1.0
1701634084.3436663,4.0,8.0,15.0,34.0,16.0,4.0,-2.0,1.0
1701634084.3436663,0.0,-2.0,-12.0,-35.0,-8.0,-1.0,8.0,5.0
1701634084.3436663,-2.0,9.0,18.0,21.0,6.0,-1.0,-3.0,-3.0
1701634084.3436663,-2.0,-24.0,-12.0,-5.0,-4.0,-2.0,-2.0,-2.0
1701634084.3436663,5.0,25.0,0.0,-20.0,-8.0,4.0,10.0,3.0
1701634084.3436663,6.0,8.0,4.0,12.0,10.0,3.0,7.0,9.0
1701634084.3457685,2.0,-1.0,-3.0,12.0,1.0,-4.0,-1.0,-1.0
1701634084.3457685,-8.0,-25.0,-1.0,-5.0,-5.0,1.0,-1.0,-3.0
1701634084.3457685,7.0,-5.0,2.0,7.0,-9.0,-3.0,5.0,6.0
1701634084.3457685,-1.0,29.0,6.0,-20.0,-4.0,-4.0,-28.0,-19.0
1701634084.4087253,0.0,6.0,-4.0,9.0,-1.0,3.0,1.0,-1.0
1701634084.4087253,-4.0,-34.0,-3.0,-11.0,-8.0,8.0,4.0,1.0
1701634084.4118357,9.0,34.0,13.0,47.0,32.0,28.0,25.0,17.0
1701634084.4118357,-3.0,-39.0,-18.0,-16.0,-17.0,2.0,-14.0,-10.0
1701634084.4118357,8.0,39.0,0.0,3.0,-6.0,8.0,-1.0,7.0
1701634084.4118357,-7.0,-31.0,-8.0,13.0,3.0,-4.0,-12.0,-7.0
1701634084.4118357,-4.0,-10.0,-1.0,-38.0,-15.0,-13.0,-13.0,-9.0
1701634084.4118357,-3.0,5.0,38.0,18.0,-2.0,6.0,20.0,12.0
1701634084.4544044,-4.0,13.0,-13.0,28.0,16.0,-6.0,1.0,1.0
1701634084.4544044,4.0,2.0,6.0,-16.0,-3.0,5.0,32.0,21.0
1701634084.4544044,5.0,8.0,-34.0,-43.0,8.0,-1.0,-6.0,-6.0
1701634084.4554038,7.0,103.0,43.0,85.0,10.0,-16.0,-25.0,-5.0
1701634084.4554038,-31.0,-127.0,-39.0,-31.0,-34.0,-15.0,-10.0,-21.0
1701634084.4554038,15.0,115.0,-11.0,-52.0,-7.0,-7.0,-7.0,-7.0
1701634084.4554038,0.0,-3.0,44.0,72.0,-11.0,26.0,65.0,44.0
1701634084.4554038,-15.0,-48.0,-58.0,-75.0,-2.0,-15.0,-26.0,-21.0
1701634084.4554038,2.0,22.0,22.0,-72.0,-27.0,-12.0,-24.0,-22.0
1701634084.4554038,0.0,49.0,21.0,127.0,33.0,-13.0,-48.0,-22.0
1701634084.4554038,-10.0,-45.0,-22.0,-106.0,-29.0,15.0,41.0,42.0
1701634084.4554038,2.0,49.0,-6.0,-3.0,26.0,31.0,35.0,12.0
1701634084.4979007,-23.0,-69.0,-48.0,-69.0,-40.0,-20.0,-77.0,-57.0
1701634084.4979007,-8.0,-36.0,-51.0,25.0,0.0,-35.0,-21.0,-27.0
1701634084.4979007,-3.0,33.0,47.0,16.0,-15.0,-33.0,-120.0,-64.0
1701634084.4979007,9.0,10.0,-6.0,48.0,60.0,15.0,55.0,50.0
1701634084.4979007,2.0,32.0,-9.0,-109.0,-25.0,1.0,39.0,7.0
1701634084.4979007,-5.0,-6.0,52.0,41.0,8.0,4.0,2.0,6.0
1701634084.4979007,7.0,64.0,5.0,30.0,1.0,-9.0,6.0,1.0
1701634084.4989035,-23.0,-123.0,-15.0,-45.0,-23.0,-19.0,-16.0,-18.0
1701634084.5014749,13.0,52.0,47.0,73.0,28.0,6.0,26.0,23.0
1701634084.5014749,-1.0,-18.0,-16.0,-72.0,-16.0,9.0,16.0,13.0
1701634084.5014749,-4.0,5.0,2.0,15.0,9.0,-9.0,-3.0,-10.0
1701634084.5014749,4.0,8.0,3.0,-12.0,-18.0,-9.0,-13.0,-12.0
1701634084.5558808,3.0,-3.0,6.0,6.0,14.0,6.0,11.0,12.0
1701634084.5558808,-5.0,-19.0,1.0,-9.0,-3.0,1.0,6.0,2.0
1701634084.5558808,-7.0,-20.0,-24.0,-5.0,13.0,-7.0,-11.0,-13.0
1701634084.5558808,-1.0,12.0,10.0,-16.0,-7.0,-4.0,-5.0,-10.0
1701634084.5558808,0.0,-4.0,4.0,31.0,11.0,-3.0,9.0,14.0
1701634084.5558808,-8.0,-1.0,-2.0,-14.0,5.0,-5.0,-2.0,-3.0
1701634084.5558808,1.0,13.0,2.0,1.0,3.0,-7.0,-4.0,-6.0
1701634084.5558808,0.0,-9.0,-5.0,-29.0,-17.0,-3.0,-5.0,-2.0
1701634084.5700626,3.0,9.0,15.0,34.0,13.0,4.0,4.0,10.0
1701634084.5700626,-2.0,11.0,2.0,-8.0,-3.0,5.0,1.0,-2.0
1701634084.5713956,12.0,-24.0,-6.0,-23.0,-5.0,1.0,-1.0,-1.0
1701634084.5713956,7.0,6.0,-1.0,-1.0,-8.0,1.0,-4.0,0.0
1701634084.618065,1.0,4.0,6.0,19.0,8.0,3.0,2.0,2.0
1701634084.618065,-4.0,-4.0,10.0,-21.0,-2.0,1.0,0.0,-4.0
1701634084.618065,-8.0,-12.0,-11.0,-8.0,-4.0,-4.0,0.0,2.0
1701634084.618065,0.0,-4.0,-13.0,1.0,2.0,-2.0,-3.0,-2.0
1701634084.618065,7.0,22.0,40.0,23.0,7.0,2.0,5.0,3.0
1701634084.618065,2.0,1.0,-5.0,-20.0,-4.0,3.0,2.0,1.0
1701634084.618065,-9.0,-30.0,-10.0,6.0,3.0,2.0,1.0,-8.0
1701634084.618065,-2.0,16.0,16.0,-5.0,-10.0,-2.0,-3.0,7.0
1701634084.625075,8.0,-18.0,-63.0,-9.0,-1.0,2.0,0.0,-9.0
1701634084.625075,-3.0,4.0,14.0,7.0,1.0,5.0,3.0,3.0
1701634084.625075,15.0,-1.0,21.0,-6.0,-6.0,-5.0,-4.0,-3.0
1701634084.625075,-3.0,-4.0,-48.0,-13.0,-3.0,0.0,-3.0,-3.0
1701634084.6775203,-1.0,-4.0,0.0,15.0,6.0,4.0,3.0,7.0
1701634084.6775203,5.0,-2.0,7.0,11.0,5.0,4.0,0.0,3.0
1701634084.6775203,-9.0,2.0,-6.0,-19.0,-7.0,-4.0,-3.0,-2.0
1701634084.6775203,-3.0,1.0,51.0,-6.0,-10.0,-3.0,-3.0,-6.0
1701634084.6775203,-3.0,1.0,2.0,3.0,1.0,0.0,2.0,-2.0
1701634084.6775203,5.0,-5.0,-26.0,1.0,3.0,2.0,1.0,5.0
1701634084.6785617,-4.0,-1.0,-13.0,10.0,4.0,1.0,1.0,2.0
1701634084.6785617,-2.0,-1.0,-2.0,-18.0,-8.0,-2.0,-4.0,-4.0
1701634084.6829321,1.0,1.0,-41.0,18.0,4.0,0.0,2.0,4.0
1701634084.6829321,-5.0,1.0,45.0,-20.0,-3.0,-2.0,-2.0,-3.0
1701634084.6829321,-1.0,-3.0,7.0,3.0,1.0,-2.0,1.0,0.0
1701634084.6829321,-6.0,-4.0,-27.0,-25.0,-13.0,-10.0,-7.0,-6.0
1701634084.7375512,-1.0,-2.0,-7.0,10.0,7.0,0.0,1.0,2.0
1701634084.7375512,0.0,6.0,25.0,12.0,0.0,0.0,0.0,-1.0
1701634084.7375512,-2.0,-9.0,-96.0,-6.0,2.0,1.0,1.0,-1.0
1701634084.7375512,-2.0,11.0,33.0,-10.0,-8.0,-7.0,-5.0,-8.0
1701634084.7375512,-5.0,-11.0,-11.0,-6.0,-2.0,-1.0,1.0,2.0
1701634084.7375512,-1.0,10.0,51.0,13.0,0.0,-2.0,0.0,-4.0
1701634084.7375512,-6.0,-16.0,-25.0,-10.0,-3.0,-2.0,-4.0,-3.0
1701634084.7375512,1.0,-12.0,-57.0,1.0,6.0,7.0,3.0,-1.0
1701634084.789118,-1.0,7.0,0.0,-15.0,-7.0,-4.0,-2.0,-1.0
1701634084.789118,3.0,-8.0,-32.0,-4.0,-1.0,3.0,1.0,1.0
1701634084.789118,2.0,11.0,68.0,30.0,5.0,2.0,-1.0,-1.0
1701634084.789118,0.0,-16.0,-78.0,-9.0,4.0,3.0,0.0,1.0
1701634084.789118,-1.0,3.0,48.0,-9.0,-7.0,-5.0,-6.0,-1.0
1701634084.789118,2.0,3.0,12.0,6.0,3.0,0.0,1.0,0.0
1701634084.789118,-4.0,0.0,8.0,-40.0,-14.0,-4.0,-1.0,-2.0
1701634084.789118,-3.0,-1.0,10.0,47.0,11.0,0.0,1.0,0.0
1701634084.790118,-6.0,2.0,30.0,-20.0,-3.0,-4.0,-1.0,-1.0
1701634084.790118,-4.0,-10.0,-69.0,-6.0,-8.0,-5.0,-3.0,-3.0
1701634084.790118,0.0,6.0,35.0,6.0,4.0,0.0,1.0,-1.0
1701634084.790118,4.0,5.0,50.0,-8.0,-6.0,0.0,0.0,1.0
1701634084.8423376,0.0,-5.0,-31.0,12.0,3.0,3.0,-2.0,-1.0
1701634084.8423376,0.0,-2.0,0.0,-18.0,-8.0,-1.0,-2.0,-2.0
1701634084.8423376,5.0,1.0,-7.0,11.0,-3.0,2.0,1.0,0.0
1701634084.8423376,-4.0,0.0,29.0,2.0,0.0,3.0,-3.0,-2.0
1701634084.8423376,5.0,-2.0,7.0,5.0,-5.0,0.0,2.0,4.0
1701634084.8423376,7.0,2.0,-14.0,-12.0,1.0,4.0,0.0,-6.0
1701634084.8423376,3.0,4.0,-12.0,-9.0,-2.0,2.0,-5.0,1.0
1701634084.843336,-3.0,-3.0,2.0,25.0,0.0,2.0,-3.0,-3.0
1701634084.846998,-9.0,-8.0,4.0,-16.0,-4.0,1.0,-1.0,-1.0
1701634084.8571093,6.0,2.0,-8.0,19.0,3.0,-2.0,2.0,2.0
1701634084.8577662,10.0,6.0,-2.0,-11.0,-9.0,-6.0,-3.0,-3.0
1701634084.8577662,3.0,13.0,5.0,-10.0,3.0,-4.0,-1.0,-4.0
1701634084.9000645,-14.0,-5.0,13.0,8.0,8.0,0.0,5.0,7.0
1701634084.9000645,-24.0,-18.0,-4.0,-9.0,-5.0,-6.0,-5.0,-10.0
1701634084.9000645,0.0,-4.0,-7.0,1.0,-14.0,-10.0,-4.0,-3.0
1701634084.9000645,9.0,10.0,0.0,9.0,23.0,9.0,7.0,7.0
1701634084.9000645,6.0,7.0,5.0,7.0,4.0,4.0,3.0,-4.0
1701634084.9000645,12.0,14.0,10.0,4.0,3.0,-3.0,-7.0,5.0
1701634084.901065,3.0,-7.0,-1.0,-10.0,2.0,3.0,-2.0,-2.0
1701634084.901065,2.0,-2.0,-6.0,-9.0,-9.0,-1.0,-2.0,-2.0
1701634084.911187,-9.0,-3.0,6.0,8.0,-1.0,8.0,10.0,11.0
1701634084.911187,-61.0,-15.0,-10.0,-5.0,-3.0,3.0,-6.0,-11.0
1701634084.911187,9.0,-5.0,-9.0,-5.0,-5.0,2.0,-9.0,4.0
1701634084.911187,39.0,11.0,10.0,5.0,-8.0,-1.0,-4.0,8.0
1701634084.9308975,26.0,21.0,-2.0,0.0,3.0,-5.0,-11.0,-13.0
1701634084.9308975,19.0,-12.0,-10.0,-5.0,-9.0,-4.0,8.0,3.0
1701634084.9415214,-60.0,-16.0,-4.0,0.0,3.0,2.0,21.0,5.0
1701634084.9425259,-11.0,3.0,3.0,-6.0,-5.0,-4.0,-6.0,-7.0
1701634084.98334,35.0,12.0,5.0,3.0,-6.0,-6.0,3.0,4.0
1701634084.984343,6.0,-18.0,-14.0,-9.0,-5.0,-2.0,-5.0,-7.0
1701634084.984343,-14.0,-19.0,3.0,12.0,7.0,4.0,11.0,0.0
1701634084.984343,-10.0,-19.0,-2.0,-3.0,-3.0,1.0,4.0,-2.0
1701634084.984343,30.0,9.0,-5.0,-7.0,-6.0,-4.0,-7.0,-5.0
1701634084.984343,-26.0,25.0,9.0,5.0,4.0,2.0,7.0,7.0
1701634084.984343,-13.0,-11.0,-2.0,0.0,1.0,-6.0,-12.0,-13.0
1701634084.984343,-14.0,-9.0,2.0,-4.0,-4.0,2.0,9.0,3.0
1701634085.0330644,-7.0,-2.0,-1.0,2.0,-1.0,3.0,-2.0,-3.0
1701634085.0330644,33.0,23.0,8.0,8.0,3.0,7.0,3.0,4.0
1701634085.0330644,-11.0,-23.0,-8.0,-2.0,-3.0,3.0,-3.0,1.0
1701634085.0330644,-9.0,-24.0,-13.0,-9.0,-7.0,-6.0,-11.0,-10.0
1701634085.0364828,-18.0,-23.0,1.0,0.0,-1.0,-2.0,-4.0,7.0
1701634085.0364828,12.0,23.0,1.0,-2.0,2.0,-6.0,-8.0,6.0
1701634085.0364828,14.0,0.0,8.0,-1.0,2.0,-7.0,-4.0,4.0
1701634085.0364828,-29.0,5.0,0.0,-1.0,1.0,-9.0,-10.0,-4.0
1701634085.0794377,-14.0,1.0,-4.0,-7.0,-1.0,-4.0,-1.0,1.0
1701634085.0794377,-10.0,-25.0,-1.0,-2.0,0.0,-1.0,-1.0,-2.0
1701634085.0794377,14.0,29.0,8.0,5.0,1.0,-2.0,-2.0,-1.0
1701634085.0794377,22.0,3.0,8.0,3.0,0.0,-3.0,1.0,2.0
1701634085.0794377,-37.0,-4.0,-5.0,3.0,1.0,2.0,0.0,-8.0
1701634085.0794377,12.0,16.0,-5.0,-5.0,-3.0,3.0,2.0,-1.0
1701634085.0794377,-1.0,-7.0,-3.0,3.0,-1.0,4.0,-2.0,-6.0
1701634085.0794377,13.0,18.0,1.0,1.0,1.0,5.0,7.0,3.0
1701634085.0794377,-18.0,-7.0,-4.0,-2.0,-3.0,-4.0,-9.0,-10.0
1701634085.0794377,-4.0,-24.0,-7.0,-2.0,-4.0,-2.0,1.0,-4.0
1701634085.0794377,24.0,12.0,-2.0,0.0,1.0,1.0,-3.0,-1.0
1701634085.0794377,-22.0,-8.0,-3.0,-1.0,-1.0,3.0,5.0,-6.0
1701634085.1271648,9.0,11.0,3.0,6.0,-1.0,-1.0,-11.0,-5.0
1701634085.1271648,7.0,-6.0,-10.0,-4.0,3.0,4.0,3.0,0.0
1701634085.1271648,-6.0,5.0,1.0,2.0,-2.0,4.0,3.0,0.0
1701634085.1271648,27.0,7.0,-1.0,-7.0,-6.0,3.0,3.0,4.0
1701634085.1271648,-19.0,-11.0,-2.0,8.0,1.0,-1.0,0.0,-4.0
1701634085.1271648,-8.0,-5.0,-1.0,9.0,1.0,-3.0,-3.0,-2.0
1701634085.1281636,6.0,5.0,1.0,-5.0,0.0,-4.0,2.0,3.0
1701634085.1281636,-2.0,1.0,-1.0,-5.0,-2.0,-7.0,-4.0,-2.0
1701634085.1281636,-9.0,-10.0,0.0,-15.0,-6.0,-8.0,0.0,-2.0
1701634085.1281636,9.0,9.0,9.0,6.0,2.0,-5.0,1.0,8.0
1701634085.1281636,0.0,6.0,4.0,-17.0,-3.0,-10.0,-9.0,-13.0
1701634085.1281636,-21.0,-12.0,0.0,4.0,6.0,-6.0,-2.0,-2.0
1701634085.1891859,14.0,14.0,2.0,0.0,11.0,0.0,7.0,8.0
1701634085.1891859,-26.0,-12.0,7.0,-38.0,-5.0,-4.0,-1.0,-6.0
1701634085.1891859,-7.0,-20.0,4.0,69.0,19.0,-4.0,-4.0,2.0
1701634085.1891859,-8.0,-7.0,2.0,-24.0,-1.0,-7.0,-1.0,-3.0
1701634085.1922798,3.0,-7.0,-2.0,-5.0,-5.0,-10.0,-16.0,-8.0
1701634085.1922798,11.0,14.0,-2.0,-14.0,0.0,-5.0,-2.0,4.0
1701634085.1922798,-13.0,8.0,5.0,6.0,-13.0,-10.0,-4.0,-5.0
1701634085.1922798,-6.0,-25.0,-6.0,-26.0,3.0,2.0,0.0,0.0
1701634085.1932783,-10.0,-14.0,-2.0,23.0,11.0,8.0,18.0,3.0
1701634085.1932783,15.0,37.0,2.0,-10.0,-8.0,-6.0,-17.0,-7.0
1701634085.1934016,-10.0,-32.0,-9.0,-2.0,2.0,2.0,-1.0,-3.0
1701634085.1934016,0.0,3.0,-4.0,0.0,-8.0,-2.0,-4.0,-2.0
1701634085.2448156,-4.0,-6.0,-3.0,-15.0,-7.0,1.0,2.0,-2.0
1701634085.2448156,-7.0,-28.0,-13.0,13.0,5.0,2.0,3.0,-4.0
1701634085.2458146,11.0,26.0,-2.0,-15.0,-2.0,5.0,4.0,4.0
1701634085.2458146,-1.0,5.0,-3.0,-12.0,-7.0,-1.0,-1.0,2.0
1701634085.2458146,6.0,2.0,0.0,5.0,3.0,2.0,-3.0,-1.0
1701634085.2458146,3.0,21.0,0.0,4.0,-4.0,0.0,-1.0,-2.0
1701634085.2458146,4.0,-9.0,5.0,19.0,0.0,1.0,3.0,4.0
1701634085.2458146,0.0,-22.0,-8.0,-3.0,2.0,6.0,1.0,-2.0
1701634085.2808285,3.0,4.0,2.0,-8.0,-8.0,-1.0,-3.0,-1.0
1701634085.2808285,-3.0,-13.0,-6.0,13.0,3.0,1.0,2.0,0.0
1701634085.2808285,4.0,23.0,4.0,-30.0,-4.0,1.0,2.0,2.0
1701634085.2808285,2.0,14.0,13.0,23.0,-1.0,0.0,-2.0,0.0
1701634085.2808285,-5.0,-18.0,-9.0,-3.0,-2.0,-3.0,-4.0,-5.0
1701634085.2808285,4.0,9.0,8.0,-21.0,-8.0,1.0,4.0,4.0
1701634085.2808285,11.0,48.0,4.0,-1.0,4.0,4.0,-2.0,3.0
1701634085.2808285,-6.0,-71.0,-7.0,37.0,4.0,2.0,3.0,-3.0
1701634085.2818573,-16.0,26.0,-18.0,-29.0,-9.0,-7.0,-13.0,-8.0
1701634085.2818573,-1.0,-8.0,9.0,-6.0,-9.0,0.0,-1.0,-1.0
1701634085.2983963,-9.0,-17.0,-18.0,-8.0,2.0,-2.0,0.0,-6.0
1701634085.2983963,10.0,29.0,9.0,-28.0,-24.0,-6.0,-1.0,-1.0
1701634085.349581,4.0,-35.0,-6.0,72.0,30.0,8.0,10.0,9.0
1701634085.349581,4.0,-20.0,-16.0,-13.0,-7.0,3.0,4.0,4.0
1701634085.349581,-7.0,33.0,4.0,-5.0,3.0,-11.0,-6.0,-6.0
1701634085.3505833,0.0,28.0,14.0,-45.0,-20.0,-5.0,-12.0,-5.0
1701634085.3530827,10.0,-2.0,-19.0,12.0,4.0,-4.0,-8.0,-3.0
1701634085.3530827,-13.0,23.0,12.0,-7.0,-2.0,-5.0,-1.0,0.0
1701634085.3530827,7.0,-42.0,6.0,43.0,8.0,9.0,13.0,9.0
1701634085.3530827,-9.0,-19.0,-33.0,-29.0,-3.0,-1.0,4.0,3.0
1701634085.354074,19.0,39.0,29.0,-17.0,-8.0,5.0,8.0,7.0
1701634085.354074,-9.0,-52.0,-25.0,5.0,-6.0,-18.0,-32.0,-13.0
1701634085.3589706,-2.0,-11.0,17.0,16.0,2.0,9.0,15.0,7.0
1701634085.3599694,-7.0,27.0,-8.0,-4.0,-5.0,-18.0,-28.0,-18.0
1701634085.3912973,-2.0,-28.0,-5.0,4.0,-4.0,9.0,-3.0,1.0
1701634085.3912973,3.0,-20.0,-24.0,11.0,0.0,6.0,8.0,2.0
1701634085.3912973,-4.0,-10.0,-11.0,14.0,-9.0,6.0,3.0,-7.0
1701634085.3912973,8.0,14.0,23.0,-9.0,-10.0,4.0,-12.0,2.0
1701634085.3928611,4.0,13.0,-13.0,51.0,35.0,12.0,6.0,0.0
1701634085.3928611,10.0,48.0,22.0,-46.0,-11.0,-5.0,-1.0,1.0
1701634085.3928611,-1.0,-20.0,-33.0,-57.0,-6.0,0.0,12.0,8.0
1701634085.3928611,1.0,11.0,25.0,46.0,6.0,5.0,13.0,0.0
1701634085.44268,-13.0,-5.0,1.0,-61.0,-21.0,-17.0,-4.0,-10.0
1701634085.44268,1.0,3.0,33.0,109.0,30.0,9.0,18.0,0.0
1701634085.44268,13.0,9.0,12.0,25.0,10.0,19.0,34.0,19.0
1701634085.44268,1.0,9.0,-49.0,-68.0,-25.0,-4.0,0.0,-15.0
1701634085.44268,4.0,-17.0,13.0,26.0,7.0,5.0,-6.0,-5.0
1701634085.4436784,7.0,35.0,3.0,-12.0,-8.0,3.0,2.0,3.0
1701634085.4436784,-1.0,-41.0,7.0,-56.0,-14.0,0.0,-16.0,-2.0
1701634085.4436784,-3.0,-18.0,-23.0,74.0,12.0,7.0,-19.0,3.0
1701634085.4537935,3.0,9.0,-8.0,-17.0,-6.0,10.0,-2.0,13.0
1701634085.4537935,-4.0,11.0,7.0,-48.0,-19.0,-7.0,-23.0,-6.0
1701634085.4537935,2.0,-14.0,2.0,59.0,14.0,-6.0,-22.0,1.0
1701634085.4537935,-4.0,-7.0,-4.0,-39.0,1.0,-2.0,-1.0,8.0
1701634085.5048642,-1.0,28.0,-6.0,-7.0,-16.0,-7.0,7.0,6.0
1701634085.5048642,-4.0,-16.0,2.0,-14.0,3.0,0.0,3.0,3.0
1701634085.5048642,-7.0,20.0,2.0,-13.0,12.0,-14.0,-8.0,-9.0
1701634085.5048642,-18.0,-32.0,-15.0,-46.0,-10.0,-28.0,-19.0,-17.0
1701634085.5073502,-1.0,-4.0,17.0,69.0,11.0,-8.0,18.0,8.0
1701634085.50835,-1.0,34.0,46.0,17.0,11.0,-9.0,-8.0,-10.0
1701634085.50835,-7.0,-1.0,-15.0,-114.0,-40.0,-14.0,-7.0,-9.0
1701634085.50835,-6.0,-38.0,28.0,61.0,30.0,25.0,46.0,22.0
1701634085.50835,-8.0,17.0,-42.0,46.0,56.0,4.0,15.0,1.0
1701634085.50835,14.0,10.0,30.0,-110.0,-75.0,-31.0,-22.0,-9.0
1701634085.50835,-30.0,-8.0,-17.0,102.0,30.0,14.0,0.0,0.0
1701634085.50835,10.0,17.0,-33.0,63.0,21.0,-5.0,-10.0,-6.0
1701634085.5656013,2.0,9.0,93.0,-10.0,-40.0,-2.0,-13.0,-4.0
1701634085.5666578,-22.0,-62.0,-100.0,-23.0,39.0,5.0,29.0,-4.0
1701634085.5666578,-3.0,30.0,64.0,-120.0,-38.0,-43.0,-80.0,-49.0
1701634085.5666578,35.0,79.0,-15.0,122.0,75.0,67.0,118.0,87.0
1701634085.5666578,-12.0,-43.0,-41.0,32.0,17.0,-18.0,-16.0,-30.0
1701634085.5666578,-32.0,-11.0,9.0,32.0,23.0,-11.0,-73.0,-42.0
1701634085.5666578,3.0,4.0,-33.0,-4.0,-12.0,-17.0,-4.0,-5.0
1701634085.5666578,-17.0,-28.0,6.0,-78.0,-27.0,-13.0,-12.0,-9.0
1701634085.5666578,27.0,54.0,22.0,-95.0,-22.0,19.0,47.0,50.0
1701634085.5666578,2.0,-15.0,28.0,11.0,6.0,21.0,47.0,14.0
1701634085.5666578,1.0,-13.0,-22.0,-17.0,-4.0,1.0,1.0,-7.0
1701634085.5767868,9.0,25.0,41.0,15.0,-4.0,-7.0,-11.0,-1.0
1701634085.638367,-11.0,-30.0,-17.0,-29.0,-14.0,-7.0,-19.0,-16.0
1701634085.638367,3.0,-12.0,-11.0,27.0,-1.0,5.0,5.0,8.0
1701634085.638367,4.0,9.0,-3.0,32.0,2.0,4.0,-5.0,3.0
1701634085.638367,4.0,-1.0,1.0,-15.0,-3.0,0.0,-7.0,-7.0
1701634085.638367,-6.0,-10.0,15.0,-12.0,-11.0,-6.0,-10.0,-11.0
1701634085.638367,-1.0,-17.0,-32.0,8.0,2.0,-1.0,-7.0,-4.0
1701634085.638367,11.0,17.0,-6.0,7.0,7.0,11.0,17.0,13.0
1701634085.638367,-10.0,-13.0,17.0,-4.0,-5.0,-9.0,-8.0,-11.0
1701634085.638367,0.0,-14.0,-20.0,-33.0,-13.0,-12.0,-13.0,-14.0
1701634085.638367,3.0,16.0,4.0,21.0,4.0,-3.0,-3.0,13.0
1701634085.638367,-9.0,-8.0,-2.0,-2.0,2.0,1.0,11.0,-1.0
1701634085.638367,-9.0,-3.0,10.0,-12.0,-10.0,-11.0,-27.0,-19.0
1701634085.6857233,-6.0,0.0,1.0,-1.0,-7.0,-2.0,-15.0,-9.0
1701634085.6857233,11.0,0.0,-8.0,7.0,4.0,13.0,18.0,13.0
1701634085.6857233,4.0,2.0,8.0,10.0,-1.0,5.0,6.0,3.0
1701634085.6857233,-3.0,-7.0,-8.0,-11.0,-6.0,-5.0,-18.0,-15.0
1701634085.6926405,3.0,6.0,-2.0,-8.0,-3.0,3.0,1.0,4.0
1701634085.6926405,0.0,-10.0,-5.0,7.0,-1.0,4.0,8.0,4.0
1701634085.6926405,-2.0,-6.0,-10.0,-1.0,-1.0,-1.0,-1.0,-1.0
1701634085.6936393,0.0,4.0,5.0,3.0,-4.0,-7.0,-9.0,-6.0
1701634085.6954284,-3.0,-8.0,-3.0,-9.0,-2.0,-1.0,1.0,1.0
1701634085.6954284,1.0,2.0,-1.0,4.0,-2.0,-2.0,2.0,-1.0
1701634085.6954284,0.0,-1.0,1.0,6.0,1.0,-1.0,0.0,-4.0
1701634085.6962707,2.0,2.0,0.0,-8.0,-2.0,-1.0,-2.0,-2.0
1701634085.7335594,-4.0,-5.0,0.0,-7.0,-5.0,-2.0,-2.0,-5.0
1701634085.7335594,-3.0,-6.0,-6.0,2.0,0.0,-2.0,-2.0,-2.0
1701634085.7335594,4.0,6.0,0.0,3.0,2.0,2.0,3.0,4.0
1701634085.7335594,-3.0,-3.0,2.0,-4.0,-1.0,-1.0,-4.0,-2.0
1701634085.7335594,-8.0,-5.0,-7.0,-7.0,-3.0,-2.0,-6.0,-3.0
1701634085.7335594,9.0,5.0,9.0,7.0,0.0,1.0,2.0,1.0
1701634085.7335594,-1.0,-3.0,2.0,0.0,0.0,1.0,0.0,4.0
1701634085.7335594,-2.0,-4.0,-5.0,-5.0,-4.0,-3.0,-6.0,-3.0
1701634085.749653,-4.0,-2.0,-1.0,-2.0,-2.0,-2.0,-3.0,-1.0
1701634085.749653,-1.0,-1.0,-7.0,0.0,0.0,0.0,2.0,1.0
1701634085.749653,0.0,1.0,6.0,3.0,1.0,-2.0,2.0,0.0
1701634085.749653,-2.0,-4.0,6.0,-4.0,-2.0,-3.0,-6.0,-3.0
1701634085.8036835,1.0,2.0,-5.0,-4.0,-1.0,0.0,-1.0,2.0
1701634085.8036835,-3.0,-1.0,2.0,1.0,1.0,1.0,1.0,2.0
1701634085.8036835,-1.0,-1.0,-9.0,0.0,1.0,-2.0,1.0,-1.0
1701634085.8036835,-1.0,0.0,-4.0,0.0,1.0,-3.0,-2.0,-2.0
1701634085.8036835,0.0,-2.0,-2.0,-1.0,-2.0,-2.0,1.0,-1.0
1701634085.8036835,-1.0,-3.0,-7.0,0.0,-1.0,-1.0,-1.0,-2.0
1701634085.8036835,-2.0,-2.0,-1.0,-1.0,-2.0,-1.0,-2.0,-1.0
1701634085.8036835,0.0,-1.0,0.0,-4.0,-1.0,-3.0,-3.0,-1.0
1701634085.8509688,0.0,0.0,3.0,-4.0,-3.0,-4.0,-2.0,-4.0
1701634085.8509688,-2.0,-5.0,-10.0,-1.0,0.0,-1.0,0.0,-2.0
1701634085.8509688,0.0,0.0,3.0,1.0,0.0,-1.0,1.0,1.0
1701634085.8509688,-1.0,-1.0,6.0,-2.0,-1.0,-2.0,0.0,0.0
1701634085.8509688,-1.0,-1.0,-3.0,-2.0,-2.0,0.0,-2.0,0.0
1701634085.8509688,-1.0,-1.0,-1.0,-1.0,0.0,-3.0,-1.0,-3.0
1701634085.8509688,0.0,-2.0,-8.0,0.0,-1.0,1.0,-1.0,0.0
1701634085.8509688,1.0,-2.0,1.0,0.0,0.0,-3.0,-1.0,-2.0
1701634085.8520691,0.0,0.0,2.0,-2.0,-3.0,-3.0,-2.0,0.0
1701634085.8520691,-1.0,-2.0,-3.0,1.0,-1.0,2.0,-2.0,0.0
1701634085.8520691,0.0,0.0,0.0,-1.0,-2.0,0.0,0.0,0.0
1701634085.8520691,1.0,-1.0,-3.0,1.0,-2.0,0.0,-3.0,-2.0
1701634085.9082348,3.0,-2.0,-6.0,-2.0,-1.0,2.0,0.0,0.0
1701634085.9082348,1.0,-1.0,1.0,1.0,0.0,4.0,0.0,-1.0
1701634085.9082348,2.0,-2.0,-3.0,-2.0,-3.0,2.0,0.0,-1.0
1701634085.9082348,-1.0,-1.0,-2.0,0.0,-1.0,2.0,0.0,-1.0
1701634085.9082348,0.0,0.0,-2.0,-1.0,-1.0,1.0,0.0,0.0
1701634085.9082348,-2.0,-2.0,-1.0,-2.0,-3.0,-2.0,-1.0,0.0
1701634085.9082348,-2.0,-1.0,-2.0,-2.0,-1.0,-3.0,-1.0,-2.0
1701634085.9082348,-1.0,0.0,-3.0,-2.0,-1.0,-1.0,0.0,-2.0
1701634085.9082348,-4.0,0.0,1.0,0.0,0.0,-2.0,-1.0,1.0
1701634085.9082348,-1.0,1.0,1.0,-2.0,0.0,-2.0,0.0,-1.0
1701634085.9082348,-1.0,-1.0,-1.0,0.0,-1.0,1.0,-1.0,-2.0
1701634085.9082348,2.0,-3.0,-1.0,2.0,-3.0,3.0,-1.0,-1.0
1701634085.967792,3.0,-1.0,-4.0,2.0,-2.0,3.0,-1.0,-2.0
1701634085.967792,2.0,-1.0,-3.0,0.0,-2.0,3.0,-2.0,1.0
1701634085.967792,0.0,-1.0,-3.0,1.0,-1.0,0.0,-1.0,1.0
1701634085.967792,-2.0,-1.0,-2.0,-3.0,-3.0,0.0,-1.0,0.0
1701634085.9715796,-2.0,0.0,-1.0,-5.0,-2.0,-3.0,-2.0,0.0
1701634085.9715796,-5.0,1.0,2.0,-4.0,-1.0,-6.0,-2.0,1.0
1701634085.9715796,-5.0,0.0,1.0,-6.0,1.0,-8.0,-3.0,0.0
1701634085.9715796,-5.0,0.0,0.0,-4.0,0.0,-6.0,-3.0,0.0
1701634085.9715796,-5.0,-3.0,1.0,-1.0,1.0,-3.0,-4.0,0.0
1701634085.9715796,0.0,-1.0,1.0,2.0,0.0,1.0,-5.0,-1.0
1701634085.9736857,4.0,-2.0,-2.0,5.0,1.0,7.0,-5.0,0.0
1701634085.9736857,3.0,-1.0,-4.0,5.0,-2.0,8.0,-3.0,0.0
1701634086.0255997,3.0,-1.0,-5.0,4.0,-2.0,6.0,-1.0,1.0
1701634086.0255997,0.0,-1.0,-5.0,0.0,-2.0,2.0,2.0,-1.0
1701634086.0255997,0.0,-2.0,-2.0,-3.0,-2.0,-1.0,2.0,-1.0
1701634086.0255997,-3.0,0.0,-3.0,-4.0,-1.0,-5.0,2.0,-4.0
1701634086.0255997,-4.0,-1.0,1.0,-5.0,0.0,-8.0,-1.0,-3.0
1701634086.0255997,-6.0,0.0,4.0,-7.0,0.0,-9.0,0.0,0.0
1701634086.0255997,-6.0,1.0,3.0,-5.0,-1.0,-10.0,-1.0,-2.0
1701634086.0255997,-4.0,0.0,3.0,-3.0,-2.0,-7.0,-2.0,-2.0
1701634086.026601,-4.0,1.0,2.0,-1.0,2.0,-4.0,-1.0,-3.0
1701634086.026601,-2.0,1.0,-1.0,0.0,-2.0,-2.0,-1.0,-1.0
1701634086.0368328,1.0,0.0,-1.0,1.0,0.0,0.0,0.0,-2.0
1701634086.0368328,1.0,-3.0,-1.0,-1.0,-2.0,1.0,0.0,0.0
1701634086.0934517,0.0,0.0,-1.0,-2.0,-1.0,-1.0,-2.0,-1.0
1701634086.0934517,0.0,-2.0,-1.0,0.0,0.0,2.0,-2.0,1.0
1701634086.0934517,-2.0,-1.0,-1.0,-1.0,-1.0,0.0,-2.0,0.0
1701634086.0934517,-2.0,-1.0,0.0,-2.0,0.0,-2.0,-2.0,1.0
1701634086.0934517,-1.0,-1.0,0.0,0.0,1.0,1.0,-3.0,-2.0
1701634086.0934517,0.0,-3.0,1.0,0.0,0.0,1.0,-2.0,0.0
1701634086.0934517,1.0,0.0,-1.0,-1.0,0.0,1.0,0.0,-2.0
1701634086.0934517,1.0,-2.0,-2.0,1.0,0.0,-1.0,-2.0,-1.0
1701634086.1249738,1.0,-1.0,-2.0,1.0,-1.0,1.0,1.0,1.0
1701634086.1249738,1.0,-2.0,-3.0,3.0,-3.0,3.0,0.0,-2.0
1701634086.1249738,0.0,-4.0,-2.0,3.0,-1.0,1.0,-2.0,0.0
1701634086.1249738,2.0,0.0,-1.0,-1.0,-3.0,1.0,0.0,0.0
1701634086.1249738,1.0,-2.0,-3.0,-1.0,-3.0,0.0,-1.0,-1.0
1701634086.1249738,-1.0,-1.0,-3.0,0.0,-3.0,-1.0,-2.0,-1.0
1701634086.1249738,0.0,-1.0,-2.0,0.0,-3.0,-1.0,-2.0,-1.0
1701634086.1249738,-1.0,-1.0,-2.0,-1.0,0.0,1.0,-2.0,-3.0
1701634086.1328504,1.0,0.0,-1.0,-1.0,-1.0,-1.0,-3.0,-3.0
1701634086.1328504,0.0,-2.0,-1.0,-2.0,0.0,0.0,-1.0,-2.0
1701634086.1328504,0.0,0.0,0.0,-3.0,-2.0,-1.0,-1.0,0.0
1701634086.1328504,0.0,-2.0,-1.0,-1.0,-2.0,0.0,-1.0,-1.0
1701634086.1804705,0.0,-1.0,-1.0,0.0,-2.0,1.0,1.0,-1.0
1701634086.1804705,-2.0,-1.0,-3.0,-2.0,0.0,-1.0,1.0,-3.0
1701634086.1804705,-1.0,-1.0,-1.0,0.0,-1.0,-3.0,1.0,-1.0
1701634086.1804705,-2.0,0.0,1.0,1.0,0.0,-2.0,1.0,-1.0
1701634086.1804705,-2.0,-1.0,-2.0,0.0,1.0,-1.0,0.0,-1.0
1701634086.1804705,0.0,-1.0,0.0,1.0,-2.0,2.0,0.0,-3.0
1701634086.1804705,-1.0,-1.0,-1.0,-2.0,-1.0,0.0,0.0,0.0
1701634086.1804705,0.0,-1.0,-3.0,-1.0,0.0,-1.0,-2.0,-1.0
1701634086.1937315,-1.0,-1.0,-1.0,-2.0,-2.0,-3.0,-3.0,0.0
1701634086.1937315,0.0,0.0,-1.0,-4.0,0.0,-6.0,-2.0,-1.0
1701634086.1991456,-4.0,0.0,0.0,-4.0,1.0,-5.0,-4.0,-2.0
1701634086.1991456,-4.0,0.0,1.0,-4.0,1.0,-5.0,-3.0,-2.0
1701634086.2489662,-2.0,1.0,1.0,-3.0,1.0,-5.0,-3.0,-1.0
1701634086.2489662,-2.0,0.0,2.0,-2.0,2.0,-2.0,-1.0,0.0
1701634086.2489662,-2.0,0.0,1.0,-2.0,2.0,-3.0,-3.0,1.0
1701634086.2489662,-1.0,-1.0,-1.0,0.0,0.0,-2.0,-1.0,0.0
1701634086.2489662,-1.0,-1.0,0.0,-1.0,1.0,-1.0,-1.0,0.0
1701634086.2489662,-1.0,-1.0,-1.0,-1.0,-1.0,-1.0,1.0,0.0
1701634086.2489662,-2.0,-1.0,0.0,-1.0,1.0,-1.0,-2.0,-1.0
1701634086.2489662,-2.0,-1.0,-1.0,-2.0,0.0,-1.0,-1.0,0.0
1701634086.295416,-1.0,0.0,-1.0,-1.0,0.0,-1.0,0.0,-1.0
1701634086.295416,-2.0,-1.0,0.0,0.0,-2.0,0.0,-1.0,0.0
1701634086.295416,-1.0,-3.0,-2.0,1.0,-1.0,1.0,0.0,0.0
1701634086.295416,0.0,-1.0,-1.0,0.0,0.0,-1.0,-2.0,-2.0
1701634086.295416,0.0,-2.0,-1.0,0.0,0.0,-2.0,0.0,-2.0
1701634086.2964206,0.0,0.0,-1.0,-3.0,-1.0,-2.0,-1.0,0.0
1701634086.2964206,-2.0,-1.0,-3.0,-1.0,0.0,-1.0,-1.0,1.0
1701634086.2964206,0.0,-1.0,1.0,-2.0,-1.0,-3.0,0.0,-1.0
1701634086.299846,-1.0,-1.0,-1.0,-3.0,-1.0,-1.0,-1.0,-1.0
1701634086.299846,-1.0,1.0,-1.0,0.0,-1.0,-5.0,0.0,-2.0
1701634086.299846,-2.0,-2.0,0.0,-2.0,-1.0,-3.0,0.0,-1.0
1701634086.299846,-1.0,-2.0,-1.0,-3.0,0.0,-2.0,-2.0,-1.0
1701634086.359974,-2.0,-1.0,-2.0,-1.0,-1.0,-2.0,-1.0,-1.0
1701634086.359974,-1.0,-2.0,0.0,-1.0,0.0,-2.0,-2.0,-1.0
1701634086.359974,0.0,-1.0,1.0,1.0,0.0,0.0,-1.0,-3.0
1701634086.359974,-1.0,-1.0,-2.0,2.0,-1.0,0.0,-1.0,-1.0
1701634086.359974,1.0,-3.0,0.0,1.0,-4.0,1.0,-2.0,-3.0
1701634086.359974,1.0,-1.0,-1.0,1.0,-2.0,4.0,-1.0,-1.0
1701634086.359974,0.0,0.0,-2.0,0.0,-2.0,2.0,-1.0,0.0
1701634086.359974,0.0,-1.0,-3.0,2.0,-2.0,2.0,1.0,0.0
1701634086.359974,2.0,-2.0,-5.0,0.0,-1.0,2.0,0.0,0.0
1701634086.359974,2.0,-1.0,-2.0,1.0,-2.0,1.0,-1.0,0.0
1701634086.3609738,3.0,-1.0,-3.0,-1.0,-1.0,3.0,0.0,-1.0
1701634086.3609738,1.0,-1.0,-3.0,-1.0,-3.0,2.0,-1.0,0.0
1701634086.4053252,-2.0,-2.0,-1.0,-2.0,-1.0,-2.0,0.0,-1.0
1701634086.4053252,-3.0,0.0,-1.0,-3.0,-1.0,-3.0,0.0,0.0
1701634086.4053252,-2.0,-1.0,1.0,-3.0,-2.0,-4.0,1.0,-1.0
1701634086.4053252,-4.0,0.0,0.0,-1.0,0.0,-4.0,0.0,0.0
1701634086.4053252,-3.0,1.0,0.0,-1.0,0.0,-3.0,-1.0,-2.0
1701634086.4053252,-2.0,0.0,1.0,-2.0,2.0,-3.0,-1.0,-1.0
1701634086.4053252,-2.0,-1.0,0.0,0.0,-2.0,-3.0,0.0,-2.0
1701634086.4053252,0.0,-2.0,0.0,0.0,0.0,-1.0,-2.0,-2.0
1701634086.4073393,1.0,-2.0,-1.0,0.0,-1.0,2.0,0.0,-1.0
1701634086.4156547,0.0,-3.0,-1.0,0.0,-1.0,-1.0,-1.0,0.0
1701634086.4176555,-1.0,-1.0,-2.0,-1.0,-1.0,1.0,-2.0,-1.0
1701634086.4176555,1.0,-2.0,0.0,0.0,-3.0,1.0,-2.0,-1.0
1701634086.4560227,2.0,-3.0,-2.0,1.0,-2.0,3.0,-4.0,1.0
1701634086.4560227,2.0,-3.0,-2.0,2.0,-3.0,2.0,-4.0,0.0
1701634086.4560227,2.0,-3.0,-3.0,1.0,-2.0,4.0,0.0,0.0
1701634086.4560227,-1.0,-1.0,-4.0,-1.0,-2.0,3.0,-1.0,-1.0
1701634086.4570255,-2.0,0.0,-1.0,-3.0,-2.0,-2.0,0.0,0.0
1701634086.4570255,-2.0,-1.0,-2.0,-1.0,-2.0,-1.0,-2.0,-1.0
1701634086.4570255,-3.0,0.0,-1.0,-3.0,-2.0,-2.0,-1.0,-1.0
1701634086.4570255,-1.0,-1.0,-1.0,-4.0,-1.0,-2.0,-3.0,1.0
1701634086.4731941,-1.0,-2.0,-1.0,-3.0,0.0,-1.0,-2.0,-1.0
1701634086.4755697,-3.0,0.0,0.0,0.0,0.0,1.0,-1.0,0.0
1701634086.4755697,-2.0,0.0,-1.0,-1.0,0.0,0.0,-1.0,-3.0
1701634086.4755697,-1.0,0.0,-1.0,0.0,0.0,1.0,1.0,-2.0
1701634086.5116677,-1.0,-1.0,0.0,0.0,0.0,-1.0,-1.0,-2.0
1701634086.5126667,-2.0,-2.0,-2.0,-3.0,0.0,-4.0,-1.0,0.0
1701634086.5126667,0.0,-2.0,-1.0,2.0,0.0,-4.0,-2.0,0.0
1701634086.5126667,0.0,-2.0,-3.0,1.0,1.0,-1.0,-1.0,0.0
1701634086.5126667,1.0,0.0,-2.0,0.0,-1.0,-1.0,-1.0,0.0
1701634086.5126667,-2.0,-1.0,-1.0,-2.0,0.0,-3.0,-2.0,-1.0
1701634086.5126667,-3.0,-2.0,-2.0,-2.0,-1.0,-4.0,-1.0,-2.0
1701634086.5126667,-1.0,-2.0,0.0,-1.0,0.0,-3.0,-1.0,-3.0
1701634086.533196,1.0,-1.0,0.0,2.0,-2.0,3.0,-1.0,-2.0
1701634086.533196,3.0,-2.0,-2.0,3.0,-2.0,3.0,3.0,-2.0
1701634086.533196,1.0,-2.0,-3.0,1.0,-3.0,4.0,2.0,1.0
1701634086.533196,2.0,-2.0,-4.0,1.0,-3.0,5.0,1.0,-2.0
1701634086.5711427,-1.0,-5.0,-2.0,1.0,-4.0,3.0,5.0,0.0
1701634086.5711427,-2.0,-1.0,-2.0,-5.0,-2.0,-1.0,3.0,-2.0
1701634086.5711427,-1.0,-1.0,1.0,-2.0,-2.0,0.0,4.0,-1.0
1701634086.5711427,-3.0,-1.0,0.0,-4.0,-2.0,-5.0,3.0,1.0
1701634086.5722315,-2.0,-2.0,0.0,-4.0,-1.0,-7.0,0.0,-1.0
1701634086.5722315,-3.0,0.0,-1.0,-1.0,0.0,-4.0,-2.0,-2.0
1701634086.582527,-3.0,3.0,-1.0,-3.0,1.0,-6.0,-2.0,0.0
1701634086.582527,-4.0,1.0,2.0,-4.0,2.0,-8.0,-5.0,0.0
1701634086.593674,-3.0,3.0,1.0,-3.0,2.0,-7.0,-7.0,0.0
1701634086.593674,-10.0,-2.0,2.0,-3.0,1.0,-5.0,-4.0,-5.0
1701634086.593674,-2.0,2.0,2.0,-4.0,0.0,-6.0,-7.0,-1.0
1701634086.593674,-2.0,1.0,6.0,0.0,2.0,-2.0,-5.0,-1.0
1701634086.6454773,-5.0,2.0,0.0,-2.0,1.0,-4.0,-5.0,-1.0
1701634086.6454773,2.0,0.0,1.0,-1.0,1.0,2.0,-3.0,1.0
1701634086.6454773,3.0,-2.0,5.0,1.0,0.0,1.0,-1.0,1.0
1701634086.6454773,-2.0,-9.0,-1.0,-1.0,1.0,2.0,-1.0,-3.0
1701634086.6454773,0.0,0.0,-2.0,-3.0,-3.0,0.0,-3.0,-1.0
1701634086.6454773,2.0,-1.0,-1.0,-1.0,1.0,2.0,-2.0,1.0
1701634086.6454773,-3.0,-2.0,-4.0,1.0,0.0,1.0,-3.0,-1.0
1701634086.6454773,-3.0,-1.0,-2.0,0.0,-1.0,0.0,0.0,-1.0
1701634086.646555,6.0,-3.0,-1.0,-1.0,0.0,2.0,1.0,1.0
1701634086.646555,3.0,-1.0,-4.0,-1.0,-4.0,0.0,-1.0,-1.0
1701634086.7004104,1.0,-1.0,-2.0,-1.0,0.0,0.0,-2.0,1.0
1701634086.7004104,-3.0,1.0,-2.0,-1.0,-1.0,-1.0,0.0,-1.0
1701634086.7014103,-5.0,2.0,-3.0,-1.0,-3.0,-1.0,1.0,-3.0
1701634086.7014103,1.0,0.0,-1.0,-3.0,-4.0,-1.0,-1.0,-2.0
1701634086.7014103,1.0,2.0,1.0,-1.0,0.0,-1.0,1.0,1.0
1701634086.7014103,1.0,2.0,2.0,-1.0,-1.0,-1.0,0.0,-4.0
1701634086.7014103,-2.0,1.0,13.0,3.0,0.0,-1.0,-1.0,-1.0
1701634086.7014103,8.0,-3.0,1.0,6.0,2.0,-1.0,-1.0,3.0
1701634086.7014103,-9.0,-5.0,-24.0,-12.0,-2.0,1.0,0.0,-1.0
1701634086.7014103,-5.0,-4.0,-5.0,0.0,-3.0,0.0,-1.0,-6.0
1701634086.7453215,32.0,5.0,-16.0,4.0,3.0,4.0,7.0,27.0
1701634086.7453215,-26.0,-5.0,33.0,-6.0,-5.0,-4.0,-4.0,-16.0
1701634086.7453215,5.0,1.0,34.0,14.0,3.0,1.0,4.0,-1.0
1701634086.7463214,1.0,-6.0,-56.0,-12.0,0.0,0.0,2.0,-3.0
1701634086.7463214,-5.0,4.0,7.0,2.0,0.0,-1.0,-5.0,-1.0
1701634086.7463214,10.0,2.0,-58.0,0.0,1.0,-1.0,-2.0,-6.0
1701634086.7463214,-41.0,-3.0,68.0,3.0,-4.0,-5.0,1.0,-6.0
1701634086.7463214,-12.0,-2.0,-47.0,-3.0,-1.0,-3.0,-5.0,4.0
1701634086.759746,-5.0,-8.0,24.0,-13.0,-6.0,-6.0,-1.0,-15.0
1701634086.759746,35.0,1.0,9.0,11.0,4.0,0.0,5.0,21.0
1701634086.759746,-45.0,-11.0,-11.0,-19.0,-10.0,-5.0,-6.0,-18.0
1701634086.7627594,-3.0,-1.0,64.0,20.0,2.0,-2.0,-1.0,-7.0
1701634086.808462,-9.0,-6.0,-48.0,-22.0,-3.0,-2.0,-1.0,-3.0
1701634086.8098514,-19.0,3.0,63.0,15.0,4.0,2.0,4.0,3.0
1701634086.817211,31.0,6.0,37.0,4.0,2.0,1.0,-4.0,-1.0
1701634086.817211,14.0,-24.0,-37.0,12.0,7.0,6.0,2.0,-2.0
1701634086.824838,-37.0,-14.0,-78.0,-78.0,-33.0,-20.0,-21.0,-69.0
1701634086.824838,18.0,-20.0,74.0,12.0,0.0,0.0,2.0,33.0
1701634086.824838,35.0,31.0,-114.0,-22.0,-6.0,0.0,0.0,42.0
1701634086.824838,15.0,-15.0,127.0,32.0,6.0,5.0,5.0,-30.0
1701634086.824838,29.0,-19.0,21.0,24.0,13.0,8.0,-4.0,-25.0
1701634086.824838,-22.0,-7.0,24.0,-31.0,-14.0,-7.0,-4.0,4.0
1701634086.824838,3.0,3.0,50.0,5.0,7.0,4.0,2.0,12.0
1701634086.824838,5.0,56.0,71.0,21.0,1.0,3.0,7.0,77.0
1701634086.852856,33.0,0.0,114.0,-3.0,-19.0,-12.0,-15.0,-64.0
1701634086.8545165,-5.0,-7.0,-39.0,7.0,7.0,7.0,6.0,-39.0
1701634086.876682,34.0,-41.0,-52.0,-5.0,-1.0,-1.0,-4.0,21.0
1701634086.876682,-27.0,-46.0,-79.0,-27.0,-10.0,-3.0,-7.0,-19.0
1701634086.882611,32.0,82.0,3.0,49.0,21.0,14.0,4.0,42.0
1701634086.882611,-37.0,-36.0,-116.0,-55.0,-25.0,-12.0,-10.0,-3.0
1701634086.882611,-2.0,1.0,3.0,2.0,3.0,2.0,0.0,-9.0
1701634086.882611,-27.0,-2.0,18.0,-3.0,1.0,1.0,12.0,-21.0
1701634086.882611,-39.0,-15.0,-21.0,10.0,10.0,-1.0,4.0,-2.0
1701634086.882611,3.0,7.0,-4.0,-5.0,2.0,-10.0,-6.0,-34.0
1701634086.9248247,-38.0,30.0,-5.0,7.0,8.0,2.0,10.0,-26.0
1701634086.9248247,3.0,-18.0,-85.0,-26.0,-2.0,-8.0,-10.0,22.0
1701634086.9248247,-6.0,9.0,73.0,19.0,0.0,3.0,13.0,17.0
1701634086.9248247,-21.0,-8.0,-52.0,2.0,3.0,2.0,-10.0,-36.0
1701634086.9248247,-28.0,-16.0,87.0,19.0,-4.0,2.0,-6.0,-43.0
1701634086.9248247,17.0,20.0,-50.0,-1.0,8.0,8.0,6.0,15.0
1701634086.9290102,4.0,-35.0,49.0,-13.0,-21.0,-11.0,-13.0,-30.0
1701634086.9290102,0.0,36.0,32.0,4.0,4.0,6.0,2.0,12.0
1701634086.9290102,26.0,-22.0,-70.0,6.0,2.0,1.0,3.0,27.0
1701634086.9290102,-8.0,15.0,-24.0,-12.0,-7.0,-4.0,-13.0,-64.0
1701634086.9574883,8.0,-34.0,-65.0,-3.0,9.0,4.0,6.0,43.0
1701634086.9574883,9.0,11.0,53.0,14.0,3.0,0.0,-5.0,-21.0
1701634086.9574883,10.0,21.0,62.0,6.0,-12.0,-15.0,-4.0,21.0
1701634086.9574883,1.0,-15.0,-40.0,-12.0,-5.0,-11.0,-2.0,14.0
1701634086.9574883,-26.0,27.0,-38.0,-14.0,2.0,2.0,6.0,-28.0
1701634086.9574883,20.0,17.0,17.0,0.0,1.0,-1.0,4.0,49.0
1701634086.9596276,12.0,12.0,10.0,-3.0,2.0,-6.0,-2.0,-3.0
1701634086.9596276,59.0,-13.0,47.0,7.0,-1.0,-8.0,-5.0,6.0
1701634086.9754834,-39.0,1.0,-77.0,-10.0,2.0,-5.0,9.0,47.0
1701634086.9754834,8.0,7.0,0.0,4.0,3.0,-2.0,-3.0,-41.0
1701634086.9800513,-16.0,0.0,-24.0,-8.0,-3.0,-1.0,5.0,35.0
1701634086.9800513,-1.0,17.0,46.0,1.0,-3.0,1.0,-5.0,-26.0
1701634087.03305,-6.0,-29.0,-9.0,9.0,2.0,5.0,3.0,24.0
1701634087.03305,3.0,4.0,18.0,6.0,-1.0,4.0,1.0,15.0
1701634087.03305,-16.0,-14.0,-21.0,-4.0,-7.0,1.0,-4.0,0.0
1701634087.03305,6.0,9.0,8.0,-6.0,-3.0,5.0,0.0,35.0
1701634087.03305,-19.0,-12.0,8.0,6.0,1.0,1.0,-5.0,-1.0
1701634087.03305,-28.0,-21.0,-31.0,-3.0,-4.0,-1.0,-2.0,-11.0
1701634087.03305,56.0,9.0,14.0,4.0,1.0,-1.0,-3.0,27.0
1701634087.03305,-9.0,-19.0,-14.0,-18.0,-10.0,-8.0,-4.0,-8.0
1701634087.0342083,21.0,24.0,26.0,7.0,0.0,-7.0,-8.0,-8.0
1701634087.0342083,-12.0,0.0,2.0,3.0,2.0,0.0,11.0,6.0
1701634087.0404236,1.0,-11.0,-21.0,-8.0,-1.0,3.0,9.0,-14.0
1701634087.0404236,-19.0,4.0,21.0,4.0,-2.0,-4.0,-9.0,-8.0
1701634087.092686,13.0,-2.0,3.0,5.0,1.0,3.0,4.0,16.0
1701634087.092686,15.0,-1.0,-14.0,-5.0,-5.0,-3.0,0.0,-18.0
1701634087.092686,-11.0,-3.0,-1.0,1.0,-1.0,1.0,-11.0,-25.0
1701634087.092686,-9.0,4.0,6.0,4.0,1.0,3.0,5.0,-10.0
1701634087.092686,12.0,3.0,8.0,4.0,2.0,3.0,-2.0,5.0
1701634087.092686,14.0,-2.0,-2.0,2.0,-3.0,-1.0,2.0,27.0
1701634087.0964942,-27.0,2.0,-5.0,-2.0,0.0,3.0,-2.0,-19.0
1701634087.0964942,21.0,7.0,10.0,0.0,-4.0,-4.0,-12.0,-5.0
1701634087.1371167,0.0,-6.0,-3.0,-1.0,-3.0,0.0,0.0,8.0
1701634087.1371167,-25.0,-6.0,-3.0,1.0,0.0,1.0,1.0,0.0
1701634087.1371167,7.0,-5.0,-15.0,-6.0,-4.0,-4.0,-2.0,-17.0
1701634087.1371167,-8.0,2.0,5.0,2.0,0.0,0.0,3.0,34.0
1701634087.1371167,10.0,10.0,13.0,2.0,1.0,-3.0,-3.0,-18.0
1701634087.1371167,13.0,-11.0,-14.0,-6.0,0.0,-2.0,-3.0,1.0
1701634087.137579,-5.0,4.0,3.0,-2.0,1.0,0.0,-3.0,-7.0
1701634087.137579,-3.0,2.0,2.0,-3.0,-2.0,-1.0,-2.0,-25.0
1701634087.137579,-36.0,-7.0,1.0,0.0,0.0,0.0,1.0,-7.0
1701634087.137579,-2.0,-5.0,-2.0,-3.0,-1.0,-1.0,-1.0,20.0
1701634087.1437361,6.0,4.0,1.0,1.0,3.0,-1.0,-8.0,-24.0
1701634087.1437361,24.0,16.0,3.0,-3.0,-2.0,-2.0,5.0,-13.0
1701634087.1988153,-32.0,-12.0,-3.0,-2.0,0.0,1.0,10.0,7.0
1701634087.1988153,-15.0,7.0,7.0,4.0,0.0,2.0,-7.0,-16.0
1701634087.1988153,26.0,2.0,-4.0,0.0,1.0,2.0,5.0,29.0
1701634087.1988153,-14.0,-12.0,0.0,-1.0,-1.0,0.0,5.0,-20.0
1701634087.1988153,17.0,1.0,-2.0,-2.0,-1.0,-5.0,-19.0,27.0
1701634087.1988153,-5.0,3.0,0.0,-2.0,-1.0,-3.0,-1.0,14.0
1701634087.1988153,-14.0,-2.0,2.0,0.0,0.0,-1.0,-5.0,0.0
1701634087.1988153,-20.0,9.0,6.0,2.0,-2.0,-3.0,-6.0,-26.0
1701634087.1988153,-6.0,-8.0,-11.0,-6.0,-3.0,-3.0,2.0,-3.0
1701634087.1988153,31.0,4.0,-1.0,-2.0,-1.0,-2.0,-5.0,9.0
1701634087.1999176,27.0,-6.0,-7.0,-6.0,-6.0,-3.0,-5.0,-2.0
1701634087.1999176,-17.0,3.0,2.0,1.0,4.0,0.0,11.0,14.0
1701634087.2598684,24.0,-5.0,-2.0,-4.0,-2.0,2.0,5.0,0.0
1701634087.2598684,16.0,-9.0,-5.0,0.0,-2.0,-2.0,-11.0,-9.0
1701634087.2598684,-70.0,-17.0,1.0,-2.0,-2.0,-6.0,-10.0,-16.0
1701634087.2598684,-34.0,1.0,-2.0,-4.0,-4.0,-13.0,-16.0,-14.0
1701634087.2598684,-10.0,-7.0,-5.0,-3.0,2.0,10.0,1.0,-45.0
1701634087.2598684,-5.0,5.0,4.0,1.0,0.0,-2.0,2.0,14.0
1701634087.260867,4.0,1.0,2.0,1.0,1.0,-1.0,10.0,0.0
1701634087.260867,-5.0,-10.0,-4.0,-2.0,-2.0,-3.0,-16.0,-30.0
1701634087.2689135,11.0,5.0,1.0,1.0,-1.0,-6.0,4.0,21.0
1701634087.2689135,5.0,1.0,-5.0,-2.0,-1.0,0.0,4.0,-16.0
1701634087.2689135,-20.0,-1.0,0.0,-1.0,-1.0,-2.0,2.0,1.0
1701634087.2689135,48.0,5.0,5.0,2.0,0.0,0.0,4.0,23.0
1701634087.3037634,-3.0,-1.0,1.0,0.0,0.0,-1.0,2.0,2.0
1701634087.3037634,10.0,-2.0,-3.0,-1.0,-1.0,-2.0,2.0,6.0
1701634087.3037634,15.0,2.0,2.0,0.0,0.0,-6.0,-4.0,-1.0
1701634087.3037634,-18.0,-2.0,3.0,0.0,1.0,2.0,4.0,18.0
1701634087.3037634,0.0,-2.0,-3.0,-1.0,-3.0,-2.0,0.0,19.0
1701634087.3037634,-5.0,-3.0,-4.0,-2.0,-2.0,-2.0,-2.0,12.0
1701634087.3047645,1.0,2.0,1.0,0.0,0.0,0.0,-2.0,5.0
1701634087.3047645,18.0,3.0,5.0,2.0,1.0,3.0,4.0,14.0
1701634087.350367,5.0,-2.0,-5.0,-1.0,-1.0,-1.0,-2.0,7.0
1701634087.350367,-20.0,-1.0,2.0,1.0,1.0,-1.0,5.0,23.0
1701634087.350367,45.0,0.0,-2.0,0.0,0.0,-1.0,1.0,-38.0
1701634087.350367,-7.0,3.0,5.0,4.0,4.0,9.0,9.0,7.0
1701634087.350367,20.0,1.0,-3.0,-4.0,-5.0,-5.0,-8.0,-2.0
1701634087.3513658,-6.0,-4.0,-1.0,0.0,-1.0,-1.0,-1.0,4.0
1701634087.3513658,5.0,-3.0,0.0,0.0,-1.0,0.0,0.0,3.0
1701634087.3513658,-43.0,-4.0,-3.0,-3.0,-3.0,-4.0,4.0,8.0
1701634087.3513658,-5.0,2.0,0.0,-1.0,0.0,1.0,-3.0,-1.0
1701634087.3614447,18.0,3.0,-1.0,0.0,0.0,-1.0,3.0,7.0
1701634087.362276,-18.0,-6.0,-9.0,-5.0,-3.0,0.0,-3.0,4.0
1701634087.362276,4.0,-5.0,-4.0,-2.0,-1.0,-1.0,1.0,0.0
1701634087.422466,-7.0,-2.0,4.0,2.0,1.0,0.0,2.0,-3.0
1701634087.422466,0.0,-3.0,-3.0,-5.0,-5.0,-2.0,1.0,25.0
1701634087.422466,-19.0,-8.0,-5.0,-1.0,0.0,2.0,2.0,0.0
1701634087.422466,1.0,-5.0,-6.0,-5.0,-4.0,-3.0,-2.0,-39.0
1701634087.4254696,12.0,4.0,2.0,1.0,2.0,0.0,1.0,-4.0
1701634087.4254696,-1.0,1.0,5.0,2.0,0.0,0.0,-7.0,-20.0
1701634087.4254696,7.0,0.0,1.0,0.0,0.0,1.0,-1.0,-1.0
1701634087.4254696,22.0,-8.0,-8.0,-2.0,-1.0,2.0,2.0,14.0
1701634087.4254696,-17.0,-2.0,-2.0,-1.0,-2.0,-4.0,0.0,29.0
1701634087.426468,16.0,0.0,-1.0,0.0,0.0,0.0,-4.0,-34.0
1701634087.426468,-1.0,4.0,-1.0,0.0,-1.0,1.0,1.0,6.0
1701634087.426468,14.0,0.0,-1.0,-5.0,-1.0,0.0,-2.0,13.0
1701634087.483526,-1.0,2.0,0.0,-3.0,-2.0,-2.0,-4.0,-4.0
1701634087.483526,-12.0,-6.0,-7.0,-6.0,-2.0,-2.0,-1.0,-2.0
1701634087.483526,-5.0,3.0,1.0,1.0,-1.0,-6.0,-7.0,3.0
1701634087.483526,7.0,0.0,0.0,-1.0,-1.0,3.0,1.0,1.0
1701634087.483526,-5.0,0.0,0.0,0.0,-1.0,-4.0,-9.0,-17.0
1701634087.483526,-15.0,-2.0,-2.0,0.0,1.0,2.0,4.0,6.0
1701634087.483526,6.0,1.0,2.0,1.0,0.0,-1.0,-1.0,-13.0
1701634087.483526,4.0,-2.0,-3.0,-1.0,-4.0,-5.0,-6.0,8.0
1701634087.4846263,-67.0,-5.0,1.0,-2.0,-2.0,0.0,-3.0,-24.0
1701634087.4846263,13.0,8.0,8.0,4.0,1.0,-1.0,1.0,-2.0
1701634087.4900646,-8.0,-11.0,-11.0,-7.0,-2.0,-4.0,-2.0,5.0
1701634087.4900646,7.0,1.0,1.0,0.0,-2.0,3.0,4.0,12.0
1701634087.5014544,25.0,2.0,0.0,-1.0,-2.0,0.0,5.0,11.0
1701634087.5014544,-3.0,3.0,3.0,1.0,-2.0,-2.0,-8.0,-42.0
1701634087.5053108,-9.0,-1.0,2.0,0.0,-2.0,0.0,-3.0,-19.0
1701634087.5053108,-1.0,-2.0,-2.0,-1.0,-1.0,-2.0,-3.0,3.0
1701634087.563477,7.0,-6.0,-6.0,-1.0,-2.0,-2.0,-3.0,-9.0
1701634087.563477,-15.0,0.0,1.0,2.0,-1.0,-1.0,-3.0,-14.0
1701634087.563477,6.0,-1.0,1.0,0.0,0.0,2.0,3.0,0.0
1701634087.563477,-8.0,-3.0,-2.0,-3.0,-3.0,-4.0,-3.0,13.0
1701634087.563477,0.0,14.0,8.0,2.0,1.0,2.0,1.0,-3.0
1701634087.563477,-30.0,-25.0,-12.0,-6.0,-2.0,-3.0,-1.0,10.0
1701634087.563477,-2.0,-2.0,1.0,-3.0,-2.0,1.0,3.0,-8.0
1701634087.5648315,-4.0,2.0,1.0,2.0,2.0,0.0,-3.0,7.0
1701634087.5969837,7.0,3.0,-2.0,-1.0,1.0,0.0,7.0,5.0
1701634087.5969837,-12.0,3.0,1.0,1.0,0.0,4.0,2.0,-2.0
1701634087.5969837,-3.0,-2.0,0.0,-1.0,-1.0,0.0,-6.0,7.0
1701634087.597983,-33.0,-4.0,0.0,-2.0,-2.0,-1.0,-3.0,-17.0
1701634087.597983,11.0,2.0,-1.0,-1.0,-1.0,-2.0,0.0,-4.0
1701634087.597983,0.0,-7.0,1.0,-1.0,-3.0,0.0,1.0,1.0
1701634087.597983,0.0,0.0,-2.0,-1.0,0.0,-1.0,-5.0,2.0
1701634087.597983,4.0,0.0,-2.0,-1.0,-1.0,-2.0,1.0,-4.0
1701634087.597983,0.0,-3.0,-2.0,-1.0,-1.0,-1.0,-2.0,-5.0
1701634087.597983,8.0,3.0,-2.0,-1.0,-1.0,-3.0,0.0,11.0
1701634087.6022139,-11.0,1.0,1.0,-1.0,-1.0,0.0,1.0,-5.0
1701634087.6022139,6.0,-3.0,-3.0,-2.0,-1.0,-3.0,-5.0,-2.0
1701634087.6385677,4.0,0.0,1.0,1.0,-1.0,0.0,3.0,6.0
1701634087.6385677,6.0,0.0,-3.0,-4.0,-2.0,-2.0,-11.0,-3.0
1701634087.6395676,6.0,-2.0,-3.0,-2.0,0.0,-2.0,1.0,5.0
1701634087.6395676,-2.0,3.0,3.0,2.0,0.0,1.0,0.0,-3.0
1701634087.6395676,-2.0,-4.0,-4.0,-3.0,0.0,1.0,0.0,0.0
1701634087.6395676,3.0,5.0,-1.0,-1.0,-2.0,1.0,0.0,2.0
1701634087.6395676,-4.0,-2.0,-2.0,-1.0,0.0,-1.0,2.0,0.0
1701634087.6395676,2.0,-1.0,-1.0,-1.0,0.0,0.0,3.0,2.0
1701634087.657771,3.0,-4.0,1.0,0.0,-2.0,-3.0,-12.0,-12.0
1701634087.657771,5.0,-1.0,0.0,1.0,0.0,2.0,3.0,12.0
1701634087.6622298,9.0,4.0,1.0,-2.0,-1.0,0.0,-1.0,-5.0
1701634087.6622298,-4.0,-11.0,-9.0,-2.0,-3.0,-3.0,-3.0,-30.0
1701634087.7045722,3.0,-5.0,-4.0,-1.0,-1.0,-1.0,-1.0,4.0
1701634087.7045722,-4.0,-1.0,-1.0,-1.0,0.0,-2.0,0.0,-3.0
1701634087.7045722,-4.0,-2.0,1.0,-2.0,-1.0,-2.0,0.0,3.0
1701634087.7045722,1.0,0.0,2.0,-1.0,-1.0,0.0,5.0,32.0
1701634087.7045722,2.0,4.0,1.0,-1.0,-1.0,-1.0,-2.0,-8.0
1701634087.7045722,0.0,-5.0,-2.0,-1.0,-2.0,-2.0,0.0,-6.0
1701634087.70528,-22.0,-7.0,-4.0,-1.0,1.0,0.0,0.0,0.0
1701634087.70528,-2.0,3.0,-4.0,0.0,-2.0,-1.0,-2.0,-4.0
1701634087.7178369,-4.0,-1.0,-3.0,-1.0,0.0,-1.0,0.0,-3.0
1701634087.7178369,-3.0,1.0,0.0,0.0,-2.0,2.0,4.0,4.0
1701634087.722693,5.0,1.0,-2.0,1.0,-1.0,-2.0,1.0,0.0
1701634087.722693,1.0,-5.0,0.0,0.0,-2.0,-2.0,-4.0,0.0
1701634087.7700188,-19.0,-2.0,-1.0,-3.0,-2.0,-1.0,2.0,-7.0
1701634087.7700188,9.0,5.0,0.0,1.0,-1.0,-2.0,-1.0,-5.0
1701634087.7700188,-16.0,-4.0,-1.0,-1.0,-1.0,-1.0,-1.0,0.0
1701634087.7700188,-7.0,1.0,1.0,-1.0,-1.0,-1.0,0.0,3.0
1701634087.7700188,5.0,-2.0,1.0,2.0,0.0,-4.0,-1.0,10.0
1701634087.7700188,0.0,0.0,-1.0,-2.0,-2.0,-2.0,-3.0,-8.0
1701634087.7700188,-2.0,3.0,-1.0,-1.0,-3.0,-2.0,-1.0,4.0
1701634087.7700188,4.0,1.0,-1.0,-1.0,1.0,-1.0,1.0,-28.0
1701634087.781298,12.0,0.0,0.0,-1.0,0.0,0.0,-1.0,3.0
1701634087.781298,-2.0,-4.0,-3.0,-2.0,-2.0,-5.0,-9.0,7.0
1701634087.7830439,1.0,1.0,-1.0,1.0,-1.0,1.0,-1.0,-6.0
1701634087.7830439,0.0,-2.0,0.0,0.0,-2.0,-2.0,-2.0,4.0
1701634087.8414226,5.0,-1.0,0.0,-2.0,-1.0,-2.0,0.0,2.0
1701634087.8414226,2.0,3.0,2.0,-2.0,1.0,-1.0,0.0,-10.0
1701634087.8414226,2.0,-2.0,-1.0,-2.0,-1.0,-1.0,2.0,6.0
1701634087.8414226,1.0,0.0,-1.0,-2.0,-1.0,-2.0,-8.0,3.0
1701634087.8414226,-1.0,0.0,-1.0,-2.0,-2.0,1.0,0.0,-3.0
1701634087.8414226,-6.0,-2.0,1.0,-1.0,-1.0,-2.0,-8.0,0.0
1701634087.8414226,4.0,-2.0,-3.0,-1.0,0.0,-5.0,0.0,0.0
1701634087.8414226,-15.0,0.0,-1.0,-2.0,-2.0,1.0,2.0,-5.0
1701634087.88375,-3.0,-1.0,-2.0,-2.0,-1.0,-1.0,-2.0,-4.0
1701634087.88375,-3.0,-2.0,-1.0,1.0,-1.0,2.0,14.0,5.0
1701634087.88375,16.0,1.0,-1.0,-3.0,-2.0,-4.0,-18.0,-13.0
1701634087.88375,3.0,-1.0,-1.0,0.0,0.0,-1.0,-3.0,2.0
1701634087.88375,-3.0,-1.0,-2.0,-2.0,0.0,-1.0,-7.0,-4.0
1701634087.88375,1.0,1.0,0.0,-1.0,0.0,1.0,2.0,4.0
1701634087.884747,0.0,-1.0,0.0,0.0,1.0,1.0,8.0,5.0
1701634087.884747,2.0,0.0,-1.0,-2.0,-1.0,-1.0,2.0,5.0
1701634087.8868885,0.0,-1.0,-2.0,-2.0,-2.0,2.0,2.0,0.0
1701634087.8868885,8.0,-1.0,-2.0,1.0,0.0,2.0,-6.0,-5.0
1701634087.892978,-2.0,-2.0,-2.0,-1.0,-1.0,0.0,-5.0,-3.0
1701634087.892978,2.0,0.0,-2.0,-1.0,-1.0,0.0,-2.0,-4.0
1701634087.9294124,0.0,-2.0,0.0,1.0,-1.0,1.0,9.0,16.0
1701634087.9304123,1.0,1.0,-2.0,-2.0,-1.0,0.0,-2.0,-9.0
1701634087.9304123,-4.0,0.0,0.0,-1.0,-2.0,0.0,-12.0,-8.0
1701634087.9304123,9.0,-4.0,-1.0,0.0,0.0,-2.0,2.0,21.0
1701634087.9304123,-3.0,1.0,0.0,0.0,-2.0,0.0,-4.0,-17.0
1701634087.9304123,-3.0,-1.0,-3.0,0.0,0.0,-1.0,7.0,7.0
1701634087.9304123,-1.0,0.0,-1.0,-1.0,2.0,2.0,6.0,5.0
1701634087.9304123,14.0,3.0,0.0,-2.0,-3.0,-3.0,-7.0,4.0
1701634087.976351,-14.0,-5.0,-5.0,0.0,-2.0,-3.0,0.0,15.0
1701634087.976351,4.0,1.0,2.0,-1.0,0.0,2.0,6.0,9.0
1701634087.976351,1.0,-1.0,-1.0,-2.0,0.0,1.0,15.0,7.0
1701634087.976351,-8.0,-2.0,0.0,-2.0,-2.0,-3.0,-18.0,-27.0
1701634087.976351,2.0,0.0,0.0,1.0,-1.0,-1.0,-1.0,0.0
1701634087.976351,3.0,-1.0,-4.0,0.0,-4.0,-2.0,-11.0,-5.0
1701634087.976351,-3.0,-2.0,-2.0,0.0,-2.0,0.0,5.0,7.0
1701634087.976351,-7.0,-4.0,-2.0,-2.0,0.0,3.0,10.0,9.0
1701634087.9834104,4.0,-1.0,0.0,-3.0,-1.0,-1.0,-2.0,-5.0
1701634087.9834104,-6.0,-2.0,0.0,-1.0,1.0,-3.0,-1.0,-7.0
1701634087.9854457,0.0,1.0,1.0,-4.0,-3.0,-1.0,-4.0,-4.0
1701634087.9854457,-5.0,-3.0,-2.0,-1.0,0.0,-3.0,-1.0,-2.0
1701634088.0379071,1.0,1.0,-1.0,-4.0,-2.0,-5.0,-7.0,-20.0
1701634088.0379071,-7.0,-2.0,0.0,-2.0,0.0,-3.0,-5.0,-16.0
1701634088.0379071,-2.0,-1.0,-2.0,-2.0,0.0,-2.0,-1.0,2.0
1701634088.0379071,-10.0,0.0,0.0,1.0,-1.0,-1.0,-1.0,-5.0
1701634088.0379071,0.0,-8.0,0.0,0.0,1.0,-2.0,0.0,3.0
1701634088.0379071,0.0,1.0,0.0,-2.0,1.0,-1.0,-1.0,7.0
1701634088.0379071,-1.0,-1.0,0.0,2.0,-2.0,-3.0,-4.0,-7.0
1701634088.0379071,1.0,-1.0,9.0,2.0,1.0,1.0,4.0,3.0
1701634088.0440567,1.0,0.0,-1.0,-2.0,0.0,2.0,-2.0,1.0
1701634088.0440567,2.0,-1.0,1.0,-2.0,-2.0,1.0,-1.0,0.0
1701634088.0443752,-6.0,-1.0,2.0,0.0,2.0,2.0,-1.0,-4.0
1701634088.0443752,1.0,1.0,-5.0,-3.0,0.0,-1.0,2.0,0.0
1701634088.0924969,-2.0,0.0,-5.0,0.0,-4.0,-1.0,-1.0,-2.0
1701634088.0924969,-2.0,-3.0,0.0,-1.0,-1.0,1.0,-2.0,-4.0
1701634088.0924969,-2.0,-1.0,-3.0,-3.0,-4.0,0.0,0.0,0.0
1701634088.0924969,1.0,-1.0,-1.0,0.0,-2.0,-1.0,1.0,1.0
1701634088.0924969,0.0,0.0,-4.0,-2.0,0.0,-1.0,-2.0,-2.0
1701634088.0924969,-7.0,-1.0,-4.0,-1.0,-2.0,-1.0,-2.0,-3.0
1701634088.0924969,-1.0,-1.0,-1.0,-1.0,-1.0,-1.0,-2.0,0.0
1701634088.0924969,-1.0,-2.0,-1.0,-2.0,-2.0,-1.0,0.0,-3.0
1701634088.1037788,-2.0,-1.0,-2.0,-1.0,-2.0,0.0,-2.0,-2.0
1701634088.1037788,-1.0,-1.0,-1.0,-2.0,-1.0,-1.0,-1.0,0.0
1701634088.1051662,-1.0,-2.0,9.0,1.0,-1.0,-2.0,0.0,0.0
1701634088.1051662,0.0,-2.0,-9.0,-4.0,0.0,0.0,-2.0,-3.0
1701634088.1574936,-1.0,0.0,-3.0,1.0,2.0,-2.0,-1.0,1.0
1701634088.1574936,2.0,0.0,2.0,0.0,1.0,-1.0,1.0,3.0
1701634088.1574936,-1.0,-1.0,-21.0,-1.0,1.0,0.0,-1.0,-3.0
1701634088.1574936,-4.0,2.0,12.0,-9.0,-6.0,-2.0,2.0,15.0
1701634088.1574936,-6.0,-2.0,4.0,0.0,0.0,-3.0,-3.0,-13.0
1701634088.1574936,15.0,3.0,6.0,2.0,0.0,-2.0,-1.0,-4.0
1701634088.158491,-19.0,-9.0,-8.0,-8.0,-4.0,-3.0,4.0,43.0
1701634088.158491,2.0,4.0,1.0,4.0,1.0,0.0,-6.0,-20.0
1701634088.1925032,-3.0,-5.0,-11.0,-5.0,-2.0,-3.0,3.0,15.0
1701634088.1925032,2.0,-2.0,0.0,0.0,-2.0,-2.0,-8.0,-32.0
1701634088.1925032,-11.0,0.0,2.0,1.0,-1.0,-1.0,-2.0,-12.0
1701634088.1925032,-3.0,-4.0,-6.0,-1.0,-2.0,-2.0,0.0,3.0
1701634088.1925032,2.0,2.0,12.0,0.0,0.0,1.0,-2.0,14.0
1701634088.1925032,5.0,-7.0,-7.0,-4.0,-4.0,-4.0,-8.0,-28.0
1701634088.1925032,2.0,0.0,2.0,0.0,-2.0,-1.0,-5.0,-21.0
1701634088.1925032,-40.0,-5.0,0.0,-1.0,0.0,-2.0,-3.0,-3.0
1701634088.1942756,1.0,0.0,-5.0,1.0,-2.0,-1.0,1.0,-11.0
1701634088.1942756,-2.0,-1.0,-6.0,-2.0,-1.0,0.0,9.0,54.0
1701634088.2069683,9.0,2.0,3.0,-1.0,-1.0,-2.0,-8.0,-37.0
1701634088.2069683,6.0,-5.0,-3.0,-1.0,-1.0,0.0,-3.0,-14.0
1701634088.2589712,-2.0,-4.0,-3.0,-2.0,-2.0,1.0,-1.0,-5.0
1701634088.2589712,-9.0,4.0,-2.0,0.0,0.0,1.0,4.0,26.0
1701634088.2599711,-2.0,-6.0,2.0,-3.0,-4.0,-3.0,-8.0,-35.0
1701634088.2599711,2.0,6.0,-1.0,1.0,0.0,1.0,0.0,3.0
1701634088.2599711,4.0,-8.0,1.0,1.0,0.0,1.0,0.0,1.0
1701634088.2599711,-2.0,1.0,1.0,-3.0,-1.0,-1.0,-3.0,-15.0
1701634088.2599711,9.0,10.0,-2.0,1.0,0.0,1.0,2.0,19.0
1701634088.2599711,7.0,8.0,-2.0,-3.0,-2.0,-1.0,-3.0,-12.0
1701634088.2599711,-8.0,-30.0,-9.0,-3.0,-2.0,-2.0,-3.0,-7.0
1701634088.2599711,-9.0,-5.0,-1.0,0.0,1.0,1.0,1.0,2.0
1701634088.2720046,3.0,2.0,-1.0,2.0,0.0,0.0,0.0,10.0
1701634088.2720046,3.0,8.0,1.0,2.0,1.0,1.0,2.0,8.0
1701634088.3247824,3.0,12.0,3.0,-2.0,-3.0,-1.0,-2.0,-9.0
1701634088.3247824,-1.0,-2.0,-3.0,0.0,-1.0,0.0,0.0,3.0
1701634088.325782,-7.0,-1.0,-1.0,-2.0,-1.0,-2.0,2.0,14.0
1701634088.325782,29.0,-5.0,-1.0,2.0,-1.0,2.0,1.0,-2.0
1701634088.325782,-10.0,7.0,0.0,0.0,0.0,0.0,-6.0,-29.0
1701634088.325782,-3.0,-6.0,-4.0,-3.0,-3.0,-3.0,-1.0,-1.0
1701634088.325782,6.0,0.0,0.0,0.0,-2.0,-1.0,2.0,11.0
1701634088.325782,-11.0,-7.0,-1.0,-1.0,-2.0,-3.0,0.0,-3.0
1701634088.3261938,-28.0,1.0,-1.0,-2.0,-1.0,-2.0,1.0,24.0
1701634088.3261938,-5.0,0.0,0.0,-2.0,0.0,0.0,-9.0,-47.0
1701634088.3272524,8.0,4.0,4.0,0.0,-1.0,-5.0,-1.0,18.0
1701634088.3272524,33.0,-5.0,-11.0,-4.0,1.0,7.0,14.0,19.0
1701634088.3860223,-3.0,4.0,2.0,0.0,0.0,-4.0,1.0,27.0
1701634088.3860223,-3.0,-5.0,-4.0,-4.0,-3.0,-7.0,-6.0,4.0
1701634088.3860223,19.0,4.0,3.0,0.0,1.0,-4.0,-1.0,13.0
1701634088.3860223,14.0,-1.0,1.0,-1.0,-2.0,-6.0,-9.0,-18.0
1701634088.3952909,-16.0,2.0,-2.0,-2.0,-2.0,-1.0,-1.0,-20.0
1701634088.3952909,25.0,3.0,-1.0,-1.0,-1.0,-2.0,3.0,5.0
1701634088.3952909,-18.0,-3.0,4.0,0.0,0.0,-3.0,-1.0,-11.0
1701634088.3952909,-29.0,-17.0,-1.0,-1.0,1.0,-5.0,9.0,11.0
1701634088.3952909,32.0,0.0,-3.0,-6.0,0.0,-3.0,-24.0,-32.0
1701634088.3952909,-24.0,-3.0,-2.0,-3.0,-1.0,1.0,2.0,-5.0
1701634088.4290287,11.0,7.0,2.0,0.0,0.0,3.0,-1.0,-3.0
1701634088.4290287,-8.0,16.0,4.0,-2.0,-1.0,0.0,4.0,31.0
1701634088.4290287,-17.0,-14.0,-1.0,0.0,-1.0,-4.0,0.0,-21.0
1701634088.4290287,-4.0,-12.0,0.0,-2.0,-2.0,0.0,2.0,6.0
1701634088.4290287,-5.0,-9.0,-7.0,-4.0,-4.0,0.0,-5.0,-18.0
1701634088.4290287,-5.0,1.0,-3.0,-2.0,-3.0,-5.0,-22.0,-6.0
1701634088.4290287,25.0,24.0,6.0,3.0,1.0,6.0,21.0,19.0
1701634088.4290287,0.0,-26.0,-14.0,-5.0,-3.0,-5.0,-8.0,22.0
1701634088.4290287,-15.0,4.0,-2.0,1.0,1.0,6.0,8.0,0.0
1701634088.4290287,-8.0,2.0,0.0,1.0,-2.0,-3.0,-6.0,7.0
1701634088.4405358,-14.0,-5.0,1.0,2.0,-1.0,-1.0,-12.0,-28.0
1701634088.4405358,-24.0,12.0,5.0,1.0,1.0,3.0,3.0,-21.0
1701634088.4734678,4.0,-1.0,-1.0,0.0,-2.0,1.0,5.0,35.0
1701634088.4734678,-9.0,-11.0,-5.0,-1.0,-1.0,1.0,-9.0,-33.0
1701634088.4734678,23.0,23.0,8.0,4.0,0.0,-1.0,2.0,16.0
1701634088.4734678,-5.0,3.0,4.0,3.0,1.0,4.0,5.0,-24.0
1701634088.4734678,-30.0,-26.0,-13.0,-6.0,-3.0,-5.0,-9.0,-7.0
1701634088.4734678,31.0,4.0,5.0,4.0,1.0,3.0,10.0,15.0
1701634088.484601,-4.0,-5.0,-5.0,-1.0,-2.0,0.0,14.0,34.0
1701634088.484601,4.0,7.0,3.0,3.0,2.0,-3.0,-19.0,-44.0
1701634088.4871914,-15.0,22.0,8.0,2.0,-1.0,0.0,7.0,33.0
1701634088.4871914,-4.0,-35.0,-12.0,-5.0,-4.0,0.0,-4.0,-24.0
1701634088.4982767,10.0,2.0,4.0,3.0,0.0,0.0,1.0,15.0
1701634088.4999769,-12.0,8.0,-3.0,-2.0,-4.0,-4.0,1.0,-6.0
1701634088.5391166,18.0,-22.0,-4.0,0.0,0.0,-1.0,-1.0,4.0
1701634088.5391166,-36.0,4.0,-2.0,-1.0,-1.0,-3.0,1.0,-14.0
1701634088.5422778,22.0,-4.0,-6.0,-4.0,-4.0,-6.0,-3.0,-27.0
1701634088.5422778,9.0,-1.0,4.0,2.0,2.0,-2.0,1.0,19.0
1701634088.5422778,-2.0,17.0,5.0,1.0,1.0,-2.0,-4.0,-27.0
1701634088.5422778,-6.0,-21.0,-5.0,-4.0,-3.0,-4.0,3.0,11.0
1701634088.543756,2.0,7.0,6.0,-2.0,0.0,-2.0,0.0,1.0
1701634088.543756,-6.0,-13.0,-1.0,-3.0,0.0,-4.0,-3.0,-41.0
1701634088.5477645,5.0,-12.0,-8.0,-4.0,0.0,-6.0,-13.0,-19.0
1701634088.5477645,32.0,33.0,12.0,3.0,3.0,0.0,1.0,12.0
1701634088.559065,-13.0,-22.0,-7.0,-5.0,-3.0,1.0,-2.0,16.0
1701634088.560278,-4.0,-8.0,-4.0,-1.0,0.0,3.0,7.0,18.0
1701634088.6075284,-13.0,-7.0,-2.0,-1.0,-1.0,2.0,8.0,-5.0
1701634088.6085308,3.0,-3.0,0.0,1.0,-2.0,2.0,-9.0,-15.0
1701634088.6085308,-7.0,2.0,-6.0,-1.0,-3.0,0.0,4.0,1.0
1701634088.6085308,1.0,16.0,0.0,-4.0,-2.0,1.0,-4.0,20.0
1701634088.6085308,14.0,-19.0,-4.0,1.0,-2.0,0.0,-8.0,-29.0
1701634088.6085308,-39.0,0.0,2.0,0.0,-2.0,-1.0,1.0,11.0
1701634088.6085308,2.0,8.0,-4.0,-1.0,-1.0,-1.0,-1.0,-1.0
1701634088.6085308,-1.0,-24.0,-8.0,-3.0,-3.0,-3.0,0.0,22.0
1701634088.6095743,27.0,14.0,4.0,1.0,-1.0,-1.0,6.0,28.0
1701634088.6119363,1.0,2.0,-6.0,-4.0,1.0,0.0,2.0,-41.0
1701634088.6498864,-10.0,-2.0,3.0,2.0,2.0,1.0,-5.0,0.0
1701634088.6498864,14.0,4.0,-4.0,-2.0,-4.0,-4.0,-5.0,6.0
1701634088.6498864,-8.0,-2.0,2.0,0.0,1.0,0.0,-2.0,2.0
1701634088.6498864,-22.0,3.0,0.0,-1.0,-1.0,-2.0,-4.0,1.0
1701634088.6498864,12.0,-9.0,-4.0,-2.0,-1.0,-2.0,-4.0,-6.0
1701634088.6498864,5.0,11.0,1.0,0.0,-1.0,0.0,-5.0,15.0
1701634088.6498864,-63.0,-9.0,-1.0,0.0,0.0,0.0,5.0,-18.0
1701634088.6498864,5.0,11.0,-1.0,-2.0,-4.0,-3.0,-3.0,11.0
1701634088.6623068,1.0,-27.0,-8.0,-2.0,3.0,2.0,8.0,4.0
1701634088.6623068,13.0,12.0,5.0,1.0,0.0,1.0,6.0,46.0
1701634088.6672723,0.0,-8.0,-5.0,-3.0,-1.0,-3.0,-19.0,-71.0
1701634088.6672723,13.0,9.0,5.0,2.0,-2.0,1.0,3.0,1.0
1701634088.7020903,-20.0,1.0,-2.0,-3.0,-4.0,-6.0,-12.0,-12.0
1701634088.7020903,-5.0,4.0,1.0,-1.0,-4.0,1.0,8.0,1.0
1701634088.7020903,-1.0,13.0,2.0,-5.0,-4.0,-1.0,12.0,7.0
1701634088.7020903,6.0,-14.0,-5.0,0.0,0.0,-1.0,-12.0,-18.0
1701634088.7034605,8.0,-9.0,-7.0,-8.0,-3.0,-1.0,5.0,16.0
1701634088.7034605,-19.0,-1.0,2.0,1.0,0.0,-2.0,-8.0,-24.0
1701634088.7046971,16.0,15.0,4.0,-1.0,-1.0,-5.0,-4.0,19.0
1701634088.7046971,-16.0,-16.0,2.0,2.0,2.0,-3.0,1.0,-6.0
1701634088.7257826,10.0,9.0,5.0,1.0,1.0,0.0,4.0,19.0
1701634088.7257826,-11.0,4.0,2.0,1.0,2.0,0.0,5.0,12.0
1701634088.72793,19.0,-12.0,-1.0,-1.0,-1.0,1.0,-4.0,-29.0
1701634088.72793,-46.0,0.0,-3.0,-5.0,-2.0,-4.0,-3.0,40.0
1701634088.7760527,11.0,4.0,2.0,2.0,0.0,3.0,0.0,-17.0
1701634088.7760527,-4.0,-6.0,-5.0,-4.0,-2.0,-5.0,0.0,13.0
1701634088.7760527,-2.0,0.0,1.0,0.0,-2.0,1.0,-7.0,6.0
1701634088.7760527,-2.0,-3.0,-4.0,-2.0,0.0,1.0,7.0,-2.0
1701634088.7760527,-2.0,2.0,-1.0,-2.0,-2.0,-4.0,-8.0,3.0
1701634088.7760527,7.0,-16.0,-3.0,0.0,-1.0,2.0,1.0,-6.0
1701634088.7770517,13.0,1.0,-1.0,0.0,-2.0,1.0,1.0,17.0
1701634088.7770517,11.0,7.0,2.0,0.0,-2.0,-2.0,-4.0,-10.0
1701634088.8189437,-13.0,-6.0,-2.0,0.0,-2.0,1.0,4.0,10.0
1701634088.8189437,43.0,11.0,-1.0,-1.0,-1.0,1.0,-4.0,-18.0
1701634088.8199437,-3.0,-17.0,-7.0,-3.0,0.0,-1.0,0.0,8.0
1701634088.8199437,12.0,-3.0,-6.0,-4.0,-5.0,-2.0,0.0,-14.0
1701634088.8199437,-3.0,6.0,2.0,3.0,0.0,-1.0,2.0,-5.0
1701634088.8199437,-6.0,9.0,-1.0,0.0,-1.0,-2.0,-6.0,-2.0
1701634088.8199437,2.0,0.0,1.0,0.0,0.0,0.0,3.0,2.0
1701634088.8199437,15.0,-15.0,-5.0,-4.0,-3.0,-2.0,-1.0,12.0
1701634088.8199437,-9.0,-8.0,-2.0,-1.0,-3.0,-1.0,1.0,-8.0
1701634088.8199437,15.0,-1.0,-1.0,0.0,-1.0,-2.0,-2.0,-12.0
1701634088.8251915,-10.0,10.0,-3.0,-3.0,0.0,-2.0,2.0,18.0
1701634088.8251915,-3.0,6.0,4.0,1.0,2.0,1.0,3.0,-3.0
1701634088.881482,-10.0,-19.0,-4.0,-1.0,-2.0,-3.0,-3.0,-7.0
1701634088.881482,3.0,-3.0,1.0,0.0,-1.0,-1.0,2.0,4.0
1701634088.881482,-8.0,4.0,1.0,1.0,-1.0,-3.0,-4.0,15.0
1701634088.881482,14.0,2.0,2.0,-1.0,1.0,-1.0,4.0,-10.0
1701634088.881482,-10.0,9.0,2.0,0.0,0.0,-5.0,-15.0,-26.0
1701634088.881482,9.0,1.0,-2.0,-2.0,-1.0,-1.0,3.0,4.0
1701634088.881482,-3.0,-11.0,-2.0,-2.0,-1.0,-4.0,-1.0,-2.0
1701634088.881482,-33.0,-3.0,0.0,-1.0,1.0,-2.0,-4.0,-8.0
1701634088.8830903,-53.0,1.0,1.0,-5.0,-5.0,-5.0,2.0,-9.0
1701634088.8840744,-26.0,-4.0,1.0,-2.0,1.0,-2.0,0.0,-12.0
1701634088.8852298,19.0,8.0,0.0,-1.0,0.0,0.0,-1.0,9.0
1701634088.8852298,3.0,0.0,-1.0,0.0,1.0,0.0,0.0,-1.0
1701634088.9392292,5.0,1.0,1.0,-1.0,0.0,-6.0,1.0,7.0
1701634088.9392292,-10.0,-6.0,-3.0,1.0,1.0,1.0,-3.0,-1.0
1701634088.9392292,-3.0,0.0,-2.0,-3.0,-2.0,-5.0,3.0,5.0
1701634088.9392292,-2.0,3.0,1.0,-1.0,-1.0,-4.0,-7.0,7.0
1701634088.9392292,12.0,-2.0,0.0,-3.0,1.0,0.0,0.0,10.0
1701634088.9392292,-14.0,2.0,4.0,-1.0,-1.0,-2.0,-4.0,-2.0
1701634088.9392292,25.0,4.0,1.0,2.0,1.0,3.0,2.0,-23.0
1701634088.9392292,1.0,-5.0,-1.0,0.0,0.0,2.0,9.0,23.0
1701634088.940316,-4.0,1.0,0.0,0.0,0.0,1.0,-5.0,-10.0
1701634088.940316,8.0,-1.0,-1.0,-1.0,-2.0,-2.0,1.0,4.0
1701634088.9450316,-16.0,-6.0,-3.0,-1.0,-2.0,-4.0,-12.0,-11.0
1701634088.9450316,11.0,5.0,3.0,1.0,-2.0,2.0,2.0,6.0
1701634088.9982302,13.0,-1.0,-3.0,-1.0,-1.0,1.0,1.0,-1.0
1701634088.9982302,0.0,-6.0,-2.0,0.0,0.0,0.0,-1.0,3.0
1701634088.9982302,-21.0,-1.0,0.0,-1.0,-1.0,0.0,1.0,-11.0
1701634088.9982302,11.0,-3.0,-1.0,-1.0,-1.0,-1.0,-1.0,-9.0
1701634088.9982302,16.0,8.0,-1.0,1.0,0.0,-1.0,-8.0,11.0
1701634088.9982302,-3.0,-14.0,-5.0,-3.0,-3.0,-2.0,1.0,12.0
1701634088.9982302,1.0,6.0,1.0,0.0,-1.0,1.0,-4.0,-21.0
1701634088.9982302,-17.0,-14.0,-6.0,-2.0,-2.0,-2.0,-5.0,-22.0
1701634089.0033317,0.0,-1.0,-1.0,0.0,1.0,4.0,0.0,2.0
1701634089.0033317,0.0,2.0,-2.0,-1.0,-1.0,-1.0,1.0,2.0
1701634089.0107038,1.0,1.0,-2.0,0.0,-2.0,-2.0,-1.0,-2.0
1701634089.0117052,-2.0,1.0,-2.0,0.0,-3.0,-1.0,7.0,14.0
1701634089.0503144,4.0,-4.0,-1.0,1.0,0.0,0.0,-6.0,-10.0
1701634089.0503144,-4.0,-1.0,-3.0,-2.0,-2.0,-3.0,-9.0,-27.0
1701634089.0513134,1.0,-4.0,-2.0,0.0,0.0,1.0,5.0,17.0
1701634089.0513134,15.0,5.0,-1.0,-1.0,-1.0,3.0,4.0,5.0
1701634089.0513134,-13.0,-1.0,-2.0,-2.0,-4.0,-1.0,-5.0,-4.0
1701634089.0513134,-10.0,0.0,-1.0,-1.0,-1.0,1.0,3.0,0.0
1701634089.0513134,4.0,-4.0,-2.0,1.0,-1.0,2.0,1.0,-9.0
1701634089.0513134,-27.0,-5.0,-1.0,0.0,0.0,-2.0,-2.0,9.0
1701634089.102998,0.0,3.0,0.0,0.0,0.0,-1.0,-7.0,-15.0
1701634089.102998,14.0,0.0,0.0,0.0,-1.0,0.0,2.0,-11.0
1701634089.102998,-13.0,-5.0,-4.0,-2.0,-1.0,0.0,0.0,-4.0
1701634089.102998,5.0,4.0,0.0,0.0,-4.0,0.0,-9.0,8.0
1701634089.102998,20.0,-2.0,-3.0,-1.0,-2.0,-4.0,4.0,-35.0
1701634089.102998,-8.0,2.0,-1.0,0.0,-2.0,-4.0,-8.0,-12.0
1701634089.102998,0.0,-13.0,0.0,0.0,-1.0,-1.0,6.0,10.0
1701634089.102998,2.0,2.0,-1.0,-2.0,-2.0,-4.0,-4.0,-4.0
1701634089.102998,-1.0,2.0,0.0,-1.0,-1.0,0.0,6.0,14.0
1701634089.102998,-4.0,-3.0,-2.0,-2.0,-3.0,-3.0,-1.0,8.0
1701634089.1041024,8.0,1.0,-4.0,-6.0,-3.0,-5.0,-8.0,-7.0
1701634089.1041024,0.0,-2.0,-4.0,-4.0,1.0,-2.0,-6.0,-12.0
1701634089.1260993,-4.0,-4.0,4.0,0.0,0.0,0.0,7.0,48.0
1701634089.1260993,17.0,6.0,-3.0,-3.0,0.0,1.0,2.0,2.0
1701634089.1716151,-3.0,0.0,3.0,-1.0,-2.0,-3.0,-5.0,14.0
1701634089.1716151,1.0,3.0,-1.0,-1.0,-1.0,-2.0,0.0,-13.0
1701634089.1716151,6.0,0.0,0.0,-1.0,-1.0,0.0,-4.0,3.0
1701634089.1716151,6.0,1.0,2.0,1.0,2.0,0.0,2.0,8.0
1701634089.1716151,13.0,1.0,1.0,1.0,1.0,-1.0,0.0,-2.0
1701634089.1716151,6.0,-2.0,-1.0,-1.0,-2.0,-3.0,0.0,4.0
1701634089.1755905,-10.0,-1.0,1.0,1.0,0.0,1.0,3.0,-5.0
1701634089.1755905,-2.0,-1.0,-2.0,-1.0,-2.0,-2.0,0.0,1.0
1701634089.1971602,-4.0,1.0,-2.0,-1.0,-1.0,-1.0,-3.0,-9.0
1701634089.1993573,-5.0,0.0,-1.0,0.0,-1.0,-2.0,-1.0,-4.0
1701634089.215214,-3.0,-2.0,-4.0,-4.0,-1.0,-2.0,-1.0,1.0
1701634089.2162135,-11.0,-5.0,-1.0,-2.0,-1.0,-2.0,-3.0,-7.0
1701634089.2162135,-24.0,-2.0,-2.0,-3.0,-2.0,-1.0,1.0,17.0
1701634089.2162135,3.0,1.0,2.0,0.0,1.0,-2.0,-6.0,-41.0
1701634089.2162135,13.0,-1.0,2.0,-3.0,-1.0,-4.0,-1.0,-5.0
1701634089.2162135,-4.0,-3.0,-2.0,-2.0,-1.0,-2.0,0.0,7.0
1701634089.2162135,0.0,1.0,1.0,-3.0,0.0,-1.0,2.0,3.0
1701634089.2162135,0.0,-4.0,-3.0,-5.0,0.0,-4.0,-5.0,-34.0
1701634089.266841,2.0,5.0,3.0,2.0,1.0,-1.0,-1.0,3.0
1701634089.266841,-27.0,-2.0,-4.0,-3.0,0.0,-2.0,2.0,-10.0
1701634089.266841,-11.0,-4.0,-1.0,-1.0,1.0,-1.0,-5.0,-2.0
1701634089.266841,9.0,5.0,2.0,1.0,-2.0,1.0,6.0,26.0
1701634089.266841,6.0,-1.0,-1.0,0.0,-1.0,-1.0,-4.0,-10.0
1701634089.266841,10.0,-4.0,-1.0,0.0,-1.0,2.0,2.0,8.0
1701634089.266841,0.0,1.0,-3.0,1.0,-1.0,2.0,1.0,-3.0
1701634089.266841,0.0,-8.0,-4.0,0.0,-3.0,3.0,1.0,13.0
1701634089.266841,-19.0,-3.0,-5.0,-1.0,-1.0,1.0,1.0,0.0
1701634089.266841,3.0,2.0,-1.0,2.0,-1.0,1.0,-3.0,-10.0
1701634089.2676156,6.0,2.0,-1.0,-1.0,0.0,1.0,-1.0,-5.0
1701634089.2676156,2.0,1.0,0.0,-1.0,-2.0,1.0,-1.0,6.0
1701634089.32687,1.0,-5.0,-4.0,-3.0,-4.0,-3.0,3.0,6.0
1701634089.32687,-4.0,0.0,-1.0,-4.0,-2.0,-6.0,-3.0,-1.0
1701634089.32687,3.0,-1.0,-1.0,-4.0,-2.0,-9.0,0.0,2.0
1701634089.32687,-3.0,-2.0,0.0,-4.0,1.0,-7.0,-1.0,2.0
1701634089.32687,-6.0,2.0,-1.0,-4.0,1.0,-7.0,-3.0,-6.0
1701634089.32687,-3.0,-2.0,1.0,-3.0,0.0,-4.0,-1.0,2.0
1701634089.32687,2.0,4.0,3.0,-2.0,-1.0,-6.0,-2.0,-5.0
1701634089.32687,-1.0,-3.0,0.0,0.0,1.0,-3.0,-3.0,7.0
1701634089.3325493,-2.0,-2.0,-1.0,-1.0,-2.0,1.0,-2.0,-6.0
1701634089.3325493,4.0,2.0,0.0,2.0,0.0,3.0,-2.0,-1.0
1701634089.3350108,5.0,-4.0,-2.0,2.0,-2.0,5.0,1.0,1.0
1701634089.3350108,0.0,-1.0,-3.0,2.0,-3.0,3.0,-1.0,-1.0
1701634089.3881981,5.0,-3.0,-3.0,1.0,-2.0,3.0,-1.0,1.0
1701634089.3881981,4.0,-3.0,-3.0,3.0,-3.0,5.0,0.0,0.0
1701634089.3891976,0.0,-2.0,-4.0,2.0,-3.0,6.0,1.0,-2.0
1701634089.3891976,0.0,-2.0,-5.0,1.0,-3.0,6.0,1.0,2.0
1701634089.3960202,0.0,0.0,-3.0,1.0,-2.0,4.0,-1.0,-2.0
1701634089.3960202,0.0,-1.0,-2.0,-1.0,-2.0,0.0,-1.0,2.0
1701634089.3960202,1.0,0.0,-3.0,-4.0,-2.0,-2.0,-1.0,0.0
1701634089.3960202,-1.0,1.0,-2.0,-1.0,-2.0,-4.0,0.0,2.0
1701634089.3960202,-4.0,-4.0,-1.0,-2.0,-2.0,-2.0,-1.0,-5.0
1701634089.3970344,-2.0,0.0,-2.0,0.0,-1.0,-3.0,-1.0,0.0
1701634089.3970344,0.0,0.0,-1.0,1.0,0.0,-1.0,0.0,-1.0
1701634089.3970344,3.0,-3.0,-1.0,-1.0,-2.0,-1.0,-2.0,3.0
1701634089.449067,-2.0,1.0,-2.0,-1.0,-2.0,0.0,-3.0,-1.0
1701634089.449067,-10.0,-3.0,-1.0,0.0,-3.0,-1.0,-2.0,-9.0
1701634089.450065,1.0,-1.0,0.0,-2.0,-2.0,-2.0,0.0,2.0
1701634089.450065,0.0,-3.0,1.0,-1.0,0.0,0.0,-1.0,-2.0
1701634089.450065,-4.0,1.0,0.0,0.0,1.0,0.0,1.0,-2.0
1701634089.450065,4.0,0.0,-2.0,-2.0,-1.0,0.0,1.0,2.0
1701634089.450065,0.0,-4.0,3.0,0.0,0.0,1.0,0.0,3.0
1701634089.450065,-7.0,-1.0,-4.0,-1.0,-1.0,-1.0,0.0,5.0
1701634089.450065,5.0,5.0,-4.0,-4.0,-4.0,-4.0,-4.0,-12.0
1701634089.450065,-4.0,-2.0,1.0,-2.0,1.0,-2.0,-6.0,-21.0
1701634089.450065,-7.0,-3.0,-3.0,-3.0,-3.0,-2.0,2.0,3.0
1701634089.450065,1.0,-2.0,4.0,0.0,0.0,-1.0,2.0,7.0
1701634089.4805667,4.0,-1.0,-1.0,0.0,1.0,0.0,-1.0,3.0
1701634089.4805667,6.0,3.0,-2.0,-3.0,-2.0,-6.0,-4.0,-7.0
1701634089.4805667,10.0,-9.0,-2.0,-1.0,-1.0,-1.0,-2.0,7.0
1701634089.4805667,-11.0,2.0,0.0,-2.0,0.0,-2.0,-3.0,-10.0
1701634089.481567,21.0,-3.0,2.0,-1.0,-2.0,-5.0,-5.0,3.0
1701634089.481567,-7.0,-4.0,-1.0,-3.0,-1.0,6.0,8.0,31.0
1701634089.4872503,9.0,3.0,0.0,0.0,1.0,-3.0,-4.0,-1.0
1701634089.4872503,17.0,-1.0,-2.0,0.0,-3.0,-1.0,5.0,-16.0
1701634089.5027587,-5.0,1.0,1.0,0.0,1.0,-2.0,-3.0,-2.0
1701634089.5027587,-26.0,-2.0,-2.0,0.0,-2.0,-3.0,1.0,16.0
1701634089.507084,-14.0,0.0,-1.0,-2.0,-2.0,-5.0,-16.0,-35.0
1701634089.507084,5.0,0.0,-2.0,-3.0,-1.0,0.0,5.0,2.0
1701634089.5421772,-30.0,-6.0,0.0,-3.0,-2.0,-3.0,-4.0,-22.0
1701634089.5421772,-6.0,-4.0,0.0,-1.0,0.0,-2.0,2.0,-2.0
1701634089.5421772,6.0,6.0,2.0,1.0,1.0,5.0,3.0,7.0
1701634089.5421772,-6.0,4.0,-3.0,-3.0,-2.0,-3.0,-2.0,4.0
1701634089.5421772,-1.0,-7.0,1.0,-2.0,-1.0,1.0,6.0,13.0
1701634089.5421772,12.0,1.0,1.0,1.0,0.0,0.0,-4.0,0.0
1701634089.5432813,3.0,0.0,-3.0,-3.0,-4.0,-5.0,1.0,-6.0
1701634089.5432813,-14.0,-1.0,-2.0,-3.0,-1.0,-4.0,-19.0,25.0
1701634089.5632732,18.0,4.0,1.0,0.0,3.0,11.0,29.0,11.0
1701634089.5632732,22.0,0.0,0.0,-3.0,-2.0,-1.0,5.0,27.0
1701634089.567702,-18.0,-3.0,-1.0,-2.0,0.0,-1.0,-8.0,-20.0
1701634089.567702,-15.0,-2.0,1.0,-3.0,-2.0,-1.0,6.0,-21.0
1701634089.611466,1.0,-2.0,-1.0,1.0,2.0,-1.0,-8.0,-3.0
1701634089.611466,-46.0,-5.0,-1.0,0.0,-2.0,0.0,-2.0,-8.0
1701634089.611466,-1.0,-2.0,-4.0,-1.0,-1.0,-3.0,-3.0,18.0
1701634089.611466,7.0,-3.0,-2.0,-1.0,0.0,1.0,8.0,-2.0
1701634089.611466,1.0,0.0,-1.0,-2.0,-2.0,-5.0,-15.0,-5.0
1701634089.611466,0.0,0.0,0.0,-1.0,-1.0,-1.0,-4.0,-15.0
1701634089.611466,19.0,1.0,-1.0,1.0,1.0,-2.0,-5.0,16.0
1701634089.611466,-28.0,0.0,-4.0,-2.0,-2.0,-3.0,-2.0,-10.0
1701634089.6472642,9.0,-3.0,-3.0,-2.0,-3.0,2.0,12.0,6.0
1701634089.6472642,17.0,-5.0,1.0,1.0,1.0,0.0,1.0,22.0
1701634089.6482637,-27.0,-1.0,-1.0,-3.0,-2.0,0.0,-3.0,-48.0
1701634089.6482637,39.0,2.0,0.0,1.0,0.0,-3.0,-9.0,-4.0
1701634089.6514263,1.0,1.0,-4.0,-1.0,0.0,1.0,-2.0,1.0
1701634089.6514263,-11.0,-7.0,1.0,0.0,0.0,-2.0,-1.0,1.0
1701634089.6514263,0.0,2.0,2.0,-1.0,2.0,1.0,-4.0,-5.0
1701634089.6514263,1.0,4.0,-2.0,-2.0,-3.0,-12.0,-7.0,24.0
1701634089.652465,21.0,-2.0,2.0,1.0,0.0,9.0,21.0,2.0
1701634089.6626143,-13.0,1.0,-1.0,-2.0,-2.0,-3.0,-3.0,-49.0
1701634089.6646128,32.0,8.0,-3.0,0.0,-3.0,-2.0,1.0,31.0
1701634089.6646128,8.0,-3.0,-2.0,0.0,0.0,0.0,-3.0,-1.0
1701634089.7041526,-2.0,-2.0,-4.0,1.0,-3.0,-7.0,-14.0,11.0
1701634089.7041526,-2.0,2.0,-1.0,0.0,1.0,-2.0,-4.0,-44.0
1701634089.7041526,18.0,-3.0,1.0,-3.0,-2.0,0.0,7.0,6.0
1701634089.7041526,-15.0,-3.0,0.0,-3.0,-1.0,0.0,-2.0,-7.0
1701634089.7051904,-5.0,1.0,0.0,0.0,-2.0,-7.0,-17.0,19.0
1701634089.7051904,12.0,-3.0,-5.0,-2.0,-1.0,1.0,7.0,1.0
1701634089.7097273,-64.0,-8.0,-5.0,-4.0,-3.0,-5.0,-3.0,0.0
1701634089.7097273,-11.0,-3.0,3.0,3.0,0.0,-5.0,-11.0,-27.0
1701634089.7208426,-33.0,-9.0,-6.0,-2.0,-1.0,1.0,-10.0,-20.0
1701634089.7224395,13.0,6.0,1.0,1.0,-1.0,3.0,-2.0,-11.0
1701634089.7234735,-4.0,0.0,2.0,3.0,3.0,2.0,13.0,25.0
1701634089.7234735,41.0,-2.0,-5.0,-3.0,-2.0,-9.0,-16.0,-38.0
1701634089.782367,-13.0,-1.0,0.0,2.0,2.0,3.0,-17.0,7.0
1701634089.782367,6.0,2.0,-3.0,-2.0,-3.0,16.0,38.0,-5.0
1701634089.7833679,6.0,2.0,-4.0,1.0,-1.0,-1.0,7.0,-10.0
1701634089.7833679,-58.0,-6.0,6.0,3.0,2.0,5.0,20.0,8.0
1701634089.7833679,18.0,4.0,0.0,-2.0,0.0,-12.0,-24.0,-32.0
1701634089.7833679,17.0,7.0,-7.0,-1.0,-2.0,-4.0,-18.0,11.0
1701634089.7833679,-7.0,1.0,3.0,2.0,0.0,5.0,7.0,26.0
1701634089.7833679,-32.0,2.0,-4.0,-4.0,-3.0,-2.0,-1.0,-9.0
1701634089.7833679,15.0,1.0,-2.0,-2.0,-5.0,-6.0,2.0,-13.0
1701634089.7833679,-5.0,-5.0,-5.0,-4.0,-4.0,-4.0,-13.0,-6.0
1701634089.7833679,12.0,-4.0,-2.0,-4.0,-5.0,-8.0,-13.0,-7.0
1701634089.7833679,12.0,13.0,1.0,-2.0,0.0,2.0,-5.0,6.0
1701634089.8406441,-1.0,-23.0,-4.0,-2.0,-2.0,0.0,11.0,14.0
1701634089.8406441,21.0,-9.0,2.0,1.0,1.0,-3.0,-16.0,17.0
1701634089.8406441,16.0,-5.0,-3.0,-2.0,2.0,-7.0,-8.0,-2.0
1701634089.8406441,30.0,7.0,2.0,0.0,4.0,15.0,32.0,24.0
1701634089.8406441,-16.0,-6.0,1.0,0.0,0.0,2.0,6.0,-13.0
1701634089.8406441,-1.0,20.0,11.0,3.0,4.0,3.0,9.0,45.0
1701634089.8406441,23.0,-9.0,-3.0,-4.0,-1.0,-2.0,-12.0,-31.0
1701634089.8406441,-9.0,-11.0,-6.0,-4.0,-3.0,1.0,-11.0,-1.0
1701634089.8831801,-11.0,1.0,-5.0,-3.0,-1.0,4.0,20.0,20.0
1701634089.8831801,18.0,2.0,5.0,3.0,2.0,-5.0,9.0,42.0
1701634089.8831801,-88.0,-6.0,-8.0,-4.0,-2.0,5.0,-7.0,-29.0
1701634089.8831801,1.0,2.0,3.0,-3.0,-3.0,-9.0,-25.0,-38.0
1701634089.8892074,27.0,4.0,-2.0,1.0,1.0,-1.0,6.0,37.0
1701634089.8892074,-23.0,4.0,5.0,0.0,-1.0,-8.0,-25.0,-46.0
1701634089.8892074,33.0,5.0,1.0,1.0,0.0,1.0,19.0,29.0
1701634089.8892074,8.0,-24.0,-9.0,-1.0,-4.0,2.0,6.0,-18.0
1701634089.8892074,-30.0,-3.0,-3.0,-2.0,-1.0,0.0,-8.0,2.0
1701634089.8892074,-1.0,-4.0,0.0,-1.0,-3.0,-3.0,8.0,8.0
1701634089.8902557,-4.0,4.0,-1.0,-2.0,0.0,-3.0,-3.0,-37.0
1701634089.8902557,9.0,-5.0,-1.0,1.0,3.0,5.0,9.0,19.0
1701634089.9411674,14.0,25.0,5.0,-1.0,0.0,-3.0,-1.0,-48.0
1701634089.9411674,-32.0,-23.0,-6.0,-4.0,-3.0,-5.0,-13.0,-55.0
1701634089.9411674,18.0,-7.0,-1.0,-1.0,-2.0,-1.0,14.0,9.0
1701634089.9411674,2.0,7.0,6.0,1.0,3.0,6.0,-8.0,22.0
1701634089.9411674,-23.0,1.0,1.0,-2.0,-2.0,-2.0,-4.0,33.0
1701634089.9411674,18.0,2.0,-1.0,-2.0,1.0,-3.0,2.0,-10.0
1701634089.942165,-6.0,0.0,2.0,1.0,1.0,-1.0,-8.0,2.0
1701634089.942165,0.0,4.0,-1.0,0.0,2.0,10.0,24.0,3.0
1701634089.942165,10.0,1.0,1.0,1.0,-1.0,-4.0,-3.0,-10.0
1701634089.942165,3.0,0.0,1.0,-2.0,-1.0,-5.0,-26.0,5.0
1701634089.9496803,2.0,-7.0,-4.0,-3.0,-4.0,0.0,8.0,25.0
1701634089.9496803,33.0,11.0,2.0,2.0,-2.0,-4.0,6.0,51.0
1701634090.0042117,-9.0,-5.0,-4.0,-4.0,-4.0,-1.0,1.0,-24.0
1701634090.0042117,-9.0,-2.0,-4.0,-3.0,-1.0,-2.0,1.0,3.0
1701634090.0080059,4.0,4.0,4.0,2.0,1.0,8.0,20.0,21.0
1701634090.0080059,-17.0,-10.0,-8.0,-5.0,-6.0,-11.0,-27.0,3.0
1701634090.0080059,-40.0,2.0,0.0,-1.0,-1.0,-1.0,8.0,22.0
1701634090.0080059,-13.0,-15.0,-5.0,0.0,-2.0,1.0,6.0,-4.0
1701634090.0080059,5.0,7.0,-1.0,-2.0,-1.0,0.0,-13.0,15.0
1701634090.0080059,-16.0,-3.0,1.0,-1.0,-3.0,-1.0,6.0,18.0
1701634090.0080059,-10.0,-2.0,2.0,1.0,2.0,0.0,-1.0,-10.0
1701634090.0080059,-12.0,2.0,-6.0,-1.0,-2.0,-1.0,0.0,1.0
1701634090.0090024,-11.0,-2.0,6.0,1.0,1.0,1.0,-1.0,-4.0
1701634090.0090024,-3.0,-2.0,-4.0,-1.0,-3.0,-6.0,-10.0,-28.0
1701634090.0623949,10.0,-10.0,-6.0,-5.0,-4.0,0.0,-7.0,10.0
1701634090.0623949,-6.0,2.0,-3.0,-3.0,-3.0,-1.0,-10.0,-46.0
1701634090.0633945,22.0,2.0,1.0,1.0,0.0,-2.0,-7.0,-22.0
1701634090.0633945,-12.0,-1.0,2.0,5.0,3.0,-2.0,1.0,13.0
1701634090.0633945,23.0,9.0,5.0,2.0,3.0,3.0,9.0,-14.0
1701634090.0633945,-22.0,-3.0,-10.0,-6.0,-6.0,-4.0,0.0,27.0
1701634090.0633945,2.0,-1.0,-1.0,1.0,-2.0,-1.0,-1.0,-7.0
1701634090.0633945,7.0,1.0,-5.0,-3.0,-3.0,-5.0,-15.0,-15.0
1701634090.0633945,0.0,-5.0,-1.0,0.0,-3.0,0.0,7.0,7.0
1701634090.0633945,4.0,-2.0,-1.0,3.0,1.0,4.0,4.0,13.0
1701634090.0700703,-28.0,-9.0,-7.0,-5.0,-3.0,-3.0,-1.0,-14.0
1701634090.0700703,-6.0,0.0,2.0,0.0,1.0,3.0,8.0,5.0
1701634090.1219397,-7.0,1.0,2.0,2.0,-1.0,-3.0,-11.0,-14.0
1701634090.1219397,13.0,1.0,-1.0,-3.0,-3.0,1.0,8.0,6.0
1701634090.1219397,5.0,2.0,-2.0,-2.0,-3.0,-6.0,-9.0,2.0
1701634090.1219397,-12.0,-4.0,-1.0,-3.0,-3.0,-3.0,1.0,-35.0
1701634090.1294265,0.0,-4.0,-6.0,-6.0,-2.0,2.0,3.0,-29.0
1701634090.1294265,4.0,8.0,3.0,0.0,2.0,2.0,4.0,2.0
1701634090.1294265,-14.0,-1.0,-6.0,-3.0,-3.0,-1.0,1.0,18.0
1701634090.1294265,46.0,-5.0,3.0,1.0,0.0,0.0,-6.0,-5.0
1701634090.1294265,-9.0,-6.0,-4.0,-1.0,-2.0,-6.0,1.0,14.0
1701634090.1294265,-6.0,3.0,-2.0,-3.0,-1.0,-4.0,-15.0,-13.0
1701634090.1302323,-8.0,-4.0,-3.0,-3.0,1.0,2.0,-1.0,-4.0
1701634090.1302323,2.0,4.0,-3.0,-5.0,-3.0,-4.0,3.0,11.0
1701634090.173571,12.0,5.0,4.0,1.0,-2.0,-3.0,-7.0,3.0
1701634090.173571,2.0,-9.0,-7.0,-4.0,0.0,1.0,7.0,20.0
1701634090.173571,11.0,15.0,5.0,2.0,1.0,2.0,-4.0,5.0
1701634090.173571,-5.0,-15.0,-3.0,-2.0,-2.0,-3.0,-2.0,-18.0
1701634090.173571,0.0,-1.0,-1.0,-1.0,1.0,0.0,3.0,8.0
1701634090.173571,-13.0,5.0,2.0,-2.0,-2.0,-2.0,1.0,-8.0
1701634090.173571,2.0,-2.0,0.0,-1.0,-1.0,-4.0,-14.0,-51.0
1701634090.173571,-8.0,5.0,0.0,0.0,1.0,4.0,11.0,23.0
1701634090.2142715,6.0,-6.0,-4.0,-3.0,-3.0,-2.0,-14.0,-20.0
1701634090.2142715,10.0,0.0,3.0,2.0,0.0,1.0,2.0,22.0
1701634090.2142715,1.0,-5.0,-1.0,-2.0,-2.0,-1.0,0.0,4.0
1701634090.2142715,-1.0,1.0,-1.0,-3.0,0.0,0.0,1.0,3.0
1701634090.2142715,-25.0,0.0,-1.0,0.0,-1.0,-3.0,-4.0,-3.0
1701634090.2142715,-3.0,-7.0,-4.0,-1.0,-2.0,-2.0,3.0,-1.0
1701634090.2153077,-3.0,-4.0,1.0,1.0,-1.0,-1.0,3.0,2.0
1701634090.2153077,6.0,4.0,-1.0,2.0,-1.0,-4.0,-7.0,-4.0
1701634090.220138,-1.0,1.0,-4.0,-2.0,2.0,4.0,5.0,22.0
1701634090.220138,-11.0,-1.0,0.0,0.0,2.0,3.0,1.0,-12.0
1701634090.2270904,-6.0,2.0,1.0,2.0,1.0,-2.0,-2.0,2.0
1701634090.2270904,8.0,-1.0,-1.0,-1.0,-1.0,-2.0,-3.0,4.0
1701634090.2790985,2.0,0.0,1.0,-1.0,-2.0,-4.0,-4.0,-1.0
1701634090.2790985,21.0,-4.0,1.0,1.0,-2.0,0.0,1.0,59.0
1701634090.2800992,8.0,6.0,0.0,-3.0,-4.0,-2.0,3.0,-10.0
1701634090.2800992,-22.0,2.0,0.0,0.0,-3.0,-5.0,-16.0,10.0
1701634090.2800992,6.0,-9.0,-3.0,-4.0,-3.0,0.0,18.0,-9.0
1701634090.2800992,10.0,11.0,1.0,1.0,1.0,2.0,6.0,16.0
1701634090.2800992,-11.0,-10.0,-5.0,-3.0,-4.0,-6.0,-10.0,12.0
1701634090.2800992,-7.0,-3.0,-4.0,-2.0,-1.0,1.0,4.0,5.0
1701634090.2831056,3.0,11.0,7.0,2.0,1.0,0.0,-5.0,-17.0
1701634090.2831056,8.0,-13.0,-3.0,-2.0,0.0,-3.0,-9.0,-10.0
1701634090.3175795,8.0,-2.0,1.0,0.0,1.0,4.0,8.0,0.0
1701634090.3175795,-6.0,2.0,2.0,-1.0,-4.0,-14.0,-28.0,8.0
1701634090.3175795,1.0,4.0,7.0,7.0,4.0,14.0,28.0,16.0
1701634090.3175795,-9.0,-3.0,-9.0,-3.0,1.0,1.0,1.0,-3.0
1701634090.3175795,-27.0,-5.0,-3.0,-2.0,-2.0,-3.0,-3.0,-12.0
1701634090.3185782,11.0,4.0,4.0,1.0,1.0,6.0,5.0,-3.0
1701634090.3286963,-2.0,9.0,0.0,0.0,-2.0,-7.0,-13.0,4.0
1701634090.3286963,2.0,-4.0,-1.0,-2.0,-3.0,0.0,2.0,6.0
1701634090.3322012,0.0,-4.0,-3.0,-1.0,-1.0,-7.0,-5.0,-17.0
1701634090.3322012,10.0,0.0,-1.0,-1.0,0.0,8.0,21.0,-9.0
1701634090.335792,7.0,-1.0,-3.0,-5.0,-1.0,-1.0,2.0,10.0
1701634090.335792,-24.0,1.0,1.0,1.0,0.0,-2.0,-4.0,-37.0
1701634090.379706,1.0,-1.0,0.0,1.0,1.0,2.0,1.0,1.0
1701634090.379706,9.0,7.0,3.0,4.0,1.0,0.0,-1.0,-3.0
1701634090.379706,20.0,-15.0,-9.0,-5.0,-4.0,-8.0,-10.0,13.0
1701634090.379706,27.0,1.0,0.0,-3.0,0.0,4.0,16.0,-4.0
1701634090.379706,14.0,2.0,4.0,2.0,0.0,0.0,-15.0,0.0
1701634090.3802123,10.0,1.0,-5.0,-1.0,0.0,1.0,7.0,8.0
1701634090.3910034,-18.0,-5.0,-2.0,-3.0,-3.0,-3.0,-9.0,-25.0
1701634090.3910034,-7.0,-6.0,5.0,3.0,0.0,-1.0,7.0,36.0
1701634090.3922842,-15.0,0.0,-3.0,-3.0,2.0,0.0,2.0,-9.0
1701634090.3922842,-6.0,-7.0,-3.0,-3.0,-3.0,0.0,0.0,-19.0
1701634090.397259,0.0,-4.0,-1.0,-2.0,-1.0,-4.0,-12.0,1.0
1701634090.397259,-5.0,0.0,0.0,2.0,-3.0,-2.0,-8.0,-13.0
1701634090.4447713,4.0,1.0,0.0,-2.0,-1.0,1.0,3.0,4.0
1701634090.4447713,-14.0,-2.0,-1.0,1.0,0.0,1.0,1.0,0.0
1701634090.4447713,2.0,-2.0,0.0,-2.0,-1.0,0.0,-4.0,3.0
1701634090.4447713,-5.0,3.0,2.0,0.0,-2.0,-3.0,-5.0,-15.0
1701634090.4447713,3.0,-8.0,-6.0,-2.0,-1.0,-3.0,0.0,12.0
1701634090.4447713,0.0,-2.0,-2.0,-1.0,1.0,-1.0,-1.0,-8.0
1701634090.4517844,-8.0,-1.0,-3.0,-1.0,0.0,0.0,0.0,1.0
1701634090.4517844,9.0,1.0,-1.0,-2.0,-2.0,-4.0,-7.0,3.0
1701634090.4601123,7.0,16.0,6.0,2.0,0.0,1.0,7.0,-5.0
1701634090.4601123,-4.0,-9.0,3.0,1.0,1.0,-1.0,-4.0,2.0
1701634090.461703,-3.0,-15.0,-9.0,-3.0,-2.0,-2.0,-4.0,-9.0
1701634090.461703,0.0,2.0,0.0,-2.0,-2.0,-1.0,-8.0,-3.0
1701634090.5181348,2.0,0.0,0.0,0.0,-3.0,-3.0,2.0,8.0
1701634090.5181348,-12.0,0.0,-1.0,-3.0,-2.0,2.0,9.0,-4.0
1701634090.5193655,13.0,8.0,6.0,2.0,0.0,-1.0,-8.0,1.0
1701634090.5193655,-9.0,-10.0,-8.0,-4.0,-4.0,-2.0,4.0,-22.0
1701634090.5193655,8.0,-3.0,-4.0,-3.0,-2.0,0.0,-3.0,3.0
1701634090.5193655,11.0,0.0,-3.0,-3.0,-2.0,-3.0,-4.0,-4.0
1701634090.5193655,-5.0,-3.0,-2.0,-1.0,-1.0,-2.0,-6.0,-4.0
1701634090.5193655,20.0,0.0,-1.0,-1.0,0.0,0.0,1.0,5.0
1701634090.5193655,-13.0,-4.0,0.0,0.0,-2.0,-5.0,-9.0,6.0
1701634090.5193655,-11.0,-7.0,-4.0,-3.0,-1.0,6.0,7.0,-41.0
1701634090.553622,-3.0,1.0,0.0,1.0,1.0,4.0,9.0,6.0
1701634090.553622,0.0,1.0,0.0,1.0,-1.0,-2.0,2.0,3.0
1701634090.553622,3.0,-2.0,1.0,2.0,0.0,4.0,3.0,6.0
1701634090.553622,-1.0,-2.0,0.0,-1.0,-2.0,-5.0,-14.0,4.0
1701634090.553622,-4.0,1.0,0.0,2.0,0.0,-3.0,-4.0,0.0
1701634090.553622,0.0,-1.0,-1.0,-1.0,-3.0,1.0,9.0,-9.0
1701634090.553622,3.0,-5.0,-6.0,-3.0,-2.0,-1.0,6.0,7.0
1701634090.5546227,-9.0,0.0,1.0,-1.0,-1.0,-5.0,-17.0,-9.0
1701634090.564673,0.0,-1.0,5.0,-1.0,1.0,-3.0,0.0,-3.0
1701634090.564673,-6.0,-3.0,-1.0,-2.0,1.0,-3.0,-11.0,-1.0
1701634090.5722148,-2.0,-10.0,-2.0,-4.0,0.0,-1.0,0.0,-2.0
1701634090.5722148,-8.0,1.0,0.0,-2.0,1.0,0.0,8.0,15.0
1701634090.604904,-5.0,6.0,-7.0,-3.0,0.0,-4.0,-7.0,-14.0
1701634090.604904,3.0,0.0,2.0,-2.0,-2.0,-8.0,-10.0,-5.0
1701634090.604904,-7.0,8.0,-6.0,-1.0,-1.0,4.0,4.0,-2.0
1701634090.604904,5.0,3.0,-1.0,-2.0,-2.0,1.0,-1.0,0.0
1701634090.6086917,-3.0,-3.0,-3.0,-1.0,-4.0,-2.0,4.0,0.0
1701634090.6086917,-6.0,-5.0,6.0,2.0,0.0,0.0,-17.0,-5.0
1701634090.6126933,-1.0,-1.0,-1.0,-2.0,-2.0,3.0,9.0,5.0
1701634090.6126933,-5.0,-2.0,-4.0,-2.0,-1.0,-1.0,7.0,5.0
1701634090.6237755,20.0,2.0,-3.0,-3.0,-1.0,-1.0,-3.0,5.0
1701634090.6237755,-9.0,7.0,-1.0,-1.0,1.0,-2.0,1.0,0.0
1701634090.632621,-9.0,-9.0,-1.0,-4.0,-1.0,0.0,-4.0,32.0
1701634090.632621,-1.0,1.0,2.0,1.0,-1.0,-4.0,-11.0,-13.0
1701634090.675464,-10.0,-28.0,6.0,3.0,2.0,2.0,4.0,1.0
1701634090.675464,3.0,0.0,-3.0,1.0,2.0,2.0,4.0,2.0
1701634090.675464,-8.0,-3.0,-2.0,-3.0,-3.0,-10.0,-8.0,22.0
1701634090.675464,9.0,3.0,-6.0,-3.0,-3.0,2.0,3.0,-49.0
1701634090.675464,-11.0,7.0,-5.0,-3.0,-2.0,-1.0,1.0,-8.0
1701634090.675464,20.0,6.0,-2.0,-2.0,-2.0,-5.0,-15.0,-12.0
1701634090.6764631,15.0,2.0,5.0,3.0,0.0,4.0,6.0,-10.0
1701634090.6764631,-2.0,-8.0,-4.0,0.0,0.0,-2.0,-1.0,20.0
1701634090.7210052,-8.0,0.0,-2.0,-1.0,-3.0,1.0,-1.0,-3.0
1701634090.7210052,7.0,-5.0,-2.0,-2.0,-1.0,-1.0,-1.0,-6.0
1701634090.7210052,-10.0,3.0,3.0,-1.0,0.0,-1.0,1.0,-14.0
1701634090.7210052,-3.0,-1.0,-1.0,1.0,1.0,-2.0,-1.0,12.0
1701634090.7210052,5.0,4.0,1.0,-2.0,0.0,-1.0,2.0,6.0
1701634090.7210052,-2.0,-1.0,-2.0,-2.0,-1.0,-3.0,-2.0,5.0
1701634090.7210052,-1.0,-1.0,0.0,-1.0,0.0,-1.0,-7.0,-40.0
1701634090.7210052,-4.0,1.0,1.0,-1.0,-1.0,0.0,5.0,22.0
1701634090.7221105,4.0,1.0,-1.0,-1.0,0.0,-2.0,-3.0,-3.0
1701634090.7221105,-7.0,-3.0,-1.0,-3.0,-2.0,0.0,3.0,-5.0
1701634090.7300463,-1.0,-2.0,-1.0,-1.0,-1.0,-3.0,-2.0,-3.0
1701634090.7300463,6.0,-5.0,0.0,-2.0,-1.0,-1.0,0.0,3.0
1701634090.7952147,-3.0,1.0,0.0,-3.0,0.0,-3.0,-2.0,-11.0
1701634090.7952147,-7.0,-2.0,0.0,-2.0,-1.0,-1.0,4.0,7.0
1701634090.7952147,2.0,-2.0,-3.0,-2.0,-1.0,-3.0,0.0,2.0
1701634090.7952147,-4.0,2.0,2.0,-2.0,0.0,-4.0,-3.0,5.0
1701634090.7987647,-3.0,-1.0,0.0,1.0,1.0,1.0,-1.0,-5.0
1701634090.7987647,-7.0,-2.0,-2.0,-3.0,-2.0,0.0,1.0,2.0
1701634090.7987647,11.0,-1.0,0.0,0.0,-1.0,1.0,-1.0,0.0
1701634090.7987647,-8.0,0.0,-1.0,0.0,1.0,1.0,-1.0,-6.0
1701634090.7987647,-1.0,0.0,0.0,-1.0,-3.0,-1.0,-2.0,-5.0
1701634090.799764,10.0,-2.0,-1.0,0.0,0.0,3.0,1.0,1.0
1701634090.799764,2.0,0.0,-2.0,0.0,-2.0,-2.0,-2.0,4.0
1701634090.799764,-2.0,-4.0,-3.0,0.0,-1.0,0.0,-1.0,6.0
1701634090.8557296,5.0,2.0,-2.0,0.0,-2.0,1.0,5.0,45.0
1701634090.8557296,-7.0,-1.0,-1.0,1.0,-1.0,2.0,-1.0,-19.0
1701634090.8567295,10.0,0.0,0.0,2.0,0.0,-1.0,1.0,23.0
1701634090.8567295,16.0,1.0,-3.0,-2.0,-5.0,-4.0,-8.0,-24.0
1701634090.8567295,-5.0,-11.0,4.0,1.0,1.0,1.0,1.0,-7.0
1701634090.8567295,-4.0,-2.0,-3.0,-2.0,-3.0,-2.0,0.0,15.0
1701634090.8567295,-14.0,-2.0,-2.0,-1.0,-1.0,1.0,-4.0,-10.0
1701634090.8567295,-5.0,-1.0,-2.0,0.0,0.0,-2.0,0.0,10.0
1701634090.8638394,-2.0,1.0,-6.0,-4.0,-3.0,-2.0,0.0,6.0
1701634090.8638394,-2.0,-1.0,-1.0,-1.0,-1.0,-4.0,-1.0,-8.0
1701634090.8836677,-6.0,-2.0,0.0,-2.0,0.0,-3.0,-2.0,-9.0
1701634090.8838725,-7.0,-3.0,-1.0,-2.0,1.0,-2.0,1.0,8.0
1701634090.8909202,-1.0,2.0,0.0,1.0,-2.0,0.0,-3.0,-11.0
1701634090.8909202,-9.0,-4.0,-2.0,-2.0,0.0,1.0,-1.0,0.0
1701634090.8909202,7.0,1.0,-3.0,-1.0,-3.0,0.0,-3.0,-1.0
1701634090.8909202,8.0,-1.0,0.0,-1.0,-1.0,0.0,-1.0,-6.0
1701634090.8909202,4.0,1.0,-1.0,-2.0,-2.0,-3.0,-1.0,-7.0
1701634090.8909202,-4.0,-1.0,1.0,-3.0,1.0,0.0,1.0,2.0
1701634090.8929229,-6.0,-3.0,-1.0,-1.0,-1.0,0.0,1.0,-1.0
1701634090.8929229,-5.0,0.0,2.0,-3.0,-2.0,-1.0,-4.0,-9.0
1701634090.9347353,7.0,1.0,1.0,-1.0,-1.0,0.0,3.0,25.0
1701634090.9347353,-8.0,0.0,1.0,-1.0,0.0,-1.0,-1.0,-2.0
1701634090.9347353,-10.0,0.0,0.0,0.0,0.0,-3.0,3.0,-6.0
1701634090.9347353,4.0,-2.0,0.0,1.0,0.0,1.0,1.0,12.0
1701634090.9376953,-3.0,2.0,-2.0,-1.0,-3.0,0.0,4.0,8.0
1701634090.9376953,13.0,1.0,3.0,1.0,0.0,1.0,2.0,-18.0
1701634090.9376953,-1.0,-8.0,-5.0,-2.0,-1.0,-2.0,-5.0,-9.0
1701634090.9376953,-12.0,-2.0,-3.0,-3.0,0.0,-1.0,1.0,10.0
1701634090.945982,-6.0,-1.0,-1.0,-1.0,1.0,-2.0,-3.0,-4.0
1701634090.945982,4.0,-2.0,-3.0,-2.0,-1.0,-1.0,0.0,4.0
1701634090.954724,-1.0,1.0,3.0,0.0,0.0,0.0,-8.0,-15.0
1701634090.954724,0.0,-4.0,-1.0,-1.0,0.0,1.0,1.0,-13.0
1701634090.998428,2.0,-3.0,-3.0,-3.0,-2.0,-5.0,-1.0,12.0
1701634090.998428,13.0,9.0,2.0,0.0,-1.0,-1.0,-2.0,-4.0
1701634090.998428,14.0,-2.0,-5.0,-1.0,-1.0,-1.0,1.0,13.0
1701634090.998428,-15.0,-8.0,-3.0,1.0,-1.0,1.0,0.0,8.0
1701634091.0047605,1.0,-5.0,-6.0,-4.0,-1.0,0.0,-2.0,0.0
1701634091.0047605,-9.0,3.0,0.0,1.0,1.0,0.0,-6.0,2.0
1701634091.0047605,-3.0,6.0,3.0,-2.0,-2.0,-1.0,4.0,12.0
1701634091.0047605,13.0,1.0,2.0,0.0,0.0,-1.0,-5.0,-4.0
1701634091.0047605,-16.0,-3.0,-2.0,0.0,-2.0,-4.0,-3.0,-9.0
1701634091.0047605,-10.0,-7.0,-3.0,-2.0,-3.0,2.0,6.0,-1.0
1701634091.0058727,8.0,-2.0,-6.0,-4.0,0.0,-1.0,0.0,-12.0
1701634091.0058727,1.0,7.0,1.0,-1.0,-1.0,-1.0,2.0,15.0
1701634091.0700622,-3.0,1.0,2.0,0.0,0.0,-3.0,-5.0,-24.0
1701634091.0700622,-5.0,2.0,-1.0,-1.0,0.0,-5.0,-6.0,-1.0
1701634091.0710618,-4.0,-1.0,1.0,0.0,0.0,3.0,3.0,-1.0
1701634091.0710618,-5.0,-6.0,-1.0,-2.0,-1.0,-2.0,-2.0,3.0
1701634091.0710618,0.0,2.0,2.0,0.0,0.0,0.0,-7.0,-22.0
1701634091.0710618,-4.0,-6.0,-5.0,-3.0,-1.0,-1.0,5.0,25.0
1701634091.0710618,12.0,1.0,3.0,1.0,0.0,-2.0,-3.0,3.0
1701634091.0710618,-9.0,1.0,-1.0,1.0,-1.0,0.0,0.0,-5.0
1701634091.0710618,4.0,-2.0,-3.0,0.0,-1.0,0.0,2.0,-4.0
1701634091.0710618,-2.0,-4.0,-1.0,-2.0,0.0,0.0,-3.0,-1.0
1701634091.0750637,-5.0,-2.0,-1.0,0.0,0.0,-2.0,-2.0,-6.0
1701634091.0750637,10.0,2.0,-3.0,-2.0,-2.0,0.0,-4.0,-3.0
1701634091.1317928,-6.0,0.0,0.0,-2.0,-2.0,0.0,1.0,-1.0
1701634091.1317928,8.0,-3.0,-1.0,0.0,-1.0,-2.0,0.0,-2.0
1701634091.1317928,-12.0,-2.0,0.0,1.0,-2.0,-1.0,-1.0,8.0
1701634091.1317928,-4.0,-2.0,-1.0,-2.0,0.0,1.0,2.0,-4.0
1701634091.1317928,0.0,-4.0,-1.0,0.0,-1.0,1.0,0.0,-3.0
1701634091.1317928,-1.0,-1.0,-3.0,-2.0,-2.0,-1.0,-2.0,-5.0
1701634091.1317928,0.0,-2.0,-2.0,-1.0,-1.0,-2.0,-3.0,-8.0
1701634091.1317928,-3.0,-1.0,-1.0,-1.0,-2.0,-4.0,0.0,-3.0
1701634091.1575966,-1.0,0.0,2.0,0.0,0.0,-1.0,0.0,-6.0
1701634091.1575966,-2.0,1.0,-1.0,-1.0,-1.0,-2.0,-2.0,-3.0
1701634091.1575966,-4.0,0.0,-1.0,0.0,-2.0,-1.0,-1.0,-2.0
1701634091.1575966,-4.0,-2.0,-1.0,-2.0,-1.0,-1.0,0.0,-2.0
1701634091.1575966,1.0,1.0,-2.0,-2.0,-1.0,-2.0,-6.0,4.0
1701634091.1575966,-2.0,-2.0,0.0,0.0,-1.0,1.0,0.0,-6.0
1701634091.1575966,-2.0,-4.0,-3.0,-2.0,0.0,0.0,-1.0,-2.0
1701634091.1575966,-1.0,-1.0,-2.0,-1.0,-1.0,0.0,-1.0,-1.0
1701634091.1697524,1.0,-2.0,0.0,-2.0,-1.0,0.0,-2.0,-4.0
1701634091.1697524,-1.0,-1.0,-2.0,-2.0,-2.0,-4.0,-1.0,-2.0
1701634091.1722898,-1.0,-2.0,0.0,-2.0,-1.0,-3.0,-3.0,-4.0
1701634091.1722898,-3.0,-1.0,-1.0,0.0,-3.0,-1.0,1.0,1.0
1701634091.2332146,-4.0,0.0,-3.0,-1.0,-1.0,-3.0,-5.0,-8.0
1701634091.2332146,-3.0,-2.0,0.0,-1.0,0.0,-1.0,-2.0,-3.0
1701634091.2332146,1.0,0.0,0.0,-1.0,-1.0,-1.0,-2.0,2.0
1701634091.2332146,-2.0,0.0,0.0,-3.0,0.0,-3.0,-1.0,-2.0
1701634091.2332146,-1.0,-1.0,1.0,-2.0,0.0,-2.0,0.0,1.0
1701634091.2332146,-3.0,-1.0,0.0,-2.0,0.0,-3.0,1.0,-3.0
1701634091.2332146,-2.0,0.0,1.0,-3.0,1.0,-3.0,1.0,-3.0
1701634091.234212,-3.0,0.0,1.0,-2.0,-1.0,-3.0,-5.0,-2.0
1701634091.240286,-1.0,-1.0,1.0,-1.0,1.0,-2.0,-5.0,-2.0
1701634091.241292,-3.0,-1.0,1.0,-1.0,-1.0,1.0,2.0,-1.0
1701634091.241292,-1.0,0.0,0.0,-1.0,-1.0,-6.0,-6.0,-2.0
1701634091.241292,-1.0,-2.0,-1.0,0.0,1.0,4.0,4.0,-2.0
1701634091.2852242,0.0,0.0,-1.0,-2.0,0.0,0.0,0.0,2.0
1701634091.2852242,0.0,0.0,-2.0,-1.0,0.0,-2.0,-2.0,-1.0
1701634091.2852242,-1.0,-1.0,-1.0,0.0,1.0,2.0,0.0,-2.0
1701634091.2852242,0.0,-1.0,0.0,-2.0,-3.0,-1.0,-1.0,-1.0
1701634091.2852242,0.0,-1.0,-1.0,-1.0,-2.0,0.0,-1.0,-1.0
1701634091.2852242,0.0,-3.0,-2.0,-1.0,0.0,0.0,-1.0,-1.0
1701634091.2852242,-1.0,-1.0,-1.0,0.0,-3.0,-2.0,-3.0,-2.0
1701634091.2852242,0.0,-3.0,-1.0,0.0,-3.0,0.0,-1.0,-2.0
1701634091.2862709,1.0,-2.0,-1.0,0.0,-2.0,2.0,2.0,1.0
1701634091.2862709,-1.0,-1.0,-3.0,0.0,-2.0,1.0,-4.0,0.0
1701634091.2921755,0.0,0.0,-1.0,-2.0,-2.0,2.0,0.0,1.0
1701634091.2921755,-1.0,1.0,-3.0,-1.0,0.0,-2.0,0.0,-1.0
1701634091.3244402,-2.0,0.0,-1.0,-1.0,-1.0,-1.0,-1.0,-1.0
1701634091.3244402,0.0,-2.0,-1.0,0.0,-1.0,-2.0,-1.0,-1.0
1701634091.3244402,-1.0,-1.0,1.0,1.0,-1.0,1.0,0.0,-1.0
1701634091.3244402,-1.0,-1.0,0.0,-1.0,0.0,0.0,-1.0,0.0
1701634091.3264563,-1.0,-1.0,-1.0,0.0,0.0,0.0,-1.0,1.0
1701634091.3274047,-2.0,-1.0,-2.0,0.0,-1.0,0.0,-2.0,-1.0
1701634091.3284392,1.0,0.0,-3.0,-1.0,0.0,3.0,6.0,0.0
1701634091.3284392,0.0,0.0,-2.0,0.0,-2.0,-1.0,-3.0,0.0
1701634091.3476634,0.0,-2.0,-3.0,1.0,-1.0,2.0,1.0,0.0
1701634091.3476634,2.0,-2.0,-1.0,0.0,-2.0,1.0,-2.0,-1.0
1701634091.35218,-1.0,-4.0,-2.0,-1.0,-3.0,-4.0,-2.0,-2.0
1701634091.35218,-1.0,-1.0,-1.0,0.0,0.0,0.0,0.0,-1.0
1701634091.3888612,-1.0,-1.0,0.0,-1.0,-1.0,-1.0,-1.0,-2.0
1701634091.3888612,-3.0,0.0,-1.0,-1.0,-1.0,-2.0,1.0,-3.0
1701634091.3888612,-1.0,0.0,-1.0,-2.0,0.0,-2.0,-5.0,-1.0
1701634091.3888612,-1.0,-1.0,0.0,-2.0,-1.0,-2.0,2.0,-1.0
1701634091.3888612,-2.0,-3.0,-3.0,-2.0,0.0,-1.0,-2.0,0.0
1701634091.3888612,-1.0,0.0,-1.0,-1.0,0.0,-2.0,-1.0,-1.0
1701634091.389898,-1.0,0.0,-1.0,-3.0,1.0,-1.0,-4.0,1.0
1701634091.389898,-1.0,0.0,-1.0,-2.0,-1.0,-1.0,-2.0,-3.0
1701634091.4019268,0.0,-1.0,-1.0,-1.0,0.0,-2.0,3.0,1.0
1701634091.4019268,-2.0,-2.0,0.0,-1.0,-1.0,-4.0,-6.0,-4.0
1701634091.4434254,6.0,-1.0,0.0,0.0,-2.0,2.0,4.0,8.0
1701634091.4434254,-10.0,1.0,0.0,-2.0,0.0,-3.0,-3.0,-5.0
1701634091.4434254,9.0,2.0,-1.0,0.0,-1.0,-3.0,-3.0,2.0
1701634091.4434254,-1.0,0.0,-1.0,-1.0,-2.0,-1.0,-3.0,-2.0
1701634091.4434254,-5.0,-1.0,0.0,2.0,-1.0,-7.0,-13.0,2.0
1701634091.4434254,10.0,-1.0,-3.0,-2.0,-3.0,9.0,11.0,-17.0
1701634091.445945,-6.0,-3.0,0.0,0.0,-1.0,1.0,0.0,-1.0
1701634091.4475212,0.0,-2.0,-2.0,0.0,-1.0,1.0,-2.0,2.0
1701634091.4485514,-5.0,-1.0,-2.0,0.0,0.0,2.0,4.0,13.0
1701634091.4485514,1.0,-1.0,-2.0,0.0,-1.0,-1.0,-13.0,-2.0
1701634091.4707842,7.0,-1.0,-3.0,-2.0,-3.0,-2.0,-2.0,4.0
1701634091.4707842,-11.0,0.0,0.0,-1.0,-1.0,-1.0,2.0,-6.0
1701634091.4727755,-20.0,-4.0,-3.0,-3.0,-3.0,-1.0,-9.0,-9.0
1701634091.4727755,7.0,-2.0,-3.0,-1.0,-2.0,-7.0,4.0,-1.0
1701634091.5130913,-23.0,-1.0,-2.0,-2.0,0.0,0.0,9.0,8.0
1701634091.5130913,8.0,1.0,0.0,-3.0,1.0,-4.0,-1.0,-1.0
1701634091.5130913,-4.0,1.0,1.0,-3.0,-1.0,1.0,-11.0,-18.0
1701634091.5130913,-21.0,-1.0,1.0,-2.0,2.0,-1.0,9.0,3.0
1701634091.5130913,-1.0,-1.0,0.0,-4.0,0.0,-4.0,-4.0,-8.0
1701634091.5130913,0.0,-3.0,-2.0,-3.0,-1.0,-1.0,3.0,5.0
1701634091.5140898,-1.0,0.0,0.0,-1.0,0.0,-1.0,1.0,-5.0
1701634091.5140898,6.0,-3.0,-1.0,-2.0,-2.0,-1.0,-2.0,19.0
1701634091.5602334,-7.0,0.0,1.0,1.0,1.0,-2.0,-5.0,-13.0
1701634091.5602334,5.0,-1.0,0.0,0.0,-1.0,-1.0,1.0,2.0
1701634091.5612328,23.0,-1.0,-1.0,-2.0,-2.0,-5.0,-2.0,-23.0
1701634091.5612328,0.0,-2.0,-1.0,-1.0,0.0,-5.0,3.0,27.0
1701634091.5612328,-5.0,-2.0,0.0,-2.0,-1.0,-7.0,-1.0,-2.0
1701634091.5612328,0.0,0.0,-1.0,-2.0,1.0,-4.0,-12.0,-4.0
1701634091.5612328,-3.0,1.0,0.0,-2.0,1.0,2.0,16.0,6.0
1701634091.5612328,-1.0,0.0,0.0,-1.0,-1.0,-4.0,-5.0,3.0
1701634091.5673456,0.0,-1.0,0.0,-1.0,1.0,2.0,-6.0,-25.0
1701634091.5673456,1.0,0.0,-2.0,-2.0,-1.0,-1.0,0.0,-3.0
1701634091.5684583,2.0,-2.0,-1.0,0.0,-1.0,-3.0,0.0,9.0
1701634091.5684583,-8.0,-2.0,-2.0,1.0,1.0,4.0,-3.0,-9.0
1701634091.6310542,5.0,0.0,-2.0,2.0,-3.0,3.0,0.0,5.0
1701634091.6310542,-3.0,-3.0,-2.0,2.0,-3.0,6.0,2.0,4.0
1701634091.6310542,1.0,-2.0,-3.0,1.0,-3.0,5.0,2.0,-3.0
1701634091.6310542,5.0,-1.0,0.0,0.0,-2.0,1.0,-3.0,-7.0
1701634091.6310542,5.0,-2.0,-3.0,1.0,-3.0,2.0,-2.0,5.0
1701634091.6310542,1.0,1.0,-2.0,0.0,-1.0,1.0,0.0,-2.0
1701634091.6310542,-1.0,0.0,-2.0,-1.0,-2.0,-2.0,2.0,5.0
1701634091.6310542,4.0,1.0,-2.0,0.0,-2.0,-1.0,-2.0,-6.0
1701634091.6310542,1.0,-3.0,-1.0,-2.0,0.0,-1.0,1.0,0.0
1701634091.6310542,-9.0,-3.0,-1.0,0.0,-3.0,-1.0,-1.0,-3.0
1701634091.6320567,-2.0,-3.0,-3.0,-1.0,-1.0,-2.0,1.0,12.0
1701634091.6320567,2.0,-2.0,0.0,-1.0,0.0,-2.0,-2.0,1.0
1701634091.6819441,9.0,0.0,-2.0,-1.0,-3.0,-3.0,-1.0,-2.0
1701634091.6819441,-7.0,2.0,1.0,-1.0,-1.0,2.0,4.0,-3.0
1701634091.6819441,-1.0,-1.0,0.0,0.0,-2.0,-2.0,-3.0,-1.0
1701634091.6819441,-2.0,-2.0,-1.0,-1.0,-1.0,-2.0,-2.0,-3.0
1701634091.6819441,-1.0,-2.0,0.0,-1.0,0.0,-1.0,-1.0,3.0
1701634091.6819441,5.0,0.0,-2.0,-1.0,-1.0,-4.0,-5.0,0.0
1701634091.6819441,-7.0,-2.0,-1.0,-1.0,-3.0,-2.0,-1.0,-1.0
1701634091.6819441,-11.0,-4.0,0.0,1.0,0.0,3.0,7.0,-4.0
1701634091.6830523,-5.0,-3.0,0.0,-1.0,0.0,0.0,-6.0,-1.0
1701634091.6830523,7.0,-1.0,-1.0,0.0,-1.0,-1.0,1.0,-8.0
1701634091.693279,2.0,-1.0,-2.0,-1.0,-1.0,-4.0,-3.0,-2.0
1701634091.693279,-1.0,-2.0,-2.0,0.0,-4.0,-5.0,-8.0,-4.0
1701634091.7428286,-2.0,-2.0,-1.0,0.0,-1.0,4.0,7.0,6.0
1701634091.7428286,-1.0,0.0,-1.0,0.0,-1.0,-2.0,-1.0,5.0
1701634091.7428286,0.0,-2.0,0.0,-1.0,0.0,1.0,0.0,-1.0
1701634091.7428286,2.0,-1.0,-2.0,-1.0,0.0,-3.0,-4.0,-6.0
1701634091.7457206,1.0,0.0,-1.0,0.0,0.0,0.0,0.0,2.0
1701634091.7457206,0.0,-2.0,0.0,-1.0,1.0,0.0,-1.0,1.0
1701634091.7457206,-1.0,0.0,0.0,-1.0,-2.0,1.0,0.0,-3.0
1701634091.7457206,1.0,0.0,-1.0,0.0,-2.0,0.0,-2.0,0.0
1701634091.752293,-1.0,1.0,0.0,-1.0,-3.0,0.0,-3.0,-1.0
1701634091.752293,-3.0,-2.0,-2.0,0.0,-1.0,0.0,1.0,0.0
1701634091.752293,0.0,0.0,0.0,-2.0,0.0,0.0,-1.0,-4.0
1701634091.752293,-1.0,0.0,-2.0,-2.0,0.0,0.0,-2.0,0.0
1701634091.8008778,-2.0,-1.0,0.0,-2.0,0.0,-2.0,-2.0,-1.0
1701634091.8008778,-1.0,1.0,0.0,-2.0,0.0,-1.0,-1.0,-3.0
1701634091.8018775,-1.0,0.0,-1.0,-2.0,-1.0,0.0,0.0,0.0
1701634091.8018775,1.0,0.0,0.0,-1.0,0.0,-3.0,-3.0,-2.0
1701634091.8018775,-1.0,-1.0,-1.0,-2.0,-1.0,-2.0,-1.0,-2.0
1701634091.8018775,-4.0,-2.0,0.0,-1.0,-1.0,-2.0,0.0,2.0
1701634091.8018775,-1.0,-1.0,0.0,-2.0,1.0,-2.0,-2.0,0.0
1701634091.8018775,-1.0,1.0,0.0,0.0,0.0,-4.0,-1.0,-2.0
1701634091.840017,-3.0,0.0,1.0,-1.0,-1.0,-2.0,-1.0,-3.0
1701634091.840017,0.0,-2.0,1.0,1.0,0.0,-3.0,-1.0,-1.0
1701634091.840017,-1.0,-2.0,-1.0,1.0,-1.0,-1.0,-2.0,-1.0
1701634091.840017,0.0,-1.0,-1.0,0.0,-2.0,-1.0,-2.0,-4.0
1701634091.840017,-2.0,-1.0,-1.0,-2.0,-1.0,-1.0,-1.0,1.0
1701634091.840017,-3.0,1.0,-1.0,-4.0,-1.0,-3.0,0.0,-1.0
1701634091.840017,-2.0,-1.0,1.0,-3.0,0.0,-3.0,-1.0,-2.0
1701634091.840017,-4.0,-1.0,2.0,-4.0,0.0,-3.0,-2.0,-2.0
1701634091.8530512,-1.0,0.0,-1.0,-1.0,-1.0,-4.0,-1.0,-2.0
1701634091.8539243,-3.0,-1.0,0.0,-3.0,-3.0,-3.0,0.0,-2.0
1701634091.854658,-2.0,1.0,0.0,0.0,-1.0,-3.0,-1.0,-3.0
1701634091.854658,-2.0,0.0,-1.0,-1.0,0.0,0.0,-1.0,-1.0
1701634091.9104798,-1.0,-1.0,0.0,0.0,1.0,-1.0,-2.0,-1.0
1701634091.9104798,-1.0,-3.0,-3.0,0.0,-1.0,-3.0,-1.0,-1.0
1701634091.9104798,2.0,-3.0,-1.0,-1.0,0.0,-2.0,-1.0,0.0
1701634091.9104798,0.0,-2.0,-1.0,-3.0,-2.0,-1.0,-2.0,-3.0
1701634091.9143622,-2.0,0.0,-2.0,-3.0,-3.0,-2.0,-2.0,-1.0
1701634091.9143622,1.0,-1.0,-1.0,-2.0,-1.0,-1.0,0.0,1.0
1701634091.9143622,-3.0,-1.0,-1.0,-2.0,-1.0,-2.0,-2.0,-2.0
1701634091.9143622,-2.0,-1.0,0.0,-3.0,0.0,-4.0,-2.0,-2.0
1701634091.9143622,-2.0,-1.0,-1.0,-3.0,1.0,-4.0,-1.0,0.0
1701634091.9143622,-2.0,0.0,0.0,-2.0,-1.0,-2.0,0.0,-2.0
1701634091.91536,-3.0,-2.0,-1.0,-1.0,1.0,-4.0,-1.0,-2.0
1701634091.91536,1.0,-2.0,-1.0,-3.0,-1.0,-3.0,-1.0,0.0
1701634091.972739,-2.0,-2.0,-1.0,0.0,0.0,-3.0,0.0,-2.0
1701634091.972739,-3.0,-1.0,0.0,1.0,0.0,-1.0,-1.0,0.0
1701634091.972739,0.0,-2.0,-1.0,0.0,0.0,-1.0,0.0,-1.0
1701634091.972739,-1.0,-1.0,-1.0,-2.0,-1.0,1.0,-2.0,0.0
1701634091.972739,1.0,-1.0,-2.0,0.0,0.0,1.0,-1.0,-1.0
1701634091.972739,0.0,-3.0,-1.0,1.0,-2.0,4.0,0.0,-1.0
1701634091.9809484,3.0,-2.0,-4.0,4.0,-3.0,10.0,0.0,-1.0
1701634091.9809484,6.0,-3.0,-4.0,6.0,-2.0,12.0,0.0,-1.0
1701634092.0204191,5.0,-5.0,-5.0,5.0,-4.0,12.0,0.0,1.0
1701634092.0204191,4.0,-3.0,-6.0,3.0,-5.0,6.0,-1.0,0.0
1701634092.0204191,1.0,-1.0,-4.0,1.0,-6.0,2.0,1.0,1.0
1701634092.0204191,0.0,-2.0,-4.0,-2.0,-4.0,-2.0,0.0,1.0
1701634092.0204191,-2.0,0.0,-1.0,-3.0,-2.0,-4.0,-1.0,0.0
1701634092.0204191,0.0,-1.0,-2.0,-1.0,-1.0,-4.0,-2.0,-2.0
1701634092.0204191,-1.0,-1.0,-1.0,-2.0,-1.0,-3.0,-2.0,1.0
1701634092.0204191,-2.0,0.0,-3.0,0.0,0.0,-3.0,0.0,-1.0
1701634092.0204191,-3.0,-2.0,0.0,-2.0,-1.0,-4.0,-1.0,-1.0
1701634092.0214207,-1.0,-1.0,-1.0,-2.0,0.0,-2.0,-2.0,-1.0
1701634092.0214207,-2.0,1.0,0.0,-3.0,0.0,-3.0,-1.0,-1.0
1701634092.0214207,-3.0,-1.0,2.0,-2.0,0.0,-3.0,-1.0,-1.0
1701634092.0757813,0.0,0.0,-1.0,-2.0,0.0,-2.0,-2.0,-1.0
1701634092.0757813,-2.0,0.0,0.0,-1.0,1.0,-2.0,0.0,-1.0
1701634092.0757813,-3.0,-1.0,0.0,-1.0,0.0,-3.0,-1.0,-1.0
1701634092.0757813,-2.0,1.0,-1.0,-2.0,-1.0,0.0,-1.0,1.0
1701634092.0795014,-1.0,0.0,-1.0,0.0,-1.0,-1.0,-1.0,-2.0
1701634092.0795014,-1.0,-2.0,-1.0,0.0,-1.0,1.0,0.0,-2.0
1701634092.0795014,1.0,-2.0,-2.0,0.0,-1.0,0.0,-1.0,-1.0
1701634092.0795014,0.0,-1.0,-3.0,-1.0,-2.0,-1.0,0.0,-1.0
1701634092.0795014,0.0,-2.0,-1.0,-1.0,0.0,0.0,-1.0,-1.0
1701634092.0795014,-1.0,-1.0,-1.0,-2.0,-1.0,-2.0,-2.0,-2.0
1701634092.0795014,0.0,-1.0,-2.0,0.0,0.0,0.0,-1.0,-1.0
1701634092.0795014,-1.0,-1.0,1.0,-2.0,-2.0,0.0,-1.0,0.0
1701634092.1365845,-1.0,1.0,-2.0,-1.0,1.0,0.0,-1.0,0.0
1701634092.1365845,-1.0,-1.0,1.0,-1.0,0.0,-3.0,-1.0,-2.0
1701634092.1365845,-3.0,0.0,-1.0,-3.0,-1.0,0.0,-2.0,-1.0
1701634092.1365845,0.0,-1.0,0.0,-1.0,-1.0,-1.0,-1.0,-2.0
1701634092.1365845,0.0,-1.0,-1.0,-2.0,-2.0,0.0,-1.0,-1.0
1701634092.137583,-3.0,0.0,-2.0,-3.0,0.0,0.0,-1.0,2.0
1701634092.139578,-2.0,-1.0,2.0,-2.0,0.0,-2.0,-1.0,-3.0
1701634092.1405783,-3.0,0.0,1.0,-2.0,-1.0,-4.0,-2.0,-1.0
1701634092.1405783,-2.0,0.0,0.0,-1.0,-1.0,-1.0,-1.0,0.0
1701634092.1405783,-1.0,-1.0,0.0,-1.0,-1.0,-2.0,-1.0,-1.0
1701634092.1638422,-2.0,-1.0,2.0,-1.0,-1.0,-4.0,0.0,0.0
1701634092.1638422,-3.0,-1.0,1.0,-2.0,1.0,-4.0,-2.0,-1.0
1701634092.1638422,-3.0,0.0,-1.0,-3.0,-2.0,-4.0,0.0,0.0
1701634092.1638422,-1.0,0.0,-1.0,-2.0,0.0,-1.0,-1.0,0.0
1701634092.1648886,-1.0,-1.0,-1.0,-2.0,-1.0,-1.0,0.0,-3.0
1701634092.1648886,-3.0,-1.0,-1.0,-2.0,-1.0,-2.0,0.0,-3.0
1701634092.1750917,-3.0,0.0,-1.0,-1.0,0.0,-3.0,0.0,0.0
1701634092.1750917,-1.0,-2.0,-1.0,-2.0,-1.0,0.0,-1.0,0.0
1701634092.1772263,-1.0,-2.0,1.0,-2.0,-1.0,-1.0,-2.0,-2.0
1701634092.1772263,-1.0,-1.0,-1.0,-1.0,0.0,1.0,-2.0,-1.0
1701634092.2408786,0.0,-3.0,1.0,-3.0,-1.0,-2.0,-1.0,-1.0
1701634092.2408786,-3.0,-2.0,1.0,-2.0,0.0,-3.0,-1.0,0.0
1701634092.2408786,-2.0,-2.0,-1.0,-2.0,1.0,-2.0,-2.0,0.0
1701634092.2408786,-2.0,-1.0,0.0,0.0,1.0,-3.0,-1.0,-1.0
1701634092.2408786,0.0,-1.0,-2.0,1.0,-2.0,-2.0,-1.0,0.0
1701634092.2408786,0.0,-1.0,-2.0,-2.0,0.0,-2.0,-1.0,-3.0
1701634092.2408786,-2.0,0.0,-2.0,-2.0,-1.0,-1.0,0.0,-1.0
1701634092.2408786,-1.0,-1.0,-2.0,-1.0,1.0,0.0,-3.0,0.0
1701634092.2408786,0.0,-1.0,-1.0,-1.0,0.0,0.0,-1.0,0.0
1701634092.2408786,-1.0,-2.0,-2.0,-2.0,-1.0,-1.0,-1.0,-1.0
1701634092.2408786,-1.0,-1.0,0.0,-2.0,-1.0,-1.0,-2.0,1.0
1701634092.2408786,0.0,-2.0,-3.0,0.0,-3.0,-1.0,-1.0,0.0
1701634092.241724,-1.0,-1.0,-1.0,0.0,0.0,-1.0,-3.0,-2.0
1701634092.241724,0.0,-1.0,-1.0,0.0,-3.0,-1.0,-1.0,1.0
1701634092.296075,0.0,-1.0,-3.0,0.0,-2.0,2.0,1.0,-2.0
1701634092.297074,-1.0,0.0,0.0,0.0,-1.0,2.0,-2.0,0.0
1701634092.297074,0.0,-1.0,-2.0,-1.0,-1.0,1.0,0.0,1.0
1701634092.297074,1.0,-1.0,-1.0,-1.0,-2.0,1.0,-1.0,-1.0
1701634092.297074,1.0,-1.0,-3.0,1.0,1.0,0.0,-2.0,0.0
1701634092.297074,-1.0,-2.0,-3.0,1.0,-2.0,1.0,-1.0,-1.0
1701634092.297074,0.0,-2.0,-1.0,-1.0,-1.0,1.0,0.0,-1.0
1701634092.297074,-1.0,-1.0,-2.0,0.0,-2.0,3.0,1.0,0.0
1701634092.297074,1.0,0.0,-1.0,0.0,-2.0,1.0,-2.0,-2.0
1701634092.297074,2.0,-2.0,-3.0,0.0,-1.0,1.0,0.0,-1.0
1701634092.3081958,1.0,-2.0,-2.0,-2.0,-2.0,1.0,-2.0,-1.0
1701634092.3081958,-2.0,-1.0,-2.0,-2.0,-1.0,-1.0,0.0,0.0
1701634092.359683,-2.0,-1.0,-1.0,-1.0,-1.0,0.0,-1.0,-2.0
1701634092.359683,0.0,1.0,-2.0,0.0,-1.0,-3.0,-1.0,1.0
1701634092.3675182,-2.0,-2.0,-1.0,-1.0,-2.0,1.0,1.0,0.0
1701634092.3675182,-2.0,0.0,-2.0,0.0,-2.0,-1.0,-1.0,-1.0
1701634092.3675182,-2.0,-2.0,-2.0,-1.0,-1.0,-2.0,-1.0,0.0
1701634092.3675182,-1.0,-1.0,2.0,-1.0,-3.0,-2.0,0.0,-1.0
1701634092.3675182,-1.0,-1.0,-1.0,0.0,-1.0,-1.0,-1.0,0.0
1701634092.3675182,0.0,0.0,-1.0,0.0,-1.0,-1.0,-1.0,0.0
1701634092.3675182,0.0,0.0,-2.0,0.0,-2.0,0.0,-2.0,-1.0
1701634092.3675182,-1.0,-1.0,-2.0,0.0,-2.0,1.0,0.0,-2.0
1701634092.4051442,-1.0,-1.0,-1.0,-1.0,-1.0,-1.0,-1.0,-1.0
1701634092.4051442,0.0,0.0,-3.0,0.0,-1.0,0.0,-2.0,-2.0
1701634092.4051442,-2.0,1.0,0.0,0.0,-2.0,-1.0,1.0,0.0
1701634092.4051442,0.0,-2.0,-2.0,-2.0,-1.0,-2.0,-1.0,-1.0
1701634092.4051442,-1.0,0.0,-1.0,-1.0,-1.0,-2.0,-1.0,0.0
1701634092.4051442,-1.0,0.0,0.0,0.0,1.0,-1.0,-2.0,-1.0
1701634092.4051442,-1.0,-1.0,1.0,-2.0,0.0,-4.0,-3.0,-2.0
1701634092.4051442,-2.0,0.0,0.0,-3.0,-1.0,-2.0,-1.0,-2.0
1701634092.4069617,-3.0,-1.0,0.0,-2.0,0.0,-3.0,0.0,-1.0
1701634092.4069617,-5.0,-1.0,0.0,-2.0,-1.0,-3.0,-2.0,-1.0
1701634092.4172416,-3.0,-1.0,0.0,-2.0,0.0,-4.0,-1.0,-2.0
1701634092.4192677,-3.0,-1.0,2.0,-4.0,-1.0,-2.0,-2.0,-2.0
1701634092.4492736,-2.0,-1.0,0.0,-2.0,0.0,-3.0,-2.0,-2.0
1701634092.4492736,-2.0,0.0,1.0,-3.0,-1.0,-2.0,1.0,-2.0
1701634092.4492736,-2.0,-2.0,-1.0,-2.0,0.0,-2.0,0.0,1.0
1701634092.4492736,-2.0,-1.0,-1.0,-1.0,1.0,-1.0,-2.0,0.0
1701634092.4503706,0.0,-2.0,-1.0,-1.0,-2.0,-1.0,-2.0,0.0
1701634092.4503706,0.0,-2.0,2.0,-3.0,0.0,0.0,-3.0,-3.0
1701634092.4548037,-1.0,-1.0,-2.0,0.0,0.0,-1.0,-1.0,-1.0
1701634092.4548037,-2.0,-1.0,0.0,-1.0,0.0,1.0,0.0,-2.0
1701634092.4690163,0.0,-1.0,-1.0,1.0,-2.0,-1.0,0.0,-1.0
1701634092.4690163,1.0,1.0,-1.0,-2.0,-2.0,-3.0,-2.0,0.0
1701634092.4773383,0.0,-3.0,-3.0,-1.0,-1.0,0.0,-1.0,-2.0
1701634092.4773383,0.0,-1.0,-1.0,-1.0,0.0,-2.0,1.0,-1.0
1701634092.5242581,-1.0,0.0,-1.0,-2.0,-2.0,1.0,0.0,-1.0
1701634092.5242581,0.0,-2.0,-2.0,-1.0,-1.0,2.0,0.0,-2.0
1701634092.5242581,0.0,-1.0,-4.0,-1.0,-3.0,1.0,0.0,0.0
1701634092.5242581,-1.0,-1.0,-1.0,0.0,-1.0,0.0,-1.0,-2.0
1701634092.5242581,1.0,-1.0,0.0,-1.0,1.0,0.0,-1.0,-1.0
1701634092.5242581,1.0,-4.0,-3.0,1.0,-3.0,0.0,0.0,0.0
1701634092.5242581,1.0,-2.0,-1.0,-1.0,-1.0,0.0,1.0,-1.0
1701634092.5242581,0.0,-1.0,-1.0,-1.0,-2.0,1.0,-2.0,-1.0
1701634092.569938,-1.0,-3.0,-2.0,-2.0,-1.0,-1.0,-1.0,-2.0
1701634092.569938,-1.0,-1.0,-1.0,0.0,-1.0,0.0,-2.0,1.0
1701634092.5709875,-2.0,0.0,-1.0,0.0,0.0,-2.0,0.0,-1.0
1701634092.5709875,-1.0,0.0,-1.0,-1.0,-1.0,-1.0,0.0,0.0
1701634092.5709875,-2.0,-2.0,-1.0,-1.0,-1.0,-2.0,-1.0,-1.0
1701634092.5709875,-1.0,-1.0,-1.0,0.0,0.0,-1.0,0.0,-1.0
1701634092.5709875,1.0,-1.0,-1.0,-1.0,-2.0,0.0,-1.0,-2.0
1701634092.5709875,0.0,-1.0,-2.0,-1.0,-1.0,0.0,-2.0,-1.0
1701634092.5709875,-1.0,-1.0,-2.0,-1.0,-1.0,-1.0,-1.0,-1.0
1701634092.5709875,-3.0,-1.0,-1.0,-1.0,-2.0,0.0,0.0,-2.0
1701634092.5751252,-1.0,-1.0,0.0,-1.0,-2.0,0.0,0.0,0.0
1701634092.5751252,0.0,-1.0,-1.0,-1.0,-2.0,-3.0,1.0,0.0
1701634092.6307082,-3.0,1.0,-2.0,0.0,-1.0,-1.0,-1.0,0.0
1701634092.6307082,-1.0,-1.0,-1.0,0.0,0.0,-1.0,0.0,-1.0
1701634092.6307082,0.0,-1.0,-1.0,-1.0,0.0,-1.0,-1.0,-1.0
1701634092.6307082,-2.0,-3.0,-1.0,1.0,-1.0,0.0,0.0,-1.0
1701634092.6307082,-1.0,0.0,-1.0,0.0,-2.0,-3.0,0.0,-2.0
1701634092.6307082,-2.0,-1.0,-1.0,-2.0,-1.0,2.0,-2.0,1.0
1701634092.6307082,-1.0,0.0,-1.0,-1.0,0.0,-1.0,-2.0,0.0
1701634092.6307082,0.0,-1.0,-2.0,1.0,0.0,0.0,-2.0,0.0
1701634092.6317897,1.0,-2.0,0.0,0.0,-1.0,1.0,0.0,-2.0
1701634092.6317897,-1.0,-1.0,0.0,0.0,0.0,-3.0,0.0,-2.0
1701634092.6351037,-2.0,-2.0,-1.0,-1.0,-2.0,0.0,-1.0,-2.0
1701634092.6351037,-2.0,-1.0,0.0,-2.0,-1.0,-2.0,-3.0,0.0
1701634092.691621,-2.0,0.0,0.0,-3.0,-1.0,-2.0,-1.0,0.0
1701634092.691621,-1.0,-1.0,0.0,-2.0,0.0,-4.0,-2.0,0.0
1701634092.691621,-1.0,1.0,2.0,-3.0,-1.0,-6.0,-1.0,0.0
1701634092.691621,-3.0,0.0,-1.0,-4.0,-1.0,-9.0,-1.0,-1.0
1701634092.691621,-3.0,0.0,1.0,-3.0,0.0,-8.0,-1.0,0.0
1701634092.691621,-2.0,-1.0,0.0,-3.0,0.0,-4.0,0.0,-1.0
1701634092.6953769,-1.0,-1.0,0.0,1.0,0.0,2.0,-2.0,-2.0
1701634092.6953769,1.0,-2.0,-1.0,2.0,0.0,5.0,-1.0,-1.0
1701634092.6953769,-1.0,-2.0,-2.0,0.0,-2.0,-1.0,-1.0,-1.0
1701634092.6953769,-2.0,0.0,-1.0,-3.0,-3.0,-3.0,2.0,0.0
1701634092.6953769,6.0,1.0,-1.0,-1.0,-2.0,-3.0,2.0,6.0
1701634092.6953769,-2.0,1.0,-2.0,-3.0,-1.0,-3.0,0.0,-9.0
1701634092.76042,-2.0,0.0,0.0,-2.0,0.0,0.0,-4.0,0.0
1701634092.76042,-4.0,-1.0,0.0,0.0,0.0,-3.0,-9.0,0.0
1701634092.76042,2.0,-3.0,-3.0,0.0,-1.0,7.0,-2.0,-6.0
1701634092.76042,-3.0,-3.0,0.0,1.0,-1.0,10.0,8.0,22.0
1701634092.76042,4.0,-1.0,-2.0,1.0,-2.0,2.0,-2.0,8.0
1701634092.76042,5.0,-2.0,-5.0,1.0,-3.0,10.0,12.0,-8.0
1701634092.76042,-1.0,-2.0,-3.0,0.0,0.0,0.0,-7.0,-8.0
1701634092.7614212,9.0,-2.0,-2.0,-1.0,-3.0,-6.0,-21.0,4.0
1701634092.7614212,-4.0,0.0,-2.0,0.0,-1.0,7.0,12.0,-4.0
1701634092.7615333,-3.0,-1.0,0.0,0.0,0.0,2.0,2.0,2.0
1701634092.7627244,-3.0,-1.0,-2.0,-1.0,-1.0,2.0,1.0,-5.0
1701634092.7627244,2.0,-3.0,-2.0,-1.0,1.0,3.0,6.0,0.0
1701634092.8044949,1.0,2.0,-1.0,0.0,-2.0,-3.0,-6.0,9.0
1701634092.8044949,-6.0,-9.0,0.0,1.0,1.0,-1.0,-5.0,-10.0
1701634092.8044949,2.0,2.0,0.0,-1.0,-1.0,0.0,3.0,3.0
1701634092.8044949,-5.0,0.0,-3.0,-1.0,-2.0,-2.0,-3.0,-6.0
1701634092.8044949,-2.0,1.0,0.0,-1.0,-1.0,-3.0,-6.0,-8.0
1701634092.8044949,5.0,5.0,-1.0,-1.0,-1.0,1.0,4.0,2.0
1701634092.8044949,-50.0,-6.0,-4.0,-1.0,-1.0,-2.0,1.0,-5.0
1701634092.8055446,24.0,5.0,4.0,0.0,-1.0,-4.0,-2.0,-1.0
1701634092.8505702,-11.0,3.0,-10.0,-7.0,-5.0,-9.0,-5.0,-11.0
1701634092.8505702,-4.0,3.0,-1.0,-1.0,-1.0,-5.0,-2.0,1.0
1701634092.8505702,14.0,1.0,-2.0,-3.0,-2.0,-9.0,-2.0,6.0
1701634092.8505702,-12.0,-2.0,0.0,-4.0,1.0,-5.0,4.0,1.0
1701634092.8505702,-5.0,-4.0,-6.0,-4.0,0.0,-5.0,-3.0,-7.0
1701634092.8505702,4.0,-3.0,3.0,0.0,0.0,-5.0,-2.0,7.0
1701634092.8505702,2.0,0.0,3.0,-1.0,-1.0,-2.0,-1.0,5.0
1701634092.8515813,-8.0,-1.0,-2.0,-2.0,-1.0,-2.0,0.0,-9.0
1701634092.8546705,9.0,-1.0,1.0,0.0,-1.0,4.0,-1.0,4.0
1701634092.8546705,-7.0,-1.0,-4.0,-1.0,-2.0,-1.0,-4.0,-2.0
1701634092.859489,5.0,-2.0,-1.0,1.0,1.0,4.0,-1.0,-4.0
1701634092.859489,-3.0,0.0,1.0,1.0,-2.0,2.0,-1.0,-3.0
1701634092.8718245,1.0,-2.0,0.0,2.0,0.0,3.0,1.0,0.0
1701634092.8718245,3.0,-1.0,-3.0,-2.0,-2.0,-3.0,-2.0,-3.0
1701634092.880191,-2.0,0.0,3.0,-1.0,-2.0,-1.0,-1.0,-2.0
1701634092.880191,0.0,-2.0,-2.0,0.0,-1.0,0.0,-1.0,3.0
1701634092.9270573,-2.0,-3.0,2.0,-1.0,-3.0,0.0,1.0,0.0
1701634092.9270573,-4.0,-2.0,-2.0,-2.0,-1.0,-1.0,-1.0,-3.0
1701634092.9270573,8.0,-1.0,0.0,-2.0,-1.0,-3.0,-1.0,3.0
1701634092.9270573,-7.0,-5.0,-3.0,-3.0,-2.0,-2.0,-1.0,-3.0
1701634092.9270573,0.0,-3.0,-10.0,0.0,2.0,0.0,1.0,-2.0
1701634092.928058,-5.0,5.0,29.0,2.0,-2.0,-6.0,-5.0,-5.0
1701634092.928058,2.0,-1.0,-13.0,-2.0,0.0,-3.0,-1.0,-1.0
1701634092.928058,0.0,1.0,4.0,-1.0,0.0,-1.0,-2.0,-1.0
1701634092.9693174,-4.0,-5.0,1.0,1.0,0.0,-3.0,0.0,-2.0
1701634092.9693174,2.0,0.0,-1.0,-1.0,-2.0,0.0,-2.0,2.0
1701634092.9693174,0.0,-2.0,-6.0,2.0,0.0,-1.0,-1.0,1.0
1701634092.9693174,-2.0,-5.0,-35.0,-8.0,3.0,2.0,0.0,-4.0
1701634092.9693174,1.0,4.0,42.0,-4.0,-2.0,-2.0,-3.0,-2.0
1701634092.9693174,0.0,0.0,-16.0,5.0,0.0,-1.0,1.0,1.0
1701634092.9703655,-1.0,0.0,10.0,-3.0,-1.0,0.0,-1.0,-2.0
1701634092.9703655,0.0,-5.0,-7.0,2.0,-1.0,-1.0,0.0,-1.0
1701634093.0171292,4.0,-1.0,6.0,6.0,4.0,1.0,0.0,2.0
1701634093.0171292,-4.0,-5.0,-5.0,0.0,-2.0,0.0,-3.0,-3.0
1701634093.0171292,0.0,4.0,-2.0,-4.0,-1.0,0.0,1.0,0.0
1701634093.0171292,2.0,1.0,12.0,7.0,0.0,-2.0,-1.0,0.0
1701634093.0171292,-3.0,-5.0,-33.0,-5.0,-4.0,-2.0,-1.0,-3.0
1701634093.0171292,0.0,-1.0,14.0,-4.0,-2.0,-2.0,-1.0,0.0
1701634093.0171292,-1.0,-7.0,-51.0,-9.0,-3.0,-2.0,-2.0,1.0
1701634093.0171292,-3.0,3.0,13.0,-2.0,-3.0,-2.0,0.0,-2.0
1701634093.0171292,-4.0,-4.0,9.0,5.0,-1.0,-2.0,-1.0,-2.0
1701634093.0171292,-1.0,3.0,14.0,3.0,-1.0,-3.0,0.0,-1.0
1701634093.0214684,-4.0,-1.0,16.0,-1.0,-1.0,-1.0,-2.0,-2.0
1701634093.0214684,-1.0,3.0,-10.0,-3.0,1.0,-2.0,2.0,-1.0
1701634093.081213,-3.0,-8.0,-17.0,2.0,-3.0,-2.0,-3.0,-1.0
1701634093.081213,0.0,-2.0,-8.0,0.0,2.0,3.0,1.0,1.0
1701634093.081213,1.0,-3.0,20.0,1.0,-1.0,0.0,-2.0,0.0
1701634093.081213,2.0,-3.0,13.0,4.0,-2.0,-1.0,-1.0,-1.0
1701634093.081213,-1.0,-3.0,-2.0,1.0,0.0,0.0,-1.0,-1.0
1701634093.081213,-2.0,4.0,-10.0,-13.0,-3.0,-2.0,-2.0,0.0
1701634093.081213,-2.0,0.0,24.0,6.0,-2.0,-1.0,-3.0,-1.0
1701634093.0822666,-1.0,6.0,5.0,-5.0,-1.0,-2.0,-1.0,1.0
1701634093.0894053,1.0,-5.0,-19.0,-7.0,-2.0,1.0,0.0,0.0
1701634093.0894053,2.0,-4.0,-6.0,-2.0,-1.0,-1.0,0.0,0.0
1701634093.0894053,1.0,-2.0,-16.0,2.0,1.0,1.0,0.0,-1.0
1701634093.0894053,-3.0,-3.0,6.0,-3.0,-2.0,0.0,-2.0,-2.0
1701634093.1363914,2.0,6.0,6.0,5.0,1.0,3.0,0.0,0.0
1701634093.1363914,-3.0,-4.0,-8.0,0.0,-2.0,0.0,-2.0,-3.0
1701634093.1363914,0.0,-1.0,0.0,1.0,-2.0,2.0,-1.0,0.0
1701634093.1363914,-1.0,0.0,2.0,2.0,-2.0,3.0,-1.0,0.0
1701634093.1363914,0.0,-1.0,4.0,-1.0,-2.0,4.0,0.0,-1.0
1701634093.1363914,1.0,-6.0,-3.0,0.0,-1.0,3.0,0.0,-1.0
1701634093.1363914,0.0,-3.0,-6.0,-3.0,-3.0,1.0,0.0,0.0
1701634093.1363914,-2.0,-2.0,7.0,2.0,-2.0,2.0,0.0,-1.0
1701634093.1363914,-1.0,1.0,21.0,1.0,-1.0,-2.0,-2.0,3.0
1701634093.1363914,-3.0,-3.0,-16.0,-6.0,-2.0,-3.0,0.0,-2.0
1701634093.137185,-2.0,0.0,4.0,0.0,0.0,-4.0,-1.0,-1.0
1701634093.137185,-3.0,-3.0,-6.0,-2.0,0.0,-3.0,-2.0,-2.0
1701634093.1995502,-1.0,3.0,8.0,0.0,-2.0,-5.0,-1.0,0.0
1701634093.1995502,-2.0,0.0,1.0,2.0,0.0,-2.0,-1.0,1.0
1701634093.2031264,-2.0,0.0,0.0,-4.0,-1.0,-6.0,-1.0,-4.0
1701634093.2031264,-1.0,-3.0,-2.0,0.0,-1.0,-4.0,-2.0,0.0
1701634093.2031264,-3.0,1.0,-9.0,-6.0,-1.0,-4.0,-2.0,-3.0
1701634093.2031264,-1.0,-2.0,5.0,2.0,0.0,-1.0,-1.0,-2.0
1701634093.2031264,0.0,1.0,-6.0,1.0,-1.0,-1.0,0.0,0.0
1701634093.2031264,-1.0,-2.0,-8.0,-2.0,0.0,-2.0,-2.0,-1.0
1701634093.2031264,-2.0,0.0,-3.0,-3.0,-1.0,-2.0,-2.0,-2.0
1701634093.2031264,0.0,-3.0,-7.0,-1.0,-2.0,-2.0,-1.0,-2.0
1701634093.2031264,-1.0,0.0,4.0,0.0,1.0,-1.0,-1.0,-1.0
1701634093.2031264,-3.0,0.0,-2.0,-2.0,-1.0,-3.0,-1.0,-2.0
1701634093.2437148,-2.0,1.0,-5.0,-1.0,-2.0,-4.0,-1.0,0.0
1701634093.2437148,-2.0,0.0,1.0,1.0,0.0,0.0,-1.0,1.0
1701634093.2437148,-1.0,0.0,-1.0,1.0,-1.0,-1.0,-3.0,-2.0
1701634093.2437148,-2.0,-2.0,-1.0,-1.0,-2.0,3.0,-1.0,-1.0
1701634093.2437148,0.0,-1.0,-6.0,1.0,-1.0,4.0,0.0,-4.0
1701634093.2437148,1.0,-1.0,-4.0,-1.0,0.0,3.0,0.0,-1.0
1701634093.2437148,-1.0,-1.0,1.0,-1.0,-3.0,4.0,0.0,0.0
1701634093.2437148,0.0,0.0,-6.0,-2.0,-2.0,0.0,-2.0,0.0
1701634093.2484708,-2.0,0.0,0.0,-2.0,-2.0,-1.0,0.0,-1.0
1701634093.2484708,-2.0,0.0,-1.0,-3.0,-3.0,-6.0,-1.0,0.0
1701634093.2571106,-1.0,-1.0,3.0,-2.0,-3.0,-4.0,0.0,-2.0
1701634093.2571106,-3.0,-1.0,1.0,-4.0,-1.0,-3.0,-1.0,-1.0
1701634093.3044372,-3.0,1.0,-2.0,-2.0,0.0,-2.0,-2.0,-1.0
1701634093.3044372,-1.0,-1.0,0.0,0.0,1.0,0.0,-2.0,-1.0
1701634093.3044372,-1.0,0.0,-3.0,-2.0,-1.0,-3.0,-2.0,-1.0
1701634093.3044372,-1.0,0.0,-2.0,0.0,-2.0,-3.0,0.0,-1.0
1701634093.3044372,0.0,0.0,-1.0,-2.0,-1.0,-2.0,-1.0,-2.0
1701634093.3044372,-1.0,1.0,-1.0,0.0,0.0,-1.0,-1.0,-1.0
1701634093.3054354,-1.0,-1.0,-1.0,1.0,-1.0,1.0,-3.0,-3.0
1701634093.3054354,-1.0,-1.0,-1.0,-1.0,-1.0,0.0,-2.0,-4.0
1701634093.3155932,-2.0,-2.0,-2.0,-2.0,-1.0,0.0,-2.0,0.0
1701634093.3155932,0.0,-1.0,0.0,0.0,-2.0,-2.0,0.0,-1.0
1701634093.3180468,1.0,-1.0,0.0,-1.0,-1.0,0.0,-1.0,3.0
1701634093.3180468,-1.0,-1.0,0.0,-1.0,0.0,0.0,-2.0,-4.0
1701634093.3653371,1.0,-2.0,-3.0,-2.0,0.0,0.0,-1.0,-2.0
1701634093.3653371,-1.0,-2.0,0.0,-1.0,-2.0,-2.0,-2.0,0.0
1701634093.3653371,-3.0,-2.0,-2.0,0.0,-3.0,-1.0,-3.0,0.0
1701634093.3653371,0.0,-2.0,-1.0,-1.0,-1.0,-2.0,-1.0,1.0
1701634093.3653371,-1.0,-2.0,1.0,2.0,-1.0,-1.0,-1.0,0.0
1701634093.3653371,0.0,-2.0,-5.0,-2.0,0.0,0.0,-2.0,-1.0
1701634093.3653371,-2.0,-2.0,1.0,0.0,-1.0,-1.0,0.0,0.0
1701634093.3653371,3.0,-1.0,-1.0,-1.0,-2.0,0.0,-2.0,0.0
1701634093.368102,0.0,0.0,-1.0,-1.0,-2.0,0.0,-2.0,-3.0
1701634093.368102,-1.0,-1.0,-1.0,0.0,-2.0,-1.0,-1.0,-1.0
1701634093.377664,-2.0,-1.0,-3.0,0.0,1.0,1.0,0.0,-3.0
1701634093.377664,-1.0,-1.0,-2.0,-1.0,-1.0,0.0,-2.0,-2.0
1701634093.4226272,-2.0,0.0,-1.0,0.0,-3.0,0.0,-2.0,1.0
1701634093.4226272,1.0,-2.0,1.0,1.0,-1.0,0.0,1.0,-1.0
1701634093.4226272,1.0,0.0,-1.0,-1.0,0.0,0.0,0.0,-2.0
1701634093.4226272,-1.0,-1.0,-2.0,-1.0,-3.0,-1.0,0.0,0.0
1701634093.4226272,0.0,-2.0,-2.0,0.0,-1.0,-2.0,-1.0,0.0
1701634093.4226272,-3.0,0.0,0.0,0.0,-2.0,-1.0,0.0,0.0
1701634093.4226272,-1.0,-1.0,-2.0,-1.0,-3.0,-1.0,0.0,0.0
1701634093.4226272,0.0,-1.0,-1.0,1.0,-3.0,0.0,-1.0,-1.0
1701634093.456474,-1.0,0.0,-3.0,0.0,-2.0,-1.0,-1.0,-3.0
1701634093.456474,-1.0,1.0,-3.0,-1.0,0.0,-1.0,0.0,-1.0
1701634093.456474,0.0,-1.0,0.0,-1.0,0.0,0.0,-1.0,-1.0
1701634093.456474,-1.0,-1.0,-3.0,-2.0,0.0,0.0,-1.0,-1.0
1701634093.4638155,0.0,1.0,1.0,-1.0,-1.0,0.0,-1.0,1.0
1701634093.4638155,0.0,0.0,-1.0,-1.0,-3.0,-1.0,-2.0,-1.0
1701634093.4638155,-1.0,0.0,-1.0,-1.0,-2.0,0.0,-1.0,-1.0
1701634093.4638155,-2.0,1.0,-2.0,-1.0,0.0,-1.0,-1.0,-2.0
1701634093.4649572,-1.0,-1.0,-3.0,-3.0,-1.0,-1.0,0.0,-1.0
1701634093.4649572,-1.0,-1.0,1.0,0.0,-2.0,1.0,-1.0,0.0
1701634093.4766579,-2.0,-2.0,-1.0,0.0,-1.0,-2.0,-3.0,-1.0
1701634093.4766579,-1.0,-2.0,-1.0,1.0,-2.0,-2.0,0.0,0.0
1701634093.53082,-2.0,0.0,-1.0,-4.0,-1.0,-2.0,-2.0,-2.0
1701634093.53082,-3.0,-1.0,-1.0,-2.0,0.0,-2.0,-1.0,-1.0
1701634093.53082,-2.0,-1.0,0.0,-4.0,0.0,-4.0,-1.0,-1.0
1701634093.53082,-2.0,-1.0,2.0,-2.0,0.0,-1.0,-3.0,-2.0
1701634093.53082,-3.0,-1.0,1.0,-1.0,-1.0,-1.0,-3.0,-1.0
1701634093.53082,-1.0,-1.0,1.0,-2.0,-2.0,0.0,-3.0,-2.0
1701634093.53082,-2.0,-1.0,-1.0,0.0,0.0,0.0,0.0,-1.0
1701634093.53082,-1.0,0.0,-1.0,-1.0,0.0,-1.0,0.0,-1.0
1701634093.531819,1.0,-1.0,-1.0,-1.0,-2.0,-2.0,-1.0,-1.0
1701634093.531819,-1.0,-2.0,-1.0,0.0,1.0,-3.0,0.0,-1.0
1701634093.533851,0.0,0.0,1.0,-1.0,-2.0,-4.0,-1.0,-1.0
1701634093.533851,-1.0,-1.0,0.0,-3.0,0.0,-2.0,-2.0,0.0
1701634093.5873904,-1.0,-1.0,0.0,0.0,1.0,0.0,-1.0,-1.0
1701634093.5873904,0.0,0.0,-1.0,-2.0,-1.0,-2.0,-3.0,0.0
1701634093.5873904,-1.0,-1.0,-2.0,-1.0,-1.0,-2.0,-1.0,1.0
1701634093.5873904,-1.0,-1.0,-1.0,-1.0,-2.0,-3.0,1.0,0.0
1701634093.5873904,-2.0,0.0,-1.0,-2.0,0.0,-1.0,-1.0,-1.0
1701634093.5873904,-2.0,-1.0,-2.0,-3.0,1.0,-5.0,-1.0,1.0
1701634093.5873904,-4.0,-1.0,-1.0,-3.0,-1.0,-4.0,0.0,-1.0
1701634093.5873904,-4.0,-1.0,0.0,-2.0,0.0,-4.0,-3.0,-1.0
1701634093.5923789,1.0,1.0,0.0,0.0,-1.0,0.0,-1.0,-1.0
1701634093.593382,0.0,0.0,-1.0,-1.0,-2.0,5.0,-1.0,-2.0
1701634093.6018283,0.0,-2.0,-2.0,1.0,0.0,5.0,0.0,0.0
1701634093.6018283,2.0,-2.0,-2.0,0.0,-1.0,3.0,-1.0,0.0
1701634093.6548188,1.0,-3.0,-2.0,-1.0,-2.0,3.0,-1.0,-1.0
1701634093.6548188,2.0,0.0,-2.0,1.0,-3.0,2.0,0.0,0.0
1701634093.6548188,1.0,-2.0,-3.0,0.0,-3.0,1.0,-1.0,-1.0
1701634093.6548188,1.0,-2.0,-1.0,1.0,-2.0,1.0,0.0,-1.0
1701634093.6583288,0.0,-2.0,-3.0,-1.0,-2.0,0.0,1.0,0.0
1701634093.6583288,0.0,-2.0,-1.0,0.0,-2.0,-1.0,0.0,-1.0
1701634093.6583288,-1.0,-1.0,-2.0,0.0,-2.0,0.0,0.0,-1.0
1701634093.6583288,0.0,-1.0,-1.0,0.0,-2.0,-2.0,1.0,-1.0
1701634093.6988451,0.0,-2.0,-3.0,0.0,-3.0,-2.0,-1.0,0.0
1701634093.6988451,-1.0,-2.0,-3.0,0.0,-1.0,0.0,-1.0,0.0
1701634093.6988451,0.0,-1.0,-1.0,0.0,-1.0,1.0,-1.0,-1.0
1701634093.6988451,-1.0,0.0,-2.0,-1.0,-1.0,1.0,-1.0,-1.0
1701634093.6988451,-1.0,-2.0,-2.0,0.0,-1.0,-1.0,1.0,-1.0
1701634093.6988451,-1.0,0.0,-1.0,0.0,-1.0,1.0,0.0,-1.0
1701634093.6988451,0.0,-1.0,-1.0,-2.0,-2.0,-2.0,-1.0,-1.0
1701634093.6988451,0.0,-1.0,-1.0,-1.0,-2.0,-2.0,-1.0,-1.0
1701634093.6988451,0.0,-1.0,0.0,-2.0,0.0,-3.0,-3.0,-1.0
1701634093.6988451,-1.0,0.0,-1.0,-1.0,-2.0,0.0,-1.0,-1.0
1701634093.6999412,-2.0,-1.0,-2.0,0.0,0.0,0.0,0.0,-1.0
1701634093.6999412,-2.0,0.0,-1.0,-2.0,0.0,-3.0,-1.0,0.0
1701634093.738415,-2.0,-1.0,1.0,-3.0,0.0,-3.0,0.0,0.0
1701634093.738415,-1.0,-2.0,0.0,-1.0,-1.0,-2.0,-1.0,-2.0
1701634093.738415,-1.0,0.0,0.0,1.0,-1.0,0.0,-1.0,-2.0
1701634093.738415,-1.0,-1.0,-1.0,0.0,-2.0,2.0,-2.0,-1.0
1701634093.7394166,0.0,-1.0,-1.0,1.0,-1.0,1.0,-2.0,-2.0
1701634093.7394166,1.0,-2.0,-2.0,0.0,-1.0,-2.0,-1.0,-3.0
1701634093.7447076,-2.0,0.0,-2.0,-2.0,0.0,-2.0,0.0,-2.0
1701634093.7447076,-1.0,-1.0,-2.0,-2.0,-1.0,-1.0,1.0,1.0
1701634093.7890055,-3.0,-2.0,-1.0,-3.0,0.0,-2.0,0.0,-1.0
1701634093.7890055,-2.0,1.0,-1.0,-2.0,-1.0,0.0,0.0,0.0
1701634093.7890055,0.0,-2.0,0.0,0.0,-2.0,-1.0,-2.0,-2.0
1701634093.7890055,-2.0,-2.0,-1.0,-2.0,-1.0,-1.0,1.0,0.0
1701634093.7890055,-4.0,2.0,0.0,-2.0,1.0,-3.0,-1.0,-3.0
1701634093.7890055,-3.0,0.0,0.0,-2.0,1.0,-5.0,-3.0,-2.0
1701634093.7890055,-1.0,0.0,1.0,-2.0,-1.0,-4.0,-1.0,1.0
1701634093.7890055,-2.0,-2.0,0.0,-2.0,-1.0,-2.0,-1.0,-1.0
1701634093.7907724,-1.0,-2.0,-2.0,-2.0,-2.0,-1.0,0.0,-1.0
1701634093.7907724,-2.0,0.0,-2.0,-2.0,0.0,-4.0,-1.0,-2.0
1701634093.8012211,-1.0,-1.0,-1.0,-2.0,0.0,-2.0,-2.0,0.0
1701634093.802478,0.0,-1.0,-1.0,0.0,0.0,-1.0,-1.0,-2.0
1701634093.8119044,-1.0,-1.0,-1.0,-1.0,-1.0,0.0,-3.0,0.0
1701634093.8119044,-1.0,-2.0,-2.0,0.0,-1.0,2.0,-2.0,-1.0
1701634093.8197389,-1.0,-3.0,-4.0,1.0,-1.0,2.0,-1.0,-1.0
1701634093.8197389,2.0,-1.0,-3.0,1.0,-1.0,1.0,-3.0,2.0
1701634093.8545127,-7.0,-6.0,-2.0,-2.0,-1.0,-2.0,0.0,-5.0
1701634093.8545127,16.0,2.0,0.0,-3.0,-1.0,-4.0,-1.0,6.0
1701634093.8545127,-12.0,0.0,1.0,-5.0,-2.0,-8.0,-2.0,-4.0
1701634093.8545127,-7.0,1.0,0.0,-3.0,0.0,-8.0,0.0,-2.0
1701634093.8549027,-6.0,4.0,-2.0,-6.0,0.0,-8.0,-2.0,3.0
1701634093.8549027,-13.0,-1.0,3.0,-3.0,1.0,-8.0,5.0,18.0
1701634093.8574271,47.0,3.0,-2.0,-6.0,1.0,-12.0,-4.0,2.0
1701634093.8574271,-7.0,2.0,4.0,-2.0,2.0,-6.0,2.0,9.0
1701634093.9084904,7.0,4.0,2.0,-4.0,-3.0,-9.0,-6.0,-33.0
1701634093.9084904,-24.0,-8.0,4.0,1.0,2.0,0.0,-4.0,-17.0
1701634093.9094913,8.0,3.0,0.0,1.0,0.0,5.0,-1.0,12.0
1701634093.9094913,2.0,-1.0,-1.0,0.0,0.0,7.0,-4.0,-9.0
1701634093.9094913,-1.0,-4.0,-2.0,3.0,0.0,13.0,2.0,14.0
1701634093.9094913,11.0,-2.0,-6.0,2.0,-2.0,11.0,-1.0,0.0
1701634093.9094913,-13.0,-3.0,-3.0,2.0,-1.0,9.0,-1.0,-10.0
1701634093.9094913,5.0,-4.0,-2.0,-1.0,-5.0,5.0,-3.0,-3.0
1701634093.9094913,-1.0,-1.0,-4.0,2.0,-2.0,5.0,3.0,7.0
1701634093.9094913,3.0,-1.0,-4.0,-2.0,-4.0,3.0,-2.0,-6.0
1701634093.9187036,-8.0,0.0,18.0,3.0,-3.0,3.0,1.0,-2.0
