1701634542.5600195,-31.0,28.0,92.0,-20.0,-9.0,-7.0,-5.0,-3.0
1701634542.5600195,49.0,20.0,-20.0,30.0,14.0,0.0,10.0,6.0
1701634542.5600195,-12.0,-86.0,-15.0,0.0,4.0,12.0,23.0,14.0
1701634542.5600195,22.0,21.0,34.0,0.0,-6.0,-8.0,-24.0,-24.0
1701634542.5701075,9.0,3.0,3.0,-38.0,-8.0,-6.0,-9.0,0.0
1701634542.5701075,-19.0,30.0,-58.0,-3.0,-1.0,-5.0,7.0,3.0
1701634542.58,-10.0,26.0,47.0,-3.0,5.0,22.0,2.0,-4.0
1701634542.58,10.0,-38.0,-7.0,12.0,-3.0,-6.0,10.0,3.0
1701634542.6000056,0.0,32.0,17.0,-13.0,-4.0,2.0,-4.0,-5.0
1701634542.6000056,-27.0,-33.0,3.0,20.0,3.0,0.0,-4.0,2.0
1701634542.6000056,22.0,16.0,31.0,-37.0,-6.0,-8.0,-2.0,7.0
1701634542.6000056,-5.0,1.0,-16.0,-10.0,-5.0,-3.0,-12.0,-15.0
1701634542.6099935,10.0,23.0,-49.0,-7.0,-3.0,-2.0,-5.0,-3.0
1701634542.6099935,-2.0,-1.0,55.0,8.0,-3.0,0.0,6.0,-2.0
1701634542.6300898,-17.0,4.0,-13.0,-15.0,-6.0,-10.0,-3.0,4.0
1701634542.6300898,-12.0,-6.0,-75.0,-11.0,-7.0,1.0,-6.0,-4.0
1701634542.6400533,5.0,-7.0,63.0,26.0,8.0,-4.0,2.0,-1.0
1701634542.6400533,-9.0,15.0,-11.0,-19.0,-2.0,3.0,-13.0,-41.0
1701634542.6400533,29.0,-3.0,-4.0,7.0,0.0,5.0,6.0,72.0
1701634542.6400533,6.0,8.0,18.0,5.0,0.0,4.0,12.0,-7.0
1701634542.6600482,-5.0,-21.0,-56.0,18.0,3.0,-3.0,-16.0,-5.0
1701634542.6600482,-14.0,-1.0,71.0,-4.0,1.0,2.0,28.0,6.0
1701634542.6600482,-2.0,5.0,-25.0,-1.0,-6.0,-6.0,-16.0,-19.0
1701634542.6600482,0.0,-6.0,-4.0,2.0,2.0,9.0,18.0,8.0
1701634542.6700935,-12.0,-7.0,-4.0,-60.0,-24.0,-22.0,-22.0,-10.0
1701634542.6700935,6.0,-32.0,-53.0,41.0,23.0,2.0,-16.0,-3.0
1701634542.6801348,11.0,31.0,23.0,38.0,5.0,-8.0,-8.0,-12.0
1701634542.6801348,-8.0,-16.0,-8.0,14.0,2.0,-2.0,-1.0,14.0
1701634542.7000623,19.0,12.0,49.0,4.0,5.0,12.0,14.0,0.0
1701634542.7000623,-13.0,-14.0,-43.0,-40.0,-23.0,-15.0,-22.0,-7.0
1701634542.7000623,-6.0,12.0,5.0,-23.0,-8.0,-10.0,0.0,-4.0
1701634542.7000623,8.0,-30.0,5.0,5.0,11.0,24.0,12.0,3.0
1701634542.7400591,-5.0,14.0,-15.0,15.0,6.0,-5.0,-3.0,0.0
1701634542.7400591,0.0,4.0,18.0,-3.0,-11.0,-16.0,1.0,-1.0
1701634542.7400591,-15.0,-3.0,17.0,5.0,0.0,19.0,8.0,-3.0
1701634542.7400591,10.0,28.0,39.0,2.0,2.0,22.0,10.0,4.0
1701634542.7400591,-3.0,-74.0,-77.0,-24.0,-8.0,-24.0,-3.0,27.0
1701634542.7400591,-5.0,38.0,-18.0,-4.0,-6.0,-8.0,-32.0,-43.0
1701634542.7400591,8.0,-1.0,-21.0,-1.0,5.0,14.0,34.0,-17.0
1701634542.7400591,-17.0,-2.0,25.0,7.0,7.0,28.0,21.0,24.0
1701634542.7500916,7.0,13.0,3.0,12.0,7.0,27.0,28.0,21.0
1701634542.7500916,10.0,22.0,35.0,-6.0,-8.0,-31.0,-23.0,10.0
1701634542.7600634,3.0,-4.0,4.0,13.0,6.0,-11.0,-19.0,-8.0
1701634542.7600634,16.0,-10.0,4.0,0.0,0.0,-12.0,1.0,6.0
1701634542.780059,-17.0,8.0,-18.0,-6.0,-3.0,12.0,6.0,-18.0
1701634542.780059,0.0,-4.0,4.0,-8.0,-5.0,6.0,9.0,4.0
1701634542.780059,-13.0,13.0,18.0,15.0,2.0,-20.0,-26.0,-5.0
1701634542.780059,-4.0,-31.0,32.0,-15.0,-8.0,-5.0,17.0,-10.0
1701634542.7900918,-5.0,-17.0,-25.0,-6.0,1.0,12.0,-1.0,0.0
1701634542.7900918,5.0,17.0,47.0,4.0,4.0,18.0,17.0,11.0
1701634542.800419,-19.0,-46.0,-38.0,-33.0,-7.0,-13.0,-17.0,-14.0
1701634542.800419,-3.0,9.0,10.0,38.0,5.0,-21.0,-8.0,1.0
1701634542.8200698,-6.0,-18.0,9.0,6.0,0.0,-5.0,-4.0,-13.0
1701634542.8200698,23.0,22.0,17.0,4.0,3.0,19.0,15.0,12.0
1701634542.8211095,-12.0,-5.0,18.0,3.0,0.0,-7.0,1.0,3.0
1701634542.8211095,-22.0,-10.0,-56.0,-23.0,-15.0,-42.0,-35.0,-15.0
1701634542.846476,11.0,19.0,22.0,20.0,10.0,46.0,42.0,12.0
1701634542.846476,8.0,8.0,-12.0,0.0,4.0,8.0,-5.0,-21.0
1701634542.846476,-6.0,1.0,43.0,5.0,-5.0,-14.0,-4.0,6.0
1701634542.846476,-5.0,17.0,-20.0,-8.0,-2.0,-7.0,-12.0,-5.0
1701634542.8565035,-21.0,-28.0,7.0,1.0,-3.0,-8.0,-14.0,-11.0
1701634542.8565035,7.0,-20.0,9.0,3.0,5.0,21.0,30.0,20.0
1701634542.8665216,-9.0,2.0,-4.0,-1.0,0.0,7.0,-12.0,-28.0
1701634542.8665216,5.0,-13.0,-86.0,-29.0,-12.0,-9.0,8.0,48.0
1701634542.8769374,4.0,32.0,22.0,3.0,-3.0,-27.0,-25.0,-28.0
1701634542.8769374,-37.0,-25.0,-13.0,-6.0,-7.0,-31.0,-39.0,-9.0
1701634542.8769374,5.0,1.0,0.0,14.0,16.0,40.0,48.0,-3.0
1701634542.8769374,14.0,84.0,77.0,6.0,9.0,17.0,17.0,1.0
1701634542.9073706,7.0,-9.0,8.0,-9.0,-10.0,-12.0,-21.0,-9.0
1701634542.9073706,-1.0,-1.0,-12.0,37.0,11.0,3.0,14.0,16.0
1701634542.9073706,12.0,49.0,-16.0,11.0,8.0,-4.0,-18.0,13.0
1701634542.9073706,7.0,-81.0,-53.0,-57.0,-18.0,-13.0,-13.0,-3.0
1701634542.917201,-55.0,2.0,82.0,61.0,3.0,-3.0,-6.0,-18.0
1701634542.917201,33.0,61.0,-14.0,-60.0,-10.0,2.0,6.0,5.0
1701634542.917201,-19.0,1.0,100.0,14.0,-10.0,-16.0,-13.0,-7.0
1701634542.917201,6.0,10.0,51.0,-3.0,-4.0,0.0,-1.0,-8.0
1701634542.9372845,-1.0,-85.0,-78.0,28.0,19.0,6.0,10.0,10.0
1701634542.9372845,-14.0,29.0,52.0,1.0,-3.0,-1.0,-6.0,-3.0
1701634542.946951,27.0,4.0,-74.0,-84.0,-33.0,-14.0,-7.0,3.0
1701634542.946951,-18.0,-11.0,106.0,54.0,25.0,-2.0,-13.0,-17.0
1701634542.956982,19.0,-10.0,-60.0,16.0,-10.0,7.0,26.0,29.0
1701634542.956982,-20.0,-49.0,-89.0,18.0,20.0,-1.0,-31.0,-26.0
1701634542.956982,15.0,30.0,106.0,-20.0,-7.0,-9.0,1.0,11.0
1701634542.956982,-4.0,-27.0,-51.0,10.0,9.0,7.0,-3.0,-18.0
1701634542.977371,-7.0,32.0,20.0,-68.0,-26.0,-11.0,7.0,7.0
1701634542.977371,26.0,21.0,-54.0,21.0,16.0,13.0,8.0,12.0
1701634542.977371,-17.0,-24.0,-62.0,16.0,5.0,-4.0,-12.0,-9.0
1701634542.977371,-16.0,-87.0,-118.0,-40.0,-16.0,-6.0,-4.0,-6.0
1701634542.9973462,21.0,59.0,-36.0,-31.0,7.0,5.0,8.0,0.0
1701634542.9973462,-12.0,-3.0,47.0,20.0,-15.0,-7.0,0.0,6.0
1701634543.0069475,-7.0,-56.0,45.0,21.0,5.0,3.0,-1.0,-8.0
1701634543.0069475,10.0,53.0,-59.0,-3.0,2.0,1.0,-2.0,-9.0
1701634543.016946,10.0,24.0,73.0,-26.0,-7.0,-7.0,-6.0,8.0
1701634543.016946,-12.0,-33.0,47.0,-24.0,-22.0,-9.0,-2.0,0.0
1701634543.016946,25.0,33.0,-59.0,32.0,30.0,24.0,16.0,5.0
1701634543.016946,11.0,-19.0,-5.0,9.0,-3.0,1.0,3.0,8.0
1701634543.037375,19.0,40.0,120.0,24.0,17.0,3.0,-15.0,-28.0
1701634543.037375,-40.0,5.0,-65.0,-51.0,-34.0,-21.0,-8.0,1.0
1701634543.037375,-18.0,-19.0,65.0,33.0,-1.0,-6.0,-1.0,6.0
1701634543.037375,16.0,-12.0,84.0,0.0,0.0,5.0,-4.0,-5.0
1701634543.0573668,8.0,63.0,-97.0,1.0,4.0,0.0,-5.0,-5.0
1701634543.0573668,11.0,-12.0,89.0,19.0,5.0,7.0,7.0,6.0
1701634543.066948,11.0,-3.0,-12.0,-30.0,-4.0,-1.0,-5.0,0.0
1701634543.066948,-36.0,-38.0,-86.0,-12.0,-9.0,-14.0,-15.0,-20.0
1701634543.07698,11.0,-21.0,62.0,34.0,7.0,4.0,6.0,13.0
1701634543.07698,21.0,70.0,39.0,-10.0,7.0,8.0,12.0,7.0
1701634543.07698,-25.0,-24.0,-8.0,-41.0,-26.0,-21.0,-17.0,-10.0
1701634543.07698,-5.0,18.0,15.0,0.0,6.0,3.0,2.0,1.0
1701634543.0972562,-3.0,-43.0,9.0,46.0,10.0,-1.0,-6.0,-10.0
1701634543.0972562,-12.0,-16.0,6.0,-23.0,-11.0,-10.0,-1.0,-2.0
1701634543.0972562,0.0,-42.0,-113.0,-20.0,8.0,11.0,9.0,-1.0
1701634543.0972562,9.0,64.0,113.0,13.0,-16.0,-10.0,-11.0,2.0
1701634543.1169477,-18.0,-38.0,-116.0,-19.0,-3.0,-3.0,-4.0,-12.0
1701634543.1169477,21.0,-5.0,-3.0,1.0,3.0,5.0,7.0,6.0
1701634543.1169477,-8.0,-12.0,28.0,21.0,4.0,-14.0,-15.0,-7.0
1701634543.1169477,1.0,9.0,-9.0,4.0,-2.0,1.0,8.0,1.0
1701634543.1372733,-7.0,-23.0,-16.0,-15.0,4.0,11.0,1.0,10.0
1701634543.1372733,0.0,-24.0,-30.0,10.0,-5.0,-13.0,-11.0,-14.0
1701634543.1372733,2.0,35.0,-60.0,-4.0,0.0,-11.0,-2.0,2.0
1701634543.1372733,3.0,-4.0,-31.0,-2.0,5.0,16.0,5.0,8.0
1701634543.1645103,-10.0,1.0,50.0,2.0,1.0,27.0,31.0,1.0
1701634543.1645103,-1.0,-21.0,-46.0,5.0,9.0,-5.0,-5.0,3.0
1701634543.165508,2.0,20.0,21.0,-7.0,-4.0,8.0,3.0,-7.0
1701634543.1665084,-9.0,-8.0,-12.0,7.0,-7.0,-26.0,-34.0,0.0
1701634543.1845047,3.0,-7.0,-35.0,-34.0,-11.0,-26.0,-23.0,-2.0
1701634543.1845047,-1.0,-18.0,23.0,11.0,0.0,12.0,11.0,-6.0
1701634543.185259,-6.0,16.0,42.0,27.0,-1.0,11.0,17.0,2.0
1701634543.185259,11.0,4.0,-23.0,-15.0,-1.0,-2.0,1.0,4.0
1701634543.20178,-6.0,21.0,51.0,12.0,1.0,2.0,-5.0,-4.0
1701634543.20178,-51.0,-45.0,13.0,-14.0,-6.0,-18.0,-8.0,-4.0
1701634543.2035182,1.0,20.0,-68.0,-11.0,-2.0,-13.0,-12.0,-4.0
1701634543.2035182,16.0,-1.0,-23.0,-6.0,-5.0,1.0,-5.0,-8.0
1701634543.224244,-13.0,-5.0,6.0,-19.0,-1.0,11.0,9.0,-3.0
1701634543.224244,36.0,-7.0,-4.0,3.0,-2.0,6.0,9.0,5.0
1701634543.2262764,-7.0,-27.0,11.0,5.0,1.0,23.0,24.0,7.0
1701634543.2262764,-23.0,5.0,36.0,5.0,2.0,-18.0,-22.0,-26.0
1701634543.2402546,8.0,15.0,8.0,2.0,-5.0,-27.0,-21.0,9.0
1701634543.2402546,-8.0,-36.0,-25.0,-17.0,-8.0,-27.0,-41.0,2.0
1701634543.2452588,28.0,1.0,19.0,11.0,11.0,50.0,42.0,19.0
1701634543.2452588,33.0,14.0,-17.0,-4.0,-2.0,0.0,24.0,-2.0
1701634543.2620766,-35.0,0.0,28.0,-3.0,-10.0,-8.0,-24.0,-11.0
1701634543.2620766,28.0,41.0,-20.0,-3.0,1.0,0.0,1.0,8.0
1701634543.2630372,-7.0,-2.0,-27.0,-47.0,-14.0,-30.0,-27.0,6.0
1701634543.2630372,4.0,21.0,57.0,36.0,11.0,15.0,15.0,6.0
1701634543.2930954,-15.0,-30.0,-55.0,9.0,3.0,1.0,-5.0,-12.0
1701634543.294095,-36.0,-28.0,24.0,3.0,1.0,6.0,-2.0,-9.0
1701634543.2961185,20.0,9.0,35.0,-8.0,-4.0,-22.0,-19.0,-9.0
1701634543.2961185,5.0,-13.0,-74.0,-29.0,-5.0,9.0,5.0,5.0
1701634543.298178,-15.0,18.0,-7.0,-1.0,-4.0,-2.0,9.0,4.0
1701634543.298178,7.0,-26.0,-38.0,12.0,14.0,14.0,16.0,19.0
1701634543.3056338,-59.0,-94.0,-68.0,-75.0,-34.0,-23.0,-25.0,-35.0
1701634543.3056338,-13.0,2.0,41.0,38.0,8.0,-1.0,-1.0,-14.0
1701634543.3222272,53.0,-13.0,-44.0,18.0,20.0,11.0,15.0,24.0
1701634543.3222272,27.0,2.0,-21.0,29.0,4.0,-2.0,-16.0,-6.0
1701634543.3232262,-6.0,7.0,42.0,6.0,-4.0,9.0,8.0,11.0
1701634543.3232262,-16.0,-8.0,-7.0,-13.0,-13.0,-11.0,-6.0,-5.0
1701634543.3443656,13.0,26.0,-47.0,-9.0,-10.0,-4.0,16.0,-1.0
1701634543.3443656,-14.0,-7.0,-33.0,-51.0,7.0,13.0,18.0,7.0
1701634543.3453672,-19.0,-22.0,26.0,50.0,6.0,-9.0,-24.0,-18.0
1701634543.3453672,1.0,-50.0,8.0,20.0,12.0,3.0,-1.0,8.0
1701634543.3599906,-34.0,69.0,127.0,-37.0,-31.0,-6.0,-5.0,-8.0
1701634543.3599906,-2.0,-8.0,-39.0,-2.0,10.0,16.0,31.0,17.0
1701634543.3695095,32.0,19.0,59.0,25.0,-11.0,-10.0,-7.0,-1.0
1701634543.3695095,26.0,21.0,-10.0,-38.0,-2.0,-3.0,-20.0,-4.0
1701634543.3795638,-12.0,-101.0,-43.0,-9.0,2.0,-8.0,-7.0,-8.0
1701634543.3795638,-6.0,51.0,-47.0,-32.0,-27.0,-5.0,-9.0,-9.0
1701634543.3795638,-2.0,70.0,126.0,82.0,46.0,18.0,26.0,15.0
1701634543.3795638,10.0,-26.0,21.0,2.0,4.0,11.0,23.0,16.0
1701634543.4195037,5.0,-43.0,-101.0,-32.0,-9.0,-9.0,-15.0,1.0
1701634543.4195037,-51.0,-68.0,-2.0,3.0,-8.0,-15.0,-29.0,-21.0
1701634543.4195037,2.0,22.0,-45.0,-35.0,-19.0,-9.0,1.0,2.0
1701634543.4195037,15.0,37.0,90.0,56.0,21.0,12.0,4.0,10.0
1701634543.4195037,-24.0,3.0,-23.0,-10.0,1.0,-6.0,-4.0,-10.0
1701634543.4195037,41.0,21.0,49.0,-42.0,-20.0,1.0,13.0,6.0
1701634543.4195037,32.0,44.0,14.0,81.0,38.0,10.0,-2.0,9.0
1701634543.4195037,-41.0,-29.0,-86.0,-47.0,-10.0,-9.0,-7.0,-8.0
1701634543.4398417,3.0,39.0,127.0,34.0,4.0,7.0,9.0,7.0
1701634543.4398417,17.0,32.0,-14.0,0.0,-1.0,0.0,-8.0,-4.0
1701634543.4398417,-13.0,-27.0,-26.0,-36.0,-2.0,9.0,21.0,3.0
1701634543.4398417,-4.0,-6.0,-29.0,-7.0,-20.0,-14.0,-18.0,-8.0
1701634543.4595065,13.0,16.0,-6.0,19.0,17.0,-3.0,-12.0,1.0
1701634543.4595065,-18.0,-1.0,-3.0,11.0,1.0,-32.0,-12.0,-11.0
1701634543.4595065,-8.0,-7.0,-32.0,-15.0,6.0,56.0,33.0,3.0
1701634543.4595065,-9.0,-17.0,-5.0,-8.0,0.0,3.0,15.0,14.0
1701634543.4697113,5.0,14.0,9.0,1.0,-7.0,-69.0,-73.0,-20.0
1701634543.4697113,-1.0,-14.0,35.0,18.0,5.0,31.0,21.0,1.0
1701634543.4795394,-4.0,2.0,-16.0,1.0,-4.0,-6.0,-11.0,-20.0
1701634543.4795394,-11.0,-8.0,-39.0,-37.0,-13.0,15.0,16.0,6.0
1701634543.5195088,19.0,-4.0,-28.0,7.0,10.0,-4.0,-7.0,-23.0
1701634543.5195088,-9.0,33.0,68.0,16.0,-5.0,-63.0,-51.0,3.0
1701634543.5195088,-14.0,-10.0,-2.0,5.0,-5.0,20.0,12.0,-3.0
1701634543.5195088,11.0,10.0,-18.0,6.0,0.0,7.0,2.0,-3.0
1701634543.5195088,12.0,-16.0,-40.0,-19.0,-9.0,5.0,7.0,-19.0
1701634543.5195088,-3.0,11.0,37.0,15.0,3.0,-27.0,-10.0,-2.0
1701634543.5195088,1.0,2.0,-44.0,-27.0,-19.0,-32.0,-27.0,5.0
1701634543.5195088,-16.0,-21.0,32.0,9.0,9.0,50.0,41.0,-17.0
1701634543.5295417,1.0,34.0,-9.0,7.0,8.0,34.0,25.0,11.0
1701634543.5295417,7.0,-12.0,-49.0,7.0,13.0,22.0,23.0,6.0
1701634543.5398278,-3.0,-26.0,-54.0,-24.0,-10.0,-36.0,-37.0,-25.0
1701634543.5398278,-11.0,14.0,70.0,3.0,-19.0,-54.0,-42.0,31.0
1701634543.559546,26.0,-8.0,-38.0,29.0,16.0,39.0,34.0,14.0
1701634543.559546,1.0,8.0,84.0,9.0,-2.0,20.0,8.0,-3.0
1701634543.559546,-20.0,-37.0,-46.0,-21.0,0.0,-15.0,-8.0,11.0
1701634543.559546,-7.0,-5.0,-34.0,-13.0,-13.0,-20.0,-16.0,-23.0
1701634543.5795069,2.0,22.0,103.0,24.0,1.0,10.0,13.0,7.0
1701634543.5795069,20.0,4.0,-4.0,-6.0,10.0,18.0,14.0,12.0
1701634543.5795069,3.0,-61.0,-20.0,1.0,6.0,3.0,6.0,4.0
1701634543.5795069,-23.0,23.0,-2.0,0.0,-31.0,-29.0,-19.0,-22.0
1701634543.589541,-3.0,-34.0,-25.0,-6.0,13.0,3.0,3.0,12.0
1701634543.589541,11.0,20.0,52.0,-5.0,-15.0,11.0,2.0,-9.0
1701634543.5997581,-21.0,-5.0,-29.0,-62.0,-29.0,-23.0,-9.0,-6.0
1701634543.5997581,17.0,1.0,-66.0,16.0,44.0,35.0,11.0,6.0
1701634543.6195078,-36.0,-27.0,-55.0,25.0,-17.0,-24.0,-17.0,-11.0
1701634543.6195078,14.0,28.0,49.0,62.0,22.0,12.0,12.0,2.0
1701634543.6195078,7.0,71.0,-26.0,-29.0,-12.0,6.0,10.0,12.0
1701634543.6195078,16.0,-63.0,-27.0,7.0,18.0,7.0,-3.0,-4.0
1701634543.6398776,22.0,58.0,34.0,-34.0,-10.0,6.0,5.0,3.0
1701634543.6398776,-55.0,-101.0,-128.0,-128.0,-46.0,-15.0,-10.0,-20.0
1701634543.6398776,7.0,88.0,127.0,127.0,13.0,-5.0,-14.0,-4.0
1701634543.6398776,14.0,19.0,7.0,35.0,20.0,5.0,28.0,16.0
1701634543.6497836,-63.0,-84.0,-98.0,-57.0,-14.0,-11.0,-15.0,-24.0
1701634543.6497836,-21.0,52.0,85.0,12.0,1.0,1.0,2.0,-2.0
1701634543.6597443,47.0,99.0,26.0,9.0,10.0,5.0,6.0,14.0
1701634543.6597443,-13.0,17.0,72.0,-2.0,2.0,0.0,-10.0,-11.0
1701634543.6895034,-1.0,-16.0,-12.0,-42.0,-12.0,0.0,18.0,15.0
1701634543.6895034,-10.0,-63.0,-29.0,-83.0,-30.0,-15.0,-11.0,-2.0
1701634543.6895034,5.0,-5.0,54.0,82.0,47.0,18.0,-5.0,-8.0
1701634543.6895034,33.0,48.0,-7.0,-15.0,-24.0,1.0,-1.0,3.0
1701634543.7047474,-31.0,69.0,52.0,-11.0,22.0,10.0,7.0,10.0
1701634543.7047474,2.0,-90.0,-89.0,-5.0,-10.0,7.0,22.0,9.0
1701634543.7057407,-46.0,-80.0,-75.0,-5.0,-5.0,-20.0,-34.0,-33.0
1701634543.7057407,30.0,50.0,15.0,-61.0,-36.0,-11.0,8.0,11.0
1701634543.717564,16.0,38.0,92.0,77.0,36.0,5.0,-19.0,-1.0
1701634543.717564,12.0,10.0,24.0,79.0,41.0,10.0,0.0,-13.0
1701634543.7269435,11.0,-52.0,-95.0,-78.0,-22.0,-7.0,10.0,17.0
1701634543.7269435,1.0,-18.0,-11.0,-18.0,1.0,3.0,4.0,7.0
1701634543.741725,-9.0,-8.0,11.0,-6.0,-25.0,-24.0,-17.0,-22.0
1701634543.741725,24.0,50.0,18.0,-22.0,-8.0,11.0,15.0,25.0
1701634543.7479002,6.0,-14.0,-26.0,17.0,15.0,9.0,17.0,7.0
1701634543.7479002,-29.0,16.0,60.0,-1.0,-11.0,-18.0,-38.0,-36.0
1701634543.764404,21.0,-20.0,-18.0,-18.0,-13.0,-10.0,-4.0,4.0
1701634543.764404,15.0,64.0,58.0,63.0,25.0,9.0,-10.0,-17.0
1701634543.765921,-12.0,-35.0,-49.0,-33.0,-2.0,6.0,8.0,14.0
1701634543.765921,16.0,-20.0,-29.0,5.0,3.0,-3.0,10.0,10.0
1701634543.7782762,-7.0,-13.0,4.0,-24.0,-8.0,-3.0,-6.0,0.0
1701634543.7782762,-22.0,8.0,6.0,40.0,7.0,-7.0,-25.0,-31.0
1701634543.7935436,29.0,15.0,61.0,-1.0,0.0,4.0,17.0,30.0
1701634543.7935436,14.0,37.0,60.0,5.0,3.0,2.0,3.0,20.0
1701634543.8022203,-35.0,-102.0,-128.0,-22.0,-10.0,-16.0,-14.0,-16.0
1701634543.8032186,1.0,10.0,65.0,-23.0,1.0,8.0,13.0,-11.0
1701634543.8032186,-5.0,-25.0,31.0,71.0,4.0,3.0,-3.0,-32.0
1701634543.8032186,-27.0,-54.0,-91.0,-39.0,-6.0,-4.0,-5.0,31.0
1701634543.8245273,-11.0,-2.0,26.0,1.0,-6.0,-3.0,-2.0,-13.0
1701634543.8245273,-1.0,-8.0,-68.0,-26.0,-4.0,-7.0,-14.0,-13.0
1701634543.825527,-1.0,10.0,98.0,-17.0,-11.0,-20.0,-25.0,-21.0
1701634543.825527,9.0,11.0,-15.0,12.0,14.0,19.0,32.0,32.0
1701634543.8548148,-4.0,13.0,66.0,20.0,4.0,11.0,9.0,-1.0
1701634543.8548148,17.0,-14.0,-105.0,-21.0,-6.0,-17.0,2.0,16.0
1701634543.8548148,-21.0,-16.0,-26.0,-9.0,4.0,6.0,-11.0,-4.0
1701634543.8548148,-3.0,22.0,38.0,-11.0,-6.0,-1.0,-7.0,-39.0
1701634543.8615751,26.0,21.0,-29.0,-18.0,-7.0,-5.0,-15.0,14.0
1701634543.8615751,-14.0,-2.0,61.0,33.0,2.0,-12.0,2.0,3.0
1701634543.8627033,0.0,-5.0,-46.0,-27.0,1.0,6.0,20.0,19.0
1701634543.8637137,-10.0,-5.0,-20.0,-1.0,-4.0,9.0,-7.0,-24.0
1701634543.8840475,7.0,17.0,31.0,-12.0,2.0,23.0,20.0,16.0
1701634543.8840475,-7.0,-20.0,-33.0,46.0,13.0,0.0,-4.0,-14.0
1701634543.8858058,11.0,9.0,-67.0,-60.0,-23.0,-21.0,-17.0,7.0
1701634543.8858058,-24.0,-35.0,87.0,19.0,-2.0,-78.0,-47.0,-23.0
1701634543.9141505,23.0,31.0,-30.0,6.0,9.0,88.0,70.0,47.0
1701634543.9141505,-2.0,5.0,30.0,-3.0,0.0,-1.0,-2.0,-9.0
1701634543.9141505,-7.0,11.0,-14.0,-43.0,-11.0,-1.0,-3.0,-7.0
1701634543.9141505,-4.0,-29.0,51.0,26.0,3.0,-7.0,7.0,2.0
1701634543.9226139,17.0,-26.0,-17.0,8.0,1.0,-27.0,-29.0,-4.0
1701634543.9226139,-16.0,34.0,49.0,-15.0,-10.0,30.0,26.0,16.0
1701634543.9236581,6.0,8.0,-61.0,-45.0,-14.0,2.0,1.0,-18.0
1701634543.9236581,-14.0,-5.0,28.0,30.0,-4.0,-4.0,-5.0,-4.0
1701634543.9451766,14.0,-32.0,5.0,29.0,17.0,-27.0,-30.0,-6.0
1701634543.9451766,-6.0,26.0,-20.0,-3.0,1.0,0.0,6.0,8.0
1701634543.9462287,9.0,-7.0,41.0,1.0,-1.0,20.0,14.0,0.0
1701634543.9462287,-1.0,0.0,-67.0,-27.0,-4.0,0.0,-7.0,-9.0
1701634543.974911,0.0,-9.0,28.0,13.0,-5.0,0.0,0.0,-5.0
1701634543.974911,20.0,43.0,-6.0,15.0,8.0,-11.0,-7.0,10.0
1701634543.974911,-11.0,19.0,20.0,5.0,-4.0,16.0,28.0,-5.0
1701634543.974911,22.0,31.0,-39.0,0.0,10.0,15.0,10.0,27.0
1701634543.9809096,-20.0,-27.0,22.0,7.0,-7.0,-13.0,-3.0,-21.0
1701634543.9809096,13.0,-21.0,-23.0,-13.0,5.0,-4.0,-21.0,1.0
1701634543.9877613,9.0,10.0,30.0,1.0,6.0,-14.0,-9.0,3.0
1701634543.9877613,-27.0,6.0,1.0,37.0,-1.0,7.0,-4.0,-22.0
1701634544.0039995,13.0,-8.0,118.0,54.0,9.0,-11.0,2.0,7.0
1701634544.0039995,-21.0,1.0,-100.0,-61.0,-23.0,-3.0,5.0,-7.0
1701634544.0059118,-9.0,-10.0,40.0,25.0,7.0,-5.0,-20.0,-9.0
1701634544.0059118,-7.0,-19.0,48.0,-38.0,-21.0,1.0,11.0,5.0
1701634544.0290992,-4.0,25.0,12.0,21.0,7.0,-9.0,-5.0,-4.0
1701634544.0290992,13.0,-19.0,10.0,8.0,-1.0,1.0,-5.0,-4.0
1701634544.0290992,-4.0,-21.0,-46.0,3.0,0.0,-1.0,3.0,6.0
1701634544.0290992,-6.0,9.0,-28.0,-47.0,-16.0,-8.0,-5.0,-6.0
1701634544.043735,-13.0,-21.0,-30.0,0.0,-1.0,-5.0,1.0,1.0
1701634544.043735,0.0,55.0,-7.0,-4.0,-1.0,6.0,-12.0,-8.0
1701634544.0493584,9.0,-22.0,53.0,-28.0,-3.0,-3.0,5.0,2.0
1701634544.0493584,14.0,15.0,-69.0,76.0,29.0,7.0,-1.0,2.0
1701634544.064355,-12.0,-29.0,1.0,-24.0,-9.0,-4.0,1.0,-6.0
1701634544.064355,24.0,22.0,3.0,17.0,7.0,-2.0,2.0,23.0
1701634544.0928848,-33.0,-49.0,20.0,-9.0,-7.0,-9.0,-6.0,-22.0
1701634544.0928848,20.0,45.0,17.0,-3.0,13.0,12.0,-6.0,2.0
1701634544.093886,-6.0,58.0,22.0,-5.0,-16.0,-7.0,9.0,-2.0
1701634544.093886,-13.0,14.0,76.0,10.0,5.0,1.0,6.0,4.0
1701634544.093886,3.0,48.0,-59.0,17.0,2.0,-6.0,-10.0,7.0
1701634544.093886,39.0,-22.0,26.0,-8.0,5.0,-1.0,-13.0,-6.0
1701634544.102395,-18.0,-57.0,-15.0,-7.0,9.0,29.0,19.0,-5.0
1701634544.102395,-7.0,-30.0,-44.0,-31.0,-16.0,-11.0,-6.0,-3.0
1701634544.107761,-12.0,-60.0,18.0,21.0,1.0,1.0,-1.0,2.0
1701634544.107761,-22.0,7.0,-30.0,-16.0,-3.0,-7.0,9.0,2.0
1701634544.1273065,1.0,13.0,-2.0,-10.0,-11.0,-25.0,-24.0,-3.0
1701634544.1273065,1.0,-32.0,19.0,6.0,2.0,4.0,-7.0,-23.0
1701634544.1302605,2.0,-29.0,-61.0,8.0,14.0,4.0,8.0,20.0
1701634544.1302605,4.0,6.0,58.0,5.0,-4.0,-11.0,-4.0,-7.0
1701634544.1471314,9.0,21.0,-36.0,-24.0,-12.0,11.0,16.0,-6.0
1701634544.1471314,-11.0,-60.0,8.0,11.0,12.0,13.0,10.0,-2.0
1701634544.1481416,-5.0,72.0,10.0,13.0,-4.0,-10.0,-23.0,0.0
1701634544.1481416,12.0,17.0,99.0,18.0,9.0,13.0,35.0,29.0
1701634544.161288,-53.0,5.0,-56.0,-50.0,-20.0,-26.0,-46.0,-45.0
1701634544.161288,56.0,30.0,10.0,-3.0,-5.0,-32.0,-25.0,31.0
1701634544.1677074,2.0,-4.0,81.0,14.0,-7.0,-25.0,-45.0,-3.0
1701634544.1677074,-9.0,22.0,-9.0,14.0,16.0,61.0,73.0,7.0
1701634544.1836743,1.0,-33.0,-69.0,-15.0,0.0,1.0,5.0,-3.0
1701634544.1836743,35.0,-9.0,-13.0,2.0,1.0,4.0,8.0,9.0
1701634544.185676,-25.0,22.0,-4.0,1.0,-5.0,-18.0,-20.0,-9.0
1701634544.185676,-13.0,-1.0,39.0,7.0,0.0,-13.0,-26.0,-8.0
1701634544.206819,-3.0,-11.0,-3.0,-31.0,-16.0,-17.0,-4.0,-9.0
1701634544.206819,-20.0,-46.0,-35.0,0.0,1.0,9.0,7.0,17.0
1701634544.2085755,28.0,62.0,60.0,12.0,9.0,10.0,5.0,-22.0
1701634544.2085755,-18.0,-43.0,-50.0,-15.0,-11.0,-11.0,-28.0,-24.0
1701634544.2213619,42.0,21.0,-9.0,9.0,10.0,16.0,21.0,25.0
1701634544.2213619,2.0,0.0,27.0,-1.0,-5.0,-11.0,-11.0,-1.0
1701634544.227957,-27.0,17.0,21.0,-27.0,-6.0,15.0,35.0,16.0
1701634544.227957,-11.0,3.0,1.0,14.0,-23.0,-8.0,4.0,5.0
1701634544.2528837,26.0,62.0,91.0,40.0,27.0,-3.0,-36.0,-14.0
1701634544.2528837,-19.0,7.0,-4.0,-12.0,0.0,4.0,6.0,-14.0
1701634544.2538843,38.0,15.0,-52.0,16.0,6.0,14.0,35.0,31.0
1701634544.2538843,-37.0,-35.0,-3.0,-1.0,-8.0,-14.0,-37.0,-35.0
1701634544.2679484,16.0,20.0,51.0,-5.0,-10.0,8.0,35.0,30.0
1701634544.2679484,26.0,-6.0,68.0,37.0,9.0,0.0,-11.0,-7.0
1701634544.269976,-69.0,-76.0,-93.0,-50.0,-11.0,-15.0,-34.0,-41.0
1701634544.269976,-5.0,-22.0,7.0,-32.0,-14.0,-10.0,-22.0,-4.0
1701634544.2824466,32.0,-29.0,14.0,49.0,7.0,7.0,15.0,15.0
1701634544.2824466,-21.0,-14.0,-63.0,-20.0,10.0,6.0,13.0,-6.0
1701634544.296082,24.0,37.0,32.0,-10.0,-28.0,-5.0,29.0,22.0
1701634544.296082,9.0,-6.0,21.0,17.0,33.0,6.0,-21.0,-12.0
1701634544.304697,-37.0,-80.0,-76.0,-61.0,-30.0,-11.0,-8.0,1.0
1701634544.304697,1.0,50.0,76.0,22.0,-4.0,-2.0,-1.0,-10.0
1701634544.3066473,28.0,-4.0,-23.0,-34.0,-3.0,-4.0,-14.0,-14.0
1701634544.3076398,-11.0,-23.0,-10.0,7.0,-1.0,7.0,54.0,35.0
1701634544.3362842,7.0,-11.0,-59.0,-30.0,9.0,2.0,-35.0,-14.0
1701634544.3362842,-17.0,33.0,102.0,38.0,4.0,4.0,16.0,10.0
1701634544.3362842,-6.0,-43.0,33.0,-18.0,-7.0,-9.0,-20.0,-19.0
1701634544.3362842,3.0,23.0,-91.0,-57.0,-9.0,-2.0,-4.0,-4.0
1701634544.3452828,-9.0,-47.0,90.0,60.0,4.0,-3.0,6.0,4.0
1701634544.3452828,-34.0,22.0,-88.0,-52.0,-26.0,-7.0,8.0,3.0
1701634544.3492625,24.0,31.0,122.0,84.0,24.0,9.0,-13.0,-18.0
1701634544.3492625,15.0,-29.0,-128.0,-58.0,5.0,10.0,18.0,-1.0
1701634544.364156,12.0,36.0,70.0,-14.0,-5.0,-6.0,-7.0,28.0
1701634544.364156,-12.0,-33.0,5.0,-34.0,-13.0,-6.0,-14.0,-13.0
1701634544.3661916,0.0,26.0,-33.0,52.0,5.0,-1.0,10.0,4.0
1701634544.3661916,-13.0,-9.0,-76.0,-31.0,-13.0,-10.0,-15.0,-6.0
1701634544.3864522,-4.0,-19.0,96.0,19.0,7.0,2.0,3.0,2.0
1701634544.3864522,-8.0,-3.0,11.0,8.0,4.0,0.0,-2.0,-1.0
1701634544.3885016,12.0,-26.0,-117.0,-33.0,17.0,12.0,13.0,22.0
1701634544.3885016,1.0,12.0,94.0,43.0,-7.0,-19.0,-19.0,-1.0
1701634544.4118109,-15.0,20.0,25.0,21.0,6.0,18.0,14.0,-24.0
1701634544.4118109,-5.0,-3.0,-6.0,-14.0,-10.0,-13.0,-24.0,11.0
1701634544.4118109,-7.0,-11.0,-62.0,-15.0,3.0,8.0,11.0,-15.0
1701634544.4118109,22.0,9.0,47.0,36.0,14.0,1.0,-4.0,8.0
1701634544.4244137,-20.0,-1.0,-49.0,-12.0,-6.0,-14.0,-8.0,-19.0
1701634544.4244137,10.0,-47.0,-60.0,-8.0,-2.0,18.0,25.0,4.0
1701634544.4259741,1.0,57.0,77.0,19.0,4.0,13.0,5.0,13.0
1701634544.4259741,1.0,-26.0,-12.0,-10.0,-7.0,-10.0,-1.0,-5.0
1701634544.44712,14.0,49.0,-75.0,-30.0,8.0,6.0,-15.0,3.0
1701634544.44712,-7.0,1.0,-25.0,30.0,-5.0,-10.0,-4.0,-15.0
1701634544.4483943,16.0,-32.0,-6.0,3.0,5.0,1.0,9.0,14.0
1701634544.4483943,-27.0,26.0,34.0,-44.0,-41.0,-16.0,-15.0,-36.0
1701634544.4605205,10.0,-1.0,-96.0,17.0,43.0,8.0,0.0,10.0
1701634544.4605205,-10.0,-11.0,69.0,35.0,1.0,4.0,17.0,7.0
1701634544.4693348,-17.0,-10.0,10.0,-30.0,-20.0,-38.0,-47.0,-40.0
1701634544.4693348,5.0,1.0,47.0,-6.0,0.0,24.0,27.0,36.0
1701634544.484426,-1.0,-43.0,-58.0,-11.0,-17.0,0.0,0.0,-11.0
1701634544.485386,5.0,21.0,72.0,-19.0,-2.0,-9.0,-30.0,-26.0
1701634544.485386,1.0,12.0,73.0,23.0,7.0,8.0,19.0,12.0
1701634544.485386,-29.0,6.0,14.0,-18.0,-17.0,-18.0,-16.0,-35.0
1701634544.506569,-11.0,-66.0,-1.0,-8.0,-14.0,-14.0,9.0,19.0
1701634544.506569,-1.0,-43.0,-74.0,-53.0,-16.0,-1.0,-11.0,-12.0
1701634544.5077245,-12.0,-38.0,8.0,4.0,0.0,-9.0,-7.0,-2.0
1701634544.5077245,-12.0,54.0,-26.0,-1.0,18.0,16.0,19.0,1.0
1701634544.5295832,21.0,43.0,1.0,13.0,1.0,1.0,-21.0,-25.0
1701634544.5295832,15.0,2.0,20.0,10.0,1.0,-4.0,1.0,14.0
1701634544.5305817,-23.0,14.0,55.0,-4.0,-1.0,4.0,-1.0,-20.0
1701634544.5305817,19.0,-17.0,-30.0,24.0,16.0,11.0,11.0,20.0
1701634544.5440845,-12.0,-17.0,27.0,-8.0,-15.0,-11.0,-10.0,-19.0
1701634544.5440845,-1.0,32.0,-6.0,13.0,9.0,4.0,9.0,9.0
1701634544.545759,18.0,-1.0,-8.0,6.0,-2.0,-19.0,-6.0,23.0
1701634544.545759,1.0,-19.0,-13.0,-1.0,6.0,37.0,24.0,-7.0
1701634544.5693693,-7.0,21.0,70.0,-2.0,-6.0,-8.0,9.0,21.0
1701634544.5693693,-10.0,-112.0,-90.0,-62.0,-18.0,11.0,-1.0,-19.0
1701634544.5693693,15.0,40.0,-26.0,64.0,41.0,20.0,15.0,19.0
1701634544.5693693,-7.0,-20.0,15.0,8.0,3.0,-23.0,-24.0,0.0
1701634544.5794013,-10.0,-12.0,-59.0,-36.0,-24.0,-18.0,-5.0,-6.0
1701634544.5794013,-12.0,-12.0,-1.0,-16.0,8.0,5.0,6.0,1.0
1701634544.5893745,-5.0,-29.0,-33.0,0.0,-9.0,9.0,16.0,24.0
1701634544.5893745,4.0,-11.0,-12.0,-7.0,-9.0,-17.0,-37.0,-26.0
1701634544.5998347,-1.0,28.0,61.0,12.0,11.0,14.0,27.0,24.0
1701634544.5998347,11.0,22.0,45.0,12.0,-2.0,-9.0,-1.0,0.0
1701634544.5998347,-53.0,-71.0,-88.0,-18.0,-8.0,-2.0,-17.0,-37.0
1701634544.5998347,11.0,25.0,74.0,4.0,-10.0,-13.0,-2.0,-1.0
1701634544.6298466,-11.0,-3.0,-16.0,-10.0,-4.0,-3.0,4.0,-4.0
1701634544.6298466,-6.0,47.0,90.0,39.0,10.0,0.0,-12.0,-5.0
1701634544.6298466,19.0,18.0,-84.0,-34.0,-6.0,0.0,-10.0,-6.0
1701634544.6298466,9.0,-19.0,56.0,25.0,7.0,5.0,20.0,26.0
1701634544.6402054,-11.0,-18.0,-19.0,2.0,3.0,14.0,19.0,-15.0
1701634544.6402054,10.0,51.0,10.0,-6.0,6.0,-3.0,-25.0,8.0
1701634544.6498497,-13.0,12.0,53.0,-10.0,-7.0,4.0,4.0,0.0
1701634544.6498497,36.0,19.0,0.0,39.0,12.0,-1.0,9.0,24.0
1701634544.6598482,4.0,30.0,15.0,-3.0,-1.0,-16.0,-26.0,-25.0
1701634544.6598482,-14.0,-14.0,-54.0,6.0,4.0,28.0,31.0,10.0
1701634544.6598482,-7.0,-39.0,36.0,-16.0,-10.0,-11.0,-5.0,18.0
1701634544.6598482,20.0,34.0,30.0,-16.0,2.0,8.0,8.0,4.0
1701634544.67988,-12.0,12.0,-15.0,17.0,0.0,-11.0,-16.0,-7.0
1701634544.67988,10.0,-4.0,-24.0,18.0,14.0,3.0,6.0,-5.0
1701634544.67988,-27.0,-37.0,-18.0,-35.0,-13.0,0.0,7.0,-9.0
1701634544.67988,4.0,-37.0,-17.0,28.0,16.0,9.0,-7.0,0.0
1701634544.699846,13.0,46.0,82.0,8.0,-3.0,-7.0,-11.0,-4.0
1701634544.699846,7.0,28.0,35.0,2.0,4.0,6.0,15.0,-7.0
1701634544.699846,-5.0,-44.0,-12.0,-19.0,-14.0,-6.0,-8.0,-10.0
1701634544.699846,-49.0,-30.0,-24.0,-2.0,1.0,-6.0,-10.0,-13.0
1701634544.719884,31.0,9.0,17.0,-23.0,-3.0,5.0,4.0,9.0
1701634544.719884,5.0,48.0,-81.0,28.0,-1.0,-7.0,-1.0,-15.0
1701634544.719884,14.0,18.0,89.0,26.0,4.0,3.0,7.0,28.0
1701634544.719884,0.0,-40.0,-41.0,-42.0,-9.0,-10.0,-29.0,-18.0
1701634544.7498493,21.0,70.0,44.0,16.0,4.0,18.0,13.0,14.0
1701634544.7498493,-44.0,-107.0,13.0,-17.0,-6.0,-19.0,3.0,0.0
1701634544.7498493,14.0,35.0,-24.0,7.0,4.0,5.0,2.0,-1.0
1701634544.7498493,1.0,11.0,-20.0,-44.0,-18.0,-11.0,-18.0,-17.0
1701634544.7598484,14.0,-32.0,-66.0,11.0,4.0,7.0,10.0,34.0
1701634544.7598484,-15.0,-51.0,-25.0,-16.0,-3.0,-4.0,-7.0,-17.0
1701634544.7598484,9.0,47.0,82.0,41.0,-4.0,-9.0,-1.0,-15.0
1701634544.7598484,-22.0,-11.0,32.0,-4.0,6.0,7.0,24.0,21.0
1701634544.7798913,3.0,14.0,-62.0,-6.0,-5.0,0.0,-5.0,-8.0
1701634544.7798913,7.0,-2.0,-85.0,-56.0,-9.0,-8.0,-4.0,1.0
1701634544.7798913,7.0,-28.0,43.0,73.0,17.0,7.0,2.0,-15.0
1701634544.7798913,25.0,20.0,-10.0,-31.0,-19.0,-10.0,-21.0,11.0
1701634544.7998478,-19.0,-31.0,20.0,-23.0,-13.0,-8.0,5.0,-3.0
1701634544.7998478,-13.0,20.0,40.0,-9.0,5.0,-2.0,-8.0,10.0
1701634544.7998478,25.0,14.0,-27.0,-4.0,13.0,9.0,24.0,9.0
1701634544.7998478,-13.0,-5.0,25.0,43.0,-2.0,-2.0,-6.0,-5.0
1701634544.8198843,12.0,30.0,44.0,4.0,1.0,-1.0,-8.0,-5.0
1701634544.8198843,11.0,39.0,68.0,-44.0,-27.0,-14.0,-6.0,1.0
1701634544.8298852,2.0,-66.0,-88.0,25.0,25.0,14.0,8.0,10.0
1701634544.8298852,-13.0,63.0,102.0,-3.0,-11.0,-13.0,-5.0,-17.0
1701634544.839899,-13.0,-55.0,-99.0,8.0,7.0,-1.0,-6.0,-8.0
1701634544.839899,0.0,-14.0,-27.0,13.0,-1.0,0.0,0.0,8.0
1701634544.859847,7.0,34.0,1.0,-44.0,6.0,3.0,1.0,-1.0
1701634544.859847,-7.0,2.0,-116.0,0.0,-2.0,-6.0,-11.0,-10.0
1701634544.859847,8.0,13.0,122.0,43.0,5.0,3.0,7.0,4.0
1701634544.859847,-11.0,28.0,22.0,-33.0,-29.0,-20.0,-20.0,-11.0
1701634544.859847,7.0,35.0,57.0,-29.0,-13.0,-1.0,-5.0,-13.0
1701634544.859847,-14.0,-36.0,24.0,33.0,5.0,-5.0,-1.0,-12.0
1701634544.8798895,12.0,42.0,3.0,-5.0,4.0,-2.0,13.0,43.0
1701634544.8798895,15.0,21.0,-11.0,45.0,28.0,25.0,5.0,-20.0
1701634544.8898847,-5.0,-16.0,4.0,-23.0,-11.0,-9.0,-9.0,6.0
1701634544.8898847,12.0,10.0,-102.0,-43.0,-12.0,-11.0,-14.0,-29.0
1701634544.8998888,-31.0,-11.0,-22.0,-12.0,-6.0,-1.0,8.0,-26.0
1701634544.8998888,37.0,19.0,108.0,41.0,17.0,6.0,16.0,57.0
1701634544.8998888,-24.0,-64.0,-109.0,-31.0,-10.0,-5.0,-15.0,-10.0
1701634544.8998888,22.0,0.0,29.0,27.0,23.0,27.0,23.0,23.0
1701634544.9198477,-25.0,-33.0,78.0,-6.0,-25.0,-20.0,-28.0,-21.0
1701634544.9198477,16.0,-53.0,-105.0,-19.0,1.0,-5.0,0.0,-7.0
1701634544.9198477,-40.0,23.0,36.0,-8.0,-23.0,-18.0,-12.0,-10.0
1701634544.9198477,22.0,11.0,-45.0,-2.0,11.0,5.0,29.0,29.0
1701634544.9495873,-25.0,-65.0,31.0,-10.0,12.0,6.0,-6.0,-2.0
1701634544.9495873,-25.0,41.0,21.0,-21.0,-26.0,2.0,-10.0,-24.0
1701634544.9505858,8.0,-13.0,51.0,60.0,24.0,7.0,12.0,11.0
1701634544.9505858,2.0,33.0,44.0,-23.0,-1.0,0.0,-1.0,-4.0
1701634544.9655883,-14.0,10.0,-52.0,-11.0,2.0,1.0,5.0,-6.0
1701634544.9655883,21.0,-54.0,-69.0,-33.0,-4.0,1.0,-1.0,-4.0
1701634544.9674263,-10.0,56.0,57.0,-3.0,-8.0,-1.0,11.0,19.0
1701634544.9674263,13.0,-23.0,-6.0,7.0,-1.0,-6.0,-30.0,-33.0
1701634544.9774725,19.0,11.0,-56.0,-5.0,2.0,7.0,6.0,6.0
1701634544.9774725,-18.0,-9.0,49.0,19.0,10.0,-3.0,-10.0,-1.0
1701634544.9874403,1.0,-25.0,-4.0,-9.0,-14.0,-7.0,2.0,2.0
1701634544.9874403,4.0,-16.0,0.0,16.0,7.0,4.0,9.0,13.0
1701634545.0074837,10.0,4.0,-37.0,-10.0,2.0,12.0,11.0,12.0
1701634545.0074837,-31.0,-74.0,-81.0,-10.0,0.0,-6.0,-12.0,-12.0
1701634545.0074837,31.0,91.0,82.0,39.0,13.0,9.0,25.0,15.0
1701634545.0074837,-13.0,9.0,20.0,-36.0,-26.0,-20.0,-50.0,-18.0
1701634545.017441,1.0,-5.0,-25.0,55.0,18.0,2.0,34.0,21.0
1701634545.017441,-6.0,-18.0,33.0,-15.0,1.0,4.0,-20.0,-22.0
1701634545.0274308,19.0,49.0,3.0,20.0,0.0,-5.0,-20.0,-14.0
1701634545.0274308,-40.0,-17.0,-84.0,-67.0,-25.0,-15.0,3.0,-5.0
1701634545.0374708,36.0,21.0,-16.0,-19.0,-12.0,-1.0,7.0,5.0
1701634545.0374708,-18.0,-17.0,61.0,32.0,11.0,7.0,27.0,21.0
1701634545.0474637,-1.0,-14.0,14.0,-28.0,-9.0,-3.0,-5.0,-13.0
1701634545.0474637,-12.0,59.0,-52.0,22.0,10.0,-4.0,-55.0,-29.0
1701634545.067487,1.0,-15.0,67.0,-21.0,-7.0,1.0,30.0,22.0
1701634545.067487,6.0,32.0,113.0,49.0,2.0,-13.0,-34.0,-23.0
1701634545.067487,-30.0,-10.0,-86.0,-27.0,-16.0,-7.0,5.0,-8.0
1701634545.067487,3.0,-36.0,60.0,27.0,7.0,15.0,50.0,26.0
1701634545.077471,-27.0,4.0,-48.0,-13.0,-2.0,-15.0,-39.0,-32.0
1701634545.077471,16.0,10.0,80.0,2.0,6.0,9.0,24.0,25.0
1701634545.097429,-22.0,-53.0,-88.0,-17.0,-17.0,-19.0,-60.0,-49.0
1701634545.097429,-17.0,-14.0,16.0,25.0,12.0,4.0,31.0,18.0
1701634545.097429,-2.0,23.0,-14.0,-25.0,-8.0,-4.0,-25.0,-12.0
1701634545.097429,21.0,49.0,5.0,36.0,8.0,1.0,11.0,-9.0
1701634545.107462,-1.0,0.0,-11.0,-37.0,-11.0,-3.0,6.0,38.0
1701634545.107462,23.0,0.0,4.0,6.0,-2.0,5.0,12.0,-1.0
1701634545.1274323,6.0,-9.0,-62.0,-25.0,-3.0,2.0,10.0,8.0
1701634545.1274323,-11.0,38.0,-37.0,-11.0,-11.0,-12.0,-31.0,-21.0
1701634545.1274323,16.0,4.0,35.0,14.0,16.0,6.0,19.0,9.0
1701634545.1274323,5.0,-53.0,51.0,23.0,7.0,10.0,-9.0,8.0
1701634545.1374307,3.0,55.0,43.0,-14.0,-5.0,-6.0,-5.0,4.0
1701634545.1374307,-5.0,-15.0,-80.0,-5.0,-5.0,-6.0,-13.0,1.0
1701634545.1474679,2.0,-23.0,63.0,3.0,7.0,-2.0,1.0,-10.0
1701634545.1474679,9.0,-3.0,-7.0,-6.0,-3.0,-17.0,22.0,20.0
1701634545.1574795,-21.0,-14.0,80.0,15.0,-2.0,-7.0,-48.0,-36.0
1701634545.1574795,15.0,8.0,-45.0,-4.0,5.0,67.0,69.0,19.0
1701634545.1674416,4.0,-20.0,27.0,-7.0,-4.0,-11.0,-2.0,0.0
1701634545.1674416,-19.0,-19.0,-29.0,-2.0,2.0,-6.0,-19.0,-14.0
1701634545.1874776,0.0,-14.0,-42.0,-4.0,1.0,5.0,7.0,-2.0
1701634545.1874776,7.0,9.0,61.0,20.0,0.0,-35.0,-25.0,16.0
1701634545.1874776,-6.0,19.0,-21.0,-13.0,0.0,23.0,23.0,-4.0
1701634545.1874776,20.0,19.0,-38.0,-14.0,1.0,-4.0,3.0,6.0
1701634545.1974833,-1.0,11.0,75.0,43.0,7.0,-9.0,-11.0,-1.0
1701634545.1974833,-39.0,-46.0,-24.0,-32.0,-18.0,-13.0,-2.0,-42.0
1701634545.217473,19.0,-14.0,-51.0,-6.0,2.0,-9.0,13.0,51.0
1701634545.217473,13.0,30.0,39.0,-4.0,0.0,31.0,1.0,-14.0
1701634545.217473,12.0,-6.0,17.0,9.0,9.0,10.0,16.0,14.0
1701634545.217473,-3.0,11.0,-20.0,4.0,3.0,-13.0,-24.0,-12.0
1701634545.2274427,0.0,16.0,33.0,-9.0,3.0,2.0,-3.0,-11.0
1701634545.2274427,-22.0,-8.0,10.0,49.0,-12.0,-11.0,-3.0,-5.0
1701634545.24747,-12.0,-27.0,-48.0,-34.0,-12.0,-4.0,1.0,-8.0
1701634545.24747,7.0,49.0,-7.0,13.0,4.0,-3.0,5.0,20.0
1701634545.24747,-1.0,-38.0,-57.0,-46.0,-3.0,3.0,-2.0,-15.0
1701634545.24747,4.0,-8.0,32.0,27.0,15.0,14.0,10.0,18.0
1701634545.2574687,-21.0,49.0,102.0,3.0,-8.0,-6.0,-8.0,-23.0
1701634545.2574687,19.0,-11.0,32.0,12.0,6.0,-6.0,5.0,21.0
1701634545.2674706,-8.0,-12.0,66.0,-50.0,-18.0,-4.0,-12.0,-18.0
1701634545.2674706,-16.0,-43.0,-33.0,33.0,19.0,9.0,-1.0,-7.0
1701634545.277472,20.0,-58.0,-69.0,6.0,25.0,15.0,13.0,17.0
1701634545.277472,-28.0,31.0,3.0,-58.0,-33.0,-19.0,-18.0,-31.0
1701634545.2874525,-17.0,-2.0,-5.0,8.0,-1.0,0.0,7.0,1.0
1701634545.2874525,9.0,-32.0,127.0,-53.0,-27.0,-13.0,-16.0,-8.0
1701634545.3074687,-20.0,-39.0,-128.0,-11.0,14.0,1.0,0.0,-3.0
1701634545.3074687,33.0,66.0,99.0,87.0,23.0,12.0,14.0,26.0
1701634545.3074687,-31.0,-40.0,-98.0,-38.0,-16.0,-6.0,-8.0,-28.0
1701634545.3074687,10.0,37.0,72.0,20.0,7.0,-6.0,-7.0,16.0
1701634545.3174675,3.0,-40.0,-70.0,-43.0,-14.0,-6.0,-15.0,-19.0
1701634545.3174675,3.0,-57.0,1.0,-32.0,-3.0,-1.0,2.0,4.0
1701634545.327472,-28.0,15.0,-26.0,39.0,2.0,3.0,-1.0,-10.0
1701634545.327472,-17.0,-62.0,-96.0,-42.0,-12.0,-8.0,-16.0,-28.0
1701634545.337469,20.0,58.0,82.0,26.0,4.0,-1.0,2.0,14.0
1701634545.337469,-9.0,-60.0,51.0,9.0,-2.0,-4.0,1.0,-2.0
1701634545.3474278,21.0,49.0,-30.0,8.0,3.0,5.0,1.0,3.0
1701634545.3474278,1.0,-41.0,-117.0,-38.0,-5.0,-1.0,7.0,5.0
1701634545.3674705,-13.0,93.0,55.0,17.0,-10.0,-6.0,-12.0,-13.0
1701634545.3674705,2.0,-37.0,-49.0,-11.0,7.0,6.0,2.0,-1.0
1701634545.3674705,14.0,27.0,53.0,34.0,12.0,1.0,-7.0,8.0
1701634545.3674705,14.0,59.0,93.0,11.0,0.0,3.0,26.0,20.0
1701634545.3774703,4.0,-13.0,5.0,16.0,-1.0,-5.0,-25.0,-13.0
1701634545.3774703,-25.0,-56.0,-86.0,-25.0,-6.0,-6.0,-3.0,-3.0
1701634545.387468,15.0,29.0,122.0,2.0,3.0,4.0,0.0,6.0
1701634545.387468,-4.0,-12.0,-59.0,5.0,-6.0,1.0,8.0,5.0
1701634545.4074283,-5.0,9.0,71.0,23.0,5.0,4.0,35.0,8.0
1701634545.4074283,-1.0,19.0,-28.0,-10.0,2.0,2.0,-9.0,4.0
1701634545.4074283,43.0,23.0,29.0,6.0,-1.0,-7.0,-27.0,-17.0
1701634545.4074283,-27.0,-27.0,-88.0,-33.0,-8.0,-5.0,6.0,2.0
1701634545.4274726,26.0,19.0,57.0,33.0,9.0,6.0,28.0,19.0
1701634545.4274726,44.0,-2.0,-69.0,-26.0,-6.0,-1.0,-15.0,-7.0
1701634545.4274726,-8.0,76.0,62.0,-8.0,-9.0,-6.0,0.0,11.0
1701634545.4274726,-8.0,-27.0,-17.0,0.0,3.0,4.0,-19.0,-21.0
1701634545.4374697,-52.0,-63.0,-95.0,-10.0,8.0,14.0,25.0,3.0
1701634545.4374697,-11.0,8.0,28.0,6.0,-8.0,-12.0,-9.0,-7.0
1701634545.4474742,24.0,-44.0,-22.0,27.0,5.0,-6.0,-47.0,-23.0
1701634545.4474742,36.0,105.0,49.0,1.0,3.0,8.0,22.0,24.0
1701634545.4717243,-43.0,-63.0,-2.0,-9.0,-6.0,-7.0,-22.0,-10.0
1701634545.4717243,8.0,21.0,-9.0,7.0,7.0,11.0,62.0,28.0
1701634545.4717243,-3.0,-14.0,19.0,-3.0,0.0,6.0,7.0,11.0
1701634545.4717243,-36.0,-45.0,20.0,3.0,-13.0,-23.0,-48.0,-30.0
1701634545.4917245,3.0,-10.0,-62.0,-10.0,-6.0,-7.0,-20.0,-14.0
1701634545.4917245,-9.0,8.0,89.0,35.0,12.0,6.0,10.0,2.0
1701634545.4917245,9.0,-24.0,66.0,24.0,-2.0,0.0,15.0,20.0
1701634545.4917245,-7.0,41.0,-49.0,-49.0,2.0,3.0,5.0,12.0
1701634545.5002997,23.0,-6.0,4.0,10.0,-8.0,-7.0,-20.0,-13.0
1701634545.5002997,-12.0,22.0,-20.0,41.0,18.0,-2.0,-10.0,-8.0
1701634545.5203032,-4.0,2.0,38.0,16.0,3.0,-3.0,1.0,-1.0
1701634545.5203032,10.0,-19.0,83.0,23.0,6.0,2.0,21.0,2.0
1701634545.5303044,-8.0,5.0,-108.0,-56.0,-18.0,-10.0,-11.0,12.0
1701634545.5303044,-10.0,4.0,78.0,-3.0,-7.0,-9.0,-21.0,-55.0
1701634545.5303044,-1.0,19.0,-43.0,0.0,8.0,1.0,12.0,47.0
1701634545.5303044,-15.0,18.0,15.0,-3.0,2.0,4.0,6.0,-11.0
1701634545.5503035,13.0,9.0,49.0,11.0,3.0,26.0,24.0,30.0
1701634545.5503035,-4.0,-19.0,13.0,6.0,2.0,-20.0,-24.0,6.0
1701634545.5503035,-12.0,-18.0,-115.0,-17.0,-5.0,16.0,6.0,-25.0
1701634545.5503035,8.0,-8.0,29.0,5.0,-1.0,-18.0,-11.0,-8.0
1701634545.5603037,9.0,-9.0,29.0,-4.0,-5.0,17.0,8.0,-11.0
1701634545.5603037,-25.0,-18.0,-41.0,-8.0,-2.0,3.0,6.0,8.0
1701634545.5703561,0.0,7.0,14.0,18.0,12.0,-2.0,2.0,-19.0
1701634545.5703561,-8.0,33.0,-72.0,-37.0,-18.0,-11.0,3.0,13.0
1701634545.5903025,-2.0,4.0,83.0,22.0,1.0,-13.0,-11.0,-13.0
1701634545.5903025,7.0,-1.0,-27.0,-14.0,-7.0,6.0,-2.0,4.0
1701634545.5903025,20.0,-16.0,-41.0,-28.0,-9.0,-16.0,-2.0,-4.0
1701634545.5903025,1.0,10.0,49.0,52.0,13.0,15.0,2.0,-5.0
1701634545.6003067,-2.0,28.0,54.0,-6.0,-5.0,-19.0,-17.0,-14.0
1701634545.6003067,-17.0,-64.0,-35.0,-36.0,-6.0,1.0,1.0,-3.0
1701634545.6103053,-7.0,-50.0,1.0,18.0,0.0,-2.0,2.0,7.0
1701634545.6103053,2.0,-70.0,11.0,-9.0,7.0,12.0,7.0,-1.0
1701634545.6203454,-7.0,35.0,24.0,-32.0,-15.0,-14.0,-9.0,-16.0
1701634545.6203454,4.0,9.0,55.0,70.0,15.0,-1.0,-4.0,1.0
1701634545.630342,-4.0,-52.0,28.0,17.0,18.0,9.0,9.0,1.0
1701634545.630342,34.0,87.0,-9.0,36.0,9.0,7.0,4.0,12.0
1701634545.6503088,-17.0,-46.0,66.0,-21.0,-12.0,-6.0,-1.0,-10.0
1701634545.6503088,21.0,40.0,102.0,22.0,11.0,8.0,8.0,27.0
1701634545.6503088,-38.0,-64.0,-86.0,-127.0,-38.0,-18.0,-18.0,-27.0
1701634545.6503088,-1.0,-12.0,-44.0,41.0,13.0,1.0,-1.0,6.0
1701634545.66031,6.0,-11.0,-49.0,22.0,11.0,3.0,11.0,14.0
1701634545.66031,-11.0,26.0,-60.0,-29.0,-12.0,-4.0,-3.0,-16.0
1701634545.6703043,39.0,41.0,-32.0,21.0,12.0,17.0,31.0,24.0
1701634545.6703043,-20.0,20.0,42.0,-60.0,-23.0,-22.0,-45.0,-31.0
1701634545.680345,25.0,50.0,48.0,3.0,7.0,3.0,9.0,11.0
1701634545.680345,-17.0,-52.0,33.0,15.0,-8.0,-4.0,3.0,0.0
1701634545.7003026,-3.0,34.0,62.0,4.0,-1.0,-2.0,-7.0,-8.0
1701634545.7003026,-1.0,9.0,-61.0,-7.0,-4.0,-3.0,4.0,2.0
1701634545.7003026,4.0,-11.0,-70.0,-9.0,7.0,2.0,2.0,6.0
1701634545.7003026,37.0,31.0,50.0,24.0,9.0,16.0,18.0,16.0
1701634545.7003026,-16.0,1.0,-32.0,-9.0,-10.0,-12.0,-19.0,-19.0
1701634545.7003026,-13.0,26.0,-30.0,3.0,10.0,16.0,30.0,7.0
1701634545.7203474,-4.0,6.0,18.0,-11.0,-22.0,-11.0,-40.0,-16.0
1701634545.7203474,7.0,17.0,-61.0,-21.0,12.0,7.0,11.0,8.0
1701634545.7303438,-25.0,-8.0,95.0,13.0,-12.0,-8.0,6.0,5.0
1701634545.7303438,12.0,-7.0,67.0,13.0,8.0,5.0,-4.0,1.0
1701634545.7503479,17.0,-65.0,-83.0,-15.0,-5.0,-2.0,24.0,5.0
1701634545.7503479,-11.0,-8.0,29.0,-24.0,-16.0,-9.0,-28.0,-1.0
1701634545.7503479,-6.0,-11.0,19.0,-17.0,-12.0,-14.0,-27.0,-24.0
1701634545.7503479,1.0,31.0,127.0,77.0,22.0,4.0,7.0,9.0
1701634545.7603428,2.0,33.0,45.0,-4.0,-6.0,-1.0,4.0,6.0
1701634545.7603428,7.0,-7.0,-54.0,-20.0,-6.0,1.0,6.0,8.0
1701634545.7703435,19.0,-77.0,18.0,19.0,19.0,18.0,27.0,26.0
1701634545.7703435,-33.0,-81.0,-59.0,-34.0,-20.0,-15.0,-28.0,-32.0
1701634545.7803025,9.0,-17.0,-116.0,-50.0,-8.0,-7.0,-6.0,-4.0
1701634545.7803025,-10.0,18.0,78.0,6.0,-16.0,-14.0,4.0,-6.0
1701634545.790304,7.0,16.0,92.0,44.0,21.0,10.0,-7.0,-5.0
1701634545.790304,-7.0,-50.0,-70.0,-42.0,-19.0,-10.0,13.0,18.0
1701634545.810303,6.0,100.0,77.0,56.0,20.0,7.0,-20.0,-12.0
1701634545.810303,21.0,-30.0,-51.0,-25.0,5.0,6.0,11.0,15.0
1701634545.810303,-17.0,34.0,-41.0,7.0,-7.0,-1.0,13.0,1.0
1701634545.810303,20.0,-34.0,-29.0,-14.0,-9.0,-4.0,-4.0,7.0
1701634545.8203437,-26.0,-13.0,45.0,2.0,2.0,-6.0,-4.0,-18.0
1701634545.8203437,-7.0,20.0,-42.0,-9.0,4.0,8.0,10.0,-8.0
1701634545.8203437,14.0,-39.0,85.0,0.0,-5.0,3.0,10.0,21.0
1701634545.8203437,-11.0,74.0,-80.0,-24.0,-11.0,-12.0,-1.0,-22.0
1701634545.8403451,9.0,-29.0,60.0,29.0,13.0,7.0,-2.0,17.0
1701634545.8403451,40.0,21.0,31.0,3.0,1.0,-7.0,-20.0,-20.0
1701634545.850304,-45.0,-53.0,-42.0,-39.0,-19.0,-12.0,-3.0,-12.0
1701634545.850304,13.0,-1.0,36.0,-4.0,-4.0,-6.0,-7.0,-1.0
1701634545.8703415,-18.0,-22.0,-2.0,19.0,5.0,13.0,24.0,7.0
1701634545.8703415,-11.0,8.0,-12.0,-5.0,-3.0,-2.0,-4.0,-8.0
1701634545.8703415,24.0,50.0,-46.0,5.0,4.0,-9.0,-22.0,15.0
1701634545.8703415,-8.0,-37.0,24.0,5.0,5.0,18.0,23.0,10.0
1701634545.880348,-3.0,-15.0,13.0,-6.0,-8.0,8.0,-24.0,-26.0
1701634545.880348,-2.0,-16.0,-23.0,8.0,4.0,-20.0,3.0,14.0
1701634545.890343,-22.0,-11.0,-63.0,-15.0,-8.0,27.0,0.0,-10.0
1701634545.890343,2.0,-1.0,22.0,5.0,6.0,2.0,1.0,25.0
1701634545.9203022,-4.0,-55.0,30.0,4.0,2.0,10.0,39.0,-10.0
1701634545.9203022,-44.0,-24.0,-32.0,-15.0,-16.0,-14.0,-53.0,-25.0
1701634545.9203022,16.0,107.0,69.0,21.0,2.0,-17.0,1.0,-5.0
1701634545.9203022,6.0,5.0,38.0,3.0,2.0,-1.0,-4.0,0.0
1701634545.9303458,3.0,-20.0,-39.0,-6.0,-1.0,-3.0,19.0,21.0
1701634545.9303458,9.0,12.0,82.0,20.0,7.0,9.0,-2.0,-9.0
1701634545.9303458,1.0,14.0,-115.0,20.0,11.0,-12.0,-27.0,9.0
1701634545.9303458,-30.0,-25.0,7.0,-25.0,-11.0,8.0,17.0,-7.0
1701634545.9403467,0.0,53.0,70.0,35.0,5.0,-15.0,-23.0,3.0
1701634545.9403467,-4.0,-28.0,-47.0,-26.0,3.0,10.0,13.0,4.0
1701634545.9503486,27.0,26.0,-6.0,6.0,1.0,7.0,8.0,3.0
1701634545.9503486,22.0,-18.0,96.0,17.0,-1.0,-2.0,-17.0,-14.0
1701634545.9603224,9.0,52.0,-20.0,-12.0,-4.0,-11.0,-9.0,-4.0
1701634545.9603224,-68.0,-73.0,-93.0,-6.0,-13.0,-15.0,-12.0,-14.0
1701634545.9703047,10.0,13.0,38.0,-24.0,-6.0,-2.0,3.0,-13.0
1701634545.9703047,5.0,-12.0,-50.0,29.0,9.0,5.0,20.0,8.0
1701634545.9903407,-10.0,28.0,76.0,19.0,-26.0,-18.0,-19.0,-3.0
1701634545.9903407,24.0,10.0,46.0,-21.0,10.0,9.0,4.0,4.0
1701634545.9903407,-33.0,-61.0,-103.0,-43.0,-1.0,3.0,11.0,-5.0
1701634545.9903407,6.0,52.0,68.0,75.0,13.0,-1.0,-10.0,0.0
1701634546.00588,16.0,-78.0,-53.0,-38.0,5.0,13.0,12.0,16.0
1701634546.00588,-22.0,-8.0,-26.0,-44.0,-42.0,-26.0,-24.0,-30.0
1701634546.0128798,-19.0,-48.0,-65.0,-24.0,-8.0,-9.0,7.0,2.0
1701634546.0128798,-12.0,-4.0,62.0,-14.0,-9.0,-12.0,-37.0,-26.0
1701634546.0288806,5.0,-72.0,-47.0,49.0,35.0,14.0,10.0,10.0
1701634546.0288806,9.0,99.0,4.0,-15.0,0.0,3.0,12.0,12.0
1701634546.0308797,5.0,-7.0,32.0,44.0,19.0,8.0,4.0,6.0
1701634546.0308797,-21.0,-62.0,-128.0,-59.0,-25.0,-11.0,-1.0,-12.0
1701634546.0431232,-7.0,27.0,53.0,-45.0,-33.0,-22.0,-21.0,-29.0
1701634546.0431232,22.0,13.0,121.0,94.0,37.0,16.0,13.0,15.0
1701634546.0530803,-6.0,13.0,11.0,-16.0,0.0,3.0,-4.0,-3.0
1701634546.0530803,-2.0,6.0,-28.0,-53.0,-15.0,-11.0,-1.0,0.0
1701634546.0632863,11.0,32.0,-31.0,16.0,12.0,4.0,7.0,16.0
1701634546.0632863,1.0,-1.0,83.0,-2.0,-6.0,8.0,8.0,6.0
1701634546.0731864,6.0,3.0,17.0,7.0,2.0,5.0,-7.0,-24.0
1701634546.0731864,0.0,-70.0,-3.0,19.0,7.0,11.0,18.0,38.0
1701634546.083273,19.0,65.0,-46.0,-13.0,-8.0,-18.0,-20.0,-33.0
1701634546.083273,-19.0,-34.0,32.0,-7.0,-9.0,-35.0,-17.0,-3.0
1701634546.083273,15.0,-4.0,6.0,18.0,17.0,66.0,43.0,15.0
1701634546.083273,-27.0,-2.0,-71.0,-22.0,-12.0,-10.0,-19.0,-17.0
1701634546.1030788,5.0,-22.0,-52.0,-10.0,4.0,10.0,-3.0,-5.0
1701634546.1030788,17.0,11.0,-20.0,12.0,8.0,-4.0,0.0,25.0
1701634546.113092,-9.0,9.0,-38.0,-4.0,-23.0,-31.0,-20.0,-11.0
1701634546.113092,24.0,26.0,1.0,3.0,15.0,17.0,24.0,33.0
1701634546.1232295,8.0,0.0,28.0,4.0,1.0,0.0,-9.0,16.0
1701634546.1232295,-17.0,-39.0,-55.0,-6.0,1.0,4.0,9.0,-13.0
1701634546.1330996,0.0,6.0,24.0,5.0,-5.0,-18.0,-29.0,-18.0
1701634546.1330996,5.0,13.0,30.0,31.0,9.0,3.0,3.0,3.0
1701634546.1430793,-6.0,-21.0,-81.0,-11.0,-12.0,-19.0,-17.0,-1.0
1701634546.1430793,7.0,15.0,-40.0,-8.0,-5.0,12.0,8.0,6.0
1701634546.1430793,-9.0,-43.0,-50.0,-68.0,-18.0,-12.0,-5.0,0.0
1701634546.1430793,-10.0,-2.0,71.0,75.0,32.0,1.0,-14.0,-17.0
1701634546.1633277,-23.0,27.0,48.0,10.0,-7.0,-4.0,12.0,6.0
1701634546.173085,9.0,33.0,13.0,-4.0,1.0,6.0,-7.0,-6.0
1701634546.173085,3.0,-22.0,-3.0,12.0,5.0,-1.0,15.0,14.0
1701634546.173085,5.0,69.0,43.0,-18.0,-9.0,0.0,-11.0,-7.0
1701634546.1833658,-5.0,-76.0,-85.0,-45.0,-13.0,-1.0,5.0,5.0
1701634546.1833658,-23.0,-29.0,-128.0,9.0,23.0,24.0,13.0,-1.0
1701634546.1931038,-15.0,-48.0,122.0,61.0,-28.0,-39.0,-22.0,-9.0
1701634546.1931038,-7.0,25.0,-35.0,-12.0,-8.0,-9.0,-8.0,-18.0
1701634546.2230804,-16.0,-20.0,47.0,0.0,2.0,-1.0,-6.0,-21.0
1701634546.2230804,0.0,-3.0,-64.0,-36.0,-10.0,0.0,-2.0,-3.0
1701634546.2230804,8.0,51.0,89.0,-40.0,-8.0,-6.0,14.0,12.0
1701634546.2230804,8.0,-102.0,-10.0,1.0,10.0,10.0,5.0,5.0
1701634546.2230804,18.0,106.0,83.0,71.0,27.0,13.0,-18.0,2.0
1701634546.2230804,-29.0,-53.0,-20.0,-64.0,-44.0,-29.0,-13.0,-24.0
1701634546.2333987,16.0,1.0,-17.0,42.0,30.0,9.0,-11.0,-13.0
1701634546.2333987,-36.0,16.0,-71.0,-50.0,-6.0,0.0,18.0,-1.0
1701634546.2431388,35.0,3.0,76.0,6.0,15.0,14.0,25.0,28.0
1701634546.2431388,10.0,-41.0,57.0,-38.0,-24.0,-6.0,14.0,10.0
1701634546.2530785,-26.0,-9.0,-90.0,-30.0,7.0,-4.0,-29.0,-21.0
1701634546.2530785,17.0,-75.0,109.0,81.0,17.0,8.0,9.0,5.0
1701634546.2632535,-6.0,26.0,-123.0,-52.0,-13.0,-7.0,3.0,-1.0
1701634546.2632535,-6.0,21.0,27.0,5.0,3.0,1.0,-7.0,-5.0
1701634546.2632535,4.0,-37.0,-98.0,-7.0,0.0,5.0,-7.0,3.0
1701634546.2632535,4.0,-16.0,111.0,29.0,7.0,-6.0,-15.0,-4.0
1701634546.2930844,-9.0,66.0,74.0,9.0,4.0,11.0,17.0,16.0
1701634546.2930844,8.0,-11.0,-13.0,-1.0,-5.0,-4.0,10.0,2.0
1701634546.2930844,12.0,13.0,80.0,9.0,10.0,6.0,0.0,7.0
1701634546.2930844,20.0,64.0,-14.0,-19.0,-6.0,0.0,-29.0,-12.0
1701634546.3230796,-14.0,16.0,-7.0,3.0,-12.0,-17.0,11.0,8.0
1701634546.3230796,13.0,-21.0,14.0,35.0,18.0,-9.0,-28.0,-7.0
1701634546.3330789,10.0,31.0,27.0,1.0,4.0,51.0,58.0,25.0
1701634546.3330789,-8.0,44.0,-1.0,-22.0,-5.0,-12.0,-6.0,-13.0
1701634546.3330789,-15.0,-98.0,-57.0,-19.0,-5.0,6.0,4.0,30.0
1701634546.3330789,5.0,29.0,49.0,28.0,7.0,18.0,-22.0,-1.0
1701634546.3330789,-14.0,-76.0,-60.0,-26.0,-13.0,-4.0,13.0,-21.0
1701634546.3330789,0.0,3.0,-12.0,-11.0,-8.0,-24.0,-10.0,3.0
1701634546.3434064,-2.0,-12.0,20.0,-6.0,-10.0,22.0,46.0,11.0
1701634546.3434064,16.0,-7.0,24.0,-10.0,0.0,-46.0,-62.0,-1.0
1701634546.3530822,-9.0,5.0,73.0,34.0,-4.0,-4.0,-1.0,-25.0
1701634546.3530822,6.0,-1.0,50.0,-19.0,2.0,26.0,25.0,4.0
1701634546.373079,-18.0,-10.0,33.0,2.0,-1.0,-1.0,-14.0,-28.0
1701634546.373079,-16.0,3.0,-19.0,-12.0,2.0,27.0,56.0,42.0
1701634546.373079,39.0,65.0,94.0,39.0,1.0,-26.0,-28.0,12.0
1701634546.373079,4.0,-4.0,-21.0,4.0,-4.0,-13.0,-8.0,-7.0
1701634546.383329,-16.0,-30.0,-13.0,-15.0,-6.0,-7.0,7.0,18.0
1701634546.383329,11.0,33.0,27.0,-5.0,-3.0,15.0,-1.0,-40.0
1701634546.383329,-1.0,8.0,-47.0,5.0,11.0,3.0,2.0,51.0
1701634546.383329,-11.0,-57.0,-112.0,-38.0,-21.0,-40.0,-27.0,-13.0
1701634546.4130845,-17.0,-38.0,34.0,-9.0,2.0,31.0,-23.0,-26.0
1701634546.4130845,20.0,53.0,65.0,44.0,10.0,10.0,22.0,4.0
1701634546.4130845,-9.0,-37.0,-54.0,10.0,13.0,-3.0,5.0,7.0
1701634546.4130845,6.0,13.0,-9.0,-17.0,-2.0,2.0,22.0,18.0
1701634546.4430795,-21.0,-21.0,13.0,4.0,-11.0,-55.0,-85.0,-58.0
1701634546.4430795,-9.0,-29.0,-50.0,-36.0,-1.0,44.0,51.0,42.0
1701634546.4530816,2.0,-2.0,15.0,48.0,18.0,14.0,8.0,-18.0
1701634546.4530816,16.0,13.0,20.0,-14.0,-3.0,3.0,-11.0,8.0
1701634546.4530816,-13.0,-50.0,-10.0,14.0,12.0,-1.0,10.0,-7.0
1701634546.4530816,2.0,26.0,-56.0,-8.0,-11.0,-32.0,-29.0,-24.0
1701634546.4530816,-12.0,-3.0,10.0,-103.0,-38.0,-21.0,-12.0,7.0
1701634546.4530816,14.0,82.0,27.0,99.0,57.0,33.0,30.0,-1.0
1701634546.473081,26.0,-12.0,-34.0,12.0,2.0,2.0,11.0,8.0
1701634546.473081,-11.0,-15.0,17.0,17.0,0.0,-2.0,-8.0,-7.0
1701634546.473081,10.0,-33.0,-58.0,-61.0,-20.0,-10.0,-12.0,-9.0
1701634546.473081,-11.0,-16.0,33.0,25.0,-17.0,2.0,-1.0,-7.0
1701634546.4831116,-11.0,-7.0,-101.0,-5.0,14.0,-4.0,-5.0,-8.0
1701634546.4831116,14.0,-6.0,0.0,-31.0,-16.0,-11.0,0.0,-4.0
1701634546.4934797,9.0,-14.0,41.0,79.0,41.0,23.0,12.0,6.0
1701634546.4934797,-15.0,69.0,48.0,-92.0,-49.0,-18.0,-19.0,-16.0
1701634546.5134346,23.0,16.0,83.0,83.0,16.0,7.0,13.0,11.0
1701634546.5134346,6.0,-81.0,17.0,7.0,19.0,15.0,20.0,11.0
1701634546.5134346,-23.0,35.0,61.0,-31.0,-28.0,-24.0,-21.0,-19.0
1701634546.5134346,8.0,1.0,42.0,6.0,1.0,-1.0,-5.0,4.0
1701634546.539065,11.0,79.0,66.0,43.0,9.0,12.0,17.0,3.0
1701634546.539065,-6.0,16.0,12.0,-26.0,-12.0,-11.0,-11.0,-6.0
1701634546.539065,6.0,30.0,12.0,24.0,16.0,6.0,2.0,-3.0
1701634546.539065,2.0,52.0,9.0,-12.0,-7.0,12.0,11.0,4.0
1701634546.5494792,-4.0,-30.0,2.0,-37.0,-3.0,-4.0,0.0,1.0
1701634546.5494792,-9.0,44.0,-4.0,2.0,-13.0,-21.0,-23.0,-28.0
1701634546.5494792,-6.0,28.0,25.0,-6.0,-5.0,-5.0,-4.0,18.0
1701634546.5494792,18.0,-74.0,-37.0,36.0,20.0,13.0,12.0,17.0
1701634546.5695195,4.0,-27.0,-36.0,-31.0,-2.0,-7.0,-13.0,-2.0
1701634546.5695195,-10.0,37.0,38.0,20.0,-6.0,-16.0,2.0,19.0
1701634546.5695195,-13.0,14.0,-26.0,-9.0,19.0,47.0,37.0,-25.0
1701634546.5695195,42.0,86.0,-4.0,-4.0,-2.0,2.0,-8.0,-3.0
1701634546.599479,-32.0,-48.0,70.0,-9.0,-6.0,-10.0,-13.0,-8.0
1701634546.599479,2.0,-54.0,-49.0,0.0,-1.0,-24.0,-10.0,-11.0
1701634546.599479,-12.0,62.0,57.0,2.0,-11.0,8.0,12.0,32.0
1701634546.599479,21.0,-34.0,-27.0,-8.0,13.0,12.0,5.0,-1.0
1701634546.599479,10.0,10.0,-37.0,-6.0,-9.0,-8.0,-4.0,8.0
1701634546.599479,-7.0,27.0,123.0,-1.0,-9.0,-1.0,-12.0,-10.0
1701634546.609746,-4.0,-7.0,35.0,53.0,27.0,0.0,8.0,9.0
1701634546.609746,-38.0,4.0,-73.0,-41.0,-19.0,-20.0,-24.0,-29.0
1701634546.6294854,54.0,-38.0,-58.0,-21.0,-3.0,1.0,17.0,49.0
1701634546.6294854,-37.0,-59.0,-60.0,-16.0,-9.0,-21.0,-43.0,-32.0
1701634546.6294854,31.0,-35.0,-17.0,-16.0,-10.0,19.0,0.0,-1.0
1701634546.6294854,-25.0,-37.0,-6.0,-33.0,0.0,25.0,38.0,16.0
1701634546.6494803,7.0,42.0,95.0,13.0,-6.0,-13.0,-14.0,-37.0
1701634546.6494803,-45.0,-55.0,-82.0,35.0,19.0,12.0,14.0,11.0
1701634546.6494803,32.0,68.0,23.0,-14.0,-11.0,-35.0,-37.0,-18.0
1701634546.6494803,-29.0,-54.0,-55.0,-27.0,-13.0,-9.0,-11.0,0.0
1701634546.659487,-39.0,36.0,-23.0,-36.0,-13.0,-3.0,18.0,3.0
1701634546.659487,27.0,-26.0,74.0,53.0,16.0,15.0,14.0,7.0
1701634546.6694796,-4.0,56.0,4.0,-14.0,0.0,-14.0,-8.0,-2.0
1701634546.6694796,35.0,-14.0,60.0,42.0,-10.0,-6.0,-24.0,-16.0
1701634546.6894953,-58.0,-103.0,-114.0,-75.0,-16.0,-7.0,20.0,10.0
1701634546.6894953,17.0,29.0,110.0,4.0,-11.0,10.0,7.0,-13.0
1701634546.6894953,-29.0,-27.0,-85.0,3.0,2.0,-10.0,-32.0,-12.0
1701634546.6894953,21.0,-49.0,25.0,32.0,11.0,-3.0,-4.0,3.0
1701634546.7098181,-32.0,-53.0,-128.0,-54.0,-30.0,-14.0,-19.0,-20.0
1701634546.7098181,22.0,94.0,32.0,21.0,18.0,18.0,29.0,23.0
1701634546.7098181,-11.0,16.0,62.0,-40.0,-17.0,-1.0,18.0,2.0
1701634546.7098181,-42.0,-24.0,-1.0,-37.0,-3.0,-12.0,-20.0,-9.0
1701634546.7298954,58.0,-21.0,106.0,62.0,28.0,25.0,23.0,20.0
1701634546.7298954,-17.0,0.0,-69.0,-29.0,-17.0,-13.0,-37.0,-29.0
1701634546.7298954,-2.0,-82.0,-26.0,7.0,5.0,-10.0,-19.0,-12.0
1701634546.7298954,-28.0,10.0,-50.0,-34.0,-18.0,-7.0,14.0,11.0
1701634546.7494814,-5.0,4.0,80.0,19.0,8.0,5.0,5.0,16.0
1701634546.7494814,19.0,5.0,-22.0,-11.0,3.0,5.0,-7.0,-13.0
1701634546.7494814,10.0,15.0,84.0,25.0,-10.0,3.0,12.0,20.0
1701634546.7494814,-13.0,-55.0,-44.0,61.0,18.0,-7.0,-25.0,-22.0
1701634546.7694829,-10.0,14.0,-31.0,-51.0,-22.0,-4.0,-5.0,-25.0
1701634546.7694829,23.0,-17.0,25.0,59.0,22.0,2.0,11.0,38.0
1701634546.7694829,-39.0,-37.0,-95.0,-57.0,-21.0,-12.0,-8.0,-18.0
1701634546.7694829,-2.0,-10.0,18.0,-13.0,-11.0,-5.0,1.0,8.0
1701634546.789893,10.0,43.0,-12.0,11.0,10.0,7.0,-8.0,-19.0
1701634546.789893,0.0,22.0,-3.0,-16.0,7.0,-6.0,-5.0,-2.0
1701634546.789893,3.0,-19.0,-85.0,-9.0,-6.0,13.0,22.0,4.0
1701634546.789893,-20.0,20.0,56.0,25.0,10.0,1.0,21.0,20.0
1701634546.7998395,26.0,61.0,33.0,10.0,5.0,7.0,-5.0,-29.0
1701634546.7998395,-26.0,-64.0,-89.0,-23.0,-12.0,0.0,-6.0,5.0
1701634546.8194807,-5.0,-41.0,9.0,5.0,-1.0,-27.0,-5.0,-6.0
1701634546.8194807,7.0,35.0,-85.0,-3.0,3.0,12.0,12.0,-13.0
1701634546.8297098,-3.0,-7.0,22.0,9.0,-5.0,-13.0,-42.0,7.0
1701634546.8297098,12.0,21.0,22.0,-3.0,4.0,47.0,68.0,12.0
1701634546.8297098,40.0,-8.0,-24.0,17.0,7.0,1.0,-16.0,13.0
1701634546.8297098,-15.0,-7.0,44.0,-4.0,3.0,-18.0,-20.0,-20.0
1701634546.8497941,-25.0,-12.0,-29.0,12.0,-14.0,-17.0,-11.0,-9.0
1701634546.8497941,21.0,42.0,34.0,-6.0,-8.0,-17.0,-13.0,6.0
1701634546.8497941,-16.0,-57.0,-57.0,-6.0,6.0,-3.0,-5.0,2.0
1701634546.8497941,17.0,-11.0,89.0,9.0,5.0,10.0,6.0,-10.0
1701634546.8794816,15.0,5.0,14.0,-7.0,5.0,6.0,9.0,31.0
1701634546.8794816,5.0,43.0,-4.0,-19.0,-7.0,-2.0,-7.0,7.0
1701634546.8794816,-40.0,6.0,-46.0,-41.0,-30.0,-24.0,-22.0,-49.0
1701634546.8794816,7.0,-7.0,43.0,-12.0,-6.0,-8.0,3.0,34.0
1701634546.8895302,0.0,8.0,10.0,18.0,5.0,15.0,8.0,-27.0
1701634546.8895302,-10.0,-51.0,60.0,1.0,2.0,-1.0,0.0,-16.0
1701634546.8895302,19.0,92.0,108.0,23.0,0.0,4.0,5.0,18.0
1701634546.8895302,13.0,22.0,-58.0,-35.0,2.0,6.0,7.0,19.0
1701634546.9098048,-15.0,-18.0,-57.0,4.0,19.0,1.0,-3.0,-9.0
1701634546.9098048,-8.0,-15.0,73.0,25.0,-10.0,-12.0,-6.0,1.0
1701634546.9098048,7.0,-10.0,36.0,29.0,6.0,15.0,18.0,-28.0
1701634546.9098048,-13.0,-14.0,82.0,-26.0,-21.0,-10.0,-17.0,-11.0
1701634546.9197586,-12.0,58.0,50.0,34.0,9.0,-6.0,-10.0,-2.0
1701634546.929487,56.0,45.0,25.0,-8.0,8.0,5.0,-3.0,1.0
1701634546.929487,-21.0,-121.0,-59.0,5.0,8.0,6.0,8.0,26.0
1701634546.929487,-51.0,29.0,-105.0,-67.0,-28.0,-20.0,-21.0,-42.0
1701634546.9594793,26.0,-5.0,-80.0,-44.0,-18.0,-4.0,-3.0,3.0
1701634546.9594793,-17.0,-34.0,-30.0,56.0,2.0,-4.0,14.0,9.0
1701634546.9594793,19.0,103.0,91.0,-30.0,-9.0,-11.0,-39.0,-33.0
1701634546.9594793,3.0,-38.0,-8.0,80.0,32.0,7.0,5.0,9.0
1701634546.9697556,-1.0,-95.0,87.0,-35.0,-20.0,-5.0,2.0,6.0
1701634546.9697556,-64.0,-12.0,-115.0,-36.0,-20.0,-22.0,-24.0,-32.0
1701634546.9697556,26.0,0.0,28.0,-21.0,-5.0,3.0,26.0,27.0
1701634546.9697556,44.0,38.0,-6.0,8.0,7.0,17.0,12.0,23.0
1701634546.9797344,-33.0,-72.0,-47.0,-21.0,9.0,-5.0,-23.0,-13.0
1701634546.9894872,58.0,75.0,90.0,99.0,34.0,35.0,23.0,36.0
1701634547.009482,-15.0,-121.0,-62.0,-50.0,-8.0,-8.0,-1.0,1.0
1701634547.009482,-9.0,103.0,120.0,87.0,8.0,-2.0,5.0,3.0
1701634547.009482,39.0,-66.0,-70.0,-68.0,-20.0,-1.0,10.0,2.0
1701634547.009482,-3.0,13.0,0.0,-39.0,-7.0,-11.0,-25.0,-21.0
1701634547.009482,-18.0,-57.0,-26.0,-16.0,-11.0,-4.0,3.0,15.0
1701634547.009482,15.0,-13.0,71.0,-7.0,7.0,6.0,-4.0,-16.0
1701634547.0299141,55.0,81.0,46.0,93.0,41.0,28.0,36.0,36.0
1701634547.0299141,-35.0,92.0,51.0,-52.0,-25.0,-17.0,-19.0,-21.0
1701634547.0299141,-12.0,-57.0,29.0,47.0,-3.0,-10.0,-6.0,1.0
1701634547.0299141,-21.0,-128.0,-112.0,-40.0,-11.0,-2.0,10.0,11.0
1701634547.0394852,-47.0,29.0,9.0,-19.0,-17.0,-24.0,-31.0,-31.0
1701634547.0394852,19.0,-41.0,-3.0,11.0,24.0,16.0,13.0,22.0
1701634547.0494795,-13.0,68.0,16.0,-8.0,1.0,-6.0,-7.0,-13.0
1701634547.0494795,57.0,-36.0,77.0,48.0,19.0,23.0,20.0,35.0
1701634547.0716255,-24.0,-19.0,-29.0,-64.0,-24.0,-6.0,-27.0,-45.0
1701634547.0716255,6.0,-59.0,-56.0,19.0,6.0,4.0,5.0,-5.0
1701634547.0734346,-5.0,48.0,21.0,77.0,6.0,-21.0,-19.0,-1.0
1701634547.0734346,-19.0,-24.0,-93.0,-12.0,-10.0,-48.0,-32.0,-33.0
1701634547.092608,-18.0,19.0,58.0,31.0,10.0,41.0,71.0,57.0
1701634547.092608,14.0,-68.0,-87.0,-62.0,-9.0,54.0,31.0,7.0
1701634547.092608,8.0,18.0,4.0,-1.0,9.0,7.0,-18.0,-12.0
1701634547.092608,-31.0,-3.0,-3.0,-17.0,-3.0,17.0,16.0,-4.0
1701634547.112294,-17.0,9.0,-5.0,9.0,-4.0,-32.0,-31.0,11.0
1701634547.112294,9.0,1.0,78.0,3.0,-3.0,-15.0,1.0,-1.0
1701634547.112294,18.0,7.0,-57.0,-5.0,10.0,17.0,7.0,13.0
1701634547.112294,-2.0,10.0,37.0,-12.0,-14.0,-1.0,1.0,7.0
1701634547.1322994,-11.0,8.0,29.0,24.0,9.0,7.0,7.0,8.0
1701634547.1322994,-11.0,-89.0,10.0,2.0,-2.0,-16.0,12.0,13.0
1701634547.1322994,23.0,49.0,4.0,-9.0,-3.0,-14.0,-63.0,-31.0
1701634547.1322994,-12.0,-58.0,-19.0,-37.0,-5.0,1.0,30.0,5.0
1701634547.1522954,13.0,5.0,40.0,31.0,6.0,19.0,36.0,24.0
1701634547.1522954,-42.0,-56.0,-99.0,1.0,-2.0,-21.0,-38.0,-4.0
1701634547.162346,-15.0,18.0,8.0,-33.0,-19.0,-19.0,2.0,-58.0
1701634547.162346,49.0,-17.0,47.0,18.0,12.0,27.0,18.0,20.0
1701634547.162346,-17.0,23.0,-28.0,-10.0,-6.0,-17.0,-31.0,-18.0
1701634547.162346,19.0,-12.0,53.0,-3.0,-1.0,-10.0,-1.0,-6.0
1701634547.1725507,-2.0,-83.0,-52.0,-1.0,-4.0,11.0,7.0,26.0
1701634547.1725507,-21.0,39.0,34.0,0.0,1.0,4.0,3.0,-10.0
1701634547.192581,25.0,38.0,-49.0,-45.0,-25.0,-20.0,-31.0,-27.0
1701634547.192581,-55.0,35.0,62.0,11.0,-4.0,-22.0,-22.0,-35.0
1701634547.192581,14.0,-26.0,1.0,28.0,12.0,15.0,20.0,40.0
1701634547.192581,52.0,35.0,-12.0,-15.0,1.0,-17.0,-10.0,-7.0
1701634547.2225776,8.0,-41.0,23.0,-19.0,-1.0,4.0,3.0,0.0
1701634547.2225776,-18.0,22.0,-50.0,-18.0,-16.0,-5.0,27.0,14.0
1701634547.2225776,-18.0,6.0,94.0,66.0,12.0,2.0,-26.0,-40.0
1701634547.2225776,9.0,19.0,19.0,-34.0,-20.0,-9.0,-17.0,4.0
1701634547.2225776,-30.0,-18.0,-1.0,16.0,4.0,-1.0,5.0,-8.0
1701634547.2225776,55.0,18.0,-86.0,-37.0,-5.0,9.0,28.0,26.0
1701634547.2325962,-13.0,6.0,127.0,-46.0,-17.0,-7.0,-17.0,11.0
1701634547.2325962,-25.0,36.0,36.0,6.0,-13.0,-18.0,-32.0,-29.0
1701634547.242965,15.0,13.0,-89.0,55.0,19.0,11.0,-3.0,-7.0
1701634547.242965,3.0,-58.0,-45.0,-42.0,-12.0,-7.0,-3.0,9.0
1701634547.2525787,-13.0,16.0,0.0,12.0,-2.0,9.0,40.0,11.0
1701634547.2525787,-32.0,-26.0,-49.0,-60.0,-21.0,-14.0,-32.0,-33.0
1701634547.2730362,7.0,-16.0,-24.0,9.0,4.0,-1.0,7.0,7.0
1701634547.2730362,-17.0,7.0,97.0,3.0,0.0,-4.0,-8.0,7.0
1701634547.2730362,23.0,12.0,-38.0,-5.0,16.0,8.0,12.0,-7.0
1701634547.2730362,-11.0,-22.0,-37.0,12.0,7.0,4.0,-3.0,-7.0
1701634547.283455,12.0,16.0,127.0,49.0,7.0,8.0,11.0,9.0
1701634547.283455,8.0,-20.0,-119.0,-8.0,11.0,5.0,-8.0,-8.0
1701634547.293061,15.0,50.0,118.0,-20.0,2.0,-1.0,12.0,35.0
1701634547.293061,-3.0,10.0,-18.0,-1.0,-10.0,-22.0,-22.0,-24.0
1701634547.3130605,18.0,-3.0,10.0,43.0,25.0,26.0,26.0,-2.0
1701634547.3130605,-16.0,-11.0,-42.0,-9.0,-6.0,-26.0,-35.0,-7.0
1701634547.3130605,8.0,10.0,-20.0,-1.0,19.0,43.0,55.0,31.0
1701634547.3130605,-8.0,-8.0,-62.0,-10.0,-13.0,-13.0,-33.0,-26.0
1701634547.3334816,11.0,-28.0,-76.0,-46.0,-17.0,-38.0,-31.0,2.0
1701634547.3334816,13.0,53.0,122.0,48.0,18.0,50.0,33.0,-32.0
1701634547.3334816,-17.0,-32.0,-120.0,-37.0,-20.0,-30.0,-17.0,9.0
1701634547.3334816,-10.0,-40.0,-16.0,12.0,15.0,-4.0,10.0,1.0
1701634547.343441,-19.0,4.0,124.0,14.0,-6.0,4.0,-8.0,24.0
1701634547.343441,-14.0,-15.0,-32.0,-24.0,-8.0,-17.0,-18.0,-29.0
1701634547.35312,-8.0,25.0,48.0,8.0,-4.0,-11.0,-2.0,-11.0
1701634547.35312,17.0,27.0,54.0,18.0,17.0,-15.0,-8.0,22.0
1701634547.3730645,-1.0,-14.0,56.0,-11.0,-13.0,34.0,26.0,-3.0
1701634547.3730645,-11.0,26.0,-55.0,18.0,7.0,8.0,13.0,13.0
1701634547.3730645,4.0,-1.0,-23.0,7.0,-5.0,-5.0,-12.0,-13.0
1701634547.3730645,-25.0,-34.0,-62.0,-27.0,-15.0,-23.0,-14.0,-10.0
1701634547.393118,10.0,5.0,69.0,24.0,16.0,-5.0,-1.0,-4.0
1701634547.393118,-21.0,11.0,-72.0,-34.0,-10.0,23.0,25.0,-5.0
1701634547.393118,4.0,-39.0,-25.0,-24.0,-8.0,-15.0,-22.0,-2.0
1701634547.393118,19.0,23.0,-5.0,37.0,16.0,9.0,16.0,26.0
1701634547.4030643,-24.0,-19.0,-27.0,-37.0,-17.0,-25.0,-32.0,-32.0
1701634547.4030643,-19.0,25.0,-11.0,-1.0,-17.0,-11.0,5.0,1.0
1701634547.4132628,17.0,-72.0,65.0,28.0,26.0,13.0,27.0,23.0
1701634547.4132628,24.0,77.0,-81.0,-37.0,-19.0,3.0,-11.0,24.0
1701634547.4430656,-57.0,-51.0,-6.0,-108.0,-38.0,-16.0,-37.0,-53.0
1701634547.4430656,-1.0,-14.0,119.0,90.0,27.0,-13.0,-15.0,4.0
1701634547.4430656,-17.0,30.0,10.0,-49.0,-24.0,-9.0,6.0,-10.0
1701634547.4430656,69.0,-62.0,57.0,99.0,75.0,66.0,90.0,67.0
1701634547.4530585,-18.0,-40.0,-128.0,-103.0,-43.0,-30.0,-65.0,-51.0
1701634547.4530585,-13.0,18.0,117.0,4.0,-20.0,-24.0,-29.0,-3.0
1701634547.4530585,14.0,-2.0,93.0,-40.0,-11.0,-2.0,7.0,-5.0
1701634547.4530585,-78.0,-61.0,17.0,26.0,10.0,14.0,9.0,-16.0
1701634547.4633987,51.0,-15.0,74.0,36.0,14.0,9.0,33.0,30.0
1701634547.4633987,3.0,-80.0,44.0,13.0,19.0,6.0,-3.0,11.0
1701634547.483061,-18.0,-55.0,-86.0,-47.0,-37.0,-11.0,-11.0,-17.0
1701634547.483061,-13.0,114.0,-53.0,-43.0,-12.0,-2.0,-17.0,-5.0
1701634547.483061,-22.0,-71.0,86.0,-56.0,-21.0,-18.0,-21.0,-22.0
1701634547.4930665,-22.0,16.0,-25.0,-2.0,13.0,2.0,17.0,15.0
1701634547.4930665,30.0,-21.0,39.0,44.0,10.0,0.0,-17.0,-19.0
1701634547.4930665,-37.0,58.0,51.0,-47.0,-36.0,-23.0,-23.0,-25.0
1701634547.51333,52.0,-16.0,-60.0,33.0,12.0,23.0,89.0,97.0
1701634547.51333,-26.0,-30.0,-103.0,-82.0,-16.0,-16.0,-86.0,-86.0
1701634547.51333,-37.0,-8.0,40.0,20.0,13.0,-1.0,8.0,2.0
1701634547.51333,45.0,13.0,81.0,23.0,7.0,9.0,2.0,-1.0
1701634547.5233207,23.0,75.0,69.0,46.0,10.0,5.0,20.0,23.0
1701634547.5233207,23.0,-8.0,-63.0,-8.0,6.0,7.0,25.0,26.0
1701634547.553064,2.0,55.0,-28.0,30.0,16.0,17.0,13.0,2.0
1701634547.553064,-4.0,-29.0,55.0,2.0,-20.0,-9.0,-39.0,-42.0
1701634547.553064,-1.0,57.0,-78.0,3.0,12.0,4.0,12.0,8.0
1701634547.553064,28.0,-19.0,127.0,96.0,14.0,5.0,8.0,16.0
1701634547.553064,-28.0,11.0,-128.0,-75.0,-17.0,-14.0,-26.0,-25.0
1701634547.553064,-10.0,8.0,44.0,-9.0,-17.0,-5.0,15.0,20.0
1701634547.5734413,28.0,34.0,24.0,9.0,13.0,6.0,-1.0,2.0
1701634547.5734413,-14.0,-19.0,56.0,1.0,4.0,4.0,2.0,-10.0
1701634547.5734413,29.0,16.0,4.0,5.0,4.0,-1.0,-6.0,11.0
1701634547.5734413,-16.0,-36.0,51.0,6.0,3.0,-4.0,-4.0,-12.0
1701634547.58344,-15.0,60.0,-107.0,-6.0,-1.0,-27.0,-34.0,-17.0
1701634547.58344,24.0,-10.0,-76.0,-13.0,-7.0,24.0,33.0,8.0
1701634547.6046455,-36.0,-46.0,-10.0,-1.0,-1.0,-4.0,7.0,-8.0
1701634547.6046455,-9.0,-29.0,-104.0,-13.0,-2.0,6.0,14.0,10.0
1701634547.611595,-21.0,-27.0,11.0,3.0,2.0,-20.0,-18.0,-31.0
1701634547.6126208,14.0,50.0,50.0,-9.0,-7.0,30.0,6.0,39.0
1701634547.6136687,-2.0,33.0,-32.0,16.0,2.0,-21.0,-21.0,-18.0
1701634547.6136687,-1.0,-13.0,24.0,5.0,-4.0,-46.0,-4.0,-4.0
1701634547.6350098,-5.0,-15.0,-11.0,10.0,-4.0,48.0,0.0,-3.0
1701634547.6350098,-6.0,-15.0,-32.0,-28.0,-3.0,7.0,33.0,-12.0
1701634547.6350098,-2.0,26.0,50.0,27.0,1.0,-17.0,0.0,33.0
1701634547.6350098,21.0,-6.0,-24.0,-3.0,14.0,13.0,7.0,20.0
1701634547.675003,5.0,13.0,44.0,21.0,-1.0,-33.0,-22.0,-20.0
1701634547.675003,-15.0,-48.0,-64.0,-3.0,-4.0,-21.0,-26.0,3.0
1701634547.675003,4.0,-3.0,23.0,-22.0,-12.0,5.0,-5.0,-13.0
1701634547.675003,-5.0,23.0,12.0,25.0,10.0,1.0,10.0,1.0
1701634547.675003,-9.0,-8.0,-8.0,6.0,8.0,16.0,23.0,0.0
1701634547.675003,17.0,12.0,-11.0,-21.0,5.0,-1.0,-6.0,-8.0
1701634547.675003,-4.0,1.0,28.0,32.0,5.0,-10.0,-11.0,-1.0
1701634547.675003,11.0,41.0,46.0,6.0,0.0,19.0,3.0,-6.0
1701634547.6953967,-8.0,3.0,-11.0,16.0,11.0,4.0,9.0,14.0
1701634547.6953967,10.0,3.0,40.0,1.0,-3.0,-28.0,-17.0,-4.0
1701634547.6953967,17.0,97.0,44.0,24.0,6.0,26.0,28.0,7.0
1701634547.6953967,-14.0,-23.0,45.0,-9.0,-2.0,8.0,6.0,-11.0
1701634547.7150018,-5.0,12.0,-44.0,-26.0,-3.0,9.0,-2.0,-5.0
1701634547.7150018,0.0,4.0,-3.0,4.0,1.0,-30.0,-21.0,2.0
1701634547.7150018,28.0,-34.0,-2.0,26.0,17.0,21.0,22.0,16.0
1701634547.7150018,9.0,9.0,-23.0,-2.0,-5.0,14.0,1.0,-14.0
1701634547.725,-24.0,-45.0,-29.0,-7.0,-7.0,-12.0,20.0,21.0
1701634547.725,-11.0,18.0,26.0,2.0,-9.0,-24.0,-55.0,-45.0
1701634547.725,-21.0,-7.0,-36.0,-32.0,-7.0,10.0,28.0,13.0
1701634547.725,17.0,-64.0,-6.0,17.0,11.0,6.0,-19.0,-31.0
1701634547.75501,-3.0,47.0,63.0,28.0,3.0,-6.0,21.0,39.0
1701634547.75501,10.0,-10.0,-10.0,-32.0,-9.0,18.0,23.0,5.0
1701634547.75501,-12.0,-43.0,-91.0,-40.0,-24.0,-29.0,-52.0,-46.0
1701634547.75501,-40.0,1.0,4.0,15.0,6.0,-10.0,13.0,22.0
1701634547.7750459,37.0,-16.0,-12.0,22.0,12.0,13.0,30.0,18.0
1701634547.7750459,-52.0,-67.0,-29.0,-49.0,-23.0,-25.0,-65.0,-64.0
1701634547.7750459,11.0,22.0,67.0,58.0,21.0,12.0,-6.0,14.0
1701634547.7750459,12.0,-32.0,-104.0,-48.0,-18.0,-6.0,-6.0,-3.0
1701634547.7853813,0.0,20.0,63.0,42.0,17.0,5.0,-8.0,-5.0
1701634547.7853813,8.0,70.0,30.0,8.0,6.0,12.0,52.0,39.0
1701634547.795417,12.0,-54.0,-82.0,-24.0,-11.0,-5.0,6.0,7.0
1701634547.795417,-43.0,72.0,1.0,-5.0,-7.0,-14.0,-41.0,-30.0
1701634547.8053734,-5.0,-122.0,51.0,40.0,17.0,11.0,0.0,5.0
1701634547.8053734,-15.0,92.0,22.0,8.0,-13.0,-7.0,8.0,-10.0
1701634547.815059,16.0,80.0,99.0,34.0,23.0,17.0,1.0,7.0
1701634547.815059,18.0,-65.0,-85.0,-62.0,-12.0,-4.0,30.0,32.0
1701634547.835281,-11.0,37.0,17.0,0.0,-37.0,-13.0,-21.0,-11.0
1701634547.835281,33.0,-34.0,19.0,-21.0,21.0,-2.0,-27.0,-27.0
1701634547.835281,-38.0,1.0,-47.0,35.0,-15.0,-8.0,15.0,12.0
1701634547.835281,17.0,-29.0,67.0,-14.0,9.0,12.0,8.0,2.0
1701634547.855364,-44.0,-11.0,-84.0,-93.0,-50.0,-33.0,-25.0,-35.0
1701634547.855364,36.0,9.0,30.0,63.0,51.0,26.0,30.0,45.0
1701634547.855364,-3.0,-17.0,26.0,-13.0,-5.0,-8.0,-5.0,-3.0
1701634547.855364,10.0,-17.0,127.0,53.0,10.0,6.0,0.0,19.0
1701634547.8750625,5.0,27.0,-71.0,-35.0,0.0,0.0,-9.0,-8.0
1701634547.8750625,-17.0,-3.0,-1.0,-9.0,-32.0,-12.0,2.0,-4.0
1701634547.8750625,-18.0,-56.0,22.0,-30.0,6.0,1.0,-6.0,-19.0
1701634547.8750625,24.0,53.0,37.0,40.0,13.0,-11.0,-15.0,18.0
1701634547.9050565,1.0,-11.0,-24.0,-1.0,2.0,7.0,1.0,-25.0
1701634547.9050565,9.0,-3.0,34.0,25.0,25.0,35.0,28.0,31.0
1701634547.9050565,-9.0,5.0,24.0,5.0,-28.0,-26.0,-26.0,-31.0
1701634547.9050565,-19.0,11.0,-52.0,-28.0,-9.0,-6.0,-2.0,-5.0
1701634547.9050565,48.0,36.0,57.0,7.0,22.0,8.0,8.0,35.0
1701634547.9050565,-20.0,-71.0,-114.0,-49.0,-15.0,-15.0,-11.0,-5.0
1701634547.915314,-2.0,5.0,7.0,21.0,-6.0,-16.0,-5.0,-15.0
1701634547.915314,7.0,-17.0,-12.0,-11.0,-1.0,24.0,11.0,16.0
1701634547.9350626,-3.0,16.0,58.0,28.0,3.0,-4.0,-7.0,8.0
1701634547.9350626,-1.0,15.0,-51.0,-6.0,-5.0,-2.0,5.0,5.0
1701634547.9350626,6.0,-49.0,72.0,0.0,20.0,10.0,12.0,-7.0
1701634547.9350626,-28.0,-24.0,-120.0,-44.0,-22.0,-21.0,-23.0,-19.0
1701634547.9550567,-13.0,51.0,100.0,-5.0,-10.0,4.0,-6.0,-27.0
1701634547.9550567,15.0,-32.0,24.0,34.0,6.0,6.0,14.0,27.0
1701634547.9550567,-3.0,83.0,10.0,4.0,-15.0,-23.0,-29.0,-8.0
1701634547.9550567,-8.0,-33.0,-31.0,-20.0,-6.0,5.0,13.0,-5.0
1701634547.9653158,15.0,14.0,-53.0,2.0,7.0,3.0,1.0,4.0
1701634547.9653158,-26.0,-39.0,-71.0,-20.0,-8.0,-17.0,-24.0,-18.0
1701634547.9752862,23.0,52.0,13.0,4.0,10.0,24.0,43.0,46.0
1701634547.9752862,4.0,-1.0,-6.0,2.0,19.0,32.0,25.0,-5.0
1701634548.005061,-20.0,1.0,-40.0,-60.0,-29.0,-29.0,-35.0,-26.0
1701634548.005061,1.0,-4.0,127.0,63.0,-4.0,-15.0,-13.0,2.0
1701634548.005061,-7.0,-4.0,41.0,45.0,27.0,0.0,-9.0,-10.0
1701634548.005061,-6.0,41.0,-4.0,-35.0,-10.0,4.0,18.0,1.0
1701634548.015311,32.0,-69.0,-21.0,24.0,19.0,17.0,27.0,46.0
1701634548.015311,-2.0,40.0,-35.0,-41.0,-13.0,2.0,-9.0,-33.0
1701634548.015311,-2.0,55.0,-51.0,16.0,17.0,8.0,-6.0,8.0
1701634548.015311,7.0,12.0,118.0,36.0,-12.0,-52.0,-25.0,-11.0
1701634548.0253356,-4.0,14.0,13.0,17.0,13.0,27.0,5.0,-14.0
1701634548.0253356,26.0,9.0,41.0,-4.0,3.0,41.0,50.0,21.0
1701634548.035315,12.0,-3.0,-128.0,-37.0,1.0,12.0,4.0,10.0
1701634548.035315,-1.0,28.0,37.0,17.0,9.0,9.0,-2.0,-8.0
1701634548.0452714,-13.0,36.0,67.0,-11.0,-13.0,-44.0,-33.0,-11.0
1701634548.0550663,-4.0,-11.0,18.0,-20.0,-18.0,-17.0,0.0,14.0
1701634548.0550663,0.0,-103.0,-6.0,-20.0,3.0,20.0,20.0,-4.0
1701634548.0550663,-6.0,27.0,29.0,26.0,12.0,6.0,4.0,-13.0
1701634548.0750635,-20.0,-43.0,-55.0,-16.0,-1.0,-2.0,-8.0,3.0
1701634548.0750635,-3.0,22.0,49.0,0.0,-13.0,-23.0,-25.0,-17.0
1701634548.0851269,-3.0,-4.0,-24.0,-21.0,-26.0,-6.0,-8.0,5.0
1701634548.0851269,-1.0,-41.0,-33.0,0.0,5.0,18.0,12.0,18.0
1701634548.0851269,4.0,10.0,2.0,22.0,13.0,25.0,22.0,-7.0
1701634548.0851269,34.0,15.0,-41.0,-32.0,-3.0,-5.0,6.0,-2.0
1701634548.095394,-14.0,-34.0,27.0,-17.0,-25.0,-25.0,-40.0,-7.0
1701634548.095394,-4.0,10.0,-13.0,39.0,12.0,-5.0,-11.0,1.0
1701634548.1150646,-7.0,-16.0,-62.0,5.0,10.0,-11.0,-14.0,-2.0
1701634548.1154032,9.0,20.0,29.0,20.0,18.0,47.0,64.0,31.0
1701634548.1154032,13.0,-24.0,21.0,-31.0,-2.0,10.0,35.0,36.0
1701634548.1154032,-17.0,-17.0,-48.0,-28.0,-20.0,-13.0,-64.0,-78.0
1701634548.1371489,-12.0,-31.0,13.0,8.0,-2.0,-26.0,-13.0,-13.0
1701634548.1381712,-5.0,11.0,47.0,15.0,9.0,-8.0,-9.0,15.0
1701634548.139165,-12.0,-47.0,29.0,2.0,0.0,2.0,-6.0,-4.0
1701634548.139165,-10.0,-8.0,75.0,-3.0,-9.0,-2.0,13.0,8.0
1701634548.168119,33.0,6.0,-10.0,-3.0,4.0,8.0,28.0,34.0
1701634548.168119,-3.0,39.0,5.0,4.0,-4.0,-11.0,-33.0,-40.0
1701634548.168119,-7.0,-21.0,-10.0,4.0,8.0,5.0,-15.0,12.0
1701634548.168119,30.0,25.0,26.0,21.0,3.0,-2.0,25.0,32.0
1701634548.1781156,-37.0,-53.0,-2.0,-16.0,-15.0,-14.0,-46.0,-81.0
1701634548.1781156,6.0,-74.0,-45.0,8.0,2.0,4.0,25.0,16.0
1701634548.1781156,-15.0,36.0,-46.0,-19.0,-4.0,-11.0,-21.0,-22.0
1701634548.1781156,6.0,-6.0,-22.0,-4.0,-7.0,-4.0,7.0,11.0
1701634548.188362,16.0,25.0,62.0,25.0,6.0,6.0,19.0,16.0
1701634548.188362,-25.0,-16.0,-23.0,-13.0,1.0,5.0,-9.0,2.0
1701634548.1981165,-50.0,-36.0,-2.0,-18.0,-13.0,-21.0,15.0,-17.0
1701634548.1981165,39.0,9.0,-51.0,-1.0,0.0,5.0,-40.0,-20.0
1701634548.2181175,-23.0,28.0,54.0,16.0,3.0,13.0,26.0,23.0
1701634548.2181175,-4.0,23.0,-9.0,-12.0,0.0,-15.0,-22.0,1.0
1701634548.2181175,-27.0,-20.0,53.0,56.0,16.0,-3.0,-12.0,-32.0
1701634548.2181175,13.0,40.0,-67.0,-33.0,-15.0,7.0,35.0,32.0
1701634548.2283137,-6.0,-45.0,-8.0,-15.0,3.0,-2.0,-14.0,-9.0
1701634548.2283137,5.0,73.0,-32.0,-57.0,-1.0,1.0,12.0,14.0
1701634548.2283137,59.0,43.0,21.0,58.0,7.0,13.0,3.0,4.0
1701634548.2283137,-34.0,-13.0,102.0,15.0,-7.0,-19.0,-38.0,-32.0
1701634548.2483768,21.0,60.0,36.0,34.0,9.0,5.0,6.0,6.0
1701634548.2483768,-24.0,-94.0,-110.0,-86.0,-35.0,-9.0,-7.0,-13.0
1701634548.2583797,-12.0,20.0,30.0,-91.0,-29.0,-12.0,2.0,5.0
1701634548.2583797,6.0,1.0,25.0,106.0,54.0,11.0,22.0,15.0
1701634548.2683773,3.0,-78.0,16.0,-24.0,-8.0,-3.0,-22.0,-16.0
1701634548.2683773,-23.0,-12.0,-36.0,18.0,3.0,-2.0,-6.0,-4.0
1701634548.2784095,25.0,23.0,78.0,13.0,-5.0,3.0,10.0,7.0
1701634548.2784095,-24.0,-29.0,-100.0,-86.0,-20.0,-11.0,-14.0,-15.0
1701634548.2883785,-13.0,-66.0,26.0,58.0,12.0,3.0,12.0,15.0
1701634548.2883785,36.0,106.0,-39.0,4.0,2.0,2.0,-6.0,8.0
1701634548.2883785,11.0,-50.0,-109.0,-44.0,-9.0,-4.0,-3.0,-1.0
1701634548.2883785,-12.0,23.0,11.0,4.0,10.0,7.0,9.0,-5.0
1701634548.3183758,0.0,0.0,-6.0,-1.0,2.0,4.0,5.0,23.0
1701634548.3183758,-13.0,-35.0,3.0,-7.0,-17.0,-16.0,-15.0,-13.0
1701634548.3183758,-5.0,41.0,71.0,2.0,4.0,0.0,-1.0,-15.0
1701634548.3183758,18.0,-75.0,-24.0,-16.0,-6.0,1.0,17.0,51.0
1701634548.3283782,-2.0,39.0,60.0,-11.0,3.0,15.0,1.0,-53.0
1701634548.3283782,-10.0,12.0,43.0,31.0,-8.0,-28.0,-34.0,-1.0
1701634548.338376,1.0,7.0,26.0,15.0,4.0,-7.0,9.0,11.0
1701634548.338376,-32.0,-33.0,59.0,-12.0,-6.0,15.0,18.0,17.0
1701634548.3483758,-2.0,1.0,-128.0,-11.0,5.0,21.0,17.0,-24.0
1701634548.3483758,2.0,28.0,41.0,3.0,0.0,-3.0,-6.0,10.0
1701634548.3483758,-24.0,-6.0,61.0,14.0,-1.0,-9.0,-8.0,-19.0
1701634548.3483758,13.0,41.0,98.0,21.0,-12.0,-21.0,-3.0,0.0
1701634548.3783767,-8.0,10.0,-79.0,-36.0,-4.0,2.0,-19.0,8.0
1701634548.3783767,13.0,-28.0,117.0,38.0,4.0,-3.0,-11.0,-13.0
1701634548.3783767,19.0,37.0,-65.0,28.0,8.0,6.0,-8.0,-2.0
1701634548.3783767,-4.0,40.0,20.0,-3.0,6.0,0.0,14.0,-1.0
1701634548.3883781,8.0,30.0,-4.0,4.0,-6.0,-1.0,15.0,-7.0
1701634548.3883781,-26.0,-86.0,24.0,10.0,15.0,9.0,-1.0,15.0
1701634548.3983767,15.0,-19.0,-83.0,-11.0,-1.0,0.0,-8.0,-12.0
1701634548.3983767,-9.0,-25.0,-64.0,-89.0,-32.0,-12.0,-4.0,4.0
1701634548.4083788,-11.0,19.0,100.0,31.0,-17.0,-19.0,-6.0,3.0
1701634548.4083788,-19.0,23.0,103.0,1.0,-8.0,-22.0,-13.0,-15.0
1701634548.4083788,-20.0,-38.0,-33.0,-5.0,10.0,3.0,13.0,5.0
1701634548.4083788,13.0,19.0,1.0,21.0,5.0,27.0,-12.0,-25.0
1701634548.438377,16.0,21.0,-26.0,-4.0,5.0,3.0,14.0,10.0
1701634548.438377,5.0,2.0,47.0,-42.0,-12.0,8.0,14.0,5.0
1701634548.438377,-1.0,-6.0,-44.0,40.0,18.0,7.0,2.0,10.0
1701634548.438377,25.0,13.0,29.0,53.0,17.0,-5.0,-1.0,5.0
1701634548.44841,-15.0,-54.0,-65.0,-63.0,-26.0,-27.0,-38.0,-18.0
1701634548.44841,18.0,4.0,54.0,30.0,20.0,23.0,37.0,35.0
1701634548.4587114,-26.0,34.0,63.0,-58.0,-37.0,-20.0,-25.0,-58.0
1701634548.4587114,16.0,-81.0,-102.0,-23.0,25.0,14.0,14.0,27.0
1701634548.4687135,-28.0,28.0,66.0,31.0,-31.0,-28.0,-22.0,-17.0
1701634548.4687135,15.0,-44.0,42.0,15.0,22.0,17.0,15.0,4.0
1701634548.4687135,-42.0,-94.0,-107.0,-26.0,-3.0,-1.0,-3.0,16.0
1701634548.4687135,-3.0,42.0,24.0,-45.0,-38.0,-23.0,29.0,12.0
1701634548.4883757,8.0,8.0,53.0,4.0,14.0,-1.0,-55.0,-48.0
1701634548.4883757,-8.0,-81.0,-128.0,-22.0,-15.0,-7.0,12.0,14.0
1701634548.498392,66.0,61.0,127.0,36.0,22.0,16.0,-2.0,0.0
1701634548.498392,-53.0,-34.0,31.0,4.0,0.0,-2.0,-11.0,-14.0
1701634548.5087585,56.0,77.0,-71.0,-9.0,14.0,15.0,62.0,65.0
1701634548.5087585,-18.0,58.0,127.0,60.0,-2.0,-12.0,-73.0,-74.0
1701634548.5183775,-3.0,-67.0,-77.0,-9.0,3.0,6.0,20.0,26.0
1701634548.5183775,-19.0,2.0,-114.0,-21.0,-12.0,-13.0,-24.0,-28.0
1701634548.528653,14.0,14.0,7.0,-39.0,-14.0,-9.0,17.0,35.0
1701634548.528653,15.0,7.0,-5.0,41.0,22.0,19.0,24.0,-8.0
1701634548.528653,41.0,6.0,32.0,9.0,4.0,-1.0,-20.0,3.0
1701634548.528653,-18.0,10.0,7.0,-2.0,-8.0,-10.0,-34.0,-22.0
1701634548.5483751,-38.0,-114.0,-14.0,18.0,15.0,7.0,-6.0,-6.0
1701634548.5483751,-25.0,-12.0,-33.0,-49.0,-16.0,-5.0,8.0,-4.0
1701634548.5583758,-22.0,63.0,-61.0,-45.0,-35.0,-24.0,-12.0,-8.0
1701634548.5583758,5.0,-64.0,82.0,25.0,15.0,16.0,56.0,26.0
1701634548.5787702,30.0,81.0,93.0,4.0,-2.0,-14.0,-62.0,-25.0
1701634548.5787702,-7.0,-19.0,-82.0,2.0,-8.0,-5.0,24.0,14.0
1701634548.5787702,6.0,-2.0,-36.0,1.0,7.0,6.0,4.0,-1.0
1701634548.5787702,7.0,35.0,64.0,10.0,-3.0,4.0,-2.0,-2.0
1701634548.5887265,-18.0,-16.0,-86.0,-5.0,4.0,6.0,18.0,6.0
1701634548.5887265,-17.0,13.0,-5.0,-18.0,-12.0,-6.0,-14.0,-24.0
1701634548.6083753,19.0,13.0,25.0,17.0,4.0,-1.0,6.0,30.0
1701634548.6083753,4.0,-28.0,-18.0,25.0,15.0,18.0,1.0,-4.0
1701634548.6083753,14.0,2.0,87.0,-4.0,-10.0,-6.0,14.0,19.0
1701634548.6083753,31.0,-2.0,3.0,-23.0,-5.0,-4.0,1.0,-2.0
1701634548.6183805,7.0,-11.0,-2.0,10.0,0.0,-4.0,-13.0,19.0
1701634548.6183805,-49.0,-90.0,-94.0,-14.0,-8.0,-16.0,-41.0,-52.0
1701634548.638619,16.0,92.0,24.0,-16.0,-6.0,3.0,23.0,12.0
1701634548.638619,-31.0,24.0,60.0,15.0,7.0,-6.0,-22.0,1.0
1701634548.638619,39.0,-14.0,-55.0,1.0,12.0,-1.0,1.0,2.0
1701634548.638619,13.0,32.0,105.0,-3.0,-9.0,14.0,28.0,11.0
1701634548.6552882,-63.0,-95.0,-40.0,2.0,0.0,5.0,-11.0,-33.0
1701634548.6552882,11.0,30.0,-16.0,-5.0,-7.0,8.0,35.0,75.0
1701634548.6562867,29.0,0.0,60.0,35.0,20.0,10.0,8.0,-6.0
1701634548.6562867,-37.0,30.0,30.0,-14.0,-15.0,-36.0,-78.0,-50.0
1701634548.6804326,-29.0,-42.0,15.0,14.0,13.0,0.0,-10.0,-20.0
1701634548.6804326,-14.0,30.0,-41.0,-28.0,-22.0,-16.0,-14.0,-31.0
1701634548.6804326,19.0,-1.0,63.0,30.0,17.0,31.0,48.0,64.0
1701634548.6804326,40.0,-13.0,13.0,24.0,14.0,10.0,20.0,21.0
1701634548.6904674,-18.0,17.0,43.0,-22.0,-12.0,-3.0,-2.0,-11.0
1701634548.6904674,14.0,-56.0,-128.0,-26.0,4.0,-7.0,-13.0,-17.0
1701634548.7004416,-21.0,58.0,105.0,57.0,11.0,2.0,8.0,-12.0
1701634548.7004416,27.0,15.0,-42.0,-34.0,-16.0,-11.0,-17.0,0.0
1701634548.710809,-3.0,-21.0,31.0,44.0,1.0,-6.0,-1.0,15.0
1701634548.710809,-11.0,-29.0,25.0,3.0,2.0,6.0,2.0,-5.0
1701634548.720452,-9.0,6.0,-11.0,-37.0,-15.0,-17.0,-21.0,-20.0
1701634548.720452,10.0,-1.0,-20.0,1.0,18.0,12.0,19.0,32.0
1701634548.7304332,6.0,-57.0,-21.0,-1.0,4.0,38.0,41.0,18.0
1701634548.7304332,33.0,78.0,-15.0,-9.0,-5.0,-13.0,-19.0,-7.0
1701634548.7304332,-42.0,-52.0,-114.0,-40.0,-19.0,-5.0,-10.0,-16.0
1701634548.7304332,12.0,63.0,114.0,36.0,3.0,-17.0,-18.0,-6.0
1701634548.7507105,14.0,22.0,-69.0,-15.0,-4.0,-9.0,-7.0,9.0
1701634548.7604408,7.0,-7.0,43.0,32.0,21.0,21.0,23.0,12.0
1701634548.7604408,-15.0,107.0,50.0,-25.0,-4.0,-2.0,-3.0,-16.0
1701634548.7604408,6.0,-69.0,-92.0,6.0,2.0,4.0,-1.0,-8.0
1701634548.7904322,-1.0,-13.0,-60.0,-52.0,-29.0,-25.0,-15.0,-10.0
1701634548.7904322,-11.0,42.0,71.0,31.0,6.0,6.0,2.0,-5.0
1701634548.7904322,21.0,-26.0,43.0,22.0,9.0,3.0,6.0,3.0
1701634548.7904322,4.0,43.0,-46.0,-7.0,0.0,5.0,8.0,7.0
1701634548.7904322,10.0,-59.0,15.0,11.0,17.0,5.0,2.0,3.0
1701634548.7904322,-24.0,-4.0,83.0,-47.0,-41.0,-26.0,-16.0,8.0
1701634548.7904322,3.0,-14.0,36.0,61.0,25.0,11.0,6.0,-20.0
1701634548.7904322,-14.0,-75.0,-91.0,-52.0,-21.0,-12.0,0.0,-2.0
1701634548.8107224,15.0,49.0,2.0,16.0,29.0,16.0,9.0,32.0
1701634548.8107224,3.0,-50.0,-106.0,8.0,-23.0,-22.0,-18.0,-1.0
1701634548.8204386,-50.0,-49.0,-89.0,-49.0,-15.0,-8.0,-9.0,-28.0
1701634548.8204386,4.0,82.0,10.0,11.0,5.0,0.0,-1.0,-15.0
1701634548.8404384,40.0,-1.0,-23.0,-17.0,-4.0,-1.0,23.0,31.0
1701634548.8404384,2.0,23.0,56.0,37.0,31.0,17.0,-5.0,1.0
1701634548.8404384,-31.0,-44.0,67.0,-25.0,-11.0,-9.0,-11.0,-16.0
1701634548.8404384,6.0,52.0,84.0,37.0,-5.0,-9.0,2.0,2.0
1701634548.8504832,-11.0,6.0,46.0,-15.0,-6.0,-1.0,-9.0,-26.0
1701634548.8504832,40.0,64.0,-29.0,24.0,16.0,22.0,24.0,40.0
1701634548.8504832,-11.0,21.0,33.0,-20.0,-12.0,-10.0,-14.0,-30.0
1701634548.8504832,1.0,10.0,101.0,25.0,3.0,-2.0,3.0,7.0
1701634548.8708234,-32.0,-10.0,-34.0,25.0,13.0,2.0,3.0,3.0
1701634548.8708234,18.0,9.0,-69.0,-41.0,-5.0,-1.0,-11.0,-19.0
1701634548.880436,-2.0,-12.0,61.0,5.0,5.0,3.0,-5.0,6.0
1701634548.880436,14.0,54.0,52.0,0.0,3.0,1.0,30.0,47.0
1701634548.8904345,-7.0,-43.0,3.0,2.0,-8.0,14.0,5.0,-17.0
1701634548.8904345,-19.0,-40.0,-96.0,1.0,22.0,5.0,-25.0,-34.0
1701634548.900551,10.0,35.0,6.0,-9.0,-26.0,-11.0,-2.0,13.0
1701634548.900551,28.0,78.0,82.0,24.0,7.0,5.0,-1.0,1.0
1701634548.9104962,3.0,2.0,-74.0,-44.0,-13.0,-7.0,6.0,11.0
1701634548.9104962,5.0,-18.0,95.0,-34.0,-14.0,3.0,14.0,-21.0
1701634548.9104962,-20.0,-74.0,-81.0,32.0,29.0,1.0,7.0,34.0
1701634548.9104962,-74.0,-97.0,-47.0,13.0,-5.0,-12.0,-31.0,-33.0
1701634548.930773,18.0,33.0,-41.0,-6.0,-9.0,-1.0,19.0,33.0
1701634548.930773,-26.0,75.0,127.0,17.0,-13.0,-18.0,-46.0,-62.0
1701634548.9404356,23.0,-47.0,24.0,-40.0,-19.0,3.0,18.0,3.0
1701634548.9404356,15.0,-69.0,-44.0,-32.0,11.0,11.0,13.0,14.0
1701634548.9504342,-7.0,25.0,41.0,13.0,7.0,-25.0,-52.0,-22.0
1701634548.9504342,20.0,-13.0,16.0,55.0,19.0,16.0,32.0,42.0
1701634548.9607396,-9.0,-20.0,29.0,10.0,9.0,12.0,6.0,4.0
1701634548.9607396,-53.0,-42.0,-49.0,-47.0,-17.0,-9.0,-16.0,-27.0
1701634548.9707963,23.0,-38.0,40.0,13.0,2.0,-2.0,-28.0,-13.0
1701634548.9707963,3.0,1.0,9.0,-1.0,-4.0,-1.0,35.0,36.0
1701634548.9707963,20.0,68.0,-61.0,12.0,5.0,3.0,-10.0,-20.0
1701634548.9707963,4.0,-10.0,86.0,-6.0,-6.0,2.0,4.0,30.0
1701634549.0107887,5.0,26.0,17.0,17.0,6.0,3.0,13.0,-9.0
1701634549.0107887,14.0,24.0,-79.0,-19.0,6.0,9.0,23.0,13.0
1701634549.0107887,-15.0,-15.0,54.0,50.0,4.0,-8.0,-38.0,-35.0
1701634549.0107887,19.0,12.0,-57.0,-33.0,-20.0,-14.0,3.0,5.0
1701634549.0107887,-36.0,35.0,37.0,46.0,16.0,2.0,-11.0,-17.0
1701634549.0107887,22.0,-7.0,87.0,0.0,6.0,11.0,14.0,20.0
1701634549.0207329,-15.0,13.0,-82.0,-26.0,-1.0,-4.0,-2.0,-15.0
1701634549.0207329,26.0,-2.0,-8.0,-3.0,4.0,3.0,-20.0,-17.0
1701634549.0307934,9.0,-3.0,12.0,15.0,0.0,4.0,18.0,23.0
1701634549.0307934,-17.0,-43.0,4.0,-18.0,-13.0,-7.0,-9.0,-31.0
1701634549.0307934,-4.0,30.0,-19.0,-6.0,0.0,0.0,27.0,50.0
1701634549.0307934,21.0,39.0,28.0,25.0,5.0,-13.0,-30.0,-13.0
1701634549.050435,0.0,-26.0,8.0,-12.0,1.0,9.0,6.0,-8.0
1701634549.050435,-11.0,-94.0,-37.0,16.0,6.0,16.0,7.0,-7.0
1701634549.0604331,-28.0,-38.0,-65.0,-42.0,-20.0,-16.0,-28.0,-43.0
1701634549.0604331,21.0,48.0,80.0,23.0,3.0,-20.0,27.0,7.0
1701634549.070774,-15.0,-25.0,-8.0,-26.0,-13.0,-2.0,-33.0,5.0
1701634549.070774,-37.0,-69.0,-41.0,-8.0,-1.0,17.0,31.0,-34.0
1701634549.080789,18.0,81.0,86.0,28.0,11.0,14.0,26.0,47.0
1701634549.080789,-18.0,-60.0,-98.0,-21.0,-7.0,-14.0,-9.0,0.0
1701634549.0907881,0.0,16.0,-24.0,-9.0,-5.0,-4.0,-15.0,-6.0
1701634549.0907881,-6.0,18.0,1.0,23.0,6.0,-6.0,-18.0,-44.0
1701634549.0907881,23.0,-25.0,84.0,35.0,19.0,29.0,38.0,42.0
1701634549.0907881,-28.0,18.0,-49.0,-35.0,-13.0,-11.0,-19.0,-26.0
1701634549.120433,4.0,3.0,-48.0,-9.0,-9.0,-21.0,-20.0,11.0
1701634549.120433,-24.0,8.0,27.0,-22.0,-15.0,-23.0,-16.0,12.0
1701634549.120433,26.0,-11.0,34.0,2.0,2.0,26.0,65.0,29.0
1701634549.120433,-32.0,-85.0,-46.0,-15.0,-4.0,0.0,-44.0,-62.0
1701634549.1306622,33.0,80.0,27.0,3.0,17.0,14.0,17.0,1.0
1701634549.1306622,-11.0,21.0,56.0,38.0,-13.0,-18.0,-14.0,6.0
1701634549.1406841,-3.0,-38.0,-5.0,-27.0,-14.0,-20.0,-17.0,-7.0
1701634549.1406841,-8.0,23.0,-73.0,-41.0,-3.0,21.0,24.0,16.0
1701634549.150503,9.0,0.0,82.0,14.0,-6.0,-2.0,19.0,-14.0
1701634549.150503,26.0,-21.0,-104.0,-10.0,10.0,-14.0,-27.0,8.0
1701634549.150503,-20.0,23.0,84.0,0.0,-4.0,-3.0,-15.0,-18.0
1701634549.150503,26.0,-16.0,-39.0,42.0,8.0,20.0,22.0,27.0
1701634549.1846733,-13.0,25.0,54.0,-56.0,-15.0,-19.0,-20.0,-26.0
1701634549.1846733,26.0,16.0,29.0,50.0,24.0,15.0,20.0,34.0
1701634549.1846733,3.0,4.0,53.0,-34.0,-10.0,-4.0,-3.0,-7.0
1701634549.1846733,-37.0,-86.0,15.0,-32.0,-10.0,-2.0,-8.0,-2.0
1701634549.193251,-22.0,-27.0,-32.0,31.0,-17.0,-24.0,-12.0,-23.0
1701634549.193251,-2.0,-33.0,-17.0,-19.0,7.0,5.0,-1.0,4.0
1701634549.1969037,-13.0,-11.0,-101.0,-27.0,-9.0,-7.0,-25.0,-18.0
1701634549.1969037,4.0,-18.0,127.0,6.0,-8.0,-8.0,16.0,11.0
1701634549.216905,-12.0,-76.0,-82.0,-73.0,-25.0,-11.0,-9.0,-1.0
1701634549.216905,-28.0,32.0,94.0,7.0,-2.0,-2.0,-9.0,-11.0
1701634549.216905,3.0,-51.0,-69.0,-4.0,7.0,6.0,9.0,-1.0
1701634549.216905,38.0,127.0,112.0,93.0,7.0,5.0,-13.0,5.0
1701634549.2371938,9.0,-78.0,44.0,17.0,11.0,6.0,15.0,12.0
1701634549.2371938,-11.0,79.0,14.0,-12.0,-8.0,6.0,19.0,-10.0
1701634549.2469091,-3.0,24.0,-79.0,-8.0,-10.0,-25.0,-41.0,-4.0
1701634549.2469091,37.0,79.0,5.0,14.0,24.0,32.0,25.0,16.0
1701634549.2469091,3.0,35.0,78.0,41.0,3.0,3.0,1.0,-9.0
1701634549.2469091,-26.0,-36.0,-2.0,-33.0,-21.0,-25.0,-12.0,4.0
1701634549.257154,15.0,20.0,-10.0,-4.0,-9.0,-1.0,2.0,-8.0
1701634549.257154,6.0,-65.0,-128.0,-32.0,12.0,10.0,8.0,17.0
1701634549.2969053,8.0,70.0,40.0,15.0,-6.0,0.0,10.0,1.0
1701634549.2969053,1.0,-21.0,-2.0,35.0,8.0,0.0,-7.0,-3.0
1701634549.2969053,5.0,24.0,96.0,18.0,3.0,-1.0,-2.0,11.0
1701634549.2969053,-2.0,-44.0,-86.0,-56.0,-4.0,-4.0,7.0,3.0
1701634549.2969053,-15.0,10.0,19.0,26.0,1.0,-3.0,-16.0,-28.0
1701634549.2969053,41.0,45.0,62.0,14.0,1.0,-3.0,-14.0,15.0
1701634549.2969053,-4.0,12.0,29.0,8.0,1.0,1.0,2.0,-28.0
1701634549.2969053,14.0,-12.0,67.0,45.0,23.0,11.0,13.0,22.0
1701634549.306939,-22.0,27.0,-14.0,-27.0,-22.0,-5.0,8.0,10.0
1701634549.306939,-8.0,-49.0,-122.0,-48.0,-17.0,-30.0,-35.0,-17.0
1701634549.3172069,-10.0,-2.0,50.0,29.0,7.0,9.0,31.0,-9.0
1701634549.3172069,22.0,40.0,-26.0,-17.0,-1.0,15.0,6.0,40.0
1701634549.3369036,-14.0,-44.0,-73.0,-2.0,13.0,7.0,5.0,-11.0
1701634549.3369036,-18.0,-74.0,62.0,58.0,15.0,14.0,-4.0,-24.0
1701634549.3369036,-7.0,17.0,-16.0,-76.0,-38.0,-38.0,-46.0,-17.0
1701634549.3369036,0.0,-8.0,-60.0,-19.0,-15.0,-12.0,29.0,33.0
1701634549.3572912,-22.0,-29.0,67.0,16.0,7.0,-12.0,-42.0,-46.0
1701634549.3572912,14.0,-16.0,44.0,-33.0,-9.0,-1.0,-17.0,-31.0
1701634549.3572912,-14.0,-32.0,-62.0,32.0,20.0,6.0,-2.0,12.0
1701634549.3572912,-25.0,2.0,-70.0,-39.0,-31.0,-9.0,11.0,-32.0
1701634549.3672934,10.0,1.0,27.0,34.0,14.0,-8.0,-7.0,64.0
1701634549.3672934,-2.0,10.0,-8.0,-11.0,10.0,23.0,21.0,8.0
1701634549.3869052,9.0,-36.0,-52.0,2.0,-5.0,-7.0,-14.0,-5.0
1701634549.3869052,-18.0,-68.0,-16.0,1.0,-5.0,-19.0,-28.0,-12.0
1701634549.3969994,15.0,38.0,-75.0,-21.0,-2.0,-19.0,-1.0,-11.0
1701634549.3969994,10.0,8.0,-7.0,7.0,-1.0,27.0,23.0,10.0
1701634549.3969994,6.0,18.0,-22.0,13.0,20.0,33.0,28.0,19.0
1701634549.3969994,-19.0,-20.0,107.0,25.0,18.0,9.0,14.0,8.0
1701634549.4171658,53.0,-46.0,-128.0,-33.0,-19.0,-1.0,-9.0,12.0
1701634549.4171658,-53.0,-21.0,-16.0,-25.0,-7.0,-17.0,-3.0,0.0
1701634549.4171658,29.0,-72.0,56.0,12.0,5.0,1.0,-7.0,14.0
1701634549.4171658,-25.0,32.0,-2.0,8.0,-8.0,-13.0,-24.0,-30.0
1701634549.4271777,-7.0,-27.0,-4.0,48.0,14.0,20.0,41.0,34.0
1701634549.4271777,5.0,20.0,-92.0,-66.0,-21.0,-19.0,-6.0,17.0
1701634549.437153,11.0,-49.0,36.0,2.0,5.0,6.0,1.0,-23.0
1701634549.437153,34.0,60.0,108.0,9.0,-1.0,-8.0,-22.0,2.0
1701634549.476906,-62.0,-33.0,-85.0,-73.0,-12.0,10.0,3.0,-12.0
1701634549.476906,12.0,12.0,67.0,28.0,4.0,-16.0,-11.0,-2.0
1701634549.476906,-7.0,-26.0,32.0,1.0,3.0,7.0,22.0,8.0
1701634549.476906,14.0,-8.0,127.0,20.0,4.0,0.0,-17.0,-6.0
1701634549.476906,13.0,127.0,64.0,-20.0,-19.0,3.0,16.0,4.0
1701634549.476906,40.0,44.0,-11.0,63.0,38.0,22.0,22.0,9.0
1701634549.476906,-33.0,-7.0,53.0,-46.0,-18.0,-26.0,-45.0,-24.0
1701634549.476906,54.0,29.0,67.0,4.0,-1.0,10.0,58.0,41.0
1701634549.4869504,-50.0,-42.0,5.0,-47.0,-18.0,-11.0,-59.0,-58.0
1701634549.4869504,-4.0,-2.0,102.0,63.0,-4.0,-12.0,-2.0,6.0
1701634549.496975,8.0,13.0,-63.0,-5.0,12.0,11.0,30.0,30.0
1701634549.496975,-10.0,-100.0,17.0,-22.0,-14.0,-6.0,-27.0,-31.0
1701634549.516909,-5.0,-50.0,-11.0,-18.0,2.0,7.0,43.0,18.0
1701634549.516909,-34.0,-89.0,43.0,16.0,3.0,-11.0,-60.0,-46.0
1701634549.516909,-13.0,45.0,-3.0,-123.0,-48.0,-29.0,-23.0,-6.0
1701634549.516909,28.0,57.0,63.0,111.0,39.0,28.0,25.0,24.0
1701634549.5373275,-42.0,-107.0,34.0,13.0,26.0,0.0,-6.0,-21.0
1701634549.5373275,24.0,87.0,55.0,-32.0,8.0,13.0,29.0,27.0
1701634549.5373275,17.0,46.0,-26.0,33.0,7.0,7.0,34.0,9.0
1701634549.5373275,-43.0,-47.0,-42.0,-21.0,1.0,4.0,-24.0,1.0
1701634549.566905,31.0,11.0,-9.0,-2.0,-12.0,-9.0,-4.0,-4.0
1701634549.566905,3.0,66.0,-26.0,-5.0,-7.0,-7.0,-23.0,-17.0
1701634549.566905,-14.0,-27.0,57.0,18.0,-9.0,4.0,16.0,-2.0
1701634549.566905,-13.0,-22.0,-85.0,-2.0,12.0,-4.0,-32.0,-21.0
1701634549.5770109,27.0,30.0,28.0,8.0,-3.0,-5.0,-2.0,13.0
1701634549.5770109,-30.0,-93.0,-26.0,-25.0,-9.0,-4.0,8.0,3.0
1701634549.5770109,4.0,19.0,-100.0,-43.0,10.0,14.0,-3.0,17.0
1701634549.5770109,-32.0,30.0,-43.0,64.0,-3.0,-18.0,3.0,-32.0
1701634549.5972233,20.0,-35.0,0.0,3.0,1.0,-6.0,2.0,14.0
1701634549.5972233,23.0,25.0,-26.0,-17.0,-4.0,3.0,6.0,24.0
1701634549.5972233,-14.0,-47.0,-6.0,2.0,6.0,3.0,5.0,-5.0
1701634549.5972233,-8.0,-27.0,36.0,-18.0,-1.0,3.0,-5.0,-2.0
1701634549.6269054,11.0,85.0,107.0,40.0,10.0,-4.0,-13.0,-11.0
1701634549.6269054,-7.0,-16.0,-101.0,-41.0,-20.0,-24.0,-14.0,-27.0
1701634549.6269054,-1.0,8.0,92.0,43.0,12.0,55.0,52.0,18.0
1701634549.6269054,-4.0,-48.0,-18.0,-34.0,-8.0,-13.0,-4.0,-23.0
1701634549.6269054,21.0,-25.0,6.0,40.0,20.0,4.0,-10.0,6.0
1701634549.6269054,-9.0,-53.0,-31.0,-45.0,-30.0,-36.0,-20.0,25.0
1701634549.6369364,1.0,29.0,79.0,17.0,-17.0,-8.0,-27.0,-26.0
1701634549.6369364,-22.0,16.0,-56.0,-28.0,-2.0,-21.0,-32.0,-13.0
1701634549.657208,7.0,-25.0,-10.0,7.0,16.0,42.0,63.0,40.0
1701634549.657208,-12.0,-54.0,-54.0,-14.0,2.0,15.0,-5.0,-30.0
1701634549.657208,13.0,51.0,2.0,13.0,-4.0,-19.0,-22.0,-3.0
1701634549.657208,-19.0,-17.0,110.0,10.0,-17.0,-18.0,-8.0,-18.0
1701634549.6869037,-16.0,-22.0,-20.0,-4.0,11.0,-11.0,-7.0,14.0
1701634549.6869037,19.0,-3.0,1.0,12.0,10.0,4.0,14.0,19.0
1701634549.6869037,-19.0,43.0,48.0,25.0,-2.0,-13.0,-25.0,-26.0
1701634549.6869037,21.0,8.0,33.0,-3.0,5.0,21.0,35.0,36.0
1701634549.6869037,-14.0,-5.0,-98.0,-30.0,-7.0,-3.0,-13.0,-56.0
1701634549.69691,16.0,12.0,7.0,-17.0,-9.0,19.0,19.0,26.0
1701634549.69691,5.0,-63.0,55.0,52.0,17.0,-22.0,-44.0,-23.0
1701634549.69691,-16.0,29.0,-128.0,-82.0,-30.0,-14.0,3.0,-11.0
1701634549.7184684,-2.0,10.0,127.0,10.0,-3.0,9.0,1.0,39.0
1701634549.7184684,-13.0,3.0,-25.0,-7.0,5.0,-17.0,9.0,-4.0
1701634549.730407,29.0,31.0,37.0,33.0,20.0,31.0,27.0,20.0
1701634549.730407,24.0,-30.0,-10.0,-30.0,-12.0,4.0,-3.0,-10.0
1701634549.740692,-30.0,28.0,35.0,12.0,-4.0,-7.0,-5.0,29.0
1701634549.740692,17.0,14.0,-26.0,-11.0,-7.0,-2.0,-11.0,-47.0
1701634549.740692,-6.0,59.0,-40.0,10.0,5.0,-24.0,-4.0,19.0
1701634549.740692,7.0,-51.0,16.0,6.0,-5.0,12.0,0.0,5.0
1701634549.7507389,7.0,28.0,-28.0,-19.0,1.0,11.0,35.0,12.0
1701634549.7507389,-8.0,-7.0,2.0,40.0,19.0,21.0,10.0,-14.0
1701634549.7607954,-9.0,-13.0,35.0,-26.0,-13.0,-10.0,-13.0,-3.0
1701634549.7607954,-25.0,7.0,-1.0,5.0,-10.0,-16.0,-20.0,2.0
1701634549.771209,24.0,-40.0,-10.0,8.0,7.0,-10.0,-15.0,-17.0
1701634549.771209,-20.0,2.0,66.0,-15.0,-7.0,-9.0,0.0,16.0
1701634549.780879,13.0,57.0,-54.0,26.0,16.0,16.0,29.0,10.0
1701634549.780879,-39.0,40.0,14.0,-26.0,-7.0,5.0,4.0,1.0
1701634549.8011923,31.0,-81.0,-56.0,-15.0,-6.0,0.0,-15.0,-36.0
1701634549.8011923,-10.0,80.0,81.0,-7.0,-16.0,-15.0,-34.0,-30.0
1701634549.8011923,-4.0,-56.0,-17.0,6.0,-9.0,-23.0,-18.0,-3.0
1701634549.8011923,-33.0,3.0,-99.0,1.0,17.0,6.0,18.0,11.0
1701634549.8108077,29.0,-11.0,64.0,17.0,-4.0,19.0,37.0,27.0
1701634549.8108077,-5.0,69.0,-20.0,-37.0,-13.0,-18.0,-58.0,-55.0
1701634549.8211052,-9.0,-67.0,-82.0,-61.0,-29.0,-18.0,9.0,21.0
1701634549.8211052,-26.0,-48.0,66.0,84.0,36.0,8.0,-23.0,-40.0
1701634549.830809,-9.0,-19.0,-56.0,-58.0,-23.0,-20.0,-11.0,4.0
1701634549.830809,4.0,-117.0,-93.0,66.0,31.0,22.0,36.0,32.0
1701634549.8408415,-26.0,-32.0,-72.0,-85.0,-25.0,-14.0,-26.0,-27.0
1701634549.8408415,0.0,-7.0,102.0,61.0,26.0,14.0,18.0,-5.0
1701634549.8612251,0.0,1.0,8.0,-27.0,-17.0,-3.0,56.0,49.0
1701634549.8612251,33.0,-2.0,37.0,-6.0,-5.0,0.0,-51.0,-27.0
1701634549.8612251,-23.0,-4.0,-22.0,4.0,4.0,7.0,28.0,20.0
1701634549.8612251,25.0,7.0,-44.0,-63.0,-20.0,-13.0,-23.0,-35.0
1701634549.8712094,-30.0,-17.0,3.0,47.0,9.0,-8.0,-25.0,-10.0
1701634549.8712094,39.0,60.0,101.0,61.0,32.0,21.0,70.0,69.0
1701634549.8811648,-5.0,-59.0,6.0,4.0,5.0,3.0,-17.0,-35.0
1701634549.8811648,52.0,127.0,99.0,-32.0,-9.0,2.0,6.0,27.0
1701634549.890809,-12.0,16.0,54.0,3.0,-5.0,0.0,-7.0,-11.0
1701634549.890809,0.0,-27.0,-10.0,-29.0,-13.0,1.0,28.0,20.0
1701634549.9008074,-5.0,-18.0,8.0,38.0,11.0,-12.0,-78.0,-56.0
1701634549.9008074,-16.0,-4.0,25.0,-3.0,-6.0,-7.0,7.0,2.0
1701634549.921261,38.0,-12.0,1.0,17.0,11.0,5.0,-14.0,-3.0
1701634549.921261,-22.0,66.0,66.0,-29.0,-14.0,0.0,15.0,17.0
1701634549.921261,1.0,-6.0,74.0,93.0,34.0,12.0,32.0,28.0
1701634549.921261,-4.0,-29.0,-70.0,-40.0,-18.0,-9.0,-21.0,-24.0
1701634549.9311452,-11.0,58.0,93.0,31.0,-9.0,-5.0,-10.0,-30.0
1701634549.9311452,-2.0,-19.0,-83.0,-14.0,6.0,6.0,9.0,20.0
1701634549.941087,26.0,21.0,59.0,9.0,-17.0,-9.0,1.0,1.0
1701634549.941087,22.0,29.0,-55.0,5.0,22.0,14.0,18.0,24.0
1701634549.9508102,-26.0,8.0,96.0,27.0,14.0,10.0,1.0,7.0
1701634549.9508102,-35.0,-46.0,-25.0,-4.0,-27.0,-23.0,-23.0,-62.0
1701634549.9608076,11.0,-4.0,-1.0,-37.0,4.0,10.0,11.0,22.0
1701634549.9608076,15.0,24.0,-56.0,32.0,-10.0,-6.0,2.0,5.0
1701634549.9808078,8.0,-32.0,-57.0,-38.0,23.0,14.0,-4.0,-3.0
1701634549.9808078,23.0,75.0,127.0,54.0,6.0,1.0,6.0,20.0
1701634549.9808078,-17.0,-68.0,-28.0,-16.0,-17.0,-7.0,-1.0,-4.0
1701634549.9808078,-19.0,-17.0,33.0,19.0,6.0,-4.0,-5.0,-12.0
1701634550.0008073,4.0,10.0,12.0,-1.0,-9.0,-2.0,12.0,9.0
1701634550.0008073,9.0,-35.0,-78.0,-32.0,12.0,6.0,-17.0,-5.0
1701634550.0008073,-11.0,89.0,20.0,-9.0,-15.0,-6.0,1.0,-8.0
1701634550.0008073,11.0,-32.0,-69.0,-10.0,4.0,1.0,1.0,-7.0
1701634550.011163,-6.0,23.0,5.0,58.0,-4.0,-8.0,-13.0,-16.0
1701634550.011163,-11.0,-64.0,-38.0,-21.0,-1.0,-2.0,5.0,10.0
1701634550.0209365,3.0,-20.0,-46.0,-17.0,-14.0,-3.0,-2.0,3.0
1701634550.0209365,14.0,-3.0,127.0,19.0,8.0,9.0,9.0,18.0
1701634550.040809,-14.0,72.0,-107.0,-42.0,-12.0,-10.0,-11.0,-11.0
1701634550.040809,-19.0,-71.0,-68.0,-16.0,-3.0,-1.0,-9.0,-25.0
1701634550.040809,0.0,-9.0,-37.0,-12.0,7.0,0.0,3.0,10.0
1701634550.040809,13.0,-13.0,29.0,-6.0,2.0,0.0,12.0,19.0
1701634550.0608072,5.0,7.0,126.0,44.0,-6.0,-6.0,-18.0,-14.0
1701634550.0608072,-8.0,15.0,14.0,-16.0,-4.0,-3.0,22.0,15.0
1701634550.0608072,12.0,-1.0,-43.0,-31.0,-2.0,5.0,15.0,21.0
1701634550.0608072,-23.0,-47.0,-7.0,12.0,5.0,-7.0,-32.0,-40.0
1701634550.0710347,-6.0,-2.0,-25.0,-27.0,-2.0,1.0,-5.0,-4.0
1701634550.0710347,16.0,-15.0,42.0,29.0,12.0,11.0,16.0,23.0
1701634550.0808117,6.0,79.0,-50.0,-15.0,-1.0,1.0,6.0,-2.0
1701634550.0808117,-12.0,8.0,39.0,-31.0,-31.0,-23.0,-15.0,-3.0
1701634550.1011012,1.0,32.0,48.0,-1.0,-2.0,-12.0,-11.0,-3.0
1701634550.1011012,-5.0,13.0,52.0,11.0,-2.0,31.0,37.0,14.0
1701634550.1011012,-3.0,-39.0,-60.0,5.0,18.0,9.0,4.0,-7.0
1701634550.1011012,-1.0,-29.0,7.0,13.0,1.0,5.0,5.0,-3.0
1701634550.1308093,-10.0,44.0,41.0,-1.0,-7.0,-18.0,-18.0,6.0
1701634550.1308093,1.0,27.0,-20.0,1.0,-6.0,-14.0,-24.0,-1.0
1701634550.140807,1.0,-22.0,86.0,-4.0,-6.0,0.0,8.0,-25.0
1701634550.140807,-16.0,35.0,60.0,13.0,-8.0,-22.0,-29.0,18.0
1701634550.140807,28.0,-15.0,27.0,0.0,12.0,4.0,16.0,18.0
1701634550.140807,3.0,-37.0,-98.0,13.0,8.0,14.0,-1.0,-3.0
1701634550.140807,-4.0,-44.0,86.0,20.0,9.0,12.0,13.0,21.0
1701634550.140807,-40.0,-65.0,-113.0,-73.0,-25.0,-8.0,-8.0,-36.0
1701634550.1612298,-9.0,10.0,-52.0,-19.0,-4.0,-4.0,1.0,3.0
1701634550.1612298,-6.0,22.0,14.0,2.0,-2.0,-18.0,-21.0,5.0
1701634550.1612298,34.0,77.0,16.0,15.0,11.0,2.0,-8.0,11.0
1701634550.1612298,6.0,37.0,87.0,-7.0,-18.0,-6.0,-8.0,-26.0
1701634550.171154,-3.0,-44.0,-18.0,6.0,15.0,13.0,3.0,4.0
1701634550.171154,-13.0,-35.0,47.0,9.0,-17.0,-16.0,6.0,4.0
1701634550.181182,-18.0,-66.0,-60.0,-22.0,-1.0,-3.0,-19.0,-23.0
1701634550.181182,13.0,72.0,-74.0,-33.0,-9.0,-4.0,8.0,9.0
1701634550.1908069,-6.0,-30.0,-100.0,-33.0,-10.0,-6.0,-15.0,-19.0
1701634550.1908069,-15.0,-10.0,127.0,10.0,9.0,-1.0,0.0,0.0
1701634550.2008095,12.0,-32.0,78.0,26.0,6.0,4.0,11.0,13.0
1701634550.2008095,21.0,-44.0,-22.0,17.0,23.0,24.0,19.0,29.0
1701634550.2211268,-12.0,-24.0,-38.0,-8.0,-7.0,0.0,-7.0,-8.0
1701634550.2211268,-15.0,-13.0,-106.0,-49.0,-14.0,-11.0,-7.0,-12.0
1701634550.2211268,8.0,-30.0,-36.0,-15.0,-25.0,-15.0,-5.0,-3.0
1701634550.2211268,-15.0,21.0,3.0,61.0,38.0,8.0,-30.0,-30.0
1701634550.23081,6.0,57.0,-79.0,-50.0,-13.0,0.0,13.0,10.0
1701634550.23081,14.0,53.0,118.0,42.0,12.0,9.0,21.0,18.0
1701634550.2442894,-12.0,-49.0,-67.0,-35.0,-12.0,-6.0,-8.0,-9.0
1701634550.2442894,24.0,-22.0,9.0,0.0,-8.0,-2.0,13.0,23.0
1701634550.2593777,-28.0,-18.0,73.0,32.0,12.0,5.0,-1.0,-11.0
1701634550.2593777,-26.0,-21.0,-65.0,-39.0,-8.0,-7.0,-17.0,-15.0
1701634550.2611337,-12.0,17.0,15.0,12.0,-1.0,-4.0,4.0,1.0
1701634550.2611337,44.0,-15.0,8.0,10.0,4.0,14.0,49.0,30.0
1701634550.2729642,-12.0,1.0,1.0,-8.0,-3.0,-2.0,-18.0,15.0
1701634550.2729642,8.0,-9.0,2.0,-2.0,-2.0,-15.0,-58.0,-32.0
1701634550.2825727,9.0,31.0,56.0,32.0,4.0,-1.0,-4.0,-12.0
1701634550.2825727,-17.0,-63.0,-54.0,-28.0,-12.0,-11.0,-5.0,-6.0
1701634550.2925708,27.0,18.0,127.0,36.0,4.0,8.0,22.0,7.0
1701634550.2925708,-7.0,-18.0,-39.0,-3.0,-8.0,0.0,15.0,16.0
1701634550.3029096,1.0,13.0,-3.0,11.0,16.0,8.0,12.0,15.0
1701634550.3029096,-12.0,43.0,-49.0,-22.0,-5.0,5.0,-7.0,-21.0
1701634550.3131557,-11.0,-36.0,3.0,-6.0,-8.0,-3.0,9.0,-4.0
1701634550.3131557,12.0,14.0,74.0,0.0,-6.0,-11.0,-28.0,0.0
1701634550.3131557,-6.0,22.0,19.0,4.0,-1.0,-15.0,-35.0,-37.0
1701634550.3131557,37.0,26.0,80.0,15.0,9.0,14.0,20.0,33.0
1701634550.36293,-37.0,-74.0,-124.0,-21.0,-3.0,-1.0,24.0,-6.0
1701634550.36293,-10.0,40.0,74.0,17.0,9.0,6.0,-15.0,-20.0
1701634550.36293,21.0,2.0,6.0,-20.0,-17.0,-9.0,-7.0,-8.0
1701634550.36293,-18.0,-8.0,1.0,10.0,6.0,-1.0,-8.0,9.0
1701634550.36293,2.0,-10.0,-6.0,-1.0,-2.0,-3.0,-16.0,-9.0
1701634550.36293,20.0,17.0,25.0,20.0,13.0,9.0,16.0,19.0
1701634550.36293,-50.0,-14.0,12.0,-7.0,-3.0,2.0,17.0,16.0
1701634550.36293,11.0,-37.0,-110.0,-52.0,-12.0,0.0,1.0,-10.0
1701634550.3729346,29.0,43.0,14.0,12.0,3.0,-9.0,-27.0,-33.0
1701634550.3729346,-14.0,-41.0,-25.0,0.0,5.0,4.0,10.0,1.0
1701634550.3729346,10.0,9.0,57.0,16.0,-3.0,0.0,-3.0,8.0
1701634550.3729346,-15.0,-50.0,18.0,10.0,1.0,0.0,13.0,22.0
1701634550.4029267,-10.0,112.0,-3.0,2.0,11.0,4.0,-4.0,-4.0
1701634550.4029267,41.0,-7.0,-17.0,-21.0,-10.0,-6.0,7.0,-1.0
1701634550.4029267,-25.0,-17.0,-16.0,3.0,-4.0,2.0,5.0,-1.0
1701634550.4029267,-17.0,21.0,-28.0,13.0,12.0,1.0,-1.0,-3.0
1701634550.4129596,-6.0,-87.0,28.0,-16.0,-6.0,-11.0,-27.0,-19.0
1701634550.4129596,19.0,108.0,85.0,23.0,4.0,7.0,12.0,2.0
1701634550.423337,2.0,-31.0,-83.0,-40.0,-17.0,-13.0,9.0,8.0
1701634550.423337,3.0,6.0,47.0,5.0,19.0,21.0,0.0,1.0
1701634550.4333448,1.0,-60.0,14.0,-4.0,-20.0,-18.0,-36.0,-17.0
1701634550.4333448,-5.0,-57.0,-59.0,-62.0,-30.0,-10.0,12.0,10.0
1701634550.4333448,-10.0,43.0,2.0,102.0,55.0,14.0,1.0,-8.0
1701634550.4333448,3.0,-7.0,-22.0,-2.0,2.0,3.0,22.0,15.0
1701634550.4529276,15.0,44.0,95.0,-27.0,-3.0,1.0,-14.0,-11.0
1701634550.4529276,-17.0,-67.0,-56.0,-51.0,-19.0,-8.0,7.0,6.0
1701634550.4629269,33.0,13.0,-28.0,25.0,-3.0,-9.0,-27.0,-18.0
1701634550.4629269,-29.0,0.0,127.0,26.0,2.0,-3.0,-15.0,-19.0
1701634550.4833457,2.0,-20.0,-43.0,-18.0,5.0,10.0,38.0,32.0
1701634550.4833457,-16.0,-58.0,-31.0,2.0,-17.0,-9.0,-28.0,-27.0
1701634550.4833457,-6.0,39.0,-53.0,-10.0,9.0,-2.0,-2.0,0.0
1701634550.4833457,14.0,54.0,32.0,20.0,2.0,-2.0,5.0,5.0
1701634550.4933236,11.0,40.0,53.0,-2.0,-5.0,6.0,27.0,25.0
1701634550.4933236,-15.0,-64.0,59.0,20.0,8.0,2.0,-2.0,-18.0
1701634550.4933236,-12.0,-25.0,-61.0,-100.0,-14.0,3.0,4.0,7.0
1701634550.4933236,1.0,-16.0,104.0,37.0,3.0,-8.0,-6.0,2.0
1701634550.512928,-8.0,-52.0,-62.0,-27.0,5.0,6.0,1.0,-5.0
1701634550.512928,-8.0,-10.0,-20.0,10.0,7.0,0.0,-2.0,-3.0
1701634550.5229294,8.0,37.0,125.0,39.0,5.0,9.0,1.0,2.0
1701634550.5229294,9.0,-30.0,2.0,-45.0,-15.0,0.0,31.0,31.0
1701634550.5432568,-25.0,32.0,119.0,3.0,-10.0,-13.0,-43.0,-46.0
1701634550.5432568,13.0,67.0,-62.0,59.0,40.0,19.0,27.0,30.0
1701634550.5432568,-9.0,-35.0,104.0,-33.0,-25.0,-16.0,-32.0,-31.0
1701634550.5432568,23.0,53.0,-48.0,-6.0,3.0,6.0,6.0,12.0
1701634550.5533183,-18.0,-58.0,56.0,9.0,-7.0,-2.0,13.0,2.0
1701634550.5533183,-9.0,5.0,-54.0,-7.0,-1.0,-10.0,-10.0,-18.0
1701634550.5533183,-7.0,30.0,61.0,-22.0,-7.0,7.0,41.0,36.0
1701634550.5533183,37.0,-25.0,-50.0,6.0,-3.0,-4.0,-28.0,-22.0
1701634550.5729275,-20.0,13.0,-34.0,-21.0,-15.0,-16.0,-21.0,-22.0
1701634550.5729275,14.0,5.0,79.0,-23.0,-14.0,-7.0,-12.0,-10.0
1701634550.5829298,-46.0,-75.0,-76.0,43.0,31.0,12.0,28.0,10.0
1701634550.5829298,-26.0,9.0,79.0,-34.0,-13.0,-14.0,-26.0,-33.0
1701634550.6032588,57.0,12.0,3.0,40.0,21.0,19.0,17.0,28.0
1701634550.6032588,-25.0,45.0,57.0,-28.0,-1.0,2.0,3.0,6.0
1701634550.6032588,18.0,71.0,93.0,-1.0,-35.0,-24.0,-36.0,-27.0
1701634550.6032588,-28.0,-56.0,-109.0,2.0,-3.0,0.0,34.0,34.0
1701634550.613239,-8.0,10.0,18.0,5.0,0.0,-9.0,-31.0,-37.0
1701634550.613239,8.0,29.0,-66.0,-17.0,-4.0,4.0,14.0,13.0
1701634550.632927,19.0,-52.0,-80.0,-52.0,2.0,6.0,4.0,8.0
1701634550.632927,-12.0,6.0,89.0,9.0,-8.0,-9.0,-12.0,-12.0
1701634550.632927,6.0,-28.0,80.0,-10.0,-14.0,1.0,18.0,24.0
1701634550.632927,-2.0,-12.0,-69.0,-5.0,3.0,-5.0,-7.0,-15.0
1701634550.6429327,-43.0,-70.0,-9.0,3.0,0.0,0.0,2.0,3.0
1701634550.6429327,19.0,1.0,-38.0,-8.0,3.0,-2.0,-15.0,-15.0
1701634550.6629748,-6.0,-42.0,20.0,26.0,1.0,-1.0,6.0,7.0
1701634550.6629748,12.0,26.0,86.0,15.0,5.0,-3.0,-6.0,12.0
1701634550.6629748,11.0,52.0,-44.0,-7.0,-7.0,-5.0,-10.0,-34.0
1701634550.6629748,-29.0,-10.0,-46.0,-22.0,-8.0,15.0,13.0,15.0
1701634550.6729274,6.0,-3.0,-59.0,10.0,13.0,0.0,-4.0,13.0
1701634550.6729274,-2.0,24.0,-9.0,1.0,-8.0,-35.0,-20.0,-1.0
1701634550.6829572,15.0,21.0,121.0,37.0,4.0,-24.0,-30.0,10.0
1701634550.6829572,1.0,-3.0,2.0,-26.0,-6.0,70.0,47.0,-36.0
1701634550.693321,-5.0,11.0,-85.0,0.0,16.0,-5.0,-1.0,-2.0
1701634550.693321,-13.0,-47.0,-21.0,-12.0,-9.0,3.0,9.0,-4.0
1701634550.7029295,20.0,-9.0,47.0,8.0,4.0,-8.0,-15.0,-4.0
1701634550.7029295,1.0,99.0,69.0,17.0,-3.0,-5.0,35.0,30.0
1701634550.7230442,10.0,3.0,8.0,12.0,9.0,7.0,-13.0,5.0
1701634550.7230442,-5.0,-46.0,-43.0,-19.0,-12.0,-24.0,-43.0,-26.0
1701634550.7230442,-2.0,-6.0,84.0,13.0,-1.0,-3.0,-2.0,1.0
1701634550.7230442,-15.0,-2.0,-23.0,13.0,-4.0,-24.0,-30.0,-15.0
1701634550.7329273,7.0,61.0,53.0,20.0,8.0,15.0,33.0,19.0
1701634550.7329273,16.0,24.0,-6.0,-3.0,2.0,4.0,35.0,28.0
1701634550.7429261,-7.0,-32.0,-58.0,15.0,5.0,11.0,-24.0,-33.0
1701634550.7429261,12.0,-19.0,-3.0,15.0,-1.0,-14.0,-29.0,-8.0
1701634550.7530513,-23.0,-37.0,-114.0,-73.0,-28.0,-22.0,-3.0,-13.0
1701634550.7530513,11.0,-12.0,3.0,12.0,13.0,23.0,20.0,9.0
1701634550.7629275,4.0,11.0,42.0,19.0,9.0,17.0,23.0,25.0
1701634550.7629275,22.0,-9.0,-73.0,-27.0,0.0,-13.0,22.0,23.0
1701634550.787296,-30.0,9.0,23.0,9.0,-2.0,0.0,-33.0,-16.0
1701634550.787296,1.0,-35.0,28.0,6.0,-5.0,4.0,-24.0,-26.0
1701634550.787296,11.0,-5.0,-92.0,-62.0,-33.0,-21.0,-10.0,-26.0
1701634550.787296,-21.0,62.0,86.0,20.0,0.0,-18.0,-27.0,-15.0
1701634550.7955353,-17.0,-32.0,-24.0,-19.0,0.0,2.0,-2.0,-4.0
1701634550.7955353,-14.0,-12.0,-88.0,23.0,6.0,6.0,22.0,19.0
1701634550.8055644,12.0,84.0,9.0,-26.0,-3.0,9.0,14.0,7.0
1701634550.8055644,24.0,8.0,71.0,33.0,11.0,7.0,20.0,24.0
1701634550.8157902,13.0,8.0,-68.0,6.0,4.0,14.0,24.0,15.0
1701634550.8157902,-20.0,5.0,127.0,10.0,-5.0,-12.0,-31.0,-30.0
1701634550.8157902,-3.0,-64.0,-93.0,-7.0,-3.0,-16.0,-38.0,-25.0
1701634550.8157902,-32.0,-62.0,-20.0,-32.0,-4.0,-3.0,13.0,22.0
1701634550.8558383,7.0,-52.0,-27.0,23.0,11.0,0.0,-11.0,-18.0
1701634550.8558383,24.0,39.0,44.0,6.0,1.0,16.0,36.0,28.0
1701634550.8558383,13.0,-43.0,-18.0,-5.0,-2.0,10.0,72.0,59.0
1701634550.8558383,-26.0,-60.0,90.0,3.0,-9.0,-24.0,-111.0,-98.0
1701634550.8558383,-14.0,-46.0,-102.0,-90.0,-42.0,-22.0,21.0,24.0
1701634550.8558383,-11.0,74.0,127.0,95.0,29.0,8.0,-13.0,-18.0
1701634550.8558383,10.0,-29.0,93.0,-7.0,-6.0,-1.0,21.0,-5.0
1701634550.8558383,-12.0,-25.0,-85.0,-71.0,-13.0,-18.0,-67.0,-26.0
1701634550.876274,-11.0,3.0,95.0,82.0,25.0,13.0,39.0,18.0
1701634550.876274,3.0,54.0,-1.0,-66.0,-20.0,-4.0,-22.0,-23.0
1701634550.876274,2.0,-5.0,-38.0,-30.0,-14.0,5.0,45.0,55.0
1701634550.876274,0.0,-92.0,-105.0,86.0,32.0,20.0,57.0,29.0
1701634550.8958776,4.0,59.0,-57.0,-67.0,-30.0,-34.0,-96.0,-88.0
1701634550.8958776,-11.0,38.0,30.0,0.0,6.0,12.0,46.0,54.0
1701634550.905888,-14.0,9.0,-53.0,15.0,9.0,4.0,-43.0,-40.0
1701634550.905888,8.0,14.0,104.0,28.0,25.0,10.0,9.0,14.0
1701634550.9162922,13.0,19.0,-64.0,-11.0,-1.0,5.0,7.0,10.0
1701634550.9162922,-7.0,-86.0,-67.0,-36.0,-9.0,-7.0,9.0,-2.0
1701634550.9259026,-13.0,34.0,-29.0,42.0,-6.0,-5.0,-11.0,-3.0
1701634550.9259026,-28.0,40.0,103.0,-14.0,-17.0,-11.0,-2.0,-9.0
1701634550.9363189,27.0,-27.0,21.0,-11.0,11.0,13.0,46.0,35.0
1701634550.9363189,-3.0,-35.0,-54.0,24.0,1.0,3.0,-28.0,-11.0
1701634550.9363189,1.0,5.0,45.0,-20.0,7.0,2.0,-21.0,-9.0
1701634550.9363189,-2.0,-15.0,55.0,33.0,-3.0,-2.0,12.0,16.0
1701634550.9558907,13.0,2.0,-27.0,18.0,2.0,-3.0,14.0,10.0
1701634550.9558907,10.0,-40.0,-6.0,-25.0,-1.0,6.0,14.0,2.0
1701634550.9658875,-22.0,50.0,45.0,8.0,-2.0,-3.0,8.0,11.0
1701634550.9658875,18.0,45.0,-43.0,-24.0,-4.0,-11.0,-38.0,-32.0
1701634550.9761748,3.0,18.0,48.0,-4.0,-3.0,-6.0,-23.0,-8.0
1701634550.9761748,20.0,2.0,-15.0,10.0,4.0,8.0,8.0,-1.0
1701634550.9861755,-3.0,-9.0,-8.0,0.0,6.0,-2.0,-7.0,7.0
1701634550.9861755,1.0,43.0,-26.0,-16.0,-7.0,3.0,32.0,8.0
1701634550.9962666,14.0,-15.0,116.0,26.0,-3.0,19.0,9.0,15.0
1701634550.9962666,-16.0,-19.0,-41.0,-15.0,5.0,-15.0,-19.0,-19.0
1701634550.9962666,-10.0,-14.0,-34.0,13.0,8.0,6.0,7.0,-3.0
1701634550.9962666,0.0,1.0,79.0,5.0,-29.0,-73.0,-62.0,-5.0
1701634551.0362842,-6.0,-10.0,-4.0,-9.0,-5.0,31.0,18.0,-6.0
1701634551.0362842,22.0,3.0,-21.0,-18.0,12.0,28.0,44.0,35.0
1701634551.0362842,1.0,19.0,11.0,-30.0,-7.0,4.0,19.0,12.0
1701634551.0362842,6.0,-52.0,-26.0,40.0,14.0,8.0,-8.0,-15.0
1701634551.0362842,-7.0,13.0,18.0,11.0,-3.0,-40.0,-35.0,-5.0
1701634551.0362842,-15.0,19.0,41.0,-3.0,-15.0,-50.0,-27.0,-11.0
1701634551.0462825,-1.0,-15.0,-33.0,-12.0,2.0,45.0,-9.0,-30.0
1701634551.0462825,19.0,-24.0,0.0,-9.0,2.0,16.0,36.0,39.0
1701634551.0662847,12.0,42.0,-70.0,7.0,1.0,-9.0,3.0,1.0
1701634551.0662847,-2.0,3.0,36.0,8.0,-4.0,5.0,-19.0,-12.0
1701634551.0662847,-8.0,9.0,115.0,9.0,-4.0,-32.0,-9.0,-5.0
1701634551.0662847,9.0,-14.0,-128.0,-57.0,-17.0,-5.0,6.0,-15.0
1701634551.0762866,-4.0,-4.0,73.0,23.0,15.0,19.0,28.0,28.0
1701634551.0762866,10.0,13.0,31.0,-5.0,-6.0,2.0,-8.0,-25.0
1701634551.0862873,-19.0,-37.0,-62.0,-6.0,1.0,-11.0,-5.0,-25.0
1701634551.0862873,0.0,16.0,-47.0,-14.0,2.0,8.0,-17.0,-9.0
1701634551.0965626,-17.0,-15.0,24.0,25.0,7.0,-4.0,-8.0,1.0
1701634551.0965626,30.0,-51.0,-29.0,19.0,9.0,5.0,9.0,6.0
1701634551.106347,-20.0,55.0,48.0,-16.0,-4.0,15.0,10.0,15.0
1701634551.106347,-19.0,-2.0,-14.0,20.0,-18.0,-31.0,10.0,-1.0
1701634551.1163383,-17.0,13.0,57.0,1.0,4.0,1.0,-15.0,-36.0
1701634551.1163383,30.0,-1.0,25.0,7.0,6.0,28.0,-14.0,8.0
1701634551.1163383,19.0,-63.0,102.0,32.0,13.0,1.0,-3.0,-7.0
1701634551.1163383,-28.0,48.0,-37.0,-33.0,-4.0,-1.0,2.0,9.0
1701634551.1462824,-14.0,-13.0,93.0,-3.0,-2.0,-12.0,8.0,2.0
1701634551.1462824,-27.0,-6.0,-37.0,-5.0,-2.0,-4.0,4.0,-11.0
1701634551.1462824,-9.0,-36.0,-79.0,-44.0,-20.0,-14.0,-13.0,6.0
1701634551.1462824,13.0,-2.0,64.0,19.0,0.0,4.0,7.0,19.0
1701634551.1566255,5.0,8.0,-59.0,-10.0,10.0,9.0,4.0,-13.0
1701634551.1566255,-8.0,8.0,57.0,-18.0,-6.0,-2.0,-10.0,-11.0
1701634551.1664815,13.0,-1.0,-87.0,25.0,8.0,-3.0,-4.0,8.0
1701634551.1664815,-21.0,-2.0,-49.0,-8.0,7.0,7.0,-3.0,-16.0
1701634551.1862838,13.0,29.0,78.0,18.0,-11.0,-2.0,11.0,8.0
1701634551.1862838,-17.0,-85.0,-67.0,-23.0,2.0,2.0,16.0,19.0
1701634551.1862838,-6.0,81.0,-59.0,-67.0,-27.0,-23.0,-25.0,-19.0
1701634551.1862838,12.0,-56.0,-98.0,35.0,3.0,5.0,-8.0,-18.0
1701634551.196595,-16.0,2.0,94.0,36.0,14.0,-9.0,-26.0,-15.0
1701634551.196595,-7.0,3.0,-34.0,-59.0,-17.0,-7.0,22.0,18.0
1701634551.2062852,29.0,-43.0,127.0,123.0,47.0,23.0,2.0,8.0
1701634551.2062852,-21.0,-8.0,-67.0,-95.0,-31.0,-12.0,-8.0,-15.0
1701634551.216588,20.0,81.0,56.0,-12.0,-4.0,7.0,35.0,33.0
1701634551.216588,-11.0,49.0,99.0,42.0,8.0,-1.0,-17.0,-12.0
1701634551.2266245,-7.0,-60.0,-55.0,-51.0,-15.0,-1.0,-4.0,-6.0
1701634551.2266245,13.0,5.0,18.0,70.0,50.0,25.0,10.0,26.0
1701634551.2462835,-4.0,-79.0,28.0,2.0,-17.0,-7.0,-20.0,-39.0
1701634551.2462835,4.0,91.0,-21.0,28.0,-11.0,-6.0,25.0,23.0
1701634551.2462835,35.0,57.0,87.0,1.0,7.0,11.0,16.0,10.0
1701634551.2462835,-45.0,-88.0,12.0,-41.0,-23.0,-16.0,-28.0,-33.0
1701634551.2564702,-11.0,22.0,-35.0,-28.0,-4.0,5.0,17.0,19.0
1701634551.2564702,36.0,62.0,-38.0,11.0,0.0,-2.0,3.0,16.0
1701634551.266288,-32.0,12.0,-64.0,18.0,-11.0,-5.0,-7.0,-22.0
1701634551.266288,47.0,98.0,51.0,0.0,7.0,8.0,-2.0,4.0
1701634551.2765617,-59.0,-128.0,-46.0,7.0,8.0,12.0,78.0,61.0
1701634551.2765617,-35.0,7.0,34.0,5.0,-6.0,-20.0,-105.0,-102.0
1701634551.3092718,68.0,67.0,127.0,8.0,0.0,0.0,31.0,47.0
1701634551.3092718,-63.0,5.0,30.0,-32.0,-25.0,-5.0,30.0,19.0
1701634551.3092718,19.0,38.0,-120.0,-8.0,5.0,-4.0,-55.0,-53.0
1701634551.3092718,-30.0,12.0,15.0,3.0,1.0,-2.0,6.0,8.0
1701634551.3102715,6.0,-66.0,-21.0,-48.0,1.0,-9.0,-25.0,-20.0
1701634551.3102715,49.0,71.0,95.0,99.0,39.0,17.0,2.0,-14.0
1701634551.324409,9.0,81.0,105.0,18.0,5.0,12.0,37.0,51.0
1701634551.324409,19.0,-108.0,-27.0,-48.0,-34.0,-23.0,-1.0,6.0
1701634551.325878,-68.0,-47.0,-58.0,15.0,28.0,14.0,-24.0,-27.0
1701634551.325878,21.0,11.0,-8.0,-41.0,-24.0,-14.0,-23.0,-35.0
1701634551.338183,-17.0,9.0,57.0,25.0,16.0,7.0,-3.0,2.0
1701634551.338183,12.0,31.0,49.0,13.0,16.0,10.0,9.0,4.0
1701634551.3481116,-9.0,22.0,-74.0,9.0,-22.0,-14.0,44.0,39.0
1701634551.3481116,12.0,-58.0,60.0,25.0,13.0,15.0,-6.0,17.0
1701634551.3583891,44.0,-10.0,-125.0,-19.0,8.0,7.0,-34.0,-29.0
1701634551.3583891,-5.0,-114.0,90.0,-27.0,-28.0,-8.0,2.0,-3.0
1701634551.3583891,-42.0,6.0,-5.0,-91.0,-40.0,-37.0,-3.0,-6.0
1701634551.3583891,3.0,-26.0,77.0,7.0,16.0,9.0,0.0,1.0
1701634551.3784866,7.0,21.0,87.0,34.0,1.0,-9.0,-17.0,-5.0
1701634551.3784866,0.0,0.0,9.0,-30.0,-1.0,11.0,21.0,19.0
1701634551.3784866,14.0,-21.0,-15.0,37.0,30.0,25.0,19.0,13.0
1701634551.3784866,43.0,75.0,92.0,25.0,-1.0,8.0,3.0,8.0
1701634551.3981624,-30.0,-31.0,11.0,-18.0,-26.0,-16.0,-9.0,-22.0
1701634551.3981624,10.0,4.0,-49.0,5.0,7.0,-3.0,-3.0,8.0
1701634551.3981624,17.0,-23.0,99.0,22.0,5.0,3.0,-1.0,8.0
1701634551.3981624,-37.0,-126.0,-21.0,-43.0,-11.0,-11.0,-11.0,-19.0
1701634551.4181128,-2.0,-48.0,-92.0,-24.0,-5.0,-1.0,2.0,2.0
1701634551.4181128,-12.0,82.0,-1.0,-21.0,-25.0,-17.0,-9.0,-14.0
1701634551.4181128,25.0,68.0,60.0,45.0,-6.0,-7.0,-18.0,-7.0
1701634551.428112,-1.0,-47.0,-80.0,-35.0,23.0,12.0,17.0,21.0
1701634551.4385,3.0,-46.0,55.0,-2.0,-10.0,2.0,0.0,-4.0
1701634551.4385,1.0,49.0,18.0,2.0,-3.0,-6.0,-5.0,-2.0
1701634551.4385,-28.0,-97.0,-93.0,-89.0,-10.0,-12.0,-14.0,-18.0
1701634551.4385,-5.0,35.0,12.0,8.0,-16.0,-2.0,5.0,4.0
1701634551.4681137,13.0,95.0,65.0,103.0,43.0,10.0,-2.0,0.0
1701634551.4681137,-11.0,4.0,-83.0,-33.0,1.0,3.0,1.0,-1.0
1701634551.4681137,14.0,72.0,84.0,44.0,7.0,3.0,2.0,1.0
1701634551.4681137,9.0,67.0,-18.0,-52.0,-26.0,-16.0,-1.0,4.0
1701634551.4782913,-4.0,-125.0,-49.0,-99.0,-52.0,-23.0,-11.0,-3.0
1701634551.4782913,-11.0,-56.0,54.0,98.0,16.0,18.0,13.0,7.0
1701634551.488212,0.0,-11.0,-100.0,24.0,71.0,34.0,0.0,-5.0
1701634551.488212,-15.0,-10.0,-16.0,-5.0,-14.0,-5.0,-3.0,-6.0
1701634551.4984553,23.0,63.0,94.0,34.0,18.0,4.0,0.0,8.0
1701634551.4984553,-12.0,-76.0,-110.0,-65.0,-32.0,-24.0,-3.0,-6.0
1701634551.5181115,-20.0,-33.0,35.0,-39.0,-41.0,-18.0,-9.0,-13.0
1701634551.5181115,3.0,-6.0,21.0,65.0,16.0,10.0,8.0,8.0
1701634551.5181115,11.0,36.0,-13.0,10.0,11.0,5.0,29.0,29.0
1701634551.5181115,-11.0,-11.0,6.0,27.0,16.0,-16.0,-58.0,-39.0
1701634551.5281157,5.0,-7.0,0.0,-5.0,-9.0,3.0,7.0,4.0
1701634551.5281157,0.0,16.0,5.0,-14.0,-4.0,5.0,16.0,11.0
1701634551.5384252,-5.0,3.0,-59.0,-26.0,-14.0,-13.0,-20.0,-21.0
1701634551.5384252,-1.0,-23.0,3.0,37.0,27.0,-7.0,21.0,17.0
1701634551.548175,1.0,4.0,12.0,6.0,-3.0,19.0,-10.0,-8.0
1701634551.548175,-8.0,18.0,24.0,5.0,-3.0,16.0,31.0,14.0
1701634551.5583947,-4.0,-32.0,-28.0,-2.0,2.0,-3.0,-11.0,-12.0
1701634551.5583947,2.0,1.0,24.0,3.0,14.0,-16.0,12.0,19.0
1701634551.5583947,-8.0,0.0,-14.0,-10.0,-18.0,1.0,-41.0,-39.0
1701634551.5583947,0.0,30.0,5.0,6.0,-1.0,-1.0,11.0,5.0
1701634551.5781114,-16.0,-22.0,-16.0,-10.0,-2.0,-3.0,-4.0,5.0
1701634551.5781114,3.0,26.0,-2.0,-14.0,5.0,29.0,4.0,3.0
1701634551.588114,-6.0,1.0,-5.0,27.0,-14.0,-12.0,43.0,5.0
1701634551.588114,0.0,-2.0,-1.0,12.0,24.0,10.0,-6.0,0.0
1701634551.598501,12.0,10.0,-19.0,-29.0,-8.0,-20.0,-17.0,-5.0
1701634551.598501,3.0,4.0,-20.0,9.0,1.0,9.0,-8.0,-1.0
1701634551.608469,-2.0,-11.0,-30.0,5.0,-6.0,-4.0,13.0,14.0
1701634551.608469,4.0,-3.0,-25.0,-17.0,-6.0,-13.0,-22.0,3.0
1701634551.6184647,-9.0,-8.0,-20.0,15.0,1.0,7.0,-1.0,-1.0
1701634551.6184647,6.0,-36.0,7.0,-10.0,0.0,6.0,12.0,7.0
1701634551.6184647,-7.0,47.0,8.0,0.0,-3.0,-2.0,-12.0,-1.0
1701634551.6184647,-2.0,-11.0,-24.0,-2.0,-6.0,-8.0,-6.0,1.0
1701634551.6381118,9.0,23.0,-17.0,-21.0,-5.0,5.0,3.0,-1.0
1701634551.6481183,6.0,9.0,37.0,23.0,7.0,11.0,8.0,5.0
1701634551.6481183,4.0,3.0,46.0,13.0,8.0,-7.0,-1.0,8.0
1701634551.6481183,-12.0,-15.0,18.0,-13.0,-3.0,-21.0,3.0,3.0
1701634551.658362,-17.0,-19.0,-13.0,-8.0,-4.0,24.0,15.0,6.0
1701634551.658362,9.0,16.0,9.0,9.0,-1.0,-4.0,-24.0,-13.0
1701634551.6681185,0.0,-5.0,7.0,-8.0,-2.0,-2.0,-7.0,-1.0
1701634551.6681185,0.0,6.0,13.0,9.0,2.0,-16.0,-23.0,-30.0
1701634551.6981115,-17.0,2.0,57.0,-1.0,-2.0,32.0,31.0,-12.0
1701634551.6981115,5.0,16.0,3.0,-6.0,-8.0,-13.0,6.0,8.0
1701634551.6981115,12.0,8.0,11.0,13.0,6.0,-1.0,-7.0,0.0
1701634551.6981115,2.0,-14.0,-7.0,-22.0,-9.0,0.0,3.0,-13.0
1701634551.6981115,-21.0,-28.0,6.0,-18.0,-1.0,0.0,5.0,19.0
1701634551.7081175,-11.0,3.0,20.0,45.0,21.0,6.0,-8.0,-16.0
1701634551.7081175,5.0,-15.0,29.0,2.0,-10.0,-8.0,-10.0,-5.0
1701634551.7081175,7.0,24.0,-48.0,-10.0,4.0,13.0,18.0,-8.0
1701634551.7183614,4.0,1.0,-26.0,-26.0,-13.0,-29.0,-43.0,-8.0
1701634551.7183614,4.0,-1.0,-34.0,-34.0,-18.0,9.0,20.0,17.0
1701634551.7281134,5.0,-16.0,17.0,35.0,18.0,-2.0,4.0,6.0
1701634551.7281134,-13.0,24.0,-40.0,-9.0,-3.0,-3.0,-10.0,-25.0
1701634551.738445,15.0,42.0,-17.0,14.0,2.0,-1.0,17.0,32.0
1701634551.738445,-19.0,-42.0,77.0,-7.0,-10.0,-12.0,-29.0,-37.0
1701634551.738445,8.0,42.0,-56.0,-2.0,1.0,4.0,47.0,20.0
1701634551.738445,-4.0,-52.0,-28.0,-9.0,-7.0,0.0,-48.0,-37.0
1701634551.758115,-19.0,16.0,8.0,17.0,10.0,10.0,-3.0,-31.0
1701634551.758115,-17.0,40.0,-57.0,-17.0,-13.0,-15.0,0.0,21.0
1701634551.7681134,-1.0,6.0,77.0,-14.0,-4.0,2.0,11.0,-12.0
1701634551.7681134,6.0,-31.0,-26.0,10.0,0.0,3.0,11.0,63.0
1701634551.7784925,11.0,-18.0,-47.0,-5.0,-3.0,-18.0,-10.0,-14.0
1701634551.7784925,9.0,-5.0,39.0,4.0,6.0,24.0,17.0,-15.0
1701634551.7881656,-11.0,-44.0,-54.0,-3.0,0.0,-9.0,-27.0,-8.0
1701634551.7881656,-17.0,24.0,14.0,-16.0,-5.0,-1.0,4.0,6.0
1701634551.7981114,14.0,-60.0,-1.0,-24.0,-12.0,-9.0,-9.0,0.0
1701634551.7981114,-1.0,35.0,87.0,87.0,25.0,10.0,32.0,28.0
1701634551.7981114,-21.0,41.0,-93.0,-72.0,-21.0,-15.0,-33.0,-20.0
1701634551.7981114,2.0,-68.0,-23.0,60.0,12.0,-5.0,-19.0,-10.0
1701634551.8184576,19.0,0.0,25.0,-21.0,-6.0,-5.0,3.0,1.0
1701634551.8184576,-8.0,-22.0,20.0,-15.0,0.0,3.0,7.0,-1.0
1701634551.8184576,9.0,-27.0,56.0,32.0,9.0,7.0,13.0,2.0
1701634551.8184576,-16.0,15.0,2.0,-23.0,-13.0,-12.0,-13.0,-7.0
1701634551.848167,-6.0,-5.0,49.0,13.0,7.0,22.0,6.0,0.0
1701634551.848167,10.0,41.0,-103.0,-14.0,-6.0,-19.0,-22.0,-8.0
1701634551.8492067,-6.0,9.0,52.0,-5.0,-10.0,5.0,-2.0,-32.0
1701634551.8492067,16.0,15.0,29.0,1.0,6.0,-11.0,31.0,34.0
1701634551.8613017,9.0,-11.0,3.0,11.0,3.0,0.0,-19.0,-14.0
1701634551.8613017,-9.0,27.0,-24.0,-5.0,-4.0,7.0,5.0,-8.0
1701634551.8613017,-6.0,-10.0,4.0,-28.0,-9.0,-10.0,-25.0,6.0
1701634551.8613017,-17.0,26.0,-9.0,28.0,6.0,-9.0,-21.0,-24.0
1701634551.8814068,8.0,-8.0,-8.0,-11.0,-2.0,5.0,11.0,7.0
1701634551.8814068,2.0,-22.0,69.0,5.0,8.0,6.0,3.0,6.0
1701634551.8814068,0.0,92.0,-6.0,10.0,5.0,-5.0,7.0,6.0
1701634551.8814068,-17.0,119.0,-24.0,-47.0,-26.0,-21.0,0.0,-7.0
1701634551.9114237,-10.0,-45.0,-24.0,49.0,24.0,11.0,-18.0,-1.0
1701634551.9114237,1.0,-128.0,-1.0,-27.0,-5.0,1.0,9.0,10.0
1701634551.9114237,-2.0,-128.0,-81.0,19.0,4.0,-5.0,0.0,5.0
1701634551.9114237,21.0,-86.0,91.0,-30.0,-11.0,-7.0,-21.0,-3.0
1701634551.921727,-11.0,-23.0,-8.0,4.0,9.0,18.0,8.0,-12.0
1701634551.921727,0.0,-32.0,-12.0,-38.0,-17.0,-9.0,0.0,-4.0
1701634551.921727,-7.0,-14.0,-36.0,57.0,17.0,3.0,1.0,32.0
1701634551.921727,8.0,19.0,9.0,-4.0,-5.0,-11.0,4.0,14.0
1701634551.9418075,6.0,55.0,32.0,-12.0,-6.0,14.0,21.0,-1.0
1701634551.9418075,24.0,-2.0,-82.0,12.0,6.0,8.0,-15.0,-8.0
1701634551.9418075,19.0,51.0,38.0,-16.0,-10.0,-11.0,-4.0,6.0
1701634551.9418075,-14.0,0.0,41.0,16.0,4.0,12.0,2.0,-2.0
1701634551.9614234,-16.0,13.0,-5.0,-37.0,-16.0,-36.0,-4.0,8.0
1701634551.9614234,32.0,56.0,26.0,24.0,2.0,4.0,4.0,7.0
1701634551.9614234,-29.0,-6.0,5.0,-30.0,-7.0,-7.0,-7.0,-23.0
1701634551.9614234,24.0,-8.0,-13.0,52.0,26.0,11.0,20.0,14.0
1701634551.9817605,4.0,-2.0,-2.0,-26.0,-14.0,1.0,8.0,25.0
1701634551.9817605,-50.0,19.0,6.0,-11.0,-3.0,0.0,-21.0,-73.0
1701634551.9817605,-2.0,19.0,-17.0,-32.0,-6.0,12.0,6.0,20.0
1701634551.9817605,9.0,10.0,113.0,33.0,4.0,6.0,-5.0,-8.0
1701634552.001787,-3.0,3.0,-76.0,-19.0,-8.0,-22.0,-6.0,3.0
1701634552.001787,13.0,12.0,19.0,-38.0,-18.0,-5.0,11.0,12.0
1701634552.001787,-5.0,-33.0,22.0,59.0,22.0,0.0,4.0,3.0
1701634552.001787,-3.0,-4.0,-32.0,-30.0,-2.0,25.0,5.0,-2.0
1701634552.031424,-4.0,9.0,-6.0,7.0,-3.0,-10.0,5.0,-7.0
1701634552.031424,5.0,13.0,-23.0,-29.0,-17.0,-12.0,-13.0,18.0
1701634552.031424,-4.0,-18.0,15.0,-9.0,5.0,1.0,-8.0,2.0
1701634552.031424,8.0,-9.0,12.0,-12.0,-5.0,0.0,7.0,8.0
1701634552.0417316,2.0,8.0,6.0,31.0,8.0,-22.0,-15.0,-13.0
1701634552.0417316,-31.0,22.0,-76.0,2.0,0.0,3.0,-24.0,-35.0
1701634552.0417316,-2.0,0.0,3.0,-30.0,-14.0,17.0,7.0,6.0
1701634552.0417316,15.0,6.0,-20.0,-4.0,5.0,-3.0,-4.0,10.0
1701634552.061804,2.0,19.0,1.0,-15.0,-12.0,-9.0,-4.0,-6.0
1701634552.061804,6.0,7.0,27.0,47.0,33.0,5.0,7.0,13.0
1701634552.061804,22.0,34.0,-53.0,0.0,-10.0,-39.0,-27.0,-10.0
1701634552.061804,-23.0,-11.0,-65.0,-9.0,-3.0,44.0,31.0,-6.0
1701634552.0814266,-2.0,14.0,38.0,4.0,3.0,6.0,-4.0,2.0
1701634552.0814266,-7.0,8.0,8.0,-6.0,-11.0,-9.0,16.0,10.0
1701634552.0814266,11.0,-16.0,-31.0,-4.0,5.0,2.0,-19.0,-14.0
1701634552.0814266,-6.0,-9.0,9.0,-4.0,-3.0,-18.0,-17.0,-12.0
1701634552.1016526,-13.0,15.0,27.0,37.0,5.0,2.0,6.0,3.0
1701634552.1016526,-4.0,-18.0,27.0,-16.0,-7.0,3.0,10.0,12.0
1701634552.1016526,6.0,14.0,-44.0,48.0,32.0,5.0,9.0,3.0
1701634552.1016526,-9.0,-16.0,57.0,-25.0,-22.0,-55.0,-6.0,2.0
1701634552.14143,2.0,-39.0,-49.0,-20.0,-1.0,72.0,12.0,-18.0
1701634552.14143,15.0,-24.0,-14.0,1.0,-2.0,-11.0,-1.0,22.0
1701634552.14143,-12.0,-12.0,48.0,-12.0,-13.0,19.0,-14.0,-29.0
1701634552.14143,-2.0,-29.0,-18.0,1.0,2.0,-12.0,0.0,-14.0
1701634552.14143,18.0,22.0,36.0,13.0,4.0,-24.0,-12.0,14.0
1701634552.14143,-31.0,-32.0,1.0,-14.0,-3.0,16.0,22.0,-8.0
1701634552.14143,14.0,4.0,-5.0,3.0,-7.0,-2.0,6.0,-1.0
1701634552.14143,3.0,14.0,-34.0,4.0,0.0,6.0,-13.0,-2.0
1701634552.1617732,3.0,-11.0,9.0,-5.0,-3.0,-23.0,-14.0,-19.0
1701634552.1617732,-11.0,1.0,8.0,16.0,6.0,8.0,5.0,18.0
1701634552.1617732,8.0,3.0,60.0,-39.0,-22.0,-12.0,7.0,7.0
1701634552.1617732,-33.0,-17.0,4.0,27.0,8.0,7.0,8.0,-9.0
1701634552.191426,6.0,11.0,-72.0,7.0,17.0,6.0,20.0,16.0
1701634552.191426,5.0,-9.0,61.0,15.0,6.0,-14.0,-47.0,-42.0
1701634552.191426,0.0,-7.0,-52.0,-38.0,-8.0,-23.0,-11.0,18.0
1701634552.191426,6.0,4.0,37.0,20.0,-2.0,44.0,18.0,-1.0
1701634552.2016797,-9.0,-14.0,3.0,-16.0,-6.0,-14.0,1.0,-7.0
1701634552.2016797,-11.0,21.0,21.0,-3.0,-3.0,-16.0,-20.0,-27.0
1701634552.2016797,28.0,7.0,24.0,18.0,10.0,28.0,28.0,38.0
1701634552.2016797,23.0,1.0,19.0,-3.0,-1.0,-6.0,-19.0,-3.0
1701634552.2217824,-30.0,-29.0,-19.0,-4.0,-5.0,-15.0,-1.0,5.0
1701634552.2217824,-9.0,0.0,-17.0,-9.0,-5.0,2.0,-18.0,6.0
1701634552.2217824,-10.0,-32.0,-19.0,1.0,1.0,-8.0,-1.0,-48.0
1701634552.2217824,14.0,27.0,38.0,-2.0,-1.0,-1.0,18.0,32.0
1701634552.241425,-2.0,-33.0,-10.0,0.0,0.0,9.0,9.0,10.0
1701634552.241425,10.0,15.0,-74.0,-9.0,-3.0,-14.0,-13.0,-1.0
1701634552.241425,-14.0,-13.0,6.0,-5.0,-7.0,-3.0,-2.0,-2.0
1701634552.241425,11.0,4.0,15.0,12.0,6.0,3.0,12.0,10.0
1701634552.2614572,-27.0,-18.0,0.0,-10.0,-7.0,-13.0,-35.0,-43.0
1701634552.2614572,10.0,3.0,2.0,0.0,-4.0,-2.0,44.0,44.0
1701634552.2614572,-27.0,-6.0,0.0,5.0,5.0,16.0,-24.0,-13.0
1701634552.2614572,19.0,-16.0,-43.0,-12.0,-6.0,-8.0,-8.0,-39.0
1701634552.281682,24.0,70.0,120.0,20.0,9.0,7.0,-1.0,14.0
1701634552.281682,6.0,-31.0,-73.0,-4.0,-1.0,0.0,9.0,9.0
1701634552.281682,2.0,19.0,84.0,-15.0,-12.0,-2.0,15.0,3.0
1701634552.281682,-31.0,-37.0,-20.0,8.0,0.0,-26.0,-32.0,-3.0
1701634552.3114238,7.0,4.0,0.0,-3.0,-11.0,4.0,39.0,3.0
1701634552.3114238,-4.0,-2.0,14.0,10.0,8.0,9.0,-19.0,-31.0
1701634552.3114238,-2.0,-9.0,-25.0,-9.0,-4.0,0.0,-17.0,10.0
1701634552.3114238,-15.0,3.0,-4.0,-10.0,4.0,4.0,-7.0,-11.0
1701634552.3217473,20.0,20.0,-20.0,14.0,-1.0,-19.0,5.0,20.0
1701634552.3217473,-27.0,4.0,21.0,-4.0,-1.0,3.0,-2.0,-35.0
1701634552.3217473,23.0,-26.0,-33.0,-4.0,-6.0,2.0,5.0,26.0
1701634552.3217473,-35.0,5.0,-17.0,2.0,-4.0,-5.0,-24.0,-23.0
1701634552.3418016,9.0,2.0,4.0,15.0,6.0,-12.0,-17.0,22.0
1701634552.3418016,10.0,7.0,30.0,-29.0,-15.0,-5.0,0.0,-9.0
1701634552.3418016,-1.0,35.0,59.0,44.0,18.0,12.0,19.0,34.0
1701634552.3418016,14.0,-14.0,-1.0,-7.0,-3.0,17.0,22.0,4.0
1701634552.3658826,-14.0,-63.0,-83.0,-40.0,-5.0,-5.0,-21.0,-30.0
1701634552.3658826,-4.0,22.0,65.0,19.0,-9.0,-6.0,-6.0,2.0
1701634552.366859,-5.0,-9.0,-61.0,-24.0,-1.0,-8.0,8.0,9.0
1701634552.366859,26.0,19.0,26.0,42.0,23.0,8.0,3.0,14.0
1701634552.387583,-16.0,16.0,89.0,-6.0,-18.0,-7.0,-4.0,-6.0
1701634552.387583,4.0,-22.0,-4.0,15.0,13.0,9.0,7.0,17.0
1701634552.387583,-6.0,17.0,-13.0,-43.0,-7.0,-6.0,-3.0,-26.0
1701634552.387583,-17.0,-37.0,14.0,-13.0,-9.0,-2.0,5.0,5.0
1701634552.3974535,12.0,21.0,33.0,47.0,18.0,11.0,-3.0,3.0
1701634552.3974535,-1.0,-10.0,-13.0,21.0,9.0,10.0,18.0,20.0
1701634552.3974535,-10.0,-7.0,-26.0,-41.0,-27.0,-15.0,-3.0,-16.0
1701634552.3974535,-3.0,4.0,60.0,-18.0,-3.0,-2.0,-25.0,3.0
1701634552.4171863,-12.0,2.0,4.0,12.0,-7.0,-5.0,-12.0,-40.0
1701634552.4171863,13.0,68.0,94.0,0.0,6.0,2.0,11.0,13.0
1701634552.4271874,-9.0,1.0,-43.0,-20.0,-13.0,-9.0,-6.0,3.0
1701634552.4271874,9.0,-7.0,81.0,59.0,30.0,7.0,11.0,2.0
1701634552.447563,-40.0,-26.0,-102.0,-54.0,-16.0,-8.0,-10.0,-15.0
1701634552.447563,24.0,-17.0,20.0,-9.0,-7.0,-9.0,-6.0,3.0
