1701961187.5674849,4.0,10.0,51.0,-5.0,-1.0,-3.0,4.0,19.0
1701961187.5674849,-4.0,-16.0,-20.0,-18.0,-5.0,2.0,5.0,-4.0
1701961187.5674849,3.0,-3.0,-14.0,-18.0,3.0,3.0,3.0,-1.0
1701961187.5674849,-9.0,2.0,-28.0,-1.0,-14.0,-18.0,-10.0,1.0
1701961187.5776064,5.0,18.0,59.0,32.0,8.0,1.0,-1.0,-11.0
1701961187.5776064,-7.0,-23.0,-99.0,-35.0,-5.0,-25.0,-3.0,3.0
1701961187.5874927,7.0,27.0,10.0,25.0,5.0,39.0,15.0,-7.0
1701961187.5874927,5.0,1.0,-40.0,-7.0,2.0,-2.0,5.0,10.0
1701961187.6274834,-10.0,-6.0,48.0,18.0,-4.0,-9.0,-3.0,4.0
1701961187.6274834,-5.0,-14.0,-21.0,-11.0,-5.0,-2.0,-17.0,-22.0
1701961187.6274834,-3.0,4.0,46.0,14.0,2.0,5.0,6.0,6.0
1701961187.6274834,2.0,-4.0,-52.0,-24.0,0.0,-15.0,-29.0,5.0
1701961187.6274834,-3.0,2.0,20.0,7.0,-13.0,18.0,31.0,-5.0
1701961187.6274834,12.0,3.0,4.0,-2.0,1.0,9.0,0.0,-2.0
1701961187.6274834,9.0,17.0,48.0,29.0,9.0,-21.0,6.0,19.0
1701961187.6274834,-14.0,-15.0,-18.0,-27.0,-6.0,33.0,6.0,-10.0
1701961187.6374843,-28.0,-14.0,12.0,-14.0,-4.0,-10.0,-36.0,-29.0
1701961187.6374843,-4.0,-8.0,-13.0,5.0,1.0,11.0,9.0,7.0
1701961187.647704,13.0,5.0,18.0,4.0,-2.0,0.0,26.0,24.0
1701961187.647704,9.0,-2.0,5.0,9.0,0.0,-25.0,2.0,12.0
1701961187.6674848,0.0,6.0,-22.0,-3.0,2.0,-4.0,-37.0,-17.0
1701961187.6674848,-3.0,0.0,-4.0,-12.0,-3.0,16.0,-10.0,16.0
1701961187.6674848,-2.0,-12.0,-7.0,-6.0,-7.0,-22.0,-9.0,-23.0
1701961187.6674848,7.0,5.0,8.0,12.0,11.0,9.0,63.0,26.0
1701961187.687858,1.0,-8.0,-29.0,-10.0,-7.0,-4.0,-81.0,-28.0
1701961187.687858,3.0,33.0,47.0,14.0,1.0,-9.0,18.0,-3.0
1701961187.687858,-5.0,0.0,6.0,-12.0,-7.0,27.0,32.0,18.0
1701961187.687858,-14.0,-45.0,-48.0,-13.0,-7.0,-18.0,-77.0,-35.0
1701961187.6974878,18.0,31.0,32.0,14.0,11.0,14.0,75.0,35.0
1701961187.6974878,-31.0,-67.0,-47.0,-26.0,-18.0,21.0,-4.0,-34.0
1701961187.7077308,4.0,39.0,20.0,-2.0,-2.0,-44.0,-35.0,7.0
1701961187.7077308,14.0,40.0,46.0,4.0,5.0,35.0,37.0,8.0
1701961187.7277102,-5.0,-33.0,-4.0,16.0,1.0,-24.0,-31.0,-8.0
1701961187.7277102,16.0,52.0,18.0,-1.0,0.0,-1.0,13.0,16.0
1701961187.7277102,-28.0,-101.0,-102.0,-26.0,-9.0,1.0,15.0,-8.0
1701961187.7277102,-7.0,4.0,36.0,3.0,-2.0,-10.0,-18.0,1.0
1701961187.748165,10.0,18.0,34.0,16.0,0.0,-15.0,4.0,1.0
1701961187.748165,3.0,27.0,72.0,21.0,7.0,0.0,12.0,11.0
1701961187.748165,2.0,-18.0,-69.0,-24.0,-5.0,25.0,-19.0,-14.0
1701961187.748165,4.0,4.0,-2.0,0.0,3.0,-6.0,8.0,-1.0
1701961187.758055,3.0,28.0,87.0,25.0,4.0,-4.0,14.0,7.0
1701961187.758055,-18.0,-68.0,-128.0,-47.0,-11.0,1.0,-5.0,-9.0
1701961187.767952,7.0,53.0,122.0,32.0,2.0,-22.0,-23.0,-3.0
1701961187.767952,1.0,13.0,60.0,12.0,1.0,-5.0,-1.0,-1.0
1701961187.7977078,-1.0,-41.0,-71.0,-27.0,-11.0,12.0,22.0,6.0
1701961187.7977078,6.0,22.0,117.0,28.0,8.0,-9.0,-11.0,5.0
1701961187.7977078,9.0,24.0,59.0,9.0,10.0,7.0,-10.0,-3.0
1701961187.7977078,-2.0,-9.0,14.0,14.0,4.0,-13.0,2.0,15.0
1701961187.80801,-7.0,-8.0,56.0,-16.0,-12.0,-6.0,-11.0,-11.0
1701961187.80801,10.0,29.0,55.0,22.0,7.0,-42.0,-34.0,0.0
1701961187.80801,4.0,-34.0,-91.0,-6.0,8.0,44.0,60.0,15.0
1701961187.80801,-4.0,10.0,121.0,24.0,-2.0,0.0,-10.0,-16.0
1701961187.8179638,-1.0,-10.0,-84.0,-20.0,-4.0,-4.0,-2.0,14.0
1701961187.8179638,4.0,18.0,64.0,33.0,9.0,6.0,-7.0,-3.0
1701961187.8577082,-14.0,-21.0,-34.0,-41.0,-16.0,0.0,7.0,-4.0
1701961187.8577082,1.0,-9.0,-58.0,-28.0,-4.0,-20.0,4.0,5.0
1701961187.8577082,6.0,33.0,100.0,56.0,14.0,14.0,0.0,-7.0
1701961187.8577082,-14.0,-47.0,-128.0,-64.0,-17.0,-6.0,1.0,-1.0
1701961187.8577082,4.0,10.0,25.0,18.0,4.0,-14.0,-17.0,-8.0
1701961187.8577082,-10.0,-22.0,-41.0,-15.0,-10.0,-10.0,-2.0,5.0
1701961187.8679702,4.0,3.0,-29.0,-28.0,-5.0,1.0,-7.0,-4.0
1701961187.8679702,13.0,35.0,124.0,75.0,18.0,5.0,28.0,9.0
1701961187.8679702,-9.0,-20.0,-84.0,-49.0,-11.0,-8.0,-11.0,-10.0
1701961187.8679702,-8.0,-24.0,-2.0,-17.0,-8.0,-3.0,-7.0,-7.0
1701961187.9077096,14.0,47.0,127.0,58.0,23.0,16.0,19.0,14.0
1701961187.9077096,-21.0,-47.0,-103.0,-64.0,-28.0,12.0,4.0,-9.0
1701961187.9077096,6.0,25.0,82.0,28.0,6.0,-17.0,-26.0,-1.0
1701961187.9077096,2.0,8.0,-38.0,-5.0,2.0,-9.0,2.0,-4.0
1701961187.9077096,4.0,9.0,-27.0,-2.0,8.0,25.0,21.0,11.0
1701961187.9077096,-4.0,1.0,90.0,44.0,-1.0,-11.0,-9.0,-5.0
1701961187.9077096,-13.0,-11.0,40.0,-13.0,-14.0,6.0,-6.0,-4.0
1701961187.9077096,8.0,-3.0,-69.0,-29.0,2.0,-3.0,-7.0,-4.0
1701961187.9281561,-4.0,-6.0,30.0,8.0,4.0,2.0,3.0,-4.0
1701961187.9281561,25.0,8.0,9.0,-17.0,-5.0,-21.0,-8.0,10.0
1701961187.9281561,-5.0,27.0,67.0,47.0,4.0,-6.0,-5.0,-23.0
1701961187.9281561,5.0,-13.0,-26.0,1.0,-4.0,-9.0,-11.0,11.0
1701961187.9577096,4.0,-19.0,-128.0,-65.0,-1.0,25.0,15.0,-5.0
1701961187.9577096,-53.0,-13.0,-10.0,9.0,-8.0,-17.0,-4.0,-14.0
1701961187.9577096,-6.0,-13.0,17.0,19.0,7.0,2.0,-8.0,-1.0
1701961187.9577096,31.0,18.0,31.0,32.0,7.0,4.0,15.0,20.0
1701961187.9693315,37.0,0.0,-75.0,-43.0,-13.0,-6.0,3.0,2.0
1701961187.9693315,57.0,5.0,11.0,-5.0,4.0,14.0,24.0,32.0
1701961187.9703298,-72.0,24.0,-20.0,-2.0,4.0,-9.0,-54.0,-49.0
1701961187.9703298,-41.0,-42.0,37.0,19.0,-11.0,1.0,-2.0,8.0
1701961187.9906263,-75.0,-50.0,-16.0,-14.0,-11.0,-26.0,-12.0,-9.0
1701961187.9906263,53.0,16.0,-18.0,2.0,1.0,12.0,36.0,31.0
1701961187.9906263,43.0,26.0,3.0,-1.0,6.0,7.0,81.0,56.0
1701961187.9906263,2.0,-5.0,-15.0,-17.0,-2.0,7.0,-103.0,-91.0
1701961188.0206275,16.0,20.0,18.0,16.0,-3.0,-8.0,0.0,9.0
1701961188.0206275,-18.0,-24.0,-49.0,-26.0,-5.0,2.0,-14.0,-12.0
1701961188.0206275,14.0,0.0,25.0,7.0,3.0,-7.0,7.0,16.0
1701961188.0206275,10.0,29.0,-6.0,0.0,1.0,10.0,18.0,4.0
1701961188.0306315,-7.0,-2.0,31.0,13.0,-4.0,-5.0,59.0,16.0
1701961188.0306315,-18.0,-16.0,-28.0,2.0,5.0,7.0,-103.0,-56.0
1701961188.0306315,9.0,3.0,-3.0,-2.0,-3.0,-9.0,-13.0,-2.0
1701961188.0306315,-9.0,-2.0,2.0,-10.0,-6.0,-2.0,34.0,14.0
1701961188.0508544,-7.0,-9.0,5.0,9.0,3.0,-3.0,-6.0,6.0
1701961188.0508544,-10.0,1.0,-20.0,-8.0,1.0,1.0,-7.0,-14.0
1701961188.0508544,9.0,5.0,22.0,10.0,-2.0,1.0,10.0,6.0
1701961188.0508544,-9.0,1.0,7.0,12.0,-1.0,6.0,0.0,0.0
1701961188.070634,13.0,6.0,-7.0,-12.0,-2.0,-3.0,12.0,7.0
1701961188.070634,-12.0,-4.0,-18.0,-10.0,-5.0,2.0,26.0,6.0
1701961188.070634,-5.0,-10.0,-6.0,-4.0,-2.0,-4.0,-26.0,-15.0
1701961188.070634,5.0,-15.0,-21.0,-6.0,2.0,7.0,35.0,26.0
1701961188.0906312,1.0,15.0,16.0,10.0,-3.0,-6.0,-17.0,-12.0
1701961188.0906312,-31.0,-42.0,-43.0,-24.0,-7.0,-10.0,-50.0,-33.0
1701961188.0906312,-3.0,-8.0,-5.0,-18.0,-9.0,-14.0,-5.0,-5.0
1701961188.0906312,15.0,27.0,18.0,7.0,10.0,-1.0,14.0,20.0
1701961188.1107826,-11.0,-7.0,-1.0,2.0,-4.0,10.0,-6.0,-14.0
1701961188.1107826,-8.0,8.0,20.0,2.0,-3.0,-17.0,1.0,1.0
1701961188.1107826,13.0,-7.0,-5.0,1.0,3.0,18.0,16.0,7.0
1701961188.1107826,2.0,5.0,-6.0,-4.0,-5.0,-7.0,4.0,-1.0
1701961188.1308224,-5.0,1.0,-10.0,5.0,-4.0,-9.0,-36.0,-16.0
1701961188.1308224,-9.0,-40.0,-45.0,-23.0,2.0,11.0,22.0,5.0
1701961188.1308224,15.0,42.0,53.0,15.0,3.0,-5.0,5.0,13.0
1701961188.1308224,-11.0,-18.0,22.0,2.0,-4.0,-3.0,-9.0,-12.0
1701961188.1406338,1.0,3.0,15.0,-1.0,-1.0,-2.0,-14.0,-8.0
1701961188.1406338,4.0,3.0,-18.0,-4.0,0.0,7.0,26.0,15.0
1701961188.1406338,15.0,70.0,105.0,38.0,10.0,9.0,6.0,3.0
1701961188.1506288,-26.0,-98.0,-94.0,-71.0,-17.0,-8.0,-21.0,-16.0
1701961188.1708179,-1.0,3.0,112.0,26.0,0.0,-9.0,-5.0,-1.0
1701961188.1708179,6.0,37.0,13.0,-11.0,1.0,5.0,13.0,6.0
1701961188.1708179,-20.0,-91.0,-107.0,-61.0,-17.0,-10.0,-12.0,-14.0
1701961188.1708179,10.0,54.0,89.0,34.0,9.0,-6.0,-6.0,3.0
1701961188.1906598,-2.0,-20.0,-16.0,-13.0,-3.0,14.0,15.0,6.0
1701961188.1906598,1.0,4.0,41.0,14.0,3.0,-10.0,5.0,4.0
1701961188.1906598,2.0,-6.0,-87.0,5.0,9.0,12.0,-18.0,-19.0
1701961188.1906598,7.0,26.0,116.0,35.0,5.0,16.0,12.0,10.0
1701961188.2009532,-14.0,-36.0,-128.0,-61.0,-17.0,-18.0,0.0,-9.0
1701961188.2009532,2.0,5.0,58.0,33.0,8.0,8.0,-8.0,-5.0
1701961188.2106302,-7.0,-18.0,-47.0,-22.0,-5.0,-3.0,27.0,5.0
1701961188.2106302,15.0,30.0,41.0,3.0,9.0,-4.0,19.0,19.0
1701961188.2406259,4.0,30.0,95.0,43.0,9.0,11.0,-8.0,-7.0
1701961188.2406259,2.0,27.0,70.0,28.0,3.0,6.0,14.0,6.0
1701961188.2406259,-33.0,-90.0,-55.0,-87.0,-35.0,-27.0,-27.0,-18.0
1701961188.2406259,0.0,33.0,109.0,31.0,4.0,7.0,-1.0,-3.0
1701961188.2509904,18.0,21.0,43.0,30.0,15.0,-3.0,-2.0,13.0
1701961188.2509904,-8.0,10.0,38.0,-27.0,-11.0,2.0,-9.0,-13.0
1701961188.2509904,9.0,19.0,127.0,61.0,11.0,0.0,14.0,16.0
1701961188.2509904,-10.0,-25.0,-128.0,-64.0,-19.0,-16.0,-5.0,-16.0
1701961188.2609534,4.0,19.0,109.0,46.0,9.0,2.0,-2.0,4.0
1701961188.2609534,2.0,-23.0,-100.0,-26.0,2.0,-10.0,-3.0,11.0
1701961188.2706301,7.0,36.0,106.0,43.0,5.0,-4.0,-20.0,-8.0
1701961188.2706301,-7.0,-6.0,-47.0,-10.0,-4.0,7.0,2.0,-14.0
1701961188.2906296,-4.0,-9.0,-54.0,-17.0,-2.0,-31.0,-19.0,-14.0
1701961188.2906296,0.0,-14.0,-48.0,0.0,-3.0,15.0,12.0,14.0
1701961188.2906296,-5.0,-22.0,-65.0,-24.0,-5.0,-3.0,4.0,-1.0
1701961188.2906296,-2.0,1.0,2.0,-10.0,-1.0,2.0,-2.0,-5.0
1701961188.3110425,4.0,15.0,50.0,12.0,10.0,9.0,2.0,2.0
1701961188.3110425,-20.0,-47.0,-34.0,-4.0,-17.0,0.0,0.0,-9.0
1701961188.3110425,6.0,21.0,-30.0,-10.0,-4.0,16.0,5.0,3.0
1701961188.3110425,3.0,-2.0,-1.0,17.0,8.0,-20.0,-26.0,16.0
1701961188.3207357,4.0,-1.0,-64.0,-26.0,3.0,22.0,15.0,-34.0
1701961188.3207357,-6.0,-4.0,-44.0,-21.0,-9.0,-9.0,-2.0,-20.0
1701961188.3306303,-2.0,7.0,51.0,30.0,-4.0,-6.0,8.0,23.0
1701961188.3306303,9.0,-4.0,-1.0,0.0,0.0,-7.0,-20.0,26.0
1701961188.3508,34.0,6.0,-98.0,-46.0,2.0,2.0,24.0,36.0
1701961188.3508,-43.0,2.0,115.0,52.0,-2.0,-8.0,-3.0,-15.0
1701961188.3508,5.0,-9.0,-46.0,-6.0,-1.0,-2.0,-35.0,-50.0
1701961188.3508,-21.0,-9.0,-28.0,-45.0,-8.0,-10.0,17.0,-2.0
1701961188.370963,-34.0,-3.0,91.0,50.0,-6.0,-3.0,-7.0,3.0
1701961188.370963,20.0,-10.0,-40.0,-25.0,5.0,8.0,9.0,9.0
1701961188.370963,-2.0,27.0,52.0,13.0,5.0,-20.0,-5.0,14.0
1701961188.370963,16.0,0.0,-11.0,19.0,4.0,48.0,13.0,-13.0
1701961188.3809507,14.0,6.0,-45.0,-42.0,-14.0,-19.0,-4.0,-3.0
1701961188.3809507,4.0,29.0,25.0,-4.0,-3.0,-3.0,9.0,28.0
1701961188.3908951,-68.0,-87.0,-8.0,8.0,1.0,-6.0,-31.0,-37.0
1701961188.3908951,35.0,31.0,19.0,17.0,10.0,0.0,39.0,28.0
1701961188.4106278,-49.0,-25.0,-3.0,3.0,-5.0,5.0,-13.0,-39.0
1701961188.4106278,8.0,-10.0,-41.0,-19.0,-4.0,-9.0,-68.0,-41.0
1701961188.4106278,36.0,34.0,17.0,9.0,11.0,14.0,38.0,38.0
1701961188.4106278,5.0,9.0,-24.0,-20.0,-7.0,-4.0,34.0,29.0
1701961188.430636,8.0,-8.0,30.0,3.0,-8.0,4.0,-35.0,-4.0
1701961188.430636,17.0,20.0,27.0,17.0,6.0,-9.0,23.0,22.0
1701961188.430636,18.0,20.0,-30.0,-11.0,9.0,30.0,43.0,20.0
1701961188.430636,-36.0,-35.0,-11.0,-4.0,-16.0,-32.0,-120.0,-116.0
1701961188.4606283,-12.0,-14.0,-5.0,8.0,-1.0,-23.0,-14.0,25.0
1701961188.4606283,5.0,0.0,-2.0,-5.0,1.0,9.0,46.0,23.0
1701961188.4606283,21.0,21.0,17.0,3.0,3.0,25.0,108.0,87.0
1701961188.4606283,-4.0,-12.0,-5.0,11.0,10.0,24.0,-4.0,16.0
1701961188.4706612,-7.0,-13.0,-24.0,-14.0,-15.0,-44.0,-93.0,-71.0
1701961188.4706612,-3.0,0.0,4.0,10.0,5.0,0.0,16.0,-2.0
1701961188.4706612,4.0,7.0,4.0,-8.0,-2.0,2.0,21.0,6.0
1701961188.4706612,8.0,23.0,32.0,10.0,3.0,12.0,47.0,27.0
1701961188.4906287,-1.0,-10.0,-2.0,4.0,3.0,0.0,-14.0,-5.0
1701961188.4906287,4.0,12.0,28.0,8.0,4.0,-6.0,-35.0,2.0
1701961188.4906287,-1.0,-14.0,-31.0,-16.0,-8.0,11.0,-7.0,20.0
1701961188.4906287,-8.0,6.0,14.0,8.0,-2.0,-22.0,-50.0,-20.0
1701961188.5166767,-3.0,-31.0,-37.0,-12.0,-4.0,7.0,33.0,10.0
1701961188.5166767,0.0,23.0,31.0,2.0,2.0,5.0,38.0,17.0
1701961188.5166767,-3.0,-2.0,-2.0,-2.0,-1.0,-14.0,-54.0,-31.0
1701961188.5166767,-6.0,7.0,12.0,7.0,0.0,-9.0,-10.0,-8.0
1701961188.5333877,9.0,16.0,9.0,2.0,1.0,18.0,39.0,28.0
1701961188.5333877,2.0,-2.0,-7.0,-8.0,-2.0,-9.0,-4.0,-3.0
1701961188.5333877,-3.0,-1.0,14.0,11.0,2.0,-8.0,-37.0,-28.0
1701961188.5333877,-9.0,-26.0,-38.0,-12.0,-4.0,11.0,13.0,-4.0
1701961188.5536804,11.0,19.0,6.0,-2.0,-2.0,2.0,29.0,19.0
1701961188.5536804,-1.0,-2.0,24.0,9.0,5.0,7.0,-18.0,-8.0
1701961188.5536804,-9.0,-3.0,-63.0,-24.0,-13.0,-23.0,-32.0,-52.0
1701961188.5536804,3.0,18.0,31.0,15.0,6.0,3.0,29.0,11.0
1701961188.5733824,-1.0,-10.0,9.0,3.0,-2.0,7.0,-6.0,9.0
1701961188.5733824,-5.0,-4.0,-20.0,-12.0,0.0,2.0,-9.0,-12.0
1701961188.5733824,7.0,2.0,75.0,22.0,5.0,0.0,6.0,9.0
1701961188.5733824,-11.0,-15.0,-10.0,-20.0,-12.0,-21.0,-10.0,-1.0
1701961188.583419,5.0,16.0,-12.0,-4.0,7.0,21.0,19.0,0.0
1701961188.583419,8.0,5.0,37.0,13.0,4.0,3.0,2.0,8.0
1701961188.583419,2.0,11.0,43.0,14.0,0.0,1.0,0.0,-1.0
1701961188.583419,1.0,-3.0,1.0,29.0,7.0,5.0,0.0,-5.0
1701961188.613694,-2.0,12.0,-6.0,-7.0,0.0,-7.0,1.0,0.0
1701961188.613694,-19.0,-30.0,-42.0,-55.0,-26.0,-37.0,-4.0,2.0
1701961188.613694,7.0,0.0,0.0,-4.0,5.0,2.0,-14.0,-2.0
1701961188.613694,5.0,6.0,57.0,12.0,3.0,32.0,35.0,13.0
1701961188.643387,-7.0,-8.0,17.0,6.0,-3.0,-1.0,-4.0,-6.0
1701961188.643387,8.0,-10.0,-43.0,2.0,9.0,26.0,7.0,-2.0
1701961188.643387,-10.0,-10.0,-101.0,-28.0,-5.0,-29.0,-22.0,-22.0
1701961188.643387,-5.0,-7.0,60.0,9.0,-8.0,-21.0,-10.0,3.0
1701961188.643387,8.0,19.0,65.0,24.0,12.0,40.0,25.0,2.0
1701961188.643387,0.0,-17.0,-17.0,-19.0,-5.0,-11.0,-22.0,-4.0
1701961188.643387,5.0,13.0,44.0,3.0,7.0,24.0,35.0,16.0
1701961188.643387,-3.0,-1.0,5.0,-10.0,-9.0,-15.0,-26.0,-43.0
1701961188.6733851,-5.0,-16.0,-26.0,-10.0,-5.0,-13.0,-2.0,10.0
1701961188.6733851,-6.0,2.0,59.0,18.0,0.0,15.0,-6.0,-12.0
1701961188.6733851,-6.0,3.0,-50.0,-10.0,-1.0,-8.0,2.0,-9.0
1701961188.6733851,3.0,-6.0,-19.0,-6.0,-6.0,10.0,4.0,16.0
1701961188.6834197,1.0,6.0,26.0,-2.0,-3.0,-34.0,-2.0,1.0
1701961188.6834197,-6.0,-20.0,-96.0,-21.0,-8.0,-5.0,-5.0,-6.0
1701961188.6937032,4.0,4.0,65.0,19.0,6.0,22.0,8.0,1.0
1701961188.6937032,-1.0,11.0,52.0,10.0,3.0,1.0,7.0,-1.0
1701961188.703706,-11.0,-25.0,-44.0,-17.0,-13.0,-20.0,-15.0,-11.0
1701961188.703706,4.0,11.0,12.0,10.0,9.0,-6.0,13.0,25.0
1701961188.7133849,5.0,2.0,10.0,-3.0,2.0,20.0,-8.0,-5.0
1701961188.7133849,-1.0,4.0,47.0,16.0,0.0,-11.0,-2.0,8.0
1701961188.7333827,0.0,-6.0,-50.0,-21.0,-2.0,8.0,6.0,-8.0
1701961188.7333827,8.0,23.0,77.0,29.0,4.0,8.0,7.0,-15.0
1701961188.7333827,-6.0,-10.0,-20.0,-11.0,-16.0,-34.0,-24.0,3.0
1701961188.7333827,1.0,0.0,-25.0,-2.0,9.0,12.0,4.0,-1.0
1701961188.7434177,18.0,1.0,-12.0,-8.0,-4.0,8.0,3.0,1.0
1701961188.7434177,-24.0,16.0,19.0,4.0,2.0,17.0,6.0,-3.0
1701961188.7537203,1.0,-16.0,20.0,9.0,-3.0,-30.0,-19.0,-5.0
1701961188.7537203,-52.0,-26.0,-76.0,-32.0,-4.0,3.0,5.0,-4.0
1701961188.7637086,28.0,4.0,30.0,9.0,-1.0,-16.0,-27.0,-31.0
1701961188.7637086,0.0,-6.0,-9.0,-5.0,2.0,15.0,6.0,-1.0
1701961188.7733858,17.0,28.0,19.0,8.0,-1.0,7.0,17.0,19.0
1701961188.7733858,45.0,15.0,-4.0,5.0,2.0,-1.0,7.0,39.0
1701961188.8033814,-10.0,-12.0,19.0,8.0,-1.0,-15.0,-29.0,-14.0
1701961188.8033814,-5.0,-12.0,-15.0,-11.0,-9.0,0.0,6.0,-7.0
1701961188.8033814,-31.0,-20.0,-39.0,-23.0,1.0,5.0,7.0,-16.0
1701961188.8033814,-63.0,-53.0,-17.0,-4.0,-5.0,0.0,15.0,5.0
1701961188.8033814,12.0,33.0,15.0,6.0,1.0,0.0,-11.0,-17.0
1701961188.8033814,32.0,-1.0,24.0,26.0,3.0,-21.0,-79.0,-34.0
1701961188.823683,18.0,9.0,-22.0,-26.0,-7.0,3.0,39.0,34.0
1701961188.823683,22.0,28.0,4.0,6.0,3.0,0.0,6.0,-10.0
1701961188.8333883,-5.0,-10.0,24.0,9.0,6.0,15.0,51.0,43.0
1701961188.8333883,-9.0,-1.0,-24.0,-18.0,-2.0,-3.0,47.0,71.0
1701961188.8333883,-2.0,0.0,16.0,4.0,-7.0,-16.0,-100.0,-92.0
1701961188.8333883,5.0,10.0,-6.0,0.0,1.0,-1.0,-5.0,-20.0
1701961188.8733833,-25.0,-16.0,-2.0,1.0,-1.0,-12.0,0.0,2.0
1701961188.8733833,18.0,9.0,-4.0,-1.0,2.0,33.0,101.0,59.0
1701961188.8733833,-23.0,-12.0,3.0,1.0,-2.0,-5.0,-18.0,-27.0
1701961188.8733833,9.0,5.0,-12.0,-9.0,-3.0,-11.0,-52.0,-21.0
1701961188.8733833,-17.0,-12.0,-4.0,0.0,-4.0,-13.0,-9.0,2.0
1701961188.8733833,-3.0,-3.0,-6.0,-6.0,-6.0,-2.0,-5.0,-16.0
1701961188.8733833,8.0,12.0,28.0,10.0,8.0,17.0,58.0,45.0
1701961188.8733833,-4.0,-19.0,-32.0,-2.0,-5.0,-21.0,8.0,-3.0
1701961188.893663,4.0,18.0,21.0,-4.0,2.0,14.0,7.0,7.0
1701961188.893663,-2.0,-14.0,-28.0,0.0,2.0,4.0,-16.0,-41.0
1701961188.893663,-5.0,5.0,9.0,4.0,-2.0,-4.0,-21.0,-5.0
1701961188.893663,-1.0,-15.0,-15.0,-13.0,-6.0,-1.0,8.0,6.0
1701961188.9333806,-1.0,14.0,11.0,-1.0,1.0,3.0,25.0,27.0
1701961188.9333806,2.0,-6.0,0.0,-1.0,2.0,-2.0,-22.0,-23.0
1701961188.9333806,5.0,27.0,39.0,12.0,1.0,-15.0,-24.0,0.0
1701961188.9333806,2.0,-12.0,-25.0,-6.0,0.0,4.0,0.0,-3.0
1701961188.9333806,-17.0,-33.0,-29.0,-19.0,-10.0,-1.0,-1.0,-6.0
1701961188.9333806,-4.0,9.0,8.0,-1.0,-3.0,1.0,-9.0,-13.0
1701961188.9333806,7.0,-1.0,3.0,7.0,1.0,0.0,9.0,9.0
1701961188.9333806,7.0,23.0,28.0,8.0,2.0,-2.0,3.0,7.0
1701961188.9437144,1.0,-4.0,-17.0,-5.0,1.0,12.0,-5.0,-12.0
1701961188.9437144,-8.0,8.0,22.0,4.0,-7.0,-27.0,-28.0,-4.0
1701961188.9437144,-7.0,-29.0,-35.0,-6.0,0.0,18.0,36.0,16.0
1701961188.9437144,7.0,24.0,12.0,5.0,2.0,5.0,0.0,3.0
1701961188.9734325,-18.0,-65.0,-79.0,-22.0,-7.0,-4.0,-9.0,-9.0
1701961188.9734325,3.0,14.0,37.0,7.0,1.0,-19.0,-13.0,1.0
1701961188.9734325,-8.0,-10.0,-28.0,-11.0,-9.0,-13.0,-4.0,-4.0
1701961188.9734325,2.0,0.0,24.0,2.0,-4.0,-1.0,-9.0,-4.0
1701961188.9938014,3.0,-7.0,-77.0,-21.0,-4.0,22.0,7.0,1.0
1701961188.9938014,4.0,27.0,68.0,18.0,5.0,-10.0,7.0,8.0
1701961188.9938014,-9.0,-11.0,10.0,-3.0,-2.0,4.0,-11.0,-13.0
1701961188.9938014,7.0,4.0,5.0,4.0,7.0,-11.0,-11.0,5.0
1701961189.0036876,-3.0,7.0,36.0,15.0,-3.0,-14.0,-1.0,2.0
1701961189.0036876,-11.0,-15.0,-16.0,-29.0,-12.0,4.0,-6.0,-12.0
1701961189.0036876,2.0,2.0,19.0,24.0,7.0,5.0,13.0,7.0
1701961189.0036876,4.0,-11.0,-41.0,-19.0,0.0,-1.0,-22.0,-11.0
1701961189.0356326,-9.0,-2.0,17.0,-22.0,-13.0,1.0,-11.0,-12.0
1701961189.036654,5.0,21.0,82.0,29.0,13.0,9.0,4.0,-8.0
1701961189.036654,-7.0,-3.0,31.0,-12.0,-17.0,-20.0,-13.0,2.0
1701961189.036654,6.0,15.0,61.0,35.0,6.0,-22.0,12.0,7.0
1701961189.056112,-5.0,-11.0,-69.0,-17.0,0.0,38.0,3.0,-9.0
1701961189.056112,5.0,-7.0,-74.0,-13.0,3.0,8.0,8.0,6.0
1701961189.056112,5.0,20.0,69.0,28.0,9.0,11.0,9.0,-2.0
1701961189.056112,-24.0,-34.0,5.0,-2.0,-10.0,-4.0,-6.0,-9.0
1701961189.0861084,0.0,12.0,13.0,-3.0,-1.0,-50.0,-28.0,16.0
1701961189.0861084,-3.0,-25.0,-89.0,-20.0,-7.0,15.0,-12.0,-9.0
1701961189.0861084,-3.0,2.0,14.0,1.0,-2.0,12.0,14.0,0.0
1701961189.0861084,3.0,1.0,-53.0,-24.0,2.0,8.0,7.0,2.0
1701961189.0861084,4.0,12.0,83.0,39.0,5.0,-5.0,1.0,5.0
1701961189.0861084,-3.0,2.0,-24.0,-30.0,-2.0,-6.0,2.0,1.0
1701961189.0964472,-8.0,-28.0,-41.0,0.0,-6.0,-10.0,-11.0,-5.0
1701961189.0964472,1.0,1.0,-2.0,-5.0,-2.0,11.0,2.0,1.0
1701961189.1261213,4.0,11.0,-37.0,-20.0,10.0,6.0,12.0,-4.0
1701961189.1261213,-4.0,2.0,95.0,51.0,-6.0,-13.0,-9.0,3.0
1701961189.1261213,-1.0,-15.0,-66.0,-43.0,-3.0,-11.0,-11.0,-2.0
1701961189.1261213,-2.0,2.0,41.0,21.0,-1.0,17.0,14.0,-1.0
1701961189.1261213,8.0,11.0,3.0,-2.0,5.0,4.0,3.0,3.0
1701961189.1261213,-4.0,-13.0,-11.0,-12.0,-6.0,-7.0,-2.0,-3.0
1701961189.1261213,7.0,14.0,15.0,20.0,2.0,0.0,-1.0,6.0
1701961189.1261213,-1.0,3.0,-38.0,-19.0,-2.0,3.0,4.0,1.0
1701961189.1561167,-4.0,-1.0,5.0,12.0,-4.0,-6.0,-7.0,-6.0
1701961189.1561167,-6.0,-11.0,-11.0,-19.0,0.0,-5.0,-1.0,-2.0
1701961189.1561167,8.0,0.0,-7.0,-6.0,-1.0,6.0,-2.0,2.0
1701961189.1561167,-9.0,-11.0,-26.0,-6.0,-4.0,2.0,0.0,-12.0
1701961189.176312,7.0,28.0,93.0,31.0,-1.0,-36.0,-10.0,0.0
1701961189.176312,-17.0,-19.0,-8.0,30.0,0.0,42.0,28.0,7.0
1701961189.176312,0.0,-7.0,-32.0,-31.0,-1.0,-7.0,-15.0,-12.0
1701961189.176312,-9.0,0.0,18.0,8.0,1.0,-3.0,0.0,2.0
1701961189.1961093,-3.0,-6.0,-7.0,-14.0,-4.0,1.0,5.0,4.0
1701961189.1961093,9.0,15.0,31.0,31.0,1.0,-15.0,9.0,12.0
1701961189.1961093,-2.0,-10.0,-37.0,-13.0,-3.0,0.0,-22.0,-21.0
1701961189.1961093,3.0,5.0,12.0,2.0,-3.0,2.0,-3.0,-2.0
1701961189.216119,3.0,7.0,-5.0,-5.0,-1.0,1.0,-3.0,-10.0
1701961189.216119,-2.0,-6.0,8.0,-4.0,0.0,-10.0,-24.0,-5.0
1701961189.216119,5.0,7.0,-8.0,-4.0,-3.0,14.0,71.0,52.0
1701961189.216119,-5.0,-5.0,8.0,-7.0,0.0,-8.0,-32.0,-28.0
1701961189.2362483,-2.0,3.0,8.0,10.0,-5.0,-3.0,-12.0,-11.0
1701961189.2362483,6.0,4.0,-9.0,-11.0,-1.0,-6.0,-54.0,-12.0
1701961189.2362483,-12.0,1.0,46.0,27.0,3.0,-11.0,-23.0,-17.0
1701961189.2362483,3.0,-3.0,-30.0,-19.0,-3.0,17.0,55.0,30.0
1701961189.2561133,-6.0,-17.0,-17.0,-3.0,3.0,20.0,16.0,1.0
1701961189.2561133,-6.0,9.0,6.0,-5.0,3.0,-6.0,18.0,12.0
1701961189.2561133,7.0,30.0,43.0,26.0,13.0,6.0,-3.0,-3.0
1701961189.2561133,-18.0,-26.0,-22.0,-23.0,-12.0,-22.0,-18.0,-1.0
1701961189.2761185,-8.0,-41.0,-50.0,2.0,4.0,15.0,8.0,-1.0
1701961189.2761185,4.0,11.0,1.0,-11.0,-6.0,-11.0,5.0,-6.0
1701961189.2761185,6.0,1.0,2.0,3.0,5.0,10.0,-15.0,5.0
1701961189.2761185,6.0,3.0,12.0,1.0,-2.0,-3.0,3.0,0.0
1701961189.2961082,1.0,5.0,1.0,-3.0,-2.0,-6.0,-13.0,-1.0
1701961189.2961082,-8.0,-21.0,-27.0,-9.0,-3.0,-7.0,0.0,-5.0
1701961189.2961082,0.0,13.0,17.0,-2.0,-2.0,1.0,6.0,1.0
1701961189.2961082,8.0,-15.0,-23.0,5.0,1.0,-9.0,-4.0,3.0
1701961189.3063822,1.0,11.0,13.0,-1.0,1.0,21.0,4.0,-1.0
1701961189.3063822,5.0,10.0,13.0,-1.0,-4.0,-45.0,-30.0,-3.0
1701961189.316374,-6.0,-7.0,-10.0,-7.0,0.0,68.0,42.0,-2.0
1701961189.316374,14.0,34.0,40.0,15.0,8.0,12.0,1.0,4.0
1701961189.3364782,-10.0,-20.0,0.0,-10.0,-9.0,-17.0,-7.0,-5.0
1701961189.3364782,-2.0,0.0,5.0,-5.0,-3.0,2.0,6.0,-5.0
1701961189.3364782,-15.0,-22.0,-11.0,-4.0,-3.0,-32.0,-18.0,-7.0
1701961189.3364782,0.0,9.0,9.0,5.0,-1.0,-3.0,-7.0,-2.0
1701961189.366561,10.0,28.0,95.0,30.0,11.0,11.0,5.0,6.0
1701961189.366561,-14.0,-34.0,-82.0,-61.0,-22.0,-12.0,-5.0,-11.0
1701961189.366561,-19.0,-5.0,43.0,7.0,10.0,-14.0,-3.0,6.0
1701961189.366561,-6.0,0.0,-22.0,20.0,1.0,31.0,6.0,-5.0
1701961189.366561,5.0,13.0,7.0,-17.0,2.0,-8.0,-2.0,3.0
1701961189.366561,-4.0,2.0,75.0,25.0,-2.0,0.0,2.0,-3.0
1701961189.3767476,8.0,2.0,-32.0,-22.0,-10.0,-10.0,-3.0,-2.0
1701961189.3767476,-8.0,-10.0,9.0,12.0,-10.0,-13.0,-19.0,-12.0
1701961189.3868973,1.0,11.0,-27.0,11.0,5.0,-1.0,4.0,7.0
1701961189.3868973,3.0,-7.0,-58.0,-17.0,9.0,17.0,11.0,2.0
1701961189.396963,1.0,-2.0,49.0,12.0,-9.0,-29.0,-14.0,-4.0
1701961189.396963,5.0,5.0,-79.0,-27.0,2.0,11.0,9.0,2.0
1701961189.4169123,0.0,-5.0,6.0,12.0,-5.0,-23.0,-11.0,-5.0
1701961189.4169123,9.0,13.0,48.0,21.0,6.0,51.0,28.0,7.0
1701961189.4169123,-3.0,-18.0,-61.0,-25.0,-1.0,-11.0,1.0,-6.0
1701961189.4169123,12.0,14.0,49.0,18.0,3.0,-10.0,-2.0,8.0
1701961189.4272785,-7.0,-21.0,-110.0,-52.0,-2.0,-5.0,4.0,-4.0
1701961189.4272785,2.0,22.0,105.0,52.0,-6.0,-16.0,-10.0,-1.0
1701961189.437345,4.0,4.0,-20.0,0.0,-2.0,-2.0,-4.0,1.0
1701961189.437345,4.0,-2.0,9.0,9.0,8.0,2.0,5.0,1.0
1701961189.4473817,0.0,2.0,-44.0,-22.0,-8.0,-2.0,-3.0,-3.0
1701961189.4473817,4.0,-7.0,-44.0,-13.0,7.0,2.0,3.0,0.0
1701961189.4473817,-2.0,0.0,22.0,11.0,-5.0,3.0,-3.0,-3.0
1701961189.4473817,-5.0,-17.0,-53.0,-68.0,-1.0,-1.0,-1.0,0.0
1701961189.4776325,-2.0,10.0,39.0,21.0,-5.0,4.0,-1.0,-2.0
1701961189.4776325,-13.0,-25.0,-38.0,-4.0,3.0,2.0,2.0,-2.0
1701961189.4776325,6.0,7.0,-63.0,-20.0,-5.0,-6.0,-5.0,-6.0
1701961189.4776325,-9.0,-14.0,37.0,30.0,8.0,2.0,3.0,5.0
1701961189.4876525,0.0,0.0,8.0,-8.0,-4.0,1.0,-4.0,4.0
1701961189.4876525,8.0,10.0,-1.0,9.0,-3.0,-25.0,-8.0,-3.0
1701961189.497626,1.0,4.0,28.0,19.0,4.0,26.0,3.0,-3.0
1701961189.497626,-19.0,-14.0,-8.0,-26.0,-3.0,-1.0,46.0,18.0
1701961189.5173793,3.0,-4.0,-4.0,-5.0,-8.0,2.0,-14.0,-9.0
1701961189.5173793,-6.0,-3.0,11.0,16.0,1.0,-28.0,-37.0,-22.0
1701961189.5173793,6.0,-2.0,-11.0,-4.0,2.0,9.0,-15.0,11.0
1701961189.5173793,3.0,10.0,20.0,16.0,-8.0,-4.0,-13.0,-30.0
1701961189.5375714,-2.0,-1.0,24.0,13.0,5.0,5.0,37.0,16.0
1701961189.5375714,4.0,-7.0,-54.0,-43.0,-4.0,10.0,35.0,7.0
1701961189.5375714,1.0,5.0,24.0,13.0,2.0,-6.0,0.0,9.0
1701961189.5375714,-6.0,-15.0,-18.0,-13.0,-13.0,-17.0,-54.0,-18.0
1701961189.5476325,-2.0,1.0,16.0,9.0,4.0,-3.0,-10.0,-6.0
1701961189.5476325,4.0,23.0,31.0,10.0,8.0,12.0,7.0,9.0
1701961189.5611372,-7.0,-32.0,-47.0,-12.0,-7.0,-3.0,22.0,0.0
1701961189.5611372,5.0,3.0,12.0,8.0,-1.0,2.0,-1.0,10.0
1701961189.588718,5.0,14.0,13.0,4.0,0.0,-3.0,-5.0,-2.0
1701961189.588718,-2.0,9.0,4.0,3.0,5.0,12.0,2.0,0.0
1701961189.588718,2.0,-8.0,-13.0,0.0,-1.0,-5.0,1.0,3.0
1701961189.588718,6.0,17.0,9.0,-6.0,-4.0,-4.0,-1.0,-3.0
1701961189.588718,-9.0,-13.0,5.0,2.0,0.0,7.0,-3.0,-7.0
1701961189.588718,4.0,6.0,-10.0,-2.0,1.0,-1.0,-2.0,4.0
1701961189.598717,-3.0,1.0,14.0,1.0,-1.0,6.0,4.0,-7.0
1701961189.598717,0.0,-8.0,-12.0,-2.0,-2.0,-8.0,-14.0,-4.0
1701961189.6091042,3.0,11.0,22.0,2.0,1.0,-1.0,0.0,3.0
1701961189.6091042,1.0,1.0,-8.0,2.0,-1.0,0.0,-1.0,2.0
1701961189.6187186,-7.0,-6.0,-2.0,-6.0,-4.0,-11.0,-8.0,-8.0
1701961189.6187186,-3.0,-1.0,7.0,3.0,0.0,-6.0,4.0,-1.0
1701961189.6387186,4.0,1.0,-18.0,5.0,6.0,16.0,12.0,7.0
1701961189.6387186,-2.0,-14.0,-30.0,-13.0,-4.0,-24.0,-16.0,-2.0
1701961189.6387186,3.0,10.0,18.0,10.0,5.0,22.0,6.0,-4.0
1701961189.6387186,4.0,17.0,52.0,8.0,1.0,17.0,8.0,5.0
1701961189.6490974,-11.0,-18.0,-11.0,-15.0,-10.0,-13.0,-11.0,-14.0
1701961189.6587558,4.0,8.0,-36.0,1.0,7.0,7.0,9.0,6.0
1701961189.6587558,1.0,6.0,19.0,-4.0,-6.0,-23.0,-10.0,-1.0
1701961189.6587558,8.0,11.0,14.0,18.0,11.0,13.0,3.0,6.0
1701961189.679234,-5.0,4.0,41.0,-2.0,-5.0,-12.0,-11.0,-9.0
1701961189.679234,-2.0,-5.0,94.0,25.0,-6.0,-6.0,8.0,5.0
1701961189.679234,-19.0,-19.0,33.0,-25.0,-17.0,-9.0,-28.0,-21.0
1701961189.679234,4.0,15.0,69.0,16.0,4.0,-5.0,5.0,2.0
1701961189.699246,0.0,-8.0,2.0,-7.0,-5.0,-21.0,-6.0,-6.0
1701961189.699246,1.0,-2.0,-59.0,-9.0,8.0,65.0,3.0,1.0
1701961189.699246,2.0,6.0,-22.0,-3.0,2.0,-9.0,8.0,-1.0
1701961189.699246,-6.0,-13.0,-52.0,-15.0,-10.0,-38.0,-1.0,-5.0
1701961189.7093987,-1.0,0.0,-22.0,4.0,1.0,24.0,-9.0,0.0
1701961189.7093987,0.0,3.0,16.0,-12.0,-5.0,-21.0,-6.0,-3.0
1701961189.7192464,1.0,-2.0,-59.0,-10.0,-12.0,-87.0,-38.0,-5.0
1701961189.7192464,-9.0,-9.0,15.0,7.0,2.0,95.0,31.0,1.0
1701961189.7296119,8.0,14.0,-8.0,20.0,16.0,27.0,35.0,16.0
1701961189.7296119,-8.0,-14.0,-12.0,-24.0,-9.0,-7.0,-6.0,-9.0
1701961189.7392466,3.0,7.0,1.0,10.0,6.0,22.0,11.0,4.0
1701961189.7392466,-1.0,-5.0,-30.0,-15.0,-11.0,-70.0,-27.0,-3.0
1701961189.7492805,-1.0,2.0,23.0,3.0,2.0,-4.0,0.0,-7.0
1701961189.7492805,-3.0,-11.0,15.0,26.0,1.0,7.0,-9.0,17.0
1701961189.7595062,0.0,7.0,-39.0,-37.0,-11.0,-22.0,-14.0,-23.0
1701961189.7595062,3.0,-5.0,-20.0,-5.0,3.0,23.0,18.0,19.0
1701961189.7692497,-1.0,-6.0,17.0,6.0,-2.0,4.0,-11.0,-39.0
1701961189.7792518,-7.0,-2.0,-8.0,-2.0,0.0,-18.0,-4.0,-6.0
1701961189.7792518,10.0,0.0,-29.0,-22.0,0.0,21.0,14.0,20.0
1701961189.7792518,-7.0,0.0,25.0,31.0,2.0,-10.0,-15.0,-7.0
1701961189.8192456,-4.0,-7.0,-24.0,-36.0,-7.0,-4.0,-4.0,10.0
1701961189.8192456,-4.0,-1.0,32.0,38.0,4.0,-5.0,6.0,-11.0
1701961189.8192456,3.0,7.0,-14.0,-21.0,-4.0,12.0,1.0,-6.0
1701961189.8192456,-2.0,-7.0,-7.0,0.0,1.0,4.0,20.0,14.0
1701961189.8192456,-4.0,-7.0,15.0,13.0,-2.0,-29.0,-21.0,-11.0
1701961189.8192456,-2.0,-1.0,-7.0,-15.0,-6.0,11.0,-5.0,0.0
1701961189.8192456,3.0,1.0,28.0,23.0,11.0,22.0,64.0,34.0
1701961189.8192456,-4.0,3.0,-26.0,-26.0,-10.0,-60.0,-89.0,-40.0
1701961189.8295054,-5.0,-9.0,-18.0,-2.0,-2.0,31.0,28.0,14.0
1701961189.8392544,4.0,6.0,19.0,6.0,7.0,17.0,24.0,-1.0
1701961189.8392544,3.0,3.0,-30.0,-20.0,-10.0,-28.0,10.0,5.0
1701961189.8392544,7.0,2.0,5.0,-2.0,2.0,18.0,-35.0,-4.0
1701961189.8792458,-4.0,-3.0,-6.0,10.0,-4.0,-31.0,-4.0,8.0
1701961189.8792458,3.0,5.0,-22.0,-25.0,-2.0,-2.0,28.0,-4.0
1701961189.8792458,-8.0,11.0,60.0,34.0,8.0,17.0,-34.0,-15.0
1701961189.8792458,-6.0,-17.0,-46.0,-17.0,-14.0,-32.0,-15.0,-12.0
1701961189.8792458,-4.0,-16.0,-17.0,-10.0,-7.0,-25.0,-40.0,0.0
1701961189.8792458,3.0,3.0,-18.0,-8.0,-1.0,37.0,51.0,13.0
1701961189.8792458,-1.0,2.0,35.0,21.0,5.0,15.0,-7.0,-5.0
1701961189.8792458,3.0,8.0,-9.0,-5.0,1.0,17.0,18.0,-2.0
1701961189.8894327,7.0,22.0,20.0,9.0,7.0,-6.0,-3.0,1.0
1701961189.8894327,-26.0,-43.0,-42.0,-21.0,-17.0,-38.0,-31.0,-18.0
1701961189.8992512,8.0,20.0,28.0,14.0,2.0,-3.0,-11.0,-5.0
1701961189.8992512,6.0,4.0,6.0,4.0,7.0,14.0,23.0,12.0
1701961189.9195962,-4.0,4.0,11.0,-3.0,-5.0,13.0,-3.0,-4.0
1701961189.9195962,16.0,49.0,46.0,13.0,7.0,-26.0,-19.0,5.0
1701961189.9195962,-20.0,-44.0,-40.0,-12.0,-10.0,3.0,-31.0,-16.0
1701961189.9195962,-9.0,-28.0,-42.0,-10.0,-4.0,-18.0,17.0,-2.0
1701961189.9292996,6.0,9.0,23.0,4.0,5.0,16.0,29.0,17.0
1701961189.9292996,3.0,8.0,8.0,-2.0,0.0,-3.0,-22.0,-10.0
1701961189.939555,0.0,0.0,-2.0,7.0,4.0,8.0,13.0,3.0
1701961189.939555,-1.0,11.0,43.0,-7.0,-7.0,-4.0,3.0,3.0
1701961189.9495914,-14.0,-62.0,-101.0,-27.0,-12.0,-38.0,-28.0,-14.0
1701961189.9495914,5.0,18.0,60.0,8.0,4.0,57.0,13.0,6.0
1701961189.9592466,0.0,-3.0,-48.0,1.0,-2.0,-6.0,9.0,-1.0
1701961189.9592466,-4.0,-4.0,-46.0,-9.0,-4.0,-15.0,9.0,3.0
1701961189.979627,10.0,20.0,56.0,18.0,10.0,29.0,-6.0,1.0
1701961189.979627,-1.0,-5.0,-56.0,7.0,1.0,-35.0,-8.0,-4.0
1701961189.9892473,3.0,10.0,77.0,15.0,7.0,13.0,10.0,8.0
1701961189.9892473,-2.0,-7.0,-16.0,-3.0,-3.0,7.0,1.0,-7.0
1701961189.9892473,3.0,14.0,-47.0,-1.0,-2.0,-29.0,-19.0,6.0
1701961189.9892473,-8.0,-20.0,-1.0,-14.0,-5.0,11.0,7.0,-16.0
1701961189.9996257,-2.0,10.0,83.0,21.0,-3.0,-23.0,-10.0,4.0
1701961189.9996257,9.0,4.0,-18.0,-3.0,6.0,2.0,-1.0,11.0
1701961190.00957,7.0,22.0,-6.0,-6.0,9.0,48.0,17.0,-20.0
1701961190.00957,-15.0,-31.0,0.0,1.0,-15.0,-52.0,-14.0,0.0
1701961190.0192466,4.0,-6.0,-68.0,-20.0,8.0,66.0,23.0,9.0
1701961190.0192466,-15.0,2.0,32.0,12.0,-6.0,-24.0,-27.0,-42.0
1701961190.0396376,0.0,-5.0,-18.0,-9.0,-10.0,-27.0,-25.0,16.0
1701961190.0396376,-4.0,-16.0,27.0,-3.0,-8.0,-10.0,-20.0,22.0
1701961190.0396376,1.0,13.0,23.0,5.0,11.0,-8.0,11.0,-6.0
1701961190.0396376,10.0,5.0,-54.0,-14.0,9.0,9.0,18.0,16.0
1701961190.0496378,-11.0,-17.0,-29.0,-4.0,-9.0,11.0,23.0,-4.0
1701961190.0496378,8.0,12.0,5.0,-4.0,6.0,6.0,-11.0,-6.0
1701961190.059631,5.0,-1.0,15.0,-6.0,-2.0,-19.0,1.0,17.0
1701961190.059631,-9.0,-1.0,53.0,27.0,-15.0,0.0,-22.0,-31.0
1701961190.069659,31.0,13.0,12.0,-6.0,6.0,9.0,16.0,12.0
1701961190.069659,1.0,13.0,71.0,18.0,0.0,-6.0,9.0,-22.0
1701961190.0792475,-1.0,-3.0,-42.0,-8.0,3.0,8.0,-7.0,34.0
1701961190.0792475,-31.0,-14.0,-6.0,0.0,-3.0,-14.0,9.0,2.0
1701961190.1005,-11.0,12.0,-30.0,-18.0,-3.0,-17.0,-7.0,-8.0
1701961190.1005,0.0,-10.0,-31.0,-7.0,6.0,38.0,16.0,-6.0
1701961190.1022067,-64.0,-19.0,84.0,13.0,-13.0,-59.0,-44.0,-34.0
1701961190.1022067,-6.0,-27.0,-25.0,-7.0,0.0,39.0,20.0,14.0
1701961190.1143703,10.0,15.0,74.0,34.0,2.0,-11.0,-1.0,-9.0
1701961190.1143703,-46.0,-8.0,-43.0,-19.0,-3.0,-9.0,0.0,35.0
1701961190.121763,67.0,29.0,-47.0,-5.0,6.0,24.0,-4.0,-29.0
1701961190.121763,71.0,29.0,15.0,-8.0,1.0,-7.0,-2.0,30.0
1701961190.1317637,-33.0,12.0,31.0,9.0,8.0,26.0,21.0,6.0
1701961190.1317637,-16.0,-7.0,-34.0,-7.0,-8.0,-14.0,-23.0,-20.0
1701961190.1317637,9.0,-18.0,49.0,32.0,4.0,-33.0,7.0,-5.0
1701961190.1317637,-37.0,-25.0,-59.0,-45.0,-10.0,32.0,-32.0,3.0
1701961190.1522102,68.0,1.0,-10.0,-9.0,2.0,12.0,17.0,8.0
1701961190.1522102,32.0,35.0,33.0,25.0,5.0,-13.0,9.0,14.0
1701961190.1617656,-73.0,-19.0,-2.0,4.0,-7.0,-8.0,-24.0,-25.0
1701961190.1617656,14.0,3.0,11.0,-6.0,2.0,-10.0,1.0,-4.0
1701961190.1722088,-31.0,-19.0,-34.0,-23.0,-8.0,-1.0,4.0,5.0
1701961190.1722088,9.0,-16.0,-16.0,-7.0,0.0,2.0,3.0,6.0
1701961190.1820514,35.0,13.0,-19.0,-10.0,-5.0,14.0,74.0,52.0
1701961190.1820514,2.0,8.0,25.0,15.0,8.0,2.0,-25.0,-32.0
1701961190.1917667,-29.0,-3.0,37.0,20.0,0.0,-11.0,-49.0,-30.0
1701961190.1917667,-3.0,-11.0,-38.0,-14.0,-2.0,-5.0,-20.0,-26.0
1701961190.1917667,20.0,1.0,-17.0,-2.0,3.0,14.0,49.0,23.0
1701961190.1917667,-8.0,9.0,13.0,12.0,1.0,-42.0,71.0,92.0
1701961190.2120972,14.0,0.0,-1.0,-15.0,-4.0,48.0,106.0,75.0
1701961190.2120972,2.0,-3.0,-10.0,4.0,4.0,13.0,-101.0,-100.0
1701961190.22177,-25.0,-4.0,-21.0,-20.0,-11.0,-40.0,-27.0,-17.0
1701961190.22177,12.0,0.0,12.0,6.0,4.0,35.0,92.0,47.0
1701961190.2320874,-11.0,-8.0,0.0,1.0,-7.0,-44.0,-9.0,-1.0
1701961190.2320874,4.0,-4.0,-2.0,1.0,0.0,5.0,30.0,41.0
1701961190.241768,1.0,-4.0,-14.0,-8.0,-2.0,18.0,-15.0,-22.0
1701961190.241768,-3.0,13.0,32.0,11.0,2.0,-13.0,-46.0,-21.0
1701961190.2717638,4.0,-13.0,-20.0,1.0,6.0,11.0,39.0,13.0
1701961190.2717638,-5.0,1.0,-2.0,-10.0,-3.0,27.0,40.0,0.0
1701961190.2717638,-5.0,-11.0,-13.0,-2.0,-3.0,-1.0,-69.0,-43.0
1701961190.2717638,-2.0,0.0,-7.0,-6.0,-8.0,-28.0,-60.0,-18.0
1701961190.2717638,-3.0,11.0,22.0,6.0,0.0,-8.0,-29.0,-21.0
1701961190.2717638,5.0,24.0,18.0,-1.0,0.0,-7.0,5.0,13.0
1701961190.2819617,7.0,-27.0,-43.0,-2.0,4.0,4.0,65.0,29.0
1701961190.2819617,-3.0,12.0,24.0,5.0,9.0,55.0,38.0,-10.0
1701961190.2921846,-1.0,25.0,36.0,4.0,-4.0,-8.0,-54.0,-25.0
1701961190.2921846,-12.0,-36.0,-49.0,-12.0,-15.0,-59.0,-43.0,0.0
1701961190.3017654,12.0,36.0,34.0,6.0,4.0,25.0,8.0,13.0
1701961190.3017654,-13.0,-26.0,-24.0,-5.0,-2.0,-8.0,-14.0,-23.0
1701961190.3117645,-7.0,-4.0,-1.0,0.0,5.0,4.0,7.0,-3.0
1701961190.3117645,15.0,17.0,14.0,11.0,4.0,4.0,26.0,19.0
1701961190.3117645,-7.0,-15.0,-14.0,-3.0,-2.0,-6.0,-22.0,-12.0
1701961190.3117645,-7.0,-16.0,-16.0,-7.0,-1.0,-3.0,-18.0,-14.0
1701961190.3320239,2.0,13.0,12.0,7.0,1.0,-18.0,-1.0,6.0
1701961190.3320239,-13.0,-23.0,-73.0,-23.0,-9.0,15.0,8.0,-1.0
1701961190.3417706,-4.0,-9.0,-16.0,-5.0,-4.0,-2.0,-21.0,-4.0
1701961190.3417706,2.0,9.0,44.0,13.0,4.0,-15.0,4.0,-3.0
1701961190.3717635,4.0,12.0,41.0,12.0,3.0,22.0,6.0,4.0
1701961190.3717635,8.0,29.0,-29.0,-1.0,3.0,-7.0,14.0,4.0
1701961190.3717635,-18.0,-56.0,-77.0,-28.0,-10.0,12.0,-30.0,-12.0
1701961190.3717635,5.0,22.0,40.0,5.0,2.0,1.0,6.0,-2.0
1701961190.3717635,-20.0,-38.0,-74.0,-26.0,-16.0,-16.0,-11.0,-21.0
1701961190.3717635,-3.0,-14.0,38.0,-1.0,-9.0,-13.0,-4.0,12.0
1701961190.3717635,19.0,52.0,127.0,39.0,15.0,0.0,2.0,9.0
1701961190.3717635,-11.0,-28.0,-96.0,-38.0,-24.0,-54.0,-23.0,-14.0
1701961190.3922105,6.0,3.0,45.0,27.0,18.0,56.0,10.0,4.0
1701961190.3922105,9.0,16.0,9.0,9.0,4.0,12.0,16.0,6.0
1701961190.4017787,-14.0,-16.0,-35.0,-44.0,-8.0,28.0,7.0,-5.0
1701961190.4017787,14.0,26.0,76.0,22.0,15.0,6.0,7.0,6.0
1701961190.4217632,-16.0,-35.0,3.0,-2.0,-17.0,-70.0,-24.0,-13.0
1701961190.4217632,2.0,22.0,57.0,2.0,2.0,26.0,1.0,-1.0
1701961190.4217632,6.0,1.0,-83.0,1.0,0.0,-21.0,2.0,6.0
1701961190.4217632,-3.0,3.0,19.0,15.0,3.0,23.0,-1.0,-7.0
1701961190.4320362,3.0,13.0,21.0,-9.0,-2.0,-30.0,-14.0,1.0
1701961190.4320362,-13.0,-40.0,-35.0,-14.0,-4.0,-8.0,-3.0,-10.0
1701961190.442024,5.0,32.0,114.0,18.0,2.0,-23.0,0.0,1.0
1701961190.442024,0.0,-27.0,-117.0,-20.0,7.0,43.0,41.0,9.0
1701961190.4520519,-4.0,-3.0,14.0,3.0,-10.0,-10.0,-26.0,-8.0
1701961190.4617705,-6.0,-6.0,43.0,4.0,-3.0,-14.0,-15.0,-6.0
1701961190.4617705,16.0,45.0,86.0,17.0,14.0,-4.0,9.0,8.0
1701961190.4617705,-21.0,-47.0,-37.0,-7.0,-16.0,-37.0,-25.0,-16.0
1701961190.4917645,9.0,13.0,0.0,0.0,12.0,53.0,38.0,14.0
1701961190.4917645,12.0,3.0,-71.0,-10.0,16.0,44.0,15.0,10.0
1701961190.5017622,-26.0,-13.0,79.0,29.0,-31.0,-36.0,-31.0,-23.0
1701961190.5017622,19.0,51.0,87.0,14.0,16.0,19.0,3.0,11.0
1701961190.5017622,-22.0,-77.0,-128.0,-52.0,-20.0,-37.0,-19.0,-15.0
1701961190.5017622,4.0,28.0,117.0,46.0,10.0,-12.0,1.0,3.0
1701961190.5017622,-2.0,-12.0,-77.0,-16.0,-5.0,2.0,-9.0,-1.0
1701961190.5017622,2.0,-4.0,8.0,3.0,7.0,30.0,23.0,1.0
1701961190.5120804,1.0,13.0,10.0,-12.0,-1.0,12.0,-2.0,0.0
1701961190.5120804,8.0,3.0,-14.0,1.0,14.0,-16.0,5.0,8.0
1701961190.5217645,-12.0,-31.0,-71.0,-1.0,-14.0,-12.0,5.0,-9.0
1701961190.5217645,-2.0,12.0,59.0,-10.0,-6.0,-9.0,-31.0,-4.0
1701961190.5417633,4.0,4.0,0.0,9.0,11.0,39.0,24.0,3.0
1701961190.5417633,2.0,-35.0,-49.0,-22.0,5.0,19.0,24.0,9.0
1701961190.5417633,3.0,16.0,2.0,11.0,10.0,26.0,13.0,-1.0
1701961190.5417633,-1.0,3.0,2.0,-10.0,-1.0,-13.0,-7.0,-3.0
1701961190.552168,-4.0,13.0,51.0,17.0,-14.0,-45.0,-27.0,-8.0
1701961190.552168,-10.0,6.0,21.0,6.0,-5.0,-16.0,-13.0,-13.0
1701961190.5621364,7.0,-13.0,-46.0,-27.0,3.0,4.0,-5.0,10.0
1701961190.5621364,-7.0,-20.0,-98.0,-36.0,-6.0,-5.0,-1.0,-3.0
1701961190.5720856,12.0,32.0,44.0,40.0,18.0,16.0,11.0,7.0
1701961190.5720856,-9.0,-5.0,89.0,44.0,-9.0,-20.0,-9.0,-12.0
1701961190.5817804,1.0,-9.0,-76.0,-59.0,-6.0,1.0,-5.0,-4.0
1701961190.5817804,7.0,16.0,-51.0,-6.0,5.0,20.0,13.0,10.0
1701961190.5917647,29.0,12.0,4.0,30.0,5.0,-10.0,1.0,2.0
1701961190.5917647,27.0,22.0,9.0,-34.0,-16.0,-7.0,-12.0,5.0
1701961190.6021864,-10.0,2.0,-3.0,-10.0,6.0,16.0,11.0,3.0
1701961190.6021864,-12.0,-20.0,54.0,63.0,6.0,-14.0,2.0,-21.0
1701961190.6328602,-57.0,-25.0,-92.0,-73.0,-12.0,13.0,-5.0,-30.0
1701961190.6328602,-51.0,-49.0,-16.0,16.0,-7.0,-16.0,-18.0,-6.0
1701961190.634063,25.0,3.0,15.0,-21.0,5.0,6.0,2.0,13.0
1701961190.634063,1.0,26.0,-10.0,-1.0,-7.0,-9.0,-1.0,-1.0
1701961190.639169,6.0,-31.0,40.0,29.0,3.0,-10.0,4.0,32.0
1701961190.639169,86.0,58.0,-40.0,-28.0,-8.0,2.0,15.0,24.0
1701961190.639169,-7.0,2.0,-7.0,-2.0,4.0,10.0,36.0,32.0
1701961190.639169,-54.0,29.0,46.0,8.0,-7.0,-20.0,-85.0,-79.0
1701961190.6493087,-7.0,-55.0,23.0,5.0,-3.0,-1.0,9.0,-12.0
1701961190.6493087,-45.0,-16.0,5.0,-15.0,-3.0,21.0,1.0,32.0
1701961190.6593926,-3.0,-6.0,2.0,25.0,7.0,7.0,87.0,46.0
1701961190.6593926,59.0,12.0,-12.0,-29.0,-16.0,-17.0,-62.0,10.0
1701961190.669448,-51.0,4.0,-12.0,-7.0,4.0,-19.0,-24.0,-45.0
1701961190.669448,-15.0,-49.0,-5.0,7.0,1.0,-7.0,39.0,42.0
1701961190.6791875,54.0,24.0,7.0,15.0,7.0,19.0,-11.0,10.0
1701961190.6791875,18.0,16.0,47.0,42.0,-1.0,-7.0,1.0,-4.0
1701961190.7195528,14.0,29.0,-10.0,-33.0,-6.0,-2.0,9.0,30.0
1701961190.7195528,2.0,11.0,0.0,7.0,5.0,2.0,16.0,-14.0
1701961190.7195528,-41.0,-23.0,-12.0,-8.0,-15.0,-13.0,32.0,14.0
1701961190.7195528,21.0,-14.0,15.0,4.0,2.0,5.0,-20.0,6.0
1701961190.7195528,28.0,21.0,-13.0,1.0,-4.0,-7.0,-36.0,-21.0
1701961190.7195528,-76.0,-9.0,0.0,-11.0,-2.0,-3.0,2.0,-34.0
1701961190.7195528,43.0,-14.0,-9.0,-4.0,-8.0,-8.0,6.0,22.0
1701961190.7195528,-35.0,-4.0,-10.0,-6.0,0.0,5.0,3.0,-11.0
1701961190.7295582,-11.0,-17.0,25.0,18.0,-1.0,2.0,-14.0,-3.0
1701961190.7295582,18.0,9.0,-39.0,-41.0,-3.0,-5.0,-22.0,-25.0
1701961190.7397108,-18.0,-13.0,6.0,8.0,3.0,2.0,-35.0,-35.0
1701961190.7397108,29.0,-3.0,-5.0,-7.0,-1.0,10.0,57.0,37.0
1701961190.7695496,24.0,46.0,18.0,5.0,-5.0,-6.0,14.0,24.0
1701961190.7695496,-16.0,-13.0,6.0,13.0,5.0,0.0,-25.0,-19.0
1701961190.7695496,14.0,12.0,-4.0,-13.0,-19.0,-25.0,-38.0,-23.0
1701961190.7695496,-13.0,-5.0,15.0,-4.0,1.0,4.0,23.0,14.0
1701961190.7797852,-13.0,-17.0,-15.0,-7.0,0.0,7.0,3.0,0.0
1701961190.7797852,22.0,27.0,-1.0,1.0,-4.0,-2.0,-6.0,-6.0
1701961190.7797852,0.0,16.0,6.0,-4.0,-15.0,-23.0,-16.0,-18.0
1701961190.7797852,-20.0,-21.0,-3.0,-1.0,4.0,6.0,20.0,7.0
1701961190.7897716,9.0,15.0,3.0,4.0,-6.0,-13.0,-21.0,-12.0
1701961190.7897716,23.0,9.0,-16.0,-14.0,5.0,23.0,-22.0,-10.0
1701961190.819554,-33.0,-9.0,17.0,7.0,2.0,-2.0,-30.0,-28.0
1701961190.819554,-2.0,-4.0,-10.0,-1.0,-6.0,-9.0,11.0,-1.0
1701961190.819554,-2.0,-34.0,-48.0,-36.0,16.0,55.0,50.0,16.0
1701961190.819554,-2.0,-5.0,-12.0,-12.0,-13.0,-12.0,-4.0,-5.0
1701961190.819554,-12.0,6.0,30.0,24.0,6.0,-9.0,-15.0,-10.0
1701961190.819554,-25.0,-35.0,-17.0,-18.0,11.0,25.0,18.0,-4.0
1701961190.8399324,26.0,40.0,19.0,7.0,-8.0,-19.0,-5.0,-5.0
1701961190.8399324,-25.0,-36.0,-34.0,-11.0,-4.0,-2.0,1.0,4.0
1701961190.8399324,-5.0,4.0,16.0,21.0,3.0,-19.0,-21.0,-11.0
1701961190.8399324,-6.0,-34.0,-38.0,-13.0,16.0,27.0,19.0,11.0
1701961190.849553,0.0,1.0,-22.0,5.0,-3.0,-15.0,3.0,17.0
1701961190.849553,5.0,-8.0,23.0,2.0,4.0,4.0,-5.0,-6.0
1701961190.8695524,-9.0,-2.0,-60.0,-19.0,0.0,5.0,2.0,-13.0
1701961190.8695524,6.0,-7.0,14.0,-8.0,-17.0,-11.0,-9.0,11.0
1701961190.8799045,-15.0,-25.0,25.0,10.0,3.0,4.0,9.0,5.0
1701961190.8799045,23.0,46.0,48.0,44.0,2.0,-23.0,-1.0,17.0
1701961190.8799045,-29.0,-53.0,-34.0,-19.0,7.0,16.0,-9.0,-20.0
1701961190.8799045,-3.0,9.0,-31.0,-11.0,-3.0,-4.0,8.0,-12.0
1701961190.8999062,32.0,55.0,18.0,33.0,8.0,-16.0,-4.0,24.0
1701961190.8999062,-26.0,-57.0,-33.0,-4.0,1.0,6.0,2.0,-20.0
1701961190.8999062,8.0,30.0,93.0,39.0,-4.0,-10.0,-14.0,6.0
1701961190.8999062,3.0,0.0,-24.0,-10.0,-2.0,0.0,7.0,12.0
1701961190.9098947,-7.0,-15.0,-63.0,-10.0,1.0,-3.0,-4.0,-4.0
1701961190.9098947,8.0,18.0,-69.0,-35.0,-16.0,-3.0,-1.0,-7.0
1701961190.9295516,-27.0,-23.0,-5.0,-24.0,-8.0,0.0,4.0,-2.0
1701961190.9295516,3.0,-26.0,-3.0,13.0,-8.0,-8.0,-17.0,-2.0
1701961190.9398737,14.0,63.0,61.0,-8.0,2.0,-1.0,-5.0,-8.0
1701961190.9398737,30.0,92.0,127.0,43.0,25.0,19.0,18.0,21.0
1701961190.9398737,-26.0,-82.0,-101.0,-17.0,-16.0,-1.0,-9.0,-22.0
1701961190.9398737,-17.0,-57.0,-52.0,-40.0,-20.0,-25.0,-12.0,9.0
1701961190.9599476,1.0,-15.0,-53.0,-50.0,-5.0,22.0,6.0,-27.0
1701961190.9599476,-1.0,18.0,81.0,22.0,9.0,3.0,7.0,3.0
1701961190.9599476,18.0,29.0,42.0,21.0,6.0,0.0,-12.0,30.0
1701961190.9599476,-5.0,-11.0,31.0,35.0,-4.0,-22.0,-11.0,-18.0
1701961190.9695523,-19.0,-55.0,-29.0,-16.0,15.0,22.0,11.0,7.0
1701961190.9695523,-2.0,19.0,24.0,-17.0,-4.0,-10.0,12.0,10.0
1701961190.9795856,43.0,77.0,-39.0,17.0,14.0,20.0,-2.0,-8.0
1701961190.9795856,-21.0,-56.0,13.0,22.0,-9.0,-16.0,-3.0,0.0
1701961190.9999533,-3.0,18.0,-38.0,-10.0,-14.0,-65.0,-23.0,-6.0
1701961190.9999533,18.0,5.0,26.0,28.0,19.0,78.0,20.0,8.0
1701961190.9999533,9.0,43.0,77.0,0.0,3.0,-5.0,5.0,6.0
1701961190.9999533,17.0,22.0,0.0,25.0,26.0,20.0,16.0,9.0
1701961191.0197363,-1.0,8.0,61.0,26.0,-12.0,-20.0,-5.0,-2.0
1701961191.0197363,-9.0,-25.0,-82.0,-26.0,3.0,-19.0,-16.0,-19.0
1701961191.0197363,-3.0,-1.0,28.0,11.0,0.0,-5.0,-1.0,-2.0
1701961191.0197363,-4.0,51.0,69.0,10.0,-10.0,4.0,-2.0,-18.0
1701961191.029867,-4.0,4.0,96.0,35.0,6.0,-3.0,3.0,9.0
1701961191.029867,-6.0,-43.0,-65.0,-26.0,-14.0,-29.0,-26.0,-10.0
1701961191.04955,-7.0,-6.0,23.0,-17.0,7.0,34.0,18.0,-2.0
1701961191.04955,5.0,18.0,-4.0,-21.0,-4.0,-18.0,-11.0,-7.0
1701961191.0597618,27.0,73.0,36.0,4.0,15.0,30.0,19.0,21.0
1701961191.0597618,-33.0,-46.0,32.0,-4.0,-20.0,-14.0,-13.0,0.0
1701961191.0597618,2.0,12.0,9.0,-26.0,-7.0,-3.0,8.0,11.0
1701961191.0597618,-4.0,13.0,-6.0,-6.0,3.0,3.0,-8.0,-21.0
1701961191.0798435,-2.0,-13.0,-17.0,7.0,-5.0,-13.0,-2.0,4.0
1701961191.0798435,8.0,10.0,-38.0,-2.0,-2.0,16.0,8.0,-5.0
1701961191.0798435,13.0,-27.0,-32.0,-5.0,1.0,-7.0,-1.0,3.0
1701961191.0798435,13.0,60.0,46.0,22.0,3.0,3.0,8.0,9.0
1701961191.1095498,-21.0,-33.0,-54.0,-34.0,-13.0,3.0,-11.0,-17.0
1701961191.1095498,19.0,-7.0,-24.0,-4.0,-2.0,-20.0,-14.0,-7.0
1701961191.1095498,43.0,12.0,-2.0,11.0,2.0,-2.0,4.0,9.0
1701961191.1095498,-64.0,27.0,27.0,0.0,1.0,1.0,11.0,17.0
1701961191.1198568,-24.0,-81.0,-16.0,-2.0,-8.0,2.0,-26.0,-29.0
1701961191.1198568,67.0,44.0,0.0,14.0,-1.0,-21.0,-4.0,-25.0
1701961191.1198568,29.0,3.0,15.0,23.0,18.0,25.0,69.0,86.0
1701961191.1198568,22.0,-17.0,-10.0,-13.0,6.0,4.0,-77.0,-50.0
1701961191.139954,-49.0,-57.0,-2.0,1.0,-7.0,-18.0,-94.0,-55.0
1701961191.139954,-15.0,-27.0,-36.0,-8.0,-18.0,-22.0,-3.0,-23.0
1701961191.139954,-13.0,20.0,7.0,-4.0,-6.0,-13.0,13.0,-13.0
1701961191.139954,79.0,37.0,2.0,4.0,1.0,6.0,48.0,27.0
1701961191.1663437,14.0,8.0,5.0,-6.0,5.0,26.0,59.0,59.0
1701961191.1663437,3.0,4.0,-3.0,7.0,10.0,8.0,-31.0,13.0
1701961191.16734,-13.0,-2.0,14.0,15.0,6.0,-3.0,-13.0,-53.0
1701961191.16734,-31.0,-23.0,-26.0,-18.0,-5.0,-2.0,47.0,5.0
1701961191.1805387,5.0,16.0,71.0,36.0,12.0,11.0,-13.0,1.0
1701961191.1805387,-14.0,-13.0,-66.0,-36.0,-4.0,-4.0,-15.0,10.0
1701961191.1805387,-20.0,-12.0,14.0,10.0,-10.0,-28.0,-35.0,-7.0
1701961191.1805387,-35.0,-43.0,-14.0,-7.0,1.0,8.0,-25.0,-55.0
1701961191.2105384,9.0,-1.0,-23.0,-16.0,-13.0,-8.0,34.0,16.0
1701961191.2105384,-5.0,4.0,41.0,17.0,4.0,9.0,55.0,28.0
1701961191.2105384,-12.0,-10.0,-50.0,-29.0,-2.0,14.0,-29.0,-23.0
1701961191.2105384,16.0,5.0,-10.0,-8.0,-1.0,-2.0,-1.0,13.0
1701961191.220534,26.0,20.0,-14.0,9.0,2.0,4.0,28.0,13.0
1701961191.220534,-32.0,-44.0,-10.0,-5.0,4.0,6.0,-11.0,2.0
1701961191.220534,-15.0,-1.0,15.0,6.0,-3.0,-15.0,-44.0,-48.0
1701961191.220534,27.0,18.0,14.0,13.0,6.0,5.0,17.0,35.0
1701961191.2406042,-3.0,15.0,-14.0,-22.0,-16.0,-12.0,-6.0,-13.0
1701961191.2406042,-16.0,-14.0,-9.0,-1.0,-3.0,-3.0,15.0,10.0
1701961191.2406042,5.0,4.0,16.0,16.0,4.0,-1.0,-12.0,9.0
1701961191.2406042,-9.0,-11.0,-15.0,-15.0,-6.0,-3.0,-20.0,-28.0
1701961191.2705355,12.0,35.0,34.0,31.0,3.0,-14.0,-6.0,2.0
1701961191.2705355,-16.0,-30.0,-4.0,2.0,17.0,19.0,7.0,-10.0
1701961191.2705355,3.0,-25.0,-18.0,-13.0,1.0,11.0,41.0,25.0
1701961191.2705355,-9.0,-11.0,-20.0,-6.0,-4.0,0.0,-6.0,3.0
1701961191.2705355,2.0,18.0,11.0,2.0,0.0,-11.0,-85.0,-37.0
1701961191.2705355,6.0,31.0,20.0,2.0,-6.0,-5.0,18.0,5.0
1701961191.2805705,18.0,43.0,36.0,37.0,4.0,-14.0,4.0,7.0
1701961191.2805705,-18.0,-22.0,-7.0,-7.0,-2.0,1.0,-4.0,7.0
1701961191.3007138,2.0,-14.0,-20.0,-7.0,-1.0,10.0,36.0,9.0
1701961191.3007138,8.0,26.0,23.0,3.0,-1.0,-2.0,-15.0,0.0
1701961191.3007138,-44.0,-99.0,-75.0,-39.0,-17.0,-7.0,3.0,-19.0
1701961191.3007138,21.0,48.0,45.0,23.0,-1.0,-22.0,-21.0,10.0
1701961191.3205361,-8.0,-16.0,-43.0,-37.0,-2.0,17.0,5.0,-1.0
1701961191.3205361,4.0,25.0,30.0,7.0,-1.0,-2.0,-12.0,-2.0
1701961191.3205361,20.0,67.0,56.0,10.0,-2.0,1.0,4.0,-3.0
1701961191.3205361,-15.0,-43.0,-91.0,-8.0,-1.0,-2.0,6.0,0.0
1701961191.3307462,3.0,-50.0,-17.0,-1.0,7.0,9.0,-2.0,5.0
1701961191.3307462,-10.0,17.0,-2.0,-19.0,-14.0,-12.0,-3.0,-15.0
1701961191.3407516,-4.0,4.0,-16.0,-18.0,-4.0,6.0,-4.0,-15.0
1701961191.3407516,10.0,-4.0,-10.0,-8.0,-3.0,-3.0,6.0,26.0
1701961191.360599,12.0,46.0,44.0,8.0,8.0,18.0,16.0,3.0
1701961191.360599,-11.0,-55.0,-84.0,-20.0,-11.0,37.0,11.0,-7.0
1701961191.360599,-10.0,-38.0,1.0,-1.0,-4.0,-16.0,-10.0,1.0
1701961191.360599,-9.0,-40.0,-63.0,-34.0,8.0,31.0,7.0,-2.0
1701961191.3806965,12.0,74.0,77.0,29.0,5.0,-9.0,9.0,1.0
1701961191.3806965,-6.0,-89.0,-68.0,-11.0,-1.0,-40.0,-8.0,-7.0
1701961191.3806965,-10.0,57.0,89.0,-5.0,3.0,-11.0,-36.0,-7.0
1701961191.3806965,17.0,25.0,19.0,24.0,12.0,76.0,43.0,1.0
1701961191.4105346,-2.0,-12.0,11.0,7.0,-1.0,-25.0,-11.0,-17.0
1701961191.4105346,12.0,23.0,63.0,31.0,10.0,0.0,4.0,7.0
1701961191.4105346,-12.0,-97.0,-125.0,-38.0,-7.0,16.0,-4.0,-10.0
1701961191.4105346,6.0,79.0,109.0,18.0,-6.0,-43.0,3.0,6.0
1701961191.4205346,3.0,-41.0,-30.0,-1.0,6.0,30.0,-5.0,2.0
1701961191.4205346,-15.0,-39.0,-26.0,-9.0,-13.0,-48.0,-12.0,4.0
1701961191.4205346,11.0,-16.0,-29.0,1.0,3.0,-3.0,-4.0,-12.0
1701961191.4205346,2.0,13.0,18.0,-1.0,12.0,48.0,16.0,8.0
1701961191.4405363,0.0,31.0,34.0,9.0,2.0,-2.0,15.0,3.0
1701961191.4405363,8.0,-16.0,14.0,10.0,1.0,-36.0,-22.0,-21.0
1701961191.4405363,-8.0,-5.0,-48.0,-11.0,-9.0,-74.0,14.0,15.0
1701961191.4405363,-10.0,7.0,118.0,7.0,-1.0,76.0,-26.0,-14.0
1701961191.450719,3.0,6.0,-20.0,-1.0,2.0,-37.0,26.0,9.0
1701961191.450719,-2.0,30.0,7.0,-11.0,-15.0,32.0,-12.0,1.0
1701961191.460809,4.0,-4.0,-34.0,7.0,10.0,14.0,20.0,10.0
1701961191.460809,4.0,12.0,47.0,12.0,-6.0,-74.0,-23.0,-10.0
1701961191.4905357,-4.0,-8.0,-59.0,-5.0,-6.0,-1.0,-16.0,-11.0
1701961191.4905357,7.0,58.0,97.0,22.0,6.0,1.0,9.0,0.0
1701961191.4905357,-4.0,4.0,-25.0,-13.0,0.0,18.0,-3.0,11.0
1701961191.4905357,0.0,17.0,-28.0,-6.0,-8.0,-47.0,-19.0,-6.0
1701961191.5005682,-1.0,-13.0,-49.0,-9.0,1.0,40.0,-4.0,-20.0
1701961191.5005682,13.0,33.0,92.0,41.0,16.0,22.0,29.0,28.0
1701961191.5005682,10.0,30.0,6.0,-11.0,-6.0,6.0,-1.0,5.0
1701961191.5005682,-1.0,-7.0,45.0,18.0,-13.0,-49.0,-23.0,-47.0
1701961191.5108905,-24.0,-44.0,-79.0,-84.0,-26.0,18.0,8.0,10.0
1701961191.5108905,-7.0,18.0,127.0,34.0,-3.0,-29.0,-16.0,-22.0
1701961191.520833,22.0,37.0,-1.0,6.0,14.0,21.0,15.0,33.0
1701961191.520833,-14.0,-28.0,-54.0,3.0,-9.0,-9.0,-3.0,-4.0
1701961191.540536,-23.0,-47.0,-36.0,4.0,1.0,-4.0,4.0,-9.0
1701961191.540536,-4.0,-1.0,-34.0,-30.0,5.0,20.0,-4.0,0.0
1701961191.540536,-7.0,-10.0,86.0,16.0,-9.0,-30.0,-27.0,2.0
1701961191.540536,4.0,15.0,-73.0,-15.0,-5.0,-20.0,-7.0,4.0
1701961191.5609133,15.0,3.0,-43.0,-3.0,11.0,27.0,38.0,36.0
1701961191.5609133,-4.0,-18.0,-37.0,-6.0,8.0,77.0,18.0,-14.0
1701961191.5609133,-10.0,19.0,113.0,42.0,-10.0,-22.0,-10.0,2.0
1701961191.5609133,16.0,-27.0,-96.0,-50.0,14.0,14.0,16.0,8.0
1701961191.5708785,-3.0,23.0,118.0,73.0,-3.0,-23.0,-8.0,23.0
1701961191.5708785,44.0,16.0,-95.0,-50.0,-8.0,-43.0,-15.0,-10.0
1701961191.5905354,24.0,9.0,5.0,1.0,6.0,53.0,-10.0,-26.0
1701961191.5905354,-85.0,-22.0,-31.0,5.0,-5.0,-17.0,12.0,12.0
1701961191.6005986,25.0,-53.0,-62.0,-43.0,-8.0,-9.0,-17.0,-7.0
1701961191.6005986,67.0,60.0,77.0,46.0,3.0,-17.0,-7.0,11.0
1701961191.6005986,-89.0,-77.0,-123.0,-45.0,-16.0,-9.0,-20.0,-41.0
1701961191.6005986,-1.0,-24.0,57.0,-12.0,-14.0,-17.0,-10.0,-11.0
1701961191.6208346,-69.0,-21.0,72.0,11.0,-4.0,-10.0,-6.0,-30.0
1701961191.6208346,-21.0,9.0,-15.0,24.0,-10.0,-29.0,-24.0,12.0
1701961191.6208346,127.0,29.0,12.0,0.0,15.0,20.0,13.0,3.0
1701961191.6208346,48.0,39.0,47.0,14.0,9.0,19.0,23.0,55.0
1701961191.6307795,-73.0,10.0,-20.0,-22.0,-2.0,-5.0,0.0,-51.0
1701961191.6307795,-15.0,-7.0,-5.0,-2.0,-3.0,-11.0,-7.0,-11.0
1701961191.6605358,11.0,39.0,36.0,16.0,6.0,20.0,16.0,18.0
1701961191.6605358,40.0,-47.0,-62.0,-2.0,-7.0,-3.0,-2.0,8.0
1701961191.6605358,-24.0,38.0,46.0,9.0,3.0,-9.0,-6.0,-7.0
1701961191.6605358,-12.0,-26.0,-11.0,3.0,-9.0,-20.0,12.0,20.0
1701961191.6605358,-75.0,-31.0,24.0,-4.0,1.0,-1.0,3.0,-21.0
1701961191.6605358,114.0,20.0,-13.0,-7.0,0.0,4.0,-24.0,-15.0
1701961191.6828637,-3.0,18.0,56.0,10.0,5.0,3.0,-1.0,25.0
1701961191.6828637,-17.0,-10.0,-73.0,-23.0,-10.0,1.0,9.0,-18.0
1701961191.6838737,45.0,0.0,-16.0,-4.0,0.0,-2.0,-19.0,-9.0
1701961191.6848772,-79.0,-1.0,52.0,32.0,11.0,2.0,-26.0,-23.0
1701961191.695874,27.0,-7.0,-34.0,-13.0,-3.0,-3.0,-8.0,-17.0
1701961191.6968741,-4.0,3.0,19.0,2.0,10.0,20.0,34.0,38.0
1701961191.7033043,30.0,8.0,-5.0,3.0,-2.0,4.0,-7.0,-3.0
1701961191.7033043,-14.0,5.0,-6.0,2.0,-1.0,-10.0,30.0,28.0
1701961191.7133405,-9.0,-8.0,30.0,17.0,1.0,-7.0,-40.0,-34.0
1701961191.7133405,-20.0,-23.0,-15.0,-2.0,2.0,9.0,-2.0,-10.0
1701961191.7235048,-5.0,-2.0,-56.0,-25.0,-4.0,-1.0,28.0,48.0
1701961191.7235048,-15.0,11.0,36.0,11.0,-9.0,-22.0,-77.0,-52.0
1701961191.7433112,21.0,-12.0,-4.0,3.0,3.0,0.0,32.0,19.0
1701961191.7433112,8.0,-4.0,-43.0,-26.0,-7.0,7.0,10.0,9.0
1701961191.7433112,-25.0,-8.0,53.0,24.0,2.0,3.0,51.0,18.0
1701961191.7433112,-8.0,-16.0,-41.0,-35.0,2.0,24.0,43.0,3.0
1701961191.7633064,13.0,-11.0,0.0,6.0,-6.0,-23.0,-104.0,-35.0
1701961191.7633064,-11.0,-2.0,-22.0,-14.0,-8.0,-22.0,-28.0,-8.0
1701961191.7633064,-17.0,-1.0,-4.0,0.0,1.0,13.0,22.0,12.0
1701961191.7633064,-6.0,-4.0,12.0,4.0,-2.0,-1.0,41.0,7.0
1701961191.7733052,26.0,0.0,4.0,8.0,2.0,4.0,26.0,14.0
1701961191.7733052,-4.0,-2.0,-5.0,-13.0,2.0,-2.0,-1.0,12.0
1701961191.7836308,-15.0,15.0,7.0,3.0,-12.0,-20.0,-36.0,-12.0
1701961191.7836308,5.0,-5.0,-10.0,5.0,4.0,12.0,0.0,-10.0
1701961191.8033078,6.0,-21.0,-20.0,-7.0,-3.0,13.0,73.0,27.0
1701961191.8033078,1.0,16.0,10.0,3.0,5.0,-3.0,-78.0,-29.0
1701961191.8033078,-7.0,4.0,14.0,-2.0,-3.0,-27.0,11.0,1.0
1701961191.8033078,-5.0,-8.0,-15.0,-7.0,-4.0,11.0,5.0,7.0
1701961191.8236456,6.0,-18.0,-23.0,-5.0,5.0,12.0,-4.0,6.0
1701961191.8236456,5.0,5.0,8.0,-1.0,3.0,1.0,34.0,6.0
1701961191.8236456,-12.0,-24.0,-29.0,-11.0,-11.0,-22.0,-59.0,-31.0
1701961191.8236456,-1.0,32.0,20.0,6.0,-3.0,-8.0,1.0,5.0
1701961191.8336568,15.0,4.0,0.0,5.0,4.0,6.0,8.0,12.0
1701961191.8336568,-15.0,-35.0,-9.0,-9.0,-4.0,8.0,26.0,4.0
1701961191.843622,-3.0,22.0,1.0,7.0,2.0,-7.0,-19.0,-17.0
1701961191.843622,-4.0,7.0,3.0,2.0,-3.0,-43.0,-15.0,2.0
1701961191.8533065,-6.0,-68.0,-70.0,-26.0,-13.0,21.0,11.0,24.0
1701961191.863311,12.0,55.0,88.0,16.0,5.0,17.0,-15.0,-22.0
1701961191.863311,-23.0,-60.0,-103.0,-27.0,-9.0,-24.0,-3.0,-15.0
1701961191.863311,18.0,60.0,87.0,21.0,2.0,22.0,6.0,17.0
1701961191.883647,2.0,4.0,-34.0,-8.0,-3.0,-25.0,0.0,8.0
1701961191.883647,-11.0,-17.0,-23.0,-17.0,-7.0,-16.0,-9.0,-5.0
1701961191.883647,-3.0,31.0,48.0,1.0,2.0,24.0,2.0,-4.0
1701961191.883647,-9.0,-71.0,-81.0,-6.0,-2.0,-31.0,-3.0,-1.0
1701961191.893663,36.0,89.0,66.0,6.0,-10.0,-2.0,-11.0,-2.0
1701961191.893663,-14.0,-10.0,-2.0,-3.0,3.0,6.0,15.0,10.0
1701961191.9036238,22.0,62.0,85.0,33.0,14.0,23.0,17.0,9.0
1701961191.9036238,-21.0,-70.0,-65.0,-28.0,-12.0,-2.0,-19.0,-17.0
1701961191.9136643,-3.0,11.0,27.0,2.0,-13.0,-44.0,5.0,-6.0
1701961191.9136643,6.0,12.0,-4.0,10.0,2.0,33.0,-21.0,-2.0
1701961191.9333067,10.0,7.0,-24.0,9.0,12.0,-18.0,20.0,-5.0
1701961191.9333067,-19.0,-42.0,-60.0,-39.0,-14.0,4.0,-9.0,28.0
1701961191.943612,-15.0,-72.0,-26.0,-8.0,-1.0,45.0,4.0,-10.0
1701961191.943612,8.0,36.0,69.0,23.0,8.0,-32.0,4.0,-6.0
1701961191.943612,-21.0,-36.0,-58.0,-31.0,-17.0,7.0,-15.0,-16.0
1701961191.943612,26.0,46.0,101.0,43.0,12.0,-51.0,3.0,-1.0
1701961191.9536173,9.0,67.0,64.0,13.0,2.0,11.0,-11.0,3.0
1701961191.9536173,-39.0,-98.0,-86.0,-49.0,-16.0,-12.0,-30.0,-31.0
1701961191.963602,16.0,-42.0,-33.0,8.0,17.0,50.0,30.0,36.0
1701961191.963602,-5.0,16.0,28.0,0.0,0.0,-7.0,8.0,-13.0
1701961191.9833066,6.0,36.0,78.0,11.0,-1.0,-22.0,-20.0,20.0
1701961191.9833066,-7.0,-54.0,-58.0,-25.0,-17.0,-24.0,-5.0,-21.0
1701961191.9833066,-8.0,9.0,97.0,13.0,5.0,19.0,-9.0,0.0
1701961191.9833066,-9.0,-33.0,-35.0,-18.0,-9.0,-1.0,-2.0,-13.0
1701961192.0037022,-4.0,-1.0,7.0,-3.0,-1.0,-3.0,7.0,-4.0
1701961192.0037022,7.0,17.0,14.0,18.0,2.0,18.0,31.0,12.0
1701961192.0037022,-17.0,-6.0,-45.0,-18.0,-18.0,-61.0,-49.0,-25.0
1701961192.0037022,10.0,-19.0,-31.0,9.0,24.0,70.0,11.0,10.0
1701961192.0135489,17.0,22.0,82.0,30.0,16.0,-42.0,-2.0,12.0
1701961192.0135489,-2.0,1.0,38.0,-13.0,-3.0,6.0,15.0,19.0
1701961192.0236301,-4.0,-12.0,-35.0,-5.0,-8.0,39.0,0.0,-1.0
1701961192.0236301,1.0,52.0,66.0,13.0,-6.0,-49.0,-16.0,-9.0
1701961192.0333068,-11.0,-23.0,7.0,-8.0,6.0,46.0,9.0,-9.0
1701961192.0333068,10.0,4.0,-44.0,4.0,8.0,-28.0,4.0,19.0
1701961192.0433056,-4.0,-17.0,49.0,3.0,-3.0,8.0,9.0,-6.0
1701961192.0433056,13.0,28.0,50.0,16.0,10.0,23.0,5.0,7.0
1701961192.0636954,-13.0,-15.0,-52.0,-26.0,-23.0,-99.0,-43.0,-18.0
1701961192.0636954,7.0,3.0,-1.0,15.0,16.0,115.0,49.0,4.0
1701961192.0636954,-1.0,17.0,45.0,2.0,-10.0,-84.0,-35.0,-9.0
1701961192.0636954,-7.0,-29.0,-60.0,-6.0,6.0,74.0,27.0,-10.0
1701961192.073661,9.0,16.0,0.0,12.0,10.0,-32.0,12.0,12.0
1701961192.073661,4.0,19.0,36.0,7.0,-1.0,-50.0,-35.0,-7.0
1701961192.0835998,1.0,-9.0,-2.0,4.0,1.0,53.0,18.0,2.0
1701961192.0835998,-2.0,4.0,-79.0,-37.0,-1.0,15.0,20.0,11.0
1701961192.103305,-13.0,-40.0,32.0,-3.0,0.0,6.0,-10.0,-13.0
1701961192.103305,5.0,13.0,72.0,37.0,7.0,-61.0,-17.0,-4.0
1701961192.103305,-3.0,2.0,19.0,-10.0,-2.0,55.0,12.0,6.0
1701961192.103305,4.0,34.0,57.0,38.0,6.0,-64.0,8.0,8.0
1701961192.123602,-15.0,-23.0,-108.0,-43.0,-18.0,58.0,-43.0,-48.0
1701961192.123602,7.0,-1.0,2.0,0.0,19.0,15.0,14.0,21.0
1701961192.123602,7.0,15.0,85.0,12.0,-2.0,-74.0,6.0,6.0
1701961192.123602,-3.0,1.0,83.0,14.0,0.0,56.0,-3.0,2.0
1701961192.1433103,-6.0,2.0,0.0,4.0,3.0,31.0,12.0,-18.0
1701961192.1433103,-5.0,-7.0,-9.0,-20.0,-19.0,-60.0,-12.0,14.0
1701961192.1633053,23.0,35.0,5.0,9.0,38.0,99.0,89.0,35.0
1701961192.1633053,-8.0,-18.0,34.0,7.0,-17.0,-72.0,-39.0,-25.0
1701961192.1633053,7.0,14.0,39.0,-14.0,-4.0,-28.0,12.0,16.0
1701961192.1633053,1.0,14.0,2.0,37.0,-2.0,-27.0,-13.0,-9.0
1701961192.1633053,11.0,-23.0,-90.0,-29.0,-7.0,-39.0,-37.0,0.0
1701961192.1633053,22.0,28.0,24.0,-11.0,-5.0,8.0,17.0,-16.0
1701961192.183594,32.0,21.0,-18.0,20.0,16.0,19.0,5.0,32.0
1701961192.183594,-86.0,-29.0,-32.0,-44.0,-24.0,21.0,0.0,-21.0
1701961192.183594,27.0,-13.0,-77.0,-12.0,-7.0,-28.0,-32.0,0.0
1701961192.183594,-98.0,-2.0,111.0,49.0,7.0,-7.0,2.0,-4.0
1701961192.1935549,-47.0,-90.0,-35.0,-18.0,-18.0,-32.0,-24.0,-12.0
1701961192.1935549,110.0,31.0,-101.0,-31.0,4.0,8.0,-21.0,-4.0
1701961192.2082112,-6.0,35.0,92.0,24.0,-11.0,-34.0,-21.0,-5.0
1701961192.2082112,27.0,-10.0,-68.0,-21.0,13.0,89.0,37.0,2.0
1701961192.236168,-4.0,17.0,-14.0,16.0,13.0,33.0,72.0,39.0
1701961192.236168,-63.0,-25.0,28.0,23.0,4.0,-19.0,-22.0,-10.0
1701961192.2461648,26.0,-10.0,-48.0,-21.0,-4.0,2.0,-17.0,-15.0
1701961192.2461648,65.0,27.0,10.0,-13.0,-10.0,-40.0,8.0,22.0
1701961192.2461648,-33.0,17.0,-16.0,0.0,-4.0,5.0,-36.0,-31.0
1701961192.2461648,11.0,-19.0,37.0,-2.0,-7.0,-27.0,60.0,20.0
1701961192.2461648,29.0,37.0,16.0,30.0,8.0,39.0,-46.0,-29.0
1701961192.2461648,-113.0,-61.0,-82.0,-47.0,-10.0,-30.0,-70.0,-59.0
1701961192.266166,2.0,-46.0,-8.0,19.0,0.0,-13.0,14.0,-10.0
1701961192.266166,37.0,35.0,-19.0,-9.0,-2.0,32.0,-32.0,5.0
1701961192.266166,-8.0,-10.0,44.0,34.0,16.0,47.0,111.0,59.0
1701961192.266166,63.0,33.0,-29.0,-9.0,1.0,-35.0,-86.0,-64.0
1701961192.2764359,-14.0,-1.0,-27.0,-22.0,-4.0,34.0,-36.0,-35.0
1701961192.2764359,-33.0,-11.0,29.0,20.0,0.0,-20.0,59.0,32.0
1701961192.2764359,-6.0,-13.0,-6.0,-8.0,-3.0,-2.0,5.0,-29.0
1701961192.2764359,9.0,-10.0,-23.0,-3.0,-2.0,2.0,26.0,46.0
1701961192.3064764,13.0,26.0,31.0,15.0,-2.0,-28.0,7.0,26.0
1701961192.3064764,1.0,-22.0,-7.0,-12.0,-5.0,17.0,-33.0,-42.0
1701961192.3064764,-23.0,-10.0,-28.0,-20.0,-6.0,-21.0,-5.0,8.0
1701961192.3064764,0.0,0.0,2.0,-2.0,-5.0,-12.0,23.0,11.0
1701961192.336469,16.0,14.0,11.0,2.0,3.0,21.0,25.0,24.0
1701961192.336469,15.0,-4.0,-26.0,8.0,6.0,37.0,27.0,18.0
1701961192.336469,-20.0,-12.0,-13.0,-28.0,-8.0,-30.0,-27.0,-21.0
1701961192.336469,6.0,9.0,30.0,8.0,-4.0,-8.0,-21.0,7.0
1701961192.336469,21.0,-4.0,-27.0,-11.0,-5.0,-1.0,17.0,3.0
1701961192.336469,-10.0,-18.0,-65.0,-15.0,1.0,20.0,12.0,-7.0
1701961192.336469,-17.0,7.0,29.0,8.0,-5.0,-36.0,-36.0,-20.0
1701961192.336469,6.0,22.0,46.0,1.0,-9.0,-13.0,-34.0,9.0
1701961192.356871,7.0,-15.0,-60.0,-8.0,7.0,40.0,34.0,7.0
1701961192.356871,-9.0,-2.0,15.0,-11.0,-7.0,3.0,-33.0,-24.0
1701961192.3664725,-11.0,4.0,42.0,4.0,-6.0,-3.0,2.0,9.0
1701961192.3664725,11.0,-9.0,-53.0,-8.0,5.0,10.0,34.0,21.0
1701961192.3767693,7.0,24.0,21.0,6.0,1.0,-30.0,-22.0,-4.0
1701961192.3767693,-12.0,-30.0,-20.0,-11.0,-7.0,-16.0,-15.0,-17.0
1701961192.3864722,0.0,17.0,54.0,9.0,-7.0,-8.0,-2.0,2.0
1701961192.3864722,0.0,0.0,4.0,-7.0,1.0,-2.0,-16.0,-4.0
1701961192.3964703,-3.0,10.0,53.0,10.0,-1.0,16.0,1.0,-7.0
1701961192.3964703,18.0,35.0,5.0,8.0,11.0,20.0,-26.0,0.0
1701961192.3964703,-11.0,-53.0,-77.0,-27.0,-20.0,-17.0,29.0,13.0
1701961192.3964703,-5.0,18.0,50.0,23.0,12.0,7.0,15.0,-2.0
1701961192.4264705,-15.0,-22.0,-18.0,-2.0,4.0,14.0,-7.0,-19.0
1701961192.4264705,17.0,34.0,2.0,3.0,9.0,-13.0,23.0,22.0
1701961192.4264705,10.0,-22.0,-15.0,-20.0,-3.0,48.0,11.0,3.0
1701961192.4264705,-12.0,-20.0,21.0,5.0,-4.0,-7.0,-6.0,-2.0
1701961192.436736,15.0,18.0,12.0,-12.0,-5.0,-77.0,19.0,19.0
1701961192.436736,-7.0,9.0,55.0,-1.0,-18.0,57.0,-12.0,-9.0
1701961192.4468305,-12.0,-22.0,-96.0,-10.0,-3.0,-79.0,-7.0,-12.0
1701961192.4468305,-5.0,-33.0,-61.0,-14.0,-5.0,85.0,25.0,6.0
1701961192.4567387,34.0,72.0,115.0,37.0,40.0,95.0,83.0,35.0
1701961192.4567387,-15.0,-37.0,-104.0,-35.0,-16.0,-83.0,-21.0,-19.0
1701961192.4567387,11.0,24.0,9.0,13.0,19.0,86.0,51.0,23.0
1701961192.4567387,-29.0,-50.0,-56.0,-22.0,-35.0,-65.0,-47.0,-26.0
1701961192.4864826,-2.0,16.0,49.0,27.0,9.0,-7.0,-3.0,-11.0
1701961192.4864826,4.0,2.0,-67.0,-52.0,-8.0,-23.0,-8.0,9.0
1701961192.4864826,-12.0,-16.0,-16.0,23.0,4.0,1.0,-9.0,-9.0
1701961192.4864826,7.0,31.0,90.0,11.0,-5.0,-33.0,-18.0,3.0
1701961192.4964776,-11.0,-37.0,6.0,-11.0,-4.0,25.0,-9.0,-8.0
1701961192.4964776,-2.0,1.0,35.0,7.0,-9.0,-63.0,-8.0,1.0
1701961192.506687,9.0,40.0,107.0,38.0,38.0,66.0,8.0,1.0
1701961192.506687,2.0,3.0,-49.0,-8.0,-2.0,23.0,13.0,4.0
1701961192.516728,-11.0,-22.0,-21.0,-1.0,-16.0,-69.0,-52.0,-12.0
1701961192.516728,3.0,4.0,-7.0,-4.0,2.0,61.0,-14.0,3.0
1701961192.526669,-10.0,5.0,83.0,2.0,-18.0,-78.0,-12.0,-8.0
1701961192.526669,8.0,15.0,-5.0,21.0,33.0,43.0,33.0,9.0
1701961192.5464702,-13.0,-34.0,-68.0,-66.0,-25.0,-72.0,-52.0,-13.0
1701961192.5464702,1.0,16.0,54.0,14.0,12.0,98.0,46.0,0.0
1701961192.5464702,-9.0,-5.0,6.0,16.0,-2.0,-62.0,-29.0,-13.0
1701961192.5464702,9.0,16.0,22.0,12.0,8.0,54.0,44.0,16.0
1701961192.5567703,0.0,-6.0,-99.0,-28.0,-18.0,-52.0,-38.0,-15.0
1701961192.5567703,1.0,10.0,65.0,32.0,10.0,-10.0,-16.0,-8.0
1701961192.5668252,-10.0,-7.0,-30.0,10.0,-4.0,6.0,-53.0,-11.0
1701961192.5668252,12.0,-2.0,-28.0,-21.0,2.0,-1.0,33.0,9.0
1701961192.5768516,-29.0,-7.0,-77.0,-5.0,-1.0,-24.0,-26.0,-3.0
1701961192.5768516,0.0,-25.0,2.0,-14.0,-5.0,-12.0,18.0,0.0
1701961192.5867906,18.0,16.0,-107.0,-81.0,-2.0,15.0,19.0,12.0
1701961192.5867906,-38.0,-17.0,70.0,54.0,-43.0,-93.0,-47.0,-21.0
1701961192.6064835,9.0,22.0,19.0,21.0,12.0,7.0,5.0,7.0
1701961192.6064835,-7.0,-5.0,-22.0,17.0,-7.0,39.0,15.0,-2.0
1701961192.6064835,51.0,12.0,7.0,-14.0,3.0,-25.0,-16.0,2.0
1701961192.6064835,-49.0,-6.0,-61.0,-43.0,-17.0,-2.0,-23.0,0.0
1701961192.616748,43.0,-23.0,22.0,-8.0,5.0,44.0,53.0,8.0
1701961192.616748,-43.0,-2.0,29.0,6.0,4.0,-38.0,-9.0,6.0
1701961192.6268308,-41.0,-41.0,12.0,40.0,-4.0,-3.0,-24.0,-16.0
1701961192.6268308,43.0,32.0,53.0,22.0,26.0,32.0,11.0,8.0
1701961192.6368492,-36.0,13.0,105.0,24.0,-30.0,-14.0,-61.0,-18.0
1701961192.6368492,47.0,26.0,-36.0,-7.0,6.0,-16.0,9.0,3.0
1701961192.6564696,27.0,9.0,-62.0,-42.0,-6.0,-12.0,-15.0,10.0
1701961192.6564696,-4.0,21.0,-16.0,-20.0,24.0,21.0,30.0,9.0
1701961192.6564696,-21.0,-7.0,78.0,88.0,-6.0,-20.0,-11.0,-9.0
1701961192.6564696,19.0,0.0,-13.0,-42.0,-11.0,-9.0,15.0,-6.0
1701961192.6664732,-7.0,12.0,14.0,-4.0,-3.0,-37.0,-9.0,-1.0
1701961192.6664732,-3.0,-25.0,-28.0,-16.0,-7.0,24.0,2.0,-3.0
1701961192.686851,16.0,24.0,28.0,-5.0,28.0,28.0,37.0,4.0
1701961192.686851,-22.0,-17.0,-69.0,-11.0,-1.0,13.0,-11.0,0.0
1701961192.686851,-6.0,-1.0,48.0,31.0,-11.0,9.0,-3.0,-2.0
1701961192.686851,9.0,-9.0,-46.0,7.0,21.0,34.0,6.0,-2.0
1701961192.6968193,5.0,24.0,-6.0,-12.0,-9.0,-91.0,-24.0,2.0
1701961192.6968193,3.0,-2.0,18.0,21.0,18.0,100.0,73.0,15.0
1701961192.7064798,-29.0,-20.0,-17.0,-14.0,5.0,7.0,4.0,-10.0
1701961192.7064798,13.0,-18.0,-26.0,-24.0,-13.0,-49.0,18.0,5.0
1701961192.7164736,-6.0,-1.0,10.0,45.0,-6.0,38.0,-2.0,-7.0
1701961192.7164736,4.0,8.0,3.0,-9.0,-3.0,3.0,12.0,1.0
1701961192.7264693,-2.0,-4.0,1.0,-1.0,0.0,29.0,-2.0,1.0
1701961192.7264693,-14.0,-15.0,-5.0,-1.0,4.0,-43.0,-29.0,-10.0
1701961192.7481923,10.0,4.0,-42.0,-27.0,1.0,-1.0,2.0,4.0
1701961192.7492142,0.0,-13.0,36.0,22.0,4.0,-8.0,-38.0,-6.0
1701961192.7502086,-3.0,23.0,23.0,23.0,3.0,7.0,75.0,55.0
1701961192.7502086,-8.0,-14.0,-3.0,-20.0,-4.0,15.0,-72.0,-73.0
1701961192.7622583,0.0,-1.0,-26.0,-54.0,-15.0,-113.0,-45.0,-8.0
1701961192.76328,2.0,-8.0,24.0,40.0,29.0,85.0,74.0,48.0
1701961192.789065,-4.0,-20.0,-24.0,-6.0,-8.0,-70.0,-76.0,-53.0
1701961192.789065,-5.0,-10.0,-7.0,2.0,-9.0,-75.0,-27.0,-10.0
1701961192.789065,8.0,14.0,17.0,23.0,15.0,35.0,41.0,13.0
1701961192.789065,-2.0,23.0,44.0,-9.0,2.0,-3.0,-11.0,-11.0
1701961192.789065,-1.0,-19.0,-5.0,4.0,15.0,0.0,51.0,31.0
1701961192.789065,16.0,3.0,-4.0,-3.0,-4.0,48.0,39.0,20.0
1701961192.7993238,-19.0,-30.0,-24.0,-5.0,7.0,52.0,-32.0,-24.0
1701961192.7993238,-13.0,-9.0,-26.0,-23.0,-34.0,-25.0,-34.0,-8.0
1701961192.80912,2.0,16.0,31.0,6.0,-2.0,-26.0,-25.0,-11.0
1701961192.80912,20.0,-5.0,35.0,36.0,8.0,2.0,-9.0,6.0
1701961192.8290734,-12.0,-15.0,-26.0,-59.0,-28.0,-13.0,8.0,3.0
1701961192.8290734,-5.0,-21.0,-100.0,-16.0,-6.0,-128.0,-75.0,-10.0
1701961192.8390677,-8.0,10.0,51.0,-8.0,-14.0,92.0,46.0,-14.0
1701961192.8390677,5.0,31.0,76.0,27.0,16.0,30.0,16.0,9.0
1701961192.8390677,12.0,18.0,-36.0,5.0,-10.0,-14.0,18.0,19.0
1701961192.8390677,-7.0,-37.0,-40.0,-53.0,-20.0,-50.0,-21.0,-15.0
1701961192.8390677,8.0,18.0,38.0,22.0,18.0,-21.0,4.0,-2.0
1701961192.8390677,-12.0,-28.0,-16.0,-24.0,-23.0,65.0,-30.0,11.0
1701961192.8595433,-2.0,21.0,59.0,33.0,6.0,-13.0,14.0,0.0
1701961192.8595433,-17.0,-6.0,-5.0,-8.0,-2.0,-43.0,-35.0,-22.0
1701961192.8695757,24.0,25.0,-25.0,-3.0,7.0,25.0,24.0,17.0
1701961192.8695757,-9.0,-26.0,14.0,-37.0,-20.0,-96.0,-23.0,-6.0
1701961192.879765,-9.0,-33.0,-37.0,-16.0,9.0,66.0,13.0,-10.0
1701961192.879765,15.0,29.0,25.0,34.0,14.0,12.0,34.0,6.0
1701961192.8895767,-31.0,-47.0,-62.0,-39.0,-27.0,14.0,-68.0,-21.0
1701961192.8895767,1.0,7.0,4.0,12.0,2.0,5.0,33.0,9.0
1701961192.8995996,17.0,19.0,22.0,5.0,13.0,11.0,-8.0,3.0
1701961192.8995996,-14.0,-29.0,-21.0,-42.0,-21.0,-34.0,-5.0,-10.0
1701961192.8995996,-8.0,-5.0,30.0,33.0,2.0,6.0,19.0,-8.0
1701961192.8995996,9.0,29.0,67.0,8.0,3.0,-32.0,-17.0,2.0
1701961192.9199896,-14.0,-69.0,-59.0,-47.0,-17.0,32.0,16.0,-3.0
1701961192.9199896,13.0,37.0,41.0,25.0,10.0,15.0,-4.0,2.0
1701961192.9295754,-8.0,-17.0,-66.0,-28.0,-9.0,-23.0,-4.0,-7.0
1701961192.9295754,-1.0,4.0,-26.0,-15.0,-10.0,-8.0,3.0,2.0
1701961192.9395745,10.0,15.0,10.0,37.0,17.0,-6.0,16.0,11.0
1701961192.9395745,-8.0,-7.0,46.0,17.0,-1.0,20.0,-18.0,-7.0
1701961192.9497123,-4.0,-10.0,-20.0,-12.0,-7.0,-19.0,-7.0,-2.0
1701961192.9497123,12.0,12.0,-1.0,-1.0,5.0,-22.0,19.0,11.0
1701961192.9599094,-3.0,10.0,-24.0,1.0,13.0,4.0,-17.0,-7.0
1701961192.9599094,-2.0,-3.0,74.0,39.0,3.0,6.0,0.0,-3.0
1701961192.9599094,-8.0,-20.0,-36.0,-17.0,-4.0,81.0,14.0,1.0
1701961192.9599094,-8.0,-39.0,-128.0,-68.0,-19.0,-20.0,-18.0,-9.0
1701961192.999927,8.0,12.0,77.0,26.0,2.0,-65.0,30.0,9.0
1701961192.999927,-4.0,-14.0,-15.0,-18.0,-2.0,73.0,37.0,0.0
1701961192.999927,12.0,47.0,45.0,-1.0,7.0,-33.0,-12.0,1.0
1701961192.999927,-2.0,4.0,-7.0,2.0,-2.0,-20.0,2.0,10.0
1701961192.999927,-3.0,-20.0,-2.0,24.0,-8.0,14.0,-34.0,-7.0
1701961192.999927,10.0,31.0,-9.0,-2.0,1.0,18.0,13.0,6.0
1701961193.0099406,7.0,2.0,-8.0,-12.0,10.0,-17.0,13.0,6.0
1701961193.0099406,-3.0,-6.0,-1.0,28.0,-2.0,-24.0,2.0,-5.0
1701961193.0203526,10.0,29.0,-10.0,-23.0,0.0,39.0,15.0,6.0
1701961193.0203526,6.0,8.0,61.0,39.0,7.0,-32.0,-22.0,2.0
1701961193.0203526,-4.0,-9.0,16.0,34.0,13.0,14.0,18.0,3.0
1701961193.0203526,8.0,-20.0,-25.0,-30.0,-6.0,-34.0,-16.0,-2.0
1701961193.0402954,-21.0,15.0,0.0,-12.0,3.0,57.0,50.0,4.0
1701961193.0402954,13.0,41.0,38.0,52.0,16.0,-2.0,-1.0,10.0
1701961193.0402954,-91.0,-26.0,-33.0,-48.0,-9.0,-22.0,-21.0,-20.0
1701961193.0402954,-18.0,-45.0,36.0,9.0,-30.0,-15.0,8.0,-10.0
1701961193.0599265,30.0,32.0,0.0,18.0,21.0,28.0,-30.0,10.0
1701961193.0599265,-27.0,-48.0,-16.0,-24.0,-13.0,-64.0,-5.0,-13.0
1701961193.0699315,60.0,63.0,46.0,47.0,10.0,55.0,6.0,13.0
1701961193.0699315,33.0,51.0,15.0,41.0,7.0,31.0,106.0,95.0
1701961193.0802593,-24.0,-35.0,-49.0,-80.0,-7.0,10.0,-112.0,-102.0
1701961193.0802593,-24.0,17.0,26.0,16.0,4.0,-57.0,-54.0,-17.0
1701961193.0802593,3.0,-22.0,-13.0,-16.0,-22.0,-10.0,8.0,4.0
1701961193.0802593,-2.0,-17.0,-10.0,4.0,15.0,6.0,-23.0,-10.0
1701961193.1199265,6.0,6.0,13.0,19.0,1.0,27.0,124.0,80.0
1701961193.1199265,26.0,22.0,8.0,-4.0,-5.0,-21.0,-31.0,-8.0
1701961193.1199265,-15.0,-26.0,-9.0,-6.0,-1.0,48.0,-7.0,-15.0
1701961193.1199265,-7.0,12.0,-6.0,-4.0,1.0,14.0,-88.0,-90.0
1701961193.1199265,7.0,-1.0,10.0,15.0,0.0,-38.0,1.0,-3.0
1701961193.1199265,16.0,14.0,-12.0,-16.0,-7.0,-23.0,45.0,19.0
1701961193.1199265,27.0,9.0,16.0,14.0,10.0,14.0,34.0,26.0
1701961193.1199265,-73.0,-34.0,4.0,1.0,-2.0,20.0,-30.0,-42.0
1701961193.140365,-32.0,-34.0,-8.0,-3.0,-5.0,-5.0,-7.0,-16.0
1701961193.140365,7.0,0.0,-3.0,2.0,6.0,16.0,-4.0,12.0
1701961193.140365,24.0,11.0,17.0,-3.0,-6.0,-46.0,6.0,19.0
1701961193.140365,31.0,51.0,15.0,7.0,9.0,-11.0,37.0,56.0
1701961193.1599288,-12.0,-10.0,-29.0,4.0,5.0,7.0,-65.0,-55.0
1701961193.1599288,-1.0,-35.0,-36.0,-23.0,-10.0,12.0,28.0,3.0
1701961193.1599288,11.0,16.0,10.0,-1.0,-11.0,-70.0,-44.0,-11.0
1701961193.1599288,-11.0,-2.0,25.0,9.0,9.0,41.0,2.0,-2.0
1701961193.1803439,13.0,-3.0,-20.0,-6.0,-11.0,-12.0,46.0,50.0
1701961193.1803439,23.0,42.0,55.0,15.0,17.0,35.0,32.0,19.0
1701961193.189955,-27.0,-53.0,-68.0,-15.0,-13.0,-41.0,-51.0,-39.0
1701961193.189955,0.0,4.0,-14.0,0.0,1.0,-16.0,-10.0,-6.0
1701961193.2003524,4.0,-7.0,-32.0,-32.0,-32.0,-41.0,-14.0,19.0
1701961193.2003524,-5.0,-6.0,10.0,-6.0,-1.0,43.0,4.0,-18.0
1701961193.2003524,-13.0,20.0,67.0,14.0,-6.0,-10.0,-25.0,-1.0
1701961193.2003524,7.0,-9.0,-36.0,-3.0,5.0,22.0,20.0,14.0
1701961193.219973,-5.0,6.0,55.0,9.0,-6.0,-103.0,-23.0,-16.0
1701961193.219973,-13.0,-7.0,-18.0,7.0,22.0,89.0,21.0,3.0
1701961193.219973,-22.0,-5.0,49.0,-13.0,-16.0,-32.0,-4.0,-2.0
1701961193.219973,16.0,20.0,20.0,15.0,5.0,-13.0,8.0,0.0
1701961193.2400591,0.0,-8.0,-35.0,-12.0,3.0,18.0,-7.0,-10.0
1701961193.2400591,1.0,37.0,83.0,38.0,10.0,-10.0,-27.0,4.0
1701961193.249995,1.0,-36.0,-99.0,-39.0,-9.0,-5.0,8.0,0.0
1701961193.249995,-4.0,-8.0,8.0,-19.0,8.0,-5.0,9.0,-8.0
1701961193.2723742,-5.0,23.0,69.0,30.0,1.0,-16.0,1.0,5.0
1701961193.2723742,-7.0,-21.0,-2.0,-8.0,-10.0,35.0,-13.0,-8.0
1701961193.2723742,13.0,37.0,52.0,25.0,8.0,1.0,25.0,3.0
1701961193.2723742,-18.0,-43.0,-100.0,-59.0,-8.0,57.0,-61.0,-15.0
1701961193.2849536,3.0,2.0,24.0,1.0,-1.0,8.0,0.0,3.0
1701961193.2849536,3.0,-1.0,9.0,16.0,-1.0,-55.0,16.0,5.0
1701961193.2849536,-4.0,-21.0,-7.0,-20.0,-15.0,-29.0,-10.0,-4.0
1701961193.2849536,6.0,7.0,26.0,16.0,5.0,-40.0,14.0,12.0
1701961193.2952697,10.0,4.0,-10.0,20.0,27.0,38.0,32.0,9.0
1701961193.2952697,-14.0,-31.0,7.0,-14.0,-23.0,1.0,-29.0,-17.0
1701961193.3052895,13.0,16.0,5.0,30.0,19.0,-11.0,-7.0,6.0
1701961193.3052895,-4.0,-14.0,-11.0,-16.0,-17.0,19.0,25.0,-2.0
1701961193.324954,-15.0,-10.0,-16.0,-28.0,-19.0,-4.0,-11.0,-8.0
1701961193.324954,3.0,5.0,-69.0,-17.0,4.0,-25.0,10.0,6.0
1701961193.324954,-2.0,2.0,89.0,40.0,7.0,-46.0,-13.0,-1.0
1701961193.324954,1.0,-21.0,-73.0,-15.0,-4.0,36.0,23.0,-4.0
1701961193.345273,15.0,-7.0,51.0,29.0,5.0,40.0,31.0,12.0
1701961193.345273,11.0,45.0,45.0,10.0,7.0,-85.0,-27.0,-1.0
1701961193.345273,-21.0,-41.0,-90.0,-79.0,-18.0,60.0,14.0,-7.0
1701961193.345273,10.0,50.0,111.0,21.0,3.0,6.0,-34.0,-9.0
1701961193.3552334,-28.0,-62.0,-51.0,-17.0,-9.0,-37.0,-37.0,-10.0
1701961193.3552334,0.0,42.0,-2.0,17.0,-3.0,-4.0,8.0,1.0
1701961193.3752213,6.0,1.0,38.0,27.0,9.0,4.0,-3.0,-7.0
1701961193.3752213,-1.0,6.0,-27.0,-26.0,-8.0,-52.0,-15.0,-1.0
1701961193.4049513,-5.0,-13.0,35.0,-4.0,-13.0,-4.0,-57.0,-10.0
1701961193.4049513,-8.0,-28.0,0.0,1.0,-14.0,-18.0,-12.0,-9.0
1701961193.4049513,11.0,13.0,-22.0,3.0,13.0,12.0,4.0,3.0
1701961193.4049513,-11.0,-19.0,81.0,-16.0,-24.0,-32.0,-1.0,-9.0
1701961193.4049513,2.0,17.0,29.0,16.0,-1.0,-15.0,-10.0,2.0
1701961193.4049513,-4.0,-51.0,-104.0,-37.0,1.0,34.0,19.0,-1.0
1701961193.4049513,-1.0,-10.0,-12.0,12.0,-8.0,4.0,-9.0,-4.0
1701961193.4049513,8.0,25.0,7.0,1.0,13.0,-20.0,3.0,8.0
1701961193.4152157,1.0,37.0,18.0,12.0,19.0,5.0,-3.0,3.0
1701961193.4152157,-2.0,-8.0,-58.0,-23.0,4.0,24.0,3.0,3.0
1701961193.4252005,-11.0,1.0,8.0,34.0,-5.0,-24.0,8.0,2.0
1701961193.4252005,12.0,18.0,73.0,46.0,19.0,77.0,59.0,18.0
1701961193.4549553,1.0,-13.0,-76.0,-24.0,-5.0,18.0,17.0,0.0
1701961193.4549553,1.0,-3.0,-65.0,-54.0,5.0,-3.0,11.0,0.0
1701961193.4549553,-6.0,3.0,23.0,55.0,6.0,-9.0,-25.0,-9.0
1701961193.4549553,22.0,16.0,-4.0,-19.0,4.0,12.0,20.0,10.0
1701961193.4649525,-1.0,3.0,-50.0,0.0,-8.0,-1.0,4.0,-4.0
1701961193.4649525,3.0,-22.0,21.0,-18.0,-2.0,1.0,11.0,-1.0
1701961193.4649525,-31.0,0.0,-2.0,-12.0,-8.0,-54.0,0.0,-2.0
1701961193.4649525,31.0,-6.0,11.0,-3.0,-1.0,-12.0,-12.0,-1.0
1701961193.474955,-18.0,45.0,22.0,12.0,15.0,68.0,59.0,34.0
1701961193.474955,-86.0,-88.0,-5.0,1.0,-15.0,-40.0,-62.0,-51.0
1701961193.4949534,-25.0,3.0,10.0,-13.0,3.0,-2.0,-21.0,-29.0
1701961193.4949534,-22.0,-22.0,-19.0,1.0,2.0,-15.0,-4.0,6.0
1701961193.5053248,67.0,35.0,13.0,-9.0,-10.0,-32.0,51.0,53.0
1701961193.5053248,36.0,39.0,5.0,17.0,6.0,14.0,-49.0,-18.0
1701961193.5053248,10.0,19.0,27.0,28.0,9.0,37.0,15.0,-12.0
1701961193.5053248,34.0,28.0,-40.0,-35.0,0.0,17.0,68.0,49.0
1701961193.5253987,-31.0,-28.0,3.0,-11.0,-12.0,-17.0,-8.0,-18.0
1701961193.5253987,-13.0,-1.0,30.0,29.0,-11.0,-39.0,-67.0,-10.0
1701961193.5253987,36.0,5.0,-32.0,-46.0,-1.0,38.0,-1.0,-12.0
1701961193.5253987,-30.0,-23.0,6.0,45.0,6.0,-32.0,6.0,35.0
1701961193.5353343,1.0,-14.0,4.0,0.0,6.0,44.0,60.0,4.0
1701961193.5353343,14.0,7.0,29.0,11.0,0.0,19.0,42.0,58.0
1701961193.5549538,-2.0,-6.0,-17.0,-15.0,-2.0,-30.0,-105.0,-97.0
1701961193.5549538,-13.0,12.0,-23.0,-3.0,-6.0,-9.0,-12.0,-62.0
1701961193.565229,-1.0,-8.0,-1.0,-10.0,-8.0,-29.0,3.0,41.0
1701961193.565229,8.0,1.0,9.0,3.0,6.0,41.0,41.0,14.0
1701961193.565229,3.0,2.0,-5.0,-10.0,-6.0,15.0,-11.0,4.0
1701961193.565229,-14.0,-21.0,-15.0,8.0,-3.0,-27.0,-13.0,-4.0
1701961193.5853045,-1.0,-2.0,-4.0,-6.0,3.0,8.0,-26.0,-24.0
1701961193.5853045,16.0,13.0,15.0,6.0,4.0,3.0,25.0,20.0
1701961193.5949538,-2.0,-11.0,-9.0,-8.0,8.0,2.0,43.0,49.0
1701961193.5949538,-9.0,-6.0,11.0,19.0,3.0,5.0,-14.0,-11.0
1701961193.5949538,1.0,-6.0,-5.0,-4.0,-1.0,-3.0,10.0,-19.0
1701961193.5949538,-2.0,-13.0,-29.0,-26.0,-21.0,-46.0,-64.0,-39.0
1701961193.6149545,0.0,-1.0,6.0,-3.0,0.0,26.0,61.0,43.0
1701961193.6149545,-7.0,0.0,-12.0,2.0,-8.0,-22.0,-55.0,-43.0
1701961193.6249893,5.0,5.0,7.0,4.0,6.0,18.0,14.0,3.0
1701961193.6249893,-1.0,-2.0,10.0,2.0,1.0,5.0,31.0,3.0
1701961193.6249893,-5.0,4.0,-7.0,-5.0,0.0,-2.0,-1.0,13.0
1701961193.6249893,2.0,2.0,-5.0,-3.0,-5.0,28.0,18.0,14.0
1701961193.6454008,1.0,-4.0,-1.0,4.0,-1.0,-19.0,-20.0,-9.0
1701961193.6454008,-9.0,-3.0,2.0,-9.0,-7.0,11.0,3.0,-13.0
1701961193.6454008,11.0,2.0,-4.0,-3.0,1.0,3.0,6.0,14.0
1701961193.6454008,0.0,3.0,2.0,2.0,2.0,1.0,9.0,8.0
1701961193.674953,-9.0,-3.0,-5.0,-1.0,-3.0,-16.0,-46.0,-34.0
1701961193.674953,-2.0,3.0,4.0,1.0,-2.0,-2.0,-3.0,6.0
1701961193.674953,7.0,7.0,-6.0,-10.0,-6.0,6.0,27.0,12.0
1701961193.674953,-3.0,-2.0,3.0,10.0,6.0,1.0,-12.0,-5.0
1701961193.6852388,-3.0,-1.0,-10.0,-10.0,0.0,-1.0,-18.0,-8.0
1701961193.6852388,4.0,20.0,5.0,1.0,-3.0,-21.0,11.0,6.0
1701961193.6852388,0.0,-2.0,5.0,4.0,3.0,39.0,27.0,9.0
1701961193.6852388,-7.0,-5.0,-16.0,-9.0,-10.0,-8.0,-12.0,-9.0
1701961193.7052286,-11.0,0.0,13.0,5.0,1.0,-15.0,-12.0,-1.0
1701961193.7052286,0.0,3.0,4.0,2.0,6.0,25.0,34.0,-2.0
1701961193.7052286,-6.0,-10.0,-10.0,-2.0,-6.0,-46.0,-5.0,-6.0
1701961193.7052286,5.0,8.0,16.0,5.0,7.0,37.0,7.0,3.0
1701961193.7349534,3.0,-4.0,-29.0,-12.0,-3.0,1.0,-2.0,-1.0
1701961193.7349534,-4.0,-10.0,-14.0,0.0,-7.0,-8.0,-3.0,-3.0
1701961193.7349534,-5.0,-1.0,31.0,6.0,-6.0,-19.0,-5.0,2.0
1701961193.7349534,1.0,-4.0,-42.0,-23.0,1.0,5.0,15.0,2.0
1701961193.7349534,-5.0,-4.0,24.0,5.0,-11.0,-28.0,-13.0,-3.0
1701961193.7449534,2.0,0.0,36.0,19.0,13.0,24.0,-3.0,-7.0
1701961193.7449534,-5.0,-11.0,-60.0,-14.0,-10.0,-31.0,-26.0,-2.0
1701961193.7449534,7.0,1.0,-23.0,-16.0,9.0,54.0,36.0,11.0
1701961193.765422,-2.0,14.0,71.0,37.0,-1.0,-1.0,-10.0,-7.0
1701961193.765422,-8.0,-16.0,-80.0,-36.0,-9.0,-16.0,0.0,-1.0
1701961193.765422,8.0,20.0,74.0,54.0,13.0,-1.0,2.0,7.0
1701961193.765422,9.0,16.0,49.0,3.0,9.0,-13.0,-3.0,1.0
1701961193.7849867,-15.0,-14.0,-39.0,-20.0,-24.0,-38.0,-21.0,-16.0
1701961193.7849867,5.0,2.0,11.0,7.0,16.0,41.0,-19.0,6.0
1701961193.7849867,-9.0,-35.0,-103.0,-49.0,-8.0,-14.0,43.0,1.0
1701961193.7849867,0.0,-1.0,42.0,26.0,4.0,21.0,3.0,-2.0
1701961193.804834,7.0,16.0,6.0,-7.0,6.0,19.0,5.0,0.0
1701961193.804834,1.0,17.0,81.0,34.0,-6.0,-32.0,-5.0,0.0
1701961193.811843,6.0,10.0,3.0,-8.0,9.0,22.0,-12.0,3.0
1701961193.811843,-3.0,-20.0,-73.0,-22.0,-9.0,-34.0,-14.0,-4.0
1701961193.8281887,5.0,10.0,71.0,32.0,10.0,2.0,1.0,0.0
1701961193.8281887,-8.0,-62.0,-128.0,-83.0,-10.0,-6.0,4.0,-1.0
1701961193.8281887,-8.0,-3.0,127.0,39.0,-4.0,12.0,-3.0,-8.0
1701961193.8281887,1.0,16.0,127.0,50.0,1.0,-25.0,-19.0,-2.0
1701961193.848224,8.0,-1.0,-100.0,-69.0,-1.0,10.0,4.0,3.0
1701961193.848224,-21.0,-26.0,-22.0,-3.0,-20.0,-10.0,-40.0,-13.0
1701961193.848224,12.0,4.0,-25.0,-4.0,10.0,20.0,11.0,7.0
1701961193.848224,-11.0,-28.0,-6.0,-14.0,-17.0,-28.0,-14.0,-9.0
1701961193.858474,-2.0,15.0,2.0,17.0,5.0,-38.0,-17.0,-4.0
1701961193.858474,15.0,35.0,42.0,23.0,28.0,94.0,65.0,19.0
1701961193.8684483,-3.0,2.0,4.0,-18.0,-8.0,-15.0,-9.0,-2.0
1701961193.8684483,-6.0,-3.0,9.0,8.0,-6.0,10.0,-21.0,-5.0
1701961193.8881934,4.0,-2.0,-11.0,-10.0,2.0,-32.0,7.0,2.0
1701961193.8881934,-1.0,5.0,14.0,6.0,-2.0,3.0,23.0,-1.0
1701961193.8881934,0.0,9.0,3.0,0.0,1.0,13.0,-5.0,-1.0
1701961193.8881934,3.0,12.0,-17.0,5.0,9.0,-9.0,-8.0,-1.0
1701961193.9081912,-7.0,-20.0,11.0,0.0,-7.0,4.0,-1.0,-3.0
1701961193.9081912,-4.0,0.0,14.0,7.0,5.0,-19.0,-10.0,-4.0
1701961193.9081912,5.0,23.0,15.0,1.0,4.0,17.0,3.0,3.0
1701961193.9081912,-15.0,-35.0,-89.0,-27.0,-11.0,-23.0,12.0,3.0
1701961193.9182231,-2.0,-5.0,-8.0,-5.0,-1.0,23.0,-20.0,-8.0
1701961193.9182231,0.0,7.0,31.0,16.0,-2.0,-11.0,17.0,5.0
1701961193.928568,9.0,0.0,-19.0,-5.0,4.0,3.0,48.0,25.0
1701961193.928568,-4.0,-2.0,-21.0,-14.0,-7.0,-4.0,-65.0,-42.0
1701961193.9481897,-17.0,6.0,33.0,20.0,9.0,26.0,18.0,-3.0
1701961193.9481897,-3.0,10.0,17.0,6.0,0.0,-30.0,-79.0,-38.0
1701961193.9481897,-6.0,-10.0,-18.0,-11.0,-8.0,-7.0,2.0,18.0
1701961193.9481897,13.0,14.0,13.0,3.0,0.0,8.0,70.0,34.0
1701961193.9681919,0.0,-12.0,-23.0,-5.0,4.0,18.0,-25.0,-3.0
1701961193.9681919,2.0,9.0,15.0,-5.0,-5.0,-12.0,11.0,20.0
1701961193.9681919,-11.0,-32.0,-23.0,-11.0,4.0,18.0,9.0,-17.0
1701961193.9681919,9.0,24.0,9.0,3.0,-3.0,-15.0,-15.0,25.0
1701961193.978457,10.0,11.0,4.0,7.0,4.0,1.0,10.0,10.0
1701961193.978457,-18.0,-36.0,-2.0,1.0,5.0,3.0,12.0,-12.0
1701961193.988447,-20.0,12.0,2.0,-6.0,-6.0,-3.0,-21.0,-12.0
1701961193.988447,9.0,12.0,3.0,-1.0,-4.0,-7.0,1.0,-6.0
1701961194.0181875,-6.0,-22.0,-1.0,-1.0,-4.0,-4.0,-7.0,-1.0
1701961194.0181875,13.0,24.0,5.0,-5.0,-16.0,-26.0,-16.0,2.0
1701961194.0181875,1.0,-1.0,18.0,22.0,11.0,1.0,-3.0,-5.0
1701961194.0181875,-21.0,-26.0,-1.0,-3.0,3.0,2.0,-18.0,-15.0
1701961194.0285685,4.0,8.0,-12.0,-12.0,-13.0,-10.0,-11.0,-22.0
1701961194.0285685,-2.0,-6.0,-10.0,-6.0,-7.0,1.0,20.0,18.0
1701961194.0285685,4.0,2.0,-2.0,-2.0,-4.0,-6.0,-14.0,5.0
1701961194.0285685,-2.0,10.0,9.0,3.0,-4.0,-7.0,-3.0,-6.0
1701961194.0385947,-1.0,-28.0,-23.0,-12.0,0.0,13.0,8.0,-9.0
1701961194.0385947,5.0,14.0,0.0,-10.0,-5.0,1.0,14.0,17.0
1701961194.0485685,0.0,8.0,-1.0,-3.0,-3.0,-4.0,-29.0,-36.0
1701961194.0485685,-10.0,-6.0,-3.0,-4.0,-6.0,1.0,-7.0,-14.0
1701961194.0581884,-5.0,7.0,20.0,6.0,-18.0,-33.0,-11.0,-3.0
1701961194.0581884,2.0,-12.0,12.0,7.0,15.0,10.0,4.0,-16.0
1701961194.0681877,15.0,41.0,29.0,3.0,-4.0,1.0,6.0,40.0
1701961194.0681877,0.0,63.0,12.0,9.0,-7.0,-20.0,-4.0,-21.0
1701961194.088472,5.0,-3.0,-22.0,0.0,2.0,-1.0,-9.0,-1.0
1701961194.088472,14.0,-9.0,-59.0,-20.0,-16.0,-16.0,1.0,4.0
1701961194.088472,29.0,39.0,34.0,1.0,11.0,17.0,11.0,9.0
1701961194.088472,-7.0,47.0,101.0,33.0,-6.0,-23.0,-19.0,-19.0
1701961194.0984037,-9.0,-26.0,-87.0,-42.0,-10.0,13.0,12.0,7.0
1701961194.0984037,26.0,-27.0,-101.0,-41.0,-1.0,-1.0,-6.0,0.0
1701961194.1281936,38.0,3.0,21.0,15.0,-12.0,-11.0,-5.0,-2.0
1701961194.1281936,-41.0,-37.0,-37.0,-3.0,15.0,14.0,6.0,8.0
1701961194.1381907,-18.0,15.0,56.0,16.0,1.0,-1.0,0.0,0.0
1701961194.1381907,40.0,17.0,35.0,10.0,-3.0,-2.0,-2.0,-7.0
1701961194.1381907,-41.0,-25.0,-63.0,-25.0,1.0,1.0,-1.0,7.0
1701961194.1381907,-9.0,-22.0,31.0,20.0,3.0,0.0,7.0,7.0
1701961194.148221,40.0,-31.0,-69.0,-4.0,3.0,9.0,1.0,-9.0
1701961194.148221,-37.0,1.0,-14.0,13.0,2.0,-8.0,1.0,-1.0
1701961194.148221,5.0,-33.0,19.0,0.0,-13.0,-13.0,-10.0,-15.0
1701961194.148221,25.0,-17.0,-80.0,-20.0,20.0,32.0,23.0,24.0
1701961194.1681883,-31.0,-10.0,-28.0,-16.0,5.0,4.0,-3.0,-7.0
1701961194.1681883,5.0,19.0,63.0,31.0,10.0,6.0,3.0,1.0
1701961194.1681883,-23.0,-4.0,24.0,20.0,1.0,-7.0,-2.0,-15.0
1701961194.1681883,24.0,-26.0,-100.0,-39.0,2.0,22.0,10.0,24.0
1701961194.1881912,25.0,37.0,23.0,5.0,1.0,0.0,7.0,18.0
1701961194.1881912,-9.0,16.0,-5.0,-5.0,2.0,3.0,0.0,-10.0
1701961194.1881912,7.0,-26.0,-12.0,-5.0,-2.0,-7.0,-7.0,-9.0
1701961194.1881912,-25.0,0.0,25.0,11.0,0.0,-4.0,52.0,29.0
1701961194.2085204,-22.0,-5.0,21.0,17.0,15.0,6.0,-40.0,-33.0
1701961194.2085204,-57.0,-26.0,41.0,20.0,2.0,-6.0,0.0,14.0
1701961194.2085204,-18.0,-28.0,-18.0,-7.0,-5.0,-3.0,0.0,-25.0
1701961194.2085204,34.0,23.0,8.0,-9.0,-7.0,-3.0,-14.0,23.0
1701961194.2184696,-8.0,-2.0,13.0,4.0,-3.0,-9.0,75.0,-3.0
1701961194.2184696,-17.0,-3.0,-3.0,-5.0,14.0,18.0,-98.0,-64.0
1701961194.2284377,8.0,5.0,-14.0,-12.0,-2.0,-5.0,43.0,24.0
1701961194.2284377,8.0,-20.0,-25.0,-12.0,-15.0,-14.0,-62.0,-29.0
1701961194.258191,-8.0,4.0,31.0,-3.0,4.0,14.0,36.0,21.0
1701961194.258191,21.0,8.0,7.0,0.0,-13.0,-14.0,11.0,5.0
1701961194.258191,-6.0,5.0,-26.0,-13.0,2.0,7.0,18.0,10.0
1701961194.258191,-5.0,-22.0,-10.0,-13.0,-13.0,4.0,86.0,35.0
1701961194.2685404,25.0,6.0,9.0,-5.0,2.0,21.0,-76.0,25.0
1701961194.2685404,-36.0,-7.0,-9.0,-14.0,-24.0,-83.0,-79.0,-77.0
1701961194.2685404,-7.0,-1.0,-8.0,-5.0,-3.0,7.0,62.0,51.0
1701961194.2685404,4.0,13.0,46.0,34.0,12.0,-5.0,32.0,5.0
1701961194.2785947,5.0,-10.0,10.0,7.0,-10.0,-10.0,32.0,28.0
1701961194.2785947,6.0,-2.0,9.0,8.0,19.0,42.0,68.0,44.0
1701961194.288577,-9.0,-6.0,-8.0,0.0,-1.0,-12.0,-66.0,-51.0
1701961194.288577,18.0,33.0,31.0,13.0,1.0,-6.0,-22.0,-11.0
1701961194.2982512,-20.0,-31.0,-16.0,-4.0,9.0,12.0,0.0,-15.0
1701961194.2982512,6.0,-11.0,-10.0,-9.0,-11.0,2.0,-5.0,13.0
1701961194.3082838,-16.0,25.0,32.0,7.0,5.0,3.0,-4.0,-7.0
1701961194.3082838,-10.0,-23.0,-8.0,-5.0,9.0,18.0,-13.0,-15.0
1701961194.3372033,-2.0,9.0,13.0,3.0,-1.0,-8.0,-15.0,1.0
1701961194.3372033,4.0,-5.0,-3.0,-5.0,-5.0,-1.0,18.0,6.0
1701961194.3372033,6.0,-9.0,5.0,-3.0,-3.0,4.0,-9.0,2.0
1701961194.3372033,5.0,2.0,-60.0,-11.0,-14.0,-25.0,-30.0,-14.0
1701961194.3443367,-14.0,-20.0,-7.0,-8.0,8.0,14.0,-1.0,-14.0
1701961194.3443367,6.0,9.0,-12.0,1.0,-1.0,5.0,25.0,17.0
1701961194.3511245,12.0,24.0,47.0,12.0,4.0,-1.0,-7.0,2.0
1701961194.3511245,-16.0,-26.0,-10.0,-8.0,-2.0,1.0,-18.0,-17.0
1701961194.3613224,30.0,76.0,71.0,46.0,7.0,-20.0,9.0,14.0
1701961194.3613224,-24.0,-70.0,-79.0,-20.0,15.0,33.0,21.0,5.0
1701961194.3714867,-13.0,-56.0,-112.0,-39.0,-8.0,-4.0,-17.0,-7.0
1701961194.3714867,-20.0,-19.0,-12.0,-15.0,-12.0,-9.0,-10.0,-16.0
1701961194.391125,7.0,30.0,87.0,19.0,0.0,-6.0,1.0,10.0
1701961194.391125,19.0,56.0,44.0,14.0,3.0,2.0,15.0,14.0
1701961194.391125,-10.0,-28.0,-28.0,-8.0,-4.0,-2.0,-4.0,-1.0
1701961194.391125,-18.0,-28.0,-60.0,-2.0,4.0,3.0,-23.0,-30.0
1701961194.401273,15.0,39.0,21.0,-1.0,1.0,4.0,12.0,19.0
1701961194.401273,-1.0,-13.0,41.0,2.0,-6.0,-8.0,-6.0,-7.0
1701961194.411278,-30.0,-63.0,-79.0,-22.0,-25.0,-17.0,-13.0,-15.0
1701961194.411278,33.0,55.0,75.0,22.0,0.0,-16.0,-4.0,6.0
1701961194.4214277,1.0,-18.0,-30.0,18.0,5.0,-7.0,-3.0,2.0
1701961194.4214277,0.0,29.0,19.0,-14.0,5.0,11.0,9.0,1.0
1701961194.431129,22.0,13.0,0.0,11.0,18.0,12.0,8.0,6.0
1701961194.431129,-22.0,25.0,34.0,-17.0,-21.0,-16.0,-11.0,-13.0
1701961194.471127,2.0,-23.0,-53.0,11.0,-4.0,-10.0,1.0,0.0
1701961194.471127,0.0,6.0,7.0,2.0,1.0,2.0,13.0,47.0
1701961194.471127,16.0,57.0,83.0,32.0,9.0,1.0,-10.0,-20.0
1701961194.471127,12.0,-9.0,5.0,0.0,25.0,34.0,14.0,13.0
1701961194.471127,-11.0,-16.0,-25.0,-9.0,-1.0,2.0,2.0,-8.0
1701961194.471127,-10.0,-13.0,5.0,-4.0,1.0,5.0,5.0,-11.0
1701961194.471127,9.0,42.0,109.0,38.0,16.0,11.0,6.0,17.0
1701961194.471127,-13.0,-52.0,-31.0,-28.0,-15.0,-24.0,-10.0,-4.0
1701961194.4813862,-14.0,-8.0,34.0,-23.0,-3.0,9.0,6.0,-14.0
1701961194.4813862,17.0,26.0,64.0,11.0,-6.0,0.0,5.0,22.0
1701961194.4913647,4.0,21.0,21.0,-9.0,-10.0,-18.0,-23.0,-30.0
1701961194.4913647,-9.0,-26.0,0.0,4.0,1.0,0.0,2.0,6.0
1701961194.5311248,18.0,16.0,-47.0,4.0,-4.0,-14.0,-5.0,4.0
1701961194.5311248,-3.0,-1.0,-34.0,-3.0,-3.0,-4.0,-2.0,-10.0
1701961194.5311248,6.0,9.0,-48.0,-8.0,7.0,7.0,7.0,14.0
1701961194.5311248,8.0,22.0,52.0,4.0,-1.0,9.0,4.0,3.0
1701961194.5311248,-13.0,-33.0,-36.0,-24.0,-10.0,-2.0,-6.0,-12.0
1701961194.5311248,0.0,2.0,9.0,9.0,-3.0,-3.0,3.0,2.0
1701961194.5311248,2.0,-2.0,-60.0,-8.0,3.0,-8.0,-17.0,-14.0
1701961194.5311248,-24.0,-40.0,48.0,26.0,0.0,2.0,-3.0,-5.0
1701961194.5413778,3.0,4.0,9.0,-8.0,1.0,4.0,0.0,9.0
1701961194.5413778,11.0,21.0,-14.0,-4.0,1.0,-1.0,9.0,6.0
1701961194.571125,-2.0,-6.0,11.0,4.0,-7.0,0.0,29.0,6.0
1701961194.571125,9.0,18.0,-1.0,-18.0,-8.0,-6.0,-37.0,-11.0
1701961194.571125,-10.0,-1.0,-42.0,-9.0,-7.0,-9.0,-34.0,-31.0
1701961194.571125,17.0,4.0,2.0,4.0,3.0,10.0,68.0,51.0
1701961194.571125,4.0,-31.0,-18.0,-18.0,-12.0,-6.0,-57.0,-33.0
1701961194.571125,-7.0,11.0,8.0,4.0,5.0,11.0,8.0,-12.0
1701961194.591285,14.0,3.0,28.0,4.0,1.0,0.0,-36.0,21.0
1701961194.591285,-52.0,-15.0,-1.0,6.0,-5.0,-21.0,-82.0,-61.0
1701961194.591285,-30.0,-21.0,-1.0,-8.0,-6.0,4.0,10.0,7.0
1701961194.591285,24.0,23.0,-1.0,12.0,8.0,8.0,51.0,16.0
1701961194.6011276,-11.0,-21.0,13.0,1.0,-1.0,9.0,-36.0,-16.0
1701961194.6011276,17.0,17.0,-20.0,-17.0,-19.0,-31.0,-82.0,-16.0
1701961194.6011276,-5.0,-9.0,10.0,-2.0,1.0,-8.0,-31.0,-2.0
1701961194.6011276,4.0,4.0,-1.0,9.0,0.0,-7.0,23.0,10.0
1701961194.6211312,-20.0,-23.0,-10.0,-7.0,0.0,5.0,43.0,-8.0
1701961194.6211312,2.0,-7.0,17.0,6.0,6.0,11.0,64.0,27.0
1701961194.6311233,-2.0,-1.0,1.0,11.0,2.0,-3.0,-16.0,-11.0
1701961194.6311233,-6.0,-9.0,-28.0,-15.0,-5.0,-9.0,-30.0,-11.0
1701961194.6514473,5.0,9.0,18.0,8.0,2.0,3.0,34.0,20.0
1701961194.6514473,11.0,1.0,-18.0,-6.0,-4.0,-4.0,-11.0,-7.0
1701961194.6514473,-3.0,-7.0,-1.0,-1.0,3.0,4.0,38.0,8.0
1701961194.6514473,-1.0,-12.0,-24.0,-12.0,-2.0,-1.0,-15.0,24.0
1701961194.6614108,-3.0,14.0,11.0,-1.0,-3.0,-4.0,-9.0,-26.0
1701961194.6614108,3.0,6.0,16.0,9.0,0.0,-1.0,62.0,13.0
1701961194.6911278,-5.0,-8.0,4.0,6.0,10.0,19.0,38.0,13.0
1701961194.6911278,-10.0,-7.0,-24.0,-12.0,0.0,-3.0,-52.0,-16.0
1701961194.6911278,-5.0,2.0,-6.0,-11.0,-12.0,-22.0,-16.0,-25.0
1701961194.6911278,0.0,-25.0,-36.0,-6.0,-5.0,-5.0,-3.0,1.0
1701961194.6911278,-2.0,31.0,49.0,15.0,9.0,10.0,32.0,33.0
1701961194.6911278,-7.0,-38.0,-34.0,-8.0,0.0,9.0,6.0,-6.0
1701961194.7111268,3.0,-1.0,-26.0,-6.0,-2.0,2.0,10.0,6.0
1701961194.7111268,10.0,8.0,9.0,7.0,6.0,8.0,5.0,-6.0
1701961194.7111268,-1.0,-3.0,-11.0,-8.0,-10.0,-8.0,-13.0,23.0
1701961194.7111268,-3.0,11.0,-7.0,-5.0,-2.0,-4.0,-15.0,-45.0
1701961194.7215397,9.0,11.0,22.0,9.0,1.0,-4.0,7.0,31.0
1701961194.7215397,-10.0,-16.0,8.0,-3.0,-2.0,1.0,-6.0,-3.0
1701961194.741125,-4.0,-16.0,-51.0,-24.0,-11.0,-10.0,-24.0,-4.0
1701961194.741125,2.0,19.0,22.0,13.0,2.0,-2.0,14.0,1.0
1701961194.7511296,-3.0,8.0,38.0,10.0,-6.0,-7.0,6.0,-3.0
1701961194.7511296,-10.0,-25.0,-65.0,-26.0,6.0,9.0,-15.0,-13.0
1701961194.7511296,7.0,6.0,12.0,0.0,0.0,-2.0,-7.0,-6.0
1701961194.7511296,11.0,15.0,2.0,-11.0,-6.0,-6.0,16.0,5.0
1701961194.7712436,-5.0,-2.0,14.0,-3.0,0.0,1.0,-5.0,15.0
1701961194.7712436,2.0,13.0,37.0,11.0,-2.0,-3.0,-19.0,-9.0
1701961194.7712436,-6.0,-16.0,-38.0,-7.0,-7.0,-6.0,-3.0,-11.0
1701961194.7712436,-6.0,-25.0,-67.0,-16.0,-5.0,-1.0,7.0,8.0
1701961194.791126,5.0,17.0,32.0,4.0,-2.0,-1.0,-7.0,2.0
1701961194.791126,-2.0,7.0,18.0,12.0,3.0,-5.0,-7.0,-10.0
1701961194.791126,-3.0,-11.0,-28.0,-16.0,1.0,6.0,4.0,-1.0
1701961194.791126,4.0,13.0,44.0,19.0,2.0,0.0,-5.0,8.0
1701961194.81113,1.0,-3.0,-25.0,-3.0,8.0,9.0,5.0,-5.0
1701961194.81113,-6.0,-7.0,11.0,5.0,1.0,1.0,-3.0,-17.0
1701961194.81113,2.0,14.0,25.0,1.0,-7.0,-8.0,-8.0,-6.0
1701961194.81113,1.0,4.0,22.0,9.0,2.0,0.0,7.0,17.0
1701961194.831222,1.0,-10.0,-44.0,-5.0,0.0,-1.0,-1.0,-1.0
1701961194.831222,-6.0,-12.0,-11.0,-13.0,4.0,11.0,-3.0,-4.0
1701961194.831222,1.0,0.0,21.0,11.0,2.0,2.0,0.0,3.0
1701961194.831222,2.0,5.0,-13.0,-22.0,-7.0,-2.0,1.0,-5.0
1701961194.8601542,-2.0,-2.0,6.0,5.0,0.0,-2.0,1.0,0.0
1701961194.8601542,0.0,6.0,1.0,4.0,-1.0,-2.0,-5.0,1.0
1701961194.8601542,2.0,2.0,-3.0,0.0,-4.0,-3.0,-2.0,-2.0
1701961194.8601542,0.0,-5.0,11.0,5.0,-2.0,-3.0,0.0,2.0
1701961194.871,2.0,-5.0,-15.0,-8.0,-4.0,-2.0,-3.0,-5.0
1701961194.871,2.0,3.0,-4.0,-4.0,-5.0,-5.0,-4.0,3.0
1701961194.8720133,-4.0,6.0,10.0,-1.0,-5.0,-8.0,-4.0,-3.0
1701961194.8720133,-3.0,-4.0,-4.0,6.0,6.0,6.0,3.0,1.0
1701961194.8838217,-7.0,-17.0,-14.0,-9.0,1.0,3.0,0.0,1.0
1701961194.8838217,1.0,8.0,15.0,8.0,-3.0,-10.0,-4.0,-3.0
1701961194.8938205,-13.0,-26.0,-21.0,-17.0,5.0,13.0,10.0,0.0
1701961194.8938205,4.0,7.0,12.0,3.0,-1.0,-2.0,-2.0,4.0
1701961194.9138253,-1.0,3.0,-4.0,0.0,-2.0,-3.0,4.0,6.0
1701961194.9138253,-2.0,-2.0,-3.0,-12.0,-4.0,-1.0,1.0,-5.0
1701961194.9138253,10.0,3.0,-19.0,-10.0,-10.0,-11.0,-5.0,5.0
1701961194.9138253,0.0,2.0,13.0,1.0,0.0,1.0,2.0,2.0
1701961194.9240825,-7.0,-8.0,-7.0,-4.0,1.0,6.0,7.0,19.0
1701961194.9240825,3.0,6.0,10.0,1.0,-2.0,-4.0,-12.0,-29.0
1701961194.9240825,6.0,11.0,11.0,7.0,4.0,0.0,-2.0,5.0
1701961194.9240825,-6.0,-8.0,0.0,-2.0,0.0,1.0,1.0,-3.0
1701961194.963813,2.0,7.0,-4.0,-9.0,-10.0,-10.0,-4.0,-3.0
1701961194.963813,-6.0,-12.0,-10.0,-1.0,-1.0,-1.0,0.0,5.0
1701961194.963813,0.0,5.0,8.0,3.0,-2.0,-1.0,-3.0,-6.0
1701961194.963813,0.0,-1.0,-8.0,1.0,-1.0,-2.0,0.0,-2.0
1701961194.963813,1.0,6.0,17.0,9.0,2.0,0.0,-3.0,-8.0
1701961194.963813,-6.0,-10.0,-12.0,-5.0,-2.0,-1.0,0.0,4.0
1701961194.9738202,-4.0,-4.0,-3.0,-1.0,1.0,2.0,-2.0,-6.0
1701961194.9738202,-5.0,5.0,14.0,6.0,0.0,0.0,3.0,2.0
1701961194.984209,-2.0,-4.0,-2.0,-2.0,0.0,2.0,-4.0,-8.0
1701961194.984209,0.0,0.0,-16.0,-15.0,-4.0,-1.0,0.0,3.0
1701961194.984209,2.0,6.0,6.0,4.0,-1.0,-3.0,-3.0,4.0
1701961194.984209,1.0,2.0,-10.0,0.0,-1.0,-2.0,0.0,-4.0
1701961195.0038157,-3.0,0.0,21.0,8.0,0.0,-2.0,-1.0,-5.0
1701961195.0038157,-2.0,-7.0,-5.0,4.0,1.0,0.0,-2.0,5.0
1701961195.0138156,1.0,0.0,2.0,-3.0,-2.0,-4.0,-1.0,-4.0
1701961195.0138156,-1.0,0.0,-5.0,-1.0,0.0,0.0,0.0,0.0
1701961195.024247,-2.0,-7.0,-5.0,-8.0,-1.0,-2.0,-2.0,-5.0
1701961195.024247,1.0,3.0,3.0,1.0,-1.0,-1.0,3.0,5.0
1701961195.0342047,-2.0,2.0,-2.0,4.0,0.0,-2.0,-3.0,-4.0
1701961195.0342047,0.0,4.0,6.0,1.0,0.0,-3.0,-2.0,-1.0
1701961195.0440845,-1.0,-2.0,-5.0,-2.0,-2.0,-2.0,-1.0,-2.0
1701961195.0440845,-2.0,-1.0,3.0,3.0,1.0,0.0,0.0,1.0
1701961195.0440845,-2.0,-2.0,-2.0,-5.0,-2.0,0.0,-1.0,-2.0
1701961195.0440845,0.0,1.0,1.0,-1.0,-1.0,-4.0,-4.0,-2.0
1701961195.0642087,-1.0,0.0,-6.0,-6.0,1.0,1.0,-2.0,-1.0
1701961195.0642087,5.0,6.0,4.0,5.0,-1.0,-4.0,-5.0,1.0
1701961195.0738192,-2.0,1.0,4.0,1.0,-1.0,1.0,0.0,-1.0
1701961195.0738192,-6.0,-10.0,5.0,3.0,0.0,-1.0,0.0,2.0
1701961195.083814,-13.0,-14.0,-4.0,-1.0,0.0,3.0,0.0,-6.0
1701961195.083814,0.0,1.0,0.0,-2.0,-1.0,0.0,1.0,-1.0
1701961195.0938165,1.0,1.0,2.0,0.0,1.0,-2.0,-1.0,1.0
1701961195.0938165,0.0,2.0,-2.0,-4.0,-3.0,0.0,-3.0,-4.0
1701961195.1041253,-6.0,-5.0,-2.0,2.0,1.0,-1.0,-2.0,-4.0
1701961195.1041253,-1.0,1.0,2.0,-2.0,0.0,1.0,1.0,0.0
1701961195.1041253,-2.0,1.0,3.0,0.0,2.0,1.0,2.0,0.0
1701961195.1138184,-1.0,-2.0,-5.0,-6.0,-4.0,-2.0,-1.0,0.0
1701961195.1238184,2.0,1.0,18.0,8.0,0.0,-2.0,-2.0,0.0
1701961195.1238184,-1.0,-6.0,-35.0,-19.0,-4.0,-2.0,-1.0,0.0
1701961195.1338136,1.0,1.0,7.0,3.0,-2.0,-1.0,-2.0,-2.0
1701961195.1338136,0.0,2.0,1.0,2.0,-1.0,-2.0,-2.0,-4.0
1701961195.1441088,6.0,8.0,-4.0,7.0,2.0,0.0,-1.0,2.0
1701961195.1441088,-8.0,-10.0,12.0,9.0,3.0,1.0,-4.0,-3.0
1701961195.1541176,2.0,5.0,6.0,2.0,0.0,1.0,0.0,-1.0
1701961195.1541176,5.0,8.0,18.0,5.0,3.0,3.0,2.0,2.0
1701961195.1639254,4.0,1.0,-11.0,-6.0,-1.0,-2.0,0.0,-2.0
1701961195.1639254,-7.0,-9.0,9.0,6.0,-2.0,0.0,-4.0,-3.0
1701961195.1639254,-22.0,-11.0,-22.0,-5.0,2.0,-35.0,-4.0,-6.0
1701961195.1639254,-7.0,-24.0,-32.0,-16.0,-5.0,41.0,3.0,-6.0
1701961195.1938164,9.0,19.0,11.0,-1.0,0.0,-37.0,4.0,4.0
1701961195.1938164,-11.0,-22.0,-2.0,-6.0,-4.0,74.0,-15.0,-7.0
1701961195.1938164,17.0,32.0,79.0,21.0,17.0,34.0,31.0,13.0
1701961195.1938164,4.0,7.0,-73.0,-7.0,-1.0,-22.0,-2.0,2.0
1701961195.20386,-5.0,-4.0,79.0,8.0,-10.0,-38.0,-24.0,-7.0
1701961195.20386,-6.0,-11.0,-19.0,-10.0,-10.0,-33.0,-4.0,-5.0
1701961195.2140155,-2.0,-4.0,-20.0,-9.0,2.0,51.0,11.0,0.0
1701961195.2140155,4.0,17.0,-5.0,10.0,-1.0,-37.0,0.0,3.0
1701961195.2338152,1.0,-20.0,-51.0,-10.0,4.0,64.0,6.0,0.0
1701961195.2338152,-1.0,9.0,14.0,5.0,-5.0,-67.0,-16.0,-4.0
1701961195.2338152,3.0,-3.0,-2.0,-7.0,-4.0,16.0,-8.0,-2.0
1701961195.2338152,-8.0,-6.0,11.0,-9.0,-2.0,5.0,9.0,-4.0
1701961195.2538197,-7.0,-7.0,-14.0,-1.0,-3.0,-15.0,-5.0,-3.0
1701961195.2538197,6.0,22.0,28.0,4.0,3.0,7.0,7.0,3.0
1701961195.2538197,1.0,-13.0,-34.0,1.0,-3.0,-6.0,1.0,2.0
1701961195.2538197,-4.0,-8.0,14.0,-5.0,-5.0,-10.0,-12.0,-5.0
1701961195.264123,-8.0,-4.0,-10.0,-5.0,-3.0,-1.0,-2.0,-5.0
1701961195.264123,14.0,7.0,-10.0,-4.0,3.0,9.0,8.0,3.0
1701961195.2741053,5.0,10.0,16.0,5.0,0.0,-17.0,-7.0,0.0
1701961195.2741053,-5.0,-11.0,-5.0,2.0,-1.0,-3.0,-5.0,-4.0
1701961195.3138137,4.0,7.0,30.0,8.0,4.0,10.0,3.0,1.0
1701961195.3138137,3.0,8.0,-5.0,-3.0,0.0,2.0,8.0,2.0
1701961195.3138137,-4.0,-11.0,-2.0,0.0,-8.0,-21.0,-14.0,-4.0
1701961195.3138137,1.0,3.0,0.0,0.0,0.0,4.0,-3.0,-1.0
1701961195.3138137,0.0,-2.0,-14.0,-7.0,1.0,9.0,7.0,-1.0
1701961195.3138137,8.0,11.0,14.0,9.0,-3.0,-9.0,1.0,3.0
1701961195.3138137,-18.0,-26.0,-2.0,-4.0,-11.0,-16.0,-10.0,-11.0
1701961195.3138137,-4.0,-1.0,3.0,0.0,4.0,12.0,2.0,3.0
1701961195.3242054,1.0,4.0,-4.0,-3.0,-2.0,0.0,0.0,-1.0
1701961195.3242054,-1.0,-3.0,-8.0,-3.0,-3.0,-6.0,-2.0,-1.0
1701961195.3342335,3.0,5.0,-3.0,-1.0,-2.0,-4.0,-3.0,1.0
1701961195.3342335,3.0,4.0,27.0,3.0,-2.0,1.0,2.0,-1.0
1701961195.3538148,-4.0,-10.0,-37.0,-7.0,-6.0,-7.0,-3.0,-5.0
1701961195.3538148,-3.0,-2.0,18.0,4.0,2.0,2.0,0.0,1.0
1701961195.3538148,1.0,-1.0,-18.0,-7.0,-2.0,-3.0,-3.0,-2.0
1701961195.3538148,-1.0,-3.0,6.0,-1.0,1.0,-3.0,-4.0,-2.0
1701961195.364064,-2.0,2.0,10.0,0.0,0.0,0.0,-1.0,-1.0
1701961195.3738217,-2.0,-3.0,10.0,3.0,6.0,7.0,4.0,0.0
1701961195.3738217,-1.0,-1.0,-30.0,2.0,-5.0,-8.0,-2.0,-1.0
1701961195.3738217,1.0,-2.0,-9.0,3.0,-2.0,-2.0,-2.0,1.0
1701961195.3864186,-2.0,7.0,10.0,-10.0,-5.0,0.0,0.0,1.0
1701961195.3874407,-6.0,-11.0,-60.0,-18.0,-1.0,0.0,1.0,0.0
1701961195.4133737,4.0,6.0,24.0,2.0,2.0,-3.0,-2.0,0.0
1701961195.4133737,0.0,2.0,13.0,5.0,0.0,-1.0,0.0,0.0
1701961195.4133737,-2.0,-6.0,-11.0,-2.0,-5.0,0.0,-1.0,0.0
1701961195.4133737,-5.0,-2.0,11.0,7.0,1.0,-1.0,0.0,-5.0
1701961195.4133737,-1.0,-1.0,-4.0,-4.0,-2.0,-3.0,0.0,0.0
1701961195.4133737,-1.0,-1.0,2.0,-1.0,-1.0,1.0,-2.0,0.0
1701961195.426511,3.0,1.0,-2.0,-3.0,-3.0,0.0,0.0,1.0
1701961195.426511,-3.0,-10.0,-7.0,-7.0,-3.0,0.0,-2.0,-3.0
1701961195.426511,-3.0,0.0,11.0,-3.0,-3.0,-2.0,-3.0,-3.0
1701961195.426511,0.0,-1.0,-4.0,-2.0,-1.0,-1.0,-1.0,-1.0
1701961195.4465358,0.0,-2.0,-12.0,-1.0,0.0,-3.0,-1.0,-1.0
1701961195.4465358,1.0,1.0,3.0,2.0,-1.0,-2.0,-1.0,0.0
1701961195.4765332,-2.0,0.0,-7.0,-4.0,0.0,2.0,-2.0,-1.0
1701961195.4765332,0.0,5.0,17.0,0.0,0.0,-2.0,-1.0,-3.0
1701961195.4765332,-2.0,-13.0,-34.0,-3.0,-1.0,-3.0,0.0,0.0
1701961195.4765332,-3.0,-3.0,7.0,-2.0,0.0,-2.0,-2.0,-1.0
1701961195.4765332,-1.0,1.0,4.0,0.0,-1.0,-2.0,0.0,-2.0
1701961195.4765332,-3.0,-2.0,4.0,-1.0,-3.0,-1.0,-2.0,-1.0
1701961195.486821,-8.0,3.0,7.0,7.0,5.0,2.0,1.0,-3.0
1701961195.486821,0.0,-1.0,2.0,-1.0,1.0,0.0,2.0,-1.0
1701961195.486821,-5.0,-6.0,-8.0,-2.0,1.0,-2.0,-1.0,0.0
1701961195.486821,0.0,-2.0,4.0,-1.0,-3.0,-1.0,-1.0,-1.0
1701961195.5065322,0.0,0.0,-2.0,-2.0,-3.0,-3.0,-2.0,-1.0
1701961195.5065322,-2.0,2.0,1.0,1.0,-2.0,-2.0,0.0,1.0
1701961195.5165336,-2.0,-2.0,1.0,-3.0,-3.0,-2.0,-2.0,0.0
1701961195.5165336,2.0,-2.0,-10.0,1.0,0.0,-1.0,0.0,-1.0
1701961195.5265431,-5.0,-7.0,6.0,-3.0,1.0,1.0,-2.0,-1.0
1701961195.5265431,1.0,2.0,0.0,1.0,-2.0,-1.0,-3.0,0.0
1701961195.5366464,4.0,0.0,-5.0,-2.0,-1.0,0.0,-2.0,0.0
1701961195.5366464,-4.0,1.0,-4.0,2.0,4.0,3.0,2.0,-1.0
1701961195.5469005,1.0,-1.0,4.0,-2.0,-4.0,-1.0,-1.0,-1.0
1701961195.5469005,-1.0,2.0,7.0,3.0,-3.0,-3.0,-1.0,-3.0
1701961195.5469005,2.0,1.0,-3.0,-1.0,1.0,-2.0,0.0,-1.0
1701961195.5469005,3.0,0.0,-6.0,-4.0,-3.0,-2.0,-1.0,0.0
1701961195.5765324,-4.0,-3.0,7.0,-5.0,0.0,0.0,-3.0,-3.0
1701961195.5765324,-3.0,0.0,0.0,1.0,5.0,6.0,2.0,-2.0
1701961195.5765324,-1.0,-4.0,3.0,3.0,1.0,0.0,0.0,-1.0
1701961195.5765324,-2.0,5.0,4.0,-4.0,-4.0,-4.0,-2.0,0.0
1701961195.5865786,2.0,-1.0,-6.0,2.0,-2.0,-3.0,-2.0,-1.0
1701961195.5865786,5.0,4.0,-21.0,-6.0,-6.0,-7.0,-3.0,2.0
1701961195.596609,-3.0,-7.0,0.0,0.0,7.0,9.0,2.0,-1.0
1701961195.596609,-1.0,-4.0,-18.0,-11.0,-1.0,-2.0,-1.0,-3.0
1701961195.6068256,1.0,6.0,17.0,6.0,-1.0,-2.0,0.0,-1.0
1701961195.6068256,1.0,3.0,10.0,3.0,2.0,-1.0,-1.0,0.0
1701961195.6068256,3.0,4.0,-7.0,2.0,-2.0,-5.0,-2.0,-1.0
1701961195.6068256,-5.0,-6.0,15.0,-2.0,-1.0,2.0,0.0,-1.0
1701961195.6265314,0.0,0.0,-8.0,-1.0,1.0,1.0,2.0,-1.0
1701961195.6365376,-2.0,-8.0,-23.0,-1.0,-2.0,-5.0,-2.0,0.0
1701961195.6365376,-7.0,-3.0,30.0,15.0,0.0,-4.0,-5.0,-5.0
1701961195.6365376,-3.0,-5.0,0.0,0.0,0.0,-3.0,-3.0,-1.0
1701961195.6467927,5.0,7.0,9.0,0.0,-4.0,-5.0,-4.0,0.0
1701961195.6467927,3.0,7.0,-1.0,8.0,1.0,-6.0,-1.0,0.0
1701961195.6566067,-6.0,-10.0,-29.0,-28.0,-3.0,2.0,-1.0,-1.0
1701961195.6566067,-2.0,-7.0,-5.0,-2.0,-5.0,-4.0,-4.0,-4.0
1701961195.666812,-2.0,-3.0,0.0,4.0,2.0,3.0,2.0,0.0
1701961195.666812,3.0,9.0,28.0,9.0,1.0,1.0,0.0,1.0
1701961195.666812,-2.0,13.0,2.0,5.0,-1.0,-6.0,0.0,2.0
1701961195.666812,2.0,4.0,-9.0,4.0,3.0,2.0,0.0,-2.0
1701961195.6965306,-4.0,-2.0,5.0,4.0,0.0,1.0,-2.0,-3.0
1701961195.6965306,2.0,-3.0,-9.0,-17.0,-3.0,1.0,2.0,-3.0
1701961195.6965306,14.0,16.0,14.0,-3.0,-6.0,-8.0,-8.0,7.0
1701961195.6965306,-5.0,-15.0,-9.0,-2.0,4.0,8.0,5.0,1.0
1701961195.706559,-2.0,-5.0,-8.0,1.0,-3.0,-4.0,-2.0,-3.0
1701961195.706559,-4.0,-7.0,0.0,2.0,4.0,4.0,2.0,1.0
1701961195.716534,-3.0,2.0,7.0,3.0,-3.0,-4.0,0.0,-4.0
1701961195.716534,0.0,8.0,0.0,2.0,0.0,-4.0,0.0,1.0
1701961195.726534,2.0,2.0,0.0,-4.0,-2.0,-3.0,-3.0,1.0
1701961195.726534,-7.0,-8.0,-5.0,-4.0,-2.0,1.0,-2.0,-1.0
1701961195.726534,-5.0,-8.0,-4.0,1.0,-1.0,1.0,2.0,-2.0
1701961195.726534,-1.0,0.0,-5.0,-7.0,-4.0,-4.0,-5.0,-4.0
1701961195.7465315,-8.0,-8.0,10.0,4.0,-1.0,1.0,0.0,-2.0
1701961195.7565374,1.0,-9.0,-9.0,-5.0,-5.0,-3.0,-2.0,-1.0
1701961195.7565374,4.0,1.0,-14.0,-4.0,-3.0,-2.0,-3.0,0.0
1701961195.7565374,-2.0,0.0,9.0,3.0,-1.0,-2.0,0.0,0.0
1701961195.7668006,0.0,6.0,4.0,0.0,4.0,1.0,4.0,-2.0
1701961195.7668006,-2.0,-4.0,-10.0,-9.0,-5.0,-1.0,-3.0,1.0
1701961195.7865357,-2.0,-6.0,6.0,-2.0,-2.0,1.0,0.0,-4.0
1701961195.7865357,0.0,-8.0,-34.0,-10.0,-5.0,-2.0,-2.0,-3.0
1701961195.7865357,3.0,10.0,3.0,0.0,-1.0,-1.0,1.0,1.0
1701961195.7865357,-2.0,0.0,12.0,0.0,-3.0,-1.0,1.0,-2.0
1701961195.7865357,-1.0,-1.0,1.0,2.0,6.0,4.0,2.0,0.0
1701961195.7865357,-4.0,-4.0,8.0,-3.0,-2.0,-3.0,-4.0,-2.0
1701961195.8165298,-8.0,-18.0,-23.0,-14.0,-1.0,3.0,0.0,-4.0
1701961195.8165298,7.0,9.0,2.0,4.0,-1.0,-6.0,-4.0,-3.0
1701961195.8165298,-6.0,-11.0,-11.0,4.0,3.0,5.0,0.0,-1.0
1701961195.8165298,-1.0,1.0,15.0,-5.0,-3.0,-4.0,-3.0,-1.0
1701961195.8265326,-7.0,-5.0,-21.0,-2.0,-5.0,-4.0,-5.0,-2.0
1701961195.8265326,-9.0,-3.0,4.0,1.0,-1.0,-6.0,-6.0,-8.0
1701961195.8365333,-8.0,-18.0,-23.0,-9.0,3.0,6.0,3.0,-1.0
1701961195.8365333,3.0,9.0,17.0,6.0,2.0,0.0,6.0,2.0
1701961195.8465312,3.0,-3.0,-8.0,-8.0,-5.0,-2.0,-10.0,3.0
1701961195.8465312,8.0,13.0,13.0,8.0,3.0,2.0,2.0,1.0
1701961195.8465312,1.0,6.0,0.0,-1.0,-8.0,-7.0,-4.0,-5.0
1701961195.8465312,-14.0,-19.0,-16.0,-9.0,-1.0,9.0,12.0,24.0
1701961195.8669236,27.0,45.0,40.0,36.0,-2.0,-30.0,-23.0,-9.0
1701961195.8669236,-19.0,-40.0,-28.0,-17.0,9.0,18.0,2.0,-13.0
1701961195.8765342,1.0,-5.0,-10.0,-10.0,-9.0,-7.0,-2.0,-3.0
1701961195.8765342,13.0,30.0,22.0,12.0,-1.0,-7.0,4.0,14.0
1701961195.886916,-9.0,-18.0,-32.0,-31.0,-11.0,-1.0,8.0,-3.0
1701961195.886916,7.0,16.0,18.0,19.0,3.0,-1.0,3.0,31.0
1701961195.896775,-2.0,8.0,35.0,32.0,15.0,-4.0,-4.0,-41.0
1701961195.896775,-16.0,-47.0,-39.0,-15.0,14.0,28.0,9.0,18.0
1701961195.9068518,7.0,-2.0,-17.0,-9.0,0.0,6.0,11.0,19.0
1701961195.9068518,17.0,38.0,20.0,9.0,-11.0,-15.0,-3.0,4.0
1701961195.9068518,4.0,10.0,15.0,15.0,11.0,2.0,4.0,5.0
1701961195.9068518,-1.0,1.0,5.0,-3.0,-5.0,0.0,-9.0,-28.0
1701961195.93564,-7.0,-10.0,0.0,-4.0,4.0,-4.0,5.0,28.0
1701961195.93564,-6.0,-3.0,-14.0,-16.0,0.0,23.0,-2.0,-22.0
1701961195.937073,21.0,23.0,17.0,1.0,-1.0,3.0,-7.0,21.0
1701961195.937073,1.0,5.0,7.0,8.0,-5.0,-13.0,-16.0,-26.0
1701961195.949579,-11.0,-24.0,-33.0,-31.0,5.0,24.0,13.0,0.0
1701961195.949579,-11.0,-1.0,6.0,-3.0,-5.0,-7.0,0.0,5.0
1701961195.949579,12.0,17.0,11.0,17.0,-2.0,-18.0,-7.0,7.0
1701961195.949579,-13.0,-48.0,-12.0,-3.0,8.0,12.0,3.0,8.0
1701961195.9695797,-4.0,-4.0,-36.0,-17.0,-13.0,-3.0,-8.0,-24.0
1701961195.9695797,7.0,31.0,35.0,37.0,-14.0,-46.0,-17.0,-10.0
1701961195.9695797,-45.0,-80.0,-59.0,-40.0,1.0,24.0,15.0,6.0
1701961195.9695797,19.0,21.0,-1.0,-6.0,-10.0,-14.0,-18.0,-12.0
1701961195.9898496,24.0,54.0,63.0,48.0,21.0,6.0,8.0,2.0
1701961195.9898496,-17.0,-56.0,-61.0,-42.0,-2.0,21.0,10.0,3.0
1701961195.9898496,0.0,-6.0,-14.0,-14.0,-13.0,-8.0,1.0,17.0
1701961195.9898496,3.0,27.0,18.0,13.0,-1.0,-14.0,-4.0,-17.0
1701961196.0195868,-11.0,-20.0,-7.0,-4.0,6.0,10.0,3.0,8.0
1701961196.0195868,1.0,-11.0,-13.0,-2.0,1.0,-2.0,-7.0,-19.0
1701961196.0295804,3.0,-2.0,-10.0,-17.0,-7.0,8.0,14.0,30.0
1701961196.0295804,-5.0,5.0,1.0,-3.0,-5.0,-6.0,-23.0,-69.0
1701961196.03983,4.0,-1.0,5.0,1.0,-2.0,4.0,3.0,17.0
1701961196.03983,-3.0,-6.0,-13.0,-11.0,1.0,3.0,5.0,13.0
1701961196.03983,5.0,21.0,25.0,10.0,-5.0,-11.0,-8.0,-12.0
1701961196.03983,1.0,4.0,9.0,2.0,0.0,-1.0,2.0,16.0
1701961196.0498474,-7.0,2.0,-3.0,-2.0,-12.0,-15.0,-11.0,-17.0
1701961196.0498474,1.0,-4.0,2.0,-4.0,5.0,12.0,4.0,8.0
1701961196.0498474,4.0,17.0,10.0,3.0,-1.0,-3.0,-8.0,-14.0
1701961196.0498474,2.0,8.0,5.0,2.0,0.0,2.0,8.0,20.0
1701961196.0895798,-7.0,-7.0,-3.0,-1.0,-8.0,-11.0,-16.0,-45.0
1701961196.0895798,3.0,-1.0,-10.0,-2.0,4.0,5.0,11.0,32.0
1701961196.0895798,0.0,8.0,18.0,0.0,-10.0,-7.0,-12.0,-19.0
1701961196.0895798,4.0,11.0,5.0,12.0,6.0,3.0,5.0,11.0
1701961196.0895798,-7.0,-18.0,-13.0,-10.0,1.0,8.0,-1.0,-8.0
1701961196.0895798,1.0,9.0,7.0,6.0,-1.0,-2.0,-6.0,-14.0
1701961196.0895798,-9.0,-23.0,-24.0,-16.0,-6.0,-5.0,4.0,20.0
1701961196.0895798,5.0,15.0,14.0,13.0,1.0,0.0,-7.0,-19.0
1701961196.1098514,12.0,29.0,15.0,20.0,7.0,-5.0,0.0,15.0
1701961196.1098514,-16.0,-32.0,8.0,0.0,14.0,22.0,8.0,-6.0
1701961196.1098514,-1.0,-8.0,-23.0,-10.0,-2.0,4.0,2.0,1.0
1701961196.1098514,-4.0,5.0,1.0,-8.0,-10.0,-7.0,2.0,10.0
1701961196.129581,4.0,12.0,18.0,21.0,7.0,-2.0,1.0,2.0
1701961196.129581,-5.0,-9.0,-7.0,-8.0,-5.0,-3.0,-2.0,-1.0
1701961196.129581,-1.0,-3.0,1.0,2.0,-1.0,-5.0,-6.0,-14.0
1701961196.129581,-6.0,-16.0,-25.0,-13.0,5.0,14.0,5.0,7.0
1701961196.1498466,2.0,7.0,19.0,11.0,0.0,-7.0,-4.0,1.0
1701961196.1498466,-12.0,-6.0,1.0,2.0,-1.0,-2.0,-1.0,-8.0
1701961196.1498466,-3.0,-3.0,3.0,11.0,8.0,4.0,-1.0,-6.0
1701961196.1498466,-5.0,-14.0,-4.0,-25.0,-5.0,0.0,5.0,10.0
1701961196.16969,-4.0,-6.0,-11.0,-6.0,-8.0,-5.0,-10.0,-2.0
1701961196.16969,15.0,30.0,19.0,21.0,-4.0,-16.0,-5.0,-5.0
1701961196.16969,-8.0,-24.0,-7.0,-8.0,10.0,24.0,6.0,-3.0
1701961196.16969,-1.0,1.0,4.0,5.0,-3.0,-5.0,9.0,47.0
1701961196.1995783,-1.0,0.0,-3.0,-12.0,-2.0,2.0,-11.0,-33.0
1701961196.1995783,-1.0,-5.0,-12.0,-17.0,-12.0,-3.0,1.0,2.0
1701961196.1995783,-2.0,-4.0,-15.0,-7.0,-6.0,-7.0,-10.0,-10.0
1701961196.1995783,4.0,15.0,24.0,13.0,-1.0,-5.0,2.0,-5.0
1701961196.2099361,-15.0,-34.0,-30.0,-21.0,-5.0,1.0,-1.0,-3.0
1701961196.2099361,8.0,22.0,7.0,10.0,-1.0,-9.0,-4.0,-2.0
1701961196.2099361,0.0,11.0,25.0,7.0,5.0,5.0,5.0,1.0
1701961196.2099361,-5.0,-15.0,-21.0,-14.0,-6.0,-1.0,-14.0,-19.0
1701961196.23958,1.0,3.0,10.0,5.0,-4.0,-5.0,3.0,9.0
1701961196.23958,-3.0,1.0,10.0,5.0,3.0,4.0,0.0,-6.0
1701961196.23958,-4.0,-10.0,-17.0,-8.0,-8.0,-7.0,6.0,7.0
1701961196.23958,5.0,6.0,-10.0,3.0,2.0,0.0,0.0,5.0
1701961196.2495842,1.0,-11.0,2.0,-14.0,-2.0,3.0,0.0,9.0
1701961196.2495842,1.0,3.0,-4.0,-2.0,-5.0,-9.0,-6.0,-7.0
1701961196.2495842,3.0,15.0,4.0,10.0,-5.0,-11.0,-6.0,-2.0
1701961196.2495842,-12.0,-12.0,-6.0,-4.0,-4.0,-4.0,-1.0,-3.0
1701961196.2698975,3.0,3.0,9.0,2.0,-1.0,-2.0,6.0,4.0
1701961196.2698975,-1.0,2.0,23.0,3.0,0.0,2.0,3.0,3.0
1701961196.2698975,9.0,16.0,-5.0,-3.0,-1.0,-3.0,-7.0,0.0
1701961196.2698975,-2.0,-5.0,-9.0,-3.0,-4.0,-3.0,-4.0,-15.0
1701961196.3095834,-6.0,-2.0,-6.0,-2.0,-4.0,-3.0,-5.0,1.0
1701961196.3095834,3.0,-1.0,5.0,5.0,-1.0,-3.0,-3.0,6.0
1701961196.3095834,7.0,27.0,23.0,16.0,-2.0,-16.0,-9.0,-13.0
1701961196.3095834,-5.0,-13.0,-2.0,-3.0,10.0,16.0,9.0,1.0
1701961196.3095834,-11.0,-19.0,-18.0,-16.0,-6.0,-3.0,-13.0,-17.0
1701961196.3095834,2.0,2.0,-9.0,-11.0,-7.0,-5.0,1.0,13.0
1701961196.3095834,3.0,5.0,13.0,11.0,-1.0,-5.0,-9.0,-15.0
1701961196.3095834,2.0,13.0,-6.0,-4.0,-5.0,-5.0,-3.0,-6.0
1701961196.3299828,2.0,10.0,16.0,8.0,1.0,-2.0,6.0,9.0
1701961196.3299828,-2.0,0.0,13.0,15.0,2.0,-7.0,-7.0,-13.0
1701961196.3299828,-11.0,-17.0,-10.0,-1.0,9.0,11.0,4.0,6.0
1701961196.3299828,-10.0,-22.0,-11.0,1.0,-4.0,-7.0,-13.0,-28.0
1701961196.3495803,5.0,-1.0,-10.0,-6.0,-2.0,3.0,5.0,21.0
1701961196.3495803,4.0,13.0,9.0,4.0,4.0,0.0,-3.0,-6.0
1701961196.3495803,-3.0,-20.0,-30.0,-16.0,-11.0,-3.0,8.0,19.0
1701961196.3495803,6.0,24.0,21.0,7.0,-2.0,-1.0,-9.0,-29.0
1701961196.3697016,-7.0,-21.0,-18.0,-7.0,-2.0,-2.0,3.0,2.0
1701961196.3697016,2.0,6.0,-16.0,-11.0,-1.0,7.0,2.0,-3.0
1701961196.3697016,2.0,6.0,12.0,1.0,4.0,7.0,10.0,10.0
1701961196.3697016,-1.0,-4.0,3.0,-2.0,-3.0,-6.0,0.0,12.0
1701961196.3899775,2.0,16.0,10.0,12.0,0.0,-3.0,-2.0,-3.0
1701961196.3899775,-4.0,-10.0,-5.0,-5.0,4.0,8.0,5.0,0.0
1701961196.3899775,-3.0,-1.0,-4.0,-7.0,-4.0,-3.0,-4.0,-20.0
1701961196.3899775,8.0,12.0,3.0,6.0,1.0,-4.0,-3.0,11.0
1701961196.41958,-6.0,-13.0,9.0,4.0,2.0,1.0,-5.0,12.0
1701961196.41958,-6.0,-15.0,-26.0,-11.0,-7.0,-6.0,-5.0,-8.0
1701961196.41958,-1.0,-4.0,-19.0,-9.0,-7.0,-4.0,-6.0,-7.0
1701961196.41958,-1.0,1.0,11.0,8.0,3.0,-6.0,-1.0,1.0
1701961196.4295814,7.0,20.0,22.0,0.0,8.0,17.0,11.0,1.0
1701961196.4295814,-2.0,-7.0,-23.0,-13.0,-6.0,-5.0,-7.0,-4.0
1701961196.4295814,-6.0,-16.0,-9.0,-8.0,-4.0,1.0,-1.0,-5.0
1701961196.4295814,2.0,0.0,-6.0,-2.0,-3.0,-2.0,4.0,13.0
1701961196.4528453,3.0,9.0,9.0,17.0,2.0,-6.0,-2.0,-6.0
1701961196.4528453,-11.0,-21.0,-4.0,-12.0,10.0,22.0,7.0,-7.0
1701961196.45431,-3.0,-6.0,-19.0,-12.0,-2.0,-2.0,-8.0,-12.0
1701961196.45431,2.0,7.0,5.0,-2.0,-5.0,-3.0,0.0,-2.0
1701961196.4753914,-4.0,-14.0,-9.0,-3.0,-4.0,-5.0,8.0,35.0
1701961196.4764137,3.0,4.0,11.0,6.0,-5.0,-9.0,-17.0,-31.0
1701961196.4774091,0.0,-1.0,-8.0,5.0,1.0,-5.0,2.0,10.0
1701961196.4774091,-7.0,-15.0,-15.0,-9.0,-1.0,6.0,0.0,-3.0
1701961196.4925249,-5.0,0.0,-5.0,-1.0,-1.0,-2.0,-1.0,-8.0
1701961196.4925249,1.0,10.0,9.0,3.0,-2.0,-3.0,3.0,20.0
1701961196.4925249,-1.0,-3.0,-23.0,-1.0,2.0,2.0,-5.0,-13.0
1701961196.4925249,-5.0,-13.0,2.0,-6.0,-6.0,-9.0,-5.0,-3.0
1701961196.5122902,1.0,8.0,6.0,-7.0,-7.0,-2.0,-2.0,-12.0
1701961196.5122902,-4.0,-5.0,-8.0,-2.0,-1.0,-3.0,-2.0,3.0
1701961196.5122902,-1.0,6.0,45.0,13.0,1.0,-2.0,-3.0,-4.0
1701961196.5122902,-1.0,3.0,-31.0,-7.0,4.0,4.0,2.0,-4.0
1701961196.5322876,-4.0,4.0,0.0,-2.0,-7.0,-9.0,-10.0,-11.0
1701961196.5322876,-5.0,-12.0,-23.0,-17.0,-4.0,1.0,2.0,2.0
1701961196.5322876,-1.0,0.0,11.0,1.0,-1.0,0.0,2.0,10.0
1701961196.5322876,5.0,14.0,28.0,11.0,0.0,-3.0,1.0,1.0
1701961196.55259,-3.0,-10.0,-14.0,-2.0,1.0,1.0,-1.0,-6.0
1701961196.55259,-1.0,-3.0,8.0,6.0,-4.0,-5.0,-1.0,0.0
1701961196.55259,2.0,2.0,-8.0,0.0,-1.0,1.0,3.0,4.0
1701961196.55259,1.0,4.0,13.0,-1.0,-3.0,-1.0,7.0,34.0
1701961196.5722911,-2.0,-1.0,-10.0,1.0,2.0,-3.0,-13.0,-44.0
1701961196.5722911,1.0,-7.0,5.0,2.0,-1.0,-3.0,2.0,25.0
1701961196.5722911,-3.0,-5.0,-1.0,-2.0,-1.0,1.0,-1.0,-6.0
1701961196.5722911,0.0,-2.0,8.0,7.0,-2.0,-2.0,-1.0,0.0
1701961196.5922852,0.0,3.0,1.0,-3.0,0.0,-1.0,0.0,4.0
1701961196.5922852,-6.0,-7.0,-9.0,-1.0,0.0,1.0,-3.0,-8.0
1701961196.5922852,0.0,2.0,6.0,-1.0,-2.0,-1.0,-1.0,-1.0
1701961196.5922852,6.0,9.0,1.0,-3.0,1.0,1.0,-11.0,-4.0
1701961196.6127083,-9.0,-18.0,-31.0,-10.0,-5.0,-2.0,-1.0,-4.0
1701961196.6127083,1.0,12.0,18.0,12.0,4.0,-1.0,-1.0,-5.0
1701961196.6127083,-2.0,-1.0,-2.0,-14.0,-3.0,-3.0,-1.0,2.0
1701961196.6127083,-5.0,-6.0,-17.0,-2.0,-1.0,0.0,1.0,-5.0
1701961196.6322856,2.0,4.0,18.0,8.0,2.0,0.0,-1.0,3.0
1701961196.6322856,-3.0,-1.0,4.0,-3.0,-3.0,-3.0,-4.0,-2.0
1701961196.6322856,-5.0,-8.0,-12.0,-7.0,-4.0,-7.0,-4.0,-3.0
1701961196.6322856,0.0,1.0,-2.0,-6.0,0.0,2.0,2.0,-3.0
1701961196.6522875,-4.0,-5.0,6.0,0.0,-3.0,0.0,1.0,2.0
1701961196.6522875,-2.0,-1.0,-6.0,2.0,-3.0,-12.0,1.0,-1.0
1701961196.6522875,5.0,13.0,11.0,8.0,2.0,11.0,-4.0,0.0
1701961196.6522875,-10.0,-22.0,-21.0,-12.0,-6.0,-6.0,-2.0,-7.0
1701961196.6726885,-2.0,-2.0,-2.0,-3.0,0.0,4.0,1.0,3.0
1701961196.6726885,2.0,4.0,4.0,0.0,-1.0,-1.0,-1.0,-1.0
1701961196.6726885,1.0,0.0,0.0,1.0,-2.0,-10.0,-1.0,-1.0
1701961196.6726885,1.0,3.0,19.0,3.0,1.0,-3.0,2.0,-1.0
1701961196.6922846,-2.0,-8.0,-31.0,-9.0,-3.0,2.0,-3.0,-1.0
1701961196.6922846,-1.0,-3.0,-8.0,1.0,0.0,-10.0,4.0,-2.0
1701961196.6922846,0.0,1.0,8.0,-2.0,3.0,21.0,2.0,-1.0
1701961196.6922846,2.0,10.0,0.0,9.0,2.0,7.0,3.0,2.0
1701961196.7124736,-2.0,-8.0,-4.0,-7.0,-5.0,-6.0,-4.0,2.0
1701961196.7124736,0.0,-3.0,10.0,-2.0,-4.0,-6.0,-5.0,-3.0
1701961196.7124736,-4.0,-5.0,-24.0,-9.0,-4.0,-20.0,-10.0,-5.0
1701961196.7124736,2.0,5.0,13.0,13.0,2.0,-9.0,-4.0,-2.0
1701961196.7326066,4.0,5.0,12.0,5.0,1.0,-7.0,12.0,4.0
1701961196.7326066,-3.0,-7.0,-13.0,-6.0,0.0,38.0,-6.0,-5.0
1701961196.7326066,2.0,8.0,18.0,5.0,2.0,11.0,7.0,5.0
1701961196.7326066,-5.0,-13.0,-14.0,-9.0,-3.0,1.0,-3.0,-2.0
1701961196.762288,-1.0,-2.0,-4.0,-6.0,-6.0,-15.0,-5.0,-2.0
1701961196.762288,-1.0,-1.0,-6.0,-3.0,-2.0,-9.0,2.0,1.0
1701961196.762288,0.0,4.0,15.0,2.0,-1.0,-3.0,0.0,0.0
1701961196.762288,-2.0,1.0,-27.0,-7.0,-2.0,-2.0,-2.0,-3.0
1701961196.7723181,0.0,-6.0,10.0,3.0,-2.0,2.0,-2.0,-1.0
1701961196.7723181,-2.0,-1.0,-2.0,3.0,1.0,-2.0,0.0,-1.0
1701961196.7723181,-1.0,-2.0,-3.0,-5.0,-2.0,-3.0,-4.0,-1.0
1701961196.7723181,2.0,1.0,8.0,2.0,1.0,-3.0,1.0,3.0
1701961196.7926264,-3.0,-3.0,-19.0,-10.0,-1.0,5.0,0.0,-1.0
1701961196.7926264,1.0,2.0,7.0,3.0,0.0,-1.0,0.0,-2.0
1701961196.7926264,0.0,-3.0,4.0,-1.0,-1.0,-5.0,0.0,0.0
1701961196.7926264,-4.0,0.0,-9.0,-5.0,-4.0,-2.0,-3.0,-4.0
1701961196.8122857,0.0,9.0,44.0,7.0,3.0,3.0,-1.0,0.0
1701961196.8122857,0.0,-2.0,-10.0,3.0,0.0,-4.0,-1.0,-1.0
1701961196.8122857,-2.0,-9.0,-22.0,-1.0,-2.0,-4.0,-1.0,-1.0
1701961196.8122857,1.0,-2.0,-4.0,-7.0,-2.0,0.0,0.0,0.0
1701961196.8325856,-3.0,-2.0,0.0,-4.0,-2.0,2.0,-4.0,-3.0
1701961196.8325856,0.0,4.0,13.0,1.0,-2.0,-4.0,-1.0,-1.0
1701961196.8325856,0.0,2.0,-6.0,-3.0,-1.0,-2.0,1.0,1.0
1701961196.8325856,0.0,-3.0,1.0,2.0,0.0,3.0,0.0,-1.0
1701961196.8722835,0.0,0.0,-16.0,0.0,0.0,-3.0,0.0,0.0
1701961196.8722835,-2.0,0.0,14.0,-2.0,-2.0,-1.0,0.0,-1.0
1701961196.8722835,0.0,-1.0,-4.0,-1.0,-1.0,0.0,0.0,-2.0
1701961196.8722835,0.0,-3.0,2.0,-1.0,-1.0,0.0,-1.0,-1.0
1701961196.8722835,0.0,4.0,1.0,0.0,-1.0,-1.0,-3.0,0.0
1701961196.8722835,-1.0,-4.0,-8.0,-3.0,-2.0,-1.0,-1.0,-1.0
1701961196.8722835,-2.0,-3.0,-3.0,-1.0,-1.0,-2.0,0.0,-1.0
1701961196.8722835,-2.0,-1.0,8.0,1.0,-1.0,-1.0,-1.0,1.0
1701961196.8926115,0.0,3.0,-6.0,4.0,0.0,0.0,0.0,0.0
1701961196.8926115,-5.0,-2.0,0.0,-4.0,-2.0,-2.0,-2.0,-1.0
1701961196.8926115,0.0,0.0,0.0,1.0,0.0,-2.0,-2.0,-2.0
1701961196.8926115,-3.0,-4.0,-4.0,-6.0,0.0,-1.0,-1.0,-1.0
1701961196.9222853,-2.0,-1.0,-9.0,-1.0,-1.0,3.0,0.0,-1.0
1701961196.9222853,-2.0,4.0,20.0,4.0,0.0,-2.0,0.0,-3.0
1701961196.9222853,-3.0,-3.0,-20.0,-4.0,-2.0,-2.0,-2.0,0.0
1701961196.9222853,-5.0,-6.0,-16.0,-2.0,-2.0,-1.0,-3.0,-1.0
1701961196.9322898,0.0,-2.0,27.0,9.0,0.0,-1.0,0.0,0.0
1701961196.9322898,-1.0,-5.0,-41.0,-31.0,-5.0,-6.0,-2.0,-3.0
1701961196.9422872,2.0,4.0,31.0,8.0,2.0,4.0,3.0,1.0
1701961196.9422872,2.0,1.0,-4.0,5.0,0.0,3.0,4.0,2.0
1701961196.952588,-4.0,-4.0,-8.0,-5.0,-3.0,-2.0,-3.0,-4.0
1701961196.952588,1.0,-1.0,1.0,3.0,-1.0,-1.0,-3.0,0.0
1701961196.952588,-1.0,0.0,-1.0,-6.0,-2.0,-3.0,-1.0,0.0
1701961196.952588,2.0,-2.0,7.0,-3.0,-2.0,-2.0,-1.0,-1.0
1701961196.9797351,0.0,-2.0,-5.0,-3.0,-1.0,2.0,1.0,0.0
1701961196.9797351,1.0,-1.0,-5.0,1.0,0.0,0.0,0.0,0.0
1701961196.9797351,-2.0,0.0,-4.0,-1.0,0.0,-2.0,-1.0,-1.0
1701961196.9797351,0.0,1.0,9.0,1.0,0.0,-1.0,0.0,-1.0
1701961196.9916673,-1.0,-1.0,-12.0,-8.0,-8.0,-8.0,-5.0,-2.0
1701961196.9916673,-3.0,0.0,11.0,11.0,3.0,-5.0,-7.0,-4.0
1701961196.9984112,2.0,-6.0,-15.0,-8.0,-5.0,-3.0,-5.0,-5.0
1701961196.9984112,-3.0,-3.0,-23.0,3.0,0.0,-9.0,-6.0,-3.0
1701961197.0087729,-3.0,7.0,29.0,14.0,8.0,15.0,5.0,-1.0
1701961197.0087729,-8.0,-9.0,-25.0,-19.0,-10.0,-10.0,-4.0,-4.0
1701961197.0087729,4.0,-2.0,4.0,-1.0,-4.0,-8.0,1.0,0.0
1701961197.0087729,-8.0,6.0,12.0,-10.0,-10.0,-6.0,-11.0,-8.0
1701961197.028416,8.0,1.0,-1.0,4.0,1.0,7.0,10.0,11.0
1701961197.028416,2.0,0.0,34.0,10.0,5.0,4.0,-1.0,-2.0
1701961197.0384119,-7.0,3.0,-3.0,13.0,9.0,3.0,-1.0,0.0
1701961197.0384119,-5.0,-7.0,-19.0,-18.0,-9.0,-8.0,-1.0,-3.0
1701961197.0487626,-2.0,-12.0,9.0,-9.0,-8.0,-6.0,3.0,4.0
1701961197.0487626,5.0,-10.0,-28.0,-10.0,-13.0,-26.0,-3.0,5.0
1701961197.0587606,14.0,21.0,24.0,32.0,43.0,57.0,24.0,13.0
1701961197.0587606,0.0,-9.0,-44.0,-10.0,-7.0,-14.0,-8.0,-4.0
1701961197.0784128,-4.0,6.0,-23.0,-6.0,9.0,19.0,5.0,-2.0
1701961197.0784128,3.0,-1.0,39.0,11.0,-2.0,14.0,13.0,5.0
1701961197.0784128,3.0,3.0,11.0,-16.0,-21.0,-28.0,-10.0,-10.0
1701961197.0784128,0.0,6.0,-22.0,-25.0,-18.0,-34.0,-19.0,-3.0
1701961197.0984178,15.0,13.0,-65.0,22.0,23.0,36.0,17.0,0.0
1701961197.0984178,-4.0,25.0,30.0,9.0,6.0,34.0,-17.0,3.0
1701961197.0984178,-13.0,-49.0,-67.0,-21.0,-19.0,-82.0,-12.0,-11.0
1701961197.0984178,4.0,-20.0,22.0,-5.0,14.0,95.0,-23.0,0.0
1701961197.108676,-6.0,-20.0,19.0,-11.0,-18.0,-51.0,-7.0,-8.0
1701961197.108676,-6.0,4.0,7.0,11.0,-5.0,-11.0,-2.0,-10.0
1701961197.1186688,16.0,-36.0,-22.0,6.0,-4.0,-39.0,-26.0,-7.0
1701961197.1186688,0.0,40.0,14.0,-8.0,-3.0,-6.0,16.0,4.0
1701961197.1384125,8.0,-52.0,-65.0,-10.0,4.0,-35.0,-15.0,6.0
1701961197.1384125,-11.0,36.0,44.0,38.0,23.0,61.0,0.0,-9.0
1701961197.1384125,-1.0,25.0,35.0,-2.0,-5.0,-51.0,-35.0,-12.0
1701961197.1384125,9.0,4.0,22.0,18.0,5.0,7.0,46.0,21.0
1701961197.1584172,3.0,10.0,-4.0,5.0,11.0,-40.0,-37.0,-9.0
1701961197.1584172,1.0,-22.0,-29.0,-8.0,7.0,78.0,43.0,5.0
1701961197.1584172,-2.0,61.0,3.0,-41.0,-39.0,-31.0,-31.0,-2.0
1701961197.1584172,5.0,10.0,74.0,67.0,45.0,37.0,6.0,-11.0
1701961197.1686823,-13.0,-48.0,-34.0,-41.0,-40.0,-90.0,-34.0,-2.0
1701961197.1686823,0.0,15.0,-24.0,-10.0,1.0,22.0,21.0,-17.0
1701961197.1786623,4.0,4.0,-20.0,-3.0,-1.0,26.0,2.0,30.0
1701961197.1786623,3.0,-10.0,53.0,6.0,-9.0,-3.0,74.0,11.0
1701961197.2184114,-7.0,20.0,75.0,17.0,10.0,9.0,-39.0,-10.0
1701961197.2184114,-15.0,-53.0,-68.0,-18.0,-9.0,-47.0,-28.0,-13.0
1701961197.2184114,-3.0,24.0,-16.0,-16.0,2.0,12.0,-9.0,-24.0
1701961197.2184114,4.0,18.0,-25.0,-8.0,-2.0,-21.0,-14.0,27.0
1701961197.2184114,5.0,10.0,35.0,0.0,-21.0,3.0,26.0,2.0
1701961197.2184114,2.0,-12.0,-46.0,5.0,18.0,26.0,20.0,21.0
1701961197.2184114,-10.0,-19.0,-11.0,4.0,-9.0,-18.0,11.0,-13.0
1701961197.2184114,-4.0,-15.0,-6.0,-13.0,-6.0,-35.0,-17.0,-12.0
1701961197.228609,1.0,47.0,28.0,10.0,7.0,62.0,20.0,1.0
1701961197.228609,-8.0,-29.0,-15.0,-14.0,-16.0,-49.0,-16.0,-4.0
1701961197.238643,5.0,-18.0,-2.0,10.0,15.0,77.0,33.0,7.0
1701961197.238643,-2.0,-5.0,7.0,24.0,-10.0,-55.0,-22.0,-13.0
1701961197.2684593,-10.0,-42.0,-14.0,-33.0,-4.0,16.0,-1.0,-2.0
1701961197.2684593,8.0,44.0,35.0,-5.0,-7.0,-31.0,-14.0,-3.0
1701961197.2684593,-4.0,6.0,-1.0,3.0,-3.0,-11.0,-12.0,-2.0
1701961197.2684593,-4.0,-30.0,9.0,-2.0,8.0,38.0,17.0,-4.0
1701961197.2684593,-5.0,34.0,14.0,-1.0,0.0,28.0,6.0,-5.0
1701961197.2684593,-7.0,32.0,21.0,11.0,4.0,-52.0,-41.0,-16.0
1701961197.2787402,-4.0,-3.0,22.0,-15.0,-12.0,-50.0,2.0,7.0
1701961197.2787402,3.0,10.0,-35.0,4.0,20.0,84.0,22.0,-6.0
1701961197.2888591,0.0,17.0,18.0,8.0,-3.0,-14.0,0.0,8.0
1701961197.2888591,5.0,-17.0,22.0,3.0,-6.0,-12.0,-8.0,1.0
1701961197.2984836,-5.0,-16.0,-71.0,-24.0,-8.0,-14.0,8.0,11.0
1701961197.2984836,7.0,18.0,12.0,11.0,5.0,-50.0,-24.0,-4.0
1701961197.3184736,-6.0,-23.0,-24.0,5.0,11.0,29.0,18.0,0.0
1701961197.3184736,11.0,31.0,-10.0,-11.0,-8.0,37.0,-2.0,8.0
1701961197.3184736,-5.0,-10.0,-2.0,11.0,9.0,32.0,10.0,0.0
1701961197.3184736,-11.0,-4.0,-4.0,-17.0,-25.0,-55.0,-63.0,-10.0
1701961197.3385324,-5.0,50.0,54.0,21.0,22.0,24.0,29.0,6.0
1701961197.3385324,1.0,-28.0,-52.0,-22.0,-3.0,-26.0,2.0,0.0
1701961197.3385324,-16.0,-22.0,13.0,12.0,3.0,44.0,-3.0,-11.0
1701961197.3385324,2.0,24.0,-28.0,-24.0,-15.0,-2.0,-9.0,1.0
1701961197.348822,10.0,5.0,28.0,9.0,-6.0,-86.0,-48.0,-1.0
1701961197.348822,-3.0,-19.0,-24.0,0.0,-1.0,100.0,68.0,0.0
1701961197.3591192,-1.0,-17.0,26.0,17.0,9.0,-56.0,-2.0,2.0
1701961197.3591192,-11.0,-9.0,-29.0,-7.0,-6.0,-45.0,-15.0,-9.0
1701961197.369129,-6.0,-7.0,-31.0,-1.0,-8.0,-13.0,1.0,0.0
1701961197.369129,9.0,7.0,31.0,-1.0,0.0,-29.0,-31.0,-3.0
1701961197.3790889,-2.0,-28.0,-57.0,-12.0,-5.0,9.0,-17.0,-5.0
1701961197.3790889,-3.0,7.0,16.0,2.0,5.0,26.0,20.0,3.0
1701961197.3988407,3.0,-28.0,53.0,15.0,-15.0,-10.0,-2.0,-8.0
1701961197.3988407,18.0,8.0,0.0,6.0,20.0,22.0,28.0,25.0
1701961197.3988407,1.0,17.0,44.0,18.0,6.0,49.0,-8.0,6.0
1701961197.3988407,-6.0,-14.0,-14.0,-3.0,7.0,10.0,-1.0,-1.0
1701961197.418842,2.0,4.0,-48.0,-11.0,3.0,19.0,12.0,1.0
1701961197.418842,-13.0,-14.0,66.0,22.0,-14.0,-59.0,-4.0,-4.0
1701961197.418842,0.0,31.0,80.0,7.0,3.0,34.0,18.0,0.0
1701961197.418842,12.0,-3.0,-8.0,-7.0,1.0,3.0,3.0,1.0
1701961197.4288726,-16.0,-17.0,-8.0,-13.0,-5.0,7.0,-3.0,-9.0
1701961197.4288726,-5.0,-33.0,-9.0,13.0,-1.0,-34.0,-14.0,-2.0
1701961197.4491794,5.0,14.0,-3.0,2.0,10.0,9.0,41.0,3.0
1701961197.4491794,-13.0,15.0,-4.0,-7.0,-1.0,38.0,13.0,-6.0
1701961197.4491794,6.0,-4.0,23.0,25.0,3.0,29.0,33.0,22.0
1701961197.4588459,-11.0,-6.0,-34.0,-17.0,14.0,-13.0,-17.0,-6.0
1701961197.4588459,11.0,36.0,15.0,19.0,3.0,6.0,-19.0,3.0
1701961197.4588459,4.0,8.0,-9.0,-31.0,-7.0,24.0,24.0,5.0
1701961197.4888377,-5.0,13.0,-34.0,-2.0,1.0,-10.0,-17.0,-10.0
1701961197.4888377,-10.0,-13.0,-15.0,-10.0,-11.0,-17.0,0.0,-2.0
1701961197.4888377,-22.0,-19.0,37.0,10.0,-1.0,-15.0,3.0,-4.0
1701961197.4888377,-2.0,2.0,-32.0,-6.0,-10.0,-18.0,-15.0,-9.0
1701961197.4888377,-4.0,-7.0,-12.0,-18.0,-6.0,-20.0,-19.0,-10.0
1701961197.4888377,-6.0,-24.0,-45.0,-14.0,-10.0,-7.0,-9.0,-2.0
1701961197.4888377,-7.0,45.0,42.0,10.0,3.0,17.0,5.0,-10.0
1701961197.4888377,0.0,-26.0,-19.0,17.0,-3.0,-16.0,-24.0,-7.0
1701961197.5179152,2.0,8.0,-10.0,-28.0,-9.0,15.0,19.0,-2.0
1701961197.5179152,-8.0,13.0,18.0,-2.0,-10.0,-44.0,-35.0,-17.0
1701961197.5189254,5.0,-15.0,8.0,10.0,10.0,44.0,25.0,20.0
1701961197.5189254,-6.0,-37.0,-31.0,-27.0,-9.0,-44.0,-51.0,-6.0
1701961197.5320659,1.0,17.0,32.0,17.0,14.0,42.0,20.0,0.0
1701961197.5320659,-5.0,13.0,16.0,13.0,1.0,7.0,9.0,6.0
1701961197.5420718,0.0,-8.0,-54.0,-45.0,-19.0,-26.0,-17.0,-8.0
1701961197.5420718,8.0,2.0,42.0,18.0,-2.0,-25.0,1.0,4.0
1701961197.5523477,-1.0,-16.0,-20.0,-2.0,5.0,16.0,6.0,1.0
1701961197.5523477,5.0,9.0,39.0,6.0,-1.0,-30.0,12.0,5.0
1701961197.5523477,-3.0,-39.0,-46.0,9.0,15.0,40.0,-21.0,-6.0
1701961197.5523477,-3.0,-11.0,9.0,-14.0,-7.0,-25.0,16.0,6.0
1701961197.5723803,-9.0,-23.0,11.0,7.0,-12.0,0.0,-28.0,-12.0
1701961197.5723803,-2.0,4.0,25.0,-9.0,0.0,-18.0,-2.0,5.0
1701961197.5723803,1.0,-23.0,1.0,7.0,-3.0,-25.0,1.0,-12.0
1701961197.5723803,0.0,50.0,-31.0,-26.0,-10.0,30.0,18.0,13.0
1701961197.60207,1.0,-7.0,-40.0,-18.0,-2.0,-14.0,21.0,3.0
1701961197.60207,4.0,-9.0,28.0,11.0,4.0,-4.0,-19.0,-3.0
1701961197.60207,13.0,7.0,-12.0,-6.0,4.0,-6.0,22.0,9.0
1701961197.60207,-11.0,4.0,44.0,23.0,-1.0,14.0,-2.0,-9.0
1701961197.6120672,0.0,-16.0,-11.0,0.0,0.0,-36.0,-16.0,-4.0
1701961197.6120672,1.0,-6.0,-40.0,-9.0,-5.0,-1.0,-4.0,3.0
1701961197.6220696,-4.0,-3.0,16.0,-8.0,-6.0,-2.0,-18.0,-7.0
1701961197.6220696,1.0,-1.0,20.0,8.0,3.0,27.0,-3.0,-4.0
1701961197.6325166,9.0,7.0,-1.0,3.0,1.0,-56.0,-25.0,-5.0
1701961197.6325166,0.0,-9.0,-23.0,-3.0,-3.0,71.0,11.0,-5.0
1701961197.6325166,-7.0,-1.0,12.0,-17.0,-8.0,-15.0,0.0,-5.0
1701961197.6325166,-4.0,0.0,19.0,13.0,0.0,-29.0,-6.0,-6.0
1701961197.6521013,0.0,20.0,-19.0,-15.0,-8.0,-29.0,-21.0,-1.0
1701961197.6521013,-5.0,25.0,27.0,8.0,6.0,29.0,13.0,-5.0
