1701961895.7782667,-11.0,-8.0,2.0,2.0,-1.0,0.0,-1.0,-4.0
1701961895.7782667,1.0,-7.0,29.0,13.0,5.0,2.0,-1.0,-3.0
1701961895.7782667,1.0,-6.0,-17.0,-18.0,0.0,-3.0,0.0,6.0
1701961895.7782667,5.0,4.0,-13.0,0.0,-5.0,-7.0,-1.0,-2.0
1701961895.7982736,-3.0,-5.0,4.0,2.0,-6.0,-1.0,2.0,0.0
1701961895.7982736,4.0,-2.0,-6.0,0.0,4.0,3.0,11.0,-3.0
1701961895.7982736,0.0,3.0,1.0,-3.0,1.0,1.0,-6.0,2.0
1701961895.7982736,-10.0,-9.0,-4.0,0.0,-5.0,-7.0,-16.0,-7.0
1701961895.82816,-4.0,0.0,-4.0,-4.0,-6.0,-3.0,-9.0,-3.0
1701961895.82816,2.0,-7.0,4.0,-5.0,1.0,4.0,8.0,6.0
1701961895.82816,-5.0,-6.0,-1.0,-2.0,-2.0,3.0,7.0,-4.0
1701961895.82816,0.0,-16.0,-12.0,4.0,5.0,2.0,-4.0,6.0
1701961895.8382697,12.0,14.0,3.0,0.0,0.0,2.0,14.0,1.0
1701961895.8382697,-9.0,4.0,-3.0,-3.0,-7.0,-7.0,-28.0,-5.0
1701961895.8382697,7.0,-6.0,-1.0,-10.0,-21.0,-7.0,7.0,5.0
1701961895.8382697,-2.0,4.0,-3.0,-8.0,3.0,-5.0,-5.0,-4.0
1701961895.8681571,-7.0,7.0,-2.0,-14.0,-20.0,-15.0,4.0,-3.0
1701961895.8681571,1.0,-1.0,-3.0,13.0,14.0,16.0,14.0,9.0
1701961895.8681571,4.0,-8.0,2.0,5.0,41.0,20.0,11.0,1.0
1701961895.8681571,3.0,-1.0,7.0,-15.0,-12.0,8.0,5.0,-1.0
1701961895.8681571,3.0,0.0,-5.0,43.0,25.0,2.0,-5.0,1.0
1701961895.8681571,-6.0,-7.0,-5.0,-24.0,-45.0,-21.0,-5.0,-3.0
1701961895.8681571,-10.0,6.0,-6.0,-72.0,-52.0,-21.0,-25.0,-13.0
1701961895.8681571,0.0,-15.0,-2.0,49.0,29.0,11.0,9.0,3.0
1701961895.898721,3.0,-4.0,6.0,-26.0,21.0,11.0,5.0,1.0
1701961895.898721,1.0,1.0,4.0,19.0,57.0,3.0,-1.0,2.0
1701961895.898721,-2.0,-1.0,-5.0,31.0,7.0,9.0,0.0,-3.0
1701961895.898721,-2.0,-8.0,-3.0,-16.0,-16.0,-21.0,-4.0,-2.0
1701961895.9283895,-4.0,1.0,-9.0,-24.0,-63.0,-7.0,-12.0,-5.0
1701961895.9283895,-4.0,-10.0,-2.0,8.0,41.0,-6.0,-3.0,-5.0
1701961895.9283895,-3.0,3.0,6.0,-7.0,-19.0,-15.0,-1.0,-2.0
1701961895.9283895,0.0,1.0,-11.0,-10.0,0.0,2.0,-1.0,1.0
1701961895.9283895,-7.0,-5.0,3.0,12.0,-34.0,-13.0,-7.0,-3.0
1701961895.9283895,1.0,9.0,-14.0,-26.0,-22.0,-3.0,-5.0,-2.0
1701961895.9384313,-1.0,0.0,3.0,12.0,-5.0,11.0,1.0,-1.0
1701961895.9384313,-2.0,2.0,8.0,8.0,4.0,-3.0,-1.0,-1.0
1701961895.9589937,-3.0,-3.0,9.0,18.0,38.0,7.0,1.0,-1.0
1701961895.9589937,-3.0,-5.0,-22.0,-34.0,-55.0,0.0,-2.0,-2.0
1701961895.9589937,-3.0,4.0,8.0,11.0,50.0,20.0,5.0,-1.0
1701961895.9589937,2.0,0.0,5.0,22.0,54.0,35.0,11.0,5.0
1701961895.9887133,5.0,8.0,10.0,8.0,2.0,-2.0,3.0,3.0
1701961895.9887133,-7.0,-13.0,-28.0,-24.0,-42.0,-20.0,-8.0,-8.0
1701961895.9887133,-3.0,-2.0,17.0,22.0,-20.0,5.0,-6.0,-3.0
1701961895.9887133,-2.0,4.0,0.0,-12.0,13.0,3.0,2.0,-4.0
1701961895.9887133,-2.0,-5.0,-33.0,-42.0,-3.0,-1.0,-3.0,-2.0
1701961895.9887133,2.0,4.0,31.0,33.0,12.0,7.0,0.0,0.0
1701961895.9887133,-2.0,0.0,-14.0,-12.0,5.0,-14.0,-7.0,-3.0
1701961895.9887133,-3.0,-8.0,4.0,-12.0,-51.0,-11.0,-3.0,-3.0
1701961896.0287118,0.0,6.0,23.0,33.0,46.0,7.0,-1.0,0.0
1701961896.0287118,-1.0,-4.0,-50.0,-44.0,-29.0,-6.0,-2.0,-1.0
1701961896.0287118,0.0,2.0,8.0,7.0,1.0,-12.0,-4.0,0.0
1701961896.0287118,-1.0,0.0,0.0,4.0,3.0,5.0,5.0,0.0
1701961896.039056,-3.0,-6.0,-7.0,-25.0,-25.0,-12.0,-2.0,-1.0
1701961896.039056,1.0,3.0,25.0,18.0,22.0,2.0,0.0,0.0
1701961896.039056,2.0,1.0,4.0,21.0,14.0,11.0,8.0,5.0
1701961896.039056,-1.0,1.0,3.0,-23.0,-14.0,-12.0,-5.0,-4.0
1701961896.0569746,1.0,0.0,-2.0,23.0,4.0,4.0,1.0,0.0
1701961896.0569746,0.0,5.0,5.0,-35.0,3.0,2.0,3.0,1.0
1701961896.0569746,1.0,1.0,-5.0,7.0,3.0,4.0,0.0,0.0
1701961896.0569746,-5.0,-6.0,13.0,8.0,-18.0,-4.0,-10.0,-5.0
1701961896.0807278,2.0,3.0,0.0,4.0,2.0,2.0,2.0,1.0
1701961896.0807278,1.0,-1.0,10.0,-4.0,9.0,5.0,1.0,-2.0
1701961896.0807278,4.0,3.0,0.0,9.0,-6.0,-8.0,0.0,-1.0
1701961896.0807278,0.0,-1.0,9.0,-1.0,-9.0,-9.0,-1.0,0.0
1701961896.1015089,-3.0,-1.0,1.0,5.0,1.0,4.0,-1.0,-1.0
1701961896.1015089,-3.0,-8.0,-5.0,41.0,11.0,3.0,1.0,1.0
1701961896.1015089,-2.0,0.0,-23.0,-34.0,-8.0,-9.0,-4.0,-5.0
1701961896.1015089,-2.0,-7.0,-13.0,3.0,2.0,-3.0,-1.0,-1.0
1701961896.1114712,1.0,7.0,37.0,4.0,-5.0,-1.0,-1.0,-2.0
1701961896.1114712,-2.0,-2.0,-24.0,12.0,1.0,-5.0,-2.0,-1.0
1701961896.1114712,-2.0,-4.0,-16.0,-16.0,0.0,-4.0,0.0,-1.0
1701961896.1114712,-1.0,-2.0,-3.0,6.0,-1.0,-4.0,-2.0,-2.0
1701961896.1411297,-3.0,-3.0,1.0,-12.0,-5.0,-3.0,-4.0,-5.0
1701961896.1411297,0.0,-1.0,8.0,3.0,3.0,3.0,1.0,1.0
1701961896.1411297,2.0,2.0,3.0,5.0,3.0,1.0,1.0,3.0
1701961896.1411297,0.0,-5.0,-23.0,-14.0,-11.0,-3.0,-2.0,-2.0
1701961896.161444,-2.0,-1.0,-7.0,-9.0,-5.0,-3.0,-3.0,-1.0
1701961896.161444,1.0,0.0,13.0,15.0,7.0,4.0,2.0,2.0
1701961896.161444,-3.0,-6.0,-9.0,-8.0,-7.0,-4.0,-2.0,-3.0
1701961896.161444,0.0,2.0,10.0,6.0,5.0,0.0,0.0,2.0
1701961896.171367,-11.0,-2.0,-9.0,-8.0,1.0,3.0,1.0,-3.0
1701961896.171367,-3.0,-2.0,4.0,3.0,0.0,3.0,-1.0,-2.0
1701961896.171367,-16.0,0.0,20.0,8.0,5.0,3.0,-2.0,-5.0
1701961896.171367,10.0,0.0,-19.0,-11.0,-2.0,-3.0,-2.0,-3.0
1701961896.2111301,-6.0,2.0,-13.0,-5.0,-3.0,-5.0,-4.0,-6.0
1701961896.2111301,4.0,-5.0,10.0,4.0,0.0,-3.0,-2.0,3.0
1701961896.2111301,-15.0,1.0,6.0,5.0,7.0,3.0,4.0,-2.0
1701961896.2111301,17.0,29.0,4.0,-6.0,-7.0,-5.0,1.0,13.0
1701961896.2213335,-9.0,-36.0,-19.0,-8.0,-7.0,-7.0,-1.0,5.0
1701961896.2213335,-29.0,-13.0,-10.0,0.0,-2.0,-3.0,-9.0,-24.0
1701961896.2213335,25.0,20.0,-1.0,-3.0,-1.0,-1.0,10.0,28.0
1701961896.2213335,3.0,5.0,11.0,5.0,1.0,0.0,-3.0,-14.0
1701961896.231504,-1.0,2.0,-3.0,-5.0,-7.0,-3.0,-3.0,3.0
1701961896.231504,-52.0,-18.0,8.0,7.0,7.0,11.0,9.0,-7.0
1701961896.231504,-9.0,-13.0,-17.0,-5.0,2.0,-9.0,-14.0,-15.0
1701961896.231504,4.0,-19.0,-15.0,-6.0,-24.0,-3.0,4.0,10.0
1701961896.261128,15.0,35.0,6.0,3.0,28.0,1.0,0.0,3.0
1701961896.261128,16.0,1.0,4.0,-8.0,-14.0,-7.0,-7.0,-2.0
1701961896.261128,3.0,-7.0,-2.0,6.0,3.0,-9.0,-3.0,-7.0
1701961896.261128,-17.0,3.0,7.0,-70.0,-70.0,-12.0,-5.0,-9.0
1701961896.2811291,11.0,-2.0,1.0,99.0,93.0,38.0,10.0,7.0
1701961896.2811291,7.0,-3.0,0.0,3.0,-8.0,-4.0,5.0,8.0
1701961896.2811291,6.0,-3.0,-6.0,-27.0,13.0,2.0,-6.0,-3.0
1701961896.2811291,-7.0,-9.0,2.0,1.0,-41.0,-18.0,-4.0,-1.0
1701961896.2912993,-9.0,-3.0,-12.0,-64.0,-68.0,-30.0,-15.0,-13.0
1701961896.2912993,15.0,3.0,-15.0,-16.0,-14.0,1.0,-3.0,4.0
1701961896.3111296,-10.0,-8.0,10.0,-37.0,-39.0,-15.0,-7.0,-6.0
1701961896.3111296,11.0,12.0,27.0,66.0,102.0,36.0,11.0,12.0
1701961896.3111296,2.0,-4.0,-15.0,8.0,3.0,2.0,3.0,0.0
1701961896.3111296,3.0,-8.0,-15.0,2.0,0.0,-8.0,-3.0,-2.0
1701961896.3111296,4.0,3.0,-16.0,-58.0,-13.0,-3.0,-5.0,-3.0
1701961896.3111296,-19.0,-11.0,-3.0,12.0,4.0,-10.0,-12.0,-15.0
1701961896.3414712,11.0,5.0,19.0,0.0,-7.0,-1.0,7.0,9.0
1701961896.3414712,11.0,6.0,2.0,-21.0,-14.0,-8.0,-1.0,8.0
1701961896.3414712,-5.0,-5.0,13.0,45.0,-21.0,-4.0,1.0,-2.0
1701961896.3414712,-2.0,0.0,-17.0,8.0,12.0,4.0,-1.0,-2.0
1701961896.3513958,-5.0,-2.0,11.0,-1.0,2.0,-1.0,-3.0,-8.0
1701961896.3513958,5.0,4.0,23.0,-6.0,1.0,5.0,2.0,1.0
1701961896.3513958,2.0,4.0,-18.0,11.0,6.0,6.0,2.0,1.0
1701961896.3513958,-9.0,-14.0,-20.0,8.0,13.0,1.0,-1.0,-2.0
1701961896.3914437,-2.0,-4.0,-23.0,-41.0,-22.0,-3.0,-3.0,-4.0
1701961896.3914437,2.0,5.0,16.0,16.0,8.0,-1.0,1.0,0.0
1701961896.3914437,2.0,4.0,22.0,23.0,11.0,4.0,0.0,1.0
1701961896.3914437,-3.0,-5.0,-8.0,-15.0,0.0,-4.0,-1.0,-1.0
1701961896.4014282,-2.0,1.0,5.0,6.0,-10.0,1.0,1.0,0.0
1701961896.4014282,1.0,3.0,12.0,-6.0,9.0,4.0,0.0,-1.0
1701961896.4014282,-6.0,-11.0,-25.0,3.0,1.0,-2.0,0.0,-1.0
1701961896.4014282,1.0,1.0,-4.0,-5.0,-8.0,-3.0,0.0,1.0
1701961896.4113784,-4.0,-6.0,-3.0,-8.0,-7.0,-5.0,-2.0,-3.0
1701961896.4113784,3.0,7.0,2.0,16.0,13.0,3.0,0.0,1.0
1701961896.4113784,1.0,-1.0,5.0,-4.0,-6.0,0.0,1.0,-1.0
1701961896.4113784,-3.0,-3.0,-6.0,-10.0,-7.0,-2.0,2.0,-1.0
1701961896.4311638,0.0,5.0,20.0,6.0,-2.0,-1.0,-2.0,-3.0
1701961896.4311638,-2.0,1.0,-2.0,-4.0,4.0,5.0,2.0,-1.0
1701961896.4411368,-3.0,-2.0,-9.0,-1.0,1.0,3.0,3.0,-1.0
1701961896.4411368,-1.0,3.0,8.0,-1.0,3.0,7.0,3.0,-1.0
1701961896.46135,-5.0,-4.0,-8.0,-8.0,-4.0,0.0,-1.0,-4.0
1701961896.46135,0.0,-6.0,-8.0,1.0,-5.0,-1.0,-2.0,-1.0
1701961896.46135,-2.0,-3.0,-1.0,1.0,2.0,1.0,-1.0,4.0
1701961896.46135,0.0,-4.0,0.0,2.0,1.0,-2.0,-2.0,1.0
1701961896.4911296,-1.0,-2.0,-1.0,-7.0,-7.0,-4.0,-5.0,-2.0
1701961896.4911296,4.0,8.0,-7.0,-4.0,-4.0,-6.0,-6.0,-3.0
1701961896.4911296,-3.0,4.0,6.0,3.0,1.0,-2.0,-2.0,-1.0
1701961896.4911296,5.0,2.0,-2.0,-6.0,-1.0,-2.0,-2.0,1.0
1701961896.4911296,1.0,5.0,3.0,-2.0,-4.0,-3.0,-1.0,-1.0
1701961896.4911296,-2.0,-6.0,-5.0,0.0,-1.0,0.0,-2.0,-4.0
1701961896.4911296,-4.0,-22.0,-15.0,2.0,4.0,2.0,4.0,-2.0
1701961896.4911296,2.0,14.0,8.0,-4.0,-7.0,-5.0,-12.0,-6.0
1701961896.5213578,-14.0,-14.0,-16.0,-3.0,2.0,3.0,2.0,-4.0
1701961896.5213578,0.0,-3.0,7.0,6.0,1.0,0.0,3.0,6.0
1701961896.5213578,14.0,44.0,9.0,-1.0,2.0,0.0,-4.0,-3.0
1701961896.5213578,-15.0,-32.0,-21.0,-10.0,-10.0,-6.0,4.0,0.0
1701961896.5311303,-3.0,-3.0,6.0,-11.0,-16.0,-9.0,-16.0,-10.0
1701961896.5311303,-3.0,1.0,-3.0,10.0,21.0,-2.0,-6.0,-1.0
1701961896.541522,-2.0,-7.0,-3.0,1.0,3.0,-1.0,-1.0,-2.0
1701961896.541522,6.0,1.0,10.0,5.0,5.0,9.0,3.0,1.0
1701961896.551511,2.0,-2.0,-5.0,5.0,8.0,0.0,5.0,3.0
1701961896.551511,-3.0,5.0,-5.0,-14.0,-17.0,-4.0,7.0,-2.0
1701961896.551511,-3.0,-2.0,7.0,54.0,8.0,1.0,4.0,-1.0
1701961896.551511,0.0,3.0,-16.0,-31.0,0.0,-7.0,1.0,-2.0
1701961896.593646,-7.0,-7.0,4.0,0.0,-13.0,0.0,-2.0,-3.0
1701961896.593646,0.0,-3.0,5.0,-4.0,18.0,16.0,2.0,2.0
1701961896.593646,0.0,-7.0,19.0,-90.0,-36.0,-3.0,-2.0,2.0
1701961896.593646,1.0,4.0,-40.0,89.0,61.0,5.0,1.0,1.0
1701961896.5956469,6.0,11.0,19.0,55.0,18.0,7.0,-1.0,4.0
1701961896.5956469,-2.0,-4.0,8.0,6.0,39.0,5.0,-1.0,0.0
1701961896.6045833,-2.0,-8.0,-11.0,-41.0,-37.0,-16.0,-10.0,-3.0
1701961896.6045833,-4.0,1.0,20.0,-32.0,-29.0,-9.0,-8.0,-6.0
1701961896.613749,0.0,-10.0,-9.0,-21.0,-15.0,-12.0,-6.0,-1.0
1701961896.613749,2.0,-5.0,2.0,18.0,-16.0,-3.0,-5.0,-1.0
1701961896.613749,-3.0,-5.0,-17.0,7.0,11.0,-2.0,-4.0,-3.0
1701961896.613749,-6.0,-3.0,25.0,15.0,-12.0,-4.0,-3.0,-2.0
1701961896.6340883,3.0,-3.0,-44.0,-44.0,0.0,1.0,2.0,2.0
1701961896.6340883,-2.0,3.0,31.0,23.0,-5.0,0.0,1.0,1.0
1701961896.6340883,-1.0,-9.0,-16.0,9.0,9.0,3.0,3.0,0.0
1701961896.6340883,4.0,8.0,7.0,-16.0,-11.0,-5.0,-1.0,0.0
1701961896.6541514,4.0,10.0,17.0,7.0,14.0,11.0,3.0,2.0
1701961896.6541514,-3.0,-12.0,-6.0,6.0,-4.0,-4.0,-3.0,-1.0
1701961896.664134,2.0,2.0,-12.0,-9.0,-1.0,-2.0,-2.0,-1.0
1701961896.664134,-5.0,-3.0,4.0,-3.0,-2.0,4.0,1.0,-2.0
1701961896.6743538,-2.0,-7.0,43.0,39.0,13.0,3.0,3.0,-1.0
1701961896.6743538,17.0,32.0,-61.0,-60.0,-21.0,-6.0,-1.0,3.0
1701961896.6743538,-3.0,17.0,28.0,25.0,4.0,0.0,-4.0,-3.0
1701961896.6743538,-8.0,-9.0,18.0,-7.0,0.0,2.0,0.0,-3.0
1701961896.7141209,-6.0,-14.0,-22.0,-18.0,-11.0,-9.0,-3.0,-2.0
1701961896.7141209,-3.0,-5.0,8.0,7.0,-8.0,-5.0,-4.0,-7.0
1701961896.7141209,-1.0,2.0,-1.0,6.0,9.0,8.0,3.0,0.0
1701961896.7141209,-6.0,-1.0,0.0,-14.0,-2.0,4.0,2.0,-3.0
1701961896.7141209,3.0,6.0,0.0,6.0,-11.0,-6.0,-3.0,-2.0
1701961896.7141209,-6.0,-6.0,-10.0,-18.0,-6.0,-2.0,0.0,-1.0
1701961896.7243855,1.0,-8.0,-8.0,1.0,4.0,0.0,0.0,-1.0
1701961896.7243855,0.0,4.0,8.0,13.0,-5.0,-6.0,-4.0,0.0
1701961896.7344038,3.0,14.0,0.0,-4.0,-1.0,-3.0,-1.0,0.0
1701961896.7344038,-2.0,0.0,17.0,0.0,-7.0,-5.0,-4.0,-3.0
1701961896.7344038,-2.0,-8.0,-19.0,10.0,-3.0,-4.0,-4.0,-1.0
1701961896.7344038,1.0,6.0,7.0,3.0,2.0,0.0,-1.0,-1.0
1701961896.7641246,0.0,-2.0,-18.0,-23.0,-2.0,-1.0,0.0,2.0
1701961896.7641246,-1.0,-7.0,-11.0,-4.0,-8.0,-7.0,-5.0,-3.0
1701961896.7641246,-3.0,1.0,17.0,16.0,7.0,-1.0,0.0,-2.0
1701961896.7641246,-4.0,-35.0,-8.0,4.0,-3.0,0.0,-2.0,-3.0
1701961896.7741446,-3.0,31.0,-9.0,-5.0,0.0,-1.0,2.0,-6.0
1701961896.7741446,1.0,-1.0,18.0,10.0,-1.0,0.0,-5.0,3.0
1701961896.784513,-1.0,-1.0,-3.0,-15.0,-4.0,-2.0,-2.0,-2.0
1701961896.784513,8.0,6.0,2.0,9.0,-3.0,-2.0,-1.0,2.0
1701961896.794157,-7.0,-34.0,-27.0,-19.0,-5.0,-2.0,-1.0,-4.0
1701961896.794157,-1.0,0.0,-14.0,-23.0,-8.0,-3.0,2.0,-2.0
1701961896.794157,-2.0,-1.0,11.0,19.0,4.0,3.0,0.0,1.0
1701961896.794157,0.0,15.0,3.0,-19.0,-1.0,1.0,-1.0,1.0
1701961896.8141232,4.0,-7.0,1.0,7.0,-3.0,-4.0,-1.0,1.0
1701961896.8141232,-6.0,-7.0,5.0,11.0,-3.0,-2.0,-1.0,-4.0
1701961896.8141232,-4.0,-17.0,-14.0,0.0,-1.0,0.0,1.0,1.0
1701961896.8141232,0.0,3.0,-9.0,-10.0,-2.0,-1.0,0.0,-1.0
1701961896.8344944,3.0,0.0,-4.0,-9.0,0.0,1.0,-4.0,-1.0
1701961896.8344944,-3.0,-2.0,15.0,9.0,-4.0,-4.0,-1.0,-2.0
1701961896.8445165,3.0,6.0,-4.0,8.0,-1.0,-3.0,-2.0,-1.0
1701961896.8445165,2.0,-7.0,-23.0,-2.0,7.0,7.0,2.0,-1.0
1701961896.8545377,-3.0,3.0,12.0,-17.0,-8.0,-7.0,-2.0,-2.0
1701961896.8545377,-5.0,6.0,-6.0,0.0,1.0,0.0,-3.0,-2.0
1701961896.8545377,-4.0,-7.0,-7.0,-13.0,-4.0,0.0,-1.0,-4.0
1701961896.8545377,-3.0,-2.0,1.0,17.0,-5.0,-3.0,-3.0,0.0
1701961896.8841236,-1.0,-6.0,-10.0,-7.0,-3.0,-2.0,-2.0,-4.0
1701961896.8841236,15.0,0.0,1.0,-5.0,1.0,1.0,1.0,3.0
1701961896.894121,-7.0,5.0,6.0,12.0,1.0,1.0,0.0,-1.0
1701961896.894121,-9.0,-28.0,-9.0,-17.0,-4.0,-1.0,-2.0,-2.0
1701961896.894121,7.0,10.0,-2.0,1.0,1.0,3.0,1.0,-1.0
1701961896.894121,-4.0,2.0,12.0,1.0,-4.0,-1.0,-1.0,-1.0
1701961896.904126,0.0,-28.0,-10.0,-2.0,2.0,-1.0,0.0,-1.0
1701961896.904126,-1.0,25.0,18.0,-4.0,-1.0,-2.0,-1.0,0.0
1701961896.924122,4.0,6.0,3.0,4.0,1.0,0.0,-1.0,4.0
1701961896.924122,-22.0,-43.0,-7.0,5.0,1.0,-2.0,-2.0,-9.0
1701961896.924122,12.0,10.0,4.0,-5.0,1.0,1.0,1.0,2.0
1701961896.924122,-14.0,10.0,2.0,-6.0,-3.0,-4.0,-1.0,-5.0
1701961896.9344046,-13.0,-46.0,-2.0,8.0,0.0,-2.0,-4.0,-3.0
1701961896.9344046,-3.0,-6.0,-9.0,-2.0,-1.0,-1.0,0.0,-4.0
1701961896.9344046,-4.0,7.0,3.0,-4.0,-2.0,0.0,-4.0,0.0
1701961896.9344046,4.0,0.0,-7.0,-3.0,-3.0,-1.0,-5.0,-1.0
1701961896.9543917,3.0,7.0,2.0,-2.0,-2.0,1.0,1.0,-1.0
1701961896.9543917,-4.0,-16.0,-7.0,5.0,2.0,1.0,0.0,1.0
1701961896.9641325,-2.0,3.0,4.0,11.0,3.0,0.0,-1.0,-4.0
1701961896.9641325,1.0,3.0,-8.0,-16.0,-5.0,-3.0,-4.0,-4.0
1701961896.9741333,2.0,11.0,10.0,4.0,-6.0,-4.0,-3.0,0.0
1701961896.9741333,3.0,7.0,13.0,5.0,-7.0,-4.0,-1.0,1.0
1701961896.9741333,-2.0,4.0,-28.0,-22.0,10.0,4.0,1.0,0.0
1701961896.9741333,0.0,-3.0,-20.0,15.0,11.0,5.0,3.0,0.0
1701961897.0041206,-6.0,10.0,14.0,-3.0,-1.0,-1.0,0.0,0.0
1701961897.0041206,-1.0,-14.0,-7.0,4.0,-4.0,-3.0,0.0,-1.0
1701961897.0041206,0.0,3.0,9.0,-2.0,-10.0,-6.0,-2.0,-1.0
1701961897.0041206,0.0,-13.0,-5.0,-7.0,-5.0,-2.0,-1.0,2.0
1701961897.014348,-3.0,6.0,0.0,-2.0,3.0,1.0,0.0,0.0
1701961897.014348,5.0,13.0,0.0,3.0,5.0,2.0,0.0,2.0
1701961897.02413,-6.0,-16.0,2.0,-7.0,-11.0,-7.0,-4.0,-4.0
1701961897.02413,2.0,-4.0,-5.0,-23.0,-14.0,-5.0,-2.0,-1.0
1701961897.044138,-1.0,-17.0,13.0,58.0,25.0,9.0,4.0,3.0
1701961897.044138,3.0,18.0,-13.0,-34.0,6.0,3.0,0.0,-1.0
1701961897.044138,-3.0,-13.0,-7.0,0.0,1.0,0.0,-2.0,-1.0
1701961897.044138,4.0,15.0,-6.0,-3.0,-9.0,-6.0,-2.0,0.0
1701961897.054188,-4.0,-20.0,1.0,-9.0,-12.0,-6.0,-4.0,-5.0
1701961897.054188,1.0,20.0,-1.0,3.0,-1.0,0.0,0.0,-1.0
1701961897.054188,-5.0,-5.0,-4.0,-6.0,-3.0,-1.0,-1.0,-3.0
1701961897.054188,-5.0,-7.0,2.0,7.0,1.0,-3.0,-4.0,-3.0
1701961897.0844636,1.0,16.0,-5.0,-33.0,-10.0,1.0,-2.0,-1.0
1701961897.0844636,-1.0,-1.0,7.0,11.0,19.0,4.0,-2.0,0.0
1701961897.0844636,3.0,3.0,-2.0,-1.0,-8.0,1.0,1.0,-1.0
1701961897.0844636,5.0,-2.0,3.0,1.0,11.0,1.0,1.0,0.0
1701961897.119509,0.0,-1.0,-5.0,0.0,1.0,-1.0,-2.0,-2.0
1701961897.119509,-2.0,0.0,-2.0,-6.0,-2.0,-2.0,-3.0,-3.0
1701961897.119509,1.0,-8.0,1.0,2.0,-12.0,-9.0,0.0,1.0
1701961897.119509,-7.0,-2.0,-1.0,8.0,-8.0,-1.0,-2.0,-6.0
1701961897.1215417,-1.0,11.0,-3.0,-15.0,2.0,0.0,0.0,-2.0
1701961897.1215417,-1.0,4.0,-1.0,3.0,-7.0,-5.0,-2.0,-3.0
1701961897.1225097,-4.0,-11.0,2.0,1.0,6.0,-1.0,-4.0,-3.0
1701961897.1225097,-3.0,-7.0,-6.0,-11.0,-20.0,-9.0,-3.0,-2.0
1701961897.129815,-4.0,-8.0,1.0,8.0,-4.0,-9.0,-2.0,-2.0
1701961897.129815,5.0,7.0,1.0,1.0,-3.0,-1.0,2.0,2.0
1701961897.1401157,2.0,8.0,9.0,23.0,47.0,27.0,11.0,5.0
1701961897.1401157,6.0,13.0,11.0,4.0,22.0,14.0,5.0,4.0
1701961897.1598518,-3.0,-3.0,-7.0,-15.0,-19.0,-11.0,-7.0,-3.0
1701961897.1598518,-6.0,-11.0,-4.0,-5.0,-11.0,-9.0,-4.0,-4.0
1701961897.1598518,-2.0,0.0,7.0,3.0,-14.0,-10.0,-3.0,-1.0
1701961897.1598518,-2.0,-2.0,-9.0,7.0,-3.0,-2.0,-2.0,-3.0
1701961897.1800594,-1.0,-4.0,2.0,14.0,12.0,3.0,0.0,1.0
1701961897.1800594,1.0,-1.0,-7.0,-11.0,-14.0,-4.0,-3.0,0.0
1701961897.1800594,0.0,0.0,3.0,-12.0,-6.0,-5.0,-1.0,-1.0
1701961897.1800594,-2.0,-18.0,7.0,8.0,7.0,2.0,1.0,1.0
1701961897.1898234,8.0,37.0,16.0,-3.0,-4.0,0.0,1.0,2.0
1701961897.1898234,-4.0,-13.0,-12.0,-3.0,3.0,2.0,-1.0,-1.0
1701961897.219816,1.0,1.0,-1.0,0.0,0.0,0.0,-3.0,-3.0
1701961897.219816,-1.0,-12.0,-12.0,-6.0,-5.0,-3.0,-2.0,-1.0
1701961897.219816,-5.0,0.0,3.0,2.0,1.0,1.0,2.0,-2.0
1701961897.219816,-3.0,-11.0,-1.0,-3.0,0.0,2.0,0.0,-1.0
1701961897.219816,0.0,-7.0,-8.0,0.0,-4.0,-3.0,-3.0,-2.0
1701961897.219816,-7.0,-12.0,-4.0,-4.0,-3.0,-2.0,1.0,-3.0
1701961897.2402039,-1.0,0.0,-12.0,-6.0,-1.0,-2.0,-2.0,-1.0
1701961897.2402039,8.0,8.0,10.0,10.0,2.0,2.0,-1.0,0.0
1701961897.2402039,1.0,-1.0,-9.0,-9.0,-9.0,-6.0,-4.0,-1.0
1701961897.2402039,-1.0,3.0,5.0,4.0,3.0,-1.0,-2.0,-2.0
1701961897.259862,2.0,-6.0,-13.0,-12.0,-1.0,0.0,-1.0,1.0
1701961897.259862,-1.0,5.0,4.0,23.0,3.0,0.0,-1.0,0.0
1701961897.259862,3.0,6.0,-9.0,-37.0,-7.0,-2.0,0.0,-1.0
1701961897.259862,-1.0,-1.0,6.0,8.0,1.0,0.0,0.0,1.0
1701961897.2799287,-3.0,0.0,-5.0,4.0,2.0,1.0,1.0,-2.0
1701961897.2799287,-5.0,-11.0,-4.0,0.0,-2.0,-1.0,2.0,2.0
1701961897.2799287,-2.0,9.0,11.0,6.0,-2.0,-2.0,-1.0,-2.0
1701961897.2799287,4.0,3.0,5.0,4.0,4.0,0.0,0.0,1.0
1701961897.2999492,-5.0,-9.0,4.0,5.0,-2.0,-1.0,0.0,-2.0
1701961897.2999492,0.0,0.0,-16.0,-21.0,-3.0,-3.0,-2.0,-3.0
1701961897.2999492,0.0,40.0,11.0,6.0,1.0,1.0,-1.0,-2.0
1701961897.2999492,-4.0,-23.0,-13.0,-8.0,-3.0,-2.0,-2.0,-1.0
1701961897.319872,1.0,36.0,-2.0,0.0,-6.0,-5.0,-5.0,-2.0
1701961897.319872,2.0,-34.0,-3.0,-3.0,-1.0,-1.0,0.0,1.0
1701961897.319872,-2.0,-11.0,-4.0,11.0,5.0,1.0,-1.0,0.0
1701961897.319872,5.0,18.0,2.0,-2.0,-1.0,0.0,-1.0,-1.0
1701961897.3399248,-8.0,-15.0,-9.0,-1.0,1.0,0.0,-2.0,-3.0
1701961897.3399248,6.0,24.0,4.0,-3.0,-4.0,0.0,0.0,2.0
1701961897.3399248,-5.0,-35.0,-8.0,-8.0,-8.0,-5.0,-3.0,-4.0
1701961897.3399248,6.0,-43.0,-11.0,-2.0,-1.0,-1.0,1.0,5.0
1701961897.3598778,-2.0,-9.0,2.0,5.0,5.0,1.0,1.0,-4.0
1701961897.3598778,-7.0,10.0,-5.0,-8.0,2.0,1.0,-2.0,-6.0
1701961897.3598778,3.0,-12.0,7.0,7.0,-3.0,2.0,1.0,4.0
1701961897.3598778,10.0,20.0,2.0,-8.0,-7.0,-3.0,-1.0,4.0
1701961897.3801308,6.0,2.0,6.0,-3.0,-5.0,-4.0,-3.0,-2.0
1701961897.3801308,-6.0,-9.0,-4.0,0.0,2.0,0.0,2.0,0.0
1701961897.3801308,-2.0,1.0,-2.0,3.0,-1.0,-1.0,-3.0,-4.0
1701961897.3801308,-8.0,8.0,5.0,6.0,4.0,2.0,0.0,-2.0
1701961897.3999176,-2.0,-5.0,-2.0,-10.0,-3.0,-3.0,-1.0,2.0
1701961897.3999176,-1.0,4.0,0.0,-13.0,-31.0,-11.0,-6.0,-3.0
1701961897.3999176,-5.0,-2.0,-3.0,-22.0,-14.0,-9.0,-5.0,-2.0
1701961897.3999176,4.0,16.0,3.0,-3.0,15.0,5.0,-2.0,2.0
1701961897.4199212,-3.0,-10.0,-11.0,-10.0,13.0,-1.0,3.0,1.0
1701961897.4199212,-3.0,-6.0,2.0,48.0,39.0,15.0,-3.0,-6.0
1701961897.4199212,-1.0,11.0,9.0,-4.0,1.0,1.0,0.0,-1.0
1701961897.4199212,-5.0,1.0,22.0,33.0,-10.0,-29.0,-7.0,-5.0
1701961897.4402864,1.0,-5.0,-48.0,-65.0,-11.0,15.0,1.0,1.0
1701961897.4402864,-1.0,1.0,9.0,-2.0,-19.0,-13.0,-6.0,-1.0
1701961897.4402864,-4.0,-6.0,10.0,28.0,32.0,-1.0,1.0,-4.0
1701961897.4402864,0.0,13.0,-4.0,-37.0,-41.0,-13.0,-5.0,-3.0
1701961897.4503121,5.0,-1.0,5.0,29.0,17.0,4.0,3.0,3.0
1701961897.4503121,0.0,6.0,-11.0,-13.0,11.0,6.0,0.0,0.0
1701961897.4603133,1.0,3.0,17.0,5.0,3.0,14.0,0.0,2.0
1701961897.4603133,-5.0,-10.0,-13.0,3.0,-6.0,-4.0,0.0,-2.0
1701961897.4805613,-2.0,-1.0,-22.0,-50.0,-38.0,-18.0,-7.0,-3.0
1701961897.4805613,3.0,1.0,5.0,17.0,-6.0,1.0,3.0,1.0
1701961897.4805613,1.0,10.0,2.0,-10.0,23.0,15.0,2.0,1.0
1701961897.4805613,-1.0,-3.0,-5.0,2.0,36.0,13.0,3.0,-1.0
1701961897.5006812,-3.0,-7.0,9.0,37.0,-17.0,-11.0,-4.0,-1.0
1701961897.5006812,0.0,-2.0,11.0,-5.0,-6.0,-4.0,-3.0,-2.0
1701961897.5006812,-3.0,-5.0,-29.0,-19.0,-26.0,-13.0,-2.0,-3.0
1701961897.5006812,-2.0,3.0,2.0,-23.0,-23.0,-4.0,-3.0,-2.0
1701961897.5106933,0.0,0.0,19.0,33.0,28.0,10.0,4.0,2.0
1701961897.5106933,1.0,2.0,-7.0,-9.0,10.0,8.0,4.0,2.0
1701961897.5203133,0.0,-2.0,-10.0,11.0,-12.0,-7.0,0.0,0.0
1701961897.5203133,0.0,-6.0,-5.0,-11.0,13.0,4.0,-2.0,-2.0
1701961897.540346,-2.0,-1.0,6.0,35.0,20.0,2.0,0.0,-3.0
1701961897.540346,1.0,7.0,2.0,-1.0,6.0,0.0,-2.0,1.0
1701961897.540346,3.0,6.0,12.0,-11.0,-12.0,-7.0,-4.0,-1.0
1701961897.540346,0.0,1.0,-8.0,13.0,3.0,4.0,0.0,-1.0
1701961897.5607336,-2.0,-7.0,7.0,-24.0,-14.0,-4.0,-2.0,-3.0
1701961897.5607336,-4.0,-6.0,-6.0,6.0,7.0,1.0,1.0,0.0
1701961897.5607336,-2.0,2.0,-15.0,20.0,6.0,-1.0,-4.0,-4.0
1701961897.5607336,-1.0,4.0,-1.0,-14.0,-4.0,3.0,2.0,-1.0
1701961897.570688,-2.0,-6.0,11.0,1.0,-2.0,4.0,-2.0,-1.0
1701961897.570688,-5.0,0.0,-9.0,-2.0,-3.0,-5.0,-1.0,-1.0
1701961897.5803137,-2.0,-5.0,7.0,9.0,-2.0,-4.0,0.0,1.0
1701961897.5803137,-3.0,1.0,3.0,1.0,-2.0,1.0,2.0,0.0
1701961897.6103122,3.0,1.0,-4.0,-2.0,-1.0,-1.0,-1.0,-1.0
1701961897.6103122,-3.0,4.0,12.0,7.0,1.0,-1.0,1.0,0.0
1701961897.6103122,0.0,-3.0,-3.0,-10.0,-6.0,-3.0,0.0,-1.0
1701961897.6103122,2.0,7.0,19.0,8.0,3.0,3.0,-2.0,-1.0
1701961897.620372,-1.0,5.0,-7.0,3.0,1.0,0.0,1.0,3.0
1701961897.620372,-5.0,-20.0,-35.0,-23.0,-14.0,-5.0,-3.0,0.0
1701961897.620372,-8.0,10.0,8.0,-3.0,-2.0,0.0,2.0,0.0
1701961897.620372,-1.0,-8.0,-3.0,1.0,0.0,3.0,-2.0,-2.0
1701961897.640449,-6.0,-11.0,11.0,6.0,-2.0,-3.0,-4.0,-5.0
1701961897.640449,2.0,32.0,18.0,-1.0,-2.0,0.0,2.0,1.0
1701961897.6410577,-16.0,-36.0,-19.0,-7.0,-6.0,-3.0,-3.0,-5.0
1701961897.6410577,-4.0,-21.0,-10.0,6.0,4.0,0.0,0.0,-4.0
1701961897.67281,11.0,-1.0,-5.0,-5.0,-4.0,-1.0,-2.0,7.0
1701961897.67281,0.0,-24.0,0.0,-5.0,-4.0,-4.0,0.0,2.0
1701961897.67281,-3.0,6.0,3.0,5.0,5.0,0.0,-2.0,-7.0
1701961897.67281,-16.0,7.0,-6.0,-2.0,-3.0,-1.0,0.0,-5.0
1701961897.6829731,-6.0,-26.0,-8.0,-5.0,-7.0,-4.0,0.0,-3.0
1701961897.6829731,9.0,18.0,-4.0,-8.0,-6.0,-1.0,0.0,-2.0
1701961897.6829731,-1.0,2.0,0.0,-2.0,-4.0,-5.0,0.0,1.0
1701961897.6829731,2.0,9.0,16.0,4.0,2.0,0.0,-1.0,-2.0
1701961897.6929657,2.0,7.0,-8.0,7.0,8.0,7.0,2.0,2.0
1701961897.6929657,0.0,-8.0,3.0,0.0,-6.0,-6.0,-1.0,1.0
1701961897.6929657,5.0,6.0,-2.0,-10.0,-5.0,-4.0,-1.0,1.0
1701961897.6929657,-1.0,5.0,-3.0,-15.0,-8.0,-4.0,-4.0,-2.0
1701961897.732808,-5.0,-7.0,5.0,10.0,-8.0,-1.0,-1.0,-5.0
1701961897.732808,0.0,20.0,10.0,7.0,11.0,4.0,0.0,-2.0
1701961897.732808,2.0,-10.0,-7.0,7.0,6.0,2.0,-1.0,2.0
1701961897.732808,4.0,1.0,-7.0,6.0,-4.0,-8.0,-4.0,2.0
1701961897.7431092,1.0,8.0,1.0,-7.0,-14.0,-5.0,-1.0,0.0
1701961897.7431092,-4.0,-5.0,2.0,4.0,5.0,7.0,-1.0,-3.0
1701961897.7431092,7.0,7.0,12.0,5.0,16.0,10.0,2.0,3.0
1701961897.7431092,0.0,-7.0,-15.0,20.0,18.0,1.0,1.0,1.0
1701961897.7628102,-3.0,5.0,0.0,-38.0,-16.0,-4.0,-2.0,-2.0
1701961897.7628102,-5.0,-8.0,-24.0,-15.0,-21.0,-10.0,-4.0,-4.0
1701961897.7628102,-1.0,6.0,13.0,25.0,-13.0,-8.0,-5.0,-4.0
1701961897.7628102,2.0,-5.0,-14.0,-39.0,-23.0,-4.0,-1.0,0.0
1701961897.7730567,0.0,4.0,28.0,4.0,19.0,-1.0,-1.0,0.0
1701961897.7730567,1.0,0.0,3.0,36.0,29.0,9.0,2.0,-3.0
1701961897.78308,3.0,-7.0,-15.0,-18.0,8.0,3.0,0.0,2.0
1701961897.78308,-2.0,-1.0,14.0,37.0,-15.0,-3.0,-3.0,-2.0
1701961897.8033435,1.0,7.0,-21.0,-26.0,-5.0,-5.0,-1.0,-2.0
1701961897.8033435,-3.0,-4.0,9.0,-21.0,1.0,5.0,0.0,-2.0
1701961897.8033435,0.0,-1.0,5.0,9.0,0.0,4.0,1.0,0.0
1701961897.8033435,-1.0,1.0,-9.0,11.0,7.0,-3.0,-1.0,-1.0
1701961897.8132923,-3.0,-5.0,-1.0,7.0,-15.0,-9.0,-3.0,-3.0
1701961897.8132923,-5.0,-7.0,-5.0,-16.0,-4.0,-2.0,-3.0,-1.0
1701961897.8132923,2.0,3.0,-5.0,-10.0,-9.0,-2.0,0.0,0.0
1701961897.8132923,3.0,11.0,0.0,-14.0,-4.0,0.0,1.0,1.0
1701961897.8430817,-4.0,-12.0,-2.0,-20.0,7.0,-7.0,-4.0,-3.0
1701961897.8430817,1.0,-4.0,-15.0,50.0,19.0,9.0,6.0,1.0
1701961897.8430817,2.0,3.0,14.0,-3.0,1.0,6.0,3.0,2.0
1701961897.8430817,-2.0,-3.0,5.0,-9.0,-1.0,2.0,0.0,-2.0
1701961897.8633935,0.0,5.0,4.0,-2.0,-14.0,-5.0,-3.0,-2.0
1701961897.8633935,-1.0,-18.0,4.0,-3.0,-2.0,-6.0,-2.0,-4.0
1701961897.8633935,0.0,18.0,-7.0,-9.0,-1.0,-3.0,-3.0,-1.0
1701961897.8633935,-3.0,-9.0,5.0,0.0,3.0,6.0,0.0,-1.0
1701961897.89308,-1.0,-1.0,-13.0,6.0,7.0,5.0,-1.0,-3.0
1701961897.89308,-2.0,-2.0,-3.0,-17.0,-15.0,-10.0,-3.0,-1.0
1701961897.89308,1.0,-7.0,-3.0,3.0,-1.0,-3.0,1.0,-1.0
1701961897.89308,2.0,1.0,4.0,12.0,6.0,1.0,0.0,1.0
1701961897.89308,-3.0,2.0,8.0,3.0,6.0,1.0,-3.0,-2.0
1701961897.89308,3.0,7.0,8.0,-21.0,-14.0,-3.0,-1.0,-1.0
1701961897.89308,-1.0,-4.0,-18.0,9.0,6.0,-4.0,-2.0,0.0
1701961897.9030807,-1.0,0.0,-6.0,-24.0,-3.0,-2.0,-2.0,0.0
1701961897.923424,0.0,-5.0,5.0,26.0,11.0,6.0,3.0,2.0
1701961897.923424,-3.0,-1.0,2.0,7.0,4.0,-2.0,-1.0,-2.0
1701961897.923424,0.0,3.0,10.0,1.0,-8.0,-3.0,-3.0,-2.0
1701961897.923424,-1.0,-5.0,-16.0,-1.0,-5.0,-1.0,-2.0,-4.0
1701961897.9430768,3.0,6.0,8.0,-7.0,16.0,11.0,3.0,2.0
1701961897.9430768,-2.0,-3.0,-11.0,10.0,-10.0,-5.0,-3.0,0.0
1701961897.9430768,-1.0,-3.0,-7.0,-7.0,-6.0,-4.0,-2.0,-1.0
1701961897.9430768,-11.0,-8.0,1.0,13.0,1.0,-2.0,-4.0,-4.0
1701961897.953465,-4.0,-9.0,-7.0,0.0,-6.0,-4.0,-1.0,-2.0
1701961897.953465,3.0,12.0,10.0,-4.0,1.0,0.0,-3.0,-1.0
1701961897.953465,2.0,4.0,-1.0,7.0,1.0,0.0,0.0,0.0
1701961897.953465,-1.0,-2.0,-3.0,-11.0,-2.0,0.0,0.0,-2.0
1701961897.9830742,-2.0,9.0,2.0,13.0,0.0,-1.0,-1.0,0.0
1701961897.9830742,-4.0,-20.0,-7.0,-9.0,-2.0,-2.0,-3.0,-4.0
1701961897.9830742,0.0,26.0,0.0,-9.0,-6.0,-3.0,-1.0,3.0
1701961897.9830742,6.0,14.0,3.0,-3.0,2.0,0.0,0.0,11.0
1701961897.9933498,-2.0,-11.0,11.0,0.0,-4.0,-3.0,-3.0,-18.0
1701961897.9933498,5.0,21.0,-2.0,-2.0,-6.0,-5.0,3.0,6.0
1701961898.0034506,6.0,-16.0,-4.0,-12.0,-3.0,-13.0,-10.0,-9.0
1701961898.0034506,11.0,1.0,0.0,0.0,3.0,0.0,-9.0,6.0
1701961898.0134315,-6.0,4.0,-5.0,8.0,1.0,11.0,21.0,2.0
1701961898.0134315,10.0,4.0,9.0,-7.0,4.0,63.0,31.0,10.0
1701961898.0134315,5.0,-20.0,-2.0,0.0,-1.0,-7.0,0.0,0.0
1701961898.0134315,3.0,-1.0,7.0,6.0,10.0,2.0,-2.0,-1.0
1701961898.0430772,4.0,-2.0,-8.0,0.0,-5.0,-24.0,-10.0,1.0
1701961898.0430772,-12.0,-1.0,6.0,-6.0,-4.0,-19.0,-11.0,-10.0
1701961898.0430772,-6.0,-2.0,-5.0,-7.0,0.0,6.0,2.0,0.0
1701961898.0430772,-2.0,0.0,-5.0,-9.0,-20.0,-12.0,1.0,-4.0
1701961898.0530744,-6.0,-1.0,-4.0,-31.0,-25.0,-11.0,-11.0,-3.0
1701961898.0530744,2.0,-2.0,-4.0,26.0,35.0,5.0,-1.0,0.0
1701961898.0633483,-3.0,-1.0,8.0,21.0,16.0,7.0,4.0,-1.0
1701961898.0633483,-7.0,-9.0,-7.0,-16.0,1.0,-6.0,-3.0,-6.0
1701961898.0734482,0.0,6.0,9.0,20.0,12.0,9.0,1.0,1.0
1701961898.0734482,-2.0,1.0,1.0,15.0,-8.0,-17.0,-9.0,-3.0
1701961898.0734482,-9.0,-16.0,-24.0,-18.0,-8.0,0.0,-2.0,-3.0
1701961898.0734482,-5.0,-2.0,-32.0,-71.0,-65.0,-23.0,-5.0,-6.0
1701961898.1030772,3.0,8.0,19.0,-26.0,3.0,16.0,-7.0,0.0
1701961898.1030772,-1.0,-11.0,-13.0,50.0,25.0,0.0,1.0,0.0
1701961898.1030772,1.0,12.0,51.0,-25.0,10.0,1.0,3.0,3.0
1701961898.1030772,-1.0,-6.0,18.0,98.0,53.0,24.0,7.0,0.0
1701961898.1131294,-1.0,-5.0,-36.0,-46.0,-11.0,-14.0,-8.0,-1.0
1701961898.1131294,-8.0,-10.0,-15.0,-56.0,-44.0,-18.0,-14.0,-8.0
1701961898.1230767,-3.0,-4.0,0.0,8.0,-28.0,-8.0,-3.0,-1.0
1701961898.1230767,-3.0,2.0,15.0,-9.0,3.0,-5.0,-3.0,-4.0
1701961898.1332593,0.0,-4.0,7.0,43.0,-11.0,-15.0,-3.0,-1.0
1701961898.1332593,0.0,1.0,-20.0,-40.0,-13.0,-13.0,-7.0,-2.0
1701961898.1430912,-3.0,-8.0,-30.0,-28.0,11.0,2.0,-6.0,-2.0
1701961898.1430912,3.0,5.0,20.0,-1.0,-3.0,3.0,3.0,3.0
1701961898.164288,-3.0,0.0,-9.0,53.0,21.0,5.0,3.0,-1.0
1701961898.164288,0.0,-12.0,8.0,12.0,12.0,3.0,2.0,1.0
1701961898.1652858,2.0,15.0,1.0,-3.0,-21.0,-3.0,-1.0,-2.0
1701961898.1652858,-4.0,5.0,15.0,-12.0,9.0,-3.0,-5.0,-4.0
1701961898.1877747,-3.0,-13.0,-26.0,-3.0,4.0,2.0,1.0,2.0
1701961898.1877747,-5.0,-4.0,2.0,-38.0,-28.0,-15.0,-3.0,-1.0
1701961898.1877747,-1.0,-5.0,4.0,7.0,30.0,16.0,7.0,0.0
1701961898.1877747,-1.0,3.0,-10.0,17.0,8.0,-1.0,0.0,-1.0
1701961898.1957963,1.0,1.0,1.0,-25.0,-23.0,1.0,2.0,2.0
1701961898.1957963,0.0,-1.0,5.0,0.0,0.0,-8.0,-2.0,-3.0
1701961898.1957963,-5.0,-13.0,-17.0,9.0,8.0,6.0,0.0,-3.0
1701961898.1957963,0.0,7.0,-2.0,-29.0,-22.0,1.0,-3.0,-1.0
1701961898.2158232,-2.0,-7.0,2.0,15.0,-1.0,-2.0,-2.0,-1.0
1701961898.2158232,-1.0,3.0,10.0,-3.0,11.0,1.0,-3.0,-1.0
1701961898.2158232,-5.0,-8.0,2.0,15.0,-22.0,-8.0,-3.0,-4.0
1701961898.2158232,0.0,-3.0,-17.0,-38.0,0.0,0.0,2.0,0.0
1701961898.2458005,3.0,5.0,7.0,6.0,14.0,11.0,3.0,0.0
1701961898.2458005,-2.0,-3.0,6.0,22.0,7.0,3.0,0.0,-2.0
1701961898.2458005,4.0,14.0,28.0,-1.0,-5.0,-6.0,-1.0,0.0
1701961898.2458005,-2.0,-13.0,-40.0,-4.0,0.0,-1.0,-2.0,-2.0
1701961898.2560928,-1.0,-1.0,-20.0,-8.0,0.0,-1.0,0.0,0.0
1701961898.2560928,-1.0,-1.0,19.0,15.0,-1.0,0.0,-2.0,-2.0
1701961898.2560928,-2.0,-6.0,-56.0,-45.0,-8.0,-5.0,-2.0,-1.0
1701961898.2560928,-3.0,3.0,43.0,11.0,1.0,2.0,-4.0,-4.0
1701961898.2857964,0.0,0.0,-9.0,6.0,3.0,1.0,0.0,0.0
1701961898.2857964,1.0,5.0,15.0,0.0,-5.0,0.0,-1.0,0.0
1701961898.2857964,-3.0,-6.0,5.0,27.0,4.0,-2.0,-2.0,-1.0
1701961898.2857964,1.0,0.0,0.0,9.0,7.0,3.0,2.0,2.0
1701961898.3060567,-2.0,0.0,8.0,-14.0,-6.0,-5.0,-1.0,-1.0
1701961898.3060567,-2.0,-2.0,-4.0,1.0,-5.0,-2.0,-1.0,-2.0
1701961898.3060567,-1.0,1.0,5.0,-3.0,1.0,1.0,0.0,2.0
1701961898.3060567,-1.0,-5.0,-8.0,-7.0,-3.0,-2.0,1.0,-1.0
1701961898.316036,1.0,5.0,5.0,5.0,0.0,0.0,-2.0,-1.0
1701961898.316036,-2.0,-5.0,-25.0,-13.0,0.0,0.0,0.0,1.0
1701961898.316036,1.0,-9.0,0.0,1.0,-4.0,0.0,-1.0,-2.0
1701961898.316036,3.0,20.0,8.0,8.0,0.0,-1.0,0.0,0.0
1701961898.3458,-5.0,-8.0,6.0,2.0,-1.0,-2.0,-1.0,-4.0
1701961898.3458,-4.0,18.0,-2.0,-7.0,-2.0,0.0,-2.0,-3.0
1701961898.3458,2.0,-15.0,-8.0,-3.0,-1.0,-3.0,-2.0,6.0
1701961898.3458,-10.0,-36.0,7.0,7.0,-3.0,-5.0,-2.0,-4.0
1701961898.3658001,3.0,-18.0,-19.0,-4.0,1.0,0.0,0.0,3.0
1701961898.3658001,-9.0,11.0,-8.0,-8.0,-4.0,-2.0,-4.0,-18.0
1701961898.3658001,10.0,24.0,21.0,5.0,-3.0,-2.0,-1.0,-6.0
1701961898.3658001,-3.0,-24.0,-19.0,2.0,4.0,3.0,1.0,2.0
1701961898.3757968,12.0,16.0,10.0,-2.0,3.0,3.0,5.0,8.0
1701961898.3757968,25.0,-14.0,3.0,0.0,0.0,-1.0,4.0,12.0
1701961898.3757968,-18.0,-10.0,-13.0,1.0,-4.0,-11.0,-29.0,-11.0
1701961898.3757968,3.0,9.0,10.0,1.0,-3.0,-2.0,-1.0,-1.0
1701961898.3961432,-7.0,13.0,-8.0,-14.0,-20.0,-8.0,-6.0,-7.0
1701961898.3961432,-4.0,-30.0,-4.0,-1.0,-1.0,-2.0,3.0,2.0
1701961898.3961432,-2.0,0.0,0.0,0.0,13.0,2.0,-1.0,-1.0
1701961898.3961432,3.0,10.0,3.0,20.0,34.0,19.0,7.0,3.0
1701961898.4257994,-1.0,3.0,3.0,-13.0,-5.0,-6.0,1.0,4.0
1701961898.4257994,-2.0,8.0,6.0,-25.0,-29.0,5.0,4.0,3.0
1701961898.4257994,2.0,2.0,6.0,64.0,25.0,-3.0,10.0,6.0
1701961898.4257994,-5.0,-4.0,-13.0,-21.0,-5.0,3.0,-2.0,-1.0
1701961898.4357967,1.0,-10.0,7.0,23.0,12.0,-5.0,-3.0,-4.0
1701961898.4357967,-4.0,2.0,-10.0,-23.0,0.0,4.0,-2.0,-3.0
1701961898.4357967,-5.0,-6.0,4.0,-7.0,-4.0,12.0,7.0,1.0
1701961898.4357967,2.0,3.0,-20.0,-45.0,-60.0,-51.0,-17.0,-5.0
1701961898.4563909,-4.0,2.0,11.0,-24.0,-72.0,-43.0,-15.0,-7.0
1701961898.4661946,-2.0,-1.0,-12.0,50.0,77.0,26.0,5.0,2.0
1701961898.4661946,9.0,15.0,34.0,35.0,65.0,50.0,17.0,8.0
1701961898.4661946,0.0,2.0,-8.0,33.0,32.0,0.0,1.0,-4.0
1701961898.4862692,-6.0,-11.0,-34.0,-48.0,-41.0,-20.0,-10.0,-8.0
1701961898.4862692,-8.0,-6.0,18.0,0.0,-77.0,-50.0,-19.0,-6.0
1701961898.4962053,-1.0,-5.0,-13.0,-25.0,-25.0,-14.0,0.0,-3.0
1701961898.4962053,-2.0,3.0,1.0,9.0,24.0,27.0,5.0,0.0
1701961898.5161924,-2.0,-2.0,2.0,10.0,-1.0,-1.0,3.0,1.0
1701961898.5161924,4.0,7.0,3.0,29.0,38.0,23.0,6.0,4.0
1701961898.5161924,-3.0,1.0,-4.0,-23.0,-3.0,-1.0,-2.0,-3.0
1701961898.5161924,-4.0,1.0,10.0,-15.0,-46.0,-20.0,-9.0,-4.0
1701961898.5161924,-1.0,-1.0,4.0,21.0,16.0,5.0,2.0,-1.0
1701961898.5161924,-1.0,-1.0,-11.0,-18.0,15.0,3.0,0.0,-1.0
1701961898.5161924,-2.0,-1.0,-20.0,-45.0,-17.0,0.0,3.0,1.0
1701961898.5161924,1.0,1.0,-1.0,30.0,23.0,8.0,3.0,1.0
1701961898.546332,2.0,4.0,10.0,-7.0,12.0,25.0,4.0,1.0
1701961898.546332,2.0,4.0,2.0,9.0,-8.0,-8.0,-1.0,-1.0
1701961898.546332,0.0,-1.0,3.0,-14.0,-17.0,-10.0,0.0,1.0
1701961898.546332,-1.0,0.0,1.0,21.0,19.0,9.0,3.0,-1.0
1701961898.5661945,1.0,3.0,13.0,16.0,15.0,6.0,-1.0,0.0
1701961898.5661945,-6.0,-9.0,-58.0,-33.0,-21.0,-7.0,-3.0,-2.0
1701961898.5661945,-2.0,-3.0,-10.0,-11.0,-10.0,-8.0,-6.0,-4.0
1701961898.5661945,-1.0,-3.0,-5.0,3.0,-2.0,-4.0,-4.0,-1.0
1701961898.5762768,1.0,-1.0,26.0,7.0,17.0,10.0,3.0,1.0
1701961898.5762768,0.0,1.0,10.0,-1.0,-1.0,-2.0,-3.0,-1.0
1701961898.5762768,0.0,0.0,12.0,16.0,-4.0,-10.0,-2.0,2.0
1701961898.5762768,0.0,1.0,6.0,-20.0,-7.0,9.0,2.0,0.0
1701961898.6062262,-4.0,-4.0,-21.0,12.0,17.0,8.0,-1.0,-2.0
1701961898.6062262,0.0,1.0,-1.0,-5.0,-3.0,-1.0,-2.0,-3.0
1701961898.6062262,-3.0,-5.0,-6.0,-1.0,-13.0,-9.0,-4.0,-3.0
1701961898.6062262,1.0,3.0,35.0,7.0,-4.0,-3.0,0.0,2.0
1701961898.6165888,1.0,3.0,-13.0,19.0,18.0,7.0,2.0,1.0
1701961898.6165888,-1.0,-6.0,-26.0,-25.0,-6.0,-4.0,-5.0,-1.0
1701961898.6165888,-1.0,-4.0,3.0,5.0,-12.0,-2.0,-4.0,-4.0
1701961898.6165888,-2.0,0.0,-5.0,-7.0,-6.0,-6.0,-5.0,-3.0
1701961898.6365864,1.0,1.0,27.0,19.0,10.0,2.0,0.0,-1.0
1701961898.6365864,-1.0,-2.0,-15.0,-4.0,-2.0,-3.0,-1.0,-1.0
1701961898.6365864,-2.0,-1.0,-3.0,-1.0,-5.0,-5.0,-1.0,-1.0
1701961898.6365864,2.0,5.0,13.0,11.0,5.0,3.0,3.0,2.0
1701961898.6662264,-1.0,-5.0,-26.0,-14.0,-3.0,-1.0,-1.0,-2.0
1701961898.6662264,-1.0,1.0,28.0,11.0,-1.0,0.0,-1.0,0.0
1701961898.6662264,-2.0,-3.0,-6.0,2.0,-1.0,1.0,-3.0,-1.0
1701961898.6662264,0.0,-1.0,-12.0,-11.0,-5.0,-1.0,0.0,-1.0
1701961898.676583,-1.0,1.0,6.0,-9.0,0.0,-1.0,-1.0,-1.0
1701961898.676583,-1.0,1.0,12.0,1.0,-1.0,-1.0,0.0,-1.0
1701961898.676583,0.0,-1.0,0.0,4.0,0.0,-1.0,-1.0,-1.0
1701961898.676583,-1.0,-6.0,-5.0,-5.0,-4.0,-1.0,-2.0,0.0
1701961898.7045705,0.0,6.0,-2.0,-6.0,1.0,-1.0,0.0,0.0
1701961898.7045705,-2.0,-2.0,8.0,9.0,2.0,-1.0,-1.0,-3.0
1701961898.7045705,0.0,1.0,-1.0,-1.0,-2.0,-2.0,0.0,-1.0
1701961898.7045705,-6.0,-5.0,-10.0,-6.0,-3.0,-2.0,-2.0,-4.0
1701961898.7295077,6.0,-5.0,-4.0,-5.0,-3.0,-1.0,-1.0,-6.0
1701961898.7295077,2.0,13.0,13.0,2.0,0.0,2.0,4.0,5.0
1701961898.7295077,-5.0,21.0,0.0,-2.0,-3.0,1.0,0.0,-3.0
1701961898.7295077,5.0,-7.0,-4.0,4.0,5.0,5.0,6.0,7.0
1701961898.739709,1.0,-6.0,-16.0,-6.0,4.0,-5.0,-2.0,-1.0
1701961898.739709,-4.0,6.0,18.0,-2.0,-18.0,-8.0,-11.0,-6.0
1701961898.739709,11.0,-1.0,-7.0,-5.0,-7.0,-6.0,8.0,0.0
1701961898.739709,-7.0,-17.0,-8.0,-2.0,8.0,-7.0,-17.0,-11.0
1701961898.7597888,1.0,32.0,11.0,0.0,-9.0,5.0,5.0,0.0
1701961898.7597888,-6.0,-24.0,-13.0,-14.0,-1.0,1.0,4.0,7.0
1701961898.7597888,6.0,21.0,15.0,-13.0,-20.0,-2.0,-11.0,-3.0
1701961898.7597888,12.0,-23.0,-4.0,74.0,67.0,22.0,13.0,15.0
1701961898.7895098,2.0,-3.0,-5.0,-39.0,-22.0,-1.0,-1.0,-2.0
1701961898.7895098,-5.0,0.0,-9.0,43.0,-12.0,-15.0,-1.0,-7.0
1701961898.7895098,-3.0,-9.0,-6.0,-12.0,15.0,-10.0,-4.0,-3.0
1701961898.7895098,1.0,18.0,2.0,-22.0,-21.0,31.0,12.0,2.0
1701961898.7995467,-6.0,-21.0,-12.0,-20.0,-17.0,-28.0,-5.0,1.0
1701961898.7995467,1.0,5.0,34.0,1.0,-9.0,4.0,-1.0,1.0
1701961898.8095827,-4.0,-8.0,-25.0,7.0,-6.0,7.0,4.0,1.0
1701961898.8095827,1.0,9.0,4.0,24.0,15.0,-8.0,-4.0,-3.0
1701961898.8195171,0.0,7.0,-28.0,4.0,-6.0,-1.0,-4.0,0.0
1701961898.8195171,1.0,-5.0,-10.0,-23.0,46.0,2.0,0.0,-1.0
1701961898.8195171,-14.0,-17.0,14.0,32.0,-18.0,-12.0,-14.0,-11.0
1701961898.8195171,0.0,-3.0,-52.0,-54.0,-16.0,-22.0,-5.0,-1.0
1701961898.8495133,-4.0,-7.0,15.0,12.0,6.0,5.0,-3.0,-4.0
1701961898.8495133,5.0,6.0,21.0,12.0,-15.0,-11.0,-6.0,-2.0
1701961898.8495133,-4.0,-12.0,-22.0,-23.0,-16.0,2.0,-2.0,1.0
1701961898.8495133,-5.0,2.0,0.0,-7.0,-6.0,-13.0,-4.0,-5.0
1701961898.8597383,-4.0,-7.0,-1.0,0.0,2.0,8.0,1.0,0.0
1701961898.8597383,-4.0,3.0,15.0,8.0,8.0,12.0,-3.0,-7.0
1701961898.869518,-1.0,-2.0,3.0,-13.0,-20.0,3.0,1.0,1.0
1701961898.869518,-2.0,5.0,7.0,5.0,2.0,0.0,4.0,1.0
1701961898.899609,-3.0,-5.0,-2.0,19.0,37.0,-1.0,-4.0,-1.0
1701961898.899609,6.0,4.0,8.0,2.0,2.0,12.0,8.0,7.0
1701961898.899609,2.0,3.0,-20.0,5.0,34.0,4.0,3.0,2.0
1701961898.899609,-7.0,-9.0,-1.0,-14.0,-40.0,-14.0,-2.0,-4.0
1701961898.899609,-2.0,-2.0,21.0,13.0,24.0,20.0,5.0,1.0
1701961898.899609,3.0,3.0,1.0,6.0,-6.0,5.0,5.0,2.0
1701961898.899609,-3.0,-3.0,9.0,-15.0,-11.0,-22.0,-8.0,-3.0
1701961898.899609,-1.0,4.0,-24.0,-15.0,-4.0,1.0,-2.0,-2.0
1701961898.9198933,-1.0,3.0,40.0,9.0,-1.0,-2.0,0.0,1.0
1701961898.9198933,-7.0,-6.0,15.0,-6.0,-26.0,-18.0,-7.0,-7.0
1701961898.929615,4.0,-2.0,-25.0,3.0,13.0,11.0,5.0,2.0
1701961898.929615,-1.0,0.0,5.0,-21.0,-4.0,-9.0,-7.0,-3.0
1701961898.9396105,-2.0,1.0,21.0,42.0,4.0,5.0,2.0,-1.0
1701961898.9396105,1.0,0.0,-43.0,-61.0,-4.0,-3.0,-1.0,0.0
1701961898.9396105,-4.0,-6.0,14.0,3.0,7.0,1.0,-3.0,-3.0
1701961898.9396105,-1.0,2.0,15.0,7.0,-5.0,-5.0,-5.0,-2.0
1701961898.959974,-2.0,-4.0,-30.0,-4.0,-18.0,-8.0,-1.0,1.0
1701961898.959974,-3.0,-1.0,0.0,5.0,5.0,-1.0,0.0,-1.0
1701961898.959974,0.0,1.0,11.0,-5.0,6.0,1.0,3.0,0.0
1701961898.959974,-2.0,-1.0,1.0,2.0,-14.0,-1.0,-1.0,-2.0
1701961898.9799588,3.0,-1.0,-17.0,-39.0,-3.0,0.0,0.0,1.0
1701961898.9799588,-1.0,-3.0,-3.0,15.0,11.0,6.0,1.0,-1.0
1701961898.98997,-1.0,-2.0,-3.0,0.0,-2.0,1.0,0.0,0.0
1701961898.98997,1.0,4.0,16.0,10.0,1.0,3.0,1.0,-1.0
1701961898.9999716,-2.0,-2.0,0.0,2.0,0.0,-3.0,-4.0,-1.0
1701961898.9999716,1.0,-4.0,-11.0,-5.0,-1.0,-2.0,-2.0,0.0
1701961898.9999716,0.0,-1.0,6.0,13.0,1.0,-1.0,1.0,-1.0
1701961898.9999716,1.0,6.0,18.0,-9.0,1.0,7.0,1.0,2.0
1701961899.0203702,-3.0,-7.0,-29.0,-6.0,-4.0,-4.0,-2.0,-1.0
1701961899.0203702,-1.0,-2.0,6.0,-3.0,-5.0,-1.0,-2.0,-2.0
1701961899.0203702,-1.0,-5.0,6.0,11.0,4.0,1.0,0.0,0.0
1701961899.0203702,1.0,2.0,21.0,5.0,3.0,1.0,0.0,1.0
1701961899.0400295,-1.0,-2.0,-1.0,-7.0,-3.0,0.0,-1.0,-1.0
1701961899.0400295,2.0,12.0,-10.0,2.0,0.0,-1.0,-1.0,2.0
1701961899.0499694,-3.0,-14.0,-3.0,-5.0,1.0,1.0,1.0,-1.0
1701961899.0499694,2.0,5.0,-5.0,2.0,-2.0,-3.0,-1.0,-1.0
1701961899.0602055,2.0,2.0,-3.0,-15.0,-15.0,-7.0,-4.0,-2.0
1701961899.0602055,-5.0,-19.0,-5.0,14.0,18.0,9.0,4.0,-2.0
1701961899.0602055,-1.0,23.0,11.0,9.0,8.0,2.0,2.0,2.0
1701961899.0602055,1.0,-39.0,-18.0,-10.0,-9.0,-6.0,-3.0,-3.0
1701961899.0802796,4.0,19.0,0.0,-6.0,-8.0,-5.0,-8.0,-4.0
1701961899.0802796,-4.0,-11.0,9.0,2.0,0.0,-2.0,0.0,2.0
1701961899.0802796,1.0,-5.0,-10.0,-3.0,-7.0,-4.0,-1.0,0.0
1701961899.0802796,2.0,2.0,-4.0,-4.0,8.0,5.0,3.0,0.0
1701961899.0999842,-5.0,7.0,6.0,6.0,2.0,4.0,1.0,0.0
1701961899.0999842,-1.0,0.0,1.0,0.0,-4.0,-1.0,-4.0,-3.0
1701961899.1299684,-1.0,-5.0,13.0,0.0,-6.0,3.0,0.0,-1.0
1701961899.1299684,-5.0,7.0,-27.0,-3.0,-13.0,-1.0,-2.0,-3.0
1701961899.1299684,2.0,-16.0,4.0,-4.0,14.0,6.0,2.0,1.0
1701961899.1299684,-12.0,21.0,-11.0,-4.0,-2.0,-3.0,-1.0,-4.0
1701961899.1299684,3.0,-2.0,-6.0,1.0,-2.0,-4.0,1.0,2.0
1701961899.1299684,0.0,4.0,15.0,-3.0,0.0,-9.0,-7.0,-3.0
1701961899.1402364,-6.0,-2.0,-1.0,-19.0,-25.0,-10.0,-6.0,-5.0
1701961899.1402364,5.0,-8.0,-9.0,21.0,9.0,15.0,9.0,3.0
1701961899.1402364,-2.0,6.0,1.0,-7.0,13.0,10.0,-2.0,-3.0
1701961899.1402364,-7.0,3.0,2.0,-2.0,-7.0,-9.0,-3.0,-3.0
1701961899.1799693,0.0,-12.0,-3.0,1.0,3.0,-16.0,-7.0,0.0
1701961899.1799693,1.0,-4.0,-23.0,-15.0,-42.0,0.0,2.0,0.0
1701961899.1799693,-2.0,-2.0,5.0,34.0,36.0,7.0,-1.0,-2.0
1701961899.1799693,-1.0,7.0,36.0,18.0,29.0,18.0,8.0,2.0
1701961899.1799693,1.0,3.0,9.0,21.0,28.0,25.0,8.0,2.0
1701961899.1799693,2.0,-4.0,-29.0,-37.0,-14.0,-15.0,-9.0,-1.0
1701961899.1799693,-2.0,-4.0,6.0,10.0,-29.0,-10.0,-5.0,-2.0
1701961899.1799693,-1.0,-8.0,-25.0,-36.0,-25.0,-16.0,-7.0,0.0
1701961899.200121,-3.0,-2.0,-3.0,-13.0,-25.0,-15.0,-7.0,-4.0
1701961899.200121,-1.0,1.0,12.0,9.0,7.0,7.0,-3.0,-2.0
1701961899.200121,-1.0,-1.0,9.0,6.0,1.0,0.0,2.0,-2.0
1701961899.200121,-1.0,3.0,-11.0,-1.0,10.0,0.0,0.0,-1.0
1701961899.2443836,2.0,0.0,2.0,-7.0,-2.0,0.0,3.0,-1.0
1701961899.2443836,1.0,-1.0,-1.0,-2.0,4.0,-6.0,-3.0,-1.0
1701961899.2443836,-1.0,-2.0,-6.0,-8.0,2.0,-1.0,-2.0,0.0
1701961899.2443836,-2.0,-1.0,5.0,11.0,-8.0,-1.0,-1.0,-1.0
1701961899.2443836,-1.0,3.0,1.0,2.0,-1.0,4.0,0.0,-1.0
1701961899.2443836,-2.0,-3.0,9.0,14.0,19.0,3.0,1.0,-3.0
1701961899.2443836,-2.0,-4.0,-22.0,-16.0,-12.0,-6.0,-4.0,-3.0
1701961899.2443836,-4.0,-1.0,4.0,12.0,1.0,-4.0,-4.0,-2.0
1701961899.2644343,-1.0,-3.0,-11.0,-8.0,1.0,6.0,4.0,3.0
1701961899.2644343,1.0,1.0,13.0,-7.0,-3.0,-4.0,-1.0,1.0
1701961899.2644343,1.0,1.0,-13.0,-8.0,6.0,6.0,2.0,2.0
1701961899.2644343,1.0,2.0,5.0,7.0,0.0,-10.0,-4.0,-1.0
1701961899.284632,-1.0,-6.0,-9.0,6.0,-2.0,-8.0,-4.0,-2.0
1701961899.284632,1.0,1.0,5.0,9.0,4.0,-2.0,-2.0,-1.0
1701961899.284632,-1.0,0.0,-4.0,-30.0,-22.0,-10.0,-6.0,-1.0
1701961899.284632,3.0,3.0,5.0,15.0,3.0,1.0,1.0,0.0
1701961899.3044598,-2.0,-4.0,-1.0,16.0,11.0,4.0,2.0,-2.0
1701961899.3044598,-1.0,-1.0,1.0,-7.0,2.0,0.0,1.0,-2.0
1701961899.3044598,0.0,-4.0,-4.0,-8.0,-3.0,-8.0,0.0,-2.0
1701961899.3044598,-2.0,-1.0,-7.0,-13.0,-9.0,-5.0,-4.0,-1.0
1701961899.3243947,1.0,2.0,13.0,7.0,2.0,2.0,2.0,1.0
1701961899.3243947,2.0,0.0,-5.0,-4.0,5.0,1.0,1.0,2.0
1701961899.3243947,0.0,2.0,8.0,-1.0,-2.0,1.0,-1.0,0.0
1701961899.3243947,2.0,-3.0,-2.0,3.0,0.0,2.0,0.0,-1.0
1701961899.3543859,-2.0,-3.0,-11.0,-21.0,-10.0,-4.0,-3.0,0.0
1701961899.3543859,1.0,-2.0,-1.0,1.0,-7.0,-6.0,-2.0,-2.0
1701961899.3543859,-1.0,2.0,3.0,19.0,13.0,3.0,1.0,-1.0
1701961899.3543859,-1.0,1.0,3.0,-11.0,2.0,3.0,3.0,-2.0
1701961899.3644516,-4.0,-7.0,-21.0,-27.0,-14.0,-4.0,-4.0,-3.0
1701961899.3644516,-1.0,-4.0,-2.0,23.0,10.0,-2.0,-1.0,-2.0
1701961899.3644516,1.0,0.0,5.0,0.0,-4.0,-6.0,-3.0,-1.0
1701961899.3644516,-3.0,-4.0,-9.0,4.0,-3.0,1.0,-2.0,-2.0
1701961899.394385,-2.0,1.0,4.0,2.0,5.0,0.0,-1.0,-1.0
1701961899.394385,0.0,-2.0,-5.0,-12.0,-8.0,-4.0,-2.0,0.0
1701961899.394385,-1.0,-1.0,1.0,-3.0,-3.0,0.0,0.0,-1.0
1701961899.394385,-1.0,0.0,0.0,0.0,4.0,2.0,0.0,-2.0
1701961899.4047725,-1.0,0.0,4.0,7.0,-1.0,0.0,-1.0,-1.0
1701961899.4047725,-1.0,-1.0,-2.0,-3.0,-5.0,-4.0,-3.0,-1.0
1701961899.4047725,-2.0,-3.0,-2.0,-2.0,-1.0,-1.0,-1.0,-2.0
1701961899.4047725,-3.0,1.0,-4.0,-7.0,-6.0,2.0,1.0,-1.0
1701961899.4245636,0.0,-18.0,1.0,9.0,2.0,1.0,-1.0,-2.0
1701961899.4245636,-1.0,13.0,3.0,-3.0,-2.0,0.0,-1.0,-1.0
1701961899.4245636,11.0,6.0,6.0,-1.0,0.0,0.0,2.0,18.0
1701961899.4245636,-15.0,-13.0,-7.0,-6.0,-1.0,2.0,-5.0,-23.0
1701961899.4444187,1.0,15.0,1.0,4.0,1.0,-2.0,-3.0,3.0
1701961899.4444187,7.0,9.0,7.0,0.0,2.0,0.0,4.0,0.0
1701961899.4444187,-9.0,-11.0,-7.0,-4.0,-4.0,-3.0,-7.0,-2.0
1701961899.4444187,14.0,-18.0,-11.0,-5.0,-5.0,-3.0,5.0,11.0
1701961899.464738,-1.0,14.0,11.0,4.0,1.0,-2.0,0.0,-5.0
1701961899.464738,-19.0,-15.0,-8.0,-10.0,-10.0,-3.0,-5.0,-5.0
1701961899.464738,-19.0,7.0,1.0,8.0,11.0,6.0,4.0,-9.0
1701961899.464738,11.0,0.0,3.0,0.0,1.0,0.0,-2.0,2.0
1701961899.4845273,-3.0,-4.0,-1.0,2.0,4.0,-1.0,-1.0,-2.0
1701961899.4845273,-2.0,4.0,-2.0,0.0,-5.0,-4.0,-2.0,1.0
1701961899.4845273,-1.0,-6.0,0.0,-29.0,-13.0,-4.0,-2.0,-6.0
1701961899.4845273,-9.0,-4.0,-4.0,24.0,2.0,-1.0,-3.0,-2.0
1701961899.5146682,0.0,-2.0,-7.0,-6.0,-7.0,-1.0,-4.0,-1.0
1701961899.5146682,1.0,4.0,15.0,-1.0,-4.0,-3.0,-5.0,-5.0
1701961899.5146682,2.0,-5.0,-4.0,26.0,21.0,9.0,5.0,0.0
1701961899.5146682,-1.0,8.0,14.0,-13.0,-20.0,-12.0,-7.0,-1.0
1701961899.5246704,-1.0,-4.0,-22.0,-18.0,-8.0,-6.0,0.0,-3.0
1701961899.5246704,-2.0,-9.0,-6.0,-12.0,-41.0,-10.0,-2.0,-1.0
1701961899.5246704,1.0,3.0,-6.0,-35.0,9.0,4.0,-2.0,-5.0
1701961899.5246704,2.0,12.0,29.0,39.0,29.0,7.0,1.0,5.0
1701961899.5443933,-4.0,-2.0,-14.0,-28.0,7.0,5.0,1.0,0.0
1701961899.5443933,-3.0,-12.0,-23.0,39.0,28.0,21.0,2.0,-5.0
1701961899.5543907,4.0,4.0,25.0,27.0,17.0,-4.0,0.0,2.0
1701961899.5543907,-2.0,-1.0,-38.0,-49.0,-2.0,-4.0,1.0,0.0
1701961899.5644042,2.0,2.0,27.0,18.0,-21.0,0.0,-1.0,-2.0
1701961899.5644042,1.0,-5.0,-8.0,-7.0,27.0,-4.0,-7.0,-2.0
1701961899.5644042,0.0,-1.0,-2.0,6.0,-25.0,-10.0,-6.0,-4.0
1701961899.5644042,-3.0,-1.0,4.0,7.0,-7.0,-1.0,-2.0,2.0
1701961899.584834,-1.0,-8.0,-15.0,-29.0,-25.0,-19.0,-6.0,2.0
1701961899.584834,2.0,5.0,7.0,0.0,-17.0,2.0,4.0,3.0
1701961899.584834,0.0,-5.0,1.0,18.0,11.0,12.0,1.0,-2.0
1701961899.584834,-3.0,0.0,-5.0,-23.0,-9.0,-5.0,0.0,-1.0
1701961899.6045437,-5.0,-6.0,-19.0,-12.0,-5.0,-5.0,-4.0,-3.0
1701961899.6045437,3.0,4.0,21.0,14.0,32.0,9.0,5.0,5.0
1701961899.6045437,1.0,-1.0,-13.0,-13.0,10.0,4.0,2.0,1.0
1701961899.6045437,-2.0,1.0,4.0,2.0,-11.0,1.0,1.0,-2.0
1701961899.6245394,-2.0,2.0,10.0,0.0,-18.0,-5.0,-3.0,-3.0
1701961899.6245394,-4.0,-5.0,-12.0,14.0,-8.0,-7.0,-4.0,-3.0
1701961899.6245394,2.0,3.0,-8.0,-14.0,19.0,12.0,6.0,2.0
1701961899.6245394,0.0,2.0,12.0,33.0,16.0,6.0,1.0,0.0
1701961899.6545415,0.0,4.0,13.0,20.0,25.0,5.0,4.0,1.0
1701961899.6545415,-4.0,-8.0,-9.0,-37.0,-31.0,-17.0,-10.0,-5.0
1701961899.6645412,-3.0,0.0,-5.0,-5.0,-32.0,-15.0,-6.0,-5.0
1701961899.6645412,-1.0,0.0,-8.0,-11.0,2.0,-4.0,-1.0,-2.0
1701961899.6645412,-2.0,1.0,21.0,36.0,16.0,6.0,1.0,-4.0
1701961899.6645412,3.0,3.0,-1.0,-10.0,1.0,1.0,2.0,0.0
1701961899.6645412,-2.0,-3.0,-13.0,-3.0,-7.0,2.0,-2.0,-2.0
1701961899.6645412,0.0,-2.0,3.0,-5.0,-1.0,8.0,5.0,1.0
1701961899.6848211,-2.0,-3.0,-11.0,-1.0,2.0,-2.0,-3.0,-3.0
1701961899.6848211,0.0,1.0,12.0,1.0,0.0,0.0,0.0,-1.0
1701961899.6848211,-2.0,-3.0,-2.0,2.0,-7.0,-7.0,-4.0,-1.0
1701961899.6848211,-3.0,-3.0,1.0,-12.0,-8.0,-4.0,-1.0,0.0
1701961899.7047312,-3.0,-6.0,-11.0,2.0,4.0,3.0,0.0,0.0
1701961899.7047312,1.0,3.0,-1.0,-5.0,5.0,-2.0,-1.0,0.0
1701961899.7047312,0.0,1.0,29.0,13.0,-5.0,-2.0,1.0,1.0
1701961899.7047312,1.0,3.0,-11.0,-25.0,-3.0,-2.0,0.0,1.0
1701961899.7345407,1.0,1.0,0.0,22.0,15.0,8.0,2.0,-2.0
1701961899.7345407,-1.0,-7.0,-2.0,-5.0,-5.0,3.0,-1.0,-2.0
1701961899.7345407,-5.0,-2.0,-3.0,-9.0,-10.0,-6.0,-5.0,-6.0
1701961899.7345407,-1.0,-3.0,1.0,9.0,3.0,2.0,-1.0,-1.0
1701961899.7445736,0.0,1.0,15.0,10.0,4.0,-2.0,-1.0,0.0
1701961899.7445736,-3.0,-2.0,-16.0,-8.0,-4.0,2.0,0.0,-2.0
1701961899.7445736,-2.0,-2.0,17.0,13.0,1.0,0.0,0.0,0.0
1701961899.7445736,0.0,1.0,4.0,2.0,4.0,-1.0,-1.0,-1.0
1701961899.7703962,-2.0,-6.0,-33.0,-15.0,-2.0,-3.0,1.0,-3.0
1701961899.7703962,-2.0,1.0,5.0,-3.0,-3.0,-5.0,-2.0,0.0
1701961899.7703962,-1.0,2.0,0.0,-7.0,-9.0,-6.0,-1.0,-1.0
1701961899.7703962,-4.0,-3.0,3.0,2.0,-2.0,-3.0,-3.0,-1.0
1701961899.7875605,1.0,2.0,8.0,-3.0,0.0,2.0,1.0,1.0
1701961899.7875605,-1.0,1.0,-6.0,-6.0,4.0,0.0,0.0,0.0
1701961899.7875605,-1.0,-1.0,-9.0,-3.0,-1.0,0.0,2.0,0.0
1701961899.7875605,-1.0,0.0,-8.0,1.0,-1.0,2.0,0.0,-2.0
1701961899.7978692,-1.0,-2.0,2.0,-1.0,0.0,-1.0,0.0,1.0
1701961899.8078933,0.0,0.0,2.0,2.0,1.0,1.0,1.0,0.0
1701961899.8078933,-2.0,0.0,-5.0,-1.0,-2.0,-2.0,-1.0,1.0
1701961899.8078933,0.0,-5.0,-10.0,1.0,-1.0,0.0,-1.0,-2.0
1701961899.847885,-5.0,8.0,9.0,-5.0,-3.0,-4.0,-2.0,-4.0
1701961899.847885,-5.0,-15.0,5.0,3.0,0.0,-2.0,-3.0,-4.0
1701961899.847885,1.0,13.0,-8.0,-6.0,-3.0,0.0,-3.0,-1.0
1701961899.847885,-6.0,-1.0,-5.0,0.0,-4.0,-2.0,2.0,3.0
1701961899.847885,-5.0,7.0,10.0,4.0,3.0,3.0,-2.0,-3.0
1701961899.847885,13.0,-1.0,-9.0,-4.0,0.0,4.0,23.0,6.0
1701961899.847885,0.0,-22.0,-16.0,-11.0,-10.0,-10.0,-19.0,1.0
1701961899.847885,-13.0,-9.0,-1.0,1.0,-2.0,-7.0,-12.0,-1.0
1701961899.8582249,9.0,4.0,5.0,7.0,5.0,3.0,-3.0,1.0
1701961899.8582249,-5.0,1.0,4.0,1.0,0.0,-3.0,-5.0,-2.0
1701961899.8582249,3.0,10.0,5.0,-3.0,0.0,4.0,7.0,-4.0
1701961899.8678918,0.0,4.0,0.0,-1.0,-3.0,-1.0,5.0,-4.0
1701961899.8878875,-6.0,-19.0,-21.0,-7.0,-4.0,-4.0,0.0,-1.0
1701961899.8878875,2.0,21.0,10.0,0.0,-10.0,4.0,-2.0,1.0
1701961899.8878875,4.0,1.0,-2.0,1.0,12.0,0.0,4.0,0.0
1701961899.8878875,5.0,0.0,-1.0,1.0,-2.0,-2.0,-3.0,-1.0
1701961899.8979182,-5.0,-10.0,3.0,-6.0,-2.0,-1.0,-1.0,-3.0
1701961899.8979182,-6.0,-24.0,-13.0,-1.0,-2.0,-3.0,-5.0,-1.0
1701961899.908248,1.0,27.0,11.0,-15.0,-19.0,-7.0,-3.0,0.0
1701961899.908248,-6.0,7.0,-3.0,4.0,1.0,-2.0,-5.0,-4.0
1701961899.918261,-2.0,-7.0,-2.0,-21.0,-7.0,-11.0,-5.0,-1.0
1701961899.918261,0.0,-3.0,2.0,41.0,6.0,13.0,1.0,4.0
1701961899.918261,-6.0,-6.0,3.0,43.0,52.0,10.0,0.0,-3.0
1701961899.918261,4.0,-4.0,-12.0,-30.0,-12.0,-8.0,-2.0,2.0
1701961899.9478867,4.0,8.0,0.0,-17.0,-34.0,6.0,4.0,4.0
1701961899.9478867,-4.0,5.0,2.0,-69.0,10.0,-7.0,-9.0,-6.0
1701961899.9478867,-3.0,-7.0,24.0,81.0,3.0,-6.0,3.0,0.0
1701961899.9478867,9.0,6.0,-13.0,9.0,17.0,4.0,3.0,4.0
1701961899.9579206,1.0,-1.0,-4.0,-2.0,-12.0,-7.0,-3.0,1.0
1701961899.9579206,-2.0,3.0,1.0,-7.0,-11.0,-10.0,-8.0,-6.0
1701961899.9678884,1.0,-14.0,-16.0,-41.0,-23.0,-6.0,0.0,-2.0
1701961899.9678884,-2.0,-7.0,-1.0,-4.0,15.0,-6.0,-4.0,-5.0
1701961899.9780834,-6.0,-7.0,-6.0,2.0,-26.0,-16.0,-8.0,-5.0
1701961899.9780834,0.0,-2.0,2.0,-2.0,-21.0,-5.0,-2.0,-2.0
1701961899.9780834,-1.0,-1.0,-9.0,-5.0,28.0,4.0,2.0,0.0
1701961899.9780834,0.0,-3.0,19.0,22.0,-19.0,3.0,-1.0,0.0
1701961900.0078883,-2.0,4.0,-2.0,-2.0,15.0,1.0,-4.0,-4.0
1701961900.0078883,2.0,1.0,-20.0,-10.0,6.0,-5.0,-1.0,1.0
1701961900.0078883,-1.0,-4.0,10.0,0.0,4.0,12.0,1.0,0.0
1701961900.0078883,-4.0,0.0,10.0,3.0,-18.0,-13.0,-1.0,-4.0
1701961900.01792,0.0,-1.0,-2.0,-9.0,12.0,19.0,4.0,0.0
1701961900.01792,0.0,3.0,5.0,11.0,10.0,3.0,-4.0,2.0
1701961900.0281615,-1.0,-3.0,-7.0,-12.0,-4.0,12.0,7.0,5.0
1701961900.0281615,0.0,0.0,10.0,24.0,22.0,-3.0,0.0,2.0
1701961900.0381837,2.0,4.0,-9.0,-9.0,3.0,6.0,3.0,0.0
1701961900.0381837,-1.0,4.0,29.0,28.0,29.0,3.0,3.0,1.0
1701961900.0478914,-3.0,-4.0,-9.0,-12.0,-28.0,-16.0,-6.0,-4.0
1701961900.0478914,-4.0,-2.0,-36.0,-37.0,-24.0,3.0,-2.0,-4.0
1701961900.0778866,-2.0,-4.0,7.0,-19.0,-34.0,-17.0,-3.0,-2.0
1701961900.0778866,-4.0,-1.0,-2.0,25.0,24.0,14.0,-1.0,-1.0
1701961900.0778866,1.0,4.0,11.0,-1.0,6.0,-1.0,2.0,3.0
1701961900.0778866,0.0,-8.0,-11.0,-1.0,-5.0,-4.0,-3.0,-2.0
1701961900.0881197,3.0,6.0,14.0,26.0,9.0,2.0,1.0,0.0
1701961900.0881197,2.0,5.0,-8.0,-3.0,21.0,10.0,0.0,-1.0
1701961900.0881197,-2.0,-3.0,-8.0,-8.0,-15.0,-11.0,-5.0,-5.0
1701961900.0881197,-3.0,-2.0,15.0,15.0,-3.0,-1.0,1.0,0.0
1701961900.1078935,2.0,3.0,-11.0,-25.0,15.0,11.0,5.0,4.0
1701961900.1078935,-3.0,-3.0,9.0,16.0,-4.0,-3.0,3.0,-1.0
1701961900.1078935,-1.0,-2.0,-20.0,-18.0,-10.0,-8.0,-4.0,-3.0
1701961900.1078935,2.0,11.0,23.0,-4.0,6.0,7.0,1.0,0.0
1701961900.1279192,-2.0,-9.0,-11.0,19.0,12.0,-3.0,-2.0,-2.0
1701961900.1279192,0.0,-5.0,-10.0,5.0,-21.0,-8.0,-1.0,-1.0
1701961900.1279192,-2.0,-2.0,1.0,-26.0,-5.0,-8.0,-4.0,-2.0
1701961900.1279192,1.0,-3.0,-9.0,0.0,5.0,5.0,2.0,-1.0
1701961900.1483047,0.0,1.0,17.0,27.0,15.0,1.0,-1.0,-1.0
1701961900.1483047,-2.0,-3.0,-8.0,-13.0,-14.0,-12.0,-4.0,-1.0
1701961900.1483047,1.0,3.0,11.0,14.0,-1.0,3.0,0.0,1.0
1701961900.1483047,0.0,-2.0,-21.0,-21.0,-1.0,1.0,0.0,-2.0
1701961900.1582456,-4.0,-3.0,9.0,15.0,4.0,-2.0,-2.0,0.0
1701961900.1582456,-3.0,-4.0,-6.0,-7.0,-6.0,-4.0,0.0,-3.0
1701961900.1678917,-4.0,-4.0,7.0,-3.0,-2.0,0.0,-1.0,0.0
1701961900.1678917,-1.0,7.0,-2.0,7.0,2.0,1.0,-1.0,0.0
1701961900.1880445,0.0,-5.0,-8.0,-12.0,4.0,-1.0,0.0,-1.0
1701961900.1880445,-2.0,-19.0,-3.0,-7.0,-9.0,-4.0,-3.0,0.0
1701961900.1880445,1.0,17.0,-10.0,-7.0,-5.0,-4.0,-5.0,-4.0
1701961900.1880445,-4.0,-6.0,-2.0,0.0,-1.0,-1.0,-2.0,-3.0
1701961900.2082043,3.0,6.0,6.0,6.0,2.0,-1.0,0.0,6.0
1701961900.2082043,-4.0,5.0,-1.0,-5.0,-5.0,-1.0,-2.0,-3.0
1701961900.2082043,2.0,-9.0,-4.0,-6.0,-8.0,-6.0,-3.0,0.0
1701961900.2082043,0.0,-1.0,-4.0,-6.0,0.0,-2.0,-1.0,-1.0
1701961900.2181494,-4.0,-7.0,1.0,3.0,2.0,-2.0,-1.0,-3.0
1701961900.2181494,1.0,11.0,6.0,-2.0,-6.0,-3.0,0.0,2.0
1701961900.2278962,-2.0,-5.0,-14.0,6.0,-1.0,2.0,2.0,-1.0
1701961900.2278962,0.0,6.0,3.0,2.0,2.0,0.0,0.0,-1.0
1701961900.24789,3.0,4.0,2.0,-25.0,-9.0,-5.0,-2.0,-2.0
1701961900.24789,-2.0,0.0,3.0,11.0,2.0,2.0,1.0,-1.0
1701961900.24789,0.0,-4.0,-6.0,-2.0,8.0,7.0,5.0,2.0
1701961900.24789,-3.0,-6.0,12.0,10.0,-1.0,1.0,0.0,0.0
1701961900.2678936,0.0,16.0,-10.0,-2.0,-1.0,3.0,0.0,0.0
1701961900.2678936,1.0,7.0,4.0,-8.0,-8.0,-3.0,1.0,-2.0
1701961900.2778947,-6.0,-11.0,-3.0,0.0,-2.0,1.0,1.0,-2.0
1701961900.2778947,6.0,9.0,-1.0,-5.0,-1.0,2.0,3.0,2.0
1701961900.2968235,1.0,7.0,9.0,3.0,1.0,-2.0,-2.0,0.0
1701961900.2968235,-4.0,0.0,-10.0,-7.0,-5.0,-2.0,-3.0,-2.0
1701961900.2968235,-3.0,4.0,2.0,-2.0,-3.0,-3.0,-2.0,-2.0
1701961900.2968235,-7.0,-10.0,-2.0,-5.0,-3.0,-3.0,-2.0,-3.0
1701961900.310266,-2.0,-13.0,-8.0,-1.0,3.0,-3.0,-2.0,-4.0
1701961900.310266,-7.0,9.0,8.0,5.0,-1.0,0.0,3.0,0.0
1701961900.310266,10.0,1.0,-6.0,-9.0,-20.0,-9.0,-7.0,4.0
1701961900.310266,-2.0,-18.0,-9.0,2.0,-1.0,-4.0,-2.0,0.0
1701961900.330269,-4.0,-6.0,5.0,32.0,13.0,-3.0,-3.0,0.0
1701961900.330269,-1.0,-2.0,-2.0,-26.0,13.0,5.0,1.0,-2.0
1701961900.3402658,-2.0,-2.0,-3.0,2.0,1.0,5.0,1.0,-2.0
1701961900.3402658,-2.0,9.0,9.0,-13.0,-2.0,-6.0,-5.0,-4.0
1701961900.3502629,-1.0,-7.0,-4.0,-11.0,-53.0,-20.0,-8.0,-2.0
1701961900.3502629,-3.0,-18.0,-11.0,3.0,43.0,-1.0,-3.0,-3.0
1701961900.3502629,-1.0,3.0,17.0,11.0,-82.0,-24.0,-6.0,-1.0
1701961900.3502629,4.0,2.0,-40.0,-54.0,40.0,5.0,-3.0,2.0
1701961900.370268,0.0,-4.0,2.0,-5.0,44.0,15.0,-1.0,-1.0
1701961900.370268,6.0,6.0,14.0,36.0,-7.0,5.0,8.0,6.0
1701961900.370268,3.0,-1.0,-11.0,32.0,21.0,24.0,12.0,6.0
1701961900.370268,-2.0,-2.0,14.0,-15.0,-9.0,2.0,-5.0,-4.0
1701961900.3904302,2.0,-1.0,19.0,71.0,48.0,-4.0,3.0,1.0
1701961900.3904302,-3.0,-9.0,-33.0,-32.0,-9.0,-6.0,-7.0,-3.0
1701961900.4002757,-4.0,-11.0,6.0,-23.0,-28.0,-21.0,-8.0,-5.0
1701961900.4002757,-1.0,-7.0,-14.0,-28.0,-60.0,-21.0,-6.0,-3.0
1701961900.410266,-4.0,2.0,-14.0,-22.0,-6.0,7.0,-1.0,-3.0
1701961900.410266,2.0,-4.0,10.0,-8.0,-22.0,-11.0,-8.0,-3.0
1701961900.410266,0.0,2.0,7.0,-2.0,21.0,8.0,0.0,-2.0
1701961900.410266,0.0,3.0,-4.0,21.0,23.0,9.0,3.0,0.0
1701961900.430269,-2.0,-1.0,2.0,-32.0,-8.0,-4.0,-1.0,-3.0
1701961900.430269,-2.0,-1.0,0.0,22.0,-9.0,0.0,0.0,-2.0
1701961900.430269,-2.0,-3.0,-11.0,-13.0,10.0,-1.0,-3.0,-3.0
1701961900.430269,0.0,3.0,25.0,38.0,15.0,7.0,2.0,-1.0
1701961900.4504082,0.0,1.0,-29.0,-19.0,-11.0,3.0,5.0,1.0
1701961900.4504082,-2.0,-5.0,13.0,3.0,-12.0,-6.0,-5.0,-2.0
1701961900.460267,-1.0,-1.0,0.0,-1.0,25.0,8.0,-1.0,-1.0
1701961900.460267,2.0,4.0,3.0,0.0,-6.0,-2.0,1.0,0.0
1701961900.4702632,-3.0,-5.0,9.0,17.0,-7.0,1.0,1.0,-1.0
1701961900.4702632,-4.0,-12.0,-4.0,-6.0,-1.0,0.0,-1.0,-1.0
1701961900.4702632,-1.0,5.0,-2.0,-5.0,12.0,0.0,0.0,-1.0
1701961900.4702632,-2.0,2.0,3.0,18.0,-2.0,2.0,1.0,1.0
1701961900.4902682,-1.0,-4.0,0.0,-7.0,-10.0,-4.0,-2.0,0.0
1701961900.4902682,1.0,-6.0,-9.0,-5.0,3.0,4.0,1.0,0.0
1701961900.4902682,-3.0,9.0,0.0,1.0,2.0,-2.0,-1.0,-2.0
1701961900.4902682,-3.0,-10.0,-3.0,1.0,-5.0,-2.0,-2.0,1.0
1701961900.5202847,3.0,8.0,-3.0,1.0,2.0,2.0,-1.0,-1.0
1701961900.5202847,1.0,-1.0,-6.0,-15.0,-7.0,-4.0,0.0,-1.0
1701961900.5202847,-4.0,-5.0,1.0,-1.0,5.0,2.0,0.0,-5.0
1701961900.5202847,1.0,5.0,3.0,13.0,15.0,9.0,3.0,1.0
1701961900.5202847,-2.0,-1.0,15.0,6.0,-4.0,-1.0,-2.0,-1.0
1701961900.5202847,3.0,2.0,-29.0,-22.0,-2.0,0.0,1.0,2.0
1701961900.5202847,1.0,-4.0,10.0,-33.0,-12.0,-8.0,-3.0,-2.0
1701961900.5202847,-1.0,-3.0,13.0,9.0,-1.0,-3.0,-1.0,-3.0
1701961900.550348,-3.0,-5.0,-23.0,-3.0,-2.0,-2.0,0.0,-2.0
1701961900.550348,-1.0,4.0,5.0,10.0,2.0,-1.0,-2.0,-2.0
1701961900.550348,1.0,-3.0,1.0,6.0,8.0,2.0,-1.0,-2.0
1701961900.550348,-3.0,-5.0,-11.0,-7.0,-5.0,-3.0,-3.0,-2.0
1701961900.570303,-1.0,1.0,8.0,-4.0,-2.0,-2.0,0.0,0.0
1701961900.570303,0.0,-2.0,1.0,7.0,-3.0,-3.0,-3.0,-2.0
1701961900.570303,-2.0,-1.0,-11.0,-1.0,4.0,-1.0,0.0,0.0
1701961900.570303,-2.0,-3.0,14.0,4.0,-3.0,0.0,0.0,0.0
1701961900.5802972,-2.0,-3.0,-10.0,3.0,-1.0,0.0,0.0,1.0
1701961900.5802972,1.0,14.0,-2.0,-8.0,-1.0,3.0,0.0,0.0
1701961900.5802972,2.0,1.0,5.0,1.0,0.0,-3.0,-3.0,1.0
1701961900.5802972,1.0,0.0,-15.0,-4.0,-4.0,-1.0,1.0,0.0
1701961900.6010938,4.0,-17.0,-2.0,-3.0,0.0,-1.0,0.0,-1.0
1701961900.6107388,-4.0,5.0,-3.0,-3.0,-1.0,0.0,0.0,-2.0
1701961900.6107388,-4.0,-29.0,-11.0,5.0,-3.0,-3.0,-3.0,-1.0
1701961900.6107388,0.0,0.0,6.0,-13.0,-4.0,-3.0,-1.0,1.0
1701961900.6307843,7.0,13.0,0.0,-4.0,2.0,0.0,0.0,3.0
1701961900.6307843,1.0,4.0,7.0,5.0,-1.0,-2.0,0.0,-1.0
1701961900.6307843,-7.0,-9.0,-7.0,-1.0,-1.0,-1.0,0.0,-2.0
1701961900.6307843,-1.0,1.0,4.0,6.0,-4.0,-3.0,-1.0,-1.0
1701961900.6409864,-9.0,-28.0,-10.0,-1.0,2.0,0.0,-2.0,-2.0
1701961900.6409864,2.0,-6.0,3.0,2.0,0.0,-1.0,0.0,2.0
1701961900.6409864,2.0,-3.0,5.0,-6.0,1.0,1.0,1.0,1.0
1701961900.6409864,2.0,12.0,3.0,-16.0,-14.0,-6.0,-5.0,-1.0
1701961900.6707392,-6.0,-3.0,-6.0,21.0,-12.0,-2.0,-7.0,-7.0
1701961900.6707392,3.0,0.0,17.0,16.0,25.0,10.0,5.0,3.0
1701961900.6707392,0.0,0.0,-17.0,-24.0,12.0,1.0,0.0,1.0
1701961900.6707392,-3.0,-2.0,-7.0,14.0,1.0,0.0,-1.0,-2.0
1701961900.700734,-3.0,7.0,5.0,-71.0,-56.0,-25.0,-9.0,-3.0
1701961900.700734,-4.0,-5.0,-2.0,84.0,29.0,5.0,-2.0,-4.0
1701961900.700734,-1.0,10.0,4.0,38.0,40.0,13.0,5.0,1.0
1701961900.700734,2.0,5.0,8.0,-30.0,16.0,11.0,2.0,1.0
1701961900.710737,-1.0,0.0,4.0,23.0,14.0,2.0,0.0,-2.0
1701961900.710737,-5.0,-6.0,-13.0,-56.0,-36.0,-14.0,-6.0,-4.0
1701961900.710737,-2.0,-13.0,-9.0,-9.0,-17.0,-5.0,-4.0,0.0
1701961900.710737,-1.0,-4.0,-4.0,18.0,-8.0,-11.0,-4.0,-4.0
1701961900.7307336,0.0,11.0,4.0,-8.0,8.0,0.0,-1.0,0.0
1701961900.7307336,-1.0,0.0,8.0,-15.0,-30.0,-6.0,-2.0,0.0
1701961900.7307336,-1.0,-1.0,-19.0,-4.0,7.0,-1.0,0.0,-1.0
1701961900.7307336,0.0,-4.0,3.0,-3.0,-13.0,-8.0,-1.0,3.0
1701961900.7510216,-1.0,5.0,8.0,6.0,12.0,16.0,7.0,-2.0
1701961900.7510216,4.0,1.0,-8.0,-22.0,5.0,3.0,2.0,1.0
1701961900.7510216,3.0,12.0,7.0,3.0,0.0,2.0,-1.0,1.0
1701961900.7510216,-6.0,-10.0,-7.0,-22.0,-14.0,-14.0,-5.0,-5.0
1701961900.7609804,-1.0,-2.0,-12.0,-13.0,-9.0,-7.0,-1.0,-1.0
1701961900.7609804,-1.0,5.0,21.0,66.0,31.0,8.0,-4.0,-2.0
1701961900.7709503,0.0,1.0,-27.0,-39.0,-37.0,-13.0,-3.0,-2.0
1701961900.7709503,-2.0,-3.0,-9.0,20.0,33.0,12.0,1.0,-1.0
1701961900.8107328,-3.0,-10.0,-7.0,-38.0,-14.0,-6.0,-5.0,-2.0
1701961900.8107328,0.0,-10.0,-9.0,-19.0,-7.0,-2.0,2.0,-2.0
1701961900.8107328,-2.0,31.0,41.0,9.0,-5.0,-5.0,-3.0,-3.0
1701961900.8107328,-3.0,-8.0,-10.0,-13.0,-3.0,2.0,2.0,-1.0
1701961900.8107328,-9.0,-22.0,1.0,17.0,5.0,-2.0,0.0,-3.0
1701961900.8107328,1.0,-3.0,4.0,-1.0,-1.0,-3.0,-1.0,0.0
1701961900.8107328,-1.0,-11.0,8.0,15.0,4.0,0.0,-1.0,-1.0
1701961900.8107328,-2.0,18.0,4.0,8.0,-4.0,3.0,1.0,0.0
1701961900.8266902,0.0,-3.0,5.0,10.0,10.0,5.0,2.0,2.0
1701961900.8266902,-4.0,0.0,-6.0,-21.0,-12.0,-3.0,-3.0,-4.0
1701961900.8345513,-1.0,-5.0,-6.0,6.0,2.0,2.0,0.0,-1.0
1701961900.8345513,4.0,-5.0,-12.0,-15.0,-6.0,2.0,-1.0,1.0
1701961900.853231,2.0,16.0,0.0,4.0,6.0,-2.0,1.0,-1.0
1701961900.853231,-2.0,1.0,4.0,-1.0,-3.0,-1.0,0.0,-1.0
1701961900.853231,3.0,0.0,-4.0,-20.0,-11.0,-4.0,-3.0,-1.0
1701961900.853231,-3.0,1.0,9.0,2.0,-3.0,-2.0,-1.0,-3.0
1701961900.863662,-1.0,5.0,1.0,27.0,2.0,-2.0,-1.0,0.0
1701961900.863662,-1.0,-5.0,-8.0,-1.0,-4.0,-2.0,0.0,0.0
1701961900.863662,-6.0,-9.0,-13.0,1.0,9.0,4.0,1.0,-2.0
1701961900.863662,-1.0,-3.0,8.0,11.0,-1.0,-1.0,0.0,-1.0
1701961900.883742,1.0,4.0,-1.0,-7.0,2.0,1.0,-1.0,0.0
1701961900.883742,-3.0,1.0,-2.0,-9.0,-7.0,-3.0,-4.0,0.0
1701961900.8936732,-1.0,-1.0,13.0,17.0,-10.0,-8.0,-4.0,-2.0
1701961900.8936732,-1.0,-2.0,-15.0,-42.0,6.0,5.0,1.0,-1.0
1701961900.903973,3.0,-1.0,-7.0,21.0,10.0,4.0,2.0,2.0
1701961900.903973,1.0,0.0,-8.0,-15.0,0.0,-2.0,-1.0,-1.0
1701961900.903973,-1.0,1.0,4.0,4.0,2.0,-2.0,-2.0,-2.0
1701961900.903973,1.0,11.0,1.0,5.0,-7.0,-6.0,-1.0,-2.0
1701961900.9240375,3.0,-3.0,12.0,8.0,-1.0,-1.0,-2.0,1.0
1701961900.9240375,-4.0,-4.0,-2.0,-30.0,-3.0,-2.0,-1.0,-1.0
1701961900.9339442,4.0,12.0,-6.0,11.0,-2.0,1.0,0.0,0.0
1701961900.9339442,0.0,-3.0,-2.0,-2.0,-3.0,-3.0,-1.0,-2.0
1701961900.953674,-7.0,3.0,5.0,-10.0,3.0,3.0,0.0,1.0
1701961900.953674,2.0,6.0,4.0,14.0,-1.0,0.0,-2.0,-1.0
1701961900.953674,-2.0,-7.0,-4.0,-7.0,-2.0,-2.0,-1.0,0.0
1701961900.953674,-1.0,-2.0,6.0,14.0,-1.0,0.0,-1.0,-1.0
1701961900.9639394,-3.0,-1.0,-5.0,-18.0,-3.0,-3.0,0.0,-3.0
1701961900.9639394,-4.0,-1.0,-7.0,4.0,5.0,0.0,-2.0,-2.0
1701961900.9737222,0.0,0.0,4.0,-5.0,-4.0,0.0,0.0,1.0
1701961900.9737222,-5.0,-9.0,-1.0,13.0,2.0,1.0,0.0,0.0
1701961900.9839683,-4.0,-2.0,-8.0,-9.0,-4.0,-2.0,-2.0,-2.0
1701961900.9839683,0.0,-12.0,3.0,-3.0,-8.0,-3.0,-2.0,-1.0
1701961900.9936743,3.0,9.0,2.0,0.0,4.0,1.0,-1.0,0.0
1701961900.9936743,-3.0,-9.0,-4.0,6.0,-1.0,-2.0,-2.0,-1.0
1701961901.0037172,-3.0,6.0,-1.0,-1.0,-4.0,-2.0,-3.0,-3.0
1701961901.0037172,3.0,-21.0,-9.0,-4.0,-3.0,-1.0,-2.0,-3.0
1701961901.0136738,4.0,8.0,1.0,-1.0,-1.0,-3.0,1.0,3.0
1701961901.0136738,-5.0,13.0,2.0,-4.0,-7.0,-4.0,-3.0,-2.0
1701961901.0238256,4.0,-6.0,0.0,3.0,2.0,2.0,0.0,2.0
1701961901.0238256,-2.0,9.0,-1.0,-4.0,-6.0,-7.0,-3.0,-2.0
1701961901.0338795,-8.0,-11.0,-1.0,-7.0,-6.0,-5.0,-4.0,-5.0
1701961901.0338795,3.0,-3.0,-5.0,22.0,23.0,8.0,5.0,1.0
1701961901.0439065,1.0,5.0,2.0,-11.0,-7.0,-3.0,1.0,-1.0
1701961901.0439065,1.0,5.0,4.0,3.0,-6.0,-2.0,1.0,0.0
1701961901.0536797,-2.0,-6.0,-9.0,4.0,12.0,1.0,-1.0,-1.0
1701961901.0536797,-3.0,-3.0,5.0,17.0,-3.0,-2.0,-3.0,-1.0
1701961901.0736752,0.0,-1.0,-1.0,-6.0,-2.0,-5.0,-3.0,-2.0
1701961901.0736752,0.0,-5.0,-5.0,-19.0,-4.0,1.0,0.0,-2.0
1701961901.0736752,-3.0,-3.0,5.0,-16.0,-15.0,-3.0,-2.0,-3.0
1701961901.0736752,-2.0,-12.0,-21.0,-15.0,-1.0,-3.0,-4.0,-2.0
1701961901.0837064,2.0,5.0,13.0,8.0,2.0,0.0,0.0,0.0
1701961901.0837064,-2.0,1.0,15.0,24.0,6.0,-4.0,-3.0,-1.0
1701961901.0937622,-1.0,-1.0,-40.0,-34.0,3.0,6.0,1.0,-1.0
1701961901.0937622,-1.0,-7.0,24.0,17.0,-13.0,-4.0,-3.0,-3.0
1701961901.1038544,1.0,-8.0,-22.0,-27.0,8.0,-1.0,-1.0,2.0
1701961901.1038544,-2.0,15.0,8.0,0.0,6.0,1.0,0.0,-2.0
1701961901.1136804,-1.0,18.0,16.0,40.0,4.0,1.0,1.0,-1.0
1701961901.1136804,0.0,-18.0,-3.0,20.0,-1.0,0.0,-1.0,2.0
1701961901.1339903,-1.0,3.0,-4.0,-21.0,-2.0,-3.0,-4.0,-4.0
1701961901.1339903,-1.0,-15.0,-4.0,-2.0,-7.0,-5.0,-2.0,-1.0
1701961901.1339903,-4.0,0.0,-2.0,10.0,0.0,0.0,-1.0,-3.0
1701961901.1339903,-1.0,-10.0,-14.0,-32.0,-8.0,1.0,-3.0,-4.0
1701961901.143989,2.0,1.0,21.0,51.0,11.0,6.0,2.0,3.0
1701961901.143989,-4.0,-5.0,-4.0,4.0,3.0,4.0,2.0,-1.0
1701961901.1640096,2.0,2.0,-11.0,-33.0,-16.0,-5.0,-3.0,-3.0
1701961901.1640096,-9.0,-22.0,-18.0,-25.0,-4.0,-7.0,-3.0,-2.0
1701961901.1640096,-1.0,5.0,5.0,16.0,-6.0,-1.0,-1.0,-2.0
1701961901.1640096,2.0,5.0,-8.0,-7.0,4.0,3.0,0.0,-1.0
1701961901.173678,-3.0,-8.0,4.0,2.0,2.0,-3.0,0.0,2.0
1701961901.173678,4.0,20.0,13.0,-1.0,0.0,1.0,1.0,1.0
1701961901.193892,-3.0,-7.0,-8.0,-17.0,-11.0,-5.0,-4.0,-2.0
1701961901.193892,-1.0,1.0,-8.0,-3.0,2.0,2.0,0.0,-2.0
1701961901.193892,-3.0,-14.0,8.0,20.0,5.0,7.0,3.0,0.0
1701961901.193892,1.0,8.0,-10.0,-12.0,0.0,3.0,0.0,-2.0
1701961901.2039034,-3.0,2.0,3.0,5.0,-2.0,5.0,-1.0,-2.0
1701961901.2039034,-2.0,2.0,4.0,0.0,-9.0,-4.0,-2.0,-1.0
1701961901.2138832,0.0,7.0,-3.0,-6.0,0.0,-2.0,0.0,-2.0
1701961901.2138832,-4.0,-25.0,-8.0,3.0,0.0,-3.0,0.0,0.0
1701961901.2336807,3.0,12.0,0.0,-5.0,-7.0,-2.0,-1.0,-1.0
1701961901.2336807,-3.0,-7.0,-5.0,-1.0,-5.0,-2.0,-2.0,-1.0
1701961901.2436752,1.0,0.0,7.0,-5.0,1.0,1.0,-1.0,0.0
1701961901.2436752,-1.0,7.0,8.0,6.0,-2.0,-6.0,-3.0,1.0
1701961901.2536752,-2.0,-11.0,0.0,11.0,4.0,4.0,3.0,-1.0
1701961901.2536752,-2.0,0.0,-9.0,-19.0,0.0,-2.0,0.0,-3.0
1701961901.2536752,0.0,-5.0,-3.0,4.0,0.0,-4.0,-1.0,-2.0
1701961901.2536752,0.0,8.0,3.0,0.0,-3.0,-2.0,-1.0,-1.0
1701961901.263937,0.0,-1.0,-1.0,-5.0,-3.0,-2.0,-2.0,-2.0
1701961901.263937,0.0,3.0,-1.0,0.0,2.0,2.0,1.0,2.0
1701961901.2739935,-3.0,-8.0,-1.0,-1.0,-4.0,-1.0,-2.0,-3.0
1701961901.2739935,0.0,3.0,-4.0,-8.0,-1.0,-2.0,-1.0,-2.0
1701961901.284006,-5.0,5.0,-3.0,3.0,3.0,1.0,2.0,1.0
1701961901.284006,0.0,-3.0,-2.0,-2.0,-3.0,-1.0,-1.0,0.0
1701961901.2936738,0.0,1.0,2.0,-1.0,-1.0,-1.0,-1.0,1.0
1701961901.2936738,3.0,7.0,9.0,11.0,2.0,2.0,1.0,0.0
1701961901.313912,2.0,-10.0,-19.0,-24.0,-6.0,-7.0,-4.0,-5.0
1701961901.313912,-1.0,-3.0,-5.0,-3.0,-1.0,-2.0,-3.0,0.0
1701961901.313912,-2.0,-5.0,3.0,4.0,-3.0,-1.0,-1.0,-2.0
1701961901.313912,1.0,4.0,0.0,-8.0,0.0,0.0,0.0,0.0
1701961901.3238971,0.0,-5.0,-5.0,5.0,-2.0,-2.0,-3.0,-3.0
1701961901.3238971,-3.0,-12.0,-6.0,0.0,-2.0,-1.0,-2.0,-3.0
1701961901.33368,-2.0,17.0,6.0,-5.0,1.0,-1.0,-2.0,-1.0
1701961901.33368,-3.0,13.0,0.0,3.0,1.0,-1.0,-1.0,-1.0
1701961901.3621368,-2.0,-7.0,5.0,7.0,-1.0,-2.0,-2.0,-1.0
1701961901.3621368,-3.0,0.0,-4.0,-5.0,-2.0,-3.0,-2.0,-1.0
1701961901.3621368,-5.0,-7.0,0.0,3.0,1.0,0.0,-1.0,-1.0
1701961901.3621368,3.0,1.0,-2.0,0.0,0.0,1.0,1.0,1.0
1701961901.3747463,-4.0,-18.0,-4.0,-7.0,-2.0,-2.0,-1.0,-2.0
1701961901.3747463,0.0,1.0,2.0,1.0,0.0,-1.0,0.0,1.0
1701961901.3759246,-1.0,-2.0,1.0,0.0,-2.0,-2.0,-1.0,-1.0
1701961901.3759246,-4.0,5.0,-1.0,-2.0,0.0,0.0,-3.0,-2.0
1701961901.3862495,1.0,6.0,-3.0,-2.0,1.0,-1.0,-1.0,0.0
1701961901.3862495,0.0,1.0,3.0,-8.0,-6.0,3.0,0.0,0.0
1701961901.3961341,-2.0,-8.0,-1.0,12.0,7.0,-1.0,-1.0,-3.0
1701961901.3961341,3.0,-1.0,1.0,4.0,-2.0,0.0,4.0,5.0
1701961901.4059234,-4.0,1.0,-1.0,2.0,-3.0,1.0,1.0,3.0
1701961901.4059234,6.0,1.0,3.0,4.0,6.0,1.0,-2.0,0.0
1701961901.4059234,-1.0,2.0,-2.0,-7.0,-1.0,-1.0,-1.0,-6.0
1701961901.4059234,-2.0,-7.0,-4.0,-7.0,-5.0,-3.0,-4.0,-5.0
1701961901.4261794,-5.0,8.0,2.0,-21.0,-16.0,-8.0,-5.0,-2.0
1701961901.4261794,-7.0,5.0,-6.0,0.0,3.0,2.0,-1.0,-4.0
1701961901.4359221,2.0,-2.0,17.0,54.0,25.0,5.0,3.0,4.0
1701961901.4359221,0.0,1.0,-17.0,-17.0,-2.0,-1.0,-1.0,-3.0
1701961901.44633,-3.0,-4.0,-1.0,0.0,3.0,-4.0,-4.0,-3.0
1701961901.44633,-1.0,0.0,-7.0,-24.0,-23.0,-8.0,-6.0,-3.0
1701961901.4559238,2.0,8.0,2.0,-16.0,-6.0,1.0,2.0,2.0
1701961901.4559238,0.0,-4.0,22.0,11.0,4.0,-2.0,-1.0,0.0
1701961901.4659226,1.0,-1.0,-24.0,-2.0,-5.0,-2.0,-3.0,-3.0
1701961901.4659226,1.0,9.0,-4.0,8.0,0.0,-5.0,-3.0,-1.0
1701961901.4659226,-5.0,-23.0,-5.0,-7.0,-13.0,0.0,-2.0,0.0
1701961901.4659226,-2.0,-12.0,3.0,-7.0,1.0,-5.0,-5.0,-3.0
1701961901.4862435,6.0,9.0,16.0,9.0,1.0,-4.0,-2.0,1.0
1701961901.4862435,-4.0,-5.0,10.0,23.0,14.0,3.0,2.0,-2.0
1701961901.4959247,3.0,4.0,-44.0,-57.0,-25.0,-6.0,-3.0,1.0
1701961901.4959247,2.0,14.0,16.0,17.0,14.0,6.0,4.0,1.0
1701961901.5059247,-3.0,-8.0,11.0,12.0,10.0,3.0,0.0,-1.0
1701961901.5059247,0.0,1.0,1.0,-3.0,9.0,-1.0,-2.0,-2.0
1701961901.5159585,-3.0,7.0,3.0,15.0,-11.0,-10.0,-7.0,-4.0
1701961901.5159585,-2.0,-3.0,-9.0,-11.0,-14.0,-7.0,-3.0,-1.0
1701961901.5263262,-3.0,-11.0,-23.0,-9.0,2.0,1.0,0.0,-2.0
1701961901.5263262,1.0,1.0,0.0,0.0,-5.0,-1.0,1.0,0.0
1701961901.5263262,-3.0,-4.0,16.0,3.0,0.0,-6.0,-3.0,-2.0
1701961901.5263262,-1.0,-3.0,-18.0,-13.0,0.0,6.0,-2.0,-2.0
1701961901.546345,3.0,6.0,6.0,17.0,14.0,3.0,2.0,1.0
1701961901.546345,-1.0,-7.0,10.0,8.0,-17.0,-4.0,-2.0,-1.0
1701961901.5559256,4.0,5.0,-5.0,-16.0,14.0,10.0,4.0,2.0
1701961901.5559256,1.0,2.0,16.0,25.0,12.0,4.0,1.0,1.0
1701961901.5659254,-3.0,-8.0,-9.0,-5.0,-1.0,1.0,1.0,-1.0
1701961901.5659254,-1.0,2.0,-7.0,-6.0,8.0,5.0,2.0,0.0
1701961901.5759554,-3.0,-8.0,-1.0,-4.0,-5.0,-5.0,-3.0,-1.0
1701961901.5759554,-3.0,1.0,-1.0,-3.0,-20.0,-10.0,-2.0,-3.0
1701961901.5861971,0.0,2.0,6.0,2.0,2.0,1.0,4.0,0.0
1701961901.5861971,1.0,1.0,-3.0,1.0,-7.0,-5.0,-1.0,2.0
1701961901.5861971,-4.0,-2.0,-2.0,3.0,0.0,1.0,-4.0,-6.0
1701961901.5861971,2.0,5.0,-4.0,-18.0,-2.0,0.0,-1.0,-1.0
1701961901.615927,0.0,-2.0,4.0,4.0,-2.0,0.0,0.0,-1.0
1701961901.615927,-1.0,0.0,6.0,6.0,0.0,-4.0,-1.0,0.0
1701961901.615927,-2.0,-9.0,-8.0,2.0,1.0,0.0,-2.0,0.0
1701961901.615927,-3.0,-8.0,21.0,36.0,3.0,0.0,-1.0,-3.0
1701961901.6459208,4.0,12.0,-39.0,-70.0,-12.0,-3.0,-1.0,2.0
1701961901.6459208,-1.0,-5.0,5.0,4.0,-11.0,2.0,-1.0,-2.0
1701961901.6459208,-1.0,1.0,-2.0,-8.0,17.0,3.0,-1.0,-2.0
1701961901.6459208,-4.0,-4.0,1.0,6.0,-2.0,-1.0,-2.0,-3.0
1701961901.6459208,1.0,2.0,2.0,6.0,-14.0,-6.0,-2.0,-1.0
1701961901.6459208,-3.0,-3.0,-7.0,-7.0,3.0,-1.0,0.0,-2.0
1701961901.6459208,0.0,-2.0,-1.0,1.0,-8.0,-3.0,0.0,0.0
1701961901.6459208,-3.0,-2.0,-11.0,-8.0,-3.0,-2.0,-1.0,0.0
1701961901.6662564,-3.0,-1.0,9.0,9.0,6.0,3.0,-1.0,-1.0
1701961901.6759286,1.0,0.0,-4.0,-5.0,1.0,-1.0,0.0,1.0
1701961901.6759286,-1.0,-1.0,4.0,10.0,-4.0,0.0,1.0,-3.0
1701961901.6759286,-1.0,-2.0,-8.0,-8.0,3.0,0.0,0.0,0.0
1701961901.6959255,2.0,-5.0,-1.0,-2.0,-4.0,-2.0,-1.0,-2.0
1701961901.6959255,1.0,-2.0,1.0,-3.0,0.0,-1.0,-1.0,-2.0
1701961901.6959255,-10.0,3.0,6.0,5.0,4.0,2.0,1.0,-3.0
1701961901.6959255,1.0,-1.0,-7.0,-9.0,0.0,-1.0,-2.0,0.0
1701961901.705954,1.0,-11.0,-8.0,5.0,-5.0,-3.0,-5.0,-3.0
1701961901.705954,0.0,16.0,13.0,2.0,6.0,3.0,4.0,2.0
1701961901.705954,2.0,3.0,-1.0,0.0,-2.0,-3.0,-1.0,1.0
1701961901.705954,-1.0,-2.0,-6.0,-8.0,-4.0,-1.0,0.0,0.0
1701961901.7459207,-1.0,6.0,8.0,16.0,2.0,0.0,0.0,-5.0
1701961901.7459207,-3.0,-19.0,-4.0,-4.0,-2.0,-4.0,-3.0,2.0
1701961901.7459207,3.0,5.0,1.0,-2.0,-1.0,0.0,0.0,1.0
1701961901.7459207,1.0,4.0,-2.0,-5.0,-2.0,-1.0,1.0,0.0
1701961901.7459207,0.0,11.0,9.0,3.0,1.0,1.0,0.0,0.0
1701961901.7459207,-2.0,2.0,-5.0,-5.0,-3.0,0.0,-1.0,-5.0
1701961901.756177,1.0,-7.0,-2.0,0.0,-1.0,-2.0,-1.0,0.0
1701961901.756177,2.0,2.0,-6.0,-3.0,-1.0,-2.0,-2.0,-2.0
1701961901.7662096,-7.0,-18.0,2.0,11.0,3.0,2.0,0.0,-2.0
1701961901.7662096,-7.0,19.0,-11.0,-18.0,0.0,2.0,-1.0,-5.0
1701961901.7759273,3.0,-11.0,13.0,6.0,-4.0,-2.0,-1.0,-1.0
1701961901.7759273,2.0,-4.0,0.0,6.0,1.0,0.0,-2.0,-1.0
1701961901.8059227,-4.0,-8.0,-6.0,-7.0,-3.0,-2.0,-1.0,1.0
1701961901.8059227,0.0,-6.0,-7.0,2.0,0.0,-2.0,0.0,-1.0
1701961901.8059227,-1.0,0.0,-3.0,-2.0,-2.0,-1.0,0.0,0.0
1701961901.8059227,-5.0,-1.0,-3.0,-6.0,-1.0,0.0,-1.0,-1.0
1701961901.8059227,2.0,-5.0,1.0,-2.0,0.0,-4.0,-1.0,-2.0
1701961901.8059227,1.0,-9.0,1.0,0.0,-2.0,-2.0,-3.0,-3.0
1701961901.8160274,2.0,3.0,-6.0,2.0,1.0,-1.0,-2.0,-2.0
1701961901.8160274,0.0,-7.0,-5.0,-3.0,6.0,3.0,1.0,0.0
1701961901.826325,1.0,5.0,3.0,1.0,-1.0,-1.0,-2.0,2.0
1701961901.826325,0.0,-1.0,-2.0,-1.0,-2.0,-3.0,-2.0,0.0
1701961901.826325,-2.0,-2.0,-1.0,-5.0,-6.0,-2.0,-1.0,-1.0
1701961901.826325,2.0,14.0,2.0,2.0,-4.0,-3.0,-3.0,-2.0
1701961901.8459244,9.0,8.0,6.0,2.0,1.0,0.0,0.0,0.0
1701961901.8459244,5.0,-6.0,-1.0,2.0,0.0,0.0,-1.0,2.0
1701961901.8559232,-8.0,-2.0,-5.0,-12.0,-10.0,-9.0,-3.0,-1.0
1701961901.8559232,-3.0,-8.0,-3.0,2.0,-5.0,1.0,3.0,1.0
1701961901.8659215,-5.0,5.0,2.0,14.0,10.0,10.0,1.0,-4.0
1701961901.8659215,5.0,-4.0,-2.0,-4.0,3.0,3.0,1.0,2.0
1701961901.8770912,4.0,-2.0,-4.0,1.0,4.0,2.0,0.0,1.0
1701961901.8770912,-1.0,0.0,-5.0,-13.0,-8.0,-5.0,-3.0,0.0
1701961901.8914165,-7.0,-5.0,-3.0,-23.0,-25.0,-12.0,-5.0,-5.0
1701961901.892431,-6.0,-6.0,-2.0,-5.0,-2.0,-4.0,-6.0,-7.0
1701961901.89887,-4.0,0.0,2.0,36.0,13.0,8.0,2.0,-2.0
1701961901.89887,4.0,2.0,10.0,1.0,11.0,2.0,2.0,-1.0
1701961901.9084468,2.0,1.0,2.0,0.0,7.0,3.0,0.0,1.0
1701961901.9084468,-1.0,-5.0,-9.0,-4.0,-7.0,-4.0,1.0,0.0
1701961901.9084468,0.0,3.0,-12.0,-34.0,-15.0,-9.0,-5.0,-2.0
1701961901.9084468,-1.0,-6.0,-2.0,-7.0,-17.0,-8.0,-5.0,-3.0
1701961901.9287796,-5.0,-4.0,4.0,22.0,4.0,0.0,-2.0,-3.0
1701961901.9287796,4.0,5.0,5.0,-15.0,-2.0,-2.0,1.0,-1.0
1701961901.9287796,0.0,-5.0,-11.0,-10.0,0.0,4.0,0.0,-1.0
1701961901.9287796,6.0,3.0,13.0,22.0,22.0,9.0,5.0,1.0
1701961901.948661,-2.0,5.0,-3.0,-17.0,-2.0,-7.0,-4.0,-3.0
1701961901.948661,-2.0,-4.0,-16.0,16.0,3.0,-1.0,-1.0,0.0
1701961901.9584477,-3.0,-17.0,15.0,7.0,-7.0,-3.0,-1.0,-3.0
1701961901.9584477,-1.0,17.0,12.0,15.0,0.0,-3.0,-3.0,-1.0
1701961901.968773,0.0,-3.0,-28.0,-29.0,0.0,0.0,0.0,1.0
1701961901.968773,0.0,9.0,16.0,17.0,3.0,-5.0,-2.0,-1.0
1701961901.968773,-2.0,-10.0,-4.0,-7.0,0.0,6.0,4.0,0.0
1701961901.968773,-2.0,-10.0,-6.0,-11.0,-4.0,-4.0,-3.0,0.0
1701961901.9887586,0.0,1.0,19.0,20.0,-4.0,-1.0,2.0,3.0
1701961901.9887586,-3.0,-3.0,-10.0,-14.0,-21.0,1.0,-1.0,-3.0
1701961901.9984875,3.0,6.0,4.0,1.0,17.0,1.0,0.0,-3.0
1701961901.9984875,-3.0,-3.0,-2.0,5.0,20.0,9.0,0.0,-1.0
1701961902.0086348,0.0,-2.0,-1.0,0.0,-11.0,-10.0,-2.0,0.0
1701961902.0086348,-4.0,-7.0,-1.0,-8.0,0.0,-9.0,-7.0,-3.0
1701961902.018447,-4.0,-2.0,-5.0,-13.0,-48.0,-28.0,-15.0,-6.0
1701961902.018447,-1.0,-6.0,-5.0,-5.0,-25.0,-19.0,-9.0,-2.0
1701961902.0284941,4.0,4.0,-1.0,15.0,65.0,35.0,18.0,8.0
1701961902.0284941,1.0,4.0,11.0,9.0,-1.0,25.0,10.0,2.0
1701961902.0284941,-3.0,1.0,-10.0,-8.0,57.0,0.0,-3.0,-3.0
1701961902.0284941,-5.0,-5.0,-7.0,-10.0,-67.0,-19.0,-7.0,-6.0
1701961902.0587332,0.0,-1.0,12.0,14.0,-43.0,-21.0,-5.0,0.0
1701961902.0587332,-1.0,-3.0,-7.0,25.0,65.0,9.0,0.0,1.0
1701961902.0587332,-1.0,1.0,6.0,11.0,-11.0,1.0,0.0,-3.0
1701961902.0587332,-6.0,-10.0,-21.0,-26.0,-1.0,-9.0,-6.0,-5.0
1701961902.0688066,-5.0,-2.0,1.0,-6.0,-19.0,-11.0,-8.0,-5.0
1701961902.0688066,-2.0,-4.0,-1.0,-9.0,-16.0,4.0,-3.0,-1.0
1701961902.098726,2.0,1.0,-1.0,1.0,-18.0,0.0,-1.0,1.0
1701961902.098726,-3.0,-2.0,-3.0,-2.0,23.0,-4.0,-3.0,-1.0
1701961902.098726,10.0,1.0,1.0,-1.0,-32.0,-9.0,-2.0,1.0
1701961902.098726,-2.0,-1.0,-4.0,-7.0,3.0,-10.0,-10.0,-5.0
1701961902.098726,-3.0,1.0,0.0,0.0,-12.0,-3.0,4.0,3.0
1701961902.098726,-2.0,0.0,3.0,1.0,26.0,8.0,1.0,-2.0
1701961902.108906,2.0,2.0,-5.0,6.0,18.0,39.0,12.0,5.0
1701961902.118734,-1.0,2.0,4.0,-4.0,6.0,-6.0,0.0,-4.0
1701961902.118734,-1.0,2.0,-1.0,-5.0,-23.0,-10.0,-4.0,-3.0
1701961902.118734,5.0,3.0,1.0,5.0,-2.0,5.0,5.0,4.0
1701961902.1287851,-4.0,3.0,0.0,-3.0,21.0,-1.0,2.0,3.0
1701961902.1287851,-4.0,0.0,-2.0,0.0,-39.0,4.0,3.0,-2.0
1701961902.1487277,-4.0,-1.0,-6.0,-9.0,42.0,8.0,-1.0,-2.0
1701961902.1487277,-6.0,2.0,3.0,4.0,-7.0,7.0,6.0,-5.0
1701961902.1587253,-3.0,-5.0,-7.0,-14.0,-16.0,-11.0,-5.0,-2.0
1701961902.1587253,0.0,4.0,4.0,2.0,-4.0,8.0,20.0,8.0
1701961902.1587253,-2.0,-1.0,0.0,25.0,78.0,20.0,-9.0,2.0
1701961902.1587253,0.0,-5.0,-6.0,-13.0,-16.0,-12.0,-3.0,0.0
1701961902.1690795,-10.0,-3.0,-3.0,-15.0,-10.0,-4.0,-17.0,-10.0
1701961902.1690795,4.0,-1.0,3.0,1.0,-77.0,-14.0,-3.0,2.0
1701961902.1787446,6.0,5.0,4.0,-1.0,58.0,22.0,13.0,1.0
1701961902.1787446,-8.0,-1.0,-1.0,9.0,3.0,7.0,2.0,-4.0
1701961902.1887589,-5.0,-4.0,-5.0,-8.0,-28.0,-18.0,-5.0,-6.0
1701961902.1887589,-1.0,-3.0,-5.0,-15.0,-6.0,-21.0,-7.0,0.0
1701961902.1991029,4.0,1.0,2.0,2.0,-25.0,10.0,8.0,4.0
1701961902.1991029,3.0,-3.0,-5.0,-6.0,-1.0,-15.0,-5.0,3.0
1701961902.2091002,0.0,-1.0,1.0,1.0,11.0,2.0,5.0,-1.0
1701961902.2091002,-1.0,-3.0,11.0,13.0,26.0,8.0,-7.0,-3.0
1701961902.2091002,0.0,-4.0,-20.0,-17.0,-24.0,-13.0,-6.0,-1.0
1701961902.2091002,-1.0,-7.0,2.0,2.0,-20.0,-5.0,-4.0,-3.0
1701961902.229091,2.0,-1.0,-1.0,-26.0,-10.0,-5.0,-2.0,-2.0
1701961902.229091,-1.0,1.0,10.0,11.0,23.0,-1.0,1.0,0.0
1701961902.2387288,-1.0,-2.0,-2.0,1.0,-25.0,-8.0,-3.0,-3.0
1701961902.2387288,-1.0,-1.0,-1.0,6.0,3.0,4.0,-2.0,-2.0
1701961902.2487493,-4.0,-5.0,-18.0,-8.0,0.0,-8.0,-7.0,-4.0
1701961902.2487493,-3.0,-2.0,2.0,4.0,9.0,6.0,-1.0,-4.0
1701961902.2587273,2.0,1.0,1.0,-5.0,-16.0,-1.0,1.0,1.0
1701961902.2587273,0.0,-1.0,4.0,11.0,8.0,5.0,-1.0,1.0
1701961902.2690487,-2.0,2.0,0.0,-9.0,3.0,-3.0,1.0,0.0
1701961902.2690487,0.0,-1.0,-6.0,-10.0,8.0,1.0,-2.0,-1.0
1701961902.2690487,-3.0,-1.0,6.0,8.0,-21.0,-11.0,-4.0,-3.0
1701961902.2690487,14.0,-1.0,-11.0,-8.0,12.0,4.0,-4.0,-2.0
1701961902.2891204,-2.0,7.0,36.0,23.0,6.0,2.0,2.0,-2.0
1701961902.2891204,-4.0,-9.0,-47.0,-22.0,-3.0,-2.0,-3.0,-1.0
1701961902.2987287,-2.0,-1.0,7.0,3.0,-7.0,0.0,2.0,2.0
1701961902.2987287,6.0,1.0,1.0,-12.0,-3.0,1.0,1.0,4.0
1701961902.3087268,-8.0,5.0,10.0,9.0,3.0,5.0,3.0,2.0
1701961902.3087268,-2.0,-1.0,18.0,6.0,1.0,-6.0,-6.0,-4.0
1701961902.3189657,-5.0,0.0,11.0,15.0,-5.0,-4.0,2.0,-1.0
1701961902.3189657,-6.0,0.0,-14.0,-22.0,-1.0,4.0,2.0,-2.0
1701961902.3289897,3.0,-3.0,8.0,10.0,14.0,2.0,-1.0,2.0
1701961902.3289897,-5.0,-2.0,0.0,-3.0,1.0,1.0,3.0,0.0
1701961902.3289897,0.0,-7.0,-25.0,-17.0,-9.0,-2.0,-1.0,-1.0
1701961902.3289897,-5.0,-3.0,12.0,19.0,6.0,2.0,-1.0,-3.0
1701961902.3587282,-2.0,-2.0,-2.0,-3.0,0.0,-1.0,-1.0,-2.0
1701961902.3587282,3.0,-2.0,2.0,-3.0,0.0,-4.0,-4.0,-1.0
1701961902.3587282,1.0,-2.0,0.0,4.0,-2.0,-3.0,-1.0,-2.0
1701961902.3587282,-2.0,1.0,4.0,-1.0,-1.0,3.0,1.0,-1.0
1701961902.3687255,2.0,-1.0,-7.0,-4.0,-1.0,0.0,-2.0,-2.0
1701961902.3687255,1.0,0.0,-7.0,-3.0,-1.0,0.0,-2.0,1.0
1701961902.3791308,-1.0,4.0,12.0,4.0,-4.0,1.0,0.0,-2.0
1701961902.3791308,-4.0,0.0,-5.0,-3.0,6.0,4.0,4.0,-1.0
1701961902.3890724,0.0,-3.0,-9.0,-3.0,0.0,1.0,0.0,-2.0
1701961902.3890724,1.0,3.0,6.0,4.0,-1.0,-3.0,0.0,-1.0
1701961902.3890724,-3.0,-5.0,-6.0,-11.0,-6.0,-3.0,-2.0,-2.0
1701961902.3890724,-4.0,2.0,-4.0,-7.0,-10.0,-5.0,-4.0,-2.0
1701961902.417156,10.0,-2.0,-2.0,11.0,15.0,6.0,1.0,1.0
1701961902.417156,-8.0,-8.0,0.0,0.0,2.0,-5.0,-1.0,-3.0
1701961902.418961,-7.0,-4.0,-7.0,-11.0,-15.0,-4.0,-4.0,-5.0
1701961902.418961,6.0,-9.0,-8.0,-3.0,3.0,5.0,7.0,9.0
1701961902.4250844,-2.0,-6.0,-8.0,-15.0,-28.0,-21.0,-15.0,-5.0
1701961902.4250844,2.0,4.0,-2.0,9.0,23.0,6.0,6.0,0.0
1701961902.4354515,-7.0,2.0,3.0,12.0,28.0,13.0,2.0,-2.0
1701961902.4354515,2.0,0.0,5.0,10.0,-17.0,-4.0,3.0,2.0
1701961902.4551551,-1.0,-17.0,-6.0,-17.0,-43.0,-3.0,-7.0,-1.0
1701961902.4551551,-8.0,4.0,-2.0,5.0,-3.0,-15.0,-8.0,-4.0
1701961902.4551551,0.0,-10.0,-1.0,25.0,74.0,35.0,9.0,1.0
1701961902.4551551,-6.0,6.0,12.0,-5.0,-7.0,-5.0,-5.0,-7.0
1701961902.4751203,-4.0,2.0,-24.0,-32.0,-34.0,-17.0,-3.0,-3.0
1701961902.4751203,2.0,1.0,-4.0,-14.0,-33.0,16.0,4.0,3.0
1701961902.4751203,4.0,0.0,27.0,40.0,34.0,2.0,2.0,0.0
1701961902.4751203,-7.0,-5.0,-28.0,8.0,21.0,-8.0,-11.0,-11.0
1701961902.4854782,-1.0,-5.0,4.0,3.0,-9.0,-6.0,-6.0,-2.0
1701961902.4854782,-4.0,-14.0,-6.0,-13.0,-25.0,-21.0,-7.0,-4.0
1701961902.4953768,3.0,13.0,24.0,-8.0,7.0,-6.0,-4.0,-4.0
1701961902.4953768,3.0,1.0,15.0,22.0,14.0,19.0,4.0,2.0
1701961902.5150852,-4.0,6.0,12.0,21.0,31.0,-6.0,-1.0,-2.0
1701961902.5150852,2.0,-1.0,11.0,11.0,-20.0,4.0,8.0,2.0
1701961902.5150852,-1.0,-3.0,-35.0,-53.0,-64.0,-30.0,-9.0,0.0
1701961902.5150852,-1.0,1.0,16.0,10.0,-1.0,-6.0,-1.0,-1.0
1701961902.5350842,-3.0,-3.0,-37.0,-19.0,11.0,18.0,7.0,0.0
1701961902.5350842,5.0,12.0,42.0,54.0,60.0,18.0,2.0,2.0
1701961902.5350842,2.0,2.0,-9.0,-23.0,-14.0,-8.0,3.0,3.0
1701961902.5350842,-3.0,-3.0,-36.0,-70.0,-12.0,7.0,-1.0,-2.0
1701961902.5454738,-1.0,0.0,14.0,9.0,1.0,-14.0,-1.0,0.0
1701961902.5454738,-7.0,-6.0,-9.0,15.0,-3.0,-1.0,-7.0,-8.0
1701961902.5554433,-1.0,1.0,-17.0,-21.0,-28.0,-11.0,-2.0,1.0
1701961902.5554433,-5.0,-10.0,-15.0,-2.0,-12.0,2.0,8.0,0.0
1701961902.575086,0.0,6.0,26.0,31.0,27.0,10.0,2.0,1.0
1701961902.575086,0.0,0.0,-1.0,-13.0,6.0,-6.0,-4.0,-1.0
1701961902.575086,0.0,0.0,6.0,44.0,-10.0,-19.0,-5.0,-1.0
1701961902.575086,-1.0,1.0,-1.0,-48.0,0.0,4.0,-3.0,0.0
1701961902.5951395,-3.0,-12.0,-77.0,-11.0,-2.0,-1.0,-1.0,-4.0
1701961902.5951395,3.0,9.0,27.0,1.0,8.0,-2.0,0.0,0.0
1701961902.5951395,0.0,0.0,25.0,-29.0,-14.0,4.0,0.0,1.0
1701961902.5951395,-2.0,-4.0,4.0,46.0,5.0,-5.0,-4.0,-2.0
1701961902.6051192,-1.0,-2.0,-9.0,-78.0,-18.0,0.0,2.0,0.0
1701961902.6051192,0.0,0.0,-26.0,-30.0,-6.0,-4.0,-3.0,1.0
1701961902.6153798,1.0,4.0,20.0,33.0,3.0,10.0,1.0,-1.0
1701961902.6153798,-2.0,-3.0,9.0,6.0,-3.0,-11.0,-5.0,-4.0
1701961902.635086,-2.0,0.0,27.0,12.0,8.0,4.0,2.0,1.0
1701961902.635086,-1.0,-5.0,-39.0,-11.0,-4.0,-3.0,-1.0,-2.0
1701961902.635086,-2.0,-2.0,15.0,15.0,-5.0,-1.0,-4.0,-2.0
1701961902.635086,3.0,7.0,2.0,-8.0,-1.0,-4.0,-2.0,2.0
1701961902.6555026,-2.0,-1.0,-2.0,28.0,7.0,4.0,1.0,0.0
1701961902.6555026,1.0,-2.0,-9.0,-11.0,-3.0,1.0,3.0,1.0
1701961902.6555026,1.0,2.0,-4.0,-6.0,-4.0,-1.0,0.0,0.0
1701961902.6555026,-3.0,-1.0,12.0,12.0,2.0,1.0,0.0,-1.0
1701961902.6654675,0.0,3.0,16.0,24.0,7.0,2.0,-1.0,0.0
1701961902.6654675,3.0,1.0,-9.0,-24.0,-3.0,-3.0,-2.0,3.0
1701961902.675442,-21.0,-13.0,-6.0,6.0,3.0,3.0,0.0,-7.0
1701961902.675442,2.0,2.0,-5.0,5.0,-1.0,-2.0,1.0,2.0
1701961902.6950872,-2.0,-2.0,-7.0,-11.0,0.0,-1.0,-2.0,0.0
1701961902.6950872,-4.0,-5.0,16.0,17.0,0.0,-1.0,2.0,-2.0
1701961902.6950872,2.0,-3.0,-20.0,-25.0,-7.0,-3.0,0.0,2.0
1701961902.6950872,1.0,0.0,4.0,-2.0,1.0,2.0,0.0,1.0
1701961902.7154949,-2.0,9.0,15.0,19.0,6.0,1.0,-1.0,-2.0
1701961902.7154949,-2.0,-7.0,-12.0,-5.0,-4.0,-1.0,-2.0,-2.0
1701961902.7154949,1.0,0.0,-8.0,-7.0,-1.0,4.0,1.0,0.0
1701961902.7154949,-5.0,-8.0,-2.0,4.0,0.0,-2.0,-2.0,-2.0
1701961902.7254686,-1.0,21.0,2.0,-3.0,0.0,-2.0,-3.0,-2.0
1701961902.7254686,-5.0,-17.0,12.0,-6.0,-7.0,-4.0,-5.0,-3.0
1701961902.7450852,-1.0,-6.0,-13.0,-11.0,-8.0,-3.0,-4.0,0.0
1701961902.7450852,4.0,0.0,3.0,5.0,-3.0,-1.0,8.0,-2.0
1701961902.7550898,-2.0,0.0,4.0,11.0,13.0,8.0,0.0,4.0
1701961902.7550898,-8.0,-4.0,-6.0,-9.0,-3.0,-3.0,-10.0,-5.0
1701961902.7550898,8.0,-4.0,-4.0,6.0,2.0,2.0,19.0,9.0
1701961902.7550898,-8.0,-4.0,11.0,4.0,4.0,-8.0,-30.0,-6.0
1701961902.7753692,7.0,-7.0,0.0,-6.0,-9.0,-6.0,-5.0,-3.0
1701961902.7753692,7.0,29.0,-2.0,-1.0,-6.0,3.0,10.0,2.0
1701961902.7753692,1.0,-30.0,-10.0,-4.0,-7.0,-9.0,-6.0,6.0
1701961902.7753692,-8.0,-43.0,-20.0,-6.0,-4.0,-2.0,-3.0,-2.0
1701961902.7853608,-10.0,8.0,1.0,1.0,13.0,2.0,5.0,-9.0
1701961902.7853608,4.0,5.0,2.0,2.0,-7.0,-10.0,-11.0,-2.0
1701961902.8150854,-6.0,3.0,-2.0,-17.0,-48.0,-6.0,-8.0,-11.0
1701961902.8150854,4.0,-1.0,5.0,-34.0,7.0,-4.0,6.0,11.0
1701961902.8150854,3.0,-15.0,-2.0,70.0,59.0,30.0,1.0,2.0
1701961902.8150854,2.0,-7.0,-1.0,12.0,29.0,4.0,14.0,4.0
1701961902.8150854,-4.0,12.0,-7.0,-4.0,-9.0,-15.0,-7.0,-3.0
1701961902.8150854,5.0,0.0,-8.0,-15.0,-64.0,-9.0,1.0,0.0
1701961902.8353949,3.0,-1.0,7.0,-39.0,-24.0,-27.0,-7.0,-1.0
1701961902.8353949,-1.0,19.0,4.0,-5.0,-2.0,10.0,5.0,1.0
1701961902.8353949,-1.0,2.0,22.0,23.0,-19.0,0.0,-6.0,-1.0
1701961902.8353949,3.0,15.0,-14.0,-15.0,44.0,14.0,8.0,4.0
1701961902.8453608,0.0,-7.0,0.0,-5.0,9.0,10.0,5.0,5.0
1701961902.8453608,-3.0,-3.0,-5.0,7.0,-9.0,-13.0,-5.0,-2.0
1701961902.8750885,-1.0,-2.0,-1.0,1.0,30.0,-1.0,-7.0,-6.0
1701961902.8750885,0.0,8.0,19.0,31.0,12.0,9.0,2.0,-4.0
1701961902.8750885,-3.0,0.0,-18.0,-14.0,-50.0,-18.0,-1.0,1.0
1701961902.8750885,-3.0,-13.0,-21.0,-31.0,7.0,-8.0,-10.0,-7.0
1701961902.8750885,-4.0,-4.0,-4.0,-33.0,-53.0,-17.0,-6.0,-5.0
1701961902.8750885,-2.0,9.0,15.0,29.0,5.0,1.0,3.0,-1.0
1701961902.8950922,2.0,4.0,17.0,24.0,68.0,39.0,9.0,4.0
1701961902.8950922,-2.0,-8.0,-17.0,-9.0,-33.0,-3.0,-2.0,-2.0
1701961902.8950922,0.0,1.0,-23.0,-26.0,16.0,-18.0,-5.0,-2.0
1701961902.8950922,-3.0,5.0,31.0,49.0,-24.0,-3.0,-1.0,-3.0
1701961902.91509,-1.0,3.0,-1.0,-50.0,7.0,0.0,-5.0,-4.0
1701961902.91509,0.0,-1.0,22.0,40.0,-6.0,3.0,3.0,2.0
1701961902.925085,6.0,6.0,-15.0,-15.0,38.0,13.0,7.0,6.0
1701961902.925085,-3.0,-3.0,-13.0,-17.0,-25.0,-12.0,-6.0,-4.0
1701961902.925085,-1.0,-2.0,12.0,14.0,-19.0,-9.0,-5.0,-3.0
1701961902.925085,-4.0,0.0,43.0,27.0,34.0,3.0,-6.0,-2.0
1701961902.940874,-3.0,-8.0,-33.0,17.0,-9.0,-5.0,-6.0,-5.0
1701961902.940874,-1.0,-2.0,-46.0,-92.0,-47.0,-19.0,-3.0,-2.0
1701961902.957934,-3.0,-3.0,10.0,34.0,48.0,16.0,5.0,-3.0
1701961902.957934,-3.0,-1.0,-2.0,9.0,-11.0,3.0,3.0,0.0
1701961902.957934,0.0,-1.0,-3.0,-2.0,0.0,3.0,0.0,-1.0
1701961902.957934,0.0,8.0,8.0,-64.0,-4.0,-13.0,-6.0,-2.0
1701961902.978299,-11.0,-15.0,11.0,77.0,0.0,-3.0,-3.0,-5.0
1701961902.978299,0.0,4.0,-10.0,-80.0,-44.0,-20.0,-4.0,-3.0
1701961902.978299,1.0,1.0,-6.0,55.0,35.0,32.0,11.0,5.0
1701961902.978299,5.0,9.0,-20.0,-46.0,52.0,20.0,9.0,5.0
1701961902.987935,0.0,1.0,-3.0,-15.0,-22.0,-16.0,-6.0,-2.0
1701961902.987935,-3.0,-4.0,28.0,10.0,-7.0,-8.0,-6.0,-2.0
1701961902.9979725,-5.0,-6.0,-38.0,-15.0,-37.0,-12.0,-6.0,-7.0
1701961902.9979725,-1.0,1.0,35.0,60.0,38.0,8.0,2.0,0.0
1701961903.0179448,1.0,-4.0,-16.0,-43.0,-32.0,-8.0,1.0,1.0
1701961903.0179448,-2.0,3.0,-2.0,-12.0,6.0,4.0,0.0,-1.0
1701961903.0379357,2.0,4.0,33.0,8.0,-7.0,-4.0,-5.0,-2.0
1701961903.0379357,-3.0,-2.0,-29.0,-15.0,-8.0,-2.0,-5.0,-3.0
1701961903.0379357,0.0,-2.0,-8.0,-1.0,-2.0,-2.0,1.0,0.0
1701961903.0379357,0.0,-3.0,-2.0,7.0,-4.0,-1.0,-1.0,-2.0
1701961903.0379357,0.0,5.0,47.0,9.0,14.0,4.0,-1.0,-1.0
1701961903.0379357,-3.0,-3.0,-8.0,31.0,11.0,4.0,-2.0,-2.0
1701961903.0479403,1.0,-4.0,-30.0,-24.0,-15.0,-7.0,-1.0,1.0
1701961903.0479403,-2.0,-2.0,10.0,-21.0,-5.0,2.0,1.0,0.0
1701961903.0582912,-2.0,2.0,5.0,12.0,16.0,4.0,-3.0,-2.0
1701961903.0582912,1.0,0.0,12.0,36.0,14.0,6.0,5.0,0.0
1701961903.0779405,0.0,2.0,-17.0,-29.0,-22.0,-6.0,-1.0,0.0
1701961903.0779405,3.0,-2.0,20.0,14.0,14.0,2.0,0.0,1.0
1701961903.0779405,0.0,1.0,-29.0,-18.0,5.0,1.0,2.0,0.0
1701961903.0779405,-5.0,0.0,17.0,26.0,-8.0,-4.0,-2.0,-1.0
1701961903.0981991,0.0,0.0,19.0,-5.0,-9.0,-4.0,-4.0,-3.0
1701961903.0981991,1.0,-5.0,-40.0,-29.0,-1.0,1.0,-1.0,0.0
1701961903.0981991,1.0,-2.0,16.0,9.0,5.0,0.0,1.0,1.0
1701961903.0981991,-2.0,-1.0,1.0,-6.0,-12.0,-2.0,0.0,-1.0
1701961903.1082158,-1.0,-3.0,-13.0,-3.0,-6.0,-2.0,-2.0,0.0
1701961903.1082158,-2.0,-3.0,-11.0,11.0,11.0,2.0,-1.0,-2.0
1701961903.118186,-2.0,-3.0,-3.0,-17.0,-4.0,-3.0,0.0,0.0
1701961903.118186,2.0,0.0,3.0,15.0,1.0,-2.0,-2.0,-1.0
1701961903.1379437,-1.0,0.0,7.0,-1.0,-1.0,-2.0,-1.0,0.0
1701961903.1379437,-4.0,-6.0,-10.0,5.0,0.0,2.0,0.0,-1.0
1701961903.1579351,2.0,-8.0,8.0,-4.0,3.0,2.0,-1.0,1.0
1701961903.1579351,-5.0,2.0,-6.0,0.0,-4.0,-4.0,-2.0,-4.0
1701961903.1579351,-4.0,-8.0,-1.0,-1.0,-3.0,-4.0,-2.0,-2.0
1701961903.1579351,1.0,2.0,-3.0,1.0,2.0,2.0,0.0,4.0
1701961903.1579351,13.0,24.0,7.0,-3.0,4.0,3.0,3.0,11.0
1701961903.1579351,-16.0,-14.0,-10.0,-5.0,-7.0,-4.0,8.0,-12.0
1701961903.168184,-4.0,-14.0,-9.0,-9.0,-9.0,-3.0,-12.0,1.0
1701961903.168184,-7.0,20.0,12.0,17.0,12.0,3.0,-2.0,-13.0
1701961903.207934,6.0,-18.0,-18.0,-11.0,-11.0,-7.0,-10.0,8.0
1701961903.207934,9.0,1.0,6.0,11.0,9.0,14.0,19.0,9.0
1701961903.207934,-17.0,-8.0,-1.0,-1.0,1.0,-8.0,2.0,-11.0
1701961903.207934,15.0,-20.0,-17.0,-5.0,-11.0,-8.0,-22.0,8.0
1701961903.207934,-21.0,34.0,16.0,-1.0,-3.0,1.0,17.0,-12.0
1701961903.207934,1.0,-14.0,-16.0,-10.0,-13.0,-10.0,-20.0,-2.0
1701961903.2183132,0.0,1.0,2.0,2.0,11.0,4.0,10.0,4.0
1701961903.2183132,-7.0,12.0,-2.0,5.0,8.0,1.0,-5.0,-5.0
1701961903.2183132,-5.0,-8.0,0.0,-9.0,-33.0,0.0,-9.0,-4.0
1701961903.2183132,8.0,26.0,4.0,10.0,21.0,4.0,4.0,1.0
1701961903.2283323,-1.0,-1.0,12.0,-10.0,-26.0,-10.0,2.0,-1.0
1701961903.2283323,3.0,-1.0,-4.0,-19.0,30.0,13.0,3.0,0.0
1701961903.237938,-4.0,-14.0,-4.0,29.0,-7.0,-4.0,2.0,0.0
1701961903.237938,-6.0,-3.0,7.0,-2.0,20.0,-9.0,-2.0,0.0
1701961903.2479384,8.0,5.0,6.0,37.0,36.0,22.0,-1.0,2.0
1701961903.2479384,-1.0,9.0,-7.0,-35.0,-65.0,-14.0,6.0,-2.0
1701961903.2582135,2.0,-10.0,2.0,21.0,67.0,22.0,3.0,2.0
1701961903.2582135,-3.0,-22.0,-15.0,-31.0,-50.0,-17.0,-10.0,-1.0
1701961903.2781112,0.0,15.0,36.0,75.0,4.0,-23.0,-7.0,-5.0
1701961903.2781112,9.0,-1.0,-39.0,-19.0,28.0,33.0,19.0,11.0
1701961903.2781112,13.0,8.0,7.0,-17.0,47.0,13.0,11.0,6.0
1701961903.2781112,-14.0,-9.0,-1.0,3.0,-35.0,-18.0,-17.0,-10.0
1701961903.288218,4.0,-4.0,-6.0,-68.0,-22.0,-2.0,0.0,-2.0
1701961903.288218,-5.0,0.0,18.0,40.0,6.0,-3.0,1.0,-2.0
1701961903.2979367,-5.0,-14.0,-9.0,-12.0,-58.0,-32.0,-19.0,-9.0
1701961903.2979367,5.0,7.0,17.0,9.0,8.0,2.0,4.0,1.0
1701961903.307935,0.0,1.0,-33.0,-46.0,-13.0,-2.0,-3.0,1.0
1701961903.307935,-3.0,-7.0,2.0,20.0,9.0,15.0,1.0,0.0
1701961903.3181446,-5.0,-1.0,5.0,17.0,30.0,2.0,0.0,-4.0
1701961903.3181446,3.0,2.0,3.0,-15.0,-1.0,6.0,3.0,3.0
1701961903.3383622,5.0,5.0,-3.0,19.0,12.0,7.0,5.0,4.0
1701961903.3383622,-8.0,-11.0,12.0,13.0,-2.0,-14.0,-7.0,-6.0
1701961903.3383622,-7.0,-13.0,-46.0,-80.0,-62.0,-24.0,-9.0,-5.0
1701961903.3383622,2.0,12.0,32.0,33.0,43.0,34.0,12.0,3.0
1701961903.347939,5.0,-3.0,-31.0,23.0,16.0,28.0,11.0,6.0
1701961903.347939,-1.0,2.0,17.0,-1.0,32.0,-7.0,0.0,0.0
1701961903.3579361,-3.0,0.0,24.0,22.0,-53.0,-24.0,-7.0,-5.0
1701961903.3579361,0.0,-1.0,-14.0,-24.0,16.0,4.0,-2.0,-2.0
1701961903.3779433,-3.0,-5.0,5.0,14.0,7.0,6.0,0.0,-2.0
1701961903.3779433,0.0,0.0,-7.0,-10.0,-17.0,-4.0,-1.0,-3.0
1701961903.3779433,-2.0,2.0,-8.0,6.0,-4.0,-2.0,-1.0,-1.0
1701961903.3779433,0.0,-1.0,-3.0,-4.0,-16.0,-17.0,-8.0,-2.0
1701961903.3982482,-2.0,-1.0,1.0,-6.0,-8.0,-4.0,-2.0,-1.0
1701961903.3982482,-3.0,-2.0,-6.0,-20.0,4.0,1.0,1.0,-1.0
1701961903.3982482,0.0,0.0,-9.0,9.0,20.0,10.0,1.0,-1.0
1701961903.3982482,0.0,1.0,14.0,27.0,11.0,0.0,-2.0,0.0
1701961903.4279387,-1.0,3.0,5.0,-30.0,-26.0,-9.0,-2.0,-2.0
1701961903.4279387,-1.0,-5.0,16.0,28.0,2.0,2.0,0.0,-2.0
1701961903.4279387,2.0,6.0,9.0,-33.0,4.0,4.0,-1.0,1.0
1701961903.4279387,-2.0,-6.0,-12.0,1.0,-6.0,0.0,-2.0,-2.0
1701961903.4279387,1.0,5.0,51.0,22.0,-4.0,-11.0,-3.0,1.0
1701961903.4279387,4.0,7.0,-40.0,-27.0,-10.0,-7.0,-3.0,3.0
1701961903.4379346,-4.0,-9.0,-32.0,8.0,14.0,5.0,-1.0,-3.0
1701961903.4379346,0.0,-1.0,9.0,7.0,-8.0,0.0,1.0,4.0
1701961903.4600441,2.0,6.0,2.0,-45.0,-11.0,-2.0,-1.0,-1.0
1701961903.4600441,-6.0,-16.0,-14.0,38.0,15.0,0.0,2.0,-2.0
1701961903.4617445,-1.0,6.0,37.0,-35.0,-13.0,-1.0,-1.0,-3.0
1701961903.4617445,1.0,0.0,-27.0,11.0,1.0,-2.0,-3.0,-3.0
1701961903.4787257,-4.0,-8.0,-31.0,-10.0,8.0,-3.0,-2.0,-1.0
1701961903.4787257,3.0,6.0,33.0,20.0,-5.0,2.0,0.0,0.0
1701961903.4823372,-1.0,0.0,-8.0,15.0,9.0,8.0,3.0,-1.0
1701961903.4823372,-3.0,0.0,-1.0,-31.0,-16.0,-5.0,-2.0,1.0
1701961903.4906375,-3.0,-4.0,-14.0,24.0,15.0,0.0,-1.0,-3.0
1701961903.4906375,-2.0,0.0,7.0,-8.0,-14.0,-11.0,-5.0,-3.0
1701961903.4906375,2.0,1.0,15.0,32.0,19.0,6.0,2.0,2.0
1701961903.4906375,2.0,0.0,-8.0,-31.0,-9.0,-3.0,-3.0,-2.0
1701961903.5109603,-2.0,-3.0,-6.0,4.0,-4.0,0.0,-2.0,-1.0
1701961903.5109603,-3.0,-3.0,2.0,-17.0,-15.0,-7.0,-2.0,-1.0
1701961903.521003,-1.0,-1.0,-11.0,-2.0,3.0,0.0,-1.0,-2.0
1701961903.521003,-3.0,-7.0,-8.0,15.0,4.0,1.0,1.0,-2.0
1701961903.531003,-2.0,-2.0,-6.0,-17.0,-8.0,-5.0,-4.0,-3.0
1701961903.531003,-1.0,0.0,-3.0,-5.0,-4.0,-2.0,0.0,-1.0
1701961903.5410328,1.0,0.0,16.0,11.0,3.0,2.0,-1.0,0.0
1701961903.5410328,-5.0,-1.0,-3.0,12.0,5.0,1.0,1.0,-2.0
1701961903.5513897,-4.0,1.0,-4.0,-11.0,-8.0,-6.0,-4.0,-3.0
1701961903.5513897,1.0,1.0,2.0,-5.0,-4.0,-1.0,-1.0,1.0
1701961903.5513897,-4.0,-7.0,-2.0,7.0,3.0,0.0,-2.0,-1.0
1701961903.5513897,-1.0,-4.0,-2.0,-4.0,-3.0,-3.0,-2.0,-2.0
1701961903.57142,-3.0,5.0,6.0,-3.0,-2.0,1.0,-2.0,-5.0
1701961903.57142,4.0,-10.0,-12.0,1.0,1.0,0.0,1.0,-5.0
1701961903.5810034,-2.0,10.0,2.0,-6.0,2.0,3.0,4.0,7.0
1701961903.5810034,-1.0,0.0,2.0,-3.0,-8.0,-5.0,-1.0,2.0
1701961903.5910041,-3.0,4.0,2.0,6.0,1.0,-1.0,6.0,-4.0
1701961903.5910041,13.0,-13.0,-6.0,-1.0,-3.0,-3.0,-8.0,-4.0
1701961903.6010337,-14.0,-28.0,-3.0,1.0,-1.0,-3.0,-6.0,-9.0
1701961903.6010337,-26.0,13.0,15.0,8.0,12.0,8.0,5.0,1.0
1701961903.611399,16.0,-7.0,-5.0,-6.0,-4.0,-1.0,12.0,11.0
1701961903.611399,14.0,-7.0,0.0,-8.0,-28.0,-19.0,-23.0,1.0
1701961903.611399,-29.0,25.0,-1.0,-1.0,4.0,-12.0,0.0,-12.0
1701961903.611399,51.0,8.0,-6.0,-12.0,-14.0,8.0,0.0,18.0
1701961903.6410022,-8.0,-20.0,-7.0,14.0,-6.0,-35.0,-14.0,-3.0
1701961903.6410022,-44.0,-5.0,-9.0,-7.0,27.0,32.0,-13.0,-29.0
1701961903.6410022,20.0,-3.0,-4.0,2.0,-5.0,-40.0,-14.0,12.0
1701961903.6410022,22.0,9.0,11.0,40.0,31.0,73.0,33.0,9.0
1701961903.6510339,-2.0,16.0,-1.0,-38.0,-22.0,-19.0,-10.0,8.0
1701961903.6510339,0.0,1.0,-12.0,-1.0,-20.0,14.0,19.0,0.0
1701961903.6613994,-7.0,-1.0,1.0,9.0,5.0,-40.0,-18.0,-10.0
1701961903.6613994,-20.0,-11.0,15.0,-9.0,-51.0,-57.0,-15.0,-16.0
1701961903.6714017,21.0,-1.0,-18.0,-7.0,17.0,37.0,8.0,8.0
1701961903.6714017,-3.0,12.0,29.0,35.0,81.0,15.0,6.0,8.0
1701961903.6813655,-3.0,-4.0,5.0,-18.0,-12.0,17.0,10.0,-2.0
1701961903.6813655,8.0,-6.0,-6.0,53.0,30.0,-23.0,-2.0,6.0
1701961903.6910024,-15.0,-2.0,17.0,2.0,-40.0,-5.0,-11.0,-12.0
1701961903.6910024,-4.0,5.0,-12.0,-33.0,-5.0,-13.0,-4.0,-2.0
1701961903.7010033,12.0,3.0,0.0,-5.0,17.0,21.0,7.0,3.0
1701961903.7010033,-10.0,-9.0,-11.0,-34.0,-14.0,-9.0,-16.0,-11.0
1701961903.711,-13.0,-3.0,-11.0,-2.0,-21.0,-17.0,-11.0,-10.0
1701961903.711,6.0,2.0,3.0,11.0,-20.0,-9.0,8.0,11.0
1701961903.7210805,15.0,-3.0,8.0,2.0,1.0,15.0,3.0,5.0
1701961903.7210805,-13.0,-5.0,-25.0,-22.0,-10.0,-8.0,-5.0,-7.0
1701961903.731182,-5.0,7.0,34.0,29.0,17.0,10.0,4.0,-3.0
1701961903.731182,7.0,-2.0,-26.0,-27.0,-11.0,-5.0,6.0,8.0
1701961903.741303,-3.0,-3.0,-3.0,-6.0,6.0,11.0,1.0,-3.0
1701961903.741303,-5.0,4.0,20.0,10.0,2.0,1.0,-3.0,-3.0
1701961903.7609997,2.0,-3.0,-15.0,2.0,9.0,1.0,2.0,1.0
1701961903.7609997,-3.0,-1.0,-1.0,-9.0,-16.0,-8.0,-5.0,-2.0
1701961903.7609997,-2.0,-6.0,-12.0,13.0,-7.0,1.0,0.0,-2.0
1701961903.7609997,-4.0,0.0,8.0,-12.0,5.0,2.0,-1.0,-3.0
1701961903.7713737,4.0,-2.0,5.0,13.0,11.0,1.0,0.0,0.0
1701961903.7713737,-1.0,0.0,1.0,1.0,-10.0,-7.0,-1.0,-2.0
1701961903.7813923,-2.0,1.0,-5.0,-10.0,-1.0,6.0,0.0,-2.0
1701961903.7813923,-2.0,-5.0,-11.0,2.0,-1.0,-2.0,-2.0,0.0
1701961903.7914033,-2.0,2.0,5.0,-3.0,8.0,4.0,-1.0,0.0
1701961903.7914033,-2.0,2.0,0.0,-3.0,-6.0,-6.0,-2.0,-2.0
1701961903.8013587,2.0,-1.0,17.0,17.0,-4.0,0.0,1.0,0.0
1701961903.8013587,-5.0,-4.0,-36.0,-31.0,-4.0,-3.0,-3.0,-2.0
1701961903.8210034,0.0,0.0,2.0,-1.0,0.0,-4.0,-2.0,-2.0
1701961903.8210034,-1.0,-3.0,1.0,3.0,-2.0,-2.0,1.0,0.0
1701961903.8210034,2.0,-1.0,6.0,4.0,-6.0,0.0,2.0,1.0
1701961903.8210034,-2.0,0.0,4.0,4.0,1.0,1.0,0.0,-1.0
1701961903.831033,-5.0,-2.0,-7.0,-7.0,5.0,1.0,-1.0,-2.0
1701961903.831033,2.0,-4.0,5.0,7.0,-3.0,-4.0,-1.0,1.0
1701961903.8413882,-3.0,2.0,-1.0,-3.0,-1.0,1.0,2.0,-5.0
1701961903.8413882,-3.0,1.0,-1.0,-1.0,-1.0,1.0,1.0,3.0
1701961903.8513997,2.0,2.0,-1.0,-6.0,-1.0,-5.0,-7.0,-3.0
1701961903.8513997,9.0,5.0,4.0,1.0,-4.0,-4.0,0.0,0.0
1701961903.8613098,-5.0,1.0,-9.0,-9.0,-7.0,-2.0,-4.0,3.0
1701961903.8613098,-4.0,-8.0,-2.0,-1.0,5.0,2.0,9.0,1.0
1701961903.871343,22.0,5.0,5.0,5.0,6.0,4.0,0.0,18.0
1701961903.871343,-17.0,-19.0,-5.0,3.0,-3.0,-2.0,2.0,-22.0
1701961903.891,-17.0,7.0,-7.0,-11.0,-9.0,-11.0,-29.0,-20.0
1701961903.891,-13.0,1.0,-1.0,-2.0,-6.0,-4.0,1.0,-10.0
1701961903.9012659,-7.0,-7.0,-4.0,-4.0,-5.0,0.0,12.0,19.0
1701961903.9012659,-1.0,-6.0,0.0,9.0,11.0,6.0,5.0,6.0
1701961903.9012659,0.0,-5.0,-3.0,-2.0,-1.0,3.0,10.0,7.0
1701961903.9012659,8.0,-5.0,8.0,2.0,0.0,3.0,-1.0,-4.0
1701961903.9112782,-1.0,6.0,-7.0,-16.0,-16.0,-5.0,-3.0,-13.0
1701961903.9112782,-3.0,6.0,-3.0,-10.0,1.0,-2.0,-4.0,5.0
1701961903.9310017,0.0,-28.0,-9.0,18.0,10.0,3.0,7.0,-2.0
1701961903.9310017,8.0,13.0,8.0,-9.0,-7.0,-3.0,-6.0,2.0
1701961903.9310017,-8.0,-9.0,-5.0,12.0,8.0,1.0,-1.0,-11.0
1701961903.9310017,8.0,15.0,12.0,-3.0,5.0,3.0,18.0,11.0
1701961903.9409993,1.0,-1.0,-3.0,-7.0,-1.0,4.0,-5.0,5.0
1701961903.9409993,-1.0,-19.0,-10.0,0.0,2.0,0.0,11.0,-2.0
1701961903.961324,-2.0,7.0,5.0,-3.0,-19.0,-23.0,-47.0,-14.0
1701961903.961324,-21.0,-4.0,-5.0,-36.0,-42.0,-12.0,0.0,-6.0
1701961903.961324,6.0,8.0,5.0,29.0,35.0,4.0,5.0,8.0
1701961903.961324,-2.0,4.0,-11.0,42.0,6.0,8.0,7.0,1.0
1701961903.971282,-12.0,1.0,5.0,-11.0,7.0,7.0,20.0,-11.0
1701961903.971282,0.0,-13.0,-10.0,5.0,14.0,-18.0,-28.0,4.0
1701961904.0020037,11.0,0.0,-3.0,-11.0,-5.0,7.0,10.0,2.0
1701961904.0020037,-16.0,6.0,6.0,-19.0,-35.0,-6.0,-9.0,-7.0
1701961904.0020037,-5.0,-9.0,1.0,-20.0,26.0,0.0,-8.0,-7.0
1701961904.0020037,1.0,-5.0,-8.0,36.0,10.0,16.0,7.0,-3.0
1701961904.0020037,-4.0,8.0,13.0,-9.0,5.0,5.0,6.0,28.0
1701961904.0020037,4.0,-9.0,-11.0,-6.0,-2.0,-8.0,-9.0,-10.0
1701961904.0224845,-3.0,-7.0,-5.0,-9.0,-35.0,-13.0,0.0,-9.0
1701961904.0224845,-7.0,8.0,-2.0,-12.0,-10.0,-6.0,1.0,-13.0
1701961904.0231075,8.0,-9.0,-5.0,2.0,3.0,-6.0,-7.0,-25.0
1701961904.0231075,4.0,6.0,1.0,-7.0,-11.0,-3.0,3.0,27.0
1701961904.033134,13.0,6.0,4.0,3.0,9.0,-1.0,3.0,3.0
1701961904.033134,-9.0,5.0,5.0,12.0,-16.0,3.0,-12.0,-88.0
1701961904.0433657,31.0,10.0,-2.0,0.0,23.0,-10.0,-9.0,77.0
1701961904.0433657,-10.0,2.0,6.0,-7.0,10.0,12.0,-3.0,-27.0
1701961904.0533965,-2.0,-1.0,-5.0,2.0,-7.0,13.0,13.0,6.0
1701961904.0533965,8.0,-1.0,7.0,17.0,36.0,3.0,2.0,21.0
1701961904.0533965,-25.0,-12.0,-12.0,-23.0,-65.0,-30.0,-10.0,-29.0
1701961904.0533965,6.0,-1.0,5.0,0.0,7.0,-3.0,-1.0,11.0
1701961904.083115,8.0,8.0,8.0,33.0,51.0,32.0,10.0,17.0
1701961904.083115,3.0,1.0,3.0,5.0,37.0,8.0,5.0,13.0
1701961904.1031127,-12.0,-20.0,-5.0,-8.0,-8.0,3.0,3.0,-15.0
1701961904.1031127,-3.0,1.0,-2.0,-9.0,-30.0,-23.0,-14.0,-4.0
1701961904.1031127,-9.0,-23.0,-4.0,-5.0,-48.0,-13.0,-1.0,-6.0
1701961904.1031127,0.0,7.0,5.0,-3.0,9.0,-1.0,1.0,22.0
1701961904.1031127,6.0,49.0,-1.0,-21.0,-14.0,1.0,-2.0,-6.0
1701961904.1031127,6.0,30.0,5.0,-11.0,-10.0,-4.0,0.0,10.0
1701961904.1131344,-24.0,-60.0,-36.0,20.0,12.0,-1.0,-17.0,-54.0
1701961904.1131344,-19.0,-34.0,-12.0,-21.0,-22.0,-9.0,0.0,7.0
1701961904.1131344,41.0,30.0,12.0,-16.0,7.0,7.0,5.0,6.0
1701961904.1131344,-14.0,-37.0,-14.0,8.0,25.0,4.0,-8.0,20.0
1701961904.143114,19.0,-5.0,3.0,26.0,10.0,-4.0,-9.0,-1.0
1701961904.143114,11.0,25.0,-5.0,-16.0,-33.0,-9.0,-4.0,2.0
1701961904.1631124,-22.0,-16.0,3.0,1.0,1.0,7.0,-6.0,-38.0
1701961904.1631124,44.0,17.0,12.0,-22.0,11.0,3.0,-1.0,32.0
1701961904.1631124,-33.0,7.0,4.0,-22.0,-8.0,-6.0,7.0,-5.0
1701961904.1631124,0.0,-21.0,-6.0,14.0,-10.0,-4.0,-7.0,-4.0
1701961904.1631124,1.0,3.0,-3.0,2.0,-6.0,-1.0,-2.0,-5.0
1701961904.1631124,2.0,-5.0,-9.0,16.0,16.0,-4.0,0.0,5.0
1701961904.173109,-6.0,12.0,18.0,7.0,3.0,7.0,1.0,8.0
1701961904.173109,14.0,20.0,2.0,-10.0,-12.0,1.0,1.0,3.0
1701961904.173109,-14.0,9.0,5.0,8.0,9.0,3.0,5.0,-4.0
1701961904.173109,12.0,-10.0,-22.0,-13.0,-16.0,-12.0,-8.0,-14.0
1701961904.2031174,-12.0,2.0,11.0,1.0,3.0,7.0,10.0,6.0
1701961904.2031174,-3.0,-6.0,4.0,1.0,6.0,2.0,-2.0,-1.0
1701961904.213115,-10.0,-14.0,-12.0,2.0,-1.0,-2.0,2.0,6.0
1701961904.213115,-4.0,-12.0,3.0,4.0,0.0,-2.0,-2.0,-11.0
1701961904.2231088,19.0,15.0,-8.0,-13.0,-5.0,-5.0,-3.0,6.0
1701961904.2231088,16.0,7.0,-11.0,-11.0,-8.0,-6.0,-2.0,10.0
1701961904.2231088,-12.0,-1.0,13.0,11.0,0.0,1.0,-1.0,-6.0
1701961904.2231088,-11.0,3.0,6.0,12.0,0.0,5.0,4.0,-10.0
1701961904.2334852,2.0,10.0,6.0,1.0,5.0,-2.0,1.0,5.0
1701961904.2334852,0.0,-2.0,8.0,-6.0,1.0,-1.0,-1.0,4.0
1701961904.2334852,5.0,-15.0,-8.0,6.0,1.0,-3.0,1.0,-1.0
1701961904.2334852,-20.0,7.0,3.0,20.0,12.0,8.0,1.0,-14.0
1701961904.2531116,5.0,4.0,-7.0,-12.0,-9.0,-5.0,-2.0,4.0
1701961904.2531116,-5.0,-4.0,3.0,2.0,-2.0,-1.0,-2.0,-1.0
1701961904.2631092,-6.0,-3.0,6.0,10.0,-4.0,-1.0,-1.0,-5.0
1701961904.2631092,-5.0,2.0,12.0,0.0,9.0,4.0,3.0,-1.0
1701961904.2735116,3.0,5.0,-16.0,-1.0,-1.0,-3.0,-1.0,1.0
1701961904.2735116,-1.0,8.0,19.0,5.0,1.0,2.0,1.0,1.0
1701961904.2835433,-6.0,-6.0,-32.0,-16.0,-7.0,-5.0,-3.0,-3.0
1701961904.2835433,0.0,7.0,21.0,4.0,1.0,0.0,0.0,-2.0
1701961904.2938943,12.0,-30.0,-64.0,-33.0,-14.0,-13.0,-9.0,-4.0
1701961904.2938943,-3.0,-4.0,14.0,1.0,-1.0,1.0,0.0,-2.0
1701961904.2938943,-5.0,4.0,5.0,5.0,-1.0,1.0,1.0,0.0
1701961904.2938943,0.0,-2.0,22.0,7.0,2.0,-1.0,-1.0,-3.0
1701961904.3135579,-1.0,11.0,22.0,8.0,5.0,1.0,1.0,-1.0
1701961904.3135579,-6.0,-3.0,-7.0,0.0,0.0,-2.0,-1.0,2.0
1701961904.3235548,-8.0,-10.0,14.0,13.0,-1.0,-1.0,0.0,-2.0
1701961904.3235548,-5.0,-4.0,-13.0,-11.0,-1.0,0.0,-3.0,-3.0
1701961904.3337414,-1.0,5.0,-3.0,-4.0,1.0,1.0,1.0,4.0
1701961904.3337414,-13.0,14.0,-3.0,2.0,4.0,2.0,0.0,0.0
1701961904.3437839,2.0,-28.0,-14.0,-2.0,-1.0,3.0,3.0,-1.0
1701961904.3437839,6.0,31.0,7.0,-1.0,-1.0,-2.0,-1.0,-2.0
1701961904.3539364,4.0,31.0,8.0,-4.0,-5.0,0.0,-1.0,1.0
1701961904.3539364,-14.0,-59.0,-16.0,-11.0,-9.0,-8.0,-5.0,-4.0
1701961904.3539364,12.0,-9.0,-13.0,-7.0,-1.0,-1.0,0.0,1.0
1701961904.3539364,-8.0,-19.0,-7.0,-3.0,1.0,4.0,0.0,-1.0
1701961904.3739471,14.0,26.0,13.0,3.0,0.0,4.0,8.0,5.0
1701961904.3739471,1.0,25.0,-9.0,0.0,1.0,-2.0,4.0,4.0
1701961904.3839452,-2.0,26.0,7.0,-1.0,-1.0,-2.0,-14.0,-7.0
1701961904.3839452,-1.0,-26.0,-15.0,-7.0,-11.0,-10.0,-3.0,-11.0
1701961904.3943684,-17.0,-59.0,-10.0,0.0,-2.0,-2.0,-2.0,17.0
1701961904.3943684,29.0,5.0,-3.0,-3.0,-2.0,-1.0,9.0,2.0
1701961904.404348,-29.0,-16.0,-8.0,-12.0,-18.0,-6.0,-19.0,-7.0
1701961904.404348,15.0,45.0,16.0,9.0,11.0,3.0,10.0,-6.0
1701961904.4143524,-12.0,-9.0,12.0,2.0,0.0,-1.0,-2.0,-6.0
1701961904.4143524,13.0,11.0,13.0,12.0,5.0,8.0,9.0,7.0
1701961904.4143524,-10.0,-83.0,-29.0,-44.0,-65.0,-19.0,-1.0,-4.0
1701961904.4143524,-12.0,73.0,27.0,22.0,37.0,-8.0,-16.0,-11.0
1701961904.4343207,15.0,62.0,21.0,26.0,47.0,25.0,15.0,10.0
1701961904.4343207,-8.0,-63.0,-15.0,16.0,37.0,14.0,-4.0,-2.0
1701961904.4441602,16.0,57.0,21.0,8.0,-18.0,0.0,7.0,5.0
1701961904.4441602,-16.0,-49.0,-13.0,-16.0,-16.0,-17.0,-7.0,0.0
1701961904.453948,-6.0,5.0,10.0,-38.0,-54.0,-25.0,-13.0,-12.0
1701961904.453948,-7.0,16.0,-36.0,-42.0,-62.0,-25.0,-12.0,-6.0
1701961904.4639466,-2.0,10.0,15.0,-7.0,1.0,0.0,-19.0,-16.0
1701961904.4639466,6.0,-8.0,14.0,47.0,81.0,34.0,12.0,9.0
1701961904.4939811,-5.0,-32.0,-4.0,59.0,23.0,-6.0,-6.0,-5.0
1701961904.4939811,-7.0,-3.0,-8.0,-37.0,-4.0,8.0,-5.0,-7.0
1701961904.4939811,5.0,16.0,42.0,28.0,23.0,-3.0,7.0,6.0
1701961904.4939811,-5.0,-31.0,-38.0,-42.0,-56.0,-23.0,-7.0,-1.0
1701961904.4939811,5.0,18.0,55.0,7.0,11.0,13.0,1.0,-3.0
1701961904.4939811,-9.0,-3.0,-41.0,-9.0,-33.0,-16.0,-2.0,0.0
1701961904.503952,-1.0,1.0,-16.0,-10.0,10.0,2.0,3.0,2.0
1701961904.503952,-5.0,9.0,17.0,4.0,-6.0,3.0,2.0,0.0
1701961904.5143228,-5.0,-23.0,-18.0,-6.0,-18.0,-7.0,-5.0,-3.0
1701961904.5143228,3.0,6.0,-22.0,-23.0,-5.0,-5.0,-3.0,0.0
1701961904.524981,3.0,7.0,20.0,26.0,42.0,15.0,12.0,5.0
1701961904.524981,8.0,-18.0,-14.0,-4.0,-18.0,-4.0,-4.0,0.0
1701961904.543663,-20.0,-21.0,-47.0,-17.0,-3.0,-1.0,-2.0,-10.0
1701961904.543663,8.0,19.0,-6.0,3.0,17.0,2.0,-2.0,-1.0
1701961904.543663,2.0,-4.0,9.0,17.0,24.0,5.0,3.0,4.0
1701961904.543663,-5.0,23.0,38.0,-19.0,-28.0,-3.0,0.0,0.0
1701961904.5561516,3.0,11.0,-33.0,-9.0,-9.0,-6.0,-2.0,1.0
1701961904.5561516,-18.0,22.0,22.0,18.0,26.0,11.0,2.0,-8.0
1701961904.5561516,16.0,-12.0,-5.0,-8.0,-8.0,-7.0,-3.0,2.0
1701961904.5561516,3.0,-9.0,-24.0,-13.0,-10.0,0.0,-1.0,2.0
1701961904.576302,3.0,22.0,24.0,2.0,5.0,1.0,2.0,2.0
1701961904.576302,9.0,12.0,21.0,27.0,10.0,0.0,-4.0,1.0
1701961904.576302,-12.0,-62.0,-20.0,-16.0,-12.0,-4.0,-1.0,-1.0
1701961904.576302,-12.0,1.0,1.0,2.0,-2.0,2.0,5.0,2.0
1701961904.6061516,14.0,20.0,22.0,2.0,3.0,1.0,-7.0,0.0
1701961904.6061516,-6.0,19.0,27.0,6.0,-3.0,4.0,3.0,3.0
1701961904.6061516,-2.0,4.0,-20.0,-5.0,-3.0,0.0,-1.0,-11.0
1701961904.6061516,2.0,1.0,-12.0,-2.0,2.0,6.0,2.0,6.0
1701961904.6165266,-4.0,-8.0,-5.0,-7.0,-4.0,5.0,6.0,2.0
1701961904.6165266,11.0,-9.0,3.0,3.0,-1.0,-1.0,9.0,25.0
1701961904.6165266,9.0,27.0,7.0,0.0,5.0,3.0,13.0,5.0
1701961904.6165266,-5.0,-17.0,-12.0,1.0,-4.0,-16.0,-29.0,-15.0
1701961904.6363888,2.0,4.0,1.0,-17.0,-23.0,-11.0,-11.0,-1.0
1701961904.6363888,-5.0,-1.0,13.0,6.0,-3.0,-6.0,-7.0,-9.0
1701961904.6363888,-3.0,-42.0,-24.0,5.0,30.0,12.0,22.0,7.0
1701961904.6363888,-4.0,43.0,-1.0,-4.0,-1.0,-14.0,-29.0,-15.0
1701961904.656156,0.0,-5.0,4.0,-14.0,-60.0,-11.0,-6.0,-2.0
1701961904.656156,1.0,-27.0,11.0,-23.0,22.0,9.0,7.0,4.0
1701961904.6661525,-1.0,19.0,-10.0,39.0,84.0,30.0,4.0,1.0
1701961904.6661525,-5.0,-25.0,-11.0,15.0,-35.0,-4.0,12.0,-5.0
1701961904.6764352,-6.0,-9.0,-7.0,26.0,45.0,15.0,0.0,-4.0
1701961904.6764352,-1.0,4.0,8.0,-77.0,-37.0,-26.0,-8.0,-5.0
1701961904.6764352,-4.0,17.0,-18.0,1.0,-79.0,23.0,13.0,1.0
1701961904.6764352,7.0,-8.0,14.0,-10.0,77.0,-4.0,8.0,11.0
1701961904.6961575,-8.0,-12.0,16.0,42.0,-3.0,23.0,5.0,-5.0
1701961904.6961575,1.0,-3.0,-20.0,5.0,15.0,-16.0,-8.0,-2.0
1701961904.7161572,-10.0,-12.0,-14.0,-18.0,-9.0,-22.0,-17.0,-8.0
1701961904.7161572,-2.0,-10.0,-28.0,-79.0,-100.0,-9.0,-1.0,1.0
1701961904.7161572,4.0,-4.0,15.0,14.0,42.0,-2.0,5.0,6.0
1701961904.7161572,4.0,7.0,-12.0,27.0,28.0,16.0,4.0,-2.0
1701961904.7261786,6.0,31.0,22.0,8.0,-4.0,-6.0,-6.0,2.0
1701961904.7261786,-8.0,-9.0,38.0,41.0,4.0,1.0,-2.0,-6.0
1701961904.7364576,-5.0,-32.0,-85.0,-90.0,-32.0,-21.0,-4.0,-5.0
1701961904.7364576,-4.0,0.0,20.0,36.0,-9.0,5.0,-3.0,-6.0
1701961904.7364576,-1.0,8.0,-14.0,-37.0,-10.0,-18.0,-11.0,-3.0
1701961904.7364576,-6.0,-22.0,-4.0,44.0,18.0,10.0,10.0,4.0
1701961904.7561579,-3.0,10.0,29.0,-6.0,-8.0,2.0,0.0,2.0
1701961904.7561579,-5.0,4.0,8.0,62.0,27.0,4.0,-3.0,-5.0
1701961904.7761538,0.0,-7.0,-21.0,-46.0,-12.0,-9.0,-4.0,0.0
1701961904.7761538,5.0,11.0,18.0,28.0,18.0,12.0,11.0,6.0
1701961904.7761538,0.0,-23.0,-25.0,-17.0,-1.0,-13.0,-9.0,-1.0
1701961904.7761538,-6.0,19.0,9.0,1.0,-14.0,3.0,3.0,4.0
1701961904.7861514,-8.0,-4.0,30.0,3.0,-8.0,-5.0,-3.0,0.0
1701961904.7861514,7.0,41.0,13.0,7.0,15.0,9.0,7.0,6.0
1701961904.79644,2.0,-23.0,-22.0,5.0,4.0,-7.0,0.0,3.0
1701961904.79644,-8.0,7.0,-4.0,-14.0,-12.0,1.0,-3.0,-8.0
1701961904.79644,1.0,27.0,36.0,18.0,-2.0,-4.0,-4.0,0.0
1701961904.79644,1.0,-12.0,-36.0,-16.0,-3.0,-2.0,-4.0,-2.0
1701961904.8361542,4.0,10.0,-1.0,2.0,-3.0,-2.0,0.0,-3.0
1701961904.8361542,7.0,-25.0,-16.0,-9.0,-11.0,-1.0,-2.0,-1.0
1701961904.8361542,-7.0,-17.0,-13.0,11.0,9.0,2.0,1.0,-2.0
1701961904.8361542,2.0,18.0,-19.0,-19.0,-2.0,8.0,5.0,2.0
1701961904.8361542,1.0,7.0,0.0,1.0,1.0,2.0,0.0,-10.0
1701961904.8361542,-1.0,59.0,12.0,5.0,2.0,3.0,6.0,-5.0
1701961904.8361542,1.0,-17.0,26.0,10.0,2.0,-3.0,7.0,40.0
1701961904.846154,1.0,-36.0,-28.0,-16.0,-8.0,-3.0,2.0,-8.0
1701961904.8563876,1.0,27.0,10.0,5.0,1.0,0.0,2.0,8.0
1701961904.8563876,0.0,-6.0,16.0,3.0,1.0,-2.0,-4.0,-21.0
1701961904.876154,3.0,-1.0,-14.0,-5.0,-8.0,-16.0,-23.0,11.0
1701961904.876154,0.0,-1.0,1.0,-4.0,-2.0,3.0,3.0,3.0
1701961904.876154,0.0,-1.0,12.0,3.0,4.0,5.0,6.0,8.0
1701961904.876154,-12.0,7.0,2.0,0.0,-5.0,0.0,3.0,-5.0
1701961904.8861518,10.0,30.0,3.0,-4.0,-5.0,-4.0,1.0,-10.0
1701961904.8861518,-11.0,-39.0,-19.0,-11.0,-10.0,-8.0,-8.0,-6.0
1701961904.8964312,-7.0,-2.0,0.0,-7.0,-28.0,-15.0,-10.0,-8.0
1701961904.8964312,-2.0,-26.0,-16.0,-9.0,13.0,-1.0,-2.0,5.0
1701961904.906235,-5.0,4.0,4.0,19.0,37.0,18.0,5.0,-18.0
1701961904.906235,11.0,11.0,15.0,5.0,21.0,-1.0,-2.0,13.0
1701961904.9164572,-7.0,-20.0,-13.0,-14.0,-28.0,-3.0,1.0,-2.0
1701961904.9164572,10.0,-11.0,0.0,6.0,-51.0,-19.0,-15.0,6.0
1701961904.9164572,-12.0,7.0,0.0,-45.0,-1.0,-29.0,-19.0,-21.0
1701961904.9164572,-3.0,-14.0,17.0,91.0,109.0,61.0,25.0,3.0
1701961904.9561584,4.0,-1.0,7.0,-2.0,-4.0,-1.0,7.0,5.0
1701961904.9561584,-6.0,-18.0,4.0,-29.0,-68.0,-21.0,-17.0,-8.0
1701961904.9561584,3.0,0.0,-27.0,25.0,-8.0,-24.0,-2.0,-3.0
1701961904.9561584,1.0,-1.0,-2.0,-9.0,71.0,24.0,3.0,3.0
1701961904.9561584,5.0,9.0,28.0,45.0,27.0,7.0,-6.0,-1.0
1701961904.9561584,-3.0,-15.0,-31.0,-27.0,-3.0,0.0,8.0,6.0
1701961904.9661665,4.0,2.0,57.0,16.0,-23.0,8.0,3.0,-1.0
1701961904.9661665,-12.0,-8.0,-91.0,-115.0,-89.0,-29.0,-18.0,-12.0
1701961904.9765532,1.0,9.0,58.0,59.0,27.0,5.0,4.0,2.0
1701961904.9765532,-2.0,-6.0,1.0,17.0,36.0,14.0,3.0,0.0
1701961904.9861546,-2.0,-6.0,-29.0,-5.0,-18.0,0.0,0.0,-2.0
1701961904.9861546,-4.0,-6.0,22.0,4.0,-36.0,-20.0,-8.0,-3.0
1701961904.996188,-4.0,1.0,-50.0,-74.0,-23.0,-10.0,-6.0,-6.0
1701961904.996188,-1.0,-8.0,22.0,45.0,17.0,5.0,-2.0,0.0
1701961905.0061598,1.0,-3.0,0.0,9.0,34.0,17.0,3.0,0.0
1701961905.0061598,-3.0,2.0,1.0,8.0,-22.0,-13.0,-5.0,-6.0
1701961905.0165107,-16.0,2.0,18.0,9.0,5.0,2.0,4.0,-2.0
1701961905.0165107,-3.0,-17.0,-30.0,-4.0,18.0,5.0,0.0,0.0
1701961905.0263665,5.0,44.0,17.0,4.0,7.0,8.0,4.0,5.0
1701961905.0263665,-4.0,9.0,26.0,-15.0,-30.0,-11.0,-1.0,2.0
1701961905.0365663,20.0,-20.0,-9.0,-3.0,4.0,-1.0,-4.0,4.0
1701961905.0365663,-3.0,14.0,19.0,37.0,25.0,5.0,3.0,3.0
1701961905.0461533,10.0,-24.0,-21.0,-28.0,-33.0,-9.0,-1.0,0.0
1701961905.0461533,-5.0,19.0,8.0,-2.0,-3.0,0.0,2.0,2.0
1701961905.064717,-9.0,1.0,-59.0,-21.0,0.0,0.0,-2.0,-7.0
1701961905.0653908,3.0,-16.0,3.0,-2.0,-8.0,-4.0,-2.0,-2.0
1701961905.0665832,13.0,3.0,-3.0,-4.0,0.0,3.0,2.0,1.0
1701961905.0665832,13.0,-15.0,7.0,15.0,-11.0,-1.0,-1.0,1.0
1701961905.0788643,2.0,9.0,10.0,-5.0,4.0,3.0,0.0,-1.0
1701961905.0788643,-1.0,-4.0,-16.0,-29.0,-8.0,-6.0,-2.0,-2.0
1701961905.0872462,-26.0,17.0,19.0,20.0,6.0,7.0,1.0,-6.0
1701961905.0882802,2.0,0.0,11.0,1.0,0.0,-2.0,-2.0,-3.0
1701961905.0988185,-3.0,15.0,4.0,1.0,2.0,2.0,-1.0,-1.0
1701961905.0988185,-13.0,4.0,1.0,-6.0,-1.0,-1.0,-1.0,-5.0
1701961905.0988185,1.0,-22.0,-9.0,3.0,0.0,-2.0,-2.0,0.0
1701961905.0988185,5.0,13.0,-10.0,-3.0,-8.0,-8.0,-4.0,-7.0
1701961905.118821,3.0,30.0,12.0,-2.0,-6.0,-5.0,-1.0,1.0
1701961905.118821,-15.0,24.0,19.0,16.0,16.0,11.0,6.0,0.0
1701961905.118821,-5.0,2.0,-2.0,-4.0,0.0,1.0,2.0,-1.0
1701961905.118821,2.0,-34.0,-23.0,-7.0,-9.0,-5.0,1.0,3.0
1701961905.1388564,4.0,10.0,15.0,3.0,2.0,4.0,-3.0,-5.0
1701961905.1388564,-8.0,-70.0,-15.0,-11.0,3.0,5.0,8.0,-8.0
1701961905.1388564,-10.0,24.0,10.0,-4.0,-11.0,-21.0,-33.0,-43.0
1701961905.1388564,5.0,16.0,9.0,0.0,-5.0,0.0,15.0,25.0
1701961905.1588883,-16.0,-51.0,-11.0,0.0,5.0,0.0,-18.0,7.0
1701961905.1588883,0.0,-23.0,-32.0,-13.0,-7.0,-1.0,0.0,-5.0
1701961905.1588883,2.0,-7.0,-9.0,-5.0,-4.0,5.0,6.0,10.0
1701961905.1588883,0.0,-1.0,2.0,-2.0,-23.0,-12.0,1.0,-8.0
1701961905.1792693,-9.0,4.0,-1.0,-8.0,-5.0,-1.0,10.0,-8.0
1701961905.1792693,16.0,15.0,4.0,-5.0,4.0,-9.0,-28.0,13.0
1701961905.1792693,4.0,-24.0,-9.0,11.0,9.0,14.0,16.0,6.0
1701961905.1792693,-4.0,28.0,2.0,2.0,6.0,8.0,8.0,-3.0
1701961905.1988964,-5.0,-10.0,-3.0,-8.0,-46.0,-21.0,-2.0,2.0
1701961905.1988964,7.0,52.0,21.0,9.0,47.0,4.0,-11.0,-3.0
1701961905.1988964,-11.0,-45.0,-15.0,10.0,35.0,19.0,12.0,7.0
1701961905.1988964,2.0,-1.0,3.0,12.0,-1.0,-11.0,-12.0,-1.0
1701961905.2188547,-4.0,-16.0,2.0,-8.0,-15.0,5.0,9.0,-10.0
1701961905.2188547,0.0,2.0,-14.0,-53.0,-45.0,-22.0,-2.0,-5.0
1701961905.2188547,-3.0,-1.0,13.0,44.0,-5.0,-1.0,-10.0,-2.0
1701961905.2188547,1.0,-11.0,-8.0,-11.0,18.0,8.0,2.0,-2.0
1701961905.239271,-3.0,24.0,4.0,3.0,-15.0,-3.0,-4.0,-3.0
1701961905.239271,4.0,-12.0,-1.0,17.0,43.0,-2.0,-5.0,-4.0
1701961905.239271,3.0,4.0,-11.0,-21.0,2.0,-3.0,-2.0,7.0
1701961905.239271,-11.0,-17.0,4.0,2.0,-52.0,-20.0,-10.0,-9.0
1701961905.2589164,1.0,-6.0,7.0,-16.0,-5.0,-7.0,-6.0,-5.0
1701961905.2589164,0.0,-7.0,-29.0,-2.0,10.0,-2.0,0.0,4.0
1701961905.2589164,1.0,9.0,-9.0,-13.0,-39.0,-11.0,1.0,-3.0
1701961905.2589164,-7.0,1.0,3.0,13.0,22.0,-4.0,-7.0,-8.0
1701961905.2788875,1.0,-9.0,0.0,4.0,28.0,0.0,-5.0,1.0
1701961905.2788875,3.0,15.0,15.0,3.0,-21.0,2.0,7.0,2.0
1701961905.2788875,-4.0,-1.0,6.0,-8.0,-4.0,-10.0,-1.0,-1.0
1701961905.2788875,-2.0,-3.0,-5.0,-17.0,-13.0,-2.0,-6.0,-3.0
1701961905.298864,3.0,-5.0,-2.0,7.0,11.0,4.0,2.0,4.0
1701961905.298864,-3.0,-3.0,21.0,18.0,0.0,8.0,6.0,0.0
1701961905.298864,5.0,10.0,14.0,-5.0,-15.0,-1.0,1.0,0.0
1701961905.298864,-9.0,-15.0,-76.0,-33.0,12.0,8.0,-5.0,-5.0
1701961905.3188562,1.0,11.0,8.0,16.0,37.0,6.0,2.0,-4.0
1701961905.3188562,0.0,0.0,15.0,24.0,-12.0,1.0,2.0,0.0
1701961905.3188562,0.0,2.0,21.0,-20.0,-16.0,-12.0,-5.0,-1.0
1701961905.3188562,4.0,9.0,-1.0,-7.0,-9.0,-3.0,-2.0,-1.0
1701961905.339171,1.0,-8.0,-17.0,12.0,19.0,3.0,3.0,2.0
1701961905.339171,1.0,0.0,3.0,12.0,-4.0,-2.0,2.0,2.0
1701961905.339171,-1.0,-4.0,-34.0,-25.0,-5.0,2.0,0.0,1.0
1701961905.339171,-7.0,-4.0,20.0,9.0,7.0,2.0,1.0,-4.0
1701961905.3591638,5.0,14.0,0.0,5.0,-3.0,1.0,1.0,0.0
1701961905.3591638,0.0,-3.0,20.0,-6.0,-10.0,6.0,2.0,-1.0
1701961905.3591638,-5.0,-10.0,-43.0,-2.0,7.0,3.0,0.0,-4.0
1701961905.3591638,1.0,7.0,29.0,9.0,10.0,1.0,-2.0,-1.0
1701961905.3988543,-2.0,-7.0,-67.0,-36.0,-18.0,-7.0,-5.0,-3.0
1701961905.3988543,3.0,-6.0,-8.0,-13.0,-12.0,-3.0,3.0,0.0
1701961905.3988543,-1.0,3.0,12.0,5.0,10.0,1.0,-7.0,-1.0
1701961905.3988543,0.0,-8.0,24.0,24.0,0.0,-7.0,-11.0,-8.0
1701961905.3988543,3.0,4.0,19.0,6.0,2.0,2.0,2.0,3.0
1701961905.3988543,-5.0,-4.0,-3.0,-7.0,-5.0,-3.0,-4.0,-6.0
1701961905.3988543,-4.0,0.0,-9.0,1.0,0.0,-2.0,8.0,8.0
1701961905.3988543,7.0,10.0,8.0,-4.0,1.0,5.0,-8.0,-8.0
1701961905.4192724,-4.0,-6.0,26.0,34.0,6.0,4.0,1.0,-9.0
1701961905.4192724,-11.0,-9.0,-44.0,-31.0,-4.0,-5.0,-10.0,-13.0
1701961905.4192724,10.0,6.0,21.0,-10.0,-4.0,-3.0,1.0,-2.0
1701961905.4192724,-6.0,-1.0,11.0,28.0,8.0,0.0,-4.0,4.0
1701961905.4388578,-1.0,-7.0,-10.0,-9.0,-9.0,-4.0,-1.0,7.0
1701961905.4388578,-1.0,9.0,11.0,-5.0,2.0,8.0,12.0,-2.0
1701961905.4388578,-2.0,-13.0,-6.0,10.0,3.0,3.0,18.0,-2.0
1701961905.4388578,-1.0,-3.0,-6.0,-13.0,-8.0,-16.0,-41.0,1.0
1701961905.4592674,-4.0,4.0,16.0,29.0,8.0,1.0,-4.0,-12.0
1701961905.4592674,-6.0,-21.0,-15.0,-7.0,3.0,2.0,0.0,-10.0
1701961905.4592674,0.0,23.0,5.0,1.0,-9.0,1.0,10.0,32.0
1701961905.4592674,7.0,1.0,-14.0,-12.0,8.0,8.0,13.0,-5.0
1701961905.479268,-5.0,-1.0,12.0,2.0,8.0,8.0,7.0,12.0
1701961905.479268,-3.0,-4.0,7.0,4.0,-39.0,-12.0,-8.0,-5.0
1701961905.479268,-8.0,-14.0,-19.0,-12.0,3.0,-9.0,-7.0,-9.0
1701961905.479268,-4.0,6.0,19.0,3.0,15.0,17.0,16.0,-1.0
1701961905.4988575,17.0,6.0,10.0,10.0,17.0,5.0,-5.0,-1.0
1701961905.4988575,-5.0,14.0,21.0,7.0,0.0,11.0,13.0,16.0
1701961905.4988575,-1.0,-6.0,15.0,16.0,39.0,6.0,-6.0,-11.0
1701961905.4988575,2.0,-1.0,-19.0,-13.0,-9.0,-14.0,6.0,7.0
1701961905.5191593,-19.0,-7.0,3.0,-11.0,-33.0,-12.0,-4.0,-8.0
1701961905.5191593,7.0,3.0,10.0,-5.0,-21.0,2.0,-1.0,1.0
1701961905.5191593,-2.0,-6.0,39.0,6.0,-6.0,-16.0,-10.0,-6.0
1701961905.5191593,-8.0,-7.0,-95.0,-39.0,22.0,10.0,6.0,-1.0
1701961905.5488544,6.0,8.0,51.0,35.0,35.0,28.0,9.0,5.0
1701961905.5488544,7.0,1.0,-14.0,3.0,10.0,-7.0,-1.0,4.0
1701961905.5488544,-6.0,-1.0,-7.0,-11.0,-30.0,-8.0,-11.0,-8.0
1701961905.5488544,-7.0,-4.0,56.0,21.0,-38.0,-30.0,-4.0,-5.0
1701961905.5588593,1.0,-9.0,-59.0,-55.0,-35.0,-20.0,-8.0,-3.0
1701961905.5588593,-1.0,2.0,38.0,31.0,7.0,4.0,-2.0,2.0
1701961905.5588593,8.0,11.0,-31.0,23.0,75.0,32.0,12.0,4.0
1701961905.5588593,0.0,-2.0,37.0,15.0,-6.0,7.0,3.0,-4.0
1701961905.5789254,1.0,5.0,22.0,19.0,3.0,-7.0,-4.0,0.0
1701961905.5789254,-1.0,-1.0,-19.0,-9.0,0.0,-5.0,-3.0,-1.0
1701961905.589509,-5.0,-14.0,-47.0,-19.0,-22.0,-15.0,-11.0,-8.0
1701961905.589509,1.0,-1.0,-11.0,1.0,-38.0,-6.0,4.0,2.0
1701961905.618034,-4.0,-5.0,-26.0,-31.0,34.0,16.0,4.0,-2.0
1701961905.6190343,1.0,5.0,10.0,30.0,45.0,9.0,4.0,2.0
1701961905.6215122,-3.0,-7.0,-12.0,-33.0,-61.0,-19.0,-12.0,-9.0
1701961905.6215122,0.0,5.0,19.0,6.0,11.0,15.0,6.0,3.0
1701961905.6215122,-2.0,-6.0,3.0,8.0,21.0,5.0,0.0,3.0
1701961905.6215122,0.0,0.0,-17.0,-7.0,-12.0,-10.0,-1.0,-2.0
1701961905.6215122,-1.0,-1.0,3.0,6.0,5.0,2.0,-4.0,-3.0
1701961905.6215122,-1.0,3.0,29.0,10.0,1.0,5.0,0.0,0.0
1701961905.641928,0.0,-3.0,-17.0,-1.0,-14.0,-7.0,0.0,0.0
1701961905.641928,6.0,4.0,-11.0,-6.0,18.0,1.0,-3.0,2.0
1701961905.641928,-11.0,-4.0,5.0,-11.0,-31.0,-12.0,1.0,-5.0
1701961905.641928,-8.0,-5.0,-11.0,-13.0,-6.0,-3.0,-4.0,0.0
1701961905.6619203,5.0,-5.0,-7.0,-11.0,-17.0,-12.0,-7.0,-9.0
1701961905.6619203,-13.0,-2.0,-3.0,-9.0,-14.0,-7.0,-2.0,0.0
1701961905.6619203,-2.0,1.0,16.0,13.0,29.0,17.0,0.0,2.0
1701961905.6619203,-4.0,4.0,-6.0,7.0,-3.0,9.0,24.0,-6.0
1701961905.6720817,24.0,7.0,2.0,-1.0,19.0,-4.0,3.0,37.0
1701961905.6720817,-22.0,-21.0,-4.0,-4.0,7.0,-11.0,-41.0,-41.0
1701961905.6821616,-18.0,1.0,1.0,-1.0,-29.0,0.0,7.0,-2.0
1701961905.6821616,-18.0,-9.0,-13.0,-11.0,-1.0,-8.0,-7.0,-10.0
1701961905.6921787,29.0,9.0,10.0,8.0,-4.0,22.0,61.0,16.0
1701961905.701926,4.0,32.0,4.0,11.0,28.0,11.0,-9.0,9.0
1701961905.7219224,30.0,-14.0,8.0,8.0,11.0,-3.0,-21.0,2.0
1701961905.7219224,-22.0,-26.0,-18.0,-20.0,-24.0,-24.0,-38.0,-1.0
1701961905.7319229,-29.0,-17.0,-12.0,-12.0,-24.0,-12.0,-8.0,-16.0
1701961905.7319229,7.0,-9.0,-6.0,0.0,23.0,8.0,26.0,5.0
1701961905.7319229,24.0,22.0,8.0,-13.0,-54.0,-7.0,10.0,1.0
1701961905.7319229,0.0,10.0,5.0,0.0,26.0,-6.0,2.0,4.0
1701961905.7319229,-4.0,-2.0,2.0,-2.0,-39.0,5.0,-11.0,-4.0
1701961905.7319229,17.0,1.0,-1.0,11.0,50.0,18.0,6.0,1.0
1701961905.742155,-19.0,-1.0,7.0,21.0,48.0,10.0,7.0,0.0
1701961905.742155,14.0,-4.0,-5.0,-7.0,-24.0,-13.0,2.0,-5.0
1701961905.7619238,-9.0,1.0,-9.0,-13.0,-10.0,-12.0,-12.0,-8.0
1701961905.7619238,-10.0,-12.0,-9.0,-31.0,-83.0,-21.0,-7.0,-2.0
1701961905.7819192,-2.0,0.0,3.0,5.0,6.0,5.0,-4.0,-1.0
1701961905.7819192,8.0,4.0,2.0,27.0,80.0,25.0,2.0,8.0
1701961905.7819192,-3.0,2.0,4.0,14.0,30.0,2.0,-15.0,-14.0
1701961905.7819192,-5.0,-1.0,-1.0,-5.0,-53.0,-2.0,11.0,4.0
1701961905.7819192,-4.0,-12.0,-7.0,-15.0,-28.0,-19.0,-3.0,-4.0
1701961905.7819192,12.0,2.0,-13.0,-25.0,11.0,-7.0,-5.0,1.0
1701961905.8023286,-4.0,-3.0,3.0,-2.0,-32.0,-9.0,-2.0,-1.0
1701961905.8023286,5.0,2.0,-4.0,25.0,51.0,6.0,4.0,5.0
1701961905.8023286,-5.0,0.0,4.0,7.0,18.0,12.0,-4.0,-6.0
1701961905.8023286,-7.0,-3.0,-3.0,6.0,-67.0,-16.0,-4.0,-10.0
1701961905.8219213,-5.0,-3.0,8.0,-4.0,42.0,-5.0,-12.0,-6.0
1701961905.8219213,1.0,0.0,-4.0,-9.0,-34.0,-6.0,5.0,4.0
1701961905.83192,6.0,5.0,2.0,30.0,61.0,26.0,8.0,4.0
1701961905.83192,2.0,3.0,-4.0,-6.0,5.0,5.0,7.0,3.0
1701961905.8422027,-8.0,-8.0,-16.0,-28.0,-78.0,-27.0,-12.0,-4.0
1701961905.8422027,-4.0,-8.0,-2.0,2.0,43.0,-9.0,-11.0,-6.0
1701961905.8422027,-5.0,2.0,3.0,-14.0,-4.0,-6.0,1.0,1.0
1701961905.8422027,6.0,2.0,4.0,-23.0,-69.0,-2.0,2.0,2.0
1701961905.8621416,-1.0,2.0,3.0,36.0,86.0,21.0,4.0,0.0
1701961905.8621416,-6.0,-7.0,-8.0,-16.0,-74.0,-21.0,-8.0,-5.0
1701961905.8621416,-1.0,-1.0,-6.0,-25.0,-19.0,-20.0,-8.0,-2.0
1701961905.8621416,8.0,8.0,15.0,35.0,95.0,53.0,19.0,10.0
1701961905.8819253,1.0,2.0,-4.0,11.0,16.0,12.0,6.0,1.0
1701961905.8819253,-1.0,4.0,2.0,-6.0,13.0,-7.0,1.0,1.0
1701961905.9019208,-3.0,0.0,13.0,18.0,-38.0,-6.0,-5.0,-3.0
1701961905.9019208,-8.0,-8.0,1.0,1.0,9.0,-19.0,-10.0,-9.0
1701961905.9019208,3.0,9.0,0.0,-27.0,-11.0,10.0,8.0,7.0
1701961905.9019208,-4.0,-18.0,-41.0,-6.0,-22.0,-11.0,-3.0,-2.0
1701961905.9019208,2.0,5.0,-9.0,-35.0,-25.0,-1.0,-5.0,-1.0
1701961905.9019208,-8.0,-14.0,-17.0,10.0,34.0,7.0,-4.0,-7.0
1701961905.9222364,0.0,3.0,27.0,13.0,-6.0,-5.0,-7.0,-5.0
1701961905.9222364,5.0,5.0,28.0,40.0,25.0,16.0,8.0,5.0
1701961905.9419212,-5.0,-11.0,-45.0,-64.0,-43.0,-19.0,-6.0,-3.0
1701961905.9419212,1.0,7.0,22.0,14.0,-2.0,-5.0,0.0,4.0
1701961905.9419212,-3.0,-9.0,-37.0,-12.0,-2.0,-5.0,-3.0,-1.0
1701961905.9419212,-1.0,7.0,28.0,-7.0,-26.0,-7.0,-7.0,-3.0
1701961905.9419212,-1.0,2.0,20.0,36.0,43.0,14.0,1.0,-2.0
1701961905.9419212,4.0,3.0,7.0,6.0,-6.0,-1.0,3.0,1.0
1701961905.9622266,-4.0,-5.0,-9.0,-49.0,-29.0,-13.0,-9.0,-4.0
1701961905.9622266,-1.0,-1.0,-6.0,-7.0,11.0,8.0,4.0,4.0
1701961905.9622266,3.0,4.0,18.0,18.0,25.0,11.0,8.0,4.0
1701961905.9622266,2.0,2.0,4.0,13.0,-1.0,2.0,-1.0,-1.0
1701961905.9821873,-2.0,-3.0,2.0,12.0,-14.0,-9.0,-4.0,-2.0
1701961905.9821873,-1.0,-5.0,-24.0,-11.0,11.0,5.0,2.0,-1.0
1701961906.0019207,-2.0,-2.0,4.0,13.0,5.0,2.0,0.0,-2.0
1701961906.0019207,4.0,2.0,26.0,-14.0,-24.0,-9.0,-4.0,1.0
1701961906.0019207,-1.0,3.0,15.0,20.0,11.0,2.0,-1.0,-1.0
1701961906.0019207,0.0,3.0,20.0,-8.0,6.0,5.0,0.0,1.0
1701961906.0019207,-2.0,-3.0,5.0,-2.0,-6.0,-4.0,-2.0,-1.0
1701961906.0019207,-2.0,-10.0,-66.0,-15.0,-3.0,0.0,1.0,-2.0
1701961906.0222495,-3.0,-1.0,3.0,-5.0,-2.0,0.0,-3.0,-3.0
1701961906.0222495,-1.0,-3.0,17.0,5.0,-5.0,-5.0,-3.0,-1.0
1701961906.0222495,-1.0,1.0,4.0,13.0,2.0,0.0,-1.0,-2.0
1701961906.0222495,-3.0,1.0,6.0,-7.0,1.0,-1.0,-2.0,-1.0
1701961906.0422637,-1.0,-3.0,-5.0,-1.0,-2.0,-5.0,-2.0,-2.0
1701961906.0422637,2.0,2.0,-11.0,-5.0,-7.0,-3.0,-1.0,-1.0
1701961906.0519211,-6.0,-3.0,-7.0,2.0,11.0,1.0,0.0,-2.0
1701961906.0519211,-2.0,0.0,-5.0,-8.0,-1.0,0.0,1.0,-2.0
1701961906.0519211,-2.0,0.0,-3.0,5.0,-7.0,-4.0,-3.0,-4.0
1701961906.0519211,-2.0,-2.0,0.0,-2.0,2.0,3.0,-2.0,0.0
1701961906.0619466,2.0,1.0,-4.0,-3.0,2.0,0.0,2.0,2.0
1701961906.0619466,-5.0,-2.0,7.0,4.0,-4.0,-4.0,-3.0,-6.0
1701961906.0823386,-13.0,-1.0,-1.0,3.0,-3.0,0.0,-2.0,-9.0
1701961906.0823386,9.0,1.0,-4.0,-10.0,1.0,1.0,0.0,3.0
1701961906.0823386,-9.0,-2.0,-6.0,0.0,7.0,2.0,-3.0,-8.0
1701961906.0823386,1.0,5.0,4.0,0.0,-6.0,2.0,5.0,14.0
1701961906.1019206,33.0,5.0,-7.0,-6.0,-7.0,2.0,17.0,19.0
1701961906.1019206,-62.0,-23.0,-15.0,-16.0,-14.0,-19.0,-37.0,-39.0
1701961906.1019206,-29.0,-14.0,-2.0,6.0,-7.0,-2.0,0.0,2.0
1701961906.1019206,46.0,38.0,15.0,11.0,42.0,22.0,19.0,20.0
1701961906.1215963,2.0,-13.0,1.0,-5.0,-12.0,-8.0,2.0,8.0
1701961906.1215963,15.0,-57.0,-34.0,-4.0,-28.0,-2.0,10.0,26.0
1701961906.129562,10.0,2.0,-4.0,-8.0,13.0,-18.0,-13.0,-15.0
1701961906.129562,-44.0,-7.0,2.0,-11.0,-45.0,-21.0,-20.0,-23.0
1701961906.1381433,12.0,29.0,22.0,1.0,47.0,36.0,13.0,6.0
1701961906.1381433,47.0,26.0,10.0,48.0,74.0,19.0,6.0,7.0
