1701961586.8807886,6.0,13.0,24.0,6.0,7.0,-5.0,2.0,3.0
1701961586.8807886,-1.0,-7.0,-29.0,-10.0,-8.0,-4.0,-3.0,-2.0
1701961586.8807886,-4.0,-3.0,3.0,6.0,-4.0,-11.0,-4.0,-3.0
1701961586.8807886,-2.0,-1.0,2.0,-2.0,-4.0,-1.0,-1.0,-1.0
1701961586.9005778,-1.0,-8.0,-6.0,-4.0,1.0,8.0,2.0,-1.0
1701961586.9005778,0.0,1.0,10.0,8.0,0.0,-5.0,-2.0,0.0
1701961586.9005778,0.0,7.0,-8.0,1.0,5.0,3.0,-1.0,0.0
1701961586.9005778,-3.0,-6.0,-13.0,-13.0,-9.0,-9.0,-2.0,-1.0
1701961586.920617,1.0,4.0,10.0,2.0,2.0,7.0,2.0,-1.0
1701961586.920617,1.0,-1.0,-3.0,2.0,3.0,1.0,1.0,1.0
1701961586.920617,1.0,2.0,1.0,2.0,0.0,-13.0,-5.0,-2.0
1701961586.920617,-1.0,-3.0,2.0,-2.0,-3.0,1.0,-3.0,1.0
1701961586.940792,-3.0,-2.0,-6.0,0.0,-4.0,6.0,1.0,-2.0
1701961586.940792,-4.0,-5.0,7.0,-6.0,-5.0,-5.0,-6.0,-5.0
1701961586.940792,-3.0,-8.0,-15.0,-13.0,4.0,-3.0,0.0,-2.0
1701961586.940792,0.0,6.0,0.0,11.0,-3.0,-6.0,-2.0,-1.0
1701961586.9605854,-3.0,-6.0,-19.0,-3.0,5.0,4.0,1.0,-1.0
1701961586.9605854,-2.0,-7.0,-1.0,-7.0,-4.0,3.0,2.0,-1.0
1701961586.9605854,2.0,17.0,11.0,2.0,-4.0,-9.0,-3.0,-1.0
1701961586.9605854,-5.0,-13.0,-11.0,-8.0,-7.0,-5.0,-4.0,-6.0
1701961586.9809384,-2.0,-2.0,-8.0,0.0,3.0,8.0,3.0,2.0
1701961586.9809384,2.0,6.0,5.0,2.0,-1.0,-8.0,-2.0,2.0
1701961586.9809384,0.0,-2.0,4.0,5.0,0.0,-1.0,-2.0,1.0
1701961586.9809384,1.0,-5.0,-3.0,-5.0,-3.0,-2.0,-1.0,0.0
1701961587.000969,-3.0,0.0,-5.0,-6.0,-8.0,-10.0,-1.0,-3.0
1701961587.000969,-2.0,-5.0,-5.0,-1.0,4.0,19.0,10.0,2.0
1701961587.000969,-2.0,1.0,3.0,0.0,-2.0,-3.0,-6.0,-3.0
1701961587.000969,-1.0,2.0,1.0,1.0,1.0,-7.0,-1.0,1.0
1701961587.0205786,-3.0,-5.0,1.0,-3.0,2.0,13.0,-2.0,-3.0
1701961587.0205786,1.0,1.0,-1.0,0.0,-6.0,-14.0,-4.0,-1.0
1701961587.0205786,2.0,0.0,-4.0,0.0,5.0,-9.0,2.0,0.0
1701961587.0205786,0.0,-1.0,6.0,3.0,4.0,17.0,2.0,1.0
1701961587.0409307,-2.0,0.0,2.0,-5.0,-4.0,1.0,-1.0,1.0
1701961587.0409307,0.0,5.0,-13.0,-4.0,-7.0,-11.0,-5.0,-2.0
1701961587.0409307,-4.0,-13.0,-1.0,0.0,-4.0,-1.0,2.0,-1.0
1701961587.0409307,0.0,12.0,11.0,-2.0,0.0,-5.0,-2.0,-3.0
1701961587.066527,2.0,0.0,3.0,2.0,0.0,1.0,3.0,1.0
1701961587.066527,-2.0,-4.0,-15.0,-4.0,-6.0,-6.0,-6.0,0.0
1701961587.066527,1.0,2.0,8.0,1.0,-1.0,2.0,0.0,0.0
1701961587.066527,-1.0,-7.0,-7.0,4.0,5.0,5.0,3.0,1.0
1701961587.0800974,-1.0,1.0,3.0,-2.0,-4.0,-4.0,-2.0,-3.0
1701961587.0800974,3.0,4.0,4.0,1.0,2.0,0.0,2.0,1.0
1701961587.081089,-4.0,-3.0,-10.0,-6.0,-8.0,-4.0,-4.0,-2.0
1701961587.081089,0.0,2.0,5.0,3.0,1.0,-1.0,0.0,-2.0
1701961587.103449,-1.0,0.0,4.0,2.0,0.0,4.0,0.0,0.0
1701961587.103449,-2.0,-4.0,-7.0,-1.0,4.0,0.0,-1.0,1.0
1701961587.103449,-2.0,2.0,8.0,1.0,-2.0,1.0,-5.0,-4.0
1701961587.103449,3.0,8.0,4.0,-4.0,-2.0,-4.0,-1.0,0.0
1701961587.1232443,-6.0,-16.0,-28.0,-1.0,1.0,3.0,1.0,-4.0
1701961587.1232443,-1.0,7.0,8.0,0.0,0.0,9.0,-3.0,4.0
1701961587.1232443,1.0,-5.0,-1.0,-2.0,2.0,-12.0,-4.0,0.0
1701961587.1232443,1.0,6.0,4.0,-1.0,-3.0,15.0,5.0,-1.0
1701961587.1335747,1.0,1.0,13.0,1.0,-7.0,-14.0,-5.0,-1.0
1701961587.1335747,-3.0,0.0,-12.0,-7.0,8.0,23.0,2.0,-8.0
1701961587.1335747,1.0,2.0,3.0,2.0,0.0,1.0,1.0,-1.0
1701961587.1335747,-4.0,-10.0,-10.0,-2.0,0.0,-14.0,-8.0,0.0
1701961587.1637857,-1.0,-7.0,-6.0,-6.0,-5.0,-5.0,-2.0,-3.0
1701961587.1637857,-1.0,0.0,7.0,0.0,-4.0,-9.0,-3.0,-1.0
1701961587.1637857,0.0,3.0,4.0,-4.0,-5.0,-2.0,-2.0,0.0
1701961587.1637857,-2.0,-8.0,-11.0,0.0,0.0,-3.0,4.0,1.0
1701961587.1837142,-1.0,4.0,8.0,4.0,6.0,8.0,-5.0,-2.0
1701961587.1837142,-2.0,-7.0,-16.0,-9.0,-1.0,-14.0,0.0,-2.0
1701961587.1837142,0.0,2.0,6.0,6.0,4.0,8.0,1.0,-1.0
1701961587.1837142,-3.0,-10.0,-8.0,-5.0,-5.0,-6.0,-2.0,-1.0
1701961587.1937459,-1.0,-1.0,-4.0,-1.0,-1.0,0.0,-3.0,-7.0
1701961587.1937459,2.0,2.0,11.0,7.0,2.0,-4.0,-1.0,1.0
1701961587.1937459,-4.0,-3.0,-7.0,-3.0,-5.0,1.0,0.0,0.0
1701961587.1937459,-1.0,0.0,10.0,1.0,-5.0,-11.0,-6.0,-6.0
1701961587.2237124,1.0,-3.0,-19.0,-2.0,6.0,7.0,4.0,8.0
1701961587.2237124,-2.0,1.0,2.0,0.0,0.0,2.0,2.0,-2.0
1701961587.2237124,-1.0,-1.0,5.0,2.0,-2.0,-1.0,-2.0,-3.0
1701961587.2237124,-2.0,-4.0,0.0,-1.0,1.0,1.0,0.0,0.0
1701961587.2440686,-1.0,2.0,10.0,3.0,-10.0,-12.0,-5.0,-6.0
1701961587.2440686,-1.0,-1.0,3.0,1.0,5.0,-7.0,-3.0,-2.0
1701961587.2440686,0.0,1.0,-11.0,-6.0,-3.0,2.0,1.0,5.0
1701961587.2440686,-2.0,-6.0,9.0,7.0,2.0,-2.0,-3.0,-2.0
1701961587.2640896,-2.0,1.0,-15.0,-10.0,-4.0,2.0,0.0,-1.0
1701961587.2640896,-1.0,1.0,-1.0,-3.0,-4.0,0.0,3.0,2.0
1701961587.2640896,0.0,-1.0,5.0,1.0,-2.0,-3.0,1.0,0.0
1701961587.2640896,2.0,5.0,3.0,-2.0,3.0,5.0,-4.0,-1.0
1701961587.2837126,0.0,0.0,3.0,0.0,3.0,-9.0,1.0,1.0
1701961587.2837126,-2.0,-11.0,-4.0,0.0,-2.0,4.0,3.0,0.0
1701961587.2837126,-1.0,-2.0,-4.0,-4.0,-1.0,6.0,-4.0,-2.0
1701961587.2837126,0.0,4.0,-4.0,1.0,-2.0,-4.0,4.0,1.0
1701961587.3039432,-3.0,-8.0,-3.0,-3.0,-1.0,9.0,1.0,2.0
1701961587.3039432,1.0,2.0,-4.0,-5.0,-4.0,-12.0,-5.0,-4.0
1701961587.3039432,-6.0,-2.0,-2.0,-2.0,-5.0,-4.0,-4.0,-5.0
1701961587.3039432,3.0,4.0,-2.0,-5.0,-4.0,-7.0,-2.0,0.0
1701961587.313938,1.0,4.0,7.0,4.0,3.0,-1.0,-4.0,-6.0
1701961587.313938,1.0,-1.0,5.0,3.0,1.0,5.0,5.0,9.0
1701961587.3239126,-3.0,-8.0,-20.0,-3.0,-3.0,-4.0,-2.0,-7.0
1701961587.3239126,0.0,16.0,3.0,-3.0,-1.0,-2.0,0.0,12.0
1701961587.3637133,-8.0,-8.0,-6.0,-4.0,-3.0,-4.0,-4.0,-13.0
1701961587.3637133,-9.0,-11.0,4.0,-3.0,-8.0,-6.0,-6.0,-8.0
1701961587.3637133,-2.0,-4.0,-1.0,-4.0,-1.0,-3.0,-2.0,-4.0
1701961587.3637133,-4.0,-11.0,-6.0,-3.0,-1.0,1.0,-2.0,-1.0
1701961587.3637133,1.0,1.0,2.0,-1.0,-4.0,-1.0,1.0,0.0
1701961587.3637133,3.0,13.0,3.0,3.0,3.0,-1.0,-3.0,10.0
1701961587.3637133,-2.0,-7.0,2.0,5.0,8.0,4.0,0.0,-15.0
1701961587.3637133,-2.0,3.0,-8.0,-8.0,-5.0,1.0,4.0,3.0
1701961587.373748,9.0,6.0,6.0,1.0,2.0,2.0,-5.0,11.0
1701961587.373748,-3.0,-4.0,1.0,0.0,-5.0,-4.0,-3.0,-10.0
1701961587.3840353,1.0,-7.0,-8.0,-3.0,-4.0,-3.0,-1.0,-1.0
1701961587.3840353,-2.0,0.0,9.0,0.0,0.0,2.0,2.0,-10.0
1701961587.4037132,-4.0,-5.0,-1.0,-3.0,-4.0,-6.0,-5.0,-3.0
1701961587.4037132,5.0,8.0,-12.0,4.0,3.0,2.0,2.0,3.0
1701961587.4037132,-3.0,-32.0,-2.0,-1.0,1.0,2.0,0.0,5.0
1701961587.4037132,0.0,-3.0,8.0,0.0,-1.0,-2.0,-6.0,-20.0
1701961587.4239523,2.0,13.0,2.0,0.0,4.0,5.0,20.0,28.0
1701961587.4239523,-8.0,-23.0,-7.0,-3.0,-1.0,-4.0,-7.0,-7.0
1701961587.4239523,-7.0,2.0,3.0,0.0,-2.0,0.0,-2.0,-18.0
1701961587.4239523,8.0,27.0,-5.0,0.0,0.0,0.0,-14.0,-28.0
1701961587.4339461,8.0,13.0,26.0,8.0,2.0,2.0,3.0,1.0
1701961587.4339461,1.0,9.0,-5.0,-3.0,-3.0,0.0,0.0,-3.0
1701961587.4537215,4.0,17.0,-5.0,-1.0,2.0,0.0,0.0,4.0
1701961587.4537215,-12.0,-41.0,3.0,-1.0,-3.0,-1.0,2.0,6.0
1701961587.4737113,-1.0,29.0,-2.0,-2.0,-2.0,-3.0,-5.0,-3.0
1701961587.4737113,2.0,11.0,1.0,3.0,1.0,-2.0,-3.0,-11.0
1701961587.4737113,0.0,7.0,6.0,2.0,1.0,-1.0,1.0,6.0
1701961587.4737113,3.0,2.0,-8.0,-1.0,5.0,4.0,1.0,10.0
1701961587.4840717,0.0,-12.0,-5.0,1.0,0.0,0.0,-1.0,-4.0
1701961587.4840717,-4.0,-11.0,3.0,-3.0,-5.0,-4.0,-4.0,1.0
1701961587.4840717,1.0,1.0,-2.0,1.0,-1.0,-2.0,2.0,6.0
1701961587.4840717,-2.0,-1.0,-4.0,-2.0,-4.0,-2.0,-2.0,4.0
1701961587.4940476,-4.0,-17.0,3.0,3.0,-2.0,-3.0,-5.0,-10.0
1701961587.4940476,0.0,10.0,-10.0,-8.0,0.0,-3.0,0.0,-1.0
1701961587.5137124,3.0,11.0,5.0,-2.0,-4.0,-3.0,-4.0,17.0
1701961587.5137124,-2.0,-4.0,-8.0,-2.0,-6.0,-4.0,0.0,-3.0
1701961587.5137124,-1.0,-13.0,-11.0,-1.0,5.0,4.0,1.0,9.0
1701961587.5137124,-2.0,3.0,8.0,1.0,2.0,1.0,1.0,-9.0
1701961587.5240004,1.0,0.0,2.0,0.0,1.0,1.0,0.0,-1.0
1701961587.5240004,2.0,20.0,2.0,-3.0,-4.0,-3.0,-1.0,5.0
1701961587.5440228,0.0,-10.0,-1.0,-2.0,-7.0,-5.0,-6.0,0.0
1701961587.5440228,-3.0,-13.0,-3.0,1.0,4.0,4.0,-1.0,3.0
1701961587.5440228,-10.0,-23.0,-3.0,-3.0,-2.0,-1.0,0.0,-7.0
1701961587.5440228,0.0,6.0,4.0,3.0,-1.0,1.0,1.0,3.0
1701961587.5737128,-1.0,4.0,-9.0,-7.0,-3.0,-7.0,-1.0,-6.0
1701961587.5737128,0.0,-1.0,6.0,3.0,-3.0,2.0,-4.0,-6.0
1701961587.5737128,2.0,-3.0,0.0,3.0,3.0,-3.0,0.0,4.0
1701961587.5737128,-1.0,2.0,-2.0,-3.0,-7.0,-2.0,3.0,4.0
1701961587.5737128,-4.0,-7.0,-2.0,-2.0,5.0,10.0,-1.0,-6.0
1701961587.5737128,-1.0,-5.0,3.0,0.0,-1.0,-9.0,2.0,2.0
1701961587.5908294,2.0,4.0,3.0,3.0,-2.0,11.0,2.0,5.0
1701961587.5908294,-1.0,-14.0,2.0,-5.0,1.0,-3.0,-3.0,-2.0
1701961587.6060538,0.0,5.0,-25.0,-6.0,-4.0,-6.0,-4.0,-5.0
1701961587.6060538,-2.0,-5.0,0.0,-4.0,-4.0,-4.0,-4.0,2.0
1701961587.6080384,-1.0,14.0,-1.0,3.0,7.0,-7.0,-1.0,-16.0
1701961587.6080384,3.0,-5.0,3.0,1.0,2.0,23.0,11.0,17.0
1701961587.636218,-6.0,-7.0,-7.0,-3.0,-2.0,-1.0,-1.0,-6.0
1701961587.636218,4.0,7.0,4.0,2.0,-3.0,-4.0,-2.0,3.0
1701961587.636218,-1.0,-6.0,0.0,-6.0,-6.0,-8.0,-1.0,-4.0
1701961587.636218,-3.0,-3.0,-2.0,1.0,1.0,-12.0,-6.0,-9.0
1701961587.636218,-4.0,-9.0,2.0,2.0,4.0,14.0,3.0,1.0
1701961587.636218,1.0,-3.0,-1.0,1.0,-1.0,0.0,2.0,3.0
1701961587.6465962,2.0,-2.0,-6.0,-2.0,-2.0,-5.0,-3.0,3.0
1701961587.6465962,-1.0,-9.0,-5.0,-1.0,4.0,12.0,0.0,-4.0
1701961587.6662195,1.0,3.0,6.0,0.0,-5.0,-9.0,-1.0,0.0
1701961587.6662195,-2.0,-10.0,-7.0,-2.0,-3.0,-3.0,-2.0,-2.0
1701961587.6662195,1.0,9.0,4.0,-2.0,4.0,-3.0,-4.0,-11.0
1701961587.6662195,4.0,8.0,2.0,0.0,-3.0,13.0,11.0,20.0
1701961587.69622,-2.0,-3.0,-4.0,-3.0,-1.0,-6.0,-1.0,-5.0
1701961587.69622,1.0,5.0,8.0,-1.0,-6.0,-8.0,-3.0,-1.0
1701961587.69622,4.0,12.0,1.0,1.0,-2.0,4.0,-5.0,0.0
1701961587.69622,-4.0,-1.0,-8.0,0.0,2.0,-14.0,-6.0,-8.0
1701961587.69622,-4.0,-12.0,0.0,-1.0,-4.0,6.0,1.0,-4.0
1701961587.69622,0.0,0.0,-2.0,-2.0,0.0,5.0,0.0,2.0
1701961587.706561,3.0,18.0,3.0,0.0,-1.0,4.0,-2.0,5.0
1701961587.706561,-7.0,-17.0,-11.0,0.0,-2.0,-24.0,-6.0,-6.0
1701961587.7264042,5.0,23.0,17.0,3.0,0.0,8.0,3.0,2.0
1701961587.7264042,-4.0,-19.0,-6.0,-1.0,3.0,1.0,-1.0,0.0
1701961587.7264042,0.0,-1.0,1.0,-2.0,-5.0,-8.0,-1.0,2.0
1701961587.7264042,-3.0,-15.0,-10.0,-7.0,-5.0,2.0,-2.0,-1.0
1701961587.7463207,1.0,20.0,8.0,0.0,-2.0,-10.0,-5.0,-3.0
1701961587.7463207,-2.0,5.0,1.0,-3.0,-3.0,-2.0,3.0,-2.0
1701961587.7463207,7.0,-1.0,9.0,2.0,7.0,18.0,5.0,2.0
1701961587.7463207,4.0,26.0,4.0,3.0,-2.0,-4.0,-6.0,-5.0
1701961587.7565985,-6.0,-15.0,-12.0,-6.0,-2.0,-3.0,-3.0,-5.0
1701961587.7565985,0.0,1.0,-2.0,-2.0,-7.0,-3.0,-2.0,12.0
1701961587.7665792,-6.0,-16.0,-7.0,-5.0,-6.0,-2.0,1.0,-9.0
1701961587.7665792,-2.0,2.0,5.0,2.0,0.0,-7.0,-5.0,-7.0
1701961587.7864692,-1.0,-13.0,-13.0,-2.0,0.0,-4.0,1.0,3.0
1701961587.7864692,1.0,4.0,-3.0,-2.0,5.0,24.0,0.0,-6.0
1701961587.7864692,-1.0,0.0,-4.0,-6.0,-14.0,-20.0,-9.0,1.0
1701961587.7864692,-1.0,-4.0,-1.0,-3.0,2.0,8.0,3.0,1.0
1701961587.806322,-2.0,-13.0,6.0,4.0,2.0,6.0,-2.0,-5.0
1701961587.806322,0.0,-1.0,1.0,2.0,4.0,-6.0,0.0,0.0
1701961587.806322,-3.0,2.0,9.0,-2.0,-2.0,3.0,-1.0,1.0
1701961587.806322,-4.0,3.0,-16.0,-8.0,-6.0,-9.0,-6.0,-7.0
1701961587.816607,0.0,-10.0,-1.0,0.0,-1.0,0.0,0.0,0.0
1701961587.816607,0.0,-3.0,3.0,0.0,0.0,0.0,1.0,-1.0
1701961587.8265765,-2.0,-4.0,-10.0,0.0,3.0,-2.0,-1.0,3.0
1701961587.8265765,7.0,28.0,7.0,3.0,3.0,1.0,-1.0,-3.0
1701961587.846314,-10.0,-52.0,-6.0,-3.0,-2.0,-5.0,-2.0,-2.0
1701961587.846314,-1.0,6.0,-6.0,-4.0,-5.0,-2.0,-2.0,-2.0
1701961587.846314,-4.0,-1.0,-5.0,-3.0,-7.0,-3.0,1.0,-3.0
1701961587.846314,-5.0,-8.0,-1.0,-3.0,3.0,3.0,-2.0,0.0
1701961587.8662271,3.0,13.0,5.0,-2.0,1.0,0.0,0.0,2.0
1701961587.8662271,4.0,12.0,1.0,0.0,3.0,-4.0,-1.0,-1.0
1701961587.8662271,-2.0,-15.0,-7.0,9.0,5.0,1.0,0.0,0.0
1701961587.8662271,-10.0,-33.0,-7.0,-6.0,-7.0,-1.0,0.0,-3.0
1701961587.876323,2.0,15.0,3.0,0.0,11.0,-1.0,0.0,0.0
1701961587.876323,-4.0,-5.0,6.0,4.0,-5.0,0.0,-1.0,-2.0
1701961587.8865886,-4.0,-10.0,-2.0,4.0,10.0,2.0,0.0,0.0
1701961587.8865886,-2.0,-22.0,11.0,0.0,-11.0,-5.0,-4.0,-1.0
1701961587.9062188,3.0,14.0,-20.0,-16.0,-14.0,-8.0,-5.0,-18.0
1701961587.9062188,1.0,-3.0,6.0,4.0,0.0,-3.0,5.0,19.0
1701961587.9062188,-1.0,-14.0,-27.0,-9.0,-2.0,2.0,-2.0,-3.0
1701961587.9062188,-1.0,1.0,11.0,5.0,7.0,2.0,1.0,4.0
1701961587.9264555,-2.0,-5.0,-5.0,0.0,-2.0,-2.0,-1.0,-2.0
1701961587.9264555,4.0,20.0,18.0,4.0,-4.0,-2.0,-3.0,-3.0
1701961587.9264555,-3.0,2.0,-16.0,-12.0,-3.0,-1.0,-1.0,-12.0
1701961587.9264555,-2.0,5.0,6.0,1.0,0.0,0.0,-1.0,1.0
1701961587.936439,-1.0,9.0,-6.0,2.0,0.0,0.0,0.0,7.0
1701961587.936439,-6.0,-18.0,13.0,4.0,1.0,1.0,1.0,-2.0
1701961587.9464257,1.0,8.0,12.0,-2.0,-4.0,-2.0,-5.0,-9.0
1701961587.9464257,2.0,1.0,-21.0,-11.0,0.0,1.0,6.0,17.0
1701961587.9662178,-2.0,18.0,19.0,8.0,12.0,6.0,-1.0,-1.0
1701961587.9662178,-1.0,-27.0,-21.0,-7.0,-11.0,-7.0,-2.0,-4.0
1701961587.9662178,-2.0,2.0,6.0,0.0,3.0,1.0,2.0,0.0
1701961587.9662178,-3.0,-8.0,-4.0,2.0,1.0,-5.0,-3.0,-9.0
1701961587.9865959,0.0,0.0,6.0,-3.0,-7.0,-1.0,0.0,6.0
1701961587.9865959,-2.0,-2.0,-3.0,-6.0,1.0,4.0,-1.0,-3.0
1701961587.9865959,-1.0,2.0,-6.0,-1.0,-2.0,0.0,-2.0,-2.0
1701961587.9865959,-4.0,-12.0,-4.0,0.0,1.0,-8.0,0.0,0.0
1701961587.9968388,8.0,27.0,12.0,5.0,-3.0,2.0,1.0,4.0
1701961587.9968388,-4.0,1.0,-7.0,-5.0,1.0,-2.0,-8.0,-7.0
1701961588.0068133,-2.0,-21.0,-5.0,-1.0,-2.0,0.0,-1.0,0.0
1701961588.0068133,0.0,8.0,2.0,2.0,0.0,-4.0,0.0,-2.0
1701961588.0366166,-2.0,-13.0,-11.0,-5.0,-9.0,-10.0,-6.0,-6.0
1701961588.0366166,-1.0,2.0,-3.0,2.0,9.0,2.0,-1.0,-2.0
1701961588.0366166,4.0,7.0,18.0,7.0,0.0,-14.0,-4.0,4.0
1701961588.0366166,0.0,20.0,-2.0,-4.0,-6.0,16.0,-2.0,-4.0
1701961588.0466444,-6.0,-15.0,-2.0,-4.0,2.0,3.0,4.0,1.0
1701961588.0466444,-2.0,4.0,3.0,4.0,1.0,10.0,1.0,-1.0
1701961588.0466444,6.0,19.0,-6.0,-8.0,-2.0,2.0,7.0,6.0
1701961588.0466444,1.0,-8.0,-3.0,0.0,1.0,-10.0,-6.0,-7.0
1701961588.0566754,-6.0,5.0,6.0,1.0,-3.0,-1.0,-2.0,-5.0
1701961588.0566754,-2.0,2.0,-4.0,-2.0,1.0,-4.0,-1.0,-1.0
1701961588.0666156,-3.0,-7.0,1.0,-2.0,-9.0,-9.0,0.0,-5.0
1701961588.0666156,3.0,3.0,9.0,2.0,-2.0,12.0,-1.0,2.0
1701961588.0866215,6.0,-5.0,-4.0,2.0,12.0,-10.0,-2.0,3.0
1701961588.0866215,-2.0,-7.0,-12.0,-5.0,-2.0,4.0,1.0,1.0
1701961588.0866215,-13.0,-18.0,-13.0,-5.0,2.0,6.0,-1.0,-3.0
1701961588.0866215,-2.0,-3.0,-2.0,-6.0,-9.0,-11.0,-4.0,-5.0
1701961588.1069026,-6.0,-14.0,-1.0,-3.0,-1.0,-1.0,-4.0,-14.0
1701961588.1069026,10.0,13.0,1.0,-1.0,-2.0,2.0,7.0,11.0
1701961588.1069026,1.0,22.0,14.0,2.0,-2.0,1.0,-1.0,4.0
1701961588.1069026,-2.0,-22.0,-8.0,2.0,3.0,-5.0,0.0,-1.0
1701961588.1219296,-3.0,-4.0,-4.0,-1.0,-3.0,11.0,-7.0,-5.0
1701961588.122893,-2.0,-3.0,-10.0,-5.0,-1.0,-12.0,-1.0,-7.0
1701961588.1329222,3.0,19.0,14.0,6.0,3.0,4.0,2.0,17.0
1701961588.1329222,-7.0,-6.0,-10.0,-4.0,0.0,-2.0,-4.0,-19.0
1701961588.1473587,1.0,4.0,-1.0,-1.0,-8.0,-14.0,0.0,6.0
1701961588.1473587,-2.0,-5.0,0.0,-2.0,-3.0,-6.0,-10.0,-8.0
1701961588.148967,2.0,0.0,4.0,3.0,3.0,18.0,6.0,7.0
1701961588.148967,1.0,-2.0,-9.0,-8.0,0.0,-3.0,-3.0,-6.0
1701961588.1689675,1.0,4.0,1.0,3.0,1.0,-6.0,1.0,-7.0
1701961588.1689675,0.0,-1.0,8.0,3.0,3.0,12.0,9.0,13.0
1701961588.1689675,3.0,-1.0,-17.0,-5.0,-10.0,-14.0,-4.0,-1.0
1701961588.1689675,7.0,11.0,6.0,1.0,3.0,5.0,0.0,0.0
1701961588.179135,-4.0,0.0,4.0,1.0,-3.0,-2.0,1.0,1.0
1701961588.179135,-7.0,-6.0,-18.0,-8.0,-5.0,-8.0,-5.0,-10.0
1701961588.2089612,-2.0,-2.0,10.0,0.0,-3.0,-4.0,-4.0,2.0
1701961588.2089612,-3.0,1.0,-5.0,2.0,-2.0,-6.0,4.0,4.0
1701961588.2089612,2.0,0.0,23.0,0.0,-3.0,1.0,-7.0,-6.0
1701961588.2089612,1.0,1.0,-9.0,0.0,2.0,-11.0,-4.0,-1.0
1701961588.2089612,-1.0,-3.0,7.0,-2.0,-4.0,-5.0,-6.0,-3.0
1701961588.2089612,2.0,3.0,-9.0,-5.0,-4.0,6.0,6.0,4.0
1701961588.2289665,-3.0,1.0,22.0,9.0,6.0,-2.0,-3.0,0.0
1701961588.2289665,0.0,3.0,8.0,-6.0,-10.0,-9.0,-5.0,-3.0
1701961588.2289665,2.0,-4.0,-13.0,0.0,4.0,2.0,2.0,-5.0
1701961588.2289665,-2.0,-4.0,9.0,2.0,-1.0,-8.0,-2.0,4.0
1701961588.2492805,-2.0,5.0,-7.0,-3.0,0.0,10.0,2.0,3.0
1701961588.2492805,-2.0,-1.0,-2.0,0.0,-1.0,-2.0,-4.0,1.0
1701961588.2589715,0.0,-1.0,2.0,-2.0,-8.0,0.0,3.0,3.0
1701961588.2589715,-5.0,-1.0,6.0,6.0,10.0,10.0,-4.0,-3.0
1701961588.2689643,-4.0,-5.0,-27.0,-12.0,-6.0,-3.0,3.0,3.0
1701961588.2689643,-2.0,0.0,8.0,2.0,0.0,-4.0,-4.0,-7.0
1701961588.2689643,0.0,4.0,37.0,7.0,0.0,-5.0,-1.0,-3.0
1701961588.2689643,0.0,-3.0,-24.0,-5.0,-6.0,1.0,-7.0,-4.0
1701961588.2889664,-3.0,-7.0,-11.0,-2.0,-2.0,4.0,1.0,-5.0
1701961588.2889664,3.0,6.0,24.0,1.0,2.0,6.0,3.0,5.0
1701961588.2889664,-2.0,-2.0,-8.0,0.0,-1.0,-10.0,-2.0,-4.0
1701961588.2889664,0.0,2.0,23.0,6.0,1.0,5.0,3.0,10.0
1701961588.299,0.0,0.0,-1.0,-1.0,3.0,7.0,1.0,1.0
1701961588.299,-1.0,-1.0,-5.0,-1.0,-3.0,-8.0,0.0,-6.0
1701961588.309255,-3.0,-6.0,-11.0,-6.0,-3.0,-1.0,-6.0,-6.0
1701961588.309255,1.0,6.0,11.0,1.0,2.0,-7.0,-3.0,0.0
1701961588.3192413,2.0,-4.0,-10.0,-2.0,-2.0,0.0,-2.0,5.0
1701961588.3192413,-3.0,2.0,17.0,2.0,0.0,1.0,1.0,-2.0
1701961588.3192413,-2.0,-1.0,1.0,-1.0,-5.0,-7.0,-3.0,-4.0
1701961588.3192413,-4.0,2.0,-3.0,-3.0,1.0,-4.0,-9.0,3.0
1701961588.358966,2.0,-4.0,-13.0,1.0,3.0,-12.0,-4.0,2.0
1701961588.358966,-2.0,-2.0,19.0,-2.0,-3.0,-1.0,-1.0,-3.0
1701961588.358966,-1.0,-6.0,-33.0,-7.0,-1.0,0.0,-5.0,-14.0
1701961588.358966,-1.0,-2.0,2.0,1.0,-8.0,-8.0,6.0,4.0
1701961588.358966,-4.0,-2.0,-4.0,-5.0,-3.0,10.0,3.0,6.0
1701961588.358966,-1.0,1.0,-14.0,0.0,1.0,-5.0,-4.0,-2.0
1701961588.3689973,-5.0,-4.0,2.0,-1.0,2.0,3.0,-1.0,-6.0
1701961588.3689973,0.0,2.0,8.0,2.0,1.0,2.0,1.0,-4.0
1701961588.379372,2.0,-3.0,0.0,4.0,0.0,-10.0,-5.0,3.0
1701961588.379372,-2.0,0.0,-18.0,-8.0,-2.0,3.0,0.0,-16.0
1701961588.379372,2.0,-3.0,18.0,-1.0,-7.0,-1.0,0.0,6.0
1701961588.379372,-3.0,-7.0,-29.0,-1.0,6.0,-1.0,-1.0,-3.0
1701961588.3989656,0.0,4.0,29.0,4.0,-4.0,-3.0,-3.0,-4.0
1701961588.3989656,-1.0,-1.0,8.0,2.0,0.0,3.0,3.0,11.0
1701961588.408965,4.0,0.0,-7.0,3.0,2.0,5.0,0.0,2.0
1701961588.408965,-3.0,2.0,-14.0,-8.0,-5.0,-10.0,-9.0,-2.0
1701961588.41938,-1.0,1.0,24.0,-1.0,-2.0,10.0,3.0,-7.0
1701961588.41938,-1.0,-8.0,-19.0,-1.0,-7.0,-17.0,-3.0,7.0
1701961588.4293427,-3.0,-1.0,3.0,-6.0,-1.0,15.0,-2.0,-2.0
1701961588.4293427,1.0,3.0,7.0,1.0,-6.0,-5.0,5.0,2.0
1701961588.4393547,5.0,4.0,10.0,6.0,9.0,-5.0,2.0,-1.0
1701961588.4393547,-3.0,-3.0,-9.0,-4.0,-3.0,-9.0,-4.0,-1.0
1701961588.4393547,0.0,0.0,-10.0,-6.0,-4.0,12.0,3.0,4.0
1701961588.4393547,-2.0,1.0,14.0,3.0,2.0,-2.0,-3.0,-3.0
1701961588.4689639,-2.0,-7.0,-41.0,-9.0,-11.0,-1.0,-3.0,-1.0
1701961588.4689639,0.0,-5.0,3.0,1.0,9.0,-5.0,-1.0,1.0
1701961588.4689639,2.0,2.0,4.0,3.0,2.0,-19.0,-5.0,-3.0
1701961588.4689639,3.0,2.0,5.0,-4.0,-3.0,20.0,-1.0,-1.0
1701961588.4789622,-3.0,-2.0,9.0,3.0,-3.0,-10.0,-3.0,-11.0
1701961588.4789622,-3.0,-10.0,-51.0,-9.0,-4.0,5.0,-3.0,-1.0
1701961588.4893532,-2.0,5.0,4.0,1.0,0.0,1.0,2.0,-4.0
1701961588.4893532,6.0,7.0,17.0,3.0,2.0,-1.0,4.0,7.0
1701961588.4989636,-5.0,-6.0,2.0,-1.0,0.0,-6.0,-4.0,-2.0
1701961588.4989636,-4.0,-4.0,-14.0,-5.0,-5.0,2.0,-2.0,11.0
1701961588.4989636,-4.0,-5.0,-14.0,-3.0,-2.0,-3.0,3.0,-20.0
1701961588.4989636,-1.0,2.0,14.0,-4.0,-6.0,-3.0,0.0,-4.0
1701961588.5289636,0.0,-3.0,-38.0,-14.0,-10.0,-12.0,-13.0,1.0
1701961588.5289636,0.0,4.0,16.0,11.0,9.0,12.0,10.0,-3.0
1701961588.5289636,-7.0,-3.0,7.0,1.0,0.0,1.0,-5.0,-7.0
1701961588.5289636,5.0,3.0,-3.0,3.0,1.0,0.0,8.0,10.0
1701961588.5493846,-8.0,-6.0,-22.0,-4.0,-5.0,1.0,1.0,-3.0
1701961588.5493846,0.0,1.0,6.0,-3.0,1.0,0.0,-4.0,-24.0
1701961588.5493846,5.0,2.0,-4.0,0.0,-1.0,-7.0,1.0,15.0
1701961588.5493846,0.0,2.0,12.0,-3.0,0.0,5.0,-2.0,-6.0
1701961588.5593472,0.0,-7.0,-8.0,-3.0,1.0,-3.0,1.0,4.0
1701961588.5593472,-2.0,0.0,0.0,-1.0,-3.0,-6.0,-6.0,-3.0
1701961588.5593472,1.0,0.0,1.0,1.0,4.0,16.0,3.0,-7.0
1701961588.5593472,-1.0,-3.0,-17.0,-2.0,-2.0,-10.0,1.0,-2.0
1701961588.5892148,2.0,4.0,28.0,5.0,3.0,9.0,5.0,4.0
1701961588.5892148,-1.0,4.0,21.0,1.0,-8.0,-4.0,-2.0,-2.0
1701961588.5892148,-2.0,-6.0,-19.0,-8.0,0.0,-8.0,-3.0,5.0
1701961588.5892148,-4.0,-11.0,-5.0,-1.0,-1.0,1.0,-3.0,-6.0
1701961588.609332,4.0,15.0,8.0,-2.0,0.0,1.0,5.0,15.0
1701961588.609332,-3.0,-4.0,-3.0,-6.0,-4.0,2.0,-6.0,-15.0
1701961588.609332,1.0,-3.0,10.0,12.0,1.0,-10.0,0.0,18.0
1701961588.609332,-5.0,-1.0,13.0,4.0,2.0,1.0,-6.0,-14.0
1701961588.6193457,0.0,-7.0,-18.0,-1.0,0.0,3.0,1.0,-3.0
1701961588.6193457,3.0,4.0,-6.0,-6.0,-3.0,-5.0,-4.0,-7.0
1701961588.6193457,-6.0,-1.0,-4.0,-6.0,-3.0,1.0,5.0,-4.0
1701961588.6193457,-5.0,-6.0,-7.0,-1.0,-5.0,1.0,-3.0,-9.0
1701961588.6489666,1.0,3.0,3.0,1.0,4.0,-3.0,1.0,4.0
1701961588.6489666,1.0,6.0,14.0,5.0,-2.0,0.0,-1.0,10.0
1701961588.6495726,-4.0,-6.0,10.0,-7.0,0.0,-11.0,-9.0,-7.0
1701961588.6505737,4.0,-2.0,-17.0,-9.0,0.0,3.0,3.0,6.0
1701961588.6713138,-5.0,-2.0,-7.0,-4.0,-6.0,-7.0,-4.0,-3.0
1701961588.6713138,0.0,-2.0,0.0,3.0,2.0,-1.0,6.0,2.0
1701961588.6733642,-2.0,-2.0,17.0,4.0,0.0,3.0,-9.0,-1.0
1701961588.6733642,-5.0,0.0,2.0,-8.0,-8.0,-4.0,-6.0,-4.0
1701961588.6819556,8.0,0.0,-8.0,-2.0,-4.0,-4.0,0.0,-6.0
1701961588.6819556,-8.0,0.0,5.0,3.0,-2.0,-6.0,0.0,-1.0
1701961588.6919603,-2.0,-6.0,2.0,1.0,10.0,14.0,1.0,-3.0
1701961588.6919603,4.0,3.0,-13.0,-3.0,-3.0,-5.0,0.0,4.0
1701961588.7019563,-3.0,0.0,7.0,-2.0,-4.0,-1.0,-6.0,-8.0
1701961588.7019563,0.0,-1.0,19.0,3.0,2.0,-1.0,-1.0,2.0
1701961588.7019563,1.0,3.0,-25.0,5.0,2.0,-3.0,4.0,5.0
1701961588.7019563,-3.0,-7.0,-23.0,-7.0,-1.0,-2.0,-11.0,2.0
1701961588.7319763,0.0,-1.0,7.0,-3.0,-2.0,-3.0,-2.0,-3.0
1701961588.7319763,0.0,5.0,7.0,6.0,6.0,8.0,-1.0,-2.0
1701961588.7319763,3.0,-4.0,-19.0,-19.0,-13.0,-8.0,0.0,17.0
1701961588.7319763,-2.0,-4.0,-2.0,2.0,-2.0,-1.0,0.0,-10.0
1701961588.741956,-2.0,2.0,-1.0,5.0,3.0,5.0,12.0,13.0
1701961588.741956,-3.0,-7.0,-6.0,5.0,7.0,4.0,-6.0,-7.0
1701961588.752278,-1.0,9.0,5.0,-4.0,3.0,-5.0,-3.0,-3.0
1701961588.752278,-4.0,-1.0,2.0,12.0,-2.0,2.0,5.0,3.0
1701961588.7619584,-5.0,-6.0,12.0,0.0,1.0,-4.0,-9.0,-7.0
1701961588.7619584,3.0,-1.0,-26.0,-16.0,-5.0,0.0,6.0,9.0
1701961588.7619584,1.0,3.0,11.0,15.0,1.0,-1.0,-7.0,-7.0
1701961588.7619584,-6.0,-6.0,6.0,-16.0,-2.0,-9.0,-8.0,-6.0
1701961588.781958,-6.0,-3.0,-9.0,5.0,-5.0,-2.0,-1.0,-4.0
1701961588.7919593,1.0,-3.0,-9.0,-6.0,-3.0,2.0,3.0,3.0
1701961588.7919593,2.0,4.0,10.0,-4.0,-4.0,4.0,5.0,-1.0
1701961588.7919593,1.0,2.0,2.0,7.0,4.0,-3.0,1.0,-1.0
1701961588.8019574,2.0,6.0,11.0,7.0,2.0,3.0,-1.0,-5.0
1701961588.8019574,-9.0,-4.0,-6.0,-7.0,-8.0,-9.0,-3.0,1.0
1701961588.8122215,-1.0,-10.0,-17.0,-18.0,-5.0,3.0,0.0,-2.0
1701961588.8122215,4.0,9.0,20.0,16.0,6.0,4.0,5.0,6.0
1701961588.8223448,0.0,-8.0,-20.0,0.0,-3.0,-10.0,-5.0,-5.0
1701961588.8223448,5.0,9.0,15.0,5.0,-1.0,-4.0,-1.0,-6.0
1701961588.8223448,-12.0,-15.0,-8.0,-2.0,1.0,5.0,2.0,15.0
1701961588.8223448,2.0,-12.0,-28.0,-7.0,-4.0,-4.0,-2.0,-4.0
1701961588.8519576,1.0,-1.0,-2.0,-7.0,1.0,-6.0,1.0,-1.0
1701961588.8519576,17.0,15.0,2.0,4.0,-2.0,19.0,5.0,7.0
1701961588.8519576,-10.0,-1.0,11.0,0.0,-5.0,-10.0,-7.0,-12.0
1701961588.8519576,-3.0,-8.0,-25.0,-11.0,3.0,6.0,0.0,-4.0
1701961588.8619578,-1.0,5.0,22.0,1.0,2.0,-3.0,-2.0,4.0
1701961588.8619578,-2.0,-7.0,-6.0,2.0,-5.0,-7.0,-4.0,-3.0
1701961588.8719802,11.0,9.0,16.0,13.0,8.0,0.0,4.0,0.0
1701961588.8719802,-4.0,2.0,1.0,-16.0,-5.0,-2.0,-2.0,3.0
1701961588.8823335,-6.0,-3.0,-6.0,2.0,-7.0,0.0,-4.0,-5.0
1701961588.8823335,0.0,-6.0,-12.0,-1.0,8.0,7.0,5.0,5.0
1701961588.8823335,1.0,2.0,11.0,10.0,8.0,3.0,-1.0,-4.0
1701961588.8823335,0.0,6.0,-12.0,-14.0,-7.0,-4.0,-3.0,-5.0
1701961588.922352,0.0,-7.0,-7.0,14.0,3.0,1.0,-2.0,1.0
1701961588.922352,-8.0,-4.0,-7.0,-13.0,-11.0,-9.0,-1.0,-2.0
1701961588.922352,-1.0,-4.0,-22.0,-9.0,-4.0,-5.0,-2.0,-1.0
1701961588.922352,-5.0,-4.0,12.0,5.0,0.0,-3.0,-5.0,-8.0
1701961588.922352,1.0,-6.0,-1.0,-11.0,-5.0,-1.0,3.0,14.0
1701961588.922352,-4.0,5.0,-1.0,-3.0,-1.0,1.0,-4.0,-3.0
1701961588.932352,1.0,-1.0,-7.0,4.0,-4.0,-3.0,-1.0,-4.0
1701961588.932352,3.0,5.0,15.0,4.0,0.0,-5.0,-3.0,1.0
1701961588.9426422,-4.0,-8.0,-18.0,-13.0,-3.0,3.0,0.0,-3.0
1701961588.9426422,-5.0,1.0,17.0,6.0,-2.0,-1.0,-2.0,-6.0
1701961588.9426422,-7.0,-7.0,-7.0,1.0,-2.0,-3.0,-1.0,3.0
1701961588.9426422,0.0,-4.0,4.0,7.0,5.0,7.0,1.0,12.0
1701961588.9723532,-2.0,20.0,35.0,1.0,-5.0,-10.0,-6.0,-16.0
1701961588.9723532,-6.0,-19.0,-47.0,-18.0,0.0,-3.0,0.0,1.0
1701961588.9723532,2.0,6.0,7.0,4.0,-2.0,-3.0,0.0,-7.0
1701961588.9723532,0.0,-5.0,-1.0,0.0,1.0,3.0,3.0,5.0
1701961588.9826753,-2.0,0.0,6.0,5.0,-8.0,-3.0,-2.0,-4.0
1701961588.9826753,-1.0,-5.0,-4.0,3.0,13.0,2.0,0.0,-1.0
1701961588.992541,2.0,7.0,0.0,-14.0,-6.0,-5.0,-4.0,-1.0
1701961588.992541,-1.0,-6.0,5.0,3.0,-1.0,-10.0,-2.0,-4.0
1701961589.002762,2.0,7.0,-7.0,-7.0,2.0,5.0,-1.0,2.0
1701961589.002762,-3.0,-1.0,27.0,19.0,1.0,3.0,-2.0,-3.0
1701961589.002762,-4.0,-8.0,-27.0,-10.0,-9.0,-6.0,-5.0,-2.0
1701961589.002762,1.0,9.0,-2.0,-2.0,3.0,-3.0,4.0,1.0
1701961589.0223546,-3.0,-17.0,-23.0,-12.0,0.0,9.0,-2.0,-4.0
1701961589.0223546,1.0,4.0,9.0,1.0,-3.0,-4.0,1.0,4.0
1701961589.032351,-1.0,-2.0,11.0,-2.0,1.0,0.0,-3.0,-5.0
1701961589.032351,-1.0,4.0,-5.0,2.0,-6.0,3.0,-5.0,-8.0
1701961589.0427225,1.0,0.0,-18.0,-4.0,5.0,-6.0,3.0,-6.0
1701961589.0427225,0.0,0.0,6.0,4.0,1.0,9.0,3.0,7.0
1701961589.0527399,1.0,-1.0,16.0,5.0,4.0,-2.0,-1.0,0.0
1701961589.0527399,-1.0,-4.0,-10.0,-9.0,-4.0,4.0,-3.0,-1.0
1701961589.0627477,-5.0,0.0,13.0,2.0,-1.0,-1.0,0.0,-5.0
1701961589.0627477,2.0,-9.0,-36.0,-17.0,-7.0,-9.0,-2.0,1.0
1701961589.0627477,-4.0,5.0,9.0,1.0,0.0,-4.0,-5.0,-5.0
1701961589.0627477,-1.0,-3.0,-3.0,3.0,-2.0,16.0,2.0,-2.0
1701961589.0923507,0.0,1.0,14.0,0.0,4.0,14.0,2.0,5.0
1701961589.0923507,-3.0,-1.0,-9.0,-2.0,-6.0,-6.0,-2.0,-2.0
1701961589.0923507,5.0,1.0,6.0,2.0,2.0,3.0,5.0,15.0
1701961589.0923507,-6.0,1.0,-3.0,5.0,0.0,-10.0,-2.0,-16.0
1701961589.1027246,0.0,2.0,11.0,8.0,0.0,1.0,-2.0,3.0
1701961589.1027246,-2.0,0.0,-3.0,-15.0,-7.0,-6.0,-5.0,-3.0
1701961589.1127403,0.0,-9.0,-16.0,5.0,3.0,5.0,1.0,0.0
1701961589.1127403,0.0,2.0,13.0,0.0,0.0,-6.0,-2.0,3.0
1701961589.132352,0.0,3.0,-7.0,-5.0,3.0,-6.0,-1.0,1.0
1701961589.132352,0.0,-1.0,6.0,-1.0,-2.0,-5.0,-7.0,-7.0
1701961589.132352,-2.0,8.0,24.0,17.0,1.0,-1.0,-1.0,-1.0
1701961589.132352,-3.0,-13.0,-23.0,-16.0,-3.0,-8.0,2.0,2.0
1701961589.1423507,-1.0,-7.0,-16.0,-1.0,-2.0,3.0,-7.0,-10.0
1701961589.1423507,2.0,5.0,10.0,3.0,2.0,5.0,4.0,10.0
1701961589.1523557,-1.0,-6.0,-14.0,-12.0,-11.0,-2.0,-1.0,-5.0
1701961589.1523557,4.0,13.0,19.0,11.0,4.0,-1.0,0.0,5.0
1701961589.1627867,-2.0,-9.0,-15.0,-2.0,1.0,0.0,-1.0,-2.0
1701961589.1627867,-2.0,-1.0,19.0,-4.0,-3.0,-8.0,-5.0,-7.0
1701961589.1737943,1.0,0.0,-17.0,2.0,-3.0,-6.0,-1.0,1.0
1701961589.1737943,-2.0,0.0,-4.0,-2.0,-10.0,-22.0,-10.0,-4.0
1701961589.198324,-4.0,0.0,11.0,3.0,4.0,46.0,9.0,3.0
1701961589.198324,3.0,-1.0,-3.0,5.0,4.0,1.0,3.0,1.0
1701961589.198324,6.0,0.0,-4.0,-8.0,-1.0,-5.0,0.0,-1.0
1701961589.198324,-7.0,-7.0,2.0,-2.0,0.0,-6.0,-2.0,-2.0
1701961589.208722,3.0,6.0,-15.0,-7.0,-3.0,-14.0,-1.0,6.0
1701961589.208722,-3.0,7.0,12.0,7.0,-1.0,0.0,-3.0,-2.0
1701961589.208722,-7.0,-18.0,-21.0,-11.0,-4.0,-1.0,-4.0,-5.0
1701961589.208722,3.0,2.0,5.0,4.0,0.0,3.0,-1.0,1.0
1701961589.2187061,1.0,1.0,14.0,1.0,2.0,-8.0,1.0,2.0
1701961589.2187061,-2.0,-5.0,-9.0,8.0,-1.0,-1.0,-2.0,-3.0
1701961589.2286901,1.0,3.0,5.0,-3.0,4.0,-1.0,0.0,0.0
1701961589.2286901,0.0,0.0,1.0,1.0,-2.0,5.0,-4.0,1.0
1701961589.258326,1.0,-2.0,13.0,-3.0,-11.0,-13.0,0.0,1.0
1701961589.258326,-4.0,-3.0,-7.0,5.0,8.0,2.0,1.0,-3.0
1701961589.258326,1.0,1.0,6.0,-4.0,4.0,-1.0,0.0,-1.0
1701961589.258326,-5.0,-5.0,-12.0,-5.0,-5.0,-2.0,-1.0,-2.0
1701961589.268599,1.0,0.0,7.0,-5.0,-3.0,-12.0,-4.0,-1.0
1701961589.268599,-1.0,-3.0,20.0,6.0,-2.0,1.0,-3.0,-3.0
1701961589.268599,-1.0,4.0,-17.0,-19.0,-11.0,0.0,-2.0,-2.0
1701961589.268599,2.0,-2.0,-6.0,-3.0,9.0,6.0,2.0,-1.0
1701961589.2786655,-1.0,-2.0,-1.0,9.0,-5.0,-22.0,-4.0,2.0
1701961589.2786655,1.0,4.0,16.0,-2.0,-1.0,13.0,-1.0,-2.0
1701961589.2887285,-4.0,-4.0,-7.0,5.0,3.0,3.0,3.0,1.0
1701961589.2887285,11.0,8.0,14.0,1.0,-2.0,-4.0,1.0,0.0
1701961589.3186858,-10.0,-9.0,-31.0,-13.0,-2.0,-2.0,-2.0,-3.0
1701961589.3186858,-4.0,-9.0,-23.0,-1.0,-4.0,-8.0,-1.0,-1.0
1701961589.3186858,4.0,6.0,10.0,1.0,-2.0,-5.0,-2.0,0.0
1701961589.3186858,-1.0,-6.0,-1.0,5.0,-2.0,3.0,-4.0,-8.0
1701961589.329007,7.0,9.0,11.0,1.0,6.0,0.0,6.0,21.0
1701961589.329007,-3.0,-5.0,-12.0,-9.0,-3.0,-4.0,-2.0,0.0
1701961589.329007,-7.0,-10.0,-11.0,-6.0,-8.0,-5.0,-4.0,-5.0
1701961589.329007,-2.0,0.0,0.0,-3.0,-5.0,-2.0,0.0,0.0
1701961589.3390467,2.0,1.0,1.0,6.0,13.0,7.0,-1.0,-7.0
1701961589.3390467,2.0,-3.0,-1.0,-14.0,-7.0,-4.0,-3.0,1.0
1701961589.3586853,-2.0,4.0,7.0,13.0,5.0,-1.0,0.0,2.0
1701961589.3586853,-1.0,-2.0,3.0,1.0,-4.0,-3.0,2.0,-1.0
1701961589.3687508,-4.0,-2.0,5.0,2.0,-4.0,7.0,1.0,-3.0
1701961589.3687508,0.0,-2.0,-16.0,-4.0,3.0,-2.0,-1.0,1.0
1701961589.3687508,-2.0,2.0,14.0,3.0,0.0,1.0,0.0,-2.0
1701961589.3687508,-3.0,-1.0,5.0,1.0,-2.0,-4.0,-2.0,1.0
1701961589.3889341,2.0,0.0,-25.0,-17.0,-6.0,-5.0,-6.0,-1.0
1701961589.3889341,-3.0,0.0,4.0,11.0,2.0,-1.0,5.0,-1.0
1701961589.3889341,-1.0,-1.0,2.0,-1.0,0.0,5.0,0.0,-1.0
1701961589.3889341,2.0,2.0,3.0,0.0,2.0,5.0,2.0,1.0
1701961589.3988903,-1.0,3.0,8.0,4.0,0.0,2.0,0.0,1.0
1701961589.3988903,-7.0,-3.0,1.0,-5.0,0.0,1.0,-2.0,-2.0
1701961589.438686,-1.0,-2.0,9.0,-1.0,-5.0,-6.0,-3.0,-4.0
1701961589.438686,-2.0,1.0,-8.0,-2.0,-3.0,1.0,-3.0,1.0
1701961589.438686,3.0,-11.0,-19.0,0.0,-2.0,-3.0,-4.0,-5.0
1701961589.438686,4.0,4.0,-15.0,-13.0,-5.0,-3.0,-1.0,1.0
1701961589.438686,-3.0,-3.0,3.0,5.0,-3.0,2.0,0.0,1.0
1701961589.438686,-2.0,-3.0,1.0,-1.0,3.0,-1.0,-1.0,0.0
1701961589.4490378,1.0,2.0,11.0,2.0,-1.0,0.0,-2.0,-2.0
1701961589.4490378,-3.0,-2.0,-1.0,1.0,-1.0,2.0,0.0,-2.0
1701961589.4490378,-2.0,1.0,-12.0,-2.0,2.0,2.0,1.0,1.0
1701961589.4490378,-2.0,0.0,2.0,1.0,-2.0,-2.0,-3.0,-1.0
1701961589.4687536,-1.0,-4.0,-7.0,-3.0,-3.0,-5.0,-1.0,-2.0
1701961589.4687536,4.0,4.0,28.0,8.0,2.0,1.0,-3.0,-1.0
1701961589.4687536,-2.0,0.0,-14.0,-12.0,-3.0,-3.0,-2.0,-4.0
1701961589.4687536,-9.0,-8.0,-6.0,-6.0,-1.0,0.0,-1.0,-2.0
1701961589.4888325,-4.0,-12.0,1.0,2.0,0.0,-1.0,1.0,-2.0
1701961589.4888325,4.0,7.0,3.0,2.0,4.0,0.0,-1.0,-1.0
1701961589.4888325,1.0,-1.0,3.0,1.0,1.0,6.0,2.0,1.0
1701961589.4888325,2.0,0.0,-4.0,5.0,3.0,-3.0,-5.0,-3.0
1701961589.5091934,-5.0,3.0,3.0,-6.0,-4.0,-6.0,-1.0,-2.0
1701961589.5091934,-1.0,-4.0,8.0,1.0,-5.0,-2.0,-4.0,-3.0
1701961589.5091934,0.0,-1.0,-10.0,-2.0,-4.0,-8.0,-2.0,-2.0
1701961589.5091934,3.0,-4.0,-10.0,-2.0,7.0,7.0,3.0,4.0
1701961589.5287745,-3.0,-6.0,-27.0,-10.0,-6.0,-4.0,-2.0,-3.0
1701961589.5287745,-4.0,-1.0,1.0,0.0,-4.0,-8.0,-6.0,-4.0
1701961589.5287745,1.0,6.0,17.0,9.0,5.0,2.0,2.0,6.0
1701961589.5287745,2.0,-8.0,-12.0,-13.0,-10.0,-1.0,-2.0,-2.0
1701961589.548874,-4.0,-2.0,9.0,6.0,3.0,1.0,-1.0,-4.0
1701961589.548874,2.0,5.0,-4.0,2.0,0.0,0.0,0.0,-1.0
1701961589.548874,0.0,2.0,-7.0,-7.0,1.0,1.0,-1.0,-2.0
1701961589.548874,-2.0,3.0,37.0,14.0,4.0,4.0,1.0,-1.0
1701961589.5692084,-1.0,-11.0,-44.0,-5.0,-2.0,0.0,-3.0,0.0
1701961589.5692084,-3.0,-4.0,0.0,-11.0,-8.0,-2.0,-1.0,-2.0
1701961589.5692084,-1.0,1.0,9.0,2.0,2.0,0.0,1.0,-2.0
1701961589.5692084,-3.0,-4.0,-20.0,-7.0,-4.0,-4.0,-2.0,-1.0
1701961589.5888934,1.0,7.0,17.0,1.0,4.0,6.0,1.0,0.0
1701961589.5888934,-2.0,0.0,1.0,2.0,-3.0,-1.0,1.0,-1.0
1701961589.5888934,1.0,1.0,6.0,6.0,-1.0,-5.0,-3.0,-2.0
1701961589.5888934,-1.0,1.0,-15.0,-16.0,-1.0,6.0,5.0,-1.0
1701961589.6087883,-1.0,1.0,13.0,4.0,-1.0,-4.0,-2.0,-2.0
1701961589.6087883,0.0,-5.0,-18.0,-5.0,-3.0,5.0,2.0,-1.0
1701961589.6087883,6.0,-3.0,1.0,-3.0,0.0,-4.0,-3.0,-1.0
1701961589.6087883,-7.0,3.0,9.0,2.0,-1.0,-5.0,-3.0,1.0
1701961589.6291049,-1.0,3.0,14.0,4.0,1.0,2.0,-1.0,-2.0
1701961589.6291049,1.0,-7.0,-18.0,-4.0,5.0,2.0,0.0,3.0
1701961589.6291049,-1.0,2.0,1.0,3.0,-5.0,-2.0,-2.0,-1.0
1701961589.6291049,1.0,0.0,-2.0,-8.0,-4.0,-5.0,-2.0,-2.0
1701961589.6488903,-1.0,3.0,6.0,-1.0,-5.0,-5.0,-1.0,0.0
1701961589.6488903,5.0,3.0,0.0,5.0,0.0,-3.0,-2.0,-1.0
1701961589.6488903,-4.0,-6.0,2.0,1.0,0.0,3.0,-3.0,-2.0
1701961589.6488903,-2.0,0.0,-6.0,7.0,0.0,1.0,1.0,0.0
1701961589.6688414,2.0,1.0,5.0,1.0,0.0,-8.0,-1.0,1.0
1701961589.6688414,-2.0,-5.0,-3.0,-5.0,-1.0,2.0,0.0,0.0
1701961589.6688414,2.0,-3.0,-7.0,-1.0,-2.0,-2.0,-5.0,-3.0
1701961589.6688414,2.0,2.0,14.0,3.0,-2.0,-3.0,0.0,1.0
1701961589.689285,-1.0,0.0,-26.0,-19.0,-5.0,-10.0,-2.0,-3.0
1701961589.689285,-3.0,-1.0,10.0,8.0,-1.0,5.0,-2.0,-1.0
1701961589.689285,-2.0,-9.0,-8.0,-4.0,4.0,3.0,4.0,0.0
1701961589.689285,-3.0,-1.0,1.0,3.0,2.0,-6.0,-2.0,-4.0
1701961589.7138863,1.0,2.0,7.0,4.0,0.0,7.0,0.0,-1.0
1701961589.7138863,6.0,5.0,3.0,0.0,-2.0,-9.0,-3.0,1.0
1701961589.7157862,-10.0,-5.0,-11.0,-6.0,-9.0,2.0,-1.0,-2.0
1701961589.7157862,1.0,1.0,-2.0,1.0,1.0,3.0,0.0,0.0
1701961589.7280052,-1.0,-1.0,6.0,1.0,0.0,1.0,-2.0,0.0
1701961589.7287414,-3.0,0.0,-8.0,-3.0,-1.0,-4.0,-2.0,-2.0
1701961589.7308555,0.0,4.0,5.0,-2.0,0.0,-3.0,0.0,0.0
1701961589.7308555,0.0,-5.0,-15.0,-1.0,-1.0,-1.0,1.0,0.0
1701961589.7508566,-3.0,2.0,18.0,4.0,2.0,4.0,0.0,1.0
1701961589.7508566,-2.0,-1.0,-16.0,-1.0,0.0,-1.0,1.0,0.0
1701961589.7508566,-2.0,2.0,0.0,-2.0,1.0,4.0,1.0,-2.0
1701961589.7508566,-1.0,-1.0,29.0,9.0,1.0,-5.0,0.0,0.0
1701961589.7711074,-1.0,-9.0,-28.0,-17.0,-7.0,3.0,0.0,-3.0
1701961589.7711074,-3.0,-8.0,-21.0,-8.0,0.0,-3.0,-2.0,-1.0
1701961589.7711074,-1.0,-2.0,-7.0,0.0,-4.0,0.0,0.0,-1.0
1701961589.7711074,1.0,2.0,5.0,-1.0,4.0,1.0,0.0,-1.0
1701961589.7812383,3.0,4.0,21.0,9.0,-2.0,-3.0,0.0,-1.0
1701961589.7812383,-3.0,0.0,1.0,1.0,-1.0,-9.0,-2.0,0.0
1701961589.7911012,-6.0,-6.0,-1.0,-8.0,-7.0,-2.0,-4.0,-2.0
1701961589.7911012,-1.0,-4.0,-8.0,2.0,0.0,13.0,2.0,-2.0
1701961589.810857,0.0,-1.0,1.0,3.0,0.0,-3.0,-1.0,0.0
1701961589.810857,0.0,-1.0,-4.0,-7.0,-1.0,-3.0,-2.0,-2.0
1701961589.810857,2.0,0.0,2.0,6.0,4.0,1.0,2.0,1.0
1701961589.810857,-2.0,3.0,2.0,-3.0,-9.0,-18.0,-4.0,-3.0
1701961589.8311727,1.0,1.0,0.0,-1.0,7.0,13.0,0.0,0.0
1701961589.8311727,-3.0,-8.0,-6.0,4.0,1.0,-2.0,-3.0,-4.0
1701961589.8311727,3.0,5.0,3.0,-5.0,0.0,15.0,4.0,2.0
1701961589.8311727,-4.0,-2.0,-3.0,-2.0,-1.0,6.0,-3.0,-1.0
1701961589.8411329,-5.0,-7.0,2.0,-3.0,-5.0,-10.0,-6.0,-3.0
1701961589.8411329,1.0,2.0,11.0,4.0,-1.0,-2.0,3.0,1.0
1701961589.8510733,1.0,-2.0,-1.0,-2.0,-2.0,-7.0,-3.0,-2.0
1701961589.8510733,1.0,-3.0,-15.0,-7.0,-8.0,-6.0,1.0,0.0
1701961589.8808553,6.0,1.0,6.0,7.0,3.0,-6.0,0.0,-2.0
1701961589.8808553,-11.0,-2.0,-4.0,1.0,-1.0,12.0,-1.0,-2.0
1701961589.8808553,-3.0,-6.0,-6.0,-4.0,-8.0,-7.0,-2.0,-1.0
1701961589.8808553,1.0,4.0,-1.0,2.0,7.0,2.0,-2.0,-1.0
1701961589.8911996,-7.0,-1.0,3.0,-4.0,-3.0,-8.0,-4.0,-3.0
1701961589.8911996,3.0,-2.0,-6.0,-7.0,-2.0,-18.0,-8.0,-2.0
1701961589.8911996,2.0,3.0,0.0,-1.0,1.0,8.0,0.0,-1.0
1701961589.8911996,-2.0,-1.0,-7.0,-2.0,2.0,28.0,11.0,2.0
1701961589.901318,-2.0,-2.0,8.0,0.0,1.0,4.0,5.0,0.0
1701961589.901318,-1.0,3.0,-7.0,-1.0,0.0,-15.0,-4.0,1.0
1701961589.9116914,0.0,0.0,-4.0,-3.0,-3.0,15.0,4.0,-2.0
1701961589.9116914,-2.0,0.0,-1.0,-1.0,-4.0,-17.0,-6.0,-1.0
1701961589.9313462,-3.0,-3.0,-2.0,7.0,2.0,5.0,-1.0,-3.0
1701961589.9313462,-1.0,0.0,8.0,-5.0,-4.0,6.0,0.0,0.0
1701961589.9313462,6.0,1.0,2.0,5.0,7.0,-14.0,-4.0,1.0
1701961589.9313462,-6.0,-5.0,-14.0,-3.0,-4.0,-4.0,-3.0,-1.0
1701961589.9516466,-4.0,1.0,6.0,-2.0,-5.0,-3.0,-3.0,-2.0
1701961589.9516466,-2.0,-3.0,-3.0,-4.0,-4.0,-1.0,-3.0,-2.0
1701961589.9516466,-2.0,0.0,-6.0,-5.0,-3.0,-5.0,-3.0,-5.0
1701961589.9516466,3.0,1.0,0.0,2.0,0.0,2.0,0.0,-1.0
1701961589.9616134,-5.0,2.0,0.0,-2.0,-3.0,-7.0,0.0,3.0
1701961589.9616134,0.0,5.0,13.0,2.0,3.0,5.0,-3.0,-3.0
1701961589.9913301,-1.0,-7.0,-10.0,2.0,3.0,-7.0,2.0,2.0
1701961589.9913301,-3.0,-1.0,-5.0,-2.0,-1.0,6.0,2.0,-2.0
1701961589.9913301,4.0,-8.0,-5.0,-3.0,-3.0,-1.0,-3.0,-2.0
1701961589.9913301,-5.0,3.0,13.0,0.0,-4.0,-6.0,-1.0,-1.0
1701961589.9913301,0.0,-2.0,1.0,1.0,3.0,5.0,4.0,1.0
1701961589.9913301,-1.0,2.0,-16.0,-5.0,-9.0,-18.0,-6.0,-2.0
1701961590.011643,-2.0,-7.0,-4.0,-2.0,4.0,7.0,-2.0,-2.0
1701961590.011643,2.0,3.0,-5.0,-2.0,-5.0,2.0,3.0,1.0
1701961590.011643,-2.0,-4.0,-1.0,-2.0,-2.0,-28.0,-11.0,-5.0
1701961590.011643,-1.0,-6.0,0.0,-2.0,2.0,32.0,5.0,-2.0
1701961590.021505,0.0,2.0,-31.0,-10.0,-5.0,-3.0,-1.0,1.0
1701961590.021505,-1.0,-3.0,11.0,5.0,-2.0,-2.0,1.0,-1.0
1701961590.0513299,1.0,5.0,1.0,-3.0,-4.0,-2.0,0.0,-2.0
1701961590.0513299,-3.0,0.0,7.0,3.0,1.0,-9.0,-2.0,-1.0
1701961590.0513299,2.0,-1.0,-5.0,2.0,0.0,-2.0,-1.0,-1.0
1701961590.0513299,-6.0,-8.0,-2.0,-1.0,4.0,8.0,1.0,-1.0
1701961590.0513299,-3.0,1.0,2.0,0.0,-5.0,-2.0,0.0,0.0
1701961590.0513299,7.0,4.0,6.0,-3.0,-4.0,-11.0,-6.0,-4.0
1701961590.0715528,-3.0,2.0,6.0,6.0,3.0,2.0,0.0,-1.0
1701961590.0715528,0.0,-12.0,-17.0,-3.0,2.0,-1.0,1.0,-2.0
1701961590.0715528,-3.0,1.0,5.0,-5.0,-4.0,2.0,-1.0,1.0
1701961590.0715528,-2.0,-1.0,4.0,0.0,1.0,-4.0,-2.0,-1.0
1701961590.091334,-2.0,-1.0,8.0,-3.0,-7.0,-4.0,-2.0,1.0
1701961590.091334,3.0,8.0,-12.0,0.0,1.0,4.0,1.0,1.0
1701961590.1113286,-4.0,-8.0,-4.0,4.0,4.0,4.0,-2.0,-4.0
1701961590.1113286,-4.0,-7.0,0.0,-6.0,0.0,-5.0,-3.0,-2.0
1701961590.1113286,1.0,3.0,-6.0,-4.0,-4.0,-4.0,0.0,1.0
1701961590.1113286,-1.0,-6.0,-6.0,0.0,2.0,3.0,-2.0,-15.0
1701961590.1113286,2.0,13.0,16.0,3.0,-2.0,3.0,3.0,15.0
1701961590.1113286,-4.0,-11.0,-8.0,-1.0,-2.0,-5.0,-2.0,-1.0
1701961590.1316764,-2.0,-4.0,0.0,-2.0,-1.0,1.0,0.0,-1.0
1701961590.1316764,0.0,5.0,20.0,3.0,2.0,0.0,0.0,-1.0
1701961590.1316764,-5.0,2.0,1.0,1.0,2.0,-4.0,-5.0,-10.0
1701961590.1316764,0.0,-2.0,-6.0,-1.0,-1.0,-2.0,-4.0,-2.0
1701961590.1416476,-3.0,-1.0,-2.0,-4.0,-4.0,-4.0,-1.0,-1.0
1701961590.1416476,0.0,-1.0,1.0,-3.0,-5.0,-2.0,-3.0,-1.0
1701961590.15133,2.0,-5.0,-7.0,-2.0,-3.0,-1.0,1.0,0.0
1701961590.15133,-1.0,6.0,3.0,-3.0,-1.0,-2.0,1.0,2.0
1701961590.171495,-1.0,-4.0,-1.0,5.0,5.0,2.0,-1.0,-3.0
1701961590.171495,1.0,1.0,-5.0,2.0,-3.0,-3.0,-1.0,3.0
1701961590.171495,-4.0,-4.0,-4.0,-3.0,0.0,2.0,0.0,-1.0
1701961590.171495,-2.0,-2.0,2.0,2.0,-1.0,-4.0,-3.0,-4.0
1701961590.2013323,2.0,3.0,3.0,-3.0,-3.0,1.0,-1.0,0.0
1701961590.2013323,-1.0,0.0,2.0,-12.0,-6.0,-1.0,0.0,1.0
1701961590.2013323,-3.0,-8.0,-7.0,4.0,1.0,0.0,-2.0,-3.0
1701961590.2013323,2.0,2.0,4.0,1.0,1.0,-1.0,2.0,1.0
1701961590.2013323,-1.0,-2.0,-2.0,-1.0,2.0,-3.0,-3.0,-2.0
1701961590.2013323,-2.0,4.0,1.0,-7.0,-5.0,-2.0,-2.0,1.0
1701961590.211335,-1.0,-2.0,1.0,-3.0,-7.0,-3.0,-6.0,-6.0
1701961590.211335,-1.0,-2.0,-9.0,-2.0,2.0,-1.0,-1.0,-1.0
1701961590.2314017,-3.0,0.0,0.0,0.0,-3.0,-1.0,-1.0,0.0
1701961590.2314017,-2.0,-1.0,9.0,4.0,2.0,1.0,0.0,-1.0
1701961590.2314017,-2.0,1.0,-10.0,0.0,0.0,-3.0,-1.0,-1.0
1701961590.2314017,0.0,-3.0,1.0,-2.0,-3.0,-2.0,1.0,-1.0
1701961590.253855,0.0,2.0,2.0,-3.0,-7.0,-2.0,1.0,1.0
1701961590.253855,-1.0,-4.0,2.0,1.0,3.0,1.0,-2.0,-1.0
1701961590.255896,-3.0,-11.0,-7.0,1.0,3.0,1.0,0.0,0.0
1701961590.255896,2.0,11.0,7.0,-1.0,-3.0,-1.0,-2.0,1.0
1701961590.2837133,-5.0,-6.0,-7.0,-2.0,-1.0,-1.0,-1.0,-1.0
1701961590.2837133,-6.0,-5.0,-5.0,-5.0,-5.0,-4.0,-3.0,-13.0
1701961590.2837133,5.0,1.0,1.0,-5.0,-3.0,-1.0,4.0,11.0
1701961590.2837133,-3.0,-7.0,-3.0,2.0,2.0,-1.0,-2.0,-4.0
1701961590.2837133,7.0,3.0,13.0,6.0,-1.0,6.0,4.0,19.0
1701961590.2837133,-6.0,3.0,-14.0,-9.0,-2.0,-2.0,-2.0,-14.0
1701961590.2837133,-2.0,-15.0,-7.0,-2.0,-3.0,0.0,-4.0,-5.0
1701961590.2837133,-1.0,0.0,-4.0,-2.0,-3.0,-3.0,0.0,-1.0
1701961590.3141344,-1.0,1.0,4.0,4.0,5.0,1.0,-1.0,-5.0
1701961590.3141344,2.0,-1.0,3.0,4.0,0.0,-2.0,-2.0,-7.0
1701961590.3141344,0.0,16.0,3.0,-7.0,-2.0,-5.0,5.0,15.0
1701961590.3141344,-8.0,-17.0,-10.0,-6.0,-6.0,5.0,-1.0,-15.0
1701961590.3241682,0.0,-4.0,-9.0,-4.0,-4.0,-4.0,-1.0,3.0
1701961590.3241682,6.0,8.0,13.0,10.0,12.0,4.0,1.0,5.0
1701961590.3344173,-5.0,-6.0,-13.0,-10.0,-11.0,-11.0,-10.0,-12.0
1701961590.3344173,2.0,8.0,10.0,2.0,0.0,-15.0,-1.0,0.0
1701961590.3444207,-3.0,3.0,-3.0,0.0,4.0,31.0,3.0,-11.0
1701961590.3444207,3.0,5.0,8.0,8.0,6.0,2.0,1.0,11.0
1701961590.3444207,-5.0,-16.0,-16.0,-9.0,-3.0,-5.0,-4.0,-8.0
1701961590.3444207,1.0,6.0,11.0,0.0,0.0,-6.0,-7.0,-11.0
1701961590.3941345,1.0,-2.0,-6.0,-3.0,-5.0,-11.0,0.0,11.0
1701961590.3941345,5.0,4.0,-1.0,2.0,-4.0,-1.0,3.0,18.0
1701961590.3941345,-6.0,-5.0,4.0,0.0,0.0,4.0,-3.0,-10.0
1701961590.3941345,-1.0,2.0,-1.0,-1.0,-1.0,-1.0,-4.0,-2.0
1701961590.3941345,1.0,0.0,-1.0,5.0,5.0,-6.0,-2.0,-4.0
1701961590.3941345,-2.0,1.0,3.0,0.0,-1.0,2.0,-1.0,2.0
1701961590.3941345,1.0,4.0,1.0,4.0,0.0,-1.0,-2.0,3.0
1701961590.3941345,-4.0,-6.0,-9.0,-8.0,-4.0,-4.0,4.0,5.0
1701961590.4041684,-1.0,3.0,12.0,5.0,4.0,13.0,0.0,-6.0
1701961590.4041684,-7.0,-12.0,-14.0,-7.0,-10.0,-8.0,-2.0,1.0
1701961590.4041684,1.0,1.0,2.0,2.0,5.0,-3.0,-1.0,-4.0
1701961590.4041684,0.0,4.0,7.0,3.0,1.0,14.0,0.0,4.0
1701961590.434137,-1.0,2.0,-6.0,-6.0,-5.0,-1.0,-1.0,2.0
1701961590.434137,-3.0,-8.0,-1.0,1.0,3.0,-6.0,1.0,-6.0
1701961590.434137,2.0,5.0,4.0,1.0,0.0,21.0,4.0,-2.0
1701961590.434137,0.0,-5.0,-1.0,0.0,-3.0,-5.0,-2.0,3.0
1701961590.4545517,-4.0,-5.0,-11.0,-10.0,-5.0,-11.0,-3.0,-4.0
1701961590.4545517,0.0,1.0,6.0,2.0,-2.0,0.0,-2.0,-1.0
1701961590.4545517,-1.0,5.0,5.0,-3.0,2.0,-4.0,0.0,3.0
1701961590.4545517,0.0,-10.0,-24.0,-6.0,-3.0,-2.0,-2.0,2.0
1701961590.464532,-5.0,-3.0,3.0,-4.0,-3.0,-5.0,-2.0,-5.0
1701961590.464532,-1.0,0.0,10.0,1.0,-2.0,-5.0,-1.0,0.0
1701961590.464532,0.0,1.0,-7.0,3.0,3.0,8.0,3.0,0.0
1701961590.464532,0.0,1.0,5.0,-2.0,-4.0,-1.0,2.0,0.0
1701961590.4941354,-1.0,-7.0,-13.0,0.0,0.0,-5.0,-5.0,-7.0
1701961590.4941354,-2.0,-1.0,-1.0,-1.0,1.0,-1.0,-3.0,-1.0
1701961590.4941354,0.0,2.0,12.0,-2.0,-5.0,-4.0,0.0,1.0
1701961590.4941354,-2.0,-5.0,-21.0,-1.0,-4.0,-3.0,-3.0,1.0
1701961590.514529,2.0,3.0,8.0,3.0,3.0,-1.0,1.0,0.0
1701961590.514529,-2.0,-8.0,-2.0,1.0,-6.0,3.0,2.0,1.0
1701961590.514529,1.0,1.0,-1.0,-3.0,1.0,-4.0,-5.0,-7.0
1701961590.514529,1.0,2.0,11.0,4.0,5.0,-1.0,1.0,15.0
1701961590.524515,-6.0,-4.0,-10.0,-9.0,-10.0,-7.0,-5.0,-8.0
1701961590.524515,1.0,-1.0,-4.0,-4.0,0.0,-4.0,-5.0,-2.0
1701961590.524515,-1.0,-1.0,-4.0,0.0,-4.0,-6.0,-1.0,-1.0
1701961590.524515,1.0,1.0,0.0,2.0,0.0,3.0,0.0,-4.0
1701961590.5541382,2.0,3.0,8.0,0.0,6.0,-1.0,0.0,1.0
1701961590.5541382,0.0,-1.0,-1.0,0.0,-3.0,0.0,-1.0,0.0
1701961590.5541382,-4.0,-2.0,0.0,-1.0,-4.0,-1.0,-5.0,-5.0
1701961590.5541382,-1.0,-2.0,7.0,-5.0,-1.0,-3.0,-4.0,-3.0
1701961590.574389,-2.0,-8.0,-7.0,0.0,1.0,-1.0,-1.0,-1.0
1701961590.574389,-2.0,-1.0,-17.0,-4.0,-6.0,-3.0,0.0,-3.0
1701961590.574389,-3.0,-2.0,7.0,1.0,2.0,-2.0,3.0,1.0
1701961590.574389,0.0,9.0,-8.0,-13.0,-5.0,-2.0,-3.0,-4.0
1701961590.5844033,-3.0,-3.0,2.0,6.0,0.0,0.0,1.0,0.0
1701961590.5844033,-2.0,4.0,9.0,0.0,1.0,1.0,0.0,-2.0
1701961590.6141365,1.0,-5.0,-1.0,4.0,-6.0,-6.0,-3.0,-2.0
1701961590.6141365,2.0,-3.0,3.0,3.0,10.0,7.0,3.0,2.0
1701961590.6141365,-4.0,-2.0,-4.0,-6.0,-4.0,-6.0,-5.0,-4.0
1701961590.6141365,1.0,2.0,-1.0,-3.0,2.0,1.0,0.0,1.0
1701961590.6141365,-1.0,-1.0,-5.0,0.0,-3.0,-3.0,-2.0,0.0
1701961590.6141365,-3.0,-3.0,3.0,1.0,-7.0,-5.0,-2.0,-3.0
1701961590.634451,0.0,3.0,4.0,3.0,2.0,0.0,-1.0,-2.0
1701961590.634451,0.0,-1.0,-4.0,-6.0,1.0,1.0,-1.0,1.0
1701961590.634451,-1.0,1.0,-1.0,5.0,2.0,3.0,-1.0,1.0
1701961590.634451,-1.0,1.0,4.0,6.0,3.0,0.0,-1.0,-2.0
1701961590.6441343,-5.0,-1.0,-4.0,-5.0,-10.0,-5.0,-3.0,-2.0
1701961590.6441343,-1.0,-4.0,-6.0,-11.0,0.0,-2.0,-3.0,-3.0
1701961590.6541677,3.0,6.0,1.0,-5.0,0.0,2.0,1.0,1.0
1701961590.6541677,-5.0,-1.0,8.0,6.0,0.0,-1.0,-1.0,-3.0
1701961590.6741352,0.0,-11.0,-10.0,-5.0,-5.0,-4.0,0.0,-1.0
1701961590.6741352,-8.0,-11.0,-5.0,-4.0,-6.0,-1.0,-4.0,-3.0
1701961590.6741352,-1.0,7.0,-1.0,0.0,0.0,-2.0,0.0,1.0
1701961590.6741352,0.0,2.0,-4.0,0.0,-1.0,-1.0,-1.0,-4.0
1701961590.694553,1.0,3.0,15.0,4.0,4.0,4.0,0.0,0.0
1701961590.694553,-3.0,-17.0,-22.0,-10.0,-12.0,-7.0,-3.0,-4.0
1701961590.694553,1.0,6.0,10.0,5.0,8.0,0.0,-1.0,0.0
1701961590.694553,2.0,8.0,8.0,1.0,-4.0,-2.0,0.0,0.0
1701961590.7041347,-6.0,-10.0,-21.0,-16.0,-9.0,-5.0,-2.0,1.0
1701961590.7041347,2.0,3.0,5.0,6.0,4.0,1.0,1.0,12.0
1701961590.714158,0.0,4.0,30.0,15.0,7.0,3.0,-1.0,-12.0
1701961590.714158,-4.0,-21.0,-39.0,-22.0,-8.0,-5.0,-6.0,-7.0
1701961590.7341359,6.0,27.0,13.0,5.0,1.0,-2.0,-4.0,-14.0
1701961590.7341359,-4.0,-5.0,-20.0,-4.0,-4.0,-1.0,4.0,6.0
1701961590.7341359,2.0,3.0,11.0,1.0,-2.0,-2.0,3.0,13.0
1701961590.7341359,-5.0,-7.0,2.0,0.0,0.0,5.0,11.0,18.0
1701961590.7541351,5.0,12.0,12.0,10.0,7.0,0.0,-15.0,-24.0
1701961590.7541351,-5.0,-8.0,-20.0,-8.0,-5.0,-5.0,3.0,0.0
1701961590.7541351,-2.0,-5.0,5.0,-1.0,-2.0,0.0,-2.0,-5.0
1701961590.7541351,-1.0,9.0,7.0,0.0,0.0,0.0,4.0,3.0
1701961590.7710555,-3.0,-13.0,-7.0,-4.0,-2.0,-8.0,-8.0,-5.0
1701961590.7710555,9.0,16.0,27.0,15.0,1.0,0.0,1.0,-3.0
1701961590.7776566,2.0,2.0,-19.0,-10.0,2.0,4.0,1.0,10.0
1701961590.7776566,-11.0,-23.0,-8.0,-2.0,-4.0,-4.0,-13.0,-26.0
1701961590.7936895,-6.0,-9.0,-5.0,0.0,9.0,-2.0,6.0,12.0
1701961590.7944214,4.0,7.0,15.0,6.0,2.0,-7.0,-6.0,-2.0
1701961590.7949154,-4.0,-3.0,-6.0,-5.0,-8.0,-2.0,-2.0,2.0
1701961590.7949154,7.0,13.0,4.0,0.0,-3.0,-8.0,-2.0,1.0
1701961590.816295,-4.0,-13.0,-9.0,-6.0,-2.0,4.0,3.0,5.0
1701961590.816295,-3.0,-8.0,-4.0,-4.0,2.0,3.0,0.0,-1.0
1701961590.816295,-5.0,-9.0,-17.0,-6.0,-8.0,-9.0,-3.0,-7.0
1701961590.816295,2.0,8.0,10.0,7.0,1.0,5.0,-1.0,1.0
1701961590.8265495,-2.0,-1.0,7.0,3.0,5.0,1.0,6.0,3.0
1701961590.8265495,1.0,14.0,9.0,0.0,-3.0,-1.0,-2.0,-3.0
1701961590.8365574,-3.0,-18.0,-21.0,-5.0,1.0,-4.0,-1.0,-4.0
1701961590.8365574,1.0,5.0,7.0,-1.0,-2.0,5.0,-1.0,-2.0
1701961590.8466015,-5.0,-4.0,-8.0,-3.0,-7.0,-6.0,-3.0,-12.0
1701961590.8466015,3.0,6.0,4.0,1.0,5.0,11.0,9.0,15.0
1701961590.8466015,0.0,-13.0,-6.0,1.0,4.0,7.0,2.0,-3.0
1701961590.856299,0.0,2.0,2.0,2.0,1.0,0.0,1.0,1.0
1701961590.8766143,2.0,1.0,5.0,-1.0,-4.0,-9.0,-2.0,1.0
1701961590.8766143,-3.0,-3.0,-11.0,-6.0,-2.0,6.0,-5.0,-9.0
1701961590.896298,-2.0,-6.0,1.0,-1.0,-2.0,-6.0,-1.0,-4.0
1701961590.896298,0.0,4.0,-4.0,1.0,3.0,-3.0,1.0,3.0
1701961590.9062948,-4.0,-2.0,8.0,4.0,3.0,4.0,4.0,4.0
1701961590.9062948,-2.0,-6.0,-7.0,-5.0,-3.0,5.0,-1.0,-10.0
1701961590.9062948,-1.0,3.0,5.0,-7.0,-4.0,6.0,3.0,6.0
1701961590.9062948,-4.0,-10.0,-9.0,-8.0,-8.0,-6.0,-5.0,-6.0
1701961590.9062948,3.0,10.0,-1.0,-5.0,-2.0,-1.0,1.0,6.0
1701961590.9062948,-4.0,-4.0,-1.0,-3.0,3.0,-3.0,-5.0,-7.0
1701961590.9062948,0.0,0.0,-3.0,-1.0,-5.0,-6.0,1.0,-5.0
1701961590.9062948,2.0,2.0,9.0,5.0,3.0,0.0,0.0,1.0
1701961590.936629,2.0,-3.0,-1.0,3.0,4.0,5.0,1.0,5.0
1701961590.936629,-2.0,-4.0,-4.0,-2.0,-3.0,-6.0,-1.0,-1.0
1701961590.936629,0.0,1.0,2.0,-1.0,0.0,0.0,-4.0,-6.0
1701961590.936629,1.0,11.0,0.0,-4.0,-9.0,-30.0,-13.0,1.0
1701961590.9468462,3.0,4.0,-3.0,7.0,9.0,42.0,16.0,17.0
1701961590.9468462,-5.0,-5.0,8.0,4.0,4.0,-9.0,-4.0,-6.0
1701961590.9568489,-7.0,-13.0,-20.0,-8.0,-8.0,-10.0,-4.0,-5.0
1701961590.9568489,-1.0,-2.0,2.0,1.0,-2.0,-2.0,0.0,-5.0
1701961590.9766378,-2.0,-2.0,-8.0,-9.0,-12.0,-8.0,-7.0,-6.0
1701961590.9766378,4.0,6.0,21.0,7.0,-1.0,0.0,-2.0,3.0
1701961590.9766378,-1.0,2.0,-6.0,0.0,2.0,4.0,-1.0,0.0
1701961590.9766378,-4.0,-7.0,-6.0,-5.0,2.0,-1.0,-1.0,-2.0
1701961590.9966605,1.0,1.0,3.0,1.0,1.0,-4.0,-1.0,0.0
1701961590.9966605,-3.0,-3.0,-3.0,-1.0,-4.0,-1.0,-1.0,-3.0
1701961590.9966605,0.0,-2.0,0.0,0.0,-8.0,-6.0,-4.0,-1.0
1701961590.9966605,4.0,15.0,9.0,4.0,11.0,10.0,2.0,1.0
1701961591.00697,-4.0,-7.0,-10.0,-2.0,-2.0,-6.0,-7.0,7.0
1701961591.00697,-3.0,-2.0,4.0,-3.0,0.0,-5.0,-1.0,-15.0
1701961591.0170329,0.0,-2.0,-1.0,0.0,-1.0,-5.0,-2.0,-1.0
1701961591.0170329,-3.0,2.0,5.0,-3.0,-4.0,6.0,2.0,5.0
1701961591.036673,-2.0,-6.0,0.0,0.0,-5.0,-9.0,-5.0,-8.0
1701961591.036673,-4.0,-2.0,-10.0,1.0,2.0,-5.0,-3.0,-1.0
1701961591.036673,-1.0,10.0,2.0,-4.0,2.0,3.0,2.0,2.0
1701961591.036673,-3.0,-16.0,-3.0,3.0,0.0,3.0,2.0,-5.0
1701961591.05671,0.0,5.0,5.0,-7.0,-6.0,-8.0,-1.0,2.0
1701961591.05671,-1.0,-5.0,-4.0,3.0,-2.0,2.0,-1.0,0.0
1701961591.05671,3.0,6.0,8.0,2.0,-3.0,-3.0,0.0,0.0
1701961591.05671,-3.0,-3.0,-14.0,-4.0,0.0,-2.0,-5.0,-1.0
1701961591.0670557,1.0,1.0,4.0,2.0,0.0,-1.0,-1.0,-2.0
1701961591.0670557,4.0,6.0,3.0,2.0,0.0,0.0,-1.0,3.0
1701961591.0773947,-2.0,-1.0,1.0,-2.0,2.0,3.0,1.0,-1.0
1701961591.0773947,-2.0,-4.0,-3.0,-5.0,-4.0,-2.0,-3.0,-1.0
1701961591.0970683,0.0,-7.0,-2.0,0.0,1.0,-7.0,-1.0,0.0
1701961591.0970683,0.0,1.0,-4.0,-3.0,-4.0,3.0,-4.0,-2.0
1701961591.0970683,0.0,-6.0,-1.0,0.0,0.0,-8.0,-5.0,-1.0
1701961591.0970683,-1.0,-6.0,-6.0,1.0,-6.0,1.0,0.0,0.0
1701961591.117071,-2.0,2.0,-1.0,0.0,2.0,-5.0,-3.0,-5.0
1701961591.117071,0.0,-5.0,-5.0,-4.0,-3.0,-1.0,2.0,2.0
1701961591.117071,0.0,4.0,14.0,7.0,1.0,5.0,-3.0,1.0
1701961591.117071,1.0,-1.0,-8.0,-10.0,-2.0,0.0,0.0,0.0
1701961591.12736,-1.0,-5.0,-3.0,0.0,-3.0,0.0,0.0,-4.0
1701961591.12736,-3.0,-2.0,-7.0,-5.0,0.0,-1.0,-2.0,-2.0
1701961591.1373713,-1.0,-2.0,-2.0,-2.0,-2.0,1.0,-2.0,-1.0
1701961591.1373713,2.0,13.0,11.0,7.0,6.0,3.0,4.0,0.0
1701961591.1570659,-1.0,2.0,9.0,2.0,-1.0,0.0,1.0,2.0
1701961591.1570659,-2.0,-8.0,-17.0,-3.0,5.0,3.0,-1.0,1.0
1701961591.1570659,2.0,1.0,-1.0,-7.0,-10.0,-4.0,-2.0,-2.0
1701961591.1570659,-1.0,-2.0,2.0,1.0,1.0,-1.0,-1.0,0.0
1701961591.177072,-1.0,0.0,-2.0,0.0,-1.0,3.0,0.0,-2.0
1701961591.177072,-1.0,1.0,11.0,2.0,0.0,-2.0,0.0,0.0
1701961591.177072,-3.0,1.0,0.0,1.0,-2.0,-2.0,0.0,-1.0
1701961591.177072,0.0,-2.0,-12.0,-9.0,-4.0,0.0,0.0,-1.0
1701961591.1873627,0.0,2.0,10.0,1.0,-1.0,-3.0,-6.0,0.0
1701961591.1873627,0.0,-2.0,-8.0,-5.0,-4.0,1.0,1.0,1.0
1701961591.1973588,-3.0,0.0,4.0,2.0,3.0,-1.0,-2.0,0.0
1701961591.1973588,-1.0,-7.0,0.0,0.0,-1.0,0.0,-1.0,-3.0
1701961591.2270691,-4.0,3.0,-10.0,-1.0,0.0,-3.0,3.0,2.0
1701961591.2270691,0.0,0.0,6.0,2.0,-2.0,-1.0,-2.0,-2.0
1701961591.237066,-2.0,2.0,-6.0,-5.0,1.0,-2.0,1.0,-2.0
1701961591.237066,2.0,-2.0,3.0,2.0,-2.0,1.0,0.0,13.0
1701961591.237066,-8.0,-3.0,-4.0,-4.0,0.0,-4.0,-4.0,-18.0
1701961591.237066,-1.0,-6.0,-2.0,2.0,0.0,1.0,0.0,0.0
1701961591.237066,-3.0,-7.0,-4.0,-2.0,-3.0,-7.0,-2.0,1.0
1701961591.237066,-3.0,9.0,3.0,0.0,-1.0,0.0,-2.0,-4.0
1701961591.2473953,2.0,1.0,-2.0,-1.0,3.0,4.0,0.0,3.0
1701961591.2473953,-1.0,0.0,-1.0,-2.0,-5.0,-9.0,-2.0,-1.0
1701961591.2670665,1.0,-8.0,-8.0,-3.0,0.0,2.0,-1.0,-2.0
1701961591.2670665,1.0,2.0,-2.0,0.0,-5.0,-3.0,-2.0,-6.0
1701961591.2670665,-1.0,-5.0,1.0,2.0,1.0,2.0,3.0,2.0
1701961591.2670665,-2.0,1.0,2.0,-1.0,1.0,1.0,0.0,-1.0
1701961591.2670665,1.0,2.0,-10.0,-3.0,-4.0,-2.0,-1.0,-3.0
1701961591.2670665,-4.0,-4.0,3.0,-5.0,-1.0,0.0,-2.0,-4.0
1701961591.2874794,1.0,-4.0,0.0,-3.0,-3.0,-1.0,-1.0,1.0
1701961591.2970693,1.0,0.0,5.0,4.0,2.0,-1.0,-2.0,0.0
1701961591.2978158,-3.0,-3.0,-11.0,-5.0,-1.0,4.0,2.0,-2.0
1701961591.2978158,-3.0,-8.0,-3.0,-5.0,-3.0,-7.0,-6.0,2.0
1701961591.3099325,-2.0,-7.0,-2.0,1.0,-3.0,5.0,1.0,2.0
1701961591.3099325,-1.0,6.0,4.0,1.0,6.0,-1.0,2.0,-4.0
1701961591.318401,-2.0,-1.0,4.0,2.0,-4.0,-4.0,-5.0,4.0
1701961591.318401,4.0,6.0,0.0,3.0,3.0,-5.0,-2.0,3.0
1701961591.329142,-12.0,-19.0,-16.0,-7.0,-6.0,-3.0,-4.0,-17.0
1701961591.329142,-3.0,-7.0,-1.0,-7.0,-6.0,-2.0,-4.0,0.0
1701961591.329142,1.0,5.0,-6.0,1.0,6.0,4.0,-3.0,-18.0
1701961591.329142,-5.0,5.0,0.0,1.0,-1.0,5.0,6.0,20.0
1701961591.3591409,-2.0,-6.0,-10.0,-6.0,-5.0,-5.0,-1.0,4.0
1701961591.3591409,5.0,-3.0,7.0,4.0,-1.0,6.0,2.0,1.0
1701961591.3591409,4.0,21.0,8.0,2.0,1.0,-6.0,-1.0,0.0
1701961591.3591409,-18.0,-41.0,-8.0,-4.0,-3.0,2.0,-3.0,-12.0
1701961591.3791466,1.0,19.0,1.0,-3.0,2.0,-1.0,-1.0,1.0
1701961591.3791466,-13.0,-27.0,-11.0,-9.0,-4.0,-5.0,-3.0,-2.0
1701961591.3791466,3.0,-12.0,8.0,7.0,-2.0,2.0,1.0,5.0
1701961591.3791466,2.0,3.0,0.0,1.0,0.0,-1.0,1.0,-5.0
1701961591.389142,3.0,3.0,-19.0,0.0,6.0,3.0,2.0,3.0
1701961591.389142,-3.0,10.0,3.0,-8.0,-8.0,-5.0,-2.0,-4.0
1701961591.389142,-2.0,0.0,6.0,5.0,3.0,0.0,-1.0,1.0
1701961591.389142,-3.0,-6.0,3.0,-4.0,-6.0,-5.0,-7.0,9.0
1701961591.4095562,-1.0,-4.0,-4.0,2.0,-1.0,0.0,-1.0,-9.0
1701961591.4095562,6.0,14.0,14.0,7.0,2.0,-6.0,-1.0,2.0
1701961591.4095562,-9.0,-8.0,-19.0,-8.0,-5.0,9.0,0.0,-2.0
1701961591.4095562,3.0,10.0,8.0,-4.0,-2.0,-4.0,-4.0,-9.0
1701961591.4391828,2.0,8.0,13.0,0.0,-2.0,-2.0,-2.0,4.0
1701961591.4391828,1.0,2.0,5.0,1.0,-3.0,1.0,-3.0,3.0
1701961591.4391828,-1.0,-6.0,-33.0,-12.0,-1.0,-6.0,2.0,-1.0
1701961591.4391828,-1.0,4.0,14.0,8.0,5.0,5.0,0.0,-9.0
1701961591.4495485,-3.0,-6.0,-6.0,-5.0,0.0,-1.0,-3.0,1.0
1701961591.4495485,-4.0,-6.0,-5.0,3.0,4.0,-1.0,1.0,-5.0
1701961591.4495485,3.0,8.0,9.0,-3.0,-7.0,-4.0,1.0,3.0
1701961591.4495485,4.0,-3.0,-13.0,-1.0,3.0,-1.0,-5.0,-5.0
1701961591.4695501,-6.0,-18.0,-4.0,-5.0,-6.0,-2.0,2.0,2.0
1701961591.4695501,6.0,11.0,1.0,0.0,-2.0,3.0,1.0,1.0
1701961591.4695501,1.0,2.0,8.0,1.0,4.0,3.0,-1.0,2.0
1701961591.4695501,-5.0,-1.0,-11.0,-1.0,-4.0,-5.0,0.0,-1.0
1701961591.4992058,0.0,3.0,24.0,5.0,-4.0,0.0,-3.0,-3.0
1701961591.4992058,-8.0,-7.0,-27.0,-8.0,-2.0,-10.0,-4.0,-2.0
1701961591.4992058,-2.0,-7.0,4.0,3.0,-2.0,9.0,0.0,-1.0
1701961591.4992058,5.0,-5.0,-13.0,-3.0,2.0,-4.0,2.0,-2.0
1701961591.5094435,-4.0,3.0,3.0,2.0,-1.0,-1.0,-5.0,-15.0
1701961591.5094435,7.0,6.0,10.0,-5.0,-1.0,-4.0,2.0,27.0
1701961591.5194063,-6.0,-4.0,-11.0,-1.0,0.0,-3.0,1.0,-8.0
1701961591.5194063,-3.0,-4.0,9.0,1.0,2.0,2.0,2.0,-1.0
1701961591.5291498,6.0,6.0,-15.0,-2.0,-7.0,0.0,-2.0,0.0
1701961591.5291498,-5.0,-4.0,12.0,0.0,11.0,3.0,0.0,-5.0
1701961591.5291498,-5.0,-10.0,1.0,-2.0,-6.0,-10.0,-4.0,1.0
1701961591.5291498,3.0,4.0,-3.0,1.0,0.0,2.0,2.0,0.0
1701961591.5792303,1.0,-1.0,20.0,0.0,-7.0,-5.0,-2.0,4.0
1701961591.5792303,0.0,-1.0,-22.0,-4.0,-3.0,-2.0,-3.0,-5.0
1701961591.5792303,1.0,0.0,-9.0,-1.0,3.0,4.0,2.0,5.0
1701961591.5792303,-2.0,-8.0,-7.0,-5.0,-3.0,4.0,-2.0,-7.0
1701961591.5792303,-2.0,-2.0,3.0,0.0,2.0,-5.0,2.0,4.0
1701961591.5792303,-3.0,-12.0,-5.0,1.0,-1.0,-6.0,-5.0,-6.0
1701961591.5792303,-6.0,5.0,10.0,-2.0,1.0,12.0,-4.0,-6.0
1701961591.5792303,0.0,10.0,8.0,2.0,-3.0,-2.0,1.0,1.0
1701961591.5896227,5.0,-11.0,-9.0,-5.0,-1.0,2.0,-4.0,10.0
1701961591.5896227,-4.0,3.0,11.0,7.0,2.0,3.0,3.0,-11.0
1701961591.5896227,-4.0,4.0,-12.0,-9.0,-9.0,-13.0,-5.0,-5.0
1701961591.5896227,2.0,8.0,13.0,4.0,6.0,3.0,2.0,-2.0
1701961591.6192353,-1.0,-5.0,-21.0,1.0,3.0,0.0,0.0,6.0
1701961591.6192353,-1.0,0.0,6.0,-4.0,-8.0,0.0,1.0,-7.0
1701961591.6192353,1.0,-11.0,5.0,-2.0,-1.0,-2.0,-2.0,3.0
1701961591.6192353,-5.0,-5.0,-9.0,4.0,1.0,6.0,-1.0,-2.0
1701961591.6295402,2.0,11.0,16.0,-3.0,2.0,-2.0,4.0,-1.0
1701961591.6295402,-3.0,-15.0,-32.0,-11.0,-7.0,6.0,-2.0,-1.0
1701961591.6394134,3.0,7.0,16.0,6.0,-4.0,-6.0,0.0,-1.0
1701961591.6394134,3.0,8.0,0.0,-11.0,-7.0,-6.0,-3.0,-1.0
1701961591.6592333,-4.0,0.0,-5.0,6.0,-3.0,-1.0,-3.0,-5.0
1701961591.6592333,0.0,-1.0,19.0,3.0,8.0,6.0,0.0,-1.0
1701961591.6592333,0.0,2.0,-7.0,-3.0,-3.0,-5.0,-1.0,1.0
1701961591.6592333,3.0,0.0,-2.0,2.0,3.0,2.0,0.0,-1.0
1701961591.6792357,-5.0,-6.0,7.0,-3.0,-3.0,-1.0,-4.0,-1.0
1701961591.6792357,-1.0,3.0,2.0,0.0,-3.0,-4.0,0.0,-2.0
1701961591.6792357,-4.0,-10.0,-12.0,-2.0,7.0,-1.0,-4.0,2.0
1701961591.6792357,1.0,4.0,3.0,-3.0,-9.0,-8.0,-3.0,-1.0
1701961591.6893206,0.0,0.0,-8.0,-3.0,1.0,2.0,2.0,-2.0
1701961591.6893206,2.0,2.0,-7.0,1.0,-2.0,-4.0,-2.0,2.0
1701961591.699486,-2.0,-10.0,13.0,6.0,2.0,-1.0,-4.0,-6.0
1701961591.699486,-1.0,3.0,-1.0,-4.0,-2.0,-1.0,0.0,-1.0
1701961591.7292328,0.0,-1.0,-2.0,0.0,1.0,-12.0,-5.0,-1.0
1701961591.7292328,-4.0,-6.0,2.0,-2.0,0.0,19.0,0.0,8.0
1701961591.7292328,-7.0,1.0,6.0,3.0,-3.0,-2.0,1.0,-10.0
1701961591.7292328,0.0,-5.0,-29.0,-6.0,0.0,-3.0,-2.0,4.0
1701961591.7392297,1.0,3.0,12.0,9.0,-3.0,2.0,1.0,-6.0
1701961591.7392297,2.0,2.0,-19.0,-9.0,3.0,-5.0,-1.0,2.0
1701961591.7392297,0.0,-1.0,12.0,1.0,1.0,-1.0,0.0,4.0
1701961591.7392297,-4.0,-14.0,-1.0,2.0,-4.0,0.0,-1.0,0.0
1701961591.749631,-1.0,4.0,-3.0,-3.0,0.0,-3.0,-3.0,-2.0
1701961591.749631,0.0,2.0,0.0,1.0,-5.0,-4.0,-3.0,-4.0
1701961591.7596364,5.0,1.0,-1.0,-2.0,-1.0,0.0,-1.0,2.0
1701961591.7596364,-2.0,-1.0,6.0,1.0,-3.0,-9.0,-4.0,-6.0
1701961591.7692404,0.0,-1.0,-12.0,-4.0,3.0,5.0,1.0,1.0
1701961591.7692404,-2.0,6.0,9.0,6.0,2.0,0.0,-1.0,-4.0
1701961591.7692404,0.0,-1.0,-3.0,0.0,2.0,0.0,1.0,0.0
1701961591.7692404,-3.0,-3.0,0.0,-4.0,-8.0,-6.0,-5.0,-4.0
1701961591.7992337,-3.0,-16.0,-7.0,-6.0,-7.0,-7.0,1.0,-1.0
1701961591.7992337,-3.0,-4.0,-12.0,-6.0,-5.0,5.0,-1.0,-3.0
1701961591.7992337,5.0,-1.0,3.0,-4.0,1.0,-2.0,-1.0,1.0
1701961591.7992337,-6.0,4.0,12.0,10.0,6.0,7.0,3.0,2.0
1701961591.809637,-1.0,2.0,-8.0,-7.0,-1.0,-1.0,-4.0,-2.0
1701961591.809637,-2.0,-2.0,-2.0,0.0,-10.0,-6.0,-1.0,-5.0
1701961591.8203142,3.0,3.0,1.0,-4.0,-2.0,-2.0,1.0,1.0
1701961591.8203142,-2.0,-3.0,-10.0,-4.0,-1.0,3.0,-1.0,1.0
1701961591.838327,-2.0,-3.0,4.0,5.0,1.0,2.0,-1.0,-2.0
1701961591.838327,1.0,0.0,8.0,-4.0,-4.0,-5.0,-1.0,2.0
1701961591.838327,0.0,0.0,-7.0,-1.0,-4.0,0.0,-4.0,-4.0
1701961591.838327,2.0,7.0,11.0,6.0,4.0,0.0,2.0,2.0
1701961591.8556345,-2.0,3.0,3.0,2.0,4.0,-1.0,-1.0,-1.0
1701961591.8556345,0.0,-4.0,-7.0,-5.0,-2.0,-1.0,-2.0,-1.0
1701961591.8556345,-2.0,-4.0,5.0,2.0,-2.0,-2.0,-1.0,1.0
1701961591.8556345,1.0,-2.0,-1.0,1.0,0.0,-2.0,-2.0,-1.0
1701961591.865775,-3.0,-9.0,-15.0,-18.0,-10.0,-2.0,-8.0,-2.0
1701961591.865775,2.0,6.0,0.0,13.0,6.0,3.0,2.0,0.0
1701961591.8955636,-4.0,2.0,5.0,1.0,1.0,0.0,1.0,-2.0
1701961591.8955636,-4.0,-8.0,-10.0,-2.0,-2.0,-2.0,1.0,0.0
1701961591.8955636,10.0,9.0,6.0,1.0,-3.0,-2.0,-3.0,-5.0
1701961591.8955636,-5.0,-1.0,3.0,-1.0,3.0,-4.0,-3.0,0.0
1701961591.8955636,-1.0,-3.0,-3.0,1.0,1.0,2.0,0.0,-12.0
1701961591.8955636,-3.0,-4.0,-5.0,-5.0,-3.0,-4.0,-3.0,-5.0
1701961591.9158347,-1.0,-7.0,6.0,0.0,-7.0,0.0,2.0,2.0
1701961591.9158347,1.0,-4.0,-14.0,-4.0,-1.0,-4.0,-2.0,0.0
1701961591.9158347,4.0,11.0,6.0,4.0,1.0,-1.0,0.0,5.0
1701961591.9158347,-7.0,-8.0,5.0,-4.0,-2.0,-2.0,-3.0,-4.0
1701961591.9258075,-5.0,-6.0,-15.0,-8.0,-1.0,-8.0,3.0,-1.0
1701961591.9258075,1.0,-5.0,2.0,-3.0,-6.0,-3.0,-1.0,2.0
1701961591.9455652,-1.0,-2.0,-6.0,0.0,-1.0,-2.0,-1.0,0.0
1701961591.9455652,-2.0,-2.0,1.0,-3.0,-8.0,1.0,-3.0,-5.0
1701961591.9555967,2.0,8.0,16.0,12.0,9.0,14.0,6.0,3.0
1701961591.9555967,-2.0,-5.0,-16.0,-1.0,5.0,3.0,1.0,-1.0
1701961591.9555967,2.0,5.0,9.0,-2.0,0.0,-1.0,0.0,3.0
1701961591.9555967,-2.0,-5.0,-9.0,-2.0,-2.0,-10.0,-4.0,-6.0
1701961591.9759314,-3.0,-6.0,2.0,-2.0,-3.0,-3.0,1.0,6.0
1701961591.9759314,-2.0,8.0,2.0,-2.0,-4.0,-1.0,-1.0,-5.0
1701961591.9759314,-1.0,-6.0,-6.0,1.0,-1.0,-2.0,0.0,-1.0
1701961591.9759314,1.0,1.0,-2.0,0.0,-1.0,3.0,-1.0,0.0
1701961591.9858787,0.0,5.0,5.0,7.0,3.0,2.0,-1.0,-4.0
1701961591.9858787,-1.0,13.0,4.0,1.0,1.0,5.0,2.0,-10.0
1701961591.9955664,-1.0,-8.0,-5.0,0.0,0.0,6.0,2.0,15.0
1701961591.9955664,-4.0,-14.0,-8.0,-3.0,-3.0,-1.0,-4.0,-4.0
1701961592.0159245,-3.0,-8.0,-23.0,-14.0,-7.0,-6.0,-4.0,-1.0
1701961592.0159245,-1.0,-3.0,-3.0,-1.0,-4.0,-7.0,-3.0,-2.0
1701961592.0159245,-7.0,-3.0,1.0,0.0,-2.0,-2.0,-2.0,-2.0
1701961592.0159245,2.0,7.0,8.0,0.0,1.0,-1.0,0.0,0.0
1701961592.0359223,-1.0,4.0,4.0,0.0,-4.0,-1.0,-3.0,-4.0
1701961592.0359223,2.0,-5.0,4.0,7.0,9.0,1.0,3.0,4.0
1701961592.0359223,-4.0,2.0,-3.0,-2.0,3.0,0.0,-4.0,-2.0
1701961592.0359223,3.0,-3.0,0.0,1.0,2.0,-3.0,3.0,7.0
1701961592.0458903,-2.0,1.0,-2.0,-2.0,-3.0,-2.0,-4.0,-5.0
1701961592.0458903,2.0,3.0,-4.0,-4.0,-7.0,-6.0,-5.0,0.0
1701961592.0558333,-4.0,-1.0,9.0,0.0,-1.0,-1.0,-2.0,-7.0
1701961592.0558333,-4.0,-7.0,-12.0,-2.0,0.0,0.0,4.0,1.0
1701961592.0758638,-2.0,2.0,2.0,1.0,-3.0,-2.0,-2.0,-2.0
1701961592.0758638,0.0,-8.0,3.0,0.0,-4.0,-7.0,-4.0,0.0
1701961592.0855684,3.0,8.0,-5.0,0.0,-1.0,-1.0,7.0,3.0
1701961592.0855684,4.0,1.0,8.0,4.0,7.0,11.0,0.0,0.0
1701961592.0955625,-1.0,-4.0,-1.0,3.0,0.0,5.0,1.0,2.0
1701961592.0955625,-6.0,-1.0,-5.0,-3.0,-3.0,-9.0,-4.0,-2.0
1701961592.0955625,-2.0,-10.0,-13.0,-10.0,-10.0,-19.0,-10.0,-6.0
1701961592.0955625,0.0,10.0,6.0,3.0,2.0,16.0,5.0,0.0
1701961592.105562,0.0,3.0,5.0,1.0,3.0,-2.0,2.0,1.0
1701961592.105562,-3.0,-4.0,-6.0,-4.0,-1.0,-10.0,-2.0,-3.0
1701961592.1155658,-2.0,-3.0,-6.0,-4.0,3.0,16.0,-3.0,-9.0
1701961592.1155658,5.0,3.0,3.0,2.0,-4.0,-7.0,1.0,16.0
1701961592.1358008,-4.0,-9.0,-8.0,2.0,4.0,-4.0,-4.0,-20.0
1701961592.1358008,0.0,8.0,10.0,0.0,-4.0,6.0,-3.0,-2.0
1701961592.1358008,-2.0,-3.0,-5.0,-2.0,0.0,-3.0,2.0,4.0
1701961592.1358008,-1.0,-4.0,0.0,-6.0,-3.0,-5.0,0.0,-2.0
1701961592.1655693,2.0,5.0,5.0,3.0,5.0,7.0,3.0,5.0
1701961592.1655693,2.0,-13.0,-8.0,-2.0,-5.0,-9.0,-4.0,-5.0
1701961592.1655693,-1.0,5.0,-2.0,-1.0,-3.0,-4.0,-2.0,-3.0
1701961592.1655693,2.0,-1.0,0.0,-1.0,2.0,5.0,-2.0,-2.0
1701961592.1655693,-6.0,-16.0,-14.0,-2.0,-1.0,-15.0,-2.0,2.0
1701961592.1655693,-3.0,4.0,11.0,-2.0,0.0,12.0,0.0,-3.0
1701961592.1755967,3.0,-1.0,1.0,2.0,-3.0,-2.0,-2.0,1.0
1701961592.1755967,-5.0,-4.0,-14.0,-6.0,-3.0,-6.0,-3.0,-4.0
1701961592.1959395,2.0,0.0,0.0,-3.0,2.0,0.0,-2.0,-2.0
1701961592.1959395,5.0,1.0,3.0,0.0,1.0,1.0,4.0,4.0
1701961592.1959395,-5.0,0.0,1.0,2.0,-1.0,6.0,5.0,1.0
1701961592.1959395,-4.0,2.0,4.0,-2.0,-4.0,-7.0,-4.0,-5.0
1701961592.2255647,-2.0,-7.0,3.0,2.0,-1.0,1.0,-2.0,0.0
1701961592.2255647,-2.0,-1.0,-2.0,1.0,-1.0,2.0,1.0,1.0
1701961592.2255647,0.0,3.0,-4.0,-1.0,-1.0,-4.0,-4.0,-1.0
1701961592.2255647,-2.0,0.0,2.0,-1.0,-2.0,-7.0,-3.0,-7.0
1701961592.2255647,1.0,6.0,4.0,1.0,-2.0,7.0,0.0,-3.0
1701961592.2255647,-2.0,-1.0,17.0,5.0,1.0,9.0,-3.0,-10.0
1701961592.235567,0.0,-15.0,-28.0,-11.0,-4.0,-3.0,5.0,7.0
1701961592.235567,-3.0,3.0,-3.0,-2.0,-1.0,-2.0,-3.0,-5.0
1701961592.2556036,3.0,7.0,2.0,1.0,1.0,-5.0,-1.0,10.0
1701961592.2556036,-2.0,1.0,5.0,1.0,1.0,-6.0,-4.0,-4.0
1701961592.2556036,-3.0,-5.0,1.0,-2.0,-1.0,4.0,-3.0,-6.0
1701961592.2556036,3.0,-7.0,-8.0,4.0,1.0,-4.0,2.0,5.0
1701961592.2755659,0.0,11.0,1.0,-6.0,-7.0,-3.0,-2.0,-6.0
1701961592.2755659,-3.0,0.0,2.0,-1.0,-3.0,-7.0,-1.0,2.0
1701961592.2755659,-2.0,3.0,0.0,-1.0,5.0,11.0,4.0,3.0
1701961592.2755659,-3.0,-7.0,-9.0,-6.0,-5.0,-6.0,1.0,1.0
1701961592.3056052,2.0,-3.0,9.0,2.0,1.0,4.0,0.0,2.0
1701961592.3056052,-3.0,1.0,-15.0,-6.0,-5.0,1.0,-3.0,-1.0
1701961592.3056052,0.0,-1.0,1.0,0.0,-5.0,-9.0,0.0,-1.0
1701961592.3056052,-2.0,-3.0,1.0,0.0,6.0,2.0,-3.0,-5.0
1701961592.3156016,-4.0,-2.0,4.0,2.0,-1.0,-5.0,-2.0,4.0
1701961592.3156016,1.0,-6.0,-21.0,-3.0,0.0,11.0,2.0,3.0
1701961592.3156016,0.0,-6.0,19.0,7.0,0.0,-3.0,-4.0,-11.0
1701961592.3156016,-1.0,2.0,-17.0,-11.0,-5.0,0.0,2.0,9.0
1701961592.3355658,-3.0,-3.0,1.0,4.0,-1.0,-4.0,-2.0,-5.0
1701961592.3355658,9.0,4.0,11.0,1.0,1.0,-1.0,2.0,3.0
1701961592.3355658,-7.0,-5.0,-3.0,-5.0,-1.0,-4.0,-4.0,9.0
1701961592.3355658,-6.0,0.0,3.0,10.0,7.0,4.0,-1.0,-14.0
1701961592.3611462,2.0,3.0,12.0,-1.0,-3.0,1.0,-1.0,1.0
1701961592.3611462,-2.0,-3.0,-10.0,-5.0,-2.0,-6.0,-1.0,-1.0
1701961592.3621476,4.0,2.0,-5.0,13.0,3.0,1.0,2.0,1.0
1701961592.3621476,3.0,9.0,12.0,-5.0,-6.0,-4.0,-3.0,2.0
1701961592.3761454,1.0,1.0,-14.0,-10.0,1.0,2.0,0.0,1.0
1701961592.3761454,-6.0,-6.0,6.0,2.0,1.0,2.0,-1.0,1.0
1701961592.3779752,-1.0,-3.0,-1.0,-10.0,-1.0,-5.0,-5.0,-5.0
1701961592.3779752,-3.0,-3.0,-4.0,9.0,-1.0,-2.0,-5.0,-3.0
1701961592.3979802,-1.0,-7.0,-2.0,-1.0,-5.0,0.0,-1.0,-2.0
1701961592.3979802,-2.0,-1.0,-2.0,1.0,1.0,-2.0,2.0,-1.0
1701961592.3979802,-3.0,1.0,4.0,-6.0,-4.0,-4.0,-2.0,-4.0
1701961592.3979802,3.0,0.0,1.0,4.0,4.0,3.0,0.0,0.0
1701961592.418018,3.0,2.0,3.0,-7.0,-7.0,0.0,-1.0,2.0
1701961592.418018,-7.0,-6.0,4.0,3.0,0.0,-6.0,-7.0,-5.0
1701961592.418018,2.0,3.0,-12.0,-10.0,-2.0,0.0,1.0,0.0
1701961592.418018,-1.0,-4.0,0.0,-1.0,-3.0,-2.0,-1.0,-1.0
1701961592.428018,-2.0,5.0,4.0,2.0,-1.0,-10.0,-5.0,-9.0
1701961592.428018,3.0,3.0,7.0,0.0,-2.0,1.0,4.0,24.0
1701961592.428018,-2.0,-3.0,-3.0,-4.0,-4.0,-1.0,-1.0,-4.0
1701961592.428018,-2.0,-3.0,-2.0,-4.0,-5.0,-1.0,-4.0,-5.0
1701961592.4579778,-1.0,-4.0,-16.0,1.0,9.0,-2.0,4.0,3.0
1701961592.4579778,1.0,-2.0,6.0,-1.0,-7.0,-6.0,-4.0,0.0
1701961592.4579778,-5.0,-1.0,3.0,5.0,3.0,0.0,1.0,-7.0
1701961592.4579778,-1.0,-3.0,-7.0,-9.0,-5.0,0.0,-2.0,8.0
1701961592.4780078,-4.0,-2.0,-1.0,1.0,0.0,-2.0,-3.0,-7.0
1701961592.4780078,0.0,2.0,3.0,-3.0,-1.0,-1.0,-4.0,-1.0
1701961592.4780078,3.0,1.0,-9.0,7.0,-4.0,-1.0,0.0,5.0
1701961592.4780078,2.0,1.0,5.0,-3.0,-2.0,0.0,0.0,-6.0
1701961592.497977,-9.0,-2.0,3.0,3.0,-2.0,-5.0,-2.0,4.0
1701961592.497977,-1.0,-3.0,-3.0,-2.0,6.0,17.0,3.0,-9.0
1701961592.497977,2.0,-2.0,9.0,5.0,0.0,-1.0,-1.0,0.0
1701961592.497977,-1.0,2.0,-10.0,-3.0,-1.0,-3.0,-1.0,-5.0
1701961592.5180247,5.0,5.0,8.0,2.0,1.0,4.0,4.0,8.0
1701961592.5180247,-3.0,-1.0,-2.0,2.0,-2.0,-5.0,1.0,-2.0
1701961592.5180247,-2.0,-2.0,-34.0,-11.0,-3.0,0.0,-2.0,-2.0
1701961592.5180247,1.0,2.0,10.0,5.0,2.0,-2.0,-1.0,3.0
1701961592.53802,-2.0,-4.0,2.0,6.0,1.0,6.0,-1.0,-10.0
1701961592.53802,-6.0,-9.0,-11.0,-12.0,-5.0,-8.0,2.0,-2.0
1701961592.53802,0.0,-2.0,11.0,4.0,-2.0,-1.0,-2.0,0.0
1701961592.53802,-1.0,0.0,-7.0,-6.0,1.0,-1.0,-3.0,-1.0
1701961592.5579762,-1.0,-1.0,-10.0,3.0,-6.0,-1.0,-4.0,-1.0
1701961592.5579762,4.0,8.0,20.0,4.0,8.0,0.0,2.0,-1.0
1701961592.5579762,-2.0,-2.0,0.0,-11.0,-8.0,-6.0,-6.0,-6.0
1701961592.5579762,-4.0,-2.0,-10.0,0.0,3.0,0.0,4.0,3.0
1701961592.57802,-4.0,-4.0,-5.0,-4.0,-3.0,-1.0,-3.0,2.0
1701961592.57802,0.0,-2.0,1.0,0.0,-3.0,1.0,0.0,-2.0
1701961592.57802,0.0,4.0,15.0,4.0,0.0,-10.0,-3.0,3.0
1701961592.57802,-2.0,-13.0,-31.0,-4.0,0.0,13.0,1.0,-3.0
1701961592.5980184,6.0,17.0,18.0,-1.0,-2.0,-1.0,2.0,1.0
1701961592.5980184,-4.0,1.0,-21.0,-5.0,-3.0,-6.0,-3.0,-2.0
1701961592.5980184,-1.0,-4.0,15.0,3.0,1.0,5.0,0.0,-3.0
1701961592.5980184,-5.0,-3.0,17.0,1.0,0.0,-6.0,-6.0,6.0
1701961592.6179779,-3.0,-6.0,-12.0,-8.0,-2.0,0.0,-1.0,-4.0
1701961592.6179779,0.0,2.0,-5.0,-1.0,-4.0,-5.0,-7.0,-6.0
1701961592.6179779,1.0,-1.0,0.0,3.0,2.0,-7.0,4.0,4.0
1701961592.6179779,2.0,0.0,-4.0,-5.0,-4.0,1.0,-2.0,-4.0
1701961592.638016,1.0,6.0,8.0,3.0,5.0,13.0,3.0,0.0
1701961592.638016,1.0,-1.0,5.0,-2.0,-6.0,-8.0,-1.0,14.0
1701961592.638016,-7.0,-9.0,-21.0,-3.0,-4.0,1.0,-3.0,-15.0
1701961592.638016,0.0,-6.0,6.0,6.0,12.0,-1.0,4.0,4.0
1701961592.6679845,-3.0,-1.0,1.0,0.0,-3.0,-14.0,-5.0,-2.0
1701961592.6679845,4.0,3.0,11.0,-13.0,-5.0,7.0,-2.0,0.0
1701961592.6679845,-1.0,1.0,-18.0,-4.0,0.0,1.0,-5.0,2.0
1701961592.6679845,-3.0,-2.0,15.0,8.0,1.0,0.0,-2.0,-2.0
1701961592.6679845,-3.0,-10.0,-14.0,-5.0,-2.0,-7.0,-1.0,1.0
1701961592.6679845,-2.0,-2.0,1.0,4.0,0.0,-2.0,-2.0,-5.0
1701961592.6779833,2.0,2.0,3.0,-4.0,3.0,2.0,-1.0,0.0
1701961592.6779833,-1.0,4.0,12.0,2.0,-1.0,-3.0,1.0,-1.0
1701961592.697984,1.0,2.0,-7.0,3.0,0.0,4.0,-1.0,0.0
1701961592.697984,-4.0,-5.0,-25.0,-8.0,-3.0,-6.0,-2.0,-5.0
1701961592.697984,-1.0,-9.0,13.0,3.0,0.0,4.0,3.0,0.0
1701961592.697984,-1.0,1.0,-18.0,-5.0,-7.0,-4.0,-4.0,1.0
1701961592.727984,-1.0,-1.0,14.0,0.0,-4.0,0.0,-1.0,1.0
1701961592.727984,0.0,-1.0,-10.0,-5.0,2.0,0.0,-2.0,-5.0
1701961592.727984,-1.0,4.0,7.0,2.0,-2.0,0.0,2.0,4.0
1701961592.727984,0.0,-2.0,0.0,1.0,4.0,-2.0,-5.0,-9.0
1701961592.727984,-2.0,-2.0,7.0,0.0,-3.0,-2.0,-2.0,0.0
1701961592.727984,2.0,-3.0,-8.0,0.0,-1.0,-3.0,0.0,0.0
1701961592.7379959,-6.0,-5.0,7.0,-4.0,-5.0,-6.0,-4.0,-4.0
1701961592.7379959,-1.0,-4.0,-6.0,-3.0,-6.0,0.0,0.0,-2.0
1701961592.757984,-2.0,-2.0,-7.0,-6.0,-3.0,-9.0,-3.0,-2.0
1701961592.757984,-4.0,1.0,11.0,10.0,5.0,1.0,-2.0,-5.0
1701961592.757984,7.0,8.0,4.0,3.0,3.0,3.0,4.0,3.0
1701961592.757984,-5.0,-2.0,0.0,-7.0,-8.0,-2.0,-3.0,-9.0
1701961592.7779841,2.0,-9.0,-5.0,0.0,2.0,-4.0,2.0,9.0
1701961592.7779841,-5.0,-5.0,-12.0,-4.0,-2.0,-4.0,0.0,-3.0
1701961592.7779841,-2.0,2.0,8.0,-3.0,-4.0,2.0,-4.0,-1.0
1701961592.7779841,3.0,1.0,4.0,-1.0,0.0,-4.0,0.0,10.0
1701961592.7879848,-5.0,4.0,-2.0,-1.0,0.0,3.0,0.0,-11.0
1701961592.7879848,-2.0,-1.0,7.0,3.0,0.0,2.0,-3.0,-12.0
1701961592.7979827,1.0,-3.0,-13.0,-2.0,2.0,0.0,3.0,22.0
1701961592.7979827,-2.0,-2.0,3.0,-2.0,-3.0,-2.0,-2.0,-1.0
1701961592.8179862,0.0,-1.0,-4.0,-1.0,0.0,3.0,-1.0,-2.0
1701961592.8179862,1.0,-1.0,11.0,3.0,-2.0,-3.0,1.0,2.0
1701961592.8179862,-2.0,-5.0,-17.0,-1.0,-1.0,1.0,-2.0,-7.0
1701961592.8179862,0.0,3.0,19.0,2.0,3.0,0.0,0.0,-2.0
1701961592.8379838,0.0,-7.0,-27.0,-13.0,-6.0,-2.0,-1.0,1.0
1701961592.8379838,-3.0,2.0,7.0,2.0,1.0,0.0,1.0,-2.0
1701961592.8379838,-1.0,-3.0,-3.0,-3.0,-8.0,-3.0,-2.0,-5.0
1701961592.8379838,1.0,4.0,6.0,3.0,1.0,3.0,3.0,1.0
1701961592.8479834,-2.0,-5.0,1.0,-6.0,-4.0,-5.0,-5.0,-6.0
1701961592.8479834,-2.0,-3.0,-4.0,1.0,0.0,1.0,-2.0,3.0
1701961592.8579845,-3.0,4.0,-4.0,-5.0,-3.0,-7.0,-2.0,-14.0
1701961592.8579845,4.0,7.0,19.0,4.0,-1.0,-7.0,5.0,22.0
1701961592.877983,-4.0,-6.0,-5.0,0.0,1.0,17.0,0.0,-2.0
1701961592.877983,-2.0,-1.0,2.0,2.0,-1.0,-5.0,-1.0,0.0
1701961592.877983,-1.0,-4.0,-12.0,-1.0,-2.0,2.0,-3.0,-3.0
1701961592.877983,1.0,2.0,-7.0,-4.0,-6.0,-7.0,-4.0,-8.0
1701961592.902446,1.0,-1.0,0.0,0.0,1.0,-1.0,-1.0,0.0
1701961592.902446,1.0,1.0,0.0,-2.0,-1.0,0.0,0.0,4.0
1701961592.902446,-4.0,-7.0,-12.0,-7.0,-1.0,-7.0,-7.0,-2.0
1701961592.902446,3.0,13.0,29.0,1.0,2.0,10.0,3.0,-1.0
1701961592.9108756,-4.0,-9.0,-31.0,-7.0,-2.0,-8.0,-4.0,1.0
1701961592.9108756,2.0,2.0,1.0,7.0,4.0,4.0,-2.0,-4.0
1701961592.920885,-1.0,-5.0,-2.0,-7.0,-6.0,-7.0,-2.0,-1.0
1701961592.920885,-2.0,-3.0,-5.0,0.0,-4.0,-4.0,-5.0,-4.0
1701961592.9408937,1.0,4.0,18.0,1.0,0.0,-3.0,1.0,1.0
1701961592.9408937,-2.0,-4.0,-14.0,0.0,2.0,-1.0,0.0,-3.0
1701961592.9408937,1.0,2.0,8.0,-1.0,-3.0,1.0,-1.0,1.0
1701961592.9408937,-4.0,-9.0,-23.0,-1.0,3.0,-1.0,-2.0,-3.0
1701961592.9608855,-4.0,3.0,1.0,-1.0,-7.0,-5.0,-3.0,-6.0
1701961592.9608855,0.0,-2.0,1.0,-4.0,0.0,-3.0,0.0,1.0
1701961592.9608855,1.0,6.0,5.0,1.0,0.0,6.0,1.0,0.0
1701961592.9608855,-1.0,-3.0,0.0,0.0,2.0,0.0,-1.0,-3.0
1701961592.970884,-2.0,-7.0,-14.0,-5.0,-2.0,-3.0,-2.0,0.0
1701961592.970884,-3.0,-2.0,1.0,-1.0,-4.0,-2.0,0.0,0.0
1701961592.9808857,-1.0,4.0,0.0,2.0,2.0,1.0,-1.0,-1.0
1701961592.9808857,-1.0,1.0,4.0,-1.0,-3.0,-9.0,0.0,-3.0
1701961593.0008917,0.0,1.0,13.0,2.0,2.0,12.0,0.0,-3.0
1701961593.0008917,4.0,2.0,-11.0,-4.0,-3.0,7.0,2.0,3.0
1701961593.0008917,-6.0,2.0,18.0,8.0,-2.0,-4.0,-3.0,0.0
1701961593.0008917,-1.0,-5.0,-19.0,-5.0,0.0,2.0,1.0,-2.0
1701961593.0208855,1.0,-2.0,-7.0,3.0,0.0,-6.0,0.0,1.0
1701961593.0208855,-2.0,-4.0,8.0,-5.0,-1.0,-3.0,-3.0,-3.0
1701961593.0208855,3.0,1.0,-15.0,-6.0,-1.0,-1.0,-1.0,-2.0
1701961593.0208855,-5.0,-8.0,-2.0,-4.0,-7.0,-5.0,-4.0,-5.0
1701961593.0308824,-3.0,-4.0,-10.0,-1.0,-5.0,-12.0,-5.0,0.0
1701961593.0308824,0.0,0.0,-17.0,-9.0,1.0,9.0,2.0,0.0
1701961593.0408847,-1.0,-7.0,-4.0,5.0,7.0,0.0,2.0,0.0
1701961593.0408847,-1.0,3.0,4.0,0.0,-3.0,-2.0,-2.0,-2.0
1701961593.0608854,2.0,2.0,9.0,1.0,2.0,2.0,-1.0,-1.0
1701961593.0608854,-2.0,-4.0,-8.0,-6.0,-10.0,-9.0,-3.0,-2.0
1701961593.0608854,1.0,4.0,1.0,2.0,0.0,-2.0,1.0,1.0
1701961593.0608854,-2.0,-2.0,-1.0,5.0,9.0,6.0,2.0,-3.0
1701961593.0808866,1.0,-1.0,10.0,-1.0,-3.0,-3.0,-3.0,0.0
1701961593.0808866,-1.0,-1.0,-12.0,-6.0,2.0,5.0,2.0,0.0
1701961593.0808866,-2.0,-2.0,12.0,-5.0,-5.0,3.0,2.0,-1.0
1701961593.0808866,-1.0,1.0,-17.0,0.0,-7.0,-13.0,-5.0,-1.0
1701961593.0908868,-3.0,0.0,-2.0,8.0,12.0,14.0,6.0,1.0
1701961593.0908868,-2.0,-4.0,-3.0,-2.0,-5.0,-4.0,-1.0,-2.0
1701961593.100886,0.0,1.0,-10.0,-2.0,1.0,-6.0,-4.0,-2.0
1701961593.100886,-4.0,-6.0,8.0,-1.0,-5.0,0.0,-2.0,-3.0
1701961593.120885,2.0,-1.0,-11.0,-10.0,-4.0,-1.0,-1.0,0.0
1701961593.120885,-7.0,-2.0,5.0,-5.0,-2.0,-3.0,-2.0,-2.0
1701961593.120885,1.0,-2.0,2.0,11.0,-2.0,-5.0,-1.0,-2.0
1701961593.120885,-3.0,-3.0,-21.0,-16.0,-2.0,4.0,-6.0,-3.0
1701961593.1408844,-1.0,0.0,13.0,6.0,1.0,-5.0,-3.0,-1.0
1701961593.1408844,3.0,0.0,4.0,-1.0,-1.0,-6.0,-1.0,-1.0
1701961593.1408844,0.0,1.0,2.0,-2.0,-1.0,-9.0,-1.0,-1.0
1701961593.1408844,0.0,1.0,6.0,0.0,2.0,7.0,-2.0,-1.0
1701961593.1508858,-4.0,-2.0,12.0,3.0,-2.0,5.0,4.0,-2.0
1701961593.1508858,0.0,-3.0,-31.0,-3.0,-3.0,-6.0,-4.0,-1.0
1701961593.1708946,-2.0,-5.0,-3.0,-5.0,-3.0,4.0,-3.0,-1.0
1701961593.1708946,1.0,4.0,6.0,8.0,0.0,-3.0,0.0,1.0
1701961593.1808856,-2.0,-1.0,-3.0,-2.0,6.0,6.0,1.0,-1.0
1701961593.1808856,-1.0,1.0,14.0,4.0,-1.0,-2.0,1.0,2.0
1701961593.1808856,-1.0,0.0,5.0,-1.0,-1.0,-7.0,-3.0,-1.0
1701961593.1808856,0.0,-2.0,-7.0,-8.0,-6.0,-6.0,-4.0,0.0
1701961593.2008848,-3.0,-1.0,5.0,-2.0,-2.0,-5.0,2.0,-2.0
1701961593.2008848,1.0,0.0,-3.0,4.0,1.0,4.0,0.0,-1.0
1701961593.2008848,-2.0,-6.0,-15.0,-6.0,-1.0,0.0,-1.0,0.0
1701961593.2008848,-1.0,6.0,9.0,1.0,5.0,-3.0,1.0,0.0
1701961593.2108881,-2.0,2.0,8.0,3.0,-4.0,2.0,0.0,-2.0
1701961593.2108881,-1.0,-6.0,-3.0,1.0,-3.0,-5.0,-2.0,-1.0
1701961593.2308838,2.0,0.0,-11.0,-8.0,-8.0,-1.0,-3.0,-1.0
1701961593.2308838,-8.0,-4.0,5.0,3.0,3.0,7.0,3.0,1.0
1701961593.2308838,4.0,1.0,-10.0,0.0,-1.0,-10.0,-3.0,-1.0
1701961593.2308838,1.0,5.0,13.0,6.0,2.0,7.0,3.0,0.0
1701961593.2409117,-5.0,-3.0,8.0,3.0,3.0,-2.0,-4.0,-2.0
1701961593.2409117,2.0,-5.0,-2.0,7.0,-1.0,-7.0,2.0,0.0
1701961593.260921,0.0,2.0,9.0,-1.0,6.0,14.0,3.0,2.0
1701961593.260921,-7.0,-14.0,-27.0,-11.0,-8.0,-3.0,-4.0,-5.0
1701961593.260921,-1.0,2.0,-3.0,-4.0,-3.0,-6.0,-3.0,-1.0
1701961593.260921,2.0,4.0,0.0,-4.0,-3.0,-4.0,-2.0,0.0
1701961593.2908776,-2.0,-4.0,3.0,1.0,-5.0,-10.0,-4.0,-2.0
1701961593.2908776,2.0,10.0,16.0,4.0,1.0,-2.0,-1.0,0.0
1701961593.2908776,-2.0,-2.0,5.0,1.0,-1.0,5.0,2.0,0.0
1701961593.2908776,-1.0,1.0,4.0,1.0,4.0,1.0,1.0,-1.0
1701961593.2908776,2.0,4.0,-4.0,-5.0,-5.0,-8.0,-3.0,0.0
1701961593.2908776,-1.0,-3.0,8.0,-3.0,-3.0,1.0,-1.0,-1.0
1701961593.2908776,-6.0,-15.0,-15.0,-6.0,2.0,0.0,-1.0,-2.0
1701961593.2908776,6.0,18.0,15.0,18.0,-1.0,4.0,0.0,-1.0
1701961593.3209374,-3.0,8.0,-23.0,-11.0,-10.0,-6.0,-2.0,0.0
1701961593.3209374,-3.0,-4.0,-1.0,2.0,1.0,0.0,-3.0,-4.0
1701961593.3209374,2.0,2.0,10.0,-5.0,1.0,4.0,-1.0,2.0
1701961593.3209374,-6.0,-10.0,-2.0,11.0,-4.0,0.0,-2.0,-1.0
1701961593.3408785,0.0,0.0,4.0,1.0,9.0,3.0,0.0,1.0
1701961593.3408785,0.0,3.0,2.0,1.0,1.0,-3.0,-2.0,0.0
1701961593.3408785,-5.0,1.0,8.0,0.0,1.0,6.0,2.0,-3.0
1701961593.3408785,-1.0,-7.0,4.0,-4.0,-2.0,-6.0,-2.0,-4.0
1701961593.35092,-2.0,-4.0,-36.0,-22.0,-14.0,-8.0,-3.0,-1.0
1701961593.35092,-9.0,-30.0,-3.0,-5.0,-1.0,-7.0,1.0,-2.0
1701961593.35092,4.0,12.0,16.0,1.0,-3.0,-2.0,-3.0,-2.0
1701961593.35092,3.0,8.0,-8.0,6.0,3.0,5.0,3.0,3.0
1701961593.3809376,-12.0,-25.0,-1.0,-3.0,-3.0,-2.0,-7.0,-4.0
1701961593.3809376,0.0,-10.0,-3.0,-14.0,5.0,2.0,1.0,2.0
1701961593.3809376,7.0,38.0,28.0,10.0,-6.0,0.0,-1.0,1.0
1701961593.3809376,-13.0,-36.0,-28.0,-7.0,3.0,-1.0,0.0,-3.0
1701961593.4008794,8.0,27.0,-2.0,-4.0,-7.0,-5.0,-1.0,0.0
1701961593.4008794,-9.0,-4.0,6.0,10.0,6.0,-4.0,-5.0,-3.0
1701961593.4008794,-5.0,-2.0,-13.0,-11.0,-3.0,1.0,3.0,0.0
1701961593.4008794,7.0,50.0,15.0,-13.0,-8.0,-5.0,-4.0,-3.0
1701961593.4109209,-10.0,-32.0,3.0,-12.0,-9.0,6.0,3.0,0.0
1701961593.4109209,1.0,25.0,-8.0,25.0,15.0,4.0,0.0,0.0
1701961593.4245517,-5.0,2.0,9.0,3.0,5.0,2.0,3.0,1.0
1701961593.4245517,-6.0,-8.0,8.0,6.0,-2.0,-2.0,-2.0,-3.0
1701961593.4405515,-2.0,-13.0,-19.0,-19.0,-6.0,-1.0,-1.0,-1.0
1701961593.4415145,3.0,10.0,3.0,-10.0,-13.0,-5.0,-2.0,-1.0
1701961593.4425511,1.0,-9.0,-7.0,10.0,7.0,2.0,-1.0,0.0
1701961593.4425511,2.0,-1.0,-16.0,-18.0,-3.0,-2.0,-1.0,1.0
1701961593.4636703,2.0,1.0,10.0,9.0,2.0,7.0,0.0,-1.0
1701961593.4636703,6.0,10.0,17.0,0.0,-2.0,-4.0,1.0,0.0
1701961593.4636703,1.0,0.0,-13.0,4.0,5.0,-5.0,6.0,1.0
1701961593.4636703,-6.0,-21.0,3.0,-7.0,-11.0,4.0,-2.0,-5.0
1701961593.4736726,1.0,3.0,12.0,14.0,4.0,-5.0,0.0,-2.0
1701961593.4736726,0.0,3.0,7.0,8.0,0.0,-2.0,-3.0,-4.0
1701961593.483713,-3.0,-17.0,-25.0,-18.0,-8.0,-6.0,2.0,-1.0
1701961593.483713,-3.0,-1.0,-7.0,-8.0,3.0,4.0,-3.0,1.0
1701961593.4937146,-1.0,4.0,0.0,15.0,3.0,-6.0,0.0,-3.0
1701961593.4937146,1.0,1.0,12.0,-8.0,-4.0,5.0,0.0,-1.0
1701961593.4937146,0.0,-5.0,4.0,5.0,-2.0,-5.0,-4.0,-2.0
1701961593.4937146,-1.0,-9.0,-12.0,-7.0,-3.0,-1.0,-3.0,1.0
1701961593.52367,0.0,14.0,5.0,1.0,-5.0,-1.0,-6.0,-1.0
1701961593.52367,-1.0,-21.0,-11.0,-5.0,1.0,-8.0,-3.0,-1.0
1701961593.52367,-3.0,0.0,-16.0,-4.0,8.0,14.0,1.0,-2.0
1701961593.52367,3.0,0.0,2.0,7.0,0.0,-6.0,0.0,1.0
1701961593.5337136,2.0,-2.0,9.0,-1.0,2.0,-1.0,0.0,2.0
1701961593.5337136,-2.0,-1.0,-1.0,-12.0,-10.0,-8.0,-5.0,-2.0
1701961593.5437133,-2.0,-2.0,9.0,3.0,-2.0,-4.0,0.0,0.0
1701961593.5437133,3.0,4.0,-12.0,-1.0,1.0,14.0,0.0,-1.0
1701961593.56367,0.0,4.0,20.0,9.0,3.0,-2.0,-1.0,-1.0
1701961593.56367,-3.0,-4.0,-25.0,-6.0,2.0,-6.0,-1.0,0.0
1701961593.56367,-3.0,-7.0,-2.0,-4.0,-1.0,22.0,1.0,-4.0
1701961593.56367,-2.0,2.0,1.0,-5.0,-3.0,-7.0,-1.0,-2.0
1701961593.5836704,2.0,-1.0,-3.0,2.0,3.0,0.0,1.0,1.0
1701961593.5836704,-3.0,1.0,12.0,8.0,-5.0,-7.0,-6.0,-3.0
1701961593.5836704,-2.0,-4.0,-12.0,-8.0,-3.0,-8.0,-4.0,-1.0
1701961593.5836704,-1.0,-3.0,0.0,-7.0,-3.0,-4.0,-2.0,0.0
1701961593.5936902,-6.0,-11.0,-14.0,-1.0,-3.0,-3.0,0.0,-2.0
1701961593.5936902,-3.0,0.0,3.0,0.0,-1.0,10.0,1.0,0.0
1701961593.6037016,4.0,15.0,7.0,4.0,4.0,-9.0,-3.0,-1.0
1701961593.6037016,-3.0,-11.0,1.0,2.0,2.0,1.0,-1.0,-1.0
1701961593.6236703,1.0,0.0,-5.0,-4.0,-3.0,-6.0,0.0,0.0
1701961593.6236703,4.0,7.0,2.0,-3.0,-2.0,1.0,0.0,3.0
1701961593.6236703,-3.0,-6.0,2.0,0.0,-1.0,-11.0,-5.0,0.0
1701961593.6236703,-1.0,-6.0,2.0,1.0,-5.0,-1.0,-1.0,-2.0
1701961593.64367,0.0,7.0,0.0,-1.0,4.0,-3.0,0.0,1.0
1701961593.64367,-2.0,-12.0,-24.0,-6.0,-3.0,4.0,-1.0,-1.0
1701961593.64367,-2.0,3.0,-9.0,3.0,-3.0,-3.0,2.0,0.0
1701961593.64367,1.0,-8.0,7.0,-6.0,-4.0,-10.0,-2.0,1.0
1701961593.6537757,0.0,4.0,13.0,11.0,2.0,3.0,-3.0,-3.0
1701961593.6537757,0.0,-1.0,-2.0,-4.0,2.0,0.0,4.0,-1.0
1701961593.6637793,2.0,-6.0,-2.0,0.0,-2.0,-7.0,-2.0,0.0
1701961593.6637793,2.0,8.0,11.0,-1.0,-3.0,1.0,1.0,-1.0
1701961593.6836698,-5.0,-11.0,-31.0,-8.0,1.0,8.0,1.0,-2.0
1701961593.6836698,-1.0,-5.0,-4.0,1.0,1.0,1.0,-1.0,0.0
1701961593.6836698,-1.0,-1.0,20.0,3.0,-3.0,-6.0,0.0,-1.0
1701961593.6836698,-1.0,-1.0,-6.0,1.0,-2.0,-10.0,-1.0,-2.0
1701961593.7036707,3.0,-1.0,17.0,5.0,6.0,15.0,2.0,0.0
1701961593.7036707,2.0,12.0,-6.0,-8.0,0.0,2.0,1.0,0.0
1701961593.7036707,-1.0,-3.0,-5.0,-2.0,-4.0,-17.0,-6.0,-1.0
1701961593.7036707,3.0,5.0,6.0,2.0,8.0,19.0,4.0,2.0
1701961593.713888,-1.0,0.0,5.0,1.0,-2.0,-8.0,0.0,-2.0
1701961593.713888,-3.0,-5.0,-1.0,3.0,1.0,1.0,-4.0,-1.0
1701961593.723903,1.0,-2.0,5.0,0.0,-3.0,-9.0,-1.0,0.0
1701961593.723903,-3.0,0.0,-13.0,-4.0,-6.0,-6.0,-7.0,-3.0
1701961593.7336779,0.0,-5.0,-15.0,-4.0,2.0,7.0,2.0,-1.0
1701961593.7336779,0.0,3.0,23.0,5.0,-3.0,-2.0,-1.0,-4.0
1701961593.7336779,-1.0,5.0,1.0,-2.0,-1.0,-9.0,-3.0,-1.0
1701961593.7336779,-4.0,0.0,-3.0,3.0,1.0,0.0,-1.0,-1.0
1701961593.7637458,0.0,-1.0,-1.0,-9.0,-4.0,3.0,1.0,1.0
1701961593.7637458,-2.0,-6.0,-2.0,4.0,1.0,4.0,2.0,-1.0
1701961593.7637458,5.0,6.0,9.0,-4.0,1.0,-2.0,-5.0,-1.0
1701961593.7637458,-4.0,-3.0,-11.0,-8.0,-2.0,8.0,0.0,0.0
1701961593.7737253,1.0,-2.0,4.0,16.0,10.0,-10.0,-5.0,-1.0
1701961593.7737253,-2.0,-5.0,2.0,-5.0,-5.0,-10.0,-1.0,0.0
1701961593.783871,-4.0,-4.0,-12.0,-3.0,0.0,20.0,5.0,-3.0
1701961593.783871,2.0,-1.0,1.0,6.0,-1.0,-7.0,2.0,1.0
1701961593.803671,-9.0,-6.0,-1.0,-6.0,-9.0,-8.0,-5.0,-3.0
1701961593.803671,-1.0,1.0,3.0,-1.0,-3.0,-3.0,-3.0,-2.0
1701961593.803671,-4.0,-9.0,-21.0,-4.0,3.0,0.0,-2.0,-2.0
1701961593.803671,1.0,-6.0,-9.0,-6.0,-1.0,12.0,3.0,0.0
1701961593.8237495,1.0,4.0,3.0,0.0,-1.0,-12.0,-4.0,-1.0
1701961593.8237495,3.0,4.0,1.0,1.0,0.0,9.0,0.0,2.0
1701961593.8237495,-3.0,-1.0,22.0,3.0,-3.0,8.0,3.0,0.0
1701961593.8237495,-5.0,5.0,-15.0,-13.0,-7.0,-15.0,-4.0,-2.0
1701961593.8336723,3.0,3.0,-9.0,0.0,-6.0,-4.0,-2.0,0.0
1701961593.8336723,3.0,11.0,3.0,3.0,7.0,-8.0,-2.0,0.0
1701961593.8536747,3.0,4.0,5.0,-4.0,-2.0,9.0,3.0,3.0
1701961593.8536747,1.0,3.0,4.0,11.0,7.0,-5.0,3.0,1.0
1701961593.8536747,-4.0,-2.0,-5.0,-3.0,-4.0,1.0,-1.0,-2.0
1701961593.8536747,-4.0,22.0,29.0,-1.0,-7.0,-1.0,-1.0,0.0
1701961593.8536747,2.0,-11.0,-27.0,-7.0,-3.0,1.0,-3.0,-3.0
1701961593.8536747,7.0,18.0,14.0,9.0,4.0,-11.0,-2.0,2.0
1701961593.8838606,1.0,-16.0,-15.0,-2.0,1.0,3.0,0.0,-14.0
1701961593.8838606,1.0,-6.0,-1.0,-6.0,-3.0,3.0,8.0,20.0
1701961593.8838606,-10.0,4.0,7.0,0.0,-4.0,-9.0,-6.0,-3.0
1701961593.8838606,-4.0,-34.0,0.0,0.0,-2.0,5.0,0.0,-2.0
1701961593.8937004,6.0,12.0,16.0,-1.0,2.0,-5.0,1.0,4.0
1701961593.8937004,-10.0,12.0,5.0,9.0,2.0,2.0,-1.0,-9.0
1701961593.9040174,4.0,-4.0,-7.0,-5.0,-5.0,-1.0,-1.0,-1.0
1701961593.9040174,-3.0,-6.0,2.0,-3.0,3.0,-1.0,2.0,0.0
1701961593.9136698,-3.0,-2.0,15.0,10.0,10.0,4.0,0.0,0.0
1701961593.9136698,5.0,-9.0,-19.0,-3.0,-3.0,-5.0,-3.0,-5.0
1701961593.9136698,-4.0,-3.0,13.0,1.0,0.0,1.0,1.0,1.0
1701961593.9136698,1.0,8.0,-31.0,-14.0,-7.0,-3.0,-3.0,-5.0
1701961593.9525695,-4.0,-4.0,5.0,-13.0,-6.0,-10.0,-4.0,-1.0
1701961593.9525695,-2.0,-6.0,-20.0,0.0,1.0,11.0,1.0,-4.0
1701961593.9525695,3.0,-4.0,3.0,7.0,4.0,-1.0,-1.0,0.0
1701961593.9525695,-3.0,2.0,19.0,3.0,-3.0,-3.0,-4.0,-1.0
1701961593.9565883,-6.0,-1.0,-13.0,-15.0,-10.0,-7.0,-6.0,-2.0
1701961593.9565883,-1.0,-12.0,1.0,-3.0,4.0,4.0,3.0,-2.0
1701961593.966184,-5.0,-6.0,-3.0,-2.0,-4.0,-8.0,-3.0,-2.0
1701961593.966184,-1.0,-19.0,-26.0,-6.0,-2.0,12.0,3.0,0.0
1701961593.9765608,3.0,9.0,15.0,0.0,1.0,3.0,1.0,1.0
1701961593.9765608,-4.0,3.0,-15.0,-1.0,-1.0,-3.0,-3.0,-4.0
1701961593.9765608,-2.0,3.0,10.0,4.0,2.0,-3.0,-5.0,0.0
1701961593.9765608,3.0,5.0,1.0,-3.0,2.0,-2.0,1.0,1.0
1701961594.0065668,2.0,0.0,-20.0,-9.0,-5.0,-1.0,-1.0,0.0
1701961594.0065668,0.0,-2.0,18.0,2.0,-3.0,-2.0,1.0,-2.0
1701961594.0065668,-4.0,-2.0,-1.0,-2.0,-3.0,1.0,-4.0,-4.0
1701961594.0065668,-3.0,2.0,11.0,6.0,1.0,-3.0,0.0,-1.0
1701961594.0165877,-4.0,-10.0,-12.0,-3.0,-4.0,2.0,-2.0,1.0
1701961594.0165877,-2.0,-7.0,-9.0,-3.0,2.0,-5.0,-3.0,-2.0
1701961594.0265687,-1.0,2.0,-5.0,-3.0,-7.0,-4.0,0.0,2.0
1701961594.0265687,-3.0,3.0,11.0,5.0,0.0,-1.0,0.0,-3.0
1701961594.0368583,1.0,-4.0,-7.0,2.0,4.0,3.0,1.0,0.0
1701961594.0368583,2.0,6.0,5.0,-5.0,-7.0,-6.0,-1.0,-2.0
1701961594.0368583,-3.0,-1.0,29.0,10.0,2.0,-9.0,-4.0,-2.0
1701961594.0368583,-5.0,-12.0,-64.0,-22.0,-2.0,10.0,-2.0,0.0
1701961594.0765684,-2.0,0.0,19.0,5.0,-4.0,8.0,5.0,-4.0
1701961594.0765684,0.0,-8.0,-32.0,-13.0,0.0,-11.0,-5.0,-2.0
1701961594.0765684,3.0,6.0,9.0,-9.0,0.0,8.0,1.0,-2.0
1701961594.0765684,2.0,10.0,29.0,22.0,4.0,-2.0,-1.0,1.0
1701961594.0765684,-1.0,0.0,6.0,4.0,2.0,-5.0,-2.0,0.0
1701961594.0765684,-2.0,-11.0,-11.0,-7.0,-5.0,-5.0,-3.0,-4.0
1701961594.0765684,-2.0,-6.0,-1.0,0.0,0.0,7.0,5.0,1.0
1701961594.0765684,-1.0,-4.0,-5.0,-9.0,-5.0,-11.0,-6.0,-3.0
1701961594.0968559,3.0,8.0,6.0,2.0,1.0,2.0,-5.0,0.0
1701961594.0968559,-7.0,-17.0,-8.0,3.0,0.0,-3.0,-2.0,-3.0
1701961594.0968559,1.0,4.0,-14.0,-7.0,-2.0,-3.0,-1.0,0.0
1701961594.0968559,-2.0,5.0,7.0,-1.0,-6.0,-5.0,-2.0,-1.0
1701961594.126563,-1.0,-2.0,-3.0,2.0,-3.0,-4.0,0.0,2.0
1701961594.126563,0.0,0.0,17.0,-1.0,-3.0,-7.0,-3.0,-1.0
1701961594.126563,0.0,-2.0,-26.0,-2.0,4.0,17.0,1.0,0.0
1701961594.126563,0.0,11.0,37.0,0.0,-1.0,3.0,0.0,-1.0
1701961594.1365633,-3.0,1.0,-19.0,2.0,-1.0,-27.0,-6.0,0.0
1701961594.1365633,1.0,4.0,10.0,7.0,5.0,41.0,8.0,0.0
1701961594.1465654,-3.0,-8.0,-4.0,1.0,-6.0,-8.0,1.0,-1.0
1701961594.1465654,1.0,0.0,11.0,12.0,15.0,3.0,-1.0,-1.0
1701961594.1568933,-2.0,-3.0,-3.0,-6.0,0.0,-1.0,-1.0,-2.0
1701961594.1568933,-1.0,-2.0,-4.0,-2.0,-6.0,-6.0,-4.0,-1.0
1701961594.1568933,1.0,5.0,0.0,-2.0,-4.0,-6.0,-4.0,-1.0
1701961594.1568933,-4.0,-3.0,0.0,-12.0,-16.0,-9.0,-8.0,-4.0
1701961594.1765633,0.0,5.0,-2.0,3.0,4.0,6.0,4.0,1.0
1701961594.1765633,0.0,-2.0,3.0,6.0,1.0,7.0,1.0,1.0
1701961594.1765633,1.0,0.0,2.0,-1.0,4.0,1.0,0.0,-1.0
1701961594.1765633,1.0,-5.0,-37.0,-16.0,-9.0,0.0,0.0,-1.0
1701961594.2065647,-8.0,-9.0,5.0,-3.0,-4.0,2.0,-3.0,-3.0
1701961594.2065647,0.0,4.0,4.0,0.0,-5.0,-10.0,-4.0,-2.0
1701961594.2065647,1.0,-2.0,0.0,4.0,4.0,0.0,1.0,0.0
1701961594.2065647,-4.0,-2.0,4.0,2.0,0.0,-4.0,-2.0,-1.0
1701961594.2169015,0.0,4.0,0.0,-2.0,-1.0,9.0,0.0,-1.0
1701961594.2169015,2.0,2.0,4.0,-3.0,-2.0,-19.0,-3.0,-5.0
1701961594.2169015,-4.0,-6.0,0.0,1.0,1.0,14.0,-2.0,-2.0
1701961594.2169015,0.0,1.0,-5.0,-1.0,-3.0,-1.0,2.0,-1.0
1701961594.2365632,-1.0,4.0,-4.0,-2.0,6.0,10.0,1.0,-2.0
1701961594.2365632,-3.0,-13.0,-9.0,0.0,-2.0,-12.0,-2.0,1.0
1701961594.2365632,-3.0,-3.0,0.0,-2.0,-5.0,-4.0,-2.0,-3.0
1701961594.2365632,-2.0,-1.0,-6.0,-1.0,-3.0,-6.0,-3.0,-2.0
1701961594.2665687,0.0,0.0,2.0,-5.0,-10.0,-5.0,-1.0,-1.0
1701961594.2665687,-1.0,5.0,4.0,4.0,4.0,8.0,0.0,0.0
1701961594.2665687,0.0,-2.0,0.0,3.0,4.0,1.0,2.0,0.0
1701961594.2665687,-1.0,5.0,9.0,4.0,-2.0,-10.0,-2.0,1.0
1701961594.2768025,-2.0,-4.0,7.0,4.0,3.0,13.0,5.0,1.0
1701961594.2768025,0.0,-2.0,-15.0,-19.0,-5.0,12.0,1.0,-1.0
1701961594.2768025,-2.0,-3.0,-9.0,-4.0,-6.0,-7.0,-5.0,-3.0
1701961594.2768025,-1.0,-4.0,9.0,0.0,-2.0,-10.0,-2.0,-3.0
1701961594.3065636,2.0,0.0,-1.0,-1.0,2.0,-2.0,-1.0,-1.0
1701961594.3065636,-3.0,0.0,-1.0,4.0,1.0,-1.0,0.0,-2.0
1701961594.3065636,0.0,2.0,5.0,-1.0,-3.0,-3.0,3.0,0.0
1701961594.3065636,0.0,-4.0,-8.0,-7.0,-6.0,0.0,-2.0,-1.0
1701961594.3265646,0.0,1.0,-2.0,3.0,-3.0,-5.0,-3.0,0.0
1701961594.3265646,-2.0,-3.0,5.0,4.0,12.0,6.0,1.0,0.0
1701961594.3265646,-1.0,1.0,-5.0,-1.0,-6.0,-9.0,-4.0,-2.0
1701961594.3265646,2.0,3.0,3.0,1.0,1.0,-4.0,-3.0,-1.0
1701961594.3369205,2.0,0.0,-8.0,-4.0,-3.0,1.0,7.0,2.0
1701961594.3369205,-2.0,4.0,3.0,-4.0,-7.0,-3.0,-3.0,-3.0
1701961594.346565,1.0,7.0,6.0,0.0,7.0,17.0,3.0,2.0
1701961594.346565,-4.0,-7.0,-15.0,-4.0,1.0,5.0,2.0,-3.0
1701961594.356563,2.0,5.0,9.0,0.0,-4.0,-11.0,-4.0,-1.0
1701961594.356563,2.0,4.0,2.0,3.0,-1.0,-10.0,-2.0,1.0
1701961594.356563,-1.0,-5.0,-10.0,-4.0,-1.0,-6.0,-2.0,-3.0
1701961594.356563,0.0,-1.0,10.0,4.0,-1.0,2.0,-2.0,-2.0
1701961594.386564,-2.0,-9.0,-5.0,0.0,-2.0,2.0,-1.0,-2.0
1701961594.386564,0.0,4.0,-2.0,0.0,5.0,-2.0,2.0,-1.0
1701961594.386564,0.0,3.0,0.0,1.0,-4.0,-2.0,-3.0,0.0
1701961594.386564,2.0,-2.0,2.0,-1.0,1.0,-2.0,1.0,0.0
1701961594.396916,-2.0,-4.0,3.0,-3.0,-5.0,1.0,-4.0,-2.0
1701961594.396916,-4.0,-13.0,-11.0,-9.0,-5.0,-9.0,-1.0,0.0
1701961594.4065666,-1.0,-3.0,-17.0,-2.0,2.0,2.0,0.0,0.0
1701961594.4065666,-3.0,3.0,8.0,-2.0,0.0,2.0,0.0,0.0
1701961594.4165947,-3.0,-3.0,5.0,0.0,1.0,-2.0,-4.0,-2.0
1701961594.4165947,-1.0,0.0,-6.0,-3.0,-2.0,-4.0,-3.0,-3.0
1701961594.4165947,-3.0,-1.0,-4.0,-6.0,-2.0,1.0,0.0,1.0
1701961594.4165947,-3.0,-2.0,1.0,3.0,-2.0,-2.0,-5.0,-6.0
1701961594.4465642,0.0,3.0,-1.0,-2.0,-3.0,-9.0,-2.0,-2.0
1701961594.4465642,0.0,-4.0,6.0,7.0,5.0,8.0,2.0,2.0
1701961594.4465642,-2.0,1.0,1.0,2.0,1.0,-4.0,0.0,0.0
1701961594.4465642,-3.0,-6.0,-5.0,-2.0,2.0,6.0,1.0,2.0
1701961594.4565637,0.0,3.0,-1.0,-1.0,-3.0,-5.0,0.0,-2.0
1701961594.4565637,-1.0,-3.0,-8.0,-2.0,-7.0,-7.0,-3.0,-1.0
1701961594.4665995,1.0,1.0,6.0,1.0,2.0,-1.0,-1.0,0.0
1701961594.4665995,-1.0,-8.0,-3.0,0.0,-4.0,4.0,2.0,1.0
1701961594.4836178,-2.0,-2.0,2.0,-2.0,3.0,-2.0,-2.0,-1.0
1701961594.4843025,4.0,8.0,4.0,-1.0,0.0,-2.0,-2.0,0.0
1701961594.4853046,-3.0,-1.0,-6.0,4.0,0.0,9.0,0.0,-3.0
1701961594.4853046,-3.0,-6.0,0.0,-3.0,2.0,-3.0,1.0,-1.0
1701961594.5063186,-2.0,-4.0,-4.0,-1.0,-2.0,-5.0,-3.0,0.0
1701961594.5063186,-1.0,-1.0,-9.0,-1.0,-4.0,5.0,-2.0,0.0
1701961594.5073767,1.0,-2.0,5.0,-1.0,0.0,-5.0,0.0,-1.0
1701961594.5073767,1.0,4.0,-1.0,-2.0,-2.0,-1.0,0.0,-1.0
1701961594.519537,1.0,-1.0,0.0,1.0,-1.0,0.0,0.0,-1.0
1701961594.519537,-4.0,1.0,-2.0,-3.0,-4.0,-2.0,-1.0,0.0
1701961594.519537,-3.0,-5.0,1.0,0.0,3.0,-3.0,-2.0,-3.0
1701961594.519537,-3.0,-6.0,-6.0,3.0,2.0,-7.0,-1.0,-1.0
1701961594.539905,0.0,-3.0,-8.0,-3.0,2.0,15.0,5.0,-1.0
1701961594.539905,0.0,2.0,2.0,-2.0,-4.0,-2.0,-3.0,-3.0
1701961594.539905,-3.0,-4.0,-3.0,-3.0,-3.0,-6.0,-2.0,-3.0
1701961594.539905,2.0,4.0,-1.0,-1.0,-4.0,2.0,1.0,1.0
1701961594.5600047,-3.0,-3.0,-2.0,-5.0,1.0,-9.0,-1.0,-1.0
1701961594.5600047,0.0,2.0,15.0,7.0,4.0,4.0,0.0,0.0
1701961594.5600047,1.0,-6.0,-8.0,1.0,-1.0,9.0,2.0,1.0
1701961594.5600047,-1.0,-3.0,-12.0,-6.0,0.0,-6.0,-2.0,-1.0
1701961594.5800169,-2.0,-2.0,-6.0,-7.0,-6.0,-5.0,-4.0,-4.0
1701961594.5800169,-4.0,-9.0,-12.0,-9.0,-9.0,-7.0,-1.0,-4.0
1701961594.5800169,-1.0,-1.0,4.0,0.0,0.0,-5.0,-3.0,-1.0
1701961594.5800169,2.0,2.0,12.0,9.0,8.0,2.0,-1.0,1.0
1701961594.6004298,-2.0,1.0,-12.0,-5.0,-2.0,6.0,-2.0,0.0
1701961594.6004298,-1.0,0.0,3.0,3.0,1.0,1.0,1.0,2.0
1701961594.6004298,2.0,-2.0,2.0,-4.0,-3.0,0.0,0.0,0.0
1701961594.6004298,1.0,1.0,-6.0,-4.0,-5.0,-3.0,-1.0,-1.0
1701961594.6200166,-1.0,0.0,3.0,0.0,1.0,1.0,-2.0,-2.0
1701961594.6200166,-1.0,5.0,5.0,0.0,-3.0,-9.0,-1.0,-2.0
1701961594.6200166,2.0,1.0,1.0,-4.0,-5.0,-6.0,-4.0,-2.0
1701961594.6200166,-5.0,-14.0,-9.0,-2.0,-4.0,6.0,-2.0,-1.0
1701961594.6403387,0.0,-4.0,2.0,5.0,6.0,-6.0,3.0,1.0
1701961594.6403387,-2.0,14.0,5.0,-2.0,4.0,11.0,-4.0,-5.0
1701961594.6403387,-4.0,-9.0,-6.0,-1.0,-2.0,-4.0,-3.0,-1.0
1701961594.6403387,-1.0,4.0,5.0,-1.0,-3.0,-2.0,2.0,-1.0
1701961594.6603348,-2.0,0.0,-6.0,-3.0,-6.0,-2.0,-9.0,-2.0
1701961594.6603348,-2.0,-12.0,-7.0,-3.0,-1.0,-3.0,0.0,-3.0
1701961594.6603348,0.0,-1.0,2.0,2.0,4.0,4.0,3.0,0.0
1701961594.6603348,2.0,11.0,7.0,-2.0,-1.0,-4.0,-1.0,-2.0
1701961594.700016,-3.0,-5.0,-3.0,6.0,3.0,0.0,3.0,1.0
1701961594.700016,3.0,5.0,0.0,-1.0,-5.0,-1.0,0.0,1.0
1701961594.700016,0.0,-7.0,-4.0,1.0,-6.0,-6.0,-4.0,-2.0
1701961594.700016,-2.0,1.0,-7.0,-7.0,-2.0,-1.0,-3.0,0.0
1701961594.700016,-1.0,5.0,5.0,-3.0,-2.0,-2.0,0.0,-1.0
1701961594.700016,-3.0,-5.0,-3.0,1.0,2.0,2.0,0.0,-3.0
1701961594.700016,-3.0,-4.0,-3.0,-2.0,-5.0,-12.0,-5.0,-1.0
1701961594.700016,3.0,0.0,-4.0,-4.0,0.0,15.0,3.0,0.0
1701961594.7202013,0.0,-7.0,-5.0,-2.0,-2.0,-3.0,-2.0,-2.0
1701961594.7202013,-3.0,-5.0,7.0,-1.0,-6.0,-4.0,-5.0,-3.0
1701961594.7202013,-2.0,2.0,-2.0,1.0,8.0,0.0,0.0,-1.0
1701961594.7202013,-2.0,-6.0,0.0,0.0,-1.0,-3.0,-1.0,0.0
1701961594.7400186,2.0,10.0,2.0,-5.0,-2.0,-3.0,-1.0,0.0
1701961594.7400186,1.0,0.0,2.0,0.0,-2.0,0.0,0.0,1.0
1701961594.7400186,1.0,5.0,1.0,3.0,2.0,1.0,2.0,1.0
1701961594.7400186,0.0,-5.0,-5.0,-2.0,0.0,-2.0,-3.0,-2.0
1701961594.7600217,-3.0,2.0,4.0,1.0,-4.0,-3.0,-1.0,-1.0
1701961594.7600217,0.0,-7.0,-8.0,-5.0,-1.0,0.0,-2.0,-1.0
1701961594.7600217,-5.0,-2.0,6.0,1.0,-2.0,-2.0,-1.0,0.0
1701961594.7600217,2.0,5.0,-5.0,-3.0,2.0,-1.0,-2.0,0.0
1701961594.790427,-3.0,-8.0,0.0,0.0,-3.0,-7.0,-5.0,-2.0
1701961594.790427,1.0,4.0,-6.0,-4.0,-1.0,-6.0,-1.0,-1.0
1701961594.790427,-4.0,-11.0,-13.0,-8.0,-3.0,9.0,-1.0,-4.0
1701961594.790427,-3.0,-5.0,17.0,6.0,-2.0,-3.0,-2.0,0.0
1701961594.800018,-1.0,-5.0,-9.0,-2.0,-4.0,1.0,4.0,-2.0
1701961594.800018,1.0,-3.0,-5.0,-1.0,10.0,1.0,-1.0,-1.0
1701961594.800018,7.0,17.0,2.0,2.0,0.0,2.0,5.0,4.0
1701961594.800018,-5.0,-10.0,-4.0,-2.0,-4.0,-6.0,-3.0,-4.0
1701961594.8200397,5.0,19.0,3.0,0.0,-2.0,1.0,-2.0,1.0
1701961594.8200397,-4.0,-18.0,-3.0,-3.0,-3.0,1.0,-1.0,0.0
1701961594.8200397,4.0,23.0,9.0,3.0,0.0,-3.0,-1.0,0.0
1701961594.8200397,-4.0,-12.0,-15.0,-2.0,-2.0,-1.0,-1.0,-2.0
1701961594.8500164,-2.0,-4.0,1.0,-4.0,2.0,1.0,0.0,-3.0
1701961594.8500164,5.0,6.0,8.0,6.0,-2.0,0.0,1.0,3.0
1701961594.8500164,-3.0,-11.0,-17.0,-7.0,-6.0,-6.0,-3.0,-3.0
1701961594.8500164,-1.0,-3.0,7.0,-2.0,1.0,1.0,1.0,1.0
1701961594.8603933,-3.0,0.0,1.0,5.0,3.0,4.0,-1.0,-2.0
1701961594.8603933,0.0,2.0,-5.0,-6.0,-2.0,-1.0,-2.0,-1.0
1701961594.8603933,-4.0,-8.0,6.0,1.0,-4.0,-3.0,-3.0,-3.0
1701961594.8603933,1.0,4.0,2.0,1.0,-5.0,-2.0,-2.0,-1.0
1701961594.8800297,-4.0,-11.0,-10.0,-3.0,-2.0,-7.0,-2.0,-1.0
1701961594.8800297,-2.0,-1.0,2.0,0.0,2.0,3.0,0.0,-2.0
1701961594.8800297,1.0,2.0,-4.0,-4.0,-6.0,5.0,0.0,0.0
1701961594.8800297,2.0,3.0,1.0,8.0,9.0,7.0,2.0,1.0
1701961594.9100163,-4.0,-13.0,0.0,-2.0,1.0,-6.0,0.0,-2.0
1701961594.9100163,-3.0,13.0,5.0,1.0,-4.0,-9.0,-5.0,-2.0
1701961594.9100163,-2.0,-5.0,0.0,-5.0,2.0,9.0,5.0,1.0
1701961594.9100163,-1.0,7.0,-4.0,-3.0,-2.0,11.0,2.0,2.0
1701961594.9203832,4.0,1.0,5.0,9.0,4.0,5.0,1.0,3.0
1701961594.9203832,-5.0,-14.0,-4.0,0.0,5.0,0.0,-1.0,-3.0
1701961594.9203832,-2.0,-2.0,-11.0,-10.0,-7.0,-14.0,-8.0,-4.0
1701961594.9203832,-2.0,-12.0,3.0,1.0,-1.0,-4.0,-1.0,-1.0
1701961594.9400427,2.0,5.0,3.0,2.0,1.0,3.0,1.0,-1.0
1701961594.9400427,1.0,12.0,3.0,-2.0,-5.0,-2.0,-1.0,0.0
1701961594.9400427,-3.0,6.0,3.0,-2.0,-2.0,-4.0,-5.0,-3.0
1701961594.9400427,-3.0,-15.0,5.0,-1.0,-3.0,-6.0,-4.0,-3.0
1701961594.970017,-4.0,-4.0,-23.0,-10.0,-1.0,-1.0,-4.0,-3.0
1701961594.970017,0.0,4.0,-2.0,-1.0,4.0,3.0,2.0,0.0
1701961594.970017,3.0,3.0,8.0,4.0,-1.0,-5.0,0.0,1.0
1701961594.970017,-2.0,11.0,3.0,-2.0,4.0,12.0,1.0,-1.0
1701961594.9803762,-2.0,-4.0,13.0,-1.0,-7.0,-5.0,-1.0,-2.0
1701961594.9803762,2.0,-11.0,-8.0,2.0,2.0,2.0,1.0,0.0
1701961594.9803762,-8.0,1.0,-1.0,-11.0,-5.0,-4.0,-2.0,-4.0
1701961594.9803762,8.0,11.0,0.0,8.0,-2.0,-8.0,-4.0,0.0
1701961595.0000203,-6.0,-26.0,-9.0,3.0,2.0,3.0,-1.0,-1.0
1701961595.0000203,-3.0,-3.0,-6.0,-12.0,-2.0,1.0,-1.0,-2.0
1701961595.0290954,-3.0,-25.0,0.0,5.0,0.0,-2.0,-2.0,-3.0
1701961595.0290954,5.0,18.0,0.0,-1.0,5.0,-3.0,1.0,0.0
1701961595.033103,-6.0,5.0,1.0,-6.0,-5.0,0.0,-3.0,-2.0
1701961595.033103,4.0,1.0,-1.0,0.0,-4.0,-3.0,-2.0,2.0
1701961595.033103,-3.0,-7.0,-5.0,-2.0,0.0,-1.0,1.0,-1.0
1701961595.033103,-4.0,0.0,-5.0,-5.0,-3.0,-4.0,-3.0,-2.0
1701961595.04243,5.0,9.0,3.0,0.0,-3.0,-2.0,-2.0,0.0
1701961595.04243,-4.0,-11.0,-3.0,1.0,-1.0,-2.0,-1.0,-2.0
1701961595.04243,3.0,1.0,5.0,7.0,7.0,3.0,1.0,0.0
1701961595.04243,2.0,21.0,-9.0,-3.0,-4.0,-3.0,-1.0,-1.0
1701961595.0524366,1.0,-7.0,-2.0,-5.0,-2.0,-1.0,-1.0,-2.0
1701961595.0524366,-4.0,0.0,3.0,3.0,-4.0,-2.0,-1.0,0.0
1701961595.0624325,3.0,23.0,-6.0,-1.0,-8.0,-2.0,-2.0,-2.0
1701961595.0624325,0.0,3.0,7.0,6.0,14.0,3.0,3.0,1.0
1701961595.082463,-2.0,-11.0,4.0,-3.0,-5.0,-3.0,-3.0,-3.0
1701961595.082463,-1.0,-6.0,-12.0,-7.0,-5.0,0.0,-1.0,0.0
1701961595.082463,1.0,1.0,2.0,5.0,2.0,-3.0,-2.0,-2.0
1701961595.082463,-9.0,-43.0,-6.0,-8.0,-7.0,-3.0,-3.0,-3.0
1701961595.1026251,-7.0,-18.0,-4.0,-3.0,-4.0,-2.0,-3.0,-3.0
1701961595.1026251,1.0,16.0,10.0,2.0,2.0,-4.0,-1.0,-3.0
1701961595.1026251,2.0,-9.0,6.0,-2.0,-3.0,5.0,-1.0,0.0
1701961595.1026251,-2.0,-13.0,-5.0,-5.0,-5.0,-2.0,-2.0,-2.0
1701961595.1127574,3.0,6.0,0.0,4.0,2.0,-4.0,2.0,2.0
1701961595.1127574,-2.0,25.0,10.0,3.0,-2.0,1.0,-3.0,-4.0
1701961595.1324313,-7.0,2.0,-18.0,-5.0,4.0,-3.0,0.0,-5.0
1701961595.1324313,2.0,-25.0,17.0,9.0,1.0,7.0,9.0,11.0
1701961595.1426125,3.0,24.0,-32.0,-15.0,-5.0,9.0,-1.0,-5.0
1701961595.1426125,10.0,11.0,19.0,13.0,13.0,-12.0,2.0,6.0
1701961595.1426125,-8.0,-13.0,-5.0,-7.0,-1.0,11.0,-5.0,-7.0
1701961595.1426125,-1.0,3.0,-32.0,-25.0,-9.0,-19.0,-9.0,-5.0
1701961595.1627078,-7.0,-12.0,14.0,9.0,2.0,19.0,1.0,-2.0
1701961595.1627078,-4.0,-41.0,-16.0,0.0,-4.0,3.0,2.0,-1.0
1701961595.1627078,6.0,13.0,14.0,-3.0,3.0,1.0,3.0,7.0
1701961595.1627078,-6.0,1.0,7.0,10.0,1.0,-15.0,-2.0,-13.0
1701961595.1924357,5.0,-1.0,4.0,-3.0,1.0,-1.0,-4.0,15.0
1701961595.202432,-4.0,21.0,-4.0,4.0,0.0,-1.0,-4.0,-5.0
1701961595.202432,-12.0,-32.0,-5.0,-1.0,-6.0,-9.0,-5.0,-6.0
1701961595.202432,1.0,21.0,7.0,-6.0,-10.0,-1.0,1.0,2.0
1701961595.202432,-6.0,-3.0,-3.0,4.0,0.0,-19.0,-8.0,-12.0
1701961595.202432,1.0,-7.0,-10.0,-7.0,0.0,22.0,2.0,2.0
1701961595.202432,-3.0,-4.0,-23.0,-15.0,-3.0,-16.0,-2.0,2.0
1701961595.202432,0.0,5.0,-3.0,4.0,-2.0,10.0,-6.0,-5.0
1701961595.2226007,0.0,3.0,25.0,6.0,2.0,-2.0,-1.0,-2.0
1701961595.2226007,2.0,-2.0,-1.0,1.0,3.0,-3.0,0.0,2.0
1701961595.2226007,3.0,-2.0,1.0,4.0,-7.0,-2.0,-2.0,0.0
1701961595.2226007,-5.0,6.0,6.0,-7.0,1.0,-3.0,-4.0,-2.0
1701961595.2424338,4.0,8.0,-11.0,-3.0,-1.0,0.0,3.0,0.0
1701961595.2424338,0.0,1.0,-1.0,-5.0,-5.0,-4.0,-3.0,0.0
1701961595.2424338,-1.0,1.0,26.0,10.0,-1.0,1.0,-2.0,-3.0
1701961595.2424338,0.0,-7.0,-55.0,-19.0,-3.0,4.0,6.0,0.0
1701961595.2628033,4.0,-3.0,2.0,0.0,-3.0,-6.0,3.0,2.0
1701961595.2628033,-8.0,-27.0,-4.0,-5.0,-6.0,-11.0,-5.0,-5.0
1701961595.2628033,-5.0,-2.0,1.0,-2.0,-1.0,11.0,-7.0,-4.0
1701961595.2628033,0.0,16.0,5.0,9.0,3.0,4.0,4.0,8.0
1701961595.2828116,9.0,-1.0,4.0,1.0,6.0,-12.0,-1.0,2.0
1701961595.2828116,-10.0,2.0,6.0,-6.0,-10.0,-5.0,-9.0,-20.0
1701961595.2828116,-2.0,-9.0,-21.0,-1.0,9.0,32.0,20.0,6.0
1701961595.2828116,1.0,-2.0,21.0,6.0,4.0,-11.0,-5.0,2.0
1701961595.3024316,-3.0,2.0,1.0,0.0,-4.0,7.0,-4.0,4.0
1701961595.3024316,17.0,21.0,-2.0,3.0,-1.0,-9.0,-5.0,0.0
1701961595.3024316,-1.0,4.0,11.0,-4.0,-1.0,-13.0,0.0,4.0
1701961595.3024316,-6.0,-9.0,-6.0,3.0,-6.0,4.0,2.0,2.0
1701961595.3226993,-1.0,8.0,-2.0,-4.0,-1.0,-4.0,-3.0,0.0
1701961595.3226993,-5.0,-17.0,2.0,-2.0,1.0,-6.0,-1.0,-3.0
1701961595.3226993,8.0,12.0,-26.0,-2.0,1.0,4.0,-2.0,6.0
1701961595.3226993,-5.0,-15.0,-4.0,-7.0,-7.0,3.0,0.0,-7.0
1701961595.3427086,-4.0,1.0,14.0,4.0,-8.0,-12.0,-5.0,-10.0
1701961595.3427086,-6.0,-17.0,-31.0,-9.0,-3.0,4.0,3.0,1.0
1701961595.3427086,2.0,6.0,18.0,8.0,5.0,6.0,-1.0,-1.0
1701961595.3427086,1.0,10.0,4.0,1.0,5.0,-1.0,-2.0,-3.0
1701961595.372435,-2.0,-4.0,-7.0,-2.0,1.0,3.0,-1.0,-14.0
1701961595.372435,4.0,19.0,31.0,11.0,0.0,7.0,7.0,15.0
1701961595.372435,-8.0,-20.0,-56.0,-20.0,-5.0,-18.0,-5.0,-8.0
1701961595.372435,-1.0,-1.0,16.0,2.0,-4.0,-4.0,-11.0,3.0
1701961595.382469,-1.0,5.0,-7.0,-2.0,2.0,10.0,4.0,-7.0
1701961595.382469,-2.0,0.0,5.0,1.0,3.0,1.0,2.0,2.0
1701961595.382469,5.0,-4.0,22.0,8.0,-4.0,-10.0,-6.0,0.0
1701961595.382469,-6.0,9.0,-2.0,-1.0,0.0,-2.0,0.0,-6.0
1701961595.402794,-1.0,-22.0,-3.0,-2.0,-7.0,-4.0,3.0,-1.0
1701961595.402794,2.0,1.0,6.0,1.0,6.0,4.0,-4.0,4.0
1701961595.402794,-9.0,-10.0,-13.0,-1.0,-4.0,-13.0,-4.0,-9.0
1701961595.402794,0.0,-5.0,-1.0,-6.0,-4.0,-2.0,-1.0,1.0
1701961595.4224336,-3.0,3.0,11.0,-2.0,2.0,6.0,4.0,17.0
1701961595.4224336,-2.0,-5.0,-25.0,-1.0,-4.0,-12.0,-2.0,-3.0
1701961595.4224336,-2.0,-7.0,-2.0,-6.0,1.0,24.0,1.0,-3.0
1701961595.4224336,-1.0,3.0,4.0,3.0,-3.0,-18.0,-7.0,-6.0
1701961595.4427757,3.0,11.0,10.0,0.0,3.0,11.0,-2.0,-5.0
1701961595.4427757,1.0,-3.0,-2.0,-7.0,-8.0,-4.0,-1.0,-2.0
1701961595.4427757,-2.0,-3.0,-1.0,1.0,2.0,-5.0,-1.0,1.0
1701961595.4427757,-3.0,-6.0,15.0,6.0,3.0,5.0,3.0,-7.0
1701961595.4624314,4.0,12.0,-15.0,-8.0,-6.0,-6.0,-4.0,6.0
1701961595.4624314,-3.0,-7.0,-6.0,-6.0,-5.0,-10.0,0.0,-4.0
1701961595.4624314,6.0,15.0,1.0,6.0,1.0,1.0,1.0,-1.0
1701961595.4624314,-2.0,-10.0,0.0,-3.0,1.0,2.0,-2.0,-11.0
1701961595.482817,0.0,9.0,12.0,3.0,3.0,5.0,8.0,18.0
1701961595.482817,-2.0,-6.0,-8.0,0.0,2.0,4.0,2.0,-2.0
1701961595.482817,-3.0,1.0,4.0,-3.0,-7.0,-13.0,-2.0,-2.0
1701961595.482817,5.0,9.0,18.0,2.0,-2.0,7.0,2.0,3.0
1701961595.5028195,-7.0,-7.0,-14.0,-5.0,-2.0,-5.0,-6.0,-13.0
1701961595.5028195,-6.0,-5.0,-4.0,0.0,-3.0,2.0,-2.0,-2.0
1701961595.5028195,4.0,7.0,36.0,7.0,-2.0,-3.0,-1.0,7.0
1701961595.5028195,0.0,2.0,-38.0,-8.0,3.0,-2.0,-3.0,-3.0
1701961595.5224354,-4.0,-6.0,5.0,-5.0,-6.0,-3.0,-1.0,-2.0
1701961595.5224354,-3.0,-3.0,-12.0,-3.0,-2.0,0.0,1.0,2.0
1701961595.5224354,3.0,-1.0,-13.0,0.0,2.0,-6.0,0.0,-3.0
1701961595.5224354,-4.0,5.0,34.0,2.0,-3.0,8.0,-1.0,0.0
1701961595.5487552,-3.0,-3.0,-10.0,-1.0,-2.0,-5.0,-3.0,-3.0
1701961595.5487552,-2.0,0.0,0.0,-1.0,1.0,-1.0,-3.0,-6.0
1701961595.5502133,0.0,4.0,12.0,2.0,9.0,-11.0,-3.0,2.0
1701961595.5502133,8.0,1.0,-9.0,-1.0,-4.0,4.0,4.0,12.0
1701961595.5586011,-8.0,-7.0,-15.0,-3.0,-3.0,0.0,-1.0,-32.0
1701961595.5586011,3.0,2.0,18.0,0.0,-3.0,1.0,0.0,10.0
1701961595.5688972,-2.0,1.0,-19.0,1.0,-4.0,-5.0,-2.0,-6.0
1701961595.5688972,-2.0,5.0,-10.0,1.0,3.0,-5.0,-6.0,7.0
1701961595.5886316,-1.0,-1.0,18.0,1.0,0.0,-4.0,-3.0,-4.0
1701961595.5886316,-1.0,5.0,13.0,5.0,1.0,0.0,5.0,0.0
1701961595.5886316,2.0,-3.0,-20.0,-5.0,-5.0,-4.0,-4.0,-5.0
1701961595.5886316,-4.0,-10.0,8.0,-2.0,2.0,10.0,-1.0,-2.0
1701961595.60867,1.0,-5.0,-11.0,0.0,0.0,-3.0,-1.0,-2.0
1701961595.60867,0.0,4.0,18.0,5.0,-2.0,-6.0,-4.0,1.0
1701961595.60867,-3.0,-11.0,7.0,-8.0,-4.0,8.0,0.0,-7.0
1701961595.60867,3.0,-2.0,2.0,10.0,5.0,-3.0,12.0,22.0
1701961595.628608,6.0,1.0,-51.0,-15.0,4.0,-7.0,-4.0,-2.0
1701961595.628608,-4.0,1.0,19.0,4.0,-2.0,5.0,-3.0,-2.0
1701961595.638605,0.0,5.0,11.0,4.0,2.0,5.0,2.0,-3.0
1701961595.638605,-2.0,-6.0,-18.0,-10.0,-8.0,-11.0,-6.0,-11.0
1701961595.638605,0.0,3.0,25.0,11.0,-1.0,-5.0,-1.0,4.0
1701961595.638605,1.0,-4.0,-25.0,-8.0,0.0,1.0,-2.0,0.0
1701961595.638605,0.0,7.0,-4.0,1.0,3.0,1.0,2.0,-6.0
1701961595.638605,-1.0,-2.0,1.0,2.0,-1.0,-4.0,0.0,-4.0
1701961595.6689456,-2.0,2.0,10.0,-2.0,-1.0,7.0,1.0,10.0
1701961595.6689456,-6.0,-17.0,-3.0,6.0,3.0,-4.0,-4.0,-8.0
1701961595.6689456,-1.0,8.0,-7.0,-11.0,-5.0,1.0,-2.0,5.0
1701961595.6689456,-1.0,-10.0,-16.0,-3.0,0.0,-1.0,1.0,-3.0
1701961595.6792076,1.0,4.0,5.0,4.0,-4.0,-8.0,-4.0,-2.0
1701961595.6792076,1.0,4.0,-5.0,-6.0,-7.0,8.0,-3.0,0.0
1701961595.6889443,1.0,2.0,14.0,8.0,4.0,-5.0,0.0,2.0
1701961595.6889443,-2.0,-5.0,1.0,4.0,1.0,1.0,0.0,-4.0
1701961595.699292,-3.0,-2.0,0.0,-5.0,-6.0,-2.0,-4.0,1.0
1701961595.699292,2.0,2.0,-4.0,1.0,2.0,-3.0,0.0,-1.0
1701961595.699292,-9.0,-6.0,-4.0,-4.0,-5.0,-2.0,0.0,5.0
1701961595.699292,2.0,6.0,-2.0,-3.0,0.0,4.0,0.0,-5.0
1701961595.7289448,-1.0,-6.0,-8.0,-5.0,-6.0,-4.0,-2.0,-1.0
1701961595.7289448,2.0,-1.0,1.0,2.0,4.0,-2.0,1.0,-6.0
1701961595.7289448,-1.0,2.0,5.0,-3.0,-1.0,3.0,1.0,-3.0
1701961595.7289448,1.0,2.0,-3.0,0.0,-2.0,-12.0,-3.0,0.0
1701961595.7391713,-6.0,-8.0,-10.0,2.0,0.0,10.0,1.0,-3.0
1701961595.7391713,-4.0,-8.0,6.0,-7.0,-6.0,-7.0,-1.0,-1.0
1701961595.7489457,0.0,-4.0,-29.0,-4.0,-1.0,-5.0,-4.0,1.0
1701961595.7489457,-4.0,8.0,8.0,3.0,0.0,4.0,1.0,-2.0
1701961595.7591767,4.0,0.0,10.0,3.0,6.0,0.0,1.0,5.0
1701961595.7591767,-2.0,-4.0,-10.0,1.0,-7.0,-6.0,-4.0,-4.0
1701961595.7591767,-2.0,-6.0,7.0,0.0,5.0,1.0,1.0,2.0
1701961595.7591767,1.0,2.0,4.0,0.0,-9.0,-10.0,-5.0,-5.0
1701961595.7889483,-2.0,-3.0,-8.0,-3.0,0.0,0.0,1.0,0.0
1701961595.7889483,-4.0,15.0,15.0,-1.0,0.0,6.0,1.0,-1.0
1701961595.7889483,4.0,-1.0,-21.0,-7.0,-5.0,-3.0,-3.0,-1.0
1701961595.7889483,1.0,-8.0,-11.0,-3.0,-1.0,-1.0,-1.0,-3.0
1701961595.8090293,-10.0,-1.0,12.0,-6.0,-3.0,-3.0,-2.0,-1.0
1701961595.8090293,2.0,-7.0,-7.0,13.0,2.0,1.0,-1.0,-2.0
1701961595.8090293,-2.0,2.0,2.0,-8.0,1.0,3.0,0.0,-1.0
1701961595.8090293,-2.0,-4.0,-1.0,-2.0,-5.0,-3.0,-3.0,-2.0
1701961595.8190548,2.0,0.0,-3.0,3.0,0.0,0.0,1.0,2.0
1701961595.8190548,-3.0,3.0,-8.0,-9.0,3.0,1.0,-1.0,-1.0
1701961595.8190548,-3.0,-7.0,6.0,4.0,-1.0,-1.0,1.0,-2.0
1701961595.8190548,1.0,0.0,1.0,-2.0,0.0,-2.0,-1.0,-1.0
1701961595.8494208,-1.0,2.0,-1.0,-1.0,-6.0,-8.0,-7.0,-3.0
1701961595.8494208,1.0,2.0,3.0,0.0,-1.0,6.0,-1.0,-2.0
1701961595.8494208,-1.0,-1.0,-1.0,-2.0,3.0,3.0,2.0,1.0
1701961595.8494208,-3.0,-10.0,-6.0,-7.0,-3.0,-2.0,-5.0,-1.0
1701961595.85942,2.0,4.0,-2.0,-2.0,-5.0,-7.0,3.0,0.0
1701961595.85942,-4.0,-7.0,-10.0,-4.0,0.0,5.0,-6.0,-6.0
1701961595.8697326,-1.0,5.0,1.0,-1.0,-4.0,-8.0,-4.0,0.0
1701961595.8697326,1.0,3.0,14.0,9.0,-1.0,-9.0,1.0,-2.0
1701961595.8797653,5.0,0.0,-10.0,-6.0,4.0,11.0,3.0,1.0
1701961595.8797653,-5.0,-1.0,0.0,-5.0,-4.0,-15.0,-3.0,1.0
1701961595.8797653,-3.0,-7.0,1.0,3.0,-4.0,-4.0,-2.0,-4.0
1701961595.8797653,-5.0,-6.0,-8.0,-3.0,2.0,6.0,-5.0,-17.0
1701961595.9094207,4.0,3.0,15.0,6.0,2.0,-9.0,6.0,16.0
1701961595.9094207,-1.0,-5.0,4.0,-2.0,3.0,12.0,0.0,-4.0
1701961595.9094207,-3.0,-8.0,-39.0,-4.0,-7.0,-13.0,-8.0,-3.0
1701961595.9094207,-1.0,3.0,9.0,-4.0,2.0,4.0,3.0,0.0
1701961595.9194555,-2.0,-2.0,4.0,2.0,-1.0,4.0,-3.0,-7.0
1701961595.9194555,1.0,2.0,1.0,-3.0,0.0,-10.0,3.0,1.0
1701961595.92976,1.0,1.0,26.0,13.0,0.0,1.0,-1.0,2.0
1701961595.92976,-3.0,2.0,-13.0,-8.0,-6.0,10.0,1.0,2.0
1701961595.9397717,3.0,-3.0,-4.0,-1.0,4.0,-9.0,1.0,-3.0
1701961595.9397717,-7.0,-3.0,0.0,-1.0,-2.0,13.0,2.0,0.0
1701961595.9397717,-4.0,2.0,5.0,1.0,-3.0,-6.0,-3.0,-3.0
1701961595.9397717,4.0,3.0,1.0,6.0,4.0,2.0,3.0,7.0
1701961595.9694219,-10.0,-15.0,-12.0,5.0,2.0,-1.0,-5.0,-5.0
1701961595.9694219,4.0,5.0,7.0,1.0,3.0,-4.0,2.0,0.0
1701961595.9694219,-1.0,0.0,2.0,-7.0,-6.0,0.0,0.0,-1.0
1701961595.9694219,0.0,1.0,9.0,-3.0,-2.0,-2.0,-4.0,-1.0
1701961595.9794195,-1.0,-1.0,-10.0,0.0,-6.0,-6.0,-4.0,-3.0
1701961595.9794195,0.0,-8.0,-24.0,-5.0,-2.0,-4.0,0.0,0.0
1701961595.9897509,0.0,1.0,15.0,2.0,4.0,4.0,0.0,1.0
1701961595.9897509,-1.0,-2.0,-6.0,-3.0,0.0,-7.0,-1.0,1.0
1701961595.9997635,-3.0,-1.0,2.0,0.0,1.0,6.0,0.0,-1.0
1701961595.9997635,0.0,1.0,11.0,7.0,1.0,-4.0,-1.0,0.0
1701961595.9997635,2.0,-2.0,2.0,-7.0,1.0,0.0,-1.0,-2.0
1701961595.9997635,-2.0,-2.0,2.0,0.0,-4.0,-11.0,-5.0,-2.0
1701961596.0194244,-1.0,0.0,-14.0,-5.0,0.0,3.0,-2.0,-2.0
1701961596.0194244,3.0,4.0,0.0,-4.0,-4.0,-4.0,-2.0,1.0
1701961596.029419,-2.0,-7.0,3.0,0.0,-8.0,-3.0,-3.0,0.0
1701961596.029419,-1.0,1.0,2.0,5.0,2.0,0.0,0.0,-1.0
1701961596.0397685,-4.0,-7.0,5.0,-7.0,4.0,9.0,3.0,-1.0
1701961596.0397685,-1.0,-1.0,-11.0,1.0,-2.0,-4.0,-2.0,-1.0
1701961596.0497603,0.0,3.0,3.0,2.0,0.0,1.0,1.0,-1.0
1701961596.0497603,-4.0,-6.0,-9.0,-5.0,-2.0,8.0,0.0,-3.0
1701961596.066365,2.0,6.0,8.0,-5.0,-3.0,0.0,-3.0,-2.0
1701961596.066365,-2.0,-6.0,-6.0,8.0,-2.0,-4.0,-1.0,-2.0
1701961596.0674314,-2.0,0.0,5.0,2.0,0.0,3.0,1.0,-1.0
1701961596.0674314,1.0,12.0,2.0,-6.0,2.0,-1.0,-1.0,2.0
1701961596.0886757,-2.0,0.0,-2.0,4.0,-3.0,-5.0,-3.0,1.0
1701961596.089699,0.0,-2.0,-7.0,-8.0,-1.0,0.0,1.0,-1.0
1701961596.0911343,-5.0,-7.0,-1.0,0.0,0.0,0.0,-2.0,-2.0
1701961596.0911343,1.0,5.0,1.0,2.0,-2.0,0.0,0.0,-1.0
1701961596.1113086,-1.0,2.0,-1.0,-4.0,-5.0,-1.0,-4.0,-4.0
1701961596.1113086,-2.0,-9.0,-8.0,-6.0,-6.0,-2.0,-2.0,-2.0
1701961596.1113086,0.0,3.0,5.0,3.0,3.0,3.0,1.0,0.0
1701961596.1113086,-3.0,-9.0,0.0,-3.0,-2.0,-9.0,-2.0,-2.0
1701961596.1214244,6.0,8.0,-10.0,-3.0,0.0,-3.0,1.0,3.0
1701961596.1214244,-4.0,0.0,3.0,-1.0,-7.0,-1.0,-3.0,-1.0
1701961596.1214244,3.0,-2.0,-2.0,0.0,8.0,4.0,-2.0,-3.0
1701961596.1214244,1.0,4.0,-3.0,-2.0,-4.0,6.0,0.0,0.0
1701961596.1511343,-2.0,-8.0,2.0,2.0,-7.0,-18.0,-4.0,-2.0
1701961596.1511343,0.0,-2.0,3.0,2.0,7.0,6.0,1.0,-4.0
1701961596.1511343,0.0,9.0,9.0,-3.0,0.0,-2.0,-1.0,9.0
1701961596.1511343,0.0,-6.0,-26.0,-2.0,2.0,-2.0,1.0,0.0
1701961596.171322,0.0,-1.0,15.0,7.0,2.0,3.0,-4.0,-3.0
1701961596.171322,-1.0,-1.0,-24.0,-10.0,-4.0,-13.0,-4.0,-2.0
1701961596.171322,-2.0,1.0,11.0,2.0,-7.0,-8.0,-3.0,-5.0
1701961596.171322,-1.0,-3.0,-6.0,-7.0,-1.0,12.0,2.0,0.0
1701961596.1911392,-3.0,2.0,6.0,6.0,4.0,0.0,2.0,4.0
1701961596.1911392,-5.0,-7.0,-1.0,-6.0,-1.0,0.0,-4.0,-6.0
1701961596.1911392,4.0,10.0,7.0,4.0,1.0,-2.0,1.0,-3.0
1701961596.1911392,-7.0,-11.0,-12.0,-6.0,-5.0,-8.0,-8.0,-1.0
1701961596.2011359,2.0,0.0,8.0,1.0,1.0,8.0,6.0,-3.0
1701961596.2011359,1.0,3.0,1.0,3.0,0.0,-5.0,-1.0,6.0
1701961596.2011359,-3.0,-7.0,-22.0,-6.0,-5.0,8.0,-1.0,-3.0
1701961596.2011359,-2.0,-6.0,8.0,4.0,1.0,-13.0,-3.0,-2.0
1701961596.231401,-2.0,10.0,-5.0,-4.0,-3.0,-2.0,-2.0,-3.0
1701961596.231401,-1.0,-8.0,-7.0,-8.0,-2.0,2.0,-2.0,-3.0
1701961596.231401,0.0,-2.0,5.0,5.0,3.0,3.0,2.0,2.0
1701961596.231401,-1.0,0.0,23.0,6.0,1.0,3.0,0.0,-2.0
1701961596.2415369,-3.0,-2.0,-24.0,-9.0,-6.0,-16.0,-3.0,-2.0
1701961596.2415369,1.0,0.0,6.0,3.0,2.0,19.0,2.0,2.0
1701961596.2611346,-4.0,-7.0,-12.0,-6.0,1.0,-7.0,-2.0,-1.0
1701961596.2611346,1.0,2.0,-3.0,0.0,-4.0,-4.0,-1.0,-2.0
1701961596.2611346,-2.0,-5.0,8.0,3.0,1.0,4.0,-2.0,-2.0
1701961596.2611346,-1.0,2.0,1.0,-2.0,-4.0,-10.0,-1.0,1.0
1701961596.2611346,3.0,7.0,7.0,2.0,-3.0,-1.0,1.0,-1.0
1701961596.271142,2.0,-4.0,0.0,4.0,4.0,5.0,3.0,2.0
1701961596.2913475,3.0,-4.0,-12.0,-4.0,-4.0,-3.0,-1.0,0.0
1701961596.2913475,-5.0,0.0,-5.0,-3.0,-3.0,-3.0,-3.0,-1.0
1701961596.2913475,-4.0,-3.0,3.0,-1.0,-5.0,2.0,-4.0,-4.0
1701961596.2913475,-1.0,-3.0,0.0,-3.0,3.0,-6.0,2.0,1.0
1701961596.3211336,2.0,10.0,13.0,4.0,1.0,8.0,4.0,0.0
1701961596.3211336,-1.0,-14.0,-13.0,-3.0,-2.0,2.0,-1.0,-2.0
1701961596.3211336,1.0,5.0,2.0,2.0,0.0,1.0,4.0,0.0
1701961596.3211336,-4.0,3.0,0.0,1.0,-5.0,-6.0,-8.0,-1.0
1701961596.3211336,-1.0,-8.0,-5.0,-7.0,2.0,0.0,-4.0,-1.0
1701961596.3211336,-1.0,4.0,-3.0,2.0,3.0,-2.0,0.0,-1.0
1701961596.3211336,0.0,3.0,2.0,-6.0,-11.0,-14.0,-4.0,0.0
1701961596.3211336,-1.0,-11.0,-6.0,2.0,8.0,14.0,3.0,-4.0
1701961596.3513808,-4.0,0.0,3.0,0.0,-2.0,3.0,0.0,1.0
1701961596.3513808,1.0,4.0,6.0,3.0,1.0,-3.0,-2.0,0.0
1701961596.3513808,-1.0,-9.0,-15.0,-4.0,-1.0,-3.0,-2.0,-2.0
1701961596.3513808,2.0,9.0,0.0,-7.0,-10.0,-4.0,-2.0,0.0
1701961596.361133,-3.0,-4.0,7.0,5.0,6.0,5.0,1.0,-2.0
1701961596.361133,-2.0,-7.0,-9.0,-2.0,-4.0,-6.0,0.0,-1.0
1701961596.3711677,3.0,11.0,1.0,0.0,2.0,0.0,-2.0,1.0
1701961596.3711677,-3.0,-3.0,2.0,-4.0,-11.0,-21.0,-5.0,-1.0
1701961596.3815365,-1.0,-4.0,-17.0,-1.0,-1.0,6.0,0.0,-4.0
1701961596.3815365,0.0,4.0,24.0,4.0,0.0,7.0,2.0,0.0
1701961596.3815365,5.0,-1.0,2.0,1.0,-1.0,0.0,0.0,0.0
1701961596.3815365,-5.0,3.0,-15.0,-9.0,-1.0,1.0,-1.0,0.0
1701961596.4211347,-1.0,-3.0,0.0,-2.0,-5.0,-7.0,-4.0,-2.0
1701961596.4211347,2.0,8.0,6.0,2.0,2.0,-3.0,-1.0,1.0
1701961596.4311314,-4.0,-4.0,-7.0,-1.0,1.0,4.0,0.0,-2.0
1701961596.4311314,0.0,-4.0,9.0,-2.0,-4.0,-3.0,-2.0,-2.0
1701961596.4311314,0.0,4.0,4.0,1.0,-2.0,-1.0,-2.0,-1.0
1701961596.4311314,-2.0,-5.0,-10.0,0.0,1.0,-1.0,-3.0,-5.0
1701961596.4311314,1.0,3.0,-2.0,-3.0,6.0,3.0,2.0,4.0
1701961596.4311314,-2.0,5.0,8.0,4.0,-1.0,3.0,1.0,1.0
1701961596.4415224,1.0,-8.0,-12.0,-3.0,0.0,1.0,-1.0,0.0
1701961596.4415224,3.0,7.0,3.0,-1.0,-6.0,-3.0,-1.0,-2.0
1701961596.4415224,-4.0,-7.0,-10.0,-6.0,-6.0,-5.0,-4.0,-2.0
1701961596.4415224,-1.0,1.0,0.0,-3.0,-2.0,1.0,-1.0,0.0
1701961596.4715505,-3.0,-1.0,5.0,3.0,4.0,-2.0,-6.0,-2.0
1701961596.4715505,2.0,-4.0,3.0,0.0,-1.0,-12.0,-5.0,0.0
1701961596.4715505,-2.0,-4.0,-7.0,1.0,-1.0,6.0,5.0,0.0
1701961596.4715505,0.0,0.0,3.0,1.0,2.0,1.0,-2.0,-2.0
1701961596.4811323,0.0,-2.0,-4.0,-3.0,-8.0,-4.0,1.0,-1.0
1701961596.4811323,-2.0,-6.0,-8.0,-6.0,-3.0,-4.0,1.0,1.0
1701961596.4914286,-1.0,2.0,7.0,1.0,0.0,3.0,-3.0,-2.0
1701961596.4914286,-2.0,-15.0,-11.0,1.0,1.0,-1.0,-2.0,-3.0
1701961596.5014646,0.0,10.0,6.0,1.0,-7.0,0.0,0.0,2.0
1701961596.5014646,-4.0,-8.0,-4.0,-2.0,9.0,-1.0,-1.0,-3.0
1701961596.5014646,-4.0,-12.0,-8.0,-4.0,-6.0,-2.0,-4.0,-13.0
1701961596.5014646,3.0,4.0,1.0,-3.0,0.0,1.0,6.0,16.0
1701961596.531133,-1.0,1.0,0.0,-2.0,-3.0,0.0,1.0,-2.0
1701961596.531133,-1.0,4.0,1.0,-1.0,-5.0,0.0,-1.0,2.0
1701961596.531133,-1.0,-7.0,-3.0,-1.0,-1.0,-5.0,-2.0,-2.0
1701961596.531133,-1.0,-2.0,-7.0,-2.0,1.0,0.0,-3.0,-4.0
1701961596.541499,-3.0,-8.0,2.0,1.0,3.0,0.0,-2.0,0.0
1701961596.541499,1.0,4.0,-1.0,-1.0,-4.0,1.0,-1.0,-3.0
1701961596.5515203,-2.0,-2.0,-5.0,0.0,0.0,-1.0,-4.0,3.0
1701961596.5515203,0.0,1.0,5.0,2.0,-5.0,-3.0,-5.0,-4.0
1701961596.5614414,2.0,-7.0,-15.0,-7.0,-3.0,-2.0,-1.0,0.0
1701961596.5614414,-6.0,-1.0,8.0,4.0,1.0,3.0,-2.0,7.0
1701961596.5614414,-2.0,0.0,-2.0,-4.0,-3.0,-3.0,-3.0,-2.0
1701961596.5614414,-3.0,-3.0,4.0,2.0,-5.0,-2.0,-2.0,-4.0
1701961596.5934484,-1.0,2.0,5.0,2.0,3.0,-1.0,-3.0,-2.0
1701961596.5934484,0.0,0.0,5.0,3.0,0.0,-3.0,-2.0,-6.0
1701961596.5934484,0.0,-5.0,-9.0,-2.0,-3.0,3.0,1.0,0.0
1701961596.5934484,-2.0,-10.0,-15.0,-1.0,8.0,1.0,0.0,0.0
1701961596.6047583,-1.0,3.0,3.0,-4.0,-7.0,-8.0,0.0,-4.0
1701961596.6058183,-2.0,2.0,3.0,-6.0,-5.0,3.0,-3.0,-1.0
1701961596.6123292,-1.0,-4.0,2.0,0.0,-3.0,-6.0,-2.0,2.0
1701961596.613403,4.0,7.0,5.0,-2.0,-1.0,-1.0,1.0,-1.0
1701961596.624213,-2.0,-11.0,-17.0,-2.0,0.0,-5.0,-5.0,-4.0
1701961596.624213,-2.0,-3.0,11.0,2.0,2.0,3.0,2.0,-1.0
1701961596.624213,1.0,7.0,-3.0,0.0,1.0,-2.0,0.0,1.0
1701961596.624213,1.0,12.0,1.0,-2.0,-3.0,5.0,-1.0,-3.0
1701961596.6742094,-6.0,-14.0,-4.0,-3.0,0.0,-6.0,-3.0,-1.0
1701961596.6742094,3.0,9.0,-5.0,-4.0,-2.0,-1.0,2.0,0.0
1701961596.6742094,-4.0,-3.0,1.0,0.0,1.0,-1.0,-2.0,-4.0
1701961596.6742094,0.0,3.0,3.0,-2.0,-2.0,-1.0,-5.0,-15.0
1701961596.6742094,1.0,2.0,2.0,2.0,0.0,-1.0,9.0,18.0
1701961596.6742094,-1.0,-8.0,-9.0,-3.0,-1.0,2.0,0.0,-4.0
1701961596.6742094,1.0,0.0,0.0,2.0,1.0,-3.0,-4.0,-4.0
1701961596.6742094,-1.0,-2.0,0.0,-3.0,-4.0,4.0,7.0,4.0
1701961596.6942143,-4.0,-7.0,-3.0,-4.0,2.0,-4.0,-3.0,-5.0
1701961596.6942143,-2.0,4.0,-4.0,-4.0,-9.0,-1.0,-1.0,-3.0
1701961596.6942143,6.0,10.0,2.0,5.0,4.0,-8.0,-1.0,-1.0
1701961596.6942143,-7.0,-11.0,0.0,-1.0,-1.0,10.0,2.0,2.0
1701961596.7042096,3.0,7.0,9.0,-2.0,-4.0,2.0,-5.0,-4.0
1701961596.7042096,-4.0,-7.0,-7.0,-1.0,-3.0,-6.0,2.0,3.0
1701961596.7042096,-5.0,-2.0,6.0,-2.0,-3.0,-2.0,-5.0,-4.0
1701961596.7042096,3.0,5.0,-7.0,1.0,0.0,-8.0,0.0,1.0
1701961596.72457,0.0,-4.0,16.0,6.0,6.0,9.0,4.0,2.0
1701961596.72457,1.0,-6.0,-17.0,-1.0,2.0,0.0,-2.0,-4.0
1701961596.72457,0.0,3.0,2.0,-4.0,-2.0,4.0,0.0,4.0
1701961596.72457,-4.0,-6.0,-8.0,0.0,1.0,-6.0,-3.0,0.0
1701961596.7545955,-2.0,1.0,-1.0,-4.0,-10.0,0.0,-2.0,-2.0
1701961596.7545955,4.0,6.0,10.0,1.0,7.0,-6.0,-6.0,1.0
1701961596.7545955,-8.0,-18.0,-3.0,1.0,0.0,5.0,-4.0,-4.0
1701961596.7545955,0.0,3.0,-9.0,-6.0,-4.0,-9.0,-6.0,2.0
1701961596.7647667,1.0,-1.0,1.0,3.0,3.0,6.0,1.0,-2.0
1701961596.7647667,1.0,0.0,-6.0,-2.0,-4.0,-5.0,0.0,0.0
1701961596.7647667,0.0,2.0,1.0,-2.0,-2.0,-1.0,-3.0,-5.0
1701961596.7647667,1.0,1.0,3.0,7.0,5.0,-4.0,-2.0,-2.0
1701961596.7848265,1.0,0.0,-4.0,-5.0,-3.0,-2.0,2.0,0.0
1701961596.7848265,1.0,3.0,-2.0,-3.0,-5.0,-14.0,-7.0,-6.0
1701961596.7945862,-4.0,3.0,5.0,4.0,8.0,31.0,12.0,11.0
1701961596.7945862,0.0,2.0,5.0,-4.0,-7.0,-8.0,-5.0,-5.0
1701961596.8145907,-3.0,-6.0,-12.0,-1.0,2.0,-4.0,-3.0,-3.0
1701961596.8145907,2.0,4.0,0.0,2.0,3.0,5.0,3.0,-1.0
1701961596.8245814,0.0,-5.0,-5.0,-6.0,-10.0,-14.0,-4.0,-2.0
1701961596.8245814,-1.0,-1.0,6.0,0.0,4.0,2.0,1.0,2.0
1701961596.8245814,-2.0,2.0,3.0,7.0,6.0,9.0,0.0,-4.0
1701961596.8245814,0.0,-11.0,-6.0,-2.0,-8.0,-3.0,1.0,-1.0
1701961596.8245814,-1.0,-3.0,-1.0,-3.0,-2.0,-10.0,-5.0,0.0
1701961596.8245814,-2.0,-3.0,0.0,-3.0,-2.0,6.0,2.0,-14.0
1701961596.844928,4.0,5.0,-7.0,-3.0,1.0,-9.0,3.0,21.0
1701961596.844928,-3.0,-10.0,12.0,2.0,-2.0,4.0,4.0,-1.0
1701961596.844928,-1.0,1.0,-8.0,-6.0,-3.0,-2.0,0.0,-3.0
1701961596.844928,2.0,1.0,-3.0,1.0,2.0,7.0,2.0,3.0
1701961596.8645823,-2.0,3.0,5.0,2.0,-1.0,-5.0,-6.0,-11.0
1701961596.8645823,0.0,0.0,-4.0,-2.0,-3.0,2.0,-3.0,2.0
1701961596.8745806,-2.0,-1.0,-3.0,-5.0,-4.0,-9.0,-5.0,0.0
1701961596.8745806,0.0,0.0,4.0,2.0,3.0,-1.0,3.0,4.0
1701961596.8849025,-1.0,1.0,-8.0,-7.0,-2.0,-3.0,-3.0,-3.0
1701961596.8849025,-2.0,-7.0,-7.0,2.0,4.0,8.0,-2.0,-16.0
1701961596.8849025,7.0,7.0,7.0,1.0,-1.0,-9.0,5.0,29.0
1701961596.8849025,-7.0,-11.0,-3.0,0.0,-3.0,-6.0,-4.0,-14.0
1701961596.9145806,-2.0,0.0,2.0,2.0,0.0,4.0,-2.0,-5.0
1701961596.9145806,0.0,3.0,0.0,-1.0,2.0,-4.0,-1.0,1.0
1701961596.9145806,-1.0,1.0,1.0,3.0,-1.0,0.0,-1.0,-5.0
1701961596.9145806,0.0,2.0,0.0,0.0,0.0,1.0,-1.0,4.0
1701961596.9245794,-2.0,4.0,-3.0,-6.0,-9.0,-4.0,-3.0,0.0
1701961596.9245794,-5.0,6.0,7.0,1.0,5.0,-1.0,-3.0,-1.0
1701961596.9245794,-2.0,-5.0,-3.0,5.0,3.0,4.0,1.0,-5.0
1701961596.9245794,0.0,-4.0,-4.0,-5.0,-4.0,-3.0,-2.0,3.0
1701961596.9449584,-4.0,-11.0,5.0,-1.0,-2.0,-4.0,-2.0,-7.0
1701961596.9449584,-3.0,-5.0,-19.0,-7.0,-7.0,-5.0,-3.0,2.0
1701961596.9449584,-5.0,-6.0,13.0,6.0,2.0,5.0,-2.0,-23.0
1701961596.9449584,3.0,1.0,-12.0,-8.0,-1.0,-1.0,10.0,23.0
1701961596.9745843,-2.0,-1.0,-4.0,-1.0,-3.0,-1.0,-2.0,-1.0
1701961596.9745843,-5.0,-9.0,6.0,-2.0,0.0,3.0,0.0,2.0
1701961596.9745843,3.0,7.0,5.0,1.0,-4.0,-7.0,-2.0,-4.0
1701961596.9745843,-6.0,-19.0,-12.0,-2.0,2.0,3.0,-2.0,-7.0
1701961596.9845808,10.0,33.0,15.0,4.0,5.0,1.0,1.0,3.0
1701961596.9845808,-9.0,-34.0,-15.0,-5.0,-4.0,-1.0,-2.0,1.0
1701961596.9845808,-3.0,2.0,1.0,-5.0,-2.0,-4.0,-2.0,-3.0
1701961596.9845808,0.0,2.0,-3.0,1.0,-4.0,-1.0,-4.0,-4.0
1701961597.004767,3.0,-7.0,-3.0,-2.0,-2.0,-3.0,-1.0,2.0
1701961597.004767,-1.0,15.0,13.0,5.0,3.0,1.0,1.0,-2.0
1701961597.004767,-2.0,-3.0,-6.0,-6.0,-9.0,-6.0,-1.0,1.0
1701961597.004767,-3.0,-8.0,-3.0,2.0,6.0,5.0,-1.0,-2.0
1701961597.024841,4.0,16.0,-6.0,-1.0,1.0,0.0,1.0,-3.0
1701961597.0345907,6.0,20.0,0.0,-4.0,-4.0,-3.0,-1.0,-1.0
1701961597.0445838,0.0,-3.0,-5.0,-4.0,-1.0,-2.0,0.0,3.0
1701961597.0445838,2.0,4.0,7.0,0.0,-6.0,-6.0,-2.0,-2.0
1701961597.0545802,-6.0,-8.0,1.0,4.0,3.0,1.0,0.0,-2.0
1701961597.0545802,4.0,11.0,4.0,-2.0,-1.0,0.0,0.0,1.0
1701961597.0545802,-1.0,-1.0,-8.0,-2.0,4.0,2.0,-2.0,2.0
1701961597.0545802,1.0,10.0,3.0,0.0,-3.0,-3.0,-4.0,-5.0
1701961597.0647855,-6.0,-27.0,-1.0,1.0,-3.0,-7.0,-4.0,-1.0
1701961597.0647855,-6.0,2.0,-4.0,0.0,1.0,13.0,2.0,-2.0
1701961597.0647855,1.0,1.0,0.0,-8.0,-2.0,-1.0,1.0,0.0
1701961597.0647855,-1.0,-3.0,-4.0,-1.0,4.0,-5.0,-3.0,-2.0
1701961597.0945833,-5.0,-6.0,-10.0,-5.0,-5.0,-5.0,-4.0,-5.0
1701961597.0945833,0.0,-4.0,0.0,-3.0,-2.0,-5.0,-1.0,1.0
1701961597.0945833,-2.0,-8.0,9.0,8.0,8.0,0.0,-2.0,-3.0
1701961597.0945833,-2.0,-2.0,-20.0,-10.0,-4.0,0.0,1.0,-1.0
1701961597.104615,-1.0,6.0,3.0,-3.0,-2.0,-4.0,1.0,2.0
1701961597.104615,4.0,4.0,3.0,0.0,-2.0,3.0,-2.0,-3.0
1701961597.104615,-7.0,-1.0,-6.0,1.0,-3.0,3.0,-3.0,-11.0
1701961597.104615,3.0,1.0,1.0,1.0,5.0,-4.0,3.0,8.0
1701961597.1309974,2.0,-5.0,-1.0,-1.0,-2.0,-2.0,-7.0,-3.0
1701961597.1309974,6.0,5.0,-1.0,-3.0,0.0,-7.0,-1.0,3.0
1701961597.1309974,-3.0,9.0,-3.0,-3.0,-3.0,-5.0,-7.0,-9.0
1701961597.1309974,-2.0,6.0,6.0,3.0,0.0,-1.0,-5.0,-1.0
1701961597.152687,-2.0,-8.0,-5.0,-6.0,-5.0,3.0,2.0,-1.0
1701961597.152687,-2.0,-13.0,1.0,1.0,2.0,-3.0,0.0,-1.0
1701961597.1535628,3.0,13.0,3.0,-1.0,-7.0,-3.0,0.0,3.0
1701961597.1535628,1.0,-3.0,3.0,2.0,7.0,-1.0,1.0,-3.0
1701961597.1668851,-6.0,-29.0,-5.0,2.0,0.0,4.0,-1.0,-8.0
1701961597.1668851,-5.0,-5.0,-7.0,-3.0,-5.0,-7.0,-1.0,17.0
1701961597.1668851,-1.0,10.0,1.0,-3.0,1.0,0.0,-1.0,-4.0
1701961597.1668851,-12.0,-38.0,-4.0,-3.0,-9.0,-3.0,-6.0,-5.0
1701961597.1869211,-3.0,-9.0,-4.0,-2.0,0.0,1.0,0.0,-5.0
1701961597.1869211,4.0,15.0,4.0,5.0,4.0,2.0,-1.0,-1.0
1701961597.1869211,1.0,-3.0,-12.0,-1.0,-3.0,-1.0,1.0,3.0
1701961597.1869211,-14.0,-78.0,-4.0,-3.0,-2.0,0.0,-2.0,-4.0
1701961597.2165554,-3.0,14.0,7.0,-2.0,-3.0,-1.0,-3.0,-1.0
1701961597.2165554,2.0,17.0,-14.0,-6.0,-5.0,-4.0,-3.0,-4.0
1701961597.2165554,0.0,-13.0,-11.0,-3.0,0.0,2.0,1.0,2.0
1701961597.2165554,6.0,35.0,15.0,4.0,0.0,1.0,-2.0,-4.0
1701961597.226747,-3.0,-14.0,-9.0,-2.0,-2.0,-4.0,2.0,8.0
1701961597.226747,-4.0,-4.0,4.0,2.0,-1.0,0.0,-3.0,-17.0
1701961597.226747,1.0,-22.0,-13.0,-2.0,5.0,3.0,9.0,13.0
1701961597.226747,8.0,91.0,24.0,5.0,-2.0,1.0,0.0,-2.0
1701961597.2468922,-5.0,-30.0,-22.0,-6.0,-6.0,-5.0,-5.0,-9.0
1701961597.2468922,-14.0,-18.0,-13.0,-11.0,-6.0,-5.0,-6.0,-10.0
1701961597.2468922,5.0,15.0,3.0,-2.0,-2.0,-1.0,-2.0,-2.0
1701961597.2468922,-3.0,2.0,8.0,8.0,2.0,0.0,3.0,4.0
1701961597.2665544,-5.0,-35.0,-25.0,-8.0,-2.0,-3.0,-4.0,-4.0
1701961597.2665544,-1.0,13.0,0.0,0.0,3.0,0.0,1.0,0.0
1701961597.2665544,5.0,6.0,2.0,-2.0,-3.0,-6.0,-4.0,-5.0
1701961597.2665544,2.0,-2.0,-16.0,-10.0,-8.0,-3.0,-1.0,4.0
1701961597.2865562,-12.0,0.0,5.0,-1.0,-2.0,-2.0,-4.0,-7.0
1701961597.2865562,-1.0,-34.0,-7.0,5.0,1.0,0.0,2.0,5.0
1701961597.2865562,-5.0,-1.0,4.0,-2.0,3.0,2.0,0.0,-2.0
1701961597.2865562,4.0,0.0,-9.0,-5.0,-5.0,-5.0,-4.0,-3.0
1701961597.306902,7.0,34.0,7.0,5.0,1.0,2.0,6.0,8.0
1701961597.306902,-6.0,-29.0,-4.0,4.0,1.0,0.0,-2.0,-5.0
1701961597.306902,3.0,-5.0,10.0,7.0,5.0,4.0,5.0,6.0
1701961597.306902,-1.0,7.0,6.0,-1.0,-3.0,-2.0,-1.0,-3.0
1701961597.3265781,-21.0,-52.0,-19.0,-14.0,-9.0,-9.0,-10.0,-11.0
1701961597.3265781,12.0,24.0,-5.0,2.0,1.0,2.0,4.0,9.0
1701961597.3265781,1.0,-13.0,3.0,2.0,-1.0,-3.0,-1.0,-2.0
1701961597.3265781,-6.0,-10.0,2.0,-4.0,0.0,-2.0,-3.0,-2.0
1701961597.346927,16.0,72.0,17.0,4.0,-5.0,0.0,2.0,4.0
1701961597.346927,12.0,67.0,21.0,6.0,9.0,6.0,3.0,0.0
1701961597.346927,-12.0,1.0,-24.0,-8.0,0.0,-2.0,-2.0,-4.0
1701961597.346927,10.0,88.0,25.0,5.0,-1.0,1.0,1.0,2.0
1701961597.3669214,7.0,1.0,2.0,-5.0,1.0,-2.0,-1.0,-1.0
1701961597.3669214,-6.0,4.0,-10.0,-6.0,-8.0,-3.0,-3.0,-4.0
1701961597.3669214,-1.0,-33.0,6.0,6.0,1.0,3.0,1.0,0.0
1701961597.3669214,-8.0,-48.0,-19.0,-4.0,1.0,0.0,-1.0,-1.0
1701961597.3873441,3.0,-11.0,1.0,11.0,7.0,6.0,4.0,3.0
1701961597.3873441,-16.0,-53.0,4.0,-2.0,-3.0,-3.0,-2.0,-4.0
1701961597.3873441,13.0,20.0,5.0,2.0,-4.0,-2.0,0.0,2.0
1701961597.3873441,-7.0,-11.0,-10.0,-2.0,1.0,0.0,-1.0,-1.0
1701961597.407306,4.0,-1.0,2.0,-1.0,1.0,3.0,2.0,3.0
1701961597.407306,12.0,-4.0,-7.0,0.0,-8.0,-5.0,-2.0,-1.0
1701961597.407306,-2.0,-39.0,-4.0,-7.0,2.0,2.0,0.0,0.0
1701961597.407306,-2.0,-17.0,-6.0,7.0,2.0,0.0,-1.0,-2.0
1701961597.4269238,-4.0,-3.0,1.0,2.0,3.0,1.0,-2.0,-3.0
1701961597.4269238,-7.0,-23.0,11.0,3.0,2.0,-2.0,1.0,4.0
1701961597.4269238,-6.0,-11.0,-20.0,-16.0,-9.0,-6.0,-6.0,-6.0
