1701961446.4276848,-1.0,-44.0,-64.0,-29.0,-19.0,-23.0,-12.0,4.0
1701961446.4276848,-5.0,-19.0,-17.0,6.0,-3.0,-3.0,2.0,0.0
1701961446.4276848,9.0,14.0,15.0,-2.0,5.0,14.0,22.0,7.0
1701961446.4276848,2.0,11.0,14.0,-1.0,1.0,-14.0,3.0,13.0
1701961446.457481,-5.0,-17.0,1.0,4.0,-1.0,34.0,-18.0,-19.0
1701961446.457481,14.0,12.0,13.0,11.0,14.0,40.0,33.0,21.0
1701961446.457481,-17.0,-23.0,-38.0,-29.0,-30.0,-71.0,-78.0,-40.0
1701961446.457481,-6.0,-23.0,12.0,6.0,1.0,-8.0,-20.0,3.0
1701961446.4676948,3.0,6.0,-21.0,-4.0,-1.0,-12.0,-1.0,3.0
1701961446.4676948,-1.0,2.0,21.0,12.0,1.0,12.0,21.0,9.0
1701961446.4777772,4.0,-13.0,-62.0,-14.0,5.0,6.0,24.0,9.0
1701961446.4777772,-15.0,-8.0,13.0,-12.0,-5.0,-3.0,-8.0,-14.0
1701961446.488091,1.0,6.0,32.0,15.0,2.0,-4.0,-6.0,-2.0
1701961446.488091,-6.0,-3.0,-12.0,-16.0,-5.0,-4.0,1.0,-9.0
1701961446.488091,4.0,4.0,25.0,-6.0,0.0,3.0,0.0,5.0
1701961446.488091,2.0,-6.0,-47.0,-11.0,-7.0,-8.0,-8.0,-3.0
1701961446.5277958,4.0,1.0,-43.0,-33.0,-1.0,-9.0,11.0,2.0
1701961446.5277958,5.0,3.0,65.0,73.0,10.0,20.0,3.0,3.0
1701961446.5277958,-2.0,10.0,55.0,17.0,-4.0,-3.0,-2.0,2.0
1701961446.5277958,-2.0,-16.0,-51.0,-21.0,-3.0,-4.0,3.0,-2.0
1701961446.5277958,3.0,10.0,32.0,-13.0,-4.0,-47.0,-3.0,-9.0
1701961446.5277958,9.0,-8.0,-39.0,-9.0,-5.0,29.0,-18.0,-6.0
1701961446.5378425,-14.0,4.0,-3.0,-1.0,3.0,3.0,6.0,9.0
1701961446.5378425,5.0,-6.0,-58.0,-11.0,11.0,37.0,18.0,-1.0
1701961446.567796,-4.0,15.0,55.0,5.0,-6.0,-22.0,16.0,-3.0
1701961446.567796,-15.0,-31.0,-27.0,-23.0,-14.0,-28.0,-25.0,-9.0
1701961446.567796,7.0,3.0,-9.0,11.0,6.0,15.0,20.0,6.0
1701961446.567796,0.0,-5.0,-12.0,-3.0,4.0,-3.0,1.0,5.0
1701961446.5777943,-1.0,2.0,-44.0,-31.0,4.0,20.0,4.0,1.0
1701961446.5777943,-8.0,3.0,13.0,-10.0,-4.0,-12.0,-3.0,1.0
1701961446.5777943,-1.0,-3.0,5.0,2.0,3.0,7.0,3.0,0.0
1701961446.5777943,-12.0,1.0,13.0,-4.0,-7.0,-9.0,0.0,-2.0
1701961446.588192,2.0,1.0,15.0,27.0,3.0,8.0,-10.0,-3.0
1701961446.588192,0.0,9.0,11.0,12.0,0.0,-4.0,-1.0,2.0
1701961446.5978076,5.0,-9.0,-77.0,-71.0,-3.0,-4.0,5.0,-1.0
1701961446.5978076,-3.0,8.0,98.0,66.0,-4.0,-10.0,-11.0,-8.0
1701961446.6219816,-2.0,10.0,1.0,16.0,0.0,6.0,-2.0,0.0
1701961446.6219816,0.0,1.0,-17.0,-16.0,1.0,1.0,3.0,0.0
1701961446.6219816,-7.0,-5.0,-40.0,-15.0,2.0,9.0,9.0,-7.0
1701961446.6219816,-5.0,-11.0,3.0,-31.0,-12.0,-31.0,0.0,3.0
1701961446.637344,-3.0,4.0,23.0,22.0,3.0,43.0,-12.0,6.0
1701961446.637344,1.0,-2.0,-32.0,-14.0,1.0,-24.0,-6.0,-1.0
1701961446.637344,-3.0,-16.0,13.0,3.0,-5.0,7.0,7.0,0.0
1701961446.637344,2.0,21.0,25.0,14.0,3.0,13.0,10.0,-6.0
1701961446.6476085,-5.0,6.0,2.0,14.0,3.0,-18.0,-8.0,-4.0
1701961446.6476085,2.0,6.0,-7.0,-18.0,2.0,-1.0,-2.0,-2.0
1701961446.6575782,2.0,-7.0,1.0,16.0,-1.0,-1.0,-5.0,1.0
1701961446.6575782,-7.0,-15.0,-24.0,-7.0,-1.0,-1.0,-1.0,2.0
1701961446.6973424,2.0,-7.0,11.0,-9.0,-4.0,-1.0,1.0,-2.0
1701961446.6973424,2.0,2.0,-13.0,3.0,-1.0,4.0,1.0,3.0
1701961446.707341,5.0,8.0,4.0,0.0,-1.0,-8.0,-5.0,-5.0
1701961446.707341,-5.0,-4.0,-8.0,-5.0,-1.0,5.0,0.0,0.0
1701961446.707341,-5.0,-9.0,-23.0,-4.0,4.0,1.0,1.0,-4.0
1701961446.707341,-5.0,-5.0,14.0,4.0,-6.0,-9.0,-3.0,-2.0
1701961446.707341,-2.0,-2.0,10.0,2.0,-1.0,-5.0,-1.0,-2.0
1701961446.707341,11.0,3.0,-24.0,-9.0,-2.0,4.0,-3.0,1.0
1701961446.707341,7.0,-2.0,0.0,-7.0,-4.0,-5.0,-1.0,2.0
1701961446.707341,-3.0,8.0,-3.0,-3.0,-1.0,-3.0,1.0,-1.0
1701961446.7175565,-6.0,4.0,18.0,9.0,4.0,2.0,2.0,-1.0
1701961446.7175565,-7.0,-5.0,-9.0,-9.0,-4.0,1.0,-2.0,-3.0
1701961446.7473423,-6.0,11.0,12.0,12.0,4.0,-8.0,0.0,0.0
1701961446.7473423,0.0,-2.0,-22.0,-10.0,-3.0,2.0,-2.0,0.0
1701961446.7473423,-3.0,1.0,-3.0,2.0,1.0,3.0,-1.0,-3.0
1701961446.7473423,0.0,5.0,38.0,4.0,-2.0,-4.0,-2.0,-1.0
1701961446.75734,-1.0,-8.0,-39.0,-12.0,-6.0,-6.0,-2.0,-3.0
1701961446.75734,-3.0,-6.0,-5.0,-3.0,-1.0,0.0,0.0,-3.0
1701961446.75734,-1.0,2.0,9.0,8.0,-2.0,-2.0,0.0,3.0
1701961446.75734,-3.0,-10.0,1.0,9.0,-1.0,0.0,-2.0,-3.0
1701961446.7676835,3.0,1.0,-25.0,-27.0,-3.0,-1.0,0.0,0.0
1701961446.7676835,-4.0,0.0,7.0,3.0,4.0,3.0,0.0,0.0
1701961446.7773423,-10.0,-13.0,14.0,7.0,-7.0,-13.0,-12.0,-19.0
1701961446.7773423,6.0,-11.0,-16.0,-5.0,1.0,4.0,4.0,11.0
1701961446.7873414,0.0,1.0,11.0,12.0,1.0,15.0,-1.0,1.0
1701961446.7873414,4.0,-3.0,-11.0,-7.0,-4.0,-5.0,0.0,1.0
1701961446.7873414,1.0,14.0,26.0,12.0,3.0,6.0,9.0,2.0
1701961446.7873414,2.0,-8.0,-16.0,-19.0,-4.0,-1.0,0.0,6.0
1701961446.8173432,-5.0,0.0,2.0,8.0,1.0,-10.0,-6.0,-5.0
1701961446.8173432,-3.0,-3.0,0.0,-11.0,-2.0,-16.0,6.0,0.0
1701961446.8173432,2.0,-3.0,5.0,10.0,1.0,31.0,5.0,1.0
1701961446.8173432,0.0,-5.0,-12.0,-10.0,-4.0,-3.0,-1.0,-6.0
1701961446.8277092,2.0,-4.0,-1.0,-2.0,-3.0,-10.0,-2.0,3.0
1701961446.8277092,-5.0,-1.0,8.0,5.0,0.0,-2.0,-2.0,-5.0
1701961446.8373463,-1.0,6.0,0.0,-2.0,-1.0,-9.0,-5.0,1.0
1701961446.8373463,1.0,7.0,-5.0,3.0,2.0,0.0,-5.0,-1.0
1701961446.8473418,-5.0,-12.0,-19.0,-3.0,-7.0,-3.0,2.0,-3.0
1701961446.8473418,-5.0,-1.0,18.0,12.0,0.0,4.0,-4.0,-2.0
1701961446.8473418,1.0,-4.0,-17.0,-24.0,-8.0,-20.0,-6.0,0.0
1701961446.8473418,-17.0,-1.0,12.0,5.0,4.0,15.0,-1.0,-4.0
1701961446.8773465,1.0,10.0,10.0,4.0,2.0,-3.0,0.0,1.0
1701961446.8773465,0.0,-1.0,-3.0,6.0,-3.0,3.0,-2.0,-3.0
1701961446.8773465,1.0,2.0,-5.0,-6.0,-2.0,-5.0,-2.0,3.0
1701961446.8773465,2.0,2.0,8.0,12.0,2.0,-7.0,-1.0,-4.0
1701961446.887611,-2.0,-6.0,-3.0,1.0,-3.0,1.0,5.0,-2.0
1701961446.887611,-5.0,2.0,5.0,-3.0,-3.0,-15.0,-27.0,-3.0
1701961446.9073508,-7.0,-1.0,-6.0,1.0,2.0,21.0,3.0,0.0
1701961446.9073508,1.0,0.0,26.0,6.0,-4.0,0.0,1.0,0.0
1701961446.9173427,-1.0,-4.0,-20.0,-2.0,1.0,-1.0,0.0,-6.0
1701961446.9173427,0.0,-3.0,-22.0,-13.0,-5.0,-4.0,-4.0,-9.0
1701961446.9173427,3.0,-2.0,4.0,0.0,1.0,3.0,-13.0,9.0
1701961446.9173427,1.0,3.0,3.0,8.0,3.0,3.0,7.0,-3.0
1701961446.9273756,-3.0,6.0,28.0,7.0,-1.0,-5.0,-18.0,-4.0
1701961446.9273756,3.0,-8.0,-7.0,-4.0,-1.0,17.0,8.0,1.0
1701961446.9373477,-8.0,6.0,6.0,3.0,1.0,-16.0,-2.0,-6.0
1701961446.9373477,-6.0,4.0,-9.0,3.0,-2.0,1.0,1.0,-1.0
1701961446.9473436,-1.0,-7.0,0.0,-4.0,1.0,2.0,3.0,3.0
1701961446.9473436,-7.0,14.0,17.0,3.0,1.0,1.0,8.0,-2.0
1701961446.9574974,8.0,4.0,-7.0,-2.0,-2.0,0.0,5.0,8.0
1701961446.9574974,4.0,-13.0,-23.0,-6.0,-5.0,-15.0,-14.0,-5.0
1701961446.9676359,-8.0,-5.0,9.0,-6.0,-3.0,4.0,7.0,-5.0
1701961446.9676359,2.0,-5.0,-17.0,-2.0,0.0,-25.0,-6.0,12.0
1701961446.9676359,5.0,1.0,10.0,3.0,7.0,63.0,63.0,9.0
1701961446.9676359,2.0,-4.0,-5.0,-6.0,-1.0,-34.0,-45.0,47.0
1701961446.987718,-7.0,0.0,2.0,2.0,-2.0,56.0,30.0,-30.0
1701961446.987718,-2.0,-1.0,20.0,2.0,-3.0,-3.0,-8.0,-11.0
1701961446.9973428,-6.0,-9.0,-6.0,-5.0,-8.0,-34.0,-24.0,-10.0
1701961446.9973428,1.0,-2.0,-13.0,-20.0,-1.0,-13.0,21.0,0.0
1701961447.007342,7.0,5.0,32.0,25.0,10.0,10.0,5.0,15.0
1701961447.007342,0.0,-9.0,-22.0,-18.0,-5.0,-7.0,-5.0,1.0
1701961447.0175302,-3.0,4.0,22.0,19.0,2.0,-6.0,-8.0,-7.0
1701961447.0175302,-3.0,4.0,23.0,-4.0,-6.0,8.0,-2.0,-13.0
1701961447.0275967,3.0,1.0,4.0,-2.0,-1.0,-20.0,-13.0,7.0
1701961447.0275967,-2.0,0.0,14.0,10.0,5.0,20.0,12.0,-6.0
1701961447.0275967,2.0,-13.0,-63.0,-25.0,-7.0,-20.0,-14.0,0.0
1701961447.0275967,0.0,-7.0,-88.0,-25.0,7.0,22.0,9.0,-6.0
1701961447.0573468,4.0,23.0,83.0,33.0,-6.0,-17.0,-9.0,-2.0
1701961447.0573468,0.0,1.0,-6.0,6.0,-5.0,-6.0,-4.0,3.0
1701961447.0573468,1.0,-2.0,-20.0,-29.0,3.0,6.0,-3.0,-1.0
1701961447.0573468,-4.0,3.0,105.0,67.0,6.0,0.0,-2.0,-9.0
1701961447.0675945,4.0,-19.0,-113.0,-97.0,-12.0,-8.0,1.0,6.0
1701961447.0675945,-23.0,-13.0,66.0,102.0,-14.0,-16.0,-19.0,-19.0
1701961447.0973408,8.0,14.0,-6.0,-48.0,6.0,7.0,1.0,6.0
1701961447.0973408,0.0,-3.0,-15.0,-16.0,7.0,9.0,7.0,-9.0
1701961447.0973408,2.0,-1.0,-25.0,5.0,-2.0,-14.0,-9.0,5.0
1701961447.0973408,4.0,-1.0,-4.0,-25.0,-1.0,-2.0,3.0,3.0
1701961447.0973408,2.0,10.0,21.0,16.0,2.0,13.0,2.0,-3.0
1701961447.0973408,-13.0,-19.0,-30.0,-8.0,-13.0,-17.0,-9.0,-10.0
1701961447.1077027,1.0,0.0,6.0,1.0,-3.0,-11.0,1.0,3.0
1701961447.1077027,-1.0,8.0,-11.0,-30.0,3.0,26.0,9.0,-3.0
1701961447.1173449,-3.0,-18.0,-6.0,25.0,2.0,-4.0,-1.0,4.0
1701961447.1173449,5.0,15.0,10.0,-6.0,-1.0,5.0,-4.0,-6.0
1701961447.1273434,-8.0,-19.0,-15.0,9.0,-4.0,-16.0,-6.0,0.0
1701961447.1273434,1.0,-9.0,-16.0,-21.0,3.0,3.0,4.0,-3.0
1701961447.1392877,-2.0,6.0,23.0,8.0,-3.0,-13.0,-4.0,-3.0
1701961447.1392877,-5.0,-6.0,10.0,4.0,-8.0,-1.0,-2.0,-8.0
1701961447.154464,-2.0,0.0,-7.0,-3.0,0.0,-5.0,-6.0,1.0
1701961447.154464,8.0,12.0,-5.0,1.0,7.0,12.0,10.0,8.0
1701961447.155461,-9.0,-14.0,2.0,1.0,-9.0,-8.0,-10.0,-7.0
1701961447.155461,6.0,7.0,3.0,-1.0,6.0,2.0,-3.0,5.0
1701961447.170166,-1.0,-3.0,-7.0,7.0,13.0,7.0,-3.0,-1.0
1701961447.170166,10.0,29.0,49.0,-3.0,-2.0,1.0,2.0,4.0
1701961447.170166,-10.0,-31.0,-55.0,-9.0,-16.0,-35.0,-13.0,-9.0
1701961447.170166,-1.0,2.0,-1.0,-9.0,-12.0,11.0,10.0,-5.0
1701961447.1905303,-2.0,2.0,9.0,7.0,11.0,19.0,0.0,-2.0
1701961447.1905303,1.0,-1.0,-4.0,-1.0,0.0,-5.0,4.0,2.0
1701961447.1905303,-4.0,1.0,2.0,2.0,-2.0,-18.0,-23.0,-7.0
1701961447.1905303,0.0,1.0,-6.0,-1.0,-1.0,-1.0,8.0,1.0
1701961447.2103932,0.0,1.0,2.0,-2.0,-8.0,-3.0,3.0,0.0
1701961447.2103932,-3.0,-7.0,-17.0,-14.0,-9.0,6.0,-4.0,0.0
1701961447.2203963,-2.0,3.0,-27.0,-2.0,5.0,-1.0,-3.0,-5.0
1701961447.2203963,3.0,-2.0,-3.0,10.0,11.0,7.0,4.0,5.0
1701961447.2301714,1.0,7.0,26.0,15.0,8.0,-16.0,-7.0,-1.0
1701961447.2301714,-3.0,-10.0,-31.0,-18.0,-2.0,8.0,-1.0,-2.0
1701961447.2301714,-1.0,-2.0,7.0,3.0,-6.0,2.0,1.0,0.0
1701961447.2301714,-2.0,-1.0,10.0,-3.0,-8.0,-10.0,-7.0,-2.0
1701961447.2504447,-1.0,-6.0,-20.0,-8.0,-1.0,3.0,2.0,-2.0
1701961447.2504447,-3.0,2.0,18.0,13.0,0.0,0.0,0.0,-2.0
1701961447.2602315,3.0,2.0,8.0,-2.0,2.0,11.0,3.0,1.0
1701961447.2602315,2.0,11.0,22.0,17.0,0.0,-3.0,3.0,-1.0
1701961447.2704842,-4.0,-7.0,-30.0,-8.0,-5.0,1.0,-3.0,-3.0
1701961447.2704842,-6.0,-13.0,-14.0,-7.0,8.0,-3.0,-4.0,0.0
1701961447.2804887,-1.0,3.0,10.0,10.0,7.0,-22.0,1.0,0.0
1701961447.2804887,-3.0,-7.0,-9.0,-6.0,1.0,24.0,5.0,-2.0
1701961447.3105128,-1.0,1.0,17.0,-10.0,-12.0,3.0,-1.0,-3.0
1701961447.3105128,2.0,1.0,10.0,10.0,-1.0,-7.0,-5.0,1.0
1701961447.3105128,-4.0,-9.0,-22.0,-14.0,-1.0,-6.0,2.0,-2.0
1701961447.3105128,0.0,6.0,5.0,-4.0,-4.0,-25.0,-14.0,-1.0
1701961447.3105128,-3.0,-5.0,2.0,7.0,-2.0,38.0,10.0,-2.0
1701961447.3105128,3.0,-1.0,-20.0,-22.0,0.0,-4.0,1.0,-1.0
1701961447.3105128,2.0,1.0,12.0,3.0,-6.0,1.0,-3.0,-1.0
1701961447.3105128,2.0,-2.0,-22.0,-4.0,-2.0,-8.0,-1.0,2.0
1701961447.3407383,-5.0,-7.0,-5.0,0.0,4.0,-7.0,-3.0,0.0
1701961447.3407383,-2.0,4.0,7.0,1.0,-3.0,-4.0,-1.0,0.0
1701961447.3407383,1.0,5.0,23.0,3.0,1.0,19.0,9.0,3.0
1701961447.3407383,0.0,4.0,9.0,2.0,8.0,2.0,0.0,-1.0
1701961447.3605115,7.0,3.0,-36.0,1.0,7.0,-4.0,4.0,5.0
1701961447.3605115,-2.0,-9.0,-10.0,-2.0,-3.0,-1.0,-1.0,0.0
1701961447.3605115,-5.0,-13.0,-26.0,-16.0,-10.0,-4.0,-3.0,-4.0
1701961447.3605115,-4.0,-1.0,22.0,4.0,-3.0,-10.0,-3.0,-3.0
1701961447.3705099,4.0,4.0,-13.0,-2.0,1.0,-1.0,-1.0,3.0
1701961447.3705099,0.0,11.0,7.0,11.0,3.0,5.0,2.0,2.0
1701961447.3705099,3.0,6.0,-5.0,6.0,7.0,5.0,-1.0,1.0
1701961447.3705099,-3.0,-3.0,1.0,8.0,-1.0,4.0,0.0,-2.0
1701961447.3908477,-5.0,7.0,33.0,-15.0,-12.0,-12.0,-5.0,-4.0
1701961447.3908477,-4.0,-15.0,-41.0,-24.0,-14.0,-14.0,-6.0,-3.0
1701961447.4008422,3.0,11.0,28.0,49.0,20.0,26.0,15.0,7.0
1701961447.4008422,-5.0,3.0,28.0,-31.0,-4.0,-2.0,2.0,0.0
1701961447.4108896,-4.0,-4.0,-15.0,16.0,9.0,6.0,2.0,-1.0
1701961447.4108896,-1.0,6.0,10.0,-13.0,-7.0,-7.0,-3.0,-5.0
1701961447.4108896,-14.0,-6.0,-9.0,-10.0,-20.0,-15.0,-8.0,-6.0
1701961447.4108896,9.0,-2.0,-15.0,-1.0,26.0,18.0,5.0,5.0
1701961447.4408417,0.0,3.0,53.0,7.0,-3.0,-5.0,1.0,0.0
1701961447.4408417,-5.0,7.0,64.0,35.0,7.0,4.0,-1.0,-2.0
1701961447.4408417,0.0,-12.0,-91.0,-65.0,-11.0,-3.0,-1.0,1.0
1701961447.4408417,-15.0,-22.0,-22.0,7.0,-17.0,-6.0,-5.0,-6.0
1701961447.450855,-1.0,7.0,2.0,-8.0,-6.0,-3.0,-1.0,-2.0
1701961447.450855,6.0,-3.0,-18.0,0.0,10.0,5.0,1.0,4.0
1701961447.450855,2.0,6.0,32.0,-9.0,-7.0,-3.0,-3.0,-3.0
1701961447.450855,1.0,-6.0,-28.0,-2.0,-5.0,-5.0,-2.0,-2.0
1701961447.4712355,3.0,-7.0,-22.0,-11.0,-7.0,-8.0,-3.0,-1.0
1701961447.4712355,-1.0,4.0,6.0,14.0,2.0,2.0,4.0,0.0
1701961447.4712355,1.0,-2.0,13.0,12.0,16.0,8.0,2.0,0.0
1701961447.4712355,3.0,0.0,1.0,30.0,7.0,5.0,0.0,1.0
1701961447.4912407,-1.0,-1.0,-1.0,-23.0,-5.0,-4.0,-2.0,-1.0
1701961447.4912407,5.0,-6.0,-22.0,-19.0,-16.0,-14.0,-5.0,-1.0
1701961447.5008433,-2.0,1.0,25.0,36.0,3.0,-5.0,-5.0,-2.0
1701961447.5008433,-1.0,3.0,2.0,-39.0,1.0,21.0,9.0,-1.0
1701961447.520847,-1.0,-8.0,-8.0,33.0,-2.0,-11.0,-7.0,-3.0
1701961447.520847,2.0,1.0,-48.0,1.0,10.0,10.0,1.0,2.0
1701961447.520847,-7.0,3.0,49.0,24.0,1.0,-13.0,-10.0,-9.0
1701961447.520847,-1.0,-1.0,3.0,5.0,-7.0,-13.0,-4.0,-1.0
1701961447.5308938,1.0,3.0,20.0,-23.0,-9.0,-2.0,0.0,-1.0
1701961447.5308938,6.0,6.0,13.0,41.0,14.0,4.0,4.0,3.0
1701961447.5308938,-2.0,-1.0,-34.0,-40.0,7.0,12.0,7.0,3.0
1701961447.5308938,2.0,15.0,22.0,6.0,-1.0,-2.0,-2.0,-3.0
1701961447.551149,-2.0,9.0,7.0,12.0,6.0,4.0,1.0,4.0
1701961447.551149,12.0,12.0,21.0,-33.0,-14.0,-10.0,-6.0,3.0
1701961447.5608482,2.0,8.0,34.0,16.0,-13.0,-7.0,1.0,-3.0
1701961447.5608482,0.0,-22.0,-61.0,-18.0,-2.0,-8.0,5.0,0.0
1701961447.580848,-9.0,-2.0,-16.0,-7.0,-2.0,2.0,-19.0,-7.0
1701961447.580848,-18.0,0.0,15.0,0.0,-9.0,-1.0,7.0,-5.0
1701961447.6008413,3.0,-2.0,14.0,-8.0,-12.0,-1.0,-11.0,-1.0
1701961447.6008413,-2.0,-5.0,-13.0,7.0,28.0,4.0,4.0,2.0
1701961447.6008413,3.0,1.0,12.0,-18.0,-25.0,-12.0,4.0,-1.0
1701961447.6008413,-2.0,-14.0,-23.0,26.0,42.0,2.0,-7.0,1.0
1701961447.6008413,-1.0,-1.0,4.0,34.0,15.0,9.0,9.0,0.0
1701961447.6008413,-4.0,-13.0,-19.0,-8.0,-23.0,-14.0,-19.0,-9.0
1701961447.6208444,-5.0,-5.0,-19.0,-41.0,-1.0,-2.0,0.0,-3.0
1701961447.6208444,0.0,1.0,0.0,-23.0,-12.0,-1.0,0.0,-1.0
1701961447.6208444,2.0,11.0,42.0,18.0,-1.0,-3.0,6.0,3.0
1701961447.6208444,-4.0,-40.0,-47.0,-3.0,-7.0,2.0,-8.0,-3.0
1701961447.6308753,2.0,43.0,35.0,36.0,12.0,3.0,22.0,4.0
1701961447.6308753,-10.0,-9.0,-59.0,-35.0,-15.0,11.0,-9.0,-6.0
1701961447.6411333,5.0,7.0,-7.0,-3.0,-1.0,-22.0,-20.0,-5.0
1701961447.6411333,7.0,6.0,28.0,7.0,-7.0,7.0,2.0,1.0
1701961447.6511397,-6.0,-12.0,30.0,13.0,9.0,-10.0,12.0,2.0
1701961447.6511397,-13.0,-14.0,-21.0,-11.0,-10.0,14.0,-22.0,-8.0
1701961447.6511397,5.0,-5.0,-4.0,-4.0,5.0,-10.0,7.0,7.0
1701961447.6511397,-9.0,19.0,6.0,-12.0,-12.0,-24.0,-5.0,-1.0
1701961447.7028637,9.0,5.0,-22.0,0.0,-3.0,0.0,-32.0,-5.0
1701961447.7028637,-8.0,-10.0,7.0,6.0,3.0,-9.0,13.0,-2.0
1701961447.7028637,-12.0,-35.0,-7.0,-12.0,-11.0,-10.0,-21.0,-5.0
1701961447.7028637,4.0,27.0,12.0,-3.0,-6.0,-7.0,-1.0,0.0
1701961447.7028637,8.0,-11.0,-18.0,7.0,8.0,33.0,22.0,5.0
1701961447.7028637,2.0,-2.0,13.0,3.0,0.0,17.0,12.0,5.0
1701961447.7028637,-1.0,-9.0,-16.0,-14.0,-8.0,-22.0,-4.0,0.0
1701961447.7028637,-5.0,-4.0,11.0,8.0,0.0,24.0,1.0,-1.0
1701961447.7130275,-4.0,-10.0,-9.0,2.0,-3.0,-18.0,-7.0,-8.0
1701961447.7130275,2.0,-13.0,-26.0,-8.0,-5.0,-16.0,-2.0,-3.0
1701961447.7130275,-2.0,12.0,4.0,5.0,2.0,12.0,1.0,0.0
1701961447.7130275,0.0,9.0,10.0,-18.0,-3.0,-14.0,-1.0,-2.0
1701961447.7330391,2.0,-6.0,-18.0,-10.0,-11.0,-5.0,-17.0,-3.0
1701961447.7330391,6.0,2.0,30.0,-8.0,-12.0,-41.0,-15.0,-2.0
1701961447.7330391,2.0,-3.0,-44.0,-11.0,-1.0,33.0,24.0,-1.0
1701961447.7330391,2.0,20.0,48.0,21.0,9.0,37.0,13.0,4.0
1701961447.7534847,-4.0,-32.0,-25.0,3.0,-3.0,-17.0,-15.0,-1.0
1701961447.7534847,0.0,2.0,-3.0,-20.0,-3.0,-17.0,14.0,1.0
1701961447.7534847,-3.0,1.0,18.0,-2.0,-1.0,59.0,32.0,5.0
1701961447.7534847,-1.0,1.0,14.0,5.0,-2.0,-19.0,-8.0,-2.0
1701961447.7734287,-13.0,14.0,-8.0,-3.0,7.0,7.0,11.0,0.0
1701961447.7734287,-3.0,5.0,36.0,25.0,8.0,-5.0,-6.0,-4.0
1701961447.7734287,-6.0,-10.0,-52.0,-11.0,-4.0,-19.0,-21.0,-4.0
1701961447.7734287,-15.0,-9.0,-6.0,-11.0,-4.0,12.0,2.0,-5.0
1701961447.7930362,1.0,6.0,12.0,7.0,1.0,-7.0,3.0,3.0
1701961447.7930362,-1.0,-1.0,-8.0,-2.0,-4.0,-5.0,-7.0,-5.0
1701961447.7930362,3.0,9.0,18.0,18.0,2.0,7.0,3.0,1.0
1701961447.7930362,0.0,-13.0,-20.0,-13.0,9.0,-17.0,-2.0,0.0
1701961447.813482,1.0,-9.0,-13.0,-3.0,-3.0,-10.0,-9.0,-3.0
1701961447.813482,-1.0,12.0,21.0,-14.0,-5.0,10.0,2.0,-1.0
1701961447.813482,1.0,-7.0,-2.0,-2.0,-3.0,-4.0,-4.0,-3.0
1701961447.813482,3.0,-3.0,-23.0,-4.0,-8.0,-9.0,-5.0,-1.0
1701961447.833449,1.0,-3.0,16.0,6.0,4.0,7.0,0.0,-5.0
1701961447.833449,3.0,-2.0,-20.0,3.0,8.0,20.0,6.0,1.0
1701961447.833449,4.0,-5.0,-2.0,-6.0,-3.0,-28.0,-11.0,0.0
1701961447.833449,1.0,-6.0,17.0,5.0,0.0,10.0,6.0,1.0
1701961447.8530354,-9.0,-20.0,-25.0,-6.0,-3.0,0.0,-3.0,-1.0
1701961447.8530354,7.0,6.0,10.0,10.0,-2.0,-4.0,9.0,0.0
1701961447.8530354,6.0,5.0,-2.0,-10.0,-5.0,-8.0,-1.0,4.0
1701961447.8530354,0.0,-6.0,-15.0,5.0,4.0,-2.0,-12.0,-3.0
1701961447.8731806,7.0,11.0,2.0,-6.0,-3.0,7.0,3.0,3.0
1701961447.8731806,-2.0,-11.0,-15.0,5.0,-4.0,-19.0,-10.0,-2.0
1701961447.8731806,5.0,-11.0,-7.0,8.0,-1.0,0.0,-3.0,-1.0
1701961447.8731806,-4.0,-5.0,-28.0,-33.0,-8.0,-15.0,1.0,-1.0
1701961447.8934479,-2.0,34.0,36.0,15.0,-2.0,-8.0,-7.0,-2.0
1701961447.8934479,-4.0,-4.0,-1.0,-6.0,0.0,24.0,4.0,-1.0
1701961447.8934479,-10.0,0.0,5.0,2.0,0.0,-5.0,2.0,-3.0
1701961447.8934479,-4.0,1.0,25.0,14.0,-1.0,0.0,2.0,-2.0
1701961447.9130373,0.0,-8.0,10.0,4.0,3.0,-5.0,-6.0,-1.0
1701961447.9130373,-5.0,-6.0,-18.0,-9.0,-6.0,3.0,-3.0,0.0
1701961447.9130373,1.0,17.0,25.0,3.0,3.0,-1.0,1.0,0.0
1701961447.9130373,-2.0,-10.0,-12.0,-1.0,-5.0,-8.0,0.0,-2.0
1701961447.9330895,-6.0,-4.0,-3.0,5.0,6.0,6.0,-1.0,-3.0
1701961447.9330895,-4.0,8.0,-1.0,0.0,-6.0,-6.0,-3.0,1.0
1701961447.9330895,-6.0,-8.0,-3.0,-11.0,8.0,5.0,2.0,-1.0
1701961447.9330895,-3.0,-3.0,-6.0,6.0,-5.0,-20.0,-7.0,0.0
1701961447.953443,1.0,-1.0,-8.0,-8.0,-7.0,8.0,-10.0,-3.0
1701961447.953443,4.0,-1.0,-1.0,5.0,6.0,8.0,4.0,2.0
1701961447.953443,-1.0,8.0,5.0,-6.0,-5.0,-6.0,-3.0,-1.0
1701961447.953443,0.0,3.0,-5.0,5.0,7.0,-7.0,-10.0,1.0
1701961447.9730372,0.0,-11.0,-9.0,2.0,0.0,26.0,13.0,-3.0
1701961447.9730372,2.0,3.0,11.0,6.0,1.0,-7.0,-3.0,2.0
1701961447.9730372,-8.0,-7.0,-12.0,-20.0,-6.0,-2.0,0.0,-2.0
1701961447.9730372,12.0,-5.0,1.0,1.0,1.0,6.0,-7.0,0.0
1701961447.993093,4.0,-3.0,-24.0,-8.0,-6.0,-14.0,0.0,0.0
1701961447.993093,-4.0,-2.0,0.0,1.0,-2.0,-2.0,-4.0,-3.0
1701961447.993093,-3.0,-12.0,-9.0,-3.0,-3.0,-1.0,0.0,-2.0
1701961447.993093,-4.0,-6.0,-6.0,0.0,-3.0,2.0,5.0,3.0
1701961448.0134306,-4.0,0.0,31.0,17.0,6.0,-13.0,-1.0,0.0
1701961448.0134306,1.0,5.0,-26.0,-23.0,-5.0,16.0,3.0,-1.0
1701961448.0134306,5.0,11.0,47.0,20.0,3.0,0.0,-4.0,0.0
1701961448.0134306,2.0,-19.0,-19.0,7.0,-1.0,-4.0,20.0,3.0
1701961448.0330803,0.0,21.0,-6.0,-18.0,-6.0,-31.0,-36.0,-10.0
1701961448.0330803,-2.0,0.0,8.0,6.0,3.0,53.0,20.0,1.0
1701961448.0330803,-1.0,0.0,-3.0,2.0,5.0,-17.0,1.0,1.0
1701961448.0330803,2.0,0.0,8.0,-7.0,-10.0,-66.0,-23.0,0.0
1701961448.0530932,-3.0,0.0,0.0,-1.0,-2.0,25.0,61.0,11.0
1701961448.0530932,2.0,-9.0,-2.0,1.0,7.0,61.0,3.0,-5.0
1701961448.0530932,8.0,13.0,7.0,11.0,11.0,2.0,1.0,3.0
1701961448.0530932,-5.0,-4.0,16.0,1.0,-3.0,-5.0,0.0,-3.0
1701961448.073038,-4.0,1.0,1.0,-5.0,-4.0,-40.0,-9.0,-4.0
1701961448.073038,-7.0,-12.0,-24.0,-15.0,-14.0,-61.0,-29.0,-5.0
1701961448.073038,0.0,-5.0,-3.0,2.0,5.0,59.0,37.0,5.0
1701961448.073038,-6.0,3.0,32.0,20.0,11.0,11.0,-1.0,-5.0
1701961448.103041,-11.0,-13.0,-34.0,-40.0,-16.0,-5.0,-8.0,-5.0
1701961448.103041,3.0,3.0,10.0,4.0,-3.0,-18.0,-5.0,1.0
1701961448.103041,-1.0,-2.0,0.0,-2.0,-7.0,-16.0,-10.0,-6.0
1701961448.103041,-4.0,-15.0,-14.0,-10.0,-4.0,-21.0,-11.0,-6.0
1701961448.1131067,0.0,-4.0,48.0,19.0,8.0,28.0,1.0,4.0
1701961448.1131067,-6.0,-1.0,-8.0,-1.0,-4.0,-69.0,-26.0,-6.0
1701961448.1131067,-8.0,-8.0,-30.0,-21.0,-13.0,70.0,19.0,-3.0
1701961448.1131067,10.0,18.0,16.0,12.0,12.0,98.0,48.0,6.0
1701961448.1330388,-1.0,-6.0,0.0,4.0,-3.0,-14.0,-3.0,-1.0
1701961448.1330388,1.0,1.0,12.0,1.0,-4.0,-58.0,-3.0,0.0
1701961448.1431005,-3.0,4.0,11.0,0.0,-7.0,-62.0,-30.0,-3.0
1701961448.1431005,0.0,9.0,-7.0,-10.0,-3.0,8.0,-8.0,0.0
1701961448.1533523,0.0,-5.0,2.0,-3.0,-1.0,5.0,-5.0,-4.0
1701961448.1533523,0.0,1.0,-21.0,21.0,17.0,13.0,1.0,3.0
1701961448.1533523,2.0,-7.0,9.0,0.0,-3.0,-16.0,-11.0,-1.0
1701961448.1533523,0.0,6.0,-40.0,-19.0,-2.0,24.0,7.0,1.0
1701961448.1730433,0.0,-4.0,39.0,37.0,-1.0,-15.0,-6.0,-2.0
1701961448.1730433,3.0,-4.0,2.0,-33.0,8.0,3.0,2.0,2.0
1701961448.183041,-2.0,0.0,-7.0,-3.0,5.0,13.0,4.0,0.0
1701961448.183041,11.0,21.0,39.0,11.0,1.0,-20.0,-3.0,5.0
1701961448.2027378,-9.0,-44.0,-84.0,-32.0,-21.0,-8.0,-7.0,-7.0
1701961448.2027378,9.0,16.0,51.0,9.0,0.0,17.0,8.0,2.0
1701961448.2027378,-8.0,3.0,14.0,2.0,-2.0,-14.0,-5.0,-6.0
1701961448.2027378,-4.0,-4.0,8.0,6.0,-7.0,-14.0,-13.0,-4.0
1701961448.2192473,6.0,1.0,-20.0,1.0,9.0,5.0,2.0,1.0
1701961448.2192473,-10.0,2.0,34.0,18.0,14.0,28.0,10.0,-3.0
1701961448.2192473,-2.0,-6.0,-18.0,-10.0,-8.0,-27.0,-9.0,-2.0
1701961448.2192473,-5.0,-15.0,4.0,41.0,-1.0,-5.0,-8.0,-4.0
1701961448.2392464,-3.0,14.0,-11.0,-45.0,-14.0,7.0,1.0,2.0
1701961448.2392464,0.0,3.0,6.0,23.0,6.0,2.0,4.0,1.0
1701961448.2392464,7.0,1.0,-3.0,13.0,-2.0,-10.0,-5.0,0.0
1701961448.2392464,-9.0,-6.0,-51.0,-28.0,-3.0,4.0,1.0,-4.0
1701961448.2494755,5.0,15.0,33.0,28.0,13.0,-2.0,-2.0,-1.0
1701961448.2494755,4.0,7.0,30.0,-57.0,-37.0,-12.0,-4.0,-1.0
1701961448.2494755,-13.0,-19.0,-62.0,29.0,18.0,-1.0,-5.0,-5.0
1701961448.2592564,6.0,2.0,19.0,-6.0,-1.0,6.0,0.0,0.0
1701961448.2793822,-13.0,8.0,19.0,52.0,22.0,3.0,3.0,1.0
1701961448.2793822,-3.0,-4.0,-23.0,-23.0,-10.0,2.0,3.0,2.0
1701961448.2793822,-12.0,-3.0,6.0,-19.0,-26.0,-7.0,-2.0,-4.0
1701961448.2793822,0.0,-14.0,-35.0,9.0,22.0,-2.0,0.0,0.0
1701961448.2992504,5.0,21.0,31.0,-47.0,-13.0,-1.0,-1.0,2.0
1701961448.2992504,-9.0,-15.0,-11.0,36.0,-16.0,-8.0,-9.0,-9.0
1701961448.319245,9.0,20.0,20.0,41.0,50.0,18.0,6.0,8.0
1701961448.319245,-6.0,11.0,-5.0,-22.0,-15.0,-7.0,-2.0,-2.0
1701961448.319245,3.0,-5.0,-9.0,7.0,7.0,6.0,1.0,1.0
1701961448.319245,8.0,-10.0,-13.0,-38.0,-21.0,-8.0,-5.0,-4.0
1701961448.319245,-2.0,-6.0,-4.0,-4.0,8.0,-6.0,-7.0,-6.0
1701961448.319245,5.0,2.0,-6.0,-15.0,-10.0,1.0,0.0,1.0
1701961448.339246,7.0,-5.0,-8.0,-4.0,17.0,5.0,3.0,3.0
1701961448.339246,-13.0,5.0,-11.0,83.0,40.0,20.0,6.0,1.0
1701961448.339246,-6.0,0.0,14.0,-6.0,-4.0,0.0,1.0,-1.0
1701961448.339246,-6.0,-3.0,1.0,-5.0,-18.0,-9.0,-6.0,-5.0
1701961448.3596117,-2.0,-25.0,-18.0,-29.0,-9.0,-6.0,-5.0,-5.0
1701961448.3596117,0.0,0.0,-12.0,-2.0,-9.0,-9.0,-4.0,-4.0
1701961448.3596117,2.0,13.0,16.0,-19.0,-3.0,5.0,0.0,2.0
1701961448.3596117,1.0,-4.0,-5.0,6.0,6.0,0.0,1.0,1.0
1701961448.3696406,-2.0,-2.0,10.0,6.0,-19.0,-7.0,-2.0,-2.0
1701961448.3696406,0.0,18.0,5.0,1.0,10.0,0.0,3.0,4.0
1701961448.3696406,-2.0,-5.0,-7.0,-19.0,-9.0,-4.0,-1.0,-4.0
1701961448.3696406,-17.0,7.0,49.0,15.0,0.0,0.0,-2.0,-5.0
1701961448.3994527,-1.0,-11.0,-36.0,3.0,-2.0,-7.0,-5.0,0.0
1701961448.3994527,0.0,-3.0,-37.0,-41.0,-4.0,7.0,1.0,2.0
1701961448.3994527,0.0,-1.0,30.0,3.0,-10.0,-8.0,0.0,0.0
1701961448.3994527,-4.0,4.0,-8.0,-7.0,-9.0,4.0,2.0,-4.0
1701961448.4192498,-4.0,4.0,56.0,5.0,7.0,0.0,0.0,0.0
1701961448.4192498,-7.0,-9.0,-67.0,-28.0,-4.0,-7.0,-3.0,-3.0
1701961448.4192498,3.0,-4.0,-2.0,3.0,-9.0,-12.0,-6.0,1.0
1701961448.4192498,8.0,1.0,-4.0,4.0,2.0,-3.0,1.0,2.0
1701961448.4292805,4.0,6.0,20.0,3.0,5.0,5.0,-1.0,0.0
1701961448.4292805,2.0,-9.0,-11.0,-24.0,-19.0,-1.0,-5.0,-2.0
1701961448.4292805,3.0,-5.0,-37.0,-4.0,7.0,11.0,6.0,3.0
1701961448.4292805,-24.0,-5.0,33.0,9.0,6.0,15.0,3.0,-5.0
1701961448.4592464,1.0,-1.0,-22.0,2.0,-2.0,-17.0,-9.0,-1.0
1701961448.4592464,5.0,17.0,46.0,20.0,10.0,23.0,15.0,6.0
1701961448.4592464,-2.0,4.0,-13.0,-18.0,-8.0,9.0,3.0,-1.0
1701961448.4592464,2.0,1.0,4.0,1.0,7.0,-11.0,-7.0,-3.0
1701961448.4796453,0.0,0.0,0.0,7.0,-7.0,-68.0,-23.0,-3.0
1701961448.4796453,-12.0,-9.0,-5.0,-4.0,4.0,29.0,10.0,-6.0
1701961448.4796453,18.0,6.0,11.0,13.0,11.0,45.0,35.0,10.0
1701961448.4796453,6.0,14.0,6.0,10.0,11.0,-8.0,-2.0,6.0
1701961448.4895046,-5.0,-9.0,-28.0,-19.0,-8.0,17.0,2.0,2.0
1701961448.4895046,9.0,-12.0,-6.0,9.0,4.0,-24.0,-2.0,-1.0
1701961448.499588,-4.0,-2.0,12.0,-6.0,-14.0,-23.0,-34.0,-18.0
1701961448.499588,26.0,-28.0,-40.0,-10.0,-4.0,0.0,2.0,7.0
1701961448.5192463,-4.0,-7.0,5.0,-1.0,-5.0,-8.0,-4.0,0.0
1701961448.5192463,-9.0,10.0,-43.0,-15.0,-4.0,-13.0,-13.0,2.0
1701961448.5192463,-4.0,-25.0,3.0,-6.0,-10.0,24.0,4.0,-9.0
1701961448.5192463,-13.0,34.0,20.0,4.0,4.0,-65.0,-15.0,-3.0
1701961448.5396454,-5.0,-4.0,0.0,1.0,3.0,97.0,-13.0,-17.0
1701961448.5396454,15.0,-6.0,29.0,22.0,11.0,-17.0,20.0,24.0
1701961448.5396454,-10.0,-2.0,-21.0,-7.0,-8.0,-72.0,-8.0,8.0
1701961448.5396454,4.0,-23.0,-9.0,-9.0,-8.0,60.0,27.0,-2.0
1701961448.5494373,14.0,-1.0,10.0,10.0,-1.0,-14.0,-13.0,1.0
1701961448.5494373,-23.0,-1.0,-12.0,-6.0,0.0,1.0,-8.0,-14.0
1701961448.5596073,1.0,8.0,1.0,3.0,3.0,-15.0,-1.0,3.0
1701961448.5596073,-5.0,-6.0,-9.0,-5.0,-9.0,-51.0,-24.0,-10.0
1701961448.579246,0.0,6.0,-5.0,-2.0,1.0,1.0,13.0,0.0
1701961448.579246,-6.0,-17.0,4.0,6.0,2.0,-1.0,-4.0,-8.0
1701961448.579246,5.0,-2.0,1.0,6.0,-11.0,-23.0,-15.0,-1.0
1701961448.579246,-4.0,13.0,11.0,-22.0,-11.0,18.0,2.0,-3.0
1701961448.5995975,1.0,14.0,3.0,25.0,9.0,10.0,14.0,2.0
1701961448.5995975,-1.0,-14.0,5.0,-3.0,0.0,-7.0,-8.0,-1.0
1701961448.5995975,-1.0,5.0,-1.0,3.0,4.0,9.0,3.0,-2.0
1701961448.5995975,-1.0,3.0,-4.0,3.0,2.0,16.0,-5.0,-2.0
1701961448.6096208,1.0,11.0,25.0,-39.0,-15.0,-5.0,11.0,3.0
1701961448.6096208,4.0,-1.0,3.0,19.0,7.0,-18.0,-8.0,-4.0
1701961448.619568,-6.0,-8.0,-6.0,1.0,-22.0,8.0,-8.0,-8.0
1701961448.619568,6.0,-2.0,14.0,10.0,28.0,11.0,8.0,6.0
1701961448.6392481,-5.0,-9.0,-35.0,-23.0,-3.0,-15.0,-1.0,0.0
1701961448.6392481,-5.0,4.0,13.0,-11.0,-27.0,-1.0,-6.0,-9.0
1701961448.6392481,4.0,5.0,19.0,24.0,13.0,11.0,5.0,3.0
1701961448.6392481,-1.0,-9.0,-19.0,-20.0,-11.0,-7.0,-2.0,2.0
1701961448.6596289,-7.0,6.0,25.0,10.0,3.0,2.0,7.0,-2.0
1701961448.6596289,3.0,0.0,5.0,0.0,-5.0,5.0,-1.0,-1.0
1701961448.6596289,-2.0,1.0,1.0,4.0,0.0,3.0,-1.0,0.0
1701961448.6596289,-4.0,-6.0,11.0,-2.0,-12.0,-13.0,-8.0,-5.0
1701961448.669632,-1.0,-10.0,-3.0,31.0,3.0,5.0,0.0,-1.0
1701961448.669632,5.0,6.0,-1.0,-7.0,6.0,-1.0,0.0,1.0
1701961448.689247,-1.0,-3.0,-9.0,-34.0,-6.0,-5.0,-2.0,1.0
1701961448.689247,2.0,2.0,-4.0,16.0,13.0,9.0,-1.0,-2.0
1701961448.6994264,-3.0,8.0,-2.0,10.0,-1.0,4.0,5.0,1.0
1701961448.6994264,-2.0,-4.0,1.0,-6.0,-1.0,-3.0,-2.0,-2.0
1701961448.6994264,-1.0,-9.0,-33.0,-9.0,-2.0,3.0,-3.0,-4.0
1701961448.6994264,3.0,-1.0,-27.0,-17.0,3.0,10.0,3.0,1.0
1701961448.7195675,0.0,-1.0,12.0,17.0,2.0,-5.0,1.0,1.0
1701961448.7195675,-1.0,-1.0,-6.0,-14.0,-8.0,-4.0,-2.0,1.0
1701961448.7195675,-13.0,12.0,24.0,5.0,5.0,3.0,3.0,0.0
1701961448.7195675,-6.0,4.0,-3.0,-29.0,-15.0,-3.0,-4.0,-4.0
1701961448.736174,-1.0,-3.0,-17.0,-13.0,-8.0,-9.0,-2.0,-2.0
1701961448.736174,3.0,3.0,10.0,5.0,9.0,4.0,2.0,0.0
1701961448.7430644,-4.0,-4.0,5.0,34.0,3.0,2.0,1.0,-1.0
1701961448.7430644,1.0,-3.0,-4.0,11.0,-2.0,-3.0,-2.0,0.0
1701961448.7719119,-1.0,4.0,-11.0,-3.0,7.0,1.0,3.0,6.0
1701961448.7719119,0.0,0.0,1.0,-13.0,-10.0,-4.0,-3.0,-5.0
1701961448.7719119,0.0,-11.0,-9.0,-24.0,-14.0,-2.0,0.0,-1.0
1701961448.7719119,-2.0,12.0,-12.0,31.0,12.0,10.0,1.0,-3.0
1701961448.7819169,-6.0,5.0,0.0,-18.0,2.0,-3.0,-2.0,-4.0
1701961448.7819169,-2.0,-2.0,7.0,2.0,-6.0,-1.0,-3.0,-2.0
1701961448.7819169,5.0,-2.0,16.0,-12.0,8.0,1.0,1.0,0.0
1701961448.7819169,-1.0,-6.0,0.0,-2.0,-8.0,-4.0,5.0,2.0
1701961448.7923014,-10.0,-1.0,6.0,-54.0,-30.0,3.0,14.0,0.0
1701961448.7923014,8.0,-3.0,6.0,108.0,82.0,19.0,-4.0,7.0
1701961448.8019204,-8.0,-6.0,-22.0,-49.0,-8.0,-19.0,-22.0,-7.0
1701961448.8119144,-1.0,-2.0,1.0,16.0,-4.0,-2.0,-1.0,1.0
1701961448.8119144,1.0,2.0,-9.0,-40.0,-9.0,0.0,5.0,-1.0
1701961448.8119144,-5.0,-2.0,21.0,10.0,-16.0,-5.0,-3.0,-4.0
1701961448.8119144,4.0,2.0,-17.0,-13.0,2.0,3.0,10.0,2.0
1701961448.8119144,-1.0,-5.0,7.0,0.0,1.0,-2.0,-4.0,-3.0
1701961448.841917,-6.0,2.0,2.0,27.0,13.0,3.0,1.0,0.0
1701961448.841917,4.0,4.0,17.0,0.0,-4.0,3.0,7.0,2.0
1701961448.841917,-2.0,10.0,-9.0,4.0,-2.0,-3.0,-3.0,-3.0
1701961448.841917,-4.0,-9.0,-6.0,-20.0,-13.0,-5.0,-5.0,-2.0
1701961448.8519456,5.0,-7.0,-8.0,23.0,9.0,-2.0,2.0,1.0
1701961448.8519456,6.0,5.0,-11.0,-26.0,-17.0,-5.0,-3.0,-1.0
1701961448.8619552,1.0,-2.0,9.0,3.0,-2.0,-1.0,0.0,1.0
1701961448.8619552,1.0,-9.0,-9.0,-12.0,-2.0,0.0,0.0,0.0
1701961448.872188,0.0,-1.0,-1.0,17.0,6.0,-2.0,-6.0,-1.0
1701961448.872188,0.0,-2.0,7.0,1.0,-7.0,-3.0,-2.0,-1.0
1701961448.872188,4.0,-9.0,-40.0,-48.0,-8.0,-16.0,-4.0,-1.0
1701961448.872188,1.0,6.0,15.0,10.0,-1.0,12.0,4.0,-1.0
1701961448.9020088,3.0,-3.0,4.0,14.0,12.0,11.0,-4.0,-1.0
1701961448.9020088,-8.0,-7.0,-39.0,-28.0,-20.0,-56.0,-1.0,-5.0
1701961448.9020088,0.0,2.0,17.0,20.0,3.0,81.0,-9.0,-7.0
1701961448.9020088,9.0,1.0,-4.0,-3.0,2.0,-24.0,-2.0,3.0
1701961448.9320068,2.0,4.0,21.0,11.0,1.0,-18.0,-10.0,-1.0
1701961448.9320068,-4.0,-2.0,-29.0,-37.0,-11.0,2.0,7.0,-1.0
1701961448.9320068,-1.0,-1.0,5.0,20.0,3.0,-18.0,-7.0,0.0
1701961448.9320068,-1.0,1.0,-3.0,-8.0,-4.0,11.0,2.0,-3.0
1701961448.9320068,-1.0,-4.0,-3.0,8.0,-1.0,7.0,0.0,-2.0
1701961448.9320068,-2.0,-4.0,2.0,-1.0,0.0,-12.0,-8.0,-1.0
1701961448.9320068,0.0,2.0,29.0,16.0,1.0,-12.0,14.0,1.0
1701961448.9320068,-6.0,-6.0,-21.0,-22.0,-5.0,19.0,-9.0,-2.0
1701961448.962006,0.0,-2.0,4.0,8.0,-1.0,-18.0,-3.0,-2.0
1701961448.962006,-3.0,-2.0,-14.0,-15.0,-5.0,11.0,-3.0,-2.0
1701961448.962006,3.0,7.0,10.0,-2.0,1.0,-33.0,-8.0,1.0
1701961448.962006,-4.0,0.0,8.0,8.0,1.0,17.0,3.0,-3.0
1701961448.972004,0.0,-2.0,-9.0,7.0,10.0,26.0,9.0,-1.0
1701961448.972004,-4.0,-6.0,12.0,-6.0,-6.0,1.0,1.0,0.0
1701961448.982041,-4.0,-8.0,-37.0,-8.0,-6.0,1.0,-2.0,-3.0
1701961448.982041,-2.0,5.0,25.0,1.0,-1.0,-35.0,-12.0,-4.0
1701961448.992404,0.0,-4.0,-18.0,-13.0,-11.0,-8.0,-9.0,-2.0
1701961448.992404,-1.0,4.0,30.0,9.0,5.0,19.0,1.0,-1.0
1701961448.992404,1.0,1.0,-20.0,4.0,-7.0,-6.0,9.0,3.0
1701961448.992404,-2.0,-10.0,-23.0,-12.0,12.0,5.0,3.0,2.0
1701961449.0220065,-3.0,-5.0,0.0,-4.0,-2.0,-3.0,-2.0,-3.0
1701961449.0220065,-2.0,2.0,4.0,25.0,10.0,10.0,2.0,-1.0
1701961449.0220065,-3.0,-10.0,-18.0,-14.0,-6.0,-4.0,1.0,-2.0
1701961449.0220065,1.0,4.0,1.0,-2.0,-4.0,-4.0,-3.0,-1.0
1701961449.0320039,-6.0,-6.0,5.0,-6.0,-8.0,-1.0,-7.0,-4.0
1701961449.0320039,4.0,8.0,0.0,-3.0,1.0,-1.0,-1.0,2.0
1701961449.0420096,-2.0,-1.0,4.0,19.0,7.0,3.0,-1.0,-3.0
1701961449.0420096,-1.0,-6.0,-9.0,-16.0,-6.0,0.0,2.0,-1.0
1701961449.0523987,0.0,0.0,-26.0,-16.0,-3.0,-6.0,1.0,-1.0
1701961449.0523987,-1.0,-4.0,-1.0,6.0,-1.0,4.0,-3.0,-3.0
1701961449.0523987,5.0,5.0,39.0,19.0,3.0,1.0,2.0,0.0
1701961449.0523987,-1.0,3.0,4.0,1.0,-3.0,0.0,3.0,0.0
1701961449.0820043,-5.0,-5.0,-14.0,-5.0,0.0,-5.0,-5.0,-9.0
1701961449.0820043,3.0,-1.0,18.0,5.0,-4.0,-1.0,-4.0,8.0
1701961449.0820043,2.0,1.0,-11.0,-10.0,2.0,4.0,-1.0,-2.0
1701961449.0820043,-1.0,-5.0,-9.0,-9.0,-2.0,-5.0,3.0,5.0
1701961449.092382,4.0,7.0,26.0,13.0,-1.0,-5.0,-6.0,-3.0
1701961449.092382,-14.0,0.0,-6.0,-2.0,5.0,9.0,2.0,-8.0
1701961449.1023831,-6.0,3.0,16.0,-2.0,-1.0,-3.0,0.0,3.0
1701961449.1023831,-4.0,5.0,-7.0,3.0,1.0,0.0,-1.0,-14.0
1701961449.112391,-6.0,12.0,24.0,9.0,3.0,1.0,-1.0,-5.0
1701961449.112391,4.0,-1.0,-6.0,-2.0,2.0,9.0,9.0,10.0
1701961449.122341,6.0,-1.0,-8.0,2.0,-2.0,-1.0,-1.0,-10.0
1701961449.122341,-4.0,3.0,16.0,13.0,2.0,-17.0,-4.0,6.0
1701961449.1420038,0.0,4.0,-11.0,-12.0,0.0,17.0,12.0,-6.0
1701961449.1420038,-6.0,-12.0,-9.0,-12.0,-9.0,-10.0,-7.0,-8.0
1701961449.1420038,1.0,-2.0,11.0,-1.0,-3.0,-18.0,-1.0,7.0
1701961449.1420038,-7.0,-3.0,-8.0,2.0,-2.0,12.0,-9.0,-7.0
1701961449.1522713,7.0,-2.0,11.0,9.0,4.0,6.0,-3.0,9.0
1701961449.1522713,5.0,4.0,-1.0,-7.0,-4.0,-10.0,-5.0,-3.0
1701961449.1622825,-2.0,-1.0,-7.0,7.0,2.0,10.0,6.0,-1.0
1701961449.1622825,2.0,14.0,8.0,-6.0,-8.0,-26.0,-10.0,-1.0
1701961449.172291,-2.0,0.0,-1.0,-4.0,3.0,0.0,3.0,3.0
1701961449.172291,-1.0,-8.0,-11.0,-11.0,-6.0,3.0,-6.0,-3.0
1701961449.1822348,-8.0,6.0,33.0,47.0,5.0,-7.0,-5.0,-4.0
1701961449.1822348,1.0,-9.0,-14.0,-42.0,-12.0,-21.0,-7.0,3.0
1701961449.2120092,-5.0,-22.0,-15.0,1.0,-2.0,24.0,6.0,2.0
1701961449.2120092,0.0,8.0,7.0,-8.0,-3.0,-15.0,-4.0,-4.0
1701961449.2120092,0.0,-5.0,5.0,11.0,2.0,23.0,9.0,3.0
1701961449.2120092,2.0,-2.0,2.0,12.0,-1.0,-4.0,-2.0,1.0
1701961449.2120092,-1.0,-2.0,-15.0,-11.0,-5.0,-6.0,5.0,1.0
1701961449.2120092,1.0,-10.0,12.0,6.0,7.0,-7.0,-1.0,-1.0
1701961449.2220027,-1.0,-5.0,-38.0,-30.0,-8.0,-9.0,-18.0,-1.0
1701961449.2220027,-1.0,-2.0,7.0,11.0,0.0,-13.0,-6.0,-1.0
1701961449.23238,4.0,-1.0,-4.0,-10.0,1.0,32.0,14.0,2.0
1701961449.23238,0.0,0.0,-1.0,6.0,1.0,0.0,0.0,-2.0
1701961449.242367,-1.0,1.0,-11.0,-11.0,5.0,-1.0,0.0,-1.0
1701961449.242367,0.0,0.0,3.0,-3.0,-1.0,5.0,4.0,0.0
1701961449.2624269,-2.0,-3.0,-11.0,7.0,-1.0,-22.0,-12.0,-2.0
1701961449.2624269,-6.0,5.0,2.0,11.0,3.0,7.0,1.0,0.0
1701961449.263004,-1.0,-1.0,-5.0,-39.0,-13.0,-3.0,0.0,0.0
1701961449.263004,2.0,-2.0,-6.0,10.0,3.0,4.0,0.0,0.0
1701961449.2848098,8.0,-7.0,8.0,4.0,-6.0,-9.0,-5.0,0.0
1701961449.2848098,-8.0,5.0,-4.0,-2.0,7.0,8.0,2.0,-1.0
1701961449.2848098,7.0,18.0,-5.0,-1.0,-2.0,-8.0,-7.0,-1.0
1701961449.2848098,-6.0,-5.0,19.0,14.0,2.0,15.0,6.0,-1.0
1701961449.2950528,-1.0,2.0,-3.0,-6.0,-9.0,-16.0,-8.0,-1.0
1701961449.2950528,2.0,-11.0,-17.0,-12.0,-4.0,2.0,-6.0,-3.0
1701961449.3048034,-4.0,-5.0,7.0,2.0,1.0,-3.0,5.0,-1.0
1701961449.3048034,2.0,2.0,-1.0,0.0,0.0,23.0,10.0,0.0
1701961449.3148372,-5.0,-1.0,-3.0,5.0,-2.0,-15.0,-7.0,-2.0
1701961449.3148372,-1.0,6.0,-5.0,-7.0,-7.0,-26.0,1.0,-1.0
1701961449.3148372,-2.0,-6.0,-12.0,0.0,5.0,16.0,-10.0,-1.0
1701961449.3148372,-1.0,-5.0,30.0,14.0,-3.0,5.0,-7.0,-6.0
1701961449.344805,-3.0,9.0,3.0,0.0,4.0,-21.0,-4.0,-1.0
1701961449.344805,15.0,-6.0,-17.0,-2.0,-5.0,22.0,3.0,2.0
1701961449.344805,-1.0,-2.0,2.0,-11.0,-6.0,-9.0,5.0,0.0
1701961449.344805,1.0,-2.0,-4.0,-2.0,-3.0,-6.0,-2.0,-2.0
1701961449.3648033,-1.0,-6.0,-19.0,-6.0,-4.0,-5.0,-7.0,-4.0
1701961449.3648033,2.0,-3.0,1.0,5.0,-2.0,-6.0,-2.0,-2.0
1701961449.3648033,-8.0,9.0,10.0,2.0,-1.0,-20.0,-1.0,-5.0
1701961449.3648033,-2.0,-2.0,-11.0,-3.0,3.0,33.0,5.0,1.0
1701961449.3751721,1.0,5.0,13.0,-3.0,-4.0,0.0,3.0,0.0
1701961449.3751721,-7.0,5.0,-8.0,-6.0,-1.0,3.0,0.0,-1.0
1701961449.3751721,7.0,-17.0,-9.0,11.0,3.0,-7.0,2.0,2.0
1701961449.3751721,-10.0,9.0,10.0,-2.0,-3.0,-10.0,-5.0,-5.0
1701961449.404805,-7.0,4.0,11.0,6.0,3.0,-4.0,4.0,-1.0
1701961449.404805,-5.0,-1.0,-7.0,-11.0,-5.0,1.0,0.0,-3.0
1701961449.404805,2.0,-1.0,13.0,8.0,5.0,41.0,12.0,2.0
1701961449.404805,-5.0,-8.0,-11.0,-4.0,1.0,-8.0,2.0,-3.0
1701961449.4248035,2.0,-17.0,-11.0,-17.0,-7.0,-9.0,-4.0,-1.0
1701961449.4248035,4.0,10.0,24.0,15.0,2.0,-13.0,-4.0,1.0
1701961449.4248035,-1.0,-3.0,-9.0,-12.0,-1.0,4.0,-5.0,-2.0
1701961449.4248035,-1.0,7.0,-9.0,6.0,5.0,-4.0,1.0,4.0
1701961449.4351366,4.0,1.0,19.0,3.0,-3.0,3.0,0.0,0.0
1701961449.4351366,-2.0,-6.0,-3.0,0.0,2.0,-11.0,-10.0,-4.0
1701961449.4351366,1.0,-1.0,-26.0,-14.0,-1.0,-3.0,-1.0,1.0
1701961449.4351366,2.0,-2.0,36.0,22.0,-4.0,-2.0,-1.0,-3.0
1701961449.4648044,10.0,-1.0,-34.0,-11.0,-3.0,-4.0,-6.0,0.0
1701961449.4648044,-2.0,13.0,10.0,-1.0,-2.0,7.0,3.0,2.0
1701961449.4648044,-2.0,0.0,-11.0,-3.0,-1.0,1.0,-2.0,1.0
1701961449.4648044,2.0,-19.0,-9.0,2.0,1.0,-1.0,2.0,1.0
1701961449.4748108,-20.0,-4.0,19.0,-2.0,-3.0,-2.0,-3.0,-7.0
1701961449.4748108,-1.0,0.0,-22.0,-9.0,-2.0,9.0,1.0,-2.0
1701961449.484877,-4.0,-16.0,29.0,18.0,1.0,-11.0,0.0,-3.0
1701961449.484877,7.0,-2.0,-30.0,-4.0,-3.0,-3.0,-5.0,-2.0
1701961449.4951928,4.0,11.0,-27.0,-17.0,-3.0,3.0,3.0,7.0
1701961449.4951928,-7.0,0.0,13.0,1.0,-1.0,-17.0,-13.0,-5.0
1701961449.4951928,0.0,6.0,40.0,13.0,-1.0,20.0,2.0,1.0
1701961449.4951928,5.0,-6.0,-33.0,-15.0,-8.0,-13.0,-27.0,4.0
1701961449.524805,-7.0,11.0,7.0,11.0,10.0,24.0,10.0,1.0
1701961449.524805,-3.0,-8.0,18.0,5.0,-1.0,3.0,7.0,-2.0
1701961449.524805,-4.0,-4.0,-42.0,-20.0,-10.0,-18.0,-7.0,-3.0
1701961449.524805,0.0,-5.0,17.0,4.0,0.0,-24.0,-3.0,-7.0
1701961449.5448046,9.0,-21.0,-12.0,-2.0,-1.0,20.0,1.0,-3.0
1701961449.5448046,-8.0,-1.0,9.0,0.0,-2.0,-33.0,-8.0,1.0
1701961449.5448046,-12.0,0.0,2.0,-4.0,-5.0,13.0,-3.0,-10.0
1701961449.5448046,1.0,5.0,-2.0,-6.0,-2.0,-1.0,0.0,-6.0
1701961449.555061,-2.0,-26.0,-7.0,2.0,-1.0,-53.0,-16.0,5.0
1701961449.555061,15.0,-46.0,0.0,3.0,13.0,58.0,21.0,9.0
1701961449.555061,7.0,-1.0,-25.0,-7.0,-2.0,10.0,-2.0,18.0
1701961449.555061,3.0,8.0,19.0,2.0,5.0,-12.0,1.0,-5.0
1701961449.6048079,1.0,21.0,18.0,12.0,1.0,-43.0,-14.0,-4.0
1701961449.6048079,0.0,-9.0,12.0,0.0,-4.0,42.0,-1.0,-7.0
1701961449.6048079,-1.0,11.0,11.0,9.0,13.0,6.0,21.0,10.0
1701961449.6048079,-4.0,-7.0,-13.0,-8.0,-6.0,-17.0,-4.0,2.0
1701961449.6048079,0.0,-18.0,-10.0,-5.0,-3.0,20.0,-7.0,-9.0
1701961449.6048079,-5.0,18.0,-2.0,-3.0,-5.0,-23.0,-8.0,-2.0
1701961449.6048079,-1.0,0.0,31.0,12.0,2.0,6.0,-2.0,-8.0
1701961449.6048079,-4.0,-3.0,-90.0,-35.0,-6.0,12.0,10.0,2.0
1701961449.6148338,-5.0,3.0,6.0,3.0,1.0,-8.0,-1.0,-3.0
1701961449.6148338,-1.0,10.0,16.0,10.0,-5.0,2.0,-1.0,-2.0
1701961449.6148338,-2.0,6.0,9.0,-5.0,-3.0,-12.0,-5.0,-4.0
1701961449.6148338,-7.0,-10.0,9.0,-11.0,-6.0,-10.0,0.0,-2.0
1701961449.6448033,0.0,13.0,8.0,12.0,16.0,22.0,6.0,6.0
1701961449.6448033,0.0,-3.0,-10.0,15.0,1.0,-3.0,0.0,1.0
1701961449.6448033,2.0,-13.0,-4.0,-7.0,-5.0,-17.0,-7.0,-8.0
1701961449.6448033,0.0,14.0,17.0,21.0,9.0,9.0,7.0,6.0
1701961449.6548367,-6.0,-5.0,-19.0,-38.0,-15.0,8.0,1.0,-6.0
1701961449.6548367,-2.0,-4.0,-10.0,-28.0,-16.0,-6.0,0.0,-1.0
1701961449.6652048,-4.0,-1.0,26.0,58.0,26.0,-13.0,-5.0,-6.0
1701961449.6652048,11.0,10.0,-3.0,-1.0,2.0,12.0,4.0,3.0
1701961449.6751313,-12.0,1.0,-12.0,13.0,0.0,7.0,1.0,-5.0
1701961449.6751313,-4.0,8.0,4.0,-12.0,-11.0,-20.0,-3.0,-2.0
1701961449.6751313,1.0,-4.0,-22.0,-14.0,-5.0,-5.0,-2.0,-2.0
1701961449.6751313,1.0,-13.0,-3.0,-3.0,-5.0,4.0,-1.0,1.0
1701961449.7048059,0.0,-4.0,30.0,18.0,3.0,5.0,-1.0,-3.0
1701961449.7048059,1.0,8.0,-30.0,-7.0,-2.0,-6.0,-4.0,-2.0
1701961449.7048059,-1.0,-5.0,-4.0,-14.0,-4.0,-2.0,-2.0,-2.0
1701961449.7048059,-6.0,1.0,8.0,14.0,5.0,6.0,3.0,1.0
1701961449.7251923,2.0,-2.0,1.0,-4.0,-6.0,-6.0,0.0,1.0
1701961449.7251923,-2.0,-4.0,-17.0,-11.0,1.0,2.0,0.0,-1.0
1701961449.7251923,-2.0,-1.0,-4.0,-4.0,-2.0,-2.0,-1.0,-3.0
1701961449.7251923,-6.0,8.0,16.0,-4.0,-3.0,0.0,2.0,-1.0
1701961449.7351675,-2.0,17.0,10.0,8.0,-1.0,5.0,1.0,2.0
1701961449.7351675,5.0,4.0,-10.0,-9.0,3.0,-1.0,-3.0,2.0
1701961449.7351675,5.0,6.0,0.0,-11.0,-8.0,-8.0,-2.0,0.0
1701961449.7351675,-15.0,8.0,19.0,7.0,-1.0,1.0,1.0,0.0
1701961449.7648072,11.0,-34.0,-39.0,-9.0,-3.0,-4.0,0.0,-1.0
1701961449.7648072,0.0,6.0,24.0,8.0,2.0,4.0,-1.0,-2.0
1701961449.7648072,-3.0,-11.0,-19.0,-14.0,-12.0,-29.0,-8.0,-5.0
1701961449.7648072,4.0,1.0,3.0,-3.0,-3.0,27.0,-14.0,-2.0
1701961449.7748098,-16.0,-5.0,-12.0,-2.0,-1.0,-8.0,-6.0,2.0
1701961449.7748098,5.0,11.0,10.0,3.0,5.0,-13.0,-5.0,-6.0
1701961449.7867541,-18.0,4.0,20.0,9.0,-2.0,12.0,-11.0,-6.0
1701961449.7877562,9.0,-14.0,-21.0,1.0,-5.0,-37.0,-10.0,-8.0
1701961449.8024988,-3.0,13.0,-7.0,-16.0,-3.0,39.0,22.0,-2.0
1701961449.8024988,0.0,-17.0,-5.0,-1.0,1.0,-8.0,11.0,8.0
1701961449.803498,-6.0,2.0,-10.0,-13.0,-5.0,54.0,-13.0,-4.0
1701961449.803498,4.0,1.0,18.0,10.0,1.0,-45.0,-14.0,-8.0
1701961449.8276184,-6.0,-6.0,12.0,1.0,-4.0,-12.0,-5.0,0.0
1701961449.8276184,-1.0,1.0,-32.0,1.0,-1.0,-9.0,2.0,0.0
1701961449.8276184,4.0,-11.0,-30.0,-8.0,-4.0,-22.0,6.0,1.0
1701961449.8276184,-12.0,-30.0,-6.0,-5.0,0.0,16.0,3.0,5.0
1701961449.8376637,0.0,14.0,27.0,18.0,6.0,0.0,-5.0,-1.0
1701961449.8376637,-4.0,-13.0,-18.0,-10.0,-7.0,-2.0,-5.0,-2.0
1701961449.8476732,4.0,11.0,24.0,9.0,3.0,-9.0,4.0,-1.0
1701961449.8476732,-4.0,-13.0,-13.0,-12.0,-9.0,13.0,3.0,1.0
1701961449.8578506,2.0,2.0,-1.0,-6.0,-7.0,-11.0,0.0,0.0
1701961449.8578506,-2.0,2.0,18.0,9.0,11.0,5.0,0.0,-8.0
1701961449.8578506,-5.0,-3.0,10.0,2.0,1.0,16.0,4.0,0.0
1701961449.8578506,4.0,9.0,-1.0,2.0,4.0,-26.0,7.0,5.0
1701961449.877813,-7.0,1.0,1.0,-3.0,-1.0,-9.0,-4.0,-3.0
1701961449.877813,-3.0,-10.0,15.0,8.0,-1.0,32.0,3.0,0.0
1701961449.877813,1.0,-7.0,-29.0,-12.0,-9.0,7.0,-2.0,-2.0
1701961449.877813,-15.0,23.0,2.0,-8.0,0.0,-17.0,13.0,-8.0
1701961449.8977156,-4.0,24.0,25.0,13.0,11.0,65.0,-5.0,13.0
1701961449.8977156,4.0,-13.0,-26.0,-8.0,-10.0,-38.0,-7.0,9.0
1701961449.9077096,-4.0,15.0,26.0,13.0,7.0,13.0,6.0,1.0
1701961449.9077096,8.0,-1.0,-19.0,-3.0,2.0,-10.0,7.0,1.0
1701961449.91771,-3.0,-17.0,2.0,-8.0,-13.0,3.0,-14.0,-9.0
1701961449.91771,1.0,5.0,11.0,6.0,8.0,24.0,11.0,-12.0
1701961449.91771,8.0,-3.0,17.0,0.0,-3.0,-26.0,8.0,15.0
1701961449.91771,-14.0,14.0,11.0,-2.0,0.0,29.0,2.0,0.0
1701961449.9380748,8.0,-7.0,-18.0,-2.0,2.0,-32.0,1.0,0.0
1701961449.9380748,-5.0,3.0,4.0,-7.0,-5.0,-37.0,-13.0,-4.0
1701961449.9480097,-2.0,46.0,18.0,14.0,11.0,35.0,10.0,1.0
1701961449.9480097,-4.0,4.0,31.0,2.0,1.0,-9.0,7.0,-4.0
1701961449.9580286,11.0,-3.0,-14.0,-5.0,9.0,-5.0,2.0,5.0
1701961449.9580286,-12.0,-4.0,18.0,0.0,-4.0,30.0,6.0,-19.0
1701961449.9580286,8.0,-3.0,-26.0,-1.0,-3.0,-61.0,-11.0,-2.0
1701961449.9580286,13.0,-13.0,-17.0,-7.0,-8.0,18.0,-18.0,0.0
1701961449.9877095,-17.0,29.0,12.0,6.0,6.0,25.0,2.0,2.0
1701961449.9877095,-11.0,3.0,8.0,3.0,5.0,6.0,10.0,3.0
1701961449.9877095,6.0,-19.0,-11.0,-5.0,-5.0,2.0,5.0,13.0
1701961449.9877095,-5.0,-6.0,-4.0,1.0,-2.0,-48.0,-5.0,-13.0
1701961449.9979298,2.0,-16.0,-8.0,-6.0,-9.0,-18.0,5.0,-5.0
1701961449.9979298,4.0,13.0,34.0,33.0,12.0,35.0,4.0,5.0
1701961449.9979298,-13.0,-21.0,-32.0,-49.0,-11.0,-7.0,-12.0,-16.0
1701961449.9979298,-2.0,1.0,2.0,-6.0,-3.0,45.0,-1.0,6.0
1701961450.0177128,7.0,-2.0,-15.0,-12.0,-13.0,-61.0,-13.0,-4.0
1701961450.0177128,-2.0,-21.0,37.0,41.0,12.0,-20.0,9.0,-13.0
1701961450.0177128,12.0,-18.0,-37.0,-30.0,4.0,67.0,39.0,22.0
1701961450.0177128,16.0,-15.0,-27.0,-22.0,-14.0,0.0,-12.0,15.0
1701961450.0477092,-3.0,17.0,40.0,30.0,13.0,11.0,19.0,2.0
1701961450.0477092,10.0,-14.0,-15.0,-13.0,-14.0,-50.0,-49.0,11.0
1701961450.0477092,-7.0,-10.0,-14.0,-15.0,-6.0,14.0,13.0,-8.0
1701961450.0477092,-2.0,26.0,5.0,9.0,4.0,17.0,-9.0,-27.0
1701961450.0577438,9.0,-20.0,-17.0,-2.0,-10.0,-29.0,-14.0,-13.0
1701961450.0577438,7.0,3.0,2.0,-3.0,-2.0,2.0,4.0,12.0
1701961450.0577438,-8.0,-10.0,0.0,2.0,-2.0,-30.0,-20.0,-10.0
1701961450.0577438,3.0,9.0,13.0,3.0,1.0,9.0,4.0,7.0
1701961450.0780513,1.0,3.0,13.0,12.0,7.0,3.0,1.0,-1.0
1701961450.0780513,-16.0,25.0,-38.0,-33.0,-11.0,12.0,1.0,-8.0
1701961450.0780513,-3.0,-2.0,-4.0,8.0,-5.0,-22.0,-14.0,-12.0
1701961450.0780513,-1.0,-4.0,18.0,25.0,5.0,24.0,15.0,2.0
1701961450.0977101,7.0,-4.0,-14.0,-25.0,6.0,-6.0,-3.0,-1.0
1701961450.0977101,4.0,-17.0,-69.0,-21.0,1.0,-9.0,-13.0,6.0
1701961450.0977101,1.0,0.0,32.0,18.0,-4.0,34.0,18.0,1.0
1701961450.0977101,-13.0,-9.0,18.0,5.0,-3.0,-29.0,-2.0,0.0
1701961450.1179676,-3.0,1.0,0.0,10.0,-1.0,-1.0,-5.0,0.0
1701961450.1179676,-3.0,-11.0,-46.0,-25.0,-5.0,14.0,2.0,4.0
1701961450.1179676,-3.0,-3.0,16.0,16.0,-1.0,-43.0,-18.0,-4.0
1701961450.1179676,2.0,0.0,16.0,0.0,5.0,8.0,4.0,0.0
1701961450.1477118,-3.0,14.0,-27.0,-29.0,-14.0,26.0,8.0,1.0
1701961450.1477118,-4.0,-4.0,61.0,1.0,-7.0,-22.0,-4.0,-3.0
1701961450.1577086,-2.0,-17.0,-62.0,29.0,4.0,-5.0,-7.0,-6.0
1701961450.1577086,-3.0,53.0,-20.0,-17.0,15.0,13.0,6.0,4.0
1701961450.1577086,-11.0,-30.0,-38.0,-20.0,-27.0,-14.0,-10.0,-7.0
1701961450.1577086,3.0,-16.0,21.0,-12.0,-5.0,-4.0,1.0,1.0
1701961450.1577086,8.0,31.0,-27.0,-42.0,-8.0,-3.0,-2.0,4.0
1701961450.1577086,-7.0,-102.0,39.0,38.0,-8.0,0.0,-12.0,-7.0
1701961450.177981,3.0,40.0,-107.0,-19.0,36.0,4.0,3.0,3.0
1701961450.177981,-4.0,-20.0,25.0,6.0,-25.0,-5.0,-1.0,-5.0
1701961450.177981,-25.0,-39.0,-26.0,-7.0,-15.0,-14.0,-15.0,-15.0
1701961450.177981,-13.0,-7.0,-6.0,-14.0,0.0,-3.0,-1.0,-2.0
1701961450.1979275,19.0,20.0,33.0,-2.0,-17.0,7.0,4.0,6.0
1701961450.1979275,-24.0,-66.0,-36.0,28.0,20.0,4.0,-1.0,-9.0
1701961450.2077186,1.0,24.0,40.0,-10.0,13.0,1.0,1.0,1.0
1701961450.2077186,7.0,14.0,-14.0,10.0,-2.0,2.0,0.0,2.0
1701961450.2277098,-2.0,-16.0,53.0,23.0,-4.0,-1.0,-2.0,-3.0
1701961450.2277098,6.0,36.0,-65.0,-43.0,-2.0,2.0,3.0,1.0
1701961450.2277098,-1.0,19.0,60.0,6.0,-6.0,-18.0,-10.0,-5.0
1701961450.2277098,-1.0,-22.0,-48.0,-6.0,1.0,5.0,7.0,9.0
1701961450.2377467,-11.0,-54.0,23.0,4.0,3.0,7.0,-5.0,-10.0
1701961450.2377467,9.0,53.0,22.0,12.0,5.0,-7.0,2.0,6.0
1701961450.2377467,-3.0,63.0,26.0,15.0,1.0,-4.0,0.0,-5.0
1701961450.2377467,16.0,-20.0,-60.0,-30.0,-10.0,-10.0,-6.0,-4.0
1701961450.267709,14.0,60.0,59.0,13.0,7.0,3.0,4.0,6.0
1701961450.267709,-13.0,-38.0,-10.0,2.0,-12.0,-4.0,-4.0,-6.0
1701961450.267709,-6.0,-12.0,-18.0,6.0,3.0,-3.0,-5.0,-7.0
1701961450.267709,-7.0,58.0,54.0,10.0,10.0,9.0,9.0,8.0
1701961450.2779202,-13.0,3.0,-3.0,2.0,-4.0,-6.0,-5.0,-7.0
1701961450.2779202,15.0,12.0,-17.0,-5.0,1.0,-2.0,-6.0,-7.0
1701961450.2879002,7.0,-10.0,19.0,14.0,8.0,4.0,0.0,4.0
1701961450.2879002,-1.0,34.0,13.0,-9.0,-6.0,-4.0,-3.0,-5.0
1701961450.3289993,-11.0,-28.0,-3.0,-2.0,-9.0,-6.0,4.0,5.0
1701961450.3289993,-6.0,4.0,9.0,-5.0,-7.0,-17.0,2.0,-2.0
1701961450.3289993,17.0,-4.0,-6.0,4.0,1.0,-71.0,-11.0,0.0
1701961450.3289993,-11.0,26.0,11.0,1.0,6.0,95.0,48.0,0.0
1701961450.3289993,-13.0,-12.0,-20.0,6.0,-4.0,-55.0,1.0,-2.0
1701961450.3289993,-4.0,-33.0,-23.0,-25.0,2.0,25.0,0.0,-2.0
1701961450.3289993,16.0,0.0,-7.0,-7.0,-9.0,-50.0,-5.0,7.0
1701961450.3289993,15.0,24.0,29.0,8.0,-3.0,-16.0,0.0,-1.0
1701961450.3412158,-8.0,-42.0,1.0,-4.0,-1.0,45.0,-18.0,-7.0
1701961450.3422787,16.0,23.0,26.0,14.0,9.0,3.0,10.0,4.0
1701961450.3504996,2.0,7.0,28.0,15.0,0.0,7.0,-8.0,-2.0
1701961450.3504996,-11.0,-22.0,-52.0,-35.0,-15.0,-39.0,-17.0,-7.0
1701961450.380497,2.0,-1.0,7.0,-1.0,12.0,24.0,8.0,-1.0
1701961450.380497,6.0,13.0,2.0,15.0,2.0,-11.0,-7.0,1.0
1701961450.380497,-14.0,-1.0,-8.0,-22.0,3.0,29.0,4.0,0.0
1701961450.380497,1.0,-16.0,6.0,15.0,-12.0,-10.0,-9.0,-1.0
1701961450.380497,7.0,11.0,-10.0,13.0,16.0,-12.0,2.0,-1.0
1701961450.380497,-1.0,4.0,-4.0,-30.0,-25.0,-3.0,-5.0,-3.0
1701961450.380497,-7.0,-11.0,6.0,39.0,31.0,24.0,12.0,3.0
1701961450.380497,5.0,-5.0,32.0,14.0,-7.0,-26.0,-12.0,-3.0
1701961450.4004974,-5.0,-15.0,-65.0,-50.0,-7.0,-12.0,-8.0,-4.0
1701961450.4004974,3.0,5.0,15.0,-29.0,-10.0,1.0,5.0,2.0
1701961450.4004974,7.0,-15.0,8.0,54.0,15.0,17.0,2.0,1.0
1701961450.4004974,-4.0,-17.0,-35.0,-27.0,7.0,-12.0,-9.0,-1.0
1701961450.4308667,7.0,17.0,58.0,9.0,-13.0,-3.0,-1.0,4.0
1701961450.4308667,-15.0,-1.0,23.0,36.0,20.0,6.0,-1.0,-9.0
1701961450.440554,9.0,-7.0,11.0,2.0,-17.0,-7.0,-1.0,-2.0
1701961450.440554,-4.0,-1.0,-55.0,-51.0,-8.0,0.0,-3.0,-2.0
1701961450.440554,-2.0,-1.0,-22.0,-15.0,-7.0,18.0,0.0,2.0
1701961450.440554,3.0,5.0,2.0,8.0,2.0,-40.0,7.0,3.0
1701961450.440554,-19.0,12.0,19.0,-1.0,-5.0,45.0,3.0,-1.0
1701961450.440554,-5.0,-3.0,15.0,35.0,10.0,2.0,-4.0,0.0
1701961450.4609072,0.0,-1.0,-5.0,3.0,-3.0,-19.0,7.0,4.0
1701961450.4609072,6.0,-1.0,-26.0,-28.0,-13.0,-16.0,-20.0,-1.0
1701961450.4609072,-4.0,-19.0,-3.0,-12.0,-7.0,-24.0,1.0,-6.0
1701961450.4609072,1.0,-14.0,9.0,-1.0,4.0,56.0,-2.0,-1.0
1701961450.4905517,1.0,2.0,-30.0,-8.0,-7.0,0.0,12.0,0.0
1701961450.4905517,7.0,-14.0,-2.0,21.0,7.0,27.0,-1.0,5.0
1701961450.4905517,-5.0,2.0,-11.0,-17.0,-3.0,-57.0,-1.0,2.0
1701961450.4905517,-4.0,12.0,-3.0,-7.0,-3.0,8.0,-4.0,-12.0
1701961450.500761,1.0,0.0,34.0,17.0,1.0,-39.0,-15.0,10.0
1701961450.500761,5.0,22.0,28.0,15.0,7.0,40.0,23.0,2.0
1701961450.500761,-2.0,-25.0,-38.0,-30.0,-14.0,-33.0,-16.0,-2.0
1701961450.500761,-3.0,3.0,15.0,11.0,2.0,31.0,-1.0,-25.0
1701961450.5208092,-1.0,6.0,16.0,11.0,2.0,-9.0,-4.0,1.0
1701961450.5208092,7.0,-2.0,-15.0,-2.0,7.0,-3.0,0.0,2.0
1701961450.5305543,-11.0,6.0,25.0,-6.0,-3.0,14.0,7.0,3.0
1701961450.5305543,2.0,-32.0,-12.0,4.0,-2.0,-47.0,-3.0,9.0
1701961450.5405822,5.0,37.0,-1.0,-8.0,-2.0,12.0,-8.0,-10.0
1701961450.5405822,-2.0,-7.0,-10.0,-4.0,-6.0,-34.0,-8.0,-2.0
1701961450.5405822,11.0,1.0,-8.0,-3.0,1.0,57.0,1.0,-3.0
1701961450.5405822,-2.0,-11.0,14.0,14.0,-2.0,-26.0,2.0,9.0
1701961450.5609229,-2.0,-1.0,-4.0,-21.0,-9.0,3.0,-4.0,-7.0
1701961450.5609229,-2.0,6.0,-10.0,5.0,3.0,-13.0,-2.0,2.0
1701961450.5609229,1.0,-2.0,14.0,-6.0,1.0,11.0,3.0,-2.0
1701961450.5609229,-7.0,-5.0,-35.0,-12.0,-7.0,-20.0,-15.0,-9.0
1701961450.5808933,3.0,-1.0,26.0,19.0,3.0,13.0,14.0,8.0
1701961450.5808933,-3.0,10.0,0.0,-1.0,-2.0,0.0,0.0,-3.0
1701961450.590555,-5.0,-7.0,-15.0,1.0,-5.0,15.0,-2.0,-2.0
1701961450.590555,0.0,0.0,-14.0,-33.0,-11.0,-39.0,-4.0,7.0
1701961450.600583,-20.0,11.0,13.0,18.0,10.0,27.0,2.0,-17.0
1701961450.600583,3.0,-2.0,-22.0,0.0,4.0,15.0,7.0,11.0
1701961450.600583,8.0,-7.0,3.0,1.0,3.0,2.0,1.0,0.0
1701961450.600583,5.0,27.0,33.0,13.0,5.0,-12.0,-10.0,-27.0
1701961450.62091,11.0,-4.0,1.0,26.0,3.0,-11.0,8.0,31.0
1701961450.62091,-5.0,-15.0,58.0,-31.0,-10.0,10.0,11.0,17.0
1701961450.62091,8.0,8.0,-66.0,-36.0,-3.0,0.0,-15.0,-21.0
1701961450.62091,-22.0,-20.0,-1.0,11.0,-2.0,0.0,13.0,7.0
1701961450.640866,1.0,-24.0,-1.0,0.0,-2.0,-15.0,-12.0,-8.0
1701961450.640866,0.0,13.0,26.0,20.0,4.0,24.0,-3.0,-5.0
1701961450.650554,-3.0,-5.0,-1.0,-5.0,-8.0,-11.0,3.0,3.0
1701961450.650554,-13.0,-21.0,-32.0,-5.0,-2.0,-1.0,-6.0,5.0
1701961450.6605859,7.0,25.0,-1.0,0.0,0.0,-12.0,5.0,-5.0
1701961450.6605859,-6.0,3.0,-10.0,4.0,1.0,14.0,-3.0,-9.0
1701961450.6605859,-3.0,14.0,5.0,0.0,-2.0,-13.0,-3.0,23.0
1701961450.6605859,17.0,-7.0,-5.0,5.0,1.0,17.0,0.0,0.0
1701961450.6808872,-5.0,-19.0,-11.0,-2.0,-4.0,-5.0,3.0,4.0
1701961450.6808872,-2.0,6.0,1.0,3.0,5.0,-3.0,-6.0,-13.0
1701961450.6808872,3.0,-1.0,-1.0,-6.0,-8.0,-15.0,-4.0,-1.0
1701961450.6808872,6.0,5.0,18.0,16.0,8.0,7.0,3.0,7.0
1701961450.7008984,-3.0,-12.0,-36.0,-21.0,-5.0,2.0,-7.0,-7.0
1701961450.7008984,-2.0,5.0,0.0,4.0,3.0,-3.0,-2.0,-1.0
1701961450.7105546,0.0,1.0,24.0,4.0,1.0,11.0,0.0,-2.0
1701961450.7105546,4.0,3.0,-8.0,3.0,2.0,-5.0,2.0,8.0
1701961450.7308598,4.0,-4.0,9.0,-10.0,-4.0,14.0,0.0,-5.0
1701961450.7308598,-16.0,-7.0,-22.0,-10.0,-9.0,-16.0,-7.0,-6.0
1701961450.7308598,-5.0,-4.0,15.0,11.0,2.0,5.0,6.0,-1.0
1701961450.7308598,6.0,11.0,10.0,6.0,9.0,2.0,2.0,2.0
1701961450.740865,-4.0,8.0,-13.0,-9.0,-6.0,-5.0,-3.0,-4.0
1701961450.740865,-5.0,-19.0,-12.0,1.0,-3.0,-4.0,-4.0,-3.0
1701961450.7507908,-2.0,-5.0,-17.0,-16.0,0.0,1.0,-1.0,-1.0
1701961450.7507908,6.0,13.0,22.0,-6.0,-6.0,-6.0,-1.0,3.0
1701961450.7605524,-2.0,-11.0,-8.0,-1.0,-4.0,4.0,-2.0,-5.0
1701961450.7605524,3.0,22.0,17.0,-5.0,4.0,-1.0,-1.0,-1.0
1701961450.7705512,9.0,-24.0,-41.0,-4.0,-9.0,-4.0,-2.0,-4.0
1701961450.7705512,0.0,-3.0,-33.0,-7.0,2.0,-11.0,-3.0,0.0
1701961450.7808938,1.0,-9.0,22.0,11.0,2.0,5.0,-8.0,-2.0
1701961450.7808938,-3.0,-4.0,5.0,-13.0,-6.0,14.0,-1.0,-3.0
1701961450.7808938,2.0,-5.0,-5.0,4.0,2.0,-5.0,5.0,-7.0
1701961450.7808938,1.0,8.0,11.0,-3.0,-3.0,1.0,8.0,9.0
1701961450.8009162,1.0,-19.0,-24.0,-15.0,-2.0,-12.0,-12.0,-2.0
1701961450.8009162,10.0,12.0,10.0,10.0,-5.0,-25.0,-7.0,-5.0
1701961450.8009162,-5.0,9.0,15.0,8.0,7.0,28.0,5.0,5.0
1701961450.8009162,-15.0,-9.0,3.0,-3.0,-3.0,-20.0,-2.0,-2.0
1701961450.820556,-3.0,-20.0,-8.0,-6.0,-2.0,36.0,4.0,-2.0
1701961450.820556,2.0,-1.0,-7.0,4.0,3.0,-21.0,-6.0,-3.0
1701961450.8307493,5.0,11.0,22.0,-2.0,-2.0,-12.0,-5.0,5.0
1701961450.8307493,-5.0,-4.0,-19.0,1.0,-1.0,31.0,15.0,0.0
1701961450.8407488,-2.0,13.0,10.0,7.0,0.0,-27.0,8.0,1.0
1701961450.8407488,-2.0,-13.0,-20.0,-9.0,-2.0,29.0,-3.0,-3.0
1701961450.8407488,9.0,-10.0,-2.0,4.0,-1.0,-5.0,-7.0,-1.0
1701961450.8407488,-14.0,29.0,34.0,12.0,5.0,11.0,3.0,0.0
1701961450.8666906,-5.0,-4.0,-7.0,-8.0,-3.0,-26.0,-13.0,-8.0
1701961450.867687,-6.0,-4.0,-8.0,1.0,-6.0,-27.0,-4.0,4.0
1701961450.8686855,-6.0,-4.0,4.0,0.0,3.0,34.0,-7.0,-21.0
1701961450.8686855,2.0,12.0,11.0,-1.0,6.0,19.0,13.0,15.0
1701961450.8930976,5.0,11.0,1.0,-2.0,-6.0,3.0,1.0,-12.0
1701961450.8930976,-10.0,-1.0,5.0,8.0,0.0,-18.0,-22.0,-7.0
1701961450.8930976,-1.0,-9.0,-19.0,-7.0,-9.0,-17.0,-4.0,-6.0
1701961450.8930976,8.0,-11.0,10.0,3.0,-3.0,-19.0,-9.0,-8.0
1701961450.9031312,1.0,-6.0,-28.0,-24.0,-1.0,13.0,10.0,6.0
1701961450.9031312,2.0,-8.0,-2.0,2.0,0.0,2.0,6.0,3.0
1701961450.9031312,4.0,6.0,18.0,4.0,4.0,-6.0,9.0,8.0
1701961450.9031312,1.0,-5.0,-22.0,6.0,-3.0,6.0,-10.0,-5.0
1701961450.923498,4.0,-4.0,19.0,-9.0,-2.0,-14.0,-3.0,3.0
1701961450.923498,1.0,5.0,-29.0,-5.0,1.0,9.0,4.0,1.0
1701961450.923498,-15.0,2.0,1.0,6.0,1.0,-2.0,2.0,1.0
1701961450.923498,0.0,0.0,5.0,-1.0,-5.0,-10.0,-6.0,-5.0
1701961450.9334555,0.0,1.0,19.0,-1.0,-2.0,6.0,0.0,-1.0
1701961450.9334555,9.0,-9.0,23.0,24.0,3.0,-1.0,1.0,-2.0
1701961450.9430985,6.0,5.0,-24.0,-27.0,-2.0,5.0,4.0,5.0
1701961450.9430985,6.0,-1.0,-19.0,-18.0,-4.0,-5.0,-1.0,-1.0
1701961450.9634898,-10.0,14.0,70.0,24.0,-4.0,3.0,0.0,-3.0
1701961450.9634898,-3.0,9.0,21.0,27.0,2.0,3.0,-1.0,-1.0
1701961450.9634898,-8.0,-14.0,-57.0,-3.0,1.0,-22.0,-1.0,1.0
1701961450.9634898,6.0,7.0,24.0,-3.0,-1.0,36.0,-1.0,-3.0
1701961450.9830976,-4.0,-3.0,-28.0,-8.0,7.0,-19.0,-2.0,0.0
1701961450.9830976,-5.0,8.0,16.0,-1.0,-2.0,-7.0,0.0,-2.0
1701961450.9930983,-6.0,-2.0,0.0,12.0,6.0,56.0,12.0,4.0
1701961450.9930983,-3.0,-13.0,-39.0,-22.0,-7.0,-7.0,-1.0,-5.0
1701961451.003511,-3.0,-5.0,9.0,17.0,6.0,-1.0,-6.0,-9.0
1701961451.003511,19.0,-37.0,-36.0,-15.0,-8.0,-36.0,-15.0,7.0
1701961451.003511,-6.0,29.0,38.0,-2.0,-2.0,8.0,9.0,-3.0
1701961451.003511,-5.0,-8.0,3.0,13.0,0.0,-9.0,-6.0,0.0
1701961451.0235088,-2.0,-3.0,-36.0,-12.0,-2.0,-30.0,6.0,2.0
1701961451.0235088,-3.0,-3.0,4.0,-6.0,-2.0,23.0,-11.0,-13.0
1701961451.0235088,-1.0,-6.0,-9.0,2.0,-4.0,-49.0,-19.0,-4.0
1701961451.0235088,-7.0,8.0,21.0,-5.0,0.0,30.0,6.0,-3.0
1701961451.043448,10.0,0.0,-16.0,7.0,3.0,-13.0,-6.0,2.0
1701961451.043448,-9.0,7.0,-14.0,-7.0,0.0,11.0,10.0,2.0
1701961451.0530982,-3.0,-9.0,9.0,-7.0,-6.0,3.0,-8.0,-3.0
1701961451.0530982,6.0,1.0,-1.0,17.0,7.0,-2.0,11.0,7.0
1701961451.0530982,-6.0,7.0,-6.0,-15.0,-6.0,7.0,-7.0,-5.0
1701961451.0530982,-10.0,-6.0,0.0,12.0,-1.0,-42.0,-15.0,-6.0
1701961451.0631301,9.0,2.0,10.0,-13.0,2.0,63.0,32.0,2.0
1701961451.0631301,15.0,0.0,7.0,8.0,-2.0,-43.0,-47.0,22.0
1701961451.0835152,1.0,-8.0,-26.0,-21.0,-3.0,1.0,-1.0,6.0
1701961451.0835152,9.0,-6.0,-7.0,3.0,6.0,26.0,12.0,-7.0
1701961451.0835152,3.0,-6.0,14.0,13.0,5.0,12.0,3.0,1.0
1701961451.0835152,-5.0,-2.0,3.0,-4.0,-4.0,-14.0,23.0,-6.0
1701961451.1030989,-4.0,-4.0,-4.0,7.0,-2.0,33.0,-8.0,-3.0
1701961451.1030989,-1.0,-3.0,-34.0,-18.0,-5.0,-22.0,-1.0,4.0
1701961451.1030989,1.0,0.0,-8.0,-7.0,-7.0,-40.0,-11.0,-4.0
1701961451.1030989,-2.0,-7.0,18.0,3.0,-6.0,-4.0,2.0,-5.0
1701961451.1131268,-5.0,4.0,3.0,4.0,4.0,-2.0,0.0,1.0
1701961451.1131268,0.0,8.0,15.0,-5.0,2.0,20.0,15.0,2.0
1701961451.1331003,-4.0,1.0,-2.0,3.0,1.0,-1.0,-10.0,-1.0
1701961451.1331003,-4.0,-6.0,4.0,3.0,0.0,-18.0,-6.0,-10.0
1701961451.1531007,2.0,0.0,2.0,8.0,3.0,9.0,2.0,-4.0
1701961451.1531007,-11.0,11.0,11.0,-8.0,-1.0,-1.0,1.0,-1.0
1701961451.163097,1.0,-8.0,2.0,5.0,2.0,7.0,13.0,2.0
1701961451.163097,4.0,1.0,3.0,0.0,0.0,-16.0,-14.0,-6.0
1701961451.163097,3.0,12.0,-5.0,-13.0,-6.0,-47.0,1.0,1.0
1701961451.163097,-8.0,-13.0,-21.0,-14.0,-3.0,58.0,2.0,-1.0
1701961451.163097,-6.0,8.0,-7.0,2.0,2.0,-18.0,1.0,3.0
1701961451.163097,-12.0,0.0,0.0,2.0,1.0,32.0,0.0,-6.0
1701961451.1834028,-5.0,18.0,28.0,8.0,3.0,26.0,16.0,-1.0
1701961451.1834028,1.0,17.0,10.0,4.0,-8.0,-52.0,-10.0,1.0
1701961451.1834028,-4.0,-3.0,16.0,-7.0,-6.0,-6.0,1.0,-3.0
1701961451.1834028,5.0,-15.0,-44.0,-22.0,1.0,3.0,-17.0,-2.0
1701961451.213098,-26.0,6.0,9.0,12.0,5.0,-3.0,1.0,-2.0
1701961451.213098,-4.0,-16.0,1.0,2.0,5.0,22.0,10.0,4.0
1701961451.213098,3.0,26.0,10.0,4.0,-7.0,-53.0,-18.0,-4.0
1701961451.213098,3.0,11.0,3.0,4.0,9.0,63.0,26.0,4.0
1701961451.2233639,2.0,-23.0,-5.0,8.0,-5.0,1.0,-1.0,-4.0
1701961451.2233639,1.0,1.0,5.0,-8.0,-3.0,-27.0,-8.0,-2.0
1701961451.2233639,-11.0,-12.0,-6.0,3.0,2.0,28.0,-3.0,-7.0
1701961451.2233639,-1.0,18.0,16.0,5.0,-4.0,-22.0,-1.0,-2.0
1701961451.2434886,10.0,-4.0,-16.0,-13.0,-9.0,0.0,-11.0,-5.0
1701961451.2434886,0.0,-4.0,-3.0,-6.0,-2.0,3.0,4.0,1.0
1701961451.2434886,-7.0,0.0,14.0,0.0,-6.0,-26.0,-11.0,-3.0
1701961451.2434886,-2.0,-19.0,-18.0,3.0,8.0,12.0,11.0,2.0
1701961451.2730958,9.0,19.0,-17.0,-39.0,-12.0,22.0,-1.0,0.0
1701961451.2730958,2.0,-8.0,29.0,40.0,-1.0,-13.0,1.0,-1.0
1701961451.2730958,-10.0,-1.0,-81.0,-38.0,8.0,4.0,-2.0,-1.0
1701961451.2730958,3.0,-17.0,-33.0,-26.0,-13.0,-13.0,-5.0,-6.0
1701961451.2833803,-4.0,9.0,72.0,31.0,-8.0,-16.0,-7.0,-3.0
1701961451.2833803,-3.0,0.0,-19.0,-7.0,8.0,1.0,2.0,0.0
1701961451.2833803,11.0,17.0,37.0,10.0,-11.0,3.0,-2.0,-2.0
1701961451.2833803,-12.0,-10.0,-12.0,5.0,-6.0,-21.0,-6.0,-7.0
1701961451.3034022,-7.0,-5.0,-26.0,-10.0,2.0,5.0,1.0,3.0
1701961451.3034022,-18.0,29.0,28.0,1.0,0.0,9.0,2.0,-2.0
1701961451.3034022,0.0,1.0,20.0,16.0,6.0,6.0,0.0,0.0
1701961451.3034022,-18.0,-23.0,-26.0,-63.0,-44.0,-33.0,-11.0,-12.0
1701961451.3430977,6.0,-9.0,-31.0,33.0,41.0,15.0,8.0,4.0
1701961451.3430977,5.0,5.0,29.0,13.0,2.0,17.0,3.0,1.0
1701961451.353096,-2.0,-31.0,23.0,-32.0,-11.0,-16.0,-13.0,-5.0
1701961451.353096,0.0,-9.0,-6.0,42.0,1.0,-13.0,-4.0,-3.0
1701961451.353096,7.0,-26.0,-78.0,-39.0,24.0,15.0,9.0,7.0
1701961451.353096,-2.0,34.0,77.0,84.0,36.0,9.0,-1.0,-5.0
1701961451.353096,13.0,-9.0,-25.0,-20.0,-8.0,-6.0,-1.0,7.0
1701961451.353096,1.0,-11.0,29.0,1.0,-13.0,-9.0,-3.0,-2.0
1701961451.3731117,5.0,-13.0,-5.0,-4.0,-2.0,11.0,14.0,15.0
1701961451.3731117,-12.0,7.0,-24.0,-19.0,-1.0,3.0,-3.0,6.0
1701961451.3731117,13.0,24.0,-13.0,-3.0,-3.0,-4.0,-6.0,-8.0
1701961451.3731117,19.0,84.0,55.0,15.0,16.0,12.0,-5.0,8.0
1701961451.3830986,-21.0,-8.0,4.0,7.0,-13.0,-16.0,-24.0,-23.0
1701961451.3830986,-4.0,-59.0,-64.0,-32.0,-15.0,-8.0,22.0,2.0
1701961451.3904846,0.0,15.0,32.0,23.0,1.0,13.0,93.0,49.0
1701961451.3904846,-1.0,-6.0,-27.0,-4.0,10.0,13.0,-87.0,-35.0
1701961451.4068284,13.0,33.0,11.0,-8.0,-8.0,-52.0,-46.0,-19.0
1701961451.4078486,4.0,29.0,34.0,7.0,-8.0,42.0,15.0,-3.0
1701961451.4088454,-6.0,-41.0,-15.0,-1.0,1.0,5.0,-5.0,-4.0
1701961451.4088454,6.0,5.0,-4.0,0.0,6.0,-25.0,74.0,47.0
1701961451.4460166,0.0,-20.0,-5.0,1.0,2.0,70.0,25.0,19.0
1701961451.4460166,-15.0,8.0,19.0,-9.0,-17.0,-82.0,-105.0,-72.0
1701961451.4460166,-5.0,-2.0,-7.0,10.0,1.0,-4.0,-27.0,-12.0
1701961451.4460166,-5.0,-8.0,7.0,8.0,7.0,78.0,34.0,0.0
1701961451.4460166,-5.0,-16.0,-5.0,-14.0,-14.0,-31.0,31.0,13.0
1701961451.4460166,11.0,-4.0,-23.0,2.0,2.0,6.0,47.0,46.0
1701961451.4460166,-1.0,15.0,5.0,2.0,4.0,-16.0,-100.0,-49.0
1701961451.4460166,-10.0,-9.0,-1.0,-1.0,-4.0,-31.0,-14.0,-18.0
1701961451.4663877,-4.0,1.0,16.0,0.0,-6.0,16.0,21.0,4.0
1701961451.4663877,4.0,-20.0,-38.0,-35.0,-14.0,15.0,17.0,14.0
1701961451.4663877,-14.0,-24.0,1.0,20.0,7.0,-19.0,1.0,4.0
1701961451.4663877,-11.0,-32.0,40.0,22.0,7.0,-1.0,-3.0,2.0
1701961451.4860127,-5.0,5.0,-25.0,3.0,-6.0,-1.0,-2.0,-6.0
1701961451.4860127,3.0,27.0,2.0,-26.0,-8.0,-15.0,-4.0,-3.0
1701961451.4860127,-9.0,-49.0,-16.0,-11.0,-4.0,10.0,4.0,-1.0
1701961451.4860127,-4.0,23.0,7.0,-2.0,3.0,-7.0,1.0,-4.0
1701961451.4963691,13.0,15.0,44.0,20.0,4.0,-2.0,2.0,1.0
1701961451.4963691,5.0,-7.0,-2.0,-11.0,-6.0,0.0,-8.0,-2.0
1701961451.5063455,-11.0,-27.0,-89.0,-21.0,-3.0,6.0,6.0,-1.0
1701961451.5063455,8.0,5.0,20.0,-7.0,4.0,-4.0,8.0,2.0
1701961451.5264146,1.0,6.0,44.0,14.0,-2.0,-11.0,-17.0,-6.0
1701961451.5264146,-1.0,6.0,-29.0,-10.0,1.0,15.0,2.0,3.0
1701961451.5264146,10.0,34.0,78.0,27.0,9.0,9.0,14.0,5.0
1701961451.5264146,-12.0,-3.0,29.0,3.0,-8.0,-23.0,-5.0,-2.0
1701961451.5460129,-13.0,-24.0,-71.0,-52.0,-22.0,-3.0,-14.0,-9.0
1701961451.5460129,7.0,-4.0,19.0,8.0,14.0,11.0,10.0,2.0
1701961451.5460129,5.0,19.0,23.0,15.0,1.0,2.0,12.0,7.0
1701961451.5460129,4.0,-6.0,10.0,-3.0,0.0,-4.0,-4.0,1.0
1701961451.5562997,7.0,-3.0,34.0,13.0,-3.0,-4.0,-6.0,-1.0
1701961451.5562997,-5.0,-8.0,-26.0,-3.0,0.0,1.0,6.0,-2.0
1701961451.5663579,10.0,1.0,-5.0,-9.0,-8.0,-8.0,-4.0,0.0
1701961451.5663579,15.0,-6.0,-21.0,-7.0,-2.0,0.0,-2.0,4.0
1701961451.5864165,1.0,-20.0,-14.0,-3.0,-6.0,-5.0,-3.0,-2.0
1701961451.5864165,-20.0,14.0,0.0,1.0,4.0,-7.0,-3.0,-5.0
1701961451.5864165,-7.0,-2.0,24.0,5.0,0.0,-10.0,-4.0,-5.0
1701961451.5864165,6.0,-11.0,-71.0,-16.0,-1.0,10.0,-1.0,2.0
1701961451.6060362,4.0,8.0,23.0,10.0,0.0,6.0,4.0,-2.0
1701961451.6060362,4.0,-13.0,-18.0,-7.0,-7.0,-10.0,4.0,4.0
1701961451.6060362,-10.0,-5.0,1.0,-2.0,-6.0,-4.0,-17.0,-9.0
1701961451.6060362,-3.0,6.0,-23.0,0.0,0.0,-3.0,4.0,1.0
1701961451.6163988,-4.0,-3.0,-6.0,1.0,3.0,-1.0,-2.0,1.0
1701961451.6163988,-1.0,-10.0,33.0,9.0,-2.0,-4.0,0.0,3.0
1701961451.6263666,-3.0,1.0,-22.0,-8.0,-2.0,2.0,6.0,0.0
1701961451.6263666,3.0,4.0,26.0,3.0,0.0,-4.0,5.0,-15.0
1701961451.646411,8.0,-13.0,-6.0,-9.0,-6.0,-26.0,-36.0,-2.0
1701961451.646411,5.0,-6.0,7.0,-8.0,-6.0,-6.0,-4.0,-4.0
1701961451.646411,0.0,2.0,-7.0,-2.0,1.0,56.0,14.0,9.0
1701961451.646411,1.0,9.0,18.0,4.0,4.0,-9.0,0.0,-5.0
1701961451.6660352,-1.0,-2.0,25.0,9.0,0.0,15.0,18.0,0.0
1701961451.6660352,3.0,-13.0,-31.0,-7.0,-4.0,-16.0,-21.0,-2.0
1701961451.6660352,0.0,9.0,4.0,-4.0,-6.0,-29.0,-11.0,-5.0
1701961451.6660352,-1.0,-7.0,-31.0,-15.0,-3.0,17.0,6.0,6.0
1701961451.676381,-3.0,8.0,8.0,17.0,7.0,1.0,3.0,-5.0
1701961451.676381,1.0,-10.0,-23.0,-10.0,-3.0,-4.0,3.0,-1.0
1701961451.686293,5.0,-1.0,-9.0,-8.0,2.0,-1.0,-4.0,0.0
1701961451.686293,8.0,-19.0,-8.0,1.0,-5.0,-11.0,-10.0,-4.0
1701961451.706283,-14.0,18.0,15.0,11.0,4.0,6.0,-2.0,-6.0
1701961451.706283,-5.0,4.0,32.0,5.0,0.0,6.0,0.0,-2.0
1701961451.706283,13.0,-26.0,-29.0,-7.0,-4.0,-6.0,0.0,0.0
1701961451.706283,-5.0,1.0,-12.0,-23.0,-7.0,-15.0,-7.0,0.0
1701961451.726037,-5.0,4.0,-3.0,-5.0,4.0,26.0,1.0,-14.0
1701961451.726037,4.0,1.0,24.0,11.0,-1.0,3.0,3.0,6.0
1701961451.726037,-5.0,-5.0,-7.0,1.0,0.0,-14.0,1.0,-2.0
1701961451.726037,-1.0,-10.0,-20.0,-5.0,-2.0,5.0,-2.0,0.0
1701961451.736383,-6.0,11.0,26.0,8.0,-3.0,-15.0,4.0,-1.0
1701961451.736383,13.0,-18.0,-19.0,-8.0,-1.0,4.0,-2.0,0.0
1701961451.746366,-2.0,13.0,-8.0,-4.0,-3.0,-30.0,2.0,3.0
1701961451.746366,-3.0,-5.0,16.0,6.0,-4.0,13.0,-10.0,-3.0
1701961451.766416,5.0,-1.0,-23.0,-8.0,0.0,23.0,11.0,3.0
1701961451.766416,-4.0,-10.0,-2.0,1.0,0.0,-4.0,-4.0,-4.0
1701961451.766416,3.0,-14.0,8.0,11.0,-2.0,-10.0,5.0,4.0
1701961451.766416,-9.0,2.0,-12.0,-28.0,-6.0,-9.0,7.0,6.0
1701961451.7862868,6.0,-1.0,-5.0,9.0,0.0,-19.0,-28.0,-4.0
1701961451.7862868,-15.0,-2.0,-31.0,-30.0,-6.0,27.0,-19.0,-29.0
1701961451.7862868,-1.0,9.0,25.0,10.0,0.0,5.0,18.0,5.0
1701961451.7862868,-15.0,-6.0,-7.0,4.0,1.0,-25.0,-32.0,-21.0
1701961451.7963843,-11.0,-5.0,-2.0,-4.0,-2.0,15.0,-33.0,-13.0
1701961451.7963843,1.0,-8.0,-8.0,-1.0,-4.0,-14.0,10.0,0.0
1701961451.8063586,-19.0,27.0,18.0,4.0,3.0,7.0,-8.0,-6.0
1701961451.8063586,5.0,-3.0,0.0,9.0,2.0,-7.0,29.0,7.0
1701961451.8260128,5.0,8.0,0.0,-6.0,0.0,-10.0,10.0,15.0
1701961451.8260128,0.0,-8.0,-7.0,21.0,5.0,0.0,-1.0,3.0
1701961451.8260128,0.0,0.0,-6.0,-21.0,-8.0,-13.0,-2.0,-3.0
1701961451.8260128,-6.0,-6.0,-5.0,2.0,-3.0,13.0,18.0,5.0
1701961451.8460982,-3.0,8.0,48.0,11.0,5.0,10.0,2.0,-2.0
1701961451.8460982,8.0,47.0,7.0,1.0,3.0,7.0,9.0,4.0
1701961451.8460982,-8.0,-35.0,-36.0,-3.0,-2.0,-9.0,5.0,1.0
1701961451.8460982,-8.0,-14.0,-37.0,-9.0,-8.0,-4.0,-14.0,-7.0
1701961451.8561957,5.0,1.0,8.0,-3.0,1.0,-30.0,-3.0,-1.0
1701961451.8561957,10.0,-19.0,-21.0,-9.0,-2.0,22.0,12.0,6.0
1701961451.8660114,-2.0,14.0,34.0,11.0,13.0,33.0,5.0,-3.0
1701961451.8660114,7.0,14.0,46.0,11.0,-5.0,-17.0,-12.0,-4.0
1701961451.886013,-5.0,-8.0,-15.0,-9.0,-5.0,9.0,17.0,3.0
1701961451.886013,-8.0,-16.0,37.0,-3.0,2.0,-58.0,-3.0,2.0
1701961451.8960228,5.0,4.0,1.0,6.0,9.0,54.0,10.0,0.0
1701961451.8960228,6.0,-8.0,-3.0,14.0,2.0,16.0,7.0,1.0
1701961451.9094322,-6.0,7.0,27.0,-9.0,-2.0,42.0,22.0,5.0
1701961451.9094322,-15.0,-14.0,-59.0,-1.0,-1.0,-51.0,-11.0,-4.0
1701961451.9114463,-6.0,-11.0,-29.0,-1.0,-5.0,13.0,-13.0,-5.0
1701961451.9114463,4.0,6.0,0.0,6.0,13.0,-26.0,-17.0,-1.0
1701961451.922886,2.0,-10.0,-21.0,-6.0,-7.0,-6.0,-1.0,-2.0
1701961451.922886,2.0,16.0,27.0,19.0,3.0,27.0,28.0,9.0
1701961451.9323094,2.0,-18.0,-3.0,-25.0,-12.0,24.0,-24.0,-7.0
1701961451.9323094,3.0,14.0,-6.0,14.0,5.0,12.0,2.0,-6.0
1701961451.9423003,5.0,-17.0,-49.0,-9.0,-7.0,-42.0,-6.0,8.0
1701961451.9423003,-10.0,16.0,90.0,19.0,4.0,58.0,6.0,-12.0
1701961451.9423003,8.0,0.0,-23.0,-14.0,0.0,-62.0,-3.0,10.0
1701961451.9423003,9.0,-14.0,2.0,2.0,-1.0,-30.0,5.0,6.0
1701961451.9626222,-4.0,11.0,-2.0,-8.0,3.0,86.0,16.0,-5.0
1701961451.9626222,7.0,3.0,-19.0,-3.0,-4.0,-19.0,-15.0,12.0
1701961451.9626222,-11.0,6.0,37.0,10.0,-9.0,-40.0,-9.0,-14.0
1701961451.9626222,-3.0,1.0,-46.0,-13.0,-4.0,-3.0,-6.0,10.0
1701961451.9926426,-4.0,1.0,1.0,-3.0,-8.0,-16.0,-39.0,-26.0
1701961451.9926426,-5.0,-8.0,-6.0,1.0,3.0,47.0,11.0,3.0
1701961452.0026443,-17.0,35.0,9.0,17.0,4.0,-55.0,9.0,-4.0
1701961452.0026443,-13.0,-15.0,-21.0,-23.0,-4.0,22.0,-17.0,1.0
1701961452.0026443,9.0,-13.0,3.0,11.0,4.0,27.0,31.0,5.0
1701961452.0026443,-21.0,32.0,17.0,-5.0,-11.0,-64.0,-43.0,-9.0
1701961452.0126386,7.0,-4.0,14.0,11.0,16.0,47.0,31.0,14.0
1701961452.0126386,-8.0,13.0,-17.0,-13.0,-14.0,-41.0,-18.0,-10.0
1701961452.0228682,-4.0,-23.0,-23.0,-1.0,-5.0,11.0,10.0,6.0
1701961452.0228682,27.0,-24.0,-15.0,-16.0,0.0,-6.0,1.0,-7.0
1701961452.0228682,0.0,-1.0,-3.0,-8.0,-6.0,-1.0,5.0,2.0
1701961452.0228682,-4.0,1.0,16.0,9.0,11.0,35.0,10.0,-2.0
1701961452.0526438,0.0,-26.0,6.0,10.0,-2.0,-47.0,-16.0,4.0
1701961452.0526438,-4.0,-21.0,-43.0,-17.0,-8.0,-15.0,-7.0,-4.0
1701961452.0626433,5.0,-12.0,-12.0,-1.0,-5.0,5.0,-12.0,0.0
1701961452.0626433,9.0,39.0,46.0,11.0,4.0,22.0,9.0,1.0
1701961452.0626433,-4.0,11.0,27.0,3.0,1.0,-34.0,-2.0,0.0
1701961452.0626433,-11.0,6.0,-23.0,3.0,-1.0,-6.0,1.0,3.0
1701961452.0728302,4.0,-23.0,1.0,-4.0,3.0,26.0,-2.0,-3.0
1701961452.0728302,-15.0,13.0,-2.0,-8.0,4.0,4.0,7.0,2.0
1701961452.082927,21.0,-27.0,4.0,4.0,0.0,-24.0,-4.0,3.0
1701961452.082927,2.0,60.0,5.0,-10.0,-5.0,22.0,1.0,1.0
1701961452.082927,-2.0,-38.0,-10.0,-2.0,-4.0,-5.0,-10.0,-5.0
1701961452.082927,-4.0,-17.0,-11.0,-20.0,-9.0,-6.0,3.0,-2.0
1701961452.1126409,-7.0,8.0,24.0,15.0,3.0,-9.0,-5.0,-2.0
1701961452.1126409,7.0,-6.0,-38.0,5.0,7.0,17.0,6.0,3.0
1701961452.1226387,-2.0,22.0,25.0,2.0,-11.0,-13.0,-7.0,-4.0
1701961452.1226387,5.0,-2.0,-18.0,-16.0,-2.0,11.0,0.0,-2.0
1701961452.1226387,-6.0,10.0,-22.0,-9.0,4.0,-7.0,-2.0,1.0
1701961452.1226387,-4.0,0.0,5.0,-13.0,-7.0,22.0,-6.0,-15.0
1701961452.132936,-6.0,8.0,83.0,47.0,-3.0,-12.0,-1.0,0.0
1701961452.132936,-1.0,-26.0,-20.0,-1.0,0.0,1.0,4.0,1.0
1701961452.142967,1.0,19.0,-19.0,-6.0,0.0,1.0,0.0,1.0
1701961452.142967,-2.0,-37.0,17.0,12.0,4.0,-10.0,2.0,-1.0
1701961452.142967,2.0,20.0,-21.0,-30.0,0.0,5.0,1.0,9.0
1701961452.142967,4.0,23.0,60.0,32.0,2.0,-2.0,-5.0,-2.0
1701961452.1726403,1.0,5.0,-55.0,-21.0,-4.0,2.0,6.0,1.0
1701961452.1726403,-4.0,-15.0,21.0,13.0,2.0,-9.0,3.0,2.0
1701961452.1726403,5.0,4.0,-24.0,-6.0,3.0,-8.0,-3.0,-4.0
1701961452.1726403,-12.0,-55.0,48.0,28.0,4.0,20.0,12.0,-1.0
1701961452.1829894,-2.0,43.0,-37.0,-36.0,-12.0,-21.0,-9.0,-3.0
1701961452.1829894,-3.0,-9.0,3.0,-1.0,-1.0,-1.0,-5.0,0.0
1701961452.1829894,0.0,-8.0,-40.0,-11.0,-2.0,6.0,0.0,1.0
1701961452.1829894,2.0,-2.0,-17.0,-8.0,0.0,-6.0,1.0,-2.0
1701961452.2126405,0.0,-4.0,5.0,10.0,3.0,1.0,3.0,0.0
1701961452.2126405,-5.0,-16.0,37.0,13.0,1.0,-3.0,-2.0,-4.0
1701961452.2126405,1.0,22.0,-6.0,3.0,0.0,-6.0,-4.0,-1.0
1701961452.2126405,-2.0,-6.0,-12.0,-13.0,-4.0,-3.0,0.0,1.0
1701961452.2226887,2.0,18.0,60.0,41.0,9.0,7.0,0.0,0.0
1701961452.2226887,-2.0,-5.0,-44.0,-28.0,7.0,1.0,0.0,2.0
1701961452.2326458,1.0,-5.0,1.0,6.0,1.0,1.0,-1.0,-2.0
1701961452.2326458,-2.0,10.0,9.0,1.0,1.0,3.0,-1.0,-1.0
1701961452.2426486,-12.0,-18.0,25.0,-19.0,-20.0,-9.0,-7.0,-7.0
1701961452.2426486,-9.0,-29.0,-35.0,-10.0,3.0,-2.0,-4.0,-3.0
1701961452.2528436,-14.0,0.0,-4.0,12.0,16.0,12.0,4.0,-1.0
1701961452.2528436,25.0,24.0,10.0,10.0,-4.0,-6.0,-1.0,4.0
1701961452.2826388,-1.0,-14.0,7.0,-14.0,-8.0,-8.0,-1.0,-1.0
1701961452.2826388,1.0,-2.0,8.0,7.0,-14.0,-4.0,-3.0,-2.0
1701961452.2826388,-1.0,9.0,6.0,-12.0,-10.0,0.0,-6.0,-3.0
1701961452.2826388,-8.0,-21.0,-14.0,-17.0,5.0,-2.0,-1.0,-2.0
1701961452.2826388,2.0,8.0,11.0,19.0,7.0,4.0,2.0,2.0
1701961452.2826388,7.0,15.0,12.0,0.0,0.0,0.0,2.0,2.0
1701961452.2926393,9.0,9.0,-6.0,0.0,-3.0,-28.0,-5.0,0.0
1701961452.2926393,-3.0,15.0,6.0,8.0,-2.0,1.0,-1.0,-1.0
1701961452.303026,11.0,-21.0,-21.0,-7.0,-1.0,10.0,4.0,1.0
1701961452.303026,-13.0,37.0,25.0,6.0,5.0,9.0,-6.0,-1.0
1701961452.312917,-2.0,-17.0,-15.0,-14.0,-4.0,2.0,1.0,-2.0
1701961452.312917,-5.0,0.0,4.0,-2.0,-11.0,-23.0,-7.0,-2.0
1701961452.332639,-11.0,-19.0,-15.0,3.0,5.0,-4.0,3.0,-1.0
1701961452.332639,4.0,-5.0,-8.0,-12.0,-6.0,-13.0,-13.0,0.0
1701961452.332639,-3.0,3.0,18.0,18.0,1.0,-5.0,1.0,-2.0
1701961452.332639,-8.0,13.0,-10.0,-13.0,1.0,9.0,-3.0,2.0
1701961452.3526442,-10.0,10.0,-17.0,-1.0,9.0,26.0,-7.0,-13.0
1701961452.3526442,6.0,-3.0,7.0,-2.0,-5.0,-3.0,20.0,5.0
1701961452.3526442,-16.0,10.0,13.0,-3.0,-3.0,9.0,-20.0,-6.0
1701961452.3526442,7.0,-24.0,-37.0,-2.0,-3.0,-21.0,-2.0,-7.0
1701961452.3629053,4.0,6.0,24.0,6.0,2.0,2.0,-11.0,2.0
1701961452.3629053,-23.0,22.0,13.0,5.0,5.0,20.0,11.0,-2.0
1701961452.3728707,7.0,-11.0,-16.0,-13.0,-7.0,12.0,11.0,3.0
1701961452.3728707,6.0,-3.0,2.0,0.0,4.0,17.0,4.0,0.0
1701961452.3828177,-3.0,8.0,15.0,14.0,2.0,-15.0,-4.0,-2.0
1701961452.3828177,-6.0,-9.0,-21.0,-16.0,-4.0,-19.0,-8.0,-7.0
1701961452.3828177,2.0,-21.0,-4.0,-1.0,-4.0,-5.0,-1.0,-3.0
1701961452.3828177,-14.0,25.0,35.0,9.0,-1.0,-26.0,-4.0,2.0
1701961452.4126458,-2.0,-3.0,-11.0,-9.0,6.0,61.0,19.0,3.0
1701961452.4126458,0.0,-8.0,6.0,14.0,-5.0,-6.0,-2.0,-2.0
1701961452.4126458,-2.0,-15.0,-26.0,-3.0,7.0,43.0,6.0,3.0
1701961452.4126458,-3.0,-21.0,12.0,25.0,-7.0,-19.0,-1.0,-6.0
1701961452.444483,9.0,4.0,-38.0,-24.0,-8.0,-43.0,-11.0,0.0
1701961452.444483,-5.0,-12.0,36.0,23.0,7.0,24.0,9.0,3.0
1701961452.4524815,-1.0,27.0,-30.0,-74.0,-17.0,-27.0,-14.0,-7.0
1701961452.4524815,-6.0,-7.0,-2.0,14.0,-6.0,10.0,-8.0,1.0
1701961452.4524815,-6.0,-11.0,-2.0,10.0,2.0,-50.0,-11.0,-1.0
1701961452.4524815,18.0,-3.0,-15.0,-10.0,-12.0,-62.0,6.0,3.0
1701961452.453482,-7.0,-6.0,11.0,24.0,17.0,42.0,-1.0,-4.0
1701961452.453482,-1.0,6.0,-3.0,-2.0,10.0,73.0,12.0,0.0
1701961452.4649913,-19.0,-10.0,-5.0,-11.0,-3.0,-19.0,-3.0,-1.0
1701961452.4649913,2.0,-1.0,-28.0,-20.0,-3.0,-12.0,-7.0,2.0
1701961452.4649913,2.0,5.0,29.0,31.0,0.0,-28.0,-8.0,-2.0
1701961452.4649913,-7.0,2.0,-7.0,-21.0,-5.0,-63.0,3.0,5.0
1701961452.4852507,5.0,-29.0,-40.0,4.0,9.0,116.0,18.0,-1.0
1701961452.4852507,10.0,25.0,29.0,3.0,-11.0,-59.0,-11.0,1.0
1701961452.5150626,-6.0,1.0,-3.0,8.0,-2.0,15.0,-8.0,-2.0
1701961452.5150626,8.0,-1.0,-16.0,-3.0,3.0,13.0,5.0,1.0
1701961452.5150626,11.0,-7.0,24.0,-15.0,-11.0,-47.0,-7.0,2.0
1701961452.5150626,-5.0,7.0,-7.0,14.0,6.0,12.0,1.0,-4.0
1701961452.5150626,-3.0,17.0,6.0,1.0,5.0,-12.0,9.0,7.0
1701961452.5150626,8.0,-27.0,-40.0,-38.0,-21.0,-112.0,-25.0,-3.0
1701961452.5254478,-6.0,35.0,45.0,33.0,9.0,92.0,20.0,-4.0
1701961452.5254478,13.0,-5.0,5.0,8.0,5.0,-30.0,22.0,16.0
1701961452.5254478,13.0,0.0,4.0,-9.0,0.0,88.0,38.0,6.0
1701961452.5254478,-8.0,-2.0,-1.0,8.0,4.0,46.0,-2.0,-9.0
1701961452.5454783,0.0,-15.0,-17.0,-8.0,-10.0,-102.0,-21.0,-1.0
1701961452.5454783,1.0,5.0,8.0,-10.0,-11.0,-25.0,-25.0,-9.0
1701961452.5550637,-8.0,-27.0,-57.0,1.0,-3.0,29.0,15.0,-3.0
1701961452.5550637,-45.0,33.0,35.0,9.0,19.0,-50.0,-10.0,0.0
1701961452.565166,4.0,6.0,-7.0,-6.0,-7.0,-10.0,2.0,-2.0
1701961452.565166,-5.0,1.0,-16.0,1.0,-3.0,-39.0,-34.0,-30.0
1701961452.5754523,10.0,21.0,51.0,-9.0,-7.0,-42.0,11.0,37.0
1701961452.5754523,-3.0,-30.0,-64.0,-25.0,-18.0,2.0,-14.0,-19.0
1701961452.5854707,16.0,1.0,42.0,30.0,11.0,37.0,22.0,0.0
1701961452.5854707,-4.0,8.0,-2.0,-6.0,5.0,10.0,13.0,-5.0
1701961452.5953584,-50.0,25.0,-5.0,3.0,4.0,35.0,-25.0,2.0
1701961452.5953584,13.0,12.0,42.0,10.0,1.0,44.0,13.0,19.0
1701961452.6051064,-2.0,-3.0,-31.0,-7.0,-6.0,-72.0,-24.0,0.0
1701961452.6051064,-6.0,-20.0,-4.0,-6.0,-7.0,-3.0,-37.0,5.0
1701961452.6250613,23.0,-19.0,15.0,8.0,11.0,18.0,47.0,-9.0
1701961452.6250613,-6.0,44.0,6.0,10.0,-1.0,9.0,-11.0,-3.0
1701961452.6250613,-18.0,-18.0,-23.0,-20.0,-22.0,-76.0,-40.0,-4.0
1701961452.6250613,3.0,-15.0,3.0,-6.0,8.0,102.0,38.0,3.0
1701961452.6250613,3.0,-22.0,-6.0,14.0,0.0,-64.0,-25.0,-6.0
1701961452.6250613,9.0,-5.0,14.0,1.0,2.0,-3.0,2.0,-1.0
1701961452.645481,-9.0,29.0,24.0,12.0,9.0,1.0,11.0,1.0
1701961452.645481,-13.0,11.0,4.0,-17.0,-14.0,-20.0,-10.0,-5.0
1701961452.645481,11.0,11.0,2.0,-9.0,3.0,-7.0,-1.0,-7.0
1701961452.645481,0.0,-17.0,52.0,10.0,-5.0,0.0,7.0,3.0
1701961452.6654406,-53.0,15.0,-42.0,-1.0,0.0,20.0,6.0,-14.0
1701961452.6654406,4.0,-10.0,20.0,8.0,4.0,45.0,2.0,4.0
1701961452.6750634,10.0,-1.0,-57.0,-14.0,-6.0,-34.0,-14.0,-4.0
1701961452.6750634,8.0,21.0,84.0,20.0,-10.0,2.0,-2.0,0.0
1701961452.6851687,11.0,-6.0,10.0,-39.0,-3.0,-9.0,3.0,6.0
1701961452.6851687,-7.0,-64.0,-85.0,0.0,-12.0,-9.0,-8.0,-11.0
1701961452.6851687,-4.0,11.0,-17.0,-30.0,-16.0,-21.0,-8.0,-5.0
1701961452.6851687,9.0,4.0,-46.0,-9.0,13.0,6.0,10.0,5.0
1701961452.7053537,9.0,-1.0,38.0,26.0,-1.0,8.0,5.0,2.0
1701961452.7053537,13.0,19.0,-22.0,-39.0,6.0,11.0,0.0,1.0
1701961452.7053537,-16.0,-32.0,79.0,77.0,5.0,-42.0,-21.0,-14.0
1701961452.7053537,-2.0,-16.0,-81.0,-29.0,11.0,-11.0,4.0,-1.0
1701961452.7250912,9.0,3.0,-43.0,-17.0,11.0,18.0,-6.0,3.0
1701961452.7250912,6.0,31.0,71.0,45.0,8.0,40.0,18.0,8.0
1701961452.7351222,0.0,-2.0,51.0,45.0,-2.0,-92.0,-26.0,-3.0
1701961452.7351222,6.0,11.0,53.0,15.0,7.0,89.0,8.0,-4.0
1701961452.7454255,-18.0,36.0,-29.0,10.0,-1.0,-38.0,22.0,6.0
1701961452.7454255,-4.0,10.0,-43.0,-24.0,0.0,-19.0,6.0,5.0
1701961452.7454255,-3.0,-6.0,-61.0,-46.0,-7.0,15.0,8.0,-3.0
1701961452.7454255,10.0,-3.0,17.0,15.0,-4.0,-21.0,-11.0,2.0
1701961452.7854435,15.0,-22.0,3.0,-10.0,-3.0,5.0,-8.0,-1.0
1701961452.7854435,-3.0,-6.0,-16.0,-16.0,-6.0,16.0,7.0,0.0
1701961452.7854435,-10.0,2.0,-1.0,4.0,2.0,3.0,-6.0,-3.0
1701961452.7854435,-1.0,4.0,-6.0,-9.0,-2.0,-9.0,-4.0,-2.0
1701961452.7854435,1.0,-10.0,-28.0,-10.0,-4.0,13.0,4.0,1.0
1701961452.7854435,-7.0,-2.0,23.0,-1.0,-6.0,-19.0,-3.0,1.0
1701961452.7854435,3.0,-26.0,-70.0,-43.0,-10.0,9.0,-6.0,-8.0
1701961452.7854435,-5.0,-8.0,13.0,5.0,-2.0,-4.0,4.0,-2.0
1701961452.805445,8.0,5.0,32.0,9.0,0.0,15.0,4.0,1.0
1701961452.805445,6.0,3.0,19.0,40.0,10.0,-6.0,-1.0,3.0
1701961452.805445,6.0,-1.0,-19.0,-46.0,-14.0,6.0,5.0,3.0
1701961452.805445,-8.0,-19.0,-29.0,-3.0,5.0,4.0,2.0,-4.0
1701961452.8254452,0.0,-5.0,-1.0,-4.0,-7.0,-7.0,-7.0,-4.0
1701961452.8254452,-1.0,3.0,-5.0,-2.0,-1.0,-4.0,-5.0,-3.0
1701961452.8254452,-7.0,34.0,17.0,9.0,-2.0,4.0,4.0,0.0
1701961452.8254452,-7.0,-13.0,-18.0,-13.0,-8.0,-13.0,-1.0,-4.0
1701961452.8456235,5.0,0.0,9.0,7.0,7.0,3.0,-5.0,-1.0
1701961452.8456235,-9.0,-17.0,4.0,6.0,0.0,0.0,-1.0,-2.0
1701961452.8456235,3.0,4.0,21.0,5.0,2.0,4.0,5.0,1.0
1701961452.8456235,2.0,0.0,-10.0,4.0,-4.0,-6.0,-2.0,-1.0
1701961452.865813,3.0,-2.0,-11.0,-20.0,-4.0,1.0,-1.0,0.0
1701961452.865813,0.0,9.0,-7.0,1.0,3.0,4.0,1.0,0.0
1701961452.865813,-3.0,-14.0,5.0,2.0,-1.0,4.0,0.0,-1.0
1701961452.865813,0.0,-4.0,-4.0,-5.0,-4.0,-6.0,-1.0,2.0
1701961452.8954427,-21.0,1.0,-6.0,6.0,6.0,7.0,1.0,-4.0
1701961452.8954427,0.0,14.0,12.0,-3.0,-2.0,-4.0,-1.0,-3.0
1701961452.8954427,8.0,-8.0,4.0,3.0,5.0,4.0,-4.0,-1.0
1701961452.8954427,1.0,30.0,-8.0,1.0,-5.0,-7.0,0.0,-1.0
1701961452.9055116,2.0,-20.0,-2.0,-8.0,-8.0,-2.0,-4.0,-3.0
1701961452.9055116,-1.0,-6.0,6.0,-11.0,-4.0,-8.0,-3.0,-2.0
1701961452.9055116,-5.0,5.0,3.0,10.0,-1.0,8.0,0.0,-1.0
1701961452.9154537,-4.0,-9.0,-8.0,-3.0,2.0,0.0,0.0,0.0
1701961452.9257267,5.0,1.0,16.0,-3.0,-3.0,-4.0,-2.0,0.0
1701961452.9257267,-12.0,-3.0,-7.0,-1.0,4.0,3.0,1.0,-4.0
1701961452.9355307,4.0,-5.0,-8.0,-4.0,-2.0,-2.0,-3.0,-2.0
1701961452.9355307,-9.0,10.0,6.0,1.0,4.0,1.0,0.0,-1.0
1701961452.9677792,-1.0,-7.0,1.0,8.0,0.0,-7.0,-7.0,-5.0
1701961452.9677792,-17.0,-15.0,-1.0,-7.0,-8.0,0.0,-2.0,-2.0
1701961452.9677792,-4.0,9.0,7.0,23.0,14.0,1.0,1.0,-2.0
1701961452.9677792,-15.0,-18.0,-20.0,-44.0,-6.0,0.0,0.0,-2.0
1701961452.9677792,10.0,16.0,11.0,18.0,5.0,-3.0,-3.0,-1.0
1701961452.9677792,10.0,-24.0,-34.0,-18.0,-11.0,-7.0,-3.0,-1.0
1701961452.9742484,8.0,12.0,10.0,8.0,5.0,1.0,-1.0,4.0
1701961452.9742484,-2.0,-34.0,-40.0,-2.0,-8.0,-8.0,-4.0,-2.0
1701961452.9907684,12.0,-30.0,-15.0,-7.0,-5.0,0.0,0.0,1.0
1701961452.9907684,1.0,47.0,45.0,4.0,7.0,2.0,1.0,0.0
1701961452.9976373,7.0,-9.0,2.0,-6.0,-7.0,-1.0,-2.0,1.0
1701961452.9976373,1.0,11.0,1.0,8.0,-1.0,-5.0,-4.0,-2.0
1701961453.0076723,5.0,3.0,7.0,-11.0,-11.0,-3.0,-1.0,1.0
1701961453.0076723,5.0,-13.0,-33.0,12.0,8.0,5.0,3.0,1.0
1701961453.0076723,-2.0,16.0,26.0,0.0,-2.0,-6.0,1.0,-1.0
1701961453.0076723,0.0,28.0,32.0,17.0,1.0,-8.0,-3.0,-2.0
1701961453.017962,-8.0,-17.0,-19.0,-33.0,-4.0,14.0,3.0,-2.0
1701961453.017962,-6.0,4.0,-19.0,43.0,10.0,1.0,1.0,-2.0
1701961453.027935,-5.0,-7.0,6.0,-11.0,-4.0,0.0,2.0,2.0
1701961453.027935,3.0,-12.0,-16.0,-11.0,-8.0,-4.0,-3.0,-3.0
1701961453.0576353,-6.0,6.0,3.0,9.0,4.0,1.0,1.0,0.0
1701961453.0576353,-3.0,-1.0,14.0,-6.0,3.0,0.0,1.0,0.0
1701961453.0576353,-10.0,-9.0,-11.0,2.0,-4.0,2.0,0.0,-3.0
1701961453.0576353,5.0,-14.0,-7.0,-1.0,-1.0,-4.0,-3.0,-1.0
1701961453.067876,-12.0,19.0,17.0,7.0,1.0,-1.0,-3.0,-2.0
1701961453.067876,-6.0,-6.0,-1.0,-10.0,-9.0,4.0,0.0,-1.0
1701961453.067876,3.0,13.0,2.0,6.0,5.0,-4.0,-1.0,-1.0
1701961453.067876,2.0,-27.0,-9.0,-7.0,-3.0,11.0,-5.0,-1.0
1701961453.0879061,1.0,-12.0,-16.0,1.0,-4.0,-9.0,-1.0,-1.0
1701961453.0879061,-9.0,-13.0,0.0,2.0,1.0,-4.0,-3.0,1.0
1701961453.0879061,-8.0,2.0,-10.0,-16.0,-4.0,-3.0,-4.0,-3.0
1701961453.0879061,7.0,7.0,-9.0,9.0,2.0,1.0,0.0,0.0
1701961453.127638,-2.0,3.0,16.0,11.0,3.0,-1.0,0.0,0.0
1701961453.127638,6.0,3.0,-16.0,-13.0,-6.0,-7.0,-5.0,-1.0
1701961453.127638,2.0,-9.0,6.0,-2.0,-2.0,3.0,3.0,0.0
1701961453.127638,-18.0,2.0,-1.0,11.0,2.0,-1.0,3.0,-2.0
1701961453.127638,-9.0,11.0,15.0,12.0,2.0,0.0,0.0,-5.0
1701961453.127638,17.0,6.0,3.0,-12.0,-6.0,-5.0,-2.0,1.0
1701961453.127638,-2.0,8.0,-4.0,0.0,1.0,4.0,-2.0,0.0
1701961453.127638,7.0,4.0,30.0,5.0,-3.0,-4.0,-2.0,1.0
1701961453.147648,-6.0,-2.0,-23.0,-10.0,2.0,-3.0,-3.0,-2.0
1701961453.147648,-9.0,7.0,-5.0,-2.0,-2.0,3.0,0.0,-3.0
1701961453.147648,2.0,-5.0,-4.0,-4.0,-2.0,-3.0,-2.0,-1.0
1701961453.147648,8.0,7.0,-2.0,-1.0,0.0,-3.0,-1.0,1.0
1701961453.1876392,9.0,2.0,19.0,8.0,2.0,-2.0,-1.0,-1.0
1701961453.1876392,-7.0,-11.0,-5.0,-10.0,0.0,-3.0,-2.0,-1.0
1701961453.1876392,-7.0,-28.0,-14.0,16.0,2.0,0.0,1.0,0.0
1701961453.1876392,-8.0,3.0,9.0,-1.0,1.0,-1.0,1.0,-1.0
1701961453.1876392,9.0,17.0,-1.0,-6.0,-9.0,-7.0,-5.0,0.0
1701961453.1876392,-18.0,12.0,15.0,-27.0,-3.0,4.0,2.0,-2.0
1701961453.1876392,1.0,8.0,3.0,37.0,10.0,0.0,-2.0,-2.0
1701961453.1876392,6.0,2.0,0.0,0.0,-3.0,-1.0,-2.0,0.0
1701961453.2079458,12.0,8.0,6.0,-23.0,-8.0,0.0,1.0,3.0
1701961453.2079458,-5.0,-16.0,-43.0,-4.0,1.0,-4.0,-4.0,-3.0
1701961453.2079458,-4.0,2.0,10.0,-4.0,-9.0,-3.0,-3.0,-4.0
1701961453.2079458,-2.0,20.0,-1.0,-15.0,0.0,2.0,4.0,2.0
1701961453.2276375,-12.0,-21.0,2.0,8.0,0.0,-2.0,-1.0,-3.0
1701961453.2276375,11.0,10.0,4.0,-28.0,-15.0,-4.0,0.0,2.0
1701961453.2276375,-7.0,-5.0,-18.0,21.0,12.0,4.0,-1.0,-3.0
1701961453.2276375,15.0,-17.0,-10.0,3.0,-1.0,-3.0,-1.0,-3.0
1701961453.2479832,-6.0,-5.0,-7.0,-8.0,-5.0,-3.0,0.0,-2.0
1701961453.2479832,21.0,-12.0,2.0,12.0,-1.0,-4.0,-4.0,0.0
1701961453.2479832,1.0,-6.0,-5.0,-11.0,-5.0,-1.0,-2.0,-1.0
1701961453.2479832,-4.0,-3.0,-2.0,-13.0,-4.0,-3.0,-1.0,-2.0
1701961453.277638,11.0,1.0,14.0,4.0,2.0,-3.0,-2.0,-1.0
1701961453.277638,2.0,-4.0,-18.0,-6.0,-3.0,-3.0,-4.0,-4.0
1701961453.277638,11.0,-15.0,-21.0,-22.0,-13.0,-9.0,-4.0,3.0
1701961453.277638,-17.0,26.0,10.0,7.0,10.0,11.0,7.0,0.0
1701961453.2876496,-3.0,-13.0,-3.0,14.0,1.0,2.0,-1.0,-1.0
1701961453.2876496,-2.0,-21.0,-5.0,3.0,-1.0,-4.0,-2.0,-1.0
1701961453.2876496,2.0,27.0,13.0,-7.0,-1.0,-1.0,-1.0,-3.0
1701961453.2876496,3.0,-26.0,2.0,-10.0,-7.0,-5.0,-5.0,-4.0
1701961453.3080187,-4.0,1.0,17.0,11.0,1.0,4.0,2.0,-1.0
1701961453.3080187,-5.0,-2.0,-23.0,-5.0,9.0,2.0,0.0,0.0
1701961453.3080187,-8.0,-14.0,3.0,5.0,5.0,-3.0,-3.0,-4.0
1701961453.3080187,-3.0,-6.0,-15.0,3.0,-2.0,-4.0,0.0,-4.0
1701961453.3376372,-2.0,-8.0,-2.0,-7.0,-6.0,-2.0,-1.0,8.0
1701961453.3376372,6.0,6.0,27.0,6.0,-1.0,0.0,-4.0,-5.0
1701961453.3376372,-6.0,-11.0,3.0,1.0,0.0,1.0,1.0,-2.0
1701961453.3376372,-7.0,11.0,-9.0,-12.0,0.0,-2.0,3.0,1.0
1701961453.347636,3.0,17.0,37.0,13.0,7.0,7.0,3.0,0.0
1701961453.347636,-5.0,-21.0,-46.0,-1.0,-6.0,-2.0,-2.0,1.0
1701961453.347636,6.0,-9.0,-7.0,-20.0,-5.0,-1.0,2.0,6.0
1701961453.347636,8.0,22.0,14.0,6.0,-5.0,0.0,-4.0,0.0
1701961453.3680193,-2.0,-14.0,-7.0,-2.0,2.0,0.0,0.0,-1.0
1701961453.3680193,-3.0,1.0,9.0,6.0,2.0,-5.0,-1.0,-1.0
1701961453.3680193,-3.0,4.0,3.0,-4.0,3.0,7.0,1.0,-5.0
1701961453.3680193,-2.0,-8.0,-7.0,-1.0,-2.0,-16.0,-10.0,-7.0
1701961453.3976371,-10.0,-4.0,-25.0,-10.0,-5.0,-5.0,4.0,4.0
1701961453.3976371,9.0,16.0,28.0,21.0,12.0,51.0,5.0,9.0
1701961453.3976371,-15.0,-1.0,-3.0,-13.0,-17.0,-34.0,-13.0,-13.0
1701961453.3976371,23.0,-24.0,-20.0,-16.0,-13.0,-5.0,14.0,10.0
1701961453.4079318,3.0,37.0,-21.0,-10.0,-9.0,-20.0,-25.0,-11.0
1701961453.4079318,6.0,13.0,45.0,17.0,0.0,-14.0,6.0,-8.0
1701961453.4079318,-1.0,-13.0,-26.0,-17.0,-5.0,-12.0,-5.0,7.0
1701961453.4079318,-7.0,0.0,8.0,10.0,2.0,31.0,6.0,4.0
1701961453.4280095,15.0,-11.0,-6.0,-3.0,-1.0,-8.0,-1.0,-7.0
1701961453.4280095,-37.0,-6.0,7.0,4.0,-1.0,-5.0,-4.0,-6.0
1701961453.4280095,11.0,34.0,24.0,2.0,0.0,6.0,-2.0,-2.0
1701961453.4280095,-2.0,-6.0,-2.0,-3.0,-2.0,-19.0,-6.0,0.0
1701961453.4576373,-1.0,-10.0,2.0,9.0,0.0,5.0,0.0,-4.0
1701961453.4576373,-6.0,-2.0,-10.0,-33.0,-15.0,-38.0,-6.0,-3.0
1701961453.4576373,11.0,-19.0,-5.0,6.0,1.0,21.0,9.0,2.0
1701961453.4576373,2.0,21.0,12.0,4.0,5.0,68.0,9.0,6.0
1701961453.4678032,5.0,-19.0,-20.0,-10.0,0.0,14.0,7.0,3.0
1701961453.4678032,9.0,14.0,-4.0,13.0,1.0,-8.0,-2.0,4.0
1701961453.4678032,-29.0,21.0,11.0,1.0,3.0,-13.0,6.0,2.0
1701961453.4678032,-8.0,7.0,20.0,15.0,3.0,-27.0,-11.0,0.0
1701961453.4879005,-3.0,-17.0,-48.0,-18.0,0.0,20.0,-1.0,-3.0
1701961453.4879005,-4.0,-10.0,-2.0,2.0,-2.0,1.0,4.0,-1.0
1701961453.5090892,5.0,3.0,15.0,-13.0,-12.0,2.0,-4.0,0.0
1701961453.512089,-4.0,-15.0,-77.0,10.0,37.0,4.0,4.0,0.0
1701961453.526683,-22.0,1.0,37.0,25.0,2.0,-9.0,0.0,-9.0
1701961453.526683,5.0,6.0,-2.0,-2.0,0.0,-3.0,-2.0,8.0
1701961453.526683,7.0,-12.0,0.0,-14.0,4.0,7.0,-12.0,-27.0
1701961453.526683,-14.0,-29.0,-11.0,-12.0,-22.0,-43.0,-21.0,-37.0
1701961453.526683,6.0,-2.0,-12.0,-7.0,0.0,21.0,28.0,65.0
1701961453.526683,12.0,1.0,9.0,25.0,11.0,33.0,23.0,4.0
1701961453.5286837,-5.0,-8.0,1.0,-12.0,-5.0,-3.0,-12.0,-19.0
1701961453.5286837,-12.0,33.0,41.0,8.0,1.0,11.0,8.0,0.0
1701961453.5408578,-10.0,1.0,-30.0,6.0,-2.0,-31.0,-12.0,-27.0
1701961453.5408578,-2.0,-5.0,9.0,-27.0,-14.0,-48.0,-28.0,-9.0
1701961453.5506127,3.0,0.0,1.0,14.0,13.0,80.0,35.0,29.0
1701961453.5506127,0.0,-15.0,0.0,-5.0,-7.0,-21.0,0.0,0.0
1701961453.5604944,-4.0,1.0,6.0,-3.0,-6.0,-34.0,-28.0,-13.0
1701961453.5604944,-6.0,6.0,12.0,2.0,-1.0,2.0,-4.0,0.0
1701961453.5604944,8.0,-7.0,-19.0,9.0,10.0,26.0,3.0,-1.0
1701961453.5604944,0.0,-8.0,-33.0,-40.0,-18.0,-15.0,1.0,-2.0
1701961453.5805216,3.0,3.0,21.0,17.0,6.0,-2.0,5.0,3.0
1701961453.5805216,23.0,-22.0,-6.0,0.0,-4.0,-35.0,-11.0,-10.0
1701961453.5805216,-10.0,6.0,11.0,11.0,-1.0,-20.0,-9.0,1.0
1701961453.5805216,15.0,-11.0,-4.0,-12.0,-8.0,22.0,6.0,7.0
1701961453.600758,0.0,-4.0,7.0,-6.0,-3.0,-18.0,-6.0,-7.0
1701961453.600758,0.0,3.0,-5.0,7.0,4.0,5.0,8.0,33.0
1701961453.6105652,3.0,-5.0,-12.0,-13.0,-6.0,-12.0,-4.0,-31.0
1701961453.6105652,9.0,21.0,32.0,32.0,5.0,-5.0,-9.0,30.0
1701961453.6404948,-18.0,-13.0,-35.0,-31.0,-2.0,12.0,12.0,3.0
1701961453.6404948,9.0,-3.0,-7.0,-2.0,-1.0,10.0,9.0,33.0
1701961453.6404948,-10.0,-3.0,4.0,2.0,-2.0,-21.0,-23.0,-49.0
1701961453.6404948,-6.0,-12.0,-3.0,4.0,1.0,-8.0,-3.0,6.0
1701961453.6404948,-2.0,13.0,29.0,19.0,16.0,-5.0,31.0,0.0
1701961453.6404948,-8.0,-8.0,-23.0,-11.0,1.0,89.0,-7.0,-34.0
1701961453.6404948,-6.0,9.0,-3.0,-4.0,-3.0,-35.0,0.0,33.0
1701961453.6404948,2.0,9.0,15.0,4.0,-2.0,-2.0,-7.0,-13.0
1701961453.6804984,10.0,0.0,0.0,-6.0,-6.0,-8.0,-9.0,-6.0
1701961453.6804984,-10.0,3.0,10.0,2.0,-1.0,-10.0,9.0,-1.0
1701961453.6804984,0.0,-4.0,-7.0,-2.0,-6.0,-23.0,-7.0,8.0
1701961453.6804984,-2.0,-5.0,7.0,-3.0,-5.0,-3.0,-9.0,-12.0
1701961453.6804984,7.0,-1.0,-12.0,-4.0,-5.0,15.0,-2.0,8.0
1701961453.6804984,1.0,10.0,-11.0,-4.0,1.0,-11.0,-4.0,-8.0
1701961453.6804984,-10.0,3.0,15.0,4.0,0.0,0.0,-1.0,6.0
1701961453.6804984,0.0,-5.0,-19.0,-12.0,-4.0,2.0,8.0,3.0
1701961453.7006588,-5.0,-9.0,-13.0,5.0,3.0,11.0,-4.0,-8.0
1701961453.7006588,0.0,1.0,12.0,9.0,5.0,-14.0,-5.0,-9.0
1701961453.7006588,9.0,0.0,-1.0,-4.0,0.0,-1.0,7.0,10.0
1701961453.7006588,-1.0,-6.0,5.0,-3.0,-2.0,-1.0,4.0,-1.0
1701961453.7204947,3.0,5.0,4.0,0.0,-8.0,-20.0,-8.0,-3.0
1701961453.7204947,-5.0,2.0,-8.0,-11.0,0.0,27.0,3.0,-12.0
1701961453.7304938,11.0,-8.0,-11.0,3.0,-3.0,-14.0,4.0,10.0
1701961453.7304938,-10.0,3.0,21.0,8.0,6.0,29.0,0.0,-5.0
1701961453.740495,-3.0,-8.0,-29.0,-24.0,-11.0,-1.0,3.0,-3.0
1701961453.740495,-4.0,0.0,33.0,22.0,15.0,-14.0,0.0,0.0
1701961453.7508142,8.0,-8.0,-35.0,-26.0,-16.0,-4.0,-7.0,-3.0
1701961453.7508142,5.0,11.0,0.0,18.0,9.0,-22.0,-5.0,-1.0
1701961453.7606714,-5.0,0.0,16.0,-6.0,-1.0,1.0,-6.0,-5.0
1701961453.7606714,-2.0,-8.0,60.0,20.0,-13.0,0.0,-2.0,-5.0
1701961453.7606714,11.0,-12.0,-51.0,-13.0,21.0,-7.0,0.0,6.0
1701961453.7606714,-8.0,9.0,29.0,25.0,1.0,-2.0,-7.0,-5.0
1701961453.790496,13.0,-6.0,-16.0,-1.0,-3.0,13.0,-3.0,2.0
1701961453.790496,-4.0,6.0,-32.0,-30.0,-8.0,-12.0,0.0,-2.0
1701961453.790496,3.0,-11.0,-9.0,12.0,1.0,4.0,0.0,4.0
1701961453.790496,1.0,-12.0,-8.0,-14.0,-5.0,-2.0,3.0,-2.0
1701961453.8006866,-2.0,-5.0,13.0,2.0,3.0,7.0,-2.0,3.0
1701961453.8006866,-7.0,-2.0,-11.0,-8.0,-9.0,-17.0,-7.0,-8.0
1701961453.8106937,-7.0,4.0,24.0,10.0,1.0,7.0,7.0,4.0
1701961453.8106937,-8.0,0.0,-5.0,-10.0,1.0,4.0,5.0,1.0
1701961453.8205717,-6.0,4.0,14.0,9.0,-1.0,-7.0,-9.0,-9.0
1701961453.8205717,0.0,-3.0,-27.0,-8.0,2.0,-1.0,3.0,-2.0
1701961453.8307493,-9.0,3.0,5.0,-4.0,-4.0,2.0,-5.0,2.0
1701961453.8307493,6.0,-7.0,-14.0,1.0,-1.0,-6.0,-6.0,-2.0
1701961453.860497,-4.0,3.0,57.0,18.0,1.0,3.0,-1.0,-5.0
1701961453.860497,-10.0,-8.0,-61.0,-24.0,-4.0,-4.0,0.0,1.0
1701961453.8704932,-3.0,8.0,47.0,5.0,4.0,3.0,-1.0,-6.0
1701961453.8704932,9.0,-11.0,13.0,5.0,-6.0,-9.0,1.0,3.0
1701961453.8704932,8.0,-9.0,-24.0,-8.0,-4.0,-25.0,-21.0,-6.0
1701961453.8704932,8.0,1.0,-1.0,4.0,-1.0,22.0,1.0,-1.0
1701961453.8704932,2.0,6.0,5.0,-1.0,1.0,-3.0,6.0,6.0
1701961453.8704932,-3.0,-4.0,-1.0,-9.0,-6.0,0.0,-17.0,-40.0
1701961453.8904955,6.0,-2.0,-19.0,2.0,1.0,-37.0,-8.0,-26.0
1701961453.8904955,13.0,-27.0,2.0,5.0,2.0,25.0,14.0,37.0
1701961453.8904955,-4.0,8.0,-29.0,-9.0,-2.0,39.0,6.0,-5.0
1701961453.8904955,9.0,-13.0,-8.0,-16.0,0.0,3.0,12.0,5.0
1701961453.9005277,-11.0,33.0,56.0,24.0,-1.0,-19.0,-13.0,-24.0
1701961453.9005277,-14.0,7.0,-19.0,-21.0,-12.0,-47.0,1.0,-11.0
1701961453.910637,-5.0,-12.0,39.0,25.0,16.0,50.0,23.0,5.0
1701961453.910637,4.0,-15.0,-53.0,-11.0,1.0,-8.0,-2.0,17.0
1701961453.9208508,-15.0,21.0,-8.0,-6.0,-2.0,9.0,-2.0,-8.0
1701961453.9208508,1.0,13.0,25.0,10.0,1.0,-45.0,-12.0,-4.0
1701961453.930497,-4.0,0.0,24.0,5.0,-3.0,7.0,-1.0,10.0
1701961453.930497,4.0,26.0,17.0,6.0,1.0,-3.0,-6.0,-3.0
1701961453.9408236,5.0,-36.0,-41.0,-15.0,-1.0,3.0,6.0,13.0
1701961453.9408236,-6.0,13.0,-12.0,1.0,0.0,10.0,-6.0,-5.0
1701961453.9505026,-2.0,6.0,-6.0,-5.0,-11.0,-21.0,-5.0,-7.0
1701961453.9505026,1.0,1.0,17.0,-12.0,-4.0,-1.0,-3.0,2.0
1701961453.9604986,-8.0,-14.0,-4.0,16.0,5.0,6.0,8.0,10.0
1701961453.9604986,-25.0,-5.0,-26.0,-12.0,-2.0,15.0,4.0,-2.0
1701961453.9704938,0.0,-5.0,1.0,5.0,4.0,-9.0,-7.0,-5.0
1701961453.9704938,4.0,-3.0,2.0,-6.0,-6.0,-13.0,3.0,4.0
1701961453.9807403,-11.0,6.0,0.0,6.0,9.0,22.0,10.0,11.0
1701961453.9807403,8.0,3.0,22.0,10.0,5.0,6.0,-1.0,-5.0
1701961453.9906983,1.0,-3.0,-12.0,-12.0,-14.0,-25.0,-6.0,-3.0
1701961453.9906983,-21.0,5.0,3.0,9.0,10.0,6.0,1.0,3.0
1701961454.032917,4.0,13.0,6.0,-8.0,-4.0,13.0,6.0,3.0
1701961454.032917,-4.0,-15.0,-20.0,5.0,0.0,2.0,-4.0,-6.0
1701961454.0339146,-3.0,8.0,-5.0,-9.0,-4.0,-15.0,-6.0,0.0
1701961454.0339146,7.0,-8.0,2.0,-3.0,-2.0,5.0,2.0,3.0
1701961454.0339146,-2.0,-12.0,-9.0,-30.0,-14.0,4.0,-2.0,-1.0
1701961454.0339146,-6.0,1.0,19.0,36.0,19.0,-3.0,0.0,0.0
1701961454.0339146,3.0,-6.0,-8.0,2.0,-2.0,-7.0,-2.0,4.0
1701961454.0339146,-4.0,-16.0,-15.0,-11.0,-4.0,2.0,-1.0,-2.0
1701961454.0465739,2.0,0.0,6.0,5.0,3.0,-1.0,2.0,2.0
1701961454.0465739,7.0,2.0,8.0,-13.0,-1.0,2.0,-1.0,-3.0
1701961454.0529706,6.0,-20.0,-23.0,-6.0,-6.0,-10.0,-3.0,-4.0
1701961454.0539978,-13.0,16.0,12.0,11.0,2.0,6.0,0.0,1.0
1701961454.0836947,6.0,4.0,8.0,-4.0,-2.0,5.0,3.0,4.0
1701961454.0836947,-18.0,-1.0,-4.0,-2.0,2.0,2.0,1.0,-2.0
1701961454.0836947,2.0,4.0,2.0,3.0,-6.0,-11.0,-4.0,-2.0
1701961454.0836947,17.0,-1.0,-3.0,-10.0,1.0,-5.0,0.0,2.0
1701961454.0836947,-6.0,-4.0,1.0,7.0,-4.0,3.0,0.0,3.0
1701961454.0836947,-9.0,-1.0,9.0,-8.0,-8.0,-2.0,-4.0,-5.0
1701961454.0836947,-6.0,-2.0,0.0,3.0,1.0,0.0,3.0,-1.0
1701961454.0836947,-1.0,0.0,-6.0,-3.0,1.0,1.0,-1.0,-4.0
1701961454.1036947,7.0,5.0,-2.0,0.0,5.0,7.0,3.0,2.0
1701961454.1036947,5.0,-14.0,5.0,1.0,-4.0,-4.0,-2.0,-1.0
1701961454.113696,2.0,23.0,-7.0,-4.0,-2.0,-2.0,-3.0,-1.0
1701961454.113696,-6.0,-5.0,9.0,6.0,-4.0,-6.0,-3.0,-3.0
1701961454.123694,2.0,-11.0,-11.0,-2.0,-1.0,0.0,0.0,0.0
1701961454.123694,12.0,-2.0,4.0,-4.0,-5.0,-7.0,-5.0,1.0
1701961454.123694,-2.0,-3.0,-1.0,0.0,4.0,6.0,0.0,1.0
1701961454.123694,-8.0,-1.0,-3.0,5.0,2.0,-3.0,-2.0,-1.0
1701961454.1437488,-2.0,0.0,3.0,-3.0,-1.0,-8.0,-6.0,-2.0
1701961454.1437488,6.0,0.0,4.0,3.0,-4.0,8.0,-3.0,-1.0
1701961454.1437488,-2.0,5.0,4.0,-6.0,0.0,-4.0,-3.0,-3.0
1701961454.1437488,0.0,-5.0,-17.0,-5.0,-3.0,-2.0,-1.0,1.0
1701961454.1640594,4.0,0.0,1.0,2.0,0.0,-5.0,1.0,2.0
1701961454.1640594,8.0,-13.0,-5.0,4.0,0.0,-2.0,1.0,-4.0
1701961454.1736963,-3.0,-5.0,14.0,-1.0,-5.0,-2.0,-2.0,-2.0
1701961454.1736963,-3.0,2.0,-22.0,3.0,-1.0,-1.0,-2.0,0.0
1701961454.183726,-5.0,-16.0,22.0,-3.0,-3.0,0.0,-2.0,0.0
1701961454.183726,6.0,30.0,7.0,4.0,2.0,1.0,0.0,-1.0
1701961454.183726,1.0,-17.0,-26.0,-13.0,-2.0,-7.0,-5.0,-1.0
1701961454.183726,-2.0,15.0,9.0,1.0,1.0,1.0,2.0,-2.0
1701961454.2037556,4.0,-9.0,-20.0,-4.0,-2.0,1.0,-2.0,1.0
1701961454.2037556,-1.0,8.0,11.0,1.0,3.0,5.0,4.0,2.0
1701961454.2037556,-3.0,-10.0,10.0,3.0,0.0,-6.0,-3.0,-1.0
1701961454.2037556,-3.0,13.0,12.0,2.0,-3.0,-5.0,-3.0,-3.0
1701961454.2240767,-8.0,-22.0,-14.0,-5.0,-5.0,-2.0,-2.0,-5.0
1701961454.2240767,-6.0,9.0,11.0,-1.0,-4.0,-5.0,-2.0,-2.0
1701961454.2340946,-3.0,3.0,-17.0,-3.0,2.0,2.0,3.0,1.0
1701961454.2340946,1.0,1.0,-3.0,0.0,0.0,-1.0,0.0,3.0
1701961454.2441163,-22.0,12.0,-6.0,4.0,10.0,5.0,1.0,-2.0
1701961454.2441163,-5.0,-5.0,0.0,-8.0,-8.0,-6.0,0.0,2.0
1701961454.2441163,8.0,23.0,1.0,-1.0,1.0,0.0,0.0,2.0
1701961454.2441163,-3.0,-13.0,23.0,18.0,5.0,1.0,-1.0,-4.0
1701961454.2640924,3.0,-9.0,-8.0,-8.0,-1.0,0.0,0.0,-1.0
1701961454.2640924,37.0,-10.0,-16.0,-7.0,-6.0,-5.0,-2.0,2.0
1701961454.2640924,-10.0,6.0,10.0,5.0,4.0,1.0,0.0,-2.0
1701961454.2640924,-7.0,2.0,3.0,-18.0,-10.0,-2.0,-5.0,-3.0
1701961454.2845073,5.0,8.0,3.0,4.0,-2.0,-3.0,0.0,-1.0
1701961454.2845073,0.0,-18.0,-7.0,3.0,-1.0,-7.0,-8.0,-3.0
1701961454.2940922,0.0,-13.0,-9.0,-6.0,-3.0,-1.0,2.0,1.0
1701961454.2940922,0.0,-9.0,-6.0,-6.0,-6.0,-20.0,-4.0,-1.0
1701961454.3041165,1.0,0.0,-1.0,4.0,0.0,21.0,7.0,-1.0
1701961454.3041165,-8.0,16.0,-1.0,-7.0,0.0,-14.0,-4.0,-1.0
1701961454.3041165,-5.0,-11.0,31.0,9.0,3.0,15.0,-2.0,7.0
1701961454.3041165,-13.0,4.0,-11.0,0.0,3.0,8.0,-1.0,-1.0
1701961454.3240929,-8.0,22.0,-13.0,-15.0,-4.0,-16.0,-5.0,-1.0
1701961454.3240929,-22.0,-12.0,34.0,21.0,4.0,-1.0,3.0,-1.0
1701961454.3240929,-8.0,4.0,-9.0,-1.0,-2.0,-11.0,-6.0,-14.0
1701961454.3240929,24.0,-27.0,-26.0,-7.0,-1.0,-5.0,-1.0,0.0
1701961454.3440907,8.0,6.0,6.0,0.0,-1.0,1.0,8.0,-2.0
1701961454.3440907,-4.0,-8.0,-43.0,-21.0,0.0,-15.0,7.0,11.0
1701961454.3440907,-6.0,5.0,38.0,11.0,-7.0,12.0,-26.0,-15.0
1701961454.3440907,4.0,1.0,11.0,0.0,-3.0,6.0,-15.0,-3.0
1701961454.3644016,-7.0,-3.0,-3.0,0.0,3.0,0.0,21.0,25.0
1701961454.3644016,-1.0,2.0,0.0,2.0,11.0,49.0,12.0,0.0
1701961454.3644016,1.0,-10.0,-14.0,8.0,3.0,-16.0,10.0,-4.0
1701961454.3644016,-14.0,2.0,-11.0,-22.0,-8.0,-14.0,-31.0,-12.0
1701961454.3844066,7.0,-1.0,7.0,-6.0,-4.0,-11.0,-2.0,-8.0
1701961454.3844066,-18.0,-13.0,-11.0,-11.0,-2.0,14.0,2.0,20.0
1701961454.4040964,7.0,3.0,8.0,12.0,1.0,5.0,-1.0,-3.0
1701961454.4040964,-1.0,8.0,15.0,14.0,3.0,1.0,18.0,5.0
1701961454.4240901,3.0,-3.0,-5.0,-7.0,-6.0,-14.0,-21.0,-17.0
1701961454.4240901,-1.0,4.0,6.0,-1.0,-6.0,-5.0,6.0,-5.0
1701961454.4240901,-3.0,-3.0,-6.0,1.0,2.0,-14.0,1.0,1.0
1701961454.4240901,-6.0,3.0,-7.0,-5.0,0.0,6.0,6.0,2.0
1701961454.434481,15.0,-10.0,11.0,19.0,1.0,-5.0,-13.0,-12.0
1701961454.434481,5.0,15.0,7.0,-12.0,-4.0,6.0,3.0,5.0
1701961454.434481,-18.0,-32.0,-53.0,-33.0,-7.0,-12.0,-19.0,-53.0
1701961454.434481,8.0,23.0,36.0,13.0,-2.0,-27.0,-3.0,18.0
1701961454.4448466,-15.0,-18.0,-4.0,0.0,-2.0,37.0,-5.0,-4.0
1701961454.4448466,1.0,-11.0,-18.0,2.0,-2.0,-10.0,-5.0,9.0
1701961454.4644926,2.0,3.0,24.0,24.0,11.0,41.0,25.0,-3.0
1701961454.4644926,-14.0,1.0,-4.0,-25.0,-6.0,-6.0,6.0,0.0
1701961454.4644926,-17.0,-17.0,-8.0,-8.0,-8.0,-34.0,-20.0,-5.0
1701961454.4644926,9.0,-10.0,-14.0,-3.0,0.0,-24.0,-9.0,-12.0
1701961454.474493,-14.0,17.0,-7.0,-20.0,-2.0,64.0,32.0,42.0
1701961454.474493,4.0,-11.0,26.0,25.0,7.0,5.0,-3.0,-10.0
1701961454.4947867,-3.0,40.0,42.0,-25.0,-5.0,-19.0,2.0,15.0
1701961454.4947867,-5.0,-20.0,0.0,19.0,0.0,-22.0,-11.0,-20.0
1701961454.4947867,1.0,2.0,-36.0,-26.0,-8.0,-18.0,5.0,39.0
1701961454.4947867,-5.0,-4.0,18.0,8.0,3.0,12.0,6.0,-11.0
1701961454.5044947,-12.0,31.0,49.0,24.0,9.0,4.0,5.0,6.0
1701961454.5044947,-8.0,-4.0,21.0,-6.0,-8.0,5.0,-3.0,-10.0
1701961454.514526,-2.0,-2.0,17.0,4.0,0.0,-17.0,-8.0,-5.0
1701961454.514526,-2.0,-14.0,-33.0,-4.0,-3.0,7.0,8.0,4.0
1701961454.534553,13.0,18.0,54.0,32.0,11.0,-23.0,3.0,-1.0
1701961454.534553,-10.0,-14.0,-37.0,-50.0,-21.0,29.0,-14.0,-1.0
1701961454.534553,14.0,0.0,30.0,21.0,2.0,-54.0,-31.0,-17.0
1701961454.534553,2.0,-9.0,-21.0,-25.0,-5.0,51.0,19.0,-4.0
1701961454.5564432,5.0,-17.0,-25.0,-4.0,0.0,31.0,3.0,-25.0
1701961454.5564432,-29.0,29.0,18.0,25.0,4.0,-72.0,-8.0,-3.0
1701961454.5583518,-6.0,-1.0,3.0,-6.0,-3.0,-7.0,-4.0,-26.0
1701961454.5583518,-1.0,-40.0,-62.0,-25.0,1.0,-35.0,-3.0,-10.0
1701961454.57987,5.0,17.0,27.0,-4.0,-5.0,46.0,1.0,4.0
1701961454.57987,7.0,7.0,38.0,15.0,11.0,13.0,16.0,-12.0
1701961454.57987,2.0,-17.0,-39.0,-1.0,-10.0,-74.0,-38.0,8.0
1701961454.57987,-5.0,-21.0,-31.0,24.0,17.0,41.0,18.0,-11.0
1701961454.590183,-15.0,-48.0,-105.0,-35.0,-8.0,-1.0,0.0,-18.0
1701961454.590183,24.0,-9.0,-11.0,-4.0,10.0,17.0,9.0,39.0
1701961454.590183,-5.0,25.0,45.0,9.0,-3.0,1.0,10.0,4.0
1701961454.590183,-41.0,0.0,8.0,-3.0,-12.0,-45.0,-22.0,-19.0
1701961454.6102498,-6.0,-19.0,-19.0,-8.0,-10.0,-8.0,-16.0,-18.0
1701961454.6102498,23.0,21.0,15.0,10.0,8.0,16.0,18.0,18.0
1701961454.6102498,15.0,5.0,-35.0,-3.0,10.0,15.0,18.0,11.0
1701961454.6102498,-11.0,6.0,48.0,-8.0,-7.0,1.0,-7.0,8.0
1701961454.630265,-15.0,-13.0,16.0,5.0,-11.0,-35.0,-10.0,-9.0
1701961454.630265,-1.0,-4.0,-62.0,-13.0,3.0,15.0,-6.0,-13.0
1701961454.630265,8.0,-20.0,-26.0,3.0,1.0,8.0,0.0,-2.0
1701961454.6402733,10.0,15.0,36.0,16.0,-8.0,-19.0,-10.0,6.0
1701961454.6505785,9.0,1.0,28.0,27.0,8.0,7.0,12.0,14.0
1701961454.6505785,6.0,12.0,25.0,-9.0,-10.0,-21.0,-12.0,-14.0
1701961454.6505785,2.0,11.0,2.0,-31.0,-9.0,-21.0,5.0,14.0
1701961454.6505785,5.0,-5.0,-53.0,-6.0,2.0,60.0,12.0,0.0
1701961454.6705167,5.0,15.0,1.0,-5.0,12.0,0.0,6.0,8.0
1701961454.6705167,-12.0,-2.0,36.0,48.0,-5.0,-8.0,-10.0,-11.0
1701961454.6705167,-2.0,-3.0,3.0,-22.0,-9.0,-13.0,-8.0,-6.0
1701961454.6705167,10.0,13.0,15.0,5.0,-1.0,-19.0,2.0,6.0
1701961454.6905577,1.0,1.0,-18.0,5.0,5.0,0.0,4.0,10.0
1701961454.6905577,-2.0,-8.0,-8.0,3.0,4.0,5.0,-2.0,-4.0
1701961454.7202628,0.0,3.0,-9.0,-20.0,-4.0,9.0,3.0,-2.0
1701961454.7202628,-7.0,7.0,21.0,13.0,3.0,-6.0,-2.0,-2.0
1701961454.7202628,6.0,-6.0,-19.0,-39.0,2.0,9.0,6.0,8.0
1701961454.7202628,1.0,-1.0,-18.0,28.0,14.0,-7.0,-8.0,-7.0
1701961454.7202628,-14.0,8.0,55.0,26.0,-7.0,7.0,0.0,-4.0
1701961454.7202628,-6.0,8.0,14.0,15.0,16.0,3.0,-2.0,1.0
1701961454.7302628,-1.0,-6.0,9.0,11.0,-9.0,-13.0,-5.0,-1.0
1701961454.7302628,-7.0,13.0,9.0,-44.0,-14.0,-4.0,1.0,-2.0
1701961454.7302628,1.0,-10.0,2.0,8.0,5.0,15.0,5.0,3.0
1701961454.7302628,10.0,2.0,-8.0,-29.0,-19.0,-12.0,-5.0,2.0
1701961454.7506506,0.0,1.0,5.0,31.0,12.0,-2.0,1.0,3.0
1701961454.7506506,-4.0,-5.0,-6.0,1.0,-2.0,-1.0,-2.0,-4.0
1701961454.7506506,-16.0,-2.0,-6.0,23.0,9.0,13.0,2.0,1.0
1701961454.7506506,-9.0,2.0,18.0,-20.0,-11.0,-17.0,-7.0,-1.0
1701961454.770601,-3.0,-6.0,-4.0,-6.0,-7.0,-7.0,-4.0,1.0
1701961454.770601,-17.0,8.0,19.0,8.0,-4.0,0.0,5.0,-3.0
1701961454.770601,-9.0,-20.0,-20.0,-34.0,-9.0,-9.0,-9.0,-4.0
1701961454.770601,9.0,0.0,9.0,15.0,7.0,-11.0,-4.0,-3.0
1701961454.7902656,15.0,7.0,-11.0,-19.0,-9.0,-8.0,-9.0,7.0
1701961454.7902656,11.0,-3.0,8.0,9.0,5.0,5.0,8.0,1.0
1701961454.7902656,10.0,2.0,-20.0,-9.0,0.0,35.0,19.0,-3.0
1701961454.7902656,-1.0,14.0,-2.0,1.0,5.0,-5.0,2.0,10.0
1701961454.8104916,3.0,-3.0,-31.0,-6.0,-6.0,-30.0,-10.0,-2.0
1701961454.8104916,3.0,-10.0,17.0,-3.0,-10.0,-60.0,-26.0,-31.0
1701961454.8202772,3.0,-9.0,-2.0,3.0,-4.0,15.0,-26.0,7.0
1701961454.8202772,15.0,-9.0,-24.0,-2.0,3.0,21.0,24.0,15.0
1701961454.8402736,5.0,1.0,7.0,16.0,12.0,45.0,33.0,25.0
1701961454.8402736,-2.0,1.0,-12.0,-25.0,-2.0,-26.0,-18.0,-10.0
1701961454.8402736,-7.0,-3.0,-6.0,10.0,1.0,28.0,6.0,-9.0
1701961454.8402736,2.0,-6.0,14.0,-5.0,-5.0,-31.0,-13.0,-4.0
1701961454.8602662,-6.0,-1.0,20.0,-5.0,-7.0,2.0,-7.0,-3.0
1701961454.8602662,-1.0,-16.0,-50.0,-10.0,-2.0,4.0,5.0,4.0
1701961454.8602662,3.0,-6.0,7.0,16.0,5.0,-26.0,-1.0,3.0
1701961454.8602662,-6.0,31.0,-2.0,-5.0,-7.0,8.0,-5.0,-5.0
1701961454.8702888,-3.0,-3.0,20.0,10.0,6.0,7.0,5.0,-4.0
1701961454.8702888,-1.0,-2.0,-31.0,-13.0,-2.0,6.0,-2.0,1.0
1701961454.8802648,-4.0,5.0,33.0,5.0,1.0,-9.0,-2.0,-5.0
1701961454.8802648,9.0,-20.0,-5.0,5.0,-3.0,10.0,0.0,2.0
1701961454.890627,-4.0,-2.0,-21.0,-23.0,-6.0,-18.0,-10.0,-12.0
1701961454.890627,-4.0,-3.0,18.0,16.0,4.0,19.0,6.0,6.0
1701961454.890627,11.0,2.0,-1.0,3.0,-3.0,-2.0,4.0,5.0
1701961454.890627,-8.0,-25.0,-13.0,8.0,-2.0,-10.0,-6.0,-7.0
1701961454.9106605,1.0,25.0,5.0,-16.0,-9.0,-8.0,-8.0,-7.0
1701961454.9106605,8.0,-2.0,-2.0,6.0,7.0,19.0,5.0,9.0
1701961454.9106605,-6.0,6.0,-1.0,-9.0,-6.0,-6.0,-1.0,-8.0
1701961454.9106605,-2.0,-3.0,-17.0,4.0,1.0,-7.0,-5.0,-2.0
1701961454.9302645,-11.0,-20.0,-8.0,-13.0,-4.0,-1.0,-6.0,-9.0
1701961454.9302645,1.0,11.0,38.0,12.0,2.0,15.0,3.0,3.0
1701961454.9302645,0.0,-5.0,-25.0,-11.0,-3.0,-27.0,-10.0,-2.0
1701961454.9302645,0.0,2.0,4.0,0.0,2.0,18.0,2.0,0.0
1701961454.960264,-7.0,-8.0,-8.0,30.0,-1.0,6.0,-4.0,0.0
1701961454.960264,3.0,11.0,22.0,-29.0,-5.0,-16.0,0.0,-1.0
1701961454.960264,6.0,-11.0,4.0,2.0,1.0,32.0,1.0,-5.0
1701961454.960264,-4.0,-7.0,7.0,10.0,0.0,-28.0,-6.0,-3.0
1701961454.9704602,5.0,2.0,-28.0,-39.0,-6.0,3.0,-2.0,-13.0
1701961454.9704602,-2.0,-7.0,14.0,26.0,-4.0,-4.0,-5.0,7.0
1701961454.9704602,-1.0,4.0,10.0,-7.0,-4.0,-23.0,-4.0,-2.0
1701961454.9704602,7.0,-10.0,-18.0,-13.0,0.0,8.0,-1.0,-4.0
1701961455.000275,-6.0,-11.0,7.0,11.0,3.0,-4.0,2.0,-1.0
1701961455.000275,-4.0,5.0,11.0,10.0,0.0,-4.0,-4.0,-6.0
1701961455.000275,0.0,0.0,12.0,1.0,3.0,11.0,9.0,2.0
1701961455.000275,-3.0,1.0,-12.0,0.0,1.0,0.0,-3.0,1.0
1701961455.0402663,3.0,0.0,6.0,4.0,-4.0,-20.0,8.0,0.0
1701961455.0402663,17.0,-20.0,-23.0,-19.0,0.0,-21.0,-11.0,0.0
1701961455.0402663,-30.0,24.0,20.0,27.0,8.0,9.0,1.0,-6.0
1701961455.0402663,-5.0,-16.0,-8.0,-12.0,9.0,52.0,26.0,11.0
1701961455.0402663,0.0,-12.0,-3.0,-3.0,-10.0,-37.0,-22.0,-13.0
1701961455.0402663,1.0,-4.0,-6.0,-2.0,-9.0,-21.0,-8.0,-15.0
1701961455.0402663,14.0,-5.0,-10.0,0.0,13.0,6.0,53.0,35.0
1701961455.0402663,-3.0,1.0,15.0,0.0,-6.0,-3.0,-11.0,-23.0
1701961455.0506113,7.0,3.0,-8.0,-6.0,2.0,82.0,5.0,1.0
1701961455.0506113,-24.0,8.0,5.0,7.0,3.0,4.0,-1.0,-3.0
1701961455.0602674,0.0,-7.0,-28.0,-11.0,-9.0,-32.0,-17.0,-16.0
1701961455.0602674,2.0,-2.0,-20.0,-8.0,-4.0,-15.0,8.0,13.0
1701961455.070264,17.0,6.0,23.0,26.0,4.0,-19.0,6.0,13.0
1701961455.070264,5.0,8.0,8.0,-12.0,-1.0,13.0,-1.0,-5.0
1701961455.0823095,-1.0,2.0,-4.0,-15.0,-6.0,12.0,-3.0,0.0
1701961455.0823095,-1.0,1.0,-10.0,-11.0,-4.0,6.0,-3.0,-2.0
1701961455.0955534,-5.0,10.0,38.0,52.0,5.0,-26.0,-15.0,-5.0
1701961455.0965722,-5.0,-5.0,-25.0,-31.0,-8.0,16.0,8.0,6.0
1701961455.0965722,3.0,8.0,13.0,-6.0,-3.0,-6.0,-9.0,0.0
1701961455.0965722,9.0,2.0,-10.0,11.0,-1.0,-69.0,-9.0,-1.0
1701961455.1125052,-5.0,1.0,18.0,-10.0,13.0,85.0,14.0,4.0
1701961455.1125052,-5.0,8.0,6.0,17.0,2.0,-47.0,7.0,5.0
1701961455.1125052,5.0,25.0,-13.0,-11.0,10.0,107.0,36.0,3.0
1701961455.1125052,0.0,16.0,80.0,31.0,8.0,-18.0,-19.0,-6.0
1701961455.1428883,-26.0,-33.0,-109.0,-33.0,-20.0,-39.0,-12.0,-6.0
1701961455.1428883,-20.0,19.0,33.0,19.0,0.0,12.0,9.0,5.0
1701961455.1428883,1.0,0.0,-13.0,-9.0,-3.0,-52.0,-22.0,-7.0
1701961455.1428883,5.0,7.0,4.0,-4.0,3.0,12.0,2.0,2.0
1701961455.1531558,-4.0,9.0,-4.0,-8.0,-2.0,-30.0,0.0,1.0
1701961455.1531558,7.0,-23.0,-8.0,-9.0,-3.0,28.0,-12.0,-7.0
1701961455.1531558,-4.0,-14.0,-15.0,8.0,-10.0,-37.0,-13.0,-9.0
1701961455.1531558,-8.0,-9.0,-60.0,-25.0,-2.0,23.0,-8.0,-1.0
1701961455.2028904,-1.0,-2.0,23.0,10.0,6.0,-31.0,-45.0,-7.0
1701961455.2028904,15.0,7.0,-1.0,14.0,9.0,-23.0,35.0,12.0
1701961455.2028904,2.0,-4.0,10.0,0.0,-13.0,-86.0,-41.0,-4.0
1701961455.2028904,-4.0,-7.0,-2.0,-2.0,5.0,100.0,36.0,0.0
1701961455.2028904,-3.0,-9.0,-11.0,-22.0,-22.0,-80.0,-56.0,-20.0
1701961455.2028904,0.0,12.0,-1.0,11.0,19.0,91.0,34.0,12.0
1701961455.2028904,-6.0,-1.0,-7.0,-1.0,-1.0,-39.0,-22.0,-12.0
1701961455.2028904,-11.0,1.0,-5.0,11.0,-1.0,-47.0,2.0,-1.0
1701961455.2232137,-13.0,-19.0,0.0,-1.0,-7.0,-6.0,3.0,-2.0
1701961455.2232137,31.0,28.0,10.0,-9.0,-5.0,-1.0,-8.0,-5.0
1701961455.2232137,7.0,1.0,-46.0,-7.0,-3.0,20.0,13.0,5.0
1701961455.2232137,-36.0,-33.0,-7.0,-8.0,-12.0,-23.0,-16.0,-11.0
1701961455.2428894,5.0,26.0,16.0,-7.0,8.0,39.0,34.0,8.0
1701961455.2428894,-4.0,-40.0,-27.0,-21.0,-26.0,-16.0,-24.0,-7.0
1701961455.2428894,9.0,10.0,45.0,31.0,24.0,12.0,10.0,1.0
1701961455.2428894,11.0,21.0,35.0,-14.0,-11.0,-13.0,-11.0,-2.0
1701961455.2530103,8.0,3.0,-10.0,45.0,24.0,17.0,20.0,9.0
1701961455.2530103,-14.0,4.0,11.0,37.0,9.0,-3.0,0.0,-2.0
1701961455.2530103,18.0,3.0,-13.0,-9.0,53.0,32.0,8.0,7.0
1701961455.2530103,-12.0,-21.0,20.0,37.0,-44.0,-20.0,-7.0,-5.0
1701961455.273299,17.0,32.0,-35.0,-64.0,12.0,10.0,17.0,11.0
1701961455.273299,-21.0,-20.0,-6.0,-6.0,-11.0,-9.0,-12.0,-7.0
1701961455.273299,2.0,-49.0,-10.0,-2.0,-5.0,10.0,2.0,-3.0
1701961455.273299,4.0,36.0,29.0,13.0,-5.0,-20.0,-9.0,-1.0
1701961455.3028905,-9.0,15.0,14.0,2.0,-17.0,-1.0,10.0,-3.0
1701961455.3028905,17.0,-1.0,-14.0,7.0,25.0,8.0,-1.0,4.0
1701961455.3028905,-5.0,24.0,-8.0,-21.0,-19.0,-2.0,-1.0,-2.0
1701961455.3028905,-23.0,-79.0,-8.0,1.0,16.0,1.0,0.0,-2.0
1701961455.3128881,16.0,31.0,-3.0,-15.0,-24.0,-11.0,-5.0,-2.0
1701961455.3128881,10.0,44.0,37.0,0.0,7.0,4.0,1.0,3.0
1701961455.3128881,26.0,55.0,47.0,26.0,-4.0,3.0,-1.0,1.0
1701961455.3128881,4.0,-81.0,-67.0,-25.0,4.0,3.0,2.0,6.0
1701961455.3333127,-26.0,11.0,28.0,21.0,9.0,11.0,21.0,18.0
1701961455.3333127,-39.0,-21.0,-3.0,1.0,-9.0,-10.0,-16.0,-22.0
1701961455.3333127,-6.0,-61.0,-38.0,-41.0,-17.0,-11.0,-41.0,-13.0
1701961455.3333127,7.0,7.0,-26.0,-11.0,3.0,-9.0,-16.0,-16.0
1701961455.362888,-21.0,-10.0,6.0,14.0,2.0,4.0,12.0,-8.0
1701961455.362888,-6.0,-21.0,13.0,-8.0,-7.0,-3.0,18.0,16.0
1701961455.362888,21.0,-2.0,-7.0,4.0,-14.0,-2.0,-13.0,-5.0
1701961455.362888,-20.0,27.0,14.0,-7.0,9.0,2.0,21.0,-1.0
1701961455.3728924,23.0,13.0,36.0,24.0,5.0,3.0,-8.0,0.0
1701961455.3728924,-10.0,-17.0,-54.0,-33.0,-14.0,-10.0,-3.0,1.0
1701961455.3728924,14.0,12.0,-5.0,2.0,-5.0,-5.0,17.0,20.0
1701961455.3728924,26.0,33.0,1.0,-5.0,1.0,4.0,-24.0,-21.0
1701961455.3932621,13.0,7.0,14.0,10.0,5.0,-7.0,7.0,1.0
1701961455.3932621,2.0,-13.0,-7.0,1.0,-4.0,-17.0,-35.0,-3.0
1701961455.3932621,-22.0,5.0,19.0,3.0,-5.0,-49.0,2.0,1.0
1701961455.3932621,13.0,10.0,-4.0,11.0,0.0,50.0,-9.0,2.0
1701961455.412894,-8.0,-23.0,-24.0,-19.0,3.0,-30.0,-3.0,-5.0
1701961455.412894,10.0,7.0,0.0,-6.0,1.0,2.0,86.0,43.0
1701961455.412894,-16.0,-26.0,-13.0,-2.0,-8.0,-18.0,-84.0,-43.0
1701961455.412894,2.0,24.0,17.0,-1.0,-2.0,-31.0,-9.0,-19.0
1701961455.433288,-12.0,-24.0,10.0,21.0,2.0,7.0,-20.0,-13.0
1701961455.433288,-2.0,-2.0,-15.0,-21.0,-9.0,1.0,-14.0,-9.0
1701961455.433288,-8.0,4.0,14.0,12.0,-4.0,0.0,39.0,23.0
1701961455.433288,5.0,13.0,-9.0,0.0,13.0,10.0,12.0,15.0
1701961455.4532528,7.0,-3.0,2.0,6.0,5.0,20.0,4.0,-1.0
1701961455.4532528,3.0,2.0,4.0,4.0,2.0,-10.0,1.0,0.0
1701961455.4532528,-18.0,-5.0,18.0,7.0,-10.0,16.0,13.0,-2.0
1701961455.4532528,7.0,10.0,-5.0,-20.0,-9.0,-11.0,-7.0,2.0
1701961455.4729226,6.0,-17.0,-17.0,-3.0,3.0,-3.0,12.0,7.0
1701961455.4729226,-7.0,7.0,15.0,-13.0,-10.0,-7.0,-24.0,-13.0
1701961455.4729226,-16.0,-11.0,-14.0,2.0,11.0,12.0,5.0,-3.0
1701961455.4729226,0.0,8.0,-15.0,-9.0,0.0,-7.0,11.0,11.0
1701961455.4932764,-1.0,0.0,17.0,-1.0,-5.0,-4.0,-2.0,3.0
1701961455.4932764,5.0,-24.0,-65.0,-14.0,-6.0,5.0,-16.0,-13.0
1701961455.4932764,5.0,36.0,113.0,44.0,7.0,16.0,12.0,1.0
1701961455.4932764,-24.0,-53.0,-93.0,-59.0,-19.0,-23.0,0.0,0.0
1701961455.513247,7.0,24.0,36.0,27.0,0.0,8.0,-3.0,0.0
1701961455.513247,-7.0,-15.0,-46.0,-4.0,7.0,2.0,-16.0,-14.0
1701961455.513247,4.0,0.0,-5.0,-24.0,-6.0,0.0,14.0,4.0
1701961455.513247,7.0,11.0,35.0,36.0,11.0,0.0,3.0,8.0
1701961455.532889,-2.0,-25.0,-17.0,-58.0,-28.0,-5.0,-7.0,-6.0
1701961455.532889,-6.0,32.0,34.0,15.0,2.0,1.0,-6.0,-5.0
1701961455.532889,-12.0,-11.0,-6.0,26.0,8.0,1.0,6.0,-1.0
1701961455.532889,8.0,17.0,40.0,-6.0,-9.0,-1.0,-2.0,0.0
1701961455.5528975,-6.0,-18.0,-44.0,-15.0,1.0,3.0,0.0,0.0
1701961455.5528975,8.0,11.0,18.0,4.0,2.0,-2.0,0.0,1.0
1701961455.5528975,-15.0,-14.0,-33.0,-13.0,-2.0,2.0,0.0,-2.0
1701961455.5528975,1.0,11.0,30.0,13.0,2.0,-4.0,-2.0,-3.0
1701961455.5928915,4.0,-11.0,-5.0,-4.0,-1.0,-3.0,0.0,-1.0
1701961455.5928915,8.0,-7.0,-4.0,9.0,9.0,4.0,0.0,2.0
1701961455.5928915,-10.0,9.0,5.0,2.0,-4.0,3.0,3.0,-2.0
1701961455.5928915,0.0,5.0,33.0,-9.0,3.0,-3.0,1.0,2.0
1701961455.5928915,-3.0,-9.0,-50.0,3.0,3.0,2.0,3.0,3.0
1701961455.5928915,1.0,4.0,9.0,-18.0,-13.0,-4.0,-5.0,-3.0
1701961455.5928915,8.0,-4.0,-6.0,-2.0,1.0,1.0,0.0,-3.0
1701961455.5928915,8.0,13.0,9.0,13.0,7.0,1.0,4.0,4.0
1701961455.613731,-12.0,4.0,10.0,0.0,1.0,-3.0,-2.0,-1.0
1701961455.613731,2.0,-3.0,18.0,9.0,1.0,6.0,-2.0,-3.0
1701961455.6209972,4.0,-11.0,-21.0,-13.0,-5.0,-13.0,1.0,3.0
1701961455.6209972,2.0,-1.0,-2.0,9.0,4.0,11.0,2.0,0.0
1701961455.6380098,-1.0,-4.0,0.0,-12.0,-6.0,-11.0,-7.0,-4.0
1701961455.6380098,0.0,6.0,0.0,4.0,2.0,13.0,1.0,-1.0
1701961455.6380098,-4.0,3.0,30.0,10.0,3.0,-8.0,4.0,2.0
1701961455.6380098,0.0,-29.0,-28.0,-35.0,-20.0,-24.0,-12.0,-7.0
1701961455.6558697,-40.0,-19.0,-62.0,-10.0,0.0,15.0,-13.0,3.0
1701961455.6558697,25.0,-9.0,-5.0,-11.0,-9.0,-49.0,-7.0,-3.0
1701961455.6558697,8.0,1.0,10.0,-5.0,-3.0,31.0,-12.0,-4.0
1701961455.6558697,10.0,20.0,22.0,15.0,8.0,36.0,41.0,10.0
1701961455.6658826,20.0,4.0,32.0,11.0,16.0,51.0,35.0,4.0
1701961455.6658826,2.0,-15.0,-4.0,8.0,-4.0,-22.0,10.0,15.0
1701961455.6762106,-16.0,2.0,-30.0,-23.0,-14.0,-44.0,-72.0,-49.0
1701961455.6762106,-4.0,4.0,-6.0,5.0,-3.0,-49.0,9.0,0.0
1701961455.6958826,8.0,-4.0,2.0,-8.0,3.0,60.0,-27.0,-13.0
1701961455.6958826,-18.0,19.0,14.0,6.0,-2.0,9.0,15.0,3.0
1701961455.6958826,-11.0,1.0,0.0,2.0,1.0,-12.0,22.0,16.0
1701961455.6958826,-7.0,-3.0,-5.0,0.0,-1.0,-2.0,-10.0,-1.0
1701961455.716299,8.0,19.0,24.0,3.0,1.0,-30.0,-6.0,-8.0
1701961455.716299,-6.0,-12.0,40.0,16.0,-1.0,-5.0,-13.0,-2.0
1701961455.716299,-8.0,-34.0,-49.0,-28.0,-9.0,13.0,7.0,5.0
1701961455.716299,1.0,-7.0,-35.0,-9.0,-3.0,6.0,-12.0,-6.0
1701961455.7258816,17.0,-1.0,21.0,16.0,-8.0,-27.0,8.0,9.0
1701961455.7258816,-9.0,-2.0,-32.0,-11.0,15.0,16.0,-4.0,-6.0
1701961455.7361479,1.0,7.0,17.0,-4.0,-4.0,3.0,18.0,2.0
1701961455.7361479,-8.0,-14.0,13.0,7.0,-2.0,9.0,-2.0,-2.0
1701961455.7558813,-5.0,-4.0,-17.0,-3.0,-5.0,-17.0,0.0,-1.0
1701961455.7558813,-5.0,1.0,12.0,1.0,-7.0,6.0,-3.0,-5.0
1701961455.7558813,0.0,3.0,-5.0,15.0,14.0,12.0,8.0,4.0
1701961455.7558813,-17.0,18.0,2.0,-16.0,-9.0,-5.0,-8.0,0.0
1701961455.7762876,-3.0,1.0,-5.0,-7.0,-11.0,-11.0,-3.0,-3.0
1701961455.7762876,2.0,5.0,2.0,15.0,14.0,7.0,-2.0,-1.0
1701961455.7762876,-3.0,-6.0,-9.0,-13.0,-4.0,3.0,7.0,4.0
1701961455.7762876,3.0,3.0,-6.0,-1.0,-2.0,-2.0,-6.0,2.0
1701961455.7958832,-7.0,-8.0,2.0,-15.0,-12.0,-14.0,-9.0,-12.0
1701961455.7958832,-18.0,3.0,10.0,18.0,7.0,6.0,1.0,-5.0
1701961455.7958832,5.0,-9.0,-19.0,-2.0,1.0,0.0,1.0,3.0
1701961455.7958832,-2.0,15.0,18.0,3.0,4.0,3.0,5.0,4.0
1701961455.8162699,-28.0,3.0,0.0,4.0,6.0,-2.0,6.0,2.0
1701961455.8162699,1.0,-10.0,-13.0,-14.0,-13.0,-4.0,-7.0,-4.0
1701961455.8162699,15.0,2.0,4.0,6.0,-1.0,2.0,2.0,3.0
1701961455.8162699,-2.0,6.0,5.0,1.0,3.0,-1.0,-5.0,-5.0
1701961455.8362925,-6.0,0.0,3.0,5.0,1.0,-8.0,2.0,2.0
1701961455.8362925,1.0,-4.0,-9.0,-3.0,-1.0,2.0,-1.0,-1.0
1701961455.8362925,-10.0,3.0,12.0,5.0,1.0,-7.0,1.0,2.0
1701961455.8362925,8.0,-5.0,5.0,12.0,3.0,9.0,0.0,-3.0
1701961455.8558824,7.0,-7.0,-3.0,-5.0,-2.0,14.0,-8.0,-2.0
1701961455.8558824,3.0,-4.0,-20.0,-11.0,-2.0,-2.0,6.0,1.0
1701961455.8558824,5.0,15.0,16.0,3.0,2.0,-4.0,0.0,-2.0
1701961455.8558824,-3.0,-14.0,-24.0,-6.0,1.0,9.0,-3.0,-2.0
1701961455.8762615,16.0,1.0,20.0,7.0,-2.0,-20.0,0.0,0.0
1701961455.8762615,-14.0,7.0,-4.0,-13.0,-6.0,6.0,-6.0,-4.0
1701961455.8762615,-1.0,-5.0,-2.0,-6.0,-5.0,-10.0,0.0,-2.0
1701961455.8762615,5.0,5.0,14.0,14.0,0.0,-56.0,-8.0,0.0
1701961455.8962836,-1.0,-3.0,-10.0,-15.0,-5.0,51.0,2.0,-2.0
1701961455.8962836,-1.0,-9.0,-20.0,-1.0,2.0,-18.0,-6.0,-4.0
1701961455.8962836,-9.0,0.0,5.0,0.0,-3.0,28.0,13.0,0.0
1701961455.8962836,-1.0,10.0,17.0,10.0,8.0,-6.0,2.0,1.0
1701961455.9158823,-4.0,-6.0,-16.0,-11.0,-4.0,1.0,-7.0,-3.0
1701961455.9158823,-7.0,-4.0,1.0,1.0,-5.0,-11.0,-9.0,-1.0
1701961455.9158823,-6.0,11.0,19.0,7.0,2.0,-3.0,6.0,-2.0
1701961455.9158823,2.0,-11.0,-13.0,-6.0,-4.0,-6.0,-12.0,7.0
1701961455.9362247,-19.0,8.0,2.0,-1.0,2.0,-39.0,-4.0,-7.0
1701961455.9362247,18.0,-14.0,-17.0,-10.0,-2.0,35.0,10.0,6.0
1701961455.9362247,5.0,-2.0,32.0,22.0,-4.0,-35.0,-9.0,1.0
1701961455.9362247,-1.0,-3.0,-19.0,-19.0,-5.0,4.0,-5.0,-3.0
1701961455.956288,19.0,-11.0,-21.0,0.0,9.0,25.0,3.0,11.0
1701961455.956288,7.0,-4.0,8.0,-1.0,-10.0,-13.0,3.0,-15.0
1701961455.956288,-2.0,-5.0,-8.0,-1.0,9.0,36.0,36.0,-3.0
1701961455.956288,0.0,4.0,-10.0,-2.0,-6.0,-16.0,4.0,30.0
1701961455.9758842,-1.0,5.0,9.0,5.0,-1.0,-11.0,-1.0,-5.0
1701961455.9758842,2.0,2.0,6.0,-6.0,1.0,-1.0,-51.0,-2.0
1701961455.9758842,0.0,11.0,-11.0,-9.0,-5.0,6.0,52.0,25.0
1701961455.9758842,-2.0,3.0,18.0,12.0,-4.0,-57.0,-13.0,-6.0
1701961455.9961562,5.0,-8.0,-17.0,-12.0,0.0,32.0,12.0,-1.0
1701961455.9961562,-16.0,17.0,15.0,10.0,-2.0,0.0,-27.0,-11.0
1701961455.9961562,-12.0,-7.0,-14.0,-6.0,-2.0,-4.0,-3.0,-20.0
1701961455.9961562,-6.0,-1.0,-5.0,-5.0,3.0,14.0,-4.0,-1.0
1701961456.0159554,4.0,6.0,11.0,7.0,-4.0,-23.0,23.0,24.0
1701961456.0159554,-9.0,-7.0,3.0,-6.0,-4.0,13.0,16.0,0.0
1701961456.0159554,3.0,-11.0,-13.0,5.0,6.0,-2.0,-11.0,4.0
1701961456.0159554,-3.0,5.0,6.0,-2.0,3.0,19.0,10.0,-6.0
1701961456.0458806,2.0,-8.0,0.0,7.0,0.0,-6.0,-18.0,-17.0
1701961456.0458806,1.0,5.0,15.0,-6.0,-2.0,0.0,7.0,2.0
1701961456.0458806,5.0,-2.0,-9.0,-9.0,-5.0,-16.0,-21.0,-1.0
1701961456.0458806,1.0,-1.0,-7.0,7.0,14.0,26.0,5.0,-8.0
1701961456.0561445,-1.0,-16.0,-46.0,-24.0,-8.0,-9.0,-11.0,-3.0
1701961456.0561445,16.0,6.0,61.0,28.0,8.0,-2.0,20.0,8.0
1701961456.0561445,3.0,-9.0,-31.0,2.0,1.0,-3.0,-11.0,3.0
1701961456.0561445,-5.0,-6.0,15.0,-4.0,-17.0,16.0,-9.0,-14.0
1701961456.076101,-2.0,5.0,18.0,-20.0,4.0,-13.0,1.0,1.0
1701961456.076101,3.0,7.0,18.0,4.0,-5.0,-8.0,8.0,4.0
1701961456.076101,1.0,4.0,7.0,7.0,1.0,5.0,-16.0,-8.0
1701961456.076101,4.0,-5.0,17.0,8.0,3.0,11.0,2.0,-2.0
1701961456.1058862,-5.0,3.0,1.0,4.0,-4.0,-16.0,-2.0,0.0
1701961456.1058862,-12.0,-19.0,-51.0,-3.0,-1.0,-8.0,-1.0,-6.0
1701961456.1058862,-2.0,3.0,33.0,-18.0,-11.0,0.0,-14.0,-5.0
1701961456.1058862,-1.0,-15.0,-30.0,-10.0,-4.0,1.0,4.0,-4.0
1701961456.1158795,-24.0,10.0,8.0,7.0,5.0,-1.0,4.0,0.0
1701961456.1158795,1.0,12.0,45.0,6.0,-1.0,3.0,0.0,2.0
1701961456.1158795,-4.0,-16.0,-125.0,-35.0,-6.0,-2.0,-5.0,0.0
1701961456.1158795,-5.0,-10.0,19.0,-4.0,-3.0,-1.0,-2.0,-4.0
1701961456.146909,1.0,5.0,36.0,18.0,4.0,0.0,-3.0,-5.0
1701961456.146909,3.0,-1.0,-12.0,-14.0,-3.0,-2.0,3.0,0.0
1701961456.146909,-3.0,2.0,36.0,12.0,-1.0,-2.0,-1.0,1.0
1701961456.146909,-11.0,10.0,-11.0,3.0,6.0,7.0,4.0,5.0
1701961456.161219,-7.0,-8.0,-12.0,0.0,-9.0,-20.0,-6.0,-13.0
1701961456.161219,-3.0,-9.0,-16.0,4.0,9.0,31.0,2.0,2.0
1701961456.1622357,8.0,15.0,17.0,-10.0,-5.0,-39.0,2.0,-14.0
1701961456.1622357,1.0,-19.0,-22.0,0.0,-3.0,18.0,-34.0,4.0
1701961456.1758413,-12.0,17.0,15.0,-6.0,0.0,48.0,20.0,8.0
1701961456.1758413,4.0,13.0,-5.0,21.0,9.0,17.0,16.0,-11.0
1701961456.1766074,9.0,-4.0,7.0,-13.0,-5.0,1.0,-27.0,-23.0
1701961456.1766074,-6.0,-21.0,7.0,-3.0,-3.0,-18.0,19.0,2.0
1701961456.1990724,-1.0,5.0,3.0,14.0,5.0,-19.0,-10.0,5.0
1701961456.1990724,-9.0,-6.0,-2.0,-4.0,-12.0,-64.0,-13.0,-18.0
1701961456.1990724,-1.0,-13.0,12.0,5.0,9.0,77.0,6.0,15.0
1701961456.1990724,-15.0,-3.0,13.0,4.0,0.0,-29.0,1.0,-1.0
1701961456.2198398,-5.0,-21.0,-69.0,-28.0,-10.0,-3.0,-9.0,-2.0
1701961456.2198398,2.0,4.0,19.0,-4.0,-2.0,1.0,16.0,4.0
1701961456.2198398,-3.0,-6.0,-9.0,3.0,-6.0,-22.0,-7.0,1.0
1701961456.2198398,5.0,19.0,17.0,1.0,3.0,15.0,2.0,-5.0
1701961456.229749,-1.0,-20.0,-4.0,13.0,4.0,1.0,8.0,-1.0
1701961456.229749,-6.0,0.0,-13.0,-14.0,-1.0,-2.0,-16.0,-1.0
1701961456.229749,1.0,4.0,3.0,9.0,0.0,-4.0,4.0,4.0
1701961456.229749,-1.0,-1.0,-46.0,-10.0,-1.0,4.0,-1.0,-2.0
1701961456.2494864,4.0,8.0,15.0,-5.0,-5.0,8.0,-4.0,-6.0
1701961456.2494864,9.0,-7.0,-16.0,2.0,-3.0,-10.0,-2.0,7.0
1701961456.259489,-6.0,-1.0,15.0,9.0,2.0,-2.0,1.0,4.0
1701961456.259489,5.0,3.0,13.0,5.0,-2.0,-1.0,5.0,-4.0
1701961456.279835,3.0,2.0,-5.0,-6.0,-2.0,-2.0,-6.0,-3.0
1701961456.279835,-5.0,-6.0,-1.0,-4.0,-6.0,-1.0,-2.0,3.0
1701961456.279835,5.0,-7.0,15.0,12.0,5.0,4.0,7.0,0.0
1701961456.279835,4.0,2.0,-13.0,-16.0,-10.0,1.0,-6.0,-6.0
1701961456.2897089,3.0,-1.0,0.0,3.0,11.0,-17.0,-3.0,0.0
1701961456.2897089,2.0,-3.0,-2.0,-5.0,-2.0,9.0,-4.0,3.0
1701961456.2897089,-3.0,5.0,3.0,-1.0,-2.0,-2.0,0.0,0.0
1701961456.2897089,6.0,0.0,-20.0,-15.0,-9.0,-19.0,-2.0,0.0
1701961456.3094876,10.0,-5.0,37.0,30.0,9.0,15.0,-5.0,3.0
1701961456.3094876,-9.0,3.0,-21.0,-6.0,-3.0,11.0,10.0,-2.0
1701961456.319488,-2.0,1.0,1.0,0.0,4.0,3.0,-3.0,0.0
1701961456.319488,4.0,3.0,17.0,8.0,2.0,0.0,1.0,-1.0
1701961456.3394887,3.0,-4.0,3.0,-14.0,-11.0,-4.0,4.0,-1.0
1701961456.3394887,0.0,-4.0,-21.0,-1.0,5.0,-4.0,-7.0,-2.0
1701961456.3394887,-4.0,1.0,0.0,-14.0,-10.0,-19.0,-9.0,-1.0
1701961456.3394887,0.0,6.0,2.0,5.0,4.0,6.0,-1.0,-1.0
1701961456.3497236,-5.0,4.0,8.0,4.0,0.0,-7.0,-3.0,-3.0
1701961456.3497236,4.0,-2.0,-1.0,-3.0,-2.0,-3.0,1.0,2.0
1701961456.3694885,-6.0,4.0,-9.0,-1.0,-1.0,0.0,0.0,-1.0
1701961456.3694885,-1.0,1.0,2.0,3.0,-3.0,1.0,1.0,-4.0
1701961456.3798196,3.0,-6.0,2.0,11.0,3.0,-8.0,-1.0,0.0
1701961456.3798196,15.0,-10.0,19.0,-5.0,-3.0,3.0,-1.0,2.0
1701961456.3798196,1.0,-25.0,-48.0,-12.0,-2.0,-2.0,-2.0,-6.0
1701961456.3798196,-2.0,0.0,6.0,7.0,4.0,9.0,6.0,-2.0
1701961456.3998566,0.0,2.0,-9.0,-9.0,-5.0,-10.0,-12.0,-3.0
1701961456.3998566,-2.0,4.0,22.0,2.0,-1.0,4.0,1.0,0.0
1701961456.3998566,3.0,3.0,14.0,3.0,2.0,-11.0,-5.0,-1.0
1701961456.3998566,-1.0,-2.0,-4.0,5.0,0.0,2.0,3.0,-1.0
1701961456.4094865,5.0,1.0,-8.0,-17.0,-1.0,4.0,3.0,-1.0
1701961456.4094865,4.0,1.0,-10.0,10.0,13.0,2.0,3.0,2.0
1701961456.4094865,-1.0,0.0,-3.0,1.0,-5.0,-3.0,-5.0,1.0
1701961456.4094865,-4.0,2.0,-7.0,-10.0,-2.0,3.0,-5.0,-2.0
1701961456.429818,-9.0,-2.0,5.0,7.0,-2.0,-4.0,0.0,-1.0
1701961456.429818,1.0,-1.0,-4.0,-20.0,-9.0,-9.0,-5.0,0.0
1701961456.4394886,-1.0,-19.0,-5.0,8.0,13.0,4.0,4.0,4.0
1701961456.4394886,3.0,37.0,10.0,1.0,-9.0,3.0,-3.0,-1.0
1701961456.459847,6.0,-6.0,0.0,-2.0,0.0,-3.0,0.0,-2.0
1701961456.459847,14.0,-19.0,-27.0,-14.0,-2.0,-3.0,0.0,3.0
1701961456.459847,-13.0,-14.0,10.0,14.0,2.0,5.0,5.0,3.0
1701961456.459847,20.0,-9.0,-11.0,-10.0,-3.0,-4.0,27.0,13.0
1701961456.4694893,2.0,32.0,13.0,11.0,1.0,1.0,-35.0,-4.0
1701961456.4694893,-14.0,6.0,-17.0,-13.0,-3.0,-5.0,-22.0,-34.0
1701961456.4694893,-4.0,-30.0,5.0,-7.0,-7.0,-2.0,-3.0,-2.0
1701961456.4694893,-2.0,3.0,0.0,5.0,9.0,2.0,4.0,3.0
1701961456.499488,-16.0,-26.0,-3.0,-2.0,-4.0,-2.0,12.0,9.0
1701961456.499488,7.0,-5.0,30.0,18.0,-3.0,-2.0,4.0,11.0
1701961456.499488,-13.0,15.0,-47.0,-33.0,-18.0,-8.0,-13.0,-14.0
1701961456.499488,-10.0,27.0,21.0,-22.0,-2.0,1.0,0.0,-2.0
1701961456.5198407,-12.0,-44.0,-55.0,35.0,21.0,4.0,9.0,3.0
1701961456.5198407,-11.0,21.0,32.0,7.0,-1.0,-1.0,-8.0,-1.0
1701961456.5198407,24.0,9.0,8.0,1.0,-2.0,-2.0,2.0,-1.0
1701961456.5198407,-7.0,-43.0,-8.0,-11.0,-7.0,-10.0,-16.0,-9.0
1701961456.5294895,2.0,29.0,8.0,-11.0,-7.0,-7.0,13.0,13.0
1701961456.5294895,-17.0,-4.0,-6.0,4.0,4.0,9.0,-3.0,-2.0
1701961456.5395205,4.0,32.0,22.0,8.0,5.0,-38.0,6.0,6.0
1701961456.5395205,-2.0,-23.0,-20.0,7.0,10.0,72.0,-25.0,-6.0
1701961456.549804,11.0,-1.0,5.0,-1.0,-1.0,-41.0,-12.0,-17.0
1701961456.549804,6.0,17.0,3.0,2.0,0.0,32.0,15.0,4.0
1701961456.5594893,11.0,37.0,39.0,-1.0,2.0,12.0,3.0,5.0
1701961456.5594893,0.0,-45.0,-51.0,1.0,-4.0,-55.0,-11.0,-4.0
1701961456.579856,-9.0,-15.0,-1.0,-7.0,-4.0,3.0,11.0,4.0
1701961456.579856,-3.0,-38.0,-4.0,-7.0,-7.0,-12.0,17.0,16.0
1701961456.579856,-9.0,-19.0,-1.0,6.0,8.0,2.0,-45.0,-27.0
1701961456.579856,-9.0,0.0,30.0,17.0,16.0,6.0,-12.0,-10.0
1701961456.5894876,4.0,27.0,4.0,-5.0,-10.0,-9.0,-5.0,-2.0
1701961456.5894876,0.0,-10.0,-22.0,-14.0,-4.0,6.0,-11.0,-18.0
1701961456.6098418,9.0,6.0,5.0,5.0,1.0,1.0,65.0,39.0
1701961456.6098418,23.0,-27.0,-8.0,3.0,0.0,-36.0,-11.0,17.0
1701961456.6098418,-17.0,13.0,13.0,-13.0,-2.0,29.0,-1.0,-21.0
1701961456.6098418,-13.0,17.0,2.0,-3.0,-3.0,-3.0,0.0,3.0
1701961456.6194885,17.0,-6.0,-16.0,6.0,6.0,64.0,80.0,31.0
1701961456.6194885,6.0,18.0,5.0,-4.0,-6.0,-37.0,-34.0,-16.0
1701961456.6394873,7.0,2.0,-1.0,-17.0,-14.0,-29.0,-3.0,5.0
1701961456.6394873,3.0,-3.0,-10.0,8.0,3.0,-33.0,-40.0,-6.0
1701961456.6394873,-2.0,-13.0,-6.0,-11.0,-9.0,-22.0,-13.0,-9.0
1701961456.6394873,-2.0,-25.0,-15.0,0.0,0.0,19.0,28.0,12.0
1701961456.6496036,-15.0,-14.0,1.0,2.0,0.0,-3.0,-8.0,-4.0
1701961456.6496036,-14.0,6.0,17.0,15.0,1.0,6.0,7.0,-6.0
1701961456.6597953,-6.0,3.0,12.0,-3.0,1.0,-3.0,-20.0,-7.0
1701961456.6597953,-9.0,31.0,19.0,0.0,-4.0,-1.0,9.0,1.0
1701961456.68636,-4.0,-3.0,-35.0,-6.0,-2.0,39.0,-5.0,-8.0
1701961456.68636,-2.0,-8.0,25.0,-9.0,-4.0,-41.0,11.0,4.0
1701961456.6883733,-13.0,-13.0,-64.0,-24.0,2.0,30.0,-24.0,-9.0
