1701961236.2364118,0.0,0.0,0.0,-1.0,-2.0,-2.0,1.0,-2.0
1701961236.2364118,1.0,-2.0,-10.0,-2.0,0.0,1.0,1.0,-1.0
1701961236.2364118,-2.0,-1.0,2.0,-2.0,-2.0,-2.0,-2.0,-1.0
1701961236.2364118,0.0,-2.0,-3.0,-1.0,-1.0,0.0,0.0,1.0
1701961236.2663603,-2.0,-2.0,0.0,0.0,-1.0,0.0,-1.0,0.0
1701961236.2663603,0.0,2.0,8.0,1.0,1.0,0.0,-2.0,-2.0
1701961236.2663603,0.0,-1.0,6.0,0.0,-1.0,-2.0,0.0,-2.0
1701961236.2663603,-1.0,1.0,-6.0,0.0,-2.0,-2.0,-1.0,-1.0
1701961236.2763643,-1.0,0.0,3.0,-2.0,-1.0,-2.0,-3.0,0.0
1701961236.2763643,-2.0,-3.0,-7.0,-4.0,0.0,-1.0,-1.0,-1.0
1701961236.296362,-2.0,-1.0,-1.0,-2.0,-3.0,0.0,-2.0,-3.0
1701961236.296362,-1.0,0.0,1.0,-3.0,-1.0,-1.0,-2.0,-1.0
1701961236.3064091,-1.0,-2.0,-7.0,2.0,2.0,0.0,1.0,1.0
1701961236.3064091,-3.0,-1.0,1.0,1.0,-2.0,-2.0,-1.0,-1.0
1701961236.3064091,-2.0,1.0,-3.0,-1.0,0.0,1.0,-1.0,-2.0
1701961236.3064091,-2.0,-1.0,1.0,-2.0,-3.0,-4.0,-2.0,-2.0
1701961236.3165,-1.0,-3.0,-1.0,1.0,-2.0,-3.0,-1.0,-1.0
1701961236.3165,0.0,0.0,-1.0,0.0,1.0,-2.0,-2.0,0.0
1701961236.3165,-1.0,-2.0,-1.0,-2.0,-2.0,-3.0,-1.0,-1.0
1701961236.3165,-1.0,-2.0,-1.0,-1.0,0.0,0.0,-2.0,-2.0
1701961236.3363616,-1.0,0.0,-1.0,-1.0,0.0,0.0,-1.0,-1.0
1701961236.3363616,-1.0,-3.0,0.0,0.0,-2.0,-3.0,-1.0,-2.0
1701961236.3363616,1.0,-1.0,-3.0,1.0,-1.0,-5.0,-2.0,-2.0
1701961236.3363616,-1.0,-3.0,-1.0,0.0,0.0,-1.0,-1.0,-1.0
1701961236.3564854,-3.0,0.0,2.0,-4.0,0.0,-1.0,-1.0,-2.0
1701961236.3564854,-1.0,1.0,-1.0,-1.0,-2.0,1.0,0.0,-1.0
1701961236.3564854,-1.0,-2.0,-5.0,-1.0,-2.0,2.0,-1.0,-1.0
1701961236.3564854,-2.0,-1.0,1.0,-1.0,-1.0,-2.0,-1.0,1.0
1701961236.4063663,-1.0,0.0,-1.0,-1.0,-2.0,-1.0,-2.0,0.0
1701961236.4063663,-1.0,-3.0,-2.0,0.0,-1.0,1.0,-2.0,0.0
1701961236.4063663,-2.0,-3.0,-1.0,0.0,-1.0,0.0,-3.0,0.0
1701961236.4063663,-2.0,0.0,3.0,1.0,-2.0,-1.0,-2.0,-2.0
1701961236.4063663,0.0,-2.0,-3.0,-2.0,-1.0,-1.0,0.0,-1.0
1701961236.4063663,-1.0,-2.0,-3.0,-1.0,-3.0,-2.0,-1.0,-2.0
1701961236.4063663,0.0,-1.0,2.0,-1.0,-2.0,-2.0,-1.0,-1.0
1701961236.4063663,-1.0,0.0,-3.0,-1.0,-2.0,0.0,-2.0,-1.0
1701961236.4163952,1.0,-1.0,-2.0,1.0,-2.0,-1.0,-1.0,-1.0
1701961236.4163952,-1.0,-1.0,-2.0,-2.0,-1.0,-2.0,-1.0,0.0
1701961236.4163952,-1.0,-2.0,-1.0,0.0,1.0,0.0,0.0,-2.0
1701961236.4163952,-1.0,-1.0,0.0,1.0,0.0,-1.0,-2.0,-1.0
1701961236.4367697,-1.0,-2.0,2.0,-1.0,-2.0,-1.0,-1.0,-2.0
1701961236.4367697,-1.0,-1.0,-1.0,1.0,-1.0,0.0,-1.0,0.0
1701961236.4367697,-1.0,-1.0,-1.0,-1.0,-1.0,-1.0,0.0,0.0
1701961236.4367697,-1.0,-2.0,-1.0,-1.0,1.0,0.0,-1.0,-1.0
1701961236.4567647,-1.0,0.0,-2.0,-1.0,1.0,-1.0,0.0,-1.0
1701961236.4567647,-1.0,-1.0,0.0,0.0,-1.0,1.0,-1.0,-1.0
1701961236.4663649,-2.0,0.0,0.0,-1.0,-2.0,-2.0,-1.0,-1.0
1701961236.4663649,1.0,1.0,-1.0,-4.0,-2.0,-1.0,-1.0,0.0
1701961236.4763649,-1.0,1.0,-1.0,-1.0,0.0,-1.0,2.0,-3.0
1701961236.4763649,0.0,-2.0,-1.0,0.0,0.0,-1.0,0.0,1.0
1701961236.4763649,0.0,1.0,0.0,-1.0,2.0,1.0,2.0,-1.0
1701961236.4763649,-1.0,-4.0,-4.0,-2.0,0.0,1.0,-1.0,-1.0
1701961236.5063612,-1.0,-1.0,2.0,-1.0,1.0,1.0,-1.0,-1.0
1701961236.5063612,0.0,0.0,2.0,-3.0,-3.0,1.0,0.0,-2.0
1701961236.5063612,0.0,-1.0,-1.0,-1.0,-3.0,2.0,-1.0,0.0
1701961236.5063612,-3.0,-1.0,-7.0,-3.0,-1.0,-1.0,0.0,-1.0
1701961236.5163958,-1.0,-2.0,-1.0,-3.0,-1.0,-2.0,-2.0,0.0
1701961236.5163958,-2.0,-2.0,-1.0,0.0,1.0,-3.0,0.0,-2.0
1701961236.5163958,0.0,-1.0,-3.0,-3.0,1.0,-2.0,-2.0,0.0
1701961236.5163958,1.0,-3.0,-4.0,-2.0,0.0,-1.0,2.0,-1.0
1701961236.5363748,-2.0,-1.0,0.0,0.0,-3.0,0.0,-2.0,-3.0
1701961236.5363748,1.0,1.0,5.0,2.0,0.0,-3.0,-2.0,-1.0
1701961236.5363748,0.0,0.0,-6.0,-9.0,-3.0,-1.0,-1.0,-1.0
1701961236.5363748,-3.0,-3.0,3.0,6.0,0.0,-1.0,2.0,-1.0
1701961236.5563622,4.0,1.0,-10.0,-14.0,-3.0,-4.0,-12.0,2.0
1701961236.5563622,-1.0,-2.0,-3.0,-3.0,-3.0,-2.0,-2.0,0.0
1701961236.5563622,-1.0,-2.0,-2.0,1.0,-2.0,-2.0,-3.0,-5.0
1701961236.5563622,0.0,0.0,-2.0,2.0,-3.0,-1.0,-2.0,4.0
1701961236.5863667,0.0,-1.0,12.0,0.0,-4.0,-1.0,-2.0,0.0
1701961236.5863667,-3.0,-1.0,1.0,2.0,-2.0,-2.0,-1.0,-4.0
1701961236.5863667,2.0,-2.0,-3.0,-1.0,-1.0,-2.0,-4.0,-1.0
1701961236.5863667,0.0,-2.0,0.0,1.0,1.0,-3.0,0.0,-4.0
1701961236.5963702,-1.0,-2.0,-6.0,1.0,0.0,0.0,1.0,-2.0
1701961236.5963702,-1.0,1.0,-3.0,-4.0,-1.0,0.0,-3.0,-1.0
1701961236.5963702,-4.0,-2.0,1.0,-1.0,-1.0,0.0,2.0,0.0
1701961236.5963702,-2.0,-5.0,2.0,2.0,0.0,0.0,0.0,-1.0
1701961236.6166334,2.0,4.0,-4.0,-3.0,-3.0,-2.0,-1.0,0.0
1701961236.6166334,0.0,-2.0,0.0,0.0,0.0,0.0,1.0,0.0
1701961236.6166334,-2.0,0.0,0.0,2.0,0.0,-2.0,-2.0,-3.0
1701961236.6166334,-1.0,1.0,-1.0,-2.0,0.0,0.0,-1.0,-5.0
1701961236.6363611,-2.0,0.0,-1.0,2.0,0.0,-1.0,0.0,-2.0
1701961236.6363611,-1.0,2.0,-2.0,-3.0,-2.0,0.0,-2.0,-2.0
1701961236.6363611,0.0,-2.0,1.0,1.0,-1.0,0.0,-1.0,0.0
1701961236.6463706,0.0,0.0,-1.0,-2.0,-2.0,0.0,-3.0,0.0
1701961236.656538,-1.0,-4.0,-3.0,1.0,1.0,0.0,2.0,0.0
1701961236.656538,1.0,1.0,-4.0,-1.0,-1.0,-1.0,-2.0,-1.0
1701961236.6663668,-3.0,-2.0,1.0,1.0,0.0,0.0,0.0,-2.0
1701961236.6663668,0.0,1.0,0.0,-3.0,-2.0,1.0,-1.0,0.0
1701961236.6863604,-2.0,-2.0,-4.0,-2.0,-2.0,-1.0,1.0,-2.0
1701961236.6863604,0.0,-1.0,0.0,1.0,1.0,0.0,-2.0,-2.0
1701961236.696432,-2.0,0.0,-1.0,-1.0,-1.0,-1.0,0.0,0.0
1701961236.696432,-1.0,1.0,-1.0,-2.0,-1.0,0.0,-1.0,-1.0
1701961236.696432,-3.0,-1.0,-2.0,1.0,-1.0,-1.0,-1.0,-2.0
1701961236.696432,-2.0,-1.0,1.0,-1.0,-2.0,1.0,-2.0,0.0
1701961236.696432,-1.0,1.0,-1.0,0.0,0.0,-1.0,0.0,-1.0
1701961236.696432,-1.0,0.0,-3.0,-2.0,-2.0,0.0,-1.0,-3.0
1701961236.7167656,-2.0,-2.0,1.0,1.0,1.0,0.0,1.0,-2.0
1701961236.7167656,0.0,-2.0,-3.0,-2.0,0.0,0.0,0.0,-1.0
1701961236.7167656,0.0,0.0,-1.0,-2.0,-1.0,0.0,-2.0,0.0
1701961236.7167656,-1.0,-1.0,0.0,-3.0,0.0,-1.0,0.0,0.0
1701961236.7412198,-1.0,-1.0,0.0,1.0,-2.0,-2.0,-2.0,-1.0
1701961236.7412198,-3.0,-1.0,-2.0,-2.0,0.0,-3.0,-1.0,1.0
1701961236.7497132,0.0,-2.0,0.0,1.0,-1.0,0.0,-1.0,-1.0
1701961236.7497132,-2.0,-4.0,-2.0,-2.0,-2.0,-2.0,1.0,-4.0
1701961236.7592049,1.0,-1.0,0.0,-1.0,-2.0,-1.0,-9.0,4.0
1701961236.7592049,0.0,-3.0,-3.0,-3.0,0.0,-2.0,-2.0,-3.0
1701961236.7592049,-1.0,-2.0,0.0,-1.0,-2.0,-2.0,0.0,-1.0
1701961236.7592049,1.0,-1.0,-1.0,-1.0,-1.0,-3.0,0.0,2.0
1701961236.779503,-2.0,-3.0,1.0,0.0,-3.0,-2.0,1.0,-3.0
1701961236.779503,-1.0,0.0,-2.0,-2.0,0.0,-1.0,-1.0,-1.0
1701961236.779503,0.0,-1.0,-1.0,-2.0,-2.0,-1.0,-2.0,-1.0
1701961236.779503,-1.0,0.0,-1.0,-1.0,-2.0,-1.0,-2.0,-2.0
1701961236.7992058,-1.0,1.0,0.0,0.0,0.0,-1.0,1.0,-1.0
1701961236.7992058,-2.0,-3.0,-1.0,-2.0,-1.0,-2.0,-1.0,-1.0
1701961236.7992058,-2.0,-2.0,0.0,-1.0,0.0,-1.0,1.0,-1.0
1701961236.7992058,-1.0,0.0,-2.0,-2.0,0.0,0.0,-4.0,-1.0
1701961236.809242,-2.0,0.0,1.0,-1.0,-1.0,1.0,-1.0,-2.0
1701961236.809242,-1.0,1.0,0.0,0.0,-1.0,0.0,0.0,0.0
1701961236.819563,0.0,-1.0,-1.0,-1.0,1.0,1.0,-2.0,-2.0
1701961236.819563,-1.0,-1.0,-1.0,-2.0,-1.0,0.0,0.0,-2.0
1701961236.8392084,-1.0,-1.0,-1.0,0.0,-1.0,0.0,-1.0,-2.0
1701961236.8392084,-1.0,-1.0,0.0,-3.0,-3.0,1.0,0.0,-1.0
1701961236.8392084,-2.0,-1.0,0.0,0.0,0.0,-1.0,-1.0,0.0
1701961236.8392084,-1.0,1.0,-1.0,-1.0,-1.0,-2.0,-1.0,-1.0
1701961236.8596237,-1.0,-2.0,-3.0,0.0,-3.0,-1.0,0.0,-1.0
1701961236.8596237,-3.0,-1.0,-1.0,0.0,0.0,-2.0,-1.0,0.0
1701961236.8596237,-3.0,1.0,-2.0,-2.0,-2.0,0.0,0.0,-1.0
1701961236.8596237,-1.0,-1.0,-2.0,-1.0,0.0,0.0,-3.0,1.0
1701961236.8695834,-1.0,-1.0,-2.0,0.0,0.0,-1.0,0.0,0.0
1701961236.8695834,-1.0,-2.0,0.0,-1.0,-2.0,0.0,-1.0,0.0
1701961236.8795607,-2.0,0.0,-1.0,0.0,1.0,-1.0,1.0,-2.0
1701961236.8795607,-1.0,0.0,1.0,-2.0,-2.0,-2.0,-2.0,-1.0
1701961236.9092054,-1.0,-2.0,-2.0,0.0,0.0,0.0,-1.0,-1.0
1701961236.9092054,0.0,0.0,-3.0,-1.0,-1.0,0.0,0.0,0.0
1701961236.9092054,2.0,-2.0,-2.0,-1.0,-1.0,-3.0,-2.0,-1.0
1701961236.9092054,-3.0,0.0,-1.0,-2.0,0.0,-2.0,0.0,0.0
1701961236.9194736,-2.0,-1.0,-3.0,-2.0,-1.0,-1.0,-1.0,-1.0
1701961236.9194736,-1.0,-1.0,-1.0,0.0,-1.0,-1.0,0.0,-1.0
1701961236.9194736,-2.0,-1.0,1.0,-2.0,-3.0,-1.0,0.0,-1.0
1701961236.9194736,-1.0,0.0,0.0,0.0,-1.0,-1.0,0.0,0.0
1701961236.9294772,-1.0,0.0,-1.0,-1.0,1.0,1.0,-1.0,-2.0
1701961236.9294772,-2.0,0.0,-3.0,-1.0,0.0,-2.0,-1.0,-3.0
1701961236.9692042,-1.0,0.0,-3.0,-2.0,-2.0,-2.0,0.0,-3.0
1701961236.9692042,-2.0,-2.0,0.0,0.0,-1.0,-1.0,-2.0,0.0
1701961236.9692042,-2.0,1.0,-2.0,1.0,-1.0,-4.0,-1.0,-3.0
1701961236.9692042,1.0,0.0,4.0,0.0,-3.0,-1.0,-1.0,-2.0
1701961236.9692042,0.0,-3.0,1.0,5.0,2.0,0.0,-1.0,0.0
1701961236.9692042,0.0,-1.0,-8.0,-15.0,-3.0,-1.0,0.0,0.0
1701961236.9896307,0.0,-4.0,6.0,9.0,1.0,-1.0,-1.0,-1.0
1701961236.9896307,0.0,-1.0,-9.0,-16.0,-2.0,-1.0,-1.0,-2.0
1701961236.9896307,0.0,3.0,-2.0,1.0,-3.0,-2.0,-3.0,-2.0
1701961236.9896307,0.0,1.0,9.0,5.0,-4.0,-3.0,-2.0,-2.0
1701961236.9896307,-1.0,-1.0,-6.0,-4.0,0.0,0.0,0.0,-2.0
1701961236.9896307,-1.0,-2.0,0.0,5.0,0.0,-3.0,0.0,0.0
1701961237.009206,-2.0,-3.0,-5.0,-11.0,-2.0,-3.0,-1.0,-1.0
1701961237.009206,-2.0,-4.0,-5.0,0.0,-2.0,-1.0,-1.0,-3.0
1701961237.0195909,0.0,0.0,0.0,-2.0,-2.0,0.0,-2.0,0.0
1701961237.0195909,-1.0,-2.0,2.0,7.0,0.0,2.0,0.0,0.0
1701961237.0195909,-2.0,-1.0,-2.0,2.0,0.0,2.0,1.0,-1.0
1701961237.0195909,-1.0,0.0,0.0,2.0,2.0,0.0,-2.0,0.0
1701961237.0395796,-1.0,-1.0,-1.0,-3.0,-1.0,-2.0,-2.0,-2.0
1701961237.0395796,-2.0,-4.0,-2.0,-2.0,-2.0,-1.0,-1.0,-1.0
1701961237.0395796,1.0,-1.0,0.0,-3.0,-2.0,-1.0,-1.0,-1.0
1701961237.0395796,0.0,2.0,3.0,0.0,1.0,-2.0,-1.0,-2.0
1701961237.0495129,0.0,0.0,-2.0,-3.0,0.0,0.0,0.0,-1.0
1701961237.0495129,0.0,1.0,-4.0,-4.0,-1.0,-1.0,-2.0,0.0
1701961237.069208,-1.0,-2.0,0.0,-1.0,-2.0,-1.0,-1.0,-1.0
1701961237.069208,-1.0,-2.0,0.0,0.0,-3.0,-2.0,-1.0,-1.0
1701961237.079564,0.0,-3.0,-2.0,-1.0,0.0,-1.0,1.0,0.0
1701961237.079564,-2.0,-1.0,2.0,3.0,-1.0,-1.0,-2.0,-1.0
1701961237.079564,-1.0,-1.0,-1.0,-4.0,-1.0,-1.0,0.0,-1.0
1701961237.079564,-2.0,-2.0,-3.0,-4.0,-1.0,-1.0,-2.0,-1.0
1701961237.0996387,0.0,-1.0,-2.0,-4.0,-1.0,-1.0,0.0,1.0
1701961237.0996387,-3.0,-1.0,3.0,1.0,-1.0,0.0,-1.0,0.0
1701961237.1092079,-1.0,-2.0,-1.0,1.0,0.0,1.0,1.0,-1.0
1701961237.1092079,-1.0,0.0,-4.0,0.0,-2.0,-1.0,1.0,-1.0
1701961237.1092079,-1.0,-2.0,0.0,-1.0,-2.0,-2.0,-1.0,-1.0
1701961237.1092079,0.0,-1.0,-1.0,1.0,0.0,0.0,-1.0,-2.0
1701961237.129206,0.0,3.0,6.0,8.0,-1.0,-2.0,-2.0,0.0
1701961237.129206,1.0,-2.0,-9.0,-14.0,-2.0,-2.0,1.0,1.0
1701961237.139452,-2.0,-1.0,0.0,1.0,1.0,-1.0,-2.0,0.0
1701961237.139452,-1.0,-1.0,-5.0,-5.0,1.0,-1.0,-1.0,-3.0
1701961237.139452,1.0,-2.0,-1.0,-3.0,-1.0,-1.0,0.0,0.0
1701961237.139452,0.0,-1.0,2.0,6.0,-1.0,0.0,-3.0,-1.0
1701961237.1595323,0.0,0.0,0.0,0.0,-3.0,-3.0,-3.0,0.0
1701961237.1595323,-1.0,-1.0,0.0,-1.0,0.0,-4.0,1.0,-2.0
1701961237.1595323,0.0,-1.0,-2.0,-5.0,-2.0,-2.0,-1.0,0.0
1701961237.1595323,-1.0,-2.0,1.0,3.0,-1.0,-2.0,2.0,-2.0
1701961237.1792393,-2.0,1.0,-1.0,-3.0,-2.0,-1.0,-1.0,-1.0
1701961237.1792393,0.0,-2.0,0.0,-2.0,-1.0,-1.0,0.0,0.0
1701961237.1792393,-2.0,-1.0,-1.0,-3.0,0.0,-2.0,-2.0,0.0
1701961237.1792393,-1.0,0.0,-1.0,1.0,0.0,-1.0,0.0,-1.0
1701961237.19965,-2.0,0.0,-1.0,0.0,-2.0,0.0,1.0,-1.0
1701961237.19965,-1.0,1.0,-2.0,-1.0,-2.0,-1.0,-3.0,-2.0
1701961237.19965,-2.0,1.0,-1.0,-1.0,-2.0,-2.0,0.0,-1.0
1701961237.19965,0.0,-2.0,0.0,0.0,0.0,0.0,-2.0,-1.0
1701961237.219632,0.0,-1.0,1.0,-4.0,-1.0,-2.0,1.0,-1.0
1701961237.219632,-1.0,-2.0,-1.0,-2.0,-1.0,-1.0,0.0,0.0
1701961237.219632,0.0,-2.0,-2.0,0.0,-3.0,-1.0,-1.0,0.0
1701961237.219632,-1.0,0.0,-1.0,0.0,-1.0,-2.0,0.0,-3.0
1701961237.2392392,-1.0,-1.0,-4.0,-2.0,-2.0,-1.0,-3.0,-1.0
1701961237.2392392,0.0,1.0,0.0,-2.0,-3.0,0.0,-1.0,-1.0
1701961237.2392392,-1.0,-1.0,0.0,0.0,-2.0,0.0,-1.0,-1.0
1701961237.2392392,-1.0,-1.0,0.0,1.0,0.0,1.0,-1.0,-2.0
1701961237.259728,-2.0,2.0,-3.0,1.0,-1.0,-2.0,-1.0,-2.0
1701961237.259728,-2.0,-2.0,-1.0,0.0,0.0,-2.0,0.0,-1.0
1701961237.2663593,0.0,-2.0,0.0,-2.0,-2.0,-1.0,-2.0,0.0
1701961237.2663593,-1.0,-1.0,-1.0,-2.0,-1.0,-1.0,-1.0,-1.0
1701961237.295329,-1.0,-1.0,0.0,-2.0,-1.0,1.0,-1.0,0.0
1701961237.295329,-1.0,-2.0,-1.0,1.0,0.0,0.0,0.0,0.0
1701961237.295329,-1.0,1.0,-1.0,-1.0,-1.0,0.0,-2.0,-1.0
1701961237.295329,-2.0,-2.0,-3.0,-2.0,-2.0,-1.0,-2.0,-1.0
1701961237.295329,-2.0,-2.0,1.0,-1.0,-3.0,-1.0,-1.0,-2.0
1701961237.295329,-1.0,0.0,-2.0,-2.0,-2.0,-2.0,-1.0,-1.0
1701961237.305333,0.0,-3.0,-2.0,-2.0,0.0,-3.0,1.0,-1.0
1701961237.305333,-2.0,0.0,1.0,1.0,-2.0,-1.0,0.0,-1.0
1701961237.3257327,0.0,0.0,-2.0,-2.0,-1.0,-1.0,-1.0,-1.0
1701961237.3257327,0.0,0.0,-2.0,-2.0,-1.0,0.0,-2.0,-1.0
1701961237.3257327,-2.0,0.0,-2.0,-2.0,-1.0,-1.0,0.0,1.0
1701961237.3257327,0.0,-1.0,0.0,-1.0,-2.0,-1.0,-2.0,1.0
1701961237.3356605,0.0,-1.0,1.0,-1.0,-1.0,-2.0,0.0,0.0
1701961237.3356605,0.0,-1.0,-2.0,-2.0,-1.0,-2.0,-1.0,-2.0
1701961237.3356605,0.0,-2.0,0.0,-1.0,-1.0,-1.0,-1.0,-1.0
1701961237.3356605,-1.0,-1.0,-1.0,0.0,-2.0,-1.0,-1.0,-1.0
1701961237.3654015,1.0,-1.0,-2.0,-1.0,-3.0,0.0,-1.0,-1.0
1701961237.3654015,-1.0,-2.0,2.0,0.0,-2.0,-2.0,-1.0,0.0
1701961237.3654015,-1.0,-1.0,-3.0,0.0,1.0,-1.0,-2.0,-2.0
1701961237.3654015,-2.0,-2.0,-1.0,-1.0,-2.0,0.0,0.0,-1.0
1701961237.3753283,-3.0,-1.0,-1.0,-1.0,-1.0,-2.0,-1.0,-1.0
1701961237.3753283,-1.0,0.0,-2.0,-1.0,-2.0,-1.0,-1.0,0.0
1701961237.3856387,-2.0,-2.0,0.0,-2.0,0.0,0.0,-2.0,-3.0
1701961237.3856387,-2.0,2.0,-1.0,-2.0,-2.0,-1.0,-1.0,-2.0
1701961237.3953352,0.0,-2.0,-2.0,-1.0,-1.0,0.0,0.0,-1.0
1701961237.3953352,1.0,-1.0,-1.0,0.0,1.0,0.0,-1.0,-2.0
1701961237.3953352,-2.0,-2.0,-2.0,-1.0,-1.0,0.0,0.0,1.0
1701961237.3953352,-2.0,0.0,2.0,1.0,0.0,0.0,-2.0,-1.0
1701961237.425394,-3.0,0.0,0.0,0.0,0.0,-1.0,-1.0,-2.0
1701961237.425394,-2.0,-1.0,-1.0,-1.0,0.0,2.0,-1.0,0.0
1701961237.425394,0.0,-1.0,0.0,0.0,0.0,0.0,-2.0,-1.0
1701961237.425394,-1.0,0.0,-2.0,-1.0,0.0,0.0,-2.0,0.0
1701961237.4356568,0.0,-1.0,-1.0,0.0,1.0,2.0,0.0,-1.0
1701961237.4356568,0.0,-1.0,-2.0,-2.0,-1.0,-2.0,0.0,0.0
1701961237.4457643,-1.0,-1.0,-2.0,0.0,0.0,0.0,-1.0,0.0
1701961237.4457643,0.0,-1.0,0.0,-1.0,-1.0,-2.0,-1.0,-1.0
1701961237.4757557,0.0,-3.0,-3.0,-1.0,0.0,-2.0,-2.0,-2.0
1701961237.4757557,-3.0,-1.0,-3.0,-1.0,-3.0,-1.0,-2.0,-1.0
1701961237.4757557,-2.0,0.0,1.0,1.0,0.0,0.0,1.0,-2.0
1701961237.4757557,-1.0,-2.0,0.0,-1.0,-1.0,0.0,-1.0,-1.0
1701961237.485798,-2.0,0.0,-2.0,0.0,-3.0,-1.0,1.0,-2.0
1701961237.485798,-1.0,2.0,-1.0,-1.0,0.0,0.0,0.0,-1.0
1701961237.485798,-3.0,0.0,-1.0,-2.0,-2.0,-1.0,-2.0,0.0
1701961237.485798,0.0,-1.0,-3.0,-3.0,-2.0,-1.0,-2.0,0.0
1701961237.4961734,1.0,-1.0,-1.0,0.0,-1.0,0.0,-3.0,-1.0
1701961237.4961734,-3.0,-3.0,0.0,0.0,0.0,-2.0,-1.0,1.0
1701961237.5157568,-1.0,-1.0,-1.0,-2.0,-1.0,0.0,-1.0,-1.0
1701961237.5157568,0.0,-1.0,-1.0,-2.0,1.0,-1.0,-1.0,0.0
1701961237.5157568,-2.0,-2.0,0.0,-1.0,-1.0,-1.0,-3.0,0.0
1701961237.5157568,-3.0,-2.0,-2.0,-1.0,-2.0,-2.0,-1.0,-2.0
1701961237.5258734,0.0,-2.0,-1.0,-1.0,-2.0,-1.0,-2.0,-3.0
1701961237.5258734,-2.0,0.0,-1.0,0.0,-1.0,-2.0,-1.0,0.0
1701961237.5462008,-1.0,-1.0,0.0,1.0,-1.0,-2.0,-1.0,1.0
1701961237.5462008,2.0,-1.0,0.0,-1.0,-1.0,-1.0,-1.0,-1.0
1701961237.5462008,1.0,-1.0,-3.0,-1.0,-1.0,0.0,0.0,-1.0
1701961237.5462008,-1.0,-1.0,-2.0,-2.0,-1.0,-2.0,-3.0,-3.0
1701961237.5560768,-2.0,0.0,-1.0,-4.0,0.0,0.0,-1.0,1.0
1701961237.5560768,-2.0,-2.0,0.0,-1.0,-1.0,0.0,-2.0,-2.0
1701961237.565859,0.0,0.0,-2.0,0.0,0.0,-2.0,0.0,-3.0
1701961237.565859,-1.0,-3.0,-2.0,1.0,-1.0,0.0,0.0,1.0
1701961237.5757627,-1.0,-1.0,0.0,-1.0,-1.0,-3.0,-1.0,-1.0
1701961237.5757627,0.0,0.0,-1.0,-1.0,-2.0,0.0,-1.0,-1.0
1701961237.5858712,0.0,-1.0,-1.0,0.0,-1.0,-1.0,-2.0,0.0
1701961237.5858712,-2.0,-2.0,0.0,0.0,-1.0,1.0,-1.0,-1.0
1701961237.605817,0.0,-2.0,0.0,-1.0,0.0,-2.0,1.0,-1.0
1701961237.605817,-1.0,0.0,-2.0,-1.0,-1.0,0.0,-1.0,-1.0
1701961237.605817,-2.0,-1.0,0.0,-1.0,-1.0,-1.0,-2.0,-1.0
1701961237.605817,-1.0,-2.0,-2.0,1.0,-1.0,-2.0,-2.0,-2.0
1701961237.6157675,1.0,-1.0,0.0,-1.0,-3.0,1.0,0.0,-2.0
1701961237.6157675,0.0,-2.0,2.0,-1.0,-1.0,-1.0,-2.0,-3.0
1701961237.6258237,0.0,-1.0,-2.0,-3.0,-1.0,-1.0,-1.0,-1.0
1701961237.6258237,-1.0,0.0,-1.0,-2.0,-1.0,-2.0,1.0,-1.0
1701961237.6457565,-1.0,0.0,-1.0,-1.0,-1.0,-2.0,-2.0,-1.0
1701961237.6457565,-2.0,0.0,-1.0,0.0,0.0,-3.0,0.0,-2.0
1701961237.6457565,-1.0,-1.0,-1.0,0.0,-1.0,0.0,-2.0,-1.0
1701961237.6457565,-2.0,-1.0,0.0,-2.0,-1.0,0.0,-1.0,-2.0
1701961237.665831,-2.0,0.0,-1.0,-2.0,-2.0,0.0,-1.0,-2.0
1701961237.665831,-1.0,0.0,-2.0,-2.0,-2.0,-2.0,-2.0,0.0
1701961237.665831,0.0,-1.0,0.0,1.0,-2.0,-2.0,0.0,-1.0
1701961237.665831,-1.0,-1.0,-2.0,-3.0,-1.0,-2.0,-1.0,-2.0
1701961237.6857557,-1.0,-1.0,-2.0,-2.0,-1.0,0.0,-2.0,-1.0
1701961237.6857557,-1.0,0.0,-1.0,-1.0,-1.0,-2.0,0.0,-1.0
1701961237.6857557,0.0,-1.0,-1.0,-2.0,-2.0,1.0,0.0,0.0
1701961237.6857557,-1.0,-1.0,0.0,0.0,-3.0,-1.0,-2.0,-1.0
1701961237.6959693,-2.0,-2.0,-1.0,-2.0,-1.0,-2.0,-2.0,-1.0
1701961237.6959693,0.0,-1.0,-2.0,0.0,-2.0,-1.0,0.0,-1.0
1701961237.7058265,0.0,-3.0,-1.0,1.0,-1.0,-4.0,0.0,-2.0
1701961237.7058265,0.0,-1.0,-3.0,0.0,0.0,-2.0,1.0,-1.0
1701961237.7258487,-1.0,-2.0,0.0,0.0,-2.0,-1.0,0.0,-1.0
1701961237.7258487,-1.0,1.0,-2.0,-2.0,-1.0,-1.0,1.0,-1.0
1701961237.7258487,-2.0,-1.0,-1.0,-3.0,0.0,-1.0,-1.0,-1.0
1701961237.7258487,1.0,0.0,0.0,0.0,0.0,-1.0,-2.0,1.0
1701961237.7558508,0.0,-1.0,0.0,-1.0,-1.0,-1.0,2.0,-1.0
1701961237.7558508,-2.0,0.0,-2.0,-1.0,1.0,-1.0,-1.0,0.0
1701961237.7558508,-2.0,0.0,-2.0,-1.0,-1.0,-2.0,-3.0,0.0
1701961237.7558508,0.0,0.0,-2.0,-2.0,0.0,-1.0,-2.0,-2.0
1701961237.7558508,-3.0,-2.0,-1.0,-1.0,-2.0,0.0,-2.0,-1.0
1701961237.7558508,-1.0,-2.0,0.0,-2.0,0.0,-1.0,-2.0,0.0
1701961237.7558508,-3.0,-1.0,-1.0,-3.0,-1.0,-2.0,-1.0,1.0
1701961237.7558508,-1.0,-2.0,-2.0,-1.0,0.0,0.0,-2.0,0.0
1701961237.7858484,-1.0,1.0,-2.0,0.0,-2.0,-1.0,-2.0,-1.0
1701961237.7866654,-1.0,-1.0,-1.0,0.0,-1.0,-1.0,-1.0,-2.0
1701961237.7876632,-2.0,-3.0,-1.0,-1.0,-3.0,-1.0,-1.0,-2.0
1701961237.7876632,-2.0,-1.0,0.0,-2.0,-2.0,0.0,0.0,-1.0
1701961237.7994158,-1.0,0.0,-1.0,0.0,-3.0,-1.0,-1.0,-1.0
1701961237.8004982,0.0,0.0,0.0,-3.0,0.0,0.0,0.0,0.0
1701961237.8182938,-1.0,0.0,-3.0,-2.0,-1.0,0.0,-1.0,-1.0
1701961237.8182938,-1.0,-2.0,-4.0,-1.0,0.0,-2.0,0.0,-2.0
1701961237.82829,-1.0,-4.0,-3.0,-1.0,0.0,-1.0,0.0,-1.0
1701961237.82829,-1.0,-1.0,-1.0,0.0,-1.0,-1.0,-3.0,-2.0
1701961237.82829,-1.0,0.0,0.0,-1.0,-1.0,-1.0,-1.0,-2.0
1701961237.82829,-2.0,-1.0,0.0,-1.0,1.0,-2.0,-2.0,-1.0
1701961237.8484306,-1.0,1.0,0.0,-2.0,0.0,0.0,0.0,-1.0
1701961237.8484306,0.0,-2.0,-1.0,-1.0,-2.0,-1.0,-1.0,-2.0
1701961237.8484306,-1.0,-3.0,-3.0,-1.0,0.0,-1.0,-2.0,-1.0
1701961237.8484306,-1.0,0.0,-1.0,-2.0,-1.0,-1.0,0.0,-2.0
1701961237.8587234,0.0,-1.0,0.0,-3.0,-1.0,-2.0,-2.0,-1.0
1701961237.8587234,-2.0,-1.0,-2.0,1.0,-2.0,2.0,-2.0,-1.0
1701961237.8587234,1.0,2.0,-1.0,0.0,-1.0,-1.0,0.0,-2.0
1701961237.8587234,-1.0,-1.0,1.0,0.0,-1.0,-1.0,-1.0,0.0
1701961237.87884,-1.0,-1.0,0.0,-2.0,1.0,-2.0,-1.0,-1.0
1701961237.87884,-2.0,-2.0,-1.0,-1.0,-1.0,0.0,-2.0,1.0
1701961237.87884,-1.0,-1.0,0.0,1.0,-1.0,0.0,-1.0,1.0
1701961237.87884,-2.0,-2.0,-1.0,0.0,0.0,-2.0,-2.0,-1.0
1701961237.9084315,-1.0,0.0,-2.0,-1.0,-1.0,-3.0,0.0,1.0
1701961237.9084315,0.0,0.0,-1.0,-1.0,1.0,-3.0,-1.0,-2.0
1701961237.9084315,0.0,-1.0,-1.0,-2.0,-2.0,-2.0,-1.0,-2.0
1701961237.9084315,0.0,-1.0,-2.0,-2.0,-3.0,0.0,1.0,-2.0
1701961237.9187686,-2.0,-2.0,-2.0,-2.0,0.0,-1.0,-1.0,-2.0
1701961237.9187686,-1.0,-3.0,-2.0,-2.0,-1.0,-2.0,0.0,-2.0
1701961237.9187686,1.0,-1.0,-1.0,0.0,-1.0,0.0,0.0,0.0
1701961237.9187686,0.0,-2.0,-2.0,-1.0,-1.0,0.0,-1.0,-2.0
1701961237.9387453,-1.0,-2.0,-2.0,-1.0,-3.0,-2.0,-2.0,-1.0
1701961237.9387453,-1.0,2.0,0.0,-1.0,-1.0,0.0,-1.0,0.0
1701961237.9387453,-1.0,-2.0,1.0,0.0,1.0,-1.0,-2.0,-1.0
1701961237.9387453,-2.0,-1.0,-2.0,-3.0,-2.0,-1.0,-2.0,0.0
1701961237.9684317,2.0,-1.0,-3.0,1.0,-1.0,-1.0,-1.0,-1.0
1701961237.9684317,-1.0,-3.0,1.0,0.0,0.0,-2.0,0.0,0.0
1701961237.9684317,-1.0,-1.0,-2.0,-3.0,-1.0,-2.0,-1.0,0.0
1701961237.9684317,0.0,0.0,-1.0,1.0,1.0,0.0,-1.0,-2.0
1701961237.9786382,-2.0,-1.0,-2.0,-2.0,-1.0,-1.0,-3.0,0.0
1701961237.9786382,-1.0,-1.0,-1.0,1.0,-1.0,-1.0,-1.0,-2.0
1701961237.9884377,0.0,-1.0,-1.0,-2.0,-2.0,-2.0,1.0,1.0
1701961237.9884377,-1.0,-2.0,0.0,-1.0,1.0,-1.0,0.0,-1.0
1701961237.9987123,0.0,0.0,1.0,-2.0,-1.0,0.0,-1.0,-1.0
1701961237.9987123,-1.0,-2.0,-3.0,-1.0,-1.0,-2.0,-2.0,-1.0
1701961237.9987123,-2.0,-3.0,-2.0,1.0,-1.0,-1.0,-1.0,0.0
1701961237.9987123,-2.0,-1.0,-1.0,0.0,-2.0,0.0,-2.0,-1.0
1701961238.0284348,-2.0,-3.0,-1.0,0.0,0.0,0.0,-1.0,-2.0
1701961238.0284348,0.0,0.0,-1.0,-3.0,1.0,-1.0,0.0,-2.0
1701961238.0284348,0.0,-2.0,1.0,0.0,-1.0,1.0,0.0,-2.0
1701961238.0284348,-2.0,0.0,-2.0,-2.0,-2.0,-1.0,0.0,0.0
1701961238.0386152,0.0,0.0,-1.0,-2.0,0.0,0.0,0.0,0.0
1701961238.0386152,-2.0,-1.0,-3.0,-1.0,-2.0,1.0,-2.0,-1.0
1701961238.0484362,0.0,-1.0,-2.0,-1.0,0.0,1.0,-1.0,0.0
1701961238.0484362,0.0,-1.0,-1.0,0.0,0.0,-1.0,-1.0,-1.0
1701961238.058744,-1.0,0.0,-3.0,0.0,-1.0,-1.0,0.0,-1.0
1701961238.058744,-1.0,0.0,0.0,0.0,-1.0,0.0,-1.0,1.0
1701961238.0784326,-2.0,-1.0,-1.0,0.0,0.0,-1.0,0.0,0.0
1701961238.0784326,-1.0,-2.0,-1.0,-2.0,-1.0,-1.0,-1.0,-1.0
1701961238.0884638,1.0,-1.0,0.0,-1.0,0.0,-2.0,-1.0,-1.0
1701961238.0884638,0.0,-2.0,-2.0,-1.0,-1.0,-1.0,-1.0,-1.0
1701961238.0884638,-1.0,1.0,-1.0,-1.0,-3.0,-1.0,-2.0,0.0
1701961238.0884638,0.0,-1.0,0.0,-1.0,-1.0,-2.0,-1.0,1.0
1701961238.0984342,-1.0,-1.0,-1.0,-1.0,-2.0,0.0,0.0,2.0
1701961238.0984342,-1.0,-1.0,-2.0,-1.0,-3.0,-3.0,1.0,-2.0
1701961238.1084332,-1.0,-2.0,0.0,-1.0,0.0,0.0,-1.0,-1.0
1701961238.1084332,1.0,-1.0,0.0,1.0,-1.0,-2.0,-2.0,-2.0
1701961238.1187882,0.0,1.0,-1.0,-1.0,-3.0,-1.0,-1.0,-1.0
1701961238.1187882,1.0,0.0,-2.0,-1.0,-1.0,-1.0,0.0,-1.0
1701961238.1284318,0.0,0.0,-2.0,-1.0,-1.0,-2.0,-2.0,-1.0
1701961238.1284318,0.0,-1.0,1.0,-1.0,-2.0,-2.0,0.0,0.0
1701961238.1384647,-1.0,-2.0,0.0,0.0,1.0,-2.0,-1.0,-3.0
1701961238.1384647,-1.0,-1.0,-1.0,-1.0,-1.0,-1.0,-1.0,-1.0
1701961238.1384647,-2.0,-2.0,0.0,-2.0,-1.0,-1.0,-1.0,-3.0
1701961238.1384647,-2.0,-1.0,0.0,-1.0,-2.0,0.0,0.0,0.0
1701961238.1684365,-2.0,-2.0,-1.0,0.0,1.0,-3.0,-1.0,-3.0
1701961238.1684365,1.0,-2.0,-2.0,0.0,-1.0,-2.0,-1.0,1.0
1701961238.1684365,-1.0,-1.0,-2.0,0.0,-1.0,0.0,-2.0,0.0
1701961238.1684365,-1.0,0.0,0.0,-1.0,-1.0,-1.0,-2.0,-1.0
1701961238.1787236,-1.0,2.0,1.0,-1.0,-1.0,1.0,-1.0,-1.0
1701961238.1787236,-2.0,-1.0,-1.0,-1.0,-1.0,0.0,0.0,-1.0
1701961238.1884313,0.0,-1.0,0.0,-1.0,-1.0,-2.0,-2.0,-1.0
1701961238.1884313,0.0,-1.0,-2.0,-1.0,-2.0,0.0,-2.0,0.0
1701961238.198467,-1.0,0.0,-2.0,0.0,1.0,-1.0,-2.0,-2.0
1701961238.198467,-3.0,-1.0,-2.0,-1.0,0.0,-3.0,-3.0,-1.0
1701961238.198467,0.0,0.0,0.0,-2.0,-1.0,-1.0,0.0,-1.0
1701961238.198467,-1.0,-1.0,-3.0,0.0,-1.0,-1.0,-2.0,-1.0
1701961238.218821,-1.0,0.0,-1.0,-2.0,0.0,-2.0,-1.0,-2.0
1701961238.218821,0.0,-2.0,0.0,0.0,-2.0,-2.0,-1.0,-3.0
1701961238.2284327,-1.0,-2.0,-4.0,-2.0,-2.0,-1.0,0.0,-1.0
1701961238.2284327,-1.0,0.0,-2.0,-1.0,-1.0,-1.0,0.0,0.0
1701961238.238432,-2.0,-2.0,0.0,-1.0,-1.0,-1.0,-3.0,-2.0
1701961238.238432,0.0,-1.0,-1.0,1.0,-1.0,-1.0,-1.0,0.0
1701961238.248624,-1.0,-2.0,-1.0,-1.0,-1.0,-2.0,-1.0,-2.0
1701961238.248624,0.0,-1.0,-1.0,-1.0,0.0,-2.0,1.0,-2.0
1701961238.2585046,-1.0,-1.0,-2.0,0.0,-1.0,-1.0,-2.0,1.0
1701961238.2585046,-2.0,-2.0,0.0,-2.0,0.0,-1.0,0.0,-1.0
1701961238.2585046,1.0,-2.0,0.0,-1.0,0.0,-1.0,0.0,-1.0
1701961238.2585046,-1.0,-1.0,0.0,1.0,-1.0,-1.0,0.0,0.0
1701961238.2884388,2.0,-1.0,0.0,-2.0,-1.0,-1.0,0.0,-1.0
1701961238.2884388,-2.0,0.0,-2.0,-1.0,-1.0,0.0,-1.0,-1.0
1701961238.2884388,-1.0,0.0,-1.0,-1.0,-1.0,1.0,-3.0,-2.0
1701961238.2884388,-1.0,-2.0,-1.0,1.0,-3.0,-3.0,-1.0,0.0
1701961238.3174617,-2.0,-2.0,-2.0,-2.0,-1.0,-2.0,-1.0,-1.0
1701961238.3174617,0.0,-2.0,1.0,-1.0,-1.0,-2.0,0.0,-1.0
1701961238.3174617,0.0,0.0,0.0,-1.0,-3.0,0.0,-1.0,-1.0
1701961238.3174617,-2.0,-1.0,-1.0,-2.0,0.0,-1.0,-2.0,-1.0
1701961238.325466,-2.0,0.0,1.0,0.0,-2.0,1.0,0.0,1.0
1701961238.325466,0.0,-1.0,-1.0,-2.0,0.0,-1.0,-2.0,0.0
1701961238.3264644,-1.0,0.0,-3.0,-1.0,1.0,-1.0,0.0,-1.0
1701961238.3264644,-1.0,-2.0,-2.0,-2.0,-2.0,0.0,0.0,0.0
1701961238.3413937,0.0,-2.0,-2.0,0.0,0.0,-1.0,-1.0,-1.0
1701961238.3413937,-1.0,-1.0,0.0,0.0,-2.0,1.0,-3.0,-1.0
1701961238.3413937,-1.0,-2.0,-1.0,0.0,1.0,0.0,-1.0,-1.0
1701961238.3413937,0.0,0.0,1.0,-1.0,0.0,2.0,0.0,-3.0
1701961238.361394,-1.0,-1.0,-1.0,-1.0,0.0,-1.0,0.0,0.0
1701961238.361394,-2.0,0.0,-1.0,-2.0,-1.0,0.0,0.0,0.0
1701961238.361394,-1.0,-2.0,0.0,-1.0,0.0,1.0,-1.0,-1.0
1701961238.361394,-1.0,0.0,-1.0,-1.0,-1.0,-1.0,0.0,-1.0
1701961238.3817332,0.0,-2.0,-1.0,0.0,-1.0,1.0,-1.0,-2.0
1701961238.3817332,-2.0,-1.0,-2.0,-2.0,-1.0,1.0,0.0,-1.0
1701961238.3817332,-4.0,-1.0,-1.0,1.0,-1.0,0.0,-1.0,0.0
1701961238.3817332,-1.0,-1.0,-1.0,-1.0,-1.0,-4.0,0.0,-1.0
1701961238.4017553,-1.0,0.0,-1.0,0.0,-1.0,-2.0,0.0,-1.0
1701961238.4017553,-2.0,-2.0,-1.0,-1.0,-3.0,-1.0,-1.0,-1.0
1701961238.4017553,1.0,-1.0,0.0,-1.0,-1.0,-2.0,-2.0,-2.0
1701961238.4017553,-1.0,-2.0,1.0,-1.0,-1.0,-2.0,0.0,-1.0
1701961238.4213939,-1.0,0.0,-2.0,-2.0,-2.0,-2.0,-2.0,-1.0
1701961238.4213939,0.0,-2.0,-1.0,-2.0,-1.0,-2.0,-3.0,0.0
1701961238.4315383,-1.0,-1.0,-1.0,-1.0,-4.0,-4.0,0.0,-2.0
1701961238.4315383,0.0,-3.0,-2.0,-2.0,-1.0,-2.0,-2.0,-2.0
1701961238.4416287,-1.0,-1.0,0.0,-1.0,-3.0,-1.0,-2.0,0.0
1701961238.4416287,0.0,-2.0,-1.0,-1.0,-1.0,0.0,-1.0,-2.0
1701961238.4416287,-1.0,-2.0,-1.0,0.0,-1.0,-1.0,-1.0,-1.0
1701961238.4416287,-1.0,0.0,0.0,-2.0,0.0,1.0,-2.0,-2.0
1701961238.4813936,-1.0,-1.0,-1.0,-1.0,-1.0,0.0,0.0,-2.0
1701961238.4813936,-1.0,1.0,-2.0,0.0,0.0,0.0,0.0,1.0
1701961238.4813936,0.0,0.0,-1.0,-2.0,-1.0,0.0,-1.0,0.0
1701961238.4813936,-1.0,1.0,-4.0,-2.0,0.0,2.0,-1.0,1.0
1701961238.4813936,0.0,-2.0,-1.0,0.0,-1.0,2.0,0.0,-1.0
1701961238.4813936,-2.0,0.0,0.0,-2.0,1.0,1.0,2.0,-1.0
1701961238.4813936,-1.0,0.0,-1.0,-2.0,0.0,0.0,1.0,0.0
1701961238.4813936,0.0,-1.0,0.0,-1.0,0.0,0.0,0.0,0.0
1701961238.5018108,-2.0,1.0,-1.0,-1.0,-2.0,0.0,-1.0,-2.0
1701961238.5018108,-1.0,-2.0,0.0,-2.0,-2.0,-2.0,-1.0,0.0
1701961238.5018108,0.0,-2.0,-1.0,-1.0,-1.0,-2.0,0.0,-1.0
1701961238.5018108,-1.0,-2.0,0.0,-1.0,-1.0,0.0,0.0,-2.0
1701961238.5313947,0.0,-1.0,-2.0,0.0,0.0,1.0,0.0,-2.0
1701961238.5313947,-1.0,1.0,-1.0,0.0,-2.0,-1.0,-1.0,-2.0
1701961238.5313947,-2.0,1.0,0.0,-1.0,1.0,0.0,0.0,-1.0
1701961238.5313947,0.0,0.0,-3.0,-1.0,-1.0,-1.0,-2.0,-1.0
1701961238.5413923,-1.0,0.0,0.0,-1.0,0.0,-2.0,0.0,-1.0
1701961238.5413923,0.0,-2.0,2.0,-1.0,-1.0,-1.0,-2.0,-1.0
1701961238.5413923,-2.0,0.0,0.0,-2.0,0.0,-3.0,1.0,0.0
1701961238.5413923,-2.0,-2.0,-2.0,-3.0,-1.0,-1.0,0.0,-1.0
1701961238.5618012,0.0,-2.0,-2.0,-2.0,-1.0,-1.0,0.0,1.0
1701961238.5618012,-2.0,-1.0,0.0,-1.0,0.0,-2.0,-1.0,-1.0
1701961238.5618012,-1.0,-1.0,-2.0,-2.0,-2.0,0.0,0.0,0.0
1701961238.5618012,-2.0,-2.0,0.0,-1.0,-1.0,-1.0,0.0,-2.0
1701961238.5813942,-2.0,-1.0,1.0,0.0,-1.0,-1.0,-1.0,0.0
1701961238.5813942,0.0,0.0,-2.0,-1.0,0.0,-1.0,-2.0,-1.0
1701961238.5813942,0.0,0.0,-1.0,1.0,-2.0,-1.0,-2.0,0.0
1701961238.5813942,0.0,-1.0,-1.0,-2.0,0.0,-1.0,-1.0,-1.0
1701961238.6014788,-1.0,-4.0,-3.0,-1.0,-2.0,-1.0,-2.0,0.0
1701961238.6014788,-1.0,-1.0,0.0,1.0,-2.0,-4.0,-2.0,-1.0
1701961238.6014788,-2.0,-1.0,-2.0,-1.0,-2.0,-3.0,-2.0,-1.0
1701961238.6114042,-2.0,-1.0,-1.0,1.0,-2.0,-1.0,-1.0,0.0
1701961238.6413946,-1.0,0.0,0.0,0.0,-2.0,-3.0,0.0,0.0
1701961238.6413946,-1.0,-1.0,-1.0,-2.0,-1.0,1.0,0.0,0.0
1701961238.6413946,-1.0,-2.0,-1.0,0.0,-2.0,0.0,-1.0,-2.0
1701961238.6413946,0.0,1.0,-1.0,0.0,-1.0,-2.0,-1.0,-2.0
1701961238.6413946,0.0,0.0,-2.0,-2.0,-4.0,-1.0,-1.0,-3.0
1701961238.6413946,0.0,0.0,-1.0,-1.0,2.0,1.0,0.0,-1.0
1701961238.6413946,0.0,-2.0,-2.0,-3.0,0.0,0.0,0.0,-2.0
1701961238.6413946,0.0,0.0,-2.0,-2.0,0.0,-1.0,-1.0,1.0
1701961238.6617916,-2.0,0.0,0.0,-2.0,0.0,-3.0,0.0,-2.0
1701961238.6617916,1.0,1.0,-1.0,-1.0,-2.0,-4.0,-1.0,-3.0
1701961238.6617916,-2.0,-1.0,0.0,0.0,-1.0,0.0,-1.0,0.0
1701961238.6617916,0.0,-1.0,0.0,-1.0,-1.0,-1.0,1.0,0.0
1701961238.6913939,0.0,-2.0,1.0,-3.0,1.0,0.0,-3.0,-1.0
1701961238.6913939,-1.0,-2.0,-1.0,-1.0,-3.0,-1.0,-1.0,-2.0
1701961238.6913939,0.0,0.0,-1.0,0.0,0.0,-1.0,-1.0,-1.0
1701961238.6913939,-2.0,-2.0,-2.0,0.0,-1.0,-2.0,-2.0,-1.0
1701961238.7017365,0.0,0.0,0.0,0.0,-1.0,-2.0,-2.0,0.0
1701961238.7017365,-1.0,-3.0,-3.0,-2.0,0.0,1.0,-1.0,0.0
1701961238.7017365,-1.0,0.0,0.0,-2.0,0.0,-3.0,-2.0,-2.0
1701961238.7017365,-1.0,0.0,-3.0,0.0,-1.0,-2.0,0.0,-1.0
1701961238.7213953,-2.0,0.0,-1.0,-1.0,-2.0,0.0,-1.0,-1.0
1701961238.7213953,-1.0,0.0,-2.0,-1.0,0.0,0.0,-3.0,0.0
1701961238.7213953,-1.0,-1.0,-2.0,-2.0,-2.0,0.0,-1.0,1.0
1701961238.7213953,0.0,-1.0,0.0,-1.0,-1.0,-1.0,-1.0,0.0
1701961238.7417226,-1.0,0.0,0.0,0.0,-1.0,-2.0,1.0,-1.0
1701961238.7417226,-1.0,-2.0,2.0,-1.0,0.0,-3.0,0.0,-1.0
1701961238.7417226,0.0,-1.0,1.0,-1.0,-1.0,0.0,0.0,-3.0
1701961238.7417226,0.0,-1.0,0.0,-2.0,-1.0,0.0,-1.0,-1.0
1701961238.771425,1.0,-1.0,-2.0,-2.0,0.0,-1.0,-1.0,-1.0
1701961238.771425,-2.0,2.0,0.0,1.0,0.0,-1.0,-1.0,0.0
1701961238.771425,-2.0,-1.0,-3.0,-1.0,0.0,-2.0,0.0,-1.0
1701961238.771425,-2.0,-1.0,1.0,-1.0,-2.0,0.0,0.0,0.0
1701961238.781465,1.0,0.0,0.0,0.0,-1.0,-1.0,1.0,-1.0
1701961238.781465,-1.0,-1.0,-1.0,-1.0,-1.0,-1.0,0.0,-2.0
1701961238.781465,-2.0,-1.0,-2.0,-2.0,-2.0,0.0,0.0,1.0
1701961238.781465,-1.0,-1.0,-1.0,-2.0,-2.0,-1.0,0.0,-4.0
1701961238.8017385,0.0,-1.0,0.0,-1.0,-1.0,-1.0,-1.0,-4.0
1701961238.8017385,0.0,1.0,1.0,-2.0,0.0,0.0,0.0,-2.0
1701961238.8017385,0.0,0.0,1.0,1.0,0.0,-2.0,-1.0,0.0
1701961238.8017385,-2.0,-1.0,-2.0,0.0,-2.0,-2.0,-2.0,-1.0
1701961238.8213942,-1.0,-1.0,-1.0,-3.0,-2.0,0.0,-2.0,0.0
1701961238.8213942,0.0,-1.0,-1.0,-1.0,-3.0,-2.0,-2.0,-1.0
1701961238.8213942,1.0,0.0,-1.0,-1.0,-2.0,-2.0,-1.0,0.0
1701961238.8213942,1.0,1.0,-2.0,-2.0,1.0,-1.0,-3.0,0.0
1701961238.8510015,-1.0,-2.0,-1.0,-1.0,-2.0,-2.0,-2.0,-2.0
1701961238.8510015,-1.0,-1.0,-2.0,0.0,-1.0,0.0,-1.0,-1.0
1701961238.8520133,-2.0,1.0,-1.0,-1.0,1.0,-2.0,1.0,-3.0
1701961238.8520133,0.0,-2.0,-1.0,-1.0,-2.0,-2.0,-1.0,-1.0
1701961238.8680563,-1.0,-2.0,-1.0,-1.0,0.0,-2.0,0.0,0.0
1701961238.8680563,-2.0,-4.0,-2.0,-4.0,1.0,-2.0,0.0,-2.0
1701961238.8680563,-3.0,-2.0,1.0,1.0,-2.0,-1.0,-3.0,-1.0
1701961238.8680563,0.0,-2.0,-2.0,2.0,-1.0,-1.0,-1.0,-1.0
1701961238.8941104,-2.0,0.0,-2.0,-4.0,0.0,-2.0,0.0,-1.0
1701961238.8941104,-3.0,-2.0,0.0,1.0,0.0,-3.0,-2.0,0.0
1701961238.8941104,0.0,-2.0,-2.0,0.0,0.0,-1.0,-1.0,-2.0
1701961238.8941104,-1.0,-2.0,-1.0,-3.0,-3.0,-2.0,-2.0,0.0
1701961238.8941104,-1.0,-1.0,0.0,-1.0,-2.0,0.0,-2.0,1.0
1701961238.8941104,-1.0,-3.0,0.0,-2.0,-4.0,-2.0,-1.0,-1.0
1701961238.9040098,-1.0,-1.0,0.0,-1.0,0.0,-1.0,-2.0,-2.0
1701961238.9040098,-1.0,-1.0,0.0,-1.0,-1.0,0.0,-1.0,-1.0
1701961238.9238503,-2.0,-2.0,1.0,1.0,-1.0,1.0,0.0,-1.0
1701961238.9238503,0.0,0.0,-3.0,-1.0,0.0,-1.0,2.0,-1.0
1701961238.9238503,-1.0,0.0,-1.0,-2.0,-3.0,-1.0,0.0,0.0
1701961238.9238503,-2.0,1.0,-1.0,-1.0,1.0,2.0,0.0,-3.0
1701961238.9443831,-1.0,1.0,-2.0,-1.0,0.0,1.0,0.0,-3.0
1701961238.9443831,-2.0,-1.0,0.0,-1.0,-2.0,0.0,0.0,-1.0
1701961238.9443831,-1.0,-1.0,-1.0,-1.0,-1.0,1.0,0.0,0.0
1701961238.9443831,-1.0,-1.0,-2.0,-2.0,-1.0,1.0,-2.0,1.0
1701961238.9547129,0.0,-1.0,-1.0,-1.0,1.0,1.0,-2.0,-1.0
1701961238.9547129,0.0,-1.0,-1.0,-2.0,1.0,-1.0,0.0,0.0
1701961238.974395,-1.0,-1.0,-1.0,-3.0,0.0,0.0,2.0,0.0
1701961238.974395,-2.0,-3.0,1.0,0.0,0.0,-1.0,-1.0,-1.0
1701961238.9846373,-1.0,-1.0,-1.0,0.0,-1.0,-2.0,-2.0,-1.0
1701961238.9846373,-1.0,0.0,-1.0,-1.0,-3.0,0.0,-2.0,0.0
1701961238.9846373,0.0,-1.0,0.0,-1.0,-3.0,0.0,-2.0,-1.0
1701961238.9846373,0.0,0.0,-2.0,0.0,0.0,-1.0,-2.0,-2.0
1701961239.0048058,-1.0,-1.0,-2.0,-1.0,-2.0,-1.0,1.0,-1.0
1701961239.0048058,-2.0,-1.0,-1.0,-1.0,0.0,0.0,-1.0,-2.0
1701961239.0048058,-2.0,-1.0,-3.0,0.0,-1.0,1.0,1.0,0.0
1701961239.0048058,-2.0,0.0,0.0,-2.0,-1.0,1.0,0.0,-1.0
1701961239.0147352,-1.0,-1.0,-2.0,-2.0,0.0,-2.0,0.0,0.0
1701961239.0147352,-1.0,-1.0,-2.0,1.0,-2.0,-2.0,0.0,-1.0
1701961239.034395,-1.0,-2.0,0.0,-2.0,-1.0,-1.0,-2.0,-2.0
1701961239.034395,-2.0,-2.0,-2.0,-1.0,-2.0,-3.0,-1.0,0.0
1701961239.0444317,-1.0,-2.0,-2.0,-1.0,-1.0,-1.0,-1.0,1.0
1701961239.0444317,1.0,-1.0,-1.0,-2.0,-1.0,1.0,1.0,0.0
1701961239.0444317,-2.0,-3.0,0.0,-1.0,-1.0,-1.0,-1.0,-1.0
1701961239.0444317,-1.0,1.0,-2.0,1.0,-1.0,-1.0,0.0,-2.0
1701961239.0646133,-3.0,-2.0,-2.0,-2.0,-3.0,-1.0,1.0,-1.0
1701961239.0646133,-1.0,-2.0,-1.0,-1.0,-1.0,-1.0,-1.0,-2.0
1701961239.0646133,-2.0,-1.0,-2.0,-2.0,-2.0,-4.0,0.0,0.0
1701961239.0646133,-1.0,-1.0,-1.0,-1.0,-2.0,-1.0,-3.0,-2.0
1701961239.0943944,0.0,-1.0,-2.0,0.0,-1.0,-2.0,-1.0,-1.0
1701961239.0943944,-1.0,0.0,-3.0,-2.0,-2.0,-2.0,-2.0,-2.0
1701961239.0943944,0.0,-1.0,-3.0,0.0,0.0,-4.0,-2.0,-1.0
1701961239.0943944,-1.0,-2.0,0.0,-1.0,-4.0,-1.0,0.0,-1.0
1701961239.1046474,0.0,1.0,0.0,-1.0,0.0,0.0,-1.0,-1.0
1701961239.1046474,-2.0,-2.0,-2.0,-2.0,0.0,-1.0,-1.0,-3.0
1701961239.1046474,-2.0,0.0,-2.0,-2.0,0.0,-1.0,0.0,-3.0
1701961239.1046474,-1.0,-2.0,-2.0,-1.0,-1.0,-1.0,-1.0,-2.0
1701961239.1245766,-1.0,-2.0,0.0,0.0,-2.0,0.0,1.0,-1.0
1701961239.1245766,1.0,-1.0,0.0,0.0,0.0,0.0,-2.0,0.0
1701961239.1344092,-1.0,1.0,-1.0,0.0,-1.0,-1.0,0.0,-1.0
1701961239.1344092,-1.0,-2.0,-1.0,1.0,-1.0,-1.0,-1.0,0.0
1701961239.1444283,-2.0,0.0,-1.0,-1.0,0.0,-3.0,-2.0,-1.0
1701961239.1444283,0.0,-2.0,-2.0,0.0,-2.0,-2.0,-3.0,0.0
1701961239.1444283,-1.0,-2.0,-1.0,-1.0,-2.0,-1.0,-2.0,-1.0
1701961239.1444283,0.0,0.0,-1.0,-2.0,0.0,-2.0,-1.0,-1.0
1701961239.1647182,0.0,-2.0,1.0,-2.0,0.0,0.0,-2.0,-1.0
1701961239.1647182,-1.0,-1.0,0.0,0.0,-2.0,0.0,0.0,1.0
1701961239.1647182,-1.0,-1.0,-2.0,-2.0,-1.0,-1.0,-1.0,-2.0
1701961239.1647182,-1.0,-1.0,-1.0,-3.0,0.0,-3.0,-1.0,0.0
1701961239.1847184,-1.0,0.0,-1.0,-1.0,-1.0,-1.0,0.0,-1.0
1701961239.1847184,0.0,0.0,-1.0,-2.0,-2.0,-2.0,1.0,0.0
1701961239.1847184,-1.0,0.0,-1.0,0.0,1.0,0.0,-3.0,1.0
1701961239.1847184,-2.0,-1.0,-1.0,1.0,0.0,-1.0,-2.0,0.0
1701961239.2044225,-1.0,-1.0,-2.0,0.0,-2.0,0.0,-1.0,-3.0
1701961239.2044225,-1.0,-1.0,-2.0,1.0,0.0,-1.0,0.0,-1.0
1701961239.2044225,-1.0,-1.0,-1.0,0.0,-3.0,-3.0,-1.0,0.0
1701961239.2044225,-1.0,0.0,0.0,-2.0,-1.0,1.0,-1.0,-1.0
1701961239.2245624,-2.0,0.0,0.0,-2.0,-2.0,-1.0,-2.0,0.0
1701961239.2245624,-1.0,-1.0,-2.0,-1.0,0.0,-1.0,-2.0,-1.0
1701961239.2245624,-1.0,0.0,0.0,-1.0,-1.0,-1.0,0.0,-1.0
1701961239.2245624,-1.0,-1.0,-2.0,-2.0,0.0,-1.0,0.0,-1.0
1701961239.244709,-3.0,-2.0,-3.0,-2.0,-1.0,-1.0,-8.0,-7.0
1701961239.244709,-2.0,-2.0,0.0,-2.0,0.0,0.0,-1.0,-2.0
1701961239.244709,-1.0,0.0,-1.0,-4.0,-1.0,0.0,-1.0,-1.0
1701961239.244709,1.0,-1.0,-1.0,-1.0,-2.0,-3.0,-1.0,1.0
1701961239.274396,-2.0,-3.0,-1.0,0.0,-1.0,-3.0,2.0,-1.0
1701961239.274396,-1.0,0.0,-2.0,-2.0,0.0,-1.0,1.0,-1.0
1701961239.274396,0.0,-2.0,-1.0,-1.0,-4.0,-1.0,-2.0,-2.0
1701961239.274396,-2.0,-2.0,-2.0,-2.0,-2.0,0.0,1.0,-5.0
1701961239.2844174,0.0,0.0,-1.0,-2.0,1.0,-1.0,-6.0,3.0
1701961239.2844174,-1.0,-1.0,-1.0,-1.0,-1.0,-1.0,0.0,-2.0
1701961239.2844174,0.0,-4.0,-1.0,-1.0,-2.0,0.0,-2.0,-3.0
1701961239.2844174,0.0,-1.0,-2.0,-1.0,-1.0,-2.0,1.0,0.0
1701961239.3147583,-2.0,0.0,0.0,-1.0,-1.0,1.0,2.0,1.0
1701961239.3147583,0.0,-1.0,-1.0,-1.0,-1.0,0.0,-1.0,0.0
1701961239.3147583,-2.0,-1.0,0.0,0.0,-1.0,-1.0,-2.0,-3.0
1701961239.3147583,-2.0,-1.0,-1.0,0.0,-2.0,-3.0,0.0,-1.0
1701961239.3247721,-1.0,-1.0,-2.0,-1.0,-2.0,-1.0,-1.0,-2.0
1701961239.3247721,-1.0,-1.0,-1.0,-1.0,-1.0,-2.0,2.0,-2.0
1701961239.3347447,0.0,-2.0,0.0,-1.0,-2.0,-1.0,-7.0,-2.0
1701961239.3347447,-3.0,-2.0,0.0,-1.0,-1.0,-1.0,4.0,3.0
1701961239.3443966,0.0,-2.0,-3.0,-1.0,-2.0,-1.0,0.0,-2.0
1701961239.3443966,-2.0,-1.0,1.0,-2.0,-1.0,-2.0,0.0,0.0
1701961239.3443966,-1.0,-1.0,-2.0,-2.0,0.0,0.0,2.0,-2.0
1701961239.3443966,-2.0,-2.0,0.0,1.0,-1.0,0.0,-1.0,-1.0
1701961239.3643966,0.0,0.0,1.0,0.0,-1.0,-3.0,0.0,1.0
1701961239.3643966,-3.0,-1.0,-1.0,0.0,-1.0,-2.0,-4.0,-4.0
1701961239.3643966,0.0,-1.0,0.0,-3.0,1.0,0.0,1.0,3.0
1701961239.3643966,1.0,-1.0,-1.0,-1.0,0.0,-2.0,-5.0,-1.0
1701961239.3903337,-1.0,-4.0,0.0,-1.0,-1.0,-1.0,2.0,-1.0
1701961239.3903337,1.0,0.0,-1.0,-1.0,-1.0,-2.0,-3.0,-1.0
1701961239.3913343,-1.0,-1.0,-1.0,-1.0,0.0,0.0,2.0,-1.0
1701961239.3913343,0.0,-1.0,0.0,-2.0,-1.0,0.0,-3.0,-3.0
1701961239.4070637,-1.0,-1.0,-2.0,-2.0,-1.0,-2.0,-1.0,-3.0
1701961239.4070637,0.0,-2.0,-1.0,0.0,-3.0,0.0,2.0,0.0
1701961239.4070637,-1.0,-1.0,-2.0,0.0,-3.0,-1.0,-2.0,2.0
1701961239.4070637,0.0,-2.0,-2.0,-1.0,-1.0,0.0,-1.0,-2.0
1701961239.4270933,1.0,-1.0,0.0,-3.0,0.0,-2.0,-3.0,0.0
1701961239.4270933,-1.0,-1.0,-1.0,0.0,0.0,-1.0,-2.0,-1.0
1701961239.4270933,0.0,0.0,0.0,-1.0,0.0,0.0,1.0,0.0
1701961239.4270933,-2.0,0.0,-1.0,-2.0,0.0,1.0,0.0,-1.0
1701961239.4475446,1.0,1.0,1.0,-2.0,-1.0,2.0,1.0,-2.0
1701961239.4475446,-1.0,1.0,-2.0,-3.0,-1.0,-1.0,0.0,-2.0
1701961239.4475446,0.0,-1.0,-2.0,-1.0,0.0,0.0,0.0,-2.0
1701961239.4475446,-1.0,0.0,-2.0,-2.0,-1.0,-1.0,-2.0,0.0
1701961239.467556,-1.0,-1.0,-2.0,2.0,-1.0,0.0,1.0,-3.0
1701961239.467556,-1.0,-1.0,0.0,-1.0,-1.0,0.0,-1.0,-1.0
1701961239.467556,-2.0,0.0,-2.0,-2.0,-3.0,-3.0,0.0,0.0
1701961239.467556,-1.0,0.0,-2.0,0.0,-3.0,0.0,-2.0,-1.0
1701961239.487692,-1.0,0.0,-1.0,0.0,-2.0,-2.0,0.0,0.0
1701961239.487692,1.0,-2.0,-3.0,-1.0,-1.0,-1.0,-2.0,-2.0
1701961239.487692,-2.0,-1.0,-1.0,1.0,0.0,-3.0,-1.0,-2.0
1701961239.487692,-1.0,2.0,-1.0,-1.0,0.0,0.0,-2.0,0.0
1701961239.5079389,-2.0,-1.0,-2.0,1.0,-2.0,0.0,0.0,0.0
1701961239.5079389,-2.0,0.0,-1.0,0.0,0.0,-2.0,3.0,1.0
1701961239.5079389,1.0,0.0,-2.0,-3.0,1.0,0.0,0.0,0.0
1701961239.5079389,-3.0,-3.0,0.0,-2.0,-4.0,-4.0,-1.0,-4.0
1701961239.5275567,-2.0,1.0,-1.0,-1.0,-1.0,-1.0,-2.0,-1.0
1701961239.5275567,0.0,-1.0,-2.0,2.0,1.0,-1.0,-2.0,0.0
1701961239.5275567,-2.0,-2.0,-1.0,0.0,-3.0,-1.0,-2.0,-2.0
1701961239.5275567,-2.0,-2.0,-1.0,0.0,-3.0,0.0,-1.0,-1.0
1701961239.5478976,-3.0,-3.0,-2.0,-5.0,-3.0,-2.0,-3.0,1.0
1701961239.5478976,-1.0,-3.0,-1.0,2.0,0.0,-1.0,-3.0,-2.0
1701961239.5478976,0.0,0.0,2.0,-1.0,-2.0,-2.0,-2.0,-1.0
1701961239.5478976,-1.0,0.0,0.0,-2.0,2.0,0.0,0.0,0.0
1701961239.5679488,0.0,0.0,0.0,-1.0,-2.0,-1.0,-1.0,-2.0
1701961239.5679488,-2.0,0.0,-1.0,-4.0,-4.0,-2.0,0.0,0.0
1701961239.5679488,-1.0,-1.0,0.0,1.0,0.0,0.0,0.0,0.0
1701961239.5679488,-1.0,-1.0,0.0,-2.0,-2.0,-1.0,-1.0,-1.0
1701961239.58756,-2.0,1.0,-1.0,0.0,1.0,1.0,0.0,-1.0
1701961239.58756,0.0,-1.0,-1.0,1.0,1.0,0.0,-2.0,1.0
1701961239.6079278,0.0,0.0,-3.0,0.0,1.0,0.0,-1.0,-2.0
1701961239.6079278,-1.0,1.0,-1.0,0.0,-2.0,3.0,0.0,0.0
1701961239.6079278,-1.0,-1.0,0.0,-1.0,1.0,0.0,1.0,-1.0
1701961239.6079278,0.0,-1.0,-1.0,-4.0,-2.0,0.0,1.0,-2.0
1701961239.6079278,-1.0,-2.0,-2.0,-2.0,-1.0,1.0,0.0,0.0
1701961239.6079278,-1.0,-3.0,-2.0,-1.0,1.0,1.0,1.0,1.0
1701961239.627932,-1.0,-1.0,0.0,-1.0,0.0,0.0,-2.0,-1.0
1701961239.627932,-4.0,2.0,0.0,-2.0,-1.0,1.0,-1.0,-1.0
1701961239.627932,0.0,1.0,1.0,-1.0,-1.0,1.0,-1.0,0.0
1701961239.627932,-1.0,0.0,-1.0,0.0,-1.0,-2.0,-1.0,0.0
1701961239.6475596,0.0,-1.0,-3.0,-2.0,-2.0,0.0,0.0,-1.0
1701961239.6475596,-1.0,-1.0,-2.0,-2.0,-1.0,-1.0,0.0,-2.0
1701961239.6576402,0.0,-2.0,0.0,-1.0,-1.0,-1.0,-2.0,-1.0
1701961239.6576402,-1.0,-3.0,0.0,-3.0,-3.0,-3.0,-3.0,-2.0
1701961239.667771,-1.0,-1.0,3.0,2.0,2.0,-1.0,-1.0,0.0
1701961239.667771,0.0,-2.0,-1.0,-2.0,-2.0,-3.0,-2.0,-3.0
1701961239.667771,-2.0,-2.0,-1.0,0.0,-1.0,-4.0,-1.0,-2.0
1701961239.667771,1.0,-1.0,-2.0,-1.0,-2.0,-3.0,-3.0,-3.0
1701961239.6875684,-2.0,-2.0,-2.0,-2.0,-2.0,-3.0,-3.0,-2.0
1701961239.6875684,-1.0,-3.0,-4.0,-1.0,-2.0,-4.0,-4.0,1.0
1701961239.6875684,-1.0,-1.0,0.0,0.0,-4.0,-3.0,-1.0,-1.0
1701961239.6875684,-1.0,-2.0,-3.0,0.0,0.0,-4.0,-2.0,-2.0
1701961239.6975555,0.0,-2.0,1.0,-3.0,-3.0,-2.0,-1.0,-2.0
1701961239.6975555,-1.0,-1.0,1.0,2.0,0.0,0.0,-2.0,0.0
1701961239.7078872,-1.0,-1.0,-1.0,-1.0,-1.0,-2.0,-1.0,-2.0
1701961239.7078872,0.0,-1.0,-1.0,0.0,-1.0,-1.0,-1.0,0.0
1701961239.7278185,-1.0,-1.0,-3.0,-1.0,-2.0,-1.0,-1.0,1.0
1701961239.7278185,-1.0,-1.0,-1.0,-2.0,1.0,-2.0,0.0,-1.0
1701961239.7278185,-2.0,-2.0,1.0,-1.0,0.0,0.0,-3.0,-1.0
1701961239.7278185,-2.0,-1.0,0.0,1.0,-1.0,1.0,0.0,-2.0
1701961239.7575552,0.0,0.0,-2.0,-1.0,0.0,0.0,0.0,-2.0
1701961239.7575552,0.0,-2.0,-2.0,-4.0,-1.0,-1.0,0.0,-1.0
1701961239.7575552,-1.0,-1.0,-2.0,2.0,-1.0,1.0,-1.0,-1.0
1701961239.7575552,-1.0,0.0,0.0,-1.0,0.0,-1.0,0.0,2.0
1701961239.7575552,-3.0,-2.0,-1.0,0.0,0.0,0.0,-1.0,0.0
1701961239.7575552,-2.0,0.0,-2.0,2.0,-1.0,1.0,-1.0,-1.0
1701961239.7677577,1.0,1.0,1.0,0.0,0.0,0.0,0.0,-1.0
1701961239.7677577,0.0,1.0,-2.0,-7.0,-3.0,-1.0,-2.0,0.0
1701961239.7877314,0.0,-2.0,0.0,4.0,3.0,0.0,-1.0,0.0
1701961239.7877314,-1.0,-2.0,1.0,-3.0,-2.0,-1.0,-2.0,-2.0
1701961239.7877314,-1.0,0.0,0.0,1.0,-1.0,0.0,1.0,-1.0
1701961239.7877314,-2.0,-2.0,-1.0,-2.0,-2.0,0.0,-1.0,-1.0
1701961239.8275611,0.0,-1.0,-1.0,2.0,2.0,0.0,1.0,-1.0
1701961239.8275611,-1.0,0.0,-2.0,-3.0,-1.0,0.0,-1.0,0.0
1701961239.8275611,-1.0,-2.0,-2.0,0.0,-1.0,0.0,0.0,-1.0
1701961239.8275611,0.0,-1.0,0.0,2.0,0.0,0.0,0.0,-2.0
1701961239.8275611,-1.0,0.0,0.0,-2.0,-2.0,-2.0,-1.0,-1.0
1701961239.8275611,-1.0,-2.0,-2.0,1.0,0.0,1.0,0.0,0.0
1701961239.8275611,-2.0,-1.0,-2.0,-2.0,0.0,0.0,0.0,-2.0
1701961239.8275611,1.0,-1.0,-1.0,-4.0,-2.0,-1.0,0.0,-1.0
1701961239.8479197,1.0,1.0,0.0,5.0,-2.0,-1.0,-2.0,-1.0
1701961239.8479197,-2.0,-1.0,0.0,-1.0,-1.0,-2.0,-2.0,0.0
1701961239.8479197,-1.0,0.0,-2.0,-1.0,-2.0,-2.0,-1.0,-1.0
1701961239.8479197,-1.0,0.0,-2.0,-2.0,1.0,-2.0,0.0,-3.0
1701961239.8675566,0.0,-2.0,0.0,-2.0,-4.0,-1.0,-3.0,-1.0
1701961239.8675566,-1.0,-1.0,-1.0,-1.0,-2.0,-1.0,-2.0,-2.0
1701961239.8675566,-1.0,-3.0,-2.0,-2.0,-1.0,0.0,-1.0,0.0
1701961239.8675566,2.0,-2.0,1.0,2.0,1.0,-1.0,-1.0,0.0
1701961239.887557,-1.0,-1.0,-1.0,-2.0,-2.0,-1.0,-1.0,-2.0
1701961239.887557,-2.0,1.0,-1.0,-1.0,0.0,-2.0,0.0,1.0
1701961239.887557,0.0,-2.0,-1.0,-1.0,-1.0,-1.0,0.0,-2.0
1701961239.887557,-3.0,-1.0,-2.0,0.0,-2.0,-2.0,-1.0,-1.0
1701961239.9075775,-2.0,-3.0,-3.0,-8.0,-3.0,-3.0,0.0,-1.0
1701961239.9075775,0.0,0.0,-1.0,3.0,-1.0,0.0,-1.0,-2.0
1701961239.9210715,-2.0,-1.0,0.0,-1.0,-2.0,-2.0,-3.0,0.0
1701961239.9210715,-2.0,-1.0,-2.0,-1.0,-1.0,-1.0,2.0,1.0
1701961239.9310064,-1.0,0.0,-1.0,-3.0,0.0,-1.0,1.0,-2.0
1701961239.9310064,-2.0,-1.0,-1.0,-3.0,-1.0,1.0,1.0,-2.0
1701961239.932075,0.0,-2.0,0.0,-1.0,-1.0,1.0,0.0,0.0
1701961239.932075,0.0,-1.0,-2.0,2.0,-2.0,-2.0,-2.0,-2.0
1701961239.9397151,-1.0,0.0,-1.0,-3.0,-3.0,0.0,-2.0,0.0
1701961239.9397151,1.0,-2.0,-1.0,-1.0,-1.0,1.0,1.0,1.0
1701961239.9499888,-1.0,-1.0,-2.0,0.0,-1.0,-3.0,-1.0,-1.0
1701961239.9499888,-3.0,-2.0,-1.0,0.0,-2.0,-1.0,-1.0,-1.0
1701961239.960006,-1.0,-1.0,-2.0,1.0,-1.0,-1.0,-1.0,0.0
1701961239.960006,-3.0,1.0,-1.0,0.0,-3.0,-2.0,-2.0,0.0
1701961239.960006,-1.0,-1.0,-1.0,-3.0,-3.0,-3.0,-2.0,-2.0
1701961239.9700284,0.0,-1.0,0.0,-1.0,0.0,1.0,-2.0,-1.0
1701961239.9900234,-2.0,-1.0,-1.0,-1.0,0.0,0.0,-1.0,-2.0
1701961239.9900234,-1.0,-1.0,0.0,-1.0,-1.0,-2.0,-1.0,0.0
1701961239.9900234,-2.0,0.0,-2.0,-2.0,-1.0,0.0,-1.0,-1.0
1701961239.9900234,-1.0,-1.0,-1.0,-1.0,-1.0,0.0,-1.0,-1.0
1701961240.0003927,-2.0,-1.0,-1.0,-1.0,1.0,1.0,0.0,-2.0
1701961240.0003927,0.0,-1.0,1.0,0.0,0.0,0.0,-1.0,-1.0
1701961240.0104125,-1.0,-1.0,-1.0,-1.0,1.0,-2.0,-1.0,1.0
1701961240.0104125,0.0,-1.0,0.0,-1.0,-1.0,-1.0,-1.0,0.0
1701961240.020053,0.0,0.0,-2.0,-1.0,-2.0,0.0,1.0,0.0
1701961240.020053,-2.0,0.0,-2.0,-2.0,-1.0,-1.0,1.0,-1.0
1701961240.0303023,-1.0,-1.0,-2.0,-1.0,-1.0,-1.0,-1.0,-1.0
1701961240.0303023,1.0,-2.0,-1.0,-1.0,-2.0,-2.0,-2.0,-1.0
1701961240.0500247,-2.0,-1.0,-3.0,-1.0,-2.0,-1.0,-2.0,0.0
1701961240.0500247,-2.0,-2.0,-1.0,-1.0,-3.0,-2.0,-3.0,-1.0
1701961240.0500247,-1.0,-1.0,0.0,-1.0,-1.0,0.0,-1.0,-1.0
1701961240.0500247,0.0,0.0,-1.0,-2.0,-1.0,-2.0,-1.0,-2.0
1701961240.070371,-1.0,-1.0,-1.0,-1.0,0.0,-1.0,-2.0,-4.0
1701961240.070371,1.0,-3.0,0.0,-1.0,-1.0,0.0,0.0,-2.0
1701961240.070371,0.0,-1.0,-1.0,-2.0,0.0,-2.0,-2.0,0.0
1701961240.070371,-2.0,-1.0,0.0,-1.0,0.0,-1.0,-2.0,0.0
1701961240.0803719,0.0,-2.0,-1.0,-1.0,0.0,-2.0,-2.0,2.0
1701961240.0803719,0.0,1.0,-1.0,0.0,-2.0,-2.0,-2.0,-1.0
1701961240.11039,0.0,-1.0,-1.0,0.0,-2.0,-3.0,0.0,0.0
1701961240.11039,-4.0,-2.0,-2.0,1.0,0.0,-1.0,0.0,-3.0
1701961240.11039,-1.0,0.0,1.0,-2.0,-3.0,-3.0,-1.0,0.0
1701961240.11039,-1.0,-1.0,-1.0,-1.0,-1.0,-2.0,0.0,-1.0
1701961240.11039,-2.0,-2.0,0.0,-1.0,-3.0,0.0,-2.0,-1.0
1701961240.11039,-2.0,-2.0,0.0,0.0,-1.0,0.0,-1.0,-1.0
1701961240.130667,0.0,0.0,0.0,0.0,-2.0,-1.0,-2.0,-1.0
1701961240.130667,-1.0,-1.0,-1.0,-1.0,-1.0,-2.0,-2.0,-3.0
1701961240.130667,-2.0,-2.0,-1.0,0.0,1.0,-2.0,-1.0,-1.0
1701961240.130667,-1.0,0.0,0.0,-2.0,0.0,-1.0,-1.0,0.0
1701961240.1503925,0.0,-1.0,0.0,-1.0,-2.0,1.0,-1.0,-1.0
1701961240.1503925,1.0,-2.0,-1.0,-1.0,-2.0,-2.0,-1.0,0.0
1701961240.1503925,-2.0,-1.0,1.0,1.0,2.0,0.0,-1.0,0.0
1701961240.1503925,-1.0,-1.0,-1.0,-3.0,-1.0,-2.0,-2.0,0.0
1701961240.1705582,-2.0,-2.0,0.0,-1.0,-1.0,-1.0,-1.0,1.0
1701961240.1705582,-1.0,0.0,-1.0,-2.0,-2.0,-1.0,-1.0,-3.0
1701961240.1705582,-1.0,-1.0,-2.0,-2.0,-1.0,0.0,0.0,0.0
1701961240.1705582,0.0,1.0,0.0,-2.0,0.0,0.0,1.0,-1.0
1701961240.1906877,0.0,-1.0,-1.0,1.0,0.0,0.0,-1.0,-1.0
1701961240.1906877,-2.0,0.0,0.0,0.0,0.0,1.0,-2.0,0.0
1701961240.1906877,-1.0,-1.0,-1.0,-1.0,-1.0,1.0,1.0,1.0
1701961240.1906877,0.0,-1.0,0.0,-1.0,0.0,0.0,-2.0,-2.0
1701961240.2103884,-1.0,-1.0,-1.0,0.0,-1.0,-1.0,-1.0,-2.0
1701961240.2103884,-2.0,-2.0,-2.0,-1.0,0.0,-1.0,-1.0,-2.0
1701961240.2103884,-2.0,-1.0,0.0,0.0,-2.0,-1.0,1.0,-3.0
1701961240.2103884,-1.0,0.0,-1.0,-1.0,-3.0,-2.0,0.0,0.0
1701961240.2303898,-1.0,1.0,0.0,-2.0,-1.0,-2.0,-1.0,-2.0
1701961240.2303898,-1.0,0.0,-1.0,-2.0,1.0,-1.0,-1.0,0.0
1701961240.2303898,0.0,-1.0,-1.0,-1.0,-1.0,-2.0,-1.0,-1.0
1701961240.2303898,-1.0,-3.0,-1.0,0.0,-1.0,-1.0,1.0,-1.0
1701961240.2508035,-1.0,0.0,-2.0,-2.0,-1.0,-4.0,0.0,0.0
1701961240.2508035,-2.0,-2.0,-1.0,-1.0,-3.0,-1.0,0.0,1.0
1701961240.2508035,-2.0,0.0,-2.0,-1.0,-2.0,-2.0,-1.0,-2.0
1701961240.2508035,-1.0,-1.0,-1.0,-1.0,-1.0,-3.0,-2.0,-1.0
1701961240.2603893,0.0,0.0,-1.0,-1.0,-1.0,-2.0,-1.0,-1.0
1701961240.2603893,0.0,-1.0,1.0,0.0,0.0,-2.0,-2.0,-2.0
1701961240.2704213,2.0,0.0,-2.0,0.0,-3.0,-1.0,-2.0,-1.0
1701961240.2704213,-2.0,-2.0,1.0,-2.0,-1.0,0.0,-1.0,-1.0
1701961240.2904491,0.0,0.0,-2.0,0.0,-1.0,0.0,1.0,-3.0
1701961240.2904491,-1.0,-2.0,-2.0,-3.0,-2.0,-1.0,-2.0,0.0
1701961240.2904491,-1.0,0.0,-1.0,0.0,0.0,1.0,-1.0,-2.0
1701961240.2904491,-1.0,-1.0,0.0,1.0,-1.0,0.0,-1.0,-3.0
1701961240.3103898,-1.0,-1.0,-2.0,-3.0,0.0,-2.0,0.0,-2.0
1701961240.3103898,0.0,1.0,-2.0,1.0,0.0,0.0,0.0,-1.0
1701961240.3103898,-1.0,1.0,2.0,-2.0,0.0,-1.0,-2.0,0.0
1701961240.3103898,-2.0,-1.0,-1.0,-1.0,-1.0,-2.0,-1.0,2.0
1701961240.32074,-2.0,-1.0,-1.0,-2.0,-2.0,0.0,-2.0,1.0
1701961240.32074,-3.0,-2.0,0.0,-2.0,-1.0,-1.0,1.0,-3.0
1701961240.3304586,-2.0,-1.0,0.0,-2.0,-1.0,-2.0,-2.0,-1.0
1701961240.3304586,0.0,0.0,-1.0,-1.0,-2.0,-2.0,0.0,-1.0
1701961240.3503888,0.0,-1.0,-1.0,-1.0,-1.0,-1.0,-1.0,-2.0
1701961240.3503888,-2.0,-4.0,-2.0,-1.0,-1.0,0.0,-1.0,-3.0
1701961240.3503888,-1.0,-1.0,0.0,-1.0,-2.0,-1.0,0.0,0.0
1701961240.3503888,-2.0,0.0,-3.0,-1.0,0.0,0.0,-1.0,0.0
1701961240.3703892,0.0,-1.0,0.0,0.0,-2.0,-1.0,-1.0,0.0
1701961240.3703892,1.0,0.0,-1.0,-1.0,0.0,-3.0,0.0,0.0
1701961240.3703892,0.0,0.0,-1.0,0.0,-1.0,-1.0,-1.0,-1.0
1701961240.3703892,-1.0,-1.0,-1.0,-2.0,-1.0,1.0,-1.0,-3.0
1701961240.380548,-2.0,-1.0,-1.0,-2.0,-1.0,0.0,-1.0,-1.0
1701961240.380548,0.0,0.0,1.0,0.0,0.0,1.0,-3.0,1.0
1701961240.3906152,-3.0,-1.0,-1.0,-3.0,-2.0,0.0,-3.0,-1.0
1701961240.3906152,-1.0,-1.0,-3.0,0.0,-2.0,-2.0,-1.0,1.0
1701961240.410433,-1.0,-2.0,-2.0,-1.0,1.0,0.0,1.0,-1.0
1701961240.410433,-3.0,0.0,-1.0,0.0,-3.0,-2.0,0.0,-1.0
1701961240.410433,-1.0,-1.0,-3.0,0.0,-2.0,-4.0,-1.0,-3.0
1701961240.410433,-1.0,-1.0,-2.0,-1.0,-3.0,0.0,-3.0,-1.0
1701961240.4505882,0.0,-2.0,0.0,-2.0,-1.0,-1.0,-2.0,-2.0
1701961240.4505882,-1.0,-3.0,-1.0,0.0,-1.0,0.0,-1.0,1.0
1701961240.4505882,0.0,0.0,-1.0,-2.0,0.0,0.0,-1.0,1.0
1701961240.4505882,-3.0,-1.0,0.0,0.0,-1.0,-1.0,-1.0,-3.0
1701961240.4505882,-1.0,0.0,2.0,-1.0,-1.0,0.0,0.0,0.0
1701961240.4505882,0.0,3.0,-2.0,-2.0,-2.0,1.0,-1.0,-1.0
1701961240.4556873,0.0,1.0,-1.0,-2.0,-2.0,0.0,0.0,-1.0
1701961240.4556873,0.0,-1.0,0.0,-1.0,0.0,0.0,1.0,-2.0
1701961240.4661913,-1.0,-1.0,-2.0,-3.0,-1.0,1.0,-1.0,-1.0
1701961240.4661913,-2.0,-1.0,0.0,0.0,1.0,-2.0,-2.0,-3.0
1701961240.4661913,0.0,-3.0,-3.0,0.0,0.0,-1.0,1.0,0.0
1701961240.4661913,0.0,2.0,-1.0,0.0,-1.0,1.0,0.0,-1.0
1701961240.4862049,-2.0,-1.0,-2.0,-2.0,-2.0,-2.0,1.0,0.0
1701961240.4862049,-3.0,0.0,-1.0,1.0,0.0,-2.0,-1.0,-1.0
1701961240.4862049,-2.0,-2.0,-1.0,-2.0,-1.0,0.0,2.0,-1.0
1701961240.4862049,0.0,-2.0,-1.0,-2.0,-2.0,-1.0,-1.0,0.0
1701961240.506577,-1.0,-1.0,-3.0,-1.0,-1.0,0.0,-2.0,-1.0
1701961240.506577,-1.0,-2.0,-1.0,-1.0,-1.0,0.0,1.0,-1.0
1701961240.506577,-3.0,0.0,-1.0,0.0,0.0,-1.0,0.0,0.0
1701961240.506577,-2.0,0.0,0.0,-2.0,1.0,-1.0,-1.0,0.0
1701961240.5362036,-2.0,-1.0,2.0,-1.0,-2.0,0.0,-1.0,-1.0
1701961240.5362036,0.0,-1.0,-2.0,-2.0,-1.0,-1.0,-1.0,1.0
1701961240.5362036,-1.0,0.0,-2.0,-1.0,0.0,1.0,-2.0,-1.0
1701961240.5362036,1.0,0.0,-2.0,-1.0,0.0,-2.0,-1.0,0.0
1701961240.54649,-1.0,1.0,-1.0,-4.0,-1.0,0.0,-2.0,-2.0
1701961240.54649,1.0,-1.0,2.0,-1.0,-2.0,-1.0,-1.0,-2.0
1701961240.54649,-1.0,-2.0,1.0,-1.0,-3.0,-3.0,-2.0,-2.0
1701961240.54649,-1.0,-2.0,-1.0,0.0,-2.0,0.0,-3.0,-3.0
1701961240.5664897,0.0,-1.0,-2.0,-1.0,0.0,-3.0,-2.0,0.0
1701961240.5664897,-1.0,0.0,-1.0,1.0,-1.0,-1.0,0.0,-1.0
1701961240.576208,-1.0,-3.0,0.0,-1.0,-2.0,-2.0,-2.0,0.0
1701961240.576208,-1.0,0.0,-2.0,-1.0,-1.0,-2.0,0.0,0.0
1701961240.5864725,-2.0,0.0,0.0,0.0,-1.0,-1.0,-1.0,0.0
1701961240.5864725,0.0,-1.0,-1.0,-2.0,-1.0,2.0,1.0,-1.0
1701961240.5864725,-1.0,0.0,-1.0,-1.0,-2.0,-1.0,0.0,2.0
1701961240.5864725,-1.0,-1.0,-1.0,0.0,-1.0,-2.0,0.0,-2.0
1701961240.6262023,-1.0,-1.0,-2.0,1.0,-1.0,0.0,-1.0,0.0
1701961240.6262023,-2.0,-2.0,-1.0,-3.0,0.0,0.0,-1.0,2.0
1701961240.6262023,-2.0,1.0,1.0,1.0,-1.0,-2.0,0.0,-1.0
1701961240.6262023,-2.0,-2.0,1.0,-1.0,-1.0,-1.0,0.0,-1.0
1701961240.6262023,0.0,1.0,2.0,1.0,-2.0,-1.0,1.0,-1.0
1701961240.6262023,-2.0,0.0,0.0,0.0,-2.0,0.0,0.0,-1.0
1701961240.6364596,-1.0,0.0,-3.0,0.0,0.0,-1.0,0.0,-3.0
1701961240.6364596,-1.0,-1.0,-1.0,-1.0,-1.0,-1.0,0.0,0.0
1701961240.666202,0.0,0.0,0.0,0.0,-2.0,-1.0,-1.0,-2.0
1701961240.666202,-2.0,-1.0,-2.0,-1.0,-1.0,-2.0,0.0,0.0
1701961240.666202,0.0,-1.0,-1.0,-2.0,0.0,-1.0,-2.0,-2.0
1701961240.666202,1.0,0.0,-1.0,0.0,-1.0,0.0,-1.0,-2.0
1701961240.666202,-1.0,-2.0,-2.0,-1.0,1.0,0.0,-1.0,-2.0
1701961240.666202,1.0,0.0,0.0,0.0,-1.0,-2.0,-2.0,-1.0
1701961240.666202,-1.0,-2.0,-1.0,-1.0,-3.0,0.0,-2.0,-2.0
1701961240.666202,-1.0,-4.0,-2.0,-3.0,-1.0,-2.0,-1.0,-2.0
1701961240.686618,0.0,-2.0,1.0,0.0,0.0,-3.0,-1.0,1.0
1701961240.686618,2.0,-1.0,-1.0,0.0,1.0,-5.0,-1.0,-3.0
1701961240.686618,0.0,-1.0,0.0,-1.0,-1.0,-2.0,-2.0,-1.0
1701961240.686618,-1.0,0.0,1.0,0.0,0.0,-1.0,-2.0,0.0
1701961240.716203,-3.0,-4.0,-2.0,-2.0,-2.0,-3.0,-2.0,-2.0
1701961240.716203,-1.0,-3.0,-3.0,-2.0,-3.0,-2.0,-2.0,-1.0
1701961240.716203,0.0,-3.0,-2.0,-4.0,-1.0,-2.0,-2.0,-1.0
1701961240.716203,0.0,0.0,-1.0,-1.0,-3.0,-3.0,-1.0,-1.0
1701961240.7264745,-1.0,-2.0,-2.0,-1.0,-2.0,1.0,-2.0,-1.0
1701961240.7264745,-2.0,-2.0,0.0,-2.0,-2.0,-2.0,-2.0,-3.0
1701961240.7362123,-2.0,-3.0,-2.0,-1.0,-1.0,-1.0,-2.0,-1.0
1701961240.7362123,-1.0,-2.0,-1.0,-1.0,-2.0,0.0,-1.0,-1.0
1701961240.746276,-1.0,0.0,-1.0,-2.0,-1.0,0.0,0.0,0.0
1701961240.746276,-2.0,0.0,1.0,1.0,-2.0,2.0,0.0,-2.0
1701961240.7662046,-1.0,0.0,-2.0,-1.0,-1.0,-1.0,1.0,0.0
1701961240.7662046,-2.0,0.0,-2.0,0.0,0.0,3.0,-2.0,-2.0
1701961240.7662046,-1.0,-1.0,-1.0,0.0,-1.0,-2.0,-1.0,-1.0
1701961240.7662046,0.0,-1.0,-1.0,1.0,0.0,0.0,-1.0,-2.0
1701961240.7662046,-1.0,-2.0,0.0,-1.0,0.0,0.0,-1.0,1.0
1701961240.7662046,0.0,-1.0,-1.0,-2.0,1.0,0.0,-1.0,-1.0
1701961240.7864954,-1.0,0.0,0.0,-1.0,1.0,0.0,-3.0,-1.0
1701961240.7864954,-1.0,-2.0,-1.0,-1.0,1.0,-1.0,-3.0,0.0
1701961240.7864954,-2.0,1.0,-1.0,0.0,-2.0,-1.0,0.0,-2.0
1701961240.7864954,-3.0,-1.0,-2.0,-4.0,0.0,-1.0,-1.0,-2.0
1701961240.8062074,0.0,-1.0,0.0,0.0,-1.0,0.0,0.0,-1.0
1701961240.8062074,0.0,-1.0,-1.0,-2.0,-1.0,-2.0,0.0,0.0
1701961240.8362033,-1.0,-2.0,-1.0,1.0,0.0,-2.0,-1.0,0.0
1701961240.8362033,0.0,0.0,-1.0,-2.0,-3.0,-2.0,-1.0,-1.0
1701961240.8362033,0.0,0.0,-1.0,0.0,-2.0,-2.0,0.0,-1.0
1701961240.8362033,-2.0,-2.0,-2.0,0.0,-2.0,0.0,-1.0,-2.0
1701961240.8362033,-1.0,-1.0,-1.0,-2.0,-2.0,-1.0,0.0,0.0
1701961240.8362033,0.0,0.0,-2.0,1.0,-2.0,-2.0,1.0,1.0
1701961240.84646,2.0,-1.0,-2.0,-1.0,-1.0,-2.0,-2.0,-3.0
1701961240.84646,0.0,-1.0,-2.0,0.0,-2.0,-1.0,0.0,-2.0
1701961240.84646,-1.0,0.0,0.0,0.0,1.0,0.0,1.0,-1.0
1701961240.84646,-1.0,-1.0,-1.0,-1.0,-2.0,0.0,-1.0,-2.0
1701961240.866255,-3.0,-2.0,-1.0,-1.0,0.0,-1.0,0.0,-1.0
1701961240.866255,-1.0,0.0,0.0,-1.0,0.0,-1.0,-1.0,-2.0
1701961240.876205,0.0,0.0,1.0,-1.0,-1.0,0.0,0.0,-2.0
1701961240.876205,-1.0,-2.0,-2.0,0.0,0.0,-1.0,-3.0,-2.0
1701961240.886237,-1.0,-2.0,-1.0,-1.0,-2.0,-2.0,0.0,1.0
1701961240.886237,-2.0,-1.0,-1.0,-2.0,0.0,-2.0,-2.0,0.0
1701961240.886237,-3.0,-1.0,-1.0,0.0,-1.0,-1.0,-3.0,-1.0
1701961240.886237,0.0,-3.0,-1.0,0.0,0.0,0.0,-2.0,-1.0
1701961240.9064827,-1.0,-1.0,-1.0,-1.0,0.0,-1.0,1.0,-2.0
1701961240.9064827,-2.0,-1.0,-4.0,-2.0,-2.0,-1.0,-1.0,-1.0
1701961240.9064827,-2.0,-2.0,-2.0,-1.0,-1.0,0.0,-1.0,-1.0
1701961240.9064827,-3.0,1.0,-1.0,-2.0,-2.0,-2.0,1.0,-1.0
1701961240.9262805,-1.0,-2.0,0.0,-1.0,-1.0,-1.0,-2.0,-2.0
1701961240.9262805,-1.0,-1.0,1.0,-2.0,0.0,-1.0,0.0,0.0
1701961240.9562032,0.0,-4.0,-2.0,-1.0,-2.0,-2.0,0.0,-1.0
1701961240.9562032,1.0,-1.0,2.0,-2.0,1.0,0.0,-2.0,-1.0
1701961240.9562032,0.0,0.0,0.0,1.0,-2.0,-1.0,-2.0,-1.0
1701961240.9562032,-1.0,-1.0,-3.0,-1.0,-1.0,0.0,-2.0,-2.0
1701961240.9562032,-3.0,0.0,-2.0,0.0,-1.0,-1.0,-1.0,0.0
1701961240.9562032,-2.0,1.0,-1.0,0.0,-2.0,-2.0,0.0,-1.0
1701961240.9726894,-1.0,0.0,-1.0,-2.0,0.0,0.0,0.0,0.0
1701961240.9726894,-1.0,0.0,1.0,0.0,-1.0,1.0,0.0,0.0
1701961240.973707,0.0,1.0,-1.0,0.0,-1.0,2.0,1.0,-2.0
1701961240.974711,-1.0,-2.0,-3.0,-1.0,-1.0,0.0,1.0,-1.0
1701961240.9886074,-2.0,0.0,0.0,-3.0,-1.0,0.0,-1.0,-1.0
1701961240.9886074,-1.0,-2.0,-2.0,-2.0,-1.0,0.0,-1.0,0.0
1701961240.9886074,-2.0,-1.0,-1.0,-1.0,1.0,-1.0,0.0,-3.0
1701961240.9886074,1.0,0.0,-2.0,-1.0,-2.0,-2.0,-1.0,0.0
1701961241.0086172,-1.0,0.0,-1.0,-1.0,0.0,0.0,0.0,-1.0
1701961241.0086172,0.0,0.0,0.0,-1.0,0.0,-1.0,-1.0,0.0
1701961241.0186043,0.0,-3.0,0.0,-1.0,-1.0,-2.0,-2.0,-1.0
1701961241.0186043,-2.0,-2.0,0.0,0.0,-2.0,-1.0,0.0,-1.0
1701961241.0286372,-3.0,-2.0,-1.0,-1.0,-2.0,-2.0,-1.0,-2.0
1701961241.0286372,0.0,2.0,-1.0,0.0,-2.0,0.0,0.0,0.0
1701961241.0286372,0.0,0.0,-1.0,-1.0,-1.0,0.0,-1.0,-2.0
1701961241.0286372,0.0,-1.0,-2.0,-2.0,0.0,-1.0,-1.0,1.0
1701961241.0486403,-2.0,-1.0,-1.0,-1.0,0.0,0.0,-2.0,-1.0
1701961241.0486403,-2.0,-3.0,-1.0,1.0,0.0,-2.0,0.0,0.0
1701961241.0486403,0.0,0.0,-1.0,0.0,0.0,-1.0,0.0,0.0
1701961241.0486403,0.0,1.0,1.0,0.0,-1.0,-1.0,0.0,0.0
1701961241.0690067,-1.0,1.0,-1.0,-1.0,-2.0,-1.0,-3.0,-1.0
1701961241.0690067,-1.0,-1.0,0.0,-1.0,0.0,-2.0,-3.0,-2.0
1701961241.0690067,-2.0,-1.0,-1.0,-3.0,0.0,-1.0,-1.0,-2.0
1701961241.0690067,1.0,-1.0,-1.0,-3.0,0.0,-1.0,-1.0,0.0
1701961241.0890076,-1.0,-2.0,-2.0,0.0,-2.0,-2.0,-1.0,-2.0
1701961241.0890076,-1.0,-2.0,-1.0,-3.0,-1.0,-2.0,-3.0,0.0
1701961241.0890076,1.0,-2.0,-1.0,0.0,-2.0,-1.0,-2.0,0.0
1701961241.0890076,-1.0,0.0,0.0,-1.0,-1.0,0.0,-1.0,-3.0
1701961241.1086035,0.0,-3.0,-2.0,-1.0,-3.0,-3.0,0.0,1.0
1701961241.1086035,0.0,-1.0,-1.0,-1.0,-1.0,-3.0,-1.0,-2.0
1701961241.1086035,-1.0,-1.0,-2.0,-1.0,-2.0,-3.0,-2.0,-1.0
1701961241.1086035,-2.0,-2.0,0.0,-2.0,-2.0,0.0,-3.0,-2.0
1701961241.1286087,0.0,-2.0,-3.0,0.0,-2.0,0.0,-3.0,-1.0
1701961241.1286087,0.0,-1.0,1.0,0.0,-2.0,-3.0,0.0,-1.0
1701961241.1286087,-1.0,-1.0,-1.0,0.0,-2.0,-2.0,-2.0,0.0
1701961241.1286087,-2.0,-2.0,-1.0,-1.0,-1.0,-4.0,-2.0,-2.0
1701961241.1586072,0.0,-1.0,-1.0,-1.0,-2.0,-2.0,-1.0,-1.0
1701961241.1586072,-1.0,-1.0,-1.0,-1.0,-2.0,-1.0,0.0,-2.0
1701961241.1586072,0.0,-1.0,-2.0,-1.0,-2.0,-2.0,-2.0,-3.0
1701961241.1586072,-1.0,-2.0,0.0,-1.0,-1.0,-2.0,0.0,0.0
1701961241.168653,-2.0,0.0,0.0,-2.0,-1.0,0.0,-1.0,0.0
1701961241.168653,-1.0,0.0,-1.0,-1.0,-2.0,-1.0,-1.0,-1.0
1701961241.168653,-1.0,-1.0,0.0,1.0,-1.0,0.0,-1.0,-1.0
1701961241.168653,1.0,-2.0,-2.0,1.0,-2.0,-1.0,-1.0,-1.0
1701961241.1888463,-2.0,0.0,0.0,0.0,-2.0,-2.0,2.0,-2.0
1701961241.1888463,-1.0,0.0,-2.0,0.0,-1.0,-1.0,0.0,-1.0
1701961241.19861,-1.0,-1.0,0.0,-1.0,-2.0,-1.0,1.0,-1.0
1701961241.19861,-2.0,1.0,0.0,-2.0,0.0,0.0,-1.0,-1.0
1701961241.2086034,-1.0,-1.0,-1.0,0.0,1.0,1.0,1.0,0.0
1701961241.2086034,-2.0,-1.0,-2.0,-1.0,-1.0,1.0,-3.0,-2.0
1701961241.2086034,-1.0,-2.0,-1.0,-1.0,0.0,-2.0,-1.0,-1.0
1701961241.2086034,-2.0,0.0,-2.0,-1.0,-3.0,0.0,0.0,-1.0
1701961241.22889,-2.0,0.0,1.0,-2.0,0.0,-1.0,0.0,-1.0
1701961241.22889,-2.0,-1.0,-1.0,0.0,0.0,0.0,1.0,-1.0
1701961241.22889,1.0,-1.0,-1.0,-2.0,0.0,-1.0,-1.0,2.0
1701961241.22889,-2.0,-1.0,-1.0,-1.0,0.0,1.0,-1.0,-2.0
1701961241.2488945,-1.0,-1.0,-3.0,-1.0,-2.0,-2.0,-2.0,-1.0
1701961241.2488945,-1.0,-1.0,0.0,-1.0,1.0,-1.0,-1.0,-2.0
1701961241.2586102,0.0,0.0,-1.0,-1.0,-1.0,-1.0,-1.0,0.0
1701961241.2586102,0.0,-1.0,-3.0,-1.0,-2.0,-1.0,1.0,-1.0
1701961241.2886026,1.0,0.0,0.0,-1.0,0.0,0.0,0.0,-2.0
1701961241.2886026,0.0,-1.0,-2.0,-3.0,-2.0,-1.0,0.0,0.0
1701961241.2886026,-2.0,0.0,-1.0,-3.0,-2.0,-1.0,-1.0,0.0
1701961241.2886026,-1.0,0.0,0.0,1.0,-1.0,-1.0,-1.0,-1.0
1701961241.2886026,-1.0,1.0,-2.0,0.0,0.0,0.0,-1.0,-2.0
1701961241.2886026,-2.0,0.0,-2.0,-2.0,0.0,0.0,-3.0,-2.0
1701961241.2886026,-1.0,0.0,0.0,0.0,-1.0,-1.0,0.0,1.0
1701961241.2886026,-1.0,-1.0,-1.0,1.0,-2.0,-1.0,-1.0,0.0
1701961241.308995,-1.0,0.0,0.0,0.0,-1.0,-1.0,-2.0,0.0
1701961241.308995,-1.0,-1.0,0.0,0.0,-1.0,-2.0,-2.0,-1.0
1701961241.308995,-3.0,-2.0,-1.0,0.0,-2.0,-2.0,0.0,-1.0
1701961241.308995,-2.0,-1.0,-1.0,-1.0,0.0,-2.0,-2.0,-1.0
1701961241.328605,-1.0,-1.0,-1.0,-1.0,-2.0,0.0,-1.0,-4.0
1701961241.328605,-1.0,-1.0,-1.0,-1.0,-1.0,1.0,0.0,-1.0
1701961241.328605,-2.0,-1.0,-1.0,-2.0,0.0,0.0,-1.0,-2.0
1701961241.328605,1.0,0.0,-2.0,-1.0,-1.0,-1.0,-1.0,0.0
1701961241.3489687,-1.0,-2.0,1.0,-2.0,-1.0,-2.0,-2.0,-1.0
1701961241.3489687,-1.0,-1.0,-1.0,-1.0,-1.0,-2.0,0.0,-1.0
1701961241.3489687,-1.0,-1.0,1.0,0.0,-2.0,1.0,-2.0,-3.0
1701961241.3489687,-1.0,-1.0,-1.0,-1.0,-2.0,-1.0,0.0,-1.0
1701961241.368606,-2.0,-1.0,-2.0,-1.0,1.0,-2.0,-1.0,2.0
1701961241.368606,-1.0,1.0,1.0,-2.0,-2.0,-1.0,0.0,1.0
1701961241.368606,-2.0,1.0,-2.0,-1.0,1.0,0.0,0.0,-1.0
1701961241.368606,1.0,-3.0,1.0,-2.0,0.0,-2.0,0.0,-1.0
1701961241.3889716,0.0,-2.0,0.0,0.0,-2.0,-1.0,-1.0,1.0
1701961241.3889716,-1.0,-2.0,0.0,1.0,-2.0,-1.0,-1.0,0.0
1701961241.3889716,0.0,-1.0,-3.0,-1.0,-1.0,0.0,-2.0,-2.0
1701961241.3889716,-1.0,-1.0,-1.0,-3.0,0.0,-1.0,-2.0,-2.0
1701961241.4089723,-1.0,1.0,0.0,-3.0,-2.0,-2.0,0.0,-2.0
1701961241.4089723,-1.0,0.0,-2.0,-1.0,-1.0,-2.0,0.0,-1.0
1701961241.4089723,-1.0,-2.0,1.0,0.0,-1.0,-1.0,1.0,-2.0
1701961241.4089723,-2.0,0.0,-2.0,-2.0,-1.0,-1.0,0.0,0.0
1701961241.4286041,-2.0,-2.0,-2.0,0.0,0.0,0.0,0.0,0.0
1701961241.4286041,-1.0,-1.0,-3.0,0.0,-1.0,0.0,-1.0,-2.0
1701961241.4286041,-1.0,-1.0,0.0,-1.0,0.0,0.0,-1.0,-3.0
1701961241.4286041,1.0,-1.0,-1.0,-1.0,-1.0,-1.0,0.0,-2.0
1701961241.4488685,-1.0,-1.0,-1.0,-1.0,-2.0,0.0,0.0,-2.0
1701961241.4488685,-1.0,-1.0,-2.0,-2.0,0.0,0.0,0.0,0.0
1701961241.4488685,0.0,-3.0,-2.0,-1.0,-2.0,-1.0,0.0,-3.0
1701961241.4488685,0.0,0.0,0.0,-2.0,-2.0,0.0,-2.0,0.0
1701961241.4786077,-3.0,-1.0,0.0,0.0,0.0,0.0,-2.0,-2.0
1701961241.4886088,-1.0,-2.0,0.0,1.0,-2.0,-2.0,-2.0,-1.0
1701961241.4986258,-2.0,0.0,0.0,-2.0,-2.0,-1.0,-2.0,0.0
1701961241.4986258,-1.0,-1.0,-2.0,0.0,-1.0,-4.0,0.0,0.0
1701961241.4986258,-1.0,-1.0,-3.0,-3.0,-1.0,-3.0,-1.0,-1.0
1701961241.4986258,-1.0,-1.0,1.0,-1.0,-1.0,-1.0,2.0,-3.0
1701961241.4986258,0.0,-2.0,0.0,0.0,0.0,-4.0,-10.0,2.0
1701961241.4986258,-1.0,-1.0,-2.0,0.0,-3.0,-1.0,-2.0,-1.0
1701961241.5086393,-1.0,-2.0,-1.0,-2.0,-2.0,-4.0,-3.0,-1.0
1701961241.5086393,0.0,-1.0,-2.0,-1.0,-2.0,-3.0,-5.0,0.0
1701961241.5086393,-1.0,-2.0,-2.0,-1.0,-2.0,-1.0,1.0,-2.0
1701961241.5086393,-3.0,-5.0,-1.0,0.0,-2.0,-1.0,0.0,-2.0
1701961241.531856,1.0,-1.0,-1.0,0.0,-2.0,0.0,-1.0,-2.0
1701961241.531856,-1.0,-1.0,1.0,-1.0,-1.0,0.0,-2.0,-3.0
1701961241.531856,-1.0,1.0,-1.0,-2.0,0.0,0.0,1.0,-1.0
1701961241.531856,-1.0,2.0,-2.0,-1.0,0.0,1.0,-2.0,0.0
1701961241.557224,-1.0,0.0,-2.0,-1.0,-1.0,-1.0,2.0,-1.0
1701961241.557224,-1.0,-2.0,-1.0,0.0,0.0,1.0,0.0,-1.0
1701961241.5575283,-2.0,0.0,-2.0,-2.0,0.0,0.0,2.0,0.0
1701961241.5575283,-1.0,1.0,0.0,0.0,-1.0,0.0,-1.0,1.0
1701961241.5715725,0.0,-3.0,-3.0,0.0,0.0,-1.0,-1.0,-1.0
1701961241.5715725,0.0,0.0,-2.0,-2.0,1.0,-1.0,1.0,-1.0
1701961241.5715725,0.0,0.0,-1.0,-1.0,-1.0,-1.0,-2.0,0.0
1701961241.5715725,-2.0,-3.0,-1.0,-2.0,-1.0,-1.0,-1.0,-3.0
1701961241.6115701,-1.0,-1.0,2.0,-2.0,0.0,-1.0,-2.0,-2.0
1701961241.6115701,-2.0,-1.0,-1.0,-1.0,-2.0,-1.0,-1.0,-1.0
1701961241.6115701,-2.0,-2.0,-1.0,-1.0,-1.0,0.0,-1.0,-1.0
1701961241.6115701,0.0,-1.0,0.0,0.0,-2.0,0.0,-2.0,-1.0
1701961241.6115701,-2.0,1.0,-1.0,-1.0,0.0,0.0,0.0,1.0
1701961241.6115701,-1.0,0.0,-1.0,-2.0,-2.0,-3.0,-1.0,0.0
1701961241.6115701,0.0,-1.0,-1.0,-2.0,-1.0,0.0,1.0,-2.0
1701961241.6115701,-1.0,-1.0,-3.0,0.0,-2.0,-2.0,-1.0,-1.0
1701961241.6319337,0.0,0.0,-1.0,-3.0,0.0,-1.0,0.0,-2.0
1701961241.6319337,-1.0,-2.0,0.0,-2.0,0.0,-1.0,-1.0,0.0
1701961241.6319337,-1.0,-1.0,-1.0,0.0,0.0,-2.0,-1.0,0.0
1701961241.6319337,-2.0,-1.0,-2.0,-3.0,2.0,-2.0,-2.0,0.0
1701961241.6615715,2.0,0.0,-1.0,0.0,-1.0,-1.0,0.0,-3.0
1701961241.6615715,-2.0,-1.0,-4.0,-2.0,-3.0,-3.0,-2.0,0.0
1701961241.6615715,0.0,-1.0,-1.0,-2.0,-2.0,-2.0,0.0,-1.0
1701961241.6615715,0.0,-2.0,-2.0,0.0,0.0,-2.0,1.0,0.0
1701961241.6715693,-3.0,-1.0,0.0,-1.0,0.0,0.0,-1.0,1.0
1701961241.6715693,-2.0,1.0,-1.0,-2.0,-1.0,-1.0,0.0,-1.0
1701961241.6715693,-1.0,-2.0,0.0,0.0,-2.0,0.0,1.0,-1.0
1701961241.6715693,-1.0,-1.0,-2.0,-1.0,-4.0,-2.0,0.0,-3.0
1701961241.6920013,-1.0,0.0,0.0,-2.0,-1.0,-2.0,-2.0,0.0
1701961241.6920013,0.0,-1.0,-1.0,-1.0,0.0,-1.0,-1.0,-1.0
1701961241.6920013,-2.0,-1.0,-2.0,-1.0,0.0,-2.0,-2.0,-1.0
1701961241.6920013,-1.0,-2.0,1.0,0.0,0.0,-1.0,-3.0,-3.0
1701961241.7115738,-1.0,0.0,-1.0,-1.0,0.0,-2.0,-1.0,-3.0
1701961241.7115738,-1.0,0.0,-1.0,1.0,-1.0,-1.0,-1.0,-2.0
1701961241.7115738,0.0,0.0,-3.0,1.0,-1.0,0.0,-4.0,-1.0
1701961241.7115738,0.0,1.0,0.0,0.0,-2.0,0.0,-1.0,-1.0
1701961241.7315686,-1.0,-1.0,-1.0,-1.0,-3.0,-1.0,-1.0,-1.0
1701961241.7315686,-2.0,-1.0,-1.0,-1.0,-1.0,-1.0,0.0,-1.0
1701961241.7315686,-1.0,0.0,0.0,-1.0,-2.0,1.0,1.0,-1.0
1701961241.7315686,-3.0,-1.0,-1.0,-1.0,-2.0,-1.0,0.0,0.0
1701961241.7518644,-1.0,1.0,-1.0,-3.0,-2.0,0.0,-2.0,-1.0
1701961241.7518644,-1.0,-1.0,0.0,-1.0,-1.0,1.0,0.0,-1.0
1701961241.7518644,0.0,0.0,1.0,-1.0,-1.0,-2.0,-4.0,0.0
1701961241.7518644,-1.0,0.0,-2.0,-1.0,0.0,0.0,0.0,-2.0
1701961241.791571,-1.0,-1.0,-2.0,0.0,0.0,-1.0,-2.0,-1.0
1701961241.791571,-1.0,-3.0,-2.0,-2.0,-1.0,-4.0,-3.0,-2.0
1701961241.791571,-3.0,-2.0,-1.0,-1.0,-3.0,-4.0,-2.0,-3.0
1701961241.791571,-1.0,-2.0,0.0,0.0,-1.0,0.0,-1.0,-2.0
1701961241.791571,-2.0,-1.0,-1.0,-1.0,-1.0,-2.0,0.0,-3.0
1701961241.791571,-2.0,-1.0,0.0,0.0,-2.0,-3.0,-2.0,-2.0
1701961241.791571,0.0,-1.0,-1.0,-2.0,0.0,0.0,-1.0,0.0
1701961241.791571,-1.0,-1.0,-2.0,-4.0,-1.0,-2.0,0.0,0.0
1701961241.8115726,0.0,-1.0,-1.0,-1.0,-3.0,-2.0,0.0,0.0
1701961241.8115726,-1.0,-2.0,0.0,-1.0,-2.0,0.0,-1.0,-1.0
1701961241.8215694,-1.0,-1.0,-2.0,-1.0,-1.0,-3.0,-1.0,-3.0
1701961241.8215694,0.0,0.0,1.0,1.0,0.0,-1.0,-2.0,-1.0
1701961241.8318708,-1.0,-1.0,0.0,0.0,-1.0,1.0,-3.0,0.0
1701961241.8318708,-1.0,-2.0,-2.0,-3.0,-2.0,-1.0,-3.0,0.0
1701961241.8318708,1.0,-2.0,0.0,-2.0,0.0,-1.0,1.0,-2.0
1701961241.8318708,-1.0,-3.0,-1.0,0.0,0.0,0.0,-1.0,0.0
1701961241.8519063,-1.0,0.0,-2.0,0.0,-2.0,-2.0,0.0,-1.0
1701961241.8519063,-1.0,0.0,-2.0,1.0,-2.0,1.0,0.0,-1.0
1701961241.8519063,-1.0,-1.0,-1.0,0.0,0.0,0.0,0.0,-2.0
1701961241.8519063,0.0,1.0,-1.0,-1.0,-2.0,0.0,-2.0,-2.0
1701961241.87161,-1.0,-1.0,-2.0,0.0,-1.0,0.0,-1.0,-2.0
1701961241.87161,0.0,1.0,0.0,-2.0,-1.0,-1.0,-1.0,0.0
1701961241.87161,-2.0,-1.0,-2.0,-2.0,-2.0,0.0,-1.0,-1.0
1701961241.87161,-1.0,-1.0,0.0,-1.0,-1.0,-1.0,-1.0,-1.0
1701961241.891755,0.0,-2.0,-2.0,0.0,-1.0,-2.0,-1.0,0.0
1701961241.891755,-1.0,-1.0,0.0,-2.0,0.0,-2.0,-1.0,-2.0
1701961241.891755,-1.0,-1.0,0.0,-2.0,-1.0,0.0,-1.0,-1.0
1701961241.891755,-1.0,-1.0,-1.0,0.0,-1.0,-1.0,0.0,-1.0
1701961241.9119632,-1.0,-2.0,1.0,-2.0,-1.0,-1.0,0.0,0.0
1701961241.9119632,0.0,-1.0,-1.0,1.0,0.0,-1.0,-1.0,1.0
1701961241.9119632,-1.0,-2.0,-2.0,0.0,-1.0,-2.0,-1.0,0.0
1701961241.9119632,-1.0,-1.0,-2.0,-3.0,0.0,-2.0,0.0,0.0
1701961241.9315717,-1.0,-1.0,0.0,-1.0,-1.0,1.0,-1.0,0.0
1701961241.9315717,0.0,-2.0,-1.0,0.0,0.0,0.0,2.0,-1.0
1701961241.9415731,-2.0,0.0,-2.0,1.0,-1.0,-3.0,0.0,-1.0
1701961241.9415731,0.0,-1.0,-1.0,-2.0,-1.0,-1.0,-1.0,-1.0
1701961241.951605,-1.0,0.0,-1.0,-1.0,-1.0,-1.0,-2.0,-2.0
1701961241.951605,-1.0,-1.0,-1.0,-2.0,0.0,1.0,-3.0,-1.0
1701961241.951605,0.0,-2.0,-1.0,-2.0,-1.0,-1.0,-1.0,-1.0
1701961241.951605,0.0,-1.0,-1.0,0.0,-2.0,-1.0,-1.0,-3.0
1701961241.9719694,-1.0,0.0,-1.0,-2.0,-2.0,-1.0,0.0,-1.0
1701961241.9719694,0.0,0.0,1.0,0.0,0.0,-1.0,-3.0,-1.0
1701961241.9719694,-2.0,-2.0,-1.0,-1.0,0.0,-1.0,1.0,-2.0
1701961241.9719694,-1.0,-1.0,0.0,-2.0,1.0,-1.0,0.0,-1.0
1701961241.9915698,-1.0,-3.0,-1.0,0.0,0.0,-1.0,-1.0,-2.0
1701961241.9915698,1.0,-1.0,0.0,0.0,0.0,-3.0,-2.0,-2.0
1701961241.9915698,-1.0,0.0,-1.0,-1.0,-2.0,-3.0,-2.0,-2.0
1701961241.9915698,-3.0,-1.0,-2.0,-2.0,-1.0,0.0,-2.0,-2.0
1701961242.0118735,-1.0,-2.0,0.0,-2.0,-1.0,0.0,-1.0,0.0
1701961242.0118735,-1.0,0.0,-1.0,-1.0,-1.0,-2.0,-1.0,0.0
1701961242.0118735,-2.0,0.0,-2.0,-1.0,0.0,0.0,-1.0,1.0
1701961242.0118735,-1.0,0.0,0.0,-1.0,-1.0,0.0,-2.0,-2.0
1701961242.0375168,-2.0,-1.0,-1.0,0.0,0.0,-2.0,-1.0,0.0
1701961242.0375168,-1.0,-2.0,-1.0,0.0,-2.0,-1.0,0.0,0.0
1701961242.0385134,0.0,-1.0,1.0,-1.0,-2.0,0.0,0.0,1.0
1701961242.0385134,0.0,-1.0,-1.0,0.0,-1.0,-2.0,-1.0,1.0
1701961242.0641687,-1.0,-2.0,-2.0,-1.0,1.0,0.0,-1.0,-2.0
1701961242.0641687,-2.0,-1.0,-1.0,0.0,-1.0,0.0,0.0,-3.0
1701961242.0641687,-1.0,-2.0,-2.0,0.0,1.0,-1.0,-1.0,-3.0
1701961242.0641687,-1.0,-1.0,-2.0,-1.0,-1.0,0.0,-1.0,0.0
1701961242.074194,-1.0,-1.0,0.0,-2.0,0.0,-1.0,-1.0,-1.0
1701961242.074194,-2.0,1.0,-2.0,0.0,-1.0,-1.0,-1.0,0.0
1701961242.074194,0.0,0.0,-2.0,0.0,-1.0,-1.0,-1.0,-1.0
1701961242.074194,0.0,0.0,0.0,0.0,-1.0,-1.0,0.0,0.0
1701961242.094431,-1.0,-1.0,-2.0,0.0,-1.0,-2.0,-2.0,-1.0
1701961242.094431,-2.0,-1.0,-1.0,-1.0,-1.0,0.0,-1.0,-1.0
1701961242.094431,-1.0,-2.0,-1.0,-2.0,0.0,1.0,-2.0,-3.0
1701961242.094431,0.0,-1.0,-3.0,0.0,-1.0,-1.0,-1.0,-1.0
1701961242.1042244,1.0,-1.0,-1.0,-1.0,-3.0,-3.0,-1.0,-3.0
1701961242.1042244,-3.0,-3.0,-4.0,0.0,-3.0,-2.0,0.0,0.0
1701961242.1341672,-1.0,-1.0,-1.0,-1.0,-2.0,-3.0,-2.0,0.0
1701961242.1341672,-3.0,-3.0,0.0,-3.0,-2.0,-1.0,-1.0,-3.0
1701961242.1341672,0.0,-1.0,-3.0,-2.0,-1.0,-2.0,-2.0,0.0
1701961242.1341672,0.0,-1.0,-1.0,-1.0,1.0,-2.0,-3.0,-1.0
1701961242.1341672,-1.0,-1.0,-1.0,-1.0,-2.0,-2.0,-1.0,0.0
1701961242.1341672,-1.0,-1.0,-1.0,-1.0,-2.0,-2.0,-2.0,0.0
1701961242.154574,-2.0,-2.0,0.0,-1.0,-3.0,-2.0,-1.0,1.0
1701961242.154574,0.0,-1.0,-1.0,0.0,-1.0,-1.0,-1.0,-2.0
1701961242.154574,-2.0,-1.0,-2.0,0.0,-1.0,1.0,0.0,0.0
1701961242.154574,0.0,0.0,-2.0,-2.0,0.0,1.0,0.0,-1.0
1701961242.1745923,-3.0,1.0,-2.0,1.0,-1.0,3.0,1.0,-1.0
1701961242.1745923,-3.0,0.0,-2.0,-1.0,1.0,-1.0,0.0,-2.0
1701961242.1745923,-1.0,1.0,-1.0,0.0,-1.0,1.0,0.0,-1.0
1701961242.1745923,-2.0,1.0,-1.0,0.0,1.0,-1.0,0.0,-1.0
1701961242.1946936,-1.0,0.0,1.0,-2.0,-1.0,0.0,0.0,-2.0
1701961242.1946936,0.0,-1.0,0.0,-1.0,0.0,0.0,1.0,-2.0
1701961242.1946936,-3.0,-1.0,-2.0,0.0,-2.0,-1.0,-1.0,-3.0
1701961242.1946936,-2.0,0.0,-1.0,-1.0,-2.0,0.0,-2.0,0.0
1701961242.2145889,0.0,-1.0,-1.0,-1.0,-1.0,0.0,1.0,-2.0
1701961242.2145889,-1.0,0.0,-1.0,0.0,-2.0,0.0,-2.0,-2.0
1701961242.2145889,-1.0,-3.0,-3.0,-4.0,-1.0,-2.0,-2.0,-1.0
1701961242.2145889,1.0,-2.0,0.0,-1.0,-1.0,-3.0,-1.0,-2.0
1701961242.224599,-1.0,-2.0,-1.0,0.0,-2.0,-1.0,-2.0,-1.0
1701961242.224599,-2.0,-1.0,1.0,-3.0,-2.0,-1.0,-2.0,0.0
1701961242.2348876,-2.0,-1.0,0.0,0.0,-1.0,-1.0,0.0,-3.0
1701961242.2348876,-1.0,0.0,-3.0,-1.0,-1.0,1.0,-2.0,-1.0
1701961242.2545903,1.0,-3.0,-1.0,1.0,0.0,-1.0,-1.0,0.0
1701961242.2545903,-1.0,-1.0,-1.0,-2.0,-1.0,-2.0,-2.0,0.0
1701961242.2545903,-2.0,1.0,0.0,-2.0,-2.0,-2.0,0.0,1.0
1701961242.2545903,0.0,-2.0,1.0,-1.0,-1.0,-3.0,-1.0,-2.0
1701961242.2849352,1.0,-1.0,-1.0,-3.0,0.0,0.0,-2.0,0.0
1701961242.2849352,0.0,-2.0,-3.0,-2.0,-3.0,-1.0,-2.0,0.0
1701961242.2849352,0.0,-2.0,-2.0,0.0,-3.0,-1.0,-1.0,1.0
1701961242.2849352,-1.0,-1.0,-4.0,-2.0,-3.0,-3.0,-1.0,-3.0
1701961242.29459,-3.0,-2.0,-1.0,-1.0,-1.0,-2.0,-2.0,-2.0
1701961242.29459,-1.0,-2.0,2.0,0.0,0.0,-1.0,0.0,0.0
1701961242.29459,0.0,-2.0,-3.0,-1.0,1.0,0.0,-2.0,-3.0
1701961242.29459,0.0,-2.0,0.0,0.0,-1.0,-1.0,-2.0,-1.0
1701961242.3146806,-1.0,-3.0,-2.0,-1.0,-2.0,-2.0,-3.0,-1.0
1701961242.3146806,0.0,0.0,-2.0,-1.0,-2.0,-2.0,-2.0,-1.0
1701961242.3146806,-2.0,-1.0,0.0,-1.0,-1.0,-2.0,-3.0,-1.0
1701961242.3146806,-3.0,-1.0,-1.0,0.0,1.0,-2.0,-1.0,1.0
1701961242.334591,-2.0,-1.0,-1.0,-1.0,1.0,-2.0,1.0,-1.0
1701961242.334591,-2.0,-1.0,-3.0,0.0,0.0,1.0,-2.0,-1.0
1701961242.334591,0.0,-1.0,-1.0,-1.0,0.0,-1.0,-2.0,-3.0
1701961242.334591,-1.0,0.0,0.0,-1.0,-2.0,-2.0,-1.0,-1.0
1701961242.3445935,-3.0,-2.0,-2.0,-2.0,-1.0,-2.0,-1.0,-1.0
1701961242.3445935,-1.0,-2.0,-1.0,-2.0,-2.0,-2.0,0.0,0.0
1701961242.3548086,0.0,-4.0,0.0,-1.0,-1.0,1.0,-3.0,-1.0
1701961242.3548086,0.0,0.0,0.0,1.0,0.0,1.0,0.0,-1.0
1701961242.3746617,-1.0,-1.0,-1.0,-1.0,1.0,-2.0,-2.0,0.0
1701961242.3746617,0.0,-1.0,0.0,-1.0,-2.0,-1.0,-3.0,-1.0
1701961242.3746617,-2.0,-2.0,-2.0,-3.0,-1.0,0.0,-1.0,0.0
1701961242.3746617,-1.0,-2.0,-3.0,0.0,-1.0,1.0,-1.0,-1.0
1701961242.4045901,-1.0,1.0,-3.0,0.0,-1.0,-1.0,0.0,0.0
1701961242.4045901,0.0,-1.0,-1.0,1.0,1.0,-3.0,1.0,-2.0
1701961242.4045901,-2.0,-1.0,-2.0,-2.0,-1.0,0.0,0.0,0.0
1701961242.4045901,-1.0,0.0,0.0,-2.0,-1.0,-1.0,-1.0,0.0
1701961242.4045901,-1.0,-3.0,-1.0,0.0,-1.0,-1.0,-2.0,-2.0
1701961242.4045901,-1.0,0.0,-1.0,-2.0,-2.0,1.0,-2.0,-2.0
1701961242.414588,-1.0,0.0,0.0,-1.0,-1.0,-1.0,0.0,0.0
1701961242.414588,0.0,-1.0,0.0,-2.0,-2.0,-1.0,0.0,-3.0
1701961242.454588,-1.0,-1.0,0.0,0.0,-3.0,2.0,-3.0,-1.0
1701961242.454588,-1.0,-1.0,-2.0,-1.0,0.0,-1.0,-1.0,0.0
1701961242.454588,0.0,-2.0,-1.0,0.0,0.0,-1.0,-1.0,-2.0
1701961242.454588,-1.0,-2.0,-1.0,-1.0,-1.0,-2.0,0.0,0.0
1701961242.454588,0.0,0.0,-2.0,-2.0,-2.0,-1.0,0.0,0.0
1701961242.454588,-2.0,0.0,-2.0,-1.0,-1.0,1.0,1.0,-2.0
1701961242.454588,-2.0,1.0,-2.0,-1.0,-1.0,0.0,0.0,-1.0
1701961242.454588,-1.0,-2.0,-1.0,-1.0,0.0,-1.0,0.0,0.0
1701961242.4645913,0.0,0.0,0.0,-1.0,-1.0,-1.0,1.0,0.0
1701961242.4645913,-1.0,-1.0,-2.0,-2.0,1.0,0.0,-1.0,0.0
1701961242.4749238,1.0,-1.0,-1.0,-2.0,0.0,-2.0,-1.0,0.0
1701961242.4749238,-1.0,0.0,0.0,0.0,-3.0,-1.0,-2.0,1.0
1701961242.494597,-1.0,0.0,1.0,-2.0,0.0,-1.0,-1.0,0.0
1701961242.494597,1.0,0.0,-2.0,0.0,-4.0,0.0,-1.0,-2.0
1701961242.494597,0.0,-1.0,0.0,0.0,-1.0,-1.0,-1.0,-2.0
1701961242.494597,-2.0,-3.0,-2.0,-2.0,-1.0,0.0,-2.0,-2.0
1701961242.5148678,0.0,1.0,-1.0,0.0,0.0,-3.0,-1.0,-1.0
1701961242.5148678,0.0,-3.0,-2.0,-1.0,-1.0,-3.0,-1.0,1.0
1701961242.5148678,0.0,-1.0,-1.0,1.0,-2.0,-2.0,-1.0,1.0
1701961242.5148678,0.0,-2.0,0.0,0.0,-1.0,-2.0,-1.0,0.0
1701961242.5348682,-2.0,-1.0,1.0,-1.0,-1.0,-2.0,-2.0,1.0
1701961242.5348682,-2.0,-1.0,-3.0,-1.0,-1.0,0.0,0.0,-2.0
1701961242.5348682,-1.0,0.0,-2.0,-1.0,-1.0,-2.0,-2.0,-1.0
1701961242.5348682,0.0,-1.0,-2.0,1.0,-2.0,-1.0,-1.0,-2.0
1701961242.578514,0.0,-1.0,-3.0,-3.0,0.0,0.0,-2.0,0.0
1701961242.578514,-1.0,-1.0,1.0,-1.0,-2.0,-4.0,-2.0,-1.0
1701961242.578514,0.0,-1.0,-1.0,-1.0,-2.0,-1.0,-3.0,-2.0
1701961242.578514,-3.0,-1.0,-3.0,-2.0,0.0,-2.0,-2.0,0.0
1701961242.578514,-1.0,-3.0,-2.0,-1.0,-2.0,-1.0,-1.0,-2.0
1701961242.578514,1.0,0.0,-1.0,-1.0,-1.0,-3.0,-3.0,-1.0
1701961242.578514,-1.0,-1.0,-1.0,-2.0,0.0,-2.0,-1.0,1.0
1701961242.578514,0.0,-1.0,-1.0,1.0,-1.0,0.0,0.0,-1.0
1701961242.5867522,0.0,-2.0,0.0,0.0,-1.0,-1.0,0.0,-1.0
1701961242.5867522,-2.0,-3.0,-2.0,-2.0,-1.0,-1.0,0.0,-2.0
1701961242.5967662,-3.0,-1.0,0.0,-1.0,-2.0,0.0,0.0,0.0
1701961242.5967662,-1.0,-1.0,-1.0,-1.0,-1.0,-2.0,-1.0,-1.0
1701961242.6067548,-3.0,-3.0,-3.0,-3.0,0.0,0.0,0.0,0.0
1701961242.6067548,-1.0,-1.0,-2.0,-2.0,0.0,-1.0,-3.0,0.0
1701961242.6067548,-1.0,0.0,0.0,-1.0,0.0,-2.0,-1.0,-1.0
1701961242.6067548,-1.0,-2.0,-3.0,-2.0,0.0,-3.0,-2.0,0.0
1701961242.637204,0.0,0.0,-1.0,-2.0,-1.0,-3.0,-1.0,-1.0
1701961242.637204,0.0,-3.0,-1.0,0.0,-3.0,-1.0,-1.0,0.0
1701961242.637204,-2.0,-1.0,-1.0,-1.0,-2.0,-2.0,-3.0,0.0
1701961242.637204,0.0,-2.0,-1.0,-1.0,-1.0,0.0,0.0,0.0
1701961242.666754,0.0,0.0,0.0,-1.0,-1.0,-1.0,-2.0,-2.0
1701961242.666754,-1.0,-1.0,0.0,-2.0,0.0,0.0,0.0,-1.0
1701961242.666754,-1.0,0.0,-1.0,1.0,-2.0,1.0,-1.0,-1.0
1701961242.666754,-2.0,-1.0,-1.0,-2.0,-1.0,1.0,-2.0,-3.0
1701961242.666754,-2.0,0.0,0.0,-2.0,-1.0,-1.0,-1.0,0.0
1701961242.666754,-2.0,0.0,-1.0,0.0,0.0,-1.0,-1.0,-1.0
1701961242.666754,0.0,-1.0,-1.0,-2.0,-1.0,0.0,1.0,0.0
1701961242.666754,-1.0,1.0,1.0,-2.0,1.0,2.0,1.0,-1.0
1701961242.6969147,-2.0,-1.0,-2.0,1.0,1.0,0.0,0.0,-2.0
1701961242.6969147,-1.0,0.0,0.0,0.0,-2.0,0.0,0.0,0.0
1701961242.6969147,-1.0,0.0,-1.0,-1.0,0.0,-2.0,-1.0,0.0
1701961242.6969147,0.0,-1.0,-1.0,-1.0,-2.0,-1.0,-1.0,0.0
1701961242.736754,0.0,-2.0,0.0,-2.0,-2.0,0.0,-1.0,-1.0
1701961242.736754,-1.0,0.0,-1.0,-1.0,0.0,0.0,1.0,0.0
1701961242.736754,-1.0,-2.0,-1.0,0.0,0.0,-1.0,-1.0,0.0
1701961242.736754,-2.0,0.0,0.0,-1.0,-1.0,0.0,1.0,0.0
1701961242.736754,0.0,1.0,-3.0,1.0,0.0,0.0,0.0,-1.0
1701961242.736754,-2.0,-1.0,0.0,0.0,-1.0,-2.0,-3.0,0.0
1701961242.736754,-1.0,-2.0,-1.0,-1.0,0.0,1.0,-2.0,-1.0
1701961242.736754,0.0,-1.0,-3.0,-2.0,-1.0,-3.0,-2.0,0.0
1701961242.7570813,-2.0,0.0,0.0,1.0,-2.0,-2.0,-1.0,0.0
1701961242.7570813,0.0,-2.0,-1.0,-1.0,-3.0,0.0,-1.0,-3.0
1701961242.7570813,-1.0,0.0,-2.0,-1.0,-1.0,-2.0,0.0,-2.0
1701961242.7570813,0.0,-3.0,-2.0,-1.0,-3.0,-2.0,-2.0,-1.0
1701961242.8067536,0.0,-2.0,0.0,-1.0,-1.0,-2.0,-1.0,0.0
1701961242.8067536,1.0,-2.0,-1.0,0.0,-2.0,-3.0,-1.0,-2.0
1701961242.8067536,0.0,-1.0,-1.0,-2.0,-2.0,-2.0,-3.0,-1.0
1701961242.8067536,-3.0,-1.0,-2.0,0.0,0.0,-2.0,-1.0,-2.0
1701961242.8067536,-2.0,0.0,-1.0,-1.0,-2.0,0.0,-3.0,1.0
1701961242.8067536,-1.0,-1.0,-2.0,-1.0,0.0,0.0,0.0,0.0
1701961242.8067536,-1.0,-1.0,0.0,-2.0,-2.0,-1.0,0.0,-1.0
1701961242.8067536,0.0,0.0,0.0,0.0,0.0,-1.0,0.0,-2.0
1701961242.8167627,-2.0,0.0,-1.0,-2.0,-2.0,1.0,-1.0,-2.0
1701961242.8167627,-1.0,-2.0,-1.0,-2.0,0.0,0.0,0.0,-2.0
1701961242.8167627,-3.0,-1.0,-1.0,-1.0,-2.0,-1.0,-2.0,0.0
1701961242.8167627,-3.0,-2.0,-2.0,-2.0,-2.0,-2.0,-2.0,-1.0
1701961242.8367558,1.0,-2.0,-1.0,0.0,1.0,0.0,1.0,-1.0
1701961242.8367558,0.0,1.0,-1.0,-1.0,-1.0,0.0,-2.0,0.0
1701961242.8367558,-1.0,-1.0,-3.0,-1.0,0.0,2.0,3.0,-4.0
1701961242.8367558,3.0,3.0,1.0,-1.0,-2.0,0.0,-3.0,10.0
1701961242.8467565,-3.0,-2.0,-1.0,-2.0,-1.0,2.0,0.0,-2.0
1701961242.8467565,-3.0,-1.0,-2.0,-1.0,-1.0,0.0,-1.0,1.0
1701961242.8467565,0.0,0.0,-1.0,1.0,0.0,0.0,1.0,-1.0
1701961242.8467565,-3.0,-1.0,-2.0,-1.0,-1.0,0.0,-1.0,-3.0
1701961242.876955,-1.0,0.0,-2.0,-2.0,-1.0,-2.0,-1.0,-3.0
1701961242.876955,0.0,-2.0,0.0,-1.0,-1.0,0.0,1.0,-1.0
1701961242.876955,-2.0,0.0,0.0,-3.0,0.0,0.0,-3.0,-1.0
1701961242.876955,-2.0,-3.0,-1.0,0.0,-1.0,-1.0,0.0,-2.0
1701961242.8967893,0.0,-1.0,-1.0,-3.0,-2.0,-3.0,-2.0,-1.0
1701961242.8967893,-1.0,-1.0,-2.0,-2.0,0.0,0.0,0.0,-3.0
1701961242.8967893,1.0,-2.0,-1.0,-1.0,0.0,-1.0,-1.0,0.0
1701961242.8967893,0.0,0.0,0.0,-1.0,-1.0,-1.0,0.0,-2.0
1701961242.9067566,0.0,-1.0,-2.0,0.0,-2.0,-2.0,-2.0,1.0
1701961242.9067566,1.0,-2.0,-2.0,-1.0,-1.0,-3.0,-1.0,-1.0
1701961242.9067566,-3.0,-1.0,-1.0,-1.0,-2.0,-2.0,-1.0,0.0
1701961242.9067566,0.0,-1.0,-1.0,-2.0,-1.0,-2.0,0.0,-1.0
1701961242.93691,-2.0,-2.0,-2.0,-1.0,-2.0,1.0,-2.0,-1.0
1701961242.93691,0.0,0.0,0.0,0.0,-2.0,-1.0,-1.0,-1.0
1701961242.93691,0.0,-2.0,-1.0,0.0,-1.0,-1.0,-2.0,-1.0
1701961242.93691,0.0,0.0,0.0,-1.0,-2.0,-1.0,-2.0,-4.0
1701961242.9569385,-1.0,-2.0,-1.0,0.0,-2.0,-1.0,-1.0,0.0
1701961242.9569385,-1.0,-2.0,0.0,-1.0,-1.0,-3.0,-1.0,0.0
1701961242.9569385,0.0,-4.0,-1.0,0.0,-2.0,-3.0,-3.0,0.0
1701961242.9569385,-1.0,-2.0,0.0,0.0,-1.0,-2.0,-2.0,-3.0
1701961242.966757,-1.0,-1.0,-2.0,1.0,-1.0,-2.0,-2.0,-1.0
1701961242.966757,-1.0,-2.0,-1.0,-2.0,-3.0,-2.0,-3.0,0.0
1701961242.966757,-1.0,0.0,0.0,-2.0,-3.0,-2.0,-1.0,-1.0
1701961242.966757,-2.0,-2.0,-3.0,-2.0,-1.0,-1.0,-1.0,-1.0
1701961242.996755,-1.0,-1.0,-1.0,-1.0,-1.0,-1.0,-1.0,0.0
1701961242.996755,0.0,-1.0,-1.0,0.0,-1.0,-1.0,0.0,0.0
1701961242.996755,-1.0,-1.0,0.0,0.0,-1.0,-1.0,-1.0,-1.0
1701961242.996755,0.0,-1.0,-2.0,0.0,-1.0,-1.0,0.0,-1.0
1701961243.017083,-1.0,-1.0,-2.0,-1.0,1.0,-2.0,-1.0,-1.0
1701961243.017083,0.0,0.0,-1.0,1.0,0.0,0.0,0.0,-2.0
1701961243.017083,-1.0,-2.0,-2.0,-2.0,-2.0,-3.0,-1.0,-1.0
1701961243.017083,-2.0,-1.0,-1.0,-1.0,0.0,1.0,1.0,-1.0
1701961243.0267558,-1.0,-2.0,0.0,-1.0,0.0,0.0,0.0,-1.0
1701961243.0267558,1.0,-1.0,-1.0,-1.0,0.0,0.0,-1.0,0.0
1701961243.0267558,-1.0,-1.0,-2.0,-2.0,-1.0,-2.0,0.0,-2.0
1701961243.0267558,-1.0,-1.0,-1.0,-1.0,-3.0,0.0,-1.0,-3.0
1701961243.0567567,1.0,-2.0,-2.0,-1.0,-1.0,-2.0,-1.0,-2.0
1701961243.0567567,-2.0,-1.0,-1.0,-1.0,-1.0,-1.0,-1.0,-1.0
1701961243.0567567,-1.0,-2.0,-2.0,0.0,-2.0,0.0,-1.0,-1.0
1701961243.0567567,0.0,0.0,0.0,0.0,0.0,0.0,0.0,-2.0
1701961243.0767608,-2.0,-1.0,0.0,-2.0,-1.0,1.0,2.0,0.0
1701961243.0767608,-2.0,-1.0,0.0,-1.0,-2.0,-2.0,-1.0,0.0
1701961243.0767608,-1.0,-1.0,-1.0,0.0,-1.0,-2.0,0.0,0.0
1701961243.0767608,0.0,-2.0,-3.0,-1.0,-1.0,0.0,0.0,-1.0
1701961243.0946324,0.0,1.0,0.0,-1.0,-2.0,-1.0,-2.0,-1.0
1701961243.0956545,-2.0,-1.0,-2.0,-1.0,0.0,0.0,-1.0,0.0
1701961243.0956545,-2.0,0.0,-2.0,-2.0,0.0,0.0,-1.0,-2.0
1701961243.0956545,-1.0,-1.0,-1.0,-1.0,0.0,-1.0,-2.0,1.0
1701961243.1298409,-1.0,-1.0,-1.0,0.0,0.0,-2.0,-2.0,-1.0
1701961243.1298409,-2.0,0.0,0.0,0.0,-1.0,0.0,1.0,0.0
1701961243.1298409,-2.0,-1.0,0.0,-1.0,0.0,-1.0,0.0,-1.0
1701961243.1298409,-3.0,0.0,-1.0,-2.0,-1.0,-3.0,-2.0,-2.0
1701961243.1398423,-2.0,-1.0,-1.0,0.0,-1.0,-1.0,-1.0,-1.0
1701961243.1398423,-1.0,-1.0,-2.0,-2.0,0.0,-1.0,-2.0,-1.0
1701961243.1398423,0.0,-1.0,0.0,0.0,0.0,1.0,-1.0,0.0
1701961243.1398423,0.0,0.0,-3.0,-1.0,-1.0,0.0,0.0,-1.0
1701961243.1502135,-1.0,-2.0,-1.0,-1.0,-2.0,-1.0,0.0,-3.0
1701961243.1502135,-1.0,-2.0,-3.0,0.0,-1.0,1.0,-2.0,-2.0
1701961243.1502135,1.0,2.0,-2.0,-2.0,-1.0,-1.0,-1.0,0.0
1701961243.1502135,-2.0,-1.0,-2.0,1.0,-2.0,0.0,-2.0,-1.0
1701961243.1703203,0.0,0.0,0.0,-2.0,-1.0,-2.0,-2.0,-1.0
1701961243.1703203,-1.0,-1.0,-1.0,-2.0,-2.0,-1.0,-1.0,-3.0
1701961243.1703203,-2.0,-1.0,0.0,0.0,-1.0,-1.0,1.0,-1.0
1701961243.1703203,-3.0,-2.0,0.0,0.0,0.0,-2.0,-2.0,-2.0
1701961243.2003396,1.0,-2.0,-2.0,0.0,-1.0,-2.0,-2.0,-1.0
1701961243.2003396,-3.0,-1.0,-2.0,-1.0,-2.0,0.0,1.0,-1.0
1701961243.2003396,-3.0,0.0,-2.0,-1.0,1.0,0.0,-1.0,0.0
1701961243.2003396,0.0,-2.0,-1.0,-3.0,-1.0,0.0,0.0,-1.0
1701961243.210471,0.0,-3.0,0.0,-2.0,0.0,-3.0,0.0,-1.0
1701961243.210471,0.0,-2.0,0.0,-1.0,0.0,-2.0,-1.0,-1.0
1701961243.210471,1.0,-1.0,0.0,-2.0,-1.0,-1.0,-2.0,-2.0
1701961243.210471,-1.0,-1.0,-1.0,-1.0,0.0,-1.0,-2.0,-1.0
1701961243.23032,-2.0,0.0,0.0,-1.0,-3.0,1.0,-1.0,-2.0
1701961243.23032,-1.0,-2.0,0.0,-1.0,-1.0,-3.0,-2.0,0.0
1701961243.23032,-1.0,-2.0,-1.0,-2.0,-3.0,-1.0,-2.0,0.0
1701961243.23032,-1.0,-2.0,-1.0,-2.0,-1.0,-2.0,0.0,-1.0
1701961243.250621,-2.0,0.0,-2.0,-1.0,0.0,1.0,0.0,0.0
1701961243.250621,-1.0,-2.0,-3.0,-2.0,-2.0,-2.0,-1.0,0.0
1701961243.2603214,0.0,-2.0,-1.0,0.0,-2.0,-4.0,0.0,0.0
1701961243.2603214,-1.0,0.0,-1.0,-1.0,-2.0,-2.0,-1.0,-1.0
1701961243.2706084,-2.0,0.0,0.0,0.0,1.0,2.0,-1.0,-1.0
1701961243.2706084,-3.0,-1.0,2.0,-1.0,0.0,1.0,-1.0,-3.0
1701961243.2706084,0.0,0.0,0.0,-2.0,-2.0,-1.0,-1.0,-3.0
1701961243.2706084,-1.0,-2.0,0.0,0.0,-2.0,1.0,-1.0,-3.0
1701961243.2903209,-2.0,1.0,-1.0,-2.0,-2.0,-1.0,-1.0,-1.0
1701961243.2903209,-1.0,-1.0,-1.0,-3.0,-1.0,0.0,-3.0,-2.0
1701961243.2903209,0.0,-1.0,0.0,-2.0,-1.0,-2.0,-1.0,0.0
1701961243.2903209,0.0,0.0,-2.0,-1.0,-1.0,-3.0,-1.0,-1.0
1701961243.3106472,0.0,-2.0,-2.0,-1.0,1.0,-1.0,-1.0,1.0
1701961243.3106472,-1.0,0.0,-2.0,1.0,-2.0,-1.0,1.0,0.0
1701961243.3203232,-2.0,0.0,-2.0,-1.0,0.0,1.0,-1.0,-1.0
1701961243.3203232,-1.0,0.0,-2.0,-1.0,0.0,0.0,-1.0,0.0
1701961243.330624,-2.0,0.0,0.0,-1.0,-2.0,0.0,-2.0,-2.0
1701961243.330624,-1.0,-2.0,-3.0,-2.0,-3.0,0.0,-1.0,-2.0
1701961243.330624,-1.0,-2.0,-2.0,0.0,-2.0,-1.0,-2.0,0.0
1701961243.330624,-1.0,-2.0,0.0,0.0,-1.0,-1.0,0.0,-1.0
1701961243.350535,1.0,-2.0,-1.0,0.0,0.0,-1.0,-1.0,-1.0
1701961243.350535,-1.0,0.0,-1.0,-2.0,0.0,-1.0,-1.0,0.0
1701961243.350535,-2.0,-2.0,-1.0,0.0,-1.0,1.0,-2.0,-1.0
1701961243.350535,0.0,-2.0,-1.0,-1.0,0.0,0.0,-2.0,-1.0
1701961243.3703225,-1.0,0.0,-2.0,-1.0,-3.0,-2.0,-1.0,-1.0
1701961243.3703225,1.0,0.0,0.0,0.0,-2.0,-1.0,-2.0,-1.0
1701961243.3703225,-2.0,-2.0,-3.0,-1.0,-1.0,-2.0,-2.0,-1.0
1701961243.3703225,-1.0,-1.0,1.0,-2.0,-1.0,-1.0,-3.0,-1.0
1701961243.3903258,-2.0,-2.0,-2.0,0.0,-2.0,-1.0,-1.0,0.0
1701961243.3903258,-1.0,0.0,-1.0,0.0,-1.0,-2.0,-3.0,-3.0
1701961243.3903258,-3.0,-2.0,-1.0,0.0,0.0,-2.0,0.0,0.0
1701961243.3903258,0.0,0.0,-2.0,-3.0,-1.0,-1.0,-2.0,-1.0
1701961243.410562,-2.0,-2.0,1.0,1.0,-2.0,-1.0,-1.0,-2.0
1701961243.410562,-1.0,-1.0,-2.0,-1.0,-1.0,-2.0,-2.0,-2.0
1701961243.410562,0.0,-1.0,0.0,0.0,-1.0,-2.0,0.0,-2.0
1701961243.410562,1.0,-1.0,-1.0,-2.0,-5.0,-2.0,-1.0,-1.0
1701961243.4403245,0.0,-1.0,-2.0,-3.0,1.0,-3.0,0.0,0.0
1701961243.4403245,-1.0,-1.0,-1.0,0.0,-1.0,-2.0,-2.0,-2.0
1701961243.4403245,0.0,-1.0,0.0,0.0,-2.0,0.0,-2.0,-2.0
1701961243.4403245,-1.0,-2.0,0.0,-1.0,0.0,0.0,-2.0,1.0
1701961243.4703217,-2.0,-1.0,-1.0,0.0,-3.0,0.0,-2.0,0.0
1701961243.4703217,0.0,-1.0,-1.0,0.0,-1.0,0.0,0.0,0.0
1701961243.4703217,-1.0,0.0,-2.0,-2.0,-1.0,0.0,-1.0,-1.0
1701961243.4703217,-1.0,-2.0,-1.0,0.0,0.0,0.0,-1.0,-1.0
1701961243.4703217,-2.0,-1.0,-1.0,-3.0,0.0,-2.0,-1.0,-3.0
1701961243.4703217,0.0,-2.0,0.0,-1.0,2.0,-1.0,0.0,-2.0
1701961243.4703217,0.0,-2.0,0.0,0.0,-1.0,-1.0,0.0,-1.0
1701961243.4703217,-1.0,0.0,-1.0,1.0,-1.0,-1.0,2.0,0.0
1701961243.5003204,0.0,2.0,-3.0,-1.0,-1.0,0.0,-1.0,0.0
1701961243.5003204,-2.0,0.0,-2.0,-1.0,-1.0,-1.0,1.0,-2.0
1701961243.5003204,0.0,-2.0,-2.0,-3.0,1.0,3.0,0.0,-2.0
1701961243.5003204,1.0,0.0,-1.0,-1.0,0.0,0.0,0.0,-1.0
1701961243.510353,-1.0,0.0,-1.0,-2.0,-2.0,-1.0,1.0,-1.0
1701961243.510353,1.0,-2.0,-1.0,-1.0,-1.0,-1.0,-1.0,1.0
1701961243.5206797,-2.0,-1.0,0.0,-1.0,-2.0,-1.0,-2.0,0.0
1701961243.5206797,-3.0,-2.0,-2.0,0.0,0.0,-2.0,0.0,-2.0
1701961243.5306194,0.0,-2.0,0.0,0.0,0.0,-2.0,0.0,0.0
1701961243.5306194,-2.0,0.0,-1.0,-2.0,-1.0,-2.0,-2.0,0.0
1701961243.5306194,-2.0,-2.0,-1.0,-3.0,-2.0,-3.0,-2.0,-2.0
1701961243.5306194,-2.0,-2.0,-1.0,0.0,-1.0,-2.0,-1.0,-1.0
1701961243.5603218,0.0,-2.0,-1.0,0.0,0.0,-1.0,0.0,-2.0
1701961243.5603218,-2.0,-1.0,-2.0,-1.0,-2.0,-2.0,-2.0,0.0
1701961243.5603218,0.0,-1.0,-1.0,0.0,1.0,-2.0,0.0,-2.0
1701961243.5603218,0.0,0.0,-1.0,-2.0,-2.0,-1.0,0.0,-3.0
1701961243.5704875,-1.0,-3.0,-1.0,-1.0,-1.0,1.0,-2.0,-1.0
1701961243.5704875,-2.0,-1.0,-1.0,-1.0,-1.0,0.0,-1.0,-2.0
1701961243.5803218,-1.0,-2.0,-1.0,-2.0,-1.0,-1.0,0.0,-1.0
1701961243.5803218,0.0,-1.0,-1.0,1.0,0.0,1.0,-2.0,-1.0
1701961243.5903685,-1.0,-2.0,-1.0,-1.0,-1.0,-1.0,-1.0,-3.0
1701961243.5903685,0.0,-1.0,0.0,-2.0,-1.0,0.0,-1.0,0.0
1701961243.5903685,0.0,2.0,-2.0,0.0,-1.0,-1.0,-2.0,-1.0
1701961243.5903685,-2.0,-2.0,-1.0,-1.0,-3.0,-1.0,-2.0,0.0
1701961243.6357174,-3.0,0.0,-1.0,-1.0,-1.0,0.0,-2.0,0.0
1701961243.6357174,-2.0,-1.0,-2.0,0.0,-1.0,-1.0,0.0,-2.0
1701961243.6357174,-1.0,0.0,-3.0,-1.0,-3.0,1.0,0.0,-2.0
1701961243.6357174,0.0,0.0,0.0,-2.0,-1.0,-2.0,-1.0,0.0
1701961243.6357174,-1.0,1.0,-2.0,0.0,0.0,-2.0,-1.0,-1.0
1701961243.6357174,0.0,0.0,-2.0,0.0,-1.0,-2.0,-3.0,-2.0
1701961243.6357174,-1.0,1.0,-3.0,0.0,-2.0,-1.0,-1.0,0.0
1701961243.6357174,0.0,-2.0,-2.0,-2.0,1.0,-3.0,-2.0,-2.0
1701961243.6558566,-1.0,0.0,-1.0,0.0,-2.0,0.0,-1.0,0.0
1701961243.6558566,-1.0,-1.0,1.0,0.0,-1.0,-1.0,-1.0,-1.0
1701961243.6558566,-2.0,-1.0,0.0,-1.0,1.0,0.0,-2.0,0.0
1701961243.6558566,-2.0,-2.0,-3.0,-1.0,0.0,-1.0,-1.0,0.0
1701961243.6857233,-1.0,0.0,-1.0,-1.0,0.0,0.0,-1.0,-2.0
1701961243.6857233,-1.0,-1.0,-1.0,-1.0,-1.0,1.0,-1.0,0.0
1701961243.6857233,-2.0,-2.0,-3.0,-2.0,-2.0,-2.0,-3.0,0.0
1701961243.6857233,-3.0,0.0,-1.0,0.0,-1.0,-1.0,-2.0,0.0
1701961243.6957207,0.0,-3.0,0.0,-1.0,-3.0,-1.0,-1.0,-1.0
1701961243.6957207,1.0,-2.0,0.0,-1.0,-1.0,-1.0,0.0,-2.0
1701961243.705726,-1.0,-1.0,0.0,-1.0,-1.0,-2.0,-1.0,-1.0
1701961243.705726,-1.0,-1.0,1.0,-3.0,-1.0,1.0,0.0,-1.0
1701961243.7157507,0.0,-2.0,-1.0,2.0,1.0,0.0,1.0,-4.0
1701961243.7157507,-3.0,-3.0,0.0,-1.0,1.0,-1.0,-1.0,0.0
1701961243.7157507,1.0,-3.0,0.0,-1.0,-1.0,0.0,2.0,-1.0
1701961243.7157507,-1.0,-1.0,-2.0,1.0,-1.0,-1.0,-1.0,-1.0
1701961243.7457175,-1.0,-1.0,-4.0,-2.0,-3.0,-3.0,-2.0,1.0
1701961243.7457175,-2.0,0.0,-1.0,-3.0,-1.0,-1.0,0.0,0.0
1701961243.7457175,0.0,-1.0,0.0,-2.0,-1.0,-1.0,-2.0,-2.0
1701961243.7457175,-1.0,1.0,-2.0,-5.0,-1.0,-1.0,-1.0,-1.0
1701961243.7457175,-1.0,-2.0,-2.0,-2.0,-1.0,0.0,-1.0,-2.0
1701961243.7457175,0.0,1.0,-2.0,0.0,-1.0,1.0,0.0,0.0
1701961243.7660813,0.0,-1.0,0.0,0.0,-1.0,-2.0,-1.0,-2.0
1701961243.7660813,-2.0,-1.0,1.0,1.0,0.0,-1.0,-2.0,-1.0
1701961243.7758298,-1.0,-2.0,0.0,2.0,0.0,-2.0,-2.0,-2.0
1701961243.7758298,-1.0,0.0,-2.0,-2.0,-2.0,-2.0,-1.0,-1.0
1701961243.7758298,1.0,-2.0,-1.0,-2.0,1.0,1.0,1.0,-2.0
1701961243.7758298,2.0,1.0,0.0,-1.0,0.0,2.0,0.0,0.0
1701961243.7957473,0.0,0.0,-1.0,-2.0,0.0,0.0,-1.0,-1.0
1701961243.7957473,-1.0,-1.0,-1.0,-2.0,-1.0,-1.0,-2.0,-3.0
1701961243.7957473,-1.0,0.0,-1.0,-4.0,-2.0,-2.0,1.0,-1.0
1701961243.7957473,-1.0,-1.0,-2.0,0.0,-4.0,-2.0,-1.0,-2.0
1701961243.8161352,-1.0,-1.0,-1.0,-3.0,-2.0,1.0,0.0,1.0
1701961243.8161352,-2.0,-3.0,-1.0,-1.0,-1.0,-1.0,1.0,-1.0
1701961243.8161352,0.0,-1.0,-2.0,-2.0,0.0,0.0,-1.0,-2.0
1701961243.8161352,-1.0,-2.0,-1.0,-1.0,0.0,-1.0,-1.0,1.0
1701961243.8358052,-2.0,-1.0,0.0,0.0,-1.0,-1.0,0.0,-2.0
1701961243.8358052,-1.0,-2.0,-1.0,0.0,-1.0,-1.0,-3.0,-2.0
1701961243.8358052,-1.0,-1.0,0.0,0.0,1.0,-1.0,-1.0,-2.0
1701961243.8358052,0.0,-3.0,-1.0,1.0,-2.0,-2.0,-1.0,0.0
1701961243.8557434,-1.0,-2.0,-1.0,-3.0,-3.0,-3.0,-1.0,0.0
1701961243.8557434,-1.0,0.0,2.0,-2.0,0.0,0.0,-1.0,-1.0
1701961243.8557434,-2.0,0.0,0.0,0.0,-2.0,0.0,-2.0,0.0
1701961243.8557434,-3.0,-2.0,-1.0,-1.0,0.0,-1.0,0.0,-2.0
1701961243.8761146,-1.0,-1.0,1.0,-2.0,1.0,-1.0,-3.0,-2.0
1701961243.8761146,-2.0,-1.0,-1.0,-2.0,-1.0,1.0,-2.0,-2.0
1701961243.8761146,-1.0,0.0,0.0,1.0,-1.0,-1.0,-3.0,-1.0
1701961243.8761146,0.0,1.0,-1.0,-2.0,-3.0,-1.0,-1.0,0.0
1701961243.8957186,0.0,-1.0,-2.0,1.0,0.0,-2.0,-1.0,0.0
1701961243.8957186,-2.0,0.0,-1.0,-2.0,-1.0,-1.0,-2.0,-1.0
1701961243.8957186,0.0,0.0,-1.0,1.0,-1.0,-1.0,-1.0,-1.0
1701961243.8957186,-1.0,-2.0,0.0,-3.0,0.0,1.0,-1.0,-3.0
1701961243.925913,-3.0,-2.0,-3.0,-3.0,0.0,0.0,-1.0,-2.0
1701961243.925913,-1.0,-1.0,-1.0,-1.0,-2.0,-1.0,0.0,0.0
1701961243.925913,-2.0,-2.0,-2.0,-1.0,0.0,-2.0,-1.0,0.0
1701961243.925913,0.0,-2.0,0.0,-1.0,1.0,0.0,0.0,-2.0
1701961243.935719,-1.0,-1.0,-2.0,-3.0,-3.0,-2.0,1.0,-2.0
1701961243.935719,-1.0,-1.0,-1.0,-1.0,-1.0,-3.0,-1.0,-1.0
1701961243.935719,-1.0,0.0,-2.0,0.0,-1.0,-2.0,0.0,0.0
1701961243.935719,-1.0,0.0,-1.0,-2.0,-2.0,-4.0,-2.0,0.0
1701961243.9560115,-1.0,-2.0,0.0,0.0,-1.0,-5.0,-2.0,-1.0
1701961243.9560115,0.0,-1.0,0.0,2.0,-3.0,-2.0,-2.0,-2.0
1701961243.9560115,2.0,0.0,0.0,-1.0,-1.0,-1.0,0.0,-2.0
1701961243.9560115,0.0,0.0,1.0,-2.0,-1.0,-1.0,-2.0,-1.0
1701961243.97629,-1.0,0.0,-1.0,-1.0,-2.0,0.0,-1.0,-2.0
1701961243.97629,0.0,-2.0,-1.0,0.0,-1.0,-1.0,0.0,1.0
1701961243.9862556,-1.0,-2.0,-1.0,-1.0,-2.0,-1.0,-1.0,-1.0
1701961243.9862556,0.0,-1.0,-1.0,0.0,-2.0,-1.0,0.0,-1.0
1701961243.996257,-1.0,0.0,-3.0,-1.0,-2.0,-1.0,-1.0,0.0
1701961243.996257,1.0,1.0,-3.0,0.0,-2.0,-1.0,0.0,-2.0
1701961243.996257,-2.0,-2.0,0.0,-4.0,-1.0,-2.0,-2.0,-1.0
1701961243.996257,0.0,0.0,-1.0,0.0,0.0,-1.0,0.0,-1.0
1701961244.0259826,-2.0,-2.0,-1.0,1.0,1.0,-3.0,-3.0,1.0
1701961244.0259826,0.0,-1.0,-1.0,-3.0,-2.0,-1.0,-1.0,-1.0
1701961244.0259826,-1.0,0.0,-2.0,-1.0,-2.0,0.0,-2.0,-1.0
1701961244.0259826,-1.0,0.0,-1.0,0.0,-3.0,-2.0,-1.0,-2.0
1701961244.036013,0.0,1.0,1.0,-2.0,0.0,1.0,-1.0,-3.0
1701961244.036013,-1.0,-1.0,-1.0,0.0,-1.0,0.0,-2.0,-2.0
1701961244.036013,-3.0,-3.0,0.0,-2.0,-1.0,-1.0,-2.0,0.0
1701961244.036013,-2.0,-3.0,0.0,0.0,-1.0,-3.0,-1.0,-2.0
1701961244.0564156,-1.0,0.0,-2.0,-1.0,-1.0,0.0,0.0,-1.0
1701961244.0564156,-3.0,-2.0,-2.0,-2.0,0.0,0.0,1.0,1.0
1701961244.0564156,-1.0,1.0,-1.0,0.0,-1.0,-1.0,0.0,-1.0
1701961244.0564156,-3.0,-1.0,-1.0,-1.0,0.0,0.0,-1.0,-1.0
1701961244.0759783,-1.0,0.0,1.0,1.0,-1.0,-1.0,-2.0,-1.0
1701961244.0759783,-1.0,0.0,0.0,-1.0,0.0,-1.0,-1.0,-1.0
1701961244.0759783,1.0,-1.0,-3.0,-2.0,1.0,-1.0,1.0,-1.0
1701961244.0759783,0.0,-2.0,-1.0,-1.0,-1.0,1.0,0.0,-2.0
1701961244.096305,-1.0,-1.0,-1.0,0.0,-4.0,-2.0,0.0,-1.0
1701961244.096305,-1.0,-2.0,-2.0,-3.0,0.0,-2.0,0.0,-1.0
1701961244.096305,-1.0,-1.0,0.0,-1.0,-1.0,-2.0,-1.0,-1.0
1701961244.096305,-1.0,0.0,-2.0,-1.0,0.0,-3.0,-4.0,0.0
1701961244.115978,-1.0,-1.0,0.0,-2.0,0.0,0.0,-2.0,-1.0
1701961244.115978,0.0,-1.0,-2.0,0.0,0.0,-3.0,-4.0,-2.0
1701961244.1260262,0.0,-1.0,-2.0,1.0,0.0,-1.0,-2.0,-3.0
1701961244.1260262,-2.0,0.0,0.0,1.0,-2.0,2.0,0.0,0.0
1701961244.1362548,1.0,-2.0,-1.0,0.0,0.0,-3.0,-1.0,0.0
1701961244.1362548,0.0,-1.0,0.0,-1.0,-3.0,-1.0,-2.0,1.0
1701961244.1362548,-3.0,0.0,-1.0,-2.0,-1.0,-1.0,-1.0,-3.0
1701961244.1362548,-3.0,0.0,-1.0,-1.0,0.0,-3.0,-2.0,-1.0
1701961244.159683,-1.0,-2.0,-1.0,-1.0,-1.0,-1.0,0.0,0.0
1701961244.160705,-2.0,0.0,0.0,-1.0,-1.0,-1.0,-2.0,-2.0
1701961244.160705,2.0,-4.0,0.0,0.0,-3.0,-3.0,-2.0,1.0
1701961244.160705,0.0,-2.0,-2.0,1.0,-2.0,-1.0,0.0,-1.0
1701961244.1891212,0.0,-1.0,-1.0,-2.0,-2.0,0.0,-1.0,1.0
1701961244.1891212,-1.0,-1.0,-1.0,-1.0,1.0,0.0,1.0,-1.0
1701961244.1891212,-2.0,0.0,2.0,-1.0,0.0,0.0,-1.0,0.0
1701961244.1891212,0.0,-2.0,-1.0,0.0,-2.0,-1.0,0.0,0.0
1701961244.1891212,-1.0,0.0,1.0,-1.0,-1.0,0.0,1.0,-1.0
1701961244.1891212,-1.0,-2.0,1.0,0.0,-1.0,0.0,1.0,-1.0
1701961244.1891212,0.0,0.0,-3.0,0.0,-1.0,2.0,-2.0,0.0
1701961244.1891212,-1.0,0.0,-1.0,-2.0,0.0,0.0,-1.0,-1.0
1701961244.2194657,-2.0,-2.0,-2.0,0.0,-2.0,1.0,-2.0,0.0
1701961244.2194657,0.0,-2.0,-1.0,-1.0,-2.0,-1.0,0.0,0.0
1701961244.2194657,-1.0,1.0,0.0,0.0,-1.0,-1.0,0.0,-1.0
1701961244.2194657,-1.0,-1.0,-3.0,0.0,-1.0,1.0,-1.0,-1.0
1701961244.249106,-1.0,0.0,0.0,-1.0,-1.0,-2.0,-2.0,-1.0
1701961244.249106,-1.0,-2.0,1.0,1.0,-2.0,0.0,0.0,-1.0
1701961244.249106,-3.0,-3.0,-1.0,-1.0,-1.0,-1.0,-1.0,-1.0
1701961244.249106,-2.0,-2.0,0.0,-2.0,-1.0,-1.0,-1.0,-1.0
1701961244.249106,-2.0,-1.0,-2.0,-1.0,1.0,-2.0,-1.0,-2.0
1701961244.249106,-2.0,-1.0,-1.0,0.0,-1.0,-1.0,-1.0,0.0
1701961244.249106,-2.0,-1.0,-1.0,-2.0,-2.0,0.0,1.0,-1.0
1701961244.249106,0.0,0.0,-1.0,-1.0,-1.0,0.0,0.0,0.0
1701961244.2794726,-1.0,0.0,-1.0,-1.0,-1.0,0.0,0.0,-1.0
1701961244.2794726,0.0,0.0,-3.0,-1.0,-1.0,2.0,0.0,-2.0
1701961244.2794726,-2.0,0.0,0.0,1.0,1.0,-1.0,0.0,0.0
1701961244.2794726,0.0,-2.0,0.0,-1.0,0.0,-2.0,-2.0,0.0
1701961244.299105,-1.0,0.0,-1.0,-2.0,-2.0,-1.0,-1.0,1.0
1701961244.299105,0.0,-1.0,-1.0,-3.0,1.0,-2.0,-2.0,-2.0
1701961244.299105,-3.0,-2.0,-2.0,-1.0,-2.0,-1.0,-1.0,-1.0
1701961244.299105,-1.0,0.0,-1.0,-4.0,-1.0,-2.0,-1.0,-3.0
1701961244.3091533,-1.0,-1.0,-1.0,0.0,0.0,-3.0,-1.0,0.0
1701961244.3091533,-1.0,1.0,0.0,0.0,-1.0,-2.0,-1.0,1.0
1701961244.3194494,-1.0,-2.0,-2.0,-2.0,-2.0,-3.0,0.0,0.0
1701961244.3194494,-1.0,-1.0,-1.0,-1.0,-1.0,-1.0,-3.0,0.0
1701961244.339107,-2.0,-2.0,-1.0,0.0,-1.0,-2.0,-2.0,-2.0
1701961244.339107,-1.0,0.0,-1.0,-1.0,-1.0,-2.0,-2.0,-1.0
1701961244.339107,0.0,-1.0,1.0,-1.0,-2.0,0.0,-2.0,-1.0
1701961244.339107,-1.0,-2.0,-2.0,0.0,-3.0,-1.0,-2.0,-1.0
1701961244.3591383,-2.0,-1.0,0.0,-1.0,-3.0,0.0,-1.0,-3.0
1701961244.3591383,-2.0,-1.0,-1.0,-2.0,-2.0,-2.0,-1.0,-2.0
1701961244.3591383,0.0,-1.0,-1.0,-2.0,-1.0,0.0,1.0,-1.0
1701961244.3591383,-1.0,-1.0,-1.0,0.0,0.0,-2.0,1.0,-1.0
1701961244.3691068,0.0,-1.0,1.0,-3.0,1.0,-1.0,-2.0,-3.0
1701961244.3691068,-2.0,-1.0,0.0,-2.0,0.0,-3.0,0.0,-2.0
1701961244.3691068,-1.0,-1.0,-1.0,-2.0,0.0,-3.0,-2.0,-1.0
1701961244.3691068,0.0,0.0,-1.0,-3.0,-1.0,-2.0,0.0,-2.0
1701961244.399481,0.0,-2.0,0.0,1.0,-1.0,-2.0,-1.0,-1.0
1701961244.399481,-2.0,0.0,-1.0,-1.0,-2.0,0.0,-1.0,-2.0
1701961244.399481,0.0,0.0,-1.0,0.0,0.0,0.0,0.0,0.0
1701961244.399481,-1.0,0.0,-1.0,0.0,-1.0,1.0,1.0,-1.0
1701961244.419139,-2.0,1.0,-3.0,-1.0,-2.0,1.0,-1.0,1.0
1701961244.419139,-1.0,-2.0,-2.0,-1.0,-3.0,-2.0,-2.0,-1.0
1701961244.419139,0.0,-1.0,-2.0,-1.0,0.0,-2.0,-1.0,0.0
1701961244.419139,-1.0,0.0,0.0,0.0,-2.0,-2.0,-2.0,0.0
1701961244.429107,0.0,-1.0,-2.0,-1.0,-1.0,-3.0,-2.0,-2.0
1701961244.429107,1.0,-1.0,-2.0,-1.0,0.0,-2.0,-2.0,0.0
1701961244.4394543,0.0,-3.0,-1.0,-1.0,-3.0,-1.0,-2.0,-1.0
1701961244.4394543,-1.0,-2.0,-1.0,-3.0,0.0,-3.0,-1.0,-2.0
1701961244.4591079,-1.0,-2.0,-1.0,-1.0,-1.0,-2.0,0.0,-1.0
1701961244.4591079,0.0,-1.0,0.0,-2.0,-2.0,0.0,-1.0,-2.0
1701961244.4591079,0.0,-1.0,-2.0,-3.0,0.0,-3.0,1.0,-1.0
1701961244.4591079,-1.0,-1.0,0.0,-1.0,-2.0,-2.0,-2.0,-2.0
1701961244.4795158,-2.0,-1.0,0.0,-1.0,-1.0,-3.0,-3.0,0.0
1701961244.4795158,-1.0,-3.0,-1.0,0.0,0.0,0.0,-1.0,0.0
1701961244.4893658,-1.0,0.0,2.0,-2.0,0.0,2.0,0.0,0.0
1701961244.4893658,-1.0,-1.0,-2.0,0.0,-2.0,0.0,0.0,0.0
1701961244.4893658,-1.0,-1.0,0.0,-2.0,0.0,-2.0,1.0,-1.0
1701961244.4893658,-1.0,-2.0,-1.0,1.0,-1.0,-1.0,-1.0,-2.0
1701961244.509107,-1.0,0.0,0.0,0.0,-1.0,-3.0,-3.0,-1.0
1701961244.509107,-1.0,-1.0,-2.0,-1.0,-2.0,-1.0,-4.0,-1.0
1701961244.519474,-2.0,-1.0,-2.0,-1.0,-2.0,-1.0,-2.0,1.0
1701961244.519474,-2.0,0.0,-1.0,-2.0,1.0,0.0,-1.0,-1.0
1701961244.519474,-1.0,-3.0,-2.0,-1.0,-1.0,-2.0,-2.0,-1.0
1701961244.519474,-1.0,0.0,-1.0,-2.0,1.0,-1.0,0.0,-2.0
1701961244.5395367,-2.0,0.0,-2.0,-2.0,-2.0,-1.0,-1.0,-1.0
1701961244.5395367,-2.0,1.0,0.0,-2.0,-1.0,-2.0,-1.0,-1.0
1701961244.5395367,-2.0,0.0,-1.0,-1.0,0.0,0.0,0.0,-2.0
1701961244.5395367,1.0,-3.0,0.0,-1.0,0.0,0.0,2.0,2.0
1701961244.5491064,-1.0,-2.0,0.0,-2.0,-1.0,0.0,-1.0,0.0
1701961244.5491064,0.0,-1.0,-1.0,-2.0,-2.0,-1.0,1.0,0.0
1701961244.5691059,0.0,0.0,-1.0,-2.0,-2.0,0.0,-1.0,-2.0
1701961244.5691059,-1.0,1.0,-3.0,-1.0,1.0,-2.0,0.0,-1.0
1701961244.5793614,0.0,-1.0,-2.0,-2.0,-1.0,1.0,1.0,-1.0
1701961244.5793614,-1.0,-1.0,-2.0,0.0,0.0,-1.0,-2.0,0.0
1701961244.5793614,0.0,-1.0,-2.0,-1.0,1.0,-1.0,0.0,-1.0
1701961244.5793614,-1.0,0.0,0.0,-1.0,-2.0,-1.0,-1.0,0.0
1701961244.5994265,-1.0,-1.0,0.0,-1.0,0.0,-1.0,-2.0,-1.0
1701961244.5994265,-2.0,-2.0,-1.0,0.0,0.0,0.0,-2.0,-1.0
1701961244.5994265,-1.0,-1.0,0.0,-1.0,-1.0,-1.0,-1.0,0.0
1701961244.5994265,-1.0,-1.0,-1.0,-1.0,-2.0,-2.0,-1.0,-1.0
1701961244.6091106,-1.0,-1.0,-2.0,-2.0,-1.0,-1.0,-2.0,0.0
1701961244.6091106,0.0,0.0,-1.0,-1.0,-3.0,-1.0,-1.0,-2.0
1701961244.6391063,0.0,0.0,-2.0,-1.0,-1.0,0.0,-2.0,0.0
1701961244.6391063,1.0,1.0,0.0,-1.0,0.0,0.0,0.0,-1.0
1701961244.6391063,-3.0,0.0,0.0,-2.0,-1.0,-2.0,-2.0,-1.0
1701961244.6391063,-1.0,-1.0,-1.0,-1.0,-1.0,0.0,1.0,0.0
1701961244.6391063,-2.0,-1.0,-1.0,0.0,0.0,-2.0,0.0,0.0
1701961244.6391063,0.0,-2.0,-2.0,-1.0,-2.0,0.0,-3.0,-1.0
1701961244.6594973,0.0,-1.0,-1.0,-1.0,-1.0,-1.0,0.0,-1.0
1701961244.6594973,-1.0,-2.0,0.0,-1.0,-1.0,-2.0,-3.0,-1.0
1701961244.6594973,0.0,0.0,-1.0,1.0,0.0,-2.0,0.0,0.0
1701961244.6594973,0.0,0.0,-2.0,-2.0,-2.0,-1.0,-1.0,-2.0
1701961244.677589,0.0,0.0,0.0,0.0,-2.0,-2.0,-1.0,-2.0
1701961244.6796427,0.0,-1.0,-1.0,-1.0,-3.0,1.0,1.0,0.0
1701961244.700118,-2.0,-1.0,0.0,-3.0,-1.0,2.0,0.0,-1.0
1701961244.700118,-2.0,-2.0,0.0,-1.0,0.0,1.0,-1.0,1.0
1701961244.700118,-1.0,0.0,-2.0,1.0,0.0,1.0,0.0,-1.0
1701961244.700118,0.0,-1.0,-1.0,-3.0,0.0,1.0,0.0,-1.0
1701961244.700118,-2.0,0.0,-1.0,-2.0,0.0,1.0,1.0,-3.0
1701961244.701118,-2.0,0.0,-1.0,-1.0,0.0,0.0,0.0,-1.0
1701961244.722396,0.0,-3.0,0.0,-1.0,1.0,-1.0,-1.0,1.0
1701961244.722396,0.0,0.0,-1.0,-1.0,-1.0,-1.0,0.0,0.0
1701961244.722396,0.0,-1.0,0.0,0.0,-3.0,-2.0,-1.0,-2.0
1701961244.722396,0.0,2.0,-1.0,-2.0,-3.0,-3.0,-3.0,1.0
1701961244.7327144,-2.0,1.0,0.0,-2.0,-1.0,-2.0,1.0,-1.0
1701961244.7327144,0.0,-2.0,-2.0,-2.0,-1.0,-2.0,-2.0,-1.0
1701961244.7427225,-1.0,-2.0,-1.0,-1.0,0.0,-3.0,-2.0,-1.0
1701961244.7427225,-2.0,-2.0,0.0,0.0,-2.0,-3.0,-1.0,-1.0
1701961244.7623951,1.0,-2.0,0.0,1.0,-3.0,-4.0,-3.0,0.0
1701961244.7623951,-1.0,-1.0,-1.0,-1.0,-1.0,-3.0,-2.0,2.0
1701961244.7623951,-1.0,-1.0,1.0,0.0,-2.0,-2.0,-2.0,-1.0
1701961244.7623951,-2.0,-1.0,-1.0,-2.0,0.0,1.0,0.0,-2.0
1701961244.7727132,-2.0,1.0,-3.0,-1.0,0.0,-1.0,-2.0,-1.0
1701961244.7727132,-1.0,0.0,0.0,1.0,0.0,1.0,-1.0,0.0
1701961244.782396,-1.0,0.0,-2.0,-3.0,-1.0,0.0,0.0,0.0
1701961244.782396,0.0,0.0,-1.0,1.0,0.0,-1.0,-1.0,-1.0
1701961244.8026698,-2.0,-1.0,-1.0,-4.0,-1.0,1.0,0.0,-2.0
1701961244.8026698,-2.0,-2.0,-1.0,-2.0,-1.0,-2.0,-1.0,0.0
1701961244.8026698,-1.0,-1.0,0.0,0.0,-1.0,0.0,-1.0,0.0
1701961244.8026698,-2.0,-1.0,-1.0,-1.0,-1.0,0.0,-1.0,1.0
1701961244.8123972,0.0,-2.0,1.0,-1.0,0.0,-3.0,-1.0,-2.0
1701961244.8123972,0.0,-1.0,-2.0,-1.0,-1.0,-1.0,-2.0,0.0
1701961244.822724,1.0,-1.0,-1.0,-3.0,-2.0,-2.0,-2.0,-1.0
1701961244.822724,0.0,-1.0,0.0,-2.0,-2.0,-4.0,-2.0,-2.0
1701961244.8423972,0.0,-2.0,-1.0,0.0,-1.0,-3.0,-2.0,-2.0
1701961244.8423972,-1.0,-1.0,-2.0,-1.0,-3.0,-2.0,-1.0,-2.0
1701961244.8423972,0.0,-2.0,-2.0,1.0,0.0,-3.0,-2.0,0.0
1701961244.8423972,0.0,-1.0,-3.0,-1.0,-2.0,0.0,-1.0,-1.0
1701961244.8624306,-2.0,-2.0,-2.0,-2.0,-2.0,-1.0,0.0,-2.0
1701961244.8624306,0.0,-1.0,-1.0,0.0,-1.0,-2.0,-2.0,-3.0
1701961244.8624306,-2.0,-2.0,-2.0,-2.0,-2.0,-1.0,0.0,1.0
1701961244.8624306,-1.0,-3.0,-1.0,0.0,-1.0,-1.0,-2.0,0.0
1701961244.8727515,-2.0,-1.0,0.0,-1.0,1.0,-1.0,0.0,-2.0
1701961244.8727515,-2.0,1.0,0.0,0.0,-1.0,1.0,0.0,-1.0
1701961244.8727515,-1.0,1.0,-1.0,0.0,-1.0,1.0,0.0,-2.0
1701961244.8727515,-1.0,-1.0,0.0,-1.0,-1.0,-1.0,0.0,0.0
1701961244.8927553,0.0,-1.0,-2.0,-1.0,-2.0,0.0,-2.0,0.0
1701961244.902401,-1.0,-1.0,-1.0,-1.0,0.0,-2.0,-1.0,-1.0
1701961244.902401,0.0,-2.0,-1.0,1.0,-1.0,-1.0,0.0,-1.0
1701961244.902401,-2.0,-1.0,0.0,-1.0,-2.0,-1.0,0.0,-1.0
1701961244.9326887,-1.0,-1.0,-1.0,1.0,-2.0,0.0,-2.0,-1.0
1701961244.9326887,-1.0,-2.0,-2.0,-1.0,-2.0,-2.0,-1.0,1.0
1701961244.9326887,-2.0,-2.0,-1.0,0.0,-1.0,-1.0,-2.0,-2.0
1701961244.9326887,-1.0,-1.0,-1.0,-2.0,-2.0,0.0,-1.0,0.0
1701961244.9326887,0.0,0.0,0.0,0.0,-2.0,-2.0,-1.0,-2.0
1701961244.9326887,0.0,-1.0,0.0,-1.0,-1.0,-3.0,-3.0,0.0
1701961244.9326887,0.0,-2.0,-1.0,-1.0,-2.0,0.0,-2.0,-2.0
1701961244.9326887,0.0,0.0,-1.0,-1.0,1.0,0.0,-1.0,-1.0
1701961244.9723954,-2.0,-2.0,-1.0,-1.0,-1.0,1.0,1.0,0.0
1701961244.9723954,0.0,0.0,-1.0,-3.0,0.0,0.0,0.0,-1.0
1701961244.9723954,-2.0,1.0,-3.0,-1.0,-1.0,-2.0,-2.0,-1.0
1701961244.9723954,1.0,0.0,-1.0,-1.0,-1.0,-1.0,1.0,-1.0
1701961244.9926794,-1.0,0.0,0.0,0.0,-1.0,0.0,0.0,-1.0
1701961244.9926794,-2.0,-1.0,-2.0,0.0,0.0,1.0,0.0,-2.0
1701961244.9926794,-2.0,-1.0,0.0,-1.0,0.0,1.0,0.0,-1.0
1701961244.9926794,-2.0,-2.0,-2.0,0.0,0.0,-2.0,0.0,-3.0
1701961244.9926794,-2.0,0.0,-1.0,-1.0,0.0,0.0,-1.0,0.0
1701961244.9926794,-2.0,-1.0,0.0,0.0,-1.0,-1.0,-2.0,-2.0
1701961244.9926794,0.0,-2.0,-3.0,-1.0,-3.0,1.0,0.0,0.0
1701961244.9926794,-2.0,0.0,0.0,-1.0,-2.0,0.0,-1.0,0.0
1701961245.0223997,-1.0,-1.0,-1.0,-1.0,0.0,0.0,1.0,-1.0
1701961245.0223997,-1.0,0.0,0.0,0.0,-1.0,-1.0,-1.0,0.0
1701961245.0223997,0.0,-1.0,-1.0,0.0,0.0,-2.0,-2.0,-1.0
1701961245.0223997,-1.0,-1.0,0.0,-1.0,-1.0,0.0,-1.0,-1.0
1701961245.0523932,-3.0,0.0,-2.0,-1.0,-1.0,-2.0,-3.0,1.0
1701961245.0523932,-1.0,-2.0,0.0,-1.0,1.0,0.0,0.0,-1.0
1701961245.0523932,0.0,-1.0,-1.0,-2.0,-1.0,-1.0,-1.0,-1.0
1701961245.0523932,-1.0,-3.0,-1.0,-1.0,-2.0,-2.0,-2.0,-2.0
1701961245.0523932,0.0,-1.0,-2.0,-1.0,1.0,-3.0,-2.0,-2.0
1701961245.0523932,0.0,1.0,0.0,-2.0,-3.0,-2.0,-1.0,-2.0
1701961245.0523932,-1.0,-2.0,0.0,-3.0,-2.0,-1.0,-1.0,1.0
1701961245.0523932,0.0,-1.0,-1.0,-2.0,0.0,-3.0,1.0,-3.0
1701961245.0726411,1.0,0.0,0.0,-1.0,-2.0,0.0,-1.0,-2.0
1701961245.0824037,-2.0,-2.0,-2.0,-1.0,-1.0,-3.0,-2.0,-2.0
1701961245.0923975,-1.0,0.0,0.0,0.0,0.0,-1.0,-1.0,-2.0
1701961245.0923975,-1.0,-2.0,-2.0,-1.0,-1.0,-2.0,-4.0,-1.0
1701961245.102467,0.0,-1.0,0.0,-2.0,-1.0,-1.0,-1.0,-1.0
1701961245.102467,0.0,0.0,-3.0,-3.0,0.0,-1.0,0.0,0.0
1701961245.102467,-2.0,-2.0,-1.0,-2.0,-1.0,-2.0,-2.0,0.0
1701961245.102467,0.0,0.0,-2.0,1.0,0.0,-1.0,-2.0,-1.0
1701961245.1126392,-1.0,-3.0,-2.0,-2.0,-2.0,-2.0,-1.0,-1.0
1701961245.1126392,-2.0,0.0,0.0,-1.0,-1.0,0.0,-3.0,0.0
1701961245.1126392,-2.0,1.0,-2.0,-1.0,-1.0,-3.0,-2.0,-2.0
1701961245.1126392,-2.0,2.0,-1.0,-2.0,-1.0,0.0,0.0,-1.0
1701961245.1424017,0.0,0.0,-1.0,-1.0,-1.0,-1.0,1.0,-2.0
1701961245.1424017,-1.0,-1.0,-1.0,-2.0,-2.0,1.0,-1.0,-1.0
1701961245.152398,0.0,-1.0,-1.0,-1.0,0.0,-2.0,-2.0,-1.0
1701961245.1624,0.0,0.0,0.0,-1.0,-1.0,-1.0,-1.0,-1.0
1701961245.1624,-2.0,-2.0,-1.0,0.0,-2.0,0.0,-1.0,0.0
1701961245.1624,0.0,-1.0,-2.0,-2.0,-2.0,-1.0,-2.0,-2.0
1701961245.1624,-3.0,-1.0,0.0,-1.0,-1.0,0.0,0.0,-2.0
1701961245.1624,-1.0,0.0,-2.0,0.0,0.0,-2.0,-1.0,-2.0
1701961245.1823955,-1.0,1.0,-2.0,0.0,0.0,-1.0,0.0,-2.0
1701961245.1823955,0.0,-1.0,0.0,0.0,-1.0,-1.0,-2.0,-2.0
1701961245.1823955,-1.0,-3.0,0.0,-1.0,-1.0,0.0,1.0,-2.0
1701961245.1823955,-1.0,-1.0,-1.0,-2.0,-3.0,-1.0,0.0,-1.0
1701961245.2110012,0.0,-3.0,-2.0,0.0,-2.0,-2.0,-2.0,-1.0
1701961245.2110012,-1.0,-1.0,-1.0,-1.0,0.0,-3.0,1.0,0.0
1701961245.2110012,-2.0,0.0,-1.0,0.0,-1.0,-2.0,-2.0,-3.0
1701961245.2110012,-1.0,0.0,0.0,-2.0,-1.0,-1.0,-2.0,0.0
1701961245.22601,-3.0,1.0,-2.0,0.0,1.0,-1.0,-1.0,-2.0
1701961245.22601,-2.0,-1.0,-1.0,0.0,-2.0,-1.0,0.0,0.0
1701961245.22601,0.0,0.0,-3.0,-2.0,-2.0,0.0,0.0,0.0
1701961245.22601,0.0,-2.0,0.0,-1.0,-1.0,-1.0,0.0,-2.0
1701961245.2546785,1.0,-2.0,-1.0,-1.0,-2.0,-1.0,-4.0,0.0
1701961245.2546785,-1.0,0.0,1.0,0.0,0.0,-2.0,-1.0,-2.0
1701961245.2546785,-1.0,-1.0,-2.0,-1.0,0.0,-2.0,-1.0,0.0
1701961245.2546785,-2.0,-1.0,-1.0,-1.0,-1.0,-2.0,-1.0,0.0
1701961245.2546785,-2.0,0.0,-2.0,-1.0,-1.0,-1.0,-1.0,-1.0
1701961245.2546785,0.0,-2.0,-3.0,-3.0,0.0,-1.0,-2.0,-1.0
1701961245.2546785,0.0,-3.0,-1.0,0.0,-1.0,-2.0,-1.0,-1.0
1701961245.2546785,-2.0,-3.0,-1.0,-3.0,-1.0,-1.0,-1.0,-1.0
1701961245.2849889,0.0,-1.0,0.0,0.0,-2.0,-1.0,0.0,-3.0
1701961245.2849889,-2.0,-1.0,0.0,0.0,1.0,-1.0,0.0,-1.0
1701961245.2849889,-1.0,-1.0,-1.0,0.0,-1.0,0.0,-2.0,-1.0
1701961245.2849889,-1.0,-3.0,-2.0,-1.0,-1.0,0.0,-1.0,0.0
1701961245.3046796,0.0,1.0,0.0,-2.0,1.0,0.0,-1.0,0.0
1701961245.3046796,-3.0,0.0,-1.0,-2.0,-1.0,-1.0,0.0,1.0
1701961245.3046796,0.0,0.0,0.0,-3.0,0.0,-2.0,-2.0,-1.0
1701961245.3046796,-1.0,0.0,0.0,1.0,-1.0,-1.0,0.0,-2.0
1701961245.3150659,-2.0,-1.0,-2.0,-2.0,-1.0,0.0,-1.0,0.0
1701961245.3150659,-1.0,-2.0,-1.0,-2.0,-1.0,-1.0,1.0,-1.0
1701961245.3150659,-3.0,-1.0,0.0,-2.0,-1.0,0.0,0.0,-1.0
1701961245.3150659,-1.0,-1.0,-3.0,-3.0,0.0,0.0,-1.0,0.0
1701961245.3455663,-2.0,-1.0,-1.0,-1.0,0.0,0.0,0.0,-3.0
1701961245.3455663,0.0,1.0,-1.0,1.0,-1.0,0.0,-1.0,-2.0
1701961245.3455663,-1.0,0.0,0.0,0.0,-1.0,1.0,0.0,-1.0
1701961245.3455663,0.0,-1.0,1.0,-2.0,-1.0,-1.0,-1.0,1.0
1701961245.36513,-1.0,0.0,0.0,-1.0,0.0,-2.0,-2.0,-1.0
1701961245.36513,0.0,-3.0,-4.0,0.0,0.0,-1.0,-2.0,-1.0
1701961245.36513,0.0,0.0,-1.0,0.0,-1.0,-1.0,0.0,0.0
1701961245.36513,0.0,0.0,-1.0,-1.0,-1.0,-1.0,0.0,2.0
1701961245.375393,-1.0,-1.0,-2.0,0.0,-2.0,-1.0,-1.0,0.0
1701961245.375393,0.0,-1.0,0.0,-1.0,-1.0,1.0,-1.0,0.0
1701961245.375393,-2.0,-1.0,-2.0,0.0,0.0,-2.0,-2.0,-1.0
1701961245.375393,1.0,-2.0,-1.0,0.0,0.0,-1.0,0.0,-1.0
1701961245.4251323,-1.0,-3.0,-1.0,-5.0,0.0,-1.0,-1.0,0.0
1701961245.4251323,-3.0,0.0,0.0,-2.0,0.0,-1.0,-1.0,-1.0
1701961245.4251323,0.0,-2.0,0.0,0.0,0.0,0.0,0.0,-1.0
1701961245.4251323,-3.0,0.0,-2.0,0.0,-2.0,-1.0,-1.0,-2.0
1701961245.4251323,-2.0,-1.0,-2.0,-1.0,1.0,-2.0,1.0,-1.0
1701961245.4251323,-1.0,-1.0,-3.0,-1.0,0.0,0.0,-1.0,0.0
1701961245.4251323,0.0,0.0,0.0,-2.0,-3.0,-2.0,-1.0,-1.0
1701961245.4251323,-1.0,-1.0,1.0,-1.0,0.0,1.0,-1.0,0.0
1701961245.435467,0.0,0.0,-1.0,0.0,0.0,0.0,-1.0,0.0
1701961245.435467,0.0,0.0,-1.0,-1.0,0.0,-4.0,-1.0,-2.0
1701961245.435467,0.0,-1.0,-2.0,-1.0,-1.0,0.0,-1.0,-1.0
1701961245.435467,-1.0,-1.0,-2.0,-1.0,-1.0,0.0,-2.0,0.0
1701961245.4651315,0.0,-1.0,0.0,-2.0,-1.0,-2.0,-1.0,0.0
1701961245.4651315,-2.0,-2.0,0.0,-2.0,-1.0,-3.0,-1.0,-2.0
1701961245.4651315,-2.0,0.0,-3.0,1.0,-2.0,-2.0,-1.0,-2.0
1701961245.4651315,0.0,-1.0,-1.0,0.0,-2.0,-1.0,-2.0,-2.0
1701961245.4751549,-1.0,-1.0,-1.0,-2.0,-2.0,-1.0,-2.0,-2.0
1701961245.4751549,0.0,-2.0,0.0,-1.0,-2.0,-2.0,0.0,0.0
1701961245.4855275,-1.0,-2.0,1.0,-3.0,-2.0,-2.0,-1.0,-2.0
1701961245.4855275,-1.0,-2.0,-1.0,-2.0,-1.0,-3.0,-2.0,-2.0
1701961245.4955287,-1.0,-1.0,-4.0,0.0,-3.0,-2.0,-3.0,-2.0
1701961245.4955287,1.0,-1.0,-1.0,-2.0,-3.0,-1.0,-1.0,-2.0
1701961245.4955287,-2.0,-2.0,-1.0,-3.0,-1.0,1.0,-1.0,0.0
1701961245.4955287,0.0,-1.0,-1.0,0.0,0.0,-2.0,0.0,-2.0
1701961245.525404,-1.0,0.0,-1.0,0.0,-2.0,0.0,0.0,0.0
1701961245.525404,-2.0,-1.0,-1.0,-1.0,-2.0,-1.0,0.0,-1.0
1701961245.525404,0.0,0.0,-2.0,-1.0,0.0,-1.0,-1.0,-2.0
1701961245.525404,0.0,-1.0,0.0,0.0,-2.0,-1.0,-1.0,-2.0
1701961245.54513,-1.0,-1.0,-1.0,-1.0,2.0,0.0,-1.0,1.0
1701961245.54513,0.0,0.0,-1.0,0.0,0.0,-1.0,-1.0,0.0
1701961245.54513,-1.0,-1.0,-1.0,-3.0,0.0,-2.0,0.0,-1.0
1701961245.54513,-1.0,-2.0,-1.0,-1.0,0.0,0.0,1.0,0.0
1701961245.5554826,1.0,-3.0,-1.0,0.0,-1.0,-2.0,-2.0,-2.0
1701961245.5554826,0.0,-1.0,-2.0,-2.0,-1.0,0.0,-3.0,-1.0
1701961245.5554826,1.0,0.0,-1.0,0.0,-1.0,-1.0,0.0,-1.0
1701961245.5554826,0.0,-1.0,-3.0,-2.0,-1.0,-1.0,-2.0,0.0
1701961245.5852623,-2.0,0.0,-1.0,0.0,-1.0,-1.0,-2.0,-2.0
1701961245.5852623,0.0,-2.0,-2.0,1.0,0.0,0.0,-1.0,-1.0
1701961245.5852623,-2.0,-1.0,1.0,-1.0,0.0,-1.0,0.0,0.0
1701961245.5852623,-1.0,1.0,0.0,0.0,-1.0,-1.0,-1.0,0.0
1701961245.595303,0.0,1.0,0.0,-3.0,-1.0,-2.0,0.0,-1.0
1701961245.595303,-2.0,-1.0,-2.0,0.0,-3.0,-3.0,-1.0,-2.0
1701961245.6053758,-2.0,-2.0,-2.0,-1.0,-1.0,0.0,-1.0,1.0
1701961245.6053758,-2.0,-1.0,-1.0,0.0,-1.0,-1.0,-1.0,-1.0
1701961245.615135,0.0,-2.0,-1.0,-1.0,-2.0,-2.0,0.0,2.0
1701961245.615135,-2.0,-3.0,1.0,-2.0,0.0,-3.0,-1.0,-1.0
1701961245.6253645,-2.0,-1.0,-1.0,-1.0,-1.0,-2.0,-1.0,-1.0
1701961245.6253645,-1.0,-1.0,0.0,-1.0,0.0,-1.0,0.0,-2.0
1701961245.6551306,-1.0,-2.0,-1.0,2.0,-3.0,0.0,-1.0,-2.0
1701961245.6551306,-3.0,-1.0,-1.0,0.0,-2.0,0.0,0.0,0.0
1701961245.6551306,1.0,-1.0,-1.0,-3.0,0.0,-1.0,0.0,-1.0
1701961245.6551306,-1.0,0.0,-3.0,-2.0,0.0,0.0,-1.0,0.0
1701961245.6551306,-3.0,-2.0,-1.0,-3.0,0.0,-1.0,0.0,-1.0
1701961245.6551306,0.0,1.0,1.0,-1.0,1.0,0.0,-3.0,-1.0
1701961245.665476,-1.0,0.0,-1.0,0.0,-2.0,-1.0,0.0,-1.0
1701961245.665476,-1.0,-1.0,-2.0,-1.0,-2.0,-1.0,0.0,-2.0
1701961245.6854057,-1.0,1.0,-1.0,0.0,-1.0,-2.0,0.0,-1.0
1701961245.6854057,-1.0,0.0,-1.0,-1.0,-2.0,-1.0,0.0,0.0
1701961245.6854057,-1.0,-1.0,-2.0,0.0,1.0,-2.0,-3.0,0.0
1701961245.6854057,0.0,-2.0,0.0,-2.0,-2.0,-2.0,-1.0,-2.0
1701961245.70513,-1.0,-2.0,-2.0,-1.0,0.0,0.0,0.0,0.0
1701961245.70513,-1.0,0.0,-1.0,-2.0,-1.0,0.0,0.0,-1.0
1701961245.70513,-2.0,-1.0,-3.0,0.0,-3.0,-1.0,-2.0,-2.0
1701961245.70513,-1.0,0.0,-1.0,-1.0,-1.0,-1.0,-1.0,-2.0
1701961245.7254603,-1.0,-3.0,0.0,-1.0,-1.0,1.0,-1.0,-1.0
1701961245.7254603,-1.0,-2.0,-1.0,-2.0,0.0,-2.0,-1.0,1.0
1701961245.7254603,-1.0,-3.0,0.0,-3.0,-1.0,1.0,0.0,-1.0
1701961245.7254603,-1.0,-1.0,-1.0,-1.0,0.0,-2.0,-1.0,1.0
1701961245.7420022,1.0,-1.0,0.0,-2.0,1.0,-1.0,-2.0,-2.0
1701961245.7430758,1.0,0.0,-2.0,-1.0,0.0,-1.0,-1.0,-1.0
1701961245.7430758,-3.0,-1.0,0.0,0.0,-1.0,0.0,-1.0,-1.0
1701961245.7430758,-1.0,-1.0,0.0,-1.0,-1.0,-2.0,-1.0,-3.0
1701961245.7670345,-3.0,0.0,-2.0,-1.0,-1.0,-1.0,0.0,-1.0
1701961245.7670345,-2.0,-2.0,-1.0,-1.0,-2.0,0.0,-1.0,-2.0
1701961245.7670345,-1.0,-2.0,-2.0,-1.0,-1.0,-1.0,-1.0,-2.0
1701961245.7670345,0.0,-1.0,-1.0,-2.0,-1.0,-1.0,-3.0,-2.0
1701961245.8070347,0.0,0.0,-1.0,-1.0,-2.0,-2.0,0.0,-1.0
1701961245.8070347,0.0,0.0,-2.0,1.0,-1.0,-1.0,0.0,1.0
1701961245.8070347,-1.0,0.0,0.0,1.0,-1.0,0.0,-2.0,0.0
1701961245.8070347,-1.0,0.0,0.0,0.0,-1.0,-1.0,-1.0,1.0
1701961245.8070347,0.0,0.0,1.0,-1.0,-3.0,-2.0,-1.0,0.0
1701961245.8070347,0.0,-2.0,-2.0,-1.0,0.0,-2.0,-2.0,-1.0
1701961245.8070347,-1.0,0.0,-3.0,-2.0,-2.0,-3.0,0.0,0.0
1701961245.8070347,0.0,-2.0,0.0,-1.0,-2.0,-1.0,-1.0,0.0
1701961245.8173757,-1.0,-2.0,-1.0,-2.0,-3.0,-1.0,0.0,0.0
1701961245.8173757,-1.0,0.0,0.0,-1.0,-1.0,-2.0,-1.0,-2.0
1701961245.8173757,-1.0,-2.0,-2.0,-2.0,1.0,0.0,0.0,1.0
1701961245.8173757,-4.0,0.0,-1.0,0.0,0.0,1.0,0.0,-1.0
1701961245.8472228,-1.0,0.0,-2.0,-2.0,-2.0,0.0,-1.0,-2.0
1701961245.8472228,-1.0,0.0,0.0,-1.0,0.0,-1.0,-1.0,0.0
1701961245.8472228,2.0,0.0,0.0,-1.0,-1.0,-2.0,-2.0,-1.0
1701961245.8472228,-3.0,-1.0,-1.0,-3.0,-2.0,-2.0,-1.0,-2.0
1701961245.857035,0.0,-2.0,-1.0,-1.0,-1.0,-2.0,-1.0,-1.0
1701961245.857035,-1.0,0.0,-1.0,-1.0,1.0,0.0,-1.0,-1.0
1701961245.857035,-1.0,-1.0,0.0,0.0,-2.0,-1.0,-2.0,-1.0
1701961245.857035,0.0,-1.0,-1.0,-3.0,-1.0,-1.0,2.0,0.0
1701961245.8774514,-1.0,-1.0,-1.0,-1.0,0.0,-2.0,-1.0,-1.0
1701961245.8774514,0.0,0.0,-2.0,-1.0,-1.0,-1.0,-1.0,-3.0
1701961245.8774514,-1.0,-2.0,-2.0,0.0,-2.0,-1.0,-1.0,-2.0
1701961245.8774514,-1.0,-1.0,-1.0,0.0,-1.0,0.0,-3.0,0.0
1701961245.9070396,-2.0,-1.0,0.0,1.0,0.0,0.0,-3.0,-1.0
1701961245.9070396,-1.0,-2.0,-2.0,-2.0,-3.0,-2.0,0.0,0.0
1701961245.9170387,-2.0,-2.0,0.0,0.0,-1.0,-2.0,-2.0,-1.0
1701961245.9170387,0.0,-1.0,0.0,0.0,-1.0,-2.0,-1.0,-1.0
1701961245.9170387,-1.0,-2.0,0.0,0.0,-1.0,0.0,-1.0,0.0
1701961245.9170387,-3.0,-2.0,2.0,2.0,-2.0,-2.0,-2.0,-1.0
1701961245.9170387,-1.0,0.0,-1.0,-2.0,-1.0,-2.0,-1.0,-1.0
1701961245.9170387,0.0,-2.0,-2.0,-1.0,-2.0,-3.0,-2.0,0.0
1701961245.9373987,0.0,-1.0,-1.0,-1.0,0.0,-1.0,-2.0,-1.0
1701961245.9373987,-1.0,0.0,-1.0,-1.0,-2.0,1.0,0.0,0.0
1701961245.9373987,-1.0,-1.0,-1.0,-1.0,-1.0,-1.0,-1.0,-1.0
1701961245.9373987,0.0,0.0,-1.0,-3.0,-3.0,-1.0,-1.0,-2.0
1701961245.9675968,-2.0,-1.0,-1.0,-1.0,-1.0,-2.0,-2.0,-1.0
1701961245.9675968,1.0,-1.0,-2.0,-1.0,-1.0,-1.0,0.0,-3.0
1701961245.9675968,0.0,-2.0,-1.0,-1.0,-2.0,0.0,0.0,1.0
1701961245.9675968,-1.0,-2.0,-1.0,-1.0,1.0,-1.0,-1.0,-1.0
1701961245.9774108,-1.0,-2.0,-1.0,0.0,-2.0,1.0,1.0,-1.0
1701961245.9774108,1.0,-1.0,-1.0,-1.0,2.0,0.0,-1.0,0.0
1701961245.9774108,-1.0,0.0,0.0,0.0,-1.0,-1.0,-2.0,0.0
1701961245.9774108,0.0,-2.0,-4.0,-2.0,-2.0,-1.0,0.0,-2.0
1701961245.9977646,0.0,-2.0,0.0,-2.0,0.0,-1.0,-2.0,-2.0
1701961245.9977646,-2.0,-1.0,0.0,-1.0,0.0,-1.0,-1.0,1.0
1701961245.9977646,1.0,-1.0,0.0,-1.0,1.0,0.0,0.0,-1.0
1701961245.9977646,-1.0,1.0,1.0,0.0,1.0,1.0,1.0,0.0
1701961246.0274417,-1.0,-1.0,-1.0,-1.0,-2.0,-1.0,0.0,0.0
1701961246.0274417,-2.0,-1.0,-1.0,-2.0,-1.0,-2.0,-3.0,-2.0
1701961246.0274417,-1.0,-1.0,-2.0,-1.0,-1.0,1.0,-2.0,-2.0
1701961246.0274417,0.0,-1.0,0.0,-1.0,-1.0,0.0,-1.0,0.0
1701961246.0376596,-2.0,-2.0,-1.0,-1.0,-1.0,-1.0,1.0,-3.0
1701961246.0376596,1.0,0.0,0.0,-2.0,0.0,-2.0,0.0,1.0
1701961246.0376596,0.0,0.0,-2.0,-2.0,1.0,-1.0,0.0,-2.0
1701961246.0376596,-1.0,-1.0,-1.0,-1.0,0.0,-1.0,-1.0,0.0
1701961246.0576842,-2.0,0.0,-2.0,-2.0,0.0,-2.0,0.0,2.0
1701961246.0576842,-1.0,-2.0,-2.0,-3.0,-4.0,-1.0,2.0,-1.0
1701961246.0576842,-1.0,-2.0,0.0,-4.0,-3.0,-2.0,-2.0,1.0
1701961246.0576842,-1.0,-2.0,-1.0,-3.0,-2.0,0.0,-2.0,-1.0
1701961246.0974097,0.0,-1.0,-2.0,0.0,1.0,-1.0,-3.0,0.0
1701961246.0974097,-1.0,-1.0,-1.0,0.0,-2.0,-1.0,-3.0,-3.0
1701961246.0974097,0.0,-2.0,-1.0,0.0,-2.0,-3.0,0.0,-3.0
1701961246.0974097,-1.0,-1.0,0.0,0.0,-3.0,-2.0,-1.0,-2.0
1701961246.0974097,-1.0,0.0,0.0,-2.0,0.0,-3.0,-1.0,-3.0
1701961246.0974097,-2.0,0.0,-1.0,-1.0,-1.0,-2.0,0.0,0.0
1701961246.0974097,0.0,-1.0,-2.0,-1.0,-1.0,-2.0,-2.0,0.0
1701961246.0974097,-1.0,-3.0,-2.0,-1.0,-1.0,-2.0,-2.0,-1.0
1701961246.117677,0.0,-2.0,0.0,-2.0,-2.0,-1.0,-5.0,-2.0
1701961246.117677,0.0,-1.0,1.0,0.0,-2.0,-2.0,-3.0,-1.0
1701961246.117677,0.0,1.0,0.0,-2.0,-2.0,1.0,0.0,0.0
1701961246.117677,-1.0,0.0,-1.0,0.0,-1.0,-2.0,-2.0,0.0
1701961246.1574104,-2.0,-1.0,-3.0,-1.0,-2.0,-1.0,0.0,-1.0
1701961246.1574104,-1.0,-1.0,0.0,-1.0,-1.0,-1.0,1.0,0.0
1701961246.1574104,-3.0,-5.0,-7.0,-2.0,-1.0,1.0,-1.0,-1.0
1701961246.1574104,0.0,0.0,-1.0,-1.0,0.0,1.0,0.0,-1.0
1701961246.1574104,1.0,3.0,1.0,0.0,-1.0,-2.0,0.0,1.0
1701961246.1574104,-4.0,-4.0,-2.0,-1.0,-1.0,-1.0,-2.0,-2.0
1701961246.1574104,2.0,0.0,0.0,-1.0,-2.0,-2.0,-1.0,0.0
1701961246.1574104,-1.0,-1.0,0.0,-3.0,0.0,-3.0,-2.0,-2.0
1701961246.1874108,-1.0,-2.0,1.0,-1.0,-2.0,-2.0,-7.0,-8.0
1701961246.1874108,-2.0,1.0,-2.0,0.0,1.0,-1.0,-1.0,0.0
1701961246.1874108,3.0,-1.0,-4.0,-4.0,-3.0,0.0,-2.0,0.0
1701961246.1874108,1.0,1.0,-1.0,-1.0,-1.0,1.0,-3.0,-1.0
1701961246.2077937,0.0,3.0,2.0,2.0,1.0,-1.0,0.0,-1.0
1701961246.2077937,1.0,0.0,-1.0,-3.0,-1.0,-1.0,-1.0,-1.0
1701961246.2077937,-2.0,-2.0,1.0,-1.0,-1.0,-2.0,-1.0,-2.0
1701961246.2077937,4.0,0.0,-1.0,-1.0,-3.0,-3.0,1.0,0.0
1701961246.217786,1.0,0.0,-3.0,-2.0,0.0,1.0,-1.0,1.0
1701961246.217786,6.0,-4.0,-5.0,-4.0,-3.0,0.0,-2.0,-2.0
1701961246.217786,-1.0,1.0,-1.0,1.0,-2.0,-3.0,-1.0,0.0
1701961246.217786,-1.0,0.0,0.0,-1.0,-1.0,0.0,-1.0,1.0
1701961246.2374127,-4.0,-2.0,-1.0,-3.0,-3.0,-2.0,0.0,0.0
1701961246.2374127,-1.0,-3.0,0.0,0.0,0.0,0.0,-1.0,0.0
1701961246.2374127,-4.0,-2.0,3.0,1.0,-1.0,-1.0,-3.0,-2.0
1701961246.2374127,-2.0,-3.0,-1.0,0.0,-1.0,-3.0,-1.0,-2.0
1701961246.257415,0.0,-2.0,-4.0,-1.0,-1.0,-1.0,-1.0,1.0
1701961246.257415,-2.0,-2.0,0.0,-1.0,-2.0,-3.0,0.0,-1.0
1701961246.2755322,-1.0,2.0,1.0,-1.0,-1.0,-1.0,-1.0,-1.0
1701961246.2755322,-4.0,-4.0,-1.0,-1.0,-1.0,-2.0,-2.0,-1.0
1701961246.2825267,-1.0,0.0,1.0,2.0,-1.0,1.0,-1.0,1.0
1701961246.2825267,0.0,0.0,0.0,0.0,-1.0,0.0,-1.0,-2.0
1701961246.2834806,-3.0,-1.0,-1.0,-2.0,1.0,-3.0,0.0,-1.0
1701961246.2834806,-1.0,0.0,0.0,0.0,0.0,-1.0,-2.0,1.0
1701961246.3099723,-1.0,-2.0,0.0,-2.0,1.0,0.0,1.0,0.0
1701961246.3099723,-1.0,1.0,1.0,1.0,1.0,0.0,-2.0,0.0
1701961246.3099723,0.0,-2.0,-1.0,1.0,-2.0,1.0,0.0,-2.0
1701961246.3099723,-1.0,0.0,-2.0,0.0,-1.0,0.0,1.0,-1.0
1701961246.3202362,-1.0,0.0,-1.0,0.0,-1.0,0.0,1.0,1.0
1701961246.3202362,-2.0,-1.0,0.0,0.0,-1.0,0.0,-1.0,-1.0
1701961246.3202362,-2.0,0.0,1.0,-1.0,1.0,-1.0,2.0,0.0
1701961246.3202362,-1.0,-2.0,-1.0,-2.0,-2.0,-1.0,1.0,0.0
1701961246.3408494,-2.0,0.0,-2.0,-2.0,-4.0,-1.0,-1.0,0.0
1701961246.3408494,-4.0,-2.0,-3.0,-2.0,1.0,-1.0,0.0,-2.0
1701961246.3507786,-2.0,0.0,0.0,-1.0,-1.0,-1.0,-2.0,0.0
1701961246.3507786,-1.0,-1.0,-2.0,-1.0,-1.0,-2.0,-2.0,-2.0
1701961246.3807724,-1.0,-4.0,-2.0,-1.0,-2.0,-2.0,-2.0,-2.0
1701961246.3807724,-1.0,0.0,-2.0,0.0,-1.0,1.0,-1.0,-1.0
1701961246.3807724,-1.0,-2.0,-1.0,-1.0,-1.0,0.0,-2.0,-2.0
1701961246.3807724,-2.0,-1.0,-1.0,-1.0,0.0,0.0,-1.0,0.0
1701961246.3807724,-3.0,-2.0,-2.0,-2.0,0.0,0.0,-1.0,0.0
1701961246.3807724,1.0,0.0,0.0,-1.0,-1.0,-2.0,-1.0,-1.0
1701961246.3807724,-1.0,0.0,-1.0,0.0,1.0,0.0,-1.0,-1.0
1701961246.3807724,-1.0,0.0,-1.0,-2.0,-2.0,-1.0,-1.0,-2.0
1701961246.4008198,1.0,0.0,-1.0,-3.0,-2.0,-1.0,1.0,0.0
1701961246.4008198,-2.0,0.0,-2.0,-3.0,-2.0,-2.0,-2.0,-1.0
1701961246.4008198,-1.0,-1.0,-2.0,-2.0,-2.0,-2.0,1.0,0.0
1701961246.4008198,0.0,0.0,0.0,0.0,0.0,0.0,-1.0,0.0
1701961246.4210746,0.0,0.0,-1.0,1.0,2.0,1.0,0.0,-1.0
1701961246.4210746,-1.0,-1.0,0.0,-2.0,-1.0,0.0,-2.0,-1.0
1701961246.4210746,-2.0,-2.0,-1.0,-2.0,-1.0,0.0,-2.0,-1.0
1701961246.4210746,-1.0,-2.0,-2.0,-3.0,-1.0,1.0,-1.0,0.0
1701961246.4407744,-2.0,-2.0,-1.0,0.0,0.0,-1.0,-1.0,-3.0
1701961246.4407744,-2.0,0.0,0.0,-1.0,-1.0,-1.0,-2.0,-1.0
1701961246.4407744,0.0,0.0,-2.0,-2.0,1.0,0.0,-1.0,0.0
1701961246.4407744,0.0,-2.0,-1.0,-1.0,-2.0,-2.0,-2.0,-1.0
1701961246.460915,0.0,-2.0,-1.0,-1.0,0.0,1.0,-1.0,-1.0
1701961246.460915,-2.0,-2.0,-1.0,1.0,0.0,-2.0,1.0,-1.0
1701961246.470817,0.0,0.0,-1.0,-1.0,-1.0,0.0,0.0,-2.0
1701961246.470817,-1.0,2.0,-4.0,0.0,-1.0,1.0,0.0,0.0
1701961246.480944,-1.0,0.0,-1.0,-3.0,-2.0,-2.0,-1.0,-2.0
1701961246.480944,-2.0,0.0,-2.0,-1.0,-1.0,1.0,-1.0,1.0
1701961246.480944,-1.0,-1.0,0.0,0.0,0.0,-1.0,0.0,0.0
1701961246.480944,0.0,0.0,-1.0,0.0,0.0,-1.0,-1.0,-2.0
1701961246.5011566,-2.0,-3.0,-2.0,-2.0,-1.0,-1.0,-1.0,0.0
1701961246.5011566,1.0,-1.0,0.0,0.0,-1.0,-2.0,1.0,0.0
1701961246.5011566,-1.0,1.0,-1.0,0.0,0.0,-1.0,-2.0,-2.0
1701961246.5011566,-2.0,-1.0,-1.0,-1.0,-2.0,-1.0,-1.0,0.0
1701961246.520828,-2.0,0.0,-2.0,0.0,-1.0,0.0,-2.0,-1.0
1701961246.520828,-1.0,-2.0,-1.0,-1.0,-2.0,-2.0,-1.0,-1.0
1701961246.520828,0.0,-1.0,-1.0,-1.0,-3.0,-1.0,-2.0,0.0
1701961246.520828,-4.0,-1.0,0.0,0.0,1.0,-2.0,-1.0,-2.0
1701961246.550827,-1.0,-1.0,0.0,-1.0,-1.0,-2.0,-2.0,-2.0
1701961246.550827,-1.0,-1.0,1.0,-1.0,-1.0,-1.0,-2.0,-1.0
1701961246.550827,-1.0,-1.0,-2.0,-1.0,-1.0,-1.0,-2.0,-1.0
1701961246.550827,1.0,-3.0,-3.0,-2.0,0.0,-1.0,0.0,-1.0
1701961246.5610926,-1.0,-1.0,1.0,-1.0,-3.0,0.0,-1.0,-2.0
1701961246.5610926,0.0,0.0,-2.0,-1.0,-2.0,-2.0,-2.0,-2.0
1701961246.5710897,-2.0,-1.0,1.0,-1.0,-2.0,0.0,-1.0,0.0
1701961246.5710897,-1.0,-1.0,0.0,-1.0,-1.0,-1.0,-1.0,-1.0
1701961246.5909307,0.0,-3.0,-3.0,-1.0,-1.0,-2.0,-1.0,0.0
1701961246.5909307,-2.0,1.0,1.0,-1.0,-2.0,-1.0,-1.0,-1.0
1701961246.5909307,-2.0,-1.0,-2.0,0.0,-1.0,-1.0,0.0,-1.0
1701961246.5909307,-2.0,-2.0,-1.0,-2.0,-3.0,-2.0,-1.0,0.0
1701961246.6008325,2.0,0.0,-2.0,-1.0,-1.0,-3.0,-1.0,-1.0
1701961246.6008325,-2.0,-2.0,-1.0,-1.0,-1.0,-1.0,-1.0,-1.0
1701961246.6008325,0.0,-1.0,-1.0,-1.0,0.0,0.0,-1.0,0.0
1701961246.6008325,-4.0,-2.0,1.0,-1.0,-1.0,0.0,-1.0,-2.0
1701961246.6409855,0.0,0.0,0.0,1.0,-1.0,-1.0,-2.0,0.0
1701961246.6409855,-2.0,1.0,0.0,0.0,1.0,-1.0,1.0,-1.0
1701961246.6409855,-1.0,1.0,-1.0,-1.0,-2.0,0.0,0.0,-2.0
1701961246.6409855,-1.0,-1.0,-3.0,-3.0,-1.0,-2.0,0.0,-2.0
1701961246.6509812,0.0,0.0,-1.0,-1.0,1.0,-1.0,-2.0,-3.0
1701961246.6509812,0.0,-1.0,-1.0,-2.0,-1.0,2.0,1.0,-1.0
1701961246.6509812,-1.0,-1.0,-1.0,1.0,-1.0,-1.0,-1.0,0.0
1701961246.6509812,-1.0,0.0,0.0,0.0,-2.0,1.0,-1.0,-1.0
1701961246.661243,-4.0,-2.0,0.0,-1.0,0.0,0.0,0.0,-1.0
1701961246.661243,1.0,0.0,-1.0,0.0,-3.0,0.0,-1.0,-1.0
1701961246.661243,-2.0,0.0,-1.0,-3.0,0.0,-3.0,0.0,-1.0
1701961246.661243,2.0,0.0,-2.0,-2.0,0.0,-3.0,-1.0,0.0
1701961246.681298,-2.0,-1.0,0.0,1.0,0.0,-3.0,-2.0,1.0
1701961246.681298,0.0,-3.0,0.0,0.0,0.0,-3.0,-1.0,-2.0
1701961246.681298,-1.0,-1.0,-1.0,-2.0,0.0,-1.0,-1.0,0.0
1701961246.681298,-1.0,-1.0,-3.0,0.0,-2.0,-2.0,-2.0,-1.0
1701961246.7109866,-1.0,-1.0,-3.0,-3.0,-2.0,-2.0,-1.0,-1.0
1701961246.7109866,0.0,-1.0,-1.0,-3.0,-3.0,-1.0,-2.0,-2.0
1701961246.7109866,-1.0,-2.0,-2.0,-1.0,-2.0,-1.0,-2.0,0.0
1701961246.7109866,0.0,-2.0,-1.0,1.0,-1.0,-1.0,0.0,-2.0
1701961246.7210133,0.0,-3.0,0.0,1.0,-1.0,-1.0,1.0,0.0
1701961246.7210133,0.0,-1.0,-2.0,0.0,-1.0,-3.0,-2.0,0.0
1701961246.7210133,-2.0,-2.0,0.0,-2.0,-2.0,0.0,-1.0,-1.0
1701961246.7210133,-1.0,0.0,1.0,-1.0,-2.0,-2.0,1.0,-1.0
1701961246.7509854,0.0,0.0,-2.0,-2.0,-1.0,-2.0,-1.0,-4.0
1701961246.7509854,-1.0,-2.0,-2.0,-1.0,-2.0,-1.0,-1.0,-1.0
1701961246.7509854,-1.0,-2.0,0.0,0.0,0.0,-2.0,-2.0,-2.0
1701961246.7509854,-1.0,-2.0,1.0,-2.0,-1.0,-1.0,-1.0,0.0
1701961246.7709863,-2.0,0.0,-2.0,-2.0,-3.0,0.0,0.0,1.0
1701961246.7709863,-2.0,-1.0,0.0,-3.0,0.0,0.0,0.0,-1.0
1701961246.7709863,-1.0,-1.0,-1.0,0.0,-3.0,-1.0,0.0,0.0
1701961246.7709863,0.0,-2.0,-1.0,-2.0,0.0,0.0,-2.0,1.0
