1701961746.720718,4.0,-8.0,-12.0,-4.0,-3.0,-4.0,-3.0,-1.0
1701961746.720718,-5.0,-4.0,3.0,1.0,3.0,1.0,1.0,1.0
1701961746.720718,-3.0,-2.0,2.0,-3.0,-2.0,0.0,-2.0,-3.0
1701961746.720718,-1.0,3.0,12.0,1.0,2.0,2.0,1.0,0.0
1701961746.7406943,-4.0,-4.0,-2.0,8.0,6.0,0.0,-1.0,-3.0
1701961746.7406943,1.0,-26.0,-11.0,-10.0,-5.0,-2.0,-1.0,0.0
1701961746.7406943,14.0,21.0,-5.0,-1.0,-2.0,0.0,1.0,3.0
1701961746.7406943,-23.0,-29.0,-17.0,-6.0,-5.0,-5.0,-5.0,-10.0
1701961746.7607625,-1.0,-2.0,20.0,1.0,-4.0,-2.0,1.0,3.0
1701961746.7607625,2.0,-35.0,-37.0,-1.0,-8.0,-6.0,-5.0,-4.0
1701961746.7607625,-8.0,-21.0,-15.0,-57.0,-8.0,-2.0,-3.0,-2.0
1701961746.7607625,7.0,6.0,1.0,44.0,13.0,0.0,0.0,2.0
1701961746.780527,2.0,10.0,-1.0,-11.0,-3.0,1.0,-2.0,-1.0
1701961746.780527,-9.0,6.0,6.0,15.0,5.0,1.0,1.0,-1.0
1701961746.780527,0.0,8.0,12.0,6.0,5.0,0.0,-2.0,1.0
1701961746.780527,5.0,14.0,9.0,-6.0,0.0,3.0,2.0,1.0
1701961746.8007624,-8.0,-17.0,-14.0,-11.0,-3.0,-4.0,-2.0,1.0
1701961746.8007624,0.0,15.0,6.0,-5.0,-1.0,-1.0,1.0,-1.0
1701961746.8105292,1.0,6.0,-1.0,9.0,-3.0,-3.0,-2.0,-3.0
1701961746.8105292,4.0,3.0,11.0,-10.0,-3.0,-2.0,-1.0,-2.0
1701961746.820783,9.0,1.0,-5.0,11.0,1.0,-2.0,0.0,1.0
1701961746.820783,1.0,6.0,2.0,-12.0,-3.0,0.0,-1.0,-1.0
1701961746.8305275,-9.0,0.0,-7.0,12.0,1.0,-3.0,-1.0,-1.0
1701961746.8305275,-1.0,1.0,13.0,-2.0,3.0,2.0,-1.0,-2.0
1701961746.860523,0.0,-1.0,-21.0,-5.0,-3.0,-3.0,0.0,0.0
1701961746.860523,0.0,-2.0,2.0,-3.0,2.0,0.0,-2.0,-5.0
1701961746.860523,8.0,1.0,8.0,4.0,-2.0,0.0,1.0,2.0
1701961746.860523,-1.0,3.0,3.0,-3.0,-3.0,-2.0,-2.0,-1.0
1701961746.860523,-4.0,6.0,5.0,0.0,2.0,6.0,2.0,1.0
1701961746.860523,1.0,-2.0,2.0,0.0,1.0,-2.0,-3.0,2.0
1701961746.870559,0.0,-5.0,-8.0,5.0,0.0,-1.0,0.0,-1.0
1701961746.870559,-15.0,8.0,23.0,-3.0,-3.0,0.0,2.0,0.0
1701961746.8805249,-7.0,-8.0,-9.0,-3.0,-2.0,-3.0,-1.0,-4.0
1701961746.8805249,-2.0,-1.0,-23.0,-5.0,-5.0,1.0,-2.0,0.0
1701961746.8905246,-4.0,2.0,11.0,4.0,1.0,1.0,-1.0,-3.0
1701961746.8905246,8.0,6.0,2.0,-8.0,-3.0,0.0,-1.0,3.0
1701961746.9007144,0.0,0.0,-1.0,10.0,-1.0,0.0,-3.0,-1.0
1701961746.9007144,-10.0,14.0,12.0,6.0,4.0,1.0,2.0,0.0
1701961746.9007144,-5.0,-16.0,-21.0,-3.0,-3.0,-2.0,-2.0,-4.0
1701961746.9007144,-6.0,7.0,0.0,-2.0,2.0,-1.0,1.0,-1.0
1701961746.9207883,6.0,-10.0,2.0,-4.0,-5.0,-4.0,-3.0,-4.0
1701961746.9207883,-1.0,10.0,10.0,-4.0,-3.0,0.0,1.0,0.0
1701961746.9305267,1.0,-4.0,-5.0,0.0,-1.0,-2.0,-2.0,-1.0
1701961746.9305267,1.0,-10.0,-15.0,-4.0,-5.0,-2.0,-2.0,-1.0
1701961746.9405289,2.0,-15.0,-4.0,0.0,-2.0,-2.0,-2.0,0.0
1701961746.9405289,7.0,-5.0,-7.0,2.0,-2.0,-3.0,-2.0,0.0
1701961746.9605227,0.0,8.0,-1.0,-2.0,-2.0,-1.0,0.0,1.0
1701961746.9605227,0.0,0.0,8.0,0.0,0.0,0.0,-2.0,-1.0
1701961746.9605227,-4.0,-2.0,1.0,3.0,1.0,-2.0,0.0,-3.0
1701961746.9605227,-1.0,-7.0,19.0,-1.0,-2.0,-2.0,0.0,0.0
1701961746.9605227,-5.0,-19.0,-19.0,2.0,0.0,-1.0,-1.0,0.0
1701961746.9605227,23.0,-30.0,-50.0,-17.0,-8.0,-6.0,-5.0,-1.0
1701961746.9807382,-3.0,11.0,4.0,5.0,2.0,3.0,3.0,0.0
1701961746.9807382,-7.0,9.0,9.0,-3.0,-3.0,-3.0,-8.0,-2.0
1701961746.9905272,0.0,-2.0,12.0,3.0,-3.0,-11.0,-5.0,-2.0
1701961746.9905272,-2.0,0.0,3.0,3.0,1.0,7.0,0.0,-2.0
1701961747.0005314,2.0,-12.0,-1.0,-3.0,-3.0,-3.0,-3.0,-3.0
1701961747.0005314,15.0,-14.0,-26.0,-7.0,0.0,-1.0,1.0,0.0
1701961747.020526,-5.0,-1.0,6.0,1.0,-4.0,1.0,0.0,-1.0
1701961747.020526,18.0,-10.0,-14.0,-4.0,-7.0,-11.0,-7.0,-1.0
1701961747.020526,-8.0,14.0,4.0,-8.0,8.0,2.0,1.0,-4.0
1701961747.020526,-9.0,0.0,5.0,13.0,4.0,2.0,0.0,-1.0
1701961747.020526,2.0,-2.0,7.0,-6.0,-4.0,-1.0,0.0,-1.0
1701961747.020526,-12.0,4.0,8.0,11.0,8.0,1.0,3.0,0.0
1701961747.0409112,-11.0,15.0,15.0,8.0,2.0,4.0,1.0,1.0
1701961747.0409112,-8.0,1.0,-9.0,-10.0,0.0,0.0,1.0,-3.0
1701961747.0409112,7.0,2.0,-6.0,-2.0,-1.0,2.0,0.0,-2.0
1701961747.0409112,-8.0,6.0,15.0,-1.0,-2.0,-1.0,0.0,-2.0
1701961747.0605218,4.0,-7.0,-22.0,-6.0,-5.0,-3.0,1.0,0.0
1701961747.0605218,-4.0,2.0,-4.0,5.0,3.0,1.0,-2.0,-1.0
1701961747.0605218,-8.0,2.0,13.0,4.0,3.0,1.0,-9.0,-1.0
1701961747.0705354,-10.0,26.0,1.0,-3.0,4.0,8.0,16.0,1.0
1701961747.0807936,-6.0,-21.0,-7.0,-4.0,-7.0,-16.0,-22.0,-7.0
1701961747.0807936,-3.0,14.0,7.0,15.0,1.0,1.0,2.0,3.0
1701961747.0807936,17.0,5.0,-7.0,-9.0,1.0,0.0,-1.0,1.0
1701961747.0807936,-5.0,-6.0,7.0,0.0,-1.0,-3.0,-4.0,-3.0
1701961747.1105292,-6.0,-6.0,-15.0,-11.0,-6.0,2.0,4.0,0.0
1701961747.1105292,8.0,4.0,7.0,-8.0,-2.0,0.0,2.0,-1.0
1701961747.1368601,-16.0,16.0,7.0,7.0,2.0,1.0,0.0,-5.0
1701961747.1368601,6.0,-3.0,-13.0,-6.0,-2.0,-1.0,-2.0,1.0
1701961747.1368601,0.0,8.0,10.0,1.0,0.0,0.0,2.0,-1.0
1701961747.1368601,1.0,-5.0,-6.0,-7.0,-4.0,-5.0,-4.0,-1.0
1701961747.1378584,0.0,-3.0,-3.0,0.0,1.0,1.0,1.0,0.0
1701961747.1378584,0.0,2.0,15.0,7.0,1.0,-2.0,-3.0,0.0
1701961747.1431608,-5.0,-2.0,-39.0,-1.0,1.0,3.0,3.0,0.0
1701961747.1431608,-9.0,-1.0,10.0,2.0,1.0,0.0,-10.0,-12.0
1701961747.1532016,0.0,-6.0,-9.0,-3.0,-2.0,1.0,4.0,4.0
1701961747.1532016,-6.0,0.0,10.0,-2.0,-6.0,-4.0,-3.0,-1.0
1701961747.1634114,1.0,1.0,-14.0,3.0,4.0,2.0,1.0,2.0
1701961747.1634114,-5.0,-6.0,17.0,-8.0,-5.0,-2.0,4.0,1.0
1701961747.1731632,-2.0,-7.0,-6.0,-1.0,-5.0,-4.0,-3.0,-3.0
1701961747.1731632,5.0,1.0,17.0,2.0,1.0,-2.0,-3.0,-7.0
1701961747.1731632,4.0,4.0,10.0,6.0,3.0,0.0,2.0,1.0
1701961747.1731632,9.0,-15.0,-33.0,-9.0,-3.0,-1.0,0.0,2.0
1701961747.1834989,-4.0,-4.0,-9.0,-3.0,-1.0,0.0,-1.0,-1.0
1701961747.1834989,-2.0,-2.0,4.0,1.0,0.0,-2.0,1.0,-1.0
1701961747.2035818,13.0,-2.0,6.0,-1.0,-1.0,-1.0,-2.0,0.0
1701961747.2035818,-6.0,4.0,-3.0,-2.0,0.0,0.0,0.0,-1.0
1701961747.2035818,-13.0,24.0,26.0,6.0,0.0,0.0,1.0,0.0
1701961747.2035818,7.0,-9.0,-15.0,-4.0,-2.0,-2.0,-3.0,0.0
1701961747.223163,24.0,0.0,7.0,3.0,-1.0,1.0,1.0,-1.0
1701961747.223163,-29.0,-4.0,-4.0,-3.0,-4.0,-2.0,-3.0,-1.0
1701961747.223163,0.0,-5.0,-3.0,-3.0,-4.0,-3.0,-1.0,-3.0
1701961747.223163,-12.0,5.0,-5.0,-1.0,2.0,0.0,0.0,0.0
1701961747.233206,0.0,3.0,7.0,-3.0,-2.0,-1.0,-1.0,0.0
1701961747.233206,11.0,7.0,6.0,3.0,0.0,1.0,3.0,6.0
1701961747.2434802,20.0,-4.0,-11.0,-4.0,-1.0,-2.0,-3.0,-3.0
1701961747.2434802,-14.0,0.0,-2.0,1.0,2.0,0.0,-3.0,-2.0
1701961747.2635777,-14.0,-5.0,7.0,2.0,1.0,-1.0,-3.0,-6.0
1701961747.2635777,2.0,-8.0,-5.0,-4.0,-2.0,-3.0,0.0,2.0
1701961747.2635777,0.0,-2.0,-2.0,1.0,-1.0,-1.0,1.0,3.0
1701961747.2635777,25.0,2.0,0.0,-5.0,-4.0,-2.0,-4.0,0.0
1701961747.2931638,-32.0,7.0,7.0,2.0,0.0,2.0,1.0,-4.0
1701961747.2931638,2.0,-7.0,-7.0,-15.0,-7.0,-3.0,4.0,-6.0
1701961747.2931638,2.0,5.0,-1.0,23.0,13.0,7.0,-1.0,5.0
1701961747.2931638,-6.0,-7.0,-5.0,-13.0,-8.0,-15.0,-13.0,0.0
1701961747.2931638,5.0,-4.0,-1.0,12.0,3.0,3.0,-1.0,-1.0
1701961747.2931638,-18.0,37.0,16.0,14.0,4.0,5.0,4.0,-6.0
1701961747.3031623,-10.0,-8.0,-3.0,-12.0,-7.0,-4.0,-1.0,-1.0
1701961747.3031623,-8.0,-1.0,-5.0,0.0,-2.0,-1.0,-2.0,-3.0
1701961747.3235328,0.0,7.0,7.0,-9.0,-2.0,-3.0,-3.0,-2.0
1701961747.3235328,-1.0,-8.0,-4.0,-5.0,-2.0,-1.0,-3.0,-1.0
1701961747.3235328,5.0,-10.0,-2.0,2.0,-1.0,-2.0,0.0,-1.0
1701961747.3235328,-6.0,4.0,-4.0,-2.0,-1.0,5.0,5.0,-2.0
1701961747.3431625,-5.0,-2.0,6.0,0.0,2.0,-2.0,-5.0,0.0
1701961747.3431625,13.0,-4.0,-7.0,-1.0,-4.0,-9.0,-18.0,-2.0
1701961747.3431625,-5.0,-3.0,9.0,-7.0,-6.0,-2.0,-1.0,-3.0
1701961747.3431625,-2.0,-14.0,-21.0,0.0,0.0,2.0,2.0,-1.0
1701961747.3535194,5.0,-10.0,2.0,-6.0,-1.0,0.0,2.0,-1.0
1701961747.3535194,6.0,3.0,2.0,-1.0,-1.0,1.0,4.0,4.0
1701961747.3732705,-6.0,-6.0,-6.0,-5.0,-5.0,-7.0,-6.0,-8.0
1701961747.3732705,0.0,-1.0,10.0,-2.0,-1.0,3.0,2.0,3.0
1701961747.3835108,5.0,-1.0,-23.0,-3.0,-4.0,-2.0,0.0,1.0
1701961747.3835108,-7.0,-9.0,-5.0,0.0,2.0,2.0,-1.0,0.0
1701961747.3835108,0.0,1.0,-1.0,-7.0,-6.0,-4.0,0.0,-4.0
1701961747.3835108,2.0,3.0,11.0,9.0,6.0,3.0,4.0,1.0
1701961747.4031963,-7.0,-4.0,-8.0,-10.0,-7.0,-3.0,-3.0,-1.0
1701961747.4031963,1.0,-5.0,5.0,2.0,0.0,-1.0,-1.0,-1.0
1701961747.4031963,3.0,0.0,2.0,-1.0,-2.0,1.0,8.0,3.0
1701961747.4031963,-3.0,0.0,-23.0,-4.0,-4.0,-3.0,-17.0,-6.0
1701961747.4135244,3.0,9.0,29.0,9.0,4.0,0.0,1.0,1.0
1701961747.4135244,-3.0,-12.0,-17.0,-5.0,4.0,5.0,4.0,0.0
1701961747.4234588,-5.0,-6.0,3.0,0.0,3.0,1.0,-1.0,-2.0
1701961747.4234588,-4.0,8.0,7.0,2.0,-3.0,-3.0,0.0,-3.0
1701961747.443551,-1.0,-4.0,-3.0,-2.0,-6.0,-4.0,-5.0,-2.0
1701961747.443551,5.0,3.0,9.0,4.0,1.0,1.0,2.0,4.0
1701961747.443551,1.0,1.0,2.0,1.0,1.0,2.0,-2.0,0.0
1701961747.443551,2.0,-14.0,-3.0,-3.0,-1.0,-2.0,-1.0,-1.0
1701961747.4631627,5.0,15.0,-2.0,-3.0,-6.0,-3.0,-3.0,-1.0
1701961747.4631627,-3.0,1.0,8.0,-4.0,-8.0,-6.0,-2.0,-2.0
1701961747.4631627,-16.0,-11.0,-12.0,-1.0,5.0,1.0,-5.0,-5.0
1701961747.4631627,-2.0,-2.0,5.0,4.0,2.0,4.0,6.0,6.0
1701961747.4734063,-4.0,-6.0,1.0,2.0,0.0,1.0,0.0,-3.0
1701961747.4734063,15.0,1.0,-8.0,-5.0,1.0,-3.0,-4.0,-5.0
1701961747.4831717,9.0,3.0,-9.0,4.0,1.0,-2.0,3.0,7.0
1701961747.4831717,-5.0,3.0,0.0,5.0,3.0,1.0,0.0,-3.0
1701961747.5231616,-4.0,-10.0,4.0,1.0,0.0,0.0,4.0,3.0
1701961747.5231616,-1.0,9.0,6.0,-7.0,-11.0,-6.0,-12.0,-4.0
1701961747.5231616,1.0,-6.0,-15.0,-10.0,-7.0,-4.0,-3.0,-7.0
1701961747.5231616,2.0,14.0,23.0,6.0,3.0,0.0,4.0,2.0
1701961747.5231616,-4.0,-7.0,-8.0,-14.0,-10.0,-4.0,-1.0,1.0
1701961747.5231616,1.0,-1.0,-6.0,13.0,11.0,3.0,4.0,-3.0
1701961747.5231616,-4.0,0.0,4.0,-4.0,-3.0,-2.0,-1.0,-1.0
1701961747.5231616,-3.0,-16.0,-18.0,-1.0,-1.0,-2.0,-1.0,-1.0
1701961747.5331888,-6.0,9.0,7.0,-3.0,-3.0,-1.0,-1.0,-1.0
1701961747.5331888,-4.0,-4.0,10.0,5.0,-2.0,-1.0,0.0,-3.0
1701961747.543484,3.0,3.0,0.0,2.0,-2.0,-1.0,-2.0,0.0
1701961747.543484,3.0,-3.0,-23.0,-9.0,-2.0,0.0,0.0,-2.0
1701961747.5631628,-4.0,-3.0,2.0,1.0,8.0,4.0,1.0,1.0
1701961747.5631628,-5.0,-17.0,-17.0,0.0,-2.0,1.0,1.0,-2.0
1701961747.5631628,0.0,1.0,5.0,-1.0,-1.0,-1.0,-1.0,1.0
1701961747.5631628,3.0,-3.0,-5.0,-5.0,-6.0,-4.0,-3.0,-2.0
1701961747.5831656,-5.0,15.0,13.0,5.0,5.0,1.0,1.0,-1.0
1701961747.5831656,-2.0,-5.0,-11.0,-4.0,1.0,3.0,3.0,1.0
1701961747.5831656,2.0,2.0,11.0,-3.0,-3.0,0.0,1.0,0.0
1701961747.5831656,2.0,-11.0,-8.0,-3.0,-5.0,-1.0,-1.0,-1.0
1701961747.6035583,-9.0,-10.0,-7.0,2.0,2.0,-2.0,-9.0,-8.0
1701961747.6035583,-2.0,0.0,24.0,1.0,-1.0,-3.0,1.0,-2.0
1701961747.6035583,3.0,-24.0,-33.0,0.0,1.0,-2.0,-7.0,-1.0
1701961747.6035583,1.0,4.0,-23.0,-7.0,-3.0,-2.0,0.0,-3.0
1701961747.6231654,4.0,-8.0,6.0,1.0,-2.0,-2.0,-1.0,0.0
1701961747.6231654,-2.0,4.0,12.0,0.0,0.0,3.0,4.0,3.0
1701961747.6231654,10.0,-3.0,1.0,-9.0,-8.0,-4.0,0.0,3.0
1701961747.6231654,-6.0,12.0,20.0,13.0,7.0,-1.0,-3.0,-3.0
1701961747.65577,6.0,13.0,-15.0,-18.0,-1.0,-1.0,1.0,1.0
1701961747.6567926,2.0,3.0,1.0,30.0,-2.0,-3.0,-2.0,0.0
1701961747.6577876,-10.0,-2.0,4.0,-13.0,0.0,-2.0,-1.0,-4.0
1701961747.6577876,-7.0,-7.0,7.0,-7.0,-6.0,-2.0,-1.0,-2.0
1701961747.6702244,7.0,-5.0,7.0,29.0,2.0,-1.0,1.0,2.0
1701961747.6702244,-3.0,19.0,-4.0,-18.0,-6.0,-4.0,-4.0,-2.0
1701961747.6722243,-9.0,-2.0,10.0,-2.0,3.0,5.0,3.0,-2.0
1701961747.6722243,-5.0,-7.0,-8.0,-9.0,-14.0,-6.0,-5.0,-1.0
1701961747.6759992,2.0,-20.0,-9.0,18.0,17.0,4.0,1.0,-1.0
1701961747.6759992,-10.0,4.0,13.0,-3.0,2.0,-1.0,0.0,-4.0
1701961747.686002,-5.0,-1.0,-29.0,-9.0,-6.0,-1.0,-1.0,-3.0
1701961747.686002,3.0,5.0,-3.0,7.0,11.0,4.0,4.0,3.0
1701961747.7060564,1.0,-10.0,-18.0,-10.0,-11.0,-4.0,0.0,1.0
1701961747.7060564,-5.0,1.0,14.0,-8.0,-3.0,-2.0,-1.0,3.0
1701961747.7060564,1.0,10.0,1.0,-3.0,2.0,2.0,-1.0,-4.0
1701961747.7060564,-1.0,2.0,15.0,31.0,9.0,3.0,0.0,2.0
1701961747.7260022,-2.0,3.0,-2.0,-5.0,0.0,-1.0,2.0,-3.0
1701961747.7260022,-12.0,5.0,5.0,11.0,6.0,7.0,3.0,0.0
1701961747.7260022,-6.0,-6.0,10.0,-6.0,-1.0,-4.0,-4.0,-4.0
1701961747.7260022,-5.0,-5.0,-20.0,-23.0,-10.0,0.0,0.0,-4.0
1701961747.7360404,-2.0,4.0,1.0,-9.0,-9.0,-2.0,-6.0,-6.0
1701961747.7360404,16.0,-5.0,-21.0,-16.0,-4.0,-5.0,-5.0,0.0
1701961747.746001,0.0,5.0,31.0,25.0,9.0,0.0,0.0,-1.0
1701961747.746001,-2.0,-12.0,-38.0,-15.0,-8.0,-3.0,-2.0,-4.0
1701961747.7662907,-3.0,2.0,2.0,-4.0,0.0,-1.0,0.0,0.0
1701961747.7662907,-7.0,-7.0,14.0,9.0,4.0,2.0,2.0,-2.0
1701961747.7662907,-6.0,1.0,-32.0,-16.0,3.0,3.0,2.0,3.0
1701961747.7662907,15.0,15.0,43.0,32.0,-3.0,-1.0,2.0,7.0
1701961747.8063073,-1.0,-3.0,-18.0,-4.0,0.0,2.0,1.0,0.0
1701961747.8063073,15.0,-7.0,-5.0,3.0,-6.0,-5.0,-6.0,-2.0
1701961747.8063073,-13.0,12.0,29.0,17.0,7.0,-2.0,-1.0,-2.0
1701961747.8063073,-1.0,-12.0,-24.0,-35.0,-5.0,-4.0,-2.0,-1.0
1701961747.8063073,-2.0,-15.0,-7.0,-10.0,-6.0,-4.0,-4.0,-3.0
1701961747.8063073,-1.0,4.0,-18.0,-6.0,-3.0,-3.0,1.0,5.0
1701961747.8063073,7.0,1.0,-4.0,-9.0,-9.0,-3.0,-2.0,-3.0
1701961747.8063073,5.0,-1.0,12.0,-5.0,-3.0,-2.0,-2.0,-1.0
1701961747.8267395,0.0,18.0,23.0,6.0,-6.0,-3.0,0.0,0.0
1701961747.8267395,-17.0,-10.0,-11.0,-7.0,1.0,-3.0,-6.0,-9.0
1701961747.8267395,-3.0,0.0,-2.0,10.0,2.0,4.0,5.0,5.0
1701961747.8267395,-10.0,2.0,23.0,14.0,11.0,4.0,1.0,-2.0
1701961747.8463101,-5.0,8.0,-6.0,-4.0,-4.0,1.0,5.0,1.0
1701961747.8463101,25.0,-8.0,-14.0,-11.0,-8.0,-22.0,-14.0,-2.0
1701961747.8463101,0.0,2.0,-10.0,-1.0,-4.0,10.0,-1.0,-3.0
1701961747.8463101,-3.0,3.0,9.0,5.0,7.0,37.0,13.0,2.0
1701961747.8563416,5.0,-5.0,17.0,-5.0,-2.0,-10.0,-3.0,5.0
1701961747.8563416,0.0,-6.0,2.0,1.0,-1.0,15.0,6.0,1.0
1701961747.8665278,-1.0,-14.0,-53.0,-1.0,-3.0,-26.0,-5.0,-2.0
1701961747.8665278,-4.0,-5.0,-8.0,-7.0,-3.0,-9.0,-6.0,-4.0
1701961747.8863168,4.0,2.0,4.0,2.0,2.0,0.0,7.0,0.0
1701961747.8863168,-9.0,-2.0,-28.0,-3.0,3.0,4.0,-10.0,0.0
1701961747.8863168,6.0,1.0,26.0,5.0,-1.0,-7.0,-4.0,0.0
1701961747.8863168,-10.0,-1.0,0.0,-5.0,-2.0,-24.0,-8.0,-2.0
1701961747.9065924,-10.0,-16.0,-30.0,-7.0,-4.0,10.0,-1.0,-3.0
1701961747.9065924,8.0,15.0,20.0,1.0,-1.0,2.0,5.0,2.0
1701961747.9065924,17.0,-11.0,10.0,6.0,5.0,26.0,11.0,4.0
1701961747.9065924,-9.0,39.0,-13.0,2.0,1.0,-10.0,-10.0,3.0
1701961747.9363103,-8.0,-10.0,-16.0,-6.0,-3.0,-6.0,-7.0,-8.0
1701961747.9363103,-4.0,-10.0,-32.0,-15.0,-3.0,-9.0,1.0,-1.0
1701961747.9363103,3.0,3.0,-8.0,1.0,-3.0,-2.0,-7.0,-1.0
1701961747.9363103,10.0,-1.0,47.0,10.0,2.0,-5.0,2.0,0.0
1701961747.9464905,1.0,-2.0,-20.0,3.0,-5.0,-2.0,-3.0,1.0
1701961747.9464905,-6.0,-3.0,8.0,1.0,1.0,4.0,0.0,-3.0
1701961747.9563076,-7.0,5.0,13.0,-3.0,4.0,-7.0,-3.0,-3.0
1701961747.9563076,-5.0,-6.0,4.0,-1.0,0.0,6.0,3.0,-4.0
1701961747.9665642,-5.0,-5.0,14.0,9.0,10.0,3.0,3.0,0.0
1701961747.9665642,-2.0,3.0,-14.0,-5.0,-1.0,-2.0,-4.0,-7.0
1701961747.9665642,3.0,-20.0,-37.0,-4.0,-6.0,-6.0,-4.0,-4.0
1701961747.9665642,-1.0,17.0,6.0,-9.0,-5.0,0.0,2.0,-1.0
1701961747.9765744,3.0,1.0,17.0,3.0,-1.0,-1.0,-3.0,-1.0
1701961747.9765744,-3.0,-11.0,-13.0,-11.0,-6.0,-4.0,3.0,0.0
1701961747.9865258,5.0,8.0,35.0,15.0,4.0,3.0,2.0,1.0
1701961747.9865258,-8.0,-26.0,-77.0,-14.0,-6.0,-3.0,-3.0,-4.0
1701961748.0064883,-3.0,2.0,30.0,3.0,1.0,-6.0,-5.0,-2.0
1701961748.0064883,-1.0,5.0,27.0,4.0,-1.0,0.0,1.0,-2.0
1701961748.0263085,-6.0,2.0,-13.0,-12.0,-1.0,1.0,0.0,-2.0
1701961748.0263085,1.0,6.0,46.0,17.0,-4.0,0.0,-1.0,-1.0
1701961748.0363379,1.0,-4.0,3.0,11.0,-3.0,0.0,1.0,1.0
1701961748.0363379,-7.0,7.0,-19.0,-9.0,2.0,-6.0,-3.0,-5.0
1701961748.0363379,-4.0,-19.0,2.0,4.0,-6.0,-5.0,-6.0,-4.0
1701961748.0363379,2.0,-4.0,1.0,-3.0,5.0,-1.0,2.0,3.0
1701961748.0363379,-5.0,-34.0,-3.0,-13.0,-8.0,-4.0,-7.0,-7.0
1701961748.0363379,2.0,6.0,2.0,4.0,-2.0,5.0,5.0,5.0
1701961748.0466487,-8.0,15.0,-1.0,-15.0,-4.0,-3.0,-1.0,-1.0
1701961748.0466487,-4.0,-22.0,-8.0,-17.0,-12.0,-5.0,-7.0,-7.0
1701961748.0665693,0.0,19.0,-15.0,17.0,2.0,2.0,1.0,0.0
1701961748.0665693,1.0,-10.0,-32.0,0.0,7.0,2.0,0.0,-3.0
1701961748.0763075,-5.0,12.0,30.0,12.0,4.0,2.0,4.0,1.0
1701961748.0763075,3.0,-1.0,15.0,-1.0,5.0,2.0,-3.0,-2.0
1701961748.086713,2.0,3.0,-15.0,-16.0,-10.0,-6.0,-3.0,0.0
1701961748.086713,-11.0,-31.0,5.0,-6.0,-4.0,-3.0,-2.0,-6.0
1701961748.086713,7.0,17.0,-5.0,-11.0,-6.0,-1.0,2.0,5.0
1701961748.086713,-9.0,7.0,15.0,15.0,5.0,0.0,0.0,-6.0
1701961748.0965824,-9.0,24.0,32.0,0.0,6.0,3.0,6.0,6.0
1701961748.0965824,-2.0,-17.0,-41.0,-1.0,-8.0,-29.0,-15.0,-15.0
1701961748.1066577,-11.0,-4.0,-14.0,-11.0,-4.0,0.0,2.0,-6.0
1701961748.1066577,12.0,-1.0,4.0,5.0,5.0,39.0,-4.0,14.0
1701961748.1265626,10.0,1.0,-30.0,-13.0,-2.0,-49.0,-24.0,-18.0
1701961748.1265626,-9.0,6.0,-11.0,1.0,4.0,59.0,21.0,1.0
1701961748.136307,-2.0,2.0,-25.0,-3.0,-2.0,-6.0,-2.0,3.0
1701961748.136307,2.0,-10.0,-36.0,-5.0,-2.0,-19.0,-3.0,-7.0
1701961748.1466956,0.0,-5.0,4.0,-4.0,-2.0,2.0,1.0,-2.0
1701961748.1466956,7.0,27.0,56.0,16.0,-1.0,-8.0,-6.0,5.0
1701961748.1466956,2.0,11.0,6.0,1.0,0.0,-4.0,-1.0,-3.0
1701961748.1466956,-1.0,-10.0,0.0,-5.0,-2.0,-1.0,-3.0,-2.0
1701961748.156675,6.0,8.0,-35.0,-8.0,-5.0,2.0,0.0,4.0
1701961748.156675,1.0,-15.0,-15.0,-33.0,2.0,-9.0,3.0,-1.0
1701961748.166636,3.0,6.0,46.0,54.0,19.0,14.0,6.0,12.0
1701961748.166636,-12.0,-3.0,-3.0,2.0,-6.0,-12.0,-2.0,-5.0
1701961748.18757,-1.0,5.0,-7.0,-24.0,-4.0,5.0,3.0,0.0
1701961748.18757,-6.0,-3.0,-10.0,0.0,-3.0,0.0,-2.0,4.0
1701961748.1895962,1.0,-4.0,-8.0,-21.0,-10.0,-8.0,-5.0,-5.0
1701961748.1895962,-1.0,5.0,39.0,13.0,4.0,-9.0,-3.0,-1.0
1701961748.2090409,-18.0,-31.0,-21.0,-2.0,-2.0,-5.0,-2.0,-6.0
1701961748.2090409,-5.0,9.0,44.0,23.0,1.0,-9.0,1.0,-4.0
1701961748.2090409,-9.0,-23.0,-31.0,-13.0,-5.0,10.0,-26.0,-2.0
1701961748.2090409,-6.0,-3.0,-37.0,-6.0,4.0,2.0,42.0,10.0
1701961748.2193134,-1.0,1.0,25.0,0.0,-1.0,24.0,-7.0,5.0
1701961748.2193134,5.0,-11.0,15.0,10.0,3.0,-18.0,-5.0,-8.0
1701961748.2390404,0.0,1.0,1.0,-8.0,-9.0,-31.0,-9.0,-8.0
1701961748.2390404,2.0,2.0,-21.0,-10.0,-5.0,-8.0,-12.0,-2.0
1701961748.2590353,-2.0,1.0,-3.0,-1.0,1.0,3.0,2.0,-1.0
1701961748.2590353,2.0,-6.0,34.0,19.0,0.0,-8.0,-4.0,3.0
1701961748.2590353,2.0,7.0,-20.0,-23.0,-5.0,6.0,4.0,1.0
1701961748.2590353,3.0,-8.0,-16.0,-1.0,-2.0,3.0,-5.0,-3.0
1701961748.2693062,3.0,13.0,-12.0,-13.0,4.0,3.0,7.0,1.0
1701961748.2693062,-2.0,-3.0,-12.0,-1.0,-5.0,4.0,-6.0,-1.0
1701961748.2693062,-1.0,-7.0,8.0,-4.0,-1.0,4.0,6.0,1.0
1701961748.2693062,-15.0,5.0,-2.0,-8.0,-2.0,-1.0,-2.0,-1.0
1701961748.2793217,7.0,-2.0,-7.0,7.0,3.0,-3.0,-2.0,2.0
1701961748.2793217,-4.0,7.0,19.0,-5.0,-5.0,3.0,-3.0,-3.0
1701961748.2990403,-3.0,-8.0,1.0,5.0,2.0,3.0,4.0,-4.0
1701961748.2990403,-6.0,-25.0,2.0,2.0,1.0,-3.0,-8.0,-13.0
1701961748.3090372,-7.0,16.0,24.0,18.0,3.0,1.0,2.0,-5.0
1701961748.3090372,6.0,28.0,27.0,-1.0,6.0,15.0,15.0,17.0
1701961748.3090372,-1.0,-11.0,-79.0,-21.0,-10.0,-18.0,-10.0,-8.0
1701961748.3090372,4.0,-5.0,44.0,15.0,0.0,15.0,-7.0,-1.0
1701961748.3294454,2.0,-6.0,-30.0,-11.0,-8.0,-27.0,-9.0,-16.0
1701961748.3294454,7.0,12.0,24.0,13.0,2.0,22.0,3.0,13.0
1701961748.3294454,4.0,-5.0,23.0,0.0,1.0,-6.0,12.0,-1.0
1701961748.3294454,6.0,7.0,-14.0,0.0,7.0,28.0,10.0,16.0
1701961748.3390372,-1.0,5.0,21.0,-1.0,-1.0,15.0,-6.0,3.0
1701961748.3390372,-8.0,-22.0,-57.0,-15.0,-8.0,-21.0,-7.0,-4.0
1701961748.359041,5.0,5.0,44.0,17.0,1.0,-3.0,-2.0,2.0
1701961748.359041,-2.0,3.0,0.0,-2.0,-4.0,-16.0,-6.0,-9.0
1701961748.359041,-1.0,-10.0,-31.0,-7.0,-1.0,4.0,6.0,8.0
1701961748.359041,0.0,4.0,0.0,5.0,4.0,15.0,5.0,-5.0
1701961748.3690412,-11.0,24.0,20.0,1.0,0.0,-8.0,-13.0,-12.0
1701961748.3690412,8.0,14.0,-1.0,-1.0,-2.0,4.0,13.0,12.0
1701961748.3893294,6.0,-21.0,5.0,1.0,-2.0,-13.0,-8.0,-6.0
1701961748.3893294,4.0,28.0,16.0,11.0,6.0,16.0,15.0,9.0
1701961748.3893294,1.0,-5.0,5.0,2.0,2.0,1.0,-4.0,1.0
1701961748.3893294,-6.0,-14.0,-14.0,-12.0,-6.0,-27.0,-14.0,-4.0
1701961748.3990436,0.0,26.0,51.0,14.0,5.0,17.0,9.0,2.0
1701961748.3990436,3.0,-31.0,-22.0,-2.0,-6.0,-39.0,-11.0,-1.0
1701961748.40907,-2.0,11.0,-28.0,-12.0,0.0,29.0,12.0,0.0
1701961748.40907,-8.0,1.0,4.0,1.0,-3.0,-29.0,-13.0,-13.0
1701961748.4192512,-2.0,-19.0,-24.0,-8.0,-4.0,34.0,11.0,7.0
1701961748.4192512,-20.0,-14.0,4.0,3.0,9.0,-5.0,-10.0,-15.0
1701961748.4290388,-3.0,-4.0,19.0,11.0,-1.0,-6.0,2.0,9.0
1701961748.4290388,0.0,-8.0,-26.0,-14.0,-5.0,-12.0,-5.0,0.0
1701961748.449381,-12.0,-12.0,-8.0,-5.0,-6.0,-12.0,-5.0,-7.0
1701961748.449381,-4.0,-12.0,4.0,-5.0,-12.0,-20.0,-11.0,-10.0
1701961748.449381,0.0,-2.0,-9.0,-4.0,1.0,6.0,-3.0,5.0
1701961748.449381,0.0,4.0,-2.0,-2.0,1.0,-4.0,-8.0,-2.0
1701961748.469035,-4.0,-6.0,6.0,7.0,-1.0,-7.0,2.0,-3.0
1701961748.469035,-1.0,-5.0,-49.0,-19.0,-4.0,-11.0,-17.0,-1.0
1701961748.469035,-13.0,-25.0,17.0,2.0,-6.0,16.0,10.0,-7.0
1701961748.469035,1.0,-10.0,2.0,-4.0,-1.0,-4.0,-12.0,-8.0
1701961748.479426,-11.0,11.0,5.0,9.0,7.0,-6.0,11.0,8.0
1701961748.479426,-8.0,-4.0,0.0,0.0,-1.0,9.0,9.0,-7.0
1701961748.489039,-1.0,6.0,29.0,3.0,-2.0,-8.0,-1.0,2.0
1701961748.489039,-2.0,11.0,-29.0,-7.0,-3.0,-1.0,-1.0,-3.0
1701961748.509439,4.0,8.0,23.0,2.0,1.0,-2.0,-6.0,-1.0
1701961748.509439,6.0,1.0,-25.0,-12.0,-2.0,0.0,0.0,-1.0
1701961748.509439,1.0,-16.0,15.0,4.0,4.0,-3.0,4.0,6.0
1701961748.509439,2.0,-10.0,-11.0,-3.0,-4.0,13.0,9.0,-7.0
1701961748.5290346,4.0,4.0,2.0,0.0,3.0,0.0,-12.0,0.0
1701961748.5290346,3.0,15.0,5.0,1.0,1.0,8.0,3.0,6.0
1701961748.5290346,0.0,-2.0,-2.0,-3.0,-7.0,-33.0,-8.0,-2.0
1701961748.5290346,0.0,-5.0,-3.0,0.0,-1.0,54.0,16.0,-2.0
1701961748.539417,0.0,4.0,1.0,-1.0,-3.0,-14.0,0.0,2.0
1701961748.539417,5.0,-7.0,-5.0,-2.0,-2.0,-5.0,-7.0,1.0
1701961748.5490384,-5.0,11.0,13.0,13.0,6.0,-9.0,-5.0,-2.0
1701961748.5490384,-16.0,8.0,-4.0,-12.0,-1.0,-3.0,-2.0,-3.0
1701961748.5690365,5.0,8.0,8.0,0.0,0.0,4.0,-7.0,-1.0
1701961748.5690365,1.0,15.0,7.0,1.0,1.0,-4.0,-1.0,2.0
1701961748.5690365,-2.0,-1.0,-18.0,0.0,1.0,3.0,-1.0,0.0
1701961748.5690365,3.0,-3.0,19.0,4.0,-2.0,-9.0,-1.0,-3.0
1701961748.5893378,6.0,-4.0,-13.0,-4.0,1.0,4.0,5.0,1.0
1701961748.5893378,2.0,-5.0,17.0,-1.0,-5.0,-10.0,-5.0,3.0
1701961748.5893378,0.0,-11.0,-22.0,-8.0,0.0,16.0,-1.0,-7.0
1701961748.5893378,2.0,10.0,-2.0,1.0,2.0,-12.0,8.0,12.0
1701961748.5992994,-1.0,1.0,22.0,12.0,-1.0,-7.0,-10.0,-8.0
1701961748.5992994,6.0,-21.0,-40.0,-18.0,-6.0,7.0,4.0,-4.0
1701961748.609039,12.0,-24.0,-39.0,-13.0,-4.0,1.0,1.0,-3.0
1701961748.609039,-8.0,16.0,21.0,6.0,3.0,1.0,2.0,0.0
1701961748.6290348,-6.0,-10.0,-12.0,-5.0,-11.0,-14.0,-12.0,0.0
1701961748.6290348,1.0,1.0,14.0,5.0,7.0,8.0,7.0,-1.0
1701961748.6290348,1.0,-1.0,-11.0,-3.0,0.0,4.0,-1.0,4.0
1701961748.6290348,5.0,9.0,22.0,5.0,0.0,-9.0,-9.0,-2.0
1701961748.6492753,-1.0,-22.0,-19.0,-8.0,-2.0,10.0,7.0,-2.0
1701961748.6492753,-6.0,4.0,11.0,2.0,-2.0,-2.0,-3.0,-1.0
1701961748.6492753,0.0,3.0,3.0,7.0,6.0,14.0,8.0,6.0
1701961748.6492753,-1.0,0.0,28.0,6.0,-4.0,-8.0,-4.0,-1.0
1701961748.6592605,-3.0,-7.0,-13.0,-2.0,-4.0,-1.0,-3.0,-5.0
1701961748.6592605,-11.0,-11.0,-44.0,-21.0,-10.0,-10.0,-8.0,-4.0
1701961748.669037,-4.0,18.0,15.0,10.0,5.0,11.0,0.0,-2.0
1701961748.669037,11.0,-20.0,-22.0,-8.0,-8.0,-21.0,-3.0,0.0
1701961748.689036,-9.0,-4.0,35.0,10.0,10.0,24.0,4.0,6.0
1701961748.689036,-8.0,25.0,10.0,5.0,0.0,-4.0,-1.0,1.0
1701961748.689036,8.0,-19.0,-35.0,-12.0,-7.0,-5.0,-1.0,-1.0
1701961748.689036,-3.0,13.0,-2.0,-7.0,-2.0,-5.0,-8.0,-5.0
1701961748.7128031,-5.0,-3.0,-11.0,-9.0,-3.0,-9.0,6.0,-3.0
1701961748.7128031,1.0,2.0,25.0,14.0,0.0,6.0,-7.0,-2.0
1701961748.7151434,-2.0,-8.0,2.0,-7.0,-3.0,-9.0,-4.0,-2.0
1701961748.7151434,-6.0,-16.0,-15.0,4.0,3.0,6.0,-3.0,-3.0
1701961748.7274387,-2.0,3.0,-16.0,-8.0,-3.0,-4.0,7.0,0.0
1701961748.728108,-12.0,5.0,11.0,0.0,1.0,2.0,-8.0,-8.0
1701961748.7345054,-1.0,-6.0,36.0,4.0,-3.0,-5.0,-3.0,-3.0
1701961748.7345054,6.0,3.0,-8.0,-4.0,-2.0,2.0,1.0,-1.0
1701961748.7518597,5.0,-1.0,3.0,-3.0,4.0,0.0,-3.0,-1.0
1701961748.7518597,-19.0,-4.0,6.0,3.0,-1.0,2.0,6.0,0.0
1701961748.7518597,5.0,12.0,5.0,-2.0,-6.0,-8.0,-5.0,-2.0
1701961748.7518597,-11.0,8.0,23.0,5.0,0.0,5.0,2.0,1.0
1701961748.772176,3.0,22.0,7.0,10.0,-1.0,-2.0,-1.0,2.0
1701961748.772176,12.0,-6.0,19.0,4.0,-1.0,-2.0,2.0,4.0
1701961748.772176,4.0,2.0,-32.0,-11.0,3.0,0.0,0.0,0.0
1701961748.772176,-3.0,-9.0,1.0,-2.0,-1.0,-2.0,-1.0,2.0
1701961748.781961,16.0,-1.0,-1.0,-11.0,-8.0,-13.0,-11.0,-3.0
1701961748.781961,-7.0,26.0,-2.0,12.0,3.0,6.0,7.0,-2.0
1701961748.7918618,-4.0,3.0,13.0,-3.0,1.0,-1.0,-1.0,-1.0
1701961748.7918618,4.0,-21.0,-11.0,2.0,2.0,3.0,1.0,-3.0
1701961748.8119967,14.0,1.0,-6.0,-8.0,-3.0,-1.0,0.0,1.0
1701961748.8119967,7.0,8.0,8.0,-2.0,-3.0,-3.0,2.0,4.0
1701961748.8119967,-2.0,3.0,-1.0,5.0,-4.0,1.0,-3.0,-5.0
1701961748.8119967,-8.0,4.0,-3.0,0.0,2.0,0.0,-4.0,-3.0
1701961748.8325634,-22.0,-9.0,-33.0,-8.0,-2.0,-2.0,-7.0,-10.0
1701961748.8325634,9.0,-14.0,-8.0,-6.0,6.0,-2.0,-1.0,1.0
1701961748.8325634,-9.0,-3.0,-6.0,-14.0,-12.0,-7.0,-4.0,-6.0
1701961748.8325634,1.0,-6.0,-4.0,10.0,-10.0,-8.0,-4.0,-2.0
1701961748.842199,-9.0,-10.0,-1.0,6.0,4.0,-3.0,-3.0,-3.0
1701961748.842199,-1.0,-12.0,-3.0,-3.0,-4.0,-1.0,-2.0,-4.0
1701961748.852345,6.0,4.0,-14.0,5.0,4.0,0.0,2.0,6.0
1701961748.852345,-5.0,-5.0,-4.0,-15.0,-3.0,-1.0,-6.0,-8.0
1701961748.8621955,3.0,9.0,-2.0,-5.0,-3.0,-1.0,7.0,7.0
1701961748.8621955,5.0,-3.0,7.0,6.0,3.0,3.0,-1.0,-2.0
1701961748.8722024,-1.0,13.0,17.0,2.0,2.0,-1.0,0.0,-1.0
1701961748.8722024,9.0,33.0,15.0,-1.0,4.0,8.0,6.0,5.0
1701961748.8925016,-11.0,-5.0,10.0,7.0,4.0,4.0,5.0,3.0
1701961748.8925016,-4.0,-18.0,-17.0,-9.0,-6.0,-3.0,-1.0,-2.0
1701961748.8925016,0.0,-5.0,-19.0,4.0,0.0,-2.0,-4.0,-2.0
1701961748.8925016,-3.0,16.0,-13.0,-7.0,2.0,0.0,1.0,3.0
1701961748.902205,10.0,15.0,-1.0,6.0,3.0,3.0,2.0,4.0
1701961748.902205,1.0,-6.0,9.0,-18.0,-13.0,-7.0,-4.0,0.0
1701961748.9322,0.0,10.0,20.0,16.0,14.0,8.0,2.0,-1.0
1701961748.9322,-6.0,21.0,-11.0,1.0,3.0,-3.0,-6.0,-5.0
1701961748.9322,0.0,-11.0,-6.0,-3.0,-3.0,-4.0,-2.0,-3.0
1701961748.9322,-11.0,19.0,20.0,6.0,3.0,-1.0,-1.0,-3.0
1701961748.9322,-13.0,-16.0,-44.0,-8.0,-13.0,-13.0,-10.0,-10.0
1701961748.9322,5.0,-15.0,25.0,-25.0,-18.0,-8.0,-3.0,-4.0
1701961748.9525,4.0,10.0,-7.0,33.0,24.0,2.0,-2.0,-1.0
1701961748.9525,21.0,-30.0,-18.0,-4.0,0.0,-1.0,-1.0,0.0
1701961748.9525,-1.0,31.0,13.0,-5.0,-4.0,0.0,5.0,-1.0
1701961748.9525,4.0,-24.0,22.0,4.0,4.0,0.0,-6.0,-1.0
1701961748.9622042,-7.0,-14.0,-25.0,-16.0,-15.0,-5.0,-3.0,-5.0
1701961748.9622042,1.0,-50.0,-26.0,-18.0,-3.0,-2.0,-4.0,-5.0
1701961748.9821973,0.0,7.0,25.0,-1.0,-1.0,0.0,0.0,-1.0
1701961748.9821973,6.0,1.0,-7.0,5.0,-1.0,-1.0,1.0,2.0
1701961748.9821973,3.0,17.0,9.0,-14.0,-5.0,0.0,-1.0,-1.0
1701961748.9821973,-1.0,-20.0,-1.0,4.0,0.0,-1.0,1.0,3.0
1701961748.9921973,-1.0,-57.0,-52.0,-1.0,-3.0,-1.0,-4.0,0.0
1701961748.9921973,-6.0,44.0,16.0,8.0,-1.0,-3.0,-2.0,-3.0
1701961749.0122452,-9.0,-5.0,24.0,-2.0,-3.0,-1.0,-4.0,-3.0
1701961749.0122452,-10.0,26.0,0.0,20.0,1.0,2.0,4.0,1.0
1701961749.0221987,-5.0,-10.0,12.0,-8.0,-3.0,-5.0,-3.0,-4.0
1701961749.0221987,2.0,-26.0,-10.0,3.0,-3.0,1.0,2.0,2.0
1701961749.0221987,-12.0,-4.0,-8.0,-9.0,7.0,1.0,3.0,-2.0
1701961749.0221987,13.0,37.0,7.0,-5.0,0.0,-1.0,-7.0,2.0
1701961749.0325625,-3.0,-16.0,19.0,16.0,3.0,-2.0,-2.0,1.0
1701961749.0325625,5.0,-17.0,8.0,7.0,6.0,2.0,2.0,3.0
1701961749.0425897,-5.0,3.0,-3.0,1.0,-9.0,-7.0,-6.0,-7.0
1701961749.0425897,-1.0,3.0,-49.0,-12.0,-4.0,-2.0,-2.0,-1.0
1701961749.0521984,-2.0,-14.0,-7.0,-7.0,-1.0,-1.0,-1.0,-2.0
1701961749.0521984,-3.0,31.0,18.0,0.0,5.0,6.0,3.0,2.0
1701961749.0722644,7.0,-4.0,10.0,-1.0,-7.0,-1.0,-2.0,1.0
1701961749.0722644,-1.0,23.0,38.0,-1.0,8.0,5.0,3.0,1.0
1701961749.0821965,-3.0,13.0,-7.0,-2.0,5.0,3.0,-2.0,-1.0
1701961749.0821965,1.0,-7.0,11.0,29.0,0.0,-6.0,-4.0,-7.0
1701961749.0821965,5.0,-14.0,-61.0,-17.0,-9.0,-6.0,-3.0,1.0
1701961749.0821965,-3.0,-18.0,-27.0,5.0,1.0,0.0,3.0,0.0
1701961749.0925777,-12.0,3.0,20.0,-12.0,-4.0,-1.0,0.0,-2.0
1701961749.0925777,-6.0,1.0,20.0,-6.0,0.0,-1.0,1.0,-1.0
1701961749.1025803,-12.0,-24.0,-24.0,-20.0,-16.0,-11.0,-11.0,-8.0
1701961749.1025803,1.0,0.0,20.0,18.0,6.0,5.0,3.0,2.0
1701961749.112198,15.0,4.0,-14.0,-11.0,-7.0,-5.0,-5.0,1.0
1701961749.112198,9.0,-22.0,-12.0,-4.0,-4.0,-1.0,2.0,4.0
1701961749.1322563,3.0,19.0,22.0,12.0,4.0,2.0,1.0,-1.0
1701961749.1322563,-4.0,7.0,-5.0,-13.0,-14.0,-7.0,-3.0,-4.0
1701961749.1421967,-2.0,-8.0,-7.0,-20.0,7.0,3.0,6.0,0.0
1701961749.1421967,2.0,36.0,6.0,20.0,4.0,0.0,-5.0,4.0
1701961749.1421967,-7.0,-9.0,24.0,13.0,1.0,3.0,2.0,-2.0
1701961749.1421967,7.0,16.0,-13.0,-16.0,-8.0,-5.0,-7.0,-5.0
1701961749.152458,11.0,34.0,26.0,16.0,1.0,1.0,0.0,5.0
1701961749.152458,-3.0,-43.0,-36.0,-37.0,-8.0,-5.0,-3.0,-4.0
1701961749.162479,9.0,1.0,6.0,14.0,11.0,6.0,3.0,3.0
1701961749.162479,-14.0,-11.0,52.0,16.0,5.0,4.0,0.0,0.0
1701961749.1722026,-6.0,7.0,-21.0,2.0,-4.0,-6.0,-3.0,-4.0
1701961749.1722026,-14.0,12.0,-14.0,-8.0,-1.0,2.0,3.0,-3.0
1701961749.1922576,1.0,-6.0,32.0,5.0,-2.0,-2.0,-2.0,0.0
1701961749.1922576,-5.0,-3.0,-32.0,-3.0,-1.0,-4.0,0.0,-3.0
1701961749.2122035,14.0,48.0,28.0,-1.0,1.0,3.0,-3.0,-3.0
1701961749.2122035,-5.0,-35.0,-18.0,0.0,3.0,1.0,3.0,4.0
1701961749.2122035,-6.0,13.0,16.0,2.0,3.0,3.0,1.0,1.0
1701961749.2122035,14.0,38.0,3.0,0.0,-1.0,-2.0,0.0,2.0
1701961749.2122035,-9.0,-33.0,-51.0,-10.0,1.0,1.0,-1.0,-2.0
1701961749.2122035,11.0,4.0,21.0,1.0,-3.0,-2.0,-2.0,-2.0
1701961749.2221966,-3.0,-1.0,9.0,-13.0,-6.0,-8.0,-3.0,-3.0
1701961749.2221966,-2.0,-11.0,-21.0,13.0,6.0,1.0,0.0,0.0
1701961749.2322018,-19.0,-1.0,31.0,12.0,-1.0,1.0,1.0,-1.0
1701961749.2322018,-8.0,-7.0,-19.0,-3.0,2.0,1.0,-1.0,-2.0
1701961749.2551742,4.0,-11.0,6.0,-14.0,-2.0,-1.0,0.0,-1.0
1701961749.2551742,-7.0,1.0,15.0,-4.0,-2.0,0.0,-2.0,-2.0
1701961749.2551742,-5.0,-12.0,-15.0,15.0,2.0,-1.0,1.0,-3.0
1701961749.2551742,3.0,2.0,-36.0,-18.0,-4.0,-3.0,-1.0,-2.0
1701961749.2667341,-6.0,-18.0,3.0,10.0,3.0,3.0,-1.0,-5.0
1701961749.2667341,-5.0,-19.0,-5.0,-21.0,-14.0,-11.0,-9.0,-9.0
1701961749.2744725,4.0,-29.0,15.0,-8.0,2.0,-2.0,-2.0,-2.0
1701961749.2744725,4.0,12.0,2.0,4.0,-2.0,-3.0,-3.0,-1.0
1701961749.2847934,-8.0,22.0,-10.0,2.0,3.0,1.0,5.0,5.0
1701961749.2847934,5.0,10.0,20.0,9.0,3.0,5.0,2.0,1.0
1701961749.2847934,-2.0,-18.0,-12.0,-9.0,-4.0,1.0,0.0,-1.0
1701961749.2847934,-9.0,-6.0,-3.0,0.0,-1.0,-13.0,-7.0,-3.0
1701961749.3144748,11.0,-12.0,2.0,-1.0,-5.0,2.0,0.0,1.0
1701961749.3144748,-18.0,-19.0,-27.0,3.0,1.0,4.0,0.0,-5.0
1701961749.3144748,1.0,36.0,27.0,4.0,-5.0,0.0,3.0,4.0
1701961749.3144748,4.0,-6.0,-19.0,-6.0,-2.0,3.0,1.0,-1.0
1701961749.3247983,2.0,-10.0,12.0,5.0,-2.0,-16.0,-7.0,-2.0
1701961749.3247983,8.0,15.0,-16.0,-2.0,4.0,8.0,4.0,5.0
1701961749.334803,1.0,5.0,18.0,8.0,4.0,6.0,4.0,2.0
1701961749.334803,3.0,-17.0,-8.0,-11.0,-7.0,2.0,-5.0,-5.0
1701961749.3449166,-2.0,11.0,5.0,-10.0,-2.0,-3.0,-1.0,-1.0
1701961749.3449166,-7.0,-9.0,-3.0,5.0,4.0,-4.0,0.0,-1.0
1701961749.3449166,-5.0,-4.0,8.0,1.0,-3.0,-8.0,-3.0,-1.0
1701961749.3449166,-3.0,12.0,16.0,11.0,2.0,-1.0,2.0,-2.0
1701961749.364931,3.0,-14.0,-20.0,-19.0,-5.0,1.0,-1.0,1.0
1701961749.364931,6.0,-19.0,-46.0,-22.0,-8.0,-3.0,-4.0,0.0
1701961749.374931,-8.0,30.0,8.0,3.0,-2.0,2.0,1.0,3.0
1701961749.374931,-7.0,-7.0,0.0,11.0,6.0,6.0,2.0,0.0
1701961749.3852968,-4.0,5.0,2.0,6.0,0.0,0.0,-3.0,1.0
1701961749.3852968,1.0,0.0,16.0,6.0,6.0,19.0,6.0,2.0
1701961749.394987,18.0,-23.0,-9.0,-6.0,-7.0,-16.0,-3.0,-2.0
1701961749.394987,-2.0,-2.0,-14.0,-6.0,-1.0,15.0,0.0,1.0
1701961749.4049308,4.0,-10.0,-4.0,11.0,3.0,-11.0,2.0,0.0
1701961749.4049308,5.0,0.0,22.0,1.0,2.0,-4.0,1.0,5.0
1701961749.4049308,0.0,-19.0,-58.0,-13.0,-5.0,-9.0,-5.0,-3.0
1701961749.4049308,-5.0,5.0,16.0,-9.0,-3.0,-10.0,11.0,1.0
1701961749.4253318,2.0,6.0,10.0,4.0,2.0,34.0,-10.0,-3.0
1701961749.4253318,8.0,-19.0,4.0,0.0,1.0,1.0,10.0,7.0
1701961749.43493,3.0,14.0,17.0,2.0,1.0,9.0,-1.0,0.0
1701961749.43493,-9.0,12.0,-9.0,3.0,0.0,-6.0,2.0,-1.0
1701961749.445345,-3.0,-39.0,18.0,1.0,-5.0,-17.0,-5.0,-9.0
1701961749.445345,6.0,3.0,1.0,-9.0,-6.0,-8.0,-8.0,-3.0
1701961749.4549918,-4.0,30.0,20.0,5.0,0.0,-1.0,0.0,3.0
1701961749.4549918,-11.0,-52.0,-50.0,-16.0,-7.0,-9.0,-9.0,-6.0
1701961749.4749324,4.0,13.0,3.0,0.0,0.0,8.0,3.0,0.0
1701961749.4749324,-6.0,1.0,7.0,-2.0,-3.0,-17.0,-17.0,-8.0
1701961749.4749324,-13.0,5.0,30.0,8.0,2.0,-13.0,4.0,1.0
1701961749.4749324,16.0,-4.0,7.0,5.0,2.0,34.0,12.0,2.0
1701961749.4851518,-1.0,20.0,7.0,1.0,-5.0,23.0,-1.0,1.0
1701961749.4851518,-15.0,-19.0,-22.0,-11.0,-8.0,-21.0,-6.0,-3.0
1701961749.4949346,-5.0,-18.0,-53.0,-9.0,-2.0,-10.0,-9.0,-3.0
1701961749.4949346,-11.0,23.0,29.0,11.0,6.0,-5.0,1.0,-3.0
1701961749.515238,-15.0,18.0,2.0,5.0,0.0,-10.0,-3.0,-1.0
1701961749.515238,-7.0,-16.0,-24.0,-4.0,-3.0,-10.0,-5.0,-4.0
1701961749.515238,6.0,-21.0,-5.0,-8.0,-5.0,18.0,-2.0,-6.0
1701961749.515238,13.0,17.0,35.0,7.0,0.0,-14.0,-9.0,2.0
1701961749.5549276,-2.0,0.0,-31.0,-9.0,-2.0,-14.0,3.0,1.0
1701961749.5549276,-6.0,-1.0,-4.0,3.0,-3.0,9.0,1.0,-3.0
1701961749.5549276,-4.0,-4.0,5.0,2.0,1.0,-8.0,1.0,-1.0
1701961749.5549276,4.0,-14.0,1.0,0.0,-4.0,9.0,-4.0,-1.0
1701961749.5549276,-1.0,11.0,-25.0,-9.0,-2.0,-19.0,0.0,2.0
1701961749.5549276,-7.0,13.0,29.0,14.0,5.0,6.0,1.0,-4.0
1701961749.5549276,-2.0,6.0,-14.0,-5.0,1.0,11.0,5.0,2.0
1701961749.5549276,-1.0,0.0,16.0,4.0,1.0,-14.0,-9.0,-5.0
1701961749.5753372,4.0,-18.0,5.0,1.0,-3.0,7.0,-5.0,0.0
1701961749.5753372,-4.0,2.0,-42.0,-11.0,0.0,8.0,2.0,-3.0
1701961749.5753372,-10.0,-6.0,34.0,11.0,4.0,17.0,6.0,-6.0
1701961749.5753372,4.0,-4.0,-8.0,-1.0,-2.0,-17.0,-5.0,-3.0
1701961749.5949621,7.0,-9.0,2.0,-8.0,-2.0,-22.0,-3.0,2.0
1701961749.5949621,7.0,20.0,41.0,15.0,3.0,-7.0,2.0,6.0
1701961749.5949621,-6.0,-12.0,-34.0,-5.0,2.0,-6.0,-9.0,-5.0
1701961749.5949621,7.0,-3.0,-3.0,-13.0,-8.0,-18.0,-2.0,1.0
1701961749.6053238,4.0,-2.0,-19.0,4.0,3.0,31.0,12.0,-1.0
1701961749.6149294,1.0,8.0,22.0,-3.0,-3.0,1.0,1.0,-2.0
1701961749.6149294,2.0,-12.0,7.0,6.0,1.0,-14.0,-6.0,4.0
1701961749.6149294,-3.0,6.0,-20.0,-2.0,3.0,13.0,3.0,0.0
1701961749.6352675,-1.0,9.0,9.0,-15.0,-9.0,-15.0,-7.0,-6.0
1701961749.6352675,-1.0,-27.0,-9.0,-3.0,-3.0,-16.0,-1.0,0.0
1701961749.6352675,7.0,-6.0,3.0,2.0,-1.0,-12.0,-2.0,-1.0
1701961749.6352675,-5.0,-2.0,-22.0,2.0,1.0,35.0,9.0,1.0
1701961749.6449325,-1.0,3.0,49.0,11.0,1.0,-2.0,-5.0,0.0
1701961749.6449325,-4.0,4.0,-38.0,-7.0,1.0,-9.0,3.0,3.0
1701961749.6549292,0.0,7.0,21.0,-3.0,-4.0,-4.0,-2.0,-3.0
1701961749.6549292,-2.0,-4.0,15.0,8.0,0.0,-5.0,3.0,9.0
1701961749.6652045,-8.0,-8.0,-34.0,-6.0,-2.0,2.0,-4.0,-6.0
1701961749.6652045,-10.0,-4.0,7.0,-5.0,1.0,-9.0,-11.0,-8.0
1701961749.6749344,-1.0,-9.0,-16.0,-11.0,2.0,32.0,13.0,5.0
1701961749.6749344,-16.0,10.0,14.0,8.0,4.0,-2.0,-1.0,-3.0
1701961749.7149277,3.0,4.0,-9.0,2.0,4.0,-4.0,10.0,3.0
1701961749.7149277,1.0,8.0,-12.0,-6.0,-3.0,-3.0,-21.0,-2.0
1701961749.7149277,-3.0,18.0,35.0,6.0,0.0,30.0,6.0,-4.0
1701961749.7149277,5.0,-9.0,-10.0,-5.0,-5.0,-25.0,-1.0,2.0
1701961749.7149277,-6.0,-3.0,22.0,2.0,4.0,3.0,-1.0,0.0
1701961749.7149277,9.0,9.0,6.0,3.0,-3.0,16.0,10.0,2.0
1701961749.7149277,1.0,-17.0,-20.0,-7.0,-5.0,-36.0,-5.0,-1.0
1701961749.7149277,-8.0,7.0,21.0,-4.0,-5.0,-3.0,-17.0,-4.0
1701961749.72532,0.0,10.0,-4.0,14.0,12.0,31.0,13.0,3.0
1701961749.72532,0.0,-2.0,-10.0,-8.0,-2.0,11.0,8.0,-4.0
1701961749.7349308,-4.0,-22.0,-46.0,-9.0,-3.0,0.0,-8.0,-3.0
1701961749.7349308,2.0,-11.0,-40.0,-5.0,-3.0,-18.0,-7.0,-3.0
1701961749.7549303,-1.0,-3.0,12.0,-6.0,0.0,-5.0,3.0,-2.0
1701961749.7549303,4.0,-1.0,13.0,2.0,-4.0,-15.0,-8.0,-2.0
1701961749.7549303,6.0,8.0,8.0,9.0,1.0,-7.0,-5.0,0.0
1701961749.7549303,2.0,-8.0,5.0,-2.0,-4.0,11.0,-2.0,0.0
1701961749.7699182,-14.0,-9.0,-12.0,-6.0,0.0,24.0,-1.0,-4.0
1701961749.770986,-14.0,10.0,0.0,4.0,-3.0,-5.0,7.0,0.0
1701961749.7775114,-3.0,-5.0,-17.0,-7.0,-8.0,-23.0,-5.0,-7.0
1701961749.7775114,3.0,3.0,20.0,7.0,7.0,2.0,-5.0,11.0
1701961749.7909203,8.0,-10.0,-2.0,-8.0,-8.0,-23.0,-14.0,-6.0
1701961749.7909203,-2.0,20.0,9.0,4.0,2.0,15.0,-2.0,-4.0
1701961749.7909203,3.0,-13.0,-1.0,6.0,2.0,4.0,-1.0,7.0
1701961749.7909203,-3.0,16.0,-7.0,-16.0,-4.0,-9.0,2.0,-6.0
1701961749.8113039,-3.0,0.0,-1.0,-1.0,-6.0,12.0,-1.0,-1.0
1701961749.8113039,7.0,-11.0,-15.0,3.0,8.0,9.0,8.0,3.0
1701961749.8113039,-1.0,35.0,16.0,2.0,-1.0,12.0,4.0,0.0
1701961749.8113039,-4.0,3.0,-1.0,2.0,1.0,-6.0,3.0,-1.0
1701961749.8213532,2.0,-1.0,-10.0,-3.0,-5.0,-31.0,-22.0,-4.0
1701961749.8213532,8.0,-6.0,1.0,0.0,-6.0,-15.0,-1.0,-2.0
1701961749.8313086,4.0,0.0,19.0,4.0,1.0,32.0,8.0,4.0
1701961749.8313086,0.0,5.0,14.0,-1.0,1.0,-6.0,0.0,-5.0
1701961749.8514657,-7.0,4.0,-23.0,-5.0,-5.0,-8.0,2.0,-4.0
1701961749.8514657,-4.0,10.0,40.0,15.0,3.0,13.0,0.0,5.0
1701961749.8713024,6.0,-37.0,-20.0,-19.0,-8.0,-20.0,-5.0,-3.0
1701961749.8713024,-7.0,28.0,-10.0,2.0,1.0,-4.0,-12.0,-7.0
1701961749.8812997,11.0,2.0,-11.0,1.0,0.0,-1.0,5.0,2.0
1701961749.8812997,-4.0,2.0,35.0,6.0,2.0,-3.0,6.0,3.0
1701961749.8812997,-1.0,-11.0,-38.0,0.0,3.0,0.0,-20.0,-9.0
1701961749.8812997,4.0,-4.0,-4.0,-5.0,-3.0,32.0,11.0,8.0
1701961749.8812997,1.0,-10.0,17.0,9.0,5.0,8.0,3.0,-7.0
1701961749.8812997,1.0,5.0,-11.0,-13.0,-7.0,-18.0,1.0,10.0
1701961749.891562,-3.0,9.0,3.0,-3.0,0.0,-1.0,-5.0,-8.0
1701961749.891562,-11.0,-19.0,10.0,1.0,-4.0,-22.0,-11.0,-4.0
1701961749.9115644,-3.0,-4.0,-43.0,-13.0,-7.0,-44.0,-13.0,-2.0
1701961749.9115644,1.0,-11.0,11.0,-4.0,2.0,71.0,28.0,3.0
1701961749.9213016,-5.0,1.0,-1.0,2.0,-2.0,-26.0,-9.0,-3.0
1701961749.9213016,-6.0,5.0,28.0,-1.0,-4.0,9.0,2.0,0.0
1701961749.9316661,-11.0,1.0,-5.0,2.0,1.0,-10.0,0.0,-4.0
1701961749.9316661,9.0,-13.0,-52.0,-8.0,-3.0,-14.0,-4.0,-7.0
1701961749.9316661,-3.0,28.0,0.0,-4.0,1.0,-13.0,12.0,3.0
1701961749.9316661,-3.0,-4.0,3.0,3.0,2.0,28.0,-5.0,-2.0
1701961749.941678,-12.0,9.0,22.0,6.0,5.0,11.0,5.0,5.0
1701961749.941678,8.0,-15.0,-23.0,-15.0,-7.0,-36.0,-8.0,0.0
1701961749.9515555,-12.0,6.0,36.0,9.0,5.0,21.0,4.0,0.0
1701961749.9515555,0.0,-17.0,-18.0,-2.0,-6.0,-17.0,-6.0,-10.0
1701961749.97156,7.0,-2.0,1.0,-5.0,-1.0,-6.0,5.0,3.0
1701961749.97156,-3.0,4.0,11.0,4.0,3.0,13.0,-7.0,-7.0
1701961749.9813018,-9.0,-3.0,8.0,3.0,-1.0,8.0,12.0,-3.0
1701961749.9813018,-12.0,4.0,-25.0,-10.0,-7.0,-23.0,-17.0,-8.0
1701961749.9915617,7.0,4.0,-4.0,1.0,1.0,6.0,1.0,5.0
1701961749.9915617,-3.0,3.0,12.0,4.0,-3.0,-42.0,-15.0,-5.0
1701961749.9915617,-1.0,0.0,-20.0,-3.0,4.0,64.0,31.0,-2.0
1701961749.9915617,2.0,-7.0,2.0,-3.0,-1.0,-1.0,-2.0,19.0
1701961750.0015514,-2.0,10.0,1.0,8.0,-1.0,-21.0,-14.0,-13.0
1701961750.0015514,21.0,-18.0,-10.0,-6.0,-5.0,0.0,-4.0,2.0
1701961750.0115178,3.0,7.0,15.0,0.0,-3.0,-27.0,-2.0,-2.0
1701961750.0115178,6.0,-6.0,8.0,4.0,2.0,28.0,11.0,-4.0
1701961750.0314739,4.0,-11.0,-42.0,-10.0,-5.0,-2.0,-1.0,1.0
1701961750.0314739,-10.0,-15.0,-14.0,-14.0,-5.0,-4.0,-6.0,-6.0
1701961750.0513065,1.0,2.0,18.0,7.0,2.0,-16.0,-13.0,5.0
1701961750.0513065,6.0,0.0,7.0,1.0,-2.0,1.0,11.0,-5.0
1701961750.0513065,-15.0,-11.0,-18.0,-7.0,0.0,25.0,8.0,1.0
1701961750.0513065,-9.0,5.0,6.0,3.0,-1.0,-3.0,-5.0,-10.0
1701961750.0513065,7.0,-12.0,-4.0,-4.0,-3.0,-9.0,-10.0,2.0
1701961750.0513065,3.0,7.0,12.0,9.0,2.0,-33.0,-11.0,2.0
1701961750.0613363,7.0,-5.0,0.0,-5.0,-5.0,12.0,9.0,-3.0
1701961750.0613363,-11.0,11.0,6.0,7.0,4.0,19.0,1.0,1.0
1701961750.071636,1.0,-4.0,-12.0,-10.0,-7.0,-11.0,-3.0,-1.0
1701961750.071636,1.0,-11.0,10.0,4.0,5.0,1.0,4.0,-5.0
1701961750.0913038,-8.0,-14.0,-20.0,-7.0,-5.0,-11.0,-10.0,0.0
1701961750.0913038,-7.0,6.0,32.0,1.0,-2.0,-2.0,-3.0,-1.0
1701961750.0913038,0.0,-1.0,-6.0,0.0,-7.0,-67.0,-24.0,-1.0
1701961750.0913038,4.0,-3.0,-33.0,-8.0,8.0,83.0,19.0,-2.0
1701961750.1115406,8.0,9.0,34.0,8.0,2.0,-29.0,-7.0,0.0
1701961750.1115406,-2.0,0.0,-16.0,0.0,-3.0,21.0,18.0,8.0
1701961750.1115406,-6.0,-3.0,41.0,0.0,0.0,-1.0,-14.0,-12.0
1701961750.1115406,-7.0,-12.0,-36.0,-11.0,-6.0,-24.0,-4.0,-4.0
1701961750.1215603,-6.0,2.0,15.0,5.0,3.0,-11.0,-10.0,0.0
1701961750.1215603,10.0,0.0,1.0,8.0,8.0,31.0,4.0,2.0
1701961750.1413102,-7.0,-3.0,-6.0,-1.0,-3.0,-10.0,1.0,8.0
1701961750.1413102,-4.0,-2.0,10.0,1.0,-2.0,-2.0,-1.0,-2.0
1701961750.1513026,-2.0,2.0,-32.0,-11.0,-3.0,24.0,7.0,-3.0
1701961750.1513026,-24.0,-2.0,40.0,3.0,-4.0,-32.0,-7.0,-11.0
1701961750.1513026,1.0,1.0,-28.0,-4.0,-1.0,4.0,0.0,-1.0
1701961750.1513026,1.0,0.0,14.0,2.0,4.0,14.0,-5.0,0.0
1701961750.171586,-3.0,10.0,19.0,7.0,-2.0,-4.0,4.0,2.0
1701961750.171586,-1.0,-4.0,-12.0,-5.0,-4.0,2.0,1.0,-2.0
1701961750.171586,-14.0,-8.0,-23.0,-4.0,-1.0,4.0,0.0,1.0
1701961750.171586,-10.0,4.0,8.0,2.0,-2.0,-21.0,-8.0,-4.0
1701961750.1815543,7.0,-2.0,-5.0,-4.0,-3.0,-15.0,0.0,2.0
1701961750.1815543,2.0,-4.0,-19.0,-7.0,-1.0,27.0,-1.0,0.0
1701961750.2013133,15.0,9.0,21.0,5.0,2.0,1.0,-7.0,2.0
1701961750.2113066,-2.0,0.0,-17.0,-3.0,-3.0,-5.0,10.0,0.0
1701961750.2213044,-11.0,2.0,26.0,0.0,1.0,-8.0,-4.0,-2.0
1701961750.2213044,2.0,-4.0,-14.0,0.0,-1.0,-21.0,-10.0,1.0
1701961750.2213044,-2.0,6.0,41.0,7.0,-3.0,-18.0,-1.0,-3.0
1701961750.2213044,5.0,2.0,-30.0,-13.0,4.0,40.0,17.0,3.0
1701961750.2316713,4.0,-16.0,-40.0,-11.0,-3.0,-4.0,-5.0,-3.0
1701961750.2316713,1.0,2.0,16.0,3.0,-4.0,-20.0,-18.0,-2.0
1701961750.2316713,2.0,0.0,-7.0,-1.0,2.0,37.0,20.0,2.0
1701961750.2316713,2.0,-8.0,26.0,8.0,-2.0,-25.0,-10.0,3.0
1701961750.2513013,-14.0,31.0,46.0,16.0,4.0,19.0,9.0,-3.0
1701961750.2513013,10.0,-9.0,-59.0,-24.0,-7.0,-9.0,-2.0,-1.0
1701961750.2513013,4.0,-14.0,0.0,9.0,-2.0,-13.0,-10.0,-3.0
1701961750.2513013,1.0,2.0,-11.0,-3.0,-3.0,-8.0,-5.0,-3.0
1701961750.2716312,-2.0,-21.0,0.0,-8.0,-5.0,13.0,1.0,-2.0
1701961750.2716312,3.0,12.0,8.0,3.0,4.0,-11.0,-2.0,-2.0
1701961750.2716312,-7.0,-22.0,-26.0,-18.0,-5.0,11.0,0.0,-6.0
1701961750.2716312,-5.0,3.0,-21.0,-3.0,-7.0,-5.0,1.0,-2.0
1701961750.2916412,2.0,-4.0,14.0,21.0,8.0,5.0,-1.0,4.0
1701961750.2916412,-2.0,4.0,-12.0,-5.0,-5.0,-2.0,-1.0,0.0
1701961750.2916412,6.0,-4.0,-25.0,-16.0,-6.0,14.0,8.0,1.0
1701961750.2916412,-4.0,-5.0,-2.0,-4.0,-2.0,-14.0,-6.0,-5.0
1701961750.3155928,9.0,4.0,1.0,-18.0,8.0,2.0,-2.0,1.0
1701961750.3155928,1.0,3.0,16.0,10.0,2.0,6.0,4.0,2.0
1701961750.3175955,-2.0,3.0,8.0,3.0,1.0,6.0,1.0,0.0
1701961750.3175955,4.0,0.0,-7.0,-16.0,-8.0,-16.0,-5.0,0.0
1701961750.3339021,-19.0,-16.0,2.0,-12.0,-9.0,1.0,-2.0,-3.0
1701961750.3339021,-6.0,8.0,29.0,51.0,22.0,5.0,1.0,-4.0
1701961750.3339021,6.0,1.0,-5.0,-21.0,-8.0,-6.0,-1.0,0.0
1701961750.3339021,-6.0,6.0,16.0,24.0,11.0,0.0,-1.0,0.0
1701961750.3539011,-8.0,-25.0,-37.0,-17.0,-8.0,4.0,3.0,0.0
1701961750.3539011,-3.0,-5.0,28.0,-4.0,-6.0,-2.0,-7.0,-1.0
1701961750.3539011,-21.0,-20.0,-81.0,-13.0,-8.0,-11.0,-11.0,-8.0
1701961750.3539011,8.0,-15.0,-1.0,-6.0,-2.0,1.0,5.0,6.0
1701961750.383894,6.0,28.0,44.0,32.0,5.0,4.0,-8.0,-16.0
1701961750.383894,-6.0,20.0,-20.0,-21.0,-2.0,-1.0,5.0,0.0
1701961750.383894,-2.0,8.0,40.0,21.0,8.0,4.0,-5.0,-4.0
1701961750.383894,9.0,-6.0,3.0,-4.0,-2.0,1.0,5.0,25.0
1701961750.383894,15.0,2.0,-24.0,-9.0,-5.0,-4.0,-2.0,-1.0
1701961750.383894,1.0,1.0,-1.0,-1.0,-1.0,1.0,8.0,26.0
1701961750.3938992,-17.0,-14.0,-4.0,1.0,1.0,-6.0,-2.0,-26.0
1701961750.3938992,-4.0,10.0,2.0,4.0,3.0,15.0,-9.0,-18.0
1701961750.4238973,-6.0,9.0,20.0,9.0,-2.0,1.0,11.0,28.0
1701961750.4238973,17.0,1.0,-10.0,-9.0,-2.0,-16.0,-17.0,-11.0
1701961750.4238973,4.0,10.0,18.0,2.0,3.0,5.0,10.0,12.0
1701961750.4238973,-32.0,-7.0,12.0,7.0,1.0,-14.0,3.0,-5.0
1701961750.4238973,-10.0,-23.0,-17.0,-14.0,-6.0,13.0,-6.0,-5.0
1701961750.4238973,-5.0,-10.0,22.0,-1.0,-2.0,10.0,6.0,-7.0
1701961750.4339297,5.0,10.0,3.0,3.0,4.0,0.0,2.0,2.0
1701961750.4339297,2.0,6.0,16.0,4.0,0.0,-12.0,1.0,0.0
1701961750.4442906,3.0,0.0,5.0,2.0,1.0,2.0,-5.0,-6.0
1701961750.4442906,-5.0,-10.0,-21.0,-9.0,-7.0,-18.0,-4.0,-5.0
1701961750.4539125,15.0,13.0,24.0,10.0,1.0,7.0,-2.0,0.0
1701961750.4539125,-2.0,-4.0,-15.0,-9.0,-4.0,6.0,5.0,2.0
1701961750.4738953,0.0,1.0,-5.0,-2.0,-2.0,-10.0,-1.0,1.0
1701961750.4738953,-4.0,-7.0,1.0,-1.0,-4.0,4.0,-3.0,-7.0
1701961750.4738953,7.0,-11.0,-5.0,1.0,0.0,0.0,5.0,4.0
1701961750.4738953,23.0,-20.0,-16.0,-26.0,-10.0,-3.0,-13.0,-2.0
1701961750.4943159,8.0,36.0,-2.0,-7.0,-13.0,-10.0,-3.0,-7.0
1701961750.4943159,-14.0,-15.0,1.0,25.0,15.0,5.0,14.0,1.0
1701961750.4943159,-5.0,-12.0,-1.0,-7.0,8.0,4.0,-13.0,0.0
1701961750.4943159,-8.0,0.0,-4.0,20.0,0.0,-11.0,0.0,-4.0
1701961750.5042725,17.0,-31.0,3.0,-18.0,-6.0,-1.0,-2.0,-2.0
1701961750.5042725,15.0,18.0,-45.0,2.0,-8.0,5.0,-1.0,-2.0
1701961750.5142195,-5.0,8.0,15.0,0.0,2.0,-4.0,-1.0,3.0
1701961750.5142195,3.0,1.0,-15.0,-33.0,-13.0,-3.0,-4.0,-2.0
1701961750.5338957,5.0,-8.0,13.0,29.0,11.0,-4.0,-3.0,-2.0
1701961750.5338957,-5.0,4.0,3.0,-11.0,-1.0,5.0,-2.0,-4.0
1701961750.5338957,-3.0,11.0,16.0,13.0,0.0,-1.0,1.0,-1.0
1701961750.5338957,-2.0,5.0,33.0,11.0,0.0,-4.0,-4.0,-4.0
1701961750.5543184,-2.0,5.0,-34.0,-1.0,1.0,3.0,3.0,-1.0
1701961750.5543184,-5.0,-7.0,13.0,-15.0,-8.0,-6.0,-2.0,0.0
1701961750.5543184,7.0,16.0,20.0,2.0,-1.0,3.0,1.0,4.0
1701961750.5543184,-5.0,-26.0,-44.0,1.0,3.0,5.0,8.0,3.0
1701961750.5642703,2.0,10.0,56.0,-11.0,-6.0,-2.0,-4.0,-3.0
1701961750.5642703,-3.0,-12.0,-70.0,22.0,12.0,4.0,2.0,0.0
1701961750.5738978,12.0,11.0,-4.0,-5.0,-8.0,-9.0,-6.0,-3.0
1701961750.5738978,-3.0,-2.0,31.0,-12.0,-6.0,-5.0,-2.0,0.0
1701961750.594232,-6.0,-10.0,20.0,34.0,6.0,-2.0,-2.0,-4.0
1701961750.594232,-1.0,-13.0,-28.0,-26.0,-5.0,1.0,-1.0,1.0
1701961750.594232,-4.0,-8.0,-5.0,-14.0,-9.0,-3.0,-6.0,-5.0
1701961750.594232,0.0,18.0,24.0,18.0,8.0,3.0,-1.0,-6.0
1701961750.6143188,-11.0,-1.0,1.0,-6.0,-1.0,-1.0,2.0,1.0
1701961750.6143188,3.0,-3.0,22.0,-8.0,-7.0,-3.0,-2.0,-5.0
1701961750.6143188,-7.0,-5.0,-11.0,7.0,2.0,2.0,1.0,6.0
1701961750.6143188,7.0,7.0,1.0,-2.0,-1.0,0.0,0.0,0.0
1701961750.6242568,6.0,-16.0,-24.0,-6.0,0.0,-3.0,-2.0,-1.0
1701961750.6242568,2.0,6.0,16.0,-2.0,0.0,3.0,6.0,4.0
1701961750.6342185,-14.0,9.0,3.0,3.0,3.0,-3.0,-1.0,-1.0
1701961750.6342185,-15.0,1.0,18.0,4.0,1.0,-9.0,-3.0,-5.0
1701961750.6538994,0.0,6.0,-23.0,-5.0,-4.0,9.0,0.0,0.0
1701961750.6538994,-3.0,-1.0,12.0,-5.0,-1.0,-5.0,2.0,1.0
1701961750.6538994,3.0,-1.0,13.0,1.0,3.0,20.0,1.0,4.0
1701961750.6538994,8.0,-8.0,-11.0,-1.0,-4.0,-7.0,-9.0,-9.0
1701961750.6742015,-4.0,7.0,-11.0,-5.0,1.0,-5.0,5.0,3.0
1701961750.6742015,-6.0,-35.0,-8.0,-9.0,-9.0,-13.0,-8.0,-10.0
1701961750.6742015,0.0,2.0,-19.0,4.0,-2.0,0.0,3.0,0.0
1701961750.6742015,0.0,7.0,-12.0,-1.0,-4.0,-56.0,-17.0,0.0
1701961750.6841455,-7.0,-4.0,8.0,-10.0,4.0,72.0,19.0,-7.0
1701961750.6841455,-8.0,-7.0,6.0,-2.0,0.0,-10.0,-6.0,3.0
1701961750.7138977,-4.0,-13.0,-13.0,3.0,0.0,-2.0,4.0,-4.0
1701961750.7138977,-8.0,17.0,14.0,-1.0,-1.0,-1.0,-2.0,2.0
1701961750.7138977,-1.0,-3.0,-19.0,-6.0,-4.0,-31.0,-12.0,-6.0
1701961750.7138977,-2.0,0.0,7.0,4.0,-1.0,5.0,-4.0,-2.0
1701961750.7138977,-11.0,-1.0,-6.0,-9.0,-8.0,-5.0,-7.0,-7.0
1701961750.7138977,9.0,9.0,21.0,10.0,3.0,12.0,14.0,7.0
1701961750.7339098,-1.0,-2.0,12.0,-8.0,-4.0,-10.0,-3.0,4.0
1701961750.7339098,-4.0,8.0,-13.0,-7.0,-5.0,7.0,1.0,-3.0
1701961750.7339098,13.0,-1.0,-29.0,-12.0,0.0,-12.0,-1.0,4.0
1701961750.7339098,-6.0,4.0,13.0,0.0,-3.0,3.0,-2.0,-5.0
1701961750.7539098,-7.0,4.0,7.0,0.0,-5.0,5.0,5.0,-1.0
1701961750.7539098,16.0,1.0,7.0,10.0,7.0,-7.0,-11.0,-2.0
1701961750.7539098,6.0,13.0,23.0,1.0,-3.0,1.0,3.0,2.0
1701961750.7539098,-1.0,1.0,-12.0,-6.0,-1.0,17.0,-2.0,-2.0
1701961750.7741544,10.0,13.0,22.0,4.0,1.0,-36.0,-10.0,1.0
1701961750.7741544,-2.0,1.0,15.0,1.0,-2.0,11.0,4.0,-4.0
1701961750.7741544,3.0,-9.0,-4.0,4.0,1.0,35.0,22.0,5.0
1701961750.7741544,-4.0,-15.0,-48.0,-7.0,0.0,-1.0,-2.0,-4.0
1701961750.7942116,0.0,1.0,-2.0,3.0,3.0,-8.0,-3.0,0.0
1701961750.7942116,-9.0,-6.0,-26.0,-10.0,-4.0,-19.0,-10.0,-4.0
1701961750.7942116,-9.0,-7.0,3.0,0.0,-2.0,-9.0,-5.0,-3.0
1701961750.7942116,-12.0,-10.0,1.0,-7.0,-8.0,11.0,2.0,-8.0
1701961750.8041477,0.0,-7.0,-26.0,6.0,4.0,-3.0,1.0,1.0
1701961750.8041477,-4.0,4.0,24.0,5.0,4.0,3.0,1.0,1.0
1701961750.8139007,-2.0,1.0,-2.0,-2.0,2.0,-1.0,-1.0,1.0
1701961750.8139007,1.0,-8.0,-2.0,10.0,-3.0,3.0,1.0,0.0
1701961750.835537,-2.0,19.0,-32.0,-16.0,0.0,-5.0,-6.0,-2.0
1701961750.835537,3.0,15.0,9.0,3.0,0.0,5.0,3.0,4.0
1701961750.8365366,5.0,-12.0,8.0,3.0,-1.0,-6.0,-7.0,-5.0
1701961750.8365366,-3.0,-25.0,-2.0,1.0,-1.0,-3.0,-3.0,-4.0
1701961750.8567555,-3.0,12.0,4.0,-5.0,-9.0,-4.0,-1.0,1.0
1701961750.8567555,-4.0,-4.0,-9.0,-6.0,1.0,4.0,2.0,-2.0
1701961750.8567555,-3.0,8.0,31.0,5.0,1.0,-4.0,-4.0,-4.0
1701961750.8567555,4.0,0.0,-12.0,-3.0,0.0,-2.0,-2.0,0.0
1701961750.866982,-1.0,-11.0,16.0,10.0,-1.0,1.0,0.0,2.0
1701961750.866982,0.0,-2.0,-10.0,-11.0,-6.0,-5.0,-3.0,-1.0
1701961750.8767576,-8.0,-5.0,1.0,6.0,0.0,-6.0,-3.0,-2.0
1701961750.8767576,-1.0,2.0,-5.0,-8.0,3.0,8.0,1.0,0.0
1701961750.8867562,-4.0,-6.0,18.0,2.0,-6.0,-8.0,-3.0,-6.0
1701961750.8867562,3.0,8.0,-27.0,1.0,1.0,3.0,4.0,1.0
1701961750.8967583,6.0,-36.0,-31.0,-11.0,-3.0,5.0,-1.0,-3.0
1701961750.8967583,2.0,50.0,3.0,-2.0,2.0,1.0,-10.0,2.0
1701961750.916759,0.0,-10.0,8.0,2.0,-1.0,2.0,2.0,1.0
1701961750.916759,-4.0,9.0,22.0,3.0,-2.0,-11.0,-6.0,-7.0
1701961750.9267566,2.0,-10.0,-18.0,-4.0,-4.0,-6.0,0.0,-2.0
1701961750.9267566,11.0,2.0,-4.0,-3.0,-3.0,-6.0,-2.0,0.0
1701961750.9267566,2.0,-16.0,-40.0,-18.0,-7.0,-6.0,-3.0,2.0
1701961750.9267566,4.0,11.0,37.0,0.0,-6.0,4.0,1.0,1.0
1701961750.9370687,-12.0,6.0,2.0,11.0,14.0,-1.0,0.0,0.0
1701961750.9370687,-3.0,-10.0,-1.0,0.0,3.0,1.0,-1.0,-3.0
1701961750.9470983,-13.0,0.0,-8.0,17.0,1.0,6.0,0.0,-3.0
1701961750.9470983,-2.0,-18.0,-18.0,-14.0,0.0,2.0,2.0,-1.0
1701961750.9567618,-1.0,21.0,19.0,-4.0,-9.0,-8.0,-4.0,0.0
1701961750.9567618,3.0,0.0,-12.0,0.0,2.0,4.0,4.0,2.0
1701961750.97676,17.0,-2.0,4.0,-1.0,1.0,-2.0,0.0,0.0
1701961750.97676,-5.0,-24.0,-26.0,0.0,-4.0,4.0,3.0,1.0
1701961750.9867587,4.0,13.0,9.0,-3.0,-4.0,-7.0,-2.0,-2.0
1701961750.9867587,-7.0,-34.0,-30.0,-3.0,-4.0,-23.0,-6.0,-1.0
1701961750.9867587,-15.0,-6.0,5.0,-8.0,0.0,25.0,3.0,-3.0
1701961750.9867587,5.0,2.0,29.0,9.0,2.0,-15.0,-9.0,-3.0
1701961750.9970815,1.0,8.0,-3.0,5.0,2.0,12.0,0.0,4.0
1701961750.9970815,-8.0,-1.0,-3.0,-18.0,-13.0,-20.0,-4.0,-5.0
1701961751.0071073,-5.0,-5.0,-6.0,1.0,2.0,7.0,-5.0,-4.0
1701961751.0071073,3.0,-8.0,10.0,3.0,-1.0,1.0,-3.0,0.0
1701961751.0167632,-10.0,8.0,9.0,-6.0,-4.0,-14.0,4.0,-3.0
1701961751.0167632,3.0,2.0,5.0,11.0,3.0,2.0,7.0,3.0
1701961751.0367599,0.0,-15.0,0.0,0.0,0.0,12.0,-2.0,-10.0
1701961751.0367599,-2.0,23.0,11.0,-6.0,-4.0,15.0,1.0,-1.0
1701961751.0467575,8.0,-10.0,-40.0,1.0,2.0,3.0,1.0,3.0
1701961751.0467575,-21.0,-5.0,-1.0,-1.0,-4.0,-14.0,-5.0,-6.0
1701961751.0467575,5.0,0.0,-12.0,-22.0,-7.0,-19.0,-6.0,0.0
1701961751.0467575,-3.0,1.0,13.0,9.0,3.0,6.0,13.0,1.0
1701961751.0567973,-11.0,-13.0,5.0,-8.0,-8.0,-19.0,-28.0,-13.0
1701961751.0567973,12.0,1.0,-18.0,-8.0,-1.0,17.0,4.0,6.0
1701961751.0669973,-3.0,44.0,80.0,27.0,8.0,-6.0,3.0,4.0
1701961751.0767636,-6.0,-18.0,-99.0,-20.0,-3.0,-3.0,-1.0,-1.0
1701961751.0767636,1.0,7.0,28.0,5.0,0.0,0.0,1.0,-3.0
1701961751.0767636,13.0,18.0,13.0,2.0,4.0,9.0,3.0,0.0
1701961751.1067562,-5.0,3.0,14.0,0.0,-1.0,-3.0,-2.0,0.0
1701961751.1067562,11.0,-9.0,39.0,3.0,-5.0,-14.0,-6.0,-4.0
1701961751.1067562,9.0,-6.0,-44.0,-5.0,-3.0,3.0,0.0,-2.0
1701961751.1067562,3.0,-3.0,2.0,-8.0,-3.0,1.0,4.0,2.0
1701961751.1067562,11.0,7.0,-14.0,3.0,3.0,-18.0,0.0,1.0
1701961751.1067562,-5.0,-5.0,-29.0,-12.0,-2.0,15.0,-7.0,-1.0
1701961751.1170485,-7.0,0.0,19.0,6.0,2.0,21.0,12.0,-2.0
1701961751.1170485,-7.0,-1.0,35.0,9.0,0.0,2.0,5.0,9.0
1701961751.1271105,3.0,6.0,-16.0,-2.0,1.0,0.0,-9.0,-8.0
1701961751.1271105,-10.0,-4.0,14.0,-5.0,0.0,-11.0,0.0,3.0
1701961751.1367626,12.0,-17.0,-21.0,-6.0,-2.0,-16.0,-4.0,-3.0
1701961751.1367626,-5.0,26.0,35.0,10.0,3.0,12.0,1.0,-4.0
1701961751.1567996,-13.0,-16.0,-42.0,-19.0,-10.0,-10.0,-5.0,-4.0
1701961751.1567996,-5.0,10.0,22.0,17.0,4.0,-2.0,1.0,-5.0
1701961751.1567996,3.0,1.0,-4.0,-17.0,0.0,8.0,-4.0,9.0
1701961751.1567996,7.0,7.0,42.0,18.0,5.0,5.0,4.0,0.0
1701961751.167004,-13.0,-31.0,-39.0,-5.0,-4.0,-7.0,-4.0,-1.0
1701961751.167004,5.0,32.0,12.0,7.0,-2.0,-2.0,-3.0,-3.0
1701961751.1769729,-9.0,-10.0,-37.0,-10.0,-4.0,-9.0,1.0,-1.0
1701961751.1769729,2.0,-5.0,-13.0,1.0,2.0,1.0,-7.0,-2.0
1701961751.1867666,12.0,26.0,7.0,1.0,0.0,5.0,0.0,0.0
1701961751.1867666,-1.0,-21.0,-16.0,-10.0,-5.0,-7.0,-1.0,2.0
1701961751.1968226,-3.0,3.0,16.0,9.0,0.0,-12.0,-5.0,-1.0
1701961751.1968226,-5.0,-14.0,-23.0,-3.0,-5.0,12.0,3.0,-3.0
1701961751.2167602,4.0,-2.0,2.0,4.0,0.0,0.0,-9.0,3.0
1701961751.2167602,6.0,-16.0,23.0,-1.0,-1.0,-8.0,4.0,2.0
1701961751.2167602,-1.0,11.0,-5.0,-6.0,-6.0,1.0,1.0,2.0
1701961751.2167602,-4.0,-20.0,11.0,0.0,-1.0,16.0,4.0,-5.0
1701961751.22678,9.0,-14.0,-24.0,6.0,0.0,-10.0,1.0,4.0
1701961751.22678,-2.0,2.0,-15.0,-3.0,1.0,1.0,-2.0,-1.0
1701961751.2371073,0.0,-2.0,17.0,2.0,-1.0,-9.0,-2.0,-3.0
1701961751.2371073,-2.0,-11.0,-21.0,-8.0,-4.0,5.0,3.0,0.0
1701961751.247103,2.0,-1.0,12.0,8.0,1.0,6.0,4.0,2.0
1701961751.247103,-11.0,-5.0,-10.0,-14.0,-7.0,-5.0,-3.0,-5.0
1701961751.2567635,5.0,-6.0,-8.0,-2.0,2.0,-1.0,-2.0,0.0
1701961751.2567635,-11.0,0.0,-3.0,-3.0,-6.0,-7.0,-6.0,-3.0
1701961751.2767887,16.0,-4.0,22.0,4.0,-1.0,-3.0,1.0,1.0
1701961751.2767887,3.0,-5.0,13.0,2.0,0.0,-6.0,-5.0,0.0
1701961751.2767887,-4.0,1.0,3.0,1.0,0.0,-1.0,-3.0,-2.0
1701961751.2767887,-3.0,5.0,-9.0,4.0,2.0,-10.0,-5.0,-5.0
1701961751.2870998,-5.0,-18.0,-26.0,-14.0,-5.0,4.0,2.0,0.0
1701961751.2870998,2.0,-5.0,22.0,9.0,5.0,-4.0,5.0,4.0
1701961751.297081,1.0,5.0,-15.0,-6.0,0.0,10.0,-1.0,2.0
1701961751.297081,4.0,8.0,-28.0,2.0,2.0,3.0,-2.0,0.0
1701961751.3167567,-16.0,12.0,39.0,5.0,-3.0,-3.0,0.0,-10.0
1701961751.3167567,2.0,5.0,-4.0,-1.0,-2.0,7.0,2.0,-1.0
1701961751.3167567,-8.0,-33.0,23.0,7.0,-1.0,-7.0,-3.0,-3.0
1701961751.3167567,-15.0,-4.0,-41.0,-13.0,-1.0,-7.0,-8.0,-6.0
1701961751.3371034,-12.0,31.0,-1.0,-1.0,-1.0,2.0,7.0,6.0
1701961751.3371034,-16.0,-23.0,-3.0,-5.0,1.0,-1.0,-1.0,-4.0
1701961751.3371034,-1.0,0.0,-7.0,-3.0,-3.0,-3.0,-1.0,-6.0
1701961751.3371034,0.0,22.0,18.0,6.0,0.0,0.0,1.0,2.0
1701961751.3470812,3.0,-8.0,23.0,-2.0,2.0,2.0,-1.0,2.0
1701961751.3470812,0.0,6.0,-31.0,4.0,0.0,-2.0,-3.0,1.0
1701961751.366217,-1.0,5.0,42.0,9.0,4.0,11.0,5.0,0.0
1701961751.367217,-4.0,-5.0,-38.0,-11.0,-4.0,-11.0,-4.0,-2.0
1701961751.3792138,0.0,3.0,-3.0,11.0,-1.0,3.0,1.0,3.0
1701961751.3792138,3.0,20.0,16.0,-15.0,-1.0,2.0,-1.0,1.0
1701961751.3792138,-5.0,-3.0,-4.0,6.0,-9.0,-9.0,-5.0,-2.0
1701961751.3792138,14.0,-12.0,-5.0,-8.0,2.0,-2.0,-2.0,-3.0
1701961751.3894174,9.0,-15.0,-29.0,-5.0,2.0,2.0,0.0,1.0
1701961751.3894174,-6.0,19.0,-12.0,-4.0,-8.0,-7.0,-8.0,-5.0
1701961751.399418,1.0,2.0,13.0,4.0,-1.0,1.0,3.0,2.0
1701961751.399418,1.0,-31.0,10.0,-6.0,-4.0,-1.0,0.0,0.0
1701961751.4196882,8.0,-6.0,4.0,1.0,5.0,-1.0,0.0,-2.0
1701961751.4196882,1.0,-8.0,29.0,5.0,-2.0,7.0,0.0,1.0
1701961751.4196882,-23.0,5.0,-53.0,-11.0,-1.0,-3.0,-3.0,-7.0
1701961751.4196882,4.0,9.0,16.0,8.0,-3.0,-9.0,2.0,2.0
1701961751.4294195,-2.0,9.0,-2.0,0.0,2.0,18.0,3.0,-4.0
1701961751.4294195,-3.0,-7.0,-13.0,-4.0,-4.0,-11.0,-6.0,-3.0
1701961751.4294195,13.0,4.0,15.0,8.0,-2.0,1.0,2.0,0.0
1701961751.4294195,4.0,22.0,32.0,0.0,-1.0,-6.0,-6.0,-2.0
1701961751.4497783,-13.0,3.0,-41.0,-18.0,-4.0,-3.0,0.0,1.0
1701961751.4497783,0.0,28.0,16.0,22.0,10.0,8.0,-1.0,-1.0
1701961751.459418,3.0,2.0,-8.0,-17.0,-6.0,-9.0,-5.0,-3.0
1701961751.459418,6.0,3.0,72.0,16.0,0.0,1.0,-5.0,-1.0
1701961751.47942,-1.0,-16.0,-75.0,-19.0,-6.0,-10.0,-5.0,-5.0
1701961751.47942,7.0,-3.0,4.0,13.0,7.0,6.0,6.0,-1.0
1701961751.47942,-7.0,7.0,4.0,-5.0,3.0,-3.0,-9.0,-7.0
1701961751.47942,7.0,-23.0,-17.0,-4.0,-8.0,-2.0,-1.0,3.0
1701961751.4894433,-2.0,19.0,60.0,13.0,0.0,1.0,3.0,-4.0
1701961751.4894433,-8.0,-12.0,-40.0,-11.0,-3.0,3.0,-8.0,-4.0
1701961751.4894433,4.0,1.0,-12.0,-2.0,3.0,-26.0,-7.0,-1.0
1701961751.4894433,0.0,-5.0,-19.0,3.0,2.0,41.0,14.0,11.0
1701961751.509777,-8.0,-6.0,54.0,10.0,-2.0,-14.0,-3.0,-26.0
1701961751.509777,12.0,-24.0,-47.0,-19.0,-6.0,47.0,16.0,19.0
1701961751.509777,4.0,14.0,44.0,16.0,1.0,-25.0,1.0,-17.0
1701961751.5197954,-11.0,-2.0,-31.0,-23.0,-12.0,-13.0,-19.0,-3.0
1701961751.5397992,0.0,-12.0,-18.0,0.0,-1.0,-2.0,3.0,5.0
1701961751.5397992,-7.0,-11.0,35.0,11.0,-2.0,-23.0,-8.0,-13.0
1701961751.5397992,-5.0,0.0,-22.0,-21.0,-4.0,8.0,-4.0,6.0
1701961751.5397992,-4.0,-12.0,-17.0,-6.0,-2.0,-21.0,-1.0,-12.0
1701961751.5498288,-1.0,-5.0,-13.0,-3.0,-5.0,3.0,-7.0,-3.0
1701961751.5498288,-3.0,-7.0,-18.0,-4.0,-3.0,-4.0,-2.0,-3.0
1701961751.5600522,3.0,-8.0,-7.0,-7.0,-1.0,12.0,3.0,10.0
1701961751.5600522,2.0,14.0,18.0,13.0,11.0,2.0,3.0,-1.0
1701961751.5798013,2.0,6.0,18.0,12.0,-5.0,-11.0,-8.0,7.0
1701961751.5798013,-6.0,-10.0,3.0,6.0,18.0,9.0,4.0,-3.0
1701961751.5798013,-6.0,-20.0,-46.0,-37.0,-17.0,2.0,2.0,1.0
1701961751.5798013,2.0,13.0,-23.0,-16.0,0.0,-1.0,0.0,-1.0
1701961751.6097958,1.0,10.0,46.0,22.0,12.0,-3.0,-2.0,3.0
1701961751.6097958,-19.0,-27.0,-12.0,-23.0,-19.0,-18.0,-9.0,-7.0
1701961751.6097958,-4.0,-8.0,11.0,37.0,5.0,10.0,1.0,-4.0
1701961751.6097958,-3.0,6.0,-10.0,0.0,-10.0,-4.0,-3.0,0.0
1701961751.6097958,-2.0,-12.0,-21.0,-15.0,10.0,8.0,2.0,1.0
1701961751.6097958,14.0,48.0,45.0,11.0,-6.0,-3.0,2.0,1.0
1701961751.6198285,0.0,-16.0,-29.0,-58.0,-14.0,-4.0,-5.0,-1.0
1701961751.6198285,1.0,-6.0,19.0,17.0,-13.0,-4.0,-1.0,-6.0
1701961751.630204,4.0,1.0,-2.0,46.0,17.0,4.0,1.0,2.0
1701961751.630204,-3.0,2.0,39.0,-33.0,-13.0,-7.0,-3.0,-1.0
1701961751.6401587,3.0,16.0,15.0,34.0,10.0,3.0,-2.0,-3.0
1701961751.6401587,-5.0,-49.0,-27.0,-34.0,-2.0,1.0,5.0,4.0
1701961751.6597974,-13.0,-11.0,-22.0,-29.0,-8.0,-4.0,-9.0,-7.0
1701961751.6597974,0.0,23.0,0.0,3.0,-2.0,-8.0,-6.0,-6.0
1701961751.6597974,3.0,-20.0,46.0,9.0,-2.0,2.0,2.0,2.0
1701961751.6597974,4.0,5.0,-19.0,9.0,11.0,5.0,6.0,6.0
1701961751.670153,-10.0,-6.0,-10.0,-7.0,-9.0,-9.0,-11.0,-9.0
1701961751.670153,1.0,-18.0,-4.0,7.0,3.0,-4.0,-4.0,-1.0
1701961751.6801744,-8.0,10.0,-12.0,-6.0,1.0,-1.0,-3.0,-5.0
1701961751.6801744,-5.0,-29.0,-107.0,-21.0,-9.0,-12.0,-13.0,-14.0
1701961751.6901965,8.0,-15.0,34.0,-12.0,-5.0,7.0,14.0,15.0
1701961751.6901965,6.0,1.0,25.0,25.0,8.0,0.0,-2.0,-5.0
1701961751.6997974,-11.0,12.0,22.0,8.0,1.0,6.0,5.0,3.0
1701961751.6997974,1.0,16.0,19.0,-4.0,2.0,-6.0,-6.0,-4.0
1701961751.7201524,7.0,-11.0,-22.0,-12.0,-8.0,-8.0,0.0,5.0
1701961751.7201524,5.0,4.0,-4.0,17.0,6.0,13.0,8.0,-2.0
1701961751.7201524,-16.0,-5.0,-69.0,-20.0,-3.0,2.0,1.0,-1.0
1701961751.7201524,1.0,25.0,49.0,15.0,7.0,3.0,-8.0,3.0
1701961751.7301915,7.0,15.0,39.0,14.0,-1.0,-23.0,-8.0,2.0
1701961751.7301915,-15.0,10.0,15.0,-8.0,-7.0,-36.0,-6.0,-1.0
1701961751.7401674,5.0,15.0,-1.0,3.0,4.0,57.0,7.0,-3.0
1701961751.7401674,-2.0,9.0,53.0,8.0,1.0,-11.0,2.0,6.0
1701961751.7597961,-7.0,-12.0,-54.0,-11.0,-8.0,13.0,5.0,-5.0
1701961751.7597961,5.0,-16.0,-13.0,-8.0,-4.0,-20.0,-5.0,1.0
1701961751.7597961,1.0,1.0,14.0,9.0,-1.0,-10.0,-3.0,-1.0
1701961751.7597961,-2.0,4.0,25.0,9.0,-2.0,-10.0,-3.0,-3.0
1701961751.7801828,-1.0,1.0,-19.0,-10.0,9.0,5.0,-1.0,2.0
1701961751.7801828,17.0,1.0,41.0,12.0,-6.0,1.0,0.0,2.0
1701961751.7801828,3.0,-26.0,-81.0,-24.0,-7.0,-1.0,-2.0,1.0
1701961751.7801828,3.0,24.0,36.0,-8.0,-2.0,7.0,5.0,-5.0
1701961751.7901683,-1.0,-8.0,19.0,4.0,-3.0,-3.0,-8.0,-4.0
1701961751.7901683,1.0,1.0,-9.0,-4.0,-3.0,8.0,-4.0,-2.0
1701961751.8001587,18.0,-13.0,24.0,29.0,12.0,-16.0,2.0,10.0
1701961751.8001587,-9.0,-4.0,37.0,2.0,-5.0,-3.0,-2.0,-6.0
1701961751.8197973,-1.0,-11.0,-54.0,-20.0,-8.0,-2.0,1.0,-5.0
1701961751.8197973,-12.0,-13.0,-8.0,-7.0,-3.0,-4.0,-6.0,0.0
1701961751.8197973,9.0,28.0,60.0,16.0,-1.0,-23.0,-6.0,2.0
1701961751.8197973,1.0,-36.0,-74.0,-5.0,2.0,20.0,1.0,-2.0
1701961751.8400805,-5.0,24.0,9.0,-10.0,-8.0,-23.0,2.0,-1.0
1701961751.8400805,0.0,-3.0,-10.0,4.0,9.0,45.0,13.0,0.0
1701961751.8400805,-3.0,5.0,-19.0,-7.0,-8.0,-24.0,-1.0,-3.0
1701961751.8400805,-3.0,-10.0,18.0,5.0,-2.0,-6.0,-6.0,-2.0
1701961751.8498056,-7.0,25.0,30.0,8.0,-1.0,9.0,0.0,-1.0
1701961751.8498056,1.0,1.0,-20.0,-1.0,1.0,-20.0,-2.0,1.0
1701961751.860038,-15.0,-10.0,-2.0,-5.0,3.0,18.0,4.0,-2.0
1701961751.860038,-9.0,17.0,-16.0,3.0,3.0,0.0,10.0,0.0
1701961751.8824937,2.0,-1.0,29.0,5.0,2.0,4.0,-8.0,-5.0
1701961751.8835082,-6.0,-12.0,-1.0,-8.0,-1.0,-4.0,-4.0,0.0
1701961751.8995056,9.0,36.0,-32.0,-3.0,3.0,15.0,1.0,0.0
1701961751.8995056,5.0,12.0,7.0,4.0,1.0,-8.0,2.0,6.0
1701961751.900245,-3.0,-22.0,-7.0,-1.0,0.0,4.0,4.0,1.0
1701961751.900245,-2.0,30.0,18.0,3.0,-5.0,6.0,4.0,0.0
1701961751.9019165,-4.0,-7.0,-6.0,-1.0,2.0,-9.0,-3.0,-4.0
1701961751.9019165,-2.0,-31.0,9.0,-4.0,-8.0,-4.0,-4.0,-5.0
1701961751.9053283,-2.0,8.0,-68.0,-20.0,1.0,3.0,-2.0,-2.0
1701961751.9053283,-2.0,7.0,24.0,1.0,-5.0,-3.0,-2.0,0.0
1701961751.925389,-14.0,-45.0,-22.0,-6.0,-6.0,-1.0,0.0,2.0
1701961751.925389,-4.0,5.0,14.0,13.0,6.0,4.0,3.0,1.0
1701961751.9354222,-13.0,10.0,30.0,2.0,-3.0,6.0,-3.0,-3.0
1701961751.9354222,3.0,9.0,-33.0,-5.0,1.0,-1.0,2.0,1.0
1701961751.9354222,10.0,-12.0,25.0,2.0,-3.0,-33.0,-7.0,2.0
1701961751.9354222,1.0,-15.0,-6.0,-18.0,-6.0,40.0,2.0,-6.0
1701961751.9557967,9.0,10.0,22.0,8.0,-3.0,-10.0,-10.0,3.0
1701961751.9557967,-10.0,-20.0,-22.0,-5.0,1.0,2.0,3.0,-1.0
1701961751.9557967,7.0,-10.0,6.0,-7.0,-9.0,-6.0,-3.0,-1.0
1701961751.9557967,11.0,-19.0,-7.0,11.0,4.0,-10.0,-2.0,2.0
1701961751.9657433,4.0,-6.0,20.0,-7.0,-2.0,-3.0,0.0,-1.0
1701961751.9657433,8.0,-8.0,-44.0,-28.0,-7.0,-5.0,-5.0,1.0
1701961751.985391,2.0,-28.0,29.0,31.0,7.0,7.0,-2.0,-2.0
1701961751.985391,-19.0,41.0,-22.0,-13.0,-4.0,-12.0,-4.0,-7.0
1701961751.99542,1.0,-11.0,40.0,14.0,0.0,5.0,1.0,-2.0
1701961751.99542,8.0,-16.0,-49.0,-15.0,-1.0,-3.0,2.0,2.0
1701961751.99542,6.0,25.0,25.0,6.0,1.0,6.0,0.0,-1.0
1701961751.99542,-9.0,-6.0,-26.0,-4.0,0.0,-5.0,-2.0,-1.0
1701961752.0156538,8.0,37.0,-1.0,-4.0,-2.0,-2.0,1.0,1.0
1701961752.0156538,-19.0,-49.0,17.0,6.0,-3.0,-6.0,-7.0,-7.0
1701961752.0156538,-1.0,8.0,-27.0,-10.0,-2.0,0.0,-1.0,-2.0
1701961752.0156538,-2.0,-16.0,-9.0,2.0,-1.0,-6.0,1.0,0.0
1701961752.0254152,-2.0,-8.0,-58.0,-4.0,1.0,1.0,3.0,2.0
1701961752.0254152,17.0,12.0,53.0,12.0,1.0,-2.0,-3.0,0.0
1701961752.0453906,-9.0,-3.0,-10.0,-14.0,-6.0,-2.0,-2.0,-1.0
1701961752.0453906,0.0,-12.0,20.0,6.0,-2.0,-20.0,-5.0,-3.0
1701961752.055421,-2.0,-7.0,-8.0,-8.0,-1.0,11.0,-2.0,-3.0
1701961752.055421,-12.0,10.0,32.0,28.0,9.0,2.0,-1.0,-2.0
1701961752.055421,-9.0,-26.0,-62.0,-42.0,-11.0,-3.0,-1.0,-1.0
1701961752.055421,14.0,36.0,24.0,24.0,7.0,-2.0,1.0,2.0
1701961752.0758042,-3.0,-22.0,-6.0,-14.0,-3.0,0.0,3.0,0.0
1701961752.0758042,4.0,2.0,7.0,13.0,6.0,2.0,-3.0,1.0
1701961752.0758042,-2.0,-18.0,8.0,10.0,-3.0,1.0,-1.0,-3.0
1701961752.0758042,-2.0,8.0,-20.0,-23.0,-6.0,-3.0,-3.0,1.0
1701961752.0857406,-2.0,-24.0,-6.0,5.0,-1.0,-3.0,0.0,0.0
1701961752.0953953,-8.0,5.0,18.0,7.0,2.0,4.0,4.0,-2.0
1701961752.1053925,-2.0,0.0,16.0,7.0,1.0,-5.0,-4.0,-5.0
1701961752.1053925,15.0,15.0,-12.0,-10.0,2.0,9.0,15.0,10.0
1701961752.1154218,-5.0,0.0,4.0,-8.0,-8.0,-26.0,-26.0,-6.0
1701961752.1154218,-3.0,9.0,3.0,4.0,3.0,-8.0,5.0,1.0
1701961752.1154218,-5.0,7.0,-14.0,3.0,3.0,70.0,3.0,-4.0
1701961752.1154218,-5.0,-7.0,-2.0,-12.0,-3.0,-5.0,-1.0,0.0
1701961752.1357856,-4.0,1.0,-12.0,-2.0,-1.0,-12.0,2.0,0.0
1701961752.1357856,8.0,2.0,31.0,9.0,1.0,-14.0,-3.0,-1.0
1701961752.1357856,-1.0,67.0,-33.0,-4.0,-3.0,-18.0,-6.0,-1.0
1701961752.1357856,-6.0,-11.0,7.0,-18.0,-4.0,3.0,-1.0,0.0
1701961752.1553886,0.0,-7.0,-16.0,18.0,7.0,9.0,4.0,-3.0
1701961752.1553886,-15.0,-34.0,-25.0,-27.0,-11.0,-6.0,-12.0,-7.0
1701961752.1553886,10.0,5.0,45.0,13.0,1.0,-6.0,6.0,4.0
1701961752.1553886,3.0,9.0,27.0,15.0,-2.0,4.0,-5.0,-4.0
1701961752.1753905,-5.0,9.0,-28.0,-7.0,2.0,-4.0,0.0,-2.0
1701961752.1753905,8.0,17.0,14.0,-12.0,-5.0,7.0,0.0,-1.0
1701961752.1753905,-11.0,1.0,34.0,17.0,6.0,-6.0,3.0,-1.0
1701961752.1753905,1.0,8.0,22.0,3.0,-2.0,-12.0,-10.0,-2.0
1701961752.1957464,3.0,-6.0,37.0,14.0,-2.0,3.0,-1.0,-1.0
1701961752.1957464,-4.0,-5.0,-40.0,3.0,-1.0,12.0,3.0,2.0
1701961752.1957464,-8.0,-7.0,-20.0,-18.0,-3.0,-3.0,-4.0,-1.0
1701961752.1957464,-9.0,-7.0,-12.0,-1.0,-12.0,-15.0,-10.0,-6.0
1701961752.2153888,-5.0,-2.0,29.0,5.0,4.0,6.0,5.0,-2.0
1701961752.2153888,-3.0,17.0,-18.0,-2.0,6.0,18.0,8.0,0.0
1701961752.2153888,-28.0,-10.0,21.0,-3.0,-7.0,-21.0,-7.0,-5.0
1701961752.2153888,0.0,-6.0,29.0,11.0,2.0,1.0,2.0,5.0
1701961752.2356806,0.0,3.0,-49.0,-18.0,2.0,1.0,6.0,4.0
1701961752.2356806,0.0,10.0,-26.0,-9.0,-5.0,-7.0,-3.0,-3.0
1701961752.2356806,-2.0,-35.0,19.0,9.0,2.0,-2.0,-2.0,-8.0
1701961752.2356806,9.0,11.0,9.0,10.0,4.0,4.0,3.0,3.0
1701961752.2557065,6.0,18.0,15.0,-11.0,-4.0,3.0,1.0,3.0
1701961752.2557065,-8.0,-22.0,27.0,12.0,-3.0,-2.0,2.0,2.0
1701961752.2557065,4.0,3.0,-44.0,-35.0,-4.0,0.0,1.0,3.0
1701961752.2557065,-2.0,-3.0,-11.0,9.0,4.0,0.0,-3.0,-1.0
1701961752.295387,5.0,20.0,6.0,2.0,-1.0,2.0,0.0,0.0
1701961752.295387,6.0,0.0,10.0,1.0,-3.0,-6.0,-7.0,-2.0
1701961752.295387,8.0,-8.0,6.0,4.0,-6.0,-6.0,1.0,5.0
1701961752.295387,-4.0,11.0,-9.0,-4.0,5.0,2.0,3.0,-1.0
1701961752.295387,-4.0,-14.0,3.0,0.0,-5.0,0.0,-4.0,-4.0
1701961752.295387,-22.0,-23.0,-26.0,-19.0,-6.0,-1.0,2.0,-1.0
1701961752.295387,21.0,43.0,24.0,25.0,12.0,1.0,8.0,8.0
1701961752.295387,-3.0,-23.0,-10.0,-4.0,-8.0,-12.0,-12.0,-9.0
1701961752.3253882,-16.0,-23.0,-9.0,-14.0,-6.0,3.0,8.0,-5.0
1701961752.3253882,6.0,3.0,-7.0,-2.0,2.0,1.0,-1.0,5.0
1701961752.3253882,8.0,-4.0,16.0,4.0,-4.0,-15.0,-13.0,-1.0
1701961752.3253882,-8.0,21.0,18.0,1.0,2.0,12.0,3.0,-4.0
1701961752.3356323,0.0,-10.0,-15.0,6.0,0.0,-14.0,-6.0,3.0
1701961752.3356323,1.0,-12.0,-58.0,-28.0,-11.0,11.0,3.0,-1.0
1701961752.3356323,-26.0,36.0,31.0,7.0,10.0,10.0,8.0,-4.0
1701961752.3356323,-14.0,4.0,-4.0,-8.0,-3.0,-9.0,-9.0,-6.0
1701961752.3557358,1.0,-25.0,3.0,9.0,1.0,1.0,-2.0,0.0
1701961752.3557358,4.0,21.0,25.0,2.0,-4.0,-10.0,-2.0,1.0
1701961752.3557358,-2.0,-19.0,-26.0,-4.0,3.0,1.0,6.0,-1.0
1701961752.3557358,3.0,-7.0,-21.0,-9.0,-10.0,-7.0,-17.0,-5.0
1701961752.3753908,-7.0,19.0,39.0,12.0,1.0,1.0,2.0,1.0
1701961752.3753908,2.0,1.0,-30.0,-1.0,6.0,2.0,4.0,-1.0
1701961752.3753908,13.0,-12.0,-5.0,-6.0,-7.0,-2.0,-4.0,-4.0
1701961752.3753908,11.0,24.0,6.0,7.0,2.0,5.0,6.0,4.0
1701961752.3957977,3.0,2.0,-27.0,-18.0,-7.0,2.0,-7.0,-8.0
1701961752.3957977,8.0,14.0,45.0,18.0,5.0,-5.0,0.0,0.0
1701961752.3957977,12.0,-5.0,-15.0,-11.0,-10.0,-11.0,-4.0,2.0
1701961752.3957977,0.0,-14.0,-26.0,-11.0,2.0,15.0,-3.0,-2.0
1701961752.4166725,-1.0,22.0,21.0,5.0,-1.0,-18.0,-11.0,-3.0
1701961752.4166725,-3.0,-32.0,3.0,3.0,-4.0,-19.0,0.0,0.0
1701961752.424982,-1.0,-9.0,-24.0,-2.0,1.0,26.0,-14.0,-9.0
1701961752.4260116,13.0,21.0,-2.0,-4.0,-2.0,-5.0,5.0,7.0
1701961752.4391057,1.0,-4.0,-1.0,-3.0,0.0,0.0,12.0,8.0
1701961752.4391057,2.0,-13.0,-2.0,4.0,4.0,-1.0,-6.0,-3.0
1701961752.4391057,0.0,31.0,31.0,9.0,1.0,-20.0,-3.0,1.0
1701961752.4391057,-4.0,-3.0,-8.0,3.0,2.0,6.0,3.0,-2.0
1701961752.4593728,-1.0,-20.0,-13.0,-6.0,-4.0,6.0,-1.0,-1.0
1701961752.4593728,-7.0,25.0,-29.0,-1.0,3.0,-10.0,-6.0,-5.0
1701961752.4593728,-5.0,-2.0,26.0,4.0,3.0,8.0,5.0,0.0
1701961752.4593728,-8.0,-20.0,-32.0,-11.0,-2.0,0.0,6.0,-3.0
1701961752.4791656,5.0,-10.0,-4.0,0.0,1.0,-1.0,-8.0,-14.0
1701961752.4791656,8.0,27.0,47.0,13.0,9.0,26.0,-1.0,12.0
1701961752.4791656,-14.0,-16.0,-28.0,-11.0,-10.0,-25.0,-9.0,-16.0
1701961752.4791656,14.0,-9.0,-14.0,-4.0,2.0,53.0,19.0,-21.0
1701961752.5091114,-5.0,-10.0,20.0,3.0,-5.0,-54.0,3.0,-4.0
1701961752.5091114,-8.0,-13.0,-33.0,-8.0,2.0,67.0,-11.0,-10.0
1701961752.5091114,-1.0,-6.0,3.0,-2.0,-3.0,-20.0,-9.0,-29.0
1701961752.5091114,-4.0,-12.0,19.0,3.0,-6.0,-51.0,6.0,11.0
1701961752.519132,-7.0,21.0,-32.0,-2.0,3.0,36.0,-18.0,32.0
1701961752.519132,-2.0,-1.0,30.0,-1.0,-11.0,-48.0,14.0,8.0
1701961752.519132,16.0,6.0,-5.0,-3.0,1.0,25.0,-9.0,-14.0
1701961752.519132,-9.0,-1.0,4.0,-3.0,-7.0,-16.0,-1.0,24.0
1701961752.5294855,1.0,27.0,17.0,8.0,4.0,4.0,13.0,4.0
1701961752.5294855,-31.0,5.0,-16.0,-8.0,-3.0,-16.0,-6.0,1.0
1701961752.5393922,9.0,-24.0,16.0,4.0,2.0,9.0,0.0,3.0
1701961752.5393922,-18.0,6.0,-19.0,-1.0,-1.0,-18.0,-14.0,-21.0
1701961752.5591445,8.0,-3.0,30.0,7.0,1.0,-15.0,15.0,11.0
1701961752.5591445,3.0,7.0,-4.0,-1.0,1.0,24.0,-4.0,-26.0
1701961752.5591445,10.0,7.0,0.0,-3.0,-6.0,-28.0,5.0,38.0
1701961752.5591445,-14.0,-21.0,16.0,8.0,7.0,35.0,3.0,-33.0
1701961752.579556,-4.0,11.0,-17.0,-8.0,-1.0,20.0,6.0,16.0
1701961752.579556,18.0,-40.0,-34.0,-3.0,-1.0,-33.0,-17.0,-21.0
1701961752.579556,-11.0,2.0,11.0,-5.0,-4.0,11.0,15.0,30.0
1701961752.579556,8.0,-18.0,-4.0,1.0,2.0,-11.0,4.0,19.0
1701961752.5895238,-4.0,-19.0,0.0,-3.0,-2.0,-4.0,-10.0,-10.0
1701961752.5895238,-8.0,-6.0,8.0,2.0,1.0,-1.0,4.0,-29.0
1701961752.5991452,0.0,-9.0,-5.0,3.0,2.0,-6.0,-13.0,-14.0
1701961752.5991452,-21.0,-4.0,2.0,4.0,5.0,2.0,2.0,28.0
1701961752.6191692,-9.0,-5.0,5.0,2.0,-3.0,9.0,17.0,14.0
1701961752.6191692,3.0,5.0,-7.0,-2.0,0.0,4.0,-21.0,-26.0
1701961752.6191692,-12.0,-2.0,14.0,-3.0,0.0,-9.0,12.0,10.0
1701961752.6191692,5.0,-1.0,-8.0,-2.0,-3.0,-2.0,-7.0,6.0
1701961752.639572,3.0,-9.0,-37.0,-13.0,-3.0,-2.0,-10.0,-22.0
1701961752.639572,6.0,-8.0,28.0,8.0,3.0,8.0,19.0,43.0
1701961752.639572,-6.0,11.0,-16.0,-2.0,3.0,10.0,1.0,-15.0
1701961752.639572,9.0,-8.0,10.0,1.0,0.0,-4.0,1.0,0.0
1701961752.649882,-8.0,13.0,-15.0,-5.0,-1.0,-1.0,-7.0,-15.0
1701961752.649882,5.0,16.0,17.0,-2.0,-4.0,-14.0,-1.0,6.0
1701961752.6695826,-2.0,-27.0,-44.0,-13.0,-5.0,3.0,-1.0,0.0
1701961752.6695826,-3.0,17.0,25.0,2.0,0.0,1.0,-4.0,-3.0
1701961752.6796796,3.0,-13.0,8.0,6.0,3.0,-6.0,0.0,-4.0
1701961752.6796796,2.0,5.0,-11.0,-4.0,-4.0,2.0,3.0,9.0
1701961752.6796796,-1.0,7.0,3.0,-5.0,-1.0,2.0,2.0,5.0
1701961752.6796796,3.0,3.0,-10.0,8.0,-6.0,-11.0,-7.0,-5.0
1701961752.699665,3.0,-4.0,7.0,-15.0,2.0,9.0,-2.0,-7.0
1701961752.699665,4.0,19.0,19.0,10.0,1.0,0.0,5.0,7.0
1701961752.699665,2.0,6.0,20.0,2.0,-6.0,-3.0,-3.0,-4.0
1701961752.699665,-1.0,-13.0,-27.0,-18.0,-6.0,-2.0,-2.0,-6.0
1701961752.7295861,6.0,12.0,10.0,22.0,3.0,5.0,2.0,1.0
1701961752.7295861,-7.0,5.0,16.0,4.0,5.0,1.0,-2.0,-1.0
1701961752.7295861,-1.0,-10.0,4.0,18.0,6.0,-4.0,0.0,-1.0
1701961752.7295861,7.0,5.0,16.0,-29.0,-27.0,-4.0,-3.0,-1.0
1701961752.7397552,-12.0,4.0,6.0,9.0,7.0,3.0,1.0,-2.0
1701961752.7397552,13.0,16.0,-20.0,-4.0,3.0,-8.0,5.0,7.0
1701961752.7397552,-8.0,-14.0,-21.0,-26.0,-41.0,-5.0,-8.0,-6.0
1701961752.7397552,0.0,0.0,6.0,26.0,56.0,12.0,5.0,-1.0
1701961752.7596567,0.0,-9.0,-85.0,-74.0,-23.0,-6.0,-5.0,-5.0
1701961752.7596567,-1.0,4.0,40.0,20.0,-16.0,-12.0,-4.0,-3.0
1701961752.7596567,-7.0,-17.0,-9.0,35.0,29.0,11.0,3.0,0.0
1701961752.7596567,1.0,-5.0,-36.0,-38.0,-14.0,-2.0,-1.0,-1.0
1701961752.7895832,4.0,6.0,54.0,76.0,25.0,6.0,1.0,-1.0
1701961752.7895832,-7.0,-11.0,-40.0,-33.0,-5.0,-7.0,-4.0,-5.0
1701961752.7895832,3.0,13.0,8.0,-15.0,-4.0,-1.0,1.0,1.0
1701961752.7895832,-3.0,3.0,65.0,35.0,-1.0,-8.0,-8.0,-4.0
1701961752.7999005,-5.0,-12.0,-56.0,-21.0,-7.0,-3.0,-2.0,-5.0
1701961752.7999005,5.0,0.0,3.0,4.0,-3.0,8.0,2.0,0.0
1701961752.7999005,2.0,6.0,6.0,21.0,8.0,-12.0,-8.0,-3.0
1701961752.7999005,1.0,2.0,9.0,-14.0,-1.0,-1.0,5.0,1.0
1701961752.819886,12.0,9.0,29.0,3.0,-4.0,53.0,8.0,5.0
1701961752.819886,-7.0,-3.0,22.0,13.0,8.0,-6.0,-2.0,-4.0
1701961752.819886,-2.0,-8.0,-51.0,-17.0,-2.0,-6.0,-10.0,-8.0
1701961752.819886,0.0,0.0,9.0,2.0,-1.0,6.0,13.0,4.0
1701961752.8299003,-4.0,-19.0,-17.0,-21.0,-17.0,-29.0,-14.0,-8.0
1701961752.8299003,-4.0,-16.0,-24.0,-3.0,3.0,4.0,3.0,2.0
1701961752.8395848,-4.0,11.0,29.0,-2.0,-1.0,-11.0,0.0,1.0
1701961752.8395848,4.0,5.0,-12.0,-5.0,-4.0,2.0,-8.0,0.0
1701961752.8599246,1.0,0.0,20.0,14.0,2.0,-18.0,-2.0,-19.0
1701961752.8599246,2.0,1.0,3.0,-4.0,5.0,-5.0,-13.0,17.0
1701961752.8599246,-2.0,-7.0,0.0,-3.0,-2.0,30.0,20.0,2.0
1701961752.8599246,1.0,5.0,-9.0,0.0,-1.0,18.0,7.0,-1.0
1701961752.8796873,-6.0,0.0,17.0,-1.0,-5.0,-9.0,-2.0,0.0
1701961752.8796873,-7.0,-8.0,-55.0,-12.0,3.0,-7.0,-6.0,-7.0
1701961752.8796873,-10.0,2.0,13.0,-3.0,-1.0,-19.0,-5.0,-4.0
1701961752.8796873,1.0,0.0,-15.0,4.0,3.0,-2.0,1.0,3.0
1701961752.8997612,0.0,2.0,13.0,0.0,-3.0,-5.0,-4.0,-1.0
1701961752.8997612,0.0,-4.0,-3.0,2.0,0.0,-3.0,6.0,3.0
1701961752.8997612,6.0,4.0,-3.0,-9.0,-3.0,1.0,-5.0,3.0
1701961752.8997612,8.0,-11.0,-38.0,4.0,-3.0,23.0,7.0,1.0
1701961752.9199164,1.0,2.0,25.0,-2.0,-1.0,-11.0,-2.0,0.0
1701961752.9199164,5.0,-6.0,-71.0,-37.0,-9.0,5.0,2.0,-1.0
1701961752.9199164,3.0,17.0,35.0,38.0,9.0,5.0,3.0,1.0
1701961752.9199164,-8.0,-7.0,-3.0,-22.0,-9.0,-25.0,-14.0,-5.0
1701961752.9396448,-2.0,0.0,-30.0,20.0,9.0,7.0,6.0,2.0
1701961752.9396448,4.0,6.0,40.0,19.0,3.0,1.0,3.0,-2.0
1701961752.9396448,2.0,-3.0,-25.0,-22.0,-6.0,-5.0,5.0,-3.0
1701961752.9396448,-2.0,-10.0,-7.0,-2.0,-3.0,4.0,-14.0,-1.0
1701961752.9655905,-3.0,4.0,24.0,7.0,0.0,5.0,2.0,3.0
1701961752.9655905,4.0,-1.0,-21.0,-26.0,-11.0,-30.0,-11.0,-8.0
1701961752.9655905,0.0,1.0,4.0,4.0,3.0,27.0,-7.0,-2.0
1701961752.9655905,3.0,1.0,15.0,12.0,3.0,6.0,10.0,2.0
1701961752.9811428,-7.0,-6.0,27.0,-25.0,-7.0,-4.0,1.0,-3.0
1701961752.9811428,-2.0,-4.0,9.0,41.0,7.0,4.0,4.0,0.0
1701961752.9811428,-2.0,-29.0,-58.0,-13.0,-6.0,-13.0,-5.0,-2.0
1701961752.9811428,-2.0,40.0,6.0,12.0,-10.0,-14.0,-10.0,-6.0
1701961753.0010855,-4.0,5.0,16.0,6.0,10.0,10.0,4.0,4.0
1701961753.0010855,-3.0,6.0,45.0,-16.0,-13.0,-41.0,-10.0,-1.0
1701961753.0010855,-4.0,-5.0,6.0,8.0,5.0,64.0,16.0,2.0
1701961753.0010855,4.0,-13.0,-60.0,-9.0,-2.0,-9.0,-2.0,-1.0
1701961753.0217245,-7.0,-14.0,-1.0,1.0,-6.0,-10.0,-1.0,-1.0
1701961753.0217245,-11.0,17.0,14.0,14.0,3.0,6.0,4.0,-5.0
1701961753.0217245,-6.0,-25.0,-10.0,-7.0,-4.0,-16.0,-4.0,2.0
1701961753.0217245,7.0,21.0,15.0,-10.0,-4.0,-12.0,-3.0,-1.0
1701961753.0316753,4.0,9.0,-8.0,7.0,-3.0,-13.0,-4.0,0.0
1701961753.0316753,-3.0,-12.0,-25.0,-19.0,-4.0,16.0,0.0,-12.0
1701961753.0316753,11.0,21.0,42.0,19.0,8.0,-17.0,-8.0,5.0
1701961753.0413947,-8.0,-7.0,-12.0,-21.0,-1.0,24.0,-6.0,3.0
1701961753.0613875,-1.0,-10.0,-15.0,-1.0,-2.0,12.0,29.0,0.0
1701961753.0613875,-4.0,2.0,28.0,12.0,-3.0,-7.0,-8.0,-1.0
1701961753.0613875,0.0,4.0,-27.0,-21.0,-6.0,-6.0,3.0,-2.0
1701961753.0613875,-8.0,-14.0,-16.0,3.0,-4.0,-20.0,-7.0,-5.0
1701961753.0816858,6.0,1.0,15.0,0.0,-6.0,-9.0,-16.0,0.0
1701961753.0816858,2.0,-12.0,-52.0,-12.0,2.0,12.0,6.0,4.0
1701961753.0816858,2.0,11.0,28.0,23.0,12.0,-3.0,0.0,-2.0
1701961753.0816858,-13.0,-14.0,12.0,8.0,0.0,-8.0,-1.0,1.0
1701961753.0916648,-1.0,-5.0,-21.0,-26.0,-6.0,0.0,-5.0,-2.0
1701961753.0916648,2.0,6.0,-4.0,18.0,10.0,17.0,11.0,4.0
1701961753.1013927,-3.0,-7.0,8.0,10.0,-7.0,-19.0,-11.0,-7.0
1701961753.1013927,-6.0,-6.0,-8.0,-42.0,-8.0,-4.0,-1.0,-8.0
1701961753.1213884,4.0,7.0,-22.0,-4.0,-2.0,0.0,-2.0,2.0
1701961753.1213884,1.0,-9.0,34.0,-2.0,0.0,8.0,2.0,1.0
1701961753.1213884,-7.0,0.0,-23.0,3.0,6.0,0.0,0.0,-2.0
1701961753.1213884,3.0,12.0,25.0,22.0,4.0,0.0,3.0,-3.0
1701961753.1417127,-3.0,0.0,37.0,8.0,-2.0,-2.0,-2.0,-1.0
1701961753.1417127,-3.0,-9.0,-32.0,-19.0,-10.0,-5.0,-11.0,-2.0
1701961753.1417127,3.0,5.0,11.0,-13.0,2.0,5.0,6.0,0.0
1701961753.1417127,-3.0,-18.0,-18.0,3.0,-4.0,-19.0,1.0,-1.0
1701961753.1517713,-4.0,-3.0,-14.0,-13.0,-1.0,-2.0,-11.0,0.0
1701961753.1517713,-1.0,10.0,10.0,20.0,4.0,32.0,3.0,5.0
1701961753.1517713,-2.0,3.0,14.0,-21.0,-3.0,-2.0,7.0,-1.0
1701961753.1517713,2.0,-1.0,8.0,18.0,3.0,-4.0,-6.0,-1.0
1701961753.1813924,-1.0,-3.0,-6.0,3.0,1.0,-11.0,-5.0,-4.0
1701961753.1813924,-3.0,-6.0,41.0,2.0,-6.0,-18.0,-6.0,-7.0
1701961753.1813924,-7.0,-7.0,-51.0,-14.0,-4.0,-7.0,-7.0,-5.0
1701961753.1813924,1.0,-2.0,19.0,10.0,2.0,10.0,8.0,2.0
1701961753.2016943,2.0,5.0,-14.0,-2.0,-1.0,-9.0,-6.0,-1.0
1701961753.2016943,-5.0,11.0,50.0,4.0,-1.0,0.0,1.0,-1.0
1701961753.2016943,0.0,5.0,23.0,-3.0,-9.0,-4.0,-1.0,2.0
1701961753.2016943,-17.0,-12.0,-31.0,10.0,10.0,-5.0,-1.0,-5.0
1701961753.2313871,4.0,9.0,20.0,36.0,10.0,8.0,2.0,0.0
1701961753.2313871,-3.0,-13.0,-42.0,-37.0,-4.0,-4.0,-2.0,-1.0
1701961753.2313871,0.0,7.0,24.0,0.0,-8.0,-7.0,-5.0,-3.0
1701961753.2313871,5.0,4.0,9.0,-5.0,-2.0,2.0,1.0,4.0
1701961753.2414367,5.0,-4.0,18.0,7.0,-3.0,4.0,-1.0,1.0
1701961753.2414367,0.0,-13.0,-32.0,-10.0,4.0,1.0,0.0,1.0
1701961753.2414367,4.0,-2.0,-8.0,-6.0,-2.0,-3.0,-1.0,-1.0
1701961753.2414367,0.0,-11.0,-4.0,-6.0,0.0,3.0,-2.0,-3.0
1701961753.2616909,2.0,20.0,9.0,2.0,5.0,5.0,2.0,0.0
1701961753.2616909,-3.0,-4.0,-27.0,4.0,-8.0,-7.0,1.0,1.0
1701961753.2616909,-3.0,-29.0,13.0,-16.0,2.0,1.0,-2.0,-1.0
1701961753.2616909,1.0,-2.0,-20.0,26.0,0.0,-2.0,0.0,-2.0
1701961753.29139,-13.0,-6.0,-12.0,-7.0,-1.0,1.0,-1.0,-2.0
1701961753.29139,0.0,-10.0,-16.0,-11.0,-1.0,-2.0,-1.0,-5.0
1701961753.29139,3.0,9.0,25.0,12.0,-4.0,-15.0,-2.0,-1.0
1701961753.29139,-3.0,0.0,1.0,-17.0,-6.0,-4.0,-3.0,-1.0
1701961753.3017094,-6.0,-16.0,-34.0,-29.0,-6.0,25.0,-13.0,-4.0
1701961753.3017094,-1.0,6.0,28.0,22.0,4.0,-8.0,0.0,-3.0
1701961753.3017094,-3.0,-1.0,-14.0,1.0,-2.0,9.0,-7.0,-3.0
1701961753.3017094,6.0,10.0,20.0,4.0,-2.0,-13.0,3.0,7.0
1701961753.3218052,2.0,0.0,3.0,6.0,-1.0,-14.0,-3.0,-11.0
1701961753.3218052,-1.0,-2.0,-65.0,-25.0,-7.0,3.0,1.0,4.0
1701961753.3218052,4.0,8.0,1.0,10.0,3.0,-7.0,1.0,3.0
1701961753.3218052,-6.0,-4.0,-16.0,-2.0,0.0,13.0,3.0,-15.0
1701961753.3413885,1.0,7.0,8.0,-10.0,-5.0,-6.0,5.0,21.0
1701961753.3413885,-1.0,3.0,24.0,8.0,2.0,2.0,-1.0,-3.0
1701961753.3413885,9.0,1.0,-11.0,0.0,3.0,-1.0,3.0,2.0
1701961753.3413885,-1.0,32.0,23.0,3.0,-5.0,3.0,-3.0,-1.0
1701961753.3617034,0.0,-1.0,9.0,-2.0,0.0,0.0,5.0,0.0
1701961753.3617034,-2.0,-8.0,-11.0,-4.0,4.0,-6.0,-3.0,-1.0
1701961753.3617034,-1.0,-17.0,-12.0,5.0,-1.0,3.0,-1.0,1.0
1701961753.3617034,5.0,0.0,-5.0,-12.0,2.0,4.0,0.0,1.0
1701961753.3817096,5.0,-2.0,-9.0,14.0,1.0,-10.0,-6.0,-4.0
1701961753.3817096,7.0,13.0,20.0,-16.0,-4.0,9.0,2.0,1.0
1701961753.3817096,-5.0,-3.0,-32.0,-5.0,0.0,2.0,-1.0,-8.0
1701961753.3817096,2.0,-8.0,26.0,16.0,1.0,-11.0,-5.0,3.0
1701961753.401386,2.0,-5.0,-27.0,-21.0,2.0,-13.0,-3.0,-6.0
1701961753.401386,-2.0,-7.0,10.0,19.0,-2.0,13.0,4.0,-3.0
1701961753.401386,-3.0,12.0,46.0,5.0,-1.0,-9.0,-7.0,2.0
1701961753.401386,-1.0,-15.0,-35.0,-22.0,-3.0,8.0,2.0,-1.0
1701961753.4217582,-9.0,-1.0,-18.0,-3.0,-7.0,-11.0,-2.0,-3.0
1701961753.4217582,1.0,3.0,17.0,3.0,2.0,10.0,9.0,0.0
1701961753.4217582,2.0,15.0,42.0,17.0,3.0,-7.0,-4.0,0.0
1701961753.4217582,-5.0,-20.0,-51.0,-5.0,-3.0,-6.0,-4.0,-1.0
1701961753.4413886,1.0,-5.0,-9.0,-13.0,-1.0,-6.0,-4.0,1.0
1701961753.4413886,-5.0,2.0,9.0,4.0,1.0,5.0,3.0,-2.0
1701961753.4413886,-3.0,2.0,-8.0,1.0,0.0,5.0,4.0,1.0
1701961753.4413886,2.0,-13.0,41.0,17.0,4.0,4.0,-2.0,-2.0
1701961753.4516995,-2.0,3.0,-30.0,-16.0,-2.0,4.0,0.0,-5.0
1701961753.4516995,0.0,-4.0,14.0,-4.0,-1.0,-12.0,-7.0,3.0
1701961753.4516995,-5.0,-18.0,-40.0,1.0,3.0,5.0,3.0,-1.0
1701961753.4516995,-2.0,-2.0,2.0,-16.0,-3.0,-1.0,0.0,0.0
1701961753.4825602,7.0,35.0,19.0,6.0,-1.0,-3.0,-3.0,-3.0
1701961753.4825602,4.0,2.0,15.0,-3.0,-9.0,-8.0,-6.0,0.0
1701961753.4825602,-1.0,-6.0,-11.0,-10.0,-3.0,2.0,-3.0,-2.0
1701961753.4825602,-2.0,8.0,17.0,7.0,2.0,2.0,7.0,2.0
1701961753.503573,-4.0,5.0,27.0,14.0,-2.0,1.0,-8.0,-5.0
1701961753.503573,1.0,0.0,-33.0,-19.0,-7.0,-33.0,0.0,-4.0
1701961753.503573,1.0,5.0,-5.0,2.0,2.0,33.0,6.0,0.0
1701961753.503573,-3.0,9.0,-3.0,-8.0,-4.0,-5.0,-4.0,0.0
1701961753.5138867,-2.0,-11.0,24.0,13.0,6.0,2.0,4.0,1.0
1701961753.5138867,-6.0,0.0,0.0,18.0,5.0,0.0,3.0,-1.0
1701961753.5138867,2.0,-3.0,-7.0,-15.0,-8.0,-23.0,-10.0,-3.0
1701961753.5138867,-8.0,-6.0,-26.0,-12.0,-4.0,-7.0,-5.0,-3.0
1701961753.534282,-3.0,-20.0,1.0,7.0,3.0,7.0,4.0,0.0
1701961753.534282,-8.0,6.0,14.0,10.0,1.0,0.0,-3.0,-8.0
1701961753.534282,9.0,24.0,13.0,-6.0,3.0,2.0,5.0,17.0
1701961753.534282,1.0,-4.0,-36.0,-3.0,-3.0,3.0,0.0,-4.0
1701961753.5638983,3.0,-9.0,14.0,-9.0,-5.0,-4.0,-1.0,1.0
1701961753.5638983,2.0,-14.0,-33.0,-5.0,-4.0,-17.0,-9.0,3.0
1701961753.5638983,3.0,7.0,23.0,3.0,-3.0,16.0,-8.0,-14.0
1701961753.5638983,-18.0,-6.0,13.0,4.0,8.0,3.0,7.0,0.0
1701961753.584314,-9.0,-31.0,-42.0,-5.0,-4.0,-9.0,-1.0,-4.0
1701961753.584314,5.0,17.0,44.0,5.0,-2.0,-1.0,-5.0,0.0
1701961753.584314,-12.0,-21.0,-39.0,-6.0,-8.0,-14.0,-3.0,-5.0
1701961753.584314,2.0,0.0,7.0,-5.0,-2.0,-2.0,-7.0,-2.0
1701961753.59427,-2.0,-4.0,-11.0,-2.0,-2.0,3.0,0.0,-2.0
1701961753.59427,0.0,8.0,10.0,3.0,3.0,2.0,3.0,4.0
1701961753.59427,1.0,-18.0,-19.0,-4.0,1.0,-3.0,1.0,-4.0
1701961753.59427,-2.0,17.0,2.0,5.0,-4.0,-28.0,-11.0,-2.0
1701961753.6242914,8.0,5.0,-14.0,-13.0,0.0,19.0,5.0,2.0
1701961753.6242914,1.0,1.0,19.0,2.0,3.0,20.0,7.0,1.0
1701961753.6242914,2.0,10.0,-42.0,-1.0,-3.0,-5.0,1.0,0.0
1701961753.6242914,3.0,5.0,61.0,2.0,-3.0,8.0,2.0,-1.0
1701961753.634226,-6.0,-13.0,-39.0,-12.0,-6.0,-10.0,2.0,-3.0
1701961753.634226,-3.0,-3.0,8.0,-5.0,-2.0,-20.0,-17.0,-2.0
1701961753.634226,-2.0,-6.0,6.0,1.0,-1.0,3.0,-2.0,-3.0
1701961753.634226,-2.0,6.0,8.0,8.0,0.0,11.0,-5.0,-3.0
1701961753.6542773,-2.0,2.0,20.0,9.0,4.0,4.0,5.0,-3.0
1701961753.6542773,-1.0,-7.0,-7.0,5.0,3.0,23.0,9.0,8.0
1701961753.6638994,-3.0,4.0,-5.0,-17.0,-6.0,-26.0,-9.0,-1.0
1701961753.6638994,-1.0,-11.0,25.0,11.0,4.0,-1.0,6.0,1.0
1701961753.6842875,-4.0,6.0,-16.0,-12.0,-5.0,-18.0,-17.0,-3.0
1701961753.6842875,1.0,-13.0,-19.0,0.0,-2.0,4.0,3.0,-3.0
1701961753.6842875,6.0,12.0,4.0,-6.0,-3.0,-8.0,-2.0,1.0
1701961753.6842875,5.0,-8.0,7.0,7.0,0.0,-6.0,4.0,7.0
1701961753.6942341,0.0,5.0,26.0,6.0,0.0,10.0,2.0,-2.0
1701961753.6942341,-2.0,14.0,-30.0,6.0,2.0,-8.0,-6.0,0.0
1701961753.6942341,-11.0,-33.0,-15.0,-32.0,-10.0,10.0,4.0,-5.0
1701961753.6942341,0.0,-9.0,-36.0,-18.0,-3.0,-8.0,1.0,-8.0
1701961753.7139394,3.0,14.0,51.0,17.0,8.0,5.0,-10.0,-4.0
1701961753.7139394,5.0,8.0,16.0,10.0,0.0,23.0,12.0,8.0
1701961753.7238975,1.0,10.0,9.0,4.0,7.0,26.0,10.0,2.0
1701961753.7238975,8.0,-11.0,-43.0,-11.0,-7.0,-6.0,-1.0,-2.0
1701961753.7441874,6.0,-13.0,-30.0,-13.0,-8.0,-13.0,4.0,-3.0
1701961753.7441874,-2.0,3.0,16.0,2.0,-1.0,-32.0,-15.0,-5.0
1701961753.7441874,-2.0,-7.0,-1.0,-4.0,0.0,30.0,3.0,-1.0
1701961753.7441874,6.0,4.0,2.0,3.0,3.0,-1.0,-3.0,1.0
1701961753.7541265,4.0,-1.0,4.0,6.0,-5.0,-19.0,-11.0,1.0
1701961753.7541265,-20.0,-7.0,-15.0,-7.0,2.0,24.0,8.0,-8.0
1701961753.7541265,3.0,4.0,31.0,9.0,-2.0,-27.0,0.0,3.0
1701961753.7541265,-1.0,-2.0,-16.0,-12.0,-2.0,19.0,1.0,1.0
1701961753.793899,-1.0,16.0,5.0,-8.0,-4.0,-8.0,-1.0,3.0
1701961753.793899,-8.0,-23.0,-23.0,-3.0,-5.0,-6.0,-2.0,-5.0
1701961753.793899,-5.0,8.0,15.0,11.0,-1.0,-48.0,-17.0,-7.0
1701961753.793899,-6.0,5.0,6.0,-5.0,2.0,47.0,12.0,-1.0
1701961753.8040094,5.0,2.0,-8.0,-3.0,3.0,31.0,12.0,5.0
1701961753.8139007,5.0,-18.0,-8.0,-11.0,-6.0,-10.0,-4.0,-6.0
1701961753.8139007,4.0,17.0,18.0,15.0,1.0,4.0,-1.0,2.0
1701961753.8139007,0.0,-11.0,1.0,-9.0,-6.0,-31.0,-11.0,0.0
1701961753.8139007,-6.0,-7.0,-41.0,-1.0,4.0,-5.0,1.0,0.0
1701961753.8139007,9.0,-11.0,6.0,-7.0,-6.0,8.0,-1.0,-4.0
1701961753.8139007,-7.0,-1.0,12.0,10.0,3.0,17.0,0.0,-4.0
1701961753.8139007,-7.0,-6.0,-26.0,-11.0,-3.0,-12.0,-5.0,-3.0
1701961753.8338966,2.0,-4.0,32.0,6.0,0.0,-2.0,-1.0,0.0
1701961753.8338966,-8.0,15.0,-25.0,-6.0,0.0,-5.0,-4.0,0.0
1701961753.8439035,-1.0,-11.0,-17.0,5.0,-2.0,-11.0,-5.0,-1.0
1701961753.8439035,-2.0,19.0,30.0,5.0,2.0,18.0,12.0,0.0
1701961753.864199,-3.0,-43.0,-12.0,-8.0,-3.0,-2.0,-6.0,-5.0
1701961753.864199,-5.0,8.0,24.0,-1.0,-3.0,-11.0,-5.0,-5.0
1701961753.864199,0.0,-21.0,-5.0,4.0,3.0,1.0,3.0,3.0
1701961753.864199,0.0,25.0,8.0,8.0,0.0,-7.0,-7.0,1.0
1701961753.874165,-1.0,6.0,-2.0,-2.0,-1.0,5.0,4.0,2.0
1701961753.874165,5.0,13.0,31.0,11.0,1.0,-14.0,-7.0,2.0
1701961753.884055,-7.0,-15.0,-49.0,-19.0,-3.0,22.0,7.0,-3.0
1701961753.884055,-2.0,-3.0,36.0,10.0,1.0,-12.0,-6.0,-3.0
1701961753.8938978,-1.0,-9.0,-70.0,-10.0,-1.0,13.0,8.0,1.0
1701961753.8938978,-2.0,-11.0,-3.0,-5.0,-3.0,2.0,1.0,-3.0
1701961753.9039023,-8.0,8.0,14.0,1.0,-2.0,-10.0,-6.0,-6.0
1701961753.9039023,3.0,-8.0,-6.0,0.0,-3.0,-13.0,-8.0,0.0
1701961753.9241977,0.0,14.0,16.0,2.0,1.0,1.0,2.0,3.0
1701961753.9241977,-11.0,-14.0,-2.0,-4.0,-1.0,-3.0,-3.0,-8.0
1701961753.9241977,-9.0,20.0,33.0,9.0,2.0,-1.0,0.0,1.0
1701961753.9241977,-2.0,2.0,-19.0,0.0,0.0,0.0,0.0,-3.0
1701961753.9439013,-6.0,-19.0,16.0,4.0,0.0,-4.0,-4.0,-1.0
1701961753.9439013,9.0,0.0,-44.0,-1.0,-3.0,4.0,2.0,3.0
1701961753.9538975,5.0,-11.0,-13.0,-39.0,-9.0,-7.0,-1.0,5.0
1701961753.9538975,-8.0,-11.0,16.0,10.0,1.0,3.0,-1.0,2.0
1701961753.9538975,9.0,5.0,-14.0,1.0,-6.0,-7.0,-3.0,-4.0
1701961753.9538975,3.0,3.0,12.0,6.0,4.0,3.0,0.0,1.0
1701961753.9538975,3.0,-7.0,1.0,-3.0,-7.0,-6.0,2.0,1.0
1701961753.9538975,4.0,-2.0,-6.0,6.0,0.0,5.0,-3.0,-1.0
1701961753.9843035,2.0,1.0,-17.0,-11.0,-5.0,-26.0,-5.0,-2.0
1701961753.9843035,-2.0,-3.0,-37.0,-11.0,-1.0,21.0,2.0,2.0
1701961753.9843035,5.0,0.0,17.0,13.0,5.0,-2.0,2.0,0.0
1701961753.9843035,5.0,4.0,15.0,-4.0,1.0,-1.0,-2.0,-1.0
1701961753.9942396,-8.0,12.0,37.0,7.0,0.0,-2.0,0.0,0.0
1701961753.9942396,-2.0,10.0,15.0,6.0,-4.0,-4.0,-1.0,-1.0
1701961754.0071871,-1.0,-11.0,-14.0,-4.0,3.0,2.0,-3.0,0.0
1701961754.0071871,8.0,-10.0,-7.0,-9.0,-10.0,-9.0,-8.0,-2.0
1701961754.0221982,-1.0,12.0,19.0,6.0,4.0,13.0,6.0,3.0
1701961754.0221982,2.0,-1.0,-14.0,-3.0,-1.0,4.0,3.0,-1.0
1701961754.0299644,3.0,0.0,17.0,8.0,0.0,5.0,2.0,-2.0
1701961754.030987,7.0,-4.0,-15.0,0.0,1.0,-4.0,0.0,1.0
1701961754.0366166,-10.0,5.0,27.0,-4.0,-2.0,-7.0,-4.0,-4.0
1701961754.0366166,2.0,-4.0,-9.0,-8.0,-4.0,-22.0,-10.0,-1.0
1701961754.0466158,-1.0,9.0,8.0,18.0,9.0,44.0,11.0,-1.0
1701961754.0466158,0.0,3.0,-2.0,-4.0,3.0,6.0,8.0,7.0
1701961754.0766096,-1.0,3.0,0.0,1.0,-1.0,1.0,-1.0,-2.0
1701961754.0766096,-3.0,0.0,6.0,-9.0,-2.0,-15.0,1.0,1.0
1701961754.0766096,-4.0,10.0,-3.0,2.0,-5.0,-21.0,-6.0,-4.0
1701961754.0766096,-1.0,-3.0,-9.0,-3.0,0.0,-5.0,-10.0,-1.0
1701961754.0766096,2.0,5.0,6.0,6.0,6.0,1.0,1.0,0.0
1701961754.0766096,-2.0,-6.0,-14.0,-1.0,0.0,5.0,4.0,1.0
1701961754.0766096,5.0,4.0,17.0,4.0,-4.0,0.0,0.0,-4.0
1701961754.0766096,-15.0,-17.0,-27.0,-22.0,-11.0,-4.0,1.0,-5.0
1701961754.0966437,-3.0,14.0,18.0,7.0,2.0,-7.0,-4.0,1.0
1701961754.0966437,-3.0,19.0,27.0,13.0,4.0,-2.0,-1.0,-3.0
1701961754.0966437,2.0,-4.0,-47.0,-16.0,-7.0,-9.0,-3.0,1.0
1701961754.0966437,-8.0,2.0,5.0,0.0,0.0,-12.0,-10.0,-5.0
1701961754.1266088,-1.0,-9.0,-15.0,-4.0,1.0,28.0,9.0,-2.0
1701961754.1266088,6.0,-1.0,8.0,1.0,0.0,12.0,9.0,3.0
1701961754.1266088,-2.0,-3.0,-5.0,-9.0,1.0,-3.0,-8.0,-1.0
1701961754.1266088,4.0,10.0,12.0,6.0,-2.0,-14.0,2.0,4.0
1701961754.136919,-13.0,-17.0,-14.0,-6.0,-5.0,2.0,-4.0,-6.0
1701961754.136919,1.0,-3.0,16.0,7.0,-4.0,-5.0,-1.0,0.0
1701961754.136919,6.0,-2.0,-4.0,-1.0,1.0,-7.0,-2.0,-1.0
1701961754.136919,-2.0,-9.0,-20.0,-5.0,-2.0,-6.0,-18.0,-5.0
1701961754.1666102,2.0,3.0,-1.0,-5.0,-5.0,7.0,6.0,2.0
1701961754.1666102,10.0,2.0,43.0,15.0,5.0,11.0,6.0,3.0
1701961754.1666102,-7.0,2.0,-84.0,-27.0,-10.0,-8.0,-2.0,-2.0
1701961754.1666102,-17.0,29.0,14.0,13.0,1.0,4.0,2.0,-4.0
1701961754.1766605,-5.0,-20.0,-32.0,-7.0,0.0,-7.0,-5.0,-1.0
1701961754.1766605,4.0,12.0,18.0,3.0,1.0,0.0,-2.0,1.0
1701961754.1868365,5.0,-13.0,9.0,0.0,-3.0,-2.0,-3.0,0.0
1701961754.1868365,7.0,7.0,18.0,24.0,6.0,6.0,5.0,0.0
1701961754.1968458,-4.0,-20.0,0.0,-27.0,-9.0,-10.0,-7.0,-4.0
1701961754.1968458,-1.0,3.0,-33.0,-7.0,2.0,0.0,-1.0,-1.0
1701961754.1968458,-1.0,16.0,25.0,6.0,3.0,2.0,0.0,1.0
1701961754.1968458,-3.0,-30.0,-22.0,-2.0,-3.0,5.0,6.0,0.0
1701961754.2168324,-3.0,-10.0,30.0,11.0,1.0,2.0,-3.0,-2.0
1701961754.2168324,5.0,2.0,-1.0,-4.0,-3.0,-10.0,-5.0,-1.0
1701961754.2266169,5.0,-4.0,24.0,4.0,-1.0,-4.0,-4.0,-2.0
1701961754.2266169,2.0,-13.0,17.0,4.0,-1.0,2.0,-1.0,-3.0
1701961754.256613,-4.0,26.0,23.0,21.0,7.0,-12.0,-4.0,-1.0
1701961754.256613,-13.0,3.0,-5.0,-12.0,2.0,23.0,9.0,-3.0
1701961754.256613,-15.0,-14.0,-29.0,-12.0,-8.0,-5.0,-3.0,-3.0
1701961754.256613,3.0,-3.0,-13.0,-5.0,3.0,1.0,2.0,-2.0
1701961754.256613,2.0,15.0,28.0,4.0,-2.0,-5.0,-1.0,-2.0
1701961754.256613,-1.0,-12.0,22.0,14.0,1.0,-10.0,0.0,3.0
1701961754.256613,1.0,7.0,-2.0,6.0,3.0,3.0,3.0,4.0
1701961754.256613,6.0,21.0,-17.0,1.0,-1.0,-4.0,-4.0,-4.0
1701961754.2866104,-4.0,35.0,1.0,-10.0,-4.0,-4.0,-2.0,1.0
1701961754.2866104,-2.0,-15.0,-16.0,-7.0,0.0,-2.0,-2.0,-1.0
1701961754.2866104,-4.0,1.0,55.0,26.0,4.0,-2.0,-3.0,-8.0
1701961754.2866104,0.0,-5.0,-49.0,-51.0,-11.0,21.0,9.0,10.0
1701961754.3069813,-1.0,-8.0,-40.0,-4.0,-6.0,-40.0,-13.0,0.0
1701961754.3069813,0.0,6.0,12.0,-1.0,2.0,54.0,2.0,-5.0
1701961754.3069813,-4.0,3.0,9.0,7.0,1.0,-18.0,1.0,-3.0
1701961754.3069813,-10.0,-26.0,4.0,9.0,0.0,-15.0,-15.0,-8.0
1701961754.3168893,-12.0,4.0,36.0,11.0,6.0,17.0,11.0,-1.0
1701961754.3168893,-8.0,-14.0,-65.0,-12.0,-9.0,-32.0,-13.0,-3.0
1701961754.3168893,-6.0,-16.0,-19.0,-11.0,-3.0,0.0,-6.0,-3.0
1701961754.3168893,-7.0,5.0,31.0,8.0,3.0,10.0,7.0,-2.0
1701961754.3466108,7.0,-15.0,9.0,3.0,-2.0,0.0,2.0,1.0
1701961754.3466108,-12.0,-7.0,-44.0,-20.0,-5.0,-25.0,-12.0,-5.0
1701961754.3466108,-2.0,12.0,25.0,12.0,2.0,27.0,8.0,4.0
1701961754.3466108,3.0,9.0,-11.0,-8.0,0.0,-5.0,-4.0,-1.0
1701961754.3669662,8.0,13.0,-20.0,-1.0,-4.0,6.0,1.0,0.0
1701961754.3669662,-1.0,-5.0,30.0,34.0,5.0,-4.0,0.0,-2.0
1701961754.3669662,-8.0,7.0,5.0,-34.0,-5.0,-8.0,1.0,0.0
1701961754.3669662,-2.0,-7.0,-30.0,-17.0,-9.0,-15.0,-7.0,-1.0
1701961754.3768718,15.0,6.0,-1.0,13.0,3.0,17.0,3.0,3.0
1701961754.3768718,10.0,-19.0,-25.0,-27.0,-5.0,13.0,8.0,5.0
1701961754.3768718,6.0,26.0,-1.0,0.0,-3.0,-9.0,-7.0,-3.0
1701961754.3768718,1.0,6.0,16.0,11.0,2.0,-6.0,-4.0,-8.0
1701961754.4066103,2.0,-12.0,-1.0,-2.0,0.0,-17.0,-1.0,6.0
1701961754.4066103,-9.0,-11.0,-9.0,-8.0,-2.0,9.0,-8.0,-3.0
1701961754.4066103,11.0,2.0,24.0,23.0,8.0,27.0,17.0,5.0
1701961754.4066103,-2.0,1.0,13.0,-12.0,-3.0,1.0,8.0,5.0
1701961754.4268684,-6.0,-24.0,-72.0,-21.0,-8.0,4.0,-7.0,-7.0
1701961754.4268684,-2.0,-2.0,25.0,10.0,0.0,-25.0,-12.0,-3.0
1701961754.4268684,2.0,-4.0,-2.0,3.0,-2.0,-5.0,-4.0,-1.0
1701961754.4268684,-5.0,-2.0,23.0,37.0,-1.0,-2.0,-2.0,-3.0
1701961754.4368005,-4.0,-14.0,-35.0,-66.0,-13.0,-3.0,-10.0,-7.0
1701961754.4368005,1.0,10.0,4.0,3.0,3.0,0.0,0.0,-6.0
1701961754.4466162,-2.0,-23.0,-13.0,0.0,0.0,-6.0,0.0,9.0
1701961754.4466162,4.0,-10.0,-27.0,0.0,1.0,10.0,4.0,4.0
1701961754.4666083,-1.0,-2.0,18.0,24.0,4.0,-6.0,2.0,-1.0
1701961754.4666083,5.0,7.0,-17.0,-11.0,-7.0,4.0,-5.0,-5.0
1701961754.4666083,-3.0,-36.0,8.0,-9.0,-2.0,-9.0,-8.0,-7.0
1701961754.4666083,8.0,10.0,4.0,15.0,6.0,-9.0,0.0,4.0
1701961754.4869618,-1.0,13.0,7.0,-12.0,-4.0,3.0,0.0,-4.0
1701961754.4869618,-2.0,10.0,0.0,-4.0,2.0,15.0,12.0,5.0
1701961754.4869618,-4.0,-5.0,6.0,15.0,2.0,-12.0,-11.0,-3.0
1701961754.4869618,5.0,-5.0,-10.0,-3.0,0.0,3.0,2.0,3.0
1701961754.4968994,-1.0,13.0,-20.0,4.0,3.0,-3.0,-4.0,-3.0
1701961754.4968994,-11.0,6.0,-8.0,-9.0,-6.0,-12.0,4.0,3.0
1701961754.5066102,5.0,17.0,-4.0,7.0,1.0,-6.0,-14.0,-6.0
1701961754.5066102,-3.0,7.0,6.0,-11.0,-2.0,16.0,1.0,-5.0
1701961754.5166657,-5.0,-13.0,1.0,12.0,4.0,12.0,7.0,3.0
1701961754.5166657,2.0,8.0,49.0,13.0,0.0,-13.0,0.0,1.0
1701961754.5166657,-9.0,-18.0,-8.0,-4.0,-6.0,-38.0,-7.0,0.0
1701961754.5166657,-5.0,-15.0,-34.0,-15.0,-2.0,21.0,-3.0,-7.0
1701961754.5473084,3.0,-7.0,5.0,10.0,1.0,16.0,0.0,-5.0
1701961754.5479882,-9.0,-11.0,2.0,1.0,-3.0,-1.0,-7.0,0.0
1701961754.5479882,0.0,-3.0,-43.0,-12.0,0.0,-27.0,17.0,12.0
1701961754.5479882,1.0,9.0,34.0,4.0,3.0,36.0,-3.0,-2.0
1701961754.5630186,5.0,-21.0,9.0,-3.0,-5.0,7.0,-6.0,-1.0
1701961754.5630186,-4.0,-7.0,-12.0,-6.0,-6.0,-15.0,7.0,-9.0
1701961754.5630186,-15.0,19.0,8.0,7.0,1.0,-12.0,-23.0,-9.0
1701961754.5630186,-9.0,-1.0,-4.0,-10.0,-4.0,-12.0,-1.0,-1.0
1701961754.5794725,-4.0,4.0,9.0,4.0,-1.0,-9.0,1.0,-4.0
1701961754.5794725,12.0,10.0,-2.0,6.0,7.0,6.0,-10.0,8.0
1701961754.5794725,1.0,-5.0,-17.0,-11.0,-3.0,40.0,14.0,1.0
1701961754.5794725,2.0,-4.0,30.0,12.0,-1.0,-13.0,-4.0,0.0
1701961754.5995357,-19.0,-9.0,-35.0,-8.0,-2.0,3.0,-1.0,-3.0
1701961754.5995357,5.0,1.0,25.0,-5.0,-3.0,-14.0,-3.0,-4.0
1701961754.6093118,-2.0,10.0,-11.0,-9.0,-3.0,-7.0,-6.0,-1.0
1701961754.6093118,2.0,-6.0,-16.0,-2.0,-2.0,1.0,-5.0,-5.0
1701961754.6194057,5.0,9.0,51.0,29.0,4.0,-5.0,10.0,5.0
1701961754.6194057,0.0,-3.0,-8.0,-17.0,-4.0,-14.0,-11.0,-3.0
1701961754.6492493,-6.0,1.0,-34.0,-11.0,-3.0,15.0,7.0,-6.0
1701961754.6492493,13.0,-4.0,21.0,1.0,0.0,-4.0,9.0,4.0
1701961754.6492493,-8.0,21.0,-30.0,-3.0,-3.0,8.0,-4.0,-1.0
1701961754.6492493,2.0,1.0,3.0,5.0,0.0,-18.0,-1.0,-7.0
1701961754.6492493,3.0,-1.0,33.0,12.0,4.0,26.0,10.0,1.0
1701961754.6492493,2.0,0.0,0.0,-1.0,-3.0,-17.0,11.0,0.0
1701961754.6596498,4.0,-5.0,-3.0,-3.0,-1.0,0.0,-15.0,4.0
1701961754.6596498,-1.0,-8.0,-8.0,-4.0,-3.0,-5.0,2.0,-2.0
1701961754.6692533,-1.0,-3.0,2.0,-2.0,3.0,10.0,0.0,-6.0
1701961754.6692533,0.0,0.0,8.0,5.0,-3.0,-28.0,-1.0,5.0
1701961754.6792774,2.0,-16.0,-47.0,-13.0,2.0,21.0,5.0,2.0
1701961754.6792774,-23.0,6.0,28.0,6.0,-2.0,-2.0,-9.0,-6.0
1701961754.6792774,7.0,3.0,-29.0,-3.0,-1.0,8.0,5.0,0.0
1701961754.6792774,-12.0,-9.0,-8.0,-13.0,-4.0,-2.0,-7.0,-4.0
1701961754.6996312,3.0,-6.0,18.0,8.0,3.0,-19.0,-6.0,-1.0
1701961754.6996312,15.0,-4.0,13.0,12.0,2.0,12.0,1.0,0.0
1701961754.6996312,14.0,18.0,0.0,-16.0,-4.0,31.0,12.0,5.0
1701961754.6996312,-6.0,-11.0,-12.0,-1.0,-5.0,-31.0,-9.0,0.0
1701961754.7198985,-6.0,-14.0,-34.0,-13.0,-6.0,20.0,1.0,-7.0
1701961754.7198985,6.0,0.0,10.0,11.0,5.0,14.0,7.0,4.0
1701961754.7396555,-2.0,-11.0,2.0,1.0,-4.0,-34.0,-11.0,-9.0
1701961754.7396555,3.0,-11.0,-15.0,-2.0,-1.0,15.0,1.0,-1.0
1701961754.7496521,3.0,12.0,47.0,4.0,-3.0,-18.0,0.0,0.0
1701961754.7496521,-4.0,-21.0,-4.0,-8.0,-7.0,-14.0,-3.0,-2.0
1701961754.7496521,-11.0,5.0,-19.0,-10.0,-5.0,-16.0,-15.0,-11.0
1701961754.7496521,-1.0,15.0,1.0,1.0,0.0,28.0,-8.0,-3.0
1701961754.7599225,-2.0,-12.0,8.0,6.0,10.0,19.0,16.0,4.0
1701961754.7599225,-2.0,-1.0,-36.0,-7.0,-7.0,-11.0,-7.0,-2.0
1701961754.7599225,-5.0,-16.0,33.0,7.0,-1.0,-31.0,-9.0,-2.0
1701961754.7599225,2.0,13.0,31.0,6.0,0.0,31.0,2.0,0.0
1701961754.779994,-7.0,-9.0,-34.0,-10.0,-4.0,-8.0,-3.0,-5.0
1701961754.779994,-2.0,-2.0,14.0,15.0,6.0,26.0,6.0,-1.0
1701961754.7896526,1.0,-24.0,-38.0,-20.0,-9.0,-26.0,-8.0,-1.0
1701961754.7896526,9.0,10.0,-6.0,-12.0,-3.0,0.0,-2.0,7.0
1701961754.799684,-8.0,3.0,19.0,7.0,1.0,-12.0,-5.0,-3.0
1701961754.799684,3.0,6.0,-15.0,-17.0,1.0,14.0,13.0,4.0
1701961754.8098667,-4.0,-10.0,21.0,12.0,-1.0,-1.0,-3.0,3.0
1701961754.8098667,-2.0,-7.0,-27.0,-1.0,2.0,-45.0,1.0,-1.0
1701961754.819883,0.0,9.0,-4.0,1.0,1.0,24.0,-7.0,-6.0
1701961754.819883,-3.0,-3.0,-7.0,-6.0,-1.0,35.0,14.0,5.0
1701961754.819883,2.0,-2.0,2.0,1.0,1.0,-6.0,-1.0,3.0
1701961754.819883,-10.0,4.0,12.0,5.0,1.0,4.0,-5.0,-8.0
1701961754.8398888,5.0,8.0,49.0,9.0,-1.0,3.0,4.0,2.0
1701961754.8398888,-17.0,-7.0,-3.0,5.0,-1.0,-21.0,-8.0,-15.0
1701961754.8596535,-4.0,3.0,11.0,-2.0,-3.0,0.0,-9.0,5.0
1701961754.8596535,-7.0,-10.0,-60.0,-15.0,-6.0,-9.0,-3.0,-6.0
1701961754.86965,-6.0,9.0,30.0,14.0,1.0,-3.0,-9.0,-6.0
1701961754.86965,1.0,23.0,-1.0,-11.0,-1.0,-4.0,-4.0,3.0
1701961754.86965,1.0,-7.0,1.0,3.0,-2.0,2.0,5.0,-5.0
1701961754.8796492,1.0,-13.0,59.0,7.0,2.0,4.0,-7.0,-4.0
1701961754.8796492,5.0,-18.0,-80.0,-15.0,-10.0,-50.0,-6.0,4.0
1701961754.8796492,0.0,-2.0,2.0,5.0,8.0,57.0,16.0,0.0
1701961754.8796492,1.0,-4.0,-6.0,-3.0,4.0,-4.0,2.0,5.0
1701961754.8796492,1.0,-7.0,14.0,3.0,-4.0,-4.0,4.0,0.0
1701961754.8998458,5.0,-6.0,-14.0,-3.0,-1.0,-9.0,-3.0,-2.0
1701961754.8998458,3.0,1.0,26.0,-6.0,0.0,-12.0,-7.0,3.0
1701961754.8998458,-1.0,-10.0,-29.0,-1.0,-5.0,6.0,1.0,0.0
1701961754.8998458,5.0,8.0,19.0,3.0,3.0,7.0,6.0,3.0
1701961754.9197001,8.0,39.0,61.0,12.0,-4.0,-6.0,4.0,-2.0
1701961754.9197001,-8.0,-30.0,-52.0,-1.0,0.0,-25.0,-11.0,1.0
1701961754.9296508,3.0,3.0,23.0,16.0,12.0,31.0,6.0,1.0
1701961754.9296508,-9.0,-5.0,-28.0,-28.0,-12.0,-15.0,-1.0,-1.0
1701961754.9397602,-2.0,4.0,16.0,20.0,4.0,2.0,-1.0,0.0
1701961754.9397602,8.0,21.0,12.0,-3.0,-2.0,-11.0,-9.0,-3.0
1701961754.9397602,-15.0,-14.0,25.0,9.0,1.0,4.0,5.0,-5.0
1701961754.9397602,-2.0,-2.0,-35.0,-21.0,-17.0,1.0,-2.0,-4.0
1701961754.9596498,-3.0,-5.0,2.0,24.0,19.0,0.0,2.0,7.0
1701961754.9596498,-1.0,17.0,56.0,12.0,-1.0,-1.0,2.0,-4.0
1701961754.969823,-8.0,-15.0,-39.0,-8.0,-6.0,1.0,1.0,-1.0
1701961754.969823,-12.0,12.0,-14.0,6.0,5.0,-3.0,-3.0,-2.0
1701961754.9798486,-4.0,-4.0,7.0,-14.0,-22.0,-4.0,-4.0,-4.0
1701961754.9798486,3.0,-5.0,-26.0,-28.0,6.0,-9.0,-2.0,1.0
1701961754.9898667,4.0,22.0,19.0,2.0,2.0,6.0,-1.0,-1.0
1701961754.9898667,-4.0,-9.0,-6.0,1.0,-21.0,-4.0,-4.0,-4.0
1701961754.9998925,0.0,-14.0,-13.0,5.0,8.0,-1.0,2.0,2.0
1701961754.9998925,-2.0,-5.0,11.0,9.0,-17.0,-8.0,-4.0,0.0
1701961754.9998925,5.0,4.0,12.0,4.0,12.0,5.0,0.0,-3.0
1701961754.9998925,3.0,-1.0,-17.0,-18.0,-2.0,0.0,1.0,1.0
1701961755.0296535,-4.0,8.0,4.0,-3.0,1.0,0.0,-1.0,1.0
1701961755.0296535,0.0,-6.0,5.0,-15.0,-8.0,-14.0,-4.0,0.0
1701961755.0296535,4.0,7.0,13.0,-18.0,-10.0,-1.0,-1.0,-1.0
1701961755.0296535,-1.0,-18.0,-29.0,19.0,9.0,-21.0,-9.0,-2.0
1701961755.039683,-6.0,29.0,-9.0,-26.0,-4.0,-14.0,-7.0,-6.0
1701961755.039683,-1.0,-7.0,-6.0,18.0,5.0,65.0,3.0,-2.0
1701961755.0499597,1.0,-9.0,29.0,17.0,4.0,-14.0,-3.0,-1.0
1701961755.0499597,10.0,23.0,46.0,26.0,14.0,5.0,2.0,2.0
1701961755.0709405,-1.0,-32.0,-79.0,-62.0,-15.0,-17.0,-7.0,-5.0
1701961755.0709405,-10.0,7.0,-13.0,-3.0,-9.0,-27.0,-3.0,-2.0
1701961755.0739405,10.0,28.0,12.0,5.0,2.0,10.0,4.0,3.0
1701961755.0739405,-12.0,-31.0,-11.0,-2.0,2.0,4.0,-4.0,-4.0
1701961755.0856936,1.0,-6.0,22.0,8.0,-7.0,-20.0,-9.0,0.0
1701961755.0856936,12.0,17.0,2.0,2.0,6.0,7.0,5.0,1.0
1701961755.0856936,-2.0,0.0,-4.0,-5.0,-1.0,3.0,12.0,1.0
1701961755.0856936,11.0,14.0,25.0,15.0,7.0,-28.0,-7.0,3.0
1701961755.0959647,5.0,-8.0,-19.0,-8.0,2.0,53.0,19.0,2.0
1701961755.0959647,-9.0,-16.0,-33.0,-8.0,0.0,-36.0,-26.0,-3.0
1701961755.1060104,-2.0,1.0,-1.0,14.0,0.0,26.0,2.0,-5.0
1701961755.1060104,0.0,7.0,15.0,-4.0,3.0,16.0,13.0,-1.0
1701961755.1256971,-8.0,-6.0,42.0,3.0,4.0,-5.0,-7.0,-7.0
1701961755.1256971,7.0,-1.0,-37.0,-10.0,-4.0,-5.0,9.0,4.0
1701961755.1256971,-4.0,-13.0,-9.0,-11.0,-14.0,-30.0,-12.0,-4.0
1701961755.1256971,5.0,-24.0,-58.0,-10.0,0.0,-5.0,-9.0,-2.0
1701961755.1459448,0.0,39.0,36.0,15.0,5.0,9.0,4.0,2.0
1701961755.1459448,2.0,-2.0,13.0,7.0,1.0,4.0,11.0,3.0
1701961755.1459448,1.0,-3.0,-31.0,-26.0,-7.0,-5.0,-7.0,0.0
1701961755.1459448,-8.0,-9.0,7.0,5.0,-2.0,-32.0,-2.0,-1.0
1701961755.1557026,3.0,-1.0,21.0,-3.0,-7.0,26.0,3.0,5.0
1701961755.1557026,0.0,-5.0,8.0,4.0,-3.0,-8.0,-9.0,-8.0
1701961755.1657026,1.0,-4.0,-14.0,9.0,7.0,23.0,6.0,3.0
1701961755.1657026,2.0,13.0,12.0,0.0,-2.0,7.0,5.0,0.0
1701961755.195699,-5.0,-12.0,10.0,4.0,-5.0,-49.0,-11.0,-5.0
1701961755.195699,-10.0,-9.0,-20.0,-3.0,2.0,20.0,4.0,-2.0
1701961755.195699,5.0,-11.0,-21.0,0.0,-2.0,-25.0,-12.0,-3.0
1701961755.195699,-5.0,7.0,23.0,-9.0,-3.0,40.0,13.0,1.0
1701961755.205723,-5.0,4.0,-34.0,0.0,-4.0,-21.0,-8.0,-1.0
1701961755.205723,-11.0,-5.0,31.0,8.0,9.0,15.0,12.0,0.0
1701961755.205723,6.0,3.0,0.0,1.0,1.0,-19.0,-5.0,4.0
1701961755.205723,1.0,15.0,20.0,4.0,3.0,25.0,7.0,1.0
1701961755.2260315,0.0,0.0,0.0,5.0,-1.0,-18.0,-14.0,-5.0
1701961755.2260315,7.0,1.0,-11.0,-3.0,2.0,14.0,13.0,0.0
1701961755.2260315,3.0,-6.0,-13.0,-13.0,-14.0,-22.0,-14.0,-3.0
1701961755.2260315,3.0,-4.0,-9.0,-3.0,-3.0,-16.0,-8.0,1.0
1701961755.245695,2.0,-7.0,7.0,-4.0,2.0,23.0,14.0,-2.0
1701961755.245695,-4.0,9.0,13.0,4.0,2.0,-7.0,-3.0,2.0
1701961755.245695,-7.0,-11.0,23.0,5.0,3.0,9.0,7.0,-1.0
1701961755.245695,-3.0,-2.0,-11.0,-5.0,-1.0,-7.0,-2.0,0.0
1701961755.2658741,0.0,-21.0,-8.0,7.0,4.0,0.0,0.0,-2.0
1701961755.2658741,8.0,9.0,-12.0,-6.0,-8.0,-12.0,-9.0,-2.0
1701961755.2658741,-15.0,0.0,-15.0,-1.0,-3.0,15.0,1.0,-6.0
1701961755.2658741,6.0,18.0,6.0,-12.0,-1.0,-11.0,-9.0,0.0
1701961755.305696,0.0,2.0,3.0,4.0,-1.0,9.0,8.0,-1.0
1701961755.305696,-6.0,-9.0,12.0,-4.0,-3.0,-30.0,-27.0,-4.0
1701961755.305696,1.0,1.0,15.0,6.0,-2.0,11.0,7.0,1.0
1701961755.305696,-4.0,-6.0,-25.0,1.0,5.0,36.0,15.0,0.0
1701961755.305696,-1.0,1.0,8.0,-8.0,-5.0,-44.0,-3.0,1.0
1701961755.305696,1.0,-9.0,-17.0,-2.0,-2.0,21.0,-6.0,-3.0
1701961755.305696,2.0,7.0,10.0,0.0,-1.0,-27.0,-10.0,1.0
1701961755.305696,-1.0,3.0,-1.0,1.0,-4.0,4.0,-5.0,-5.0
1701961755.325982,-5.0,-6.0,-11.0,1.0,1.0,-20.0,-3.0,6.0
1701961755.325982,-4.0,-9.0,-43.0,-13.0,-10.0,30.0,3.0,-7.0
1701961755.325982,-7.0,2.0,4.0,0.0,5.0,8.0,4.0,-1.0
1701961755.325982,-3.0,12.0,8.0,4.0,-3.0,-20.0,-12.0,-3.0
1701961755.3557556,4.0,-2.0,7.0,-5.0,1.0,17.0,-8.0,-7.0
1701961755.3557556,-2.0,3.0,26.0,10.0,2.0,-34.0,0.0,3.0
1701961755.3557556,-3.0,-10.0,6.0,3.0,0.0,24.0,-6.0,-5.0
1701961755.3557556,-4.0,-30.0,-14.0,-9.0,-1.0,-1.0,0.0,-5.0
1701961755.3557556,-3.0,1.0,-42.0,-9.0,-11.0,-23.0,-11.0,-3.0
1701961755.3557556,-4.0,1.0,20.0,2.0,3.0,4.0,-10.0,-2.0
1701961755.3557556,5.0,6.0,-22.0,-12.0,4.0,-11.0,24.0,5.0
1701961755.3557556,1.0,-8.0,28.0,17.0,8.0,52.0,17.0,1.0
1701961755.3860934,4.0,-3.0,1.0,-6.0,-7.0,-28.0,-12.0,-3.0
1701961755.3860934,-6.0,-2.0,19.0,-6.0,-9.0,-56.0,-12.0,-1.0
1701961755.3860934,1.0,-2.0,-7.0,12.0,4.0,70.0,12.0,2.0
1701961755.3860934,-3.0,8.0,-41.0,-17.0,-6.0,-39.0,-9.0,-1.0
1701961755.4057717,1.0,-3.0,-6.0,-1.0,0.0,50.0,-5.0,2.0
1701961755.4057717,5.0,26.0,15.0,14.0,12.0,10.0,15.0,3.0
1701961755.4057717,-5.0,-8.0,36.0,-10.0,-14.0,-62.0,-10.0,-5.0
1701961755.4057717,-3.0,28.0,38.0,11.0,0.0,11.0,-13.0,-5.0
1701961755.4157941,-5.0,-31.0,-43.0,-3.0,-4.0,-17.0,-1.0,-2.0
1701961755.4157941,8.0,-25.0,-29.0,-4.0,-2.0,-11.0,-3.0,0.0
1701961755.425839,1.0,10.0,-3.0,-8.0,1.0,4.0,-10.0,0.0
1701961755.425839,-5.0,3.0,27.0,9.0,1.0,-3.0,7.0,3.0
1701961755.4461515,-3.0,26.0,-8.0,-10.0,-3.0,2.0,4.0,-6.0
1701961755.4461515,3.0,-30.0,-6.0,3.0,-3.0,-1.0,0.0,0.0
1701961755.4461515,2.0,10.0,10.0,12.0,2.0,8.0,-2.0,0.0
1701961755.4461515,-1.0,-11.0,-16.0,-12.0,-4.0,-28.0,-6.0,0.0
1701961755.476161,6.0,-11.0,-34.0,-12.0,1.0,30.0,12.0,2.0
1701961755.476161,-9.0,-2.0,25.0,4.0,0.0,0.0,0.0,0.0
1701961755.476161,-22.0,3.0,-14.0,-1.0,-1.0,-8.0,-8.0,-5.0
1701961755.476161,-9.0,-9.0,3.0,-23.0,-11.0,-22.0,-8.0,-6.0
1701961755.476161,10.0,1.0,24.0,23.0,15.0,47.0,12.0,10.0
1701961755.476161,7.0,13.0,12.0,-13.0,-5.0,-6.0,4.0,1.0
1701961755.4861681,0.0,4.0,8.0,24.0,-6.0,-14.0,-1.0,-1.0
1701961755.4861681,4.0,-6.0,-49.0,-19.0,1.0,-22.0,-11.0,-1.0
1701961755.5061693,-12.0,1.0,11.0,-7.0,-4.0,3.0,-1.0,-3.0
1701961755.5061693,-12.0,-18.0,6.0,-36.0,-17.0,12.0,3.0,-5.0
1701961755.5161712,14.0,18.0,29.0,59.0,32.0,-3.0,1.0,9.0
1701961755.5161712,-6.0,-16.0,26.0,26.0,-1.0,8.0,2.0,-6.0
1701961755.5261633,-25.0,-17.0,-48.0,-62.0,-27.0,-21.0,-10.0,-9.0
1701961755.5261633,-2.0,1.0,-13.0,22.0,35.0,9.0,-1.0,-3.0
1701961755.5261633,3.0,9.0,-4.0,-21.0,-8.0,3.0,-1.0,2.0
1701961755.5261633,-10.0,21.0,19.0,-8.0,5.0,6.0,5.0,0.0
1701961755.5361972,-10.0,-32.0,24.0,37.0,14.0,10.0,8.0,-1.0
1701961755.5361972,-3.0,-2.0,-34.0,-26.0,-17.0,-11.0,-7.0,-7.0
1701961755.546169,11.0,6.0,8.0,5.0,6.0,6.0,1.0,-3.0
1701961755.546169,-3.0,-14.0,-33.0,8.0,18.0,11.0,2.0,3.0
1701961755.5663903,5.0,10.0,41.0,-3.0,-7.0,-6.0,1.0,3.0
1701961755.5663903,6.0,46.0,-4.0,10.0,0.0,10.0,9.0,4.0
1701961755.5663903,0.0,-29.0,-15.0,-18.0,-5.0,-8.0,-5.0,-6.0
1701961755.5663903,7.0,-16.0,-13.0,-5.0,-15.0,1.0,3.0,3.0
1701961755.586161,1.0,6.0,-4.0,-10.0,-1.0,-22.0,-11.0,-4.0
1701961755.586161,-1.0,6.0,-2.0,18.0,7.0,21.0,3.0,-2.0
1701961755.586161,-8.0,-47.0,-61.0,-61.0,-20.0,-34.0,-16.0,-1.0
1701961755.586161,6.0,22.0,28.0,11.0,2.0,46.0,18.0,2.0
1701961755.6047838,4.0,1.0,37.0,27.0,16.0,26.0,23.0,4.0
1701961755.6047838,-5.0,-5.0,3.0,5.0,-12.0,-27.0,-13.0,-5.0
1701961755.6057568,-4.0,-12.0,-11.0,-14.0,-6.0,17.0,-5.0,-2.0
1701961755.6057568,4.0,0.0,13.0,23.0,1.0,12.0,-6.0,1.0
1701961755.6187475,5.0,15.0,-5.0,0.0,-2.0,-8.0,-2.0,0.0
1701961755.6187475,9.0,16.0,-30.0,-12.0,-7.0,-15.0,-1.0,4.0
1701961755.628753,6.0,18.0,15.0,-6.0,-3.0,-14.0,0.0,-1.0
1701961755.628753,-6.0,-9.0,0.0,7.0,-4.0,-35.0,-28.0,-7.0
1701961755.6489823,-9.0,14.0,21.0,4.0,5.0,18.0,12.0,-4.0
1701961755.6489823,-2.0,10.0,-15.0,15.0,0.0,10.0,22.0,3.0
1701961755.6489823,-7.0,-22.0,7.0,4.0,8.0,16.0,-11.0,-2.0
1701961755.6489823,-23.0,-3.0,16.0,10.0,2.0,-20.0,2.0,-2.0
1701961755.6589751,2.0,25.0,10.0,-2.0,-1.0,38.0,-11.0,-3.0
1701961755.6589751,10.0,-9.0,20.0,7.0,3.0,-25.0,7.0,9.0
1701961755.6589751,-7.0,3.0,-33.0,-6.0,-5.0,15.0,3.0,-5.0
1701961755.6589751,17.0,-2.0,-7.0,-17.0,-8.0,-15.0,5.0,7.0
1701961755.6789756,2.0,-18.0,41.0,20.0,5.0,-23.0,-6.0,2.0
1701961755.6789756,-3.0,-52.0,-36.0,-17.0,-10.0,7.0,-1.0,-2.0
1701961755.6987507,4.0,43.0,17.0,-9.0,-3.0,14.0,-2.0,-6.0
1701961755.6987507,6.0,-15.0,1.0,9.0,0.0,-18.0,-5.0,1.0
1701961755.7087524,0.0,3.0,-32.0,-6.0,-9.0,-42.0,-18.0,-7.0
1701961755.7087524,4.0,-28.0,-28.0,-6.0,-2.0,2.0,-5.0,-3.0
1701961755.7087524,-11.0,-18.0,33.0,2.0,5.0,53.0,19.0,-3.0
1701961755.7087524,-2.0,24.0,-11.0,6.0,13.0,1.0,-3.0,-2.0
1701961755.7190351,-5.0,4.0,18.0,2.0,-5.0,-19.0,-8.0,-3.0
1701961755.7190351,-8.0,-5.0,11.0,0.0,-3.0,-14.0,-13.0,-6.0
1701961755.7190351,10.0,3.0,-30.0,-5.0,6.0,17.0,31.0,8.0
1701961755.7190351,-7.0,4.0,5.0,-7.0,3.0,-6.0,-2.0,-5.0
1701961755.738749,3.0,-6.0,10.0,2.0,-1.0,0.0,7.0,3.0
1701961755.738749,1.0,3.0,12.0,-4.0,-4.0,-37.0,-21.0,-3.0
1701961755.7487535,-5.0,10.0,17.0,11.0,-5.0,-17.0,-8.0,-4.0
1701961755.7487535,0.0,-36.0,-45.0,-9.0,-8.0,24.0,9.0,-1.0
1701961755.7690392,8.0,16.0,-14.0,-6.0,2.0,-22.0,-2.0,5.0
1701961755.7690392,7.0,10.0,1.0,7.0,-4.0,14.0,1.0,1.0
1701961755.7690392,-2.0,-3.0,22.0,7.0,1.0,-2.0,1.0,5.0
1701961755.7690392,-6.0,7.0,-21.0,-22.0,-11.0,-9.0,-4.0,-7.0
1701961755.7789893,3.0,5.0,-4.0,-5.0,-7.0,-1.0,-1.0,2.0
1701961755.7789893,-5.0,6.0,10.0,-2.0,-1.0,13.0,0.0,-1.0
1701961755.7889147,-15.0,-19.0,-22.0,4.0,-10.0,-11.0,-5.0,-6.0
1701961755.7889147,7.0,6.0,25.0,-10.0,4.0,-14.0,-8.0,2.0
1701961755.8087478,-2.0,1.0,0.0,29.0,20.0,24.0,12.0,5.0
1701961755.8087478,-4.0,5.0,5.0,3.0,2.0,10.0,0.0,-1.0
1701961755.8087478,-6.0,0.0,-10.0,-8.0,-12.0,-73.0,-21.0,-4.0
1701961755.8087478,-3.0,5.0,-13.0,-12.0,-8.0,12.0,17.0,2.0
1701961755.8291342,0.0,-9.0,-23.0,-7.0,1.0,66.0,-5.0,-3.0
1701961755.8291342,1.0,-10.0,-7.0,7.0,1.0,3.0,4.0,1.0
1701961755.8291342,8.0,-10.0,-19.0,-18.0,-6.0,-34.0,-17.0,-3.0
1701961755.8291342,-13.0,-13.0,11.0,3.0,-7.0,-24.0,-13.0,-13.0
1701961755.8390958,-18.0,4.0,-18.0,-2.0,-5.0,-15.0,-4.0,-8.0
1701961755.8390958,2.0,50.0,69.0,19.0,7.0,2.0,3.0,5.0
1701961755.8489375,-12.0,-44.0,-99.0,4.0,-4.0,8.0,3.0,-3.0
1701961755.8489375,4.0,16.0,8.0,2.0,5.0,6.0,-4.0,0.0
1701961755.8587475,11.0,5.0,-2.0,-21.0,4.0,-12.0,0.0,3.0
1701961755.8587475,-12.0,-32.0,-44.0,-14.0,-6.0,-1.0,-8.0,-8.0
1701961755.8587475,12.0,27.0,33.0,-7.0,-4.0,8.0,8.0,6.0
1701961755.868754,2.0,-1.0,21.0,17.0,-3.0,3.0,-3.0,-2.0
1701961755.8891218,-2.0,-15.0,-22.0,7.0,-6.0,-11.0,-5.0,-3.0
1701961755.8891218,2.0,22.0,50.0,15.0,4.0,1.0,2.0,2.0
1701961755.8891218,2.0,-7.0,-47.0,-18.0,-3.0,-18.0,-11.0,-1.0
1701961755.8891218,0.0,-3.0,7.0,6.0,-5.0,13.0,1.0,-3.0
1701961755.8990648,6.0,0.0,9.0,-13.0,2.0,-3.0,18.0,5.0
1701961755.8990648,0.0,-8.0,-11.0,1.0,3.0,17.0,1.0,1.0
1701961755.9089885,-4.0,11.0,31.0,22.0,-3.0,-20.0,-7.0,-3.0
1701961755.9089885,0.0,-13.0,-19.0,-42.0,-8.0,-8.0,-9.0,-1.0
1701961755.9187503,-1.0,-14.0,-12.0,-7.0,-4.0,-7.0,1.0,-4.0
1701961755.9187503,-17.0,42.0,64.0,9.0,-3.0,5.0,3.0,-6.0
1701961755.9287496,0.0,-13.0,21.0,38.0,28.0,8.0,3.0,1.0
1701961755.9287496,14.0,26.0,-64.0,-32.0,-5.0,-18.0,0.0,9.0
1701961755.9490943,-5.0,0.0,71.0,45.0,9.0,8.0,1.0,-1.0
1701961755.9490943,7.0,-25.0,-66.0,-44.0,-8.0,5.0,1.0,1.0
1701961755.9490943,-4.0,11.0,30.0,-12.0,-6.0,-1.0,-3.0,-4.0
1701961755.9490943,-3.0,1.0,1.0,42.0,2.0,16.0,5.0,3.0
1701961755.9590516,7.0,-12.0,7.0,5.0,4.0,-4.0,-6.0,1.0
1701961755.9590516,2.0,-5.0,-36.0,-2.0,0.0,-6.0,-3.0,1.0
1701961755.9787462,-2.0,4.0,-14.0,-13.0,-3.0,8.0,4.0,-1.0
1701961755.9787462,4.0,-5.0,25.0,-13.0,-7.0,11.0,4.0,0.0
1701961755.9787462,1.0,4.0,-17.0,-16.0,-6.0,-18.0,-11.0,1.0
1701961755.9787462,-4.0,-7.0,13.0,29.0,6.0,3.0,1.0,-4.0
1701961755.9787462,2.0,10.0,-6.0,-47.0,-18.0,-33.0,-10.0,-5.0
1701961755.9787462,5.0,11.0,89.0,52.0,23.0,80.0,26.0,11.0
1701961756.0091023,-1.0,-24.0,-97.0,-30.0,-8.0,20.0,-7.0,-7.0
1701961756.0091023,-12.0,-25.0,-24.0,-12.0,-3.0,-50.0,-11.0,-6.0
1701961756.0091023,4.0,5.0,39.0,10.0,0.0,22.0,-11.0,-18.0
1701961756.0091023,-1.0,0.0,-2.0,1.0,-6.0,-51.0,-15.0,26.0
1701961756.0187485,-10.0,-2.0,-21.0,10.0,4.0,17.0,2.0,-6.0
1701961756.0187485,-2.0,0.0,37.0,15.0,2.0,-34.0,3.0,15.0
1701961756.0289204,-4.0,-3.0,-31.0,-10.0,8.0,84.0,34.0,-6.0
1701961756.0289204,-9.0,-1.0,12.0,-5.0,-7.0,-64.0,2.0,-8.0
1701961756.0387487,-2.0,8.0,44.0,-6.0,-9.0,61.0,2.0,10.0
1701961756.0387487,3.0,-14.0,-53.0,-21.0,-7.0,-18.0,-18.0,-19.0
1701961756.0387487,-7.0,-1.0,26.0,23.0,3.0,-38.0,-21.0,0.0
1701961756.0487537,3.0,-9.0,10.0,1.0,4.0,43.0,22.0,2.0
1701961756.0690885,-1.0,-5.0,-54.0,-17.0,-11.0,-98.0,-22.0,0.0
1701961756.0690885,-4.0,8.0,56.0,10.0,2.0,73.0,11.0,-2.0
1701961756.0690885,-3.0,-7.0,5.0,-2.0,-12.0,-55.0,-20.0,-2.0
1701961756.0690885,0.0,-18.0,-42.0,-32.0,1.0,41.0,-3.0,-14.0
1701961756.0787494,-3.0,-4.0,-22.0,-11.0,-12.0,-44.0,0.0,6.0
1701961756.0787494,15.0,9.0,-16.0,10.0,17.0,59.0,25.0,10.0
1701961756.0887845,2.0,2.0,53.0,15.0,0.0,-3.0,11.0,7.0
1701961756.0887845,-14.0,0.0,-25.0,-7.0,0.0,-2.0,-26.0,-15.0
1701961756.0989847,-4.0,10.0,35.0,12.0,3.0,-17.0,10.0,-1.0
1701961756.0989847,-1.0,12.0,-12.0,-10.0,-1.0,-18.0,-9.0,-1.0
1701961756.1087534,-4.0,1.0,-3.0,6.0,2.0,30.0,14.0,11.0
1701961756.1087534,2.0,-7.0,-20.0,2.0,-6.0,-32.0,-5.0,-3.0
1701961756.1456163,0.0,6.0,38.0,3.0,2.0,13.0,-5.0,-8.0
1701961756.1456163,-1.0,-2.0,-30.0,-16.0,-7.0,-27.0,1.0,-1.0
1701961756.1456163,20.0,34.0,-3.0,-2.0,0.0,35.0,7.0,1.0
1701961756.1456163,-20.0,-28.0,-6.0,1.0,0.0,0.0,-2.0,-8.0
1701961756.1513462,13.0,-5.0,11.0,4.0,2.0,9.0,1.0,-2.0
1701961756.1513462,-8.0,-3.0,68.0,18.0,-1.0,-14.0,-8.0,-3.0
1701961756.1513462,-8.0,-16.0,-66.0,-8.0,-10.0,-20.0,-8.0,-1.0
1701961756.1513462,9.0,14.0,7.0,-28.0,-4.0,7.0,5.0,-1.0
1701961756.1617365,-4.0,-7.0,-11.0,-1.0,-3.0,-31.0,-20.0,-4.0
1701961756.1617365,12.0,8.0,42.0,9.0,6.0,50.0,28.0,7.0
1701961756.1617365,-4.0,6.0,-20.0,5.0,8.0,4.0,4.0,-3.0
1701961756.1617365,3.0,-1.0,-13.0,-4.0,-1.0,-5.0,0.0,5.0
1701961756.1913471,-3.0,-4.0,-4.0,-8.0,-3.0,4.0,1.0,-6.0
1701961756.1913471,4.0,-11.0,12.0,7.0,-8.0,-32.0,-21.0,-7.0
1701961756.1913471,-2.0,-18.0,-58.0,-13.0,-2.0,3.0,-1.0,0.0
1701961756.1913471,4.0,9.0,29.0,16.0,1.0,-5.0,-2.0,0.0
1701961756.2119577,0.0,23.0,33.0,-1.0,-5.0,-11.0,2.0,-3.0
1701961756.2119577,-10.0,-19.0,-37.0,-26.0,-5.0,18.0,-2.0,-3.0
1701961756.2119577,8.0,-37.0,-14.0,1.0,0.0,13.0,5.0,1.0
1701961756.2119577,2.0,26.0,28.0,23.0,4.0,-20.0,-11.0,1.0
1701961756.2219408,-3.0,3.0,-31.0,-20.0,-10.0,2.0,-8.0,-4.0
1701961756.2219408,4.0,1.0,-2.0,0.0,1.0,31.0,9.0,-1.0
1701961756.2219408,0.0,-18.0,6.0,-4.0,-2.0,-46.0,-12.0,1.0
1701961756.2219408,1.0,-5.0,28.0,15.0,1.0,4.0,0.0,-8.0
1701961756.261698,-9.0,-20.0,-41.0,-14.0,-6.0,-17.0,-10.0,-5.0
1701961756.261698,-4.0,1.0,-38.0,-20.0,-3.0,42.0,15.0,6.0
1701961756.261698,1.0,13.0,54.0,14.0,2.0,-15.0,-9.0,1.0
1701961756.261698,-7.0,-4.0,-25.0,-20.0,-7.0,-8.0,-5.0,-7.0
1701961756.2717319,2.0,3.0,29.0,22.0,8.0,4.0,6.0,0.0
1701961756.2717319,-4.0,-12.0,-9.0,-6.0,-7.0,-49.0,-25.0,-5.0
1701961756.2717319,-18.0,-11.0,-4.0,8.0,5.0,14.0,16.0,2.0
1701961756.2717319,10.0,-1.0,-2.0,-15.0,0.0,48.0,13.0,6.0
1701961756.2820504,-7.0,-7.0,-4.0,5.0,2.0,9.0,11.0,-9.0
1701961756.2820504,-6.0,7.0,-11.0,-5.0,-2.0,-32.0,-2.0,16.0
1701961756.2820504,6.0,23.0,63.0,21.0,9.0,39.0,21.0,7.0
1701961756.2820504,-7.0,-23.0,-73.0,-21.0,-15.0,-43.0,-26.0,-6.0
1701961756.3116975,3.0,5.0,35.0,9.0,7.0,55.0,11.0,5.0
1701961756.3116975,5.0,1.0,6.0,9.0,-2.0,-23.0,8.0,-5.0
1701961756.3116975,-2.0,13.0,-2.0,-16.0,-2.0,1.0,-8.0,-5.0
1701961756.3116975,-8.0,-41.0,-25.0,-5.0,-4.0,10.0,-5.0,-17.0
1701961756.3317544,11.0,-16.0,-16.0,3.0,-4.0,-19.0,-9.0,15.0
1701961756.3317544,-20.0,13.0,37.0,12.0,0.0,-18.0,-8.0,-14.0
1701961756.3317544,10.0,8.0,-23.0,-20.0,-6.0,-27.0,-18.0,-2.0
1701961756.3317544,4.0,13.0,30.0,13.0,9.0,43.0,30.0,6.0
1701961756.3417077,0.0,17.0,-15.0,-7.0,1.0,-3.0,3.0,-3.0
1701961756.3417077,0.0,5.0,2.0,7.0,0.0,23.0,7.0,-3.0
1701961756.3417077,-4.0,6.0,9.0,-1.0,0.0,11.0,-9.0,1.0
1701961756.3417077,1.0,-1.0,-23.0,5.0,8.0,15.0,6.0,7.0
1701961756.3617373,5.0,13.0,56.0,21.0,1.0,-35.0,7.0,9.0
1701961756.3617373,-5.0,-15.0,-33.0,-13.0,-5.0,33.0,13.0,-1.0
1701961756.3617373,-4.0,-10.0,-49.0,-20.0,-10.0,-60.0,-21.0,-8.0
1701961756.3617373,-1.0,15.0,27.0,3.0,-1.0,-17.0,-16.0,-4.0
1701961756.3920312,2.0,-43.0,-2.0,-1.0,-4.0,32.0,1.0,-6.0
1701961756.3920312,12.0,3.0,-2.0,11.0,6.0,0.0,5.0,8.0
1701961756.3920312,-1.0,-6.0,1.0,-15.0,-6.0,23.0,0.0,-6.0
1701961756.3920312,-5.0,8.0,32.0,28.0,9.0,-12.0,-3.0,5.0
1701961756.401947,-3.0,-20.0,-62.0,-29.0,-7.0,-34.0,-14.0,-13.0
1701961756.401947,6.0,-11.0,-16.0,-12.0,-7.0,-20.0,-20.0,-6.0
1701961756.411696,-6.0,5.0,42.0,28.0,5.0,21.0,26.0,11.0
1701961756.411696,5.0,17.0,14.0,-6.0,0.0,-14.0,0.0,0.0
1701961756.4217434,-4.0,-2.0,3.0,11.0,5.0,17.0,5.0,3.0
1701961756.4217434,-11.0,-19.0,-19.0,-12.0,-6.0,-11.0,-9.0,-4.0
1701961756.4217434,2.0,31.0,-2.0,-16.0,-11.0,-56.0,-8.0,-4.0
1701961756.4217434,-17.0,2.0,37.0,26.0,7.0,38.0,4.0,-3.0
1701961756.452075,-1.0,0.0,10.0,1.0,2.0,-19.0,-12.0,-11.0
1701961756.452075,5.0,-15.0,-57.0,-27.0,-2.0,29.0,15.0,13.0
1701961756.452075,4.0,-11.0,24.0,2.0,-10.0,-28.0,-13.0,-15.0
1701961756.452075,-2.0,15.0,-13.0,-9.0,0.0,-1.0,10.0,14.0
1701961756.461956,-7.0,0.0,25.0,12.0,3.0,-11.0,-8.0,-7.0
1701961756.461956,-4.0,1.0,0.0,-6.0,-4.0,-5.0,-12.0,-10.0
1701961756.4716988,13.0,-14.0,-30.0,-5.0,6.0,37.0,11.0,0.0
1701961756.4716988,5.0,0.0,2.0,-1.0,-4.0,-7.0,-3.0,2.0
1701961756.4817305,-16.0,5.0,20.0,5.0,-3.0,22.0,5.0,2.0
1701961756.4817305,11.0,30.0,45.0,4.0,-1.0,-33.0,-9.0,-1.0
1701961756.4817305,-17.0,-17.0,-83.0,-15.0,-2.0,5.0,-12.0,-6.0
1701961756.4817305,5.0,-6.0,7.0,2.0,-2.0,-2.0,-2.0,-10.0
1701961756.5120902,6.0,27.0,-8.0,9.0,7.0,6.0,17.0,18.0
1701961756.5120902,-10.0,-22.0,49.0,11.0,-7.0,-14.0,-7.0,-8.0
1701961756.5120902,3.0,12.0,9.0,-11.0,-3.0,10.0,-2.0,-1.0
1701961756.5120902,1.0,-1.0,-7.0,-3.0,-3.0,-52.0,-14.0,-1.0
1701961756.521978,1.0,-2.0,12.0,0.0,2.0,-6.0,3.0,1.0
1701961756.521978,-6.0,-2.0,-16.0,2.0,7.0,63.0,8.0,-10.0
1701961756.521978,1.0,5.0,4.0,0.0,0.0,-3.0,2.0,2.0
1701961756.521978,-4.0,-14.0,-3.0,-4.0,-5.0,-11.0,-4.0,-1.0
1701961756.5417323,4.0,-13.0,2.0,-13.0,-6.0,-6.0,1.0,1.0
1701961756.5417323,15.0,2.0,-32.0,3.0,5.0,-17.0,-9.0,1.0
1701961756.5417323,-13.0,-15.0,30.0,17.0,2.0,3.0,-1.0,-1.0
1701961756.551708,3.0,-3.0,-59.0,-38.0,-8.0,-12.0,1.0,0.0
1701961756.5717633,2.0,12.0,3.0,-1.0,-4.0,0.0,-11.0,-3.0
1701961756.5717633,6.0,-18.0,-3.0,-2.0,4.0,2.0,5.0,2.0
1701961756.591698,0.0,0.0,63.0,31.0,6.0,10.0,1.0,1.0
1701961756.591698,-6.0,7.0,-23.0,-21.0,-9.0,-16.0,1.0,0.0
1701961756.591698,0.0,-3.0,-23.0,0.0,-2.0,1.0,-10.0,-1.0
1701961756.591698,-6.0,-1.0,4.0,-7.0,1.0,-3.0,-1.0,-3.0
1701961756.591698,6.0,22.0,26.0,-2.0,5.0,17.0,10.0,9.0
1701961756.591698,-5.0,-6.0,8.0,4.0,1.0,18.0,6.0,-4.0
1701961756.6017303,0.0,2.0,-20.0,-6.0,-2.0,21.0,2.0,-4.0
1701961756.6017303,-13.0,-30.0,-18.0,5.0,-3.0,-28.0,-12.0,-3.0
1701961756.6017303,0.0,-4.0,-1.0,1.0,-1.0,-12.0,-1.0,0.0
1701961756.6017303,1.0,-1.0,2.0,5.0,-1.0,-12.0,-13.0,-6.0
1701961756.6316988,-1.0,15.0,37.0,3.0,-1.0,7.0,0.0,-2.0
1701961756.6316988,-9.0,-6.0,-67.0,-14.0,-5.0,-18.0,2.0,-2.0
1701961756.6316988,3.0,11.0,53.0,12.0,0.0,26.0,5.0,-3.0
1701961756.6316988,2.0,-14.0,-35.0,-21.0,-7.0,-20.0,-14.0,-4.0
1701961756.6416957,-11.0,11.0,15.0,7.0,7.0,14.0,7.0,3.0
1701961756.6416957,7.0,11.0,50.0,37.0,1.0,8.0,-2.0,1.0
1701961756.6416957,-1.0,-4.0,-64.0,-63.0,-14.0,-18.0,-4.0,-2.0
1701961756.6416957,3.0,29.0,63.0,22.0,3.0,10.0,8.0,2.0
1701961756.669953,1.0,-19.0,-98.0,-19.0,-8.0,-15.0,-1.0,-10.0
1701961756.669953,3.0,-2.0,23.0,-6.0,-2.0,28.0,10.0,5.0
1701961756.669953,-8.0,-22.0,-1.0,19.0,0.0,-7.0,-7.0,-5.0
1701961756.669953,4.0,-5.0,-2.0,1.0,1.0,-7.0,-6.0,0.0
1701961756.6841545,-6.0,-10.0,18.0,-8.0,-6.0,-29.0,-17.0,-5.0
1701961756.6841545,3.0,13.0,12.0,14.0,4.0,15.0,16.0,0.0
1701961756.6841545,-3.0,-7.0,-27.0,-13.0,-4.0,-3.0,-8.0,-3.0
1701961756.6841545,-4.0,-6.0,15.0,6.0,1.0,-3.0,-6.0,-3.0
1701961756.7141545,2.0,0.0,-42.0,-13.0,-5.0,13.0,4.0,1.0
1701961756.7141545,-2.0,14.0,3.0,2.0,-3.0,-14.0,-5.0,-4.0
1701961756.7141545,3.0,0.0,42.0,15.0,0.0,-5.0,-6.0,-1.0
1701961756.7141545,-9.0,15.0,-44.0,-7.0,0.0,3.0,7.0,3.0
1701961756.7243204,-12.0,-25.0,20.0,-3.0,-5.0,-2.0,-6.0,-7.0
1701961756.7243204,5.0,31.0,61.0,4.0,2.0,-14.0,-7.0,1.0
1701961756.7243204,-5.0,-26.0,-96.0,-14.0,-5.0,-9.0,-2.0,0.0
1701961756.7243204,-14.0,-7.0,31.0,26.0,7.0,-16.0,-2.0,-6.0
1701961756.754156,9.0,15.0,43.0,2.0,5.0,58.0,18.0,8.0
1701961756.754156,-2.0,0.0,-29.0,-22.0,-5.0,-22.0,-8.0,-4.0
1701961756.754156,-1.0,1.0,42.0,9.0,-2.0,11.0,8.0,1.0
1701961756.754156,-12.0,1.0,-34.0,5.0,1.0,-18.0,-12.0,-5.0
1701961756.7641559,-6.0,-16.0,-18.0,-16.0,-4.0,6.0,9.0,-1.0
1701961756.7641559,0.0,6.0,17.0,3.0,1.0,-53.0,1.0,3.0
1701961756.7744324,0.0,-4.0,-26.0,8.0,7.0,75.0,-9.0,-1.0
1701961756.7744324,16.0,12.0,32.0,1.0,-3.0,-2.0,-5.0,1.0
1701961756.784409,3.0,19.0,-1.0,-11.0,-7.0,-25.0,-4.0,-4.0
1701961756.784409,-5.0,-6.0,-22.0,-6.0,-7.0,-2.0,-3.0,-1.0
1701961756.784409,5.0,7.0,14.0,-2.0,8.0,-16.0,7.0,6.0
1701961756.784409,0.0,-7.0,10.0,5.0,-2.0,-1.0,3.0,0.0
1701961756.8141625,5.0,4.0,20.0,18.0,6.0,46.0,9.0,2.0
1701961756.8141625,-3.0,3.0,-12.0,-18.0,-7.0,-12.0,-6.0,-2.0
1701961756.8141625,1.0,11.0,1.0,1.0,4.0,-13.0,-2.0,-1.0
1701961756.8141625,3.0,-6.0,-6.0,17.0,7.0,23.0,7.0,2.0
1701961756.8441572,4.0,-20.0,-1.0,-11.0,-8.0,-36.0,-12.0,0.0
1701961756.8441572,4.0,28.0,-23.0,8.0,-1.0,10.0,-7.0,-5.0
1701961756.8541548,-9.0,10.0,-2.0,-7.0,0.0,-5.0,8.0,2.0
1701961756.8541548,1.0,-7.0,-29.0,-28.0,-6.0,8.0,-1.0,0.0
1701961756.8541548,-5.0,-1.0,39.0,30.0,11.0,-7.0,-4.0,-3.0
1701961756.8541548,-1.0,4.0,13.0,3.0,-1.0,12.0,-2.0,0.0
1701961756.8541548,-2.0,-7.0,8.0,15.0,1.0,-4.0,1.0,0.0
1701961756.8541548,-1.0,-2.0,-28.0,-12.0,-6.0,-33.0,-13.0,-5.0
1701961756.8641543,-2.0,8.0,-1.0,-16.0,-3.0,-4.0,-12.0,2.0
1701961756.8641543,-1.0,-12.0,-17.0,2.0,7.0,45.0,14.0,-1.0
1701961756.8641543,4.0,14.0,28.0,10.0,2.0,14.0,2.0,7.0
1701961756.8741586,2.0,-12.0,4.0,2.0,4.0,4.0,0.0,4.0
1701961756.8845766,-6.0,-12.0,-9.0,8.0,0.0,3.0,13.0,-4.0
1701961756.8845766,-2.0,-3.0,3.0,-9.0,-4.0,-18.0,-10.0,1.0
1701961756.8945491,1.0,0.0,-12.0,-6.0,-6.0,-18.0,-3.0,-5.0
1701961756.8945491,-6.0,5.0,17.0,4.0,-1.0,-4.0,-7.0,-4.0
1701961756.9141576,3.0,4.0,-16.0,-21.0,-8.0,-1.0,-4.0,0.0
1701961756.9141576,11.0,-16.0,-21.0,9.0,15.0,1.0,7.0,4.0
1701961756.9241557,-2.0,2.0,35.0,12.0,-8.0,-6.0,0.0,-3.0
1701961756.9241557,2.0,-17.0,-61.0,-32.0,-10.0,6.0,-1.0,0.0
1701961756.9241557,-2.0,4.0,-11.0,-5.0,-2.0,-10.0,-3.0,1.0
1701961756.9341612,0.0,2.0,35.0,4.0,0.0,6.0,-1.0,0.0
1701961756.9341612,6.0,0.0,3.0,-6.0,-2.0,-13.0,-5.0,-1.0
1701961756.9341612,-2.0,-2.0,22.0,12.0,2.0,15.0,7.0,-1.0
1701961756.9444518,6.0,-3.0,-14.0,3.0,-3.0,-6.0,-4.0,2.0
1701961756.9444518,-9.0,-3.0,-18.0,-16.0,-8.0,-21.0,-14.0,-12.0
1701961756.9544384,-1.0,1.0,0.0,8.0,2.0,14.0,2.0,6.0
1701961756.9544384,3.0,1.0,13.0,10.0,-2.0,-20.0,4.0,0.0
1701961756.984158,-5.0,0.0,-24.0,-5.0,1.0,37.0,-1.0,-3.0
1701961756.984158,0.0,-8.0,23.0,4.0,-3.0,-8.0,-2.0,0.0
1701961756.984158,-11.0,0.0,-59.0,-13.0,1.0,-10.0,-2.0,-5.0
1701961756.984158,2.0,-3.0,8.0,-11.0,-7.0,8.0,0.0,0.0
1701961756.984158,2.0,-2.0,12.0,-4.0,-9.0,-24.0,-8.0,-2.0
1701961756.994162,-6.0,2.0,31.0,12.0,0.0,2.0,-2.0,-1.0
1701961756.994162,0.0,-11.0,-52.0,15.0,19.0,5.0,4.0,2.0
1701961756.994162,1.0,11.0,17.0,-1.0,1.0,8.0,0.0,-2.0
1701961757.0044749,-2.0,0.0,1.0,-8.0,1.0,-6.0,-1.0,-1.0
1701961757.0044749,6.0,10.0,2.0,-38.0,-22.0,1.0,2.0,6.0
1701961757.0144582,11.0,-3.0,8.0,-2.0,-8.0,-16.0,-6.0,-3.0
1701961757.0144582,-19.0,-27.0,1.0,5.0,2.0,-12.0,-2.0,-6.0
1701961757.0341568,-4.0,14.0,28.0,9.0,-2.0,-47.0,-30.0,-5.0
1701961757.0341568,1.0,-26.0,-57.0,-5.0,9.0,86.0,24.0,0.0
1701961757.0341568,1.0,2.0,6.0,-3.0,-1.0,-6.0,12.0,5.0
1701961757.0341568,-5.0,17.0,1.0,1.0,-6.0,-73.0,-29.0,-13.0
