1701540000.154798,-6.0,-23.0,-50.0,18.0,-7.0,-5.0,-1.0,-12.0
1701540000.1580403,-40.0,13.0,33.0,59.0,0.0,-1.0,-2.0,17.0
1701540000.1700177,41.0,-22.0,127.0,71.0,6.0,1.0,-1.0,-5.0
1701540000.1700177,17.0,8.0,-73.0,-15.0,-22.0,-9.0,2.0,0.0
1701540000.1812682,-2.0,-33.0,-30.0,-92.0,-7.0,-2.0,-7.0,-4.0
1701540000.1812682,24.0,-53.0,78.0,58.0,49.0,21.0,8.0,16.0
1701540000.1827416,-24.0,2.0,-60.0,-37.0,-17.0,-12.0,6.0,2.0
1701540000.1827416,-21.0,-11.0,15.0,-35.0,-17.0,-17.0,-25.0,-30.0
1701540000.194247,10.0,-31.0,127.0,60.0,-6.0,7.0,7.0,5.0
1701540000.194247,0.0,36.0,-105.0,-111.0,-24.0,-13.0,-6.0,-15.0
1701540000.2052808,-17.0,-34.0,71.0,46.0,55.0,15.0,0.0,0.0
1701540000.2055323,9.0,14.0,39.0,68.0,30.0,13.0,11.0,-2.0
1701540000.2546232,-13.0,10.0,75.0,116.0,27.0,-3.0,-8.0,-5.0
1701540000.2546232,27.0,-8.0,22.0,-20.0,-21.0,-5.0,-2.0,0.0
1701540000.2546232,-18.0,-4.0,-87.0,-87.0,-53.0,-16.0,-6.0,-9.0
1701540000.2546232,-11.0,-15.0,5.0,85.0,-19.0,-8.0,-7.0,-2.0
1701540000.2904088,-15.0,-35.0,19.0,34.0,23.0,8.0,3.0,4.0
1701540000.2904088,30.0,58.0,-5.0,43.0,24.0,6.0,5.0,-10.0
1701540000.2904088,15.0,14.0,43.0,-40.0,-17.0,-8.0,-3.0,-4.0
1701540000.2904088,-6.0,-58.0,3.0,-43.0,-16.0,-9.0,-5.0,-12.0
1701540000.2904088,2.0,62.0,-63.0,-86.0,-27.0,-12.0,-4.0,9.0
1701540000.2904088,-7.0,53.0,64.0,1.0,27.0,14.0,6.0,-3.0
1701540000.2914624,-16.0,-28.0,-23.0,-53.0,-57.0,-21.0,-12.0,-20.0
1701540000.2914624,15.0,125.0,23.0,61.0,35.0,5.0,-2.0,12.0
1701540000.2914624,2.0,-94.0,-22.0,-108.0,-21.0,-7.0,-1.0,-7.0
1701540000.2914624,-6.0,-41.0,-62.0,-16.0,-2.0,11.0,9.0,13.0
1701540000.295813,-8.0,45.0,-19.0,-9.0,-23.0,-5.0,0.0,-7.0
1701540000.2968667,-12.0,32.0,5.0,28.0,12.0,4.0,-4.0,-3.0
1701540000.3233216,5.0,-22.0,-3.0,25.0,15.0,-7.0,-4.0,13.0
1701540000.3233216,-1.0,-72.0,-3.0,-28.0,-7.0,1.0,1.0,-19.0
1701540000.3233216,-19.0,1.0,4.0,69.0,3.0,3.0,2.0,5.0
1701540000.3233216,20.0,-70.0,-64.0,-71.0,-28.0,-1.0,12.0,1.0
1701540000.3233216,-61.0,46.0,61.0,53.0,11.0,0.0,-10.0,-12.0
1701540000.3233216,37.0,-66.0,-27.0,-50.0,-23.0,-7.0,-7.0,10.0
1701540000.3247886,-3.0,48.0,12.0,71.0,34.0,13.0,14.0,0.0
1701540000.3247886,-46.0,-16.0,34.0,-57.0,-11.0,1.0,6.0,8.0
1701540000.33707,9.0,-21.0,-61.0,-3.0,11.0,-1.0,-7.0,-49.0
1701540000.33707,15.0,7.0,20.0,-23.0,-14.0,-10.0,-6.0,1.0
1701540000.3653474,-3.0,-16.0,43.0,96.0,19.0,2.0,-8.0,2.0
1701540000.366404,-6.0,-50.0,51.0,-43.0,1.0,6.0,3.0,0.0
1701540000.3947942,-4.0,-17.0,-86.0,-44.0,-8.0,8.0,15.0,26.0
1701540000.3947942,-33.0,56.0,85.0,79.0,-2.0,-10.0,-9.0,-5.0
1701540000.3947942,18.0,-46.0,-74.0,-19.0,-2.0,-3.0,-12.0,-27.0
1701540000.3947942,23.0,44.0,11.0,43.0,17.0,2.0,-2.0,-6.0
1701540000.3947942,-9.0,36.0,51.0,-11.0,-1.0,-4.0,-5.0,1.0
1701540000.3947942,2.0,-55.0,-62.0,-66.0,-8.0,6.0,0.0,4.0
1701540000.3947942,-14.0,12.0,5.0,-61.0,2.0,-2.0,-3.0,-10.0
1701540000.3947942,23.0,-6.0,-18.0,12.0,-12.0,-8.0,-3.0,-3.0
1701540000.396843,36.0,26.0,-21.0,17.0,-2.0,-2.0,3.0,16.0
1701540000.396843,-26.0,-10.0,21.0,41.0,12.0,-2.0,20.0,7.0
1701540000.4395025,15.0,3.0,-20.0,-61.0,-12.0,-8.0,-27.0,-16.0
1701540000.4395025,-11.0,-12.0,-6.0,31.0,5.0,-3.0,-13.0,-16.0
1701540000.4395025,11.0,11.0,61.0,31.0,13.0,3.0,4.0,11.0
1701540000.4395025,-11.0,-88.0,-72.0,-26.0,-10.0,-2.0,24.0,42.0
1701540000.4405572,-21.0,24.0,17.0,-80.0,-16.0,-9.0,-22.0,-53.0
1701540000.4405572,-23.0,14.0,7.0,23.0,11.0,2.0,-4.0,-13.0
1701540000.4438758,21.0,-53.0,-10.0,8.0,3.0,4.0,-13.0,0.0
1701540000.4438758,-8.0,-26.0,-12.0,4.0,4.0,1.0,4.0,-1.0
1701540000.4438758,-42.0,90.0,10.0,41.0,6.0,-1.0,16.0,23.0
1701540000.4455528,2.0,-38.0,-4.0,23.0,8.0,-1.0,-13.0,10.0
1701540000.4577923,7.0,-5.0,6.0,-26.0,-16.0,1.0,17.0,1.0
1701540000.4577923,-14.0,-14.0,-16.0,-18.0,-20.0,-5.0,-7.0,-14.0
1701540000.498749,33.0,-52.0,4.0,78.0,49.0,14.0,19.0,23.0
1701540000.498749,11.0,80.0,4.0,-6.0,-1.0,11.0,50.0,68.0
1701540000.498749,47.0,33.0,7.0,3.0,-3.0,13.0,56.0,16.0
1701540000.4989197,-91.0,-77.0,-16.0,-34.0,-17.0,-16.0,-29.0,-15.0
1701540000.4989197,13.0,10.0,-3.0,7.0,-7.0,12.0,71.0,61.0
1701540000.4989197,-17.0,-7.0,3.0,17.0,7.0,-16.0,-84.0,-96.0
1701540000.500017,48.0,6.0,-12.0,4.0,1.0,-10.0,33.0,80.0
1701540000.500017,-18.0,113.0,11.0,6.0,3.0,8.0,87.0,49.0
1701540000.5048923,-77.0,-85.0,-33.0,-10.0,-8.0,-24.0,-61.0,-50.0
1701540000.5048923,80.0,-35.0,-12.0,10.0,6.0,27.0,97.0,45.0
1701540000.5579898,-54.0,-76.0,30.0,-7.0,-13.0,-50.0,-128.0,-99.0
1701540000.5579898,38.0,34.0,26.0,16.0,19.0,-18.0,35.0,79.0
1701540000.5579898,12.0,-14.0,9.0,-75.0,-21.0,5.0,59.0,56.0
1701540000.5579898,18.0,97.0,-18.0,68.0,-16.0,16.0,81.0,61.0
1701540000.5634518,-70.0,-80.0,33.0,66.0,55.0,39.0,62.0,5.0
1701540000.5634518,23.0,95.0,19.0,-12.0,-8.0,-6.0,-80.0,-101.0
1701540000.5634518,98.0,61.0,-71.0,-10.0,-6.0,0.0,10.0,50.0
1701540000.5634518,-63.0,-125.0,10.0,-62.0,-26.0,-12.0,-23.0,-29.0
1701540000.5664482,20.0,126.0,-36.0,-24.0,-16.0,-4.0,-6.0,-13.0
1701540000.5664482,-11.0,-34.0,-76.0,-9.0,9.0,8.0,-14.0,-1.0
1701540000.5664482,7.0,-28.0,58.0,12.0,-10.0,-11.0,-54.0,-58.0
1701540000.5664482,17.0,15.0,44.0,10.0,9.0,-6.0,-7.0,27.0
1701540000.5952425,-46.0,-44.0,6.0,11.0,-2.0,6.0,-2.0,-2.0
1701540000.5952425,40.0,-33.0,-33.0,-10.0,0.0,5.0,17.0,-18.0
1701540000.5952425,42.0,39.0,-24.0,17.0,-1.0,-42.0,-67.0,40.0
1701540000.5952425,-24.0,-13.0,26.0,5.0,8.0,36.0,21.0,-22.0
1701540000.5952425,-45.0,-2.0,73.0,-5.0,0.0,-7.0,8.0,10.0
1701540000.5952425,13.0,30.0,87.0,-26.0,-17.0,-6.0,-22.0,-39.0
1701540000.6052716,-23.0,-17.0,127.0,37.0,3.0,16.0,24.0,12.0
1701540000.6052716,-31.0,-84.0,26.0,5.0,8.0,-38.0,-46.0,-6.0
1701540000.61527,27.0,103.0,54.0,-12.0,-16.0,-10.0,-5.0,-4.0
1701540000.61527,10.0,15.0,109.0,38.0,17.0,13.0,-3.0,13.0
1701540000.61527,-32.0,-33.0,-59.0,-4.0,-4.0,-17.0,-9.0,-15.0
1701540000.6252673,9.0,41.0,89.0,-5.0,-3.0,0.0,-1.0,15.0
1701540000.6546907,20.0,-44.0,67.0,8.0,0.0,10.0,3.0,-11.0
1701540000.6546907,18.0,9.0,-119.0,-33.0,-15.0,-14.0,-25.0,-1.0
1701540000.6546907,-56.0,-29.0,-64.0,3.0,5.0,12.0,22.0,-11.0
1701540000.6546907,13.0,-19.0,75.0,12.0,-2.0,2.0,9.0,-6.0
1701540000.6586926,18.0,-9.0,47.0,7.0,12.0,13.0,15.0,21.0
1701540000.6597352,13.0,18.0,-20.0,-1.0,-10.0,-9.0,-5.0,0.0
1701540000.6635964,2.0,6.0,76.0,25.0,11.0,13.0,21.0,-2.0
1701540000.6635964,-11.0,9.0,-104.0,-16.0,4.0,-1.0,-12.0,2.0
1701540000.6873686,-8.0,17.0,-4.0,10.0,-9.0,-15.0,-18.0,-10.0
1701540000.6885355,30.0,-24.0,-41.0,4.0,5.0,4.0,10.0,15.0
1701540000.7170053,2.0,41.0,43.0,-2.0,-1.0,8.0,13.0,-7.0
1701540000.7170053,3.0,65.0,-102.0,-48.0,-12.0,-15.0,-15.0,-6.0
1701540000.729596,7.0,23.0,67.0,48.0,3.0,-1.0,-3.0,-1.0
1701540000.729596,-20.0,-65.0,10.0,-14.0,-5.0,-3.0,-5.0,-12.0
1701540000.729596,20.0,-36.0,63.0,28.0,7.0,8.0,6.0,20.0
1701540000.729596,12.0,-21.0,-30.0,-84.0,-7.0,-9.0,-11.0,-9.0
1701540000.729596,-36.0,20.0,-39.0,-11.0,-9.0,3.0,1.0,-9.0
1701540000.729596,46.0,13.0,89.0,37.0,14.0,10.0,37.0,13.0
1701540000.7328212,-22.0,1.0,3.0,-8.0,-4.0,-1.0,-7.0,-8.0
1701540000.7328212,39.0,-33.0,89.0,55.0,11.0,-7.0,-31.0,-9.0
1701540000.7504864,-38.0,-8.0,-53.0,-45.0,-12.0,0.0,13.0,10.0
1701540000.7504864,-16.0,36.0,28.0,-47.0,-2.0,0.0,-1.0,1.0
1701540000.761014,25.0,-32.0,-49.0,55.0,0.0,-1.0,3.0,9.0
1701540000.761014,-10.0,40.0,-61.0,-37.0,-2.0,-4.0,-4.0,17.0
1701540000.7661104,35.0,-7.0,-30.0,3.0,-5.0,-2.0,-26.0,-9.0
1701540000.7661104,-40.0,-23.0,-81.0,-5.0,-4.0,-8.0,-9.0,5.0
1701540000.7676153,-33.0,-12.0,-8.0,11.0,-2.0,7.0,8.0,9.0
1701540000.7676153,-28.0,-1.0,-38.0,-79.0,-21.0,-7.0,-6.0,-31.0
1701540000.7789636,26.0,-59.0,-7.0,45.0,39.0,10.0,5.0,3.0
1701540000.7800653,-31.0,96.0,31.0,19.0,-5.0,-9.0,-15.0,-6.0
1701540000.7914515,22.0,11.0,-43.0,-9.0,-5.0,-2.0,-2.0,-9.0
1701540000.7914515,0.0,-37.0,95.0,34.0,-4.0,-4.0,7.0,4.0
1701540000.798517,-10.0,12.0,-6.0,6.0,3.0,0.0,5.0,-2.0
1701540000.798517,22.0,-61.0,57.0,7.0,-6.0,-2.0,-8.0,-8.0
1701540000.8055046,37.0,-9.0,47.0,-13.0,-15.0,-2.0,4.0,3.0
1701540000.8055046,-8.0,79.0,-37.0,44.0,20.0,-2.0,-7.0,2.0
1701540000.8609042,36.0,-25.0,-28.0,-9.0,-2.0,7.0,23.0,5.0
1701540000.8609042,-19.0,-12.0,-24.0,-25.0,-3.0,1.0,-7.0,-2.0
1701540000.8609042,0.0,3.0,-33.0,-35.0,-7.0,-2.0,-5.0,-1.0
1701540000.8609042,14.0,-34.0,-49.0,34.0,13.0,6.0,7.0,0.0
1701540000.8609042,1.0,10.0,36.0,-4.0,-11.0,-8.0,-9.0,-2.0
1701540000.8609042,35.0,7.0,-6.0,5.0,0.0,-3.0,-1.0,12.0
1701540000.8682394,-4.0,9.0,6.0,-2.0,5.0,-1.0,0.0,-8.0
1701540000.8692353,-14.0,-9.0,60.0,17.0,-2.0,0.0,3.0,-1.0
1701540000.8928583,-1.0,20.0,-59.0,-74.0,-14.0,-8.0,-7.0,0.0
1701540000.8938625,-11.0,-59.0,-13.0,9.0,-8.0,-4.0,-2.0,-11.0
1701540000.8938625,-56.0,83.0,-20.0,-10.0,6.0,0.0,-5.0,18.0
1701540000.8938625,-26.0,-46.0,-32.0,9.0,-1.0,2.0,2.0,-5.0
1701540000.8956616,36.0,-11.0,-29.0,-18.0,-2.0,-3.0,-3.0,2.0
1701540000.8956616,-2.0,-17.0,11.0,7.0,0.0,-1.0,-2.0,-8.0
1701540000.8956616,23.0,1.0,31.0,7.0,3.0,-2.0,-2.0,1.0
1701540000.8967123,8.0,12.0,-22.0,44.0,13.0,3.0,3.0,-4.0
1701540000.9024389,-9.0,19.0,-20.0,-33.0,-10.0,-3.0,-3.0,-3.0
1701540000.9024389,-23.0,-19.0,-5.0,-44.0,-7.0,-4.0,-5.0,-8.0
1701540000.9034991,1.0,-10.0,-27.0,9.0,5.0,-1.0,2.0,-7.0
1701540000.9034991,-5.0,25.0,38.0,-26.0,4.0,1.0,-1.0,0.0
1701540000.9540613,-16.0,-29.0,-36.0,29.0,-2.0,-8.0,-11.0,-4.0
1701540000.954318,25.0,65.0,7.0,33.0,13.0,4.0,-1.0,0.0
1701540000.9616594,2.0,-106.0,11.0,-17.0,-1.0,2.0,3.0,-2.0
1701540000.9616594,-12.0,53.0,-81.0,-21.0,-12.0,-4.0,-1.0,13.0
1701540000.9616594,7.0,64.0,5.0,5.0,-6.0,-4.0,-4.0,-3.0
1701540000.9616594,-16.0,-6.0,42.0,1.0,7.0,4.0,-1.0,-1.0
1701540000.9616594,-25.0,-15.0,-4.0,3.0,-4.0,-3.0,-2.0,-7.0
1701540000.9616594,24.0,-46.0,0.0,3.0,0.0,2.0,2.0,-14.0
1701540000.9616594,-6.0,-18.0,14.0,4.0,-1.0,-1.0,1.0,2.0
1701540000.9616594,-2.0,25.0,-30.0,15.0,2.0,1.0,1.0,-1.0
1701540000.9806526,17.0,-4.0,22.0,-9.0,-2.0,-2.0,-3.0,-8.0
1701540000.9806526,7.0,-14.0,30.0,13.0,5.0,3.0,0.0,3.0
1701540001.0002162,-19.0,4.0,-28.0,-19.0,-11.0,-5.0,-2.0,0.0
1701540001.0002162,-6.0,-4.0,-1.0,2.0,0.0,-1.0,0.0,-1.0
1701540001.0002162,0.0,23.0,15.0,9.0,-2.0,-3.0,-5.0,-4.0
1701540001.0002162,-9.0,-5.0,-3.0,2.0,2.0,-1.0,-3.0,-9.0
1701540001.0013232,-13.0,-24.0,18.0,-15.0,-7.0,-1.0,0.0,3.0
1701540001.0013232,-24.0,-6.0,-4.0,-1.0,-1.0,2.0,3.0,9.0
1701540001.0074298,6.0,-24.0,-20.0,-2.0,-2.0,-1.0,-3.0,-5.0
1701540001.0074298,6.0,-15.0,31.0,17.0,-1.0,1.0,-3.0,-2.0
1701540001.0344646,2.0,72.0,-21.0,0.0,2.0,-3.0,-5.0,-7.0
1701540001.0344646,10.0,-21.0,37.0,9.0,-2.0,1.0,1.0,-3.0
1701540001.0653946,-14.0,9.0,-54.0,-21.0,-5.0,-3.0,0.0,-5.0
1701540001.0663426,-13.0,-88.0,24.0,-1.0,-7.0,-2.0,0.0,0.0
1701540001.0815582,7.0,22.0,15.0,5.0,2.0,4.0,-1.0,-1.0
1701540001.0815582,19.0,3.0,-13.0,1.0,1.0,-1.0,-1.0,0.0
1701540001.0815582,36.0,30.0,30.0,16.0,1.0,-2.0,5.0,-1.0
1701540001.0815582,23.0,9.0,-111.0,-60.0,-5.0,7.0,6.0,20.0
1701540001.0815582,-69.0,-128.0,66.0,5.0,-2.0,-6.0,-6.0,-12.0
1701540001.0815582,10.0,52.0,-16.0,0.0,1.0,-2.0,-6.0,-4.0
1701540001.0815582,8.0,-10.0,13.0,-8.0,0.0,3.0,2.0,2.0
1701540001.0815582,9.0,29.0,27.0,1.0,-7.0,-6.0,-1.0,5.0
1701540001.1044612,23.0,18.0,-19.0,0.0,-4.0,-2.0,-1.0,-2.0
1701540001.1044612,-11.0,-28.0,18.0,28.0,18.0,4.0,-2.0,-6.0
1701540001.1044612,-8.0,9.0,-28.0,-4.0,-7.0,-4.0,-8.0,6.0
1701540001.1044612,0.0,34.0,13.0,-7.0,-13.0,-3.0,3.0,-7.0
1701540001.1044612,12.0,-12.0,-32.0,-6.0,13.0,4.0,4.0,-3.0
1701540001.1044612,-14.0,-31.0,-12.0,20.0,20.0,-1.0,-12.0,-32.0
1701540001.1044612,-7.0,6.0,-5.0,5.0,-6.0,-2.0,-11.0,-11.0
1701540001.1044612,-6.0,6.0,5.0,-14.0,-8.0,-4.0,-1.0,5.0
1701540001.1267502,11.0,-16.0,20.0,6.0,9.0,6.0,3.0,8.0
1701540001.1267502,0.0,20.0,4.0,-21.0,-16.0,-5.0,6.0,17.0
1701540001.1287978,-11.0,-6.0,12.0,16.0,13.0,3.0,1.0,-13.0
1701540001.1287978,7.0,-3.0,0.0,-23.0,-13.0,-6.0,3.0,6.0
1701540001.1706698,15.0,7.0,-11.0,-6.0,-2.0,-1.0,-8.0,-4.0
1701540001.1706698,8.0,0.0,0.0,8.0,1.0,-1.0,0.0,5.0
1701540001.1706698,15.0,5.0,9.0,-2.0,-2.0,-2.0,-10.0,2.0
1701540001.1706698,-30.0,6.0,1.0,-6.0,-4.0,-5.0,5.0,-17.0
1701540001.1706698,20.0,9.0,-41.0,-5.0,-4.0,-1.0,16.0,2.0
1701540001.1706698,-32.0,-4.0,29.0,-10.0,-7.0,0.0,1.0,3.0
1701540001.1706698,11.0,-1.0,-4.0,-5.0,-5.0,-1.0,-2.0,1.0
1701540001.1716685,-11.0,-6.0,19.0,48.0,18.0,4.0,-2.0,-3.0
1701540001.1816943,10.0,21.0,18.0,9.0,1.0,-3.0,-9.0,1.0
1701540001.1816943,0.0,-18.0,-24.0,-30.0,-13.0,-4.0,-1.0,-3.0
1701540001.1874053,6.0,26.0,2.0,3.0,5.0,3.0,5.0,18.0
1701540001.1874053,58.0,28.0,9.0,12.0,-4.0,-1.0,-3.0,7.0
1701540001.221293,-41.0,-54.0,-14.0,-53.0,-32.0,-9.0,-11.0,-52.0
1701540001.221293,7.0,17.0,11.0,74.0,50.0,5.0,-4.0,1.0
1701540001.222293,1.0,-29.0,-19.0,-4.0,21.0,6.0,2.0,0.0
1701540001.222293,-6.0,-7.0,33.0,-5.0,0.0,1.0,1.0,18.0
1701540001.22336,18.0,27.0,-57.0,-35.0,-28.0,-9.0,-2.0,6.0
1701540001.22336,-8.0,23.0,-6.0,-53.0,-51.0,-12.0,0.0,-5.0
1701540001.2245095,-15.0,-17.0,31.0,72.0,67.0,12.0,6.0,3.0
1701540001.2245095,10.0,-39.0,36.0,45.0,4.0,-6.0,-16.0,-14.0
1701540001.2400453,-3.0,31.0,-5.0,-2.0,4.0,3.0,4.0,18.0
1701540001.2400453,-21.0,7.0,-8.0,-59.0,-24.0,-5.0,-9.0,-10.0
1701540001.2474267,-11.0,3.0,-16.0,-36.0,-37.0,-8.0,7.0,-3.0
1701540001.2474267,-15.0,-11.0,-47.0,-17.0,19.0,6.0,-3.0,-3.0
1701540001.274518,4.0,-34.0,40.0,43.0,23.0,5.0,9.0,31.0
1701540001.274518,-7.0,29.0,17.0,-58.0,-74.0,-13.0,20.0,15.0
1701540001.274518,-7.0,9.0,-32.0,0.0,24.0,-3.0,-36.0,-60.0
1701540001.274518,-22.0,-80.0,-11.0,67.0,52.0,16.0,-8.0,-12.0
1701540001.274518,3.0,-8.0,11.0,-10.0,-28.0,-7.0,-15.0,5.0
1701540001.274518,26.0,6.0,26.0,-33.0,-4.0,6.0,15.0,54.0
1701540001.2845173,-55.0,35.0,-18.0,-128.0,-128.0,-36.0,25.0,-10.0
1701540001.2845173,12.0,-12.0,-33.0,63.0,73.0,22.0,-52.0,-45.0
1701540001.3146102,-15.0,-55.0,-18.0,46.0,51.0,13.0,-34.0,-44.0
1701540001.3146102,5.0,-24.0,3.0,-30.0,-19.0,-8.0,-17.0,-14.0
1701540001.3146102,10.0,11.0,48.0,-97.0,-97.0,-20.0,8.0,27.0
1701540001.3146102,12.0,60.0,-41.0,47.0,51.0,21.0,21.0,28.0
1701540001.3156104,2.0,25.0,42.0,-36.0,-28.0,2.0,20.0,18.0
1701540001.3156104,-6.0,-9.0,-61.0,5.0,15.0,3.0,-5.0,-15.0
1701540001.328101,40.0,28.0,31.0,-30.0,-10.0,-2.0,-1.0,25.0
1701540001.328101,-33.0,-17.0,105.0,-61.0,-73.0,-20.0,16.0,-28.0
1701540001.3348114,4.0,-3.0,-55.0,-45.0,-9.0,-4.0,-5.0,0.0
1701540001.3348114,4.0,-18.0,-25.0,28.0,42.0,3.0,-1.0,-11.0
1701540001.344633,37.0,22.0,-4.0,58.0,61.0,17.0,3.0,21.0
1701540001.344633,-51.0,-63.0,-4.0,13.0,-12.0,-4.0,-18.0,-7.0
1701540001.36476,15.0,-5.0,39.0,98.0,50.0,13.0,20.0,15.0
1701540001.36476,15.0,28.0,13.0,5.0,-9.0,1.0,37.0,85.0
1701540001.3676178,19.0,31.0,-15.0,-59.0,-51.0,-3.0,25.0,-39.0
1701540001.3676178,15.0,11.0,-7.0,66.0,26.0,-13.0,-71.0,-67.0
1701540001.412628,0.0,-11.0,0.0,-33.0,-1.0,-9.0,-23.0,-14.0
1701540001.412628,0.0,-9.0,0.0,-30.0,-9.0,-2.0,-16.0,-19.0
1701540001.412628,-7.0,2.0,0.0,-62.0,-42.0,-7.0,15.0,65.0
1701540001.412628,-12.0,96.0,-2.0,-35.0,-85.0,-11.0,54.0,21.0
1701540001.412628,-3.0,-81.0,22.0,80.0,73.0,56.0,7.0,-10.0
1701540001.4135985,-21.0,13.0,-85.0,-51.0,-65.0,-13.0,-8.0,-14.0
1701540001.4303207,-15.0,-11.0,6.0,-34.0,-16.0,-7.0,-3.0,26.0
1701540001.4303207,11.0,0.0,16.0,-8.0,-5.0,-9.0,40.0,-21.0
1701540001.4539511,14.0,50.0,15.0,2.0,-58.0,-34.0,-26.0,12.0
1701540001.4539511,3.0,22.0,26.0,-12.0,17.0,7.0,-10.0,-35.0
1701540001.4539511,-16.0,-125.0,20.0,115.0,71.0,19.0,-13.0,-33.0
1701540001.4539511,25.0,-30.0,-13.0,-74.0,-6.0,2.0,21.0,59.0
1701540001.4539511,-20.0,25.0,14.0,-102.0,-78.0,-20.0,12.0,11.0
1701540001.4539511,0.0,19.0,0.0,83.0,1.0,-8.0,-17.0,-37.0
1701540001.4539511,31.0,-36.0,-13.0,25.0,37.0,6.0,3.0,-5.0
1701540001.4539511,-58.0,23.0,24.0,-93.0,-63.0,-8.0,40.0,97.0
1701540001.4550428,2.0,-7.0,-61.0,-95.0,-3.0,-7.0,1.0,-48.0
1701540001.4550428,24.0,2.0,16.0,40.0,48.0,9.0,-18.0,-18.0
1701540001.4657335,-13.0,-6.0,-9.0,37.0,32.0,4.0,-33.0,-22.0
1701540001.4657335,18.0,25.0,-15.0,35.0,-8.0,3.0,18.0,37.0
1701540001.5210705,4.0,36.0,23.0,-105.0,-79.0,-20.0,2.0,-24.0
1701540001.5210705,-13.0,-41.0,-7.0,107.0,17.0,6.0,-33.0,-18.0
1701540001.5210705,-12.0,-39.0,-26.0,74.0,60.0,16.0,10.0,-1.0
1701540001.5210705,69.0,46.0,26.0,-128.0,-76.0,-20.0,17.0,17.0
1701540001.5210705,-32.0,42.0,-11.0,-53.0,-56.0,-11.0,34.0,18.0
1701540001.5210705,-12.0,-23.0,-16.0,-47.0,-27.0,-7.0,-18.0,-22.0
1701540001.5210705,-11.0,-25.0,35.0,90.0,97.0,34.0,-14.0,-20.0
1701540001.5210705,53.0,48.0,-39.0,-110.0,-119.0,-24.0,49.0,72.0
1701540001.5230732,-52.0,-21.0,-41.0,127.0,50.0,9.0,-90.0,-106.0
1701540001.5230732,14.0,-103.0,67.0,80.0,91.0,18.0,19.0,61.0
1701540001.5363252,-14.0,43.0,-36.0,-70.0,-58.0,-24.0,-7.0,6.0
1701540001.5374072,2.0,31.0,23.0,-66.0,-49.0,-16.0,-19.0,-12.0
1701540001.553276,-9.0,-5.0,61.0,62.0,47.0,15.0,36.0,58.0
1701540001.553276,-14.0,19.0,-84.0,6.0,-63.0,-8.0,-13.0,-18.0
1701540001.553276,3.0,-16.0,18.0,-12.0,-7.0,16.0,17.0,14.0
1701540001.553276,-20.0,-37.0,-11.0,-51.0,25.0,10.0,-34.0,-55.0
1701540001.5657356,55.0,36.0,10.0,-103.0,-58.0,-6.0,68.0,127.0
1701540001.5657356,-61.0,68.0,48.0,-128.0,-128.0,-43.0,-66.0,-119.0
1701540001.5698953,-7.0,-21.0,-45.0,100.0,35.0,4.0,8.0,32.0
1701540001.5698953,-5.0,-99.0,-17.0,74.0,83.0,27.0,14.0,2.0
1701540001.582274,2.0,16.0,18.0,-67.0,-59.0,-19.0,-12.0,39.0
1701540001.582274,43.0,24.0,2.0,-67.0,20.0,22.0,113.0,49.0
1701540001.6101801,-14.0,37.0,-24.0,-128.0,-63.0,-30.0,-64.0,-64.0
1701540001.6101801,-13.0,24.0,6.0,-120.0,-107.0,-39.0,-61.0,-43.0
1701540001.6101801,-8.0,30.0,-26.0,110.0,92.0,32.0,34.0,48.0
1701540001.6101801,27.0,-60.0,-9.0,89.0,104.0,39.0,29.0,-39.0
1701540001.611211,1.0,9.0,11.0,-111.0,-107.0,-32.0,-30.0,-43.0
1701540001.611211,-18.0,-1.0,-4.0,-10.0,47.0,15.0,-2.0,-8.0
1701540001.6313412,22.0,-42.0,0.0,44.0,36.0,1.0,-10.0,-20.0
1701540001.6313412,-5.0,23.0,-6.0,9.0,-53.0,-10.0,5.0,32.0
1701540001.6380043,9.0,-11.0,13.0,79.0,40.0,10.0,28.0,67.0
1701540001.6380043,-10.0,7.0,-3.0,-17.0,-19.0,-8.0,-12.0,-90.0
1701540001.639061,-18.0,22.0,-21.0,-128.0,-84.0,-29.0,-18.0,-27.0
1701540001.639061,-10.0,-34.0,-10.0,6.0,12.0,10.0,-7.0,21.0
1701540001.691658,-6.0,-13.0,22.0,12.0,-23.0,-8.0,-17.0,-4.0
1701540001.691658,15.0,15.0,-7.0,68.0,23.0,16.0,43.0,63.0
1701540001.691658,29.0,-13.0,-1.0,-26.0,-7.0,9.0,45.0,-21.0
1701540001.691658,-30.0,20.0,2.0,-52.0,-69.0,-26.0,-38.0,-10.0
1701540001.6927114,14.0,12.0,13.0,9.0,51.0,29.0,24.0,18.0
1701540001.6927114,4.0,27.0,2.0,-23.0,-5.0,-1.0,-5.0,34.0
1701540001.6956124,-21.0,-53.0,-5.0,127.0,84.0,13.0,-7.0,-79.0
1701540001.6956124,11.0,-23.0,27.0,-128.0,-68.0,-22.0,-31.0,20.0
1701540001.6956124,-23.0,29.0,-13.0,55.0,-48.0,-18.0,13.0,-6.0
1701540001.6956124,0.0,-61.0,5.0,127.0,103.0,36.0,16.0,2.0
1701540001.7262027,7.0,4.0,12.0,-52.0,-20.0,-4.0,18.0,20.0
1701540001.7262027,45.0,51.0,5.0,5.0,16.0,11.0,91.0,119.0
1701540001.7262027,-46.0,-6.0,-2.0,-94.0,-45.0,-18.0,-74.0,-120.0
1701540001.7262027,-10.0,20.0,-14.0,-95.0,-49.0,-19.0,-26.0,14.0
1701540001.7262027,12.0,8.0,12.0,87.0,33.0,18.0,28.0,36.0
1701540001.7262027,24.0,-46.0,1.0,30.0,18.0,0.0,0.0,4.0
1701540001.726609,-12.0,5.0,-8.0,-54.0,-31.0,-5.0,30.0,41.0
1701540001.726609,-20.0,22.0,-18.0,-16.0,-58.0,-18.0,-23.0,-29.0
1701540001.739439,-2.0,-29.0,-2.0,23.0,59.0,13.0,-11.0,-16.0
1701540001.7416937,0.0,31.0,3.0,-89.0,-76.0,-25.0,-8.0,-15.0
1701540001.7432458,13.0,-35.0,-8.0,127.0,106.0,42.0,32.0,21.0
1701540001.7432458,-44.0,-22.0,-1.0,-12.0,0.0,-9.0,-56.0,-41.0
1701540001.7846248,-5.0,-9.0,-15.0,-123.0,-120.0,-34.0,-43.0,-22.0
1701540001.7846248,-21.0,24.0,5.0,-59.0,47.0,11.0,-7.0,-19.0
1701540001.7846248,40.0,24.0,23.0,-128.0,-27.0,8.0,80.0,109.0
1701540001.7846248,10.0,23.0,4.0,127.0,-14.0,-15.0,-41.0,-93.0
1701540001.7846248,-19.0,-75.0,1.0,107.0,112.0,31.0,-46.0,3.0
1701540001.7846248,5.0,-8.0,-4.0,-91.0,-47.0,-22.0,-5.0,7.0
1701540001.7891831,-10.0,22.0,-7.0,-104.0,-46.0,-17.0,-28.0,-8.0
1701540001.7891831,30.0,6.0,7.0,-25.0,12.0,12.0,49.0,48.0
1701540001.7993147,-6.0,32.0,4.0,-61.0,-63.0,-15.0,-10.0,1.0
1701540001.7993147,4.0,15.0,-2.0,-11.0,-23.0,6.0,59.0,50.0
1701540001.8029969,-52.0,-58.0,-15.0,88.0,67.0,9.0,-76.0,-75.0
1701540001.8029969,0.0,-54.0,-7.0,30.0,14.0,1.0,-5.0,29.0
1701540001.8477197,-7.0,11.0,2.0,-30.0,-58.0,-20.0,-31.0,-23.0
1701540001.8477197,-2.0,-11.0,-6.0,-14.0,-14.0,-4.0,-4.0,18.0
1701540001.8477197,22.0,105.0,-3.0,-107.0,-99.0,-33.0,31.0,18.0
1701540001.8487763,-23.0,-60.0,-39.0,66.0,75.0,55.0,3.0,-23.0
1701540001.8487763,-53.0,-34.0,3.0,-93.0,-49.0,-7.0,-8.0,15.0
1701540001.8487763,7.0,30.0,7.0,-51.0,-56.0,-4.0,-11.0,-41.0
1701540001.850641,17.0,26.0,6.0,-128.0,-128.0,-41.0,-16.0,-14.0
1701540001.850641,-12.0,52.0,-26.0,32.0,32.0,0.0,-9.0,-5.0
1701540001.8619123,36.0,2.0,-14.0,111.0,43.0,18.0,36.0,31.0
1701540001.8619123,-14.0,-78.0,-4.0,89.0,72.0,15.0,-7.0,-24.0
1701540001.8632014,-7.0,0.0,12.0,-65.0,-61.0,-28.0,-24.0,-21.0
1701540001.8632014,15.0,28.0,-25.0,24.0,54.0,12.0,46.0,25.0
1701540001.9045243,10.0,10.0,7.0,-41.0,-11.0,-7.0,-9.0,-18.0
1701540001.9045243,-6.0,-10.0,4.0,-7.0,1.0,1.0,-7.0,14.0
1701540001.9045243,4.0,-5.0,-10.0,9.0,26.0,17.0,33.0,86.0
1701540001.9045243,-23.0,13.0,5.0,-85.0,-55.0,-20.0,-42.0,-75.0
1701540001.9045243,4.0,-6.0,6.0,-38.0,-11.0,-14.0,-21.0,-23.0
1701540001.9045243,6.0,-5.0,-2.0,83.0,50.0,11.0,-17.0,-25.0
1701540001.918509,6.0,10.0,21.0,-74.0,-64.0,-17.0,16.0,38.0
1701540001.918509,3.0,17.0,-16.0,41.0,38.0,29.0,39.0,53.0
1701540001.9385383,25.0,-25.0,-20.0,-78.0,-11.0,6.0,10.0,-27.0
1701540001.9385383,-20.0,-2.0,8.0,-69.0,-39.0,-4.0,-16.0,-6.0
1701540001.9385383,-13.0,-44.0,-15.0,71.0,45.0,16.0,14.0,-23.0
1701540001.9385383,6.0,27.0,12.0,-128.0,-96.0,-30.0,-11.0,14.0
1701540001.9385383,18.0,24.0,8.0,-37.0,-62.0,-15.0,-15.0,3.0
1701540001.9385383,-15.0,50.0,10.0,67.0,18.0,18.0,92.0,97.0
1701540001.9385383,-7.0,-68.0,-37.0,127.0,112.0,20.0,-85.0,-121.0
1701540001.9385383,-14.0,-74.0,18.0,11.0,19.0,-13.0,-24.0,19.0
1701540001.9485433,-24.0,36.0,18.0,-59.0,-11.0,-2.0,16.0,28.0
1701540001.9485433,-6.0,15.0,3.0,-96.0,-59.0,-16.0,-28.0,-11.0
1701540001.9655745,9.0,34.0,0.0,-28.0,-18.0,1.0,20.0,19.0
1701540001.9663386,10.0,-24.0,30.0,-18.0,-2.0,5.0,4.0,-6.0
1701540001.9853735,9.0,-6.0,-32.0,14.0,10.0,1.0,0.0,3.0
1701540001.9853735,6.0,54.0,-11.0,8.0,-53.0,-20.0,14.0,-16.0
1701540001.9853735,2.0,-51.0,24.0,127.0,118.0,46.0,-1.0,-10.0
1701540001.9853735,35.0,-3.0,26.0,-53.0,-27.0,-14.0,-28.0,1.0
1701540001.9873714,-20.0,5.0,0.0,-25.0,-43.0,-18.0,12.0,2.0
1701540001.9873714,20.0,37.0,-24.0,-103.0,-90.0,-21.0,-9.0,20.0
1701540002.0057871,-14.0,-36.0,-21.0,96.0,92.0,25.0,54.0,12.0
1701540002.0057871,-5.0,-73.0,13.0,-92.0,-35.0,-32.0,-37.0,-66.0
1701540002.0172932,-24.0,-21.0,19.0,-72.0,-38.0,3.0,19.0,5.0
1701540002.0172932,5.0,12.0,72.0,-79.0,-59.0,7.0,-7.0,-32.0
1701540002.023976,0.0,17.0,-83.0,14.0,-15.0,21.0,6.0,35.0
1701540002.023976,30.0,8.0,43.0,-31.0,-6.0,-6.0,40.0,45.0
1701540002.0573921,-10.0,11.0,19.0,-25.0,-44.0,-25.0,-52.0,-44.0
1701540002.0573921,24.0,-66.0,44.0,89.0,119.0,32.0,2.0,-7.0
1701540002.0573921,-15.0,44.0,-53.0,-128.0,-96.0,-43.0,-3.0,3.0
1701540002.0573921,-12.0,23.0,8.0,-43.0,-27.0,-2.0,-25.0,20.0
1701540002.0653195,56.0,12.0,11.0,55.0,47.0,28.0,61.0,52.0
1701540002.0653195,-51.0,-39.0,-2.0,-31.0,-22.0,-13.0,-51.0,-71.0
1701540002.0662165,42.0,-26.0,28.0,57.0,15.0,1.0,18.0,19.0
1701540002.0662165,-59.0,11.0,-40.0,-22.0,-21.0,-7.0,-37.0,-53.0
1701540002.0772932,13.0,33.0,14.0,-62.0,-17.0,5.0,27.0,52.0
1701540002.0772932,19.0,-19.0,-35.0,84.0,37.0,-1.0,5.0,16.0
1701540002.0789237,-19.0,9.0,19.0,-37.0,-11.0,-1.0,23.0,-29.0
1701540002.0789237,2.0,-5.0,31.0,13.0,-22.0,12.0,22.0,19.0
1701540002.1151333,4.0,-7.0,-35.0,63.0,42.0,6.0,-5.0,-10.0
1701540002.1151333,-6.0,-1.0,-21.0,3.0,30.0,-1.0,-40.0,-9.0
1701540002.1151333,-25.0,2.0,19.0,25.0,19.0,7.0,30.0,42.0
1701540002.1151333,37.0,22.0,13.0,-92.0,-74.0,-14.0,4.0,-5.0
1701540002.1151333,-41.0,5.0,-14.0,99.0,65.0,13.0,-20.0,-38.0
1701540002.1151333,-8.0,-56.0,-33.0,50.0,17.0,-1.0,-4.0,2.0
1701540002.117253,9.0,39.0,51.0,-98.0,-75.0,-25.0,-30.0,-9.0
1701540002.117253,0.0,38.0,-26.0,33.0,-6.0,5.0,22.0,46.0
1701540002.1375983,2.0,-37.0,-25.0,55.0,37.0,-1.0,0.0,-12.0
1701540002.1375983,-1.0,-1.0,-13.0,-57.0,16.0,10.0,17.0,-18.0
1701540002.1785903,-9.0,24.0,6.0,-90.0,-44.0,-1.0,-11.0,-12.0
1701540002.1785903,-27.0,-35.0,-33.0,67.0,56.0,3.0,-1.0,-7.0
1701540002.1825933,15.0,17.0,32.0,-33.0,-51.0,-9.0,-11.0,4.0
1701540002.1825933,-17.0,4.0,-1.0,22.0,15.0,1.0,38.0,12.0
1701540002.1852314,33.0,-6.0,29.0,-25.0,-26.0,-7.0,-11.0,5.0
1701540002.1852314,-42.0,-25.0,-8.0,40.0,22.0,2.0,-4.0,-4.0
1701540002.1852314,11.0,39.0,-1.0,-56.0,-2.0,7.0,-2.0,23.0
1701540002.1852314,-37.0,-99.0,-16.0,92.0,86.0,14.0,-12.0,-45.0
1701540002.1862848,8.0,4.0,12.0,32.0,-30.0,-13.0,-25.0,-19.0
1701540002.1862848,34.0,38.0,0.0,-90.0,-32.0,1.0,20.0,15.0
1701540002.1981514,-21.0,-10.0,-25.0,-24.0,-22.0,-11.0,14.0,25.0
1701540002.1981514,59.0,83.0,49.0,-18.0,-41.0,3.0,5.0,22.0
1701540002.23525,-62.0,-94.0,-69.0,79.0,94.0,41.0,-3.0,-34.0
1701540002.23525,18.0,13.0,-7.0,-51.0,-25.0,-3.0,-6.0,12.0
1701540002.23525,7.0,51.0,22.0,-91.0,-44.0,-12.0,-4.0,-13.0
1701540002.23525,-4.0,10.0,-6.0,-78.0,-47.0,-8.0,22.0,26.0
1701540002.23525,30.0,-10.0,15.0,50.0,26.0,11.0,22.0,29.0
1701540002.2362523,12.0,20.0,13.0,42.0,21.0,8.0,6.0,8.0
1701540002.2362523,-7.0,-15.0,-4.0,-24.0,-8.0,-10.0,2.0,-9.0
1701540002.2362523,-4.0,20.0,-16.0,-106.0,-43.0,-16.0,-28.0,-24.0
1701540002.2441576,24.0,-12.0,18.0,82.0,40.0,3.0,-9.0,-1.0
1701540002.2441576,-30.0,-34.0,-45.0,15.0,13.0,-5.0,-46.0,-4.0
1701540002.2666378,25.0,14.0,11.0,-28.0,-24.0,11.0,7.0,29.0
1701540002.2666378,33.0,9.0,-2.0,-77.0,-47.0,-4.0,26.0,13.0
1701540002.2666378,-15.0,-3.0,40.0,55.0,72.0,8.0,-20.0,-30.0
1701540002.2666378,17.0,0.0,-37.0,-65.0,-6.0,-3.0,10.0,5.0
1701540002.2789352,-15.0,-10.0,-12.0,90.0,56.0,5.0,-21.0,-6.0
1701540002.2789352,10.0,19.0,9.0,-38.0,-13.0,-10.0,-11.0,4.0
1701540002.2834558,17.0,24.0,-29.0,-85.0,-64.0,-13.0,35.0,9.0
1701540002.2834558,2.0,-16.0,20.0,23.0,13.0,10.0,22.0,26.0
1701540002.3039763,-8.0,-14.0,13.0,-38.0,-40.0,-11.0,-21.0,-51.0
1701540002.3049765,-25.0,-43.0,-19.0,99.0,65.0,13.0,-3.0,-6.0
1701540002.3066053,4.0,37.0,7.0,-102.0,-76.0,-22.0,-12.0,3.0
1701540002.3066053,-2.0,-12.0,23.0,47.0,18.0,2.0,8.0,2.0
1701540002.3181229,13.0,-6.0,-72.0,-81.0,-49.0,-11.0,14.0,1.0
1701540002.3181229,-42.0,-31.0,-28.0,90.0,47.0,11.0,-14.0,-10.0
1701540002.3669589,-2.0,9.0,36.0,30.0,7.0,-2.0,-19.0,0.0
1701540002.3669589,17.0,15.0,24.0,-11.0,6.0,4.0,29.0,-2.0
1701540002.3669589,-1.0,-3.0,5.0,-11.0,-9.0,-2.0,-22.0,2.0
1701540002.3669589,2.0,15.0,1.0,-35.0,-23.0,-9.0,-4.0,-10.0
1701540002.3669589,7.0,-6.0,-15.0,-46.0,-8.0,-13.0,-40.0,43.0
1701540002.3669589,-9.0,-37.0,-9.0,64.0,18.0,-4.0,8.0,-77.0
1701540002.3773496,-6.0,12.0,22.0,-8.0,0.0,8.0,-19.0,-14.0
1701540002.378347,-8.0,13.0,21.0,-68.0,-56.0,-13.0,-15.0,-3.0
1701540002.390722,-11.0,-24.0,-14.0,81.0,84.0,29.0,1.0,1.0
1701540002.390722,-3.0,-9.0,4.0,-83.0,-46.0,-18.0,-6.0,28.0
1701540002.390722,8.0,-3.0,-13.0,-45.0,-9.0,-10.0,5.0,-16.0
1701540002.390722,-2.0,-34.0,11.0,27.0,24.0,12.0,-7.0,5.0
1701540002.3927214,-24.0,-11.0,-10.0,-59.0,-47.0,-19.0,1.0,-9.0
1701540002.3927214,6.0,10.0,-52.0,-26.0,-16.0,-4.0,-10.0,-9.0
1701540002.3927214,-23.0,-7.0,44.0,126.0,62.0,21.0,5.0,-3.0
1701540002.3927214,15.0,-1.0,24.0,11.0,-6.0,1.0,-30.0,9.0
1701540002.4155328,14.0,27.0,-5.0,-51.0,-37.0,-3.0,41.0,23.0
1701540002.4155328,-6.0,-1.0,18.0,42.0,12.0,1.0,4.0,-20.0
1701540002.4280286,0.0,-24.0,12.0,-27.0,1.0,2.0,-7.0,2.0
1701540002.4293265,-3.0,19.0,-49.0,-21.0,-15.0,-11.0,-43.0,-6.0
1701540002.4572413,6.0,26.0,25.0,77.0,51.0,14.0,25.0,9.0
1701540002.4572413,5.0,-13.0,11.0,-25.0,-12.0,0.0,-14.0,0.0
1701540002.4662435,-33.0,-30.0,0.0,18.0,-1.0,0.0,8.0,-6.0
1701540002.4662435,-9.0,-10.0,25.0,60.0,25.0,-9.0,-42.0,-2.0
1701540002.467243,19.0,9.0,-30.0,-52.0,-29.0,10.0,48.0,-6.0
1701540002.467243,-11.0,24.0,8.0,-46.0,-19.0,3.0,1.0,18.0
1701540002.467243,5.0,-4.0,7.0,33.0,8.0,3.0,-1.0,-1.0
1701540002.467243,5.0,-13.0,-17.0,34.0,30.0,-19.0,-44.0,-2.0
1701540002.467243,-2.0,-22.0,-8.0,-45.0,-30.0,-2.0,14.0,-12.0
1701540002.467243,-3.0,-6.0,44.0,-12.0,-16.0,-3.0,11.0,4.0
1701540002.4807587,11.0,-4.0,-52.0,7.0,18.0,-2.0,5.0,7.0
1701540002.4807587,1.0,9.0,0.0,8.0,2.0,1.0,30.0,-2.0
1701540002.4856515,1.0,6.0,7.0,-30.0,-20.0,-11.0,-51.0,-9.0
1701540002.4856515,6.0,24.0,-9.0,4.0,2.0,3.0,-3.0,-5.0
1701540002.5042508,1.0,4.0,-21.0,-29.0,-9.0,-4.0,27.0,2.0
1701540002.5052502,-4.0,7.0,14.0,23.0,6.0,3.0,-8.0,0.0
1701540002.543145,-6.0,-8.0,31.0,-12.0,-4.0,-18.0,-6.0,-6.0
1701540002.543145,-4.0,-43.0,-7.0,27.0,15.0,6.0,25.0,-8.0
1701540002.543145,2.0,11.0,-9.0,-26.0,-5.0,11.0,4.0,8.0
1701540002.543145,11.0,1.0,9.0,0.0,-6.0,3.0,22.0,-2.0
1701540002.543145,-13.0,-10.0,-8.0,-1.0,-11.0,-5.0,-10.0,-7.0
1701540002.543145,6.0,-13.0,-3.0,1.0,14.0,0.0,-20.0,6.0
1701540002.5829675,1.0,18.0,18.0,21.0,-2.0,-22.0,-3.0,6.0
1701540002.5829675,8.0,-8.0,-18.0,-19.0,-2.0,18.0,51.0,2.0
1701540002.5829675,-6.0,0.0,8.0,-14.0,-10.0,-8.0,-22.0,-41.0
1701540002.5829675,-4.0,3.0,-7.0,-1.0,11.0,10.0,-8.0,4.0
1701540002.5829675,-1.0,2.0,33.0,15.0,7.0,2.0,-23.0,-3.0
1701540002.5829675,-6.0,-3.0,-8.0,-10.0,-1.0,-8.0,-19.0,1.0
1701540002.5829675,2.0,-10.0,-70.0,-23.0,-10.0,-5.0,28.0,11.0
1701540002.5829675,-1.0,1.0,29.0,13.0,-1.0,-2.0,-1.0,-1.0
1701540002.59238,3.0,-5.0,3.0,-33.0,-22.0,-6.0,2.0,2.0
1701540002.59238,-7.0,4.0,13.0,17.0,11.0,3.0,10.0,0.0
1701540002.6055489,-1.0,5.0,19.0,16.0,1.0,-5.0,-20.0,-5.0
1701540002.6055489,3.0,19.0,-22.0,-25.0,-9.0,-3.0,-6.0,-2.0
1701540002.6065743,-2.0,-8.0,-5.0,59.0,13.0,-12.0,-20.0,-10.0
1701540002.6065743,-8.0,3.0,-1.0,-18.0,-4.0,-15.0,-4.0,-14.0
1701540002.6121345,3.0,-23.0,0.0,-25.0,-14.0,30.0,30.0,11.0
1701540002.6121345,-3.0,3.0,-14.0,3.0,0.0,2.0,12.0,5.0
1701540002.6234827,1.0,4.0,3.0,-22.0,-8.0,-2.0,1.0,-1.0
1701540002.6254413,-1.0,11.0,-14.0,1.0,0.0,-10.0,-31.0,-1.0
1701540002.6265304,-5.0,8.0,12.0,6.0,0.0,-10.0,-25.0,-20.0
1701540002.6265304,1.0,13.0,1.0,9.0,3.0,4.0,13.0,5.0
1701540002.6487393,2.0,-24.0,-11.0,-5.0,1.0,3.0,-14.0,0.0
1701540002.649565,-1.0,0.0,-4.0,4.0,5.0,1.0,22.0,3.0
1701540002.677717,7.0,18.0,9.0,-7.0,-5.0,-7.0,-17.0,-2.0
1701540002.677717,-7.0,-6.0,-6.0,4.0,-3.0,-6.0,-19.0,-8.0
1701540002.6901865,-2.0,-7.0,-8.0,-3.0,-2.0,-5.0,6.0,-2.0
1701540002.6901865,0.0,-29.0,-7.0,-3.0,4.0,18.0,21.0,4.0
1701540002.6901865,-1.0,0.0,4.0,-9.0,-7.0,-8.0,5.0,5.0
1701540002.6901865,-2.0,5.0,3.0,9.0,1.0,-5.0,-12.0,-3.0
1701540002.6901865,-1.0,-3.0,-5.0,-1.0,3.0,0.0,-2.0,-2.0
1701540002.6901865,-2.0,6.0,1.0,-2.0,0.0,2.0,18.0,-1.0
1701540002.6912782,0.0,-3.0,0.0,1.0,-2.0,0.0,-10.0,5.0
1701540002.6929288,-2.0,-16.0,-6.0,1.0,3.0,-4.0,6.0,0.0
1701540002.7118237,-1.0,-10.0,3.0,-1.0,-1.0,2.0,0.0,-1.0
1701540002.7128801,1.0,-2.0,-3.0,-4.0,-3.0,4.0,4.0,2.0
1701540002.737008,-1.0,3.0,-3.0,0.0,0.0,-5.0,0.0,1.0
1701540002.737008,0.0,-11.0,18.0,6.0,-2.0,-2.0,0.0,1.0
1701540002.7484164,0.0,9.0,-14.0,-4.0,0.0,3.0,3.0,1.0
1701540002.7484164,-2.0,-64.0,8.0,-5.0,-2.0,4.0,-2.0,0.0
1701540002.7484164,34.0,72.0,17.0,-6.0,-2.0,-4.0,-8.0,1.0
1701540002.7484164,-30.0,45.0,23.0,5.0,1.0,-4.0,13.0,-6.0
1701540002.7484164,10.0,-8.0,25.0,1.0,2.0,10.0,8.0,3.0
1701540002.7484164,11.0,6.0,28.0,6.0,-1.0,-2.0,7.0,3.0
1701540002.7644281,12.0,-42.0,-57.0,-8.0,1.0,-1.0,1.0,-1.0
1701540002.7653186,-41.0,-6.0,23.0,-1.0,-8.0,-3.0,-8.0,-28.0
1701540002.7853625,25.0,-11.0,-73.0,-12.0,-4.0,-3.0,7.0,-6.0
1701540002.7853625,10.0,0.0,-20.0,-6.0,0.0,2.0,3.0,2.0
1701540002.7853625,1.0,-8.0,7.0,2.0,-1.0,-1.0,1.0,4.0
1701540002.7853625,7.0,16.0,18.0,9.0,10.0,5.0,-2.0,5.0
1701540002.7873724,-86.0,0.0,7.0,6.0,-10.0,-10.0,-9.0,-27.0
1701540002.7873724,85.0,-7.0,-43.0,0.0,-5.0,5.0,12.0,28.0
1701540002.7927413,-25.0,-26.0,16.0,3.0,0.0,0.0,0.0,-10.0
1701540002.7927413,9.0,33.0,-1.0,3.0,2.0,-3.0,-2.0,4.0
1701540002.8050942,9.0,-1.0,-5.0,4.0,8.0,4.0,-3.0,3.0
1701540002.8050942,-17.0,20.0,52.0,7.0,11.0,5.0,4.0,5.0
1701540002.827674,-9.0,-89.0,-23.0,-57.0,-25.0,-12.0,-6.0,9.0
1701540002.8286748,16.0,35.0,-70.0,6.0,0.0,3.0,-5.0,-21.0
1701540002.858866,4.0,79.0,29.0,-9.0,-3.0,-2.0,-1.0,1.0
1701540002.858866,-29.0,19.0,35.0,12.0,12.0,1.0,-7.0,-11.0
1701540002.858866,3.0,-54.0,-32.0,0.0,2.0,1.0,23.0,13.0
1701540002.858866,-6.0,-86.0,6.0,-1.0,-3.0,-1.0,-3.0,5.0
1701540002.858866,9.0,24.0,18.0,32.0,6.0,3.0,-10.0,1.0
1701540002.858866,-90.0,21.0,-22.0,-18.0,-5.0,-7.0,10.0,-26.0
1701540002.858866,9.0,-30.0,41.0,12.0,1.0,1.0,-4.0,0.0
1701540002.8598654,19.0,-23.0,-5.0,-4.0,-2.0,0.0,-1.0,11.0
1701540002.8598654,0.0,-12.0,-5.0,-7.0,-6.0,-3.0,4.0,4.0
1701540002.8598654,2.0,4.0,-72.0,19.0,7.0,-2.0,-9.0,-4.0
1701540002.868358,-7.0,45.0,38.0,4.0,0.0,-1.0,-1.0,-1.0
1701540002.868358,-9.0,-6.0,31.0,-8.0,-9.0,-4.0,1.0,2.0
1701540002.912377,9.0,-30.0,18.0,-7.0,-2.0,0.0,-2.0,7.0
1701540002.912377,8.0,4.0,-5.0,-3.0,3.0,1.0,-3.0,0.0
1701540002.912377,-11.0,40.0,13.0,20.0,-2.0,-5.0,-8.0,-8.0
1701540002.912377,13.0,-5.0,-29.0,-10.0,-4.0,-2.0,-1.0,2.0
1701540002.9174476,2.0,-14.0,-12.0,9.0,8.0,5.0,2.0,0.0
1701540002.9174476,5.0,-13.0,9.0,-1.0,-12.0,-3.0,-4.0,-2.0
1701540002.9174476,-7.0,30.0,-8.0,11.0,-1.0,-1.0,-4.0,-4.0
1701540002.9174476,2.0,3.0,5.0,-14.0,-11.0,-3.0,-1.0,4.0
1701540002.938399,6.0,-22.0,-2.0,25.0,28.0,10.0,4.0,2.0
1701540002.9393988,-2.0,-24.0,-10.0,-6.0,-4.0,-2.0,-2.0,-1.0
1701540002.952346,-2.0,22.0,-1.0,-5.0,3.0,0.0,-4.0,0.0
1701540002.952346,4.0,7.0,-23.0,-7.0,-8.0,-3.0,-1.0,2.0
1701540002.953346,-3.0,2.0,71.0,-10.0,-11.0,-5.0,0.0,-1.0
1701540002.953346,3.0,-5.0,-93.0,-37.0,-8.0,-4.0,-4.0,-4.0
1701540002.953346,-4.0,2.0,27.0,0.0,-3.0,-4.0,-6.0,-5.0
1701540002.953346,1.0,-7.0,-15.0,2.0,4.0,0.0,0.0,0.0
1701540002.967743,-1.0,-2.0,-4.0,1.0,3.0,2.0,0.0,1.0
1701540002.967743,-2.0,10.0,51.0,6.0,2.0,0.0,0.0,-2.0
1701540002.967743,-3.0,-5.0,-5.0,-2.0,-1.0,0.0,1.0,-3.0
1701540002.967743,-1.0,1.0,-58.0,-17.0,-4.0,-3.0,-3.0,-1.0
1701540003.0021243,3.0,-15.0,7.0,-3.0,-5.0,-2.0,-1.0,-1.0
1701540003.002474,3.0,8.0,51.0,15.0,-2.0,-2.0,-1.0,-2.0
1701540003.0241253,-4.0,11.0,-39.0,5.0,4.0,2.0,-2.0,-2.0
1701540003.0241253,5.0,6.0,96.0,13.0,2.0,1.0,1.0,1.0
1701540003.0241253,-7.0,-20.0,-92.0,-39.0,-16.0,-6.0,-4.0,-7.0
1701540003.0241253,5.0,-4.0,20.0,27.0,17.0,8.0,1.0,2.0
1701540003.0241253,1.0,-8.0,30.0,23.0,7.0,2.0,1.0,0.0
1701540003.0241253,-1.0,-3.0,-40.0,2.0,4.0,-2.0,-1.0,1.0
1701540003.0257611,0.0,15.0,37.0,-18.0,-13.0,-5.0,1.0,1.0
1701540003.0257611,-2.0,1.0,-30.0,-3.0,-11.0,-5.0,-2.0,-2.0
1701540003.0326703,-1.0,-20.0,5.0,-19.0,-2.0,-1.0,-2.0,-1.0
1701540003.0326703,-2.0,22.0,1.0,4.0,-5.0,1.0,1.0,0.0
1701540003.0779376,2.0,-4.0,20.0,10.0,7.0,0.0,-1.0,-1.0
1701540003.0779376,1.0,2.0,-13.0,-2.0,1.0,-1.0,0.0,-1.0
1701540003.0779376,1.0,-5.0,-26.0,-1.0,1.0,1.0,0.0,-2.0
1701540003.0779376,0.0,-9.0,92.0,-28.0,-5.0,-4.0,-2.0,-1.0
1701540003.0779376,-15.0,-17.0,-70.0,-10.0,-10.0,-5.0,-3.0,-1.0
1701540003.0779376,1.0,9.0,47.0,8.0,-5.0,-4.0,-3.0,-1.0
1701540003.0779376,0.0,4.0,0.0,-10.0,-4.0,-3.0,-2.0,-2.0
1701540003.0779376,-2.0,-15.0,7.0,17.0,9.0,2.0,0.0,-1.0
1701540003.091103,-1.0,4.0,4.0,-1.0,3.0,1.0,-1.0,0.0
1701540003.091103,-2.0,-9.0,0.0,-16.0,-7.0,-2.0,-2.0,-1.0
1701540003.0925095,0.0,9.0,-5.0,15.0,7.0,0.0,0.0,0.0
1701540003.0925095,-5.0,-6.0,-74.0,-36.0,-7.0,-1.0,-2.0,-2.0
1701540003.1381242,8.0,7.0,24.0,3.0,-15.0,-3.0,0.0,1.0
1701540003.1381242,-8.0,2.0,-50.0,-4.0,3.0,-2.0,-2.0,-3.0
1701540003.1381242,3.0,9.0,42.0,19.0,9.0,2.0,-1.0,-1.0
1701540003.1391232,3.0,-8.0,15.0,18.0,7.0,1.0,1.0,2.0
1701540003.1420257,2.0,-10.0,-39.0,-19.0,-7.0,-5.0,-2.0,-2.0
1701540003.1420257,0.0,-35.0,22.0,-15.0,-9.0,-2.0,-1.0,0.0
1701540003.1420257,1.0,4.0,31.0,33.0,8.0,4.0,2.0,0.0
1701540003.1420257,-34.0,77.0,-79.0,-46.0,-10.0,-6.0,-5.0,-1.0
1701540003.1497178,-11.0,-19.0,-61.0,-15.0,-7.0,-6.0,-7.0,-22.0
1701540003.1497178,4.0,-1.0,60.0,6.0,2.0,1.0,-1.0,-1.0
1701540003.1524577,-6.0,-42.0,-24.0,9.0,6.0,0.0,0.0,0.0
1701540003.1524577,14.0,-24.0,19.0,23.0,4.0,4.0,1.0,-1.0
1701540003.1933837,3.0,21.0,21.0,10.0,4.0,0.0,2.0,7.0
1701540003.1933837,-8.0,-5.0,-3.0,-3.0,1.0,-1.0,-1.0,-1.0
1701540003.1933837,11.0,18.0,32.0,-19.0,-10.0,-4.0,-4.0,-3.0
1701540003.1933837,-7.0,-10.0,-52.0,21.0,6.0,3.0,1.0,-6.0
1701540003.1933837,26.0,10.0,9.0,-41.0,-9.0,-4.0,-2.0,5.0
1701540003.1933837,8.0,-10.0,-8.0,14.0,-3.0,-3.0,-1.0,2.0
1701540003.1933837,-2.0,9.0,-5.0,3.0,-6.0,-3.0,1.0,2.0
1701540003.1933837,8.0,-12.0,20.0,0.0,1.0,0.0,0.0,-1.0
1701540003.240838,-9.0,-3.0,33.0,19.0,11.0,5.0,1.0,-3.0
1701540003.240838,-6.0,6.0,-20.0,-11.0,-3.0,0.0,1.0,-1.0
1701540003.240838,0.0,2.0,-23.0,-12.0,-2.0,-3.0,-1.0,1.0
1701540003.240838,-4.0,-57.0,91.0,15.0,5.0,2.0,0.0,-3.0
1701540003.240838,-3.0,42.0,10.0,3.0,6.0,3.0,1.0,-1.0
1701540003.240838,5.0,38.0,43.0,-9.0,-8.0,-2.0,-3.0,-5.0
1701540003.240838,-11.0,-34.0,-60.0,-13.0,-12.0,-8.0,-5.0,-3.0
1701540003.240838,9.0,-3.0,45.0,18.0,-3.0,-3.0,-5.0,-2.0
1701540003.248047,-6.0,-21.0,22.0,12.0,2.0,0.0,0.0,-4.0
1701540003.248047,7.0,-11.0,-39.0,-19.0,1.0,0.0,1.0,6.0
1701540003.251099,-16.0,-28.0,5.0,-2.0,6.0,4.0,-1.0,-14.0
1701540003.251099,-4.0,39.0,-9.0,10.0,-5.0,-5.0,-3.0,14.0
1701540003.3040438,-6.0,-7.0,74.0,3.0,2.0,1.0,2.0,-2.0
1701540003.3040438,-3.0,-1.0,-102.0,-19.0,-2.0,-2.0,-2.0,-3.0
1701540003.3040438,22.0,-26.0,55.0,-14.0,-10.0,-3.0,0.0,5.0
1701540003.3040438,1.0,-33.0,-1.0,8.0,-4.0,-3.0,-1.0,2.0
1701540003.3040438,-14.0,4.0,1.0,32.0,3.0,1.0,-2.0,-1.0
1701540003.3040438,4.0,-5.0,13.0,-3.0,1.0,0.0,2.0,3.0
1701540003.3081353,-10.0,11.0,-6.0,-4.0,3.0,0.0,-3.0,1.0
1701540003.3091354,0.0,-9.0,-43.0,-14.0,1.0,0.0,-1.0,-6.0
1701540003.3112812,15.0,27.0,20.0,9.0,-2.0,-2.0,2.0,5.0
1701540003.3112812,-58.0,-7.0,-16.0,-5.0,-1.0,-2.0,-7.0,-17.0
1701540003.3123798,-13.0,7.0,-31.0,2.0,0.0,-1.0,0.0,-1.0
1701540003.314986,14.0,-6.0,11.0,-64.0,-15.0,-5.0,8.0,-1.0
1701540003.344988,-13.0,-19.0,-81.0,6.0,-10.0,-8.0,-9.0,-7.0
1701540003.344988,8.0,3.0,31.0,6.0,4.0,0.0,-1.0,1.0
1701540003.344988,0.0,13.0,-4.0,-1.0,-1.0,-1.0,2.0,3.0
1701540003.344988,-2.0,-40.0,31.0,23.0,9.0,4.0,-3.0,-2.0
1701540003.3460138,7.0,-12.0,-48.0,-15.0,-3.0,1.0,0.0,-2.0
1701540003.3460138,-5.0,78.0,59.0,-2.0,-4.0,-4.0,-1.0,1.0
1701540003.3548846,20.0,4.0,-11.0,-15.0,-7.0,-4.0,-8.0,-13.0
1701540003.3548846,-1.0,-3.0,17.0,10.0,6.0,0.0,-1.0,-2.0
1701540003.368036,35.0,-36.0,39.0,-12.0,-5.0,-2.0,-17.0,-1.0
1701540003.368036,17.0,3.0,-11.0,23.0,2.0,3.0,18.0,25.0
1701540003.4064622,-9.0,-9.0,92.0,5.0,0.0,-1.0,-3.0,-19.0
1701540003.4064622,0.0,34.0,-79.0,2.0,-1.0,-2.0,-16.0,-7.0
1701540003.4064622,-2.0,-9.0,-22.0,-2.0,5.0,2.0,12.0,7.0
1701540003.4064622,1.0,-2.0,20.0,-8.0,-1.0,-2.0,-6.0,-6.0
1701540003.4064622,-3.0,-2.0,3.0,-8.0,0.0,3.0,4.0,10.0
1701540003.407461,4.0,-2.0,7.0,14.0,0.0,-2.0,0.0,-1.0
1701540003.407461,-7.0,-2.0,-43.0,12.0,-1.0,-2.0,-3.0,1.0
1701540003.407461,3.0,-32.0,-11.0,-17.0,-5.0,-1.0,-3.0,-6.0
1701540003.4149992,7.0,10.0,-24.0,-8.0,-4.0,-3.0,1.0,6.0
1701540003.4149992,-56.0,-6.0,-36.0,17.0,9.0,1.0,-1.0,-7.0
1701540003.469697,-59.0,17.0,47.0,-12.0,-5.0,-1.0,1.0,0.0
1701540003.469697,6.0,-51.0,19.0,7.0,-3.0,-2.0,1.0,-5.0
1701540003.469697,2.0,12.0,-90.0,-17.0,-3.0,-1.0,-4.0,-1.0
1701540003.469697,7.0,4.0,-15.0,0.0,-1.0,0.0,1.0,0.0
1701540003.4733777,0.0,-4.0,37.0,-6.0,2.0,2.0,3.0,0.0
1701540003.4733777,-11.0,-25.0,-1.0,4.0,-1.0,-1.0,-7.0,-8.0
1701540003.4733777,-9.0,16.0,66.0,7.0,0.0,1.0,1.0,2.0
1701540003.4733777,7.0,-2.0,-65.0,-17.0,-5.0,-3.0,-2.0,-3.0
1701540003.4733777,10.0,-11.0,-16.0,6.0,-1.0,-1.0,1.0,9.0
1701540003.4733777,-8.0,-9.0,29.0,15.0,1.0,1.0,-8.0,-24.0
1701540003.4750807,-1.0,3.0,-35.0,3.0,0.0,0.0,0.0,-4.0
1701540003.4750807,44.0,-4.0,42.0,-9.0,-4.0,-2.0,5.0,15.0
1701540003.4881916,-7.0,26.0,35.0,1.0,-3.0,-2.0,-2.0,-7.0
1701540003.4881916,-1.0,-11.0,-14.0,6.0,-1.0,-2.0,-2.0,6.0
1701540003.5377128,9.0,-22.0,-6.0,-12.0,-1.0,1.0,2.0,7.0
1701540003.5377128,-9.0,37.0,36.0,5.0,1.0,0.0,-2.0,-10.0
1701540003.5377128,8.0,-17.0,-28.0,-12.0,1.0,2.0,0.0,-1.0
1701540003.5377128,-23.0,5.0,39.0,5.0,-1.0,0.0,3.0,4.0
1701540003.5377128,-2.0,-12.0,-68.0,-8.0,-1.0,-3.0,-3.0,0.0
1701540003.5377128,1.0,-33.0,28.0,9.0,-2.0,-2.0,-1.0,1.0
1701540003.5377128,9.0,33.0,-18.0,-14.0,-7.0,-4.0,-3.0,1.0
1701540003.5377128,6.0,16.0,-41.0,-5.0,0.0,-1.0,-3.0,0.0
1701540003.5377128,0.0,-5.0,2.0,3.0,4.0,2.0,0.0,5.0
1701540003.5377128,-11.0,-9.0,-3.0,-8.0,-4.0,-3.0,-1.0,-2.0
1701540003.538716,-9.0,-18.0,-2.0,5.0,-2.0,-2.0,0.0,-2.0
1701540003.538716,2.0,-4.0,29.0,-9.0,-3.0,-2.0,-13.0,2.0
1701540003.5880072,-3.0,19.0,24.0,1.0,0.0,0.0,8.0,1.0
1701540003.5880072,4.0,27.0,-53.0,-12.0,-1.0,2.0,1.0,23.0
1701540003.5880072,6.0,1.0,50.0,9.0,0.0,-2.0,1.0,-7.0
1701540003.5880072,-2.0,17.0,0.0,10.0,2.0,0.0,-2.0,0.0
1701540003.5880072,65.0,-19.0,-8.0,-18.0,-9.0,-6.0,-6.0,4.0
1701540003.5880072,-9.0,-11.0,-33.0,-7.0,-3.0,-1.0,2.0,4.0
1701540003.5897174,7.0,-11.0,-20.0,6.0,2.0,2.0,-2.0,4.0
1701540003.5897174,5.0,21.0,-17.0,-1.0,0.0,-1.0,4.0,-1.0
1701540003.594593,-11.0,7.0,-20.0,6.0,3.0,0.0,0.0,-1.0
1701540003.594593,1.0,-2.0,88.0,17.0,1.0,0.0,1.0,-8.0
1701540003.608145,-21.0,-6.0,16.0,-7.0,-2.0,-3.0,-6.0,-17.0
1701540003.608145,-1.0,-16.0,-53.0,-6.0,0.0,-1.0,0.0,-6.0
1701540003.6535797,-14.0,11.0,48.0,11.0,0.0,0.0,-3.0,-5.0
1701540003.6535797,-1.0,-27.0,-68.0,-16.0,-3.0,-3.0,-4.0,-8.0
1701540003.6535797,-13.0,-4.0,38.0,8.0,4.0,1.0,-11.0,-5.0
1701540003.6535797,1.0,47.0,-43.0,-8.0,-4.0,-4.0,14.0,4.0
1701540003.6535797,-18.0,-17.0,64.0,5.0,-1.0,0.0,-1.0,-5.0
1701540003.6535797,-1.0,-5.0,16.0,7.0,1.0,1.0,0.0,-4.0
1701540003.654928,8.0,12.0,16.0,2.0,-3.0,-2.0,-8.0,5.0
1701540003.6562335,15.0,-18.0,15.0,-9.0,-4.0,-1.0,15.0,6.0
1701540003.6805143,-1.0,-10.0,-16.0,0.0,-2.0,-2.0,-2.0,2.0
1701540003.6805143,-1.0,10.0,35.0,-3.0,0.0,1.0,-3.0,-7.0
1701540003.6911178,27.0,-8.0,32.0,17.0,-1.0,0.0,4.0,-1.0
1701540003.6911178,-27.0,-3.0,-11.0,-31.0,-10.0,-4.0,-9.0,1.0
1701540003.692108,-13.0,3.0,-93.0,-13.0,-6.0,0.0,3.0,-1.0
1701540003.692108,6.0,-16.0,16.0,1.0,4.0,3.0,1.0,-4.0
1701540003.692108,14.0,18.0,-15.0,1.0,15.0,3.0,4.0,4.0
1701540003.692108,-2.0,-23.0,45.0,11.0,-1.0,-3.0,-6.0,-4.0
1701540003.692108,0.0,-2.0,21.0,1.0,-4.0,-2.0,0.0,9.0
1701540003.692108,-1.0,-8.0,-73.0,-3.0,-7.0,-3.0,-5.0,-9.0
1701540003.7193973,-11.0,-15.0,-71.0,-11.0,-8.0,-4.0,3.0,2.0
1701540003.7204037,10.0,22.0,25.0,-5.0,-5.0,-3.0,-7.0,7.0
1701540003.7483814,-20.0,10.0,3.0,-3.0,0.0,-1.0,-3.0,-7.0
1701540003.748804,4.0,-44.0,23.0,10.0,3.0,0.0,3.0,14.0
1701540003.7563686,-4.0,31.0,17.0,2.0,2.0,1.0,-6.0,4.0
1701540003.7563686,41.0,3.0,-54.0,-6.0,-1.0,-1.0,14.0,10.0
1701540003.7563686,11.0,-3.0,5.0,4.0,3.0,0.0,-4.0,-2.0
1701540003.7563686,-3.0,15.0,82.0,14.0,-1.0,-1.0,-1.0,-5.0
1701540003.7563686,5.0,-37.0,-40.0,-12.0,-6.0,1.0,3.0,3.0
1701540003.7563686,-9.0,-3.0,6.0,-12.0,-1.0,-1.0,-6.0,-4.0
1701540003.7563686,-12.0,-4.0,-25.0,26.0,14.0,1.0,-3.0,-2.0
1701540003.75737,7.0,3.0,-4.0,3.0,1.0,-1.0,3.0,1.0
1701540003.8031583,-11.0,7.0,22.0,-4.0,-1.0,0.0,2.0,-4.0
1701540003.8031583,-4.0,-1.0,-49.0,-6.0,-4.0,-2.0,-4.0,-6.0
1701540003.8031583,-5.0,-14.0,4.0,-5.0,-6.0,-5.0,0.0,-4.0
1701540003.8041549,2.0,4.0,48.0,-1.0,1.0,-1.0,-3.0,-2.0
1701540003.8041549,-4.0,-1.0,-75.0,-11.0,-6.0,-4.0,0.0,-3.0
1701540003.8041549,-1.0,-21.0,30.0,16.0,4.0,1.0,-5.0,-5.0
1701540003.8041549,4.0,13.0,27.0,-16.0,-10.0,-3.0,3.0,2.0
1701540003.8041549,-7.0,14.0,-106.0,-18.0,-2.0,0.0,-4.0,-2.0
1701540003.8041549,7.0,-6.0,45.0,23.0,10.0,2.0,3.0,-2.0
1701540003.8041549,53.0,-12.0,-26.0,6.0,0.0,-1.0,-17.0,-18.0
1701540003.8131814,0.0,-4.0,11.0,7.0,-1.0,3.0,0.0,1.0
1701540003.8131814,-7.0,20.0,6.0,-16.0,-13.0,-6.0,13.0,-3.0
1701540003.8588648,-4.0,-14.0,-5.0,-14.0,-1.0,0.0,2.0,1.0
1701540003.8588648,-17.0,-1.0,12.0,-33.0,-7.0,-2.0,-4.0,3.0
1701540003.8588648,1.0,14.0,4.0,14.0,-9.0,-4.0,-7.0,1.0
1701540003.8588648,7.0,6.0,-39.0,53.0,24.0,4.0,-2.0,-7.0
1701540003.8588648,-4.0,-7.0,22.0,-2.0,-1.0,-2.0,2.0,1.0
1701540003.8588648,-11.0,5.0,59.0,16.0,3.0,-1.0,2.0,-1.0
1701540003.8588648,-9.0,-24.0,-13.0,-36.0,-11.0,0.0,-4.0,-2.0
1701540003.8588648,0.0,-9.0,-13.0,-18.0,-7.0,-5.0,-2.0,1.0
1701540003.8709464,5.0,-4.0,-18.0,-6.0,-4.0,0.0,0.0,0.0
1701540003.8709464,-12.0,-21.0,-66.0,-30.0,-10.0,-1.0,1.0,-2.0
1701540003.8733056,-1.0,-10.0,43.0,20.0,13.0,1.0,0.0,-3.0
1701540003.8733056,-28.0,11.0,-35.0,9.0,0.0,-1.0,-6.0,-14.0
1701540003.9186885,14.0,-2.0,-19.0,-10.0,0.0,0.0,-3.0,-9.0
1701540003.9186885,31.0,8.0,81.0,-10.0,-12.0,-2.0,3.0,4.0
1701540003.919689,-6.0,29.0,-32.0,-17.0,-2.0,0.0,-1.0,-6.0
1701540003.919689,9.0,9.0,8.0,0.0,3.0,1.0,-1.0,4.0
1701540003.919689,-12.0,-19.0,33.0,3.0,-1.0,-3.0,-1.0,2.0
1701540003.919689,-19.0,5.0,11.0,24.0,13.0,2.0,3.0,8.0
1701540003.919689,7.0,25.0,8.0,17.0,3.0,-2.0,-1.0,-5.0
1701540003.919689,6.0,-25.0,17.0,-7.0,-8.0,-2.0,-3.0,1.0
1701540003.9312248,-14.0,-11.0,-56.0,-15.0,-4.0,1.0,-1.0,-4.0
1701540003.9312248,-6.0,-1.0,44.0,17.0,4.0,1.0,-1.0,2.0
1701540003.9323497,-66.0,-21.0,-23.0,-15.0,-4.0,-7.0,1.0,-23.0
1701540003.9323497,5.0,-3.0,13.0,-16.0,-9.0,-1.0,-3.0,19.0
1701540003.998021,10.0,-4.0,-12.0,2.0,-1.0,-2.0,-1.0,-5.0
1701540003.998021,-13.0,-9.0,-42.0,4.0,3.0,0.0,2.0,-1.0
1701540003.998021,7.0,-21.0,42.0,4.0,1.0,2.0,-2.0,-3.0
1701540003.9990242,-14.0,5.0,9.0,-13.0,-11.0,-8.0,-5.0,-4.0
1701540003.9990242,-11.0,6.0,-16.0,0.0,3.0,0.0,-2.0,-2.0
1701540003.9990242,5.0,-4.0,32.0,8.0,-3.0,-3.0,-5.0,-3.0
1701540003.9990242,9.0,1.0,14.0,-1.0,2.0,2.0,-2.0,6.0
1701540003.9990242,4.0,0.0,64.0,5.0,2.0,1.0,1.0,1.0
1701540003.9990242,3.0,19.0,16.0,18.0,4.0,0.0,-1.0,4.0
1701540003.9990242,-6.0,-6.0,17.0,3.0,1.0,-1.0,0.0,-5.0
1701540003.9990242,15.0,-7.0,-20.0,-2.0,2.0,0.0,0.0,4.0
1701540003.9990242,18.0,10.0,2.0,-5.0,-1.0,0.0,2.0,-2.0
1701540004.0261722,-10.0,-8.0,-22.0,-16.0,-7.0,-2.0,-4.0,-16.0
1701540004.0261722,-16.0,-8.0,-14.0,-5.0,1.0,-1.0,-1.0,-4.0
1701540004.0261722,11.0,6.0,5.0,0.0,-1.0,-2.0,0.0,5.0
1701540004.0261722,-1.0,8.0,-24.0,-2.0,-1.0,-1.0,-3.0,-3.0
1701540004.0299585,5.0,1.0,38.0,5.0,0.0,0.0,3.0,8.0
1701540004.0299585,-74.0,-13.0,-72.0,4.0,1.0,-3.0,-1.0,-5.0
1701540004.037367,1.0,-17.0,-27.0,-9.0,-2.0,-1.0,-4.0,-11.0
1701540004.037367,-1.0,-12.0,16.0,-3.0,-3.0,-3.0,9.0,5.0
1701540004.050499,6.0,7.0,15.0,-1.0,-1.0,0.0,-1.0,4.0
1701540004.050499,4.0,6.0,-41.0,1.0,0.0,1.0,-2.0,-3.0
1701540004.0523555,3.0,3.0,-3.0,-1.0,0.0,-1.0,1.0,3.0
1701540004.0523555,-13.0,0.0,-69.0,-14.0,-4.0,-1.0,-3.0,-4.0
1701540004.07716,-8.0,7.0,-16.0,-11.0,-6.0,-7.0,-2.0,-4.0
1701540004.07716,17.0,20.0,12.0,-17.0,-13.0,-3.0,0.0,-1.0
1701540004.07716,8.0,-1.0,10.0,14.0,2.0,-3.0,-4.0,2.0
1701540004.07716,4.0,8.0,17.0,74.0,47.0,9.0,-2.0,-3.0
1701540004.079167,0.0,-19.0,7.0,2.0,-3.0,3.0,2.0,3.0
1701540004.079167,9.0,-9.0,4.0,-17.0,-7.0,-7.0,-1.0,-2.0
1701540004.0902796,3.0,3.0,-29.0,-25.0,-24.0,-9.0,-2.0,2.0
1701540004.0902796,-9.0,-7.0,16.0,-23.0,-8.0,-1.0,-3.0,-4.0
1701540004.1240437,-7.0,-2.0,8.0,8.0,14.0,13.0,-1.0,0.0
1701540004.1240437,2.0,-30.0,8.0,4.0,0.0,14.0,-6.0,0.0
1701540004.1240437,1.0,-1.0,26.0,-8.0,-52.0,-104.0,-5.0,-2.0
1701540004.1240437,-6.0,32.0,-44.0,-17.0,-40.0,58.0,-4.0,-5.0
1701540004.1260643,2.0,9.0,-22.0,11.0,60.0,89.0,15.0,6.0
1701540004.1260643,13.0,-9.0,50.0,38.0,84.0,-22.0,16.0,4.0
1701540004.134867,-1.0,-40.0,-30.0,1.0,-34.0,-6.0,-3.0,-2.0
1701540004.134867,-3.0,-18.0,-2.0,-13.0,-43.0,-108.0,-13.0,-6.0
1701540004.1459553,4.0,7.0,24.0,-19.0,-81.0,-54.0,-12.0,-1.0
1701540004.1476297,-8.0,39.0,-7.0,-33.0,-56.0,56.0,-4.0,-5.0
1701540004.1486442,2.0,8.0,18.0,54.0,127.0,38.0,8.0,3.0
1701540004.1486442,4.0,-30.0,40.0,-3.0,-7.0,-4.0,2.0,1.0
1701540004.1989079,-6.0,-6.0,-36.0,-58.0,-32.0,-29.0,-9.0,-4.0
1701540004.1989079,8.0,-15.0,-6.0,48.0,-18.0,-33.0,0.0,0.0
1701540004.1989079,-10.0,47.0,-32.0,0.0,-3.0,36.0,-2.0,-4.0
1701540004.1989079,5.0,1.0,13.0,2.0,40.0,55.0,9.0,1.0
1701540004.1989079,-3.0,-13.0,2.0,2.0,4.0,-23.0,-4.0,0.0
1701540004.1989079,6.0,-20.0,-9.0,-25.0,-37.0,-38.0,-7.0,-2.0
1701540004.1989079,0.0,-1.0,5.0,-20.0,-36.0,-14.0,-3.0,1.0
1701540004.1989079,-4.0,5.0,19.0,14.0,23.0,9.0,0.0,-2.0
1701540004.1999114,11.0,-8.0,39.0,1.0,14.0,10.0,-11.0,-5.0
1701540004.1999114,-3.0,-9.0,-40.0,-14.0,-38.0,-30.0,-2.0,5.0
1701540004.2481737,9.0,10.0,11.0,8.0,14.0,11.0,5.0,9.0
1701540004.2481737,-15.0,7.0,2.0,-7.0,19.0,23.0,4.0,-5.0
1701540004.2481737,-3.0,-15.0,2.0,28.0,26.0,-2.0,6.0,3.0
1701540004.2481737,0.0,6.0,28.0,0.0,8.0,10.0,-4.0,0.0
1701540004.2481737,5.0,0.0,-11.0,-13.0,-18.0,-4.0,-5.0,-2.0
1701540004.2481737,3.0,-4.0,-7.0,-13.0,-38.0,-35.0,-6.0,1.0
1701540004.2577019,-13.0,8.0,-19.0,4.0,-5.0,2.0,2.0,-3.0
1701540004.258702,-5.0,8.0,6.0,12.0,22.0,5.0,-2.0,-6.0
1701540004.258702,-6.0,-3.0,14.0,-1.0,-2.0,2.0,6.0,-2.0
1701540004.258702,3.0,-7.0,-11.0,-8.0,-1.0,-1.0,-1.0,0.0
1701540004.2659862,4.0,-3.0,-10.0,7.0,-11.0,-2.0,2.0,0.0
1701540004.2679105,-4.0,-6.0,19.0,-24.0,1.0,-8.0,1.0,-3.0
1701540004.310625,2.0,9.0,-8.0,32.0,19.0,-4.0,-6.0,-2.0
1701540004.310625,3.0,-4.0,3.0,-26.0,-2.0,29.0,2.0,1.0
1701540004.310625,0.0,-9.0,-2.0,48.0,21.0,-6.0,6.0,0.0
1701540004.310625,2.0,6.0,-33.0,-11.0,-2.0,3.0,-3.0,2.0
1701540004.310625,0.0,2.0,-10.0,-16.0,-20.0,-1.0,-3.0,-2.0
1701540004.310625,-5.0,-4.0,-4.0,-5.0,-1.0,-18.0,-2.0,-2.0
1701540004.3117132,-4.0,5.0,6.0,-12.0,-11.0,-10.0,1.0,-1.0
1701540004.3117132,-10.0,8.0,-4.0,9.0,4.0,3.0,-10.0,-6.0
1701540004.3149378,20.0,-6.0,-3.0,-3.0,5.0,21.0,19.0,7.0
1701540004.3149378,-26.0,-2.0,5.0,28.0,-1.0,-14.0,-1.0,8.0
1701540004.336183,8.0,-9.0,28.0,-20.0,-17.0,-8.0,-5.0,-20.0
1701540004.336183,5.0,6.0,-52.0,2.0,5.0,1.0,-2.0,-2.0
1701540004.337312,-11.0,-13.0,9.0,-17.0,-1.0,2.0,-3.0,-2.0
1701540004.337312,-2.0,3.0,9.0,9.0,-11.0,-2.0,1.0,0.0
1701540004.383278,3.0,0.0,-41.0,2.0,17.0,0.0,1.0,7.0
1701540004.383278,-1.0,-2.0,3.0,26.0,8.0,4.0,-2.0,-4.0
1701540004.383278,-5.0,-1.0,29.0,7.0,-4.0,-1.0,-3.0,-4.0
1701540004.383278,5.0,-4.0,-10.0,-14.0,-16.0,-11.0,-2.0,-2.0
1701540004.383278,-7.0,8.0,-6.0,-2.0,-2.0,-12.0,-1.0,-1.0
1701540004.383278,-3.0,-4.0,-6.0,-11.0,1.0,17.0,7.0,0.0
1701540004.383278,4.0,-6.0,5.0,2.0,9.0,10.0,-1.0,6.0
1701540004.383278,5.0,5.0,2.0,6.0,1.0,-6.0,-5.0,-4.0
1701540004.4293811,-3.0,1.0,5.0,-15.0,-11.0,-4.0,1.0,1.0
1701540004.4293811,-4.0,-8.0,11.0,-4.0,-5.0,-8.0,-1.0,-3.0
1701540004.4293811,15.0,-1.0,6.0,15.0,-5.0,2.0,-12.0,-9.0
1701540004.4293811,-4.0,-11.0,-10.0,-34.0,6.0,0.0,8.0,9.0
1701540004.4293811,-6.0,-4.0,6.0,11.0,0.0,-8.0,-7.0,0.0
1701540004.4293811,-13.0,2.0,21.0,2.0,0.0,-6.0,-5.0,4.0
1701540004.4348485,-20.0,-7.0,-20.0,-11.0,-3.0,3.0,1.0,-4.0
1701540004.4348485,-6.0,9.0,-12.0,0.0,1.0,-3.0,15.0,-19.0
1701540004.4421709,-12.0,-8.0,3.0,-1.0,-6.0,14.0,-29.0,-4.0
1701540004.4421709,6.0,3.0,7.0,8.0,4.0,-1.0,23.0,10.0
1701540004.447444,-3.0,3.0,-14.0,-11.0,-8.0,-37.0,-27.0,-7.0
1701540004.447444,-17.0,3.0,1.0,6.0,6.0,34.0,42.0,2.0
1701540004.448468,-8.0,-1.0,20.0,7.0,1.0,5.0,23.0,0.0
1701540004.448468,30.0,8.0,-1.0,-9.0,-2.0,4.0,-11.0,-2.0
1701540004.4573936,20.0,-10.0,-3.0,-6.0,-5.0,-7.0,11.0,6.0
1701540004.4573936,6.0,1.0,26.0,12.0,-2.0,-19.0,-33.0,-4.0
1701540004.4694862,7.0,-4.0,-23.0,-5.0,-3.0,-2.0,2.0,0.0
1701540004.4694862,1.0,-2.0,15.0,3.0,1.0,1.0,-6.0,2.0
1701540004.4713256,-8.0,-3.0,-15.0,-10.0,-3.0,1.0,-8.0,-7.0
1701540004.4713256,-18.0,-12.0,-11.0,4.0,-2.0,-7.0,-10.0,4.0
1701540004.494071,12.0,4.0,13.0,-6.0,-3.0,-4.0,-12.0,-19.0
1701540004.495121,-6.0,-10.0,-8.0,2.0,5.0,1.0,3.0,-6.0
1701540004.5141966,-8.0,-4.0,-2.0,-2.0,-3.0,15.0,7.0,7.0
1701540004.5141966,5.0,2.0,-6.0,4.0,13.0,10.0,0.0,-4.0
1701540004.5160801,3.0,6.0,8.0,-1.0,-9.0,-9.0,1.0,20.0
1701540004.5160801,-57.0,-12.0,-60.0,-33.0,-15.0,-27.0,-50.0,-12.0
1701540004.516989,25.0,0.0,11.0,-3.0,-4.0,-4.0,17.0,-10.0
1701540004.516989,13.0,-1.0,-2.0,1.0,5.0,2.0,29.0,1.0
1701540004.5291288,2.0,-3.0,7.0,7.0,0.0,18.0,11.0,7.0
1701540004.5303712,-68.0,-10.0,26.0,11.0,6.0,9.0,19.0,-15.0
1701540004.53147,-10.0,6.0,8.0,-2.0,-5.0,-9.0,-6.0,10.0
1701540004.53147,6.0,-11.0,-20.0,-15.0,-10.0,1.0,-16.0,1.0
1701540004.5534713,-6.0,-11.0,-13.0,-5.0,4.0,-4.0,-3.0,-5.0
1701540004.5534713,18.0,4.0,2.0,1.0,2.0,7.0,18.0,0.0
1701540004.5547698,-20.0,-4.0,-14.0,-4.0,-9.0,-2.0,-7.0,-4.0
1701540004.5547698,10.0,1.0,2.0,16.0,5.0,-10.0,-7.0,0.0
1701540004.6080914,1.0,0.0,10.0,9.0,18.0,3.0,-5.0,6.0
1701540004.6080914,25.0,7.0,22.0,-4.0,-2.0,5.0,1.0,-5.0
1701540004.6080914,-5.0,3.0,-37.0,-17.0,-4.0,1.0,0.0,-2.0
1701540004.6080914,9.0,-2.0,30.0,4.0,-9.0,-10.0,-11.0,-2.0
1701540004.6080914,-3.0,4.0,-64.0,-14.0,-9.0,-2.0,-1.0,2.0
1701540004.6080914,-16.0,2.0,55.0,12.0,-2.0,-4.0,-16.0,3.0
1701540004.6145813,0.0,-9.0,-32.0,-4.0,3.0,4.0,16.0,-5.0
1701540004.6145813,4.0,-5.0,23.0,10.0,4.0,5.0,-11.0,-6.0
1701540004.630683,-10.0,1.0,7.0,-16.0,-5.0,-7.0,1.0,0.0
1701540004.630683,10.0,-1.0,-40.0,3.0,3.0,5.0,7.0,-5.0
1701540004.630683,-10.0,-9.0,27.0,1.0,2.0,0.0,-18.0,-4.0
1701540004.630683,-11.0,-8.0,4.0,0.0,-8.0,-23.0,-27.0,-7.0
1701540004.6317081,-10.0,-10.0,20.0,0.0,-7.0,5.0,-4.0,1.0
1701540004.6317081,43.0,-31.0,-25.0,-21.0,3.0,7.0,36.0,4.0
1701540004.637379,15.0,0.0,-34.0,0.0,6.0,5.0,-1.0,-22.0
1701540004.637379,13.0,6.0,9.0,-2.0,-1.0,1.0,6.0,1.0
1701540004.6484702,9.0,3.0,16.0,6.0,-3.0,-20.0,-26.0,-4.0
1701540004.6501238,-15.0,13.0,-1.0,1.0,-7.0,-7.0,-17.0,0.0
1701540004.6511555,-9.0,5.0,50.0,17.0,2.0,4.0,0.0,5.0
1701540004.6511555,2.0,-5.0,-47.0,-31.0,-8.0,-10.0,4.0,2.0
1701540004.6941586,-10.0,11.0,19.0,6.0,-11.0,-2.0,4.0,-8.0
1701540004.6952133,12.0,0.0,-22.0,-31.0,6.0,9.0,3.0,9.0
1701540004.7110145,1.0,2.0,11.0,18.0,1.0,2.0,3.0,5.0
1701540004.7110145,0.0,3.0,-24.0,-1.0,-11.0,-11.0,-20.0,-1.0
1701540004.7110145,-30.0,2.0,10.0,-8.0,-1.0,-2.0,9.0,-3.0
1701540004.7110145,26.0,10.0,-36.0,11.0,-3.0,17.0,18.0,11.0
1701540004.7110145,-4.0,-6.0,12.0,-8.0,-2.0,-1.0,-8.0,0.0
1701540004.7110145,-9.0,2.0,-7.0,-3.0,0.0,0.0,-5.0,2.0
1701540004.7110145,9.0,12.0,-15.0,4.0,-11.0,-63.0,-52.0,-18.0
1701540004.7110145,1.0,-3.0,13.0,5.0,8.0,72.0,84.0,17.0
1701540004.7312157,-27.0,-15.0,-13.0,-9.0,5.0,20.0,18.0,-14.0
1701540004.7312157,-4.0,-1.0,6.0,-3.0,2.0,15.0,18.0,14.0
1701540004.7648387,14.0,-9.0,-18.0,-2.0,-1.0,-3.0,-16.0,-6.0
1701540004.7648387,-8.0,0.0,15.0,10.0,-1.0,-35.0,-47.0,-10.0
1701540004.7648387,7.0,6.0,10.0,7.0,-1.0,-5.0,-8.0,9.0
1701540004.7648387,-17.0,-20.0,-23.0,-18.0,-3.0,1.0,-11.0,-4.0
1701540004.7648387,8.0,-9.0,17.0,-10.0,2.0,12.0,12.0,6.0
1701540004.7648387,2.0,-6.0,29.0,2.0,-6.0,-24.0,-24.0,-7.0
1701540004.7648387,-1.0,-20.0,-7.0,4.0,1.0,11.0,10.0,6.0
1701540004.7648387,4.0,5.0,40.0,16.0,4.0,-17.0,-11.0,-9.0
1701540004.7658384,-3.0,-4.0,-18.0,-10.0,2.0,10.0,11.0,3.0
1701540004.7658384,9.0,12.0,24.0,12.0,-3.0,-3.0,17.0,-2.0
1701540004.7865443,5.0,15.0,-26.0,1.0,1.0,0.0,-10.0,2.0
1701540004.7876394,10.0,3.0,6.0,-31.0,-8.0,-2.0,-1.0,-4.0
1701540004.8241649,6.0,6.0,14.0,9.0,-8.0,10.0,17.0,3.0
1701540004.8241649,-1.0,7.0,-16.0,26.0,22.0,-3.0,-17.0,1.0
1701540004.8241649,-3.0,13.0,25.0,1.0,-2.0,-14.0,-3.0,-1.0
1701540004.8241649,4.0,13.0,-2.0,10.0,5.0,9.0,21.0,1.0
1701540004.8241649,-20.0,12.0,-2.0,-7.0,-11.0,15.0,6.0,-3.0
1701540004.8241649,-10.0,-16.0,-41.0,-15.0,2.0,-12.0,-16.0,-5.0
1701540004.8241649,-4.0,-4.0,10.0,5.0,0.0,-5.0,-3.0,6.0
1701540004.8241649,-3.0,-5.0,-18.0,2.0,-3.0,-1.0,7.0,-5.0
1701540004.8251672,17.0,13.0,19.0,5.0,5.0,-3.0,-6.0,6.0
1701540004.8251672,5.0,-29.0,7.0,3.0,-13.0,-4.0,0.0,-9.0
1701540004.8440812,-9.0,-8.0,-68.0,-17.0,2.0,1.0,2.0,-17.0
1701540004.8440812,-6.0,2.0,-26.0,-18.0,-10.0,-2.0,-5.0,-2.0
1701540004.8579142,7.0,-13.0,-8.0,9.0,3.0,4.0,3.0,5.0
1701540004.8579142,-1.0,12.0,3.0,0.0,0.0,-5.0,-9.0,1.0
1701540004.8579142,3.0,-1.0,-8.0,9.0,-3.0,-3.0,-3.0,5.0
1701540004.8579142,2.0,-12.0,24.0,-40.0,-3.0,-5.0,-7.0,-5.0
1701540004.8690708,-15.0,-4.0,-78.0,7.0,6.0,3.0,6.0,-6.0
1701540004.8690708,-5.0,5.0,32.0,11.0,0.0,-2.0,-2.0,0.0
1701540004.8772333,2.0,-26.0,12.0,-23.0,-10.0,-4.0,-5.0,0.0
1701540004.8772333,-4.0,4.0,-15.0,11.0,-5.0,-1.0,-2.0,-3.0
1701540004.8998995,0.0,-2.0,1.0,18.0,19.0,4.0,6.0,7.0
1701540004.900997,4.0,-3.0,35.0,-6.0,-10.0,-8.0,-15.0,-1.0
1701540004.929723,1.0,-5.0,-33.0,0.0,-3.0,-3.0,-5.0,1.0
1701540004.929723,-3.0,-4.0,15.0,-1.0,-2.0,2.0,-3.0,-3.0
1701540004.929723,-1.0,-1.0,-33.0,-15.0,-7.0,1.0,4.0,-4.0
1701540004.929723,-2.0,0.0,-1.0,1.0,-5.0,-7.0,-8.0,-3.0
1701540004.929723,-3.0,-2.0,19.0,-5.0,10.0,0.0,-3.0,1.0
1701540004.929723,-43.0,-3.0,5.0,22.0,1.0,-3.0,0.0,-2.0
1701540004.931813,11.0,-17.0,33.0,-11.0,-1.0,3.0,5.0,-3.0
1701540004.931813,-1.0,8.0,-53.0,-17.0,-1.0,-2.0,-3.0,0.0
1701540004.9374294,-6.0,9.0,23.0,9.0,-2.0,1.0,-2.0,0.0
1701540004.9374294,-3.0,-7.0,2.0,-1.0,4.0,2.0,-1.0,3.0
1701540004.980006,-2.0,-5.0,63.0,35.0,4.0,2.0,3.0,1.0
1701540004.980006,-24.0,-2.0,-16.0,-39.0,-10.0,-6.0,-4.0,9.0
1701540004.980006,32.0,1.0,-39.0,-17.0,-16.0,-6.0,-2.0,1.0
1701540004.980006,2.0,10.0,-20.0,21.0,7.0,-1.0,-5.0,-3.0
1701540004.9833643,-2.0,2.0,38.0,-3.0,1.0,3.0,1.0,-5.0
1701540004.9833643,7.0,-1.0,9.0,26.0,3.0,3.0,2.0,2.0
1701540004.9860058,-8.0,8.0,20.0,-24.0,3.0,-3.0,1.0,3.0
1701540004.9860058,14.0,-6.0,-20.0,-6.0,-2.0,3.0,0.0,1.0
1701540004.9872744,2.0,8.0,-4.0,-25.0,-11.0,-7.0,-1.0,2.0
1701540004.9872744,3.0,-1.0,9.0,15.0,1.0,0.0,-2.0,-2.0
1701540004.9984372,-4.0,0.0,26.0,8.0,5.0,2.0,0.0,-2.0
1701540004.9984372,10.0,4.0,-8.0,19.0,5.0,2.0,3.0,0.0
1701540005.04853,13.0,-5.0,-20.0,-8.0,-3.0,-3.0,-6.0,-4.0
1701540005.04853,34.0,8.0,50.0,5.0,5.0,1.0,5.0,5.0
1701540005.04853,-10.0,9.0,-73.0,-9.0,-11.0,-4.0,-5.0,-6.0
1701540005.04853,10.0,-2.0,13.0,-9.0,3.0,4.0,6.0,4.0
1701540005.0512197,4.0,-2.0,26.0,28.0,1.0,-1.0,-2.0,-1.0
1701540005.0512197,-9.0,-2.0,-39.0,-32.0,-8.0,-4.0,-3.0,-5.0
1701540005.0522187,-3.0,-5.0,53.0,20.0,3.0,2.0,2.0,3.0
1701540005.0522187,4.0,-1.0,-39.0,-4.0,-3.0,-5.0,-7.0,-1.0
1701540005.0522187,-9.0,10.0,-7.0,-14.0,-4.0,-1.0,0.0,-1.0
1701540005.0522187,-9.0,-16.0,-10.0,3.0,2.0,0.0,-1.0,-3.0
1701540005.0574548,-19.0,-7.0,29.0,0.0,-1.0,1.0,1.0,-10.0
1701540005.0574548,-3.0,-8.0,3.0,1.0,-4.0,-4.0,-4.0,2.0
1701540005.0979445,-4.0,-5.0,-8.0,-5.0,1.0,0.0,0.0,-2.0
1701540005.0989456,-2.0,-3.0,1.0,-2.0,-2.0,-1.0,-1.0,-2.0
1701540005.0989456,9.0,-3.0,36.0,9.0,6.0,0.0,-1.0,1.0
1701540005.0989456,-2.0,-1.0,-30.0,9.0,-1.0,0.0,-2.0,3.0
1701540005.0989456,-7.0,0.0,-41.0,-36.0,-3.0,0.0,1.0,-1.0
1701540005.0989456,-34.0,-12.0,21.0,8.0,-3.0,-8.0,-6.0,-10.0
1701540005.0989456,2.0,-3.0,-5.0,-1.0,-3.0,-1.0,-2.0,1.0
1701540005.0989456,4.0,2.0,12.0,5.0,-3.0,1.0,1.0,-2.0
1701540005.148349,-3.0,-11.0,-13.0,31.0,9.0,-2.0,-2.0,-2.0
1701540005.148349,4.0,6.0,-6.0,-18.0,5.0,0.0,1.0,-7.0
1701540005.148349,-11.0,-10.0,-35.0,-9.0,-4.0,-2.0,0.0,-1.0
1701540005.148349,-19.0,0.0,15.0,3.0,-5.0,-1.0,-3.0,0.0
1701540005.148349,15.0,-4.0,-3.0,-10.0,-3.0,-1.0,10.0,-14.0
1701540005.148349,2.0,9.0,-6.0,11.0,-3.0,-1.0,-2.0,-2.0
1701540005.148349,3.0,0.0,25.0,13.0,1.0,-3.0,-1.0,3.0
1701540005.148349,4.0,8.0,3.0,-11.0,0.0,-2.0,-2.0,-3.0
1701540005.154237,-14.0,3.0,-26.0,-4.0,-3.0,0.0,-3.0,-3.0
1701540005.154737,10.0,0.0,-13.0,5.0,-3.0,1.0,-2.0,9.0
1701540005.1585255,33.0,2.0,24.0,-2.0,1.0,-2.0,0.0,-2.0
1701540005.1602368,-1.0,-20.0,-62.0,-1.0,2.0,3.0,-6.0,-1.0
1701540005.2046642,-10.0,-8.0,-20.0,-22.0,-10.0,-5.0,3.0,-1.0
1701540005.2046642,3.0,0.0,15.0,2.0,-2.0,-2.0,-1.0,-1.0
1701540005.2046642,-8.0,-2.0,-75.0,-24.0,-4.0,0.0,-3.0,-4.0
1701540005.2046642,2.0,14.0,119.0,29.0,2.0,-2.0,-2.0,-12.0
1701540005.2046642,11.0,4.0,-7.0,-8.0,0.0,0.0,-3.0,5.0
1701540005.2046642,-4.0,-12.0,11.0,-4.0,-2.0,-1.0,1.0,0.0
1701540005.2046642,-6.0,11.0,28.0,3.0,-4.0,-3.0,-3.0,-2.0
1701540005.2046642,1.0,15.0,18.0,-5.0,-3.0,0.0,2.0,-1.0
1701540005.2129943,-15.0,-9.0,-1.0,2.0,-1.0,-1.0,-2.0,-1.0
1701540005.2135186,5.0,5.0,17.0,2.0,-6.0,-4.0,-5.0,-4.0
1701540005.227667,-6.0,-2.0,10.0,-1.0,-6.0,0.0,-2.0,1.0
1701540005.227667,6.0,-10.0,-5.0,20.0,12.0,-2.0,0.0,-1.0
1701540005.2586536,3.0,-4.0,-30.0,6.0,0.0,1.0,-3.0,4.0
1701540005.2586536,1.0,-9.0,-21.0,-7.0,-2.0,0.0,0.0,1.0
1701540005.2586536,-13.0,3.0,16.0,-1.0,-3.0,1.0,3.0,-2.0
1701540005.2586536,-6.0,0.0,-16.0,-13.0,-11.0,-8.0,-5.0,2.0
1701540005.2586536,5.0,6.0,40.0,-1.0,2.0,0.0,-1.0,3.0
1701540005.2586536,-5.0,3.0,39.0,8.0,3.0,1.0,-2.0,-22.0
1701540005.2597017,-4.0,-7.0,-49.0,-9.0,1.0,-2.0,0.0,-1.0
1701540005.2597017,4.0,26.0,25.0,-1.0,2.0,0.0,1.0,0.0
1701540005.2720604,13.0,-6.0,6.0,7.0,2.0,2.0,-3.0,7.0
1701540005.2720604,4.0,7.0,-20.0,-5.0,-7.0,-5.0,6.0,5.0
1701540005.2758005,-4.0,5.0,5.0,15.0,3.0,0.0,-1.0,0.0
1701540005.2758005,11.0,2.0,-14.0,-29.0,-4.0,-1.0,-1.0,1.0
1701540005.3358393,-3.0,-8.0,20.0,11.0,-4.0,-3.0,1.0,0.0
1701540005.3358393,-20.0,-4.0,-22.0,-7.0,3.0,3.0,-2.0,-15.0
1701540005.3358393,11.0,6.0,13.0,4.0,-2.0,-2.0,-2.0,-2.0
1701540005.3358393,-2.0,-5.0,1.0,2.0,-1.0,2.0,5.0,0.0
1701540005.3358393,-9.0,-2.0,5.0,-9.0,-3.0,-1.0,-3.0,-3.0
1701540005.3358393,5.0,-1.0,11.0,10.0,1.0,-1.0,-3.0,2.0
1701540005.3358393,-9.0,-3.0,25.0,5.0,4.0,-3.0,4.0,-2.0
1701540005.336839,3.0,-25.0,-15.0,-14.0,-1.0,8.0,-8.0,-1.0
1701540005.337223,14.0,10.0,13.0,1.0,-3.0,2.0,13.0,-1.0
1701540005.3385456,-4.0,2.0,-5.0,8.0,3.0,1.0,-2.0,7.0
1701540005.3748114,0.0,5.0,-27.0,-8.0,-1.0,0.0,-2.0,1.0
1701540005.3748114,2.0,1.0,50.0,12.0,-2.0,-7.0,0.0,-2.0
1701540005.3748114,-41.0,-27.0,1.0,-3.0,1.0,0.0,-5.0,-8.0
1701540005.3748114,2.0,6.0,-41.0,-3.0,-4.0,-3.0,-2.0,-6.0
1701540005.3762875,13.0,6.0,34.0,-3.0,-3.0,-3.0,-3.0,-5.0
1701540005.3762875,-2.0,-7.0,-16.0,1.0,1.0,1.0,0.0,-1.0
1701540005.3838995,1.0,11.0,-8.0,-8.0,-2.0,-1.0,-5.0,-7.0
1701540005.3838995,2.0,-11.0,-35.0,-3.0,0.0,-1.0,-9.0,6.0
1701540005.3838995,-22.0,-3.0,46.0,-6.0,-2.0,1.0,10.0,2.0
1701540005.3838995,0.0,-4.0,-8.0,1.0,-4.0,-3.0,0.0,-4.0
1701540005.3848987,6.0,8.0,2.0,-8.0,-1.0,0.0,1.0,5.0
1701540005.3848987,4.0,6.0,13.0,1.0,2.0,1.0,-3.0,2.0
1701540005.3955743,6.0,-4.0,17.0,10.0,4.0,1.0,-3.0,4.0
1701540005.3955743,-12.0,4.0,-10.0,-25.0,-6.0,1.0,0.0,0.0
1701540005.4512482,11.0,9.0,7.0,-3.0,-2.0,-3.0,0.0,8.0
1701540005.4512482,11.0,15.0,35.0,-5.0,-4.0,-4.0,-1.0,0.0
1701540005.4512482,-18.0,-6.0,-54.0,19.0,2.0,0.0,-3.0,-9.0
1701540005.4512482,13.0,-6.0,-35.0,-20.0,-6.0,-5.0,1.0,0.0
1701540005.4512482,6.0,-7.0,6.0,0.0,1.0,-3.0,-4.0,11.0
1701540005.4522474,10.0,-13.0,6.0,-6.0,2.0,1.0,1.0,2.0
1701540005.4522474,23.0,5.0,-54.0,-4.0,0.0,-2.0,-3.0,13.0
1701540005.4522474,-9.0,-6.0,15.0,1.0,-4.0,-7.0,-9.0,-4.0
1701540005.4522474,1.0,7.0,-29.0,-6.0,-3.0,8.0,9.0,-5.0
1701540005.4532356,6.0,2.0,9.0,1.0,1.0,1.0,3.0,5.0
1701540005.4551446,0.0,-17.0,8.0,-6.0,-1.0,2.0,1.0,2.0
1701540005.4551446,-9.0,5.0,-47.0,-3.0,-4.0,-8.0,-5.0,-4.0
1701540005.4669716,-4.0,11.0,25.0,3.0,0.0,-6.0,-5.0,-6.0
1701540005.4770567,-3.0,0.0,-44.0,11.0,6.0,2.0,3.0,2.0
1701540005.4783022,-11.0,-8.0,109.0,8.0,-8.0,-6.0,-6.0,-6.0
1701540005.4783022,-4.0,-7.0,-17.0,-12.0,-2.0,0.0,0.0,-1.0
1701540005.5306177,-7.0,-5.0,12.0,3.0,0.0,-1.0,-3.0,-8.0
1701540005.5316892,-6.0,-6.0,8.0,5.0,1.0,1.0,0.0,0.0
1701540005.5398989,21.0,15.0,-49.0,-9.0,1.0,2.0,1.0,8.0
1701540005.5398989,35.0,0.0,46.0,21.0,2.0,-1.0,2.0,-11.0
1701540005.54197,14.0,-4.0,-38.0,0.0,-1.0,-4.0,-6.0,2.0
1701540005.54197,-6.0,-30.0,4.0,-6.0,-3.0,-1.0,-1.0,1.0
1701540005.54197,-2.0,-2.0,25.0,3.0,1.0,-3.0,-6.0,-10.0
1701540005.54197,-19.0,3.0,2.0,7.0,3.0,1.0,-10.0,7.0
1701540005.54197,-35.0,-9.0,-8.0,-1.0,0.0,-2.0,20.0,6.0
1701540005.54197,58.0,12.0,6.0,5.0,-3.0,3.0,3.0,2.0
1701540005.54197,-14.0,-23.0,-16.0,-12.0,-9.0,0.0,-2.0,-7.0
1701540005.54197,-11.0,3.0,-51.0,-23.0,-3.0,0.0,6.0,4.0
1701540005.5763516,-11.0,-7.0,16.0,0.0,-1.0,-3.0,-16.0,0.0
1701540005.5763516,11.0,-5.0,20.0,-8.0,-6.0,-13.0,-10.0,-6.0
1701540005.5763516,-10.0,-3.0,0.0,-10.0,-3.0,9.0,17.0,10.0
1701540005.5763516,15.0,3.0,26.0,11.0,3.0,2.0,2.0,2.0
1701540005.5763516,1.0,2.0,-10.0,2.0,0.0,-2.0,-1.0,1.0
1701540005.5763516,-13.0,10.0,8.0,-9.0,-4.0,0.0,-2.0,-2.0
1701540005.5806372,1.0,15.0,-30.0,0.0,0.0,-7.0,-11.0,-7.0
1701540005.5806372,-18.0,-14.0,-61.0,9.0,3.0,-2.0,1.0,-6.0
1701540005.5926943,9.0,-8.0,-29.0,-36.0,-6.0,0.0,-3.0,-7.0
1701540005.5926943,-23.0,-24.0,5.0,7.0,3.0,1.0,0.0,-1.0
1701540005.59744,0.0,-17.0,3.0,4.0,3.0,0.0,-1.0,-5.0
1701540005.59744,-10.0,-14.0,-23.0,-6.0,-4.0,3.0,3.0,4.0
1701540005.651911,30.0,-7.0,-55.0,23.0,0.0,-3.0,-5.0,-4.0
1701540005.651911,-10.0,8.0,-18.0,-14.0,-2.0,-1.0,0.0,-3.0
1701540005.651911,-3.0,1.0,-9.0,-3.0,-1.0,-1.0,-3.0,1.0
1701540005.6529107,8.0,7.0,20.0,5.0,2.0,-2.0,0.0,-1.0
1701540005.6529107,-12.0,-4.0,-3.0,1.0,-4.0,-2.0,-4.0,-6.0
1701540005.6529107,-15.0,2.0,30.0,14.0,5.0,4.0,4.0,0.0
1701540005.6529107,6.0,-1.0,-28.0,-7.0,4.0,3.0,-1.0,2.0
1701540005.6529107,-7.0,-3.0,60.0,3.0,-1.0,1.0,0.0,-2.0
1701540005.6529107,-6.0,2.0,-25.0,-7.0,-8.0,-2.0,-3.0,-4.0
1701540005.6529107,-8.0,2.0,1.0,-5.0,-3.0,-4.0,-2.0,0.0
1701540005.657402,-7.0,3.0,4.0,-6.0,-4.0,1.0,-2.0,-5.0
1701540005.657402,2.0,-3.0,10.0,22.0,2.0,-8.0,-1.0,-1.0
1701540005.6784897,0.0,-5.0,18.0,13.0,-4.0,-10.0,-1.0,7.0
1701540005.6784897,-5.0,8.0,-6.0,-42.0,2.0,18.0,0.0,1.0
1701540005.6798756,2.0,4.0,-13.0,12.0,14.0,9.0,2.0,-1.0
1701540005.6798756,-8.0,3.0,49.0,6.0,-2.0,0.0,-1.0,-4.0
1701540005.7290356,2.0,-1.0,8.0,4.0,-4.0,-5.0,-2.0,0.0
1701540005.7292614,-2.0,-2.0,-17.0,7.0,-11.0,-20.0,-6.0,-3.0
1701540005.738113,-5.0,1.0,-6.0,-4.0,1.0,-5.0,2.0,-4.0
1701540005.738113,0.0,-33.0,59.0,0.0,3.0,17.0,3.0,3.0
1701540005.738113,-2.0,-8.0,-18.0,-8.0,0.0,4.0,-1.0,0.0
1701540005.738113,-9.0,-15.0,-89.0,-10.0,-9.0,-10.0,-2.0,-6.0
1701540005.738113,-1.0,1.0,38.0,0.0,-4.0,-4.0,-7.0,-1.0
1701540005.738113,3.0,3.0,-14.0,-4.0,-8.0,-15.0,-3.0,-2.0
1701540005.7401135,0.0,17.0,21.0,20.0,6.0,10.0,4.0,-5.0
1701540005.7401135,-3.0,3.0,23.0,11.0,12.0,12.0,-1.0,-3.0
1701540005.7446828,2.0,-7.0,7.0,6.0,9.0,-4.0,0.0,-1.0
1701540005.7446828,2.0,11.0,-43.0,-11.0,-3.0,-1.0,2.0,1.0
1701540005.7679756,-1.0,-10.0,-10.0,-11.0,-11.0,-13.0,-3.0,-1.0
1701540005.7679756,-4.0,13.0,53.0,4.0,-3.0,10.0,0.0,2.0
1701540005.7679756,-5.0,5.0,-17.0,-13.0,-1.0,-1.0,-2.0,-1.0
1701540005.7679756,5.0,-13.0,-4.0,-11.0,2.0,0.0,2.0,0.0
1701540005.770169,-2.0,-1.0,27.0,1.0,-2.0,0.0,-1.0,-3.0
1701540005.770169,-4.0,-3.0,56.0,1.0,-9.0,-15.0,-1.0,-2.0
1701540005.7773736,-4.0,-8.0,-95.0,-20.0,-26.0,-13.0,-3.0,-4.0
1701540005.7773736,-5.0,20.0,50.0,19.0,16.0,-19.0,-5.0,-5.0
1701540005.8354487,0.0,4.0,20.0,15.0,11.0,14.0,1.0,-1.0
1701540005.8354487,4.0,-1.0,44.0,6.0,24.0,53.0,4.0,0.0
1701540005.8354487,-3.0,-18.0,-37.0,4.0,-8.0,-16.0,0.0,-1.0
1701540005.8354487,-4.0,1.0,-21.0,-14.0,-19.0,-2.0,-2.0,-1.0
1701540005.8354487,-1.0,0.0,-1.0,-1.0,1.0,-20.0,-5.0,-2.0
1701540005.8354487,-4.0,3.0,-4.0,-17.0,-5.0,-28.0,-2.0,-2.0
1701540005.8354487,2.0,10.0,32.0,-6.0,-3.0,24.0,0.0,0.0
1701540005.8354487,-1.0,-10.0,-3.0,11.0,9.0,-12.0,-1.0,-1.0
1701540005.8354487,-2.0,3.0,9.0,9.0,5.0,10.0,1.0,-2.0
1701540005.8354487,-2.0,-13.0,-29.0,1.0,-7.0,-1.0,0.0,0.0
1701540005.8365982,-2.0,-1.0,-19.0,-7.0,-3.0,-10.0,-3.0,-2.0
1701540005.8365982,1.0,4.0,-29.0,-24.0,-1.0,13.0,-1.0,-1.0
1701540005.8826652,-2.0,0.0,36.0,21.0,0.0,3.0,1.0,-1.0
1701540005.8826652,2.0,-10.0,-58.0,-20.0,-10.0,-11.0,1.0,3.0
1701540005.8826652,-3.0,10.0,51.0,9.0,1.0,-4.0,-6.0,-4.0
1701540005.8826652,-4.0,-2.0,-16.0,-11.0,-14.0,-6.0,-7.0,-2.0
1701540005.8826652,3.0,-5.0,-37.0,0.0,8.0,16.0,10.0,1.0
1701540005.8826652,-2.0,8.0,-13.0,17.0,-6.0,-8.0,-1.0,-3.0
1701540005.8995917,4.0,0.0,37.0,23.0,16.0,6.0,4.0,2.0
1701540005.8995917,-4.0,-4.0,-48.0,-15.0,-2.0,6.0,-4.0,-2.0
1701540005.9238117,-1.0,-9.0,-12.0,-6.0,3.0,-5.0,-3.0,-2.0
1701540005.924812,-5.0,-5.0,1.0,-15.0,-16.0,-11.0,-5.0,-2.0
1701540005.924812,2.0,-4.0,3.0,5.0,-4.0,0.0,4.0,2.0
1701540005.924812,-2.0,5.0,-1.0,13.0,-4.0,-2.0,-2.0,-3.0
1701540005.9283717,-2.0,-4.0,31.0,-13.0,-2.0,-2.0,-2.0,0.0
1701540005.9283717,4.0,-6.0,13.0,-22.0,7.0,-1.0,1.0,3.0
1701540005.9283717,-1.0,-2.0,-31.0,2.0,-3.0,-4.0,-3.0,-1.0
1701540005.9283717,2.0,-5.0,66.0,39.0,13.0,4.0,2.0,-1.0
1701540005.9294877,-45.0,7.0,-2.0,-25.0,-6.0,-4.0,-6.0,-9.0
1701540005.9294877,11.0,-13.0,-5.0,-10.0,-2.0,-8.0,1.0,2.0
1701540005.9408503,1.0,9.0,21.0,14.0,-4.0,4.0,-5.0,-1.0
1701540005.9408503,-2.0,-1.0,9.0,-7.0,0.0,5.0,0.0,-1.0
1701540005.9938946,2.0,-16.0,20.0,-9.0,3.0,0.0,-1.0,-4.0
1701540005.9938946,-6.0,4.0,12.0,22.0,1.0,-4.0,-3.0,-2.0
1701540005.9938946,-3.0,-8.0,-65.0,-21.0,-3.0,-3.0,1.0,2.0
1701540005.9938946,3.0,-8.0,2.0,4.0,-4.0,1.0,4.0,3.0
1701540005.9938946,15.0,-2.0,-4.0,-16.0,-12.0,-1.0,-2.0,2.0
1701540005.9938946,-6.0,1.0,-70.0,28.0,11.0,-1.0,0.0,-3.0
1701540005.9938946,0.0,-11.0,80.0,1.0,2.0,-2.0,-4.0,-4.0
1701540005.9938946,-4.0,21.0,-12.0,-3.0,2.0,6.0,0.0,-1.0
1701540005.9938946,7.0,-6.0,25.0,77.0,9.0,-3.0,-1.0,1.0
1701540005.9938946,-15.0,-6.0,-31.0,-44.0,-16.0,-5.0,5.0,7.0
1701540005.9982038,-5.0,-4.0,-11.0,12.0,-9.0,0.0,-7.0,-22.0
1701540005.9982038,-1.0,-14.0,-75.0,-10.0,13.0,6.0,0.0,0.0
1701540006.044632,-15.0,46.0,44.0,-2.0,-14.0,-7.0,-4.0,-4.0
1701540006.044632,5.0,15.0,70.0,30.0,3.0,0.0,-3.0,-2.0
1701540006.044632,-2.0,-18.0,-18.0,5.0,6.0,-1.0,1.0,6.0
1701540006.044632,3.0,-21.0,20.0,-47.0,-12.0,-4.0,-1.0,2.0
1701540006.044632,24.0,-8.0,-11.0,-18.0,-3.0,0.0,-3.0,1.0
1701540006.045578,-26.0,-18.0,-16.0,7.0,-1.0,-4.0,-3.0,-6.0
1701540006.045578,9.0,12.0,-1.0,-13.0,5.0,-2.0,-2.0,19.0
1701540006.045578,25.0,-7.0,15.0,-3.0,-4.0,5.0,3.0,-24.0
1701540006.0568995,2.0,5.0,-66.0,-13.0,3.0,2.0,5.0,2.0
1701540006.0568995,5.0,10.0,48.0,-13.0,-3.0,-3.0,-5.0,-2.0
1701540006.0629506,5.0,-4.0,2.0,14.0,1.0,1.0,3.0,2.0
1701540006.0629506,-15.0,-4.0,0.0,2.0,-8.0,-5.0,-2.0,4.0
1701540006.1120892,3.0,-2.0,14.0,-26.0,-1.0,-1.0,0.0,2.0
1701540006.1120892,2.0,-5.0,-67.0,17.0,4.0,-2.0,-7.0,-12.0
1701540006.11441,-17.0,3.0,9.0,-12.0,-9.0,-5.0,-3.0,-7.0
1701540006.11441,0.0,-2.0,-23.0,17.0,1.0,-1.0,2.0,7.0
1701540006.1194222,-7.0,-10.0,-20.0,-27.0,-6.0,-3.0,-2.0,-4.0
1701540006.1194222,5.0,-2.0,18.0,-1.0,-3.0,1.0,0.0,6.0
1701540006.1194222,-2.0,-3.0,20.0,4.0,1.0,2.0,0.0,-1.0
1701540006.1194222,-21.0,17.0,12.0,40.0,10.0,1.0,0.0,-1.0
1701540006.1194222,4.0,-11.0,-53.0,-55.0,-17.0,-6.0,-3.0,-2.0
1701540006.1194222,5.0,-3.0,14.0,15.0,2.0,-1.0,-1.0,0.0
1701540006.1397383,-3.0,9.0,-4.0,6.0,6.0,7.0,4.0,-1.0
1701540006.1397383,-15.0,-12.0,17.0,-7.0,-9.0,-4.0,-4.0,-8.0
1701540006.1397383,7.0,1.0,-5.0,-1.0,5.0,0.0,1.0,32.0
1701540006.1397383,15.0,2.0,-33.0,23.0,0.0,-2.0,-3.0,-11.0
1701540006.1407654,-2.0,-5.0,47.0,-27.0,-5.0,-5.0,1.0,0.0
1701540006.1422708,6.0,0.0,27.0,5.0,10.0,1.0,-1.0,1.0
1701540006.1596878,0.0,-16.0,62.0,29.0,7.0,3.0,-1.0,3.0
1701540006.1607347,-2.0,-1.0,-66.0,-30.0,-6.0,-1.0,1.0,2.0
1701540006.1610177,9.0,6.0,-13.0,26.0,-5.0,-5.0,-1.0,-1.0
1701540006.1610177,-1.0,2.0,-4.0,-50.0,-4.0,-4.0,-1.0,3.0
1701540006.1720948,-5.0,-3.0,-22.0,-14.0,-5.0,1.0,-2.0,-9.0
1701540006.1720948,-5.0,-5.0,69.0,36.0,15.0,7.0,-1.0,-8.0
1701540006.2101526,-6.0,2.0,5.0,53.0,0.0,-2.0,-3.0,-4.0
1701540006.2101526,6.0,-5.0,30.0,-15.0,-7.0,-3.0,-2.0,4.0
1701540006.2101526,-9.0,4.0,-62.0,1.0,4.0,-1.0,-1.0,-10.0
1701540006.2101526,-2.0,-5.0,-14.0,-84.0,-17.0,-4.0,0.0,0.0
1701540006.2101526,1.0,7.0,-10.0,-1.0,0.0,0.0,0.0,5.0
1701540006.2101526,1.0,2.0,-20.0,18.0,1.0,-2.0,0.0,0.0
1701540006.2101526,3.0,-3.0,48.0,6.0,-1.0,-2.0,-1.0,-1.0
1701540006.2101526,-32.0,-3.0,-20.0,14.0,-1.0,-1.0,-3.0,-3.0
1701540006.2203655,5.0,-8.0,19.0,-25.0,-2.0,0.0,-3.0,-8.0
1701540006.2203655,35.0,-5.0,-13.0,-8.0,-7.0,-2.0,7.0,24.0
1701540006.2764685,25.0,18.0,2.0,14.0,-5.0,-2.0,-7.0,-14.0
1701540006.2764685,8.0,-14.0,6.0,-1.0,-2.0,-5.0,1.0,5.0
1701540006.2764685,-6.0,0.0,-6.0,10.0,1.0,-2.0,0.0,-3.0
1701540006.2764685,-5.0,-12.0,-43.0,5.0,-9.0,2.0,-5.0,-6.0
1701540006.2764685,-12.0,22.0,10.0,7.0,14.0,5.0,3.0,-1.0
1701540006.2764685,1.0,-13.0,-3.0,-6.0,-2.0,-7.0,-2.0,-3.0
1701540006.2764685,5.0,14.0,-18.0,-10.0,-8.0,2.0,-1.0,4.0
1701540006.2764685,-6.0,2.0,-1.0,6.0,-9.0,-14.0,-6.0,-14.0
1701540006.2830098,21.0,-1.0,70.0,25.0,15.0,12.0,1.0,1.0
1701540006.2830098,-14.0,8.0,-22.0,-54.0,-12.0,-7.0,-3.0,-3.0
1701540006.2830098,-10.0,-16.0,48.0,2.0,4.0,-17.0,2.0,3.0
1701540006.2830098,13.0,12.0,2.0,-4.0,-2.0,24.0,-1.0,-2.0
1701540006.3006985,20.0,-5.0,12.0,1.0,2.0,-4.0,3.0,2.0
1701540006.3006985,3.0,19.0,26.0,35.0,7.0,5.0,1.0,-5.0
1701540006.3019536,1.0,-16.0,-2.0,3.0,-2.0,0.0,3.0,3.0
1701540006.3019536,-9.0,-9.0,32.0,-35.0,-10.0,-13.0,-10.0,8.0
1701540006.3131187,-14.0,-22.0,-25.0,4.0,-10.0,-3.0,-4.0,3.0
1701540006.315134,8.0,-4.0,34.0,21.0,5.0,3.0,3.0,-8.0
1701540006.3267636,1.0,-4.0,-27.0,-14.0,-1.0,-3.0,-11.0,-2.0
1701540006.3267636,-9.0,1.0,40.0,24.0,6.0,1.0,5.0,-3.0
1701540006.3380063,-49.0,-8.0,-14.0,0.0,-1.0,0.0,-3.0,-5.0
1701540006.3380063,50.0,4.0,8.0,2.0,-5.0,-1.0,3.0,11.0
1701540006.3947554,-17.0,-7.0,0.0,-10.0,0.0,2.0,1.0,1.0
1701540006.3947554,-1.0,4.0,-100.0,7.0,5.0,-4.0,-3.0,-10.0
1701540006.3947554,-9.0,-17.0,27.0,-33.0,-7.0,-7.0,-5.0,-1.0
1701540006.3947554,-43.0,10.0,5.0,14.0,3.0,4.0,-13.0,-8.0
1701540006.3947554,10.0,8.0,26.0,34.0,6.0,7.0,14.0,3.0
1701540006.3947554,-2.0,11.0,-62.0,-57.0,-9.0,-8.0,-3.0,0.0
1701540006.3947554,2.0,1.0,6.0,16.0,1.0,-5.0,-3.0,-1.0
1701540006.3947554,-21.0,-3.0,-10.0,1.0,-3.0,1.0,-4.0,-3.0
1701540006.3958035,-4.0,-3.0,5.0,5.0,3.0,-4.0,-2.0,-2.0
1701540006.3958035,-16.0,1.0,14.0,4.0,1.0,-2.0,1.0,-1.0
1701540006.397196,0.0,7.0,-20.0,2.0,-4.0,2.0,-2.0,-7.0
1701540006.397196,5.0,-7.0,6.0,-5.0,-5.0,-1.0,2.0,3.0
1701540006.4003506,-2.0,-13.0,-22.0,-18.0,-1.0,-3.0,-3.0,-6.0
1701540006.4003506,10.0,3.0,41.0,19.0,5.0,0.0,4.0,-6.0
1701540006.4149437,-1.0,1.0,-11.0,-1.0,0.0,4.0,-3.0,-5.0
1701540006.4149437,3.0,-6.0,8.0,9.0,0.0,-2.0,1.0,4.0
1701540006.4232676,11.0,-4.0,-26.0,-22.0,-10.0,-4.0,1.0,-2.0
1701540006.4232676,-45.0,-19.0,-38.0,-29.0,-2.0,-1.0,-4.0,-6.0
1701540006.4696887,7.0,-25.0,6.0,9.0,0.0,-3.0,0.0,0.0
1701540006.4696887,4.0,1.0,-16.0,-3.0,-3.0,-2.0,2.0,-7.0
1701540006.4696887,-9.0,-3.0,40.0,17.0,18.0,7.0,-3.0,1.0
1701540006.4696887,2.0,21.0,-34.0,-58.0,-7.0,-4.0,-2.0,-2.0
1701540006.4771652,1.0,-5.0,-17.0,6.0,-2.0,-7.0,0.0,1.0
1701540006.4773364,-6.0,29.0,23.0,7.0,-3.0,-2.0,-1.0,1.0
1701540006.492734,0.0,12.0,-13.0,-14.0,-3.0,0.0,-9.0,-6.0
1701540006.492734,11.0,1.0,39.0,47.0,5.0,4.0,4.0,2.0
1701540006.4958508,5.0,6.0,16.0,-26.0,-10.0,-7.0,-2.0,12.0
1701540006.4968503,-9.0,-95.0,-41.0,-10.0,-5.0,-2.0,-4.0,-2.0
1701540006.4968503,-15.0,93.0,-76.0,-13.0,-7.0,-8.0,-41.0,-27.0
1701540006.4968503,7.0,42.0,26.0,13.0,2.0,4.0,56.0,29.0
1701540006.4968503,7.0,6.0,-5.0,4.0,-2.0,-5.0,-3.0,-1.0
1701540006.4968503,29.0,-8.0,20.0,6.0,-7.0,2.0,15.0,6.0
1701540006.4988658,5.0,-51.0,58.0,-6.0,11.0,10.0,-37.0,2.0
1701540006.4988658,10.0,-9.0,-30.0,37.0,17.0,-3.0,-19.0,1.0
1701540006.5163846,7.0,-9.0,-31.0,-24.0,-14.0,0.0,34.0,-7.0
1701540006.5189757,26.0,-2.0,-5.0,-12.0,-15.0,-8.0,2.0,13.0
1701540006.5199392,9.0,-20.0,19.0,-3.0,-7.0,-1.0,-3.0,-3.0
1701540006.5199392,-13.0,45.0,33.0,18.0,28.0,20.0,-7.0,10.0
1701540006.5411146,-4.0,13.0,7.0,4.0,9.0,0.0,-13.0,0.0
1701540006.5411146,-14.0,6.0,-25.0,-3.0,1.0,-1.0,-6.0,-26.0
1701540006.5452626,19.0,-10.0,-7.0,-12.0,-17.0,-11.0,18.0,34.0
1701540006.5463064,-6.0,-62.0,1.0,-3.0,-16.0,-11.0,3.0,-6.0
1701540006.58362,-21.0,-4.0,2.0,11.0,1.0,0.0,-5.0,-8.0
1701540006.58362,19.0,9.0,-10.0,-23.0,-3.0,-8.0,-28.0,20.0
1701540006.58362,-12.0,-37.0,-16.0,-11.0,-1.0,4.0,15.0,-10.0
1701540006.58362,0.0,-15.0,10.0,22.0,-6.0,-2.0,12.0,2.0
1701540006.594113,-5.0,-4.0,-29.0,-88.0,-13.0,-5.0,-11.0,-5.0
1701540006.594113,18.0,0.0,37.0,46.0,20.0,5.0,3.0,2.0
1701540006.6163502,22.0,-15.0,-2.0,-4.0,-5.0,-1.0,9.0,19.0
1701540006.6163502,10.0,-6.0,-4.0,4.0,-5.0,-2.0,-19.0,-6.0
1701540006.6163502,-10.0,38.0,-43.0,16.0,2.0,0.0,-2.0,-24.0
1701540006.6163502,-1.0,22.0,27.0,7.0,11.0,6.0,6.0,8.0
1701540006.6173503,-15.0,27.0,-30.0,-36.0,-5.0,-5.0,6.0,-2.0
1701540006.6173503,-11.0,-18.0,36.0,16.0,-8.0,-8.0,-21.0,-6.0
1701540006.6173503,-28.0,-18.0,-29.0,14.0,3.0,-1.0,-10.0,1.0
1701540006.6173503,-34.0,35.0,-16.0,-30.0,3.0,8.0,31.0,5.0
1701540006.6333714,16.0,-14.0,22.0,31.0,5.0,3.0,9.0,-4.0
1701540006.6343749,-6.0,-12.0,-75.0,-25.0,-13.0,-9.0,-25.0,-10.0
1701540006.6603844,11.0,-22.0,59.0,20.0,5.0,1.0,-3.0,-13.0
1701540006.6603844,15.0,-1.0,-30.0,3.0,1.0,0.0,-4.0,8.0
1701540006.6603844,23.0,2.0,10.0,-2.0,-1.0,-2.0,0.0,-6.0
1701540006.6603844,-1.0,-14.0,11.0,-7.0,-2.0,0.0,0.0,-3.0
1701540006.664449,-18.0,-9.0,33.0,10.0,1.0,-1.0,-10.0,-15.0
1701540006.664449,-3.0,-11.0,-29.0,8.0,-2.0,-1.0,25.0,8.0
1701540006.664449,-3.0,7.0,-29.0,-15.0,-3.0,0.0,0.0,-9.0
1701540006.664449,29.0,5.0,37.0,14.0,1.0,-2.0,-2.0,2.0
1701540006.6655536,3.0,-30.0,-35.0,12.0,-1.0,-1.0,9.0,3.0
1701540006.6655536,9.0,4.0,122.0,-13.0,-8.0,-3.0,-10.0,-9.0
1701540006.698136,-43.0,78.0,-111.0,2.0,3.0,2.0,1.0,-11.0
1701540006.6991365,-32.0,19.0,-22.0,-6.0,9.0,2.0,-1.0,-11.0
1701540006.7273405,66.0,-11.0,102.0,37.0,0.0,2.0,1.0,16.0
1701540006.7273405,13.0,-31.0,8.0,10.0,4.0,2.0,14.0,-2.0
1701540006.7273405,-8.0,15.0,19.0,-9.0,-6.0,-4.0,4.0,-5.0
1701540006.7273405,13.0,-4.0,-12.0,0.0,6.0,0.0,-14.0,-8.0
1701540006.7273405,-26.0,7.0,-2.0,-29.0,-17.0,-5.0,-1.0,-13.0
1701540006.7273405,-36.0,-62.0,-6.0,17.0,7.0,1.0,-9.0,-14.0
1701540006.7273405,3.0,-32.0,20.0,-9.0,1.0,4.0,10.0,0.0
1701540006.7273405,2.0,-18.0,5.0,35.0,7.0,1.0,-20.0,1.0
1701540006.7470798,-1.0,7.0,-25.0,-37.0,-5.0,-12.0,-14.0,15.0
1701540006.7470798,-23.0,18.0,-5.0,11.0,-3.0,15.0,12.0,-8.0
1701540006.7470798,-18.0,-42.0,42.0,-32.0,-11.0,-1.0,9.0,6.0
1701540006.7470798,13.0,35.0,-49.0,1.0,-4.0,-5.0,-35.0,-4.0
1701540006.749092,-14.0,4.0,-1.0,18.0,5.0,3.0,9.0,1.0
1701540006.749092,-23.0,61.0,-15.0,2.0,0.0,-11.0,-15.0,-14.0
1701540006.7599027,19.0,-21.0,30.0,-17.0,5.0,-8.0,-15.0,-4.0
1701540006.7599027,31.0,-9.0,46.0,6.0,-11.0,-5.0,16.0,-2.0
1701540006.7809796,9.0,-20.0,-31.0,3.0,-1.0,4.0,6.0,1.0
1701540006.7809796,2.0,3.0,-57.0,-18.0,-3.0,-5.0,-9.0,3.0
1701540006.7826426,-14.0,6.0,22.0,26.0,1.0,-1.0,-17.0,-25.0
1701540006.7826426,-22.0,8.0,4.0,-17.0,-9.0,-50.0,-91.0,-21.0
1701540006.8350732,17.0,-19.0,-12.0,-16.0,-6.0,19.0,101.0,28.0
1701540006.8350732,16.0,-26.0,16.0,5.0,5.0,40.0,35.0,16.0
1701540006.8350732,3.0,14.0,-71.0,-4.0,-6.0,1.0,-8.0,4.0
1701540006.8350732,-4.0,8.0,9.0,2.0,4.0,18.0,48.0,10.0
1701540006.8350732,-7.0,49.0,20.0,33.0,9.0,-38.0,-79.0,-17.0
1701540006.8350732,-13.0,18.0,3.0,-34.0,-13.0,-22.0,-48.0,-25.0
1701540006.841265,12.0,-6.0,22.0,13.0,5.0,28.0,49.0,32.0
1701540006.841265,-4.0,-24.0,-10.0,-17.0,-7.0,-7.0,10.0,2.0
1701540006.841265,-18.0,19.0,0.0,8.0,2.0,7.0,-16.0,-8.0
1701540006.841265,13.0,-59.0,20.0,4.0,-2.0,-12.0,-2.0,2.0
1701540006.8423164,-12.0,27.0,-15.0,7.0,2.0,-12.0,-13.0,-5.0
1701540006.8423164,-14.0,-6.0,17.0,-2.0,-7.0,12.0,20.0,-19.0
1701540006.8533757,-6.0,-1.0,15.0,-5.0,-1.0,-1.0,4.0,7.0
1701540006.8554614,-1.0,42.0,-41.0,-8.0,-6.0,-43.0,-86.0,5.0
1701540006.8554614,-52.0,-41.0,-24.0,2.0,7.0,41.0,34.0,-27.0
1701540006.8554614,35.0,9.0,17.0,-1.0,-1.0,16.0,51.0,22.0
1701540006.9102843,-7.0,-15.0,11.0,5.0,2.0,21.0,5.0,-5.0
1701540006.9112844,1.0,17.0,-25.0,-4.0,0.0,-45.0,18.0,-12.0
1701540006.9217215,-3.0,-16.0,4.0,30.0,-12.0,21.0,-18.0,5.0
1701540006.9217215,11.0,-25.0,3.0,-12.0,7.0,9.0,-20.0,-18.0
1701540006.9217215,-7.0,-1.0,23.0,-45.0,-9.0,1.0,-4.0,7.0
1701540006.9217215,0.0,-8.0,32.0,7.0,-1.0,-5.0,8.0,3.0
1701540006.9217215,13.0,15.0,-62.0,-14.0,-3.0,-22.0,49.0,24.0
1701540006.9217215,-17.0,-10.0,-29.0,6.0,-5.0,9.0,-12.0,3.0
1701540006.9217215,27.0,-11.0,-13.0,22.0,2.0,-2.0,38.0,18.0
1701540006.9217215,-7.0,5.0,26.0,8.0,1.0,11.0,-2.0,13.0
1701540006.9585183,3.0,76.0,0.0,-1.0,2.0,-14.0,-49.0,-6.0
1701540006.9594672,-8.0,-7.0,11.0,1.0,-1.0,-6.0,16.0,13.0
1701540006.9594672,-54.0,-7.0,-47.0,25.0,-2.0,-16.0,-23.0,-9.0
1701540006.9594672,-24.0,-15.0,25.0,-23.0,-1.0,39.0,45.0,6.0
1701540006.9594672,-2.0,-16.0,-17.0,22.0,1.0,8.0,15.0,2.0
1701540006.9594672,-5.0,-1.0,6.0,-15.0,-4.0,-8.0,3.0,-4.0
1701540006.9607403,11.0,18.0,-3.0,4.0,9.0,-13.0,-35.0,4.0
1701540006.9607403,-8.0,-2.0,56.0,43.0,10.0,-3.0,41.0,4.0
1701540006.9622176,25.0,-18.0,-25.0,-26.0,1.0,13.0,20.0,-14.0
1701540006.9622176,-8.0,-9.0,40.0,5.0,-1.0,-6.0,7.0,6.0
1701540006.9904838,8.0,-10.0,-61.0,-25.0,-18.0,4.0,31.0,4.0
1701540006.9904838,-4.0,-15.0,51.0,21.0,-2.0,-7.0,-28.0,-14.0
1701540006.9904838,0.0,31.0,39.0,-21.0,-1.0,-21.0,-27.0,-3.0
1701540006.9904838,4.0,-6.0,-82.0,8.0,1.0,6.0,14.0,3.0
1701540006.9924831,-17.0,-33.0,93.0,-22.0,4.0,11.0,-13.0,2.0
1701540006.9924831,16.0,3.0,-92.0,-24.0,-4.0,4.0,-10.0,-1.0
1701540007.000923,9.0,-32.0,66.0,25.0,0.0,-19.0,3.0,0.0
1701540007.000923,1.0,67.0,-6.0,-11.0,-6.0,-24.0,-9.0,-2.0
1701540007.0611265,15.0,-12.0,58.0,16.0,9.0,33.0,27.0,0.0
1701540007.0611265,16.0,-6.0,-63.0,-7.0,-5.0,1.0,-2.0,5.0
1701540007.0611265,1.0,-26.0,16.0,-15.0,-8.0,-8.0,2.0,1.0
1701540007.0611265,-10.0,-19.0,9.0,-3.0,4.0,13.0,45.0,7.0
1701540007.066298,1.0,2.0,-12.0,-10.0,0.0,-12.0,-17.0,-11.0
1701540007.066298,0.0,-3.0,-19.0,17.0,7.0,1.0,-8.0,-3.0
1701540007.066298,-9.0,-11.0,34.0,-4.0,-7.0,-6.0,-32.0,-15.0
1701540007.066298,-5.0,-6.0,-6.0,-11.0,-1.0,-1.0,-31.0,-2.0
1701540007.066298,1.0,11.0,-21.0,32.0,2.0,-4.0,-2.0,3.0
1701540007.066298,0.0,1.0,-28.0,-36.0,-7.0,7.0,12.0,-5.0
1701540007.066298,-8.0,-5.0,15.0,23.0,12.0,-7.0,-25.0,1.0
1701540007.066298,24.0,-26.0,10.0,-46.0,-13.0,-5.0,-9.0,-5.0
1701540007.112415,10.0,6.0,-79.0,-6.0,-3.0,-4.0,32.0,20.0
1701540007.112415,7.0,20.0,-7.0,2.0,-2.0,2.0,-18.0,-1.0
1701540007.112415,-6.0,-10.0,51.0,11.0,4.0,-1.0,-4.0,-3.0
1701540007.112415,-7.0,-5.0,-10.0,8.0,3.0,4.0,-24.0,-3.0
1701540007.112415,-32.0,-18.0,-9.0,18.0,2.0,-3.0,3.0,6.0
1701540007.112415,-18.0,27.0,-13.0,-31.0,-6.0,3.0,4.0,-5.0
1701540007.112415,10.0,-7.0,-9.0,-10.0,-7.0,-5.0,-1.0,-6.0
1701540007.112415,-6.0,-19.0,21.0,13.0,3.0,4.0,-2.0,-1.0
1701540007.114105,0.0,-3.0,-10.0,-14.0,-4.0,-10.0,-32.0,-14.0
1701540007.114105,-4.0,-5.0,7.0,34.0,7.0,3.0,-8.0,-9.0
1701540007.1244245,-10.0,-15.0,0.0,-47.0,-10.0,-6.0,-1.0,4.0
1701540007.1244245,-17.0,-1.0,-30.0,12.0,-1.0,-1.0,0.0,-5.0
1701540007.1666877,4.0,6.0,-9.0,2.0,1.0,-2.0,-8.0,-7.0
1701540007.1666877,5.0,-13.0,36.0,3.0,0.0,-1.0,3.0,-3.0
1701540007.1753294,5.0,8.0,-22.0,12.0,1.0,-4.0,-6.0,3.0
1701540007.1753294,-4.0,-17.0,19.0,4.0,6.0,-6.0,3.0,-3.0
1701540007.1792462,13.0,16.0,5.0,-14.0,-13.0,4.0,-6.0,0.0
1701540007.1802444,-6.0,2.0,-11.0,9.0,6.0,1.0,-7.0,3.0
1701540007.1802444,-3.0,2.0,22.0,4.0,0.0,3.0,-4.0,0.0
1701540007.1802444,-7.0,21.0,-17.0,13.0,11.0,4.0,2.0,1.0
1701540007.1802444,5.0,-8.0,-12.0,-16.0,-4.0,-6.0,-5.0,-7.0
1701540007.1802444,-2.0,-6.0,16.0,-43.0,-17.0,-5.0,8.0,-5.0
1701540007.208668,-2.0,1.0,-47.0,2.0,-3.0,-7.0,8.0,0.0
1701540007.208668,0.0,-9.0,-2.0,-2.0,-8.0,-6.0,4.0,-1.0
1701540007.21069,5.0,5.0,28.0,15.0,2.0,2.0,-6.0,-2.0
1701540007.21069,3.0,6.0,-44.0,-2.0,0.0,1.0,-5.0,1.0
1701540007.21069,4.0,-2.0,54.0,22.0,7.0,0.0,-1.0,0.0
1701540007.21069,-5.0,-5.0,-49.0,-25.0,-17.0,-5.0,-1.0,-1.0
1701540007.2224336,-2.0,9.0,-50.0,-19.0,-3.0,-10.0,-11.0,-6.0
1701540007.2235155,0.0,-4.0,22.0,8.0,6.0,12.0,-6.0,3.0
1701540007.2249787,-1.0,0.0,-12.0,10.0,-2.0,-11.0,3.0,0.0
1701540007.2249787,-4.0,1.0,30.0,-1.0,16.0,21.0,0.0,-1.0
1701540007.2382798,3.0,-7.0,27.0,-6.0,-17.0,-9.0,-6.0,4.0
1701540007.2382798,1.0,-11.0,-8.0,-4.0,-21.0,-20.0,-16.0,-4.0
1701540007.2819653,0.0,1.0,-28.0,10.0,9.0,-31.0,-2.0,3.0
1701540007.2819653,-8.0,7.0,16.0,-27.0,14.0,44.0,5.0,3.0
1701540007.2829673,3.0,-8.0,-5.0,7.0,16.0,20.0,4.0,-2.0
1701540007.2829673,-3.0,-21.0,-17.0,-21.0,-13.0,-3.0,-1.0,0.0
1701540007.2829673,-4.0,-11.0,-1.0,23.0,-14.0,-1.0,-11.0,-5.0
1701540007.2829673,2.0,4.0,20.0,17.0,-5.0,-35.0,-3.0,-1.0
1701540007.2829673,0.0,14.0,1.0,6.0,6.0,-13.0,-5.0,-3.0
1701540007.2829673,-2.0,3.0,3.0,-15.0,-5.0,23.0,-2.0,-1.0
1701540007.286258,1.0,-10.0,-5.0,15.0,29.0,7.0,2.0,0.0
1701540007.286258,2.0,-2.0,7.0,3.0,-11.0,-5.0,1.0,1.0
1701540007.297597,0.0,-11.0,-1.0,-10.0,0.0,1.0,-2.0,-2.0
1701540007.297597,0.0,2.0,1.0,-4.0,-14.0,-21.0,-1.0,-2.0
1701540007.3391087,-3.0,-1.0,-14.0,-47.0,-27.0,4.0,-3.0,-3.0
1701540007.3391087,1.0,10.0,31.0,78.0,60.0,17.0,1.0,2.0
1701540007.3391087,-5.0,-7.0,1.0,7.0,-1.0,-2.0,-4.0,-3.0
1701540007.3391087,1.0,15.0,8.0,24.0,12.0,-10.0,-4.0,-1.0
1701540007.3391087,-6.0,-10.0,-18.0,-52.0,-9.0,7.0,-3.0,-2.0
1701540007.3391087,0.0,1.0,0.0,-23.0,-38.0,-15.0,-4.0,-1.0
1701540007.3424246,2.0,0.0,-4.0,15.0,5.0,-4.0,-1.0,-1.0
1701540007.3424246,2.0,18.0,4.0,19.0,13.0,-15.0,2.0,1.0
1701540007.3433745,1.0,0.0,-5.0,8.0,3.0,32.0,2.0,12.0
1701540007.3433745,3.0,4.0,48.0,15.0,-8.0,-9.0,2.0,-7.0
1701540007.4039042,-3.0,0.0,-9.0,-39.0,-4.0,7.0,0.0,-2.0
1701540007.4039042,-3.0,-11.0,-56.0,-19.0,-11.0,1.0,-1.0,-3.0
1701540007.4039042,3.0,17.0,31.0,24.0,6.0,-21.0,-6.0,2.0
1701540007.4039042,-6.0,-29.0,-38.0,-36.0,-15.0,-5.0,2.0,-1.0
1701540007.4039042,0.0,6.0,32.0,22.0,3.0,5.0,-2.0,-2.0
1701540007.4039042,-1.0,-1.0,14.0,13.0,11.0,-3.0,0.0,0.0
1701540007.4039042,0.0,-2.0,-18.0,8.0,5.0,9.0,-2.0,-4.0
1701540007.4039042,1.0,-3.0,12.0,-14.0,-13.0,-3.0,-2.0,0.0
1701540007.4039042,2.0,-4.0,-7.0,5.0,5.0,-4.0,0.0,-6.0
1701540007.4039042,-7.0,-14.0,3.0,-20.0,-7.0,0.0,-2.0,3.0
1701540007.4099758,3.0,13.0,-12.0,-5.0,-14.0,-7.0,-2.0,-4.0
1701540007.41025,-1.0,-15.0,-1.0,14.0,10.0,4.0,-1.0,-2.0
1701540007.4484725,0.0,9.0,-1.0,9.0,2.0,-4.0,-2.0,1.0
1701540007.4484725,-2.0,-14.0,-7.0,-2.0,1.0,5.0,-4.0,-5.0
1701540007.4484725,1.0,16.0,31.0,-12.0,-5.0,-3.0,-3.0,-4.0
1701540007.4484725,6.0,16.0,-47.0,-23.0,5.0,2.0,6.0,5.0
1701540007.451106,-1.0,-12.0,-18.0,-11.0,-12.0,-5.0,-1.0,-1.0
1701540007.451106,-31.0,-6.0,-12.0,9.0,0.0,5.0,-2.0,-5.0
1701540007.451106,-5.0,-25.0,-30.0,4.0,6.0,-4.0,0.0,-4.0
1701540007.451106,0.0,-1.0,14.0,-8.0,-8.0,-2.0,1.0,1.0
1701540007.4623535,2.0,15.0,34.0,15.0,0.0,-5.0,-4.0,-1.0
1701540007.4623535,6.0,4.0,17.0,-2.0,0.0,6.0,0.0,-9.0
1701540007.4623535,0.0,-3.0,-65.0,-45.0,-17.0,-8.0,-2.0,-3.0
1701540007.4623535,-10.0,-15.0,3.0,-4.0,-1.0,5.0,5.0,0.0
1701540007.4873908,-2.0,-15.0,21.0,3.0,10.0,6.0,2.0,-3.0
1701540007.4880354,7.0,-6.0,-7.0,6.0,5.0,1.0,1.0,6.0
1701540007.521943,-1.0,-4.0,18.0,-4.0,1.0,1.0,1.0,4.0
1701540007.521943,8.0,12.0,-47.0,10.0,-11.0,-15.0,-10.0,-8.0
1701540007.521943,7.0,93.0,-11.0,-3.0,-7.0,-15.0,-12.0,1.0
1701540007.521943,-3.0,-9.0,18.0,-4.0,-2.0,8.0,9.0,4.0
1701540007.521943,-5.0,-37.0,-43.0,-5.0,4.0,4.0,4.0,-2.0
1701540007.521943,4.0,5.0,-9.0,-7.0,0.0,0.0,-2.0,0.0
1701540007.5232086,-62.0,-17.0,29.0,20.0,-1.0,-4.0,-2.0,-2.0
1701540007.5232086,51.0,21.0,-3.0,-4.0,5.0,-9.0,-5.0,11.0
1701540007.5292678,-3.0,0.0,56.0,14.0,-6.0,-4.0,-6.0,-11.0
1701540007.5292678,-7.0,4.0,-29.0,-8.0,-5.0,-2.0,1.0,3.0
1701540007.5546746,-4.0,-55.0,12.0,1.0,3.0,-3.0,-4.0,-22.0
1701540007.5546746,-40.0,33.0,-30.0,10.0,5.0,-2.0,-5.0,5.0
1701540007.5546746,63.0,29.0,53.0,26.0,0.0,-5.0,-2.0,11.0
1701540007.5546746,-9.0,-92.0,-30.0,-34.0,-6.0,15.0,10.0,-2.0
1701540007.5597599,4.0,11.0,-23.0,-22.0,-6.0,3.0,5.0,7.0
1701540007.5597599,3.0,16.0,38.0,10.0,1.0,2.0,0.0,-1.0
1701540007.5597599,5.0,81.0,-11.0,0.0,0.0,-5.0,-5.0,-8.0
1701540007.5597599,-24.0,21.0,35.0,14.0,10.0,3.0,1.0,23.0
1701540007.5826907,23.0,0.0,-71.0,-19.0,-10.0,-2.0,-3.0,-10.0
1701540007.5826907,-4.0,-37.0,12.0,6.0,3.0,5.0,4.0,-3.0
1701540007.5834565,-10.0,45.0,16.0,0.0,-8.0,-9.0,-7.0,-7.0
1701540007.5834565,1.0,7.0,37.0,6.0,2.0,0.0,1.0,-3.0
1701540007.621339,-6.0,-19.0,-17.0,-17.0,-4.0,-1.0,1.0,8.0
1701540007.621339,14.0,10.0,8.0,7.0,-1.0,-3.0,-4.0,16.0
1701540007.621339,-16.0,11.0,-1.0,5.0,2.0,0.0,0.0,-2.0
1701540007.621339,0.0,-55.0,-17.0,-6.0,3.0,14.0,8.0,3.0
1701540007.624338,3.0,-32.0,7.0,-4.0,4.0,15.0,9.0,1.0
1701540007.624338,-4.0,-17.0,-4.0,5.0,-3.0,-8.0,-5.0,-20.0
1701540007.624338,3.0,37.0,47.0,18.0,5.0,-3.0,-1.0,5.0
1701540007.624338,-2.0,-5.0,-17.0,-14.0,-12.0,-12.0,-10.0,-8.0
1701540007.6469233,11.0,2.0,22.0,3.0,-1.0,0.0,-3.0,6.0
1701540007.6469233,26.0,8.0,-74.0,-17.0,1.0,6.0,6.0,5.0
1701540007.6469233,-7.0,12.0,80.0,15.0,-4.0,6.0,3.0,1.0
1701540007.6469233,6.0,37.0,-24.0,5.0,-8.0,-19.0,-14.0,-12.0
1701540007.6508286,3.0,6.0,19.0,12.0,-4.0,-4.0,-5.0,0.0
1701540007.6508286,-9.0,-5.0,-31.0,-19.0,-1.0,-9.0,-10.0,-9.0
1701540007.6650648,-7.0,-85.0,-12.0,-7.0,1.0,14.0,12.0,21.0
1701540007.6650648,38.0,38.0,38.0,17.0,3.0,7.0,3.0,-18.0
1701540007.6762161,-14.0,-32.0,-20.0,-33.0,-8.0,0.0,2.0,11.0
1701540007.6762161,-11.0,-10.0,21.0,9.0,-4.0,-8.0,-6.0,-8.0
1701540007.6762161,-10.0,-30.0,-32.0,-6.0,-2.0,1.0,2.0,-3.0
1701540007.6762161,-12.0,-21.0,2.0,3.0,-3.0,-9.0,-7.0,-12.0
1701540007.7261724,-8.0,-39.0,-2.0,10.0,13.0,15.0,11.0,-5.0
1701540007.7261724,7.0,-76.0,10.0,-11.0,2.0,20.0,20.0,17.0
1701540007.7261724,-45.0,28.0,-51.0,-3.0,-2.0,-9.0,-12.0,-19.0
1701540007.7261724,28.0,-1.0,-7.0,9.0,7.0,0.0,1.0,7.0
1701540007.7261724,1.0,36.0,12.0,10.0,-1.0,-10.0,-8.0,-3.0
1701540007.7261724,2.0,10.0,34.0,9.0,-5.0,-7.0,-7.0,-4.0
1701540007.7261724,0.0,-51.0,-13.0,-12.0,-6.0,-1.0,-2.0,-5.0
1701540007.7261724,-21.0,64.0,-5.0,14.0,-3.0,-18.0,-17.0,-7.0
1701540007.741163,9.0,15.0,-24.0,2.0,6.0,7.0,9.0,4.0
1701540007.741163,-9.0,-31.0,-48.0,-28.0,-5.0,2.0,0.0,-14.0
1701540007.741163,-1.0,-20.0,35.0,-12.0,-11.0,-7.0,-5.0,-6.0
1701540007.741163,-1.0,40.0,10.0,2.0,-2.0,-4.0,-2.0,-3.0
1701540007.7957041,8.0,44.0,-1.0,12.0,-3.0,-16.0,-13.0,-4.0
1701540007.7957041,-7.0,-2.0,-26.0,0.0,5.0,6.0,1.0,5.0
1701540007.7957041,4.0,-25.0,6.0,-1.0,4.0,2.0,3.0,-19.0
1701540007.7957041,-6.0,33.0,20.0,12.0,-1.0,-6.0,-6.0,-3.0
1701540007.8007367,-2.0,-42.0,31.0,-3.0,-2.0,9.0,5.0,1.0
1701540007.8007367,-19.0,-18.0,-14.0,-10.0,1.0,11.0,9.0,3.0
1701540007.8007367,7.0,0.0,-55.0,-15.0,-7.0,-2.0,-3.0,9.0
1701540007.8007367,6.0,34.0,-5.0,-14.0,-3.0,5.0,6.0,5.0
1701540007.8210778,2.0,-4.0,45.0,5.0,0.0,-3.0,0.0,0.0
1701540007.8210778,5.0,83.0,52.0,5.0,-6.0,-14.0,-11.0,-8.0
1701540007.8210778,8.0,-33.0,-89.0,-28.0,-7.0,2.0,-1.0,20.0
1701540007.8210778,-7.0,-23.0,1.0,0.0,1.0,0.0,0.0,2.0
1701540007.8230999,-1.0,24.0,4.0,-14.0,-8.0,-3.0,-2.0,2.0
1701540007.8230999,-1.0,-21.0,17.0,-26.0,-15.0,-7.0,-4.0,-6.0
1701540007.8230999,6.0,11.0,4.0,37.0,14.0,0.0,-2.0,-5.0
1701540007.8319397,-4.0,-40.0,25.0,-4.0,-1.0,5.0,4.0,12.0
1701540007.8433301,-6.0,7.0,-31.0,-3.0,-14.0,-10.0,-8.0,-6.0
1701540007.8433301,2.0,-2.0,34.0,29.0,14.0,0.0,-1.0,-1.0
1701540007.8433301,-9.0,-25.0,-73.0,-26.0,-2.0,6.0,8.0,1.0
1701540007.8433301,-4.0,-25.0,26.0,6.0,-2.0,-1.0,0.0,-1.0
1701540007.8966029,0.0,17.0,51.0,-53.0,-11.0,-3.0,-2.0,-6.0
1701540007.8966029,-2.0,-11.0,38.0,19.0,-4.0,13.0,9.0,4.0
1701540007.8966029,-11.0,-34.0,-27.0,-10.0,-1.0,-1.0,-1.0,0.0
1701540007.8966029,-3.0,16.0,-46.0,17.0,5.0,-9.0,-10.0,-17.0
1701540007.8966029,3.0,-38.0,-44.0,-14.0,-3.0,-1.0,1.0,1.0
1701540007.8966029,0.0,24.0,15.0,-7.0,-9.0,-10.0,-9.0,-6.0
1701540007.8966029,-4.0,4.0,-20.0,10.0,6.0,-1.0,-4.0,-6.0
1701540007.8966029,2.0,-14.0,-11.0,1.0,8.0,5.0,3.0,5.0
1701540007.8976026,-1.0,-4.0,59.0,7.0,-7.0,-2.0,-2.0,0.0
1701540007.8976026,-6.0,24.0,-39.0,-5.0,-13.0,-10.0,-10.0,-8.0
1701540007.8976026,-2.0,-40.0,27.0,-10.0,9.0,1.0,4.0,3.0
1701540007.8976026,-6.0,1.0,79.0,20.0,-4.0,-3.0,-3.0,-1.0
1701540007.9601803,2.0,-10.0,-25.0,42.0,3.0,-2.0,-2.0,-2.0
1701540007.9601803,6.0,-1.0,1.0,21.0,26.0,8.0,5.0,7.0
1701540007.9601803,2.0,28.0,-70.0,7.0,-10.0,-3.0,0.0,1.0
1701540007.9601803,0.0,29.0,82.0,-86.0,-57.0,-14.0,-6.0,-3.0
1701540007.9601803,-13.0,7.0,-62.0,59.0,50.0,-1.0,-8.0,-10.0
1701540007.9601803,4.0,-9.0,-32.0,14.0,9.0,-6.0,-6.0,0.0
1701540007.9601803,2.0,-11.0,-7.0,1.0,7.0,6.0,3.0,0.0
1701540007.9601803,3.0,-38.0,-38.0,2.0,1.0,6.0,9.0,4.0
1701540007.9651792,-1.0,33.0,68.0,-70.0,-44.0,-7.0,-5.0,0.0
1701540007.9651792,-10.0,70.0,18.0,99.0,43.0,-9.0,-14.0,-11.0
1701540007.9662228,0.0,-5.0,127.0,38.0,-3.0,-1.0,0.0,1.0
1701540007.9662228,-3.0,-35.0,-69.0,-58.0,8.0,11.0,9.0,4.0
1701540007.9793026,15.0,12.0,34.0,102.0,7.0,9.0,7.0,8.0
1701540007.9793026,1.0,-69.0,-58.0,-52.0,20.0,18.0,15.0,6.0
1701540007.9793026,-14.0,-31.0,29.0,-4.0,-29.0,-1.0,0.0,-7.0
1701540007.9793026,0.0,20.0,17.0,37.0,11.0,-8.0,-8.0,-3.0
1701540008.0447388,2.0,10.0,24.0,-41.0,0.0,-3.0,-2.0,0.0
1701540008.0447388,-7.0,-27.0,-13.0,-111.0,-104.0,-15.0,-2.0,-5.0
1701540008.0457394,9.0,5.0,19.0,116.0,106.0,24.0,10.0,9.0
1701540008.0457394,-12.0,13.0,-71.0,31.0,-10.0,-9.0,-9.0,-10.0
1701540008.0826228,2.0,5.0,63.0,15.0,28.0,1.0,-2.0,0.0
1701540008.0826228,1.0,5.0,43.0,-100.0,-36.0,-10.0,-5.0,-3.0
1701540008.0826228,6.0,-26.0,-51.0,-73.0,-48.0,-4.0,1.0,3.0
1701540008.0826228,-17.0,61.0,-71.0,58.0,-1.0,-22.0,-19.0,-18.0
1701540008.0826228,2.0,-36.0,63.0,47.0,14.0,16.0,13.0,6.0
1701540008.0826228,2.0,-27.0,-85.0,53.0,19.0,11.0,9.0,6.0
1701540008.0826228,-12.0,23.0,47.0,-29.0,-28.0,-15.0,-14.0,-11.0
1701540008.0826228,3.0,-11.0,-3.0,-54.0,-36.0,-4.0,-1.0,1.0
1701540008.0826228,-5.0,18.0,17.0,66.0,48.0,8.0,1.0,0.0
1701540008.0826228,0.0,16.0,-76.0,-36.0,-9.0,-1.0,-1.0,-3.0
1701540008.0826228,11.0,11.0,68.0,31.0,-3.0,-3.0,-3.0,-2.0
1701540008.0826228,-10.0,-48.0,1.0,-54.0,-14.0,8.0,5.0,2.0
1701540008.0837386,-1.0,-49.0,-62.0,-67.0,-5.0,5.0,4.0,4.0
1701540008.085737,5.0,73.0,127.0,113.0,24.0,-7.0,-7.0,-1.0
1701540008.085737,-3.0,-49.0,1.0,-88.0,-5.0,13.0,10.0,5.0
1701540008.085737,15.0,-35.0,106.0,31.0,24.0,14.0,8.0,11.0
1701540008.1151972,-1.0,3.0,69.0,4.0,-28.0,-6.0,-3.0,-4.0
1701540008.1151972,-5.0,-6.0,-10.0,50.0,36.0,2.0,-3.0,-1.0
1701540008.116364,-1.0,46.0,30.0,23.0,4.0,-9.0,-8.0,-3.0
1701540008.116364,-1.0,-47.0,-16.0,-34.0,-4.0,5.0,6.0,3.0
1701540008.1173842,7.0,-35.0,-63.0,-24.0,10.0,8.0,8.0,6.0
1701540008.1173842,-2.0,23.0,55.0,47.0,-7.0,-9.0,-7.0,-4.0
1701540008.1173842,-10.0,28.0,74.0,-2.0,-18.0,-17.0,-12.0,-8.0
1701540008.1173842,-2.0,-78.0,-85.0,-54.0,33.0,18.0,11.0,8.0
1701540008.1824334,-6.0,60.0,32.0,-54.0,-31.0,-22.0,-19.0,-12.0
1701540008.1834338,-4.0,-44.0,16.0,24.0,1.0,2.0,-2.0,-3.0
1701540008.1834338,9.0,39.0,-66.0,-20.0,5.0,5.0,4.0,4.0
1701540008.1834338,-6.0,12.0,-43.0,13.0,-3.0,-10.0,-10.0,-6.0
1701540008.1834338,-10.0,22.0,68.0,37.0,26.0,5.0,-2.0,-1.0
1701540008.1834338,6.0,-3.0,28.0,-92.0,-23.0,1.0,5.0,0.0
1701540008.1834338,-15.0,-17.0,-110.0,83.0,27.0,0.0,-5.0,-5.0
1701540008.1834338,4.0,12.0,46.0,-4.0,-12.0,-11.0,-5.0,-4.0
1701540008.1834338,-1.0,-63.0,-68.0,-29.0,-35.0,-8.0,-2.0,-2.0
1701540008.1834338,2.0,42.0,10.0,-124.0,-4.0,11.0,9.0,5.0
1701540008.1834338,-1.0,27.0,-80.0,75.0,31.0,-4.0,-6.0,-6.0
1701540008.1834338,8.0,12.0,-1.0,13.0,7.0,3.0,2.0,5.0
1701540008.2387414,7.0,-51.0,-6.0,9.0,16.0,3.0,3.0,2.0
1701540008.2387414,-22.0,-28.0,-74.0,-79.0,-36.0,-11.0,-9.0,-10.0
1701540008.2387414,4.0,58.0,41.0,24.0,-10.0,-8.0,-4.0,-4.0
1701540008.2387414,21.0,-1.0,121.0,30.0,12.0,5.0,4.0,8.0
1701540008.2387414,-18.0,-108.0,-120.0,-8.0,1.0,2.0,1.0,-4.0
1701540008.2387414,3.0,74.0,80.0,25.0,-6.0,-10.0,-7.0,-7.0
1701540008.2387414,-4.0,-34.0,-78.0,-102.0,-19.0,-1.0,-3.0,-3.0
1701540008.2387414,4.0,-7.0,99.0,6.0,7.0,9.0,8.0,5.0
1701540008.2453651,12.0,-51.0,-46.0,-89.0,-12.0,0.0,2.0,3.0
1701540008.2453651,-22.0,17.0,1.0,52.0,37.0,-1.0,-7.0,-11.0
1701540008.2467172,-6.0,16.0,-80.0,-21.0,-15.0,-4.0,-2.0,0.0
1701540008.2467172,5.0,-15.0,64.0,27.0,5.0,0.0,-1.0,-2.0
1701540008.2911158,-10.0,94.0,-12.0,6.0,-27.0,-15.0,-12.0,-10.0
1701540008.2911158,11.0,-28.0,-30.0,-61.0,-9.0,1.0,2.0,5.0
1701540008.2911158,11.0,-24.0,63.0,64.0,15.0,7.0,5.0,7.0
1701540008.2911158,-8.0,-32.0,-3.0,-4.0,18.0,2.0,-2.0,-1.0
1701540008.2911158,-7.0,47.0,-38.0,-11.0,-11.0,-8.0,-8.0,-6.0
1701540008.2911158,-6.0,5.0,72.0,37.0,1.0,-3.0,-1.0,0.0
1701540008.2911158,8.0,-18.0,68.0,-121.0,-36.0,-2.0,2.0,2.0
1701540008.2911158,-6.0,2.0,-106.0,22.0,18.0,4.0,3.0,1.0
1701540008.3033676,7.0,51.0,69.0,62.0,0.0,-2.0,0.0,1.0
1701540008.3033676,0.0,22.0,0.0,14.0,15.0,4.0,0.0,2.0
1701540008.3080738,-15.0,-32.0,46.0,-22.0,-29.0,-11.0,-5.0,-7.0
1701540008.3080738,-2.0,34.0,51.0,55.0,-9.0,-3.0,-4.0,-4.0
1701540008.3498156,13.0,26.0,86.0,-11.0,4.0,6.0,8.0,9.0
1701540008.3498156,1.0,-76.0,-128.0,-28.0,8.0,2.0,1.0,1.0
1701540008.3498156,-7.0,8.0,108.0,44.0,-2.0,-4.0,-5.0,-4.0
1701540008.3498156,-4.0,-16.0,-35.0,-35.0,-2.0,-3.0,-3.0,-4.0
1701540008.3498156,-2.0,45.0,27.0,16.0,2.0,-1.0,1.0,2.0
1701540008.3498156,1.0,-17.0,117.0,29.0,-34.0,-12.0,-2.0,-3.0
1701540008.3498156,-14.0,23.0,-128.0,-55.0,29.0,6.0,-7.0,-8.0
1701540008.3498156,5.0,-8.0,75.0,24.0,7.0,2.0,0.0,0.0
1701540008.363413,-8.0,-115.0,-128.0,-89.0,-25.0,-4.0,-5.0,-5.0
1701540008.363413,-20.0,6.0,-59.0,-24.0,-25.0,-15.0,-12.0,-11.0
1701540008.3693626,4.0,-30.0,115.0,58.0,8.0,1.0,3.0,2.0
1701540008.3699353,4.0,-18.0,67.0,-13.0,-37.0,-14.0,3.0,2.0
1701540008.4072585,-5.0,-11.0,-49.0,-57.0,18.0,11.0,4.0,2.0
1701540008.4072585,8.0,-26.0,122.0,26.0,-21.0,-6.0,1.0,1.0
1701540008.4072585,-7.0,44.0,-88.0,14.0,10.0,-1.0,-8.0,-4.0
1701540008.4072585,-4.0,21.0,2.0,-4.0,2.0,0.0,-1.0,1.0
1701540008.4072585,-10.0,-6.0,-89.0,-25.0,-18.0,-8.0,-8.0,-10.0
1701540008.4072585,9.0,-29.0,68.0,9.0,2.0,1.0,1.0,2.0
1701540008.4072585,14.0,22.0,58.0,-22.0,-2.0,0.0,8.0,9.0
1701540008.4072585,-3.0,44.0,-42.0,16.0,12.0,7.0,2.0,-2.0
1701540008.4287682,2.0,118.0,-47.0,-22.0,3.0,2.0,0.0,1.0
1701540008.4287682,12.0,98.0,30.0,60.0,16.0,5.0,2.0,5.0
1701540008.4287682,-10.0,-54.0,-65.0,-91.0,6.0,7.0,-8.0,-6.0
1701540008.4287682,-8.0,35.0,36.0,4.0,-40.0,-26.0,-9.0,-4.0
1701540008.439887,-16.0,-114.0,-29.0,-57.0,-21.0,-13.0,10.0,-2.0
1701540008.439887,25.0,-128.0,46.0,83.0,76.0,45.0,18.0,16.0
1701540008.439887,-4.0,-37.0,14.0,-18.0,-22.0,-11.0,2.0,3.0
1701540008.439887,12.0,23.0,6.0,33.0,19.0,11.0,7.0,4.0
1701540008.4611466,-2.0,32.0,111.0,-37.0,-36.0,-5.0,-12.0,-4.0
1701540008.4611466,7.0,13.0,36.0,117.0,57.0,8.0,1.0,3.0
1701540008.461615,4.0,42.0,-65.0,-23.0,-4.0,-25.0,-25.0,7.0
1701540008.461615,-11.0,40.0,-30.0,-22.0,1.0,12.0,17.0,-14.0
1701540008.5115268,4.0,-37.0,2.0,16.0,15.0,37.0,11.0,1.0
1701540008.5115268,4.0,-63.0,69.0,-24.0,-17.0,-26.0,4.0,9.0
1701540008.5115268,6.0,29.0,33.0,40.0,36.0,-16.0,-73.0,-19.0
1701540008.512526,-17.0,-45.0,13.0,-29.0,-20.0,-6.0,-39.0,-1.0
1701540008.512526,9.0,-59.0,2.0,50.0,7.0,20.0,89.0,15.0
1701540008.512526,-12.0,-51.0,-128.0,-50.0,0.0,16.0,-15.0,-13.0
1701540008.512526,-1.0,-93.0,114.0,40.0,-35.0,-71.0,12.0,-5.0
1701540008.512526,6.0,-36.0,70.0,5.0,-1.0,47.0,45.0,6.0
1701540008.5140007,-11.0,71.0,-14.0,29.0,26.0,3.0,-43.0,-17.0
1701540008.5140007,-1.0,40.0,44.0,-80.0,-24.0,-7.0,-2.0,5.0
1701540008.5276978,-9.0,78.0,-24.0,15.0,-29.0,-58.0,-45.0,-6.0
1701540008.5276978,-3.0,50.0,34.0,-12.0,5.0,-55.0,-42.0,-7.0
1701540008.5799217,3.0,80.0,9.0,21.0,1.0,31.0,19.0,8.0
1701540008.5799217,2.0,86.0,-5.0,20.0,-5.0,-3.0,27.0,2.0
1701540008.5799217,-2.0,106.0,-9.0,27.0,20.0,-29.0,-86.0,5.0
1701540008.5799217,-19.0,46.0,-47.0,-79.0,-17.0,-41.0,-43.0,-17.0
1701540008.583221,-11.0,-82.0,39.0,18.0,-11.0,66.0,82.0,3.0
1701540008.583221,19.0,-45.0,-9.0,-9.0,-7.0,10.0,46.0,9.0
1701540008.583221,30.0,-73.0,-70.0,-43.0,4.0,-22.0,-43.0,9.0
1701540008.583221,-80.0,64.0,-122.0,-2.0,-8.0,-104.0,-92.0,-40.0
1701540008.583221,30.0,-69.0,47.0,19.0,14.0,30.0,24.0,51.0
1701540008.583221,3.0,-24.0,-16.0,2.0,6.0,30.0,12.0,8.0
1701540008.5879972,2.0,-128.0,-9.0,-10.0,0.0,42.0,15.0,-3.0
1701540008.5879972,12.0,-24.0,-40.0,-11.0,-2.0,-74.0,-127.0,3.0
1701540008.6133363,-16.0,36.0,7.0,14.0,-4.0,-74.0,-117.0,-32.0
1701540008.6133363,-3.0,80.0,36.0,-9.0,-29.0,-43.0,24.0,-33.0
1701540008.6133363,4.0,-70.0,-86.0,-76.0,16.0,109.0,127.0,62.0
1701540008.6133363,26.0,-33.0,103.0,24.0,2.0,-1.0,32.0,-7.0
1701540008.6184464,-42.0,-31.0,95.0,21.0,19.0,-9.0,-40.0,-12.0
1701540008.6184464,-12.0,1.0,-32.0,-5.0,-2.0,-5.0,14.0,-5.0
1701540008.6184464,35.0,-3.0,55.0,2.0,-16.0,-18.0,50.0,-10.0
1701540008.6184464,9.0,-77.0,-92.0,-27.0,8.0,70.0,86.0,14.0
1701540008.674084,26.0,30.0,102.0,49.0,17.0,28.0,54.0,10.0
1701540008.674084,-46.0,-10.0,-76.0,-20.0,-12.0,-75.0,-128.0,-45.0
1701540008.675083,-21.0,52.0,43.0,2.0,-19.0,-91.0,22.0,-36.0
1701540008.675083,24.0,-17.0,-41.0,14.0,26.0,118.0,127.0,32.0
1701540008.675083,12.0,71.0,-49.0,-5.0,-9.0,-31.0,-89.0,12.0
1701540008.675083,-8.0,33.0,67.0,13.0,5.0,-6.0,-77.0,-10.0
1701540008.675083,42.0,119.0,19.0,7.0,-19.0,-46.0,-69.0,20.0
1701540008.675083,11.0,-42.0,15.0,-6.0,8.0,84.0,57.0,55.0
1701540008.6855268,33.0,-24.0,37.0,21.0,30.0,-35.0,-25.0,6.0
1701540008.6855268,-43.0,10.0,56.0,8.0,-13.0,-60.0,-55.0,-39.0
1701540008.6859527,44.0,-77.0,49.0,-17.0,-17.0,-8.0,35.0,-13.0
1701540008.6859527,-80.0,33.0,27.0,14.0,10.0,37.0,64.0,-28.0
1701540008.7313833,64.0,-55.0,-20.0,-18.0,-16.0,-70.0,-65.0,-19.0
1701540008.7313833,-20.0,-85.0,-18.0,-6.0,-5.0,-60.0,-25.0,51.0
1701540008.7313833,74.0,12.0,50.0,28.0,5.0,-1.0,-26.0,6.0
1701540008.7313833,-5.0,14.0,-92.0,-22.0,-17.0,30.0,21.0,-55.0
1701540008.7313833,-27.0,23.0,-1.0,-2.0,4.0,55.0,116.0,80.0
1701540008.7313833,39.0,-26.0,-22.0,-9.0,3.0,-42.0,6.0,-6.0
1701540008.7336543,-23.0,-1.0,-10.0,-2.0,-3.0,-64.0,-75.0,78.0
1701540008.7336543,14.0,68.0,26.0,10.0,6.0,49.0,67.0,-43.0
1701540008.745056,-26.0,-97.0,-44.0,-1.0,-2.0,-54.0,-128.0,-86.0
1701540008.745056,67.0,88.0,2.0,-12.0,-1.0,43.0,18.0,37.0
1701540008.7464743,-78.0,25.0,13.0,3.0,9.0,66.0,6.0,16.0
1701540008.7464743,-7.0,-125.0,22.0,5.0,-11.0,-37.0,-24.0,22.0
1701540008.7918036,-6.0,94.0,-5.0,1.0,-2.0,-30.0,-18.0,-21.0
1701540008.7918036,-33.0,-99.0,-81.0,-28.0,-12.0,86.0,113.0,-9.0
1701540008.7918036,36.0,-77.0,44.0,19.0,28.0,127.0,30.0,-48.0
1701540008.7918036,27.0,-6.0,-4.0,-11.0,-22.0,-128.0,-128.0,-12.0
1701540008.7928047,44.0,-44.0,2.0,0.0,10.0,107.0,127.0,62.0
1701540008.7928047,25.0,18.0,-2.0,-1.0,4.0,-15.0,-4.0,-27.0
1701540008.7928047,-53.0,31.0,13.0,1.0,-3.0,-63.0,-60.0,-76.0
1701540008.7928047,16.0,-1.0,-10.0,0.0,-5.0,-38.0,-58.0,-2.0
1701540008.8044887,32.0,24.0,-16.0,-19.0,-30.0,-67.0,29.0,14.0
1701540008.8044887,-6.0,19.0,5.0,4.0,12.0,29.0,-68.0,-21.0
1701540008.8044887,5.0,54.0,-14.0,-7.0,-11.0,-35.0,7.0,-41.0
1701540008.8044887,51.0,-25.0,18.0,4.0,10.0,44.0,-36.0,13.0
1701540008.853746,-78.0,38.0,-9.0,-1.0,-7.0,-58.0,-42.0,-21.0
1701540008.853746,-4.0,25.0,-15.0,-11.0,-14.0,-44.0,-28.0,55.0
1701540008.853746,-65.0,-31.0,3.0,16.0,16.0,54.0,120.0,-81.0
1701540008.853746,29.0,33.0,15.0,-7.0,-4.0,-34.0,11.0,37.0
1701540008.853746,-53.0,-15.0,15.0,0.0,-7.0,5.0,-60.0,-72.0
1701540008.853746,-1.0,-104.0,-33.0,-7.0,11.0,84.0,73.0,-29.0
1701540008.853746,7.0,-1.0,40.0,18.0,2.0,-37.0,-2.0,-3.0
1701540008.853746,4.0,82.0,-13.0,-9.0,-23.0,-123.0,-107.0,34.0
1701540008.8954418,22.0,-58.0,-4.0,1.0,8.0,97.0,99.0,-14.0
1701540008.8954418,-47.0,-20.0,12.0,3.0,9.0,-13.0,1.0,-8.0
1701540008.8954418,-51.0,28.0,-23.0,-22.0,-12.0,-32.0,-47.0,-32.0
1701540008.8954418,79.0,-54.0,19.0,2.0,5.0,8.0,-38.0,-23.0
1701540008.898009,16.0,14.0,-14.0,-5.0,-10.0,-92.0,-95.0,-23.0
1701540008.898009,115.0,27.0,-8.0,11.0,3.0,-11.0,-50.0,83.0
1701540008.898009,41.0,2.0,10.0,10.0,11.0,109.0,127.0,120.0
1701540008.898009,-78.0,43.0,-7.0,-5.0,-5.0,-16.0,-52.0,-78.0
1701540008.8991218,-49.0,86.0,-10.0,-5.0,-20.0,-81.0,-86.0,-39.0
1701540008.8991218,-32.0,-20.0,13.0,9.0,9.0,3.0,12.0,-32.0
1701540008.8991218,46.0,13.0,-8.0,4.0,9.0,-22.0,6.0,95.0
1701540008.9039536,-11.0,10.0,1.0,-8.0,2.0,0.0,52.0,15.0
1701540008.9466872,73.0,58.0,-12.0,-3.0,1.0,47.0,-3.0,-16.0
1701540008.9476862,-44.0,20.0,-9.0,-12.0,-5.0,-18.0,11.0,-52.0
1701540008.9582717,5.0,-3.0,-7.0,0.0,-4.0,2.0,-18.0,-16.0
1701540008.9582717,-21.0,-18.0,17.0,20.0,14.0,16.0,1.0,-5.0
1701540008.96504,-30.0,2.0,-16.0,-17.0,-13.0,-22.0,-1.0,103.0
1701540008.96504,28.0,1.0,-2.0,-3.0,-5.0,-13.0,-16.0,-11.0
1701540008.96504,32.0,-19.0,-5.0,3.0,4.0,7.0,-97.0,7.0
1701540008.96504,-21.0,-55.0,12.0,9.0,10.0,40.0,15.0,-27.0
1701540008.96504,-30.0,-1.0,-11.0,-12.0,-8.0,-23.0,-11.0,26.0
1701540008.96504,-9.0,-5.0,-4.0,-6.0,-5.0,16.0,23.0,12.0
1701540008.96504,-65.0,-15.0,2.0,-5.0,-8.0,-37.0,-59.0,-32.0
1701540008.96504,7.0,-15.0,15.0,9.0,11.0,30.0,33.0,-10.0
1701540009.019796,72.0,-5.0,5.0,11.0,9.0,0.0,15.0,14.0
1701540009.019796,-8.0,28.0,1.0,0.0,1.0,-6.0,14.0,4.0
1701540009.019796,-21.0,-5.0,-10.0,-5.0,2.0,5.0,-1.0,-13.0
1701540009.0207944,-11.0,22.0,-9.0,-4.0,-6.0,-5.0,6.0,21.0
1701540009.0207944,-23.0,-32.0,2.0,1.0,-2.0,1.0,-4.0,-7.0
1701540009.0207944,-9.0,-9.0,-3.0,-6.0,-1.0,2.0,2.0,-17.0
1701540009.0207944,7.0,36.0,-3.0,-1.0,-5.0,-5.0,14.0,20.0
1701540009.0207944,10.0,-21.0,0.0,-3.0,2.0,11.0,-13.0,-7.0
1701540009.0207944,-50.0,6.0,8.0,3.0,3.0,-25.0,17.0,-9.0
1701540009.0207944,-31.0,10.0,4.0,5.0,0.0,-5.0,-9.0,8.0
1701540009.0207944,-5.0,-25.0,-8.0,-15.0,-10.0,17.0,1.0,-5.0
1701540009.0207944,-6.0,-4.0,-3.0,-8.0,0.0,19.0,47.0,63.0
1701540009.0458875,-1.0,-8.0,-11.0,-5.0,4.0,3.0,0.0,-53.0
1701540009.0458875,20.0,22.0,0.0,1.0,-3.0,-18.0,-11.0,0.0
1701540009.0462801,0.0,-39.0,0.0,3.0,1.0,6.0,-47.0,-2.0
1701540009.0462801,-61.0,11.0,-4.0,-6.0,-7.0,-10.0,-24.0,-20.0
1701540009.0962815,-29.0,-26.0,9.0,6.0,7.0,11.0,35.0,-7.0
1701540009.0962815,30.0,21.0,5.0,2.0,-4.0,4.0,23.0,28.0
1701540009.0962815,-24.0,20.0,-11.0,-4.0,1.0,-2.0,12.0,13.0
1701540009.0962815,20.0,-13.0,0.0,6.0,2.0,-6.0,6.0,-18.0
1701540009.0997899,27.0,-18.0,-6.0,-10.0,-1.0,5.0,-1.0,19.0
1701540009.0997899,-6.0,14.0,2.0,-3.0,-3.0,1.0,1.0,9.0
1701540009.102123,0.0,26.0,7.0,7.0,0.0,-3.0,14.0,-8.0
1701540009.102123,3.0,23.0,4.0,2.0,4.0,-1.0,-14.0,-10.0
1701540009.1203616,16.0,-29.0,-9.0,2.0,-2.0,1.0,-6.0,-8.0
1701540009.1203616,13.0,11.0,9.0,11.0,4.0,-10.0,-22.0,6.0
1701540009.1203616,-6.0,-2.0,6.0,-10.0,-3.0,-3.0,-3.0,-8.0
1701540009.1203616,33.0,-23.0,-18.0,-7.0,-1.0,6.0,29.0,11.0
1701540009.1213899,66.0,36.0,15.0,14.0,8.0,-2.0,-15.0,-26.0
1701540009.1213899,-19.0,-35.0,-39.0,-15.0,-9.0,-5.0,7.0,35.0
1701540009.1213899,21.0,5.0,21.0,5.0,3.0,5.0,0.0,-13.0
1701540009.1213899,-40.0,3.0,-1.0,-12.0,-8.0,-1.0,4.0,7.0
1701540009.1433396,-1.0,-13.0,14.0,0.0,2.0,2.0,-7.0,-1.0
1701540009.1433396,-4.0,11.0,-6.0,6.0,2.0,-5.0,-7.0,-4.0
1701540009.1554816,14.0,-14.0,-4.0,-11.0,-4.0,17.0,24.0,2.0
1701540009.1564825,-1.0,-1.0,23.0,-11.0,-7.0,-22.0,-20.0,14.0
1701540009.1855412,-15.0,-35.0,6.0,18.0,6.0,-3.0,-6.0,13.0
1701540009.1855412,7.0,30.0,-33.0,-5.0,-6.0,-4.0,-4.0,-26.0
1701540009.1855412,7.0,-23.0,-48.0,-5.0,-4.0,-7.0,0.0,8.0
1701540009.1865401,50.0,39.0,-2.0,11.0,4.0,0.0,-10.0,1.0
1701540009.1865401,-33.0,-44.0,28.0,-1.0,6.0,8.0,20.0,10.0
1701540009.1865401,-7.0,-33.0,71.0,5.0,4.0,9.0,3.0,-11.0
1701540009.1865401,3.0,34.0,-7.0,-6.0,-6.0,-11.0,-26.0,-32.0
1701540009.1865401,-16.0,-33.0,-7.0,-15.0,-2.0,7.0,24.0,-15.0
1701540009.203748,87.0,0.0,82.0,5.0,1.0,-5.0,-4.0,4.0
1701540009.203748,-5.0,22.0,-18.0,-2.0,-1.0,-2.0,-11.0,-12.0
1701540009.2176633,-26.0,-26.0,60.0,22.0,9.0,0.0,-9.0,-18.0
1701540009.2176633,1.0,-17.0,5.0,10.0,-1.0,-5.0,-7.0,-11.0
1701540009.2492108,-28.0,26.0,-61.0,-31.0,-16.0,-10.0,-11.0,-11.0
1701540009.2492108,-3.0,-19.0,25.0,-8.0,-5.0,-2.0,-5.0,-1.0
1701540009.2492108,14.0,9.0,14.0,0.0,-5.0,-6.0,4.0,9.0
1701540009.2492108,31.0,30.0,12.0,24.0,6.0,2.0,1.0,-16.0
1701540009.2492108,-17.0,-36.0,2.0,7.0,8.0,13.0,8.0,-1.0
1701540009.2492108,3.0,-14.0,-77.0,-11.0,-8.0,-6.0,-8.0,7.0
1701540009.2492108,-22.0,80.0,26.0,-8.0,-7.0,-9.0,-1.0,-7.0
1701540009.2492108,-12.0,-13.0,-46.0,-5.0,-1.0,4.0,-1.0,16.0
1701540009.2913635,-2.0,23.0,33.0,14.0,2.0,-3.0,-5.0,3.0
1701540009.2913635,-17.0,18.0,-24.0,-34.0,-15.0,-6.0,-2.0,-7.0
1701540009.2913635,17.0,-4.0,60.0,13.0,5.0,5.0,6.0,6.0
1701540009.2913635,-18.0,-27.0,-31.0,-4.0,-3.0,-2.0,-3.0,0.0
1701540009.295361,14.0,1.0,8.0,3.0,2.0,1.0,0.0,9.0
1701540009.295361,11.0,-7.0,65.0,18.0,9.0,3.0,-5.0,-3.0
1701540009.295361,-23.0,-27.0,-38.0,6.0,1.0,1.0,4.0,0.0
1701540009.2963612,-3.0,-35.0,32.0,-31.0,-16.0,-4.0,-4.0,8.0
1701540009.3017535,-28.0,55.0,-67.0,-21.0,-10.0,-11.0,-6.0,9.0
1701540009.3017535,-4.0,12.0,19.0,-10.0,-6.0,-4.0,-7.0,-9.0
1701540009.3088613,-2.0,-6.0,64.0,13.0,10.0,4.0,2.0,4.0
1701540009.3088613,6.0,-26.0,18.0,2.0,10.0,10.0,13.0,20.0
1701540009.3256133,3.0,1.0,6.0,-16.0,-18.0,-6.0,-8.0,-40.0
1701540009.326615,21.0,16.0,-41.0,2.0,2.0,-1.0,1.0,5.0
1701540009.340993,13.0,-10.0,60.0,27.0,10.0,3.0,0.0,7.0
1701540009.340993,-22.0,3.0,63.0,-35.0,-13.0,-4.0,-1.0,-3.0
1701540009.366564,-6.0,1.0,110.0,23.0,9.0,5.0,8.0,10.0
1701540009.366564,-21.0,30.0,-78.0,-31.0,-18.0,-13.0,-10.0,6.0
1701540009.366564,14.0,-4.0,8.0,11.0,8.0,5.0,3.0,-3.0
1701540009.366564,-3.0,-1.0,1.0,2.0,2.0,-1.0,-3.0,2.0
1701540009.3704693,-28.0,-3.0,-90.0,3.0,-1.0,-2.0,-1.0,12.0
1701540009.3708959,23.0,-29.0,107.0,12.0,7.0,6.0,1.0,-17.0
1701540009.3813977,-15.0,-8.0,4.0,-30.0,-25.0,-12.0,-8.0,-1.0
1701540009.382395,9.0,21.0,-60.0,37.0,30.0,9.0,6.0,5.0
1701540009.3988183,-18.0,-59.0,-22.0,-30.0,-3.0,-1.0,-1.0,0.0
1701540009.399818,-11.0,-15.0,-62.0,46.0,0.0,-6.0,-5.0,12.0
1701540009.399818,8.0,-6.0,42.0,-16.0,-4.0,0.0,-5.0,-7.0
1701540009.399818,80.0,34.0,84.0,12.0,-2.0,1.0,5.0,-2.0
1701540009.400842,-41.0,-1.0,-96.0,-60.0,2.0,9.0,4.0,-13.0
1701540009.400842,3.0,-42.0,1.0,50.0,11.0,3.0,8.0,-9.0
1701540009.4062262,-23.0,-15.0,-119.0,-60.0,-10.0,-5.0,-5.0,17.0
1701540009.4062262,0.0,20.0,80.0,52.0,-1.0,-6.0,-4.0,-4.0
1701540009.427695,0.0,0.0,72.0,-6.0,-3.0,-7.0,-12.0,-1.0
1701540009.427695,0.0,-24.0,27.0,28.0,6.0,6.0,6.0,6.0
1701540009.4286687,-6.0,30.0,-49.0,-24.0,2.0,6.0,10.0,17.0
1701540009.4286687,-26.0,8.0,-7.0,2.0,-18.0,-8.0,-2.0,1.0
1701540009.4425828,9.0,16.0,56.0,85.0,27.0,-2.0,-5.0,10.0
1701540009.4425828,1.0,-15.0,24.0,-42.0,-6.0,0.0,1.0,-2.0
1701540009.4446416,-12.0,-13.0,-128.0,45.0,38.0,1.0,-4.0,-7.0
1701540009.4446416,-35.0,-30.0,-21.0,18.0,4.0,1.0,0.0,-14.0
1701540009.4659464,29.0,19.0,103.0,55.0,-5.0,-2.0,0.0,-10.0
1701540009.4669542,18.0,-15.0,64.0,-73.0,-10.0,1.0,-7.0,10.0
1701540009.4669542,-15.0,15.0,-79.0,-21.0,-20.0,-7.0,6.0,2.0
1701540009.4669542,63.0,-10.0,11.0,-45.0,3.0,15.0,20.0,55.0
1701540009.5385995,33.0,3.0,19.0,35.0,-13.0,-7.0,14.0,47.0
1701540009.5385995,-13.0,6.0,-79.0,6.0,3.0,0.0,-16.0,-41.0
1701540009.5385995,7.0,-14.0,-8.0,-55.0,-17.0,-5.0,-11.0,-57.0
1701540009.5385995,-25.0,-5.0,45.0,58.0,12.0,-1.0,-17.0,-27.0
1701540009.574553,12.0,-5.0,-49.0,-23.0,0.0,6.0,28.0,37.0
1701540009.574553,7.0,29.0,34.0,-16.0,-14.0,-2.0,31.0,34.0
1701540009.574553,0.0,-8.0,29.0,45.0,8.0,-3.0,-38.0,-44.0
1701540009.574553,-62.0,-23.0,-32.0,8.0,6.0,-8.0,-34.0,-22.0
1701540009.577359,-11.0,3.0,-41.0,-60.0,-16.0,-7.0,-14.0,-14.0
1701540009.577359,-24.0,7.0,-80.0,-64.0,0.0,-3.0,27.0,22.0
1701540009.577359,19.0,7.0,64.0,-28.0,-24.0,-6.0,-27.0,20.0
1701540009.577359,-3.0,19.0,1.0,86.0,18.0,0.0,-10.0,-12.0
1701540009.5925663,-16.0,-5.0,-64.0,-44.0,-12.0,-7.0,-6.0,-27.0
1701540009.5925663,38.0,9.0,68.0,106.0,13.0,5.0,-6.0,-18.0
1701540009.5925663,40.0,4.0,35.0,-82.0,-10.0,1.0,17.0,9.0
1701540009.5925663,1.0,-1.0,-10.0,-41.0,-20.0,-7.0,9.0,21.0
1701540009.5925663,-19.0,4.0,25.0,5.0,5.0,7.0,-5.0,-8.0
1701540009.5925663,-18.0,8.0,-19.0,0.0,4.0,-1.0,10.0,23.0
1701540009.5925663,11.0,-26.0,44.0,65.0,11.0,6.0,20.0,7.0
1701540009.5925663,0.0,16.0,-29.0,-46.0,-10.0,-8.0,-8.0,9.0
1701540009.5925663,-6.0,-1.0,10.0,1.0,3.0,3.0,5.0,-12.0
1701540009.5925663,-22.0,-15.0,6.0,5.0,-5.0,-9.0,-17.0,-8.0
1701540009.5925663,-17.0,-5.0,31.0,43.0,15.0,3.0,0.0,2.0
1701540009.5925663,2.0,2.0,-60.0,-118.0,-24.0,0.0,13.0,4.0
1701540009.6424665,1.0,1.0,-23.0,16.0,-4.0,-2.0,12.0,16.0
1701540009.6424665,-17.0,-16.0,-17.0,29.0,19.0,-3.0,-62.0,-51.0
1701540009.6424665,-37.0,-32.0,24.0,36.0,3.0,-1.0,11.0,5.0
1701540009.6424665,19.0,-14.0,-29.0,-18.0,-13.0,-1.0,22.0,11.0
1701540009.6424665,-7.0,10.0,-2.0,-40.0,-22.0,-10.0,-13.0,-16.0
1701540009.6424665,7.0,-2.0,26.0,32.0,28.0,7.0,15.0,23.0
1701540009.6424665,-11.0,16.0,-28.0,6.0,1.0,-2.0,-9.0,19.0
1701540009.6424665,9.0,-7.0,38.0,54.0,1.0,-10.0,-41.0,-64.0
1701540009.6435552,21.0,-19.0,-37.0,-52.0,-18.0,-8.0,-2.0,9.0
1701540009.6435552,-11.0,7.0,-3.0,-12.0,-9.0,-2.0,9.0,15.0
1701540009.6435552,6.0,-4.0,-19.0,-21.0,-1.0,8.0,26.0,16.0
1701540009.6435552,-2.0,5.0,-12.0,22.0,8.0,3.0,8.0,-11.0
1701540009.6973069,-7.0,2.0,37.0,27.0,15.0,1.0,-15.0,-6.0
1701540009.6973069,7.0,-4.0,17.0,-2.0,-7.0,-4.0,-1.0,-13.0
1701540009.6973069,22.0,8.0,6.0,6.0,-1.0,-4.0,7.0,-5.0
1701540009.6973069,-27.0,2.0,-15.0,-51.0,-12.0,-1.0,-4.0,1.0
1701540009.6973069,-9.0,7.0,-15.0,34.0,17.0,5.0,9.0,-15.0
1701540009.6973069,3.0,-2.0,-4.0,-23.0,-11.0,-5.0,-20.0,4.0
1701540009.6973069,10.0,13.0,-3.0,10.0,-3.0,7.0,37.0,25.0
1701540009.6973069,-5.0,14.0,2.0,1.0,2.0,4.0,3.0,-15.0
1701540009.7245476,-5.0,-3.0,-8.0,-11.0,-5.0,-15.0,-70.0,-27.0
1701540009.7245476,-3.0,-21.0,6.0,-14.0,-9.0,-10.0,-9.0,-14.0
1701540009.7323895,-24.0,-12.0,-9.0,11.0,-3.0,-10.0,-24.0,29.0
1701540009.7323895,30.0,-6.0,-5.0,-4.0,3.0,7.0,25.0,13.0
1701540009.7353885,11.0,-9.0,2.0,8.0,7.0,12.0,26.0,5.0
1701540009.7353885,-5.0,10.0,-6.0,-15.0,-4.0,0.0,-4.0,-10.0
1701540009.7353885,-5.0,-11.0,4.0,13.0,-2.0,-5.0,-3.0,-12.0
1701540009.7353885,-12.0,4.0,-5.0,11.0,13.0,1.0,8.0,20.0
1701540009.7364566,-9.0,-7.0,5.0,5.0,-2.0,1.0,-7.0,-17.0
1701540009.7364566,4.0,8.0,6.0,-9.0,-4.0,5.0,8.0,17.0
1701540009.7468245,3.0,3.0,-5.0,-15.0,-4.0,-6.0,-8.0,-12.0
1701540009.7468245,-2.0,-3.0,-6.0,14.0,-3.0,-11.0,-11.0,2.0
1701540009.8019822,-9.0,-5.0,-6.0,2.0,3.0,-2.0,-4.0,-9.0
1701540009.8019822,-42.0,-11.0,6.0,-7.0,-2.0,0.0,5.0,7.0
1701540009.8056161,19.0,-6.0,-5.0,-6.0,1.0,7.0,4.0,-17.0
1701540009.8056161,-6.0,-10.0,-4.0,-4.0,-5.0,-5.0,-10.0,-8.0
1701540009.8056161,-6.0,-13.0,1.0,0.0,-2.0,-4.0,2.0,9.0
1701540009.8056161,-11.0,-2.0,-1.0,0.0,0.0,3.0,10.0,-8.0
1701540009.8056161,-25.0,-5.0,1.0,-4.0,-8.0,-10.0,-17.0,-47.0
1701540009.8056161,40.0,21.0,6.0,4.0,9.0,11.0,30.0,25.0
1701540009.8056161,-11.0,-5.0,-1.0,4.0,0.0,-6.0,-14.0,-14.0
1701540009.8056161,13.0,-16.0,-12.0,-19.0,-10.0,-11.0,-28.0,-19.0
1701540009.8076353,-9.0,-3.0,-4.0,8.0,-2.0,-3.0,-9.0,-10.0
1701540009.8076353,-14.0,3.0,-3.0,-2.0,-1.0,4.0,13.0,13.0
1701540009.8462589,7.0,21.0,4.0,8.0,7.0,26.0,81.0,43.0
1701540009.8462589,4.0,2.0,0.0,-2.0,-5.0,-13.0,-58.0,-50.0
1701540009.8462589,-12.0,-34.0,1.0,-5.0,0.0,-21.0,-38.0,-2.0
1701540009.8462589,-9.0,-2.0,0.0,-4.0,-5.0,-6.0,-12.0,-17.0
1701540009.8472564,8.0,-2.0,-4.0,0.0,0.0,-3.0,-9.0,4.0
1701540009.8472564,-19.0,17.0,0.0,1.0,2.0,11.0,30.0,-6.0
1701540009.8482552,-38.0,19.0,-5.0,-2.0,2.0,11.0,41.0,41.0
1701540009.8482552,-57.0,-31.0,-1.0,-1.0,-2.0,-13.0,-45.0,-68.0
1701540009.8585932,-10.0,-9.0,3.0,2.0,2.0,-1.0,-19.0,-7.0
1701540009.8585932,26.0,-1.0,0.0,1.0,1.0,2.0,21.0,18.0
1701540009.868592,-19.0,13.0,-8.0,-3.0,-3.0,-8.0,1.0,-2.0
1701540009.8707712,17.0,9.0,-3.0,3.0,-2.0,2.0,-7.0,0.0
1701540009.9007456,10.0,-7.0,3.0,0.0,-1.0,0.0,-2.0,-8.0
1701540009.9007456,-28.0,-11.0,-4.0,-4.0,-4.0,-6.0,-4.0,30.0
1701540009.9007456,11.0,14.0,-1.0,0.0,-1.0,-26.0,-31.0,4.0
1701540009.9007456,5.0,4.0,-3.0,-6.0,-6.0,2.0,75.0,30.0
1701540009.9027662,-40.0,-21.0,-4.0,-1.0,1.0,30.0,-26.0,-71.0
1701540009.9027662,-48.0,-32.0,5.0,2.0,0.0,-2.0,-3.0,13.0
1701540009.9027662,-13.0,12.0,10.0,5.0,6.0,20.0,28.0,6.0
1701540009.9027662,31.0,9.0,-11.0,-9.0,-7.0,-30.0,-73.0,-9.0
1701540009.9617007,-1.0,20.0,1.0,4.0,-3.0,-17.0,75.0,51.0
1701540009.9617007,12.0,-11.0,0.0,1.0,1.0,10.0,-63.0,-30.0
1701540009.9617007,6.0,-3.0,-12.0,-10.0,-5.0,-6.0,-12.0,2.0
1701540009.9617007,-28.0,-3.0,9.0,-2.0,0.0,-1.0,-42.0,-19.0
1701540009.9627001,12.0,11.0,-2.0,3.0,0.0,-2.0,45.0,29.0
1701540009.9627001,1.0,2.0,-8.0,-6.0,-5.0,-4.0,10.0,18.0
1701540009.9627001,-10.0,-14.0,3.0,4.0,0.0,-3.0,-64.0,-75.0
1701540009.9627001,0.0,-1.0,-8.0,-4.0,3.0,9.0,5.0,35.0
1701540009.9627001,-66.0,-2.0,4.0,0.0,-1.0,-16.0,-38.0,14.0
1701540009.9627001,88.0,22.0,-1.0,-2.0,-8.0,-37.0,127.0,85.0
1701540009.9627001,38.0,25.0,-3.0,6.0,11.0,96.0,31.0,3.0
1701540009.9627001,-27.0,-79.0,10.0,0.0,4.0,-14.0,-59.0,-63.0
1701540010.0278664,-31.0,-12.0,3.0,-2.0,-1.0,-12.0,-6.0,-14.0
1701540010.0278664,-19.0,12.0,0.0,1.0,-2.0,-18.0,28.0,38.0
1701540010.0278664,40.0,30.0,1.0,1.0,-1.0,-17.0,42.0,20.0
1701540010.0278664,-2.0,30.0,-6.0,0.0,1.0,18.0,38.0,38.0
1701540010.030715,-21.0,-14.0,-2.0,-2.0,-1.0,0.0,-28.0,-14.0
1701540010.030715,1.0,10.0,1.0,-3.0,3.0,8.0,-14.0,-30.0
1701540010.030715,9.0,-22.0,-3.0,-6.0,-7.0,-10.0,0.0,-4.0
1701540010.030715,9.0,18.0,-1.0,1.0,-1.0,1.0,-8.0,5.0
1701540010.030715,59.0,9.0,13.0,2.0,3.0,-3.0,-7.0,8.0
1701540010.030715,12.0,10.0,-4.0,6.0,4.0,16.0,-23.0,-19.0
1701540010.030715,-14.0,-11.0,-1.0,-4.0,-3.0,-15.0,-6.0,-23.0
1701540010.0317132,30.0,23.0,-9.0,-5.0,-10.0,-56.0,-7.0,16.0
1701540010.0835946,-35.0,-28.0,-2.0,-4.0,2.0,62.0,26.0,18.0
1701540010.0835946,20.0,-6.0,8.0,0.0,-2.0,-6.0,2.0,-18.0
1701540010.0835946,43.0,-22.0,1.0,-6.0,2.0,20.0,-9.0,-28.0
1701540010.0835946,-26.0,-9.0,-11.0,-6.0,-7.0,-15.0,26.0,20.0
1701540010.0835946,51.0,27.0,3.0,0.0,-2.0,-19.0,-44.0,-5.0
1701540010.0835946,-20.0,8.0,6.0,-2.0,0.0,4.0,-20.0,-16.0
1701540010.0835946,-19.0,10.0,-1.0,0.0,-1.0,-29.0,-14.0,13.0
1701540010.0835946,-40.0,7.0,-4.0,0.0,2.0,13.0,31.0,-5.0
1701540010.0880759,8.0,-1.0,-8.0,-2.0,-2.0,-4.0,-3.0,-14.0
1701540010.0880759,3.0,-16.0,-4.0,-5.0,-4.0,3.0,-9.0,-6.0
1701540010.0943704,-64.0,-23.0,0.0,0.0,-3.0,-12.0,10.0,19.0
1701540010.0949185,-7.0,13.0,-11.0,-2.0,-2.0,-2.0,-17.0,7.0
1701540010.1276877,5.0,27.0,5.0,0.0,-1.0,1.0,-13.0,-26.0
1701540010.1276877,12.0,17.0,2.0,5.0,9.0,39.0,40.0,-7.0
1701540010.1276877,8.0,4.0,-6.0,-2.0,-3.0,1.0,0.0,13.0
1701540010.1276877,20.0,-12.0,-4.0,1.0,-1.0,2.0,-16.0,-3.0
1701540010.1276877,-46.0,-7.0,-2.0,-1.0,-4.0,-13.0,-9.0,-8.0
1701540010.1276877,5.0,-11.0,-5.0,-8.0,-10.0,-19.0,-14.0,-4.0
1701540010.1276877,11.0,10.0,6.0,6.0,4.0,6.0,2.0,9.0
1701540010.1276877,-25.0,-20.0,17.0,0.0,-2.0,1.0,-10.0,2.0
1701540010.1484473,37.0,-4.0,-46.0,-8.0,-4.0,-5.0,23.0,4.0
1701540010.1484473,-47.0,-25.0,-5.0,0.0,2.0,13.0,-7.0,-5.0
1701540010.1627357,5.0,-45.0,1.0,-2.0,-2.0,-8.0,3.0,7.0
1701540010.1627357,10.0,58.0,14.0,1.0,-2.0,-3.0,6.0,-5.0
1701540010.2014358,-9.0,-6.0,1.0,0.0,0.0,-5.0,3.0,12.0
1701540010.2014358,-1.0,-3.0,2.0,3.0,-1.0,-32.0,-56.0,-7.0
1701540010.2014358,22.0,47.0,-10.0,6.0,10.0,86.0,83.0,27.0
1701540010.2014358,-37.0,-46.0,-13.0,-8.0,-8.0,3.0,-16.0,6.0
1701540010.2014358,-17.0,-1.0,10.0,-5.0,-2.0,-10.0,-29.0,-22.0
1701540010.2014358,-5.0,9.0,-6.0,0.0,-1.0,-17.0,-15.0,-1.0
1701540010.2014358,-10.0,1.0,4.0,-3.0,-4.0,-31.0,-20.0,-15.0
1701540010.2014358,23.0,-5.0,0.0,5.0,7.0,17.0,32.0,-1.0
1701540010.2024417,11.0,-29.0,-3.0,2.0,0.0,-2.0,-2.0,18.0
1701540010.2024417,-13.0,0.0,5.0,-17.0,-8.0,-3.0,-5.0,-13.0
1701540010.2024417,6.0,27.0,-4.0,-4.0,-12.0,-16.0,-2.0,-1.0
1701540010.2024417,5.0,-16.0,-6.0,30.0,28.0,23.0,18.0,-1.0
1701540010.2448535,11.0,-2.0,-4.0,-7.0,-9.0,-18.0,-19.0,-4.0
1701540010.2448535,8.0,-5.0,63.0,13.0,-5.0,6.0,16.0,0.0
1701540010.2448535,-4.0,8.0,-52.0,-20.0,9.0,-6.0,-18.0,-13.0
1701540010.2448535,82.0,63.0,-22.0,-27.0,-18.0,0.0,22.0,5.0
1701540010.2448535,-89.0,-84.0,-19.0,-31.0,-29.0,-12.0,-13.0,-7.0
1701540010.245862,-7.0,6.0,42.0,72.0,50.0,16.0,4.0,1.0
1701540010.245862,-1.0,-24.0,-38.0,12.0,3.0,-6.0,0.0,5.0
