1701540648.7627125,5.0,9.0,-3.0,1.0,-2.0,-1.0,14.0,-9.0
1701540648.773094,4.0,-6.0,-12.0,6.0,1.0,3.0,9.0,13.0
1701540648.773094,14.0,-1.0,-8.0,1.0,-3.0,-6.0,-14.0,0.0
1701540648.773094,3.0,-3.0,-12.0,-26.0,-1.0,2.0,2.0,3.0
1701540648.8172884,-1.0,7.0,21.0,15.0,0.0,-3.0,-4.0,0.0
1701540648.8172884,-2.0,-13.0,26.0,-22.0,-6.0,-7.0,-11.0,-6.0
1701540648.8172884,-3.0,-3.0,-43.0,-2.0,1.0,1.0,-2.0,-7.0
1701540648.8172884,-55.0,-29.0,9.0,0.0,1.0,3.0,13.0,3.0
1701540648.8172884,-11.0,-12.0,7.0,17.0,-1.0,-3.0,-7.0,-4.0
1701540648.8172884,4.0,-4.0,-8.0,-23.0,0.0,-2.0,-3.0,-8.0
1701540648.8172884,2.0,2.0,1.0,-3.0,-7.0,-10.0,-28.0,-2.0
1701540648.8172884,9.0,16.0,-3.0,-1.0,-2.0,2.0,13.0,12.0
1701540648.8284247,4.0,3.0,-18.0,10.0,1.0,2.0,6.0,-22.0
1701540648.8284247,-9.0,2.0,-17.0,0.0,0.0,1.0,-10.0,-12.0
1701540648.8284247,-22.0,3.0,6.0,-7.0,2.0,0.0,4.0,2.0
1701540648.8284247,21.0,8.0,-3.0,18.0,0.0,-2.0,-3.0,-1.0
1701540648.8665645,-3.0,-18.0,-3.0,-19.0,-4.0,-4.0,-11.0,3.0
1701540648.8665645,10.0,3.0,-8.0,2.0,-1.0,-1.0,7.0,4.0
1701540648.8665645,-3.0,3.0,6.0,3.0,1.0,0.0,-2.0,-4.0
1701540648.8665645,7.0,-6.0,1.0,9.0,2.0,0.0,2.0,6.0
1701540648.8675654,0.0,-5.0,20.0,3.0,2.0,-3.0,-1.0,2.0
1701540648.8675654,20.0,9.0,6.0,1.0,-7.0,-3.0,-14.0,-1.0
1701540648.8675654,-18.0,2.0,14.0,-6.0,-3.0,-1.0,45.0,0.0
1701540648.8675654,8.0,-4.0,-4.0,-7.0,2.0,2.0,-7.0,6.0
1701540648.8875675,7.0,9.0,0.0,1.0,0.0,-2.0,-12.0,-7.0
1701540648.8875675,-6.0,-1.0,-6.0,22.0,2.0,3.0,19.0,8.0
1701540648.8875675,-8.0,-3.0,-5.0,0.0,7.0,4.0,-23.0,-22.0
1701540648.8875675,17.0,6.0,17.0,-24.0,-12.0,-10.0,-5.0,-17.0
1701540648.9243193,-14.0,-15.0,-22.0,-6.0,-2.0,-3.0,0.0,-18.0
1701540648.9243193,-10.0,-8.0,3.0,4.0,-1.0,-3.0,-36.0,-8.0
1701540648.9243193,6.0,8.0,-2.0,12.0,-1.0,-1.0,8.0,14.0
1701540648.9243193,-10.0,0.0,19.0,-1.0,3.0,3.0,17.0,10.0
1701540648.9263535,5.0,2.0,-17.0,-3.0,-4.0,-1.0,-2.0,4.0
1701540648.9263535,-17.0,-1.0,-15.0,-13.0,-2.0,-6.0,-1.0,-9.0
1701540648.9263535,-2.0,-5.0,12.0,-1.0,-4.0,-7.0,-20.0,-2.0
1701540648.9263535,-15.0,-1.0,6.0,-6.0,-1.0,3.0,-3.0,-2.0
1701540649.0050337,9.0,0.0,-20.0,-2.0,-2.0,4.0,25.0,18.0
1701540649.006036,13.0,-1.0,11.0,-10.0,-1.0,-1.0,-2.0,-4.0
1701540649.0090709,13.0,4.0,-2.0,-1.0,-1.0,-11.0,12.0,19.0
1701540649.0090709,9.0,-14.0,-15.0,8.0,-1.0,5.0,-12.0,-7.0
1701540649.0090709,-1.0,6.0,2.0,-11.0,0.0,-2.0,2.0,7.0
1701540649.0090709,-11.0,1.0,-15.0,17.0,2.0,2.0,3.0,-15.0
1701540649.0090709,5.0,-2.0,-15.0,-53.0,-4.0,-2.0,-6.0,2.0
1701540649.0090709,8.0,4.0,-5.0,9.0,0.0,-6.0,-41.0,-1.0
1701540649.0090709,1.0,13.0,-4.0,4.0,1.0,5.0,58.0,39.0
1701540649.0090709,4.0,-9.0,-5.0,-6.0,-4.0,-5.0,-22.0,-50.0
1701540649.0090709,3.0,-3.0,15.0,17.0,1.0,-5.0,-21.0,-5.0
1701540649.0090709,-2.0,1.0,-9.0,1.0,1.0,1.0,13.0,6.0
1701540649.0452924,-4.0,-1.0,-34.0,-12.0,-2.0,1.0,-7.0,2.0
1701540649.0452924,3.0,12.0,3.0,-6.0,-5.0,1.0,23.0,19.0
1701540649.0452924,-14.0,-11.0,-4.0,37.0,2.0,6.0,13.0,-13.0
1701540649.0452924,6.0,2.0,-21.0,-73.0,-6.0,-2.0,3.0,-3.0
1701540649.0499332,2.0,-4.0,11.0,11.0,-4.0,-5.0,-16.0,-7.0
1701540649.0499332,-5.0,-8.0,-6.0,-6.0,2.0,0.0,4.0,7.0
1701540649.0499332,8.0,1.0,-2.0,11.0,3.0,1.0,-16.0,-8.0
1701540649.0499332,-2.0,5.0,24.0,21.0,3.0,2.0,24.0,15.0
1701540649.0520065,-4.0,-14.0,15.0,-6.0,-5.0,-5.0,-48.0,-23.0
1701540649.0520065,11.0,2.0,-12.0,-12.0,0.0,3.0,35.0,18.0
1701540649.0540204,2.0,1.0,-5.0,-2.0,-3.0,-1.0,-11.0,15.0
1701540649.0540204,-18.0,-2.0,9.0,7.0,-1.0,-7.0,7.0,-9.0
1701540649.081925,9.0,-5.0,30.0,2.0,-1.0,2.0,-1.0,0.0
1701540649.081925,1.0,4.0,-12.0,3.0,1.0,1.0,10.0,12.0
1701540649.081925,0.0,-3.0,2.0,-4.0,2.0,1.0,-9.0,2.0
1701540649.081925,35.0,4.0,-14.0,4.0,-2.0,0.0,8.0,17.0
1701540649.0891871,-33.0,-9.0,-7.0,10.0,0.0,-11.0,-32.0,-34.0
1701540649.0891871,-27.0,-2.0,-2.0,-34.0,-1.0,8.0,5.0,8.0
1701540649.1018069,7.0,-1.0,4.0,-10.0,-4.0,1.0,10.0,-2.0
1701540649.1018069,13.0,-1.0,-15.0,18.0,2.0,-1.0,-24.0,11.0
1701540649.1021514,10.0,8.0,-5.0,-30.0,-4.0,-2.0,68.0,5.0
1701540649.1021514,-7.0,-16.0,5.0,16.0,-1.0,-9.0,-40.0,-21.0
1701540649.1144001,-1.0,1.0,-7.0,-3.0,-1.0,1.0,9.0,5.0
1701540649.1144001,-17.0,6.0,-8.0,-1.0,-3.0,-1.0,-10.0,-29.0
1701540649.155818,-2.0,1.0,-2.0,10.0,5.0,-1.0,-17.0,6.0
1701540649.155818,6.0,0.0,12.0,9.0,-2.0,-4.0,2.0,6.0
1701540649.155818,-39.0,-3.0,-10.0,-13.0,-4.0,-2.0,-13.0,-8.0
1701540649.155818,-8.0,-11.0,-25.0,-13.0,-1.0,8.0,31.0,12.0
1701540649.1594236,2.0,-4.0,2.0,2.0,0.0,0.0,-14.0,-4.0
1701540649.1594236,6.0,-3.0,-10.0,0.0,1.0,1.0,10.0,3.0
1701540649.1594236,9.0,-1.0,-3.0,7.0,-2.0,-3.0,-23.0,-6.0
1701540649.1594236,-25.0,-6.0,7.0,8.0,-2.0,-4.0,5.0,-6.0
1701540649.1765354,4.0,-4.0,-11.0,-11.0,0.0,1.0,-16.0,5.0
1701540649.1765354,-5.0,4.0,1.0,21.0,4.0,3.0,16.0,-2.0
1701540649.1765354,14.0,5.0,11.0,-12.0,-1.0,0.0,6.0,12.0
1701540649.1765354,-27.0,-1.0,23.0,1.0,-2.0,-9.0,-9.0,-21.0
1701540649.2247784,10.0,1.0,-72.0,-11.0,-3.0,4.0,-9.0,1.0
1701540649.2247784,-4.0,0.0,10.0,6.0,2.0,0.0,-4.0,11.0
1701540649.2247784,11.0,-2.0,-1.0,3.0,-1.0,2.0,11.0,-1.0
1701540649.225821,9.0,1.0,3.0,2.0,-1.0,-1.0,-6.0,-3.0
1701540649.228073,-3.0,-4.0,16.0,9.0,-2.0,-4.0,-8.0,1.0
1701540649.228073,-4.0,-7.0,-5.0,-14.0,-2.0,-1.0,16.0,-1.0
1701540649.228073,-4.0,-2.0,-12.0,0.0,0.0,-2.0,-4.0,-13.0
1701540649.228073,4.0,-9.0,1.0,0.0,-1.0,-4.0,-13.0,-1.0
1701540649.2460048,21.0,3.0,14.0,19.0,3.0,1.0,9.0,6.0
1701540649.2460048,-26.0,6.0,-11.0,-4.0,-2.0,-4.0,-5.0,-1.0
1701540649.2460048,14.0,-6.0,-10.0,-23.0,-5.0,1.0,-12.0,-6.0
1701540649.2460048,-28.0,-6.0,12.0,9.0,-3.0,0.0,14.0,1.0
1701540649.2471514,5.0,-4.0,8.0,-5.0,3.0,4.0,3.0,2.0
1701540649.2471514,5.0,-2.0,0.0,0.0,-1.0,-2.0,3.0,1.0
1701540649.2471514,-5.0,3.0,11.0,11.0,-3.0,-9.0,-7.0,-11.0
1701540649.2471514,7.0,-2.0,-46.0,6.0,2.0,-3.0,-16.0,-1.0
1701540649.2814515,-12.0,1.0,2.0,-31.0,-6.0,-3.0,-17.0,-14.0
1701540649.2814515,-6.0,-10.0,-11.0,-14.0,-4.0,1.0,23.0,4.0
1701540649.2831814,-2.0,1.0,12.0,10.0,2.0,4.0,12.0,4.0
1701540649.2831814,17.0,2.0,4.0,-5.0,3.0,-1.0,-3.0,-1.0
1701540649.3206527,-8.0,-1.0,22.0,9.0,-2.0,-5.0,-3.0,-5.0
1701540649.3206527,11.0,4.0,-4.0,6.0,1.0,-4.0,-20.0,-4.0
1701540649.3328419,28.0,-2.0,-24.0,-14.0,-5.0,1.0,8.0,1.0
1701540649.3328419,14.0,-1.0,9.0,2.0,1.0,4.0,9.0,13.0
1701540649.3328419,3.0,0.0,-4.0,10.0,1.0,-3.0,-2.0,0.0
1701540649.3328419,0.0,-1.0,-3.0,-26.0,-4.0,0.0,-12.0,-6.0
1701540649.3328419,1.0,3.0,7.0,15.0,-1.0,0.0,2.0,-5.0
1701540649.3328419,5.0,5.0,0.0,-4.0,0.0,-1.0,-2.0,6.0
1701540649.3339272,-14.0,0.0,2.0,1.0,-1.0,2.0,15.0,15.0
1701540649.33484,10.0,-3.0,3.0,8.0,-1.0,-2.0,-10.0,-17.0
1701540649.334965,-16.0,-3.0,9.0,-4.0,1.0,1.0,-18.0,-25.0
1701540649.334965,4.0,-2.0,-25.0,-7.0,-2.0,-1.0,-5.0,-3.0
1701540649.394089,-1.0,-1.0,-3.0,22.0,2.0,-1.0,5.0,-1.0
1701540649.394089,1.0,-2.0,8.0,-18.0,-4.0,-1.0,0.0,10.0
1701540649.394089,-10.0,-1.0,4.0,-19.0,-3.0,0.0,13.0,8.0
1701540649.394089,0.0,1.0,8.0,-2.0,-2.0,-5.0,3.0,-9.0
1701540649.3969598,51.0,7.0,0.0,13.0,-1.0,2.0,-3.0,0.0
1701540649.3969598,-15.0,-2.0,-1.0,11.0,2.0,0.0,-2.0,7.0
1701540649.3969598,-9.0,-5.0,-8.0,5.0,0.0,-7.0,-24.0,12.0
1701540649.3969598,8.0,-14.0,2.0,-5.0,-6.0,3.0,-16.0,-18.0
1701540649.4120796,-4.0,2.0,4.0,-13.0,-3.0,-3.0,58.0,14.0
1701540649.4120796,4.0,-2.0,1.0,3.0,-1.0,6.0,1.0,-5.0
1701540649.4120796,-1.0,-5.0,-6.0,-5.0,1.0,0.0,5.0,7.0
1701540649.4120796,-7.0,9.0,5.0,4.0,-2.0,-6.0,-4.0,-4.0
1701540649.4243953,-16.0,0.0,-2.0,24.0,0.0,-4.0,-26.0,-16.0
1701540649.4243953,0.0,-6.0,-1.0,-44.0,-3.0,1.0,-8.0,-3.0
1701540649.4253747,-8.0,-2.0,23.0,8.0,1.0,-2.0,8.0,5.0
1701540649.4253747,1.0,5.0,-42.0,-2.0,0.0,1.0,2.0,5.0
1701540649.4310844,-12.0,-5.0,12.0,-6.0,-3.0,-1.0,-2.0,-8.0
1701540649.4310844,3.0,5.0,0.0,21.0,4.0,-1.0,-2.0,0.0
1701540649.4318545,4.0,4.0,-2.0,6.0,1.0,1.0,14.0,1.0
1701540649.4318545,-2.0,-7.0,5.0,-16.0,-4.0,-3.0,0.0,-3.0
1701540649.4626248,-3.0,-7.0,-1.0,-8.0,-1.0,7.0,4.0,10.0
1701540649.4626248,2.0,1.0,-6.0,8.0,-2.0,-5.0,-13.0,-13.0
1701540649.4626248,-12.0,-7.0,-15.0,-2.0,-1.0,0.0,-9.0,-13.0
1701540649.4626248,-37.0,3.0,6.0,6.0,-1.0,-2.0,-15.0,-13.0
1701540649.469909,6.0,-1.0,-5.0,-9.0,2.0,5.0,17.0,12.0
1701540649.4780493,-7.0,-4.0,5.0,5.0,-1.0,0.0,-2.0,5.0
1701540649.4791205,3.0,-1.0,2.0,38.0,1.0,0.0,17.0,6.0
1701540649.4791205,14.0,-2.0,1.0,-48.0,-3.0,3.0,8.0,10.0
1701540649.4859846,-16.0,-5.0,-4.0,-11.0,-3.0,-8.0,-15.0,-5.0
1701540649.4859846,3.0,5.0,-2.0,-2.0,-3.0,-6.0,-21.0,-17.0
1701540649.4998362,3.0,-2.0,9.0,17.0,4.0,1.0,2.0,1.0
1701540649.4998362,-2.0,10.0,-15.0,16.0,1.0,0.0,6.0,0.0
1701540649.5626502,-3.0,6.0,-2.0,-19.0,-4.0,0.0,-7.0,1.0
1701540649.5626502,4.0,-2.0,1.0,10.0,0.0,1.0,9.0,7.0
1701540649.5700762,-6.0,-3.0,-14.0,-13.0,-3.0,-2.0,-6.0,-7.0
1701540649.5700762,-4.0,2.0,21.0,7.0,-3.0,-3.0,11.0,5.0
1701540649.5700762,-2.0,-1.0,2.0,-1.0,0.0,1.0,-9.0,-7.0
1701540649.5700762,5.0,1.0,-7.0,5.0,0.0,-4.0,-3.0,-1.0
1701540649.5700762,28.0,6.0,5.0,-13.0,1.0,5.0,5.0,13.0
1701540649.5700762,5.0,2.0,4.0,0.0,3.0,2.0,-3.0,3.0
1701540649.5700762,-1.0,-3.0,-2.0,9.0,3.0,-3.0,-5.0,-6.0
1701540649.5700762,-11.0,2.0,38.0,-4.0,-3.0,-5.0,-8.0,-3.0
1701540649.5700762,3.0,0.0,-36.0,-13.0,-5.0,-3.0,-2.0,11.0
1701540649.5700762,9.0,-7.0,3.0,12.0,1.0,7.0,29.0,0.0
1701540649.6061862,-2.0,-1.0,-5.0,5.0,-1.0,-1.0,-17.0,-2.0
1701540649.6061862,17.0,-1.0,-1.0,-25.0,-5.0,-2.0,25.0,10.0
1701540649.6061862,-20.0,-1.0,1.0,-8.0,-4.0,-5.0,-25.0,-21.0
1701540649.6061862,-41.0,-8.0,14.0,8.0,-1.0,-1.0,2.0,2.0
1701540649.6061862,2.0,0.0,-2.0,6.0,1.0,2.0,6.0,1.0
1701540649.6061862,8.0,-6.0,-16.0,1.0,-3.0,1.0,-7.0,2.0
1701540649.6071827,-16.0,-1.0,14.0,-1.0,0.0,1.0,0.0,-7.0
1701540649.6071827,0.0,-1.0,-25.0,-1.0,-3.0,-3.0,-9.0,-7.0
1701540649.6071827,0.0,4.0,7.0,-6.0,-4.0,-4.0,-8.0,-6.0
1701540649.6071827,-15.0,-4.0,-20.0,5.0,1.0,-1.0,-11.0,-1.0
1701540649.6156287,-1.0,7.0,7.0,-10.0,-2.0,-2.0,6.0,-15.0
1701540649.6156287,6.0,3.0,16.0,1.0,0.0,-1.0,-4.0,29.0
1701540649.6776662,-13.0,1.0,-9.0,-8.0,-1.0,1.0,8.0,-16.0
1701540649.6776662,13.0,-6.0,11.0,4.0,-3.0,-2.0,1.0,9.0
1701540649.6776662,-3.0,2.0,1.0,10.0,1.0,-5.0,7.0,-8.0
1701540649.6776662,-20.0,1.0,1.0,-3.0,-1.0,-4.0,-21.0,8.0
1701540649.6776662,4.0,-1.0,0.0,15.0,4.0,8.0,24.0,14.0
1701540649.6776662,-24.0,-3.0,-4.0,-33.0,-2.0,0.0,-20.0,-21.0
1701540649.6776662,4.0,-4.0,7.0,6.0,-1.0,-2.0,-6.0,5.0
1701540649.6776662,-10.0,-8.0,-2.0,5.0,-2.0,-4.0,0.0,-20.0
1701540649.6776662,3.0,1.0,1.0,-5.0,-1.0,-4.0,-9.0,3.0
1701540649.6776662,3.0,3.0,-3.0,25.0,2.0,5.0,12.0,2.0
1701540649.678494,12.0,-3.0,10.0,-14.0,-2.0,0.0,-2.0,8.0
1701540649.678494,6.0,-1.0,-5.0,0.0,0.0,0.0,-3.0,-11.0
1701540649.737648,-7.0,2.0,-1.0,-23.0,-5.0,-4.0,-13.0,-7.0
1701540649.737648,5.0,-2.0,1.0,11.0,0.0,-1.0,8.0,4.0
1701540649.737648,-16.0,4.0,15.0,25.0,1.0,-4.0,5.0,3.0
1701540649.737648,6.0,-9.0,-28.0,-42.0,-3.0,2.0,-16.0,-6.0
1701540649.737648,33.0,0.0,-2.0,4.0,-3.0,-5.0,-13.0,-8.0
1701540649.737648,-47.0,0.0,3.0,2.0,-1.0,-7.0,-16.0,-6.0
1701540649.737648,5.0,-10.0,-24.0,-7.0,-3.0,6.0,-16.0,18.0
1701540649.737648,18.0,15.0,14.0,12.0,2.0,-2.0,77.0,30.0
1701540649.737648,5.0,-9.0,-7.0,-4.0,-1.0,-2.0,-19.0,-21.0
1701540649.737648,23.0,-2.0,-13.0,0.0,-3.0,2.0,-12.0,-2.0
1701540649.7635047,-3.0,3.0,1.0,3.0,-1.0,2.0,26.0,0.0
1701540649.7635047,27.0,1.0,6.0,7.0,-1.0,-2.0,-29.0,-8.0
1701540649.7635047,-15.0,5.0,1.0,-6.0,-1.0,-7.0,-13.0,-5.0
1701540649.7635047,-3.0,-14.0,35.0,11.0,-3.0,-5.0,14.0,5.0
1701540649.7635047,-7.0,-6.0,-3.0,-9.0,2.0,0.0,-11.0,-8.0
1701540649.7635047,18.0,9.0,13.0,5.0,2.0,2.0,-3.0,-2.0
1701540649.7768667,-7.0,4.0,-1.0,2.0,0.0,1.0,22.0,9.0
1701540649.7768667,8.0,-6.0,-3.0,-2.0,2.0,1.0,-5.0,-4.0
1701540649.7781773,7.0,-7.0,-10.0,-6.0,-4.0,-3.0,1.0,1.0
1701540649.7781773,-1.0,-8.0,7.0,27.0,1.0,-4.0,-16.0,-15.0
1701540649.8024187,-6.0,8.0,3.0,-60.0,-9.0,-5.0,-9.0,0.0
1701540649.8024187,2.0,9.0,-14.0,-1.0,1.0,2.0,-1.0,15.0
1701540649.8024187,2.0,-11.0,-4.0,-6.0,-1.0,5.0,16.0,0.0
1701540649.8024187,-6.0,0.0,1.0,12.0,1.0,1.0,2.0,6.0
1701540649.813809,-14.0,-18.0,-6.0,12.0,-4.0,-6.0,-20.0,-27.0
1701540649.813809,-8.0,21.0,-1.0,-3.0,-3.0,-1.0,4.0,0.0
1701540649.814809,48.0,9.0,-41.0,-10.0,-2.0,-8.0,2.0,4.0
1701540649.814809,51.0,-4.0,-1.0,-5.0,-3.0,6.0,1.0,7.0
1701540649.8363225,-17.0,-3.0,7.0,9.0,3.0,3.0,7.0,11.0
1701540649.8363225,-8.0,-14.0,-5.0,-5.0,1.0,-2.0,10.0,-10.0
1701540649.8383725,-4.0,-1.0,26.0,7.0,-1.0,0.0,-13.0,-7.0
1701540649.8383725,-26.0,6.0,8.0,-14.0,-7.0,-8.0,-10.0,-2.0
1701540649.8892312,29.0,-4.0,-15.0,1.0,0.0,1.0,5.0,7.0
1701540649.8892312,8.0,8.0,-10.0,9.0,1.0,3.0,0.0,-7.0
1701540649.8892312,-13.0,-2.0,-2.0,-3.0,-2.0,-2.0,-1.0,7.0
1701540649.8902302,-13.0,-6.0,6.0,-1.0,1.0,-3.0,-5.0,-6.0
1701540649.8902302,-22.0,2.0,-21.0,-5.0,-2.0,0.0,-1.0,-5.0
1701540649.8902302,-7.0,-8.0,-9.0,0.0,1.0,0.0,0.0,-3.0
1701540649.8902302,-7.0,0.0,2.0,-2.0,-1.0,-2.0,-15.0,-6.0
1701540649.8902302,-11.0,-9.0,-2.0,-7.0,-5.0,-1.0,6.0,-7.0
1701540649.9380813,5.0,-2.0,13.0,16.0,1.0,-2.0,-2.0,2.0
1701540649.9380813,10.0,-1.0,-12.0,4.0,2.0,-2.0,5.0,4.0
1701540649.9380813,21.0,-5.0,-28.0,-17.0,-4.0,-4.0,-19.0,-2.0
1701540649.9380813,-89.0,2.0,-4.0,3.0,1.0,1.0,-10.0,-29.0
1701540649.9380813,12.0,-1.0,9.0,5.0,-1.0,-5.0,5.0,12.0
1701540649.9380813,3.0,-4.0,-10.0,-4.0,-3.0,0.0,2.0,3.0
1701540649.9380813,-13.0,0.0,10.0,5.0,3.0,1.0,8.0,-3.0
1701540649.9380813,11.0,13.0,8.0,0.0,-1.0,-2.0,-4.0,4.0
1701540649.9380813,-6.0,0.0,-6.0,2.0,1.0,-1.0,-4.0,-10.0
1701540649.9380813,-10.0,-2.0,4.0,-5.0,-2.0,1.0,3.0,2.0
1701540649.9380813,-10.0,-1.0,8.0,4.0,1.0,-1.0,4.0,2.0
1701540649.9380813,14.0,-7.0,-10.0,-6.0,-1.0,-4.0,-15.0,-14.0
1701540650.0075586,-8.0,1.0,7.0,1.0,1.0,0.0,0.0,0.0
1701540650.0075586,12.0,2.0,-21.0,-6.0,-3.0,-1.0,0.0,1.0
1701540650.0075586,-11.0,1.0,-1.0,1.0,-1.0,0.0,3.0,3.0
1701540650.0075586,11.0,-7.0,-2.0,-3.0,0.0,-1.0,1.0,4.0
1701540650.0075586,-3.0,3.0,14.0,5.0,-1.0,-3.0,-1.0,-2.0
1701540650.0075586,-8.0,-8.0,-15.0,9.0,3.0,-1.0,-4.0,-3.0
1701540650.008558,-6.0,6.0,35.0,-28.0,-7.0,-5.0,3.0,-4.0
1701540650.008558,3.0,-2.0,36.0,9.0,-1.0,-2.0,-3.0,-1.0
1701540650.008558,3.0,3.0,-13.0,9.0,1.0,-4.0,0.0,0.0
1701540650.008558,2.0,-4.0,18.0,3.0,-4.0,3.0,4.0,3.0
1701540650.008558,-4.0,-24.0,-39.0,1.0,31.0,19.0,11.0,3.0
1701540650.008558,0.0,30.0,-72.0,-26.0,-29.0,-18.0,-15.0,-10.0
1701540650.0283668,-1.0,-6.0,19.0,13.0,-1.0,-2.0,-3.0,2.0
1701540650.0283668,0.0,-3.0,-22.0,-5.0,0.0,-2.0,0.0,-2.0
1701540650.0283668,-4.0,-2.0,19.0,3.0,-2.0,-2.0,-1.0,4.0
1701540650.0283668,7.0,-19.0,-47.0,5.0,11.0,7.0,0.0,0.0
1701540650.0303683,-5.0,2.0,-1.0,-49.0,-21.0,-9.0,0.0,0.0
1701540650.0303683,-1.0,7.0,8.0,-16.0,-11.0,-10.0,3.0,-3.0
1701540650.0395863,-7.0,-2.0,-23.0,4.0,-10.0,-4.0,-7.0,-7.0
1701540650.0395863,10.0,-4.0,81.0,27.0,24.0,11.0,8.0,11.0
1701540650.0495594,-1.0,2.0,-72.0,19.0,12.0,10.0,1.0,0.0
1701540650.0495594,-1.0,-17.0,-42.0,-37.0,-1.0,-1.0,0.0,-3.0
1701540650.0567214,-3.0,13.0,57.0,17.0,-9.0,-4.0,-4.0,-4.0
1701540650.0567214,1.0,-2.0,12.0,-25.0,-15.0,-6.0,-1.0,1.0
1701540650.1042101,-5.0,3.0,37.0,-6.0,-12.0,-10.0,-9.0,-5.0
1701540650.1042101,-2.0,4.0,47.0,15.0,5.0,-8.0,0.0,-1.0
1701540650.1052108,-3.0,-1.0,-20.0,16.0,2.0,-3.0,-3.0,-5.0
1701540650.1052108,-1.0,-5.0,0.0,16.0,15.0,20.0,1.0,-1.0
1701540650.1052108,0.0,-4.0,2.0,-8.0,8.0,5.0,3.0,1.0
1701540650.1052108,-2.0,-6.0,-15.0,-5.0,-7.0,-4.0,-3.0,-1.0
1701540650.1052108,-3.0,0.0,20.0,-13.0,-13.0,-16.0,-3.0,-5.0
1701540650.1052108,3.0,1.0,-7.0,14.0,-6.0,-3.0,5.0,1.0
1701540650.1149075,-2.0,-4.0,0.0,-2.0,1.0,6.0,0.0,4.0
1701540650.1149075,-1.0,2.0,4.0,0.0,-8.0,-7.0,-6.0,-2.0
1701540650.1159582,-1.0,-1.0,-18.0,3.0,2.0,-2.0,1.0,-2.0
1701540650.1169598,1.0,-1.0,-3.0,-18.0,1.0,-9.0,-4.0,1.0
1701540650.1325746,-2.0,-2.0,-1.0,3.0,-8.0,15.0,1.0,0.0
1701540650.1325746,0.0,6.0,31.0,-7.0,8.0,9.0,0.0,-1.0
1701540650.1569078,-3.0,-6.0,-39.0,-4.0,2.0,-10.0,-6.0,-5.0
1701540650.1569078,-1.0,-24.0,22.0,26.0,20.0,8.0,2.0,0.0
1701540650.1816082,-1.0,-2.0,43.0,16.0,-7.0,-15.0,-3.0,-3.0
1701540650.1816082,-1.0,2.0,-7.0,4.0,-5.0,-2.0,-5.0,-2.0
1701540650.1816082,-3.0,2.0,-3.0,-21.0,-11.0,2.0,-2.0,-1.0
1701540650.1816082,0.0,5.0,-5.0,-24.0,-10.0,-9.0,-2.0,0.0
1701540650.1848228,-1.0,1.0,-46.0,-8.0,2.0,1.0,2.0,1.0
1701540650.1848228,-1.0,-1.0,10.0,0.0,-1.0,2.0,-2.0,-1.0
1701540650.1928833,0.0,6.0,3.0,-7.0,0.0,-5.0,-1.0,-1.0
1701540650.1928833,-2.0,-2.0,6.0,6.0,-8.0,1.0,-1.0,1.0
1701540650.200881,-2.0,0.0,-15.0,-1.0,5.0,-1.0,-2.0,0.0
1701540650.200881,-2.0,-2.0,-5.0,2.0,-3.0,-2.0,-3.0,-1.0
1701540650.200881,0.0,1.0,7.0,7.0,2.0,1.0,-1.0,1.0
1701540650.200881,-1.0,0.0,-7.0,-5.0,-1.0,-1.0,-2.0,-1.0
1701540650.2204316,-1.0,-4.0,9.0,4.0,3.0,3.0,0.0,0.0
1701540650.2204316,1.0,-5.0,-9.0,4.0,1.0,-7.0,0.0,0.0
1701540650.221426,-1.0,2.0,21.0,4.0,0.0,13.0,1.0,-1.0
1701540650.221426,-3.0,2.0,-6.0,-4.0,-9.0,-8.0,-3.0,-3.0
1701540650.2315977,-1.0,-1.0,-1.0,-6.0,-7.0,-6.0,-2.0,-2.0
1701540650.2315977,-1.0,-1.0,2.0,1.0,10.0,9.0,0.0,-1.0
1701540650.2366168,1.0,-4.0,-1.0,4.0,-6.0,-4.0,-2.0,-1.0
1701540650.2366168,-1.0,-2.0,-12.0,-15.0,-1.0,-1.0,0.0,-2.0
1701540650.2628567,-1.0,3.0,18.0,9.0,4.0,-4.0,0.0,-2.0
1701540650.2638574,-2.0,2.0,6.0,14.0,3.0,2.0,0.0,-3.0
1701540650.296649,1.0,-6.0,19.0,-6.0,-9.0,7.0,1.0,0.0
1701540650.2976527,0.0,1.0,-9.0,5.0,-1.0,-6.0,-2.0,-2.0
1701540650.3164384,-2.0,5.0,2.0,8.0,2.0,-1.0,-1.0,-2.0
1701540650.3164384,-2.0,-2.0,1.0,-17.0,-6.0,-2.0,-2.0,-1.0
1701540650.3164384,0.0,-4.0,-14.0,-7.0,-3.0,-3.0,0.0,-1.0
1701540650.3164384,1.0,7.0,-18.0,-9.0,-5.0,1.0,-1.0,2.0
1701540650.3164384,1.0,-3.0,22.0,-1.0,-10.0,-3.0,-2.0,-2.0
1701540650.3164384,-3.0,-6.0,-32.0,7.0,2.0,-1.0,-2.0,-1.0
1701540650.3164384,-2.0,0.0,-10.0,7.0,15.0,2.0,0.0,-2.0
1701540650.3164384,0.0,-1.0,2.0,2.0,-2.0,4.0,-1.0,-1.0
1701540650.351321,-2.0,-3.0,9.0,-2.0,1.0,-2.0,-1.0,-1.0
1701540650.351321,1.0,-6.0,-10.0,-9.0,-6.0,-2.0,-1.0,-2.0
1701540650.351321,1.0,1.0,-13.0,-12.0,-5.0,-6.0,-1.0,-1.0
1701540650.351321,-1.0,-3.0,16.0,-2.0,-6.0,-4.0,-2.0,0.0
1701540650.353532,0.0,-3.0,1.0,9.0,7.0,1.0,-3.0,1.0
1701540650.353532,-2.0,3.0,14.0,2.0,3.0,0.0,-1.0,-1.0
1701540650.353532,-1.0,-4.0,-4.0,-2.0,-5.0,-1.0,-2.0,-1.0
1701540650.3545327,0.0,-4.0,-22.0,-6.0,7.0,3.0,0.0,0.0
1701540650.3823595,-1.0,-3.0,10.0,-5.0,-5.0,0.0,-1.0,-1.0
1701540650.3823595,1.0,5.0,22.0,-3.0,-4.0,-4.0,-2.0,0.0
1701540650.38336,-3.0,-9.0,-16.0,8.0,0.0,-5.0,-1.0,-2.0
1701540650.38336,1.0,4.0,13.0,-3.0,-5.0,-5.0,-1.0,0.0
1701540650.38336,-3.0,10.0,-54.0,4.0,9.0,3.0,0.0,-1.0
1701540650.38336,-2.0,-2.0,4.0,4.0,3.0,6.0,1.0,-1.0
1701540650.38336,0.0,-8.0,-3.0,-17.0,-6.0,-1.0,-2.0,-2.0
1701540650.38336,1.0,7.0,18.0,6.0,-5.0,-3.0,-2.0,-1.0
1701540650.399228,-3.0,-5.0,-36.0,-9.0,3.0,0.0,0.0,-1.0
1701540650.399228,-1.0,-1.0,11.0,8.0,3.0,2.0,-2.0,1.0
1701540650.4003806,-1.0,5.0,-11.0,6.0,3.0,2.0,-1.0,-1.0
1701540650.4003806,1.0,-1.0,3.0,-1.0,-1.0,0.0,-1.0,0.0
1701540650.4521866,-1.0,-11.0,6.0,-5.0,-4.0,-3.0,-2.0,-1.0
1701540650.4524603,-1.0,6.0,-12.0,-6.0,-6.0,-2.0,-2.0,0.0
1701540650.463182,-3.0,1.0,1.0,-1.0,1.0,0.0,0.0,0.0
1701540650.463182,-1.0,-9.0,22.0,5.0,4.0,0.0,-1.0,-2.0
1701540650.463182,-2.0,1.0,-21.0,-9.0,-1.0,-3.0,1.0,-4.0
1701540650.463182,-3.0,-2.0,2.0,1.0,0.0,2.0,0.0,-1.0
1701540650.463182,-1.0,-2.0,7.0,4.0,0.0,0.0,0.0,0.0
1701540650.463182,-1.0,-2.0,-4.0,-1.0,-1.0,-3.0,-2.0,-1.0
1701540650.4919684,2.0,-1.0,16.0,-2.0,-2.0,1.0,-2.0,1.0
1701540650.4919684,-2.0,-2.0,2.0,-4.0,-5.0,-5.0,0.0,-1.0
1701540650.4919684,-1.0,-2.0,2.0,1.0,0.0,-1.0,-1.0,0.0
1701540650.4919684,-2.0,2.0,6.0,4.0,1.0,-1.0,0.0,-1.0
1701540650.4919684,-2.0,-6.0,-17.0,5.0,-1.0,-2.0,-2.0,0.0
1701540650.4919684,0.0,-5.0,6.0,5.0,5.0,0.0,-2.0,-1.0
1701540650.4919684,-3.0,3.0,8.0,-10.0,-3.0,-2.0,-4.0,-2.0
1701540650.4919684,0.0,2.0,-22.0,-8.0,-3.0,-2.0,-3.0,-2.0
1701540650.4966893,-1.0,0.0,43.0,7.0,-5.0,-2.0,-2.0,-1.0
1701540650.4966893,-2.0,-13.0,29.0,-10.0,-2.0,-1.0,-2.0,-2.0
1701540650.4976885,-2.0,6.0,-13.0,9.0,-1.0,-2.0,-1.0,-1.0
1701540650.4976885,-4.0,-4.0,-37.0,-4.0,0.0,0.0,-2.0,0.0
1701540650.565992,1.0,-11.0,-1.0,-4.0,-2.0,-1.0,0.0,1.0
1701540650.565992,-1.0,2.0,1.0,-2.0,-3.0,-2.0,-1.0,-1.0
1701540650.565992,-1.0,1.0,5.0,-10.0,0.0,-1.0,-1.0,1.0
1701540650.565992,0.0,-6.0,-9.0,5.0,-4.0,-2.0,-2.0,-2.0
1701540650.5707824,0.0,6.0,29.0,2.0,2.0,0.0,-1.0,-2.0
1701540650.5707824,2.0,6.0,-31.0,6.0,-2.0,-3.0,1.0,1.0
1701540650.5707824,-4.0,-14.0,-25.0,-13.0,-7.0,-4.0,-2.0,-3.0
1701540650.5707824,-1.0,-1.0,17.0,6.0,2.0,-1.0,0.0,-3.0
1701540650.5707824,-5.0,-5.0,13.0,-4.0,-2.0,-1.0,-1.0,-2.0
1701540650.5707824,0.0,9.0,-8.0,0.0,0.0,-1.0,-1.0,-2.0
1701540650.5707824,1.0,-4.0,-1.0,7.0,-1.0,-1.0,-1.0,-2.0
1701540650.5707824,0.0,-4.0,-43.0,-10.0,0.0,1.0,2.0,1.0
1701540650.615279,-3.0,-2.0,14.0,-4.0,-5.0,-5.0,-2.0,0.0
1701540650.615279,0.0,-5.0,47.0,-3.0,-3.0,0.0,-1.0,1.0
1701540650.615279,0.0,-6.0,-34.0,-20.0,-7.0,-1.0,-1.0,-2.0
1701540650.615279,0.0,-3.0,10.0,8.0,-2.0,2.0,1.0,-2.0
1701540650.615279,0.0,-5.0,-1.0,11.0,8.0,1.0,-1.0,-2.0
1701540650.615279,0.0,7.0,-5.0,-3.0,-3.0,-1.0,-1.0,-1.0
1701540650.615279,-2.0,3.0,27.0,10.0,4.0,0.0,-1.0,0.0
1701540650.615279,-4.0,-4.0,-1.0,-17.0,-10.0,-3.0,-3.0,-2.0
1701540650.6163354,-3.0,0.0,3.0,-6.0,-4.0,-1.0,0.0,0.0
1701540650.6163354,-5.0,1.0,-24.0,7.0,0.0,-1.0,-1.0,-3.0
1701540650.6182337,5.0,3.0,34.0,4.0,3.0,1.0,0.0,2.0
1701540650.6182337,-2.0,-10.0,-53.0,-2.0,2.0,-1.0,0.0,0.0
1701540650.6586602,-2.0,2.0,6.0,4.0,-1.0,0.0,1.0,-1.0
1701540650.6586602,0.0,-7.0,-7.0,-4.0,2.0,1.0,-1.0,0.0
1701540650.6586602,-5.0,-22.0,19.0,7.0,0.0,0.0,-3.0,-3.0
1701540650.6586602,-1.0,3.0,-26.0,-9.0,0.0,-2.0,0.0,2.0
1701540650.6596596,5.0,7.0,3.0,-15.0,-8.0,-2.0,-1.0,0.0
1701540650.6596596,0.0,-8.0,-18.0,2.0,6.0,0.0,-1.0,0.0
1701540650.6622798,0.0,7.0,-6.0,11.0,6.0,-2.0,-1.0,0.0
1701540650.6622798,1.0,3.0,82.0,22.0,6.0,1.0,-1.0,1.0
1701540650.6737628,-2.0,-3.0,2.0,-8.0,-5.0,-3.0,-4.0,-3.0
1701540650.6737628,1.0,-1.0,11.0,8.0,-2.0,-4.0,-2.0,-2.0
1701540650.6799629,-2.0,-5.0,-22.0,-5.0,-4.0,0.0,0.0,0.0
1701540650.6799629,-1.0,2.0,-12.0,-2.0,8.0,2.0,2.0,0.0
1701540650.7479408,5.0,3.0,8.0,2.0,-2.0,-2.0,0.0,3.0
1701540650.7479408,-18.0,-1.0,-21.0,-9.0,-1.0,-1.0,0.0,-6.0
1701540650.7479408,3.0,9.0,25.0,2.0,-2.0,-3.0,-1.0,0.0
1701540650.7479408,0.0,-14.0,-18.0,14.0,2.0,3.0,1.0,-2.0
1701540650.7479408,1.0,1.0,-68.0,-17.0,-4.0,-2.0,-1.0,-2.0
1701540650.7479408,25.0,4.0,36.0,8.0,-3.0,-1.0,-1.0,2.0
1701540650.7490003,-22.0,-25.0,58.0,-2.0,-1.0,-1.0,-1.0,-1.0
1701540650.7490003,-16.0,14.0,-12.0,-34.0,-10.0,-7.0,-3.0,-6.0
1701540650.7490003,0.0,-30.0,72.0,27.0,11.0,7.0,3.0,0.0
1701540650.7490003,6.0,-13.0,6.0,0.0,-7.0,-6.0,-3.0,-1.0
1701540650.7490003,6.0,65.0,-2.0,2.0,4.0,2.0,0.0,1.0
1701540650.7490003,10.0,-35.0,96.0,26.0,-4.0,-4.0,-1.0,14.0
1701540650.7819598,-3.0,23.0,-39.0,-31.0,-5.0,-3.0,-2.0,-18.0
1701540650.7819598,-13.0,-20.0,8.0,13.0,-4.0,-2.0,-2.0,3.0
1701540650.7819598,5.0,-10.0,-53.0,-6.0,-1.0,1.0,-2.0,-8.0
1701540650.7819598,-10.0,-5.0,10.0,7.0,6.0,1.0,1.0,0.0
1701540650.7819598,-13.0,0.0,-30.0,2.0,-1.0,-1.0,-5.0,3.0
1701540650.7819598,39.0,13.0,-20.0,3.0,-1.0,0.0,2.0,7.0
1701540650.7819598,-1.0,-8.0,-10.0,-2.0,-2.0,-1.0,0.0,-1.0
1701540650.7819598,4.0,17.0,-33.0,-8.0,-4.0,-2.0,-2.0,-2.0
1701540650.79676,24.0,-4.0,0.0,2.0,2.0,3.0,3.0,7.0
1701540650.79676,-43.0,-5.0,-33.0,-14.0,-1.0,0.0,-1.0,-1.0
1701540650.7979138,23.0,-5.0,-2.0,6.0,3.0,2.0,1.0,-10.0
1701540650.7979138,3.0,1.0,29.0,-10.0,-5.0,-2.0,0.0,2.0
1701540650.8658252,35.0,4.0,-52.0,-2.0,1.0,0.0,2.0,19.0
1701540650.8658252,-19.0,1.0,41.0,21.0,4.0,1.0,-3.0,-5.0
1701540650.8678226,-20.0,-21.0,-54.0,-42.0,-10.0,-9.0,-5.0,-1.0
1701540650.8678226,4.0,21.0,41.0,15.0,1.0,-3.0,-2.0,-5.0
1701540650.8689752,-22.0,-8.0,-8.0,6.0,2.0,0.0,-2.0,-4.0
1701540650.8689752,-3.0,7.0,-73.0,-8.0,-5.0,-1.0,-2.0,-5.0
1701540650.8689752,12.0,-13.0,13.0,8.0,2.0,-1.0,-1.0,0.0
1701540650.8689752,-6.0,4.0,-10.0,-3.0,0.0,2.0,-2.0,-3.0
1701540650.8689752,-11.0,-7.0,33.0,-3.0,-5.0,-6.0,-4.0,-3.0
1701540650.8689752,7.0,-17.0,-3.0,-7.0,1.0,0.0,0.0,-4.0
1701540650.8689752,-6.0,12.0,4.0,9.0,-1.0,-2.0,0.0,-3.0
1701540650.8689752,1.0,-1.0,-17.0,-11.0,-2.0,-1.0,-2.0,-4.0
1701540650.8863013,-10.0,7.0,-3.0,4.0,0.0,0.0,1.0,-4.0
1701540650.8863013,2.0,4.0,8.0,-10.0,-3.0,-2.0,-2.0,-1.0
1701540650.8876624,-4.0,6.0,16.0,7.0,-1.0,2.0,0.0,2.0
1701540650.8876624,-2.0,-21.0,-12.0,-7.0,-5.0,-3.0,-2.0,-5.0
1701540650.8886623,-3.0,11.0,-4.0,2.0,-1.0,-1.0,-2.0,-1.0
1701540650.8886623,0.0,23.0,7.0,-4.0,1.0,-1.0,-3.0,0.0
1701540650.951764,1.0,-27.0,1.0,2.0,-1.0,0.0,0.0,2.0
1701540650.951764,4.0,-44.0,-26.0,0.0,1.0,4.0,0.0,-3.0
1701540650.951764,-13.0,54.0,9.0,-6.0,-6.0,-4.0,-4.0,-7.0
1701540650.951764,7.0,2.0,13.0,12.0,3.0,-1.0,0.0,0.0
1701540650.951764,-7.0,-15.0,-5.0,-32.0,-6.0,-1.0,-2.0,-1.0
1701540650.951764,1.0,1.0,0.0,18.0,-2.0,0.0,-2.0,0.0
1701540650.9561274,5.0,-52.0,-15.0,-38.0,-11.0,-6.0,0.0,0.0
1701540650.9561274,-5.0,9.0,89.0,34.0,17.0,4.0,0.0,-2.0
1701540650.9561274,-2.0,19.0,-96.0,6.0,4.0,-1.0,0.0,-1.0
1701540650.9561274,-2.0,6.0,26.0,4.0,3.0,-2.0,1.0,-1.0
1701540650.9561274,0.0,-18.0,2.0,3.0,-3.0,-2.0,-1.0,-1.0
1701540650.9561274,1.0,2.0,-2.0,-19.0,-10.0,-3.0,-1.0,-3.0
1701540650.9571295,3.0,8.0,94.0,7.0,-1.0,-1.0,-1.0,9.0
1701540650.9571295,-4.0,12.0,-75.0,-15.0,-2.0,-1.0,-4.0,-10.0
1701540651.0112212,21.0,-2.0,0.0,7.0,1.0,1.0,7.0,26.0
1701540651.0112212,3.0,-18.0,-57.0,-15.0,-4.0,-3.0,-1.0,-19.0
1701540651.0112212,-3.0,13.0,2.0,13.0,4.0,0.0,1.0,0.0
1701540651.0112212,-4.0,-6.0,-1.0,-15.0,-5.0,2.0,1.0,1.0
1701540651.015442,4.0,3.0,9.0,4.0,1.0,2.0,2.0,3.0
1701540651.015442,0.0,-24.0,-8.0,-7.0,-5.0,-2.0,-2.0,1.0
1701540651.015442,2.0,-10.0,5.0,4.0,-2.0,-1.0,-4.0,-1.0
1701540651.015442,-5.0,9.0,39.0,1.0,2.0,-2.0,-1.0,1.0
1701540651.015442,-12.0,-20.0,2.0,8.0,0.0,-1.0,-6.0,-11.0
1701540651.015442,-2.0,8.0,-7.0,-15.0,-5.0,0.0,-1.0,5.0
1701540651.0686197,-5.0,27.0,1.0,15.0,0.0,-4.0,-6.0,-10.0
1701540651.0686197,3.0,-4.0,-2.0,-13.0,-5.0,1.0,3.0,5.0
1701540651.0686197,0.0,-17.0,24.0,-36.0,-17.0,-4.0,0.0,-3.0
1701540651.0686197,-1.0,12.0,12.0,-31.0,-8.0,-3.0,-1.0,1.0
1701540651.0696208,6.0,0.0,4.0,76.0,20.0,4.0,2.0,4.0
1701540651.0696208,3.0,-8.0,-36.0,62.0,40.0,10.0,4.0,0.0
1701540651.0696208,-10.0,7.0,90.0,11.0,1.0,-3.0,-4.0,-6.0
1701540651.0696208,2.0,4.0,18.0,-16.0,-1.0,2.0,2.0,0.0
1701540651.0696208,-3.0,44.0,2.0,-40.0,-24.0,-4.0,-1.0,-4.0
1701540651.0696208,7.0,16.0,10.0,-7.0,-10.0,-3.0,-2.0,1.0
1701540651.089352,-7.0,-8.0,-20.0,0.0,-2.0,-2.0,-1.0,-6.0
1701540651.089352,1.0,1.0,5.0,9.0,3.0,-1.0,0.0,4.0
1701540651.089352,-7.0,-56.0,-20.0,-14.0,-3.0,-4.0,-4.0,-2.0
1701540651.089352,0.0,-8.0,-20.0,-11.0,-11.0,-3.0,-3.0,-3.0
1701540651.0903742,-6.0,-2.0,3.0,0.0,2.0,-1.0,0.0,1.0
1701540651.0903742,-1.0,-1.0,21.0,13.0,-3.0,-4.0,-3.0,0.0
1701540651.0982428,-6.0,-21.0,-10.0,-9.0,7.0,6.0,5.0,1.0
1701540651.0982428,-5.0,18.0,-13.0,-17.0,-19.0,-6.0,-7.0,-5.0
1701540651.1193051,-4.0,0.0,-28.0,10.0,3.0,0.0,-3.0,-6.0
1701540651.1193051,-1.0,-11.0,-3.0,9.0,5.0,3.0,1.0,2.0
1701540651.120702,30.0,-5.0,18.0,3.0,1.0,-2.0,-1.0,3.0
1701540651.120702,-23.0,-18.0,-23.0,-28.0,-7.0,-6.0,-2.0,-2.0
1701540651.167853,22.0,8.0,-2.0,19.0,7.0,1.0,1.0,0.0
1701540651.1680722,-7.0,-18.0,-30.0,-2.0,-2.0,1.0,-1.0,-2.0
1701540651.1784835,9.0,1.0,12.0,-1.0,-1.0,-2.0,-2.0,1.0
1701540651.1784835,3.0,-3.0,-6.0,-10.0,-2.0,0.0,0.0,-1.0
1701540651.1784835,-5.0,3.0,-12.0,7.0,1.0,-1.0,-1.0,-4.0
1701540651.1784835,-3.0,-8.0,-21.0,-2.0,-5.0,-4.0,-2.0,-1.0
1701540651.1784835,-9.0,-4.0,-17.0,-16.0,-5.0,1.0,2.0,0.0
1701540651.1784835,0.0,12.0,29.0,12.0,3.0,-2.0,-1.0,4.0
1701540651.1795392,-10.0,0.0,-18.0,-13.0,-2.0,-4.0,-1.0,-5.0
1701540651.1795392,1.0,1.0,6.0,5.0,3.0,-4.0,-2.0,-3.0
1701540651.1799028,-6.0,13.0,9.0,-7.0,-8.0,-5.0,2.0,4.0
1701540651.1799028,-2.0,-2.0,-2.0,-8.0,-8.0,3.0,-6.0,-16.0
1701540651.2181478,3.0,4.0,-18.0,-9.0,0.0,5.0,-1.0,0.0
1701540651.2191463,2.0,7.0,1.0,19.0,13.0,1.0,-1.0,-1.0
1701540651.2374492,-4.0,-2.0,-8.0,-14.0,-2.0,-2.0,-5.0,-1.0
1701540651.2374492,-14.0,-19.0,13.0,9.0,2.0,-8.0,-3.0,2.0
1701540651.2374492,1.0,9.0,-43.0,-39.0,-8.0,-4.0,0.0,-1.0
1701540651.2374492,-16.0,6.0,37.0,20.0,-10.0,-2.0,-7.0,-11.0
1701540651.2374492,-1.0,-29.0,-2.0,-22.0,-11.0,3.0,8.0,3.0
1701540651.2374492,13.0,0.0,-18.0,11.0,8.0,1.0,-7.0,8.0
1701540651.2384906,-29.0,0.0,27.0,33.0,8.0,-15.0,-73.0,-33.0
1701540651.2384906,16.0,0.0,-44.0,-11.0,-14.0,-14.0,23.0,-24.0
1701540651.2487998,-42.0,17.0,-4.0,-27.0,6.0,28.0,45.0,22.0
1701540651.2497807,61.0,12.0,4.0,-12.0,22.0,22.0,25.0,34.0
1701540651.2600322,8.0,-25.0,9.0,24.0,8.0,-4.0,16.0,8.0
1701540651.2600322,-4.0,-22.0,-2.0,-7.0,-8.0,-20.0,-55.0,-30.0
1701540651.2640579,-51.0,-6.0,13.0,16.0,-15.0,-10.0,-87.0,-47.0
1701540651.2640579,-24.0,0.0,-17.0,-25.0,-7.0,-4.0,64.0,4.0
1701540651.3365479,11.0,-9.0,2.0,10.0,11.0,22.0,30.0,40.0
1701540651.3365479,-1.0,-1.0,7.0,-33.0,-14.0,-1.0,-7.0,-22.0
1701540651.3365479,19.0,0.0,26.0,10.0,-19.0,-12.0,19.0,1.0
1701540651.3365479,-15.0,23.0,-36.0,-18.0,7.0,-17.0,-60.0,-29.0
1701540651.3425722,17.0,1.0,9.0,34.0,1.0,-7.0,-11.0,4.0
1701540651.3435152,-5.0,8.0,-5.0,4.0,-3.0,5.0,33.0,34.0
1701540651.3462465,7.0,-15.0,22.0,24.0,8.0,-3.0,-15.0,-17.0
1701540651.3462465,-9.0,-1.0,22.0,-21.0,-22.0,-14.0,5.0,-3.0
1701540651.3473163,-3.0,-8.0,-23.0,-31.0,-3.0,7.0,18.0,-19.0
1701540651.3473163,12.0,1.0,1.0,25.0,36.0,26.0,-3.0,21.0
1701540651.3473163,10.0,0.0,-7.0,3.0,2.0,0.0,3.0,8.0
1701540651.3473163,2.0,4.0,16.0,4.0,-15.0,-8.0,-3.0,-5.0
1701540651.3473163,-7.0,0.0,-20.0,-19.0,-27.0,-12.0,1.0,2.0
1701540651.3473163,-7.0,0.0,-9.0,-10.0,-9.0,3.0,-11.0,6.0
1701540651.366804,11.0,-1.0,5.0,14.0,25.0,5.0,26.0,15.0
1701540651.366804,-6.0,-20.0,-14.0,-6.0,-2.0,0.0,11.0,-3.0
1701540651.3752642,-9.0,4.0,0.0,20.0,8.0,-6.0,-17.0,-6.0
1701540651.3752642,-6.0,9.0,5.0,-15.0,0.0,5.0,1.0,-4.0
1701540651.3752642,5.0,7.0,2.0,33.0,-2.0,-19.0,7.0,-4.0
1701540651.3752642,7.0,12.0,-17.0,-43.0,-23.0,5.0,-9.0,2.0
1701540651.3773484,-3.0,11.0,10.0,0.0,1.0,3.0,-3.0,1.0
1701540651.3773484,-5.0,-3.0,11.0,9.0,6.0,11.0,-3.0,5.0
1701540651.3832955,5.0,-3.0,-29.0,12.0,12.0,-4.0,-3.0,-2.0
1701540651.3832955,-3.0,-16.0,16.0,16.0,3.0,-5.0,2.0,2.0
1701540651.396055,-4.0,-7.0,-11.0,-20.0,-12.0,2.0,-1.0,-6.0
1701540651.396055,-3.0,-1.0,63.0,39.0,-7.0,-5.0,5.0,4.0
1701540651.3971539,4.0,-2.0,-50.0,-31.0,1.0,-1.0,1.0,2.0
1701540651.3971539,-3.0,15.0,19.0,-22.0,-10.0,-7.0,-17.0,-5.0
1701540651.4668822,-2.0,2.0,-18.0,-12.0,-3.0,-4.0,5.0,-2.0
1701540651.4668822,5.0,-32.0,27.0,12.0,5.0,0.0,10.0,10.0
1701540651.4668822,1.0,15.0,1.0,-3.0,-8.0,8.0,1.0,1.0
1701540651.4668822,-4.0,2.0,9.0,14.0,7.0,-4.0,-10.0,-21.0
1701540651.4678824,-5.0,11.0,19.0,14.0,11.0,4.0,-9.0,-11.0
1701540651.4678824,-3.0,-2.0,-38.0,-22.0,-1.0,2.0,4.0,2.0
1701540651.4712868,5.0,-6.0,-34.0,-6.0,4.0,4.0,8.0,19.0
1701540651.4712868,-8.0,-7.0,24.0,15.0,0.0,2.0,3.0,-10.0
1701540651.4712868,7.0,0.0,-33.0,-16.0,-8.0,-5.0,6.0,-1.0
1701540651.4712868,-3.0,-3.0,-11.0,3.0,1.0,-9.0,-2.0,-2.0
1701540651.4712868,-3.0,-1.0,-1.0,-25.0,-11.0,-9.0,-12.0,-5.0
1701540651.4712868,-2.0,3.0,29.0,42.0,3.0,6.0,-2.0,0.0
1701540651.5162015,-3.0,-5.0,-11.0,-18.0,-7.0,-2.0,3.0,1.0
1701540651.5162015,-1.0,9.0,-5.0,3.0,-5.0,-11.0,-1.0,8.0
1701540651.5162015,3.0,-7.0,27.0,23.0,18.0,8.0,3.0,0.0
1701540651.5172014,-3.0,-12.0,-3.0,11.0,-2.0,-3.0,-6.0,-3.0
1701540651.5172014,3.0,0.0,18.0,14.0,1.0,2.0,3.0,2.0
1701540651.5172014,2.0,-3.0,-36.0,-42.0,-8.0,-4.0,-2.0,0.0
1701540651.5172014,-8.0,-1.0,18.0,-4.0,-6.0,1.0,-4.0,-7.0
1701540651.5172014,5.0,-2.0,-10.0,2.0,0.0,-1.0,-4.0,6.0
1701540651.5172014,-8.0,-4.0,-2.0,-5.0,-5.0,-3.0,-3.0,5.0
1701540651.5172014,-5.0,6.0,1.0,-1.0,6.0,5.0,2.0,-2.0
1701540651.549493,8.0,-5.0,-4.0,6.0,-6.0,-10.0,-19.0,-7.0
1701540651.549493,-5.0,2.0,22.0,-13.0,11.0,13.0,18.0,7.0
1701540651.549493,5.0,-5.0,-33.0,10.0,-8.0,-5.0,-2.0,1.0
1701540651.549493,-1.0,8.0,-11.0,-38.0,-7.0,-4.0,0.0,-7.0
1701540651.549493,-4.0,1.0,12.0,10.0,-2.0,-3.0,-3.0,-2.0
1701540651.549493,-2.0,-1.0,2.0,9.0,3.0,-1.0,-5.0,5.0
1701540651.5633337,-4.0,-5.0,12.0,-32.0,-38.0,-9.0,-1.0,-1.0
1701540651.5633337,-3.0,9.0,4.0,101.0,90.0,20.0,4.0,5.0
1701540651.5712965,-5.0,0.0,-5.0,-6.0,1.0,-3.0,-2.0,-1.0
1701540651.5712965,7.0,-3.0,-15.0,-15.0,-2.0,-1.0,-5.0,-2.0
1701540651.5712965,-5.0,-22.0,3.0,4.0,0.0,-1.0,2.0,2.0
1701540651.5712965,0.0,3.0,-17.0,-21.0,-31.0,-14.0,-8.0,-4.0
1701540651.629977,5.0,26.0,11.0,-19.0,-5.0,1.0,1.0,1.0
1701540651.6310816,21.0,1.0,-11.0,30.0,11.0,2.0,-2.0,2.0
1701540651.6310816,-33.0,-21.0,7.0,-8.0,3.0,-3.0,1.0,-4.0
1701540651.6310816,-2.0,3.0,17.0,13.0,-14.0,0.0,-2.0,-4.0
1701540651.6310816,-2.0,-3.0,-22.0,-76.0,-2.0,-1.0,1.0,-8.0
1701540651.6310816,8.0,-6.0,-3.0,10.0,-8.0,2.0,8.0,5.0
1701540651.6344235,5.0,6.0,12.0,15.0,8.0,3.0,-19.0,-23.0
1701540651.6344235,0.0,-31.0,-17.0,-26.0,-11.0,-4.0,-1.0,-1.0
1701540651.6344235,-6.0,0.0,5.0,18.0,-6.0,-2.0,-2.0,-5.0
1701540651.6344235,-7.0,7.0,-1.0,7.0,2.0,-1.0,-3.0,3.0
1701540651.6354246,2.0,3.0,-6.0,-16.0,8.0,2.0,6.0,3.0
1701540651.6354246,-5.0,1.0,1.0,3.0,-2.0,-2.0,0.0,-3.0
1701540651.6831696,4.0,0.0,11.0,-7.0,-9.0,-4.0,-2.0,2.0
1701540651.6831696,-3.0,-2.0,-5.0,-26.0,-9.0,-2.0,5.0,12.0
1701540651.6876287,3.0,1.0,6.0,41.0,19.0,5.0,-12.0,-28.0
1701540651.6876287,2.0,2.0,-4.0,-20.0,-31.0,-16.0,-11.0,-8.0
1701540651.6876287,-3.0,-7.0,3.0,22.0,18.0,7.0,0.0,11.0
1701540651.6876287,-7.0,-14.0,-1.0,-6.0,4.0,5.0,-2.0,-13.0
1701540651.6876287,6.0,11.0,0.0,-11.0,-3.0,5.0,47.0,38.0
1701540651.6876287,-4.0,-5.0,-4.0,-8.0,-11.0,-6.0,-51.0,-61.0
1701540651.6876287,2.0,-13.0,-5.0,-7.0,-9.0,-6.0,-8.0,-1.0
1701540651.6876287,6.0,3.0,-5.0,11.0,-3.0,-23.0,-50.0,-3.0
1701540651.6887374,-62.0,9.0,7.0,-5.0,2.0,-5.0,19.0,-10.0
1701540651.6887374,60.0,-5.0,-10.0,-19.0,-5.0,25.0,66.0,36.0
1701540651.7464118,-18.0,-16.0,3.0,22.0,2.0,7.0,18.0,-2.0
1701540651.7464118,13.0,-1.0,6.0,-2.0,4.0,5.0,2.0,10.0
1701540651.7464118,-24.0,-1.0,-14.0,-12.0,-9.0,-41.0,-94.0,-23.0
1701540651.7464118,-42.0,30.0,30.0,21.0,5.0,-4.0,-1.0,-4.0
1701540651.7464118,-33.0,-15.0,-31.0,-11.0,-19.0,-11.0,16.0,8.0
1701540651.7474096,30.0,-33.0,-22.0,-20.0,-6.0,28.0,46.0,3.0
1701540651.7474096,10.0,3.0,13.0,-2.0,6.0,14.0,6.0,5.0
1701540651.7474096,5.0,-4.0,-6.0,22.0,12.0,-5.0,-20.0,0.0
1701540651.7474096,-1.0,29.0,22.0,16.0,16.0,-1.0,-27.0,-14.0
1701540651.7474096,2.0,34.0,39.0,19.0,0.0,-24.0,-36.0,-12.0
1701540651.7797453,-32.0,-19.0,-7.0,-6.0,-9.0,2.0,15.0,19.0
1701540651.7810216,-9.0,-24.0,-6.0,-30.0,-11.0,2.0,24.0,16.0
1701540651.8070142,0.0,-6.0,1.0,-2.0,-1.0,-2.0,6.0,0.0
1701540651.8070142,-3.0,-26.0,-23.0,-15.0,-5.0,-3.0,-6.0,-4.0
1701540651.810809,24.0,28.0,40.0,17.0,8.0,7.0,3.0,5.0
1701540651.810809,12.0,37.0,47.0,30.0,11.0,-13.0,10.0,-25.0
1701540651.810809,-36.0,-30.0,-47.0,-23.0,-16.0,8.0,-11.0,67.0
1701540651.810809,13.0,-40.0,-64.0,-26.0,-6.0,-1.0,7.0,-9.0
1701540651.8274863,11.0,26.0,102.0,28.0,10.0,5.0,2.0,1.0
1701540651.8274863,-13.0,-9.0,-122.0,-42.0,-8.0,1.0,-5.0,2.0
1701540651.8274863,5.0,-57.0,44.0,14.0,5.0,-11.0,-10.0,-20.0
1701540651.8274863,-19.0,119.0,50.0,16.0,-2.0,-2.0,4.0,3.0
1701540651.8274863,16.0,-31.0,-37.0,-20.0,-15.0,-3.0,5.0,9.0
1701540651.8274863,-9.0,32.0,39.0,24.0,26.0,1.0,-10.0,11.0
1701540651.8274863,25.0,5.0,0.0,-3.0,-6.0,-2.0,4.0,-13.0
1701540651.8274863,-27.0,0.0,-33.0,-32.0,-19.0,-1.0,0.0,1.0
1701540651.8395417,22.0,-22.0,-23.0,-1.0,6.0,1.0,6.0,-8.0
1701540651.8395417,-10.0,-38.0,1.0,9.0,-16.0,-3.0,-6.0,2.0
1701540651.8410387,16.0,-37.0,-18.0,6.0,2.0,3.0,1.0,-11.0
1701540651.8410387,-14.0,-18.0,28.0,-39.0,-27.0,-6.0,2.0,-7.0
1701540651.852638,4.0,47.0,-31.0,-13.0,-18.0,-6.0,-4.0,-2.0
1701540651.852638,6.0,-20.0,6.0,-14.0,-2.0,1.0,1.0,8.0
1701540651.8637302,8.0,-12.0,3.0,59.0,22.0,3.0,1.0,-7.0
1701540651.8637302,-9.0,-9.0,-12.0,-7.0,3.0,-4.0,-5.0,-1.0
1701540651.8976846,8.0,-17.0,-18.0,-11.0,-11.0,-1.0,3.0,-4.0
1701540651.8976846,-4.0,33.0,0.0,-23.0,-14.0,-3.0,-4.0,6.0
1701540651.8976846,8.0,38.0,11.0,-10.0,-2.0,0.0,1.0,-11.0
1701540651.8976846,-7.0,3.0,14.0,53.0,18.0,2.0,1.0,-2.0
1701540651.8987484,2.0,-46.0,-4.0,-4.0,6.0,3.0,3.0,3.0
1701540651.8987484,0.0,-33.0,26.0,-22.0,-11.0,-2.0,-1.0,-1.0
1701540651.9009426,-3.0,67.0,-39.0,-21.0,-11.0,-6.0,-4.0,-6.0
1701540651.9009426,-5.0,-52.0,-85.0,12.0,8.0,-1.0,-2.0,-2.0
1701540651.9554386,3.0,58.0,99.0,5.0,0.0,1.0,1.0,2.0
1701540651.9554386,-5.0,11.0,-38.0,0.0,14.0,1.0,-2.0,2.0
1701540651.9554386,8.0,-44.0,62.0,2.0,-1.0,2.0,5.0,-1.0
1701540651.9554386,-2.0,16.0,74.0,-4.0,-2.0,0.0,-1.0,2.0
1701540651.9554386,2.0,-9.0,-72.0,26.0,20.0,3.0,-1.0,-5.0
1701540651.9554386,-3.0,-61.0,42.0,-4.0,-8.0,-4.0,-2.0,-1.0
1701540651.9554386,1.0,78.0,-51.0,-17.0,2.0,0.0,-2.0,-3.0
1701540651.9554386,5.0,-97.0,17.0,10.0,1.0,2.0,3.0,1.0
1701540651.9565508,-8.0,56.0,-73.0,-29.0,0.0,-2.0,-1.0,-4.0
1701540651.9565508,-3.0,17.0,-1.0,6.0,-4.0,-2.0,-5.0,-1.0
1701540651.9605656,0.0,-44.0,15.0,-13.0,-3.0,1.0,1.0,0.0
1701540651.9605656,-12.0,9.0,11.0,0.0,-4.0,-6.0,-6.0,-9.0
1701540651.9739542,8.0,-23.0,-30.0,-16.0,-4.0,-1.0,2.0,0.0
1701540651.9739542,-1.0,-19.0,-1.0,0.0,0.0,-1.0,0.0,2.0
1701540651.984059,-3.0,10.0,46.0,2.0,-5.0,-1.0,0.0,-8.0
1701540651.984059,-1.0,-3.0,-44.0,22.0,2.0,1.0,-2.0,3.0
1701540652.0286844,22.0,-2.0,120.0,12.0,5.0,-1.0,1.0,-8.0
1701540652.0286844,-30.0,17.0,14.0,8.0,2.0,3.0,-1.0,27.0
1701540652.0296829,33.0,-24.0,73.0,-12.0,-6.0,-4.0,1.0,-6.0
1701540652.0296829,-5.0,17.0,103.0,37.0,12.0,4.0,2.0,0.0
1701540652.0296829,-8.0,5.0,-128.0,3.0,-3.0,-5.0,-4.0,0.0
1701540652.0296829,22.0,-1.0,101.0,19.0,0.0,-2.0,1.0,2.0
1701540652.0296829,-2.0,4.0,-41.0,-2.0,1.0,1.0,1.0,2.0
1701540652.0296829,2.0,5.0,-49.0,-37.0,4.0,3.0,3.0,3.0
1701540652.0566487,-16.0,3.0,27.0,46.0,-9.0,-7.0,-8.0,-9.0
1701540652.0566487,4.0,-5.0,-28.0,-7.0,-6.0,-3.0,-1.0,-7.0
1701540652.0566487,-3.0,15.0,-10.0,8.0,9.0,-2.0,-3.0,3.0
1701540652.0566487,-5.0,9.0,-17.0,25.0,9.0,-1.0,0.0,-6.0
1701540652.0586483,0.0,-4.0,-7.0,-38.0,-3.0,0.0,0.0,2.0
1701540652.0586483,-1.0,-11.0,-106.0,-52.0,-12.0,-3.0,1.0,-6.0
1701540652.0716312,-2.0,-5.0,13.0,23.0,-9.0,-12.0,-9.0,-6.0
1701540652.0716312,-2.0,31.0,18.0,14.0,6.0,3.0,3.0,6.0
1701540652.0818088,-3.0,-17.0,47.0,-12.0,0.0,3.0,1.0,4.0
1701540652.0818088,-2.0,20.0,-47.0,0.0,5.0,2.0,-3.0,-21.0
1701540652.084446,18.0,-27.0,-46.0,13.0,-4.0,-1.0,-2.0,-1.0
1701540652.084446,3.0,-3.0,-18.0,-31.0,-3.0,-2.0,-2.0,4.0
1701540652.1454775,-1.0,-19.0,18.0,11.0,5.0,1.0,2.0,-2.0
1701540652.1454775,-10.0,15.0,18.0,7.0,-4.0,-9.0,-8.0,-7.0
1701540652.1454775,2.0,-4.0,6.0,-7.0,8.0,9.0,8.0,14.0
1701540652.1454775,3.0,19.0,-14.0,8.0,-6.0,-5.0,-3.0,-20.0
1701540652.1526964,18.0,8.0,4.0,8.0,4.0,3.0,2.0,3.0
1701540652.1526964,6.0,-90.0,124.0,32.0,4.0,2.0,1.0,5.0
1701540652.1526964,-26.0,73.0,-61.0,-40.0,-8.0,-2.0,-6.0,-6.0
1701540652.1526964,-12.0,-8.0,-44.0,-6.0,-9.0,-6.0,-7.0,0.0
1701540652.1675837,5.0,-7.0,27.0,-20.0,-6.0,-2.0,1.0,1.0
1701540652.1675837,8.0,-5.0,10.0,34.0,17.0,6.0,4.0,1.0
1701540652.1675837,1.0,-43.0,-15.0,1.0,16.0,4.0,2.0,-1.0
1701540652.1675837,-5.0,40.0,81.0,-11.0,-7.0,-4.0,-2.0,-2.0
1701540652.168608,6.0,-32.0,2.0,0.0,-2.0,0.0,3.0,9.0
1701540652.169281,11.0,34.0,-21.0,-16.0,-12.0,-2.0,5.0,4.0
1701540652.1701145,-27.0,-7.0,10.0,1.0,-6.0,-6.0,-11.0,-8.0
1701540652.1701145,2.0,19.0,-13.0,-5.0,2.0,-6.0,-8.0,-3.0
1701540652.182356,-14.0,-33.0,9.0,0.0,3.0,2.0,-3.0,-2.0
1701540652.182356,2.0,23.0,-21.0,-20.0,-9.0,-4.0,4.0,2.0
1701540652.1861336,14.0,17.0,24.0,-2.0,-2.0,0.0,2.0,-1.0
1701540652.1861336,12.0,-25.0,-6.0,4.0,0.0,-2.0,2.0,4.0
1701540652.1971734,-33.0,16.0,-64.0,8.0,5.0,-3.0,0.0,-1.0
1701540652.1971734,11.0,56.0,6.0,-20.0,-8.0,2.0,-1.0,4.0
1701540652.2019527,-12.0,-57.0,54.0,-9.0,-3.0,0.0,-3.0,-25.0
1701540652.2019527,-11.0,13.0,0.0,0.0,-3.0,-6.0,-8.0,-4.0
1701540652.222128,17.0,-5.0,3.0,-2.0,1.0,6.0,7.0,7.0
1701540652.222128,-18.0,-21.0,27.0,4.0,-2.0,-6.0,-7.0,-9.0
1701540652.273511,-9.0,17.0,16.0,1.0,-7.0,-6.0,-4.0,1.0
1701540652.273511,4.0,5.0,35.0,-18.0,-4.0,4.0,4.0,5.0
1701540652.273511,-3.0,-23.0,22.0,18.0,4.0,-1.0,-3.0,-6.0
1701540652.273511,-7.0,-18.0,-39.0,-9.0,-3.0,3.0,-1.0,-4.0
1701540652.273511,8.0,-4.0,-44.0,-10.0,2.0,2.0,3.0,4.0
1701540652.273511,-6.0,-9.0,5.0,12.0,3.0,0.0,1.0,0.0
1701540652.2772882,4.0,32.0,13.0,-7.0,-3.0,-3.0,-4.0,-1.0
1701540652.2772882,8.0,29.0,24.0,20.0,10.0,1.0,0.0,1.0
1701540652.3036876,-5.0,10.0,-31.0,-4.0,-3.0,-1.0,0.0,6.0
1701540652.3036876,-8.0,-12.0,-75.0,-20.0,-5.0,0.0,0.0,-4.0
1701540652.3036876,-2.0,-7.0,24.0,-53.0,-17.0,-6.0,-6.0,-5.0
1701540652.3036876,18.0,-48.0,21.0,85.0,36.0,9.0,4.0,7.0
1701540652.3036876,-3.0,-5.0,-9.0,-6.0,-6.0,-3.0,-2.0,-1.0
1701540652.3036876,-5.0,53.0,-30.0,7.0,-5.0,-2.0,-2.0,-1.0
1701540652.3036876,-3.0,-13.0,-57.0,-25.0,-12.0,-5.0,-3.0,-3.0
1701540652.3036876,-6.0,-3.0,6.0,-23.0,-3.0,-2.0,-4.0,-6.0
1701540652.3046894,5.0,4.0,35.0,11.0,3.0,4.0,4.0,5.0
1701540652.3059466,-1.0,-42.0,21.0,-7.0,-4.0,-2.0,0.0,0.0
1701540652.3172963,-2.0,-2.0,17.0,-11.0,0.0,0.0,-2.0,-2.0
1701540652.3172963,-5.0,2.0,-48.0,-30.0,-15.0,-7.0,-3.0,-2.0
1701540652.321849,-1.0,-8.0,12.0,23.0,5.0,-3.0,-3.0,-2.0
1701540652.321849,3.0,-7.0,67.0,10.0,2.0,0.0,-3.0,-1.0
1701540652.3765886,10.0,33.0,-58.0,49.0,14.0,9.0,2.0,2.0
1701540652.3765886,-6.0,-28.0,-54.0,-51.0,-5.0,1.0,5.0,1.0
1701540652.3765886,-6.0,48.0,41.0,-3.0,-2.0,-4.0,0.0,-3.0
1701540652.3765886,-2.0,-45.0,-19.0,-1.0,-3.0,-11.0,-9.0,1.0
1701540652.3974767,-24.0,-56.0,5.0,-27.0,-18.0,-12.0,-11.0,-11.0
1701540652.3974767,5.0,46.0,43.0,31.0,3.0,4.0,-19.0,7.0
1701540652.3974767,-4.0,17.0,-10.0,-11.0,-4.0,0.0,-18.0,-7.0
1701540652.3974767,-3.0,-7.0,-14.0,3.0,2.0,-1.0,51.0,2.0
1701540652.3974767,18.0,-19.0,36.0,21.0,6.0,-6.0,6.0,24.0
1701540652.3974767,-7.0,-20.0,-50.0,-34.0,-13.0,4.0,-1.0,-5.0
1701540652.3974767,-7.0,-2.0,23.0,10.0,2.0,8.0,3.0,19.0
1701540652.3974767,8.0,1.0,-13.0,-5.0,5.0,4.0,-21.0,0.0
1701540652.3984737,55.0,22.0,59.0,39.0,-3.0,-18.0,18.0,-13.0
1701540652.3984737,-5.0,15.0,7.0,-1.0,-1.0,-6.0,-10.0,16.0
1701540652.403165,42.0,-22.0,-41.0,12.0,14.0,28.0,11.0,4.0
1701540652.403165,18.0,9.0,86.0,32.0,3.0,1.0,19.0,-2.0
1701540652.4175236,-6.0,-3.0,-128.0,-94.0,-19.0,-2.0,-5.0,-18.0
1701540652.4175236,-17.0,9.0,31.0,20.0,-7.0,-11.0,-6.0,-15.0
1701540652.4257157,17.0,-12.0,-11.0,-32.0,-5.0,-6.0,-6.0,17.0
1701540652.4257157,-23.0,-25.0,-11.0,7.0,8.0,3.0,-12.0,-19.0
1701540652.4658356,-14.0,32.0,92.0,59.0,9.0,8.0,-5.0,8.0
1701540652.4658356,4.0,-14.0,2.0,-4.0,3.0,-1.0,4.0,-10.0
1701540652.4668338,-36.0,9.0,-2.0,-113.0,-45.0,-19.0,-4.0,4.0
1701540652.4668338,5.0,11.0,-22.0,20.0,1.0,5.0,14.0,18.0
1701540652.4668338,-3.0,-15.0,33.0,58.0,14.0,-3.0,-13.0,-20.0
1701540652.4668338,-7.0,-6.0,-7.0,13.0,23.0,5.0,-1.0,-9.0
1701540652.4668338,-3.0,31.0,-78.0,0.0,1.0,-4.0,12.0,-3.0
1701540652.4668338,-10.0,3.0,-62.0,-81.0,-41.0,-19.0,-19.0,7.0
1701540652.5173106,4.0,33.0,12.0,-47.0,-33.0,-2.0,-2.0,1.0
1701540652.5173106,-7.0,31.0,63.0,63.0,34.0,9.0,-39.0,-3.0
1701540652.5173106,-1.0,-62.0,-79.0,-101.0,-17.0,-3.0,75.0,25.0
1701540652.5173106,-1.0,-11.0,62.0,-9.0,-2.0,-4.0,-7.0,-31.0
1701540652.5173106,-20.0,-24.0,-47.0,-24.0,-10.0,-4.0,-12.0,-11.0
1701540652.5173106,2.0,-2.0,-6.0,-20.0,-24.0,-13.0,0.0,-1.0
1701540652.518309,-4.0,14.0,105.0,69.0,7.0,-11.0,-28.0,-9.0
1701540652.518309,-5.0,0.0,-50.0,0.0,28.0,14.0,-1.0,4.0
1701540652.518309,-10.0,-6.0,-45.0,-34.0,-11.0,-2.0,-4.0,6.0
1701540652.518309,4.0,-6.0,-62.0,-11.0,-13.0,-2.0,18.0,-8.0
1701540652.523063,1.0,8.0,32.0,41.0,9.0,-6.0,-6.0,-3.0
1701540652.523063,-8.0,-6.0,-32.0,-65.0,-35.0,-14.0,-1.0,13.0
1701540652.565957,-8.0,-5.0,21.0,27.0,16.0,11.0,-25.0,-36.0
1701540652.565957,4.0,-11.0,30.0,39.0,7.0,-3.0,-1.0,-3.0
1701540652.565957,-6.0,-19.0,-42.0,11.0,20.0,4.0,-5.0,-10.0
1701540652.565957,13.0,-1.0,22.0,29.0,2.0,3.0,-15.0,22.0
1701540652.5669723,17.0,-3.0,-8.0,10.0,18.0,1.0,4.0,21.0
1701540652.5669723,-10.0,-8.0,4.0,-19.0,13.0,27.0,35.0,22.0
1701540652.5669723,-16.0,-18.0,6.0,2.0,-16.0,0.0,-98.0,-89.0
1701540652.5669723,8.0,2.0,27.0,13.0,-18.0,-38.0,48.0,10.0
1701540652.5791607,-15.0,9.0,12.0,10.0,7.0,-23.0,-3.0,21.0
1701540652.5791607,6.0,2.0,1.0,-30.0,-7.0,52.0,15.0,21.0
1701540652.6332905,1.0,9.0,29.0,15.0,23.0,7.0,7.0,10.0
1701540652.6332905,4.0,-2.0,1.0,22.0,-1.0,6.0,-19.0,-7.0
1701540652.6332905,1.0,-1.0,12.0,-64.0,-36.0,-22.0,4.0,4.0
1701540652.6332905,-4.0,0.0,-49.0,15.0,9.0,-17.0,1.0,-9.0
1701540652.6332905,-24.0,4.0,-8.0,14.0,-13.0,5.0,2.0,1.0
1701540652.6332905,16.0,5.0,16.0,23.0,37.0,-16.0,-11.0,1.0
1701540652.6332905,-7.0,-9.0,-27.0,16.0,10.0,35.0,24.0,8.0
1701540652.6332905,4.0,-3.0,18.0,-53.0,-7.0,20.0,-13.0,-9.0
1701540652.6332905,-13.0,-2.0,10.0,20.0,-9.0,-13.0,11.0,3.0
1701540652.6332905,0.0,-2.0,-21.0,-11.0,-22.0,-11.0,1.0,6.0
1701540652.6332905,-5.0,1.0,15.0,-24.0,-5.0,-20.0,-9.0,-7.0
1701540652.6332905,2.0,2.0,0.0,3.0,-8.0,-3.0,-4.0,-7.0
1701540652.643503,6.0,7.0,14.0,15.0,8.0,5.0,6.0,6.0
1701540652.643503,-11.0,-11.0,22.0,-8.0,5.0,2.0,-7.0,-6.0
1701540652.6853974,5.0,1.0,8.0,-23.0,-11.0,-3.0,-3.0,1.0
1701540652.6853974,2.0,7.0,-7.0,9.0,-38.0,-64.0,3.0,0.0
1701540652.6853974,3.0,13.0,-29.0,-20.0,10.0,29.0,11.0,7.0
1701540652.6853974,-22.0,-5.0,18.0,36.0,88.0,76.0,-2.0,-9.0
1701540652.6853974,14.0,-21.0,25.0,41.0,9.0,-60.0,0.0,0.0
1701540652.6853974,11.0,13.0,22.0,-8.0,-29.0,47.0,13.0,5.0
1701540652.6865058,-1.0,-2.0,-28.0,39.0,23.0,-45.0,-5.0,0.0
1701540652.6865058,4.0,12.0,52.0,10.0,41.0,39.0,-14.0,-6.0
1701540652.6978333,-10.0,-16.0,-58.0,4.0,16.0,43.0,36.0,-1.0
1701540652.6978333,-10.0,-4.0,7.0,-19.0,-9.0,-54.0,-12.0,-5.0
1701540652.703776,16.0,7.0,3.0,-31.0,-40.0,-27.0,-2.0,1.0
1701540652.703776,-13.0,-4.0,-89.0,-24.0,-45.0,-29.0,-23.0,-13.0
1701540652.7518303,9.0,5.0,25.0,23.0,7.0,4.0,-28.0,9.0
1701540652.7518303,-16.0,9.0,29.0,-31.0,-15.0,-56.0,-24.0,-6.0
1701540652.7518303,-23.0,-4.0,-6.0,-5.0,-1.0,89.0,63.0,6.0
1701540652.7518303,30.0,-16.0,-20.0,4.0,0.0,4.0,30.0,-1.0
1701540652.7518303,11.0,-10.0,15.0,24.0,4.0,22.0,38.0,30.0
1701540652.7518303,6.0,-7.0,0.0,23.0,19.0,17.0,-8.0,4.0
1701540652.7692003,-5.0,18.0,-53.0,-24.0,4.0,-69.0,-62.0,-19.0
1701540652.7692003,-62.0,2.0,19.0,0.0,-23.0,-4.0,-59.0,-21.0
1701540652.7692003,36.0,-6.0,38.0,19.0,8.0,42.0,60.0,29.0
1701540652.7692003,7.0,-22.0,-74.0,-4.0,8.0,-9.0,9.0,4.0
1701540652.7692003,-21.0,0.0,6.0,1.0,9.0,-22.0,-39.0,3.0
1701540652.7692003,-16.0,-62.0,3.0,21.0,-21.0,-73.0,-106.0,-6.0
1701540652.789606,-40.0,117.0,98.0,-13.0,-17.0,59.0,53.0,-63.0
1701540652.789606,-33.0,-37.0,-48.0,-9.0,14.0,39.0,69.0,0.0
1701540652.789606,92.0,0.0,-26.0,19.0,9.0,17.0,18.0,44.0
1701540652.789606,-2.0,2.0,25.0,-35.0,-20.0,-20.0,-19.0,24.0
1701540652.7955103,-60.0,-33.0,-12.0,4.0,1.0,-67.0,-122.0,-27.0
1701540652.7955103,26.0,-22.0,8.0,-11.0,-7.0,-1.0,0.0,-1.0
1701540652.844529,-11.0,-34.0,37.0,8.0,-6.0,21.0,-14.0,-24.0
1701540652.844529,7.0,36.0,0.0,-16.0,3.0,1.0,77.0,11.0
1701540652.8590534,21.0,-20.0,-46.0,-19.0,-8.0,-3.0,-29.0,1.0
1701540652.8590534,-6.0,31.0,7.0,-11.0,-9.0,-11.0,6.0,4.0
1701540652.8600514,-10.0,-7.0,13.0,3.0,-3.0,-61.0,-16.0,-24.0
1701540652.8600514,16.0,23.0,9.0,11.0,2.0,82.0,32.0,18.0
1701540652.8654268,-2.0,-32.0,-8.0,6.0,34.0,19.0,5.0,1.0
1701540652.8654268,-13.0,-24.0,-18.0,-4.0,5.0,20.0,4.0,11.0
1701540652.8654268,4.0,-4.0,40.0,-2.0,-41.0,-55.0,15.0,31.0
1701540652.8654268,17.0,26.0,-10.0,-6.0,8.0,-19.0,-5.0,-29.0
1701540652.8654268,-71.0,-11.0,-27.0,-25.0,-54.0,-42.0,-18.0,4.0
1701540652.8654268,10.0,39.0,21.0,24.0,35.0,11.0,-16.0,-20.0
1701540652.8664284,1.0,-13.0,1.0,-33.0,12.0,109.0,-29.0,-63.0
1701540652.8664284,-1.0,-4.0,1.0,22.0,40.0,-20.0,20.0,19.0
1701540652.894453,13.0,-21.0,-28.0,-13.0,-53.0,-65.0,-9.0,15.0
1701540652.894453,3.0,5.0,16.0,7.0,-58.0,-54.0,0.0,28.0
1701540652.894453,-3.0,22.0,13.0,-37.0,-17.0,45.0,26.0,15.0
1701540652.894453,15.0,-1.0,-9.0,-17.0,4.0,-45.0,8.0,-9.0
1701540652.8989437,8.0,20.0,27.0,25.0,77.0,120.0,1.0,4.0
1701540652.8989437,1.0,-29.0,-48.0,-1.0,50.0,-38.0,-11.0,-19.0
1701540652.9056642,-4.0,-10.0,18.0,-1.0,-35.0,-40.0,10.0,5.0
1701540652.9056642,-15.0,-10.0,5.0,-9.0,-51.0,-16.0,-19.0,-14.0
1701540652.9166913,20.0,1.0,-14.0,-11.0,-29.0,-47.0,18.0,1.0
1701540652.9184053,-7.0,30.0,15.0,-2.0,-16.0,8.0,-55.0,-10.0
1701540652.9194376,-11.0,6.0,4.0,28.0,27.0,-12.0,1.0,-11.0
1701540652.9194376,-17.0,-2.0,-15.0,-16.0,-5.0,56.0,71.0,29.0
1701540652.9386988,18.0,11.0,3.0,26.0,41.0,8.0,13.0,-4.0
1701540652.9386988,14.0,-3.0,-1.0,-13.0,12.0,34.0,1.0,-5.0
1701540652.944111,-9.0,1.0,1.0,5.0,-5.0,-53.0,-30.0,7.0
1701540652.944111,7.0,5.0,9.0,13.0,-8.0,23.0,-3.0,-13.0
1701540653.007471,-14.0,-3.0,-9.0,-14.0,-7.0,-18.0,-25.0,-11.0
1701540653.007471,5.0,-8.0,14.0,-4.0,-2.0,-6.0,19.0,3.0
1701540653.0084705,5.0,-19.0,1.0,11.0,19.0,18.0,-7.0,7.0
1701540653.0084705,7.0,-13.0,-5.0,-20.0,-15.0,-12.0,9.0,17.0
1701540653.0328918,-5.0,-8.0,0.0,10.0,-7.0,21.0,-35.0,-26.0
1701540653.0328918,-10.0,-19.0,4.0,19.0,14.0,-28.0,-13.0,-38.0
1701540653.0328918,-7.0,9.0,5.0,0.0,-39.0,-38.0,20.0,1.0
1701540653.0328918,3.0,9.0,-17.0,-30.0,15.0,43.0,-5.0,15.0
1701540653.0328918,2.0,15.0,7.0,62.0,62.0,3.0,18.0,4.0
1701540653.0328918,-1.0,9.0,7.0,-22.0,-17.0,-13.0,-12.0,5.0
1701540653.0328918,5.0,17.0,1.0,3.0,7.0,17.0,13.0,3.0
1701540653.0328918,-3.0,-28.0,1.0,-11.0,-27.0,-12.0,-14.0,-10.0
1701540653.0328918,10.0,-4.0,-4.0,-29.0,-22.0,-37.0,8.0,9.0
1701540653.0328918,-3.0,9.0,2.0,11.0,15.0,35.0,-5.0,-3.0
1701540653.0328918,-1.0,13.0,-3.0,-22.0,-4.0,14.0,5.0,11.0
1701540653.0328918,-3.0,34.0,1.0,6.0,-21.0,-58.0,-4.0,-6.0
1701540653.0451534,3.0,70.0,-5.0,-4.0,19.0,8.0,-11.0,-13.0
1701540653.0451534,5.0,-6.0,7.0,-1.0,6.0,62.0,14.0,6.0
1701540653.0462437,-1.0,-24.0,1.0,9.0,7.0,-24.0,6.0,27.0
1701540653.0462437,-3.0,-95.0,0.0,14.0,-17.0,-3.0,-3.0,-32.0
1701540653.0684276,5.0,-66.0,-8.0,34.0,-4.0,-32.0,-8.0,3.0
1701540653.0684276,-4.0,22.0,-3.0,-95.0,-3.0,-13.0,-4.0,3.0
1701540653.0710342,-1.0,-8.0,5.0,80.0,25.0,34.0,7.0,-5.0
1701540653.0710342,-4.0,47.0,-2.0,31.0,5.0,-21.0,-13.0,0.0
1701540653.0850418,3.0,53.0,3.0,-2.0,11.0,-7.0,0.0,4.0
1701540653.0850418,-8.0,-5.0,0.0,22.0,18.0,30.0,-6.0,-2.0
1701540653.0862362,-2.0,-45.0,3.0,2.0,7.0,-9.0,-1.0,-3.0
1701540653.0862362,10.0,50.0,-4.0,-37.0,-10.0,-7.0,-4.0,-5.0
1701540653.130447,-4.0,-14.0,1.0,-13.0,-38.0,-10.0,-9.0,-5.0
1701540653.1316445,-4.0,56.0,-2.0,16.0,-11.0,-8.0,-9.0,4.0
1701540653.14368,-1.0,9.0,-8.0,-8.0,8.0,2.0,15.0,-1.0
1701540653.14368,-1.0,0.0,15.0,9.0,17.0,14.0,-3.0,0.0
1701540653.14368,0.0,-13.0,-54.0,-56.0,-30.0,-2.0,-2.0,-1.0
1701540653.14368,-2.0,-33.0,10.0,0.0,-13.0,-25.0,-6.0,-1.0
1701540653.14368,2.0,3.0,-29.0,0.0,17.0,13.0,9.0,-16.0
1701540653.14368,-12.0,-11.0,10.0,12.0,15.0,17.0,11.0,3.0
1701540653.14368,-2.0,-3.0,11.0,-13.0,7.0,0.0,-5.0,-4.0
1701540653.14368,-2.0,-6.0,25.0,-7.0,-27.0,-9.0,6.0,2.0
1701540653.1459818,-1.0,21.0,0.0,12.0,5.0,-11.0,-17.0,-11.0
1701540653.1459818,7.0,-8.0,1.0,-10.0,15.0,6.0,-2.0,1.0
1701540653.1609442,-3.0,-49.0,8.0,6.0,-6.0,9.0,12.0,7.0
1701540653.1609442,-3.0,27.0,30.0,34.0,-4.0,-14.0,-7.0,3.0
1701540653.1940718,2.0,14.0,-46.0,-87.0,-52.0,-18.0,-16.0,-14.0
1701540653.1944034,3.0,-62.0,-6.0,52.0,44.0,10.0,3.0,3.0
1701540653.2204924,-2.0,99.0,7.0,-3.0,0.0,0.0,-4.0,-6.0
1701540653.2204924,3.0,-62.0,3.0,12.0,2.0,-11.0,-1.0,0.0
1701540653.2204924,-7.0,25.0,19.0,7.0,0.0,7.0,0.0,7.0
1701540653.2204924,7.0,9.0,-16.0,-49.0,-23.0,-8.0,2.0,6.0
1701540653.2241628,6.0,-76.0,-7.0,-18.0,-5.0,-4.0,-5.0,-14.0
1701540653.2241628,-18.0,-2.0,-6.0,6.0,14.0,10.0,6.0,-3.0
1701540653.226823,1.0,-24.0,11.0,14.0,8.0,8.0,-8.0,-2.0
1701540653.228287,-6.0,2.0,-16.0,9.0,-6.0,-2.0,1.0,0.0
1701540653.2468605,4.0,7.0,4.0,-19.0,-5.0,3.0,10.0,24.0
1701540653.2468605,4.0,4.0,-30.0,-10.0,-15.0,-14.0,-15.0,-30.0
1701540653.2468605,-8.0,3.0,-12.0,-8.0,10.0,-2.0,-3.0,3.0
1701540653.2468605,3.0,-3.0,33.0,7.0,-10.0,-10.0,-16.0,-6.0
1701540653.2468605,3.0,-32.0,-5.0,72.0,37.0,22.0,12.0,4.0
1701540653.2468605,2.0,77.0,4.0,-2.0,12.0,1.0,1.0,6.0
1701540653.2478607,8.0,-56.0,17.0,5.0,-22.0,-16.0,-16.0,-14.0
1701540653.2478607,-39.0,19.0,-12.0,25.0,14.0,-2.0,2.0,-4.0
1701540653.3066814,0.0,-15.0,23.0,-112.0,-48.0,-21.0,-7.0,-4.0
1701540653.3066814,-9.0,-84.0,-98.0,64.0,24.0,2.0,5.0,8.0
1701540653.3066814,8.0,23.0,44.0,15.0,23.0,13.0,7.0,4.0
1701540653.3066814,2.0,52.0,11.0,-7.0,-40.0,-15.0,-11.0,-10.0
1701540653.3066814,-4.0,7.0,-8.0,19.0,33.0,19.0,2.0,2.0
1701540653.3066814,4.0,6.0,6.0,17.0,1.0,-3.0,0.0,2.0
1701540653.3066814,6.0,57.0,24.0,-26.0,2.0,1.0,0.0,7.0
1701540653.3066814,-9.0,-79.0,-31.0,-4.0,-2.0,-2.0,-5.0,-6.0
1701540653.3066814,-8.0,56.0,13.0,-35.0,-28.0,-19.0,-9.0,-6.0
1701540653.3066814,13.0,-34.0,-10.0,-51.0,3.0,26.0,13.0,11.0
1701540653.3096952,-3.0,48.0,24.0,116.0,65.0,10.0,6.0,-11.0
1701540653.3096952,-9.0,-8.0,19.0,-20.0,-12.0,0.0,-2.0,0.0
1701540653.3677464,4.0,-18.0,2.0,36.0,-3.0,-1.0,-2.0,1.0
1701540653.3677464,1.0,-19.0,18.0,-63.0,-46.0,-22.0,-8.0,-1.0
1701540653.3677464,-9.0,-24.0,-16.0,4.0,2.0,21.0,28.0,13.0
1701540653.3677464,30.0,5.0,-25.0,9.0,16.0,15.0,16.0,44.0
1701540653.3677464,-35.0,-26.0,5.0,6.0,-4.0,-16.0,-40.0,-69.0
1701540653.3677464,7.0,35.0,10.0,-26.0,-10.0,-8.0,-15.0,-15.0
1701540653.3687449,-9.0,-29.0,-6.0,-61.0,-32.0,-15.0,-9.0,-3.0
1701540653.3687449,15.0,-5.0,17.0,28.0,-8.0,6.0,21.0,4.0
1701540653.3687449,15.0,53.0,21.0,-31.0,12.0,13.0,30.0,38.0
1701540653.3687449,-14.0,-16.0,-38.0,17.0,-1.0,-10.0,-12.0,-9.0
1701540653.3712633,-1.0,6.0,-31.0,-17.0,-2.0,-3.0,2.0,-4.0
1701540653.3712633,4.0,-17.0,0.0,2.0,-11.0,-7.0,-6.0,-5.0
1701540653.4120822,13.0,-45.0,-11.0,26.0,-19.0,-4.0,6.0,8.0
1701540653.4120822,-16.0,0.0,40.0,12.0,17.0,4.0,-6.0,-12.0
1701540653.4120822,22.0,34.0,24.0,8.0,-19.0,-11.0,-4.0,8.0
1701540653.4120822,-39.0,-2.0,-61.0,-25.0,23.0,-1.0,-2.0,-9.0
1701540653.4131956,9.0,-22.0,-6.0,23.0,-6.0,3.0,-1.0,1.0
1701540653.4145539,0.0,36.0,42.0,9.0,-6.0,-9.0,10.0,7.0
1701540653.4154558,-2.0,-6.0,-2.0,-28.0,-12.0,-9.0,-5.0,0.0
1701540653.4154558,8.0,17.0,24.0,-7.0,10.0,11.0,-10.0,-13.0
1701540653.4175663,-4.0,-17.0,18.0,5.0,9.0,11.0,5.0,4.0
1701540653.4175663,0.0,-16.0,-6.0,-12.0,-9.0,-8.0,2.0,8.0
1701540653.4686422,-2.0,4.0,7.0,18.0,5.0,0.0,1.0,3.0
1701540653.4686422,3.0,-4.0,-5.0,-71.0,-24.0,-14.0,-17.0,-18.0
1701540653.4686422,-1.0,-35.0,-31.0,62.0,10.0,6.0,11.0,10.0
1701540653.4686422,10.0,-39.0,20.0,25.0,24.0,11.0,8.0,6.0
1701540653.4686422,-14.0,53.0,-2.0,-19.0,-27.0,-8.0,-9.0,-17.0
1701540653.4686422,-6.0,33.0,-4.0,34.0,11.0,-1.0,-5.0,-7.0
1701540653.4696417,2.0,-15.0,-24.0,-43.0,-21.0,-2.0,1.0,2.0
1701540653.4696417,-5.0,-51.0,9.0,-47.0,-32.0,-14.0,-7.0,-3.0
1701540653.4696417,-4.0,-31.0,-44.0,-3.0,7.0,1.0,-3.0,-6.0
1701540653.4696417,11.0,26.0,-17.0,-12.0,-2.0,-1.0,1.0,3.0
1701540653.4797225,-8.0,11.0,38.0,19.0,16.0,-3.0,-14.0,-2.0
1701540653.4797225,-1.0,1.0,-101.0,-76.0,-46.0,-17.0,0.0,1.0
1701540653.530714,-1.0,-52.0,7.0,75.0,69.0,25.0,3.0,3.0
1701540653.530714,16.0,2.0,44.0,4.0,-9.0,-1.0,-1.0,-4.0
1701540653.530714,-11.0,33.0,-22.0,-46.0,-4.0,1.0,9.0,5.0
1701540653.5317152,12.0,-44.0,51.0,28.0,20.0,9.0,-5.0,1.0
1701540653.5317152,-3.0,69.0,-14.0,-62.0,-47.0,-7.0,-2.0,0.0
1701540653.5317152,-3.0,-7.0,-3.0,-15.0,-3.0,-8.0,-7.0,-5.0
1701540653.5350156,10.0,-8.0,-2.0,39.0,16.0,3.0,-5.0,-10.0
1701540653.5350156,-28.0,31.0,-14.0,24.0,14.0,-5.0,-3.0,-5.0
1701540653.5350156,4.0,-47.0,19.0,8.0,3.0,7.0,5.0,6.0
1701540653.5350156,0.0,-25.0,-15.0,-1.0,1.0,-4.0,-9.0,-8.0
1701540653.5466573,-2.0,22.0,20.0,-56.0,-7.0,-11.0,-4.0,0.0
1701540653.547655,5.0,7.0,1.0,28.0,-7.0,0.0,5.0,0.0
1701540653.5538619,-2.0,-29.0,-14.0,9.0,17.0,8.0,1.0,0.0
1701540653.5538619,9.0,7.0,2.0,1.0,2.0,4.0,5.0,6.0
1701540653.5687582,1.0,-6.0,-26.0,-21.0,-14.0,-6.0,-1.0,-3.0
1701540653.5687582,-1.0,16.0,22.0,13.0,14.0,-1.0,-6.0,-4.0
1701540653.574108,-4.0,-20.0,-7.0,-5.0,-5.0,7.0,2.0,1.0
1701540653.574108,-1.0,1.0,34.0,7.0,-6.0,0.0,1.0,-2.0
1701540653.585605,0.0,9.0,-53.0,-13.0,-14.0,-4.0,-3.0,1.0
1701540653.585605,-1.0,-15.0,1.0,-75.0,-27.0,0.0,-5.0,-5.0
1701540653.58898,0.0,-20.0,-2.0,65.0,21.0,-13.0,-1.0,1.0
1701540653.58898,0.0,28.0,16.0,18.0,5.0,0.0,-5.0,-3.0
1701540653.6343086,-16.0,0.0,8.0,25.0,9.0,5.0,-1.0,0.0
1701540653.6343086,-18.0,8.0,-2.0,-46.0,-28.0,-13.0,-5.0,-6.0
1701540653.6343086,0.0,-6.0,-25.0,-7.0,-18.0,-7.0,2.0,1.0
1701540653.6343086,-1.0,-65.0,-22.0,-44.0,-3.0,-2.0,-3.0,-3.0
1701540653.6343086,9.0,54.0,30.0,52.0,36.0,9.0,7.0,2.0
1701540653.6343086,4.0,40.0,10.0,36.0,4.0,5.0,1.0,2.0
1701540653.6343086,-8.0,-26.0,16.0,-56.0,-20.0,-1.0,-1.0,1.0
1701540653.6343086,-8.0,30.0,16.0,2.0,-6.0,-9.0,-8.0,-9.0
1701540653.6460843,4.0,-86.0,23.0,3.0,-4.0,0.0,-5.0,-1.0
1701540653.6460843,-3.0,72.0,-91.0,-8.0,7.0,6.0,2.0,0.0
1701540653.648438,6.0,94.0,39.0,5.0,1.0,0.0,-2.0,-2.0
1701540653.648438,-21.0,-19.0,-5.0,-21.0,0.0,0.0,6.0,8.0
1701540653.6908193,-1.0,-36.0,-4.0,-50.0,-37.0,-18.0,4.0,1.0
1701540653.6908193,7.0,-35.0,29.0,80.0,29.0,16.0,4.0,-1.0
1701540653.6908193,-5.0,-45.0,-18.0,-76.0,-15.0,-6.0,-7.0,-6.0
1701540653.6908193,11.0,-3.0,-14.0,66.0,27.0,13.0,3.0,-2.0
1701540653.6908193,1.0,14.0,-3.0,-26.0,-18.0,-16.0,0.0,3.0
1701540653.6908193,-3.0,2.0,26.0,-11.0,-16.0,-6.0,-5.0,-5.0
1701540653.6918821,2.0,17.0,-54.0,-24.0,-13.0,-4.0,0.0,-1.0
1701540653.6918821,-2.0,0.0,-5.0,-43.0,-24.0,-5.0,-1.0,1.0
1701540653.7078173,-3.0,12.0,-1.0,0.0,-3.0,2.0,1.0,-2.0
1701540653.7078173,6.0,1.0,49.0,22.0,6.0,-6.0,-7.0,-2.0
1701540653.7098677,-2.0,-39.0,-22.0,8.0,11.0,4.0,-2.0,-1.0
1701540653.7098677,0.0,60.0,1.0,2.0,5.0,-1.0,0.0,0.0
1701540653.755407,-5.0,13.0,5.0,41.0,-10.0,-1.0,-8.0,-7.0
1701540653.755407,2.0,10.0,-5.0,-98.0,12.0,-3.0,7.0,6.0
1701540653.755407,-3.0,-33.0,33.0,51.0,6.0,4.0,-1.0,-3.0
1701540653.755407,3.0,-64.0,2.0,83.0,52.0,9.0,3.0,5.0
1701540653.755407,-7.0,99.0,-36.0,-17.0,0.0,-3.0,-11.0,-9.0
1701540653.755407,3.0,-6.0,-1.0,-40.0,-17.0,-11.0,3.0,2.0
1701540653.755407,-2.0,-1.0,9.0,14.0,-17.0,-4.0,-2.0,-2.0
1701540653.755407,0.0,2.0,-10.0,-71.0,-16.0,-6.0,4.0,0.0
1701540653.7672908,-1.0,-92.0,0.0,40.0,48.0,24.0,6.0,0.0
1701540653.7672908,-1.0,60.0,19.0,18.0,2.0,-3.0,-5.0,1.0
1701540653.7678227,-2.0,22.0,34.0,-4.0,-12.0,-9.0,1.0,1.0
1701540653.7678227,-3.0,34.0,-53.0,-17.0,-35.0,-16.0,-9.0,-6.0
1701540653.8101234,1.0,-7.0,34.0,-45.0,-23.0,-9.0,-3.0,1.0
1701540653.8101234,-3.0,-104.0,-45.0,-52.0,-16.0,8.0,3.0,-2.0
1701540653.8101234,5.0,-24.0,9.0,78.0,52.0,1.0,3.0,0.0
1701540653.8101234,-10.0,63.0,53.0,-13.0,-21.0,13.0,0.0,-3.0
1701540653.8101234,2.0,5.0,-60.0,-27.0,13.0,0.0,-2.0,-1.0
1701540653.8101234,0.0,7.0,4.0,-28.0,-51.0,-25.0,-5.0,0.0
1701540653.8101234,-7.0,-61.0,-12.0,-106.0,-74.0,-8.0,-5.0,-4.0
1701540653.8111224,15.0,22.0,34.0,30.0,21.0,20.0,21.0,12.0
1701540653.8274128,0.0,49.0,-35.0,-44.0,-54.0,-13.0,-10.0,-8.0
1701540653.8274128,-26.0,-72.0,2.0,7.0,-9.0,-1.0,-10.0,-6.0
1701540653.8286264,-2.0,10.0,-13.0,-62.0,-36.0,-19.0,-8.0,-4.0
1701540653.8286264,3.0,35.0,-2.0,51.0,24.0,-4.0,8.0,4.0
1701540653.8732393,-1.0,-53.0,42.0,8.0,14.0,22.0,3.0,1.0
1701540653.8732393,12.0,0.0,-15.0,68.0,30.0,9.0,4.0,1.0
1701540653.8732393,3.0,-1.0,24.0,-15.0,16.0,5.0,5.0,8.0
1701540653.8732393,-4.0,-25.0,-30.0,-16.0,-15.0,-15.0,-17.0,-15.0
1701540653.8732393,7.0,49.0,14.0,-49.0,-67.0,-27.0,14.0,8.0
1701540653.8732393,7.0,-42.0,29.0,106.0,112.0,54.0,22.0,16.0
1701540653.8732393,-6.0,-22.0,58.0,35.0,23.0,3.0,-9.0,-15.0
1701540653.8732393,2.0,-10.0,-93.0,-83.0,-32.0,-9.0,-5.0,-4.0
1701540653.9085033,-10.0,-29.0,74.0,-19.0,-10.0,-8.0,0.0,2.0
1701540653.9085033,-3.0,32.0,10.0,-25.0,-40.0,-12.0,-5.0,-2.0
1701540653.9085033,-2.0,41.0,-80.0,-17.0,1.0,4.0,5.0,3.0
1701540653.9085033,0.0,-42.0,37.0,36.0,11.0,-4.0,-6.0,-3.0
1701540653.9085033,1.0,3.0,-12.0,13.0,22.0,10.0,-5.0,-5.0
1701540653.9085033,2.0,81.0,-14.0,2.0,-37.0,-17.0,-1.0,-5.0
1701540653.9106135,2.0,-6.0,19.0,65.0,71.0,24.0,-3.0,-1.0
1701540653.9116125,-6.0,-45.0,46.0,-9.0,-22.0,-10.0,-12.0,-9.0
1701540653.931624,-9.0,0.0,12.0,-9.0,-24.0,-11.0,-3.0,4.0
1701540653.931624,25.0,-57.0,-58.0,89.0,96.0,30.0,-2.0,-6.0
1701540653.9329262,0.0,62.0,62.0,-20.0,-47.0,-16.0,-1.0,2.0
1701540653.9329262,-7.0,-5.0,23.0,-66.0,-40.0,-13.0,-10.0,-4.0
1701540653.9761233,-16.0,1.0,-67.0,-31.0,28.0,7.0,7.0,1.0
1701540653.9761233,3.0,-30.0,45.0,46.0,-21.0,-1.0,-2.0,2.0
1701540653.9771214,14.0,18.0,18.0,30.0,26.0,8.0,2.0,5.0
1701540653.9771214,-5.0,35.0,31.0,-23.0,9.0,3.0,1.0,-1.0
1701540653.9771214,2.0,-41.0,-25.0,1.0,-12.0,-4.0,-1.0,-1.0
1701540653.9771214,-7.0,9.0,-7.0,-90.0,-40.0,-19.0,-6.0,-4.0
1701540653.9831564,2.0,-47.0,-46.0,-31.0,-18.0,7.0,-5.0,1.0
1701540653.9831564,-1.0,-20.0,7.0,68.0,45.0,15.0,-1.0,-6.0
1701540653.9842007,0.0,19.0,91.0,87.0,63.0,12.0,-1.0,-4.0
1701540653.9842007,-5.0,40.0,-28.0,-21.0,-23.0,-5.0,1.0,-3.0
1701540653.9859185,-5.0,7.0,-59.0,-44.0,-19.0,-15.0,-2.0,-1.0
1701540653.9859185,0.0,-13.0,51.0,-35.0,-65.0,-11.0,-2.0,2.0
1701540654.0404608,4.0,-31.0,-14.0,65.0,83.0,26.0,0.0,0.0
1701540654.0404608,-1.0,6.0,-8.0,100.0,82.0,6.0,4.0,0.0
1701540654.0404608,-7.0,57.0,38.0,-32.0,-22.0,-8.0,-3.0,-4.0
1701540654.0404608,3.0,-24.0,-49.0,-38.0,-21.0,-8.0,2.0,5.0
1701540654.0404608,-1.0,2.0,-26.0,-44.0,-33.0,0.0,-3.0,-4.0
1701540654.0404608,-10.0,-12.0,55.0,-25.0,-36.0,-9.0,-3.0,-2.0
1701540654.0404608,6.0,-6.0,-68.0,-10.0,7.0,-3.0,0.0,3.0
1701540654.0404608,-2.0,2.0,8.0,48.0,29.0,17.0,7.0,1.0
1701540654.059641,-3.0,-3.0,-49.0,-19.0,-21.0,-7.0,-7.0,-7.0
1701540654.059641,11.0,8.0,55.0,-40.0,-10.0,2.0,7.0,16.0
1701540654.059641,-7.0,21.0,-39.0,14.0,-13.0,-5.0,-2.0,-6.0
1701540654.059641,3.0,-49.0,-12.0,2.0,-25.0,-22.0,-10.0,-2.0
1701540654.0616543,-2.0,66.0,23.0,111.0,72.0,35.0,6.0,9.0
1701540654.0616543,-11.0,35.0,18.0,-39.0,-29.0,-10.0,-11.0,-12.0
1701540654.0679247,-5.0,-41.0,15.0,-41.0,-13.0,1.0,0.0,-3.0
1701540654.0679247,0.0,-33.0,80.0,10.0,-5.0,1.0,0.0,-1.0
1701540654.0801961,-2.0,-24.0,-61.0,-110.0,-60.0,-14.0,-9.0,-5.0
1701540654.0801961,-3.0,-30.0,-14.0,97.0,31.0,6.0,-1.0,-3.0
1701540654.0900156,4.0,49.0,69.0,17.0,21.0,4.0,4.0,5.0
1701540654.0900156,-5.0,17.0,-41.0,-8.0,5.0,-2.0,-6.0,-5.0
1701540654.1442611,1.0,8.0,27.0,-101.0,-90.0,-33.0,-7.0,-1.0
1701540654.145595,-1.0,-55.0,-43.0,25.0,0.0,4.0,-4.0,-7.0
1701540654.1494548,-6.0,-32.0,3.0,-25.0,-24.0,3.0,-3.0,-6.0
1701540654.1494548,6.0,42.0,21.0,-9.0,5.0,5.0,3.0,5.0
1701540654.1494548,22.0,-17.0,-29.0,-27.0,-3.0,-3.0,0.0,6.0
1701540654.1494548,-18.0,22.0,-24.0,-118.0,-60.0,-24.0,-12.0,-9.0
1701540654.1494548,9.0,-20.0,47.0,89.0,16.0,0.0,2.0,3.0
1701540654.1494548,-1.0,3.0,-123.0,-37.0,-13.0,-10.0,-3.0,-2.0
1701540654.150566,-7.0,19.0,-21.0,74.0,68.0,25.0,14.0,5.0
1701540654.150566,9.0,-5.0,-12.0,-15.0,22.0,7.0,6.0,2.0
1701540654.1590626,-8.0,1.0,-9.0,-1.0,-5.0,-10.0,-4.0,-1.0
1701540654.1590626,-3.0,7.0,46.0,-33.0,-15.0,-5.0,-23.0,-7.0
1701540654.161059,-1.0,-8.0,-38.0,-8.0,-26.0,-13.0,6.0,-6.0
1701540654.161059,-6.0,-15.0,21.0,92.0,72.0,36.0,11.0,3.0
1701540654.1725655,-3.0,-35.0,-2.0,5.0,27.0,2.0,-3.0,-4.0
1701540654.1725655,13.0,8.0,-12.0,-19.0,-10.0,-9.0,1.0,4.0
1701540654.229382,-5.0,22.0,14.0,-80.0,-24.0,-18.0,-8.0,-4.0
1701540654.229382,0.0,37.0,55.0,-51.0,-56.0,-15.0,-8.0,-2.0
1701540654.229382,-7.0,-27.0,4.0,52.0,37.0,27.0,1.0,-8.0
1701540654.229382,-8.0,-59.0,-21.0,0.0,63.0,15.0,4.0,0.0
1701540654.229382,5.0,24.0,51.0,77.0,-10.0,-6.0,6.0,9.0
1701540654.229382,0.0,17.0,-26.0,-60.0,-33.0,-20.0,-8.0,-9.0
1701540654.2304158,9.0,21.0,-20.0,-76.0,-59.0,-25.0,-1.0,2.0
1701540654.2304158,-1.0,-19.0,24.0,94.0,25.0,23.0,5.0,-2.0
1701540654.269131,-13.0,-43.0,43.0,27.0,39.0,23.0,6.0,2.0
1701540654.2701368,-3.0,43.0,-19.0,7.0,5.0,-8.0,-13.0,-19.0
1701540654.2766976,3.0,9.0,-29.0,-10.0,-23.0,-10.0,0.0,-5.0
1701540654.2766976,9.0,38.0,-28.0,-96.0,-82.0,-27.0,15.0,7.0
1701540654.2766976,18.0,-39.0,25.0,104.0,88.0,54.0,6.0,9.0
1701540654.2766976,1.0,0.0,20.0,4.0,-4.0,-4.0,6.0,7.0
1701540654.2766976,-5.0,-18.0,-20.0,-22.0,-21.0,-3.0,-3.0,2.0
1701540654.2766976,-5.0,0.0,3.0,-14.0,-31.0,-14.0,8.0,10.0
1701540654.2943163,-3.0,-15.0,-61.0,-110.0,-15.0,-13.0,-14.0,-35.0
1701540654.2943163,0.0,-11.0,-14.0,75.0,54.0,26.0,-5.0,-1.0
1701540654.2943163,-4.0,-16.0,19.0,-9.0,10.0,-7.0,-13.0,-4.0
1701540654.2943163,-6.0,13.0,-24.0,0.0,6.0,1.0,-1.0,8.0
1701540654.2953162,-6.0,2.0,11.0,-19.0,-19.0,-24.0,-6.0,7.0
1701540654.2953162,0.0,-9.0,-14.0,-85.0,-58.0,-19.0,6.0,-1.0
1701540654.2953162,-3.0,5.0,25.0,89.0,45.0,24.0,7.0,0.0
1701540654.2953162,0.0,-23.0,17.0,50.0,36.0,6.0,-2.0,0.0
1701540654.3074586,-9.0,4.0,-85.0,-54.0,-32.0,-17.0,-13.0,-10.0
1701540654.3074586,-3.0,11.0,62.0,-64.0,-37.0,-32.0,-10.0,-7.0
1701540654.307915,4.0,-7.0,22.0,-58.0,-50.0,-19.0,8.0,13.0
1701540654.307915,10.0,-38.0,-51.0,-51.0,41.0,26.0,6.0,2.0
1701540654.3310173,-16.0,47.0,50.0,93.0,-11.0,-24.0,-17.0,-18.0
1701540654.3310173,2.0,3.0,-66.0,-14.0,-19.0,0.0,-14.0,6.0
1701540654.3310173,-1.0,14.0,20.0,36.0,18.0,-7.0,4.0,-2.0
1701540654.3320146,0.0,-6.0,12.0,20.0,23.0,31.0,19.0,-1.0
1701540654.3835163,0.0,-8.0,0.0,-83.0,-31.0,-8.0,-3.0,0.0
1701540654.3845189,3.0,-17.0,66.0,34.0,29.0,11.0,0.0,9.0
1701540654.3868601,-11.0,-2.0,-108.0,-30.0,-9.0,-27.0,-21.0,-10.0
1701540654.3868601,-6.0,-2.0,40.0,-4.0,-13.0,-7.0,5.0,-14.0
1701540654.3878582,5.0,-14.0,10.0,-5.0,4.0,27.0,22.0,10.0
1701540654.3878582,3.0,-3.0,58.0,-3.0,-9.0,-11.0,8.0,3.0
1701540654.3878582,-1.0,8.0,-29.0,-108.0,-16.0,12.0,-15.0,-5.0
1701540654.3878582,-8.0,45.0,-47.0,46.0,26.0,-10.0,-16.0,-6.0
1701540654.4198554,0.0,-30.0,82.0,77.0,9.0,-15.0,-7.0,-2.0
1701540654.4198554,13.0,-8.0,-51.0,56.0,20.0,16.0,10.0,6.0
1701540654.4198554,-17.0,-16.0,49.0,-72.0,-41.0,-16.0,2.0,-7.0
1701540654.4198554,2.0,3.0,45.0,-10.0,-14.0,-20.0,-24.0,-2.0
1701540654.4198554,2.0,-4.0,-107.0,59.0,11.0,8.0,-1.0,-4.0
1701540654.4198554,-20.0,23.0,-40.0,-93.0,-32.0,-17.0,-26.0,-15.0
1701540654.4198554,18.0,13.0,52.0,46.0,27.0,28.0,94.0,17.0
1701540654.4198554,-24.0,29.0,11.0,4.0,6.0,18.0,12.0,-6.0
1701540654.4722216,-10.0,-41.0,58.0,13.0,7.0,37.0,55.0,16.0
1701540654.4722216,21.0,-19.0,4.0,-8.0,-1.0,-12.0,6.0,10.0
1701540654.4722216,-9.0,1.0,-118.0,-6.0,2.0,3.0,-32.0,-12.0
1701540654.4722216,-7.0,10.0,4.0,21.0,4.0,-26.0,-35.0,-27.0
1701540654.4722216,37.0,1.0,-11.0,-42.0,-22.0,-41.0,0.0,41.0
1701540654.4722216,8.0,-45.0,-62.0,-7.0,1.0,49.0,45.0,9.0
1701540654.4722216,29.0,0.0,98.0,8.0,-3.0,-7.0,-8.0,6.0
1701540654.4722216,23.0,-10.0,33.0,51.0,11.0,-2.0,-15.0,0.0
1701540654.4722216,-18.0,21.0,-38.0,-64.0,-6.0,-12.0,-46.0,-17.0
1701540654.4722216,-17.0,40.0,12.0,24.0,0.0,-13.0,-14.0,-8.0
1701540654.4722216,6.0,10.0,23.0,53.0,21.0,4.0,-6.0,3.0
1701540654.4722216,-1.0,-25.0,12.0,-84.0,-9.0,7.0,4.0,10.0
1701540654.4791887,-17.0,1.0,-84.0,-77.0,-26.0,-20.0,-9.0,-14.0
1701540654.4791887,-2.0,-29.0,-1.0,77.0,19.0,4.0,4.0,-3.0
1701540654.488715,-8.0,38.0,69.0,54.0,20.0,5.0,-13.0,-7.0
1701540654.488715,-23.0,-39.0,-43.0,-33.0,-23.0,-4.0,-3.0,5.0
1701540654.5312233,43.0,29.0,40.0,33.0,7.0,7.0,20.0,8.0
1701540654.5322244,0.0,14.0,11.0,-77.0,-2.0,-1.0,-4.0,1.0
1701540654.5322244,-38.0,-25.0,-128.0,-93.0,-31.0,-16.0,-19.0,-10.0
1701540654.5322244,25.0,7.0,17.0,108.0,14.0,6.0,6.0,-5.0
1701540654.5322244,-58.0,50.0,127.0,24.0,16.0,5.0,-2.0,-26.0
1701540654.5322244,6.0,-20.0,7.0,-14.0,-32.0,-5.0,2.0,27.0
1701540654.5322244,40.0,4.0,127.0,89.0,26.0,6.0,2.0,4.0
1701540654.5322244,27.0,23.0,-63.0,-128.0,-31.0,-6.0,9.0,20.0
1701540654.54652,-84.0,-80.0,91.0,46.0,5.0,0.0,-11.0,-29.0
1701540654.54652,-9.0,102.0,55.0,38.0,20.0,0.0,-4.0,-27.0
1701540654.5479617,-4.0,-50.0,25.0,15.0,1.0,1.0,2.0,1.0
1701540654.5479617,-3.0,61.0,-42.0,20.0,6.0,-10.0,-23.0,-8.0
1701540654.5915613,-16.0,57.0,-41.0,-7.0,-8.0,-33.0,-42.0,-45.0
1701540654.5915613,20.0,-79.0,-42.0,-47.0,-13.0,43.0,68.0,40.0
1701540654.5915613,34.0,-63.0,-37.0,-24.0,2.0,5.0,14.0,12.0
1701540654.5915613,19.0,-20.0,43.0,35.0,10.0,-2.0,-10.0,-7.0
1701540654.5915613,1.0,-14.0,-60.0,-50.0,-21.0,-15.0,-14.0,20.0
1701540654.5915613,-61.0,-35.0,-57.0,-45.0,-18.0,-34.0,-51.0,-31.0
1701540654.5931063,-11.0,1.0,-106.0,-19.0,-2.0,8.0,8.0,-10.0
1701540654.5931063,-31.0,14.0,44.0,81.0,14.0,2.0,0.0,1.0
1701540654.604433,38.0,1.0,61.0,-54.0,-1.0,6.0,-2.0,14.0
1701540654.604433,-3.0,-16.0,-3.0,9.0,8.0,-1.0,-2.0,-11.0
1701540654.6087568,-6.0,28.0,17.0,13.0,1.0,4.0,-5.0,6.0
1701540654.6087568,-11.0,-28.0,-6.0,-20.0,-8.0,-4.0,0.0,-5.0
1701540654.650615,22.0,41.0,9.0,29.0,2.0,15.0,14.0,16.0
1701540654.650615,20.0,-38.0,20.0,12.0,-6.0,-8.0,0.0,-8.0
1701540654.650615,-55.0,75.0,0.0,-17.0,0.0,-7.0,-16.0,-6.0
1701540654.650615,-14.0,-34.0,-12.0,9.0,-1.0,4.0,1.0,-13.0
1701540654.6537588,30.0,54.0,22.0,14.0,3.0,1.0,19.0,4.0
1701540654.6537588,1.0,8.0,13.0,16.0,6.0,-3.0,-15.0,2.0
1701540654.6537588,-45.0,-24.0,1.0,2.0,-4.0,-2.0,11.0,8.0
1701540654.6537588,-11.0,-9.0,-9.0,-31.0,-19.0,-13.0,-25.0,-52.0
1701540654.6979072,7.0,-57.0,-18.0,5.0,8.0,17.0,-4.0,16.0
1701540654.6979072,12.0,29.0,36.0,25.0,7.0,-14.0,-20.0,-13.0
1701540654.6979072,27.0,-29.0,-27.0,-26.0,-13.0,-4.0,2.0,3.0
1701540654.6979072,-16.0,-13.0,7.0,-11.0,0.0,8.0,27.0,8.0
1701540654.6979072,5.0,-51.0,-16.0,2.0,-4.0,-5.0,-8.0,4.0
1701540654.6979072,6.0,5.0,7.0,-3.0,4.0,4.0,2.0,3.0
1701540654.6989064,-2.0,14.0,21.0,2.0,2.0,-1.0,-6.0,-14.0
1701540654.6989064,13.0,9.0,23.0,-1.0,4.0,2.0,5.0,14.0
1701540654.7068326,6.0,6.0,-13.0,7.0,-2.0,-5.0,-9.0,-7.0
1701540654.7078314,0.0,21.0,15.0,-9.0,-1.0,-2.0,4.0,9.0
1701540654.7078314,10.0,-12.0,14.0,26.0,0.0,-6.0,-11.0,-7.0
1701540654.7078314,-6.0,0.0,7.0,3.0,-9.0,-3.0,4.0,4.0
1701540654.753417,2.0,-15.0,-15.0,-12.0,7.0,8.0,3.0,3.0
1701540654.753417,-9.0,5.0,-17.0,3.0,7.0,-1.0,-3.0,-7.0
1701540654.753417,4.0,-13.0,-6.0,-25.0,-9.0,-4.0,-6.0,-3.0
1701540654.753417,10.0,34.0,28.0,-54.0,-43.0,-10.0,-2.0,9.0
1701540654.753417,1.0,-9.0,-5.0,90.0,60.0,22.0,13.0,-2.0
1701540654.753417,-1.0,-10.0,-9.0,24.0,7.0,-6.0,2.0,6.0
1701540654.7544162,7.0,-6.0,7.0,-13.0,-6.0,-2.0,2.0,13.0
1701540654.7544162,7.0,-12.0,-6.0,-11.0,-5.0,-1.0,-6.0,-5.0
1701540654.7544162,-1.0,24.0,3.0,-49.0,-41.0,-8.0,5.0,-13.0
1701540654.7544162,-9.0,4.0,-4.0,28.0,10.0,0.0,-7.0,-10.0
1701540654.7658575,2.0,-12.0,10.0,-2.0,11.0,3.0,-2.0,8.0
1701540654.7658575,-2.0,-6.0,-2.0,6.0,9.0,5.0,15.0,33.0
1701540654.789729,2.0,-11.0,-23.0,11.0,-5.0,-7.0,1.0,-7.0
1701540654.7904766,15.0,10.0,-41.0,-4.0,3.0,2.0,1.0,15.0
1701540654.8212845,-23.0,11.0,18.0,-8.0,-15.0,-6.0,6.0,9.0
1701540654.8214927,-3.0,-14.0,-31.0,-1.0,11.0,-1.0,-3.0,8.0
1701540654.8373878,-4.0,9.0,5.0,-5.0,-19.0,-4.0,0.0,-2.0
1701540654.8383865,7.0,14.0,20.0,-3.0,0.0,16.0,14.0,-3.0
1701540654.8383865,18.0,8.0,-14.0,37.0,21.0,8.0,-8.0,-14.0
1701540654.8383865,-10.0,-1.0,16.0,-7.0,1.0,-18.0,-10.0,2.0
1701540654.8383865,-2.0,-17.0,-5.0,2.0,-5.0,0.0,-34.0,6.0
1701540654.8383865,-17.0,5.0,-5.0,-46.0,-26.0,5.0,31.0,-1.0
1701540654.8383865,8.0,-5.0,19.0,5.0,1.0,8.0,-19.0,-9.0
1701540654.8383865,10.0,8.0,-53.0,22.0,17.0,10.0,24.0,-2.0
1701540654.8653476,-10.0,-2.0,-9.0,-26.0,-13.0,-7.0,16.0,-10.0
1701540654.8653476,3.0,-21.0,10.0,6.0,-1.0,2.0,2.0,1.0
1701540654.8653476,-1.0,4.0,6.0,7.0,6.0,-4.0,0.0,-2.0
1701540654.8653476,6.0,14.0,8.0,8.0,1.0,-4.0,-28.0,-22.0
1701540654.8663697,-2.0,32.0,13.0,4.0,4.0,-8.0,-18.0,0.0
1701540654.8663697,0.0,13.0,22.0,3.0,0.0,-6.0,-12.0,-4.0
1701540654.8702593,1.0,-17.0,-29.0,-11.0,-6.0,-2.0,13.0,12.0
1701540654.8702593,-46.0,-19.0,-25.0,-21.0,-10.0,-2.0,11.0,-2.0
1701540654.9113038,4.0,18.0,12.0,-1.0,0.0,0.0,-1.0,1.0
1701540654.9123013,1.0,9.0,1.0,10.0,10.0,-5.0,-13.0,-13.0
1701540654.9247117,1.0,-8.0,2.0,-7.0,-6.0,-7.0,-16.0,-4.0
1701540654.9247117,8.0,-14.0,10.0,12.0,5.0,7.0,36.0,39.0
1701540654.9247117,-1.0,-24.0,-3.0,-2.0,2.0,2.0,-17.0,-27.0
1701540654.9247117,1.0,-13.0,3.0,-2.0,0.0,-6.0,-9.0,-2.0
1701540654.9257095,-19.0,1.0,3.0,-4.0,-4.0,-6.0,-10.0,-14.0
1701540654.9257095,21.0,-1.0,0.0,2.0,2.0,4.0,-7.0,-8.0
1701540654.9269562,15.0,-3.0,20.0,12.0,10.0,11.0,23.0,25.0
1701540654.929653,-20.0,12.0,-29.0,-28.0,-12.0,-10.0,-17.0,-3.0
1701540654.930534,-6.0,18.0,-2.0,1.0,-3.0,3.0,13.0,-1.0
1701540654.930534,5.0,-14.0,13.0,6.0,7.0,6.0,-18.0,-12.0
1701540654.9773521,3.0,-8.0,0.0,-1.0,0.0,-2.0,1.0,8.0
1701540654.9783518,0.0,1.0,-1.0,4.0,-5.0,-6.0,-8.0,-4.0
1701540654.9871383,0.0,-8.0,0.0,-1.0,0.0,2.0,9.0,-5.0
1701540654.9871383,-1.0,19.0,14.0,7.0,3.0,4.0,0.0,-4.0
1701540654.9901714,-1.0,-28.0,-4.0,-4.0,-4.0,-4.0,5.0,11.0
1701540654.9901714,-4.0,-9.0,-11.0,-5.0,6.0,-2.0,-8.0,-14.0
1701540654.9911704,0.0,-4.0,4.0,19.0,2.0,-1.0,-5.0,0.0
1701540654.9911704,-1.0,-3.0,4.0,0.0,-4.0,-5.0,-8.0,-10.0
1701540654.9911704,0.0,-10.0,-10.0,-5.0,-1.0,4.0,38.0,49.0
1701540654.9911704,3.0,-3.0,9.0,1.0,1.0,-2.0,-18.0,-35.0
1701540654.9911704,-1.0,1.0,-2.0,-13.0,-8.0,-3.0,2.0,-4.0
1701540654.9911704,-5.0,-13.0,-2.0,-8.0,-8.0,-3.0,-10.0,-22.0
1701540655.022813,-2.0,7.0,-5.0,18.0,22.0,2.0,-5.0,4.0
1701540655.022813,1.0,4.0,5.0,2.0,0.0,-2.0,16.0,22.0
1701540655.022813,6.0,9.0,-2.0,-1.0,-1.0,-2.0,4.0,-2.0
1701540655.022813,-5.0,-11.0,-2.0,-8.0,-4.0,-3.0,-1.0,3.0
1701540655.023836,-3.0,-1.0,3.0,-9.0,-12.0,-8.0,-19.0,-14.0
1701540655.0264719,-4.0,-22.0,-11.0,-7.0,-4.0,4.0,3.0,2.0
1701540655.0347624,5.0,2.0,12.0,8.0,8.0,5.0,-5.0,-9.0
1701540655.0347624,-1.0,-12.0,-10.0,-4.0,-1.0,-8.0,2.0,10.0
1701540655.0459785,-4.0,-9.0,-17.0,-12.0,-12.0,-12.0,3.0,-17.0
1701540655.0459785,-1.0,3.0,0.0,0.0,4.0,5.0,-8.0,3.0
1701540655.0510523,0.0,3.0,3.0,-3.0,-1.0,-4.0,-12.0,1.0
1701540655.0510523,2.0,31.0,7.0,-3.0,-10.0,0.0,17.0,12.0
1701540655.1160145,-1.0,1.0,-3.0,-7.0,5.0,-1.0,-16.0,-15.0
1701540655.1160145,-3.0,4.0,-2.0,19.0,-2.0,-8.0,-6.0,-6.0
1701540655.1160145,2.0,-10.0,-3.0,-4.0,-1.0,3.0,21.0,8.0
1701540655.1160145,2.0,-11.0,-5.0,1.0,8.0,5.0,-4.0,1.0
1701540655.1160145,-3.0,-9.0,0.0,-7.0,-1.0,2.0,-5.0,-9.0
1701540655.1160145,0.0,4.0,-1.0,-10.0,-6.0,-4.0,12.0,11.0
1701540655.1160145,7.0,-5.0,5.0,6.0,3.0,0.0,-5.0,6.0
1701540655.1160145,-8.0,-11.0,9.0,5.0,6.0,5.0,12.0,-4.0
1701540655.1423402,2.0,6.0,-3.0,2.0,1.0,6.0,12.0,2.0
1701540655.1423402,-4.0,-3.0,-7.0,-4.0,-2.0,1.0,0.0,-2.0
1701540655.1423402,2.0,-8.0,0.0,-1.0,-6.0,-18.0,-25.0,-7.0
1701540655.1423402,-2.0,-10.0,-3.0,-4.0,-5.0,-6.0,1.0,1.0
1701540655.1433392,1.0,9.0,-1.0,2.0,1.0,13.0,50.0,48.0
1701540655.1433392,0.0,-7.0,-2.0,-6.0,-1.0,1.0,-62.0,-81.0
1701540655.1433392,-18.0,5.0,-5.0,-6.0,-3.0,-2.0,-12.0,-2.0
1701540655.1433392,3.0,5.0,5.0,2.0,1.0,-3.0,-8.0,-10.0
1701540655.144362,-3.0,-1.0,0.0,3.0,-1.0,-5.0,-3.0,2.0
1701540655.1462002,0.0,7.0,3.0,1.0,-2.0,-2.0,26.0,31.0
1701540655.1479902,3.0,-3.0,-5.0,-7.0,-1.0,2.0,6.0,-1.0
1701540655.1479902,0.0,-4.0,3.0,2.0,-2.0,1.0,-6.0,-5.0
1701540655.1873498,-1.0,-3.0,-4.0,-3.0,0.0,-3.0,-4.0,-8.0
1701540655.1873498,7.0,9.0,0.0,-5.0,-6.0,-6.0,9.0,10.0
1701540655.1873498,-5.0,-15.0,-5.0,-3.0,-1.0,-2.0,-19.0,-18.0
1701540655.1873498,0.0,-1.0,5.0,1.0,5.0,4.0,4.0,7.0
1701540655.1893692,1.0,0.0,0.0,2.0,2.0,-3.0,-19.0,-18.0
1701540655.1893692,-1.0,-5.0,5.0,1.0,-3.0,-1.0,3.0,10.0
1701540655.1930954,0.0,11.0,-2.0,-3.0,0.0,0.0,11.0,7.0
1701540655.1930954,-2.0,1.0,-4.0,2.0,-3.0,0.0,-6.0,-6.0
1701540655.2058547,-5.0,-4.0,-1.0,-2.0,2.0,-1.0,-12.0,-14.0
1701540655.2058547,-2.0,-2.0,1.0,-1.0,1.0,0.0,2.0,11.0
1701540655.207588,1.0,-3.0,-1.0,1.0,1.0,-1.0,9.0,2.0
1701540655.207588,6.0,8.0,3.0,5.0,-1.0,5.0,21.0,7.0
1701540655.271885,1.0,1.0,0.0,-4.0,-6.0,-4.0,-21.0,-18.0
1701540655.271885,-4.0,-12.0,0.0,0.0,3.0,-7.0,-22.0,-2.0
1701540655.271885,2.0,-5.0,-7.0,-6.0,-2.0,1.0,-9.0,-2.0
1701540655.271885,-4.0,-1.0,-2.0,-10.0,0.0,-1.0,-4.0,-6.0
1701540655.271885,1.0,-1.0,1.0,9.0,0.0,2.0,20.0,9.0
1701540655.271885,-1.0,-1.0,-2.0,5.0,-2.0,-1.0,5.0,-4.0
1701540655.271885,1.0,2.0,0.0,0.0,-2.0,-3.0,-1.0,3.0
1701540655.271885,-2.0,-3.0,-1.0,1.0,3.0,-3.0,6.0,-12.0
1701540655.271885,-1.0,-8.0,4.0,2.0,-4.0,-2.0,-7.0,2.0
1701540655.271885,-2.0,-7.0,-12.0,-12.0,1.0,4.0,9.0,3.0
1701540655.2971642,1.0,0.0,-5.0,3.0,4.0,0.0,5.0,15.0
1701540655.2971642,1.0,0.0,1.0,-3.0,-4.0,-4.0,-4.0,-16.0
1701540655.2981622,-7.0,5.0,0.0,1.0,-1.0,-1.0,-5.0,-7.0
1701540655.2981622,1.0,1.0,2.0,0.0,-7.0,-3.0,2.0,3.0
1701540655.2981622,-1.0,-9.0,1.0,-1.0,0.0,5.0,24.0,12.0
1701540655.2981622,-1.0,-7.0,-6.0,-16.0,-5.0,-3.0,-36.0,-10.0
1701540655.3103416,1.0,-3.0,-4.0,12.0,1.0,-5.0,-12.0,-15.0
1701540655.3103416,-1.0,-9.0,-2.0,-13.0,-3.0,-4.0,3.0,9.0
1701540655.3137596,-2.0,-8.0,-7.0,-22.0,-3.0,2.0,3.0,-5.0
1701540655.3137596,3.0,1.0,13.0,67.0,25.0,5.0,5.0,8.0
1701540655.3249996,-3.0,-5.0,-3.0,-8.0,-7.0,-7.0,-9.0,-5.0
1701540655.3249996,-1.0,-2.0,-2.0,0.0,2.0,-2.0,2.0,4.0
1701540655.3746142,-1.0,13.0,5.0,-7.0,-1.0,2.0,-13.0,-4.0
1701540655.3746142,-3.0,-10.0,-10.0,-28.0,-7.0,-2.0,52.0,14.0
1701540655.3746142,-2.0,-7.0,1.0,-3.0,-4.0,-3.0,-36.0,-25.0
1701540655.3746142,-2.0,3.0,-1.0,5.0,4.0,-3.0,-7.0,-3.0
1701540655.3746142,-3.0,-2.0,0.0,-3.0,-7.0,-2.0,-6.0,-12.0
1701540655.3746142,-1.0,11.0,2.0,3.0,0.0,3.0,1.0,10.0
1701540655.3746142,3.0,-2.0,-2.0,-6.0,7.0,4.0,36.0,34.0
1701540655.3746142,12.0,-9.0,4.0,-13.0,-6.0,-1.0,-19.0,-29.0
1701540655.3756125,-21.0,-3.0,-2.0,37.0,7.0,-7.0,-19.0,-9.0
1701540655.3756125,-2.0,2.0,0.0,-4.0,0.0,-3.0,-11.0,-7.0
1701540655.385679,-1.0,-7.0,-1.0,-14.0,-10.0,-2.0,4.0,2.0
1701540655.385679,6.0,5.0,2.0,14.0,11.0,3.0,11.0,10.0
1701540655.4341247,6.0,-2.0,-2.0,-1.0,0.0,1.0,10.0,3.0
1701540655.4341247,-1.0,-1.0,0.0,-11.0,-8.0,-2.0,-14.0,-5.0
1701540655.4394217,-2.0,-3.0,-1.0,-8.0,-4.0,-1.0,0.0,-3.0
1701540655.4394217,-9.0,5.0,-2.0,-10.0,-6.0,-2.0,3.0,6.0
1701540655.4394217,3.0,-1.0,-12.0,-2.0,2.0,1.0,-1.0,-8.0
1701540655.4394217,-1.0,0.0,4.0,1.0,0.0,-1.0,-1.0,5.0
1701540655.440421,2.0,2.0,-12.0,-13.0,-4.0,1.0,4.0,0.0
1701540655.440421,-5.0,-4.0,4.0,9.0,0.0,-1.0,-34.0,-17.0
1701540655.440421,4.0,-3.0,4.0,-4.0,-4.0,-2.0,29.0,6.0
1701540655.440421,4.0,1.0,2.0,-16.0,-7.0,-6.0,-13.0,-4.0
1701540655.4429336,-6.0,1.0,-4.0,-35.0,-7.0,-1.0,-3.0,1.0
1701540655.4429336,-1.0,6.0,6.0,62.0,29.0,5.0,23.0,11.0
1701540655.4546864,3.0,-9.0,-4.0,-38.0,-44.0,-2.0,-1.0,4.0
1701540655.4546864,-5.0,-7.0,-3.0,60.0,66.0,14.0,-5.0,-4.0
1701540655.5122967,1.0,1.0,8.0,-61.0,-48.0,-17.0,-25.0,-5.0
1701540655.5122967,-11.0,-10.0,-20.0,54.0,42.0,6.0,-3.0,-17.0
1701540655.5132952,2.0,-3.0,-3.0,-33.0,-20.0,-8.0,16.0,14.0
1701540655.5132952,3.0,4.0,6.0,-16.0,-27.0,-3.0,8.0,15.0
1701540655.5132952,2.0,0.0,2.0,6.0,3.0,8.0,27.0,11.0
1701540655.5132952,-7.0,-2.0,-4.0,-47.0,-25.0,-9.0,-43.0,-29.0
1701540655.5132952,3.0,1.0,13.0,26.0,15.0,-4.0,-21.0,-7.0
1701540655.5132952,-2.0,-8.0,-17.0,-16.0,-8.0,-1.0,-5.0,-7.0
1701540655.5357153,2.0,8.0,8.0,29.0,15.0,5.0,19.0,10.0
1701540655.5357153,-1.0,1.0,-1.0,-22.0,-19.0,0.0,12.0,21.0
1701540655.5357153,-5.0,2.0,-1.0,16.0,20.0,5.0,4.0,-12.0
1701540655.5357153,0.0,-13.0,0.0,-13.0,-13.0,-5.0,-7.0,7.0
1701540655.5357153,-2.0,2.0,-7.0,8.0,0.0,-5.0,-8.0,-16.0
1701540655.5357153,2.0,3.0,0.0,-3.0,-4.0,-1.0,21.0,11.0
1701540655.5357153,-1.0,-6.0,0.0,-3.0,3.0,0.0,-8.0,-1.0
1701540655.5357153,0.0,2.0,5.0,-4.0,-3.0,-2.0,-7.0,-12.0
1701540655.548671,-3.0,-1.0,-2.0,6.0,4.0,-2.0,2.0,17.0
1701540655.548671,3.0,-9.0,9.0,3.0,-4.0,3.0,17.0,-15.0
1701540655.5530214,7.0,7.0,4.0,-70.0,-28.0,-8.0,-6.0,20.0
1701540655.5530214,-27.0,6.0,-34.0,-8.0,-16.0,-4.0,-18.0,-51.0
1701540655.5653565,2.0,-19.0,12.0,90.0,99.0,17.0,-21.0,-14.0
1701540655.5653565,2.0,-4.0,-9.0,-76.0,-28.0,-8.0,17.0,29.0
1701540655.568036,0.0,0.0,5.0,-10.0,3.0,1.0,1.0,-5.0
1701540655.568036,4.0,4.0,3.0,-54.0,-40.0,-7.0,15.0,12.0
1701540655.6330276,-1.0,8.0,22.0,-17.0,-26.0,-4.0,-3.0,-2.0
1701540655.6330276,-3.0,4.0,-39.0,26.0,6.0,-7.0,-10.0,-3.0
1701540655.6330276,-5.0,-1.0,-15.0,-6.0,-9.0,-7.0,-16.0,-5.0
1701540655.6330276,10.0,4.0,16.0,12.0,11.0,29.0,44.0,25.0
1701540655.6360772,-6.0,-5.0,-13.0,1.0,-8.0,-7.0,3.0,-13.0
1701540655.6360772,4.0,-4.0,19.0,7.0,2.0,1.0,-7.0,3.0
1701540655.6360772,-7.0,0.0,-4.0,10.0,3.0,-11.0,-25.0,-24.0
1701540655.6360772,1.0,-2.0,9.0,11.0,8.0,-7.0,-22.0,2.0
1701540655.6570976,2.0,0.0,-12.0,0.0,0.0,4.0,11.0,4.0
1701540655.6570976,0.0,3.0,8.0,-17.0,-14.0,-1.0,22.0,9.0
1701540655.6570976,-7.0,5.0,-4.0,25.0,11.0,3.0,-12.0,-12.0
1701540655.6570976,0.0,-6.0,1.0,4.0,7.0,-4.0,-16.0,-3.0
1701540655.6570976,3.0,-6.0,5.0,-16.0,-16.0,0.0,2.0,-1.0
1701540655.6570976,-5.0,-6.0,-9.0,-18.0,-8.0,-5.0,-9.0,0.0
1701540655.6570976,-3.0,3.0,-3.0,11.0,2.0,4.0,11.0,7.0
1701540655.6570976,6.0,-3.0,15.0,17.0,14.0,3.0,-8.0,-6.0
1701540655.6711981,-6.0,-3.0,-9.0,-33.0,-24.0,-9.0,-6.0,9.0
1701540655.6711981,-1.0,-2.0,-4.0,35.0,24.0,6.0,-2.0,-19.0
1701540655.673673,0.0,-8.0,9.0,11.0,5.0,5.0,-2.0,-4.0
1701540655.673673,-2.0,3.0,-9.0,-15.0,-14.0,-9.0,11.0,9.0
1701540655.7146897,2.0,-3.0,4.0,8.0,1.0,-2.0,-6.0,-10.0
1701540655.7146897,1.0,5.0,4.0,-24.0,-13.0,-2.0,-3.0,8.0
1701540655.7146897,-2.0,-1.0,-2.0,1.0,2.0,2.0,-5.0,-2.0
1701540655.7146897,-4.0,-7.0,-5.0,3.0,-1.0,-4.0,-24.0,-8.0
1701540655.7146897,-1.0,6.0,-8.0,-12.0,-3.0,-3.0,30.0,9.0
1701540655.7146897,0.0,-3.0,10.0,2.0,-2.0,3.0,7.0,8.0
1701540655.7146897,1.0,0.0,-2.0,3.0,2.0,1.0,4.0,-10.0
1701540655.7146897,-1.0,2.0,-3.0,-6.0,2.0,-1.0,-3.0,3.0
1701540655.755707,0.0,-1.0,-2.0,3.0,2.0,-1.0,-18.0,-8.0
1701540655.755707,-1.0,-3.0,4.0,-3.0,-2.0,-1.0,-1.0,1.0
1701540655.755707,1.0,1.0,-2.0,4.0,2.0,2.0,18.0,-2.0
1701540655.755707,4.0,-4.0,0.0,-1.0,-5.0,-7.0,-22.0,3.0
1701540655.7567046,-20.0,6.0,-2.0,1.0,-1.0,1.0,27.0,27.0
1701540655.7567046,2.0,-13.0,0.0,-1.0,-3.0,0.0,-52.0,-53.0
1701540655.7567046,-4.0,-5.0,1.0,-9.0,-2.0,-5.0,-17.0,2.0
1701540655.7567046,-4.0,-2.0,6.0,9.0,8.0,-2.0,4.0,-4.0
1701540655.769569,3.0,2.0,-2.0,-2.0,-3.0,-3.0,-12.0,-5.0
1701540655.769569,1.0,8.0,2.0,-3.0,1.0,1.0,25.0,26.0
1701540655.7705731,2.0,0.0,1.0,1.0,-2.0,3.0,11.0,-1.0
1701540655.7705731,2.0,0.0,-2.0,0.0,4.0,1.0,0.0,-5.0
1701540655.792634,5.0,-7.0,-2.0,-1.0,-4.0,-4.0,-10.0,-5.0
1701540655.792924,-4.0,-2.0,-2.0,-8.0,-5.0,-5.0,8.0,12.0
1701540655.845415,1.0,-4.0,-3.0,2.0,1.0,-2.0,-4.0,-5.0
1701540655.845415,-3.0,2.0,-2.0,-2.0,-4.0,0.0,11.0,-3.0
1701540655.8498914,1.0,-3.0,-2.0,-2.0,-2.0,0.0,-11.0,-9.0
1701540655.8498914,-1.0,-4.0,-2.0,-4.0,-2.0,-2.0,0.0,0.0
1701540655.8577077,0.0,1.0,1.0,-5.0,-2.0,-2.0,0.0,5.0
1701540655.8577077,-2.0,3.0,-6.0,-21.0,-17.0,-5.0,2.0,2.0
1701540655.8577077,0.0,-1.0,0.0,27.0,9.0,3.0,-10.0,-13.0
1701540655.8577077,2.0,-3.0,1.0,0.0,-1.0,0.0,0.0,3.0
1701540655.8577077,-2.0,-3.0,-1.0,1.0,0.0,-1.0,9.0,5.0
1701540655.8577077,-1.0,-3.0,-2.0,-5.0,-5.0,-1.0,1.0,0.0
1701540655.8577077,0.0,-3.0,-2.0,-14.0,-6.0,-3.0,-13.0,-11.0
1701540655.8577077,-2.0,2.0,1.0,-2.0,0.0,0.0,5.0,4.0
1701540655.8577077,0.0,5.0,0.0,-1.0,-1.0,4.0,9.0,9.0
1701540655.8577077,-3.0,-4.0,-4.0,-5.0,1.0,-6.0,-11.0,-10.0
1701540655.8841958,-4.0,-5.0,-4.0,0.0,-3.0,-2.0,-19.0,-19.0
1701540655.8841958,0.0,-4.0,1.0,0.0,2.0,3.0,7.0,5.0
1701540655.8841958,8.0,0.0,-2.0,-1.0,1.0,2.0,5.0,7.0
1701540655.8841958,-20.0,-3.0,-2.0,2.0,-6.0,-6.0,-7.0,-9.0
1701540655.8852196,0.0,-2.0,3.0,-2.0,0.0,-2.0,-4.0,-1.0
1701540655.8852196,-4.0,2.0,0.0,-1.0,3.0,-2.0,-1.0,-2.0
1701540655.8905756,-4.0,-3.0,1.0,-1.0,-2.0,0.0,0.0,-1.0
1701540655.8905756,10.0,7.0,1.0,-6.0,-4.0,1.0,11.0,7.0
1701540655.9422476,-3.0,-1.0,-8.0,-8.0,-5.0,-1.0,-15.0,-7.0
1701540655.9422476,-5.0,-3.0,3.0,23.0,7.0,-1.0,-3.0,-2.0
1701540655.9458606,3.0,-2.0,0.0,3.0,12.0,0.0,2.0,-1.0
1701540655.9458606,1.0,-3.0,0.0,3.0,-2.0,0.0,0.0,0.0
1701540655.9458606,1.0,3.0,-1.0,-12.0,-5.0,-1.0,1.0,3.0
1701540655.9458606,-1.0,3.0,-4.0,-11.0,-5.0,-1.0,6.0,-2.0
1701540655.9458606,-3.0,0.0,-1.0,4.0,0.0,-2.0,-5.0,-5.0
1701540655.9458606,0.0,-2.0,-3.0,-1.0,1.0,-2.0,-1.0,-1.0
1701540655.9486551,-1.0,1.0,0.0,-3.0,2.0,-1.0,6.0,3.0
1701540655.9486551,-1.0,1.0,0.0,-1.0,-6.0,-3.0,2.0,5.0
1701540655.9510946,-4.0,-3.0,-1.0,2.0,1.0,0.0,-12.0,-18.0
1701540655.9510946,1.0,-1.0,1.0,2.0,2.0,-2.0,-2.0,1.0
1701540655.9951835,0.0,-4.0,3.0,4.0,4.0,5.0,9.0,5.0
1701540655.9951835,0.0,0.0,-7.0,-7.0,-6.0,-2.0,-1.0,2.0
1701540655.9951835,-3.0,-2.0,-1.0,-3.0,-4.0,-4.0,1.0,0.0
1701540655.9951835,4.0,-1.0,0.0,1.0,4.0,2.0,1.0,6.0
1701540655.9951835,-5.0,-2.0,-5.0,3.0,5.0,-1.0,4.0,-5.0
1701540655.9951835,0.0,-3.0,0.0,-5.0,-1.0,-2.0,-7.0,-5.0
1701540655.9962187,-3.0,-1.0,0.0,-2.0,-3.0,1.0,2.0,1.0
1701540655.9962187,0.0,2.0,2.0,4.0,4.0,2.0,4.0,6.0
1701540656.0430465,-2.0,-6.0,-1.0,-7.0,-5.0,-3.0,-4.0,-17.0
1701540656.044047,2.0,-2.0,2.0,4.0,-6.0,-5.0,2.0,7.0
1701540656.0501738,-3.0,0.0,-10.0,-13.0,0.0,-2.0,-14.0,-10.0
1701540656.0501738,0.0,-3.0,4.0,44.0,24.0,5.0,7.0,6.0
1701540656.0501738,2.0,-2.0,-3.0,-10.0,-11.0,-4.0,-3.0,20.0
1701540656.0501738,-4.0,2.0,-1.0,-8.0,-3.0,-1.0,-15.0,-30.0
1701540656.0501738,1.0,-6.0,5.0,4.0,-4.0,-2.0,-2.0,0.0
1701540656.0501738,0.0,0.0,-3.0,-13.0,-6.0,-1.0,6.0,0.0
1701540656.0518458,-1.0,0.0,-4.0,2.0,1.0,1.0,3.0,-2.0
1701540656.0518458,-1.0,-3.0,-1.0,-11.0,-6.0,-2.0,5.0,10.0
1701540656.0556633,-1.0,2.0,-1.0,-5.0,-3.0,0.0,12.0,9.0
1701540656.0556633,-3.0,2.0,0.0,-8.0,1.0,1.0,-9.0,-15.0
1701540656.1123266,0.0,-4.0,-1.0,8.0,-1.0,-2.0,-1.0,2.0
1701540656.1133237,-2.0,4.0,-6.0,-14.0,-5.0,-1.0,7.0,25.0
1701540656.1133237,-6.0,-4.0,0.0,11.0,7.0,0.0,-14.0,-37.0
1701540656.1133237,-1.0,-9.0,1.0,-4.0,-7.0,-4.0,-4.0,-3.0
1701540656.1133237,-2.0,3.0,-3.0,-4.0,-5.0,-3.0,-4.0,-5.0
1701540656.1133237,1.0,1.0,3.0,6.0,1.0,1.0,2.0,2.0
1701540656.117355,1.0,-2.0,-3.0,0.0,1.0,-1.0,7.0,13.0
1701540656.117355,-3.0,0.0,-2.0,-18.0,-8.0,-2.0,-6.0,-2.0
1701540656.1380658,-2.0,1.0,2.0,12.0,9.0,-1.0,0.0,-6.0
1701540656.1380658,-1.0,-7.0,-13.0,-7.0,0.0,-2.0,1.0,-5.0
1701540656.1380658,2.0,2.0,5.0,1.0,-2.0,-2.0,1.0,5.0
1701540656.1380658,1.0,-7.0,4.0,-7.0,-6.0,0.0,-2.0,-5.0
1701540656.1380658,1.0,1.0,-8.0,7.0,-6.0,-2.0,6.0,6.0
1701540656.1380658,-2.0,2.0,-2.0,2.0,20.0,5.0,-6.0,-11.0
1701540656.1380658,-3.0,-6.0,-1.0,-6.0,-2.0,-3.0,-11.0,0.0
1701540656.1380658,0.0,-8.0,-4.0,0.0,-7.0,-4.0,-3.0,10.0
1701540656.149274,-1.0,0.0,3.0,-18.0,-1.0,0.0,3.0,-7.0
1701540656.149274,-2.0,0.0,-3.0,-1.0,-4.0,3.0,16.0,1.0
1701540656.1538315,-4.0,-4.0,-1.0,11.0,1.0,-2.0,-15.0,-13.0
1701540656.1538315,0.0,1.0,1.0,-12.0,-9.0,-5.0,-10.0,3.0
1701540656.2184312,-1.0,2.0,2.0,-18.0,-3.0,0.0,-3.0,0.0
1701540656.2184312,-1.0,-2.0,3.0,26.0,6.0,2.0,6.0,8.0
1701540656.2184312,-1.0,-4.0,1.0,0.0,3.0,1.0,10.0,8.0
1701540656.2184312,0.0,-4.0,-7.0,1.0,-2.0,-1.0,5.0,-5.0
1701540656.2253175,-1.0,1.0,4.0,-13.0,-6.0,-5.0,-7.0,-2.0
1701540656.2253175,1.0,-1.0,15.0,-6.0,-8.0,-4.0,-6.0,-5.0
1701540656.2253175,-6.0,-2.0,-18.0,0.0,-2.0,1.0,4.0,5.0
1701540656.2253175,-1.0,0.0,-3.0,1.0,3.0,-2.0,4.0,-3.0
1701540656.2253175,-1.0,-2.0,-1.0,3.0,-2.0,-1.0,3.0,3.0
1701540656.2253175,2.0,-2.0,6.0,-3.0,-3.0,-1.0,-10.0,-12.0
1701540656.2253175,2.0,-2.0,3.0,11.0,3.0,-1.0,0.0,3.0
1701540656.2253175,-1.0,-2.0,-7.0,-3.0,6.0,1.0,6.0,3.0
1701540656.2263196,-1.0,-2.0,0.0,5.0,3.0,-2.0,1.0,2.0
1701540656.2263196,0.0,-5.0,-2.0,-3.0,-5.0,-3.0,-4.0,-2.0
1701540656.2360644,0.0,0.0,-1.0,-10.0,-9.0,-1.0,0.0,1.0
1701540656.2360644,-2.0,-1.0,-5.0,3.0,-1.0,1.0,0.0,-2.0
1701540656.2833664,-2.0,-3.0,4.0,1.0,0.0,2.0,-1.0,-2.0
1701540656.2833664,0.0,-4.0,-1.0,6.0,3.0,-1.0,-4.0,-5.0
1701540656.2979207,-3.0,4.0,-7.0,-18.0,-4.0,-2.0,2.0,2.0
1701540656.2979207,1.0,1.0,10.0,30.0,6.0,4.0,6.0,6.0
1701540656.2979207,-3.0,-4.0,-9.0,4.0,-4.0,-6.0,-16.0,-17.0
1701540656.2979207,-2.0,-4.0,-4.0,-12.0,-5.0,-5.0,-2.0,0.0
1701540656.2979207,-1.0,4.0,6.0,-9.0,-7.0,-3.0,13.0,19.0
1701540656.2979207,-1.0,0.0,-4.0,-1.0,-1.0,4.0,-2.0,-6.0
1701540656.3245869,-4.0,1.0,-4.0,-3.0,2.0,-4.0,-3.0,-9.0
1701540656.3245869,0.0,-4.0,-2.0,0.0,-3.0,-5.0,-4.0,1.0
1701540656.3245869,2.0,-4.0,2.0,3.0,1.0,-1.0,-3.0,-6.0
1701540656.3245869,0.0,2.0,-2.0,-9.0,-3.0,-1.0,6.0,10.0
1701540656.3245869,0.0,0.0,-3.0,6.0,0.0,5.0,11.0,7.0
1701540656.3245869,-5.0,2.0,0.0,-1.0,-1.0,2.0,-6.0,-6.0
1701540656.3245869,0.0,-3.0,-6.0,2.0,-2.0,-3.0,-3.0,2.0
1701540656.3245869,-2.0,-2.0,0.0,-7.0,-2.0,-1.0,-3.0,-6.0
1701540656.3281446,-2.0,-1.0,0.0,1.0,2.0,-2.0,-4.0,-2.0
1701540656.3281446,-2.0,0.0,2.0,0.0,-2.0,0.0,1.0,-1.0
1701540656.3332157,0.0,-4.0,1.0,-6.0,1.0,2.0,-2.0,-3.0
1701540656.3332157,-2.0,-3.0,-3.0,5.0,-2.0,-4.0,-10.0,-8.0
1701540656.3712347,2.0,-3.0,3.0,1.0,4.0,1.0,2.0,10.0
1701540656.3722346,0.0,-7.0,-5.0,-1.0,-5.0,0.0,4.0,-4.0
1701540656.3722346,-4.0,3.0,0.0,-1.0,4.0,1.0,-10.0,-11.0
1701540656.3722346,-2.0,-3.0,-4.0,-11.0,-3.0,-6.0,-11.0,-7.0
1701540656.3722346,-1.0,-2.0,7.0,-1.0,-2.0,-1.0,0.0,2.0
1701540656.3722346,-2.0,0.0,-5.0,-2.0,-4.0,0.0,5.0,6.0
1701540656.3733459,0.0,2.0,-1.0,0.0,-2.0,-3.0,5.0,5.0
1701540656.3770835,-3.0,0.0,-2.0,-2.0,-1.0,-4.0,-3.0,-6.0
1701540656.3898208,4.0,-5.0,0.0,3.0,0.0,-3.0,2.0,4.0
1701540656.3898208,2.0,13.0,-4.0,-1.0,-1.0,-23.0,-77.0,5.0
1701540656.3931801,12.0,-2.0,1.0,2.0,-2.0,16.0,75.0,-16.0
1701540656.3931801,-66.0,-38.0,-5.0,-5.0,-3.0,2.0,1.0,-20.0
1701540656.4290094,0.0,-1.0,0.0,-2.0,0.0,-5.0,-11.0,-8.0
1701540656.4290094,1.0,-5.0,-2.0,2.0,0.0,4.0,8.0,3.0
1701540656.4290094,4.0,10.0,-2.0,-6.0,-5.0,-15.0,-24.0,11.0
1701540656.4290094,17.0,17.0,-1.0,-5.0,1.0,3.0,9.0,21.0
1701540656.4290094,-4.0,-7.0,-1.0,13.0,1.0,4.0,-7.0,-20.0
1701540656.4290094,-5.0,-4.0,0.0,-1.0,-1.0,-6.0,-2.0,-4.0
1701540656.431045,-2.0,-1.0,-1.0,2.0,-3.0,-2.0,-12.0,3.0
1701540656.431045,12.0,6.0,2.0,0.0,7.0,5.0,14.0,2.0
1701540656.4510684,-5.0,-2.0,-4.0,-2.0,0.0,-1.0,-8.0,3.0
1701540656.4510684,4.0,-1.0,0.0,0.0,1.0,4.0,16.0,2.0
1701540656.453578,-6.0,-9.0,-2.0,-5.0,-4.0,2.0,-4.0,-2.0
1701540656.453578,6.0,-1.0,0.0,5.0,-1.0,-2.0,-18.0,-10.0
1701540656.4967194,0.0,0.0,-1.0,4.0,-1.0,-4.0,0.0,1.0
1701540656.4967194,-5.0,-5.0,-2.0,-2.0,1.0,3.0,11.0,-3.0
1701540656.4967194,-5.0,-3.0,-4.0,-3.0,0.0,0.0,-5.0,-3.0
1701540656.4967194,4.0,3.0,9.0,8.0,-3.0,-8.0,-12.0,-2.0
1701540656.4967194,3.0,2.0,-11.0,-25.0,-2.0,1.0,4.0,5.0
1701540656.4967194,-3.0,0.0,0.0,-3.0,-3.0,5.0,13.0,4.0
1701540656.49717,3.0,0.0,3.0,6.0,-2.0,1.0,-6.0,-5.0
1701540656.49717,7.0,3.0,-2.0,-5.0,-2.0,-3.0,-29.0,-19.0
1701540656.5092869,-11.0,-12.0,2.0,10.0,-3.0,-1.0,5.0,6.0
1701540656.5092869,-6.0,-2.0,-2.0,-4.0,1.0,4.0,8.0,-1.0
1701540656.5136979,-2.0,0.0,-5.0,-3.0,3.0,-2.0,-6.0,8.0
1701540656.5136979,7.0,0.0,-1.0,2.0,-2.0,-4.0,5.0,1.0
1701540656.5639071,1.0,-1.0,-2.0,-5.0,-4.0,-2.0,-9.0,-16.0
1701540656.564907,-2.0,-5.0,-1.0,0.0,-1.0,-6.0,-2.0,3.0
1701540656.564907,3.0,-4.0,3.0,9.0,1.0,2.0,0.0,-1.0
1701540656.5659842,-1.0,2.0,-13.0,-12.0,-4.0,1.0,9.0,0.0
1701540656.571146,-5.0,-1.0,1.0,0.0,-2.0,0.0,-6.0,-2.0
1701540656.571146,1.0,0.0,-3.0,-5.0,-3.0,-5.0,1.0,-2.0
1701540656.571146,0.0,0.0,0.0,5.0,5.0,1.0,-2.0,-1.0
1701540656.571146,-3.0,1.0,8.0,31.0,4.0,1.0,-2.0,6.0
1701540656.5741878,5.0,1.0,-8.0,-29.0,-7.0,-5.0,3.0,15.0
1701540656.5751867,-4.0,-4.0,0.0,5.0,-1.0,1.0,1.0,-21.0
1701540656.5751867,-1.0,-6.0,-4.0,-10.0,-3.0,-4.0,-11.0,1.0
1701540656.5751867,3.0,-6.0,4.0,2.0,-1.0,0.0,-2.0,-11.0
1701540656.602521,-1.0,2.0,-2.0,11.0,1.0,1.0,6.0,3.0
1701540656.602521,3.0,2.0,0.0,-3.0,-1.0,-2.0,-7.0,2.0
1701540656.602521,-6.0,-3.0,2.0,-1.0,0.0,-6.0,-11.0,-15.0
1701540656.602521,7.0,2.0,-12.0,-8.0,-1.0,1.0,6.0,1.0
1701540656.6035428,-10.0,1.0,-5.0,2.0,1.0,5.0,9.0,5.0
1701540656.6035428,-21.0,-9.0,5.0,-5.0,-4.0,-2.0,3.0,5.0
1701540656.6662068,-3.0,4.0,-1.0,2.0,4.0,-2.0,0.0,9.0
1701540656.6662068,-2.0,-3.0,-1.0,-10.0,-1.0,1.0,12.0,1.0
1701540656.6662068,12.0,9.0,1.0,-1.0,-4.0,-4.0,-11.0,-11.0
1701540656.6662068,38.0,6.0,1.0,16.0,3.0,1.0,4.0,6.0
1701540656.6662068,-31.0,-4.0,-3.0,-9.0,-2.0,2.0,-5.0,-1.0
1701540656.6662068,11.0,-10.0,1.0,-4.0,-1.0,-1.0,8.0,7.0
1701540656.6662068,2.0,3.0,12.0,8.0,-1.0,-1.0,6.0,1.0
1701540656.6662068,-5.0,-8.0,-4.0,-9.0,-5.0,1.0,-5.0,-8.0
1701540656.6662068,15.0,-3.0,-14.0,-5.0,1.0,0.0,0.0,0.0
1701540656.6662068,-2.0,3.0,-4.0,-19.0,-4.0,2.0,0.0,7.0
1701540656.6662068,-9.0,-6.0,-1.0,14.0,10.0,-1.0,-3.0,-1.0
1701540656.6686015,7.0,-1.0,0.0,-6.0,-4.0,-2.0,0.0,-3.0
1701540656.6696856,1.0,0.0,9.0,-1.0,-5.0,-3.0,-2.0,-2.0
1701540656.6696856,-12.0,1.0,-15.0,2.0,0.0,2.0,1.0,2.0
1701540656.7208447,2.0,-4.0,22.0,-4.0,-5.0,-5.0,-5.0,-2.0
1701540656.7208447,-8.0,5.0,-43.0,-11.0,0.0,1.0,1.0,-2.0
1701540656.7208447,-6.0,-4.0,2.0,-3.0,-4.0,-4.0,-3.0,-2.0
1701540656.7208447,-3.0,1.0,3.0,-4.0,-4.0,-4.0,-1.0,3.0
1701540656.7208447,3.0,2.0,2.0,-1.0,-1.0,0.0,-3.0,-10.0
1701540656.7208447,-5.0,-6.0,3.0,8.0,6.0,1.0,2.0,2.0
1701540656.721845,-3.0,-2.0,-8.0,4.0,-6.0,-1.0,-2.0,-2.0
1701540656.721845,6.0,1.0,17.0,0.0,-5.0,-3.0,-6.0,0.0
1701540656.761187,-2.0,-4.0,-18.0,-10.0,0.0,2.0,1.0,-1.0
1701540656.7625241,-7.0,-2.0,11.0,2.0,0.0,3.0,-1.0,-4.0
1701540656.7725334,2.0,-2.0,0.0,13.0,5.0,0.0,5.0,8.0
1701540656.7725334,-5.0,-1.0,2.0,-2.0,0.0,-2.0,-10.0,-16.0
1701540656.773533,-2.0,2.0,-2.0,-3.0,-1.0,1.0,2.0,4.0
1701540656.773533,-3.0,-1.0,-2.0,0.0,-3.0,-1.0,-1.0,0.0
1701540656.773533,5.0,-1.0,8.0,-1.0,2.0,-2.0,0.0,0.0
1701540656.773533,-2.0,-2.0,-8.0,-15.0,-7.0,-5.0,4.0,6.0
1701540656.773533,-5.0,-1.0,-2.0,-8.0,0.0,-1.0,-19.0,-8.0
1701540656.773533,1.0,-3.0,2.0,29.0,7.0,1.0,-5.0,-6.0
1701540656.7756176,-2.0,-10.0,5.0,-2.0,-6.0,-4.0,-3.0,-5.0
1701540656.7756176,-3.0,5.0,-23.0,-18.0,1.0,-2.0,0.0,1.0
1701540656.7883117,2.0,0.0,3.0,-1.0,-10.0,-4.0,4.0,1.0
1701540656.7883117,-3.0,2.0,-3.0,13.0,8.0,1.0,0.0,2.0
1701540656.846247,-1.0,-1.0,3.0,-12.0,4.0,3.0,-1.0,-1.0
1701540656.846247,-3.0,-5.0,-13.0,7.0,-1.0,0.0,1.0,-1.0
1701540656.846247,5.0,-2.0,17.0,-7.0,-6.0,-4.0,-3.0,0.0
1701540656.846247,3.0,-3.0,-6.0,-7.0,0.0,-1.0,2.0,1.0
1701540656.846247,-6.0,-2.0,-10.0,0.0,-7.0,-4.0,-4.0,-4.0
1701540656.846247,-3.0,0.0,7.0,-2.0,-2.0,-2.0,-2.0,0.0
1701540656.846247,-2.0,1.0,-14.0,1.0,2.0,2.0,4.0,1.0
1701540656.846247,1.0,0.0,18.0,0.0,-4.0,-1.0,-2.0,0.0
1701540656.8469718,2.0,-4.0,0.0,-2.0,-2.0,1.0,-2.0,-1.0
1701540656.8469718,-2.0,1.0,-5.0,-1.0,2.0,1.0,0.0,0.0
1701540656.8751469,-3.0,-6.0,-3.0,11.0,2.0,-1.0,1.0,0.0
1701540656.8751469,-4.0,-1.0,2.0,-8.0,-5.0,1.0,2.0,4.0
1701540656.8751469,0.0,3.0,18.0,3.0,-3.0,-2.0,0.0,-7.0
1701540656.8751469,1.0,-5.0,-31.0,-7.0,-2.0,0.0,-1.0,0.0
1701540656.8751469,-4.0,-4.0,7.0,14.0,2.0,2.0,3.0,2.0
1701540656.8751469,0.0,0.0,-31.0,-36.0,-5.0,-1.0,0.0,-1.0
1701540656.878203,-1.0,-1.0,11.0,8.0,-1.0,-4.0,-5.0,1.0
1701540656.878203,2.0,-2.0,16.0,4.0,-4.0,-2.0,-2.0,0.0
1701540656.900043,1.0,1.0,-1.0,-2.0,-4.0,-2.0,0.0,-3.0
1701540656.900043,0.0,8.0,7.0,1.0,11.0,6.0,16.0,6.0
1701540656.9040165,-1.0,-5.0,-35.0,2.0,7.0,2.0,-9.0,-3.0
1701540656.9040165,2.0,-7.0,19.0,4.0,0.0,-2.0,2.0,6.0
1701540656.9393644,-5.0,-4.0,-10.0,-6.0,-4.0,-5.0,-10.0,-14.0
1701540656.9406524,-4.0,-2.0,-1.0,-6.0,-12.0,-7.0,-6.0,-3.0
1701540656.9540746,2.0,2.0,0.0,-6.0,-2.0,-1.0,7.0,6.0
1701540656.9540746,-1.0,-2.0,-1.0,9.0,2.0,1.0,0.0,-1.0
1701540656.960789,0.0,-2.0,-8.0,-28.0,-13.0,-6.0,-3.0,1.0
1701540656.960789,-2.0,6.0,18.0,10.0,-2.0,-3.0,-3.0,-5.0
1701540656.960789,-2.0,-5.0,-41.0,24.0,25.0,6.0,2.0,-1.0
1701540656.960789,2.0,-2.0,-11.0,16.0,4.0,2.0,-1.0,1.0
1701540656.974839,-2.0,0.0,-2.0,7.0,2.0,0.0,4.0,1.0
1701540656.974839,-2.0,-8.0,15.0,-21.0,-13.0,-4.0,-5.0,-4.0
1701540656.974839,0.0,5.0,15.0,-15.0,-12.0,-2.0,-1.0,2.0
1701540656.974839,-3.0,7.0,15.0,18.0,4.0,1.0,-2.0,-3.0
1701540656.9758642,-1.0,-1.0,-22.0,-33.0,-4.0,0.0,-2.0,-2.0
1701540656.9758642,-1.0,0.0,-4.0,3.0,1.0,-2.0,-1.0,2.0
1701540656.9859567,2.0,-1.0,6.0,2.0,-2.0,-2.0,0.0,-3.0
1701540656.9859567,-1.0,-6.0,37.0,4.0,1.0,0.0,-3.0,-4.0
1701540656.987056,-1.0,1.0,-20.0,13.0,2.0,3.0,0.0,0.0
1701540656.987056,-1.0,-8.0,-32.0,-3.0,3.0,1.0,0.0,1.0
1701540656.993702,0.0,6.0,12.0,-2.0,-2.0,2.0,11.0,6.0
1701540656.993702,13.0,0.0,1.0,-11.0,-13.0,-7.0,-12.0,25.0
1701540657.0556102,-10.0,-5.0,-10.0,3.0,14.0,0.0,-26.0,-69.0
1701540657.0556102,0.0,-6.0,17.0,-2.0,6.0,-11.0,-34.0,-13.0
1701540657.0556102,-3.0,8.0,3.0,5.0,-8.0,4.0,-14.0,-7.0
1701540657.0556102,-6.0,-7.0,-30.0,-17.0,3.0,19.0,73.0,17.0
1701540657.0561624,12.0,-5.0,19.0,-2.0,-8.0,4.0,28.0,31.0
1701540657.0561624,3.0,-2.0,1.0,14.0,6.0,-2.0,2.0,1.0
1701540657.0561624,-7.0,-12.0,-19.0,-15.0,-8.0,-13.0,-22.0,-11.0
1701540657.0561624,4.0,18.0,40.0,6.0,-1.0,-9.0,-17.0,-8.0
1701540657.0588813,-5.0,-8.0,-87.0,-6.0,-5.0,-2.0,-1.0,10.0
1701540657.05988,-6.0,-3.0,14.0,-12.0,-8.0,-1.0,3.0,-6.0
1701540657.05988,1.0,-1.0,16.0,5.0,3.0,-3.0,-1.0,7.0
1701540657.05988,-3.0,-2.0,2.0,12.0,-2.0,-2.0,-12.0,-13.0
1701540657.1082585,-6.0,-1.0,5.0,11.0,13.0,0.0,3.0,4.0
1701540657.1082585,-2.0,0.0,-4.0,-9.0,-5.0,6.0,-7.0,3.0
1701540657.109258,1.0,-4.0,-17.0,-14.0,-8.0,-1.0,9.0,2.0
1701540657.109258,-5.0,-1.0,-18.0,-16.0,-5.0,1.0,3.0,-5.0
1701540657.109258,2.0,4.0,44.0,13.0,9.0,0.0,-15.0,-7.0
1701540657.109258,1.0,-4.0,-61.0,-3.0,5.0,4.0,12.0,4.0
1701540657.109258,-2.0,14.0,26.0,-23.0,-10.0,-5.0,1.0,-3.0
1701540657.109258,4.0,-4.0,-1.0,9.0,0.0,-6.0,-9.0,-6.0
1701540657.109258,-40.0,-13.0,2.0,3.0,-4.0,-2.0,4.0,8.0
1701540657.1108599,3.0,6.0,23.0,10.0,-3.0,0.0,4.0,0.0
1701540657.1119452,-2.0,-10.0,-10.0,13.0,6.0,-2.0,1.0,0.0
1701540657.1119452,1.0,-31.0,-16.0,-7.0,3.0,-1.0,-10.0,0.0
1701540657.1756895,11.0,9.0,18.0,2.0,-4.0,1.0,-3.0,-9.0
1701540657.1756895,-3.0,0.0,11.0,1.0,0.0,1.0,3.0,1.0
1701540657.1756895,-3.0,5.0,-18.0,5.0,0.0,-3.0,-2.0,-6.0
1701540657.1756895,-3.0,5.0,12.0,-7.0,-4.0,-3.0,-8.0,-3.0
1701540657.1756895,8.0,4.0,85.0,10.0,3.0,2.0,7.0,12.0
1701540657.1756895,-2.0,-17.0,-5.0,2.0,-6.0,-4.0,-4.0,-2.0
1701540657.1756895,24.0,-23.0,-38.0,-7.0,-2.0,1.0,1.0,7.0
1701540657.1756895,6.0,-73.0,28.0,-1.0,6.0,3.0,-2.0,-6.0
1701540657.2035038,1.0,95.0,-5.0,-7.0,-5.0,-2.0,-1.0,7.0
1701540657.2035038,-7.0,18.0,-1.0,5.0,-6.0,-7.0,1.0,-5.0
1701540657.2035038,12.0,16.0,19.0,18.0,5.0,8.0,4.0,0.0
1701540657.2035038,9.0,-11.0,-1.0,2.0,0.0,-3.0,-9.0,1.0
1701540657.2035038,-3.0,-44.0,-16.0,-7.0,-2.0,-2.0,-8.0,-27.0
1701540657.2035038,-15.0,-27.0,-6.0,-8.0,0.0,1.0,5.0,6.0
1701540657.2035038,1.0,5.0,-58.0,-22.0,-4.0,-1.0,17.0,20.0
1701540657.2035038,-10.0,36.0,16.0,12.0,-5.0,-5.0,-15.0,-6.0
1701540657.2167478,6.0,-31.0,41.0,11.0,2.0,2.0,-3.0,-29.0
1701540657.2167478,-3.0,0.0,7.0,-2.0,-2.0,-5.0,-23.0,-25.0
1701540657.217708,-7.0,-15.0,-35.0,-11.0,3.0,3.0,3.0,1.0
1701540657.217708,-8.0,29.0,26.0,-1.0,-8.0,-3.0,23.0,68.0
1701540657.23041,6.0,1.0,-17.0,14.0,8.0,11.0,27.0,-12.0
1701540657.23041,2.0,-9.0,40.0,0.0,0.0,-5.0,-35.0,-21.0
1701540657.280932,-13.0,-13.0,-1.0,-1.0,7.0,0.0,-4.0,1.0
1701540657.280932,-10.0,21.0,-32.0,-6.0,-7.0,1.0,-16.0,-12.0
1701540657.280932,6.0,2.0,-5.0,-3.0,-1.0,-6.0,22.0,26.0
1701540657.280932,8.0,4.0,18.0,5.0,3.0,7.0,26.0,20.0
1701540657.280932,-4.0,-10.0,56.0,11.0,-2.0,-5.0,-12.0,-24.0
1701540657.280932,-5.0,-1.0,-60.0,-24.0,-3.0,-1.0,-2.0,-7.0
1701540657.2819917,-7.0,-56.0,3.0,-1.0,-10.0,-5.0,-11.0,18.0
1701540657.2819917,-5.0,52.0,-68.0,-7.0,-2.0,0.0,-4.0,-9.0
1701540657.2870061,-3.0,-5.0,41.0,15.0,-6.0,-2.0,-6.0,-5.0
1701540657.2870061,-7.0,48.0,-13.0,-7.0,-2.0,-4.0,-8.0,-25.0
1701540657.2903697,-1.0,-38.0,-29.0,-14.0,7.0,6.0,-2.0,24.0
1701540657.2913678,-5.0,-29.0,-2.0,-5.0,-1.0,1.0,4.0,-8.0
1701540657.3031125,-2.0,45.0,90.0,15.0,-13.0,-9.0,-5.0,-2.0
1701540657.3031125,3.0,-9.0,-28.0,-1.0,6.0,4.0,16.0,7.0
1701540657.344266,-2.0,0.0,-13.0,2.0,-4.0,-7.0,-38.0,-37.0
1701540657.344266,2.0,-36.0,27.0,-8.0,1.0,3.0,9.0,16.0
1701540657.344266,-11.0,-15.0,-14.0,-1.0,2.0,5.0,2.0,-4.0
1701540657.344266,3.0,-6.0,61.0,1.0,2.0,-2.0,4.0,5.0
1701540657.3452644,-1.0,7.0,10.0,-3.0,0.0,-3.0,-3.0,9.0
1701540657.3452644,5.0,12.0,-62.0,2.0,-8.0,-6.0,-16.0,7.0
1701540657.3456368,4.0,-1.0,3.0,-9.0,-3.0,-2.0,17.0,-5.0
1701540657.3456368,-9.0,-10.0,-13.0,1.0,-3.0,-5.0,-20.0,-38.0
1701540657.3467143,8.0,2.0,1.0,-4.0,-5.0,3.0,5.0,8.0
1701540657.3467143,-18.0,3.0,4.0,11.0,4.0,3.0,6.0,-3.0
1701540657.3570364,0.0,-4.0,-35.0,3.0,8.0,4.0,-3.0,11.0
1701540657.3570364,-13.0,-36.0,10.0,-9.0,-3.0,-2.0,3.0,2.0
1701540657.4105294,0.0,19.0,-7.0,-18.0,-8.0,-7.0,5.0,-1.0
1701540657.4105294,6.0,4.0,30.0,1.0,-13.0,-4.0,-1.0,4.0
1701540657.4115293,-9.0,-8.0,-16.0,15.0,6.0,1.0,-2.0,0.0
1701540657.4115293,8.0,-35.0,26.0,7.0,1.0,0.0,-3.0,-11.0
1701540657.4115293,-5.0,29.0,-31.0,-7.0,-6.0,-5.0,-7.0,4.0
1701540657.4115293,-4.0,14.0,-8.0,-26.0,-7.0,-5.0,7.0,1.0
1701540657.4115293,5.0,5.0,59.0,0.0,-4.0,-2.0,-6.0,-5.0
1701540657.4115293,2.0,-4.0,-32.0,30.0,11.0,1.0,-6.0,-5.0
1701540657.426257,1.0,-4.0,-11.0,11.0,2.0,-1.0,6.0,12.0
1701540657.426257,3.0,-4.0,-22.0,-2.0,4.0,3.0,5.0,-2.0
1701540657.426257,-5.0,-2.0,-36.0,-28.0,-10.0,-4.0,-4.0,-7.0
1701540657.426257,0.0,8.0,-1.0,-12.0,-3.0,0.0,-4.0,1.0
1701540657.4376392,0.0,-1.0,7.0,3.0,0.0,-2.0,4.0,6.0
1701540657.4376392,7.0,3.0,11.0,12.0,3.0,1.0,6.0,1.0
1701540657.4439273,9.0,3.0,-1.0,0.0,4.0,1.0,-19.0,0.0
1701540657.4439273,-29.0,18.0,-5.0,-23.0,-7.0,1.0,20.0,-2.0
1701540657.4577675,-4.0,0.0,-33.0,24.0,14.0,2.0,1.0,-5.0
1701540657.4577675,3.0,-14.0,0.0,-15.0,-8.0,-2.0,-2.0,4.0
1701540657.4591188,-6.0,6.0,-6.0,30.0,10.0,3.0,-5.0,-3.0
1701540657.4591188,2.0,-2.0,-7.0,-23.0,-3.0,-1.0,-11.0,1.0
1701540657.5036237,0.0,9.0,3.0,-29.0,-22.0,-7.0,2.0,3.0
1701540657.5036237,-5.0,-9.0,-11.0,41.0,15.0,3.0,-15.0,-10.0
1701540657.5036237,1.0,-1.0,1.0,-14.0,-13.0,-25.0,-63.0,-10.0
1701540657.5036237,-1.0,-6.0,3.0,-6.0,-3.0,23.0,78.0,4.0
1701540657.504559,4.0,-22.0,11.0,-11.0,-5.0,-8.0,6.0,9.0
1701540657.504559,1.0,-16.0,-18.0,-11.0,-5.0,-2.0,18.0,8.0
1701540657.504559,-2.0,-2.0,27.0,-14.0,-6.0,-1.0,-11.0,-8.0
1701540657.504559,-2.0,17.0,5.0,18.0,4.0,-13.0,-30.0,-8.0
1701540657.5175369,-2.0,5.0,7.0,2.0,0.0,0.0,0.0,1.0
1701540657.5175369,-4.0,-12.0,7.0,4.0,1.0,3.0,-5.0,-3.0
1701540657.5189958,-6.0,-12.0,-36.0,-11.0,1.0,-3.0,9.0,-3.0
1701540657.5189958,4.0,14.0,-8.0,7.0,0.0,-4.0,-28.0,-1.0
1701540657.564817,-1.0,-6.0,-15.0,-7.0,-1.0,1.0,13.0,0.0
1701540657.564817,3.0,37.0,44.0,19.0,0.0,-7.0,0.0,-5.0
1701540657.564817,-6.0,-24.0,-29.0,-61.0,-19.0,0.0,22.0,7.0
1701540657.564817,9.0,0.0,-2.0,40.0,2.0,3.0,4.0,10.0
1701540657.564817,-1.0,2.0,2.0,30.0,18.0,3.0,-32.0,-21.0
1701540657.564817,1.0,19.0,1.0,-26.0,-10.0,-6.0,-12.0,-1.0
1701540657.564817,-1.0,7.0,-5.0,5.0,2.0,2.0,27.0,3.0
1701540657.564817,0.0,-8.0,-30.0,-49.0,-24.0,-9.0,-33.0,-3.0
1701540657.577825,1.0,-5.0,-3.0,-4.0,-3.0,0.0,33.0,3.0
1701540657.577825,-15.0,5.0,4.0,7.0,5.0,2.0,12.0,-2.0
1701540657.5789607,5.0,51.0,13.0,9.0,1.0,5.0,8.0,10.0
1701540657.5789607,7.0,-17.0,-36.0,-2.0,2.0,-8.0,-24.0,4.0
1701540657.6217132,-16.0,-22.0,9.0,8.0,4.0,0.0,-4.0,-22.0
1701540657.6217132,25.0,-51.0,9.0,-12.0,1.0,5.0,2.0,3.0
1701540657.6217132,1.0,-6.0,-3.0,16.0,6.0,6.0,22.0,10.0
1701540657.6217132,-2.0,24.0,-13.0,4.0,2.0,-3.0,-25.0,-15.0
1701540657.6217132,0.0,50.0,39.0,-11.0,-9.0,-12.0,-17.0,3.0
1701540657.6217132,3.0,4.0,-17.0,-9.0,-6.0,1.0,6.0,10.0
1701540657.6217132,-6.0,-37.0,17.0,-7.0,5.0,5.0,-4.0,-4.0
1701540657.6217132,21.0,-32.0,11.0,33.0,4.0,5.0,27.0,10.0
1701540657.6580808,-39.0,-18.0,-26.0,10.0,7.0,5.0,0.0,0.0
1701540657.6580808,5.0,31.0,18.0,-4.0,-1.0,-6.0,-9.0,-10.0
1701540657.6580808,-5.0,-17.0,-12.0,-67.0,-21.0,-4.0,-2.0,0.0
1701540657.6580808,-2.0,17.0,127.0,81.0,31.0,5.0,9.0,0.0
1701540657.6611514,10.0,-32.0,-75.0,12.0,-5.0,-8.0,-16.0,3.0
1701540657.6611514,0.0,1.0,-44.0,-9.0,-8.0,-12.0,-8.0,-9.0
1701540657.6611514,3.0,-1.0,-16.0,8.0,6.0,9.0,17.0,1.0
1701540657.6611514,-5.0,-21.0,-17.0,-48.0,-11.0,-10.0,-93.0,-44.0
1701540657.6653588,11.0,16.0,24.0,-18.0,-12.0,-5.0,90.0,50.0
1701540657.6653588,-9.0,2.0,3.0,19.0,15.0,28.0,43.0,14.0
1701540657.6766093,-10.0,-3.0,-43.0,-20.0,-7.0,-6.0,-6.0,-5.0
1701540657.6766093,-1.0,1.0,4.0,-3.0,2.0,-5.0,10.0,-14.0
1701540657.7418375,57.0,-4.0,53.0,28.0,5.0,0.0,-34.0,-13.0
1701540657.7418375,-9.0,-33.0,-27.0,-25.0,-10.0,-8.0,-22.0,-1.0
1701540657.7418375,5.0,8.0,2.0,31.0,9.0,0.0,5.0,5.0
1701540657.7418375,-16.0,-4.0,-19.0,-2.0,3.0,2.0,-6.0,5.0
1701540657.7418375,-22.0,-10.0,-26.0,-30.0,-6.0,-5.0,-12.0,-12.0
1701540657.7418375,7.0,2.0,15.0,2.0,-7.0,1.0,16.0,3.0
1701540657.7418375,-3.0,7.0,-4.0,5.0,-7.0,-4.0,-18.0,-12.0
1701540657.7418375,-3.0,7.0,-15.0,-12.0,0.0,-4.0,10.0,6.0
1701540657.7418375,0.0,21.0,19.0,-4.0,0.0,3.0,-15.0,-2.0
1701540657.7418375,-8.0,-11.0,17.0,8.0,5.0,4.0,11.0,2.0
1701540657.7428365,-2.0,-9.0,-1.0,17.0,0.0,-6.0,-15.0,-12.0
1701540657.7428365,-6.0,-13.0,-31.0,-53.0,-18.0,-2.0,26.0,14.0
1701540657.7771904,0.0,6.0,4.0,-2.0,0.0,5.0,-2.0,5.0
1701540657.7771904,-12.0,-5.0,11.0,8.0,6.0,-4.0,-26.0,-20.0
1701540657.7771904,16.0,1.0,-20.0,16.0,2.0,-4.0,-13.0,-1.0
1701540657.7771904,-2.0,1.0,3.0,1.0,-2.0,-1.0,22.0,6.0
1701540657.778243,-27.0,-10.0,6.0,-11.0,-2.0,3.0,-4.0,1.0
1701540657.779442,1.0,3.0,-4.0,11.0,4.0,-8.0,-11.0,5.0
1701540657.7804413,1.0,0.0,27.0,8.0,8.0,0.0,5.0,-9.0
1701540657.7804413,12.0,19.0,23.0,7.0,3.0,5.0,8.0,3.0
1701540657.832977,-11.0,0.0,-19.0,-9.0,0.0,-1.0,-13.0,-5.0
1701540657.832977,-9.0,-12.0,-53.0,-24.0,-22.0,-11.0,-12.0,-17.0
1701540657.832977,3.0,-20.0,14.0,9.0,0.0,2.0,-7.0,-1.0
1701540657.8339777,-8.0,-5.0,-12.0,-1.0,-2.0,3.0,33.0,8.0
1701540657.8339777,9.0,20.0,14.0,4.0,1.0,-3.0,-14.0,-6.0
1701540657.8339777,-7.0,10.0,32.0,12.0,7.0,2.0,1.0,0.0
1701540657.8339777,10.0,-9.0,-47.0,-10.0,2.0,0.0,-3.0,0.0
1701540657.8339777,0.0,1.0,51.0,-10.0,-11.0,-4.0,-9.0,-3.0
1701540657.8339777,31.0,6.0,-53.0,2.0,-4.0,-4.0,1.0,0.0
1701540657.8339777,-40.0,13.0,21.0,2.0,1.0,-8.0,-4.0,-6.0
1701540657.8390868,-37.0,23.0,1.0,6.0,-2.0,-2.0,-25.0,-5.0
1701540657.8390868,35.0,-22.0,-29.0,4.0,6.0,19.0,40.0,20.0
1701540657.8923662,-1.0,-26.0,79.0,-16.0,-13.0,-2.0,-8.0,-6.0
1701540657.89371,15.0,0.0,14.0,1.0,-5.0,-1.0,-13.0,-1.0
1701540657.8950326,2.0,-10.0,-4.0,7.0,2.0,-4.0,33.0,7.0
1701540657.8950326,-25.0,13.0,-28.0,-7.0,-1.0,-7.0,-13.0,-4.0
1701540657.8950326,-7.0,-4.0,19.0,3.0,3.0,3.0,-5.0,-2.0
1701540657.8950326,11.0,-1.0,-79.0,-9.0,-4.0,-3.0,-4.0,-14.0
1701540657.8950326,-4.0,-1.0,51.0,-17.0,-2.0,7.0,9.0,7.0
1701540657.8950326,2.0,5.0,-30.0,2.0,-3.0,-3.0,-19.0,-11.0
1701540657.8961189,-3.0,6.0,12.0,-2.0,-1.0,0.0,-1.0,-1.0
1701540657.8961189,4.0,16.0,-46.0,-1.0,3.0,-8.0,-6.0,10.0
1701540657.9076436,8.0,9.0,36.0,23.0,-4.0,1.0,3.0,2.0
1701540657.9076436,-8.0,-20.0,24.0,-18.0,-6.0,-6.0,-3.0,-4.0
1701540657.9496286,-1.0,6.0,-23.0,18.0,11.0,-4.0,-8.0,-1.0
1701540657.9509683,-13.0,-14.0,22.0,0.0,6.0,8.0,11.0,11.0
1701540657.9535906,-13.0,11.0,7.0,-3.0,-4.0,-2.0,-1.0,-5.0
1701540657.9535906,40.0,16.0,14.0,17.0,0.0,-6.0,-28.0,2.0
1701540657.9535906,-22.0,-40.0,-61.0,-59.0,-16.0,5.0,35.0,0.0
1701540657.9535906,-18.0,-11.0,9.0,-17.0,-3.0,9.0,0.0,-6.0
1701540657.9535906,33.0,6.0,-3.0,3.0,-1.0,2.0,10.0,4.0
1701540657.9535906,-10.0,16.0,44.0,18.0,6.0,-9.0,-9.0,-3.0
1701540657.9545915,3.0,-16.0,-41.0,7.0,7.0,1.0,-10.0,-9.0
1701540657.9545915,7.0,15.0,37.0,5.0,-8.0,-6.0,1.0,4.0
1701540657.9670763,-9.0,-14.0,-46.0,-12.0,-3.0,1.0,-10.0,-8.0
1701540657.9670763,-4.0,11.0,3.0,-3.0,1.0,-1.0,13.0,7.0
1701540658.011472,-2.0,44.0,24.0,20.0,0.0,-5.0,-4.0,-5.0
1701540658.011472,16.0,21.0,33.0,12.0,10.0,-1.0,-1.0,2.0
1701540658.011472,-17.0,-56.0,-43.0,11.0,9.0,-2.0,-32.0,-4.0
1701540658.011472,7.0,-22.0,7.0,-11.0,-10.0,4.0,36.0,2.0
1701540658.011472,12.0,11.0,9.0,4.0,0.0,3.0,-2.0,4.0
1701540658.011472,-11.0,-2.0,31.0,-12.0,-10.0,-3.0,-8.0,-3.0
1701540658.011472,5.0,34.0,52.0,0.0,-4.0,-4.0,-5.0,5.0
1701540658.011472,0.0,-31.0,-43.0,-24.0,-1.0,1.0,0.0,-3.0
1701540658.018495,2.0,-12.0,43.0,-8.0,-12.0,2.0,7.0,-15.0
1701540658.018495,30.0,-7.0,6.0,5.0,4.0,0.0,18.0,9.0
1701540658.0256038,-14.0,-3.0,5.0,4.0,5.0,1.0,6.0,-1.0
1701540658.0261421,-7.0,-4.0,-3.0,2.0,3.0,0.0,-18.0,-4.0
1701540658.0609465,0.0,18.0,22.0,20.0,4.0,-6.0,-4.0,-5.0
1701540658.0609465,-3.0,-13.0,-46.0,-7.0,-1.0,-7.0,2.0,5.0
1701540658.0632315,7.0,-6.0,11.0,1.0,1.0,5.0,-13.0,-2.0
1701540658.0632315,-20.0,1.0,-100.0,-11.0,-9.0,0.0,15.0,3.0
1701540658.0642314,-10.0,-11.0,42.0,-2.0,4.0,-2.0,-17.0,-1.0
1701540658.0642314,6.0,4.0,-34.0,-2.0,0.0,2.0,-1.0,-4.0
1701540658.06529,1.0,15.0,-16.0,1.0,-8.0,-14.0,-31.0,-4.0
1701540658.06529,-4.0,12.0,-8.0,2.0,-2.0,-22.0,9.0,-7.0
1701540658.0788124,43.0,-17.0,2.0,-1.0,5.0,42.0,22.0,10.0
1701540658.0798497,2.0,-8.0,14.0,-3.0,-1.0,-1.0,3.0,3.0
1701540658.0807452,-6.0,-2.0,-2.0,-3.0,-3.0,-5.0,4.0,-3.0
1701540658.0807452,2.0,-24.0,8.0,-13.0,-7.0,0.0,-13.0,-8.0
1701540658.089945,-14.0,19.0,-33.0,-13.0,-8.0,-20.0,-9.0,0.0
1701540658.089945,5.0,5.0,29.0,42.0,10.0,-3.0,-4.0,1.0
1701540658.103803,8.0,-3.0,7.0,-19.0,-6.0,1.0,10.0,-1.0
1701540658.103803,-22.0,9.0,7.0,18.0,3.0,-4.0,-11.0,-6.0
1701540658.1485732,-1.0,-15.0,-25.0,9.0,-5.0,-5.0,7.0,8.0
1701540658.1485732,-5.0,8.0,-15.0,-19.0,-7.0,1.0,-7.0,5.0
1701540658.1485732,-21.0,14.0,25.0,4.0,-2.0,-10.0,-27.0,-25.0
1701540658.1485732,4.0,22.0,12.0,-17.0,-8.0,-36.0,-32.0,-5.0
1701540658.1770675,-6.0,-42.0,-5.0,-16.0,-5.0,20.0,47.0,6.0
1701540658.1770675,-55.0,-18.0,-36.0,4.0,4.0,24.0,29.0,-6.0
1701540658.1770675,13.0,-27.0,46.0,-2.0,-3.0,0.0,24.0,11.0
1701540658.1770675,3.0,-14.0,33.0,-3.0,8.0,9.0,-12.0,1.0
1701540658.1770675,-6.0,60.0,-8.0,7.0,-8.0,-34.0,-50.0,4.0
1701540658.1770675,3.0,-1.0,81.0,5.0,-1.0,-7.0,-4.0,-13.0
1701540658.1770675,13.0,22.0,-12.0,5.0,-3.0,0.0,10.0,3.0
1701540658.1770675,-8.0,-15.0,28.0,21.0,10.0,7.0,-6.0,4.0
1701540658.1780674,-11.0,-24.0,-51.0,7.0,2.0,-3.0,-3.0,2.0
1701540658.1780674,13.0,3.0,15.0,-17.0,-9.0,0.0,1.0,3.0
1701540658.1780674,-6.0,3.0,-51.0,-5.0,-4.0,-2.0,2.0,1.0
1701540658.1780674,11.0,4.0,22.0,9.0,0.0,6.0,6.0,4.0
1701540658.243442,-11.0,-6.0,20.0,24.0,11.0,0.0,-1.0,-6.0
1701540658.243442,0.0,-18.0,-40.0,-15.0,-9.0,-8.0,-13.0,-9.0
1701540658.243442,-32.0,-14.0,-30.0,0.0,0.0,-10.0,-1.0,-1.0
1701540658.243442,1.0,-27.0,-15.0,-2.0,-1.0,11.0,14.0,1.0
1701540658.243442,-3.0,-1.0,-2.0,-63.0,-13.0,4.0,-1.0,-3.0
1701540658.243442,2.0,6.0,-3.0,66.0,24.0,2.0,-14.0,-4.0
1701540658.243442,-2.0,2.0,-14.0,-10.0,3.0,3.0,15.0,5.0
1701540658.2443337,-3.0,18.0,20.0,18.0,4.0,6.0,4.0,0.0
1701540658.2443337,23.0,30.0,36.0,12.0,5.0,-5.0,-13.0,-4.0
1701540658.2443337,-49.0,-60.0,-83.0,-104.0,-37.0,-11.0,-8.0,-9.0
1701540658.2443337,9.0,15.0,55.0,25.0,11.0,11.0,10.0,4.0
1701540658.2443337,0.0,-14.0,2.0,29.0,2.0,-1.0,-8.0,-5.0
1701540658.2716012,7.0,-1.0,38.0,9.0,4.0,-27.0,-67.0,-3.0
1701540658.2716012,2.0,14.0,34.0,13.0,9.0,38.0,81.0,11.0
1701540658.2716012,37.0,-37.0,-56.0,-22.0,0.0,42.0,52.0,-7.0
1701540658.2716012,-16.0,-31.0,-32.0,-31.0,-8.0,1.0,-19.0,-9.0
1701540658.272608,1.0,-10.0,-27.0,11.0,4.0,0.0,14.0,6.0
1701540658.272608,2.0,16.0,12.0,-8.0,-5.0,-26.0,-39.0,-4.0
1701540658.272608,-12.0,15.0,11.0,-6.0,-7.0,-15.0,-17.0,2.0
1701540658.272608,13.0,17.0,-8.0,7.0,4.0,7.0,9.0,1.0
1701540658.2935646,-13.0,0.0,13.0,11.0,-1.0,-1.0,-2.0,-6.0
1701540658.2935646,14.0,2.0,28.0,11.0,4.0,-6.0,-12.0,0.0
1701540658.2979884,0.0,-5.0,2.0,10.0,5.0,-5.0,1.0,-2.0
1701540658.2979884,-47.0,28.0,-10.0,-28.0,-13.0,-6.0,-11.0,-7.0
1701540658.3365223,12.0,14.0,-27.0,-17.0,-2.0,3.0,14.0,4.0
1701540658.3365223,8.0,-5.0,60.0,14.0,-5.0,0.0,5.0,0.0
1701540658.3365223,-5.0,-21.0,3.0,14.0,-3.0,-3.0,-10.0,3.0
1701540658.3365223,12.0,-3.0,-16.0,-18.0,-6.0,-10.0,-12.0,-2.0
1701540658.3365223,-10.0,1.0,6.0,10.0,1.0,4.0,0.0,1.0
1701540658.3365223,20.0,13.0,22.0,1.0,9.0,18.0,-15.0,16.0
1701540658.3375227,-19.0,21.0,-7.0,-8.0,-9.0,-41.0,-16.0,-35.0
1701540658.3375227,9.0,13.0,1.0,7.0,-5.0,33.0,65.0,-8.0
1701540658.3551428,-5.0,-30.0,19.0,0.0,9.0,29.0,25.0,7.0
1701540658.3551428,18.0,6.0,-15.0,7.0,6.0,-8.0,-17.0,-9.0
1701540658.358811,-24.0,-35.0,21.0,-5.0,2.0,0.0,-13.0,14.0
1701540658.358811,-5.0,24.0,-37.0,-8.0,-6.0,-27.0,-43.0,-4.0
1701540658.4010003,-20.0,-22.0,-20.0,-8.0,-10.0,-5.0,16.0,-12.0
1701540658.4010003,6.0,16.0,-25.0,-29.0,-20.0,-11.0,-14.0,-1.0
1701540658.4010003,6.0,19.0,-30.0,-4.0,-5.0,2.0,-10.0,5.0
1701540658.4010003,5.0,8.0,35.0,21.0,9.0,-3.0,4.0,0.0
1701540658.4010003,1.0,-56.0,-17.0,1.0,3.0,6.0,-1.0,4.0
1701540658.4010003,1.0,-16.0,-14.0,0.0,6.0,-2.0,4.0,2.0
1701540658.4020007,-1.0,26.0,12.0,5.0,-4.0,3.0,3.0,-2.0
1701540658.4020007,-24.0,-33.0,31.0,-9.0,-1.0,1.0,-2.0,-4.0
1701540658.4111893,51.0,21.0,-41.0,-5.0,-6.0,-7.0,-9.0,10.0
1701540658.4111893,27.0,19.0,3.0,-2.0,-4.0,-5.0,13.0,-2.0
1701540658.4188533,11.0,46.0,71.0,26.0,15.0,-11.0,-12.0,6.0
1701540658.4188533,-4.0,-37.0,-81.0,-12.0,-7.0,-54.0,-72.0,-37.0
1701540658.4774406,-44.0,13.0,48.0,3.0,-9.0,57.0,80.0,32.0
1701540658.4774406,13.0,-27.0,4.0,-12.0,-1.0,36.0,22.0,-3.0
1701540658.4774406,20.0,1.0,3.0,4.0,18.0,13.0,-1.0,23.0
1701540658.4774406,-51.0,5.0,18.0,6.0,6.0,-7.0,-23.0,-25.0
1701540658.4774406,39.0,11.0,-11.0,2.0,-6.0,-37.0,-56.0,-12.0
1701540658.4774406,-7.0,-6.0,-29.0,-3.0,-10.0,-12.0,-7.0,1.0
1701540658.4774406,-19.0,-37.0,16.0,-113.0,-57.0,-6.0,16.0,0.0
1701540658.4774406,5.0,20.0,-58.0,50.0,44.0,11.0,-1.0,10.0
1701540658.5110207,-21.0,-21.0,-15.0,63.0,10.0,-2.0,-2.0,-7.0
1701540658.5110207,-8.0,-6.0,17.0,-21.0,-7.0,-1.0,14.0,6.0
1701540658.5120523,3.0,-19.0,-25.0,-29.0,-1.0,-8.0,-31.0,-23.0
1701540658.5120523,15.0,19.0,-36.0,-67.0,-40.0,-4.0,13.0,15.0
1701540658.5120523,1.0,15.0,58.0,-21.0,-1.0,2.0,3.0,-4.0
1701540658.5120523,-7.0,-22.0,-33.0,23.0,19.0,-12.0,-10.0,2.0
1701540658.5120523,-10.0,7.0,-11.0,-2.0,-10.0,-3.0,-1.0,-3.0
1701540658.5120523,20.0,-8.0,43.0,0.0,-3.0,14.0,26.0,14.0
1701540658.5130372,-10.0,12.0,-33.0,-2.0,7.0,-6.0,-1.0,-5.0
1701540658.5130372,-14.0,16.0,15.0,11.0,-2.0,-16.0,-28.0,-12.0
1701540658.5140626,-1.0,4.0,-15.0,18.0,14.0,9.0,6.0,1.0
1701540658.5140626,11.0,-16.0,5.0,-8.0,1.0,17.0,15.0,9.0
1701540658.5336185,-9.0,34.0,22.0,-25.0,-12.0,-19.0,-24.0,-14.0
1701540658.5336185,-4.0,15.0,8.0,4.0,-4.0,-10.0,-9.0,-1.0
1701540658.5379887,-2.0,-28.0,-33.0,20.0,3.0,-1.0,-7.0,-5.0
1701540658.5379887,21.0,42.0,41.0,34.0,11.0,-61.0,-73.0,17.0
1701540658.5582416,-31.0,-91.0,-93.0,-55.0,-22.0,17.0,12.0,-21.0
1701540658.5582416,1.0,-17.0,6.0,1.0,6.0,-9.0,37.0,15.0
1701540658.5602415,-24.0,-10.0,7.0,6.0,-5.0,-13.0,-33.0,-34.0
1701540658.5602415,28.0,16.0,7.0,5.0,3.0,0.0,-14.0,4.0
1701540658.5727978,-35.0,2.0,6.0,-5.0,10.0,51.0,59.0,24.0
1701540658.5727978,26.0,8.0,67.0,28.0,1.0,-7.0,-31.0,-6.0
1701540658.5739992,3.0,-9.0,27.0,24.0,-6.0,-3.0,13.0,6.0
1701540658.5739992,5.0,1.0,17.0,-29.0,-16.0,-15.0,-39.0,-10.0
1701540658.6280174,7.0,35.0,10.0,51.0,24.0,-11.0,-37.0,-13.0
1701540658.6280174,-14.0,-1.0,-16.0,-15.0,6.0,17.0,16.0,6.0
1701540658.6280174,7.0,28.0,-54.0,-88.0,-47.0,-13.0,-17.0,5.0
1701540658.6280174,-20.0,-69.0,45.0,97.0,46.0,35.0,29.0,-7.0
1701540658.6280174,12.0,-4.0,-56.0,-37.0,-3.0,-10.0,-5.0,4.0
1701540658.6280174,-8.0,9.0,10.0,-22.0,4.0,10.0,1.0,-4.0
1701540658.6280174,6.0,-5.0,-10.0,-7.0,19.0,-14.0,-11.0,0.0
1701540658.6280174,7.0,22.0,38.0,-55.0,-21.0,18.0,37.0,9.0
1701540658.665616,0.0,41.0,67.0,-12.0,-26.0,-16.0,-2.0,0.0
1701540658.6666145,-12.0,-51.0,-59.0,17.0,2.0,-16.0,-28.0,-3.0
1701540658.671653,1.0,6.0,13.0,5.0,-6.0,8.0,-1.0,-15.0
1701540658.671653,-5.0,-26.0,-17.0,-7.0,0.0,18.0,34.0,8.0
1701540658.671653,10.0,-10.0,22.0,25.0,19.0,-17.0,-67.0,-8.0
1701540658.671653,1.0,10.0,29.0,-16.0,-12.0,2.0,34.0,10.0
1701540658.671653,-5.0,-13.0,-38.0,30.0,11.0,7.0,2.0,-4.0
1701540658.671653,-1.0,9.0,-64.0,-13.0,-7.0,-6.0,30.0,9.0
1701540658.6727672,7.0,17.0,39.0,-7.0,-6.0,-47.0,-91.0,-16.0
1701540658.6727672,-2.0,-8.0,27.0,5.0,7.0,51.0,85.0,7.0
1701540658.6727672,-6.0,-44.0,29.0,13.0,11.0,10.0,4.0,-6.0
1701540658.6727672,1.0,9.0,16.0,-14.0,-22.0,-5.0,-58.0,-10.0
1701540658.736632,2.0,15.0,-87.0,-2.0,-15.0,-18.0,34.0,5.0
1701540658.736632,-5.0,12.0,-2.0,0.0,0.0,21.0,-7.0,2.0
1701540658.736632,8.0,39.0,31.0,25.0,20.0,9.0,25.0,11.0
1701540658.736632,4.0,5.0,-3.0,-13.0,-3.0,5.0,-5.0,1.0
1701540658.736632,5.0,-10.0,41.0,11.0,-1.0,-6.0,-4.0,-3.0
1701540658.736632,-20.0,16.0,-8.0,2.0,-4.0,-22.0,-46.0,-17.0
1701540658.7376301,1.0,-9.0,-26.0,-39.0,-11.0,6.0,13.0,13.0
1701540658.7376301,-4.0,-17.0,-2.0,-44.0,-16.0,0.0,19.0,-2.0
1701540658.7376301,6.0,3.0,-34.0,45.0,24.0,4.0,2.0,-3.0
1701540658.7376301,4.0,-14.0,21.0,47.0,2.0,-17.0,-11.0,-7.0
1701540658.7376301,-2.0,-1.0,-85.0,17.0,3.0,-2.0,-6.0,4.0
1701540658.7376301,-1.0,-11.0,19.0,7.0,7.0,2.0,1.0,0.0
1701540658.8047197,-2.0,-22.0,39.0,-38.0,-11.0,2.0,21.0,0.0
1701540658.8047197,2.0,5.0,-79.0,-47.0,-11.0,-14.0,-28.0,-4.0
1701540658.8047197,-2.0,7.0,50.0,23.0,2.0,-7.0,-3.0,2.0
1701540658.8047197,1.0,19.0,9.0,-17.0,-8.0,-2.0,9.0,-1.0
1701540658.8047197,-6.0,-27.0,-23.0,-6.0,7.0,5.0,0.0,-4.0
1701540658.8047197,0.0,1.0,-23.0,-10.0,-9.0,-14.0,-8.0,0.0
1701540658.8095636,8.0,-4.0,27.0,10.0,-1.0,-5.0,-6.0,0.0
1701540658.8095636,-5.0,-19.0,-19.0,6.0,8.0,5.0,20.0,0.0
1701540658.8095636,4.0,45.0,47.0,7.0,2.0,-4.0,-8.0,0.0
1701540658.8095636,0.0,0.0,10.0,20.0,-3.0,-11.0,-23.0,-9.0
1701540658.8095636,-1.0,-17.0,-17.0,-8.0,-1.0,-2.0,4.0,3.0
1701540658.8095636,-3.0,11.0,-6.0,9.0,1.0,2.0,-10.0,0.0
1701540658.820458,-7.0,-11.0,-7.0,-5.0,0.0,9.0,18.0,2.0
1701540658.820458,1.0,1.0,17.0,-14.0,-2.0,-5.0,-9.0,-3.0
1701540658.8224537,-7.0,21.0,-27.0,7.0,5.0,-1.0,-3.0,0.0
1701540658.8224537,-1.0,-12.0,21.0,17.0,1.0,-1.0,1.0,-2.0
1701540658.8438907,-7.0,-18.0,0.0,-12.0,-4.0,2.0,2.0,0.0
1701540658.8448882,5.0,-9.0,-2.0,-4.0,0.0,1.0,-3.0,-2.0
1701540658.8448882,1.0,-12.0,22.0,-3.0,-3.0,4.0,-2.0,1.0
1701540658.8456762,-5.0,-2.0,47.0,4.0,3.0,12.0,13.0,-1.0
1701540658.91394,0.0,23.0,-39.0,3.0,-12.0,-21.0,-20.0,-2.0
1701540658.91394,-5.0,-2.0,29.0,-8.0,-1.0,13.0,11.0,-3.0
1701540658.91394,3.0,-14.0,15.0,2.0,6.0,13.0,24.0,6.0
1701540658.91394,-7.0,10.0,-27.0,-3.0,-8.0,-7.0,-4.0,-3.0
1701540658.91394,7.0,-15.0,12.0,10.0,8.0,8.0,9.0,1.0
1701540658.91394,0.0,-4.0,-4.0,-4.0,-5.0,-18.0,-28.0,-7.0
1701540658.91394,0.0,4.0,-4.0,-5.0,-4.0,-2.0,-7.0,-3.0
1701540658.91394,0.0,-5.0,-15.0,-3.0,-3.0,3.0,7.0,0.0
1701540658.91394,-1.0,-21.0,17.0,-36.0,-10.0,0.0,-1.0,2.0
1701540658.91394,-2.0,33.0,16.0,22.0,15.0,4.0,-6.0,-2.0
1701540658.91394,-2.0,12.0,-20.0,63.0,22.0,1.0,2.0,-1.0
1701540658.91394,2.0,-29.0,-1.0,-34.0,-9.0,2.0,-1.0,2.0
1701540658.9159522,-4.0,0.0,16.0,-17.0,-38.0,3.0,4.0,-3.0
1701540658.9159522,2.0,-28.0,49.0,51.0,44.0,16.0,1.0,0.0
1701540658.9159522,2.0,6.0,-43.0,-32.0,-12.0,2.0,1.0,1.0
1701540658.9159522,-1.0,9.0,10.0,16.0,5.0,-2.0,-6.0,-2.0
1701540658.9409778,2.0,-12.0,9.0,-32.0,-15.0,4.0,5.0,0.0
1701540658.9409778,-4.0,4.0,-26.0,-37.0,-21.0,-3.0,2.0,-2.0
1701540658.9417217,-3.0,3.0,30.0,13.0,4.0,-1.0,-7.0,1.0
1701540658.9417217,-1.0,0.0,-39.0,-3.0,-1.0,0.0,-1.0,0.0
1701540658.9802463,-1.0,-2.0,11.0,0.0,8.0,4.0,8.0,-1.0
1701540658.9802463,4.0,12.0,-19.0,12.0,2.0,-6.0,-11.0,-1.0
1701540658.9842153,-3.0,-19.0,32.0,2.0,11.0,5.0,4.0,-1.0
1701540658.9842153,-3.0,-9.0,-45.0,-20.0,-15.0,-2.0,2.0,-1.0
1701540658.9842153,-2.0,5.0,-11.0,14.0,13.0,3.0,1.0,0.0
1701540658.9842153,0.0,3.0,-13.0,-3.0,-2.0,-4.0,-5.0,-3.0
1701540658.9842153,3.0,2.0,23.0,-15.0,-14.0,-3.0,-7.0,-2.0
1701540658.9842153,-4.0,4.0,25.0,13.0,8.0,3.0,-2.0,3.0
1701540659.0156782,-2.0,-9.0,25.0,20.0,11.0,-1.0,-10.0,-10.0
1701540659.0156782,-4.0,-8.0,-75.0,-25.0,-11.0,4.0,22.0,-1.0
1701540659.0156782,11.0,-18.0,10.0,-15.0,-7.0,4.0,5.0,9.0
1701540659.0156782,-8.0,2.0,-4.0,16.0,3.0,0.0,-3.0,-11.0
1701540659.0156782,-3.0,6.0,-9.0,3.0,4.0,-7.0,-4.0,0.0
