1701540213.7879899,20.0,6.0,21.0,15.0,2.0,-1.0,-1.0,-1.0
1701540213.7883096,-4.0,-19.0,-43.0,-8.0,-5.0,-2.0,-3.0,-2.0
1701540213.7885091,-14.0,3.0,35.0,24.0,2.0,-1.0,-2.0,-5.0
1701540213.7885091,-27.0,3.0,19.0,-16.0,-5.0,-4.0,-1.0,-2.0
1701540213.7929463,0.0,-36.0,-5.0,-1.0,2.0,-1.0,2.0,0.0
1701540213.7929463,-2.0,44.0,-2.0,33.0,8.0,5.0,1.0,0.0
1701540213.8029668,7.0,-32.0,-16.0,-45.0,-7.0,-4.0,-2.0,-1.0
1701540213.8029668,3.0,29.0,16.0,-19.0,-12.0,-7.0,-4.0,-3.0
1701540213.863349,5.0,27.0,6.0,16.0,1.0,2.0,-3.0,-7.0
1701540213.863349,18.0,-23.0,11.0,12.0,5.0,0.0,-2.0,8.0
1701540213.863349,2.0,-3.0,-6.0,2.0,1.0,6.0,4.0,4.0
1701540213.863349,6.0,-3.0,-34.0,-17.0,-5.0,-1.0,0.0,1.0
1701540213.8679364,2.0,24.0,23.0,8.0,-5.0,-5.0,-3.0,-2.0
1701540213.8679364,-4.0,7.0,11.0,-4.0,-10.0,-6.0,-3.0,-4.0
1701540213.8679364,4.0,5.0,-40.0,-30.0,-3.0,1.0,2.0,2.0
1701540213.8679364,1.0,-2.0,34.0,12.0,3.0,0.0,-1.0,-3.0
1701540213.8679364,16.0,-18.0,-19.0,8.0,8.0,5.0,-3.0,2.0
1701540213.8679364,-11.0,-9.0,-1.0,-5.0,-4.0,-4.0,-3.0,-4.0
1701540213.8690186,0.0,17.0,-21.0,3.0,-11.0,-5.0,-3.0,1.0
1701540213.8690186,1.0,-1.0,-8.0,-25.0,4.0,4.0,2.0,-3.0
1701540213.9183934,8.0,-58.0,7.0,16.0,0.0,3.0,3.0,3.0
1701540213.9183934,-15.0,91.0,-10.0,-4.0,-4.0,-1.0,-4.0,-4.0
1701540213.9183934,-16.0,-19.0,21.0,13.0,3.0,-1.0,-1.0,0.0
1701540213.9183934,-19.0,8.0,-20.0,-8.0,-7.0,-3.0,-2.0,-7.0
1701540213.9183934,13.0,0.0,-8.0,-7.0,-3.0,-2.0,-1.0,4.0
1701540213.9183934,6.0,-54.0,17.0,3.0,1.0,2.0,1.0,-2.0
1701540213.9183934,-7.0,0.0,-19.0,-18.0,0.0,2.0,-3.0,-5.0
1701540213.9183934,5.0,-7.0,15.0,7.0,-1.0,-1.0,-3.0,0.0
1701540213.920852,1.0,4.0,-2.0,-1.0,1.0,-4.0,-4.0,-3.0
1701540213.920852,-5.0,-1.0,16.0,2.0,-4.0,-1.0,2.0,-2.0
1701540213.9229236,12.0,-6.0,7.0,2.0,6.0,3.0,3.0,2.0
1701540213.9229236,5.0,0.0,5.0,10.0,-7.0,-4.0,-2.0,-1.0
1701540213.9855561,1.0,22.0,8.0,1.0,1.0,-5.0,-4.0,-2.0
1701540213.9855561,3.0,-15.0,-3.0,-9.0,5.0,2.0,-3.0,-3.0
1701540213.9855561,11.0,-9.0,-5.0,12.0,5.0,3.0,1.0,0.0
1701540213.9855561,-1.0,9.0,1.0,-10.0,-2.0,-3.0,0.0,1.0
1701540213.9855561,-3.0,16.0,-8.0,4.0,-3.0,0.0,0.0,-2.0
1701540213.9855561,-3.0,-26.0,-22.0,-11.0,-4.0,-3.0,2.0,0.0
1701540213.9855561,0.0,24.0,12.0,7.0,-1.0,0.0,-3.0,-2.0
1701540213.9855561,10.0,-1.0,10.0,-2.0,0.0,-1.0,-1.0,2.0
1701540213.9855561,1.0,15.0,6.0,4.0,1.0,2.0,-1.0,-1.0
1701540213.9855561,-5.0,-9.0,-26.0,-16.0,-3.0,-2.0,0.0,-1.0
1701540213.9855561,1.0,-23.0,12.0,-7.0,-6.0,-2.0,1.0,-1.0
1701540213.9855561,2.0,18.0,3.0,-3.0,-5.0,-2.0,-3.0,-1.0
1701540214.0457337,-1.0,-7.0,35.0,35.0,20.0,5.0,2.0,0.0
1701540214.0457337,0.0,-10.0,-31.0,-9.0,-3.0,0.0,-1.0,0.0
1701540214.0457337,-2.0,10.0,-10.0,-8.0,-4.0,-6.0,0.0,0.0
1701540214.0457337,-1.0,-12.0,10.0,-7.0,-11.0,-1.0,-1.0,-2.0
1701540214.05087,0.0,8.0,5.0,-7.0,-1.0,0.0,-1.0,-2.0
1701540214.05087,-2.0,-11.0,26.0,14.0,6.0,-1.0,-2.0,1.0
1701540214.0551178,1.0,2.0,-23.0,0.0,-1.0,-1.0,-1.0,-1.0
1701540214.0551178,-3.0,4.0,6.0,-2.0,1.0,1.0,-3.0,0.0
1701540214.0551178,0.0,0.0,-11.0,-17.0,-8.0,-3.0,2.0,0.0
1701540214.0551178,1.0,-1.0,3.0,-4.0,-4.0,-1.0,0.0,0.0
1701540214.0551178,0.0,2.0,-44.0,3.0,1.0,0.0,-2.0,0.0
1701540214.0551178,-3.0,-1.0,-6.0,-2.0,2.0,-1.0,0.0,-1.0
1701540214.070304,-3.0,0.0,-4.0,4.0,-2.0,-3.0,-2.0,-1.0
1701540214.070304,-3.0,9.0,-56.0,-21.0,-4.0,-2.0,-1.0,-4.0
1701540214.070304,0.0,2.0,17.0,0.0,-7.0,1.0,1.0,0.0
1701540214.070304,-1.0,-10.0,-27.0,27.0,16.0,0.0,0.0,0.0
1701540214.0815423,0.0,7.0,-20.0,-25.0,-5.0,-1.0,-4.0,-1.0
1701540214.0815423,3.0,-81.0,26.0,7.0,-10.0,-3.0,-1.0,1.0
1701540214.0815423,-5.0,96.0,19.0,41.0,25.0,0.0,-3.0,-4.0
1701540214.0815423,-1.0,2.0,-27.0,-45.0,-10.0,-3.0,1.0,-1.0
1701540214.1022475,-2.0,-2.0,-5.0,-1.0,-5.0,-1.0,0.0,1.0
1701540214.103248,1.0,-8.0,-1.0,-2.0,-4.0,-3.0,-1.0,-1.0
1701540214.103248,-4.0,-40.0,25.0,5.0,-8.0,-3.0,-1.0,-2.0
1701540214.103248,-1.0,31.0,19.0,46.0,4.0,0.0,1.0,1.0
1701540214.148959,-2.0,16.0,9.0,-41.0,-2.0,-1.0,-2.0,-2.0
1701540214.148959,-1.0,30.0,-7.0,-2.0,-2.0,0.0,-4.0,-2.0
1701540214.148959,-4.0,-13.0,-15.0,-14.0,-5.0,-1.0,-2.0,0.0
1701540214.148959,-19.0,23.0,-2.0,1.0,-3.0,-2.0,-2.0,-1.0
1701540214.148959,-8.0,-22.0,-42.0,-4.0,-2.0,0.0,-2.0,-5.0
1701540214.148959,-19.0,5.0,29.0,10.0,3.0,0.0,0.0,2.0
1701540214.148959,3.0,4.0,-8.0,-3.0,2.0,0.0,2.0,-1.0
1701540214.148959,-6.0,-49.0,0.0,-12.0,2.0,3.0,-1.0,-1.0
1701540214.1613305,3.0,24.0,-2.0,7.0,-7.0,-4.0,0.0,1.0
1701540214.1613305,-7.0,39.0,-16.0,-9.0,-2.0,-2.0,-3.0,-3.0
1701540214.1613305,-3.0,-28.0,15.0,18.0,7.0,0.0,-1.0,-1.0
1701540214.1638503,20.0,-93.0,-26.0,-7.0,1.0,3.0,4.0,3.0
1701540214.2127798,-3.0,98.0,6.0,-16.0,-12.0,-6.0,-3.0,-3.0
1701540214.2127798,3.0,-43.0,14.0,9.0,2.0,-1.0,-4.0,-2.0
1701540214.2127798,-2.0,-33.0,18.0,-1.0,0.0,-2.0,-3.0,-2.0
1701540214.2127798,7.0,-13.0,22.0,-3.0,-1.0,0.0,0.0,0.0
1701540214.2127798,1.0,-49.0,-39.0,-7.0,-3.0,0.0,-1.0,3.0
1701540214.2127798,-2.0,19.0,9.0,-3.0,-2.0,-2.0,1.0,-1.0
1701540214.2127798,-4.0,10.0,-8.0,-8.0,-2.0,-2.0,-5.0,-1.0
1701540214.2127798,23.0,16.0,-10.0,-13.0,-5.0,-4.0,1.0,-6.0
1701540214.2322664,61.0,-23.0,-10.0,5.0,4.0,5.0,4.0,11.0
1701540214.2322664,12.0,69.0,76.0,32.0,4.0,-1.0,-2.0,-4.0
1701540214.2322664,0.0,-8.0,-69.0,-24.0,-6.0,-2.0,-3.0,-3.0
1701540214.2322664,11.0,32.0,57.0,12.0,-3.0,-2.0,-3.0,2.0
1701540214.243571,-26.0,-13.0,2.0,13.0,-1.0,-1.0,0.0,-3.0
1701540214.243571,24.0,-23.0,19.0,2.0,1.0,0.0,1.0,1.0
1701540214.243571,20.0,18.0,-44.0,-25.0,-5.0,3.0,1.0,3.0
1701540214.243571,-17.0,-1.0,-1.0,7.0,-2.0,-3.0,-3.0,-1.0
1701540214.2669575,-8.0,-7.0,1.0,3.0,-2.0,-5.0,-4.0,-4.0
1701540214.2689857,-100.0,-25.0,-11.0,-12.0,1.0,-8.0,-8.0,-24.0
1701540214.2744174,79.0,-4.0,20.0,4.0,1.0,7.0,6.0,22.0
1701540214.275438,33.0,-34.0,-20.0,-2.0,1.0,7.0,7.0,4.0
1701540214.3152654,13.0,15.0,2.0,-1.0,3.0,3.0,2.0,8.0
1701540214.3152654,4.0,6.0,8.0,-1.0,2.0,-3.0,-2.0,-1.0
1701540214.3152654,-16.0,15.0,6.0,10.0,-3.0,-5.0,3.0,-3.0
1701540214.3152654,-45.0,-10.0,14.0,-4.0,-3.0,-6.0,-11.0,-12.0
1701540214.3152654,-3.0,4.0,-21.0,1.0,0.0,-3.0,-3.0,-5.0
1701540214.3152654,13.0,-1.0,-16.0,-12.0,-5.0,1.0,1.0,2.0
1701540214.3152654,-21.0,1.0,36.0,9.0,3.0,-2.0,-3.0,0.0
1701540214.3152654,9.0,10.0,-10.0,-1.0,3.0,5.0,-1.0,3.0
1701540214.3722157,-20.0,-5.0,35.0,49.0,1.0,-4.0,-4.0,-9.0
1701540214.3722157,12.0,5.0,-3.0,-73.0,-8.0,3.0,0.0,3.0
1701540214.3722157,-11.0,-20.0,-26.0,-10.0,-2.0,-2.0,1.0,-3.0
1701540214.3722157,-14.0,6.0,-10.0,78.0,9.0,-3.0,-2.0,-4.0
1701540214.3722157,-8.0,15.0,-11.0,-100.0,-20.0,-7.0,-5.0,-8.0
1701540214.3722157,12.0,2.0,26.0,70.0,4.0,1.0,4.0,8.0
1701540214.3722157,-10.0,-20.0,-3.0,-12.0,5.0,2.0,0.0,-9.0
1701540214.3722157,-11.0,1.0,-6.0,-71.0,-13.0,-4.0,-4.0,-8.0
1701540214.3722157,45.0,-8.0,28.0,60.0,7.0,-2.0,3.0,23.0
1701540214.3722157,-29.0,-10.0,-73.0,60.0,12.0,2.0,-8.0,-22.0
1701540214.3722157,12.0,-30.0,44.0,-94.0,-25.0,-11.0,0.0,6.0
1701540214.3722157,22.0,29.0,-20.0,48.0,17.0,2.0,-6.0,-14.0
1701540214.3886402,64.0,-6.0,-58.0,-33.0,-7.0,-4.0,7.0,3.0
1701540214.3886402,50.0,5.0,93.0,7.0,3.0,-1.0,-1.0,6.0
1701540214.398335,-112.0,-71.0,0.0,56.0,9.0,19.0,14.0,4.0
1701540214.3994606,0.0,56.0,21.0,-19.0,-15.0,2.0,5.0,-32.0
1701540214.4270737,72.0,34.0,40.0,-6.0,0.0,4.0,6.0,24.0
1701540214.4270737,4.0,44.0,44.0,2.0,7.0,-3.0,-3.0,11.0
1701540214.4292119,24.0,10.0,18.0,10.0,3.0,-10.0,-13.0,-5.0
1701540214.4292119,-35.0,31.0,-9.0,-32.0,-8.0,-5.0,-6.0,5.0
1701540214.4292119,-57.0,-40.0,-18.0,14.0,3.0,0.0,-23.0,-13.0
1701540214.4292119,4.0,2.0,-30.0,-14.0,-5.0,1.0,21.0,8.0
1701540214.4292119,-23.0,-14.0,-26.0,2.0,-6.0,-7.0,-2.0,9.0
1701540214.4292119,8.0,16.0,35.0,-1.0,1.0,4.0,9.0,12.0
1701540214.4492397,-47.0,4.0,3.0,27.0,8.0,-3.0,-14.0,-31.0
1701540214.4492397,5.0,-22.0,-57.0,-17.0,-2.0,7.0,5.0,16.0
1701540214.4502387,7.0,-2.0,-11.0,-3.0,-6.0,-7.0,-16.0,-25.0
1701540214.4502387,0.0,7.0,16.0,-1.0,-4.0,-8.0,3.0,6.0
1701540214.4565334,-18.0,-11.0,-10.0,-12.0,1.0,2.0,7.0,-1.0
1701540214.4565334,-1.0,-19.0,14.0,-4.0,-2.0,0.0,-4.0,-2.0
1701540214.4660077,22.0,37.0,-16.0,18.0,3.0,1.0,4.0,0.0
1701540214.4660077,6.0,-1.0,-21.0,-8.0,-2.0,-2.0,-7.0,5.0
1701540214.484214,-30.0,-18.0,31.0,5.0,-2.0,1.0,2.0,-3.0
1701540214.484214,1.0,9.0,-35.0,15.0,1.0,-2.0,-3.0,-3.0
1701540214.4852173,0.0,0.0,20.0,-34.0,-13.0,-5.0,-5.0,-7.0
1701540214.4852173,-5.0,-18.0,4.0,0.0,-12.0,-3.0,0.0,7.0
1701540214.5111437,-18.0,30.0,-3.0,25.0,27.0,8.0,3.0,-4.0
1701540214.5111437,4.0,-35.0,4.0,-8.0,-5.0,-1.0,-2.0,-2.0
1701540214.5111437,11.0,40.0,16.0,34.0,2.0,1.0,1.0,-1.0
1701540214.5111437,-2.0,-28.0,-20.0,-31.0,-2.0,-1.0,1.0,0.0
1701540214.5619042,-4.0,-10.0,16.0,-1.0,-26.0,-7.0,2.0,0.0
1701540214.5619042,0.0,40.0,-30.0,12.0,0.0,0.0,-4.0,-5.0
1701540214.5619042,1.0,-23.0,-16.0,-51.0,-9.0,-5.0,-6.0,-5.0
1701540214.5619042,1.0,6.0,-10.0,-9.0,-1.0,-1.0,0.0,3.0
1701540214.5619042,-10.0,-2.0,-19.0,16.0,7.0,1.0,-2.0,-3.0
1701540214.5619042,-7.0,-15.0,36.0,-3.0,0.0,0.0,-2.0,-2.0
1701540214.5619042,21.0,2.0,-16.0,23.0,2.0,1.0,3.0,2.0
1701540214.5619042,-2.0,-10.0,25.0,21.0,10.0,3.0,0.0,3.0
1701540214.5958533,-2.0,-39.0,1.0,-25.0,-3.0,-4.0,-3.0,-2.0
1701540214.5968509,0.0,43.0,-15.0,-14.0,-5.0,-4.0,-3.0,-2.0
1701540214.5968509,8.0,27.0,17.0,16.0,1.0,-1.0,0.0,-1.0
1701540214.5968509,2.0,-14.0,-15.0,-2.0,0.0,-3.0,-3.0,0.0
1701540214.5968509,-17.0,16.0,2.0,5.0,2.0,0.0,-2.0,1.0
1701540214.5968509,-4.0,-18.0,2.0,-17.0,-5.0,2.0,-2.0,-3.0
1701540214.5968509,-8.0,0.0,42.0,20.0,3.0,1.0,0.0,-2.0
1701540214.5968509,1.0,-4.0,-83.0,-14.0,2.0,-2.0,-1.0,-2.0
1701540214.605346,-5.0,-15.0,21.0,-4.0,-7.0,-2.0,1.0,-2.0
1701540214.606345,2.0,-4.0,3.0,-9.0,-6.0,-2.0,-1.0,-4.0
1701540214.6073456,-2.0,18.0,-9.0,15.0,8.0,-3.0,0.0,0.0
1701540214.6073456,-7.0,-6.0,12.0,-13.0,-6.0,0.0,0.0,1.0
1701540214.6593497,3.0,-15.0,13.0,16.0,3.0,0.0,-3.0,-1.0
1701540214.6593497,0.0,30.0,22.0,-10.0,1.0,1.0,-2.0,-1.0
1701540214.6593497,-1.0,-3.0,48.0,11.0,1.0,1.0,0.0,-1.0
1701540214.660395,-2.0,-9.0,-54.0,-14.0,-9.0,-3.0,-3.0,-2.0
1701540214.6632547,0.0,16.0,16.0,-6.0,-7.0,-2.0,5.0,-4.0
1701540214.6632547,-3.0,-23.0,-49.0,-27.0,-8.0,-6.0,-5.0,-4.0
1701540214.6632547,-4.0,-12.0,4.0,0.0,-2.0,0.0,2.0,0.0
1701540214.6632547,2.0,5.0,51.0,20.0,3.0,-1.0,-3.0,-1.0
1701540214.682016,-3.0,9.0,0.0,-12.0,-4.0,-2.0,-2.0,-4.0
1701540214.682016,-3.0,-10.0,-6.0,7.0,-5.0,-2.0,-2.0,-2.0
1701540214.682016,1.0,12.0,-24.0,-7.0,-3.0,0.0,-1.0,-1.0
1701540214.682016,-2.0,-7.0,37.0,43.0,11.0,2.0,0.0,-3.0
1701540214.6830416,0.0,-3.0,-44.0,-41.0,-5.0,3.0,1.0,-1.0
1701540214.6830416,-2.0,-23.0,39.0,4.0,-1.0,-1.0,-1.0,-2.0
1701540214.6887863,2.0,17.0,-26.0,3.0,0.0,0.0,-2.0,-2.0
1701540214.6887863,0.0,13.0,15.0,3.0,0.0,-3.0,0.0,-1.0
1701540214.7101336,-2.0,-12.0,8.0,22.0,4.0,1.0,-1.0,1.0
1701540214.7101336,1.0,8.0,11.0,-6.0,2.0,-2.0,-1.0,0.0
1701540214.7110982,-6.0,-2.0,-12.0,-12.0,-7.0,-2.0,-3.0,-3.0
1701540214.7110982,-3.0,-11.0,-10.0,5.0,1.0,-1.0,-2.0,-1.0
1701540214.762163,5.0,-7.0,-16.0,-12.0,-6.0,0.0,-2.0,1.0
1701540214.762163,5.0,-7.0,-9.0,8.0,3.0,1.0,3.0,0.0
1701540214.762163,-1.0,0.0,27.0,22.0,4.0,-2.0,-1.0,-1.0
1701540214.762163,0.0,-1.0,9.0,-38.0,-6.0,1.0,1.0,1.0
1701540214.762163,-1.0,-77.0,-23.0,0.0,-1.0,-3.0,-2.0,0.0
1701540214.762163,-5.0,70.0,-45.0,-1.0,-4.0,-4.0,-1.0,-2.0
1701540214.762163,5.0,-16.0,11.0,10.0,6.0,5.0,0.0,3.0
1701540214.762163,-3.0,4.0,2.0,-6.0,-3.0,-2.0,-2.0,1.0
1701540214.7707996,0.0,-3.0,14.0,2.0,0.0,-2.0,1.0,-1.0
1701540214.7707996,-2.0,-35.0,-2.0,-2.0,-3.0,0.0,-1.0,0.0
1701540214.7707996,-4.0,17.0,-12.0,0.0,-2.0,0.0,-1.0,-4.0
1701540214.7707996,0.0,3.0,1.0,1.0,1.0,-1.0,-1.0,0.0
1701540214.8045034,-3.0,1.0,5.0,3.0,0.0,1.0,0.0,-1.0
1701540214.8045034,2.0,-16.0,-4.0,1.0,2.0,1.0,-1.0,-2.0
1701540214.8045034,-3.0,5.0,-11.0,-2.0,-1.0,0.0,0.0,2.0
1701540214.8045034,0.0,-10.0,4.0,-1.0,-3.0,-1.0,-2.0,-1.0
1701540214.8065689,-3.0,13.0,8.0,2.0,-1.0,1.0,3.0,0.0
1701540214.807938,1.0,-3.0,-3.0,-29.0,-14.0,-6.0,-3.0,-2.0
1701540214.807938,-4.0,-2.0,50.0,57.0,28.0,6.0,-1.0,-2.0
1701540214.807938,1.0,-5.0,-1.0,2.0,0.0,-1.0,-1.0,-1.0
1701540214.8307009,3.0,8.0,-6.0,3.0,2.0,0.0,-2.0,-1.0
1701540214.8307009,-2.0,-15.0,-13.0,-16.0,-1.0,0.0,-1.0,1.0
1701540214.8309906,-1.0,-1.0,-12.0,-29.0,-15.0,-5.0,0.0,-1.0
1701540214.8309906,1.0,-29.0,-31.0,4.0,-1.0,0.0,-1.0,0.0
1701540214.8704934,-5.0,68.0,25.0,5.0,-1.0,-2.0,-2.0,-2.0
1701540214.8704934,-1.0,-18.0,-6.0,2.0,0.0,-1.0,-2.0,1.0
1701540214.8704934,-1.0,-10.0,-26.0,-11.0,-8.0,-4.0,-1.0,-1.0
1701540214.8704934,-2.0,2.0,47.0,7.0,4.0,-1.0,0.0,-2.0
1701540214.8704934,0.0,-18.0,-23.0,5.0,-4.0,0.0,-1.0,-1.0
1701540214.8704934,-2.0,-2.0,21.0,14.0,2.0,2.0,1.0,0.0
1701540214.8704934,0.0,1.0,-21.0,-5.0,-3.0,-1.0,-1.0,-1.0
1701540214.8704934,13.0,10.0,-45.0,-10.0,-4.0,-5.0,4.0,3.0
1701540214.8827431,-5.0,-6.0,-53.0,-16.0,4.0,4.0,-3.0,-4.0
1701540214.8827431,2.0,0.0,13.0,8.0,1.0,-1.0,-1.0,-1.0
1701540214.8827431,1.0,-5.0,8.0,-8.0,1.0,0.0,1.0,0.0
1701540214.8827431,-3.0,6.0,21.0,3.0,-4.0,1.0,-1.0,0.0
1701540214.93915,1.0,-16.0,28.0,4.0,1.0,-2.0,1.0,0.0
1701540214.93915,-2.0,-2.0,-22.0,-4.0,-1.0,-1.0,0.0,-2.0
1701540214.93915,-4.0,-3.0,-35.0,-17.0,-8.0,-1.0,1.0,-2.0
1701540214.93915,-4.0,9.0,19.0,13.0,1.0,-1.0,-3.0,-1.0
1701540214.93915,0.0,4.0,11.0,3.0,-1.0,-3.0,-1.0,-1.0
1701540214.93915,-3.0,-6.0,6.0,14.0,2.0,0.0,-3.0,-2.0
1701540214.93915,-2.0,1.0,-6.0,-15.0,-8.0,-3.0,-3.0,0.0
1701540214.9401503,-3.0,-3.0,5.0,-2.0,1.0,2.0,-2.0,0.0
1701540214.9531643,2.0,0.0,-38.0,-9.0,-9.0,-2.0,0.0,0.0
1701540214.9531643,-2.0,4.0,40.0,21.0,27.0,5.0,2.0,1.0
1701540214.9531643,0.0,-5.0,17.0,10.0,4.0,2.0,-1.0,0.0
1701540214.9531643,-2.0,4.0,7.0,-8.0,-3.0,-1.0,-1.0,-1.0
1701540214.9640613,0.0,3.0,-14.0,6.0,-6.0,-1.0,0.0,0.0
1701540214.9640613,-33.0,37.0,-48.0,-19.0,-12.0,-7.0,-8.0,-12.0
1701540214.9640613,6.0,-17.0,-3.0,0.0,1.0,-2.0,3.0,2.0
1701540214.9640613,-43.0,8.0,15.0,3.0,3.0,0.0,-3.0,-3.0
1701540214.9891744,2.0,-35.0,32.0,11.0,6.0,0.0,3.0,-3.0
1701540214.9891744,9.0,-13.0,5.0,-3.0,-7.0,0.0,0.0,1.0
1701540214.991175,-7.0,21.0,-30.0,-11.0,-2.0,-3.0,0.0,-4.0
1701540214.991175,1.0,-13.0,-17.0,-3.0,-3.0,-2.0,-2.0,-1.0
1701540215.0350215,4.0,11.0,18.0,-2.0,-2.0,-4.0,-4.0,-3.0
1701540215.0350215,1.0,-8.0,-8.0,-2.0,-1.0,0.0,0.0,0.0
1701540215.0350215,3.0,1.0,-1.0,-9.0,-3.0,-1.0,-1.0,-2.0
1701540215.0350215,12.0,-3.0,-1.0,10.0,3.0,3.0,1.0,1.0
1701540215.0350215,-7.0,12.0,-5.0,-11.0,1.0,0.0,-3.0,-1.0
1701540215.0350215,8.0,2.0,13.0,2.0,0.0,-3.0,-1.0,-1.0
1701540215.0350215,-7.0,-7.0,4.0,3.0,-1.0,0.0,0.0,0.0
1701540215.0350215,6.0,4.0,-17.0,-7.0,-4.0,-5.0,-1.0,-2.0
1701540215.041682,-3.0,1.0,9.0,-9.0,-1.0,1.0,1.0,0.0
1701540215.0489151,-1.0,-14.0,27.0,8.0,-7.0,-1.0,-2.0,-1.0
1701540215.0560265,0.0,2.0,-26.0,-5.0,-1.0,-2.0,-4.0,-2.0
1701540215.057059,3.0,-7.0,-21.0,-6.0,-1.0,-2.0,1.0,1.0
1701540215.099529,0.0,58.0,31.0,1.0,-6.0,-2.0,0.0,-3.0
1701540215.099529,3.0,-23.0,-11.0,-5.0,-3.0,0.0,1.0,0.0
1701540215.099529,-5.0,10.0,29.0,32.0,0.0,0.0,0.0,-1.0
1701540215.099529,7.0,4.0,12.0,-32.0,-3.0,0.0,-2.0,0.0
1701540215.1005268,-2.0,-49.0,-18.0,1.0,2.0,-1.0,0.0,3.0
1701540215.1005268,3.0,13.0,14.0,4.0,3.0,1.0,0.0,-2.0
1701540215.1005268,-2.0,19.0,-7.0,7.0,1.0,-1.0,-2.0,-2.0
1701540215.1005268,-3.0,-14.0,0.0,2.0,0.0,-1.0,0.0,-2.0
1701540215.108359,-1.0,-4.0,6.0,2.0,-4.0,-4.0,-1.0,0.0
1701540215.108359,0.0,0.0,-3.0,0.0,-1.0,1.0,-2.0,-1.0
1701540215.1098933,0.0,-13.0,-9.0,-16.0,-1.0,-1.0,-1.0,-2.0
1701540215.1098933,5.0,11.0,18.0,10.0,-3.0,-2.0,-1.0,0.0
1701540215.160135,-2.0,-1.0,8.0,9.0,-1.0,-2.0,-1.0,-1.0
1701540215.160135,-3.0,7.0,-3.0,-13.0,-5.0,-3.0,-2.0,-3.0
1701540215.160135,2.0,-1.0,-17.0,-2.0,-2.0,0.0,-2.0,0.0
1701540215.160135,-1.0,0.0,5.0,-2.0,-3.0,-1.0,1.0,-2.0
1701540215.1681733,-1.0,-41.0,-1.0,-2.0,-1.0,0.0,-2.0,-2.0
1701540215.1681733,-2.0,51.0,-22.0,2.0,-5.0,-2.0,-2.0,2.0
1701540215.1681733,0.0,-35.0,20.0,-6.0,2.0,-1.0,0.0,0.0
1701540215.1681733,2.0,33.0,-50.0,-14.0,0.0,1.0,-2.0,-1.0
1701540215.17438,0.0,-4.0,31.0,8.0,-3.0,-2.0,-5.0,-3.0
1701540215.17438,3.0,-28.0,-2.0,2.0,4.0,2.0,2.0,4.0
1701540215.17438,-1.0,-5.0,-56.0,-21.0,-8.0,-2.0,-2.0,0.0
1701540215.17438,1.0,-16.0,18.0,15.0,3.0,1.0,3.0,1.0
1701540215.1943004,-5.0,65.0,-22.0,-4.0,1.0,-4.0,0.0,-2.0
1701540215.1943004,-1.0,-5.0,2.0,-9.0,0.0,-3.0,-2.0,0.0
1701540215.1943004,-1.0,12.0,29.0,22.0,4.0,0.0,1.0,1.0
1701540215.1943004,1.0,-24.0,10.0,-20.0,-4.0,-2.0,-2.0,0.0
1701540215.1963198,-2.0,-7.0,-58.0,-1.0,-5.0,-2.0,-3.0,-3.0
1701540215.2046072,-2.0,-10.0,-68.0,-27.0,-7.0,-2.0,0.0,-1.0
1701540215.2077947,3.0,18.0,15.0,-4.0,-2.0,-3.0,-3.0,0.0
1701540215.2077947,-14.0,-7.0,6.0,21.0,1.0,0.0,-1.0,-3.0
1701540215.2289355,5.0,-7.0,31.0,-17.0,-6.0,1.0,-1.0,-4.0
1701540215.2289355,3.0,6.0,13.0,11.0,2.0,-1.0,0.0,0.0
1701540215.236391,-2.0,-12.0,32.0,2.0,-3.0,-1.0,-2.0,-1.0
1701540215.2366285,3.0,-1.0,78.0,7.0,8.0,4.0,1.0,1.0
1701540215.2763045,-14.0,8.0,-98.0,-5.0,-7.0,-7.0,-6.0,-4.0
1701540215.2763045,-1.0,-12.0,2.0,16.0,1.0,-2.0,-1.0,0.0
1701540215.2763045,-8.0,-13.0,6.0,-45.0,-10.0,-4.0,-5.0,-4.0
1701540215.2763045,0.0,1.0,-30.0,-15.0,-2.0,-2.0,-1.0,-3.0
1701540215.2773042,0.0,-14.0,7.0,1.0,6.0,3.0,2.0,2.0
1701540215.2773042,4.0,-65.0,52.0,8.0,0.0,1.0,2.0,2.0
1701540215.2773042,-6.0,83.0,-109.0,-27.0,-7.0,-6.0,-1.0,-6.0
1701540215.2773042,-1.0,-2.0,-9.0,16.0,-3.0,-3.0,-3.0,-1.0
1701540215.2894778,31.0,-8.0,27.0,-2.0,4.0,2.0,2.0,1.0
1701540215.2894778,-58.0,-23.0,-29.0,-9.0,1.0,0.0,0.0,2.0
1701540215.294271,-17.0,-26.0,78.0,15.0,1.0,1.0,1.0,0.0
1701540215.294271,-31.0,11.0,-40.0,-1.0,-3.0,-6.0,-8.0,-4.0
1701540215.342424,16.0,-1.0,19.0,6.0,1.0,-4.0,-2.0,1.0
1701540215.342424,40.0,16.0,19.0,3.0,1.0,6.0,9.0,-3.0
1701540215.342424,-4.0,-2.0,8.0,42.0,11.0,3.0,3.0,3.0
1701540215.342424,21.0,5.0,-38.0,-69.0,-16.0,-1.0,-1.0,-2.0
1701540215.342424,-35.0,-8.0,9.0,-4.0,-9.0,-7.0,-10.0,3.0
1701540215.342424,90.0,-30.0,13.0,5.0,6.0,1.0,7.0,44.0
1701540215.342424,-5.0,79.0,-2.0,12.0,4.0,3.0,-2.0,-9.0
1701540215.342424,-17.0,-18.0,-61.0,9.0,1.0,-2.0,-3.0,2.0
1701540215.364842,-10.0,-38.0,56.0,6.0,1.0,2.0,1.0,-8.0
1701540215.364842,-4.0,59.0,-21.0,-11.0,-7.0,-5.0,-3.0,-9.0
1701540215.364842,37.0,-28.0,14.0,-17.0,-4.0,0.0,3.0,11.0
1701540215.364842,-4.0,2.0,56.0,28.0,6.0,3.0,4.0,0.0
1701540215.366857,-9.0,22.0,-29.0,-16.0,-2.0,2.0,1.0,-4.0
1701540215.366857,-15.0,-14.0,11.0,6.0,-3.0,-12.0,-21.0,-8.0
1701540215.3713033,-12.0,-30.0,-16.0,2.0,-2.0,-9.0,-8.0,-7.0
1701540215.3713033,1.0,27.0,35.0,-6.0,-12.0,-10.0,-6.0,-10.0
1701540215.3815541,2.0,-12.0,0.0,1.0,5.0,5.0,5.0,1.0
1701540215.3815541,-10.0,-8.0,18.0,29.0,37.0,18.0,7.0,-7.0
1701540215.4466064,0.0,-8.0,-15.0,-2.0,-3.0,-1.0,-1.0,2.0
1701540215.4466064,6.0,-11.0,12.0,1.0,-3.0,-2.0,2.0,2.0
1701540215.4466064,6.0,2.0,8.0,-4.0,-12.0,-6.0,-1.0,-1.0
1701540215.4466064,-17.0,20.0,-3.0,-9.0,-15.0,-5.0,-3.0,-7.0
1701540215.4466064,0.0,-7.0,12.0,3.0,6.0,7.0,2.0,-2.0
1701540215.4466064,7.0,-10.0,19.0,1.0,0.0,-1.0,1.0,1.0
1701540215.4466064,-3.0,-1.0,-54.0,-20.0,3.0,-1.0,1.0,1.0
1701540215.4466064,-12.0,24.0,54.0,43.0,-7.0,-8.0,-6.0,-13.0
1701540215.4466064,2.0,-26.0,3.0,-14.0,-5.0,0.0,1.0,1.0
1701540215.4466064,5.0,-8.0,-50.0,-22.0,0.0,5.0,2.0,0.0
1701540215.4513092,0.0,22.0,58.0,47.0,9.0,-1.0,-2.0,0.0
1701540215.4513092,-7.0,-12.0,-26.0,-34.0,-5.0,-2.0,1.0,-3.0
1701540215.4815307,2.0,-3.0,12.0,29.0,-6.0,-7.0,-4.0,-3.0
1701540215.4815307,0.0,11.0,-26.0,-8.0,0.0,-6.0,-3.0,1.0
1701540215.4815307,-2.0,4.0,26.0,-2.0,5.0,7.0,0.0,-2.0
1701540215.4815307,-6.0,-12.0,-18.0,-7.0,-5.0,0.0,-1.0,-4.0
1701540215.4815307,-4.0,-8.0,-7.0,-8.0,-2.0,-1.0,-2.0,3.0
1701540215.4815307,4.0,6.0,16.0,2.0,0.0,1.0,3.0,-4.0
1701540215.4908803,1.0,0.0,-16.0,-2.0,-6.0,-2.0,-2.0,0.0
1701540215.4908803,-6.0,3.0,-47.0,-13.0,-3.0,-3.0,-9.0,-2.0
1701540215.4921923,-2.0,-4.0,-4.0,1.0,6.0,2.0,4.0,-1.0
1701540215.4921923,6.0,-7.0,31.0,15.0,5.0,0.0,-2.0,-2.0
1701540215.5086882,-31.0,5.0,-10.0,-8.0,-5.0,-4.0,1.0,3.0
1701540215.5086882,-5.0,-2.0,31.0,8.0,-5.0,-3.0,0.0,-4.0
1701540215.5582201,4.0,-18.0,8.0,-11.0,-6.0,-2.0,-3.0,-4.0
1701540215.5582201,12.0,4.0,-26.0,-7.0,-4.0,1.0,-2.0,0.0
1701540215.5582201,1.0,10.0,-38.0,-7.0,1.0,-2.0,-2.0,-6.0
1701540215.5582201,-6.0,-2.0,-6.0,-4.0,-4.0,-2.0,0.0,-5.0
1701540215.5638707,-13.0,-9.0,30.0,-3.0,3.0,-4.0,-3.0,-2.0
1701540215.5638707,26.0,1.0,25.0,2.0,1.0,-1.0,1.0,2.0
1701540215.5638707,-6.0,-17.0,-65.0,-2.0,3.0,3.0,1.0,2.0
1701540215.5638707,3.0,4.0,3.0,-15.0,-6.0,-4.0,-2.0,-4.0
1701540215.5649233,10.0,-4.0,-3.0,11.0,1.0,0.0,0.0,-3.0
1701540215.5649233,-7.0,2.0,9.0,23.0,5.0,1.0,0.0,2.0
1701540215.5867133,-1.0,6.0,-30.0,-40.0,-3.0,-4.0,-3.0,0.0
1701540215.5867133,3.0,2.0,-23.0,11.0,-1.0,-2.0,2.0,1.0
1701540215.5867133,2.0,1.0,-1.0,-19.0,-8.0,-3.0,-2.0,-1.0
1701540215.5867133,-2.0,4.0,46.0,23.0,-2.0,0.0,-2.0,0.0
1701540215.5867133,2.0,1.0,24.0,15.0,2.0,1.0,-2.0,-3.0
1701540215.5867133,5.0,-2.0,21.0,-3.0,2.0,1.0,-1.0,-5.0
1701540215.5897386,7.0,5.0,-17.0,-17.0,-2.0,-1.0,0.0,6.0
1701540215.5897386,19.0,-8.0,11.0,4.0,-2.0,-5.0,-2.0,1.0
1701540215.6089792,18.0,-5.0,35.0,15.0,1.0,-1.0,1.0,-7.0
1701540215.6089792,-15.0,3.0,15.0,-21.0,-3.0,-1.0,3.0,14.0
1701540215.6127727,-7.0,-2.0,-14.0,6.0,2.0,2.0,-3.0,-11.0
1701540215.6127727,-25.0,10.0,-16.0,1.0,-2.0,-2.0,0.0,0.0
1701540215.6339357,32.0,-23.0,20.0,27.0,3.0,0.0,-3.0,2.0
1701540215.6340892,-23.0,21.0,-17.0,-50.0,-8.0,-2.0,-3.0,-16.0
1701540215.652649,-13.0,-59.0,27.0,39.0,8.0,2.0,0.0,-5.0
1701540215.6529343,-7.0,45.0,6.0,-36.0,-12.0,-5.0,-4.0,-8.0
1701540215.6684544,-4.0,34.0,30.0,4.0,-4.0,-2.0,-3.0,5.0
1701540215.6684544,14.0,-14.0,3.0,16.0,1.0,1.0,4.0,12.0
1701540215.6684544,7.0,8.0,12.0,-5.0,3.0,2.0,2.0,0.0
1701540215.6684544,13.0,-50.0,-16.0,6.0,5.0,0.0,-2.0,-7.0
1701540215.6730826,-11.0,-36.0,-37.0,-14.0,-3.0,-2.0,2.0,2.0
1701540215.6730826,20.0,81.0,5.0,-1.0,-5.0,-5.0,-8.0,-6.0
1701540215.6999412,-15.0,-19.0,-1.0,-26.0,-4.0,-2.0,-1.0,-1.0
1701540215.7005355,-19.0,4.0,2.0,23.0,2.0,2.0,1.0,2.0
1701540215.7234864,2.0,-11.0,21.0,-3.0,-3.0,-1.0,0.0,0.0
1701540215.7234864,-5.0,-32.0,-48.0,10.0,2.0,2.0,-2.0,3.0
1701540215.7245333,32.0,27.0,-36.0,-14.0,-3.0,-2.0,6.0,-2.0
1701540215.7245333,14.0,-11.0,-58.0,-11.0,1.0,5.0,10.0,9.0
1701540215.7245333,-32.0,16.0,42.0,10.0,-3.0,-5.0,2.0,13.0
1701540215.7245333,-31.0,-32.0,28.0,1.0,6.0,2.0,-5.0,-13.0
1701540215.7245333,-16.0,-23.0,16.0,14.0,-5.0,1.0,-5.0,-20.0
1701540215.7249029,-11.0,36.0,16.0,-8.0,-3.0,-2.0,-4.0,2.0
1701540215.7448502,4.0,3.0,18.0,-7.0,1.0,-1.0,1.0,0.0
1701540215.7448502,3.0,-10.0,-17.0,-1.0,-5.0,-4.0,3.0,4.0
1701540215.7458508,-13.0,1.0,25.0,0.0,-1.0,-1.0,1.0,5.0
1701540215.7458508,-22.0,-7.0,-10.0,39.0,8.0,3.0,0.0,-3.0
1701540215.748216,-1.0,-17.0,52.0,9.0,-4.0,1.0,-3.0,-9.0
1701540215.748216,0.0,-7.0,-70.0,-90.0,-12.0,-5.0,-5.0,-3.0
1701540215.7552388,5.0,25.0,-27.0,20.0,-1.0,-1.0,-1.0,5.0
1701540215.7552388,8.0,-30.0,5.0,-46.0,-11.0,-5.0,-5.0,-1.0
1701540215.7756255,6.0,66.0,-57.0,54.0,16.0,3.0,1.0,-3.0
1701540215.7756255,13.0,-39.0,55.0,-43.0,-15.0,-3.0,0.0,0.0
1701540215.7773275,-4.0,2.0,-66.0,49.0,4.0,0.0,-3.0,3.0
1701540215.7773275,14.0,-38.0,64.0,-31.0,4.0,-2.0,-3.0,-2.0
1701540215.835365,-3.0,84.0,36.0,14.0,5.0,2.0,0.0,-3.0
1701540215.835365,-25.0,-54.0,40.0,17.0,-1.0,-2.0,-2.0,-2.0
1701540215.835365,44.0,15.0,-46.0,-20.0,-1.0,0.0,0.0,10.0
1701540215.835365,-1.0,13.0,28.0,48.0,-1.0,-4.0,-2.0,-1.0
1701540215.835365,5.0,-48.0,-22.0,-12.0,0.0,1.0,-1.0,2.0
1701540215.8363647,-49.0,8.0,-1.0,29.0,4.0,2.0,5.0,-8.0
1701540215.8363647,-29.0,3.0,22.0,-30.0,-7.0,-3.0,-6.0,-15.0
1701540215.8363647,2.0,3.0,5.0,26.0,3.0,-3.0,13.0,26.0
1701540215.8363647,7.0,-28.0,-50.0,-44.0,-10.0,1.0,-8.0,-22.0
1701540215.8363647,27.0,9.0,24.0,28.0,6.0,2.0,6.0,13.0
1701540215.8363647,7.0,-18.0,-45.0,13.0,1.0,-2.0,2.0,-4.0
1701540215.8363647,-18.0,49.0,-29.0,-48.0,-7.0,-2.0,-9.0,-10.0
1701540215.8939896,18.0,7.0,35.0,5.0,-2.0,-1.0,1.0,6.0
1701540215.8939896,48.0,9.0,-3.0,27.0,8.0,4.0,-1.0,3.0
1701540215.8939896,-41.0,-69.0,-21.0,13.0,0.0,-1.0,0.0,-2.0
1701540215.8939896,26.0,27.0,46.0,-10.0,-8.0,-4.0,-6.0,-6.0
1701540215.8939896,11.0,-31.0,-38.0,-18.0,-6.0,-2.0,0.0,-5.0
1701540215.8939896,25.0,20.0,22.0,23.0,2.0,-2.0,-5.0,-4.0
1701540215.9004946,62.0,6.0,38.0,4.0,1.0,-10.0,-14.0,-9.0
1701540215.9004946,-45.0,3.0,-4.0,3.0,-1.0,10.0,-1.0,-9.0
1701540215.9025466,-33.0,-39.0,-15.0,-18.0,-3.0,-1.0,-5.0,5.0
1701540215.9025466,-16.0,-7.0,-2.0,-4.0,1.0,0.0,-3.0,1.0
1701540215.926004,-3.0,33.0,-18.0,-22.0,-1.0,2.0,12.0,5.0
1701540215.926004,-11.0,-17.0,59.0,34.0,0.0,-5.0,-9.0,-4.0
1701540215.9270053,20.0,4.0,-26.0,-8.0,1.0,-1.0,2.0,7.0
1701540215.9270053,-26.0,-9.0,-6.0,0.0,0.0,-2.0,-2.0,-4.0
1701540215.9270053,-1.0,24.0,12.0,-14.0,-4.0,-2.0,-4.0,-1.0
1701540215.9270053,12.0,-1.0,-42.0,1.0,0.0,-1.0,0.0,2.0
1701540215.929027,14.0,-55.0,1.0,-6.0,7.0,5.0,12.0,20.0
1701540215.929027,-6.0,58.0,24.0,28.0,-11.0,-14.0,-14.0,-17.0
1701540215.9345975,-3.0,29.0,-11.0,-44.0,-5.0,2.0,2.0,4.0
1701540215.9345975,-6.0,-6.0,-40.0,16.0,4.0,2.0,0.0,-9.0
1701540215.998616,-11.0,8.0,27.0,13.0,4.0,2.0,-2.0,-6.0
1701540215.998616,9.0,-20.0,4.0,-14.0,4.0,6.0,10.0,9.0
1701540215.998616,-12.0,29.0,49.0,64.0,7.0,3.0,0.0,-3.0
1701540215.998616,1.0,-11.0,-36.0,-40.0,-18.0,-7.0,-5.0,-1.0
1701540215.998616,-3.0,16.0,-26.0,-50.0,-5.0,-3.0,-1.0,-4.0
1701540215.9996157,7.0,-11.0,43.0,10.0,-5.0,-1.0,0.0,1.0
1701540215.9996157,-13.0,-19.0,-41.0,-17.0,-14.0,-9.0,-6.0,-3.0
1701540215.9996157,1.0,-10.0,-21.0,12.0,42.0,12.0,3.0,-1.0
1701540215.9996157,2.0,-9.0,23.0,-44.0,-16.0,-2.0,-2.0,-3.0
1701540215.9996157,3.0,-18.0,-31.0,17.0,4.0,5.0,0.0,-1.0
1701540215.9996157,-14.0,11.0,69.0,25.0,19.0,2.0,-2.0,2.0
1701540215.9996157,0.0,16.0,-13.0,49.0,-16.0,-5.0,-2.0,-3.0
1701540215.9996157,-3.0,15.0,-32.0,-10.0,8.0,-5.0,-4.0,-5.0
1701540215.9996157,1.0,-6.0,-10.0,-41.0,-7.0,-4.0,0.0,-3.0
1701540216.0544622,21.0,3.0,-85.0,-22.0,-9.0,-1.0,1.0,16.0
1701540216.0544622,-23.0,-3.0,-5.0,-28.0,0.0,2.0,3.0,9.0
1701540216.0544622,-27.0,12.0,44.0,40.0,-7.0,-6.0,-9.0,-9.0
1701540216.0544622,2.0,6.0,-1.0,-2.0,1.0,2.0,8.0,-1.0
1701540216.0544622,-24.0,-18.0,-43.0,-15.0,1.0,0.0,-1.0,-2.0
1701540216.0544622,-72.0,9.0,-19.0,-4.0,-8.0,-27.0,-47.0,-41.0
1701540216.0544622,118.0,-5.0,13.0,-16.0,-8.0,1.0,23.0,35.0
1701540216.0544622,-9.0,-6.0,-17.0,22.0,9.0,22.0,28.0,2.0
1701540216.0544622,-61.0,-23.0,12.0,-12.0,-9.0,-4.0,-5.0,-18.0
1701540216.0544622,-38.0,-11.0,10.0,-20.0,2.0,18.0,23.0,-4.0
1701540216.067117,34.0,5.0,-15.0,18.0,-6.0,-19.0,-24.0,-10.0
1701540216.067117,-7.0,39.0,-10.0,5.0,2.0,-9.0,-26.0,-9.0
1701540216.1168451,54.0,-25.0,10.0,-3.0,-3.0,-1.0,21.0,7.0
1701540216.1168451,31.0,20.0,-8.0,-15.0,-8.0,-2.0,7.0,11.0
1701540216.1210837,-59.0,-10.0,-20.0,24.0,4.0,4.0,1.0,-13.0
1701540216.1210837,-12.0,13.0,73.0,11.0,-5.0,-6.0,-4.0,-5.0
1701540216.1210837,-14.0,15.0,-16.0,-42.0,-5.0,-3.0,-10.0,2.0
1701540216.1210837,23.0,-5.0,61.0,18.0,3.0,-2.0,1.0,14.0
1701540216.1210837,-16.0,-40.0,41.0,20.0,4.0,4.0,5.0,0.0
1701540216.1210837,8.0,12.0,-23.0,-3.0,0.0,-5.0,0.0,4.0
1701540216.1338677,-20.0,-17.0,14.0,-2.0,-4.0,-5.0,-13.0,-4.0
1701540216.1351,25.0,-17.0,16.0,9.0,1.0,1.0,4.0,5.0
1701540216.1411395,-13.0,33.0,12.0,-2.0,-2.0,2.0,0.0,-4.0
1701540216.1411395,-15.0,-22.0,-59.0,-15.0,-5.0,-10.0,-9.0,-6.0
1701540216.1421394,14.0,5.0,34.0,-17.0,-18.0,-1.0,2.0,5.0
1701540216.1430943,12.0,1.0,-10.0,-11.0,7.0,3.0,3.0,0.0
1701540216.1441133,-12.0,0.0,-42.0,19.0,-4.0,-1.0,-1.0,-8.0
1701540216.1441133,11.0,-18.0,-48.0,29.0,16.0,1.0,0.0,2.0
1701540216.1516073,6.0,4.0,33.0,26.0,11.0,7.0,1.0,-1.0
1701540216.1516073,13.0,-5.0,-11.0,-3.0,-9.0,-5.0,-2.0,-4.0
1701540216.1726887,-21.0,1.0,24.0,-49.0,-20.0,-8.0,-8.0,-8.0
1701540216.1726887,5.0,-8.0,-4.0,21.0,-2.0,2.0,2.0,3.0
1701540216.1898286,-1.0,9.0,9.0,-27.0,-8.0,-2.0,-1.0,0.0
1701540216.190926,1.0,-27.0,-37.0,3.0,-7.0,-5.0,0.0,-1.0
1701540216.213988,-4.0,8.0,-13.0,26.0,11.0,2.0,-2.0,-1.0
1701540216.213988,3.0,3.0,-2.0,-27.0,-5.0,0.0,0.0,2.0
1701540216.213988,3.0,3.0,11.0,23.0,6.0,1.0,-3.0,2.0
1701540216.213988,9.0,-31.0,-4.0,-6.0,1.0,0.0,1.0,-1.0
1701540216.213988,-2.0,5.0,53.0,4.0,8.0,4.0,1.0,-1.0
1701540216.213988,-15.0,3.0,18.0,-3.0,-9.0,-5.0,-5.0,-8.0
1701540216.213988,16.0,-2.0,-1.0,14.0,4.0,3.0,-2.0,1.0
1701540216.213988,12.0,-15.0,5.0,-3.0,3.0,1.0,1.0,-4.0
1701540216.2296243,-9.0,0.0,-3.0,-2.0,-1.0,1.0,-1.0,-1.0
1701540216.2296243,0.0,-8.0,37.0,2.0,-2.0,-4.0,-1.0,0.0
1701540216.2349167,0.0,-5.0,-5.0,4.0,4.0,-4.0,-2.0,-2.0
1701540216.2349167,-15.0,5.0,17.0,-8.0,0.0,6.0,2.0,2.0
1701540216.2392726,-21.0,11.0,-25.0,1.0,2.0,-1.0,3.0,-3.0
1701540216.2474189,12.0,4.0,-8.0,-8.0,0.0,0.0,-1.0,2.0
1701540216.3025184,-10.0,-10.0,-3.0,-12.0,-2.0,-2.0,-3.0,-2.0
1701540216.3025184,-4.0,30.0,-5.0,5.0,-4.0,-1.0,-2.0,-2.0
1701540216.3025184,-5.0,-9.0,-1.0,1.0,-3.0,-3.0,-7.0,-3.0
1701540216.3025184,-1.0,-24.0,-30.0,-17.0,-4.0,1.0,-1.0,3.0
1701540216.3106415,-8.0,8.0,9.0,13.0,2.0,-2.0,3.0,-1.0
1701540216.3106415,5.0,-4.0,-17.0,-1.0,0.0,0.0,-3.0,-3.0
1701540216.3163996,4.0,7.0,-1.0,-4.0,1.0,-2.0,-2.0,-2.0
1701540216.3163996,3.0,-8.0,4.0,-16.0,-13.0,-5.0,-1.0,2.0
1701540216.3163996,8.0,-31.0,-24.0,8.0,8.0,5.0,1.0,-1.0
1701540216.3163996,4.0,43.0,18.0,15.0,-4.0,-4.0,-3.0,-2.0
1701540216.3390744,1.0,-6.0,-4.0,25.0,16.0,3.0,-1.0,-1.0
1701540216.3390744,-2.0,-2.0,3.0,-8.0,-4.0,-3.0,-1.0,-1.0
1701540216.3390744,-6.0,-3.0,45.0,10.0,-6.0,0.0,1.0,1.0
1701540216.3390744,1.0,-22.0,-24.0,-6.0,-7.0,-4.0,-1.0,1.0
1701540216.3390744,1.0,4.0,-12.0,-1.0,-5.0,-2.0,1.0,-2.0
1701540216.3390744,1.0,7.0,22.0,7.0,7.0,1.0,-1.0,0.0
1701540216.3390744,-2.0,5.0,51.0,-1.0,2.0,-1.0,-1.0,0.0
1701540216.3390744,1.0,-1.0,-90.0,-24.0,-6.0,-4.0,-4.0,-4.0
1701540216.3530366,2.0,7.0,10.0,22.0,-1.0,-1.0,-4.0,-5.0
1701540216.3530366,11.0,-15.0,-3.0,-40.0,-1.0,0.0,0.0,3.0
1701540216.3707736,2.0,10.0,10.0,5.0,0.0,0.0,-2.0,0.0
1701540216.3707736,-6.0,-7.0,14.0,4.0,2.0,-1.0,2.0,0.0
1701540216.3737705,-28.0,-6.0,-9.0,-11.0,0.0,0.0,-1.0,1.0
1701540216.3737705,4.0,1.0,12.0,28.0,-1.0,1.0,-4.0,-7.0
1701540216.3737705,-10.0,7.0,6.0,-9.0,-4.0,-3.0,3.0,-5.0
1701540216.3756108,8.0,-2.0,4.0,-4.0,2.0,-1.0,0.0,1.0
1701540216.3908782,10.0,-12.0,31.0,-9.0,-6.0,-1.0,-1.0,1.0
1701540216.3908782,-3.0,4.0,-34.0,-5.0,1.0,-1.0,-1.0,0.0
1701540216.3918757,1.0,6.0,0.0,1.0,-2.0,-1.0,-4.0,-1.0
1701540216.3918757,-1.0,-11.0,19.0,6.0,0.0,1.0,-1.0,-2.0
1701540216.4130125,-1.0,5.0,-21.0,-9.0,-4.0,-3.0,1.0,-1.0
1701540216.4130125,-8.0,-10.0,4.0,-8.0,-1.0,-2.0,-3.0,-2.0
1701540216.4224136,2.0,28.0,-10.0,-13.0,2.0,0.0,-1.0,-1.0
1701540216.4224136,-1.0,4.0,10.0,34.0,2.0,-2.0,-2.0,1.0
1701540216.470067,5.0,-13.0,-47.0,-33.0,-2.0,3.0,-1.0,0.0
1701540216.470067,2.0,6.0,1.0,11.0,1.0,0.0,0.0,-1.0
1701540216.4731534,-1.0,-15.0,-27.0,-20.0,-7.0,-2.0,-2.0,-2.0
1701540216.4731534,1.0,-1.0,36.0,8.0,2.0,-1.0,-1.0,0.0
1701540216.4731534,4.0,6.0,-20.0,1.0,-2.0,-4.0,-2.0,-1.0
1701540216.4731534,-5.0,-10.0,-11.0,0.0,-2.0,0.0,-2.0,-2.0
1701540216.4731534,9.0,3.0,14.0,-5.0,-2.0,-1.0,-2.0,-1.0
1701540216.474153,7.0,-2.0,1.0,-10.0,1.0,0.0,0.0,5.0
1701540216.4935088,5.0,-5.0,-7.0,3.0,-4.0,-3.0,-1.0,-1.0
1701540216.4935088,-5.0,6.0,-12.0,-4.0,0.0,-1.0,2.0,-1.0
1701540216.4935088,2.0,-3.0,-9.0,7.0,-1.0,-1.0,-1.0,0.0
1701540216.4935088,-3.0,11.0,-12.0,-5.0,-3.0,1.0,-3.0,-5.0
1701540216.4945087,1.0,-7.0,4.0,-12.0,2.0,-1.0,-1.0,-1.0
1701540216.4945087,2.0,-25.0,11.0,12.0,2.0,1.0,-1.0,1.0
1701540216.4965851,-8.0,55.0,-20.0,-2.0,-2.0,-2.0,-3.0,-2.0
1701540216.4965851,-7.0,-15.0,10.0,-16.0,-5.0,-2.0,-5.0,-3.0
1701540216.508742,-2.0,-8.0,-1.0,14.0,-3.0,1.0,-2.0,-1.0
1701540216.508742,-5.0,16.0,-11.0,-11.0,0.0,-2.0,-1.0,-3.0
1701540216.512279,-3.0,-37.0,23.0,13.0,-1.0,-2.0,-2.0,0.0
1701540216.512279,-1.0,-2.0,-10.0,0.0,2.0,-1.0,-1.0,1.0
1701540216.5415707,3.0,17.0,28.0,-20.0,-6.0,-1.0,-1.0,-1.0
1701540216.5415707,0.0,-15.0,-29.0,4.0,1.0,0.0,0.0,1.0
1701540216.5415707,-6.0,-7.0,-3.0,12.0,-1.0,0.0,-4.0,-5.0
1701540216.5415707,3.0,0.0,-9.0,6.0,1.0,-1.0,1.0,0.0
1701540216.5525913,-1.0,-6.0,-8.0,-14.0,-8.0,-3.0,0.0,-1.0
1701540216.5525913,-1.0,6.0,5.0,0.0,0.0,0.0,-2.0,-2.0
1701540216.5567582,-1.0,-8.0,-11.0,-9.0,0.0,-1.0,0.0,-1.0
1701540216.5567582,-6.0,-4.0,-6.0,-3.0,-1.0,-1.0,0.0,-2.0
1701540216.5679398,1.0,-24.0,-13.0,0.0,-4.0,-3.0,-3.0,-2.0
1701540216.5679398,-3.0,35.0,17.0,-4.0,-1.0,-2.0,-1.0,-2.0
1701540216.5718565,2.0,-6.0,19.0,-2.0,1.0,0.0,-3.0,-1.0
1701540216.5718565,-2.0,-2.0,-54.0,-11.0,-2.0,-2.0,-2.0,-4.0
1701540216.6130955,0.0,-36.0,20.0,19.0,5.0,0.0,1.0,0.0
1701540216.6130955,2.0,19.0,4.0,-3.0,-2.0,-3.0,-3.0,0.0
1701540216.6130955,-7.0,14.0,26.0,6.0,2.0,3.0,3.0,0.0
1701540216.6130955,2.0,1.0,58.0,-7.0,1.0,-3.0,0.0,1.0
1701540216.6151257,-1.0,-42.0,-57.0,6.0,4.0,4.0,0.0,1.0
1701540216.616094,-2.0,14.0,5.0,-1.0,-3.0,-1.0,0.0,-2.0
1701540216.6170003,-6.0,13.0,14.0,-3.0,-13.0,-7.0,-2.0,-2.0
1701540216.6170003,-2.0,-17.0,-19.0,12.0,17.0,7.0,-5.0,-3.0
1701540216.637657,-3.0,21.0,29.0,7.0,2.0,-2.0,-1.0,-3.0
1701540216.637657,3.0,-45.0,-4.0,-2.0,1.0,-1.0,2.0,-2.0
1701540216.667423,5.0,-13.0,-43.0,-22.0,-6.0,-2.0,-1.0,2.0
1701540216.667423,-2.0,11.0,33.0,-11.0,-23.0,-10.0,-5.0,-3.0
1701540216.667423,-2.0,0.0,7.0,-1.0,9.0,2.0,-1.0,-3.0
1701540216.668421,-5.0,3.0,-16.0,9.0,6.0,1.0,-2.0,0.0
1701540216.6710138,1.0,-6.0,-7.0,11.0,-4.0,-3.0,-1.0,1.0
1701540216.6710138,2.0,-22.0,-34.0,-30.0,9.0,3.0,1.0,3.0
1701540216.6720784,-2.0,39.0,95.0,40.0,-7.0,-7.0,-5.0,-2.0
1701540216.6720784,-5.0,-7.0,-58.0,-21.0,-5.0,1.0,0.0,-2.0
1701540216.676488,1.0,-1.0,-10.0,0.0,1.0,0.0,-1.0,-1.0
1701540216.676488,-2.0,-54.0,15.0,5.0,-11.0,-3.0,1.0,0.0
1701540216.705992,1.0,75.0,-19.0,-21.0,-1.0,-1.0,-2.0,-3.0
1701540216.705992,-1.0,10.0,17.0,11.0,0.0,-1.0,-2.0,-2.0
1701540216.705992,-4.0,-23.0,8.0,10.0,0.0,-3.0,-2.0,-2.0
1701540216.705992,1.0,-8.0,-14.0,-9.0,2.0,2.0,0.0,0.0
1701540216.706992,-1.0,-6.0,-15.0,-20.0,-6.0,-3.0,-3.0,-1.0
1701540216.706992,-4.0,2.0,2.0,10.0,-11.0,-6.0,-7.0,-6.0
1701540216.7163496,1.0,-12.0,-27.0,-10.0,7.0,3.0,0.0,-1.0
1701540216.7163496,0.0,10.0,7.0,8.0,1.0,-3.0,1.0,-3.0
1701540216.7401996,0.0,0.0,2.0,-19.0,-9.0,-2.0,4.0,1.0
1701540216.7439842,-1.0,-7.0,27.0,-3.0,-2.0,3.0,1.0,1.0
1701540216.764983,-3.0,-16.0,13.0,10.0,13.0,3.0,0.0,0.0
1701540216.7664068,-2.0,10.0,4.0,5.0,-5.0,-2.0,-2.0,-2.0
1701540216.7922657,-2.0,-9.0,3.0,1.0,-3.0,-2.0,-3.0,-1.0
1701540216.7922657,1.0,-7.0,2.0,-10.0,-10.0,-3.0,2.0,2.0
1701540216.7922657,-2.0,10.0,22.0,17.0,0.0,-1.0,0.0,-1.0
1701540216.7922657,1.0,1.0,-92.0,-32.0,-3.0,1.0,-1.0,-1.0
1701540216.7922657,-1.0,-7.0,21.0,-3.0,-3.0,-3.0,-1.0,-2.0
1701540216.7922657,-2.0,2.0,16.0,2.0,3.0,-1.0,-1.0,-2.0
1701540216.7922657,0.0,11.0,-5.0,7.0,-1.0,-3.0,0.0,2.0
1701540216.7922657,-2.0,0.0,27.0,5.0,-6.0,2.0,-3.0,-3.0
1701540216.8299212,0.0,-81.0,10.0,33.0,19.0,4.0,4.0,2.0
1701540216.8299212,4.0,93.0,-16.0,-5.0,6.0,-1.0,-1.0,-1.0
1701540216.8299212,-3.0,-1.0,23.0,-8.0,-2.0,-2.0,0.0,0.0
1701540216.8299212,-2.0,1.0,8.0,4.0,-12.0,-6.0,-4.0,-1.0
1701540216.8299212,-2.0,-8.0,-79.0,-33.0,-9.0,-1.0,-1.0,-1.0
1701540216.8299212,2.0,-45.0,25.0,17.0,3.0,1.0,1.0,2.0
1701540216.8299212,4.0,-1.0,-37.0,-14.0,-3.0,-1.0,3.0,2.0
1701540216.8299212,-7.0,15.0,49.0,13.0,2.0,-3.0,-2.0,-3.0
1701540216.8309436,-1.0,9.0,-5.0,4.0,2.0,-2.0,-1.0,1.0
1701540216.8331864,-3.0,-15.0,-3.0,-4.0,1.0,-2.0,-3.0,-6.0
1701540216.834121,2.0,14.0,-40.0,-4.0,-14.0,-5.0,-2.0,2.0
1701540216.834121,0.0,-9.0,40.0,-2.0,26.0,10.0,4.0,0.0
1701540216.8789809,-3.0,14.0,-11.0,35.0,2.0,-5.0,-5.0,-4.0
1701540216.8789809,-10.0,-12.0,5.0,1.0,-6.0,-4.0,-1.0,-5.0
1701540216.879981,1.0,-15.0,10.0,-12.0,-6.0,-2.0,-3.0,-1.0
1701540216.879981,2.0,6.0,3.0,6.0,-2.0,-1.0,-1.0,1.0
1701540216.879981,0.0,11.0,5.0,-7.0,-2.0,-1.0,1.0,0.0
1701540216.879981,28.0,3.0,-10.0,-12.0,-2.0,-1.0,-1.0,-10.0
1701540216.879981,-21.0,-13.0,5.0,4.0,1.0,-1.0,-3.0,9.0
1701540216.879981,0.0,-5.0,8.0,5.0,-1.0,-1.0,2.0,-2.0
1701540216.8930209,-2.0,9.0,-49.0,-14.0,-3.0,-1.0,-1.0,-1.0
1701540216.8930209,9.0,-80.0,-8.0,24.0,3.0,-1.0,-1.0,3.0
1701540216.8937087,3.0,77.0,32.0,-46.0,-7.0,-1.0,-2.0,-6.0
1701540216.8937087,-3.0,29.0,1.0,9.0,-6.0,-3.0,-4.0,-3.0
1701540216.943917,-4.0,3.0,8.0,-8.0,1.0,-2.0,-2.0,-1.0
1701540216.943917,-11.0,-39.0,17.0,14.0,6.0,2.0,1.0,2.0
1701540216.943917,0.0,-17.0,-45.0,1.0,4.0,2.0,3.0,-3.0
1701540216.943917,0.0,2.0,-6.0,4.0,-1.0,-2.0,-2.0,1.0
1701540216.943917,-1.0,34.0,-75.0,-21.0,-9.0,-6.0,-2.0,-3.0
1701540216.943917,-8.0,26.0,22.0,-3.0,-2.0,0.0,-2.0,5.0
1701540216.943917,39.0,-51.0,15.0,9.0,3.0,2.0,-3.0,-8.0
1701540216.943917,25.0,-1.0,-6.0,-5.0,-4.0,-2.0,3.0,15.0
1701540216.9450033,-6.0,-11.0,29.0,15.0,2.0,1.0,1.0,-14.0
1701540216.9450033,-9.0,0.0,-29.0,-17.0,-3.0,-1.0,-1.0,1.0
1701540216.9548078,-2.0,5.0,-1.0,1.0,-2.0,-1.0,-3.0,-3.0
1701540216.9548078,-8.0,-7.0,-8.0,5.0,0.0,1.0,2.0,-5.0
1701540217.026249,15.0,19.0,49.0,12.0,2.0,4.0,4.0,7.0
1701540217.026249,-10.0,23.0,15.0,-19.0,-9.0,-10.0,-10.0,-6.0
1701540217.0283804,-66.0,-2.0,27.0,1.0,0.0,-5.0,-5.0,-6.0
1701540217.0283804,43.0,4.0,11.0,2.0,0.0,-5.0,-3.0,-6.0
1701540217.0283804,-60.0,-49.0,-18.0,-16.0,-11.0,-8.0,6.0,8.0
1701540217.0283804,15.0,8.0,28.0,23.0,10.0,7.0,1.0,-3.0
1701540217.0283804,-12.0,-2.0,-16.0,-3.0,4.0,8.0,3.0,-3.0
1701540217.0283804,-10.0,-23.0,-51.0,-24.0,-8.0,-3.0,-2.0,-5.0
1701540217.0283804,4.0,4.0,81.0,11.0,-1.0,0.0,-3.0,-2.0
1701540217.0283804,6.0,14.0,-45.0,-21.0,-15.0,-10.0,-4.0,1.0
1701540217.041286,49.0,-9.0,-91.0,-6.0,10.0,4.0,1.0,5.0
1701540217.041286,-28.0,11.0,11.0,16.0,4.0,-3.0,-4.0,-7.0
1701540217.049269,-11.0,13.0,9.0,27.0,-6.0,-6.0,-8.0,-20.0
1701540217.049269,27.0,8.0,-72.0,-13.0,14.0,7.0,5.0,7.0
1701540217.049269,-61.0,-13.0,76.0,6.0,-18.0,-10.0,-7.0,-3.0
1701540217.049269,9.0,-6.0,-6.0,-6.0,1.0,2.0,3.0,-1.0
1701540217.0502703,23.0,7.0,7.0,5.0,5.0,0.0,-6.0,-4.0
1701540217.0502703,-10.0,-13.0,46.0,7.0,2.0,3.0,0.0,12.0
1701540217.0624418,-20.0,15.0,-31.0,-22.0,-4.0,2.0,8.0,-10.0
1701540217.0645723,34.0,3.0,14.0,2.0,-5.0,1.0,4.0,19.0
1701540217.0656047,-22.0,-2.0,-2.0,-8.0,-3.0,-2.0,-3.0,4.0
1701540217.0656047,-18.0,9.0,11.0,10.0,4.0,2.0,1.0,-5.0
1701540217.0746453,25.0,-56.0,27.0,13.0,3.0,-2.0,-3.0,5.0
1701540217.0746453,-30.0,86.0,-40.0,-11.0,-7.0,-2.0,1.0,-5.0
1701540217.1385715,37.0,3.0,-16.0,3.0,3.0,2.0,-3.0,5.0
1701540217.1385715,-13.0,-15.0,-17.0,-38.0,-13.0,-14.0,-17.0,-6.0
1701540217.1385715,21.0,-14.0,-16.0,35.0,7.0,-1.0,1.0,-2.0
1701540217.1385715,-27.0,-49.0,27.0,-27.0,-4.0,-3.0,-4.0,-6.0
1701540217.1385715,5.0,7.0,53.0,7.0,4.0,7.0,10.0,9.0
1701540217.1385715,-17.0,-8.0,-83.0,-26.0,-10.0,-3.0,-6.0,-12.0
1701540217.1385715,17.0,-4.0,43.0,10.0,0.0,-2.0,-4.0,-1.0
1701540217.1385715,-14.0,-19.0,25.0,11.0,1.0,1.0,1.0,-2.0
1701540217.1385715,-1.0,20.0,-14.0,9.0,-6.0,-4.0,-1.0,-3.0
1701540217.1385715,7.0,-6.0,40.0,-3.0,-4.0,0.0,2.0,3.0
1701540217.1564853,2.0,22.0,-11.0,-3.0,8.0,3.0,-4.0,-2.0
1701540217.156877,3.0,-9.0,-27.0,-7.0,-1.0,-1.0,-2.0,-4.0
1701540217.172347,5.0,-27.0,-1.0,7.0,-5.0,-2.0,-1.0,-1.0
1701540217.172347,-3.0,-6.0,-37.0,-7.0,0.0,1.0,4.0,0.0
1701540217.172347,0.0,31.0,29.0,9.0,-13.0,-7.0,-4.0,-3.0
1701540217.172347,-2.0,16.0,16.0,37.0,16.0,3.0,2.0,0.0
1701540217.172347,6.0,-39.0,-25.0,-13.0,11.0,5.0,0.0,0.0
1701540217.172347,1.0,-5.0,-84.0,-28.0,-10.0,-4.0,5.0,2.0
1701540217.1781728,0.0,7.0,92.0,6.0,-16.0,-8.0,-4.0,-4.0
1701540217.1781728,-1.0,-6.0,34.0,24.0,17.0,6.0,-5.0,-2.0
1701540217.189828,-12.0,4.0,-75.0,-27.0,-4.0,0.0,-1.0,-5.0
1701540217.189828,3.0,24.0,100.0,40.0,5.0,1.0,0.0,2.0
1701540217.1944914,-2.0,-8.0,-66.0,-25.0,-7.0,-1.0,1.0,3.0
1701540217.195492,10.0,-9.0,-35.0,-13.0,-14.0,-8.0,-7.0,-10.0
1701540217.2173657,0.0,1.0,-2.0,-12.0,4.0,1.0,4.0,-9.0
1701540217.2173657,7.0,0.0,17.0,6.0,3.0,1.0,3.0,-2.0
1701540217.2179008,3.0,-7.0,-24.0,2.0,4.0,0.0,2.0,1.0
1701540217.2179008,-13.0,-6.0,23.0,-8.0,-1.0,0.0,0.0,0.0
1701540217.220945,-42.0,-7.0,-21.0,-14.0,-2.0,-2.0,-1.0,-2.0
1701540217.220945,18.0,11.0,8.0,10.0,-1.0,0.0,-4.0,-5.0
1701540217.2387736,-9.0,-4.0,-13.0,3.0,4.0,1.0,-1.0,-1.0
1701540217.2387736,-7.0,-26.0,7.0,31.0,-4.0,-3.0,-1.0,-3.0
1701540217.291918,9.0,30.0,4.0,-52.0,-13.0,-5.0,-5.0,0.0
1701540217.291918,-17.0,9.0,11.0,13.0,0.0,0.0,-3.0,-5.0
1701540217.291918,16.0,-34.0,-44.0,-19.0,6.0,4.0,0.0,3.0
1701540217.291918,11.0,75.0,55.0,23.0,-5.0,-6.0,-5.0,-2.0
1701540217.291918,23.0,-12.0,15.0,56.0,-1.0,-1.0,-5.0,-1.0
1701540217.291918,-24.0,-19.0,75.0,-18.0,-2.0,2.0,2.0,-1.0
1701540217.291918,33.0,24.0,-84.0,-29.0,1.0,3.0,2.0,6.0
1701540217.291918,-3.0,-37.0,-12.0,-11.0,-6.0,-3.0,-1.0,-2.0
1701540217.2990332,4.0,-1.0,20.0,-24.0,1.0,1.0,0.0,2.0
1701540217.2990332,-6.0,14.0,2.0,20.0,7.0,3.0,2.0,-1.0
1701540217.3220642,-15.0,-14.0,10.0,5.0,-5.0,-5.0,-2.0,-6.0
1701540217.3225014,-44.0,-15.0,-16.0,-16.0,-5.0,1.0,3.0,-7.0
1701540217.3352628,4.0,9.0,-7.0,6.0,2.0,5.0,7.0,4.0
1701540217.3352628,3.0,-22.0,2.0,11.0,-3.0,-15.0,-30.0,-5.0
1701540217.3352628,3.0,30.0,20.0,-2.0,4.0,-1.0,-2.0,-4.0
1701540217.3352628,9.0,3.0,-27.0,-13.0,-2.0,-4.0,-8.0,2.0
1701540217.3363247,-17.0,-22.0,9.0,1.0,-5.0,-3.0,4.0,-7.0
1701540217.3363247,-30.0,7.0,-13.0,-6.0,0.0,10.0,15.0,-19.0
1701540217.3446786,0.0,-6.0,67.0,30.0,5.0,-4.0,-17.0,-10.0
1701540217.3446786,14.0,-2.0,3.0,-24.0,-8.0,-6.0,-3.0,-2.0
1701540217.3457615,-5.0,-15.0,46.0,7.0,4.0,4.0,-3.0,-1.0
1701540217.3457615,6.0,-5.0,-1.0,-3.0,0.0,-1.0,4.0,6.0
1701540217.3584194,-16.0,7.0,26.0,7.0,-3.0,-3.0,1.0,-5.0
1701540217.3584194,-2.0,-11.0,27.0,27.0,0.0,5.0,5.0,4.0
1701540217.413565,2.0,-7.0,-78.0,-44.0,-2.0,-5.0,-6.0,3.0
1701540217.413565,13.0,9.0,-4.0,6.0,-8.0,-6.0,2.0,1.0
1701540217.4191167,-3.0,6.0,-2.0,7.0,21.0,8.0,4.0,1.0
1701540217.4201782,8.0,-31.0,-53.0,-12.0,7.0,5.0,3.0,5.0
1701540217.422708,8.0,21.0,13.0,32.0,-6.0,-3.0,-6.0,1.0
1701540217.422708,5.0,-3.0,-23.0,-21.0,-2.0,-1.0,3.0,3.0
1701540217.422708,-7.0,-12.0,-4.0,-16.0,-25.0,-10.0,-2.0,-1.0
1701540217.422708,2.0,8.0,-27.0,-23.0,-2.0,-2.0,-4.0,0.0
1701540217.455137,1.0,-9.0,25.0,26.0,15.0,4.0,-2.0,0.0
1701540217.455137,-1.0,-21.0,-14.0,-8.0,0.0,2.0,2.0,3.0
1701540217.4593542,-4.0,19.0,-1.0,0.0,-8.0,-4.0,-1.0,-1.0
1701540217.4593542,4.0,-14.0,-15.0,-18.0,1.0,-1.0,1.0,-1.0
1701540217.4593542,-36.0,-6.0,12.0,-1.0,-6.0,-3.0,-2.0,-5.0
1701540217.4593542,8.0,0.0,16.0,11.0,2.0,-1.0,-3.0,2.0
1701540217.4603536,-7.0,1.0,-78.0,-16.0,5.0,6.0,3.0,2.0
1701540217.4603536,-7.0,3.0,62.0,7.0,-1.0,-3.0,-2.0,-3.0
1701540217.4603536,11.0,6.0,23.0,-2.0,-4.0,-3.0,-2.0,0.0
1701540217.4603536,3.0,3.0,3.0,1.0,-2.0,-1.0,-1.0,1.0
1701540217.4603536,-7.0,-3.0,1.0,2.0,0.0,0.0,0.0,-4.0
1701540217.4603536,2.0,4.0,-8.0,2.0,-2.0,-1.0,-3.0,-1.0
1701540217.4893782,6.0,10.0,-5.0,-2.0,-4.0,-1.0,-1.0,-1.0
1701540217.4893782,-1.0,-1.0,-4.0,-3.0,2.0,1.0,1.0,-1.0
1701540217.4903789,8.0,-4.0,17.0,6.0,-6.0,-4.0,-8.0,2.0
1701540217.4903789,-3.0,5.0,-13.0,1.0,-2.0,2.0,5.0,-2.0
1701540217.4903789,4.0,-14.0,-2.0,-8.0,1.0,-3.0,-2.0,0.0
1701540217.4903789,0.0,9.0,23.0,28.0,6.0,2.0,1.0,-1.0
1701540217.493834,-4.0,-25.0,-66.0,-43.0,-8.0,-4.0,-2.0,-4.0
1701540217.493834,-1.0,-1.0,-7.0,1.0,-2.0,-3.0,-5.0,0.0
1701540217.5073507,0.0,12.0,21.0,11.0,1.0,0.0,2.0,1.0
1701540217.5073507,0.0,-7.0,-28.0,-27.0,-6.0,-4.0,-1.0,-2.0
1701540217.5169368,-1.0,-6.0,40.0,18.0,1.0,1.0,-1.0,-1.0
1701540217.5169368,0.0,-2.0,-8.0,-6.0,-3.0,-2.0,-3.0,-1.0
1701540217.5687573,5.0,8.0,-3.0,-6.0,-2.0,-1.0,0.0,2.0
1701540217.5687573,0.0,3.0,9.0,16.0,0.0,-4.0,-3.0,0.0
1701540217.5687573,2.0,-10.0,-14.0,-26.0,-5.0,-2.0,3.0,2.0
1701540217.5687573,-2.0,4.0,-21.0,-7.0,-1.0,-3.0,-2.0,-2.0
1701540217.5687573,6.0,-11.0,13.0,12.0,1.0,-1.0,-1.0,1.0
1701540217.5687573,15.0,-10.0,-11.0,-7.0,0.0,-1.0,1.0,1.0
1701540217.5687573,-25.0,42.0,13.0,7.0,-3.0,-2.0,-2.0,-1.0
1701540217.5687573,5.0,-15.0,-1.0,4.0,-1.0,0.0,-2.0,-2.0
1701540217.5855515,-2.0,-6.0,-2.0,-8.0,2.0,-1.0,4.0,0.0
1701540217.5865517,3.0,8.0,-5.0,35.0,4.0,2.0,-1.0,-1.0
1701540217.5866282,9.0,-17.0,36.0,-42.0,-5.0,1.0,1.0,0.0
1701540217.5866282,-2.0,1.0,3.0,-1.0,0.0,1.0,0.0,1.0
1701540217.5978057,-6.0,-1.0,-23.0,2.0,-1.0,-2.0,-5.0,-7.0
1701540217.5978057,-54.0,-7.0,13.0,20.0,-2.0,-3.0,-3.0,4.0
1701540217.5995917,10.0,-11.0,2.0,3.0,3.0,3.0,7.0,7.0
1701540217.5995917,-3.0,-4.0,3.0,4.0,1.0,0.0,0.0,-1.0
1701540217.611239,6.0,5.0,-26.0,-11.0,-5.0,-4.0,-1.0,0.0
1701540217.6125324,-11.0,1.0,-20.0,-19.0,-6.0,0.0,-3.0,-5.0
1701540217.6135666,6.0,-7.0,15.0,29.0,8.0,1.0,-3.0,-4.0
1701540217.6135666,5.0,-1.0,-4.0,-7.0,-2.0,-4.0,-1.0,5.0
1701540217.667902,7.0,6.0,13.0,9.0,0.0,0.0,2.0,1.0
1701540217.667902,11.0,1.0,67.0,-13.0,-1.0,0.0,-1.0,-2.0
1701540217.667902,-3.0,3.0,2.0,34.0,-1.0,-3.0,-2.0,-3.0
1701540217.667902,8.0,-3.0,12.0,-23.0,-2.0,-2.0,0.0,-2.0
1701540217.667902,5.0,-9.0,-5.0,-3.0,-2.0,0.0,-2.0,-1.0
1701540217.667902,16.0,-1.0,8.0,-11.0,-1.0,-1.0,1.0,1.0
1701540217.667902,-1.0,4.0,-8.0,28.0,5.0,-1.0,0.0,-1.0
1701540217.667902,-9.0,-6.0,-8.0,-27.0,-2.0,0.0,-2.0,0.0
1701540217.667902,-3.0,5.0,46.0,14.0,-5.0,-2.0,-4.0,-1.0
1701540217.667902,3.0,-9.0,-50.0,-15.0,3.0,3.0,-2.0,-2.0
1701540217.6751711,0.0,-5.0,-15.0,2.0,1.0,0.0,0.0,0.0
1701540217.6751711,-2.0,6.0,14.0,21.0,-1.0,-2.0,-3.0,-2.0
1701540217.7353175,-3.0,-14.0,-11.0,-16.0,0.0,-2.0,-1.0,1.0
1701540217.7363183,4.0,3.0,16.0,2.0,-1.0,-2.0,0.0,-3.0
1701540217.7363183,-3.0,-4.0,-21.0,-6.0,-2.0,-3.0,-3.0,-3.0
1701540217.7363183,1.0,-15.0,44.0,22.0,4.0,2.0,-2.0,0.0
1701540217.7363183,3.0,27.0,-14.0,-19.0,-5.0,-2.0,-2.0,-1.0
1701540217.7363183,12.0,-3.0,-11.0,15.0,0.0,-3.0,0.0,1.0
1701540217.7397063,-41.0,-8.0,24.0,2.0,-4.0,-3.0,-4.0,-1.0
1701540217.7397063,-5.0,-10.0,15.0,-2.0,-2.0,0.0,-1.0,-3.0
1701540217.743097,7.0,-29.0,-52.0,-11.0,1.0,3.0,-1.0,-1.0
1701540217.743097,1.0,10.0,-30.0,-19.0,-8.0,-4.0,-3.0,0.0
1701540217.743097,15.0,9.0,11.0,28.0,6.0,2.0,-1.0,-1.0
1701540217.743097,-9.0,9.0,3.0,-11.0,-1.0,0.0,0.0,-2.0
1701540217.7862597,-12.0,-15.0,-6.0,-9.0,-10.0,-4.0,-1.0,-2.0
1701540217.7862597,-6.0,-1.0,23.0,-9.0,3.0,1.0,-3.0,-5.0
1701540217.7862597,14.0,-5.0,-11.0,-14.0,-3.0,-1.0,-4.0,-1.0
1701540217.7862597,-7.0,13.0,-21.0,34.0,6.0,0.0,1.0,2.0
1701540217.7862597,27.0,7.0,6.0,57.0,9.0,1.0,4.0,-1.0
1701540217.7862597,12.0,-21.0,62.0,-43.0,-20.0,-5.0,-1.0,6.0
1701540217.790558,-30.0,-17.0,-35.0,14.0,-3.0,-3.0,-1.0,-1.0
1701540217.790558,4.0,0.0,-3.0,7.0,1.0,0.0,-1.0,0.0
1701540217.790558,-8.0,2.0,10.0,-25.0,2.0,0.0,-2.0,5.0
1701540217.7924974,11.0,5.0,-2.0,74.0,8.0,0.0,-3.0,-4.0
1701540217.8047867,15.0,-5.0,7.0,-101.0,-10.0,1.0,1.0,1.0
1701540217.8047867,-2.0,-1.0,-32.0,-3.0,-1.0,0.0,-2.0,-4.0
1701540217.8068075,-9.0,-5.0,27.0,14.0,-4.0,-4.0,-3.0,1.0
1701540217.8068075,7.0,9.0,-110.0,-27.0,1.0,-1.0,-3.0,-6.0
1701540217.8171322,5.0,-8.0,13.0,-3.0,1.0,1.0,-1.0,-2.0
1701540217.8174994,0.0,3.0,-32.0,-7.0,-2.0,-1.0,1.0,1.0
1701540217.8383577,0.0,19.0,13.0,-13.0,3.0,3.0,-6.0,-9.0
1701540217.839357,-2.0,-1.0,2.0,40.0,4.0,-1.0,3.0,8.0
1701540217.8439274,16.0,-13.0,30.0,25.0,0.0,-1.0,1.0,2.0
1701540217.8439274,16.0,-6.0,-36.0,-71.0,-15.0,-3.0,0.0,1.0
1701540217.8449326,6.0,-17.0,-14.0,23.0,3.0,0.0,0.0,0.0
1701540217.8449326,-26.0,6.0,21.0,-5.0,-1.0,-1.0,-2.0,-7.0
1701540217.8546336,0.0,24.0,-16.0,27.0,8.0,-1.0,-5.0,-1.0
1701540217.8546336,1.0,3.0,23.0,17.0,0.0,-2.0,0.0,-3.0
1701540217.9215705,10.0,-2.0,-2.0,-33.0,-5.0,-4.0,5.0,5.0
1701540217.9215705,-11.0,4.0,-13.0,2.0,3.0,3.0,-4.0,-7.0
1701540217.9225693,33.0,2.0,-6.0,-4.0,-5.0,-12.0,-25.0,4.0
1701540217.9225693,-52.0,-12.0,-7.0,0.0,1.0,-3.0,20.0,-6.0
1701540217.9225693,-59.0,2.0,8.0,-6.0,-3.0,7.0,0.0,-7.0
1701540217.9225693,16.0,-7.0,28.0,-7.0,0.0,-1.0,1.0,0.0
1701540217.9225693,5.0,11.0,43.0,19.0,-1.0,2.0,5.0,-1.0
1701540217.9225693,-13.0,-11.0,-39.0,-13.0,-6.0,-3.0,-18.0,-6.0
1701540217.9225693,-13.0,3.0,7.0,8.0,2.0,-4.0,2.0,0.0
1701540217.9225693,22.0,9.0,25.0,6.0,3.0,3.0,4.0,4.0
1701540217.9454582,-16.0,-19.0,-32.0,-26.0,-4.0,-4.0,4.0,4.0
1701540217.9454582,17.0,11.0,-20.0,14.0,4.0,7.0,14.0,22.0
1701540217.9464567,8.0,-4.0,24.0,-1.0,-2.0,-4.0,-8.0,-10.0
1701540217.9464567,-2.0,0.0,-18.0,-27.0,-9.0,-1.0,-1.0,-3.0
1701540217.9464567,-11.0,2.0,52.0,23.0,-7.0,-5.0,-5.0,-19.0
1701540217.9464567,7.0,15.0,42.0,41.0,14.0,4.0,1.0,6.0
1701540217.9576507,12.0,-7.0,63.0,-9.0,2.0,4.0,2.0,5.0
1701540217.9576507,-23.0,7.0,-13.0,27.0,-10.0,-13.0,-11.0,-15.0
1701540217.959894,9.0,-26.0,-109.0,-80.0,3.0,8.0,13.0,19.0
1701540217.959894,24.0,22.0,34.0,87.0,-13.0,-9.0,-10.0,-13.0
1701540217.9730432,14.0,5.0,-44.0,52.0,9.0,-2.0,-6.0,-9.0
1701540217.9738622,-9.0,-22.0,4.0,-58.0,5.0,3.0,1.0,3.0
1701540218.0223143,2.0,6.0,-47.0,-52.0,-14.0,-1.0,5.0,11.0
1701540218.0223143,-2.0,-19.0,-24.0,23.0,4.0,-2.0,-16.0,-13.0
1701540218.0223143,3.0,6.0,-38.0,17.0,3.0,2.0,5.0,-2.0
1701540218.0223143,1.0,-17.0,49.0,-29.0,-14.0,-4.0,0.0,5.0
1701540218.0223143,-62.0,1.0,-60.0,28.0,3.0,-2.0,-1.0,-21.0
1701540218.0223143,-12.0,2.0,17.0,22.0,16.0,6.0,-3.0,7.0
1701540218.0265577,-42.0,-37.0,19.0,19.0,-8.0,-7.0,2.0,5.0
1701540218.0265577,10.0,39.0,-66.0,41.0,5.0,10.0,10.0,5.0
1701540218.0458384,-32.0,11.0,65.0,4.0,-1.0,-3.0,-9.0,7.0
1701540218.0458384,26.0,-19.0,-10.0,11.0,-1.0,-5.0,-15.0,-14.0
1701540218.0665042,-39.0,5.0,-21.0,-24.0,-3.0,1.0,28.0,-1.0
1701540218.0665042,13.0,-16.0,-1.0,-28.0,2.0,10.0,-5.0,-2.0
1701540218.0665042,12.0,13.0,7.0,25.0,-1.0,-10.0,2.0,-1.0
1701540218.0665042,-34.0,-4.0,40.0,-24.0,0.0,2.0,-3.0,6.0
1701540218.0665042,21.0,2.0,17.0,-23.0,0.0,-8.0,-21.0,-2.0
1701540218.0665042,1.0,-13.0,43.0,5.0,1.0,-2.0,-1.0,-1.0
1701540218.0665042,7.0,-3.0,-62.0,6.0,-2.0,6.0,6.0,-10.0
1701540218.0665042,11.0,14.0,32.0,-21.0,-3.0,1.0,6.0,1.0
1701540218.0787318,-2.0,-8.0,38.0,-17.0,-8.0,-1.0,-4.0,-6.0
1701540218.0788841,-26.0,-7.0,-35.0,16.0,7.0,-1.0,1.0,0.0
1701540218.091419,5.0,-14.0,8.0,-7.0,-1.0,-4.0,-9.0,-5.0
1701540218.0924172,1.0,-19.0,36.0,-29.0,-5.0,-2.0,4.0,4.0
1701540218.12236,7.0,2.0,26.0,23.0,-3.0,-3.0,-13.0,-4.0
1701540218.12236,3.0,15.0,-45.0,-8.0,3.0,-2.0,-7.0,-2.0
1701540218.1287758,8.0,-25.0,-52.0,-22.0,-4.0,0.0,3.0,-5.0
1701540218.1287758,-8.0,5.0,-14.0,0.0,-7.0,-5.0,-5.0,-5.0
1701540218.1287758,18.0,16.0,-64.0,-18.0,6.0,5.0,7.0,17.0
1701540218.1287758,-13.0,-14.0,68.0,11.0,-5.0,-11.0,-25.0,-35.0
1701540218.1287758,8.0,-21.0,37.0,10.0,0.0,3.0,2.0,-1.0
1701540218.1287758,-6.0,12.0,-22.0,-18.0,1.0,2.0,-2.0,1.0
1701540218.1389816,2.0,12.0,-52.0,-5.0,-5.0,-8.0,-12.0,-5.0
1701540218.1389816,1.0,-12.0,-22.0,-6.0,0.0,4.0,11.0,9.0
1701540218.168437,-45.0,2.0,35.0,10.0,2.0,3.0,-2.0,-7.0
1701540218.1694362,8.0,6.0,-18.0,-20.0,-9.0,-7.0,1.0,-4.0
1701540218.1892183,8.0,-6.0,-1.0,43.0,16.0,8.0,4.0,5.0
1701540218.1892183,-7.0,-9.0,-12.0,-71.0,-17.0,-5.0,2.0,6.0
1701540218.1971693,9.0,13.0,31.0,24.0,4.0,1.0,-4.0,-8.0
1701540218.1971693,2.0,-3.0,7.0,10.0,-11.0,-5.0,-1.0,2.0
1701540218.1971693,0.0,17.0,-26.0,-61.0,-24.0,-4.0,-1.0,-2.0
1701540218.198168,2.0,-15.0,54.0,51.0,66.0,25.0,8.0,4.0
1701540218.1982682,12.0,-31.0,30.0,30.0,1.0,-6.0,-4.0,1.0
1701540218.1982682,-3.0,34.0,-40.0,-11.0,-8.0,-7.0,-4.0,-6.0
1701540218.1982682,11.0,-29.0,37.0,49.0,-3.0,-4.0,-4.0,1.0
1701540218.1982682,-6.0,54.0,-26.0,-88.0,-49.0,-17.0,-8.0,-6.0
1701540218.207238,13.0,-35.0,20.0,25.0,26.0,11.0,6.0,6.0
1701540218.207238,-3.0,-52.0,-5.0,6.0,6.0,3.0,2.0,0.0
1701540218.2164326,-3.0,16.0,12.0,-7.0,-12.0,-8.0,-6.0,-7.0
1701540218.2164326,0.0,29.0,-51.0,7.0,-2.0,-1.0,0.0,4.0
1701540218.222363,4.0,36.0,4.0,7.0,-4.0,0.0,-1.0,-1.0
1701540218.222363,-2.0,-12.0,-5.0,-19.0,-6.0,-4.0,-5.0,1.0
1701540218.2337477,3.0,-7.0,-13.0,-9.0,6.0,1.0,0.0,-2.0
1701540218.2337477,8.0,-50.0,17.0,26.0,-6.0,-6.0,3.0,9.0
1701540218.2375028,3.0,49.0,29.0,-3.0,-1.0,1.0,-3.0,-1.0
1701540218.2375028,-4.0,-7.0,-76.0,-8.0,7.0,4.0,1.0,-2.0
1701540218.29878,-6.0,6.0,80.0,-10.0,-3.0,-2.0,-2.0,2.0
1701540218.3000846,1.0,-31.0,-12.0,21.0,0.0,-4.0,-3.0,-3.0
1701540218.308346,9.0,40.0,-16.0,-20.0,-19.0,-10.0,-2.0,0.0
1701540218.308346,3.0,-44.0,-11.0,5.0,9.0,5.0,4.0,4.0
1701540218.308346,-8.0,18.0,19.0,1.0,4.0,-1.0,-5.0,-4.0
1701540218.308346,-4.0,4.0,-61.0,7.0,-5.0,-4.0,-6.0,-2.0
1701540218.308346,6.0,-103.0,70.0,26.0,6.0,4.0,8.0,2.0
1701540218.308346,0.0,95.0,2.0,-56.0,-11.0,-4.0,-2.0,-3.0
1701540218.308346,12.0,5.0,3.0,41.0,3.0,1.0,-2.0,2.0
1701540218.308346,0.0,9.0,44.0,22.0,5.0,-2.0,-1.0,-2.0
1701540218.308346,25.0,-18.0,-5.0,1.0,1.0,6.0,-3.0,0.0
1701540218.308346,-5.0,-25.0,-6.0,-7.0,5.0,3.0,3.0,-3.0
1701540218.33859,4.0,-20.0,-27.0,-23.0,-9.0,-3.0,0.0,0.0
1701540218.33859,24.0,33.0,1.0,1.0,-4.0,-12.0,-8.0,-1.0
1701540218.33859,24.0,-50.0,-39.0,-12.0,-5.0,5.0,1.0,4.0
1701540218.33859,-69.0,-11.0,7.0,27.0,-2.0,0.0,2.0,-24.0
1701540218.33859,35.0,85.0,-26.0,-26.0,6.0,8.0,9.0,9.0
1701540218.33859,-12.0,-37.0,32.0,10.0,3.0,-4.0,-12.0,-1.0
1701540218.3396344,-2.0,13.0,-15.0,2.0,-6.0,-13.0,-5.0,-5.0
1701540218.3396344,-13.0,-8.0,-36.0,-21.0,-1.0,-1.0,-4.0,0.0
1701540218.3506613,-8.0,-56.0,-1.0,5.0,9.0,9.0,8.0,4.0
1701540218.3506613,-10.0,8.0,33.0,7.0,-8.0,-6.0,-5.0,-16.0
1701540218.357812,-20.0,22.0,0.0,16.0,1.0,0.0,-6.0,-3.0
1701540218.3581614,21.0,-13.0,67.0,-16.0,-5.0,-3.0,-4.0,1.0
1701540218.4029238,-9.0,9.0,-33.0,-19.0,-14.0,-5.0,-6.0,-8.0
1701540218.4029238,5.0,-12.0,4.0,-2.0,6.0,6.0,12.0,10.0
1701540218.4029238,-7.0,31.0,1.0,-4.0,-18.0,-5.0,4.0,1.0
1701540218.4029238,19.0,10.0,13.0,-11.0,2.0,-3.0,-1.0,6.0
1701540218.4029238,-2.0,-40.0,-16.0,23.0,9.0,3.0,1.0,-1.0
1701540218.4029238,-11.0,-53.0,-63.0,4.0,12.0,6.0,7.0,3.0
1701540218.4040558,-9.0,66.0,30.0,21.0,16.0,-1.0,-4.0,-2.0
1701540218.4040558,9.0,-4.0,10.0,18.0,-5.0,-3.0,-3.0,3.0
1701540218.4548285,-16.0,-39.0,-44.0,-33.0,-18.0,-11.0,-6.0,-6.0
1701540218.4548285,1.0,-15.0,-17.0,-18.0,0.0,3.0,5.0,3.0
1701540218.4548285,5.0,22.0,24.0,-6.0,-9.0,-3.0,0.0,-3.0
1701540218.4548285,3.0,-17.0,54.0,20.0,1.0,1.0,5.0,4.0
1701540218.4548285,-5.0,-12.0,-61.0,-11.0,4.0,1.0,-6.0,-3.0
1701540218.4548285,-6.0,38.0,18.0,2.0,-6.0,-2.0,-2.0,-4.0
1701540218.4548285,3.0,-28.0,-8.0,-3.0,1.0,-1.0,-2.0,-1.0
1701540218.4548285,43.0,-16.0,-21.0,-11.0,-1.0,-1.0,-2.0,-5.0
1701540218.461622,8.0,21.0,34.0,11.0,0.0,-6.0,-11.0,1.0
1701540218.461622,9.0,20.0,25.0,-13.0,-5.0,-5.0,8.0,2.0
1701540218.461622,-27.0,-46.0,-89.0,-26.0,-6.0,0.0,-4.0,-20.0
1701540218.461622,19.0,-4.0,10.0,41.0,9.0,11.0,-2.0,-2.0
1701540218.5083039,5.0,3.0,65.0,-5.0,-5.0,-5.0,-5.0,-4.0
1701540218.5083039,35.0,2.0,36.0,-6.0,-3.0,0.0,-10.0,4.0
1701540218.5106912,-36.0,44.0,-17.0,-9.0,-1.0,-13.0,-29.0,10.0
1701540218.5106912,2.0,-30.0,-13.0,-1.0,-4.0,6.0,20.0,4.0
1701540218.5106912,-17.0,1.0,-41.0,0.0,8.0,6.0,0.0,-1.0
1701540218.5106912,18.0,26.0,-51.0,-4.0,-6.0,5.0,29.0,0.0
1701540218.5106912,-13.0,-28.0,45.0,31.0,10.0,2.0,-26.0,-7.0
1701540218.5106912,-5.0,-59.0,57.0,3.0,-10.0,-12.0,6.0,-2.0
1701540218.5117822,-5.0,-6.0,-55.0,-44.0,-6.0,-7.0,-7.0,0.0
1701540218.5117822,-31.0,-6.0,72.0,16.0,2.0,-4.0,-18.0,-12.0
1701540218.523123,-19.0,19.0,45.0,43.0,9.0,5.0,17.0,-1.0
1701540218.523123,21.0,9.0,29.0,21.0,2.0,-3.0,-17.0,0.0
1701540218.5797157,-51.0,-9.0,2.0,-19.0,-7.0,-9.0,-3.0,-10.0
1701540218.5797157,-9.0,-10.0,-65.0,-8.0,4.0,1.0,-3.0,-30.0
1701540218.5817893,62.0,15.0,-48.0,-16.0,1.0,14.0,18.0,34.0
1701540218.5817893,-11.0,9.0,-11.0,22.0,-1.0,-2.0,-2.0,2.0
1701540218.5817893,-7.0,7.0,45.0,12.0,-4.0,-3.0,-3.0,-1.0
1701540218.5817893,1.0,18.0,-2.0,-3.0,-2.0,-2.0,1.0,-8.0
1701540218.5817893,4.0,-8.0,-44.0,-20.0,-8.0,-6.0,0.0,17.0
1701540218.5817893,-2.0,33.0,-9.0,-26.0,-1.0,4.0,26.0,-8.0
1701540218.5817893,16.0,-35.0,3.0,26.0,11.0,9.0,3.0,-7.0
1701540218.5817893,3.0,-93.0,54.0,16.0,-1.0,1.0,-14.0,4.0
1701540218.5817893,41.0,91.0,14.0,-13.0,-3.0,-8.0,-1.0,-7.0
1701540218.5817893,-30.0,-10.0,0.0,-18.0,-5.0,-6.0,-12.0,1.0
1701540218.5862453,12.0,-9.0,-47.0,-12.0,-4.0,-1.0,0.0,-5.0
1701540218.5862453,-21.0,-1.0,42.0,34.0,8.0,-2.0,3.0,8.0
1701540218.608985,15.0,-69.0,-25.0,-22.0,-4.0,9.0,17.0,-1.0
1701540218.6099844,-4.0,58.0,-68.0,-26.0,-6.0,-10.0,-19.0,-18.0
1701540218.6275485,1.0,35.0,10.0,28.0,0.0,2.0,7.0,3.0
1701540218.6275485,-2.0,-5.0,0.0,0.0,6.0,6.0,-1.0,15.0
1701540218.6275485,-24.0,-28.0,21.0,-12.0,3.0,-9.0,-19.0,-27.0
1701540218.6275485,1.0,43.0,-84.0,-30.0,-2.0,-2.0,-11.0,-1.0
1701540218.672151,2.0,10.0,53.0,7.0,-3.0,10.0,27.0,4.0
1701540218.672151,-29.0,5.0,-14.0,-6.0,-12.0,-11.0,0.0,-3.0
1701540218.672151,9.0,-56.0,-10.0,-10.0,-2.0,8.0,23.0,0.0
1701540218.672151,-1.0,26.0,55.0,22.0,6.0,-2.0,-6.0,2.0
1701540218.675105,4.0,-31.0,-9.0,-12.0,2.0,-2.0,-6.0,-2.0
1701540218.675105,5.0,23.0,-50.0,33.0,0.0,-2.0,-5.0,2.0
1701540218.675105,-11.0,-28.0,65.0,-33.0,-18.0,-10.0,-7.0,-2.0
1701540218.675105,-7.0,-21.0,-41.0,41.0,7.0,5.0,2.0,0.0
1701540218.676726,5.0,-3.0,4.0,-97.0,-18.0,-10.0,-12.0,3.0
1701540218.676726,7.0,52.0,22.0,50.0,-5.0,2.0,8.0,5.0
1701540218.6800804,-12.0,3.0,-52.0,18.0,40.0,8.0,-2.0,0.0
1701540218.6800804,-5.0,-37.0,-41.0,-51.0,-10.0,3.0,-1.0,2.0
1701540218.7414997,1.0,17.0,-8.0,75.0,-3.0,-10.0,-6.0,-4.0
1701540218.7414997,-2.0,-1.0,-5.0,-69.0,-7.0,1.0,-6.0,-7.0
1701540218.7424986,5.0,-21.0,87.0,58.0,-4.0,2.0,9.0,5.0
1701540218.7424986,-29.0,-31.0,-18.0,-67.0,-4.0,-3.0,-1.0,-2.0
1701540218.7424986,-1.0,31.0,-48.0,-1.0,1.0,-5.0,-6.0,1.0
1701540218.7424986,7.0,-19.0,6.0,-15.0,-9.0,2.0,-1.0,0.0
1701540218.7424986,-3.0,0.0,7.0,7.0,-2.0,-1.0,0.0,0.0
1701540218.7424986,30.0,16.0,75.0,53.0,10.0,1.0,3.0,3.0
1701540218.7424986,13.0,-24.0,44.0,13.0,-2.0,-2.0,-2.0,1.0
1701540218.7424986,-25.0,8.0,-18.0,-19.0,-2.0,-4.0,-2.0,-4.0
1701540218.7424986,23.0,11.0,-18.0,-14.0,-1.0,6.0,2.0,4.0
1701540218.7424986,-7.0,-10.0,0.0,53.0,8.0,-4.0,-4.0,5.0
1701540218.7540126,-14.0,-8.0,28.0,-53.0,-9.0,1.0,4.0,-7.0
1701540218.7540126,9.0,6.0,-7.0,47.0,10.0,14.0,17.0,6.0
1701540218.7625866,-80.0,-8.0,81.0,3.0,2.0,2.0,-9.0,-9.0
1701540218.7625866,-20.0,-18.0,-47.0,-12.0,-12.0,-9.0,-15.0,-10.0
1701540218.8131814,12.0,24.0,14.0,34.0,11.0,7.0,25.0,-1.0
1701540218.8131814,4.0,-18.0,-41.0,-17.0,-1.0,-7.0,-5.0,-18.0
1701540218.8131814,0.0,18.0,51.0,22.0,-9.0,-8.0,-8.0,-11.0
1701540218.8131814,10.0,-5.0,-9.0,-5.0,0.0,2.0,-8.0,-9.0
1701540218.8141823,-8.0,-34.0,-34.0,3.0,6.0,-2.0,-8.0,-1.0
1701540218.8141823,-34.0,-16.0,32.0,-15.0,-7.0,-2.0,-6.0,3.0
1701540218.8174167,18.0,30.0,-25.0,-23.0,-7.0,-2.0,5.0,2.0
1701540218.8174167,-17.0,15.0,33.0,5.0,-2.0,-3.0,-9.0,-5.0
1701540218.8360536,12.0,-22.0,16.0,5.0,6.0,2.0,-6.0,13.0
1701540218.8360536,21.0,17.0,-85.0,-4.0,7.0,12.0,24.0,18.0
1701540218.8360536,-23.0,49.0,-61.0,-20.0,-7.0,-13.0,-30.0,-33.0
1701540218.8360536,49.0,3.0,57.0,7.0,-3.0,0.0,11.0,11.0
1701540218.8360536,29.0,-7.0,-6.0,5.0,-4.0,-1.0,-5.0,7.0
1701540218.8360536,6.0,-1.0,20.0,-6.0,0.0,-5.0,-9.0,1.0
1701540218.8370793,3.0,-51.0,-3.0,-7.0,-4.0,-1.0,12.0,11.0
1701540218.8434496,-10.0,43.0,-13.0,-4.0,-2.0,0.0,-1.0,-12.0
1701540218.850951,0.0,22.0,0.0,-8.0,1.0,2.0,0.0,1.0
1701540218.850951,-15.0,-27.0,16.0,28.0,0.0,-6.0,-12.0,-3.0
1701540218.8677719,-35.0,-44.0,-9.0,-39.0,-2.0,1.0,6.0,-2.0
1701540218.8677719,-8.0,-30.0,-17.0,-20.0,-13.0,-4.0,6.0,8.0
1701540218.880141,-6.0,36.0,29.0,40.0,7.0,2.0,-4.0,-6.0
1701540218.880141,6.0,5.0,-17.0,-28.0,1.0,-6.0,-7.0,1.0
1701540218.8812096,12.0,6.0,-17.0,75.0,2.0,0.0,2.0,2.0
1701540218.8812096,-2.0,-15.0,27.0,-88.0,-3.0,1.0,0.0,3.0
1701540218.8865252,-20.0,-18.0,-9.0,-11.0,-24.0,-11.0,-3.0,-5.0
1701540218.8946488,2.0,14.0,8.0,17.0,12.0,6.0,-3.0,-7.0
1701540218.9029708,21.0,18.0,-10.0,38.0,-1.0,-2.0,2.0,14.0
1701540218.9029708,0.0,-14.0,62.0,-6.0,-5.0,0.0,8.0,-4.0
1701540218.9096153,-4.0,-15.0,-31.0,-16.0,-6.0,0.0,-4.0,-1.0
1701540218.9096153,-23.0,9.0,-21.0,-21.0,-11.0,-7.0,-5.0,-13.0
1701540218.9311585,-19.0,-55.0,-9.0,-24.0,-4.0,-4.0,-3.0,0.0
1701540218.9313898,-1.0,65.0,40.0,71.0,9.0,4.0,8.0,11.0
1701540218.9526117,-5.0,15.0,-55.0,-54.0,-3.0,-4.0,-2.0,-19.0
1701540218.9526117,6.0,-7.0,40.0,18.0,3.0,0.0,0.0,18.0
1701540218.9526117,-9.0,12.0,-10.0,-50.0,-5.0,-4.0,-2.0,-4.0
1701540218.9536116,3.0,-31.0,-32.0,17.0,0.0,-4.0,-3.0,-6.0
1701540218.9536116,9.0,-2.0,5.0,9.0,7.0,2.0,0.0,4.0
1701540218.9545686,11.0,3.0,-5.0,5.0,-5.0,-1.0,-2.0,-2.0
1701540218.955654,18.0,21.0,-14.0,-3.0,-2.0,-1.0,2.0,-1.0
1701540218.955654,-6.0,-5.0,-59.0,-16.0,-3.0,-4.0,-5.0,2.0
1701540219.0124218,6.0,2.0,28.0,20.0,5.0,2.0,-2.0,-2.0
1701540219.0124218,3.0,-7.0,-39.0,-2.0,-5.0,-4.0,0.0,0.0
1701540219.0124218,5.0,4.0,10.0,-1.0,-3.0,0.0,0.0,2.0
1701540219.0124218,1.0,-19.0,-6.0,0.0,1.0,1.0,0.0,-3.0
1701540219.0124218,-2.0,-22.0,8.0,7.0,-5.0,-3.0,0.0,5.0
1701540219.0124218,5.0,2.0,-34.0,-36.0,-3.0,-2.0,-2.0,-4.0
1701540219.0124218,15.0,2.0,0.0,2.0,10.0,2.0,-2.0,0.0
1701540219.013419,-4.0,-3.0,7.0,23.0,4.0,-1.0,-4.0,-1.0
1701540219.013419,-8.0,3.0,-22.0,4.0,-1.0,-1.0,-2.0,-3.0
1701540219.0144508,5.0,-4.0,59.0,3.0,-7.0,-1.0,1.0,2.0
1701540219.0155506,3.0,22.0,-28.0,-34.0,-12.0,-1.0,-3.0,-3.0
1701540219.0155506,-8.0,-13.0,14.0,20.0,3.0,-1.0,-1.0,-2.0
1701540219.0357893,-1.0,-8.0,59.0,21.0,6.0,2.0,-1.0,2.0
1701540219.0357893,0.0,20.0,-3.0,0.0,-5.0,-4.0,-4.0,-1.0
1701540219.0534647,1.0,-6.0,-21.0,-3.0,-1.0,-2.0,0.0,1.0
1701540219.0534647,11.0,-5.0,-6.0,-7.0,-4.0,-1.0,-2.0,-2.0
1701540219.08471,-25.0,-6.0,-6.0,-2.0,4.0,3.0,-2.0,2.0
1701540219.08471,1.0,-8.0,17.0,0.0,-2.0,0.0,0.0,-1.0
1701540219.08471,4.0,0.0,14.0,0.0,-1.0,-2.0,-1.0,-4.0
1701540219.08471,6.0,-6.0,-26.0,-10.0,-6.0,-2.0,0.0,2.0
1701540219.08471,0.0,-3.0,3.0,1.0,-1.0,-4.0,0.0,-2.0
1701540219.08471,1.0,0.0,-5.0,9.0,0.0,-1.0,-2.0,0.0
1701540219.08471,-2.0,10.0,-2.0,6.0,3.0,0.0,0.0,-1.0
1701540219.08471,-5.0,-46.0,13.0,2.0,-2.0,-1.0,-1.0,0.0
1701540219.099119,26.0,74.0,1.0,-5.0,0.0,-1.0,-2.0,-5.0
1701540219.099119,18.0,32.0,22.0,10.0,3.0,0.0,0.0,-4.0
1701540219.099119,5.0,-6.0,45.0,-20.0,-4.0,-4.0,-2.0,-1.0
1701540219.1001189,0.0,10.0,-16.0,1.0,-5.0,-2.0,-5.0,-2.0
1701540219.1188831,-1.0,-32.0,16.0,6.0,2.0,0.0,1.0,1.0
1701540219.1188831,-1.0,-11.0,20.0,10.0,2.0,2.0,0.0,0.0
1701540219.1219177,4.0,16.0,-38.0,-29.0,-21.0,-6.0,-1.0,-3.0
1701540219.1219177,-6.0,3.0,15.0,4.0,8.0,4.0,1.0,-1.0
1701540219.133028,-15.0,-17.0,-28.0,22.0,38.0,9.0,1.0,0.0
1701540219.1345994,-9.0,0.0,13.0,40.0,-1.0,-4.0,-2.0,-3.0
1701540219.1439629,-4.0,-21.0,-19.0,-30.0,-4.0,-2.0,0.0,1.0
1701540219.1439629,-5.0,5.0,8.0,-30.0,-22.0,-6.0,-1.0,2.0
1701540219.191771,-4.0,-20.0,-16.0,-15.0,-15.0,-4.0,-3.0,-3.0
1701540219.191771,4.0,-10.0,-2.0,-17.0,3.0,1.0,1.0,0.0
1701540219.191771,4.0,3.0,2.0,31.0,4.0,3.0,0.0,0.0
1701540219.191771,0.0,4.0,-4.0,-3.0,-1.0,-1.0,-2.0,0.0
1701540219.191771,-50.0,-11.0,7.0,-1.0,1.0,0.0,0.0,-9.0
1701540219.191771,-3.0,-7.0,-17.0,-6.0,-2.0,-2.0,2.0,0.0
1701540219.191771,-2.0,0.0,14.0,8.0,-1.0,0.0,0.0,-1.0
1701540219.191771,-3.0,-2.0,-23.0,1.0,6.0,0.0,1.0,0.0
1701540219.192874,13.0,-5.0,1.0,-6.0,-7.0,-5.0,0.0,0.0
1701540219.1946483,-3.0,-29.0,31.0,-5.0,-5.0,-3.0,-5.0,-1.0
1701540219.2040157,-8.0,33.0,-8.0,6.0,6.0,-2.0,-1.0,0.0
1701540219.2040157,-1.0,26.0,21.0,19.0,9.0,1.0,-1.0,-4.0
1701540219.2535396,8.0,-16.0,-98.0,-32.0,-12.0,-3.0,-3.0,2.0
1701540219.2535396,-3.0,-9.0,0.0,-16.0,-7.0,-3.0,0.0,-2.0
1701540219.2535396,12.0,-2.0,25.0,14.0,6.0,2.0,-1.0,0.0
1701540219.2535396,-1.0,-28.0,4.0,-1.0,-4.0,-1.0,0.0,-1.0
1701540219.2535396,0.0,7.0,31.0,-6.0,-9.0,-4.0,-4.0,2.0
1701540219.2535396,-2.0,8.0,-23.0,27.0,22.0,6.0,2.0,-1.0
1701540219.2535396,-14.0,-29.0,-43.0,-25.0,-7.0,-2.0,-3.0,-4.0
1701540219.2535396,-4.0,-3.0,-16.0,-3.0,-7.0,-3.0,-2.0,-1.0
1701540219.2535396,1.0,1.0,9.0,-3.0,-11.0,-4.0,0.0,0.0
1701540219.2535396,2.0,-2.0,-13.0,-20.0,-7.0,-3.0,0.0,1.0
1701540219.270129,-1.0,9.0,13.0,24.0,5.0,2.0,0.0,0.0
1701540219.270129,-4.0,-6.0,-11.0,4.0,5.0,2.0,0.0,0.0
1701540219.2824664,6.0,3.0,17.0,1.0,-3.0,-1.0,-1.0,1.0
1701540219.2824664,4.0,2.0,52.0,18.0,2.0,-1.0,-4.0,0.0
1701540219.2871673,30.0,-4.0,-32.0,-37.0,-8.0,-3.0,-2.0,-1.0
1701540219.2871673,-7.0,1.0,-41.0,-32.0,-11.0,-5.0,-4.0,3.0
1701540219.3050358,-1.0,-12.0,16.0,19.0,4.0,2.0,-1.0,0.0
1701540219.3050358,-2.0,3.0,-31.0,-11.0,0.0,-1.0,2.0,-1.0
1701540219.3050358,2.0,-11.0,20.0,21.0,8.0,0.0,0.0,-1.0
1701540219.3050358,2.0,6.0,-4.0,1.0,-3.0,-1.0,-1.0,-1.0
1701540219.3570962,-1.0,0.0,44.0,-8.0,4.0,1.0,-2.0,-2.0
1701540219.3570962,-5.0,3.0,-61.0,-23.0,-14.0,-5.0,-6.0,-3.0
1701540219.3570962,-4.0,12.0,17.0,11.0,8.0,0.0,0.0,0.0
1701540219.3570962,-14.0,-11.0,22.0,25.0,24.0,10.0,-1.0,-4.0
1701540219.3570962,-5.0,8.0,3.0,9.0,-1.0,-1.0,1.0,0.0
1701540219.3570962,-3.0,0.0,-3.0,-15.0,-8.0,-2.0,0.0,-1.0
1701540219.3570962,-6.0,1.0,2.0,-24.0,-13.0,-4.0,-2.0,0.0
1701540219.3570962,4.0,2.0,34.0,5.0,-1.0,4.0,-2.0,1.0
1701540219.358196,2.0,-2.0,55.0,28.0,0.0,-4.0,1.0,-3.0
1701540219.358196,-4.0,-14.0,-49.0,-24.0,1.0,3.0,3.0,1.0
1701540219.3617845,-9.0,-4.0,-25.0,-6.0,-3.0,-2.0,1.0,-1.0
1701540219.3617845,5.0,1.0,12.0,-15.0,-7.0,-5.0,-2.0,-2.0
1701540219.4179556,0.0,2.0,-17.0,17.0,5.0,1.0,-3.0,-3.0
1701540219.4179556,-4.0,8.0,28.0,7.0,-4.0,-4.0,-5.0,-6.0
1701540219.4179556,-3.0,-4.0,-38.0,9.0,1.0,1.0,2.0,0.0
1701540219.4179556,-6.0,0.0,-22.0,-3.0,-1.0,-2.0,2.0,-2.0
1701540219.4179556,0.0,-7.0,21.0,-20.0,-6.0,-4.0,-2.0,0.0
1701540219.4179556,-3.0,4.0,-25.0,-5.0,-2.0,-1.0,-2.0,-1.0
1701540219.4189632,0.0,-3.0,7.0,14.0,9.0,5.0,2.0,1.0
1701540219.4189632,-1.0,6.0,52.0,2.0,-10.0,-7.0,-6.0,-3.0
1701540219.4189632,3.0,0.0,-20.0,-4.0,0.0,0.0,3.0,1.0
1701540219.4189632,-39.0,0.0,0.0,7.0,3.0,0.0,-1.0,-2.0
1701540219.4212203,0.0,-9.0,30.0,-8.0,-7.0,-5.0,-10.0,-4.0
1701540219.4212203,0.0,1.0,-21.0,-9.0,-2.0,-1.0,5.0,-3.0
1701540219.4783099,11.0,-4.0,0.0,10.0,-2.0,-7.0,-8.0,1.0
1701540219.4793103,32.0,-12.0,12.0,-9.0,-3.0,-2.0,-4.0,-1.0
1701540219.4793103,-15.0,7.0,-37.0,19.0,1.0,-4.0,-11.0,-5.0
1701540219.4793103,1.0,-10.0,-7.0,-21.0,-2.0,0.0,-7.0,3.0
1701540219.4793103,-12.0,11.0,-37.0,0.0,1.0,-2.0,0.0,-17.0
1701540219.4793103,13.0,-3.0,34.0,-1.0,2.0,7.0,14.0,7.0
1701540219.4793103,0.0,-11.0,29.0,-2.0,1.0,6.0,7.0,1.0
1701540219.4793103,-13.0,2.0,-50.0,0.0,-8.0,-40.0,-23.0,-10.0
1701540219.4924896,63.0,-7.0,13.0,-5.0,-2.0,20.0,-4.0,15.0
1701540219.4924896,-9.0,19.0,48.0,19.0,2.0,10.0,24.0,23.0
1701540219.4924896,1.0,-5.0,2.0,-1.0,0.0,-2.0,8.0,-3.0
1701540219.4924896,-21.0,-64.0,-12.0,2.0,6.0,9.0,-11.0,-6.0
1701540219.4934895,-10.0,34.0,-63.0,-28.0,-9.0,-17.0,-5.0,-1.0
1701540219.4934895,-3.0,34.0,35.0,5.0,0.0,-10.0,-15.0,-9.0
1701540219.504584,22.0,-8.0,6.0,7.0,-1.0,5.0,3.0,3.0
1701540219.504584,16.0,15.0,15.0,18.0,1.0,3.0,14.0,4.0
1701540219.5173264,-7.0,-41.0,20.0,-11.0,0.0,-2.0,-5.0,-3.0
1701540219.5173264,10.0,-22.0,25.0,12.0,2.0,4.0,-1.0,-3.0
1701540219.519541,-25.0,26.0,-24.0,-1.0,-2.0,-5.0,-4.0,-3.0
1701540219.519541,2.0,-11.0,4.0,-4.0,-1.0,5.0,5.0,0.0
1701540219.5397298,-7.0,-4.0,-36.0,-39.0,-5.0,-1.0,8.0,3.0
1701540219.5397298,-16.0,30.0,78.0,55.0,-15.0,-10.0,-9.0,-7.0
1701540219.5413885,0.0,-12.0,1.0,-2.0,17.0,6.0,-4.0,0.0
1701540219.5413885,4.0,-7.0,41.0,23.0,19.0,10.0,7.0,3.0
1701540219.592214,-11.0,6.0,-57.0,-20.0,0.0,3.0,6.0,3.0
1701540219.592214,1.0,-18.0,-6.0,-34.0,-17.0,-10.0,-6.0,-6.0
1701540219.5932138,4.0,-2.0,-24.0,27.0,-9.0,-6.0,-3.0,-2.0
1701540219.5932138,8.0,5.0,24.0,-12.0,-8.0,0.0,1.0,1.0
1701540219.5932138,-14.0,-11.0,9.0,21.0,3.0,2.0,1.0,-3.0
1701540219.5932138,-1.0,6.0,-40.0,-16.0,-2.0,-7.0,-9.0,-11.0
1701540219.6002567,-4.0,-2.0,12.0,-12.0,-6.0,-2.0,-1.0,3.0
1701540219.6002567,11.0,6.0,-46.0,-16.0,2.0,3.0,5.0,4.0
1701540219.6002567,-8.0,-16.0,24.0,4.0,0.0,-2.0,2.0,2.0
1701540219.6002567,5.0,-4.0,-47.0,-13.0,-3.0,-4.0,-4.0,0.0
1701540219.6013098,-2.0,-5.0,11.0,8.0,2.0,0.0,0.0,-1.0
1701540219.6013098,16.0,11.0,12.0,14.0,-2.0,-1.0,-2.0,-1.0
1701540219.6377378,-5.0,1.0,-4.0,-14.0,-3.0,-2.0,-6.0,-3.0
1701540219.6377378,6.0,-22.0,-44.0,3.0,6.0,2.0,-1.0,1.0
1701540219.6377378,3.0,-82.0,-6.0,-27.0,-4.0,-3.0,0.0,3.0
1701540219.6377378,5.0,91.0,23.0,7.0,-1.0,0.0,0.0,-3.0
1701540219.6377378,4.0,-6.0,9.0,21.0,-1.0,-1.0,1.0,-5.0
1701540219.6377378,-1.0,-2.0,0.0,-3.0,8.0,3.0,-1.0,1.0
1701540219.6387367,-15.0,9.0,-28.0,-11.0,-6.0,-4.0,-3.0,-3.0
1701540219.6387367,5.0,-44.0,4.0,16.0,-3.0,-2.0,3.0,5.0
1701540219.658752,-17.0,-5.0,44.0,13.0,2.0,1.0,2.0,-1.0
1701540219.658752,12.0,3.0,-3.0,-8.0,3.0,-1.0,0.0,0.0
1701540219.6618361,-40.0,0.0,1.0,-1.0,-5.0,-2.0,-2.0,-5.0
1701540219.6618361,-14.0,-13.0,-7.0,-8.0,-1.0,0.0,-1.0,-1.0
1701540219.704963,-8.0,16.0,33.0,7.0,-2.0,-3.0,-3.0,-4.0
1701540219.704963,-7.0,-18.0,-13.0,3.0,0.0,-3.0,-1.0,-1.0
1701540219.704963,12.0,16.0,-29.0,-23.0,-12.0,-7.0,-1.0,-6.0
1701540219.704963,-17.0,-5.0,-1.0,-6.0,-14.0,-2.0,-1.0,-2.0
1701540219.704963,2.0,-29.0,-13.0,13.0,17.0,4.0,1.0,2.0
1701540219.704963,-5.0,-5.0,17.0,5.0,-1.0,-1.0,-6.0,-3.0
1701540219.7375247,9.0,17.0,19.0,13.0,0.0,1.0,0.0,-6.0
1701540219.7375247,-1.0,-2.0,8.0,-16.0,-10.0,-2.0,-2.0,-3.0
1701540219.7375247,1.0,9.0,-31.0,-31.0,-15.0,-7.0,-1.0,-2.0
1701540219.7375247,-1.0,-10.0,-32.0,17.0,17.0,5.0,2.0,-3.0
1701540219.7375247,6.0,9.0,-7.0,8.0,-6.0,-4.0,-2.0,1.0
1701540219.7375247,-7.0,-14.0,-1.0,3.0,7.0,-1.0,-1.0,0.0
1701540219.7395356,2.0,6.0,-51.0,4.0,-2.0,1.0,-1.0,0.0
1701540219.7395356,-6.0,-8.0,39.0,-44.0,-15.0,-7.0,-4.0,-2.0
1701540219.744192,3.0,8.0,-39.0,-11.0,3.0,4.0,-1.0,3.0
1701540219.744192,-3.0,-15.0,-1.0,6.0,8.0,1.0,0.0,-4.0
1701540219.7565534,2.0,9.0,0.0,3.0,-3.0,-3.0,-3.0,1.0
1701540219.7576685,3.0,-7.0,-4.0,-5.0,-4.0,-4.0,1.0,1.0
1701540219.781444,6.0,-3.0,1.0,3.0,0.0,1.0,-2.0,1.0
1701540219.781444,21.0,9.0,-11.0,5.0,3.0,1.0,1.0,0.0
1701540219.7824438,-49.0,7.0,14.0,10.0,2.0,3.0,-2.0,-1.0
1701540219.7824438,30.0,-8.0,-8.0,6.0,-1.0,1.0,0.0,10.0
1701540219.7824438,-15.0,14.0,11.0,-2.0,-2.0,-4.0,1.0,-5.0
1701540219.7824438,-6.0,-6.0,-17.0,-5.0,-2.0,-1.0,-4.0,-1.0
1701540219.7981846,-22.0,-57.0,-53.0,-14.0,-1.0,-1.0,1.0,-4.0
1701540219.7981846,33.0,86.0,44.0,22.0,2.0,-1.0,-1.0,6.0
1701540219.804381,6.0,-38.0,58.0,-23.0,5.0,3.0,2.0,3.0
1701540219.804381,6.0,34.0,-15.0,-11.0,-9.0,-5.0,-3.0,-6.0
1701540219.8154926,-53.0,-59.0,19.0,8.0,-1.0,-1.0,-1.0,-8.0
1701540219.8170273,-39.0,30.0,-27.0,3.0,-3.0,1.0,1.0,7.0
1701540219.854467,-3.0,-9.0,-6.0,9.0,1.0,-4.0,-2.0,3.0
1701540219.854467,52.0,-18.0,70.0,15.0,1.0,-6.0,-8.0,0.0
1701540219.854467,40.0,4.0,-37.0,-17.0,0.0,-1.0,0.0,6.0
1701540219.854467,-26.0,-12.0,-45.0,2.0,-2.0,1.0,5.0,-4.0
1701540219.854467,56.0,24.0,51.0,20.0,1.0,4.0,7.0,-3.0
1701540219.854467,-17.0,-30.0,-34.0,-5.0,5.0,4.0,4.0,3.0
1701540219.855556,9.0,22.0,46.0,9.0,-6.0,-8.0,-12.0,-1.0
1701540219.855556,5.0,-17.0,-48.0,-20.0,-1.0,1.0,-3.0,-5.0
1701540219.8646982,3.0,10.0,-3.0,5.0,-1.0,-3.0,-3.0,-2.0
1701540219.8646982,-24.0,-3.0,-1.0,-8.0,-6.0,1.0,3.0,-4.0
1701540219.8758552,28.0,30.0,-29.0,0.0,14.0,6.0,5.0,1.0
1701540219.8758552,-5.0,-2.0,42.0,17.0,8.0,0.0,-5.0,-7.0
1701540219.923918,-12.0,-19.0,-28.0,-16.0,-1.0,-1.0,-2.0,2.0
1701540219.923918,-12.0,-5.0,-71.0,-42.0,-19.0,-5.0,1.0,0.0
1701540219.923918,-10.0,23.0,88.0,34.0,-8.0,-7.0,-6.0,-5.0
1701540219.923918,2.0,-30.0,1.0,46.0,26.0,3.0,-1.0,-3.0
1701540219.923918,-9.0,10.0,-22.0,-3.0,3.0,-1.0,-2.0,-1.0
1701540219.923918,-10.0,-8.0,-21.0,-33.0,-2.0,3.0,2.0,4.0
1701540219.923918,14.0,35.0,65.0,11.0,-18.0,-8.0,-6.0,-7.0
1701540219.923918,-6.0,-11.0,-20.0,-33.0,-11.0,-4.0,1.0,-2.0
1701540219.9270494,-2.0,5.0,47.0,30.0,1.0,2.0,-3.0,1.0
1701540219.9270494,-6.0,2.0,-15.0,-22.0,3.0,1.0,0.0,-2.0
1701540219.9617176,5.0,-12.0,-40.0,-10.0,-1.0,-1.0,0.0,3.0
1701540219.9617176,-4.0,0.0,21.0,5.0,-5.0,-4.0,-3.0,-2.0
1701540219.9655604,-16.0,-3.0,-17.0,-10.0,2.0,0.0,-1.0,3.0
1701540219.9655604,-3.0,-5.0,-15.0,4.0,3.0,-2.0,-5.0,-2.0
1701540219.9655604,24.0,10.0,12.0,11.0,3.0,1.0,0.0,-4.0
1701540219.9665668,9.0,-15.0,6.0,-12.0,-10.0,-4.0,-6.0,4.0
1701540219.9665668,9.0,31.0,-13.0,-18.0,-8.0,-4.0,2.0,2.0
1701540219.9665668,-1.0,-41.0,-27.0,22.0,4.0,-1.0,0.0,-2.0
1701540219.9786603,6.0,52.0,14.0,-1.0,1.0,1.0,1.0,0.0
1701540219.9786603,-2.0,-22.0,-15.0,-16.0,-1.0,2.0,2.0,-4.0
1701540219.9932795,-8.0,4.0,18.0,-4.0,-3.0,-3.0,-6.0,-5.0
1701540219.9932795,-8.0,-4.0,33.0,28.0,1.0,-5.0,-3.0,-1.0
1701540220.012644,-5.0,-26.0,-48.0,-27.0,-4.0,-2.0,3.0,2.0
1701540220.012644,26.0,-2.0,-56.0,-15.0,-3.0,3.0,1.0,-2.0
1701540220.012644,-16.0,-4.0,20.0,13.0,4.0,-1.0,-6.0,-2.0
1701540220.012644,-1.0,29.0,17.0,10.0,0.0,0.0,-1.0,-2.0
1701540220.0146549,13.0,-14.0,9.0,-19.0,-3.0,0.0,-1.0,0.0
1701540220.0146549,-19.0,-2.0,28.0,2.0,-3.0,-2.0,0.0,-2.0
1701540220.021791,3.0,-20.0,-3.0,-2.0,-8.0,-5.0,-1.0,0.0
1701540220.021791,2.0,20.0,-17.0,-11.0,1.0,0.0,-4.0,-2.0
1701540220.0629976,18.0,7.0,13.0,11.0,-2.0,-3.0,-1.0,-1.0
1701540220.0629976,3.0,5.0,-4.0,-2.0,9.0,4.0,2.0,2.0
1701540220.0629976,0.0,-18.0,-6.0,3.0,-5.0,-2.0,1.0,1.0
1701540220.0629976,-12.0,-16.0,17.0,-1.0,-5.0,-3.0,-4.0,-2.0
1701540220.0629976,-8.0,-11.0,-22.0,-2.0,-6.0,-4.0,-2.0,1.0
1701540220.0629976,-11.0,-6.0,-32.0,-19.0,-10.0,-3.0,-3.0,-7.0
1701540220.0647597,-6.0,-1.0,11.0,-13.0,9.0,6.0,1.0,-2.0
1701540220.0647597,2.0,19.0,56.0,38.0,2.0,-5.0,-2.0,-2.0
1701540220.0779097,-12.0,0.0,-19.0,-3.0,-2.0,-1.0,-4.0,-1.0
1701540220.0779097,-7.0,7.0,10.0,-6.0,-5.0,-4.0,2.0,-2.0
1701540220.081979,-2.0,-8.0,-25.0,-8.0,2.0,1.0,-2.0,-1.0
1701540220.081979,-1.0,-1.0,1.0,1.0,-1.0,1.0,-2.0,-2.0
1701540220.117835,-10.0,-22.0,14.0,3.0,5.0,1.0,1.0,-1.0
1701540220.117835,-2.0,14.0,18.0,7.0,-1.0,-3.0,-2.0,0.0
1701540220.117835,-2.0,6.0,-21.0,-1.0,-2.0,0.0,0.0,-1.0
1701540220.117835,5.0,-5.0,-38.0,-15.0,-5.0,-2.0,2.0,-1.0
1701540220.117835,-6.0,1.0,-30.0,10.0,-7.0,-3.0,-2.0,-2.0
1701540220.117835,-3.0,-73.0,6.0,-16.0,5.0,3.0,0.0,0.0
1701540220.118868,3.0,54.0,40.0,26.0,5.0,-2.0,-1.0,0.0
1701540220.118868,-1.0,-9.0,-2.0,-13.0,-2.0,0.0,0.0,0.0
1701540220.13744,-4.0,0.0,8.0,3.0,1.0,1.0,1.0,1.0
1701540220.13744,1.0,-10.0,14.0,8.0,-9.0,-3.0,-2.0,0.0
1701540220.1418316,31.0,-10.0,-1.0,-6.0,-3.0,-3.0,-5.0,-3.0
1701540220.1418316,-10.0,8.0,15.0,9.0,1.0,-1.0,-1.0,3.0
1701540220.1708124,-1.0,-3.0,18.0,-23.0,-7.0,-2.0,-3.0,-3.0
1701540220.1708124,-4.0,17.0,10.0,16.0,5.0,-3.0,-5.0,-4.0
1701540220.1708124,2.0,-15.0,-5.0,-4.0,-1.0,-2.0,1.0,0.0
1701540220.1708124,0.0,6.0,-7.0,-4.0,-2.0,-3.0,0.0,-3.0
1701540220.1718435,-1.0,-11.0,3.0,-4.0,4.0,4.0,0.0,0.0
1701540220.1718435,22.0,15.0,11.0,-3.0,-2.0,-3.0,-1.0,0.0
1701540220.1819808,-12.0,-12.0,-15.0,-2.0,-7.0,-4.0,-1.0,-3.0
1701540220.1819808,10.0,5.0,-6.0,-16.0,-3.0,-1.0,-3.0,-4.0
1701540220.2006068,-3.0,1.0,13.0,12.0,4.0,0.0,-1.0,0.0
1701540220.2006068,-7.0,1.0,-12.0,-1.0,-7.0,-1.0,-2.0,-4.0
1701540220.2008715,-9.0,-12.0,9.0,4.0,-1.0,-1.0,3.0,1.0
1701540220.2008715,-4.0,-3.0,8.0,-2.0,2.0,3.0,2.0,-1.0
1701540220.2326663,2.0,-1.0,10.0,-11.0,-2.0,-4.0,-2.0,0.0
1701540220.2326663,-2.0,12.0,32.0,11.0,3.0,2.0,-1.0,0.0
1701540220.2326663,-6.0,-44.0,-26.0,-7.0,-1.0,-2.0,-2.0,-4.0
1701540220.2326663,6.0,39.0,6.0,9.0,-4.0,-1.0,-3.0,-4.0
1701540220.236564,4.0,2.0,-17.0,-6.0,3.0,2.0,2.0,5.0
1701540220.236564,-6.0,0.0,27.0,6.0,-7.0,-3.0,0.0,-2.0
1701540220.2375922,-14.0,-20.0,-2.0,-4.0,-2.0,-2.0,-2.0,-1.0
1701540220.2375922,2.0,9.0,-6.0,0.0,2.0,2.0,1.0,-1.0
1701540220.2600896,-5.0,-11.0,-1.0,4.0,2.0,1.0,0.0,0.0
1701540220.2600896,-9.0,14.0,-63.0,-21.0,-4.0,-3.0,-1.0,-2.0
1701540220.2620907,9.0,9.0,-1.0,-3.0,1.0,-2.0,-1.0,2.0
1701540220.2620907,1.0,-13.0,-2.0,2.0,0.0,-2.0,0.0,-1.0
1701540220.2880805,5.0,5.0,16.0,6.0,0.0,0.0,0.0,-1.0
1701540220.2880805,12.0,-5.0,-5.0,-4.0,0.0,0.0,0.0,0.0
1701540220.2880805,-2.0,8.0,-25.0,-10.0,-2.0,0.0,-1.0,-2.0
1701540220.2880805,-22.0,-55.0,-2.0,8.0,0.0,-2.0,0.0,0.0
1701540220.3003588,-2.0,15.0,33.0,13.0,-3.0,-2.0,-1.0,-1.0
1701540220.3003588,-8.0,31.0,-86.0,-4.0,-6.0,-4.0,-2.0,-5.0
1701540220.3075175,-26.0,8.0,2.0,-12.0,4.0,-1.0,-5.0,-13.0
1701540220.3075175,10.0,-23.0,19.0,3.0,-4.0,-2.0,-2.0,9.0
1701540220.3640144,3.0,-16.0,-20.0,0.0,7.0,2.0,1.0,-2.0
1701540220.3640144,-12.0,-8.0,20.0,0.0,-1.0,-2.0,-2.0,0.0
1701540220.3640144,0.0,14.0,-2.0,8.0,-6.0,-1.0,-1.0,0.0
1701540220.3640144,-5.0,12.0,0.0,-4.0,-3.0,-4.0,0.0,-3.0
1701540220.3709028,-7.0,-5.0,-42.0,-18.0,-2.0,-1.0,-3.0,-5.0
1701540220.3709028,5.0,1.0,32.0,32.0,0.0,0.0,1.0,1.0
1701540220.3709028,-8.0,-13.0,-6.0,-26.0,-2.0,0.0,0.0,0.0
1701540220.3709028,9.0,-1.0,-8.0,-23.0,-2.0,-2.0,-3.0,-1.0
1701540220.3709028,0.0,4.0,-7.0,-10.0,1.0,1.0,1.0,0.0
1701540220.3709028,-7.0,-7.0,82.0,77.0,12.0,3.0,0.0,-2.0
1701540220.3709028,8.0,2.0,-24.0,-23.0,-14.0,-2.0,0.0,2.0
1701540220.3709028,8.0,0.0,5.0,-8.0,-1.0,1.0,-3.0,-3.0
1701540220.3972542,-2.0,-4.0,-3.0,3.0,1.0,-1.0,-1.0,-1.0
1701540220.3972542,20.0,6.0,-48.0,-37.0,1.0,0.0,0.0,-1.0
1701540220.3982546,9.0,0.0,41.0,32.0,7.0,0.0,1.0,9.0
1701540220.3982546,9.0,3.0,0.0,2.0,0.0,-1.0,-1.0,1.0
1701540220.4019063,-18.0,-9.0,-6.0,-2.0,-5.0,-2.0,-4.0,-6.0
1701540220.4019063,5.0,1.0,3.0,-11.0,-1.0,-2.0,-3.0,1.0
1701540220.4069724,22.0,2.0,3.0,-30.0,-11.0,-5.0,-2.0,-1.0
1701540220.4069724,-6.0,-34.0,-7.0,7.0,5.0,-1.0,-1.0,-4.0
1701540220.418638,3.0,24.0,-15.0,8.0,-4.0,2.0,0.0,0.0
1701540220.418638,-16.0,0.0,37.0,15.0,3.0,-2.0,1.0,-1.0
1701540220.4276266,-8.0,-2.0,16.0,17.0,3.0,2.0,0.0,-2.0
1701540220.4276266,-19.0,-9.0,37.0,8.0,-3.0,-1.0,-1.0,-3.0
1701540220.4843616,1.0,-8.0,3.0,-12.0,-7.0,-4.0,-1.0,-5.0
1701540220.4843616,-7.0,0.0,-19.0,-16.0,2.0,3.0,-2.0,-1.0
1701540220.4843616,-3.0,-3.0,-4.0,6.0,0.0,-3.0,-2.0,-1.0
1701540220.4843616,-1.0,3.0,12.0,4.0,0.0,-1.0,0.0,0.0
1701540220.4843616,-30.0,-6.0,4.0,4.0,-4.0,-2.0,-4.0,-1.0
1701540220.4843616,-27.0,-9.0,-22.0,-23.0,-7.0,-3.0,-2.0,-5.0
1701540220.4843616,-6.0,7.0,3.0,1.0,2.0,-1.0,0.0,-5.0
1701540220.4843616,-10.0,6.0,-23.0,1.0,-1.0,0.0,-3.0,-2.0
1701540220.4853628,3.0,1.0,0.0,14.0,6.0,1.0,0.0,0.0
1701540220.4853628,4.0,-10.0,-5.0,-35.0,-6.0,-1.0,-1.0,0.0
1701540220.4862158,-3.0,-2.0,27.0,21.0,4.0,-2.0,0.0,-3.0
1701540220.4862158,-3.0,1.0,-12.0,3.0,-1.0,3.0,2.0,0.0
1701540220.541463,5.0,1.0,-30.0,-15.0,1.0,-3.0,-2.0,0.0
1701540220.541463,-1.0,3.0,19.0,-13.0,-16.0,-2.0,-1.0,0.0
1701540220.541463,-2.0,-44.0,-17.0,57.0,32.0,7.0,-1.0,-2.0
1701540220.541463,-2.0,-6.0,-7.0,-19.0,-8.0,-8.0,-5.0,-7.0
1701540220.542512,6.0,63.0,14.0,-1.0,-3.0,-3.0,-4.0,-3.0
1701540220.542512,-1.0,-2.0,-8.0,1.0,-7.0,-4.0,0.0,-2.0
1701540220.542512,-4.0,1.0,12.0,-39.0,-19.0,-6.0,0.0,0.0
1701540220.542512,-1.0,-37.0,3.0,-11.0,4.0,4.0,3.0,-3.0
1701540220.5599906,1.0,-28.0,-10.0,12.0,7.0,3.0,-3.0,-1.0
1701540220.5599906,1.0,5.0,7.0,6.0,-6.0,-4.0,-5.0,1.0
1701540220.5599906,2.0,4.0,8.0,9.0,-1.0,1.0,4.0,-2.0
1701540220.5599906,-4.0,11.0,7.0,8.0,4.0,1.0,-1.0,-1.0
1701540220.5609906,-8.0,-8.0,-5.0,-17.0,-5.0,-4.0,-1.0,-3.0
1701540220.5609906,-70.0,-12.0,-2.0,2.0,5.0,-4.0,-11.0,-10.0
1701540220.563006,-26.0,-2.0,-9.0,-12.0,-12.0,-35.0,-18.0,-9.0
1701540220.563006,50.0,2.0,-16.0,4.0,8.0,50.0,52.0,16.0
1701540220.5830889,-4.0,-2.0,7.0,3.0,1.0,6.0,8.0,-10.0
1701540220.5830889,26.0,-116.0,-27.0,10.0,5.0,5.0,9.0,6.0
1701540220.5840979,-5.0,106.0,38.0,-5.0,-8.0,-6.0,-10.0,-8.0
1701540220.5840979,1.0,-18.0,-63.0,-17.0,-3.0,-19.0,-23.0,4.0
1701540220.6508608,41.0,-46.0,20.0,-1.0,-2.0,1.0,7.0,6.0
1701540220.6508608,33.0,-46.0,42.0,11.0,7.0,3.0,4.0,5.0
1701540220.6508608,34.0,63.0,-55.0,22.0,-1.0,8.0,0.0,-2.0
1701540220.6508608,-36.0,-5.0,94.0,-51.0,-6.0,-13.0,-18.0,2.0
1701540220.6508608,-21.0,2.0,-57.0,0.0,-9.0,-4.0,-8.0,0.0
1701540220.6508608,2.0,3.0,8.0,-2.0,6.0,-3.0,-1.0,-8.0
1701540220.6508608,24.0,-34.0,-20.0,9.0,2.0,12.0,10.0,7.0
1701540220.6508608,-6.0,37.0,1.0,74.0,7.0,0.0,2.0,-5.0
1701540220.651859,-6.0,-24.0,0.0,-57.0,-11.0,-10.0,-6.0,-4.0
1701540220.651859,-6.0,35.0,34.0,-8.0,0.0,1.0,2.0,4.0
1701540220.651859,-13.0,-20.0,26.0,-6.0,-7.0,1.0,-2.0,-3.0
1701540220.651859,-3.0,17.0,-14.0,4.0,1.0,-3.0,-4.0,-6.0
1701540220.7089076,-8.0,-8.0,19.0,7.0,-4.0,-9.0,-4.0,3.0
1701540220.7089076,18.0,22.0,-29.0,-3.0,7.0,5.0,2.0,4.0
1701540220.7099073,-5.0,-29.0,-36.0,-41.0,13.0,11.0,5.0,6.0
1701540220.7099073,-17.0,-18.0,-31.0,8.0,-14.0,-13.0,-9.0,-9.0
1701540220.7167568,10.0,3.0,81.0,99.0,38.0,11.0,1.0,2.0
1701540220.7167568,-2.0,23.0,9.0,-6.0,-7.0,-3.0,0.0,-1.0
1701540220.7167568,-6.0,-31.0,-41.0,-20.0,1.0,1.0,-3.0,-4.0
1701540220.7167568,-2.0,0.0,-7.0,-14.0,-16.0,-4.0,-2.0,-1.0
1701540220.7167568,22.0,10.0,-70.0,-27.0,-12.0,-2.0,0.0,0.0
1701540220.7167568,-27.0,25.0,20.0,-10.0,-4.0,-7.0,-4.0,-9.0
1701540220.7167568,78.0,-3.0,23.0,10.0,1.0,4.0,6.0,6.0
1701540220.7167568,11.0,-7.0,4.0,5.0,2.0,-3.0,-2.0,2.0
1701540220.758664,-8.0,9.0,27.0,-6.0,-3.0,5.0,2.0,-2.0
1701540220.758664,25.0,-22.0,-32.0,-9.0,-1.0,-7.0,-13.0,1.0
1701540220.758664,-20.0,27.0,52.0,3.0,-10.0,6.0,8.0,0.0
1701540220.758664,-4.0,-9.0,13.0,7.0,8.0,1.0,9.0,4.0
1701540220.758664,-16.0,8.0,-11.0,-9.0,-2.0,-3.0,1.0,-5.0
1701540220.758664,-24.0,-39.0,-45.0,-12.0,-6.0,-10.0,-10.0,-4.0
1701540220.758664,16.0,21.0,28.0,-3.0,-6.0,-9.0,-9.0,-3.0
1701540220.758664,-14.0,68.0,4.0,10.0,0.0,11.0,11.0,-6.0
1701540220.75976,-35.0,3.0,94.0,16.0,1.0,0.0,1.0,0.0
1701540220.75976,8.0,-25.0,-26.0,-10.0,-7.0,1.0,0.0,2.0
1701540220.773723,-17.0,-21.0,15.0,0.0,-1.0,-15.0,-10.0,-1.0
1701540220.773723,-9.0,-40.0,-8.0,-14.0,8.0,0.0,-5.0,-5.0
1701540220.7815902,16.0,-4.0,0.0,-14.0,-8.0,2.0,0.0,4.0
1701540220.7815902,-9.0,42.0,-22.0,10.0,-3.0,-2.0,1.0,-1.0
1701540220.7872324,-12.0,-34.0,1.0,73.0,11.0,6.0,4.0,-1.0
1701540220.7872324,11.0,2.0,18.0,-96.0,-20.0,-8.0,-11.0,1.0
1701540220.798742,-6.0,-6.0,-8.0,35.0,4.0,-1.0,-1.0,-2.0
1701540220.798742,8.0,6.0,-28.0,-40.0,-6.0,1.0,-1.0,-2.0
1701540220.8014157,-24.0,-6.0,-1.0,-10.0,-2.0,3.0,2.0,4.0
1701540220.8014157,0.0,-15.0,-33.0,23.0,6.0,-2.0,-4.0,-1.0
1701540220.824043,1.0,5.0,-54.0,-9.0,-2.0,-9.0,-8.0,-5.0
1701540220.824043,-2.0,12.0,4.0,-74.0,4.0,5.0,4.0,2.0
1701540220.8483522,-3.0,-35.0,-23.0,25.0,-3.0,1.0,-4.0,-12.0
1701540220.8493576,23.0,-32.0,34.0,0.0,1.0,-3.0,4.0,17.0
1701540220.869589,-5.0,75.0,12.0,-1.0,-7.0,-4.0,1.0,-27.0
1701540220.869589,-18.0,4.0,-41.0,-4.0,-5.0,-4.0,-15.0,-16.0
1701540220.869589,-23.0,16.0,-5.0,2.0,14.0,3.0,9.0,-33.0
1701540220.869589,40.0,-21.0,20.0,-2.0,-5.0,6.0,4.0,22.0
1701540220.869589,66.0,-36.0,-35.0,8.0,-3.0,-1.0,-4.0,21.0
1701540220.869589,15.0,9.0,55.0,36.0,0.0,-3.0,-2.0,10.0
1701540220.869589,3.0,16.0,-6.0,-7.0,-8.0,-9.0,-15.0,-4.0
1701540220.869589,-21.0,9.0,-8.0,-12.0,-1.0,-13.0,-11.0,-17.0
1701540220.8807633,-21.0,-21.0,-1.0,-8.0,-3.0,12.0,17.0,5.0
1701540220.8807633,-2.0,3.0,67.0,21.0,-1.0,2.0,6.0,-5.0
1701540220.9075508,5.0,-25.0,-54.0,-23.0,-2.0,0.0,1.0,16.0
1701540220.90778,-13.0,6.0,-6.0,25.0,-2.0,-5.0,-6.0,-8.0
1701540220.9322114,-8.0,-18.0,-18.0,-33.0,0.0,-1.0,-7.0,5.0
1701540220.9322114,-2.0,16.0,40.0,27.0,4.0,-1.0,0.0,-3.0
1701540220.9322114,-16.0,-16.0,-24.0,-10.0,-5.0,-2.0,-2.0,3.0
1701540220.9322114,-7.0,-1.0,-59.0,-7.0,-1.0,2.0,-2.0,-9.0
1701540220.9322114,-4.0,-63.0,92.0,3.0,-7.0,-6.0,-5.0,-4.0
1701540220.9322114,5.0,91.0,-104.0,29.0,-1.0,2.0,2.0,-2.0
1701540220.9322114,-6.0,-8.0,24.0,12.0,8.0,4.0,3.0,6.0
1701540220.9322114,-8.0,7.0,-40.0,-52.0,-4.0,-2.0,-4.0,-4.0
1701540220.9591417,6.0,-58.0,-13.0,3.0,-2.0,-3.0,2.0,4.0
1701540220.9591417,-5.0,3.0,-18.0,-9.0,-10.0,-1.0,-2.0,-3.0
1701540220.9591417,0.0,-4.0,65.0,3.0,2.0,3.0,-2.0,6.0
1701540220.9591417,-4.0,2.0,-40.0,-9.0,-2.0,-3.0,1.0,-3.0
1701540220.9601738,-14.0,14.0,20.0,23.0,6.0,-2.0,-3.0,-4.0
1701540220.9601738,1.0,-24.0,19.0,1.0,-5.0,-3.0,0.0,0.0
1701540220.967391,1.0,7.0,-11.0,-9.0,-3.0,-1.0,-3.0,1.0
1701540220.967391,-4.0,-9.0,17.0,43.0,6.0,0.0,-5.0,-6.0
1701540220.9788988,2.0,10.0,15.0,-65.0,-5.0,-1.0,0.0,-1.0
1701540220.9788988,-3.0,-5.0,49.0,15.0,3.0,1.0,2.0,2.0
1701540220.9889061,-1.0,-13.0,13.0,-19.0,-4.0,0.0,-1.0,1.0
1701540220.9889061,12.0,8.0,0.0,29.0,-2.0,0.0,1.0,-1.0
1701540221.0350547,-10.0,9.0,-11.0,2.0,0.0,-1.0,-4.0,2.0
1701540221.0350547,-4.0,-20.0,19.0,2.0,5.0,1.0,4.0,2.0
1701540221.0350547,-15.0,4.0,-8.0,-1.0,-5.0,-3.0,-5.0,-3.0
1701540221.0350547,5.0,-5.0,15.0,3.0,-1.0,1.0,-1.0,-3.0
1701540221.0350547,0.0,21.0,-15.0,20.0,3.0,0.0,-3.0,1.0
1701540221.0350547,4.0,-33.0,-4.0,-18.0,0.0,-1.0,1.0,1.0
1701540221.0350547,-3.0,6.0,-37.0,-5.0,-2.0,-2.0,1.0,2.0
1701540221.0350547,4.0,3.0,-1.0,0.0,-1.0,1.0,-1.0,-2.0
1701540221.0388517,10.0,10.0,-23.0,-11.0,0.0,-3.0,-1.0,-4.0
1701540221.0388517,-22.0,-5.0,28.0,11.0,-4.0,0.0,3.0,-9.0
1701540221.0481033,18.0,-1.0,-41.0,-19.0,-7.0,-5.0,-3.0,5.0
1701540221.0481033,-1.0,4.0,29.0,10.0,0.0,0.0,2.0,1.0
1701540221.097985,27.0,-7.0,-21.0,7.0,3.0,-1.0,-1.0,-1.0
1701540221.097985,-7.0,-5.0,-10.0,-2.0,0.0,-1.0,1.0,7.0
1701540221.097985,-17.0,-2.0,27.0,2.0,1.0,0.0,-4.0,-5.0
1701540221.097985,-12.0,-9.0,-29.0,-9.0,0.0,-1.0,0.0,-2.0
1701540221.097985,-7.0,16.0,13.0,6.0,-11.0,-4.0,-1.0,-3.0
1701540221.097985,-2.0,-10.0,-9.0,2.0,13.0,2.0,-4.0,-4.0
1701540221.097985,-1.0,-12.0,27.0,32.0,1.0,0.0,4.0,2.0
1701540221.097985,2.0,-12.0,9.0,-49.0,-17.0,-4.0,1.0,3.0
1701540221.098986,-16.0,15.0,-90.0,-17.0,0.0,-5.0,-3.0,-4.0
1701540221.098986,6.0,-4.0,25.0,18.0,7.0,-1.0,0.0,0.0
1701540221.108895,-2.0,1.0,2.0,0.0,-5.0,-1.0,-1.0,0.0
1701540221.108895,-6.0,-6.0,6.0,58.0,3.0,0.0,-2.0,-3.0
1701540221.1549978,-10.0,-6.0,-29.0,-49.0,-13.0,0.0,1.0,-4.0
1701540221.1549978,27.0,4.0,-21.0,-20.0,-6.0,-1.0,-2.0,1.0
1701540221.1549978,7.0,9.0,15.0,-3.0,3.0,-3.0,1.0,-1.0
1701540221.1549978,-13.0,8.0,28.0,21.0,5.0,0.0,2.0,1.0
1701540221.1549978,-5.0,-18.0,8.0,-23.0,2.0,0.0,-5.0,-1.0
1701540221.1549978,2.0,5.0,-8.0,10.0,-3.0,-4.0,-1.0,2.0
1701540221.1559963,5.0,-3.0,-17.0,-22.0,-2.0,2.0,-1.0,0.0
1701540221.1559963,-1.0,-2.0,20.0,12.0,2.0,-1.0,-2.0,0.0
1701540221.161412,-6.0,4.0,-20.0,10.0,5.0,3.0,2.0,1.0
1701540221.161412,23.0,1.0,41.0,27.0,0.0,2.0,0.0,-2.0
1701540221.1905415,6.0,-3.0,-9.0,-39.0,-5.0,-1.0,1.0,3.0
1701540221.1905415,-4.0,-2.0,-20.0,-14.0,-5.0,-3.0,-4.0,-1.0
1701540221.1905415,-2.0,-83.0,58.0,32.0,2.0,0.0,1.0,3.0
1701540221.1905415,-11.0,86.0,-52.0,-16.0,-4.0,-2.0,-3.0,-6.0
1701540221.1905415,-9.0,15.0,-5.0,1.0,1.0,-1.0,0.0,-3.0
1701540221.1915405,7.0,1.0,55.0,18.0,9.0,2.0,0.0,-3.0
1701540221.2018914,-20.0,-36.0,-28.0,4.0,0.0,0.0,3.0,0.0
1701540221.2018914,-10.0,33.0,28.0,-19.0,-11.0,-2.0,-2.0,-3.0
1701540221.2067487,-4.0,7.0,1.0,-35.0,0.0,-1.0,-1.0,-1.0
1701540221.2067487,4.0,-3.0,2.0,2.0,-1.0,-3.0,-2.0,0.0
1701540221.2393281,2.0,16.0,8.0,23.0,4.0,-2.0,-5.0,-2.0
1701540221.2393281,12.0,-48.0,-13.0,2.0,-2.0,-1.0,3.0,4.0
1701540221.2393281,9.0,-7.0,-13.0,6.0,-1.0,2.0,-8.0,0.0
1701540221.2393281,-9.0,-7.0,-28.0,-13.0,-8.0,-3.0,4.0,-2.0
1701540221.241339,1.0,10.0,19.0,-3.0,2.0,1.0,0.0,-2.0
1701540221.241339,-30.0,-18.0,-3.0,3.0,0.0,-3.0,-1.0,-5.0
1701540221.2442017,7.0,-3.0,12.0,2.0,-4.0,-3.0,-2.0,-1.0
1701540221.2442017,3.0,0.0,-17.0,-5.0,-1.0,-1.0,-4.0,-1.0
1701540221.2586515,16.0,26.0,10.0,17.0,-4.0,-4.0,-2.0,1.0
1701540221.2586515,0.0,-15.0,-1.0,-14.0,-3.0,2.0,0.0,1.0
1701540221.266721,-6.0,-3.0,22.0,11.0,-9.0,1.0,2.0,-3.0
1701540221.266721,-10.0,-7.0,-40.0,-16.0,19.0,5.0,-3.0,0.0
1701540221.3118527,-27.0,9.0,-8.0,11.0,-7.0,-5.0,-3.0,-9.0
1701540221.3118527,4.0,-5.0,24.0,3.0,2.0,-1.0,-2.0,2.0
1701540221.3118527,2.0,-15.0,-5.0,18.0,-8.0,-4.0,1.0,-2.0
1701540221.3128521,-6.0,8.0,13.0,-13.0,-7.0,1.0,0.0,-2.0
1701540221.3128521,-1.0,14.0,-56.0,-44.0,-5.0,-3.0,-2.0,-4.0
1701540221.3128521,4.0,-51.0,-5.0,6.0,-3.0,-4.0,-1.0,-2.0
1701540221.3128521,9.0,53.0,11.0,15.0,2.0,0.0,-1.0,4.0
1701540221.3128521,-20.0,-10.0,5.0,7.0,1.0,-1.0,-2.0,-2.0
1701540221.324664,2.0,7.0,11.0,5.0,5.0,1.0,0.0,-1.0
1701540221.324664,-1.0,-16.0,-19.0,-7.0,1.0,0.0,1.0,1.0
1701540221.3263266,-11.0,-16.0,-9.0,-11.0,2.0,-1.0,2.0,-3.0
1701540221.3263266,33.0,3.0,7.0,9.0,-2.0,-3.0,-2.0,-2.0
1701540221.3821404,-1.0,7.0,32.0,12.0,0.0,0.0,0.0,3.0
1701540221.3821404,-61.0,0.0,6.0,-3.0,0.0,-2.0,-2.0,-6.0
1701540221.3821404,-2.0,-15.0,13.0,-10.0,-1.0,-2.0,-2.0,-6.0
1701540221.3821404,16.0,8.0,-53.0,19.0,2.0,1.0,2.0,1.0
1701540221.3821404,-2.0,-7.0,-19.0,-45.0,-11.0,-3.0,-3.0,-3.0
1701540221.3821404,9.0,-6.0,39.0,3.0,-4.0,-2.0,-3.0,0.0
1701540221.3857517,-2.0,-2.0,-3.0,10.0,4.0,1.0,0.0,1.0
1701540221.3857517,-13.0,-11.0,22.0,4.0,1.0,3.0,0.0,-2.0
1701540221.407114,6.0,1.0,5.0,-1.0,5.0,2.0,2.0,2.0
1701540221.407114,1.0,20.0,-9.0,-22.0,-6.0,-3.0,-3.0,-2.0
1701540221.407114,-8.0,-27.0,2.0,-1.0,-5.0,-4.0,1.0,-1.0
1701540221.407114,-4.0,-2.0,-43.0,1.0,0.0,0.0,2.0,-2.0
1701540221.407114,-62.0,3.0,-7.0,-5.0,2.0,-1.0,-4.0,-8.0
1701540221.4081166,-12.0,-44.0,21.0,11.0,4.0,3.0,2.0,-1.0
1701540221.4089017,8.0,25.0,-39.0,8.0,-1.0,-3.0,-2.0,4.0
1701540221.4089017,-25.0,55.0,59.0,-26.0,-12.0,-5.0,-3.0,1.0
1701540221.4219906,19.0,-3.0,-10.0,-4.0,-2.0,0.0,3.0,-2.0
1701540221.4219906,10.0,-12.0,0.0,11.0,1.0,2.0,0.0,4.0
1701540221.4307225,-2.0,-8.0,-7.0,-24.0,-4.0,-1.0,0.0,3.0
1701540221.4307225,-21.0,-22.0,2.0,20.0,3.0,3.0,5.0,-3.0
1701540221.4613829,14.0,-13.0,37.0,11.0,-1.0,-2.0,-4.0,-9.0
1701540221.4613829,10.0,29.0,-7.0,-7.0,1.0,-2.0,0.0,15.0
1701540221.4613829,28.0,-1.0,17.0,11.0,3.0,4.0,-1.0,-4.0
1701540221.4613829,-12.0,8.0,-29.0,-14.0,-4.0,-6.0,-5.0,-2.0
1701540221.4634035,2.0,-59.0,49.0,19.0,2.0,0.0,1.0,1.0
1701540221.4634035,3.0,49.0,-39.0,-20.0,-5.0,-3.0,-3.0,-8.0
1701540221.469249,-15.0,-19.0,39.0,16.0,1.0,0.0,2.0,-1.0
1701540221.469249,6.0,8.0,15.0,-4.0,-1.0,-2.0,-3.0,-4.0
1701540221.4804807,6.0,-12.0,-16.0,14.0,8.0,4.0,2.0,5.0
1701540221.4804807,1.0,-3.0,3.0,9.0,3.0,0.0,0.0,-5.0
1701540221.4847243,-11.0,-6.0,-33.0,-5.0,-4.0,-4.0,-2.0,-3.0
1701540221.4847243,11.0,-21.0,4.0,-19.0,-9.0,-1.0,0.0,3.0
1701540221.5449886,3.0,27.0,11.0,-7.0,-8.0,-6.0,-3.0,2.0
1701540221.545987,4.0,11.0,-56.0,-6.0,1.0,-1.0,-4.0,-7.0
1701540221.545987,-2.0,18.0,-2.0,26.0,24.0,7.0,-1.0,-3.0
1701540221.545987,1.0,-7.0,-16.0,-29.0,-8.0,-10.0,1.0,-1.0
1701540221.548886,1.0,-1.0,19.0,41.0,11.0,5.0,-2.0,-1.0
1701540221.548886,10.0,-3.0,-7.0,-11.0,-3.0,-2.0,-2.0,1.0
1701540221.5544121,-8.0,-5.0,30.0,-26.0,-13.0,-2.0,-3.0,-5.0
1701540221.5554104,-3.0,-8.0,-19.0,14.0,-2.0,-6.0,-8.0,-5.0
1701540221.5554104,1.0,7.0,-28.0,-5.0,-6.0,2.0,1.0,5.0
1701540221.5554104,8.0,-53.0,44.0,32.0,14.0,-2.0,4.0,0.0
1701540221.5554104,-5.0,52.0,10.0,-23.0,-9.0,-5.0,-2.0,-1.0
1701540221.5554104,3.0,-4.0,45.0,22.0,0.0,0.0,-3.0,-5.0
1701540221.5966184,2.0,26.0,-48.0,-22.0,-6.0,-4.0,-5.0,-4.0
1701540221.5966184,3.0,19.0,0.0,-2.0,-4.0,0.0,6.0,7.0
1701540221.5966184,-7.0,-22.0,-14.0,-6.0,1.0,2.0,-1.0,0.0
1701540221.5966184,-23.0,-9.0,-21.0,-6.0,2.0,1.0,-4.0,-5.0
1701540221.5966184,16.0,-6.0,1.0,-5.0,1.0,0.0,2.0,1.0
1701540221.5966184,-23.0,-46.0,-27.0,-4.0,1.0,-1.0,-7.0,-18.0
1701540221.5966184,15.0,7.0,34.0,3.0,-7.0,-6.0,8.0,27.0
1701540221.5966184,5.0,-7.0,-6.0,0.0,2.0,1.0,2.0,4.0
1701540221.5987058,21.0,10.0,-3.0,3.0,2.0,-32.0,-43.0,-17.0
1701540221.5987058,31.0,9.0,3.0,-6.0,-5.0,34.0,29.0,4.0
1701540221.6348288,7.0,-71.0,-16.0,10.0,8.0,18.0,35.0,-12.0
1701540221.6348288,-28.0,57.0,17.0,9.0,-1.0,5.0,-8.0,-19.0
1701540221.6348288,-15.0,2.0,-21.0,-22.0,-12.0,-13.0,-7.0,10.0
1701540221.6348288,47.0,20.0,38.0,7.0,0.0,-16.0,-20.0,7.0
1701540221.6348288,-14.0,-9.0,7.0,18.0,4.0,-2.0,-8.0,-8.0
1701540221.6348288,31.0,-33.0,-25.0,-5.0,2.0,6.0,15.0,17.0
1701540221.6461256,-38.0,12.0,17.0,-12.0,-7.0,5.0,2.0,-16.0
1701540221.6461256,-25.0,10.0,-8.0,-11.0,-9.0,-7.0,-11.0,-5.0
1701540221.6496248,16.0,-8.0,30.0,10.0,2.0,3.0,2.0,7.0
1701540221.6496248,-9.0,5.0,-27.0,8.0,0.0,-5.0,-10.0,-6.0
1701540221.6625252,-1.0,-34.0,32.0,-18.0,-14.0,-4.0,2.0,-2.0
1701540221.6625252,-4.0,32.0,-36.0,10.0,19.0,8.0,5.0,4.0
1701540221.711232,2.0,-7.0,-1.0,41.0,25.0,2.0,-2.0,2.0
1701540221.711232,1.0,-5.0,-81.0,-55.0,-18.0,-11.0,-10.0,-8.0
1701540221.714585,-2.0,8.0,71.0,63.0,-21.0,2.0,5.0,1.0
1701540221.714585,6.0,0.0,-39.0,21.0,31.0,7.0,10.0,8.0
1701540221.714585,-17.0,-8.0,-54.0,-28.0,-7.0,-13.0,-17.0,-15.0
1701540221.714585,3.0,4.0,9.0,26.0,13.0,-1.0,0.0,3.0
1701540221.714585,16.0,-11.0,-60.0,-45.0,9.0,12.0,14.0,11.0
1701540221.714585,-21.0,0.0,39.0,32.0,-20.0,-14.0,-11.0,-10.0
1701540221.714585,-1.0,23.0,-11.0,-22.0,-8.0,-5.0,-13.0,-9.0
1701540221.714585,8.0,-24.0,25.0,-10.0,-2.0,0.0,4.0,7.0
1701540221.7164335,1.0,8.0,-25.0,-18.0,2.0,3.0,7.0,5.0
1701540221.7164335,-10.0,10.0,22.0,3.0,-5.0,-4.0,-6.0,-7.0
1701540221.769279,-3.0,-1.0,-34.0,-24.0,-4.0,-1.0,-2.0,0.0
1701540221.769279,6.0,-4.0,23.0,5.0,-10.0,-7.0,-4.0,3.0
1701540221.769279,-44.0,-1.0,25.0,16.0,10.0,9.0,6.0,-11.0
1701540221.769279,-2.0,-22.0,-40.0,-22.0,-5.0,-4.0,-3.0,1.0
1701540221.769279,-4.0,7.0,25.0,1.0,-10.0,-3.0,4.0,1.0
1701540221.769279,6.0,-6.0,17.0,4.0,6.0,1.0,-1.0,4.0
1701540221.769279,-34.0,12.0,-27.0,-6.0,4.0,-3.0,-2.0,-11.0
1701540221.769279,52.0,-18.0,-7.0,-7.0,-7.0,-2.0,0.0,12.0
1701540221.7816942,-6.0,1.0,-11.0,-5.0,-4.0,-4.0,-5.0,-1.0
1701540221.7816942,3.0,-21.0,2.0,10.0,4.0,5.0,4.0,-5.0
1701540221.7908092,5.0,52.0,-4.0,1.0,5.0,0.0,3.0,5.0
1701540221.7908092,-23.0,-13.0,-9.0,-24.0,-10.0,-1.0,-2.0,-8.0
1701540221.7908092,0.0,-1.0,8.0,-4.0,-4.0,-4.0,-7.0,-2.0
1701540221.7908092,3.0,2.0,-2.0,-1.0,1.0,1.0,1.0,2.0
1701540221.8048065,35.0,-13.0,14.0,25.0,-4.0,-4.0,-1.0,1.0
1701540221.8048065,-16.0,-3.0,24.0,-40.0,1.0,1.0,0.0,-4.0
1701540221.807035,7.0,7.0,-79.0,-5.0,-3.0,-1.0,-3.0,0.0
1701540221.8074849,-8.0,-8.0,8.0,4.0,2.0,-3.0,0.0,0.0
1701540221.8186269,13.0,-1.0,-11.0,2.0,6.0,5.0,1.0,2.0
1701540221.8186269,-12.0,-5.0,-18.0,28.0,12.0,2.0,2.0,-1.0
1701540221.8391886,-7.0,-13.0,61.0,-2.0,-12.0,-4.0,-2.0,-3.0
1701540221.8394372,7.0,-1.0,-36.0,-27.0,-10.0,-4.0,-1.0,1.0
1701540221.8686104,8.0,-8.0,27.0,1.0,-7.0,-3.0,-2.0,4.0
1701540221.8686104,0.0,9.0,32.0,9.0,-4.0,-1.0,1.0,3.0
1701540221.8686104,-3.0,-4.0,-28.0,-14.0,1.0,1.0,0.0,-1.0
1701540221.8686104,-10.0,7.0,17.0,9.0,0.0,0.0,-3.0,-3.0
1701540221.8696978,4.0,5.0,4.0,6.0,4.0,2.0,6.0,4.0
1701540221.8696978,-10.0,-2.0,10.0,-3.0,-5.0,-1.0,-4.0,-2.0
1701540221.874379,9.0,-2.0,-1.0,16.0,3.0,0.0,-2.0,0.0
1701540221.874379,12.0,6.0,41.0,10.0,2.0,1.0,0.0,-1.0
1701540221.8856041,-24.0,-21.0,-39.0,9.0,4.0,-1.0,-4.0,-5.0
1701540221.888981,-20.0,3.0,-20.0,-34.0,-8.0,-3.0,-2.0,-1.0
1701540221.912005,-20.0,-8.0,-50.0,-30.0,-6.0,-5.0,1.0,1.0
1701540221.913,-7.0,-5.0,-73.0,-12.0,0.0,0.0,-2.0,-5.0
1701540221.9363353,-1.0,-3.0,71.0,36.0,1.0,0.0,0.0,-1.0
1701540221.9363353,7.0,-10.0,-89.0,-9.0,-6.0,-4.0,-3.0,7.0
1701540221.9406917,24.0,10.0,55.0,11.0,0.0,3.0,0.0,-13.0
1701540221.9406917,-23.0,-4.0,36.0,-16.0,0.0,0.0,0.0,-7.0
1701540221.9406917,-2.0,-26.0,-91.0,-34.0,-5.0,-2.0,0.0,13.0
1701540221.9406917,2.0,12.0,60.0,93.0,8.0,3.0,-1.0,-5.0
1701540221.9406917,-6.0,1.0,-8.0,-76.0,-11.0,-3.0,-4.0,4.0
1701540221.9406917,-35.0,-2.0,0.0,25.0,3.0,-2.0,-4.0,-6.0
1701540221.942938,24.0,5.0,2.0,-8.0,-4.0,-1.0,-2.0,-8.0
1701540221.942938,-15.0,-1.0,23.0,5.0,-2.0,-1.0,2.0,2.0
1701540221.9575908,39.0,-9.0,3.0,33.0,7.0,2.0,1.0,-12.0
1701540221.9575908,-5.0,8.0,-3.0,-9.0,-3.0,2.0,2.0,6.0
1701540221.9654508,27.0,-30.0,-38.0,-25.0,-4.0,-8.0,-17.0,3.0
1701540221.9654508,-37.0,17.0,15.0,-26.0,-9.0,-9.0,-6.0,-1.0
1701540221.9664774,7.0,29.0,-26.0,13.0,0.0,2.0,8.0,9.0
1701540221.9664774,30.0,-34.0,-1.0,-5.0,0.0,2.0,2.0,-16.0
1701540221.982225,-20.0,-10.0,-22.0,17.0,9.0,-2.0,-13.0,-9.0
1701540221.982225,10.0,-56.0,3.0,-10.0,-1.0,-1.0,-2.0,-4.0
1701540221.9867582,-18.0,-1.0,5.0,-16.0,-8.0,-3.0,-3.0,-3.0
1701540221.9867582,6.0,20.0,27.0,15.0,-1.0,2.0,5.0,2.0
1701540222.0406168,-7.0,7.0,4.0,-4.0,-3.0,2.0,7.0,3.0
1701540222.0406168,18.0,13.0,4.0,-24.0,-6.0,0.0,-1.0,-7.0
1701540222.0406168,-12.0,-4.0,4.0,20.0,3.0,-1.0,-2.0,1.0
1701540222.0406168,3.0,-7.0,0.0,-6.0,-4.0,-1.0,-1.0,3.0
1701540222.0406168,3.0,8.0,44.0,2.0,0.0,-2.0,1.0,-2.0
1701540222.0406168,2.0,2.0,-13.0,-6.0,-3.0,-5.0,0.0,-2.0
1701540222.0406168,-10.0,1.0,-1.0,-5.0,-5.0,-1.0,1.0,1.0
1701540222.0406168,3.0,-14.0,14.0,-14.0,-7.0,-1.0,-3.0,6.0
1701540222.0426445,-4.0,-4.0,-28.0,31.0,33.0,12.0,3.0,-2.0
1701540222.0426445,4.0,-9.0,-14.0,-3.0,-5.0,-1.0,1.0,-3.0
1701540222.0467405,-8.0,-14.0,50.0,49.0,-1.0,-7.0,-6.0,0.0
1701540222.0467405,2.0,6.0,-27.0,-22.0,-12.0,-7.0,-5.0,-2.0
1701540222.0746524,0.0,18.0,-9.0,-24.0,-14.0,-2.0,4.0,0.0
1701540222.0746524,4.0,-1.0,24.0,-7.0,1.0,2.0,0.0,-1.0
1701540222.0746524,3.0,-22.0,12.0,-29.0,4.0,4.0,2.0,3.0
1701540222.0746524,-5.0,12.0,3.0,58.0,3.0,-4.0,-7.0,-3.0
1701540222.0815597,-55.0,-12.0,3.0,-15.0,0.0,1.0,-4.0,-3.0
1701540222.0815597,-16.0,-27.0,-27.0,-2.0,3.0,0.0,2.0,-4.0
1701540222.0835743,33.0,34.0,-5.0,-5.0,-1.0,-2.0,-1.0,7.0
1701540222.0835743,5.0,12.0,-30.0,5.0,3.0,2.0,3.0,1.0
1701540222.100515,-13.0,-6.0,11.0,10.0,0.0,0.0,-5.0,-6.0
1701540222.100515,-1.0,-5.0,29.0,-9.0,-6.0,-5.0,6.0,6.0
1701540222.1088626,-22.0,-31.0,-61.0,-2.0,0.0,2.0,0.0,-3.0
1701540222.1088626,-17.0,-9.0,0.0,-22.0,-2.0,-2.0,-2.0,-3.0
1701540222.160999,40.0,7.0,0.0,-6.0,-8.0,-2.0,1.0,4.0
1701540222.160999,18.0,11.0,28.0,13.0,-1.0,-1.0,-2.0,0.0
1701540222.160999,-4.0,-47.0,-4.0,14.0,1.0,-3.0,-2.0,-3.0
1701540222.160999,-2.0,15.0,-3.0,-11.0,1.0,-2.0,-4.0,-1.0
1701540222.160999,-12.0,74.0,-7.0,-18.0,-8.0,-3.0,1.0,-1.0
1701540222.160999,4.0,-2.0,-5.0,3.0,2.0,5.0,-2.0,-2.0
1701540222.160999,-5.0,-32.0,32.0,40.0,15.0,4.0,1.0,-1.0
1701540222.160999,25.0,-12.0,-23.0,-53.0,-17.0,-3.0,-2.0,-1.0
1701540222.1620955,9.0,-7.0,23.0,8.0,-3.0,-5.0,0.0,-1.0
1701540222.1620955,5.0,5.0,-38.0,-11.0,0.0,-1.0,-1.0,-2.0
1701540222.168529,-9.0,16.0,-22.0,4.0,-4.0,-4.0,-5.0,-1.0
1701540222.168529,-3.0,-26.0,8.0,7.0,3.0,1.0,4.0,2.0
1701540222.190014,-14.0,-5.0,18.0,-6.0,-6.0,-1.0,2.0,-2.0
1701540222.1905572,5.0,14.0,-26.0,-12.0,-5.0,-4.0,-2.0,0.0
1701540222.2128522,-12.0,-8.0,23.0,4.0,1.0,-1.0,-4.0,-4.0
1701540222.2128522,-5.0,-7.0,-7.0,12.0,4.0,2.0,-1.0,-2.0
1701540222.2219868,9.0,-14.0,-6.0,-6.0,-5.0,-3.0,1.0,1.0
1701540222.2219868,-7.0,-5.0,-9.0,8.0,2.0,-2.0,-2.0,0.0
1701540222.2219868,3.0,18.0,-6.0,-7.0,0.0,-1.0,-1.0,-1.0
1701540222.2219868,-46.0,-4.0,3.0,0.0,0.0,-1.0,-3.0,-5.0
1701540222.2229898,22.0,0.0,-15.0,1.0,-3.0,0.0,-2.0,1.0
1701540222.2229898,13.0,-7.0,24.0,3.0,0.0,0.0,1.0,-3.0
1701540222.2269258,12.0,18.0,-36.0,-14.0,-5.0,-1.0,-1.0,1.0
1701540222.2269258,7.0,-25.0,17.0,9.0,8.0,1.0,-1.0,1.0
1701540222.263839,2.0,-4.0,11.0,-3.0,2.0,1.0,0.0,-2.0
1701540222.263839,-21.0,52.0,-45.0,-17.0,-5.0,-2.0,-1.0,-3.0
1701540222.263839,-6.0,-4.0,-14.0,-9.0,-1.0,-2.0,-1.0,1.0
1701540222.263839,11.0,-19.0,-34.0,-2.0,-14.0,-3.0,-2.0,-1.0
1701540222.264842,-15.0,-1.0,7.0,20.0,17.0,-2.0,-4.0,-5.0
1701540222.264842,3.0,-32.0,32.0,16.0,2.0,0.0,1.0,3.0
1701540222.272208,-7.0,-3.0,-7.0,-11.0,-4.0,-2.0,-2.0,-1.0
1701540222.272208,4.0,15.0,15.0,-8.0,-3.0,-1.0,-2.0,4.0
1701540222.3125248,-28.0,-18.0,-40.0,-25.0,-10.0,-4.0,-1.0,-5.0
1701540222.3125248,8.0,4.0,28.0,17.0,2.0,1.0,-3.0,-1.0
1701540222.3125248,1.0,-4.0,-27.0,0.0,4.0,2.0,1.0,7.0
1701540222.3125248,5.0,6.0,5.0,0.0,-3.0,-3.0,0.0,-1.0
1701540222.316555,2.0,-1.0,21.0,-8.0,-5.0,-2.0,-1.0,-1.0
1701540222.316555,7.0,-7.0,-9.0,-1.0,5.0,0.0,-4.0,-2.0
1701540222.316555,-4.0,5.0,-12.0,-4.0,-5.0,-3.0,-1.0,-3.0
1701540222.3175547,13.0,8.0,22.0,9.0,6.0,0.0,0.0,1.0
1701540222.345723,6.0,-4.0,9.0,12.0,-1.0,-1.0,0.0,3.0
1701540222.345723,-19.0,-9.0,-74.0,-26.0,-6.0,-4.0,-1.0,-4.0
1701540222.345723,-6.0,1.0,29.0,7.0,-9.0,-7.0,-2.0,-3.0
1701540222.345723,-3.0,-2.0,-12.0,4.0,3.0,1.0,0.0,-2.0
1701540222.345723,11.0,-10.0,21.0,-3.0,1.0,1.0,1.0,-1.0
1701540222.345723,4.0,-8.0,45.0,9.0,-5.0,-1.0,-1.0,1.0
1701540222.3477423,-20.0,23.0,-23.0,2.0,-1.0,2.0,-1.0,-3.0
1701540222.3477423,14.0,-2.0,0.0,-32.0,-8.0,-6.0,-2.0,-3.0
1701540222.36788,2.0,-5.0,10.0,5.0,-4.0,-3.0,-1.0,5.0
1701540222.36788,-12.0,-6.0,-4.0,-8.0,-1.0,-3.0,-4.0,-3.0
1701540222.368559,-17.0,-14.0,7.0,8.0,6.0,-2.0,-6.0,-2.0
1701540222.368559,7.0,4.0,58.0,23.0,6.0,2.0,5.0,2.0
1701540222.3813665,5.0,-6.0,-57.0,-18.0,-6.0,1.0,-2.0,-4.0
1701540222.3813665,-9.0,2.0,-4.0,-6.0,-1.0,-3.0,-3.0,-4.0
1701540222.3924346,1.0,-7.0,13.0,3.0,1.0,-1.0,-4.0,-1.0
1701540222.3924346,-11.0,6.0,15.0,13.0,1.0,-2.0,-1.0,1.0
1701540222.446251,-3.0,-9.0,-4.0,-6.0,-1.0,-2.0,-2.0,-3.0
1701540222.446251,0.0,5.0,-5.0,0.0,-3.0,-1.0,-2.0,0.0
1701540222.446251,4.0,9.0,-3.0,-8.0,0.0,1.0,-1.0,-7.0
1701540222.446251,-59.0,-13.0,-18.0,-3.0,0.0,-3.0,-6.0,-2.0
1701540222.446251,7.0,-30.0,4.0,5.0,-1.0,-2.0,1.0,1.0
1701540222.446251,4.0,41.0,22.0,0.0,-3.0,1.0,0.0,0.0
1701540222.446251,3.0,16.0,38.0,-1.0,-2.0,-4.0,-1.0,1.0
1701540222.446251,22.0,-41.0,-25.0,1.0,1.0,-1.0,1.0,2.0
1701540222.4680085,-2.0,43.0,-12.0,-6.0,0.0,-1.0,-1.0,1.0
1701540222.4680085,-11.0,-32.0,11.0,6.0,0.0,-3.0,-1.0,-1.0
1701540222.4680085,-10.0,-8.0,-21.0,-22.0,-5.0,-2.0,1.0,-2.0
1701540222.4680085,-1.0,17.0,33.0,26.0,2.0,-2.0,-3.0,-3.0
1701540222.470008,0.0,-22.0,15.0,-7.0,0.0,2.0,0.0,1.0
1701540222.470008,18.0,3.0,13.0,13.0,6.0,2.0,0.0,3.0
1701540222.4772713,8.0,3.0,-5.0,1.0,-7.0,-1.0,0.0,0.0
1701540222.4772713,3.0,4.0,-6.0,-24.0,3.0,-1.0,-1.0,-2.0
1701540222.4873974,5.0,-11.0,-32.0,-12.0,-5.0,0.0,3.0,0.0
1701540222.4873974,-11.0,-2.0,-8.0,9.0,6.0,-1.0,-1.0,0.0
1701540222.4888592,-4.0,-8.0,-37.0,-10.0,-2.0,-2.0,-1.0,-6.0
1701540222.4888592,-10.0,8.0,-10.0,17.0,-1.0,-3.0,-2.0,0.0
1701540222.5524695,22.0,6.0,33.0,-4.0,-7.0,-2.0,-2.0,-3.0
1701540222.5524695,-10.0,-12.0,-31.0,-24.0,-6.0,-4.0,-5.0,-8.0
1701540222.5524695,32.0,-3.0,19.0,11.0,0.0,0.0,4.0,3.0
1701540222.5524695,4.0,5.0,-75.0,-7.0,0.0,0.0,1.0,0.0
1701540222.5524695,2.0,3.0,44.0,10.0,4.0,0.0,0.0,-1.0
1701540222.5524695,5.0,-9.0,-55.0,-9.0,-7.0,0.0,2.0,2.0
1701540222.5524695,3.0,-7.0,70.0,10.0,2.0,0.0,-2.0,3.0
1701540222.5524695,0.0,0.0,-9.0,-2.0,0.0,-1.0,-2.0,-13.0
1701540222.558719,8.0,31.0,14.0,1.0,1.0,-2.0,-3.0,-5.0
1701540222.558719,-8.0,-15.0,-12.0,-18.0,-3.0,-3.0,1.0,-2.0
1701540222.558719,-7.0,4.0,16.0,24.0,1.0,0.0,-1.0,-2.0
1701540222.558719,-3.0,-40.0,-32.0,-9.0,3.0,2.0,1.0,2.0
1701540222.6021643,-11.0,11.0,-17.0,5.0,-3.0,-1.0,-1.0,-2.0
1701540222.6021643,13.0,16.0,31.0,0.0,1.0,-1.0,0.0,1.0
1701540222.6021643,4.0,-3.0,-25.0,-19.0,-7.0,-3.0,1.0,1.0
1701540222.6021643,9.0,-2.0,11.0,-1.0,-3.0,-2.0,-3.0,1.0
1701540222.6021643,-10.0,-15.0,-6.0,0.0,1.0,1.0,0.0,-1.0
1701540222.6021643,-6.0,0.0,6.0,7.0,2.0,1.0,-1.0,1.0
1701540222.6021643,22.0,-3.0,-15.0,-3.0,4.0,1.0,-1.0,0.0
1701540222.6021643,7.0,21.0,92.0,6.0,-4.0,1.0,1.0,0.0
1701540222.649237,-2.0,-12.0,17.0,5.0,-4.0,-5.0,-3.0,-4.0
1701540222.649237,0.0,3.0,28.0,1.0,-3.0,-3.0,1.0,-3.0
1701540222.649237,-10.0,-1.0,-7.0,-2.0,-3.0,-4.0,-4.0,-3.0
1701540222.649237,8.0,5.0,25.0,5.0,0.0,0.0,1.0,4.0
1701540222.649237,1.0,-8.0,-7.0,-15.0,2.0,3.0,0.0,2.0
1701540222.649237,6.0,-5.0,-11.0,-7.0,-6.0,0.0,-1.0,-1.0
1701540222.649237,-8.0,-1.0,22.0,45.0,-4.0,1.0,2.0,-1.0
1701540222.649237,-5.0,-5.0,-10.0,-23.0,10.0,-1.0,1.0,-2.0
1701540222.6517272,-5.0,-7.0,6.0,-1.0,3.0,0.0,1.0,2.0
1701540222.6517272,-6.0,-2.0,-5.0,8.0,3.0,0.0,-1.0,-5.0
1701540222.6527245,0.0,-64.0,4.0,-19.0,-11.0,-2.0,1.0,6.0
1701540222.6527245,-4.0,110.0,-56.0,9.0,-11.0,-6.0,-2.0,-3.0
1701540222.6676183,0.0,-1.0,-33.0,-69.0,0.0,-3.0,0.0,0.0
1701540222.6689715,-15.0,1.0,34.0,17.0,2.0,0.0,-1.0,0.0
1701540222.6940863,7.0,-46.0,-22.0,6.0,5.0,1.0,1.0,0.0
1701540222.6950822,26.0,13.0,9.0,6.0,-4.0,1.0,0.0,2.0
1701540222.714712,-27.0,-10.0,-47.0,-6.0,-2.0,1.0,-2.0,-5.0
1701540222.714712,22.0,8.0,24.0,0.0,-5.0,-1.0,-2.0,8.0
1701540222.714712,-16.0,5.0,75.0,1.0,7.0,-1.0,-1.0,-1.0
1701540222.714712,-8.0,-33.0,-100.0,-21.0,-1.0,-1.0,-1.0,-2.0
1701540222.714712,-2.0,14.0,100.0,35.0,-2.0,-1.0,-2.0,-2.0
1701540222.714712,-5.0,-20.0,-73.0,-22.0,-8.0,-4.0,-2.0,-4.0
1701540222.7157094,-3.0,22.0,4.0,-3.0,2.0,1.0,-2.0,-1.0
1701540222.7157094,-1.0,-10.0,49.0,49.0,11.0,5.0,0.0,1.0
1701540222.7258937,0.0,-11.0,4.0,-70.0,-23.0,-9.0,-2.0,0.0
1701540222.7289948,2.0,1.0,2.0,12.0,4.0,2.0,-2.0,-1.0
1701540222.750272,6.0,24.0,-20.0,-9.0,4.0,1.0,-1.0,-2.0
1701540222.750575,-8.0,-41.0,-13.0,-8.0,-6.0,-3.0,-1.0,-1.0
1701540222.7761564,4.0,-40.0,-5.0,25.0,6.0,1.0,1.0,2.0
1701540222.7761564,-32.0,78.0,22.0,5.0,1.0,-1.0,-3.0,-2.0
1701540222.7761564,0.0,-13.0,-25.0,-12.0,-4.0,-5.0,-3.0,-4.0
1701540222.7761564,23.0,33.0,18.0,-24.0,-1.0,0.0,1.0,2.0
1701540222.7761564,-1.0,-98.0,80.0,29.0,2.0,1.0,3.0,4.0
1701540222.7761564,-1.0,27.0,-65.0,-14.0,-8.0,-5.0,-3.0,-10.0
1701540222.7771554,17.0,103.0,46.0,18.0,9.0,0.0,-2.0,8.0
1701540222.7771554,18.0,-30.0,8.0,-7.0,-8.0,-3.0,-1.0,-2.0
1701540222.787339,-3.0,-22.0,-59.0,15.0,7.0,4.0,1.0,-3.0
1701540222.787339,25.0,26.0,-34.0,-10.0,-4.0,-6.0,-3.0,0.0
1701540222.8049107,21.0,-25.0,-34.0,-3.0,-6.0,-3.0,1.0,0.0
1701540222.8049107,5.0,-17.0,16.0,-2.0,0.0,-5.0,0.0,3.0
1701540222.8360395,11.0,16.0,-12.0,14.0,5.0,5.0,4.0,4.0
1701540222.8360395,17.0,-47.0,57.0,21.0,9.0,3.0,-1.0,1.0
1701540222.8360395,-33.0,29.0,12.0,-3.0,-6.0,-3.0,-3.0,3.0
1701540222.8360395,-22.0,-27.0,-50.0,-20.0,-5.0,-3.0,-3.0,-8.0
1701540222.8360395,-6.0,57.0,-32.0,-1.0,1.0,-1.0,-1.0,-1.0
1701540222.8360395,-10.0,-21.0,53.0,23.0,4.0,1.0,-3.0,-2.0
1701540222.8360395,-11.0,-29.0,-33.0,-20.0,-2.0,0.0,2.0,-1.0
1701540222.8360395,-8.0,-34.0,14.0,2.0,-5.0,-1.0,-2.0,-2.0
1701540222.8498874,-4.0,28.0,25.0,3.0,-4.0,-4.0,-2.0,-1.0
1701540222.8498874,-21.0,-6.0,-17.0,-6.0,0.0,0.0,1.0,0.0
1701540222.8498874,21.0,-4.0,21.0,16.0,3.0,-1.0,-1.0,-2.0
1701540222.8498874,-15.0,1.0,0.0,-38.0,-7.0,-2.0,-8.0,-1.0
1701540222.8610773,-1.0,19.0,-18.0,18.0,-2.0,-4.0,0.0,-5.0
1701540222.8610773,-5.0,-16.0,15.0,-13.0,-3.0,-2.0,5.0,3.0
1701540222.8719878,-7.0,-10.0,-31.0,-4.0,0.0,3.0,-1.0,-7.0
1701540222.8719878,-8.0,8.0,43.0,13.0,-12.0,-4.0,-2.0,-2.0
1701540222.8831007,0.0,14.0,-67.0,8.0,-12.0,-6.0,-4.0,1.0
1701540222.884507,4.0,-24.0,-3.0,-32.0,46.0,14.0,3.0,0.0
1701540222.8855429,-6.0,-4.0,-2.0,1.0,3.0,-4.0,-2.0,-3.0
1701540222.8934684,-24.0,7.0,-5.0,27.0,2.0,-1.0,-2.0,-9.0
1701540222.9412344,6.0,-5.0,-16.0,1.0,-6.0,-3.0,-1.0,0.0
1701540222.9412344,-29.0,-8.0,-12.0,-5.0,-21.0,-3.0,1.0,-3.0
1701540222.9412344,-14.0,-3.0,-3.0,-9.0,3.0,1.0,-2.0,-2.0
1701540222.9412344,-4.0,10.0,27.0,-1.0,0.0,-4.0,-4.0,1.0
1701540222.9412344,-10.0,2.0,-3.0,-3.0,2.0,2.0,3.0,-3.0
1701540222.9412344,-2.0,6.0,-8.0,8.0,-4.0,-2.0,-3.0,2.0
1701540222.9412344,4.0,-5.0,47.0,2.0,1.0,1.0,0.0,1.0
1701540222.9412344,-23.0,-11.0,-76.0,-20.0,-4.0,-3.0,-2.0,-1.0
1701540222.952481,-7.0,14.0,19.0,4.0,4.0,-3.0,-8.0,-5.0
1701540222.952481,8.0,-14.0,22.0,-6.0,-5.0,-1.0,-4.0,2.0
1701540222.954573,-8.0,4.0,-13.0,-13.0,-7.0,-4.0,4.0,-1.0
1701540222.954573,18.0,0.0,-6.0,33.0,23.0,9.0,-2.0,0.0
1701540222.9660683,-18.0,4.0,-26.0,-8.0,-6.0,-5.0,-5.0,-4.0
1701540222.9676356,5.0,4.0,-11.0,-21.0,-5.0,-2.0,-1.0,-1.0
1701540222.987039,5.0,-4.0,22.0,17.0,-6.0,-1.0,0.0,-1.0
1701540222.987039,-11.0,4.0,-47.0,-33.0,-4.0,-2.0,0.0,-3.0
1701540222.989138,20.0,-5.0,41.0,6.0,3.0,2.0,4.0,3.0
1701540222.9904346,4.0,-2.0,-9.0,22.0,-3.0,-2.0,-1.0,-1.0
1701540222.9912095,21.0,-1.0,-2.0,2.0,-7.0,-3.0,-4.0,-6.0
1701540222.9912095,19.0,6.0,46.0,-14.0,0.0,3.0,6.0,13.0
1701540223.0046527,2.0,-5.0,-82.0,-11.0,1.0,3.0,-2.0,2.0
1701540223.0046527,-1.0,5.0,20.0,6.0,-2.0,-3.0,-1.0,-3.0
1701540223.013962,-2.0,-11.0,-25.0,8.0,1.0,-4.0,-5.0,-1.0
1701540223.013962,18.0,-30.0,38.0,18.0,5.0,6.0,4.0,-2.0
1701540223.061124,-1.0,50.0,-6.0,-15.0,-8.0,-6.0,-5.0,-6.0
1701540223.061124,-32.0,-13.0,-16.0,0.0,1.0,-3.0,0.0,-5.0
1701540223.0664015,-10.0,-15.0,-5.0,1.0,2.0,-3.0,-6.0,1.0
1701540223.0664015,14.0,-51.0,0.0,-9.0,-5.0,-2.0,2.0,3.0
1701540223.0674012,-12.0,66.0,45.0,10.0,1.0,0.0,1.0,3.0
1701540223.0674012,-16.0,26.0,-3.0,-2.0,-2.0,-4.0,-3.0,-2.0
1701540223.0674012,-9.0,-15.0,-46.0,-30.0,-3.0,2.0,-1.0,-4.0
1701540223.0674012,-13.0,-25.0,0.0,1.0,-2.0,-2.0,-1.0,-3.0
1701540223.0997741,7.0,-71.0,0.0,9.0,6.0,2.0,3.0,1.0
1701540223.0997741,5.0,79.0,-14.0,1.0,-3.0,-4.0,-9.0,-5.0
1701540223.0997741,-13.0,-4.0,44.0,-3.0,-7.0,-2.0,0.0,0.0
1701540223.0997741,7.0,14.0,-43.0,-5.0,-1.0,0.0,0.0,-1.0
1701540223.0997741,-3.0,-33.0,-9.0,-7.0,3.0,-2.0,-2.0,-3.0
1701540223.0997741,15.0,-20.0,45.0,10.0,-6.0,-5.0,0.0,2.0
1701540223.0997741,9.0,21.0,-19.0,-7.0,0.0,2.0,1.0,1.0
1701540223.0997741,-4.0,26.0,52.0,9.0,-1.0,-2.0,-4.0,-4.0
1701540223.1017845,-2.0,-11.0,-58.0,-9.0,-5.0,-4.0,-1.0,1.0
1701540223.1017845,14.0,-11.0,10.0,0.0,4.0,4.0,2.0,2.0
1701540223.111719,-2.0,2.0,-31.0,-8.0,-1.0,1.0,0.0,-2.0
1701540223.111719,-10.0,14.0,9.0,-1.0,-5.0,-3.0,-3.0,-3.0
1701540223.1442113,0.0,7.0,24.0,10.0,4.0,5.0,2.0,2.0
1701540223.1442113,16.0,-20.0,11.0,21.0,9.0,5.0,0.0,2.0
1701540223.1442113,-10.0,-2.0,-4.0,-33.0,-15.0,-4.0,-2.0,-4.0
1701540223.1442113,-19.0,17.0,-4.0,24.0,8.0,1.0,-3.0,-6.0
1701540223.1472428,43.0,-13.0,31.0,-45.0,-18.0,-3.0,-3.0,5.0
1701540223.1472428,12.0,-34.0,-53.0,16.0,0.0,1.0,1.0,0.0
1701540223.1482432,-8.0,29.0,54.0,-5.0,4.0,2.0,-2.0,-1.0
1701540223.1482432,-30.0,29.0,4.0,8.0,-5.0,-3.0,-3.0,-5.0
1701540223.1682746,9.0,16.0,13.0,4.0,2.0,0.0,2.0,1.0
1701540223.1682746,3.0,-33.0,-28.0,-12.0,-3.0,-2.0,-2.0,-10.0
1701540223.1720133,15.0,-6.0,10.0,15.0,2.0,-2.0,-1.0,-3.0
1701540223.1720133,4.0,-11.0,-2.0,-1.0,4.0,2.0,2.0,-1.0
1701540223.2204149,-16.0,-4.0,16.0,4.0,2.0,-1.0,-3.0,-9.0
1701540223.2204149,-27.0,2.0,-19.0,-20.0,-11.0,-4.0,-2.0,-2.0
1701540223.2204149,18.0,-1.0,-6.0,26.0,3.0,-1.0,0.0,7.0
1701540223.2204149,10.0,8.0,12.0,9.0,1.0,-1.0,0.0,1.0
1701540223.2204149,-19.0,-39.0,8.0,16.0,6.0,2.0,0.0,3.0
1701540223.2204149,-1.0,23.0,-1.0,-18.0,-10.0,-1.0,1.0,3.0
1701540223.2204149,-5.0,16.0,3.0,-10.0,-4.0,-2.0,-2.0,-3.0
1701540223.2204149,-5.0,9.0,27.0,-3.0,-1.0,-4.0,-3.0,-1.0
1701540223.221532,10.0,-5.0,-6.0,-11.0,0.0,-1.0,-1.0,0.0
1701540223.221532,6.0,-7.0,3.0,-1.0,-2.0,-1.0,-5.0,0.0
1701540223.2328234,-14.0,-110.0,-20.0,0.0,6.0,1.0,0.0,-3.0
1701540223.2328234,10.0,108.0,61.0,-8.0,-8.0,-2.0,-2.0,-1.0
1701540223.289338,-27.0,-20.0,-54.0,-13.0,-3.0,-4.0,-3.0,2.0
1701540223.289338,3.0,-67.0,-7.0,17.0,4.0,1.0,2.0,-2.0
1701540223.289338,-12.0,84.0,16.0,-12.0,-2.0,-1.0,-3.0,-4.0
1701540223.289338,-64.0,-128.0,-72.0,2.0,3.0,3.0,3.0,-6.0
1701540223.289338,-13.0,105.0,125.0,10.0,-8.0,-6.0,-8.0,-10.0
1701540223.289338,14.0,-33.0,-34.0,-10.0,6.0,1.0,2.0,3.0
1701540223.289338,-20.0,30.0,-52.0,-3.0,-8.0,-5.0,-8.0,-7.0
1701540223.289338,8.0,-68.0,17.0,-9.0,2.0,0.0,2.0,-1.0
1701540223.292294,-10.0,-59.0,-32.0,18.0,4.0,2.0,2.0,9.0
1701540223.292294,26.0,56.0,81.0,-1.0,0.0,-2.0,-1.0,-2.0
1701540223.292294,30.0,-68.0,-42.0,8.0,4.0,2.0,5.0,14.0
1701540223.292294,15.0,124.0,44.0,-6.0,-7.0,-2.0,3.0,29.0
1701540223.3196497,3.0,-69.0,-3.0,10.0,5.0,1.0,4.0,-8.0
1701540223.3196497,1.0,-30.0,4.0,4.0,-2.0,-1.0,-4.0,-7.0
1701540223.3196497,-9.0,10.0,-72.0,-22.0,0.0,0.0,-1.0,-7.0
1701540223.3196497,-1.0,-67.0,-5.0,4.0,-4.0,-3.0,-4.0,-1.0
1701540223.3216639,26.0,20.0,1.0,-10.0,-7.0,-5.0,-1.0,4.0
1701540223.3216639,-10.0,60.0,-77.0,-19.0,-8.0,-4.0,-3.0,1.0
1701540223.3298085,9.0,35.0,31.0,17.0,2.0,1.0,0.0,-2.0
1701540223.3298085,10.0,-30.0,27.0,-11.0,-2.0,-3.0,-3.0,-6.0
1701540223.3837135,-5.0,-16.0,-18.0,-1.0,3.0,2.0,-4.0,-6.0
1701540223.384711,-20.0,-17.0,10.0,1.0,-3.0,-2.0,-1.0,-8.0
1701540223.384711,-13.0,-57.0,13.0,0.0,-2.0,-1.0,0.0,5.0
1701540223.384711,-11.0,6.0,0.0,-1.0,2.0,0.0,3.0,14.0
1701540223.384711,10.0,38.0,1.0,34.0,4.0,1.0,0.0,-6.0
1701540223.384711,-7.0,-8.0,8.0,-15.0,-4.0,-1.0,0.0,8.0
1701540223.3850856,6.0,-7.0,-4.0,-22.0,-1.0,-2.0,0.0,-4.0
1701540223.3850856,8.0,16.0,-20.0,1.0,1.0,-1.0,0.0,-5.0
1701540223.3871415,-3.0,7.0,13.0,13.0,2.0,1.0,-2.0,0.0
1701540223.3871415,7.0,-22.0,2.0,3.0,-1.0,-1.0,0.0,1.0
1701540223.39924,-11.0,3.0,-10.0,-6.0,-6.0,-9.0,-4.0,-6.0
1701540223.39924,13.0,16.0,-11.0,0.0,-1.0,3.0,-1.0,-9.0
1701540223.456278,-5.0,-8.0,2.0,-13.0,-1.0,-1.0,-2.0,0.0
1701540223.456278,5.0,20.0,22.0,10.0,-4.0,0.0,-1.0,-2.0
1701540223.456278,-3.0,19.0,18.0,-7.0,-2.0,1.0,1.0,1.0
1701540223.456278,3.0,-13.0,-29.0,14.0,21.0,5.0,-1.0,-4.0
1701540223.4572768,2.0,-6.0,-24.0,-6.0,-2.0,0.0,1.0,0.0
1701540223.4572768,-1.0,-10.0,11.0,-3.0,-3.0,-1.0,0.0,3.0
1701540223.4572768,4.0,49.0,19.0,9.0,-2.0,3.0,-1.0,-1.0
1701540223.4572768,0.0,-17.0,-24.0,-38.0,-22.0,-7.0,-3.0,-8.0
1701540223.4603138,-4.0,8.0,-35.0,-6.0,1.0,1.0,-2.0,-2.0
1701540223.4603138,2.0,7.0,-10.0,2.0,0.0,-2.0,-2.0,-4.0
1701540223.4779205,-1.0,-37.0,21.0,0.0,3.0,1.0,-1.0,-1.0
1701540223.4779205,15.0,11.0,-7.0,7.0,1.0,1.0,0.0,-6.0
1701540223.4779205,-10.0,11.0,15.0,-2.0,-2.0,-4.0,-1.0,-1.0
1701540223.4779205,18.0,-26.0,0.0,4.0,-1.0,0.0,-1.0,0.0
1701540223.4779205,4.0,19.0,-37.0,-15.0,-4.0,-2.0,-5.0,-1.0
1701540223.4779205,-4.0,10.0,8.0,3.0,1.0,1.0,11.0,23.0
1701540223.4899995,3.0,-10.0,-14.0,-4.0,-5.0,-1.0,17.0,12.0
1701540223.4899995,-54.0,-18.0,16.0,7.0,0.0,2.0,25.0,-17.0
1701540223.4948854,-35.0,-37.0,15.0,7.0,-1.0,-8.0,-92.0,-83.0
1701540223.4948854,10.0,-3.0,-15.0,-1.0,-2.0,-2.0,-24.0,-14.0
1701540223.5072832,9.0,-12.0,-3.0,-12.0,-1.0,4.0,37.0,84.0
1701540223.5072832,-25.0,25.0,-12.0,-9.0,1.0,-2.0,-39.0,-81.0
1701540223.5176425,-13.0,46.0,35.0,8.0,-1.0,-2.0,-6.0,8.0
1701540223.5176425,-6.0,-11.0,8.0,-2.0,-3.0,-3.0,-4.0,-15.0
1701540223.5723903,7.0,-31.0,-25.0,-11.0,-5.0,-3.0,-18.0,11.0
1701540223.5723903,-19.0,-11.0,-5.0,0.0,-2.0,0.0,31.0,50.0
1701540223.5723903,3.0,56.0,-60.0,5.0,5.0,1.0,26.0,6.0
1701540223.5723903,8.0,7.0,98.0,25.0,-5.0,-3.0,-9.0,-5.0
1701540223.5723903,6.0,-17.0,10.0,-8.0,-5.0,-1.0,7.0,-9.0
1701540223.5723903,20.0,-21.0,28.0,-67.0,-22.0,-8.0,-8.0,7.0
1701540223.5723903,11.0,-18.0,-9.0,8.0,-11.0,0.0,13.0,-1.0
1701540223.5723903,-11.0,-20.0,-2.0,30.0,24.0,2.0,0.0,11.0
1701540223.5723903,-15.0,11.0,-11.0,-18.0,-6.0,-3.0,-14.0,-34.0
1701540223.5723903,17.0,24.0,33.0,14.0,8.0,0.0,-7.0,-4.0
1701540223.606071,4.0,-10.0,-7.0,-44.0,-8.0,-3.0,10.0,26.0
1701540223.606071,2.0,22.0,91.0,50.0,-16.0,-7.0,7.0,1.0
1701540223.6070714,-3.0,-8.0,-43.0,-12.0,1.0,1.0,-10.0,-24.0
1701540223.6070714,11.0,8.0,-50.0,-11.0,5.0,0.0,-9.0,5.0
1701540223.6070714,-57.0,-16.0,25.0,8.0,-1.0,3.0,21.0,19.0
1701540223.6070714,28.0,-13.0,-71.0,-26.0,-2.0,3.0,6.0,-19.0
1701540223.6082983,-8.0,16.0,23.0,7.0,2.0,-4.0,-16.0,-19.0
1701540223.6082983,-13.0,9.0,-31.0,3.0,-3.0,-1.0,3.0,18.0
1701540223.6147377,-20.0,-19.0,17.0,10.0,6.0,0.0,2.0,-16.0
1701540223.6147377,-28.0,-10.0,-22.0,-25.0,-7.0,-3.0,1.0,7.0
1701540223.626074,-7.0,1.0,-25.0,2.0,2.0,-1.0,-9.0,-22.0
1701540223.626074,-4.0,14.0,34.0,24.0,0.0,-1.0,0.0,-3.0
1701540223.6802585,14.0,-31.0,12.0,2.0,-3.0,-3.0,6.0,17.0
1701540223.6802585,-44.0,10.0,-21.0,-24.0,-5.0,-5.0,-1.0,-4.0
1701540223.6885655,-8.0,-3.0,43.0,20.0,3.0,-1.0,-7.0,-35.0
1701540223.6885655,-18.0,46.0,-52.0,-1.0,-2.0,-2.0,1.0,14.0
1701540223.6885655,-12.0,13.0,25.0,2.0,4.0,1.0,-2.0,-4.0
1701540223.6885655,12.0,-50.0,-16.0,-5.0,-1.0,0.0,11.0,50.0
1701540223.6885655,4.0,18.0,25.0,0.0,-1.0,3.0,12.0,15.0
1701540223.6885655,1.0,-15.0,30.0,-4.0,-2.0,-4.0,-33.0,-50.0
1701540223.6976357,25.0,-8.0,24.0,-8.0,-3.0,-2.0,-2.0,9.0
1701540223.6976357,-1.0,38.0,-41.0,6.0,1.0,-2.0,1.0,-18.0
1701540223.7084982,16.0,-2.0,69.0,26.0,2.0,-1.0,-1.0,11.0
1701540223.7084982,13.0,0.0,55.0,-7.0,-25.0,-12.0,0.0,10.0
1701540223.7084982,24.0,8.0,63.0,-61.0,-3.0,2.0,14.0,12.0
1701540223.7084982,-4.0,-61.0,-7.0,32.0,-11.0,-3.0,-14.0,-11.0
1701540223.7094948,-7.0,24.0,-26.0,-67.0,21.0,5.0,5.0,-3.0
1701540223.7094948,8.0,3.0,74.0,117.0,10.0,-2.0,-3.0,9.0
1701540223.7140489,3.0,-9.0,-33.0,-3.0,-12.0,-4.0,0.0,-4.0
1701540223.7140489,10.0,24.0,50.0,-22.0,-12.0,-2.0,1.0,-7.0
1701540223.7241712,-4.0,-9.0,-49.0,-2.0,-9.0,-5.0,-6.0,1.0
1701540223.7241712,14.0,26.0,0.0,-23.0,1.0,1.0,5.0,6.0
1701540223.742773,55.0,-30.0,-34.0,3.0,3.0,0.0,2.0,15.0
1701540223.742773,-1.0,3.0,-36.0,-2.0,5.0,1.0,-2.0,-7.0
1701540223.7639253,-24.0,24.0,16.0,17.0,-1.0,1.0,1.0,-15.0
1701540223.7639253,84.0,-3.0,-44.0,-27.0,4.0,-10.0,-15.0,20.0
1701540223.7639253,-62.0,-4.0,-3.0,26.0,0.0,-3.0,-2.0,-13.0
1701540223.7639253,-22.0,16.0,-20.0,-12.0,5.0,11.0,23.0,-24.0
1701540223.766061,69.0,-26.0,31.0,8.0,-5.0,2.0,0.0,11.0
1701540223.766061,1.0,-27.0,-16.0,-21.0,2.0,10.0,6.0,2.0
1701540223.771797,20.0,-34.0,-25.0,-4.0,-3.0,-6.0,-7.0,-9.0
1701540223.771797,39.0,20.0,5.0,6.0,-2.0,-2.0,17.0,79.0
1701540223.792623,6.0,-103.0,-20.0,8.0,-1.0,2.0,4.0,-43.0
1701540223.792623,-49.0,62.0,-20.0,-6.0,0.0,-10.0,-48.0,-60.0
1701540223.8157244,26.0,-10.0,24.0,-1.0,-2.0,1.0,-11.0,-2.0
1701540223.8157244,-1.0,-14.0,19.0,-21.0,-23.0,-5.0,-7.0,-5.0
1701540223.8253522,6.0,-73.0,-26.0,31.0,43.0,10.0,22.0,43.0
1701540223.8253522,3.0,59.0,-16.0,79.0,57.0,12.0,25.0,26.0
1701540223.8253522,-7.0,12.0,10.0,-25.0,-2.0,0.0,1.0,-9.0
1701540223.8253522,14.0,-7.0,98.0,37.0,-34.0,-8.0,-7.0,8.0
1701540223.8268938,-45.0,53.0,-64.0,-83.0,-25.0,-11.0,-23.0,-15.0
1701540223.8268938,6.0,-59.0,105.0,39.0,19.0,9.0,8.0,-2.0
1701540223.8319714,-10.0,-17.0,-32.0,-27.0,2.0,3.0,4.0,4.0
1701540223.8319714,-2.0,-6.0,28.0,-10.0,11.0,-7.0,-5.0,-14.0
1701540223.8532574,0.0,43.0,11.0,11.0,-29.0,-8.0,-9.0,-1.0
1701540223.8532574,-13.0,-29.0,-20.0,-35.0,-15.0,2.0,11.0,5.0
1701540223.8627546,-35.0,21.0,-12.0,23.0,5.0,-1.0,4.0,8.0
1701540223.8627546,-9.0,-2.0,-54.0,-17.0,-3.0,2.0,-3.0,-15.0
1701540223.8799183,-15.0,37.0,17.0,9.0,-1.0,-4.0,-12.0,-19.0
1701540223.8799183,-17.0,-6.0,-55.0,-24.0,-8.0,-22.0,-15.0,13.0
1701540223.8799183,82.0,13.0,2.0,14.0,-4.0,31.0,30.0,-5.0
1701540223.8799183,-23.0,17.0,-42.0,-19.0,12.0,4.0,-6.0,5.0
1701540223.8809428,-33.0,16.0,34.0,29.0,9.0,3.0,5.0,4.0
1701540223.8809428,-10.0,-45.0,0.0,-25.0,-9.0,4.0,33.0,-6.0
1701540223.892143,60.0,4.0,3.0,13.0,-1.0,-6.0,-14.0,14.0
1701540223.892143,-43.0,3.0,-21.0,-11.0,7.0,4.0,60.0,84.0
1701540223.928074,66.0,12.0,20.0,-5.0,-5.0,-4.0,-20.0,-56.0
1701540223.928074,-37.0,-38.0,8.0,-15.0,-14.0,-6.0,-79.0,-72.0
1701540223.9309506,-41.0,-34.0,0.0,9.0,2.0,-10.0,-20.0,-6.0
1701540223.9309506,-4.0,87.0,-42.0,-5.0,7.0,0.0,-27.0,-15.0
1701540223.9309506,-14.0,-42.0,-16.0,0.0,-4.0,-1.0,29.0,58.0
1701540223.9309506,20.0,62.0,60.0,21.0,-9.0,3.0,31.0,25.0
1701540223.931953,-14.0,-31.0,-94.0,-46.0,-17.0,-7.0,-9.0,-19.0
1701540223.931953,16.0,34.0,114.0,-35.0,-13.0,-1.0,-9.0,-12.0
1701540223.948708,-13.0,-8.0,76.0,103.0,75.0,15.0,5.0,1.0
1701540223.948708,7.0,5.0,-114.0,-84.0,-40.0,-11.0,15.0,3.0
1701540223.950442,8.0,1.0,127.0,110.0,15.0,2.0,16.0,24.0
1701540223.950442,-22.0,-27.0,-94.0,-108.0,-47.0,-29.0,-23.0,-42.0
1701540223.9829893,-9.0,22.0,51.0,48.0,-14.0,4.0,-14.0,-7.0
1701540223.9829893,-5.0,-78.0,34.0,72.0,73.0,26.0,6.0,16.0
1701540223.9829893,-9.0,6.0,18.0,17.0,9.0,1.0,7.0,7.0
1701540223.9829893,13.0,-29.0,-28.0,-11.0,-11.0,-10.0,-7.0,-20.0
1701540223.984017,0.0,20.0,-18.0,-51.0,-28.0,-11.0,-6.0,4.0
1701540223.984017,3.0,4.0,-21.0,-29.0,-17.0,-2.0,5.0,18.0
1701540223.9941459,-24.0,35.0,-27.0,-24.0,-18.0,-9.0,2.0,-8.0
1701540223.9941459,20.0,-11.0,-11.0,26.0,24.0,9.0,-11.0,-20.0
1701540224.0086281,24.0,-5.0,-35.0,-37.0,-13.0,-6.0,-13.0,9.0
1701540224.0086281,9.0,31.0,12.0,5.0,-9.0,-16.0,-5.0,5.0
1701540224.0113902,74.0,25.0,-25.0,-25.0,0.0,22.0,36.0,68.0
1701540224.0113902,19.0,-35.0,4.0,37.0,20.0,9.0,-5.0,-21.0
1701540224.047003,-83.0,-5.0,0.0,-1.0,-4.0,0.0,2.0,-2.0
1701540224.047003,10.0,-4.0,-9.0,-18.0,-10.0,-4.0,-2.0,4.0
1701540224.047003,-33.0,-7.0,-4.0,-4.0,2.0,-14.0,-17.0,-15.0
1701540224.047003,13.0,-21.0,10.0,22.0,12.0,4.0,1.0,3.0
1701540224.051296,-1.0,18.0,-12.0,-11.0,-10.0,-5.0,1.0,6.0
1701540224.051296,-7.0,-51.0,86.0,20.0,0.0,2.0,3.0,-5.0
1701540224.0568566,-51.0,61.0,-48.0,-61.0,-13.0,-11.0,-17.0,-31.0
