1701540500.5193202,18.0,-21.0,5.0,-21.0,-19.0,-11.0,-6.0,-4.0
1701540500.5193202,4.0,-17.0,34.0,-2.0,-1.0,1.0,1.0,4.0
1701540500.5378368,-21.0,8.0,-20.0,-73.0,-19.0,-8.0,-11.0,-17.0
1701540500.5378368,25.0,31.0,37.0,127.0,76.0,18.0,-1.0,-1.0
1701540500.5378368,-20.0,-31.0,12.0,-113.0,-20.0,-7.0,-6.0,6.0
1701540500.5378368,11.0,28.0,5.0,31.0,-3.0,-13.0,-13.0,-5.0
1701540500.5709858,-38.0,-13.0,34.0,-17.0,-11.0,6.0,5.0,5.0
1701540500.5709858,3.0,10.0,21.0,0.0,-8.0,6.0,13.0,-12.0
1701540500.5709858,3.0,-36.0,-24.0,-9.0,8.0,8.0,16.0,13.0
1701540500.5709858,-19.0,26.0,-55.0,-7.0,2.0,-14.0,-13.0,-14.0
1701540500.5720105,23.0,33.0,21.0,15.0,-9.0,-26.0,-19.0,6.0
1701540500.5720105,16.0,-61.0,42.0,-13.0,-12.0,36.0,31.0,2.0
1701540500.5720105,1.0,69.0,-31.0,1.0,8.0,11.0,5.0,1.0
1701540500.5720105,-8.0,-20.0,25.0,28.0,5.0,10.0,6.0,-6.0
1701540500.593224,0.0,20.0,-49.0,-6.0,3.0,-10.0,2.0,3.0
1701540500.593224,-25.0,-9.0,41.0,-18.0,-19.0,-19.0,-23.0,-8.0
1701540500.593224,8.0,-26.0,-17.0,0.0,-1.0,0.0,-5.0,-3.0
1701540500.593224,2.0,-13.0,22.0,27.0,7.0,-3.0,-2.0,2.0
1701540500.62918,-5.0,12.0,13.0,-43.0,-1.0,6.0,9.0,2.0
1701540500.62918,-13.0,-7.0,36.0,4.0,-9.0,-15.0,-18.0,-6.0
1701540500.6301796,2.0,37.0,-54.0,0.0,11.0,2.0,0.0,2.0
1701540500.6301796,5.0,-5.0,35.0,10.0,-8.0,-9.0,0.0,-11.0
1701540500.6317875,3.0,11.0,7.0,33.0,11.0,20.0,10.0,4.0
1701540500.6317875,-9.0,-2.0,-66.0,-82.0,-34.0,-18.0,1.0,-7.0
1701540500.6317875,15.0,-7.0,43.0,43.0,26.0,9.0,6.0,9.0
1701540500.6317875,4.0,-6.0,28.0,35.0,2.0,-2.0,-3.0,1.0
1701540500.6699398,6.0,4.0,-28.0,10.0,2.0,-1.0,-7.0,1.0
1701540500.6699398,1.0,4.0,-22.0,-30.0,-7.0,-6.0,1.0,-2.0
1701540500.6699398,-19.0,-26.0,-13.0,19.0,-18.0,1.0,2.0,4.0
1701540500.67094,-2.0,1.0,-24.0,-84.0,-1.0,2.0,2.0,1.0
1701540500.6778076,1.0,-13.0,20.0,41.0,20.0,6.0,6.0,3.0
1701540500.6778076,-30.0,28.0,29.0,9.0,-2.0,-9.0,-13.0,-10.0
1701540500.6778076,11.0,-16.0,75.0,14.0,0.0,-1.0,-4.0,18.0
1701540500.6778076,17.0,-39.0,-97.0,-3.0,-5.0,9.0,8.0,-2.0
1701540500.6933558,-10.0,32.0,7.0,-22.0,-12.0,-8.0,-7.0,-12.0
1701540500.6933558,13.0,34.0,15.0,11.0,7.0,1.0,-1.0,4.0
1701540500.6933558,-8.0,-20.0,-1.0,-1.0,0.0,-3.0,-5.0,0.0
1701540500.6933558,0.0,-16.0,-16.0,5.0,6.0,3.0,4.0,9.0
1701540500.751166,4.0,-4.0,5.0,15.0,-9.0,-3.0,0.0,-4.0
1701540500.7516847,-3.0,-5.0,70.0,-21.0,-6.0,-5.0,-9.0,-12.0
1701540500.765467,0.0,-2.0,4.0,-6.0,-4.0,-3.0,-1.0,8.0
1701540500.7666814,-3.0,2.0,19.0,10.0,-1.0,1.0,-5.0,-8.0
1701540500.7703323,3.0,-1.0,-1.0,7.0,3.0,-7.0,8.0,13.0
1701540500.7703323,-1.0,6.0,19.0,5.0,-2.0,17.0,6.0,0.0
1701540500.7703323,6.0,-15.0,0.0,-18.0,-6.0,-12.0,-1.0,7.0
1701540500.7703323,-22.0,9.0,-12.0,4.0,1.0,7.0,7.0,-4.0
1701540500.7703323,15.0,-3.0,7.0,-2.0,3.0,2.0,-3.0,4.0
1701540500.7703323,1.0,-39.0,4.0,10.0,2.0,-8.0,-4.0,0.0
1701540500.7714276,1.0,23.0,-4.0,-3.0,0.0,1.0,-3.0,-12.0
1701540500.7714276,-9.0,27.0,-7.0,5.0,-2.0,-5.0,-9.0,3.0
1701540500.8140569,9.0,-18.0,-4.0,-1.0,-2.0,2.0,5.0,7.0
1701540500.8140569,-3.0,10.0,-14.0,3.0,-1.0,-7.0,-12.0,-7.0
1701540500.8140569,4.0,-17.0,4.0,6.0,2.0,1.0,0.0,-6.0
1701540500.8140569,10.0,4.0,23.0,12.0,-1.0,-2.0,3.0,4.0
1701540500.8140569,-9.0,-23.0,-36.0,-19.0,0.0,1.0,-3.0,-4.0
1701540500.8140569,4.0,-4.0,-6.0,8.0,2.0,-2.0,1.0,0.0
1701540500.8140569,-10.0,-10.0,-37.0,-19.0,3.0,-3.0,-5.0,-7.0
1701540500.8140569,0.0,-5.0,-19.0,-15.0,-4.0,-3.0,0.0,-1.0
1701540500.8151941,2.0,9.0,32.0,-14.0,-15.0,-4.0,-1.0,-3.0
1701540500.8151941,-5.0,1.0,-35.0,13.0,6.0,1.0,-2.0,-4.0
1701540500.8151941,1.0,-35.0,-12.0,5.0,-3.0,-2.0,-2.0,-1.0
1701540500.8199754,2.0,-1.0,51.0,8.0,-7.0,0.0,1.0,2.0
1701540500.8704245,-9.0,30.0,-70.0,-50.0,-10.0,-4.0,-5.0,-10.0
1701540500.8704245,-12.0,-24.0,-11.0,6.0,-11.0,-7.0,-6.0,-2.0
1701540500.8704245,13.0,7.0,17.0,7.0,-1.0,-1.0,2.0,17.0
1701540500.8704245,3.0,-41.0,-39.0,-4.0,8.0,3.0,0.0,-12.0
1701540500.8714235,-11.0,-9.0,14.0,23.0,-4.0,-1.0,-3.0,6.0
1701540500.8714235,-1.0,32.0,8.0,-20.0,4.0,-9.0,-24.0,6.0
1701540500.8714235,-27.0,-28.0,-33.0,-19.0,-4.0,4.0,19.0,-12.0
1701540500.8714235,-18.0,3.0,38.0,9.0,-3.0,-3.0,-4.0,26.0
1701540500.911248,13.0,-6.0,-81.0,12.0,9.0,5.0,14.0,-5.0
1701540500.9122467,-3.0,7.0,0.0,1.0,1.0,-3.0,-1.0,5.0
1701540500.9122467,-6.0,-11.0,15.0,11.0,-4.0,-1.0,-8.0,-5.0
1701540500.9122467,-1.0,7.0,26.0,-8.0,16.0,2.0,1.0,-4.0
1701540500.9139383,-7.0,0.0,41.0,1.0,-4.0,-3.0,-8.0,-6.0
1701540500.914935,-4.0,-7.0,17.0,5.0,4.0,2.0,4.0,-5.0
1701540500.914935,17.0,16.0,5.0,-8.0,-11.0,-7.0,-8.0,-5.0
1701540500.914935,14.0,-14.0,-33.0,12.0,11.0,1.0,1.0,-4.0
1701540500.9186718,-5.0,-8.0,31.0,19.0,17.0,2.0,-2.0,3.0
1701540500.9186718,4.0,-11.0,-3.0,5.0,-3.0,-1.0,3.0,3.0
1701540500.9186718,-5.0,3.0,25.0,-14.0,-8.0,-3.0,-11.0,-13.0
1701540500.9186718,7.0,3.0,-24.0,1.0,-12.0,-5.0,-4.0,5.0
1701540500.9771764,-6.0,-10.0,-44.0,-22.0,4.0,1.0,0.0,-7.0
1701540500.9771764,-1.0,3.0,1.0,0.0,-1.0,1.0,2.0,-1.0
1701540500.9771764,-7.0,8.0,-1.0,11.0,10.0,-1.0,-2.0,-1.0
1701540500.9771764,2.0,-6.0,-18.0,-13.0,-8.0,1.0,1.0,-7.0
1701540500.9771764,-5.0,-15.0,-36.0,3.0,-8.0,-7.0,-4.0,-2.0
1701540500.9771764,8.0,24.0,-8.0,4.0,1.0,-5.0,-11.0,3.0
1701540500.9771764,24.0,-17.0,5.0,-6.0,3.0,14.0,17.0,-10.0
1701540500.9771764,-17.0,0.0,4.0,4.0,-3.0,-2.0,3.0,-4.0
1701540500.9790099,6.0,-47.0,74.0,21.0,5.0,6.0,1.0,2.0
1701540500.9790099,5.0,46.0,-17.0,-27.0,-7.0,-7.0,-8.0,-2.0
1701540500.9790099,6.0,2.0,-40.0,-7.0,-2.0,-8.0,-10.0,2.0
1701540500.9790099,-23.0,52.0,23.0,-4.0,-5.0,2.0,1.0,-4.0
1701540501.0387123,-6.0,-48.0,12.0,-18.0,-4.0,0.0,-1.0,2.0
1701540501.0387123,2.0,-41.0,39.0,58.0,28.0,10.0,5.0,1.0
1701540501.0387123,-7.0,63.0,38.0,-5.0,-5.0,-3.0,-4.0,-1.0
1701540501.0387123,10.0,-16.0,-35.0,8.0,-2.0,-1.0,4.0,-1.0
1701540501.0387123,1.0,11.0,8.0,-18.0,-8.0,0.0,1.0,6.0
1701540501.0387123,-7.0,-46.0,-57.0,-21.0,-5.0,2.0,0.0,-10.0
1701540501.0387123,-10.0,-9.0,20.0,-9.0,-8.0,2.0,4.0,3.0
1701540501.0387123,13.0,-3.0,39.0,10.0,0.0,-4.0,-3.0,4.0
1701540501.0452113,8.0,25.0,-17.0,0.0,-2.0,-14.0,-17.0,-6.0
1701540501.0452113,38.0,3.0,25.0,4.0,4.0,34.0,46.0,14.0
1701540501.0454252,29.0,-17.0,-19.0,1.0,0.0,-3.0,-10.0,-4.0
1701540501.046425,3.0,13.0,-11.0,-8.0,-1.0,-4.0,-11.0,-2.0
1701540501.082438,-23.0,3.0,-12.0,7.0,0.0,-7.0,-12.0,2.0
1701540501.082438,-4.0,12.0,22.0,-6.0,-10.0,-28.0,-22.0,-1.0
1701540501.082438,3.0,-4.0,13.0,2.0,7.0,37.0,57.0,24.0
1701540501.082438,-4.0,-15.0,24.0,7.0,-1.0,3.0,-7.0,-11.0
1701540501.082438,5.0,7.0,-44.0,-13.0,-4.0,6.0,5.0,1.0
1701540501.082438,-10.0,0.0,-19.0,-8.0,-7.0,-16.0,-17.0,-5.0
1701540501.082438,-14.0,10.0,-17.0,1.0,-1.0,-10.0,-12.0,-4.0
1701540501.082438,4.0,-27.0,38.0,8.0,0.0,-3.0,1.0,-5.0
1701540501.1037862,-13.0,8.0,-16.0,-22.0,-4.0,2.0,6.0,0.0
1701540501.1037862,-12.0,33.0,20.0,8.0,-11.0,-8.0,-6.0,-10.0
1701540501.1037862,-4.0,-28.0,-24.0,3.0,0.0,-9.0,-14.0,-1.0
1701540501.1037862,9.0,3.0,7.0,-6.0,0.0,5.0,7.0,1.0
1701540501.15937,3.0,-19.0,-43.0,2.0,3.0,-2.0,-2.0,-6.0
1701540501.15937,-31.0,-48.0,-9.0,-1.0,4.0,5.0,9.0,-1.0
1701540501.15937,-2.0,23.0,-4.0,-13.0,-6.0,-6.0,-21.0,-8.0
1701540501.15937,-17.0,-4.0,58.0,15.0,0.0,-8.0,1.0,-6.0
1701540501.15937,-2.0,-1.0,-92.0,-25.0,-5.0,2.0,1.0,-1.0
1701540501.15937,6.0,42.0,73.0,0.0,-5.0,-1.0,0.0,-2.0
1701540501.15937,-10.0,-38.0,18.0,7.0,4.0,-3.0,-1.0,10.0
1701540501.15937,-11.0,10.0,-33.0,-11.0,-3.0,-4.0,-6.0,-8.0
1701540501.1644378,20.0,-22.0,52.0,24.0,4.0,11.0,14.0,14.0
1701540501.1644378,2.0,-2.0,73.0,-1.0,-1.0,0.0,-2.0,-7.0
1701540501.1694374,0.0,32.0,18.0,-13.0,-5.0,-8.0,-8.0,-2.0
1701540501.1694374,13.0,-29.0,29.0,34.0,12.0,4.0,5.0,16.0
1701540501.1813993,-9.0,46.0,48.0,-41.0,-10.0,-3.0,-3.0,-36.0
1701540501.1813993,-16.0,-15.0,-35.0,3.0,-2.0,-4.0,-3.0,32.0
1701540501.187874,44.0,4.0,-15.0,18.0,2.0,1.0,1.0,-2.0
1701540501.187874,13.0,-11.0,-50.0,16.0,-2.0,-3.0,-2.0,13.0
1701540501.1986954,-5.0,2.0,27.0,8.0,7.0,2.0,2.0,-7.0
1701540501.1986954,5.0,0.0,-38.0,-13.0,-4.0,-3.0,-31.0,-11.0
1701540501.1986954,-11.0,-14.0,-11.0,-8.0,-4.0,-11.0,15.0,18.0
1701540501.1986954,-14.0,10.0,-13.0,-1.0,0.0,17.0,17.0,0.0
1701540501.2613146,-7.0,-3.0,22.0,21.0,-1.0,-5.0,-5.0,3.0
1701540501.2613146,10.0,-3.0,-61.0,-19.0,-2.0,1.0,-6.0,-11.0
1701540501.2613146,-18.0,-1.0,9.0,3.0,-4.0,-5.0,-16.0,-8.0
1701540501.2613146,14.0,16.0,-7.0,-18.0,-2.0,-1.0,2.0,-7.0
1701540501.2613146,-7.0,-41.0,14.0,-4.0,-3.0,-1.0,3.0,2.0
1701540501.2613146,-1.0,-4.0,-20.0,-4.0,-1.0,0.0,7.0,-5.0
1701540501.2613146,-15.0,-30.0,36.0,-5.0,-7.0,1.0,0.0,-10.0
1701540501.2613146,6.0,71.0,16.0,-10.0,14.0,-1.0,-6.0,-2.0
1701540501.2613146,9.0,34.0,-30.0,46.0,33.0,8.0,-3.0,1.0
1701540501.2613146,-6.0,-71.0,-44.0,-30.0,-28.0,-10.0,6.0,-3.0
1701540501.262314,-5.0,46.0,25.0,-28.0,4.0,8.0,0.0,-5.0
1701540501.262314,2.0,12.0,72.0,77.0,42.0,8.0,1.0,14.0
1701540501.3151937,12.0,-9.0,27.0,10.0,-14.0,-5.0,-1.0,-4.0
1701540501.3161998,-25.0,-11.0,-1.0,25.0,10.0,3.0,6.0,6.0
1701540501.3161998,-12.0,-11.0,-17.0,-35.0,-14.0,-8.0,-3.0,-20.0
1701540501.3161998,-6.0,-34.0,-67.0,-67.0,-30.0,-6.0,-10.0,-3.0
1701540501.3207457,0.0,15.0,0.0,-4.0,-4.0,-6.0,-3.0,2.0
1701540501.3207457,11.0,18.0,24.0,-3.0,4.0,4.0,6.0,4.0
1701540501.3207457,1.0,-5.0,-12.0,5.0,-4.0,-2.0,18.0,32.0
1701540501.3207457,-7.0,6.0,0.0,2.0,-2.0,0.0,14.0,-22.0
1701540501.3211286,-2.0,5.0,-5.0,11.0,0.0,-3.0,-27.0,-8.0
1701540501.3211286,-7.0,-13.0,-7.0,-30.0,-11.0,-2.0,0.0,-7.0
1701540501.3221276,-3.0,-5.0,-7.0,21.0,11.0,0.0,-10.0,-4.0
1701540501.3225923,4.0,-3.0,1.0,8.0,-2.0,0.0,19.0,16.0
1701540501.3446825,2.0,-16.0,23.0,-24.0,-11.0,-3.0,-8.0,1.0
1701540501.3446825,15.0,12.0,20.0,5.0,2.0,-2.0,2.0,-16.0
1701540501.3446825,-13.0,12.0,-33.0,13.0,7.0,3.0,12.0,-1.0
1701540501.3446825,13.0,-3.0,49.0,-5.0,-10.0,-21.0,-34.0,19.0
1701540501.3596785,-34.0,-15.0,0.0,-7.0,-10.0,2.0,5.0,2.0
1701540501.3596785,16.0,10.0,43.0,18.0,13.0,23.0,39.0,6.0
1701540501.361343,-2.0,-29.0,-9.0,9.0,-1.0,4.0,-10.0,-11.0
1701540501.361343,-27.0,11.0,-50.0,-24.0,-16.0,-7.0,-17.0,-28.0
1701540501.3797865,-14.0,6.0,3.0,-9.0,-1.0,-11.0,-26.0,7.0
1701540501.3797865,16.0,18.0,40.0,25.0,15.0,-7.0,20.0,6.0
1701540501.3797865,-5.0,-18.0,19.0,-4.0,-5.0,0.0,-13.0,-20.0
1701540501.3797865,-36.0,-98.0,-59.0,-6.0,-1.0,2.0,-4.0,19.0
1701540501.4337902,21.0,108.0,80.0,1.0,-8.0,-4.0,3.0,3.0
1701540501.4337902,-19.0,6.0,-125.0,-49.0,-14.0,-1.0,-14.0,-8.0
1701540501.4337902,13.0,14.0,34.0,32.0,5.0,-8.0,-6.0,-4.0
1701540501.4337902,-11.0,-25.0,-26.0,43.0,36.0,8.0,1.0,-6.0
1701540501.4337902,7.0,-46.0,15.0,-4.0,-7.0,-1.0,-4.0,-3.0
1701540501.4337902,1.0,-2.0,9.0,-28.0,-20.0,-18.0,-15.0,3.0
1701540501.4337902,-5.0,-2.0,-10.0,-17.0,-11.0,-1.0,10.0,16.0
1701540501.4337902,10.0,19.0,8.0,-16.0,-16.0,12.0,5.0,-1.0
1701540501.435711,10.0,-10.0,-18.0,21.0,10.0,3.0,7.0,-2.0
1701540501.435711,0.0,8.0,38.0,11.0,-3.0,-10.0,-19.0,-11.0
1701540501.435711,-9.0,-12.0,-41.0,-13.0,0.0,-11.0,-30.0,-3.0
1701540501.435711,1.0,16.0,43.0,-6.0,-5.0,-4.0,10.0,-2.0
1701540501.4870706,-6.0,-27.0,-12.0,-12.0,-4.0,4.0,8.0,5.0
1701540501.4870706,8.0,15.0,-31.0,-31.0,-6.0,-7.0,-18.0,3.0
1701540501.4870706,0.0,-11.0,31.0,-25.0,-51.0,-5.0,-1.0,-4.0
1701540501.4881244,12.0,22.0,25.0,54.0,43.0,9.0,0.0,-2.0
1701540501.4881244,2.0,-55.0,-18.0,-16.0,-12.0,-3.0,13.0,0.0
1701540501.4881244,-3.0,22.0,44.0,25.0,20.0,10.0,2.0,-1.0
1701540501.4881244,-6.0,65.0,-20.0,15.0,34.0,1.0,6.0,-1.0
1701540501.4881244,3.0,-11.0,-44.0,-26.0,-29.0,-12.0,-6.0,-11.0
1701540501.527373,3.0,1.0,29.0,61.0,46.0,8.0,-3.0,0.0
1701540501.527373,2.0,-37.0,58.0,17.0,-6.0,1.0,5.0,1.0
1701540501.527373,29.0,0.0,-58.0,-39.0,-3.0,4.0,-3.0,-5.0
1701540501.527373,-53.0,11.0,101.0,-16.0,-17.0,-15.0,-11.0,8.0
1701540501.527373,73.0,-3.0,20.0,-9.0,-2.0,0.0,9.0,-4.0
1701540501.527373,0.0,-28.0,-49.0,28.0,6.0,3.0,4.0,1.0
1701540501.527373,-31.0,17.0,67.0,46.0,11.0,-25.0,-21.0,-28.0
1701540501.527373,9.0,46.0,-51.0,-31.0,-11.0,21.0,24.0,4.0
1701540501.5382226,41.0,-21.0,-13.0,-27.0,-17.0,9.0,21.0,4.0
1701540501.5382226,12.0,3.0,33.0,15.0,4.0,-11.0,-58.0,12.0
1701540501.5474262,-15.0,-67.0,-49.0,8.0,0.0,-8.0,19.0,-7.0
1701540501.5484252,-18.0,-23.0,17.0,-53.0,-22.0,-8.0,8.0,0.0
1701540501.5755374,12.0,16.0,3.0,0.0,3.0,6.0,16.0,-1.0
1701540501.5755374,-1.0,36.0,-10.0,26.0,9.0,11.0,18.0,4.0
1701540501.5755374,-1.0,-7.0,82.0,-8.0,10.0,-5.0,-30.0,-3.0
1701540501.5755374,8.0,-8.0,-91.0,-41.0,-17.0,-17.0,-18.0,-7.0
1701540501.5775466,-8.0,5.0,-10.0,5.0,0.0,-2.0,-2.0,12.0
1701540501.5775466,-14.0,-10.0,30.0,4.0,-3.0,-9.0,-16.0,-9.0
1701540501.5775466,4.0,0.0,46.0,9.0,-3.0,8.0,16.0,10.0
1701540501.5775466,12.0,-21.0,-2.0,13.0,4.0,-1.0,-8.0,-10.0
1701540501.6074877,-50.0,-34.0,-28.0,-17.0,-11.0,-9.0,-16.0,-13.0
1701540501.6074877,-8.0,46.0,-22.0,-22.0,-7.0,-3.0,15.0,-7.0
1701540501.6074877,-2.0,-9.0,24.0,19.0,5.0,10.0,-1.0,8.0
1701540501.6074877,25.0,2.0,-13.0,-24.0,0.0,2.0,2.0,-2.0
1701540501.6416628,5.0,-64.0,-49.0,2.0,1.0,-4.0,7.0,19.0
1701540501.6416628,12.0,60.0,-32.0,-5.0,-6.0,1.0,1.0,-16.0
1701540501.6416628,14.0,2.0,-37.0,-7.0,4.0,10.0,-1.0,6.0
1701540501.6416628,-4.0,-2.0,-12.0,13.0,0.0,-7.0,-4.0,0.0
1701540501.6427577,-7.0,6.0,11.0,-1.0,-5.0,-5.0,-4.0,-2.0
1701540501.6427577,-18.0,-111.0,35.0,-14.0,-4.0,5.0,11.0,7.0
1701540501.6427577,6.0,116.0,-15.0,4.0,3.0,5.0,3.0,1.0
1701540501.6427577,2.0,-16.0,-23.0,-9.0,-6.0,-10.0,-19.0,-20.0
1701540501.7007866,-54.0,12.0,9.0,-16.0,1.0,-4.0,-9.0,-7.0
1701540501.70193,-11.0,-54.0,19.0,14.0,-1.0,4.0,1.0,-22.0
1701540501.7065563,10.0,-15.0,-55.0,-8.0,0.0,-2.0,-4.0,0.0
1701540501.7065563,9.0,7.0,43.0,14.0,-13.0,0.0,-1.0,6.0
1701540501.7065563,2.0,21.0,-21.0,-37.0,2.0,-6.0,3.0,1.0
1701540501.7065563,3.0,-2.0,-4.0,24.0,2.0,-1.0,-9.0,6.0
1701540501.7065563,-6.0,-47.0,1.0,32.0,24.0,7.0,9.0,2.0
1701540501.7075555,2.0,15.0,-48.0,-33.0,-31.0,-8.0,-4.0,-5.0
1701540501.7107968,-7.0,5.0,27.0,54.0,47.0,15.0,-4.0,-3.0
1701540501.7107968,0.0,16.0,-16.0,-66.0,-42.0,-15.0,-3.0,-2.0
1701540501.7107968,-3.0,-2.0,21.0,80.0,31.0,13.0,14.0,7.0
1701540501.7107968,9.0,-17.0,10.0,-39.0,-6.0,-4.0,-2.0,4.0
1701540501.7277477,3.0,16.0,8.0,9.0,-17.0,-8.0,-16.0,-13.0
1701540501.7277477,-4.0,-3.0,-17.0,-30.0,-2.0,3.0,15.0,12.0
1701540501.7282195,0.0,-13.0,-23.0,-25.0,-15.0,-3.0,0.0,-8.0
1701540501.7292185,-44.0,-1.0,14.0,83.0,25.0,5.0,-5.0,-12.0
1701540501.779096,58.0,8.0,25.0,-8.0,-14.0,-2.0,1.0,-8.0
1701540501.779096,-14.0,5.0,-32.0,-57.0,6.0,0.0,2.0,11.0
1701540501.779096,-12.0,-11.0,52.0,-11.0,-22.0,-7.0,-6.0,-10.0
1701540501.779096,9.0,-4.0,-4.0,76.0,30.0,6.0,2.0,2.0
1701540501.779096,-6.0,7.0,4.0,-36.0,-24.0,-10.0,0.0,5.0
1701540501.779096,2.0,5.0,4.0,57.0,29.0,11.0,4.0,0.0
1701540501.779096,3.0,-11.0,-29.0,-15.0,10.0,-2.0,0.0,-3.0
1701540501.779096,7.0,-18.0,35.0,-12.0,-2.0,-1.0,-1.0,2.0
1701540501.7953837,-21.0,35.0,-17.0,7.0,-8.0,-1.0,1.0,-4.0
1701540501.7953837,-8.0,-9.0,-20.0,-16.0,-1.0,-6.0,-5.0,-9.0
1701540501.7953837,13.0,-40.0,-28.0,-23.0,-14.0,-3.0,1.0,8.0
1701540501.7953837,9.0,74.0,36.0,-8.0,-2.0,2.0,-4.0,-5.0
1701540501.7974036,-21.0,-37.0,-35.0,-1.0,1.0,4.0,-3.0,1.0
1701540501.7974036,-6.0,27.0,4.0,8.0,-1.0,0.0,-2.0,0.0
1701540501.8022046,-11.0,-26.0,62.0,-8.0,-9.0,-5.0,-2.0,-1.0
1701540501.8022046,8.0,-18.0,-38.0,-12.0,-3.0,-3.0,3.0,4.0
1701540501.824608,-18.0,-27.0,12.0,-12.0,-12.0,-4.0,-19.0,-8.0
1701540501.824608,3.0,11.0,-77.0,7.0,2.0,2.0,17.0,4.0
1701540501.824608,-3.0,1.0,7.0,0.0,-1.0,-2.0,-5.0,-3.0
1701540501.8256056,19.0,-3.0,17.0,-4.0,3.0,3.0,3.0,3.0
1701540501.88443,-14.0,-20.0,-14.0,-9.0,-2.0,-4.0,-5.0,-4.0
1701540501.885428,3.0,-21.0,38.0,24.0,2.0,-1.0,-7.0,-8.0
1701540501.8967922,3.0,19.0,-45.0,-12.0,-7.0,0.0,0.0,5.0
1701540501.8967922,-2.0,-10.0,72.0,-2.0,-3.0,-3.0,-1.0,-2.0
1701540501.8967922,-7.0,8.0,-19.0,7.0,3.0,-2.0,4.0,6.0
1701540501.8967922,14.0,-7.0,6.0,-1.0,-6.0,2.0,-8.0,1.0
1701540501.8967922,8.0,21.0,-13.0,-14.0,10.0,3.0,12.0,5.0
1701540501.8967922,-15.0,-20.0,-5.0,-15.0,-10.0,-1.0,1.0,9.0
1701540501.900059,1.0,14.0,12.0,7.0,3.0,-5.0,-8.0,-10.0
1701540501.900059,4.0,9.0,36.0,9.0,4.0,-1.0,-1.0,-1.0
1701540501.900059,0.0,-7.0,-13.0,-25.0,-18.0,-4.0,-6.0,-1.0
1701540501.900059,-3.0,-6.0,-7.0,19.0,25.0,1.0,4.0,3.0
1701540501.9183307,-1.0,12.0,0.0,0.0,-11.0,2.0,6.0,4.0
1701540501.9183307,1.0,-14.0,0.0,11.0,11.0,2.0,1.0,0.0
1701540501.9193406,5.0,1.0,-11.0,10.0,2.0,-3.0,-3.0,-2.0
1701540501.9193406,-2.0,-2.0,-2.0,-32.0,-14.0,-3.0,-3.0,-6.0
1701540501.9214706,-4.0,1.0,-12.0,-14.0,-11.0,-1.0,2.0,-2.0
1701540501.9214706,21.0,7.0,3.0,-1.0,1.0,0.0,-3.0,-5.0
1701540501.922284,10.0,-3.0,4.0,3.0,2.0,4.0,1.0,-2.0
1701540501.922284,-21.0,8.0,-5.0,25.0,-1.0,-5.0,-13.0,-9.0
1701540501.9767196,-36.0,-7.0,5.0,-1.0,6.0,1.0,10.0,-25.0
1701540501.9777184,87.0,-65.0,-21.0,-28.0,-16.0,-2.0,8.0,29.0
1701540501.9777184,-14.0,81.0,-4.0,-1.0,0.0,-1.0,-4.0,-7.0
1701540501.9777184,0.0,0.0,-19.0,-12.0,-4.0,-2.0,-4.0,-2.0
1701540501.9777184,8.0,-3.0,6.0,13.0,10.0,3.0,0.0,4.0
1701540501.9777184,-36.0,-7.0,-3.0,8.0,-1.0,-4.0,-3.0,-10.0
1701540501.9777184,-2.0,-52.0,10.0,-30.0,-14.0,0.0,3.0,2.0
1701540501.9777184,13.0,18.0,6.0,16.0,10.0,3.0,4.0,2.0
1701540501.978759,2.0,16.0,-6.0,2.0,7.0,-1.0,-5.0,3.0
1701540501.978759,-28.0,-8.0,-4.0,1.0,2.0,2.0,0.0,-7.0
1701540501.978759,3.0,-12.0,9.0,21.0,-4.0,-8.0,-5.0,18.0
1701540501.978759,22.0,17.0,-34.0,-41.0,-11.0,7.0,8.0,-4.0
1701540502.03487,-9.0,-14.0,15.0,4.0,4.0,-2.0,-2.0,3.0
1701540502.03487,-17.0,2.0,-2.0,-2.0,-13.0,-6.0,-8.0,-4.0
1701540502.0358684,4.0,-17.0,52.0,1.0,-2.0,-1.0,7.0,-2.0
1701540502.0358684,-4.0,-9.0,-81.0,-2.0,-3.0,-2.0,-3.0,-3.0
1701540502.037641,17.0,1.0,14.0,-3.0,-6.0,1.0,6.0,11.0
1701540502.037641,-14.0,22.0,11.0,2.0,7.0,-1.0,-9.0,-14.0
1701540502.037641,-12.0,2.0,-17.0,-11.0,-26.0,-11.0,-7.0,-3.0
1701540502.037641,10.0,-7.0,14.0,-28.0,12.0,5.0,2.0,1.0
1701540502.0435314,8.0,-11.0,48.0,37.0,8.0,2.0,1.0,2.0
1701540502.0435314,-15.0,7.0,-88.0,-22.0,-9.0,-4.0,-3.0,-4.0
1701540502.0435314,4.0,5.0,2.0,14.0,11.0,11.0,7.0,-2.0
1701540502.0435314,-2.0,-19.0,21.0,29.0,-16.0,-5.0,-9.0,-1.0
1701540502.0949392,1.0,13.0,22.0,-90.0,-12.0,-2.0,6.0,-3.0
1701540502.0949392,-9.0,5.0,26.0,68.0,21.0,2.0,-3.0,2.0
1701540502.0949392,0.0,-14.0,-18.0,-11.0,-9.0,-6.0,-3.0,-9.0
1701540502.0949392,15.0,0.0,3.0,6.0,-1.0,-3.0,-3.0,-3.0
1701540502.0949392,-8.0,-20.0,0.0,23.0,0.0,0.0,1.0,10.0
1701540502.0949392,8.0,27.0,16.0,-4.0,-4.0,-4.0,-7.0,-3.0
1701540502.0949392,-18.0,17.0,-28.0,-32.0,4.0,2.0,0.0,-3.0
1701540502.0949392,-10.0,1.0,31.0,18.0,4.0,-6.0,-5.0,-15.0
1701540502.096672,-37.0,-14.0,-71.0,11.0,6.0,-2.0,-1.0,-20.0
1701540502.096672,46.0,6.0,-1.0,-38.0,-21.0,-3.0,-16.0,12.0
1701540502.096672,13.0,-13.0,8.0,7.0,12.0,4.0,8.0,-5.0
1701540502.096672,-17.0,-12.0,-6.0,-11.0,-1.0,0.0,-5.0,5.0
1701540502.162223,13.0,-3.0,-11.0,1.0,-10.0,-6.0,5.0,3.0
1701540502.162223,-27.0,-1.0,-27.0,16.0,9.0,3.0,3.0,-9.0
1701540502.162223,-4.0,16.0,87.0,6.0,-4.0,-2.0,-11.0,-1.0
1701540502.162223,2.0,-2.0,-39.0,-6.0,-1.0,-4.0,0.0,0.0
1701540502.163229,9.0,-10.0,3.0,7.0,-4.0,5.0,2.0,-1.0
1701540502.163229,-16.0,-23.0,21.0,2.0,6.0,2.0,-2.0,1.0
1701540502.163229,7.0,28.0,15.0,51.0,10.0,2.0,-1.0,4.0
1701540502.163229,-12.0,27.0,4.0,-78.0,-16.0,-5.0,3.0,-4.0
1701540502.163229,9.0,6.0,18.0,1.0,-3.0,-2.0,-8.0,2.0
1701540502.163229,0.0,-11.0,15.0,-6.0,1.0,-1.0,4.0,4.0
1701540502.163229,-9.0,-20.0,-13.0,9.0,-2.0,-6.0,-3.0,-15.0
1701540502.163229,-5.0,-18.0,4.0,24.0,4.0,-2.0,-4.0,1.0
1701540502.2084112,6.0,25.0,-41.0,-4.0,1.0,8.0,3.0,3.0
1701540502.2084112,5.0,13.0,38.0,-12.0,-7.0,-2.0,-10.0,-6.0
1701540502.2084112,-1.0,-2.0,-2.0,0.0,6.0,5.0,2.0,-5.0
1701540502.2084112,32.0,6.0,16.0,18.0,4.0,5.0,27.0,18.0
1701540502.2084112,-19.0,-5.0,-9.0,-21.0,-6.0,-9.0,-12.0,-6.0
1701540502.2084112,32.0,6.0,7.0,11.0,0.0,-17.0,-12.0,1.0
1701540502.2084112,-6.0,-11.0,-49.0,-20.0,1.0,17.0,5.0,14.0
1701540502.2084112,-17.0,-5.0,20.0,9.0,3.0,-1.0,16.0,-12.0
1701540502.2187207,5.0,-2.0,5.0,9.0,2.0,32.0,25.0,11.0
1701540502.2187207,-11.0,3.0,-7.0,-19.0,-10.0,-8.0,-34.0,-8.0
1701540502.2767458,-17.0,-9.0,-22.0,-1.0,7.0,-3.0,7.0,0.0
1701540502.2767458,22.0,0.0,6.0,-1.0,-8.0,-13.0,11.0,28.0
1701540502.2767458,-27.0,10.0,21.0,12.0,4.0,-2.0,-7.0,2.0
1701540502.2777486,-29.0,-13.0,-1.0,0.0,-2.0,3.0,13.0,-4.0
1701540502.2777486,15.0,-12.0,-4.0,-9.0,-1.0,-7.0,-10.0,-1.0
1701540502.2777486,0.0,5.0,12.0,0.0,2.0,2.0,-7.0,-6.0
1701540502.2777486,10.0,7.0,19.0,-30.0,-12.0,-17.0,-15.0,-14.0
1701540502.2777486,3.0,-19.0,-32.0,89.0,72.0,18.0,15.0,8.0
1701540502.2777486,-4.0,48.0,-5.0,-29.0,-28.0,-14.0,-7.0,-4.0
1701540502.2777486,-12.0,-73.0,-81.0,25.0,17.0,12.0,-7.0,-8.0
1701540502.2835605,34.0,94.0,59.0,-3.0,-5.0,-5.0,-2.0,6.0
1701540502.2835605,-16.0,58.0,-3.0,-24.0,-23.0,-10.0,1.0,-13.0
1701540502.2962852,-3.0,-46.0,-47.0,-37.0,-6.0,-5.0,-7.0,1.0
1701540502.297285,11.0,-14.0,50.0,36.0,11.0,-1.0,-8.0,-4.0
1701540502.2983086,-9.0,-41.0,-2.0,-21.0,-16.0,-11.0,-8.0,-2.0
1701540502.2983086,-11.0,36.0,70.0,-6.0,-15.0,2.0,14.0,1.0
1701540502.2983086,0.0,30.0,-47.0,36.0,18.0,-3.0,-6.0,-7.0
1701540502.2983086,-4.0,-21.0,59.0,-19.0,-15.0,3.0,-4.0,0.0
1701540502.3271449,14.0,-41.0,-14.0,24.0,6.0,0.0,0.0,2.0
1701540502.3271449,7.0,-13.0,-2.0,-17.0,-4.0,2.0,7.0,6.0
1701540502.328205,-8.0,-3.0,3.0,9.0,1.0,0.0,9.0,11.0
1701540502.328205,-2.0,12.0,0.0,-12.0,-7.0,0.0,-6.0,-4.0
1701540502.3673575,8.0,12.0,-6.0,19.0,11.0,-2.0,-20.0,0.0
1701540502.3673575,-28.0,-23.0,-14.0,5.0,-7.0,-33.0,10.0,-9.0
1701540502.3673575,26.0,-1.0,-16.0,-48.0,-18.0,26.0,2.0,2.0
1701540502.3673575,-18.0,3.0,-21.0,4.0,3.0,1.0,25.0,-5.0
1701540502.3673575,20.0,-4.0,-34.0,-20.0,-9.0,8.0,18.0,5.0
1701540502.3673575,38.0,4.0,16.0,4.0,5.0,16.0,11.0,-9.0
1701540502.3673575,-6.0,-15.0,19.0,17.0,9.0,-25.0,-27.0,-21.0
1701540502.3673575,-23.0,12.0,-2.0,-14.0,-9.0,6.0,9.0,9.0
1701540502.3833601,29.0,17.0,5.0,14.0,3.0,-16.0,-26.0,-8.0
1701540502.3833601,34.0,-18.0,-57.0,-22.0,-12.0,-9.0,-21.0,-13.0
1701540502.3833601,-8.0,-11.0,-8.0,-1.0,8.0,4.0,-1.0,-3.0
1701540502.3833601,3.0,3.0,-9.0,1.0,-6.0,-4.0,-21.0,-3.0
1701540502.41145,-11.0,-28.0,15.0,-41.0,-20.0,-12.0,1.0,-5.0
1701540502.41145,-30.0,35.0,6.0,46.0,31.0,17.0,2.0,5.0
1701540502.4135242,-1.0,-4.0,-48.0,23.0,12.0,6.0,10.0,0.0
1701540502.4135242,6.0,-41.0,-26.0,-15.0,-19.0,-13.0,-9.0,-4.0
1701540502.419611,-31.0,2.0,64.0,13.0,6.0,-2.0,3.0,1.0
1701540502.419611,-7.0,59.0,-53.0,-21.0,10.0,7.0,11.0,2.0
1701540502.4246938,7.0,-4.0,62.0,15.0,-3.0,-1.0,1.0,5.0
1701540502.4254148,2.0,-43.0,9.0,14.0,9.0,-3.0,-10.0,0.0
1701540502.444498,-13.0,-62.0,-4.0,-13.0,-11.0,2.0,2.0,-4.0
1701540502.444498,-1.0,32.0,9.0,-13.0,-13.0,4.0,1.0,12.0
1701540502.444498,1.0,46.0,49.0,-30.0,-11.0,-13.0,-5.0,7.0
1701540502.448175,0.0,-9.0,-29.0,-8.0,-1.0,1.0,-5.0,-4.0
1701540502.4628723,2.0,-22.0,-19.0,23.0,5.0,2.0,5.0,1.0
1701540502.4628723,3.0,-47.0,19.0,-30.0,2.0,3.0,-4.0,-11.0
1701540502.4710126,-35.0,-16.0,53.0,70.0,1.0,0.0,3.0,5.0
1701540502.4710126,24.0,29.0,17.0,-44.0,-18.0,-4.0,-1.0,10.0
1701540502.4783354,6.0,19.0,-20.0,70.0,20.0,6.0,5.0,11.0
1701540502.4783354,-45.0,-42.0,-12.0,-66.0,-20.0,-6.0,-12.0,-19.0
1701540502.4783354,-10.0,4.0,-14.0,80.0,13.0,5.0,15.0,29.0
1701540502.4783354,-18.0,7.0,-6.0,-109.0,-21.0,-11.0,-16.0,-43.0
1701540502.5071793,4.0,31.0,59.0,57.0,17.0,6.0,3.0,2.0
1701540502.5071793,-20.0,-22.0,-50.0,-7.0,-8.0,-4.0,-5.0,-1.0
1701540502.5081816,6.0,-29.0,5.0,-12.0,-6.0,-7.0,-16.0,-13.0
1701540502.5081816,-30.0,42.0,-18.0,34.0,13.0,-14.0,-28.0,-1.0
1701540502.5160007,-2.0,7.0,-48.0,-48.0,-14.0,3.0,7.0,-8.0
1701540502.5160007,22.0,-26.0,54.0,10.0,-6.0,9.0,13.0,0.0
1701540502.5279589,-12.0,-13.0,18.0,-36.0,-3.0,-6.0,-3.0,-8.0
1701540502.5279589,31.0,9.0,39.0,42.0,10.0,6.0,-1.0,10.0
1701540502.5719538,-6.0,26.0,-47.0,-19.0,-4.0,-17.0,-29.0,-11.0
1701540502.5719538,-18.0,-20.0,-1.0,-3.0,-10.0,-11.0,-11.0,-2.0
1701540502.5719538,22.0,-17.0,-7.0,-12.0,-9.0,-2.0,-16.0,-22.0
1701540502.5719538,-26.0,6.0,14.0,11.0,1.0,-3.0,-2.0,4.0
1701540502.5719538,2.0,24.0,-9.0,-17.0,-15.0,-3.0,3.0,-5.0
1701540502.5719538,11.0,13.0,17.0,29.0,39.0,12.0,11.0,13.0
1701540502.5719538,-4.0,-5.0,-75.0,-18.0,3.0,2.0,6.0,1.0
1701540502.5719538,2.0,4.0,28.0,12.0,0.0,3.0,3.0,-6.0
1701540502.600242,-18.0,-38.0,-4.0,-14.0,-2.0,0.0,-2.0,9.0
1701540502.600242,10.0,16.0,6.0,23.0,4.0,0.0,12.0,16.0
1701540502.600242,5.0,8.0,13.0,-19.0,-7.0,-5.0,-9.0,-8.0
1701540502.600242,8.0,-18.0,-28.0,19.0,13.0,11.0,3.0,4.0
1701540502.6023285,-3.0,30.0,6.0,-14.0,-7.0,-1.0,30.0,3.0
1701540502.6023285,8.0,1.0,-6.0,-6.0,-11.0,-1.0,2.0,18.0
1701540502.6023285,-11.0,-28.0,8.0,-4.0,0.0,-1.0,-13.0,-30.0
1701540502.6023285,-21.0,20.0,-19.0,3.0,-9.0,-6.0,5.0,10.0
1701540502.641092,-13.0,-36.0,5.0,0.0,9.0,2.0,-16.0,-14.0
1701540502.641092,-1.0,22.0,-4.0,2.0,-9.0,2.0,7.0,1.0
1701540502.642162,22.0,23.0,4.0,-18.0,-6.0,-9.0,1.0,11.0
1701540502.642162,-21.0,-27.0,-4.0,10.0,6.0,28.0,31.0,2.0
1701540502.6469512,0.0,-10.0,-5.0,-9.0,-12.0,-10.0,-10.0,-6.0
1701540502.6469512,1.0,-34.0,36.0,20.0,6.0,1.0,-1.0,10.0
1701540502.6469512,2.0,63.0,-79.0,-2.0,12.0,4.0,0.0,2.0
1701540502.6507835,26.0,4.0,42.0,-28.0,-17.0,-8.0,-8.0,1.0
1701540502.6618927,4.0,-41.0,-4.0,62.0,38.0,5.0,-3.0,1.0
1701540502.6618927,0.0,56.0,43.0,48.0,31.0,9.0,-1.0,-5.0
1701540502.6618927,2.0,2.0,-9.0,-16.0,-17.0,-4.0,-2.0,4.0
1701540502.6618927,4.0,7.0,56.0,12.0,11.0,2.0,1.0,-1.0
1701540502.7110171,1.0,19.0,-54.0,-7.0,-8.0,4.0,8.0,19.0
1701540502.7110171,-2.0,-76.0,32.0,-71.0,-33.0,-14.0,-10.0,-4.0
1701540502.7110171,-8.0,11.0,76.0,65.0,11.0,6.0,6.0,-4.0
1701540502.7110171,-14.0,44.0,-37.0,-69.0,-15.0,-8.0,-4.0,-10.0
1701540502.7110171,-15.0,-52.0,8.0,10.0,-9.0,-4.0,-2.0,28.0
1701540502.7120192,12.0,-5.0,-69.0,39.0,5.0,1.0,-2.0,-7.0
1701540502.7120192,-4.0,89.0,40.0,-24.0,-1.0,0.0,6.0,19.0
1701540502.7120192,31.0,-37.0,-51.0,-30.0,-12.0,-7.0,-1.0,22.0
1701540502.7247152,-13.0,10.0,-30.0,-17.0,3.0,1.0,-6.0,-20.0
1701540502.7247152,9.0,-26.0,-49.0,9.0,-6.0,-1.0,0.0,3.0
1701540502.7247152,-21.0,-46.0,-44.0,-45.0,-2.0,3.0,-3.0,12.0
1701540502.7247152,4.0,20.0,83.0,62.0,4.0,-8.0,-2.0,-15.0
1701540502.7802532,-35.0,-3.0,-60.0,-24.0,5.0,3.0,-1.0,-16.0
1701540502.7802532,0.0,19.0,-15.0,-39.0,-12.0,-7.0,-3.0,11.0
1701540502.7802532,-1.0,-48.0,25.0,21.0,2.0,2.0,-2.0,-17.0
1701540502.7802532,-12.0,19.0,-15.0,13.0,2.0,-4.0,-9.0,5.0
1701540502.7806668,13.0,21.0,31.0,-16.0,-4.0,-2.0,0.0,-11.0
1701540502.7806668,-28.0,-58.0,14.0,21.0,-6.0,0.0,0.0,-21.0
1701540502.7806668,11.0,35.0,-15.0,-14.0,-3.0,-4.0,1.0,6.0
1701540502.7806668,-15.0,2.0,10.0,21.0,9.0,4.0,1.0,-5.0
1701540502.7850864,21.0,12.0,23.0,7.0,1.0,-5.0,0.0,1.0
1701540502.7850864,-11.0,8.0,-5.0,0.0,-5.0,-23.0,-31.0,-12.0
1701540502.7850864,31.0,-41.0,4.0,-23.0,-7.0,37.0,49.0,8.0
1701540502.7850864,6.0,-21.0,36.0,7.0,3.0,-4.0,0.0,-19.0
1701540502.806981,-2.0,9.0,-80.0,-22.0,-7.0,-6.0,-8.0,-8.0
1701540502.806981,-5.0,12.0,89.0,-11.0,-4.0,-15.0,-16.0,-6.0
1701540502.8077352,1.0,-11.0,18.0,14.0,0.0,-12.0,-14.0,-4.0
1701540502.8077352,2.0,4.0,-33.0,7.0,-6.0,1.0,-2.0,5.0
1701540502.8302019,1.0,-7.0,14.0,-16.0,-4.0,-4.0,-3.0,1.0
1701540502.8302019,20.0,16.0,-31.0,-9.0,15.0,12.0,7.0,-1.0
1701540502.8302019,-40.0,-10.0,8.0,40.0,5.0,-5.0,-3.0,-9.0
1701540502.8312008,7.0,-2.0,-19.0,25.0,14.0,15.0,15.0,12.0
1701540502.8813598,10.0,-15.0,28.0,-41.0,-31.0,-24.0,-19.0,-2.0
1701540502.8813598,-5.0,39.0,17.0,43.0,14.0,12.0,10.0,3.0
1701540502.8813598,2.0,-28.0,-5.0,-25.0,-13.0,-6.0,-11.0,-11.0
1701540502.8823595,-1.0,3.0,-19.0,-11.0,7.0,-1.0,6.0,6.0
1701540502.8823595,-7.0,-44.0,-3.0,4.0,-2.0,5.0,8.0,4.0
1701540502.8823595,-2.0,36.0,-20.0,-30.0,-22.0,-3.0,-10.0,-8.0
1701540502.8823595,0.0,-1.0,-10.0,1.0,5.0,0.0,13.0,5.0
1701540502.8823595,-1.0,-11.0,-9.0,17.0,2.0,-3.0,-10.0,0.0
1701540502.8823595,25.0,20.0,22.0,-3.0,1.0,-2.0,-3.0,-11.0
1701540502.8823595,18.0,-19.0,43.0,5.0,-3.0,12.0,16.0,0.0
1701540502.8823595,7.0,-8.0,-76.0,-4.0,-2.0,-8.0,-7.0,24.0
1701540502.8823595,0.0,5.0,44.0,-20.0,-11.0,-3.0,-8.0,-15.0
1701540502.9463499,-23.0,17.0,56.0,30.0,20.0,10.0,6.0,3.0
1701540502.9463499,3.0,-18.0,-2.0,-20.0,-14.0,-1.0,10.0,7.0
1701540502.9463499,14.0,-5.0,48.0,22.0,21.0,5.0,0.0,-1.0
1701540502.9463499,-5.0,-41.0,18.0,73.0,2.0,-1.0,2.0,7.0
1701540502.9463499,1.0,103.0,-50.0,-62.0,-24.0,-7.0,-12.0,-21.0
1701540502.9463499,-2.0,-65.0,13.0,-5.0,-6.0,3.0,0.0,4.0
1701540502.9463499,-3.0,33.0,83.0,73.0,37.0,3.0,-1.0,-5.0
1701540502.9463499,-4.0,-34.0,-86.0,-79.0,7.0,-4.0,-9.0,-2.0
1701540502.9479854,-11.0,-24.0,-43.0,30.0,6.0,3.0,5.0,3.0
1701540502.9479854,-19.0,5.0,-77.0,-63.0,-21.0,-5.0,1.0,-3.0
1701540502.9479854,-15.0,-10.0,66.0,24.0,-15.0,-4.0,-5.0,-31.0
1701540502.9479854,0.0,18.0,51.0,-35.0,-9.0,-5.0,-10.0,22.0
1701540502.9940038,-1.0,-7.0,33.0,18.0,6.0,2.0,6.0,-4.0
1701540502.9940038,-16.0,47.0,-91.0,-18.0,1.0,-2.0,2.0,-9.0
1701540502.9940038,33.0,-20.0,-53.0,11.0,1.0,3.0,2.0,3.0
1701540502.9940038,2.0,37.0,-3.0,5.0,5.0,8.0,10.0,3.0
1701540502.9974198,-9.0,-36.0,18.0,-6.0,-6.0,0.0,-8.0,-4.0
1701540502.9974198,-7.0,-1.0,35.0,43.0,10.0,4.0,25.0,2.0
1701540502.9974198,-14.0,-17.0,1.0,-50.0,-16.0,-8.0,-9.0,-11.0
1701540502.9974198,6.0,19.0,-13.0,-7.0,-13.0,-10.0,-10.0,-14.0
1701540503.0117311,17.0,-5.0,-5.0,26.0,17.0,12.0,8.0,16.0
1701540503.0127406,7.0,-10.0,30.0,12.0,9.0,-1.0,-3.0,-9.0
1701540503.0127406,7.0,12.0,3.0,-26.0,-14.0,-2.0,7.0,11.0
1701540503.0127406,-13.0,1.0,5.0,-12.0,0.0,9.0,16.0,3.0
1701540503.0381398,-10.0,-2.0,-17.0,-9.0,-7.0,-10.0,-17.0,-11.0
1701540503.0381398,-6.0,0.0,33.0,43.0,14.0,-5.0,-7.0,-2.0
1701540503.0381398,13.0,-5.0,-24.0,-9.0,-2.0,-1.0,-3.0,0.0
1701540503.0381398,-30.0,-1.0,18.0,21.0,2.0,-2.0,-5.0,3.0
1701540503.0381398,54.0,-26.0,49.0,6.0,-1.0,2.0,4.0,3.0
1701540503.0381398,0.0,0.0,42.0,-8.0,-9.0,-3.0,-7.0,-14.0
1701540503.0381398,8.0,11.0,-85.0,-50.0,-14.0,-3.0,1.0,-4.0
1701540503.0381398,-3.0,36.0,-11.0,23.0,13.0,2.0,-4.0,-12.0
1701540503.0808072,-15.0,-3.0,32.0,-30.0,-2.0,0.0,1.0,1.0
1701540503.0808072,30.0,-44.0,93.0,7.0,-2.0,-2.0,-3.0,7.0
1701540503.0808072,-39.0,-2.0,65.0,13.0,3.0,0.0,-5.0,10.0
1701540503.0808072,-5.0,-18.0,4.0,14.0,-2.0,-3.0,-1.0,-13.0
1701540503.0808072,-15.0,22.0,-40.0,-11.0,0.0,0.0,0.0,9.0
1701540503.0808072,15.0,-56.0,-29.0,1.0,-9.0,-5.0,-5.0,4.0
1701540503.0840998,-19.0,57.0,-1.0,0.0,1.0,-4.0,-10.0,-9.0
1701540503.0840998,7.0,-4.0,-85.0,0.0,-2.0,-2.0,-4.0,3.0
1701540503.106002,2.0,-27.0,-17.0,-47.0,-17.0,2.0,6.0,-13.0
1701540503.106002,-6.0,22.0,-30.0,61.0,40.0,4.0,-3.0,3.0
1701540503.106002,5.0,-24.0,14.0,-18.0,-9.0,-3.0,-3.0,2.0
1701540503.106002,5.0,-10.0,-16.0,12.0,-2.0,-4.0,-1.0,1.0
1701540503.1610968,-16.0,1.0,25.0,21.0,-3.0,-8.0,-13.0,-9.0
1701540503.1610968,15.0,19.0,-51.0,-69.0,-21.0,10.0,-4.0,22.0
1701540503.1612973,47.0,10.0,0.0,22.0,7.0,4.0,32.0,-1.0
1701540503.1612973,-12.0,-35.0,13.0,-24.0,-10.0,5.0,-22.0,-22.0
1701540503.1635685,-5.0,4.0,0.0,3.0,0.0,0.0,20.0,15.0
1701540503.1635685,15.0,10.0,-5.0,-9.0,-8.0,-9.0,8.0,-1.0
1701540503.1635685,-35.0,-24.0,-23.0,-7.0,-10.0,-18.0,-52.0,-39.0
1701540503.1635685,13.0,-10.0,25.0,11.0,2.0,-3.0,-1.0,14.0
1701540503.1686027,17.0,21.0,-19.0,-3.0,4.0,5.0,2.0,4.0
1701540503.1686027,-12.0,-4.0,0.0,2.0,-4.0,-17.0,-20.0,2.0
1701540503.1686027,9.0,-4.0,5.0,-2.0,-1.0,7.0,19.0,16.0
1701540503.1686027,-3.0,-6.0,14.0,-7.0,-2.0,-5.0,1.0,-6.0
1701540503.188823,-6.0,1.0,-24.0,20.0,13.0,10.0,7.0,9.0
1701540503.188823,-11.0,16.0,57.0,-10.0,-4.0,2.0,10.0,-18.0
1701540503.1905274,-6.0,-34.0,9.0,-34.0,-12.0,1.0,-3.0,1.0
1701540503.1905274,-8.0,97.0,7.0,72.0,13.0,9.0,13.0,-2.0
1701540503.2389102,12.0,-31.0,-21.0,-3.0,4.0,-2.0,4.0,7.0
1701540503.2389102,-3.0,-17.0,-8.0,55.0,18.0,5.0,-5.0,6.0
1701540503.2389102,0.0,-31.0,-82.0,-29.0,-8.0,-3.0,-3.0,3.0
1701540503.2389102,9.0,-27.0,26.0,-23.0,-18.0,-8.0,-6.0,-10.0
1701540503.2389102,17.0,8.0,95.0,40.0,1.0,0.0,-1.0,14.0
1701540503.2389102,-28.0,40.0,-128.0,-55.0,-9.0,-8.0,-13.0,-12.0
1701540503.2389102,-23.0,7.0,106.0,-17.0,-4.0,-2.0,-5.0,5.0
1701540503.2389102,-10.0,5.0,57.0,-15.0,5.0,-5.0,-1.0,-23.0
1701540503.26081,-4.0,-21.0,-55.0,7.0,-1.0,-1.0,-5.0,-1.0
1701540503.26081,-18.0,-14.0,15.0,-20.0,-3.0,5.0,10.0,4.0
1701540503.26081,6.0,14.0,-36.0,29.0,8.0,2.0,5.0,0.0
1701540503.26081,-27.0,-7.0,-64.0,-33.0,-2.0,-7.0,-8.0,4.0
1701540503.2628248,-9.0,-1.0,20.0,-15.0,-4.0,-9.0,-5.0,-18.0
1701540503.2628248,4.0,-6.0,4.0,27.0,-2.0,15.0,8.0,11.0
1701540503.2643268,-1.0,-18.0,-28.0,4.0,1.0,-2.0,0.0,-3.0
1701540503.2643268,22.0,-2.0,58.0,3.0,-3.0,-2.0,2.0,6.0
1701540503.2852085,-10.0,35.0,-42.0,10.0,8.0,2.0,4.0,8.0
1701540503.2852085,4.0,21.0,30.0,-10.0,-10.0,-22.0,-35.0,-16.0
1701540503.2852085,-38.0,2.0,-38.0,-24.0,-22.0,-20.0,-35.0,-20.0
1701540503.2852085,12.0,-23.0,47.0,-60.0,-9.0,-5.0,-8.0,7.0
1701540503.3346918,12.0,45.0,60.0,70.0,17.0,13.0,21.0,-1.0
1701540503.3346918,-15.0,-19.0,-34.0,-21.0,-8.0,-3.0,3.0,-6.0
1701540503.3346918,21.0,13.0,13.0,-6.0,4.0,13.0,25.0,19.0
1701540503.3346918,1.0,-41.0,-70.0,-47.0,-38.0,-19.0,-17.0,-12.0
1701540503.335693,-46.0,-30.0,46.0,21.0,13.0,2.0,-3.0,-11.0
1701540503.335693,9.0,23.0,-25.0,64.0,60.0,18.0,14.0,7.0
1701540503.335693,-5.0,2.0,-5.0,14.0,-4.0,-5.0,-6.0,-7.0
1701540503.335693,11.0,15.0,-32.0,3.0,4.0,6.0,15.0,9.0
1701540503.3469522,14.0,-14.0,11.0,-33.0,-16.0,-3.0,-4.0,2.0
1701540503.3469522,-2.0,-32.0,-23.0,-22.0,-10.0,-2.0,3.0,-3.0
1701540503.347994,-4.0,78.0,94.0,30.0,1.0,-5.0,-2.0,0.0
1701540503.347994,7.0,-13.0,-5.0,12.0,12.0,4.0,-1.0,4.0
1701540503.4058518,-61.0,5.0,-10.0,-1.0,1.0,-6.0,-11.0,0.0
1701540503.4058518,68.0,-19.0,26.0,13.0,-6.0,-2.0,2.0,-2.0
1701540503.4058518,45.0,-19.0,-2.0,-20.0,-3.0,5.0,5.0,9.0
1701540503.4068513,-9.0,19.0,23.0,12.0,3.0,4.0,7.0,3.0
1701540503.4068513,2.0,-6.0,4.0,5.0,2.0,3.0,0.0,1.0
1701540503.4068513,-14.0,44.0,-3.0,-25.0,-18.0,-10.0,-7.0,-3.0
1701540503.4068513,-9.0,-31.0,2.0,-5.0,3.0,1.0,0.0,2.0
1701540503.4068513,12.0,4.0,-27.0,10.0,8.0,7.0,6.0,0.0
1701540503.4223385,25.0,-53.0,-40.0,1.0,3.0,-5.0,-4.0,2.0
1701540503.4223385,-17.0,72.0,58.0,-35.0,-19.0,-13.0,-6.0,-7.0
1701540503.4223385,3.0,-6.0,-26.0,18.0,12.0,2.0,0.0,-3.0
1701540503.4223385,-11.0,-6.0,0.0,0.0,3.0,-3.0,-6.0,-1.0
1701540503.4233634,10.0,-5.0,7.0,7.0,-6.0,1.0,-6.0,-8.0
1701540503.4233634,2.0,-87.0,30.0,-20.0,8.0,7.0,6.0,8.0
1701540503.4233634,-12.0,19.0,-22.0,-24.0,-13.0,-6.0,-7.0,-5.0
1701540503.4233634,-5.0,67.0,-12.0,-9.0,6.0,0.0,1.0,0.0
1701540503.4430583,11.0,2.0,66.0,-18.0,-16.0,-5.0,-5.0,-1.0
1701540503.4430583,1.0,1.0,29.0,5.0,-7.0,2.0,1.0,-4.0
1701540503.4440577,14.0,-29.0,13.0,47.0,13.0,4.0,4.0,9.0
1701540503.4440577,-19.0,-45.0,-83.0,-46.0,-15.0,-2.0,-1.0,-4.0
1701540503.4666135,8.0,14.0,19.0,32.0,1.0,-6.0,-3.0,-4.0
1701540503.467611,-3.0,-22.0,7.0,-38.0,-16.0,-8.0,-17.0,-23.0
1701540503.467611,-21.0,-7.0,-84.0,-34.0,2.0,9.0,15.0,-1.0
1701540503.467611,45.0,40.0,44.0,38.0,-3.0,-7.0,-6.0,7.0
1701540503.517544,-51.0,-9.0,27.0,93.0,25.0,-17.0,-40.0,-14.0
1701540503.517544,-28.0,2.0,58.0,-41.0,-17.0,-10.0,-18.0,-7.0
1701540503.517544,37.0,-33.0,-23.0,-4.0,-5.0,25.0,59.0,13.0
1701540503.517544,-55.0,-43.0,-6.0,16.0,-2.0,2.0,-21.0,3.0
1701540503.517544,24.0,29.0,-24.0,-23.0,-6.0,-20.0,5.0,-3.0
1701540503.517544,-26.0,0.0,-37.0,33.0,5.0,-3.0,9.0,11.0
1701540503.517544,-18.0,-8.0,9.0,-22.0,-6.0,-1.0,6.0,-11.0
1701540503.5186002,19.0,5.0,34.0,18.0,9.0,15.0,31.0,2.0
1701540503.533823,33.0,8.0,-39.0,-39.0,-7.0,12.0,28.0,14.0
1701540503.533823,-8.0,14.0,17.0,15.0,2.0,-16.0,-45.0,5.0
1701540503.533823,5.0,21.0,-16.0,-1.0,-2.0,-3.0,9.0,-3.0
1701540503.5348232,2.0,-11.0,-5.0,9.0,5.0,-3.0,-5.0,-6.0
1701540503.548704,6.0,3.0,2.0,-22.0,1.0,18.0,-26.0,-5.0
1701540503.548704,25.0,13.0,-42.0,2.0,4.0,-7.0,47.0,29.0
1701540503.548704,-8.0,-6.0,47.0,20.0,-1.0,-25.0,-70.0,-27.0
1701540503.548704,-15.0,-40.0,-4.0,-1.0,0.0,21.0,68.0,-4.0
1701540503.573278,-39.0,-2.0,-34.0,-36.0,-9.0,3.0,-6.0,0.0
1701540503.573278,71.0,0.0,3.0,15.0,5.0,33.0,40.0,10.0
1701540503.5742743,-5.0,-3.0,8.0,6.0,3.0,-29.0,-56.0,-11.0
1701540503.5742743,13.0,1.0,5.0,4.0,-4.0,-23.0,-23.0,-11.0
1701540503.5875835,17.0,-67.0,-14.0,-21.0,-8.0,-1.0,4.0,-5.0
1701540503.5875835,-28.0,17.0,-2.0,-28.0,-17.0,-4.0,-5.0,-1.0
1701540503.5885797,-18.0,65.0,-20.0,14.0,4.0,-2.0,-4.0,-2.0
1701540503.5885797,18.0,-12.0,-26.0,7.0,22.0,10.0,-2.0,-3.0
1701540503.6458826,11.0,-61.0,58.0,35.0,44.0,28.0,29.0,16.0
1701540503.6458826,-9.0,46.0,-8.0,19.0,-18.0,-19.0,-28.0,-13.0
1701540503.6458826,25.0,-73.0,45.0,-34.0,-19.0,14.0,22.0,19.0
1701540503.6458826,-33.0,50.0,87.0,-34.0,-32.0,-13.0,-19.0,-10.0
1701540503.669748,-2.0,-45.0,-85.0,36.0,25.0,-7.0,-6.0,-1.0
1701540503.669748,-15.0,-57.0,10.0,-3.0,15.0,16.0,8.0,-6.0
1701540503.669748,-33.0,101.0,-70.0,26.0,20.0,4.0,-3.0,-13.0
1701540503.669748,17.0,-128.0,6.0,17.0,-7.0,-10.0,-7.0,9.0
1701540503.669748,-13.0,127.0,5.0,-30.0,-38.0,-22.0,-14.0,-14.0
1701540503.669748,5.0,-128.0,-31.0,-24.0,13.0,7.0,8.0,9.0
1701540503.669748,22.0,-92.0,48.0,25.0,5.0,13.0,12.0,4.0
1701540503.669748,9.0,1.0,-82.0,16.0,15.0,2.0,-8.0,6.0
1701540503.669748,1.0,-9.0,81.0,-38.0,-28.0,-4.0,-18.0,-14.0
1701540503.669748,-4.0,47.0,40.0,49.0,17.0,9.0,17.0,15.0
1701540503.669748,-11.0,-34.0,-81.0,-34.0,-8.0,-20.0,-41.0,-9.0
1701540503.669748,-2.0,39.0,23.0,40.0,-3.0,-7.0,16.0,18.0
1701540503.7011313,11.0,13.0,-36.0,-41.0,-18.0,-3.0,38.0,20.0
1701540503.7011313,-13.0,-11.0,-32.0,-73.0,-43.0,-11.0,-4.0,-3.0
1701540503.7011313,-4.0,37.0,63.0,103.0,71.0,9.0,13.0,12.0
1701540503.7011313,10.0,55.0,7.0,-3.0,8.0,24.0,-31.0,-23.0
1701540503.7011313,-2.0,12.0,-35.0,-23.0,14.0,-16.0,-14.0,-2.0
1701540503.7011313,-7.0,20.0,-40.0,-91.0,-47.0,0.0,-19.0,-13.0
1701540503.7213092,12.0,-29.0,25.0,39.0,-3.0,21.0,21.0,8.0
1701540503.7223058,-13.0,-64.0,-5.0,-57.0,-7.0,-29.0,-16.0,-10.0
1701540503.729854,-2.0,3.0,69.0,72.0,30.0,13.0,2.0,1.0
1701540503.729854,-8.0,-7.0,-44.0,32.0,8.0,-15.0,-7.0,-14.0
1701540503.729854,-3.0,12.0,65.0,-39.0,-36.0,-15.0,-1.0,1.0
1701540503.7305408,1.0,50.0,-16.0,1.0,0.0,4.0,5.0,10.0
1701540503.7516544,6.0,-10.0,55.0,-29.0,1.0,1.0,-2.0,-3.0
1701540503.7516544,-6.0,3.0,-58.0,-3.0,0.0,-5.0,-4.0,-8.0
1701540503.7530437,-6.0,6.0,21.0,-6.0,-13.0,1.0,4.0,3.0
1701540503.7530437,-5.0,-15.0,1.0,-10.0,-9.0,-3.0,-12.0,-3.0
1701540503.767988,2.0,-17.0,28.0,-3.0,-6.0,-4.0,0.0,-6.0
1701540503.767988,1.0,0.0,-56.0,16.0,14.0,5.0,-2.0,-1.0
1701540503.767988,1.0,35.0,24.0,-9.0,-1.0,-1.0,0.0,0.0
1701540503.767988,-1.0,24.0,44.0,10.0,2.0,-1.0,2.0,-3.0
1701540503.789386,-4.0,-13.0,-99.0,-24.0,-12.0,0.0,-1.0,-3.0
1701540503.789386,1.0,7.0,79.0,50.0,15.0,8.0,1.0,1.0
1701540503.790385,-6.0,-33.0,-18.0,-27.0,-11.0,-9.0,-1.0,-1.0
1701540503.790385,1.0,-39.0,9.0,-5.0,-4.0,-3.0,0.0,-4.0
1701540503.81999,1.0,15.0,-31.0,8.0,-9.0,0.0,-2.0,-1.0
1701540503.81999,0.0,11.0,29.0,14.0,10.0,3.0,0.0,-1.0
1701540503.81999,3.0,6.0,-29.0,-20.0,-4.0,-5.0,-2.0,-1.0
1701540503.81999,-8.0,3.0,-25.0,1.0,0.0,-1.0,-3.0,-3.0
1701540503.8220851,4.0,-10.0,-24.0,-8.0,-6.0,-5.0,-4.0,-1.0
1701540503.8220851,-12.0,-4.0,9.0,16.0,4.0,4.0,-4.0,-3.0
1701540503.8220851,-2.0,4.0,-1.0,-18.0,-6.0,-1.0,10.0,1.0
1701540503.8220851,-3.0,-15.0,-4.0,10.0,5.0,4.0,-5.0,-1.0
1701540503.8963697,23.0,0.0,3.0,-2.0,-5.0,-1.0,-1.0,0.0
1701540503.8963697,-20.0,-26.0,17.0,6.0,2.0,-3.0,-1.0,-4.0
1701540503.8963697,-1.0,0.0,-12.0,-5.0,1.0,-4.0,-10.0,-1.0
1701540503.8963697,0.0,-7.0,-3.0,-3.0,3.0,2.0,3.0,2.0
1701540503.8963697,-3.0,-3.0,-7.0,-2.0,-6.0,-1.0,2.0,-3.0
1701540503.8963697,1.0,4.0,7.0,6.0,4.0,2.0,1.0,-1.0
1701540503.8963697,-3.0,-13.0,-18.0,-19.0,-15.0,-4.0,-3.0,-2.0
1701540503.8963697,-1.0,-3.0,-5.0,14.0,20.0,2.0,5.0,0.0
1701540503.8963697,-5.0,8.0,-2.0,-6.0,-8.0,-7.0,-2.0,0.0
1701540503.8963697,6.0,8.0,19.0,12.0,8.0,4.0,1.0,-2.0
1701540503.8963697,-4.0,-15.0,-6.0,-6.0,-4.0,4.0,2.0,-1.0
1701540503.8963697,2.0,10.0,-2.0,-14.0,-12.0,-6.0,-1.0,-3.0
1701540503.9454417,-5.0,-2.0,-5.0,2.0,-2.0,1.0,-2.0,0.0
1701540503.9454417,5.0,2.0,16.0,5.0,1.0,-4.0,0.0,2.0
1701540503.9454417,3.0,-3.0,-11.0,-10.0,0.0,-2.0,-4.0,-4.0
1701540503.9454417,2.0,-6.0,0.0,9.0,-4.0,-3.0,-3.0,-1.0
1701540503.9515798,-7.0,-6.0,-8.0,1.0,3.0,-1.0,-1.0,-1.0
1701540503.9515798,19.0,1.0,-4.0,-12.0,-4.0,-3.0,-6.0,0.0
1701540503.9515798,-7.0,-7.0,2.0,2.0,5.0,4.0,5.0,-3.0
1701540503.9515798,-6.0,2.0,-4.0,1.0,-3.0,1.0,-3.0,-1.0
1701540503.9515798,2.0,-5.0,-3.0,5.0,-3.0,-1.0,0.0,2.0
1701540503.9515798,10.0,9.0,8.0,7.0,4.0,1.0,3.0,1.0
1701540503.9515798,1.0,-10.0,-3.0,0.0,2.0,-2.0,-9.0,-7.0
1701540503.9515798,11.0,-15.0,-8.0,-9.0,-4.0,-3.0,-1.0,-1.0
1701540504.0126367,-34.0,-3.0,1.0,4.0,-1.0,0.0,1.0,-4.0
1701540504.0126367,2.0,8.0,-7.0,0.0,-3.0,-2.0,-2.0,0.0
1701540504.013632,12.0,-2.0,3.0,-1.0,-2.0,-1.0,0.0,4.0
1701540504.013632,-18.0,2.0,-12.0,-6.0,-4.0,-6.0,-4.0,-4.0
1701540504.013632,6.0,7.0,7.0,-10.0,-5.0,1.0,-2.0,-3.0
1701540504.013632,0.0,-3.0,-7.0,6.0,4.0,2.0,-1.0,0.0
1701540504.013632,-10.0,-4.0,-4.0,6.0,-1.0,-2.0,-1.0,1.0
1701540504.013632,14.0,4.0,0.0,3.0,-4.0,-1.0,1.0,2.0
1701540504.013632,4.0,1.0,6.0,-14.0,-7.0,-1.0,-2.0,-1.0
1701540504.013632,-6.0,8.0,-4.0,-11.0,6.0,2.0,-1.0,-4.0
1701540504.0324652,9.0,7.0,10.0,8.0,7.0,-3.0,-7.0,6.0
1701540504.0324652,-37.0,-8.0,10.0,5.0,-5.0,-1.0,6.0,-11.0
1701540504.0324652,15.0,-4.0,-29.0,-12.0,-1.0,6.0,3.0,-2.0
1701540504.0324652,-9.0,-1.0,34.0,3.0,-10.0,-2.0,-2.0,0.0
1701540504.0324652,5.0,-9.0,-15.0,-12.0,3.0,3.0,2.0,1.0
1701540504.0324652,-2.0,3.0,-34.0,-12.0,-3.0,-3.0,-7.0,-1.0
1701540504.043677,-7.0,19.0,35.0,22.0,-4.0,-7.0,-4.0,-5.0
1701540504.043677,1.0,-5.0,15.0,-2.0,1.0,1.0,0.0,-3.0
1701540504.053577,-7.0,0.0,21.0,0.0,-5.0,-4.0,-5.0,-1.0
1701540504.0537345,9.0,-16.0,-4.0,-14.0,1.0,3.0,3.0,5.0
1701540504.0674202,-5.0,-1.0,-11.0,0.0,2.0,0.0,-1.0,-2.0
1701540504.0674202,3.0,6.0,-39.0,11.0,-2.0,-4.0,-4.0,2.0
1701540504.0674202,-6.0,8.0,37.0,9.0,-1.0,-4.0,-3.0,-3.0
1701540504.0674202,14.0,5.0,9.0,-6.0,-3.0,2.0,4.0,4.0
1701540504.1199148,-6.0,-8.0,-10.0,-16.0,-8.0,-5.0,-4.0,-3.0
1701540504.1199148,1.0,-1.0,0.0,18.0,26.0,6.0,4.0,7.0
1701540504.1199148,-3.0,-3.0,-9.0,6.0,-2.0,4.0,3.0,-3.0
1701540504.1199148,8.0,6.0,-20.0,2.0,0.0,-2.0,-4.0,-2.0
1701540504.1260526,-2.0,-7.0,2.0,-1.0,-3.0,-2.0,-3.0,-2.0
1701540504.1260526,-7.0,-12.0,-33.0,-25.0,-14.0,-4.0,-2.0,-5.0
1701540504.1260526,-5.0,6.0,1.0,-10.0,-4.0,-3.0,-2.0,-3.0
1701540504.1260526,1.0,6.0,25.0,15.0,1.0,4.0,0.0,-4.0
1701540504.1260526,2.0,-39.0,-88.0,-10.0,8.0,1.0,2.0,8.0
1701540504.1260526,-5.0,62.0,21.0,-1.0,-11.0,-8.0,-4.0,-5.0
1701540504.1599348,1.0,-3.0,-20.0,-3.0,-2.0,2.0,3.0,2.0
1701540504.1599348,-5.0,-23.0,9.0,-5.0,-5.0,-5.0,-7.0,-6.0
1701540504.1599348,-1.0,38.0,5.0,-4.0,-2.0,-1.0,0.0,-3.0
1701540504.1599348,4.0,-22.0,0.0,9.0,2.0,3.0,8.0,4.0
1701540504.1609325,1.0,-11.0,-2.0,-26.0,-19.0,-6.0,-10.0,-11.0
1701540504.1609325,6.0,11.0,-13.0,2.0,10.0,2.0,0.0,4.0
1701540504.1721761,-8.0,-13.0,25.0,47.0,14.0,1.0,1.0,-4.0
1701540504.1721761,1.0,-4.0,-9.0,-9.0,-6.0,-1.0,-2.0,-6.0
1701540504.1744382,-18.0,-3.0,1.0,1.0,1.0,-4.0,-2.0,5.0
1701540504.1744382,-1.0,-3.0,1.0,-26.0,-11.0,5.0,10.0,4.0
1701540504.1865017,31.0,13.0,14.0,-8.0,-15.0,-4.0,-5.0,7.0
1701540504.186737,-32.0,-3.0,18.0,16.0,11.0,-1.0,-5.0,-6.0
1701540504.2408504,6.0,-28.0,-34.0,-19.0,4.0,0.0,3.0,1.0
1701540504.2408504,-8.0,11.0,-5.0,-4.0,-4.0,-7.0,-12.0,-10.0
1701540504.2408504,-3.0,8.0,5.0,-12.0,-3.0,-1.0,3.0,0.0
1701540504.2408504,7.0,-7.0,-4.0,9.0,-11.0,-8.0,-1.0,1.0
1701540504.2418504,1.0,-2.0,27.0,-11.0,-1.0,3.0,0.0,-1.0
1701540504.2418504,-4.0,10.0,-46.0,31.0,9.0,-1.0,1.0,3.0
1701540504.2418504,-5.0,-6.0,1.0,1.0,-9.0,-2.0,-5.0,-4.0
1701540504.2418504,3.0,-5.0,26.0,-40.0,-6.0,-4.0,-4.0,-2.0
1701540504.2418504,-1.0,3.0,-13.0,12.0,5.0,3.0,1.0,-1.0
1701540504.2418504,6.0,-1.0,63.0,13.0,2.0,2.0,-10.0,1.0
1701540504.2620907,-7.0,-14.0,-86.0,-6.0,-2.0,-8.0,14.0,-16.0
1701540504.2620907,-12.0,-18.0,-62.0,-11.0,2.0,10.0,1.0,-13.0
1701540504.2620907,-22.0,12.0,42.0,18.0,5.0,5.0,4.0,1.0
1701540504.2620907,12.0,3.0,36.0,-1.0,-6.0,-5.0,-8.0,11.0
1701540504.2772675,11.0,-10.0,5.0,-9.0,8.0,0.0,-8.0,-4.0
1701540504.2772675,1.0,-8.0,24.0,16.0,-5.0,-5.0,9.0,4.0
1701540504.279038,17.0,10.0,-28.0,2.0,-8.0,-8.0,-4.0,6.0
1701540504.279038,-7.0,-12.0,3.0,-19.0,-2.0,-3.0,-2.0,-15.0
1701540504.2875965,-7.0,3.0,61.0,9.0,4.0,3.0,-7.0,3.0
1701540504.2875965,6.0,0.0,-15.0,18.0,7.0,2.0,-3.0,0.0
1701540504.294171,-2.0,-7.0,-22.0,-25.0,-9.0,-2.0,-6.0,-3.0
1701540504.294171,15.0,0.0,-2.0,-3.0,-2.0,-4.0,4.0,3.0
1701540504.3409746,-8.0,-3.0,16.0,9.0,8.0,6.0,-5.0,2.0
1701540504.3409746,1.0,-8.0,13.0,-10.0,-6.0,0.0,6.0,1.0
1701540504.3409746,2.0,9.0,6.0,12.0,2.0,-4.0,-3.0,-12.0
1701540504.3409746,-2.0,-4.0,-1.0,-7.0,0.0,1.0,1.0,-1.0
1701540504.3409746,-10.0,-3.0,17.0,-12.0,-6.0,-3.0,1.0,-4.0
1701540504.3409746,6.0,0.0,2.0,17.0,4.0,-1.0,0.0,11.0
1701540504.3409746,-8.0,-5.0,-13.0,-26.0,-24.0,-13.0,-12.0,-6.0
1701540504.3409746,-3.0,11.0,-49.0,31.0,25.0,4.0,2.0,-2.0
1701540504.3522096,1.0,9.0,22.0,7.0,14.0,6.0,4.0,9.0
1701540504.3522096,4.0,8.0,-16.0,8.0,1.0,-2.0,-3.0,6.0
1701540504.354895,1.0,-29.0,-13.0,-4.0,-10.0,-3.0,-3.0,-9.0
1701540504.354895,-7.0,-4.0,30.0,-22.0,-10.0,0.0,2.0,-2.0
1701540504.4007506,-6.0,12.0,-10.0,-4.0,-14.0,-8.0,-6.0,-5.0
1701540504.4007506,2.0,-10.0,7.0,-1.0,5.0,-1.0,-4.0,-1.0
1701540504.4007506,-3.0,3.0,12.0,-3.0,-1.0,0.0,4.0,1.0
1701540504.4007506,-4.0,0.0,-7.0,-4.0,-8.0,-5.0,-2.0,-1.0
1701540504.4007506,-2.0,-1.0,-17.0,11.0,6.0,3.0,1.0,0.0
1701540504.4007506,-2.0,-7.0,-10.0,-23.0,-8.0,-1.0,-4.0,-6.0
1701540504.4007506,7.0,6.0,9.0,21.0,21.0,5.0,7.0,0.0
1701540504.4007506,5.0,-8.0,-19.0,6.0,-3.0,0.0,7.0,1.0
1701540504.4120035,13.0,38.0,13.0,1.0,-1.0,-2.0,-1.0,8.0
1701540504.4120035,-7.0,-2.0,3.0,-15.0,-20.0,-8.0,-11.0,-6.0
1701540504.4133162,2.0,2.0,-17.0,1.0,6.0,4.0,2.0,-3.0
1701540504.4133162,7.0,5.0,4.0,13.0,13.0,3.0,-2.0,1.0
1701540504.4267743,-59.0,-53.0,3.0,-23.0,-15.0,-5.0,11.0,3.0
1701540504.4267743,5.0,7.0,7.0,51.0,26.0,8.0,0.0,-1.0
1701540504.4646413,1.0,20.0,-63.0,-17.0,-11.0,-4.0,0.0,1.0
1701540504.464871,-4.0,-9.0,71.0,7.0,-8.0,-4.0,-4.0,-5.0
1701540504.4776857,15.0,-14.0,-65.0,-12.0,-16.0,-1.0,-4.0,-3.0
1701540504.4776857,-2.0,-10.0,-16.0,-25.0,11.0,1.0,5.0,4.0
1701540504.4786856,-9.0,15.0,61.0,11.0,-1.0,-4.0,2.0,0.0
1701540504.4786856,5.0,11.0,-30.0,4.0,5.0,6.0,2.0,4.0
1701540504.4786856,5.0,1.0,48.0,1.0,-2.0,-3.0,-6.0,-4.0
1701540504.4786856,-3.0,4.0,4.0,1.0,-11.0,-4.0,-2.0,-1.0
1701540504.4786856,10.0,-19.0,-31.0,-8.0,2.0,0.0,0.0,1.0
1701540504.4786856,-15.0,3.0,-23.0,-4.0,-19.0,-7.0,-3.0,-4.0
1701540504.4943054,-13.0,12.0,14.0,7.0,12.0,1.0,-4.0,-4.0
1701540504.4943054,22.0,-12.0,9.0,-7.0,-2.0,-8.0,3.0,-1.0
1701540504.4955661,-3.0,0.0,34.0,21.0,5.0,2.0,-1.0,-7.0
1701540504.4955661,-1.0,-9.0,-11.0,-24.0,-5.0,11.0,8.0,6.0
1701540504.5079198,-6.0,2.0,17.0,4.0,0.0,-1.0,1.0,-1.0
1701540504.5079198,-4.0,1.0,23.0,5.0,2.0,0.0,-2.0,-5.0
1701540504.509931,5.0,4.0,38.0,-7.0,-6.0,-8.0,-12.0,-1.0
1701540504.509931,2.0,-2.0,60.0,2.0,2.0,-5.0,-3.0,-2.0
1701540504.543585,-8.0,-44.0,-66.0,-9.0,8.0,4.0,0.0,-7.0
1701540504.543585,4.0,31.0,-5.0,-9.0,-18.0,-5.0,-6.0,3.0
1701540504.543585,-16.0,38.0,50.0,-13.0,-9.0,-1.0,-5.0,-6.0
1701540504.543585,-13.0,-5.0,-61.0,-16.0,10.0,-1.0,-2.0,-6.0
1701540504.549287,11.0,1.0,85.0,24.0,-1.0,0.0,-7.0,2.0
1701540504.549287,-5.0,-40.0,-46.0,-7.0,10.0,2.0,10.0,1.0
1701540504.556181,-7.0,-55.0,25.0,-5.0,-3.0,6.0,4.0,4.0
1701540504.556181,23.0,40.0,26.0,3.0,-6.0,-5.0,0.0,-1.0
1701540504.5682995,10.0,-4.0,-17.0,-4.0,-3.0,-3.0,-3.0,-2.0
1701540504.56943,-22.0,-7.0,-19.0,-10.0,-7.0,-3.0,-24.0,-6.0
1701540504.573421,-12.0,2.0,-24.0,14.0,10.0,2.0,29.0,2.0
1701540504.573421,9.0,-7.0,13.0,0.0,-4.0,-6.0,-8.0,4.0
1701540504.6257613,-10.0,0.0,-18.0,-8.0,-2.0,-1.0,1.0,-6.0
1701540504.6257613,-18.0,16.0,23.0,5.0,0.0,-9.0,-25.0,-7.0
1701540504.6257613,6.0,5.0,-3.0,9.0,9.0,19.0,36.0,13.0
1701540504.6257613,-33.0,-21.0,-30.0,-11.0,-8.0,-6.0,-7.0,-6.0
1701540504.6257613,24.0,29.0,17.0,11.0,-1.0,-38.0,-33.0,0.0
1701540504.6257613,-20.0,-10.0,-9.0,-13.0,-3.0,39.0,4.0,9.0
1701540504.6257613,18.0,-4.0,-34.0,-5.0,0.0,-8.0,-17.0,-16.0
1701540504.6257613,-28.0,-3.0,-6.0,-4.0,1.0,4.0,34.0,0.0
1701540504.6268556,35.0,3.0,-12.0,-15.0,-4.0,9.0,-2.0,8.0
1701540504.6268556,-5.0,5.0,33.0,12.0,-1.0,-22.0,1.0,-4.0
1701540504.631394,7.0,-4.0,-32.0,-2.0,-6.0,-7.0,-16.0,-7.0
1701540504.631394,9.0,8.0,1.0,2.0,18.0,8.0,-3.0,2.0
1701540504.6688225,-13.0,11.0,8.0,-3.0,-7.0,-11.0,-13.0,-6.0
1701540504.6688225,8.0,2.0,-8.0,-46.0,-25.0,-4.0,1.0,-5.0
1701540504.6688225,-2.0,-78.0,16.0,92.0,89.0,23.0,8.0,9.0
1701540504.6688225,9.0,95.0,-9.0,-18.0,-19.0,-12.0,-5.0,-5.0
1701540504.6719742,-16.0,-17.0,-13.0,-10.0,-4.0,6.0,12.0,-4.0
1701540504.6719742,8.0,-32.0,-28.0,-30.0,-15.0,-3.0,5.0,0.0
1701540504.676083,5.0,16.0,-62.0,-19.0,-26.0,-7.0,-6.0,2.0
1701540504.676083,-5.0,-56.0,83.0,-15.0,1.0,-1.0,-10.0,-1.0
1701540504.7174733,7.0,67.0,67.0,86.0,20.0,8.0,3.0,-1.0
1701540504.7174733,-5.0,40.0,-68.0,-103.0,-26.0,-9.0,-4.0,-8.0
1701540504.7174733,-5.0,-34.0,-12.0,-3.0,0.0,-8.0,-11.0,-1.0
1701540504.7174733,1.0,-41.0,-48.0,71.0,10.0,4.0,0.0,-6.0
1701540504.7174733,-4.0,-11.0,48.0,-9.0,-14.0,3.0,6.0,6.0
1701540504.7174733,9.0,-45.0,18.0,39.0,18.0,4.0,9.0,0.0
1701540504.7184737,13.0,47.0,1.0,-5.0,-10.0,-7.0,-7.0,3.0
1701540504.7184737,7.0,-20.0,-34.0,-62.0,-14.0,-10.0,-9.0,-9.0
1701540504.7338762,5.0,-21.0,-13.0,-6.0,3.0,3.0,9.0,-12.0
1701540504.7338762,17.0,27.0,12.0,51.0,13.0,3.0,5.0,4.0
1701540504.7371297,-20.0,21.0,1.0,-26.0,-8.0,4.0,4.0,6.0
1701540504.7371297,5.0,-50.0,11.0,9.0,-5.0,-3.0,-14.0,1.0
1701540504.7620654,-12.0,-7.0,-12.0,-19.0,-3.0,2.0,1.0,2.0
1701540504.7622914,-6.0,3.0,24.0,7.0,6.0,-4.0,-6.0,-7.0
1701540504.7704809,1.0,24.0,10.0,-5.0,-9.0,-1.0,-2.0,-1.0
1701540504.7704809,-27.0,6.0,-60.0,-3.0,-4.0,-13.0,-38.0,8.0
1701540504.771477,-12.0,2.0,13.0,-15.0,0.0,-3.0,21.0,-3.0
1701540504.771477,-3.0,-10.0,-16.0,5.0,2.0,8.0,13.0,2.0
1701540504.7736347,36.0,-16.0,50.0,7.0,-8.0,0.0,-7.0,1.0
1701540504.7736347,-31.0,23.0,-79.0,-41.0,-22.0,-8.0,-5.0,-8.0
1701540504.7875636,16.0,-37.0,-14.0,-29.0,8.0,3.0,-11.0,4.0
1701540504.7875636,-8.0,36.0,59.0,44.0,-6.0,-1.0,9.0,5.0
1701540504.7962723,5.0,25.0,-47.0,5.0,15.0,-4.0,0.0,-10.0
1701540504.7962723,6.0,-7.0,43.0,19.0,5.0,8.0,7.0,-3.0
1701540504.8072515,-5.0,-18.0,-57.0,-40.0,-20.0,3.0,8.0,2.0
1701540504.8072515,17.0,-23.0,72.0,52.0,13.0,-1.0,-2.0,0.0
1701540504.810294,-31.0,-5.0,-92.0,-82.0,-34.0,-16.0,-12.0,-6.0
1701540504.810294,5.0,33.0,19.0,-9.0,-4.0,0.0,10.0,1.0
1701540504.8631704,-3.0,0.0,-26.0,4.0,6.0,2.0,-3.0,1.0
1701540504.8631704,-3.0,-36.0,6.0,17.0,14.0,-1.0,-2.0,-2.0
1701540504.8631704,2.0,-12.0,11.0,17.0,3.0,1.0,-2.0,4.0
1701540504.8631704,7.0,-6.0,58.0,9.0,2.0,2.0,9.0,4.0
1701540504.886365,5.0,4.0,-43.0,-3.0,-7.0,-5.0,-6.0,-5.0
1701540504.886365,-3.0,-4.0,-19.0,-11.0,3.0,-1.0,-4.0,-2.0
1701540504.886365,-8.0,8.0,12.0,16.0,-1.0,1.0,3.0,-2.0
1701540504.886365,9.0,-3.0,-47.0,-53.0,-2.0,1.0,5.0,0.0
1701540504.886365,-9.0,3.0,65.0,26.0,2.0,-2.0,-4.0,-3.0
1701540504.886365,-3.0,8.0,36.0,8.0,-6.0,-4.0,-4.0,-4.0
1701540504.886365,-10.0,-11.0,-59.0,-10.0,-4.0,-1.0,-1.0,0.0
1701540504.886365,10.0,-62.0,-23.0,11.0,-1.0,0.0,4.0,4.0
1701540504.888406,-9.0,69.0,-42.0,-28.0,3.0,-1.0,-7.0,-6.0
1701540504.888406,-3.0,-1.0,-36.0,28.0,14.0,1.0,1.0,0.0
1701540504.8941445,0.0,-6.0,51.0,-1.0,-9.0,-9.0,-12.0,12.0
1701540504.8941445,-12.0,-37.0,12.0,15.0,4.0,5.0,10.0,-9.0
1701540504.94128,-38.0,-20.0,-16.0,-23.0,-11.0,1.0,7.0,-8.0
1701540504.94128,20.0,26.0,-11.0,-20.0,-10.0,-4.0,4.0,7.0
1701540504.94128,1.0,-7.0,15.0,9.0,4.0,4.0,1.0,3.0
1701540504.94128,4.0,38.0,34.0,19.0,1.0,-22.0,-27.0,2.0
1701540504.94128,13.0,3.0,0.0,-4.0,4.0,34.0,51.0,3.0
1701540504.94128,-2.0,-20.0,-19.0,-15.0,-7.0,-11.0,-12.0,-3.0
1701540504.94128,12.0,-5.0,25.0,7.0,2.0,9.0,0.0,-18.0
1701540504.94128,-23.0,20.0,11.0,9.0,5.0,10.0,11.0,6.0
1701540504.9448657,16.0,3.0,2.0,14.0,3.0,-14.0,-28.0,-3.0
1701540504.9448657,2.0,-7.0,-2.0,-2.0,0.0,-5.0,-3.0,9.0
1701540504.9537,-6.0,-91.0,13.0,-20.0,-10.0,-3.0,3.0,-5.0
1701540504.9537,9.0,109.0,-8.0,4.0,-27.0,-12.0,-16.0,-7.0
1701540505.008593,-12.0,-6.0,-1.0,22.0,28.0,1.0,-4.0,-5.0
1701540505.008593,-6.0,-12.0,2.0,-26.0,-4.0,2.0,10.0,6.0
1701540505.0095928,8.0,-12.0,83.0,57.0,6.0,-7.0,-5.0,1.0
1701540505.0095928,0.0,-56.0,-2.0,-52.0,-11.0,3.0,6.0,-1.0
1701540505.0095928,2.0,-14.0,-22.0,-11.0,-27.0,-11.0,-6.0,3.0
1701540505.0095928,1.0,17.0,4.0,-19.0,-4.0,0.0,0.0,-5.0
1701540505.0095928,-5.0,19.0,-10.0,17.0,10.0,3.0,-2.0,0.0
1701540505.0095928,6.0,-11.0,27.0,66.0,19.0,8.0,9.0,0.0
1701540505.0095928,3.0,2.0,-7.0,-84.0,-19.0,-12.0,-13.0,-2.0
1701540505.0095928,-14.0,2.0,-5.0,7.0,-4.0,-5.0,-12.0,-13.0
1701540505.0136352,-1.0,13.0,-23.0,-14.0,-4.0,-1.0,1.0,7.0
1701540505.0136352,6.0,-18.0,36.0,41.0,22.0,9.0,11.0,12.0
1701540505.0837507,-2.0,12.0,-50.0,2.0,-4.0,-5.0,-10.0,-9.0
1701540505.0837507,-8.0,0.0,18.0,10.0,-3.0,-2.0,-3.0,-7.0
1701540505.0837507,-14.0,6.0,-11.0,-37.0,-9.0,-3.0,2.0,0.0
1701540505.0837507,27.0,0.0,-21.0,14.0,11.0,6.0,-2.0,1.0
1701540505.0940337,-9.0,-44.0,25.0,26.0,9.0,3.0,-2.0,6.0
1701540505.0940337,-3.0,-46.0,8.0,-15.0,-10.0,-2.0,0.0,-3.0
1701540505.0940337,9.0,76.0,-14.0,9.0,6.0,-2.0,1.0,7.0
1701540505.0940337,-5.0,-30.0,-5.0,-22.0,-5.0,-13.0,-25.0,-16.0
1701540505.0940337,0.0,-1.0,11.0,12.0,-4.0,-3.0,10.0,-8.0
1701540505.0940337,-4.0,-10.0,-8.0,-10.0,-1.0,1.0,-6.0,-1.0
1701540505.0940337,-1.0,6.0,10.0,6.0,3.0,-5.0,5.0,1.0
1701540505.0940337,-27.0,-10.0,-20.0,-17.0,-13.0,-4.0,-1.0,-13.0
1701540505.1222417,40.0,-10.0,17.0,0.0,-2.0,-7.0,-14.0,10.0
1701540505.1222417,15.0,18.0,-17.0,15.0,7.0,2.0,6.0,4.0
1701540505.1222417,-31.0,-30.0,-16.0,-18.0,-10.0,-7.0,-29.0,-27.0
1701540505.1222417,14.0,44.0,23.0,6.0,9.0,5.0,21.0,1.0
1701540505.1222417,-30.0,-20.0,-8.0,5.0,-8.0,0.0,3.0,-1.0
1701540505.1222417,-34.0,-33.0,-11.0,-5.0,7.0,-2.0,-10.0,-13.0
1701540505.1222417,4.0,43.0,25.0,0.0,-2.0,4.0,4.0,6.0
1701540505.1222417,-2.0,-27.0,74.0,9.0,-3.0,-1.0,1.0,14.0
1701540505.1232662,-9.0,17.0,-63.0,-24.0,-3.0,-3.0,-4.0,-10.0
1701540505.1232662,7.0,5.0,12.0,-1.0,-2.0,4.0,5.0,4.0
1701540505.1344762,-4.0,-20.0,61.0,6.0,19.0,4.0,3.0,1.0
1701540505.1344762,-4.0,-11.0,-43.0,-5.0,-5.0,-3.0,-1.0,5.0
1701540505.1775799,20.0,-14.0,105.0,29.0,-1.0,-1.0,-1.0,6.0
1701540505.1785765,-1.0,-2.0,-70.0,11.0,-4.0,-3.0,-1.0,-2.0
1701540505.1785765,7.0,53.0,-15.0,-61.0,-24.0,-4.0,0.0,-2.0
1701540505.1785765,10.0,-5.0,-64.0,-2.0,17.0,0.0,-2.0,2.0
1701540505.1785765,-5.0,-3.0,14.0,13.0,6.0,5.0,-1.0,-2.0
1701540505.1785765,-2.0,0.0,23.0,33.0,-1.0,-1.0,1.0,-4.0
1701540505.1785765,-4.0,6.0,-17.0,-35.0,-12.0,-2.0,0.0,7.0
1701540505.1785765,-7.0,14.0,8.0,-14.0,1.0,-3.0,2.0,-4.0
1701540505.188733,-2.0,14.0,-9.0,-35.0,-6.0,-5.0,-9.0,-1.0
1701540505.188733,7.0,-6.0,68.0,18.0,11.0,5.0,-14.0,-4.0
1701540505.1940684,-16.0,-52.0,-22.0,4.0,1.0,2.0,18.0,6.0
1701540505.1940684,20.0,10.0,20.0,7.0,-7.0,0.0,1.0,0.0
1701540505.263327,4.0,-4.0,-19.0,19.0,6.0,-2.0,3.0,2.0
1701540505.263327,2.0,9.0,-9.0,-31.0,-6.0,-12.0,-35.0,-4.0
1701540505.266382,-14.0,-8.0,0.0,29.0,2.0,17.0,18.0,-7.0
1701540505.266382,14.0,0.0,-38.0,-17.0,-4.0,3.0,30.0,15.0
1701540505.2726297,6.0,7.0,52.0,19.0,1.0,6.0,7.0,-1.0
1701540505.2726297,-16.0,-21.0,-83.0,-29.0,-10.0,-10.0,-5.0,1.0
1701540505.2726297,2.0,19.0,26.0,7.0,-7.0,-2.0,-12.0,-4.0
1701540505.2736287,-8.0,30.0,78.0,22.0,14.0,3.0,-2.0,7.0
1701540505.2736287,11.0,31.0,20.0,11.0,12.0,0.0,-7.0,1.0
1701540505.2736287,23.0,2.0,25.0,-6.0,-10.0,3.0,21.0,11.0
1701540505.2736287,-15.0,-11.0,-2.0,4.0,-7.0,-18.0,-27.0,-10.0
1701540505.2736287,-1.0,-22.0,-19.0,-21.0,-9.0,3.0,1.0,3.0
1701540505.2898338,-66.0,-10.0,-25.0,-1.0,-5.0,-7.0,-3.0,-15.0
1701540505.2898338,-17.0,-6.0,1.0,-9.0,-3.0,8.0,14.0,-5.0
1701540505.2898338,10.0,-14.0,7.0,14.0,6.0,2.0,8.0,-5.0
1701540505.2898338,2.0,22.0,25.0,5.0,1.0,-4.0,-42.0,8.0
1701540505.2918525,45.0,-1.0,-31.0,-7.0,1.0,-5.0,20.0,9.0
1701540505.2918525,-12.0,-9.0,30.0,31.0,7.0,8.0,18.0,-5.0
1701540505.30002,4.0,-16.0,-13.0,-45.0,-6.0,-2.0,-2.0,0.0
1701540505.30002,-32.0,10.0,-3.0,-49.0,-11.0,-10.0,-18.0,-17.0
1701540505.3386369,2.0,5.0,18.0,24.0,-2.0,-1.0,-8.0,3.0
1701540505.3386369,9.0,6.0,-12.0,8.0,4.0,-1.0,2.0,3.0
1701540505.3386369,16.0,-13.0,22.0,19.0,10.0,0.0,-2.0,1.0
1701540505.3386369,4.0,-62.0,-39.0,16.0,2.0,3.0,8.0,-5.0
1701540505.3386369,-12.0,61.0,10.0,-12.0,-3.0,0.0,-3.0,-3.0
1701540505.3386369,6.0,53.0,55.0,-52.0,-4.0,-6.0,2.0,-4.0
1701540505.3386369,-15.0,-42.0,17.0,46.0,-6.0,-3.0,-8.0,0.0
1701540505.3386369,-6.0,-33.0,8.0,16.0,5.0,0.0,2.0,-7.0
1701540505.3413596,7.0,16.0,4.0,9.0,28.0,8.0,2.0,-3.0
1701540505.3413596,-10.0,1.0,-60.0,35.0,4.0,3.0,-9.0,7.0
1701540505.3629236,9.0,-10.0,22.0,-17.0,3.0,0.0,3.0,4.0
1701540505.3629236,-5.0,7.0,-101.0,-18.0,-10.0,-5.0,-4.0,-14.0
1701540505.367313,11.0,-23.0,62.0,26.0,11.0,2.0,0.0,5.0
1701540505.367313,0.0,5.0,-18.0,-10.0,-6.0,-5.0,-2.0,-3.0
1701540505.374273,3.0,-8.0,-31.0,-6.0,5.0,0.0,1.0,0.0
1701540505.374273,4.0,16.0,0.0,-7.0,-6.0,1.0,4.0,0.0
1701540505.4466968,-16.0,-18.0,-17.0,-15.0,-16.0,-10.0,-20.0,-13.0
1701540505.4466968,-35.0,-4.0,-18.0,-10.0,0.0,-2.0,-2.0,-11.0
1701540505.4466968,-7.0,-3.0,-7.0,-7.0,-8.0,-3.0,1.0,3.0
1701540505.4466968,-3.0,-2.0,42.0,11.0,3.0,-1.0,-2.0,-4.0
1701540505.4719603,6.0,14.0,-5.0,5.0,0.0,15.0,32.0,8.0
1701540505.4719603,22.0,-4.0,23.0,-8.0,-7.0,-2.0,-11.0,0.0
1701540505.4719603,-6.0,-44.0,-16.0,6.0,4.0,-2.0,-5.0,-2.0
1701540505.4719603,-6.0,82.0,21.0,-4.0,-10.0,-12.0,-14.0,-11.0
1701540505.4719603,4.0,-16.0,-13.0,-7.0,-3.0,-5.0,-4.0,6.0
1701540505.4719603,15.0,5.0,13.0,8.0,3.0,4.0,8.0,0.0
1701540505.4719603,6.0,13.0,-6.0,-1.0,1.0,2.0,3.0,0.0
1701540505.4719603,-1.0,-41.0,-39.0,1.0,1.0,6.0,7.0,-2.0
1701540505.4719603,-1.0,-24.0,61.0,-42.0,-37.0,-10.0,-11.0,-3.0
1701540505.4719603,-4.0,11.0,-69.0,21.0,30.0,8.0,-1.0,2.0
1701540505.4719603,2.0,17.0,-33.0,29.0,14.0,-4.0,-8.0,-1.0
1701540505.4719603,-5.0,-8.0,24.0,-3.0,-5.0,-1.0,4.0,1.0
1701540505.4729612,-1.0,-6.0,7.0,0.0,-7.0,-1.0,-4.0,0.0
1701540505.4729612,-2.0,-35.0,20.0,-17.0,-19.0,-8.0,-4.0,-1.0
1701540505.4781685,3.0,28.0,16.0,-6.0,-3.0,-1.0,3.0,-2.0
1701540505.4781685,4.0,21.0,-17.0,-4.0,1.0,0.0,2.0,-3.0
1701540505.5167098,-1.0,-26.0,43.0,44.0,4.0,0.0,-1.0,5.0
1701540505.5167098,1.0,0.0,-62.0,-74.0,-12.0,-5.0,-3.0,-2.0
1701540505.5356107,0.0,-2.0,-23.0,0.0,0.0,2.0,2.0,-1.0
1701540505.5356107,0.0,-11.0,44.0,14.0,1.0,2.0,2.0,-2.0
1701540505.5356107,3.0,-10.0,-7.0,10.0,4.0,0.0,-6.0,-3.0
1701540505.5366104,-8.0,-12.0,-22.0,-13.0,-9.0,-5.0,-3.0,-1.0
1701540505.5366104,0.0,40.0,-1.0,-13.0,-13.0,-6.0,-5.0,-6.0
1701540505.5366104,-1.0,-10.0,19.0,1.0,-1.0,1.0,2.0,1.0
1701540505.5541518,-4.0,-21.0,-42.0,0.0,-2.0,-2.0,0.0,0.0
1701540505.5541518,7.0,-10.0,38.0,-14.0,-11.0,1.0,4.0,2.0
1701540505.555152,1.0,-1.0,-9.0,29.0,10.0,0.0,-1.0,-1.0
1701540505.555152,2.0,16.0,-4.0,-5.0,-3.0,-2.0,2.0,6.0
1701540505.555152,-3.0,-6.0,-46.0,1.0,3.0,1.0,-6.0,-5.0
1701540505.555152,1.0,3.0,80.0,1.0,-9.0,-5.0,-2.0,-2.0
1701540505.5561774,-2.0,-8.0,-26.0,-13.0,-6.0,-1.0,1.0,0.0
1701540505.5561774,-1.0,-14.0,20.0,8.0,6.0,2.0,-2.0,0.0
1701540505.5663848,-4.0,12.0,-7.0,-35.0,-7.0,-5.0,-1.0,-4.0
1701540505.5663848,7.0,18.0,17.0,18.0,3.0,-1.0,7.0,3.0
1701540505.5757673,-20.0,13.0,24.0,10.0,4.0,10.0,2.0,-1.0
1701540505.5757673,6.0,-60.0,-55.0,3.0,4.0,0.0,2.0,2.0
1701540505.5999036,-11.0,47.0,0.0,-10.0,-3.0,-1.0,-4.0,-3.0
1701540505.6013143,6.0,2.0,-3.0,10.0,6.0,-3.0,-1.0,2.0
1701540505.6080031,-6.0,32.0,26.0,-6.0,-4.0,-6.0,-2.0,0.0
1701540505.6080031,3.0,-17.0,-12.0,-5.0,7.0,2.0,1.0,1.0
1701540505.656789,0.0,-29.0,20.0,8.0,3.0,2.0,-2.0,0.0
1701540505.656789,-2.0,9.0,-5.0,18.0,6.0,1.0,-1.0,0.0
1701540505.656789,7.0,-27.0,-51.0,-26.0,-11.0,-2.0,-1.0,-1.0
1701540505.656789,-4.0,-24.0,43.0,-1.0,-6.0,-4.0,-2.0,-4.0
1701540505.656789,0.0,55.0,8.0,-9.0,-5.0,-2.0,-1.0,-2.0
1701540505.656789,3.0,-19.0,75.0,44.0,28.0,3.0,-1.0,-1.0
1701540505.6577883,1.0,38.0,5.0,2.0,-2.0,-2.0,-2.0,-4.0
1701540505.6577883,-5.0,-5.0,27.0,1.0,-2.0,-3.0,-2.0,-4.0
1701540505.6870155,-2.0,-38.0,-101.0,-28.0,-7.0,-1.0,1.0,1.0
1701540505.6870155,0.0,-30.0,9.0,16.0,-10.0,0.0,-2.0,2.0
1701540505.6870155,-3.0,-15.0,1.0,-26.0,-2.0,-3.0,-4.0,-3.0
1701540505.6870155,-3.0,17.0,-20.0,4.0,3.0,2.0,0.0,-2.0
1701540505.6870155,5.0,-11.0,23.0,17.0,10.0,4.0,3.0,1.0
1701540505.6870155,-34.0,9.0,11.0,-15.0,-17.0,-7.0,-7.0,-11.0
1701540505.6870155,23.0,-53.0,38.0,43.0,5.0,0.0,4.0,15.0
1701540505.6870155,-51.0,47.0,-71.0,38.0,-1.0,0.0,20.0,3.0
1701540505.6901004,44.0,26.0,49.0,-30.0,-1.0,1.0,-15.0,-27.0
1701540505.6901004,-24.0,27.0,-48.0,-97.0,-13.0,-12.0,-33.0,-19.0
1701540505.6960557,-29.0,8.0,56.0,44.0,5.0,-6.0,10.0,-22.0
1701540505.6960557,-8.0,1.0,37.0,-30.0,-6.0,16.0,2.0,21.0
1701540505.7450378,28.0,-47.0,48.0,69.0,14.0,5.0,25.0,24.0
1701540505.7450378,8.0,20.0,-17.0,0.0,7.0,6.0,15.0,8.0
1701540505.7450378,20.0,-10.0,17.0,-13.0,0.0,-3.0,-14.0,9.0
1701540505.7450378,-3.0,-1.0,-62.0,-24.0,-9.0,-12.0,-9.0,-10.0
1701540505.7450378,-39.0,-30.0,-30.0,7.0,2.0,-2.0,-8.0,-14.0
1701540505.7450378,22.0,6.0,84.0,32.0,0.0,0.0,-8.0,-4.0
1701540505.7450378,-23.0,-4.0,-38.0,-23.0,-8.0,-7.0,-6.0,-1.0
1701540505.7450378,36.0,-4.0,31.0,20.0,8.0,8.0,32.0,10.0
1701540505.7848022,-27.0,26.0,24.0,-15.0,-7.0,-3.0,-25.0,-9.0
1701540505.7848022,-6.0,-7.0,-83.0,19.0,2.0,-4.0,-4.0,-10.0
1701540505.7848022,2.0,5.0,-37.0,-39.0,-10.0,-2.0,-2.0,-9.0
1701540505.7848022,6.0,0.0,28.0,1.0,5.0,0.0,-11.0,-3.0
1701540505.7848022,18.0,-84.0,-1.0,5.0,1.0,-1.0,14.0,22.0
1701540505.7848022,-5.0,71.0,19.0,-7.0,-14.0,-6.0,2.0,-11.0
1701540505.7848022,-1.0,1.0,-5.0,-20.0,6.0,8.0,3.0,4.0
1701540505.7848022,6.0,5.0,0.0,-19.0,-7.0,-9.0,-18.0,-12.0
1701540505.788377,-2.0,-2.0,-8.0,80.0,52.0,13.0,6.0,5.0
1701540505.7912009,6.0,-31.0,10.0,16.0,2.0,8.0,13.0,27.0
1701540505.7925408,-10.0,-13.0,-8.0,-16.0,-16.0,-7.0,6.0,5.0
1701540505.7925408,-55.0,-30.0,-15.0,-26.0,-13.0,-16.0,-53.0,-44.0
1701540505.8294246,-4.0,12.0,2.0,-35.0,-14.0,-6.0,2.0,11.0
1701540505.8294246,10.0,15.0,-11.0,5.0,2.0,7.0,4.0,12.0
1701540505.8294246,12.0,28.0,5.0,5.0,1.0,-3.0,1.0,10.0
1701540505.8294246,8.0,9.0,18.0,-1.0,-3.0,-2.0,-1.0,-4.0
1701540505.8294246,-11.0,-4.0,-26.0,-17.0,-15.0,-15.0,-8.0,-20.0
1701540505.8294246,8.0,-82.0,-19.0,10.0,10.0,16.0,30.0,28.0
1701540505.83835,36.0,-27.0,18.0,3.0,-8.0,-6.0,-5.0,-10.0
1701540505.83835,-4.0,87.0,14.0,2.0,-4.0,-2.0,9.0,5.0
1701540505.841819,10.0,19.0,33.0,-8.0,-9.0,-2.0,-3.0,-7.0
1701540505.841819,1.0,6.0,-99.0,-17.0,0.0,-6.0,-1.0,11.0
1701540505.8553662,-2.0,-8.0,22.0,7.0,2.0,4.0,-1.0,-7.0
1701540505.8553662,7.0,-62.0,38.0,12.0,-2.0,0.0,1.0,14.0
1701540505.9061031,5.0,20.0,-22.0,-12.0,-3.0,2.0,0.0,-4.0
1701540505.9061031,6.0,-3.0,34.0,-10.0,-11.0,-2.0,-4.0,-8.0
1701540505.9061031,-7.0,-67.0,70.0,-8.0,-33.0,-3.0,-5.0,-8.0
1701540505.9061031,2.0,25.0,-99.0,93.0,97.0,31.0,10.0,10.0
1701540505.9061031,-18.0,34.0,19.0,-89.0,-24.0,-7.0,-4.0,3.0
1701540505.9061031,-3.0,-11.0,61.0,23.0,-5.0,-4.0,-5.0,-14.0
1701540505.9061031,7.0,18.0,15.0,-4.0,-13.0,-5.0,1.0,5.0
1701540505.9061031,25.0,-128.0,-7.0,-73.0,-60.0,-6.0,9.0,2.0
1701540505.9061031,-16.0,96.0,34.0,66.0,6.0,-6.0,-14.0,-12.0
1701540505.9061031,-6.0,42.0,27.0,48.0,60.0,10.0,-5.0,-14.0
1701540505.9571579,-6.0,-48.0,-91.0,-98.0,-28.0,-7.0,-7.0,-7.0
1701540505.9571579,17.0,-29.0,50.0,67.0,-8.0,-4.0,-4.0,12.0
1701540505.9571579,-44.0,-51.0,-52.0,-71.0,-38.0,-9.0,5.0,6.0
1701540505.9571579,2.0,-6.0,-15.0,25.0,-14.0,-1.0,-1.0,0.0
1701540505.9571579,-17.0,36.0,7.0,68.0,27.0,5.0,-17.0,-37.0
1701540505.9571579,34.0,-88.0,-54.0,-92.0,-49.0,-8.0,33.0,17.0
1701540505.9571579,-2.0,39.0,-6.0,-92.0,-8.0,4.0,-6.0,-14.0
1701540505.9571579,-14.0,44.0,33.0,92.0,88.0,0.0,-23.0,10.0
1701540505.9585576,9.0,-37.0,-2.0,22.0,29.0,14.0,-32.0,-11.0
1701540505.9585576,-1.0,-2.0,1.0,-69.0,-38.0,-20.0,36.0,8.0
1701540505.970632,-4.0,-52.0,-20.0,-62.0,-98.0,-41.0,8.0,14.0
1701540505.970632,10.0,51.0,34.0,9.0,15.0,54.0,9.0,1.0
1701540506.0132234,3.0,29.0,35.0,14.0,17.0,0.0,9.0,12.0
1701540506.0132234,-9.0,-6.0,-29.0,-30.0,-9.0,-2.0,-27.0,-16.0
1701540506.0132234,-9.0,-79.0,-63.0,-16.0,-2.0,-4.0,7.0,3.0
1701540506.0132234,1.0,-37.0,34.0,-35.0,-59.0,-30.0,-5.0,-10.0
1701540506.0132234,-10.0,-13.0,47.0,-19.0,-4.0,1.0,5.0,6.0
1701540506.0132234,-8.0,10.0,-13.0,32.0,18.0,-3.0,-9.0,-12.0
1701540506.0142298,6.0,-12.0,84.0,66.0,18.0,6.0,3.0,-1.0
1701540506.0142298,-6.0,-20.0,-52.0,-33.0,-12.0,-9.0,-9.0,-13.0
1701540506.0183394,-34.0,18.0,-17.0,-5.0,10.0,4.0,13.0,5.0
1701540506.0183394,21.0,41.0,34.0,23.0,9.0,-1.0,-3.0,8.0
1701540506.0232205,2.0,24.0,5.0,56.0,28.0,16.0,-1.0,-1.0
1701540506.0232205,11.0,-19.0,-8.0,-50.0,-19.0,-5.0,4.0,-1.0
1701540506.0745146,8.0,4.0,-22.0,8.0,0.0,-8.0,3.0,5.0
1701540506.0745146,-21.0,-9.0,43.0,3.0,-6.0,-11.0,-37.0,-9.0
1701540506.0745146,-29.0,-6.0,-51.0,14.0,29.0,12.0,20.0,-4.0
1701540506.0745146,-2.0,5.0,66.0,-14.0,-20.0,-8.0,-25.0,-12.0
1701540506.0745146,6.0,29.0,-100.0,-35.0,-23.0,-12.0,47.0,13.0
1701540506.0745146,-49.0,7.0,48.0,27.0,12.0,6.0,-21.0,-20.0
1701540506.0756342,38.0,-35.0,-92.0,6.0,18.0,12.0,-3.0,7.0
1701540506.07754,7.0,-31.0,1.0,-22.0,-20.0,-11.0,9.0,8.0
1701540506.0784044,-15.0,-9.0,36.0,12.0,-1.0,-1.0,-22.0,-1.0
1701540506.0791872,9.0,79.0,3.0,0.0,3.0,-3.0,1.0,-2.0
1701540506.0910852,15.0,-10.0,12.0,14.0,7.0,-3.0,1.0,-2.0
1701540506.0910852,-13.0,-13.0,-23.0,-20.0,-12.0,-6.0,4.0,-6.0
1701540506.1391442,7.0,-17.0,-21.0,11.0,-1.0,2.0,-6.0,6.0
1701540506.1391442,-1.0,0.0,-50.0,-2.0,5.0,3.0,13.0,-1.0
1701540506.1391442,5.0,4.0,22.0,2.0,-1.0,0.0,-7.0,-2.0
1701540506.1391442,5.0,-19.0,-23.0,-5.0,-8.0,-5.0,-7.0,-2.0
1701540506.1396964,1.0,-6.0,33.0,8.0,1.0,1.0,0.0,0.0
1701540506.1396964,3.0,1.0,12.0,0.0,1.0,4.0,5.0,0.0
1701540506.1396964,-6.0,-7.0,26.0,6.0,-3.0,-2.0,-12.0,-3.0
1701540506.1396964,-5.0,-9.0,-39.0,-26.0,-20.0,-8.0,5.0,1.0
1701540506.1396964,1.0,0.0,-28.0,8.0,13.0,4.0,5.0,1.0
1701540506.1396964,-1.0,0.0,89.0,5.0,8.0,3.0,-2.0,-4.0
1701540506.1656306,3.0,-16.0,-10.0,6.0,3.0,-1.0,-4.0,1.0
1701540506.1656306,-8.0,1.0,12.0,8.0,-3.0,-1.0,4.0,-3.0
1701540506.1676302,3.0,14.0,4.0,-1.0,-3.0,-2.0,-3.0,-2.0
1701540506.1676302,7.0,13.0,-1.0,-14.0,-3.0,2.0,-3.0,1.0
1701540506.1696515,-4.0,7.0,25.0,15.0,7.0,3.0,-1.0,-1.0
1701540506.1696515,-5.0,-8.0,-25.0,-21.0,-9.0,-2.0,-1.0,0.0
1701540506.1761582,-18.0,8.0,2.0,0.0,-6.0,0.0,1.0,-2.0
1701540506.1761582,3.0,-8.0,-18.0,3.0,3.0,2.0,2.0,1.0
1701540506.197436,33.0,11.0,2.0,-4.0,0.0,-1.0,-3.0,-1.0
1701540506.198438,-10.0,-13.0,-14.0,0.0,2.0,-1.0,2.0,0.0
1701540506.2004066,-49.0,-7.0,17.0,-4.0,-4.0,-2.0,-5.0,-14.0
1701540506.2004066,39.0,1.0,-29.0,-3.0,-6.0,-2.0,5.0,24.0
1701540506.247467,23.0,10.0,4.0,2.0,2.0,1.0,-3.0,-1.0
1701540506.247467,-1.0,-11.0,11.0,3.0,4.0,-2.0,-1.0,0.0
1701540506.247467,14.0,-53.0,20.0,16.0,5.0,2.0,1.0,2.0
1701540506.247467,-26.0,89.0,-7.0,-16.0,-12.0,-7.0,-3.0,-11.0
1701540506.247467,-16.0,-14.0,-57.0,-6.0,-1.0,0.0,-4.0,-2.0
1701540506.247467,16.0,7.0,30.0,10.0,5.0,0.0,1.0,2.0
1701540506.247467,8.0,-22.0,-3.0,17.0,3.0,1.0,3.0,2.0
1701540506.247467,-7.0,-28.0,-88.0,-24.0,-12.0,-4.0,-4.0,-9.0
1701540506.267072,1.0,16.0,16.0,3.0,-21.0,-5.0,-2.0,3.0
1701540506.267072,-6.0,-6.0,-2.0,44.0,45.0,10.0,8.0,5.0
1701540506.267072,-5.0,1.0,-3.0,-15.0,-3.0,-3.0,-4.0,-8.0
1701540506.267072,4.0,-1.0,29.0,23.0,4.0,-2.0,-4.0,-4.0
1701540506.2680733,-8.0,7.0,4.0,-31.0,-15.0,-5.0,-1.0,-1.0
1701540506.2680733,-6.0,-12.0,-21.0,-15.0,-25.0,-5.0,-2.0,-3.0
1701540506.2784204,11.0,26.0,21.0,0.0,-1.0,0.0,-1.0,6.0
1701540506.2784204,3.0,-3.0,12.0,10.0,5.0,-4.0,-4.0,-1.0
1701540506.2924554,1.0,-7.0,30.0,9.0,6.0,-7.0,-18.0,-5.0
1701540506.2924554,-5.0,-9.0,-5.0,-18.0,-6.0,10.0,25.0,6.0
1701540506.2970219,29.0,1.0,-27.0,-8.0,-3.0,0.0,-1.0,4.0
1701540506.2970219,-19.0,-25.0,2.0,-10.0,-3.0,0.0,1.0,-7.0
1701540506.3171234,6.0,-46.0,10.0,9.0,5.0,-1.0,-5.0,3.0
1701540506.3171234,1.0,62.0,56.0,2.0,-2.0,-11.0,-14.0,-6.0
1701540506.3196983,-4.0,-48.0,-43.0,4.0,-2.0,-1.0,-1.0,-1.0
1701540506.3196983,-1.0,59.0,75.0,7.0,2.0,3.0,-3.0,0.0
1701540506.3872886,-11.0,6.0,-49.0,-27.0,-4.0,-4.0,0.0,-3.0
1701540506.3872886,2.0,-8.0,-11.0,16.0,6.0,-1.0,-2.0,-4.0
1701540506.3908045,-1.0,-11.0,33.0,-2.0,-2.0,-1.0,3.0,-1.0
1701540506.3908045,4.0,-31.0,-14.0,-5.0,3.0,2.0,-1.0,0.0
1701540506.3970726,-9.0,5.0,-10.0,9.0,3.0,4.0,2.0,-7.0
1701540506.3970726,-8.0,2.0,-16.0,-15.0,-14.0,-5.0,-4.0,1.0
1701540506.3970726,13.0,22.0,8.0,-11.0,-4.0,-1.0,-2.0,1.0
1701540506.3970726,-35.0,-27.0,-83.0,-13.0,-9.0,-3.0,0.0,-5.0
1701540506.4159324,1.0,15.0,4.0,-8.0,3.0,4.0,6.0,5.0
1701540506.4159324,-3.0,-20.0,-18.0,17.0,-5.0,-3.0,-5.0,-6.0
1701540506.4159324,22.0,14.0,-34.0,-7.0,-6.0,-6.0,-10.0,5.0
1701540506.4159324,7.0,3.0,33.0,5.0,3.0,6.0,12.0,4.0
1701540506.4159324,-5.0,-17.0,4.0,-13.0,-8.0,0.0,2.0,-2.0
1701540506.4159324,-6.0,-18.0,34.0,-2.0,11.0,-3.0,-3.0,-4.0
1701540506.4159324,-2.0,60.0,-19.0,-3.0,-1.0,-2.0,-5.0,-7.0
1701540506.4159324,-5.0,-13.0,22.0,4.0,-3.0,-2.0,2.0,-2.0
1701540506.4159324,22.0,-3.0,-15.0,8.0,5.0,3.0,0.0,9.0
1701540506.4159324,43.0,-68.0,-14.0,-22.0,-3.0,2.0,2.0,5.0
1701540506.4169335,-10.0,74.0,49.0,-2.0,-3.0,0.0,6.0,-1.0
1701540506.4169335,-8.0,-9.0,-23.0,2.0,-2.0,-4.0,-7.0,-3.0
1701540506.4685535,-12.0,0.0,-3.0,15.0,12.0,1.0,2.0,-5.0
1701540506.4685535,-5.0,-10.0,-14.0,-19.0,-9.0,-4.0,-6.0,-3.0
1701540506.4685535,-15.0,-56.0,27.0,11.0,0.0,0.0,2.0,3.0
1701540506.4685535,17.0,28.0,16.0,4.0,-1.0,-1.0,-7.0,-2.0
1701540506.4685535,3.0,8.0,-32.0,-5.0,-2.0,-4.0,-1.0,-2.0
1701540506.4685535,-4.0,5.0,-1.0,3.0,4.0,5.0,1.0,3.0
1701540506.4685535,-12.0,-16.0,-1.0,3.0,-1.0,-2.0,-9.0,-5.0
1701540506.4685535,-3.0,-28.0,7.0,-6.0,-3.0,-1.0,4.0,-10.0
1701540506.46967,-14.0,7.0,9.0,0.0,1.0,-2.0,-3.0,-4.0
1701540506.46967,3.0,-3.0,18.0,0.0,0.0,3.0,8.0,4.0
1701540506.4758348,-15.0,15.0,-16.0,-14.0,-3.0,-3.0,-4.0,-6.0
1701540506.4758348,10.0,0.0,-39.0,7.0,3.0,-2.0,-4.0,4.0
1701540506.5396404,-5.0,-1.0,73.0,9.0,1.0,-3.0,-9.0,-5.0
1701540506.5396404,-10.0,-4.0,-72.0,-10.0,-5.0,1.0,15.0,-3.0
1701540506.5396404,12.0,-58.0,64.0,7.0,1.0,3.0,4.0,3.0
1701540506.5396404,2.0,85.0,92.0,18.0,0.0,-5.0,-4.0,1.0
1701540506.5396404,-12.0,-4.0,-93.0,-18.0,2.0,1.0,3.0,-2.0
1701540506.5396404,-12.0,0.0,7.0,0.0,-2.0,-4.0,-14.0,-5.0
1701540506.5396404,7.0,-8.0,31.0,7.0,1.0,1.0,7.0,4.0
1701540506.5396404,-5.0,-28.0,1.0,-3.0,0.0,-2.0,-5.0,1.0
1701540506.5396404,18.0,-1.0,46.0,9.0,0.0,0.0,1.0,-1.0
1701540506.5396404,1.0,25.0,-41.0,0.0,-2.0,0.0,-4.0,-3.0
1701540506.5461664,-1.0,11.0,-76.0,-11.0,-11.0,-9.0,-14.0,-4.0
1701540506.5461664,1.0,-30.0,-5.0,-7.0,0.0,-1.0,9.0,-1.0
1701540506.5738947,-20.0,11.0,9.0,9.0,1.0,0.0,1.0,5.0
1701540506.5738947,-8.0,-11.0,10.0,-7.0,-1.0,1.0,-2.0,0.0
1701540506.5738947,15.0,-8.0,-32.0,-8.0,4.0,4.0,5.0,4.0
1701540506.5738947,-11.0,8.0,-3.0,-4.0,0.0,-2.0,-11.0,-8.0
1701540506.5738947,-6.0,-12.0,18.0,4.0,-1.0,-1.0,-4.0,-7.0
1701540506.5748942,6.0,2.0,27.0,3.0,2.0,-1.0,-2.0,8.0
1701540506.5748942,-3.0,20.0,34.0,7.0,2.0,-1.0,3.0,-1.0
1701540506.5748942,-6.0,-28.0,-5.0,-2.0,0.0,-2.0,-8.0,-5.0
1701540506.5860684,4.0,-7.0,-29.0,-8.0,-5.0,-2.0,3.0,0.0
1701540506.5860684,0.0,8.0,-2.0,7.0,-3.0,-6.0,-22.0,-5.0
1701540506.6342812,-41.0,11.0,-7.0,-1.0,3.0,1.0,18.0,-6.0
1701540506.6342812,44.0,-14.0,-11.0,-7.0,3.0,12.0,9.0,9.0
1701540506.6342812,-13.0,-6.0,5.0,6.0,-4.0,-5.0,0.0,-16.0
1701540506.6342812,29.0,12.0,30.0,-3.0,-7.0,-4.0,-9.0,-4.0
1701540506.6342812,1.0,3.0,-15.0,-10.0,-4.0,-3.0,-10.0,-4.0
1701540506.6342812,-22.0,5.0,28.0,9.0,6.0,-2.0,-5.0,2.0
1701540506.6342812,6.0,-101.0,-11.0,0.0,0.0,7.0,8.0,14.0
1701540506.6342812,-29.0,89.0,45.0,-5.0,-6.0,-2.0,3.0,-13.0
1701540506.6342812,28.0,3.0,26.0,-22.0,-23.0,-14.0,-13.0,-5.0
1701540506.6342812,5.0,1.0,-90.0,48.0,49.0,8.0,7.0,7.0
1701540506.638489,13.0,-17.0,43.0,18.0,18.0,4.0,-1.0,5.0
1701540506.638489,-15.0,-35.0,-29.0,-2.0,-4.0,0.0,5.0,-4.0
1701540506.6514347,6.0,-47.0,-8.0,-6.0,-5.0,2.0,2.0,3.0
1701540506.6514347,-7.0,57.0,6.0,-30.0,-29.0,-9.0,-7.0,-5.0
1701540506.6681485,-10.0,12.0,-23.0,6.0,2.0,2.0,2.0,1.0
1701540506.6681485,0.0,7.0,75.0,25.0,18.0,3.0,7.0,1.0
1701540506.678273,-3.0,5.0,-73.0,-12.0,0.0,0.0,-6.0,-3.0
1701540506.678273,-11.0,-44.0,18.0,-4.0,-9.0,-4.0,-4.0,1.0
1701540506.7190037,0.0,23.0,-14.0,-7.0,-2.0,-5.0,-5.0,-1.0
1701540506.7190037,6.0,-19.0,40.0,-3.0,-9.0,-2.0,-1.0,0.0
1701540506.7439969,-7.0,-17.0,-35.0,-1.0,5.0,2.0,-1.0,2.0
1701540506.7439969,-1.0,51.0,-10.0,-2.0,-2.0,1.0,6.0,7.0
1701540506.7579942,-7.0,18.0,13.0,-8.0,-8.0,-5.0,-13.0,-11.0
1701540506.7579942,-7.0,-18.0,-26.0,-5.0,-5.0,-4.0,-1.0,-1.0
1701540506.7619922,3.0,-11.0,19.0,21.0,10.0,3.0,1.0,2.0
1701540506.7619922,13.0,-39.0,-2.0,-3.0,-2.0,2.0,4.0,0.0
1701540506.7619922,-24.0,18.0,44.0,-25.0,-11.0,-3.0,-1.0,-1.0
1701540506.7619922,10.0,-21.0,-101.0,-3.0,-1.0,-1.0,-2.0,3.0
1701540506.7619922,0.0,18.0,15.0,-29.0,-9.0,-3.0,-1.0,-3.0
1701540506.7619922,-6.0,-9.0,-24.0,2.0,4.0,-2.0,-5.0,-7.0
1701540506.7619922,10.0,-2.0,33.0,25.0,7.0,2.0,2.0,1.0
1701540506.7619922,0.0,-92.0,-7.0,12.0,-8.0,-3.0,0.0,-2.0
1701540506.7710595,-12.0,97.0,-8.0,-37.0,5.0,2.0,-3.0,-3.0
1701540506.7710595,-4.0,-46.0,11.0,-21.0,-17.0,-9.0,-5.0,-11.0
1701540506.7710595,-2.0,7.0,46.0,36.0,3.0,2.0,0.0,6.0
1701540506.7710595,-7.0,-17.0,-2.0,-85.0,-8.0,-2.0,-1.0,-1.0
1701540506.7741055,1.0,-33.0,4.0,26.0,-11.0,-4.0,-2.0,7.0
1701540506.7741055,1.0,16.0,115.0,31.0,-3.0,0.0,1.0,-2.0
1701540506.7859592,6.0,8.0,-44.0,-38.0,-4.0,-4.0,-2.0,-6.0
1701540506.7886262,4.0,4.0,36.0,37.0,1.0,2.0,-5.0,-10.0
1701540506.789666,2.0,-21.0,34.0,8.0,7.0,5.0,7.0,9.0
1701540506.789666,17.0,13.0,-61.0,-22.0,1.0,1.0,0.0,-11.0
1701540506.806247,-45.0,-4.0,-15.0,17.0,-1.0,-7.0,-6.0,29.0
1701540506.806247,40.0,51.0,3.0,21.0,9.0,11.0,16.0,-9.0
1701540506.8610828,-16.0,-15.0,4.0,-5.0,3.0,1.0,-24.0,-3.0
1701540506.8610828,-11.0,-49.0,-33.0,12.0,4.0,4.0,36.0,7.0
1701540506.8610828,15.0,28.0,-50.0,-33.0,-14.0,-4.0,-4.0,-9.0
1701540506.8610828,-9.0,3.0,-18.0,1.0,1.0,-7.0,-12.0,2.0
1701540506.8610828,-9.0,3.0,10.0,14.0,4.0,0.0,3.0,-8.0
1701540506.8610828,-17.0,3.0,-2.0,-13.0,-10.0,-1.0,-10.0,-5.0
1701540506.862081,9.0,-13.0,29.0,4.0,-2.0,1.0,5.0,5.0
1701540506.862081,-18.0,29.0,33.0,-9.0,-2.0,-5.0,-4.0,-2.0
1701540506.862081,13.0,-7.0,-20.0,17.0,9.0,8.0,18.0,-5.0
1701540506.862081,-9.0,-3.0,33.0,0.0,-2.0,-7.0,-14.0,4.0
1701540506.8631756,15.0,-52.0,-16.0,-1.0,4.0,2.0,4.0,-4.0
1701540506.8631756,-10.0,68.0,27.0,1.0,-5.0,0.0,2.0,3.0
1701540506.9231434,-2.0,-20.0,1.0,2.0,-1.0,-6.0,-6.0,-6.0
1701540506.9231434,8.0,-40.0,-11.0,-4.0,-5.0,-1.0,-12.0,-4.0
1701540506.9231434,-7.0,-1.0,-13.0,-14.0,-10.0,-8.0,1.0,-1.0
1701540506.9231434,4.0,-28.0,9.0,14.0,15.0,4.0,-6.0,10.0
1701540506.9231434,-1.0,-9.0,-45.0,-5.0,0.0,-3.0,10.0,5.0
1701540506.9231434,-4.0,21.0,7.0,-10.0,-7.0,-2.0,-5.0,5.0
1701540506.9279518,6.0,-13.0,-18.0,3.0,-1.0,2.0,2.0,-2.0
1701540506.9279518,-49.0,-29.0,-40.0,-15.0,-24.0,-14.0,-28.0,-40.0
1701540506.9279518,18.0,44.0,47.0,-20.0,13.0,5.0,-2.0,9.0
1701540506.9279518,-4.0,68.0,-28.0,59.0,30.0,6.0,3.0,1.0
1701540506.9289536,20.0,-77.0,21.0,9.0,2.0,12.0,29.0,19.0
1701540506.9312057,-2.0,104.0,-4.0,-22.0,-20.0,-20.0,-5.0,-8.0
1701540506.9658062,-29.0,-32.0,-16.0,-19.0,-14.0,-7.0,-1.0,-4.0
1701540506.9658062,-7.0,-41.0,3.0,8.0,5.0,3.0,4.0,3.0
1701540506.9658062,22.0,9.0,34.0,11.0,6.0,5.0,6.0,7.0
1701540506.9658062,-16.0,-80.0,-37.0,-6.0,6.0,3.0,1.0,-4.0
1701540506.9658062,6.0,-21.0,4.0,7.0,-9.0,-6.0,3.0,-1.0
1701540506.9658062,-5.0,20.0,-47.0,-32.0,-21.0,-8.0,-9.0,5.0
1701540506.9680326,-10.0,26.0,-65.0,-25.0,-9.0,-5.0,-8.0,-17.0
1701540506.9680326,12.0,-20.0,41.0,24.0,28.0,11.0,9.0,16.0
1701540506.9695637,1.0,15.0,50.0,48.0,12.0,2.0,-4.0,-4.0
1701540506.9695637,-3.0,-14.0,26.0,-25.0,-16.0,-8.0,-3.0,-4.0
1701540507.0221386,-2.0,21.0,-74.0,-54.0,-13.0,-4.0,-12.0,-9.0
1701540507.0221386,12.0,12.0,14.0,2.0,-10.0,0.0,6.0,9.0
1701540507.0221386,1.0,10.0,39.0,78.0,63.0,15.0,0.0,3.0
1701540507.0221386,9.0,-42.0,-8.0,-81.0,10.0,5.0,2.0,-4.0
1701540507.0221386,-4.0,3.0,15.0,-28.0,-14.0,-9.0,-8.0,-7.0
1701540507.0231369,-4.0,-6.0,-13.0,-75.0,-47.0,-17.0,-7.0,0.0
1701540507.0231369,7.0,-6.0,-55.0,-70.0,-7.0,0.0,-1.0,-3.0
1701540507.0231369,-5.0,-13.0,4.0,71.0,-9.0,-3.0,-19.0,-11.0
1701540507.0231369,-5.0,27.0,51.0,-12.0,19.0,2.0,18.0,2.0
1701540507.0231369,3.0,-11.0,-3.0,13.0,3.0,0.0,2.0,1.0
1701540507.0377185,-4.0,-3.0,26.0,-6.0,-24.0,-9.0,-15.0,-5.0
1701540507.0377185,-1.0,5.0,-12.0,42.0,7.0,1.0,6.0,-4.0
1701540507.0872078,-3.0,-18.0,1.0,-14.0,2.0,0.0,-9.0,-2.0
1701540507.0872078,5.0,-14.0,103.0,26.0,-9.0,-1.0,7.0,6.0
1701540507.0908287,3.0,20.0,-61.0,-18.0,-14.0,-5.0,-10.0,-6.0
1701540507.0908287,15.0,-6.0,-20.0,-30.0,-11.0,-4.0,0.0,0.0
1701540507.0908287,-24.0,31.0,3.0,36.0,2.0,1.0,-17.0,-9.0
1701540507.0908287,20.0,-21.0,-35.0,14.0,24.0,7.0,14.0,10.0
1701540507.0908287,-16.0,-4.0,4.0,-5.0,-21.0,-6.0,-2.0,0.0
1701540507.0908287,4.0,-17.0,8.0,-23.0,-2.0,1.0,5.0,4.0
1701540507.0908287,11.0,-2.0,4.0,17.0,4.0,-1.0,-1.0,-3.0
1701540507.0908287,0.0,-6.0,-15.0,-1.0,7.0,1.0,-5.0,-2.0
1701540507.0918515,6.0,8.0,-27.0,-23.0,-6.0,-4.0,1.0,-2.0
1701540507.0918515,1.0,22.0,41.0,7.0,1.0,-2.0,-1.0,0.0
1701540507.127628,-1.0,3.0,64.0,21.0,4.0,0.0,-4.0,-4.0
1701540507.127628,-14.0,-3.0,-120.0,-20.0,-2.0,-3.0,-1.0,-3.0
1701540507.127628,5.0,-13.0,72.0,21.0,1.0,2.0,2.0,0.0
1701540507.1286244,-7.0,5.0,-43.0,-13.0,3.0,-1.0,1.0,-1.0
1701540507.1297262,-2.0,12.0,13.0,18.0,-6.0,-5.0,-3.0,-3.0
1701540507.1297262,-1.0,-3.0,-12.0,-4.0,3.0,2.0,-1.0,3.0
1701540507.1360536,3.0,-16.0,-24.0,-10.0,-3.0,-1.0,2.0,0.0
1701540507.1360536,0.0,1.0,7.0,-8.0,-2.0,-2.0,0.0,0.0
1701540507.1471424,-7.0,-8.0,-17.0,-6.0,-1.0,0.0,-6.0,-3.0
1701540507.148716,3.0,7.0,-13.0,4.0,2.0,-1.0,0.0,-1.0
1701540507.1497476,-6.0,-18.0,11.0,4.0,0.0,0.0,0.0,1.0
1701540507.1497476,-3.0,0.0,12.0,-3.0,-3.0,0.0,-2.0,-3.0
1701540507.1882832,3.0,-1.0,1.0,5.0,1.0,-1.0,-1.0,-2.0
1701540507.1882832,-8.0,0.0,-12.0,1.0,8.0,2.0,1.0,0.0
1701540507.1882832,1.0,-7.0,-7.0,-2.0,-5.0,-2.0,-1.0,-2.0
1701540507.1882832,-5.0,-14.0,8.0,-4.0,-5.0,-2.0,0.0,-1.0
1701540507.1893737,4.0,19.0,-7.0,6.0,12.0,2.0,1.0,2.0
1701540507.1893737,4.0,5.0,31.0,6.0,29.0,6.0,2.0,1.0
1701540507.196028,-4.0,-15.0,-45.0,1.0,2.0,1.0,1.0,0.0
1701540507.196028,-2.0,-1.0,-33.0,2.0,5.0,1.0,-2.0,0.0
1701540507.2459683,1.0,-17.0,15.0,11.0,-5.0,-4.0,0.0,0.0
1701540507.2459683,-2.0,17.0,4.0,3.0,-5.0,-2.0,-2.0,-3.0
1701540507.2525241,1.0,7.0,32.0,6.0,-3.0,-4.0,-1.0,1.0
1701540507.2525241,0.0,-3.0,10.0,-12.0,-2.0,0.0,0.0,-6.0
1701540507.2525241,-1.0,-37.0,-8.0,-4.0,-5.0,1.0,-1.0,5.0
1701540507.2525241,-30.0,32.0,28.0,-3.0,-7.0,-5.0,-7.0,-8.0
1701540507.2525241,9.0,-11.0,-7.0,-7.0,-4.0,0.0,1.0,2.0
1701540507.2525241,8.0,12.0,-39.0,6.0,-3.0,-1.0,1.0,-1.0
1701540507.255269,-5.0,-11.0,-37.0,-15.0,1.0,1.0,4.0,-6.0
1701540507.255269,19.0,-14.0,7.0,4.0,-5.0,-1.0,-9.0,2.0
1701540507.2563,2.0,-1.0,-20.0,-4.0,-1.0,-1.0,11.0,0.0
1701540507.2563,-17.0,-1.0,28.0,3.0,1.0,-2.0,-1.0,-2.0
1701540507.3141642,9.0,8.0,17.0,13.0,-4.0,-2.0,-11.0,-5.0
1701540507.3141642,-3.0,-13.0,-83.0,-12.0,0.0,2.0,10.0,3.0
1701540507.3141642,0.0,9.0,13.0,-1.0,-3.0,-2.0,-5.0,-3.0
1701540507.3141642,0.0,-13.0,19.0,-7.0,0.0,0.0,-4.0,4.0
1701540507.319328,-8.0,6.0,-27.0,-9.0,-8.0,-5.0,1.0,-4.0
1701540507.319328,16.0,0.0,22.0,1.0,-5.0,-2.0,-1.0,-2.0
1701540507.3218904,-7.0,-8.0,29.0,7.0,-3.0,-2.0,-7.0,12.0
1701540507.3218904,-1.0,11.0,16.0,2.0,-2.0,-3.0,1.0,-20.0
1701540507.3218904,1.0,-4.0,-7.0,-6.0,0.0,0.0,-1.0,-1.0
1701540507.3218904,4.0,-8.0,-6.0,-7.0,-7.0,1.0,2.0,-3.0
1701540507.3228898,-5.0,7.0,9.0,1.0,11.0,0.0,-3.0,-2.0
1701540507.3228898,-1.0,-7.0,1.0,-16.0,-8.0,-3.0,-6.0,6.0
1701540507.3483663,6.0,19.0,4.0,23.0,13.0,6.0,8.0,7.0
1701540507.3483663,-13.0,-13.0,-4.0,-5.0,2.0,-7.0,-14.0,-20.0
1701540507.3483663,0.0,-8.0,-13.0,-15.0,-8.0,2.0,2.0,-2.0
1701540507.3483663,-2.0,0.0,2.0,7.0,-2.0,-1.0,-2.0,0.0
1701540507.3503802,3.0,-74.0,19.0,-11.0,-10.0,-6.0,-1.0,0.0
1701540507.3503802,-8.0,84.0,-6.0,10.0,-3.0,0.0,2.0,6.0
1701540507.3518596,8.0,-1.0,4.0,-25.0,-2.0,-2.0,-6.0,-5.0
1701540507.3518596,11.0,-4.0,-2.0,3.0,3.0,2.0,0.0,-1.0
1701540507.3899615,-12.0,-18.0,-13.0,-19.0,-23.0,-4.0,0.0,1.0
1701540507.3899615,5.0,-23.0,29.0,14.0,28.0,5.0,2.0,6.0
1701540507.3899615,-2.0,5.0,38.0,16.0,0.0,-2.0,-1.0,-5.0
1701540507.3899615,7.0,-2.0,-60.0,-27.0,-13.0,-5.0,-3.0,-1.0
1701540507.3909857,0.0,-20.0,-16.0,-12.0,-5.0,4.0,-2.0,1.0
1701540507.3909857,5.0,18.0,12.0,19.0,17.0,3.0,3.0,1.0
1701540507.3984962,15.0,26.0,3.0,-14.0,-10.0,-2.0,2.0,0.0
1701540507.3984962,-44.0,-72.0,52.0,13.0,-1.0,-2.0,-2.0,5.0
1701540507.4195817,-10.0,28.0,-17.0,-27.0,-13.0,-7.0,-6.0,-6.0
1701540507.4195817,-2.0,-13.0,-17.0,-17.0,-15.0,-1.0,-1.0,0.0
1701540507.421306,5.0,-13.0,-44.0,3.0,5.0,-1.0,-3.0,-7.0
1701540507.421306,14.0,12.0,3.0,-8.0,-10.0,-4.0,1.0,2.0
1701540507.4754882,-2.0,26.0,23.0,14.0,12.0,-2.0,-4.0,3.0
1701540507.4754882,-6.0,-13.0,-10.0,2.0,-3.0,-5.0,-2.0,-1.0
1701540507.4754882,1.0,-9.0,10.0,0.0,-4.0,3.0,5.0,0.0
1701540507.4754882,23.0,-49.0,-43.0,-7.0,5.0,5.0,-2.0,7.0
1701540507.4821696,-7.0,93.0,65.0,12.0,6.0,-2.0,4.0,-2.0
1701540507.4821696,6.0,-3.0,30.0,10.0,1.0,0.0,-6.0,-1.0
1701540507.4821696,-11.0,-17.0,-70.0,-25.0,-21.0,-10.0,-5.0,-5.0
1701540507.4821696,-7.0,30.0,-9.0,17.0,26.0,4.0,-1.0,-6.0
1701540507.4821696,11.0,-42.0,3.0,10.0,10.0,3.0,-1.0,0.0
1701540507.4821696,-2.0,-15.0,54.0,-34.0,-36.0,-7.0,-1.0,0.0
1701540507.483159,-13.0,20.0,30.0,44.0,28.0,4.0,-1.0,-5.0
1701540507.483159,0.0,1.0,-42.0,-9.0,-8.0,-1.0,2.0,0.0
1701540507.5059457,4.0,-7.0,-12.0,-9.0,-1.0,-3.0,-4.0,-3.0
1701540507.5059457,-18.0,-14.0,-3.0,-6.0,-6.0,-2.0,2.0,-2.0
1701540507.5059457,-11.0,1.0,-2.0,-15.0,-4.0,-2.0,-3.0,-3.0
1701540507.5059457,9.0,21.0,67.0,21.0,3.0,0.0,-11.0,-3.0
1701540507.5069776,1.0,1.0,-42.0,-3.0,1.0,1.0,16.0,-1.0
1701540507.5069776,-8.0,-12.0,3.0,-7.0,-4.0,0.0,5.0,1.0
1701540507.518902,19.0,-6.0,-35.0,2.0,3.0,-1.0,-2.0,3.0
1701540507.518902,8.0,5.0,17.0,-1.0,3.0,1.0,0.0,-7.0
1701540507.5390964,-21.0,14.0,29.0,-13.0,-11.0,-6.0,-14.0,0.0
1701540507.5390964,-36.0,-14.0,-46.0,-1.0,3.0,-1.0,3.0,-5.0
1701540507.5414014,28.0,-80.0,7.0,6.0,5.0,13.0,13.0,10.0
1701540507.5414014,-10.0,87.0,7.0,-3.0,-8.0,-5.0,-7.0,-8.0
1701540507.6016872,-19.0,-19.0,-4.0,13.0,7.0,2.0,-8.0,0.0
1701540507.6016872,3.0,5.0,-11.0,1.0,-4.0,-12.0,-6.0,11.0
1701540507.6016872,-17.0,-11.0,9.0,-1.0,-4.0,-7.0,-39.0,-24.0
1701540507.6016872,2.0,-20.0,14.0,0.0,-1.0,12.0,54.0,7.0
1701540507.6016872,9.0,-10.0,-60.0,-8.0,0.0,0.0,3.0,5.0
1701540507.6016872,8.0,-5.0,-16.0,0.0,-1.0,-2.0,-7.0,-1.0
1701540507.6026857,-5.0,33.0,0.0,-5.0,-8.0,-12.0,-9.0,-3.0
1701540507.6026857,11.0,-8.0,9.0,2.0,2.0,6.0,3.0,9.0
1701540507.6026857,-9.0,1.0,20.0,-1.0,-4.0,0.0,0.0,-6.0
1701540507.6026857,12.0,-14.0,-17.0,1.0,3.0,2.0,-2.0,-2.0
1701540507.6050398,-9.0,18.0,6.0,8.0,1.0,-1.0,6.0,2.0
1701540507.6050398,-17.0,-12.0,6.0,-16.0,-9.0,-9.0,-20.0,-5.0
1701540507.626809,17.0,-8.0,-4.0,10.0,6.0,4.0,10.0,9.0
1701540507.626809,5.0,-8.0,-3.0,-4.0,-3.0,-1.0,-15.0,-11.0
1701540507.631975,-7.0,4.0,-3.0,-9.0,-8.0,-7.0,-5.0,-9.0
1701540507.631975,-10.0,-8.0,-3.0,4.0,0.0,-11.0,-8.0,-3.0
1701540507.6329775,0.0,6.0,-8.0,-2.0,-4.0,3.0,-8.0,-4.0
1701540507.6329775,19.0,-5.0,6.0,0.0,4.0,3.0,7.0,11.0
1701540507.6857738,-17.0,8.0,9.0,-1.0,-1.0,3.0,13.0,7.0
1701540507.6857738,0.0,-51.0,-18.0,-3.0,-2.0,-6.0,-5.0,-2.0
1701540507.7216592,0.0,56.0,-1.0,-41.0,-31.0,-18.0,-16.0,-13.0
1701540507.7216592,-4.0,11.0,-12.0,54.0,58.0,20.0,8.0,-2.0
1701540507.7216592,2.0,-24.0,22.0,24.0,2.0,2.0,8.0,2.0
1701540507.7216592,1.0,21.0,19.0,-6.0,-18.0,-6.0,-4.0,1.0
1701540507.7216592,-2.0,-43.0,-73.0,68.0,52.0,15.0,2.0,1.0
1701540507.7216592,6.0,33.0,-33.0,-50.0,-35.0,-12.0,-3.0,-4.0
1701540507.7216592,-10.0,-29.0,-28.0,-81.0,-15.0,-3.0,-3.0,7.0
1701540507.7216592,-23.0,-32.0,-60.0,27.0,17.0,2.0,0.0,-7.0
1701540507.7216592,-6.0,35.0,118.0,13.0,-20.0,-7.0,-1.0,-10.0
1701540507.7216592,-1.0,-3.0,-3.0,12.0,3.0,2.0,3.0,-1.0
1701540507.7216592,-20.0,4.0,31.0,44.0,9.0,0.0,2.0,11.0
1701540507.7216592,46.0,-5.0,-40.0,-7.0,-10.0,-3.0,-6.0,0.0
1701540507.7313242,2.0,-24.0,-39.0,-20.0,-6.0,-6.0,-11.0,-20.0
1701540507.7313242,-11.0,-20.0,15.0,8.0,0.0,-3.0,-5.0,1.0
1701540507.7313242,14.0,15.0,7.0,9.0,0.0,14.0,19.0,2.0
1701540507.7313242,-11.0,15.0,7.0,-21.0,-2.0,-2.0,-3.0,4.0
1701540507.7423484,-2.0,4.0,11.0,16.0,6.0,1.0,6.0,5.0
1701540507.7423484,-1.0,-13.0,29.0,-1.0,-10.0,-11.0,-29.0,-16.0
1701540507.74331,8.0,4.0,-26.0,-19.0,-6.0,-2.0,16.0,5.0
1701540507.74331,-20.0,-6.0,12.0,2.0,0.0,-1.0,-2.0,-18.0
1701540507.7562437,4.0,0.0,0.0,-12.0,4.0,1.0,3.0,2.0
1701540507.7562437,-4.0,-22.0,5.0,-2.0,-10.0,0.0,4.0,-2.0
1701540507.7572842,16.0,51.0,-17.0,-5.0,0.0,-5.0,-12.0,-1.0
1701540507.7572842,14.0,25.0,13.0,3.0,6.0,4.0,5.0,6.0
1701540507.780764,0.0,-45.0,15.0,-4.0,-4.0,-1.0,-8.0,2.0
1701540507.780764,1.0,27.0,-22.0,-18.0,-11.0,-6.0,0.0,-8.0
1701540507.7824976,-8.0,37.0,16.0,16.0,5.0,3.0,-2.0,-4.0
1701540507.7824976,11.0,29.0,26.0,2.0,6.0,0.0,-2.0,2.0
1701540507.8445044,-2.0,-17.0,-5.0,-8.0,-3.0,-6.0,-4.0,5.0
1701540507.8445044,4.0,-36.0,-2.0,-3.0,-7.0,3.0,8.0,5.0
1701540507.8445044,3.0,24.0,-53.0,-47.0,-14.0,-9.0,-8.0,-5.0
1701540507.8454874,-14.0,-4.0,61.0,67.0,10.0,5.0,1.0,2.0
1701540507.8512733,0.0,1.0,-82.0,-11.0,1.0,2.0,5.0,1.0
1701540507.8512733,-5.0,3.0,29.0,0.0,-9.0,-3.0,-3.0,-4.0
1701540507.8677425,1.0,-33.0,0.0,6.0,-1.0,-3.0,-1.0,-8.0
1701540507.8677425,-5.0,-8.0,-89.0,-59.0,-15.0,-3.0,-3.0,9.0
1701540507.8677425,5.0,19.0,60.0,23.0,0.0,0.0,4.0,-4.0
1701540507.8677425,1.0,6.0,-25.0,-20.0,-7.0,-5.0,-2.0,-1.0
1701540507.8677425,3.0,3.0,1.0,22.0,5.0,1.0,-1.0,-1.0
1701540507.8677425,-1.0,-10.0,-70.0,-50.0,-4.0,-6.0,-7.0,-14.0
1701540507.8677425,-6.0,2.0,68.0,26.0,-2.0,-2.0,-7.0,1.0
1701540507.8677425,-1.0,-28.0,-41.0,-8.0,0.0,3.0,12.0,6.0
1701540507.8677425,-4.0,21.0,-25.0,59.0,-1.0,-5.0,-8.0,-16.0
1701540507.8677425,-13.0,8.0,47.0,-41.0,-3.0,5.0,1.0,18.0
1701540507.870086,3.0,-19.0,-34.0,-14.0,2.0,3.0,4.0,1.0
1701540507.870086,-2.0,8.0,-7.0,6.0,4.0,-1.0,-13.0,4.0
1701540507.9263337,-2.0,-30.0,19.0,16.0,8.0,2.0,8.0,-3.0
1701540507.9263337,-4.0,-4.0,-13.0,10.0,-3.0,-12.0,-9.0,-6.0
1701540507.9263337,-1.0,9.0,6.0,-18.0,-8.0,3.0,0.0,9.0
1701540507.9263337,-5.0,-21.0,26.0,15.0,1.0,-3.0,-25.0,-17.0
1701540507.9263337,-8.0,-40.0,9.0,-11.0,0.0,-1.0,6.0,1.0
1701540507.9263337,-17.0,-15.0,29.0,7.0,-3.0,-2.0,-1.0,-5.0
1701540507.9263337,10.0,55.0,-32.0,-15.0,-2.0,-5.0,-2.0,7.0
1701540507.9263337,6.0,0.0,14.0,12.0,8.0,10.0,24.0,-3.0
1701540507.9263337,8.0,3.0,-10.0,-17.0,-5.0,-4.0,-13.0,-1.0
1701540507.9273329,11.0,-30.0,24.0,8.0,0.0,0.0,12.0,18.0
1701540507.9457886,-4.0,-35.0,-16.0,3.0,1.0,-5.0,-6.0,-3.0
1701540507.9457886,-1.0,33.0,-5.0,-4.0,-4.0,2.0,13.0,-7.0
1701540507.9457886,-28.0,-40.0,1.0,-12.0,-7.0,-9.0,-17.0,-18.0
1701540507.9457886,0.0,76.0,48.0,21.0,-1.0,3.0,1.0,3.0
1701540507.959299,2.0,-6.0,-32.0,-13.0,18.0,4.0,4.0,0.0
1701540507.959299,9.0,2.0,5.0,21.0,10.0,4.0,3.0,5.0
1701540507.961055,-1.0,-35.0,93.0,-26.0,-1.0,1.0,-1.0,14.0
1701540507.961055,-3.0,-1.0,-58.0,47.0,2.0,-2.0,-6.0,-14.0
1701540507.9821548,-4.0,3.0,48.0,5.0,-14.0,-5.0,-1.0,2.0
1701540507.9821548,-17.0,-17.0,-34.0,-23.0,-3.0,-2.0,-1.0,-8.0
1701540507.9838142,1.0,-3.0,0.0,11.0,-4.0,1.0,0.0,-7.0
1701540507.9838142,10.0,-10.0,2.0,-35.0,-1.0,1.0,-2.0,9.0
1701540507.9964774,-1.0,2.0,24.0,27.0,0.0,1.0,7.0,0.0
1701540507.9964774,5.0,26.0,29.0,-23.0,-11.0,-6.0,-6.0,-6.0
1701540508.045826,33.0,-1.0,14.0,-7.0,1.0,3.0,-1.0,-8.0
1701540508.045826,-16.0,3.0,39.0,-15.0,0.0,0.0,-3.0,15.0
1701540508.045826,1.0,-1.0,-94.0,-9.0,-4.0,-5.0,-6.0,-17.0
1701540508.045826,5.0,-20.0,31.0,10.0,-1.0,-3.0,0.0,11.0
1701540508.045826,-9.0,-4.0,-36.0,-9.0,7.0,2.0,2.0,-1.0
1701540508.045826,-2.0,8.0,3.0,8.0,2.0,0.0,-2.0,-10.0
1701540508.0519755,2.0,-32.0,40.0,-5.0,2.0,1.0,1.0,3.0
1701540508.0519755,-19.0,26.0,-30.0,-3.0,-3.0,-4.0,-2.0,-1.0
1701540508.0519755,3.0,-6.0,-20.0,0.0,-5.0,-1.0,3.0,12.0
1701540508.0519755,-12.0,-24.0,-9.0,3.0,2.0,1.0,-5.0,-18.0
1701540508.0872664,22.0,27.0,17.0,4.0,-3.0,2.0,8.0,-5.0
1701540508.0872664,-22.0,-20.0,0.0,-2.0,-2.0,-4.0,-4.0,-4.0
1701540508.0872664,1.0,1.0,4.0,4.0,1.0,0.0,6.0,9.0
1701540508.0872664,8.0,39.0,32.0,14.0,2.0,1.0,6.0,0.0
1701540508.0872664,-6.0,-33.0,-32.0,-32.0,-10.0,-20.0,-45.0,-24.0
1701540508.0872664,5.0,-5.0,1.0,0.0,1.0,10.0,23.0,17.0
1701540508.0872664,-1.0,15.0,8.0,5.0,6.0,3.0,1.0,4.0
1701540508.0872664,-3.0,-20.0,2.0,-1.0,-13.0,-7.0,-4.0,-4.0
1701540508.1024957,-3.0,13.0,12.0,-2.0,1.0,4.0,7.0,1.0
1701540508.1024957,7.0,-3.0,31.0,6.0,3.0,-5.0,-3.0,8.0
1701540508.104263,-7.0,-15.0,-22.0,-12.0,-3.0,-1.0,-1.0,7.0
1701540508.104263,-3.0,-20.0,-90.0,28.0,-21.0,-7.0,-4.0,-11.0
1701540508.15027,-11.0,86.0,94.0,-46.0,29.0,6.0,-2.0,1.0
1701540508.15027,6.0,-10.0,-42.0,21.0,0.0,-5.0,-6.0,-9.0
1701540508.15027,-1.0,-17.0,47.0,6.0,4.0,4.0,3.0,9.0
1701540508.15027,21.0,-5.0,-50.0,-2.0,1.0,-1.0,-4.0,-4.0
1701540508.15027,-1.0,-21.0,25.0,4.0,-13.0,2.0,10.0,7.0
1701540508.15027,-3.0,17.0,-34.0,-8.0,-3.0,0.0,1.0,16.0
1701540508.15027,-2.0,29.0,13.0,0.0,-1.0,-5.0,-8.0,-28.0
1701540508.15027,8.0,-24.0,23.0,-7.0,7.0,2.0,3.0,2.0
1701540508.1621568,-7.0,-6.0,-21.0,8.0,-6.0,-2.0,2.0,-3.0
1701540508.1631548,9.0,-23.0,8.0,0.0,1.0,2.0,2.0,14.0
1701540508.1641135,-6.0,5.0,-39.0,-1.0,-12.0,-9.0,-6.0,-5.0
1701540508.1641135,-11.0,30.0,6.0,-24.0,6.0,0.0,-2.0,-4.0
1701540508.1751513,-5.0,-22.0,-22.0,27.0,4.0,2.0,4.0,-5.0
1701540508.1751513,1.0,8.0,69.0,13.0,0.0,-2.0,-3.0,-7.0
1701540508.2328522,2.0,-24.0,-85.0,-23.0,-1.0,1.0,7.0,6.0
1701540508.2328522,2.0,15.0,16.0,-14.0,-11.0,-4.0,-1.0,-5.0
1701540508.2328522,-2.0,8.0,-4.0,13.0,14.0,0.0,-8.0,4.0
1701540508.2328522,21.0,-17.0,-6.0,-3.0,3.0,-12.0,-18.0,-28.0
1701540508.2328522,-28.0,18.0,10.0,-9.0,-9.0,10.0,42.0,22.0
1701540508.2328522,0.0,-4.0,13.0,-9.0,-4.0,1.0,6.0,9.0
1701540508.255827,23.0,-22.0,-20.0,-3.0,-13.0,-11.0,-11.0,-4.0
1701540508.255827,-9.0,34.0,32.0,20.0,16.0,13.0,7.0,7.0
1701540508.255827,6.0,-2.0,0.0,4.0,4.0,-20.0,-8.0,9.0
1701540508.255827,2.0,-97.0,-11.0,-3.0,2.0,32.0,24.0,-18.0
1701540508.255827,-1.0,74.0,22.0,0.0,-8.0,0.0,7.0,10.0
1701540508.255827,-2.0,53.0,-67.0,-15.0,-5.0,0.0,-1.0,-1.0
1701540508.256827,10.0,-56.0,24.0,9.0,1.0,-4.0,-19.0,-9.0
1701540508.256827,-2.0,-15.0,-21.0,7.0,9.0,-6.0,-8.0,6.0
1701540508.258048,-7.0,-82.0,49.0,-7.0,-6.0,2.0,8.0,-6.0
1701540508.2590442,-3.0,27.0,-92.0,-57.0,-29.0,-12.0,-11.0,-10.0
1701540508.2610548,-10.0,76.0,86.0,21.0,15.0,1.0,-11.0,-3.0
1701540508.2610548,2.0,-45.0,-61.0,35.0,23.0,-7.0,-8.0,-2.0
1701540508.3126538,0.0,-70.0,23.0,-17.0,-6.0,6.0,5.0,-4.0
1701540508.3136523,-9.0,-10.0,20.0,94.0,27.0,8.0,9.0,5.0
1701540508.3136523,0.0,68.0,-22.0,-91.0,-10.0,4.0,-4.0,-4.0
1701540508.3136523,-12.0,56.0,66.0,30.0,-1.0,-6.0,-4.0,-3.0
1701540508.3136523,-1.0,-71.0,-60.0,-16.0,-11.0,-11.0,1.0,6.0
1701540508.3136523,14.0,-31.0,9.0,-24.0,-28.0,-10.0,3.0,5.0
1701540508.3136523,7.0,75.0,-41.0,-13.0,-16.0,-3.0,-12.0,-8.0
1701540508.3136523,-2.0,14.0,67.0,24.0,21.0,9.0,-10.0,3.0
1701540508.3136523,3.0,39.0,-22.0,3.0,0.0,8.0,7.0,-3.0
1701540508.3136523,5.0,-59.0,16.0,-22.0,-14.0,0.0,63.0,23.0
1701540508.3215482,-6.0,-42.0,-18.0,24.0,7.0,0.0,-29.0,-20.0
1701540508.3215482,6.0,32.0,-32.0,4.0,5.0,-18.0,-7.0,2.0
1701540508.3731976,-3.0,14.0,38.0,-12.0,-16.0,-11.0,-19.0,-2.0
1701540508.3731976,-4.0,-43.0,-14.0,56.0,28.0,18.0,-12.0,-2.0
1701540508.3731976,0.0,-13.0,-14.0,-32.0,-50.0,-24.0,7.0,4.0
1701540508.3731976,-7.0,6.0,103.0,-18.0,-32.0,-4.0,-9.0,-8.0
1701540508.3731976,0.0,-49.0,-119.0,92.0,74.0,34.0,9.0,5.0
1701540508.3731976,1.0,8.0,71.0,6.0,22.0,-6.0,-11.0,-8.0
1701540508.3731976,-6.0,-53.0,-92.0,-40.0,-31.0,0.0,2.0,-1.0
1701540508.3731976,-1.0,-20.0,-8.0,-44.0,-41.0,-23.0,-21.0,-9.0
1701540508.3747487,-8.0,19.0,-43.0,-36.0,-38.0,-17.0,20.0,-1.0
1701540508.3747487,-7.0,30.0,51.0,-28.0,-21.0,-3.0,-15.0,-6.0
1701540508.4394736,1.0,14.0,-14.0,47.0,33.0,8.0,-16.0,-7.0
1701540508.4394736,1.0,9.0,-38.0,-27.0,-7.0,-9.0,17.0,11.0
1701540508.4418647,-6.0,27.0,-15.0,-4.0,6.0,6.0,-48.0,-11.0
1701540508.4418647,-13.0,-7.0,-18.0,-5.0,7.0,5.0,58.0,10.0
1701540508.4418647,20.0,-29.0,45.0,22.0,10.0,13.0,17.0,17.0
1701540508.4418647,-3.0,-14.0,-2.0,-1.0,7.0,7.0,5.0,2.0
1701540508.4452128,8.0,3.0,8.0,-2.0,-2.0,-6.0,-4.0,-4.0
1701540508.4452128,-1.0,23.0,-1.0,-12.0,-8.0,-11.0,-28.0,-13.0
1701540508.4452128,-17.0,-27.0,27.0,11.0,2.0,-7.0,-14.0,-10.0
1701540508.4452128,8.0,16.0,-28.0,-1.0,9.0,7.0,8.0,2.0
1701540508.4586267,-12.0,20.0,47.0,5.0,-1.0,-4.0,5.0,-1.0
1701540508.4586267,5.0,-49.0,-66.0,-32.0,-13.0,-5.0,-19.0,-5.0
1701540508.4586267,0.0,55.0,-17.0,10.0,10.0,3.0,12.0,0.0
1701540508.4586267,-4.0,-4.0,19.0,5.0,8.0,3.0,-8.0,-4.0
1701540508.460642,0.0,10.0,12.0,-12.0,-10.0,-4.0,7.0,2.0
1701540508.4625669,2.0,-26.0,2.0,-5.0,1.0,2.0,-11.0,-3.0
1701540508.4635112,0.0,-23.0,20.0,14.0,4.0,4.0,0.0,1.0
1701540508.4635112,-9.0,-21.0,-4.0,1.0,1.0,-2.0,1.0,-3.0
1701540508.4845922,-1.0,7.0,22.0,-2.0,-7.0,-4.0,1.0,0.0
1701540508.4845922,4.0,0.0,-23.0,-13.0,-1.0,-1.0,-8.0,-2.0
1701540508.4862804,-8.0,9.0,44.0,22.0,11.0,1.0,0.0,-2.0
1701540508.4866428,31.0,-3.0,-61.0,-25.0,-7.0,0.0,-1.0,1.0
1701540508.5408819,-56.0,-1.0,-1.0,-1.0,-2.0,-3.0,4.0,-3.0
1701540508.5408819,1.0,15.0,6.0,-6.0,-2.0,0.0,-7.0,-2.0
1701540508.5408819,4.0,-17.0,2.0,2.0,2.0,-5.0,-15.0,-9.0
1701540508.5408819,-21.0,-8.0,0.0,-8.0,-2.0,-3.0,-4.0,10.0
1701540508.5408819,-11.0,3.0,-1.0,-1.0,-3.0,6.0,13.0,0.0
1701540508.5408819,9.0,14.0,7.0,-4.0,-3.0,-1.0,-8.0,0.0
1701540508.5408819,7.0,-5.0,6.0,7.0,-2.0,1.0,4.0,-1.0
1701540508.5408819,-9.0,-3.0,1.0,4.0,-1.0,-4.0,-10.0,-5.0
1701540508.5483048,4.0,-3.0,-15.0,-5.0,1.0,-4.0,-7.0,-4.0
1701540508.5483048,-10.0,-1.0,18.0,0.0,-3.0,-3.0,-6.0,-5.0
1701540508.5483048,-1.0,-14.0,-5.0,-1.0,-11.0,-6.0,0.0,4.0
1701540508.5483048,-8.0,2.0,-1.0,-2.0,13.0,9.0,5.0,-13.0
1701540508.559171,12.0,5.0,-4.0,-24.0,-3.0,-3.0,2.0,3.0
1701540508.559171,10.0,-9.0,18.0,19.0,-15.0,-6.0,-9.0,-5.0
1701540508.5678647,-1.0,34.0,-5.0,-18.0,12.0,5.0,2.0,-3.0
1701540508.5690682,7.0,-4.0,7.0,28.0,-4.0,0.0,9.0,6.0
1701540508.6144128,-1.0,-77.0,0.0,-47.0,-16.0,-5.0,-5.0,-6.0
1701540508.6144128,-5.0,87.0,1.0,-11.0,-9.0,-6.0,-8.0,-4.0
1701540508.6144128,2.0,-40.0,-18.0,-8.0,-8.0,-1.0,4.0,3.0
1701540508.6144128,2.0,32.0,46.0,9.0,10.0,5.0,4.0,0.0
1701540508.6144128,11.0,-11.0,-54.0,12.0,10.0,4.0,3.0,2.0
1701540508.6144128,-6.0,-29.0,28.0,-19.0,-19.0,-4.0,-3.0,-1.0
1701540508.6154115,-5.0,13.0,49.0,22.0,24.0,1.0,1.0,-1.0
1701540508.6154115,-3.0,-4.0,12.0,1.0,-1.0,3.0,0.0,-1.0
1701540508.6293805,10.0,8.0,46.0,21.0,-5.0,-3.0,-1.0,3.0
1701540508.6293805,-9.0,-7.0,-82.0,-14.0,-3.0,1.0,-1.0,-2.0
1701540508.6293805,-4.0,1.0,-13.0,2.0,-9.0,-3.0,-1.0,-2.0
1701540508.6293805,0.0,-14.0,28.0,3.0,3.0,-3.0,-6.0,-1.0
1701540508.6380024,15.0,22.0,12.0,11.0,-2.0,-10.0,-27.0,-7.0
1701540508.6380024,-14.0,-1.0,30.0,12.0,11.0,13.0,47.0,9.0
1701540508.6440313,26.0,-17.0,-32.0,5.0,8.0,10.0,5.0,20.0
1701540508.6440313,-5.0,-4.0,-38.0,-22.0,-11.0,-6.0,-6.0,-30.0
1701540508.7089336,25.0,15.0,-38.0,-2.0,-5.0,-11.0,-3.0,3.0
1701540508.7089336,34.0,-7.0,1.0,-11.0,7.0,0.0,-11.0,4.0
1701540508.7089336,-9.0,-7.0,28.0,4.0,-4.0,-4.0,-3.0,-6.0
1701540508.7089336,1.0,-8.0,-2.0,1.0,-1.0,-4.0,3.0,13.0
1701540508.7089336,-10.0,-2.0,34.0,9.0,3.0,3.0,6.0,-3.0
1701540508.7089336,-15.0,20.0,-71.0,-26.0,0.0,-4.0,-12.0,-9.0
1701540508.7089336,-6.0,2.0,21.0,4.0,-7.0,-4.0,5.0,-4.0
1701540508.7089336,-8.0,1.0,-7.0,2.0,-5.0,-5.0,-8.0,-2.0
1701540508.7089336,-5.0,-46.0,43.0,17.0,16.0,3.0,-2.0,-5.0
1701540508.7089336,-34.0,12.0,-30.0,-5.0,-4.0,-2.0,8.0,2.0
1701540508.7089336,-16.0,4.0,-1.0,-15.0,-8.0,-7.0,-5.0,-5.0
1701540508.7099333,-1.0,-11.0,-10.0,-35.0,-21.0,-6.0,1.0,-2.0
1701540508.7682762,-6.0,11.0,-21.0,34.0,29.0,7.0,2.0,-3.0
1701540508.7682762,13.0,-30.0,56.0,15.0,1.0,-3.0,-12.0,-9.0
1701540508.7708232,1.0,8.0,0.0,-4.0,-7.0,1.0,2.0,0.0
1701540508.7708232,-1.0,-7.0,-11.0,-8.0,0.0,-2.0,-2.0,5.0
1701540508.7708232,-1.0,14.0,-19.0,-25.0,-15.0,-1.0,10.0,5.0
1701540508.7708232,0.0,-7.0,30.0,11.0,9.0,2.0,-9.0,-6.0
1701540508.7708232,-11.0,4.0,-27.0,-6.0,-7.0,-5.0,-2.0,-6.0
1701540508.7708232,14.0,-2.0,-8.0,33.0,35.0,8.0,5.0,9.0
1701540508.7708232,0.0,27.0,36.0,-2.0,-9.0,-2.0,0.0,-2.0
1701540508.7708232,-3.0,-8.0,4.0,7.0,5.0,-3.0,-1.0,2.0
1701540508.7708232,-1.0,-15.0,-10.0,-44.0,-16.0,-6.0,-2.0,-2.0
1701540508.7708232,-2.0,-10.0,30.0,15.0,2.0,1.0,-1.0,0.0
1701540508.8201478,-3.0,13.0,-30.0,0.0,-6.0,1.0,4.0,-3.0
1701540508.8201478,6.0,26.0,66.0,12.0,1.0,-8.0,-9.0,-4.0
1701540508.8201478,-19.0,4.0,-19.0,13.0,9.0,-4.0,-5.0,-5.0
1701540508.8201478,-22.0,-67.0,15.0,20.0,4.0,6.0,7.0,-4.0
1701540508.8238783,-20.0,71.0,28.0,-61.0,-7.0,-1.0,-7.0,-9.0
1701540508.8238783,19.0,-23.0,-115.0,-13.0,-10.0,-4.0,7.0,12.0
1701540508.8238783,-3.0,-11.0,55.0,14.0,3.0,-7.0,-22.0,-5.0
1701540508.8238783,-6.0,25.0,1.0,2.0,-1.0,2.0,18.0,-3.0
1701540508.8238783,-5.0,-47.0,8.0,17.0,0.0,16.0,17.0,6.0
1701540508.8238783,-17.0,-49.0,-5.0,-7.0,2.0,0.0,-3.0,-2.0
1701540508.8248765,1.0,47.0,-48.0,1.0,1.0,-2.0,-9.0,1.0
1701540508.8248765,3.0,17.0,61.0,3.0,-7.0,-11.0,-31.0,-10.0
1701540508.889132,7.0,3.0,-54.0,-1.0,2.0,5.0,39.0,23.0
1701540508.889132,6.0,1.0,16.0,-1.0,1.0,-4.0,-18.0,-11.0
1701540508.889132,20.0,-39.0,-11.0,6.0,7.0,5.0,7.0,0.0
1701540508.889132,0.0,19.0,44.0,-5.0,-10.0,-2.0,0.0,9.0
1701540508.889132,4.0,-4.0,-64.0,-5.0,-4.0,-4.0,-17.0,-4.0
1701540508.889132,-12.0,16.0,60.0,7.0,0.0,-3.0,-14.0,-3.0
1701540508.889132,-24.0,-18.0,-16.0,-2.0,1.0,-1.0,35.0,8.0
1701540508.8901317,14.0,10.0,-21.0,-17.0,-9.0,-1.0,-20.0,-12.0
1701540508.8901317,8.0,-1.0,16.0,11.0,-2.0,-3.0,-2.0,10.0
1701540508.8901317,5.0,-10.0,-20.0,-4.0,3.0,-3.0,-3.0,-5.0
1701540508.8901317,-6.0,-3.0,13.0,-1.0,-6.0,-8.0,-9.0,0.0
1701540508.8901317,-39.0,15.0,-55.0,-15.0,-1.0,5.0,6.0,12.0
1701540508.9242756,33.0,-12.0,9.0,8.0,4.0,17.0,20.0,0.0
1701540508.9242756,-14.0,-10.0,-3.0,-9.0,-2.0,-2.0,-8.0,-7.0
1701540508.9242756,13.0,14.0,12.0,9.0,2.0,4.0,6.0,-2.0
1701540508.9242756,6.0,-9.0,-27.0,-7.0,-3.0,-9.0,-9.0,-7.0
1701540508.927553,-5.0,1.0,15.0,-13.0,-10.0,-17.0,-24.0,-10.0
1701540508.9285526,-3.0,-5.0,26.0,11.0,0.0,10.0,15.0,9.0
1701540508.9294405,6.0,-27.0,7.0,27.0,8.0,1.0,-5.0,-6.0
1701540508.9294405,2.0,73.0,-106.0,4.0,27.0,4.0,8.0,1.0
1701540508.9304407,-8.0,-1.0,48.0,15.0,-2.0,-6.0,-6.0,-3.0
1701540508.9304407,10.0,17.0,-29.0,7.0,-7.0,-1.0,0.0,-3.0
1701540508.9729915,2.0,-58.0,18.0,-62.0,-17.0,1.0,2.0,-2.0
1701540508.9729915,4.0,-10.0,47.0,23.0,-18.0,-7.0,-14.0,15.0
1701540508.9729915,-19.0,38.0,-92.0,-12.0,3.0,1.0,-2.0,-18.0
1701540508.9729915,5.0,41.0,70.0,24.0,5.0,-6.0,-2.0,-5.0
1701540508.9729915,-2.0,-13.0,-95.0,-13.0,3.0,4.0,-6.0,-3.0
1701540508.9729915,-15.0,-57.0,83.0,-10.0,-1.0,4.0,12.0,14.0
1701540508.9729915,36.0,-18.0,22.0,36.0,1.0,-6.0,-9.0,-15.0
1701540508.9729915,4.0,-16.0,11.0,16.0,4.0,4.0,4.0,8.0
1701540508.9739873,13.0,1.0,-27.0,-29.0,-4.0,0.0,-8.0,-8.0
1701540508.9739873,-19.0,-4.0,-11.0,-7.0,-1.0,-6.0,3.0,-19.0
1701540508.9927883,-11.0,-17.0,7.0,-15.0,-7.0,-3.0,0.0,20.0
1701540508.9936857,10.0,14.0,-10.0,-3.0,2.0,-9.0,-13.0,-2.0
1701540508.994701,-22.0,18.0,36.0,26.0,3.0,-23.0,-47.0,-19.0
1701540508.994701,21.0,-14.0,-37.0,-7.0,1.0,57.0,88.0,23.0
1701540509.0221877,-20.0,11.0,31.0,5.0,4.0,11.0,12.0,-1.0
1701540509.0221877,51.0,-49.0,-41.0,-27.0,-7.0,-6.0,-6.0,-13.0
1701540509.0221877,4.0,21.0,30.0,16.0,0.0,-6.0,-11.0,5.0
1701540509.0221877,-31.0,19.0,-35.0,-10.0,-7.0,-31.0,-42.0,-20.0
1701540509.0385516,-27.0,32.0,-17.0,-11.0,-2.0,-9.0,-15.0,-18.0
1701540509.0385516,-17.0,9.0,11.0,4.0,1.0,6.0,3.0,4.0
1701540509.041032,7.0,-13.0,-1.0,8.0,0.0,5.0,10.0,-1.0
1701540509.041032,13.0,-72.0,-35.0,-53.0,-26.0,-16.0,-11.0,-3.0
1701540509.0961547,-7.0,50.0,3.0,43.0,25.0,5.0,1.0,5.0
1701540509.0961547,-25.0,-13.0,-22.0,-34.0,-32.0,-17.0,-17.0,-12.0
1701540509.0961547,14.0,-37.0,52.0,57.0,40.0,18.0,16.0,7.0
1701540509.0961547,4.0,-49.0,-39.0,30.0,7.0,2.0,4.0,1.0
1701540509.0961547,8.0,-62.0,-24.0,-70.0,-34.0,-6.0,-6.0,0.0
1701540509.0961547,-6.0,-27.0,71.0,30.0,14.0,0.0,4.0,3.0
1701540509.0961547,-9.0,50.0,45.0,-54.0,-35.0,-3.0,8.0,1.0
1701540509.0961547,12.0,11.0,21.0,-1.0,6.0,-2.0,-7.0,0.0
1701540509.0985482,-5.0,-32.0,-19.0,12.0,-15.0,-15.0,-28.0,-12.0
1701540509.0985482,8.0,49.0,-3.0,25.0,15.0,21.0,41.0,14.0
1701540509.1013567,-1.0,-1.0,-13.0,-72.0,-23.0,0.0,2.0,9.0
1701540509.1013567,2.0,7.0,57.0,38.0,12.0,-9.0,-24.0,-30.0
1701540509.1481757,-6.0,-41.0,-29.0,-33.0,-17.0,-14.0,4.0,-9.0
1701540509.1492834,-3.0,-8.0,-27.0,-18.0,4.0,-9.0,-11.0,10.0
1701540509.154712,26.0,22.0,28.0,50.0,5.0,-15.0,17.0,-3.0
1701540509.154712,-6.0,26.0,-7.0,-4.0,18.0,56.0,80.0,-4.0
1701540509.154712,13.0,8.0,25.0,19.0,6.0,-6.0,-9.0,31.0
1701540509.154712,-6.0,5.0,-4.0,-2.0,-3.0,15.0,3.0,-8.0
1701540509.154712,-11.0,7.0,-34.0,11.0,11.0,-15.0,-14.0,-7.0
1701540509.154712,4.0,11.0,3.0,-28.0,-17.0,-23.0,-40.0,-5.0
1701540509.15939,5.0,-24.0,3.0,14.0,8.0,4.0,-5.0,-8.0
1701540509.15939,-26.0,-45.0,-12.0,-9.0,-4.0,-11.0,-7.0,-7.0
1701540509.1611054,4.0,-22.0,-11.0,-13.0,1.0,7.0,-5.0,1.0
1701540509.1611054,-12.0,35.0,-6.0,11.0,-2.0,-9.0,-11.0,0.0
1701540509.2118533,-5.0,-13.0,39.0,3.0,5.0,7.0,4.0,-3.0
1701540509.2118533,49.0,5.0,-33.0,-7.0,1.0,0.0,1.0,11.0
1701540509.2118533,-87.0,21.0,36.0,31.0,-5.0,3.0,-7.0,-15.0
1701540509.2118533,8.0,27.0,-57.0,-60.0,-3.0,-7.0,-6.0,0.0
1701540509.2118533,0.0,5.0,45.0,14.0,8.0,-3.0,-1.0,-1.0
1701540509.2118533,-11.0,-17.0,-23.0,-41.0,-8.0,2.0,0.0,-2.0
1701540509.2118533,22.0,-21.0,45.0,49.0,1.0,9.0,15.0,9.0
1701540509.2118533,3.0,20.0,1.0,-9.0,6.0,-5.0,-14.0,1.0
1701540509.21656,-8.0,0.0,22.0,11.0,4.0,0.0,0.0,-2.0
1701540509.21656,1.0,2.0,35.0,50.0,26.0,6.0,4.0,4.0
1701540509.2208762,9.0,-6.0,-61.0,-48.0,-11.0,2.0,0.0,1.0
1701540509.2208762,-1.0,8.0,22.0,13.0,-6.0,-9.0,-9.0,1.0
1701540509.276977,10.0,-7.0,-17.0,-2.0,3.0,1.0,6.0,-2.0
1701540509.276977,-6.0,-5.0,20.0,1.0,-5.0,0.0,-1.0,-2.0
1701540509.276977,-1.0,16.0,-93.0,-11.0,-2.0,-3.0,-2.0,-7.0
1701540509.276977,30.0,-17.0,35.0,17.0,2.0,-2.0,-11.0,4.0
1701540509.276977,-3.0,9.0,-64.0,-32.0,-4.0,8.0,17.0,-5.0
1701540509.276977,-46.0,21.0,5.0,24.0,4.0,4.0,2.0,3.0
1701540509.276977,-1.0,-10.0,19.0,-4.0,3.0,3.0,11.0,5.0
1701540509.276977,11.0,-17.0,-10.0,-2.0,-7.0,-9.0,-4.0,3.0
1701540509.2786705,4.0,-20.0,9.0,16.0,4.0,10.0,14.0,9.0
1701540509.2786705,-9.0,70.0,-9.0,-24.0,-6.0,-6.0,-14.0,-10.0
1701540509.2810893,17.0,-2.0,-5.0,2.0,4.0,3.0,-1.0,2.0
1701540509.2810893,-13.0,-68.0,21.0,3.0,-8.0,-6.0,-1.0,-2.0
1701540509.3388658,-7.0,40.0,-1.0,-3.0,0.0,-3.0,-8.0,0.0
1701540509.3388658,-3.0,26.0,-5.0,-13.0,-11.0,-4.0,-2.0,-8.0
1701540509.3440294,1.0,-12.0,-66.0,-19.0,2.0,-1.0,0.0,-5.0
1701540509.3440294,9.0,-4.0,6.0,18.0,1.0,-4.0,-4.0,-1.0
1701540509.3440294,1.0,2.0,74.0,3.0,-6.0,-5.0,-7.0,-1.0
1701540509.3440294,5.0,-38.0,-23.0,-14.0,-13.0,-3.0,0.0,0.0
1701540509.3440294,2.0,0.0,24.0,18.0,10.0,4.0,1.0,1.0
1701540509.3450124,-6.0,27.0,-17.0,-14.0,-7.0,-4.0,-5.0,0.0
1701540509.3450124,4.0,7.0,13.0,-13.0,-12.0,-4.0,-5.0,-3.0
1701540509.3450124,-6.0,-21.0,12.0,71.0,23.0,0.0,-2.0,-4.0
1701540509.3450124,-3.0,-37.0,76.0,-47.0,-18.0,-6.0,-5.0,-3.0
1701540509.3450124,9.0,48.0,25.0,22.0,6.0,3.0,3.0,4.0
1701540509.3680878,-31.0,-32.0,-14.0,-21.0,-10.0,-4.0,-2.0,-1.0
1701540509.3680878,11.0,27.0,-78.0,-14.0,0.0,1.0,2.0,11.0
1701540509.3680878,3.0,13.0,-35.0,-20.0,-9.0,-4.0,-9.0,-16.0
1701540509.3680878,-6.0,-10.0,64.0,-4.0,-1.0,-2.0,-1.0,-4.0
1701540509.3702893,-18.0,5.0,-70.0,17.0,15.0,5.0,-4.0,-25.0
1701540509.3702893,25.0,-20.0,45.0,-46.0,-8.0,-6.0,-10.0,41.0
1701540509.3791485,9.0,-16.0,0.0,28.0,4.0,3.0,0.0,1.0
1701540509.3791485,-13.0,6.0,-33.0,-8.0,-4.0,-8.0,-7.0,-2.0
1701540509.4427762,-4.0,13.0,16.0,14.0,7.0,2.0,16.0,6.0
1701540509.4427762,-18.0,-97.0,-5.0,1.0,3.0,17.0,9.0,-10.0
1701540509.4427762,-9.0,41.0,17.0,1.0,-4.0,-2.0,-8.0,6.0
1701540509.4427762,-6.0,-23.0,-11.0,-7.0,-4.0,0.0,-3.0,-1.0
1701540509.4427762,-6.0,-13.0,13.0,16.0,3.0,-8.0,-19.0,-12.0
1701540509.4427762,-15.0,-22.0,-7.0,-14.0,-11.0,-7.0,17.0,-2.0
1701540509.4427762,-3.0,13.0,16.0,6.0,3.0,-3.0,0.0,-3.0
1701540509.4437766,-5.0,-40.0,-75.0,3.0,6.0,3.0,3.0,-4.0
1701540509.4437766,20.0,-22.0,-16.0,-23.0,-5.0,-4.0,-9.0,4.0
1701540509.4437766,2.0,83.0,5.0,-13.0,-10.0,-6.0,-5.0,-13.0
1701540509.4437766,3.0,10.0,32.0,18.0,8.0,4.0,1.0,7.0
1701540509.4437766,-7.0,-41.0,-17.0,-8.0,-15.0,-9.0,-4.0,-1.0
1701540509.5047815,5.0,6.0,31.0,-3.0,6.0,3.0,-2.0,0.0
1701540509.5047815,2.0,-58.0,-20.0,-23.0,-11.0,0.0,-1.0,-6.0
1701540509.5047815,-4.0,49.0,27.0,3.0,-8.0,-6.0,2.0,-4.0
1701540509.5047815,7.0,92.0,78.0,88.0,73.0,18.0,3.0,2.0
1701540509.5047815,1.0,-30.0,-26.0,-9.0,-1.0,-3.0,0.0,5.0
1701540509.5047815,4.0,-1.0,28.0,-5.0,-5.0,-4.0,-3.0,-8.0
1701540509.5047815,3.0,-46.0,-22.0,-17.0,-6.0,-3.0,-2.0,-2.0
1701540509.5047815,2.0,-19.0,-25.0,-48.0,-37.0,-3.0,4.0,9.0
1701540509.5047815,-20.0,21.0,-4.0,-4.0,-5.0,-3.0,-10.0,-8.0
1701540509.5047815,-4.0,9.0,16.0,20.0,11.0,-3.0,-12.0,-17.0
1701540509.5047815,15.0,2.0,-7.0,4.0,-7.0,-9.0,6.0,8.0
1701540509.5047815,-73.0,-20.0,-50.0,-31.0,-10.0,2.0,-7.0,-8.0
1701540509.5160506,65.0,-4.0,3.0,-3.0,1.0,14.0,32.0,5.0
1701540509.5160506,6.0,-9.0,-12.0,-2.0,-2.0,-1.0,-1.0,3.0
1701540509.522003,-3.0,-7.0,-5.0,8.0,2.0,-1.0,-4.0,-5.0
1701540509.522003,13.0,9.0,28.0,14.0,3.0,-8.0,-16.0,-7.0
1701540509.5783844,-16.0,-1.0,0.0,3.0,-1.0,-9.0,-15.0,-2.0
1701540509.5783844,3.0,-2.0,9.0,-9.0,-8.0,0.0,2.0,2.0
1701540509.5783844,6.0,-4.0,3.0,12.0,8.0,2.0,-2.0,3.0
1701540509.5783844,2.0,-12.0,8.0,0.0,1.0,0.0,0.0,-6.0
1701540509.5841703,8.0,-15.0,33.0,-5.0,-12.0,-4.0,-1.0,5.0
1701540509.5841703,-2.0,17.0,-46.0,-6.0,4.0,-2.0,2.0,-3.0
1701540509.6034906,-21.0,15.0,20.0,-9.0,-11.0,-5.0,-8.0,-4.0
1701540509.6034906,15.0,-5.0,4.0,-13.0,-7.0,0.0,1.0,2.0
1701540509.6034906,-14.0,-26.0,-1.0,4.0,1.0,2.0,3.0,4.0
1701540509.6034906,1.0,26.0,45.0,12.0,2.0,-5.0,-5.0,-4.0
1701540509.6044893,0.0,19.0,-77.0,-93.0,-22.0,-2.0,0.0,0.0
1701540509.6044893,-3.0,32.0,68.0,73.0,23.0,8.0,7.0,-4.0
1701540509.6044893,6.0,5.0,57.0,-22.0,0.0,-10.0,-4.0,-1.0
1701540509.6044893,0.0,-76.0,43.0,-8.0,-5.0,-3.0,-1.0,3.0
1701540509.6044893,-3.0,-23.0,-97.0,-33.0,-16.0,5.0,-1.0,-4.0
1701540509.6044893,9.0,87.0,2.0,-27.0,-15.0,-3.0,4.0,2.0
1701540509.6162233,-6.0,2.0,-25.0,41.0,38.0,6.0,-3.0,1.0
1701540509.6162233,3.0,16.0,40.0,25.0,11.0,1.0,-1.0,-2.0
1701540509.6387916,0.0,-46.0,19.0,11.0,-3.0,0.0,3.0,4.0
1701540509.6387916,-22.0,-42.0,-23.0,-29.0,-22.0,-9.0,-3.0,-3.0
1701540509.6387916,-3.0,21.0,-9.0,5.0,-3.0,2.0,1.0,-2.0
1701540509.6387916,-10.0,4.0,-34.0,-10.0,1.0,-2.0,-10.0,-6.0
1701540509.6397765,13.0,15.0,17.0,23.0,10.0,-4.0,4.0,15.0
1701540509.6397765,-15.0,-5.0,-22.0,-5.0,4.0,11.0,36.0,1.0
1701540509.6530468,-12.0,-33.0,-20.0,-19.0,-11.0,-1.0,-11.0,6.0
1701540509.6530468,-74.0,17.0,-14.0,3.0,0.0,7.0,-23.0,-40.0
1701540509.6540484,17.0,0.0,10.0,9.0,8.0,-4.0,-32.0,9.0
1701540509.6540484,19.0,-17.0,12.0,8.0,4.0,-2.0,29.0,21.0
1701540509.7002723,13.0,4.0,-23.0,-16.0,-9.0,28.0,21.0,31.0
1701540509.7002723,17.0,6.0,0.0,-1.0,1.0,13.0,28.0,9.0
1701540509.7029824,-4.0,0.0,21.0,27.0,14.0,10.0,-3.0,-9.0
1701540509.7029824,11.0,-30.0,18.0,-2.0,-1.0,-18.0,-34.0,-13.0
1701540509.7029824,1.0,11.0,-64.0,-21.0,-11.0,-14.0,-19.0,-14.0
1701540509.7029824,11.0,9.0,-13.0,-3.0,-3.0,-14.0,-15.0,4.0
1701540509.7029824,-16.0,-15.0,41.0,12.0,3.0,-2.0,-3.0,-3.0
1701540509.7029824,19.0,-11.0,-62.0,-27.0,-13.0,-2.0,-6.0,1.0
1701540509.705016,-10.0,-4.0,12.0,2.0,-11.0,-12.0,0.0,-12.0
1701540509.705016,-5.0,3.0,8.0,0.0,18.0,1.0,1.0,10.0
1701540509.717688,-9.0,-8.0,-13.0,20.0,6.0,-1.0,13.0,-12.0
1701540509.717688,7.0,-95.0,12.0,-8.0,-5.0,3.0,-1.0,-1.0
1701540509.7560167,-15.0,72.0,5.0,-45.0,-28.0,-10.0,-6.0,-7.0
1701540509.7560167,-3.0,28.0,29.0,26.0,13.0,-2.0,4.0,3.0
1701540509.7570157,15.0,-11.0,5.0,38.0,27.0,18.0,40.0,32.0
1701540509.7570157,6.0,4.0,-28.0,-9.0,-4.0,-4.0,-43.0,-34.0
1701540509.7570157,11.0,-43.0,9.0,-4.0,-11.0,-14.0,-28.0,-8.0
1701540509.7570157,15.0,-87.0,73.0,15.0,-4.0,-2.0,1.0,2.0
1701540509.7611532,-28.0,79.0,-38.0,-9.0,-8.0,-6.0,-10.0,-16.0
1701540509.7611532,-3.0,11.0,29.0,-9.0,-1.0,-1.0,13.0,16.0
1701540509.7735593,4.0,-94.0,37.0,-10.0,1.0,2.0,17.0,4.0
1701540509.7735593,1.0,85.0,10.0,-2.0,-21.0,-6.0,-3.0,-6.0
1701540509.7749133,-2.0,-33.0,79.0,97.0,17.0,5.0,3.0,0.0
1701540509.7749133,-4.0,1.0,-90.0,-91.0,-33.0,-8.0,-3.0,1.0
1701540509.8243344,6.0,14.0,-11.0,59.0,-1.0,1.0,-3.0,-3.0
1701540509.8243344,5.0,-13.0,-35.0,4.0,9.0,4.0,6.0,7.0
1701540509.8243344,-5.0,-10.0,37.0,43.0,3.0,-3.0,-9.0,-4.0
1701540509.8243344,27.0,28.0,7.0,-33.0,2.0,-1.0,-3.0,-3.0
1701540509.8243344,-37.0,7.0,-18.0,33.0,12.0,-10.0,-16.0,-19.0
1701540509.8243344,32.0,-17.0,-79.0,-54.0,-8.0,4.0,-6.0,12.0
1701540509.828642,12.0,1.0,17.0,-31.0,0.0,11.0,24.0,-13.0
1701540509.828642,-29.0,-15.0,-46.0,20.0,5.0,-1.0,4.0,9.0
1701540509.8413358,6.0,10.0,-12.0,-21.0,0.0,5.0,14.0,-14.0
1701540509.8413358,15.0,-2.0,-2.0,15.0,1.0,-2.0,-12.0,8.0
1701540509.8956375,16.0,2.0,0.0,-29.0,-12.0,-8.0,-25.0,-1.0
1701540509.8956375,-41.0,-1.0,30.0,13.0,0.0,-4.0,6.0,-17.0
1701540509.89862,17.0,14.0,27.0,5.0,7.0,7.0,20.0,12.0
1701540509.89862,-30.0,13.0,-5.0,5.0,2.0,-6.0,-9.0,-11.0
1701540509.8996193,12.0,-21.0,-11.0,-26.0,-4.0,-2.0,-2.0,2.0
1701540509.8996193,-13.0,-12.0,0.0,23.0,6.0,-2.0,-1.0,5.0
1701540509.8996193,-4.0,27.0,9.0,2.0,-1.0,-8.0,-13.0,4.0
1701540509.8996193,5.0,-24.0,0.0,-12.0,-12.0,-5.0,1.0,-8.0
1701540509.8996193,-15.0,-4.0,-27.0,-23.0,-5.0,-3.0,-4.0,-2.0
1701540509.8996193,1.0,20.0,58.0,26.0,6.0,2.0,-1.0,-3.0
1701540509.9359255,3.0,18.0,-3.0,-8.0,1.0,1.0,2.0,3.0
1701540509.9359255,-2.0,-26.0,-2.0,-2.0,-5.0,3.0,5.0,0.0
1701540509.936922,-1.0,24.0,-7.0,-18.0,-15.0,-9.0,-7.0,-15.0
1701540509.936922,12.0,-24.0,-11.0,43.0,28.0,5.0,-4.0,4.0
1701540509.9379218,3.0,-18.0,38.0,-10.0,-1.0,-2.0,2.0,4.0
1701540509.9379218,-10.0,80.0,-24.0,-6.0,-11.0,-5.0,2.0,-7.0
1701540509.9379218,-7.0,-41.0,-16.0,-3.0,-5.0,-2.0,-2.0,2.0
1701540509.9379218,22.0,0.0,31.0,0.0,-10.0,-1.0,-10.0,0.0
1701540509.9391294,-9.0,-13.0,-34.0,-9.0,-3.0,0.0,19.0,3.0
1701540509.9391294,-9.0,-45.0,-3.0,-7.0,-5.0,-2.0,9.0,-3.0
1701540509.9489331,5.0,40.0,14.0,-3.0,1.0,-4.0,-3.0,1.0
1701540509.9489331,10.0,-2.0,13.0,21.0,5.0,-11.0,-40.0,-2.0
1701540509.9926798,-1.0,-15.0,-29.0,-25.0,-1.0,5.0,39.0,-17.0
1701540509.9926798,9.0,0.0,7.0,-2.0,-2.0,-1.0,-3.0,18.0
1701540509.9926798,13.0,-12.0,-18.0,-4.0,1.0,2.0,-2.0,-20.0
1701540509.9926798,0.0,4.0,11.0,8.0,1.0,0.0,5.0,-1.0
1701540509.9926798,9.0,11.0,4.0,16.0,6.0,-7.0,-27.0,-3.0
1701540509.9926798,-6.0,-10.0,1.0,-3.0,-1.0,-6.0,-4.0,-7.0
1701540509.9926798,-18.0,-18.0,-30.0,-5.0,2.0,7.0,11.0,5.0
1701540509.9926798,-5.0,11.0,-15.0,-7.0,-6.0,0.0,5.0,1.0
1701540510.0027335,3.0,-27.0,-21.0,-17.0,-9.0,-4.0,-12.0,-1.0
1701540510.0077064,12.0,51.0,30.0,12.0,-5.0,2.0,8.0,0.0
1701540510.0106795,-26.0,-8.0,-29.0,3.0,13.0,0.0,-8.0,2.0
1701540510.0106795,5.0,12.0,49.0,9.0,0.0,2.0,10.0,-1.0
1701540510.0438116,-3.0,-8.0,-85.0,28.0,20.0,6.0,3.0,11.0
1701540510.0438116,9.0,-107.0,11.0,-16.0,-12.0,0.0,1.0,-3.0
1701540510.0468085,-3.0,62.0,-77.0,15.0,-6.0,-7.0,-6.0,-3.0
1701540510.0468085,-4.0,10.0,-63.0,-74.0,-4.0,-1.0,9.0,1.0
1701540510.0468085,-4.0,-8.0,20.0,25.0,-3.0,-2.0,-7.0,-3.0
1701540510.0468085,1.0,-31.0,85.0,9.0,-2.0,-5.0,-7.0,-5.0
1701540510.0468085,0.0,26.0,-23.0,-12.0,-5.0,2.0,0.0,1.0
1701540510.0468085,-5.0,-4.0,0.0,17.0,-1.0,3.0,4.0,-6.0
1701540510.0588834,-2.0,20.0,42.0,52.0,11.0,-1.0,-11.0,3.0
1701540510.0588834,-34.0,0.0,-72.0,-67.0,2.0,3.0,4.0,5.0
1701540510.0689175,53.0,-30.0,24.0,-12.0,-10.0,-4.0,5.0,8.0
1701540510.0689175,5.0,7.0,66.0,62.0,-1.0,-2.0,-7.0,-10.0
1701540510.1077347,-10.0,0.0,25.0,-38.0,-12.0,-6.0,-5.0,6.0
1701540510.1077347,-1.0,27.0,-65.0,52.0,15.0,-1.0,-4.0,-5.0
1701540510.1077347,-11.0,-6.0,54.0,-13.0,7.0,5.0,-1.0,1.0
1701540510.1077347,25.0,-66.0,-65.0,-23.0,0.0,-2.0,1.0,0.0
1701540510.1077347,12.0,65.0,30.0,0.0,-8.0,-5.0,-8.0,-9.0
1701540510.1077347,-5.0,14.0,-22.0,-6.0,-5.0,-6.0,-1.0,-2.0
1701540510.1077347,9.0,-4.0,9.0,-18.0,3.0,7.0,16.0,9.0
1701540510.1077347,-11.0,-7.0,34.0,23.0,0.0,0.0,-2.0,-2.0
1701540510.1440773,-17.0,-10.0,1.0,-8.0,0.0,1.0,-1.0,-6.0
1701540510.1440773,19.0,-6.0,-15.0,-5.0,-1.0,-1.0,-3.0,-4.0
1701540510.1440773,-34.0,-26.0,51.0,16.0,-5.0,-4.0,4.0,9.0
1701540510.1440773,15.0,19.0,-39.0,-2.0,0.0,-1.0,4.0,1.0
1701540510.1451142,2.0,-11.0,-21.0,-11.0,-1.0,4.0,5.0,-3.0
1701540510.1451142,-5.0,15.0,8.0,-10.0,-3.0,-3.0,-3.0,-3.0
1701540510.1510603,11.0,-4.0,11.0,12.0,-1.0,-11.0,-35.0,-8.0
1701540510.1510603,-32.0,-23.0,-6.0,-10.0,-4.0,-5.0,4.0,-16.0
1701540510.1632168,1.0,7.0,-11.0,-25.0,-11.0,1.0,15.0,4.0
1701540510.1644437,17.0,-11.0,44.0,26.0,7.0,-2.0,-4.0,-7.0
1701540510.1664958,-24.0,-16.0,-61.0,-11.0,-6.0,-4.0,-2.0,-2.0
1701540510.1664958,-3.0,30.0,-8.0,-17.0,-6.0,-6.0,-14.0,3.0
1701540510.187615,3.0,-25.0,31.0,11.0,0.0,0.0,-2.0,1.0
1701540510.187615,-21.0,21.0,-2.0,2.0,0.0,4.0,7.0,-2.0
1701540510.2068787,9.0,-3.0,39.0,-1.0,-7.0,-3.0,-1.0,1.0
1701540510.2074113,-2.0,-11.0,14.0,7.0,7.0,4.0,4.0,6.0
1701540510.2259574,-8.0,26.0,-44.0,-14.0,-4.0,-4.0,-5.0,-4.0
1701540510.2259574,-4.0,-16.0,16.0,8.0,-1.0,-1.0,-2.0,-15.0
1701540510.2270086,6.0,-7.0,11.0,-2.0,-1.0,-1.0,0.0,-8.0
1701540510.2270086,-19.0,0.0,-6.0,0.0,-4.0,0.0,5.0,7.0
1701540510.2270086,3.0,-18.0,-8.0,-10.0,-4.0,-1.0,-4.0,0.0
1701540510.2270086,-9.0,17.0,-66.0,1.0,2.0,-1.0,-5.0,2.0
1701540510.2270086,-5.0,11.0,29.0,-7.0,-7.0,0.0,5.0,-2.0
1701540510.2273319,6.0,-2.0,6.0,-19.0,-13.0,3.0,5.0,-2.0
1701540510.2679174,1.0,-9.0,35.0,56.0,22.0,2.0,-7.0,6.0
1701540510.2679174,-2.0,10.0,47.0,27.0,13.0,-2.0,-1.0,3.0
1701540510.2679174,1.0,-9.0,-15.0,-12.0,3.0,1.0,4.0,3.0
1701540510.2679174,-3.0,-8.0,-34.0,8.0,-3.0,-3.0,-2.0,-11.0
1701540510.2699172,-8.0,-56.0,1.0,-40.0,-27.0,-8.0,-8.0,-2.0
1701540510.2699172,7.0,62.0,-11.0,19.0,13.0,1.0,0.0,2.0
1701540510.271158,2.0,9.0,-19.0,8.0,2.0,-2.0,1.0,-4.0
1701540510.271158,-3.0,7.0,32.0,-11.0,-4.0,-1.0,-4.0,5.0
1701540510.2837832,6.0,-16.0,-2.0,9.0,7.0,-2.0,0.0,-7.0
1701540510.2837832,19.0,-23.0,-14.0,-9.0,-8.0,0.0,1.0,2.0
1701540510.3151758,-31.0,-16.0,-2.0,-13.0,-4.0,-6.0,-4.0,-5.0
1701540510.3151758,4.0,5.0,-31.0,-3.0,0.0,0.0,-3.0,1.0
1701540510.3151758,-1.0,11.0,3.0,-7.0,-2.0,5.0,11.0,8.0
1701540510.3161747,8.0,-27.0,12.0,-14.0,-8.0,-2.0,-5.0,-3.0
1701540510.3161747,-3.0,19.0,1.0,3.0,-1.0,-7.0,-13.0,-7.0
1701540510.3161747,4.0,-4.0,19.0,9.0,1.0,-2.0,3.0,0.0
1701540510.3280377,-55.0,15.0,0.0,4.0,3.0,-3.0,1.0,-3.0
1701540510.3280377,37.0,-4.0,0.0,-16.0,-8.0,0.0,4.0,9.0
1701540510.3310401,-5.0,-16.0,-12.0,4.0,0.0,4.0,4.0,-1.0
1701540510.3310401,-5.0,-8.0,-11.0,2.0,-1.0,-4.0,-6.0,-4.0
1701540510.3421514,2.0,10.0,-2.0,-7.0,1.0,1.0,-2.0,0.0
1701540510.3421514,-11.0,-1.0,-12.0,-8.0,-7.0,-5.0,-1.0,1.0
1701540510.34659,10.0,4.0,1.0,1.0,-4.0,-7.0,-3.0,2.0
1701540510.34659,16.0,24.0,9.0,2.0,6.0,3.0,1.0,3.0
1701540510.3832889,-16.0,-27.0,-10.0,-3.0,-1.0,4.0,-9.0,-12.0
1701540510.3832889,-7.0,-5.0,12.0,1.0,7.0,4.0,-2.0,4.0
1701540510.3832889,3.0,-11.0,3.0,-3.0,-3.0,-5.0,-1.0,5.0
1701540510.3832889,2.0,12.0,-14.0,-8.0,-2.0,-4.0,-4.0,-1.0
1701540510.3853197,27.0,6.0,9.0,6.0,-1.0,-2.0,1.0,4.0
1701540510.3853197,-14.0,-13.0,-20.0,-5.0,-7.0,-5.0,-4.0,-2.0
1701540510.3910313,2.0,7.0,10.0,10.0,-3.0,-3.0,-5.0,-8.0
1701540510.3910313,-26.0,-28.0,-27.0,-9.0,2.0,2.0,2.0,0.0
1701540510.433795,10.0,-14.0,39.0,19.0,6.0,2.0,4.0,2.0
1701540510.433795,-1.0,59.0,-40.0,-70.0,-23.0,-6.0,-5.0,-5.0
1701540510.437795,-10.0,28.0,-5.0,52.0,13.0,3.0,0.0,-3.0
1701540510.4387946,21.0,-19.0,-2.0,30.0,25.0,7.0,5.0,5.0
1701540510.4387946,12.0,-94.0,60.0,4.0,-12.0,-6.0,-4.0,-1.0
1701540510.4387946,-8.0,-12.0,-3.0,7.0,5.0,5.0,4.0,1.0
1701540510.4387946,-8.0,101.0,60.0,-28.0,-15.0,-6.0,-5.0,-9.0
1701540510.4387946,-3.0,5.0,-39.0,-12.0,-4.0,0.0,2.0,2.0
1701540510.4492085,3.0,-3.0,2.0,15.0,3.0,-2.0,-4.0,1.0
1701540510.4492085,3.0,-47.0,33.0,-15.0,-3.0,-3.0,1.0,-1.0
1701540510.4511678,5.0,-29.0,-113.0,-15.0,-2.0,-11.0,-20.0,6.0
1701540510.4511678,4.0,12.0,45.0,10.0,3.0,27.0,49.0,5.0
1701540510.4866061,3.0,32.0,-8.0,-14.0,-1.0,1.0,-10.0,-2.0
1701540510.4866061,-13.0,-1.0,5.0,16.0,1.0,0.0,-1.0,-4.0
1701540510.4866061,-6.0,-27.0,-1.0,-4.0,1.0,-2.0,1.0,0.0
1701540510.4866061,4.0,-4.0,13.0,-8.0,-5.0,-11.0,-17.0,3.0
1701540510.4889228,1.0,27.0,-50.0,-13.0,-6.0,-4.0,-3.0,-5.0
1701540510.4889228,1.0,7.0,5.0,19.0,5.0,-1.0,2.0,0.0
1701540510.4889228,9.0,-30.0,4.0,-4.0,5.0,8.0,5.0,5.0
1701540510.4889228,-18.0,-8.0,42.0,-4.0,-16.0,-13.0,-15.0,-6.0
1701540510.5011396,2.0,27.0,-63.0,1.0,18.0,5.0,5.0,-1.0
1701540510.5011396,-3.0,-4.0,56.0,19.0,4.0,-4.0,-8.0,-2.0
1701540510.5113182,9.0,-19.0,17.0,-12.0,-6.0,1.0,13.0,6.0
1701540510.5113182,6.0,-85.0,-33.0,-1.0,-8.0,-6.0,-17.0,-12.0
1701540510.5567217,-1.0,97.0,-15.0,-18.0,-11.0,-9.0,-5.0,-4.0
1701540510.5567217,-10.0,-27.0,-20.0,-45.0,-11.0,-2.0,-2.0,-3.0
1701540510.5577214,-7.0,5.0,-86.0,76.0,34.0,6.0,2.0,-6.0
1701540510.5577214,-2.0,3.0,28.0,10.0,-2.0,1.0,-1.0,2.0
1701540510.5577214,2.0,-33.0,25.0,2.0,-1.0,-2.0,-3.0,-2.0
1701540510.5577214,-37.0,-19.0,-11.0,-7.0,-12.0,-4.0,-2.0,0.0
1701540510.5577214,4.0,-23.0,26.0,-26.0,-13.0,-1.0,2.0,-5.0
1701540510.5577214,-51.0,24.0,-43.0,5.0,4.0,-2.0,-3.0,-9.0
1701540510.5679045,22.0,8.0,12.0,-3.0,-1.0,-1.0,1.0,9.0
1701540510.5679045,8.0,17.0,-5.0,-19.0,-10.0,-4.0,0.0,-2.0
1701540510.571745,-6.0,-68.0,1.0,0.0,2.0,3.0,2.0,-1.0
1701540510.571745,4.0,99.0,20.0,5.0,3.0,-1.0,-3.0,1.0
1701540510.6289313,-9.0,-17.0,-3.0,-1.0,1.0,2.0,3.0,-1.0
1701540510.6289313,17.0,-9.0,6.0,22.0,8.0,2.0,2.0,13.0
1701540510.6289313,13.0,-21.0,-3.0,-14.0,-7.0,-1.0,-3.0,-14.0
1701540510.6289313,10.0,-12.0,7.0,-9.0,-4.0,-1.0,-1.0,0.0
1701540510.6289313,-7.0,14.0,-17.0,1.0,-3.0,-3.0,1.0,1.0
1701540510.6289313,7.0,-1.0,-4.0,10.0,5.0,1.0,3.0,2.0
1701540510.6289313,-4.0,6.0,11.0,-11.0,-3.0,-3.0,1.0,4.0
1701540510.6289313,6.0,3.0,8.0,-4.0,-2.0,1.0,0.0,2.0
1701540510.6635244,-4.0,-6.0,8.0,-3.0,-4.0,-5.0,-3.0,-5.0
1701540510.6635244,11.0,-15.0,-8.0,8.0,3.0,3.0,8.0,4.0
1701540510.6635244,-5.0,-21.0,24.0,-20.0,-20.0,-8.0,-14.0,-4.0
1701540510.664524,-6.0,37.0,-13.0,-14.0,0.0,-4.0,-4.0,-5.0
1701540510.666191,9.0,-8.0,16.0,36.0,37.0,7.0,2.0,3.0
1701540510.666191,-2.0,-6.0,-92.0,-3.0,-4.0,-2.0,-3.0,-5.0
1701540510.6683059,8.0,-104.0,18.0,-16.0,3.0,5.0,9.0,3.0
1701540510.6683059,6.0,78.0,70.0,-22.0,-58.0,-17.0,-6.0,1.0
1701540510.6683059,-17.0,17.0,5.0,27.0,36.0,8.0,-2.0,-3.0
1701540510.6683059,-2.0,-21.0,-15.0,-4.0,2.0,-2.0,-4.0,-8.0
1701540510.6693072,-4.0,4.0,0.0,33.0,-2.0,-1.0,-1.0,-4.0
1701540510.6693072,8.0,-95.0,86.0,-35.0,1.0,1.0,0.0,5.0
1701540510.6804187,8.0,43.0,-70.0,-35.0,-29.0,-5.0,0.0,-3.0
