1705326549.7541964,3.0,5.0,15.0,5.0,-5.0,3.0,4.0,3.0
1705326549.7541964,-5.0,-5.0,-1.0,-21.0,-2.0,-5.0,-5.0,-7.0
1705326549.7541964,0.0,0.0,-8.0,12.0,6.0,1.0,2.0,2.0
1705326549.7541964,-3.0,-12.0,-5.0,-17.0,-4.0,-9.0,-6.0,-5.0
1705326549.764194,0.0,5.0,-1.0,6.0,-7.0,-5.0,-1.0,1.0
1705326549.774197,0.0,4.0,-8.0,3.0,7.0,11.0,2.0,-1.0
1705326549.774197,1.0,5.0,9.0,25.0,23.0,2.0,-3.0,2.0
1705326549.774197,0.0,-9.0,4.0,-9.0,-5.0,-2.0,5.0,1.0
1705326549.7941942,1.0,1.0,9.0,2.0,1.0,0.0,-5.0,-4.0
1705326549.7941942,2.0,1.0,-20.0,-16.0,-20.0,-14.0,1.0,4.0
1705326549.8041928,-7.0,-1.0,-18.0,-16.0,-10.0,1.0,-12.0,-12.0
1705326549.8041928,-3.0,0.0,23.0,40.0,22.0,10.0,3.0,1.0
1705326549.8141942,2.0,5.0,21.0,5.0,-8.0,-3.0,7.0,4.0
1705326549.8141942,-5.0,-10.0,-14.0,-18.0,-3.0,2.0,-2.0,-5.0
1705326549.8141942,0.0,0.0,-13.0,-9.0,-9.0,-7.0,-2.0,1.0
1705326549.8141942,-2.0,-3.0,22.0,-7.0,-7.0,-4.0,-3.0,-1.0
1705326549.8241975,0.0,0.0,-7.0,1.0,13.0,1.0,3.0,0.0
1705326549.8241975,3.0,2.0,-1.0,9.0,2.0,5.0,7.0,4.0
1705326549.8241975,-3.0,0.0,34.0,8.0,4.0,5.0,2.0,-2.0
1705326549.8241975,-2.0,-14.0,-8.0,4.0,5.0,-2.0,1.0,-2.0
1705326549.8543167,-2.0,-6.0,16.0,-12.0,-21.0,-22.0,-16.0,-3.0
1705326549.8543167,-3.0,0.0,-37.0,-8.0,-15.0,0.0,-4.0,-6.0
1705326549.8543167,1.0,-7.0,-11.0,-1.0,5.0,13.0,13.0,0.0
1705326549.8543167,1.0,8.0,-13.0,4.0,-2.0,-6.0,-10.0,-2.0
1705326549.8741946,-5.0,-12.0,-52.0,-25.0,-1.0,8.0,-6.0,-7.0
1705326549.8741946,3.0,9.0,28.0,21.0,24.0,1.0,-5.0,2.0
1705326549.8741946,-3.0,-3.0,11.0,31.0,8.0,-1.0,-7.0,-5.0
1705326549.8741946,2.0,3.0,32.0,-2.0,-5.0,3.0,13.0,2.0
1705326549.8841949,-6.0,-6.0,-16.0,-8.0,-12.0,-14.0,-10.0,-7.0
1705326549.8841949,-1.0,22.0,37.0,-17.0,-11.0,-6.0,-4.0,-2.0
1705326549.8841949,-2.0,-18.0,-24.0,0.0,-4.0,-10.0,-12.0,-2.0
1705326549.8841949,0.0,-2.0,1.0,-11.0,1.0,0.0,0.0,-1.0
1705326549.9141965,5.0,-20.0,-31.0,15.0,0.0,-7.0,11.0,5.0
1705326549.9141965,4.0,23.0,-10.0,-24.0,0.0,17.0,2.0,-1.0
1705326549.9141965,3.0,-16.0,71.0,-7.0,2.0,-4.0,10.0,8.0
1705326549.9141965,2.0,52.0,-38.0,-8.0,-13.0,-1.0,-4.0,0.0
1705326549.9341943,-3.0,-3.0,1.0,6.0,5.0,9.0,-4.0,-2.0
1705326549.9341943,2.0,-17.0,7.0,33.0,21.0,-7.0,11.0,5.0
1705326549.9341943,-4.0,2.0,-43.0,-13.0,-10.0,-7.0,-1.0,1.0
1705326549.9341943,-3.0,-9.0,15.0,1.0,3.0,-11.0,1.0,-1.0
1705326549.944194,0.0,-4.0,-38.0,-27.0,-7.0,2.0,-7.0,0.0
1705326549.944194,-5.0,8.0,-12.0,-14.0,-10.0,8.0,-3.0,-3.0
1705326549.944194,3.0,-57.0,31.0,4.0,2.0,-6.0,2.0,3.0
1705326549.944194,-5.0,19.0,-12.0,1.0,2.0,1.0,4.0,-1.0
1705326549.9742029,6.0,22.0,24.0,10.0,6.0,-3.0,-7.0,-2.0
1705326549.9742029,-3.0,-14.0,15.0,-17.0,-18.0,-12.0,-3.0,-2.0
1705326549.9742029,-2.0,5.0,-17.0,3.0,2.0,11.0,8.0,0.0
1705326549.9742029,-2.0,-53.0,-36.0,-7.0,1.0,5.0,13.0,3.0
1705326549.9942377,-3.0,-24.0,-10.0,-4.0,3.0,-4.0,-20.0,-5.0
1705326549.9942377,0.0,9.0,6.0,1.0,2.0,7.0,0.0,3.0
1705326549.9942377,-6.0,-2.0,5.0,-4.0,-4.0,-8.0,-8.0,-7.0
1705326549.9942377,8.0,14.0,28.0,9.0,2.0,-10.0,1.0,5.0
1705326550.004192,-3.0,18.0,-14.0,-7.0,-9.0,2.0,6.0,3.0
1705326550.004192,-4.0,-14.0,-24.0,12.0,5.0,-14.0,0.0,0.0
1705326550.004192,-7.0,39.0,14.0,-6.0,1.0,4.0,0.0,2.0
1705326550.004192,-2.0,0.0,-12.0,-3.0,-3.0,-7.0,5.0,-1.0
1705326550.0341988,1.0,6.0,-1.0,-5.0,-1.0,-4.0,2.0,3.0
1705326550.0341988,5.0,-7.0,28.0,13.0,4.0,4.0,6.0,0.0
1705326550.0441935,3.0,50.0,-23.0,2.0,-3.0,-6.0,1.0,1.0
1705326550.0441935,-11.0,-10.0,-42.0,-17.0,-10.0,-3.0,-10.0,-7.0
1705326550.054195,-2.0,-12.0,33.0,3.0,-2.0,-4.0,11.0,1.0
1705326550.054195,-1.0,8.0,-49.0,-4.0,3.0,-10.0,-3.0,-2.0
1705326550.054195,11.0,8.0,34.0,19.0,6.0,14.0,-3.0,0.0
1705326550.054195,1.0,7.0,15.0,-6.0,-3.0,2.0,-7.0,-1.0
1705326550.0841935,-9.0,-11.0,1.0,-9.0,-7.0,1.0,-4.0,-6.0
1705326550.0841935,-8.0,-70.0,-21.0,4.0,-1.0,5.0,-14.0,-10.0
1705326550.0841935,1.0,-8.0,23.0,0.0,1.0,2.0,-2.0,-2.0
1705326550.0841935,1.0,10.0,14.0,3.0,-1.0,6.0,-10.0,-5.0
1705326550.094222,-1.0,-9.0,-2.0,4.0,-2.0,-3.0,12.0,2.0
1705326550.094222,9.0,48.0,23.0,0.0,-3.0,-1.0,-1.0,5.0
1705326550.094222,-5.0,-75.0,-37.0,-5.0,-3.0,-8.0,13.0,2.0
1705326550.094222,-7.0,2.0,-39.0,-13.0,-6.0,12.0,4.0,0.0
1705326550.1141944,-3.0,-17.0,17.0,5.0,3.0,1.0,2.0,-1.0
1705326550.1141944,16.0,59.0,11.0,5.0,1.0,-11.0,3.0,5.0
1705326550.1141944,-23.0,16.0,4.0,5.0,4.0,-2.0,2.0,2.0
1705326550.1141944,1.0,14.0,28.0,5.0,5.0,9.0,-6.0,-6.0
1705326550.1341944,6.0,54.0,11.0,5.0,5.0,-2.0,-6.0,-2.0
1705326550.1341944,-3.0,57.0,-32.0,-8.0,-3.0,1.0,8.0,13.0
1705326550.1341944,1.0,92.0,21.0,2.0,0.0,8.0,0.0,-11.0
1705326550.1341944,7.0,-37.0,-11.0,-1.0,-2.0,-9.0,1.0,8.0
1705326550.1542394,17.0,30.0,13.0,7.0,1.0,8.0,-2.0,-8.0
1705326550.1542394,-23.0,27.0,36.0,-8.0,-11.0,-13.0,-2.0,-9.0
1705326550.1542394,-4.0,-59.0,-63.0,-12.0,-4.0,12.0,-17.0,-10.0
1705326550.1542394,-12.0,47.0,-7.0,8.0,11.0,15.0,-1.0,-20.0
1705326550.1742318,-13.0,-89.0,-16.0,-15.0,-11.0,-5.0,-2.0,23.0
1705326550.1742318,9.0,-7.0,19.0,10.0,5.0,4.0,-7.0,-2.0
1705326550.1742318,-1.0,-2.0,-4.0,-7.0,-4.0,-2.0,0.0,-2.0
1705326550.1742318,21.0,-27.0,4.0,-2.0,-3.0,-6.0,-5.0,7.0
1705326550.194195,-34.0,47.0,-33.0,-12.0,-7.0,-9.0,-10.0,-21.0
1705326550.194195,-31.0,-51.0,-12.0,-11.0,-9.0,1.0,-4.0,-32.0
1705326550.194195,-1.0,-12.0,18.0,2.0,0.0,-2.0,-12.0,17.0
1705326550.194195,8.0,16.0,-6.0,8.0,5.0,0.0,9.0,3.0
1705326550.2148619,23.0,-12.0,14.0,2.0,2.0,2.0,-2.0,9.0
1705326550.2148619,8.0,-12.0,-11.0,-5.0,-4.0,6.0,5.0,14.0
1705326550.2148619,-7.0,0.0,-1.0,0.0,-6.0,-8.0,2.0,-20.0
1705326550.2148619,-11.0,7.0,-1.0,-2.0,0.0,1.0,-4.0,-18.0
1705326550.2368581,13.0,-8.0,5.0,7.0,9.0,9.0,5.0,20.0
1705326550.2368581,-13.0,-6.0,-16.0,-1.0,1.0,1.0,-2.0,-6.0
1705326550.2378573,14.0,-21.0,-7.0,0.0,-2.0,0.0,8.0,34.0
1705326550.2378573,-35.0,1.0,-2.0,-13.0,-13.0,-15.0,-20.0,-32.0
1705326550.2570379,17.0,13.0,5.0,4.0,4.0,2.0,6.0,39.0
1705326550.2570379,11.0,-34.0,-2.0,3.0,0.0,-3.0,-5.0,-11.0
1705326550.2570379,6.0,36.0,2.0,-2.0,-3.0,-2.0,3.0,4.0
1705326550.2570379,11.0,-19.0,3.0,1.0,1.0,7.0,10.0,-27.0
1705326550.2773545,13.0,-17.0,-20.0,-10.0,-7.0,-14.0,-15.0,33.0
1705326550.2773545,-6.0,16.0,4.0,-3.0,0.0,3.0,-3.0,-14.0
1705326550.2773545,16.0,64.0,18.0,6.0,-3.0,-2.0,2.0,27.0
1705326550.2773545,21.0,45.0,-4.0,-5.0,-3.0,-5.0,-2.0,-64.0
1705326550.2970252,-5.0,10.0,15.0,12.0,11.0,10.0,4.0,28.0
1705326550.2970252,9.0,-7.0,8.0,-6.0,-3.0,-1.0,3.0,43.0
1705326550.2970252,-12.0,-46.0,-46.0,-8.0,-5.0,-7.0,-11.0,-20.0
1705326550.2970252,-1.0,-39.0,4.0,5.0,-1.0,-3.0,10.0,63.0
1705326550.3170238,-6.0,-1.0,-8.0,-13.0,-11.0,-6.0,-8.0,-27.0
1705326550.3170238,-3.0,-32.0,-5.0,1.0,3.0,5.0,9.0,22.0
1705326550.3170238,18.0,0.0,1.0,-3.0,1.0,-3.0,-9.0,-24.0
1705326550.3170238,5.0,-4.0,6.0,2.0,5.0,3.0,4.0,40.0
1705326550.3270216,-1.0,-2.0,-8.0,0.0,-2.0,1.0,11.0,2.0
1705326550.3270216,-14.0,-2.0,0.0,4.0,-1.0,-3.0,-1.0,-23.0
1705326550.3370209,-15.0,-16.0,0.0,-5.0,0.0,1.0,-7.0,-23.0
1705326550.3370209,-1.0,-27.0,-2.0,-2.0,-3.0,-5.0,3.0,51.0
1705326550.3570206,-15.0,56.0,20.0,3.0,-2.0,0.0,-1.0,-70.0
1705326550.3570206,-2.0,-2.0,-26.0,-17.0,-11.0,-9.0,-15.0,47.0
1705326550.3570206,5.0,33.0,12.0,6.0,4.0,1.0,6.0,12.0
1705326550.3570206,3.0,7.0,14.0,3.0,1.0,-1.0,-4.0,9.0
1705326550.377023,-18.0,-32.0,-29.0,-9.0,-4.0,2.0,2.0,-23.0
1705326550.377023,15.0,56.0,17.0,8.0,3.0,1.0,5.0,16.0
1705326550.377023,7.0,13.0,11.0,5.0,1.0,-2.0,2.0,-11.0
1705326550.377023,-10.0,-2.0,1.0,-4.0,-3.0,-3.0,-8.0,4.0
1705326550.3870215,-15.0,-17.0,-14.0,-9.0,-5.0,2.0,6.0,13.0
1705326550.3870215,13.0,-19.0,-5.0,-2.0,1.0,-3.0,-6.0,-35.0
1705326550.3870215,1.0,17.0,12.0,0.0,-2.0,-4.0,-2.0,14.0
1705326550.3870215,-7.0,6.0,6.0,8.0,4.0,4.0,1.0,-14.0
1705326550.4170213,-2.0,33.0,19.0,8.0,2.0,-3.0,-5.0,0.0
1705326550.4170213,-7.0,-29.0,-25.0,-11.0,-3.0,2.0,3.0,-4.0
1705326550.4170213,-13.0,-3.0,-3.0,-1.0,-1.0,-2.0,-5.0,-37.0
1705326550.4170213,-3.0,-19.0,-6.0,0.0,-1.0,-2.0,-1.0,1.0
1705326550.427021,16.0,-3.0,-2.0,4.0,7.0,3.0,2.0,1.0
1705326550.427021,3.0,-2.0,7.0,3.0,0.0,-1.0,-1.0,22.0
1705326550.4370217,-6.0,-2.0,2.0,3.0,2.0,3.0,6.0,3.0
1705326550.4370217,0.0,-1.0,-1.0,-5.0,-6.0,-7.0,-6.0,1.0
1705326550.4470558,-5.0,-30.0,-30.0,-13.0,-4.0,-1.0,-4.0,-27.0
1705326550.4470558,-4.0,2.0,2.0,2.0,3.0,-2.0,-2.0,-7.0
1705326550.4470558,-7.0,-19.0,-3.0,-2.0,-1.0,-1.0,0.0,17.0
1705326550.4470558,6.0,13.0,5.0,-1.0,-4.0,-3.0,-4.0,3.0
1705326550.4770205,-4.0,-1.0,-1.0,1.0,-3.0,-1.0,-3.0,-12.0
1705326550.4770205,-5.0,-15.0,1.0,-3.0,0.0,1.0,1.0,-8.0
1705326550.4770205,11.0,19.0,21.0,-5.0,-8.0,-11.0,-5.0,-9.0
1705326550.4770205,-3.0,-10.0,2.0,12.0,5.0,6.0,0.0,-13.0
1705326550.487022,1.0,-1.0,-8.0,9.0,7.0,1.0,0.0,6.0
1705326550.487022,-1.0,-1.0,9.0,6.0,4.0,-3.0,-4.0,-19.0
1705326550.4970245,-2.0,-5.0,-12.0,-12.0,-1.0,2.0,3.0,11.0
1705326550.4970245,-3.0,2.0,-8.0,-23.0,-14.0,-4.0,-1.0,-9.0
1705326550.5070312,-3.0,-11.0,28.0,7.0,-7.0,-5.0,-1.0,3.0
1705326550.5070312,2.0,2.0,-14.0,8.0,6.0,5.0,1.0,2.0
1705326550.5070312,-4.0,-8.0,-17.0,18.0,7.0,-1.0,-4.0,-8.0
1705326550.5070312,-2.0,-8.0,-24.0,-25.0,-9.0,-3.0,-3.0,-1.0
1705326550.5370214,1.0,16.0,20.0,5.0,0.0,-4.0,-2.0,-7.0
1705326550.5370214,-4.0,-7.0,-1.0,-10.0,3.0,4.0,1.0,-10.0
1705326550.5370214,-1.0,0.0,23.0,6.0,4.0,4.0,3.0,4.0
1705326550.5370214,-2.0,2.0,19.0,3.0,7.0,1.0,-1.0,-7.0
1705326550.5470226,-1.0,-4.0,-27.0,3.0,-19.0,-16.0,-9.0,1.0
1705326550.5470226,-4.0,-6.0,-9.0,-32.0,-27.0,-9.0,-5.0,-13.0
1705326550.5570216,-1.0,-8.0,-14.0,-7.0,14.0,6.0,6.0,7.0
1705326550.5570216,-6.0,-14.0,-8.0,14.0,10.0,1.0,-2.0,-2.0
1705326550.5870209,1.0,7.0,26.0,0.0,12.0,6.0,-1.0,0.0
1705326550.5870209,1.0,1.0,2.0,61.0,30.0,4.0,1.0,0.0
1705326550.5870209,5.0,1.0,30.0,12.0,-3.0,4.0,0.0,0.0
1705326550.5870209,-3.0,5.0,-37.0,-10.0,-29.0,-21.0,-9.0,-8.0
1705326550.597027,-3.0,-4.0,19.0,-50.0,-28.0,-3.0,-2.0,-2.0
1705326550.597027,-6.0,-18.0,-28.0,2.0,2.0,4.0,-2.0,-5.0
1705326550.597027,0.0,2.0,12.0,-5.0,16.0,-1.0,-2.0,0.0
1705326550.597027,5.0,6.0,37.0,29.0,-3.0,-3.0,3.0,3.0
1705326550.6170604,-1.0,-8.0,-26.0,-10.0,-4.0,1.0,0.0,0.0
1705326550.6170604,1.0,9.0,39.0,-17.0,-4.0,2.0,0.0,-1.0
1705326550.6170604,-7.0,-14.0,-53.0,-3.0,3.0,-4.0,0.0,-6.0
1705326550.6170604,-2.0,2.0,21.0,3.0,-7.0,-2.0,-10.0,-5.0
1705326550.6370215,2.0,-3.0,-8.0,-7.0,4.0,-6.0,0.0,1.0
1705326550.6370215,-1.0,-11.0,45.0,7.0,-7.0,4.0,3.0,-6.0
1705326550.647022,-5.0,-10.0,-23.0,-23.0,-2.0,-3.0,-3.0,-2.0
1705326550.647022,-1.0,-9.0,-15.0,-6.0,6.0,-3.0,0.0,-2.0
1705326550.6570218,0.0,9.0,34.0,-10.0,-9.0,-4.0,-3.0,3.0
1705326550.6570218,-7.0,-21.0,-92.0,3.0,21.0,8.0,0.0,-4.0
1705326550.6570218,3.0,8.0,26.0,3.0,-5.0,0.0,3.0,4.0
1705326550.6570218,-2.0,-6.0,-15.0,-15.0,-19.0,-12.0,-7.0,-2.0
1705326550.6770225,-4.0,2.0,-1.0,2.0,7.0,2.0,-3.0,-5.0
1705326550.6770225,-1.0,0.0,7.0,2.0,-8.0,-9.0,1.0,1.0
1705326550.6770225,-1.0,-4.0,-14.0,13.0,-6.0,1.0,-9.0,-5.0
1705326550.6770225,0.0,2.0,6.0,3.0,16.0,7.0,1.0,-2.0
1705326550.6970224,0.0,11.0,23.0,17.0,2.0,-4.0,-2.0,-2.0
1705326550.6970224,3.0,15.0,15.0,-15.0,-20.0,-13.0,-6.0,-1.0
1705326550.6970224,-2.0,5.0,28.0,-31.0,-31.0,-3.0,-3.0,-3.0
1705326550.6970224,2.0,-1.0,-10.0,20.0,32.0,12.0,15.0,6.0
1705326550.7170208,-3.0,-7.0,8.0,23.0,22.0,3.0,-12.0,-7.0
1705326550.7170208,-1.0,14.0,51.0,-1.0,-5.0,3.0,0.0,-1.0
1705326550.7170208,1.0,-14.0,-36.0,-14.0,-5.0,-10.0,-2.0,4.0
1705326550.7170208,-5.0,-9.0,-12.0,-2.0,-20.0,-4.0,-8.0,-5.0
1705326550.737056,-4.0,-14.0,-30.0,7.0,7.0,-2.0,1.0,-4.0
1705326550.737056,2.0,-23.0,-16.0,9.0,9.0,6.0,5.0,3.0
1705326550.737056,-2.0,14.0,-5.0,7.0,-1.0,-5.0,-7.0,-6.0
1705326550.737056,2.0,41.0,56.0,-8.0,6.0,8.0,6.0,1.0
1705326550.7563987,-3.0,-37.0,-74.0,-1.0,-15.0,-14.0,-2.0,-1.0
1705326550.7563987,-10.0,-12.0,-25.0,-22.0,-12.0,-4.0,-9.0,-8.0
1705326550.7563987,1.0,2.0,4.0,0.0,-3.0,-1.0,3.0,3.0
1705326550.7563987,-2.0,-16.0,-4.0,-7.0,11.0,4.0,-8.0,-6.0
1705326550.7773967,-2.0,-28.0,4.0,7.0,8.0,14.0,8.0,1.0
1705326550.7773967,0.0,5.0,31.0,-8.0,-11.0,-12.0,-3.0,1.0
1705326550.7797945,-2.0,-10.0,-46.0,-6.0,-6.0,-8.0,-3.0,-6.0
1705326550.7797945,0.0,11.0,39.0,-1.0,-9.0,-12.0,-8.0,-3.0
1705326550.809799,-2.0,-17.0,27.0,-6.0,2.0,-3.0,-4.0,-1.0
1705326550.809799,-2.0,-6.0,-33.0,-11.0,-6.0,-2.0,-1.0,-8.0
1705326550.809799,3.0,46.0,23.0,11.0,6.0,7.0,3.0,4.0
1705326550.809799,-9.0,-62.0,-3.0,7.0,2.0,-12.0,-11.0,-8.0
1705326550.809799,13.0,101.0,9.0,-19.0,-7.0,1.0,18.0,10.0
1705326550.809799,-3.0,-1.0,3.0,11.0,5.0,0.0,-19.0,-8.0
1705326550.809799,-6.0,55.0,40.0,-8.0,-9.0,-4.0,-1.0,-4.0
1705326550.809799,2.0,-3.0,-12.0,-2.0,5.0,9.0,9.0,1.0
1705326550.829803,2.0,-15.0,-1.0,2.0,-2.0,4.0,5.0,0.0
1705326550.829803,1.0,49.0,19.0,2.0,-4.0,0.0,2.0,3.0
1705326550.829803,1.0,-73.0,-32.0,7.0,1.0,2.0,8.0,1.0
1705326550.829803,-1.0,14.0,3.0,-2.0,7.0,-10.0,2.0,2.0
1705326550.8597958,0.0,-5.0,-10.0,-5.0,-5.0,8.0,1.0,4.0
1705326550.8597958,6.0,7.0,4.0,0.0,3.0,12.0,13.0,4.0
1705326550.8697956,-5.0,-40.0,37.0,6.0,-7.0,-32.0,-7.0,-2.0
1705326550.8697956,-10.0,-10.0,-52.0,-11.0,-6.0,13.0,3.0,-5.0
1705326550.8697956,-1.0,-15.0,-59.0,0.0,3.0,14.0,-2.0,-6.0
1705326550.8697956,4.0,-36.0,21.0,2.0,-4.0,-11.0,0.0,6.0
1705326550.8697956,0.0,17.0,10.0,1.0,0.0,7.0,5.0,0.0
1705326550.8697956,2.0,15.0,-3.0,1.0,1.0,-16.0,1.0,6.0
1705326550.8897974,2.0,30.0,33.0,9.0,3.0,8.0,5.0,3.0
1705326550.8897974,-2.0,3.0,-47.0,-9.0,-2.0,-29.0,-11.0,-6.0
1705326550.8897974,-1.0,25.0,-15.0,-3.0,-3.0,2.0,2.0,-5.0
1705326550.8897974,-2.0,-1.0,-6.0,-5.0,-6.0,12.0,-2.0,-1.0
1705326550.9297972,0.0,8.0,23.0,11.0,10.0,2.0,-8.0,-5.0
1705326550.9297972,3.0,-11.0,-25.0,-10.0,-7.0,-3.0,-15.0,4.0
1705326550.9297972,-6.0,-20.0,-23.0,-10.0,4.0,18.0,-9.0,-10.0
1705326550.9297972,8.0,50.0,18.0,1.0,-4.0,-9.0,-5.0,2.0
1705326550.9297972,-8.0,-54.0,-25.0,-5.0,-11.0,-5.0,1.0,-3.0
1705326550.9297972,-11.0,30.0,14.0,5.0,5.0,3.0,1.0,-2.0
1705326550.9297972,3.0,-10.0,-7.0,3.0,4.0,12.0,6.0,0.0
1705326550.9297972,2.0,1.0,3.0,3.0,3.0,-1.0,-9.0,4.0
1705326550.9497972,15.0,-60.0,-14.0,1.0,4.0,-11.0,-4.0,3.0
1705326550.9497972,5.0,60.0,46.0,2.0,-7.0,-16.0,8.0,18.0
1705326550.9497972,-15.0,53.0,-21.0,10.0,7.0,-5.0,3.0,-17.0
1705326550.9497972,-16.0,-26.0,-40.0,-20.0,-15.0,-7.0,15.0,-2.0
1705326550.9797986,31.0,-59.0,19.0,10.0,5.0,5.0,5.0,23.0
1705326550.9797986,-14.0,24.0,27.0,7.0,7.0,11.0,8.0,-7.0
1705326550.9797986,-22.0,-90.0,-32.0,-3.0,-2.0,-17.0,16.0,-17.0
1705326550.9797986,1.0,4.0,-2.0,-2.0,0.0,25.0,-14.0,-8.0
1705326550.989798,5.0,78.0,-5.0,-2.0,-1.0,-1.0,13.0,14.0
1705326550.989798,25.0,-60.0,-14.0,-9.0,-8.0,-5.0,-18.0,1.0
1705326550.989798,-30.0,59.0,37.0,3.0,-2.0,14.0,8.0,12.0
1705326550.989798,-20.0,-105.0,-26.0,11.0,15.0,3.0,-13.0,-32.0
1705326551.00983,-19.0,41.0,15.0,-2.0,-7.0,-8.0,11.0,16.0
1705326551.00983,28.0,-48.0,-18.0,1.0,7.0,7.0,18.0,29.0
1705326551.00983,-23.0,31.0,8.0,-3.0,-4.0,-9.0,-41.0,-30.0
1705326551.00983,-23.0,15.0,29.0,-3.0,-6.0,-6.0,8.0,-9.0
1705326551.0397956,-13.0,50.0,-5.0,6.0,9.0,13.0,8.0,11.0
1705326551.0397956,22.0,18.0,0.0,6.0,5.0,-2.0,-5.0,-4.0
1705326551.0397956,42.0,-58.0,-5.0,-7.0,-8.0,-9.0,6.0,9.0
1705326551.0397956,11.0,-59.0,0.0,-4.0,-2.0,15.0,16.0,-7.0
1705326551.0497997,-16.0,-6.0,12.0,3.0,5.0,3.0,-10.0,-12.0
1705326551.0497997,-8.0,65.0,-13.0,-2.0,-1.0,-3.0,33.0,-21.0
1705326551.0497997,27.0,-40.0,-10.0,-3.0,2.0,7.0,-26.0,40.0
1705326551.0497997,37.0,72.0,20.0,4.0,-2.0,-7.0,4.0,-34.0
1705326551.0698006,6.0,16.0,11.0,-4.0,-5.0,4.0,29.0,45.0
1705326551.0698006,-40.0,-29.0,-10.0,0.0,4.0,3.0,-60.0,-64.0
1705326551.0698006,-8.0,22.0,12.0,7.0,9.0,17.0,18.0,0.0
1705326551.0698006,1.0,7.0,-10.0,5.0,7.0,-12.0,-37.0,11.0
1705326551.0997963,32.0,-18.0,-2.0,-4.0,-9.0,-16.0,-12.0,-18.0
1705326551.0997963,-39.0,-24.0,-11.0,-7.0,-8.0,-2.0,0.0,-23.0
1705326551.0997963,17.0,7.0,16.0,-4.0,-7.0,1.0,8.0,10.0
1705326551.0997963,18.0,16.0,6.0,8.0,10.0,12.0,17.0,15.0
1705326551.109796,-10.0,-28.0,-10.0,-3.0,-3.0,-9.0,-6.0,-14.0
1705326551.109796,-11.0,8.0,12.0,-1.0,-4.0,9.0,-7.0,-2.0
1705326551.109796,7.0,-25.0,-5.0,-8.0,-2.0,4.0,-7.0,-9.0
1705326551.109796,1.0,-18.0,-8.0,-6.0,-8.0,-6.0,9.0,23.0
1705326551.1297965,1.0,22.0,16.0,2.0,3.0,-4.0,-16.0,-14.0
1705326551.1297965,4.0,-3.0,-5.0,-1.0,3.0,-1.0,10.0,11.0
1705326551.1297965,-7.0,31.0,13.0,-2.0,-5.0,-8.0,-9.0,-5.0
1705326551.1297965,-15.0,37.0,-4.0,-6.0,-5.0,-3.0,-1.0,5.0
1705326551.1598,-18.0,-20.0,-13.0,-5.0,-3.0,-9.0,-5.0,-10.0
1705326551.1598,1.0,20.0,0.0,1.0,1.0,9.0,0.0,1.0
1705326551.1598,1.0,-16.0,-4.0,3.0,2.0,-9.0,7.0,10.0
1705326551.1598,-6.0,-6.0,-11.0,-5.0,-5.0,-3.0,-1.0,-5.0
1705326551.1697974,-14.0,4.0,-4.0,-3.0,-2.0,1.0,-17.0,-44.0
1705326551.1697974,2.0,-4.0,0.0,1.0,1.0,-5.0,8.0,-1.0
1705326551.1797965,-3.0,9.0,-11.0,0.0,0.0,-5.0,-5.0,-2.0
1705326551.1797965,2.0,15.0,5.0,-2.0,-3.0,-4.0,1.0,9.0
1705326551.1897993,-5.0,-11.0,-4.0,0.0,-1.0,1.0,-6.0,-4.0
1705326551.1897993,12.0,11.0,12.0,7.0,4.0,0.0,8.0,24.0
1705326551.1897993,-3.0,18.0,2.0,0.0,2.0,-2.0,5.0,5.0
1705326551.1897993,5.0,-14.0,3.0,-2.0,-2.0,5.0,-3.0,12.0
1705326551.2197957,-4.0,-7.0,-9.0,-6.0,-5.0,-3.0,-5.0,-14.0
1705326551.2197957,-2.0,-5.0,3.0,-3.0,-6.0,-8.0,0.0,12.0
1705326551.2197957,7.0,25.0,5.0,7.0,3.0,1.0,-4.0,0.0
1705326551.2197957,-4.0,-3.0,-16.0,6.0,3.0,2.0,3.0,2.0
1705326551.2298326,-2.0,0.0,6.0,1.0,0.0,-4.0,-3.0,7.0
1705326551.2298326,1.0,-8.0,-6.0,-11.0,-1.0,3.0,1.0,4.0
1705326551.2398343,-4.0,-13.0,-25.0,6.0,-2.0,-4.0,-3.0,0.0
1705326551.2398343,-3.0,-6.0,5.0,-6.0,-2.0,-3.0,-3.0,-5.0
1705326551.259796,-4.0,2.0,-6.0,-1.0,-2.0,-6.0,-3.0,-4.0
1705326551.259796,0.0,-10.0,0.0,-3.0,-2.0,1.0,0.0,0.0
1705326551.259796,-1.0,-7.0,2.0,-6.0,-1.0,-2.0,-2.0,-12.0
1705326551.259796,-4.0,-1.0,9.0,12.0,1.0,-2.0,1.0,4.0
1705326551.2797983,0.0,8.0,1.0,-2.0,-2.0,0.0,-3.0,-4.0
1705326551.2797983,0.0,-12.0,-12.0,-6.0,-1.0,-2.0,1.0,-1.0
1705326551.280622,-1.0,-7.0,-7.0,3.0,2.0,2.0,1.0,1.0
1705326551.280622,1.0,8.0,5.0,-1.0,3.0,2.0,0.0,0.0
1705326551.2940476,-3.0,4.0,0.0,-1.0,-2.0,-2.0,0.0,2.0
1705326551.2940476,1.0,-4.0,8.0,10.0,-2.0,-1.0,-4.0,-2.0
1705326551.3020499,0.0,-6.0,20.0,-11.0,-4.0,-2.0,-1.0,0.0
1705326551.3020499,-2.0,0.0,-37.0,-9.0,-5.0,0.0,-2.0,1.0
1705326551.3227043,-3.0,-6.0,-9.0,7.0,8.0,2.0,-2.0,-7.0
1705326551.3227043,-1.0,1.0,41.0,7.0,0.0,-2.0,-1.0,1.0
1705326551.3227043,-1.0,-5.0,-19.0,-6.0,-2.0,-3.0,-1.0,-3.0
1705326551.3227043,-5.0,-3.0,1.0,-5.0,-5.0,-2.0,-1.0,-3.0
1705326551.3327045,2.0,23.0,0.0,-2.0,-3.0,0.0,0.0,3.0
1705326551.3327045,0.0,-33.0,-5.0,-3.0,-2.0,-2.0,-2.0,0.0
1705326551.3327045,-2.0,9.0,-7.0,-16.0,-7.0,-5.0,-4.0,-3.0
1705326551.3327045,2.0,2.0,2.0,-9.0,-5.0,-4.0,0.0,-1.0
1705326551.352704,-1.0,0.0,-5.0,13.0,9.0,4.0,0.0,-1.0
1705326551.352704,-1.0,2.0,-3.0,6.0,5.0,2.0,1.0,0.0
1705326551.352704,-3.0,-10.0,4.0,4.0,0.0,-1.0,-2.0,-5.0
1705326551.352704,-1.0,6.0,19.0,-1.0,-3.0,0.0,1.0,0.0
1705326551.3827417,-1.0,-17.0,6.0,-10.0,-7.0,-2.0,-3.0,0.0
1705326551.3827417,-2.0,6.0,-34.0,1.0,-3.0,-2.0,-1.0,0.0
1705326551.3827417,0.0,-9.0,13.0,-1.0,1.0,-2.0,0.0,1.0
1705326551.3827417,0.0,6.0,-5.0,-2.0,-4.0,-3.0,-2.0,-3.0
1705326551.3927085,-1.0,-6.0,14.0,3.0,-4.0,1.0,-2.0,-2.0
1705326551.3927085,-2.0,-2.0,-9.0,-13.0,0.0,3.0,2.0,-2.0
1705326551.3927085,-2.0,1.0,-3.0,7.0,0.0,0.0,-2.0,-2.0
1705326551.3927085,0.0,-3.0,7.0,-2.0,0.0,-2.0,-2.0,2.0
1705326551.412705,-2.0,-4.0,-16.0,-9.0,-4.0,-3.0,0.0,-3.0
1705326551.412705,0.0,0.0,-13.0,9.0,-4.0,-3.0,-1.0,0.0
1705326551.4227045,0.0,-3.0,10.0,7.0,6.0,4.0,0.0,-1.0
1705326551.4227045,-3.0,-3.0,-15.0,-6.0,0.0,-3.0,-1.0,-3.0
1705326551.4327047,-4.0,-5.0,-38.0,-10.0,-6.0,-1.0,-3.0,-2.0
1705326551.4327047,-1.0,1.0,10.0,-3.0,0.0,-2.0,1.0,-2.0
1705326551.4327047,0.0,2.0,8.0,0.0,2.0,1.0,2.0,1.0
1705326551.4327047,-2.0,-3.0,20.0,17.0,-1.0,-2.0,-1.0,-1.0
1705326551.4627445,-2.0,1.0,-7.0,-3.0,1.0,-1.0,-2.0,-1.0
1705326551.4627445,-1.0,0.0,-2.0,-1.0,1.0,-1.0,-2.0,1.0
1705326551.4627445,-1.0,-4.0,-2.0,-2.0,-5.0,-2.0,-2.0,-2.0
1705326551.4627445,1.0,-1.0,-2.0,-7.0,-1.0,-1.0,-2.0,1.0
1705326551.4727414,0.0,-1.0,10.0,7.0,3.0,-1.0,1.0,-1.0
1705326551.4727414,-2.0,-1.0,-10.0,-6.0,-9.0,-7.0,-2.0,-1.0
1705326551.4727414,-1.0,-6.0,-4.0,-9.0,-8.0,-4.0,-3.0,-3.0
1705326551.4727414,-1.0,1.0,4.0,9.0,6.0,3.0,1.0,-1.0
1705326551.4927413,-3.0,-2.0,4.0,-4.0,1.0,2.0,3.0,0.0
1705326551.4927413,0.0,-4.0,-11.0,-9.0,2.0,2.0,-1.0,1.0
1705326551.4927413,-2.0,-1.0,-4.0,-1.0,-1.0,-4.0,-2.0,-1.0
1705326551.4927413,0.0,-3.0,-1.0,-9.0,-13.0,-5.0,-5.0,-2.0
1705326551.5127072,-1.0,-3.0,-4.0,11.0,4.0,0.0,-2.0,-3.0
1705326551.5127072,-1.0,2.0,-2.0,0.0,9.0,5.0,0.0,0.0
1705326551.5127072,-1.0,-2.0,9.0,4.0,1.0,2.0,1.0,-1.0
1705326551.5127072,0.0,-1.0,-11.0,7.0,5.0,0.0,0.0,-1.0
1705326551.5427098,1.0,-2.0,-10.0,-2.0,-2.0,-3.0,-2.0,0.0
1705326551.5427098,-2.0,1.0,7.0,-6.0,-4.0,-1.0,-3.0,-3.0
1705326551.5427098,-3.0,-4.0,2.0,-6.0,-8.0,-3.0,0.0,-1.0
1705326551.5427098,-3.0,-3.0,6.0,-2.0,2.0,0.0,0.0,-1.0
1705326551.5527022,0.0,-3.0,-8.0,-2.0,-4.0,-4.0,-1.0,0.0
1705326551.5527022,-1.0,-1.0,-2.0,-5.0,-4.0,-1.0,-1.0,-2.0
1705326551.5527022,0.0,3.0,5.0,14.0,8.0,2.0,0.0,0.0
1705326551.5527022,-1.0,-6.0,-12.0,-4.0,1.0,-1.0,2.0,0.0
1705326551.5727046,-1.0,0.0,13.0,-5.0,-5.0,-4.0,-2.0,-2.0
1705326551.5727046,-1.0,-1.0,5.0,-1.0,-9.0,-6.0,-4.0,-1.0
1705326551.5727046,-1.0,-1.0,-8.0,10.0,-1.0,2.0,1.0,-3.0
1705326551.5727046,-3.0,1.0,5.0,9.0,1.0,3.0,2.0,1.0
1705326551.6027067,-2.0,-1.0,0.0,-11.0,1.0,-2.0,-1.0,-1.0
1705326551.6027067,-1.0,-2.0,-2.0,-5.0,-12.0,-8.0,-2.0,-2.0
1705326551.6027067,0.0,3.0,1.0,6.0,13.0,5.0,-1.0,1.0
1705326551.6027067,2.0,-2.0,-10.0,-2.0,0.0,-1.0,-3.0,-2.0
1705326551.612707,0.0,-1.0,7.0,-5.0,-13.0,-7.0,-3.0,-1.0
1705326551.612707,-2.0,1.0,1.0,-11.0,-4.0,3.0,2.0,0.0
1705326551.612707,-2.0,-3.0,-7.0,10.0,15.0,3.0,-1.0,0.0
1705326551.612707,1.0,2.0,-1.0,5.0,11.0,4.0,1.0,1.0
1705326551.6327062,-2.0,-1.0,5.0,-15.0,-15.0,-6.0,-4.0,-3.0
1705326551.6327062,-1.0,0.0,3.0,0.0,-4.0,-4.0,-3.0,-2.0
1705326551.6427054,0.0,-4.0,-22.0,4.0,9.0,6.0,6.0,0.0
1705326551.6427054,0.0,0.0,5.0,-5.0,18.0,4.0,0.0,1.0
1705326551.6627045,-4.0,2.0,11.0,-4.0,-19.0,-6.0,-2.0,-2.0
1705326551.6627045,-3.0,-6.0,-15.0,-6.0,-10.0,-5.0,-4.0,-4.0
1705326551.6627045,1.0,3.0,13.0,0.0,3.0,2.0,1.0,1.0
1705326551.6627045,0.0,1.0,-4.0,6.0,16.0,6.0,-1.0,0.0
1705326551.6727052,-1.0,-1.0,5.0,-4.0,7.0,2.0,-2.0,0.0
1705326551.6727052,0.0,1.0,1.0,0.0,-3.0,-3.0,0.0,-1.0
1705326551.6727052,-2.0,-2.0,-3.0,-18.0,-24.0,-15.0,-7.0,-1.0
1705326551.6727052,-3.0,0.0,6.0,-2.0,-19.0,-5.0,-2.0,-2.0
1705326551.692737,0.0,0.0,-3.0,-4.0,13.0,7.0,2.0,0.0
1705326551.692737,1.0,1.0,8.0,35.0,25.0,8.0,1.0,1.0
1705326551.7027407,0.0,0.0,2.0,-7.0,-9.0,-3.0,-2.0,-2.0
1705326551.7027407,-1.0,-3.0,1.0,-11.0,-19.0,-12.0,-5.0,-2.0
1705326551.722705,-3.0,-3.0,-17.0,3.0,1.0,3.0,0.0,-2.0
1705326551.722705,0.0,-3.0,-5.0,-6.0,3.0,1.0,0.0,-2.0
1705326551.722705,0.0,2.0,1.0,1.0,3.0,1.0,0.0,-2.0
1705326551.722705,0.0,4.0,14.0,0.0,-9.0,-5.0,-3.0,-1.0
1705326551.7327034,-2.0,-7.0,-7.0,1.0,3.0,-2.0,-1.0,-1.0
1705326551.7327034,-2.0,1.0,-8.0,-7.0,1.0,0.0,2.0,0.0
1705326551.7327034,0.0,0.0,-12.0,-10.0,-1.0,-2.0,-3.0,0.0
1705326551.7327034,-2.0,-2.0,-3.0,-1.0,-3.0,-1.0,1.0,-3.0
1705326551.7529802,1.0,5.0,13.0,11.0,7.0,2.0,-1.0,1.0
1705326551.7529802,-1.0,-1.0,3.0,-1.0,-4.0,-3.0,-2.0,0.0
1705326551.7627032,-1.0,-6.0,-26.0,-6.0,-6.0,-1.0,-2.0,0.0
1705326551.7627032,-2.0,1.0,-4.0,-2.0,4.0,7.0,2.0,-1.0
1705326551.7827492,0.0,-9.0,6.0,6.0,4.0,-2.0,1.0,-1.0
1705326551.7827492,0.0,0.0,0.0,-3.0,-3.0,0.0,-3.0,1.0
1705326551.7827492,-2.0,-3.0,-2.0,-10.0,-10.0,-6.0,-4.0,-4.0
1705326551.7827492,-2.0,-2.0,-21.0,-4.0,-2.0,-3.0,-1.0,-1.0
1705326551.7927027,-2.0,1.0,2.0,0.0,-1.0,1.0,-1.0,-1.0
1705326551.7927027,-1.0,-2.0,-1.0,-1.0,0.0,-1.0,-2.0,-1.0
1705326551.7927027,-5.0,-20.0,6.0,1.0,-2.0,-1.0,-2.0,-3.0
1705326551.7927027,0.0,0.0,-6.0,-3.0,-4.0,-3.0,-2.0,-1.0
1705326551.8250065,0.0,-3.0,-3.0,-2.0,-1.0,0.0,-1.0,-2.0
1705326551.8250065,-1.0,1.0,4.0,1.0,3.0,-1.0,0.0,0.0
1705326551.8250065,-1.0,-1.0,-1.0,-4.0,-3.0,-1.0,-2.0,-1.0
1705326551.8250065,-2.0,-3.0,7.0,-2.0,-6.0,-4.0,-2.0,-2.0
1705326551.8388853,1.0,2.0,1.0,2.0,2.0,-1.0,-2.0,0.0
1705326551.8388853,1.0,-5.0,3.0,4.0,5.0,3.0,2.0,1.0
1705326551.8388853,-2.0,3.0,7.0,2.0,3.0,0.0,1.0,-1.0
1705326551.8388853,-2.0,0.0,-3.0,-2.0,-5.0,-3.0,-1.0,-2.0
1705326551.8489368,0.0,3.0,0.0,-11.0,-8.0,-2.0,-1.0,-1.0
1705326551.8489368,1.0,-5.0,5.0,8.0,1.0,-1.0,-2.0,-2.0
1705326551.8489368,-2.0,12.0,-13.0,-3.0,0.0,-3.0,-3.0,-2.0
1705326551.8489368,-2.0,-1.0,29.0,3.0,3.0,-1.0,-1.0,-3.0
1705326551.8789191,-1.0,-9.0,-25.0,1.0,1.0,-1.0,-3.0,-1.0
1705326551.8789191,-1.0,-5.0,-18.0,-14.0,-7.0,-2.0,-1.0,-1.0
1705326551.8789191,0.0,-4.0,6.0,7.0,1.0,1.0,0.0,1.0
1705326551.8789191,-3.0,-15.0,-6.0,-1.0,1.0,-1.0,-3.0,-3.0
1705326551.8988836,0.0,9.0,11.0,7.0,2.0,1.0,1.0,0.0
1705326551.8988836,-5.0,42.0,11.0,3.0,1.0,0.0,1.0,0.0
1705326551.8988836,0.0,1.0,-11.0,-6.0,-3.0,-1.0,-1.0,-2.0
1705326551.8988836,0.0,0.0,-5.0,-2.0,1.0,1.0,1.0,1.0
1705326551.9088852,0.0,4.0,6.0,0.0,-1.0,0.0,0.0,-1.0
1705326551.9088852,-2.0,-9.0,5.0,-1.0,-1.0,-2.0,-2.0,-1.0
1705326551.9088852,2.0,-4.0,-4.0,-1.0,-1.0,0.0,-1.0,-2.0
1705326551.9088852,-2.0,1.0,14.0,-5.0,-1.0,0.0,2.0,-1.0
1705326551.938928,-4.0,-44.0,-36.0,0.0,1.0,0.0,-4.0,-3.0
1705326551.938928,1.0,1.0,4.0,-2.0,-3.0,0.0,-1.0,-1.0
1705326551.938928,0.0,3.0,12.0,-4.0,-5.0,-3.0,-1.0,0.0
1705326551.938928,-1.0,-1.0,2.0,4.0,2.0,-2.0,-2.0,-1.0
1705326551.9589267,0.0,1.0,6.0,1.0,2.0,0.0,-1.0,-1.0
1705326551.9589267,-1.0,-9.0,1.0,6.0,3.0,3.0,-1.0,-1.0
1705326551.9589267,4.0,-49.0,-11.0,1.0,0.0,-3.0,-2.0,-1.0
1705326551.9589267,1.0,4.0,12.0,-5.0,-7.0,-4.0,-1.0,-3.0
1705326551.9689202,-3.0,2.0,-10.0,-2.0,-4.0,-2.0,-2.0,-1.0
1705326551.9689202,-2.0,-4.0,-11.0,-9.0,0.0,1.0,-1.0,0.0
1705326551.9689202,-7.0,6.0,17.0,1.0,0.0,1.0,1.0,-1.0
1705326551.9689202,-2.0,2.0,-13.0,1.0,1.0,-3.0,-1.0,2.0
1705326551.998921,3.0,3.0,13.0,-3.0,-4.0,-2.0,-1.0,0.0
1705326551.998921,1.0,-12.0,-6.0,-1.0,-2.0,-4.0,-2.0,-2.0
1705326551.998921,0.0,47.0,-10.0,-13.0,-1.0,1.0,0.0,1.0
1705326551.998921,-4.0,-1.0,5.0,3.0,-1.0,0.0,0.0,-3.0
1705326552.018923,-4.0,8.0,1.0,-4.0,-2.0,-1.0,-2.0,1.0
1705326552.018923,-3.0,-11.0,-4.0,-1.0,-1.0,0.0,0.0,-2.0
1705326552.018923,-2.0,-10.0,8.0,3.0,-1.0,-1.0,-2.0,-2.0
1705326552.018923,-12.0,-26.0,-13.0,-1.0,0.0,-1.0,-2.0,-2.0
1705326552.0289252,1.0,3.0,6.0,-1.0,-1.0,1.0,0.0,0.0
1705326552.0289252,6.0,-11.0,-13.0,-1.0,0.0,-1.0,-1.0,-2.0
1705326552.0289252,-1.0,5.0,0.0,-1.0,-2.0,-2.0,-1.0,0.0
1705326552.0289252,5.0,-29.0,-2.0,-3.0,-2.0,-3.0,-3.0,-1.0
1705326552.0588884,-1.0,16.0,21.0,-1.0,0.0,-1.0,1.0,-2.0
1705326552.0588884,-1.0,-3.0,-4.0,-2.0,-2.0,-3.0,-2.0,-2.0
1705326552.0588884,4.0,8.0,9.0,7.0,5.0,2.0,-1.0,-1.0
1705326552.0588884,2.0,-5.0,-25.0,-3.0,-3.0,0.0,0.0,0.0
1705326552.0788848,-2.0,1.0,14.0,-1.0,1.0,-1.0,0.0,0.0
1705326552.0788848,-1.0,1.0,-8.0,3.0,-2.0,-1.0,1.0,0.0
1705326552.0788848,-8.0,-10.0,-9.0,-11.0,-5.0,-2.0,-1.0,-3.0
1705326552.0788848,1.0,41.0,10.0,4.0,3.0,3.0,1.0,1.0
1705326552.0988865,2.0,-39.0,-3.0,-2.0,-6.0,-6.0,-4.0,-5.0
1705326552.0988865,-8.0,1.0,-10.0,-7.0,-4.0,-2.0,-1.0,-2.0
1705326552.0988865,-2.0,-11.0,-8.0,2.0,-2.0,-2.0,-1.0,-1.0
1705326552.0988865,2.0,12.0,0.0,-6.0,-2.0,-1.0,-1.0,-1.0
1705326552.1189165,-2.0,-45.0,-15.0,6.0,5.0,2.0,-2.0,-1.0
1705326552.1189165,0.0,63.0,-20.0,-5.0,-1.0,-1.0,1.0,2.0
1705326552.1189165,0.0,5.0,17.0,6.0,-1.0,-2.0,-2.0,-2.0
1705326552.1189165,-1.0,-10.0,-13.0,-5.0,-1.0,0.0,0.0,-2.0
1705326552.1488883,-9.0,78.0,6.0,3.0,4.0,2.0,3.0,2.0
1705326552.1488883,-9.0,-35.0,5.0,1.0,-2.0,-4.0,-4.0,-3.0
1705326552.1488883,2.0,28.0,2.0,0.0,-1.0,1.0,-1.0,0.0
1705326552.1488883,-1.0,22.0,10.0,1.0,-2.0,0.0,1.0,1.0
1705326552.1488883,2.0,-35.0,-19.0,-1.0,1.0,-2.0,-2.0,-3.0
1705326552.1488883,-8.0,8.0,11.0,-2.0,-2.0,1.0,3.0,-2.0
1705326552.158886,-3.0,-9.0,4.0,-7.0,-3.0,-2.0,-1.0,-1.0
1705326552.158886,0.0,-14.0,-3.0,-2.0,-1.0,-1.0,-3.0,-3.0
1705326552.1789284,1.0,-23.0,-25.0,-6.0,-4.0,-2.0,0.0,-2.0
1705326552.1789284,3.0,-15.0,12.0,2.0,1.0,0.0,-2.0,1.0
1705326552.1789284,4.0,-97.0,-9.0,2.0,0.0,-5.0,-3.0,-2.0
1705326552.1789284,-6.0,-92.0,-10.0,-6.0,-3.0,-2.0,-1.0,-4.0
1705326552.1988912,5.0,13.0,-14.0,-3.0,-2.0,0.0,-1.0,-1.0
1705326552.1988912,-7.0,48.0,11.0,1.0,2.0,1.0,1.0,1.0
1705326552.1988912,-4.0,-73.0,-12.0,0.0,-1.0,-3.0,-2.0,-4.0
1705326552.1988912,11.0,3.0,1.0,6.0,2.0,-2.0,-2.0,2.0
1705326552.2188897,-15.0,21.0,19.0,-8.0,-2.0,3.0,0.0,-2.0
1705326552.2188897,6.0,-41.0,1.0,2.0,-3.0,-1.0,-2.0,0.0
1705326552.2188897,0.0,-5.0,11.0,-4.0,-3.0,0.0,-1.0,0.0
1705326552.2188897,-1.0,24.0,-41.0,-3.0,1.0,0.0,0.0,-1.0
1705326552.2388842,3.0,-5.0,6.0,0.0,0.0,-1.0,0.0,1.0
1705326552.2388842,7.0,-2.0,6.0,-2.0,-5.0,-1.0,0.0,0.0
1705326552.2388842,-8.0,51.0,19.0,2.0,1.0,0.0,-2.0,0.0
1705326552.2388842,0.0,4.0,22.0,2.0,0.0,0.0,-3.0,-2.0
1705326552.2588823,4.0,14.0,2.0,-2.0,-4.0,-5.0,-5.0,1.0
1705326552.2588823,0.0,-83.0,-17.0,-2.0,1.0,-3.0,-2.0,-5.0
1705326552.2588823,9.0,98.0,9.0,3.0,-1.0,4.0,3.0,6.0
1705326552.2588823,-1.0,-5.0,6.0,-2.0,-2.0,-3.0,1.0,1.0
1705326552.268885,5.0,18.0,-5.0,3.0,1.0,0.0,0.0,-1.0
1705326552.268885,9.0,-59.0,15.0,-5.0,-6.0,-6.0,-4.0,-2.0
1705326552.2789202,-1.0,41.0,-12.0,-3.0,0.0,0.0,0.0,0.0
1705326552.2789202,0.0,30.0,-4.0,-1.0,-2.0,0.0,1.0,0.0
1705326552.298884,2.0,-5.0,-2.0,0.0,0.0,1.0,1.0,-1.0
1705326552.298884,0.0,69.0,5.0,0.0,2.0,4.0,2.0,1.0
1705326552.298884,-8.0,-6.0,-1.0,-3.0,-3.0,-3.0,-2.0,-3.0
1705326552.298884,-3.0,0.0,-2.0,-4.0,-3.0,1.0,-3.0,-2.0
1705326552.3288844,-8.0,-32.0,-13.0,-3.0,-4.0,-2.0,-2.0,-3.0
1705326552.3288844,4.0,-26.0,7.0,5.0,1.0,1.0,-1.0,1.0
1705326552.3288844,-4.0,15.0,-15.0,-6.0,-2.0,0.0,0.0,-2.0
1705326552.3288844,-2.0,6.0,-1.0,0.0,-3.0,-3.0,-3.0,-1.0
1705326552.3288844,-7.0,41.0,17.0,2.0,1.0,1.0,1.0,0.0
1705326552.3288844,-2.0,-10.0,2.0,1.0,1.0,-2.0,-2.0,-1.0
1705326552.3442514,6.0,48.0,-12.0,3.0,1.0,1.0,0.0,3.0
1705326552.3442514,-5.0,13.0,12.0,-2.0,-2.0,-1.0,1.0,-1.0
1705326552.3592913,4.0,-17.0,-11.0,-5.0,-1.0,-1.0,1.0,-1.0
1705326552.3592913,-1.0,96.0,14.0,2.0,1.0,4.0,3.0,3.0
1705326552.3602936,3.0,-27.0,8.0,3.0,0.0,-1.0,-2.0,-1.0
1705326552.3602936,-2.0,-19.0,-1.0,-1.0,-1.0,0.0,0.0,-2.0
1705326552.381553,6.0,-25.0,17.0,5.0,-1.0,-2.0,-2.0,-1.0
1705326552.381553,-5.0,-5.0,-16.0,-2.0,-2.0,-1.0,-2.0,-2.0
1705326552.381553,-5.0,-117.0,-15.0,-4.0,-2.0,-1.0,-2.0,-1.0
1705326552.381553,-3.0,-26.0,1.0,2.0,-1.0,-4.0,-6.0,-2.0
1705326552.3915532,-4.0,7.0,-2.0,-1.0,-3.0,-1.0,6.0,0.0
1705326552.3915532,2.0,-47.0,5.0,0.0,-2.0,0.0,-5.0,1.0
1705326552.4015949,0.0,14.0,-2.0,-3.0,-3.0,-1.0,1.0,-1.0
1705326552.4015949,3.0,-17.0,-6.0,-6.0,-4.0,-4.0,-1.0,1.0
1705326552.411559,2.0,-6.0,1.0,-1.0,0.0,-1.0,-2.0,-2.0
1705326552.411559,0.0,18.0,-4.0,0.0,-1.0,-1.0,0.0,-2.0
1705326552.4215553,0.0,-13.0,-4.0,-2.0,-2.0,-1.0,7.0,5.0
1705326552.4215553,-12.0,50.0,-10.0,-1.0,2.0,2.0,-6.0,-3.0
1705326552.441591,0.0,-5.0,0.0,-5.0,-3.0,-5.0,-10.0,-5.0
1705326552.441591,2.0,-9.0,-17.0,-3.0,-1.0,1.0,5.0,3.0
1705326552.441591,-4.0,-5.0,7.0,-1.0,-1.0,0.0,-1.0,-2.0
1705326552.441591,11.0,68.0,28.0,9.0,6.0,2.0,7.0,3.0
1705326552.451585,2.0,58.0,10.0,2.0,1.0,5.0,8.0,2.0
1705326552.451585,-6.0,-32.0,-23.0,-5.0,-1.0,-5.0,4.0,-4.0
1705326552.4615543,3.0,-27.0,21.0,2.0,0.0,-4.0,-5.0,-4.0
1705326552.4615543,1.0,-53.0,1.0,-2.0,-1.0,0.0,2.0,-2.0
1705326552.4715548,0.0,-20.0,-11.0,-2.0,-4.0,-4.0,1.0,-2.0
1705326552.4715548,-7.0,52.0,10.0,-1.0,-1.0,2.0,3.0,0.0
1705326552.4815896,0.0,7.0,-19.0,-1.0,-2.0,0.0,-2.0,-3.0
1705326552.4815896,-3.0,0.0,6.0,-2.0,-2.0,-1.0,-2.0,0.0
1705326552.501604,-3.0,0.0,3.0,0.0,0.0,0.0,-1.0,0.0
1705326552.501604,-4.0,-20.0,-21.0,-3.0,-1.0,-1.0,-5.0,-3.0
1705326552.501604,-3.0,-7.0,-2.0,-2.0,1.0,-1.0,-2.0,0.0
1705326552.501604,-4.0,-6.0,-8.0,4.0,2.0,-2.0,-4.0,-2.0
1705326552.5216002,3.0,6.0,-6.0,-1.0,-2.0,-2.0,0.0,0.0
1705326552.5216002,-1.0,-16.0,0.0,-3.0,-2.0,-2.0,-3.0,-2.0
1705326552.5216002,-1.0,4.0,-3.0,-1.0,-1.0,-2.0,-6.0,-1.0
1705326552.5216002,6.0,-57.0,-1.0,0.0,-1.0,-2.0,-2.0,2.0
1705326552.531554,-2.0,72.0,-5.0,2.0,3.0,2.0,1.0,4.0
1705326552.531554,-1.0,-16.0,3.0,-1.0,-2.0,1.0,-2.0,-6.0
1705326552.531554,-1.0,-10.0,12.0,5.0,1.0,0.0,6.0,1.0
1705326552.531554,-4.0,-36.0,-41.0,-13.0,-6.0,-3.0,-12.0,-1.0
1705326552.561595,-1.0,-45.0,3.0,0.0,-2.0,-4.0,-2.0,-3.0
1705326552.561595,-3.0,0.0,7.0,2.0,-1.0,1.0,-3.0,4.0
1705326552.561595,1.0,8.0,-1.0,1.0,-3.0,-3.0,-2.0,0.0
1705326552.561595,1.0,4.0,5.0,0.0,-2.0,0.0,6.0,-2.0
1705326552.5815568,-6.0,-60.0,-11.0,-7.0,-3.0,-5.0,6.0,6.0
1705326552.5815568,13.0,90.0,11.0,1.0,2.0,-1.0,-7.0,-7.0
1705326552.5815568,-2.0,-29.0,-1.0,-1.0,-3.0,-3.0,-8.0,-13.0
1705326552.5815568,1.0,8.0,-2.0,1.0,0.0,-1.0,-1.0,0.0
1705326552.601555,-1.0,-9.0,14.0,0.0,0.0,1.0,6.0,-2.0
1705326552.601555,-7.0,-71.0,5.0,0.0,-2.0,0.0,2.0,4.0
1705326552.601555,3.0,-39.0,-45.0,-5.0,-1.0,-1.0,-1.0,-13.0
1705326552.601555,-1.0,52.0,11.0,-1.0,-2.0,0.0,0.0,0.0
1705326552.6215558,-5.0,-10.0,-8.0,0.0,-2.0,-3.0,-5.0,-4.0
1705326552.6215558,-12.0,-10.0,-8.0,0.0,1.0,0.0,4.0,-2.0
1705326552.6215558,-5.0,-32.0,13.0,-4.0,-4.0,-3.0,-19.0,2.0
1705326552.6215558,-8.0,-97.0,-24.0,-6.0,-3.0,-4.0,-1.0,-2.0
1705326552.6415565,-11.0,-11.0,7.0,-4.0,-1.0,-1.0,-4.0,-3.0
1705326552.6415565,2.0,0.0,-23.0,-5.0,-2.0,-4.0,-4.0,5.0
1705326552.6415565,-1.0,7.0,3.0,1.0,0.0,0.0,7.0,5.0
1705326552.6415565,6.0,-22.0,10.0,3.0,0.0,0.0,1.0,-4.0
1705326552.6615555,4.0,80.0,10.0,-5.0,-2.0,-1.0,-6.0,1.0
1705326552.6615555,2.0,-87.0,-5.0,-6.0,-2.0,-4.0,-4.0,-5.0
1705326552.6615555,-2.0,-2.0,3.0,0.0,1.0,1.0,2.0,4.0
1705326552.6615555,4.0,-8.0,6.0,-1.0,-1.0,0.0,3.0,-3.0
1705326552.6815934,0.0,-32.0,6.0,4.0,-2.0,-3.0,-2.0,-2.0
1705326552.6815934,-5.0,26.0,8.0,0.0,-3.0,-2.0,1.0,1.0
1705326552.6815934,0.0,42.0,-10.0,-4.0,-2.0,3.0,13.0,2.0
1705326552.6815934,-3.0,33.0,18.0,4.0,2.0,-2.0,-22.0,-1.0
1705326552.7015533,-7.0,-52.0,-6.0,0.0,-3.0,-7.0,-10.0,-2.0
1705326552.7015533,13.0,49.0,-9.0,-3.0,-2.0,-2.0,-2.0,-5.0
1705326552.7115536,-9.0,40.0,21.0,3.0,4.0,3.0,2.0,4.0
1705326552.7115536,-1.0,15.0,-10.0,-2.0,-6.0,-1.0,7.0,-1.0
1705326552.7115536,-1.0,40.0,1.0,-1.0,-2.0,5.0,4.0,4.0
1705326552.7115536,1.0,-5.0,14.0,2.0,-1.0,-1.0,-3.0,-2.0
1705326552.7115536,-2.0,-15.0,-17.0,-3.0,-2.0,-2.0,-7.0,-4.0
1705326552.7115536,0.0,11.0,9.0,-4.0,0.0,-1.0,3.0,3.0
1705326552.7415545,-5.0,-84.0,-6.0,4.0,1.0,0.0,-6.0,-2.0
1705326552.7415545,-4.0,-17.0,-20.0,-7.0,-3.0,-2.0,-1.0,-8.0
1705326552.7415545,1.0,-10.0,14.0,-1.0,-1.0,-1.0,-4.0,0.0
1705326552.7415545,-23.0,-5.0,-1.0,3.0,1.0,1.0,0.0,0.0
1705326552.7615545,2.0,-26.0,4.0,-1.0,-3.0,-3.0,5.0,-10.0
1705326552.7615545,-3.0,-22.0,-7.0,0.0,1.0,-3.0,1.0,-1.0
1705326552.771556,2.0,-6.0,-3.0,2.0,3.0,1.0,-5.0,1.0
1705326552.771556,1.0,-24.0,-25.0,-3.0,0.0,-2.0,2.0,-1.0
1705326552.771556,2.0,10.0,12.0,-1.0,3.0,8.0,-8.0,3.0
1705326552.771556,-6.0,-48.0,9.0,-5.0,-4.0,-8.0,-9.0,0.0
1705326552.771556,3.0,12.0,2.0,0.0,-2.0,-6.0,1.0,-30.0
1705326552.771556,4.0,-1.0,3.0,2.0,-2.0,2.0,4.0,3.0
1705326552.8016028,1.0,11.0,0.0,-3.0,0.0,0.0,2.0,-2.0
1705326552.8016028,-2.0,-15.0,7.0,1.0,3.0,5.0,1.0,5.0
1705326552.8016028,-3.0,-4.0,7.0,-1.0,0.0,2.0,-2.0,2.0
1705326552.8016028,-2.0,7.0,-11.0,-4.0,-3.0,-4.0,7.0,-3.0
1705326552.8315554,4.0,-20.0,-15.0,-3.0,-1.0,-2.0,-5.0,-1.0
1705326552.8315554,10.0,70.0,12.0,2.0,-4.0,-2.0,1.0,7.0
1705326552.8315554,-1.0,-64.0,-11.0,-2.0,-1.0,-3.0,0.0,3.0
1705326552.8315554,-5.0,73.0,31.0,6.0,-1.0,3.0,0.0,-1.0
1705326552.8315554,6.0,92.0,-22.0,4.0,4.0,3.0,4.0,0.0
1705326552.8315554,-3.0,-25.0,5.0,-5.0,-4.0,-5.0,-5.0,5.0
1705326552.8315554,4.0,30.0,-1.0,0.0,-2.0,0.0,3.0,2.0
1705326552.8315554,5.0,-5.0,-3.0,-4.0,-2.0,1.0,-1.0,3.0
1705326552.8615534,-2.0,-40.0,2.0,2.0,-1.0,-3.0,-4.0,-5.0
1705326552.8615534,-2.0,-63.0,11.0,6.0,2.0,1.0,-2.0,-10.0
1705326552.8615534,-1.0,16.0,-12.0,-2.0,-2.0,0.0,1.0,5.0
1705326552.8615534,-7.0,-72.0,11.0,-10.0,-4.0,-6.0,4.0,-4.0
1705326552.8849168,-4.0,-1.0,-8.0,0.0,-2.0,-2.0,-18.0,-2.0
1705326552.8849168,1.0,-5.0,-10.0,-1.0,-1.0,0.0,-2.0,-3.0
1705326552.8859153,-3.0,6.0,21.0,0.0,-2.0,-3.0,0.0,4.0
1705326552.8859153,-1.0,-18.0,-15.0,1.0,1.0,1.0,4.0,-1.0
1705326552.8944871,2.0,9.0,-20.0,-7.0,-3.0,-2.0,-6.0,6.0
1705326552.8944871,-4.0,18.0,-2.0,1.0,-2.0,-1.0,13.0,-20.0
1705326552.8944871,-2.0,-72.0,-7.0,-1.0,-2.0,-4.0,-6.0,2.0
1705326552.8944871,4.0,41.0,4.0,0.0,-1.0,-3.0,-2.0,1.0
1705326552.9145339,-3.0,-12.0,12.0,-1.0,0.0,1.0,4.0,-2.0
1705326552.9145339,1.0,-3.0,-10.0,2.0,1.0,-1.0,-5.0,0.0
1705326552.9245322,0.0,11.0,-23.0,-9.0,-4.0,0.0,3.0,1.0
1705326552.9245322,-1.0,-43.0,-6.0,-1.0,-1.0,-1.0,-6.0,-4.0
1705326552.9445298,3.0,18.0,19.0,2.0,0.0,-2.0,2.0,-1.0
1705326552.9445298,0.0,3.0,-11.0,-1.0,-1.0,-2.0,-2.0,1.0
1705326552.9445298,-5.0,-1.0,4.0,-1.0,0.0,-1.0,0.0,-1.0
1705326552.9445298,3.0,41.0,-10.0,-1.0,0.0,1.0,-5.0,-1.0
1705326552.9544935,-8.0,-65.0,-16.0,-3.0,-1.0,-3.0,-1.0,-2.0
1705326552.9544935,3.0,-1.0,-9.0,1.0,-2.0,0.0,-5.0,3.0
1705326552.9648387,-3.0,26.0,10.0,0.0,0.0,-1.0,2.0,-1.0
1705326552.9648387,0.0,0.0,-22.0,-4.0,-1.0,-2.0,3.0,-1.0
1705326552.9748714,1.0,-84.0,8.0,-1.0,-2.0,4.0,7.0,-1.0
1705326552.9748714,-1.0,24.0,8.0,1.0,0.0,-5.0,-13.0,-5.0
1705326552.9748714,-1.0,-5.0,-19.0,-3.0,-2.0,1.0,-1.0,7.0
1705326552.9748714,-2.0,-8.0,3.0,-1.0,-2.0,-2.0,-5.0,-6.0
1705326553.0044885,2.0,-10.0,17.0,1.0,-1.0,1.0,7.0,2.0
1705326553.0044885,-3.0,50.0,-4.0,-4.0,1.0,-2.0,16.0,0.0
1705326553.0044885,2.0,-21.0,7.0,1.0,0.0,-2.0,-9.0,6.0
1705326553.0044885,7.0,96.0,31.0,6.0,1.0,-1.0,2.0,1.0
1705326553.0144901,1.0,7.0,-35.0,-5.0,-1.0,-1.0,-1.0,-2.0
1705326553.0144901,-6.0,-23.0,6.0,-3.0,-3.0,2.0,0.0,5.0
1705326553.0144901,4.0,2.0,14.0,3.0,-1.0,-3.0,-3.0,-4.0
1705326553.0144901,-4.0,-14.0,-11.0,0.0,0.0,0.0,-1.0,-1.0
1705326553.034492,-1.0,-13.0,-8.0,1.0,1.0,-3.0,2.0,-2.0
1705326553.034492,2.0,4.0,0.0,-2.0,-1.0,1.0,-2.0,1.0
1705326553.034492,-3.0,-9.0,-7.0,-3.0,-2.0,0.0,6.0,1.0
1705326553.034492,-3.0,-33.0,9.0,1.0,-1.0,1.0,-6.0,-9.0
1705326553.0644898,0.0,22.0,1.0,2.0,-1.0,-5.0,-2.0,1.0
1705326553.0644898,-5.0,-29.0,15.0,-4.0,-1.0,0.0,-3.0,1.0
1705326553.0644898,-1.0,11.0,3.0,0.0,-1.0,1.0,0.0,-6.0
1705326553.0644898,-2.0,23.0,-31.0,-5.0,-3.0,-1.0,2.0,3.0
1705326553.0844898,-2.0,14.0,11.0,-1.0,-3.0,-3.0,-2.0,-2.0
1705326553.0844898,-1.0,-28.0,-4.0,0.0,0.0,0.0,-7.0,0.0
1705326553.0844898,5.0,48.0,20.0,3.0,2.0,1.0,0.0,2.0
1705326553.0844898,-1.0,-27.0,-5.0,-3.0,-3.0,-5.0,-8.0,0.0
1705326553.1044884,-10.0,92.0,15.0,0.0,-1.0,2.0,2.0,2.0
1705326553.1044884,-1.0,-12.0,5.0,0.0,-2.0,3.0,0.0,0.0
1705326553.1044884,-2.0,-35.0,-16.0,-1.0,-1.0,0.0,-3.0,-5.0
1705326553.1044884,4.0,-28.0,4.0,-1.0,-1.0,0.0,-1.0,4.0
1705326553.124489,-4.0,43.0,-2.0,0.0,2.0,2.0,-1.0,-6.0
1705326553.124489,2.0,-1.0,14.0,1.0,0.0,-2.0,1.0,-3.0
1705326553.124489,-6.0,8.0,-18.0,-5.0,-3.0,-1.0,0.0,-1.0
1705326553.124489,0.0,-7.0,5.0,-3.0,1.0,0.0,-1.0,-2.0
1705326553.1345289,0.0,-21.0,-17.0,-2.0,-5.0,-4.0,-5.0,-3.0
1705326553.1345289,-20.0,36.0,5.0,0.0,2.0,1.0,0.0,-4.0
1705326553.1444893,-1.0,-35.0,-17.0,0.0,-4.0,-2.0,-3.0,0.0
1705326553.1444893,-2.0,-25.0,6.0,3.0,0.0,2.0,1.0,4.0
1705326553.164489,-1.0,-19.0,27.0,-2.0,-4.0,-5.0,-1.0,-17.0
1705326553.164489,0.0,-2.0,-7.0,-2.0,0.0,0.0,0.0,10.0
1705326553.164489,-3.0,-8.0,-56.0,-8.0,-1.0,-3.0,-3.0,-28.0
1705326553.164489,2.0,0.0,14.0,1.0,-1.0,1.0,4.0,2.0
1705326553.1844907,0.0,-39.0,5.0,-3.0,-2.0,-1.0,-1.0,4.0
1705326553.1844907,8.0,45.0,7.0,2.0,-1.0,-3.0,-16.0,-1.0
1705326553.1844907,0.0,5.0,19.0,2.0,1.0,-1.0,-2.0,4.0
1705326553.1844907,0.0,-18.0,-9.0,2.0,1.0,-1.0,0.0,-3.0
1705326553.2144935,-9.0,16.0,-7.0,-3.0,-2.0,1.0,0.0,-1.0
1705326553.2144935,2.0,-25.0,6.0,0.0,-4.0,-4.0,0.0,0.0
1705326553.2244911,0.0,2.0,-14.0,-3.0,-1.0,0.0,6.0,7.0
1705326553.2244911,-7.0,97.0,-2.0,0.0,1.0,-4.0,-6.0,0.0
1705326553.2244911,6.0,15.0,2.0,-1.0,-1.0,-1.0,1.0,6.0
1705326553.2244911,0.0,-8.0,-4.0,-2.0,-2.0,1.0,4.0,-3.0
1705326553.2244911,-1.0,-1.0,23.0,3.0,0.0,1.0,1.0,1.0
1705326553.2244911,-2.0,-45.0,-64.0,-13.0,-4.0,-1.0,-1.0,-3.0
1705326553.2445276,1.0,-15.0,6.0,1.0,1.0,1.0,-6.0,-3.0
1705326553.2445276,-1.0,1.0,-3.0,0.0,-1.0,1.0,4.0,-1.0
1705326553.2445276,-2.0,-10.0,9.0,-1.0,-3.0,-3.0,-3.0,1.0
1705326553.2445276,-5.0,-85.0,3.0,1.0,-2.0,1.0,11.0,-1.0
1705326553.2544897,-9.0,-59.0,-12.0,-1.0,-1.0,-6.0,-3.0,-3.0
1705326553.2544897,-1.0,-22.0,-21.0,-1.0,-2.0,0.0,4.0,6.0
1705326553.2644925,-3.0,-10.0,28.0,1.0,-1.0,1.0,-4.0,-26.0
1705326553.2644925,-5.0,-1.0,3.0,-1.0,2.0,0.0,-5.0,-1.0
1705326553.2844915,2.0,-7.0,-21.0,-1.0,-2.0,1.0,-1.0,2.0
1705326553.2844915,1.0,-19.0,1.0,-3.0,-2.0,-3.0,-2.0,-1.0
1705326553.2844915,-1.0,7.0,12.0,-1.0,-3.0,-5.0,2.0,10.0
1705326553.2844915,3.0,-1.0,4.0,2.0,-2.0,1.0,10.0,-5.0
1705326553.3044891,10.0,-9.0,-5.0,-8.0,-3.0,-7.0,-7.0,-2.0
1705326553.3044891,0.0,22.0,-30.0,-6.0,-1.0,-2.0,0.0,1.0
1705326553.3044891,1.0,15.0,13.0,1.0,-1.0,1.0,3.0,2.0
1705326553.3044891,-1.0,-2.0,4.0,-3.0,-3.0,-1.0,-3.0,-2.0
1705326553.3144896,2.0,14.0,4.0,3.0,3.0,5.0,11.0,6.0
1705326553.3144896,-3.0,-7.0,7.0,-1.0,-2.0,-4.0,-3.0,-10.0
1705326553.324489,-4.0,-74.0,-12.0,-3.0,-3.0,0.0,-5.0,6.0
1705326553.324489,4.0,42.0,11.0,-1.0,-5.0,-6.0,-1.0,2.0
1705326553.3344932,-10.0,-75.0,-4.0,-3.0,-1.0,0.0,-7.0,-11.0
1705326553.3344932,-3.0,-21.0,-15.0,-2.0,4.0,3.0,-3.0,-2.0
1705326553.3344932,1.0,-11.0,-5.0,-2.0,1.0,-1.0,-2.0,-2.0
1705326553.3344932,-2.0,0.0,3.0,1.0,2.0,-1.0,-8.0,-2.0
1705326553.364491,-1.0,9.0,7.0,-2.0,-3.0,-2.0,-2.0,1.0
1705326553.364491,-2.0,-3.0,-2.0,0.0,-2.0,-2.0,-1.0,-4.0
1705326553.364491,3.0,4.0,-13.0,-2.0,-2.0,-1.0,1.0,11.0
1705326553.364491,-1.0,-24.0,7.0,-1.0,-3.0,-5.0,1.0,-2.0
1705326553.3745294,1.0,28.0,4.0,3.0,2.0,1.0,1.0,2.0
1705326553.3745294,5.0,-27.0,-2.0,-1.0,1.0,1.0,0.0,1.0
1705326553.3844912,3.0,29.0,16.0,1.0,-2.0,0.0,0.0,7.0
1705326553.3844912,2.0,7.0,-23.0,-7.0,-3.0,-4.0,-10.0,-6.0
1705326553.4108753,2.0,-1.0,-4.0,2.0,1.0,1.0,1.0,-1.0
1705326553.4108753,1.0,-6.0,21.0,1.0,-1.0,-1.0,2.0,2.0
1705326553.4108753,-4.0,34.0,-14.0,-3.0,-2.0,-1.0,-5.0,-2.0
1705326553.4108753,-1.0,-34.0,-1.0,-1.0,-2.0,0.0,-1.0,-2.0
1705326553.4250252,2.0,15.0,0.0,-1.0,-3.0,-3.0,0.0,1.0
1705326553.4250252,0.0,17.0,-3.0,3.0,3.0,1.0,0.0,1.0
1705326553.4260244,-3.0,6.0,2.0,-1.0,2.0,-1.0,0.0,-3.0
1705326553.4260244,-2.0,5.0,4.0,1.0,-1.0,-2.0,-2.0,1.0
1705326553.437212,2.0,6.0,0.0,-2.0,-4.0,0.0,-1.0,3.0
1705326553.437212,-7.0,-10.0,-11.0,-3.0,-4.0,-2.0,3.0,-4.0
1705326553.4471765,-5.0,-12.0,0.0,-2.0,-2.0,-2.0,0.0,-5.0
1705326553.4471765,-2.0,-4.0,-16.0,-4.0,-1.0,0.0,-3.0,2.0
1705326553.457179,-1.0,-9.0,-3.0,0.0,0.0,-3.0,1.0,7.0
1705326553.457179,-1.0,-1.0,7.0,1.0,-2.0,-2.0,-7.0,-30.0
1705326553.457179,7.0,-24.0,-2.0,-2.0,-3.0,-2.0,-12.0,-1.0
1705326553.457179,5.0,-36.0,13.0,-1.0,-3.0,-3.0,-6.0,0.0
1705326553.4771776,-5.0,14.0,-1.0,-2.0,-1.0,-3.0,1.0,-1.0
1705326553.4771776,-5.0,-24.0,3.0,2.0,-1.0,1.0,-2.0,6.0
1705326553.4771776,4.0,45.0,6.0,-2.0,0.0,0.0,5.0,-2.0
1705326553.4771776,-1.0,-15.0,9.0,0.0,1.0,4.0,-4.0,0.0
1705326553.5071807,0.0,-28.0,0.0,1.0,0.0,0.0,-4.0,-7.0
1705326553.5071807,-1.0,-7.0,4.0,-2.0,-5.0,-6.0,-9.0,7.0
1705326553.5071807,-4.0,-25.0,4.0,1.0,-2.0,0.0,3.0,-5.0
1705326553.5071807,1.0,96.0,13.0,5.0,3.0,1.0,1.0,6.0
1705326553.5171764,6.0,-25.0,1.0,0.0,0.0,0.0,-3.0,-6.0
1705326553.5171764,-2.0,32.0,-2.0,-2.0,0.0,2.0,3.0,7.0
1705326553.5171764,-8.0,-15.0,-10.0,-8.0,-3.0,-6.0,5.0,0.0
1705326553.5171764,-6.0,-31.0,0.0,1.0,0.0,-2.0,1.0,5.0
1705326553.547179,1.0,30.0,-9.0,-2.0,-2.0,-1.0,-3.0,3.0
1705326553.547179,-1.0,-11.0,2.0,1.0,0.0,1.0,-2.0,-1.0
1705326553.557177,-9.0,-14.0,8.0,3.0,2.0,0.0,-4.0,5.0
1705326553.557177,-2.0,-13.0,-9.0,-1.0,-4.0,3.0,22.0,0.0
1705326553.567179,-3.0,8.0,-26.0,-7.0,0.0,-6.0,-10.0,-7.0
1705326553.567179,0.0,12.0,-5.0,-1.0,-2.0,-2.0,0.0,4.0
1705326553.567179,0.0,9.0,2.0,1.0,2.0,-4.0,-4.0,-5.0
1705326553.567179,1.0,27.0,4.0,2.0,0.0,1.0,7.0,0.0
1705326553.5772142,1.0,1.0,12.0,0.0,-2.0,6.0,0.0,-2.0
1705326553.5772142,1.0,1.0,-25.0,-5.0,-3.0,-1.0,-2.0,-4.0
1705326553.5772142,-2.0,-46.0,-13.0,0.0,-3.0,-2.0,14.0,0.0
1705326553.5772142,0.0,-10.0,19.0,0.0,-3.0,-6.0,-10.0,-12.0
1705326553.6071787,-6.0,-74.0,-14.0,0.0,-1.0,0.0,-6.0,9.0
1705326553.6071787,3.0,15.0,15.0,-2.0,-1.0,0.0,-4.0,1.0
1705326553.6071787,-1.0,-6.0,4.0,0.0,0.0,3.0,-10.0,2.0
1705326553.6071787,-5.0,-7.0,1.0,0.0,-1.0,-6.0,-16.0,-2.0
1705326553.6272156,5.0,96.0,9.0,4.0,0.0,4.0,15.0,7.0
1705326553.6272156,-1.0,-34.0,-5.0,-2.0,-2.0,-5.0,3.0,-2.0
1705326553.6272156,-10.0,12.0,-7.0,-2.0,-2.0,-7.0,-11.0,-4.0
1705326553.6272156,2.0,-7.0,-13.0,-3.0,2.0,4.0,7.0,-5.0
1705326553.637222,-4.0,2.0,-5.0,1.0,1.0,-1.0,-7.0,-8.0
1705326553.637222,2.0,42.0,18.0,2.0,-2.0,2.0,2.0,1.0
1705326553.637222,-1.0,-60.0,-67.0,-10.0,-2.0,3.0,7.0,1.0
1705326553.637222,4.0,35.0,7.0,-1.0,-2.0,-6.0,-6.0,3.0
1705326553.657179,-1.0,-2.0,6.0,0.0,-1.0,-2.0,0.0,-11.0
1705326553.6671803,-2.0,-30.0,-23.0,-3.0,0.0,1.0,5.0,-3.0
1705326553.6771767,1.0,0.0,21.0,3.0,0.0,-2.0,-4.0,6.0
1705326553.6771767,-4.0,-13.0,-10.0,-1.0,-2.0,0.0,-6.0,-25.0
1705326553.687217,-1.0,-13.0,2.0,-2.0,-1.0,0.0,1.0,1.0
1705326553.687217,4.0,25.0,7.0,-1.0,-1.0,1.0,4.0,3.0
1705326553.687217,3.0,45.0,20.0,2.0,-1.0,6.0,-21.0,-6.0
1705326553.687217,-6.0,-30.0,-26.0,-4.0,-3.0,-11.0,18.0,3.0
1705326553.6972206,0.0,18.0,5.0,-2.0,-3.0,3.0,5.0,0.0
1705326553.6972206,-1.0,-33.0,4.0,0.0,-1.0,-3.0,-2.0,-7.0
1705326553.6972206,3.0,3.0,8.0,-4.0,-3.0,3.0,10.0,0.0
1705326553.6972206,-4.0,-66.0,2.0,-1.0,-1.0,1.0,-20.0,-3.0
1705326553.71718,0.0,-32.0,5.0,-3.0,-3.0,-9.0,-14.0,-1.0
1705326553.71718,7.0,-22.0,-36.0,-4.0,-2.0,-1.0,6.0,4.0
1705326553.71718,-1.0,44.0,7.0,3.0,2.0,3.0,7.0,-2.0
1705326553.71718,5.0,42.0,20.0,2.0,2.0,1.0,-4.0,3.0
1705326553.7472987,0.0,3.0,-7.0,-4.0,-2.0,-4.0,0.0,-1.0
1705326553.7472987,-3.0,-6.0,22.0,-2.0,-3.0,-1.0,-3.0,-5.0
1705326553.7472987,2.0,5.0,2.0,3.0,-1.0,-4.0,-3.0,-4.0
1705326553.7472987,-3.0,-52.0,-9.0,-4.0,0.0,1.0,-1.0,-2.0
1705326553.7571785,-5.0,8.0,-6.0,0.0,1.0,1.0,9.0,3.0
1705326553.7571785,-2.0,8.0,5.0,0.0,-2.0,-3.0,-14.0,4.0
1705326553.767227,9.0,26.0,10.0,1.0,0.0,-3.0,7.0,-10.0
1705326553.767227,-1.0,11.0,3.0,0.0,1.0,-1.0,-9.0,11.0
1705326553.7871802,-1.0,-9.0,-3.0,-4.0,-4.0,-5.0,4.0,-5.0
1705326553.7871802,-4.0,-21.0,1.0,-3.0,-1.0,-3.0,-2.0,-2.0
1705326553.7871802,4.0,12.0,5.0,1.0,3.0,1.0,10.0,3.0
1705326553.7871802,0.0,-14.0,6.0,3.0,0.0,5.0,-2.0,8.0
1705326553.8072076,-1.0,5.0,3.0,0.0,0.0,-2.0,-6.0,-2.0
1705326553.8072076,-4.0,18.0,-1.0,4.0,2.0,-1.0,2.0,-2.0
1705326553.8072076,-3.0,-14.0,0.0,-3.0,-1.0,0.0,2.0,2.0
1705326553.8072076,-10.0,-9.0,-5.0,-4.0,0.0,-1.0,0.0,-10.0
1705326553.8171787,-9.0,-9.0,23.0,1.0,-1.0,-2.0,-4.0,1.0
1705326553.8171787,-8.0,-73.0,-39.0,-2.0,-2.0,-1.0,-2.0,-11.0
1705326553.8271804,-11.0,-28.0,-11.0,-4.0,-2.0,0.0,-5.0,-4.0
1705326553.8271804,-2.0,-76.0,4.0,-1.0,-1.0,0.0,4.0,-1.0
1705326553.8471773,5.0,61.0,3.0,0.0,1.0,1.0,-1.0,0.0
1705326553.8471773,-11.0,-24.0,1.0,-2.0,0.0,0.0,-3.0,4.0
1705326553.8571782,-4.0,-63.0,-13.0,0.0,-5.0,-4.0,-6.0,-6.0
1705326553.8571782,0.0,22.0,3.0,-2.0,-2.0,-4.0,-1.0,-1.0
1705326553.8672154,-4.0,-38.0,-19.0,-4.0,-1.0,1.0,1.0,-3.0
1705326553.8672154,3.0,34.0,-2.0,-2.0,-1.0,-1.0,-2.0,-3.0
1705326553.8672154,-1.0,3.0,0.0,-1.0,-1.0,-4.0,-1.0,0.0
1705326553.8672154,1.0,38.0,2.0,1.0,0.0,3.0,8.0,10.0
1705326553.8771782,-1.0,0.0,16.0,3.0,1.0,0.0,0.0,-19.0
1705326553.8771782,0.0,5.0,-54.0,-7.0,-4.0,-3.0,-3.0,-17.0
1705326553.8971767,0.0,2.0,-3.0,-1.0,1.0,-2.0,-6.0,-3.0
1705326553.8971767,0.0,12.0,-3.0,-2.0,-1.0,-2.0,1.0,6.0
1705326553.8971767,-3.0,-51.0,-14.0,-1.0,-1.0,-2.0,4.0,-11.0
1705326553.8971767,6.0,-26.0,18.0,0.0,-2.0,-1.0,-1.0,15.0
1705326553.8971767,-5.0,31.0,10.0,0.0,-1.0,1.0,3.0,-1.0
1705326553.8971767,0.0,13.0,-16.0,-3.0,-2.0,-2.0,-17.0,-7.0
1705326553.9277332,-1.0,-22.0,-3.0,1.0,1.0,1.0,2.0,7.0
1705326553.9277332,-2.0,-5.0,21.0,-2.0,-3.0,1.0,4.0,0.0
1705326553.9289582,0.0,-12.0,-4.0,-1.0,-1.0,-1.0,4.0,-1.0
1705326553.9289582,2.0,-12.0,14.0,2.0,0.0,-1.0,1.0,-1.0
1705326553.9408777,1.0,8.0,1.0,-1.0,-2.0,-1.0,-4.0,3.0
1705326553.9408777,-5.0,25.0,-11.0,-4.0,0.0,1.0,-1.0,-1.0
1705326553.9597378,6.0,-42.0,1.0,-3.0,-1.0,-3.0,-9.0,1.0
1705326553.9597378,-1.0,60.0,3.0,3.0,0.0,3.0,1.0,-5.0
1705326553.9599354,-2.0,-23.0,-1.0,-4.0,-3.0,-2.0,-3.0,3.0
1705326553.9599354,-2.0,-43.0,5.0,2.0,1.0,0.0,-2.0,0.0
1705326553.9599354,-3.0,11.0,-1.0,-1.0,0.0,-1.0,2.0,14.0
1705326553.9599354,6.0,-16.0,-5.0,-2.0,-2.0,-3.0,7.0,-22.0
1705326553.980197,2.0,-22.0,-4.0,0.0,1.0,-2.0,-4.0,-5.0
1705326553.980197,4.0,45.0,-13.0,-5.0,-2.0,-5.0,0.0,4.0
1705326553.980197,1.0,-7.0,-4.0,-1.0,0.0,-1.0,1.0,5.0
1705326553.980197,-4.0,-16.0,-6.0,-5.0,-5.0,0.0,-13.0,17.0
1705326553.9999413,-4.0,2.0,7.0,1.0,-1.0,1.0,0.0,2.0
1705326553.9999413,2.0,6.0,8.0,2.0,1.0,-2.0,-4.0,3.0
1705326554.0099456,-4.0,24.0,-3.0,-2.0,-2.0,-1.0,-10.0,-11.0
1705326554.0099456,1.0,12.0,-6.0,-1.0,-2.0,-3.0,-2.0,0.0
1705326554.0199382,-5.0,10.0,6.0,-2.0,-2.0,-1.0,1.0,-6.0
1705326554.0199382,-3.0,43.0,26.0,3.0,-2.0,-1.0,-4.0,1.0
1705326554.0199382,-1.0,2.0,-23.0,-3.0,-1.0,-3.0,3.0,4.0
1705326554.0199382,-2.0,-18.0,11.0,2.0,0.0,-3.0,-1.0,-3.0
1705326554.0499377,0.0,89.0,-23.0,-2.0,2.0,0.0,-5.0,-2.0
1705326554.0499377,2.0,-34.0,12.0,2.0,0.0,1.0,7.0,-4.0
1705326554.0499377,2.0,42.0,15.0,2.0,0.0,2.0,-1.0,3.0
1705326554.0499377,0.0,11.0,-3.0,-2.0,-1.0,0.0,2.0,-2.0
1705326554.0599403,1.0,-28.0,0.0,1.0,-2.0,-1.0,-2.0,3.0
1705326554.0599403,-1.0,-8.0,7.0,-2.0,-2.0,-2.0,-3.0,-1.0
1705326554.0699396,-1.0,-5.0,-7.0,-1.0,-2.0,-1.0,0.0,-9.0
1705326554.0699396,-2.0,-45.0,-4.0,-3.0,0.0,-3.0,-2.0,0.0
1705326554.0799391,6.0,7.0,3.0,0.0,-3.0,-1.0,0.0,2.0
1705326554.0799391,2.0,23.0,-11.0,-4.0,-1.0,-2.0,-2.0,-3.0
1705326554.0799391,-4.0,-24.0,-1.0,-2.0,-2.0,-1.0,-1.0,-1.0
1705326554.0799391,-2.0,-44.0,-5.0,-1.0,0.0,0.0,4.0,-1.0
1705326554.1099381,1.0,59.0,6.0,1.0,-2.0,-1.0,-1.0,-5.0
1705326554.1099381,-3.0,-18.0,16.0,4.0,1.0,-2.0,0.0,-2.0
1705326554.1099381,-2.0,-25.0,-18.0,-2.0,-2.0,-3.0,0.0,-6.0
1705326554.1099381,1.0,12.0,6.0,0.0,0.0,-1.0,-1.0,2.0
1705326554.1199393,-4.0,-24.0,-1.0,0.0,0.0,-1.0,-4.0,3.0
1705326554.1199393,0.0,10.0,-24.0,-2.0,-2.0,0.0,2.0,11.0
1705326554.1299374,-3.0,8.0,13.0,1.0,-2.0,-3.0,-5.0,-31.0
1705326554.1299374,-3.0,8.0,0.0,-1.0,-3.0,-2.0,0.0,4.0
1705326554.1399658,1.0,-21.0,0.0,-2.0,-2.0,-4.0,-2.0,6.0
1705326554.1399658,-2.0,-74.0,6.0,2.0,1.0,2.0,0.0,-1.0
1705326554.1399658,6.0,-72.0,-4.0,0.0,-1.0,1.0,-1.0,10.0
1705326554.1399658,-3.0,-6.0,-15.0,-7.0,-3.0,-1.0,-2.0,-5.0
1705326554.1699405,7.0,15.0,-3.0,0.0,-1.0,-2.0,0.0,-1.0
1705326554.1699405,-2.0,4.0,5.0,-3.0,-3.0,-2.0,-4.0,-7.0
1705326554.1699405,-1.0,-1.0,16.0,1.0,0.0,-1.0,0.0,0.0
1705326554.1699405,-12.0,55.0,1.0,3.0,0.0,0.0,0.0,-4.0
1705326554.1799393,1.0,-28.0,-9.0,-4.0,-3.0,-3.0,-2.0,2.0
1705326554.1799393,-4.0,-15.0,5.0,1.0,-1.0,0.0,0.0,-3.0
1705326554.1899421,-6.0,83.0,17.0,3.0,2.0,1.0,1.0,2.0
1705326554.1899421,2.0,24.0,0.0,-1.0,-3.0,-1.0,0.0,1.0
1705326554.1999388,-4.0,-9.0,-1.0,-1.0,-1.0,0.0,1.0,0.0
1705326554.1999388,-2.0,61.0,10.0,2.0,0.0,-1.0,-2.0,-3.0
1705326554.1999388,0.0,57.0,-4.0,-4.0,-2.0,0.0,0.0,1.0
1705326554.1999388,-5.0,-41.0,-9.0,-1.0,0.0,1.0,-1.0,-4.0
1705326554.2199385,-2.0,-5.0,-4.0,-2.0,-1.0,0.0,-1.0,-1.0
1705326554.2199385,-2.0,26.0,3.0,-2.0,-1.0,-1.0,-3.0,-2.0
1705326554.2199385,2.0,-37.0,8.0,1.0,0.0,-1.0,0.0,0.0
1705326554.2199385,4.0,-1.0,-18.0,-4.0,0.0,-2.0,-1.0,1.0
1705326554.2399392,-3.0,-13.0,7.0,2.0,-1.0,-3.0,-1.0,-3.0
1705326554.2399392,-1.0,-6.0,-6.0,-1.0,0.0,-2.0,0.0,0.0
1705326554.2499392,2.0,-21.0,-3.0,1.0,1.0,-3.0,-2.0,10.0
1705326554.2499392,-1.0,-44.0,17.0,0.0,-2.0,-2.0,-4.0,-5.0
1705326554.259938,-4.0,-83.0,6.0,0.0,-2.0,0.0,-2.0,-1.0
1705326554.259938,-1.0,11.0,0.0,-3.0,-1.0,2.0,2.0,-2.0
1705326554.259938,-1.0,4.0,-7.0,-2.0,-3.0,-1.0,-2.0,5.0
1705326554.259938,2.0,-10.0,-1.0,0.0,-1.0,1.0,0.0,-2.0
1705326554.2899406,-2.0,-20.0,2.0,3.0,-1.0,-2.0,-1.0,-2.0
1705326554.2899406,-1.0,-6.0,9.0,0.0,0.0,-2.0,-2.0,2.0
1705326554.2899406,-2.0,-25.0,-12.0,-2.0,-1.0,0.0,-2.0,-2.0
1705326554.2899406,0.0,16.0,-1.0,-5.0,-2.0,-1.0,1.0,-1.0
1705326554.2999473,-3.0,-7.0,-11.0,-3.0,0.0,-2.0,-1.0,-4.0
1705326554.2999473,3.0,-8.0,-7.0,-1.0,-2.0,-4.0,-3.0,-2.0
1705326554.309939,-2.0,50.0,0.0,1.0,0.0,2.0,0.0,-2.0
1705326554.309939,0.0,-3.0,0.0,4.0,-3.0,-2.0,0.0,-3.0
1705326554.3199427,-5.0,7.0,-10.0,-4.0,1.0,1.0,1.0,2.0
1705326554.3199427,-3.0,4.0,2.0,0.0,0.0,0.0,-1.0,-4.0
1705326554.3299396,-1.0,-43.0,-21.0,-6.0,-5.0,-4.0,-2.0,-4.0
1705326554.3299396,-10.0,83.0,19.0,0.0,-1.0,-1.0,1.0,2.0
1705326554.3399396,0.0,6.0,-4.0,-2.0,-3.0,-1.0,0.0,-2.0
1705326554.3399396,0.0,-17.0,-8.0,2.0,2.0,0.0,0.0,-1.0
1705326554.3399396,0.0,-13.0,-8.0,-2.0,-1.0,-1.0,-2.0,-1.0
1705326554.3399396,5.0,27.0,3.0,4.0,2.0,1.0,1.0,-1.0
1705326554.359939,1.0,-12.0,-1.0,-3.0,-5.0,-3.0,-3.0,-2.0
1705326554.359939,-1.0,3.0,-3.0,-3.0,-1.0,-1.0,0.0,-3.0
1705326554.3699446,-1.0,9.0,4.0,0.0,0.0,-2.0,0.0,-1.0
1705326554.3699446,1.0,-24.0,-11.0,-4.0,-1.0,-1.0,-2.0,1.0
1705326554.3799412,-2.0,12.0,-3.0,2.0,0.0,0.0,0.0,1.0
1705326554.3799412,0.0,-20.0,4.0,-1.0,-3.0,-5.0,-3.0,-2.0
1705326554.3999388,-7.0,-42.0,-8.0,-4.0,1.0,-1.0,-1.0,-3.0
1705326554.3999388,2.0,-45.0,-6.0,-2.0,0.0,-1.0,-3.0,-1.0
1705326554.3999388,2.0,66.0,-8.0,3.0,2.0,-1.0,-1.0,1.0
1705326554.3999388,-3.0,-3.0,-3.0,-2.0,-2.0,0.0,1.0,0.0
1705326554.3999388,1.0,-25.0,2.0,1.0,-1.0,-1.0,-2.0,-2.0
1705326554.3999388,1.0,35.0,3.0,1.0,-2.0,-2.0,0.0,0.0
1705326554.4299393,-6.0,3.0,3.0,1.0,-1.0,1.0,0.0,0.0
1705326554.4299393,0.0,-4.0,-12.0,-7.0,-3.0,-2.0,-3.0,-2.0
1705326554.4299393,-5.0,-60.0,1.0,-2.0,0.0,-2.0,-1.0,-4.0
1705326554.4299393,-2.0,-29.0,-9.0,1.0,4.0,0.0,-1.0,1.0
1705326554.4399369,1.0,-20.0,4.0,-3.0,-4.0,-3.0,1.0,-2.0
1705326554.4399369,-7.0,-6.0,-1.0,3.0,-1.0,0.0,-4.0,-2.0
1705326554.4499376,-4.0,65.0,7.0,3.0,1.0,-2.0,-2.0,0.0
1705326554.4499376,2.0,-11.0,9.0,-1.0,-2.0,-2.0,0.0,-3.0
1705326554.4680135,-2.0,1.0,-1.0,-2.0,-1.0,-2.0,-2.0,-2.0
1705326554.4680135,-1.0,-29.0,-6.0,-3.0,-2.0,-3.0,-1.0,-1.0
1705326554.4689772,6.0,31.0,2.0,-1.0,-3.0,-2.0,1.0,1.0
1705326554.4689772,-2.0,-4.0,-1.0,0.0,-1.0,0.0,-1.0,-1.0
1705326554.4904392,2.0,8.0,6.0,-1.0,1.0,1.0,-1.0,1.0
1705326554.4904392,-3.0,-74.0,10.0,1.0,-1.0,-1.0,-2.0,-3.0
1705326554.4914417,3.0,-10.0,-13.0,-10.0,-1.0,1.0,0.0,-1.0
1705326554.4914417,-7.0,-18.0,-10.0,0.0,-1.0,0.0,-2.0,-1.0
1705326554.502806,1.0,-56.0,-4.0,-3.0,-3.0,-2.0,-2.0,-2.0
1705326554.502806,6.0,78.0,20.0,13.0,1.0,3.0,2.0,1.0
1705326554.512807,-3.0,-10.0,-1.0,-7.0,2.0,-3.0,-2.0,-3.0
1705326554.512807,2.0,-23.0,-19.0,-7.0,-4.0,-3.0,-3.0,-1.0
1705326554.5228093,2.0,-11.0,3.0,-1.0,1.0,0.0,0.0,1.0
1705326554.5228093,3.0,-38.0,5.0,2.0,-1.0,1.0,0.0,-1.0
1705326554.5228093,7.0,37.0,7.0,-4.0,-5.0,-2.0,-1.0,2.0
1705326554.5228093,2.0,6.0,7.0,-3.0,-4.0,-3.0,-2.0,0.0
1705326554.5428395,-2.0,-1.0,-4.0,-2.0,-1.0,-1.0,-1.0,-3.0
1705326554.5428395,0.0,-11.0,-10.0,2.0,2.0,-2.0,1.0,0.0
1705326554.5528057,-4.0,-78.0,-9.0,2.0,0.0,-3.0,-3.0,-5.0
1705326554.5528057,0.0,-1.0,-6.0,-5.0,-4.0,-2.0,-2.0,-2.0
1705326554.562808,1.0,19.0,3.0,-4.0,-6.0,-3.0,-1.0,2.0
1705326554.562808,-2.0,23.0,-6.0,-7.0,0.0,-1.0,0.0,-1.0
1705326554.562808,0.0,-25.0,0.0,3.0,-2.0,0.0,-1.0,-1.0
1705326554.562808,-1.0,4.0,-2.0,0.0,1.0,-1.0,-3.0,-2.0
1705326554.5928435,-3.0,-12.0,-4.0,7.0,0.0,-2.0,-4.0,-3.0
1705326554.5928435,0.0,-9.0,-13.0,-8.0,-3.0,2.0,0.0,-3.0
1705326554.5928435,-4.0,-53.0,-16.0,-18.0,-4.0,-3.0,-2.0,-1.0
1705326554.5928435,8.0,0.0,17.0,12.0,4.0,0.0,0.0,0.0
1705326554.6128068,0.0,30.0,8.0,6.0,3.0,2.0,0.0,-2.0
1705326554.6128068,-3.0,5.0,-6.0,-8.0,-6.0,-5.0,-4.0,-2.0
1705326554.6228065,-5.0,76.0,16.0,19.0,-2.0,4.0,0.0,-2.0
1705326554.6228065,-5.0,-17.0,-4.0,6.0,11.0,6.0,6.0,3.0
1705326554.6228065,-4.0,-27.0,-4.0,-7.0,0.0,-1.0,-2.0,-1.0
1705326554.6228065,1.0,15.0,-5.0,-2.0,-2.0,-2.0,-3.0,-1.0
1705326554.6228065,-1.0,-33.0,-7.0,-2.0,-7.0,-7.0,-5.0,-2.0
1705326554.6228065,-5.0,6.0,-1.0,-8.0,-8.0,-4.0,-2.0,-5.0
1705326554.6428056,2.0,35.0,8.0,3.0,2.0,0.0,2.0,-1.0
1705326554.6428056,-2.0,34.0,-5.0,-6.0,-6.0,-1.0,-1.0,0.0
1705326554.6428056,1.0,-7.0,6.0,6.0,2.0,-1.0,0.0,-1.0
1705326554.6428056,-3.0,18.0,-1.0,4.0,3.0,0.0,-4.0,1.0
1705326554.6628375,0.0,-16.0,-7.0,-7.0,2.0,1.0,6.0,1.0
1705326554.6628375,-1.0,-19.0,8.0,2.0,-2.0,-1.0,-1.0,-1.0
1705326554.682809,-3.0,19.0,10.0,-4.0,1.0,2.0,0.0,0.0
1705326554.682809,-2.0,36.0,-12.0,-3.0,-6.0,-1.0,-4.0,-1.0
1705326554.682809,-9.0,25.0,-3.0,-5.0,-2.0,-1.0,-3.0,-3.0
1705326554.682809,2.0,35.0,-7.0,-11.0,0.0,0.0,1.0,1.0
1705326554.6928067,2.0,13.0,15.0,7.0,2.0,1.0,1.0,0.0
1705326554.6928067,-3.0,-15.0,-2.0,3.0,0.0,0.0,1.0,-1.0
1705326554.7028086,-2.0,-32.0,6.0,3.0,1.0,-6.0,-3.0,0.0
1705326554.7028086,-4.0,-13.0,-15.0,-3.0,1.0,-1.0,-2.0,-1.0
1705326554.7028086,-1.0,-59.0,-3.0,2.0,-2.0,-3.0,-4.0,0.0
1705326554.7028086,1.0,-38.0,-3.0,-8.0,1.0,1.0,-1.0,-2.0
1705326554.7328064,5.0,6.0,0.0,4.0,3.0,4.0,3.0,2.0
1705326554.7328064,-1.0,-23.0,-4.0,-4.0,0.0,-2.0,-1.0,0.0
1705326554.7328064,6.0,37.0,3.0,-3.0,-2.0,-1.0,-1.0,0.0
1705326554.7328064,0.0,17.0,4.0,4.0,-2.0,-4.0,-2.0,0.0
1705326554.7428071,-5.0,-9.0,0.0,-4.0,-2.0,-1.0,-2.0,-2.0
1705326554.7428071,-3.0,-23.0,4.0,-1.0,3.0,2.0,1.0,-3.0
1705326554.752808,0.0,9.0,-29.0,-10.0,-3.0,-3.0,0.0,0.0
1705326554.752808,-1.0,-7.0,5.0,-1.0,0.0,1.0,2.0,1.0
1705326554.7628078,-3.0,9.0,-4.0,-4.0,-2.0,-2.0,-2.0,-1.0
1705326554.7628078,2.0,30.0,13.0,4.0,-1.0,-2.0,-2.0,-2.0
1705326554.7628078,-1.0,13.0,-11.0,0.0,1.0,2.0,1.0,-2.0
1705326554.7628078,-3.0,-81.0,-4.0,-4.0,-3.0,-2.0,-2.0,-4.0
1705326554.792847,2.0,-3.0,-5.0,-6.0,-6.0,-1.0,-3.0,1.0
1705326554.792847,1.0,-5.0,4.0,3.0,0.0,-3.0,-1.0,0.0
1705326554.792847,-4.0,18.0,8.0,0.0,0.0,0.0,1.0,-3.0
1705326554.792847,-4.0,-17.0,-2.0,0.0,0.0,-2.0,-3.0,-3.0
1705326554.802815,-1.0,-48.0,2.0,-4.0,-4.0,-3.0,-2.0,-3.0
1705326554.802815,-2.0,53.0,-3.0,4.0,3.0,4.0,2.0,-1.0
1705326554.8128068,-2.0,-4.0,-14.0,-3.0,-1.0,-1.0,-2.0,1.0
1705326554.8128068,-4.0,-17.0,8.0,1.0,-1.0,-1.0,-2.0,-3.0
1705326554.8228106,6.0,75.0,10.0,-1.0,-1.0,-3.0,-2.0,-2.0
1705326554.8228106,-4.0,-10.0,-3.0,-4.0,-1.0,-2.0,-3.0,-2.0
1705326554.8228106,-4.0,-12.0,2.0,2.0,-1.0,-3.0,-1.0,-2.0
1705326554.8228106,0.0,21.0,7.0,-5.0,-3.0,0.0,-2.0,0.0
1705326554.8428075,-4.0,-15.0,-7.0,1.0,0.0,0.0,-2.0,0.0
1705326554.8428075,-2.0,-24.0,2.0,0.0,-2.0,-2.0,-2.0,-3.0
1705326554.8428075,0.0,-7.0,7.0,1.0,1.0,-3.0,-4.0,-1.0
1705326554.8428075,0.0,-19.0,-6.0,-7.0,-7.0,-2.0,0.0,-1.0
1705326554.8628497,-1.0,8.0,5.0,4.0,3.0,1.0,2.0,-3.0
1705326554.8628497,1.0,-10.0,-6.0,-6.0,-5.0,-2.0,-1.0,0.0
1705326554.8728075,-5.0,-19.0,-1.0,-4.0,-3.0,0.0,0.0,-1.0
1705326554.8728075,0.0,18.0,4.0,2.0,0.0,-2.0,0.0,0.0
1705326554.8828058,-6.0,-6.0,-7.0,-3.0,-1.0,-1.0,-2.0,-3.0
1705326554.8828058,0.0,-7.0,-7.0,1.0,0.0,-1.0,1.0,0.0
1705326554.8828058,1.0,3.0,7.0,1.0,0.0,0.0,-1.0,0.0
1705326554.8828058,7.0,90.0,6.0,-4.0,-3.0,0.0,0.0,4.0
1705326554.912805,4.0,8.0,0.0,-1.0,-4.0,-2.0,-3.0,-1.0
1705326554.912805,-1.0,-11.0,4.0,3.0,0.0,-1.0,1.0,-1.0
1705326554.912805,5.0,17.0,5.0,-6.0,-3.0,-2.0,-1.0,1.0
1705326554.912805,-2.0,24.0,-2.0,1.0,0.0,-2.0,0.0,-2.0
1705326554.9228086,0.0,-21.0,-3.0,-3.0,-3.0,-1.0,-1.0,2.0
1705326554.9228086,-2.0,6.0,1.0,2.0,-1.0,-2.0,0.0,-1.0
1705326554.932807,-1.0,8.0,-5.0,2.0,2.0,1.0,-1.0,-1.0
1705326554.932807,-3.0,-12.0,-5.0,-1.0,0.0,0.0,-1.0,-1.0
1705326554.9528089,2.0,8.0,-1.0,-1.0,-1.0,-2.0,0.0,1.0
1705326554.9528089,-2.0,-19.0,-2.0,1.0,-2.0,-1.0,-2.0,-2.0
1705326554.9528089,-6.0,9.0,-1.0,3.0,3.0,1.0,-1.0,-3.0
1705326554.9528089,0.0,-59.0,-6.0,-3.0,-1.0,-2.0,-3.0,-3.0
1705326554.9628067,4.0,50.0,9.0,0.0,-2.0,-3.0,-1.0,1.0
1705326554.9628067,2.0,5.0,-11.0,0.0,0.0,0.0,-1.0,1.0
1705326554.9628067,-4.0,-25.0,-5.0,-1.0,-1.0,-4.0,-4.0,-4.0
1705326554.9628067,-1.0,-17.0,-8.0,-4.0,-2.0,-2.0,0.0,-1.0
1705326554.9840548,-3.0,-9.0,4.0,-2.0,-1.0,0.0,-2.0,-1.0
1705326554.9840548,0.0,-5.0,-2.0,2.0,-2.0,-2.0,-1.0,-2.0
1705326554.9922175,0.0,4.0,-4.0,2.0,-1.0,-1.0,0.0,0.0
1705326554.9932172,1.0,-10.0,0.0,3.0,-1.0,0.0,-3.0,0.0
1705326555.00887,3.0,-10.0,-3.0,-3.0,-2.0,1.0,0.0,-1.0
1705326555.00887,-1.0,-42.0,-4.0,-5.0,-3.0,-2.0,-3.0,0.0
1705326555.00887,7.0,68.0,9.0,-3.0,0.0,0.0,2.0,3.0
1705326555.00887,-1.0,17.0,13.0,1.0,0.0,3.0,-2.0,-2.0
1705326555.0288746,-1.0,-17.0,-16.0,-5.0,1.0,1.0,-1.0,-1.0
1705326555.0288746,0.0,2.0,0.0,-1.0,-2.0,-2.0,-1.0,-2.0
1705326555.0288746,0.0,-29.0,-7.0,-2.0,-4.0,-3.0,-3.0,-1.0
1705326555.0288746,2.0,2.0,-2.0,0.0,-2.0,1.0,2.0,2.0
1705326555.0389068,-2.0,5.0,6.0,2.0,-2.0,-4.0,-3.0,0.0
1705326555.0389068,-2.0,15.0,4.0,2.0,2.0,1.0,0.0,-1.0
1705326555.048873,-2.0,78.0,11.0,0.0,-1.0,0.0,-1.0,1.0
1705326555.048873,-4.0,-6.0,-5.0,-1.0,-1.0,-2.0,-1.0,-2.0
1705326555.0688732,-12.0,32.0,-9.0,-1.0,3.0,1.0,-1.0,-3.0
1705326555.0688732,0.0,8.0,10.0,0.0,-1.0,-1.0,-3.0,0.0
1705326555.0688732,0.0,-32.0,-13.0,-1.0,-3.0,0.0,0.0,-1.0
1705326555.0688732,0.0,5.0,4.0,-1.0,-1.0,0.0,-1.0,-1.0
1705326555.0889146,-2.0,-25.0,-5.0,1.0,-3.0,0.0,-3.0,-2.0
1705326555.0889146,-4.0,-9.0,-1.0,-3.0,1.0,-2.0,-2.0,-2.0
1705326555.0889146,-1.0,-12.0,0.0,-6.0,-2.0,-2.0,-1.0,0.0
1705326555.0889146,0.0,2.0,11.0,-4.0,-2.0,-2.0,-1.0,-1.0
1705326555.0988724,0.0,-29.0,-23.0,0.0,-2.0,-2.0,-2.0,0.0
1705326555.0988724,2.0,-2.0,4.0,1.0,0.0,1.0,2.0,0.0
1705326555.1088767,-1.0,-38.0,5.0,-3.0,-4.0,-3.0,-3.0,-2.0
1705326555.1088767,4.0,85.0,3.0,-1.0,-2.0,0.0,1.0,2.0
1705326555.1188736,-1.0,0.0,7.0,-1.0,-2.0,-3.0,-2.0,-1.0
1705326555.1188736,-5.0,-49.0,-17.0,-1.0,-2.0,-1.0,-3.0,-4.0
1705326555.1289003,1.0,32.0,7.0,-1.0,1.0,1.0,0.0,1.0
1705326555.1289003,-2.0,-23.0,-13.0,1.0,-1.0,-1.0,-2.0,-1.0
1705326555.148913,0.0,1.0,5.0,1.0,-1.0,0.0,2.0,2.0
1705326555.148913,0.0,3.0,7.0,7.0,3.0,1.0,-1.0,-1.0
1705326555.148913,0.0,-43.0,-8.0,-6.0,-2.0,-1.0,1.0,-1.0
1705326555.148913,2.0,-1.0,-15.0,-14.0,-6.0,-4.0,-2.0,-1.0
1705326555.1589086,1.0,8.0,0.0,0.0,-1.0,0.0,-1.0,-1.0
1705326555.1589086,-2.0,-9.0,-9.0,-5.0,-2.0,-2.0,-2.0,-2.0
1705326555.1788714,0.0,8.0,6.0,7.0,-1.0,-3.0,-1.0,-2.0
1705326555.1788714,-1.0,-1.0,8.0,-1.0,0.0,1.0,1.0,-2.0
1705326555.1788714,-3.0,-23.0,-20.0,-6.0,-2.0,-1.0,1.0,-4.0
1705326555.1788714,3.0,-2.0,18.0,-2.0,-5.0,-2.0,-1.0,2.0
1705326555.1888719,2.0,-33.0,-10.0,-1.0,-2.0,-1.0,0.0,-1.0
1705326555.1888719,-1.0,-46.0,-11.0,1.0,-1.0,-3.0,-2.0,-1.0
1705326555.2088733,0.0,35.0,-4.0,-3.0,-1.0,-3.0,-4.0,-2.0
1705326555.2088733,-2.0,6.0,-8.0,-3.0,0.0,-2.0,-2.0,-1.0
1705326555.2088733,-4.0,-25.0,1.0,3.0,-1.0,1.0,-1.0,-4.0
1705326555.2088733,-3.0,-25.0,8.0,3.0,0.0,-1.0,-2.0,-1.0
1705326555.2188725,0.0,-12.0,5.0,0.0,-1.0,-1.0,1.0,-1.0
1705326555.2188725,-1.0,27.0,1.0,-3.0,-3.0,-3.0,1.0,0.0
1705326555.2288806,1.0,13.0,-2.0,-4.0,0.0,-1.0,-1.0,2.0
1705326555.2288806,-2.0,24.0,-9.0,1.0,3.0,0.0,-1.0,-4.0
1705326555.2388725,2.0,-12.0,6.0,-5.0,1.0,1.0,-1.0,-2.0
1705326555.2388725,0.0,67.0,6.0,1.0,0.0,1.0,1.0,0.0
1705326555.248907,-2.0,3.0,7.0,-2.0,-3.0,-1.0,0.0,0.0
1705326555.248907,-2.0,-10.0,-10.0,-1.0,-2.0,-3.0,-1.0,0.0
1705326555.2689147,1.0,-12.0,23.0,-1.0,0.0,0.0,-1.0,1.0
1705326555.2689147,-1.0,9.0,-9.0,0.0,-1.0,1.0,1.0,-2.0
1705326555.2689147,-3.0,-20.0,-15.0,-6.0,-1.0,0.0,-1.0,-3.0
1705326555.2689147,-1.0,-2.0,1.0,-3.0,-1.0,0.0,-1.0,-1.0
1705326555.2788756,1.0,28.0,4.0,3.0,-2.0,-2.0,1.0,-1.0
1705326555.2788756,-4.0,48.0,-1.0,1.0,1.0,-1.0,-1.0,1.0
1705326555.2988725,-2.0,0.0,16.0,2.0,-2.0,-2.0,-4.0,-1.0
1705326555.2988725,-2.0,-11.0,1.0,-4.0,-3.0,-3.0,-1.0,-1.0
1705326555.2988725,-1.0,-38.0,-3.0,-1.0,-1.0,0.0,-1.0,-1.0
1705326555.2988725,2.0,63.0,7.0,1.0,0.0,2.0,1.0,0.0
1705326555.3089106,0.0,3.0,-4.0,-2.0,0.0,1.0,0.0,-1.0
1705326555.3089106,0.0,0.0,5.0,1.0,1.0,0.0,0.0,0.0
1705326555.328906,-1.0,-27.0,-22.0,-1.0,-3.0,-3.0,-2.0,0.0
1705326555.328906,-1.0,-37.0,2.0,-4.0,-2.0,-4.0,-5.0,-2.0
1705326555.328906,-2.0,3.0,-10.0,-2.0,0.0,0.0,1.0,-2.0
1705326555.328906,-3.0,24.0,7.0,-2.0,-2.0,-2.0,-1.0,-2.0
1705326555.348872,-7.0,-1.0,2.0,3.0,1.0,-1.0,0.0,-2.0
1705326555.348872,-1.0,-32.0,0.0,-3.0,-2.0,-2.0,-1.0,0.0
1705326555.348872,2.0,26.0,-7.0,-3.0,-2.0,-1.0,-3.0,1.0
1705326555.348872,2.0,-5.0,0.0,-2.0,-3.0,-2.0,-2.0,-3.0
1705326555.3588753,0.0,28.0,1.0,-2.0,-3.0,-2.0,0.0,1.0
1705326555.3588753,-2.0,-53.0,-9.0,0.0,-2.0,-2.0,-1.0,-3.0
1705326555.3688748,-3.0,-22.0,7.0,1.0,-1.0,0.0,0.0,0.0
1705326555.3688748,0.0,-16.0,-44.0,-6.0,-1.0,-4.0,-1.0,-1.0
1705326555.3888738,-3.0,28.0,17.0,4.0,1.0,1.0,0.0,-1.0
1705326555.398872,2.0,-2.0,-5.0,0.0,-3.0,1.0,1.0,-1.0
1705326555.398872,-1.0,3.0,-8.0,-2.0,-2.0,-2.0,1.0,-1.0
1705326555.398872,3.0,1.0,12.0,0.0,-3.0,-2.0,-1.0,-1.0
1705326555.4088733,2.0,-26.0,-6.0,1.0,1.0,-1.0,0.0,-1.0
1705326555.4088733,-3.0,-21.0,3.0,-1.0,-1.0,-1.0,-2.0,-1.0
1705326555.4088733,0.0,5.0,-6.0,0.0,-1.0,1.0,0.0,-1.0
1705326555.4088733,-3.0,-5.0,5.0,-1.0,-1.0,-2.0,0.0,-2.0
1705326555.4189112,1.0,-11.0,-4.0,-2.0,-1.0,-2.0,0.0,-1.0
1705326555.4189112,-2.0,0.0,6.0,2.0,0.0,0.0,-1.0,-2.0
1705326555.4289021,-1.0,-4.0,3.0,-4.0,-3.0,0.0,2.0,-1.0
1705326555.4289021,-2.0,-7.0,-11.0,-1.0,-1.0,-1.0,0.0,-1.0
1705326555.4488745,1.0,57.0,15.0,2.0,-3.0,1.0,0.0,0.0
1705326555.4488745,-2.0,15.0,3.0,0.0,1.0,0.0,3.0,-1.0
1705326555.4588797,-3.0,-10.0,3.0,0.0,-1.0,-5.0,-4.0,-1.0
1705326555.4588797,-1.0,-1.0,13.0,1.0,1.0,3.0,-1.0,-1.0
1705326555.468906,0.0,-13.0,-20.0,-4.0,-3.0,-3.0,-3.0,-2.0
1705326555.468906,1.0,-13.0,-5.0,-3.0,-2.0,-3.0,-3.0,-1.0
1705326555.468906,1.0,8.0,6.0,0.0,-2.0,0.0,-4.0,0.0
1705326555.468906,-2.0,7.0,11.0,5.0,2.0,0.0,2.0,0.0
1705326555.4789143,-6.0,-34.0,-10.0,-9.0,-2.0,-1.0,-2.0,-4.0
1705326555.4789143,0.0,-3.0,-4.0,-2.0,-3.0,-2.0,-1.0,-1.0
1705326555.4888768,-2.0,10.0,-4.0,-2.0,-1.0,-3.0,-1.0,-1.0
1705326555.4888768,1.0,-18.0,13.0,2.0,-1.0,0.0,-1.0,1.0
1705326555.508908,3.0,62.0,-3.0,0.0,1.0,1.0,1.0,0.0
1705326555.508908,-2.0,-1.0,2.0,-1.0,-2.0,0.0,-1.0,-1.0
1705326555.508908,0.0,-10.0,3.0,1.0,-1.0,1.0,0.0,0.0
1705326555.508908,-3.0,-37.0,0.0,1.0,2.0,3.0,-2.0,-3.0
1705326555.533366,-2.0,-11.0,-9.0,-1.0,-1.0,1.0,-2.0,-1.0
1705326555.533366,0.0,-7.0,-18.0,-7.0,-4.0,-3.0,-2.0,-2.0
1705326555.5343664,-1.0,15.0,9.0,3.0,-1.0,-4.0,-1.0,0.0
1705326555.5343664,-2.0,-1.0,-13.0,-5.0,-4.0,-3.0,0.0,-1.0
1705326555.5417933,-3.0,-33.0,-1.0,0.0,-1.0,-3.0,-2.0,-2.0
1705326555.5417933,-4.0,1.0,-3.0,2.0,1.0,0.0,-1.0,-2.0
1705326555.5517983,0.0,-49.0,11.0,-1.0,0.0,-2.0,-1.0,-2.0
1705326555.5517983,-2.0,16.0,-24.0,-5.0,-3.0,-1.0,-2.0,0.0
1705326555.5617979,-2.0,-50.0,-15.0,-3.0,-2.0,-3.0,0.0,-3.0
1705326555.571798,2.0,46.0,15.0,-1.0,-2.0,1.0,2.0,1.0
1705326555.5817993,-1.0,-6.0,-3.0,-2.0,1.0,-2.0,0.0,-2.0
1705326555.5817993,-1.0,5.0,3.0,2.0,0.0,-1.0,1.0,-1.0
1705326555.5917957,3.0,-7.0,6.0,-1.0,-1.0,1.0,-2.0,0.0
1705326555.5917957,-2.0,-28.0,-2.0,-2.0,1.0,1.0,-1.0,-1.0
1705326555.5917957,-1.0,-48.0,-29.0,-4.0,-2.0,-2.0,-2.0,-1.0
1705326555.5917957,-1.0,24.0,9.0,-3.0,-3.0,-1.0,-2.0,0.0
1705326555.6017964,-1.0,3.0,-1.0,-2.0,0.0,-3.0,-1.0,1.0
1705326555.6017964,0.0,-10.0,-2.0,-1.0,-2.0,0.0,-1.0,-1.0
1705326555.6217978,-1.0,13.0,5.0,0.0,0.0,-1.0,0.0,-1.0
1705326555.6217978,0.0,-37.0,2.0,0.0,1.0,-1.0,-4.0,-1.0
1705326555.6217978,-4.0,-3.0,12.0,1.0,2.0,2.0,6.0,-3.0
1705326555.6217978,-3.0,-4.0,-5.0,-3.0,0.0,-2.0,-5.0,-2.0
1705326555.6317966,0.0,14.0,-9.0,-1.0,-2.0,-1.0,1.0,-1.0
1705326555.6317966,-2.0,0.0,15.0,0.0,-1.0,-1.0,-3.0,-2.0
1705326555.6517992,2.0,52.0,5.0,3.0,-2.0,-1.0,2.0,1.0
1705326555.6517992,-2.0,29.0,0.0,-1.0,0.0,-1.0,-1.0,0.0
1705326555.6517992,-2.0,7.0,0.0,1.0,-2.0,0.0,-1.0,0.0
1705326555.6517992,1.0,20.0,5.0,1.0,-1.0,-2.0,0.0,1.0
1705326555.661828,-1.0,-23.0,-20.0,-9.0,-4.0,-3.0,-5.0,0.0
1705326555.661828,-3.0,-20.0,-1.0,-2.0,0.0,-1.0,-1.0,0.0
1705326555.6817966,-1.0,8.0,-1.0,-1.0,-3.0,-1.0,-1.0,-2.0
1705326555.6817966,-1.0,2.0,3.0,1.0,-1.0,-1.0,0.0,-4.0
1705326555.6817966,-3.0,10.0,4.0,1.0,-2.0,-2.0,-3.0,-2.0
1705326555.6817966,-1.0,-18.0,-2.0,-1.0,-1.0,1.0,1.0,6.0
1705326555.6917987,-2.0,0.0,1.0,-4.0,-2.0,-3.0,-3.0,-17.0
1705326555.6917987,-1.0,-23.0,-30.0,-6.0,-2.0,-4.0,-4.0,-2.0
1705326555.7117968,-4.0,-26.0,4.0,-5.0,-2.0,-1.0,-2.0,-3.0
1705326555.7117968,1.0,-11.0,0.0,2.0,1.0,-1.0,0.0,0.0
1705326555.7117968,2.0,62.0,14.0,1.0,-1.0,2.0,1.0,6.0
1705326555.7117968,-2.0,3.0,-20.0,-1.0,-1.0,-1.0,7.0,-1.0
1705326555.7218382,-2.0,-11.0,-4.0,-1.0,-1.0,-2.0,-14.0,-3.0
1705326555.7218382,-1.0,0.0,0.0,-3.0,-4.0,-4.0,1.0,-1.0
1705326555.7318308,-3.0,-23.0,10.0,0.0,1.0,-1.0,3.0,5.0
1705326555.7318308,4.0,3.0,-25.0,-2.0,0.0,0.0,-1.0,-3.0
1705326555.7417963,2.0,1.0,-1.0,-1.0,0.0,0.0,4.0,7.0
1705326555.7417963,-3.0,-29.0,-8.0,-2.0,-2.0,-1.0,-5.0,-4.0
1705326555.7517989,-2.0,45.0,22.0,0.0,1.0,-1.0,-1.0,3.0
1705326555.7517989,2.0,20.0,3.0,0.0,-2.0,-3.0,-1.0,2.0
1705326555.772193,-2.0,-8.0,0.0,-3.0,-2.0,-3.0,-2.0,2.0
1705326555.772193,-9.0,-29.0,-2.0,3.0,1.0,1.0,-3.0,-5.0
1705326555.772193,-5.0,-95.0,-20.0,-3.0,-1.0,-3.0,-3.0,-4.0
1705326555.772193,-7.0,-10.0,9.0,0.0,2.0,1.0,-1.0,-1.0
1705326555.7917962,0.0,-6.0,-5.0,0.0,-1.0,-1.0,0.0,-3.0
1705326555.7917962,2.0,-7.0,4.0,-2.0,0.0,-1.0,-1.0,-2.0
1705326555.7917962,1.0,-10.0,-16.0,-2.0,-1.0,-1.0,-3.0,-1.0
1705326555.7917962,-4.0,-2.0,7.0,0.0,-1.0,-1.0,-1.0,-1.0
1705326555.8018353,-2.0,-11.0,-1.0,0.0,-2.0,1.0,-1.0,-3.0
1705326555.8018353,-1.0,21.0,-9.0,-1.0,-1.0,-2.0,-2.0,-2.0
1705326555.8117957,-1.0,9.0,-3.0,-1.0,-1.0,0.0,-2.0,1.0
1705326555.8117957,3.0,5.0,16.0,-1.0,-2.0,0.0,-3.0,2.0
1705326555.831796,2.0,23.0,-20.0,-4.0,-2.0,-2.0,1.0,0.0
1705326555.831796,1.0,7.0,13.0,-1.0,-4.0,-3.0,1.0,0.0
1705326555.831796,0.0,-2.0,-10.0,-1.0,0.0,0.0,0.0,-1.0
1705326555.831796,1.0,-2.0,2.0,1.0,-2.0,-2.0,-2.0,-1.0
1705326555.8517976,-4.0,-37.0,4.0,-1.0,1.0,0.0,2.0,-3.0
1705326555.8517976,-1.0,5.0,-22.0,-3.0,-1.0,-2.0,-5.0,-1.0
1705326555.8517976,2.0,3.0,2.0,-2.0,-2.0,-2.0,-1.0,0.0
1705326555.8517976,-1.0,1.0,7.0,-3.0,-1.0,2.0,0.0,1.0
1705326555.8618038,-1.0,-41.0,7.0,-1.0,-3.0,-2.0,2.0,4.0
1705326555.8618038,-1.0,-4.0,-11.0,-3.0,-1.0,-2.0,-1.0,-17.0
1705326555.8717957,1.0,29.0,4.0,0.0,-2.0,-2.0,-1.0,-1.0
1705326555.8717957,0.0,7.0,-11.0,-2.0,0.0,-2.0,-2.0,1.0
1705326555.891797,-1.0,8.0,14.0,2.0,-1.0,-1.0,0.0,2.0
1705326555.891797,-3.0,2.0,3.0,1.0,0.0,0.0,2.0,6.0
1705326555.891797,-1.0,-7.0,-6.0,-1.0,0.0,0.0,-1.0,-8.0
1705326555.891797,0.0,-8.0,-1.0,0.0,-2.0,-3.0,-2.0,-4.0
1705326555.9017968,-4.0,64.0,17.0,5.0,2.0,1.0,-1.0,-5.0
1705326555.9017968,1.0,-3.0,-3.0,1.0,-2.0,-2.0,0.0,1.0
1705326555.9217975,-3.0,-1.0,-9.0,-1.0,-1.0,-1.0,-3.0,1.0
1705326555.9217975,2.0,27.0,8.0,-1.0,-1.0,-2.0,-2.0,1.0
1705326555.9217975,1.0,-41.0,-8.0,-2.0,0.0,-1.0,-2.0,-5.0
1705326555.9217975,0.0,7.0,-1.0,-2.0,-2.0,0.0,-1.0,1.0
1705326555.9317975,-2.0,3.0,3.0,0.0,-2.0,1.0,2.0,0.0
1705326555.9317975,-4.0,-5.0,-6.0,-1.0,1.0,-2.0,1.0,0.0
1705326555.9518418,0.0,-2.0,5.0,-2.0,-4.0,-2.0,-9.0,-1.0
1705326555.9518418,-1.0,-1.0,-7.0,-3.0,0.0,-2.0,0.0,-1.0
1705326555.9518418,-1.0,19.0,4.0,-1.0,-1.0,-2.0,0.0,0.0
1705326555.9518418,-5.0,-12.0,-10.0,-1.0,0.0,2.0,2.0,-2.0
1705326555.9618335,-3.0,-8.0,3.0,3.0,-2.0,-2.0,-1.0,-2.0
1705326555.9618335,5.0,33.0,18.0,0.0,-1.0,-2.0,-2.0,-6.0
1705326555.971803,-1.0,-3.0,-16.0,-3.0,-2.0,-1.0,-3.0,-1.0
1705326555.971803,-1.0,-6.0,-6.0,-2.0,-3.0,-2.0,-2.0,0.0
1705326555.9917953,0.0,1.0,18.0,-2.0,-2.0,-1.0,1.0,-2.0
1705326555.9917953,-1.0,-13.0,-15.0,-1.0,-1.0,0.0,1.0,2.0
1705326555.9917953,0.0,-7.0,-3.0,-2.0,-2.0,-2.0,-2.0,0.0
1705326555.9917953,1.0,-5.0,7.0,-1.0,-3.0,-1.0,-1.0,0.0
1705326556.0117974,-1.0,2.0,-21.0,-1.0,1.0,-1.0,2.0,0.0
1705326556.0117974,-3.0,-5.0,11.0,1.0,-2.0,-1.0,-2.0,1.0
1705326556.0117974,0.0,-1.0,5.0,1.0,0.0,-1.0,-3.0,-1.0
1705326556.0117974,0.0,16.0,0.0,-2.0,-1.0,0.0,-1.0,0.0
1705326556.021796,1.0,6.0,6.0,-1.0,1.0,1.0,1.0,-1.0
1705326556.021796,-4.0,9.0,7.0,1.0,2.0,-1.0,-1.0,0.0
1705326556.0318422,-2.0,-9.0,-19.0,-4.0,-4.0,1.0,4.0,0.0
1705326556.0318422,0.0,-4.0,13.0,-2.0,0.0,-2.0,-3.0,-2.0
1705326556.0500643,-1.0,-1.0,-12.0,0.0,-1.0,-3.0,1.0,-1.0
1705326556.0500643,-1.0,-3.0,8.0,2.0,-2.0,-1.0,-2.0,0.0
1705326556.0520651,0.0,2.0,6.0,0.0,0.0,-1.0,0.0,2.0
1705326556.0520651,-1.0,-9.0,-2.0,-2.0,-3.0,-1.0,-1.0,-4.0
1705326556.0745578,-1.0,5.0,-1.0,-3.0,-1.0,-1.0,-3.0,-2.0
1705326556.0745578,0.0,-14.0,-5.0,-2.0,-3.0,-2.0,3.0,1.0
1705326556.0745578,0.0,-3.0,-1.0,-3.0,-1.0,-1.0,-2.0,-1.0
1705326556.0745578,-1.0,-7.0,-3.0,1.0,1.0,-1.0,0.0,-3.0
1705326556.0845926,-1.0,3.0,-1.0,-2.0,-1.0,-3.0,-1.0,-1.0
1705326556.0845926,-1.0,-2.0,-9.0,1.0,-2.0,1.0,-2.0,-1.0
1705326556.094562,-5.0,-8.0,-9.0,-2.0,-1.0,-2.0,-3.0,-3.0
1705326556.094562,-4.0,-4.0,-1.0,-3.0,-2.0,-1.0,-2.0,0.0
1705326556.1045623,-1.0,-4.0,5.0,-2.0,-2.0,0.0,0.0,3.0
1705326556.1045623,0.0,-3.0,-7.0,-4.0,-2.0,0.0,-3.0,-9.0
1705326556.1045623,-3.0,-38.0,-1.0,4.0,0.0,1.0,-2.0,-3.0
1705326556.1045623,0.0,-1.0,3.0,-2.0,-3.0,-3.0,-1.0,-1.0
1705326556.13456,-1.0,1.0,-10.0,0.0,-1.0,-2.0,0.0,2.0
1705326556.13456,-3.0,-6.0,17.0,-2.0,-3.0,-1.0,-1.0,2.0
1705326556.13456,0.0,-1.0,4.0,0.0,0.0,-2.0,2.0,-3.0
1705326556.13456,-1.0,0.0,-2.0,-1.0,0.0,1.0,-2.0,-3.0
1705326556.1445608,0.0,2.0,5.0,-1.0,0.0,-2.0,-2.0,-3.0
1705326556.1445608,1.0,-4.0,-5.0,-3.0,0.0,-1.0,-1.0,2.0
1705326556.1545606,0.0,6.0,4.0,1.0,-3.0,-2.0,-3.0,-2.0
1705326556.1545606,-3.0,3.0,-2.0,1.0,-1.0,-1.0,0.0,1.0
1705326556.1645617,0.0,9.0,0.0,-1.0,-2.0,-1.0,1.0,-2.0
1705326556.1645617,-4.0,-4.0,-16.0,-3.0,0.0,-2.0,-1.0,0.0
1705326556.1645617,-1.0,-13.0,0.0,-5.0,-2.0,-1.0,2.0,3.0
1705326556.1645617,2.0,-6.0,-4.0,-2.0,-2.0,-1.0,-11.0,-2.0
1705326556.194561,-1.0,-5.0,-1.0,-1.0,-2.0,-1.0,-1.0,-2.0
1705326556.194561,0.0,-10.0,2.0,0.0,0.0,-1.0,1.0,2.0
1705326556.194561,0.0,12.0,6.0,0.0,-2.0,0.0,0.0,1.0
1705326556.194561,0.0,-4.0,-12.0,-2.0,-1.0,-2.0,1.0,3.0
1705326556.2045631,1.0,-4.0,-2.0,-1.0,-3.0,-2.0,-4.0,-9.0
1705326556.2045631,0.0,1.0,3.0,-3.0,-3.0,-2.0,0.0,1.0
1705326556.214559,0.0,10.0,3.0,-2.0,0.0,-1.0,-1.0,1.0
1705326556.214559,-4.0,2.0,5.0,0.0,-1.0,-1.0,1.0,-2.0
1705326556.234561,-1.0,3.0,3.0,-1.0,-1.0,0.0,-1.0,7.0
1705326556.234561,0.0,3.0,2.0,1.0,-1.0,-3.0,-4.0,-19.0
1705326556.234561,-2.0,-1.0,-4.0,-1.0,-1.0,-2.0,-3.0,0.0
1705326556.234561,-3.0,6.0,2.0,0.0,-3.0,-1.0,0.0,-1.0
1705326556.2445858,0.0,-6.0,-2.0,-2.0,-1.0,-1.0,-2.0,-1.0
1705326556.2445858,0.0,13.0,-6.0,0.0,-1.0,-1.0,-2.0,6.0
1705326556.254623,-1.0,1.0,0.0,-3.0,0.0,-1.0,0.0,-1.0
1705326556.254623,1.0,-5.0,-1.0,-1.0,-2.0,0.0,-1.0,-2.0
1705326556.2745645,0.0,5.0,-3.0,-1.0,0.0,1.0,-2.0,-2.0
1705326556.2745645,-4.0,-8.0,-1.0,0.0,0.0,0.0,-3.0,2.0
1705326556.2745645,-1.0,7.0,7.0,0.0,0.0,-1.0,-1.0,-4.0
1705326556.2745645,0.0,2.0,-16.0,-2.0,-1.0,-3.0,-1.0,0.0
1705326556.294561,-2.0,-16.0,-1.0,-4.0,0.0,1.0,2.0,-3.0
1705326556.294561,1.0,2.0,1.0,0.0,-1.0,-2.0,0.0,0.0
1705326556.294561,0.0,-1.0,1.0,0.0,-2.0,-1.0,-1.0,2.0
1705326556.294561,2.0,-2.0,0.0,0.0,-1.0,0.0,-1.0,-5.0
1705326556.3045614,-2.0,-18.0,-3.0,0.0,0.0,-1.0,-2.0,-2.0
1705326556.3045614,-1.0,-5.0,0.0,0.0,0.0,0.0,2.0,1.0
1705326556.3145645,0.0,30.0,0.0,-1.0,-1.0,-1.0,-6.0,2.0
1705326556.3145645,-2.0,-1.0,5.0,0.0,-1.0,1.0,0.0,1.0
1705326556.33456,0.0,2.0,-2.0,-1.0,-1.0,-3.0,-2.0,-2.0
1705326556.33456,-1.0,5.0,6.0,2.0,-2.0,0.0,-2.0,7.0
1705326556.33456,-1.0,-9.0,-2.0,0.0,-1.0,0.0,1.0,-17.0
1705326556.33456,-3.0,-6.0,-18.0,-1.0,2.0,-2.0,0.0,2.0
1705326556.3445597,-2.0,7.0,9.0,0.0,-1.0,0.0,0.0,0.0
1705326556.3445597,0.0,-5.0,-15.0,-3.0,-2.0,0.0,1.0,1.0
1705326556.3445597,0.0,-5.0,-4.0,-1.0,-2.0,0.0,-1.0,1.0
1705326556.3445597,-2.0,1.0,6.0,1.0,0.0,-2.0,-1.0,-2.0
1705326556.364559,-3.0,2.0,-3.0,-2.0,-1.0,-1.0,0.0,-1.0
1705326556.364559,0.0,0.0,4.0,-1.0,-1.0,-3.0,-2.0,-2.0
1705326556.374563,0.0,-8.0,-1.0,0.0,-2.0,-2.0,-1.0,1.0
1705326556.374563,1.0,8.0,-7.0,-3.0,0.0,-1.0,0.0,-3.0
1705326556.3945608,-1.0,1.0,-1.0,0.0,-2.0,-2.0,0.0,0.0
1705326556.3945608,2.0,3.0,-1.0,-1.0,-4.0,-1.0,-1.0,-1.0
1705326556.3945608,-3.0,1.0,1.0,0.0,-1.0,-2.0,-2.0,-2.0
1705326556.3945608,0.0,-24.0,15.0,0.0,-1.0,-2.0,0.0,0.0
1705326556.404562,-3.0,2.0,-10.0,-2.0,-1.0,-1.0,-1.0,-2.0
1705326556.404562,-2.0,-2.0,1.0,-1.0,0.0,0.0,0.0,1.0
1705326556.404562,5.0,-5.0,11.0,-2.0,0.0,-1.0,3.0,0.0
1705326556.404562,-2.0,-2.0,-23.0,-3.0,-2.0,-1.0,-2.0,-2.0
1705326556.4245622,0.0,3.0,-1.0,-1.0,0.0,0.0,5.0,-1.0
1705326556.4245622,0.0,-2.0,2.0,0.0,0.0,1.0,-4.0,1.0
1705326556.43456,1.0,-4.0,-13.0,-5.0,-2.0,-1.0,-1.0,0.0
1705326556.43456,-3.0,5.0,9.0,5.0,-1.0,-1.0,-1.0,1.0
1705326556.454561,1.0,0.0,-6.0,-2.0,-2.0,-2.0,-4.0,-2.0
1705326556.454561,-4.0,2.0,-2.0,-1.0,-2.0,2.0,3.0,-2.0
1705326556.464559,-2.0,-4.0,-3.0,-1.0,-1.0,0.0,2.0,2.0
1705326556.464559,0.0,3.0,5.0,0.0,-2.0,-3.0,-1.0,0.0
1705326556.464559,0.0,1.0,-1.0,-1.0,-2.0,0.0,-2.0,-1.0
1705326556.464559,-3.0,-5.0,-6.0,-2.0,0.0,-1.0,-1.0,2.0
1705326556.4745927,-2.0,6.0,-2.0,1.0,0.0,0.0,-4.0,0.0
1705326556.4745927,-1.0,4.0,-1.0,-1.0,-1.0,-1.0,-2.0,-3.0
1705326556.4845974,-2.0,-2.0,-2.0,-1.0,-1.0,-2.0,1.0,-1.0
1705326556.4845974,2.0,1.0,10.0,-3.0,-1.0,-2.0,0.0,-2.0
1705326556.4945636,-2.0,-3.0,-10.0,-2.0,-1.0,-1.0,0.0,1.0
1705326556.4945636,1.0,-1.0,9.0,0.0,1.0,-1.0,-1.0,-3.0
1705326556.514561,-1.0,25.0,2.0,2.0,0.0,-1.0,-3.0,0.0
1705326556.5245614,-3.0,-6.0,-8.0,-6.0,-4.0,-1.0,-2.0,-4.0
1705326556.5245614,-7.0,-3.0,1.0,3.0,0.0,-2.0,-2.0,-2.0
1705326556.5245614,1.0,1.0,5.0,-1.0,-2.0,0.0,0.0,0.0
1705326556.534562,-1.0,-6.0,4.0,0.0,-1.0,-1.0,1.0,-1.0
1705326556.534562,-2.0,0.0,2.0,-1.0,0.0,-1.0,-10.0,5.0
1705326556.534562,0.0,-1.0,0.0,-1.0,-1.0,-2.0,-4.0,-14.0
1705326556.534562,-2.0,-2.0,2.0,-5.0,-2.0,-2.0,0.0,-1.0
1705326556.5445614,-4.0,-8.0,-10.0,0.0,-1.0,0.0,-1.0,1.0
1705326556.5445614,3.0,-6.0,-4.0,-2.0,-2.0,-1.0,0.0,-3.0
1705326556.5445614,2.0,0.0,-1.0,0.0,1.0,2.0,1.0,4.0
1705326556.554563,0.0,2.0,4.0,-1.0,-1.0,-1.0,-1.0,0.0
1705326556.581994,-3.0,-15.0,-6.0,-1.0,-2.0,-2.0,-2.0,-3.0
1705326556.581994,0.0,-1.0,-14.0,-1.0,0.0,-3.0,1.0,-2.0
1705326556.581994,-2.0,-1.0,11.0,-3.0,-2.0,-1.0,-2.0,2.0
1705326556.581994,0.0,1.0,-5.0,-1.0,-1.0,-2.0,-2.0,0.0
1705326556.5895238,1.0,-2.0,3.0,-3.0,-3.0,0.0,0.0,3.0
1705326556.5895238,0.0,1.0,7.0,1.0,0.0,-1.0,1.0,-4.0
1705326556.5967457,0.0,29.0,-13.0,-1.0,-1.0,-1.0,0.0,0.0
1705326556.5967457,-2.0,1.0,-4.0,0.0,-1.0,-2.0,-1.0,0.0
1705326556.6273587,1.0,-4.0,2.0,-3.0,-2.0,-2.0,-2.0,-2.0
1705326556.6273587,-5.0,0.0,13.0,4.0,2.0,0.0,-1.0,-4.0
1705326556.6273587,0.0,-19.0,-3.0,0.0,-1.0,-1.0,-1.0,1.0
1705326556.6273587,2.0,15.0,3.0,-2.0,-2.0,-1.0,-1.0,5.0
1705326556.6273587,-1.0,8.0,0.0,0.0,-2.0,-2.0,-4.0,-15.0
1705326556.6273587,-3.0,-4.0,-7.0,-1.0,0.0,0.0,4.0,1.0
1705326556.6273587,-3.0,-12.0,1.0,0.0,-2.0,0.0,1.0,2.0
1705326556.6273587,0.0,-6.0,-2.0,1.0,-1.0,-1.0,1.0,-2.0
1705326556.6473594,-3.0,0.0,0.0,1.0,1.0,0.0,0.0,-1.0
1705326556.6473594,1.0,5.0,7.0,0.0,-2.0,-2.0,-3.0,1.0
1705326556.6473594,-2.0,-3.0,-4.0,-2.0,0.0,-1.0,4.0,0.0
1705326556.6473594,-3.0,-5.0,-4.0,-3.0,0.0,-1.0,1.0,0.0
1705326556.667417,2.0,3.0,-2.0,-2.0,-2.0,-2.0,0.0,1.0
1705326556.667417,1.0,34.0,6.0,0.0,0.0,-1.0,-1.0,-2.0
1705326556.667417,0.0,1.0,4.0,-1.0,-2.0,-3.0,-4.0,1.0
1705326556.667417,1.0,-3.0,3.0,-1.0,-2.0,0.0,-1.0,-3.0
1705326556.6873965,-2.0,-4.0,-7.0,-1.0,-2.0,-5.0,-2.0,3.0
1705326556.6873965,2.0,-11.0,-7.0,-1.0,-2.0,-3.0,0.0,-3.0
1705326556.6873965,-2.0,-7.0,-7.0,-2.0,-3.0,-1.0,0.0,-2.0
1705326556.6873965,-1.0,10.0,0.0,0.0,0.0,0.0,-3.0,-4.0
1705326556.7073607,0.0,-3.0,-3.0,-2.0,-2.0,1.0,1.0,2.0
1705326556.7073607,-1.0,-5.0,1.0,-1.0,-3.0,0.0,1.0,6.0
1705326556.7073607,1.0,0.0,4.0,-1.0,0.0,0.0,-5.0,-11.0
1705326556.7073607,-3.0,-10.0,-14.0,-2.0,-1.0,0.0,-2.0,-2.0
1705326556.7375064,-3.0,2.0,2.0,-1.0,0.0,-1.0,-2.0,1.0
1705326556.7375064,-4.0,-8.0,-4.0,-1.0,0.0,-3.0,-1.0,-1.0
1705326556.747359,2.0,9.0,10.0,-1.0,0.0,-3.0,-2.0,7.0
1705326556.747359,0.0,-4.0,6.0,-1.0,-1.0,0.0,2.0,-1.0
1705326556.747359,-2.0,-9.0,-3.0,2.0,-1.0,0.0,-1.0,-4.0
1705326556.747359,2.0,6.0,-15.0,-2.0,-2.0,-2.0,0.0,-1.0
1705326556.747359,-4.0,-6.0,-6.0,0.0,-1.0,-3.0,-3.0,1.0
1705326556.747359,-4.0,4.0,7.0,-2.0,-1.0,0.0,-3.0,-3.0
1705326556.7673934,-1.0,-12.0,-12.0,-1.0,-2.0,-1.0,-1.0,3.0
1705326556.7673934,-1.0,-6.0,9.0,-1.0,-1.0,0.0,2.0,-2.0
1705326556.7773585,-3.0,-2.0,-3.0,-2.0,0.0,0.0,-2.0,-1.0
1705326556.7773585,-1.0,-1.0,-9.0,0.0,-2.0,-1.0,-4.0,0.0
1705326556.787393,-1.0,0.0,5.0,0.0,2.0,-1.0,-1.0,-3.0
1705326556.787393,-3.0,-5.0,-9.0,-3.0,-1.0,-1.0,-3.0,-4.0
1705326556.787393,0.0,-10.0,-3.0,0.0,0.0,-1.0,0.0,-1.0
1705326556.787393,0.0,-2.0,4.0,0.0,-1.0,-1.0,0.0,-1.0
1705326556.807359,1.0,6.0,12.0,0.0,-2.0,-1.0,-1.0,-1.0
1705326556.807359,-1.0,-8.0,-12.0,-2.0,-1.0,-1.0,-2.0,-2.0
1705326556.8173661,-1.0,-3.0,-1.0,-3.0,-1.0,0.0,1.0,2.0
1705326556.8173661,-1.0,-5.0,-4.0,-2.0,-2.0,-1.0,0.0,2.0
1705326556.8273635,0.0,-6.0,-3.0,-5.0,0.0,-2.0,-2.0,-6.0
1705326556.8273635,1.0,20.0,9.0,0.0,-2.0,-1.0,0.0,0.0
1705326556.8373992,-1.0,-3.0,-2.0,-1.0,-3.0,-1.0,0.0,2.0
1705326556.8373992,-4.0,2.0,-11.0,-2.0,-1.0,-2.0,-2.0,0.0
1705326556.8573587,1.0,0.0,-1.0,-1.0,-1.0,0.0,7.0,2.0
1705326556.8573587,-2.0,-7.0,7.0,0.0,-1.0,-2.0,-12.0,-2.0
1705326556.8573587,-3.0,-9.0,-11.0,-1.0,-1.0,-1.0,-2.0,-1.0
1705326556.8573587,-1.0,-1.0,6.0,-1.0,-3.0,-3.0,-2.0,-8.0
1705326556.8673596,-1.0,-7.0,-6.0,0.0,-1.0,-1.0,0.0,1.0
1705326556.8673596,-2.0,-6.0,3.0,-2.0,-1.0,1.0,2.0,-2.0
1705326556.8673596,-1.0,1.0,-2.0,-1.0,0.0,-1.0,-1.0,0.0
1705326556.8673596,1.0,-9.0,-7.0,-1.0,-1.0,-1.0,-1.0,0.0
1705326556.887363,-2.0,9.0,1.0,0.0,-1.0,-1.0,-2.0,0.0
1705326556.887363,1.0,-6.0,2.0,0.0,0.0,-2.0,0.0,1.0
1705326556.8973937,1.0,2.0,-5.0,-1.0,-4.0,-3.0,-1.0,1.0
1705326556.8973937,-3.0,-28.0,-2.0,-1.0,0.0,-2.0,0.0,-2.0
1705326556.907358,-1.0,-1.0,1.0,-1.0,0.0,0.0,-1.0,6.0
1705326556.907358,-1.0,0.0,0.0,2.0,-1.0,0.0,-1.0,-17.0
1705326556.907358,-1.0,6.0,2.0,1.0,-3.0,1.0,-1.0,0.0
1705326556.907358,2.0,3.0,5.0,-2.0,-1.0,0.0,-2.0,-2.0
1705326556.9273932,-2.0,-4.0,-7.0,0.0,-1.0,-1.0,-4.0,-2.0
1705326556.9273932,-1.0,-3.0,-2.0,-1.0,-1.0,-1.0,0.0,2.0
1705326556.9273932,-1.0,-4.0,8.0,0.0,-1.0,0.0,-2.0,1.0
1705326556.9273932,-1.0,17.0,-9.0,2.0,1.0,0.0,-3.0,-4.0
1705326556.9473615,0.0,2.0,2.0,0.0,0.0,0.0,-1.0,-2.0
1705326556.9473615,-2.0,2.0,-2.0,1.0,-1.0,0.0,0.0,2.0
1705326556.9573662,-5.0,2.0,2.0,-2.0,-1.0,0.0,0.0,-3.0
1705326556.9573662,1.0,0.0,-11.0,-4.0,-2.0,0.0,1.0,2.0
1705326556.9773586,1.0,36.0,8.0,-1.0,-2.0,-1.0,-1.0,-3.0
1705326556.9773586,-2.0,-10.0,-15.0,-5.0,-4.0,-4.0,-8.0,-1.0
1705326556.9773586,-3.0,-1.0,2.0,-1.0,0.0,0.0,0.0,-1.0
1705326556.9773586,2.0,10.0,9.0,0.0,-2.0,-3.0,1.0,1.0
1705326556.987403,-4.0,-13.0,-13.0,-4.0,-2.0,-3.0,-1.0,-2.0
1705326556.987403,3.0,-3.0,3.0,-1.0,-1.0,-1.0,2.0,1.0
1705326556.987403,0.0,2.0,-1.0,0.0,0.0,0.0,-2.0,-1.0
1705326556.987403,-4.0,-8.0,-3.0,-3.0,0.0,-1.0,0.0,3.0
1705326557.0073605,1.0,-2.0,-3.0,1.0,-3.0,-3.0,-4.0,-7.0
1705326557.0073605,-2.0,0.0,3.0,-1.0,-2.0,-1.0,-1.0,2.0
1705326557.0173604,-1.0,-2.0,-4.0,0.0,-1.0,-1.0,1.0,-3.0
1705326557.0173604,-2.0,0.0,5.0,0.0,0.0,1.0,-1.0,1.0
1705326557.0373602,0.0,-3.0,6.0,-1.0,-2.0,-1.0,-2.0,1.0
1705326557.0373602,-2.0,-5.0,-2.0,-2.0,-1.0,-2.0,-2.0,-1.0
1705326557.0373602,1.0,1.0,-13.0,-5.0,-3.0,-2.0,-2.0,-2.0
1705326557.0373602,0.0,-8.0,5.0,0.0,-1.0,0.0,2.0,-2.0
1705326557.0473604,0.0,0.0,-1.0,-2.0,-1.0,2.0,-1.0,0.0
1705326557.0473604,0.0,-4.0,-7.0,-2.0,-2.0,-1.0,-1.0,-2.0
1705326557.0473604,-2.0,-4.0,0.0,1.0,-1.0,-1.0,0.0,-1.0
1705326557.0473604,-2.0,-21.0,3.0,0.0,0.0,-2.0,-2.0,-2.0
1705326557.0673594,-4.0,-16.0,-3.0,-2.0,0.0,1.0,-2.0,-2.0
1705326557.0673594,-2.0,1.0,-13.0,-2.0,-2.0,0.0,0.0,0.0
1705326557.077358,0.0,0.0,3.0,-1.0,-1.0,-1.0,-2.0,-4.0
1705326557.077358,-2.0,4.0,0.0,1.0,-1.0,-1.0,2.0,-3.0
1705326557.08736,-1.0,1.0,0.0,-1.0,-1.0,0.0,-3.0,4.0
1705326557.08736,-2.0,-5.0,3.0,-1.0,1.0,-1.0,1.0,-9.0
1705326557.0973582,0.0,-5.0,0.0,-3.0,-1.0,0.0,-2.0,1.0
1705326557.0973582,1.0,2.0,-3.0,0.0,0.0,2.0,2.0,0.0
1705326557.1146564,0.0,2.0,2.0,0.0,-1.0,-3.0,-1.0,1.0
1705326557.1156619,-1.0,-11.0,3.0,0.0,-2.0,3.0,0.0,3.0
1705326557.1166587,-2.0,8.0,2.0,2.0,-2.0,-3.0,-1.0,-3.0
1705326557.1166587,-3.0,5.0,-13.0,0.0,-3.0,-1.0,-3.0,-3.0
1705326557.128656,0.0,-1.0,1.0,-4.0,-1.0,-2.0,0.0,0.0
1705326557.128656,0.0,-1.0,3.0,-1.0,0.0,-1.0,-1.0,2.0
1705326557.140185,1.0,-4.0,0.0,-2.0,-1.0,-1.0,-2.0,-2.0
1705326557.140185,-5.0,0.0,-7.0,-1.0,-2.0,-1.0,-3.0,0.0
1705326557.1502287,-4.0,-11.0,-7.0,0.0,0.0,-2.0,-1.0,-3.0
1705326557.1502287,0.0,1.0,-2.0,-2.0,-3.0,-1.0,1.0,0.0
1705326557.1502287,0.0,2.0,3.0,-1.0,-1.0,-1.0,-1.0,0.0
1705326557.1502287,1.0,9.0,1.0,-2.0,-1.0,-3.0,-3.0,-6.0
1705326557.1702259,1.0,-1.0,3.0,-1.0,-1.0,1.0,1.0,0.0
1705326557.1702259,-1.0,5.0,10.0,-1.0,0.0,0.0,1.0,3.0
1705326557.1702259,-1.0,-8.0,-6.0,0.0,0.0,0.0,0.0,-1.0
1705326557.1702259,-3.0,-7.0,-6.0,-2.0,-2.0,1.0,-2.0,-1.0
1705326557.1801877,1.0,18.0,1.0,1.0,1.0,-1.0,0.0,3.0
1705326557.1801877,0.0,3.0,8.0,1.0,-1.0,-1.0,-3.0,-4.0
1705326557.2001874,0.0,0.0,6.0,-1.0,0.0,-1.0,-1.0,0.0
1705326557.2001874,0.0,-1.0,0.0,0.0,-3.0,-2.0,-2.0,-3.0
1705326557.2101877,1.0,-3.0,-2.0,0.0,-1.0,0.0,0.0,2.0
1705326557.2101877,-2.0,2.0,-12.0,0.0,1.0,0.0,1.0,0.0
1705326557.2101877,-2.0,9.0,-7.0,0.0,-1.0,-2.0,0.0,-1.0
1705326557.2101877,-1.0,1.0,10.0,0.0,0.0,0.0,-2.0,-1.0
1705326557.230188,-1.0,-6.0,1.0,3.0,-3.0,-3.0,-4.0,-5.0
1705326557.230188,-2.0,-1.0,-3.0,-2.0,0.0,-1.0,-2.0,-2.0
1705326557.230188,-1.0,-3.0,1.0,-2.0,-1.0,-1.0,-2.0,-3.0
1705326557.230188,3.0,40.0,8.0,-1.0,-1.0,-1.0,2.0,5.0
1705326557.2601874,0.0,0.0,0.0,-1.0,-2.0,0.0,-2.0,-2.0
1705326557.2601874,-1.0,-4.0,-1.0,0.0,-1.0,-1.0,0.0,-1.0
1705326557.2601874,-1.0,0.0,-16.0,-4.0,-2.0,-1.0,0.0,-1.0
1705326557.2601874,-2.0,-17.0,1.0,1.0,0.0,-1.0,-1.0,-1.0
1705326557.270188,-4.0,-3.0,2.0,-1.0,1.0,1.0,-2.0,-5.0
1705326557.270188,0.0,2.0,-7.0,-1.0,-3.0,-1.0,0.0,2.0
1705326557.270188,2.0,-3.0,5.0,0.0,-1.0,-1.0,-1.0,-3.0
1705326557.270188,-1.0,-3.0,7.0,-1.0,0.0,-1.0,0.0,1.0
1705326557.3001897,-5.0,-10.0,-16.0,-4.0,1.0,1.0,-2.0,-4.0
1705326557.3001897,0.0,-5.0,6.0,-1.0,0.0,-3.0,-2.0,1.0
1705326557.3101888,-4.0,-5.0,-2.0,1.0,2.0,-1.0,-1.0,-1.0
1705326557.3101888,-2.0,-5.0,-2.0,0.0,-1.0,-1.0,-1.0,-2.0
1705326557.3101888,0.0,4.0,8.0,0.0,1.0,-1.0,1.0,1.0
1705326557.3101888,0.0,0.0,-6.0,-3.0,-1.0,-1.0,-1.0,0.0
1705326557.3101888,-2.0,13.0,1.0,2.0,-1.0,-2.0,-2.0,-1.0
1705326557.3101888,-1.0,-20.0,0.0,-3.0,-2.0,-4.0,-1.0,0.0
1705326557.3301854,0.0,19.0,1.0,-1.0,-3.0,-1.0,-1.0,-1.0
1705326557.3301854,0.0,2.0,2.0,1.0,-1.0,0.0,0.0,-2.0
1705326557.3301854,-2.0,-5.0,5.0,-1.0,1.0,1.0,1.0,-1.0
1705326557.3301854,0.0,-3.0,-14.0,-3.0,0.0,0.0,-1.0,5.0
1705326557.3601892,0.0,-4.0,4.0,0.0,-3.0,-2.0,-1.0,-19.0
1705326557.3601892,-3.0,-4.0,-5.0,-1.0,-2.0,-2.0,-1.0,-1.0
1705326557.3601892,2.0,-1.0,2.0,-2.0,0.0,-1.0,-1.0,0.0
1705326557.3601892,1.0,0.0,3.0,-1.0,-3.0,-1.0,-3.0,-2.0
1705326557.37019,-2.0,-3.0,-8.0,-1.0,-1.0,0.0,0.0,4.0
1705326557.37019,1.0,6.0,8.0,0.0,-1.0,-2.0,-1.0,-2.0
1705326557.37019,-4.0,-8.0,-2.0,0.0,-3.0,-2.0,-1.0,-1.0
1705326557.37019,-3.0,1.0,-5.0,-1.0,-1.0,0.0,0.0,-3.0
1705326557.3901923,-2.0,-4.0,6.0,0.0,0.0,-1.0,-4.0,1.0
1705326557.3901923,-3.0,-1.0,-8.0,-1.0,0.0,-2.0,0.0,-1.0
1705326557.3901923,-3.0,0.0,-1.0,1.0,0.0,0.0,-3.0,1.0
1705326557.3901923,0.0,1.0,-3.0,0.0,0.0,0.0,-2.0,-2.0
1705326557.410187,-3.0,-2.0,-1.0,-2.0,-2.0,0.0,-1.0,0.0
1705326557.410187,0.0,-5.0,1.0,2.0,-1.0,-1.0,-4.0,-2.0
1705326557.410187,-1.0,-23.0,0.0,-2.0,-2.0,-1.0,-1.0,0.0
1705326557.410187,-1.0,4.0,-8.0,-2.0,-2.0,-1.0,0.0,-4.0
1705326557.430189,0.0,-5.0,-2.0,-4.0,0.0,-2.0,-1.0,0.0
1705326557.430189,-1.0,-1.0,2.0,-2.0,-2.0,-2.0,0.0,-2.0
1705326557.430189,-3.0,0.0,11.0,-1.0,0.0,-1.0,1.0,1.0
1705326557.430189,0.0,0.0,-23.0,0.0,-2.0,-3.0,-3.0,-1.0
1705326557.4502275,1.0,-2.0,-1.0,0.0,0.0,-2.0,-1.0,3.0
1705326557.4502275,-2.0,1.0,-3.0,-3.0,-1.0,0.0,0.0,0.0
1705326557.4601886,0.0,2.0,-4.0,-1.0,0.0,0.0,-1.0,-1.0
1705326557.4601886,0.0,17.0,12.0,-2.0,0.0,0.0,0.0,0.0
1705326557.4701865,-5.0,-1.0,1.0,-1.0,-1.0,-1.0,-2.0,-2.0
1705326557.4701865,-2.0,0.0,-4.0,-1.0,-2.0,0.0,0.0,-1.0
1705326557.4701865,0.0,7.0,0.0,-2.0,-2.0,-2.0,-2.0,-1.0
1705326557.4701865,1.0,-4.0,1.0,-1.0,0.0,-1.0,-2.0,0.0
1705326557.4902284,0.0,-5.0,-6.0,-1.0,-2.0,-1.0,0.0,-1.0
1705326557.4902284,-2.0,-1.0,-2.0,-1.0,-1.0,-1.0,0.0,0.0
1705326557.4902284,-2.0,-7.0,-3.0,-3.0,-3.0,0.0,-1.0,0.0
1705326557.4902284,0.0,1.0,2.0,-1.0,-2.0,-1.0,-1.0,-3.0
1705326557.5102253,2.0,17.0,0.0,-1.0,0.0,-1.0,-1.0,0.0
1705326557.5102253,-2.0,-5.0,7.0,2.0,-1.0,-2.0,-2.0,-3.0
1705326557.520191,1.0,-1.0,-16.0,-5.0,-1.0,-2.0,0.0,-2.0
1705326557.520191,-3.0,-9.0,2.0,1.0,-1.0,0.0,-1.0,-2.0
1705326557.5301855,0.0,-5.0,0.0,0.0,-1.0,0.0,0.0,-2.0
1705326557.5301855,0.0,4.0,4.0,-2.0,0.0,-1.0,-1.0,-2.0
1705326557.5301855,1.0,1.0,-7.0,-2.0,0.0,-1.0,-2.0,-2.0
1705326557.5301855,-2.0,2.0,-8.0,-4.0,-2.0,-1.0,-2.0,-2.0
1705326557.5501862,-3.0,-5.0,-5.0,-4.0,-2.0,-1.0,-1.0,1.0
1705326557.5501862,-1.0,-2.0,2.0,1.0,0.0,0.0,-2.0,0.0
1705326557.5501862,-1.0,3.0,3.0,1.0,-1.0,-1.0,0.0,-1.0
1705326557.5501862,0.0,-7.0,0.0,-2.0,-1.0,-2.0,0.0,-2.0
1705326557.5701923,0.0,-1.0,-2.0,-5.0,-4.0,-3.0,-2.0,1.0
1705326557.5701923,0.0,27.0,0.0,0.0,0.0,-2.0,-1.0,1.0
1705326557.5901895,-2.0,17.0,6.0,2.0,-1.0,-2.0,-1.0,-1.0
1705326557.5901895,-2.0,-3.0,-6.0,0.0,-2.0,0.0,0.0,1.0
1705326557.5901895,2.0,-1.0,0.0,1.0,1.0,0.0,-1.0,-2.0
1705326557.5901895,-1.0,-7.0,2.0,-1.0,-2.0,-1.0,-1.0,-1.0
1705326557.5901895,1.0,-1.0,-2.0,-3.0,-1.0,0.0,0.0,0.0
1705326557.5901895,-2.0,0.0,8.0,0.0,0.0,-2.0,0.0,-2.0
1705326557.6102202,-5.0,-9.0,-3.0,0.0,0.0,0.0,-1.0,0.0
1705326557.6102202,-4.0,-10.0,-15.0,-2.0,-1.0,0.0,0.0,0.0
1705326557.6102202,0.0,-2.0,1.0,-1.0,-2.0,-1.0,-1.0,1.0
1705326557.6102202,-1.0,-7.0,0.0,1.0,-1.0,-2.0,1.0,-1.0
1705326557.6309133,-2.0,-5.0,2.0,1.0,-2.0,-1.0,-1.0,-1.0
1705326557.6309133,0.0,-1.0,0.0,-1.0,-1.0,-2.0,-2.0,-2.0
1705326557.653913,-1.0,0.0,-3.0,-1.0,0.0,-1.0,-1.0,1.0
1705326557.653913,-1.0,0.0,3.0,-4.0,-1.0,0.0,-1.0,0.0
1705326557.6549165,2.0,-1.0,-4.0,-1.0,-1.0,-3.0,-2.0,0.0
1705326557.6549165,-3.0,-19.0,3.0,-1.0,1.0,0.0,-2.0,-1.0
1705326557.6563485,-2.0,-10.0,-12.0,1.0,0.0,1.0,0.0,-3.0
1705326557.6563485,-1.0,25.0,2.0,2.0,1.0,0.0,-1.0,1.0
1705326557.67671,2.0,3.0,0.0,-4.0,-3.0,-2.0,-1.0,0.0
1705326557.67671,-1.0,-7.0,-21.0,-4.0,-4.0,0.0,1.0,1.0
1705326557.67671,0.0,-2.0,8.0,0.0,-2.0,-2.0,-1.0,-1.0
1705326557.67671,-1.0,-7.0,1.0,0.0,-1.0,-2.0,1.0,-2.0
1705326557.6867032,-1.0,-5.0,-4.0,0.0,-1.0,-2.0,-2.0,-2.0
1705326557.6867032,-1.0,3.0,6.0,-2.0,-3.0,1.0,-1.0,1.0
1705326557.6963513,-3.0,0.0,2.0,-2.0,0.0,0.0,-1.0,-2.0
1705326557.6963513,-1.0,-5.0,1.0,-1.0,-2.0,-1.0,0.0,-3.0
1705326557.706354,-2.0,3.0,-1.0,0.0,-1.0,-3.0,1.0,1.0
1705326557.706354,-1.0,-4.0,4.0,-4.0,-2.0,-2.0,0.0,-4.0
1705326557.7163508,0.0,2.0,2.0,-2.0,-3.0,0.0,-1.0,0.0
1705326557.7163508,-4.0,-23.0,-24.0,-3.0,-1.0,0.0,-2.0,-1.0
1705326557.7363524,-1.0,3.0,6.0,-1.0,-2.0,-1.0,-1.0,-1.0
1705326557.7363524,0.0,0.0,3.0,2.0,0.0,-2.0,-2.0,-1.0
1705326557.7363524,0.0,-3.0,0.0,-2.0,-2.0,0.0,-2.0,-2.0
1705326557.7363524,0.0,1.0,9.0,1.0,0.0,-1.0,0.0,-1.0
1705326557.7563543,-1.0,-4.0,-3.0,-1.0,0.0,0.0,-1.0,0.0
1705326557.7563543,0.0,0.0,-5.0,-2.0,-2.0,0.0,0.0,-2.0
1705326557.7563543,0.0,5.0,2.0,-2.0,-2.0,-1.0,0.0,-2.0
1705326557.7563543,-1.0,0.0,6.0,-3.0,-3.0,0.0,0.0,0.0
1705326557.7663531,-1.0,-1.0,1.0,3.0,1.0,0.0,-2.0,-3.0
1705326557.7663531,1.0,5.0,-2.0,4.0,0.0,-2.0,-1.0,-1.0
1705326557.7763515,0.0,19.0,3.0,-3.0,-1.0,-1.0,1.0,0.0
1705326557.7763515,1.0,1.0,0.0,-2.0,-2.0,-2.0,-3.0,1.0
1705326557.796352,-3.0,-2.0,-2.0,2.0,1.0,1.0,1.0,0.0
1705326557.796352,-1.0,2.0,6.0,-1.0,0.0,-1.0,-1.0,-1.0
1705326557.796352,0.0,-7.0,0.0,4.0,1.0,-1.0,-1.0,-2.0
1705326557.796352,-1.0,-1.0,-13.0,-5.0,-3.0,-2.0,-3.0,-1.0
1705326557.8163528,0.0,-5.0,2.0,-3.0,-3.0,-1.0,-1.0,-1.0
1705326557.8163528,-2.0,-10.0,-8.0,1.0,-2.0,-1.0,-2.0,-3.0
1705326557.8163528,-2.0,-2.0,4.0,2.0,0.0,0.0,0.0,-1.0
1705326557.8163528,-2.0,-2.0,7.0,-1.0,-1.0,-2.0,-1.0,0.0
1705326557.8263516,-2.0,1.0,0.0,-1.0,0.0,-2.0,0.0,-2.0
1705326557.8263516,-1.0,-8.0,-19.0,-7.0,-3.0,-2.0,-2.0,-2.0
1705326557.8363507,-2.0,-3.0,1.0,0.0,-1.0,0.0,0.0,0.0
1705326557.8363507,0.0,5.0,7.0,2.0,-1.0,-2.0,-2.0,-2.0
1705326557.8563948,0.0,-2.0,0.0,-3.0,-2.0,-2.0,-3.0,-1.0
1705326557.8563948,-1.0,-8.0,0.0,2.0,2.0,-1.0,-1.0,-1.0
1705326557.8563948,0.0,-4.0,4.0,-1.0,-1.0,-2.0,-2.0,-1.0
1705326557.8563948,1.0,-5.0,-3.0,0.0,-2.0,0.0,0.0,0.0
1705326557.8763525,0.0,-3.0,0.0,-2.0,-3.0,-2.0,0.0,-2.0
1705326557.8763525,-1.0,0.0,0.0,-4.0,-3.0,0.0,-1.0,0.0
1705326557.8763525,-1.0,-8.0,-15.0,-2.0,-1.0,-2.0,0.0,0.0
1705326557.8763525,-1.0,2.0,4.0,2.0,2.0,1.0,0.0,0.0
1705326557.886389,0.0,1.0,2.0,-2.0,0.0,0.0,1.0,0.0
1705326557.886389,-2.0,1.0,-10.0,-1.0,-1.0,-2.0,-1.0,0.0
1705326557.8963852,0.0,0.0,5.0,1.0,-3.0,-2.0,-2.0,-2.0
1705326557.8963852,0.0,2.0,5.0,-1.0,-1.0,-1.0,-2.0,-1.0
1705326557.9163518,0.0,1.0,-12.0,4.0,0.0,-1.0,-4.0,0.0
1705326557.9163518,0.0,1.0,3.0,1.0,-2.0,-1.0,-3.0,-1.0
1705326557.9163518,-1.0,-9.0,-8.0,-7.0,-1.0,-2.0,-1.0,-1.0
1705326557.9163518,-2.0,-2.0,2.0,-1.0,-1.0,0.0,-1.0,-3.0
1705326557.926475,-2.0,-1.0,-4.0,0.0,-1.0,-2.0,-1.0,-1.0
1705326557.926475,0.0,2.0,4.0,-3.0,-2.0,-1.0,0.0,-2.0
1705326557.9363933,-3.0,0.0,2.0,4.0,-1.0,-2.0,0.0,-2.0
1705326557.9363933,0.0,-1.0,-4.0,-3.0,-2.0,-1.0,-1.0,-1.0
1705326557.94636,-1.0,7.0,4.0,2.0,0.0,0.0,-3.0,-1.0
1705326557.94636,-1.0,0.0,7.0,-2.0,-1.0,-2.0,-1.0,1.0
1705326557.9563506,-2.0,-7.0,-32.0,-3.0,-2.0,-3.0,-1.0,-1.0
1705326557.9563506,1.0,-1.0,2.0,-4.0,0.0,1.0,-1.0,-2.0
1705326557.9763515,-1.0,-6.0,1.0,7.0,0.0,-1.0,0.0,-1.0
1705326557.9763515,0.0,3.0,7.0,4.0,0.0,1.0,0.0,-1.0
1705326557.9763515,1.0,2.0,4.0,0.0,0.0,-1.0,-3.0,0.0
1705326557.9763515,0.0,-1.0,-1.0,-2.0,-3.0,-4.0,-2.0,0.0
1705326557.9863524,-2.0,-7.0,-12.0,-11.0,-4.0,-3.0,1.0,-2.0
1705326557.9863524,-2.0,1.0,0.0,-3.0,-1.0,0.0,-2.0,0.0
1705326557.9963899,-1.0,4.0,7.0,4.0,-1.0,1.0,-1.0,-3.0
1705326557.9963899,-3.0,-3.0,-6.0,-3.0,-1.0,-1.0,-3.0,-1.0
1705326558.0063975,1.0,2.0,8.0,-1.0,-1.0,-2.0,-1.0,0.0
1705326558.0063975,-2.0,0.0,-1.0,-3.0,-3.0,-3.0,-1.0,-1.0
1705326558.0163503,-1.0,-7.0,3.0,-1.0,-1.0,-2.0,-1.0,-1.0
1705326558.0163503,-1.0,-2.0,3.0,2.0,-1.0,0.0,-1.0,-1.0
1705326558.036353,-2.0,0.0,3.0,0.0,-1.0,0.0,-1.0,0.0
1705326558.036353,0.0,1.0,-9.0,4.0,-1.0,-1.0,-2.0,-1.0
1705326558.036353,-1.0,-2.0,-6.0,-8.0,1.0,0.0,-1.0,0.0
1705326558.036353,-1.0,-2.0,5.0,3.0,-2.0,-2.0,-1.0,-1.0
1705326558.0463533,-2.0,-2.0,-14.0,-7.0,-3.0,-1.0,-1.0,-1.0
1705326558.0463533,1.0,2.0,5.0,6.0,3.0,2.0,1.0,0.0
1705326558.0563514,0.0,0.0,5.0,-2.0,-5.0,-1.0,-1.0,0.0
1705326558.0563514,0.0,2.0,-2.0,0.0,1.0,-2.0,0.0,-1.0
1705326558.0663512,-2.0,-3.0,3.0,0.0,-2.0,0.0,-2.0,-2.0
1705326558.0663512,-1.0,-1.0,-4.0,-2.0,0.0,-2.0,-1.0,-2.0
1705326558.0763557,0.0,5.0,-3.0,-2.0,-2.0,-2.0,-2.0,-2.0
1705326558.0763557,-3.0,-5.0,-4.0,-2.0,-3.0,-1.0,-1.0,-2.0
1705326558.0963502,-2.0,-4.0,16.0,-1.0,0.0,-2.0,-2.0,-4.0
1705326558.0963502,-2.0,-15.0,-36.0,-6.0,-2.0,-1.0,-1.0,-1.0
1705326558.0963502,-2.0,-7.0,-6.0,-1.0,1.0,-1.0,-1.0,0.0
1705326558.0963502,0.0,2.0,-3.0,1.0,-1.0,0.0,-1.0,0.0
1705326558.106352,-2.0,0.0,1.0,2.0,0.0,-1.0,-1.0,0.0
1705326558.106352,0.0,-1.0,14.0,1.0,-1.0,-1.0,0.0,0.0
1705326558.12639,1.0,2.0,-1.0,-3.0,-1.0,0.0,0.0,-2.0
1705326558.12639,-2.0,-1.0,-3.0,1.0,1.0,-1.0,0.0,-2.0
1705326558.12639,0.0,0.0,-4.0,-4.0,-3.0,-1.0,-3.0,-1.0
1705326558.12639,-1.0,1.0,9.0,-4.0,-2.0,0.0,-1.0,1.0
1705326558.1463847,-1.0,0.0,-14.0,2.0,0.0,-1.0,-1.0,1.0
1705326558.1463847,0.0,1.0,-1.0,-2.0,0.0,-2.0,-1.0,-2.0
1705326558.156512,0.0,0.0,-12.0,-7.0,-3.0,-3.0,0.0,-2.0
1705326558.156512,1.0,4.0,10.0,-2.0,-4.0,-1.0,-1.0,-2.0
1705326558.156512,-2.0,-4.0,15.0,6.0,-2.0,-3.0,-2.0,-4.0
1705326558.156512,0.0,-2.0,-13.0,2.0,0.0,-1.0,-1.0,0.0
1705326558.1709116,-1.0,-9.0,-12.0,1.0,3.0,4.0,4.0,0.0
1705326558.1709116,-2.0,2.0,-6.0,2.0,-1.0,-1.0,-2.0,0.0
1705326558.1799119,-2.0,-2.0,3.0,0.0,-1.0,-2.0,-1.0,-1.0
1705326558.1799119,-2.0,0.0,5.0,-7.0,-7.0,-2.0,-2.0,-3.0
1705326558.189176,-1.0,0.0,-10.0,-5.0,-3.0,-2.0,-3.0,-1.0
1705326558.189176,1.0,0.0,4.0,-2.0,0.0,0.0,-2.0,1.0
1705326558.209182,-1.0,-5.0,-3.0,0.0,1.0,0.0,1.0,0.0
1705326558.209182,-2.0,-2.0,-2.0,-1.0,0.0,-1.0,0.0,0.0
1705326558.209182,-2.0,2.0,4.0,-2.0,-1.0,0.0,0.0,-2.0
1705326558.209182,-1.0,2.0,19.0,3.0,-1.0,-1.0,-3.0,-2.0
1705326558.2191825,0.0,3.0,-12.0,-5.0,-1.0,1.0,-1.0,1.0
1705326558.2191825,-1.0,-3.0,-8.0,-3.0,-1.0,-2.0,-2.0,-3.0
1705326558.2391815,-1.0,3.0,8.0,2.0,-2.0,-2.0,-2.0,-1.0
1705326558.2391815,-1.0,-4.0,-3.0,1.0,1.0,0.0,1.0,-1.0
1705326558.2391815,0.0,3.0,0.0,3.0,3.0,1.0,0.0,1.0
1705326558.2391815,0.0,0.0,0.0,-3.0,-2.0,-1.0,-1.0,2.0
1705326558.249179,1.0,4.0,5.0,1.0,-3.0,-2.0,-3.0,0.0
1705326558.249179,-2.0,-3.0,-4.0,-9.0,-6.0,-3.0,-1.0,0.0
1705326558.2591813,-2.0,-3.0,1.0,1.0,-3.0,-4.0,-3.0,0.0
1705326558.2591813,-2.0,-1.0,-3.0,-3.0,-3.0,0.0,0.0,-1.0
1705326558.2791817,0.0,1.0,3.0,4.0,1.0,1.0,1.0,0.0
1705326558.2791817,0.0,0.0,-2.0,5.0,7.0,3.0,1.0,0.0
1705326558.2791817,-1.0,-3.0,-7.0,-13.0,-4.0,1.0,-1.0,-1.0
1705326558.2791817,0.0,-1.0,-3.0,4.0,0.0,-3.0,-1.0,-1.0
1705326558.2991798,0.0,-2.0,9.0,-5.0,-4.0,-3.0,-2.0,0.0
1705326558.2991798,-1.0,0.0,5.0,0.0,-3.0,-1.0,-2.0,-2.0
1705326558.2991798,-1.0,-4.0,5.0,-1.0,-2.0,-2.0,0.0,-1.0
1705326558.2991798,-1.0,-4.0,-27.0,-7.0,-3.0,-2.0,-1.0,-1.0
1705326558.309215,-1.0,-2.0,8.0,-3.0,-4.0,-3.0,-2.0,-2.0
1705326558.309215,1.0,1.0,1.0,1.0,1.0,-1.0,-1.0,-1.0
1705326558.3191812,-1.0,2.0,12.0,5.0,4.0,3.0,-1.0,0.0
1705326558.3191812,0.0,-1.0,6.0,0.0,1.0,-3.0,0.0,0.0
1705326558.329185,-4.0,-6.0,-13.0,1.0,1.0,-2.0,-2.0,1.0
1705326558.329185,-1.0,3.0,-4.0,-6.0,-5.0,-2.0,-3.0,-1.0
1705326558.339185,0.0,-3.0,2.0,-8.0,-4.0,-3.0,-2.0,-2.0
1705326558.339185,2.0,4.0,5.0,13.0,4.0,3.0,0.0,-1.0
1705326558.3591814,-1.0,-1.0,-5.0,7.0,5.0,3.0,1.0,1.0
1705326558.3591814,0.0,-3.0,-5.0,-3.0,-2.0,-2.0,-3.0,-4.0
1705326558.3691785,0.0,1.0,0.0,0.0,-3.0,-2.0,-3.0,-2.0
1705326558.3691785,-3.0,-1.0,23.0,-10.0,-4.0,-4.0,-3.0,-4.0
1705326558.3691785,0.0,-1.0,-22.0,-1.0,-3.0,-4.0,-2.0,-3.0
1705326558.3691785,0.0,-2.0,-17.0,-6.0,-1.0,-2.0,1.0,0.0
1705326558.3791792,0.0,0.0,12.0,-1.0,-1.0,0.0,-1.0,-1.0
1705326558.3791792,0.0,0.0,11.0,2.0,5.0,2.0,2.0,0.0
1705326558.399221,-1.0,0.0,15.0,-3.0,-2.0,-1.0,0.0,-1.0
1705326558.399221,-2.0,-2.0,-6.0,-3.0,-6.0,-4.0,-3.0,-1.0
1705326558.399221,-2.0,-2.0,-4.0,0.0,-5.0,-4.0,-3.0,-2.0
1705326558.399221,0.0,2.0,5.0,3.0,0.0,3.0,1.0,0.0
1705326558.4191825,-1.0,-4.0,7.0,3.0,10.0,4.0,2.0,0.0
1705326558.4191825,1.0,2.0,-1.0,6.0,5.0,0.0,0.0,-1.0
1705326558.4291797,0.0,1.0,-2.0,-2.0,-5.0,-2.0,0.0,-2.0
1705326558.4291797,-4.0,-5.0,-5.0,-10.0,-9.0,-6.0,-3.0,-3.0
1705326558.4291797,-1.0,-3.0,-10.0,-2.0,-8.0,-6.0,-2.0,-3.0
1705326558.4291797,-3.0,-8.0,7.0,0.0,-1.0,-1.0,-1.0,-1.0
1705326558.4391804,0.0,3.0,7.0,2.0,1.0,2.0,0.0,0.0
1705326558.4391804,-3.0,-9.0,-42.0,-5.0,-2.0,0.0,0.0,-1.0
1705326558.4491827,-3.0,-4.0,3.0,-3.0,-3.0,-1.0,-1.0,-2.0
1705326558.4491827,-3.0,2.0,7.0,0.0,1.0,-2.0,-1.0,-1.0
1705326558.459182,-3.0,-1.0,1.0,4.0,2.0,-1.0,-1.0,-1.0
1705326558.459182,-1.0,2.0,10.0,0.0,-1.0,-1.0,0.0,-1.0
1705326558.4792578,1.0,2.0,-10.0,-1.0,-1.0,-3.0,-2.0,0.0
1705326558.4792578,-2.0,-4.0,0.0,-6.0,-4.0,1.0,-3.0,-3.0
1705326558.4892569,-2.0,-3.0,-4.0,1.0,1.0,2.0,1.0,0.0
1705326558.4892569,0.0,0.0,3.0,-4.0,5.0,3.0,1.0,-2.0
1705326558.4892569,0.0,3.0,9.0,10.0,2.0,1.0,0.0,-1.0
1705326558.4892569,-1.0,1.0,1.0,-1.0,1.0,-1.0,-2.0,-1.0
1705326558.499256,-1.0,-2.0,-8.0,2.0,-3.0,-5.0,-2.0,0.0
1705326558.499256,-1.0,3.0,15.0,-3.0,-7.0,-3.0,-4.0,-1.0
1705326558.50935,-2.0,1.0,8.0,-6.0,-9.0,-4.0,-3.0,-1.0
1705326558.50935,0.0,-3.0,-19.0,-6.0,0.0,0.0,-1.0,-1.0
1705326558.519298,-2.0,-4.0,-4.0,-1.0,5.0,2.0,1.0,0.0
1705326558.519298,0.0,-1.0,-3.0,2.0,1.0,-1.0,0.0,0.0
1705326558.5392563,1.0,2.0,21.0,-2.0,-2.0,0.0,0.0,-1.0
1705326558.5392563,0.0,-2.0,-3.0,1.0,-3.0,1.0,0.0,0.0
1705326558.5392563,0.0,-3.0,-5.0,-6.0,-2.0,-2.0,-1.0,-1.0
1705326558.5392563,0.0,-1.0,0.0,0.0,-3.0,-2.0,-3.0,-2.0
1705326558.5492926,0.0,0.0,-9.0,-5.0,-4.0,-1.0,-1.0,-1.0
1705326558.5492926,0.0,2.0,8.0,4.0,-1.0,-1.0,1.0,-1.0
1705326558.5592918,0.0,1.0,1.0,1.0,4.0,4.0,0.0,0.0
1705326558.5592918,-2.0,-2.0,-5.0,3.0,5.0,0.0,-4.0,0.0
1705326558.5692554,1.0,0.0,3.0,1.0,-1.0,0.0,-1.0,0.0
1705326558.5692554,-2.0,-2.0,-12.0,-5.0,-4.0,-1.0,-2.0,-2.0
1705326558.579256,0.0,-1.0,11.0,-3.0,-1.0,-1.0,-1.0,-1.0
1705326558.579256,2.0,4.0,3.0,3.0,-1.0,0.0,0.0,0.0
1705326558.59929,-3.0,-7.0,-27.0,-7.0,-3.0,-2.0,-2.0,-1.0
1705326558.59929,0.0,5.0,9.0,0.0,-2.0,-5.0,-3.0,-3.0
1705326558.59929,-2.0,0.0,7.0,1.0,0.0,1.0,-2.0,0.0
1705326558.59929,-2.0,0.0,-10.0,0.0,3.0,0.0,2.0,0.0
1705326558.6092596,1.0,1.0,-12.0,-1.0,1.0,-1.0,-2.0,-1.0
1705326558.6092596,-1.0,1.0,-2.0,-1.0,-3.0,-1.0,2.0,0.0
1705326558.6196055,-2.0,-5.0,-10.0,-11.0,-8.0,-5.0,-2.0,-3.0
1705326558.6196055,0.0,-1.0,15.0,3.0,-4.0,-1.0,-2.0,-2.0
1705326558.629622,0.0,-1.0,2.0,6.0,5.0,2.0,-1.0,0.0
1705326558.629622,0.0,-1.0,-11.0,3.0,1.0,-1.0,-1.0,1.0
1705326558.639619,1.0,1.0,-2.0,-4.0,-5.0,-1.0,-1.0,-2.0
1705326558.639619,-3.0,-5.0,-6.0,-4.0,-6.0,-3.0,-2.0,-1.0
1705326558.6596231,-3.0,-2.0,6.0,-1.0,0.0,1.0,1.0,0.0
1705326558.6596231,-3.0,-2.0,-13.0,-4.0,2.0,1.0,-1.0,-2.0
1705326558.6596231,-2.0,0.0,-2.0,-1.0,-1.0,-2.0,-1.0,-1.0
1705326558.6596231,-1.0,-3.0,1.0,-2.0,-3.0,-3.0,-1.0,-1.0
1705326558.6796196,-1.0,2.0,10.0,-1.0,-2.0,1.0,-2.0,1.0
1705326558.6796196,-3.0,-4.0,-2.0,-2.0,-2.0,-1.0,-2.0,-3.0
1705326558.6796196,-2.0,-4.0,-8.0,-5.0,-4.0,-4.0,-3.0,-1.0
1705326558.6796196,0.0,2.0,1.0,-1.0,-1.0,0.0,-2.0,0.0
1705326558.697212,-2.0,-7.0,-4.0,1.0,3.0,0.0,1.0,-2.0
1705326558.697212,1.0,-3.0,-5.0,2.0,7.0,3.0,2.0,1.0
1705326558.6991756,0.0,-1.0,-22.0,4.0,3.0,-1.0,-1.0,-1.0
1705326558.6991756,-2.0,2.0,5.0,-2.0,-4.0,-1.0,-2.0,-1.0
1705326558.7220461,-1.0,1.0,0.0,-6.0,-6.0,-4.0,-2.0,-1.0
1705326558.7220461,0.0,2.0,6.0,0.0,-2.0,-2.0,-3.0,-2.0
1705326558.7220461,0.0,0.0,-2.0,0.0,-4.0,0.0,0.0,-2.0
1705326558.7220461,-1.0,-4.0,-4.0,-2.0,-1.0,-2.0,-2.0,-1.0
1705326558.7320497,-1.0,2.0,-4.0,1.0,2.0,1.0,1.0,-1.0
1705326558.7320497,-1.0,-4.0,-9.0,-3.0,0.0,-2.0,0.0,2.0
1705326558.7420497,0.0,1.0,6.0,1.0,1.0,-2.0,1.0,-1.0
1705326558.7420497,-3.0,0.0,4.0,1.0,-1.0,-1.0,2.0,-1.0
1705326558.7520485,-1.0,-3.0,0.0,-6.0,-4.0,-1.0,-3.0,-3.0
1705326558.7520485,-1.0,-1.0,10.0,1.0,-2.0,-1.0,-1.0,-2.0
1705326558.7520485,-1.0,1.0,2.0,-4.0,-3.0,-2.0,0.0,0.0
1705326558.7520485,-2.0,-2.0,3.0,-4.0,-2.0,-1.0,-2.0,1.0
1705326558.7720878,1.0,4.0,-1.0,8.0,4.0,2.0,1.0,-1.0
1705326558.7720878,-3.0,-6.0,0.0,-4.0,-4.0,-1.0,-3.0,0.0
1705326558.7820804,-2.0,-2.0,-17.0,-5.0,-2.0,-2.0,-2.0,-2.0
1705326558.7820804,0.0,-1.0,6.0,0.0,-1.0,1.0,1.0,-1.0
1705326558.7921035,-1.0,3.0,-5.0,-3.0,-3.0,-2.0,-1.0,-2.0
1705326558.7921035,0.0,3.0,13.0,1.0,-3.0,0.0,-1.0,-2.0
1705326558.802052,-1.0,-4.0,8.0,0.0,-5.0,-1.0,-2.0,-2.0
1705326558.802052,-2.0,-3.0,-19.0,-1.0,2.0,-1.0,0.0,1.0
1705326558.822055,0.0,-3.0,14.0,-1.0,1.0,0.0,0.0,1.0
1705326558.822055,-1.0,-2.0,-15.0,-2.0,0.0,-1.0,-2.0,0.0
1705326558.822055,-2.0,1.0,8.0,2.0,-1.0,-2.0,-2.0,-1.0
1705326558.822055,1.0,0.0,-5.0,0.0,-1.0,0.0,0.0,-1.0
1705326558.8320487,1.0,-2.0,7.0,0.0,-5.0,-4.0,-1.0,-1.0
1705326558.8320487,-2.0,2.0,7.0,3.0,1.0,-1.0,0.0,0.0
1705326558.8420513,-1.0,-4.0,-13.0,-1.0,3.0,2.0,0.0,1.0
1705326558.8420513,-1.0,-1.0,-2.0,-3.0,-1.0,-2.0,-2.0,0.0
1705326558.8523898,-2.0,1.0,-5.0,-2.0,1.0,1.0,-2.0,-2.0
1705326558.8523898,-1.0,-1.0,-3.0,-5.0,-2.0,-2.0,-2.0,0.0
1705326558.862048,-1.0,-1.0,-3.0,2.0,1.0,-1.0,-1.0,-1.0
1705326558.862048,0.0,-2.0,-14.0,-1.0,-1.0,-3.0,-2.0,-3.0
1705326558.8820515,-5.0,-9.0,-13.0,-7.0,-6.0,-3.0,-2.0,-2.0
1705326558.8820515,-3.0,0.0,17.0,3.0,0.0,-1.0,-2.0,0.0
1705326558.8820515,0.0,-1.0,-11.0,0.0,-1.0,0.0,-1.0,0.0
1705326558.8820515,0.0,-1.0,4.0,-3.0,-2.0,1.0,-1.0,-2.0
1705326558.8920503,0.0,2.0,-2.0,-1.0,-1.0,0.0,-1.0,0.0
1705326558.8920503,-1.0,-4.0,1.0,0.0,0.0,0.0,-1.0,-2.0
1705326558.9020512,-1.0,-1.0,15.0,1.0,1.0,-2.0,1.0,0.0
1705326558.9020512,-2.0,-3.0,-2.0,-2.0,-1.0,0.0,0.0,-1.0
1705326558.9120538,0.0,1.0,-4.0,4.0,6.0,1.0,1.0,0.0
1705326558.9120538,-1.0,1.0,9.0,3.0,3.0,-1.0,0.0,-2.0
1705326558.92205,0.0,-1.0,0.0,-4.0,-2.0,-1.0,-2.0,-1.0
1705326558.92205,-1.0,-1.0,-2.0,-1.0,-2.0,-1.0,-3.0,0.0
1705326558.9420505,-1.0,-5.0,6.0,-6.0,-5.0,-3.0,-2.0,-1.0
1705326558.9420505,-1.0,-4.0,-7.0,-9.0,-5.0,-1.0,-1.0,0.0
1705326558.9420505,-2.0,-3.0,-2.0,-1.0,0.0,-2.0,-2.0,-1.0
1705326558.9420505,-1.0,1.0,4.0,1.0,3.0,-1.0,0.0,0.0
1705326558.9520745,-1.0,1.0,4.0,0.0,0.0,1.0,0.0,-1.0
1705326558.9520745,0.0,5.0,-11.0,0.0,-1.0,-1.0,0.0,-2.0
1705326558.9620507,0.0,-1.0,11.0,-5.0,-3.0,2.0,-1.0,0.0
1705326558.9620507,1.0,1.0,0.0,2.0,1.0,-1.0,-1.0,0.0
1705326558.9720502,-1.0,-4.0,3.0,2.0,0.0,-4.0,-3.0,-1.0
1705326558.9720502,1.0,0.0,21.0,2.0,-2.0,-2.0,-1.0,-2.0
1705326558.9820535,-2.0,0.0,-9.0,2.0,0.0,-1.0,0.0,-3.0
1705326558.9820535,0.0,-1.0,15.0,-5.0,-4.0,-4.0,0.0,-1.0
1705326558.9920502,-2.0,-5.0,-20.0,-10.0,-5.0,-2.0,-2.0,-3.0
1705326558.9920502,0.0,-1.0,16.0,-2.0,1.0,1.0,0.0,-1.0
1705326559.0020509,0.0,3.0,8.0,4.0,2.0,1.0,1.0,1.0
1705326559.0020509,-1.0,-4.0,-5.0,1.0,1.0,0.0,-1.0,-2.0
1705326559.0120847,1.0,1.0,6.0,2.0,-2.0,-3.0,1.0,-1.0
1705326559.0120847,-1.0,0.0,2.0,0.0,-1.0,-1.0,-2.0,-1.0
1705326559.022096,-1.0,-3.0,-5.0,-1.0,-1.0,-2.0,-3.0,0.0
1705326559.022096,-3.0,0.0,-1.0,0.0,-5.0,-1.0,-2.0,-2.0
1705326559.0320914,-1.0,-1.0,-6.0,-2.0,-1.0,3.0,0.0,-2.0
1705326559.0320914,-1.0,-2.0,-16.0,-1.0,-1.0,-4.0,1.0,0.0
1705326559.0420485,-1.0,2.0,7.0,3.0,3.0,3.0,0.0,0.0
1705326559.0420485,-1.0,-2.0,-4.0,-1.0,-1.0,-1.0,-2.0,-3.0
1705326559.0520875,-1.0,-3.0,2.0,-2.0,-2.0,-4.0,-4.0,-2.0
1705326559.0520875,-2.0,-2.0,-6.0,-3.0,-2.0,-1.0,-1.0,-3.0
1705326559.0620823,1.0,-3.0,-31.0,-2.0,0.0,0.0,0.0,-2.0
1705326559.0620823,-1.0,2.0,5.0,3.0,5.0,3.0,1.0,1.0
1705326559.0720885,-1.0,0.0,3.0,2.0,3.0,1.0,0.0,-1.0
1705326559.0720885,0.0,-1.0,-7.0,0.0,-2.0,-3.0,-1.0,-1.0
1705326559.0820484,-1.0,2.0,16.0,-4.0,-7.0,-5.0,-2.0,-2.0
1705326559.0820484,-2.0,-4.0,-23.0,-7.0,-4.0,-4.0,-1.0,-3.0
1705326559.0922737,-1.0,-2.0,-6.0,-3.0,-1.0,-2.0,-2.0,0.0
1705326559.0922737,-1.0,1.0,-3.0,-3.0,-2.0,1.0,-1.0,-1.0
1705326559.1120496,0.0,0.0,18.0,6.0,1.0,-2.0,-1.0,-1.0
1705326559.1120496,-2.0,-4.0,-29.0,-5.0,-2.0,-3.0,-1.0,-2.0
1705326559.1120496,-2.0,0.0,3.0,3.0,2.0,1.0,0.0,-1.0
1705326559.1120496,0.0,-1.0,-3.0,-3.0,0.0,-1.0,-2.0,-1.0
1705326559.1220505,-1.0,-2.0,-1.0,-2.0,-1.0,-2.0,-2.0,-1.0
1705326559.1220505,-2.0,0.0,14.0,0.0,-2.0,-3.0,-2.0,-1.0
1705326559.132084,-1.0,-2.0,-15.0,-8.0,-4.0,-4.0,-3.0,-2.0
1705326559.132084,-1.0,-4.0,-5.0,1.0,0.0,1.0,-3.0,0.0
1705326559.152078,0.0,2.0,11.0,2.0,4.0,2.0,0.0,1.0
1705326559.152078,0.0,0.0,-2.0,-1.0,1.0,2.0,1.0,-1.0
1705326559.1620827,-2.0,-1.0,-20.0,-2.0,-2.0,-2.0,1.0,-1.0
1705326559.1620827,-1.0,-1.0,1.0,-2.0,-3.0,-3.0,-1.0,0.0
1705326559.1620827,-3.0,-1.0,1.0,-5.0,-4.0,-3.0,-3.0,-2.0
1705326559.1620827,-1.0,-1.0,5.0,-2.0,-4.0,-2.0,-3.0,0.0
1705326559.182049,1.0,-1.0,-10.0,1.0,1.0,1.0,0.0,-2.0
1705326559.182049,-1.0,-1.0,16.0,3.0,2.0,2.0,0.0,-1.0
1705326559.182049,-1.0,-1.0,-8.0,-2.0,-1.0,-1.0,0.0,1.0
1705326559.182049,-2.0,-3.0,7.0,-3.0,-4.0,-2.0,0.0,-2.0
1705326559.202051,0.0,0.0,-10.0,0.0,-2.0,0.0,1.0,-1.0
1705326559.202051,-1.0,-1.0,-1.0,0.0,4.0,0.0,1.0,0.0
1705326559.212051,0.0,-1.0,-8.0,4.0,3.0,1.0,0.0,-1.0
1705326559.212051,-2.0,0.0,9.0,-1.0,-4.0,-1.0,-2.0,-1.0
1705326559.2226555,-2.0,1.0,15.0,6.0,-2.0,-1.0,-2.0,0.0
1705326559.2226555,-1.0,-1.0,-22.0,-4.0,-4.0,-3.0,-3.0,-3.0
1705326559.2236564,-2.0,-5.0,-2.0,-5.0,-3.0,-2.0,-1.0,0.0
1705326559.2246568,1.0,1.0,11.0,1.0,2.0,0.0,2.0,-2.0
1705326559.2369118,0.0,0.0,7.0,-4.0,-2.0,-2.0,0.0,2.0
1705326559.2369118,-1.0,0.0,-2.0,1.0,-2.0,-1.0,1.0,-1.0
1705326559.2431998,-2.0,-2.0,-7.0,-4.0,-2.0,-3.0,-3.0,-2.0
1705326559.2442002,-2.0,3.0,8.0,2.0,0.0,-1.0,0.0,-1.0
1705326559.2650218,-2.0,-4.0,-9.0,-2.0,-1.0,-2.0,-3.0,-1.0
1705326559.2650218,-2.0,-3.0,1.0,-2.0,0.0,-1.0,-1.0,0.0
1705326559.2650218,-2.0,-2.0,-1.0,-1.0,-4.0,-2.0,0.0,-2.0
1705326559.2650218,0.0,-2.0,8.0,1.0,0.0,-1.0,-3.0,0.0
1705326559.2750304,1.0,0.0,-11.0,-3.0,0.0,-1.0,-1.0,-3.0
1705326559.2750304,0.0,-1.0,-3.0,-1.0,-2.0,-2.0,1.0,0.0
1705326559.2750304,-1.0,-2.0,-5.0,-1.0,-1.0,-2.0,-1.0,-2.0
1705326559.2750304,0.0,-4.0,-17.0,-1.0,-1.0,-2.0,-2.0,-1.0
1705326559.2950609,0.0,-2.0,17.0,0.0,-1.0,-3.0,-2.0,0.0
1705326559.2950609,-2.0,-4.0,-12.0,-3.0,0.0,0.0,-2.0,-1.0
1705326559.3150234,0.0,2.0,15.0,8.0,-2.0,-2.0,0.0,-2.0
1705326559.3150234,-2.0,-1.0,-26.0,-7.0,0.0,1.0,-1.0,0.0
1705326559.3150234,-1.0,0.0,5.0,3.0,4.0,-1.0,1.0,0.0
1705326559.3150234,-1.0,1.0,11.0,0.0,-2.0,-1.0,-2.0,0.0
1705326559.3150234,-2.0,0.0,-6.0,-5.0,-4.0,-3.0,-3.0,-1.0
1705326559.3150234,-1.0,-2.0,-2.0,-2.0,-1.0,-1.0,0.0,0.0
1705326559.3353512,-1.0,0.0,4.0,-3.0,-3.0,0.0,-3.0,-2.0
1705326559.3353512,0.0,1.0,7.0,0.0,-2.0,-1.0,0.0,-1.0
1705326559.3353512,0.0,-2.0,-8.0,-2.0,-1.0,-2.0,0.0,-1.0
1705326559.3353512,-2.0,-1.0,2.0,-5.0,-2.0,-2.0,-1.0,-1.0
1705326559.3550265,-1.0,0.0,0.0,2.0,0.0,2.0,-1.0,0.0
1705326559.3550265,-1.0,-1.0,11.0,4.0,0.0,-1.0,-1.0,-2.0
1705326559.3650239,-1.0,-6.0,-22.0,-6.0,-3.0,-1.0,0.0,-2.0
1705326559.3650239,-1.0,-8.0,-33.0,-4.0,-2.0,-1.0,-2.0,-1.0
1705326559.3850245,0.0,1.0,9.0,-1.0,-2.0,-3.0,0.0,0.0
1705326559.3850245,-1.0,1.0,-8.0,-1.0,-1.0,0.0,-1.0,-1.0
1705326559.3850245,0.0,0.0,10.0,0.0,1.0,0.0,1.0,-2.0
1705326559.3850245,0.0,4.0,12.0,3.0,4.0,2.0,0.0,0.0
1705326559.4050257,-1.0,-2.0,-8.0,-1.0,-3.0,-2.0,-3.0,-2.0
1705326559.4050257,-2.0,-7.0,-21.0,-6.0,-2.0,0.0,-2.0,0.0
1705326559.4050257,0.0,2.0,14.0,-1.0,-1.0,-1.0,-1.0,1.0
1705326559.4050257,1.0,1.0,-6.0,1.0,-5.0,-5.0,-3.0,-1.0
1705326559.4150226,0.0,-1.0,2.0,-3.0,-4.0,-1.0,-2.0,-1.0
1705326559.4150226,-1.0,1.0,2.0,-1.0,-1.0,-2.0,-1.0,-1.0
1705326559.425029,-1.0,-2.0,4.0,-4.0,1.0,1.0,-1.0,-1.0
1705326559.425029,-2.0,-1.0,3.0,0.0,-2.0,-1.0,-1.0,-2.0
1705326559.4350276,-2.0,-3.0,-3.0,3.0,1.0,3.0,1.0,-3.0
1705326559.4350276,-1.0,-5.0,-6.0,-7.0,-1.0,-2.0,0.0,-2.0
1705326559.4350276,0.0,3.0,3.0,4.0,1.0,0.0,-2.0,0.0
1705326559.4350276,-1.0,-7.0,-6.0,-1.0,-1.0,-2.0,-1.0,-1.0
1705326559.4550536,-1.0,-1.0,-2.0,-2.0,1.0,-3.0,-1.0,1.0
1705326559.4550536,0.0,0.0,5.0,0.0,-2.0,-1.0,1.0,-1.0
1705326559.4550536,1.0,-1.0,-1.0,-2.0,-4.0,-2.0,-1.0,-1.0
1705326559.4550536,-1.0,1.0,12.0,-1.0,-1.0,1.0,-1.0,-1.0
1705326559.4750228,-2.0,-4.0,-7.0,-3.0,-4.0,-2.0,-1.0,-1.0
1705326559.4750228,-1.0,-1.0,3.0,-3.0,-2.0,0.0,-2.0,-2.0
1705326559.4850223,-2.0,-1.0,-11.0,0.0,1.0,-2.0,0.0,1.0
1705326559.4850223,-1.0,0.0,2.0,1.0,2.0,1.0,2.0,-1.0
1705326559.495024,0.0,0.0,2.0,-2.0,0.0,1.0,-1.0,0.0
1705326559.495024,-2.0,2.0,-2.0,1.0,-3.0,-1.0,-2.0,0.0
1705326559.495024,-2.0,-1.0,2.0,-2.0,-2.0,0.0,-2.0,0.0
1705326559.495024,0.0,1.0,6.0,0.0,-2.0,-1.0,-1.0,-2.0
1705326559.5150716,-2.0,-2.0,-9.0,-3.0,-1.0,-2.0,0.0,-2.0
1705326559.5150716,0.0,1.0,4.0,-1.0,-1.0,-2.0,-2.0,0.0
1705326559.5150716,0.0,-1.0,-1.0,0.0,-3.0,-2.0,-2.0,-1.0
1705326559.5150716,-1.0,0.0,-4.0,-1.0,-4.0,-4.0,-2.0,-1.0
1705326559.5350664,0.0,-1.0,-17.0,-3.0,-1.0,-1.0,-1.0,-2.0
1705326559.5350664,-1.0,-1.0,6.0,2.0,4.0,2.0,0.0,0.0
1705326559.5350664,0.0,-2.0,3.0,1.0,1.0,0.0,0.0,0.0
1705326559.5350664,0.0,-1.0,-6.0,0.0,-3.0,0.0,0.0,-1.0
1705326559.5550237,0.0,-2.0,-2.0,-4.0,-5.0,-3.0,-3.0,0.0
1705326559.5550237,-1.0,0.0,-8.0,-2.0,-4.0,-2.0,-1.0,-2.0
1705326559.5550237,-2.0,0.0,1.0,2.0,4.0,1.0,2.0,0.0
1705326559.5550237,-1.0,-2.0,8.0,1.0,1.0,0.0,-2.0,0.0
1705326559.5950246,0.0,-1.0,-8.0,-2.0,3.0,1.0,0.0,-2.0
1705326559.5950246,0.0,-2.0,-5.0,-3.0,-1.0,0.0,-1.0,-1.0
1705326559.6050227,0.0,-1.0,4.0,-4.0,-4.0,-2.0,-2.0,-1.0
1705326559.6050227,0.0,2.0,6.0,0.0,-1.0,-1.0,-1.0,-1.0
1705326559.6050227,-1.0,2.0,7.0,1.0,-3.0,0.0,1.0,-1.0
1705326559.6050227,0.0,-1.0,1.0,4.0,0.0,-2.0,-2.0,-1.0
1705326559.6050227,0.0,-1.0,-3.0,-4.0,-2.0,-2.0,-1.0,-2.0
1705326559.6050227,-3.0,-2.0,-8.0,-4.0,0.0,1.0,-1.0,1.0
1705326559.6150248,-1.0,0.0,15.0,9.0,2.0,0.0,0.0,1.0
1705326559.6150248,-1.0,-1.0,3.0,0.0,-1.0,0.0,-1.0,0.0
1705326559.6150248,-1.0,-3.0,-13.0,-3.0,-1.0,-2.0,-2.0,-1.0
1705326559.6150248,0.0,0.0,3.0,0.0,-1.0,-2.0,-1.0,-1.0
1705326559.635028,-2.0,1.0,11.0,-3.0,-3.0,-1.0,0.0,0.0
1705326559.635028,-1.0,-2.0,0.0,0.0,1.0,1.0,1.0,-1.0
1705326559.635028,-2.0,-2.0,0.0,-1.0,-4.0,-2.0,-2.0,-1.0
1705326559.635028,-3.0,-1.0,-12.0,-5.0,-1.0,-1.0,-2.0,-2.0
1705326559.665027,-2.0,-1.0,-7.0,0.0,0.0,-2.0,0.0,1.0
1705326559.665027,-1.0,-2.0,-9.0,-5.0,-5.0,-4.0,-3.0,-1.0
1705326559.665027,-1.0,1.0,4.0,-4.0,-3.0,-2.0,1.0,-3.0
1705326559.665027,0.0,-1.0,9.0,3.0,-1.0,1.0,2.0,-1.0
1705326559.6750238,0.0,-3.0,1.0,1.0,2.0,4.0,0.0,-1.0
1705326559.6750238,1.0,-1.0,-1.0,1.0,1.0,0.0,0.0,0.0
1705326559.6750238,-2.0,-2.0,-3.0,0.0,-1.0,-1.0,-1.0,-1.0
1705326559.6750238,-1.0,2.0,11.0,-2.0,-4.0,-4.0,-3.0,-2.0
1705326559.6950226,-2.0,-2.0,-19.0,-1.0,0.0,-3.0,-3.0,-2.0
1705326559.6950226,0.0,1.0,-1.0,-3.0,0.0,0.0,0.0,1.0
1705326559.6950226,0.0,-2.0,6.0,-2.0,-3.0,0.0,-2.0,-2.0
1705326559.6950226,0.0,-1.0,-14.0,2.0,1.0,-2.0,0.0,-1.0
1705326559.7150238,1.0,-1.0,3.0,-1.0,0.0,0.0,-3.0,-1.0
1705326559.7150238,-3.0,-1.0,2.0,-1.0,0.0,0.0,-2.0,-2.0
1705326559.7250252,-1.0,-1.0,-11.0,0.0,0.0,-1.0,0.0,0.0
1705326559.7250252,-2.0,-3.0,6.0,-1.0,-1.0,-3.0,-1.0,-1.0
1705326559.735064,-1.0,-3.0,-1.0,-6.0,-6.0,-3.0,-3.0,-4.0
1705326559.735064,-1.0,-3.0,-12.0,-3.0,0.0,-1.0,-2.0,-1.0
1705326559.735064,0.0,-1.0,1.0,0.0,1.0,2.0,-1.0,-1.0
1705326559.735064,-1.0,0.0,3.0,1.0,0.0,1.0,1.0,2.0
1705326559.762871,0.0,1.0,3.0,4.0,2.0,0.0,0.0,0.0
1705326559.762871,-2.0,1.0,4.0,3.0,-1.0,-2.0,-1.0,-1.0
1705326559.7638733,-3.0,-1.0,-6.0,-2.0,-5.0,-2.0,-1.0,-1.0
1705326559.7638733,-1.0,0.0,-7.0,-4.0,-2.0,-1.0,-2.0,-2.0
1705326559.7850113,-1.0,0.0,6.0,-1.0,-1.0,-1.0,-3.0,-1.0
1705326559.7850113,-2.0,-1.0,-1.0,-1.0,-1.0,-1.0,-1.0,0.0
1705326559.7876842,-1.0,-3.0,-8.0,0.0,3.0,3.0,1.0,0.0
1705326559.7876842,1.0,0.0,1.0,-1.0,-2.0,0.0,-2.0,-1.0
1705326559.7977273,0.0,0.0,9.0,-2.0,-4.0,-4.0,-2.0,-3.0
1705326559.7977273,0.0,1.0,-16.0,-2.0,-2.0,-1.0,-2.0,-2.0
1705326559.7977273,-1.0,0.0,1.0,1.0,1.0,-1.0,-1.0,1.0
1705326559.7977273,-1.0,-1.0,-4.0,-1.0,0.0,1.0,-1.0,0.0
1705326559.8277266,0.0,-2.0,-7.0,-2.0,-2.0,-1.0,-2.0,0.0
1705326559.8277266,1.0,1.0,7.0,-5.0,-5.0,-5.0,-2.0,-1.0
1705326559.8277266,-2.0,-1.0,2.0,0.0,-2.0,1.0,-1.0,-1.0
1705326559.8277266,-3.0,-2.0,-1.0,0.0,6.0,1.0,1.0,-2.0
1705326559.8277266,-1.0,2.0,7.0,9.0,7.0,2.0,0.0,0.0
1705326559.8277266,-1.0,-2.0,-12.0,-2.0,-3.0,0.0,-1.0,-1.0
1705326559.837688,-1.0,-2.0,1.0,-3.0,-4.0,-5.0,-2.0,-2.0
1705326559.837688,-1.0,0.0,5.0,-4.0,-6.0,-2.0,0.0,-1.0
1705326559.8676872,-2.0,-3.0,3.0,-6.0,-2.0,-2.0,-2.0,-1.0
1705326559.8676872,-1.0,0.0,10.0,2.0,0.0,0.0,0.0,-1.0
1705326559.8676872,0.0,-1.0,0.0,-4.0,-3.0,-3.0,-2.0,-2.0
1705326559.8676872,-2.0,-2.0,-12.0,0.0,0.0,-2.0,-2.0,-1.0
1705326559.8876905,0.0,0.0,1.0,-1.0,0.0,-1.0,-2.0,-1.0
1705326559.8876905,1.0,-1.0,9.0,1.0,-1.0,1.0,0.0,-1.0
1705326559.8876905,0.0,-1.0,-13.0,-2.0,-1.0,-1.0,-2.0,-2.0
1705326559.8876905,-1.0,-3.0,7.0,-2.0,-3.0,-1.0,-2.0,0.0
1705326559.8876905,-3.0,-1.0,-8.0,-2.0,-1.0,0.0,0.0,-1.0
1705326559.8876905,-2.0,-2.0,3.0,2.0,3.0,0.0,-1.0,0.0
1705326559.8976915,-3.0,1.0,1.0,3.0,5.0,1.0,1.0,0.0
1705326559.8976915,-2.0,-3.0,-5.0,-1.0,-2.0,-1.0,-2.0,-1.0
1705326559.9176884,-2.0,-3.0,-14.0,-4.0,-3.0,1.0,-1.0,-1.0
1705326559.9176884,-1.0,0.0,-1.0,0.0,-3.0,-1.0,0.0,-1.0
1705326559.9176884,-1.0,-4.0,5.0,-3.0,-4.0,-4.0,-2.0,-1.0
1705326559.9176884,-1.0,0.0,0.0,0.0,-1.0,1.0,-1.0,0.0
1705326559.9476862,-1.0,0.0,6.0,1.0,-1.0,-1.0,0.0,1.0
1705326559.9476862,0.0,0.0,-1.0,1.0,0.0,-1.0,-1.0,0.0
1705326559.9476862,-3.0,-1.0,-7.0,-2.0,-1.0,0.0,-2.0,0.0
1705326559.9476862,-1.0,-2.0,4.0,-1.0,-5.0,-3.0,-2.0,-3.0
1705326559.9476862,-2.0,-2.0,-1.0,-3.0,0.0,0.0,0.0,1.0
1705326559.9476862,-1.0,0.0,10.0,0.0,0.0,-2.0,-1.0,-2.0
1705326559.957688,0.0,2.0,-3.0,0.0,-2.0,-2.0,-2.0,0.0
1705326559.957688,-1.0,-5.0,-23.0,-3.0,0.0,1.0,0.0,-1.0
1705326559.977689,-1.0,-1.0,7.0,-1.0,-2.0,-2.0,-2.0,-2.0
1705326559.977689,1.0,1.0,-1.0,-3.0,-1.0,0.0,-2.0,-3.0
1705326559.9877234,-1.0,-2.0,4.0,3.0,3.0,-1.0,-1.0,-1.0
1705326559.9877234,-1.0,1.0,6.0,1.0,0.0,-1.0,-1.0,0.0
1705326559.9977305,0.0,-1.0,-12.0,0.0,-1.0,-1.0,-3.0,-2.0
1705326559.9977305,-1.0,-3.0,-5.0,-1.0,-1.0,1.0,-1.0,-2.0
1705326559.9977305,1.0,0.0,0.0,-3.0,-2.0,0.0,-1.0,-1.0
1705326559.9977305,-1.0,-2.0,-4.0,1.0,0.0,0.0,-1.0,-2.0
1705326560.0077293,-1.0,-2.0,3.0,-3.0,-2.0,-3.0,-1.0,-1.0
1705326560.0077293,-1.0,0.0,6.0,-2.0,-2.0,-1.0,-3.0,-3.0
1705326560.0177064,-1.0,-2.0,-4.0,1.0,0.0,0.0,0.0,-1.0
1705326560.0177064,-1.0,-3.0,6.0,-1.0,0.0,-1.0,1.0,-1.0
1705326560.0379238,0.0,-1.0,-2.0,0.0,-2.0,0.0,-1.0,-2.0
1705326560.0379238,-3.0,-4.0,4.0,-1.0,-2.0,-2.0,-1.0,-1.0
1705326560.0379238,-3.0,-3.0,-9.0,-2.0,-3.0,-1.0,0.0,-2.0
1705326560.0379238,0.0,-1.0,8.0,-3.0,-2.0,-3.0,-3.0,-2.0
1705326560.0677269,-1.0,1.0,3.0,-1.0,-3.0,-1.0,-1.0,0.0
1705326560.0677269,-2.0,-4.0,-20.0,-1.0,4.0,-1.0,0.0,0.0
1705326560.0677269,1.0,1.0,11.0,2.0,4.0,2.0,0.0,-2.0
1705326560.0677269,-1.0,0.0,0.0,-4.0,-6.0,-4.0,-2.0,1.0
1705326560.0677269,-2.0,-3.0,-4.0,-3.0,-5.0,-2.0,-2.0,-1.0
1705326560.0677269,0.0,1.0,-2.0,1.0,1.0,-1.0,-1.0,-2.0
1705326560.077689,-1.0,1.0,2.0,2.0,2.0,2.0,2.0,1.0
1705326560.077689,-2.0,-3.0,-12.0,-4.0,2.0,0.0,0.0,-1.0
1705326560.0976863,0.0,-2.0,1.0,-5.0,-5.0,-2.0,0.0,-1.0
1705326560.0976863,1.0,0.0,3.0,-1.0,-4.0,-4.0,-3.0,-2.0
1705326560.0976863,-1.0,0.0,-9.0,-4.0,-4.0,-4.0,-4.0,-5.0
1705326560.0976863,1.0,0.0,12.0,1.0,1.0,0.0,-1.0,0.0
1705326560.1176891,-2.0,-3.0,-26.0,-3.0,2.0,0.0,-1.0,-1.0
1705326560.1176891,-1.0,0.0,-1.0,0.0,1.0,0.0,1.0,-1.0
1705326560.1176891,0.0,0.0,14.0,-2.0,-3.0,-3.0,1.0,-2.0
1705326560.1176891,0.0,1.0,-1.0,-1.0,-2.0,0.0,-1.0,0.0
1705326560.1376874,-2.0,-1.0,3.0,0.0,-2.0,0.0,-1.0,-1.0
1705326560.1376874,-3.0,-3.0,-8.0,0.0,0.0,-1.0,-1.0,2.0
1705326560.1476874,0.0,0.0,3.0,1.0,-1.0,-1.0,-2.0,0.0
1705326560.1476874,0.0,-2.0,-4.0,1.0,-1.0,-2.0,-1.0,-1.0
1705326560.1576865,-1.0,-1.0,5.0,-1.0,1.0,1.0,1.0,-2.0
1705326560.1676893,-2.0,1.0,0.0,-2.0,-1.0,0.0,-1.0,-1.0
1705326560.1676893,-1.0,-5.0,-11.0,-5.0,0.0,0.0,-2.0,0.0
1705326560.1676893,-1.0,0.0,2.0,2.0,1.0,-1.0,2.0,-2.0
1705326560.177726,-1.0,0.0,2.0,2.0,3.0,-2.0,-1.0,-2.0
1705326560.177726,0.0,-1.0,1.0,-4.0,-6.0,-2.0,-2.0,-1.0
1705326560.177726,0.0,0.0,0.0,-5.0,-5.0,-2.0,-1.0,-1.0
1705326560.177726,0.0,-2.0,-12.0,1.0,1.0,4.0,-1.0,-1.0
1705326560.2077212,0.0,1.0,8.0,1.0,2.0,1.0,-1.0,-1.0
1705326560.2077212,0.0,-1.0,-4.0,-1.0,-1.0,-2.0,-1.0,-1.0
1705326560.2077212,-2.0,-2.0,4.0,-3.0,-4.0,-1.0,-1.0,0.0
1705326560.2077212,-2.0,0.0,2.0,-3.0,-5.0,-3.0,-1.0,1.0
1705326560.2177362,0.0,-1.0,3.0,2.0,3.0,-3.0,0.0,-1.0
1705326560.2177362,0.0,0.0,2.0,2.0,3.0,0.0,0.0,2.0
1705326560.2177362,-1.0,-2.0,-12.0,1.0,0.0,-2.0,-1.0,-2.0
1705326560.2177362,-1.0,1.0,4.0,-3.0,-3.0,-2.0,-2.0,-2.0
1705326560.2377317,-1.0,0.0,-1.0,-2.0,-2.0,0.0,1.0,-1.0
1705326560.2377317,-1.0,0.0,5.0,0.0,-3.0,-2.0,0.0,-1.0
