1705327297.6788125,-1.0,-4.0,16.0,2.0,1.0,1.0,-5.0,-31.0
1705327297.6788125,-2.0,-1.0,6.0,-3.0,-2.0,-3.0,-1.0,-3.0
1705327297.6788125,-4.0,-1.0,-8.0,-5.0,-2.0,-4.0,-1.0,1.0
1705327297.6788125,3.0,4.0,-8.0,3.0,1.0,1.0,3.0,13.0
1705327297.7088118,-4.0,-1.0,7.0,-2.0,-3.0,-1.0,-1.0,-18.0
1705327297.7088118,-2.0,-2.0,0.0,-9.0,-11.0,-5.0,-7.0,-15.0
1705327297.7088118,-2.0,-1.0,-6.0,-8.0,-11.0,-6.0,-27.0,-6.0
1705327297.7088118,0.0,-3.0,-13.0,20.0,22.0,21.0,8.0,10.0
1705327297.7188132,0.0,-2.0,-10.0,17.0,34.0,-3.0,17.0,17.0
1705327297.7188132,-1.0,3.0,23.0,4.0,2.0,3.0,16.0,1.0
1705327297.7288134,-2.0,-5.0,-14.0,-16.0,-16.0,-8.0,-1.0,5.0
1705327297.7288134,-3.0,-2.0,10.0,-10.0,-19.0,-10.0,-12.0,-30.0
1705327297.7388155,3.0,-1.0,1.0,-7.0,-16.0,-4.0,-7.0,20.0
1705327297.7388155,4.0,10.0,-5.0,5.0,2.0,-2.0,-5.0,3.0
1705327297.7388155,0.0,-3.0,19.0,6.0,4.0,-1.0,0.0,9.0
1705327297.7388155,-7.0,5.0,-29.0,-9.0,-2.0,-2.0,-1.0,-6.0
1705327297.768812,-1.0,-21.0,0.0,-5.0,-6.0,-2.0,-3.0,10.0
1705327297.768812,-2.0,-2.0,-12.0,1.0,3.0,1.0,-3.0,-23.0
1705327297.768812,-7.0,3.0,7.0,3.0,3.0,4.0,4.0,-12.0
1705327297.768812,8.0,-14.0,46.0,11.0,3.0,-4.0,0.0,42.0
1705327297.778817,-8.0,-9.0,-35.0,-13.0,-6.0,1.0,-9.0,-52.0
1705327297.778817,13.0,9.0,10.0,7.0,-2.0,-6.0,-5.0,19.0
1705327297.7888107,-18.0,-66.0,-23.0,-15.0,-4.0,-2.0,-2.0,-31.0
1705327297.7888107,6.0,-36.0,-55.0,0.0,6.0,2.0,6.0,-4.0
1705327297.808811,-14.0,17.0,81.0,12.0,-2.0,-3.0,-6.0,11.0
1705327297.808811,-14.0,-25.0,-30.0,-13.0,-5.0,1.0,-5.0,-5.0
1705327297.808811,6.0,11.0,-66.0,6.0,3.0,-1.0,4.0,-4.0
1705327297.808811,-6.0,-66.0,-28.0,-10.0,-4.0,-3.0,-1.0,-5.0
1705327297.818813,12.0,22.0,-30.0,-7.0,-4.0,0.0,-3.0,17.0
1705327297.818813,-24.0,-30.0,9.0,-1.0,3.0,1.0,-4.0,-5.0
1705327297.8288107,6.0,24.0,58.0,11.0,5.0,7.0,10.0,25.0
1705327297.8288107,4.0,5.0,-6.0,-5.0,-8.0,3.0,10.0,-14.0
1705327297.838852,3.0,-26.0,-36.0,-6.0,0.0,-9.0,-15.0,-23.0
1705327297.838852,6.0,-22.0,5.0,9.0,4.0,-1.0,-3.0,11.0
1705327297.8488128,1.0,46.0,50.0,4.0,-2.0,-7.0,-11.0,-4.0
1705327297.8488128,5.0,-9.0,-75.0,-19.0,8.0,-4.0,-30.0,13.0
1705327297.8588357,-27.0,-1.0,35.0,-3.0,-27.0,-5.0,22.0,-20.0
1705327297.8588357,29.0,20.0,9.0,16.0,23.0,20.0,20.0,76.0
1705327297.8588357,-42.0,5.0,-8.0,13.0,21.0,-6.0,-9.0,-64.0
1705327297.8588357,-4.0,49.0,61.0,-5.0,-12.0,-10.0,-14.0,29.0
1705327297.8788137,3.0,27.0,8.0,-5.0,-12.0,3.0,-16.0,22.0
1705327297.8788137,-13.0,-15.0,7.0,-19.0,-16.0,-9.0,-36.0,-22.0
1705327297.8888113,-12.0,-3.0,-16.0,-19.0,-43.0,-21.0,23.0,-11.0
1705327297.8888113,7.0,6.0,14.0,14.0,35.0,22.0,45.0,39.0
1705327297.898813,19.0,-52.0,-10.0,32.0,45.0,-4.0,-9.0,2.0
1705327297.898813,-4.0,120.0,33.0,-11.0,-22.0,-14.0,2.0,-5.0
1705327297.9088156,33.0,-28.0,-5.0,-51.0,-69.0,-52.0,-22.0,18.0
1705327297.9088156,-12.0,14.0,-2.0,-23.0,-9.0,5.0,6.0,-1.0
1705327297.9288106,-3.0,-10.0,-3.0,-44.0,-100.0,38.0,27.0,19.0
1705327297.9288106,-31.0,-74.0,-8.0,95.0,106.0,47.0,-16.0,-57.0
1705327297.9288106,-16.0,-27.0,2.0,76.0,93.0,23.0,-13.0,5.0
1705327297.9288106,3.0,23.0,9.0,-69.0,-61.0,-90.0,-29.0,-50.0
1705327297.938813,4.0,25.0,-9.0,-21.0,108.0,40.0,36.0,31.0
1705327297.938813,0.0,19.0,30.0,45.0,89.0,116.0,32.0,32.0
1705327297.9488108,-8.0,9.0,20.0,108.0,88.0,8.0,0.0,-78.0
1705327297.9488108,-25.0,71.0,52.0,27.0,-5.0,-59.0,3.0,-1.0
1705327297.9588516,14.0,-3.0,-31.0,-79.0,-108.0,-79.0,-29.0,-17.0
1705327297.9588516,11.0,-102.0,-67.0,-128.0,-128.0,-98.0,-23.0,77.0
1705327297.9788105,-5.0,6.0,-14.0,-70.0,-48.0,13.0,-12.0,-29.0
1705327297.9788105,-17.0,-10.0,-20.0,-15.0,-27.0,58.0,-19.0,0.0
1705327297.9788105,-24.0,18.0,-28.0,13.0,23.0,-38.0,-9.0,-34.0
1705327297.9788105,-7.0,9.0,-4.0,-1.0,16.0,-33.0,17.0,-14.0
1705327297.9788105,16.0,-24.0,13.0,5.0,-31.0,-39.0,-8.0,43.0
1705327297.9788105,5.0,-28.0,-13.0,-31.0,25.0,27.0,6.0,-12.0
1705327297.9988155,3.0,29.0,4.0,17.0,-12.0,58.0,24.0,0.0
1705327298.0088143,-2.0,-20.0,11.0,54.0,68.0,-27.0,-28.0,-36.0
1705327298.0088143,17.0,27.0,30.0,13.0,49.0,49.0,28.0,41.0
1705327298.0088143,11.0,18.0,28.0,45.0,20.0,21.0,5.0,-23.0
1705327298.0188155,0.0,-11.0,-61.0,3.0,14.0,-13.0,-3.0,14.0
1705327298.0188155,4.0,14.0,-32.0,-31.0,-47.0,3.0,8.0,-10.0
1705327298.0430906,-10.0,-34.0,-21.0,-53.0,-56.0,-20.0,-11.0,-2.0
1705327298.0430906,-9.0,1.0,-1.0,-13.0,-15.0,-4.0,-4.0,-2.0
1705327298.04509,4.0,-20.0,9.0,17.0,8.0,-2.0,-11.0,2.0
1705327298.04509,5.0,29.0,17.0,-9.0,-15.0,-7.0,4.0,-17.0
1705327298.0460906,5.0,11.0,-55.0,-19.0,-7.0,6.0,5.0,34.0
1705327298.0460906,2.0,-27.0,10.0,22.0,9.0,0.0,-2.0,-8.0
1705327298.0649655,-4.0,4.0,12.0,13.0,14.0,3.0,-4.0,17.0
1705327298.0649655,17.0,22.0,4.0,-5.0,-12.0,-6.0,-1.0,-19.0
1705327298.0649655,-5.0,0.0,12.0,-9.0,2.0,8.0,0.0,-19.0
1705327298.0649655,-4.0,4.0,-4.0,18.0,9.0,8.0,2.0,3.0
1705327298.074971,-5.0,-8.0,-1.0,5.0,3.0,-6.0,-13.0,-3.0
1705327298.074971,1.0,12.0,-2.0,-11.0,-7.0,-1.0,4.0,-8.0
1705327298.0949953,6.0,-2.0,45.0,-4.0,-4.0,3.0,0.0,2.0
1705327298.0949953,0.0,-24.0,-31.0,4.0,0.0,0.0,2.0,4.0
1705327298.1049683,-8.0,-24.0,33.0,1.0,3.0,-1.0,-5.0,-8.0
1705327298.1049683,-5.0,9.0,-28.0,-9.0,-7.0,-3.0,3.0,3.0
1705327298.1049683,-3.0,-8.0,33.0,0.0,0.0,5.0,2.0,8.0
1705327298.1049683,-5.0,-6.0,-13.0,-2.0,-4.0,-3.0,-8.0,-18.0
1705327298.1249688,9.0,11.0,23.0,9.0,6.0,-1.0,-2.0,9.0
1705327298.1249688,-2.0,-1.0,-6.0,-6.0,-6.0,-9.0,-7.0,-10.0
1705327298.1249688,-2.0,7.0,-4.0,2.0,-8.0,-3.0,1.0,17.0
1705327298.1249688,-1.0,-2.0,1.0,9.0,19.0,0.0,-4.0,-6.0
1705327298.144968,11.0,-40.0,-2.0,9.0,4.0,3.0,1.0,21.0
1705327298.144968,-40.0,10.0,30.0,-5.0,-4.0,-4.0,-7.0,-35.0
1705327298.144968,11.0,1.0,-86.0,-19.0,-12.0,-3.0,-4.0,10.0
1705327298.144968,6.0,-7.0,12.0,-8.0,-19.0,-9.0,-2.0,2.0
1705327298.164972,9.0,18.0,26.0,4.0,26.0,11.0,6.0,-2.0
1705327298.164972,12.0,-1.0,1.0,-2.0,-15.0,-2.0,5.0,37.0
1705327298.164972,-4.0,-4.0,-10.0,-9.0,-12.0,-4.0,5.0,15.0
1705327298.164972,-9.0,13.0,-1.0,14.0,27.0,9.0,5.0,0.0
1705327298.185008,-35.0,-3.0,3.0,-3.0,-2.0,-4.0,-10.0,-46.0
1705327298.185008,-3.0,-12.0,6.0,-4.0,-5.0,0.0,5.0,11.0
1705327298.185008,7.0,-15.0,-12.0,-6.0,-7.0,0.0,4.0,-13.0
1705327298.185008,11.0,-2.0,-4.0,-18.0,-27.0,-11.0,-4.0,-7.0
1705327298.2149694,3.0,13.0,7.0,4.0,2.0,5.0,-1.0,0.0
1705327298.2149694,-17.0,-2.0,-1.0,14.0,19.0,11.0,3.0,-19.0
1705327298.2149694,-19.0,12.0,20.0,4.0,5.0,-2.0,-4.0,-5.0
1705327298.2149694,9.0,-37.0,-16.0,-7.0,-6.0,3.0,3.0,14.0
1705327298.2250118,-19.0,-2.0,-12.0,-8.0,-13.0,-8.0,-8.0,-17.0
1705327298.2250118,-28.0,17.0,0.0,-10.0,-8.0,-8.0,-7.0,3.0
1705327298.2250118,66.0,-25.0,-5.0,-1.0,3.0,-4.0,-14.0,-43.0
1705327298.2250118,-6.0,12.0,7.0,7.0,8.0,1.0,6.0,44.0
1705327298.2449713,2.0,8.0,6.0,1.0,-5.0,-1.0,3.0,-27.0
1705327298.2449713,14.0,-20.0,-23.0,-13.0,2.0,-2.0,1.0,18.0
1705327298.2449713,-31.0,22.0,11.0,3.0,0.0,1.0,4.0,0.0
1705327298.2449713,9.0,9.0,-2.0,10.0,19.0,7.0,-6.0,-42.0
1705327298.2650084,9.0,10.0,5.0,-2.0,-9.0,-7.0,-1.0,1.0
1705327298.2650084,-23.0,9.0,12.0,2.0,-2.0,-7.0,-11.0,25.0
1705327298.2650084,-1.0,6.0,3.0,-4.0,-6.0,-3.0,-4.0,-47.0
1705327298.2650084,21.0,0.0,-4.0,-8.0,-17.0,-11.0,-12.0,50.0
1705327298.2850091,0.0,6.0,-4.0,-1.0,3.0,-3.0,-9.0,-4.0
1705327298.2850091,22.0,-8.0,-5.0,1.0,-1.0,1.0,2.0,-9.0
1705327298.2850091,-20.0,11.0,11.0,4.0,4.0,1.0,0.0,9.0
1705327298.2850091,-5.0,-14.0,-4.0,3.0,-2.0,0.0,7.0,45.0
1705327298.3049676,-9.0,14.0,17.0,4.0,-1.0,0.0,4.0,-46.0
1705327298.3049676,22.0,-9.0,-8.0,-10.0,-14.0,-11.0,-11.0,17.0
1705327298.3049676,-14.0,18.0,3.0,4.0,5.0,1.0,-2.0,15.0
1705327298.3049676,-15.0,-19.0,-15.0,-4.0,-1.0,-4.0,-4.0,-17.0
1705327298.3249683,8.0,1.0,3.0,-4.0,-9.0,-4.0,-2.0,41.0
1705327298.3249683,5.0,7.0,4.0,0.0,0.0,7.0,12.0,-23.0
1705327298.3249683,7.0,0.0,-1.0,2.0,11.0,-1.0,-2.0,13.0
1705327298.3249683,-4.0,7.0,6.0,2.0,0.0,3.0,-3.0,-27.0
1705327298.3449738,6.0,-15.0,-16.0,-4.0,-3.0,-1.0,-1.0,9.0
1705327298.3449738,-14.0,-1.0,11.0,1.0,-4.0,0.0,-4.0,-17.0
1705327298.3449738,7.0,-6.0,-8.0,-5.0,-3.0,4.0,9.0,54.0
1705327298.3449738,-11.0,-13.0,-5.0,-4.0,-5.0,2.0,2.0,-26.0
1705327298.364974,26.0,-5.0,-11.0,-6.0,-4.0,-9.0,-9.0,41.0
1705327298.364974,-19.0,9.0,7.0,4.0,5.0,4.0,5.0,-14.0
1705327298.3749719,9.0,4.0,1.0,0.0,0.0,3.0,10.0,18.0
1705327298.3749719,-5.0,-1.0,0.0,-3.0,-1.0,1.0,-2.0,-17.0
1705327298.384967,-41.0,-14.0,-3.0,-2.0,-3.0,-4.0,7.0,-1.0
1705327298.384967,31.0,5.0,3.0,3.0,2.0,-3.0,-4.0,19.0
1705327298.384967,-22.0,-9.0,-18.0,-7.0,-4.0,-6.0,-13.0,-53.0
1705327298.384967,-1.0,14.0,9.0,-1.0,-3.0,-5.0,1.0,-22.0
1705327298.4049697,5.0,11.0,7.0,4.0,2.0,3.0,0.0,4.0
1705327298.4049697,23.0,5.0,26.0,18.0,11.0,10.0,17.0,39.0
1705327298.4049697,47.0,11.0,0.0,-2.0,0.0,-1.0,-1.0,-53.0
1705327298.4049697,3.0,-1.0,-10.0,-7.0,-4.0,-2.0,-5.0,-7.0
1705327298.424971,-33.0,-47.0,-11.0,-4.0,-2.0,-4.0,-1.0,9.0
1705327298.424971,-13.0,-8.0,-18.0,-8.0,-2.0,-1.0,-7.0,0.0
1705327298.424971,-1.0,-2.0,14.0,5.0,3.0,1.0,-1.0,26.0
1705327298.424971,36.0,18.0,3.0,0.0,-3.0,-5.0,-2.0,-3.0
1705327298.44497,-13.0,16.0,2.0,-2.0,-1.0,2.0,3.0,-5.0
1705327298.44497,-20.0,-21.0,-18.0,-6.0,-5.0,-5.0,-6.0,-33.0
1705327298.44497,1.0,8.0,9.0,-1.0,1.0,5.0,0.0,12.0
1705327298.44497,-3.0,7.0,-5.0,-3.0,-2.0,-2.0,1.0,23.0
1705327298.4649754,9.0,-6.0,-13.0,-3.0,0.0,-1.0,-2.0,-26.0
1705327298.4649754,25.0,-2.0,-2.0,-2.0,0.0,1.0,5.0,53.0
1705327298.4649754,-8.0,3.0,8.0,3.0,-1.0,-3.0,-2.0,5.0
1705327298.4649754,-13.0,0.0,9.0,4.0,-1.0,1.0,0.0,14.0
1705327298.484974,11.0,10.0,1.0,-1.0,0.0,3.0,2.0,11.0
1705327298.484974,-6.0,1.0,4.0,-1.0,-2.0,-5.0,-8.0,14.0
1705327298.4949737,-41.0,-9.0,-10.0,-6.0,-3.0,0.0,-2.0,9.0
1705327298.4949737,-6.0,-7.0,0.0,-3.0,-2.0,-1.0,3.0,10.0
1705327298.505013,40.0,2.0,-12.0,-6.0,-3.0,-5.0,-11.0,-27.0
1705327298.505013,13.0,6.0,-2.0,0.0,0.0,-1.0,5.0,7.0
1705327298.505013,-15.0,4.0,6.0,4.0,2.0,-9.0,-21.0,7.0
1705327298.505013,22.0,-12.0,-6.0,-4.0,-7.0,9.0,26.0,14.0
1705327298.5249717,-3.0,9.0,2.0,1.0,1.0,-2.0,0.0,51.0
1705327298.5249717,-3.0,4.0,-5.0,-4.0,-3.0,1.0,6.0,8.0
1705327298.5249717,-14.0,-25.0,-19.0,-5.0,0.0,1.0,-1.0,-14.0
1705327298.5249717,-26.0,-8.0,-9.0,-4.0,-2.0,-7.0,-17.0,-48.0
1705327298.5450113,1.0,7.0,9.0,3.0,-3.0,-2.0,-2.0,6.0
1705327298.5450113,7.0,13.0,11.0,5.0,2.0,-1.0,-4.0,-81.0
1705327298.5450113,-3.0,-4.0,-7.0,-4.0,0.0,-1.0,-1.0,15.0
1705327298.5450113,-10.0,-9.0,-1.0,-3.0,-2.0,0.0,-7.0,-16.0
1705327298.5649996,-16.0,2.0,-5.0,-2.0,-1.0,1.0,7.0,15.0
1705327298.5649996,-1.0,-11.0,-5.0,-4.0,0.0,-2.0,-6.0,-21.0
1705327298.5649996,6.0,3.0,1.0,0.0,-3.0,4.0,10.0,-11.0
1705327298.5649996,13.0,8.0,8.0,3.0,3.0,2.0,-3.0,-2.0
1705327298.5945563,-30.0,7.0,6.0,4.0,-1.0,1.0,-2.0,-6.0
1705327298.5945563,29.0,-1.0,-4.0,-1.0,0.0,0.0,-1.0,1.0
1705327298.5945563,-6.0,-14.0,-9.0,-6.0,-4.0,1.0,5.0,30.0
1705327298.5945563,-6.0,-8.0,-3.0,-2.0,-5.0,-7.0,-12.0,-40.0
1705327298.607732,11.0,-2.0,-3.0,-3.0,-1.0,-3.0,-3.0,-5.0
1705327298.607732,-7.0,6.0,3.0,0.0,0.0,4.0,-3.0,-13.0
1705327298.607732,8.0,1.0,-2.0,1.0,-1.0,-2.0,7.0,26.0
1705327298.607732,3.0,-4.0,-2.0,1.0,-3.0,0.0,-4.0,0.0
1705327298.6277344,5.0,2.0,-10.0,-5.0,-4.0,-5.0,-5.0,-13.0
1705327298.6277344,-23.0,-31.0,-27.0,-10.0,-2.0,2.0,1.0,-11.0
1705327298.6277344,31.0,14.0,9.0,2.0,1.0,-4.0,-15.0,8.0
1705327298.6277344,-1.0,6.0,3.0,-2.0,-1.0,6.0,19.0,26.0
1705327298.6477354,-3.0,-2.0,2.0,0.0,0.0,-2.0,2.0,-4.0
1705327298.6477354,2.0,20.0,18.0,8.0,0.0,1.0,0.0,-2.0
1705327298.6477354,7.0,-9.0,-10.0,-3.0,-1.0,-4.0,0.0,22.0
1705327298.6477354,-35.0,-5.0,0.0,2.0,2.0,-5.0,-10.0,-19.0
1705327298.6677344,25.0,10.0,8.0,1.0,-1.0,-2.0,-19.0,10.0
1705327298.6677344,-34.0,14.0,15.0,6.0,3.0,0.0,13.0,11.0
1705327298.6677344,-13.0,-21.0,-20.0,-5.0,-3.0,6.0,17.0,-6.0
1705327298.6677344,6.0,-22.0,-11.0,-2.0,1.0,2.0,7.0,21.0
1705327298.6877334,22.0,9.0,17.0,6.0,2.0,-2.0,-3.0,1.0
1705327298.6877334,36.0,-3.0,-9.0,-7.0,-4.0,-21.0,-24.0,27.0
1705327298.6877334,-6.0,6.0,6.0,-1.0,-6.0,14.0,-1.0,-30.0
1705327298.6877334,-6.0,15.0,11.0,8.0,7.0,4.0,5.0,34.0
1705327298.7077355,-4.0,-22.0,-23.0,-7.0,-1.0,-2.0,-4.0,0.0
1705327298.7077355,-4.0,-7.0,-15.0,-8.0,-6.0,-2.0,7.0,34.0
1705327298.7077355,-10.0,-1.0,1.0,0.0,-1.0,-8.0,-4.0,-3.0
1705327298.7077355,6.0,23.0,13.0,0.0,0.0,-2.0,-3.0,-33.0
1705327298.7277384,-18.0,-2.0,0.0,-2.0,-2.0,3.0,-5.0,-21.0
1705327298.7277384,7.0,3.0,4.0,2.0,2.0,-5.0,10.0,-2.0
1705327298.7277384,6.0,-2.0,1.0,-2.0,0.0,3.0,-21.0,25.0
1705327298.7277384,-24.0,-3.0,-1.0,-1.0,1.0,2.0,-4.0,-29.0
1705327298.7477422,16.0,-9.0,-16.0,-5.0,-3.0,-6.0,7.0,-4.0
1705327298.7477422,-14.0,-9.0,-4.0,-3.0,-4.0,-1.0,-9.0,-7.0
1705327298.7477422,2.0,10.0,9.0,3.0,1.0,-7.0,1.0,-5.0
1705327298.7477422,7.0,-2.0,-4.0,-3.0,-4.0,-4.0,2.0,2.0
1705327298.7577384,-5.0,10.0,18.0,8.0,0.0,1.0,-15.0,40.0
1705327298.7577384,-1.0,-15.0,-20.0,-8.0,-3.0,-4.0,-11.0,-30.0
1705327298.76777,-9.0,-5.0,-1.0,0.0,0.0,0.0,-12.0,17.0
1705327298.76777,3.0,6.0,7.0,3.0,3.0,-7.0,-10.0,-20.0
1705327298.7877324,15.0,3.0,9.0,2.0,0.0,22.0,41.0,21.0
1705327298.7877324,4.0,7.0,17.0,8.0,1.0,5.0,7.0,7.0
1705327298.797732,4.0,14.0,9.0,6.0,5.0,-11.0,-5.0,14.0
1705327298.797732,-7.0,-19.0,-29.0,-13.0,-7.0,4.0,11.0,14.0
1705327298.8077595,-19.0,-4.0,1.0,-1.0,1.0,-5.0,-7.0,-16.0
1705327298.8077595,3.0,-2.0,4.0,0.0,-2.0,1.0,-9.0,-9.0
1705327298.8077595,-5.0,-2.0,10.0,5.0,-1.0,0.0,9.0,-33.0
1705327298.8077595,21.0,4.0,1.0,0.0,-3.0,-19.0,-20.0,36.0
1705327298.8277326,-7.0,-4.0,-12.0,-7.0,-4.0,4.0,5.0,3.0
1705327298.8277326,-6.0,-2.0,-5.0,-7.0,-3.0,3.0,-2.0,-12.0
1705327298.8277326,25.0,5.0,7.0,1.0,-1.0,-3.0,9.0,15.0
1705327298.8277326,-6.0,3.0,-1.0,-1.0,-1.0,-3.0,-1.0,3.0
1705327298.8477328,-3.0,-10.0,5.0,4.0,3.0,-2.0,-3.0,21.0
1705327298.8477328,-17.0,1.0,4.0,4.0,12.0,1.0,5.0,9.0
1705327298.8477328,-15.0,-17.0,-25.0,-12.0,-22.0,7.0,18.0,48.0
1705327298.8477328,9.0,-3.0,8.0,1.0,2.0,4.0,-9.0,-6.0
1705327298.8777359,8.0,-2.0,-12.0,-7.0,-8.0,-12.0,-4.0,-20.0
1705327298.8777359,4.0,5.0,-1.0,3.0,9.0,1.0,6.0,1.0
1705327298.8777359,-16.0,-3.0,10.0,0.0,0.0,0.0,-5.0,-12.0
1705327298.8777359,-7.0,-9.0,-8.0,2.0,2.0,11.0,7.0,4.0
1705327298.8777359,-5.0,-2.0,-2.0,4.0,14.0,-4.0,-4.0,-1.0
1705327298.8777359,-10.0,4.0,-8.0,-14.0,-34.0,1.0,7.0,-22.0
1705327298.8777359,7.0,2.0,1.0,-10.0,5.0,1.0,2.0,-30.0
1705327298.8777359,-3.0,-3.0,3.0,-3.0,-27.0,-23.0,-11.0,2.0
1705327298.907732,-8.0,8.0,7.0,8.0,17.0,8.0,-10.0,-69.0
1705327298.907732,16.0,5.0,5.0,11.0,41.0,-3.0,7.0,50.0
1705327298.907732,-9.0,11.0,-7.0,-11.0,-51.0,11.0,-5.0,-15.0
1705327298.907732,-5.0,-8.0,-4.0,5.0,29.0,19.0,7.0,14.0
1705327298.937732,51.0,16.0,7.0,20.0,25.0,-8.0,-2.0,14.0
1705327298.937732,-44.0,0.0,7.0,-4.0,-31.0,2.0,14.0,29.0
1705327298.937732,-6.0,-11.0,-2.0,-18.0,-8.0,-32.0,-25.0,-70.0
1705327298.937732,-69.0,-36.0,-4.0,-12.0,-5.0,-6.0,-20.0,-46.0
1705327298.937732,4.0,6.0,-12.0,11.0,29.0,4.0,3.0,2.0
1705327298.937732,34.0,-18.0,-31.0,-41.0,-75.0,-9.0,-15.0,-14.0
1705327298.937732,22.0,10.0,-2.0,-4.0,2.0,3.0,10.0,22.0
1705327298.937732,-9.0,30.0,17.0,12.0,-11.0,-31.0,-15.0,-24.0
1705327298.9677505,6.0,-10.0,-8.0,-42.0,-100.0,-49.0,-6.0,-31.0
1705327298.9677505,-4.0,10.0,12.0,-71.0,127.0,92.0,53.0,25.0
1705327298.9677505,27.0,16.0,29.0,97.0,109.0,105.0,66.0,36.0
1705327298.9677505,-4.0,-2.0,-1.0,-67.0,32.0,-13.0,-28.0,-39.0
1705327298.9977326,-18.0,-16.0,-30.0,-80.0,-91.0,-103.0,-90.0,25.0
1705327298.9977326,-12.0,-14.0,-36.0,-127.0,-116.0,22.0,-72.0,-16.0
1705327298.9977326,31.0,-6.0,-4.0,53.0,67.0,100.0,67.0,52.0
1705327298.9977326,1.0,10.0,34.0,127.0,127.0,59.0,40.0,-45.0
1705327298.9977326,-30.0,27.0,51.0,-26.0,-35.0,-51.0,31.0,27.0
1705327298.9977326,17.0,2.0,52.0,-85.0,-119.0,-128.0,-32.0,6.0
1705327299.0077715,-24.0,-21.0,-83.0,-128.0,-118.0,-125.0,-72.0,-25.0
1705327299.0077715,75.0,-14.0,-51.0,-60.0,-47.0,27.0,22.0,90.0
1705327299.017767,-33.0,-13.0,-9.0,61.0,81.0,58.0,-16.0,-86.0
1705327299.017767,-74.0,17.0,31.0,88.0,59.0,14.0,-30.0,-49.0
1705327299.017767,-17.0,37.0,-15.0,87.0,19.0,-18.0,-5.0,-6.0
1705327299.017767,20.0,19.0,37.0,26.0,-42.0,-35.0,-4.0,14.0
1705327299.037732,16.0,2.0,18.0,-5.0,-9.0,39.0,85.0,117.0
1705327299.037732,97.0,30.0,8.0,58.0,41.0,31.0,115.0,115.0
1705327299.037732,16.0,78.0,67.0,-56.0,-17.0,-34.0,-89.0,-112.0
1705327299.037732,-71.0,-89.0,-94.0,-66.0,-68.0,-51.0,-96.0,-64.0
1705327299.0577326,2.0,94.0,-29.0,83.0,59.0,29.0,18.0,15.0
1705327299.0577326,3.0,-20.0,-63.0,65.0,66.0,15.0,45.0,26.0
1705327299.0577326,104.0,9.0,6.0,-16.0,-5.0,9.0,118.0,114.0
1705327299.0577326,-28.0,44.0,22.0,-49.0,-24.0,-5.0,-46.0,-84.0
1705327299.0777352,-36.0,-75.0,22.0,-37.0,-26.0,-3.0,-64.0,-53.0
1705327299.0777352,-53.0,-82.0,-18.0,11.0,-10.0,-30.0,-19.0,-60.0
1705327299.0777352,-27.0,5.0,-6.0,-10.0,-3.0,7.0,41.0,35.0
1705327299.0777352,68.0,48.0,27.0,8.0,7.0,27.0,47.0,30.0
1705327299.1060514,58.0,40.0,-1.0,4.0,25.0,26.0,24.0,41.0
1705327299.1060514,-84.0,-52.0,-14.0,5.0,-21.0,-54.0,-108.0,-60.0
1705327299.1091762,-8.0,-79.0,-7.0,-10.0,2.0,-19.0,-29.0,-26.0
1705327299.1101813,12.0,19.0,8.0,2.0,-8.0,-1.0,45.0,38.0
1705327299.1180215,51.0,10.0,-11.0,-13.0,-3.0,-3.0,6.0,20.0
1705327299.1180215,37.0,15.0,1.0,8.0,12.0,-15.0,42.0,-5.0
1705327299.124025,-41.0,-1.0,18.0,9.0,12.0,67.0,11.0,36.0
1705327299.1250215,21.0,-5.0,-12.0,-2.0,-3.0,-11.0,-25.0,-41.0
1705327299.1306036,-17.0,-24.0,-10.0,-13.0,-4.0,6.0,-14.0,-31.0
1705327299.1306036,14.0,11.0,14.0,10.0,-5.0,-25.0,-48.0,-2.0
1705327299.140747,-31.0,-12.0,-7.0,7.0,4.0,-36.0,-55.0,-10.0
1705327299.140747,-5.0,4.0,-4.0,2.0,-9.0,4.0,15.0,29.0
1705327299.1706066,-13.0,-29.0,-4.0,-8.0,-5.0,-9.0,-14.0,-15.0
1705327299.1706066,-6.0,29.0,11.0,26.0,24.0,25.0,-3.0,-35.0
1705327299.1706066,-1.0,-9.0,-10.0,-3.0,-3.0,-19.0,-11.0,-20.0
1705327299.1706066,-9.0,-18.0,-7.0,-6.0,-11.0,2.0,14.0,38.0
1705327299.1806123,-16.0,-4.0,4.0,-9.0,-6.0,-5.0,1.0,-17.0
1705327299.1806123,21.0,8.0,-5.0,-3.0,-5.0,9.0,16.0,11.0
1705327299.190612,10.0,2.0,-8.0,-14.0,-14.0,-6.0,-10.0,-3.0
1705327299.190612,-3.0,-5.0,8.0,5.0,7.0,-1.0,17.0,24.0
1705327299.2006056,-6.0,0.0,-2.0,-7.0,3.0,17.0,22.0,4.0
1705327299.2006056,7.0,21.0,0.0,-1.0,2.0,25.0,30.0,-7.0
1705327299.2006056,14.0,-17.0,5.0,-2.0,8.0,-2.0,12.0,-14.0
1705327299.2006056,-21.0,6.0,3.0,-12.0,-10.0,-4.0,16.0,7.0
1705327299.2306082,6.0,2.0,-7.0,-14.0,-3.0,7.0,10.0,-1.0
1705327299.2306082,10.0,6.0,-1.0,-15.0,-8.0,4.0,5.0,-1.0
1705327299.2306082,-23.0,5.0,3.0,-13.0,-7.0,-12.0,-4.0,-15.0
1705327299.2306082,14.0,-8.0,-9.0,5.0,9.0,1.0,17.0,26.0
1705327299.240642,-5.0,-2.0,7.0,22.0,23.0,9.0,13.0,8.0
1705327299.240642,7.0,6.0,-1.0,-8.0,8.0,6.0,-4.0,-5.0
1705327299.250642,-7.0,-8.0,-2.0,-6.0,1.0,-12.0,-14.0,-9.0
1705327299.250642,0.0,8.0,7.0,-1.0,-16.0,-5.0,-2.0,12.0
1705327299.2606425,-8.0,-11.0,-7.0,-12.0,0.0,2.0,-4.0,-7.0
1705327299.2606425,9.0,3.0,3.0,0.0,-5.0,-3.0,-11.0,-11.0
1705327299.2606425,-1.0,-8.0,-1.0,7.0,5.0,-2.0,-2.0,-5.0
1705327299.2606425,-2.0,3.0,-3.0,2.0,-2.0,-7.0,-7.0,5.0
1705327299.290643,-3.0,-7.0,0.0,3.0,5.0,0.0,-6.0,-3.0
1705327299.290643,8.0,0.0,-1.0,5.0,4.0,-1.0,-7.0,2.0
1705327299.290643,-10.0,-3.0,-5.0,-6.0,-10.0,1.0,-2.0,-4.0
1705327299.290643,0.0,-1.0,3.0,-1.0,5.0,-3.0,1.0,5.0
1705327299.3006082,0.0,-3.0,-3.0,-10.0,-18.0,-6.0,-1.0,-2.0
1705327299.3006082,4.0,8.0,1.0,0.0,2.0,4.0,4.0,-1.0
1705327299.3106072,-8.0,-9.0,-5.0,5.0,1.0,-2.0,-6.0,-2.0
1705327299.3106072,0.0,0.0,0.0,0.0,4.0,2.0,0.0,1.0
1705327299.3306057,1.0,-4.0,-2.0,-7.0,-4.0,1.0,-2.0,0.0
1705327299.3306057,2.0,-4.0,1.0,7.0,13.0,3.0,-5.0,5.0
1705327299.3306057,-12.0,2.0,-1.0,-1.0,-8.0,-4.0,-14.0,-20.0
1705327299.3306057,1.0,1.0,0.0,-2.0,-2.0,0.0,15.0,3.0
1705327299.3506052,0.0,-5.0,-2.0,-6.0,0.0,6.0,1.0,0.0
1705327299.3506052,2.0,0.0,0.0,-1.0,-5.0,-4.0,-7.0,-1.0
1705327299.3506052,-5.0,-1.0,-1.0,-1.0,-18.0,-8.0,2.0,2.0
1705327299.3506052,0.0,-1.0,-3.0,-2.0,10.0,5.0,-5.0,2.0
1705327299.360609,-3.0,0.0,0.0,-4.0,-8.0,-8.0,-6.0,0.0
1705327299.360609,2.0,0.0,-1.0,-2.0,-6.0,-3.0,3.0,-4.0
1705327299.3706322,0.0,2.0,2.0,2.0,12.0,3.0,4.0,3.0
1705327299.3706322,-3.0,1.0,-3.0,4.0,5.0,4.0,-4.0,0.0
1705327299.3806362,-3.0,-4.0,-7.0,-1.0,3.0,1.0,3.0,2.0
1705327299.3806362,-3.0,-2.0,-3.0,-4.0,-5.0,-4.0,-3.0,-3.0
1705327299.3806362,-2.0,0.0,-2.0,-9.0,-6.0,-2.0,-3.0,1.0
1705327299.3806362,-2.0,0.0,3.0,0.0,-5.0,-2.0,-2.0,2.0
1705327299.410606,0.0,-5.0,-3.0,-5.0,0.0,-2.0,-2.0,-4.0
1705327299.410606,-1.0,-1.0,-2.0,-5.0,-12.0,-4.0,-4.0,-3.0
1705327299.410606,-2.0,0.0,-2.0,3.0,3.0,3.0,1.0,0.0
1705327299.410606,1.0,-1.0,1.0,7.0,21.0,2.0,0.0,-2.0
1705327299.4306207,-2.0,1.0,6.0,10.0,3.0,-1.0,-2.0,-1.0
1705327299.4306207,0.0,1.0,0.0,0.0,-2.0,1.0,0.0,-1.0
1705327299.4306207,-1.0,-1.0,-3.0,-6.0,-12.0,-10.0,1.0,2.0
1705327299.4306207,1.0,-2.0,0.0,-1.0,-8.0,-3.0,-4.0,-2.0
1705327299.4506097,-6.0,0.0,-3.0,-6.0,-3.0,-3.0,-5.0,-3.0
1705327299.4506097,-4.0,-2.0,-3.0,-1.0,0.0,-2.0,-1.0,-3.0
1705327299.4506097,1.0,-2.0,1.0,5.0,9.0,3.0,5.0,2.0
1705327299.4506097,3.0,-1.0,-2.0,-5.0,-2.0,1.0,-1.0,1.0
1705327299.4706054,-1.0,-1.0,0.0,-1.0,-3.0,-3.0,0.0,-2.0
1705327299.4706054,-1.0,-1.0,-1.0,0.0,1.0,2.0,1.0,0.0
1705327299.4706054,0.0,-2.0,-3.0,-1.0,4.0,-2.0,-5.0,-1.0
1705327299.4706054,-2.0,-2.0,-2.0,0.0,2.0,-1.0,-2.0,-2.0
1705327299.4906056,0.0,-2.0,0.0,-6.0,-24.0,-6.0,-5.0,-1.0
1705327299.4906056,-1.0,0.0,1.0,3.0,7.0,4.0,2.0,0.0
1705327299.4906056,-2.0,1.0,-1.0,4.0,6.0,0.0,-3.0,0.0
1705327299.4906056,0.0,0.0,0.0,-1.0,-3.0,-2.0,-1.0,1.0
1705327299.500647,-1.0,-5.0,-4.0,-6.0,-3.0,-3.0,0.0,0.0
1705327299.500647,-1.0,0.0,-4.0,-4.0,-2.0,-4.0,-2.0,-3.0
1705327299.500647,-1.0,0.0,0.0,2.0,-4.0,0.0,1.0,-1.0
1705327299.500647,-1.0,-1.0,0.0,0.0,4.0,1.0,0.0,0.0
1705327299.5306118,2.0,2.0,-2.0,4.0,12.0,7.0,2.0,0.0
1705327299.5306118,-2.0,0.0,2.0,0.0,-6.0,0.0,0.0,-1.0
1705327299.5306118,-2.0,-3.0,-4.0,-9.0,-5.0,-7.0,-1.0,-1.0
1705327299.5306118,0.0,0.0,1.0,-1.0,-11.0,-5.0,-5.0,-4.0
1705327299.5506053,0.0,0.0,-3.0,-4.0,0.0,1.0,0.0,-2.0
1705327299.5506053,2.0,-2.0,0.0,0.0,1.0,-2.0,0.0,-2.0
1705327299.5506053,-7.0,-1.0,-2.0,-2.0,-5.0,-3.0,-3.0,-3.0
1705327299.5506053,-2.0,-3.0,-2.0,-1.0,3.0,3.0,1.0,1.0
1705327299.560653,-2.0,-1.0,1.0,2.0,6.0,1.0,-2.0,-1.0
1705327299.560653,0.0,-1.0,-2.0,-1.0,-3.0,-1.0,-1.0,1.0
1705327299.560653,3.0,0.0,0.0,-3.0,-3.0,-6.0,-6.0,-1.0
1705327299.560653,-2.0,0.0,-1.0,-3.0,-3.0,-1.0,5.0,-2.0
1705327299.590608,-1.0,-1.0,1.0,-1.0,1.0,-3.0,-1.0,-1.0
1705327299.590608,0.0,-1.0,0.0,-1.0,-1.0,3.0,4.0,-1.0
1705327299.590608,4.0,1.0,1.0,5.0,5.0,2.0,5.0,1.0
1705327299.590608,-6.0,0.0,-4.0,-3.0,-4.0,-8.0,-6.0,1.0
1705327299.6106396,2.0,-3.0,-1.0,0.0,-2.0,0.0,0.0,-2.0
1705327299.6106396,-3.0,-4.0,-1.0,-3.0,-3.0,-3.0,-7.0,-4.0
1705327299.6106396,0.0,-2.0,-2.0,1.0,1.0,0.0,-2.0,0.0
1705327299.6106396,2.0,0.0,-1.0,-3.0,-1.0,1.0,0.0,-2.0
1705327299.6206079,1.0,-1.0,-1.0,-3.0,-23.0,-8.0,-3.0,-2.0
1705327299.6206079,-1.0,0.0,2.0,1.0,7.0,2.0,0.0,0.0
1705327299.6206079,0.0,-1.0,1.0,4.0,9.0,2.0,3.0,1.0
1705327299.6206079,2.0,0.0,1.0,5.0,1.0,-1.0,-3.0,1.0
1705327299.6498547,-6.0,-1.0,-1.0,2.0,2.0,-2.0,0.0,-2.0
1705327299.6498547,-4.0,-3.0,-4.0,-5.0,-7.0,-4.0,-2.0,-3.0
1705327299.6508853,-3.0,0.0,-1.0,-5.0,-9.0,-4.0,-2.0,-5.0
1705327299.6508853,-1.0,-2.0,-2.0,-4.0,-1.0,0.0,-1.0,-3.0
1705327299.6733937,-1.0,0.0,1.0,2.0,5.0,1.0,0.0,-2.0
1705327299.6733937,1.0,3.0,0.0,1.0,1.0,-1.0,1.0,1.0
1705327299.6733937,-1.0,1.0,-1.0,-1.0,6.0,0.0,1.0,-1.0
1705327299.6733937,-2.0,-1.0,-2.0,0.0,-1.0,2.0,1.0,0.0
1705327299.683435,-1.0,-1.0,1.0,4.0,4.0,-2.0,-3.0,1.0
1705327299.683435,-1.0,-2.0,-2.0,-3.0,-3.0,-3.0,-3.0,1.0
1705327299.683435,-2.0,-2.0,-1.0,-3.0,-6.0,-3.0,-5.0,-2.0
1705327299.683435,-1.0,0.0,0.0,-5.0,-2.0,2.0,0.0,-3.0
1705327299.7133965,-3.0,1.0,0.0,0.0,2.0,0.0,-1.0,0.0
1705327299.7133965,0.0,0.0,2.0,0.0,1.0,-4.0,-2.0,-1.0
1705327299.7133965,-1.0,-3.0,-5.0,-1.0,-1.0,2.0,-3.0,-1.0
1705327299.7133965,-1.0,-2.0,-3.0,-2.0,-3.0,-2.0,4.0,0.0
1705327299.7233927,0.0,-2.0,-1.0,-2.0,3.0,1.0,-2.0,-2.0
1705327299.7233927,-2.0,0.0,1.0,3.0,1.0,2.0,-2.0,-1.0
1705327299.7333949,-1.0,1.0,1.0,-1.0,-2.0,-4.0,-2.0,-1.0
1705327299.7333949,-1.0,-2.0,0.0,-2.0,-3.0,-1.0,-2.0,-1.0
1705327299.7434266,-1.0,-2.0,0.0,-1.0,4.0,-1.0,0.0,-2.0
1705327299.7434266,3.0,1.0,-2.0,-2.0,-3.0,-2.0,-1.0,-1.0
1705327299.7434266,-3.0,0.0,-2.0,-2.0,-7.0,-3.0,-2.0,0.0
1705327299.7434266,3.0,1.0,0.0,2.0,1.0,-1.0,-2.0,-2.0
1705327299.773395,-9.0,-2.0,1.0,-1.0,-2.0,0.0,1.0,-1.0
1705327299.773395,-2.0,-2.0,-1.0,1.0,-1.0,-1.0,-2.0,-2.0
1705327299.773395,0.0,-2.0,-1.0,-4.0,-1.0,-1.0,-1.0,-1.0
1705327299.773395,0.0,-1.0,-1.0,-4.0,-2.0,-3.0,-2.0,-1.0
1705327299.7833984,0.0,1.0,-1.0,0.0,0.0,-1.0,-2.0,-1.0
1705327299.7833984,-1.0,0.0,0.0,0.0,0.0,-1.0,-2.0,-1.0
1705327299.7933974,0.0,0.0,-1.0,0.0,-2.0,0.0,5.0,0.0
1705327299.7933974,-3.0,-1.0,-1.0,-1.0,-1.0,-2.0,-2.0,1.0
1705327299.8034306,2.0,0.0,-2.0,-2.0,0.0,-2.0,1.0,1.0
1705327299.8034306,-3.0,-2.0,-2.0,0.0,-1.0,-2.0,-3.0,0.0
1705327299.8034306,0.0,0.0,0.0,-1.0,0.0,0.0,-3.0,-1.0
1705327299.8034306,-2.0,-2.0,0.0,-1.0,0.0,0.0,-1.0,-2.0
1705327299.833395,0.0,-2.0,-2.0,-2.0,-1.0,-1.0,0.0,-1.0
1705327299.833395,0.0,1.0,-1.0,-7.0,-2.0,-1.0,1.0,-2.0
1705327299.833395,-2.0,-1.0,-1.0,1.0,1.0,-2.0,-1.0,-2.0
1705327299.833395,-1.0,-2.0,-4.0,-1.0,3.0,2.0,-1.0,-1.0
1705327299.853434,0.0,0.0,1.0,3.0,-4.0,-2.0,-3.0,0.0
1705327299.853434,-2.0,-2.0,-1.0,2.0,-2.0,-3.0,1.0,-1.0
1705327299.853434,-1.0,0.0,-1.0,-7.0,1.0,2.0,-2.0,0.0
1705327299.853434,-2.0,0.0,-1.0,3.0,5.0,3.0,1.0,1.0
1705327299.8633945,0.0,1.0,1.0,-3.0,1.0,-1.0,0.0,-2.0
1705327299.8633945,-1.0,-2.0,0.0,1.0,1.0,2.0,0.0,-1.0
1705327299.8633945,-1.0,-2.0,-3.0,-2.0,-5.0,-4.0,-2.0,-2.0
1705327299.8633945,-2.0,-4.0,0.0,-4.0,-10.0,-6.0,-6.0,-3.0
1705327299.8833933,0.0,-1.0,-2.0,-3.0,-2.0,0.0,-1.0,-1.0
1705327299.8833933,-2.0,-1.0,-1.0,1.0,0.0,0.0,-2.0,0.0
1705327299.8833933,1.0,-1.0,1.0,0.0,0.0,-2.0,1.0,1.0
1705327299.8833933,-2.0,-1.0,-1.0,0.0,-1.0,1.0,-2.0,-2.0
1705327299.9034266,-1.0,-1.0,-1.0,1.0,-2.0,0.0,1.0,-2.0
1705327299.913394,-1.0,-2.0,-2.0,-3.0,0.0,-1.0,0.0,-1.0
1705327299.913394,0.0,-2.0,-2.0,-4.0,-1.0,-2.0,-2.0,-1.0
1705327299.913394,-1.0,0.0,0.0,3.0,-4.0,-4.0,-2.0,-1.0
1705327299.923396,0.0,0.0,-1.0,-2.0,0.0,-2.0,-3.0,-1.0
1705327299.923396,-1.0,0.0,-1.0,-4.0,-3.0,-1.0,-1.0,-2.0
1705327299.923396,-1.0,-2.0,2.0,9.0,2.0,0.0,-1.0,-2.0
1705327299.923396,-1.0,-1.0,1.0,3.0,9.0,7.0,5.0,2.0
1705327299.953394,-3.0,-3.0,-2.0,-4.0,-2.0,-2.0,-3.0,-2.0
1705327299.953394,0.0,-1.0,-1.0,0.0,-1.0,4.0,-1.0,0.0
1705327299.953394,-2.0,1.0,2.0,-2.0,3.0,-2.0,-3.0,-3.0
1705327299.953394,0.0,-2.0,-4.0,-9.0,-10.0,-8.0,-5.0,-1.0
1705327299.963392,-3.0,-1.0,-2.0,-2.0,-4.0,-1.0,-2.0,0.0
1705327299.963392,-1.0,0.0,0.0,-3.0,3.0,4.0,3.0,1.0
1705327299.9733903,-3.0,-2.0,-1.0,1.0,-1.0,-1.0,-2.0,-1.0
1705327299.9733903,-1.0,-1.0,0.0,4.0,7.0,0.0,1.0,-1.0
1705327299.9833896,0.0,-1.0,0.0,-5.0,-5.0,-4.0,-1.0,-2.0
1705327299.9833896,0.0,-2.0,-4.0,-8.0,-11.0,-6.0,-1.0,-3.0
1705327299.9933968,-2.0,-2.0,0.0,6.0,1.0,2.0,0.0,1.0
1705327299.9933968,0.0,1.0,1.0,-1.0,2.0,0.0,0.0,1.0
1705327300.0033972,-1.0,0.0,-3.0,2.0,3.0,-1.0,-1.0,1.0
1705327300.0033972,0.0,-1.0,0.0,4.0,-2.0,-2.0,-1.0,0.0
1705327300.0033972,-2.0,-1.0,-4.0,-5.0,-1.0,0.0,0.0,-2.0
1705327300.0033972,-2.0,-1.0,-3.0,-6.0,-8.0,-5.0,-4.0,-2.0
1705327300.0234306,-2.0,-1.0,-2.0,2.0,4.0,4.0,4.0,-2.0
1705327300.0234306,-1.0,0.0,0.0,-1.0,9.0,-1.0,1.0,-2.0
1705327300.0333934,0.0,-2.0,-3.0,-1.0,-8.0,2.0,2.0,-1.0
1705327300.0333934,-1.0,-3.0,-2.0,2.0,8.0,-1.0,-2.0,0.0
1705327300.0434299,0.0,-2.0,-1.0,0.0,-3.0,1.0,-2.0,-2.0
1705327300.0434299,-3.0,-1.0,0.0,2.0,-2.0,-4.0,-3.0,-3.0
1705327300.063426,-1.0,-2.0,-1.0,-6.0,-8.0,-6.0,-4.0,-2.0
1705327300.063426,-1.0,-1.0,0.0,2.0,0.0,0.0,0.0,-4.0
1705327300.063426,-1.0,-1.0,1.0,0.0,-1.0,0.0,-2.0,-1.0
1705327300.063426,0.0,-3.0,-4.0,-3.0,-5.0,-2.0,2.0,-1.0
1705327300.063426,0.0,-2.0,-5.0,10.0,21.0,7.0,0.0,0.0
1705327300.063426,-1.0,1.0,-1.0,-7.0,-5.0,-1.0,-1.0,-3.0
1705327300.083428,0.0,-1.0,-5.0,-4.0,-1.0,-3.0,-2.0,-1.0
1705327300.083428,-2.0,-1.0,0.0,-4.0,-11.0,-5.0,-5.0,-1.0
1705327300.093392,1.0,0.0,1.0,-6.0,-14.0,-10.0,-4.0,-3.0
1705327300.093392,0.0,0.0,-1.0,0.0,2.0,2.0,1.0,1.0
1705327300.1033905,-4.0,-2.0,-3.0,-3.0,-1.0,0.0,-2.0,-1.0
1705327300.1033905,0.0,-2.0,0.0,3.0,-3.0,4.0,0.0,-1.0
1705327300.113434,-2.0,0.0,0.0,6.0,9.0,1.0,0.0,-2.0
1705327300.113434,-2.0,-1.0,0.0,0.0,-4.0,-3.0,-2.0,-1.0
1705327300.1234584,0.0,-1.0,0.0,-3.0,-6.0,-3.0,-1.0,0.0
1705327300.1234584,-1.0,0.0,-2.0,-3.0,2.0,0.0,-1.0,-1.0
1705327300.1234584,-2.0,-2.0,-1.0,-3.0,-3.0,0.0,0.0,-1.0
1705327300.1234584,1.0,0.0,1.0,0.0,-7.0,-4.0,-1.0,-2.0
1705327300.1687222,-2.0,-4.0,-1.0,-7.0,-18.0,-5.0,-1.0,-1.0
1705327300.1687222,-1.0,1.0,0.0,4.0,13.0,2.0,1.0,2.0
1705327300.1697478,1.0,-1.0,2.0,-1.0,4.0,1.0,-2.0,0.0
1705327300.1697478,-1.0,-1.0,1.0,2.0,-2.0,-3.0,-3.0,-1.0
1705327300.1717246,1.0,-1.0,-2.0,4.0,5.0,2.0,2.0,0.0
1705327300.1717246,-1.0,0.0,-2.0,-6.0,-6.0,-2.0,-2.0,-2.0
1705327300.1751957,-1.0,-1.0,-3.0,-6.0,-7.0,-2.0,-1.0,0.0
1705327300.1751957,0.0,0.0,-3.0,-3.0,0.0,-2.0,1.0,0.0
1705327300.1905553,-2.0,0.0,-1.0,-1.0,-1.0,-1.0,-3.0,-2.0
1705327300.1905553,1.0,0.0,-1.0,-3.0,-3.0,-5.0,-1.0,-1.0
1705327300.1905553,-1.0,-1.0,-2.0,1.0,5.0,6.0,4.0,1.0
1705327300.1905553,-1.0,-2.0,-1.0,5.0,-1.0,-3.0,-2.0,-1.0
1705327300.2062705,-2.0,-2.0,-1.0,1.0,-1.0,-1.0,-3.0,-2.0
1705327300.2062705,-1.0,0.0,0.0,1.0,-3.0,1.0,-1.0,0.0
1705327300.2062705,-2.0,0.0,-1.0,-6.0,-6.0,-3.0,-3.0,-1.0
1705327300.2062705,1.0,-2.0,-1.0,-3.0,0.0,1.0,0.0,0.0
1705327300.2262664,0.0,2.0,1.0,0.0,5.0,2.0,1.0,0.0
1705327300.2262664,-1.0,-1.0,2.0,7.0,0.0,-1.0,-2.0,0.0
1705327300.2262664,-1.0,-1.0,-3.0,-4.0,-6.0,-4.0,-1.0,-1.0
1705327300.2262664,-3.0,-1.0,-2.0,-4.0,0.0,2.0,1.0,-2.0
1705327300.2462666,-1.0,-1.0,-2.0,-1.0,-3.0,-2.0,-2.0,-1.0
1705327300.2462666,-1.0,-3.0,-1.0,0.0,-1.0,-1.0,-2.0,-1.0
1705327300.2462666,1.0,0.0,1.0,2.0,5.0,4.0,1.0,0.0
1705327300.2462666,-1.0,-2.0,-2.0,2.0,2.0,1.0,-2.0,-1.0
1705327300.2663,-3.0,-1.0,-4.0,-3.0,3.0,0.0,0.0,-2.0
1705327300.2663,-1.0,-2.0,-3.0,-3.0,1.0,-2.0,-1.0,-2.0
1705327300.2663,1.0,-1.0,1.0,-1.0,-7.0,-3.0,-1.0,0.0
1705327300.2663,-2.0,-1.0,3.0,1.0,2.0,2.0,1.0,0.0
1705327300.2962868,0.0,-3.0,-2.0,0.0,2.0,-3.0,-1.0,-1.0
1705327300.2962868,0.0,-1.0,-2.0,-3.0,-1.0,-1.0,-1.0,2.0
1705327300.2962868,-2.0,0.0,0.0,-4.0,-7.0,-4.0,-1.0,-2.0
1705327300.2962868,-1.0,0.0,-3.0,-8.0,-8.0,-2.0,-3.0,-2.0
1705327300.3063107,0.0,0.0,2.0,2.0,-1.0,1.0,-1.0,-2.0
1705327300.3063107,-2.0,-1.0,-3.0,-10.0,0.0,-4.0,-2.0,-2.0
1705327300.3063107,-2.0,-2.0,4.0,10.0,1.0,1.0,-2.0,-1.0
1705327300.3063107,0.0,-2.0,-1.0,14.0,28.0,13.0,4.0,1.0
1705327300.3262675,1.0,-1.0,2.0,0.0,3.0,2.0,1.0,1.0
1705327300.3262675,-1.0,-3.0,-10.0,-3.0,-3.0,-4.0,-4.0,-3.0
1705327300.3262675,-1.0,0.0,7.0,-12.0,-12.0,-8.0,-4.0,0.0
1705327300.3262675,-2.0,-1.0,-3.0,-14.0,-17.0,-10.0,-6.0,-3.0
1705327300.3562665,-1.0,0.0,-5.0,-3.0,2.0,3.0,-1.0,-1.0
1705327300.3562665,0.0,1.0,18.0,8.0,3.0,5.0,3.0,1.0
1705327300.3562665,-3.0,-9.0,-42.0,-5.0,2.0,-2.0,-2.0,-3.0
1705327300.3562665,-1.0,1.0,6.0,-6.0,-2.0,-1.0,0.0,-1.0
1705327300.3662703,-1.0,-1.0,4.0,2.0,-1.0,-3.0,-3.0,-1.0
1705327300.3662703,-1.0,0.0,2.0,-1.0,-7.0,-3.0,-3.0,-3.0
1705327300.3662703,-1.0,1.0,13.0,7.0,1.0,0.0,2.0,-1.0
1705327300.3662703,-1.0,-1.0,-7.0,1.0,3.0,3.0,1.0,-1.0
1705327300.3962672,-1.0,-1.0,-6.0,-7.0,-7.0,-5.0,-3.0,-2.0
1705327300.3962672,-3.0,-3.0,-3.0,2.0,2.0,1.0,-2.0,-1.0
1705327300.3962672,-1.0,-1.0,4.0,2.0,4.0,1.0,-1.0,0.0
1705327300.3962672,-3.0,-3.0,-5.0,-5.0,-8.0,-6.0,-2.0,-2.0
1705327300.4162679,-1.0,0.0,-3.0,2.0,-2.0,-1.0,0.0,-1.0
1705327300.4162679,-2.0,-1.0,0.0,-1.0,0.0,-2.0,0.0,-1.0
1705327300.4162679,-1.0,-1.0,-6.0,-2.0,3.0,0.0,1.0,-1.0
1705327300.4162679,0.0,0.0,3.0,-6.0,-7.0,-4.0,-3.0,-1.0
1705327300.4262707,-2.0,-2.0,-1.0,-1.0,-3.0,-1.0,0.0,0.0
1705327300.4262707,-1.0,-3.0,1.0,5.0,2.0,0.0,0.0,-1.0
1705327300.4362993,-2.0,0.0,2.0,-3.0,5.0,5.0,0.0,-1.0
1705327300.4362993,0.0,0.0,0.0,-2.0,-6.0,-4.0,-3.0,-3.0
1705327300.4562666,1.0,0.0,7.0,-7.0,-1.0,-4.0,-2.0,0.0
1705327300.4562666,-1.0,-1.0,5.0,-1.0,-4.0,0.0,1.0,1.0
1705327300.4562666,-1.0,0.0,-11.0,-2.0,-6.0,-7.0,-4.0,-2.0
1705327300.4562666,-2.0,-1.0,3.0,0.0,-3.0,1.0,-1.0,-2.0
1705327300.4762712,-1.0,-1.0,-2.0,1.0,2.0,-2.0,-2.0,1.0
1705327300.4762712,-3.0,-1.0,-8.0,-1.0,1.0,1.0,-1.0,-4.0
1705327300.4762712,1.0,1.0,6.0,2.0,-2.0,-1.0,-2.0,-2.0
1705327300.4762712,-2.0,-1.0,-4.0,1.0,0.0,-1.0,-2.0,-1.0
1705327300.4962685,-1.0,-1.0,-4.0,-2.0,0.0,0.0,0.0,-1.0
1705327300.4962685,0.0,1.0,0.0,1.0,3.0,1.0,-3.0,-1.0
1705327300.4962685,-2.0,-1.0,8.0,-4.0,-3.0,-1.0,-1.0,0.0
1705327300.4962685,-1.0,-4.0,-27.0,-3.0,-3.0,-4.0,-1.0,-2.0
1705327300.5062697,0.0,0.0,7.0,2.0,-3.0,-3.0,-1.0,-3.0
1705327300.5062697,0.0,-1.0,2.0,6.0,6.0,2.0,2.0,2.0
1705327300.5062697,-1.0,-2.0,-7.0,-5.0,-2.0,0.0,-4.0,-2.0
1705327300.5062697,-1.0,-1.0,7.0,0.0,-4.0,-1.0,-1.0,0.0
1705327300.5362668,0.0,-3.0,-2.0,-1.0,0.0,2.0,0.0,-1.0
1705327300.5362668,-1.0,-3.0,-16.0,-8.0,-1.0,-2.0,-1.0,-3.0
1705327300.5362668,0.0,1.0,5.0,8.0,1.0,-4.0,0.0,-1.0
1705327300.5362668,-1.0,1.0,-2.0,2.0,3.0,2.0,1.0,-1.0
1705327300.5562675,-3.0,1.0,-3.0,0.0,-1.0,-2.0,-2.0,-2.0
1705327300.5562675,0.0,-1.0,1.0,0.0,-4.0,-2.0,0.0,-2.0
1705327300.5562675,0.0,-2.0,-1.0,-3.0,-2.0,-3.0,-1.0,0.0
1705327300.5562675,-3.0,-1.0,-1.0,-4.0,-1.0,0.0,-1.0,-2.0
1705327300.5663035,-1.0,0.0,1.0,-2.0,1.0,2.0,2.0,-1.0
1705327300.5663035,-2.0,0.0,2.0,0.0,-1.0,-3.0,-3.0,-1.0
1705327300.5663035,-1.0,-1.0,-6.0,-2.0,-2.0,-1.0,-1.0,-1.0
1705327300.5663035,-1.0,-2.0,4.0,2.0,-1.0,-1.0,-4.0,0.0
1705327300.5962667,-1.0,-2.0,-1.0,-6.0,-7.0,-3.0,-3.0,-2.0
1705327300.5962667,-1.0,3.0,-2.0,2.0,-1.0,-2.0,1.0,0.0
1705327300.5962667,-1.0,0.0,16.0,9.0,16.0,8.0,5.0,0.0
1705327300.5962667,-2.0,-4.0,-14.0,-3.0,-3.0,-2.0,-2.0,-2.0
1705327300.6162694,-2.0,-3.0,1.0,3.0,0.0,-2.0,-3.0,-1.0
1705327300.6162694,-1.0,-1.0,-2.0,-4.0,-5.0,-3.0,-2.0,-1.0
1705327300.6162694,0.0,1.0,10.0,-6.0,-10.0,-6.0,-4.0,-2.0
1705327300.6162694,-2.0,-1.0,5.0,3.0,2.0,-2.0,2.0,1.0
1705327300.6265745,0.0,0.0,-1.0,4.0,4.0,2.0,0.0,0.0
1705327300.6265745,0.0,0.0,1.0,1.0,-1.0,1.0,0.0,-1.0
1705327300.6265745,-4.0,-3.0,-21.0,-11.0,-5.0,-2.0,-1.0,0.0
1705327300.6265745,0.0,-1.0,3.0,1.0,1.0,0.0,-1.0,-2.0
1705327300.6462986,0.0,-2.0,-3.0,-2.0,-3.0,-2.0,-2.0,-1.0
1705327300.6562703,-1.0,-2.0,2.0,-1.0,-1.0,0.0,-1.0,-2.0
1705327300.6562703,0.0,-1.0,-1.0,1.0,0.0,2.0,2.0,-1.0
1705327300.6562703,-1.0,-1.0,-4.0,-5.0,-3.0,-3.0,-2.0,-1.0
1705327300.6662683,-2.0,0.0,1.0,4.0,-1.0,-3.0,-1.0,0.0
1705327300.6662683,0.0,0.0,0.0,1.0,6.0,0.0,-1.0,-1.0
1705327300.6662683,0.0,-2.0,-5.0,-1.0,-1.0,-1.0,-4.0,-1.0
1705327300.6662683,-1.0,0.0,12.0,-3.0,-4.0,-2.0,0.0,-1.0
1705327300.6862683,-2.0,-1.0,-22.0,-6.0,2.0,-1.0,-2.0,0.0
1705327300.6862683,-2.0,-2.0,3.0,-9.0,-5.0,-4.0,-2.0,-2.0
1705327300.6862683,0.0,0.0,-7.0,4.0,0.0,1.0,1.0,-1.0
1705327300.6862683,0.0,1.0,7.0,5.0,4.0,1.0,1.0,0.0
1705327300.7243443,-2.0,0.0,3.0,0.0,-2.0,-2.0,-1.0,-1.0
1705327300.7243443,-2.0,-1.0,-7.0,-4.0,-2.0,-3.0,0.0,-1.0
1705327300.7243443,-2.0,-1.0,1.0,-6.0,-4.0,-4.0,-3.0,-1.0
1705327300.7243443,-1.0,-1.0,-8.0,-3.0,1.0,4.0,1.0,0.0
1705327300.7292595,-1.0,1.0,4.0,5.0,1.0,0.0,0.0,-1.0
1705327300.7292595,-1.0,-3.0,3.0,-1.0,0.0,0.0,-3.0,1.0
1705327300.7292595,-3.0,0.0,1.0,1.0,-1.0,-3.0,-2.0,-3.0
1705327300.7292595,-1.0,2.0,6.0,2.0,-1.0,-3.0,0.0,0.0
1705327300.749287,-1.0,-2.0,1.0,2.0,0.0,-2.0,0.0,0.0
1705327300.749287,-2.0,-3.0,-14.0,-4.0,2.0,1.0,-1.0,0.0
1705327300.749287,-1.0,1.0,10.0,-8.0,-4.0,-1.0,0.0,-1.0
1705327300.749287,-1.0,-3.0,-21.0,-5.0,-7.0,-4.0,-3.0,-2.0
1705327300.769263,2.0,-2.0,4.0,-2.0,-2.0,-5.0,-3.0,-3.0
1705327300.769263,-3.0,-3.0,16.0,-3.0,-5.0,-1.0,-1.0,-2.0
1705327300.769263,-1.0,0.0,-1.0,10.0,13.0,7.0,2.0,-2.0
1705327300.769263,-1.0,1.0,7.0,1.0,3.0,0.0,0.0,0.0
1705327300.7992625,0.0,0.0,-1.0,-2.0,-5.0,-3.0,-2.0,-2.0
1705327300.7992625,0.0,-1.0,-12.0,-3.0,-6.0,-6.0,-2.0,-1.0
1705327300.7992625,-1.0,-1.0,-6.0,-5.0,-5.0,-2.0,-1.0,-4.0
1705327300.7992625,2.0,-1.0,8.0,-3.0,0.0,-1.0,-2.0,-2.0
1705327300.8092997,-1.0,-2.0,5.0,2.0,4.0,5.0,1.0,-1.0
1705327300.8092997,0.0,1.0,10.0,1.0,-3.0,-2.0,-1.0,1.0
1705327300.8092997,-1.0,-1.0,-4.0,-1.0,-4.0,-3.0,-1.0,-1.0
1705327300.8092997,-1.0,-1.0,-21.0,0.0,0.0,0.0,1.0,-1.0
1705327300.8293016,-2.0,-4.0,-20.0,-7.0,-8.0,-2.0,-1.0,-1.0
1705327300.8293016,-1.0,-2.0,1.0,0.0,-2.0,-1.0,-3.0,-3.0
1705327300.8293016,0.0,-1.0,7.0,4.0,0.0,1.0,0.0,1.0
1705327300.8293016,-1.0,-2.0,13.0,5.0,11.0,2.0,1.0,-2.0
1705327300.8592927,-1.0,-1.0,0.0,-2.0,1.0,2.0,1.0,0.0
1705327300.8592927,-2.0,1.0,-5.0,2.0,0.0,-1.0,-1.0,-1.0
1705327300.8592927,-2.0,0.0,-3.0,-5.0,-8.0,-6.0,-4.0,-2.0
1705327300.8592927,0.0,-2.0,-1.0,-6.0,-11.0,-3.0,-3.0,-3.0
1705327300.8695734,1.0,0.0,-6.0,-1.0,1.0,2.0,0.0,-2.0
1705327300.8695734,0.0,1.0,14.0,6.0,4.0,0.0,1.0,1.0
1705327300.8695734,-1.0,-3.0,-28.0,-4.0,-2.0,-2.0,-3.0,-2.0
1705327300.8695734,-2.0,-2.0,-9.0,2.0,3.0,1.0,3.0,-1.0
1705327300.8992631,0.0,1.0,10.0,0.0,4.0,0.0,0.0,-2.0
1705327300.8992631,0.0,0.0,4.0,-1.0,-3.0,-1.0,-1.0,-1.0
1705327300.8992631,0.0,-1.0,9.0,-2.0,-2.0,-2.0,-1.0,0.0
1705327300.8992631,-1.0,-2.0,10.0,-3.0,-4.0,-2.0,-2.0,-2.0
1705327300.9092627,-1.0,0.0,-6.0,-6.0,-3.0,0.0,-1.0,-1.0
1705327300.9092627,1.0,0.0,0.0,5.0,0.0,-2.0,1.0,-1.0
1705327300.9192631,1.0,3.0,24.0,3.0,2.0,-1.0,1.0,1.0
1705327300.9192631,-1.0,2.0,-17.0,3.0,1.0,-1.0,-2.0,1.0
1705327300.929261,-4.0,-5.0,14.0,-5.0,-4.0,-3.0,-2.0,-2.0
1705327300.929261,-3.0,-5.0,-19.0,-4.0,2.0,2.0,0.0,-2.0
1705327300.929261,-3.0,-7.0,-17.0,-3.0,1.0,-2.0,0.0,0.0
1705327300.929261,0.0,3.0,10.0,-2.0,-2.0,-2.0,-1.0,-1.0
1705327300.9492629,-1.0,0.0,5.0,0.0,0.0,-2.0,-2.0,0.0
1705327300.9492629,-1.0,0.0,4.0,-2.0,0.0,1.0,-2.0,-1.0
1705327300.9492629,-1.0,0.0,-3.0,0.0,-1.0,0.0,1.0,1.0
1705327300.9492629,-2.0,1.0,9.0,-2.0,-2.0,-1.0,0.0,-1.0
1705327300.9692633,0.0,0.0,-8.0,2.0,-5.0,-1.0,-3.0,-1.0
1705327300.9692633,0.0,-2.0,-12.0,-5.0,1.0,1.0,-1.0,-2.0
1705327300.9692633,1.0,0.0,3.0,4.0,6.0,4.0,0.0,1.0
1705327300.9692633,0.0,-1.0,9.0,0.0,2.0,-2.0,-1.0,1.0
1705327300.9892614,0.0,1.0,7.0,-2.0,-2.0,-1.0,-1.0,-1.0
1705327300.9892614,-4.0,-2.0,-16.0,-10.0,-11.0,-6.0,-3.0,-3.0
1705327300.9892614,-3.0,-2.0,3.0,-3.0,-3.0,-1.0,-1.0,-2.0
1705327300.9892614,-2.0,-4.0,-10.0,-2.0,-2.0,1.0,0.0,1.0
1705327301.0092645,-3.0,3.0,14.0,-2.0,-2.0,-1.0,-2.0,-1.0
1705327301.0092645,0.0,-1.0,-3.0,5.0,-1.0,-1.0,0.0,-1.0
1705327301.0092645,-2.0,-2.0,4.0,-1.0,-1.0,-3.0,0.0,-2.0
1705327301.0092645,-4.0,-6.0,-23.0,-9.0,-9.0,-6.0,-5.0,-2.0
1705327301.029297,0.0,-1.0,-6.0,-2.0,3.0,3.0,1.0,0.0
1705327301.029297,1.0,0.0,13.0,4.0,12.0,7.0,2.0,1.0
1705327301.029297,-1.0,0.0,-1.0,-1.0,-4.0,-4.0,-2.0,-1.0
1705327301.029297,0.0,-2.0,0.0,-2.0,-2.0,-2.0,-2.0,-2.0
1705327301.0492976,-2.0,-1.0,-6.0,-4.0,-6.0,-5.0,-3.0,-2.0
1705327301.0492976,-2.0,0.0,-1.0,2.0,-2.0,-3.0,-1.0,-1.0
1705327301.0492976,-3.0,-3.0,-4.0,-5.0,-3.0,-1.0,1.0,-1.0
1705327301.0492976,1.0,1.0,7.0,0.0,0.0,0.0,-1.0,-1.0
1705327301.0692632,1.0,-2.0,-3.0,1.0,1.0,-2.0,-2.0,2.0
1705327301.0692632,-1.0,-1.0,-7.0,-1.0,0.0,-2.0,1.0,-1.0
1705327301.0692632,-2.0,-1.0,-2.0,1.0,-1.0,0.0,-1.0,-1.0
1705327301.0692632,-1.0,-2.0,4.0,-4.0,-3.0,0.0,-1.0,0.0
1705327301.0892985,-2.0,-3.0,-16.0,1.0,3.0,-1.0,1.0,-2.0
1705327301.0892985,-2.0,0.0,4.0,1.0,4.0,2.0,1.0,1.0
1705327301.0892985,1.0,-2.0,5.0,-3.0,-2.0,-2.0,-1.0,0.0
1705327301.0892985,-2.0,-1.0,0.0,1.0,2.0,0.0,2.0,-4.0
1705327301.109265,1.0,-2.0,-6.0,1.0,2.0,0.0,-3.0,-1.0
1705327301.109265,-2.0,0.0,0.0,-4.0,-5.0,-1.0,-2.0,0.0
1705327301.109265,2.0,1.0,6.0,-2.0,-4.0,1.0,-8.0,-4.0
1705327301.109265,-2.0,-2.0,0.0,-5.0,-4.0,-4.0,8.0,-1.0
1705327301.1292624,-2.0,-3.0,-12.0,1.0,-2.0,-4.0,-4.0,0.0
1705327301.1292624,0.0,0.0,7.0,-2.0,0.0,-1.0,3.0,3.0
1705327301.1292624,2.0,0.0,-6.0,3.0,6.0,2.0,1.0,-5.0
1705327301.1292624,2.0,3.0,25.0,1.0,-3.0,-4.0,-10.0,-4.0
1705327301.1492972,0.0,0.0,-5.0,-2.0,0.0,3.0,9.0,2.0
1705327301.1492972,-2.0,-3.0,-4.0,-5.0,-4.0,-3.0,-3.0,2.0
1705327301.1492972,-3.0,-1.0,16.0,1.0,-3.0,-1.0,-2.0,-7.0
1705327301.1492972,-2.0,1.0,-20.0,-1.0,0.0,0.0,2.0,1.0
1705327301.169262,-1.0,-4.0,-4.0,-4.0,-5.0,-4.0,-7.0,-4.0
1705327301.169262,-3.0,-1.0,-8.0,-6.0,-3.0,-1.0,-4.0,-4.0
1705327301.169262,0.0,0.0,-1.0,-2.0,-1.0,-1.0,8.0,1.0
1705327301.169262,-2.0,-2.0,-6.0,1.0,0.0,-1.0,-7.0,-3.0
1705327301.189264,0.0,-2.0,-7.0,2.0,8.0,5.0,-2.0,0.0
1705327301.189264,-2.0,1.0,-1.0,-1.0,-4.0,-5.0,3.0,-2.0
1705327301.189264,0.0,1.0,11.0,-3.0,-5.0,-3.0,-2.0,0.0
1705327301.189264,3.0,-1.0,4.0,-1.0,-2.0,-1.0,-2.0,0.0
1705327301.209262,-2.0,-1.0,-12.0,-5.0,-7.0,-5.0,-3.0,-3.0
1705327301.209262,2.0,0.0,5.0,-3.0,-7.0,-4.0,-7.0,5.0
1705327301.209262,-5.0,-1.0,1.0,2.0,9.0,-4.0,-4.0,-5.0
1705327301.209262,0.0,0.0,3.0,4.0,5.0,8.0,5.0,16.0
1705327301.234709,-5.0,-2.0,5.0,-2.0,2.0,-3.0,-7.0,-11.0
1705327301.234709,3.0,0.0,5.0,0.0,0.0,2.0,-6.0,-2.0
1705327301.234709,-4.0,-2.0,-13.0,-2.0,-6.0,-2.0,3.0,8.0
1705327301.234709,0.0,-2.0,6.0,-5.0,-4.0,-2.0,-3.0,8.0
1705327301.2551513,-3.0,1.0,-16.0,-2.0,-3.0,1.0,3.0,4.0
1705327301.2551513,-2.0,0.0,-1.0,1.0,0.0,-3.0,-7.0,-10.0
1705327301.2551513,0.0,-6.0,-15.0,-4.0,-2.0,-2.0,-1.0,12.0
1705327301.2551513,-2.0,-2.0,-12.0,0.0,2.0,1.0,0.0,-5.0
1705327301.2751524,1.0,0.0,4.0,4.0,-1.0,-3.0,3.0,0.0
1705327301.2751524,-2.0,-2.0,17.0,-2.0,-3.0,-2.0,2.0,-9.0
1705327301.2751524,-3.0,-3.0,-25.0,-5.0,-2.0,-1.0,-1.0,-3.0
1705327301.2751524,-1.0,0.0,-3.0,0.0,0.0,-2.0,2.0,-3.0
1705327301.2851536,1.0,0.0,13.0,2.0,3.0,0.0,-2.0,0.0
1705327301.2851536,-2.0,-4.0,-14.0,-2.0,1.0,1.0,2.0,3.0
1705327301.2851536,-1.0,1.0,9.0,0.0,-2.0,-2.0,-3.0,-2.0
1705327301.2851536,1.0,-2.0,-3.0,-2.0,-6.0,-3.0,-4.0,-3.0
1705327301.315195,1.0,2.0,1.0,-1.0,-2.0,0.0,3.0,0.0
1705327301.315195,-1.0,-2.0,-11.0,-1.0,0.0,2.0,1.0,-1.0
1705327301.315195,1.0,2.0,19.0,-1.0,2.0,3.0,0.0,1.0
1705327301.315195,-3.0,-5.0,-42.0,-6.0,-4.0,-2.0,-2.0,-6.0
1705327301.3351543,0.0,1.0,28.0,1.0,-1.0,-1.0,-3.0,10.0
1705327301.3351543,-1.0,-5.0,-22.0,1.0,3.0,1.0,20.0,-15.0
1705327301.3351543,-2.0,-2.0,-15.0,-3.0,-2.0,-2.0,-12.0,0.0
1705327301.3351543,3.0,2.0,21.0,0.0,0.0,0.0,15.0,10.0
1705327301.3451538,-6.0,-1.0,-2.0,-3.0,-1.0,-2.0,-16.0,-44.0
1705327301.3451538,-1.0,1.0,0.0,-1.0,-2.0,1.0,-8.0,8.0
1705327301.3451538,-2.0,-6.0,-25.0,-3.0,0.0,2.0,2.0,-9.0
1705327301.3451538,-6.0,0.0,11.0,-1.0,1.0,-1.0,-2.0,2.0
1705327301.3751545,0.0,-2.0,3.0,-1.0,-4.0,0.0,3.0,10.0
1705327301.3751545,-1.0,-1.0,-12.0,-3.0,-1.0,-3.0,-2.0,0.0
1705327301.3751545,-1.0,-1.0,12.0,1.0,0.0,0.0,-5.0,-9.0
1705327301.3751545,-1.0,-1.0,20.0,2.0,0.0,3.0,-9.0,2.0
1705327301.395155,-2.0,-1.0,-13.0,-1.0,-2.0,1.0,11.0,18.0
1705327301.395155,6.0,2.0,-13.0,0.0,1.0,1.0,-3.0,-7.0
1705327301.395155,1.0,2.0,18.0,0.0,-2.0,-3.0,12.0,-6.0
1705327301.395155,-2.0,-6.0,-27.0,-3.0,0.0,0.0,-4.0,19.0
1705327301.4051504,6.0,3.0,28.0,1.0,0.0,0.0,1.0,4.0
1705327301.4051504,-2.0,1.0,21.0,1.0,-2.0,-6.0,6.0,11.0
1705327301.4051504,-4.0,-4.0,-46.0,-2.0,-2.0,-8.0,-24.0,-4.0
1705327301.4051504,-6.0,-1.0,16.0,0.0,3.0,7.0,15.0,-14.0
1705327301.4351532,0.0,-1.0,6.0,4.0,6.0,7.0,6.0,15.0
1705327301.4351532,-4.0,-5.0,-13.0,-4.0,-3.0,0.0,-1.0,7.0
1705327301.4351532,2.0,-1.0,13.0,-3.0,-5.0,-2.0,1.0,-13.0
1705327301.4351532,-2.0,1.0,-9.0,-6.0,-6.0,-9.0,-22.0,-5.0
1705327301.4551537,-1.0,-1.0,-21.0,-2.0,-3.0,-2.0,3.0,-5.0
1705327301.4551537,-3.0,-4.0,8.0,-2.0,-1.0,3.0,3.0,7.0
1705327301.4551537,1.0,0.0,-11.0,0.0,0.0,1.0,-4.0,-29.0
1705327301.4551537,-4.0,-3.0,1.0,0.0,-2.0,-2.0,-3.0,-12.0
1705327301.465155,-1.0,-3.0,2.0,-6.0,-1.0,-2.0,-4.0,-5.0
1705327301.465155,0.0,5.0,17.0,7.0,3.0,0.0,-6.0,-1.0
1705327301.465155,-6.0,-9.0,-31.0,-10.0,-3.0,-1.0,5.0,16.0
1705327301.465155,8.0,7.0,6.0,3.0,2.0,0.0,-7.0,6.0
1705327301.4951558,-4.0,-4.0,-2.0,-5.0,-7.0,-5.0,-4.0,-9.0
1705327301.4951558,-4.0,-3.0,11.0,-5.0,-8.0,-8.0,1.0,4.0
1705327301.4951558,-5.0,4.0,41.0,6.0,4.0,0.0,3.0,-2.0
1705327301.4951558,4.0,-4.0,-24.0,4.0,13.0,4.0,14.0,3.0
1705327301.5151513,1.0,-7.0,7.0,6.0,2.0,1.0,-3.0,15.0
1705327301.5151513,-4.0,4.0,-16.0,-9.0,-4.0,-2.0,-10.0,-43.0
1705327301.5151513,1.0,-8.0,-5.0,-6.0,-6.0,-1.0,1.0,19.0
1705327301.5151513,-1.0,2.0,6.0,0.0,-5.0,-3.0,-7.0,-40.0
1705327301.5251575,0.0,-2.0,33.0,1.0,1.0,2.0,3.0,0.0
1705327301.5251575,2.0,-13.0,-55.0,-8.0,-2.0,-4.0,-7.0,10.0
1705327301.5251575,8.0,12.0,28.0,5.0,-2.0,-2.0,5.0,13.0
1705327301.5251575,3.0,-1.0,-35.0,6.0,-1.0,-1.0,-2.0,1.0
1705327301.5551538,-1.0,-21.0,6.0,-11.0,-8.0,-12.0,-8.0,-1.0
1705327301.5551538,-4.0,40.0,12.0,-12.0,-4.0,2.0,-1.0,-6.0
1705327301.5551538,-3.0,0.0,-37.0,-7.0,0.0,1.0,-1.0,9.0
1705327301.5551538,0.0,-4.0,2.0,-7.0,-4.0,-2.0,1.0,6.0
1705327301.575157,-4.0,14.0,-18.0,13.0,3.0,2.0,4.0,-9.0
1705327301.575157,8.0,-27.0,12.0,-2.0,-3.0,-5.0,-4.0,40.0
1705327301.575157,-10.0,10.0,-7.0,4.0,2.0,-3.0,-9.0,-62.0
1705327301.575157,9.0,-5.0,22.0,7.0,-3.0,-1.0,1.0,0.0
1705327301.5851536,5.0,14.0,-21.0,-3.0,-2.0,-2.0,-1.0,-4.0
1705327301.5851536,4.0,43.0,46.0,7.0,7.0,6.0,5.0,1.0
1705327301.5851536,-12.0,-9.0,2.0,-3.0,1.0,0.0,-2.0,11.0
1705327301.5851536,-2.0,-6.0,-3.0,-11.0,-9.0,-9.0,-13.0,-4.0
1705327301.625152,2.0,6.0,0.0,6.0,4.0,5.0,8.0,4.0
1705327301.625152,10.0,-19.0,-8.0,3.0,6.0,3.0,-42.0,0.0
1705327301.625152,28.0,-5.0,-2.0,-12.0,-18.0,-14.0,77.0,28.0
1705327301.625152,-32.0,55.0,39.0,17.0,11.0,8.0,-15.0,-25.0
1705327301.6351945,5.0,-26.0,-1.0,6.0,23.0,14.0,19.0,58.0
1705327301.6351945,-32.0,23.0,-4.0,2.0,1.0,-1.0,-49.0,-69.0
1705327301.6351945,0.0,52.0,17.0,5.0,-4.0,-8.0,-1.0,46.0
1705327301.6351945,-13.0,-51.0,-13.0,-34.0,-55.0,-28.0,-1.0,-55.0
1705327301.6451883,5.0,10.0,-24.0,-29.0,-22.0,-10.0,3.0,5.0
1705327301.6451883,10.0,-89.0,-24.0,25.0,40.0,24.0,16.0,-29.0
1705327301.6451883,-5.0,21.0,4.0,4.0,68.0,-13.0,-22.0,15.0
1705327301.6451883,-9.0,4.0,18.0,-32.0,-73.0,-4.0,14.0,9.0
1705327301.675152,-4.0,-29.0,-14.0,14.0,7.0,20.0,-18.0,-32.0
1705327301.675152,-5.0,39.0,19.0,64.0,76.0,52.0,27.0,31.0
1705327301.675152,2.0,-29.0,-27.0,39.0,60.0,4.0,-14.0,-20.0
1705327301.675152,28.0,-4.0,-15.0,-18.0,-16.0,-34.0,-26.0,25.0
1705327301.6951518,-3.0,-1.0,0.0,-33.0,-54.0,-29.0,14.0,17.0
1705327301.6951518,-13.0,7.0,-16.0,-42.0,-78.0,-14.0,30.0,-53.0
1705327301.6951518,6.0,2.0,27.0,16.0,3.0,24.0,-1.0,12.0
1705327301.6951518,3.0,25.0,-15.0,21.0,43.0,20.0,5.0,3.0
1705327301.7051523,5.0,-20.0,-12.0,-13.0,-12.0,-6.0,-11.0,7.0
1705327301.7051523,-15.0,43.0,-1.0,-6.0,-2.0,-16.0,2.0,9.0
1705327301.7051523,-2.0,5.0,23.0,-28.0,-50.0,-15.0,-10.0,-4.0
1705327301.7051523,-17.0,-25.0,-1.0,-6.0,-36.0,-1.0,-16.0,-7.0
1705327301.7351513,-13.0,39.0,15.0,-5.0,41.0,7.0,-9.0,-28.0
1705327301.7351513,22.0,-8.0,-14.0,16.0,26.0,9.0,23.0,40.0
1705327301.7351513,17.0,-6.0,-12.0,-11.0,-15.0,10.0,-4.0,-10.0
1705327301.7351513,-20.0,-3.0,-4.0,38.0,46.0,-1.0,-8.0,15.0
1705327301.7583985,-3.0,-1.0,9.0,40.0,12.0,-13.0,-15.0,-15.0
1705327301.7583985,3.0,-7.0,2.0,-30.0,-50.0,-35.0,-13.0,5.0
1705327301.759398,-1.0,-3.0,-26.0,-38.0,-26.0,17.0,7.0,5.0
1705327301.759398,14.0,8.0,30.0,44.0,55.0,11.0,6.0,3.0
1705327301.772563,6.0,-1.0,0.0,-12.0,-8.0,0.0,5.0,-3.0
1705327301.772563,-19.0,-16.0,10.0,-10.0,-21.0,-15.0,-11.0,4.0
1705327301.787976,-15.0,-6.0,21.0,-10.0,-25.0,-11.0,-16.0,-16.0
1705327301.787976,2.0,-9.0,-29.0,-22.0,3.0,13.0,19.0,-25.0
1705327301.787976,-6.0,-2.0,-20.0,-1.0,-4.0,-4.0,-13.0,-60.0
1705327301.787976,2.0,9.0,34.0,-5.0,-7.0,-7.0,-2.0,22.0
1705327301.787976,-4.0,-18.0,-17.0,14.0,4.0,0.0,-6.0,-2.0
1705327301.787976,4.0,0.0,8.0,7.0,10.0,-2.0,7.0,1.0
1705327301.818023,-4.0,-11.0,14.0,-3.0,9.0,5.0,6.0,17.0
1705327301.818023,-3.0,-31.0,-36.0,-15.0,-9.0,1.0,7.0,-3.0
1705327301.818023,-2.0,0.0,0.0,-4.0,-6.0,-3.0,-3.0,-9.0
1705327301.818023,5.0,18.0,29.0,8.0,3.0,2.0,3.0,21.0
1705327301.8280225,0.0,19.0,12.0,4.0,-1.0,2.0,-2.0,2.0
1705327301.8280225,7.0,-3.0,-4.0,3.0,-3.0,-7.0,-3.0,7.0
1705327301.8280225,-11.0,-12.0,-7.0,-4.0,-7.0,-8.0,-13.0,-5.0
1705327301.8280225,2.0,1.0,-22.0,-20.0,-10.0,-4.0,-4.0,9.0
1705327301.847977,-3.0,4.0,6.0,4.0,-5.0,-6.0,-7.0,0.0
1705327301.847977,4.0,1.0,10.0,6.0,8.0,7.0,0.0,-8.0
1705327301.847977,1.0,7.0,2.0,3.0,-4.0,1.0,2.0,-1.0
1705327301.847977,1.0,-1.0,-10.0,-9.0,1.0,3.0,7.0,5.0
1705327301.8779812,-2.0,-2.0,-7.0,-1.0,-2.0,-2.0,1.0,0.0
1705327301.8779812,2.0,-5.0,3.0,-1.0,-1.0,-5.0,3.0,9.0
1705327301.8779812,-8.0,-5.0,-15.0,-7.0,-6.0,0.0,3.0,-16.0
1705327301.8779812,4.0,-8.0,-12.0,-5.0,7.0,6.0,6.0,24.0
1705327301.887979,-1.0,3.0,6.0,1.0,0.0,9.0,4.0,-1.0
1705327301.887979,-3.0,-7.0,-34.0,-16.0,-8.0,-5.0,-2.0,-4.0
1705327301.897981,0.0,-8.0,-2.0,-3.0,1.0,-1.0,0.0,3.0
1705327301.897981,-6.0,5.0,2.0,-1.0,1.0,1.0,1.0,-6.0
1705327301.9079792,2.0,12.0,-6.0,-1.0,-1.0,0.0,0.0,8.0
1705327301.9079792,-2.0,4.0,17.0,5.0,2.0,1.0,2.0,14.0
1705327301.9079792,-14.0,-33.0,-7.0,0.0,9.0,7.0,4.0,-13.0
1705327301.9079792,15.0,-10.0,-8.0,-3.0,-2.0,2.0,-2.0,2.0
1705327301.9380126,-7.0,-3.0,2.0,1.0,2.0,0.0,0.0,17.0
1705327301.9380126,3.0,4.0,5.0,1.0,0.0,-4.0,-2.0,-14.0
1705327301.9380126,17.0,16.0,16.0,6.0,-1.0,3.0,0.0,37.0
1705327301.9380126,8.0,-5.0,-2.0,-4.0,0.0,-9.0,-17.0,16.0
1705327301.9480894,-34.0,-7.0,-10.0,-8.0,-11.0,-5.0,5.0,-25.0
1705327301.9480894,0.0,2.0,0.0,-1.0,11.0,-1.0,1.0,32.0
1705327301.9679763,4.0,5.0,11.0,7.0,-4.0,11.0,33.0,-4.0
1705327301.9679763,6.0,-1.0,5.0,8.0,10.0,2.0,4.0,17.0
1705327301.9679763,0.0,-1.0,-8.0,-2.0,-2.0,-7.0,-16.0,-28.0
1705327301.9679763,-20.0,-27.0,-18.0,-9.0,-4.0,-2.0,-3.0,-9.0
1705327301.9679763,6.0,-6.0,-11.0,-10.0,-8.0,-7.0,-12.0,-21.0
1705327301.9679763,-15.0,-4.0,-8.0,-13.0,-12.0,-4.0,3.0,-41.0
1705327301.9979768,4.0,4.0,4.0,0.0,-1.0,5.0,17.0,18.0
1705327301.9979768,12.0,2.0,5.0,1.0,4.0,6.0,8.0,-16.0
1705327301.9979768,-11.0,-3.0,5.0,-1.0,2.0,0.0,1.0,-15.0
1705327301.9979768,1.0,-5.0,-9.0,-7.0,-2.0,9.0,11.0,-2.0
1705327302.0079784,4.0,2.0,-2.0,-4.0,-1.0,-6.0,-16.0,-4.0
1705327302.0079784,-2.0,-4.0,9.0,7.0,2.0,-7.0,-25.0,-13.0
1705327302.0179777,2.0,10.0,20.0,21.0,10.0,-11.0,-37.0,8.0
1705327302.0179777,-22.0,-9.0,-3.0,6.0,0.0,-22.0,-50.0,-36.0
1705327302.0279784,6.0,-12.0,4.0,16.0,3.0,-18.0,-48.0,14.0
1705327302.0279784,2.0,-10.0,-12.0,9.0,-3.0,-18.0,-36.0,46.0
1705327302.0279784,-27.0,1.0,5.0,17.0,1.0,-15.0,-28.0,59.0
1705327302.0279784,18.0,-6.0,-7.0,8.0,-1.0,-10.0,-10.0,37.0
1705327302.057981,-38.0,-9.0,-5.0,7.0,-7.0,-11.0,-17.0,31.0
1705327302.057981,-6.0,-14.0,-7.0,2.0,-12.0,-12.0,-7.0,-18.0
1705327302.057981,18.0,3.0,-3.0,2.0,-6.0,1.0,2.0,-42.0
1705327302.057981,2.0,5.0,3.0,-1.0,-8.0,12.0,24.0,-37.0
1705327302.06798,16.0,17.0,-3.0,-5.0,-6.0,12.0,30.0,-31.0
1705327302.06798,0.0,7.0,-8.0,-11.0,-8.0,12.0,31.0,-63.0
1705327302.0779798,-1.0,3.0,-5.0,-15.0,-6.0,8.0,2.0,32.0
1705327302.0779798,6.0,13.0,9.0,-9.0,-5.0,5.0,19.0,-7.0
1705327302.0880244,0.0,-8.0,-16.0,-18.0,-6.0,7.0,4.0,-3.0
1705327302.0880244,-3.0,11.0,2.0,-12.0,-5.0,-5.0,10.0,6.0
1705327302.0880244,-6.0,1.0,9.0,-2.0,4.0,25.0,63.0,30.0
1705327302.0880244,48.0,12.0,7.0,3.0,12.0,4.0,11.0,31.0
1705327302.118032,-28.0,-4.0,4.0,-3.0,4.0,5.0,1.0,4.0
1705327302.118032,3.0,0.0,2.0,-6.0,0.0,-3.0,-7.0,-30.0
1705327302.118032,-7.0,6.0,-12.0,-8.0,-1.0,-14.0,-13.0,36.0
1705327302.118032,37.0,-8.0,-5.0,-7.0,-4.0,3.0,13.0,-38.0
1705327302.1279776,-43.0,-12.0,-9.0,-8.0,-5.0,-2.0,12.0,-29.0
1705327302.1279776,11.0,-6.0,-3.0,-1.0,1.0,1.0,8.0,19.0
1705327302.1382253,-7.0,1.0,1.0,-1.0,1.0,-3.0,7.0,-11.0
1705327302.1382253,-25.0,3.0,4.0,-1.0,-1.0,-13.0,-17.0,18.0
1705327302.1480217,34.0,8.0,-2.0,-2.0,-1.0,15.0,45.0,39.0
1705327302.1480217,-11.0,2.0,3.0,1.0,5.0,7.0,16.0,18.0
1705327302.1480217,22.0,11.0,8.0,3.0,5.0,4.0,1.0,-16.0
1705327302.1480217,-12.0,14.0,13.0,2.0,1.0,0.0,-4.0,14.0
1705327302.177978,-21.0,-14.0,-13.0,-8.0,0.0,-3.0,-7.0,5.0
1705327302.177978,-6.0,6.0,6.0,2.0,1.0,0.0,-12.0,-39.0
1705327302.177978,0.0,-1.0,-6.0,-1.0,2.0,3.0,0.0,11.0
1705327302.177978,-2.0,-4.0,-5.0,-2.0,-5.0,-4.0,-15.0,17.0
1705327302.1980085,26.0,-2.0,-2.0,-1.0,3.0,-2.0,-8.0,17.0
1705327302.1980085,-1.0,6.0,12.0,17.0,11.0,6.0,9.0,21.0
1705327302.1980085,-16.0,-13.0,-14.0,-4.0,-1.0,-14.0,-21.0,-29.0
1705327302.1980085,-15.0,-11.0,-6.0,-2.0,-6.0,2.0,2.0,34.0
1705327302.2079804,24.0,11.0,13.0,7.0,1.0,-2.0,-1.0,-7.0
1705327302.2079804,10.0,7.0,11.0,2.0,0.0,-1.0,-6.0,26.0
1705327302.2079804,2.0,-3.0,5.0,2.0,-2.0,-18.0,-15.0,-9.0
1705327302.2079804,-28.0,-17.0,-19.0,-7.0,-3.0,13.0,-7.0,-8.0
1705327302.2379775,7.0,8.0,4.0,2.0,0.0,-5.0,-17.0,-86.0
1705327302.2379775,-3.0,12.0,11.0,5.0,0.0,-9.0,-3.0,25.0
1705327302.2379775,-2.0,-2.0,-8.0,-6.0,-6.0,7.0,3.0,-34.0
1705327302.2379775,-3.0,0.0,7.0,4.0,4.0,5.0,19.0,14.0
1705327302.2579765,23.0,-4.0,3.0,2.0,0.0,-5.0,-4.0,43.0
1705327302.2579765,-14.0,-2.0,-11.0,-5.0,-2.0,2.0,-9.0,-16.0
1705327302.2579765,11.0,10.0,20.0,7.0,1.0,-3.0,-6.0,-4.0
1705327302.2579765,-10.0,-1.0,-10.0,-3.0,-2.0,-2.0,1.0,-7.0
1705327302.2679763,-13.0,-4.0,0.0,0.0,0.0,2.0,1.0,24.0
1705327302.2679763,16.0,14.0,16.0,4.0,-2.0,-3.0,6.0,-2.0
1705327302.2679763,-8.0,-13.0,-15.0,-3.0,-1.0,-1.0,0.0,16.0
1705327302.2679763,0.0,6.0,5.0,4.0,3.0,2.0,3.0,-29.0
1705327302.2982643,25.0,14.0,11.0,5.0,2.0,-3.0,3.0,27.0
1705327302.2982643,-11.0,-13.0,3.0,-4.0,-2.0,1.0,-5.0,-31.0
1705327302.2992642,-23.0,-17.0,-16.0,-7.0,-3.0,0.0,-6.0,-20.0
1705327302.2992642,-2.0,-18.0,-7.0,0.0,-1.0,-4.0,6.0,27.0
1705327302.3209922,-3.0,-4.0,-4.0,-2.0,-4.0,-6.0,-2.0,-25.0
1705327302.3209922,16.0,0.0,-10.0,-5.0,-3.0,2.0,-2.0,39.0
1705327302.3209922,10.0,7.0,6.0,3.0,2.0,2.0,7.0,-20.0
1705327302.3209922,-22.0,-13.0,-11.0,-6.0,-6.0,-7.0,-11.0,5.0
1705327302.331027,5.0,-12.0,-13.0,-4.0,-1.0,-4.0,-10.0,4.0
1705327302.331027,-4.0,-3.0,-2.0,-3.0,-3.0,3.0,0.0,11.0
1705327302.331027,-5.0,-22.0,-13.0,-5.0,0.0,1.0,-2.0,17.0
1705327302.331027,-2.0,11.0,9.0,0.0,-1.0,-6.0,-13.0,0.0
1705327302.3509922,-11.0,-13.0,-22.0,-9.0,-7.0,-3.0,6.0,14.0
1705327302.3509922,10.0,0.0,-14.0,-6.0,-3.0,0.0,14.0,-6.0
1705327302.3509922,-6.0,-2.0,2.0,-2.0,-5.0,-3.0,-3.0,-21.0
1705327302.3509922,7.0,9.0,14.0,3.0,2.0,-4.0,-3.0,0.0
1705327302.3810008,4.0,-1.0,4.0,3.0,3.0,4.0,-6.0,20.0
1705327302.3810008,-5.0,3.0,6.0,5.0,1.0,-4.0,-8.0,-7.0
1705327302.3810008,7.0,-4.0,-8.0,-4.0,0.0,0.0,5.0,10.0
1705327302.3810008,-21.0,-7.0,-10.0,-3.0,0.0,1.0,1.0,-18.0
1705327302.400993,4.0,-4.0,-5.0,-4.0,-2.0,1.0,-3.0,-16.0
1705327302.400993,-3.0,-6.0,4.0,1.0,1.0,3.0,2.0,20.0
1705327302.400993,4.0,9.0,4.0,-2.0,-8.0,-7.0,-4.0,-19.0
1705327302.400993,7.0,5.0,3.0,0.0,1.0,-2.0,9.0,40.0
1705327302.4109938,6.0,5.0,0.0,11.0,9.0,5.0,6.0,17.0
1705327302.4109938,-9.0,-3.0,-1.0,0.0,-10.0,4.0,-2.0,-2.0
1705327302.4109938,-14.0,-17.0,-5.0,-4.0,-4.0,0.0,-7.0,-24.0
1705327302.4109938,3.0,-9.0,-9.0,-8.0,-3.0,-4.0,0.0,11.0
1705327302.4409938,-8.0,6.0,5.0,-9.0,-16.0,-6.0,-22.0,-33.0
1705327302.4409938,-12.0,-7.0,-13.0,-10.0,-6.0,-12.0,6.0,-25.0
1705327302.4409938,3.0,16.0,14.0,11.0,6.0,6.0,3.0,3.0
1705327302.4409938,18.0,9.0,-5.0,4.0,8.0,5.0,5.0,-10.0
1705327302.4509926,-31.0,-4.0,-11.0,-2.0,7.0,3.0,-3.0,-9.0
1705327302.4509926,-9.0,-13.0,-6.0,-11.0,-13.0,-4.0,-7.0,8.0
1705327302.4509926,-8.0,-2.0,0.0,-9.0,-4.0,-10.0,-15.0,-38.0
1705327302.4509926,17.0,9.0,11.0,10.0,0.0,-2.0,18.0,-6.0
1705327302.4709916,22.0,4.0,3.0,5.0,14.0,3.0,6.0,-1.0
1705327302.4709916,-27.0,-8.0,-4.0,4.0,14.0,3.0,-4.0,-6.0
1705327302.4709916,5.0,10.0,-9.0,-18.0,-36.0,-6.0,-4.0,27.0
1705327302.4709916,6.0,2.0,1.0,-4.0,-6.0,0.0,-1.0,-11.0
1705327302.5009909,-1.0,4.0,3.0,10.0,-1.0,-5.0,16.0,20.0
1705327302.5009909,21.0,2.0,3.0,5.0,7.0,0.0,3.0,1.0
1705327302.5009909,-12.0,-3.0,3.0,9.0,34.0,3.0,5.0,16.0
1705327302.5009909,-6.0,-2.0,5.0,-22.0,-64.0,-22.0,-6.0,-7.0
1705327302.5209925,-17.0,5.0,-7.0,-24.0,-25.0,31.0,3.0,-4.0
1705327302.5209925,5.0,4.0,-6.0,44.0,72.0,29.0,10.0,-9.0
1705327302.5209925,23.0,2.0,4.0,14.0,27.0,3.0,4.0,24.0
1705327302.5209925,-9.0,-8.0,-4.0,-15.0,-40.0,-31.0,1.0,-9.0
1705327302.5309904,-1.0,2.0,12.0,-13.0,-18.0,-37.0,-17.0,1.0
1705327302.5309904,2.0,2.0,-6.0,-18.0,-39.0,26.0,-7.0,-21.0
1705327302.5309904,-5.0,-7.0,-19.0,11.0,-4.0,-1.0,42.0,24.0
1705327302.5309904,-6.0,0.0,1.0,12.0,87.0,25.0,5.0,4.0
1705327302.5609908,10.0,1.0,-1.0,-15.0,-103.0,-6.0,-3.0,-20.0
1705327302.5609908,-7.0,0.0,-1.0,-15.0,-29.0,-25.0,-12.0,21.0
1705327302.5609908,12.0,3.0,-7.0,-27.0,-48.0,-36.0,-32.0,-2.0
1705327302.5609908,-14.0,-6.0,5.0,-44.0,-121.0,32.0,-15.0,-22.0
1705327302.5809915,-2.0,-8.0,1.0,54.0,127.0,40.0,23.0,7.0
1705327302.5809915,8.0,16.0,16.0,28.0,28.0,-30.0,-3.0,-7.0
1705327302.5809915,11.0,19.0,26.0,12.0,70.0,52.0,8.0,37.0
1705327302.5809915,6.0,2.0,17.0,119.0,127.0,-4.0,-34.0,1.0
1705327302.5910277,-11.0,-7.0,-17.0,-120.0,-101.0,-10.0,48.0,-29.0
1705327302.5910277,-16.0,-4.0,3.0,115.0,-4.0,-4.0,0.0,3.0
1705327302.5910277,11.0,-3.0,-3.0,-76.0,-75.0,-82.0,-19.0,10.0
1705327302.5910277,-13.0,-6.0,-14.0,-32.0,-62.0,4.0,-29.0,7.0
1705327302.6309912,-12.0,-14.0,5.0,19.0,100.0,-1.0,-26.0,-4.0
1705327302.6309912,9.0,-2.0,-22.0,17.0,94.0,82.0,26.0,21.0
1705327302.6309912,-10.0,-6.0,-17.0,-2.0,-97.0,-77.0,-27.0,-17.0
1705327302.6309912,4.0,9.0,-4.0,-107.0,-79.0,-4.0,-19.0,6.0
1705327302.6309912,4.0,-9.0,9.0,76.0,60.0,28.0,-11.0,39.0
1705327302.6309912,63.0,32.0,33.0,36.0,86.0,110.0,103.0,93.0
1705327302.6411533,5.0,10.0,38.0,-3.0,28.0,9.0,30.0,-78.0
1705327302.6411533,-80.0,-31.0,-20.0,-71.0,-98.0,-121.0,-56.0,-3.0
1705327302.6509957,23.0,-42.0,-37.0,-78.0,-122.0,-66.0,-30.0,2.0
1705327302.6509957,-6.0,-23.0,-12.0,-71.0,-61.0,-36.0,-47.0,12.0
1705327302.6509957,60.0,75.0,-8.0,57.0,42.0,49.0,58.0,64.0
1705327302.6509957,32.0,3.0,-5.0,36.0,52.0,22.0,29.0,-12.0
1705327302.680991,-49.0,82.0,20.0,17.0,9.0,-11.0,-26.0,-30.0
1705327302.680991,-10.0,-58.0,6.0,-13.0,-18.0,-19.0,-11.0,-16.0
1705327302.680991,-17.0,-13.0,-23.0,-13.0,-7.0,12.0,-6.0,-18.0
1705327302.680991,18.0,8.0,13.0,21.0,43.0,27.0,26.0,-8.0
1705327302.6909912,31.0,-32.0,-10.0,35.0,38.0,31.0,11.0,25.0
1705327302.6909912,-38.0,66.0,36.0,-46.0,-66.0,-62.0,-34.0,-54.0
1705327302.7009926,-30.0,-68.0,6.0,-28.0,-9.0,2.0,-23.0,-17.0
1705327302.7009926,-18.0,-108.0,-9.0,60.0,40.0,16.0,1.0,0.0
1705327302.7109938,28.0,87.0,-10.0,25.0,26.0,4.0,17.0,16.0
1705327302.7109938,-6.0,-19.0,-27.0,-39.0,-37.0,-30.0,-9.0,-12.0
1705327302.7109938,7.0,22.0,3.0,-29.0,6.0,16.0,-22.0,1.0
1705327302.7109938,-37.0,-5.0,-8.0,7.0,14.0,8.0,11.0,3.0
1705327302.740991,-9.0,-79.0,15.0,23.0,-25.0,-13.0,-1.0,-6.0
1705327302.740991,26.0,-17.0,-41.0,4.0,2.0,-11.0,-13.0,-11.0
1705327302.740991,-28.0,0.0,-1.0,11.0,20.0,21.0,-8.0,10.0
1705327302.740991,26.0,12.0,-12.0,-20.0,-2.0,-6.0,12.0,1.0
1705327302.750996,6.0,30.0,17.0,-16.0,-7.0,-7.0,-1.0,-5.0
1705327302.750996,-10.0,-9.0,6.0,-14.0,-2.0,0.0,-4.0,-3.0
1705327302.7609925,11.0,7.0,7.0,26.0,0.0,2.0,3.0,7.0
1705327302.7609925,9.0,19.0,2.0,-7.0,7.0,5.0,14.0,-1.0
1705327302.7710164,-15.0,-11.0,2.0,5.0,8.0,4.0,3.0,-4.0
1705327302.7710164,5.0,13.0,7.0,-7.0,-15.0,-12.0,-4.0,1.0
1705327302.7809916,-9.0,-26.0,-20.0,-5.0,-3.0,1.0,0.0,-5.0
1705327302.7809916,4.0,14.0,1.0,-1.0,3.0,0.0,4.0,-2.0
1705327302.800991,3.0,-5.0,-2.0,-8.0,-2.0,0.0,-4.0,4.0
1705327302.800991,1.0,-5.0,-1.0,-9.0,-16.0,-9.0,-2.0,-8.0
1705327302.800991,-2.0,-9.0,1.0,7.0,12.0,7.0,1.0,5.0
1705327302.800991,1.0,21.0,0.0,2.0,8.0,-1.0,2.0,-4.0
1705327302.814486,3.0,-4.0,-1.0,-1.0,-9.0,-2.0,3.0,-1.0
1705327302.814486,-9.0,2.0,-5.0,-13.0,-5.0,-3.0,0.0,-4.0
1705327302.8235207,-6.0,-10.0,-2.0,7.0,6.0,1.0,-2.0,-3.0
1705327302.8235207,7.0,15.0,5.0,6.0,8.0,6.0,3.0,3.0
1705327302.838486,-2.0,-11.0,-5.0,-11.0,-11.0,-15.0,-7.0,-6.0
1705327302.838486,-1.0,25.0,-2.0,-10.0,-6.0,9.0,2.0,-1.0
1705327302.8394861,-11.0,-15.0,-5.0,-2.0,-2.0,2.0,-4.0,-2.0
1705327302.8394861,7.0,5.0,0.0,2.0,4.0,2.0,5.0,2.0
1705327302.8536587,-2.0,11.0,6.0,2.0,3.0,-3.0,1.0,-3.0
1705327302.8536587,-3.0,-12.0,-9.0,-12.0,-4.0,-13.0,-10.0,-3.0
1705327302.8536587,5.0,3.0,1.0,3.0,-1.0,4.0,1.0,3.0
1705327302.8536587,9.0,9.0,2.0,4.0,14.0,10.0,5.0,1.0
1705327302.8736606,-10.0,-5.0,-5.0,-10.0,-12.0,-3.0,-8.0,-5.0
1705327302.8736606,2.0,0.0,2.0,-4.0,-1.0,-3.0,7.0,0.0
1705327302.883658,1.0,4.0,-3.0,-3.0,2.0,2.0,-1.0,-2.0
1705327302.883658,-11.0,-7.0,-1.0,6.0,-9.0,-6.0,-6.0,0.0
1705327302.893662,0.0,-7.0,-1.0,3.0,11.0,7.0,0.0,-2.0
1705327302.893662,-2.0,-3.0,0.0,-10.0,-10.0,-10.0,-10.0,-1.0
1705327302.893662,0.0,-2.0,-1.0,3.0,-1.0,-2.0,-2.0,-2.0
1705327302.893662,6.0,6.0,-5.0,-3.0,1.0,2.0,-2.0,2.0
1705327302.9136589,1.0,2.0,2.0,-5.0,-6.0,-3.0,-1.0,0.0
1705327302.9136589,-8.0,-10.0,-7.0,0.0,6.0,2.0,1.0,0.0
1705327302.9136589,2.0,5.0,1.0,-2.0,-10.0,-6.0,-7.0,-3.0
1705327302.9136589,0.0,3.0,3.0,8.0,9.0,7.0,6.0,0.0
1705327302.9336598,-2.0,-4.0,3.0,5.0,6.0,-1.0,1.0,1.0
1705327302.9336598,2.0,-5.0,-2.0,-10.0,-13.0,-11.0,-8.0,-4.0
1705327302.9436574,0.0,2.0,3.0,6.0,5.0,2.0,3.0,1.0
1705327302.9436574,-2.0,-7.0,-1.0,-4.0,-8.0,-3.0,-4.0,-3.0
1705327302.9636667,2.0,-1.0,-4.0,-5.0,-6.0,-7.0,-2.0,-4.0
1705327302.9636667,-3.0,15.0,-2.0,0.0,0.0,0.0,-9.0,-2.0
1705327302.9636667,-3.0,-12.0,-5.0,5.0,3.0,-1.0,1.0,2.0
1705327302.9636667,1.0,4.0,1.0,-2.0,1.0,1.0,9.0,-2.0
1705327302.9836586,6.0,-3.0,-5.0,-10.0,-12.0,-7.0,1.0,-1.0
1705327302.9836586,-11.0,-2.0,4.0,12.0,12.0,6.0,-10.0,1.0
1705327302.9836586,-2.0,0.0,0.0,-1.0,-3.0,-3.0,13.0,-1.0
1705327302.9836586,2.0,1.0,1.0,0.0,6.0,12.0,9.0,2.0
1705327302.9936576,-1.0,-5.0,-5.0,-4.0,-6.0,-4.0,7.0,-2.0
1705327302.9936576,-1.0,-3.0,0.0,3.0,1.0,-2.0,-5.0,-5.0
1705327303.0036588,-2.0,1.0,-2.0,-6.0,-2.0,1.0,-1.0,-2.0
1705327303.0036588,0.0,3.0,3.0,6.0,1.0,-1.0,12.0,0.0
1705327303.013706,-2.0,1.0,0.0,4.0,6.0,5.0,-7.0,0.0
1705327303.013706,1.0,-2.0,-2.0,-3.0,6.0,-4.0,3.0,-2.0
1705327303.023659,-3.0,-2.0,0.0,-2.0,-15.0,-3.0,-12.0,-3.0
1705327303.023659,-2.0,-2.0,-3.0,-5.0,1.0,-6.0,-13.0,-2.0
1705327303.033658,-2.0,0.0,0.0,-3.0,-3.0,0.0,-2.0,-1.0
1705327303.033658,2.0,1.0,1.0,3.0,4.0,-1.0,5.0,2.0
1705327303.033658,5.0,-1.0,0.0,4.0,5.0,1.0,6.0,-2.0
1705327303.033658,-6.0,7.0,-1.0,-7.0,-9.0,-8.0,-8.0,-3.0
1705327303.0536916,-4.0,-2.0,-2.0,-3.0,-10.0,-4.0,-2.0,0.0
1705327303.0536916,2.0,-6.0,-2.0,-2.0,1.0,4.0,4.0,0.0
1705327303.063658,-2.0,-1.0,0.0,5.0,3.0,2.0,-6.0,-1.0
1705327303.063658,3.0,4.0,2.0,-1.0,-4.0,-4.0,-2.0,1.0
1705327303.0736594,-1.0,1.0,-1.0,-2.0,1.0,4.0,2.0,-1.0
1705327303.0736594,-3.0,-8.0,-5.0,-7.0,-14.0,-6.0,-9.0,-6.0
1705327303.0836918,-1.0,4.0,3.0,3.0,11.0,3.0,8.0,1.0
1705327303.0836918,1.0,-5.0,-2.0,-1.0,2.0,-2.0,-1.0,-1.0
1705327303.0936966,-2.0,-1.0,-2.0,-1.0,0.0,-1.0,-3.0,-1.0
1705327303.0936966,2.0,-3.0,-4.0,-6.0,-8.0,0.0,-2.0,0.0
1705327303.0936966,-7.0,-4.0,-4.0,-7.0,-5.0,-8.0,-8.0,-4.0
1705327303.0936966,-4.0,-2.0,1.0,9.0,12.0,8.0,8.0,2.0
1705327303.1136982,1.0,-2.0,0.0,1.0,-3.0,0.0,-5.0,-3.0
1705327303.1136982,2.0,4.0,0.0,-4.0,-10.0,-10.0,-4.0,-2.0
1705327303.1236622,-1.0,-3.0,-1.0,2.0,5.0,4.0,1.0,-1.0
1705327303.1236622,3.0,1.0,-2.0,-1.0,2.0,-1.0,-4.0,0.0
1705327303.1336577,-1.0,1.0,1.0,1.0,1.0,0.0,1.0,0.0
1705327303.1336577,1.0,3.0,-1.0,-2.0,-2.0,-1.0,2.0,1.0
1705327303.14366,-1.0,-1.0,-2.0,-7.0,-7.0,-5.0,-5.0,-1.0
1705327303.14366,-1.0,-9.0,-3.0,-2.0,-2.0,0.0,-1.0,-1.0
1705327303.153662,0.0,0.0,-2.0,1.0,3.0,-2.0,-2.0,-3.0
1705327303.153662,-1.0,0.0,0.0,-3.0,-4.0,1.0,2.0,-1.0
1705327303.153662,0.0,-1.0,-2.0,1.0,1.0,-3.0,-6.0,-1.0
1705327303.153662,1.0,0.0,0.0,-1.0,-1.0,-1.0,3.0,1.0
1705327303.18366,-2.0,-1.0,-1.0,0.0,1.0,-2.0,0.0,-2.0
1705327303.18366,-1.0,-2.0,1.0,2.0,-2.0,0.0,2.0,-1.0
1705327303.18366,1.0,-3.0,-2.0,-4.0,-4.0,-1.0,-2.0,-1.0
1705327303.18366,-2.0,-2.0,-3.0,0.0,1.0,-2.0,1.0,-3.0
1705327303.1936593,-2.0,0.0,0.0,5.0,7.0,6.0,4.0,1.0
1705327303.1936593,-2.0,-1.0,-2.0,-4.0,-3.0,-2.0,-5.0,-2.0
1705327303.2136583,1.0,1.0,2.0,6.0,7.0,4.0,1.0,2.0
1705327303.2136583,0.0,-2.0,-5.0,-8.0,-11.0,-8.0,-8.0,-2.0
1705327303.2136583,-1.0,-2.0,-2.0,-7.0,-6.0,-2.0,-4.0,-2.0
1705327303.2136583,-4.0,1.0,2.0,-4.0,-6.0,0.0,5.0,2.0
1705327303.2136583,0.0,-3.0,3.0,6.0,1.0,0.0,-3.0,-4.0
1705327303.2136583,0.0,5.0,0.0,10.0,10.0,5.0,1.0,-2.0
1705327303.2436585,1.0,3.0,-3.0,4.0,6.0,-1.0,-2.0,0.0
1705327303.2436585,-1.0,-4.0,-2.0,-1.0,0.0,0.0,-2.0,-3.0
1705327303.2436585,-2.0,-1.0,-2.0,-9.0,-9.0,-7.0,-5.0,-1.0
1705327303.2436585,0.0,-1.0,1.0,-5.0,-8.0,-5.0,-7.0,-1.0
1705327303.25366,-2.0,-2.0,0.0,-5.0,-8.0,-5.0,-5.0,-3.0
1705327303.25366,-2.0,-1.0,-1.0,4.0,5.0,1.0,0.0,-1.0
1705327303.2636616,-3.0,-1.0,-1.0,1.0,7.0,5.0,-2.0,2.0
1705327303.2636616,-1.0,1.0,-2.0,2.0,0.0,-2.0,-3.0,-1.0
1705327303.283658,-1.0,-2.0,-4.0,-3.0,0.0,-3.0,-5.0,-1.0
1705327303.283658,-2.0,-2.0,-2.0,-3.0,-9.0,-8.0,-5.0,-3.0
1705327303.2936964,-2.0,-2.0,-2.0,1.0,-11.0,4.0,1.0,0.0
1705327303.2936964,-3.0,-3.0,-1.0,0.0,5.0,5.0,1.0,-2.0
1705327303.3036585,-2.0,-2.0,0.0,3.0,-1.0,-2.0,3.0,-1.0
1705327303.3036585,-1.0,-1.0,0.0,-1.0,-2.0,-2.0,-2.0,-3.0
1705327303.3036585,1.0,-1.0,-2.0,-3.0,0.0,-1.0,-1.0,-1.0
1705327303.3036585,-2.0,1.0,-1.0,-6.0,-13.0,-5.0,-3.0,-3.0
1705327303.3236644,-1.0,-2.0,0.0,-1.0,0.0,2.0,-14.0,-1.0
1705327303.3236644,-2.0,0.0,0.0,7.0,7.0,0.0,19.0,3.0
1705327303.3236644,0.0,-1.0,-2.0,-4.0,3.0,-1.0,-2.0,-4.0
1705327303.3236644,1.0,-2.0,0.0,-2.0,-1.0,0.0,-1.0,0.0
1705327303.3336666,-2.0,0.0,-3.0,-4.0,-4.0,-2.0,-3.0,-3.0
1705327303.3336666,0.0,-1.0,-4.0,-4.0,-4.0,-4.0,-8.0,-2.0
1705327303.3336666,-2.0,-2.0,-3.0,-4.0,-7.0,-3.0,-3.0,-2.0
1705327303.3336666,0.0,-4.0,0.0,3.0,7.0,4.0,1.0,-2.0
1705327303.3630521,-1.0,-2.0,1.0,5.0,5.0,3.0,5.0,2.0
1705327303.3630521,-2.0,2.0,-2.0,-3.0,-1.0,-2.0,-2.0,-1.0
1705327303.3648725,-3.0,-2.0,-4.0,-4.0,-5.0,-8.0,-2.0,-2.0
1705327303.3648725,-1.0,-1.0,-1.0,1.0,6.0,-1.0,-2.0,-1.0
1705327303.3765483,-1.0,-1.0,-3.0,-6.0,-7.0,1.0,3.0,-1.0
1705327303.3765483,-1.0,-1.0,0.0,-1.0,4.0,0.0,0.0,-1.0
1705327303.3765483,-1.0,0.0,-1.0,6.0,9.0,1.0,0.0,-1.0
1705327303.3765483,0.0,1.0,-3.0,-6.0,-9.0,-5.0,-3.0,-2.0
1705327303.3965926,-1.0,-1.0,-1.0,-5.0,-7.0,-1.0,1.0,0.0
1705327303.3965926,-1.0,-2.0,0.0,0.0,-1.0,1.0,-1.0,2.0
1705327303.3965926,-2.0,-1.0,1.0,-1.0,5.0,0.0,1.0,-1.0
1705327303.3965926,0.0,0.0,-1.0,0.0,-5.0,-2.0,-1.0,0.0
1705327303.4265532,-3.0,0.0,-1.0,0.0,-3.0,-1.0,0.0,-3.0
1705327303.4265532,0.0,0.0,-3.0,-2.0,1.0,1.0,-4.0,-2.0
1705327303.4265532,-2.0,1.0,-2.0,0.0,0.0,2.0,0.0,0.0
1705327303.4265532,-3.0,-3.0,-1.0,-3.0,-4.0,-3.0,-2.0,-2.0
1705327303.436551,-2.0,0.0,0.0,-4.0,-7.0,-8.0,-4.0,-3.0
1705327303.436551,-2.0,-3.0,0.0,4.0,5.0,2.0,1.0,0.0
1705327303.436551,-2.0,-2.0,0.0,3.0,7.0,7.0,2.0,-1.0
1705327303.436551,0.0,-1.0,-3.0,1.0,1.0,0.0,0.0,-1.0
1705327303.4665544,-1.0,-1.0,-2.0,-3.0,-1.0,-3.0,-3.0,-1.0
1705327303.4665544,0.0,-2.0,-1.0,-5.0,-8.0,-5.0,-3.0,-3.0
1705327303.4665544,0.0,0.0,-1.0,-3.0,-6.0,-4.0,-6.0,-1.0
1705327303.4665544,-1.0,0.0,1.0,-1.0,1.0,4.0,2.0,1.0
1705327303.4765935,-2.0,-3.0,0.0,0.0,3.0,-1.0,4.0,1.0
1705327303.4765935,-1.0,-2.0,-1.0,0.0,-2.0,-2.0,-1.0,0.0
1705327303.4765935,-3.0,0.0,0.0,-5.0,1.0,0.0,-1.0,0.0
1705327303.4765935,0.0,-1.0,0.0,-1.0,1.0,1.0,-1.0,-2.0
1705327303.4965894,1.0,0.0,-2.0,2.0,8.0,-1.0,-2.0,-1.0
1705327303.4965894,0.0,-1.0,-1.0,-2.0,-7.0,-3.0,0.0,0.0
1705327303.4965894,-1.0,-1.0,1.0,0.0,6.0,4.0,3.0,-1.0
1705327303.4965894,-3.0,-1.0,-2.0,-4.0,-5.0,-4.0,-3.0,-2.0
1705327303.5265775,-1.0,0.0,-2.0,-3.0,-6.0,-1.0,-2.0,0.0
1705327303.5265775,-2.0,-3.0,-3.0,-3.0,-2.0,-5.0,-4.0,-2.0
1705327303.5265775,-1.0,-1.0,-2.0,-2.0,-11.0,-7.0,-4.0,-2.0
1705327303.5265775,0.0,-2.0,-1.0,4.0,3.0,3.0,2.0,-1.0
1705327303.5365567,-1.0,0.0,3.0,6.0,14.0,11.0,3.0,0.0
1705327303.5365567,-1.0,-1.0,-3.0,-4.0,0.0,-2.0,-2.0,-1.0
1705327303.5365567,-3.0,-2.0,-2.0,-5.0,-9.0,-7.0,-2.0,0.0
1705327303.5365567,-2.0,-1.0,-2.0,-5.0,-6.0,2.0,0.0,-2.0
1705327303.55655,-1.0,-2.0,0.0,-2.0,-5.0,-9.0,-1.0,-2.0
1705327303.55655,-2.0,-1.0,-1.0,3.0,13.0,2.0,-2.0,-1.0
1705327303.5765517,-1.0,0.0,1.0,6.0,3.0,5.0,4.0,0.0
1705327303.5765517,-1.0,0.0,0.0,1.0,3.0,-6.0,-3.0,-1.0
1705327303.5765517,-1.0,-4.0,-4.0,-4.0,-6.0,0.0,-2.0,-2.0
1705327303.5765517,1.0,-1.0,0.0,-3.0,-3.0,-2.0,-2.0,-1.0
1705327303.5765517,0.0,-3.0,-2.0,-6.0,-9.0,-7.0,-6.0,-4.0
1705327303.5765517,-2.0,-1.0,0.0,-1.0,1.0,1.0,0.0,0.0
1705327303.5965962,-2.0,-2.0,0.0,4.0,6.0,2.0,4.0,0.0
1705327303.5965962,0.0,0.0,-1.0,2.0,5.0,2.0,-1.0,-2.0
1705327303.5965962,-1.0,0.0,-1.0,3.0,-2.0,-1.0,0.0,1.0
1705327303.5965962,0.0,-1.0,-2.0,-4.0,-11.0,-5.0,-4.0,-2.0
1705327303.6165931,-1.0,0.0,-2.0,-1.0,3.0,5.0,1.0,-1.0
1705327303.6165931,-1.0,-1.0,-1.0,0.0,-2.0,4.0,-2.0,-3.0
1705327303.6165931,0.0,-2.0,0.0,1.0,3.0,-7.0,-1.0,1.0
1705327303.6165931,1.0,0.0,-1.0,4.0,1.0,-2.0,-2.0,-2.0
1705327303.6465793,-1.0,0.0,-2.0,-4.0,-6.0,-5.0,-2.0,-2.0
1705327303.6465793,-1.0,0.0,0.0,-6.0,-4.0,3.0,1.0,0.0
1705327303.6465793,-1.0,-3.0,-4.0,-2.0,5.0,0.0,1.0,0.0
1705327303.6465793,-2.0,-1.0,-2.0,-5.0,-14.0,-7.0,-3.0,-2.0
1705327303.6567686,-1.0,-3.0,-2.0,-3.0,4.0,-2.0,-5.0,-2.0
1705327303.6567686,-1.0,-1.0,0.0,7.0,6.0,7.0,2.0,0.0
1705327303.6567686,-1.0,0.0,1.0,-1.0,-1.0,1.0,3.0,1.0
1705327303.6567686,-1.0,-2.0,-2.0,-3.0,-6.0,-10.0,-1.0,-1.0
1705327303.6765893,-1.0,-1.0,-5.0,-5.0,-6.0,-3.0,-7.0,-3.0
1705327303.6765893,-2.0,-1.0,-1.0,-4.0,4.0,0.0,-8.0,-1.0
1705327303.6865532,-2.0,-1.0,0.0,4.0,1.0,7.0,5.0,-1.0
1705327303.6865532,0.0,1.0,0.0,2.0,11.0,4.0,0.0,1.0
1705327303.6965504,2.0,-1.0,-1.0,-4.0,-13.0,-7.0,0.0,0.0
1705327303.6965504,-2.0,0.0,1.0,9.0,5.0,-4.0,2.0,0.0
1705327303.6965504,-3.0,-3.0,-2.0,-2.0,1.0,6.0,-2.0,-2.0
1705327303.6965504,-1.0,1.0,0.0,-2.0,3.0,-1.0,0.0,1.0
1705327303.716552,-1.0,-2.0,-3.0,-8.0,-9.0,-7.0,-8.0,-2.0
1705327303.716552,-1.0,-1.0,-3.0,-11.0,-19.0,-8.0,-6.0,-4.0
1705327303.716552,-2.0,-4.0,-3.0,-9.0,-6.0,0.0,-1.0,-1.0
1705327303.716552,0.0,0.0,3.0,10.0,19.0,12.0,4.0,0.0
1705327303.7365868,-2.0,1.0,2.0,14.0,16.0,3.0,2.0,2.0
1705327303.7365868,1.0,1.0,-1.0,-4.0,-8.0,-4.0,2.0,-1.0
1705327303.7465553,2.0,-1.0,-6.0,-5.0,-8.0,-8.0,-4.0,-2.0
1705327303.7465553,-2.0,-2.0,-1.0,-16.0,-36.0,-12.0,-9.0,-3.0
1705327303.7665887,-1.0,0.0,0.0,0.0,-4.0,0.0,2.0,0.0
1705327303.7665887,0.0,-4.0,-13.0,2.0,10.0,1.0,1.0,-1.0
1705327303.7665887,-2.0,1.0,2.0,1.0,3.0,3.0,0.0,0.0
1705327303.7665887,-2.0,-2.0,6.0,-1.0,10.0,1.0,-1.0,-2.0
1705327303.77655,0.0,0.0,3.0,3.0,3.0,0.0,2.0,-1.0
1705327303.77655,-1.0,-1.0,-1.0,0.0,-5.0,1.0,1.0,0.0
1705327303.77655,0.0,0.0,2.0,-8.0,-8.0,-9.0,-3.0,-1.0
1705327303.77655,-2.0,-3.0,-6.0,-2.0,-8.0,-5.0,-4.0,-3.0
1705327303.796551,0.0,-1.0,-5.0,-3.0,1.0,4.0,0.0,0.0
1705327303.796551,-1.0,-2.0,1.0,5.0,10.0,4.0,1.0,-1.0
1705327303.806551,0.0,-1.0,0.0,-8.0,-5.0,-5.0,-3.0,-2.0
1705327303.806551,-2.0,-2.0,3.0,10.0,5.0,-1.0,1.0,-2.0
1705327303.8165507,-3.0,-2.0,-8.0,1.0,-12.0,-3.0,-2.0,-2.0
1705327303.8165507,-1.0,1.0,2.0,-3.0,-6.0,-5.0,1.0,-2.0
1705327303.8165507,-3.0,-2.0,-3.0,-2.0,13.0,1.0,-1.0,-1.0
1705327303.8165507,1.0,-2.0,-2.0,-5.0,-21.0,-4.0,-2.0,-1.0
1705327303.8366046,1.0,0.0,0.0,5.0,11.0,7.0,5.0,1.0
1705327303.8366046,-1.0,1.0,4.0,7.0,8.0,4.0,-1.0,0.0
1705327303.8366046,-1.0,0.0,7.0,2.0,3.0,1.0,0.0,0.0
1705327303.8366046,-1.0,-2.0,-13.0,-5.0,5.0,0.0,1.0,0.0
1705327303.8565886,-2.0,-5.0,-15.0,1.0,-8.0,-6.0,-1.0,-3.0
1705327303.8565886,-2.0,0.0,1.0,-11.0,-16.0,-4.0,-4.0,-1.0
1705327303.8565886,-1.0,-3.0,-2.0,1.0,-3.0,-3.0,-2.0,-2.0
1705327303.8565886,-3.0,-1.0,1.0,-1.0,9.0,3.0,-2.0,0.0
1705327303.8791237,0.0,0.0,4.0,0.0,-5.0,-2.0,0.0,1.0
1705327303.8791237,-1.0,-1.0,2.0,-5.0,-8.0,-6.0,-4.0,-1.0
1705327303.8881254,-1.0,-2.0,-10.0,-6.0,0.0,3.0,2.0,-2.0
1705327303.8881254,0.0,1.0,4.0,10.0,9.0,6.0,4.0,1.0
1705327303.9033833,0.0,-3.0,3.0,6.0,14.0,0.0,-2.0,-1.0
1705327303.9033833,-1.0,-1.0,-6.0,-10.0,-14.0,-12.0,-3.0,-2.0
1705327303.9053838,-2.0,-2.0,-2.0,-8.0,-15.0,-6.0,-5.0,-5.0
1705327303.9053838,-1.0,1.0,10.0,9.0,13.0,9.0,5.0,0.0
1705327303.9193466,-1.0,-1.0,3.0,-3.0,3.0,0.0,0.0,-3.0
1705327303.9193466,-2.0,-3.0,-30.0,1.0,7.0,1.0,0.0,2.0
1705327303.9193466,-2.0,-1.0,-3.0,-9.0,-12.0,-5.0,-2.0,-1.0
1705327303.9193466,-1.0,-2.0,0.0,-9.0,-3.0,2.0,-4.0,-2.0
1705327303.9394011,-3.0,-1.0,-21.0,0.0,4.0,-2.0,-4.0,1.0
1705327303.9394011,-1.0,-7.0,7.0,-5.0,-6.0,-1.0,-1.0,-4.0
1705327303.9394011,0.0,2.0,4.0,9.0,8.0,1.0,1.0,2.0
1705327303.9394011,0.0,0.0,-2.0,-4.0,-2.0,-3.0,-1.0,0.0
1705327303.9594002,-2.0,-1.0,8.0,-10.0,-11.0,-7.0,-4.0,-2.0
1705327303.9594002,-2.0,0.0,6.0,6.0,5.0,2.0,1.0,0.0
1705327303.9594002,1.0,1.0,-1.0,10.0,12.0,8.0,1.0,0.0
1705327303.9594002,0.0,-1.0,8.0,-2.0,-1.0,-6.0,-2.0,-1.0
1705327303.969399,-2.0,-2.0,-12.0,-9.0,-10.0,3.0,2.0,-2.0
1705327303.969399,-1.0,-2.0,5.0,-1.0,-4.0,-3.0,-3.0,-4.0
1705327303.9894009,-2.0,-2.0,-24.0,5.0,3.0,1.0,1.0,0.0
1705327303.9894009,0.0,0.0,-5.0,-7.0,-6.0,-8.0,-4.0,-1.0
1705327303.9994,-1.0,0.0,9.0,-7.0,-17.0,-2.0,-1.0,-1.0
1705327303.9994,1.0,1.0,7.0,7.0,5.0,-3.0,2.0,1.0
1705327303.9994,-1.0,0.0,9.0,6.0,9.0,3.0,-2.0,1.0
1705327303.9994,0.0,-2.0,-6.0,-4.0,-10.0,-3.0,0.0,-1.0
1705327304.0294003,-2.0,-8.0,-16.0,-2.0,10.0,1.0,0.0,0.0
1705327304.0294003,-1.0,-1.0,8.0,9.0,2.0,2.0,-1.0,-2.0
1705327304.0294003,-1.0,0.0,-2.0,-11.0,-13.0,-8.0,-3.0,-2.0
1705327304.0294003,-1.0,-1.0,-8.0,-6.0,-6.0,-4.0,-3.0,-2.0
1705327304.0494013,1.0,1.0,18.0,2.0,3.0,0.0,0.0,0.0
1705327304.0494013,-1.0,-1.0,-9.0,-2.0,1.0,2.0,-3.0,0.0
1705327304.0494013,0.0,-4.0,1.0,5.0,5.0,0.0,4.0,1.0
1705327304.0494013,-2.0,0.0,-7.0,1.0,-2.0,1.0,-1.0,-2.0
1705327304.0594192,-2.0,3.0,7.0,-4.0,-6.0,-3.0,0.0,-1.0
1705327304.0594192,-3.0,-2.0,-4.0,-9.0,-8.0,-3.0,-2.0,-2.0
1705327304.0594192,0.0,0.0,-6.0,-4.0,-12.0,-5.0,-4.0,-1.0
1705327304.0594192,-2.0,-1.0,23.0,-1.0,8.0,3.0,2.0,-1.0
1705327304.0793989,-1.0,-3.0,-18.0,5.0,8.0,1.0,1.0,-1.0
1705327304.0793989,-1.0,-2.0,-10.0,-3.0,-5.0,-4.0,-2.0,2.0
1705327304.0793989,-1.0,-1.0,14.0,-2.0,-6.0,-2.0,-3.0,-3.0
1705327304.0793989,-2.0,-1.0,-22.0,0.0,-3.0,-4.0,-4.0,0.0
1705327304.0894341,-1.0,1.0,10.0,2.0,4.0,2.0,-1.0,1.0
1705327304.0894341,0.0,1.0,3.0,-2.0,2.0,1.0,0.0,-1.0
1705327304.099441,-3.0,-2.0,-8.0,1.0,-4.0,-4.0,1.0,-1.0
1705327304.099441,-3.0,-2.0,-1.0,1.0,1.0,1.0,1.0,-4.0
1705327304.1194372,-2.0,-2.0,-5.0,-6.0,-4.0,-1.0,-1.0,-1.0
1705327304.1194372,1.0,0.0,-4.0,6.0,8.0,5.0,2.0,-1.0
1705327304.1194372,0.0,-2.0,3.0,0.0,3.0,-2.0,-2.0,-1.0
1705327304.1194372,-1.0,0.0,-4.0,-6.0,-11.0,-3.0,-3.0,-2.0
1705327304.1393995,0.0,1.0,2.0,-7.0,-3.0,-4.0,-4.0,-1.0
1705327304.1393995,1.0,-2.0,7.0,0.0,1.0,-1.0,1.0,-1.0
1705327304.1393995,-2.0,-1.0,-1.0,9.0,8.0,6.0,4.0,0.0
1705327304.1393995,0.0,-2.0,0.0,-2.0,-2.0,-5.0,-2.0,0.0
1705327304.1593974,-1.0,-3.0,-8.0,-2.0,-3.0,-4.0,-1.0,-1.0
1705327304.1593974,-1.0,0.0,2.0,-2.0,0.0,-2.0,-2.0,-1.0
1705327304.1593974,0.0,-2.0,-8.0,-5.0,0.0,-5.0,-4.0,-2.0
1705327304.1593974,1.0,1.0,7.0,1.0,-3.0,-3.0,-2.0,-1.0
1705327304.1794002,-4.0,-5.0,-26.0,-4.0,-6.0,-4.0,-2.0,-1.0
1705327304.1794002,0.0,-1.0,-3.0,-5.0,-2.0,1.0,-1.0,-1.0
1705327304.1794002,0.0,-3.0,6.0,1.0,0.0,-2.0,-1.0,0.0
1705327304.1794002,-3.0,0.0,5.0,6.0,16.0,11.0,4.0,0.0
1705327304.199401,0.0,3.0,13.0,1.0,-1.0,-2.0,-2.0,-1.0
1705327304.199401,-3.0,1.0,1.0,-7.0,-5.0,-5.0,-2.0,0.0
1705327304.199401,-2.0,-1.0,-13.0,-1.0,3.0,4.0,1.0,0.0
1705327304.199401,1.0,-2.0,-15.0,-7.0,-2.0,-4.0,-1.0,-2.0
1705327304.2193997,-1.0,-4.0,11.0,6.0,1.0,-1.0,2.0,-1.0
1705327304.2193997,0.0,0.0,6.0,0.0,-7.0,-2.0,0.0,-1.0
1705327304.2193997,-1.0,-4.0,-7.0,-10.0,-6.0,0.0,-3.0,-1.0
1705327304.2193997,0.0,0.0,-8.0,1.0,3.0,0.0,0.0,0.0
1705327304.2393987,1.0,1.0,4.0,0.0,-3.0,-2.0,-3.0,-2.0
1705327304.2393987,-3.0,-4.0,1.0,0.0,-3.0,0.0,-1.0,-1.0
1705327304.2493987,-1.0,1.0,4.0,-1.0,-4.0,-1.0,-3.0,-2.0
1705327304.2493987,-3.0,-2.0,-5.0,0.0,0.0,4.0,3.0,-2.0
1705327304.2594032,1.0,1.0,4.0,-5.0,-6.0,-4.0,-1.0,0.0
1705327304.2594032,-2.0,-1.0,11.0,17.0,11.0,6.0,-1.0,-2.0
1705327304.2594032,0.0,-2.0,-20.0,-5.0,-5.0,-2.0,0.0,0.0
1705327304.2594032,-2.0,-4.0,-4.0,-5.0,-10.0,-7.0,-6.0,-1.0
1705327304.2793994,-2.0,1.0,12.0,2.0,12.0,7.0,1.0,-1.0
1705327304.2793994,1.0,0.0,2.0,-4.0,10.0,4.0,-2.0,-1.0
1705327304.2793994,-1.0,1.0,8.0,6.0,-12.0,-4.0,-1.0,-1.0
1705327304.2793994,0.0,-2.0,-6.0,-2.0,4.0,3.0,3.0,0.0
1705327304.3093984,0.0,-3.0,-14.0,-4.0,-6.0,-7.0,-4.0,-2.0
1705327304.3093984,0.0,0.0,3.0,-7.0,-11.0,-8.0,-3.0,-2.0
1705327304.3093984,-2.0,-2.0,-7.0,5.0,4.0,4.0,1.0,-1.0
1705327304.3093984,1.0,1.0,2.0,-2.0,1.0,1.0,1.0,1.0
1705327304.3194427,0.0,-2.0,0.0,-1.0,-6.0,-2.0,-4.0,-2.0
1705327304.3194427,-2.0,-2.0,-8.0,10.0,11.0,9.0,6.0,0.0
1705327304.3194427,-1.0,3.0,18.0,-4.0,-4.0,-7.0,-3.0,-1.0
1705327304.3194427,0.0,-3.0,3.0,0.0,-6.0,-6.0,-2.0,-1.0
1705327304.339405,1.0,1.0,-2.0,3.0,9.0,5.0,0.0,1.0
1705327304.339405,0.0,-1.0,-16.0,-8.0,-12.0,-8.0,-5.0,-1.0
1705327304.339405,0.0,0.0,2.0,4.0,8.0,4.0,2.0,-1.0
1705327304.339405,-1.0,-2.0,-1.0,-6.0,-2.0,-1.0,-3.0,-1.0
1705327304.3693988,-2.0,2.0,15.0,2.0,-6.0,-3.0,-1.0,-1.0
1705327304.3693988,-1.0,-3.0,-15.0,-3.0,3.0,-3.0,-2.0,-1.0
1705327304.3693988,-1.0,-1.0,15.0,1.0,2.0,4.0,1.0,2.0
1705327304.3693988,-2.0,-4.0,-19.0,-2.0,-1.0,1.0,-2.0,0.0
1705327304.379402,0.0,-1.0,-20.0,-4.0,-7.0,-3.0,-1.0,-2.0
1705327304.379402,-4.0,-4.0,-4.0,-15.0,-17.0,-8.0,-3.0,-1.0
1705327304.379402,0.0,0.0,3.0,-3.0,-1.0,1.0,0.0,-3.0
1705327304.379402,0.0,1.0,16.0,11.0,11.0,4.0,3.0,1.0
1705327304.4059339,-1.0,1.0,-2.0,-5.0,-2.0,-1.0,2.0,-1.0
1705327304.4059339,-1.0,-3.0,10.0,1.0,0.0,0.0,-1.0,-1.0
1705327304.407895,1.0,-1.0,-22.0,-7.0,-4.0,-9.0,-3.0,-1.0
1705327304.407895,-1.0,0.0,7.0,-4.0,-12.0,-5.0,-3.0,-3.0
1705327304.4253652,-3.0,-1.0,11.0,8.0,13.0,6.0,3.0,-1.0
1705327304.4253652,1.0,-1.0,-1.0,0.0,2.0,-3.0,-4.0,1.0
1705327304.4253652,-3.0,1.0,7.0,6.0,1.0,0.0,1.0,-3.0
1705327304.4253652,-2.0,-6.0,-22.0,-3.0,5.0,5.0,1.0,-1.0
1705327304.4453669,-1.0,-3.0,0.0,-9.0,-9.0,-7.0,-5.0,-1.0
1705327304.4453669,-2.0,0.0,7.0,-2.0,-9.0,-4.0,-3.0,-3.0
1705327304.4453669,-2.0,-2.0,-2.0,-10.0,-12.0,-11.0,-4.0,-2.0
1705327304.4453669,-2.0,0.0,11.0,5.0,9.0,2.0,0.0,-2.0
1705327304.465394,-2.0,-1.0,5.0,4.0,7.0,7.0,3.0,0.0
1705327304.465394,-1.0,-3.0,-7.0,-4.0,1.0,-2.0,-1.0,0.0
1705327304.465394,-1.0,0.0,6.0,14.0,12.0,4.0,2.0,0.0
1705327304.465394,0.0,0.0,-3.0,-3.0,-15.0,-12.0,-8.0,-1.0
1705327304.4853668,-1.0,-6.0,-1.0,-17.0,-8.0,-5.0,-3.0,-4.0
1705327304.4853668,-1.0,-2.0,-13.0,0.0,2.0,2.0,1.0,-1.0
1705327304.4853668,-2.0,-2.0,1.0,0.0,0.0,6.0,0.0,0.0
1705327304.4853668,0.0,-1.0,-22.0,2.0,6.0,1.0,1.0,0.0
1705327304.4953697,0.0,0.0,10.0,-1.0,-9.0,-8.0,-5.0,0.0
1705327304.4953697,-2.0,0.0,2.0,4.0,2.0,2.0,-1.0,-2.0
1705327304.5053678,1.0,-1.0,9.0,-4.0,5.0,0.0,-2.0,0.0
1705327304.5053678,0.0,1.0,10.0,-5.0,-7.0,-2.0,-2.0,-1.0
1705327304.5253682,-1.0,-3.0,11.0,-3.0,-10.0,-2.0,-3.0,-2.0
1705327304.5253682,0.0,3.0,9.0,9.0,15.0,10.0,7.0,1.0
1705327304.5253682,1.0,-1.0,-6.0,1.0,0.0,0.0,-1.0,0.0
1705327304.5253682,0.0,-1.0,14.0,-1.0,-2.0,-2.0,-2.0,0.0
1705327304.5353692,2.0,-3.0,-31.0,-7.0,-6.0,-2.0,-3.0,0.0
1705327304.5353692,-1.0,-2.0,9.0,-7.0,-11.0,-3.0,-3.0,-3.0
1705327304.545369,0.0,-2.0,-3.0,-1.0,0.0,2.0,-1.0,-1.0
1705327304.545369,-2.0,2.0,-7.0,-4.0,-4.0,-5.0,-3.0,-2.0
1705327304.555367,-3.0,-5.0,-19.0,7.0,6.0,0.0,2.0,0.0
1705327304.555367,-2.0,1.0,-4.0,3.0,0.0,-1.0,0.0,2.0
1705327304.555367,-2.0,-2.0,10.0,-5.0,-5.0,-4.0,0.0,-3.0
1705327304.5653677,-2.0,-1.0,23.0,-3.0,-3.0,-1.0,-3.0,-2.0
1705327304.5853684,0.0,1.0,13.0,3.0,3.0,1.0,-2.0,-1.0
1705327304.5853684,0.0,-1.0,-16.0,-1.0,-3.0,-1.0,-1.0,-3.0
1705327304.5853684,-3.0,-1.0,-10.0,-4.0,-5.0,-3.0,-3.0,-1.0
1705327304.5853684,-2.0,-3.0,-4.0,-1.0,0.0,0.0,1.0,-3.0
1705327304.5953677,-2.0,-1.0,10.0,3.0,3.0,0.0,-2.0,-2.0
1705327304.5953677,0.0,-1.0,-7.0,-4.0,-5.0,-5.0,-2.0,0.0
1705327304.615367,0.0,0.0,7.0,1.0,4.0,2.0,2.0,0.0
1705327304.615367,-1.0,-3.0,-17.0,1.0,-1.0,-1.0,-1.0,-1.0
1705327304.615367,-2.0,-1.0,-5.0,6.0,7.0,3.0,2.0,-1.0
1705327304.615367,0.0,1.0,13.0,-1.0,-2.0,-1.0,-3.0,-1.0
1705327304.625368,-2.0,-6.0,-38.0,-16.0,-13.0,-7.0,-6.0,-5.0
1705327304.625368,0.0,-2.0,7.0,5.0,7.0,3.0,2.0,0.0
1705327304.6453688,0.0,0.0,-6.0,-7.0,-7.0,-4.0,-5.0,1.0
1705327304.6453688,0.0,1.0,4.0,1.0,-5.0,0.0,-1.0,-5.0
1705327304.6453688,-1.0,0.0,11.0,5.0,3.0,1.0,-1.0,0.0
1705327304.6453688,-3.0,-7.0,-24.0,-10.0,-6.0,-1.0,-1.0,-2.0
1705327304.655373,-4.0,-2.0,4.0,-3.0,-2.0,-3.0,1.0,-3.0
1705327304.655373,0.0,0.0,9.0,-1.0,1.0,1.0,-1.0,0.0
1705327304.6657124,-3.0,-6.0,-44.0,-5.0,-7.0,-3.0,-4.0,-1.0
1705327304.6657124,0.0,4.0,15.0,0.0,-7.0,-5.0,-2.0,-3.0
1705327304.675371,0.0,1.0,3.0,-1.0,10.0,8.0,3.0,1.0
1705327304.675371,-1.0,-1.0,6.0,1.0,10.0,5.0,3.0,3.0
1705327304.6853669,1.0,0.0,5.0,-2.0,-2.0,-7.0,-4.0,-2.0
1705327304.6853669,0.0,-3.0,6.0,3.0,-7.0,1.0,-1.0,1.0
1705327304.7053678,-1.0,-2.0,-35.0,-5.0,-5.0,-6.0,-3.0,-3.0
1705327304.7053678,-3.0,-3.0,6.0,-1.0,0.0,1.0,1.0,1.0
1705327304.7053678,-1.0,1.0,10.0,-8.0,-4.0,-2.0,0.0,-1.0
1705327304.7053678,-3.0,-4.0,-15.0,0.0,-6.0,-3.0,-2.0,-1.0
1705327304.7153666,-1.0,2.0,28.0,3.0,0.0,-4.0,-1.0,-1.0
1705327304.7153666,-2.0,-1.0,11.0,11.0,8.0,4.0,2.0,0.0
1705327304.7253964,-3.0,-6.0,-40.0,-3.0,4.0,1.0,1.0,-2.0
1705327304.7253964,2.0,4.0,2.0,-3.0,1.0,-4.0,-1.0,-1.0
1705327304.7353668,0.0,0.0,-1.0,-5.0,-11.0,-3.0,-3.0,-1.0
1705327304.7353668,-3.0,-1.0,-12.0,-5.0,-4.0,-7.0,-4.0,-3.0
1705327304.7453673,-2.0,-1.0,27.0,7.0,2.0,0.0,-2.0,0.0
1705327304.7453673,-2.0,-3.0,-18.0,-2.0,-3.0,-5.0,-4.0,-2.0
1705327304.7653675,-1.0,1.0,0.0,-3.0,5.0,7.0,4.0,0.0
1705327304.7653675,-1.0,-2.0,-1.0,13.0,4.0,2.0,0.0,0.0
1705327304.7653675,0.0,2.0,14.0,-1.0,-3.0,1.0,-3.0,-3.0
1705327304.7653675,-2.0,3.0,1.0,-3.0,-1.0,-2.0,0.0,1.0
1705327304.7753706,0.0,-5.0,0.0,2.0,-1.0,-1.0,-1.0,-2.0
1705327304.7753706,-3.0,-5.0,-28.0,-17.0,-12.0,-8.0,-5.0,-4.0
1705327304.7853675,0.0,-1.0,11.0,0.0,3.0,-4.0,4.0,0.0
1705327304.7853675,1.0,0.0,16.0,-2.0,-1.0,3.0,1.0,1.0
1705327304.7954044,-2.0,-1.0,16.0,5.0,4.0,0.0,0.0,-2.0
1705327304.7954044,0.0,0.0,-8.0,-5.0,-4.0,0.0,-2.0,-1.0
1705327304.8053677,-1.0,-4.0,-1.0,-8.0,-9.0,-9.0,-5.0,-2.0
1705327304.8053677,-2.0,-1.0,4.0,2.0,-2.0,-3.0,-3.0,-3.0
1705327304.825404,-2.0,-1.0,0.0,0.0,6.0,8.0,5.0,-1.0
1705327304.825404,0.0,3.0,7.0,10.0,4.0,-3.0,0.0,-1.0
1705327304.825404,-1.0,0.0,-16.0,6.0,8.0,5.0,0.0,0.0
1705327304.825404,-2.0,-3.0,-13.0,-4.0,0.0,1.0,1.0,-2.0
1705327304.8354068,-1.0,0.0,2.0,-6.0,-5.0,-4.0,-3.0,-1.0
1705327304.8354068,0.0,-1.0,-10.0,-11.0,-8.0,-5.0,-4.0,0.0
1705327304.8453681,1.0,0.0,12.0,6.0,-5.0,-3.0,-1.0,1.0
1705327304.8453681,-2.0,-2.0,0.0,4.0,11.0,7.0,2.0,-1.0
1705327304.8554082,0.0,3.0,3.0,3.0,-3.0,-4.0,-1.0,0.0
1705327304.8554082,-4.0,0.0,2.0,-3.0,2.0,4.0,1.0,-2.0
1705327304.8753715,-2.0,-2.0,-2.0,-7.0,-7.0,-4.0,-5.0,-3.0
1705327304.8753715,-1.0,-2.0,28.0,-3.0,-5.0,-5.0,-3.0,0.0
1705327304.885412,-1.0,-4.0,-17.0,-2.0,1.0,-1.0,-1.0,0.0
1705327304.885412,0.0,0.0,16.0,1.0,-6.0,-2.0,-2.0,1.0
1705327304.885412,-1.0,-1.0,-14.0,-4.0,0.0,2.0,2.0,-1.0
1705327304.885412,-1.0,-1.0,-5.0,-1.0,-2.0,-3.0,-2.0,-2.0
1705327304.8954,2.0,0.0,12.0,1.0,-5.0,-6.0,-3.0,-2.0
1705327304.8954,-3.0,-1.0,-8.0,3.0,8.0,4.0,5.0,0.0
1705327304.905405,-2.0,-1.0,-1.0,-1.0,3.0,1.0,0.0,0.0
1705327304.905405,0.0,1.0,5.0,3.0,0.0,2.0,1.0,0.0
1705327304.915366,-1.0,-1.0,-12.0,-2.0,-6.0,-8.0,-4.0,-1.0
1705327304.915366,-2.0,-5.0,-40.0,-14.0,-3.0,-1.0,-3.0,-1.0
1705327304.925391,-2.0,1.0,3.0,-4.0,-2.0,0.0,-1.0,0.0
1705327304.925391,-1.0,5.0,14.0,12.0,9.0,2.0,1.0,-1.0
1705327304.9456823,-2.0,-3.0,-8.0,-7.0,-2.0,1.0,-1.0,-1.0
1705327304.9456823,0.0,-3.0,-37.0,0.0,-2.0,-5.0,1.0,-2.0
1705327304.9476836,2.0,4.0,10.0,-3.0,-7.0,-4.0,-3.0,-2.0
1705327304.9476836,1.0,0.0,-23.0,-7.0,2.0,7.0,4.0,0.0
1705327304.9581563,-3.0,-8.0,-6.0,-11.0,0.0,-2.0,-1.0,-1.0
1705327304.9581563,2.0,1.0,47.0,-1.0,-6.0,-5.0,-3.0,0.0
1705327304.9681625,-3.0,2.0,-10.0,0.0,-1.0,3.0,4.0,0.0
1705327304.9681625,2.0,-3.0,-9.0,11.0,0.0,-2.0,-2.0,0.0
1705327304.9781623,-2.0,-4.0,1.0,-6.0,0.0,-1.0,-1.0,-2.0
1705327304.9781623,0.0,-2.0,7.0,-4.0,0.0,3.0,1.0,-1.0
1705327304.9881608,0.0,1.0,5.0,-4.0,-7.0,-4.0,-5.0,-3.0
1705327304.9881608,-1.0,1.0,18.0,2.0,-5.0,-9.0,-1.0,2.0
1705327304.998162,0.0,0.0,-25.0,12.0,18.0,14.0,4.0,1.0
1705327304.998162,-3.0,-1.0,24.0,-7.0,-9.0,-4.0,-5.0,-3.0
1705327304.998162,1.0,0.0,10.0,3.0,-1.0,3.0,1.0,2.0
1705327304.998162,-2.0,-1.0,2.0,5.0,-1.0,-5.0,-2.0,-3.0
1705327305.018162,-1.0,-1.0,-17.0,-1.0,-5.0,-2.0,-3.0,-3.0
1705327305.018162,-3.0,-1.0,-4.0,-6.0,-2.0,-4.0,-2.0,-2.0
1705327305.028163,0.0,1.0,-7.0,-2.0,0.0,0.0,-1.0,0.0
1705327305.028163,-7.0,-9.0,-32.0,-8.0,1.0,5.0,2.0,-4.0
1705327305.0381587,0.0,0.0,27.0,10.0,6.0,-2.0,1.0,1.0
1705327305.0381587,0.0,1.0,6.0,7.0,0.0,-1.0,-2.0,0.0
1705327305.0481606,1.0,-1.0,1.0,-12.0,-8.0,-5.0,-5.0,1.0
1705327305.0481606,-3.0,2.0,20.0,14.0,-1.0,-3.0,-2.0,-3.0
1705327305.0581925,0.0,-1.0,2.0,1.0,0.0,1.0,0.0,-2.0
1705327305.0581925,0.0,1.0,6.0,5.0,12.0,7.0,2.0,-2.0
1705327305.0581925,-1.0,-6.0,-36.0,-5.0,-3.0,-6.0,-2.0,0.0
1705327305.0581925,0.0,0.0,-9.0,-10.0,-5.0,0.0,-2.0,-1.0
1705327305.0881956,0.0,3.0,36.0,-8.0,-13.0,-9.0,-4.0,0.0
1705327305.0881956,-3.0,-4.0,-17.0,5.0,-5.0,-2.0,2.0,-4.0
1705327305.0881956,-2.0,-1.0,8.0,-9.0,4.0,3.0,0.0,-2.0
1705327305.0881956,-3.0,-2.0,-9.0,4.0,5.0,4.0,1.0,-1.0
1705327305.0981617,-1.0,2.0,-3.0,7.0,5.0,5.0,3.0,0.0
1705327305.0981617,1.0,0.0,3.0,-6.0,-12.0,-6.0,-4.0,-1.0
1705327305.1081634,0.0,0.0,28.0,4.0,2.0,-1.0,0.0,-1.0
1705327305.1081634,1.0,-2.0,-12.0,-17.0,-9.0,-2.0,0.0,0.0
1705327305.118217,0.0,1.0,2.0,-3.0,-1.0,-2.0,-2.0,-1.0
1705327305.118217,-1.0,-2.0,-17.0,5.0,8.0,3.0,1.0,-1.0
1705327305.118217,-2.0,-3.0,-2.0,12.0,10.0,7.0,6.0,2.0
1705327305.118217,1.0,2.0,-14.0,-8.0,-8.0,-7.0,-5.0,0.0
1705327305.1481931,-4.0,-7.0,-10.0,-6.0,-8.0,-7.0,-3.0,-4.0
1705327305.1481931,0.0,2.0,25.0,-5.0,-8.0,-7.0,-3.0,1.0
1705327305.1481931,-3.0,-5.0,-17.0,-3.0,-4.0,-3.0,-1.0,-2.0
1705327305.1481931,-2.0,1.0,20.0,0.0,4.0,5.0,1.0,0.0
1705327305.1581626,3.0,13.0,-20.0,-1.0,-10.0,-5.0,-2.0,2.0
1705327305.1581626,-4.0,-8.0,-20.0,7.0,5.0,6.0,-1.0,0.0
1705327305.1681592,-3.0,-7.0,29.0,-13.0,-1.0,-2.0,-2.0,-3.0
1705327305.1681592,-2.0,-8.0,-29.0,-1.0,-4.0,-8.0,-7.0,-3.0
1705327305.1781583,-1.0,-6.0,-29.0,-10.0,0.0,-3.0,-2.0,-2.0
1705327305.1781583,-3.0,2.0,13.0,5.0,-1.0,-2.0,3.0,1.0
1705327305.1781583,0.0,1.0,-20.0,8.0,7.0,6.0,1.0,-1.0
1705327305.1781583,1.0,0.0,-1.0,-2.0,2.0,4.0,3.0,1.0
1705327305.2081625,0.0,5.0,35.0,-7.0,-9.0,2.0,5.0,3.0
1705327305.2081625,1.0,2.0,-7.0,5.0,4.0,1.0,-1.0,-1.0
1705327305.2081625,-2.0,-7.0,5.0,9.0,1.0,-13.0,-15.0,-7.0
1705327305.2081625,-5.0,0.0,14.0,-5.0,3.0,-1.0,1.0,-2.0
1705327305.2281628,0.0,0.0,-10.0,8.0,4.0,4.0,-1.0,-2.0
1705327305.2281628,-5.0,-14.0,-1.0,-12.0,-6.0,-5.0,-1.0,1.0
1705327305.2281628,-2.0,14.0,3.0,3.0,0.0,3.0,3.0,3.0
1705327305.2281628,4.0,-2.0,-1.0,1.0,-6.0,-4.0,-1.0,1.0
1705327305.238161,1.0,1.0,29.0,5.0,3.0,-2.0,-4.0,1.0
1705327305.238161,-2.0,-5.0,-80.0,-15.0,-7.0,-2.0,-3.0,-2.0
1705327305.238161,-1.0,-11.0,17.0,5.0,4.0,1.0,0.0,3.0
1705327305.238161,-2.0,2.0,-10.0,2.0,-2.0,1.0,-1.0,-1.0
1705327305.2681649,7.0,4.0,22.0,-1.0,-2.0,0.0,0.0,1.0
1705327305.2681649,1.0,0.0,1.0,-4.0,1.0,-1.0,-1.0,-4.0
1705327305.2681649,1.0,17.0,28.0,3.0,0.0,1.0,3.0,0.0
1705327305.2681649,-5.0,-18.0,-6.0,-16.0,-7.0,-4.0,-5.0,-2.0
1705327305.2781599,-2.0,-5.0,-21.0,10.0,4.0,-1.0,-1.0,-5.0
1705327305.2781599,1.0,4.0,26.0,4.0,3.0,1.0,8.0,3.0
1705327305.2881625,2.0,16.0,-6.0,-2.0,-4.0,0.0,0.0,3.0
1705327305.2881625,-3.0,-2.0,19.0,8.0,6.0,-2.0,-1.0,-5.0
1705327305.2982,-4.0,0.0,-20.0,-1.0,-3.0,-3.0,-5.0,-4.0
1705327305.2982,-1.0,-7.0,14.0,-11.0,-8.0,-4.0,-3.0,-5.0
1705327305.3081605,0.0,-9.0,5.0,0.0,-1.0,1.0,0.0,5.0
1705327305.3081605,1.0,10.0,11.0,6.0,2.0,0.0,2.0,0.0
1705327305.3281653,-3.0,0.0,-22.0,-15.0,-7.0,-1.0,-1.0,-2.0
1705327305.3281653,-2.0,10.0,31.0,16.0,5.0,-4.0,-4.0,0.0
1705327305.3281653,-4.0,-12.0,-2.0,-9.0,-1.0,3.0,-1.0,-4.0
1705327305.3281653,2.0,3.0,21.0,-15.0,-13.0,-6.0,-6.0,-3.0
1705327305.338162,-5.0,1.0,-6.0,2.0,10.0,6.0,4.0,0.0
1705327305.338162,1.0,5.0,28.0,16.0,15.0,2.0,1.0,-1.0
1705327305.3481605,0.0,-2.0,-16.0,2.0,-1.0,-3.0,2.0,-2.0
1705327305.3481605,0.0,9.0,-25.0,1.0,1.0,0.0,-1.0,0.0
1705327305.3581624,3.0,-6.0,30.0,-2.0,-10.0,-11.0,-8.0,-2.0
1705327305.3581624,-5.0,-11.0,36.0,0.0,-5.0,5.0,3.0,2.0
1705327305.3581624,-1.0,-2.0,-40.0,1.0,-2.0,-3.0,-2.0,-5.0
1705327305.3581624,-2.0,-1.0,-25.0,-1.0,6.0,0.0,-1.0,0.0
1705327305.3881648,0.0,3.0,5.0,2.0,0.0,2.0,3.0,5.0
1705327305.3881648,7.0,27.0,19.0,5.0,-4.0,-3.0,-4.0,-2.0
1705327305.3881648,-8.0,-24.0,-17.0,-17.0,-13.0,-6.0,-5.0,-7.0
1705327305.3881648,3.0,4.0,-21.0,-9.0,-1.0,3.0,3.0,1.0
1705327305.398161,-7.0,7.0,-5.0,0.0,-3.0,-1.0,-4.0,3.0
1705327305.398161,1.0,-48.0,-13.0,-4.0,-2.0,-3.0,-6.0,-9.0
1705327305.4081948,-5.0,24.0,36.0,8.0,7.0,4.0,3.0,-4.0
1705327305.4081948,1.0,7.0,-5.0,3.0,2.0,1.0,0.0,3.0
1705327305.4281592,-10.0,-2.0,-4.0,1.0,1.0,0.0,0.0,-4.0
1705327305.4281592,-5.0,-2.0,-27.0,-4.0,-2.0,0.0,-2.0,-1.0
1705327305.4381654,1.0,-7.0,-9.0,0.0,-4.0,-1.0,1.0,-2.0
1705327305.4381654,4.0,5.0,21.0,3.0,-1.0,0.0,0.0,-1.0
1705327305.44816,-8.0,-14.0,0.0,-9.0,-5.0,-2.0,-2.0,-6.0
1705327305.44816,-5.0,16.0,-2.0,10.0,6.0,-1.0,3.0,8.0
1705327305.44816,-6.0,-9.0,-38.0,-30.0,-9.0,-2.0,-4.0,-6.0
1705327305.44816,13.0,0.0,0.0,3.0,-2.0,2.0,-1.0,4.0
1705327305.4625099,0.0,-5.0,4.0,1.0,0.0,3.0,-1.0,-7.0
1705327305.4625099,7.0,26.0,-1.0,3.0,1.0,-1.0,-1.0,1.0
1705327305.4715116,-4.0,-18.0,27.0,-1.0,-1.0,1.0,0.0,0.0
1705327305.4715116,-8.0,-7.0,9.0,2.0,-5.0,-5.0,1.0,-2.0
1705327305.4909797,4.0,3.0,-5.0,8.0,5.0,2.0,-1.0,3.0
1705327305.4909797,-4.0,-25.0,-33.0,-18.0,-1.0,7.0,1.0,-5.0
1705327305.4909797,7.0,21.0,-6.0,8.0,3.0,-4.0,-1.0,3.0
1705327305.4909797,-7.0,-35.0,3.0,-6.0,-2.0,6.0,-1.0,-6.0
1705327305.5010173,2.0,-4.0,17.0,1.0,-3.0,-4.0,1.0,5.0
1705327305.5010173,4.0,1.0,-7.0,-14.0,-15.0,-7.0,-5.0,-6.0
1705327305.5010173,-2.0,0.0,21.0,23.0,19.0,10.0,8.0,2.0
1705327305.5010173,-5.0,1.0,1.0,-2.0,0.0,-1.0,3.0,0.0
1705327305.5209827,-2.0,13.0,23.0,6.0,0.0,-10.0,3.0,5.0
1705327305.5209827,2.0,-2.0,-39.0,-5.0,4.0,1.0,-2.0,-2.0
1705327305.530986,5.0,2.0,-4.0,-8.0,-10.0,-6.0,-16.0,-1.0
1705327305.530986,1.0,11.0,3.0,11.0,-6.0,7.0,3.0,0.0
1705327305.5409846,-3.0,-15.0,-58.0,-16.0,12.0,6.0,9.0,-3.0
1705327305.5409846,-4.0,6.0,30.0,5.0,-2.0,-5.0,-2.0,-3.0
1705327305.5409846,-1.0,-2.0,-2.0,2.0,3.0,6.0,-9.0,-7.0
1705327305.5409846,-3.0,-4.0,-20.0,4.0,7.0,-13.0,-16.0,-7.0
1705327305.5609822,3.0,0.0,-36.0,-7.0,-13.0,-7.0,-6.0,-4.0
1705327305.5609822,-2.0,-13.0,-11.0,-7.0,-5.0,1.0,-4.0,-1.0
1705327305.5609822,1.0,12.0,-3.0,-3.0,-1.0,-5.0,5.0,4.0
1705327305.5609822,-5.0,-41.0,19.0,-3.0,-7.0,-7.0,-3.0,5.0
1705327305.5810158,-18.0,-7.0,4.0,-2.0,-4.0,6.0,-4.0,-4.0
1705327305.5810158,-3.0,9.0,-5.0,0.0,1.0,-3.0,2.0,2.0
1705327305.5909865,3.0,-5.0,12.0,9.0,-2.0,-4.0,1.0,1.0
1705327305.5909865,6.0,5.0,12.0,-6.0,-1.0,1.0,1.0,0.0
1705327305.6009905,-2.0,-1.0,-40.0,-14.0,-4.0,-5.0,-2.0,-6.0
1705327305.6009905,-12.0,36.0,-14.0,11.0,6.0,2.0,-3.0,12.0
1705327305.6009905,15.0,1.0,41.0,-7.0,-2.0,-11.0,-11.0,-10.0
1705327305.6009905,-5.0,-22.0,-49.0,-4.0,-2.0,-2.0,1.0,-1.0
1705327305.621017,3.0,-9.0,-49.0,-9.0,-3.0,-3.0,-6.0,-1.0
1705327305.621017,11.0,15.0,72.0,11.0,-2.0,3.0,-2.0,-1.0
1705327305.621017,-10.0,-22.0,-57.0,-3.0,-4.0,-8.0,0.0,-5.0
1705327305.621017,0.0,30.0,29.0,3.0,3.0,-14.0,-6.0,0.0
1705327305.6410184,6.0,-1.0,13.0,8.0,5.0,-7.0,-7.0,-7.0
1705327305.6410184,-9.0,-17.0,-15.0,-1.0,0.0,-2.0,2.0,-8.0
1705327305.6510198,8.0,-23.0,32.0,12.0,2.0,6.0,3.0,10.0
1705327305.6510198,3.0,0.0,-44.0,-26.0,-7.0,8.0,7.0,-2.0
1705327305.6709824,-11.0,5.0,11.0,4.0,-5.0,0.0,-3.0,-8.0
1705327305.6709824,2.0,2.0,9.0,-8.0,-7.0,-8.0,-1.0,3.0
1705327305.6709824,-6.0,-26.0,5.0,11.0,2.0,4.0,3.0,3.0
1705327305.6709824,5.0,-12.0,-17.0,-8.0,7.0,4.0,-2.0,-6.0
1705327305.6809883,-5.0,52.0,65.0,12.0,0.0,5.0,1.0,4.0
1705327305.6809883,13.0,26.0,-20.0,-12.0,-5.0,-5.0,-3.0,-1.0
1705327305.6809883,26.0,-29.0,-26.0,-2.0,-1.0,2.0,6.0,10.0
1705327305.6809883,-15.0,33.0,9.0,-1.0,-2.0,-4.0,-5.0,-14.0
1705327305.7209864,-14.0,9.0,-1.0,9.0,9.0,7.0,1.0,-27.0
1705327305.7209864,-5.0,-74.0,9.0,-14.0,-6.0,-5.0,-1.0,10.0
1705327305.7209864,12.0,52.0,4.0,0.0,-8.0,-1.0,-1.0,-4.0
1705327305.7209864,-2.0,26.0,-2.0,-9.0,-2.0,-1.0,0.0,10.0
1705327305.7209864,2.0,-9.0,0.0,3.0,4.0,3.0,3.0,3.0
1705327305.7209864,-11.0,4.0,12.0,12.0,1.0,5.0,1.0,9.0
1705327305.7209864,5.0,-12.0,-39.0,-23.0,-4.0,0.0,-3.0,-6.0
1705327305.7209864,5.0,-18.0,19.0,2.0,0.0,-1.0,-1.0,9.0
1705327305.7409837,9.0,-13.0,19.0,6.0,-3.0,-3.0,0.0,6.0
1705327305.7409837,2.0,-30.0,31.0,0.0,1.0,1.0,5.0,7.0
1705327305.7409837,-29.0,-30.0,-3.0,9.0,0.0,-3.0,0.0,3.0
1705327305.7409837,1.0,-12.0,-59.0,-11.0,-7.0,-5.0,-2.0,-5.0
1705327305.760987,-1.0,-22.0,19.0,-7.0,3.0,0.0,-3.0,-5.0
1705327305.760987,6.0,17.0,22.0,7.0,-3.0,-4.0,-2.0,-6.0
1705327305.770986,-5.0,7.0,55.0,-7.0,-1.0,-1.0,-2.0,-5.0
1705327305.770986,21.0,20.0,6.0,22.0,7.0,2.0,3.0,-3.0
1705327305.780986,-4.0,-53.0,-4.0,-5.0,-6.0,-1.0,0.0,0.0
1705327305.780986,-3.0,23.0,-37.0,-9.0,5.0,6.0,0.0,-5.0
1705327305.780986,-7.0,67.0,6.0,-10.0,-9.0,-12.0,-7.0,-10.0
1705327305.780986,-11.0,-45.0,15.0,-8.0,-8.0,-4.0,-2.0,-12.0
1705327305.8009827,2.0,-16.0,-24.0,-18.0,-5.0,5.0,3.0,19.0
1705327305.8009827,-2.0,-7.0,-5.0,12.0,0.0,-2.0,-3.0,-8.0
1705327305.8009827,1.0,-1.0,16.0,40.0,21.0,4.0,3.0,4.0
1705327305.8009827,-16.0,9.0,7.0,-46.0,-18.0,-1.0,0.0,14.0
1705327305.820984,2.0,-5.0,-40.0,-5.0,4.0,-4.0,-4.0,-32.0
1705327305.820984,-1.0,-15.0,-13.0,2.0,-10.0,-4.0,-3.0,-1.0
1705327305.8310206,-1.0,0.0,-42.0,-15.0,16.0,9.0,7.0,-3.0
1705327305.8310206,-32.0,2.0,72.0,33.0,-34.0,-18.0,-12.0,-8.0
1705327305.8410172,-12.0,-3.0,-28.0,-14.0,-31.0,-28.0,-6.0,-30.0
1705327305.8410172,9.0,7.0,-13.0,2.0,20.0,40.0,10.0,-8.0
1705327305.8510177,-5.0,1.0,-4.0,14.0,33.0,14.0,5.0,4.0
1705327305.8510177,-2.0,2.0,35.0,28.0,16.0,10.0,3.0,-5.0
1705327305.8610234,21.0,35.0,9.0,-11.0,-41.0,-29.0,-25.0,8.0
1705327305.8610234,-12.0,50.0,-1.0,-40.0,-38.0,-23.0,11.0,-11.0
1705327305.8610234,1.0,-10.0,10.0,14.0,4.0,25.0,-3.0,-8.0
1705327305.8610234,23.0,34.0,-57.0,8.0,64.0,21.0,4.0,2.0
1705327305.881032,-23.0,46.0,57.0,-8.0,-4.0,-2.0,-8.0,35.0
1705327305.881032,48.0,-37.0,-100.0,-25.0,-15.0,-18.0,-5.0,20.0
1705327305.8909855,-37.0,45.0,73.0,-11.0,-38.0,-27.0,-4.0,34.0
1705327305.8909855,21.0,79.0,50.0,26.0,5.0,1.0,-6.0,-36.0
1705327305.9009829,-24.0,42.0,38.0,17.0,26.0,11.0,2.0,-43.0
1705327305.9009829,-15.0,12.0,-10.0,-3.0,5.0,11.0,3.0,0.0
1705327305.9110248,-14.0,-10.0,-56.0,-36.0,-21.0,-25.0,-10.0,-10.0
1705327305.9110248,10.0,-14.0,10.0,1.0,1.0,0.0,-1.0,15.0
1705327305.9214005,29.0,15.0,-27.0,-4.0,0.0,-7.0,6.0,20.0
1705327305.9214005,-24.0,-25.0,66.0,6.0,-19.0,-26.0,-24.0,-18.0
1705327305.9409866,13.0,-11.0,-24.0,20.0,47.0,26.0,17.0,19.0
1705327305.9409866,1.0,-1.0,5.0,-10.0,-15.0,5.0,5.0,-36.0
1705327305.9409866,8.0,-47.0,-42.0,-21.0,70.0,-10.0,2.0,21.0
1705327305.9409866,-14.0,-18.0,-19.0,10.0,-64.0,4.0,3.0,-11.0
1705327305.9509828,-13.0,21.0,34.0,-1.0,87.0,-5.0,-7.0,-20.0
1705327305.9509828,22.0,-10.0,-7.0,-62.0,31.0,-87.0,-29.0,-2.0
1705327305.9610033,-27.0,6.0,49.0,52.0,-96.0,-66.0,9.0,-13.0
1705327305.9610033,32.0,-49.0,-52.0,7.0,126.0,68.0,8.0,20.0
1705327305.970984,-56.0,12.0,21.0,103.0,77.0,104.0,20.0,-31.0
1705327305.970984,80.0,-41.0,-8.0,44.0,40.0,16.0,1.0,11.0
1705327305.9909844,-46.0,-29.0,-24.0,-94.0,34.0,11.0,-2.0,-64.0
1705327305.9909844,-38.0,57.0,26.0,37.0,8.0,-128.0,-42.0,-60.0
1705327305.9909844,-24.0,-89.0,-67.0,-63.0,-43.0,-93.0,-84.0,30.0
1705327305.9909844,-54.0,-25.0,-23.0,-33.0,80.0,127.0,81.0,76.0
1705327306.011182,-57.0,-32.0,9.0,125.0,117.0,-12.0,-57.0,-80.0
1705327306.011182,100.0,58.0,52.0,-8.0,-120.0,40.0,61.0,53.0
1705327306.0121822,60.0,45.0,3.0,-30.0,-62.0,-83.0,6.0,-39.0
1705327306.0121822,-55.0,-66.0,-58.0,-92.0,-128.0,-100.0,-53.0,54.0
1705327306.023955,-39.0,-12.0,-17.0,-77.0,-48.0,-68.0,-69.0,-46.0
1705327306.023955,-87.0,-24.0,13.0,69.0,127.0,102.0,18.0,93.0
1705327306.023955,127.0,83.0,51.0,91.0,57.0,75.0,99.0,-84.0
1705327306.023955,-19.0,31.0,44.0,127.0,58.0,113.0,9.0,27.0
1705327306.0439575,-69.0,-33.0,-35.0,-101.0,-102.0,-72.0,-56.0,66.0
1705327306.0439575,-10.0,-47.0,-15.0,-84.0,-103.0,-128.0,-127.0,-67.0
1705327306.0439575,-32.0,-61.0,-93.0,-128.0,-101.0,-72.0,-13.0,15.0
1705327306.0439575,-8.0,17.0,-10.0,-7.0,54.0,76.0,90.0,-30.0
1705327306.053958,118.0,91.0,116.0,127.0,127.0,127.0,127.0,44.0
1705327306.053958,6.0,-38.0,-87.0,22.0,11.0,48.0,97.0,13.0
1705327306.063958,-13.0,-24.0,-31.0,-94.0,-91.0,46.0,63.0,21.0
1705327306.063958,-3.0,0.0,-22.0,-127.0,-128.0,-109.0,-28.0,-19.0
1705327306.0739992,25.0,4.0,-10.0,-125.0,-104.0,-103.0,-92.0,117.0
1705327306.0739992,-88.0,21.0,101.0,-90.0,87.0,-113.0,-107.0,-32.0
1705327306.083966,70.0,-14.0,-15.0,95.0,112.0,77.0,78.0,-21.0
1705327306.083966,77.0,25.0,-36.0,127.0,64.0,-44.0,-55.0,-98.0
1705327306.1039593,53.0,84.0,98.0,39.0,-44.0,46.0,9.0,-62.0
1705327306.1039593,-77.0,-81.0,-91.0,-80.0,-116.0,-7.0,-5.0,-91.0
1705327306.1039593,75.0,22.0,-15.0,-119.0,-39.0,-128.0,-128.0,-8.0
1705327306.1039593,-28.0,-67.0,32.0,78.0,102.0,67.0,90.0,98.0
1705327306.1239727,127.0,32.0,-18.0,65.0,127.0,56.0,-9.0,-23.0
1705327306.1239727,55.0,6.0,115.0,127.0,92.0,19.0,-2.0,-15.0
1705327306.1239727,2.0,48.0,8.0,-70.0,-99.0,-109.0,-128.0,23.0
1705327306.1239727,9.0,12.0,-33.0,-128.0,-128.0,2.0,-4.0,-62.0
1705327306.1339705,-121.0,-45.0,-111.0,-115.0,-89.0,42.0,54.0,-27.0
1705327306.1339705,-91.0,-55.0,-31.0,-27.0,-35.0,26.0,-43.0,8.0
1705327306.1439931,-18.0,23.0,59.0,75.0,11.0,16.0,-5.0,-18.0
1705327306.1439931,30.0,57.0,36.0,32.0,17.0,-13.0,-25.0,39.0
1705327306.1639578,40.0,1.0,-45.0,8.0,-4.0,10.0,19.0,4.0
1705327306.1639578,86.0,53.0,-24.0,-18.0,11.0,51.0,68.0,25.0
1705327306.1639578,-48.0,-38.0,12.0,13.0,6.0,45.0,42.0,47.0
1705327306.1639578,-13.0,28.0,24.0,-13.0,-14.0,-8.0,19.0,-18.0
1705327306.1739597,7.0,12.0,27.0,21.0,18.0,11.0,41.0,32.0
1705327306.1739597,46.0,5.0,-9.0,11.0,11.0,3.0,18.0,16.0
1705327306.183962,-47.0,-16.0,-12.0,1.0,-17.0,14.0,7.0,21.0
1705327306.183962,-37.0,-12.0,2.0,-3.0,-12.0,-28.0,-19.0,-12.0
1705327306.193996,34.0,-84.0,-41.0,-24.0,-57.0,-52.0,-26.0,-1.0
1705327306.193996,17.0,30.0,14.0,-32.0,-35.0,-38.0,-83.0,64.0
1705327306.2139573,-44.0,-3.0,-7.0,25.0,29.0,60.0,127.0,43.0
1705327306.2139573,2.0,-36.0,-18.0,-15.0,-82.0,-35.0,-11.0,54.0
1705327306.2139573,-39.0,-51.0,9.0,58.0,115.0,47.0,-65.0,39.0
1705327306.2139573,13.0,51.0,28.0,36.0,12.0,22.0,32.0,-46.0
1705327306.2239616,-29.0,-10.0,10.0,16.0,-33.0,-45.0,-69.0,-26.0
1705327306.2239616,-5.0,-31.0,-26.0,-39.0,-48.0,-69.0,-81.0,-7.0
1705327306.233958,2.0,26.0,3.0,-31.0,-78.0,-19.0,-7.0,27.0
1705327306.2439606,4.0,35.0,-15.0,-22.0,2.0,-25.0,5.0,-3.0
1705327306.2439606,-3.0,-31.0,-8.0,-6.0,2.0,28.0,-6.0,1.0
1705327306.2439606,-10.0,16.0,29.0,29.0,56.0,9.0,-2.0,-18.0
1705327306.273959,0.0,-5.0,-12.0,23.0,4.0,1.0,25.0,-8.0
1705327306.273959,17.0,8.0,1.0,-4.0,6.0,3.0,16.0,-6.0
1705327306.283958,-7.0,-19.0,-20.0,-12.0,-8.0,-5.0,-1.0,7.0
1705327306.283958,-11.0,12.0,51.0,-2.0,-4.0,-2.0,-18.0,-3.0
1705327306.283958,-2.0,6.0,8.0,9.0,2.0,2.0,25.0,2.0
1705327306.283958,9.0,-27.0,-90.0,-27.0,-25.0,-9.0,7.0,18.0
1705327306.283958,-7.0,-22.0,19.0,2.0,-12.0,3.0,-10.0,2.0
1705327306.283958,-16.0,-18.0,-23.0,-15.0,4.0,1.0,-2.0,-18.0
1705327306.2939742,8.0,-7.0,-1.0,-12.0,-5.0,-10.0,8.0,2.0
1705327306.2939742,2.0,6.0,-45.0,-16.0,-20.0,-1.0,9.0,7.0
1705327306.2939742,-15.0,-26.0,-2.0,-11.0,3.0,5.0,-6.0,-10.0
1705327306.2939742,-6.0,-14.0,5.0,-3.0,17.0,-9.0,-17.0,-21.0
1705327306.3139606,3.0,6.0,0.0,-3.0,-14.0,-9.0,2.0,3.0
1705327306.3139606,0.0,27.0,40.0,21.0,-2.0,9.0,1.0,7.0
1705327306.3339925,0.0,24.0,41.0,31.0,15.0,4.0,-1.0,-4.0
1705327306.3339925,-7.0,-13.0,-3.0,3.0,6.0,3.0,-1.0,-7.0
1705327306.3339925,13.0,-1.0,-12.0,-14.0,-19.0,-9.0,-3.0,-17.0
1705327306.3339925,1.0,0.0,15.0,0.0,-4.0,-4.0,1.0,-5.0
1705327306.3439958,4.0,17.0,9.0,8.0,1.0,-4.0,-5.0,-2.0
1705327306.3439958,-26.0,-17.0,-17.0,5.0,14.0,2.0,4.0,20.0
1705327306.3539965,-5.0,-10.0,-18.0,-7.0,-5.0,1.0,3.0,-7.0
1705327306.3539965,30.0,-11.0,24.0,-2.0,0.0,6.0,8.0,14.0
1705327306.3539965,10.0,1.0,-3.0,-14.0,-19.0,-5.0,1.0,6.0
1705327306.36396,9.0,28.0,0.0,8.0,26.0,11.0,9.0,10.0
1705327306.3739617,-8.0,-14.0,-3.0,0.0,-3.0,2.0,5.0,8.0
1705327306.3739617,-4.0,-2.0,18.0,4.0,0.0,10.0,6.0,8.0
1705327306.3839643,6.0,23.0,8.0,-2.0,-12.0,-2.0,-6.0,10.0
1705327306.3839643,2.0,-19.0,-25.0,-11.0,-11.0,-17.0,-7.0,-14.0
1705327306.3939881,-1.0,5.0,11.0,3.0,11.0,5.0,7.0,13.0
1705327306.3939881,-2.0,12.0,12.0,-4.0,-6.0,-4.0,3.0,-5.0
1705327306.4039593,-7.0,-9.0,-14.0,0.0,6.0,8.0,6.0,1.0
1705327306.4039593,-5.0,-18.0,-19.0,-15.0,-8.0,1.0,-5.0,-14.0
1705327306.4139612,1.0,3.0,13.0,-4.0,-7.0,-11.0,2.0,-21.0
1705327306.4139612,-5.0,3.0,-6.0,-4.0,2.0,-2.0,-4.0,36.0
1705327306.4139612,14.0,20.0,12.0,13.0,19.0,4.0,-4.0,6.0
1705327306.4239614,39.0,19.0,9.0,3.0,-4.0,-8.0,-11.0,-5.0
1705327306.4339619,-36.0,-33.0,0.0,-1.0,-7.0,-5.0,-7.0,-4.0
1705327306.4339619,-40.0,-35.0,-3.0,-3.0,-2.0,-3.0,-13.0,-59.0
1705327306.443962,-7.0,-14.0,-17.0,3.0,5.0,-2.0,-2.0,-8.0
1705327306.443962,23.0,12.0,3.0,2.0,-5.0,-4.0,-5.0,16.0
1705327306.4539597,21.0,20.0,3.0,5.0,1.0,0.0,-2.0,15.0
1705327306.4539597,0.0,-15.0,-19.0,-4.0,1.0,1.0,2.0,7.0
1705327306.4639597,-17.0,-32.0,-9.0,-6.0,-1.0,-5.0,-5.0,-9.0
1705327306.4639597,-11.0,22.0,14.0,6.0,-1.0,-4.0,-1.0,-15.0
1705327306.4739602,2.0,-7.0,6.0,-5.0,-5.0,-1.0,-1.0,5.0
1705327306.4739602,15.0,15.0,18.0,8.0,4.0,0.0,0.0,3.0
1705327306.4739602,-6.0,8.0,3.0,-3.0,-8.0,-6.0,-12.0,-9.0
1705327306.483958,-12.0,-16.0,-4.0,0.0,-7.0,-1.0,-1.0,16.0
1705327306.5039577,-8.0,-4.0,-8.0,8.0,17.0,5.0,4.0,-25.0
1705327306.5039577,6.0,-29.0,-22.0,-13.0,-7.0,-2.0,-1.0,-30.0
1705327306.5039577,4.0,12.0,-2.0,4.0,0.0,-5.0,-1.0,35.0
1705327306.5039577,7.0,17.0,25.0,7.0,-4.0,-4.0,-6.0,16.0
1705327306.5139587,4.0,5.0,6.0,-2.0,-7.0,-1.0,0.0,13.0
1705327306.5139587,-7.0,-12.0,-15.0,-9.0,-2.0,-3.0,3.0,21.0
1705327306.5284011,-2.0,-2.0,8.0,1.0,2.0,5.0,4.0,-26.0
1705327306.5284011,-9.0,-1.0,-5.0,-3.0,-2.0,-2.0,-2.0,-12.0
1705327306.556618,1.0,-11.0,-6.0,-3.0,-4.0,-4.0,-3.0,-4.0
1705327306.556618,5.0,39.0,41.0,17.0,7.0,3.0,4.0,14.0
1705327306.556618,-9.0,-9.0,-19.0,-3.0,-4.0,-3.0,0.0,-8.0
1705327306.556618,3.0,-24.0,-18.0,-12.0,-4.0,1.0,0.0,47.0
1705327306.556618,3.0,10.0,8.0,3.0,-3.0,-5.0,-8.0,-19.0
1705327306.556618,-13.0,-9.0,23.0,9.0,1.0,1.0,-1.0,-12.0
1705327306.556618,5.0,15.0,13.0,12.0,4.0,0.0,-5.0,53.0
1705327306.556618,-25.0,-18.0,-15.0,-5.0,1.0,4.0,2.0,-38.0
1705327306.5766206,23.0,-5.0,4.0,-1.0,2.0,8.0,11.0,46.0
1705327306.5766206,4.0,-31.0,-28.0,-16.0,-11.0,-10.0,-19.0,-32.0
1705327306.5866256,-10.0,2.0,1.0,-2.0,-4.0,-10.0,-1.0,11.0
1705327306.5866256,-10.0,10.0,24.0,8.0,2.0,0.0,-2.0,-3.0
1705327306.5966249,2.0,0.0,-10.0,-8.0,-5.0,-4.0,2.0,61.0
1705327306.5966249,-2.0,28.0,19.0,6.0,4.0,9.0,8.0,-24.0
1705327306.5966249,-13.0,-23.0,-30.0,-8.0,0.0,2.0,-1.0,-34.0
1705327306.5966249,17.0,-11.0,-19.0,-5.0,1.0,-2.0,1.0,31.0
1705327306.616662,-23.0,-3.0,9.0,0.0,-3.0,-8.0,-6.0,-19.0
1705327306.616662,8.0,19.0,6.0,-3.0,0.0,-5.0,-10.0,-15.0
1705327306.616662,8.0,10.0,9.0,1.0,-3.0,6.0,17.0,-15.0
1705327306.616662,-18.0,21.0,17.0,10.0,2.0,2.0,8.0,63.0
1705327306.6366708,20.0,-17.0,-29.0,-8.0,-7.0,-5.0,0.0,32.0
1705327306.6366708,-16.0,-22.0,-44.0,-18.0,-7.0,-4.0,-2.0,7.0
1705327306.6466641,-3.0,-8.0,6.0,0.0,0.0,-1.0,-8.0,-19.0
1705327306.6466641,-7.0,17.0,-1.0,6.0,-1.0,-1.0,0.0,-22.0
1705327306.6666222,4.0,13.0,11.0,-2.0,-2.0,5.0,7.0,-1.0
1705327306.6666222,37.0,9.0,2.0,0.0,0.0,-3.0,7.0,73.0
1705327306.6666222,10.0,-14.0,-13.0,-9.0,-4.0,4.0,11.0,24.0
1705327306.6666222,13.0,11.0,17.0,2.0,-1.0,-6.0,-7.0,-22.0
1705327306.676726,5.0,-7.0,-11.0,-2.0,-4.0,1.0,1.0,-22.0
1705327306.676726,-63.0,-15.0,-6.0,-2.0,2.0,4.0,2.0,14.0
1705327306.676726,1.0,-8.0,-2.0,0.0,2.0,4.0,-2.0,19.0
1705327306.6866214,23.0,1.0,15.0,0.0,2.0,3.0,-2.0,-33.0
1705327306.6966226,-40.0,-6.0,-3.0,-3.0,-2.0,-6.0,-13.0,16.0
1705327306.6966226,15.0,1.0,-2.0,0.0,2.0,3.0,2.0,-2.0
1705327306.7066607,0.0,12.0,-2.0,0.0,2.0,2.0,0.0,-12.0
1705327306.7066607,-20.0,-4.0,-5.0,-2.0,0.0,0.0,1.0,-13.0
1705327306.7066607,7.0,-7.0,-16.0,-6.0,-3.0,-8.0,-13.0,-13.0
1705327306.7066607,26.0,16.0,-4.0,3.0,-1.0,-11.0,-23.0,48.0
1705327306.72662,-17.0,7.0,2.0,0.0,2.0,11.0,27.0,20.0
1705327306.72662,18.0,-20.0,-19.0,-6.0,-10.0,-9.0,-7.0,-46.0
1705327306.736619,-11.0,6.0,14.0,-2.0,-4.0,7.0,5.0,-32.0
1705327306.736619,-29.0,-1.0,20.0,6.0,5.0,-6.0,-4.0,14.0
1705327306.736619,5.0,-5.0,-63.0,-4.0,7.0,1.0,-8.0,-22.0
1705327306.736619,-6.0,-19.0,-14.0,-12.0,-6.0,-5.0,-5.0,7.0
1705327306.75662,6.0,13.0,11.0,9.0,3.0,0.0,3.0,11.0
1705327306.75662,6.0,0.0,15.0,-2.0,-6.0,2.0,4.0,-22.0
1705327306.7666574,0.0,-10.0,8.0,-6.0,-6.0,-11.0,-11.0,-1.0
1705327306.7666574,-7.0,11.0,-1.0,5.0,1.0,1.0,2.0,-24.0
1705327306.786621,-3.0,-2.0,3.0,-1.0,1.0,0.0,-2.0,-10.0
1705327306.786621,14.0,3.0,4.0,-1.0,1.0,3.0,4.0,13.0
1705327306.786621,-8.0,1.0,-1.0,-4.0,-5.0,-9.0,-10.0,-16.0
1705327306.786621,-12.0,-21.0,-27.0,-5.0,0.0,6.0,-4.0,-45.0
1705327306.796624,0.0,-15.0,-2.0,0.0,5.0,-3.0,-2.0,20.0
1705327306.796624,1.0,-3.0,-3.0,1.0,1.0,-27.0,-31.0,6.0
1705327306.796624,8.0,5.0,7.0,-4.0,-4.0,45.0,48.0,23.0
1705327306.796624,9.0,0.0,15.0,-4.0,-13.0,-16.0,-2.0,46.0
1705327306.8266227,-12.0,-10.0,-11.0,-2.0,1.0,6.0,-6.0,-40.0
1705327306.8266227,-14.0,0.0,-1.0,12.0,24.0,6.0,7.0,10.0
1705327306.8266227,-5.0,3.0,14.0,1.0,-1.0,-6.0,-16.0,-9.0
1705327306.8266227,0.0,4.0,-8.0,-7.0,-6.0,-2.0,-4.0,0.0
1705327306.8266227,3.0,6.0,-5.0,-5.0,-9.0,-8.0,-10.0,-11.0
1705327306.8266227,31.0,3.0,-7.0,-3.0,-8.0,4.0,4.0,-1.0
1705327306.846622,-35.0,-12.0,22.0,-1.0,-5.0,-17.0,-22.0,-60.0
1705327306.846622,-2.0,-21.0,-8.0,-1.0,3.0,5.0,6.0,-4.0
1705327306.8566232,5.0,13.0,5.0,4.0,1.0,-5.0,-2.0,18.0
1705327306.8566232,7.0,-6.0,-6.0,-6.0,-5.0,11.0,14.0,-1.0
1705327306.8566232,-4.0,19.0,13.0,6.0,6.0,-1.0,1.0,20.0
1705327306.8566232,3.0,-6.0,-9.0,-3.0,0.0,-5.0,4.0,32.0
1705327306.886623,3.0,3.0,6.0,1.0,-1.0,-2.0,1.0,-42.0
1705327306.886623,-14.0,-1.0,3.0,-3.0,-3.0,7.0,10.0,-35.0
1705327306.886623,12.0,9.0,7.0,-1.0,-3.0,-9.0,-13.0,-8.0
1705327306.886623,-7.0,-4.0,-15.0,-4.0,-15.0,1.0,-7.0,16.0
1705327306.886623,25.0,2.0,6.0,7.0,0.0,0.0,1.0,9.0
1705327306.886623,-16.0,3.0,-7.0,-1.0,12.0,14.0,19.0,2.0
1705327306.9066238,24.0,2.0,5.0,1.0,1.0,-13.0,-14.0,-37.0
1705327306.9066238,-15.0,18.0,11.0,3.0,5.0,2.0,-4.0,-12.0
1705327306.9166195,-6.0,-7.0,4.0,-4.0,-4.0,-2.0,2.0,13.0
1705327306.9166195,9.0,0.0,-7.0,-6.0,-14.0,-2.0,1.0,-25.0
1705327306.9166195,28.0,5.0,-2.0,-2.0,-13.0,-13.0,-11.0,40.0
1705327306.9166195,-6.0,5.0,11.0,4.0,16.0,6.0,10.0,-39.0
1705327306.9466572,-24.0,-18.0,-9.0,0.0,-2.0,2.0,-1.0,-2.0
1705327306.9466572,-4.0,4.0,-1.0,-6.0,-10.0,-11.0,-11.0,19.0
1705327306.9466572,2.0,-17.0,-29.0,-20.0,-13.0,-12.0,-5.0,45.0
1705327306.9466572,7.0,13.0,8.0,18.0,19.0,17.0,6.0,-49.0
1705327306.9466572,15.0,4.0,-3.0,10.0,23.0,9.0,7.0,24.0
1705327306.9466572,-23.0,-4.0,16.0,5.0,4.0,-1.0,2.0,-5.0
1705327306.966659,0.0,9.0,-3.0,1.0,-8.0,-2.0,-5.0,-17.0
1705327306.966659,4.0,4.0,-9.0,-16.0,-17.0,-21.0,-12.0,42.0
1705327306.9766216,-1.0,3.0,-2.0,-17.0,-62.0,-15.0,-3.0,-19.0
1705327306.9766216,-1.0,-10.0,-13.0,5.0,16.0,22.0,1.0,-27.0
1705327306.9766216,2.0,4.0,19.0,31.0,57.0,23.0,11.0,-1.0
1705327306.9766216,1.0,3.0,14.0,5.0,9.0,2.0,3.0,14.0
1705327307.0066216,-3.0,4.0,-1.0,-8.0,2.0,-9.0,-7.0,-2.0
1705327307.0066216,15.0,-8.0,-17.0,-28.0,-53.0,-31.0,-7.0,-50.0
1705327307.0066216,-36.0,-12.0,-10.0,-9.0,-26.0,6.0,8.0,-1.0
1705327307.0066216,29.0,30.0,12.0,17.0,35.0,20.0,2.0,36.0
1705327307.0066216,-10.0,15.0,5.0,10.0,24.0,-6.0,-1.0,-10.0
1705327307.0066216,1.0,27.0,6.0,-3.0,-5.0,4.0,-2.0,6.0
1705327307.0266206,-9.0,-23.0,-12.0,-22.0,-30.0,-24.0,-8.0,-9.0
1705327307.0266206,-7.0,-19.0,-12.0,-25.0,-10.0,-23.0,-12.0,-25.0
1705327307.0366213,8.0,-2.0,-7.0,-3.0,8.0,38.0,19.0,86.0
1705327307.0366213,6.0,9.0,18.0,64.0,89.0,42.0,-2.0,-27.0
1705327307.046622,-5.0,8.0,21.0,26.0,36.0,4.0,7.0,-39.0
1705327307.046622,-33.0,-23.0,26.0,-16.0,-37.0,-17.0,-13.0,-31.0
1705327307.0598428,-4.0,-19.0,-54.0,-42.0,-71.0,-46.0,-17.0,-13.0
1705327307.0598428,-12.0,-20.0,-7.0,-27.0,-30.0,-4.0,-14.0,38.0
1705327307.068128,11.0,-4.0,5.0,5.0,41.0,27.0,18.0,3.0
1705327307.068128,12.0,30.0,26.0,35.0,27.0,-1.0,6.0,-8.0
1705327307.074167,-5.0,4.0,37.0,19.0,31.0,16.0,8.0,-4.0
1705327307.075126,6.0,-23.0,-28.0,-23.0,-31.0,-12.0,2.0,13.0
1705327307.089415,-7.0,-7.0,-65.0,-33.0,-40.0,-40.0,-50.0,-8.0
1705327307.089415,-8.0,-34.0,-56.0,-35.0,-64.0,7.0,21.0,-47.0
1705327307.089415,-22.0,6.0,40.0,23.0,28.0,10.0,28.0,-19.0
1705327307.089415,2.0,7.0,53.0,42.0,68.0,16.0,19.0,4.0
1705327307.1094177,32.0,82.0,121.0,59.0,27.0,8.0,4.0,31.0
1705327307.1094177,-7.0,-28.0,-47.0,-19.0,-20.0,-4.0,-10.0,19.0
1705327307.1194534,-28.0,-71.0,-107.0,-104.0,-80.0,-47.0,-49.0,-39.0
1705327307.1194534,-14.0,-35.0,15.0,-54.0,-28.0,-15.0,-80.0,-9.0
1705327307.1194534,-20.0,-22.0,45.0,31.0,26.0,11.0,106.0,7.0
1705327307.1194534,21.0,32.0,117.0,61.0,32.0,-5.0,-14.0,-8.0
1705327307.1294568,39.0,96.0,100.0,73.0,35.0,20.0,19.0,2.0
1705327307.1294568,-13.0,-45.0,-45.0,-9.0,-15.0,-21.0,-18.0,20.0
1705327307.149419,-20.0,-65.0,3.0,-112.0,-63.0,-21.0,-67.0,-5.0
1705327307.149419,1.0,4.0,5.0,-19.0,-16.0,2.0,-3.0,29.0
1705327307.149419,3.0,-21.0,-13.0,7.0,27.0,-13.0,-32.0,-2.0
1705327307.149419,11.0,-3.0,16.0,27.0,5.0,6.0,6.0,9.0
1705327307.1594522,29.0,88.0,24.0,80.0,24.0,6.0,2.0,10.0
1705327307.1594522,-14.0,-34.0,39.0,-17.0,-10.0,-8.0,7.0,-4.0
1705327307.1794178,-15.0,-15.0,43.0,-47.0,-25.0,-9.0,-17.0,-8.0
1705327307.1794178,-1.0,9.0,38.0,0.0,-10.0,-3.0,15.0,1.0
1705327307.1794178,-4.0,-14.0,-42.0,-4.0,5.0,9.0,11.0,-5.0
1705327307.1794178,7.0,22.0,0.0,12.0,24.0,8.0,-6.0,14.0
1705327307.1894188,14.0,11.0,10.0,5.0,9.0,15.0,12.0,5.0
1705327307.1894188,-5.0,-9.0,-45.0,-6.0,-42.0,-95.0,-72.0,-2.0
1705327307.21942,-19.0,-40.0,-43.0,-14.0,-19.0,40.0,18.0,-34.0
1705327307.21942,-6.0,-1.0,-19.0,38.0,60.0,44.0,72.0,23.0
1705327307.21942,5.0,11.0,19.0,54.0,70.0,31.0,57.0,2.0
1705327307.21942,-8.0,17.0,-9.0,-23.0,-8.0,-17.0,17.0,-54.0
1705327307.21942,-2.0,43.0,13.0,-28.0,-45.0,-46.0,-78.0,-3.0
1705327307.21942,-4.0,-8.0,-30.0,-25.0,-42.0,-34.0,-47.0,24.0
1705327307.2394195,21.0,13.0,-27.0,-16.0,-1.0,41.0,60.0,40.0
1705327307.2394195,21.0,112.0,32.0,13.0,10.0,10.0,-39.0,-71.0
1705327307.2394195,-35.0,-110.0,-49.0,-9.0,-8.0,-17.0,-2.0,28.0
1705327307.2394195,-6.0,42.0,-7.0,-13.0,0.0,8.0,-3.0,-7.0
1705327307.2594206,10.0,16.0,9.0,12.0,2.0,-17.0,-13.0,23.0
1705327307.2594206,-8.0,5.0,5.0,10.0,5.0,25.0,34.0,26.0
1705327307.2794192,20.0,-1.0,-10.0,-1.0,8.0,13.0,5.0,-14.0
1705327307.2794192,-7.0,-17.0,-16.0,-11.0,0.0,-10.0,-3.0,-6.0
1705327307.2794192,-10.0,-6.0,-6.0,1.0,-12.0,-14.0,-27.0,-23.0
1705327307.2794192,7.0,10.0,6.0,2.0,1.0,17.0,28.0,15.0
1705327307.2794192,4.0,-32.0,-21.0,-20.0,-2.0,-4.0,4.0,-1.0
1705327307.2794192,-1.0,54.0,20.0,14.0,7.0,1.0,-3.0,1.0
1705327307.2994184,-2.0,-24.0,-8.0,-2.0,-4.0,-7.0,-17.0,-17.0
1705327307.2994184,-13.0,6.0,8.0,10.0,5.0,17.0,25.0,14.0
1705327307.2994184,-6.0,-22.0,5.0,3.0,5.0,-4.0,2.0,12.0
1705327307.2994184,4.0,10.0,1.0,2.0,-6.0,-2.0,-12.0,-15.0
1705327307.3194196,-10.0,-31.0,-13.0,-9.0,-13.0,-4.0,-14.0,-16.0
1705327307.3194196,-3.0,-15.0,-3.0,-5.0,1.0,4.0,22.0,21.0
1705327307.3294172,4.0,18.0,-12.0,-11.0,8.0,2.0,-2.0,-3.0
1705327307.3294172,6.0,-11.0,-3.0,3.0,-2.0,-1.0,-5.0,-5.0
1705327307.3394213,-9.0,20.0,0.0,-13.0,-8.0,-6.0,-6.0,-5.0
1705327307.3394213,-1.0,-56.0,-18.0,3.0,-1.0,2.0,9.0,16.0
1705327307.3394213,2.0,26.0,10.0,18.0,0.0,0.0,-1.0,-4.0
1705327307.3394213,1.0,-53.0,-17.0,-14.0,-5.0,0.0,-3.0,-6.0
1705327307.3594697,-9.0,21.0,1.0,-1.0,-4.0,-8.0,-7.0,0.0
1705327307.3594697,0.0,14.0,2.0,-6.0,-4.0,4.0,6.0,3.0
1705327307.3694534,2.0,0.0,1.0,-5.0,-4.0,-2.0,-3.0,-5.0
1705327307.3694534,1.0,-3.0,-4.0,-4.0,-2.0,-3.0,0.0,2.0
1705327307.3794532,4.0,-28.0,-3.0,7.0,-1.0,-3.0,-6.0,-4.0
1705327307.3794532,5.0,12.0,-1.0,-4.0,-3.0,3.0,6.0,4.0
1705327307.3894203,-6.0,2.0,0.0,-1.0,0.0,-3.0,-2.0,-3.0
1705327307.3894203,2.0,-13.0,-2.0,-1.0,-2.0,-5.0,-3.0,1.0
1705327307.3994193,-1.0,1.0,-4.0,5.0,-1.0,1.0,-4.0,-3.0
1705327307.3994193,-5.0,-9.0,-4.0,-4.0,-2.0,0.0,3.0,1.0
1705327307.3994193,0.0,1.0,5.0,2.0,1.0,1.0,2.0,4.0
1705327307.3994193,-1.0,2.0,-1.0,3.0,0.0,-3.0,-4.0,-5.0
1705327307.4194205,-1.0,-2.0,2.0,6.0,3.0,-1.0,-5.0,-3.0
1705327307.4194205,-4.0,-15.0,-13.0,-13.0,-3.0,1.0,3.0,3.0
1705327307.429419,0.0,5.0,0.0,-2.0,-6.0,1.0,-5.0,-3.0
1705327307.429419,1.0,8.0,-4.0,-6.0,-6.0,-6.0,-3.0,-2.0
1705327307.459477,-6.0,-17.0,-4.0,1.0,-2.0,-5.0,0.0,-4.0
1705327307.459477,1.0,-5.0,1.0,-6.0,-6.0,0.0,-4.0,1.0
1705327307.459477,0.0,9.0,4.0,9.0,20.0,7.0,7.0,2.0
1705327307.459477,-1.0,2.0,3.0,3.0,1.0,6.0,3.0,-2.0
1705327307.459477,0.0,1.0,4.0,5.0,-1.0,-6.0,-3.0,-1.0
1705327307.459477,-3.0,-4.0,-14.0,-15.0,-5.0,2.0,3.0,1.0
1705327307.459477,1.0,1.0,7.0,-1.0,-9.0,-8.0,-5.0,-3.0
1705327307.459477,-3.0,-3.0,-3.0,-1.0,-1.0,0.0,-4.0,-1.0
1705327307.479481,2.0,9.0,7.0,2.0,2.0,-1.0,9.0,1.0
1705327307.479481,-1.0,-16.0,-8.0,-4.0,-2.0,-1.0,-4.0,0.0
1705327307.479481,-1.0,7.0,0.0,-4.0,-2.0,1.0,2.0,3.0
1705327307.479481,-1.0,-6.0,-2.0,4.0,3.0,-1.0,-3.0,2.0
1705327307.5094767,6.0,4.0,6.0,7.0,7.0,4.0,-7.0,1.0
1705327307.5094767,-8.0,3.0,-2.0,0.0,7.0,4.0,6.0,-1.0
1705327307.5094767,3.0,2.0,0.0,-3.0,1.0,-3.0,2.0,0.0
1705327307.5094767,3.0,0.0,0.0,-6.0,-6.0,-3.0,-3.0,-4.0
1705327307.519525,2.0,-1.0,-5.0,-4.0,-2.0,-1.0,-3.0,0.0
1705327307.519525,3.0,-2.0,2.0,0.0,22.0,8.0,2.0,1.0
1705327307.519525,-4.0,3.0,7.0,4.0,-23.0,-7.0,-3.0,-3.0
1705327307.519525,-4.0,-7.0,-7.0,-2.0,4.0,3.0,-3.0,-2.0
1705327307.5394773,-1.0,-3.0,-6.0,-6.0,-3.0,-2.0,-2.0,-1.0
1705327307.5394773,2.0,2.0,3.0,8.0,9.0,4.0,3.0,2.0
1705327307.5394773,-4.0,-2.0,4.0,2.0,10.0,6.0,-7.0,0.0
1705327307.5394773,0.0,-15.0,-6.0,-3.0,-5.0,1.0,-3.0,-2.0
1705327307.559477,-6.0,-1.0,-3.0,-3.0,-4.0,-3.0,-1.0,-3.0
1705327307.559477,2.0,-1.0,0.0,1.0,-8.0,-7.0,-4.0,1.0
1705327307.5694795,3.0,7.0,1.0,-1.0,2.0,-3.0,1.0,-1.0
1705327307.5694795,-2.0,0.0,0.0,-3.0,-5.0,-1.0,7.0,-1.0
1705327307.5857508,-2.0,-4.0,-3.0,-2.0,-1.0,1.0,-5.0,-2.0
1705327307.5857508,0.0,-7.0,-2.0,0.0,-7.0,-7.0,4.0,-1.0
1705327307.5877514,0.0,2.0,-2.0,0.0,1.0,0.0,-4.0,-2.0
1705327307.5877514,-1.0,1.0,2.0,1.0,2.0,-5.0,-8.0,-1.0
1705327307.6056988,-2.0,-4.0,-2.0,-1.0,2.0,6.0,6.0,1.0
1705327307.6056988,0.0,3.0,2.0,4.0,0.0,0.0,1.0,0.0
1705327307.6056988,2.0,-1.0,3.0,2.0,-2.0,1.0,-3.0,4.0
1705327307.6056988,0.0,0.0,-7.0,-2.0,2.0,1.0,0.0,-8.0
1705327307.6157403,-1.0,-1.0,-5.0,-2.0,-7.0,-4.0,-4.0,0.0
1705327307.6157403,-2.0,0.0,3.0,1.0,-3.0,-2.0,-3.0,-1.0
1705327307.6357017,2.0,1.0,-1.0,-2.0,-16.0,-5.0,-1.0,-2.0
1705327307.6357017,-1.0,3.0,2.0,1.0,4.0,-1.0,5.0,4.0
1705327307.6357017,-3.0,-1.0,-1.0,-4.0,1.0,1.0,0.0,0.0
1705327307.6357017,-1.0,-2.0,0.0,1.0,-8.0,-2.0,-9.0,-2.0
1705327307.6457343,-1.0,-3.0,-4.0,-3.0,6.0,-1.0,0.0,-2.0
1705327307.6457343,-1.0,4.0,1.0,-1.0,-4.0,-2.0,-1.0,1.0
1705327307.665701,-1.0,0.0,1.0,-2.0,-2.0,-2.0,-3.0,-4.0
1705327307.665701,-1.0,-1.0,-2.0,-2.0,-1.0,-4.0,-2.0,1.0
1705327307.665701,0.0,-1.0,-3.0,-1.0,0.0,-1.0,2.0,-3.0
1705327307.665701,1.0,0.0,1.0,-1.0,2.0,1.0,-4.0,0.0
1705327307.6757405,-2.0,1.0,1.0,-1.0,2.0,0.0,5.0,1.0
1705327307.6757405,-1.0,-1.0,1.0,0.0,-2.0,-3.0,-1.0,-1.0
1705327307.6857433,1.0,0.0,-2.0,0.0,2.0,3.0,-5.0,-3.0
1705327307.6857433,-5.0,-1.0,-3.0,-4.0,-2.0,-2.0,1.0,0.0
1705327307.7057056,-2.0,2.0,1.0,1.0,-1.0,-3.0,-5.0,-1.0
1705327307.7057056,-1.0,-1.0,-1.0,0.0,-4.0,0.0,3.0,0.0
1705327307.7057056,-1.0,-1.0,-1.0,0.0,0.0,-3.0,-1.0,1.0
1705327307.7057056,1.0,1.0,0.0,0.0,1.0,-1.0,-3.0,0.0
1705327307.7257018,1.0,0.0,-2.0,0.0,0.0,3.0,-1.0,-2.0
1705327307.7257018,0.0,-5.0,-9.0,-6.0,-4.0,-4.0,-3.0,0.0
1705327307.7257018,-1.0,1.0,-1.0,-2.0,2.0,0.0,4.0,-2.0
1705327307.7257018,-4.0,-1.0,-1.0,0.0,-4.0,-2.0,-2.0,-2.0
1705327307.7357013,-2.0,-3.0,-1.0,3.0,6.0,0.0,-1.0,0.0
1705327307.7357013,1.0,2.0,1.0,3.0,1.0,1.0,-1.0,-2.0
1705327307.745742,1.0,0.0,-2.0,-1.0,1.0,-1.0,-3.0,-1.0
1705327307.745742,-1.0,-1.0,-3.0,-4.0,-4.0,-2.0,-1.0,-1.0
1705327307.7657068,-2.0,-3.0,-2.0,-2.0,-5.0,-4.0,-5.0,-1.0
1705327307.7657068,0.0,1.0,2.0,-2.0,2.0,0.0,1.0,0.0
1705327307.7657068,-2.0,-1.0,-2.0,0.0,1.0,-3.0,-12.0,-1.0
1705327307.7657068,-2.0,-4.0,-3.0,-2.0,-3.0,-1.0,3.0,-1.0
1705327307.785701,-2.0,1.0,-1.0,-1.0,-2.0,-2.0,-1.0,-1.0
1705327307.785701,0.0,-1.0,1.0,1.0,1.0,-1.0,-2.0,0.0
1705327307.785701,-2.0,-1.0,-1.0,1.0,3.0,0.0,3.0,-3.0
1705327307.785701,0.0,3.0,1.0,0.0,0.0,-1.0,-8.0,-1.0
1705327307.795702,0.0,-2.0,-1.0,0.0,-3.0,0.0,2.0,-2.0
1705327307.795702,-3.0,0.0,-1.0,-1.0,-5.0,-1.0,-2.0,-2.0
1705327307.8057015,0.0,-2.0,-2.0,-7.0,-7.0,-7.0,-11.0,0.0
1705327307.8057015,-1.0,-5.0,1.0,4.0,6.0,4.0,6.0,1.0
1705327307.825702,1.0,0.0,1.0,6.0,9.0,6.0,7.0,1.0
1705327307.825702,1.0,0.0,-1.0,1.0,2.0,-4.0,-5.0,-1.0
1705327307.825702,0.0,-2.0,-4.0,-3.0,-1.0,1.0,8.0,-1.0
1705327307.825702,2.0,1.0,-3.0,-8.0,-11.0,-10.0,-10.0,-2.0
1705327307.8457034,-4.0,-4.0,-4.0,-9.0,-12.0,-6.0,-3.0,-3.0
1705327307.8457034,-2.0,-3.0,0.0,1.0,12.0,6.0,5.0,1.0
1705327307.8457034,0.0,-1.0,-2.0,-3.0,-15.0,2.0,-1.0,-2.0
1705327307.8457034,0.0,0.0,1.0,7.0,5.0,0.0,2.0,-1.0
1705327307.8557358,0.0,1.0,0.0,4.0,7.0,-1.0,-2.0,-1.0
1705327307.8557358,-1.0,3.0,2.0,-3.0,-6.0,-1.0,-2.0,0.0
1705327307.86574,-3.0,-3.0,-2.0,2.0,1.0,-4.0,7.0,-1.0
1705327307.86574,-1.0,1.0,-2.0,-4.0,-9.0,-8.0,-7.0,-3.0
1705327307.8857014,-1.0,-3.0,-2.0,-6.0,-7.0,-3.0,-11.0,-1.0
1705327307.8857014,-2.0,-3.0,-2.0,4.0,11.0,9.0,12.0,0.0
1705327307.8857014,0.0,-2.0,0.0,1.0,3.0,1.0,0.0,0.0
1705327307.8857014,-1.0,-1.0,-1.0,0.0,-5.0,1.0,1.0,0.0
1705327307.9057446,-1.0,-2.0,-1.0,-1.0,-4.0,-6.0,-7.0,-1.0
1705327307.9057446,-1.0,-1.0,-2.0,-2.0,10.0,0.0,-2.0,-2.0
1705327307.9057446,-2.0,-1.0,0.0,0.0,-5.0,-3.0,3.0,0.0
1705327307.9057446,0.0,-1.0,-1.0,-1.0,4.0,0.0,-6.0,-3.0
1705327307.9257011,-1.0,-2.0,-2.0,-6.0,-5.0,-2.0,2.0,-3.0
1705327307.9257011,-1.0,-2.0,-2.0,-4.0,-6.0,-6.0,-3.0,-1.0
1705327307.9257011,-1.0,0.0,-2.0,0.0,3.0,-1.0,0.0,-1.0
1705327307.9257011,1.0,0.0,1.0,-3.0,-3.0,-6.0,-6.0,0.0
1705327307.945705,-1.0,-2.0,2.0,3.0,6.0,7.0,5.0,-1.0
1705327307.945705,-1.0,-3.0,-3.0,2.0,-2.0,-5.0,-1.0,0.0
1705327307.945705,-1.0,0.0,-2.0,-6.0,-3.0,-2.0,-2.0,-2.0
1705327307.945705,-2.0,-1.0,2.0,0.0,-3.0,0.0,2.0,1.0
1705327307.9657013,-2.0,0.0,0.0,3.0,2.0,0.0,-4.0,-1.0
1705327307.9657013,0.0,-2.0,-1.0,-3.0,-5.0,0.0,0.0,-1.0
1705327307.9657013,-2.0,-1.0,-1.0,-1.0,1.0,-4.0,-16.0,0.0
1705327307.9657013,-1.0,0.0,1.0,2.0,5.0,8.0,19.0,-2.0
1705327307.9757028,-1.0,0.0,-4.0,-1.0,-3.0,-4.0,-3.0,-2.0
1705327307.9757028,1.0,0.0,-1.0,-4.0,-10.0,-5.0,-2.0,-2.0
1705327307.9857037,-2.0,-1.0,-1.0,-4.0,-2.0,1.0,2.0,0.0
1705327307.9857037,1.0,-1.0,-1.0,-3.0,-1.0,-2.0,-5.0,0.0
1705327308.0057018,-2.0,0.0,-1.0,0.0,8.0,0.0,-1.0,0.0
1705327308.0057018,-1.0,-4.0,-2.0,1.0,-20.0,-2.0,-4.0,-3.0
1705327308.0057018,0.0,0.0,-1.0,2.0,9.0,1.0,-3.0,1.0
1705327308.0057018,0.0,-3.0,-2.0,-1.0,-3.0,-1.0,1.0,1.0
1705327308.025702,-1.0,0.0,0.0,-6.0,-7.0,-4.0,1.0,0.0
1705327308.025702,-1.0,-3.0,-4.0,-4.0,-4.0,-3.0,-2.0,-3.0
