1705326894.903136,-2.0,39.0,4.0,-3.0,-3.0,-1.0,-1.0,5.0
1705326894.903136,14.0,-14.0,-2.0,-5.0,-5.0,-3.0,4.0,16.0
1705326894.903136,-19.0,-14.0,1.0,10.0,2.0,1.0,-11.0,-9.0
1705326894.903136,-9.0,2.0,-19.0,-7.0,-1.0,-3.0,-8.0,-18.0
1705326894.9131355,7.0,-42.0,-21.0,1.0,-2.0,0.0,1.0,3.0
1705326894.9131355,-1.0,-9.0,8.0,-1.0,-3.0,0.0,5.0,11.0
1705326894.9231367,1.0,-60.0,-1.0,-9.0,-4.0,-1.0,5.0,6.0
1705326894.9231367,2.0,20.0,10.0,-4.0,2.0,0.0,-2.0,6.0
1705326894.9531333,-1.0,-12.0,-3.0,5.0,7.0,0.0,-3.0,-4.0
1705326894.9531333,-13.0,10.0,-2.0,6.0,-1.0,-4.0,-6.0,-6.0
1705326894.9531333,3.0,-2.0,-19.0,-2.0,-3.0,-6.0,-6.0,-4.0
1705326894.9531333,-4.0,-4.0,-21.0,-2.0,-6.0,-2.0,0.0,1.0
1705326894.963137,5.0,-60.0,-11.0,-11.0,-6.0,-3.0,-3.0,-5.0
1705326894.963137,-1.0,13.0,7.0,6.0,4.0,3.0,-1.0,2.0
1705326894.963137,3.0,30.0,4.0,-9.0,-1.0,-2.0,-2.0,2.0
1705326894.963137,10.0,19.0,24.0,12.0,3.0,3.0,5.0,11.0
1705326894.9731383,-9.0,12.0,-2.0,-6.0,-5.0,-7.0,-1.0,-10.0
1705326894.9731383,-7.0,-15.0,-12.0,-2.0,-4.0,-4.0,-11.0,-5.0
1705326895.0031347,3.0,-21.0,9.0,5.0,0.0,4.0,11.0,12.0
1705326895.0031347,-1.0,-24.0,-20.0,-3.0,-2.0,-1.0,-11.0,15.0
1705326895.0031347,3.0,32.0,15.0,-6.0,-7.0,-6.0,-5.0,1.0
1705326895.0031347,-3.0,60.0,34.0,1.0,0.0,-1.0,-2.0,-7.0
1705326895.0031347,17.0,-2.0,-8.0,7.0,5.0,5.0,8.0,14.0
1705326895.0031347,-18.0,-32.0,1.0,-1.0,-2.0,0.0,5.0,-2.0
1705326895.0231369,-1.0,60.0,19.0,0.0,-5.0,-1.0,-1.0,-1.0
1705326895.0231369,3.0,21.0,-6.0,0.0,-1.0,-1.0,1.0,9.0
1705326895.0231369,1.0,18.0,7.0,3.0,2.0,-2.0,-1.0,-14.0
1705326895.0231369,-2.0,-26.0,-2.0,-7.0,-2.0,-5.0,-4.0,-2.0
1705326895.0531337,-3.0,-2.0,-1.0,8.0,3.0,3.0,-8.0,-2.0
1705326895.0531337,0.0,-15.0,4.0,1.0,2.0,2.0,3.0,0.0
1705326895.0531337,-4.0,12.0,-9.0,2.0,-1.0,-1.0,-2.0,-4.0
1705326895.0531337,4.0,-17.0,9.0,-8.0,-2.0,-1.0,3.0,-6.0
1705326895.0631337,-6.0,-2.0,-7.0,0.0,-5.0,0.0,1.0,-1.0
1705326895.0631337,-2.0,-29.0,6.0,-9.0,-10.0,-7.0,-8.0,-8.0
1705326895.0631337,-1.0,-29.0,-21.0,-7.0,2.0,0.0,-4.0,1.0
1705326895.0631337,-6.0,4.0,-26.0,2.0,-1.0,-4.0,0.0,2.0
1705326895.083137,9.0,-10.0,22.0,4.0,3.0,0.0,-1.0,-4.0
1705326895.083137,-6.0,-32.0,-20.0,14.0,-1.0,-2.0,-4.0,-7.0
1705326895.083137,-2.0,-37.0,9.0,-14.0,-4.0,-1.0,-3.0,0.0
1705326895.083137,-8.0,-68.0,-29.0,-4.0,-4.0,-3.0,-4.0,-5.0
1705326895.0931332,-6.0,-16.0,-14.0,0.0,0.0,-1.0,0.0,-9.0
1705326895.0931332,-1.0,12.0,0.0,2.0,-1.0,0.0,2.0,3.0
1705326895.1031346,-11.0,0.0,0.0,-5.0,-8.0,-7.0,-12.0,-13.0
1705326895.1031346,9.0,9.0,3.0,-1.0,6.0,4.0,11.0,7.0
1705326895.1331327,-4.0,-28.0,-10.0,2.0,0.0,-3.0,-12.0,-8.0
1705326895.1331327,-5.0,-3.0,3.0,-7.0,-2.0,1.0,2.0,-3.0
1705326895.1331327,6.0,-17.0,-16.0,-8.0,-6.0,-2.0,1.0,5.0
1705326895.1331327,2.0,20.0,13.0,-3.0,-1.0,-2.0,0.0,-10.0
1705326895.143136,-6.0,-8.0,-18.0,-17.0,-1.0,-2.0,2.0,-2.0
1705326895.143136,-1.0,11.0,-17.0,0.0,2.0,1.0,-4.0,1.0
1705326895.143136,12.0,7.0,43.0,7.0,1.0,2.0,5.0,15.0
1705326895.143136,-1.0,1.0,10.0,10.0,1.0,1.0,1.0,-12.0
1705326895.1531343,-3.0,18.0,-29.0,-4.0,1.0,-1.0,-6.0,-14.0
1705326895.1531343,-4.0,-13.0,37.0,-1.0,-2.0,0.0,-3.0,8.0
1705326895.183133,3.0,-1.0,-9.0,11.0,2.0,-1.0,9.0,11.0
1705326895.183133,-3.0,9.0,0.0,-22.0,-9.0,-6.0,-13.0,-25.0
1705326895.183133,-3.0,-9.0,-3.0,-4.0,2.0,-4.0,-11.0,8.0
1705326895.183133,5.0,13.0,2.0,4.0,3.0,1.0,4.0,-5.0
1705326895.183133,-9.0,24.0,-1.0,0.0,-3.0,-3.0,-4.0,-3.0
1705326895.183133,7.0,-22.0,20.0,11.0,0.0,2.0,6.0,10.0
1705326895.223132,-16.0,13.0,-7.0,-1.0,-5.0,2.0,4.0,4.0
1705326895.223132,9.0,5.0,-7.0,-13.0,-2.0,-2.0,-1.0,3.0
1705326895.223132,-6.0,9.0,-1.0,10.0,3.0,4.0,-3.0,1.0
1705326895.223132,2.0,-24.0,-19.0,-6.0,-1.0,-3.0,-3.0,8.0
1705326895.223132,4.0,5.0,6.0,3.0,0.0,0.0,3.0,-7.0
1705326895.223132,-2.0,10.0,9.0,8.0,1.0,2.0,0.0,2.0
1705326895.223132,-7.0,-57.0,-21.0,-15.0,-4.0,-3.0,1.0,-4.0
1705326895.223132,8.0,18.0,6.0,7.0,2.0,5.0,1.0,2.0
1705326895.2431343,-3.0,-7.0,4.0,0.0,1.0,-1.0,3.0,33.0
1705326895.2431343,3.0,-14.0,-12.0,-11.0,-3.0,-5.0,-9.0,-33.0
1705326895.2431343,2.0,-5.0,-11.0,9.0,2.0,0.0,-8.0,-31.0
1705326895.2431343,-4.0,84.0,38.0,0.0,2.0,-2.0,0.0,17.0
1705326895.2677631,7.0,-6.0,14.0,-4.0,-6.0,-2.0,7.0,3.0
1705326895.2677631,-9.0,32.0,-12.0,1.0,-1.0,2.0,7.0,14.0
1705326895.2697635,-1.0,9.0,-14.0,1.0,0.0,-1.0,0.0,-3.0
1705326895.2697635,-1.0,-12.0,-10.0,-3.0,1.0,0.0,-2.0,0.0
1705326895.2959557,3.0,12.0,38.0,14.0,1.0,1.0,-1.0,-7.0
1705326895.2959557,-2.0,-16.0,-25.0,-7.0,3.0,-1.0,1.0,8.0
1705326895.2959557,-5.0,11.0,6.0,-16.0,-8.0,-4.0,-5.0,-10.0
1705326895.2959557,0.0,-4.0,-4.0,7.0,2.0,6.0,5.0,8.0
1705326895.2959557,4.0,-8.0,-15.0,-2.0,3.0,0.0,-2.0,0.0
1705326895.2959557,-19.0,1.0,-1.0,1.0,-5.0,-4.0,-4.0,-29.0
1705326895.305958,-4.0,10.0,-25.0,-8.0,-5.0,-4.0,-2.0,5.0
1705326895.305958,9.0,11.0,-11.0,-7.0,-6.0,-3.0,-16.0,-1.0
1705326895.3359551,-29.0,-13.0,-7.0,-3.0,-1.0,-2.0,2.0,-14.0
1705326895.3359551,-2.0,-4.0,6.0,1.0,-1.0,-1.0,2.0,5.0
1705326895.3359551,1.0,10.0,3.0,7.0,5.0,0.0,-9.0,-19.0
1705326895.3359551,-3.0,22.0,-4.0,-1.0,-3.0,-3.0,8.0,1.0
1705326895.3459573,12.0,-24.0,-21.0,0.0,0.0,2.0,1.0,6.0
1705326895.3459573,-2.0,-3.0,19.0,-2.0,-1.0,-1.0,-1.0,5.0
1705326895.3459573,-6.0,-15.0,1.0,-2.0,-3.0,-1.0,2.0,0.0
1705326895.3459573,4.0,15.0,4.0,-2.0,0.0,2.0,-2.0,0.0
1705326895.355961,-3.0,4.0,-2.0,9.0,-2.0,-2.0,-3.0,-19.0
1705326895.355961,-4.0,10.0,-6.0,1.0,2.0,4.0,1.0,0.0
1705326895.3759558,-1.0,-52.0,17.0,4.0,3.0,1.0,2.0,6.0
1705326895.3759558,2.0,-50.0,3.0,-4.0,0.0,0.0,-4.0,-4.0
1705326895.3859575,-1.0,-36.0,-15.0,-12.0,-6.0,-1.0,3.0,2.0
1705326895.3859575,7.0,-11.0,-12.0,-1.0,-3.0,0.0,4.0,8.0
1705326895.3859575,-8.0,30.0,14.0,2.0,2.0,-5.0,-17.0,-16.0
1705326895.3859575,-6.0,45.0,18.0,11.0,4.0,0.0,10.0,-19.0
1705326895.395955,1.0,20.0,-22.0,-13.0,-8.0,-4.0,0.0,-19.0
1705326895.395955,2.0,-23.0,-5.0,0.0,-2.0,-3.0,-5.0,21.0
1705326895.4059575,8.0,22.0,4.0,-4.0,1.0,2.0,3.0,9.0
1705326895.4059575,-2.0,-2.0,13.0,5.0,-2.0,-1.0,-3.0,-3.0
1705326895.415968,20.0,5.0,-2.0,-1.0,0.0,-1.0,2.0,16.0
1705326895.415968,-8.0,-19.0,0.0,3.0,0.0,3.0,6.0,-6.0
1705326895.435954,3.0,37.0,25.0,-2.0,-3.0,-4.0,-11.0,-19.0
1705326895.435954,-8.0,-7.0,-25.0,-11.0,-4.0,-1.0,0.0,7.0
1705326895.445956,3.0,-1.0,7.0,-1.0,-3.0,-3.0,-2.0,-3.0
1705326895.445956,1.0,-35.0,-17.0,5.0,3.0,0.0,1.0,3.0
1705326895.445956,-9.0,-21.0,-24.0,-17.0,-8.0,-3.0,1.0,2.0
1705326895.445956,-9.0,-23.0,-52.0,-11.0,-3.0,-2.0,1.0,7.0
1705326895.455957,-7.0,-6.0,30.0,17.0,9.0,3.0,-13.0,-11.0
1705326895.455957,-1.0,17.0,3.0,-4.0,-4.0,-2.0,2.0,2.0
1705326895.4659593,4.0,-39.0,-17.0,-1.0,-4.0,-4.0,-3.0,-5.0
1705326895.4659593,-2.0,4.0,3.0,-2.0,-4.0,0.0,-1.0,-2.0
1705326895.4759564,-4.0,11.0,2.0,-7.0,-3.0,1.0,-1.0,2.0
1705326895.4759564,8.0,-5.0,-11.0,9.0,1.0,-1.0,4.0,9.0
1705326895.485956,8.0,21.0,-12.0,-13.0,-1.0,1.0,-8.0,-36.0
1705326895.485956,-16.0,9.0,8.0,1.0,0.0,-3.0,-2.0,4.0
1705326895.505962,3.0,-7.0,14.0,1.0,2.0,2.0,0.0,2.0
1705326895.505962,5.0,27.0,24.0,5.0,-2.0,-3.0,-3.0,8.0
1705326895.505962,-3.0,-21.0,-6.0,6.0,2.0,3.0,16.0,18.0
1705326895.505962,3.0,-36.0,-14.0,1.0,-1.0,-2.0,-8.0,-15.0
1705326895.5159595,-4.0,-1.0,17.0,1.0,0.0,0.0,-3.0,2.0
1705326895.5159595,-4.0,-19.0,-25.0,-12.0,-3.0,-3.0,-1.0,-11.0
1705326895.5259557,-5.0,43.0,47.0,0.0,-1.0,-3.0,0.0,4.0
1705326895.5259557,1.0,14.0,21.0,-2.0,-1.0,0.0,1.0,7.0
1705326895.535958,-1.0,9.0,-33.0,1.0,0.0,-1.0,1.0,5.0
1705326895.535958,6.0,0.0,8.0,3.0,-3.0,0.0,-4.0,-4.0
1705326895.5459557,3.0,-22.0,-4.0,2.0,0.0,0.0,0.0,0.0
1705326895.5459557,-1.0,6.0,-2.0,-15.0,-6.0,-4.0,1.0,13.0
1705326895.5659583,-1.0,23.0,22.0,16.0,3.0,-1.0,2.0,-11.0
1705326895.5659583,-1.0,33.0,-11.0,-9.0,-3.0,-2.0,-5.0,-8.0
1705326895.5659583,0.0,-8.0,-7.0,12.0,2.0,1.0,4.0,14.0
1705326895.5659583,4.0,11.0,0.0,2.0,-1.0,-2.0,-2.0,-1.0
1705326895.585956,-1.0,-23.0,-13.0,-9.0,-3.0,-3.0,-3.0,16.0
1705326895.585956,3.0,38.0,25.0,1.0,-1.0,-1.0,2.0,7.0
1705326895.585956,-5.0,-15.0,-10.0,-2.0,-2.0,-1.0,-2.0,8.0
1705326895.585956,-3.0,-5.0,0.0,4.0,3.0,0.0,-10.0,-20.0
1705326895.5959601,-1.0,20.0,2.0,4.0,2.0,-1.0,-5.0,-11.0
1705326895.5959601,-5.0,-25.0,-10.0,-3.0,0.0,1.0,-7.0,-9.0
1705326895.6059573,-5.0,20.0,12.0,-5.0,-5.0,-5.0,4.0,17.0
1705326895.6059573,-5.0,-44.0,-1.0,0.0,-2.0,-1.0,5.0,1.0
1705326895.6259582,8.0,-10.0,-2.0,-9.0,-5.0,-3.0,-1.0,1.0
1705326895.6259582,-32.0,10.0,0.0,-9.0,0.0,-1.0,-12.0,-19.0
1705326895.6259582,2.0,-2.0,-11.0,4.0,1.0,2.0,4.0,-4.0
1705326895.6259582,5.0,12.0,1.0,12.0,4.0,0.0,1.0,1.0
1705326895.6459563,-3.0,16.0,20.0,0.0,-2.0,-3.0,-2.0,1.0
1705326895.6459563,9.0,30.0,14.0,-5.0,2.0,0.0,1.0,-17.0
1705326895.6459563,-7.0,0.0,5.0,-4.0,-8.0,-7.0,-4.0,-3.0
1705326895.6459563,0.0,-5.0,-4.0,2.0,2.0,3.0,0.0,-3.0
1705326895.655958,2.0,15.0,-5.0,-4.0,-2.0,-2.0,4.0,9.0
1705326895.655958,-3.0,-35.0,-17.0,-5.0,-3.0,-5.0,-2.0,-1.0
1705326895.6659555,4.0,18.0,12.0,6.0,2.0,0.0,-5.0,12.0
1705326895.6659555,6.0,21.0,4.0,-1.0,-2.0,0.0,2.0,-9.0
1705326895.6859586,-7.0,-11.0,-12.0,-6.0,-1.0,-2.0,-8.0,-14.0
1705326895.6859586,2.0,15.0,7.0,2.0,0.0,0.0,0.0,5.0
1705326895.6859586,-8.0,9.0,2.0,-5.0,-3.0,-2.0,1.0,8.0
1705326895.6859586,8.0,-14.0,-12.0,-5.0,-3.0,-2.0,0.0,1.0
1705326895.705956,-1.0,-14.0,-14.0,-1.0,-1.0,0.0,6.0,4.0
1705326895.705956,-3.0,9.0,21.0,3.0,0.0,1.0,-3.0,-1.0
1705326895.705956,-3.0,-22.0,-31.0,2.0,0.0,-1.0,6.0,-18.0
1705326895.705956,-3.0,-7.0,-7.0,2.0,0.0,2.0,2.0,11.0
1705326895.735955,-1.0,23.0,3.0,-2.0,-3.0,-2.0,-1.0,-3.0
1705326895.735955,5.0,-7.0,-7.0,-3.0,-2.0,-4.0,-4.0,5.0
1705326895.735955,1.0,8.0,-1.0,-2.0,3.0,3.0,0.0,2.0
1705326895.735955,-2.0,0.0,3.0,7.0,1.0,-2.0,-1.0,-2.0
1705326895.7459612,-5.0,-5.0,-9.0,-6.0,-7.0,-3.0,-2.0,-7.0
1705326895.7459612,0.0,-27.0,-6.0,-9.0,-1.0,0.0,4.0,6.0
1705326895.7459612,2.0,0.0,9.0,17.0,4.0,0.0,-2.0,-3.0
1705326895.7459612,0.0,19.0,4.0,-15.0,-2.0,-1.0,0.0,-2.0
1705326895.7659595,-4.0,-43.0,4.0,8.0,3.0,0.0,-1.0,7.0
1705326895.7659595,5.0,-4.0,0.0,-4.0,-1.0,-1.0,-2.0,2.0
1705326895.7823458,1.0,-24.0,-12.0,-6.0,1.0,2.0,0.0,-5.0
1705326895.7823458,-1.0,4.0,12.0,6.0,0.0,-2.0,-4.0,-8.0
1705326895.7923458,-2.0,5.0,1.0,-4.0,-2.0,-2.0,6.0,12.0
1705326895.7923458,2.0,18.0,-8.0,-2.0,-4.0,-3.0,0.0,-6.0
1705326895.7943454,-4.0,-28.0,6.0,-5.0,1.0,-1.0,-3.0,-5.0
1705326895.7943454,-5.0,-8.0,-6.0,2.0,-1.0,-2.0,0.0,2.0
1705326895.8073432,5.0,-23.0,-17.0,-6.0,-2.0,-1.0,2.0,8.0
1705326895.8073432,0.0,-18.0,-3.0,4.0,-2.0,-2.0,-1.0,-5.0
1705326895.8087811,-1.0,-10.0,-7.0,-4.0,-1.0,-1.0,-2.0,15.0
1705326895.8087811,-1.0,43.0,13.0,-2.0,1.0,0.0,-3.0,-27.0
1705326895.8287816,3.0,-5.0,0.0,0.0,-2.0,-4.0,2.0,13.0
1705326895.8287816,-12.0,-49.0,5.0,0.0,1.0,-1.0,-6.0,-3.0
1705326895.8287816,-1.0,1.0,5.0,-1.0,-3.0,-1.0,-1.0,-20.0
1705326895.8287816,1.0,-8.0,0.0,-1.0,0.0,2.0,-1.0,5.0
1705326895.8387902,-2.0,-6.0,10.0,-1.0,-1.0,-3.0,2.0,2.0
1705326895.8387902,6.0,17.0,-1.0,2.0,4.0,4.0,5.0,6.0
1705326895.848785,-2.0,44.0,0.0,-6.0,-4.0,-2.0,-6.0,-5.0
1705326895.848785,-6.0,-38.0,7.0,3.0,-2.0,-2.0,0.0,3.0
1705326895.8587842,-4.0,10.0,-6.0,2.0,0.0,2.0,-5.0,-15.0
1705326895.8587842,-3.0,6.0,-7.0,-9.0,-4.0,-4.0,-1.0,2.0
1705326895.868783,-1.0,-12.0,17.0,2.0,-1.0,0.0,-2.0,-3.0
1705326895.868783,0.0,-13.0,-2.0,0.0,1.0,-2.0,1.0,3.0
1705326895.8887823,1.0,16.0,9.0,2.0,3.0,0.0,-3.0,-2.0
1705326895.8887823,1.0,-10.0,-6.0,-5.0,-2.0,-3.0,-5.0,-6.0
1705326895.8887823,2.0,9.0,-1.0,-1.0,-2.0,-4.0,0.0,1.0
1705326895.8887823,1.0,1.0,4.0,0.0,-1.0,-1.0,0.0,7.0
1705326895.8987823,-5.0,-8.0,-7.0,-3.0,-1.0,0.0,0.0,-2.0
1705326895.8987823,-5.0,6.0,-2.0,5.0,1.0,0.0,-2.0,-8.0
1705326895.9187822,5.0,-4.0,4.0,0.0,-1.0,-4.0,3.0,5.0
1705326895.9187822,-1.0,-24.0,-7.0,-4.0,-4.0,-2.0,-4.0,-2.0
1705326895.9187822,0.0,-2.0,-8.0,-7.0,-2.0,0.0,-1.0,-3.0
1705326895.9187822,-1.0,-4.0,-10.0,7.0,3.0,1.0,0.0,5.0
1705326895.9287817,1.0,12.0,12.0,1.0,1.0,2.0,1.0,5.0
1705326895.9287817,-2.0,-1.0,-9.0,-17.0,-7.0,-4.0,1.0,0.0
1705326895.9587822,8.0,22.0,9.0,4.0,2.0,1.0,-1.0,-7.0
1705326895.9587822,-1.0,-26.0,-10.0,2.0,-3.0,-1.0,-2.0,0.0
1705326895.9587822,0.0,19.0,-3.0,2.0,1.0,-1.0,2.0,-7.0
1705326895.9587822,3.0,13.0,4.0,9.0,5.0,3.0,-1.0,-1.0
1705326895.9587822,-6.0,-20.0,-15.0,-15.0,-7.0,-4.0,-3.0,0.0
1705326895.9587822,2.0,26.0,13.0,3.0,2.0,-2.0,0.0,1.0
1705326895.9687822,-3.0,4.0,-1.0,-3.0,-3.0,-1.0,-1.0,0.0
1705326895.9687822,3.0,2.0,-3.0,2.0,-1.0,1.0,5.0,13.0
1705326895.978783,-1.0,40.0,-4.0,-1.0,-1.0,0.0,-1.0,-7.0
1705326895.978783,1.0,-19.0,17.0,6.0,1.0,0.0,0.0,1.0
1705326895.9887834,2.0,-8.0,-12.0,-4.0,-2.0,-2.0,-5.0,-3.0
1705326895.9887834,-9.0,-6.0,-7.0,-10.0,-5.0,-5.0,-4.0,-4.0
1705326896.0187821,-4.0,-13.0,-19.0,-7.0,-1.0,2.0,3.0,4.0
1705326896.0187821,5.0,3.0,4.0,-3.0,-2.0,0.0,3.0,3.0
1705326896.0187821,-2.0,-12.0,-4.0,2.0,-1.0,1.0,-3.0,-5.0
1705326896.0187821,1.0,31.0,18.0,7.0,2.0,0.0,-4.0,6.0
1705326896.0287836,-4.0,-8.0,10.0,0.0,-3.0,-4.0,0.0,-14.0
1705326896.0287836,-8.0,-11.0,4.0,-3.0,-2.0,-2.0,-2.0,-10.0
1705326896.0287836,-3.0,-12.0,-8.0,-5.0,0.0,-1.0,-5.0,-3.0
1705326896.0287836,4.0,24.0,3.0,3.0,0.0,-2.0,-2.0,-1.0
1705326896.0387836,0.0,-11.0,0.0,-1.0,0.0,-1.0,-4.0,-1.0
1705326896.0387836,2.0,7.0,-12.0,-7.0,-4.0,0.0,-1.0,7.0
1705326896.0487826,2.0,20.0,0.0,-4.0,-3.0,0.0,-1.0,8.0
1705326896.0487826,-2.0,-14.0,-14.0,-2.0,2.0,3.0,8.0,-8.0
1705326896.0687854,-4.0,-11.0,4.0,5.0,-1.0,-1.0,-14.0,9.0
1705326896.0687854,-2.0,-2.0,-4.0,3.0,-2.0,-2.0,-2.0,-12.0
1705326896.0687854,-9.0,29.0,29.0,1.0,-1.0,-1.0,-1.0,-3.0
1705326896.0687854,-1.0,-29.0,-4.0,-4.0,0.0,-1.0,-2.0,3.0
1705326896.078788,2.0,8.0,2.0,1.0,0.0,0.0,2.0,-4.0
1705326896.078788,3.0,-12.0,-13.0,-5.0,-4.0,1.0,0.0,2.0
1705326896.0887833,0.0,-2.0,10.0,-1.0,-1.0,-2.0,-1.0,2.0
1705326896.0887833,-2.0,3.0,-7.0,-3.0,-3.0,-3.0,-3.0,-4.0
1705326896.1187828,0.0,-1.0,3.0,5.0,-1.0,-1.0,2.0,3.0
1705326896.1187828,2.0,16.0,-2.0,-9.0,-2.0,0.0,-2.0,-4.0
1705326896.1187828,-4.0,-16.0,-16.0,-3.0,-1.0,-2.0,4.0,1.0
1705326896.1187828,-4.0,-13.0,-9.0,3.0,-3.0,-2.0,-6.0,2.0
1705326896.1287837,-7.0,-22.0,-16.0,-4.0,0.0,-3.0,-2.0,-5.0
1705326896.1287837,6.0,6.0,7.0,4.0,0.0,1.0,0.0,-4.0
1705326896.1287837,0.0,-10.0,-12.0,-1.0,0.0,2.0,2.0,2.0
1705326896.1287837,-5.0,-9.0,0.0,-6.0,-4.0,-3.0,-3.0,-3.0
1705326896.1587818,-4.0,-1.0,6.0,-2.0,-4.0,-2.0,0.0,4.0
1705326896.1587818,-4.0,13.0,17.0,4.0,0.0,-3.0,-4.0,-1.0
1705326896.1587818,0.0,-20.0,-11.0,7.0,3.0,-3.0,-6.0,-1.0
1705326896.1587818,2.0,0.0,-8.0,-3.0,-3.0,-1.0,-1.0,-3.0
1705326896.1587818,-3.0,-20.0,5.0,1.0,-4.0,0.0,-1.0,-3.0
1705326896.1587818,-12.0,7.0,-38.0,-18.0,-8.0,-4.0,-2.0,-1.0
1705326896.1687853,7.0,10.0,3.0,1.0,-1.0,-2.0,-3.0,-7.0
1705326896.1687853,-6.0,-17.0,-5.0,2.0,-1.0,1.0,1.0,2.0
1705326896.1887836,1.0,13.0,10.0,-4.0,-2.0,0.0,0.0,-7.0
1705326896.1887836,-2.0,1.0,-3.0,2.0,2.0,-1.0,1.0,2.0
1705326896.1887836,-1.0,-2.0,-4.0,-2.0,-2.0,-3.0,-4.0,-1.0
1705326896.1887836,-1.0,10.0,-11.0,-3.0,0.0,-3.0,-2.0,5.0
1705326896.1987824,-3.0,10.0,1.0,-2.0,-1.0,-1.0,-1.0,-15.0
1705326896.1987824,12.0,8.0,14.0,8.0,5.0,4.0,3.0,9.0
1705326896.2087831,-7.0,-10.0,-12.0,-5.0,-4.0,-3.0,2.0,3.0
1705326896.2087831,8.0,8.0,14.0,1.0,1.0,0.0,-2.0,-1.0
1705326896.2187867,-4.0,6.0,1.0,3.0,1.0,-3.0,1.0,-3.0
1705326896.2187867,-1.0,-30.0,-8.0,-7.0,0.0,-2.0,-1.0,8.0
1705326896.2287812,-9.0,-21.0,-8.0,1.0,-2.0,-1.0,0.0,-1.0
1705326896.2287812,7.0,4.0,0.0,-6.0,-4.0,-7.0,-5.0,-8.0
1705326896.2487836,1.0,4.0,-19.0,-2.0,2.0,2.0,-1.0,5.0
1705326896.2487836,-2.0,15.0,13.0,3.0,-1.0,-1.0,-1.0,-4.0
1705326896.2487836,2.0,3.0,6.0,-3.0,1.0,4.0,3.0,16.0
1705326896.2487836,-8.0,5.0,-22.0,-4.0,-3.0,-2.0,-5.0,-28.0
1705326896.258785,-13.0,-33.0,-28.0,-10.0,-5.0,-7.0,-5.0,7.0
1705326896.258785,-4.0,12.0,7.0,-3.0,-3.0,-5.0,-3.0,-3.0
1705326896.268785,2.0,-7.0,3.0,0.0,-1.0,-1.0,-3.0,-7.0
1705326896.268785,1.0,3.0,10.0,3.0,3.0,0.0,4.0,24.0
1705326896.2987819,1.0,-11.0,4.0,5.0,1.0,-2.0,-5.0,-27.0
1705326896.2987819,2.0,18.0,-6.0,-2.0,0.0,0.0,0.0,-5.0
1705326896.2987819,-3.0,23.0,16.0,2.0,-2.0,-2.0,-1.0,4.0
1705326896.2987819,-5.0,-11.0,0.0,2.0,1.0,4.0,1.0,3.0
1705326896.3251693,15.0,-4.0,5.0,0.0,0.0,0.0,1.0,12.0
1705326896.3251693,-5.0,-21.0,1.0,-1.0,-5.0,-3.0,-7.0,-27.0
1705326896.3251693,0.0,7.0,-1.0,1.0,0.0,1.0,-1.0,-5.0
1705326896.3251693,-8.0,-13.0,-14.0,-6.0,-4.0,-1.0,0.0,-2.0
1705326896.3251693,4.0,11.0,0.0,-2.0,1.0,4.0,3.0,6.0
1705326896.3251693,-2.0,-13.0,-3.0,-3.0,-3.0,-1.0,-1.0,6.0
1705326896.341622,6.0,3.0,1.0,-2.0,0.0,1.0,1.0,0.0
1705326896.3516247,-9.0,6.0,1.0,7.0,-3.0,-4.0,-5.0,-10.0
1705326896.3516247,16.0,32.0,7.0,-2.0,0.0,0.0,6.0,15.0
1705326896.3516247,-3.0,79.0,41.0,-2.0,-1.0,0.0,-4.0,-4.0
1705326896.3516247,0.0,0.0,-13.0,-3.0,-1.0,-2.0,-12.0,-24.0
1705326896.3516247,-9.0,-8.0,-5.0,-5.0,-1.0,-3.0,-5.0,-6.0
1705326896.361627,1.0,2.0,10.0,7.0,-1.0,0.0,2.0,7.0
1705326896.361627,2.0,-5.0,-10.0,3.0,0.0,-1.0,0.0,8.0
1705326896.3716235,-7.0,-6.0,-11.0,-5.0,-2.0,-1.0,3.0,-32.0
1705326896.3716235,4.0,0.0,0.0,3.0,0.0,0.0,2.0,3.0
1705326896.381627,-6.0,-15.0,-9.0,-4.0,-1.0,-1.0,-6.0,-3.0
1705326896.381627,2.0,0.0,-21.0,-8.0,-3.0,-1.0,2.0,7.0
1705326896.4016252,-4.0,-26.0,10.0,3.0,0.0,-1.0,-2.0,3.0
1705326896.4016252,3.0,-2.0,8.0,-3.0,0.0,0.0,1.0,0.0
1705326896.4016252,-4.0,35.0,5.0,5.0,1.0,2.0,7.0,2.0
1705326896.4016252,-8.0,-18.0,21.0,-5.0,-1.0,-5.0,-18.0,-20.0
1705326896.4016252,2.0,9.0,-6.0,-6.0,-2.0,-4.0,-2.0,1.0
1705326896.4016252,-2.0,0.0,1.0,4.0,4.0,3.0,6.0,13.0
1705326896.4216375,3.0,-36.0,21.0,-1.0,-4.0,-1.0,7.0,6.0
1705326896.4216375,-3.0,-14.0,-4.0,8.0,0.0,-1.0,-1.0,1.0
1705326896.4316235,-4.0,1.0,-5.0,-5.0,-3.0,0.0,-4.0,-2.0
1705326896.4316235,4.0,4.0,14.0,-5.0,0.0,0.0,1.0,2.0
1705326896.4416223,-3.0,-5.0,-19.0,-4.0,-2.0,0.0,0.0,5.0
1705326896.4416223,0.0,-27.0,-4.0,1.0,2.0,0.0,3.0,3.0
1705326896.4516232,1.0,9.0,8.0,0.0,-3.0,-3.0,-1.0,3.0
1705326896.4516232,-13.0,-63.0,-33.0,-4.0,-2.0,-2.0,1.0,-2.0
1705326896.4616275,-1.0,12.0,14.0,2.0,2.0,-3.0,-6.0,-1.0
1705326896.4616275,1.0,-7.0,-12.0,1.0,-1.0,1.0,7.0,12.0
1705326896.471621,-3.0,6.0,-13.0,-1.0,-2.0,-3.0,-4.0,0.0
1705326896.471621,6.0,13.0,16.0,1.0,0.0,-1.0,-11.0,-6.0
1705326896.4816244,-8.0,20.0,-22.0,-7.0,-6.0,-4.0,-6.0,-7.0
1705326896.4816244,-2.0,-9.0,-27.0,-10.0,-1.0,0.0,3.0,1.0
1705326896.491624,3.0,-7.0,-1.0,-1.0,2.0,-1.0,6.0,13.0
1705326896.491624,5.0,19.0,9.0,4.0,-3.0,-1.0,1.0,-5.0
1705326896.5016215,-7.0,-19.0,3.0,-3.0,-2.0,-3.0,-6.0,-5.0
1705326896.5016215,8.0,18.0,8.0,2.0,-2.0,1.0,4.0,5.0
1705326896.5116253,1.0,-25.0,-6.0,-2.0,-2.0,0.0,2.0,11.0
1705326896.5116253,-4.0,30.0,-3.0,-6.0,-3.0,-1.0,-5.0,-16.0
1705326896.5216222,1.0,13.0,9.0,2.0,0.0,-2.0,-6.0,-4.0
1705326896.5216222,2.0,9.0,4.0,4.0,2.0,0.0,9.0,19.0
1705326896.531623,-8.0,10.0,5.0,-3.0,0.0,1.0,5.0,-16.0
1705326896.531623,6.0,-13.0,-12.0,0.0,-1.0,-4.0,-17.0,4.0
1705326896.5416255,-4.0,-24.0,7.0,2.0,-1.0,-2.0,1.0,-4.0
1705326896.5416255,-3.0,-12.0,-4.0,-3.0,-1.0,0.0,-3.0,-5.0
1705326896.5616243,-1.0,-2.0,-7.0,0.0,-2.0,3.0,4.0,15.0
1705326896.5616243,-1.0,-19.0,2.0,-3.0,-3.0,1.0,4.0,-11.0
1705326896.571626,-1.0,9.0,-2.0,-1.0,2.0,-2.0,-4.0,-3.0
1705326896.571626,-2.0,-8.0,3.0,-1.0,-2.0,-3.0,-3.0,-17.0
1705326896.571626,-8.0,-4.0,-5.0,-7.0,-4.0,-3.0,-4.0,-2.0
1705326896.571626,1.0,15.0,0.0,-7.0,0.0,3.0,6.0,6.0
1705326896.5816278,5.0,-10.0,4.0,3.0,0.0,2.0,-1.0,-6.0
1705326896.5816278,-1.0,-37.0,11.0,13.0,1.0,-2.0,4.0,17.0
1705326896.5816278,0.0,17.0,8.0,4.0,-1.0,-6.0,-5.0,-8.0
1705326896.5816278,-4.0,11.0,1.0,2.0,1.0,-1.0,0.0,-1.0
1705326896.6016207,-1.0,-5.0,-5.0,-5.0,-2.0,1.0,-1.0,0.0
1705326896.6016207,3.0,29.0,15.0,-2.0,-2.0,-2.0,-1.0,2.0
1705326896.6116214,-1.0,-9.0,-2.0,3.0,1.0,-1.0,-3.0,-8.0
1705326896.6116214,-2.0,-10.0,2.0,-3.0,-1.0,-3.0,4.0,3.0
1705326896.631622,0.0,15.0,-10.0,-2.0,-2.0,-2.0,-2.0,3.0
1705326896.631622,0.0,1.0,-4.0,-5.0,-1.0,-1.0,-3.0,-8.0
1705326896.631622,-7.0,6.0,0.0,4.0,3.0,0.0,-5.0,6.0
1705326896.631622,3.0,9.0,-2.0,-1.0,-4.0,-3.0,2.0,-10.0
1705326896.6416261,-3.0,-12.0,9.0,-3.0,-1.0,1.0,-2.0,-2.0
1705326896.6416261,-3.0,-10.0,-13.0,-4.0,-3.0,-4.0,-6.0,-8.0
1705326896.6416261,3.0,8.0,9.0,-1.0,2.0,3.0,3.0,20.0
1705326896.6416261,3.0,-11.0,-2.0,5.0,3.0,0.0,2.0,-5.0
1705326896.6616259,-2.0,-5.0,-3.0,-1.0,-1.0,-3.0,-4.0,-5.0
1705326896.6616259,-5.0,-11.0,-15.0,-7.0,-2.0,1.0,-1.0,-4.0
1705326896.6716232,4.0,12.0,0.0,-4.0,-3.0,-4.0,1.0,2.0
1705326896.6716232,-4.0,-20.0,-8.0,0.0,-5.0,-3.0,0.0,18.0
1705326896.7016263,-3.0,-18.0,-4.0,1.0,1.0,-3.0,-3.0,-25.0
1705326896.7016263,2.0,4.0,2.0,1.0,0.0,-2.0,-7.0,-9.0
1705326896.7016263,2.0,-17.0,-5.0,5.0,2.0,2.0,0.0,-4.0
1705326896.7016263,5.0,34.0,-7.0,-7.0,-3.0,-2.0,2.0,-1.0
1705326896.7016263,-3.0,-32.0,-19.0,2.0,-1.0,-2.0,3.0,3.0
1705326896.7016263,-6.0,-27.0,6.0,-9.0,-1.0,-1.0,-3.0,-2.0
1705326896.7016263,0.0,3.0,-6.0,1.0,-2.0,-1.0,1.0,8.0
1705326896.7016263,-2.0,-18.0,-9.0,-4.0,-1.0,-1.0,-4.0,-12.0
1705326896.7216282,-2.0,20.0,9.0,7.0,1.0,-2.0,-1.0,6.0
1705326896.7216282,-1.0,10.0,0.0,-1.0,1.0,0.0,2.0,5.0
1705326896.7316267,0.0,-14.0,-2.0,0.0,1.0,-1.0,-1.0,-17.0
1705326896.7316267,-5.0,-10.0,-4.0,-10.0,-2.0,-1.0,-3.0,-2.0
1705326896.7516253,-1.0,0.0,-9.0,-6.0,-3.0,-1.0,1.0,11.0
1705326896.7516253,0.0,11.0,10.0,4.0,-1.0,1.0,-2.0,-8.0
1705326896.7516253,-2.0,-5.0,2.0,-5.0,-4.0,-4.0,-2.0,3.0
1705326896.7516253,-3.0,-16.0,-15.0,0.0,0.0,0.0,-1.0,5.0
1705326896.781623,-3.0,13.0,2.0,-6.0,-2.0,-3.0,-5.0,-17.0
1705326896.781623,-2.0,7.0,-3.0,0.0,-2.0,1.0,-3.0,-5.0
1705326896.781623,13.0,1.0,2.0,3.0,-1.0,-2.0,2.0,1.0
1705326896.781623,-4.0,-17.0,2.0,2.0,-1.0,-3.0,-4.0,3.0
1705326896.781623,6.0,26.0,7.0,-5.0,-4.0,-1.0,4.0,-2.0
1705326896.781623,-8.0,-65.0,-18.0,0.0,0.0,-3.0,-3.0,4.0
1705326896.7916229,2.0,2.0,0.0,-2.0,-4.0,0.0,-2.0,-13.0
1705326896.7916229,0.0,23.0,18.0,7.0,4.0,2.0,3.0,3.0
1705326896.811625,-7.0,6.0,8.0,-4.0,-3.0,-5.0,-12.0,-14.0
1705326896.811625,-2.0,14.0,-8.0,-2.0,-3.0,-1.0,3.0,2.0
1705326896.811625,-2.0,15.0,10.0,0.0,1.0,0.0,-1.0,10.0
1705326896.811625,1.0,-28.0,-13.0,-1.0,-2.0,-1.0,1.0,4.0
1705326896.821624,1.0,3.0,0.0,4.0,3.0,3.0,5.0,6.0
1705326896.821624,5.0,49.0,15.0,2.0,1.0,-3.0,2.0,-1.0
1705326896.8316264,-7.0,13.0,12.0,-3.0,1.0,2.0,-7.0,-3.0
1705326896.8316264,2.0,26.0,17.0,2.0,-3.0,-1.0,-5.0,-16.0
1705326896.8416245,4.0,1.0,-9.0,-3.0,-1.0,3.0,1.0,8.0
1705326896.8416245,0.0,15.0,3.0,1.0,-2.0,-2.0,1.0,1.0
1705326896.8516228,-2.0,-25.0,-6.0,-1.0,-1.0,2.0,2.0,-6.0
1705326896.8516228,-4.0,42.0,16.0,1.0,0.0,-3.0,-3.0,4.0
1705326896.874405,4.0,-10.0,-15.0,-2.0,1.0,2.0,3.0,3.0
1705326896.874405,9.0,15.0,22.0,2.0,0.0,1.0,0.0,12.0
1705326896.874405,-4.0,13.0,4.0,3.0,-2.0,0.0,-4.0,-8.0
1705326896.874405,-7.0,-7.0,-3.0,3.0,0.0,-1.0,-5.0,-12.0
1705326896.8844068,3.0,2.0,-3.0,1.0,0.0,4.0,4.0,12.0
1705326896.8844068,-11.0,-13.0,-9.0,-4.0,-3.0,-2.0,1.0,0.0
1705326896.8844068,-1.0,4.0,-4.0,-4.0,-4.0,-2.0,5.0,9.0
1705326896.8844068,1.0,8.0,5.0,2.0,0.0,-1.0,-3.0,2.0
1705326896.9244063,-4.0,-8.0,0.0,-4.0,-2.0,-1.0,8.0,1.0
1705326896.9244063,-1.0,-7.0,-14.0,-2.0,-2.0,-3.0,-25.0,-9.0
1705326896.9244063,-1.0,-2.0,1.0,-7.0,-3.0,-3.0,0.0,7.0
1705326896.9244063,-6.0,-10.0,-5.0,0.0,-2.0,-1.0,-2.0,-25.0
1705326896.9244063,3.0,-17.0,3.0,-8.0,0.0,1.0,3.0,15.0
1705326896.9244063,-4.0,-8.0,-4.0,-4.0,1.0,1.0,-1.0,-17.0
1705326896.934408,-2.0,1.0,-7.0,4.0,-1.0,1.0,-1.0,2.0
1705326896.934408,4.0,1.0,-6.0,-2.0,2.0,2.0,1.0,10.0
1705326896.94441,-4.0,10.0,19.0,4.0,-2.0,-4.0,-7.0,-8.0
1705326896.94441,-1.0,-14.0,-13.0,0.0,-2.0,-2.0,3.0,6.0
1705326896.9544053,0.0,-13.0,-6.0,-4.0,0.0,-2.0,-2.0,-3.0
1705326896.9544053,-2.0,1.0,4.0,-1.0,-1.0,-1.0,-5.0,-17.0
1705326896.974408,-10.0,-53.0,-37.0,-4.0,-1.0,-2.0,-5.0,-2.0
1705326896.974408,7.0,-10.0,0.0,-5.0,-3.0,-1.0,6.0,10.0
1705326896.974408,3.0,11.0,1.0,3.0,-1.0,-4.0,-5.0,-5.0
1705326896.974408,-3.0,-9.0,-11.0,-4.0,-1.0,0.0,3.0,11.0
1705326896.9844072,-8.0,0.0,12.0,-3.0,-4.0,-4.0,-1.0,-10.0
1705326896.9844072,6.0,-7.0,-20.0,0.0,2.0,3.0,0.0,4.0
1705326896.9944046,-12.0,-34.0,-12.0,-2.0,0.0,-4.0,-12.0,-5.0
1705326896.9944046,5.0,5.0,8.0,0.0,-1.0,-2.0,3.0,4.0
1705326897.014405,3.0,13.0,1.0,2.0,2.0,1.0,-2.0,-1.0
1705326897.014405,13.0,9.0,2.0,6.0,0.0,-1.0,2.0,-12.0
1705326897.014405,-19.0,11.0,1.0,-9.0,-3.0,-3.0,7.0,0.0
1705326897.014405,0.0,11.0,-10.0,-8.0,0.0,-1.0,-15.0,2.0
1705326897.0244062,-3.0,2.0,1.0,5.0,-1.0,0.0,-1.0,-10.0
1705326897.0244062,-3.0,-12.0,4.0,-1.0,0.0,2.0,3.0,2.0
1705326897.0244062,0.0,2.0,16.0,5.0,1.0,0.0,-2.0,-6.0
1705326897.0244062,3.0,-19.0,-19.0,-4.0,-1.0,1.0,5.0,15.0
1705326897.0544066,-1.0,10.0,5.0,2.0,-4.0,-1.0,-3.0,-6.0
1705326897.0544066,-3.0,18.0,-1.0,6.0,1.0,1.0,-3.0,-6.0
1705326897.0544066,0.0,-34.0,-35.0,-14.0,-4.0,-2.0,-1.0,-5.0
1705326897.0544066,-5.0,-7.0,7.0,-3.0,-3.0,-3.0,4.0,6.0
1705326897.0644062,-2.0,4.0,4.0,2.0,2.0,-2.0,-6.0,4.0
1705326897.0644062,-2.0,-5.0,3.0,-1.0,0.0,-1.0,-2.0,-23.0
1705326897.0744069,2.0,4.0,-7.0,3.0,0.0,0.0,-1.0,7.0
1705326897.0744069,11.0,3.0,11.0,1.0,-2.0,-2.0,0.0,6.0
1705326897.0844078,-13.0,-10.0,-14.0,-3.0,0.0,0.0,-2.0,-22.0
1705326897.0844078,-6.0,32.0,3.0,-3.0,-1.0,-2.0,0.0,-1.0
1705326897.0844078,3.0,-28.0,2.0,0.0,0.0,-3.0,-1.0,1.0
1705326897.0844078,2.0,4.0,1.0,0.0,-3.0,-1.0,3.0,2.0
1705326897.1144078,3.0,1.0,0.0,-2.0,-3.0,-3.0,-1.0,7.0
1705326897.1144078,-8.0,1.0,-2.0,-4.0,-2.0,-3.0,-4.0,-8.0
1705326897.1144078,4.0,-11.0,-9.0,-2.0,-1.0,1.0,-1.0,-4.0
1705326897.1144078,1.0,11.0,12.0,7.0,2.0,1.0,1.0,-3.0
1705326897.1244068,5.0,30.0,12.0,-5.0,-4.0,-1.0,1.0,4.0
1705326897.1244068,-6.0,-66.0,-27.0,-6.0,-2.0,0.0,-2.0,4.0
1705326897.1344063,-4.0,2.0,6.0,4.0,0.0,-1.0,-3.0,-1.0
1705326897.1344063,0.0,-8.0,2.0,-3.0,-1.0,-1.0,0.0,0.0
1705326897.1444085,-1.0,11.0,13.0,-1.0,0.0,-2.0,-4.0,-8.0
1705326897.1444085,2.0,2.0,0.0,1.0,0.0,-1.0,2.0,4.0
1705326897.1444085,-4.0,11.0,-2.0,1.0,2.0,0.0,-3.0,-4.0
1705326897.1444085,-3.0,-8.0,8.0,-1.0,-1.0,0.0,0.0,10.0
1705326897.1744058,-2.0,12.0,-11.0,0.0,0.0,0.0,-3.0,-26.0
1705326897.1744058,0.0,-3.0,4.0,-3.0,-2.0,-5.0,-4.0,1.0
1705326897.1744058,-6.0,-2.0,2.0,5.0,-2.0,-2.0,-4.0,-1.0
1705326897.1744058,-3.0,4.0,-17.0,-6.0,-3.0,-2.0,-2.0,-3.0
1705326897.1844068,11.0,-23.0,-1.0,-1.0,1.0,-3.0,-1.0,12.0
1705326897.1844068,-29.0,1.0,8.0,1.0,1.0,-1.0,1.0,-3.0
1705326897.194406,14.0,24.0,7.0,7.0,-1.0,2.0,2.0,0.0
1705326897.194406,-5.0,1.0,3.0,-2.0,-3.0,-2.0,1.0,3.0
1705326897.2044053,4.0,-34.0,-12.0,0.0,-2.0,0.0,-5.0,9.0
1705326897.2044053,2.0,14.0,4.0,-3.0,-2.0,-3.0,5.0,-11.0
1705326897.2044053,-5.0,-27.0,-10.0,-15.0,-1.0,-2.0,-11.0,-9.0
1705326897.2044053,-3.0,23.0,9.0,1.0,2.0,2.0,-1.0,-3.0
1705326897.2244065,-1.0,-1.0,3.0,8.0,-1.0,2.0,5.0,8.0
1705326897.2244065,4.0,3.0,-17.0,-4.0,-3.0,-2.0,1.0,2.0
1705326897.2244065,-2.0,1.0,-3.0,-7.0,-2.0,-2.0,2.0,4.0
1705326897.234411,4.0,21.0,-3.0,-4.0,0.0,-3.0,-5.0,-5.0
1705326897.244408,-1.0,-26.0,-7.0,-6.0,2.0,0.0,0.0,-11.0
1705326897.244408,0.0,0.0,8.0,-2.0,-4.0,-1.0,-5.0,14.0
1705326897.2544062,-5.0,34.0,45.0,6.0,0.0,-4.0,-13.0,-9.0
1705326897.2544062,0.0,-49.0,-22.0,-4.0,-3.0,-6.0,-3.0,0.0
1705326897.264408,-4.0,17.0,-3.0,-8.0,-1.0,0.0,-5.0,-10.0
1705326897.264408,3.0,-2.0,5.0,5.0,0.0,1.0,6.0,12.0
1705326897.264408,-4.0,-5.0,-6.0,1.0,-2.0,-1.0,3.0,3.0
1705326897.264408,6.0,10.0,8.0,10.0,-2.0,-2.0,0.0,-7.0
1705326897.2944052,-5.0,10.0,-13.0,-14.0,-6.0,-5.0,0.0,10.0
1705326897.2944052,1.0,-50.0,-16.0,-5.0,-4.0,-3.0,-11.0,-36.0
1705326897.2944052,0.0,31.0,-6.0,1.0,3.0,3.0,5.0,4.0
1705326897.2944052,3.0,-15.0,-4.0,3.0,-2.0,-1.0,-8.0,-6.0
1705326897.304407,-14.0,-13.0,-13.0,6.0,1.0,0.0,5.0,11.0
1705326897.304407,1.0,7.0,-6.0,-2.0,0.0,-1.0,-3.0,-3.0
1705326897.3144069,1.0,-17.0,13.0,2.0,-1.0,-1.0,2.0,9.0
1705326897.3144069,1.0,60.0,-12.0,-4.0,-2.0,-1.0,6.0,-10.0
1705326897.3244076,-3.0,10.0,14.0,-5.0,-3.0,-2.0,-9.0,-4.0
1705326897.3244076,0.0,24.0,17.0,2.0,-2.0,-1.0,0.0,9.0
1705326897.3244076,2.0,5.0,-17.0,10.0,2.0,0.0,1.0,-10.0
1705326897.3244076,-5.0,-5.0,-7.0,-7.0,0.0,0.0,-1.0,3.0
1705326897.3444107,1.0,-24.0,1.0,-5.0,-3.0,0.0,4.0,3.0
1705326897.3444107,-6.0,-5.0,-9.0,2.0,0.0,1.0,4.0,14.0
1705326897.3544068,5.0,11.0,0.0,-12.0,-3.0,0.0,-3.0,-24.0
1705326897.3544068,-4.0,-18.0,20.0,13.0,1.0,1.0,2.0,-9.0
1705326897.3644087,-2.0,17.0,-8.0,-9.0,-3.0,-4.0,-4.0,2.0
1705326897.3644087,6.0,-16.0,-16.0,-3.0,-1.0,-1.0,-2.0,-1.0
1705326897.37441,-7.0,-25.0,-7.0,7.0,0.0,0.0,-4.0,-1.0
1705326897.37441,-3.0,-1.0,15.0,-4.0,2.0,1.0,3.0,2.0
1705326897.399985,1.0,-11.0,-9.0,2.0,-1.0,-1.0,-1.0,-5.0
1705326897.399985,8.0,30.0,10.0,-3.0,-1.0,2.0,14.0,17.0
1705326897.399985,3.0,-34.0,-25.0,-3.0,3.0,1.0,-3.0,13.0
1705326897.399985,0.0,-18.0,6.0,20.0,-1.0,-2.0,-5.0,-4.0
1705326897.4172096,4.0,-3.0,-9.0,-17.0,-3.0,-2.0,2.0,-4.0
1705326897.4172096,1.0,-22.0,12.0,3.0,2.0,0.0,-16.0,-5.0
1705326897.4172096,-6.0,14.0,-3.0,-12.0,-6.0,-2.0,4.0,-3.0
1705326897.4172096,7.0,11.0,19.0,5.0,2.0,2.0,-2.0,4.0
1705326897.4172096,18.0,4.0,13.0,9.0,2.0,-2.0,-3.0,3.0
1705326897.4172096,-10.0,9.0,-16.0,-6.0,-5.0,-3.0,-2.0,-2.0
1705326897.4272115,0.0,-19.0,-31.0,-18.0,-5.0,-5.0,-4.0,-5.0
1705326897.4272115,-11.0,-13.0,0.0,-14.0,-5.0,-1.0,0.0,4.0
1705326897.4472091,4.0,25.0,15.0,9.0,2.0,1.0,3.0,-1.0
1705326897.4472091,-3.0,-1.0,-22.0,-2.0,-1.0,-4.0,-6.0,-6.0
1705326897.4472091,-4.0,-7.0,18.0,4.0,-2.0,-3.0,-3.0,-2.0
1705326897.4472091,-5.0,-5.0,-41.0,-16.0,-3.0,-2.0,0.0,-3.0
1705326897.4672077,-2.0,-6.0,22.0,13.0,2.0,0.0,-3.0,14.0
1705326897.4672077,7.0,2.0,-13.0,3.0,3.0,5.0,5.0,3.0
1705326897.4672077,-2.0,-38.0,15.0,-8.0,-3.0,-1.0,4.0,-2.0
1705326897.4672077,-10.0,-3.0,4.0,1.0,0.0,-1.0,-10.0,-6.0
1705326897.48721,-2.0,29.0,5.0,-4.0,-2.0,-1.0,2.0,11.0
1705326897.48721,-15.0,-29.0,9.0,3.0,-2.0,-7.0,-10.0,-6.0
1705326897.48721,13.0,11.0,-14.0,-1.0,-3.0,0.0,3.0,-7.0
1705326897.48721,1.0,-23.0,-6.0,-5.0,-2.0,0.0,1.0,7.0
1705326897.5072093,-6.0,-9.0,13.0,4.0,1.0,1.0,-1.0,-11.0
1705326897.5072093,12.0,-1.0,3.0,9.0,0.0,2.0,9.0,6.0
1705326897.5072093,-11.0,11.0,12.0,-3.0,-8.0,-4.0,-5.0,-2.0
1705326897.5072093,-4.0,26.0,5.0,4.0,0.0,-1.0,-6.0,2.0
1705326897.5272129,-6.0,16.0,-9.0,-10.0,4.0,-1.0,-2.0,-8.0
1705326897.5272129,1.0,-1.0,-1.0,-2.0,1.0,2.0,-1.0,-1.0
1705326897.5272129,8.0,17.0,11.0,7.0,4.0,2.0,4.0,6.0
1705326897.5272129,3.0,1.0,7.0,5.0,0.0,-1.0,3.0,2.0
1705326897.547212,-12.0,-11.0,-26.0,-3.0,-7.0,-5.0,-1.0,-1.0
1705326897.547212,1.0,17.0,26.0,-1.0,3.0,1.0,-1.0,-4.0
1705326897.547212,0.0,2.0,4.0,-2.0,3.0,-2.0,-2.0,4.0
1705326897.5572124,-1.0,32.0,0.0,4.0,3.0,2.0,3.0,6.0
1705326897.5672128,-4.0,-41.0,-26.0,-6.0,-7.0,-2.0,7.0,-5.0
1705326897.5672128,-5.0,6.0,6.0,-7.0,-4.0,-6.0,-7.0,-15.0
1705326897.5672128,-6.0,-46.0,-42.0,6.0,5.0,2.0,-1.0,-5.0
1705326897.5672128,11.0,1.0,10.0,-1.0,-3.0,-1.0,-4.0,4.0
1705326897.6072078,-3.0,32.0,-5.0,-1.0,-2.0,3.0,0.0,-14.0
1705326897.6072078,-3.0,-14.0,3.0,-5.0,-4.0,-1.0,0.0,5.0
1705326897.6072078,0.0,21.0,6.0,3.0,-1.0,-2.0,0.0,-3.0
1705326897.6072078,-2.0,-20.0,-11.0,0.0,2.0,0.0,3.0,4.0
1705326897.6072078,1.0,-3.0,7.0,9.0,1.0,4.0,-1.0,-2.0
1705326897.6072078,4.0,6.0,-1.0,-8.0,0.0,1.0,0.0,-9.0
1705326897.6072078,3.0,-3.0,12.0,4.0,-4.0,-2.0,-6.0,2.0
1705326897.6072078,0.0,10.0,-6.0,-10.0,-2.0,-2.0,0.0,1.0
1705326897.6372097,5.0,31.0,18.0,10.0,0.0,-5.0,-9.0,-12.0
1705326897.6372097,-2.0,15.0,5.0,-9.0,0.0,0.0,6.0,7.0
1705326897.64721,3.0,3.0,1.0,-4.0,-2.0,0.0,5.0,11.0
1705326897.64721,-2.0,-10.0,5.0,1.0,-2.0,-1.0,-2.0,0.0
1705326897.64721,6.0,15.0,6.0,1.0,0.0,1.0,-5.0,-6.0
1705326897.64721,-2.0,-14.0,-10.0,9.0,0.0,-4.0,-7.0,-3.0
1705326897.64721,-11.0,-17.0,-16.0,-3.0,-2.0,0.0,5.0,20.0
1705326897.64721,4.0,11.0,11.0,-8.0,-4.0,3.0,6.0,-19.0
1705326897.6672072,-6.0,-20.0,-10.0,-3.0,-3.0,-4.0,-5.0,4.0
1705326897.6672072,-5.0,-1.0,-8.0,-4.0,-3.0,-3.0,-3.0,-26.0
1705326897.6772096,-1.0,8.0,7.0,7.0,1.0,0.0,-7.0,5.0
1705326897.6772096,-9.0,-26.0,-21.0,-1.0,0.0,-2.0,-2.0,-4.0
1705326897.6972094,5.0,-4.0,-7.0,2.0,-1.0,1.0,6.0,16.0
1705326897.6972094,0.0,12.0,12.0,0.0,-1.0,-1.0,-3.0,1.0
1705326897.6972094,2.0,20.0,-11.0,-8.0,-3.0,-1.0,-2.0,-7.0
1705326897.6972094,-2.0,-8.0,14.0,1.0,-1.0,0.0,2.0,-3.0
1705326897.7072077,-1.0,-28.0,-24.0,0.0,2.0,0.0,-4.0,-3.0
1705326897.7072077,0.0,13.0,4.0,0.0,-3.0,-2.0,0.0,5.0
1705326897.7072077,7.0,-8.0,0.0,-6.0,-2.0,0.0,3.0,-4.0
1705326897.7072077,-1.0,24.0,1.0,-9.0,-1.0,-2.0,4.0,18.0
1705326897.737209,-3.0,19.0,11.0,1.0,2.0,-3.0,-20.0,-39.0
1705326897.737209,-5.0,-13.0,-16.0,-8.0,-4.0,-2.0,0.0,10.0
1705326897.737209,-6.0,-11.0,0.0,10.0,0.0,0.0,-1.0,2.0
1705326897.737209,1.0,-19.0,5.0,-1.0,-1.0,0.0,-1.0,1.0
1705326897.7472084,6.0,-1.0,21.0,-2.0,-4.0,-1.0,2.0,1.0
1705326897.7472084,-10.0,12.0,-10.0,-1.0,1.0,3.0,0.0,-3.0
1705326897.7472084,-2.0,15.0,6.0,-4.0,-2.0,-3.0,-5.0,-9.0
1705326897.7472084,2.0,4.0,4.0,0.0,0.0,0.0,1.0,5.0
1705326897.7672074,4.0,1.0,8.0,2.0,1.0,1.0,4.0,13.0
1705326897.7672074,2.0,-18.0,-5.0,2.0,-1.0,-2.0,-5.0,-2.0
1705326897.7672074,4.0,43.0,14.0,-1.0,0.0,0.0,7.0,13.0
1705326897.7672074,-6.0,-29.0,-17.0,-17.0,-4.0,-4.0,-8.0,-16.0
1705326897.7972069,-7.0,-42.0,-6.0,-2.0,-2.0,-5.0,-13.0,-9.0
1705326897.7972069,-2.0,3.0,3.0,9.0,2.0,1.0,6.0,10.0
1705326897.7972069,5.0,53.0,14.0,-3.0,-1.0,1.0,1.0,4.0
1705326897.7972069,-7.0,-23.0,-15.0,6.0,-2.0,0.0,-3.0,-18.0
1705326897.8072093,-1.0,-1.0,-2.0,-13.0,-6.0,-4.0,1.0,9.0
1705326897.8072093,-1.0,-2.0,2.0,2.0,2.0,-3.0,-5.0,-6.0
1705326897.8072093,0.0,0.0,4.0,3.0,1.0,-1.0,1.0,-1.0
1705326897.8072093,0.0,-8.0,-7.0,-4.0,-1.0,-4.0,-7.0,-8.0
1705326897.8272142,0.0,13.0,-5.0,0.0,-1.0,0.0,-2.0,8.0
1705326897.8272142,1.0,1.0,1.0,7.0,-1.0,2.0,0.0,-2.0
1705326897.8272142,-11.0,-42.0,-21.0,-8.0,-3.0,-4.0,-4.0,-7.0
1705326897.8272142,8.0,31.0,9.0,0.0,-2.0,0.0,5.0,9.0
1705326897.867209,-3.0,-41.0,-10.0,0.0,1.0,1.0,-2.0,-24.0
1705326897.867209,-6.0,-18.0,-6.0,-6.0,-5.0,-8.0,-10.0,-6.0
1705326897.867209,-4.0,-5.0,8.0,14.0,4.0,1.0,-1.0,-4.0
1705326897.867209,7.0,1.0,3.0,5.0,0.0,-1.0,4.0,10.0
1705326897.867209,2.0,11.0,7.0,7.0,1.0,0.0,3.0,-6.0
1705326897.867209,1.0,28.0,15.0,-9.0,-1.0,2.0,2.0,3.0
1705326897.867209,-6.0,-13.0,-29.0,-9.0,-4.0,-2.0,-3.0,-8.0
1705326897.867209,-4.0,25.0,15.0,-4.0,-1.0,-4.0,-6.0,4.0
1705326897.8872092,-1.0,16.0,-1.0,4.0,0.0,5.0,13.0,16.0
1705326897.8872092,2.0,9.0,-1.0,-1.0,-2.0,-3.0,-8.0,-11.0
1705326897.8872092,1.0,-11.0,1.0,-3.0,-1.0,-1.0,-3.0,1.0
1705326897.8872092,-4.0,-1.0,-3.0,-3.0,0.0,-1.0,-5.0,-5.0
1705326897.9151154,-4.0,0.0,-7.0,3.0,-1.0,1.0,6.0,15.0
1705326897.9151154,1.0,-16.0,-9.0,-12.0,-1.0,3.0,-1.0,3.0
1705326897.9161155,-5.0,-39.0,-8.0,-2.0,-6.0,-4.0,-2.0,-6.0
1705326897.9161155,-5.0,-11.0,-4.0,10.0,1.0,-1.0,-1.0,-17.0
1705326897.9291143,3.0,-24.0,3.0,1.0,0.0,-1.0,2.0,0.0
1705326897.9291143,1.0,22.0,7.0,-4.0,-2.0,-2.0,3.0,3.0
1705326897.9361138,0.0,-5.0,-2.0,-1.0,1.0,-2.0,1.0,-2.0
1705326897.9361138,2.0,4.0,4.0,0.0,-1.0,1.0,-3.0,-2.0
1705326897.9500508,-9.0,14.0,-4.0,-1.0,-3.0,-3.0,8.0,1.0
1705326897.9500508,-4.0,2.0,3.0,2.0,-1.0,0.0,-4.0,12.0
1705326897.9500508,6.0,14.0,-11.0,-12.0,-5.0,-1.0,-1.0,-5.0
1705326897.9500508,1.0,-17.0,-9.0,7.0,1.0,0.0,0.0,-1.0
1705326897.980049,6.0,29.0,21.0,0.0,0.0,-2.0,-6.0,-26.0
1705326897.980049,-1.0,32.0,4.0,1.0,2.0,0.0,4.0,7.0
1705326897.980049,-6.0,-6.0,10.0,5.0,-4.0,-2.0,0.0,-1.0
1705326897.980049,-3.0,-58.0,-19.0,0.0,2.0,-1.0,3.0,8.0
1705326897.980049,-4.0,-19.0,-17.0,-16.0,-5.0,-3.0,-3.0,12.0
1705326897.980049,-1.0,-2.0,4.0,-3.0,-3.0,-4.0,-2.0,-14.0
1705326897.9900513,2.0,5.0,16.0,5.0,1.0,-2.0,-9.0,-9.0
1705326897.9900513,1.0,33.0,-4.0,-2.0,-1.0,-2.0,2.0,-1.0
1705326898.0100524,1.0,-4.0,4.0,5.0,4.0,5.0,-5.0,8.0
1705326898.0100524,-6.0,-17.0,15.0,-5.0,-5.0,-4.0,0.0,-6.0
1705326898.0100524,3.0,13.0,-4.0,-2.0,-3.0,-1.0,3.0,7.0
1705326898.0100524,-3.0,6.0,8.0,-1.0,3.0,2.0,5.0,-3.0
1705326898.0300527,-4.0,-3.0,0.0,4.0,-2.0,-2.0,-13.0,1.0
1705326898.0300527,0.0,2.0,-11.0,2.0,2.0,3.0,6.0,1.0
1705326898.0300527,1.0,-25.0,0.0,4.0,0.0,-1.0,3.0,-5.0
1705326898.0300527,0.0,28.0,19.0,-14.0,-4.0,-1.0,-5.0,-3.0
1705326898.06005,-5.0,6.0,-3.0,6.0,0.0,-5.0,-1.0,10.0
1705326898.06005,-2.0,-11.0,-9.0,0.0,-2.0,-2.0,-5.0,-16.0
1705326898.0800495,-7.0,7.0,-14.0,-1.0,3.0,2.0,-3.0,-1.0
1705326898.0800495,9.0,10.0,5.0,3.0,-2.0,1.0,7.0,9.0
1705326898.0800495,0.0,18.0,7.0,-6.0,-4.0,-1.0,0.0,-1.0
1705326898.0800495,-8.0,-41.0,-17.0,2.0,-1.0,-4.0,-8.0,-6.0
1705326898.0800495,-3.0,9.0,0.0,5.0,3.0,-1.0,-2.0,-9.0
1705326898.0800495,-2.0,-7.0,-20.0,-12.0,-5.0,0.0,-6.0,-16.0
1705326898.0900507,1.0,-27.0,11.0,0.0,0.0,2.0,5.0,1.0
1705326898.0900507,16.0,26.0,9.0,10.0,2.0,2.0,1.0,7.0
1705326898.0900507,10.0,1.0,10.0,-6.0,-1.0,-1.0,-2.0,7.0
1705326898.0900507,-9.0,-7.0,-2.0,-3.0,-3.0,-8.0,-7.0,-6.0
1705326898.1000512,-1.0,1.0,-12.0,-3.0,-1.0,-1.0,4.0,4.0
1705326898.1000512,-9.0,-8.0,-8.0,1.0,-6.0,-4.0,5.0,2.0
1705326898.1300492,0.0,8.0,1.0,-11.0,-1.0,0.0,-6.0,-9.0
1705326898.1300492,-5.0,7.0,4.0,9.0,0.0,-5.0,-5.0,3.0
1705326898.1300492,1.0,9.0,-5.0,-12.0,-4.0,1.0,2.0,5.0
1705326898.1300492,-1.0,15.0,9.0,-1.0,2.0,1.0,6.0,-1.0
1705326898.1400504,-5.0,7.0,-4.0,7.0,-3.0,-1.0,0.0,5.0
1705326898.1400504,0.0,-18.0,5.0,3.0,-2.0,-3.0,-5.0,5.0
1705326898.1500552,-3.0,9.0,-10.0,-9.0,-2.0,-2.0,3.0,-15.0
1705326898.1500552,5.0,-31.0,3.0,-1.0,0.0,1.0,-3.0,8.0
1705326898.1500552,-4.0,-16.0,-15.0,-3.0,-1.0,0.0,-3.0,2.0
1705326898.1500552,-5.0,12.0,-5.0,-2.0,-2.0,0.0,-6.0,-15.0
1705326898.1600542,-3.0,-31.0,9.0,7.0,-1.0,0.0,5.0,11.0
1705326898.1600542,-13.0,2.0,-20.0,-8.0,-6.0,-3.0,-10.0,1.0
1705326898.1700525,-3.0,-11.0,-8.0,-6.0,-4.0,-4.0,-8.0,-40.0
1705326898.1700525,-1.0,-6.0,-2.0,-4.0,-2.0,-2.0,-1.0,21.0
1705326898.1900523,4.0,19.0,4.0,2.0,0.0,-1.0,-4.0,-12.0
1705326898.1900523,-6.0,-16.0,0.0,-1.0,0.0,-2.0,-3.0,-11.0
1705326898.1900523,1.0,-5.0,-14.0,-6.0,-2.0,2.0,5.0,12.0
1705326898.1900523,-6.0,-23.0,-4.0,3.0,1.0,0.0,-3.0,-1.0
1705326898.230051,-5.0,-28.0,-28.0,-5.0,4.0,0.0,3.0,3.0
1705326898.230051,9.0,11.0,8.0,-1.0,1.0,-3.0,-5.0,-12.0
1705326898.230051,0.0,8.0,17.0,3.0,-3.0,-2.0,-2.0,0.0
1705326898.230051,-3.0,-2.0,-7.0,-4.0,-3.0,0.0,1.0,-14.0
1705326898.230051,0.0,3.0,-4.0,0.0,-3.0,-4.0,-4.0,8.0
1705326898.230051,1.0,7.0,6.0,3.0,-1.0,1.0,1.0,0.0
1705326898.230051,9.0,-8.0,-8.0,0.0,0.0,0.0,-3.0,10.0
1705326898.230051,-7.0,12.0,1.0,6.0,3.0,3.0,7.0,2.0
1705326898.26005,-9.0,-3.0,-1.0,-2.0,0.0,-1.0,-16.0,-15.0
1705326898.26005,-2.0,-3.0,-5.0,-3.0,-1.0,1.0,5.0,6.0
1705326898.26005,7.0,17.0,17.0,6.0,3.0,2.0,3.0,10.0
1705326898.26005,-3.0,32.0,-14.0,-13.0,-5.0,-2.0,-4.0,-5.0
1705326898.2700498,8.0,20.0,8.0,1.0,-2.0,-2.0,2.0,19.0
1705326898.2700498,-1.0,-5.0,-8.0,-4.0,-2.0,1.0,-2.0,-21.0
1705326898.2700498,-5.0,-18.0,3.0,-7.0,-3.0,-2.0,-5.0,19.0
1705326898.2700498,-2.0,-12.0,-4.0,9.0,2.0,-1.0,10.0,10.0
1705326898.3000488,-4.0,14.0,2.0,3.0,0.0,-1.0,-9.0,-8.0
1705326898.3000488,2.0,-13.0,-5.0,0.0,0.0,-2.0,1.0,8.0
1705326898.3000488,-6.0,-7.0,-11.0,-3.0,-2.0,-1.0,-7.0,-6.0
1705326898.3000488,1.0,2.0,5.0,-2.0,-3.0,-3.0,-1.0,-1.0
1705326898.3100524,5.0,0.0,13.0,8.0,3.0,1.0,1.0,-6.0
1705326898.3100524,-1.0,16.0,12.0,-7.0,-2.0,-2.0,1.0,19.0
1705326898.3100524,-4.0,-11.0,-31.0,-12.0,-2.0,0.0,2.0,-20.0
1705326898.3100524,-5.0,-14.0,3.0,0.0,-1.0,-1.0,-1.0,5.0
1705326898.3500512,-5.0,-12.0,-9.0,-1.0,-4.0,-5.0,1.0,-1.0
1705326898.3500512,0.0,-46.0,-4.0,1.0,-6.0,-4.0,-3.0,2.0
1705326898.3500512,-12.0,12.0,1.0,-12.0,-2.0,-3.0,1.0,-12.0
1705326898.3500512,5.0,15.0,4.0,-2.0,-1.0,-1.0,-14.0,-19.0
1705326898.3500512,-3.0,5.0,-3.0,-4.0,-2.0,-2.0,-8.0,4.0
1705326898.3500512,2.0,-22.0,10.0,2.0,2.0,1.0,3.0,6.0
1705326898.3500512,2.0,18.0,10.0,3.0,-3.0,-3.0,3.0,0.0
1705326898.3500512,3.0,-16.0,3.0,3.0,0.0,1.0,5.0,12.0
1705326898.3700507,-1.0,-13.0,-9.0,-8.0,-3.0,-2.0,4.0,-13.0
1705326898.3700507,-1.0,17.0,-4.0,2.0,2.0,-1.0,-10.0,3.0
1705326898.3700507,-2.0,5.0,5.0,4.0,1.0,2.0,2.0,5.0
1705326898.3700507,3.0,-1.0,-7.0,0.0,0.0,-1.0,-10.0,-6.0
1705326898.3900504,-5.0,-23.0,22.0,-12.0,-7.0,-5.0,-1.0,-18.0
1705326898.3900504,-1.0,24.0,-12.0,2.0,0.0,2.0,7.0,8.0
1705326898.4000535,1.0,3.0,13.0,-2.0,1.0,1.0,8.0,9.0
1705326898.4000535,-3.0,-6.0,-3.0,-3.0,0.0,-5.0,-6.0,-4.0
1705326898.4100492,-2.0,0.0,-9.0,-2.0,-1.0,1.0,-5.0,0.0
1705326898.4100492,-4.0,11.0,3.0,-3.0,-4.0,-1.0,1.0,-5.0
1705326898.4100492,3.0,-18.0,1.0,-6.0,-4.0,-3.0,1.0,4.0
1705326898.4100492,4.0,-17.0,15.0,0.0,-5.0,1.0,4.0,0.0
1705326898.4300506,7.0,3.0,-19.0,2.0,3.0,2.0,4.0,5.0
1705326898.4300506,-2.0,-9.0,5.0,3.0,-2.0,-3.0,-18.0,-15.0
1705326898.4300506,1.0,43.0,12.0,7.0,-1.0,-2.0,-4.0,6.0
1705326898.4300506,-4.0,-14.0,-7.0,-3.0,2.0,1.0,9.0,6.0
1705326898.4546955,2.0,-7.0,-8.0,-6.0,-2.0,1.0,0.0,7.0
1705326898.4546955,3.0,21.0,0.0,0.0,-2.0,1.0,6.0,2.0
1705326898.4561782,0.0,-1.0,-2.0,3.0,2.0,0.0,4.0,12.0
1705326898.4561782,-6.0,13.0,-4.0,-5.0,-4.0,-4.0,-19.0,-43.0
1705326898.4761834,-7.0,-38.0,-2.0,2.0,1.0,1.0,-1.0,1.0
1705326898.4761834,-1.0,-22.0,-5.0,3.0,2.0,1.0,3.0,7.0
1705326898.48618,-6.0,20.0,-12.0,-6.0,-6.0,-3.0,0.0,-2.0
1705326898.48618,11.0,12.0,22.0,3.0,0.0,-1.0,4.0,16.0
1705326898.4961805,1.0,-50.0,-36.0,-4.0,-1.0,2.0,-2.0,-9.0
1705326898.4961805,-10.0,-9.0,1.0,-5.0,-2.0,-6.0,-3.0,4.0
1705326898.4961805,2.0,-11.0,-4.0,5.0,0.0,-1.0,-2.0,-4.0
1705326898.4961805,-6.0,-1.0,-14.0,-2.0,0.0,3.0,0.0,-2.0
1705326898.516185,4.0,61.0,44.0,8.0,2.0,-2.0,1.0,-1.0
1705326898.516185,2.0,-10.0,4.0,0.0,-1.0,-1.0,1.0,6.0
1705326898.516185,-11.0,-36.0,-18.0,-6.0,-3.0,-3.0,-11.0,-19.0
1705326898.516185,-7.0,-9.0,-16.0,1.0,-1.0,-2.0,4.0,-21.0
1705326898.5361874,6.0,81.0,14.0,4.0,-1.0,1.0,-2.0,12.0
1705326898.5361874,3.0,-7.0,-2.0,-1.0,0.0,0.0,1.0,-9.0
1705326898.5361874,-9.0,-31.0,-1.0,0.0,-2.0,-1.0,-2.0,0.0
1705326898.5361874,6.0,-12.0,-16.0,-5.0,-4.0,-1.0,4.0,7.0
1705326898.5461862,4.0,-35.0,-28.0,1.0,1.0,1.0,9.0,23.0
1705326898.5461862,1.0,32.0,0.0,-12.0,-4.0,-3.0,-13.0,-21.0
1705326898.5461862,9.0,53.0,15.0,0.0,0.0,1.0,2.0,11.0
1705326898.5461862,-4.0,11.0,-5.0,3.0,5.0,2.0,3.0,-4.0
1705326898.5861797,-5.0,-21.0,18.0,-6.0,-5.0,-7.0,-5.0,3.0
1705326898.5861797,-4.0,-28.0,-17.0,-1.0,-2.0,-1.0,6.0,-5.0
1705326898.5861797,1.0,5.0,17.0,7.0,-1.0,-1.0,-3.0,6.0
1705326898.5861797,-3.0,21.0,8.0,8.0,0.0,1.0,0.0,6.0
1705326898.5961797,-8.0,1.0,4.0,-17.0,-5.0,-7.0,-16.0,-17.0
1705326898.5961797,-1.0,-27.0,-9.0,8.0,3.0,2.0,9.0,11.0
1705326898.5961797,5.0,16.0,4.0,-6.0,-4.0,0.0,-3.0,-14.0
1705326898.5961797,3.0,57.0,19.0,2.0,0.0,0.0,11.0,29.0
1705326898.606184,-17.0,-18.0,-5.0,-6.0,-4.0,-6.0,-14.0,-27.0
1705326898.606184,-1.0,-6.0,1.0,-3.0,-3.0,-3.0,-8.0,3.0
1705326898.6161852,2.0,-21.0,-15.0,-6.0,1.0,-1.0,0.0,-14.0
1705326898.6161852,5.0,2.0,-3.0,-3.0,0.0,2.0,6.0,30.0
1705326898.6361842,1.0,15.0,-3.0,9.0,-1.0,0.0,1.0,6.0
1705326898.6361842,-6.0,-7.0,1.0,-7.0,-1.0,-1.0,-4.0,-23.0
1705326898.6361842,1.0,2.0,0.0,2.0,3.0,0.0,-4.0,12.0
1705326898.6361842,-15.0,-41.0,-29.0,-14.0,-8.0,-4.0,-5.0,-24.0
1705326898.6561825,1.0,-32.0,-6.0,-1.0,-1.0,1.0,4.0,0.0
1705326898.6561825,-2.0,45.0,13.0,3.0,-2.0,-5.0,4.0,8.0
1705326898.6561825,-6.0,-18.0,-11.0,-6.0,3.0,-1.0,-19.0,-10.0
1705326898.6561825,1.0,-16.0,15.0,-1.0,-4.0,-4.0,-4.0,-6.0
1705326898.6661851,1.0,1.0,8.0,11.0,2.0,-1.0,-7.0,-2.0
1705326898.6661851,4.0,24.0,-18.0,-10.0,-5.0,-1.0,-2.0,2.0
1705326898.6761832,4.0,-3.0,3.0,14.0,0.0,3.0,15.0,4.0
1705326898.6761832,-13.0,-38.0,6.0,-10.0,3.0,-3.0,-14.0,-14.0
1705326898.7061813,9.0,25.0,1.0,9.0,3.0,2.0,4.0,5.0
1705326898.7061813,1.0,-8.0,23.0,7.0,3.0,3.0,1.0,3.0
1705326898.7061813,3.0,-13.0,-15.0,-9.0,0.0,0.0,13.0,8.0
1705326898.7061813,-1.0,-19.0,-14.0,3.0,-6.0,-7.0,-11.0,-19.0
1705326898.7161806,-11.0,19.0,6.0,-8.0,-7.0,-4.0,-13.0,-37.0
1705326898.7161806,6.0,-16.0,-23.0,1.0,0.0,0.0,-4.0,5.0
1705326898.7161806,-4.0,21.0,6.0,1.0,2.0,1.0,1.0,-15.0
1705326898.7161806,-1.0,-31.0,-2.0,2.0,2.0,1.0,9.0,26.0
1705326898.7461808,1.0,-23.0,-22.0,-3.0,-3.0,-2.0,0.0,-2.0
1705326898.7461808,-4.0,48.0,3.0,-12.0,-9.0,-4.0,0.0,-1.0
1705326898.7461808,-5.0,-46.0,-23.0,-6.0,0.0,6.0,-5.0,-6.0
1705326898.7461808,3.0,47.0,15.0,6.0,4.0,1.0,-2.0,-13.0
1705326898.7461808,-5.0,14.0,7.0,2.0,-3.0,-2.0,0.0,13.0
1705326898.7461808,-1.0,-16.0,-6.0,-9.0,-1.0,3.0,2.0,2.0
1705326898.756179,0.0,-39.0,-6.0,6.0,-3.0,-2.0,11.0,9.0
1705326898.756179,0.0,67.0,-4.0,-15.0,-1.0,-1.0,-1.0,9.0
1705326898.776181,-9.0,-58.0,3.0,5.0,5.0,-2.0,0.0,-25.0
1705326898.776181,-16.0,-40.0,-10.0,-3.0,-2.0,-2.0,-14.0,16.0
1705326898.776181,-9.0,62.0,24.0,-8.0,-8.0,-5.0,-4.0,-23.0
1705326898.776181,7.0,6.0,-19.0,-3.0,-1.0,-2.0,-3.0,7.0
1705326898.7961812,2.0,-23.0,-9.0,-5.0,3.0,-1.0,15.0,18.0
1705326898.7961812,6.0,-3.0,23.0,15.0,5.0,1.0,4.0,-7.0
1705326898.7961812,-2.0,10.0,7.0,9.0,-3.0,-8.0,-3.0,-1.0
1705326898.7961812,6.0,-74.0,-2.0,8.0,5.0,6.0,1.0,10.0
1705326898.8061829,1.0,54.0,7.0,-7.0,1.0,4.0,8.0,16.0
1705326898.8061829,3.0,12.0,-16.0,-15.0,-6.0,-2.0,7.0,-2.0
1705326898.8161814,7.0,54.0,4.0,6.0,0.0,-2.0,-12.0,1.0
1705326898.8161814,-8.0,9.0,4.0,-10.0,-5.0,-3.0,0.0,-1.0
1705326898.8361838,6.0,14.0,-6.0,-2.0,1.0,0.0,0.0,10.0
1705326898.8361838,4.0,23.0,5.0,7.0,1.0,2.0,9.0,-6.0
1705326898.8361838,5.0,21.0,21.0,-1.0,-3.0,-2.0,5.0,28.0
1705326898.8361838,2.0,-67.0,-50.0,14.0,-4.0,-5.0,-20.0,-45.0
1705326898.856181,-9.0,-4.0,0.0,-13.0,-1.0,3.0,-6.0,-1.0
1705326898.856181,11.0,24.0,-3.0,-1.0,3.0,1.0,3.0,24.0
1705326898.856181,-3.0,-35.0,0.0,-2.0,-2.0,-4.0,-9.0,-33.0
1705326898.856181,-2.0,6.0,13.0,1.0,2.0,-1.0,7.0,11.0
1705326898.8661819,6.0,-5.0,5.0,5.0,-7.0,-2.0,2.0,7.0
1705326898.8661819,-6.0,-2.0,3.0,-3.0,-2.0,-1.0,-8.0,-23.0
1705326898.876181,0.0,-10.0,1.0,-5.0,4.0,4.0,2.0,6.0
1705326898.876181,-2.0,-11.0,-24.0,-10.0,-4.0,-3.0,-2.0,7.0
1705326898.8961787,1.0,5.0,-12.0,7.0,-1.0,-1.0,1.0,0.0
1705326898.8961787,-10.0,74.0,40.0,-2.0,-1.0,-1.0,-7.0,-20.0
1705326898.8961787,-3.0,-10.0,-9.0,-4.0,-4.0,-5.0,0.0,11.0
1705326898.8961787,3.0,4.0,-8.0,-1.0,-2.0,-3.0,-3.0,2.0
1705326898.9161823,4.0,-18.0,29.0,1.0,2.0,5.0,10.0,10.0
1705326898.9161823,-1.0,21.0,19.0,3.0,-2.0,-4.0,-3.0,-29.0
1705326898.9161823,-29.0,-26.0,-1.0,-11.0,-2.0,-1.0,-3.0,-26.0
1705326898.9161823,14.0,74.0,52.0,19.0,5.0,3.0,1.0,10.0
1705326898.926187,-1.0,26.0,-22.0,-13.0,-2.0,-4.0,5.0,-2.0
1705326898.926187,0.0,3.0,4.0,2.0,-2.0,0.0,-6.0,15.0
1705326898.936217,0.0,-4.0,-5.0,0.0,0.0,1.0,1.0,8.0
1705326898.936217,-6.0,5.0,13.0,-3.0,-3.0,-2.0,2.0,-9.0
1705326898.973511,-3.0,-5.0,9.0,8.0,-4.0,-6.0,-6.0,-4.0
1705326898.973511,-7.0,-56.0,-37.0,-9.0,-2.0,-4.0,6.0,12.0
1705326898.973511,7.0,-2.0,-10.0,-2.0,1.0,1.0,-2.0,6.0
1705326898.973511,-5.0,-19.0,-3.0,-4.0,-4.0,-1.0,-1.0,-6.0
1705326898.9765086,8.0,28.0,-3.0,8.0,5.0,4.0,5.0,20.0
1705326898.9765086,-6.0,-13.0,-24.0,1.0,-5.0,-7.0,-6.0,-21.0
1705326898.9795127,6.0,2.0,11.0,0.0,-2.0,-1.0,-3.0,7.0
1705326898.9795127,-12.0,-5.0,-6.0,-14.0,-5.0,-1.0,-4.0,8.0
1705326898.9889762,-1.0,0.0,2.0,3.0,2.0,1.0,2.0,-7.0
1705326898.9889762,-8.0,-24.0,-1.0,7.0,2.0,-1.0,-10.0,-13.0
1705326898.9889762,5.0,12.0,15.0,16.0,5.0,1.0,13.0,16.0
1705326898.9889762,-3.0,-26.0,-8.0,2.0,-1.0,0.0,-2.0,-10.0
1705326899.0089808,-8.0,-2.0,-8.0,-5.0,-6.0,-5.0,-8.0,5.0
1705326899.0089808,8.0,1.0,-12.0,-12.0,-2.0,2.0,9.0,12.0
1705326899.0189822,-4.0,-33.0,-36.0,3.0,-4.0,-2.0,-1.0,-4.0
1705326899.0189822,4.0,31.0,17.0,-5.0,2.0,3.0,11.0,19.0
1705326899.0289812,0.0,-5.0,2.0,2.0,0.0,-2.0,-20.0,-15.0
1705326899.0289812,-2.0,-14.0,-4.0,2.0,0.0,-2.0,-10.0,-8.0
1705326899.0389795,-4.0,-13.0,-14.0,-11.0,-2.0,-1.0,0.0,3.0
1705326899.0389795,2.0,22.0,-9.0,-4.0,-4.0,-2.0,1.0,-6.0
1705326899.048981,-6.0,-31.0,16.0,12.0,-1.0,2.0,7.0,-5.0
1705326899.048981,4.0,-25.0,-12.0,-4.0,1.0,-2.0,-11.0,-17.0
1705326899.048981,2.0,-14.0,-7.0,-3.0,-1.0,-1.0,-11.0,-3.0
1705326899.048981,-10.0,-27.0,-34.0,-11.0,-4.0,-3.0,0.0,-6.0
1705326899.0689793,3.0,28.0,4.0,-8.0,0.0,2.0,1.0,-8.0
1705326899.0689793,0.0,-15.0,9.0,10.0,-1.0,2.0,6.0,18.0
1705326899.0789793,-4.0,7.0,-2.0,-5.0,-1.0,0.0,-1.0,-24.0
1705326899.0789793,-4.0,2.0,2.0,6.0,0.0,-4.0,-11.0,3.0
1705326899.0889823,-2.0,-10.0,-8.0,-5.0,-3.0,-2.0,3.0,-5.0
1705326899.0889823,1.0,-2.0,-6.0,4.0,2.0,3.0,3.0,11.0
1705326899.108982,-8.0,24.0,16.0,-10.0,-4.0,-5.0,-8.0,-33.0
1705326899.108982,3.0,1.0,9.0,11.0,3.0,3.0,3.0,5.0
1705326899.108982,-16.0,-6.0,-16.0,-20.0,-8.0,-5.0,-4.0,5.0
1705326899.108982,2.0,13.0,0.0,-9.0,-1.0,3.0,7.0,20.0
1705326899.108982,-1.0,-18.0,-4.0,8.0,3.0,0.0,5.0,3.0
1705326899.108982,4.0,-11.0,5.0,4.0,0.0,-2.0,-1.0,4.0
1705326899.1489818,2.0,2.0,7.0,5.0,1.0,-2.0,-7.0,-6.0
1705326899.1489818,-5.0,13.0,5.0,3.0,1.0,-1.0,6.0,-21.0
1705326899.1489818,-8.0,-69.0,-21.0,-6.0,-4.0,-4.0,-9.0,-1.0
1705326899.1489818,-4.0,-5.0,-8.0,-9.0,-4.0,-2.0,-1.0,-6.0
1705326899.1489818,8.0,41.0,3.0,0.0,2.0,2.0,6.0,7.0
1705326899.1489818,0.0,-38.0,-2.0,-5.0,-1.0,1.0,-4.0,0.0
1705326899.1589825,18.0,16.0,17.0,8.0,4.0,2.0,13.0,21.0
1705326899.1589825,-7.0,-22.0,-24.0,-14.0,-3.0,-4.0,-15.0,-30.0
1705326899.168983,3.0,25.0,-3.0,4.0,2.0,0.0,-3.0,4.0
1705326899.168983,-3.0,-4.0,-7.0,-1.0,-2.0,-6.0,5.0,20.0
1705326899.168983,-1.0,13.0,7.0,11.0,0.0,1.0,-6.0,-19.0
1705326899.168983,4.0,10.0,1.0,-7.0,-2.0,0.0,2.0,15.0
1705326899.198979,-11.0,0.0,-21.0,-14.0,-5.0,-1.0,-5.0,-20.0
1705326899.198979,13.0,-23.0,-9.0,1.0,-5.0,-2.0,2.0,3.0
1705326899.198979,-10.0,-6.0,-11.0,-5.0,-4.0,-3.0,-14.0,0.0
1705326899.198979,6.0,-6.0,14.0,-5.0,1.0,2.0,-1.0,-14.0
1705326899.208981,-3.0,-4.0,0.0,6.0,-2.0,-2.0,2.0,2.0
1705326899.208981,3.0,4.0,20.0,18.0,4.0,4.0,9.0,22.0
1705326899.2189798,-4.0,-14.0,1.0,-16.0,-7.0,-4.0,-9.0,-19.0
1705326899.2189798,4.0,37.0,-17.0,-12.0,0.0,0.0,-2.0,5.0
1705326899.228982,0.0,-24.0,26.0,1.0,-3.0,-3.0,-8.0,0.0
1705326899.228982,-5.0,20.0,8.0,-9.0,3.0,0.0,2.0,-2.0
1705326899.228982,9.0,-2.0,7.0,6.0,0.0,1.0,5.0,12.0
1705326899.228982,-6.0,-10.0,-9.0,6.0,0.0,1.0,0.0,3.0
1705326899.2589796,5.0,0.0,-9.0,-4.0,-3.0,-1.0,4.0,-3.0
1705326899.2589796,-5.0,12.0,14.0,9.0,2.0,-1.0,-4.0,1.0
1705326899.2589796,0.0,0.0,11.0,2.0,-1.0,-1.0,8.0,-2.0
1705326899.2589796,-7.0,20.0,16.0,3.0,-1.0,-2.0,5.0,-15.0
1705326899.2689834,5.0,-17.0,-8.0,7.0,-1.0,-4.0,-14.0,6.0
1705326899.2689834,4.0,-10.0,1.0,-7.0,-3.0,-4.0,0.0,-1.0
1705326899.2789783,-7.0,-9.0,-9.0,-11.0,-2.0,0.0,8.0,27.0
1705326899.2789783,3.0,-41.0,11.0,12.0,1.0,4.0,9.0,9.0
1705326899.2989783,-19.0,-9.0,-16.0,-11.0,-6.0,-4.0,-8.0,-17.0
1705326899.2989783,-2.0,-14.0,-7.0,5.0,-4.0,-5.0,-8.0,-13.0
1705326899.2989783,3.0,30.0,11.0,8.0,2.0,0.0,2.0,15.0
1705326899.308979,0.0,-35.0,-16.0,-13.0,0.0,0.0,5.0,9.0
1705326899.308979,2.0,22.0,12.0,6.0,3.0,1.0,1.0,-6.0
1705326899.308979,-7.0,-48.0,-34.0,-9.0,-4.0,-3.0,-10.0,-8.0
1705326899.31898,-2.0,21.0,15.0,1.0,-1.0,0.0,-4.0,-24.0
1705326899.31898,0.0,6.0,15.0,13.0,1.0,-3.0,-6.0,-1.0
1705326899.328978,-1.0,-37.0,-14.0,-3.0,2.0,0.0,5.0,2.0
1705326899.328978,1.0,26.0,9.0,11.0,4.0,1.0,4.0,5.0
1705326899.338978,3.0,-3.0,-1.0,0.0,2.0,1.0,-2.0,-8.0
1705326899.338978,-8.0,-17.0,-2.0,-3.0,-4.0,-3.0,-1.0,17.0
1705326899.3589778,0.0,2.0,8.0,-5.0,-4.0,-5.0,-7.0,-11.0
1705326899.3589778,-6.0,39.0,-6.0,-13.0,-4.0,-1.0,-7.0,-19.0
1705326899.3589778,1.0,7.0,-10.0,4.0,-2.0,-4.0,0.0,13.0
1705326899.3589778,-1.0,-36.0,-13.0,0.0,0.0,0.0,-1.0,-3.0
1705326899.3689795,-6.0,25.0,-1.0,1.0,1.0,2.0,12.0,8.0
1705326899.3689795,-4.0,-31.0,-20.0,-7.0,-3.0,-3.0,-11.0,-15.0
1705326899.3689795,5.0,12.0,-9.0,2.0,1.0,-1.0,-5.0,2.0
1705326899.3689795,-3.0,25.0,3.0,0.0,-9.0,-4.0,-4.0,-12.0
1705326899.3889792,-2.0,2.0,-12.0,-16.0,-3.0,-2.0,-1.0,4.0
1705326899.3889792,-4.0,16.0,11.0,-2.0,-1.0,0.0,3.0,5.0
1705326899.3989816,7.0,36.0,6.0,-5.0,0.0,-3.0,-5.0,-8.0
1705326899.3989816,0.0,-15.0,9.0,12.0,0.0,1.0,4.0,3.0
1705326899.4089775,2.0,-38.0,-12.0,-2.0,4.0,0.0,-3.0,-12.0
1705326899.4089775,4.0,15.0,6.0,2.0,3.0,3.0,0.0,20.0
1705326899.4089775,-8.0,-5.0,-5.0,2.0,-4.0,-1.0,1.0,-10.0
1705326899.4089775,2.0,19.0,9.0,1.0,4.0,3.0,10.0,11.0
1705326899.4289875,-1.0,-17.0,-18.0,2.0,-4.0,-5.0,-14.0,-8.0
1705326899.4289875,0.0,-21.0,-6.0,-6.0,-1.0,1.0,9.0,11.0
1705326899.4389825,-3.0,-6.0,-3.0,3.0,1.0,1.0,-3.0,-5.0
1705326899.4389825,-15.0,13.0,-22.0,-5.0,-3.0,-3.0,4.0,2.0
1705326899.458983,-1.0,35.0,19.0,-2.0,-4.0,0.0,-8.0,-11.0
1705326899.458983,-1.0,9.0,4.0,-6.0,1.0,2.0,4.0,-3.0
1705326899.4689841,-3.0,12.0,14.0,6.0,-1.0,0.0,3.0,16.0
1705326899.4689841,-1.0,27.0,-12.0,2.0,-1.0,-3.0,-9.0,-10.0
1705326899.4689841,7.0,-7.0,7.0,-1.0,2.0,2.0,7.0,6.0
1705326899.4689841,-5.0,8.0,0.0,-1.0,-7.0,-3.0,-7.0,-10.0
1705326899.4689841,-2.0,3.0,-4.0,-4.0,1.0,1.0,1.0,4.0
1705326899.4689841,1.0,-23.0,-17.0,-12.0,0.0,-4.0,3.0,-9.0
1705326899.4973042,-2.0,15.0,26.0,8.0,0.0,-4.0,-15.0,-4.0
1705326899.4973042,0.0,17.0,2.0,11.0,2.0,0.0,-1.0,-11.0
1705326899.4983046,-1.0,-17.0,-21.0,-7.0,-2.0,-1.0,2.0,15.0
1705326899.4983046,4.0,4.0,18.0,2.0,-3.0,-1.0,-4.0,-11.0
1705326899.5150845,-5.0,3.0,-14.0,-6.0,-5.0,-3.0,4.0,10.0
1705326899.5150845,2.0,10.0,11.0,-4.0,-3.0,-2.0,-3.0,-19.0
1705326899.5250826,1.0,-8.0,-10.0,-4.0,1.0,0.0,-1.0,17.0
1705326899.5250826,0.0,24.0,-8.0,-1.0,1.0,-2.0,-2.0,-17.0
1705326899.5250826,1.0,-54.0,4.0,0.0,3.0,1.0,0.0,7.0
1705326899.5250826,4.0,6.0,-7.0,-3.0,0.0,0.0,0.0,-15.0
1705326899.535081,-7.0,-7.0,28.0,-1.0,-3.0,0.0,-14.0,1.0
1705326899.535081,8.0,-11.0,1.0,7.0,4.0,3.0,3.0,5.0
1705326899.5550807,-8.0,28.0,-13.0,-9.0,0.0,3.0,10.0,3.0
1705326899.5550807,-4.0,-22.0,14.0,1.0,-1.0,-3.0,-2.0,3.0
1705326899.5550807,0.0,5.0,1.0,0.0,-1.0,-2.0,-4.0,-2.0
1705326899.5550807,-5.0,-50.0,-2.0,-16.0,-5.0,-4.0,-7.0,-10.0
1705326899.5750837,1.0,-12.0,-21.0,14.0,2.0,-4.0,3.0,10.0
1705326899.5750837,-10.0,-10.0,-1.0,1.0,-2.0,-3.0,-5.0,-17.0
1705326899.5750837,3.0,-8.0,-14.0,0.0,3.0,1.0,6.0,-1.0
1705326899.5750837,-4.0,14.0,24.0,0.0,-3.0,-3.0,-10.0,4.0
1705326899.5850816,1.0,10.0,-8.0,-8.0,-2.0,1.0,7.0,-5.0
1705326899.5850816,6.0,-11.0,0.0,-6.0,-4.0,-1.0,1.0,18.0
1705326899.5950797,4.0,7.0,-2.0,-1.0,-1.0,-2.0,4.0,-13.0
1705326899.5950797,-5.0,-10.0,5.0,4.0,-2.0,-6.0,-16.0,0.0
1705326899.6150823,4.0,-1.0,14.0,1.0,3.0,2.0,-6.0,-3.0
1705326899.6150823,0.0,3.0,-27.0,4.0,2.0,-1.0,-3.0,-13.0
1705326899.6150823,4.0,14.0,28.0,-4.0,-1.0,-1.0,4.0,7.0
1705326899.6150823,-6.0,15.0,-33.0,-4.0,-3.0,1.0,5.0,9.0
1705326899.6450803,3.0,10.0,4.0,-8.0,-4.0,-1.0,0.0,-19.0
1705326899.6450803,-11.0,-17.0,-2.0,-5.0,-3.0,-2.0,3.0,14.0
1705326899.6550815,-11.0,-3.0,-36.0,2.0,-2.0,-3.0,-9.0,-35.0
1705326899.6550815,1.0,-50.0,2.0,-3.0,-3.0,-1.0,-7.0,-3.0
1705326899.6550815,4.0,-11.0,-2.0,2.0,1.0,-3.0,-1.0,10.0
1705326899.6550815,2.0,36.0,17.0,-1.0,4.0,5.0,5.0,-11.0
1705326899.6550815,13.0,-38.0,-17.0,8.0,0.0,-1.0,0.0,1.0
1705326899.6550815,1.0,29.0,13.0,-7.0,-3.0,0.0,-2.0,0.0
1705326899.675081,-5.0,-27.0,-1.0,-1.0,-5.0,0.0,5.0,22.0
1705326899.675081,0.0,9.0,10.0,1.0,-2.0,-2.0,6.0,-10.0
1705326899.675081,-14.0,-64.0,-9.0,-9.0,-8.0,-7.0,-2.0,23.0
1705326899.675081,-4.0,9.0,13.0,0.0,-4.0,-5.0,-14.0,-24.0
1705326899.7050798,3.0,19.0,8.0,4.0,2.0,-2.0,5.0,14.0
1705326899.7050798,-2.0,-4.0,-10.0,-3.0,-1.0,0.0,0.0,2.0
1705326899.7150831,-12.0,26.0,12.0,-3.0,-2.0,-4.0,-16.0,-38.0
1705326899.7150831,6.0,10.0,-22.0,-4.0,-1.0,-2.0,8.0,19.0
1705326899.7250803,-11.0,14.0,17.0,-8.0,0.0,0.0,-3.0,-30.0
1705326899.7250803,2.0,-52.0,3.0,12.0,1.0,-5.0,-5.0,11.0
1705326899.7250803,1.0,0.0,-29.0,-11.0,0.0,0.0,2.0,-5.0
1705326899.7250803,2.0,0.0,0.0,-7.0,-3.0,1.0,-1.0,5.0
1705326899.735082,-4.0,-12.0,8.0,4.0,-2.0,-3.0,-4.0,-11.0
1705326899.735082,1.0,-10.0,-3.0,-1.0,-2.0,-3.0,-5.0,5.0
1705326899.735082,5.0,4.0,1.0,-8.0,-3.0,-1.0,8.0,31.0
1705326899.735082,-10.0,-17.0,2.0,7.0,3.0,0.0,-1.0,-37.0
1705326899.7750802,-2.0,-5.0,-22.0,-4.0,-3.0,-4.0,-3.0,18.0
1705326899.7750802,6.0,55.0,42.0,0.0,-6.0,-5.0,-13.0,-5.0
1705326899.7750802,-4.0,2.0,14.0,18.0,1.0,0.0,0.0,11.0
1705326899.7750802,-2.0,22.0,5.0,-6.0,3.0,1.0,7.0,-4.0
1705326899.7750802,0.0,-25.0,-17.0,-4.0,0.0,4.0,5.0,-13.0
1705326899.7750802,-4.0,-4.0,-11.0,-5.0,0.0,0.0,-4.0,0.0
1705326899.7750802,-7.0,-8.0,-7.0,-6.0,-4.0,-3.0,-4.0,-6.0
1705326899.7750802,1.0,45.0,13.0,0.0,-3.0,-3.0,-1.0,14.0
1705326899.795083,2.0,9.0,-2.0,7.0,3.0,-4.0,-3.0,-4.0
1705326899.795083,-1.0,-14.0,-12.0,7.0,2.0,4.0,0.0,13.0
1705326899.795083,5.0,55.0,10.0,8.0,6.0,2.0,7.0,8.0
1705326899.795083,-7.0,-10.0,17.0,-10.0,-4.0,-2.0,-10.0,-31.0
1705326899.82508,-2.0,-28.0,-1.0,-4.0,-4.0,-2.0,-5.0,1.0
1705326899.82508,0.0,0.0,-6.0,-8.0,-4.0,0.0,-2.0,5.0
1705326899.82508,4.0,3.0,4.0,3.0,-3.0,-2.0,0.0,3.0
1705326899.82508,0.0,11.0,-1.0,7.0,1.0,3.0,2.0,10.0
1705326899.82508,6.0,-4.0,-3.0,1.0,0.0,2.0,3.0,11.0
1705326899.82508,-3.0,-39.0,-23.0,-4.0,0.0,-1.0,5.0,-12.0
1705326899.8350818,-2.0,-3.0,-3.0,-9.0,-4.0,-6.0,-3.0,-13.0
1705326899.8350818,-3.0,-18.0,-21.0,5.0,-1.0,-8.0,-18.0,4.0
1705326899.8550808,-5.0,-17.0,2.0,-2.0,1.0,1.0,2.0,-4.0
1705326899.8550808,-6.0,-24.0,-2.0,0.0,1.0,-2.0,-1.0,-14.0
1705326899.8550808,5.0,15.0,14.0,-2.0,-1.0,2.0,6.0,2.0
1705326899.8550808,4.0,-20.0,-18.0,-4.0,-3.0,-1.0,5.0,8.0
1705326899.8850791,0.0,28.0,15.0,2.0,-2.0,-1.0,-6.0,-6.0
1705326899.8850791,-5.0,42.0,10.0,-1.0,-2.0,-4.0,-3.0,7.0
1705326899.8850791,4.0,-16.0,-7.0,-7.0,-2.0,-3.0,-5.0,-14.0
1705326899.8850791,-4.0,-35.0,-15.0,1.0,4.0,1.0,5.0,4.0
1705326899.8850791,0.0,20.0,12.0,5.0,1.0,0.0,-3.0,-1.0
1705326899.8850791,-1.0,36.0,2.0,-11.0,1.0,2.0,0.0,6.0
1705326899.895086,-11.0,-5.0,-18.0,-8.0,-7.0,-6.0,-7.0,-17.0
1705326899.895086,4.0,-1.0,-17.0,3.0,0.0,2.0,4.0,11.0
1705326899.925081,0.0,12.0,21.0,5.0,0.0,0.0,1.0,-9.0
1705326899.925081,1.0,-17.0,-5.0,-3.0,-1.0,-1.0,-1.0,13.0
1705326899.925081,1.0,21.0,7.0,2.0,3.0,2.0,-3.0,-4.0
1705326899.925081,6.0,-25.0,-4.0,1.0,-2.0,-5.0,3.0,11.0
1705326899.935084,-6.0,-21.0,-17.0,-10.0,-5.0,-4.0,-4.0,10.0
1705326899.935084,3.0,-1.0,-15.0,2.0,2.0,2.0,-1.0,-8.0
1705326899.935084,-5.0,47.0,45.0,-3.0,-3.0,-2.0,-3.0,-1.0
1705326899.935084,2.0,34.0,28.0,1.0,2.0,2.0,1.0,-4.0
1705326899.9450846,5.0,-4.0,-10.0,15.0,1.0,2.0,4.0,15.0
1705326899.9450846,-2.0,-3.0,9.0,-9.0,-6.0,-2.0,3.0,-4.0
1705326899.9550827,-4.0,-31.0,-22.0,-9.0,-1.0,-1.0,-10.0,-16.0
1705326899.9550827,-1.0,34.0,22.0,1.0,0.0,0.0,-1.0,5.0
1705326899.9850824,2.0,5.0,24.0,7.0,1.0,-2.0,-1.0,-6.0
1705326899.9850824,-11.0,-23.0,-34.0,-15.0,-6.0,-5.0,-5.0,-6.0
1705326899.9850824,-4.0,1.0,2.0,-2.0,-3.0,0.0,1.0,1.0
1705326899.9850824,3.0,35.0,2.0,-7.0,-7.0,-4.0,-2.0,-2.0
1705326900.005082,-7.0,-15.0,-5.0,-3.0,-3.0,-2.0,-1.0,-19.0
1705326900.005082,8.0,15.0,11.0,13.0,3.0,-2.0,-4.0,3.0
1705326900.005082,5.0,33.0,22.0,3.0,3.0,4.0,2.0,1.0
1705326900.005082,0.0,41.0,28.0,8.0,1.0,3.0,1.0,7.0
1705326900.005082,-4.0,-15.0,-26.0,-4.0,-4.0,-8.0,-5.0,-23.0
1705326900.005082,1.0,3.0,-11.0,-11.0,-2.0,-3.0,-6.0,2.0
1705326900.032517,-2.0,-62.0,-24.0,5.0,1.0,2.0,-3.0,-12.0
1705326900.032517,4.0,59.0,7.0,-1.0,2.0,3.0,6.0,7.0
1705326900.0365388,-5.0,42.0,31.0,-9.0,-6.0,-6.0,-2.0,4.0
1705326900.0365388,1.0,-10.0,12.0,5.0,0.0,-1.0,-1.0,7.0
1705326900.0378532,-4.0,-50.0,-3.0,1.0,3.0,1.0,-2.0,-10.0
1705326900.0378532,-1.0,-71.0,-23.0,2.0,0.0,-2.0,-5.0,-7.0
1705326900.0578601,-6.0,-51.0,-56.0,-12.0,-4.0,1.0,-3.0,7.0
1705326900.0578601,-5.0,-18.0,-4.0,1.0,-6.0,-2.0,2.0,-8.0
1705326900.0578601,-4.0,0.0,11.0,2.0,1.0,3.0,3.0,17.0
1705326900.0578601,-9.0,-72.0,-20.0,-4.0,-2.0,-4.0,-1.0,-9.0
1705326900.067859,1.0,8.0,-16.0,-4.0,5.0,4.0,1.0,-1.0
1705326900.067859,5.0,19.0,-26.0,-8.0,-1.0,1.0,2.0,-1.0
1705326900.087859,-4.0,-33.0,-8.0,5.0,-4.0,-6.0,0.0,2.0
1705326900.087859,11.0,15.0,-13.0,-10.0,-1.0,0.0,-2.0,-5.0
1705326900.0978613,-6.0,14.0,8.0,0.0,1.0,0.0,2.0,8.0
1705326900.0978613,1.0,4.0,24.0,5.0,5.0,4.0,1.0,-5.0
1705326900.0978613,0.0,-9.0,-15.0,0.0,0.0,0.0,1.0,0.0
1705326900.0978613,-1.0,-24.0,-8.0,-1.0,-3.0,-3.0,-3.0,0.0
1705326900.1178548,4.0,58.0,6.0,-6.0,-2.0,0.0,-1.0,-2.0
1705326900.1178548,-5.0,-34.0,-9.0,4.0,-1.0,-3.0,-3.0,1.0
1705326900.1178548,4.0,-8.0,8.0,2.0,1.0,0.0,0.0,4.0
1705326900.1178548,-2.0,-2.0,-10.0,-6.0,0.0,1.0,1.0,4.0
1705326900.1378555,-5.0,-29.0,-10.0,-2.0,-8.0,-3.0,-4.0,-8.0
1705326900.1378555,-7.0,-3.0,-5.0,-2.0,-1.0,0.0,-2.0,0.0
1705326900.1378555,0.0,1.0,-9.0,0.0,1.0,1.0,3.0,15.0
1705326900.1378555,1.0,15.0,28.0,11.0,2.0,2.0,6.0,-14.0
1705326900.1478565,-2.0,-6.0,-14.0,-7.0,-3.0,-3.0,-11.0,6.0
1705326900.1478565,1.0,-4.0,1.0,7.0,-1.0,-7.0,-3.0,1.0
1705326900.1578572,-1.0,7.0,-1.0,-4.0,-4.0,-3.0,-12.0,-3.0
1705326900.1578572,1.0,12.0,-4.0,-1.0,1.0,2.0,3.0,6.0
1705326900.1778588,-3.0,-29.0,-5.0,-6.0,-3.0,1.0,3.0,-2.0
1705326900.1778588,1.0,8.0,3.0,0.0,3.0,3.0,2.0,1.0
1705326900.1778588,2.0,21.0,-13.0,-6.0,1.0,3.0,4.0,3.0
1705326900.1778588,-3.0,-1.0,13.0,-2.0,-5.0,-4.0,-5.0,-2.0
1705326900.1878572,7.0,16.0,2.0,3.0,2.0,-3.0,0.0,-4.0
1705326900.1878572,-3.0,-20.0,-6.0,3.0,0.0,-1.0,-5.0,-4.0
1705326900.2178576,-1.0,-15.0,2.0,1.0,2.0,2.0,3.0,-3.0
1705326900.2178576,-2.0,34.0,-19.0,2.0,2.0,1.0,-1.0,-3.0
1705326900.2178576,1.0,-22.0,-8.0,2.0,0.0,4.0,1.0,2.0
1705326900.2178576,-5.0,-4.0,-5.0,-21.0,-11.0,-8.0,-6.0,-6.0
1705326900.2178576,2.0,22.0,13.0,2.0,0.0,-5.0,1.0,-3.0
1705326900.2178576,-3.0,-15.0,5.0,2.0,2.0,1.0,0.0,5.0
1705326900.237857,0.0,0.0,11.0,8.0,0.0,0.0,-1.0,-7.0
1705326900.237857,0.0,23.0,-1.0,5.0,0.0,2.0,1.0,-5.0
1705326900.237857,2.0,-12.0,-4.0,-8.0,-6.0,-2.0,-2.0,1.0
1705326900.237857,-7.0,-10.0,0.0,-2.0,-1.0,-2.0,-1.0,2.0
1705326900.2478569,-2.0,2.0,-5.0,-4.0,0.0,1.0,1.0,-2.0
1705326900.2478569,-3.0,-4.0,-7.0,-7.0,-6.0,0.0,-4.0,1.0
1705326900.2778587,1.0,24.0,8.0,3.0,-3.0,-5.0,-1.0,-7.0
1705326900.2778587,-1.0,0.0,8.0,1.0,1.0,1.0,-4.0,-2.0
1705326900.2778587,-3.0,-7.0,20.0,0.0,2.0,-3.0,-1.0,0.0
1705326900.2778587,3.0,8.0,7.0,-5.0,-2.0,-1.0,-1.0,-1.0
1705326900.2778587,-5.0,-19.0,-40.0,-5.0,-1.0,-2.0,1.0,1.0
1705326900.2778587,-1.0,-15.0,-17.0,-10.0,-4.0,1.0,1.0,0.0
1705326900.2978559,0.0,32.0,5.0,4.0,0.0,-4.0,-1.0,-1.0
1705326900.2978559,-2.0,0.0,-4.0,4.0,2.0,-2.0,-4.0,1.0
1705326900.2978559,-3.0,23.0,11.0,-12.0,-6.0,-3.0,-4.0,-5.0
1705326900.2978559,1.0,-20.0,6.0,2.0,-3.0,0.0,0.0,0.0
1705326900.3178596,0.0,-11.0,-6.0,-4.0,-2.0,2.0,2.0,2.0
1705326900.3178596,1.0,9.0,2.0,7.0,2.0,-1.0,2.0,-3.0
1705326900.3178596,-2.0,-1.0,-9.0,0.0,0.0,1.0,-1.0,1.0
1705326900.3178596,-3.0,3.0,11.0,-6.0,-5.0,-5.0,-6.0,-6.0
1705326900.3278556,-2.0,3.0,-19.0,-6.0,-3.0,-1.0,-2.0,2.0
1705326900.3278556,-7.0,-1.0,10.0,1.0,2.0,-3.0,-3.0,-2.0
1705326900.3378556,6.0,-7.0,19.0,6.0,-2.0,-1.0,-3.0,-26.0
1705326900.3378556,-3.0,-6.0,-14.0,-7.0,-5.0,-2.0,-4.0,8.0
1705326900.3578594,1.0,-1.0,-10.0,-6.0,-3.0,-4.0,-3.0,4.0
1705326900.3578594,-2.0,-3.0,6.0,3.0,1.0,2.0,0.0,0.0
1705326900.3578594,-7.0,-3.0,-18.0,-7.0,-2.0,-2.0,-2.0,5.0
1705326900.3578594,-2.0,2.0,13.0,6.0,5.0,4.0,3.0,-4.0
1705326900.3778589,1.0,-1.0,6.0,5.0,1.0,-1.0,1.0,-5.0
1705326900.3778589,2.0,2.0,-14.0,-5.0,-1.0,2.0,3.0,2.0
1705326900.3778589,-2.0,6.0,15.0,1.0,2.0,2.0,1.0,3.0
1705326900.3778589,-2.0,0.0,2.0,0.0,-5.0,-5.0,-5.0,-6.0
1705326900.3878548,-2.0,-2.0,0.0,-4.0,-4.0,-1.0,0.0,0.0
1705326900.3878548,1.0,-4.0,5.0,2.0,-1.0,-1.0,0.0,-2.0
1705326900.3978589,-7.0,-1.0,2.0,1.0,3.0,1.0,0.0,2.0
1705326900.3978589,1.0,-5.0,-6.0,-2.0,1.0,0.0,0.0,5.0
1705326900.4178572,0.0,2.0,-3.0,3.0,-1.0,0.0,0.0,-21.0
1705326900.4178572,1.0,-4.0,3.0,-3.0,-1.0,-1.0,1.0,6.0
1705326900.4278588,-7.0,-3.0,3.0,0.0,1.0,0.0,-2.0,-8.0
1705326900.4278588,-2.0,3.0,3.0,4.0,-1.0,-1.0,-2.0,-1.0
1705326900.437855,-2.0,-8.0,30.0,-1.0,-5.0,-5.0,-3.0,7.0
1705326900.437855,0.0,-6.0,-53.0,-16.0,-6.0,-2.0,0.0,26.0
1705326900.437855,2.0,1.0,8.0,2.0,0.0,1.0,0.0,-17.0
1705326900.437855,1.0,1.0,-16.0,3.0,2.0,-1.0,0.0,1.0
1705326900.4478593,1.0,0.0,11.0,2.0,3.0,5.0,3.0,1.0
1705326900.4478593,0.0,-2.0,15.0,1.0,-1.0,-2.0,0.0,-2.0
1705326900.457856,3.0,-2.0,-4.0,-3.0,-5.0,-4.0,-1.0,9.0
1705326900.457856,0.0,9.0,2.0,1.0,-3.0,-4.0,-4.0,-9.0
1705326900.4878595,-3.0,1.0,3.0,0.0,0.0,-2.0,0.0,5.0
1705326900.4878595,-3.0,1.0,3.0,4.0,3.0,-1.0,-3.0,-12.0
1705326900.4878595,5.0,2.0,8.0,4.0,1.0,2.0,0.0,15.0
1705326900.4878595,0.0,4.0,5.0,0.0,0.0,2.0,-2.0,-30.0
1705326900.4978554,-5.0,-11.0,-43.0,-15.0,-6.0,-6.0,-3.0,4.0
1705326900.4978554,3.0,-4.0,-12.0,-4.0,2.0,4.0,1.0,-2.0
1705326900.4978554,1.0,0.0,-7.0,-3.0,-6.0,-6.0,-6.0,-11.0
1705326900.4978554,-1.0,2.0,30.0,6.0,1.0,0.0,2.0,22.0
1705326900.507862,0.0,7.0,-13.0,1.0,3.0,0.0,0.0,-24.0
1705326900.507862,-2.0,0.0,-4.0,0.0,-6.0,-4.0,-3.0,-8.0
1705326900.5178564,-4.0,-2.0,-2.0,-6.0,-2.0,-1.0,0.0,8.0
1705326900.5178564,-1.0,-4.0,-16.0,-7.0,-2.0,-3.0,1.0,10.0
1705326900.5432463,-2.0,4.0,12.0,3.0,-3.0,-2.0,-5.0,-12.0
1705326900.5432463,-2.0,2.0,24.0,4.0,1.0,1.0,4.0,-8.0
1705326900.5432463,-1.0,-5.0,0.0,-1.0,-10.0,-5.0,-9.0,6.0
1705326900.5432463,-1.0,-3.0,-4.0,-3.0,3.0,-2.0,-4.0,-8.0
1705326900.561249,2.0,1.0,9.0,4.0,1.0,-5.0,-5.0,11.0
1705326900.5622458,-2.0,-1.0,-6.0,2.0,-4.0,-1.0,-1.0,-10.0
1705326900.5622458,-7.0,-3.0,-28.0,-6.0,3.0,3.0,18.0,0.0
1705326900.5622458,3.0,-2.0,2.0,-3.0,-6.0,0.0,-6.0,-15.0
1705326900.5806963,-2.0,1.0,2.0,-3.0,-6.0,-6.0,-2.0,7.0
1705326900.5806963,-5.0,-6.0,-8.0,2.0,11.0,5.0,-1.0,2.0
1705326900.5806963,2.0,8.0,7.0,1.0,1.0,1.0,-6.0,-10.0
1705326900.5806963,1.0,1.0,-9.0,-1.0,1.0,0.0,3.0,4.0
1705326900.5906956,2.0,-10.0,-4.0,-6.0,-3.0,3.0,3.0,13.0
1705326900.5906956,-6.0,-7.0,3.0,-8.0,3.0,-2.0,-11.0,-39.0
1705326900.5906956,-6.0,-6.0,-13.0,-1.0,-14.0,-3.0,4.0,3.0
1705326900.5906956,5.0,0.0,11.0,9.0,16.0,10.0,9.0,8.0
1705326900.6206965,-8.0,5.0,6.0,1.0,1.0,-3.0,-7.0,-17.0
1705326900.6206965,-1.0,2.0,-1.0,-4.0,-3.0,-3.0,2.0,14.0
1705326900.6206965,-3.0,-2.0,-3.0,0.0,4.0,0.0,-3.0,0.0
1705326900.6206965,-1.0,-10.0,0.0,-9.0,-8.0,-2.0,-1.0,-3.0
1705326900.6406949,-3.0,-10.0,-35.0,-8.0,-7.0,0.0,2.0,3.0
1705326900.6406949,1.0,11.0,20.0,2.0,-5.0,1.0,-5.0,11.0
1705326900.6406949,2.0,7.0,15.0,6.0,10.0,4.0,1.0,-8.0
1705326900.6406949,-1.0,3.0,12.0,6.0,4.0,-3.0,-2.0,3.0
1705326900.650698,7.0,0.0,13.0,5.0,12.0,2.0,4.0,17.0
1705326900.650698,3.0,0.0,1.0,-7.0,-18.0,-10.0,-7.0,-21.0
1705326900.650698,-12.0,2.0,14.0,3.0,4.0,4.0,-17.0,-7.0
1705326900.650698,-12.0,-13.0,-28.0,-9.0,-7.0,-5.0,1.0,-5.0
1705326900.6806953,21.0,3.0,0.0,-4.0,-7.0,-9.0,-8.0,11.0
1705326900.6806953,-18.0,-5.0,1.0,0.0,-4.0,3.0,26.0,-10.0
1705326900.6806953,10.0,-1.0,-20.0,-5.0,6.0,-3.0,14.0,12.0
1705326900.6806953,-8.0,4.0,9.0,5.0,4.0,0.0,-18.0,-7.0
1705326900.6907008,-10.0,2.0,12.0,8.0,-8.0,1.0,-2.0,4.0
1705326900.6907008,12.0,3.0,21.0,3.0,0.0,0.0,6.0,17.0
1705326900.7006998,0.0,-6.0,-32.0,-4.0,-2.0,2.0,4.0,-8.0
1705326900.7006998,-4.0,-13.0,-45.0,-9.0,2.0,2.0,12.0,-1.0
1705326900.710695,-1.0,-6.0,1.0,-5.0,-2.0,-5.0,-6.0,-9.0
1705326900.710695,1.0,-1.0,2.0,-9.0,-5.0,-5.0,-12.0,7.0
1705326900.710695,1.0,5.0,22.0,5.0,2.0,-4.0,0.0,11.0
1705326900.710695,2.0,10.0,19.0,5.0,-5.0,-3.0,-8.0,-31.0
1705326900.7406983,-5.0,-4.0,-11.0,-2.0,7.0,8.0,6.0,-7.0
1705326900.7406983,4.0,0.0,9.0,10.0,16.0,4.0,-3.0,3.0
1705326900.7406983,6.0,-4.0,11.0,-7.0,-8.0,-2.0,4.0,20.0
1705326900.7406983,2.0,-2.0,3.0,-7.0,-15.0,-11.0,-10.0,4.0
1705326900.7606971,-2.0,4.0,19.0,0.0,-5.0,-1.0,-14.0,-17.0
1705326900.7606971,-3.0,0.0,-4.0,-5.0,-8.0,-9.0,-8.0,1.0
1705326900.7606971,-2.0,-3.0,-11.0,0.0,2.0,-3.0,-6.0,1.0
1705326900.7606971,13.0,4.0,10.0,5.0,7.0,9.0,16.0,9.0
1705326900.770696,-26.0,1.0,-3.0,2.0,-1.0,0.0,1.0,-5.0
1705326900.770696,7.0,1.0,-5.0,3.0,6.0,3.0,-7.0,-13.0
1705326900.770696,-2.0,-9.0,-33.0,-6.0,4.0,7.0,24.0,29.0
1705326900.770696,-2.0,10.0,-9.0,-4.0,6.0,-7.0,-5.0,12.0
1705326900.8006995,13.0,-7.0,-1.0,-1.0,-19.0,-2.0,6.0,5.0
1705326900.8006995,0.0,-2.0,18.0,2.0,2.0,-8.0,-11.0,-5.0
1705326900.8006995,-4.0,-1.0,16.0,1.0,-16.0,-7.0,-13.0,1.0
1705326900.8006995,-4.0,2.0,61.0,8.0,27.0,20.0,10.0,-2.0
1705326900.8306973,4.0,9.0,-30.0,-4.0,3.0,0.0,4.0,7.0
1705326900.8306973,-2.0,1.0,5.0,4.0,-5.0,4.0,-11.0,9.0
1705326900.8306973,0.0,-3.0,-31.0,-7.0,-13.0,-7.0,4.0,-26.0
1705326900.8306973,-4.0,-8.0,-8.0,-2.0,-15.0,-10.0,-19.0,24.0
1705326900.8306973,14.0,0.0,19.0,0.0,9.0,7.0,-8.0,-14.0
1705326900.8306973,-15.0,-1.0,-17.0,3.0,0.0,-7.0,4.0,-35.0
1705326900.8306973,-12.0,3.0,0.0,0.0,6.0,4.0,5.0,7.0
1705326900.8306973,3.0,-2.0,3.0,-8.0,-16.0,1.0,18.0,-4.0
1705326900.870698,6.0,-2.0,-2.0,0.0,1.0,-7.0,-10.0,7.0
1705326900.870698,1.0,-2.0,4.0,-1.0,0.0,2.0,-3.0,-6.0
1705326900.870698,-6.0,-3.0,7.0,2.0,4.0,-2.0,-12.0,16.0
1705326900.870698,-4.0,-5.0,-42.0,-6.0,-6.0,-5.0,-7.0,-7.0
1705326900.880697,-6.0,-3.0,-1.0,-9.0,-6.0,-2.0,13.0,14.0
1705326900.880697,-1.0,-3.0,-27.0,-6.0,15.0,0.0,2.0,-25.0
1705326900.880697,-6.0,0.0,22.0,7.0,-16.0,1.0,-2.0,-17.0
1705326900.880697,-5.0,-5.0,9.0,4.0,16.0,3.0,-15.0,-6.0
1705326900.890695,-3.0,1.0,-24.0,8.0,6.0,1.0,13.0,7.0
1705326900.890695,-6.0,-1.0,5.0,-4.0,-2.0,1.0,-1.0,-22.0
1705326900.890695,4.0,-7.0,-9.0,-17.0,-14.0,-9.0,-8.0,15.0
1705326900.890695,0.0,0.0,1.0,-9.0,-17.0,-5.0,-4.0,-27.0
1705326900.930697,-1.0,3.0,14.0,11.0,8.0,6.0,0.0,10.0
1705326900.930697,1.0,-7.0,-21.0,-3.0,2.0,-14.0,-5.0,9.0
1705326900.930697,10.0,3.0,5.0,12.0,22.0,11.0,10.0,2.0
1705326900.930697,5.0,1.0,5.0,-1.0,-11.0,-12.0,8.0,23.0
1705326900.9406965,-18.0,-1.0,13.0,-6.0,-6.0,-6.0,-5.0,-13.0
1705326900.9406965,4.0,2.0,5.0,-2.0,-18.0,3.0,-8.0,21.0
1705326900.9406965,-16.0,-7.0,-42.0,-13.0,-24.0,-15.0,-13.0,-37.0
1705326900.9406965,8.0,3.0,8.0,8.0,21.0,7.0,-12.0,5.0
1705326900.9506962,-12.0,0.0,-4.0,-3.0,5.0,10.0,9.0,-9.0
1705326900.9506962,5.0,5.0,5.0,4.0,-13.0,-13.0,4.0,21.0
1705326900.9506962,2.0,-8.0,-16.0,-6.0,8.0,4.0,-9.0,-6.0
1705326900.9506962,-10.0,-6.0,-1.0,-1.0,-7.0,-1.0,4.0,0.0
1705326900.9906974,1.0,1.0,2.0,-5.0,-10.0,-9.0,-13.0,21.0
1705326900.9906974,4.0,-4.0,10.0,-2.0,-2.0,2.0,-3.0,-22.0
1705326900.9906974,-2.0,-1.0,13.0,2.0,3.0,-1.0,2.0,-4.0
1705326900.9906974,-5.0,-1.0,-9.0,-3.0,-7.0,0.0,2.0,-8.0
1705326901.0006979,6.0,0.0,-9.0,4.0,15.0,7.0,-2.0,-4.0
1705326901.0006979,3.0,3.0,10.0,4.0,15.0,4.0,8.0,12.0
1705326901.0006979,2.0,4.0,6.0,-4.0,-10.0,-8.0,-14.0,0.0
1705326901.0006979,-5.0,0.0,-18.0,-1.0,20.0,11.0,-9.0,-10.0
1705326901.0106962,3.0,-4.0,22.0,14.0,4.0,3.0,32.0,4.0
1705326901.0106962,-5.0,1.0,28.0,-2.0,-7.0,-2.0,-20.0,8.0
1705326901.0106962,7.0,2.0,6.0,-1.0,-6.0,-5.0,-2.0,22.0
1705326901.0106962,-7.0,-4.0,-8.0,-10.0,-11.0,-4.0,-1.0,-29.0
1705326901.0506964,-1.0,-4.0,-19.0,-9.0,-8.0,-2.0,4.0,-13.0
1705326901.0506964,9.0,2.0,4.0,10.0,10.0,-1.0,7.0,7.0
1705326901.0506964,-24.0,-7.0,-6.0,2.0,19.0,16.0,-3.0,19.0
1705326901.0506964,7.0,-3.0,7.0,-3.0,-36.0,-24.0,12.0,20.0
1705326901.060696,-1.0,0.0,-17.0,6.0,26.0,18.0,-2.0,-12.0
1705326901.060696,-2.0,-1.0,11.0,-3.0,-5.0,3.0,16.0,10.0
1705326901.060696,3.0,0.0,2.0,-2.0,-4.0,-9.0,-5.0,-24.0
1705326901.060696,-2.0,0.0,0.0,0.0,-2.0,-3.0,-2.0,0.0
1705326901.0791306,-2.0,-2.0,4.0,-6.0,-14.0,-7.0,-12.0,-3.0
1705326901.0791306,-1.0,1.0,17.0,-1.0,-3.0,4.0,-7.0,20.0
1705326901.08013,4.0,-4.0,-15.0,-8.0,3.0,-1.0,18.0,-17.0
1705326901.08013,-3.0,0.0,17.0,7.0,3.0,5.0,-14.0,-2.0
1705326901.1135724,11.0,3.0,-7.0,1.0,0.0,-8.0,-3.0,33.0
1705326901.1135724,0.0,-1.0,-13.0,-2.0,-11.0,5.0,-4.0,-2.0
1705326901.1135724,30.0,7.0,41.0,6.0,-6.0,-6.0,-7.0,-4.0
1705326901.1135724,-32.0,-5.0,-37.0,-11.0,-1.0,-5.0,0.0,3.0
1705326901.1135724,3.0,1.0,0.0,0.0,-2.0,-3.0,-18.0,20.0
1705326901.1135724,-7.0,-10.0,-29.0,-3.0,2.0,2.0,2.0,10.0
1705326901.1235712,-2.0,-1.0,34.0,1.0,-2.0,-3.0,10.0,-14.0
1705326901.1235712,9.0,3.0,-20.0,0.0,-2.0,0.0,5.0,6.0
1705326901.1335735,-6.0,1.0,45.0,2.0,3.0,-5.0,-13.0,-25.0
1705326901.1335735,-6.0,-8.0,-54.0,-5.0,6.0,17.0,22.0,-5.0
1705326901.1335735,-2.0,-1.0,-4.0,4.0,-7.0,-14.0,-13.0,0.0
1705326901.1335735,2.0,-1.0,-5.0,-3.0,6.0,3.0,0.0,-8.0
1705326901.1635735,-7.0,-2.0,-20.0,-12.0,-14.0,-10.0,7.0,-11.0
1705326901.1635735,-2.0,0.0,15.0,3.0,3.0,-2.0,-5.0,3.0
1705326901.1635735,12.0,6.0,-9.0,5.0,6.0,11.0,0.0,13.0
1705326901.1635735,-15.0,-3.0,-9.0,3.0,3.0,-1.0,-16.0,-30.0
1705326901.1735704,5.0,0.0,4.0,-5.0,-13.0,-8.0,3.0,9.0
1705326901.1735704,-7.0,-6.0,1.0,-8.0,11.0,-7.0,-10.0,-30.0
1705326901.1835744,-2.0,3.0,2.0,0.0,-16.0,4.0,4.0,-3.0
1705326901.1835744,8.0,0.0,6.0,6.0,14.0,-1.0,1.0,13.0
1705326901.1935756,2.0,-1.0,-6.0,4.0,0.0,3.0,-6.0,-5.0
1705326901.1935756,-7.0,-2.0,23.0,-3.0,-6.0,-10.0,-3.0,-5.0
1705326901.1935756,-5.0,-5.0,-33.0,-5.0,-1.0,-2.0,-2.0,6.0
1705326901.1935756,7.0,-5.0,-26.0,-5.0,-3.0,-4.0,-12.0,-3.0
1705326901.2135732,-7.0,-5.0,0.0,-8.0,-5.0,4.0,24.0,-12.0
1705326901.2135732,2.0,3.0,2.0,1.0,-2.0,0.0,-1.0,8.0
1705326901.2135732,1.0,1.0,14.0,10.0,14.0,6.0,-5.0,-7.0
1705326901.2135732,0.0,-3.0,4.0,-4.0,-10.0,-5.0,20.0,12.0
1705326901.2335796,-2.0,-3.0,-18.0,-5.0,-4.0,-11.0,-6.0,-12.0
1705326901.2335796,1.0,1.0,24.0,-3.0,-15.0,-5.0,-10.0,-4.0
1705326901.2435734,-4.0,-2.0,-14.0,5.0,45.0,18.0,-3.0,6.0
1705326901.2435734,0.0,-2.0,-18.0,1.0,-1.0,6.0,10.0,0.0
1705326901.2635734,0.0,2.0,2.0,-2.0,5.0,4.0,-7.0,-5.0
1705326901.2635734,1.0,1.0,-4.0,-4.0,-13.0,-7.0,8.0,0.0
1705326901.2635734,-7.0,-3.0,9.0,-4.0,-5.0,-4.0,-17.0,-7.0
1705326901.2735808,2.0,0.0,22.0,-1.0,-6.0,1.0,22.0,13.0
1705326901.2735808,-2.0,-2.0,-18.0,-3.0,-3.0,-6.0,-11.0,-14.0
1705326901.2735808,3.0,0.0,-13.0,-2.0,-1.0,3.0,1.0,10.0
1705326901.2735808,-16.0,3.0,8.0,3.0,-2.0,-1.0,2.0,-7.0
1705326901.2735808,5.0,-1.0,4.0,-4.0,0.0,2.0,-2.0,-3.0
1705326901.3035724,-2.0,-1.0,15.0,-3.0,-9.0,-8.0,-8.0,-5.0
1705326901.3035724,4.0,5.0,12.0,3.0,3.0,-3.0,-2.0,6.0
1705326901.3035724,-4.0,-6.0,-43.0,-9.0,-6.0,0.0,5.0,-2.0
1705326901.3035724,-3.0,-12.0,-4.0,-3.0,10.0,-3.0,-5.0,-3.0
1705326901.3235738,-1.0,0.0,7.0,1.0,-6.0,1.0,-14.0,0.0
1705326901.3235738,-1.0,-2.0,-12.0,1.0,-13.0,-2.0,19.0,-2.0
1705326901.3235738,-1.0,2.0,7.0,-9.0,-15.0,-13.0,2.0,-5.0
1705326901.3235738,-1.0,2.0,12.0,-2.0,-12.0,-5.0,-8.0,-2.0
1705326901.3335726,1.0,2.0,3.0,7.0,27.0,13.0,0.0,4.0
1705326901.3335726,-4.0,2.0,-13.0,5.0,11.0,7.0,-1.0,-2.0
1705326901.3335726,1.0,-3.0,9.0,-3.0,-14.0,-14.0,-4.0,-3.0
1705326901.3335726,-1.0,0.0,-12.0,-6.0,-9.0,3.0,-3.0,1.0
1705326901.3635743,0.0,1.0,10.0,3.0,2.0,-7.0,-2.0,-1.0
1705326901.3635743,2.0,-4.0,-25.0,-7.0,-9.0,-2.0,-6.0,-3.0
1705326901.3635743,0.0,2.0,11.0,4.0,14.0,9.0,2.0,-4.0
1705326901.3635743,-3.0,-2.0,11.0,1.0,-2.0,-8.0,1.0,2.0
1705326901.3935714,1.0,3.0,-1.0,-5.0,-6.0,-1.0,5.0,-1.0
1705326901.3935714,0.0,0.0,-20.0,-1.0,4.0,-2.0,-2.0,3.0
1705326901.3935714,0.0,-2.0,13.0,-4.0,-14.0,-4.0,-5.0,-9.0
1705326901.3935714,0.0,-2.0,-19.0,1.0,-21.0,-12.0,-3.0,1.0
1705326901.3935714,-4.0,-6.0,-13.0,2.0,9.0,4.0,0.0,-2.0
1705326901.3935714,-3.0,-2.0,3.0,-3.0,3.0,2.0,-6.0,-2.0
1705326901.3935714,2.0,1.0,-9.0,0.0,3.0,3.0,17.0,3.0
1705326901.3935714,0.0,2.0,25.0,2.0,4.0,-7.0,-14.0,-1.0
1705326901.4335725,-2.0,-11.0,-34.0,-5.0,-11.0,-2.0,7.0,-1.0
1705326901.4335725,-3.0,-3.0,5.0,-6.0,-9.0,-6.0,-13.0,-2.0
1705326901.4335725,0.0,1.0,12.0,-2.0,-1.0,1.0,-13.0,2.0
1705326901.4335725,1.0,3.0,-5.0,5.0,11.0,15.0,23.0,2.0
1705326901.4335725,0.0,-2.0,2.0,3.0,7.0,1.0,-9.0,1.0
1705326901.4335725,-1.0,2.0,3.0,1.0,5.0,-5.0,4.0,-5.0
1705326901.4335725,0.0,-6.0,13.0,-1.0,-11.0,-7.0,-6.0,-1.0
1705326901.4335725,-1.0,-3.0,-1.0,-5.0,-3.0,-3.0,-5.0,-3.0
1705326901.4635725,-2.0,-4.0,11.0,0.0,0.0,4.0,-3.0,-2.0
1705326901.4635725,-2.0,-2.0,-3.0,-1.0,16.0,6.0,2.0,-5.0
1705326901.4635725,1.0,0.0,9.0,-2.0,-23.0,-10.0,1.0,2.0
1705326901.4635725,0.0,4.0,-8.0,1.0,8.0,5.0,2.0,10.0
1705326901.4935727,-5.0,0.0,-2.0,-1.0,3.0,-7.0,7.0,-17.0
1705326901.4935727,0.0,4.0,19.0,2.0,1.0,1.0,1.0,0.0
1705326901.4935727,-2.0,-12.0,-37.0,-4.0,-6.0,0.0,-4.0,2.0
1705326901.4935727,0.0,-3.0,5.0,-2.0,1.0,2.0,1.0,3.0
1705326901.4935727,-5.0,1.0,0.0,-3.0,-3.0,0.0,-18.0,-1.0
1705326901.4935727,4.0,3.0,2.0,2.0,-3.0,3.0,25.0,4.0
1705326901.4935727,-4.0,-5.0,-28.0,-5.0,5.0,-8.0,-1.0,-5.0
1705326901.4935727,-1.0,2.0,13.0,-3.0,-17.0,-6.0,-11.0,-7.0
1705326901.5135725,0.0,-4.0,-18.0,-1.0,10.0,5.0,2.0,3.0
1705326901.5135725,-2.0,2.0,2.0,3.0,1.0,-3.0,-8.0,-4.0
1705326901.5135725,-1.0,1.0,4.0,2.0,2.0,3.0,2.0,6.0
1705326901.5135725,0.0,0.0,5.0,-3.0,-1.0,-10.0,-16.0,-10.0
1705326901.553577,-2.0,-6.0,-6.0,-2.0,-8.0,7.0,24.0,1.0
1705326901.553577,-3.0,-4.0,-7.0,1.0,5.0,-5.0,-5.0,1.0
1705326901.553577,1.0,5.0,16.0,5.0,4.0,5.0,0.0,1.0
1705326901.553577,5.0,7.0,6.0,1.0,6.0,3.0,4.0,5.0
1705326901.553577,2.0,2.0,7.0,-4.0,-16.0,-10.0,-13.0,-8.0
1705326901.553577,-1.0,-3.0,-2.0,-2.0,-2.0,-2.0,5.0,8.0
1705326901.553577,-5.0,0.0,14.0,5.0,11.0,8.0,-2.0,-3.0
1705326901.553577,-5.0,-6.0,-11.0,-5.0,2.0,-5.0,-8.0,-2.0
1705326901.5735722,2.0,5.0,14.0,-2.0,-8.0,-3.0,2.0,3.0
1705326901.5735722,0.0,-3.0,-10.0,-2.0,-5.0,-6.0,-2.0,2.0
1705326901.5735722,-4.0,-10.0,-15.0,-7.0,-1.0,-2.0,-5.0,-14.0
1705326901.5735722,-2.0,0.0,-1.0,2.0,4.0,7.0,-2.0,0.0
1705326901.603935,4.0,5.0,12.0,3.0,-7.0,-6.0,-2.0,8.0
1705326901.603935,-3.0,-3.0,-13.0,-7.0,-3.0,0.0,-3.0,-2.0
1705326901.6049345,4.0,5.0,0.0,-1.0,5.0,1.0,5.0,5.0
1705326901.6049345,-4.0,-11.0,-27.0,-5.0,-9.0,4.0,17.0,6.0
1705326901.6189349,-3.0,2.0,6.0,0.0,20.0,0.0,-5.0,-7.0
1705326901.6189349,4.0,3.0,8.0,3.0,-26.0,-2.0,-13.0,-34.0
1705326901.6199353,-2.0,-1.0,-2.0,0.0,10.0,-4.0,-1.0,1.0
1705326901.6199353,-7.0,-3.0,-12.0,-2.0,-2.0,-2.0,-4.0,-5.0
1705326901.6363776,2.0,1.0,5.0,2.0,0.0,3.0,0.0,9.0
1705326901.6363776,0.0,3.0,3.0,0.0,5.0,-4.0,3.0,10.0
1705326901.6363776,-1.0,-2.0,0.0,-4.0,-11.0,3.0,3.0,-3.0
1705326901.6363776,0.0,-4.0,-3.0,-3.0,4.0,-3.0,-6.0,2.0
1705326901.666378,0.0,-3.0,-7.0,-6.0,0.0,-5.0,-8.0,-6.0
1705326901.666378,-7.0,-4.0,-8.0,-1.0,-4.0,-5.0,-5.0,-13.0
1705326901.6763816,2.0,4.0,7.0,0.0,-5.0,-1.0,-1.0,3.0
1705326901.6763816,2.0,2.0,7.0,5.0,12.0,4.0,7.0,9.0
1705326901.6763816,0.0,-2.0,0.0,4.0,-1.0,0.0,2.0,0.0
1705326901.6763816,-3.0,-6.0,-9.0,-5.0,3.0,-3.0,-1.0,6.0
1705326901.6763816,-1.0,-1.0,6.0,-3.0,-17.0,-10.0,-6.0,-3.0
1705326901.6763816,1.0,1.0,2.0,-3.0,-6.0,3.0,-1.0,-7.0
1705326901.7063777,-2.0,-2.0,-5.0,-5.0,-3.0,0.0,1.0,-3.0
1705326901.7063777,0.0,-5.0,10.0,-2.0,-6.0,-2.0,-11.0,2.0
1705326901.7063777,-3.0,-5.0,-7.0,-4.0,7.0,3.0,9.0,1.0
1705326901.7063777,1.0,0.0,4.0,3.0,2.0,2.0,-4.0,-5.0
1705326901.716381,-1.0,0.0,0.0,-2.0,-5.0,-4.0,2.0,2.0
1705326901.716381,-2.0,1.0,1.0,-1.0,8.0,4.0,2.0,2.0
1705326901.716381,4.0,1.0,2.0,5.0,4.0,0.0,-3.0,2.0
1705326901.716381,-5.0,1.0,2.0,8.0,6.0,-3.0,-3.0,-6.0
1705326901.746381,-1.0,-3.0,-1.0,-3.0,-8.0,-11.0,-6.0,-2.0
1705326901.746381,1.0,-3.0,-3.0,0.0,1.0,0.0,-9.0,3.0
1705326901.746381,-1.0,-1.0,-9.0,-8.0,8.0,9.0,19.0,-1.0
1705326901.746381,0.0,1.0,12.0,4.0,-8.0,-7.0,-2.0,-5.0
1705326901.766379,-2.0,0.0,-16.0,-3.0,0.0,1.0,2.0,0.0
1705326901.766379,-4.0,-9.0,-25.0,-11.0,-15.0,-13.0,-29.0,2.0
1705326901.766379,-9.0,-4.0,-5.0,-2.0,9.0,6.0,22.0,-7.0
1705326901.766379,-1.0,-5.0,11.0,-3.0,-3.0,-1.0,-1.0,4.0
1705326901.776383,-3.0,1.0,1.0,1.0,1.0,0.0,-9.0,-6.0
1705326901.776383,0.0,4.0,25.0,5.0,5.0,3.0,-2.0,-2.0
1705326901.776383,-3.0,-9.0,-37.0,-3.0,5.0,-2.0,-13.0,-4.0
1705326901.776383,2.0,3.0,-1.0,-2.0,-3.0,-2.0,7.0,-1.0
1705326901.7963777,-1.0,-3.0,4.0,-2.0,-7.0,-7.0,1.0,2.0
1705326901.7963777,-5.0,5.0,8.0,4.0,1.0,5.0,5.0,-3.0
1705326901.7963777,9.0,5.0,19.0,7.0,0.0,-1.0,-11.0,-1.0
1705326901.7963777,-2.0,2.0,3.0,-1.0,-4.0,-2.0,4.0,-5.0
1705326901.8263822,0.0,-5.0,-18.0,-5.0,4.0,0.0,-2.0,0.0
1705326901.8263822,-5.0,-5.0,-5.0,-9.0,-27.0,-10.0,-1.0,2.0
1705326901.8263822,-1.0,1.0,14.0,3.0,-2.0,2.0,5.0,-9.0
1705326901.8263822,1.0,-2.0,-12.0,-5.0,8.0,-2.0,-11.0,-2.0
1705326901.8363817,0.0,1.0,4.0,3.0,-4.0,4.0,2.0,1.0
1705326901.8363817,-2.0,-4.0,-14.0,-1.0,10.0,0.0,10.0,-1.0
1705326901.8363817,-1.0,0.0,11.0,-3.0,-15.0,-4.0,-11.0,-1.0
1705326901.8363817,0.0,-1.0,-1.0,1.0,3.0,-1.0,-4.0,-3.0
1705326901.8563802,-2.0,-2.0,3.0,-3.0,-3.0,1.0,-4.0,-3.0
1705326901.8563802,0.0,-4.0,-7.0,-3.0,-2.0,1.0,10.0,0.0
1705326901.8563802,-1.0,2.0,-1.0,-3.0,-2.0,-1.0,-12.0,1.0
1705326901.8563802,-2.0,2.0,3.0,1.0,2.0,-9.0,0.0,-3.0
1705326901.8763778,-2.0,-3.0,-8.0,-4.0,-9.0,-1.0,-1.0,-1.0
1705326901.8763778,0.0,-2.0,1.0,2.0,13.0,5.0,1.0,0.0
1705326901.8763778,-2.0,2.0,5.0,3.0,20.0,6.0,2.0,2.0
1705326901.8763778,0.0,-2.0,0.0,-12.0,-32.0,-9.0,-6.0,-1.0
1705326901.9063807,-2.0,-3.0,0.0,8.0,9.0,0.0,-2.0,1.0
1705326901.9063807,1.0,3.0,6.0,3.0,1.0,6.0,11.0,-1.0
1705326901.9063807,0.0,-2.0,2.0,6.0,8.0,-1.0,1.0,2.0
1705326901.9063807,-1.0,-1.0,-17.0,-5.0,-4.0,0.0,-3.0,-2.0
1705326901.916379,-1.0,0.0,15.0,-6.0,-16.0,-8.0,-2.0,1.0
1705326901.916379,-1.0,-3.0,-26.0,-8.0,-4.0,-4.0,-7.0,-2.0
1705326901.9363813,0.0,2.0,12.0,0.0,-11.0,-6.0,4.0,2.0
1705326901.9363813,-1.0,-7.0,-11.0,0.0,13.0,-5.0,-6.0,1.0
1705326901.9363813,-1.0,4.0,18.0,2.0,-2.0,5.0,7.0,2.0
1705326901.9363813,-1.0,-3.0,-5.0,2.0,11.0,0.0,-8.0,-4.0
1705326901.9363813,-1.0,1.0,-7.0,-7.0,-17.0,-7.0,7.0,-5.0
1705326901.9363813,1.0,2.0,2.0,2.0,-4.0,-8.0,-5.0,1.0
1705326901.9563804,-1.0,-4.0,0.0,1.0,1.0,10.0,18.0,2.0
1705326901.9563804,-10.0,-7.0,2.0,1.0,11.0,-1.0,0.0,5.0
1705326901.9563804,6.0,-1.0,-3.0,-4.0,-6.0,-10.0,-15.0,-8.0
1705326901.9563804,-3.0,3.0,3.0,-2.0,2.0,9.0,-4.0,-5.0
1705326901.9763854,1.0,5.0,-7.0,-1.0,1.0,-8.0,-4.0,-2.0
1705326901.9763854,3.0,2.0,1.0,1.0,-9.0,1.0,11.0,-1.0
1705326901.9963794,-2.0,1.0,-1.0,1.0,6.0,-3.0,-5.0,6.0
1705326901.9963794,-2.0,-4.0,1.0,0.0,-2.0,3.0,8.0,-5.0
1705326901.9963794,-1.0,-6.0,-16.0,-5.0,-2.0,-4.0,-10.0,-6.0
1705326901.9963794,2.0,0.0,6.0,-3.0,0.0,1.0,4.0,3.0
1705326901.9963794,-3.0,-3.0,-10.0,-6.0,-9.0,-7.0,0.0,-1.0
1705326901.9963794,0.0,4.0,8.0,-1.0,14.0,6.0,4.0,-1.0
1705326902.0163872,-1.0,-4.0,-7.0,0.0,-1.0,1.0,-4.0,-1.0
1705326902.0163872,1.0,-3.0,-5.0,1.0,3.0,0.0,-4.0,-1.0
1705326902.0163872,-2.0,2.0,5.0,4.0,1.0,3.0,-4.0,-5.0
1705326902.0163872,-2.0,2.0,10.0,1.0,1.0,7.0,-2.0,-1.0
1705326902.036385,2.0,2.0,1.0,-1.0,-6.0,-4.0,2.0,0.0
1705326902.036385,1.0,-3.0,-6.0,-4.0,4.0,-3.0,-2.0,2.0
1705326902.0563793,-2.0,-2.0,-7.0,-2.0,-4.0,-3.0,-2.0,1.0
1705326902.0563793,-1.0,1.0,-3.0,0.0,-6.0,-2.0,-1.0,3.0
1705326902.0563793,-3.0,-6.0,4.0,-7.0,2.0,-1.0,-4.0,3.0
1705326902.0563793,-1.0,2.0,9.0,3.0,-13.0,-2.0,-8.0,-16.0
1705326902.0563793,-3.0,-2.0,-11.0,0.0,6.0,5.0,7.0,5.0
1705326902.0563793,-1.0,0.0,-3.0,2.0,-1.0,-3.0,-5.0,-5.0
1705326902.0763772,-3.0,1.0,-3.0,-3.0,-2.0,-4.0,-2.0,5.0
1705326902.0763772,1.0,2.0,6.0,-2.0,-6.0,0.0,2.0,-1.0
1705326902.0763772,-1.0,-7.0,-8.0,-6.0,-4.0,-2.0,-5.0,1.0
1705326902.0763772,-1.0,-3.0,0.0,-1.0,8.0,2.0,2.0,-8.0
1705326902.09638,0.0,-1.0,-2.0,3.0,-16.0,3.0,-1.0,0.0
1705326902.09638,0.0,0.0,-1.0,0.0,7.0,1.0,-2.0,5.0
1705326902.1063774,-3.0,2.0,10.0,5.0,3.0,-1.0,-3.0,-5.0
1705326902.1063774,-9.0,-6.0,-12.0,-3.0,-4.0,-7.0,6.0,1.0
1705326902.1163785,1.0,0.0,1.0,3.0,1.0,3.0,-3.0,5.0
1705326902.1163785,1.0,2.0,3.0,0.0,1.0,-2.0,-7.0,-6.0
1705326902.1163785,2.0,-1.0,-5.0,-1.0,-7.0,-1.0,3.0,4.0
1705326902.1163785,0.0,-1.0,3.0,0.0,2.0,4.0,-8.0,2.0
1705326902.1437669,0.0,-3.0,-10.0,0.0,6.0,1.0,0.0,-2.0
1705326902.1437669,-3.0,-2.0,0.0,-6.0,-14.0,-8.0,-1.0,-2.0
1705326902.1447668,-1.0,-1.0,1.0,1.0,19.0,8.0,-1.0,-2.0
1705326902.1447668,-2.0,-5.0,-10.0,-2.0,-32.0,-8.0,6.0,0.0
1705326902.1667674,0.0,2.0,0.0,2.0,12.0,-1.0,-14.0,-4.0
1705326902.1667674,-3.0,2.0,-3.0,1.0,10.0,7.0,9.0,7.0
1705326902.1667674,0.0,0.0,16.0,-8.0,-9.0,-12.0,-8.0,-3.0
1705326902.1667674,2.0,2.0,-16.0,4.0,11.0,9.0,3.0,5.0
1705326902.1792104,-4.0,-4.0,-5.0,-2.0,-6.0,-8.0,-9.0,-19.0
1705326902.1792104,-1.0,-4.0,-1.0,-1.0,-9.0,3.0,4.0,0.0
1705326902.1792104,-1.0,0.0,6.0,0.0,3.0,-1.0,-6.0,0.0
1705326902.1792104,1.0,1.0,8.0,-3.0,-2.0,0.0,3.0,5.0
1705326902.1992133,-1.0,-4.0,4.0,-4.0,-2.0,-3.0,-3.0,-1.0
1705326902.1992133,3.0,-1.0,-6.0,1.0,-2.0,-5.0,-9.0,-2.0
1705326902.1992133,-1.0,0.0,-9.0,0.0,-2.0,2.0,11.0,-2.0
1705326902.1992133,1.0,-1.0,11.0,-1.0,1.0,-2.0,-5.0,1.0
1705326902.2192087,-1.0,2.0,-1.0,-1.0,1.0,1.0,4.0,1.0
1705326902.2192087,1.0,-1.0,-12.0,-1.0,3.0,3.0,4.0,-2.0
1705326902.2192087,-2.0,-4.0,-7.0,-3.0,-9.0,-6.0,-7.0,-1.0
1705326902.2192087,0.0,-1.0,-5.0,0.0,0.0,-1.0,-3.0,-11.0
1705326902.239207,-2.0,-2.0,21.0,-1.0,3.0,6.0,-2.0,-2.0
1705326902.239207,2.0,-3.0,2.0,2.0,-20.0,-10.0,-8.0,3.0
1705326902.239207,-2.0,2.0,0.0,-3.0,0.0,1.0,10.0,-8.0
1705326902.239207,0.0,0.0,12.0,4.0,0.0,-3.0,4.0,5.0
1705326902.2592092,0.0,-4.0,-46.0,-7.0,0.0,-1.0,2.0,-3.0
1705326902.2592092,0.0,-3.0,3.0,-4.0,4.0,-4.0,5.0,2.0
1705326902.2592092,-3.0,-3.0,3.0,-3.0,-9.0,-5.0,-15.0,7.0
1705326902.2592092,-3.0,-2.0,1.0,-4.0,-5.0,-2.0,2.0,-11.0
1705326902.279212,3.0,3.0,13.0,6.0,11.0,6.0,6.0,1.0
1705326902.279212,-7.0,-1.0,-2.0,1.0,2.0,-1.0,-19.0,-11.0
1705326902.279212,-1.0,1.0,-3.0,4.0,-2.0,-2.0,3.0,5.0
1705326902.279212,0.0,0.0,-5.0,-3.0,1.0,0.0,-5.0,3.0
1705326902.2992113,-5.0,-3.0,-3.0,-4.0,-11.0,-9.0,-4.0,0.0
1705326902.2992113,1.0,1.0,-4.0,-4.0,3.0,-1.0,3.0,-2.0
1705326902.2992113,0.0,0.0,3.0,1.0,-2.0,0.0,-2.0,-5.0
1705326902.2992113,0.0,-2.0,1.0,0.0,5.0,2.0,0.0,2.0
1705326902.3292086,0.0,0.0,1.0,0.0,18.0,6.0,4.0,1.0
1705326902.3292086,-3.0,1.0,11.0,-1.0,-20.0,-5.0,-2.0,-1.0
1705326902.3292086,-1.0,-5.0,-16.0,-6.0,-3.0,-4.0,-6.0,-3.0
1705326902.3292086,0.0,-2.0,-6.0,-2.0,3.0,-2.0,1.0,2.0
1705326902.3392172,0.0,1.0,6.0,1.0,0.0,4.0,0.0,0.0
1705326902.3392172,-4.0,1.0,-3.0,1.0,8.0,3.0,5.0,0.0
1705326902.3392172,-1.0,-1.0,2.0,-7.0,0.0,1.0,-2.0,-1.0
1705326902.3392172,-1.0,-3.0,-10.0,-2.0,-10.0,-7.0,-15.0,-3.0
1705326902.359211,-2.0,1.0,-2.0,0.0,-1.0,4.0,4.0,-1.0
1705326902.359211,-1.0,-3.0,1.0,6.0,5.0,0.0,-4.0,-3.0
1705326902.359211,0.0,-1.0,-8.0,-5.0,-11.0,2.0,9.0,3.0
1705326902.359211,-2.0,-2.0,5.0,-3.0,2.0,-4.0,-7.0,-4.0
1705326902.3892145,-1.0,-1.0,1.0,2.0,11.0,-5.0,7.0,1.0
1705326902.3892145,3.0,-2.0,-2.0,-7.0,-13.0,-1.0,-2.0,3.0
1705326902.3892145,0.0,-1.0,0.0,4.0,17.0,3.0,-9.0,-1.0
1705326902.3892145,4.0,1.0,3.0,7.0,4.0,1.0,10.0,1.0
1705326902.3992133,4.0,1.0,-8.0,-6.0,-6.0,-3.0,-5.0,4.0
1705326902.3992133,-8.0,-2.0,-4.0,-5.0,-3.0,-5.0,-5.0,-10.0
1705326902.3992133,-2.0,-3.0,12.0,1.0,0.0,-2.0,-4.0,0.0
1705326902.3992133,-1.0,0.0,-13.0,-3.0,0.0,1.0,-8.0,4.0
1705326902.4292166,2.0,-1.0,8.0,-1.0,-6.0,-3.0,2.0,-11.0
1705326902.4292166,1.0,-2.0,2.0,-3.0,1.0,-3.0,-10.0,3.0
1705326902.4292166,-2.0,-2.0,-15.0,-4.0,-6.0,0.0,14.0,1.0
1705326902.4292166,-4.0,-6.0,-8.0,-3.0,0.0,3.0,1.0,-6.0
1705326902.4392147,-2.0,-3.0,0.0,0.0,2.0,-3.0,2.0,1.0
1705326902.4392147,-1.0,-1.0,5.0,-4.0,-9.0,-3.0,-1.0,2.0
1705326902.4392147,-2.0,2.0,15.0,14.0,18.0,3.0,-3.0,-3.0
1705326902.4392147,-2.0,2.0,5.0,5.0,-1.0,-2.0,5.0,1.0
1705326902.4592123,-2.0,3.0,6.0,-7.0,-26.0,-6.0,-8.0,0.0
1705326902.4592123,1.0,-6.0,-23.0,-3.0,7.0,0.0,3.0,-1.0
1705326902.4592123,-3.0,-2.0,7.0,-2.0,1.0,3.0,1.0,-3.0
1705326902.4592123,-2.0,-1.0,9.0,-4.0,-9.0,-2.0,-5.0,-4.0
1705326902.4792106,-1.0,2.0,-3.0,-1.0,0.0,-1.0,-2.0,1.0
1705326902.4792106,-3.0,0.0,5.0,4.0,4.0,4.0,1.0,1.0
1705326902.4792106,3.0,1.0,-20.0,-3.0,-1.0,-4.0,1.0,-1.0
1705326902.4792106,-1.0,-2.0,-2.0,-5.0,-1.0,-1.0,-2.0,-1.0
1705326902.4992113,-4.0,0.0,29.0,5.0,-3.0,-5.0,-6.0,0.0
1705326902.4992113,-2.0,-3.0,4.0,-2.0,3.0,0.0,3.0,-3.0
1705326902.4992113,1.0,-1.0,2.0,2.0,-4.0,-1.0,-16.0,-1.0
1705326902.4992113,-2.0,-2.0,-12.0,-10.0,-2.0,1.0,6.0,0.0
1705326902.5192115,-2.0,-3.0,-2.0,1.0,0.0,-2.0,6.0,-1.0
1705326902.5192115,3.0,3.0,0.0,3.0,3.0,-1.0,0.0,-1.0
1705326902.5192115,1.0,0.0,1.0,-1.0,-7.0,-3.0,-8.0,5.0
1705326902.5192115,0.0,0.0,-1.0,2.0,1.0,-1.0,0.0,-6.0
1705326902.5492132,-3.0,-4.0,3.0,-4.0,-25.0,-5.0,-3.0,-9.0
1705326902.5492132,-2.0,-2.0,-16.0,-6.0,4.0,1.0,0.0,0.0
1705326902.5492132,1.0,2.0,7.0,0.0,5.0,4.0,2.0,0.0
1705326902.5492132,2.0,-1.0,-6.0,-2.0,-6.0,-6.0,-10.0,5.0
1705326902.5592139,-3.0,-1.0,-7.0,-3.0,3.0,-2.0,10.0,1.0
1705326902.5592139,0.0,1.0,11.0,1.0,2.0,1.0,-4.0,-6.0
1705326902.5592139,1.0,-1.0,-7.0,-2.0,-5.0,-5.0,0.0,1.0
1705326902.5592139,-2.0,-1.0,-7.0,-4.0,-5.0,1.0,-9.0,0.0
1705326902.5792108,-2.0,-5.0,0.0,-3.0,3.0,5.0,18.0,-4.0
1705326902.5792108,1.0,1.0,1.0,2.0,1.0,2.0,5.0,5.0
1705326902.5792108,-1.0,-3.0,10.0,2.0,9.0,1.0,1.0,-2.0
1705326902.5792108,0.0,-1.0,-22.0,4.0,-6.0,-4.0,-1.0,-1.0
1705326902.6092124,2.0,1.0,-3.0,-1.0,-5.0,-5.0,-21.0,1.0
1705326902.6092124,-2.0,-3.0,8.0,-7.0,-1.0,-8.0,5.0,-1.0
1705326902.6092124,1.0,-1.0,-4.0,-2.0,-12.0,-1.0,5.0,-2.0
1705326902.6092124,-7.0,-1.0,16.0,-3.0,9.0,4.0,2.0,4.0
1705326902.619211,0.0,1.0,-11.0,4.0,4.0,-1.0,-2.0,-5.0
1705326902.619211,2.0,-1.0,2.0,-1.0,-2.0,0.0,0.0,0.0
1705326902.619211,-6.0,-3.0,6.0,-6.0,-4.0,-6.0,-1.0,-2.0
1705326902.619211,4.0,1.0,-10.0,-3.0,-6.0,6.0,0.0,2.0
1705326902.639208,-2.0,0.0,-1.0,0.0,12.0,-1.0,-1.0,5.0
1705326902.639208,0.0,1.0,-4.0,10.0,8.0,6.0,6.0,1.0
1705326902.639208,-1.0,-6.0,-6.0,0.0,2.0,-2.0,-1.0,-1.0
1705326902.639208,1.0,1.0,14.0,-5.0,-9.0,-6.0,3.0,-2.0
1705326902.6745405,-5.0,-5.0,-8.0,-10.0,-12.0,-3.0,-3.0,-2.0
1705326902.6745405,-3.0,2.0,0.0,-3.0,-16.0,-11.0,-16.0,-2.0
1705326902.6755402,1.0,1.0,-14.0,6.0,6.0,11.0,8.0,3.0
1705326902.6755402,-6.0,-3.0,12.0,0.0,4.0,-6.0,5.0,-8.0
1705326902.6835396,2.0,-2.0,-24.0,-1.0,2.0,3.0,7.0,8.0
1705326902.6835396,-1.0,-1.0,2.0,-4.0,-3.0,-4.0,-5.0,1.0
1705326902.6845403,2.0,1.0,2.0,-7.0,-9.0,-1.0,-6.0,8.0
1705326902.6845403,0.0,-2.0,-3.0,-2.0,1.0,0.0,8.0,-10.0
1705326902.70193,-3.0,-2.0,1.0,0.0,3.0,0.0,2.0,-4.0
1705326902.70193,2.0,-4.0,-7.0,0.0,8.0,5.0,-3.0,27.0
1705326902.70193,-3.0,2.0,-10.0,-1.0,-1.0,-10.0,-10.0,-37.0
1705326902.70193,-2.0,-1.0,0.0,0.0,0.0,4.0,-5.0,6.0
1705326902.7219322,-5.0,0.0,23.0,1.0,-6.0,-5.0,8.0,-16.0
1705326902.7219322,7.0,1.0,-20.0,-7.0,-29.0,-9.0,-14.0,33.0
1705326902.7319372,-14.0,-5.0,12.0,5.0,16.0,13.0,23.0,-35.0
1705326902.7319372,3.0,4.0,11.0,6.0,5.0,-10.0,-14.0,-6.0
1705326902.7419398,-1.0,-1.0,9.0,1.0,-10.0,1.0,-5.0,-3.0
1705326902.7419398,1.0,-4.0,4.0,-2.0,4.0,2.0,1.0,6.0
1705326902.7419398,1.0,-2.0,4.0,-4.0,-10.0,-8.0,-5.0,-25.0
1705326902.7419398,-4.0,-1.0,-1.0,6.0,-1.0,0.0,7.0,-2.0
1705326902.7719367,5.0,-2.0,-48.0,-8.0,6.0,2.0,-1.0,13.0
1705326902.7719367,1.0,-2.0,31.0,1.0,2.0,-1.0,5.0,-11.0
1705326902.7719367,-8.0,-6.0,-34.0,-14.0,-9.0,-6.0,-11.0,14.0
1705326902.7719367,-3.0,-1.0,-8.0,2.0,2.0,1.0,1.0,-4.0
1705326902.7819402,3.0,1.0,16.0,6.0,-2.0,-4.0,-11.0,5.0
1705326902.7819402,-3.0,1.0,-10.0,0.0,9.0,5.0,6.0,-13.0
1705326902.7819402,1.0,2.0,5.0,8.0,5.0,2.0,3.0,11.0
1705326902.7819402,-1.0,-2.0,10.0,-3.0,0.0,-3.0,-5.0,1.0
1705326902.801944,0.0,1.0,-7.0,-3.0,-4.0,-4.0,-1.0,1.0
1705326902.801944,-5.0,-3.0,-30.0,-8.0,-10.0,1.0,3.0,-17.0
1705326902.801944,0.0,1.0,11.0,-2.0,-2.0,-4.0,-4.0,7.0
1705326902.801944,-2.0,-2.0,7.0,-3.0,-9.0,-3.0,-3.0,5.0
1705326902.8319366,4.0,2.0,23.0,0.0,20.0,8.0,-6.0,10.0
1705326902.8319366,-6.0,-4.0,-4.0,1.0,-17.0,-7.0,-12.0,-38.0
1705326902.8319366,-6.0,-6.0,-36.0,-11.0,1.0,10.0,10.0,2.0
1705326902.8319366,16.0,4.0,-2.0,4.0,3.0,-7.0,6.0,48.0
1705326902.8319366,-12.0,-1.0,4.0,4.0,0.0,1.0,-10.0,-57.0
1705326902.8319366,-3.0,2.0,18.0,7.0,8.0,0.0,3.0,-1.0
1705326902.8419363,-2.0,3.0,7.0,3.0,-4.0,3.0,-1.0,3.0
1705326902.8419363,0.0,-8.0,-8.0,-9.0,-6.0,-2.0,-2.0,9.0
1705326902.8619335,1.0,2.0,13.0,-2.0,-10.0,-5.0,1.0,12.0
1705326902.8619335,0.0,-1.0,-21.0,-9.0,5.0,-3.0,-3.0,1.0
1705326902.8619335,2.0,-3.0,9.0,4.0,-10.0,-10.0,-5.0,-2.0
1705326902.8619335,-4.0,2.0,4.0,4.0,12.0,8.0,0.0,-13.0
1705326902.8919349,4.0,0.0,-14.0,-1.0,4.0,3.0,2.0,13.0
1705326902.8919349,-5.0,-11.0,-34.0,-6.0,-5.0,-4.0,-1.0,-8.0
1705326902.8919349,-1.0,1.0,16.0,-2.0,1.0,-6.0,-1.0,7.0
1705326902.8919349,2.0,1.0,3.0,0.0,-3.0,1.0,-5.0,-10.0
1705326902.8919349,-1.0,-3.0,11.0,-1.0,-4.0,1.0,1.0,1.0
1705326902.8919349,0.0,4.0,3.0,-3.0,1.0,-1.0,4.0,5.0
1705326902.9019685,0.0,0.0,15.0,3.0,3.0,-1.0,0.0,6.0
1705326902.9019685,-1.0,3.0,-1.0,-1.0,-30.0,-17.0,-24.0,-8.0
1705326902.9219348,-3.0,-14.0,-27.0,-6.0,4.0,7.0,14.0,1.0
1705326902.9219348,-1.0,2.0,12.0,0.0,12.0,5.0,18.0,-3.0
1705326902.9219348,5.0,1.0,0.0,6.0,6.0,2.0,-16.0,9.0
1705326902.9219348,-8.0,-7.0,-15.0,-7.0,3.0,2.0,9.0,-12.0
1705326902.9419332,2.0,3.0,-12.0,1.0,-6.0,-5.0,-12.0,8.0
1705326902.9419332,-2.0,-2.0,14.0,1.0,-7.0,-4.0,-1.0,3.0
1705326902.9419332,-1.0,0.0,3.0,-6.0,-6.0,-5.0,-3.0,0.0
1705326902.9419332,0.0,2.0,0.0,2.0,12.0,9.0,-1.0,-8.0
1705326902.9519322,-3.0,-1.0,4.0,3.0,4.0,-4.0,-1.0,3.0
1705326902.9519322,0.0,-2.0,4.0,2.0,6.0,4.0,1.0,2.0
1705326902.961939,-2.0,0.0,-4.0,-4.0,-9.0,-8.0,-2.0,-5.0
1705326902.961939,-1.0,-5.0,-6.0,-3.0,14.0,4.0,4.0,-2.0
1705326902.981936,-2.0,-2.0,-2.0,-4.0,-13.0,-2.0,2.0,-1.0
1705326902.981936,-1.0,3.0,7.0,7.0,10.0,3.0,-3.0,0.0
1705326902.981936,1.0,-7.0,-6.0,-1.0,-4.0,-4.0,1.0,3.0
1705326902.981936,-4.0,2.0,-3.0,-3.0,-2.0,-5.0,-4.0,-1.0
1705326903.0019357,-1.0,-1.0,1.0,-1.0,-2.0,3.0,-5.0,-10.0
1705326903.0019357,3.0,3.0,1.0,3.0,2.0,-3.0,1.0,15.0
1705326903.0019357,-7.0,-2.0,-2.0,-1.0,8.0,1.0,-3.0,-33.0
1705326903.0019357,0.0,-5.0,-4.0,-4.0,-6.0,0.0,20.0,31.0
1705326903.0119367,-6.0,3.0,7.0,-2.0,-3.0,-7.0,-11.0,-21.0
1705326903.0119367,-3.0,4.0,-1.0,-7.0,-10.0,1.0,-5.0,3.0
1705326903.0219707,-2.0,-6.0,2.0,2.0,1.0,-10.0,9.0,3.0
1705326903.0219707,10.0,9.0,4.0,3.0,19.0,2.0,-9.0,-23.0
1705326903.0419357,-2.0,-5.0,-16.0,-4.0,-6.0,0.0,4.0,0.0
1705326903.0419357,4.0,-1.0,2.0,1.0,5.0,5.0,-2.0,22.0
1705326903.0419357,2.0,0.0,-2.0,1.0,4.0,7.0,2.0,67.0
1705326903.0419357,-12.0,-4.0,15.0,9.0,5.0,-2.0,-11.0,-83.0
1705326903.0619347,2.0,-5.0,-3.0,-9.0,-6.0,-9.0,2.0,13.0
1705326903.0619347,0.0,1.0,-8.0,-5.0,-4.0,4.0,3.0,-20.0
1705326903.0619347,-2.0,-11.0,-38.0,-8.0,-10.0,-12.0,-2.0,10.0
1705326903.0619347,1.0,1.0,13.0,-3.0,-7.0,5.0,3.0,20.0
1705326903.0720327,2.0,2.0,14.0,2.0,5.0,0.0,-2.0,1.0
1705326903.0720327,-2.0,0.0,11.0,5.0,-3.0,-5.0,-1.0,0.0
1705326903.0820367,1.0,-1.0,1.0,0.0,1.0,3.0,-1.0,-12.0
1705326903.0820367,-1.0,-6.0,-17.0,-4.0,-8.0,-2.0,-1.0,13.0
1705326903.1019351,-2.0,5.0,3.0,4.0,15.0,2.0,1.0,-7.0
1705326903.1019351,1.0,-1.0,-2.0,-1.0,-3.0,-4.0,-4.0,-3.0
1705326903.1019351,-4.0,1.0,5.0,0.0,-7.0,1.0,0.0,-9.0
1705326903.1019351,-3.0,1.0,-7.0,-3.0,0.0,2.0,-9.0,2.0
1705326903.121931,0.0,-2.0,1.0,-1.0,-5.0,1.0,7.0,14.0
1705326903.121931,1.0,-1.0,-3.0,0.0,0.0,-4.0,2.0,-6.0
1705326903.121931,2.0,0.0,5.0,2.0,-1.0,2.0,-5.0,-7.0
1705326903.121931,-2.0,-3.0,0.0,-7.0,-4.0,-3.0,3.0,5.0
1705326903.1319325,-3.0,-3.0,-10.0,2.0,-8.0,-9.0,-4.0,6.0
1705326903.1319325,-1.0,-4.0,8.0,0.0,7.0,2.0,8.0,-2.0
1705326903.1419585,3.0,4.0,-6.0,-1.0,-3.0,1.0,4.0,-5.0
1705326903.1419585,1.0,0.0,2.0,0.0,-5.0,-2.0,4.0,1.0
1705326903.1719337,-1.0,-4.0,-16.0,-3.0,-2.0,-1.0,-17.0,0.0
1705326903.1719337,-2.0,-3.0,9.0,7.0,21.0,4.0,-4.0,-4.0
1705326903.1719337,6.0,4.0,-4.0,-2.0,-7.0,-1.0,-3.0,3.0
1705326903.1719337,-2.0,-5.0,-21.0,-8.0,-7.0,-4.0,0.0,10.0
1705326903.1819594,0.0,-1.0,2.0,-1.0,-6.0,-1.0,6.0,-2.0
1705326903.1819594,-3.0,-1.0,-1.0,-3.0,-4.0,-5.0,-7.0,-5.0
1705326903.1819594,-1.0,0.0,4.0,-1.0,1.0,-2.0,-7.0,-1.0
1705326903.1819594,-2.0,-2.0,-2.0,2.0,3.0,-3.0,-13.0,-6.0
1705326903.2096965,-1.0,-1.0,-1.0,-1.0,-2.0,4.0,16.0,-2.0
1705326903.2096965,-2.0,-3.0,-10.0,-5.0,-6.0,2.0,3.0,3.0
1705326903.2136967,-1.0,-1.0,5.0,0.0,-2.0,6.0,-1.0,-6.0
1705326903.2136967,0.0,-2.0,-1.0,-2.0,-5.0,-11.0,-3.0,0.0
1705326903.2180603,-1.0,-1.0,3.0,0.0,-2.0,-3.0,-13.0,-4.0
1705326903.2180603,-1.0,-1.0,0.0,-4.0,-2.0,-1.0,-6.0,-6.0
1705326903.2180603,-3.0,-1.0,0.0,9.0,3.0,2.0,9.0,1.0
1705326903.2180603,0.0,-4.0,-10.0,-1.0,25.0,10.0,5.0,3.0
1705326903.238064,2.0,2.0,5.0,2.0,-8.0,-5.0,1.0,-9.0
1705326903.238064,-2.0,-1.0,-5.0,-8.0,-14.0,-11.0,-6.0,-3.0
1705326903.238064,-2.0,1.0,2.0,-4.0,-15.0,-9.0,-7.0,-3.0
1705326903.238064,-1.0,1.0,5.0,2.0,12.0,7.0,5.0,5.0
1705326903.2680638,-1.0,0.0,5.0,3.0,4.0,-1.0,-3.0,-1.0
1705326903.2680638,-2.0,-5.0,-11.0,-3.0,-9.0,0.0,2.0,-7.0
1705326903.2680638,0.0,0.0,4.0,1.0,7.0,-1.0,-6.0,-3.0
1705326903.2680638,0.0,1.0,6.0,7.0,-3.0,1.0,5.0,-1.0
1705326903.2880661,1.0,2.0,2.0,-1.0,-5.0,-4.0,-4.0,-4.0
1705326903.2880661,-4.0,-3.0,-9.0,-3.0,-4.0,-1.0,-2.0,-3.0
1705326903.2880661,2.0,-3.0,-1.0,-5.0,-1.0,1.0,3.0,10.0
1705326903.2880661,-3.0,-3.0,-1.0,-5.0,-14.0,-6.0,3.0,-4.0
1705326903.2981012,-1.0,-3.0,-6.0,1.0,14.0,2.0,-8.0,-7.0
1705326903.2981012,-2.0,-3.0,0.0,-3.0,-4.0,-3.0,4.0,0.0
1705326903.2981012,2.0,-1.0,1.0,4.0,6.0,0.0,-1.0,-4.0
1705326903.2981012,-3.0,2.0,1.0,-3.0,-11.0,0.0,0.0,4.0
1705326903.3280635,-4.0,-2.0,0.0,-2.0,0.0,-2.0,-1.0,1.0
1705326903.3280635,1.0,0.0,1.0,0.0,-3.0,0.0,0.0,2.0
1705326903.3380678,-2.0,0.0,0.0,-3.0,1.0,-1.0,-1.0,-2.0
1705326903.3380678,1.0,-5.0,-3.0,4.0,7.0,8.0,1.0,-2.0
1705326903.3580627,-3.0,-3.0,1.0,2.0,-2.0,-5.0,-1.0,1.0
1705326903.3580627,-1.0,1.0,-1.0,-5.0,-2.0,-2.0,-6.0,-5.0
1705326903.3580627,-1.0,-4.0,-3.0,-8.0,-31.0,-13.0,-10.0,-11.0
1705326903.3580627,0.0,0.0,2.0,3.0,6.0,1.0,8.0,3.0
1705326903.3580627,2.0,-1.0,-2.0,2.0,6.0,5.0,3.0,14.0
1705326903.3580627,-4.0,-1.0,1.0,-1.0,-2.0,-2.0,-3.0,-5.0
1705326903.3580627,-3.0,2.0,0.0,3.0,11.0,1.0,-2.0,-4.0
1705326903.3580627,-1.0,-4.0,-4.0,-7.0,-18.0,-8.0,-9.0,-4.0
1705326903.3880637,-1.0,-2.0,-2.0,-1.0,-5.0,-2.0,5.0,3.0
1705326903.3880637,-1.0,-1.0,1.0,3.0,4.0,6.0,6.0,0.0
1705326903.3880637,-2.0,2.0,-3.0,-4.0,-3.0,-5.0,-3.0,0.0
1705326903.3880637,0.0,-1.0,0.0,3.0,-1.0,3.0,-3.0,-7.0
1705326903.398097,2.0,0.0,0.0,-2.0,5.0,-2.0,-14.0,0.0
1705326903.398097,-3.0,-5.0,-11.0,-5.0,5.0,4.0,13.0,-3.0
1705326903.4080622,5.0,2.0,1.0,-5.0,-6.0,0.0,6.0,13.0
1705326903.4080622,-4.0,5.0,-2.0,0.0,-2.0,-4.0,-14.0,-2.0
1705326903.4180653,-3.0,-4.0,4.0,-2.0,-5.0,-3.0,-4.0,-10.0
1705326903.4180653,2.0,0.0,-2.0,5.0,10.0,6.0,-9.0,7.0
1705326903.4180653,1.0,-1.0,-2.0,3.0,8.0,-1.0,2.0,4.0
1705326903.4180653,0.0,2.0,3.0,-2.0,1.0,-2.0,0.0,2.0
1705326903.4480894,-4.0,4.0,-1.0,-4.0,-12.0,-2.0,0.0,-3.0
1705326903.4480894,1.0,-2.0,0.0,-1.0,-3.0,-3.0,-6.0,-1.0
1705326903.4480894,-3.0,-3.0,1.0,-3.0,8.0,2.0,3.0,-3.0
1705326903.4480894,1.0,-4.0,-5.0,-2.0,-9.0,-4.0,-2.0,10.0
1705326903.4780664,-2.0,-3.0,7.0,3.0,9.0,8.0,7.0,-25.0
1705326903.4780664,-1.0,1.0,-4.0,-1.0,-3.0,-5.0,-3.0,-3.0
1705326903.4780664,-1.0,0.0,1.0,-1.0,-25.0,-7.0,-4.0,-8.0
1705326903.4780664,0.0,-4.0,-4.0,-2.0,0.0,-6.0,3.0,0.0
1705326903.4880629,-1.0,-2.0,-6.0,1.0,3.0,3.0,0.0,8.0
1705326903.4880629,1.0,0.0,3.0,-1.0,-4.0,-5.0,1.0,4.0
1705326903.4980671,-1.0,-2.0,2.0,0.0,11.0,10.0,-4.0,-4.0
1705326903.4980671,-3.0,0.0,-5.0,-3.0,-2.0,-2.0,4.0,-4.0
1705326903.5080655,-2.0,3.0,-3.0,1.0,-3.0,-2.0,0.0,0.0
1705326903.5080655,1.0,-2.0,3.0,0.0,-3.0,-5.0,0.0,9.0
1705326903.5080655,-4.0,-6.0,-6.0,-2.0,0.0,0.0,-6.0,18.0
1705326903.5080655,4.0,1.0,5.0,1.0,1.0,-1.0,9.0,-15.0
1705326903.5180619,-4.0,0.0,-5.0,-3.0,0.0,2.0,19.0,0.0
1705326903.5180619,3.0,0.0,2.0,-4.0,-8.0,-7.0,-5.0,0.0
1705326903.5180619,-3.0,2.0,0.0,-2.0,21.0,9.0,-3.0,5.0
1705326903.5180619,1.0,-1.0,3.0,4.0,-1.0,-1.0,-17.0,7.0
1705326903.5380673,0.0,-2.0,0.0,-3.0,-4.0,-16.0,-1.0,12.0
1705326903.5380673,-1.0,4.0,-4.0,-4.0,-7.0,0.0,4.0,10.0
1705326903.5380673,-5.0,-3.0,-1.0,1.0,2.0,3.0,-1.0,-36.0
1705326903.5380673,-3.0,1.0,1.0,-1.0,0.0,1.0,7.0,7.0
1705326903.5680676,-1.0,0.0,2.0,-2.0,2.0,6.0,-3.0,-6.0
1705326903.5680676,-3.0,-2.0,-2.0,-1.0,-3.0,0.0,3.0,6.0
1705326903.5680676,0.0,1.0,-7.0,-3.0,-8.0,-7.0,-15.0,-4.0
1705326903.5680676,-3.0,-7.0,-2.0,-2.0,-15.0,-3.0,9.0,-9.0
1705326903.5780656,6.0,9.0,4.0,2.0,-1.0,-2.0,-4.0,7.0
1705326903.5780656,-3.0,1.0,1.0,1.0,5.0,1.0,1.0,8.0
1705326903.5780656,-3.0,-5.0,-5.0,-2.0,-6.0,-1.0,-2.0,-44.0
1705326903.5780656,-1.0,11.0,4.0,-4.0,-3.0,-3.0,-3.0,3.0
1705326903.6080647,-1.0,-20.0,-9.0,-6.0,-9.0,1.0,-1.0,-1.0
1705326903.6080647,0.0,1.0,5.0,5.0,-2.0,-2.0,-7.0,-4.0
1705326903.6080647,-1.0,-3.0,-4.0,2.0,15.0,4.0,5.0,7.0
1705326903.6080647,-2.0,1.0,-2.0,-2.0,-1.0,-2.0,-1.0,6.0
1705326903.628098,0.0,3.0,-4.0,-7.0,-7.0,-4.0,-8.0,-4.0
1705326903.628098,-1.0,-1.0,1.0,1.0,3.0,4.0,-2.0,-13.0
1705326903.628098,-1.0,2.0,2.0,0.0,1.0,-4.0,9.0,14.0
1705326903.628098,-1.0,-5.0,-3.0,-1.0,1.0,3.0,-6.0,-5.0
1705326903.6380703,-7.0,1.0,-1.0,-2.0,-14.0,-6.0,-2.0,5.0
1705326903.6380703,-1.0,-4.0,-3.0,1.0,0.0,-5.0,-4.0,-11.0
1705326903.6380703,2.0,2.0,3.0,-3.0,-3.0,-5.0,6.0,10.0
1705326903.6380703,3.0,-5.0,-3.0,-6.0,-7.0,1.0,3.0,-1.0
1705326903.6680646,0.0,-4.0,-3.0,-3.0,-6.0,-13.0,-2.0,-4.0
1705326903.6680646,0.0,1.0,3.0,2.0,8.0,4.0,-11.0,-9.0
1705326903.6680646,-2.0,-1.0,-1.0,1.0,-2.0,1.0,1.0,1.0
1705326903.6680646,0.0,-3.0,-1.0,-2.0,-2.0,-2.0,-1.0,1.0
1705326903.6880856,1.0,-2.0,-2.0,1.0,1.0,2.0,0.0,2.0
1705326903.6880856,-2.0,-4.0,0.0,-3.0,-2.0,-1.0,2.0,-5.0
1705326903.6880856,1.0,1.0,-6.0,-7.0,-7.0,-9.0,-1.0,4.0
1705326903.6880856,-6.0,-4.0,-1.0,-1.0,0.0,2.0,-6.0,-7.0
1705326903.6980972,1.0,3.0,3.0,2.0,11.0,5.0,0.0,-3.0
1705326903.6980972,1.0,0.0,0.0,4.0,3.0,-2.0,0.0,0.0
1705326903.6980972,-3.0,-2.0,1.0,-4.0,-22.0,-6.0,-2.0,1.0
1705326903.6980972,-3.0,1.0,0.0,1.0,5.0,3.0,1.0,-1.0
1705326903.7398992,2.0,2.0,1.0,-1.0,0.0,0.0,-2.0,-2.0
1705326903.7398992,-5.0,-1.0,-6.0,-6.0,-3.0,-7.0,1.0,-3.0
1705326903.7398992,3.0,-2.0,-1.0,-4.0,-7.0,-3.0,-3.0,6.0
1705326903.7398992,-2.0,-1.0,2.0,-2.0,4.0,-3.0,-1.0,1.0
1705326903.7489011,-3.0,-1.0,-2.0,3.0,0.0,2.0,-3.0,-14.0
1705326903.7498984,2.0,-1.0,1.0,-2.0,2.0,6.0,8.0,14.0
1705326903.7498984,-5.0,-1.0,0.0,2.0,4.0,1.0,-9.0,-27.0
1705326903.7498984,3.0,1.0,3.0,0.0,-2.0,-1.0,1.0,10.0
1705326903.7609782,1.0,-2.0,-7.0,3.0,-11.0,0.0,2.0,3.0
1705326903.7609782,-1.0,-2.0,-3.0,-2.0,5.0,-3.0,6.0,1.0
1705326903.7609782,-3.0,-1.0,0.0,-2.0,-3.0,1.0,-3.0,-2.0
1705326903.7609782,-1.0,-1.0,-1.0,2.0,-5.0,-3.0,-3.0,9.0
1705326903.780983,-3.0,1.0,-2.0,-8.0,0.0,-2.0,-3.0,-7.0
1705326903.780983,-2.0,0.0,-1.0,3.0,-3.0,-4.0,-12.0,-6.0
1705326903.780983,1.0,0.0,3.0,2.0,6.0,7.0,11.0,11.0
1705326903.780983,2.0,-2.0,-7.0,-3.0,6.0,-2.0,-5.0,-18.0
1705326903.8009822,-9.0,-2.0,-1.0,-4.0,5.0,2.0,5.0,10.0
1705326903.8009822,-1.0,2.0,0.0,0.0,-3.0,-2.0,-4.0,-2.0
1705326903.810983,-1.0,-3.0,0.0,1.0,0.0,-3.0,-3.0,-8.0
1705326903.810983,0.0,-3.0,-1.0,-1.0,7.0,1.0,-5.0,0.0
1705326903.8209825,0.0,-1.0,-4.0,-7.0,-28.0,-7.0,1.0,6.0
1705326903.8209825,-5.0,-4.0,-1.0,0.0,2.0,-4.0,-4.0,-14.0
1705326903.8409774,5.0,-1.0,-1.0,4.0,12.0,2.0,5.0,4.0
1705326903.8409774,1.0,7.0,-1.0,1.0,-3.0,0.0,1.0,-1.0
1705326903.8409774,2.0,-1.0,1.0,0.0,8.0,2.0,4.0,7.0
1705326903.8409774,0.0,-10.0,-7.0,-5.0,-8.0,-3.0,0.0,11.0
1705326903.8409774,-6.0,-1.0,0.0,-1.0,-1.0,3.0,-5.0,-43.0
1705326903.8409774,-1.0,8.0,4.0,0.0,1.0,0.0,-1.0,21.0
1705326903.8609838,4.0,-6.0,-1.0,3.0,11.0,5.0,-7.0,-3.0
1705326903.8609838,-3.0,11.0,-5.0,1.0,12.0,0.0,6.0,13.0
1705326903.8609838,-2.0,-20.0,6.0,-1.0,-2.0,1.0,1.0,-17.0
1705326903.8609838,0.0,10.0,-3.0,-3.0,-15.0,-11.0,-3.0,-18.0
1705326903.8809874,-14.0,-21.0,-2.0,-1.0,7.0,13.0,0.0,-9.0
1705326903.8809874,7.0,21.0,15.0,-1.0,-3.0,-1.0,-2.0,4.0
1705326903.8909786,6.0,-31.0,-23.0,-9.0,-1.0,-2.0,-3.0,23.0
1705326903.8909786,1.0,28.0,10.0,4.0,2.0,-2.0,-1.0,-6.0
1705326903.9009848,5.0,-15.0,2.0,2.0,3.0,3.0,0.0,12.0
1705326903.9009848,-8.0,-10.0,-7.0,-5.0,-6.0,-6.0,2.0,-9.0
1705326903.9009848,5.0,17.0,16.0,10.0,2.0,4.0,3.0,31.0
1705326903.9009848,-5.0,-2.0,-11.0,-9.0,-7.0,-9.0,-9.0,5.0
1705326903.9209802,4.0,6.0,4.0,5.0,11.0,3.0,4.0,-1.0
1705326903.9209802,-1.0,3.0,4.0,-4.0,-8.0,-1.0,-10.0,1.0
1705326903.9209802,-3.0,7.0,-3.0,-4.0,-26.0,-19.0,3.0,1.0
1705326903.9209802,-4.0,-17.0,-3.0,3.0,5.0,9.0,4.0,-5.0
1705326903.9409826,-3.0,5.0,-14.0,-6.0,1.0,-8.0,-7.0,1.0
1705326903.9409826,1.0,-6.0,13.0,7.0,3.0,7.0,4.0,-8.0
1705326903.9610097,-4.0,1.0,-9.0,-4.0,11.0,-3.0,-5.0,0.0
1705326903.9610097,-1.0,-10.0,2.0,-9.0,-10.0,-5.0,-3.0,-6.0
1705326903.9610097,-2.0,7.0,-2.0,-1.0,-7.0,-3.0,0.0,-8.0
1705326903.9610097,-3.0,-4.0,-6.0,-1.0,1.0,-1.0,-3.0,-7.0
1705326903.9610097,-3.0,7.0,9.0,-1.0,0.0,1.0,-1.0,1.0
1705326903.9610097,-2.0,-11.0,-2.0,6.0,22.0,4.0,5.0,6.0
1705326903.9810257,3.0,5.0,3.0,0.0,-4.0,-4.0,-3.0,-2.0
1705326903.9810257,-2.0,-5.0,-4.0,-2.0,-6.0,-4.0,-7.0,-11.0
1705326903.9909847,0.0,5.0,-5.0,0.0,4.0,5.0,3.0,10.0
1705326903.9909847,-3.0,-7.0,-5.0,-1.0,3.0,3.0,0.0,-5.0
1705326904.000983,0.0,3.0,1.0,-5.0,-8.0,-13.0,-10.0,-6.0
1705326904.000983,2.0,-1.0,-2.0,-3.0,-11.0,3.0,3.0,1.0
1705326904.0109801,-1.0,0.0,-3.0,-6.0,-4.0,-2.0,2.0,-1.0
1705326904.0109801,-1.0,-4.0,-2.0,0.0,3.0,6.0,2.0,-3.0
1705326904.0209806,-4.0,2.0,1.0,4.0,7.0,-5.0,2.0,-1.0
1705326904.0209806,2.0,-4.0,-5.0,-4.0,-6.0,-2.0,-8.0,2.0
1705326904.0209806,0.0,1.0,0.0,-3.0,0.0,3.0,7.0,2.0
1705326904.0209806,-3.0,-5.0,-2.0,1.0,-4.0,-7.0,-25.0,-19.0
1705326904.0409791,0.0,1.0,-4.0,-1.0,16.0,11.0,8.0,2.0
1705326904.0409791,0.0,-1.0,1.0,2.0,-11.0,-6.0,2.0,0.0
1705326904.0409791,0.0,1.0,3.0,0.0,-1.0,3.0,3.0,4.0
1705326904.0409791,-3.0,-5.0,-10.0,-7.0,-2.0,-4.0,1.0,-1.0
1705326904.060981,2.0,-1.0,3.0,-3.0,-3.0,1.0,-3.0,-4.0
1705326904.060981,-2.0,1.0,-5.0,1.0,5.0,-1.0,3.0,-7.0
1705326904.0809824,1.0,-2.0,0.0,-3.0,-8.0,-2.0,-19.0,-2.0
1705326904.0809824,-6.0,-3.0,0.0,5.0,2.0,4.0,17.0,8.0
1705326904.0809824,0.0,-1.0,2.0,-1.0,2.0,2.0,-5.0,-4.0
1705326904.0809824,-2.0,-1.0,-8.0,-4.0,1.0,-3.0,4.0,0.0
1705326904.0809824,0.0,0.0,-3.0,-2.0,-3.0,-3.0,-5.0,1.0
1705326904.0809824,-1.0,-3.0,2.0,-3.0,-2.0,2.0,-7.0,-3.0
1705326904.1009803,-1.0,-1.0,-4.0,-2.0,-4.0,-3.0,-2.0,0.0
1705326904.1009803,1.0,-1.0,2.0,2.0,23.0,7.0,1.0,3.0
1705326904.1109812,-1.0,0.0,0.0,2.0,5.0,-2.0,-5.0,-5.0
1705326904.1109812,1.0,0.0,-2.0,-4.0,-8.0,2.0,5.0,-4.0
1705326904.1309812,-2.0,1.0,-1.0,1.0,2.0,-8.0,-1.0,-3.0
1705326904.1309812,0.0,-4.0,-2.0,-3.0,-7.0,-2.0,0.0,-2.0
1705326904.1309812,-2.0,-3.0,-2.0,-3.0,-1.0,-2.0,-8.0,1.0
1705326904.1309812,-3.0,-2.0,1.0,6.0,5.0,1.0,10.0,-1.0
1705326904.1409833,1.0,0.0,3.0,2.0,-3.0,2.0,-3.0,0.0
1705326904.1409833,-3.0,-3.0,-1.0,-4.0,-8.0,-6.0,4.0,-4.0
1705326904.1409833,-3.0,-2.0,-3.0,1.0,-3.0,-4.0,-1.0,0.0
1705326904.1409833,1.0,-5.0,-1.0,-6.0,-17.0,-10.0,-3.0,2.0
1705326904.1609857,2.0,1.0,-2.0,-3.0,1.0,1.0,-6.0,1.0
1705326904.1609857,2.0,-3.0,3.0,5.0,-4.0,2.0,3.0,-1.0
1705326904.1709774,-1.0,-1.0,-7.0,-2.0,5.0,2.0,7.0,0.0
1705326904.1709774,0.0,2.0,-1.0,-4.0,3.0,-1.0,-3.0,2.0
1705326904.1910162,-2.0,-2.0,0.0,7.0,0.0,-3.0,-1.0,-4.0
1705326904.1910162,-4.0,0.0,-1.0,-5.0,-1.0,-2.0,-3.0,0.0
1705326904.1910162,-1.0,0.0,-1.0,-4.0,-6.0,-6.0,-4.0,-4.0
1705326904.1910162,2.0,7.0,-1.0,-5.0,-12.0,-2.0,-3.0,-2.0
1705326904.2010138,-3.0,2.0,3.0,-2.0,4.0,3.0,2.0,3.0
1705326904.2010138,-2.0,-6.0,-2.0,4.0,5.0,-5.0,-4.0,-2.0
1705326904.2010138,-1.0,-34.0,-7.0,4.0,6.0,3.0,5.0,1.0
1705326904.2010138,-1.0,5.0,-5.0,-2.0,-8.0,-8.0,-4.0,0.0
1705326904.2209797,1.0,22.0,4.0,-4.0,-23.0,-5.0,-3.0,-4.0
1705326904.2209797,2.0,-5.0,-2.0,2.0,15.0,5.0,1.0,4.0
1705326904.2209797,-5.0,8.0,4.0,0.0,-2.0,-6.0,-3.0,-10.0
1705326904.2209797,-1.0,-10.0,-1.0,-4.0,-5.0,-4.0,0.0,-1.0
1705326904.252459,-2.0,-9.0,-5.0,-4.0,-2.0,1.0,-1.0,-3.0
1705326904.252459,3.0,0.0,-5.0,-5.0,-3.0,0.0,-7.0,0.0
1705326904.252459,-4.0,3.0,4.0,2.0,2.0,6.0,3.0,4.0
1705326904.252459,-3.0,-4.0,1.0,3.0,10.0,7.0,0.0,1.0
1705326904.266456,-2.0,-1.0,1.0,4.0,0.0,-9.0,0.0,-8.0
1705326904.266456,1.0,2.0,1.0,-2.0,-4.0,-2.0,0.0,1.0
1705326904.266456,0.0,4.0,-2.0,-7.0,-5.0,-7.0,-2.0,-2.0
1705326904.266456,2.0,1.0,-1.0,4.0,1.0,1.0,-5.0,3.0
1705326904.293749,-2.0,0.0,1.0,-3.0,1.0,1.0,3.0,5.0
1705326904.293749,-2.0,-14.0,-10.0,-8.0,-5.0,-3.0,1.0,1.0
1705326904.293749,-2.0,3.0,0.0,-1.0,-3.0,-2.0,9.0,14.0
1705326904.293749,4.0,24.0,3.0,-6.0,1.0,-5.0,-12.0,-39.0
1705326904.3037875,-4.0,-24.0,-4.0,3.0,9.0,5.0,-2.0,-3.0
1705326904.3037875,3.0,-3.0,-3.0,1.0,1.0,3.0,1.0,1.0
1705326904.3037875,0.0,5.0,0.0,-2.0,-1.0,1.0,5.0,1.0
1705326904.3037875,-4.0,-1.0,0.0,-1.0,-2.0,-2.0,3.0,29.0
1705326904.3237488,-7.0,-2.0,1.0,-2.0,-3.0,-4.0,-7.0,-56.0
1705326904.3237488,3.0,3.0,6.0,1.0,0.0,1.0,8.0,2.0
1705326904.3237488,0.0,1.0,-6.0,2.0,5.0,2.0,-1.0,-2.0
1705326904.3237488,0.0,-5.0,-1.0,-1.0,0.0,-3.0,2.0,4.0
1705326904.3537476,-1.0,-6.0,-5.0,-3.0,-6.0,0.0,-4.0,30.0
1705326904.3537476,-5.0,7.0,6.0,3.0,3.0,3.0,-7.0,-21.0
1705326904.3537476,-1.0,2.0,1.0,-2.0,-11.0,-9.0,2.0,12.0
1705326904.3537476,-4.0,-1.0,1.0,3.0,-4.0,1.0,-8.0,-56.0
1705326904.3637514,4.0,-12.0,-1.0,-3.0,2.0,-2.0,2.0,20.0
1705326904.3637514,-2.0,32.0,2.0,0.0,1.0,2.0,-1.0,0.0
1705326904.3637514,0.0,-25.0,-3.0,0.0,2.0,-1.0,-1.0,9.0
1705326904.3637514,-1.0,-1.0,-5.0,-7.0,-4.0,-1.0,-2.0,2.0
1705326904.3837483,1.0,-1.0,-8.0,-3.0,-1.0,-2.0,-4.0,0.0
1705326904.3837483,-1.0,3.0,1.0,-2.0,-11.0,0.0,2.0,-5.0
1705326904.3937511,0.0,10.0,1.0,3.0,16.0,-3.0,-5.0,-9.0
1705326904.3937511,1.0,-14.0,-3.0,-5.0,-11.0,-5.0,4.0,18.0
1705326904.4237485,-1.0,5.0,-2.0,3.0,10.0,-2.0,-4.0,-16.0
1705326904.4237485,0.0,-10.0,-3.0,1.0,0.0,5.0,3.0,16.0
1705326904.4237485,-3.0,4.0,2.0,3.0,10.0,5.0,-8.0,-13.0
1705326904.4237485,-4.0,-7.0,-5.0,-6.0,-8.0,-15.0,4.0,-7.0
1705326904.4237485,-1.0,4.0,-4.0,-9.0,-14.0,1.0,0.0,22.0
1705326904.4237485,0.0,-1.0,2.0,-5.0,2.0,1.0,10.0,-3.0
1705326904.4237485,1.0,-5.0,-5.0,1.0,6.0,1.0,-3.0,-4.0
1705326904.4237485,0.0,2.0,4.0,3.0,8.0,-1.0,-6.0,0.0
1705326904.4537482,0.0,5.0,1.0,-1.0,-10.0,0.0,-5.0,-2.0
1705326904.4537482,0.0,-8.0,-5.0,-5.0,7.0,-2.0,-12.0,4.0
1705326904.4537482,-6.0,2.0,0.0,-2.0,-24.0,-9.0,4.0,-14.0
1705326904.4537482,-3.0,-3.0,0.0,2.0,12.0,6.0,2.0,16.0
1705326904.4637523,0.0,3.0,-2.0,3.0,0.0,-4.0,-4.0,-10.0
1705326904.4637523,-2.0,-7.0,-5.0,-2.0,-1.0,-2.0,-2.0,-1.0
1705326904.4637523,3.0,4.0,0.0,-5.0,-1.0,0.0,-2.0,-1.0
1705326904.4637523,-3.0,1.0,0.0,1.0,-4.0,-1.0,3.0,5.0
1705326904.4837492,2.0,0.0,6.0,3.0,2.0,5.0,3.0,0.0
1705326904.4837492,-5.0,-4.0,-8.0,-6.0,-7.0,-13.0,-5.0,-2.0
1705326904.4837492,0.0,1.0,-4.0,-2.0,-3.0,0.0,0.0,-4.0
1705326904.4837492,2.0,-2.0,-2.0,3.0,-5.0,-1.0,2.0,6.0
1705326904.5037534,-4.0,-1.0,-1.0,-1.0,13.0,4.0,-6.0,-6.0
1705326904.5037534,-3.0,-1.0,1.0,2.0,0.0,-1.0,2.0,0.0
1705326904.5037534,1.0,0.0,3.0,-2.0,-8.0,-1.0,-2.0,-1.0
1705326904.5037534,-3.0,-5.0,-11.0,-6.0,-1.0,-3.0,-3.0,5.0
1705326904.52375,1.0,3.0,-1.0,0.0,-6.0,1.0,5.0,7.0
1705326904.52375,-6.0,-5.0,-1.0,-2.0,10.0,-3.0,-6.0,-6.0
1705326904.52375,1.0,1.0,1.0,-3.0,-9.0,0.0,-1.0,-2.0
1705326904.52375,1.0,-3.0,2.0,7.0,14.0,7.0,0.0,5.0
1705326904.5437515,1.0,2.0,2.0,2.0,5.0,1.0,3.0,-6.0
1705326904.5437515,-5.0,4.0,-1.0,1.0,-7.0,-10.0,-8.0,-5.0
1705326904.5437515,2.0,1.0,-1.0,0.0,4.0,2.0,4.0,4.0
1705326904.5437515,-1.0,-5.0,0.0,-1.0,0.0,1.0,-1.0,12.0
1705326904.5737505,1.0,5.0,-1.0,-7.0,-12.0,-7.0,-1.0,-5.0
1705326904.5737505,-2.0,-10.0,4.0,-4.0,-13.0,3.0,-4.0,-4.0
1705326904.5737505,-2.0,3.0,0.0,3.0,19.0,-1.0,-4.0,-4.0
1705326904.5737505,1.0,1.0,-3.0,0.0,7.0,1.0,0.0,0.0
1705326904.583751,-2.0,-2.0,0.0,1.0,-15.0,-3.0,13.0,12.0
1705326904.583751,3.0,4.0,0.0,1.0,1.0,-1.0,-7.0,2.0
1705326904.583751,-3.0,-6.0,-2.0,3.0,0.0,0.0,-5.0,-7.0
1705326904.583751,3.0,7.0,3.0,-4.0,3.0,3.0,-2.0,-5.0
1705326904.6037502,-6.0,-6.0,-8.0,-9.0,-9.0,-4.0,1.0,-3.0
1705326904.6037502,-2.0,-2.0,-2.0,-1.0,-5.0,-5.0,3.0,-1.0
1705326904.6037502,-2.0,-4.0,2.0,6.0,9.0,2.0,-6.0,4.0
1705326904.6037502,7.0,-3.0,-3.0,-5.0,-9.0,-5.0,5.0,-2.0
1705326904.6337516,-9.0,-1.0,0.0,-1.0,0.0,0.0,-17.0,-17.0
1705326904.6337516,-1.0,-1.0,1.0,0.0,6.0,-1.0,9.0,-12.0
1705326904.6337516,0.0,3.0,0.0,-1.0,-5.0,-2.0,4.0,3.0
1705326904.6337516,5.0,2.0,3.0,2.0,14.0,6.0,-2.0,0.0
1705326904.6437504,-6.0,-11.0,-8.0,-5.0,-15.0,-8.0,0.0,4.0
1705326904.6437504,-1.0,3.0,2.0,-1.0,0.0,-2.0,-9.0,8.0
1705326904.6437504,-4.0,-3.0,-11.0,-5.0,-2.0,-3.0,-4.0,-16.0
1705326904.6437504,-2.0,-9.0,2.0,4.0,-8.0,0.0,-1.0,-3.0
1705326904.6637516,9.0,12.0,-1.0,2.0,12.0,1.0,-4.0,4.0
1705326904.6637516,-1.0,9.0,7.0,2.0,0.0,4.0,-3.0,-2.0
1705326904.6637516,2.0,12.0,-1.0,-5.0,-9.0,-3.0,6.0,14.0
1705326904.6637516,-6.0,-31.0,-13.0,-8.0,-14.0,-5.0,-14.0,-12.0
1705326904.69375,3.0,10.0,10.0,4.0,11.0,2.0,3.0,6.0
1705326904.69375,-10.0,-6.0,-14.0,-1.0,-10.0,-4.0,2.0,2.0
1705326904.69375,8.0,1.0,3.0,-4.0,-8.0,1.0,-2.0,-5.0
1705326904.69375,-7.0,8.0,9.0,11.0,13.0,5.0,0.0,-5.0
1705326904.7037497,8.0,-8.0,-5.0,-1.0,15.0,3.0,1.0,9.0
1705326904.7037497,-3.0,-12.0,-21.0,-5.0,-7.0,2.0,-1.0,-7.0
1705326904.7037497,7.0,11.0,14.0,-5.0,5.0,-2.0,4.0,16.0
1705326904.7037497,6.0,1.0,1.0,-2.0,-19.0,-7.0,-4.0,-15.0
1705326904.7237527,-9.0,-7.0,6.0,5.0,7.0,1.0,1.0,-18.0
1705326904.7237527,-1.0,-1.0,1.0,2.0,-4.0,-1.0,-1.0,16.0
1705326904.7237527,-8.0,-12.0,-10.0,-15.0,-1.0,1.0,-2.0,-7.0
1705326904.7237527,-7.0,8.0,-11.0,-2.0,-7.0,-7.0,-3.0,-5.0
1705326904.7637503,-3.0,-5.0,0.0,-7.0,-13.0,-5.0,1.0,8.0
1705326904.7637503,5.0,0.0,-14.0,-2.0,6.0,2.0,-4.0,-23.0
1705326904.7637503,-7.0,-6.0,13.0,8.0,16.0,4.0,-3.0,-1.0
1705326904.7637503,-1.0,3.0,0.0,-7.0,-16.0,-6.0,0.0,12.0
1705326904.7637503,1.0,-3.0,-2.0,8.0,-1.0,-3.0,0.0,-8.0
1705326904.7637503,0.0,3.0,8.0,4.0,8.0,1.0,-1.0,3.0
1705326904.7637503,3.0,-7.0,-3.0,3.0,2.0,1.0,0.0,-1.0
1705326904.7637503,-1.0,3.0,-4.0,-3.0,-4.0,-1.0,4.0,-5.0
1705326904.8055499,-2.0,-5.0,-16.0,-6.0,-3.0,-1.0,-1.0,-1.0
1705326904.8055499,3.0,4.0,14.0,-3.0,1.0,-1.0,2.0,3.0
1705326904.8055499,-1.0,-15.0,-8.0,4.0,-6.0,-6.0,-1.0,-2.0
1705326904.8055499,-3.0,1.0,-2.0,-4.0,1.0,0.0,-3.0,0.0
1705326904.8055499,-2.0,-26.0,0.0,0.0,-12.0,-5.0,-2.0,3.0
1705326904.8055499,3.0,21.0,11.0,-11.0,13.0,7.0,-1.0,7.0
1705326904.8135517,-3.0,-1.0,-16.0,-5.0,-8.0,-4.0,-2.0,-13.0
1705326904.8145509,-3.0,0.0,7.0,0.0,3.0,-6.0,-3.0,1.0
1705326904.8267052,3.0,2.0,2.0,2.0,11.0,5.0,1.0,-2.0
1705326904.8267052,1.0,3.0,13.0,9.0,1.0,1.0,1.0,2.0
1705326904.8267052,-6.0,-5.0,-22.0,-11.0,-12.0,-7.0,-4.0,-5.0
1705326904.8267052,-3.0,-8.0,1.0,2.0,1.0,3.0,1.0,-1.0
1705326904.8567064,-1.0,11.0,1.0,-7.0,-5.0,-5.0,-5.0,-3.0
1705326904.8567064,3.0,-6.0,3.0,4.0,-3.0,-1.0,2.0,1.0
1705326904.8567064,-1.0,7.0,3.0,-1.0,-8.0,0.0,-5.0,-3.0
1705326904.8567064,-7.0,3.0,0.0,0.0,4.0,-8.0,-1.0,-1.0
1705326904.8567064,-1.0,-1.0,-4.0,-3.0,-12.0,-6.0,-6.0,-1.0
1705326904.8567064,-3.0,-11.0,2.0,-3.0,-5.0,2.0,2.0,1.0
1705326904.866708,1.0,-1.0,-10.0,4.0,2.0,6.0,1.0,-5.0
1705326904.866708,3.0,1.0,0.0,3.0,15.0,-1.0,-1.0,4.0
1705326904.886708,-1.0,2.0,5.0,1.0,0.0,1.0,4.0,2.0
1705326904.886708,-1.0,-3.0,-4.0,-3.0,-14.0,-6.0,-3.0,-2.0
1705326904.886708,-1.0,-1.0,5.0,1.0,10.0,1.0,-11.0,2.0
1705326904.886708,-2.0,0.0,3.0,-2.0,-7.0,3.0,7.0,0.0
1705326904.9167054,-2.0,5.0,0.0,-3.0,-5.0,-4.0,-2.0,1.0
1705326904.9167054,-3.0,-9.0,-14.0,-5.0,0.0,-2.0,-3.0,-5.0
1705326904.9167054,-2.0,3.0,9.0,5.0,3.0,-2.0,3.0,4.0
1705326904.9167054,2.0,-1.0,-5.0,-3.0,-5.0,-3.0,-6.0,0.0
1705326904.9167054,1.0,1.0,2.0,3.0,5.0,2.0,4.0,0.0
1705326904.9167054,-1.0,-3.0,-4.0,-4.0,-11.0,-8.0,-4.0,-7.0
1705326904.9267037,-4.0,-1.0,-1.0,-1.0,-11.0,0.0,0.0,-1.0
1705326904.9267037,2.0,2.0,3.0,2.0,-8.0,-4.0,2.0,2.0
1705326904.946702,-2.0,-2.0,0.0,-3.0,7.0,5.0,1.0,0.0
1705326904.946702,0.0,1.0,3.0,5.0,0.0,1.0,0.0,2.0
1705326904.946702,0.0,-1.0,3.0,4.0,0.0,-2.0,1.0,0.0
1705326904.946702,0.0,-1.0,1.0,-1.0,-2.0,4.0,2.0,2.0
1705326904.9667053,-3.0,-2.0,-6.0,-5.0,-6.0,-9.0,-12.0,-4.0
1705326904.9667053,-1.0,-3.0,-8.0,0.0,3.0,10.0,5.0,-1.0
1705326904.9667053,-1.0,-2.0,4.0,-4.0,0.0,-13.0,5.0,-1.0
1705326904.9667053,-1.0,-3.0,-1.0,2.0,2.0,12.0,-2.0,-2.0
1705326904.9767098,1.0,3.0,2.0,3.0,8.0,-4.0,0.0,-2.0
1705326904.9767098,-3.0,-3.0,-3.0,-2.0,-11.0,-4.0,-9.0,3.0
1705326904.986707,-2.0,-1.0,-6.0,-8.0,-6.0,-2.0,-4.0,-8.0
1705326904.986707,-3.0,-1.0,0.0,-4.0,-2.0,-1.0,-2.0,5.0
1705326905.0067043,1.0,3.0,-2.0,0.0,9.0,4.0,-2.0,0.0
1705326905.0067043,0.0,-1.0,4.0,4.0,3.0,-2.0,1.0,2.0
1705326905.0067043,0.0,-2.0,3.0,1.0,8.0,5.0,2.0,0.0
1705326905.0067043,-1.0,-1.0,-6.0,-8.0,-6.0,-5.0,-2.0,-3.0
1705326905.046706,-1.0,-2.0,-3.0,-3.0,-4.0,1.0,-1.0,0.0
1705326905.046706,-2.0,-2.0,-1.0,-2.0,1.0,5.0,4.0,-7.0
1705326905.046706,-4.0,0.0,-5.0,-5.0,-7.0,-8.0,-9.0,-6.0
1705326905.046706,-3.0,-3.0,0.0,-2.0,4.0,4.0,-2.0,-5.0
1705326905.046706,-1.0,-1.0,2.0,6.0,7.0,0.0,-1.0,8.0
1705326905.046706,-3.0,-2.0,-1.0,2.0,0.0,-1.0,1.0,-11.0
1705326905.046706,4.0,-1.0,2.0,-4.0,-8.0,-1.0,0.0,1.0
1705326905.046706,-8.0,-2.0,0.0,4.0,2.0,1.0,2.0,0.0
1705326905.0667083,-1.0,0.0,-6.0,-6.0,-22.0,-8.0,-4.0,-10.0
1705326905.0667083,-1.0,-6.0,-5.0,-3.0,-1.0,-3.0,-3.0,1.0
1705326905.0667083,1.0,5.0,1.0,0.0,1.0,1.0,-4.0,1.0
1705326905.0667083,0.0,-13.0,-3.0,-1.0,0.0,-6.0,-9.0,0.0
1705326905.096705,0.0,3.0,3.0,4.0,11.0,10.0,12.0,0.0
1705326905.096705,-2.0,5.0,-1.0,-3.0,1.0,-6.0,3.0,1.0
1705326905.096705,1.0,-3.0,-1.0,0.0,-16.0,-5.0,-3.0,1.0
1705326905.096705,4.0,6.0,0.0,2.0,9.0,7.0,-1.0,0.0
1705326905.1067057,-1.0,2.0,4.0,2.0,5.0,-3.0,-3.0,-1.0
1705326905.1067057,-1.0,0.0,-1.0,3.0,-4.0,-3.0,-1.0,-5.0
1705326905.1067057,-4.0,-5.0,-1.0,-3.0,0.0,2.0,-2.0,0.0
1705326905.1067057,0.0,2.0,1.0,-2.0,-7.0,-5.0,2.0,2.0
1705326905.1267061,1.0,-2.0,-7.0,-1.0,-13.0,-3.0,-7.0,1.0
1705326905.1267061,-3.0,-3.0,1.0,-2.0,5.0,-1.0,8.0,0.0
1705326905.1267061,1.0,-3.0,0.0,2.0,4.0,-1.0,2.0,0.0
1705326905.1267061,-10.0,-2.0,3.0,0.0,-8.0,-15.0,-5.0,-2.0
1705326905.1467073,-1.0,-2.0,-4.0,-4.0,3.0,3.0,-3.0,1.0
1705326905.1467073,7.0,11.0,10.0,3.0,2.0,4.0,0.0,3.0
1705326905.1467073,-4.0,-21.0,-12.0,0.0,3.0,2.0,4.0,-3.0
1705326905.1467073,3.0,-6.0,-9.0,-7.0,-1.0,-2.0,1.0,-4.0
1705326905.1667056,-7.0,-19.0,4.0,-7.0,-9.0,-4.0,-5.0,2.0
1705326905.1667056,-6.0,2.0,0.0,-3.0,-4.0,-4.0,-12.0,-15.0
1705326905.1667056,2.0,9.0,5.0,7.0,12.0,8.0,0.0,7.0
1705326905.1667056,8.0,12.0,7.0,-1.0,2.0,1.0,3.0,0.0
1705326905.1867058,-10.0,9.0,-16.0,-3.0,-7.0,-9.0,1.0,-3.0
1705326905.1867058,6.0,0.0,-4.0,-9.0,-23.0,-9.0,-4.0,5.0
1705326905.1867058,-9.0,-11.0,-6.0,-4.0,0.0,2.0,-1.0,0.0
1705326905.1867058,-3.0,-8.0,-2.0,5.0,13.0,7.0,2.0,-10.0
1705326905.2067087,0.0,-8.0,4.0,2.0,-7.0,-1.0,9.0,8.0
1705326905.2067087,3.0,3.0,-6.0,-3.0,2.0,-9.0,-17.0,-3.0
1705326905.2067087,-4.0,6.0,9.0,1.0,-5.0,-1.0,2.0,-3.0
1705326905.2067087,-2.0,12.0,-17.0,-8.0,-8.0,1.0,-5.0,-4.0
1705326905.2367046,-5.0,-38.0,-7.0,-1.0,15.0,4.0,7.0,-6.0
1705326905.2367046,3.0,-14.0,2.0,4.0,9.0,9.0,6.0,7.0
1705326905.2367046,2.0,9.0,-11.0,1.0,0.0,-7.0,-6.0,-3.0
1705326905.2367046,6.0,3.0,11.0,-7.0,-11.0,-4.0,-4.0,-6.0
1705326905.2467067,-2.0,4.0,-9.0,-5.0,-4.0,-2.0,-6.0,1.0
1705326905.2467067,-7.0,-2.0,-32.0,-2.0,0.0,-3.0,1.0,9.0
1705326905.2467067,-1.0,-14.0,16.0,4.0,5.0,2.0,0.0,1.0
1705326905.2467067,4.0,9.0,32.0,4.0,3.0,0.0,3.0,7.0
1705326905.2767045,3.0,4.0,-3.0,0.0,2.0,-1.0,-1.0,2.0
1705326905.2767045,-1.0,-13.0,3.0,-3.0,-3.0,-2.0,1.0,8.0
1705326905.2767045,1.0,7.0,5.0,-4.0,-5.0,-7.0,-6.0,-19.0
1705326905.2767045,-10.0,10.0,-16.0,0.0,-1.0,2.0,2.0,13.0
1705326905.2967062,3.0,-19.0,3.0,-4.0,-4.0,1.0,-1.0,-12.0
1705326905.2967062,0.0,10.0,9.0,10.0,9.0,6.0,3.0,6.0
1705326905.3067052,1.0,5.0,0.0,-1.0,6.0,-3.0,2.0,5.0
1705326905.3067052,4.0,-8.0,5.0,6.0,2.0,-1.0,0.0,0.0
1705326905.3067052,-1.0,12.0,-1.0,-2.0,7.0,1.0,-4.0,-5.0
1705326905.3067052,-6.0,-3.0,-5.0,-9.0,-22.0,-5.0,0.0,-5.0
1705326905.3067052,2.0,-1.0,8.0,-3.0,6.0,4.0,2.0,1.0
1705326905.3067052,-4.0,-9.0,-1.0,2.0,-3.0,-5.0,-1.0,-6.0
1705326905.332031,-3.0,6.0,-13.0,3.0,14.0,5.0,2.0,3.0
1705326905.332031,1.0,-6.0,0.0,-6.0,-2.0,-1.0,-3.0,-8.0
1705326905.3330321,-2.0,-1.0,1.0,-12.0,-24.0,-8.0,-3.0,0.0
1705326905.3330321,-3.0,-3.0,-6.0,0.0,8.0,0.0,-2.0,-2.0
1705326905.349387,1.0,6.0,10.0,4.0,-5.0,-5.0,-2.0,-2.0
1705326905.349387,1.0,6.0,13.0,-2.0,5.0,4.0,1.0,0.0
1705326905.349387,-2.0,0.0,-9.0,5.0,8.0,5.0,1.0,2.0
1705326905.349387,-1.0,-5.0,-1.0,-6.0,-9.0,-6.0,-3.0,-2.0
1705326905.3593898,-2.0,-1.0,-6.0,-6.0,-3.0,1.0,-1.0,-7.0
1705326905.3593898,-8.0,0.0,5.0,-4.0,-4.0,-2.0,-1.0,-1.0
1705326905.369389,5.0,-5.0,-9.0,4.0,15.0,5.0,2.0,5.0
1705326905.369389,2.0,-6.0,-4.0,-2.0,-13.0,-2.0,-2.0,2.0
1705326905.3893933,4.0,13.0,-2.0,-2.0,-1.0,2.0,-2.0,-1.0
