1705326734.017476,5.0,-40.0,-16.0,-5.0,-4.0,-1.0,14.0,13.0
1705326734.017476,6.0,33.0,-25.0,-4.0,-1.0,-2.0,8.0,17.0
1705326734.0374825,13.0,-11.0,11.0,6.0,0.0,2.0,-4.0,-28.0
1705326734.0374825,-21.0,-7.0,-23.0,-6.0,-1.0,1.0,5.0,23.0
1705326734.0474782,1.0,-12.0,11.0,6.0,0.0,-1.0,1.0,-9.0
1705326734.0474782,-7.0,-60.0,-35.0,-10.0,-6.0,-14.0,-61.0,-56.0
1705326734.057481,-27.0,33.0,1.0,0.0,1.0,-4.0,0.0,12.0
1705326734.057481,-2.0,-8.0,25.0,-1.0,-4.0,-3.0,9.0,5.0
1705326734.057481,-14.0,-23.0,-29.0,-14.0,-11.0,-3.0,-5.0,-14.0
1705326734.057481,-4.0,-10.0,-16.0,-7.0,4.0,8.0,20.0,18.0
1705326734.0874765,5.0,15.0,10.0,23.0,6.0,3.0,-4.0,-16.0
1705326734.0874765,-1.0,10.0,-28.0,1.0,10.0,4.0,0.0,-11.0
1705326734.0974817,3.0,-23.0,-9.0,-17.0,-5.0,-5.0,1.0,15.0
1705326734.0974817,1.0,-29.0,-26.0,-8.0,-10.0,-7.0,-6.0,-8.0
1705326734.0974817,5.0,19.0,64.0,3.0,7.0,1.0,-8.0,-10.0
1705326734.0974817,2.0,17.0,33.0,9.0,-1.0,2.0,9.0,7.0
1705326734.0974817,6.0,22.0,-49.0,-18.0,-7.0,-1.0,-4.0,2.0
1705326734.0974817,-9.0,-52.0,-29.0,-14.0,-6.0,-5.0,-2.0,-4.0
1705326734.1217492,-7.0,11.0,56.0,8.0,0.0,1.0,-2.0,-6.0
1705326734.1217492,-5.0,14.0,-18.0,-5.0,-5.0,-2.0,1.0,-2.0
1705326734.1237457,7.0,-4.0,-20.0,11.0,7.0,1.0,-7.0,-3.0
1705326734.1237457,-10.0,-8.0,7.0,1.0,-4.0,-4.0,0.0,-5.0
1705326734.135782,-6.0,12.0,-32.0,6.0,2.0,0.0,4.0,-1.0
1705326734.135782,3.0,-23.0,-3.0,-5.0,6.0,5.0,1.0,-7.0
1705326734.1447494,-4.0,-2.0,42.0,-4.0,-8.0,-6.0,-9.0,-3.0
1705326734.1447494,-1.0,-8.0,-21.0,-4.0,0.0,1.0,8.0,9.0
1705326734.1502726,1.0,1.0,-41.0,-30.0,-17.0,-7.0,-5.0,-3.0
1705326734.1502726,-2.0,-7.0,-4.0,5.0,3.0,-2.0,-3.0,-7.0
1705326734.1602764,5.0,3.0,0.0,17.0,16.0,9.0,4.0,7.0
1705326734.1602764,-5.0,5.0,8.0,-5.0,-2.0,-4.0,6.0,5.0
1705326734.1803155,-1.0,-4.0,-6.0,0.0,-1.0,-2.0,-7.0,-11.0
1705326734.1803155,-10.0,3.0,-5.0,10.0,-2.0,-4.0,-2.0,-4.0
1705326734.1803155,-1.0,5.0,6.0,-6.0,-5.0,-3.0,-2.0,1.0
1705326734.1803155,4.0,-20.0,3.0,8.0,1.0,4.0,2.0,0.0
1705326734.1903157,9.0,48.0,-3.0,-6.0,1.0,-1.0,0.0,1.0
1705326734.1903157,3.0,-2.0,23.0,0.0,-4.0,-2.0,3.0,1.0
1705326734.2002776,1.0,2.0,18.0,-4.0,-6.0,-6.0,-6.0,-1.0
1705326734.2002776,-7.0,-4.0,-13.0,-3.0,3.0,0.0,-2.0,-5.0
1705326734.2202728,-3.0,-11.0,-6.0,9.0,8.0,5.0,2.0,-1.0
1705326734.2202728,2.0,24.0,22.0,6.0,3.0,1.0,0.0,1.0
1705326734.2202728,-1.0,0.0,-15.0,-8.0,-7.0,-4.0,-4.0,-4.0
1705326734.2202728,3.0,1.0,3.0,1.0,-3.0,-1.0,-1.0,0.0
1705326734.2406883,0.0,-6.0,-1.0,7.0,9.0,3.0,3.0,1.0
1705326734.2406883,-9.0,-8.0,-5.0,0.0,0.0,-2.0,-2.0,-4.0
1705326734.2406883,-7.0,-15.0,-11.0,-6.0,-3.0,-4.0,-2.0,-3.0
1705326734.2406883,-2.0,-2.0,4.0,-4.0,-7.0,-1.0,0.0,0.0
1705326734.250752,-1.0,-10.0,-2.0,-1.0,-4.0,-3.0,-3.0,-4.0
1705326734.250752,6.0,-4.0,-16.0,3.0,6.0,7.0,4.0,1.0
1705326734.260711,-3.0,2.0,39.0,12.0,0.0,-1.0,-1.0,-3.0
1705326734.260711,0.0,6.0,-3.0,2.0,0.0,-1.0,0.0,-2.0
1705326734.2707138,-11.0,-11.0,-28.0,-8.0,0.0,0.0,-3.0,-2.0
1705326734.2707138,1.0,9.0,39.0,-16.0,-14.0,-5.0,-2.0,-1.0
1705326734.2807126,2.0,2.0,2.0,8.0,0.0,0.0,0.0,2.0
1705326734.2807126,1.0,-4.0,1.0,-4.0,5.0,5.0,2.0,2.0
1705326734.3007135,1.0,5.0,-7.0,-1.0,-2.0,-2.0,-3.0,-1.0
1705326734.3007135,-3.0,-38.0,-1.0,-12.0,-4.0,-4.0,1.0,-1.0
1705326734.3007135,0.0,-6.0,-12.0,3.0,0.0,-2.0,-2.0,-1.0
1705326734.3007135,-2.0,5.0,-1.0,-4.0,-2.0,0.0,2.0,2.0
1705326734.3207102,10.0,-5.0,-12.0,-5.0,-2.0,0.0,3.0,1.0
1705326734.3207102,-23.0,-8.0,-14.0,4.0,0.0,-1.0,-4.0,-5.0
1705326734.3207102,3.0,-4.0,3.0,-3.0,-3.0,-4.0,-2.0,-4.0
1705326734.3207102,-7.0,-7.0,-5.0,3.0,-1.0,3.0,-9.0,0.0
1705326734.3307118,2.0,-5.0,1.0,-3.0,-4.0,-7.0,5.0,-11.0
1705326734.3407125,5.0,2.0,-5.0,4.0,2.0,-2.0,-5.0,-2.0
1705326734.3407125,11.0,22.0,37.0,7.0,4.0,2.0,-12.0,-13.0
1705326734.3407125,-41.0,-76.0,-63.0,-15.0,-7.0,-4.0,11.0,20.0
1705326734.3607132,9.0,-1.0,13.0,2.0,0.0,1.0,24.0,26.0
1705326734.3607132,19.0,5.0,-3.0,-6.0,-5.0,-11.0,-36.0,22.0
1705326734.3607132,-5.0,1.0,-12.0,3.0,3.0,1.0,36.0,15.0
1705326734.3607132,9.0,9.0,11.0,7.0,5.0,1.0,-3.0,-14.0
1705326734.3807125,-8.0,-6.0,6.0,2.0,1.0,6.0,2.0,14.0
1705326734.3807125,0.0,11.0,-15.0,-7.0,-6.0,1.0,25.0,3.0
1705326734.3807125,-7.0,-11.0,-8.0,-3.0,-7.0,-14.0,-34.0,-41.0
1705326734.3807125,7.0,11.0,14.0,-8.0,-3.0,-4.0,-8.0,7.0
1705326734.390709,-18.0,-12.0,-27.0,12.0,10.0,-4.0,-24.0,-27.0
1705326734.390709,5.0,5.0,1.0,-1.0,3.0,4.0,13.0,9.0
1705326734.4007142,0.0,2.0,4.0,9.0,-10.0,3.0,1.0,7.0
1705326734.4007142,4.0,24.0,30.0,13.0,-2.0,-2.0,15.0,-3.0
1705326734.4207177,-3.0,-4.0,11.0,-19.0,4.0,-2.0,-16.0,-4.0
1705326734.4207177,0.0,10.0,29.0,11.0,3.0,-1.0,-9.0,-17.0
1705326734.4207177,-3.0,1.0,-1.0,0.0,-1.0,0.0,5.0,12.0
1705326734.4207177,4.0,-23.0,-38.0,-15.0,-11.0,-9.0,-15.0,-9.0
1705326734.4407158,5.0,22.0,26.0,15.0,0.0,5.0,7.0,-1.0
1705326734.4407158,2.0,-11.0,-12.0,5.0,3.0,1.0,6.0,2.0
1705326734.4407158,-7.0,2.0,-28.0,-6.0,2.0,0.0,3.0,8.0
1705326734.4407158,6.0,10.0,47.0,15.0,4.0,1.0,2.0,-1.0
1705326734.4507456,-3.0,6.0,-20.0,-10.0,-9.0,-3.0,-7.0,-6.0
1705326734.4507456,-16.0,-27.0,-67.0,-25.0,-10.0,-7.0,1.0,-10.0
1705326734.4607086,5.0,1.0,93.0,10.0,2.0,2.0,-8.0,3.0
1705326734.4607086,5.0,19.0,-63.0,-12.0,3.0,5.0,5.0,-5.0
1705326734.4807127,0.0,-3.0,-10.0,-4.0,-2.0,-3.0,-6.0,7.0
1705326734.4807127,-1.0,1.0,97.0,21.0,-2.0,-1.0,-15.0,10.0
1705326734.4807127,-5.0,-13.0,-100.0,-16.0,5.0,-4.0,10.0,-24.0
1705326734.4807127,-2.0,11.0,74.0,17.0,9.0,5.0,-26.0,5.0
1705326734.5007093,-9.0,-15.0,3.0,-8.0,-8.0,0.0,46.0,22.0
1705326734.5007093,2.0,5.0,-40.0,-8.0,-4.0,-12.0,-4.0,-47.0
1705326734.5007093,5.0,-3.0,13.0,6.0,3.0,7.0,0.0,30.0
1705326734.5007093,0.0,1.0,-8.0,1.0,-2.0,1.0,15.0,-4.0
1705326734.5107083,-4.0,1.0,-19.0,-2.0,-2.0,-1.0,-15.0,-4.0
1705326734.5107083,9.0,3.0,2.0,-4.0,0.0,5.0,10.0,1.0
1705326734.5207143,-18.0,-11.0,-3.0,-4.0,-5.0,-2.0,-18.0,7.0
1705326734.5207143,-3.0,-4.0,-17.0,-4.0,-4.0,-3.0,8.0,-2.0
1705326734.540708,1.0,-4.0,20.0,7.0,5.0,1.0,-4.0,-5.0
1705326734.540708,4.0,4.0,-14.0,1.0,0.0,0.0,-8.0,7.0
1705326734.540708,13.0,2.0,7.0,-9.0,-5.0,-1.0,7.0,-5.0
1705326734.540708,-1.0,1.0,-7.0,-5.0,-3.0,9.0,1.0,14.0
1705326734.5607114,1.0,2.0,18.0,1.0,-8.0,-22.0,-77.0,-32.0
1705326734.5607114,2.0,-18.0,-26.0,2.0,6.0,1.0,9.0,-16.0
1705326734.5607114,5.0,1.0,-16.0,-1.0,9.0,-1.0,-1.0,13.0
1705326734.5607114,-1.0,3.0,1.0,-3.0,-3.0,-6.0,7.0,-19.0
1705326734.57071,-18.0,-8.0,1.0,-7.0,-10.0,-3.0,-4.0,-16.0
1705326734.57071,-1.0,15.0,-9.0,-9.0,-9.0,-4.0,-22.0,-2.0
1705326734.5807133,-4.0,-2.0,2.0,-5.0,-5.0,-3.0,-12.0,6.0
1705326734.5807133,4.0,6.0,-1.0,5.0,4.0,8.0,28.0,23.0
1705326734.6007113,15.0,-3.0,11.0,25.0,11.0,6.0,7.0,0.0
1705326734.6007113,-28.0,-19.0,-27.0,-21.0,4.0,0.0,4.0,6.0
1705326734.6007113,1.0,6.0,-15.0,-4.0,-12.0,-4.0,14.0,2.0
1705326734.6007113,2.0,-3.0,-2.0,-63.0,-15.0,-11.0,-16.0,-11.0
1705326734.6207163,1.0,7.0,59.0,78.0,21.0,12.0,12.0,1.0
1705326734.6207163,7.0,3.0,-28.0,2.0,8.0,6.0,2.0,7.0
1705326734.6207163,-11.0,-6.0,-15.0,-21.0,-4.0,-4.0,0.0,-12.0
1705326734.6207163,0.0,-4.0,-12.0,1.0,3.0,-2.0,-10.0,-4.0
1705326734.6307487,7.0,3.0,-29.0,-22.0,-13.0,-5.0,-1.0,3.0
1705326734.6307487,-17.0,11.0,25.0,21.0,2.0,4.0,11.0,10.0
1705326734.6407108,-1.0,-2.0,43.0,1.0,0.0,-1.0,-5.0,-9.0
1705326734.6407108,2.0,4.0,-6.0,10.0,-1.0,-4.0,-3.0,-1.0
1705326734.6663926,-1.0,-1.0,-21.0,-16.0,1.0,1.0,8.0,2.0
1705326734.6663926,11.0,0.0,-18.0,4.0,-1.0,-1.0,1.0,1.0
1705326734.6663926,-5.0,-1.0,-22.0,-14.0,-6.0,-2.0,3.0,2.0
1705326734.6663926,0.0,-2.0,8.0,11.0,0.0,-3.0,-4.0,-9.0
1705326734.6831465,1.0,-1.0,-18.0,-8.0,2.0,8.0,26.0,10.0
1705326734.6831465,1.0,-1.0,3.0,-12.0,-9.0,-8.0,-10.0,-1.0
1705326734.6831465,-2.0,-5.0,-10.0,12.0,8.0,-1.0,1.0,-1.0
1705326734.6831465,-1.0,1.0,12.0,30.0,9.0,3.0,0.0,6.0
1705326734.6931527,-4.0,-13.0,-12.0,-22.0,-6.0,-3.0,5.0,-3.0
1705326734.6931527,-1.0,2.0,-1.0,-5.0,-4.0,1.0,-1.0,-2.0
1705326734.7131531,-2.0,-1.0,3.0,8.0,4.0,6.0,-9.0,3.0
1705326734.7131531,-4.0,-1.0,1.0,7.0,-3.0,-12.0,10.0,-7.0
1705326734.7131531,-5.0,-8.0,-55.0,-18.0,-6.0,-3.0,-8.0,-3.0
1705326734.7131531,-1.0,-1.0,37.0,-4.0,-4.0,0.0,4.0,-2.0
1705326734.7231534,0.0,0.0,-26.0,0.0,-2.0,2.0,-16.0,-5.0
1705326734.7231534,-4.0,-1.0,33.0,3.0,-1.0,-4.0,-9.0,-4.0
1705326734.7433853,-5.0,-2.0,10.0,-5.0,-5.0,-4.0,7.0,-2.0
1705326734.7433853,3.0,-1.0,-4.0,2.0,2.0,1.0,-11.0,4.0
1705326734.7433853,1.0,9.0,-14.0,-2.0,1.0,2.0,15.0,-2.0
1705326734.7433853,-1.0,-26.0,-13.0,-2.0,-2.0,4.0,4.0,0.0
1705326734.753149,-1.0,5.0,13.0,-2.0,5.0,-4.0,-17.0,1.0
1705326734.753149,2.0,1.0,-6.0,2.0,-2.0,-3.0,13.0,1.0
1705326734.7731514,-4.0,-6.0,8.0,0.0,-4.0,-4.0,7.0,-3.0
1705326734.7731514,-6.0,4.0,-2.0,-5.0,-6.0,-1.0,-2.0,0.0
1705326734.7731514,0.0,-3.0,-8.0,-2.0,-2.0,3.0,-2.0,3.0
1705326734.7731514,7.0,2.0,31.0,14.0,7.0,6.0,-3.0,-5.0
1705326734.7831533,-12.0,-17.0,-41.0,-17.0,-5.0,-7.0,-4.0,-7.0
1705326734.7831533,10.0,6.0,-10.0,-2.0,-5.0,-1.0,-9.0,-1.0
1705326734.803152,-5.0,2.0,5.0,-13.0,-7.0,-5.0,-1.0,1.0
1705326734.803152,-3.0,-2.0,-7.0,-5.0,-3.0,-3.0,-7.0,3.0
1705326734.803152,3.0,0.0,15.0,4.0,1.0,-1.0,3.0,1.0
1705326734.803152,-3.0,6.0,21.0,4.0,4.0,0.0,-3.0,-3.0
1705326734.8131526,1.0,0.0,-10.0,-2.0,-2.0,-2.0,0.0,0.0
1705326734.8131526,1.0,-5.0,2.0,-2.0,0.0,-1.0,0.0,-1.0
1705326734.8331482,-1.0,2.0,20.0,6.0,1.0,-5.0,-19.0,-9.0
1705326734.8331482,-2.0,9.0,-26.0,-5.0,-1.0,3.0,-11.0,-5.0
1705326734.8331482,13.0,1.0,8.0,-4.0,-4.0,4.0,-48.0,7.0
1705326734.8331482,9.0,2.0,5.0,2.0,1.0,-1.0,-2.0,11.0
1705326734.843152,-8.0,-6.0,-6.0,0.0,-2.0,-10.0,-6.0,15.0
1705326734.843152,-14.0,-4.0,12.0,0.0,-2.0,-23.0,2.0,-25.0
1705326734.8631778,0.0,-33.0,-8.0,-1.0,0.0,-6.0,-11.0,-11.0
1705326734.8631778,2.0,7.0,-1.0,-1.0,-6.0,0.0,19.0,0.0
1705326734.8631778,15.0,0.0,7.0,1.0,1.0,19.0,9.0,13.0
1705326734.8631778,1.0,-19.0,0.0,0.0,3.0,0.0,4.0,14.0
1705326734.8731816,-4.0,47.0,25.0,7.0,0.0,3.0,9.0,-8.0
1705326734.8731816,-11.0,-11.0,-53.0,-14.0,-5.0,2.0,-3.0,-1.0
1705326734.8931496,1.0,-5.0,47.0,28.0,-8.0,-2.0,1.0,-11.0
1705326734.8931496,-4.0,-10.0,-2.0,-23.0,13.0,4.0,-7.0,-4.0
1705326734.8931496,0.0,1.0,27.0,-11.0,-7.0,-1.0,12.0,-2.0
1705326734.8931496,-3.0,-1.0,9.0,-7.0,-5.0,-8.0,-11.0,-2.0
1705326734.9031546,1.0,2.0,-39.0,1.0,0.0,1.0,5.0,-1.0
1705326734.9031546,3.0,18.0,46.0,41.0,2.0,3.0,-5.0,-2.0
1705326734.923185,1.0,-2.0,-19.0,13.0,7.0,1.0,9.0,9.0
1705326734.923185,-8.0,-3.0,20.0,-3.0,3.0,-2.0,-1.0,-6.0
1705326734.9331546,-2.0,-10.0,-2.0,-16.0,-10.0,-4.0,-4.0,-7.0
1705326734.9331546,-8.0,1.0,-14.0,-3.0,-7.0,3.0,0.0,4.0
1705326734.9331546,5.0,-4.0,11.0,-8.0,-4.0,-3.0,9.0,-3.0
1705326734.9331546,-10.0,-6.0,-4.0,4.0,-4.0,0.0,1.0,-3.0
1705326734.9431906,-6.0,2.0,0.0,-9.0,4.0,-2.0,0.0,-10.0
1705326734.9431906,4.0,-3.0,-21.0,1.0,4.0,3.0,-3.0,5.0
1705326734.96315,1.0,1.0,4.0,1.0,0.0,-1.0,2.0,-4.0
1705326734.96315,5.0,3.0,-2.0,1.0,3.0,0.0,1.0,-1.0
1705326734.96315,-2.0,3.0,4.0,3.0,1.0,-1.0,-10.0,10.0
1705326734.96315,2.0,1.0,-4.0,-14.0,-9.0,-3.0,-8.0,-9.0
1705326734.9831505,-2.0,-7.0,-6.0,4.0,-1.0,-1.0,9.0,-2.0
1705326734.9831505,-4.0,-6.0,-8.0,-6.0,-4.0,-2.0,-1.0,-4.0
1705326734.9931507,0.0,2.0,6.0,-6.0,1.0,1.0,3.0,-3.0
1705326734.9931507,0.0,-1.0,-14.0,1.0,-3.0,5.0,-11.0,3.0
1705326734.9931507,-4.0,-2.0,7.0,-4.0,0.0,-1.0,-22.0,2.0
1705326734.9931507,-6.0,4.0,12.0,1.0,-8.0,-11.0,30.0,-5.0
1705326735.0031912,2.0,1.0,-1.0,3.0,6.0,0.0,-1.0,-3.0
1705326735.0031912,1.0,-3.0,-18.0,-8.0,-1.0,2.0,4.0,-6.0
1705326735.0131528,-6.0,-4.0,22.0,-2.0,-3.0,-6.0,-6.0,-7.0
1705326735.0131528,-4.0,3.0,6.0,1.0,1.0,3.0,-10.0,1.0
1705326735.023156,5.0,-5.0,16.0,6.0,5.0,18.0,1.0,2.0
1705326735.023156,-18.0,-3.0,-11.0,-3.0,-4.0,-29.0,-10.0,-16.0
1705326735.0431526,8.0,10.0,-7.0,-4.0,-3.0,-2.0,0.0,18.0
1705326735.0431526,18.0,2.0,8.0,4.0,1.0,28.0,22.0,14.0
1705326735.0431526,-32.0,-12.0,-24.0,-5.0,-7.0,-16.0,-31.0,-15.0
1705326735.0431526,-5.0,3.0,6.0,3.0,1.0,-5.0,19.0,0.0
1705326735.053153,-17.0,-6.0,-32.0,-12.0,-4.0,2.0,25.0,-2.0
1705326735.053153,16.0,-10.0,-1.0,6.0,3.0,-23.0,-21.0,11.0
1705326735.063149,-4.0,14.0,-3.0,9.0,3.0,5.0,19.0,8.0
1705326735.063149,-4.0,-18.0,12.0,-18.0,-7.0,1.0,-24.0,-22.0
1705326735.0731533,-11.0,4.0,-74.0,-6.0,0.0,2.0,-8.0,-14.0
1705326735.0731533,6.0,11.0,-23.0,-6.0,1.0,6.0,0.0,0.0
1705326735.0831566,3.0,3.0,29.0,-1.0,-2.0,-6.0,-5.0,-1.0
1705326735.0831566,8.0,3.0,50.0,9.0,1.0,1.0,-4.0,9.0
1705326735.1131525,2.0,-19.0,-53.0,8.0,-1.0,-4.0,14.0,-5.0
1705326735.1131525,-7.0,5.0,28.0,36.0,10.0,6.0,-14.0,-9.0
1705326735.1131525,5.0,3.0,14.0,-24.0,0.0,-7.0,-2.0,-2.0
1705326735.1131525,-2.0,-8.0,-59.0,-33.0,-4.0,3.0,16.0,3.0
1705326735.1231534,0.0,6.0,42.0,4.0,-4.0,1.0,-5.0,-1.0
1705326735.1231534,-3.0,-6.0,-39.0,-5.0,-4.0,-7.0,-6.0,1.0
1705326735.1231534,3.0,-8.0,-20.0,12.0,-2.0,-1.0,6.0,-4.0
1705326735.1231534,1.0,4.0,21.0,9.0,-2.0,5.0,2.0,8.0
1705326735.1331487,1.0,2.0,12.0,-11.0,2.0,1.0,5.0,0.0
1705326735.1331487,5.0,4.0,21.0,-1.0,-3.0,-10.0,-32.0,14.0
1705326735.1431532,-9.0,7.0,1.0,3.0,1.0,3.0,6.0,-46.0
1705326735.1431532,-9.0,1.0,-29.0,-6.0,1.0,6.0,12.0,1.0
1705326735.163156,-3.0,4.0,12.0,8.0,1.0,-6.0,0.0,-22.0
1705326735.163156,-4.0,10.0,52.0,3.0,1.0,5.0,8.0,-24.0
1705326735.1731522,7.0,-13.0,3.0,-2.0,2.0,6.0,2.0,16.0
1705326735.1731522,-5.0,-18.0,-78.0,-19.0,-5.0,-2.0,1.0,1.0
1705326735.1731522,-1.0,15.0,106.0,18.0,2.0,-1.0,-8.0,5.0
1705326735.1731522,-13.0,-27.0,-31.0,-31.0,-10.0,-7.0,-1.0,-6.0
1705326735.1876445,6.0,6.0,-24.0,-11.0,-5.0,-3.0,4.0,7.0
1705326735.1876445,5.0,12.0,36.0,49.0,3.0,3.0,-1.0,0.0
1705326735.2026446,-2.0,-18.0,-10.0,-6.0,10.0,1.0,1.0,4.0
1705326735.2026446,-2.0,0.0,-4.0,-5.0,-3.0,-2.0,-3.0,2.0
1705326735.2036746,-3.0,-3.0,-3.0,-14.0,-4.0,-8.0,-1.0,3.0
1705326735.2036746,5.0,10.0,-19.0,-7.0,3.0,4.0,0.0,7.0
1705326735.2160432,9.0,-1.0,5.0,5.0,0.0,4.0,-4.0,2.0
1705326735.2160432,-10.0,-2.0,16.0,5.0,-1.0,-3.0,3.0,-3.0
1705326735.226047,5.0,1.0,1.0,4.0,-4.0,-3.0,-3.0,4.0
1705326735.226047,1.0,-3.0,29.0,4.0,-4.0,-3.0,-6.0,1.0
1705326735.2362332,-14.0,-46.0,-26.0,-10.0,-5.0,-4.0,-3.0,0.0
1705326735.2362332,0.0,12.0,-14.0,-8.0,-5.0,-6.0,-2.0,-2.0
1705326735.2462294,1.0,3.0,-9.0,-2.0,-3.0,-2.0,0.0,-9.0
1705326735.2462294,2.0,1.0,10.0,-2.0,2.0,2.0,-3.0,1.0
1705326735.2560842,2.0,6.0,-5.0,0.0,0.0,-1.0,-2.0,-3.0
1705326735.2560842,-3.0,-7.0,-18.0,-4.0,-1.0,-2.0,-1.0,-2.0
1705326735.2560842,-3.0,-8.0,6.0,1.0,-1.0,3.0,0.0,6.0
1705326735.2560842,5.0,6.0,9.0,1.0,0.0,-1.0,2.0,1.0
1705326735.2760458,-5.0,5.0,15.0,-3.0,-2.0,-6.0,-34.0,0.0
1705326735.2760458,-3.0,-3.0,-2.0,3.0,0.0,5.0,29.0,1.0
1705326735.2860491,-1.0,12.0,32.0,-1.0,-2.0,-5.0,-3.0,-2.0
1705326735.2860491,-3.0,-7.0,-30.0,-12.0,-2.0,-1.0,-4.0,-3.0
1705326735.296048,2.0,10.0,30.0,12.0,0.0,3.0,7.0,6.0
1705326735.296048,-5.0,-11.0,7.0,-2.0,0.0,-1.0,-22.0,-4.0
1705326735.306067,10.0,1.0,14.0,4.0,0.0,-7.0,8.0,1.0
1705326735.306067,2.0,-8.0,14.0,-3.0,-3.0,0.0,3.0,6.0
1705326735.316046,-1.0,7.0,-22.0,-3.0,-1.0,-3.0,5.0,-27.0
1705326735.316046,15.0,-10.0,5.0,-3.0,0.0,2.0,-4.0,13.0
1705326735.316046,-10.0,-22.0,-21.0,-4.0,-1.0,3.0,3.0,-1.0
1705326735.316046,1.0,-4.0,13.0,6.0,3.0,-4.0,-29.0,6.0
1705326735.3460467,-4.0,21.0,3.0,-2.0,-4.0,-2.0,19.0,9.0
1705326735.3460467,0.0,23.0,-12.0,0.0,3.0,26.0,26.0,5.0
1705326735.3460467,-7.0,-2.0,-9.0,-8.0,-6.0,-36.0,-9.0,-19.0
1705326735.3460467,-9.0,-4.0,29.0,0.0,-1.0,19.0,-9.0,-20.0
1705326735.3560483,13.0,9.0,7.0,-3.0,-3.0,-15.0,8.0,6.0
1705326735.3560483,-3.0,10.0,8.0,8.0,0.0,-2.0,1.0,-5.0
1705326735.3660486,-2.0,-2.0,-3.0,1.0,5.0,16.0,-11.0,12.0
1705326735.3660486,-2.0,9.0,0.0,-6.0,-1.0,-8.0,0.0,6.0
1705326735.3860471,-3.0,-13.0,7.0,4.0,-1.0,1.0,4.0,-2.0
1705326735.3860471,-5.0,-9.0,-26.0,-17.0,-5.0,-8.0,-13.0,-13.0
1705326735.3860471,2.0,-4.0,4.0,6.0,3.0,18.0,10.0,3.0
1705326735.3860471,7.0,11.0,15.0,-5.0,-7.0,-10.0,-8.0,2.0
1705326735.3960505,-6.0,-15.0,-32.0,10.0,-1.0,5.0,-6.0,2.0
1705326735.3960505,-4.0,-1.0,-1.0,-11.0,8.0,-7.0,5.0,-8.0
1705326735.4060476,2.0,2.0,18.0,-14.0,4.0,11.0,-2.0,11.0
1705326735.4060476,-1.0,-12.0,-52.0,-2.0,1.0,-2.0,10.0,0.0
1705326735.4260755,-2.0,5.0,60.0,0.0,-7.0,-8.0,-2.0,-1.0
1705326735.4260755,-3.0,-3.0,-17.0,21.0,-2.0,2.0,-11.0,-4.0
1705326735.4260755,-5.0,-3.0,-14.0,-9.0,-4.0,-9.0,-6.0,-4.0
1705326735.4260755,4.0,3.0,14.0,-18.0,-1.0,0.0,5.0,2.0
1705326735.446049,-8.0,-3.0,-25.0,-7.0,-10.0,2.0,-8.0,-8.0
1705326735.446049,-2.0,-6.0,12.0,8.0,-1.0,-10.0,-7.0,4.0
1705326735.446049,3.0,3.0,-4.0,8.0,1.0,1.0,4.0,1.0
1705326735.446049,-2.0,-12.0,-7.0,8.0,1.0,-2.0,11.0,-2.0
1705326735.456049,2.0,1.0,-18.0,-12.0,3.0,1.0,-16.0,7.0
1705326735.456049,-2.0,1.0,4.0,-2.0,-2.0,-5.0,-11.0,-6.0
1705326735.4660501,-4.0,-2.0,-12.0,-7.0,-3.0,2.0,17.0,1.0
1705326735.4660501,-1.0,2.0,9.0,7.0,0.0,-4.0,-6.0,-1.0
1705326735.4864058,1.0,1.0,-10.0,-5.0,-2.0,0.0,-6.0,4.0
1705326735.4864058,-6.0,-9.0,-5.0,-12.0,-4.0,-1.0,-4.0,1.0
1705326735.4864058,-2.0,5.0,0.0,9.0,1.0,-1.0,-5.0,4.0
1705326735.4864058,1.0,-1.0,-2.0,0.0,1.0,4.0,0.0,-4.0
1705326735.506048,0.0,-1.0,-2.0,4.0,3.0,3.0,16.0,7.0
1705326735.506048,0.0,-3.0,-22.0,-4.0,1.0,-5.0,8.0,6.0
1705326735.506048,2.0,-4.0,35.0,-2.0,-6.0,-5.0,-16.0,-9.0
1705326735.506048,-5.0,3.0,18.0,6.0,-2.0,-4.0,20.0,3.0
1705326735.516086,5.0,-9.0,-39.0,-8.0,0.0,-1.0,2.0,7.0
1705326735.516086,-3.0,-1.0,5.0,0.0,-2.0,4.0,8.0,-5.0
1705326735.5260465,2.0,2.0,1.0,4.0,0.0,0.0,-8.0,-2.0
1705326735.5260465,-1.0,3.0,-21.0,-5.0,-3.0,-3.0,1.0,0.0
1705326735.5460458,-1.0,-2.0,4.0,1.0,1.0,4.0,0.0,0.0
1705326735.5460458,8.0,0.0,28.0,2.0,0.0,-1.0,0.0,-44.0
1705326735.5460458,-9.0,-5.0,-7.0,5.0,1.0,2.0,4.0,4.0
1705326735.5460458,1.0,0.0,-59.0,-9.0,-6.0,4.0,-10.0,-23.0
1705326735.55605,-3.0,-9.0,-6.0,-5.0,-2.0,-19.0,4.0,14.0
1705326735.55605,-4.0,1.0,10.0,-1.0,-1.0,0.0,3.0,0.0
1705326735.5660486,10.0,-1.0,-6.0,5.0,1.0,6.0,11.0,14.0
1705326735.5660486,8.0,17.0,29.0,7.0,3.0,6.0,13.0,3.0
1705326735.5760496,-6.0,-9.0,17.0,-1.0,-4.0,7.0,-10.0,1.0
1705326735.5760496,-12.0,-5.0,-63.0,-21.0,-12.0,-9.0,-9.0,-4.0
1705326735.5860937,2.0,1.0,12.0,9.0,8.0,2.0,-17.0,7.0
1705326735.5860937,-1.0,0.0,-4.0,6.0,4.0,3.0,-12.0,-17.0
1705326735.6060503,-9.0,7.0,-4.0,-4.0,-3.0,-2.0,-6.0,-19.0
1705326735.6060503,2.0,1.0,40.0,15.0,1.0,-3.0,4.0,16.0
1705326735.6060503,-8.0,3.0,14.0,-8.0,-11.0,-7.0,-3.0,-13.0
1705326735.6060503,4.0,-5.0,-22.0,-15.0,-3.0,-5.0,-4.0,12.0
1705326735.6160467,-4.0,-2.0,0.0,-3.0,2.0,2.0,7.0,-6.0
1705326735.6160467,0.0,-3.0,4.0,14.0,4.0,1.0,-4.0,-3.0
1705326735.6260457,-3.0,2.0,0.0,0.0,-1.0,-2.0,2.0,2.0
1705326735.6260457,3.0,-4.0,40.0,20.0,-6.0,-7.0,-2.0,3.0
1705326735.6360474,-5.0,5.0,-21.0,-14.0,7.0,6.0,-3.0,-7.0
1705326735.6360474,1.0,1.0,4.0,8.0,8.0,1.0,-1.0,11.0
1705326735.646047,0.0,-31.0,-48.0,-17.0,-5.0,-4.0,-2.0,-4.0
1705326735.646047,3.0,48.0,28.0,12.0,2.0,-2.0,1.0,10.0
1705326735.6660502,0.0,-50.0,-16.0,-1.0,-5.0,-1.0,0.0,-3.0
1705326735.6660502,5.0,19.0,-45.0,-25.0,-8.0,-2.0,-5.0,6.0
1705326735.6660502,1.0,55.0,-12.0,5.0,1.0,-2.0,1.0,-35.0
1705326735.6660502,-12.0,-40.0,39.0,-2.0,-4.0,-6.0,-3.0,25.0
1705326735.676054,6.0,17.0,-14.0,6.0,-2.0,-2.0,-2.0,1.0
1705326735.676054,-5.0,-34.0,-44.0,-9.0,3.0,3.0,3.0,3.0
1705326735.686049,1.0,-3.0,14.0,-12.0,-7.0,-7.0,-2.0,-31.0
1705326735.686049,-4.0,0.0,-35.0,-10.0,-2.0,0.0,-35.0,5.0
1705326735.6960843,10.0,11.0,46.0,8.0,3.0,0.0,10.0,-24.0
1705326735.6960843,-8.0,4.0,3.0,3.0,-2.0,-3.0,2.0,11.0
1705326735.7060914,1.0,13.0,-13.0,-1.0,-2.0,-1.0,-8.0,6.0
1705326735.7060914,2.0,-7.0,1.0,1.0,2.0,3.0,-4.0,0.0
1705326735.7315931,-2.0,-9.0,1.0,-1.0,-2.0,1.0,-4.0,6.0
1705326735.7315931,-3.0,4.0,8.0,0.0,-2.0,-6.0,-15.0,-8.0
1705326735.7315931,2.0,-22.0,-7.0,5.0,2.0,2.0,6.0,15.0
1705326735.7315931,2.0,10.0,46.0,12.0,-1.0,-5.0,5.0,-8.0
1705326735.7406068,-9.0,-34.0,-42.0,-19.0,-5.0,-2.0,-5.0,4.0
1705326735.7406068,-8.0,19.0,53.0,0.0,2.0,4.0,-2.0,-14.0
1705326735.748824,7.0,-6.0,10.0,8.0,5.0,2.0,3.0,18.0
1705326735.748824,-1.0,3.0,-2.0,-5.0,-1.0,-3.0,1.0,-8.0
1705326735.7588668,8.0,18.0,-8.0,4.0,-4.0,1.0,-4.0,-3.0
1705326735.7588668,1.0,-17.0,2.0,-3.0,-7.0,-4.0,-1.0,0.0
1705326735.7588668,-4.0,-11.0,21.0,-2.0,-1.0,-1.0,0.0,3.0
1705326735.7588668,1.0,3.0,-25.0,2.0,3.0,1.0,9.0,-3.0
1705326735.7888315,4.0,1.0,-13.0,1.0,1.0,0.0,1.0,3.0
1705326735.7888315,-4.0,5.0,2.0,-9.0,-6.0,-5.0,-1.0,-5.0
1705326735.7888315,4.0,-1.0,-9.0,4.0,-1.0,-1.0,11.0,18.0
1705326735.7888315,-3.0,-4.0,-12.0,-2.0,3.0,4.0,-19.0,-19.0
1705326735.7988315,10.0,5.0,-9.0,1.0,0.0,2.0,-6.0,17.0
1705326735.7988315,7.0,-16.0,-14.0,-12.0,-9.0,-9.0,-2.0,-4.0
1705326735.8088288,5.0,12.0,8.0,5.0,1.0,-4.0,-14.0,23.0
1705326735.8088288,-6.0,-22.0,-21.0,-4.0,0.0,-3.0,13.0,-11.0
1705326735.8188267,10.0,12.0,20.0,0.0,-1.0,-3.0,-3.0,-35.0
1705326735.8188267,-18.0,-1.0,14.0,7.0,0.0,-5.0,-35.0,-24.0
1705326735.8188267,-23.0,-34.0,-20.0,-3.0,-2.0,5.0,2.0,0.0
1705326735.8188267,47.0,-39.0,-4.0,-3.0,1.0,5.0,24.0,39.0
1705326735.8488297,-9.0,36.0,14.0,-2.0,-5.0,-9.0,9.0,-3.0
1705326735.8488297,3.0,10.0,5.0,6.0,-1.0,-6.0,-46.0,-36.0
1705326735.8488297,-12.0,-11.0,-10.0,5.0,3.0,-2.0,10.0,-12.0
1705326735.8488297,-14.0,-20.0,-22.0,-14.0,-5.0,0.0,15.0,5.0
1705326735.8588607,-1.0,4.0,-2.0,-4.0,-2.0,8.0,15.0,15.0
1705326735.8588607,8.0,7.0,16.0,18.0,12.0,10.0,26.0,22.0
1705326735.8588607,8.0,4.0,3.0,13.0,4.0,-2.0,-11.0,-7.0
1705326735.8688376,-12.0,9.0,35.0,-50.0,-16.0,-7.0,-6.0,-4.0
1705326735.878827,-1.0,2.0,-13.0,11.0,-1.0,0.0,-17.0,-4.0
1705326735.878827,-5.0,-10.0,-33.0,4.0,10.0,-1.0,6.0,3.0
1705326735.8888292,9.0,5.0,-23.0,34.0,1.0,-1.0,7.0,2.0
1705326735.8888292,-14.0,6.0,30.0,1.0,1.0,-4.0,-10.0,-13.0
1705326735.898862,-3.0,-2.0,38.0,-3.0,-3.0,-6.0,0.0,-1.0
1705326735.898862,2.0,-21.0,-64.0,-26.0,-12.0,-2.0,15.0,14.0
1705326735.9088652,-2.0,-2.0,-1.0,-22.0,-7.0,-1.0,-3.0,-9.0
1705326735.9088652,-7.0,0.0,-60.0,9.0,-4.0,-3.0,-5.0,-5.0
1705326735.9188664,-14.0,-7.0,57.0,-1.0,1.0,0.0,-6.0,-3.0
1705326735.9188664,10.0,12.0,0.0,13.0,3.0,5.0,12.0,13.0
1705326735.9288661,6.0,3.0,13.0,-12.0,-3.0,0.0,-7.0,-4.0
1705326735.9288661,-4.0,3.0,-33.0,-4.0,-4.0,-3.0,-7.0,-7.0
1705326735.9388614,-1.0,-1.0,-2.0,8.0,8.0,2.0,3.0,7.0
1705326735.9388614,6.0,-7.0,-15.0,-4.0,3.0,4.0,8.0,6.0
1705326735.9488556,-14.0,0.0,22.0,-8.0,-5.0,-5.0,-2.0,-8.0
1705326735.9488556,-3.0,8.0,-6.0,6.0,2.0,1.0,0.0,-2.0
1705326735.958862,1.0,3.0,17.0,-1.0,-6.0,-5.0,0.0,1.0
1705326735.958862,-6.0,-13.0,3.0,-5.0,-5.0,-3.0,1.0,1.0
1705326735.969022,0.0,10.0,-17.0,-8.0,-3.0,-1.0,-3.0,0.0
1705326735.969022,-3.0,4.0,5.0,13.0,5.0,1.0,1.0,-11.0
1705326735.9792447,2.0,-3.0,-21.0,-2.0,1.0,-3.0,-7.0,1.0
1705326735.9792447,-5.0,5.0,30.0,-7.0,-5.0,-2.0,20.0,2.0
1705326735.988861,4.0,-3.0,3.0,-1.0,0.0,1.0,-3.0,0.0
1705326735.988861,-4.0,1.0,6.0,10.0,1.0,1.0,11.0,1.0
1705326735.9988308,-3.0,-4.0,-3.0,-9.0,-6.0,-5.0,-8.0,2.0
1705326735.9988308,-5.0,-5.0,16.0,1.0,-2.0,-1.0,0.0,-14.0
1705326735.9988308,2.0,3.0,-6.0,-5.0,0.0,2.0,2.0,-1.0
1705326735.9988308,-3.0,2.0,5.0,-4.0,-1.0,1.0,2.0,0.0
1705326736.018858,2.0,1.0,-19.0,1.0,3.0,2.0,0.0,1.0
1705326736.018858,-1.0,-9.0,28.0,4.0,-3.0,0.0,-3.0,5.0
1705326736.02883,2.0,3.0,-23.0,-1.0,-3.0,-3.0,-2.0,-4.0
1705326736.02883,5.0,12.0,20.0,3.0,0.0,-1.0,-10.0,1.0
1705326736.0388603,-17.0,-28.0,31.0,-9.0,-7.0,0.0,-3.0,-9.0
1705326736.0388603,14.0,28.0,52.0,11.0,3.0,0.0,-4.0,9.0
1705326736.048827,-11.0,-13.0,-16.0,-8.0,-1.0,-2.0,1.0,2.0
1705326736.048827,6.0,5.0,-30.0,0.0,2.0,1.0,-13.0,-12.0
1705326736.0588279,3.0,-4.0,-16.0,1.0,-2.0,-5.0,24.0,7.0
1705326736.0588279,-1.0,3.0,2.0,-3.0,-5.0,0.0,-14.0,13.0
1705326736.0588279,-9.0,7.0,24.0,-3.0,-2.0,-1.0,-2.0,-10.0
1705326736.0588279,3.0,7.0,23.0,9.0,1.0,-1.0,2.0,4.0
1705326736.0788321,1.0,0.0,-26.0,-1.0,3.0,5.0,-1.0,-1.0
1705326736.0788321,-2.0,-11.0,-52.0,-12.0,-1.0,3.0,-2.0,-4.0
1705326736.0888293,-6.0,4.0,10.0,0.0,-3.0,-4.0,-2.0,-2.0
1705326736.0888293,-4.0,-10.0,24.0,2.0,-3.0,-6.0,24.0,3.0
1705326736.0988288,-1.0,2.0,-46.0,-3.0,-1.0,0.0,-8.0,-7.0
1705326736.0988288,-8.0,-3.0,-4.0,-3.0,-4.0,0.0,-6.0,3.0
1705326736.1088307,-1.0,-1.0,2.0,3.0,5.0,5.0,-8.0,-4.0
1705326736.1088307,-1.0,-2.0,6.0,-1.0,-2.0,2.0,1.0,-1.0
1705326736.1188276,0.0,2.0,10.0,7.0,3.0,-7.0,-8.0,3.0
1705326736.1188276,-4.0,-10.0,-9.0,-6.0,-3.0,-1.0,1.0,-6.0
1705326736.1188276,3.0,-2.0,-2.0,-6.0,-7.0,-3.0,1.0,-1.0
1705326736.1188276,-8.0,7.0,20.0,2.0,-1.0,-2.0,-9.0,-7.0
1705326736.1388602,9.0,-29.0,-48.0,-14.0,-4.0,3.0,-5.0,3.0
1705326736.1388602,-5.0,9.0,13.0,3.0,2.0,-2.0,1.0,12.0
1705326736.1488686,5.0,0.0,-2.0,3.0,3.0,-4.0,-1.0,-21.0
1705326736.1488686,-13.0,-2.0,-16.0,-1.0,-1.0,1.0,6.0,18.0
1705326736.158866,-2.0,5.0,4.0,5.0,0.0,-3.0,4.0,-12.0
1705326736.158866,7.0,2.0,14.0,-5.0,-6.0,-7.0,-4.0,2.0
1705326736.1688716,0.0,-6.0,4.0,-1.0,-5.0,3.0,29.0,8.0
1705326736.1688716,4.0,1.0,-26.0,-5.0,1.0,5.0,-19.0,-4.0
1705326736.178832,-2.0,8.0,15.0,4.0,0.0,3.0,5.0,1.0
1705326736.178832,-1.0,5.0,12.0,4.0,-1.0,-3.0,-11.0,0.0
1705326736.178832,3.0,-2.0,-14.0,1.0,1.0,-1.0,-3.0,0.0
1705326736.178832,-3.0,-21.0,-17.0,-11.0,-7.0,-4.0,-5.0,-6.0
1705326736.1988752,-3.0,-1.0,42.0,-2.0,-1.0,3.0,-3.0,1.0
1705326736.1988752,0.0,34.0,-14.0,12.0,9.0,4.0,12.0,-5.0
1705326736.2088685,-7.0,-72.0,-37.0,-10.0,-6.0,-5.0,-14.0,2.0
1705326736.2088685,2.0,9.0,6.0,3.0,-2.0,-5.0,-1.0,-1.0
1705326736.218877,4.0,10.0,33.0,-2.0,-1.0,2.0,3.0,2.0
1705326736.218877,-6.0,-22.0,-66.0,-27.0,0.0,-2.0,-7.0,-8.0
1705326736.2289386,3.0,27.0,0.0,5.0,2.0,3.0,-1.0,5.0
1705326736.2289386,1.0,-6.0,-13.0,-3.0,1.0,-2.0,-3.0,-1.0
1705326736.2388282,-4.0,5.0,28.0,4.0,-3.0,-5.0,0.0,-1.0
1705326736.2388282,4.0,18.0,3.0,3.0,0.0,3.0,6.0,-3.0
1705326736.2388282,-1.0,10.0,-37.0,0.0,1.0,-2.0,-4.0,1.0
1705326736.2388282,-3.0,-7.0,65.0,-3.0,-7.0,-4.0,0.0,1.0
1705326736.2667148,0.0,5.0,-27.0,-3.0,0.0,-2.0,-8.0,-2.0
1705326736.2677147,-1.0,-7.0,29.0,10.0,0.0,0.0,4.0,-2.0
1705326736.2687159,7.0,0.0,-2.0,-4.0,-2.0,-4.0,-2.0,12.0
1705326736.2687159,3.0,25.0,9.0,4.0,2.0,-1.0,0.0,-7.0
1705326736.2815518,6.0,26.0,1.0,2.0,0.0,1.0,-1.0,-10.0
1705326736.2815518,-11.0,-50.0,-27.0,-7.0,-4.0,-3.0,1.0,9.0
1705326736.2815518,-4.0,14.0,47.0,3.0,0.0,2.0,0.0,-3.0
1705326736.2815518,2.0,-12.0,-34.0,1.0,8.0,0.0,1.0,2.0
1705326736.301669,1.0,0.0,7.0,4.0,-3.0,-1.0,-3.0,0.0
1705326736.301669,6.0,11.0,11.0,-1.0,-2.0,1.0,0.0,-7.0
1705326736.301669,-3.0,-1.0,-4.0,-3.0,-6.0,-5.0,-5.0,-4.0
1705326736.301669,-4.0,-14.0,-8.0,-8.0,-7.0,-1.0,0.0,-2.0
1705326736.3215842,-7.0,-8.0,-20.0,12.0,9.0,4.0,-1.0,-2.0
1705326736.3215842,0.0,-5.0,1.0,3.0,6.0,0.0,2.0,-2.0
1705326736.3215842,-2.0,-2.0,2.0,-2.0,1.0,1.0,7.0,3.0
1705326736.3215842,-7.0,1.0,-12.0,3.0,-5.0,-4.0,-19.0,-4.0
1705326736.341559,-2.0,-6.0,-15.0,-14.0,-6.0,-5.0,3.0,0.0
1705326736.341559,-2.0,3.0,4.0,3.0,-4.0,-2.0,0.0,-3.0
1705326736.351553,-2.0,-1.0,2.0,-2.0,1.0,0.0,4.0,-2.0
1705326736.351553,3.0,18.0,-25.0,-2.0,-1.0,-2.0,16.0,2.0
1705326736.3615546,2.0,-2.0,4.0,-1.0,-3.0,-2.0,0.0,1.0
1705326736.3615546,-2.0,2.0,12.0,7.0,0.0,0.0,-3.0,-5.0
1705326736.3615546,-3.0,-5.0,-21.0,-4.0,-1.0,1.0,-4.0,-4.0
1705326736.3615546,-2.0,-11.0,43.0,-4.0,-3.0,0.0,1.0,-1.0
1705326736.391558,-3.0,-8.0,-21.0,-6.0,-5.0,-6.0,-7.0,0.0
1705326736.391558,-2.0,8.0,-6.0,-4.0,1.0,1.0,3.0,-1.0
1705326736.391558,1.0,5.0,-5.0,1.0,-1.0,0.0,-5.0,-1.0
1705326736.391558,0.0,-4.0,1.0,5.0,2.0,-1.0,-2.0,1.0
1705326736.4015937,-4.0,-9.0,-20.0,0.0,3.0,0.0,-1.0,-2.0
1705326736.4015937,2.0,-8.0,7.0,-2.0,-4.0,-5.0,-5.0,-4.0
1705326736.4115636,0.0,13.0,23.0,-4.0,-2.0,-1.0,0.0,-1.0
1705326736.4115636,-4.0,-1.0,-6.0,-6.0,-2.0,-2.0,-4.0,-4.0
1705326736.4215925,0.0,-12.0,7.0,0.0,-2.0,-3.0,-2.0,0.0
1705326736.4215925,0.0,16.0,-27.0,-2.0,-3.0,-1.0,-1.0,-1.0
1705326736.4215925,-3.0,-7.0,10.0,1.0,0.0,-1.0,-11.0,-7.0
1705326736.4215925,-1.0,0.0,-13.0,-2.0,1.0,0.0,4.0,-3.0
1705326736.4515567,3.0,-8.0,-23.0,-2.0,-1.0,2.0,2.0,3.0
1705326736.4515567,-1.0,15.0,55.0,6.0,-1.0,0.0,1.0,7.0
1705326736.4515567,-6.0,-4.0,20.0,0.0,-2.0,-5.0,-16.0,-5.0
1705326736.4515567,0.0,-7.0,-30.0,1.0,-1.0,2.0,-8.0,-2.0
1705326736.461827,-1.0,5.0,-3.0,-7.0,-4.0,-4.0,6.0,-1.0
1705326736.461827,-1.0,3.0,-3.0,-4.0,-4.0,-6.0,1.0,-2.0
1705326736.4715564,-1.0,1.0,0.0,0.0,-3.0,0.0,8.0,-1.0
1705326736.4715564,8.0,2.0,16.0,7.0,6.0,3.0,-6.0,6.0
1705326736.481557,0.0,-4.0,5.0,7.0,5.0,6.0,-18.0,5.0
1705326736.481557,1.0,-6.0,-8.0,-8.0,-3.0,-8.0,-25.0,-4.0
1705326736.481557,-3.0,-1.0,2.0,-3.0,-4.0,-8.0,22.0,-4.0
1705326736.481557,1.0,-5.0,-9.0,-2.0,-1.0,-3.0,-41.0,-5.0
1705326736.5015564,-2.0,6.0,5.0,-1.0,-4.0,3.0,32.0,4.0
1705326736.5015564,0.0,-2.0,3.0,1.0,1.0,6.0,12.0,13.0
1705326736.5015564,-9.0,-3.0,-4.0,-2.0,-3.0,-7.0,-1.0,-6.0
1705326736.5015564,-1.0,-11.0,-3.0,-3.0,-4.0,-6.0,-2.0,0.0
1705326736.5215554,-6.0,0.0,3.0,-3.0,-2.0,-4.0,-3.0,-2.0
1705326736.5215554,-5.0,-12.0,-3.0,8.0,4.0,0.0,-36.0,-49.0
1705326736.5315573,4.0,2.0,-9.0,2.0,4.0,3.0,6.0,17.0
1705326736.5315573,-12.0,-7.0,-4.0,-11.0,-4.0,-4.0,13.0,-6.0
1705326736.5415556,13.0,9.0,22.0,-9.0,-9.0,-2.0,-5.0,-8.0
1705326736.5415556,5.0,-3.0,5.0,-12.0,-12.0,-7.0,22.0,19.0
1705326736.5615542,2.0,4.0,13.0,18.0,0.0,-1.0,0.0,-5.0
1705326736.5615542,7.0,-1.0,-34.0,5.0,21.0,11.0,5.0,0.0
1705326736.5615542,-2.0,-6.0,-13.0,-3.0,-6.0,-1.0,-3.0,3.0
1705326736.5615542,-1.0,-20.0,-85.0,-23.0,-10.0,-5.0,7.0,-4.0
1705326736.5615542,0.0,14.0,45.0,-2.0,-7.0,-3.0,-11.0,-1.0
1705326736.5615542,-2.0,-4.0,-5.0,-3.0,-12.0,-4.0,2.0,4.0
1705326736.581554,-2.0,3.0,9.0,13.0,8.0,-2.0,-3.0,-4.0
1705326736.581554,-1.0,5.0,28.0,-17.0,4.0,4.0,3.0,3.0
1705326736.5915534,-3.0,-10.0,-18.0,-15.0,1.0,3.0,-13.0,-3.0
1705326736.5915534,-7.0,-1.0,-36.0,5.0,-1.0,-2.0,6.0,-3.0
1705326736.6015558,-14.0,2.0,-3.0,1.0,1.0,-1.0,-2.0,-4.0
1705326736.6015558,6.0,-11.0,27.0,21.0,3.0,3.0,-1.0,-1.0
1705326736.6115575,2.0,-4.0,-72.0,-6.0,2.0,3.0,0.0,0.0
1705326736.6115575,2.0,1.0,28.0,-16.0,-5.0,-1.0,7.0,-2.0
1705326736.6215584,-3.0,1.0,51.0,-11.0,-16.0,-11.0,-14.0,-8.0
1705326736.6215584,-4.0,10.0,3.0,10.0,2.0,0.0,0.0,5.0
1705326736.6315565,2.0,-28.0,-1.0,8.0,3.0,0.0,1.0,4.0
1705326736.6315565,3.0,30.0,-34.0,6.0,3.0,4.0,4.0,1.0
1705326736.6415563,-1.0,5.0,22.0,1.0,0.0,-2.0,-5.0,-2.0
1705326736.6415563,-5.0,-9.0,-3.0,-5.0,-7.0,-5.0,-2.0,-2.0
1705326736.6515565,2.0,2.0,-1.0,0.0,2.0,4.0,1.0,-2.0
1705326736.6515565,-2.0,-1.0,29.0,7.0,1.0,1.0,-2.0,0.0
1705326736.6615596,-2.0,-5.0,-15.0,0.0,7.0,1.0,2.0,2.0
1705326736.6615596,0.0,10.0,16.0,-3.0,0.0,0.0,4.0,5.0
1705326736.671557,-1.0,5.0,-1.0,-4.0,-5.0,-4.0,-7.0,-7.0
1705326736.671557,6.0,-7.0,-8.0,-7.0,-7.0,-6.0,2.0,-3.0
1705326736.681594,1.0,26.0,-8.0,-1.0,1.0,3.0,2.0,0.0
1705326736.681594,-4.0,-43.0,-34.0,4.0,4.0,0.0,12.0,4.0
1705326736.681594,-17.0,9.0,-8.0,-6.0,-3.0,-3.0,-26.0,-13.0
1705326736.681594,12.0,2.0,29.0,1.0,-5.0,-9.0,10.0,6.0
1705326736.7018733,3.0,-18.0,-31.0,-6.0,-1.0,-1.0,-2.0,16.0
1705326736.7018733,4.0,6.0,5.0,5.0,3.0,10.0,-2.0,-3.0
1705326736.7115562,9.0,-1.0,10.0,0.0,-2.0,-9.0,10.0,6.0
1705326736.7115562,-18.0,31.0,12.0,1.0,0.0,-3.0,4.0,-9.0
1705326736.7215567,-1.0,-36.0,-19.0,-3.0,-4.0,-4.0,-17.0,-15.0
1705326736.7215567,-8.0,1.0,16.0,5.0,0.0,-5.0,-9.0,-15.0
1705326736.7315583,-1.0,60.0,7.0,-2.0,1.0,8.0,10.0,10.0
1705326736.7315583,14.0,-2.0,-8.0,-1.0,2.0,6.0,-52.0,-15.0
1705326736.7415543,4.0,-2.0,-12.0,-2.0,-3.0,-4.0,41.0,-1.0
1705326736.7415543,-6.0,-6.0,7.0,0.0,-3.0,-11.0,2.0,0.0
1705326736.7415543,-5.0,-8.0,0.0,-3.0,-3.0,-2.0,-16.0,-49.0
1705326736.7415543,-5.0,-14.0,-1.0,-3.0,-5.0,3.0,20.0,9.0
1705326736.7615564,-5.0,7.0,-2.0,4.0,4.0,1.0,-19.0,-11.0
1705326736.7615564,7.0,13.0,-3.0,-3.0,-3.0,-9.0,-9.0,15.0
1705326736.7715561,6.0,-1.0,20.0,1.0,-1.0,1.0,16.0,13.0
1705326736.7715561,-6.0,-11.0,-39.0,-7.0,-1.0,2.0,14.0,16.0
1705326736.7868521,6.0,-9.0,9.0,3.0,2.0,6.0,-14.0,-20.0
1705326736.7868521,-2.0,12.0,2.0,-6.0,-6.0,-2.0,14.0,-2.0
1705326736.7908762,-9.0,-5.0,-3.0,11.0,3.0,-5.0,-12.0,10.0
1705326736.7908762,-4.0,-26.0,10.0,-11.0,3.0,0.0,-6.0,-7.0
1705326736.8067873,1.0,3.0,-8.0,25.0,2.0,1.0,12.0,15.0
1705326736.807787,12.0,5.0,-2.0,-19.0,8.0,5.0,-3.0,-4.0
1705326736.80883,0.0,-10.0,-41.0,-17.0,-5.0,3.0,-4.0,1.0
1705326736.80883,-12.0,-7.0,58.0,10.0,-6.0,-4.0,1.0,-5.0
1705326736.8244693,-4.0,8.0,-22.0,-18.0,-14.0,-9.0,-5.0,-2.0
1705326736.8244693,3.0,8.0,8.0,32.0,15.0,8.0,-1.0,2.0
1705326736.8344417,-1.0,-23.0,-39.0,-10.0,-4.0,1.0,1.0,2.0
1705326736.8344417,-7.0,12.0,51.0,5.0,-4.0,-7.0,-3.0,-7.0
1705326736.8344417,-1.0,-14.0,-5.0,-11.0,1.0,0.0,-7.0,6.0
1705326736.8344417,-7.0,-1.0,-11.0,1.0,-8.0,2.0,-1.0,7.0
1705326736.844442,6.0,-4.0,-44.0,5.0,6.0,0.0,5.0,-19.0
1705326736.844442,-2.0,-15.0,-28.0,-8.0,-4.0,-2.0,-5.0,-1.0
1705326736.8644469,3.0,14.0,16.0,1.0,5.0,5.0,0.0,2.0
1705326736.8644469,-4.0,8.0,72.0,-8.0,-7.0,-3.0,-4.0,-3.0
1705326736.8644469,-1.0,-20.0,-34.0,1.0,6.0,2.0,1.0,8.0
1705326736.8644469,3.0,1.0,-17.0,-2.0,-2.0,1.0,0.0,1.0
1705326736.8844423,-4.0,-3.0,-17.0,1.0,0.0,0.0,-2.0,-4.0
1705326736.8844423,-5.0,-6.0,-24.0,-5.0,-4.0,-4.0,-3.0,-5.0
1705326736.8844423,-1.0,4.0,55.0,3.0,-7.0,-6.0,-4.0,7.0
1705326736.8844423,5.0,0.0,-12.0,-2.0,0.0,-1.0,-1.0,-2.0
1705326736.8944433,-4.0,-2.0,5.0,4.0,-2.0,0.0,1.0,3.0
1705326736.8944433,-6.0,0.0,-17.0,-12.0,-1.0,-2.0,-2.0,-4.0
1705326736.9144404,2.0,-2.0,31.0,5.0,-2.0,1.0,-1.0,2.0
1705326736.9144404,-7.0,-1.0,-15.0,-1.0,1.0,0.0,-1.0,0.0
1705326736.924442,2.0,5.0,-6.0,-6.0,2.0,-1.0,1.0,0.0
1705326736.924442,2.0,-3.0,-1.0,8.0,-3.0,-1.0,-4.0,-3.0
1705326736.924442,1.0,1.0,12.0,-5.0,-1.0,-1.0,-2.0,1.0
1705326736.924442,1.0,2.0,-2.0,-2.0,1.0,0.0,2.0,-1.0
1705326736.9444404,-2.0,-1.0,6.0,-1.0,-3.0,-3.0,-5.0,-2.0
1705326736.9444404,-4.0,-6.0,-16.0,-8.0,-5.0,-3.0,-2.0,-4.0
1705326736.9444404,-1.0,-7.0,6.0,-3.0,3.0,0.0,1.0,5.0
1705326736.9444404,2.0,8.0,4.0,9.0,4.0,1.0,1.0,1.0
1705326736.9545572,-2.0,-20.0,-2.0,-5.0,-2.0,-5.0,-3.0,-3.0
1705326736.9545572,1.0,-3.0,-15.0,3.0,-4.0,0.0,-1.0,-3.0
1705326736.964482,-1.0,-1.0,8.0,0.0,-6.0,-3.0,0.0,0.0
1705326736.964482,0.0,0.0,3.0,3.0,-1.0,-2.0,-2.0,-1.0
1705326736.9844408,1.0,4.0,3.0,-7.0,4.0,2.0,2.0,0.0
1705326736.9844408,0.0,-2.0,-13.0,1.0,0.0,-1.0,-1.0,-1.0
1705326736.9844408,-4.0,-5.0,15.0,-2.0,-6.0,-3.0,-1.0,-1.0
1705326736.9844408,-2.0,0.0,6.0,-1.0,0.0,0.0,0.0,-1.0
1705326737.0044398,-2.0,7.0,24.0,-2.0,-5.0,-3.0,-4.0,0.0
1705326737.0044398,-1.0,-6.0,-32.0,7.0,1.0,2.0,-1.0,0.0
1705326737.0144413,0.0,6.0,5.0,-11.0,7.0,2.0,2.0,2.0
1705326737.0144413,1.0,-3.0,28.0,9.0,3.0,4.0,2.0,-1.0
1705326737.0144413,-1.0,3.0,26.0,7.0,0.0,-2.0,-2.0,-1.0
1705326737.0144413,1.0,2.0,6.0,-2.0,0.0,0.0,-1.0,0.0
1705326737.0244737,-3.0,0.0,-5.0,-4.0,-6.0,-4.0,-3.0,-3.0
1705326737.0244737,0.0,-3.0,-7.0,-4.0,-2.0,-4.0,-1.0,-1.0
1705326737.044441,2.0,-1.0,-38.0,-2.0,-2.0,-1.0,-1.0,1.0
1705326737.044441,-5.0,-2.0,4.0,-2.0,-1.0,-2.0,-3.0,-3.0
1705326737.044441,3.0,1.0,9.0,0.0,-2.0,-1.0,3.0,1.0
1705326737.044441,4.0,1.0,2.0,1.0,1.0,0.0,-9.0,-1.0
1705326737.0644412,-7.0,0.0,-6.0,-1.0,-3.0,0.0,-1.0,-2.0
1705326737.0644412,1.0,-2.0,-10.0,-9.0,-2.0,-2.0,1.0,-1.0
1705326737.0644412,0.0,6.0,4.0,3.0,-5.0,-2.0,-3.0,-2.0
1705326737.0644412,-5.0,-13.0,-10.0,-7.0,-3.0,-2.0,0.0,-1.0
1705326737.0744407,1.0,3.0,-4.0,9.0,5.0,6.0,1.0,0.0
1705326737.0744407,-2.0,-1.0,1.0,0.0,6.0,3.0,-1.0,-1.0
1705326737.08444,-2.0,-2.0,7.0,10.0,-1.0,-3.0,-1.0,1.0
1705326737.08444,1.0,4.0,-9.0,-18.0,-6.0,-3.0,0.0,-2.0
1705326737.1044402,1.0,1.0,-13.0,-4.0,-4.0,-2.0,-1.0,0.0
1705326737.1044402,-3.0,0.0,16.0,1.0,-5.0,-1.0,1.0,0.0
1705326737.1044402,-4.0,-6.0,-47.0,-14.0,-4.0,-3.0,-3.0,-3.0
1705326737.1044402,0.0,2.0,-1.0,4.0,-1.0,-1.0,2.0,-2.0
1705326737.1244392,1.0,-2.0,8.0,4.0,3.0,1.0,-1.0,-1.0
1705326737.1244392,-1.0,15.0,10.0,8.0,0.0,-1.0,1.0,1.0
1705326737.1244392,-1.0,3.0,10.0,3.0,1.0,-1.0,-1.0,0.0
1705326737.1244392,-4.0,-6.0,7.0,-6.0,-4.0,-3.0,-3.0,-2.0
1705326737.1344795,-2.0,-3.0,-20.0,-9.0,-2.0,-4.0,-2.0,-1.0
1705326737.1344795,1.0,-6.0,-6.0,-1.0,-2.0,-2.0,0.0,1.0
1705326737.1444426,-1.0,-3.0,-9.0,-1.0,-1.0,0.0,-1.0,-3.0
1705326737.1444426,-1.0,1.0,-1.0,1.0,-2.0,0.0,1.0,0.0
1705326737.1644468,-2.0,-3.0,5.0,-1.0,0.0,0.0,-1.0,-2.0
1705326737.1644468,-1.0,1.0,-2.0,-4.0,-1.0,0.0,-1.0,-3.0
1705326737.1644468,1.0,-3.0,9.0,4.0,3.0,-1.0,-1.0,-2.0
1705326737.1644468,-2.0,-2.0,-5.0,-1.0,-3.0,-3.0,-1.0,1.0
1705326737.18444,2.0,-3.0,-4.0,-4.0,-2.0,-1.0,-2.0,0.0
1705326737.18444,0.0,-1.0,2.0,-5.0,-1.0,0.0,0.0,0.0
1705326737.18444,-2.0,-2.0,11.0,7.0,3.0,2.0,1.0,2.0
1705326737.18444,3.0,1.0,3.0,4.0,-3.0,-3.0,0.0,-1.0
1705326737.2044573,-5.0,-1.0,-10.0,-6.0,-6.0,-3.0,-2.0,-3.0
1705326737.2044573,-3.0,-2.0,3.0,2.0,-6.0,-2.0,-3.0,-3.0
1705326737.2044573,-4.0,-2.0,19.0,5.0,1.0,0.0,-1.0,-1.0
1705326737.2044573,-2.0,6.0,-12.0,0.0,1.0,1.0,1.0,-1.0
1705326737.2444403,-2.0,-4.0,7.0,0.0,-1.0,-3.0,0.0,-2.0
1705326737.2444403,-1.0,-5.0,-2.0,-5.0,-2.0,-1.0,-3.0,-1.0
1705326737.2444403,0.0,-7.0,-21.0,-8.0,-4.0,-2.0,-1.0,-1.0
1705326737.2444403,0.0,-3.0,-5.0,10.0,2.0,0.0,-3.0,-2.0
1705326737.2444403,-1.0,4.0,17.0,-4.0,1.0,0.0,7.0,-1.0
1705326737.2444403,-2.0,-1.0,0.0,-4.0,-1.0,-3.0,-19.0,-3.0
1705326737.2444403,2.0,-1.0,14.0,0.0,0.0,0.0,0.0,-1.0
1705326737.2444403,0.0,-3.0,-12.0,-6.0,0.0,0.0,1.0,1.0
1705326737.2544396,-5.0,0.0,25.0,0.0,-3.0,-2.0,-1.0,-2.0
1705326737.2544396,4.0,-1.0,-1.0,0.0,0.0,-1.0,0.0,-3.0
1705326737.2644398,-6.0,5.0,-7.0,-6.0,-2.0,-1.0,2.0,0.0
1705326737.2644398,-2.0,-1.0,-11.0,-5.0,-3.0,-1.0,-3.0,-2.0
1705326737.2944393,0.0,-2.0,2.0,13.0,7.0,4.0,4.0,1.0
1705326737.2944393,-1.0,-2.0,7.0,-1.0,-3.0,0.0,3.0,-1.0
1705326737.2944393,1.0,-1.0,-12.0,-5.0,-4.0,-2.0,-2.0,-2.0
1705326737.2944393,1.0,1.0,5.0,-3.0,-2.0,-1.0,-7.0,1.0
1705326737.3170483,-2.0,-7.0,-23.0,-6.0,-5.0,-2.0,-19.0,-3.0
1705326737.3170483,-1.0,1.0,23.0,0.0,1.0,0.0,25.0,0.0
1705326737.31901,-1.0,-4.0,-40.0,-3.0,-2.0,4.0,-22.0,0.0
1705326737.31901,-6.0,10.0,7.0,-2.0,-2.0,-3.0,19.0,4.0
1705326737.3305466,9.0,-14.0,16.0,-9.0,-7.0,-19.0,-21.0,-21.0
1705326737.3305466,-4.0,-2.0,5.0,3.0,2.0,2.0,8.0,4.0
1705326737.3305466,8.0,1.0,-25.0,-3.0,-1.0,-1.0,43.0,5.0
1705326737.3305466,-10.0,5.0,7.0,2.0,5.0,16.0,-26.0,12.0
1705326737.3505528,0.0,-10.0,-7.0,-1.0,-8.0,-33.0,30.0,30.0
1705326737.3505528,-10.0,4.0,0.0,-4.0,1.0,3.0,-23.0,-8.0
1705326737.3505528,0.0,1.0,40.0,6.0,0.0,-23.0,-18.0,-15.0
1705326737.3505528,5.0,-4.0,-28.0,-5.0,-2.0,16.0,-11.0,-10.0
1705326737.3605492,-3.0,32.0,-6.0,2.0,3.0,13.0,35.0,8.0
1705326737.3605492,1.0,-12.0,-3.0,-1.0,0.0,-5.0,-9.0,5.0
1705326737.3705478,-3.0,23.0,40.0,8.0,2.0,10.0,1.0,6.0
1705326737.3705478,-7.0,-36.0,-44.0,-14.0,-4.0,-8.0,1.0,-4.0
1705326737.39058,-4.0,-4.0,15.0,3.0,-1.0,9.0,-23.0,-5.0
1705326737.39058,5.0,17.0,-22.0,-4.0,-4.0,-5.0,1.0,-4.0
1705326737.39058,-7.0,-17.0,34.0,-3.0,-3.0,1.0,-6.0,-7.0
1705326737.39058,2.0,1.0,-19.0,-11.0,-6.0,-10.0,2.0,-3.0
1705326737.4105473,2.0,5.0,24.0,23.0,5.0,5.0,-5.0,-5.0
1705326737.4105473,-2.0,-11.0,-24.0,10.0,6.0,7.0,5.0,-1.0
1705326737.4105473,-4.0,-4.0,1.0,-27.0,0.0,0.0,-2.0,3.0
1705326737.4105473,1.0,2.0,-4.0,-7.0,0.0,-5.0,2.0,-2.0
1705326737.4205527,-3.0,-1.0,-21.0,-9.0,-1.0,2.0,-5.0,-7.0
1705326737.4205527,1.0,3.0,20.0,4.0,-5.0,-1.0,1.0,1.0
1705326737.4305496,0.0,-3.0,-10.0,5.0,-5.0,-3.0,-5.0,0.0
1705326737.4305496,6.0,4.0,7.0,17.0,5.0,-1.0,6.0,0.0
1705326737.4505496,-8.0,-12.0,-13.0,-28.0,-9.0,0.0,-7.0,-8.0
1705326737.4505496,0.0,1.0,-2.0,0.0,-1.0,-3.0,-4.0,-2.0
1705326737.4505496,1.0,-3.0,-12.0,-3.0,-1.0,0.0,-1.0,1.0
1705326737.4505496,0.0,1.0,12.0,2.0,-2.0,-5.0,0.0,-4.0
1705326737.4605732,2.0,-9.0,-1.0,11.0,4.0,4.0,0.0,1.0
1705326737.4605732,-2.0,-6.0,-11.0,-7.0,-1.0,-2.0,-2.0,-1.0
1705326737.4705894,-3.0,6.0,-4.0,-4.0,-3.0,1.0,2.0,2.0
1705326737.4705894,1.0,-3.0,16.0,5.0,1.0,-2.0,7.0,-1.0
1705326737.48059,7.0,10.0,-7.0,1.0,-1.0,1.0,0.0,-3.0
1705326737.48059,-3.0,-2.0,3.0,-10.0,-3.0,-3.0,-2.0,2.0
1705326737.490549,-3.0,-4.0,-13.0,1.0,0.0,2.0,-14.0,-1.0
1705326737.490549,-2.0,3.0,19.0,7.0,0.0,1.0,33.0,6.0
1705326737.5105503,-5.0,-6.0,-17.0,-9.0,-1.0,5.0,-4.0,-5.0
1705326737.5105503,-3.0,-7.0,-28.0,-7.0,-4.0,-9.0,10.0,-2.0
1705326737.5105503,8.0,7.0,26.0,10.0,3.0,1.0,2.0,6.0
1705326737.5105503,-1.0,1.0,17.0,2.0,-3.0,-2.0,-10.0,2.0
1705326737.5205486,-9.0,-5.0,-26.0,-8.0,-3.0,0.0,-6.0,-8.0
1705326737.5205486,3.0,1.0,15.0,6.0,2.0,6.0,0.0,1.0
1705326737.5305612,-3.0,-7.0,-23.0,-1.0,-2.0,-3.0,-2.0,-4.0
1705326737.5305612,-2.0,-8.0,-15.0,-10.0,-4.0,-7.0,-10.0,-3.0
1705326737.5405483,5.0,5.0,34.0,9.0,3.0,2.0,2.0,3.0
1705326737.5405483,-4.0,-6.0,-33.0,-7.0,-1.0,1.0,-6.0,-4.0
1705326737.5505514,-3.0,-5.0,0.0,-6.0,-3.0,-2.0,4.0,-4.0
1705326737.5505514,1.0,3.0,1.0,1.0,0.0,-3.0,-6.0,-3.0
1705326737.5705507,8.0,4.0,-3.0,-1.0,-1.0,-4.0,-3.0,4.0
1705326737.5705507,-6.0,1.0,20.0,-4.0,-5.0,-2.0,2.0,3.0
1705326737.5705507,1.0,2.0,0.0,12.0,1.0,1.0,-1.0,-8.0
1705326737.5705507,-4.0,-2.0,-8.0,-2.0,-1.0,1.0,-6.0,-2.0
1705326737.5805504,0.0,-5.0,-3.0,6.0,4.0,1.0,-1.0,1.0
1705326737.5805504,2.0,2.0,4.0,0.0,-3.0,-2.0,-2.0,-2.0
1705326737.5905745,-2.0,1.0,-2.0,-4.0,-5.0,-2.0,2.0,-1.0
1705326737.5905745,-3.0,-1.0,-10.0,-10.0,-8.0,-4.0,-8.0,-5.0
1705326737.6005483,-4.0,-11.0,-10.0,6.0,5.0,-1.0,0.0,0.0
1705326737.6005483,1.0,-3.0,4.0,-4.0,-5.0,-1.0,-2.0,0.0
1705326737.610549,-4.0,-3.0,-18.0,-1.0,4.0,1.0,0.0,0.0
1705326737.610549,1.0,-2.0,0.0,-2.0,0.0,1.0,1.0,-2.0
1705326737.6305482,-2.0,5.0,4.0,1.0,-9.0,-4.0,-4.0,0.0
1705326737.6305482,-1.0,0.0,34.0,4.0,5.0,2.0,-2.0,-2.0
1705326737.6305482,0.0,0.0,-19.0,1.0,2.0,1.0,0.0,0.0
1705326737.6305482,1.0,1.0,11.0,7.0,3.0,-2.0,-1.0,-1.0
1705326737.6405487,-3.0,0.0,2.0,-7.0,-6.0,-4.0,0.0,-2.0
1705326737.6405487,0.0,4.0,-8.0,4.0,-3.0,-5.0,-5.0,-3.0
1705326737.650582,-1.0,3.0,5.0,-15.0,-6.0,-1.0,0.0,-1.0
1705326737.650582,-2.0,-7.0,6.0,1.0,1.0,2.0,-2.0,-1.0
1705326737.6705472,-4.0,-3.0,-29.0,-8.0,-4.0,-5.0,-5.0,-1.0
1705326737.6705472,2.0,8.0,11.0,12.0,6.0,6.0,3.0,2.0
1705326737.6805491,-11.0,-7.0,-31.0,-8.0,-4.0,-2.0,-3.0,-9.0
1705326737.6805491,-3.0,-10.0,-1.0,1.0,-1.0,-3.0,-12.0,4.0
1705326737.6905482,-2.0,-1.0,21.0,-2.0,-2.0,0.0,-1.0,-15.0
1705326737.6905482,10.0,20.0,1.0,-6.0,-4.0,7.0,-6.0,4.0
1705326737.6905482,3.0,6.0,26.0,12.0,2.0,-15.0,11.0,8.0
1705326737.6905482,17.0,-1.0,-36.0,-11.0,-3.0,2.0,-4.0,-5.0
1705326737.7008836,-29.0,-10.0,-11.0,0.0,1.0,6.0,-12.0,-8.0
1705326737.7008836,-8.0,-12.0,-49.0,-8.0,-1.0,-3.0,47.0,12.0
1705326737.71059,-6.0,-11.0,-9.0,-3.0,-5.0,4.0,-45.0,-22.0
1705326737.71059,9.0,5.0,31.0,6.0,0.0,-2.0,-31.0,-8.0
1705326737.7205882,11.0,22.0,8.0,1.0,2.0,-8.0,27.0,14.0
1705326737.7205882,19.0,-3.0,-24.0,-13.0,-6.0,-4.0,-8.0,-37.0
1705326737.7305486,-6.0,-25.0,4.0,3.0,-1.0,1.0,-11.0,5.0
1705326737.7305486,-14.0,-14.0,-6.0,-2.0,2.0,10.0,6.0,-6.0
1705326737.7505527,7.0,0.0,-21.0,-4.0,-1.0,-2.0,-3.0,0.0
1705326737.7505527,-18.0,-5.0,-3.0,0.0,-1.0,-2.0,-6.0,4.0
1705326737.7505527,11.0,-1.0,8.0,-1.0,-2.0,-10.0,12.0,12.0
1705326737.7505527,2.0,12.0,30.0,6.0,-1.0,12.0,-3.0,-1.0
1705326737.760549,-3.0,-6.0,-24.0,-8.0,-2.0,-11.0,3.0,-8.0
1705326737.760549,1.0,-14.0,4.0,6.0,1.0,8.0,23.0,11.0
1705326737.77055,7.0,4.0,17.0,4.0,3.0,-1.0,4.0,-2.0
1705326737.77055,-10.0,13.0,9.0,6.0,-4.0,-6.0,17.0,4.0
1705326737.7905476,6.0,-30.0,-50.0,-28.0,-8.0,2.0,-9.0,-6.0
1705326737.7905476,-16.0,11.0,2.0,-2.0,-1.0,-6.0,-19.0,-1.0
1705326737.8005476,7.0,28.0,22.0,0.0,0.0,8.0,5.0,3.0
1705326737.8005476,-6.0,13.0,-11.0,3.0,-1.0,-7.0,-3.0,-2.0
1705326737.8105495,6.0,40.0,15.0,2.0,-2.0,1.0,2.0,8.0
1705326737.8105495,-2.0,2.0,31.0,14.0,12.0,5.0,-11.0,4.0
1705326737.8105495,-10.0,-9.0,-13.0,-2.0,-2.0,-1.0,4.0,2.0
1705326737.8105495,14.0,1.0,-14.0,-4.0,-1.0,-6.0,-3.0,3.0
1705326737.820548,-9.0,-9.0,10.0,5.0,0.0,3.0,4.0,-3.0
1705326737.820548,4.0,-6.0,4.0,-10.0,0.0,-8.0,-3.0,4.0
1705326737.8347416,-16.0,11.0,3.0,3.0,0.0,1.0,4.0,-6.0
1705326737.8347416,-3.0,18.0,-4.0,-1.0,-1.0,-4.0,-5.0,-11.0
1705326737.8507452,-4.0,-16.0,-22.0,-12.0,-7.0,3.0,-5.0,-3.0
1705326737.8517406,-4.0,-7.0,13.0,3.0,-3.0,-1.0,-6.0,10.0
1705326737.8635557,2.0,-9.0,-20.0,-10.0,-2.0,-5.0,-5.0,-42.0
1705326737.8635557,2.0,-10.0,-6.0,1.0,1.0,1.0,9.0,29.0
1705326737.8635557,5.0,11.0,21.0,8.0,3.0,1.0,-6.0,-2.0
1705326737.8635557,-9.0,-15.0,-9.0,-3.0,-7.0,-7.0,-15.0,-25.0
1705326737.8735592,11.0,19.0,5.0,2.0,2.0,4.0,13.0,27.0
1705326737.8735592,-4.0,-7.0,-2.0,-8.0,0.0,-1.0,-4.0,-15.0
1705326737.883601,-9.0,4.0,21.0,12.0,6.0,1.0,-5.0,12.0
1705326737.883601,10.0,-12.0,2.0,-3.0,-4.0,-3.0,-47.0,-26.0
1705326737.8935926,-28.0,-11.0,-5.0,-4.0,-6.0,-8.0,22.0,10.0
1705326737.8935926,-2.0,-13.0,-8.0,-4.0,-1.0,-2.0,-11.0,-33.0
1705326737.9035568,2.0,0.0,5.0,5.0,-2.0,-4.0,0.0,8.0
1705326737.9035568,-6.0,-10.0,-5.0,-12.0,-6.0,-2.0,1.0,7.0
1705326737.9035568,9.0,19.0,34.0,8.0,4.0,2.0,-3.0,4.0
1705326737.9035568,-4.0,3.0,-11.0,11.0,5.0,1.0,9.0,-6.0
1705326737.9235582,3.0,-7.0,-9.0,-10.0,-3.0,-1.0,3.0,2.0
1705326737.9235582,-2.0,-3.0,35.0,4.0,2.0,3.0,5.0,-2.0
1705326737.933607,0.0,-1.0,-30.0,-5.0,-4.0,-4.0,-6.0,-5.0
1705326737.933607,-3.0,-30.0,24.0,3.0,-2.0,-1.0,12.0,20.0
1705326737.9439225,5.0,20.0,19.0,7.0,3.0,2.0,-5.0,-6.0
1705326737.9439225,5.0,15.0,2.0,5.0,3.0,-1.0,16.0,16.0
1705326737.9535685,18.0,-12.0,-3.0,-4.0,-3.0,-3.0,-5.0,9.0
1705326737.9535685,-9.0,-7.0,2.0,3.0,-2.0,3.0,8.0,-3.0
1705326737.9635565,-9.0,-8.0,-16.0,-6.0,-4.0,-11.0,3.0,-8.0
1705326737.9635565,-2.0,-16.0,-3.0,-4.0,-3.0,-5.0,-16.0,2.0
1705326737.9635565,-1.0,1.0,29.0,10.0,2.0,-1.0,1.0,6.0
1705326737.9635565,0.0,7.0,-14.0,-16.0,-5.0,0.0,13.0,1.0
1705326737.983558,14.0,-5.0,16.0,7.0,2.0,9.0,1.0,0.0
1705326737.983558,1.0,4.0,-13.0,-2.0,-3.0,-8.0,-22.0,-8.0
1705326737.9935594,0.0,-5.0,2.0,0.0,4.0,14.0,1.0,-2.0
1705326737.9935594,2.0,14.0,29.0,2.0,-2.0,-8.0,22.0,25.0
1705326738.0035884,-8.0,-7.0,-28.0,-2.0,0.0,-3.0,-19.0,-6.0
1705326738.0035884,6.0,0.0,27.0,0.0,-1.0,4.0,2.0,3.0
1705326738.0235572,-4.0,-5.0,13.0,-5.0,-5.0,-1.0,-7.0,-12.0
1705326738.0235572,0.0,9.0,-5.0,4.0,4.0,2.0,-6.0,3.0
1705326738.0235572,-1.0,-1.0,16.0,-4.0,-1.0,0.0,1.0,-1.0
1705326738.0235572,1.0,10.0,-38.0,-10.0,-4.0,-2.0,15.0,1.0
1705326738.0235572,-6.0,-10.0,-16.0,0.0,-4.0,-2.0,-11.0,2.0
1705326738.0235572,2.0,27.0,45.0,28.0,14.0,3.0,-1.0,-3.0
1705326738.0435584,-6.0,-24.0,-44.0,-18.0,0.0,-3.0,-5.0,-4.0
1705326738.0435584,-3.0,5.0,-2.0,-19.0,-5.0,-2.0,1.0,-6.0
1705326738.0535574,-3.0,-7.0,0.0,-1.0,-6.0,-3.0,2.0,-2.0
1705326738.0535574,2.0,2.0,25.0,2.0,-7.0,-6.0,-14.0,-8.0
1705326738.063559,3.0,-1.0,-9.0,22.0,-2.0,-2.0,2.0,1.0
1705326738.063559,-2.0,-5.0,-15.0,-13.0,0.0,1.0,8.0,4.0
1705326738.083558,0.0,-1.0,-8.0,-10.0,-5.0,-2.0,-2.0,-4.0
1705326738.083558,-4.0,-4.0,7.0,-9.0,1.0,0.0,-5.0,-4.0
1705326738.083558,3.0,-6.0,-14.0,-18.0,1.0,4.0,1.0,5.0
1705326738.083558,-5.0,-9.0,6.0,12.0,-1.0,-1.0,4.0,-5.0
1705326738.083558,14.0,-2.0,-10.0,1.0,-1.0,-7.0,-6.0,-2.0
1705326738.083558,-6.0,-4.0,-13.0,-3.0,-9.0,-6.0,-7.0,-5.0
1705326738.1035907,2.0,5.0,24.0,2.0,-2.0,-1.0,5.0,-3.0
1705326738.1035907,0.0,-2.0,11.0,11.0,9.0,4.0,2.0,1.0
1705326738.1135597,11.0,16.0,-13.0,2.0,5.0,2.0,-3.0,-2.0
1705326738.1135597,-15.0,-28.0,-32.0,-8.0,-7.0,-5.0,-6.0,-4.0
1705326738.1235595,-1.0,-1.0,11.0,-14.0,-8.0,-5.0,-1.0,-4.0
1705326738.1235595,-4.0,-10.0,2.0,3.0,-3.0,-2.0,-1.0,-11.0
1705326738.1335592,-8.0,-1.0,-12.0,5.0,5.0,2.0,10.0,5.0
1705326738.1335592,0.0,3.0,4.0,-9.0,-5.0,-1.0,2.0,0.0
1705326738.143598,0.0,-12.0,4.0,4.0,0.0,-6.0,-10.0,-1.0
1705326738.143598,-3.0,16.0,6.0,4.0,0.0,0.0,4.0,2.0
1705326738.143598,0.0,19.0,8.0,-3.0,1.0,0.0,6.0,3.0
1705326738.143598,-2.0,-10.0,-50.0,-7.0,-1.0,2.0,-2.0,-1.0
1705326738.1635585,-7.0,6.0,38.0,8.0,2.0,0.0,-1.0,0.0
1705326738.1635585,2.0,8.0,-5.0,6.0,0.0,0.0,0.0,4.0
1705326738.173559,-4.0,-16.0,-5.0,-10.0,-5.0,-6.0,-8.0,-6.0
1705326738.173559,-5.0,0.0,-5.0,-5.0,0.0,-3.0,-5.0,-2.0
1705326738.1835566,0.0,1.0,7.0,4.0,2.0,1.0,-3.0,-1.0
1705326738.1835566,3.0,17.0,12.0,12.0,1.0,2.0,-2.0,1.0
1705326738.1935978,-10.0,-11.0,-50.0,-19.0,-6.0,-7.0,-15.0,-7.0
1705326738.1935978,4.0,-12.0,-14.0,2.0,3.0,-1.0,-2.0,-3.0
1705326738.203601,4.0,10.0,6.0,6.0,1.0,4.0,6.0,4.0
1705326738.203601,-15.0,4.0,5.0,-3.0,-1.0,-1.0,18.0,-8.0
1705326738.2235572,-4.0,-5.0,16.0,3.0,1.0,0.0,-41.0,-5.0
1705326738.2235572,2.0,0.0,-6.0,-3.0,-2.0,-2.0,26.0,1.0
1705326738.2235572,1.0,8.0,-11.0,-1.0,-1.0,1.0,-13.0,-2.0
1705326738.2235572,9.0,-15.0,7.0,-1.0,-2.0,8.0,10.0,10.0
1705326738.2335565,0.0,17.0,10.0,0.0,-3.0,-16.0,-15.0,-6.0
1705326738.2335565,5.0,7.0,-8.0,-10.0,-4.0,-3.0,5.0,-3.0
1705326738.243557,-9.0,8.0,34.0,13.0,2.0,-7.0,20.0,6.0
1705326738.243557,-8.0,28.0,-37.0,-11.0,-5.0,-1.0,-20.0,-21.0
1705326738.2535596,-12.0,29.0,13.0,2.0,0.0,-4.0,-64.0,-25.0
1705326738.2535596,0.0,9.0,11.0,1.0,0.0,-2.0,-48.0,-8.0
1705326738.2635956,-5.0,-6.0,-11.0,-3.0,-5.0,-15.0,29.0,-13.0
1705326738.2635956,2.0,-2.0,-4.0,1.0,2.0,-5.0,-7.0,11.0
1705326738.2735593,1.0,1.0,13.0,3.0,2.0,19.0,29.0,-20.0
1705326738.2735593,-8.0,-42.0,-16.0,-9.0,-5.0,-1.0,1.0,14.0
1705326738.293559,-1.0,5.0,8.0,-6.0,-2.0,-1.0,-14.0,6.0
1705326738.293559,-9.0,-3.0,6.0,4.0,4.0,7.0,-1.0,3.0
1705326738.293559,0.0,-14.0,-41.0,-2.0,0.0,2.0,24.0,9.0
1705326738.293559,-3.0,-6.0,54.0,3.0,-1.0,-1.0,-2.0,-6.0
1705326738.3136053,-3.0,-7.0,-50.0,-19.0,-10.0,0.0,-3.0,-4.0
1705326738.3136053,-2.0,-15.0,-22.0,15.0,-1.0,-7.0,0.0,-4.0
1705326738.3136053,8.0,-4.0,50.0,12.0,3.0,1.0,15.0,19.0
1705326738.3136053,0.0,7.0,-56.0,-31.0,0.0,-2.0,4.0,-9.0
1705326738.3235583,-2.0,-3.0,-19.0,-1.0,4.0,7.0,-7.0,-2.0
1705326738.3235583,0.0,-2.0,25.0,11.0,-1.0,-3.0,-2.0,2.0
1705326738.3335576,-2.0,-11.0,-25.0,-27.0,-8.0,-6.0,6.0,0.0
1705326738.3335576,4.0,8.0,22.0,29.0,-6.0,-2.0,-4.0,-2.0
1705326738.353557,1.0,-8.0,4.0,-16.0,3.0,1.0,-4.0,-5.0
1705326738.353557,6.0,-8.0,-53.0,-8.0,0.0,-2.0,0.0,1.0
1705326738.353557,-7.0,-5.0,28.0,-4.0,-4.0,-2.0,14.0,6.0
1705326738.353557,-2.0,4.0,-30.0,-8.0,-1.0,0.0,3.0,1.0
1705326738.3741837,-1.0,0.0,8.0,7.0,-3.0,-2.0,-3.0,3.0
1705326738.37515,0.0,16.0,65.0,13.0,0.0,-6.0,-1.0,-3.0
1705326738.3761866,-1.0,-16.0,-46.0,-8.0,-2.0,0.0,4.0,0.0
1705326738.3761866,-4.0,3.0,28.0,0.0,1.0,1.0,-1.0,-2.0
1705326738.3885214,0.0,2.0,-7.0,8.0,7.0,4.0,-1.0,0.0
1705326738.3894875,3.0,-8.0,-4.0,-4.0,3.0,-1.0,-2.0,0.0
1705326738.39616,-4.0,-4.0,15.0,4.0,-2.0,-3.0,2.0,2.0
1705326738.39616,6.0,3.0,4.0,-3.0,-4.0,-5.0,-2.0,0.0
1705326738.4161623,1.0,-2.0,-2.0,8.0,5.0,3.0,2.0,-1.0
1705326738.4161623,0.0,-3.0,-4.0,-11.0,-5.0,-2.0,-1.0,-2.0
1705326738.4161623,2.0,-3.0,-4.0,3.0,-1.0,1.0,7.0,3.0
1705326738.4161623,-4.0,-2.0,-3.0,2.0,2.0,-1.0,0.0,0.0
1705326738.4265115,1.0,-1.0,4.0,-12.0,-5.0,0.0,-3.0,-2.0
1705326738.4265115,-1.0,-5.0,-18.0,-4.0,-2.0,-2.0,5.0,2.0
1705326738.4361622,1.0,0.0,9.0,9.0,4.0,0.0,-28.0,-2.0
1705326738.4361622,-4.0,-3.0,-3.0,-2.0,-1.0,3.0,10.0,0.0
1705326738.4461656,-5.0,-3.0,11.0,1.0,-5.0,-10.0,-20.0,-9.0
1705326738.4461656,-1.0,2.0,-6.0,-11.0,-2.0,0.0,-5.0,4.0
1705326738.4661963,-1.0,-8.0,-35.0,2.0,0.0,8.0,22.0,-8.0
1705326738.4661963,2.0,6.0,12.0,0.0,0.0,-15.0,6.0,5.0
1705326738.4661963,0.0,-1.0,7.0,5.0,2.0,6.0,-20.0,1.0
1705326738.4661963,1.0,-2.0,-10.0,-4.0,-3.0,-7.0,-28.0,0.0
1705326738.4661963,-3.0,12.0,2.0,-2.0,-1.0,1.0,14.0,4.0
1705326738.4661963,-4.0,-5.0,-7.0,-3.0,0.0,6.0,-4.0,-5.0
1705326738.4962041,-3.0,0.0,15.0,8.0,0.0,-2.0,2.0,-5.0
1705326738.4962041,-1.0,-11.0,-36.0,-8.0,-5.0,-1.0,-6.0,7.0
1705326738.4962041,-2.0,-6.0,37.0,-1.0,1.0,-5.0,4.0,0.0
1705326738.4962041,-4.0,-13.0,-13.0,2.0,-2.0,-6.0,-4.0,-21.0
1705326738.5062232,1.0,10.0,16.0,6.0,-1.0,-4.0,-6.0,5.0
1705326738.5062232,2.0,-2.0,3.0,-8.0,-1.0,8.0,19.0,-3.0
1705326738.5261874,-17.0,-11.0,-30.0,-4.0,1.0,1.0,-40.0,-6.0
1705326738.5261874,-4.0,4.0,14.0,6.0,6.0,-6.0,6.0,-12.0
1705326738.5261874,-7.0,-9.0,-12.0,-12.0,-9.0,-6.0,1.0,15.0
1705326738.5261874,9.0,2.0,-8.0,3.0,-1.0,1.0,-14.0,1.0
1705326738.5261874,-1.0,-3.0,53.0,2.0,0.0,-10.0,27.0,1.0
1705326738.5261874,4.0,3.0,5.0,4.0,2.0,3.0,-1.0,2.0
1705326738.5462034,-14.0,-5.0,-16.0,-4.0,-5.0,-2.0,23.0,0.0
1705326738.5462034,-10.0,6.0,14.0,2.0,0.0,2.0,-17.0,-4.0
1705326738.556167,10.0,-3.0,-31.0,-4.0,-2.0,3.0,36.0,11.0
1705326738.556167,-2.0,3.0,5.0,-2.0,-3.0,1.0,-22.0,-5.0
1705326738.5661626,11.0,3.0,4.0,0.0,0.0,3.0,-2.0,-1.0
1705326738.5661626,-1.0,-5.0,2.0,-1.0,-2.0,-5.0,11.0,-2.0
1705326738.5761635,-1.0,-4.0,20.0,-2.0,-5.0,-1.0,-12.0,-6.0
1705326738.5761635,3.0,1.0,-15.0,-9.0,2.0,6.0,-1.0,-1.0
1705326738.5861635,3.0,3.0,19.0,12.0,-6.0,-6.0,-3.0,3.0
1705326738.5861635,-4.0,11.0,-10.0,-7.0,3.0,-2.0,3.0,-5.0
1705326738.5861635,2.0,-3.0,-2.0,-18.0,6.0,3.0,-5.0,-5.0
1705326738.5861635,1.0,9.0,-11.0,11.0,-4.0,-1.0,-5.0,13.0
1705326738.6061993,-1.0,15.0,-2.0,-5.0,-3.0,-3.0,2.0,4.0
1705326738.6061993,-2.0,-31.0,-8.0,-2.0,-6.0,-2.0,5.0,-20.0
1705326738.6162012,4.0,6.0,12.0,-4.0,-8.0,-3.0,-4.0,4.0
1705326738.6162012,-3.0,-9.0,-30.0,-10.0,-8.0,-7.0,0.0,-3.0
1705326738.6261978,1.0,-1.0,3.0,2.0,8.0,2.0,10.0,2.0
1705326738.6261978,-4.0,3.0,10.0,4.0,0.0,-1.0,-29.0,-6.0
1705326738.6361632,-3.0,-2.0,-11.0,10.0,1.0,-5.0,17.0,21.0
1705326738.6361632,-10.0,7.0,-2.0,1.0,3.0,2.0,10.0,15.0
1705326738.6461973,1.0,-5.0,9.0,1.0,0.0,2.0,-17.0,-14.0
1705326738.6461973,4.0,-15.0,-47.0,-15.0,-8.0,-10.0,2.0,12.0
1705326738.6562047,-1.0,1.0,8.0,4.0,-1.0,0.0,-6.0,-7.0
1705326738.6562047,17.0,10.0,-3.0,10.0,6.0,4.0,-2.0,16.0
1705326738.6665154,-8.0,-3.0,59.0,11.0,1.0,-2.0,8.0,7.0
1705326738.6665154,-2.0,-28.0,-66.0,-31.0,-3.0,1.0,-3.0,-8.0
1705326738.6762044,-5.0,0.0,41.0,22.0,6.0,2.0,-9.0,-4.0
1705326738.6762044,-1.0,6.0,-86.0,-34.0,-8.0,-5.0,4.0,2.0
1705326738.6862051,4.0,5.0,30.0,8.0,3.0,3.0,-4.0,-15.0
1705326738.6862051,11.0,15.0,35.0,17.0,3.0,-1.0,10.0,2.0
1705326738.7061632,7.0,-7.0,-40.0,-9.0,-3.0,-1.0,-14.0,5.0
1705326738.7061632,-6.0,-5.0,25.0,13.0,8.0,6.0,-9.0,-18.0
1705326738.7061632,-3.0,-5.0,-51.0,-12.0,-5.0,-8.0,31.0,-12.0
1705326738.7061632,-9.0,18.0,34.0,6.0,0.0,2.0,7.0,20.0
1705326738.7061632,-8.0,1.0,-1.0,7.0,2.0,-4.0,-20.0,-11.0
1705326738.7061632,19.0,-2.0,31.0,0.0,-4.0,3.0,0.0,18.0
1705326738.7361681,14.0,-8.0,-22.0,-6.0,-1.0,5.0,-8.0,9.0
1705326738.7361681,-2.0,-6.0,24.0,11.0,2.0,-1.0,4.0,-8.0
1705326738.7461622,4.0,4.0,-20.0,-11.0,-2.0,5.0,36.0,9.0
1705326738.7461622,-7.0,-7.0,5.0,-8.0,-5.0,-14.0,-39.0,-22.0
1705326738.7461622,-3.0,4.0,1.0,4.0,0.0,-3.0,-5.0,10.0
1705326738.7461622,-8.0,-3.0,-12.0,-9.0,-2.0,-1.0,22.0,5.0
1705326738.756166,8.0,-10.0,-1.0,4.0,0.0,4.0,-2.0,-8.0
1705326738.756166,-15.0,-2.0,10.0,-2.0,-5.0,0.0,-20.0,-17.0
1705326738.7661638,0.0,-9.0,-27.0,-4.0,-2.0,0.0,12.0,11.0
1705326738.7661638,-4.0,10.0,39.0,1.0,-1.0,-12.0,-33.0,-34.0
1705326738.7661638,-33.0,-10.0,-21.0,-1.0,-3.0,-1.0,10.0,3.0
1705326738.7661638,19.0,9.0,25.0,6.0,0.0,-2.0,11.0,-5.0
1705326738.7961664,4.0,3.0,9.0,-6.0,-4.0,6.0,-31.0,-6.0
1705326738.7961664,2.0,3.0,-1.0,6.0,3.0,1.0,28.0,22.0
1705326738.8061664,-3.0,4.0,-16.0,-1.0,2.0,-2.0,-5.0,-4.0
1705326738.8061664,-1.0,-3.0,-3.0,2.0,0.0,2.0,-10.0,-5.0
1705326738.8061664,-8.0,9.0,9.0,-6.0,0.0,-1.0,-1.0,8.0
1705326738.8061664,-5.0,-18.0,-7.0,-3.0,-5.0,-3.0,5.0,8.0
1705326738.8161628,9.0,6.0,-14.0,-2.0,-5.0,-6.0,-14.0,-8.0
1705326738.8161628,-20.0,-2.0,-20.0,8.0,3.0,3.0,18.0,4.0
1705326738.826165,7.0,5.0,2.0,-3.0,2.0,3.0,-14.0,-4.0
1705326738.826165,-12.0,-9.0,-51.0,-8.0,-3.0,-5.0,5.0,-2.0
1705326738.826165,5.0,7.0,36.0,2.0,-3.0,2.0,14.0,3.0
1705326738.826165,7.0,-1.0,31.0,6.0,-2.0,-7.0,-1.0,7.0
1705326738.8461637,-7.0,-1.0,-12.0,4.0,4.0,5.0,-11.0,-10.0
1705326738.8461637,-2.0,-1.0,-47.0,2.0,0.0,-3.0,-1.0,-11.0
1705326738.8561666,0.0,-11.0,-26.0,-29.0,-15.0,-7.0,-8.0,-2.0
1705326738.8661659,0.0,1.0,45.0,-3.0,-4.0,1.0,4.0,-2.0
1705326738.8661659,-3.0,-2.0,-1.0,13.0,7.0,2.0,12.0,-4.0
1705326738.8661659,0.0,6.0,23.0,-9.0,-4.0,1.0,-3.0,2.0
1705326738.8761697,4.0,2.0,-3.0,7.0,2.0,-2.0,-9.0,-5.0
1705326738.8761697,-8.0,-11.0,32.0,10.0,-6.0,-5.0,1.0,-2.0
1705326738.8861692,0.0,-4.0,-61.0,-9.0,4.0,-1.0,6.0,0.0
1705326738.8861692,2.0,-1.0,41.0,2.0,0.0,4.0,-4.0,-2.0
1705326738.8861692,-6.0,-4.0,-4.0,-12.0,-1.0,-5.0,-13.0,-7.0
1705326738.8861692,-2.0,-2.0,-37.0,-14.0,-8.0,-4.0,7.0,3.0
1705326738.917543,-2.0,-8.0,1.0,-2.0,-2.0,-1.0,0.0,-2.0
1705326738.917543,5.0,8.0,5.0,10.0,7.0,4.0,-2.0,1.0
1705326738.917543,5.0,13.0,21.0,14.0,4.0,2.0,1.0,1.0
1705326738.917543,-2.0,0.0,6.0,-3.0,4.0,1.0,11.0,1.0
1705326738.9290977,-3.0,-5.0,-22.0,-4.0,-2.0,5.0,-4.0,5.0
1705326738.9290977,1.0,0.0,-3.0,-5.0,-5.0,-12.0,-5.0,-11.0
1705326738.9290977,0.0,-2.0,25.0,5.0,-1.0,-8.0,10.0,-6.0
1705326738.9290977,2.0,-2.0,-9.0,4.0,1.0,5.0,7.0,6.0
1705326738.9491389,-2.0,-1.0,25.0,-2.0,-7.0,-6.0,2.0,-3.0
1705326738.9491389,-5.0,-8.0,7.0,0.0,3.0,10.0,7.0,4.0
1705326738.9491389,2.0,10.0,-17.0,1.0,-1.0,3.0,-18.0,3.0
1705326738.9491389,-10.0,-1.0,-15.0,-12.0,-7.0,-7.0,-14.0,-19.0
1705326738.9791043,8.0,-10.0,4.0,-2.0,0.0,-2.0,5.0,-6.0
1705326738.9791043,-8.0,-1.0,-11.0,-8.0,-5.0,-9.0,12.0,3.0
1705326738.9791043,3.0,-6.0,10.0,5.0,3.0,2.0,1.0,2.0
1705326738.9791043,-3.0,1.0,-6.0,-4.0,1.0,2.0,-1.0,9.0
1705326738.9791043,4.0,2.0,-21.0,-5.0,0.0,12.0,12.0,-1.0
1705326738.9791043,17.0,11.0,20.0,11.0,2.0,-8.0,38.0,2.0
1705326738.989102,-3.0,0.0,0.0,-2.0,-1.0,4.0,-13.0,2.0
1705326738.989102,-5.0,-6.0,13.0,-2.0,3.0,-2.0,-32.0,-5.0
1705326739.009142,7.0,-6.0,-18.0,-4.0,-2.0,-22.0,77.0,29.0
1705326739.009142,1.0,0.0,26.0,8.0,-2.0,-7.0,-18.0,-2.0
1705326739.009142,-1.0,-13.0,-51.0,-20.0,-5.0,14.0,15.0,4.0
1705326739.009142,10.0,-6.0,-6.0,0.0,1.0,-11.0,-14.0,13.0
1705326739.0290997,15.0,36.0,54.0,25.0,3.0,10.0,-15.0,-22.0
1705326739.0290997,1.0,6.0,54.0,-2.0,-2.0,4.0,-6.0,-8.0
1705326739.0290997,-25.0,-35.0,6.0,-20.0,-12.0,-18.0,-4.0,-13.0
1705326739.0290997,-1.0,3.0,-8.0,-5.0,5.0,15.0,1.0,6.0
1705326739.049102,-9.0,5.0,-5.0,-6.0,-1.0,-5.0,-11.0,1.0
1705326739.049102,2.0,11.0,-39.0,4.0,2.0,2.0,-13.0,-1.0
1705326739.0591,0.0,6.0,13.0,10.0,-8.0,-3.0,-13.0,-5.0
1705326739.0591,-3.0,-7.0,-19.0,-22.0,-5.0,-6.0,11.0,-3.0
1705326739.0691004,-10.0,-11.0,-16.0,-27.0,2.0,0.0,-17.0,-4.0
1705326739.0691004,1.0,6.0,0.0,0.0,3.0,8.0,0.0,-1.0
1705326739.0691004,1.0,3.0,7.0,1.0,2.0,-1.0,-2.0,4.0
1705326739.0691004,-9.0,-4.0,-28.0,17.0,2.0,-2.0,16.0,-1.0
1705326739.0891013,15.0,3.0,49.0,10.0,-9.0,-9.0,-13.0,-23.0
1705326739.0891013,-11.0,-29.0,-12.0,-10.0,-3.0,2.0,-15.0,9.0
1705326739.0891013,5.0,12.0,-9.0,-4.0,0.0,-5.0,4.0,15.0
1705326739.0891013,-27.0,0.0,32.0,17.0,-2.0,-2.0,4.0,-34.0
1705326739.0991356,12.0,-12.0,-38.0,-11.0,-4.0,-1.0,-17.0,18.0
1705326739.0991356,-2.0,12.0,-3.0,6.0,-1.0,2.0,2.0,16.0
1705326739.1091428,-9.0,8.0,17.0,6.0,3.0,-1.0,-24.0,-70.0
1705326739.1091428,1.0,-6.0,7.0,2.0,-2.0,1.0,13.0,14.0
1705326739.1391027,-1.0,1.0,-27.0,-3.0,-2.0,-4.0,-13.0,-3.0
1705326739.1391027,-14.0,-17.0,-12.0,-17.0,-7.0,-4.0,-7.0,-32.0
1705326739.1391027,3.0,-15.0,17.0,6.0,3.0,2.0,10.0,33.0
1705326739.1391027,13.0,30.0,6.0,-7.0,-1.0,1.0,-2.0,-1.0
1705326739.1491408,-15.0,-11.0,26.0,10.0,-3.0,0.0,8.0,-13.0
1705326739.1491408,-22.0,47.0,22.0,10.0,1.0,-1.0,-22.0,8.0
1705326739.1491408,-8.0,-25.0,-66.0,-13.0,-2.0,-1.0,7.0,18.0
1705326739.1491408,-5.0,8.0,21.0,3.0,-4.0,-1.0,-6.0,-44.0
1705326739.1591365,-13.0,0.0,-17.0,-10.0,-5.0,-6.0,-4.0,-5.0
1705326739.1591365,12.0,-58.0,3.0,-2.0,-1.0,9.0,-6.0,3.0
1705326739.1690993,10.0,27.0,23.0,6.0,4.0,-10.0,24.0,-13.0
1705326739.1690993,5.0,-13.0,-18.0,1.0,-1.0,4.0,11.0,9.0
1705326739.1990993,-2.0,14.0,-1.0,-4.0,-4.0,-10.0,-27.0,14.0
1705326739.1990993,26.0,21.0,9.0,-3.0,-4.0,4.0,8.0,-12.0
1705326739.1990993,-4.0,-10.0,-5.0,8.0,3.0,1.0,-18.0,0.0
1705326739.1990993,19.0,0.0,8.0,-1.0,5.0,3.0,24.0,11.0
1705326739.2091382,-10.0,-12.0,2.0,10.0,6.0,8.0,-8.0,-8.0
1705326739.2091382,5.0,-1.0,7.0,-4.0,1.0,-7.0,-2.0,7.0
1705326739.2091382,6.0,2.0,32.0,2.0,-21.0,-2.0,-3.0,4.0
1705326739.2091382,1.0,8.0,-17.0,7.0,-8.0,-5.0,-9.0,0.0
1705326739.2291028,-15.0,-30.0,-81.0,-35.0,22.0,7.0,-2.0,-5.0
1705326739.2291028,-5.0,0.0,-49.0,-5.0,8.0,2.0,7.0,1.0
1705326739.2391033,2.0,10.0,19.0,-6.0,6.0,0.0,-1.0,0.0
1705326739.2391033,-2.0,-10.0,18.0,47.0,-5.0,-4.0,-7.0,4.0
1705326739.2590997,-2.0,10.0,35.0,-9.0,-14.0,-10.0,2.0,-4.0
1705326739.2590997,-4.0,-6.0,-1.0,1.0,-7.0,-1.0,-1.0,-2.0
1705326739.2590997,5.0,8.0,-6.0,13.0,12.0,12.0,5.0,2.0
1705326739.2590997,-5.0,-17.0,-50.0,-10.0,5.0,0.0,-3.0,7.0
1705326739.2691338,-5.0,-5.0,28.0,6.0,-9.0,-8.0,-1.0,-2.0
1705326739.2691338,0.0,-1.0,-14.0,-3.0,0.0,-5.0,0.0,-4.0
1705326739.2691338,1.0,2.0,2.0,-11.0,-4.0,-2.0,-3.0,2.0
1705326739.2691338,-8.0,-6.0,-2.0,-19.0,-5.0,-6.0,-7.0,-2.0
1705326739.2891026,-4.0,-1.0,9.0,11.0,-2.0,2.0,-12.0,-5.0
1705326739.2891026,4.0,0.0,1.0,-8.0,-7.0,3.0,-10.0,4.0
1705326739.2990994,-21.0,-4.0,-5.0,0.0,-5.0,-16.0,12.0,-22.0
1705326739.2990994,3.0,-3.0,4.0,-10.0,4.0,4.0,4.0,-2.0
1705326739.3091311,2.0,1.0,-5.0,0.0,-5.0,8.0,-4.0,1.0
1705326739.3091311,3.0,-4.0,9.0,11.0,7.0,-3.0,-8.0,17.0
1705326739.3091311,-4.0,9.0,-9.0,-2.0,3.0,10.0,35.0,-35.0
1705326739.3091311,18.0,-5.0,-7.0,-14.0,-4.0,-27.0,-18.0,8.0
1705326739.329103,-9.0,58.0,35.0,7.0,-3.0,-4.0,1.0,-15.0
1705326739.329103,-1.0,-13.0,-23.0,4.0,-2.0,15.0,-24.0,6.0
1705326739.329103,-33.0,0.0,11.0,-6.0,-4.0,-11.0,25.0,-7.0
1705326739.329103,31.0,-4.0,9.0,-4.0,4.0,17.0,7.0,13.0
1705326739.3590994,-1.0,22.0,24.0,9.0,-1.0,-1.0,15.0,7.0
1705326739.3590994,-12.0,-54.0,-48.0,0.0,2.0,-4.0,23.0,3.0
1705326739.3590994,-2.0,7.0,-2.0,-16.0,-5.0,-1.0,-43.0,-3.0
1705326739.3590994,11.0,11.0,14.0,7.0,0.0,5.0,0.0,2.0
1705326739.3691394,-28.0,-39.0,-12.0,-17.0,-8.0,-11.0,-7.0,-3.0
1705326739.3691394,4.0,38.0,51.0,9.0,1.0,-1.0,-3.0,-9.0
1705326739.3791373,16.0,22.0,-10.0,-3.0,1.0,-2.0,-9.0,14.0
1705326739.3791373,-11.0,0.0,7.0,6.0,2.0,1.0,-3.0,-11.0
1705326739.3891466,17.0,-2.0,17.0,31.0,10.0,6.0,9.0,7.0
1705326739.3891466,-8.0,3.0,-14.0,-10.0,-2.0,-7.0,4.0,-8.0
1705326739.3891466,5.0,-21.0,-25.0,-16.0,-5.0,3.0,-14.0,10.0
1705326739.3891466,-7.0,7.0,-2.0,-5.0,-3.0,-3.0,6.0,7.0
1705326739.4190993,-1.0,-11.0,-7.0,-9.0,-8.0,-4.0,-2.0,-3.0
1705326739.4190993,-2.0,6.0,13.0,9.0,-4.0,-5.0,1.0,-7.0
1705326739.4190993,11.0,4.0,23.0,36.0,5.0,2.0,-1.0,12.0
1705326739.4190993,-10.0,-7.0,-1.0,-25.0,5.0,3.0,-3.0,0.0
1705326739.4307914,-3.0,-24.0,-18.0,-8.0,-9.0,-5.0,-1.0,0.0
1705326739.4307914,-3.0,-4.0,-33.0,-12.0,1.0,-3.0,-3.0,-11.0
1705326739.4393306,9.0,3.0,36.0,11.0,4.0,5.0,1.0,12.0
1705326739.4393306,-14.0,1.0,17.0,3.0,-8.0,-3.0,-7.0,-5.0
1705326739.4551835,8.0,5.0,4.0,6.0,1.0,0.0,0.0,-2.0
1705326739.4551835,3.0,14.0,23.0,1.0,-1.0,-1.0,7.0,12.0
1705326739.4561763,1.0,-10.0,-12.0,3.0,-1.0,-1.0,-5.0,2.0
1705326739.4561763,-10.0,-24.0,8.0,-7.0,-5.0,-1.0,2.0,7.0
1705326739.4817226,6.0,9.0,-46.0,-18.0,-2.0,4.0,-21.0,5.0
1705326739.4817226,-3.0,7.0,15.0,3.0,-4.0,-10.0,3.0,-4.0
1705326739.4817226,-4.0,-10.0,10.0,7.0,4.0,2.0,-3.0,-7.0
1705326739.4817226,-1.0,-2.0,23.0,11.0,4.0,5.0,5.0,16.0
1705326739.4917257,-2.0,-10.0,-12.0,-15.0,-5.0,-4.0,2.0,-1.0
1705326739.4917257,-5.0,-1.0,-10.0,-3.0,-2.0,0.0,-3.0,3.0
1705326739.4917257,9.0,11.0,-6.0,-1.0,-4.0,-1.0,-6.0,6.0
1705326739.4917257,-6.0,-15.0,-11.0,0.0,-3.0,-3.0,1.0,-10.0
1705326739.5117242,-4.0,-9.0,2.0,7.0,3.0,0.0,1.0,-2.0
1705326739.5117242,-1.0,9.0,23.0,-4.0,-3.0,-3.0,-2.0,-6.0
1705326739.5117242,3.0,0.0,7.0,3.0,-1.0,-2.0,2.0,0.0
1705326739.5117242,1.0,-46.0,-19.0,-9.0,-5.0,0.0,-2.0,2.0
1705326739.5317242,-6.0,39.0,-14.0,3.0,6.0,1.0,1.0,-23.0
1705326739.5317242,8.0,6.0,18.0,2.0,-3.0,-2.0,0.0,5.0
1705326739.5317242,2.0,-22.0,-23.0,-12.0,0.0,-1.0,-6.0,2.0
1705326739.5317242,-11.0,5.0,-8.0,3.0,2.0,-3.0,-4.0,-11.0
1705326739.5517266,5.0,1.0,14.0,6.0,-4.0,1.0,5.0,7.0
1705326739.5517266,-6.0,-11.0,-16.0,-10.0,-9.0,-7.0,-8.0,-13.0
1705326739.5517266,5.0,8.0,-18.0,-9.0,-2.0,-1.0,-6.0,0.0
1705326739.5517266,4.0,18.0,34.0,26.0,14.0,5.0,1.0,1.0
1705326739.5717247,5.0,10.0,-4.0,-17.0,-7.0,-5.0,-1.0,2.0
1705326739.5717247,9.0,35.0,45.0,15.0,5.0,4.0,6.0,5.0
1705326739.5817268,-26.0,-29.0,-52.0,-19.0,-11.0,-8.0,-8.0,-7.0
1705326739.5817268,-3.0,9.0,8.0,-5.0,-4.0,-3.0,0.0,-12.0
1705326739.5917733,0.0,-25.0,-49.0,-1.0,2.0,2.0,-10.0,0.0
1705326739.5917733,3.0,3.0,12.0,0.0,-2.0,4.0,19.0,37.0
1705326739.5917733,-9.0,11.0,-8.0,3.0,3.0,-2.0,26.0,-21.0
1705326739.5917733,9.0,17.0,-4.0,-1.0,2.0,3.0,-30.0,9.0
1705326739.6117241,35.0,15.0,24.0,6.0,4.0,19.0,47.0,32.0
1705326739.6117241,-10.0,-47.0,-32.0,-10.0,-5.0,-14.0,-54.0,17.0
1705326739.6117241,-11.0,-28.0,0.0,1.0,0.0,-17.0,53.0,12.0
1705326739.6117241,-23.0,-15.0,-15.0,-9.0,-9.0,-8.0,4.0,-24.0
1705326739.631723,3.0,-11.0,13.0,-2.0,-4.0,-6.0,-36.0,-8.0
1705326739.631723,10.0,9.0,0.0,3.0,4.0,5.0,2.0,-21.0
1705326739.631723,-1.0,-12.0,-8.0,3.0,3.0,14.0,-21.0,10.0
1705326739.631723,9.0,-3.0,-4.0,-7.0,-3.0,4.0,35.0,15.0
1705326739.6517622,-8.0,2.0,11.0,-2.0,0.0,-5.0,-4.0,4.0
1705326739.6517622,-10.0,-1.0,7.0,4.0,1.0,3.0,10.0,-12.0
1705326739.6517622,-1.0,0.0,-38.0,-16.0,-8.0,-5.0,-28.0,-14.0
1705326739.6517622,11.0,26.0,33.0,8.0,-5.0,-4.0,1.0,4.0
1705326739.672129,-18.0,-22.0,-28.0,-32.0,8.0,4.0,-2.0,-10.0
1705326739.672129,-2.0,13.0,51.0,14.0,3.0,-2.0,-4.0,-13.0
1705326739.672129,11.0,6.0,34.0,11.0,9.0,9.0,-1.0,8.0
1705326739.672129,-1.0,1.0,-28.0,4.0,-10.0,-12.0,-14.0,-3.0
1705326739.6921833,-4.0,-13.0,-23.0,2.0,-3.0,-7.0,2.0,-5.0
1705326739.6921833,-14.0,-21.0,65.0,-12.0,-1.0,-2.0,6.0,-11.0
1705326739.6921833,12.0,11.0,-35.0,-2.0,-7.0,-3.0,-7.0,6.0
1705326739.6921833,-4.0,-1.0,-72.0,3.0,6.0,4.0,2.0,-1.0
1705326739.7121465,-19.0,0.0,74.0,24.0,-4.0,-10.0,-8.0,-13.0
1705326739.7121465,9.0,0.0,-59.0,-15.0,-2.0,3.0,8.0,-3.0
1705326739.7121465,1.0,14.0,82.0,18.0,2.0,0.0,-9.0,-2.0
1705326739.7121465,-2.0,-6.0,-81.0,-20.0,0.0,1.0,-5.0,-4.0
1705326739.7321467,6.0,7.0,37.0,12.0,-1.0,-1.0,8.0,6.0
1705326739.7321467,-4.0,-5.0,4.0,0.0,-2.0,-2.0,-5.0,-6.0
1705326739.7321467,-1.0,0.0,10.0,-4.0,-1.0,2.0,-5.0,-1.0
1705326739.7321467,2.0,-3.0,-22.0,-17.0,-1.0,-2.0,3.0,1.0
1705326739.7521431,-1.0,-6.0,-1.0,11.0,0.0,-2.0,0.0,-2.0
1705326739.7521431,-4.0,1.0,-8.0,4.0,-1.0,1.0,3.0,6.0
1705326739.7521431,3.0,7.0,-11.0,-7.0,-4.0,-3.0,-5.0,-5.0
1705326739.7521431,-4.0,3.0,24.0,2.0,-3.0,-3.0,0.0,5.0
1705326739.7721941,-3.0,-7.0,-2.0,-2.0,-1.0,-1.0,-3.0,-18.0
1705326739.7721941,-4.0,-1.0,-27.0,-2.0,0.0,-2.0,-3.0,-2.0
1705326739.7721941,1.0,-6.0,-6.0,-5.0,0.0,1.0,0.0,-3.0
1705326739.7721941,-5.0,0.0,9.0,-9.0,-4.0,-3.0,-13.0,-3.0
1705326739.792144,-1.0,2.0,5.0,5.0,-3.0,-3.0,2.0,4.0
1705326739.792144,2.0,-9.0,-21.0,-9.0,-4.0,-2.0,2.0,-5.0
1705326739.792144,-1.0,1.0,1.0,2.0,3.0,2.0,-1.0,1.0
1705326739.792144,-1.0,6.0,23.0,2.0,0.0,1.0,0.0,-3.0
1705326739.8121428,-5.0,-17.0,-6.0,-10.0,-6.0,-4.0,-3.0,-1.0
1705326739.8121428,8.0,-7.0,-9.0,-4.0,-2.0,0.0,-2.0,-4.0
1705326739.8121428,-6.0,2.0,5.0,-1.0,-2.0,-1.0,-1.0,1.0
1705326739.8121428,-3.0,7.0,25.0,2.0,0.0,-2.0,-2.0,-2.0
1705326739.8321884,3.0,-1.0,-21.0,-1.0,-1.0,3.0,2.0,4.0
1705326739.8321884,-6.0,1.0,-5.0,-2.0,0.0,-2.0,-2.0,-4.0
1705326739.8321884,0.0,-3.0,-10.0,-8.0,-4.0,-2.0,-1.0,0.0
1705326739.8321884,-2.0,4.0,-7.0,-9.0,-6.0,-2.0,-1.0,-3.0
1705326739.8521838,1.0,0.0,8.0,-2.0,2.0,-1.0,0.0,-1.0
1705326739.8521838,-1.0,-2.0,-23.0,12.0,4.0,3.0,2.0,0.0
1705326739.8521838,2.0,1.0,0.0,-2.0,-3.0,-3.0,-4.0,-1.0
1705326739.8521838,-6.0,-7.0,-3.0,6.0,1.0,-1.0,-2.0,-4.0
1705326739.8721447,-1.0,5.0,-22.0,-5.0,-3.0,0.0,0.0,0.0
1705326739.8721447,0.0,5.0,28.0,0.0,0.0,-1.0,0.0,-1.0
1705326739.8721447,-2.0,-3.0,-9.0,-3.0,1.0,-2.0,0.0,1.0
1705326739.8721447,3.0,-6.0,-5.0,-5.0,-1.0,0.0,0.0,0.0
1705326739.892142,-6.0,-3.0,-4.0,-7.0,-1.0,-1.0,0.0,-1.0
1705326739.892142,-1.0,3.0,-23.0,2.0,0.0,-3.0,-2.0,-2.0
1705326739.892142,-1.0,-2.0,3.0,-7.0,-7.0,-3.0,-3.0,1.0
1705326739.892142,-4.0,-5.0,0.0,2.0,0.0,-1.0,0.0,-5.0
1705326739.9121976,4.0,-1.0,-18.0,-7.0,-1.0,-1.0,0.0,1.0
1705326739.9121976,-10.0,-1.0,-6.0,-2.0,1.0,0.0,-2.0,-3.0
1705326739.9221876,0.0,-3.0,11.0,6.0,0.0,-1.0,-1.0,4.0
1705326739.9221876,1.0,0.0,-13.0,-7.0,-5.0,-2.0,-2.0,-2.0
1705326739.9321713,0.0,2.0,7.0,3.0,2.0,1.0,1.0,8.0
1705326739.9321713,2.0,-5.0,-1.0,0.0,1.0,-1.0,-2.0,-13.0
1705326739.9321713,2.0,8.0,13.0,9.0,4.0,0.0,2.0,0.0
1705326739.9321713,-2.0,-6.0,-19.0,-11.0,-5.0,-2.0,0.0,1.0
1705326739.956581,-2.0,-11.0,21.0,-7.0,-6.0,-1.0,-2.0,0.0
1705326739.956581,-2.0,-6.0,-6.0,-5.0,-3.0,-1.0,2.0,1.0
1705326739.9634786,-2.0,2.0,9.0,4.0,2.0,2.0,-3.0,-1.0
1705326739.9644887,1.0,7.0,8.0,5.0,2.0,0.0,-1.0,-2.0
1705326739.9779198,-4.0,-1.0,-10.0,1.0,-1.0,-5.0,-3.0,-4.0
1705326739.9779198,1.0,2.0,-13.0,-3.0,-4.0,-2.0,0.0,1.0
1705326739.9779198,5.0,-2.0,19.0,-4.0,-3.0,0.0,-1.0,-1.0
1705326739.9779198,-14.0,-8.0,2.0,5.0,1.0,-2.0,-2.0,-1.0
1705326739.987954,1.0,-2.0,-30.0,1.0,-1.0,-4.0,-4.0,-5.0
1705326739.987954,0.0,3.0,7.0,12.0,3.0,3.0,-1.0,2.0
1705326739.987954,-1.0,-3.0,-19.0,-11.0,1.0,-2.0,0.0,0.0
1705326739.987954,4.0,0.0,20.0,1.0,-2.0,1.0,1.0,-1.0
1705326740.008019,0.0,2.0,5.0,-9.0,-2.0,-1.0,1.0,0.0
1705326740.008019,-4.0,-1.0,-37.0,-3.0,-2.0,-1.0,-1.0,0.0
1705326740.008019,1.0,-3.0,-31.0,-1.0,-2.0,-1.0,-1.0,-5.0
1705326740.008019,-3.0,0.0,46.0,0.0,2.0,0.0,-1.0,-2.0
1705326740.03798,-3.0,-6.0,2.0,0.0,-4.0,-3.0,-1.0,-4.0
1705326740.03798,4.0,-4.0,-1.0,-3.0,-7.0,-2.0,-1.0,0.0
1705326740.03798,0.0,9.0,-12.0,-6.0,-2.0,-1.0,-4.0,-2.0
1705326740.03798,2.0,0.0,-10.0,12.0,1.0,0.0,-2.0,-2.0
1705326740.047981,-3.0,-1.0,18.0,6.0,8.0,3.0,1.0,-1.0
1705326740.047981,-4.0,-8.0,-20.0,-13.0,-5.0,-1.0,-2.0,-2.0
1705326740.047981,-2.0,-7.0,-7.0,-3.0,-5.0,-2.0,-4.0,-3.0
1705326740.047981,3.0,4.0,-6.0,-6.0,-4.0,-2.0,-1.0,0.0
1705326740.0680137,4.0,7.0,10.0,4.0,-1.0,-1.0,0.0,-2.0
1705326740.0680137,-9.0,-7.0,21.0,-4.0,0.0,-2.0,-2.0,-1.0
1705326740.0680137,-3.0,-8.0,34.0,3.0,0.0,-3.0,1.0,4.0
1705326740.0680137,-1.0,-13.0,-37.0,-10.0,-2.0,-3.0,-5.0,-19.0
1705326740.1079786,1.0,2.0,-9.0,2.0,-1.0,0.0,-17.0,0.0
1705326740.1079786,4.0,3.0,7.0,-5.0,-3.0,4.0,-6.0,6.0
1705326740.1079786,-10.0,-4.0,-38.0,-1.0,-1.0,-9.0,5.0,-20.0
1705326740.1079786,6.0,1.0,29.0,7.0,3.0,1.0,17.0,3.0
1705326740.1079786,-1.0,-1.0,-12.0,3.0,-1.0,0.0,-10.0,-1.0
1705326740.1079786,3.0,2.0,-8.0,-14.0,-2.0,-2.0,-27.0,-11.0
1705326740.1079786,-6.0,-1.0,-2.0,-1.0,-6.0,-8.0,2.0,39.0
1705326740.1079786,-5.0,-3.0,-6.0,-6.0,-2.0,-2.0,-12.0,-46.0
1705326740.1279807,-3.0,3.0,15.0,6.0,-2.0,-2.0,5.0,5.0
1705326740.1279807,2.0,13.0,1.0,-2.0,-2.0,4.0,2.0,-5.0
1705326740.1279807,3.0,3.0,-8.0,7.0,6.0,7.0,3.0,9.0
1705326740.1279807,0.0,-1.0,28.0,-6.0,-5.0,-5.0,5.0,14.0
1705326740.1580105,-7.0,7.0,-6.0,0.0,-1.0,0.0,-13.0,-2.0
1705326740.1580105,8.0,1.0,-1.0,6.0,0.0,-2.0,1.0,3.0
1705326740.1580105,-6.0,-6.0,-2.0,-8.0,-4.0,-1.0,-7.0,-7.0
1705326740.1580105,-1.0,10.0,17.0,7.0,2.0,4.0,10.0,10.0
1705326740.1679802,-4.0,-10.0,-18.0,-7.0,-1.0,-1.0,-1.0,-10.0
1705326740.1679802,2.0,0.0,5.0,1.0,-2.0,-3.0,5.0,7.0
1705326740.178027,-1.0,5.0,15.0,6.0,3.0,3.0,-4.0,-5.0
1705326740.178027,-10.0,-11.0,-28.0,-8.0,-7.0,-10.0,-41.0,-13.0
1705326740.1979816,6.0,2.0,10.0,2.0,-1.0,6.0,9.0,10.0
1705326740.1979816,2.0,-2.0,8.0,1.0,1.0,-9.0,-5.0,0.0
1705326740.1979816,-3.0,-1.0,11.0,3.0,0.0,8.0,16.0,-10.0
1705326740.1979816,-2.0,12.0,5.0,-3.0,-3.0,-1.0,-11.0,13.0
1705326740.2179823,8.0,4.0,-6.0,-5.0,-3.0,-2.0,-2.0,-3.0
1705326740.2179823,-27.0,2.0,-6.0,1.0,-2.0,2.0,-11.0,17.0
1705326740.2179823,6.0,-8.0,4.0,-2.0,-1.0,1.0,-4.0,-15.0
1705326740.2179823,-2.0,-13.0,-2.0,1.0,1.0,-6.0,46.0,20.0
1705326740.2279794,-4.0,-1.0,-28.0,-2.0,-1.0,3.0,10.0,-11.0
1705326740.2279794,10.0,29.0,7.0,7.0,3.0,6.0,3.0,7.0
1705326740.2279794,-10.0,-8.0,-11.0,-1.0,-3.0,-5.0,-6.0,-1.0
1705326740.2279794,4.0,17.0,36.0,0.0,-1.0,-2.0,-1.0,1.0
1705326740.2579794,-8.0,-19.0,-14.0,-8.0,-10.0,-7.0,4.0,1.0
1705326740.2579794,3.0,-19.0,-13.0,5.0,10.0,3.0,0.0,-12.0
1705326740.2679808,-2.0,-2.0,32.0,20.0,-2.0,0.0,4.0,-2.0
1705326740.2679808,7.0,6.0,-12.0,-9.0,6.0,6.0,-2.0,1.0
1705326740.2779806,1.0,-1.0,2.0,-1.0,13.0,5.0,-1.0,0.0
1705326740.2779806,0.0,-9.0,6.0,-13.0,-10.0,-4.0,5.0,-4.0
1705326740.2779806,3.0,2.0,-47.0,3.0,0.0,-3.0,-7.0,-4.0
1705326740.2779806,-7.0,-8.0,-13.0,3.0,-9.0,-3.0,-6.0,2.0
1705326740.2879798,-1.0,3.0,11.0,9.0,3.0,-4.0,-5.0,-1.0
1705326740.2879798,-1.0,-2.0,-1.0,-15.0,-5.0,-3.0,11.0,-5.0
1705326740.2879798,7.0,-8.0,-7.0,-2.0,3.0,4.0,2.0,5.0
1705326740.2879798,1.0,12.0,2.0,0.0,-1.0,3.0,-7.0,-2.0
1705326740.3179808,3.0,32.0,11.0,-2.0,-3.0,-1.0,3.0,-1.0
1705326740.3179808,0.0,-34.0,21.0,10.0,-4.0,-5.0,2.0,-6.0
1705326740.3179808,3.0,31.0,37.0,1.0,-2.0,0.0,-4.0,0.0
1705326740.3179808,3.0,-40.0,-52.0,-13.0,2.0,4.0,1.0,2.0
1705326740.338023,-9.0,25.0,16.0,5.0,-2.0,-2.0,-2.0,-2.0
1705326740.338023,-14.0,-6.0,-19.0,12.0,5.0,-2.0,6.0,1.0
1705326740.338023,-3.0,-3.0,2.0,-20.0,-5.0,-5.0,-10.0,-6.0
1705326740.338023,3.0,10.0,-17.0,2.0,0.0,3.0,0.0,2.0
1705326740.348021,7.0,-10.0,19.0,0.0,-3.0,-6.0,1.0,-7.0
1705326740.348021,-3.0,-7.0,-14.0,0.0,-4.0,0.0,-1.0,-3.0
1705326740.3579812,-4.0,3.0,-48.0,-12.0,0.0,-1.0,4.0,4.0
1705326740.3579812,-2.0,30.0,4.0,11.0,4.0,2.0,0.0,-3.0
1705326740.377979,-3.0,-18.0,-13.0,-12.0,-6.0,-1.0,-1.0,-1.0
1705326740.377979,-9.0,6.0,-11.0,-7.0,-1.0,-1.0,2.0,4.0
1705326740.377979,9.0,-19.0,25.0,1.0,-1.0,2.0,2.0,-7.0
1705326740.377979,-3.0,6.0,-29.0,-9.0,-5.0,-8.0,-5.0,1.0
1705326740.3983583,-2.0,1.0,-8.0,4.0,1.0,3.0,1.0,3.0
1705326740.3983583,3.0,-21.0,-3.0,-5.0,1.0,-2.0,0.0,-5.0
1705326740.3983583,-7.0,-1.0,20.0,5.0,-2.0,-3.0,-1.0,1.0
1705326740.3983583,-5.0,-9.0,6.0,-11.0,-6.0,-7.0,-6.0,-3.0
1705326740.4080186,-2.0,11.0,-40.0,8.0,6.0,2.0,2.0,0.0
1705326740.4080186,7.0,-33.0,14.0,0.0,6.0,5.0,4.0,2.0
1705326740.42798,5.0,35.0,2.0,1.0,-2.0,-3.0,-4.0,-2.0
1705326740.42798,-7.0,-67.0,8.0,0.0,-5.0,-1.0,-2.0,-3.0
1705326740.42798,2.0,25.0,-40.0,-16.0,-8.0,-9.0,1.0,1.0
1705326740.42798,0.0,2.0,23.0,-2.0,-3.0,-4.0,17.0,-2.0
1705326740.4379811,-9.0,-30.0,-5.0,1.0,2.0,1.0,-30.0,0.0
1705326740.4379811,5.0,17.0,15.0,3.0,4.0,9.0,15.0,-4.0
1705326740.4580078,-9.0,-21.0,5.0,-4.0,-5.0,-15.0,7.0,-13.0
1705326740.4679813,15.0,5.0,-7.0,0.0,-1.0,0.0,-34.0,33.0
1705326740.4679813,4.0,12.0,9.0,-2.0,-3.0,4.0,40.0,-23.0
1705326740.4679813,-4.0,9.0,-5.0,3.0,2.0,-1.0,-53.0,1.0
1705326740.4904368,3.0,-22.0,19.0,-1.0,0.0,7.0,11.0,9.0
1705326740.4904368,10.0,25.0,1.0,-1.0,-5.0,-11.0,-9.0,-3.0
1705326740.4904368,-4.0,-46.0,-15.0,-8.0,-3.0,13.0,14.0,5.0
1705326740.4904368,-17.0,4.0,7.0,3.0,0.0,-5.0,-15.0,-21.0
1705326740.4964695,20.0,-16.0,1.0,1.0,-1.0,6.0,-27.0,23.0
1705326740.4964695,-4.0,6.0,13.0,0.0,-4.0,-16.0,28.0,-25.0
1705326740.4974687,-8.0,-15.0,-29.0,-5.0,-5.0,-1.0,-3.0,13.0
1705326740.4974687,2.0,3.0,16.0,5.0,1.0,9.0,21.0,-4.0
1705326740.5107112,-7.0,-2.0,-1.0,1.0,3.0,3.0,-1.0,10.0
1705326740.5107112,-6.0,-9.0,9.0,2.0,4.0,8.0,-4.0,-3.0
1705326740.5107112,1.0,14.0,-2.0,-2.0,-4.0,-8.0,-11.0,-3.0
1705326740.5107112,1.0,3.0,-8.0,-10.0,-9.0,-5.0,17.0,12.0
1705326740.5307524,-5.0,-4.0,7.0,5.0,-3.0,-7.0,-13.0,-13.0
1705326740.5307524,-1.0,12.0,20.0,-1.0,0.0,2.0,-5.0,-5.0
1705326740.5407155,-5.0,-2.0,-22.0,-32.0,-4.0,0.0,6.0,-4.0
1705326740.5407155,7.0,7.0,9.0,18.0,4.0,-5.0,-11.0,1.0
1705326740.5507147,1.0,-1.0,-9.0,8.0,8.0,3.0,7.0,-4.0
1705326740.5507147,-4.0,3.0,35.0,6.0,-7.0,3.0,4.0,-7.0
1705326740.5507147,4.0,8.0,22.0,15.0,-4.0,-2.0,-6.0,9.0
1705326740.5507147,2.0,-7.0,5.0,-9.0,-1.0,-4.0,0.0,0.0
1705326740.5707502,-2.0,-9.0,-10.0,-7.0,-6.0,1.0,2.0,-5.0
1705326740.5707502,-6.0,1.0,-4.0,6.0,-1.0,0.0,1.0,1.0
1705326740.5707502,-1.0,-9.0,-3.0,-15.0,-2.0,-6.0,-9.0,-5.0
1705326740.5707502,3.0,21.0,1.0,8.0,-1.0,-1.0,2.0,2.0
1705326740.590751,-4.0,-1.0,44.0,8.0,1.0,-3.0,4.0,-7.0
1705326740.590751,-4.0,2.0,-48.0,-3.0,2.0,2.0,-6.0,-4.0
1705326740.60076,4.0,4.0,4.0,5.0,0.0,-3.0,-4.0,-2.0
1705326740.60076,-1.0,-6.0,-27.0,-9.0,1.0,3.0,8.0,-1.0
1705326740.610715,3.0,6.0,12.0,-15.0,-4.0,-1.0,-1.0,2.0
1705326740.610715,-3.0,3.0,-11.0,1.0,-5.0,-2.0,-3.0,-2.0
1705326740.610715,0.0,11.0,8.0,9.0,6.0,-1.0,-5.0,-1.0
1705326740.610715,-2.0,-9.0,1.0,5.0,2.0,-2.0,2.0,2.0
1705326740.6307147,0.0,-4.0,-6.0,-4.0,-3.0,0.0,-4.0,-3.0
1705326740.6307147,-1.0,11.0,0.0,-7.0,-3.0,-1.0,0.0,-1.0
1705326740.6307147,-4.0,-9.0,-10.0,-2.0,2.0,0.0,-1.0,-3.0
1705326740.6407163,0.0,0.0,6.0,-3.0,-4.0,-3.0,-4.0,-1.0
1705326740.6507761,-2.0,-5.0,-10.0,-5.0,-3.0,-2.0,-1.0,-2.0
1705326740.6507761,1.0,0.0,0.0,-4.0,0.0,2.0,1.0,-4.0
1705326740.660714,-4.0,4.0,10.0,-2.0,1.0,-2.0,-2.0,0.0
1705326740.660714,-1.0,-2.0,-11.0,2.0,-1.0,0.0,1.0,-1.0
1705326740.6707146,-6.0,-12.0,-45.0,-10.0,-1.0,-1.0,-2.0,-4.0
1705326740.6707146,1.0,5.0,4.0,0.0,-1.0,-2.0,-2.0,-1.0
1705326740.6707146,2.0,-5.0,10.0,5.0,-2.0,-2.0,-2.0,1.0
1705326740.6707146,2.0,0.0,-1.0,-6.0,-1.0,-1.0,1.0,1.0
1705326740.6907153,-2.0,4.0,23.0,10.0,6.0,0.0,0.0,-2.0
1705326740.6907153,-1.0,5.0,-6.0,-6.0,-2.0,0.0,-3.0,-1.0
1705326740.6907153,2.0,6.0,-9.0,1.0,0.0,-1.0,-2.0,5.0
1705326740.6907153,-3.0,-14.0,6.0,1.0,-2.0,-2.0,-1.0,-9.0
1705326740.720755,8.0,12.0,-1.0,1.0,0.0,0.0,0.0,3.0
1705326740.720755,4.0,-17.0,7.0,2.0,1.0,0.0,1.0,2.0
1705326740.720755,-6.0,56.0,6.0,8.0,3.0,1.0,-1.0,-14.0
1705326740.720755,-11.0,-61.0,-13.0,-8.0,-4.0,-1.0,1.0,29.0
1705326740.7307136,-12.0,36.0,-27.0,-10.0,-8.0,-7.0,-3.0,21.0
1705326740.7307136,-16.0,-4.0,-10.0,0.0,0.0,-3.0,-5.0,-38.0
1705326740.7307136,29.0,-47.0,-7.0,1.0,-3.0,0.0,2.0,38.0
1705326740.7307136,-34.0,13.0,-12.0,-1.0,1.0,-2.0,1.0,-33.0
1705326740.7507148,-10.0,-55.0,-3.0,-1.0,-1.0,-2.0,-1.0,25.0
1705326740.7507148,18.0,-10.0,12.0,10.0,3.0,4.0,2.0,6.0
1705326740.760714,-2.0,31.0,-27.0,-1.0,-3.0,-7.0,-3.0,-17.0
1705326740.760714,8.0,-1.0,-22.0,-17.0,-7.0,-1.0,1.0,10.0
1705326740.770714,-4.0,27.0,-2.0,2.0,6.0,5.0,0.0,-6.0
1705326740.770714,-6.0,-29.0,-55.0,-8.0,0.0,-1.0,3.0,9.0
1705326740.7807155,-14.0,-30.0,3.0,-7.0,-3.0,-2.0,-5.0,-18.0
1705326740.7807155,14.0,-18.0,16.0,8.0,-1.0,0.0,-1.0,6.0
1705326740.7907157,-15.0,3.0,54.0,8.0,-6.0,-4.0,-4.0,-19.0
1705326740.7907157,26.0,10.0,-2.0,4.0,2.0,2.0,2.0,22.0
1705326740.7907157,-13.0,49.0,35.0,6.0,0.0,-2.0,-3.0,0.0
1705326740.7907157,6.0,-11.0,-47.0,-11.0,-5.0,-2.0,-2.0,-4.0
1705326740.8107152,-14.0,-9.0,14.0,-3.0,0.0,1.0,4.0,-14.0
1705326740.8107152,-5.0,3.0,11.0,-1.0,-1.0,-3.0,-8.0,15.0
1705326740.8107152,5.0,-4.0,1.0,2.0,1.0,0.0,-5.0,-26.0
1705326740.8107152,14.0,54.0,34.0,5.0,-1.0,-2.0,2.0,-1.0
1705326740.8307517,12.0,-6.0,-5.0,0.0,-1.0,-1.0,-6.0,-9.0
1705326740.8307517,-9.0,-3.0,-11.0,-8.0,-3.0,-1.0,10.0,-6.0
1705326740.8407545,3.0,-32.0,-3.0,-1.0,1.0,-2.0,2.0,9.0
1705326740.8407545,-13.0,55.0,18.0,3.0,6.0,3.0,-3.0,-3.0
1705326740.850747,14.0,-12.0,-8.0,2.0,-1.0,3.0,2.0,-1.0
1705326740.850747,-6.0,9.0,2.0,-9.0,-4.0,-2.0,-5.0,-3.0
1705326740.850747,0.0,13.0,1.0,-5.0,-4.0,-2.0,-1.0,5.0
1705326740.850747,8.0,-22.0,5.0,3.0,1.0,0.0,1.0,-4.0
1705326740.8707547,8.0,37.0,13.0,-5.0,-10.0,-2.0,3.0,3.0
1705326740.8707547,-11.0,1.0,-17.0,9.0,3.0,0.0,-1.0,-10.0
1705326740.8707547,-8.0,-13.0,-45.0,3.0,17.0,6.0,3.0,1.0
1705326740.8707547,-3.0,-5.0,20.0,-6.0,-6.0,-1.0,-5.0,2.0
1705326740.891028,1.0,-7.0,-16.0,-2.0,-1.0,-2.0,-2.0,-3.0
1705326740.891028,3.0,22.0,9.0,-1.0,-9.0,-5.0,-4.0,-4.0
1705326740.9007168,0.0,-18.0,-11.0,-4.0,-8.0,-3.0,1.0,4.0
1705326740.9007168,1.0,-20.0,-30.0,-1.0,6.0,1.0,1.0,-1.0
1705326740.9107509,-1.0,11.0,58.0,18.0,5.0,2.0,2.0,-3.0
1705326740.9107509,-2.0,1.0,-21.0,-11.0,-4.0,-1.0,-2.0,-3.0
1705326740.9107509,-5.0,-8.0,11.0,3.0,-2.0,-1.0,-2.0,0.0
1705326740.9107509,2.0,10.0,3.0,-7.0,-4.0,-2.0,-2.0,-1.0
1705326740.940714,-2.0,-7.0,-15.0,-3.0,-1.0,-4.0,-1.0,-4.0
1705326740.940714,0.0,-2.0,10.0,-2.0,1.0,-3.0,-5.0,-11.0
1705326740.940714,-5.0,4.0,-1.0,-2.0,0.0,3.0,6.0,4.0
1705326740.940714,1.0,-1.0,14.0,5.0,2.0,-1.0,-6.0,-1.0
1705326740.9507174,-6.0,-10.0,-16.0,-6.0,2.0,0.0,0.0,0.0
1705326740.9507174,-6.0,-3.0,4.0,-6.0,-2.0,-3.0,-3.0,0.0
1705326740.9607615,6.0,-3.0,5.0,-5.0,-10.0,-4.0,-9.0,1.0
1705326740.9607615,-3.0,8.0,2.0,4.0,0.0,-1.0,-1.0,-5.0
1705326740.9707532,-4.0,-11.0,2.0,1.0,12.0,6.0,3.0,-2.0
1705326740.9707532,0.0,6.0,-1.0,-2.0,-1.0,-3.0,-1.0,2.0
1705326740.9707532,-3.0,3.0,7.0,4.0,0.0,1.0,1.0,-3.0
1705326740.9707532,-2.0,-5.0,1.0,-5.0,-3.0,-3.0,1.0,1.0
1705326741.000714,0.0,-3.0,-18.0,-1.0,-10.0,-7.0,-5.0,-4.0
1705326741.000714,-1.0,3.0,7.0,-12.0,-1.0,0.0,1.0,0.0
1705326741.000714,-2.0,-9.0,5.0,3.0,5.0,3.0,1.0,-1.0
1705326741.000714,-1.0,1.0,11.0,2.0,-1.0,-4.0,-1.0,-3.0
1705326741.0211449,3.0,-4.0,-14.0,-15.0,0.0,3.0,1.0,1.0
1705326741.0221512,-2.0,-3.0,1.0,11.0,4.0,-1.0,-2.0,1.0
1705326741.0221512,-1.0,-1.0,10.0,2.0,2.0,1.0,-3.0,-2.0
1705326741.0221512,0.0,0.0,5.0,3.0,-4.0,-1.0,-1.0,2.0
1705326741.041048,-4.0,-5.0,1.0,-4.0,-6.0,-5.0,-2.0,-3.0
1705326741.0420482,-2.0,2.0,-1.0,-5.0,-1.0,1.0,-2.0,-1.0
1705326741.0420482,0.0,2.0,0.0,-7.0,-4.0,-4.0,-2.0,-1.0
1705326741.0420482,0.0,-3.0,-4.0,-6.0,-2.0,0.0,-2.0,-2.0
1705326741.053657,2.0,-2.0,-5.0,2.0,-3.0,-4.0,-1.0,0.0
1705326741.053657,-2.0,-4.0,4.0,-6.0,0.0,0.0,-1.0,-2.0
1705326741.053657,-2.0,0.0,-1.0,6.0,3.0,1.0,3.0,1.0
1705326741.053657,-1.0,-4.0,-13.0,-3.0,2.0,0.0,0.0,-2.0
1705326741.0736191,2.0,-2.0,2.0,-1.0,6.0,0.0,0.0,0.0
1705326741.0736191,-2.0,0.0,1.0,1.0,-1.0,2.0,1.0,1.0
1705326741.0736191,0.0,9.0,1.0,-1.0,-3.0,-4.0,-1.0,-3.0
1705326741.0736191,-3.0,-1.0,-4.0,-1.0,-1.0,-1.0,0.0,0.0
1705326741.0936267,0.0,2.0,1.0,-1.0,-2.0,-1.0,-4.0,-4.0
1705326741.0936267,0.0,-4.0,-1.0,-3.0,-4.0,0.0,2.0,1.0
1705326741.0936267,-2.0,-2.0,3.0,8.0,-4.0,-5.0,-18.0,-4.0
1705326741.0936267,-5.0,-3.0,-26.0,-15.0,-4.0,0.0,1.0,-2.0
1705326741.1136208,-1.0,-2.0,7.0,5.0,1.0,-1.0,-1.0,-2.0
1705326741.1136208,-2.0,-4.0,-17.0,-2.0,-2.0,-3.0,-1.0,-2.0
1705326741.1136208,-3.0,-2.0,-28.0,-14.0,-3.0,0.0,-4.0,-1.0
1705326741.1136208,2.0,6.0,23.0,7.0,-4.0,-5.0,7.0,0.0
1705326741.143622,1.0,1.0,-15.0,4.0,5.0,2.0,-2.0,0.0
1705326741.143622,-2.0,1.0,14.0,0.0,0.0,3.0,2.0,-1.0
1705326741.1536183,0.0,-6.0,12.0,1.0,0.0,0.0,-1.0,1.0
1705326741.1536183,-1.0,0.0,8.0,0.0,4.0,3.0,-3.0,-1.0
1705326741.163619,0.0,-1.0,-7.0,-9.0,-6.0,-3.0,3.0,-2.0
1705326741.163619,1.0,1.0,11.0,6.0,-4.0,-6.0,-16.0,-2.0
1705326741.163619,-4.0,-2.0,-7.0,-13.0,-8.0,-4.0,3.0,-1.0
1705326741.163619,1.0,0.0,2.0,11.0,3.0,2.0,0.0,-1.0
1705326741.17362,-1.0,-3.0,2.0,4.0,4.0,0.0,0.0,-1.0
1705326741.17362,-3.0,-3.0,-1.0,1.0,4.0,0.0,1.0,1.0
1705326741.17362,1.0,-3.0,1.0,0.0,-2.0,2.0,1.0,-2.0
1705326741.17362,-1.0,-1.0,-7.0,-7.0,-2.0,0.0,10.0,0.0
1705326741.1936197,-1.0,-3.0,-3.0,-3.0,-4.0,-4.0,-7.0,-2.0
1705326741.1936197,-1.0,-2.0,-8.0,3.0,0.0,-1.0,0.0,0.0
1705326741.1936197,-1.0,0.0,11.0,0.0,1.0,0.0,3.0,-1.0
1705326741.1936197,-1.0,-2.0,4.0,6.0,1.0,-1.0,-3.0,-1.0
1705326741.2136211,0.0,-3.0,-2.0,-3.0,-3.0,-1.0,5.0,-1.0
1705326741.2136211,-2.0,0.0,-1.0,-5.0,-7.0,-3.0,-2.0,-3.0
1705326741.2136211,-1.0,-4.0,-2.0,-1.0,-3.0,-3.0,0.0,-1.0
1705326741.2136211,0.0,0.0,0.0,-4.0,-3.0,-1.0,-1.0,-1.0
1705326741.23366,-3.0,5.0,8.0,-4.0,-3.0,-2.0,-3.0,0.0
1705326741.23366,-1.0,0.0,18.0,24.0,4.0,0.0,4.0,-1.0
1705326741.23366,-4.0,-10.0,-77.0,-38.0,-9.0,-2.0,-1.0,-2.0
1705326741.23366,-4.0,-5.0,16.0,16.0,1.0,-3.0,-6.0,-4.0
1705326741.2636197,2.0,0.0,-4.0,-11.0,3.0,3.0,1.0,1.0
1705326741.2636197,2.0,5.0,19.0,0.0,-2.0,0.0,2.0,1.0
1705326741.2636197,-1.0,-1.0,20.0,2.0,-1.0,-1.0,0.0,-2.0
1705326741.2636197,-3.0,0.0,-14.0,-12.0,-3.0,-3.0,-5.0,-2.0
1705326741.2736204,-1.0,1.0,0.0,11.0,2.0,-2.0,0.0,-2.0
1705326741.2736204,-2.0,-2.0,-10.0,-2.0,-1.0,0.0,0.0,0.0
1705326741.2736204,0.0,2.0,10.0,4.0,-2.0,-3.0,1.0,0.0
1705326741.2736204,-1.0,-4.0,-7.0,-4.0,-1.0,1.0,-4.0,-1.0
1705326741.2936554,-2.0,-5.0,0.0,0.0,-2.0,2.0,-2.0,0.0
1705326741.2936554,-1.0,-4.0,-10.0,-7.0,-2.0,-1.0,1.0,-1.0
1705326741.2936554,-1.0,4.0,2.0,-4.0,-2.0,-2.0,-7.0,-3.0
1705326741.2936554,3.0,0.0,2.0,-2.0,-3.0,0.0,-6.0,-1.0
1705326741.3236198,0.0,3.0,12.0,7.0,3.0,1.0,10.0,-1.0
1705326741.3236198,1.0,0.0,15.0,3.0,3.0,0.0,2.0,2.0
1705326741.3236198,-5.0,-14.0,-60.0,-9.0,-4.0,0.0,3.0,-2.0
1705326741.3236198,0.0,-1.0,15.0,6.0,4.0,3.0,0.0,3.0
1705326741.3336222,1.0,3.0,-22.0,-10.0,-3.0,2.0,-9.0,-1.0
1705326741.3336222,2.0,1.0,43.0,-10.0,-7.0,-11.0,-24.0,-2.0
1705326741.3336222,1.0,14.0,47.0,17.0,3.0,3.0,-4.0,-3.0
1705326741.3336222,0.0,-10.0,-14.0,-6.0,1.0,9.0,-1.0,1.0
1705326741.3536203,1.0,0.0,-13.0,-3.0,-4.0,-3.0,-18.0,-3.0
1705326741.3536203,-10.0,-5.0,-12.0,-6.0,-2.0,-5.0,-18.0,-2.0
1705326741.3536203,8.0,-24.0,-10.0,3.0,1.0,-24.0,-28.0,-3.0
1705326741.3536203,2.0,14.0,11.0,5.0,1.0,5.0,11.0,-19.0
1705326741.383619,16.0,-8.0,-3.0,2.0,-1.0,7.0,-30.0,1.0
1705326741.383619,-14.0,-1.0,-27.0,-11.0,-3.0,10.0,30.0,19.0
1705326741.383619,-20.0,-7.0,14.0,4.0,0.0,-12.0,-24.0,-2.0
1705326741.383619,25.0,2.0,0.0,3.0,2.0,-1.0,1.0,10.0
1705326741.3936198,-8.0,2.0,3.0,0.0,-2.0,-15.0,4.0,-11.0
1705326741.3936198,-3.0,-47.0,-6.0,-1.0,-1.0,8.0,15.0,10.0
1705326741.3936198,-7.0,25.0,-15.0,1.0,3.0,23.0,18.0,3.0
1705326741.3936198,-6.0,-8.0,-11.0,-3.0,-1.0,-14.0,-2.0,3.0
1705326741.413619,-9.0,-18.0,-4.0,-10.0,-7.0,-6.0,-2.0,-6.0
1705326741.413619,-3.0,0.0,1.0,-4.0,0.0,0.0,-9.0,-6.0
1705326741.423619,0.0,6.0,-30.0,-5.0,-5.0,-4.0,5.0,-3.0
1705326741.423619,2.0,13.0,16.0,6.0,1.0,2.0,-6.0,4.0
1705326741.4336197,-2.0,1.0,24.0,-3.0,-3.0,1.0,11.0,4.0
1705326741.4336197,5.0,7.0,-17.0,-7.0,-5.0,-6.0,-5.0,-10.0
1705326741.4336197,12.0,6.0,37.0,9.0,6.0,5.0,7.0,0.0
1705326741.4336197,-9.0,-6.0,-43.0,-12.0,-5.0,-1.0,-1.0,-4.0
1705326741.4536195,-3.0,1.0,41.0,-3.0,-2.0,-3.0,2.0,1.0
1705326741.4536195,3.0,0.0,-45.0,7.0,-2.0,0.0,2.0,-6.0
1705326741.4536195,0.0,6.0,15.0,-26.0,-3.0,2.0,11.0,0.0
1705326741.4536195,-5.0,-2.0,14.0,8.0,-3.0,-2.0,-6.0,0.0
1705326741.473665,-3.0,0.0,0.0,-1.0,-2.0,-1.0,7.0,2.0
1705326741.473665,5.0,13.0,11.0,5.0,1.0,-3.0,0.0,-3.0
1705326741.473665,-4.0,-23.0,-17.0,6.0,3.0,0.0,-1.0,-1.0
1705326741.473665,-7.0,-7.0,6.0,-2.0,1.0,-2.0,-2.0,-2.0
1705326741.4936187,-1.0,5.0,-2.0,1.0,-4.0,0.0,2.0,6.0
1705326741.4936187,19.0,-1.0,1.0,3.0,1.0,1.0,-12.0,-14.0
1705326741.4936187,-3.0,1.0,-27.0,4.0,-2.0,1.0,2.0,3.0
1705326741.4936187,-3.0,-1.0,-4.0,-6.0,-3.0,-4.0,1.0,-8.0
1705326741.513619,8.0,3.0,5.0,2.0,1.0,-2.0,0.0,-1.0
1705326741.513619,-10.0,3.0,-8.0,-3.0,1.0,-1.0,-5.0,-1.0
1705326741.513619,10.0,3.0,23.0,10.0,3.0,1.0,-5.0,-5.0
1705326741.513619,1.0,-9.0,-9.0,-3.0,-2.0,1.0,11.0,-21.0
1705326741.5336642,-11.0,-9.0,-31.0,-9.0,-2.0,-1.0,-12.0,-3.0
1705326741.5336642,-4.0,1.0,0.0,-7.0,-4.0,-5.0,7.0,1.0
1705326741.5336642,2.0,0.0,41.0,9.0,-3.0,-4.0,-7.0,-9.0
1705326741.5336642,-1.0,12.0,-2.0,3.0,3.0,5.0,0.0,9.0
1705326741.5619705,5.0,25.0,-2.0,13.0,5.0,5.0,7.0,3.0
1705326741.5619705,-4.0,-10.0,-6.0,-6.0,-4.0,-2.0,1.0,-2.0
1705326741.5619705,-3.0,8.0,34.0,3.0,-2.0,0.0,4.0,5.0
1705326741.5619705,-2.0,-7.0,-2.0,-5.0,-6.0,-6.0,-3.0,0.0
1705326741.5764382,-5.0,-15.0,-19.0,-10.0,-5.0,-5.0,0.0,-3.0
1705326741.5764382,1.0,24.0,18.0,2.0,2.0,3.0,-5.0,2.0
1705326741.5764382,1.0,5.0,-16.0,1.0,3.0,2.0,6.0,1.0
1705326741.5764382,-2.0,-12.0,22.0,2.0,0.0,-3.0,-8.0,2.0
1705326741.5964394,-1.0,-4.0,4.0,2.0,2.0,-1.0,1.0,-4.0
1705326741.5964394,2.0,0.0,-15.0,-4.0,-3.0,-1.0,9.0,-1.0
1705326741.5964394,-1.0,-4.0,3.0,1.0,-2.0,-2.0,-13.0,-1.0
1705326741.5964394,-1.0,7.0,-11.0,-3.0,0.0,1.0,1.0,-3.0
1705326741.6164744,0.0,-3.0,-5.0,3.0,-1.0,0.0,3.0,4.0
1705326741.6164744,1.0,-5.0,16.0,0.0,-3.0,-1.0,0.0,-3.0
1705326741.6164744,-3.0,4.0,3.0,6.0,4.0,2.0,7.0,1.0
1705326741.6164744,-4.0,4.0,3.0,-14.0,-1.0,1.0,-3.0,6.0
1705326741.6364405,-1.0,-4.0,13.0,15.0,7.0,0.0,1.0,-6.0
1705326741.6364405,-6.0,-10.0,-1.0,-2.0,0.0,-1.0,-5.0,-3.0
1705326741.6364405,0.0,2.0,-4.0,-5.0,-7.0,-6.0,1.0,1.0
1705326741.6364405,-2.0,-10.0,-14.0,-1.0,-2.0,-1.0,-5.0,1.0
1705326741.66644,-2.0,3.0,37.0,-7.0,-8.0,-2.0,0.0,-4.0
1705326741.66644,3.0,-1.0,9.0,6.0,5.0,2.0,-1.0,7.0
1705326741.66644,-6.0,-2.0,-7.0,3.0,1.0,0.0,-10.0,-17.0
1705326741.66644,12.0,15.0,-13.0,-4.0,-1.0,4.0,-3.0,-4.0
1705326741.676442,4.0,-1.0,4.0,0.0,-2.0,-4.0,12.0,31.0
1705326741.676442,-3.0,-3.0,-11.0,0.0,-2.0,-11.0,-3.0,-3.0
1705326741.676442,0.0,-4.0,2.0,-3.0,-3.0,-1.0,3.0,5.0
1705326741.676442,-1.0,1.0,-31.0,-4.0,-1.0,2.0,1.0,-1.0
1705326741.69644,-1.0,-13.0,-21.0,-3.0,0.0,3.0,-3.0,-7.0
1705326741.69644,-3.0,-2.0,7.0,0.0,-3.0,1.0,-1.0,0.0
1705326741.69644,4.0,3.0,9.0,-2.0,-4.0,-3.0,6.0,10.0
1705326741.69644,-2.0,-5.0,3.0,0.0,-3.0,-7.0,-3.0,-4.0
1705326741.7164397,2.0,10.0,-1.0,11.0,13.0,5.0,3.0,0.0
1705326741.7164397,-5.0,4.0,8.0,-3.0,0.0,0.0,-1.0,-4.0
1705326741.7164397,0.0,3.0,-18.0,4.0,4.0,4.0,1.0,-3.0
1705326741.7164397,-5.0,-25.0,-16.0,-8.0,-8.0,-6.0,-4.0,0.0
1705326741.7364905,1.0,11.0,-31.0,-15.0,-12.0,-7.0,-6.0,-8.0
1705326741.7364905,0.0,-6.0,-36.0,7.0,6.0,0.0,-4.0,-4.0
1705326741.7364905,0.0,-3.0,32.0,10.0,3.0,3.0,3.0,1.0
1705326741.7364905,-4.0,6.0,6.0,-14.0,-2.0,-2.0,0.0,1.0
1705326741.766442,-6.0,-18.0,-27.0,-7.0,-1.0,-1.0,-4.0,-5.0
1705326741.766442,-1.0,4.0,8.0,-2.0,-4.0,-3.0,-3.0,-5.0
1705326741.766442,1.0,7.0,-25.0,-5.0,-4.0,-3.0,2.0,6.0
1705326741.766442,-3.0,-24.0,11.0,10.0,-1.0,-2.0,-3.0,-13.0
1705326741.77644,-1.0,10.0,12.0,-2.0,-2.0,0.0,-5.0,-7.0
1705326741.77644,1.0,15.0,15.0,-2.0,2.0,3.0,1.0,2.0
1705326741.77644,-10.0,-46.0,-34.0,-8.0,0.0,-3.0,0.0,0.0
1705326741.77644,1.0,7.0,17.0,5.0,1.0,-1.0,1.0,4.0
1705326741.796483,5.0,31.0,10.0,0.0,0.0,1.0,-1.0,-5.0
1705326741.796483,1.0,-22.0,6.0,3.0,2.0,1.0,1.0,-8.0
1705326741.796483,6.0,5.0,6.0,-3.0,-3.0,0.0,-2.0,34.0
1705326741.796483,-7.0,-3.0,-17.0,7.0,0.0,-2.0,0.0,-1.0
1705326741.8064754,5.0,-29.0,7.0,-11.0,-6.0,-5.0,-1.0,-1.0
1705326741.8064754,-25.0,53.0,8.0,-6.0,-7.0,-4.0,-8.0,-36.0
1705326741.8264408,-4.0,23.0,17.0,-2.0,1.0,1.0,1.0,3.0
1705326741.8264408,-3.0,-51.0,-5.0,4.0,3.0,2.0,0.0,7.0
1705326741.8364787,3.0,13.0,21.0,17.0,6.0,2.0,2.0,4.0
1705326741.8364787,-1.0,-19.0,-40.0,-2.0,2.0,5.0,0.0,3.0
1705326741.8364787,6.0,50.0,33.0,4.0,-2.0,-5.0,-6.0,-25.0
1705326741.8364787,-11.0,86.0,-31.0,-3.0,-5.0,-1.0,0.0,-4.0
1705326741.856758,-30.0,-90.0,-61.0,-27.0,-13.0,-9.0,-11.0,2.0
1705326741.856758,16.0,17.0,16.0,15.0,7.0,4.0,3.0,2.0
1705326741.856758,-7.0,-64.0,59.0,5.0,-2.0,-3.0,1.0,-7.0
1705326741.856758,-14.0,0.0,-47.0,-5.0,-3.0,-2.0,-3.0,5.0
1705326741.8864434,-1.0,36.0,18.0,-10.0,-1.0,1.0,-4.0,-27.0
1705326741.8864434,4.0,-28.0,-6.0,-19.0,-14.0,-10.0,-3.0,-1.0
1705326741.8864434,-11.0,-20.0,-28.0,0.0,-1.0,1.0,0.0,-7.0
1705326741.8864434,10.0,29.0,74.0,-2.0,-1.0,-6.0,-4.0,3.0
1705326741.89644,-17.0,-49.0,-55.0,8.0,12.0,7.0,2.0,-2.0
1705326741.89644,-11.0,75.0,-19.0,-15.0,-6.0,-5.0,2.0,12.0
1705326741.89644,48.0,-3.0,4.0,3.0,-2.0,-1.0,4.0,20.0
1705326741.89644,-21.0,-68.0,-30.0,-6.0,-5.0,-4.0,-8.0,-35.0
1705326741.9164736,3.0,43.0,54.0,7.0,-2.0,-1.0,1.0,26.0
1705326741.9164736,-17.0,-27.0,-13.0,2.0,1.0,-2.0,-1.0,-48.0
1705326741.9164736,-6.0,25.0,15.0,-7.0,-4.0,-2.0,3.0,13.0
1705326741.9164736,-43.0,-55.0,-48.0,-1.0,2.0,1.0,-4.0,-40.0
1705326741.9364393,41.0,43.0,2.0,-2.0,-2.0,-3.0,3.0,0.0
1705326741.9364393,-17.0,4.0,19.0,7.0,4.0,5.0,-2.0,7.0
1705326741.9364393,-61.0,-5.0,-6.0,-8.0,-2.0,-1.0,6.0,-12.0
1705326741.9364393,29.0,17.0,18.0,3.0,2.0,1.0,21.0,58.0
1705326741.956477,-4.0,14.0,16.0,8.0,2.0,0.0,-14.0,-39.0
1705326741.956477,5.0,-16.0,-7.0,-4.0,-5.0,-2.0,-5.0,43.0
1705326741.956477,-17.0,12.0,-46.0,-13.0,-6.0,-3.0,21.0,-45.0
1705326741.956477,7.0,33.0,33.0,3.0,-1.0,-3.0,-33.0,13.0
1705326741.976441,-16.0,-21.0,-30.0,-1.0,-4.0,-3.0,-19.0,-17.0
1705326741.976441,30.0,31.0,56.0,15.0,9.0,8.0,4.0,26.0
1705326741.976441,6.0,-80.0,-66.0,2.0,6.0,7.0,4.0,16.0
1705326741.976441,-13.0,-44.0,-23.0,-27.0,-10.0,-5.0,4.0,-8.0
1705326741.9964395,9.0,-15.0,-14.0,3.0,2.0,1.0,4.0,13.0
1705326741.9964395,2.0,-21.0,-14.0,3.0,-3.0,-2.0,-2.0,-11.0
1705326741.9964395,7.0,26.0,-9.0,12.0,4.0,-1.0,-8.0,-2.0
1705326741.9964395,11.0,5.0,11.0,-21.0,-2.0,0.0,1.0,-7.0
1705326742.0164747,-5.0,12.0,80.0,15.0,-7.0,-4.0,-4.0,-2.0
1705326742.0164747,-8.0,-27.0,-93.0,-26.0,-7.0,-9.0,-5.0,-2.0
1705326742.0164747,3.0,1.0,-79.0,-4.0,5.0,1.0,-2.0,1.0
1705326742.0164747,14.0,25.0,42.0,12.0,3.0,1.0,-1.0,5.0
1705326742.0364883,-5.0,0.0,-6.0,-4.0,-2.0,0.0,7.0,9.0
1705326742.0364883,2.0,6.0,61.0,10.0,-2.0,-2.0,3.0,2.0
1705326742.0364883,13.0,18.0,15.0,0.0,-4.0,-6.0,-10.0,-2.0
1705326742.0364883,-6.0,8.0,-1.0,14.0,5.0,3.0,0.0,-7.0
1705326742.0564423,-6.0,-24.0,-70.0,-32.0,-5.0,-1.0,6.0,2.0
1705326742.0564423,1.0,-5.0,69.0,14.0,-3.0,-1.0,-4.0,-5.0
1705326742.0564423,0.0,4.0,-27.0,-22.0,-3.0,-5.0,-11.0,-7.0
1705326742.0564423,7.0,19.0,38.0,16.0,-1.0,0.0,5.0,5.0
1705326742.079013,-2.0,8.0,8.0,-4.0,2.0,1.0,5.0,5.0
1705326742.079013,2.0,-8.0,-48.0,4.0,5.0,3.0,-1.0,-1.0
1705326742.0820124,1.0,7.0,16.0,-14.0,-8.0,-4.0,-8.0,0.0
1705326742.0820124,4.0,9.0,-10.0,9.0,3.0,0.0,12.0,1.0
1705326742.1084604,-2.0,0.0,-5.0,3.0,-1.0,-2.0,-42.0,-2.0
1705326742.1084604,2.0,-12.0,-16.0,-8.0,1.0,2.0,14.0,-1.0
1705326742.109244,3.0,10.0,52.0,10.0,-3.0,-2.0,-5.0,-2.0
1705326742.109244,0.0,-2.0,-15.0,-5.0,-1.0,-3.0,2.0,-4.0
1705326742.1192515,-2.0,-2.0,-2.0,10.0,2.0,1.0,9.0,0.0
1705326742.1192515,2.0,-1.0,2.0,1.0,1.0,1.0,-2.0,1.0
1705326742.1192515,-3.0,-1.0,1.0,-4.0,-4.0,-4.0,-7.0,-3.0
1705326742.1192515,-2.0,-1.0,7.0,0.0,-4.0,-1.0,-3.0,0.0
1705326742.139248,5.0,3.0,6.0,3.0,2.0,-3.0,8.0,0.0
1705326742.139248,-5.0,-8.0,-6.0,-20.0,-10.0,-5.0,-7.0,-2.0
1705326742.139248,-3.0,0.0,5.0,6.0,2.0,2.0,4.0,-4.0
1705326742.139248,5.0,2.0,-19.0,-9.0,-4.0,-1.0,-8.0,0.0
1705326742.169248,-8.0,-2.0,34.0,10.0,4.0,1.0,5.0,3.0
1705326742.169248,0.0,-5.0,-18.0,-1.0,0.0,-4.0,-6.0,-2.0
1705326742.169248,-1.0,1.0,-1.0,2.0,1.0,0.0,1.0,-2.0
1705326742.169248,-1.0,1.0,-9.0,4.0,6.0,6.0,16.0,2.0
1705326742.1792865,0.0,3.0,0.0,-4.0,-4.0,2.0,6.0,0.0
1705326742.1792865,-1.0,-7.0,18.0,4.0,0.0,-8.0,-1.0,2.0
1705326742.1792865,1.0,-1.0,8.0,-4.0,0.0,-3.0,-7.0,-5.0
1705326742.1792865,4.0,22.0,28.0,7.0,-2.0,0.0,1.0,5.0
1705326742.199276,1.0,0.0,-18.0,-7.0,-4.0,-1.0,15.0,-6.0
1705326742.199276,-4.0,-3.0,0.0,1.0,2.0,4.0,-9.0,-6.0
1705326742.199276,6.0,0.0,2.0,-2.0,-1.0,0.0,2.0,12.0
1705326742.199276,3.0,-18.0,-6.0,3.0,1.0,-2.0,-6.0,-4.0
1705326742.2192476,1.0,3.0,-4.0,1.0,0.0,-3.0,-3.0,-2.0
1705326742.2192476,-4.0,-2.0,1.0,-6.0,-4.0,-3.0,-2.0,-6.0
1705326742.2192476,0.0,4.0,18.0,6.0,0.0,-1.0,-3.0,12.0
1705326742.2192476,-1.0,5.0,5.0,-8.0,-2.0,-2.0,-4.0,9.0
1705326742.2392492,-10.0,-13.0,-12.0,5.0,3.0,0.0,-1.0,-19.0
1705326742.2392492,-3.0,-18.0,-16.0,-2.0,-2.0,3.0,1.0,3.0
1705326742.2392492,2.0,0.0,-4.0,2.0,-3.0,-2.0,2.0,-9.0
1705326742.2392492,7.0,28.0,6.0,-3.0,-1.0,-4.0,-18.0,-1.0
1705326742.2592502,7.0,-10.0,-16.0,2.0,0.0,-3.0,2.0,11.0
1705326742.2592502,12.0,7.0,11.0,2.0,-2.0,1.0,-7.0,0.0
1705326742.2592502,-1.0,-4.0,-4.0,-5.0,-2.0,-1.0,18.0,-12.0
1705326742.2592502,-17.0,-7.0,0.0,2.0,-1.0,2.0,-29.0,2.0
1705326742.2792547,-6.0,-11.0,2.0,-4.0,-5.0,-11.0,5.0,-5.0
1705326742.2792547,6.0,0.0,-30.0,-4.0,4.0,3.0,14.0,3.0
1705326742.2792547,12.0,15.0,28.0,6.0,0.0,1.0,-9.0,-2.0
1705326742.2792547,-5.0,-26.0,-8.0,-6.0,-7.0,-7.0,-5.0,-12.0
1705326742.2992938,0.0,27.0,-2.0,-1.0,0.0,5.0,3.0,17.0
1705326742.2992938,7.0,-5.0,-39.0,-2.0,5.0,-1.0,1.0,4.0
1705326742.2992938,-2.0,-1.0,22.0,1.0,0.0,-1.0,-1.0,6.0
1705326742.2992938,4.0,8.0,17.0,-5.0,-2.0,-1.0,10.0,-6.0
1705326742.3192532,-14.0,-7.0,-3.0,4.0,-4.0,-6.0,-16.0,-9.0
1705326742.3192532,0.0,3.0,23.0,4.0,0.0,0.0,3.0,3.0
1705326742.3192532,-3.0,-1.0,-57.0,-31.0,6.0,7.0,1.0,6.0
1705326742.3192532,2.0,-2.0,4.0,-2.0,-2.0,-1.0,0.0,-4.0
1705326742.339289,-1.0,-3.0,-44.0,-11.0,2.0,-3.0,1.0,1.0
1705326742.339289,0.0,8.0,61.0,43.0,2.0,0.0,-3.0,1.0
1705326742.339289,-6.0,-2.0,-10.0,9.0,1.0,0.0,-4.0,-4.0
1705326742.339289,0.0,1.0,35.0,-13.0,-3.0,-1.0,4.0,-2.0
1705326742.3592832,3.0,-7.0,-2.0,-6.0,-11.0,-5.0,-4.0,-3.0
1705326742.3592832,-2.0,11.0,-23.0,-10.0,0.0,1.0,2.0,-3.0
1705326742.3592832,-2.0,-12.0,3.0,5.0,-1.0,-3.0,-7.0,-3.0
1705326742.3592832,3.0,10.0,-8.0,6.0,1.0,0.0,9.0,9.0
1705326742.3792489,-2.0,14.0,27.0,8.0,3.0,5.0,-1.0,-11.0
1705326742.3792489,-7.0,-12.0,-7.0,-10.0,-6.0,-3.0,-4.0,-8.0
1705326742.3792489,-6.0,-2.0,14.0,-5.0,-4.0,-3.0,-1.0,-3.0
1705326742.3792489,8.0,14.0,-10.0,12.0,5.0,3.0,5.0,-1.0
1705326742.399251,-15.0,-38.0,-23.0,-14.0,-10.0,-6.0,-4.0,19.0
1705326742.399251,0.0,12.0,23.0,-8.0,-3.0,-2.0,0.0,16.0
1705326742.399251,0.0,-1.0,10.0,4.0,-3.0,-2.0,-13.0,10.0
1705326742.399251,-6.0,-8.0,-13.0,2.0,1.0,-1.0,1.0,-17.0
1705326742.419295,6.0,17.0,50.0,2.0,1.0,2.0,-2.0,-20.0
1705326742.419295,-7.0,-5.0,-20.0,-4.0,-4.0,-3.0,6.0,-18.0
1705326742.419295,-9.0,-5.0,-13.0,-3.0,-1.0,-3.0,-12.0,4.0
1705326742.419295,9.0,19.0,-10.0,1.0,2.0,-1.0,13.0,9.0
1705326742.4392471,2.0,-5.0,53.0,-1.0,-1.0,1.0,-2.0,-4.0
1705326742.4392471,0.0,5.0,8.0,0.0,-3.0,-3.0,6.0,-3.0
1705326742.4392471,-13.0,-4.0,-32.0,-9.0,-9.0,-5.0,-4.0,-12.0
1705326742.4392471,-5.0,-16.0,14.0,4.0,5.0,2.0,-6.0,-12.0
1705326742.459248,-5.0,16.0,-12.0,4.0,5.0,1.0,5.0,4.0
1705326742.459248,6.0,-1.0,11.0,1.0,1.0,2.0,-11.0,-1.0
1705326742.459248,13.0,1.0,-13.0,2.0,-1.0,2.0,5.0,7.0
1705326742.459248,-16.0,-21.0,-5.0,-18.0,-13.0,-18.0,-18.0,-7.0
1705326742.4792814,14.0,16.0,-9.0,4.0,-1.0,1.0,12.0,8.0
1705326742.4792814,-17.0,-26.0,-11.0,2.0,9.0,6.0,0.0,12.0
1705326742.4892473,39.0,50.0,13.0,4.0,0.0,0.0,-7.0,-24.0
1705326742.4892473,-8.0,-32.0,-14.0,1.0,-1.0,2.0,7.0,23.0
1705326742.499253,-3.0,20.0,7.0,-4.0,-4.0,2.0,10.0,-16.0
1705326742.499253,-1.0,6.0,-20.0,-5.0,-5.0,-8.0,-8.0,4.0
1705326742.499253,5.0,-14.0,-14.0,-1.0,1.0,-1.0,5.0,0.0
1705326742.499253,7.0,1.0,0.0,2.0,6.0,7.0,6.0,1.0
1705326742.5192575,1.0,-1.0,-11.0,-1.0,1.0,-4.0,-4.0,12.0
1705326742.5192575,9.0,7.0,-5.0,-8.0,-8.0,-6.0,-14.0,-7.0
1705326742.5192575,-28.0,1.0,35.0,-6.0,-5.0,-3.0,5.0,-1.0
1705326742.5192575,-6.0,0.0,-33.0,2.0,-3.0,-4.0,-8.0,-14.0
1705326742.539285,3.0,-18.0,25.0,-4.0,0.0,3.0,-4.0,7.0
1705326742.539285,0.0,19.0,4.0,30.0,5.0,0.0,6.0,-8.0
1705326742.539285,-7.0,-44.0,-57.0,-33.0,4.0,2.0,7.0,6.0
1705326742.539285,3.0,17.0,48.0,-18.0,-11.0,-4.0,-6.0,-3.0
1705326742.5592515,-8.0,-9.0,-25.0,-5.0,-5.0,-6.0,-11.0,-8.0
1705326742.5592515,3.0,-9.0,9.0,18.0,4.0,6.0,4.0,1.0
1705326742.5592515,-1.0,12.0,27.0,18.0,5.0,0.0,0.0,-6.0
1705326742.5592515,-4.0,-5.0,-5.0,17.0,9.0,7.0,3.0,-1.0
1705326742.5795288,3.0,-3.0,0.0,-11.0,-6.0,-2.0,-4.0,-1.0
1705326742.5795288,-8.0,5.0,-11.0,-17.0,-8.0,-7.0,-4.0,-9.0
1705326742.5795288,-10.0,-11.0,-7.0,3.0,-6.0,-6.0,-2.0,-5.0
1705326742.5795288,1.0,2.0,-13.0,-10.0,-4.0,-3.0,1.0,-3.0
1705326742.6038668,4.0,0.0,-4.0,5.0,4.0,1.0,0.0,7.0
1705326742.6038668,-3.0,-9.0,0.0,-6.0,0.0,-2.0,-1.0,-5.0
1705326742.605876,-6.0,-1.0,16.0,27.0,4.0,1.0,0.0,1.0
1705326742.6068754,-2.0,-6.0,-13.0,-9.0,-1.0,-1.0,0.0,2.0
1705326742.6217144,1.0,1.0,-8.0,-3.0,-5.0,-2.0,-4.0,-5.0
1705326742.6217144,-5.0,-7.0,4.0,-11.0,-5.0,-1.0,-1.0,-2.0
1705326742.6217144,2.0,7.0,-2.0,-3.0,2.0,-1.0,1.0,1.0
1705326742.6217144,-5.0,-12.0,10.0,8.0,2.0,1.0,-1.0,-3.0
1705326742.6353035,4.0,21.0,21.0,8.0,5.0,3.0,0.0,2.0
1705326742.6353035,-2.0,5.0,-17.0,-2.0,0.0,0.0,-1.0,-3.0
1705326742.6353035,-8.0,-33.0,6.0,-8.0,-8.0,-5.0,-4.0,-4.0
1705326742.6353035,14.0,14.0,-8.0,-1.0,-1.0,2.0,2.0,9.0
1705326742.6553376,-22.0,-21.0,1.0,-6.0,-5.0,-6.0,-9.0,-18.0
1705326742.6553376,2.0,1.0,6.0,-7.0,-4.0,-3.0,1.0,1.0
1705326742.6553376,0.0,4.0,4.0,1.0,-1.0,-1.0,0.0,2.0
1705326742.6553376,0.0,-3.0,-9.0,-3.0,1.0,2.0,-1.0,0.0
1705326742.675304,4.0,-2.0,-10.0,-7.0,-2.0,-1.0,2.0,3.0
1705326742.675304,0.0,3.0,-3.0,-11.0,-6.0,-2.0,-4.0,-3.0
1705326742.6853046,-6.0,1.0,-3.0,11.0,2.0,1.0,-5.0,-4.0
1705326742.6853046,-4.0,-3.0,-1.0,-3.0,0.0,-2.0,0.0,-2.0
1705326742.6953037,1.0,2.0,-4.0,19.0,0.0,1.0,0.0,3.0
1705326742.6953037,-2.0,-9.0,-5.0,-15.0,-6.0,-4.0,-3.0,1.0
1705326742.6953037,0.0,-1.0,-1.0,-20.0,0.0,3.0,0.0,1.0
1705326742.6953037,-3.0,0.0,-1.0,-6.0,-8.0,-4.0,-4.0,-1.0
1705326742.715306,3.0,-4.0,-7.0,14.0,8.0,2.0,-1.0,1.0
1705326742.715306,-2.0,1.0,-11.0,-3.0,0.0,1.0,-2.0,-1.0
1705326742.715306,0.0,4.0,4.0,5.0,0.0,-1.0,3.0,-1.0
1705326742.715306,-1.0,0.0,4.0,-2.0,1.0,-1.0,-1.0,-1.0
1705326742.7353463,0.0,-7.0,5.0,-3.0,-5.0,-4.0,-1.0,1.0
1705326742.7353463,-1.0,-1.0,3.0,-3.0,0.0,0.0,1.0,0.0
1705326742.745351,-2.0,2.0,2.0,2.0,0.0,0.0,0.0,-1.0
1705326742.745351,-2.0,-4.0,-4.0,4.0,1.0,-1.0,-3.0,-1.0
1705326742.7553043,1.0,-1.0,-3.0,-8.0,-2.0,-2.0,0.0,0.0
1705326742.7553043,-1.0,-4.0,-1.0,-5.0,-4.0,-2.0,-2.0,0.0
1705326742.7553043,-1.0,3.0,-2.0,1.0,1.0,0.0,1.0,-2.0
1705326742.7553043,0.0,-1.0,1.0,7.0,-5.0,-3.0,-2.0,-3.0
1705326742.775307,-2.0,-6.0,-21.0,-3.0,3.0,-1.0,-2.0,-2.0
1705326742.775307,-1.0,4.0,7.0,-1.0,4.0,3.0,-1.0,0.0
1705326742.775307,-4.0,-3.0,-12.0,-15.0,-6.0,-3.0,-3.0,-2.0
1705326742.775307,-4.0,-8.0,-16.0,9.0,-2.0,-2.0,2.0,-3.0
1705326742.795339,-1.0,2.0,-4.0,-9.0,-4.0,-2.0,-1.0,0.0
1705326742.795339,-1.0,1.0,2.0,0.0,3.0,0.0,0.0,1.0
1705326742.8053427,-2.0,-7.0,19.0,4.0,2.0,1.0,-1.0,2.0
1705326742.8053427,-3.0,-3.0,-17.0,-2.0,-1.0,0.0,-3.0,-2.0
1705326742.815653,-1.0,-11.0,5.0,-1.0,-5.0,-1.0,0.0,0.0
1705326742.815653,-1.0,-1.0,-6.0,1.0,-3.0,-3.0,0.0,-1.0
1705326742.815653,-1.0,5.0,-4.0,-5.0,-5.0,-4.0,-2.0,-2.0
1705326742.815653,1.0,9.0,10.0,-2.0,0.0,-1.0,-2.0,-2.0
1705326742.8453038,2.0,-17.0,-14.0,4.0,2.0,0.0,2.0,3.0
1705326742.8453038,-1.0,18.0,9.0,1.0,-1.0,-1.0,1.0,-9.0
1705326742.8453038,3.0,7.0,10.0,9.0,5.0,4.0,4.0,10.0
1705326742.8453038,-8.0,9.0,15.0,-2.0,-1.0,-4.0,-8.0,-21.0
1705326742.8553023,-9.0,-9.0,-19.0,-11.0,-2.0,-3.0,-3.0,-3.0
1705326742.8553023,15.0,0.0,0.0,-3.0,-3.0,-4.0,-2.0,10.0
1705326742.8653042,-10.0,-20.0,-7.0,5.0,0.0,2.0,-1.0,-1.0
1705326742.8653042,-3.0,18.0,48.0,2.0,-6.0,-3.0,-2.0,2.0
1705326742.8853056,3.0,6.0,-18.0,-6.0,0.0,1.0,-1.0,-2.0
1705326742.8853056,-8.0,-11.0,13.0,2.0,2.0,0.0,-1.0,-5.0
1705326742.8953059,-1.0,-1.0,-17.0,-3.0,-3.0,-3.0,-4.0,-6.0
1705326742.8953059,3.0,-8.0,-17.0,-1.0,1.0,0.0,3.0,3.0
1705326742.905303,-2.0,-2.0,3.0,-11.0,-4.0,-2.0,-2.0,-4.0
1705326742.905303,-2.0,-3.0,-11.0,-2.0,-4.0,-2.0,-1.0,0.0
1705326742.905303,4.0,9.0,11.0,14.0,5.0,1.0,-1.0,-4.0
1705326742.905303,-3.0,-13.0,-13.0,-9.0,3.0,3.0,-1.0,2.0
1705326742.915305,0.0,1.0,-2.0,-1.0,-1.0,-3.0,-3.0,1.0
1705326742.915305,1.0,0.0,-3.0,6.0,7.0,4.0,1.0,1.0
1705326742.9253042,1.0,3.0,2.0,-6.0,-3.0,-1.0,-1.0,-2.0
1705326742.9253042,-1.0,-6.0,5.0,1.0,-6.0,-2.0,-1.0,1.0
1705326742.9353042,-1.0,7.0,11.0,-6.0,-6.0,-3.0,-2.0,-2.0
1705326742.9353042,-2.0,-7.0,-9.0,0.0,-4.0,-1.0,-2.0,-2.0
1705326742.9353042,0.0,-1.0,18.0,-4.0,-2.0,-1.0,0.0,-1.0
1705326742.9353042,-1.0,-5.0,-15.0,-1.0,1.0,-1.0,1.0,1.0
1705326742.9553041,4.0,6.0,7.0,4.0,1.0,2.0,0.0,1.0
1705326742.9553041,-6.0,-5.0,12.0,0.0,-2.0,0.0,-2.0,-2.0
1705326742.9553041,0.0,3.0,-6.0,-5.0,-3.0,-1.0,-2.0,0.0
1705326742.9553041,3.0,1.0,-5.0,4.0,3.0,2.0,0.0,1.0
1705326742.9753041,-3.0,4.0,6.0,6.0,2.0,2.0,0.0,0.0
1705326742.9753041,0.0,-4.0,-5.0,2.0,1.0,-1.0,-1.0,0.0
1705326742.9853117,-4.0,-11.0,-31.0,-20.0,-10.0,-5.0,-4.0,-4.0
1705326742.9853117,1.0,-1.0,-5.0,-7.0,-5.0,-3.0,-1.0,-1.0
1705326743.005308,2.0,2.0,1.0,10.0,4.0,2.0,2.0,0.0
1705326743.005308,-3.0,-3.0,0.0,7.0,4.0,2.0,-9.0,1.0
1705326743.005308,-4.0,-2.0,2.0,4.0,4.0,0.0,0.0,0.0
1705326743.005308,-2.0,0.0,6.0,-10.0,-6.0,-4.0,-2.0,-1.0
1705326743.0153425,-3.0,-5.0,-34.0,-5.0,-1.0,-1.0,-2.0,-2.0
1705326743.0153425,1.0,5.0,8.0,-7.0,-3.0,-3.0,3.0,-2.0
1705326743.0253034,2.0,1.0,-4.0,-6.0,-1.0,1.0,0.0,-1.0
1705326743.0253034,0.0,-3.0,1.0,3.0,1.0,1.0,-3.0,1.0
1705326743.0453417,-1.0,2.0,8.0,-1.0,-3.0,-2.0,0.0,-1.0
1705326743.0453417,-3.0,-2.0,2.0,0.0,1.0,0.0,1.0,-1.0
1705326743.0453417,0.0,2.0,-13.0,2.0,0.0,-1.0,-1.0,-1.0
1705326743.0453417,-3.0,-5.0,-17.0,7.0,5.0,2.0,1.0,0.0
1705326743.0653021,-1.0,2.0,33.0,-3.0,-3.0,-2.0,0.0,-3.0
1705326743.0653021,-3.0,-11.0,-13.0,-4.0,-3.0,0.0,2.0,-1.0
1705326743.0653021,0.0,3.0,-15.0,0.0,-3.0,-2.0,-4.0,-2.0
1705326743.0653021,-1.0,0.0,-1.0,0.0,2.0,-1.0,1.0,1.0
1705326743.0753424,-3.0,-5.0,-26.0,-5.0,0.0,-2.0,-10.0,-2.0
1705326743.0853057,1.0,3.0,43.0,5.0,3.0,3.0,7.0,0.0
1705326743.0853057,1.0,-1.0,16.0,8.0,0.0,0.0,-6.0,0.0
1705326743.0853057,0.0,-3.0,-44.0,-16.0,-3.0,0.0,12.0,5.0
1705326743.1053028,-1.0,3.0,2.0,-1.0,-5.0,-4.0,-2.0,1.0
1705326743.1053028,3.0,-4.0,-14.0,-5.0,-4.0,1.0,37.0,-10.0
1705326743.1053028,-8.0,-3.0,14.0,0.0,1.0,-5.0,-29.0,1.0
1705326743.1053028,3.0,3.0,8.0,8.0,4.0,-1.0,-8.0,-6.0
1705326743.115305,-2.0,0.0,4.0,0.0,2.0,3.0,-20.0,-2.0
1705326743.115305,-2.0,-2.0,-18.0,-8.0,-7.0,-14.0,23.0,12.0
1705326743.115305,-14.0,-3.0,2.0,0.0,-2.0,4.0,5.0,-13.0
1705326743.115305,-6.0,1.0,13.0,1.0,-2.0,-5.0,16.0,11.0
1705326743.1446943,-2.0,-9.0,-12.0,-4.0,-2.0,-6.0,-60.0,-9.0
1705326743.1446943,1.0,14.0,16.0,5.0,-1.0,-8.0,-2.0,-3.0
1705326743.1456947,3.0,-2.0,-5.0,-4.0,-2.0,2.0,17.0,-1.0
1705326743.1456947,0.0,-19.0,-22.0,-2.0,1.0,1.0,-12.0,4.0
1705326743.1682892,-7.0,-1.0,43.0,-1.0,-4.0,3.0,31.0,-8.0
1705326743.1682892,2.0,-13.0,-11.0,-1.0,-1.0,3.0,-13.0,5.0
1705326743.1682892,5.0,3.0,9.0,1.0,0.0,-5.0,-4.0,5.0
1705326743.1682892,-4.0,-5.0,-7.0,-7.0,-3.0,2.0,5.0,-3.0
1705326743.1782882,6.0,4.0,-14.0,4.0,3.0,2.0,7.0,2.0
1705326743.1782882,-5.0,1.0,53.0,-4.0,-6.0,-4.0,-22.0,-10.0
1705326743.1782882,0.0,-10.0,-33.0,-6.0,-3.0,-4.0,9.0,1.0
1705326743.1782882,1.0,6.0,-3.0,5.0,2.0,1.0,-11.0,-4.0
1705326743.198289,1.0,-3.0,-18.0,11.0,4.0,1.0,10.0,-3.0
1705326743.198289,-1.0,6.0,-9.0,8.0,6.0,4.0,-6.0,2.0
1705326743.198289,-1.0,-3.0,9.0,-5.0,-4.0,-4.0,2.0,1.0
1705326743.198289,-1.0,3.0,1.0,-10.0,2.0,0.0,0.0,-2.0
1705326743.2282884,-3.0,0.0,13.0,-8.0,-8.0,-7.0,3.0,0.0
1705326743.2282884,-1.0,-2.0,-15.0,-2.0,-1.0,2.0,-7.0,-1.0
1705326743.2282884,3.0,1.0,-4.0,4.0,-5.0,0.0,-3.0,-1.0
1705326743.2282884,0.0,4.0,-1.0,0.0,0.0,0.0,-2.0,-5.0
1705326743.2383235,-2.0,0.0,2.0,-6.0,-1.0,-1.0,9.0,3.0
1705326743.2383235,-3.0,-6.0,-11.0,1.0,-1.0,0.0,-12.0,-1.0
1705326743.2383235,0.0,3.0,2.0,-1.0,-1.0,0.0,2.0,-2.0
1705326743.2383235,-1.0,-2.0,12.0,-1.0,-3.0,-2.0,0.0,0.0
1705326743.2583237,0.0,2.0,-4.0,-2.0,-4.0,-4.0,3.0,2.0
1705326743.2583237,-2.0,-3.0,-18.0,-7.0,-1.0,0.0,-6.0,-2.0
1705326743.2583237,-2.0,1.0,-4.0,-4.0,-1.0,-1.0,1.0,1.0
1705326743.2583237,0.0,-2.0,5.0,2.0,-4.0,0.0,0.0,-4.0
1705326743.288289,1.0,1.0,4.0,-1.0,-1.0,-1.0,5.0,1.0
1705326743.288289,0.0,-2.0,-9.0,-2.0,-1.0,1.0,0.0,-2.0
1705326743.288289,-3.0,-1.0,6.0,4.0,3.0,0.0,-5.0,3.0
1705326743.288289,1.0,2.0,-4.0,1.0,0.0,2.0,16.0,1.0
1705326743.2983253,-1.0,1.0,0.0,-2.0,1.0,-1.0,-1.0,8.0
1705326743.2983253,0.0,-3.0,-9.0,-8.0,-3.0,-2.0,-13.0,-18.0
1705326743.2983253,0.0,4.0,-1.0,2.0,-1.0,-1.0,5.0,3.0
1705326743.2983253,-1.0,0.0,25.0,1.0,-2.0,-3.0,-3.0,-1.0
1705326743.3182924,-5.0,-4.0,-7.0,-4.0,-2.0,-1.0,2.0,-2.0
1705326743.3182924,-2.0,-2.0,-16.0,-3.0,2.0,-1.0,-5.0,4.0
1705326743.3182924,3.0,-5.0,0.0,-5.0,-1.0,1.0,-4.0,-1.0
1705326743.3182924,0.0,3.0,6.0,8.0,3.0,1.0,-3.0,-3.0
1705326743.338287,2.0,2.0,-1.0,-1.0,-1.0,1.0,3.0,0.0
1705326743.338287,-2.0,-4.0,5.0,5.0,0.0,-4.0,-5.0,1.0
1705326743.3482893,-1.0,-5.0,-18.0,-8.0,-8.0,-6.0,-4.0,-5.0
1705326743.3482893,-2.0,-4.0,11.0,-7.0,-6.0,-4.0,-3.0,0.0
1705326743.3582904,0.0,1.0,0.0,5.0,5.0,3.0,1.0,0.0
1705326743.3582904,0.0,4.0,0.0,3.0,2.0,1.0,5.0,0.0
1705326743.3582904,1.0,1.0,3.0,2.0,0.0,-1.0,0.0,-3.0
1705326743.3582904,-3.0,-3.0,-1.0,-6.0,-2.0,-2.0,0.0,-3.0
1705326743.3782911,-3.0,-3.0,1.0,0.0,-3.0,-5.0,-38.0,-6.0
1705326743.3782911,-1.0,-4.0,-35.0,-10.0,-7.0,1.0,2.0,1.0
1705326743.3782911,0.0,10.0,8.0,2.0,5.0,7.0,6.0,1.0
1705326743.3782911,-1.0,-7.0,-12.0,-4.0,-3.0,-13.0,-6.0,-5.0
1705326743.398288,-2.0,-1.0,3.0,0.0,0.0,1.0,21.0,0.0
1705326743.398288,-2.0,1.0,-1.0,1.0,-5.0,-4.0,-8.0,1.0
1705326743.4082885,-3.0,-7.0,4.0,-4.0,-2.0,2.0,-7.0,1.0
1705326743.4082885,1.0,2.0,-10.0,0.0,-1.0,3.0,6.0,5.0
1705326743.4182897,3.0,-3.0,-9.0,2.0,1.0,-3.0,2.0,2.0
1705326743.4182897,3.0,1.0,6.0,-3.0,0.0,-10.0,-25.0,-2.0
1705326743.4182897,-2.0,1.0,6.0,3.0,2.0,4.0,18.0,2.0
1705326743.4182897,0.0,3.0,-19.0,-1.0,-1.0,-1.0,-12.0,2.0
1705326743.4382899,-4.0,-4.0,-21.0,-7.0,-4.0,0.0,-4.0,-3.0
1705326743.4382899,-3.0,-6.0,-4.0,-4.0,0.0,1.0,10.0,0.0
1705326743.4382899,0.0,-3.0,-1.0,-4.0,-2.0,-3.0,1.0,0.0
1705326743.4382899,0.0,4.0,20.0,10.0,1.0,1.0,0.0,-4.0
1705326743.45829,2.0,2.0,7.0,2.0,2.0,2.0,8.0,0.0
1705326743.45829,0.0,-1.0,4.0,2.0,-1.0,3.0,3.0,0.0
1705326743.4682903,-1.0,-2.0,-42.0,-3.0,-3.0,-6.0,-18.0,-6.0
1705326743.4682903,-3.0,-1.0,9.0,-4.0,-2.0,0.0,17.0,3.0
1705326743.4783237,-8.0,-8.0,1.0,-3.0,-3.0,5.0,10.0,-9.0
1705326743.4783237,-2.0,2.0,9.0,7.0,5.0,-1.0,-6.0,0.0
1705326743.4783237,1.0,2.0,24.0,-7.0,-2.0,-5.0,22.0,2.0
1705326743.4783237,-3.0,-1.0,-16.0,-3.0,-1.0,1.0,-21.0,2.0
1705326743.498288,8.0,-6.0,-4.0,-1.0,-2.0,4.0,36.0,1.0
1705326743.498288,1.0,1.0,8.0,2.0,-1.0,-7.0,12.0,-3.0
1705326743.498288,-3.0,-3.0,7.0,3.0,-2.0,6.0,10.0,20.0
1705326743.498288,-2.0,-3.0,0.0,-1.0,-3.0,-5.0,-17.0,-19.0
1705326743.5182889,-2.0,3.0,21.0,2.0,0.0,-14.0,-57.0,-6.0
1705326743.5182889,0.0,-9.0,-34.0,-7.0,-2.0,6.0,29.0,8.0
1705326743.5282917,-3.0,6.0,16.0,1.0,-3.0,-9.0,-40.0,-21.0
1705326743.5282917,-3.0,-5.0,-7.0,-3.0,1.0,5.0,18.0,4.0
1705326743.5385926,-2.0,4.0,16.0,7.0,3.0,5.0,18.0,8.0
1705326743.5385926,-4.0,-2.0,-11.0,-10.0,-3.0,-2.0,-11.0,-6.0
1705326743.5385926,-1.0,-2.0,16.0,-2.0,-1.0,0.0,-10.0,-2.0
1705326743.5385926,-1.0,-7.0,21.0,2.0,-5.0,0.0,0.0,0.0
1705326743.568293,4.0,7.0,-17.0,8.0,5.0,2.0,-4.0,-4.0
1705326743.568293,-4.0,-4.0,-15.0,-5.0,-3.0,-4.0,-8.0,0.0
1705326743.568293,1.0,-4.0,-14.0,5.0,2.0,4.0,4.0,-2.0
1705326743.568293,2.0,-4.0,-3.0,-13.0,0.0,-1.0,-1.0,-1.0
1705326743.578288,-1.0,2.0,-6.0,-6.0,-5.0,-7.0,-3.0,3.0
1705326743.578288,0.0,-1.0,15.0,4.0,-4.0,-2.0,-8.0,-1.0
1705326743.588288,-3.0,-5.0,-3.0,4.0,-4.0,-6.0,1.0,-5.0
1705326743.588288,-1.0,1.0,-2.0,3.0,0.0,2.0,0.0,-1.0
1705326743.5982883,-2.0,-2.0,-5.0,-5.0,0.0,-1.0,-5.0,0.0
1705326743.5982883,-1.0,2.0,6.0,-6.0,-4.0,-1.0,0.0,-1.0
1705326743.5982883,1.0,0.0,-6.0,-3.0,-1.0,-2.0,-1.0,-3.0
1705326743.5982883,-2.0,2.0,-2.0,0.0,-3.0,-3.0,-3.0,6.0
1705326743.618289,-6.0,3.0,0.0,-1.0,-1.0,2.0,3.0,0.0
1705326743.618289,1.0,-7.0,2.0,2.0,2.0,1.0,0.0,-15.0
1705326743.618289,0.0,-5.0,-4.0,-3.0,-1.0,-2.0,-1.0,2.0
1705326743.618289,4.0,-7.0,-4.0,2.0,3.0,0.0,-4.0,1.0
1705326743.6382902,-4.0,1.0,5.0,0.0,-2.0,-2.0,1.0,-1.0
1705326743.6382902,0.0,11.0,3.0,-1.0,-2.0,0.0,-2.0,4.0
1705326743.6482913,-9.0,-1.0,-8.0,-6.0,-1.0,-4.0,-4.0,-5.0
1705326743.6482913,1.0,0.0,4.0,4.0,2.0,2.0,4.0,1.0
1705326743.6607778,-1.0,-1.0,-9.0,-6.0,-5.0,-3.0,-3.0,-5.0
1705326743.6607778,1.0,2.0,7.0,1.0,0.0,3.0,3.0,3.0
1705326743.6687021,1.0,0.0,-2.0,-2.0,-1.0,-1.0,1.0,-1.0
1705326743.6687021,-1.0,2.0,-3.0,2.0,-1.0,-1.0,-1.0,-1.0
1705326743.683699,1.0,-1.0,-2.0,0.0,-1.0,-2.0,-2.0,-1.0
1705326743.683699,-4.0,-3.0,6.0,-1.0,-3.0,0.0,-3.0,-1.0
1705326743.6857023,1.0,-3.0,-5.0,0.0,1.0,0.0,4.0,1.0
1705326743.6857023,-3.0,-4.0,-4.0,-4.0,-2.0,-3.0,-21.0,-4.0
1705326743.7008953,-1.0,2.0,-2.0,-1.0,-1.0,0.0,5.0,0.0
1705326743.7008953,3.0,0.0,6.0,3.0,1.0,1.0,-3.0,4.0
1705326743.7008953,-2.0,6.0,0.0,-1.0,0.0,-4.0,0.0,-5.0
1705326743.7008953,-2.0,3.0,-3.0,-4.0,-2.0,-3.0,5.0,-3.0
1705326743.7209005,2.0,10.0,6.0,-2.0,-2.0,1.0,0.0,1.0
1705326743.7209005,-5.0,-21.0,-3.0,0.0,1.0,-1.0,-1.0,4.0
1705326743.7209005,2.0,-6.0,0.0,2.0,3.0,3.0,-5.0,1.0
1705326743.7209005,-4.0,4.0,-16.0,-4.0,-2.0,-1.0,1.0,-5.0
1705326743.740896,0.0,-2.0,2.0,0.0,-1.0,-2.0,-2.0,-1.0
1705326743.740896,-1.0,5.0,-17.0,-4.0,-2.0,-2.0,1.0,2.0
1705326743.740896,-1.0,-3.0,3.0,-4.0,-4.0,3.0,-2.0,1.0
1705326743.740896,1.0,0.0,2.0,1.0,-1.0,-2.0,-1.0,-1.0
1705326743.7608955,2.0,-5.0,-5.0,3.0,2.0,1.0,1.0,1.0
1705326743.7608955,-2.0,7.0,14.0,-1.0,-4.0,-3.0,-4.0,-3.0
1705326743.7708945,-1.0,3.0,6.0,-2.0,-3.0,-2.0,1.0,-1.0
1705326743.7708945,0.0,0.0,-11.0,2.0,0.0,0.0,1.0,-3.0
1705326743.7808952,-3.0,3.0,8.0,2.0,4.0,2.0,-1.0,2.0
1705326743.7808952,4.0,-21.0,-1.0,1.0,0.0,-2.0,1.0,-2.0
1705326743.7808952,-11.0,19.0,-1.0,-4.0,-3.0,-2.0,-1.0,-1.0
1705326743.7808952,-3.0,-21.0,-13.0,-9.0,-9.0,-7.0,-3.0,-2.0
1705326743.8008964,-2.0,-7.0,-10.0,2.0,1.0,0.0,-1.0,-1.0
1705326743.8008964,3.0,5.0,7.0,0.0,4.0,2.0,2.0,4.0
1705326743.8008964,3.0,-3.0,-2.0,-1.0,-1.0,1.0,-2.0,-6.0
1705326743.8008964,-7.0,-6.0,9.0,1.0,-3.0,-1.0,-1.0,2.0
1705326743.8208957,-1.0,-1.0,5.0,-2.0,-4.0,-4.0,-4.0,1.0
1705326743.8208957,-1.0,11.0,18.0,1.0,-1.0,-3.0,-3.0,-16.0
1705326743.8208957,2.0,-8.0,-17.0,-6.0,-2.0,0.0,-1.0,2.0
1705326743.8208957,-1.0,2.0,-40.0,-1.0,2.0,-1.0,1.0,2.0
1705326743.840897,0.0,-9.0,7.0,-7.0,-4.0,-3.0,-3.0,-4.0
1705326743.840897,-5.0,-3.0,3.0,3.0,-4.0,-3.0,0.0,1.0
1705326743.840897,4.0,-3.0,0.0,8.0,0.0,-2.0,-1.0,-4.0
1705326743.840897,-1.0,4.0,10.0,-3.0,9.0,5.0,2.0,0.0
1705326743.860895,-2.0,-5.0,-5.0,-7.0,-2.0,-2.0,-1.0,-1.0
1705326743.860895,-1.0,3.0,-10.0,1.0,-3.0,-3.0,-5.0,-1.0
1705326743.860895,-2.0,-5.0,-10.0,3.0,-5.0,-5.0,-3.0,1.0
1705326743.860895,2.0,1.0,3.0,-6.0,-2.0,-1.0,0.0,1.0
1705326743.8808966,-1.0,-5.0,-10.0,-5.0,-5.0,-2.0,-1.0,-4.0
1705326743.8808966,2.0,5.0,11.0,-8.0,2.0,3.0,1.0,3.0
1705326743.8808966,-7.0,-23.0,-12.0,5.0,1.0,2.0,1.0,-3.0
1705326743.8808966,4.0,9.0,38.0,20.0,3.0,1.0,0.0,-1.0
1705326743.900899,-3.0,0.0,-29.0,-14.0,-2.0,0.0,-2.0,-1.0
1705326743.900899,0.0,2.0,-4.0,-1.0,-4.0,-2.0,0.0,-1.0
1705326743.900899,1.0,7.0,10.0,-2.0,-1.0,0.0,2.0,3.0
1705326743.900899,-4.0,-8.0,-13.0,-6.0,-4.0,-2.0,-2.0,-4.0
1705326743.9208925,0.0,1.0,16.0,3.0,-4.0,0.0,-2.0,-1.0
1705326743.9208925,-1.0,2.0,-21.0,-1.0,1.0,-2.0,-1.0,0.0
1705326743.9208925,1.0,1.0,7.0,2.0,2.0,1.0,0.0,2.0
1705326743.9208925,0.0,-2.0,-6.0,-8.0,-2.0,-1.0,-1.0,-1.0
1705326743.9509,-1.0,1.0,-9.0,6.0,1.0,0.0,0.0,0.0
1705326743.9509,-5.0,-6.0,7.0,-3.0,-1.0,-1.0,-3.0,-2.0
1705326743.9509,-2.0,-2.0,-2.0,-7.0,0.0,-1.0,-1.0,-1.0
1705326743.9509,3.0,3.0,10.0,5.0,1.0,1.0,6.0,0.0
1705326743.9608977,-10.0,-13.0,1.0,-3.0,-1.0,0.0,-16.0,-3.0
1705326743.9608977,-1.0,3.0,-5.0,3.0,2.0,1.0,-3.0,10.0
1705326743.9708998,-1.0,2.0,13.0,-5.0,-4.0,-3.0,1.0,-9.0
1705326743.9708998,-2.0,8.0,22.0,2.0,-5.0,-3.0,5.0,2.0
1705326743.980898,-1.0,-1.0,-15.0,1.0,1.0,1.0,1.0,3.0
1705326743.980898,-4.0,-12.0,-5.0,-5.0,-2.0,-1.0,0.0,0.0
1705326743.980898,2.0,9.0,22.0,1.0,1.0,1.0,-29.0,3.0
1705326743.980898,-5.0,-8.0,7.0,-4.0,-1.0,1.0,22.0,-9.0
1705326744.0109322,-1.0,-5.0,26.0,-11.0,-6.0,-12.0,-4.0,8.0
1705326744.0109322,3.0,19.0,-4.0,3.0,-2.0,2.0,-20.0,3.0
1705326744.0109322,-8.0,-6.0,-15.0,-4.0,-5.0,1.0,48.0,3.0
1705326744.0109322,14.0,-37.0,-2.0,3.0,1.0,2.0,9.0,14.0
1705326744.0208938,-7.0,40.0,20.0,4.0,-1.0,-3.0,-22.0,-30.0
1705326744.0208938,3.0,-12.0,-6.0,-1.0,-3.0,-3.0,2.0,8.0
1705326744.030931,-6.0,-17.0,-24.0,-5.0,0.0,2.0,11.0,2.0
1705326744.030931,2.0,21.0,13.0,3.0,0.0,-7.0,-21.0,-1.0
1705326744.0508957,-1.0,-21.0,-4.0,-1.0,-2.0,6.0,25.0,6.0
1705326744.0508957,1.0,0.0,30.0,-3.0,-3.0,-6.0,-11.0,-8.0
1705326744.0508957,-2.0,6.0,3.0,-2.0,0.0,4.0,-1.0,-8.0
1705326744.0508957,-12.0,-10.0,-41.0,-13.0,-9.0,-3.0,-11.0,-2.0
1705326744.0708938,5.0,-3.0,2.0,1.0,-2.0,-2.0,-5.0,-2.0
1705326744.0708938,-5.0,4.0,5.0,7.0,10.0,6.0,8.0,-8.0
1705326744.0708938,5.0,-5.0,0.0,6.0,3.0,-1.0,-3.0,5.0
1705326744.0708938,-1.0,15.0,6.0,6.0,-2.0,-1.0,0.0,0.0
1705326744.0808952,-4.0,-8.0,2.0,-21.0,-9.0,-8.0,-11.0,-2.0
1705326744.0808952,5.0,1.0,0.0,5.0,-3.0,1.0,9.0,-2.0
1705326744.0808952,3.0,1.0,-3.0,-22.0,-8.0,-5.0,-7.0,5.0
1705326744.0909,-4.0,4.0,-39.0,-12.0,2.0,-6.0,-15.0,-4.0
1705326744.1009393,-3.0,4.0,-15.0,14.0,-4.0,2.0,7.0,-4.0
1705326744.1009393,-1.0,-8.0,7.0,-15.0,5.0,3.0,4.0,3.0
1705326744.1009393,2.0,7.0,3.0,11.0,-1.0,-5.0,-12.0,-3.0
1705326744.1009393,-4.0,-8.0,11.0,1.0,-4.0,-1.0,-2.0,-6.0
1705326744.1308968,3.0,6.0,16.0,6.0,-2.0,1.0,6.0,5.0
1705326744.1308968,-2.0,-5.0,-12.0,-1.0,-1.0,-1.0,2.0,-3.0
1705326744.1308968,-6.0,-5.0,5.0,-7.0,1.0,-3.0,-9.0,-5.0
1705326744.1308968,5.0,20.0,3.0,-3.0,-2.0,2.0,3.0,9.0
1705326744.1408973,9.0,-43.0,7.0,3.0,3.0,0.0,1.0,-3.0
1705326744.1408973,-15.0,-3.0,-17.0,8.0,-3.0,-5.0,-8.0,-12.0
1705326744.150921,-1.0,13.0,-10.0,-5.0,-1.0,6.0,-19.0,-4.0
1705326744.150921,-2.0,-42.0,8.0,-1.0,-4.0,-14.0,3.0,0.0
1705326744.1608956,-13.0,28.0,-12.0,5.0,2.0,8.0,-22.0,-8.0
1705326744.1608956,-3.0,9.0,0.0,-7.0,-5.0,-10.0,26.0,12.0
1705326744.1608956,-17.0,-1.0,16.0,6.0,3.0,11.0,-19.0,-8.0
1705326744.1608956,-4.0,-8.0,-16.0,-2.0,0.0,-3.0,-49.0,15.0
1705326744.1808987,25.0,13.0,2.0,2.0,2.0,-11.0,34.0,16.0
1705326744.1808987,-3.0,-18.0,-11.0,-1.0,-1.0,-8.0,-22.0,-35.0
1705326744.1808987,3.0,38.0,-7.0,-4.0,-5.0,-3.0,31.0,23.0
1705326744.1808987,7.0,-18.0,9.0,3.0,-2.0,-8.0,4.0,6.0
1705326744.2093046,1.0,0.0,1.0,1.0,6.0,22.0,-1.0,-13.0
1705326744.2093046,2.0,0.0,7.0,-4.0,-5.0,-7.0,-14.0,3.0
1705326744.2103074,9.0,-10.0,-15.0,2.0,0.0,-8.0,1.0,8.0
1705326744.2103074,-16.0,13.0,14.0,-1.0,-3.0,11.0,2.0,-26.0
1705326744.2237685,1.0,-3.0,-16.0,-1.0,2.0,-2.0,3.0,16.0
1705326744.2237685,-2.0,-1.0,-10.0,-2.0,-3.0,0.0,13.0,-1.0
1705326744.2237685,-1.0,-17.0,21.0,-8.0,-6.0,-5.0,-16.0,-9.0
1705326744.2237685,-1.0,3.0,-44.0,-8.0,-3.0,2.0,7.0,-2.0
1705326744.2437785,-6.0,2.0,-40.0,42.0,-3.0,-8.0,-1.0,-9.0
1705326744.2437785,-4.0,-4.0,54.0,-22.0,0.0,2.0,-9.0,8.0
1705326744.2437785,6.0,-4.0,-20.0,-6.0,1.0,2.0,7.0,-5.0
1705326744.2437785,2.0,10.0,17.0,12.0,0.0,-1.0,3.0,-4.0
1705326744.2637732,-6.0,-5.0,4.0,-2.0,-9.0,-6.0,-2.0,2.0
1705326744.2637732,2.0,-1.0,-17.0,19.0,2.0,5.0,-1.0,-5.0
1705326744.2637732,4.0,2.0,11.0,4.0,-2.0,-2.0,4.0,0.0
1705326744.2637732,-2.0,10.0,-5.0,-11.0,3.0,0.0,10.0,-2.0
1705326744.283808,-5.0,-9.0,21.0,-4.0,2.0,1.0,-9.0,-1.0
1705326744.283808,0.0,-3.0,-18.0,-3.0,-4.0,1.0,2.0,5.0
1705326744.283808,-4.0,-11.0,-17.0,-15.0,-8.0,-7.0,-1.0,-9.0
1705326744.283808,-4.0,9.0,16.0,4.0,-2.0,2.0,-2.0,1.0
1705326744.3137746,-1.0,-8.0,-6.0,-11.0,-1.0,-2.0,4.0,-7.0
1705326744.3137746,4.0,2.0,4.0,-9.0,0.0,3.0,4.0,0.0
1705326744.3137746,-2.0,4.0,-5.0,17.0,6.0,1.0,-10.0,-3.0
1705326744.3137746,-2.0,-15.0,-44.0,-11.0,-3.0,-4.0,-53.0,-19.0
1705326744.323775,7.0,-2.0,-22.0,-23.0,-5.0,0.0,33.0,22.0
1705326744.323775,-6.0,0.0,6.0,7.0,0.0,-2.0,3.0,-17.0
1705326744.323775,-7.0,-1.0,16.0,6.0,1.0,5.0,-9.0,-18.0
1705326744.323775,9.0,6.0,45.0,5.0,-1.0,-12.0,-3.0,16.0
1705326744.343769,-7.0,18.0,40.0,0.0,0.0,1.0,-3.0,3.0
1705326744.343769,-1.0,-5.0,-53.0,-6.0,-1.0,1.0,3.0,35.0
1705326744.343769,16.0,35.0,-6.0,-2.0,0.0,2.0,-11.0,-29.0
1705326744.343769,11.0,10.0,7.0,-2.0,1.0,2.0,14.0,-4.0
1705326744.363773,-1.0,-8.0,-26.0,-7.0,-2.0,-7.0,-1.0,22.0
1705326744.363773,-4.0,19.0,22.0,9.0,-2.0,-4.0,9.0,-54.0
1705326744.363773,-5.0,-17.0,6.0,2.0,4.0,0.0,-5.0,-5.0
1705326744.363773,10.0,5.0,-4.0,4.0,2.0,5.0,16.0,-4.0
1705326744.3937745,6.0,-4.0,-18.0,-9.0,-3.0,2.0,-17.0,-1.0
1705326744.3937745,4.0,-13.0,-23.0,-17.0,-7.0,-13.0,2.0,24.0
1705326744.3937745,-6.0,-3.0,11.0,4.0,2.0,-2.0,11.0,-2.0
1705326744.3937745,-6.0,-1.0,13.0,3.0,1.0,3.0,0.0,-5.0
1705326744.4037747,-4.0,-8.0,-5.0,-6.0,-5.0,2.0,-13.0,-31.0
1705326744.4037747,6.0,1.0,4.0,-2.0,-6.0,2.0,-38.0,22.0
1705326744.4037747,-4.0,-14.0,-39.0,-2.0,2.0,1.0,-10.0,5.0
1705326744.4037747,-5.0,-3.0,26.0,-1.0,-1.0,-7.0,36.0,16.0
1705326744.4238052,-7.0,-1.0,3.0,1.0,0.0,1.0,-12.0,-3.0
1705326744.4238052,-3.0,-5.0,4.0,1.0,2.0,6.0,4.0,-9.0
1705326744.4238052,-4.0,3.0,-2.0,-6.0,-5.0,-7.0,-11.0,5.0
1705326744.4238052,5.0,5.0,6.0,6.0,0.0,11.0,1.0,-6.0
1705326744.4438064,-2.0,0.0,-34.0,-8.0,-4.0,-5.0,-5.0,-2.0
1705326744.4438064,-4.0,0.0,7.0,-14.0,-6.0,-9.0,-8.0,-11.0
