1705326593.2815883,-3.0,-2.0,-1.0,-1.0,-1.0,-2.0,0.0,-1.0
1705326593.2815883,0.0,-1.0,0.0,-3.0,-1.0,-2.0,-1.0,-1.0
1705326593.2815883,-1.0,1.0,-1.0,0.0,0.0,-2.0,-1.0,-1.0
1705326593.2815883,0.0,-1.0,-2.0,0.0,-3.0,-1.0,-3.0,-1.0
1705326593.3115551,0.0,-2.0,1.0,1.0,-1.0,1.0,-2.0,-1.0
1705326593.3115551,-2.0,-3.0,-2.0,0.0,-2.0,-1.0,-1.0,0.0
1705326593.3115551,0.0,0.0,0.0,-2.0,-1.0,0.0,-1.0,0.0
1705326593.3115551,-3.0,-2.0,0.0,-2.0,-1.0,-2.0,-1.0,-1.0
1705326593.331555,-1.0,-1.0,-1.0,-2.0,-2.0,0.0,-1.0,0.0
1705326593.331555,2.0,-1.0,0.0,0.0,-2.0,-2.0,0.0,0.0
1705326593.331555,0.0,0.0,1.0,0.0,1.0,0.0,0.0,-2.0
1705326593.331555,-1.0,-2.0,-1.0,0.0,-2.0,-1.0,0.0,0.0
1705326593.3415537,-2.0,-1.0,-3.0,-1.0,-2.0,-1.0,-3.0,-2.0
1705326593.3415537,-1.0,-1.0,-1.0,-1.0,-1.0,-1.0,0.0,-2.0
1705326593.3415537,-1.0,-2.0,-1.0,-1.0,0.0,-3.0,0.0,0.0
1705326593.3415537,-1.0,0.0,0.0,-2.0,-2.0,-1.0,0.0,0.0
1705326593.3615885,0.0,0.0,-1.0,0.0,0.0,-1.0,0.0,0.0
1705326593.3615885,-1.0,-1.0,-1.0,-1.0,-2.0,-1.0,-2.0,-1.0
1705326593.371554,-1.0,-2.0,-3.0,0.0,-1.0,-1.0,-1.0,-1.0
1705326593.371554,-1.0,-3.0,-2.0,-1.0,1.0,-2.0,-1.0,-3.0
1705326593.3915555,0.0,-2.0,-3.0,-2.0,-1.0,0.0,-1.0,-2.0
1705326593.3915555,0.0,-1.0,-2.0,-2.0,0.0,1.0,-1.0,-1.0
1705326593.3915555,-1.0,0.0,1.0,-1.0,-3.0,0.0,-2.0,0.0
1705326593.3915555,-1.0,-1.0,1.0,0.0,-1.0,-1.0,-1.0,-1.0
1705326593.4015577,0.0,0.0,0.0,-1.0,0.0,0.0,-2.0,0.0
1705326593.4015577,-2.0,-3.0,-3.0,-1.0,-1.0,-1.0,-1.0,-3.0
1705326593.4015577,-2.0,-1.0,-3.0,-1.0,-2.0,-1.0,-1.0,-1.0
1705326593.4015577,-1.0,0.0,-1.0,-1.0,-1.0,-2.0,-3.0,-1.0
1705326593.4315555,-2.0,0.0,-1.0,-2.0,0.0,0.0,0.0,-2.0
1705326593.4315555,-2.0,0.0,1.0,-2.0,0.0,0.0,-1.0,-1.0
1705326593.4315555,1.0,-1.0,-3.0,-1.0,-1.0,-2.0,-2.0,0.0
1705326593.4315555,1.0,1.0,0.0,0.0,0.0,0.0,1.0,0.0
1705326593.451605,0.0,-3.0,-1.0,-3.0,-1.0,-2.0,2.0,-2.0
1705326593.451605,1.0,-1.0,0.0,-2.0,-1.0,0.0,-1.0,-3.0
1705326593.451605,0.0,0.0,-1.0,-2.0,0.0,0.0,0.0,-1.0
1705326593.451605,0.0,-1.0,-3.0,-2.0,0.0,-1.0,0.0,-1.0
1705326593.4615905,0.0,-1.0,-2.0,0.0,-1.0,-1.0,-1.0,0.0
1705326593.4615905,-1.0,-1.0,0.0,0.0,-2.0,-2.0,0.0,0.0
1705326593.4615905,-2.0,0.0,-2.0,-1.0,-2.0,-2.0,0.0,-1.0
1705326593.4615905,-1.0,-2.0,0.0,-1.0,-2.0,1.0,-1.0,0.0
1705326593.481555,-2.0,-3.0,-2.0,-1.0,1.0,-1.0,0.0,-1.0
1705326593.481555,-2.0,-3.0,-1.0,0.0,1.0,-1.0,0.0,-1.0
1705326593.481555,-3.0,-1.0,0.0,-1.0,-1.0,-1.0,-1.0,-3.0
1705326593.481555,-2.0,-3.0,-2.0,-2.0,-1.0,-1.0,-2.0,0.0
1705326593.511594,-1.0,-1.0,1.0,-2.0,-1.0,0.0,-4.0,-2.0
1705326593.511594,-3.0,-2.0,-2.0,-2.0,-1.0,-3.0,-3.0,0.0
1705326593.511594,-2.0,-2.0,-1.0,-1.0,-3.0,-2.0,-4.0,-2.0
1705326593.511594,-2.0,-1.0,-3.0,-2.0,-1.0,-2.0,-3.0,0.0
1705326593.5215552,-1.0,2.0,0.0,2.0,1.0,-1.0,-4.0,-1.0
1705326593.5215552,-1.0,-4.0,-2.0,-3.0,-1.0,-2.0,-3.0,-1.0
1705326593.5215552,-1.0,-1.0,0.0,-1.0,-2.0,-2.0,0.0,-2.0
1705326593.5215552,-1.0,0.0,-2.0,1.0,-1.0,-1.0,-1.0,0.0
1705326593.5415542,0.0,0.0,0.0,0.0,-1.0,-2.0,-1.0,-2.0
1705326593.5415542,-2.0,0.0,-1.0,0.0,0.0,-1.0,-2.0,0.0
1705326593.5415542,0.0,-1.0,0.0,-1.0,-1.0,0.0,-2.0,-3.0
1705326593.5415542,-1.0,-2.0,-1.0,-2.0,-2.0,-1.0,-1.0,-1.0
1705326593.571554,-1.0,-2.0,-2.0,-1.0,-1.0,-2.0,0.0,-1.0
1705326593.571554,0.0,1.0,-1.0,-1.0,4.0,0.0,1.0,0.0
1705326593.571554,-2.0,-2.0,-3.0,-2.0,-2.0,1.0,2.0,0.0
1705326593.571554,0.0,0.0,0.0,-1.0,1.0,-1.0,1.0,-3.0
1705326593.591555,-1.0,-2.0,-1.0,-3.0,-3.0,-1.0,1.0,-2.0
1705326593.591555,-1.0,0.0,-2.0,-3.0,-3.0,-2.0,0.0,-1.0
1705326593.591555,0.0,-1.0,1.0,-2.0,-2.0,1.0,-1.0,-1.0
1705326593.591555,-1.0,1.0,0.0,3.0,1.0,3.0,-1.0,0.0
1705326593.601554,0.0,1.0,-1.0,-1.0,2.0,1.0,0.0,-2.0
1705326593.601554,-1.0,-2.0,-1.0,-2.0,-3.0,1.0,0.0,-1.0
1705326593.601554,-1.0,0.0,-2.0,-1.0,0.0,-2.0,-2.0,-2.0
1705326593.601554,0.0,1.0,-2.0,-4.0,-4.0,-4.0,-1.0,-3.0
1705326593.6315928,-1.0,0.0,1.0,-1.0,-2.0,-2.0,-3.0,-1.0
1705326593.6315928,0.0,-1.0,1.0,0.0,0.0,-4.0,-2.0,-1.0
1705326593.6315928,-1.0,-2.0,0.0,0.0,0.0,0.0,-1.0,-1.0
1705326593.6315928,-2.0,-2.0,1.0,-1.0,-3.0,-2.0,-2.0,-1.0
1705326593.6415572,0.0,-2.0,-1.0,-2.0,3.0,0.0,0.0,1.0
1705326593.6415572,-1.0,0.0,-3.0,0.0,-1.0,-1.0,0.0,-2.0
1705326593.6515543,-1.0,-3.0,-1.0,0.0,-1.0,-4.0,-3.0,-1.0
1705326593.6515543,-3.0,-1.0,-2.0,1.0,0.0,-4.0,-5.0,-2.0
1705326593.6615562,-1.0,-1.0,2.0,-2.0,-5.0,-2.0,-3.0,-1.0
1705326593.6615562,-1.0,-2.0,-1.0,-1.0,-2.0,-3.0,-3.0,-2.0
1705326593.6615562,-1.0,0.0,0.0,1.0,2.0,0.0,-3.0,0.0
1705326593.6615562,0.0,-2.0,0.0,-2.0,-1.0,-1.0,-1.0,0.0
1705326593.6918278,-1.0,0.0,-1.0,0.0,0.0,-2.0,-2.0,0.0
1705326593.6918278,-1.0,-2.0,-2.0,0.0,-1.0,0.0,-1.0,0.0
1705326593.6928275,0.0,-2.0,-3.0,-1.0,-3.0,-2.0,0.0,-2.0
1705326593.6928275,-1.0,0.0,0.0,0.0,0.0,-1.0,1.0,-2.0
1705326593.7144966,-3.0,-1.0,-3.0,-1.0,-1.0,-1.0,1.0,0.0
1705326593.7144966,-1.0,-4.0,0.0,-1.0,-2.0,-1.0,0.0,-1.0
1705326593.7144966,0.0,1.0,0.0,-2.0,0.0,-1.0,1.0,0.0
1705326593.7144966,2.0,-2.0,-2.0,-2.0,-1.0,-1.0,-2.0,0.0
1705326593.7245271,-1.0,-3.0,0.0,0.0,-2.0,-2.0,-3.0,-2.0
1705326593.7245271,-3.0,-1.0,0.0,-2.0,0.0,0.0,-1.0,0.0
1705326593.7245271,-2.0,1.0,0.0,0.0,-1.0,-1.0,-1.0,-1.0
1705326593.7245271,0.0,0.0,-1.0,-2.0,-2.0,-1.0,-2.0,-1.0
1705326593.744492,-1.0,-2.0,-2.0,-2.0,-1.0,-1.0,1.0,-4.0
1705326593.744492,1.0,0.0,-1.0,-2.0,-2.0,0.0,-1.0,-1.0
1705326593.744492,0.0,-2.0,0.0,-2.0,-1.0,-1.0,-3.0,-1.0
1705326593.744492,-1.0,-1.0,-1.0,-1.0,-1.0,-3.0,0.0,-2.0
1705326593.7744906,-2.0,-1.0,-2.0,-1.0,-2.0,-1.0,-2.0,2.0
1705326593.7744906,0.0,0.0,-1.0,1.0,-1.0,0.0,-2.0,1.0
1705326593.7744906,-1.0,-2.0,-1.0,0.0,-2.0,0.0,-2.0,-3.0
1705326593.7744906,0.0,-3.0,-4.0,-3.0,-1.0,-1.0,-4.0,0.0
1705326593.7844956,-1.0,-2.0,-2.0,-1.0,-4.0,-2.0,-4.0,-1.0
1705326593.7844956,-1.0,0.0,-1.0,-2.0,-2.0,-3.0,-1.0,-1.0
1705326593.7844956,0.0,1.0,-2.0,-1.0,0.0,-1.0,0.0,0.0
1705326593.7844956,-1.0,-1.0,-2.0,-1.0,-1.0,-2.0,1.0,1.0
1705326593.814492,-1.0,-1.0,-1.0,-1.0,0.0,0.0,0.0,-1.0
1705326593.814492,0.0,1.0,-1.0,-3.0,-1.0,1.0,1.0,-2.0
1705326593.814492,-3.0,-3.0,-1.0,-2.0,-3.0,-2.0,0.0,-3.0
1705326593.814492,-1.0,-4.0,2.0,-1.0,0.0,0.0,1.0,0.0
1705326593.8244927,2.0,-1.0,-1.0,-2.0,-1.0,-2.0,0.0,-2.0
1705326593.8244927,-2.0,-3.0,-2.0,1.0,-2.0,-1.0,1.0,-2.0
1705326593.8344915,0.0,-3.0,-2.0,0.0,-1.0,-2.0,0.0,0.0
1705326593.8344915,-1.0,-2.0,0.0,1.0,0.0,-1.0,0.0,-1.0
1705326593.8444982,-2.0,-2.0,1.0,-2.0,-1.0,-2.0,0.0,-1.0
1705326593.8444982,-1.0,-1.0,0.0,0.0,0.0,0.0,-3.0,-1.0
1705326593.8444982,-1.0,-1.0,-2.0,-1.0,1.0,-1.0,-4.0,0.0
1705326593.8444982,-1.0,0.0,-1.0,-2.0,0.0,-1.0,-3.0,-2.0
1705326593.8744924,-1.0,-1.0,-2.0,-2.0,-2.0,0.0,-1.0,0.0
1705326593.8744924,-1.0,-1.0,-2.0,0.0,-3.0,-2.0,-5.0,0.0
1705326593.8744924,-1.0,-1.0,-1.0,0.0,-1.0,-1.0,-2.0,0.0
1705326593.8744924,-3.0,0.0,-1.0,-1.0,-2.0,-2.0,-4.0,1.0
1705326593.884494,0.0,-3.0,-4.0,-1.0,0.0,0.0,-2.0,-1.0
1705326593.884494,-2.0,1.0,1.0,0.0,-1.0,0.0,-1.0,-1.0
1705326593.894491,-1.0,-1.0,-1.0,-1.0,-1.0,-1.0,-1.0,-1.0
1705326593.894491,-1.0,0.0,-1.0,0.0,0.0,0.0,0.0,-2.0
1705326593.9044917,0.0,0.0,-1.0,-1.0,-1.0,-2.0,-2.0,-2.0
1705326593.9044917,-2.0,0.0,-1.0,-2.0,-1.0,-1.0,-1.0,-2.0
1705326593.9044917,0.0,-1.0,0.0,0.0,-1.0,-2.0,1.0,0.0
1705326593.9044917,-2.0,-2.0,-1.0,-3.0,-1.0,-1.0,0.0,-1.0
1705326593.924494,-2.0,0.0,0.0,0.0,-1.0,-2.0,-1.0,0.0
1705326593.924494,2.0,-1.0,-1.0,0.0,-2.0,-1.0,0.0,-1.0
1705326593.924494,0.0,-1.0,0.0,0.0,0.0,-1.0,0.0,-1.0
1705326593.924494,1.0,0.0,-3.0,-1.0,-2.0,1.0,2.0,0.0
1705326593.944496,-2.0,0.0,-2.0,0.0,-1.0,-1.0,-1.0,-2.0
1705326593.944496,-1.0,-1.0,-3.0,-1.0,-2.0,-2.0,0.0,-2.0
1705326593.944496,-1.0,-1.0,0.0,-1.0,-2.0,1.0,2.0,-2.0
1705326593.944496,-1.0,-2.0,0.0,0.0,-1.0,-2.0,-1.0,-2.0
1705326593.9644952,-1.0,-1.0,0.0,0.0,0.0,-1.0,0.0,-1.0
1705326593.9644952,-1.0,0.0,1.0,0.0,1.0,0.0,-1.0,-2.0
1705326593.9644952,0.0,-2.0,-3.0,-1.0,-2.0,-3.0,-1.0,-1.0
1705326593.9644952,0.0,-2.0,-2.0,0.0,-1.0,-1.0,-2.0,-3.0
1705326593.9944913,1.0,-2.0,-1.0,-1.0,0.0,0.0,-2.0,0.0
1705326593.9944913,-2.0,-3.0,-1.0,-2.0,0.0,-2.0,0.0,0.0
1705326593.9944913,1.0,-1.0,-1.0,-1.0,0.0,-1.0,-2.0,-1.0
1705326593.9944913,-1.0,1.0,0.0,-2.0,-1.0,-1.0,-2.0,0.0
1705326594.004495,-1.0,-1.0,0.0,0.0,-1.0,0.0,-1.0,-2.0
1705326594.004495,-1.0,0.0,-3.0,1.0,-1.0,-2.0,-1.0,0.0
1705326594.014493,-1.0,-3.0,-1.0,-1.0,0.0,-1.0,-1.0,0.0
1705326594.014493,0.0,-2.0,-2.0,-1.0,0.0,-1.0,-2.0,0.0
1705326594.0245564,-1.0,0.0,1.0,-2.0,-1.0,-1.0,-1.0,-2.0
1705326594.0245564,0.0,0.0,0.0,-2.0,-2.0,-1.0,-2.0,-1.0
1705326594.0344908,-2.0,0.0,2.0,0.0,-1.0,0.0,1.0,0.0
1705326594.0344908,-1.0,2.0,-1.0,-1.0,-1.0,0.0,0.0,-3.0
1705326594.0444915,-2.0,0.0,-2.0,-1.0,0.0,0.0,0.0,-1.0
1705326594.0444915,0.0,-3.0,1.0,-2.0,-1.0,0.0,-1.0,-1.0
1705326594.0444915,-3.0,0.0,0.0,-1.0,-1.0,-1.0,-2.0,-1.0
1705326594.0444915,0.0,-1.0,-1.0,0.0,0.0,-2.0,-1.0,1.0
1705326594.0644927,-2.0,0.0,0.0,-1.0,-1.0,-1.0,-1.0,-1.0
1705326594.0644927,-1.0,0.0,-3.0,0.0,-1.0,-2.0,-2.0,-2.0
1705326594.0644927,0.0,-2.0,-2.0,0.0,-1.0,-2.0,-1.0,0.0
1705326594.0644927,-2.0,-3.0,-1.0,-3.0,-2.0,-1.0,-2.0,-1.0
1705326594.0844948,-1.0,0.0,-2.0,-1.0,0.0,0.0,-2.0,0.0
1705326594.0844948,-1.0,-1.0,0.0,0.0,0.0,0.0,0.0,-2.0
1705326594.0844948,-2.0,0.0,-3.0,0.0,-2.0,-1.0,-2.0,0.0
1705326594.0844948,-1.0,1.0,-1.0,1.0,-1.0,0.0,-1.0,-1.0
1705326594.1144924,-1.0,-1.0,-2.0,0.0,-1.0,-1.0,-2.0,0.0
1705326594.1144924,-1.0,-4.0,-1.0,-2.0,-1.0,-1.0,0.0,-2.0
1705326594.1144924,-2.0,-1.0,-2.0,-1.0,0.0,-2.0,-1.0,0.0
1705326594.1144924,-2.0,-1.0,-2.0,-2.0,1.0,0.0,0.0,-3.0
1705326594.124495,0.0,-1.0,-2.0,-2.0,0.0,-2.0,-1.0,0.0
1705326594.124495,-2.0,1.0,-1.0,-2.0,-1.0,-1.0,-2.0,1.0
1705326594.124495,-2.0,-3.0,-3.0,-2.0,-3.0,0.0,-1.0,-1.0
1705326594.124495,-1.0,-3.0,0.0,-2.0,-2.0,-1.0,0.0,0.0
1705326594.144518,0.0,2.0,1.0,-2.0,0.0,-1.0,0.0,-1.0
1705326594.144518,-1.0,-1.0,-2.0,-1.0,0.0,0.0,-1.0,0.0
1705326594.144518,0.0,-1.0,0.0,-2.0,-1.0,-1.0,0.0,-1.0
1705326594.144518,-2.0,-1.0,-1.0,-1.0,0.0,-2.0,0.0,-2.0
1705326594.1644914,0.0,1.0,0.0,1.0,-1.0,-2.0,-2.0,-1.0
1705326594.1644914,-2.0,-3.0,-2.0,-2.0,-1.0,-2.0,1.0,-1.0
1705326594.1644914,-1.0,0.0,0.0,-1.0,0.0,-2.0,0.0,-3.0
1705326594.1644914,-1.0,0.0,0.0,0.0,0.0,1.0,-1.0,-2.0
1705326594.1845272,-2.0,-3.0,-1.0,-1.0,-2.0,0.0,1.0,-3.0
1705326594.1845272,1.0,-1.0,0.0,0.0,-1.0,-1.0,0.0,0.0
1705326594.1845272,0.0,-1.0,0.0,-1.0,-1.0,-1.0,0.0,-1.0
1705326594.1845272,1.0,0.0,-1.0,-1.0,-2.0,-1.0,-1.0,-1.0
1705326594.209009,-1.0,-2.0,-1.0,-2.0,-2.0,-1.0,-1.0,0.0
1705326594.209009,0.0,-1.0,-1.0,-1.0,0.0,-2.0,-2.0,-1.0
1705326594.2099745,0.0,2.0,-1.0,-1.0,-1.0,1.0,-1.0,-1.0
1705326594.2099745,-2.0,-1.0,0.0,-1.0,-2.0,-2.0,-1.0,0.0
1705326594.232214,-1.0,0.0,-1.0,0.0,-2.0,0.0,-3.0,1.0
1705326594.232214,-2.0,-2.0,-1.0,0.0,-1.0,-1.0,-2.0,-2.0
1705326594.232214,-1.0,-3.0,-1.0,0.0,-1.0,-1.0,-2.0,-1.0
1705326594.232214,-1.0,-1.0,1.0,2.0,-1.0,-3.0,-5.0,-1.0
1705326594.2476227,-3.0,-4.0,-2.0,-1.0,-2.0,-4.0,-3.0,-2.0
1705326594.2476227,-2.0,2.0,0.0,-1.0,-2.0,-3.0,-5.0,0.0
1705326594.2476227,1.0,-1.0,-1.0,0.0,-2.0,-2.0,-4.0,-2.0
1705326594.2476227,-2.0,-2.0,-1.0,-1.0,-1.0,-2.0,-4.0,-2.0
1705326594.2777188,-2.0,-1.0,-1.0,1.0,0.0,-3.0,-3.0,-2.0
1705326594.2777188,0.0,-3.0,-2.0,2.0,0.0,-2.0,-4.0,1.0
1705326594.2777188,-1.0,-2.0,-3.0,0.0,-1.0,-2.0,-3.0,1.0
1705326594.2777188,0.0,0.0,-2.0,0.0,-2.0,-1.0,-3.0,-1.0
1705326594.2877245,-1.0,-4.0,-3.0,-1.0,-2.0,-3.0,-2.0,-2.0
1705326594.2877245,-2.0,-1.0,-1.0,-1.0,-2.0,0.0,-1.0,-1.0
1705326594.2877245,0.0,0.0,-1.0,-3.0,0.0,-2.0,-2.0,-1.0
1705326594.2877245,1.0,-1.0,-1.0,-2.0,-1.0,-1.0,0.0,-3.0
1705326594.3177216,-2.0,0.0,-2.0,-1.0,-1.0,2.0,2.0,-2.0
1705326594.3177216,-1.0,1.0,-1.0,0.0,-5.0,0.0,6.0,0.0
1705326594.3177216,0.0,-1.0,-2.0,-3.0,-2.0,2.0,7.0,-1.0
1705326594.3177216,1.0,1.0,-2.0,-3.0,-1.0,-1.0,3.0,-2.0
1705326594.327721,0.0,-1.0,-1.0,-3.0,0.0,0.0,2.0,-1.0
1705326594.327721,-2.0,-3.0,-1.0,-1.0,2.0,-1.0,1.0,-2.0
1705326594.327721,-1.0,0.0,-1.0,-1.0,-1.0,1.0,0.0,-1.0
1705326594.327721,-2.0,-3.0,-2.0,-3.0,-3.0,0.0,2.0,0.0
1705326594.3477588,1.0,2.0,-1.0,-1.0,-2.0,1.0,4.0,0.0
1705326594.3477588,1.0,-1.0,-1.0,0.0,-1.0,2.0,3.0,-2.0
1705326594.3477588,-1.0,-1.0,2.0,-1.0,0.0,-3.0,-4.0,-2.0
1705326594.3477588,-2.0,-3.0,-1.0,0.0,0.0,-1.0,-12.0,0.0
1705326594.3777187,-3.0,-3.0,-2.0,-1.0,-2.0,-2.0,-16.0,0.0
1705326594.3777187,-2.0,0.0,0.0,0.0,0.0,-2.0,-16.0,0.0
1705326594.3777187,-3.0,-4.0,-1.0,0.0,-2.0,-2.0,-9.0,-2.0
1705326594.3777187,-1.0,0.0,-1.0,-2.0,0.0,0.0,-6.0,1.0
1705326594.3877192,0.0,1.0,-2.0,-1.0,0.0,0.0,-2.0,-1.0
1705326594.3877192,-1.0,-3.0,0.0,-1.0,-2.0,-2.0,0.0,0.0
1705326594.3877192,-2.0,-1.0,-1.0,1.0,-3.0,-4.0,4.0,0.0
1705326594.3877192,-2.0,-1.0,0.0,1.0,0.0,-3.0,9.0,-1.0
1705326594.4077187,-1.0,-1.0,-1.0,1.0,0.0,-5.0,6.0,1.0
1705326594.4077187,0.0,-1.0,-1.0,-3.0,-1.0,-5.0,3.0,-1.0
1705326594.4077187,-2.0,0.0,-3.0,-1.0,0.0,-4.0,0.0,-2.0
1705326594.4077187,-1.0,-3.0,-4.0,-1.0,-1.0,-1.0,1.0,-1.0
1705326594.427719,-2.0,0.0,2.0,-2.0,-2.0,1.0,2.0,-1.0
1705326594.427719,1.0,0.0,-2.0,-2.0,-2.0,2.0,3.0,-2.0
1705326594.427719,-1.0,2.0,-2.0,-3.0,-2.0,5.0,6.0,-1.0
1705326594.427719,0.0,0.0,-3.0,-2.0,-1.0,2.0,7.0,-3.0
1705326594.4477293,1.0,0.0,-3.0,-3.0,-1.0,3.0,7.0,-3.0
1705326594.4477293,0.0,-1.0,-2.0,-2.0,-1.0,2.0,6.0,-1.0
1705326594.4477293,1.0,-2.0,0.0,-2.0,-1.0,4.0,5.0,-1.0
1705326594.4477293,0.0,-1.0,0.0,-1.0,1.0,1.0,2.0,-1.0
1705326594.4677217,0.0,0.0,0.0,-1.0,0.0,0.0,0.0,-1.0
1705326594.4677217,0.0,0.0,0.0,-2.0,-1.0,-1.0,-1.0,-1.0
1705326594.4677217,-2.0,-1.0,-1.0,-3.0,0.0,-1.0,-4.0,-1.0
1705326594.4677217,0.0,-2.0,0.0,-2.0,-1.0,-2.0,-3.0,0.0
1705326594.487719,0.0,-1.0,0.0,0.0,0.0,0.0,-7.0,-1.0
1705326594.487719,-1.0,0.0,-1.0,-1.0,-1.0,-3.0,-4.0,-2.0
1705326594.487719,-2.0,-2.0,0.0,-1.0,1.0,-2.0,-5.0,-1.0
1705326594.487719,-1.0,1.0,-2.0,0.0,0.0,-2.0,-4.0,-1.0
1705326594.5077236,-2.0,-2.0,-2.0,-1.0,-1.0,-3.0,-4.0,0.0
1705326594.5077236,-2.0,0.0,-1.0,-1.0,0.0,-1.0,-3.0,-1.0
1705326594.5077236,1.0,-2.0,0.0,1.0,0.0,-3.0,-3.0,0.0
1705326594.5077236,-3.0,0.0,0.0,0.0,-2.0,-2.0,-4.0,-2.0
1705326594.5277238,-2.0,-2.0,-1.0,1.0,0.0,-2.0,-3.0,-1.0
1705326594.5277238,-2.0,-3.0,-3.0,0.0,1.0,-1.0,-3.0,-2.0
1705326594.5277238,0.0,0.0,-1.0,-2.0,-1.0,-1.0,0.0,-1.0
1705326594.5277238,-1.0,1.0,0.0,0.0,-1.0,-3.0,-1.0,0.0
1705326594.5477202,0.0,0.0,-2.0,-1.0,-1.0,0.0,0.0,-1.0
1705326594.5477202,-1.0,0.0,1.0,-1.0,-1.0,-1.0,0.0,1.0
1705326594.5477202,0.0,-3.0,-3.0,0.0,-2.0,-2.0,0.0,-2.0
1705326594.5477202,2.0,-2.0,-2.0,-3.0,-1.0,-1.0,-2.0,-1.0
1705326594.5677204,-2.0,-2.0,0.0,-1.0,-2.0,-1.0,0.0,-1.0
1705326594.5677204,0.0,0.0,-2.0,-2.0,0.0,-1.0,0.0,-2.0
1705326594.5677204,0.0,0.0,0.0,-1.0,-2.0,-2.0,-1.0,0.0
1705326594.5677204,-2.0,-2.0,-1.0,0.0,-1.0,-2.0,0.0,-2.0
1705326594.5877178,-1.0,0.0,0.0,0.0,-1.0,-2.0,-2.0,0.0
1705326594.5877178,0.0,-3.0,-3.0,-2.0,0.0,1.0,2.0,-3.0
1705326594.5877178,-1.0,-1.0,0.0,-1.0,-1.0,1.0,-2.0,0.0
1705326594.5877178,-1.0,-1.0,1.0,-2.0,-2.0,0.0,-1.0,-1.0
1705326594.6077206,-2.0,-3.0,-1.0,-1.0,0.0,-2.0,0.0,-1.0
1705326594.6077206,-1.0,0.0,-1.0,0.0,-2.0,0.0,-2.0,-1.0
1705326594.6077206,-1.0,1.0,-2.0,-1.0,1.0,-1.0,-1.0,0.0
1705326594.6077206,-1.0,0.0,-4.0,-2.0,1.0,-1.0,-2.0,-2.0
1705326594.6277225,0.0,1.0,0.0,-2.0,-1.0,-1.0,-1.0,0.0
1705326594.6277225,-1.0,-2.0,-1.0,1.0,-3.0,1.0,-2.0,-1.0
1705326594.6277225,-3.0,-2.0,-2.0,-1.0,-2.0,-2.0,-2.0,-1.0
1705326594.6277225,0.0,-1.0,-1.0,-1.0,-3.0,-2.0,0.0,0.0
1705326594.6477196,-1.0,-1.0,-2.0,-1.0,-2.0,-1.0,0.0,-2.0
1705326594.6477196,-1.0,1.0,-2.0,-2.0,-1.0,-2.0,1.0,0.0
1705326594.6477196,0.0,-1.0,-2.0,-1.0,-2.0,-2.0,-2.0,-2.0
1705326594.6477196,-2.0,0.0,-1.0,-3.0,0.0,0.0,0.0,-3.0
1705326594.667722,0.0,-3.0,1.0,-1.0,0.0,-1.0,-2.0,-2.0
1705326594.667722,0.0,0.0,-1.0,-1.0,-1.0,-2.0,-1.0,0.0
1705326594.667722,0.0,-1.0,0.0,-1.0,0.0,0.0,0.0,0.0
1705326594.667722,2.0,-1.0,0.0,-2.0,-2.0,-1.0,-2.0,-1.0
1705326594.6877258,-1.0,-3.0,0.0,-1.0,-1.0,-1.0,-1.0,-2.0
1705326594.6877258,0.0,0.0,0.0,-1.0,0.0,0.0,-1.0,-1.0
1705326594.6877258,1.0,0.0,0.0,-1.0,-1.0,0.0,1.0,-1.0
1705326594.6877258,-2.0,-2.0,-1.0,0.0,1.0,0.0,-1.0,0.0
1705326594.7177227,-2.0,0.0,-3.0,-2.0,-1.0,-1.0,-1.0,-1.0
1705326594.7177227,-3.0,-1.0,1.0,0.0,-1.0,-2.0,-2.0,-1.0
1705326594.7177227,0.0,0.0,0.0,-1.0,0.0,0.0,-2.0,-1.0
1705326594.7177227,0.0,-1.0,-1.0,0.0,0.0,-1.0,-2.0,0.0
1705326594.7343214,-2.0,1.0,0.0,0.0,-2.0,-1.0,0.0,0.0
1705326594.7343214,-1.0,-2.0,-4.0,-2.0,0.0,-2.0,0.0,-1.0
1705326594.7352788,0.0,0.0,-3.0,-2.0,0.0,0.0,1.0,-1.0
1705326594.7352788,-1.0,0.0,-2.0,-1.0,-1.0,1.0,-1.0,-1.0
1705326594.7534454,1.0,-1.0,-2.0,-2.0,0.0,0.0,-1.0,-1.0
1705326594.7534454,-2.0,0.0,-1.0,-2.0,-2.0,-1.0,-1.0,-1.0
1705326594.7534454,-1.0,-2.0,-1.0,0.0,-2.0,-3.0,-1.0,-1.0
1705326594.7534454,-2.0,-1.0,-1.0,-1.0,0.0,-1.0,2.0,0.0
1705326594.7734528,0.0,0.0,-1.0,-1.0,-1.0,0.0,-1.0,-1.0
1705326594.7734528,1.0,1.0,-1.0,-3.0,0.0,-1.0,-3.0,-1.0
1705326594.7734528,-1.0,-1.0,-1.0,0.0,0.0,-1.0,0.0,-1.0
1705326594.7734528,-1.0,-1.0,0.0,1.0,-1.0,0.0,-2.0,0.0
1705326594.7934513,-1.0,-2.0,-1.0,0.0,-2.0,-1.0,-1.0,-1.0
1705326594.7934513,-1.0,-3.0,-2.0,-2.0,0.0,-1.0,0.0,-1.0
1705326594.7934513,-2.0,-2.0,-2.0,-3.0,0.0,-1.0,-2.0,-3.0
1705326594.7934513,0.0,0.0,-1.0,-1.0,-1.0,-4.0,-1.0,-1.0
1705326594.803451,0.0,-2.0,0.0,0.0,1.0,-1.0,-1.0,0.0
1705326594.803451,-1.0,-2.0,-1.0,1.0,-1.0,-4.0,1.0,0.0
1705326594.8134491,-1.0,-1.0,-1.0,-3.0,-2.0,0.0,0.0,-1.0
1705326594.8134491,0.0,-1.0,0.0,-1.0,1.0,0.0,1.0,-2.0
1705326594.843452,-1.0,0.0,-1.0,1.0,0.0,-1.0,-1.0,0.0
1705326594.843452,-2.0,-3.0,-3.0,0.0,-2.0,-1.0,0.0,0.0
1705326594.843452,-2.0,-1.0,-1.0,-2.0,-1.0,0.0,-2.0,1.0
1705326594.843452,-3.0,1.0,-2.0,-1.0,-1.0,0.0,0.0,0.0
1705326594.8534522,-1.0,0.0,-1.0,-2.0,0.0,-2.0,-1.0,0.0
1705326594.8534522,0.0,-1.0,-1.0,-1.0,-1.0,0.0,-2.0,-1.0
1705326594.8534522,-2.0,0.0,1.0,-1.0,-1.0,-2.0,-1.0,-2.0
1705326594.8534522,-2.0,-2.0,0.0,-2.0,0.0,-1.0,-1.0,-1.0
1705326594.8634527,-1.0,-1.0,-2.0,-2.0,0.0,-2.0,-1.0,-2.0
1705326594.8634527,-2.0,1.0,0.0,0.0,0.0,0.0,2.0,-3.0
1705326594.8734493,1.0,0.0,-2.0,-2.0,-2.0,0.0,-1.0,-2.0
1705326594.8734493,1.0,-1.0,-2.0,0.0,-1.0,0.0,-1.0,-3.0
1705326594.893448,-2.0,-1.0,-2.0,-1.0,-1.0,-2.0,-1.0,-2.0
1705326594.893448,-1.0,-2.0,-1.0,-1.0,-2.0,-2.0,-2.0,0.0
1705326594.893448,-1.0,-2.0,-2.0,0.0,0.0,-1.0,-2.0,-2.0
1705326594.893448,0.0,-1.0,0.0,0.0,-1.0,-3.0,-2.0,-1.0
1705326594.913462,1.0,-1.0,1.0,-2.0,-2.0,0.0,0.0,-1.0
1705326594.913462,-1.0,-1.0,1.0,0.0,2.0,0.0,0.0,-2.0
1705326594.913462,-1.0,-2.0,-1.0,0.0,0.0,1.0,0.0,0.0
1705326594.913462,-1.0,-1.0,-2.0,0.0,-3.0,-3.0,-1.0,-1.0
1705326594.9234498,0.0,0.0,-2.0,-1.0,-1.0,-2.0,1.0,-2.0
1705326594.9234498,-1.0,1.0,-2.0,-1.0,0.0,-2.0,-1.0,-1.0
1705326594.9434483,-1.0,-1.0,-2.0,-2.0,0.0,-2.0,1.0,2.0
1705326594.9434483,-2.0,-1.0,-1.0,-2.0,1.0,0.0,-1.0,0.0
1705326594.9434483,0.0,0.0,0.0,2.0,-1.0,-2.0,0.0,-1.0
1705326594.9434483,-3.0,-1.0,-2.0,-3.0,-2.0,1.0,0.0,-1.0
1705326594.9434483,-1.0,0.0,1.0,0.0,1.0,-1.0,-1.0,-1.0
1705326594.9434483,-2.0,-1.0,-1.0,0.0,-1.0,-2.0,-2.0,0.0
1705326594.9734871,-2.0,-3.0,0.0,-3.0,-1.0,0.0,-1.0,-1.0
1705326594.9734871,-1.0,-2.0,-2.0,-2.0,-2.0,-1.0,-1.0,0.0
1705326594.9734871,-1.0,0.0,-2.0,-1.0,-4.0,-5.0,-3.0,-2.0
1705326594.9734871,-2.0,-1.0,0.0,-1.0,-4.0,6.0,1.0,-2.0
1705326594.9837189,-1.0,0.0,-1.0,1.0,3.0,-3.0,-1.0,0.0
1705326594.9837189,0.0,0.0,-1.0,-2.0,-2.0,-2.0,-3.0,-1.0
1705326595.0034509,-1.0,0.0,-3.0,-3.0,-2.0,-4.0,-2.0,-1.0
1705326595.0034509,-1.0,-2.0,-1.0,-1.0,-1.0,-2.0,0.0,-1.0
1705326595.0034509,-1.0,-1.0,-3.0,-2.0,-3.0,0.0,0.0,-1.0
1705326595.0034509,0.0,-1.0,-2.0,-2.0,-2.0,1.0,-1.0,1.0
1705326595.0034509,-1.0,-2.0,-2.0,1.0,0.0,-1.0,-2.0,-2.0
1705326595.0034509,-3.0,-2.0,-1.0,-2.0,1.0,-3.0,-1.0,0.0
1705326595.0334501,0.0,-1.0,0.0,-1.0,-1.0,1.0,0.0,-1.0
1705326595.0334501,-1.0,0.0,1.0,-2.0,0.0,-2.0,-1.0,-2.0
1705326595.0334501,1.0,-1.0,0.0,-2.0,0.0,0.0,0.0,0.0
1705326595.0334501,-1.0,0.0,-2.0,-2.0,0.0,-3.0,-1.0,-1.0
1705326595.0434482,-2.0,-1.0,0.0,0.0,-1.0,0.0,-4.0,-1.0
1705326595.0434482,-1.0,0.0,-4.0,1.0,-3.0,-1.0,-2.0,0.0
1705326595.0534484,-3.0,-2.0,-1.0,1.0,1.0,0.0,-1.0,-1.0
1705326595.0534484,-1.0,-1.0,-1.0,0.0,0.0,-2.0,-3.0,-2.0
1705326595.0634499,-2.0,-3.0,-1.0,-4.0,-4.0,-5.0,0.0,-1.0
1705326595.0634499,0.0,0.0,0.0,0.0,0.0,-2.0,-2.0,-3.0
1705326595.0634499,-1.0,-2.0,-1.0,-2.0,-2.0,1.0,1.0,0.0
1705326595.0634499,0.0,0.0,-2.0,0.0,0.0,-1.0,0.0,-1.0
1705326595.0934486,0.0,0.0,-1.0,0.0,0.0,1.0,-1.0,-1.0
1705326595.0934486,-2.0,-2.0,1.0,-1.0,0.0,0.0,1.0,-1.0
1705326595.0934486,0.0,0.0,0.0,-2.0,-1.0,-2.0,-2.0,0.0
1705326595.0934486,-3.0,-1.0,-1.0,-2.0,-2.0,0.0,-1.0,0.0
1705326595.1034484,-1.0,0.0,1.0,-2.0,1.0,0.0,-2.0,-2.0
1705326595.1034484,-1.0,-1.0,-1.0,0.0,0.0,0.0,0.0,0.0
1705326595.1134515,-1.0,0.0,1.0,-1.0,-1.0,-1.0,-1.0,-2.0
1705326595.1134515,0.0,-1.0,-1.0,-2.0,-1.0,-3.0,-1.0,-2.0
1705326595.123449,1.0,1.0,-1.0,0.0,-2.0,-1.0,0.0,-2.0
1705326595.123449,-1.0,0.0,-2.0,-2.0,-2.0,-2.0,-3.0,-3.0
1705326595.123449,-1.0,0.0,-1.0,-1.0,-2.0,-1.0,0.0,-1.0
1705326595.123449,-2.0,-1.0,0.0,0.0,-1.0,-1.0,-3.0,0.0
1705326595.153485,-2.0,-2.0,-1.0,-1.0,0.0,-1.0,1.0,-1.0
1705326595.153485,0.0,-1.0,-1.0,-1.0,0.0,-1.0,0.0,-1.0
1705326595.153485,-2.0,-1.0,-2.0,-1.0,-2.0,-1.0,-2.0,-2.0
1705326595.153485,1.0,-1.0,-2.0,-1.0,-2.0,0.0,-2.0,0.0
1705326595.1734564,0.0,0.0,-2.0,-2.0,-2.0,-2.0,-2.0,1.0
1705326595.1734564,0.0,0.0,0.0,-1.0,-1.0,-2.0,-2.0,-1.0
1705326595.1734564,-2.0,-2.0,0.0,-1.0,-1.0,-1.0,-1.0,-2.0
1705326595.1734564,-1.0,-2.0,-2.0,-1.0,-1.0,-2.0,1.0,-1.0
1705326595.1834483,-1.0,-2.0,0.0,-2.0,-2.0,0.0,-2.0,-1.0
1705326595.1834483,-2.0,-3.0,0.0,-1.0,1.0,-1.0,1.0,-1.0
1705326595.1834483,-2.0,-1.0,-2.0,-1.0,-1.0,-1.0,-1.0,-2.0
1705326595.1834483,0.0,0.0,0.0,0.0,-3.0,0.0,-2.0,-3.0
1705326595.2134497,-2.0,-1.0,-2.0,-1.0,0.0,-1.0,0.0,-1.0
1705326595.2134497,-2.0,0.0,0.0,-2.0,-2.0,0.0,-1.0,-1.0
1705326595.2134497,-1.0,-1.0,-2.0,-1.0,0.0,1.0,2.0,0.0
1705326595.2134497,1.0,-2.0,-1.0,-3.0,-1.0,0.0,0.0,-3.0
1705326595.233793,-1.0,-1.0,-2.0,0.0,-1.0,-1.0,1.0,-2.0
1705326595.233793,0.0,-2.0,-1.0,0.0,0.0,0.0,-1.0,-1.0
1705326595.233793,-1.0,0.0,-1.0,0.0,-2.0,-1.0,0.0,-1.0
1705326595.233793,0.0,0.0,-1.0,-1.0,0.0,1.0,0.0,-2.0
1705326595.2434976,-2.0,-1.0,0.0,-1.0,1.0,0.0,-1.0,-2.0
1705326595.2434976,0.0,-1.0,-1.0,-2.0,-2.0,1.0,-1.0,0.0
1705326595.2434976,0.0,-1.0,0.0,-2.0,-1.0,-1.0,-1.0,0.0
1705326595.2434976,-1.0,0.0,-1.0,-1.0,0.0,-2.0,-1.0,0.0
1705326595.2740872,0.0,-1.0,-3.0,0.0,-2.0,-3.0,-2.0,0.0
1705326595.2740872,-1.0,0.0,-1.0,-1.0,-1.0,-2.0,-1.0,-1.0
1705326595.2750626,-1.0,-2.0,0.0,-2.0,-1.0,-1.0,-2.0,-1.0
1705326595.2750626,-1.0,-2.0,-1.0,-2.0,0.0,-1.0,0.0,-1.0
1705326595.2961898,-1.0,-1.0,0.0,-2.0,-2.0,1.0,0.0,-1.0
1705326595.2961898,-1.0,-1.0,-2.0,-3.0,-2.0,-2.0,-2.0,-1.0
1705326595.2961898,0.0,0.0,-1.0,-2.0,-1.0,-1.0,-2.0,-2.0
1705326595.2961898,-2.0,0.0,-1.0,1.0,-2.0,-1.0,-2.0,-1.0
1705326595.3061914,0.0,-2.0,-1.0,0.0,-2.0,-1.0,0.0,-1.0
1705326595.3061914,-2.0,-3.0,-2.0,1.0,-2.0,-2.0,-1.0,-2.0
1705326595.3061914,-1.0,-1.0,-1.0,0.0,0.0,-2.0,0.0,0.0
1705326595.3061914,-1.0,-1.0,0.0,-1.0,-1.0,0.0,-2.0,0.0
1705326595.32619,-1.0,-1.0,0.0,-3.0,-1.0,-1.0,-3.0,-1.0
1705326595.32619,-2.0,-3.0,-1.0,-2.0,0.0,-1.0,-3.0,0.0
1705326595.32619,0.0,0.0,-1.0,0.0,-2.0,0.0,-1.0,-2.0
1705326595.32619,-1.0,-1.0,-2.0,0.0,-2.0,-2.0,2.0,-1.0
1705326595.3562222,-1.0,0.0,-1.0,-2.0,-1.0,-1.0,-2.0,0.0
1705326595.3562222,-1.0,-2.0,-1.0,-3.0,0.0,1.0,1.0,-1.0
1705326595.3562222,-1.0,-2.0,-2.0,-2.0,-1.0,-1.0,-1.0,0.0
1705326595.3562222,-2.0,-2.0,-3.0,0.0,-1.0,-2.0,-2.0,-1.0
1705326595.3661895,-2.0,-2.0,-3.0,-2.0,0.0,-1.0,1.0,0.0
1705326595.3661895,-1.0,0.0,-2.0,-1.0,0.0,-3.0,-3.0,-1.0
1705326595.3661895,-1.0,-2.0,0.0,-1.0,1.0,0.0,0.0,-1.0
1705326595.3661895,0.0,0.0,-1.0,-2.0,-1.0,-1.0,0.0,-1.0
1705326595.3961885,0.0,0.0,0.0,-2.0,-1.0,-2.0,-1.0,-1.0
1705326595.3961885,-1.0,-2.0,1.0,0.0,0.0,0.0,-1.0,0.0
1705326595.3961885,-2.0,-1.0,-1.0,-1.0,-1.0,-1.0,-2.0,-1.0
1705326595.3961885,2.0,-1.0,-1.0,-2.0,-1.0,-1.0,-1.0,-1.0
1705326595.416247,-2.0,-2.0,0.0,-1.0,-2.0,1.0,-1.0,-2.0
1705326595.416247,0.0,-1.0,-2.0,-2.0,1.0,0.0,-1.0,-3.0
1705326595.416247,-1.0,0.0,-1.0,0.0,-1.0,-1.0,-1.0,0.0
1705326595.416247,-1.0,-2.0,0.0,-2.0,0.0,0.0,-1.0,1.0
1705326595.4262311,0.0,0.0,-2.0,0.0,-1.0,-1.0,-1.0,-1.0
1705326595.4262311,-1.0,-1.0,0.0,0.0,-1.0,0.0,0.0,1.0
1705326595.4262311,0.0,-3.0,-1.0,-2.0,1.0,-1.0,-2.0,-2.0
1705326595.4262311,-1.0,0.0,0.0,-2.0,-2.0,-1.0,0.0,-2.0
1705326595.446228,-1.0,0.0,-1.0,-1.0,-2.0,-1.0,-1.0,-2.0
1705326595.446228,-1.0,0.0,-1.0,-1.0,-1.0,-2.0,-1.0,-1.0
1705326595.446228,-1.0,-1.0,-2.0,-1.0,-2.0,-1.0,-1.0,0.0
1705326595.446228,-1.0,-2.0,-1.0,-1.0,-2.0,0.0,-1.0,-1.0
1705326595.4761894,1.0,-1.0,0.0,-1.0,-1.0,-1.0,-3.0,-2.0
1705326595.4761894,0.0,-1.0,-2.0,-1.0,1.0,-1.0,0.0,-2.0
1705326595.4761894,-1.0,-2.0,-2.0,-1.0,-1.0,-2.0,-2.0,-2.0
1705326595.4761894,-2.0,-2.0,-2.0,0.0,0.0,-1.0,0.0,-1.0
1705326595.4861934,-1.0,-3.0,0.0,-1.0,0.0,-2.0,-1.0,-1.0
1705326595.4861934,-1.0,-2.0,0.0,0.0,-1.0,0.0,-2.0,-1.0
1705326595.4861934,-1.0,-1.0,0.0,-3.0,-2.0,-1.0,-1.0,-2.0
1705326595.4861934,-2.0,-1.0,-1.0,-1.0,0.0,-1.0,-1.0,0.0
1705326595.5061896,-1.0,-1.0,-2.0,1.0,-1.0,1.0,-1.0,1.0
1705326595.5061896,-1.0,1.0,-1.0,-1.0,-2.0,-1.0,2.0,0.0
1705326595.5061896,1.0,-1.0,1.0,-1.0,0.0,-1.0,1.0,-1.0
1705326595.5061896,0.0,-1.0,-1.0,-1.0,-3.0,-2.0,-2.0,0.0
1705326595.5362163,0.0,-1.0,0.0,-1.0,-1.0,-1.0,1.0,-1.0
1705326595.5362163,0.0,-3.0,-3.0,-1.0,-2.0,0.0,0.0,-1.0
1705326595.5362163,-1.0,-2.0,-2.0,0.0,-2.0,-2.0,-1.0,0.0
1705326595.5362163,-1.0,2.0,0.0,-1.0,0.0,-1.0,0.0,-2.0
1705326595.5561888,0.0,-1.0,-1.0,1.0,-3.0,-1.0,0.0,-2.0
1705326595.5561888,-1.0,0.0,0.0,1.0,-1.0,-2.0,0.0,0.0
1705326595.5561888,-2.0,-1.0,-1.0,-1.0,-1.0,-1.0,-2.0,0.0
1705326595.5561888,0.0,0.0,-1.0,0.0,-1.0,-1.0,-1.0,-1.0
1705326595.566189,-3.0,-1.0,-1.0,-2.0,-2.0,-1.0,-1.0,-1.0
1705326595.566189,-1.0,-2.0,-2.0,0.0,-1.0,1.0,-2.0,-2.0
1705326595.566189,-1.0,-2.0,1.0,0.0,-2.0,-1.0,0.0,-1.0
1705326595.566189,-1.0,-2.0,-1.0,-1.0,-1.0,-2.0,-1.0,-2.0
1705326595.596235,0.0,-1.0,-1.0,-3.0,-2.0,-1.0,-2.0,-1.0
1705326595.596235,-2.0,-3.0,1.0,-2.0,-1.0,0.0,-1.0,-1.0
1705326595.596235,-1.0,0.0,-2.0,-2.0,-1.0,0.0,-1.0,-1.0
1705326595.596235,1.0,-1.0,0.0,-2.0,-2.0,-1.0,-1.0,0.0
1705326595.6161933,1.0,-2.0,-1.0,0.0,-1.0,-3.0,-2.0,-3.0
1705326595.6161933,-1.0,-2.0,0.0,0.0,-2.0,-1.0,0.0,-2.0
1705326595.6161933,1.0,-1.0,-1.0,-1.0,0.0,-1.0,0.0,-1.0
1705326595.6161933,-2.0,-2.0,-1.0,-1.0,-1.0,1.0,-2.0,-1.0
1705326595.6262276,-2.0,-2.0,-1.0,-2.0,0.0,-1.0,1.0,-1.0
1705326595.6262276,-1.0,-1.0,-1.0,-1.0,0.0,0.0,0.0,0.0
1705326595.6262276,-1.0,0.0,0.0,-3.0,-1.0,-1.0,-1.0,-1.0
1705326595.6262276,-3.0,-1.0,-2.0,-1.0,-2.0,-2.0,0.0,-1.0
1705326595.6661887,-2.0,1.0,0.0,-2.0,0.0,-1.0,-2.0,0.0
1705326595.6661887,-1.0,0.0,-1.0,-1.0,-1.0,-2.0,-3.0,1.0
1705326595.6661887,0.0,-1.0,-1.0,-1.0,-1.0,1.0,0.0,-2.0
1705326595.6661887,0.0,-2.0,-1.0,-2.0,0.0,-1.0,-1.0,-1.0
1705326595.6661887,0.0,-2.0,-2.0,-1.0,0.0,-1.0,-1.0,-1.0
1705326595.6661887,0.0,0.0,-2.0,0.0,-3.0,-1.0,-2.0,-1.0
1705326595.6661887,-2.0,-1.0,-1.0,0.0,-2.0,0.0,1.0,-1.0
1705326595.6661887,0.0,0.0,-1.0,0.0,-3.0,1.0,-1.0,-1.0
1705326595.6862154,-2.0,-1.0,-2.0,-3.0,0.0,-1.0,-1.0,-1.0
1705326595.6862154,-2.0,-2.0,1.0,-2.0,0.0,-2.0,-1.0,0.0
1705326595.6862154,-1.0,-1.0,0.0,1.0,1.0,-1.0,-1.0,0.0
1705326595.6862154,-2.0,1.0,-1.0,-1.0,-1.0,0.0,0.0,0.0
1705326595.7261887,0.0,-1.0,0.0,-1.0,-1.0,-1.0,1.0,0.0
1705326595.7261887,-2.0,0.0,-1.0,-1.0,-2.0,-3.0,-1.0,-1.0
1705326595.7261887,-1.0,-1.0,-1.0,-3.0,-1.0,-2.0,0.0,-2.0
1705326595.7261887,-2.0,-1.0,0.0,-2.0,1.0,-1.0,-2.0,-2.0
1705326595.7361908,-1.0,-3.0,0.0,0.0,-2.0,1.0,-2.0,0.0
1705326595.7361908,-1.0,-1.0,-2.0,-1.0,-1.0,0.0,0.0,-2.0
1705326595.7361908,-1.0,-1.0,-1.0,-1.0,-2.0,1.0,-2.0,-1.0
1705326595.7361908,0.0,-2.0,0.0,0.0,0.0,-1.0,-1.0,-1.0
1705326595.7462275,-1.0,0.0,-1.0,-3.0,-1.0,0.0,-2.0,-1.0
1705326595.7462275,0.0,-2.0,-1.0,-1.0,1.0,-2.0,0.0,-2.0
1705326595.7462275,-2.0,-2.0,0.0,0.0,-1.0,-1.0,-1.0,-1.0
1705326595.7462275,0.0,-2.0,-1.0,-1.0,1.0,-2.0,-2.0,-1.0
1705326595.7761898,-2.0,-2.0,0.0,0.0,-1.0,-4.0,-1.0,-1.0
1705326595.7761898,-1.0,0.0,0.0,0.0,0.0,-1.0,0.0,-1.0
1705326595.7761898,-1.0,0.0,-3.0,-3.0,0.0,-2.0,-1.0,-2.0
1705326595.7761898,0.0,0.0,0.0,-1.0,-3.0,-1.0,-2.0,0.0
1705326595.78623,0.0,0.0,0.0,1.0,0.0,0.0,1.0,-2.0
1705326595.78623,1.0,-2.0,0.0,-2.0,-2.0,1.0,-1.0,0.0
1705326595.7996187,-2.0,1.0,0.0,-2.0,-1.0,0.0,0.0,0.0
1705326595.7996187,-2.0,-1.0,0.0,0.0,-1.0,0.0,-1.0,-2.0
1705326595.8141656,0.0,-1.0,-3.0,-2.0,-1.0,1.0,-1.0,-1.0
1705326595.8141656,-1.0,0.0,-1.0,-1.0,-2.0,-2.0,-2.0,-1.0
1705326595.815136,-1.0,-2.0,-1.0,1.0,-1.0,-2.0,-1.0,0.0
1705326595.815136,-1.0,0.0,-3.0,-1.0,-1.0,-2.0,-1.0,-2.0
1705326595.8390744,-2.0,-1.0,-1.0,-1.0,-2.0,-2.0,-2.0,-2.0
1705326595.8390744,-1.0,-1.0,-2.0,0.0,-2.0,-1.0,-2.0,-1.0
1705326595.8390744,0.0,-2.0,1.0,-1.0,-2.0,-2.0,-1.0,0.0
1705326595.8390744,-1.0,0.0,-1.0,0.0,-1.0,-2.0,-1.0,-2.0
1705326595.8491166,0.0,0.0,-1.0,0.0,-1.0,-1.0,-4.0,-1.0
1705326595.8491166,-1.0,-2.0,0.0,-1.0,-2.0,-1.0,-2.0,-2.0
1705326595.8591053,-2.0,0.0,-1.0,0.0,-1.0,0.0,-1.0,-3.0
1705326595.8591053,-1.0,-2.0,0.0,-1.0,-1.0,0.0,0.0,-1.0
1705326595.8691084,-1.0,-1.0,0.0,-1.0,-2.0,0.0,-1.0,1.0
1705326595.8691084,-1.0,0.0,0.0,-2.0,0.0,0.0,-1.0,-1.0
1705326595.8691084,-1.0,-1.0,-1.0,-1.0,0.0,-2.0,0.0,0.0
1705326595.8691084,-1.0,0.0,-1.0,-1.0,1.0,-1.0,0.0,0.0
1705326595.8890772,0.0,-1.0,-1.0,-1.0,-1.0,0.0,0.0,-2.0
1705326595.8890772,-1.0,0.0,-1.0,0.0,0.0,-2.0,0.0,-2.0
1705326595.8890772,-1.0,0.0,-2.0,-1.0,-2.0,-2.0,-2.0,-1.0
1705326595.8890772,1.0,-2.0,1.0,-2.0,-2.0,-1.0,0.0,-1.0
1705326595.909073,-2.0,-3.0,0.0,-1.0,-1.0,-1.0,0.0,-3.0
1705326595.909073,0.0,-1.0,-1.0,0.0,-1.0,0.0,-3.0,-1.0
1705326595.9191103,0.0,0.0,0.0,-1.0,-1.0,-1.0,-2.0,-3.0
1705326595.9191103,-1.0,-1.0,-2.0,-1.0,-2.0,0.0,-1.0,0.0
1705326595.939073,-1.0,-1.0,0.0,-1.0,0.0,-1.0,-2.0,-1.0
1705326595.939073,-3.0,-1.0,-1.0,-1.0,0.0,-1.0,1.0,-1.0
1705326595.939073,-1.0,-1.0,-1.0,0.0,-1.0,-1.0,-2.0,1.0
1705326595.939073,-1.0,-2.0,-3.0,-1.0,-2.0,0.0,-3.0,-1.0
1705326595.9490793,-1.0,1.0,0.0,-1.0,-2.0,1.0,-1.0,-1.0
1705326595.9490793,-2.0,0.0,0.0,-2.0,0.0,0.0,0.0,0.0
1705326595.9490793,0.0,0.0,-3.0,-1.0,0.0,1.0,0.0,0.0
1705326595.9490793,0.0,-1.0,0.0,-1.0,-1.0,-1.0,0.0,-2.0
1705326595.969074,-1.0,-1.0,-2.0,-1.0,-1.0,-1.0,0.0,0.0
1705326595.969074,-1.0,-2.0,-2.0,-2.0,-3.0,-1.0,1.0,-1.0
1705326595.979072,-1.0,-1.0,-2.0,-1.0,-2.0,-1.0,2.0,-1.0
1705326595.979072,-1.0,-2.0,-1.0,0.0,0.0,0.0,1.0,-2.0
1705326595.9890997,0.0,1.0,-2.0,-2.0,-3.0,-2.0,-1.0,-1.0
1705326595.9890997,0.0,-2.0,-1.0,-1.0,-1.0,0.0,-1.0,0.0
1705326595.999073,-2.0,-1.0,-3.0,-2.0,0.0,1.0,0.0,-2.0
1705326595.999073,0.0,-1.0,-2.0,-3.0,-1.0,-1.0,2.0,-1.0
1705326596.009074,-2.0,-1.0,-2.0,0.0,0.0,-1.0,1.0,0.0
1705326596.009074,1.0,-1.0,-2.0,-1.0,0.0,0.0,0.0,-2.0
1705326596.009074,-1.0,-1.0,-1.0,-1.0,-1.0,0.0,0.0,-1.0
1705326596.009074,-2.0,-2.0,0.0,-3.0,-2.0,0.0,-2.0,-2.0
1705326596.0290735,-1.0,-2.0,2.0,-1.0,1.0,0.0,-2.0,-1.0
1705326596.0290735,-1.0,-3.0,-2.0,-1.0,-1.0,-1.0,-2.0,-1.0
1705326596.039073,-2.0,-2.0,0.0,0.0,-1.0,-1.0,0.0,-1.0
1705326596.039073,-2.0,-1.0,-1.0,-2.0,0.0,-2.0,-2.0,-1.0
1705326596.0490751,0.0,-1.0,-3.0,-3.0,-1.0,0.0,-1.0,-1.0
1705326596.0490751,-2.0,-1.0,-1.0,-1.0,0.0,-1.0,-2.0,0.0
1705326596.0590777,0.0,-3.0,0.0,-1.0,-1.0,-1.0,-1.0,-3.0
1705326596.0590777,-2.0,0.0,-2.0,0.0,-2.0,-1.0,-2.0,0.0
1705326596.069071,-2.0,0.0,0.0,2.0,0.0,0.0,0.0,-1.0
1705326596.069071,0.0,0.0,0.0,0.0,-3.0,0.0,-1.0,-1.0
1705326596.069071,-1.0,-1.0,-1.0,-2.0,1.0,0.0,-1.0,-1.0
1705326596.069071,-1.0,0.0,-2.0,-2.0,-1.0,-2.0,-1.0,0.0
1705326596.0890763,-1.0,-2.0,-2.0,-1.0,-1.0,-1.0,-1.0,-1.0
1705326596.0890763,-1.0,0.0,0.0,0.0,-1.0,0.0,-1.0,-1.0
1705326596.099085,-1.0,-1.0,0.0,0.0,-1.0,-1.0,-1.0,-2.0
1705326596.099085,-1.0,-1.0,0.0,-1.0,-3.0,1.0,-1.0,1.0
1705326596.1090782,-3.0,0.0,0.0,1.0,-2.0,0.0,-1.0,-1.0
1705326596.1090782,0.0,0.0,-2.0,-1.0,-1.0,-2.0,0.0,-1.0
1705326596.1090782,-1.0,1.0,-3.0,0.0,0.0,0.0,0.0,-1.0
1705326596.1090782,0.0,-2.0,-1.0,1.0,-1.0,-1.0,-1.0,-2.0
1705326596.1391048,0.0,1.0,-1.0,-1.0,-1.0,-3.0,-1.0,0.0
1705326596.1391048,-1.0,-1.0,0.0,0.0,-1.0,-2.0,-1.0,-2.0
1705326596.1391048,-1.0,-1.0,0.0,-1.0,-1.0,-3.0,-1.0,-1.0
1705326596.1391048,-1.0,0.0,0.0,0.0,0.0,-1.0,-2.0,0.0
1705326596.1590734,0.0,-2.0,0.0,-1.0,-1.0,-1.0,-1.0,0.0
1705326596.1590734,-2.0,-1.0,-1.0,0.0,0.0,0.0,1.0,-1.0
1705326596.1590734,-1.0,0.0,-1.0,-1.0,-2.0,0.0,0.0,-1.0
1705326596.1590734,-1.0,-2.0,-1.0,0.0,0.0,0.0,-2.0,-2.0
1705326596.179072,1.0,-3.0,-2.0,-3.0,-1.0,-2.0,-1.0,-2.0
1705326596.179072,0.0,-1.0,-2.0,-1.0,0.0,0.0,0.0,-2.0
1705326596.179072,-1.0,-2.0,-1.0,-2.0,-1.0,-3.0,-3.0,0.0
1705326596.179072,-2.0,-2.0,-1.0,0.0,-2.0,-1.0,-3.0,-2.0
1705326596.1890726,-3.0,0.0,-1.0,-1.0,0.0,-1.0,-2.0,-1.0
1705326596.1890726,0.0,0.0,0.0,-2.0,-1.0,-1.0,-2.0,0.0
1705326596.1890726,0.0,-2.0,-1.0,0.0,-2.0,-1.0,-3.0,1.0
1705326596.1890726,-1.0,-1.0,-2.0,-1.0,-2.0,-2.0,-1.0,0.0
1705326596.2190747,0.0,0.0,-1.0,0.0,-2.0,-1.0,-1.0,-1.0
1705326596.2190747,-1.0,0.0,-1.0,-1.0,-2.0,0.0,-3.0,0.0
1705326596.2290723,-2.0,-1.0,1.0,-3.0,0.0,-1.0,-2.0,0.0
1705326596.2290723,-1.0,0.0,-1.0,-1.0,-1.0,-1.0,0.0,-3.0
1705326596.2290723,-3.0,-3.0,0.0,-1.0,-1.0,1.0,-1.0,-1.0
1705326596.2290723,0.0,-2.0,0.0,0.0,-1.0,-2.0,-1.0,0.0
1705326596.2290723,0.0,-2.0,0.0,1.0,-1.0,-1.0,0.0,0.0
1705326596.2290723,-1.0,1.0,-1.0,0.0,0.0,0.0,2.0,-1.0
1705326596.2491012,1.0,-1.0,-2.0,-1.0,0.0,-3.0,0.0,-2.0
1705326596.2491012,-1.0,-1.0,0.0,-2.0,-1.0,-1.0,-1.0,0.0
1705326596.2491012,0.0,-1.0,-2.0,-1.0,-1.0,-1.0,-1.0,-2.0
1705326596.2491012,0.0,1.0,0.0,0.0,-1.0,-3.0,-1.0,0.0
1705326596.2790754,-2.0,-1.0,-2.0,-1.0,-2.0,0.0,-2.0,-1.0
1705326596.2790754,-2.0,-3.0,-2.0,-1.0,-2.0,0.0,-1.0,0.0
1705326596.2890708,0.0,0.0,0.0,-1.0,-1.0,0.0,-1.0,-1.0
1705326596.2890708,-1.0,-2.0,-1.0,-2.0,1.0,0.0,-2.0,0.0
1705326596.2890708,0.0,-2.0,-1.0,-2.0,-2.0,-1.0,-1.0,-1.0
1705326596.2890708,-2.0,-1.0,-2.0,0.0,-3.0,-2.0,-2.0,-1.0
1705326596.2890708,0.0,-2.0,0.0,-2.0,0.0,-3.0,0.0,-1.0
1705326596.2890708,-1.0,-2.0,-1.0,-1.0,-2.0,-2.0,-2.0,-1.0
1705326596.3090727,1.0,-1.0,0.0,-3.0,-2.0,1.0,-2.0,-1.0
1705326596.3090727,0.0,0.0,-1.0,-2.0,-1.0,-2.0,1.0,-2.0
1705326596.3090727,-2.0,-1.0,-2.0,-1.0,-1.0,-1.0,-1.0,-2.0
1705326596.3090727,-1.0,-2.0,0.0,-1.0,1.0,-2.0,1.0,-2.0
1705326596.3403618,-1.0,-1.0,-1.0,0.0,-1.0,-1.0,-2.0,1.0
1705326596.3403618,0.0,-3.0,-1.0,-2.0,0.0,-1.0,-2.0,-1.0
1705326596.3403618,-2.0,1.0,-2.0,-2.0,-3.0,-2.0,-2.0,-1.0
1705326596.3403618,0.0,0.0,-1.0,-1.0,-1.0,-1.0,-1.0,-1.0
1705326596.3520749,-3.0,-2.0,-2.0,0.0,0.0,-2.0,1.0,-1.0
1705326596.3520749,-1.0,-1.0,-2.0,-2.0,0.0,0.0,2.0,-1.0
1705326596.3520749,-1.0,-1.0,-1.0,0.0,-1.0,0.0,1.0,0.0
1705326596.3520749,-2.0,-3.0,-2.0,-2.0,-3.0,-2.0,-1.0,0.0
1705326596.3720808,1.0,-1.0,-1.0,-1.0,-2.0,1.0,1.0,0.0
1705326596.3720808,0.0,-1.0,1.0,-1.0,0.0,-1.0,-1.0,-1.0
1705326596.3720808,0.0,-1.0,0.0,-1.0,-1.0,0.0,-1.0,0.0
1705326596.3720808,-2.0,-1.0,-1.0,-1.0,-3.0,0.0,-2.0,0.0
1705326596.3920827,-1.0,0.0,-1.0,-1.0,0.0,-2.0,-2.0,0.0
1705326596.3920827,-2.0,-1.0,-1.0,-1.0,-1.0,-1.0,-3.0,-2.0
1705326596.3920827,-2.0,-1.0,-2.0,-2.0,0.0,-1.0,-2.0,0.0
1705326596.3920827,0.0,1.0,0.0,-1.0,1.0,1.0,-2.0,0.0
1705326596.4124641,-1.0,-1.0,0.0,-2.0,0.0,-1.0,-2.0,-2.0
1705326596.4124641,-2.0,-1.0,-2.0,0.0,-2.0,0.0,-3.0,-3.0
1705326596.4124641,0.0,0.0,0.0,-1.0,-1.0,-1.0,-1.0,0.0
1705326596.4124641,0.0,-1.0,-1.0,0.0,-1.0,-1.0,-1.0,0.0
1705326596.43208,-1.0,0.0,-2.0,-1.0,0.0,-1.0,-2.0,-3.0
1705326596.43208,2.0,1.0,-2.0,0.0,-1.0,0.0,1.0,-1.0
1705326596.43208,-3.0,1.0,-2.0,-1.0,-1.0,0.0,-1.0,-2.0
1705326596.43208,-1.0,-2.0,0.0,-2.0,-1.0,0.0,-1.0,-2.0
1705326596.462077,-1.0,-2.0,-1.0,0.0,-1.0,0.0,1.0,-1.0
1705326596.462077,-2.0,-1.0,0.0,-2.0,-1.0,-3.0,-1.0,-2.0
1705326596.462077,-1.0,-1.0,0.0,-1.0,-1.0,-1.0,-1.0,-2.0
1705326596.462077,-1.0,-1.0,0.0,0.0,-1.0,-1.0,1.0,0.0
1705326596.4720774,-1.0,-1.0,-1.0,0.0,-2.0,-1.0,0.0,-1.0
1705326596.4720774,-1.0,-1.0,-2.0,-3.0,-2.0,0.0,0.0,0.0
1705326596.4720774,-1.0,-1.0,-3.0,-2.0,-1.0,-1.0,-1.0,-1.0
1705326596.4720774,-1.0,-1.0,-1.0,-2.0,1.0,-2.0,-1.0,0.0
1705326596.5021157,-1.0,-2.0,0.0,0.0,-1.0,-2.0,-1.0,-2.0
1705326596.5021157,-2.0,-2.0,0.0,0.0,0.0,0.0,1.0,0.0
1705326596.5021157,-2.0,-3.0,-1.0,0.0,0.0,0.0,-1.0,-1.0
1705326596.5021157,-2.0,-1.0,-2.0,-1.0,-1.0,-1.0,1.0,-2.0
1705326596.5220792,-1.0,0.0,-3.0,-1.0,-1.0,-3.0,-1.0,-1.0
1705326596.5220792,-3.0,-1.0,-1.0,-3.0,-1.0,-1.0,-2.0,0.0
1705326596.5220792,-2.0,0.0,0.0,-1.0,0.0,1.0,0.0,-3.0
1705326596.5220792,-1.0,0.0,0.0,-1.0,-1.0,-1.0,-1.0,0.0
1705326596.5320776,0.0,-2.0,-3.0,-1.0,-2.0,0.0,0.0,-1.0
1705326596.5320776,0.0,1.0,-1.0,-1.0,0.0,-2.0,-2.0,0.0
1705326596.5320776,-2.0,-2.0,-2.0,-1.0,-2.0,0.0,-1.0,-1.0
1705326596.5320776,0.0,-2.0,0.0,-1.0,-1.0,-1.0,-1.0,-1.0
1705326596.5520792,0.0,-1.0,-1.0,-2.0,0.0,-2.0,-1.0,-1.0
1705326596.5520792,-1.0,-2.0,-1.0,-1.0,-2.0,0.0,-2.0,-1.0
1705326596.5520792,-1.0,0.0,0.0,-2.0,-1.0,-3.0,-2.0,-1.0
1705326596.5520792,-2.0,-2.0,-1.0,-1.0,-1.0,-2.0,0.0,-2.0
1705326596.5721147,-2.0,-2.0,-1.0,0.0,-1.0,-2.0,-2.0,-2.0
1705326596.5721147,-1.0,0.0,1.0,0.0,1.0,-3.0,0.0,0.0
1705326596.5721147,0.0,-1.0,0.0,0.0,-2.0,-1.0,0.0,-1.0
1705326596.5721147,-1.0,-3.0,-3.0,-2.0,-1.0,1.0,-2.0,-1.0
1705326596.592081,0.0,-1.0,0.0,-1.0,0.0,0.0,-1.0,-2.0
1705326596.592081,0.0,-2.0,-2.0,0.0,-1.0,0.0,0.0,-2.0
1705326596.592081,-1.0,1.0,-1.0,-1.0,0.0,-2.0,-2.0,0.0
1705326596.592081,-1.0,1.0,-2.0,-1.0,1.0,-1.0,-1.0,-1.0
1705326596.6220832,0.0,0.0,0.0,-1.0,-2.0,-3.0,-2.0,0.0
1705326596.6220832,-1.0,0.0,-3.0,0.0,-1.0,-2.0,-1.0,-2.0
1705326596.6220832,1.0,-2.0,-1.0,-1.0,-1.0,0.0,0.0,-1.0
1705326596.6220832,0.0,-1.0,1.0,-1.0,-1.0,1.0,-1.0,-2.0
1705326596.632111,-1.0,0.0,-1.0,0.0,-1.0,-1.0,-1.0,-1.0
1705326596.632111,-1.0,-3.0,-2.0,-1.0,-1.0,0.0,-2.0,-2.0
1705326596.632111,1.0,-1.0,-1.0,-1.0,0.0,-1.0,0.0,-2.0
1705326596.632111,-2.0,-2.0,-1.0,0.0,1.0,-1.0,0.0,0.0
1705326596.652318,-2.0,-1.0,0.0,-3.0,0.0,1.0,1.0,0.0
1705326596.652318,0.0,1.0,-1.0,-2.0,-2.0,0.0,-1.0,-1.0
1705326596.652318,-1.0,0.0,-2.0,-1.0,0.0,-2.0,0.0,-1.0
1705326596.652318,0.0,-1.0,0.0,-2.0,-3.0,-1.0,-2.0,-2.0
1705326596.6721146,-1.0,-2.0,-2.0,-2.0,0.0,1.0,-2.0,0.0
1705326596.6721146,-1.0,0.0,0.0,1.0,-1.0,-2.0,-2.0,-1.0
1705326596.6721146,-2.0,-1.0,-2.0,-2.0,-1.0,-2.0,0.0,-1.0
1705326596.6721146,-1.0,-1.0,-3.0,1.0,-1.0,-2.0,-1.0,0.0
1705326596.6920812,-1.0,-1.0,0.0,-1.0,-1.0,-2.0,0.0,-2.0
1705326596.6920812,-1.0,0.0,0.0,-1.0,0.0,-2.0,-2.0,-1.0
1705326596.6920812,1.0,-1.0,-2.0,0.0,-1.0,0.0,-2.0,0.0
1705326596.6920812,0.0,-1.0,0.0,-2.0,0.0,-4.0,-1.0,-1.0
1705326596.712078,-1.0,-1.0,-1.0,0.0,-3.0,-2.0,-2.0,0.0
1705326596.712078,-1.0,-1.0,-1.0,-1.0,-1.0,-1.0,0.0,1.0
1705326596.7220802,-1.0,-1.0,-2.0,1.0,-1.0,-1.0,-1.0,0.0
1705326596.7220802,0.0,-1.0,-1.0,-1.0,-2.0,-1.0,-1.0,-1.0
1705326596.732123,-2.0,-2.0,-2.0,-2.0,-1.0,2.0,-1.0,0.0
1705326596.732123,0.0,-1.0,-1.0,-1.0,-1.0,-2.0,1.0,-1.0
1705326596.732123,-1.0,0.0,-1.0,0.0,-3.0,-2.0,2.0,0.0
1705326596.732123,-1.0,0.0,-2.0,-1.0,0.0,-1.0,0.0,-1.0
1705326596.75208,0.0,0.0,-2.0,0.0,0.0,-4.0,0.0,-2.0
1705326596.7620795,-3.0,-3.0,-1.0,-3.0,-1.0,-2.0,-1.0,1.0
1705326596.7620795,-1.0,-1.0,0.0,0.0,-1.0,-5.0,1.0,-2.0
1705326596.7620795,1.0,0.0,0.0,-1.0,0.0,-2.0,1.0,-1.0
1705326596.7720802,0.0,-1.0,-3.0,-1.0,-1.0,-3.0,1.0,-1.0
1705326596.7720802,-1.0,-1.0,-3.0,-2.0,-1.0,-1.0,0.0,-1.0
1705326596.7820818,1.0,-1.0,0.0,-2.0,-2.0,0.0,0.0,-2.0
1705326596.7820818,-2.0,-1.0,0.0,-1.0,-1.0,2.0,-1.0,-2.0
1705326596.7920787,0.0,-1.0,0.0,-1.0,-1.0,3.0,-1.0,-1.0
1705326596.7920787,0.0,-1.0,-1.0,0.0,-1.0,3.0,1.0,-2.0
1705326596.7920787,-1.0,-2.0,-3.0,-2.0,0.0,2.0,-1.0,-2.0
1705326596.7920787,-1.0,0.0,-2.0,0.0,-1.0,0.0,-3.0,-1.0
1705326596.8120806,0.0,-1.0,-1.0,-2.0,-1.0,1.0,-3.0,-1.0
1705326596.8120806,-2.0,-1.0,-1.0,-2.0,-1.0,2.0,-1.0,-2.0
1705326596.8120806,-2.0,-3.0,-2.0,0.0,-1.0,1.0,-5.0,-1.0
1705326596.8120806,-2.0,-3.0,-2.0,-1.0,-1.0,0.0,-4.0,-1.0
1705326596.8321164,-1.0,-1.0,0.0,0.0,-2.0,-3.0,-2.0,0.0
1705326596.8321164,0.0,-2.0,0.0,0.0,-2.0,-3.0,-6.0,-1.0
1705326596.8420837,-2.0,-1.0,-2.0,-2.0,-1.0,-3.0,-2.0,1.0
1705326596.8420837,0.0,0.0,-2.0,-1.0,-1.0,-4.0,1.0,0.0
1705326596.8565598,-2.0,1.0,-1.0,-1.0,0.0,-4.0,-1.0,0.0
1705326596.8565598,-1.0,-1.0,-2.0,0.0,0.0,-6.0,-1.0,-1.0
1705326596.8575268,-2.0,-2.0,-1.0,0.0,-1.0,-6.0,-5.0,-1.0
1705326596.8575268,-2.0,0.0,-2.0,0.0,1.0,-4.0,-5.0,0.0
1705326596.8798463,-1.0,-2.0,0.0,-1.0,-1.0,-5.0,3.0,-2.0
1705326596.8798463,-1.0,-1.0,-2.0,0.0,0.0,-1.0,8.0,0.0
1705326596.8808484,-1.0,0.0,-1.0,0.0,-4.0,-1.0,11.0,0.0
1705326596.8808484,-1.0,-1.0,-2.0,-1.0,-3.0,1.0,10.0,0.0
1705326596.8849804,0.0,-1.0,2.0,-2.0,-2.0,0.0,4.0,0.0
1705326596.8849804,-2.0,0.0,0.0,-1.0,0.0,0.0,-3.0,0.0
1705326596.8952181,-1.0,-1.0,-1.0,-2.0,0.0,-1.0,-8.0,-2.0
1705326596.8952181,-2.0,-1.0,-1.0,-1.0,-1.0,0.0,-9.0,0.0
1705326596.915022,-1.0,1.0,-3.0,-1.0,1.0,0.0,-9.0,-2.0
1705326596.915022,-1.0,-2.0,0.0,0.0,0.0,0.0,-7.0,-1.0
1705326596.915022,0.0,0.0,0.0,-2.0,1.0,1.0,-5.0,-1.0
1705326596.915022,-1.0,-2.0,0.0,-1.0,0.0,-1.0,-4.0,-2.0
1705326596.9349835,-2.0,-2.0,-1.0,-1.0,-2.0,-1.0,-3.0,0.0
1705326596.9349835,-1.0,0.0,-2.0,-2.0,-1.0,1.0,-1.0,-2.0
1705326596.9449873,0.0,0.0,-1.0,0.0,0.0,-1.0,-1.0,-2.0
1705326596.9449873,-2.0,-1.0,0.0,-1.0,-1.0,-1.0,1.0,-1.0
1705326596.9449873,-2.0,-2.0,-2.0,-1.0,-1.0,-1.0,-1.0,-1.0
1705326596.9449873,1.0,0.0,-1.0,-1.0,-1.0,-1.0,1.0,1.0
1705326596.9549816,-2.0,-2.0,-2.0,-1.0,-1.0,0.0,1.0,-1.0
1705326596.9549816,0.0,-1.0,-2.0,-1.0,0.0,0.0,-1.0,-2.0
1705326596.975022,-1.0,-2.0,-3.0,0.0,0.0,0.0,1.0,0.0
1705326596.975022,-1.0,-1.0,0.0,-3.0,-2.0,-1.0,-1.0,-1.0
1705326596.975022,-2.0,-1.0,0.0,-1.0,0.0,-1.0,0.0,-1.0
1705326596.975022,1.0,-1.0,-3.0,-2.0,0.0,-2.0,-1.0,0.0
1705326597.0050197,-1.0,1.0,-2.0,-2.0,-1.0,-3.0,0.0,0.0
1705326597.0050197,-1.0,-1.0,0.0,-1.0,-2.0,-1.0,0.0,-1.0
1705326597.0050197,0.0,-2.0,-1.0,0.0,0.0,-2.0,1.0,0.0
1705326597.0050197,-1.0,-1.0,-1.0,0.0,-2.0,-1.0,-1.0,0.0
1705326597.0050197,0.0,-1.0,0.0,0.0,1.0,0.0,-1.0,-1.0
1705326597.0050197,-1.0,-2.0,-2.0,0.0,-1.0,0.0,-1.0,-1.0
1705326597.0150213,1.0,1.0,-1.0,-2.0,-2.0,0.0,-2.0,-1.0
1705326597.0150213,-1.0,-1.0,0.0,-2.0,0.0,-1.0,-1.0,0.0
1705326597.0349822,-1.0,-2.0,-1.0,-1.0,-1.0,-4.0,-1.0,-1.0
1705326597.0349822,-2.0,0.0,-1.0,0.0,0.0,-1.0,0.0,0.0
1705326597.0349822,-1.0,-2.0,-4.0,1.0,-3.0,-2.0,-4.0,-1.0
1705326597.0349822,-2.0,-1.0,0.0,-2.0,0.0,0.0,-1.0,-1.0
1705326597.055017,-1.0,0.0,0.0,0.0,-1.0,-2.0,-3.0,-2.0
1705326597.055017,-1.0,-2.0,-2.0,-1.0,-1.0,-3.0,-1.0,-1.0
1705326597.065019,-1.0,-2.0,-1.0,0.0,-1.0,-1.0,-2.0,-1.0
1705326597.065019,0.0,0.0,-1.0,0.0,-1.0,-2.0,-2.0,-1.0
1705326597.0749865,-1.0,0.0,0.0,-1.0,1.0,-2.0,-2.0,-1.0
1705326597.0749865,0.0,0.0,-1.0,1.0,-2.0,0.0,-2.0,-1.0
1705326597.0749865,-1.0,0.0,0.0,-2.0,0.0,-1.0,-1.0,1.0
1705326597.0749865,-1.0,-1.0,-1.0,0.0,-2.0,-1.0,1.0,-2.0
1705326597.0950174,0.0,-2.0,0.0,-1.0,-1.0,-1.0,0.0,-1.0
1705326597.0950174,-2.0,-1.0,0.0,-4.0,-1.0,-1.0,0.0,-2.0
1705326597.0950174,-1.0,-1.0,0.0,-3.0,-2.0,-1.0,-2.0,-1.0
1705326597.0950174,-1.0,0.0,-2.0,-1.0,-2.0,-2.0,0.0,-1.0
1705326597.1150227,-1.0,0.0,-2.0,0.0,-3.0,0.0,1.0,-1.0
1705326597.1150227,-1.0,-2.0,-2.0,-1.0,-2.0,-3.0,-1.0,-1.0
1705326597.1150227,-2.0,-1.0,-1.0,-1.0,-2.0,0.0,0.0,-3.0
1705326597.1150227,-2.0,-1.0,-1.0,-2.0,0.0,0.0,1.0,-1.0
1705326597.1450193,0.0,-1.0,-3.0,-1.0,-1.0,0.0,0.0,-1.0
1705326597.1450193,-2.0,0.0,-2.0,0.0,0.0,0.0,-2.0,-1.0
1705326597.1450193,0.0,0.0,-1.0,-2.0,0.0,0.0,-1.0,0.0
1705326597.1450193,-2.0,0.0,-1.0,-2.0,-2.0,0.0,-4.0,-1.0
1705326597.1550276,0.0,-1.0,0.0,0.0,-2.0,-1.0,1.0,-3.0
1705326597.1550276,0.0,-2.0,1.0,-1.0,-1.0,-1.0,-1.0,-1.0
1705326597.1550276,-1.0,-1.0,-1.0,0.0,-1.0,-1.0,-1.0,-1.0
1705326597.1550276,0.0,0.0,-1.0,-1.0,-1.0,-1.0,0.0,-2.0
1705326597.1750169,-2.0,-2.0,-2.0,-1.0,-1.0,0.0,-2.0,-1.0
1705326597.1750169,-2.0,-1.0,-1.0,-1.0,-1.0,0.0,-1.0,-2.0
1705326597.1750169,-1.0,-2.0,1.0,-2.0,-2.0,-2.0,0.0,-3.0
1705326597.1750169,-2.0,0.0,0.0,0.0,-1.0,-3.0,0.0,0.0
1705326597.1950269,-1.0,0.0,-1.0,-1.0,-1.0,0.0,-2.0,0.0
1705326597.1950269,-1.0,1.0,0.0,-1.0,0.0,-2.0,0.0,-1.0
1705326597.1950269,-1.0,-2.0,0.0,-2.0,-1.0,0.0,0.0,0.0
1705326597.1950269,0.0,-4.0,0.0,-1.0,-2.0,1.0,-1.0,-1.0
1705326597.2149825,-1.0,0.0,-1.0,-1.0,-1.0,0.0,-1.0,-1.0
1705326597.2149825,0.0,0.0,-1.0,-2.0,-1.0,-1.0,-2.0,0.0
1705326597.2149825,-1.0,-1.0,-2.0,0.0,-1.0,-3.0,-2.0,-1.0
1705326597.2149825,0.0,0.0,0.0,0.0,0.0,-1.0,-2.0,-1.0
1705326597.2349882,-2.0,-1.0,-1.0,-2.0,-1.0,-1.0,-1.0,-1.0
1705326597.2349882,0.0,0.0,-2.0,0.0,0.0,-1.0,0.0,-1.0
1705326597.2349882,1.0,1.0,-1.0,0.0,1.0,-1.0,-1.0,-1.0
1705326597.2349882,-1.0,-1.0,-2.0,-1.0,-2.0,0.0,-1.0,0.0
1705326597.2549865,-2.0,-2.0,0.0,0.0,-1.0,-1.0,0.0,-2.0
1705326597.2549865,-2.0,-2.0,-1.0,-1.0,-2.0,0.0,1.0,-2.0
1705326597.2549865,-3.0,-2.0,-2.0,0.0,0.0,-1.0,-1.0,1.0
1705326597.2549865,0.0,-1.0,-1.0,-1.0,0.0,0.0,-1.0,-1.0
1705326597.2749834,-2.0,1.0,-1.0,0.0,-2.0,0.0,-1.0,1.0
1705326597.2749834,1.0,-4.0,0.0,-1.0,-2.0,-1.0,-2.0,-1.0
1705326597.2749834,-1.0,-1.0,-4.0,0.0,-1.0,-1.0,0.0,-1.0
1705326597.2749834,-2.0,-2.0,-2.0,-1.0,-1.0,-1.0,0.0,0.0
1705326597.3049858,0.0,-1.0,1.0,0.0,0.0,-1.0,2.0,-1.0
1705326597.3049858,-1.0,-1.0,-2.0,-1.0,0.0,-1.0,-1.0,-2.0
1705326597.3049858,-1.0,-3.0,-1.0,-1.0,-1.0,0.0,0.0,-1.0
1705326597.3049858,0.0,-2.0,-2.0,-1.0,-2.0,-1.0,-2.0,-3.0
1705326597.3150182,0.0,-3.0,-1.0,-3.0,-1.0,-2.0,-3.0,-1.0
1705326597.3150182,-2.0,-1.0,-2.0,0.0,-1.0,-1.0,-1.0,-1.0
1705326597.3250177,0.0,-3.0,-1.0,-2.0,-1.0,-2.0,-1.0,-2.0
1705326597.3250177,0.0,2.0,-3.0,-1.0,-1.0,-2.0,-2.0,-2.0
1705326597.3350167,0.0,-3.0,-2.0,-1.0,-1.0,-1.0,-2.0,-2.0
1705326597.3350167,0.0,1.0,1.0,0.0,-1.0,0.0,-2.0,-2.0
1705326597.3350167,-1.0,-1.0,-1.0,0.0,-2.0,-1.0,0.0,0.0
1705326597.3350167,-3.0,-5.0,-1.0,-1.0,-2.0,-2.0,-1.0,0.0
1705326597.3550193,1.0,1.0,0.0,2.0,0.0,0.0,-1.0,0.0
1705326597.3550193,-1.0,1.0,0.0,0.0,0.0,-1.0,-2.0,-1.0
1705326597.3550193,-2.0,1.0,-2.0,-1.0,1.0,0.0,1.0,0.0
1705326597.3550193,0.0,-1.0,0.0,-2.0,-1.0,-1.0,-1.0,-2.0
1705326597.3750198,-1.0,-1.0,-2.0,-2.0,-1.0,0.0,-3.0,0.0
1705326597.3750198,-1.0,0.0,0.0,1.0,-1.0,0.0,-1.0,-1.0
1705326597.3750198,0.0,0.0,2.0,-2.0,-1.0,-1.0,-1.0,-1.0
1705326597.3750198,-1.0,0.0,0.0,-1.0,0.0,0.0,-2.0,-1.0
1705326597.4020164,-2.0,0.0,-1.0,0.0,-2.0,-1.0,2.0,-2.0
1705326597.4020164,-1.0,-1.0,-1.0,-3.0,0.0,0.0,0.0,0.0
1705326597.4020164,0.0,-1.0,-1.0,0.0,-1.0,-1.0,0.0,-1.0
1705326597.4020164,-1.0,-1.0,-2.0,0.0,0.0,1.0,0.0,-2.0
1705326597.417461,-3.0,-1.0,-3.0,0.0,0.0,0.0,-1.0,-2.0
1705326597.417461,1.0,-4.0,-3.0,-2.0,-2.0,1.0,-2.0,-1.0
1705326597.417461,-1.0,1.0,0.0,-1.0,0.0,-1.0,-1.0,-1.0
1705326597.417461,0.0,-1.0,-1.0,-1.0,-2.0,0.0,-4.0,0.0
1705326597.4374645,-2.0,-4.0,-1.0,0.0,0.0,-1.0,-2.0,-1.0
1705326597.4374645,-1.0,2.0,0.0,0.0,-1.0,-2.0,-4.0,0.0
1705326597.4374645,-2.0,-2.0,-3.0,-1.0,-1.0,-4.0,-5.0,-1.0
1705326597.4374645,-3.0,-4.0,-2.0,-1.0,-2.0,-1.0,-4.0,0.0
1705326597.4474635,0.0,-1.0,-1.0,-1.0,-1.0,-3.0,-5.0,-1.0
1705326597.4474635,-1.0,-2.0,-1.0,-3.0,0.0,-3.0,-4.0,0.0
1705326597.4574666,-1.0,0.0,-2.0,-1.0,0.0,-2.0,-3.0,-1.0
1705326597.4574666,-1.0,0.0,0.0,0.0,-3.0,-3.0,0.0,-1.0
1705326597.4774625,-2.0,0.0,-3.0,-2.0,-2.0,-2.0,-1.0,0.0
1705326597.4774625,-1.0,-3.0,0.0,0.0,-2.0,-2.0,2.0,-1.0
1705326597.4774625,-1.0,-2.0,0.0,-1.0,-1.0,-2.0,2.0,0.0
1705326597.4774625,-2.0,-2.0,-2.0,-1.0,-1.0,-2.0,1.0,0.0
1705326597.4974644,-1.0,1.0,1.0,-1.0,0.0,1.0,1.0,-1.0
1705326597.4974644,-1.0,0.0,-3.0,0.0,-2.0,0.0,1.0,-2.0
1705326597.4974644,-1.0,-2.0,-2.0,-4.0,-1.0,0.0,0.0,-2.0
1705326597.4974644,-1.0,1.0,-1.0,-3.0,-2.0,-1.0,0.0,0.0
1705326597.5174658,0.0,-2.0,-1.0,-3.0,0.0,0.0,1.0,0.0
1705326597.5174658,0.0,0.0,0.0,0.0,-1.0,0.0,0.0,-1.0
1705326597.5174658,1.0,-1.0,-1.0,-1.0,-2.0,1.0,1.0,0.0
1705326597.5174658,0.0,2.0,-1.0,0.0,-1.0,1.0,3.0,-1.0
1705326597.5374653,-1.0,-3.0,-4.0,-1.0,-1.0,-1.0,0.0,-1.0
1705326597.5374653,-1.0,-2.0,-1.0,-2.0,-3.0,0.0,0.0,-1.0
1705326597.5374653,0.0,0.0,0.0,-2.0,-2.0,1.0,1.0,-2.0
1705326597.5374653,-2.0,-1.0,0.0,-2.0,1.0,-1.0,0.0,-2.0
1705326597.5575027,-3.0,0.0,0.0,0.0,0.0,-1.0,0.0,-2.0
1705326597.5575027,-3.0,-3.0,-1.0,0.0,0.0,-3.0,-3.0,-3.0
1705326597.5575027,-1.0,-2.0,0.0,1.0,0.0,-1.0,-6.0,-1.0
1705326597.5575027,-2.0,0.0,1.0,0.0,-1.0,-2.0,-8.0,-1.0
1705326597.5774674,0.0,-1.0,-3.0,-3.0,0.0,-3.0,-6.0,0.0
1705326597.5774674,0.0,-2.0,-3.0,-2.0,-1.0,-2.0,-2.0,-2.0
1705326597.5774674,-2.0,-1.0,-2.0,-2.0,-2.0,-1.0,2.0,-1.0
1705326597.5774674,0.0,-1.0,-1.0,-2.0,-1.0,0.0,1.0,-1.0
1705326597.6075003,0.0,1.0,0.0,0.0,-2.0,1.0,1.0,-2.0
1705326597.6075003,-1.0,-1.0,0.0,-1.0,-2.0,1.0,4.0,-1.0
1705326597.6075003,-1.0,-1.0,0.0,-1.0,-1.0,-1.0,-1.0,-2.0
1705326597.6075003,0.0,-2.0,0.0,0.0,-1.0,-2.0,1.0,-3.0
1705326597.6274652,-1.0,0.0,-1.0,2.0,0.0,-1.0,-2.0,-2.0
1705326597.6274652,-2.0,-1.0,0.0,-3.0,-2.0,0.0,-3.0,0.0
1705326597.6274652,2.0,0.0,-1.0,0.0,0.0,-1.0,-1.0,-1.0
1705326597.6274652,0.0,-2.0,-2.0,-3.0,0.0,0.0,1.0,-1.0
1705326597.6274652,0.0,-2.0,0.0,-1.0,-2.0,2.0,2.0,-1.0
1705326597.6274652,0.0,0.0,0.0,-2.0,-2.0,-1.0,0.0,-1.0
1705326597.6374629,-1.0,-1.0,0.0,-1.0,-2.0,0.0,1.0,-1.0
1705326597.6374629,-1.0,-1.0,-1.0,-1.0,-1.0,-1.0,1.0,-4.0
1705326597.6574628,-2.0,-1.0,-3.0,-3.0,-2.0,-1.0,-1.0,-2.0
1705326597.6574628,-1.0,0.0,0.0,0.0,0.0,0.0,-3.0,-2.0
1705326597.6574628,-1.0,-3.0,-1.0,-1.0,1.0,-1.0,-4.0,-1.0
1705326597.6574628,-1.0,0.0,-2.0,1.0,0.0,-2.0,-6.0,0.0
1705326597.6874678,0.0,-2.0,1.0,0.0,-1.0,-3.0,-3.0,-1.0
1705326597.6874678,-3.0,-2.0,-1.0,0.0,-1.0,-4.0,-2.0,-1.0
1705326597.6874678,-2.0,-1.0,-1.0,0.0,-3.0,-2.0,-2.0,-2.0
1705326597.6874678,-1.0,-1.0,-1.0,-1.0,-2.0,-2.0,-1.0,-1.0
1705326597.6874678,-1.0,-2.0,0.0,2.0,0.0,-1.0,-2.0,-2.0
1705326597.6874678,-1.0,-1.0,0.0,-1.0,0.0,-4.0,-3.0,1.0
1705326597.6974657,-3.0,-2.0,-2.0,-1.0,-2.0,-2.0,-2.0,-1.0
1705326597.6974657,-1.0,-3.0,-2.0,-1.0,-1.0,-1.0,-1.0,1.0
1705326597.727494,-2.0,-2.0,0.0,-1.0,-1.0,-1.0,0.0,-1.0
1705326597.727494,-1.0,0.0,-1.0,-1.0,-2.0,-1.0,-1.0,0.0
1705326597.727494,-1.0,-1.0,-1.0,-1.0,0.0,1.0,0.0,-1.0
1705326597.727494,0.0,-1.0,-1.0,0.0,-1.0,0.0,1.0,-1.0
1705326597.7374663,1.0,1.0,-2.0,-3.0,-3.0,0.0,2.0,0.0
1705326597.7374663,0.0,0.0,-2.0,-3.0,-1.0,1.0,2.0,-2.0
1705326597.7374663,2.0,0.0,-1.0,-2.0,-1.0,1.0,0.0,0.0
1705326597.7374663,0.0,0.0,0.0,-1.0,0.0,-1.0,0.0,0.0
1705326597.7474656,1.0,-1.0,-2.0,-1.0,1.0,-1.0,-1.0,0.0
1705326597.7474656,-1.0,0.0,-1.0,0.0,0.0,0.0,1.0,-1.0
1705326597.7574644,-2.0,-1.0,1.0,-1.0,0.0,-2.0,0.0,-1.0
1705326597.7574644,-2.0,0.0,-1.0,-1.0,-2.0,-1.0,-2.0,0.0
1705326597.7774646,-1.0,-3.0,0.0,0.0,-1.0,-3.0,-1.0,-2.0
1705326597.7774646,-1.0,-1.0,-2.0,-1.0,-1.0,-1.0,-1.0,-2.0
1705326597.7774646,-2.0,1.0,0.0,0.0,-1.0,-1.0,-3.0,-1.0
1705326597.7774646,0.0,-1.0,0.0,0.0,0.0,-2.0,-1.0,0.0
1705326597.7974656,-1.0,0.0,-3.0,-1.0,-1.0,-1.0,-2.0,-3.0
1705326597.7974656,-1.0,-2.0,1.0,-2.0,0.0,0.0,-2.0,-1.0
1705326597.8074977,-2.0,-2.0,-1.0,0.0,-1.0,0.0,0.0,0.0
1705326597.8074977,-3.0,-3.0,-3.0,0.0,-1.0,0.0,-3.0,-1.0
1705326597.8074977,0.0,-1.0,0.0,0.0,-1.0,-1.0,-2.0,-1.0
1705326597.8074977,-2.0,-1.0,-2.0,1.0,1.0,-1.0,-1.0,-2.0
1705326597.8175004,-3.0,-1.0,-1.0,0.0,-1.0,-1.0,-1.0,-2.0
1705326597.8175004,-2.0,0.0,0.0,0.0,-1.0,-2.0,-2.0,-2.0
1705326597.8375032,-2.0,-3.0,-1.0,-1.0,-1.0,-1.0,-3.0,0.0
1705326597.8375032,0.0,-1.0,-1.0,-1.0,0.0,-3.0,-2.0,0.0
1705326597.8474658,-2.0,0.0,-1.0,-1.0,1.0,0.0,-1.0,-1.0
1705326597.8474658,0.0,-2.0,-3.0,-1.0,-1.0,-1.0,-1.0,-1.0
1705326597.8574667,0.0,0.0,0.0,0.0,1.0,0.0,-1.0,-1.0
1705326597.8574667,-1.0,1.0,-2.0,-2.0,-1.0,-1.0,-2.0,1.0
1705326597.8574667,0.0,-1.0,-2.0,-2.0,-1.0,0.0,-2.0,0.0
1705326597.8574667,0.0,-1.0,1.0,-3.0,0.0,-3.0,0.0,-1.0
1705326597.8774698,-1.0,0.0,0.0,-2.0,-2.0,0.0,0.0,-1.0
1705326597.8774698,-2.0,-1.0,0.0,-3.0,-2.0,-2.0,-1.0,0.0
1705326597.8774698,1.0,-1.0,0.0,-1.0,-2.0,-2.0,0.0,-1.0
1705326597.8774698,-2.0,-1.0,-1.0,-1.0,-2.0,0.0,-1.0,-1.0
1705326597.8974633,0.0,-1.0,0.0,0.0,-2.0,0.0,-2.0,-1.0
1705326597.8974633,-1.0,-2.0,-1.0,-1.0,-1.0,0.0,0.0,-2.0
1705326597.8974633,-1.0,1.0,0.0,-1.0,1.0,-2.0,0.0,-1.0
1705326597.8974633,0.0,0.0,-1.0,0.0,-1.0,1.0,-1.0,-1.0
1705326597.9227066,-1.0,-2.0,-4.0,-2.0,-2.0,-2.0,-2.0,-1.0
1705326597.9227066,1.0,1.0,-1.0,0.0,-1.0,0.0,-2.0,0.0
1705326597.9227066,-1.0,-2.0,-4.0,-1.0,-3.0,-3.0,-2.0,-1.0
1705326597.9237063,-1.0,-2.0,0.0,-1.0,-1.0,-1.0,-2.0,0.0
1705326597.9366174,-1.0,-1.0,1.0,1.0,-1.0,-2.0,-3.0,-3.0
1705326597.9366174,-2.0,-2.0,-1.0,0.0,-1.0,0.0,-1.0,-1.0
1705326597.9445632,1.0,-3.0,-1.0,0.0,-2.0,-1.0,0.0,-1.0
1705326597.9445632,-3.0,-2.0,-2.0,-2.0,-1.0,-2.0,-2.0,-1.0
1705326597.9503953,0.0,1.0,1.0,-1.0,-1.0,-2.0,-1.0,-2.0
1705326597.9503953,0.0,0.0,1.0,0.0,-1.0,-1.0,-1.0,-2.0
1705326597.9603965,-1.0,-5.0,-5.0,-3.0,-2.0,0.0,0.0,-2.0
1705326597.9603965,-1.0,1.0,-1.0,-2.0,-2.0,-1.0,-2.0,-2.0
1705326597.9803972,-2.0,-2.0,-2.0,-2.0,-1.0,-1.0,0.0,1.0
1705326597.9803972,-1.0,-1.0,0.0,-1.0,-1.0,-1.0,-2.0,-2.0
1705326597.9803972,-1.0,1.0,0.0,0.0,0.0,-1.0,0.0,-1.0
1705326597.9803972,0.0,0.0,0.0,-1.0,-1.0,0.0,0.0,-1.0
1705326598.0003965,-1.0,-1.0,-1.0,-3.0,-1.0,-2.0,0.0,-3.0
1705326598.0003965,0.0,0.0,-1.0,0.0,1.0,-2.0,-1.0,-1.0
1705326598.0003965,0.0,0.0,0.0,-1.0,-1.0,-1.0,-2.0,0.0
1705326598.0003965,-3.0,-5.0,-2.0,-2.0,-1.0,-1.0,-1.0,-1.0
1705326598.0203974,0.0,2.0,0.0,-1.0,-1.0,0.0,-1.0,1.0
1705326598.0203974,-2.0,-1.0,-2.0,-2.0,-1.0,-1.0,0.0,-1.0
1705326598.0203974,-1.0,1.0,1.0,-1.0,-3.0,-1.0,-2.0,-2.0
1705326598.0203974,-1.0,2.0,0.0,-1.0,0.0,-1.0,1.0,-1.0
1705326598.0404391,0.0,-2.0,-2.0,-1.0,-1.0,-1.0,-1.0,-2.0
1705326598.0404391,0.0,-2.0,-2.0,-2.0,-1.0,0.0,-1.0,-2.0
1705326598.0404391,-1.0,-2.0,-1.0,-1.0,0.0,0.0,-1.0,-1.0
1705326598.0404391,0.0,-1.0,-2.0,-1.0,-1.0,0.0,-1.0,-2.0
1705326598.0704372,-1.0,0.0,0.0,-1.0,-1.0,1.0,-1.0,0.0
1705326598.0704372,-2.0,0.0,-1.0,0.0,-1.0,-1.0,-1.0,-1.0
1705326598.0704372,0.0,-1.0,-2.0,-2.0,0.0,-1.0,-1.0,-1.0
1705326598.0704372,0.0,-2.0,0.0,-1.0,0.0,-2.0,2.0,0.0
1705326598.0704372,-2.0,-3.0,-2.0,0.0,-3.0,-2.0,-1.0,0.0
1705326598.0704372,-3.0,-3.0,-3.0,0.0,-1.0,-1.0,0.0,-1.0
1705326598.0803974,-1.0,-1.0,1.0,1.0,-1.0,-1.0,-1.0,-1.0
1705326598.0803974,-1.0,-1.0,-1.0,-1.0,-2.0,-1.0,-2.0,-1.0
1705326598.1006863,-1.0,1.0,-1.0,-1.0,-2.0,1.0,-1.0,0.0
1705326598.1006863,-3.0,-3.0,-2.0,-3.0,-2.0,-2.0,0.0,-2.0
1705326598.1006863,-3.0,-3.0,-2.0,-1.0,0.0,1.0,0.0,-1.0
1705326598.1006863,-1.0,1.0,1.0,1.0,0.0,1.0,0.0,-1.0
1705326598.12074,-2.0,-1.0,-1.0,-1.0,-2.0,-1.0,-1.0,-1.0
1705326598.12074,-2.0,-1.0,-2.0,0.0,-2.0,-2.0,-2.0,-2.0
1705326598.1307003,0.0,1.0,0.0,-1.0,-1.0,-2.0,-1.0,0.0
1705326598.1307003,-1.0,-2.0,-3.0,-2.0,-2.0,-2.0,-1.0,-2.0
1705326598.1307003,-1.0,-1.0,-1.0,-2.0,1.0,-2.0,-1.0,-2.0
1705326598.1307003,-1.0,1.0,-2.0,-1.0,-2.0,-1.0,-1.0,-2.0
1705326598.1407003,-2.0,-2.0,-1.0,0.0,-1.0,-1.0,-3.0,-3.0
1705326598.1407003,0.0,0.0,0.0,0.0,-1.0,0.0,-4.0,-1.0
1705326598.160701,-1.0,-3.0,-3.0,-1.0,-2.0,-3.0,-2.0,-1.0
1705326598.160701,-2.0,-2.0,-2.0,-1.0,-1.0,1.0,-2.0,-1.0
1705326598.160701,-3.0,1.0,-2.0,-2.0,-1.0,0.0,-1.0,-1.0
1705326598.160701,-1.0,-2.0,0.0,-2.0,-1.0,-2.0,-1.0,-1.0
1705326598.1907015,-1.0,-1.0,-1.0,0.0,0.0,1.0,-1.0,-1.0
1705326598.1907015,-1.0,-1.0,-2.0,0.0,0.0,-1.0,-1.0,0.0
1705326598.1907015,1.0,1.0,-2.0,0.0,0.0,0.0,-1.0,-1.0
1705326598.1907015,-1.0,0.0,-1.0,-1.0,-2.0,0.0,-2.0,-2.0
1705326598.1907015,-2.0,-2.0,-2.0,-1.0,-1.0,-1.0,0.0,0.0
1705326598.1907015,-2.0,-1.0,0.0,-1.0,-2.0,-1.0,-1.0,0.0
1705326598.200701,-2.0,-1.0,-3.0,0.0,-1.0,-1.0,0.0,-2.0
1705326598.200701,-1.0,-3.0,-2.0,0.0,-2.0,0.0,-1.0,0.0
1705326598.220702,-1.0,-1.0,1.0,0.0,-1.0,0.0,0.0,-1.0
1705326598.220702,-1.0,0.0,0.0,-2.0,-1.0,1.0,-2.0,-2.0
1705326598.220702,-2.0,0.0,0.0,-1.0,-1.0,-2.0,-2.0,-1.0
1705326598.220702,-1.0,-1.0,-2.0,-2.0,-1.0,0.0,1.0,-1.0
1705326598.2407014,-1.0,-1.0,0.0,-1.0,-1.0,0.0,-1.0,-1.0
1705326598.2407014,-1.0,-2.0,-2.0,-1.0,-1.0,-2.0,0.0,0.0
1705326598.2407014,-1.0,-4.0,-2.0,-3.0,-2.0,-2.0,1.0,-1.0
1705326598.2407014,-2.0,1.0,-1.0,0.0,0.0,-1.0,-1.0,-1.0
1705326598.2507002,-1.0,0.0,1.0,-1.0,0.0,0.0,0.0,-1.0
1705326598.2507002,0.0,0.0,-1.0,-1.0,-1.0,-1.0,0.0,0.0
1705326598.260739,-2.0,-1.0,0.0,-1.0,-2.0,0.0,0.0,-1.0
1705326598.260739,-1.0,-2.0,-2.0,-1.0,-2.0,-1.0,0.0,-1.0
1705326598.280741,-2.0,-2.0,-4.0,-1.0,1.0,-3.0,-2.0,0.0
1705326598.280741,-1.0,0.0,0.0,-1.0,-2.0,-1.0,-1.0,-1.0
1705326598.280741,-1.0,-1.0,-1.0,-2.0,0.0,0.0,-2.0,0.0
1705326598.280741,0.0,1.0,-2.0,-1.0,-1.0,0.0,-1.0,-2.0
1705326598.300702,0.0,0.0,-1.0,-1.0,-1.0,-1.0,-3.0,0.0
1705326598.300702,-1.0,-5.0,-3.0,-1.0,-1.0,0.0,-1.0,0.0
1705326598.300702,-1.0,-2.0,-2.0,0.0,0.0,-1.0,-2.0,-2.0
1705326598.300702,0.0,-1.0,0.0,-1.0,-2.0,-1.0,-1.0,-1.0
1705326598.3107345,-1.0,-2.0,-1.0,0.0,0.0,-1.0,-1.0,-1.0
1705326598.3107345,-1.0,-1.0,2.0,-1.0,-2.0,-3.0,-3.0,0.0
1705326598.320718,-1.0,-2.0,-1.0,-2.0,-2.0,-2.0,0.0,1.0
1705326598.320718,0.0,-3.0,-2.0,-1.0,0.0,-2.0,-2.0,1.0
1705326598.3410642,-2.0,0.0,0.0,1.0,-3.0,0.0,-1.0,-2.0
1705326598.3410642,-3.0,-1.0,-1.0,0.0,-2.0,-2.0,-1.0,-1.0
1705326598.3410642,-1.0,-3.0,0.0,0.0,0.0,-2.0,-2.0,-2.0
1705326598.3410642,0.0,2.0,0.0,-1.0,0.0,-1.0,-1.0,-1.0
1705326598.3606997,0.0,-1.0,-2.0,-1.0,-1.0,1.0,0.0,-1.0
1705326598.3606997,1.0,-1.0,-2.0,-2.0,0.0,1.0,0.0,-2.0
1705326598.3606997,0.0,1.0,-1.0,1.0,-2.0,0.0,0.0,-1.0
1705326598.3606997,-1.0,0.0,-2.0,0.0,-2.0,0.0,0.0,0.0
1705326598.3907003,-1.0,-1.0,-3.0,-3.0,-2.0,-1.0,1.0,-2.0
1705326598.3907003,-1.0,0.0,1.0,-1.0,1.0,-1.0,1.0,0.0
1705326598.3907003,0.0,0.0,0.0,-3.0,2.0,-2.0,-2.0,0.0
1705326598.3907003,-1.0,-1.0,0.0,-2.0,-1.0,-3.0,-2.0,-1.0
1705326598.4007003,-1.0,0.0,-1.0,0.0,1.0,-1.0,1.0,-1.0
1705326598.4007003,-1.0,-2.0,-2.0,-2.0,0.0,-1.0,0.0,-2.0
1705326598.4007003,-1.0,-1.0,0.0,-2.0,-1.0,-2.0,1.0,-1.0
1705326598.4007003,-1.0,-1.0,0.0,0.0,-2.0,-1.0,1.0,-2.0
1705326598.4207,0.0,1.0,0.0,0.0,-2.0,-1.0,0.0,-2.0
1705326598.4207,0.0,-1.0,-2.0,-1.0,0.0,0.0,2.0,-1.0
1705326598.4207,-2.0,-1.0,-1.0,-3.0,-2.0,-2.0,1.0,0.0
1705326598.4207,-2.0,-2.0,-2.0,-2.0,0.0,0.0,-1.0,-1.0
1705326598.4307017,-2.0,-1.0,0.0,-1.0,1.0,-1.0,-4.0,-3.0
1705326598.4307017,-3.0,0.0,0.0,-1.0,-1.0,-1.0,-4.0,0.0
1705326598.4472663,-3.0,-1.0,-3.0,0.0,-1.0,-1.0,-5.0,-2.0
1705326598.448266,-1.0,-2.0,0.0,-1.0,-1.0,-1.0,-5.0,0.0
1705326598.4663804,-1.0,-2.0,-3.0,-2.0,-1.0,-3.0,-3.0,-1.0
1705326598.4663804,0.0,0.0,-1.0,0.0,-2.0,0.0,-4.0,-1.0
1705326598.4663804,-2.0,-1.0,-1.0,-1.0,-3.0,-1.0,-5.0,-1.0
1705326598.4663804,-1.0,-1.0,-1.0,-1.0,-1.0,0.0,-2.0,-2.0
1705326598.4763844,-2.0,-3.0,1.0,-1.0,-1.0,-1.0,-2.0,-2.0
1705326598.4763844,-2.0,1.0,0.0,-1.0,-1.0,-4.0,-2.0,0.0
1705326598.486382,1.0,-2.0,-1.0,1.0,-1.0,-1.0,0.0,0.0
1705326598.486382,-1.0,0.0,-1.0,0.0,-1.0,-1.0,-2.0,-1.0
1705326598.4964263,0.0,-2.0,-1.0,-1.0,-2.0,0.0,-2.0,-1.0
1705326598.4964263,-1.0,-2.0,-2.0,-3.0,-1.0,-1.0,0.0,-1.0
1705326598.5064158,-2.0,1.0,-1.0,-1.0,1.0,0.0,-1.0,-2.0
1705326598.5064158,-2.0,0.0,-1.0,-1.0,-1.0,-1.0,0.0,0.0
1705326598.5263848,-2.0,-1.0,-3.0,-1.0,0.0,0.0,0.0,-1.0
1705326598.5263848,0.0,-1.0,-2.0,0.0,-2.0,2.0,0.0,-1.0
1705326598.5263848,-1.0,-1.0,0.0,0.0,-1.0,1.0,1.0,0.0
1705326598.5263848,0.0,-2.0,-2.0,-1.0,-1.0,-3.0,-1.0,-1.0
1705326598.5364172,-2.0,-1.0,1.0,-3.0,0.0,-1.0,-2.0,-1.0
1705326598.5364172,1.0,0.0,-1.0,0.0,0.0,-1.0,0.0,-1.0
1705326598.5463827,0.0,-1.0,-1.0,-1.0,-1.0,-1.0,-1.0,-2.0
1705326598.5463827,-3.0,-1.0,-1.0,-1.0,-3.0,0.0,0.0,-2.0
1705326598.5564234,-1.0,-1.0,0.0,0.0,-1.0,-2.0,-1.0,0.0
1705326598.5564234,-2.0,0.0,2.0,-2.0,0.0,-2.0,-1.0,-2.0
1705326598.576382,0.0,-1.0,-1.0,-1.0,-2.0,-2.0,-2.0,-1.0
1705326598.576382,1.0,0.0,-1.0,1.0,0.0,-2.0,0.0,-2.0
1705326598.576382,0.0,-1.0,0.0,-1.0,-2.0,-1.0,0.0,-1.0
1705326598.576382,-3.0,-2.0,-2.0,-2.0,-1.0,-1.0,-1.0,-2.0
1705326598.576382,-2.0,0.0,-3.0,-1.0,-1.0,1.0,0.0,-1.0
1705326598.576382,-2.0,-1.0,0.0,-1.0,-1.0,1.0,-2.0,-1.0
1705326598.5964258,0.0,0.0,-2.0,0.0,-2.0,0.0,-1.0,0.0
1705326598.5964258,-1.0,-1.0,1.0,0.0,-1.0,0.0,0.0,1.0
1705326598.6064208,-2.0,-3.0,-2.0,-1.0,-3.0,-1.0,0.0,-2.0
1705326598.6064208,-2.0,-2.0,0.0,0.0,-1.0,-1.0,-3.0,-1.0
1705326598.6163838,-2.0,-1.0,-2.0,-1.0,1.0,-3.0,-2.0,-1.0
1705326598.6163838,-2.0,0.0,-1.0,0.0,-2.0,-2.0,-4.0,0.0
1705326598.626383,-1.0,0.0,-2.0,-1.0,0.0,-1.0,-3.0,-1.0
1705326598.626383,-1.0,-2.0,-3.0,-1.0,-1.0,-2.0,-3.0,-2.0
1705326598.636382,-1.0,0.0,-1.0,-1.0,-1.0,0.0,-1.0,-1.0
1705326598.636382,0.0,-2.0,-2.0,0.0,-2.0,-2.0,-1.0,0.0
1705326598.636382,-1.0,0.0,0.0,-2.0,-2.0,-2.0,0.0,0.0
1705326598.636382,-1.0,-2.0,0.0,-2.0,-2.0,-1.0,-1.0,-2.0
1705326598.6563852,-2.0,-1.0,-1.0,-1.0,-1.0,-2.0,-3.0,-2.0
1705326598.6563852,-2.0,-1.0,-3.0,-1.0,-1.0,-1.0,-4.0,-2.0
1705326598.6663857,0.0,-1.0,-2.0,1.0,-1.0,-3.0,-2.0,-1.0
1705326598.6663857,0.0,-1.0,-2.0,-1.0,-1.0,-2.0,-2.0,0.0
1705326598.6764169,0.0,-2.0,-1.0,-2.0,-2.0,-2.0,-1.0,-1.0
1705326598.6764169,0.0,1.0,-1.0,-1.0,-1.0,-2.0,-1.0,0.0
1705326598.686386,-2.0,-1.0,-2.0,-1.0,-1.0,0.0,-1.0,-1.0
1705326598.686386,-1.0,0.0,-1.0,0.0,-2.0,0.0,3.0,0.0
1705326598.6963844,-2.0,-2.0,-2.0,0.0,-1.0,-3.0,-1.0,-1.0
1705326598.6963844,-1.0,1.0,-1.0,-1.0,-1.0,-2.0,1.0,-1.0
1705326598.6963844,0.0,-1.0,0.0,1.0,-1.0,-1.0,1.0,-1.0
1705326598.6963844,-1.0,-1.0,-1.0,-2.0,-2.0,-1.0,-1.0,-1.0
1705326598.716383,-1.0,0.0,2.0,-2.0,-1.0,0.0,1.0,0.0
1705326598.716383,-3.0,-2.0,-2.0,-1.0,0.0,0.0,0.0,-1.0
1705326598.7263825,0.0,0.0,-1.0,-1.0,0.0,0.0,0.0,-1.0
1705326598.7263825,-2.0,-1.0,0.0,-1.0,1.0,1.0,0.0,0.0
1705326598.736387,1.0,-1.0,-1.0,-1.0,-2.0,-1.0,-1.0,0.0
1705326598.736387,-1.0,-1.0,1.0,-1.0,-2.0,0.0,-2.0,-2.0
1705326598.7463825,0.0,-1.0,-2.0,-1.0,-2.0,0.0,0.0,0.0
1705326598.7463825,-1.0,-2.0,-1.0,-1.0,-1.0,1.0,-2.0,0.0
1705326598.756434,-2.0,-2.0,-1.0,-3.0,-1.0,0.0,-2.0,0.0
1705326598.756434,0.0,-2.0,-1.0,-2.0,-1.0,-1.0,-1.0,-1.0
1705326598.756434,-1.0,-1.0,-2.0,-1.0,-1.0,0.0,0.0,-2.0
1705326598.756434,0.0,1.0,-1.0,-2.0,-1.0,-3.0,-1.0,-2.0
1705326598.776428,-2.0,-2.0,-2.0,-1.0,-2.0,-2.0,1.0,-1.0
1705326598.776428,-1.0,0.0,0.0,-1.0,-1.0,1.0,-2.0,-1.0
1705326598.786418,-1.0,0.0,-1.0,-2.0,-2.0,1.0,0.0,-1.0
1705326598.786418,1.0,-1.0,-1.0,-2.0,-1.0,-1.0,0.0,-1.0
1705326598.7963843,0.0,-1.0,-2.0,-2.0,0.0,-1.0,2.0,0.0
1705326598.7963843,-1.0,-1.0,-1.0,-1.0,-1.0,0.0,-1.0,-2.0
1705326598.8063836,-3.0,-2.0,-1.0,-2.0,0.0,0.0,0.0,-1.0
1705326598.8063836,-2.0,0.0,-1.0,-1.0,0.0,-1.0,-2.0,0.0
1705326598.8164287,-1.0,-1.0,-2.0,-1.0,-3.0,-1.0,-1.0,1.0
1705326598.8164287,-1.0,-1.0,-2.0,-1.0,-1.0,0.0,-1.0,0.0
1705326598.8164287,0.0,-2.0,-1.0,0.0,0.0,-3.0,-1.0,-1.0
1705326598.8164287,-1.0,-2.0,-2.0,0.0,-2.0,0.0,0.0,-2.0
1705326598.8463864,-1.0,1.0,1.0,0.0,-1.0,-2.0,-1.0,-3.0
1705326598.8463864,0.0,-2.0,-2.0,-1.0,-2.0,-2.0,1.0,-2.0
1705326598.8463864,1.0,0.0,0.0,-2.0,-2.0,-2.0,-2.0,0.0
1705326598.8463864,-1.0,-2.0,0.0,1.0,-3.0,-2.0,-1.0,1.0
1705326598.8563824,1.0,1.0,-3.0,-2.0,-1.0,-1.0,-1.0,0.0
1705326598.8563824,-1.0,-2.0,-1.0,-1.0,-1.0,-1.0,-1.0,-1.0
1705326598.866382,0.0,-1.0,-1.0,-1.0,-1.0,-2.0,-3.0,-2.0
1705326598.866382,-1.0,0.0,1.0,-2.0,-1.0,-2.0,-1.0,-1.0
1705326598.8763828,-1.0,0.0,-2.0,0.0,-2.0,0.0,0.0,0.0
1705326598.8763828,1.0,-1.0,-1.0,0.0,-1.0,-1.0,-1.0,0.0
1705326598.8863835,-1.0,-1.0,-1.0,0.0,-1.0,0.0,-1.0,-1.0
1705326598.8863835,0.0,-2.0,0.0,0.0,-1.0,0.0,-1.0,-1.0
1705326598.8963833,-2.0,-2.0,-1.0,-1.0,-2.0,0.0,0.0,-2.0
1705326598.8963833,-1.0,2.0,-3.0,-2.0,-3.0,-1.0,-1.0,-1.0
1705326598.9063828,-1.0,-2.0,-1.0,-1.0,-2.0,-1.0,-1.0,-2.0
1705326598.9063828,-1.0,0.0,-3.0,-1.0,-2.0,-1.0,-2.0,0.0
1705326598.9163816,-2.0,-1.0,1.0,0.0,0.0,-1.0,-1.0,0.0
1705326598.9163816,-1.0,0.0,-1.0,0.0,0.0,-1.0,0.0,1.0
1705326598.926384,-1.0,0.0,2.0,-1.0,1.0,-2.0,-1.0,0.0
1705326598.926384,-1.0,-2.0,-3.0,-2.0,-1.0,-1.0,-2.0,-2.0
1705326598.9363859,-1.0,-2.0,-1.0,-2.0,-1.0,-1.0,-3.0,-1.0
1705326598.9363859,-2.0,-3.0,-1.0,-2.0,-2.0,-2.0,-2.0,0.0
1705326598.9463842,-2.0,0.0,-2.0,1.0,1.0,0.0,-1.0,0.0
1705326598.9463842,0.0,0.0,-1.0,-2.0,0.0,1.0,-4.0,-1.0
1705326598.956416,0.0,0.0,-1.0,-2.0,-1.0,-1.0,-1.0,-2.0
1705326598.956416,0.0,0.0,0.0,0.0,-2.0,-3.0,-2.0,-1.0
1705326598.9663825,0.0,-3.0,-2.0,-2.0,-2.0,-2.0,-1.0,0.0
1705326598.9663825,-1.0,1.0,0.0,-1.0,-2.0,0.0,1.0,-1.0
1705326598.9897416,-2.0,-3.0,-1.0,-2.0,-2.0,0.0,-2.0,-1.0
1705326598.9897416,-2.0,-1.0,0.0,-1.0,-1.0,-1.0,0.0,0.0
1705326598.9897416,-1.0,-1.0,0.0,-2.0,-3.0,-2.0,0.0,-1.0
1705326598.9897416,1.0,-1.0,-1.0,0.0,1.0,-1.0,0.0,0.0
1705326598.999279,-1.0,1.0,-3.0,-1.0,-3.0,-1.0,0.0,-2.0
1705326598.999279,-1.0,0.0,-1.0,0.0,-1.0,0.0,1.0,0.0
1705326599.0192814,-2.0,0.0,0.0,-2.0,-1.0,-1.0,0.0,0.0
1705326599.0192814,-2.0,-2.0,0.0,0.0,-1.0,-2.0,0.0,-2.0
1705326599.0192814,0.0,-1.0,-1.0,1.0,-1.0,-1.0,0.0,-2.0
1705326599.0192814,-1.0,-1.0,-3.0,-3.0,0.0,1.0,-1.0,-1.0
1705326599.0192814,-2.0,-1.0,-1.0,-2.0,-2.0,-1.0,1.0,-1.0
1705326599.0192814,-1.0,-3.0,-2.0,-2.0,-2.0,-1.0,0.0,-2.0
1705326599.0393214,-2.0,-1.0,0.0,-1.0,-1.0,-2.0,0.0,-2.0
1705326599.0393214,-1.0,-2.0,-1.0,-2.0,-2.0,0.0,-1.0,-1.0
1705326599.0492816,0.0,1.0,1.0,0.0,1.0,0.0,0.0,-1.0
1705326599.0492816,-1.0,-2.0,-3.0,-3.0,-1.0,-3.0,-1.0,1.0
1705326599.059282,-1.0,0.0,0.0,0.0,0.0,-1.0,-1.0,0.0
1705326599.059282,-1.0,-2.0,-2.0,-1.0,-1.0,-2.0,-3.0,-1.0
1705326599.0692835,0.0,-1.0,0.0,1.0,-1.0,-2.0,-1.0,-2.0
1705326599.0692835,-1.0,-2.0,0.0,-2.0,-1.0,-2.0,0.0,-1.0
1705326599.0792825,0.0,-3.0,-2.0,0.0,0.0,0.0,-1.0,-1.0
1705326599.0792825,0.0,1.0,0.0,1.0,0.0,-1.0,-1.0,-2.0
1705326599.0792825,-2.0,-2.0,0.0,1.0,-1.0,1.0,-2.0,-1.0
1705326599.0792825,-1.0,2.0,1.0,-1.0,0.0,-1.0,-1.0,-2.0
1705326599.099282,1.0,0.0,-1.0,-3.0,0.0,-3.0,0.0,0.0
1705326599.099282,-1.0,-1.0,0.0,-3.0,0.0,0.0,1.0,-1.0
1705326599.1092813,-2.0,-3.0,-3.0,-1.0,-3.0,-2.0,-1.0,0.0
1705326599.1092813,0.0,0.0,-2.0,-1.0,-1.0,1.0,0.0,-2.0
1705326599.1192832,1.0,-1.0,1.0,-1.0,-1.0,-1.0,0.0,-2.0
1705326599.1192832,-1.0,-2.0,-1.0,0.0,-2.0,0.0,1.0,-1.0
1705326599.1292822,0.0,1.0,-1.0,-2.0,-1.0,-1.0,-1.0,-3.0
1705326599.1292822,-1.0,-1.0,-1.0,-2.0,-1.0,2.0,1.0,-1.0
1705326599.1492836,0.0,-1.0,0.0,-2.0,-1.0,2.0,0.0,-1.0
1705326599.1492836,0.0,-2.0,-1.0,-4.0,-1.0,-1.0,0.0,-1.0
1705326599.1492836,-1.0,-1.0,-1.0,-2.0,-2.0,0.0,1.0,-1.0
1705326599.1492836,0.0,0.0,-2.0,-3.0,-1.0,0.0,-2.0,-2.0
1705326599.1592863,-1.0,-1.0,-1.0,-1.0,0.0,-1.0,-2.0,0.0
1705326599.1592863,-1.0,0.0,-1.0,-2.0,-1.0,0.0,-2.0,-2.0
1705326599.1692817,1.0,0.0,-1.0,-2.0,-2.0,-2.0,-2.0,-1.0
1705326599.1692817,-1.0,-4.0,-1.0,-1.0,0.0,-3.0,-3.0,-3.0
1705326599.1792827,0.0,-2.0,-1.0,-1.0,-1.0,-1.0,-1.0,0.0
1705326599.1792827,-2.0,-2.0,-1.0,0.0,0.0,0.0,-3.0,0.0
1705326599.1792827,-1.0,-2.0,0.0,-1.0,1.0,-1.0,-3.0,0.0
1705326599.1792827,-1.0,-1.0,1.0,0.0,-2.0,-3.0,-3.0,-1.0
1705326599.1992815,-2.0,-1.0,-3.0,0.0,-1.0,-3.0,-4.0,-3.0
1705326599.1992815,-1.0,-1.0,-1.0,0.0,-2.0,-3.0,-3.0,-1.0
1705326599.1992815,0.0,-1.0,-1.0,-1.0,-2.0,-2.0,-2.0,0.0
1705326599.1992815,-2.0,0.0,0.0,0.0,-1.0,-2.0,-1.0,0.0
1705326599.2192826,-1.0,0.0,-2.0,-1.0,-1.0,-2.0,-2.0,-1.0
1705326599.2192826,-1.0,-2.0,-1.0,1.0,0.0,-3.0,-3.0,-2.0
1705326599.2292812,0.0,1.0,0.0,0.0,-1.0,0.0,0.0,0.0
1705326599.2292812,-1.0,-1.0,-1.0,0.0,-2.0,0.0,1.0,-1.0
1705326599.2393334,-1.0,0.0,-1.0,1.0,0.0,-1.0,0.0,0.0
1705326599.2393334,0.0,-1.0,0.0,0.0,0.0,0.0,-1.0,-3.0
1705326599.249282,-1.0,-1.0,-1.0,0.0,0.0,-1.0,0.0,-2.0
1705326599.249282,0.0,0.0,-2.0,-1.0,0.0,0.0,0.0,-1.0
1705326599.2592819,-1.0,-2.0,1.0,-1.0,0.0,0.0,1.0,1.0
1705326599.2592819,1.0,-1.0,0.0,0.0,-1.0,0.0,3.0,-1.0
1705326599.2592819,-2.0,-1.0,0.0,0.0,0.0,-1.0,0.0,0.0
1705326599.2592819,0.0,0.0,-1.0,-3.0,0.0,-1.0,0.0,-2.0
1705326599.279282,-1.0,-2.0,-3.0,-2.0,-1.0,-1.0,-1.0,-2.0
1705326599.279282,-1.0,1.0,-2.0,1.0,-1.0,-2.0,-3.0,1.0
1705326599.2892816,-2.0,-2.0,-3.0,-2.0,-2.0,-1.0,-1.0,-3.0
1705326599.2892816,0.0,-1.0,-1.0,-1.0,0.0,-1.0,-2.0,0.0
1705326599.2992818,0.0,-2.0,-3.0,0.0,-1.0,-1.0,-1.0,1.0
1705326599.2992818,0.0,-2.0,-2.0,-2.0,-3.0,-1.0,-1.0,-1.0
1705326599.3092813,-1.0,-1.0,0.0,-1.0,0.0,-1.0,-2.0,-3.0
1705326599.3092813,-2.0,-3.0,-1.0,0.0,-2.0,-2.0,-2.0,1.0
1705326599.319337,-1.0,-1.0,0.0,-2.0,0.0,-1.0,-2.0,-2.0
1705326599.319337,0.0,-2.0,-2.0,-1.0,0.0,-3.0,0.0,-2.0
1705326599.319337,-1.0,-1.0,-1.0,-1.0,0.0,-1.0,0.0,-1.0
1705326599.319337,-1.0,-1.0,0.0,-1.0,-2.0,0.0,-1.0,-1.0
1705326599.3393202,-2.0,-1.0,-1.0,-1.0,0.0,-1.0,-1.0,-2.0
1705326599.3393202,-1.0,-1.0,0.0,-1.0,-2.0,-1.0,-1.0,-2.0
1705326599.349284,1.0,-1.0,-1.0,-1.0,-2.0,-1.0,-2.0,0.0
1705326599.349284,-2.0,-1.0,-1.0,0.0,-2.0,0.0,-2.0,0.0
1705326599.3692825,0.0,0.0,0.0,0.0,-1.0,-2.0,-1.0,0.0
1705326599.3692825,-3.0,0.0,-2.0,-1.0,-1.0,-1.0,2.0,-1.0
1705326599.3692825,-1.0,-1.0,-1.0,-2.0,-1.0,-2.0,-1.0,-1.0
1705326599.3692825,-1.0,0.0,-2.0,-1.0,-2.0,-1.0,-1.0,-1.0
1705326599.3792822,-1.0,0.0,-1.0,-2.0,-2.0,-1.0,0.0,-2.0
1705326599.3792822,-1.0,-1.0,-3.0,-2.0,-1.0,-2.0,-2.0,0.0
1705326599.3792822,1.0,0.0,0.0,-1.0,-1.0,-2.0,-1.0,-1.0
1705326599.3792822,-1.0,-2.0,-3.0,-2.0,-2.0,-1.0,-3.0,-2.0
1705326599.3992822,-2.0,0.0,0.0,-3.0,-1.0,-1.0,-1.0,-2.0
1705326599.3992822,-1.0,1.0,0.0,-1.0,-1.0,-1.0,-1.0,-1.0
1705326599.409281,-1.0,0.0,-2.0,0.0,-1.0,-1.0,-1.0,0.0
1705326599.409281,-3.0,-1.0,-2.0,1.0,0.0,-1.0,-1.0,-3.0
1705326599.419283,-1.0,-1.0,0.0,0.0,-1.0,-2.0,-3.0,0.0
1705326599.419283,0.0,-1.0,-1.0,-3.0,-1.0,0.0,-1.0,-3.0
1705326599.4392822,-3.0,-1.0,-1.0,-2.0,-2.0,0.0,-1.0,1.0
1705326599.4392822,1.0,-1.0,1.0,0.0,0.0,0.0,-1.0,-1.0
1705326599.4392822,-1.0,-2.0,-2.0,-3.0,-2.0,-1.0,-1.0,-1.0
1705326599.4392822,-2.0,0.0,-1.0,0.0,0.0,-2.0,-1.0,-1.0
1705326599.4392822,-3.0,-1.0,-1.0,-2.0,-2.0,0.0,0.0,0.0
1705326599.4392822,-2.0,-3.0,-2.0,-1.0,0.0,-2.0,-1.0,-2.0
1705326599.469284,-1.0,1.0,0.0,0.0,-1.0,0.0,-3.0,-1.0
1705326599.469284,-2.0,-4.0,-3.0,-2.0,-2.0,0.0,-3.0,1.0
1705326599.469284,-1.0,1.0,0.0,-1.0,1.0,0.0,-1.0,0.0
1705326599.469284,-2.0,-2.0,0.0,-1.0,-2.0,-2.0,0.0,0.0
1705326599.4792821,-1.0,-2.0,-2.0,-1.0,-2.0,-3.0,-1.0,-2.0
1705326599.4792821,-1.0,0.0,0.0,0.0,-2.0,0.0,1.0,-2.0
1705326599.4893377,-1.0,-2.0,-3.0,-1.0,-1.0,0.0,-1.0,-1.0
1705326599.4893377,-1.0,-1.0,-1.0,0.0,-1.0,0.0,-1.0,0.0
1705326599.504899,0.0,1.0,-1.0,-1.0,-1.0,0.0,-1.0,0.0
1705326599.504899,-1.0,0.0,-1.0,-1.0,-2.0,-2.0,-1.0,-2.0
1705326599.5068643,0.0,-1.0,-1.0,-2.0,-1.0,0.0,1.0,0.0
1705326599.5068643,-1.0,-3.0,-1.0,-2.0,0.0,-1.0,0.0,0.0
1705326599.5320108,-1.0,-3.0,-1.0,-3.0,-2.0,-1.0,2.0,-2.0
1705326599.5320108,0.0,1.0,1.0,0.0,-1.0,0.0,-1.0,-1.0
1705326599.5320108,0.0,-1.0,-2.0,-1.0,-1.0,0.0,0.0,-1.0
1705326599.5320108,0.0,0.0,-2.0,-1.0,-2.0,-1.0,0.0,0.0
1705326599.5420127,1.0,1.0,-1.0,2.0,-2.0,0.0,-2.0,1.0
1705326599.5420127,-2.0,0.0,0.0,-2.0,0.0,-1.0,-1.0,-2.0
1705326599.5520127,-1.0,-1.0,-2.0,-3.0,-2.0,-3.0,-3.0,-2.0
1705326599.5520127,1.0,1.0,1.0,0.0,1.0,-2.0,-1.0,-1.0
1705326599.5620615,0.0,-2.0,-1.0,-2.0,0.0,-1.0,0.0,-1.0
1705326599.5620615,-1.0,-2.0,-3.0,-2.0,-2.0,-3.0,-1.0,-1.0
1705326599.5620615,-1.0,-2.0,-1.0,-1.0,0.0,-1.0,0.0,0.0
1705326599.5620615,-3.0,0.0,-1.0,-2.0,-1.0,0.0,1.0,-2.0
1705326599.5820134,-1.0,-2.0,-1.0,0.0,0.0,-2.0,0.0,-2.0
1705326599.5820134,0.0,0.0,-2.0,-1.0,0.0,-1.0,0.0,1.0
1705326599.5820134,-1.0,2.0,0.0,0.0,-1.0,-2.0,-2.0,0.0
1705326599.5820134,-1.0,-3.0,-1.0,0.0,0.0,-1.0,-1.0,-1.0
1705326599.602013,-2.0,-3.0,1.0,-1.0,-1.0,0.0,-3.0,1.0
1705326599.602013,-1.0,-2.0,-1.0,-1.0,0.0,-1.0,1.0,-1.0
1705326599.602013,-1.0,0.0,-2.0,-1.0,-2.0,-2.0,-1.0,-1.0
1705326599.602013,0.0,1.0,-1.0,-1.0,-1.0,0.0,0.0,1.0
1705326599.622013,-1.0,-1.0,-1.0,0.0,0.0,-1.0,0.0,-2.0
1705326599.622013,-1.0,0.0,-2.0,-1.0,-1.0,-1.0,-1.0,1.0
1705326599.622013,-1.0,-1.0,-1.0,-1.0,0.0,0.0,0.0,-1.0
1705326599.622013,0.0,1.0,0.0,0.0,-1.0,-2.0,-2.0,-2.0
1705326599.6520152,-2.0,-1.0,-3.0,-3.0,0.0,-2.0,0.0,-2.0
1705326599.6520152,-1.0,-2.0,-2.0,0.0,0.0,0.0,-2.0,-2.0
1705326599.6520152,-1.0,-2.0,0.0,0.0,-1.0,-1.0,-3.0,-3.0
1705326599.6520152,1.0,0.0,-1.0,-1.0,-1.0,-1.0,-1.0,-2.0
1705326599.6520152,0.0,-1.0,-1.0,0.0,-2.0,-1.0,0.0,-1.0
1705326599.6520152,-1.0,0.0,0.0,-1.0,0.0,-2.0,-1.0,-1.0
1705326599.662017,0.0,-1.0,0.0,0.0,-1.0,0.0,-2.0,-2.0
1705326599.662017,-1.0,0.0,-1.0,0.0,0.0,-1.0,-2.0,-1.0
1705326599.6820157,0.0,-2.0,-2.0,0.0,-2.0,0.0,0.0,-2.0
1705326599.6820157,-1.0,1.0,0.0,-1.0,-3.0,-1.0,-1.0,-1.0
1705326599.6820157,-1.0,-1.0,-2.0,-1.0,-3.0,0.0,-1.0,-1.0
1705326599.6820157,-3.0,-2.0,-2.0,-2.0,-2.0,-1.0,0.0,-1.0
1705326599.7020147,-1.0,1.0,1.0,-1.0,0.0,0.0,-1.0,0.0
1705326599.7020147,0.0,-1.0,0.0,0.0,-1.0,0.0,-2.0,1.0
1705326599.7020147,-1.0,0.0,0.0,-2.0,-2.0,-1.0,-1.0,1.0
1705326599.7020147,-1.0,-2.0,0.0,-2.0,-1.0,0.0,-1.0,-1.0
1705326599.7120547,-2.0,-1.0,-2.0,-4.0,-1.0,-2.0,-2.0,-2.0
1705326599.7120547,-2.0,-1.0,1.0,-1.0,-1.0,-1.0,0.0,-1.0
1705326599.7220454,-1.0,-1.0,0.0,-1.0,0.0,-2.0,-1.0,0.0
1705326599.7220454,-1.0,-3.0,-1.0,0.0,-1.0,0.0,-2.0,-1.0
1705326599.7420552,-2.0,-4.0,-1.0,-1.0,-1.0,0.0,1.0,0.0
1705326599.7420552,-1.0,0.0,-2.0,-3.0,-2.0,-2.0,-1.0,-3.0
1705326599.7520149,-1.0,1.0,-1.0,-1.0,-1.0,-2.0,-1.0,0.0
1705326599.7520149,-2.0,-1.0,0.0,-1.0,-2.0,0.0,-3.0,-1.0
1705326599.762014,-2.0,0.0,-2.0,-1.0,-1.0,-1.0,-2.0,-2.0
1705326599.762014,-1.0,-3.0,0.0,-2.0,-1.0,-1.0,-1.0,0.0
1705326599.762014,0.0,-2.0,-1.0,-1.0,0.0,1.0,1.0,-3.0
1705326599.762014,-1.0,0.0,-2.0,-1.0,-1.0,1.0,-1.0,0.0
1705326599.7720122,-1.0,-1.0,-1.0,-2.0,-2.0,-1.0,-1.0,0.0
1705326599.7720122,-1.0,0.0,0.0,-1.0,-2.0,-3.0,-1.0,0.0
1705326599.7820158,-1.0,-2.0,-1.0,0.0,0.0,-2.0,-3.0,-3.0
1705326599.7820158,-1.0,-1.0,-2.0,-2.0,-2.0,-1.0,-1.0,0.0
1705326599.8120139,0.0,1.0,0.0,0.0,0.0,0.0,0.0,-1.0
1705326599.8120139,-1.0,1.0,-2.0,-1.0,0.0,1.0,-2.0,-1.0
1705326599.8120139,-2.0,-1.0,-4.0,-4.0,0.0,-2.0,0.0,0.0
1705326599.8120139,0.0,0.0,-1.0,-2.0,-1.0,-2.0,-1.0,0.0
1705326599.8220198,0.0,1.0,-1.0,-2.0,-2.0,-1.0,0.0,-1.0
1705326599.8220198,1.0,-1.0,-1.0,-1.0,-2.0,-2.0,-1.0,-2.0
1705326599.8220198,-1.0,-2.0,-1.0,0.0,0.0,-2.0,-1.0,0.0
1705326599.8220198,-1.0,-1.0,-1.0,-1.0,0.0,-2.0,0.0,-2.0
1705326599.8320138,-2.0,0.0,0.0,-2.0,0.0,-3.0,-1.0,0.0
1705326599.8320138,-1.0,-3.0,-2.0,-2.0,0.0,1.0,-1.0,-1.0
1705326599.8420131,-2.0,-1.0,-3.0,-1.0,-3.0,-1.0,-1.0,-2.0
1705326599.8420131,0.0,-1.0,0.0,-1.0,-1.0,-2.0,-1.0,-1.0
1705326599.862013,-1.0,-1.0,-1.0,0.0,-1.0,-1.0,-3.0,-1.0
1705326599.862013,-2.0,-2.0,-1.0,-1.0,-2.0,0.0,-1.0,-2.0
1705326599.8720136,0.0,0.0,1.0,1.0,-2.0,-2.0,-2.0,0.0
1705326599.8720136,-2.0,-5.0,-4.0,-2.0,0.0,0.0,-2.0,-1.0
1705326599.882013,1.0,0.0,0.0,-1.0,-1.0,1.0,0.0,0.0
1705326599.882013,-1.0,-1.0,-2.0,-1.0,-3.0,-1.0,-1.0,-3.0
1705326599.882013,1.0,-1.0,-2.0,-1.0,-1.0,-2.0,0.0,-1.0
1705326599.882013,0.0,0.0,0.0,0.0,-1.0,-1.0,-1.0,-2.0
1705326599.9120128,0.0,-3.0,-3.0,0.0,0.0,-2.0,-3.0,1.0
1705326599.9120128,-2.0,-2.0,0.0,-1.0,-1.0,-2.0,0.0,0.0
1705326599.9220133,-1.0,-2.0,-3.0,0.0,-2.0,1.0,-2.0,-1.0
1705326599.9220133,1.0,-1.0,0.0,0.0,-2.0,-5.0,-1.0,-2.0
1705326599.9220133,-1.0,0.0,-1.0,-1.0,-1.0,-1.0,-1.0,-1.0
1705326599.9220133,-1.0,-1.0,-1.0,-1.0,-1.0,-2.0,-3.0,-1.0
1705326599.9220133,-3.0,-1.0,-1.0,-2.0,0.0,0.0,-1.0,-1.0
1705326599.9220133,-1.0,2.0,-1.0,1.0,-2.0,1.0,-2.0,-1.0
1705326599.9420152,-2.0,0.0,-1.0,-1.0,-1.0,-1.0,-2.0,-1.0
1705326599.9420152,-1.0,-1.0,-1.0,0.0,-1.0,-1.0,-2.0,3.0
1705326599.9420152,-1.0,-1.0,1.0,-1.0,-1.0,-2.0,-1.0,-1.0
1705326599.9420152,0.0,0.0,0.0,-3.0,-1.0,-3.0,-2.0,-1.0
1705326599.9620564,-1.0,1.0,-1.0,-2.0,0.0,-2.0,1.0,-2.0
1705326599.9620564,0.0,1.0,-2.0,-2.0,0.0,1.0,1.0,0.0
1705326599.972016,-1.0,-1.0,-2.0,-2.0,-2.0,-1.0,-3.0,0.0
1705326599.972016,-1.0,-3.0,-3.0,-2.0,-3.0,-1.0,0.0,-1.0
1705326599.982013,0.0,0.0,-2.0,0.0,0.0,-1.0,-1.0,-1.0
1705326599.982013,0.0,1.0,-1.0,0.0,1.0,0.0,-1.0,-2.0
1705326599.982013,-1.0,-1.0,-2.0,-2.0,0.0,-3.0,-1.0,-1.0
1705326599.982013,-1.0,-2.0,-1.0,0.0,-1.0,-1.0,-1.0,0.0
1705326600.0020158,0.0,-3.0,-2.0,-1.0,-1.0,-3.0,-1.0,-1.0
1705326600.0020158,0.0,-2.0,1.0,1.0,-1.0,-2.0,0.0,-1.0
1705326600.0020158,-3.0,0.0,-1.0,0.0,-1.0,-3.0,1.0,-1.0
1705326600.0020158,0.0,0.0,0.0,-3.0,-3.0,0.0,-2.0,-2.0
1705326600.0220509,-1.0,-1.0,-1.0,-1.0,0.0,-2.0,-1.0,-1.0
1705326600.0220509,-2.0,-1.0,0.0,0.0,-1.0,-2.0,-2.0,0.0
1705326600.0444033,0.0,-1.0,0.0,1.0,-3.0,1.0,-2.0,-1.0
1705326600.0444033,-1.0,0.0,0.0,-1.0,0.0,-1.0,0.0,-1.0
1705326600.0444033,0.0,-1.0,-2.0,-2.0,-2.0,1.0,-1.0,-1.0
1705326600.0444033,-1.0,-1.0,-3.0,-3.0,-1.0,-1.0,-1.0,-1.0
1705326600.051403,-2.0,-1.0,0.0,-1.0,-1.0,-2.0,-1.0,0.0
1705326600.051403,-1.0,-1.0,1.0,0.0,0.0,-1.0,0.0,-1.0
1705326600.0648017,1.0,0.0,0.0,1.0,-3.0,-2.0,-2.0,0.0
1705326600.0648017,-1.0,1.0,-1.0,-1.0,-1.0,-1.0,-1.0,-2.0
1705326600.0648017,-1.0,-1.0,-2.0,-2.0,-1.0,-1.0,-2.0,-2.0
1705326600.0648017,0.0,-1.0,-2.0,-1.0,0.0,-1.0,-1.0,-2.0
1705326600.0948055,-2.0,-2.0,-2.0,-1.0,-2.0,-1.0,-1.0,-2.0
1705326600.0948055,-1.0,-2.0,-1.0,-2.0,-3.0,-1.0,-1.0,-1.0
1705326600.0948055,1.0,0.0,-1.0,-2.0,-2.0,-1.0,1.0,-1.0
1705326600.0948055,-1.0,0.0,-2.0,-3.0,-1.0,0.0,-1.0,-1.0
1705326600.0948055,-4.0,0.0,-2.0,-2.0,-2.0,-1.0,-2.0,-2.0
1705326600.0948055,-2.0,0.0,-2.0,-1.0,-2.0,-2.0,-3.0,0.0
1705326600.104808,0.0,-1.0,0.0,-3.0,0.0,0.0,-1.0,-1.0
1705326600.104808,-1.0,-2.0,-2.0,-1.0,-2.0,0.0,1.0,0.0
1705326600.1248393,0.0,0.0,-1.0,-2.0,-1.0,-1.0,-1.0,-3.0
1705326600.1248393,-1.0,-1.0,-2.0,-1.0,-1.0,0.0,0.0,-1.0
1705326600.1248393,-1.0,0.0,-1.0,0.0,-2.0,-1.0,-1.0,-2.0
1705326600.1248393,0.0,-2.0,-2.0,-1.0,-2.0,-1.0,0.0,0.0
1705326600.1448033,0.0,-2.0,0.0,-1.0,-1.0,-2.0,0.0,-1.0
1705326600.1448033,-2.0,-2.0,-2.0,-1.0,0.0,-2.0,-1.0,-2.0
1705326600.1448033,-2.0,-3.0,-4.0,-1.0,-2.0,-2.0,0.0,0.0
1705326600.1448033,-1.0,0.0,0.0,0.0,0.0,-2.0,-1.0,0.0
1705326600.1548045,-1.0,1.0,0.0,-1.0,-2.0,0.0,-1.0,0.0
1705326600.1548045,0.0,-1.0,-1.0,-1.0,0.0,0.0,-3.0,0.0
1705326600.1648057,-2.0,0.0,-1.0,-1.0,-1.0,0.0,-1.0,-2.0
1705326600.1648057,0.0,0.0,-2.0,-1.0,1.0,-2.0,-1.0,0.0
1705326600.1848047,-2.0,-1.0,0.0,-1.0,-1.0,-1.0,-1.0,0.0
1705326600.1848047,1.0,-1.0,-1.0,-1.0,0.0,-1.0,0.0,-1.0
1705326600.1848047,0.0,-2.0,-1.0,-2.0,-1.0,0.0,-1.0,0.0
1705326600.1848047,-2.0,0.0,-1.0,-2.0,-2.0,-1.0,-2.0,-3.0
1705326600.2048035,-1.0,-1.0,-2.0,0.0,-1.0,-2.0,-2.0,0.0
1705326600.2048035,0.0,-1.0,-2.0,-1.0,-2.0,-2.0,0.0,-2.0
1705326600.2048035,-1.0,0.0,-2.0,0.0,-1.0,-1.0,-1.0,-2.0
1705326600.2048035,0.0,-2.0,-2.0,-1.0,-1.0,-1.0,-2.0,1.0
1705326600.214839,1.0,0.0,-1.0,0.0,0.0,0.0,1.0,0.0
1705326600.214839,1.0,0.0,1.0,0.0,-2.0,-2.0,0.0,-1.0
1705326600.224841,0.0,-1.0,1.0,-2.0,-1.0,-1.0,0.0,0.0
1705326600.224841,-2.0,-1.0,-1.0,-2.0,-3.0,-1.0,0.0,0.0
1705326600.2448037,-2.0,0.0,-1.0,-2.0,-1.0,-1.0,1.0,-3.0
1705326600.2448037,-1.0,0.0,-2.0,-1.0,-1.0,-1.0,0.0,0.0
1705326600.2448037,1.0,1.0,0.0,-2.0,-1.0,-1.0,-2.0,-1.0
1705326600.2448037,0.0,0.0,0.0,-2.0,-1.0,-1.0,-1.0,-1.0
1705326600.264803,-1.0,-1.0,-2.0,-1.0,-1.0,0.0,-2.0,-1.0
1705326600.264803,-1.0,-1.0,2.0,0.0,1.0,0.0,-2.0,-1.0
1705326600.264803,-1.0,-1.0,-2.0,-2.0,0.0,1.0,0.0,0.0
1705326600.264803,-1.0,0.0,-2.0,-2.0,-1.0,0.0,-3.0,-1.0
1705326600.2749135,0.0,-1.0,-2.0,-1.0,0.0,-3.0,-1.0,-1.0
1705326600.2749135,-2.0,0.0,1.0,-1.0,-1.0,0.0,-1.0,-2.0
1705326600.284807,0.0,-1.0,0.0,-3.0,-2.0,-3.0,-2.0,1.0
1705326600.284807,0.0,0.0,0.0,-1.0,-2.0,0.0,-1.0,0.0
1705326600.3148031,-1.0,-1.0,-2.0,0.0,0.0,-2.0,-2.0,0.0
1705326600.3148031,-2.0,-1.0,-1.0,-1.0,-3.0,-1.0,-2.0,-1.0
1705326600.3148031,-3.0,-2.0,-1.0,-1.0,-1.0,-2.0,-2.0,-2.0
1705326600.3148031,-1.0,-2.0,-1.0,0.0,0.0,-1.0,-2.0,-1.0
1705326600.324835,-1.0,-1.0,0.0,-2.0,-3.0,-2.0,-2.0,0.0
1705326600.324835,-2.0,-1.0,0.0,-1.0,-1.0,-1.0,-1.0,0.0
1705326600.324835,1.0,1.0,-1.0,0.0,-1.0,-3.0,-3.0,-1.0
1705326600.324835,-1.0,-1.0,-1.0,1.0,-1.0,-2.0,0.0,-2.0
1705326600.3348038,1.0,-2.0,0.0,-2.0,-1.0,0.0,0.0,-1.0
1705326600.3348038,1.0,-2.0,-3.0,-3.0,-1.0,-1.0,-2.0,-1.0
1705326600.3448384,-3.0,-1.0,-1.0,-1.0,-1.0,0.0,-2.0,-1.0
1705326600.3448384,0.0,-1.0,-3.0,-1.0,-1.0,-2.0,-2.0,-1.0
1705326600.374807,0.0,0.0,0.0,-1.0,0.0,-1.0,-1.0,-1.0
1705326600.374807,-1.0,0.0,-2.0,-1.0,-2.0,-1.0,-1.0,-1.0
1705326600.374807,0.0,1.0,-1.0,1.0,-2.0,0.0,1.0,1.0
1705326600.374807,-2.0,-1.0,-2.0,-1.0,-2.0,-3.0,-1.0,-2.0
1705326600.3848052,-3.0,-2.0,-1.0,-1.0,-3.0,-1.0,0.0,-1.0
1705326600.3848052,0.0,-1.0,-2.0,-1.0,-2.0,-1.0,-2.0,0.0
1705326600.3848052,-1.0,-1.0,-2.0,-1.0,-1.0,-2.0,0.0,-1.0
1705326600.3848052,0.0,-1.0,-1.0,-1.0,-1.0,-1.0,-1.0,0.0
1705326600.3948042,0.0,-1.0,-1.0,-1.0,-1.0,-1.0,0.0,-2.0
1705326600.3948042,-2.0,1.0,0.0,-2.0,-1.0,-2.0,2.0,-2.0
1705326600.4048057,-1.0,0.0,-1.0,-1.0,0.0,0.0,2.0,0.0
1705326600.4048057,0.0,-1.0,-1.0,-1.0,1.0,0.0,3.0,-1.0
1705326600.4248035,-2.0,-2.0,-2.0,-2.0,-1.0,1.0,1.0,-2.0
1705326600.4248035,0.0,-2.0,-2.0,-3.0,-1.0,1.0,3.0,-1.0
1705326600.4248035,0.0,0.0,1.0,-1.0,0.0,-1.0,0.0,-1.0
1705326600.4248035,-2.0,0.0,-1.0,-2.0,1.0,0.0,-1.0,-2.0
1705326600.4448402,0.0,0.0,-2.0,-2.0,-1.0,0.0,0.0,0.0
1705326600.4448402,0.0,-2.0,-3.0,-2.0,0.0,0.0,-1.0,-2.0
1705326600.4448402,0.0,-1.0,-2.0,-1.0,-1.0,0.0,-2.0,-2.0
1705326600.4448402,-1.0,0.0,1.0,-1.0,-1.0,-1.0,-1.0,1.0
1705326600.454807,-2.0,-3.0,-2.0,-2.0,-1.0,-2.0,-1.0,0.0
1705326600.454807,0.0,-2.0,-2.0,-1.0,-1.0,-2.0,-3.0,0.0
1705326600.4648461,0.0,-3.0,-1.0,-1.0,0.0,-2.0,-3.0,0.0
1705326600.4648461,-2.0,-2.0,0.0,-2.0,0.0,-1.0,-2.0,-1.0
1705326600.4948034,-1.0,0.0,-1.0,-1.0,0.0,-2.0,-2.0,-1.0
1705326600.4948034,-2.0,-2.0,0.0,0.0,-1.0,-1.0,-3.0,-1.0
1705326600.4948034,-3.0,-2.0,-1.0,0.0,-2.0,-2.0,-3.0,1.0
1705326600.4948034,-1.0,-1.0,-1.0,2.0,-1.0,-4.0,-2.0,-1.0
1705326600.504806,-1.0,0.0,0.0,1.0,-1.0,-2.0,-4.0,0.0
1705326600.504806,-1.0,-1.0,-3.0,-1.0,-3.0,-2.0,-4.0,0.0
1705326600.504806,-1.0,-3.0,-2.0,-2.0,-2.0,-1.0,0.0,-1.0
1705326600.504806,-1.0,-2.0,-1.0,0.0,0.0,-1.0,0.0,-1.0
1705326600.5148463,0.0,-1.0,-2.0,-2.0,-1.0,0.0,0.0,-2.0
1705326600.5148463,-1.0,0.0,-1.0,0.0,-1.0,-1.0,0.0,-2.0
1705326600.5248253,-2.0,-1.0,-2.0,-2.0,-2.0,-1.0,0.0,-1.0
1705326600.5248253,-1.0,-3.0,0.0,-3.0,-1.0,-1.0,0.0,-2.0
1705326600.5448036,0.0,0.0,-1.0,0.0,-1.0,0.0,0.0,0.0
1705326600.5448036,0.0,-1.0,0.0,-2.0,0.0,0.0,1.0,0.0
1705326600.5448036,-1.0,-3.0,-3.0,-3.0,-2.0,0.0,-2.0,-1.0
1705326600.5448036,-2.0,-1.0,0.0,-2.0,-1.0,1.0,0.0,-1.0
1705326600.5701578,-1.0,-2.0,0.0,-2.0,-1.0,-2.0,-1.0,-1.0
1705326600.5701578,-2.0,0.0,0.0,-2.0,-1.0,-1.0,-1.0,-2.0
1705326600.5716734,-3.0,0.0,-1.0,0.0,0.0,-1.0,0.0,-1.0
1705326600.5716734,0.0,-2.0,-4.0,-1.0,-1.0,0.0,-2.0,-1.0
1705326600.5841331,-1.0,-1.0,0.0,-2.0,-1.0,1.0,-1.0,-1.0
1705326600.5841331,-2.0,0.0,0.0,-1.0,-1.0,-3.0,-2.0,0.0
1705326600.5978527,-1.0,0.0,-1.0,1.0,-1.0,-2.0,0.0,0.0
1705326600.5978527,-2.0,-2.0,-2.0,-1.0,-2.0,-1.0,-1.0,0.0
1705326600.6078563,-3.0,-2.0,-2.0,-1.0,-2.0,-2.0,-1.0,1.0
1705326600.6078563,0.0,0.0,-1.0,0.0,0.0,-1.0,-1.0,-1.0
1705326600.6078563,-2.0,0.0,-2.0,-1.0,0.0,-1.0,-2.0,-2.0
1705326600.6078563,-1.0,0.0,-2.0,-3.0,-2.0,-3.0,-1.0,-1.0
1705326600.6278598,1.0,-1.0,0.0,-2.0,0.0,1.0,-2.0,0.0
1705326600.6278598,0.0,-1.0,0.0,-1.0,-2.0,-1.0,0.0,0.0
1705326600.6278598,0.0,0.0,-2.0,0.0,-3.0,-1.0,-1.0,-1.0
1705326600.6278598,-2.0,0.0,0.0,2.0,-1.0,-1.0,0.0,-1.0
1705326600.637865,-1.0,1.0,0.0,-2.0,-1.0,-3.0,2.0,-3.0
1705326600.637865,-1.0,-1.0,0.0,-1.0,-3.0,-1.0,-2.0,-1.0
1705326600.66786,0.0,-2.0,-1.0,-3.0,0.0,1.0,2.0,-2.0
1705326600.66786,-2.0,1.0,3.0,-2.0,-1.0,-1.0,-1.0,0.0
1705326600.66786,0.0,-2.0,0.0,0.0,1.0,-1.0,-2.0,-2.0
1705326600.66786,-1.0,-1.0,-1.0,1.0,0.0,-2.0,0.0,-1.0
1705326600.66786,1.0,0.0,0.0,-2.0,0.0,-1.0,0.0,-1.0
1705326600.66786,-1.0,-1.0,0.0,-1.0,0.0,1.0,-2.0,-1.0
1705326600.6878908,-1.0,-1.0,-1.0,0.0,-1.0,-1.0,1.0,-2.0
1705326600.6878908,-1.0,-3.0,-1.0,-2.0,-2.0,-2.0,-2.0,-1.0
1705326600.6878908,0.0,-1.0,1.0,1.0,-2.0,0.0,-1.0,-1.0
1705326600.6878908,-1.0,-1.0,-3.0,-2.0,-1.0,-3.0,0.0,0.0
1705326600.6979003,0.0,2.0,-1.0,-2.0,-2.0,-2.0,-2.0,-1.0
1705326600.6979003,-1.0,-3.0,-2.0,-2.0,-1.0,-2.0,-3.0,-2.0
1705326600.7078595,-2.0,-1.0,0.0,-3.0,-1.0,-2.0,-1.0,-1.0
1705326600.7078595,-1.0,-2.0,-1.0,-1.0,-2.0,-1.0,-2.0,-1.0
1705326600.727861,-2.0,0.0,0.0,0.0,0.0,-1.0,-3.0,-2.0
1705326600.727861,-1.0,-1.0,-2.0,0.0,1.0,1.0,-1.0,0.0
1705326600.727861,-1.0,0.0,0.0,-1.0,-1.0,-1.0,-2.0,-1.0
1705326600.727861,0.0,0.0,0.0,0.0,-1.0,-3.0,-2.0,-1.0
1705326600.7478912,-2.0,-3.0,-4.0,-2.0,-3.0,1.0,-2.0,1.0
1705326600.7478912,0.0,-1.0,-2.0,-1.0,-2.0,-2.0,-1.0,-2.0
1705326600.7478912,-2.0,0.0,-2.0,-1.0,-1.0,-3.0,-1.0,-1.0
1705326600.7478912,-1.0,-2.0,-2.0,1.0,0.0,-2.0,-2.0,0.0
1705326600.7578588,0.0,-1.0,-2.0,0.0,-1.0,-2.0,-2.0,0.0
1705326600.7578588,0.0,0.0,0.0,-2.0,0.0,0.0,0.0,-2.0
1705326600.7678552,-1.0,-3.0,-1.0,1.0,-1.0,0.0,-2.0,0.0
1705326600.7678552,-2.0,-2.0,-2.0,-1.0,-1.0,-1.0,-1.0,-2.0
1705326600.7878544,0.0,0.0,0.0,-1.0,-1.0,-3.0,1.0,0.0
1705326600.7878544,-2.0,-1.0,-2.0,-3.0,-2.0,-2.0,0.0,1.0
1705326600.7878544,0.0,-2.0,-2.0,-1.0,-2.0,-1.0,0.0,-1.0
1705326600.7878544,0.0,-1.0,-1.0,0.0,-3.0,-1.0,-3.0,-1.0
1705326600.807859,0.0,-2.0,0.0,-1.0,1.0,-1.0,-1.0,-1.0
1705326600.807859,0.0,-1.0,1.0,1.0,-2.0,-1.0,1.0,-1.0
1705326600.8178582,-3.0,1.0,-1.0,-2.0,-2.0,-3.0,-1.0,0.0
1705326600.8178582,-2.0,-1.0,1.0,-1.0,-1.0,-1.0,-1.0,-1.0
1705326600.8278613,-1.0,0.0,-1.0,0.0,-1.0,-1.0,-1.0,-1.0
1705326600.8278613,-1.0,1.0,-1.0,-1.0,-1.0,-3.0,0.0,0.0
1705326600.8278613,0.0,-1.0,-2.0,1.0,-1.0,-1.0,-3.0,-2.0
1705326600.8278613,0.0,0.0,-1.0,-1.0,-1.0,-1.0,0.0,-1.0
1705326600.8378596,-1.0,-3.0,-2.0,-1.0,-1.0,-2.0,-1.0,1.0
1705326600.8378596,-3.0,-5.0,-3.0,-2.0,-1.0,-1.0,0.0,-2.0
1705326600.8478603,1.0,-1.0,0.0,-2.0,-2.0,0.0,-1.0,-1.0
1705326600.8478603,-1.0,2.0,1.0,-2.0,-1.0,-1.0,-1.0,-1.0
1705326600.8678582,0.0,-2.0,-2.0,0.0,-1.0,-1.0,-1.0,-2.0
1705326600.8678582,-2.0,0.0,-1.0,-2.0,-1.0,-1.0,-1.0,0.0
1705326600.877856,-2.0,1.0,0.0,-2.0,-1.0,-2.0,-1.0,0.0
1705326600.877856,-1.0,-2.0,-3.0,-1.0,0.0,1.0,1.0,-2.0
1705326600.88786,0.0,-1.0,1.0,-1.0,0.0,0.0,-2.0,-2.0
1705326600.88786,-1.0,-1.0,-2.0,1.0,-1.0,-1.0,-2.0,-1.0
1705326600.88786,-2.0,-2.0,-3.0,-1.0,-1.0,1.0,0.0,-2.0
1705326600.88786,-1.0,0.0,0.0,-2.0,0.0,-1.0,-1.0,-1.0
1705326600.8978584,-4.0,-3.0,-2.0,-3.0,-2.0,-1.0,-1.0,0.0
1705326600.8978584,1.0,0.0,-2.0,-1.0,-1.0,0.0,-2.0,0.0
1705326600.90786,0.0,-2.0,-1.0,-1.0,-1.0,-2.0,-2.0,-1.0
1705326600.90786,-2.0,0.0,-2.0,-3.0,0.0,-1.0,-2.0,2.0
1705326600.9278588,0.0,-1.0,-1.0,0.0,-1.0,1.0,-1.0,-2.0
1705326600.9278588,-1.0,2.0,1.0,-1.0,-1.0,-2.0,0.0,0.0
1705326600.9278588,0.0,-1.0,0.0,1.0,-1.0,0.0,0.0,-1.0
1705326600.9278588,-1.0,-1.0,0.0,-1.0,-2.0,-3.0,-2.0,-2.0
1705326600.9578598,-1.0,0.0,1.0,-2.0,-1.0,-1.0,-1.0,-2.0
1705326600.9578598,1.0,-1.0,-1.0,-1.0,-2.0,1.0,0.0,-2.0
1705326600.9578598,-1.0,-1.0,-2.0,-1.0,0.0,0.0,0.0,0.0
1705326600.9578598,-1.0,-1.0,0.0,0.0,-2.0,0.0,0.0,0.0
1705326600.9578598,-2.0,-1.0,-1.0,-1.0,-3.0,-1.0,0.0,-1.0
1705326600.9578598,-2.0,-1.0,-3.0,-2.0,0.0,-1.0,-2.0,-2.0
1705326600.9678621,1.0,-1.0,-2.0,-3.0,0.0,-1.0,-2.0,-1.0
1705326600.9678621,-1.0,-2.0,0.0,-1.0,-1.0,0.0,-1.0,-1.0
1705326600.9878597,0.0,-1.0,-3.0,-1.0,-1.0,-1.0,0.0,0.0
1705326600.9878597,-2.0,0.0,1.0,-2.0,-1.0,-1.0,-1.0,-1.0
1705326600.9878597,0.0,-3.0,-2.0,-2.0,0.0,-2.0,0.0,-1.0
1705326600.9878597,-1.0,0.0,-1.0,-1.0,-2.0,0.0,-2.0,1.0
1705326601.0078588,0.0,-2.0,0.0,0.0,0.0,0.0,-1.0,-1.0
1705326601.0078588,-1.0,-1.0,-1.0,0.0,0.0,0.0,-1.0,0.0
1705326601.0078588,-1.0,3.0,0.0,-2.0,-1.0,-1.0,-2.0,-1.0
1705326601.0078588,0.0,-3.0,-3.0,-1.0,-1.0,-2.0,-2.0,-2.0
1705326601.0181463,-2.0,0.0,0.0,0.0,-1.0,-1.0,-1.0,-1.0
1705326601.0278647,-1.0,-1.0,-1.0,0.0,1.0,0.0,-3.0,-1.0
1705326601.0278647,-2.0,-1.0,-2.0,-1.0,-1.0,-3.0,-1.0,-1.0
1705326601.0278647,1.0,1.0,-1.0,-3.0,-1.0,-1.0,0.0,-1.0
1705326601.047856,0.0,-1.0,-1.0,-2.0,0.0,0.0,-2.0,-1.0
1705326601.047856,1.0,-1.0,-1.0,0.0,-1.0,-1.0,0.0,0.0
1705326601.047856,-2.0,0.0,0.0,-2.0,-1.0,-2.0,-2.0,-2.0
1705326601.047856,-1.0,-4.0,-2.0,0.0,0.0,0.0,-1.0,0.0
1705326601.0678577,-1.0,0.0,-2.0,-1.0,-2.0,-2.0,0.0,-1.0
1705326601.0678577,-2.0,0.0,0.0,-2.0,-3.0,0.0,0.0,-2.0
1705326601.0678577,0.0,1.0,0.0,-2.0,0.0,-1.0,-1.0,0.0
1705326601.0678577,0.0,-2.0,-2.0,0.0,-2.0,1.0,1.0,-1.0
1705326601.0778568,1.0,-1.0,-1.0,-2.0,-2.0,0.0,-1.0,0.0
1705326601.0778568,0.0,-2.0,-1.0,-1.0,0.0,-1.0,-1.0,0.0
1705326601.1021996,-2.0,-2.0,0.0,-2.0,-4.0,1.0,0.0,1.0
1705326601.1021996,-1.0,1.0,-2.0,-1.0,1.0,-3.0,0.0,-1.0
1705326601.1094816,-1.0,0.0,1.0,-1.0,-1.0,-1.0,-1.0,-1.0
1705326601.1104817,-2.0,-1.0,-1.0,-2.0,-1.0,-1.0,-1.0,0.0
1705326601.1115158,-1.0,-5.0,-3.0,0.0,-2.0,-1.0,-2.0,-1.0
1705326601.1115158,-1.0,-1.0,0.0,-2.0,0.0,0.0,-1.0,-1.0
1705326601.1237738,-1.0,2.0,0.0,-1.0,-1.0,-2.0,-1.0,-3.0
1705326601.1237738,0.0,-1.0,-2.0,-1.0,0.0,-2.0,0.0,-2.0
1705326601.1437736,0.0,0.0,0.0,-1.0,-2.0,0.0,-1.0,0.0
1705326601.1437736,-2.0,-2.0,-1.0,-1.0,-2.0,-3.0,0.0,-3.0
1705326601.1437736,0.0,-1.0,-3.0,0.0,-1.0,-1.0,-2.0,-1.0
1705326601.1437736,-1.0,0.0,1.0,-1.0,-2.0,0.0,-1.0,-2.0
1705326601.1538002,0.0,0.0,0.0,1.0,0.0,-1.0,-2.0,-2.0
1705326601.1538002,-1.0,1.0,0.0,0.0,-4.0,0.0,0.0,-1.0
1705326601.1637769,1.0,-2.0,0.0,-1.0,-2.0,-2.0,-4.0,-1.0
1705326601.1637769,-3.0,-3.0,-2.0,0.0,-3.0,-3.0,0.0,-2.0
1705326601.1637769,-2.0,0.0,-2.0,-2.0,0.0,0.0,0.0,-3.0
1705326601.1637769,-1.0,0.0,0.0,0.0,0.0,-1.0,-2.0,-1.0
1705326601.1838167,-3.0,-3.0,-1.0,0.0,-3.0,-2.0,-1.0,-1.0
1705326601.1838167,0.0,0.0,2.0,1.0,-1.0,0.0,1.0,0.0
1705326601.1938183,1.0,0.0,0.0,0.0,-1.0,-1.0,0.0,1.0
1705326601.1938183,0.0,0.0,-2.0,-2.0,-1.0,-1.0,-2.0,-2.0
1705326601.203808,-1.0,1.0,-1.0,0.0,-3.0,0.0,1.0,-2.0
1705326601.203808,0.0,-1.0,-1.0,-2.0,-1.0,0.0,-1.0,-2.0
1705326601.2137768,-2.0,-1.0,-1.0,-1.0,0.0,1.0,-1.0,-2.0
1705326601.2137768,0.0,2.0,2.0,0.0,0.0,1.0,-1.0,1.0
1705326601.2238095,-1.0,-2.0,-2.0,-4.0,-4.0,-2.0,0.0,0.0
1705326601.2238095,-1.0,1.0,-1.0,-1.0,-1.0,-1.0,-2.0,0.0
1705326601.2238095,0.0,0.0,0.0,0.0,2.0,-1.0,-2.0,-1.0
1705326601.2238095,2.0,1.0,1.0,0.0,-2.0,-2.0,-2.0,0.0
1705326601.2437747,-2.0,-1.0,-2.0,-1.0,1.0,-1.0,-3.0,-1.0
1705326601.2437747,-1.0,1.0,0.0,-2.0,-2.0,-4.0,-4.0,-1.0
1705326601.2537758,-3.0,-2.0,-2.0,-3.0,-4.0,-2.0,-3.0,-1.0
1705326601.2537758,-3.0,-3.0,-3.0,-2.0,-2.0,-2.0,-3.0,-1.0
1705326601.2637768,1.0,-2.0,0.0,-1.0,-1.0,-1.0,-1.0,-1.0
1705326601.2637768,-1.0,-2.0,-2.0,-1.0,-1.0,0.0,3.0,-1.0
1705326601.2837741,1.0,1.0,0.0,-1.0,-2.0,0.0,9.0,-2.0
1705326601.2837741,-2.0,0.0,-1.0,-1.0,-1.0,-1.0,10.0,-1.0
1705326601.2837741,0.0,0.0,-3.0,-3.0,-1.0,0.0,7.0,1.0
1705326601.2837741,0.0,0.0,0.0,-1.0,0.0,0.0,3.0,-1.0
1705326601.2837741,-2.0,-2.0,0.0,0.0,0.0,0.0,1.0,0.0
1705326601.2837741,-2.0,-2.0,-1.0,-3.0,-3.0,-1.0,-3.0,-3.0
1705326601.303776,1.0,-1.0,-1.0,0.0,0.0,-1.0,-8.0,-1.0
1705326601.303776,0.0,-2.0,-1.0,0.0,2.0,-2.0,-8.0,-1.0
1705326601.3137755,-1.0,-1.0,-2.0,0.0,-2.0,-3.0,-9.0,1.0
1705326601.3137755,-1.0,-2.0,-3.0,-1.0,-1.0,-2.0,-8.0,0.0
1705326601.3337762,-2.0,-1.0,1.0,2.0,-1.0,-1.0,-3.0,-1.0
1705326601.3337762,1.0,-1.0,-1.0,-2.0,-2.0,0.0,-4.0,-1.0
1705326601.3337762,-2.0,-1.0,-2.0,-1.0,-1.0,-2.0,-3.0,-2.0
1705326601.3337762,-1.0,-1.0,0.0,1.0,1.0,-1.0,0.0,0.0
1705326601.3437784,-2.0,-1.0,-1.0,0.0,1.0,0.0,-2.0,0.0
1705326601.3437784,1.0,0.0,-1.0,-1.0,0.0,-2.0,-1.0,0.0
1705326601.3437784,-1.0,-2.0,1.0,-1.0,-2.0,-1.0,0.0,-1.0
1705326601.3437784,-1.0,-2.0,0.0,-1.0,-2.0,-1.0,-1.0,0.0
1705326601.373778,-1.0,-1.0,0.0,-2.0,-1.0,-1.0,0.0,-2.0
1705326601.373778,-2.0,-1.0,-2.0,-1.0,-3.0,-1.0,-1.0,-3.0
1705326601.373778,2.0,-1.0,-1.0,-1.0,0.0,0.0,-2.0,-2.0
1705326601.373778,2.0,-1.0,-2.0,-1.0,-1.0,-1.0,-1.0,-4.0
1705326601.3838005,-1.0,0.0,-1.0,0.0,-1.0,-1.0,-2.0,-1.0
1705326601.3838005,-2.0,-1.0,1.0,-1.0,-1.0,-2.0,0.0,1.0
1705326601.3937747,-4.0,-1.0,1.0,-1.0,0.0,-1.0,0.0,-1.0
1705326601.3937747,-2.0,-1.0,-3.0,-1.0,1.0,-2.0,-1.0,0.0
1705326601.4138076,0.0,0.0,-1.0,-1.0,-1.0,-1.0,0.0,-4.0
1705326601.4138076,0.0,-2.0,-2.0,0.0,-1.0,0.0,0.0,-1.0
1705326601.4138076,0.0,-1.0,-3.0,-1.0,-1.0,-2.0,-1.0,0.0
1705326601.4138076,0.0,-2.0,0.0,-1.0,0.0,-1.0,-1.0,0.0
1705326601.42381,-2.0,-1.0,0.0,-2.0,0.0,-1.0,-1.0,1.0
1705326601.42381,-1.0,-1.0,-2.0,-2.0,-4.0,-1.0,-2.0,-1.0
1705326601.4337738,0.0,-1.0,0.0,1.0,-1.0,-1.0,-1.0,1.0
1705326601.4337738,-1.0,-1.0,0.0,0.0,-2.0,-1.0,-3.0,-2.0
1705326601.4438093,1.0,1.0,-1.0,0.0,-2.0,-2.0,-3.0,0.0
1705326601.4438093,-1.0,-2.0,-1.0,-2.0,1.0,-1.0,-3.0,0.0
1705326601.4537764,-1.0,0.0,-2.0,-1.0,-1.0,0.0,-3.0,-1.0
1705326601.4537764,-3.0,-1.0,0.0,-1.0,-3.0,-2.0,-2.0,-1.0
1705326601.4638088,-2.0,-3.0,1.0,-1.0,-1.0,-4.0,-3.0,-3.0
1705326601.4638088,-2.0,-1.0,-2.0,-2.0,-1.0,-1.0,-1.0,-2.0
1705326601.4638088,-2.0,-4.0,-1.0,0.0,-1.0,-1.0,-1.0,0.0
1705326601.4638088,-1.0,-2.0,-1.0,-2.0,-2.0,-1.0,-1.0,-1.0
1705326601.4938123,-1.0,0.0,-1.0,-2.0,-2.0,3.0,-1.0,0.0
1705326601.4938123,-1.0,-2.0,-2.0,0.0,-1.0,-1.0,-1.0,-1.0
1705326601.4938123,0.0,1.0,-1.0,-2.0,-4.0,-1.0,1.0,-1.0
1705326601.4938123,0.0,-1.0,-1.0,0.0,-1.0,1.0,2.0,-1.0
1705326601.5038147,-1.0,0.0,-1.0,0.0,-2.0,-1.0,1.0,1.0
1705326601.5038147,0.0,-1.0,-1.0,0.0,-1.0,0.0,2.0,0.0
1705326601.5137749,1.0,-2.0,-2.0,-1.0,0.0,-1.0,1.0,-1.0
1705326601.5137749,0.0,0.0,0.0,-2.0,0.0,-1.0,0.0,-1.0
1705326601.5237753,-2.0,-1.0,-1.0,0.0,0.0,-1.0,0.0,-1.0
1705326601.5237753,1.0,0.0,-1.0,-2.0,0.0,-1.0,0.0,0.0
1705326601.5237753,-2.0,1.0,-1.0,-2.0,-1.0,-1.0,-2.0,-2.0
1705326601.5237753,-1.0,0.0,-1.0,0.0,1.0,-2.0,-2.0,1.0
1705326601.5537806,0.0,-1.0,0.0,0.0,1.0,0.0,1.0,-1.0
1705326601.5537806,0.0,0.0,-1.0,0.0,0.0,0.0,-2.0,-1.0
1705326601.5537806,-1.0,-2.0,-1.0,-1.0,-2.0,-1.0,-2.0,-1.0
1705326601.5537806,0.0,0.0,-1.0,-1.0,0.0,0.0,-2.0,-1.0
1705326601.5637765,-1.0,-1.0,-2.0,-1.0,-2.0,-1.0,-4.0,0.0
1705326601.5637765,0.0,0.0,-1.0,0.0,-1.0,-1.0,-2.0,-2.0
1705326601.5737765,0.0,-1.0,0.0,-1.0,1.0,0.0,-2.0,-1.0
1705326601.5737765,-3.0,0.0,-1.0,-2.0,-1.0,0.0,-2.0,-1.0
1705326601.5938156,0.0,0.0,0.0,-2.0,-1.0,0.0,-2.0,-2.0
1705326601.5938156,-3.0,-2.0,-3.0,-4.0,-2.0,-2.0,-1.0,-1.0
1705326601.6037743,0.0,-1.0,-1.0,-2.0,-1.0,-1.0,1.0,-1.0
1705326601.6037743,0.0,-1.0,-1.0,-3.0,0.0,1.0,0.0,-2.0
1705326601.6037743,-1.0,-4.0,-2.0,-1.0,-2.0,-3.0,-1.0,0.0
1705326601.6037743,0.0,1.0,1.0,0.0,-2.0,-2.0,-2.0,-2.0
1705326601.6137774,-1.0,-1.0,-3.0,-1.0,0.0,0.0,0.0,-1.0
1705326601.6137774,-1.0,-3.0,-2.0,-3.0,-2.0,-1.0,1.0,-3.0
1705326601.626141,-1.0,0.0,-2.0,0.0,1.0,-2.0,0.0,-1.0
1705326601.626141,1.0,1.0,0.0,0.0,0.0,0.0,0.0,1.0
1705326601.63532,-1.0,0.0,0.0,-1.0,-1.0,0.0,-1.0,0.0
1705326601.63532,0.0,-1.0,-2.0,0.0,-1.0,-1.0,-1.0,1.0
1705326601.6465154,-1.0,-1.0,-1.0,-2.0,-3.0,0.0,-1.0,-2.0
1705326601.656519,-1.0,-1.0,-3.0,-3.0,-1.0,-3.0,-1.0,-2.0
1705326601.656519,1.0,0.0,-1.0,-1.0,-2.0,-2.0,-3.0,-1.0
1705326601.656519,0.0,-2.0,-4.0,-2.0,-2.0,-1.0,-1.0,-1.0
1705326601.6665514,-1.0,0.0,0.0,-1.0,0.0,-1.0,-2.0,1.0
1705326601.6665514,0.0,0.0,-1.0,-1.0,0.0,-1.0,-1.0,0.0
1705326601.6665514,-3.0,-3.0,-3.0,-2.0,-2.0,-1.0,0.0,-2.0
1705326601.6665514,0.0,0.0,1.0,0.0,0.0,-2.0,-1.0,0.0
1705326601.6865544,0.0,-4.0,-2.0,-1.0,-2.0,-1.0,-2.0,-2.0
1705326601.6865544,-3.0,0.0,0.0,1.0,-1.0,0.0,0.0,-2.0
1705326601.6865544,-1.0,1.0,-1.0,2.0,-1.0,-1.0,0.0,0.0
1705326601.6865544,-2.0,-2.0,0.0,0.0,0.0,-1.0,0.0,-1.0
1705326601.7065213,0.0,-1.0,0.0,-1.0,0.0,1.0,-2.0,0.0
1705326601.7065213,-1.0,-2.0,-2.0,-2.0,-1.0,-1.0,-2.0,1.0
1705326601.7165177,-1.0,0.0,-1.0,-1.0,-4.0,-2.0,-2.0,-1.0
1705326601.7165177,-1.0,-1.0,-1.0,1.0,-1.0,-2.0,-2.0,-2.0
1705326601.726519,0.0,0.0,1.0,-3.0,-1.0,-3.0,1.0,-1.0
1705326601.726519,-1.0,-4.0,1.0,-1.0,-1.0,0.0,-1.0,-1.0
1705326601.726519,0.0,0.0,-1.0,-1.0,0.0,-1.0,-1.0,1.0
1705326601.726519,-1.0,0.0,-2.0,-2.0,-2.0,-2.0,-2.0,-1.0
1705326601.7465196,-2.0,0.0,-3.0,1.0,-2.0,-2.0,0.0,-2.0
1705326601.7465196,1.0,-1.0,0.0,-2.0,-1.0,0.0,-1.0,0.0
1705326601.7565174,0.0,-1.0,0.0,-1.0,1.0,-2.0,1.0,-1.0
1705326601.7565174,-1.0,-1.0,-2.0,0.0,0.0,-1.0,-3.0,-1.0
1705326601.7665203,0.0,-1.0,-1.0,0.0,0.0,0.0,-1.0,-1.0
1705326601.7665203,-1.0,-2.0,-2.0,0.0,-1.0,-1.0,-2.0,-1.0
1705326601.7865186,-1.0,-2.0,-3.0,1.0,0.0,-1.0,-3.0,-2.0
1705326601.7865186,-2.0,-1.0,0.0,-3.0,-1.0,-1.0,-1.0,-1.0
1705326601.7865186,0.0,1.0,0.0,-1.0,-2.0,0.0,0.0,-2.0
1705326601.7865186,-1.0,0.0,-1.0,1.0,-2.0,-1.0,1.0,-2.0
1705326601.7865186,1.0,-1.0,1.0,-1.0,-2.0,-2.0,-3.0,0.0
1705326601.7865186,-1.0,-2.0,-2.0,2.0,-2.0,-1.0,-1.0,-1.0
1705326601.8165183,-3.0,-2.0,0.0,-1.0,-1.0,-1.0,-2.0,-1.0
1705326601.8165183,-2.0,0.0,-1.0,-2.0,1.0,0.0,-2.0,-2.0
1705326601.8265185,0.0,0.0,-3.0,1.0,-2.0,-1.0,-3.0,-2.0
1705326601.8265185,0.0,1.0,0.0,0.0,1.0,-4.0,-2.0,2.0
1705326601.8265185,-1.0,1.0,-2.0,1.0,-3.0,0.0,-2.0,-1.0
1705326601.8265185,-1.0,-1.0,-1.0,-2.0,-1.0,-2.0,-2.0,-1.0
1705326601.83656,-2.0,-2.0,-1.0,0.0,-3.0,-3.0,-3.0,-2.0
1705326601.83656,-3.0,-3.0,-1.0,-2.0,0.0,-1.0,-2.0,-1.0
1705326601.846519,0.0,1.0,-1.0,-1.0,0.0,-2.0,0.0,-1.0
1705326601.846519,0.0,0.0,-2.0,1.0,-2.0,-3.0,-1.0,-1.0
1705326601.846519,-2.0,-2.0,-2.0,-1.0,-1.0,-1.0,1.0,-2.0
1705326601.846519,-1.0,0.0,-1.0,1.0,-2.0,1.0,0.0,0.0
1705326601.8765202,-3.0,-3.0,-2.0,-2.0,1.0,1.0,0.0,0.0
1705326601.8765202,-2.0,0.0,0.0,-2.0,-2.0,0.0,-2.0,-2.0
1705326601.8865178,0.0,0.0,1.0,-3.0,-1.0,-1.0,1.0,1.0
1705326601.8865178,1.0,-1.0,-1.0,-1.0,-1.0,0.0,0.0,-1.0
1705326601.8865178,-1.0,-1.0,0.0,-1.0,0.0,0.0,1.0,-1.0
1705326601.8865178,0.0,-1.0,-3.0,-1.0,-1.0,-1.0,1.0,-1.0
1705326601.8865178,-2.0,-1.0,-2.0,-1.0,0.0,1.0,-1.0,-1.0
1705326601.896518,-1.0,-1.0,-1.0,-1.0,-1.0,-1.0,-1.0,-1.0
1705326601.9065557,-1.0,-2.0,-1.0,0.0,-1.0,-1.0,-1.0,-1.0
1705326601.9065557,0.0,-2.0,1.0,0.0,0.0,-1.0,0.0,1.0
1705326601.9065557,0.0,-1.0,-1.0,-2.0,0.0,-1.0,1.0,-1.0
1705326601.9065557,0.0,-2.0,-1.0,-3.0,-2.0,-2.0,1.0,-2.0
1705326601.9265604,-2.0,-2.0,-1.0,-1.0,-2.0,-3.0,0.0,0.0
1705326601.9265604,-2.0,1.0,-1.0,0.0,0.0,-3.0,-1.0,-1.0
1705326601.946518,-2.0,2.0,-1.0,-1.0,-2.0,0.0,0.0,-2.0
1705326601.946518,-1.0,1.0,0.0,-1.0,-1.0,-1.0,-1.0,0.0
1705326601.946518,0.0,0.0,-1.0,-2.0,-1.0,0.0,-1.0,0.0
1705326601.946518,-1.0,-2.0,-1.0,0.0,-2.0,-1.0,0.0,-1.0
1705326601.9565501,0.0,-2.0,-1.0,-1.0,-2.0,-1.0,-2.0,-1.0
1705326601.9565501,0.0,-1.0,1.0,-1.0,-2.0,0.0,-1.0,-1.0
1705326601.9665174,-1.0,-2.0,-2.0,-1.0,-2.0,-1.0,0.0,-1.0
1705326601.9665174,-1.0,-2.0,0.0,-2.0,-1.0,-1.0,-2.0,-1.0
1705326601.9665174,-1.0,-1.0,0.0,-1.0,-1.0,0.0,-3.0,-1.0
1705326601.9665174,0.0,0.0,-1.0,-1.0,-1.0,1.0,-1.0,0.0
1705326601.986556,-2.0,-2.0,-1.0,-1.0,-1.0,-3.0,-2.0,-3.0
1705326601.986556,-1.0,0.0,0.0,-1.0,-2.0,0.0,-2.0,-2.0
1705326601.9965966,-3.0,-4.0,-3.0,-2.0,0.0,-1.0,-1.0,-1.0
1705326601.9965966,-1.0,1.0,1.0,1.0,-2.0,-1.0,-1.0,-2.0
1705326602.0065718,1.0,0.0,-1.0,-1.0,-1.0,0.0,-2.0,-1.0
1705326602.0065718,-1.0,0.0,-3.0,-2.0,0.0,-3.0,0.0,-2.0
1705326602.0165677,0.0,-1.0,2.0,-2.0,-1.0,0.0,0.0,-1.0
1705326602.0165677,-1.0,-2.0,-1.0,0.0,-2.0,-1.0,-1.0,-2.0
1705326602.02657,0.0,-1.0,-2.0,-2.0,-1.0,-2.0,0.0,0.0
1705326602.02657,-2.0,1.0,-1.0,-3.0,-2.0,0.0,-2.0,-3.0
1705326602.02657,-2.0,-1.0,0.0,0.0,0.0,-1.0,-1.0,-2.0
1705326602.02657,-2.0,-1.0,-1.0,-2.0,1.0,-2.0,0.0,0.0
1705326602.0465696,0.0,0.0,1.0,0.0,-1.0,0.0,-1.0,0.0
1705326602.0465696,1.0,-2.0,-1.0,-1.0,0.0,0.0,-2.0,-1.0
1705326602.0665684,-1.0,-1.0,-1.0,0.0,0.0,-1.0,-2.0,0.0
1705326602.0665684,-1.0,-2.0,0.0,-2.0,0.0,0.0,-1.0,-1.0
1705326602.0665684,0.0,-1.0,-1.0,-1.0,-2.0,0.0,-1.0,-1.0
1705326602.0665684,-1.0,-1.0,-2.0,-2.0,-1.0,0.0,0.0,0.0
1705326602.0765686,0.0,-1.0,-1.0,-2.0,-2.0,1.0,0.0,0.0
1705326602.0765686,-1.0,-2.0,-2.0,-2.0,-2.0,-2.0,0.0,0.0
1705326602.0865693,-1.0,0.0,-1.0,0.0,-1.0,-1.0,-3.0,-2.0
1705326602.0865693,0.0,-1.0,0.0,-1.0,-1.0,0.0,0.0,-2.0
1705326602.0865693,-1.0,0.0,-2.0,-1.0,-2.0,-3.0,-2.0,-2.0
1705326602.0865693,0.0,-2.0,0.0,-1.0,1.0,-1.0,-2.0,-2.0
1705326602.1065714,0.0,-2.0,0.0,-3.0,-1.0,-1.0,-1.0,1.0
1705326602.1065714,-1.0,-1.0,0.0,-2.0,0.0,0.0,-1.0,-1.0
1705326602.1165686,0.0,0.0,-1.0,0.0,0.0,1.0,-4.0,-1.0
1705326602.1165686,-2.0,-1.0,-2.0,1.0,0.0,-2.0,-5.0,-3.0
1705326602.1265724,-3.0,-2.0,-2.0,-1.0,0.0,-2.0,0.0,-1.0
1705326602.1265724,-3.0,-2.0,0.0,1.0,-3.0,-3.0,-2.0,-1.0
1705326602.136569,-1.0,-1.0,-1.0,-1.0,-3.0,-1.0,-2.0,1.0
1705326602.136569,0.0,-1.0,-1.0,1.0,-1.0,-1.0,-3.0,0.0
1705326602.14657,0.0,1.0,-1.0,0.0,1.0,0.0,-3.0,-2.0
1705326602.14657,-1.0,0.0,-2.0,0.0,-2.0,-1.0,-2.0,0.0
1705326602.14657,-1.0,0.0,0.0,0.0,0.0,0.0,-1.0,-2.0
1705326602.14657,-2.0,0.0,-1.0,-1.0,-2.0,0.0,1.0,-2.0
1705326602.1751714,-2.0,-3.0,-1.0,-1.0,1.0,-1.0,-2.0,-1.0
1705326602.1751714,0.0,-1.0,-1.0,0.0,-1.0,0.0,0.0,0.0
1705326602.1761715,-2.0,0.0,-1.0,-2.0,-2.0,-1.0,-1.0,-1.0
1705326602.1761715,0.0,-1.0,-1.0,-1.0,0.0,0.0,-3.0,0.0
1705326602.1794262,-1.0,0.0,-2.0,0.0,-2.0,-3.0,0.0,-1.0
1705326602.1794262,0.0,-2.0,-4.0,-1.0,-1.0,0.0,1.0,-1.0
1705326602.189462,0.0,0.0,-1.0,-2.0,0.0,-2.0,1.0,-1.0
1705326602.189462,-1.0,-1.0,-1.0,-1.0,-1.0,0.0,1.0,-2.0
1705326602.209429,0.0,-4.0,-1.0,-2.0,-1.0,0.0,2.0,-2.0
1705326602.209429,-1.0,-1.0,-2.0,-2.0,0.0,0.0,0.0,-1.0
1705326602.209429,-1.0,-1.0,-1.0,0.0,-1.0,0.0,2.0,-1.0
1705326602.209429,-1.0,-1.0,0.0,-3.0,-1.0,0.0,1.0,0.0
1705326602.2294295,0.0,0.0,-1.0,-1.0,-2.0,-2.0,-1.0,0.0
1705326602.2294295,-3.0,1.0,2.0,-2.0,0.0,-1.0,-1.0,-1.0
1705326602.2294295,-2.0,0.0,-1.0,-1.0,-1.0,0.0,-1.0,-2.0
1705326602.2294295,0.0,-1.0,-1.0,1.0,1.0,0.0,-1.0,0.0
1705326602.2494297,-1.0,-1.0,-2.0,-1.0,-2.0,-1.0,-3.0,-1.0
1705326602.2494297,0.0,-1.0,-2.0,-1.0,-1.0,-2.0,-1.0,0.0
1705326602.2494297,-1.0,-2.0,-2.0,-3.0,-3.0,0.0,-1.0,-1.0
1705326602.2494297,-1.0,1.0,0.0,0.0,0.0,-1.0,-2.0,-2.0
1705326602.2794294,-2.0,-1.0,0.0,-1.0,-2.0,-1.0,-3.0,-2.0
1705326602.2794294,0.0,-1.0,-1.0,0.0,-2.0,-1.0,-2.0,-2.0
1705326602.2794294,-1.0,1.0,0.0,-3.0,-1.0,-3.0,-2.0,-2.0
1705326602.2794294,0.0,0.0,-3.0,0.0,-1.0,-2.0,-2.0,0.0
1705326602.289428,-2.0,0.0,0.0,0.0,0.0,-1.0,-1.0,-2.0
1705326602.289428,-1.0,-2.0,0.0,-1.0,-1.0,0.0,0.0,-1.0
1705326602.289428,0.0,0.0,0.0,0.0,-1.0,-1.0,-1.0,0.0
1705326602.289428,-1.0,-1.0,-3.0,-1.0,-2.0,-1.0,-1.0,-2.0
1705326602.2994783,-1.0,-1.0,-1.0,-1.0,-1.0,-1.0,-1.0,-1.0
1705326602.2994783,1.0,0.0,2.0,-1.0,-1.0,-1.0,0.0,0.0
1705326602.3194542,0.0,-3.0,-3.0,0.0,-1.0,-2.0,-1.0,0.0
1705326602.3194542,-1.0,-1.0,1.0,-1.0,-3.0,-1.0,-2.0,-1.0
1705326602.3294616,-1.0,-4.0,-2.0,-3.0,-1.0,-2.0,0.0,-1.0
1705326602.3294616,-1.0,1.0,-1.0,-1.0,-2.0,0.0,0.0,-1.0
1705326602.3294616,0.0,0.0,-3.0,0.0,-1.0,0.0,-1.0,-1.0
1705326602.3294616,-2.0,-1.0,0.0,-3.0,-3.0,-1.0,0.0,-1.0
1705326602.349429,0.0,-1.0,1.0,0.0,-2.0,3.0,0.0,0.0
1705326602.349429,-1.0,-3.0,-3.0,-2.0,-3.0,-1.0,-2.0,-2.0
1705326602.349429,-1.0,-1.0,0.0,0.0,0.0,1.0,-3.0,-1.0
1705326602.349429,0.0,-1.0,-1.0,-1.0,0.0,0.0,-1.0,0.0
1705326602.3594282,-2.0,-1.0,-3.0,-3.0,-1.0,-2.0,-1.0,0.0
1705326602.3594282,-1.0,-1.0,0.0,-1.0,0.0,-1.0,-1.0,0.0
1705326602.3794284,0.0,0.0,-1.0,-1.0,0.0,0.0,0.0,-2.0
1705326602.3794284,-2.0,-3.0,-1.0,-3.0,-2.0,-2.0,0.0,-2.0
1705326602.389429,0.0,-3.0,-1.0,-1.0,0.0,1.0,-2.0,-1.0
1705326602.389429,0.0,0.0,1.0,0.0,-2.0,-1.0,-3.0,-1.0
1705326602.389429,-2.0,-1.0,-1.0,-1.0,-2.0,0.0,-3.0,1.0
1705326602.389429,0.0,0.0,-1.0,-1.0,-1.0,0.0,-2.0,0.0
1705326602.4094725,0.0,1.0,-1.0,-1.0,0.0,-1.0,-1.0,-1.0
1705326602.4094725,-1.0,-1.0,-1.0,-1.0,0.0,-3.0,-3.0,-1.0
1705326602.4094725,-1.0,1.0,2.0,1.0,0.0,-3.0,0.0,-2.0
1705326602.4094725,0.0,-1.0,0.0,-1.0,-1.0,-4.0,0.0,-1.0
1705326602.4194615,-1.0,-2.0,1.0,0.0,-2.0,-1.0,-2.0,-1.0
1705326602.4194615,-1.0,-1.0,-2.0,0.0,-1.0,1.0,-2.0,-1.0
1705326602.4394276,-1.0,-1.0,-2.0,-2.0,-2.0,-2.0,0.0,-2.0
1705326602.4394276,-1.0,0.0,-1.0,-1.0,-1.0,1.0,0.0,-1.0
1705326602.44943,-2.0,0.0,-1.0,-2.0,0.0,-1.0,2.0,1.0
1705326602.44943,-2.0,-1.0,0.0,0.0,-1.0,-2.0,-1.0,2.0
1705326602.44943,-1.0,-2.0,-1.0,-1.0,-1.0,-1.0,-1.0,0.0
1705326602.44943,-1.0,-1.0,2.0,-1.0,0.0,0.0,-1.0,0.0
1705326602.469471,0.0,0.0,-1.0,1.0,-3.0,-2.0,-1.0,-2.0
1705326602.469471,0.0,0.0,-3.0,-1.0,-2.0,-1.0,-1.0,-2.0
1705326602.469471,-1.0,1.0,-3.0,-1.0,-1.0,0.0,-2.0,-1.0
1705326602.469471,-1.0,-3.0,-3.0,-2.0,-1.0,-2.0,-1.0,0.0
1705326602.4894292,-2.0,0.0,-1.0,-1.0,-1.0,-2.0,-2.0,-2.0
1705326602.4894292,-1.0,-1.0,1.0,0.0,-1.0,-2.0,-1.0,-1.0
1705326602.4894292,-2.0,-1.0,1.0,-2.0,-1.0,-3.0,0.0,-1.0
1705326602.4894292,-1.0,0.0,1.0,-1.0,-1.0,-1.0,0.0,-3.0
1705326602.5094278,-1.0,-1.0,0.0,0.0,0.0,0.0,0.0,-2.0
1705326602.5094278,-2.0,0.0,-2.0,0.0,-1.0,-1.0,-1.0,-1.0
1705326602.5094278,0.0,-2.0,-2.0,0.0,-2.0,0.0,-1.0,-1.0
1705326602.5094278,0.0,-1.0,-1.0,-1.0,-2.0,-2.0,-1.0,-1.0
1705326602.5294278,-1.0,-1.0,-1.0,0.0,-2.0,-1.0,-1.0,0.0
1705326602.5294278,-1.0,2.0,3.0,-1.0,1.0,-1.0,-1.0,0.0
1705326602.5294278,-2.0,-2.0,-1.0,-3.0,-2.0,-2.0,0.0,0.0
1705326602.5294278,-3.0,0.0,-3.0,0.0,-1.0,-1.0,-3.0,-2.0
1705326602.5394278,-1.0,2.0,-2.0,1.0,-1.0,-2.0,-2.0,-1.0
1705326602.5494292,-3.0,-3.0,-1.0,0.0,-1.0,-1.0,0.0,-2.0
1705326602.5594287,-2.0,-2.0,0.0,0.0,-4.0,-2.0,0.0,-1.0
1705326602.5594287,-1.0,-1.0,-1.0,-1.0,-1.0,-1.0,-1.0,0.0
1705326602.569428,-1.0,0.0,-1.0,-1.0,-2.0,-1.0,0.0,-2.0
1705326602.569428,-1.0,0.0,-1.0,-2.0,-1.0,-1.0,1.0,0.0
1705326602.569428,-1.0,-1.0,1.0,-1.0,1.0,1.0,0.0,-2.0
1705326602.569428,0.0,-2.0,-1.0,-2.0,-1.0,1.0,0.0,-1.0
1705326602.599428,0.0,-3.0,-3.0,-2.0,-1.0,0.0,-2.0,0.0
1705326602.599428,0.0,-2.0,-1.0,0.0,-4.0,-3.0,-2.0,-1.0
1705326602.599428,-1.0,-1.0,-1.0,-2.0,-1.0,0.0,-1.0,-2.0
1705326602.599428,0.0,1.0,0.0,-1.0,-1.0,0.0,0.0,0.0
1705326602.599428,-1.0,0.0,-1.0,-2.0,-1.0,-1.0,1.0,0.0
1705326602.599428,0.0,-2.0,-1.0,-2.0,-1.0,0.0,-2.0,-2.0
1705326602.6194303,-1.0,-1.0,0.0,-1.0,-1.0,1.0,-2.0,-2.0
1705326602.6194303,0.0,-1.0,0.0,-1.0,-2.0,-1.0,-2.0,-1.0
1705326602.6294286,-3.0,0.0,1.0,-2.0,0.0,-2.0,-2.0,-3.0
1705326602.6294286,-2.0,-1.0,-2.0,0.0,0.0,-1.0,0.0,-2.0
1705326602.6294286,-2.0,-1.0,-2.0,1.0,-2.0,-1.0,-2.0,-2.0
1705326602.6294286,-2.0,-2.0,-1.0,-2.0,-1.0,-2.0,-1.0,0.0
1705326602.6594262,0.0,-3.0,1.0,-1.0,-3.0,-1.0,-3.0,0.0
1705326602.6594262,0.0,-1.0,-2.0,-1.0,-1.0,-2.0,0.0,0.0
1705326602.6694293,-1.0,-2.0,-1.0,-2.0,0.0,-1.0,0.0,1.0
1705326602.6694293,0.0,-1.0,0.0,0.0,0.0,-1.0,-1.0,-1.0
1705326602.6694293,0.0,-1.0,-1.0,-1.0,-1.0,-1.0,-2.0,0.0
1705326602.6694293,-3.0,-1.0,-1.0,-1.0,-1.0,0.0,-2.0,-1.0
1705326602.6694293,0.0,-3.0,-2.0,-1.0,-1.0,-2.0,0.0,-1.0
1705326602.6694293,-3.0,0.0,-1.0,0.0,-2.0,-2.0,0.0,-2.0
1705326602.6919382,-2.0,-1.0,-1.0,1.0,-3.0,0.0,0.0,1.0
1705326602.6919382,-1.0,-2.0,-1.0,-2.0,1.0,0.0,-1.0,-2.0
1705326602.698938,-1.0,0.0,-1.0,-2.0,0.0,-2.0,-1.0,1.0
1705326602.698938,-1.0,-2.0,-3.0,-1.0,0.0,-1.0,0.0,-1.0
1705326602.7222085,1.0,0.0,-1.0,-1.0,0.0,-1.0,0.0,-1.0
1705326602.7222085,-1.0,-2.0,-1.0,-1.0,0.0,-1.0,-1.0,0.0
1705326602.7222085,-2.0,0.0,-1.0,-2.0,-2.0,0.0,-1.0,-2.0
1705326602.7222085,-1.0,-1.0,-1.0,-3.0,-1.0,0.0,0.0,-1.0
1705326602.7322521,-1.0,0.0,1.0,-2.0,0.0,0.0,-2.0,-1.0
1705326602.7322521,-2.0,0.0,0.0,-1.0,-3.0,-1.0,-1.0,0.0
1705326602.7322521,-1.0,-2.0,0.0,1.0,-2.0,-2.0,-2.0,-1.0
1705326602.7322521,-1.0,-1.0,-1.0,1.0,0.0,-2.0,-2.0,0.0
1705326602.7522106,-1.0,-2.0,-1.0,-1.0,-2.0,-1.0,-2.0,-2.0
1705326602.7522106,-1.0,-1.0,0.0,-2.0,-1.0,-2.0,-3.0,0.0
1705326602.7522106,0.0,0.0,-1.0,0.0,2.0,-1.0,-2.0,1.0
1705326602.7522106,-1.0,-1.0,-1.0,-1.0,0.0,0.0,-2.0,-1.0
1705326602.7722085,-1.0,-1.0,-3.0,0.0,-1.0,-1.0,-1.0,-1.0
1705326602.7722085,-1.0,-1.0,-2.0,-1.0,-2.0,-1.0,0.0,-1.0
1705326602.782206,-1.0,0.0,0.0,-1.0,-2.0,-2.0,-2.0,-2.0
1705326602.782206,1.0,-2.0,-1.0,0.0,-2.0,-1.0,-1.0,-2.0
1705326602.8022099,-1.0,-2.0,-1.0,-2.0,-1.0,-2.0,-2.0,-1.0
1705326602.8022099,0.0,-2.0,-1.0,0.0,-1.0,-2.0,-1.0,-1.0
1705326602.8022099,0.0,-2.0,-2.0,-1.0,-2.0,-1.0,-1.0,0.0
1705326602.8022099,-2.0,-1.0,0.0,-1.0,-3.0,0.0,0.0,-1.0
1705326602.8122063,1.0,-2.0,-1.0,-1.0,0.0,-1.0,1.0,0.0
1705326602.8122063,-1.0,0.0,1.0,-2.0,0.0,-1.0,1.0,0.0
1705326602.8122063,1.0,-1.0,0.0,-2.0,0.0,-1.0,0.0,-1.0
1705326602.8122063,-1.0,-2.0,-1.0,0.0,-1.0,0.0,-1.0,-3.0
1705326602.8322065,-1.0,0.0,0.0,-1.0,-3.0,-1.0,1.0,-1.0
1705326602.8322065,0.0,-1.0,-1.0,-2.0,-1.0,1.0,0.0,-3.0
1705326602.8322065,-1.0,0.0,-1.0,0.0,-2.0,-1.0,1.0,-2.0
1705326602.8322065,-1.0,-4.0,-2.0,-2.0,-3.0,-1.0,0.0,0.0
1705326602.852209,0.0,0.0,0.0,-1.0,1.0,-2.0,-1.0,0.0
1705326602.852209,-1.0,0.0,-2.0,-1.0,-1.0,1.0,-1.0,-2.0
1705326602.852209,-1.0,0.0,0.0,-4.0,-1.0,-3.0,-1.0,-1.0
1705326602.852209,-2.0,0.0,-1.0,0.0,0.0,-3.0,-1.0,0.0
1705326602.882207,-2.0,0.0,-1.0,-2.0,1.0,1.0,-2.0,-2.0
1705326602.882207,-1.0,-2.0,-3.0,-1.0,-2.0,-2.0,-3.0,0.0
1705326602.892207,-1.0,-6.0,-3.0,-2.0,-4.0,1.0,-2.0,-2.0
1705326602.892207,-2.0,-1.0,-1.0,-3.0,-1.0,-2.0,-1.0,0.0
1705326602.892207,-2.0,-1.0,-1.0,-2.0,-2.0,-4.0,-2.0,-1.0
1705326602.892207,-3.0,0.0,-1.0,-3.0,-2.0,-1.0,-1.0,0.0
1705326602.892207,-1.0,1.0,-1.0,-1.0,-2.0,-1.0,0.0,-1.0
1705326602.892207,0.0,0.0,-2.0,0.0,-1.0,-2.0,-1.0,0.0
1705326602.9122581,-2.0,-2.0,0.0,1.0,0.0,-1.0,-1.0,-2.0
1705326602.9122581,-3.0,-2.0,-1.0,0.0,-1.0,0.0,-2.0,-1.0
1705326602.9122581,0.0,-1.0,-1.0,0.0,-1.0,-1.0,-2.0,-1.0
1705326602.9122581,0.0,-2.0,0.0,0.0,-2.0,-1.0,-1.0,-1.0
1705326602.9322076,-2.0,0.0,-1.0,-2.0,-1.0,-1.0,-2.0,-2.0
1705326602.9322076,-1.0,-2.0,-2.0,0.0,1.0,0.0,-1.0,-1.0
1705326602.9322076,0.0,-1.0,-1.0,-2.0,1.0,-1.0,-2.0,-2.0
1705326602.9322076,-1.0,0.0,-1.0,-1.0,-3.0,-1.0,-2.0,0.0
1705326602.9522073,0.0,-1.0,-2.0,-1.0,-4.0,-1.0,1.0,0.0
1705326602.9522073,-1.0,-3.0,-1.0,-1.0,-1.0,-1.0,0.0,0.0
1705326602.9522073,-1.0,0.0,0.0,0.0,0.0,-2.0,-1.0,0.0
1705326602.9522073,-1.0,-1.0,-1.0,-1.0,0.0,-2.0,-1.0,-2.0
1705326602.9722066,-2.0,-2.0,0.0,0.0,-2.0,0.0,0.0,-1.0
1705326602.9722066,0.0,1.0,-1.0,-1.0,0.0,-1.0,0.0,-1.0
1705326602.9722066,-2.0,-2.0,0.0,-1.0,-1.0,-3.0,0.0,-1.0
1705326602.9722066,-2.0,1.0,1.0,-2.0,-3.0,0.0,-3.0,-2.0
1705326602.9922066,0.0,-2.0,-1.0,0.0,-1.0,-1.0,0.0,-1.0
1705326602.9922066,1.0,-1.0,-2.0,-1.0,-1.0,0.0,-2.0,-1.0
1705326602.9922066,0.0,-1.0,-1.0,-1.0,-2.0,-1.0,1.0,-1.0
1705326602.9922066,-1.0,-1.0,-2.0,0.0,0.0,-1.0,-2.0,-1.0
1705326603.012207,-1.0,-1.0,0.0,0.0,-2.0,-2.0,-1.0,-1.0
1705326603.012207,-2.0,0.0,0.0,-1.0,-2.0,-3.0,0.0,1.0
1705326603.012207,-1.0,0.0,0.0,-2.0,1.0,-1.0,-2.0,0.0
1705326603.012207,0.0,-1.0,-2.0,-1.0,0.0,0.0,-2.0,-2.0
1705326603.0322087,1.0,-3.0,-1.0,0.0,1.0,-1.0,-3.0,-2.0
1705326603.0322087,-1.0,-1.0,0.0,-2.0,-3.0,-3.0,-1.0,-1.0
1705326603.0322087,0.0,-2.0,-1.0,-1.0,-1.0,-2.0,-2.0,0.0
1705326603.0322087,-1.0,0.0,0.0,-1.0,0.0,0.0,-1.0,-3.0
1705326603.0522065,0.0,-1.0,-2.0,-1.0,-1.0,-1.0,-2.0,-1.0
1705326603.0522065,-2.0,1.0,-2.0,0.0,-2.0,-1.0,-1.0,0.0
1705326603.0522065,-1.0,-1.0,0.0,-2.0,-1.0,-1.0,-2.0,-1.0
1705326603.0522065,-1.0,0.0,-3.0,0.0,-1.0,0.0,-1.0,2.0
1705326603.0722072,-2.0,-1.0,0.0,-2.0,-2.0,0.0,0.0,-1.0
1705326603.0722072,0.0,-1.0,-1.0,0.0,-1.0,0.0,-1.0,-1.0
1705326603.0822067,0.0,0.0,0.0,-1.0,-1.0,-1.0,-1.0,0.0
1705326603.0822067,-1.0,-1.0,-1.0,-3.0,-1.0,-4.0,0.0,0.0
1705326603.092207,-3.0,-2.0,-4.0,0.0,-2.0,-1.0,-2.0,-1.0
1705326603.092207,-1.0,-1.0,-1.0,-1.0,0.0,-1.0,-2.0,-3.0
1705326603.092207,-2.0,-3.0,-2.0,-1.0,-1.0,0.0,-1.0,-1.0
1705326603.092207,1.0,-1.0,0.0,0.0,-1.0,0.0,0.0,0.0
1705326603.1122072,-1.0,-1.0,-1.0,-2.0,-2.0,-2.0,0.0,0.0
1705326603.1122072,-1.0,-1.0,-1.0,-1.0,-2.0,-2.0,-1.0,-1.0
1705326603.1122072,-2.0,0.0,-2.0,-1.0,-2.0,-1.0,-1.0,0.0
1705326603.1122072,-2.0,-2.0,0.0,-1.0,-1.0,-2.0,-1.0,-1.0
1705326603.1322083,0.0,-2.0,-2.0,-1.0,-3.0,0.0,0.0,-1.0
1705326603.1322083,-1.0,1.0,0.0,-1.0,-2.0,0.0,-2.0,-1.0
1705326603.1322083,-1.0,0.0,0.0,0.0,0.0,-2.0,0.0,-1.0
1705326603.1322083,0.0,0.0,0.0,-1.0,-1.0,0.0,-1.0,-2.0
1705326603.152242,-1.0,-1.0,0.0,-3.0,0.0,-2.0,-3.0,-1.0
1705326603.152242,0.0,0.0,-3.0,-2.0,0.0,-1.0,0.0,-2.0
1705326603.152242,-1.0,0.0,-2.0,-1.0,0.0,0.0,0.0,-1.0
1705326603.152242,-1.0,-3.0,0.0,-2.0,-1.0,-1.0,1.0,-3.0
1705326603.1722052,0.0,1.0,-2.0,0.0,-2.0,0.0,-2.0,-1.0
1705326603.1722052,-1.0,-1.0,-2.0,0.0,0.0,-2.0,0.0,-1.0
1705326603.1722052,0.0,-1.0,-1.0,-1.0,-2.0,-2.0,-1.0,-1.0
1705326603.1722052,0.0,0.0,-3.0,-1.0,-1.0,-1.0,-1.0,-1.0
1705326603.1922066,-1.0,-1.0,1.0,-2.0,0.0,-3.0,-1.0,-1.0
1705326603.1922066,-2.0,-1.0,-1.0,-2.0,-2.0,-2.0,0.0,-2.0
1705326603.1922066,-1.0,-1.0,0.0,-1.0,-1.0,-1.0,0.0,0.0
1705326603.1922066,-2.0,-1.0,-1.0,-2.0,0.0,0.0,-1.0,-1.0
1705326603.217873,-1.0,0.0,-2.0,-1.0,-2.0,0.0,-1.0,-2.0
1705326603.217873,0.0,-1.0,-2.0,0.0,-2.0,1.0,-1.0,1.0
1705326603.2188892,-2.0,-1.0,0.0,-2.0,-2.0,-1.0,-2.0,-1.0
1705326603.2188892,-1.0,-1.0,0.0,-2.0,-1.0,-1.0,-3.0,-2.0
1705326603.2307768,0.0,-1.0,0.0,-2.0,0.0,0.0,0.0,-2.0
1705326603.2317417,-1.0,-2.0,-1.0,-3.0,-1.0,-1.0,0.0,-1.0
1705326603.2451923,-2.0,0.0,0.0,1.0,-1.0,-2.0,-1.0,0.0
1705326603.2451923,0.0,-1.0,-3.0,-2.0,1.0,-2.0,-2.0,0.0
1705326603.2551966,-1.0,-1.0,-1.0,0.0,-1.0,0.0,-2.0,0.0
1705326603.2551966,-1.0,-3.0,-1.0,-2.0,-3.0,-4.0,-1.0,-1.0
1705326603.2551966,1.0,0.0,-3.0,-2.0,0.0,0.0,0.0,-2.0
1705326603.2551966,-1.0,0.0,-1.0,-1.0,-1.0,-2.0,-1.0,-1.0
1705326603.2751994,0.0,0.0,-1.0,0.0,-1.0,-3.0,0.0,-1.0
1705326603.2751994,0.0,0.0,-2.0,-3.0,-1.0,-2.0,0.0,-2.0
1705326603.2751994,-1.0,-3.0,-2.0,0.0,-2.0,-1.0,-2.0,0.0
1705326603.2751994,-1.0,-1.0,-2.0,0.0,-2.0,-1.0,-1.0,-1.0
1705326603.2851965,-1.0,0.0,0.0,-1.0,-1.0,-2.0,-2.0,1.0
1705326603.2851965,-1.0,0.0,-2.0,-1.0,0.0,-2.0,-1.0,-1.0
1705326603.295198,-2.0,0.0,-1.0,-1.0,-1.0,0.0,0.0,-2.0
1705326603.295198,0.0,-1.0,-1.0,1.0,-2.0,-1.0,0.0,-1.0
1705326603.3151972,-2.0,-2.0,1.0,0.0,1.0,-1.0,-1.0,-2.0
1705326603.3151972,0.0,-1.0,0.0,0.0,-2.0,1.0,-2.0,-2.0
1705326603.3151972,0.0,-1.0,-2.0,-1.0,-1.0,0.0,-1.0,-1.0
1705326603.3151972,0.0,0.0,-1.0,0.0,-1.0,-1.0,0.0,-2.0
1705326603.335198,0.0,0.0,-2.0,-2.0,0.0,-1.0,0.0,0.0
1705326603.335198,0.0,-2.0,-2.0,0.0,-1.0,-2.0,-3.0,0.0
1705326603.335198,-1.0,-1.0,-1.0,-1.0,0.0,0.0,0.0,-2.0
1705326603.335198,-1.0,-3.0,-1.0,-2.0,-2.0,0.0,0.0,0.0
1705326603.3451972,0.0,-1.0,-2.0,-2.0,-1.0,-3.0,-1.0,-1.0
1705326603.3451972,-1.0,-2.0,-1.0,0.0,0.0,-1.0,1.0,-2.0
1705326603.3551946,-2.0,0.0,-2.0,0.0,-2.0,-2.0,-2.0,0.0
1705326603.3551946,-1.0,-1.0,-1.0,-1.0,0.0,-1.0,-1.0,-2.0
1705326603.3751981,-2.0,-2.0,-4.0,-1.0,-1.0,-1.0,-2.0,-2.0
1705326603.3751981,-2.0,-3.0,-1.0,-1.0,-3.0,0.0,0.0,-1.0
1705326603.3751981,-1.0,-3.0,-1.0,-2.0,-1.0,-1.0,-1.0,-1.0
1705326603.3751981,0.0,-1.0,0.0,-3.0,-2.0,-1.0,0.0,-2.0
1705326603.3951976,-2.0,0.0,-3.0,-3.0,-2.0,-2.0,-1.0,-2.0
1705326603.3951976,-1.0,1.0,-1.0,0.0,0.0,1.0,-2.0,-1.0
1705326603.3951976,0.0,-2.0,-1.0,-1.0,-2.0,0.0,-1.0,0.0
1705326603.3951976,-2.0,-2.0,-1.0,-1.0,-1.0,-3.0,-2.0,0.0
1705326603.4052014,-1.0,1.0,0.0,1.0,-1.0,0.0,-1.0,0.0
1705326603.4052014,-1.0,-1.0,1.0,0.0,-1.0,-2.0,-1.0,1.0
1705326603.4152012,0.0,-4.0,-3.0,-1.0,-2.0,-2.0,0.0,0.0
1705326603.4152012,1.0,1.0,-2.0,-1.0,1.0,0.0,-1.0,0.0
1705326603.435201,-2.0,-1.0,0.0,0.0,-1.0,-1.0,0.0,-2.0
1705326603.435201,-1.0,-2.0,-2.0,-1.0,0.0,-2.0,0.0,-1.0
1705326603.435201,0.0,0.0,0.0,-1.0,-1.0,0.0,2.0,-1.0
1705326603.435201,-1.0,-3.0,-1.0,-2.0,-3.0,-2.0,-1.0,-2.0
1705326603.4551973,-1.0,-1.0,-3.0,-1.0,2.0,0.0,1.0,-1.0
1705326603.4551973,-1.0,1.0,-1.0,-2.0,0.0,1.0,2.0,0.0
1705326603.4551973,-2.0,-1.0,0.0,-1.0,-2.0,-1.0,3.0,-1.0
1705326603.4551973,-1.0,1.0,1.0,-1.0,0.0,1.0,3.0,0.0
1705326603.4652026,0.0,-2.0,0.0,-2.0,-2.0,0.0,1.0,-2.0
1705326603.4652026,1.0,1.0,0.0,-2.0,0.0,1.0,1.0,-3.0
1705326603.4753788,0.0,1.0,-1.0,-1.0,0.0,0.0,1.0,-1.0
1705326603.4753788,-1.0,-2.0,-4.0,-2.0,-2.0,-1.0,2.0,-1.0
1705326603.4951985,0.0,-1.0,-2.0,-1.0,-1.0,1.0,0.0,1.0
1705326603.4951985,-1.0,-2.0,1.0,-2.0,-1.0,-1.0,1.0,-1.0
1705326603.5051985,-3.0,0.0,2.0,-1.0,-1.0,-2.0,-2.0,-2.0
1705326603.5051985,-1.0,2.0,0.0,0.0,-1.0,-1.0,-3.0,0.0
1705326603.5151982,-3.0,-3.0,-2.0,-1.0,-2.0,-3.0,-6.0,-1.0
1705326603.5151982,-2.0,-4.0,-2.0,0.0,0.0,-4.0,-7.0,-2.0
1705326603.5151982,-4.0,-3.0,-1.0,0.0,0.0,-4.0,-10.0,-1.0
1705326603.5151982,-3.0,0.0,-1.0,1.0,-1.0,-5.0,-9.0,0.0
1705326603.5251956,-4.0,-2.0,0.0,1.0,0.0,-4.0,-11.0,-3.0
1705326603.5251956,-3.0,0.0,0.0,2.0,-2.0,-5.0,-12.0,0.0
1705326603.5352197,-2.0,1.0,-1.0,3.0,-2.0,-7.0,-11.0,-1.0
1705326603.5352197,-4.0,-5.0,-2.0,0.0,-3.0,-7.0,-8.0,0.0
1705326603.5551987,0.0,0.0,-1.0,-1.0,-2.0,-4.0,0.0,0.0
1705326603.5551987,1.0,-3.0,-3.0,-2.0,-3.0,-1.0,5.0,1.0
1705326603.5551987,1.0,0.0,-3.0,-2.0,-3.0,2.0,10.0,0.0
1705326603.5551987,1.0,1.0,0.0,0.0,-1.0,3.0,10.0,1.0
1705326603.5751991,-1.0,-1.0,-2.0,-2.0,-3.0,3.0,7.0,0.0
1705326603.5751991,0.0,1.0,0.0,0.0,-2.0,2.0,3.0,0.0
1705326603.5751991,1.0,-1.0,-2.0,-4.0,-1.0,2.0,0.0,-1.0
1705326603.5751991,-1.0,-2.0,-1.0,-4.0,-3.0,2.0,-2.0,-1.0
1705326603.5851936,2.0,-2.0,1.0,0.0,0.0,0.0,-5.0,0.0
1705326603.5851936,-1.0,0.0,-2.0,-2.0,-1.0,1.0,-4.0,0.0
1705326603.595197,0.0,0.0,1.0,-1.0,1.0,-1.0,-6.0,0.0
1705326603.595197,-1.0,-2.0,-1.0,0.0,2.0,-2.0,-4.0,-2.0
1705326603.625195,-3.0,-1.0,1.0,-1.0,-1.0,-1.0,-1.0,0.0
1705326603.625195,-2.0,-2.0,-2.0,0.0,-2.0,-2.0,1.0,-1.0
1705326603.625195,0.0,-2.0,-1.0,-1.0,0.0,0.0,1.0,0.0
1705326603.625195,-1.0,0.0,-1.0,-1.0,-1.0,0.0,-1.0,-3.0
1705326603.635231,0.0,0.0,-1.0,1.0,0.0,-1.0,3.0,-2.0
1705326603.635231,-1.0,-1.0,-2.0,0.0,-1.0,0.0,1.0,-2.0
1705326603.635231,0.0,0.0,-1.0,-1.0,-3.0,0.0,2.0,-1.0
1705326603.635231,-1.0,-1.0,-2.0,-3.0,-3.0,-3.0,1.0,-1.0
1705326603.6552,0.0,0.0,0.0,-2.0,-1.0,-3.0,-3.0,0.0
1705326603.6552,-1.0,-1.0,-2.0,-1.0,0.0,-3.0,-3.0,-1.0
1705326603.6552,-1.0,-2.0,-4.0,1.0,-2.0,-3.0,-4.0,-3.0
1705326603.6552,-1.0,-2.0,-2.0,1.0,-1.0,-3.0,-2.0,-1.0
1705326603.6751986,-2.0,-3.0,-2.0,-2.0,-1.0,-1.0,1.0,0.0
1705326603.6751986,0.0,-2.0,-4.0,-2.0,-1.0,0.0,0.0,-1.0
1705326603.6751986,-1.0,-2.0,-1.0,-2.0,0.0,-2.0,1.0,0.0
1705326603.6751986,0.0,0.0,1.0,-2.0,-1.0,-2.0,2.0,-1.0
1705326603.6951945,0.0,-2.0,-2.0,-1.0,-2.0,-1.0,-2.0,-1.0
1705326603.6951945,-1.0,-2.0,0.0,-2.0,0.0,-2.0,-2.0,0.0
1705326603.6951945,0.0,-1.0,0.0,-2.0,-1.0,-1.0,-1.0,0.0
1705326603.6951945,-1.0,-2.0,-1.0,-3.0,-1.0,0.0,-1.0,0.0
1705326603.7251966,0.0,-2.0,-3.0,-3.0,-1.0,-1.0,0.0,0.0
1705326603.7251966,-2.0,0.0,-2.0,-1.0,-1.0,0.0,-1.0,-1.0
1705326603.7351987,-1.0,0.0,-1.0,-1.0,-3.0,0.0,0.0,-3.0
1705326603.7351987,-1.0,-1.0,-2.0,-2.0,-1.0,2.0,2.0,-3.0
1705326603.7351987,0.0,0.0,0.0,-3.0,-1.0,0.0,4.0,-2.0
1705326603.7351987,-2.0,-1.0,-1.0,-1.0,-1.0,-2.0,2.0,-3.0
1705326603.7351987,0.0,0.0,-2.0,-2.0,0.0,1.0,4.0,0.0
1705326603.7351987,-2.0,2.0,-1.0,-1.0,0.0,0.0,2.0,-1.0
1705326603.7575178,-1.0,0.0,0.0,-2.0,-2.0,1.0,0.0,-3.0
1705326603.7575178,-1.0,0.0,0.0,-2.0,0.0,-3.0,1.0,-2.0
1705326603.7585177,-1.0,-1.0,0.0,-2.0,0.0,-2.0,0.0,-1.0
1705326603.7585177,-1.0,-4.0,-1.0,1.0,-2.0,-2.0,-1.0,-1.0
1705326603.7779062,-1.0,-1.0,-3.0,-1.0,-1.0,0.0,-3.0,-1.0
1705326603.7779062,2.0,-2.0,-1.0,-1.0,0.0,-1.0,-3.0,0.0
1705326603.7879086,-1.0,-2.0,-1.0,0.0,-1.0,-2.0,-5.0,-2.0
1705326603.7879086,0.0,-1.0,0.0,0.0,0.0,-2.0,-2.0,-1.0
1705326603.7879086,-1.0,1.0,0.0,0.0,-2.0,-2.0,-3.0,-1.0
1705326603.7879086,-1.0,-1.0,-2.0,0.0,-1.0,-2.0,-4.0,0.0
1705326603.7979095,-1.0,-2.0,-2.0,0.0,-1.0,0.0,-4.0,1.0
1705326603.7979095,-1.0,-2.0,-2.0,0.0,-1.0,-2.0,-3.0,-1.0
1705326603.8179107,-1.0,-1.0,-1.0,1.0,0.0,0.0,-2.0,-1.0
1705326603.8179107,-1.0,-2.0,0.0,-1.0,-1.0,-1.0,-3.0,-1.0
