1705327039.8150089,-20.0,-61.0,-10.0,-6.0,-6.0,-5.0,-16.0,-24.0
1705327039.8150089,12.0,64.0,30.0,20.0,6.0,8.0,21.0,36.0
1705327039.8150089,13.0,41.0,-3.0,-11.0,-2.0,1.0,-1.0,-71.0
1705327039.8150089,-3.0,-38.0,41.0,11.0,4.0,2.0,3.0,16.0
1705327039.8250036,21.0,37.0,0.0,-2.0,-2.0,1.0,2.0,1.0
1705327039.8250036,-12.0,37.0,44.0,8.0,2.0,1.0,6.0,-21.0
1705327039.8250036,7.0,-1.0,-9.0,-13.0,-3.0,-4.0,4.0,35.0
1705327039.8250036,-10.0,43.0,16.0,3.0,-4.0,1.0,-9.0,8.0
1705327039.8350043,10.0,104.0,43.0,16.0,9.0,2.0,1.0,0.0
1705327039.8350043,-9.0,-42.0,-51.0,5.0,-3.0,-2.0,0.0,6.0
1705327039.8450072,-3.0,43.0,26.0,-14.0,-4.0,-3.0,-8.0,-3.0
1705327039.8450072,-6.0,-21.0,-21.0,-2.0,-6.0,-5.0,-4.0,-7.0
1705327039.865005,-3.0,28.0,-57.0,0.0,25.0,10.0,13.0,19.0
1705327039.865005,14.0,-11.0,-66.0,-23.0,-15.0,-6.0,1.0,-3.0
1705327039.865005,-15.0,0.0,27.0,19.0,8.0,-1.0,-4.0,-3.0
1705327039.865005,-1.0,-3.0,64.0,-36.0,-22.0,-5.0,0.0,-7.0
1705327039.8850071,10.0,3.0,-25.0,46.0,7.0,-5.0,-2.0,9.0
1705327039.8850071,-1.0,-13.0,3.0,20.0,19.0,8.0,1.0,7.0
1705327039.8850071,-10.0,-16.0,-65.0,-11.0,-13.0,-4.0,3.0,-3.0
1705327039.8850071,-18.0,12.0,47.0,-1.0,-1.0,-8.0,-6.0,-18.0
1705327039.8950064,12.0,-28.0,28.0,-8.0,-11.0,0.0,-12.0,17.0
1705327039.8950064,-6.0,-37.0,-57.0,-27.0,-11.0,-8.0,-4.0,-6.0
1705327039.9150069,-1.0,1.0,16.0,10.0,8.0,9.0,-1.0,7.0
1705327039.9150069,-2.0,-2.0,-28.0,1.0,5.0,-2.0,-2.0,9.0
1705327039.9250066,-12.0,-5.0,-40.0,-6.0,-8.0,-6.0,8.0,-1.0
1705327039.9250066,2.0,0.0,1.0,-18.0,-7.0,0.0,-2.0,-6.0
1705327039.9250066,1.0,9.0,43.0,0.0,-5.0,-1.0,6.0,-4.0
1705327039.9250066,12.0,6.0,-24.0,18.0,6.0,2.0,-6.0,-23.0
1705327039.949435,-17.0,-7.0,59.0,-2.0,-7.0,-6.0,-7.0,-4.0
1705327039.949435,1.0,-16.0,-51.0,-3.0,0.0,-1.0,2.0,8.0
1705327039.9504333,-4.0,-1.0,33.0,3.0,0.0,-1.0,2.0,-3.0
1705327039.9504333,-5.0,-13.0,-44.0,-16.0,-2.0,0.0,-2.0,4.0
1705327039.9624314,13.0,-5.0,-7.0,-6.0,-5.0,-5.0,-6.0,-16.0
1705327039.9624314,-16.0,1.0,39.0,0.0,-2.0,1.0,1.0,-3.0
1705327039.9876683,6.0,8.0,0.0,-1.0,2.0,6.0,9.0,6.0
1705327039.9876683,-6.0,2.0,16.0,18.0,0.0,-3.0,-9.0,28.0
1705327039.9876683,3.0,-5.0,-5.0,-15.0,-6.0,-3.0,5.0,9.0
1705327039.9876683,15.0,4.0,13.0,0.0,-3.0,-4.0,1.0,0.0
1705327039.9876683,2.0,-5.0,4.0,2.0,2.0,-2.0,-12.0,27.0
1705327039.9876683,5.0,3.0,-22.0,5.0,8.0,2.0,-12.0,-57.0
1705327040.0077066,8.0,-26.0,-10.0,-9.0,-5.0,-8.0,6.0,-10.0
1705327040.0077066,-33.0,9.0,24.0,-5.0,-5.0,-2.0,3.0,0.0
1705327040.0077066,-15.0,12.0,4.0,0.0,-1.0,3.0,1.0,2.0
1705327040.0077066,31.0,-43.0,-15.0,4.0,-1.0,0.0,-1.0,12.0
1705327040.0176642,-40.0,18.0,3.0,-3.0,1.0,4.0,-6.0,-6.0
1705327040.0176642,56.0,1.0,25.0,3.0,-1.0,-2.0,-5.0,-4.0
1705327040.0376675,-24.0,24.0,-4.0,-3.0,-5.0,-10.0,-6.0,-1.0
1705327040.0376675,-21.0,-10.0,-18.0,-6.0,1.0,3.0,-3.0,7.0
1705327040.0376675,19.0,-23.0,28.0,-13.0,-2.0,-2.0,9.0,5.0
1705327040.0376675,7.0,-29.0,-27.0,13.0,0.0,-2.0,4.0,6.0
1705327040.0476675,8.0,54.0,12.0,-13.0,-1.0,-1.0,-15.0,-13.0
1705327040.0476675,-1.0,-7.0,0.0,-8.0,0.0,0.0,10.0,8.0
1705327040.0676692,3.0,10.0,26.0,28.0,2.0,6.0,-13.0,-1.0
1705327040.0676692,-18.0,14.0,-22.0,-9.0,-2.0,-6.0,-6.0,-1.0
1705327040.0676692,14.0,-25.0,25.0,15.0,1.0,-5.0,19.0,-6.0
1705327040.0676692,-17.0,0.0,-15.0,-4.0,-4.0,2.0,-15.0,-8.0
1705327040.0777073,2.0,10.0,6.0,-14.0,-3.0,-1.0,-10.0,1.0
1705327040.0777073,6.0,26.0,23.0,6.0,-3.0,-14.0,13.0,3.0
1705327040.0976665,-10.0,-74.0,-26.0,-2.0,0.0,2.0,-6.0,-2.0
1705327040.0976665,3.0,29.0,-2.0,-1.0,0.0,12.0,16.0,13.0
1705327040.0976665,2.0,-35.0,-20.0,-5.0,-5.0,-21.0,-19.0,-14.0
1705327040.0976665,-7.0,-11.0,14.0,1.0,-1.0,4.0,-5.0,0.0
1705327040.1076677,4.0,-32.0,-15.0,-4.0,-1.0,-2.0,5.0,0.0
1705327040.1076677,-17.0,14.0,0.0,0.0,0.0,1.0,-4.0,0.0
1705327040.1276686,6.0,-44.0,-8.0,1.0,0.0,8.0,6.0,-6.0
1705327040.1276686,-5.0,-21.0,16.0,-6.0,-3.0,-1.0,2.0,-4.0
1705327040.1276686,11.0,21.0,13.0,5.0,-3.0,-2.0,-4.0,5.0
1705327040.1276686,0.0,-38.0,-32.0,-11.0,-3.0,-5.0,-1.0,-6.0
1705327040.1476693,-8.0,11.0,-3.0,3.0,0.0,0.0,4.0,5.0
1705327040.1476693,-5.0,-17.0,-18.0,-10.0,1.0,1.0,-4.0,-4.0
1705327040.1476693,12.0,0.0,-27.0,-1.0,-2.0,7.0,-10.0,0.0
1705327040.1476693,7.0,32.0,21.0,23.0,6.0,-12.0,9.0,1.0
1705327040.1576693,9.0,-21.0,-6.0,-10.0,-3.0,-2.0,17.0,2.0
1705327040.1576693,-18.0,6.0,17.0,1.0,-4.0,4.0,-14.0,-4.0
1705327040.1676724,1.0,-34.0,2.0,-3.0,-1.0,-2.0,1.0,-3.0
1705327040.1676724,5.0,59.0,11.0,10.0,2.0,3.0,-2.0,2.0
1705327040.1876683,11.0,-3.0,-5.0,-4.0,1.0,4.0,-5.0,3.0
1705327040.1876683,-12.0,-2.0,-2.0,5.0,-1.0,-2.0,1.0,1.0
1705327040.1876683,-4.0,28.0,1.0,6.0,0.0,1.0,-2.0,5.0
1705327040.1876683,-4.0,-11.0,0.0,-5.0,-6.0,-9.0,-2.0,-13.0
1705327040.197672,-1.0,-31.0,-5.0,8.0,4.0,-1.0,2.0,4.0
1705327040.197672,14.0,-31.0,-5.0,4.0,3.0,4.0,-2.0,2.0
1705327040.2176654,-23.0,-8.0,-35.0,-8.0,-10.0,-10.0,-2.0,-7.0
1705327040.2176654,-3.0,-13.0,-1.0,-20.0,-3.0,-1.0,-1.0,4.0
1705327040.2176654,40.0,39.0,28.0,-4.0,1.0,0.0,1.0,3.0
1705327040.2176654,-27.0,1.0,10.0,15.0,1.0,-3.0,-17.0,-8.0
1705327040.227665,3.0,-70.0,-28.0,-11.0,2.0,0.0,6.0,-13.0
1705327040.227665,3.0,2.0,7.0,4.0,-4.0,-3.0,3.0,24.0
1705327040.2478583,-10.0,-55.0,-18.0,-8.0,-7.0,-5.0,-6.0,-5.0
1705327040.2478583,18.0,47.0,15.0,-3.0,4.0,4.0,8.0,4.0
1705327040.2478583,-6.0,27.0,8.0,2.0,1.0,-1.0,-1.0,-2.0
1705327040.2478583,0.0,9.0,-6.0,1.0,-2.0,-2.0,-3.0,-1.0
1705327040.257665,-5.0,59.0,2.0,-2.0,-1.0,-1.0,5.0,6.0
1705327040.257665,-9.0,-5.0,-2.0,0.0,0.0,0.0,-1.0,9.0
1705327040.2776687,-1.0,22.0,9.0,-3.0,1.0,3.0,-4.0,-12.0
1705327040.2776687,-3.0,-23.0,8.0,2.0,4.0,-3.0,-10.0,-2.0
1705327040.2776687,-10.0,33.0,-22.0,-4.0,-2.0,5.0,19.0,-3.0
1705327040.2776687,3.0,0.0,-21.0,-5.0,-5.0,-2.0,0.0,7.0
1705327040.2876682,0.0,-26.0,11.0,2.0,-3.0,-1.0,-8.0,-35.0
1705327040.2876682,2.0,45.0,22.0,4.0,4.0,-1.0,-2.0,7.0
1705327040.3176663,-17.0,-11.0,12.0,2.0,5.0,2.0,3.0,6.0
1705327040.3176663,-2.0,3.0,-16.0,-8.0,1.0,2.0,-17.0,1.0
1705327040.3176663,2.0,16.0,-5.0,-2.0,-2.0,-11.0,26.0,5.0
1705327040.3176663,-1.0,-16.0,-5.0,3.0,-3.0,2.0,-3.0,2.0
1705327040.3176663,-10.0,0.0,-9.0,-2.0,-4.0,-2.0,-6.0,-15.0
1705327040.3176663,-1.0,-14.0,0.0,-7.0,-3.0,-2.0,0.0,-26.0
1705327040.3276646,9.0,-2.0,14.0,6.0,0.0,4.0,-1.0,18.0
1705327040.3276646,3.0,-19.0,-25.0,-2.0,-1.0,1.0,0.0,5.0
1705327040.3376648,-34.0,20.0,-1.0,-5.0,-6.0,-4.0,17.0,-47.0
1705327040.3376648,5.0,-1.0,18.0,3.0,4.0,-4.0,3.0,-1.0
1705327040.3476698,2.0,-3.0,-23.0,-3.0,0.0,0.0,-10.0,6.0
1705327040.3476698,-6.0,68.0,28.0,6.0,-1.0,1.0,1.0,1.0
1705327040.367669,11.0,12.0,2.0,2.0,3.0,0.0,-16.0,10.0
1705327040.367669,5.0,16.0,27.0,0.0,-4.0,-2.0,2.0,-6.0
1705327040.367669,-18.0,-38.0,-3.0,-16.0,-3.0,-6.0,-5.0,-2.0
1705327040.367669,-4.0,-28.0,-60.0,-2.0,-5.0,-3.0,-1.0,-11.0
1705327040.3776677,6.0,7.0,3.0,-2.0,-1.0,-1.0,-3.0,12.0
1705327040.3776677,0.0,22.0,28.0,11.0,1.0,-5.0,5.0,-16.0
1705327040.3876643,8.0,30.0,2.0,-1.0,3.0,4.0,5.0,14.0
1705327040.3876643,-3.0,-22.0,7.0,-9.0,-3.0,1.0,-4.0,10.0
1705327040.397666,-4.0,-8.0,0.0,2.0,-1.0,-9.0,4.0,11.0
1705327040.397666,-4.0,-11.0,-18.0,-6.0,-3.0,5.0,8.0,-18.0
1705327040.40767,-12.0,48.0,6.0,4.0,2.0,-1.0,-6.0,9.0
1705327040.40767,-8.0,-39.0,-12.0,-5.0,-1.0,2.0,3.0,-11.0
1705327040.427673,7.0,-5.0,4.0,0.0,0.0,2.0,-6.0,11.0
1705327040.427673,-2.0,-1.0,5.0,-2.0,-2.0,-5.0,-8.0,9.0
1705327040.427673,-5.0,-9.0,-1.0,4.0,0.0,0.0,0.0,-7.0
1705327040.427673,-1.0,39.0,5.0,-10.0,-4.0,-4.0,1.0,-6.0
1705327040.4376671,8.0,-14.0,12.0,9.0,0.0,-1.0,-10.0,11.0
1705327040.4376671,-6.0,57.0,-7.0,-7.0,6.0,3.0,3.0,3.0
1705327040.4476662,-7.0,-13.0,-22.0,5.0,-3.0,0.0,-2.0,-3.0
1705327040.4476662,-2.0,-25.0,-6.0,-6.0,1.0,-1.0,3.0,-4.0
1705327040.4577093,0.0,10.0,-8.0,-7.0,-1.0,-1.0,-7.0,-1.0
1705327040.4577093,-4.0,-6.0,24.0,5.0,-1.0,1.0,2.0,16.0
1705327040.4681866,5.0,12.0,10.0,-3.0,-3.0,-5.0,-11.0,-28.0
1705327040.4681866,2.0,14.0,1.0,2.0,4.0,6.0,-7.0,2.0
1705327040.496738,-14.0,10.0,-29.0,-11.0,-6.0,-8.0,17.0,-33.0
1705327040.496738,2.0,-23.0,-6.0,2.0,2.0,0.0,-15.0,2.0
1705327040.4987211,2.0,1.0,3.0,-2.0,-2.0,-1.0,6.0,11.0
1705327040.4987211,3.0,-19.0,16.0,6.0,0.0,-2.0,1.0,-4.0
1705327040.5005918,0.0,-2.0,3.0,2.0,2.0,5.0,-1.0,-3.0
1705327040.5005918,-2.0,-18.0,-17.0,-5.0,-4.0,-4.0,-12.0,-4.0
1705327040.510595,2.0,5.0,-1.0,-5.0,-3.0,-1.0,5.0,13.0
1705327040.510595,1.0,-38.0,4.0,8.0,0.0,-4.0,4.0,-10.0
1705327040.5206323,-8.0,6.0,4.0,1.0,-5.0,-1.0,-8.0,0.0
1705327040.5206323,4.0,-69.0,-31.0,1.0,2.0,-1.0,1.0,1.0
1705327040.5206323,3.0,59.0,19.0,11.0,4.0,2.0,-6.0,7.0
1705327040.5206323,-10.0,91.0,17.0,-3.0,-1.0,1.0,2.0,1.0
1705327040.5405955,-1.0,0.0,-28.0,-14.0,-3.0,-4.0,-9.0,4.0
1705327040.5405955,7.0,11.0,26.0,4.0,-4.0,-1.0,4.0,7.0
1705327040.5505962,3.0,-14.0,0.0,-2.0,1.0,0.0,-5.0,-21.0
1705327040.5505962,-2.0,-47.0,-16.0,2.0,1.0,-1.0,4.0,17.0
1705327040.5606177,16.0,19.0,5.0,2.0,2.0,4.0,-11.0,6.0
1705327040.5606177,-16.0,14.0,11.0,-3.0,-1.0,-2.0,17.0,28.0
1705327040.570598,-18.0,-18.0,-10.0,-2.0,0.0,-3.0,7.0,-7.0
1705327040.570598,3.0,16.0,9.0,1.0,0.0,-1.0,12.0,3.0
1705327040.5905943,6.0,-10.0,5.0,0.0,-2.0,-2.0,-6.0,8.0
1705327040.5905943,10.0,57.0,4.0,0.0,0.0,3.0,2.0,-6.0
1705327040.5905943,2.0,-59.0,-11.0,1.0,1.0,0.0,-5.0,3.0
1705327040.5905943,0.0,18.0,0.0,-7.0,-5.0,-2.0,-6.0,-9.0
1705327040.6006393,9.0,-11.0,10.0,4.0,2.0,0.0,9.0,2.0
1705327040.6006393,-7.0,-27.0,-8.0,0.0,-2.0,-5.0,0.0,-15.0
1705327040.6105974,-15.0,43.0,-7.0,-8.0,-6.0,-5.0,-7.0,-2.0
1705327040.6105974,-1.0,-7.0,10.0,6.0,2.0,3.0,-6.0,-8.0
1705327040.6305947,-4.0,-3.0,-4.0,-4.0,-3.0,-1.0,-4.0,-4.0
1705327040.6305947,5.0,-7.0,-36.0,-9.0,-1.0,1.0,-1.0,-6.0
1705327040.6305947,3.0,8.0,-6.0,-6.0,-4.0,-2.0,-8.0,-6.0
1705327040.6305947,8.0,-5.0,-7.0,6.0,3.0,0.0,6.0,10.0
1705327040.6505942,-25.0,-16.0,62.0,19.0,6.0,2.0,-2.0,-4.0
1705327040.6505942,11.0,-31.0,-32.0,-9.0,-1.0,0.0,-4.0,-5.0
1705327040.6505942,8.0,27.0,8.0,-20.0,-7.0,-3.0,4.0,9.0
1705327040.6505942,3.0,7.0,-6.0,4.0,-2.0,-2.0,-9.0,-39.0
1705327040.6606286,-6.0,-34.0,17.0,-15.0,-7.0,-6.0,-6.0,1.0
1705327040.6606286,-2.0,12.0,29.0,6.0,-2.0,-1.0,-3.0,7.0
1705327040.6706302,-5.0,-92.0,-45.0,-4.0,-5.0,-2.0,-4.0,-7.0
1705327040.6706302,2.0,-25.0,27.0,-1.0,-3.0,-4.0,-8.0,6.0
1705327040.690621,5.0,31.0,-3.0,-3.0,0.0,1.0,-3.0,4.0
1705327040.690621,-1.0,-11.0,-31.0,1.0,0.0,-1.0,1.0,0.0
1705327040.7005966,16.0,13.0,41.0,11.0,2.0,4.0,-14.0,19.0
1705327040.7005966,-19.0,-64.0,-53.0,-18.0,-9.0,-16.0,4.0,8.0
1705327040.7105937,-4.0,1.0,-34.0,0.0,1.0,4.0,-1.0,3.0
1705327040.7105937,-3.0,-3.0,35.0,1.0,0.0,-2.0,0.0,-34.0
1705327040.7105937,5.0,12.0,5.0,11.0,4.0,2.0,16.0,-15.0
1705327040.7105937,1.0,-16.0,-25.0,-3.0,0.0,-1.0,4.0,3.0
1705327040.7206342,5.0,5.0,-12.0,-2.0,-1.0,2.0,-17.0,3.0
1705327040.7206342,2.0,11.0,16.0,-2.0,-2.0,-2.0,-5.0,12.0
1705327040.7305958,-7.0,14.0,6.0,4.0,5.0,9.0,3.0,-15.0
1705327040.7305958,-6.0,23.0,-5.0,-4.0,-5.0,-7.0,2.0,2.0
1705327040.7505946,-8.0,12.0,0.0,0.0,-2.0,-5.0,8.0,-3.0
1705327040.7505946,1.0,-33.0,-9.0,2.0,0.0,3.0,3.0,1.0
1705327040.7505946,3.0,16.0,-2.0,5.0,1.0,0.0,-5.0,6.0
1705327040.7505946,26.0,38.0,25.0,0.0,-3.0,-3.0,-4.0,1.0
1705327040.7706332,-10.0,-2.0,-14.0,-13.0,-1.0,-4.0,0.0,-7.0
1705327040.7706332,-7.0,-44.0,-5.0,21.0,0.0,-5.0,-11.0,-11.0
1705327040.7706332,-13.0,-61.0,-28.0,-19.0,-6.0,-9.0,-6.0,5.0
1705327040.7706332,1.0,-8.0,-18.0,-2.0,1.0,4.0,-3.0,-3.0
1705327040.7805958,13.0,49.0,10.0,-8.0,-2.0,3.0,4.0,-1.0
1705327040.7805958,-6.0,-68.0,-23.0,5.0,-8.0,-8.0,-4.0,3.0
1705327040.7906358,16.0,15.0,1.0,-21.0,6.0,3.0,2.0,2.0
1705327040.7906358,-20.0,-77.0,-27.0,9.0,-2.0,2.0,-1.0,-2.0
1705327040.810598,-15.0,-26.0,-8.0,6.0,-7.0,-10.0,-9.0,-7.0
1705327040.810598,-3.0,43.0,5.0,-20.0,-5.0,0.0,2.0,1.0
1705327040.810598,7.0,49.0,19.0,25.0,2.0,2.0,1.0,8.0
1705327040.810598,1.0,-32.0,-10.0,-13.0,5.0,2.0,-6.0,-9.0
1705327040.8205962,2.0,-5.0,-25.0,11.0,2.0,1.0,0.0,-7.0
1705327040.8205962,3.0,16.0,9.0,2.0,-5.0,-6.0,-1.0,4.0
1705327040.8305957,1.0,10.0,20.0,8.0,-2.0,-3.0,3.0,3.0
1705327040.8305957,-2.0,0.0,24.0,-10.0,-3.0,0.0,-14.0,-4.0
1705327040.840624,-3.0,-13.0,4.0,4.0,-2.0,-4.0,1.0,42.0
1705327040.840624,-8.0,16.0,-14.0,-9.0,2.0,-4.0,-10.0,-87.0
1705327040.8505943,0.0,-26.0,-16.0,-16.0,-6.0,-3.0,-4.0,4.0
1705327040.8505943,1.0,30.0,18.0,10.0,2.0,-1.0,-9.0,21.0
1705327040.8705993,4.0,0.0,3.0,2.0,5.0,6.0,7.0,5.0
1705327040.8705993,-7.0,0.0,11.0,-4.0,-1.0,1.0,9.0,-15.0
1705327040.8705993,1.0,-10.0,13.0,4.0,1.0,0.0,18.0,20.0
1705327040.8705993,3.0,17.0,-10.0,1.0,-4.0,-8.0,10.0,17.0
1705327040.8805964,-3.0,64.0,16.0,4.0,3.0,2.0,-9.0,-20.0
1705327040.8805964,-6.0,0.0,10.0,-8.0,0.0,1.0,9.0,28.0
1705327040.8905964,-12.0,-23.0,-28.0,2.0,-1.0,1.0,-3.0,-6.0
1705327040.8905964,11.0,13.0,20.0,-3.0,-2.0,0.0,2.0,13.0
1705327040.9005942,10.0,-18.0,-3.0,-6.0,0.0,3.0,-3.0,8.0
1705327040.9005942,17.0,16.0,-7.0,3.0,1.0,-7.0,-13.0,7.0
1705327040.9105947,-25.0,100.0,25.0,2.0,0.0,-6.0,3.0,10.0
1705327040.9105947,-23.0,-16.0,22.0,-3.0,-2.0,1.0,-10.0,-10.0
1705327040.9306455,9.0,-8.0,6.0,3.0,1.0,0.0,-3.0,-16.0
1705327040.9306455,-1.0,8.0,-22.0,1.0,-2.0,4.0,-5.0,12.0
1705327040.9306455,2.0,-36.0,-20.0,-6.0,-5.0,-2.0,-5.0,-12.0
1705327040.9306455,1.0,36.0,-5.0,-4.0,3.0,2.0,-3.0,-12.0
1705327040.9505937,-8.0,-9.0,7.0,-2.0,-4.0,-1.0,7.0,-16.0
1705327040.9505937,7.0,35.0,-3.0,14.0,3.0,2.0,0.0,25.0
1705327040.9505937,-2.0,-58.0,-49.0,-1.0,-1.0,-4.0,-4.0,-4.0
1705327040.9505937,-11.0,-12.0,46.0,-23.0,-7.0,-2.0,3.0,-21.0
1705327040.9606287,10.0,-19.0,34.0,22.0,-6.0,-3.0,-2.0,9.0
1705327040.9606287,-5.0,-38.0,-26.0,-7.0,4.0,-6.0,-6.0,5.0
1705327040.9805954,7.0,28.0,-3.0,-4.0,3.0,0.0,-3.0,-6.0
1705327040.9805954,7.0,64.0,-60.0,-4.0,3.0,7.0,7.0,-1.0
1705327040.9914188,-6.0,-50.0,0.0,26.0,1.0,-5.0,-4.0,-4.0
1705327040.9914188,-7.0,2.0,28.0,-15.0,-5.0,-1.0,0.0,-5.0
1705327040.9934187,11.0,-14.0,14.0,9.0,1.0,0.0,-1.0,-5.0
1705327040.9934187,-10.0,-12.0,26.0,-5.0,0.0,-1.0,0.0,1.0
1705327041.0066693,-2.0,6.0,-43.0,-16.0,-7.0,-3.0,5.0,12.0
1705327041.0066693,-3.0,7.0,19.0,7.0,-2.0,-1.0,2.0,-5.0
1705327041.0126574,1.0,-9.0,36.0,11.0,12.0,5.0,-7.0,-8.0
1705327041.0126574,-3.0,-13.0,-3.0,-2.0,-3.0,-2.0,-7.0,5.0
1705327041.0265682,10.0,27.0,-9.0,-3.0,1.0,-6.0,0.0,14.0
1705327041.0265682,-15.0,-7.0,-3.0,-4.0,-4.0,0.0,-1.0,8.0
1705327041.036565,10.0,13.0,1.0,-3.0,-3.0,-2.0,-1.0,-3.0
1705327041.036565,2.0,-52.0,4.0,17.0,0.0,-3.0,-8.0,17.0
1705327041.0465672,-15.0,-52.0,-11.0,-8.0,1.0,3.0,10.0,-46.0
1705327041.0465672,-3.0,-16.0,-8.0,-15.0,-3.0,-4.0,-19.0,20.0
1705327041.0465672,-1.0,-13.0,13.0,-8.0,-5.0,-3.0,9.0,32.0
1705327041.0465672,-11.0,-14.0,-6.0,9.0,2.0,-4.0,10.0,-48.0
1705327041.056568,1.0,20.0,11.0,-8.0,1.0,2.0,-13.0,8.0
1705327041.056568,5.0,88.0,16.0,2.0,1.0,-1.0,3.0,32.0
1705327041.0665708,-8.0,-39.0,-28.0,-6.0,-5.0,-3.0,-14.0,-35.0
1705327041.0665708,6.0,0.0,18.0,6.0,4.0,12.0,12.0,-1.0
1705327041.0865667,-4.0,-43.0,-50.0,-18.0,-4.0,-8.0,16.0,2.0
1705327041.0865667,4.0,7.0,19.0,6.0,1.0,0.0,-5.0,-17.0
1705327041.0865667,-7.0,8.0,-15.0,-2.0,-4.0,-2.0,-2.0,7.0
1705327041.0865667,6.0,30.0,27.0,7.0,-5.0,-4.0,-6.0,-3.0
1705327041.1065679,-3.0,-4.0,-51.0,-5.0,5.0,7.0,1.0,-7.0
1705327041.1065679,3.0,-11.0,-8.0,18.0,1.0,4.0,8.0,-2.0
1705327041.1065679,3.0,38.0,-3.0,-27.0,-3.0,-5.0,3.0,3.0
1705327041.1065679,-5.0,2.0,-8.0,-9.0,-3.0,-6.0,-6.0,-5.0
1705327041.1165648,3.0,0.0,52.0,47.0,-4.0,2.0,2.0,2.0
1705327041.1165648,-7.0,-64.0,-36.0,-26.0,10.0,-2.0,-3.0,-7.0
1705327041.1265652,0.0,83.0,-1.0,27.0,7.0,5.0,-2.0,1.0
1705327041.1265652,-18.0,-69.0,-69.0,-26.0,-11.0,-9.0,-5.0,-2.0
1705327041.146564,-3.0,43.0,19.0,-28.0,-6.0,-5.0,-8.0,-4.0
1705327041.146564,4.0,-2.0,26.0,12.0,2.0,5.0,3.0,-11.0
1705327041.146564,-1.0,10.0,32.0,-3.0,-7.0,-1.0,1.0,30.0
1705327041.146564,6.0,23.0,-16.0,8.0,5.0,0.0,0.0,-20.0
1705327041.166603,-3.0,26.0,2.0,0.0,1.0,-2.0,-1.0,25.0
1705327041.166603,0.0,-36.0,-13.0,-1.0,-2.0,1.0,2.0,6.0
1705327041.166603,-4.0,-25.0,2.0,1.0,1.0,-1.0,-1.0,-55.0
1705327041.166603,8.0,-10.0,-47.0,-1.0,-3.0,-1.0,8.0,28.0
1705327041.1766112,-13.0,-54.0,-4.0,-17.0,-1.0,-6.0,-32.0,-6.0
1705327041.1766112,10.0,2.0,21.0,-2.0,-6.0,3.0,0.0,15.0
1705327041.186599,-7.0,-20.0,17.0,10.0,0.0,1.0,35.0,-20.0
1705327041.186599,-6.0,-7.0,7.0,-1.0,-5.0,-11.0,-37.0,-15.0
1705327041.2165713,-2.0,-5.0,-10.0,-1.0,3.0,2.0,11.0,-14.0
1705327041.2165713,-3.0,3.0,-15.0,-3.0,-1.0,-7.0,-2.0,12.0
1705327041.2165713,1.0,-31.0,-11.0,-2.0,-3.0,4.0,-18.0,12.0
1705327041.2165713,4.0,-9.0,-8.0,-1.0,1.0,3.0,21.0,12.0
1705327041.2265651,5.0,19.0,12.0,-8.0,-2.0,-7.0,-3.0,5.0
1705327041.2265651,-13.0,22.0,2.0,-8.0,-3.0,2.0,-3.0,-25.0
1705327041.2265651,-9.0,-21.0,-15.0,3.0,-10.0,-6.0,-8.0,0.0
1705327041.2265651,-2.0,19.0,36.0,30.0,14.0,8.0,1.0,-3.0
1705327041.2466106,12.0,12.0,-37.0,-31.0,5.0,0.0,-3.0,-5.0
1705327041.2466106,-10.0,1.0,34.0,12.0,-7.0,-5.0,6.0,3.0
1705327041.2565675,-7.0,-80.0,-70.0,-20.0,-6.0,-5.0,-9.0,-10.0
1705327041.2565675,13.0,8.0,37.0,23.0,-1.0,0.0,-2.0,-1.0
1705327041.2665675,-14.0,-63.0,0.0,-11.0,-4.0,-3.0,3.0,-1.0
1705327041.2665675,7.0,-21.0,32.0,10.0,15.0,4.0,2.0,-7.0
1705327041.2665675,4.0,56.0,21.0,-13.0,-2.0,-2.0,-3.0,8.0
1705327041.2665675,5.0,10.0,-49.0,-14.0,-2.0,1.0,1.0,9.0
1705327041.286568,0.0,-27.0,6.0,18.0,-5.0,-5.0,-4.0,-8.0
1705327041.286568,-20.0,45.0,-9.0,-15.0,-7.0,-3.0,2.0,-3.0
1705327041.286568,6.0,29.0,22.0,19.0,6.0,1.0,-3.0,0.0
1705327041.286568,-8.0,-41.0,3.0,-6.0,0.0,1.0,3.0,4.0
1705327041.2965658,12.0,39.0,20.0,5.0,-1.0,2.0,0.0,-6.0
1705327041.2965658,7.0,11.0,-20.0,-8.0,-4.0,-2.0,3.0,3.0
1705327041.3065686,5.0,19.0,5.0,2.0,1.0,-2.0,-5.0,12.0
1705327041.3065686,-9.0,-48.0,-9.0,-5.0,-2.0,-7.0,-4.0,-35.0
1705327041.3265676,-3.0,-10.0,23.0,-8.0,-2.0,0.0,-3.0,15.0
1705327041.3265676,2.0,-6.0,0.0,2.0,-3.0,1.0,23.0,0.0
1705327041.3265676,-12.0,-81.0,-19.0,-5.0,-5.0,-12.0,-37.0,-58.0
1705327041.3265676,-1.0,30.0,6.0,-3.0,-1.0,4.0,14.0,20.0
1705327041.3465683,5.0,1.0,32.0,10.0,-1.0,-3.0,9.0,-9.0
1705327041.3465683,-4.0,-7.0,-43.0,-2.0,3.0,-3.0,-2.0,23.0
1705327041.3465683,2.0,-13.0,-3.0,-3.0,3.0,5.0,12.0,29.0
1705327041.3465683,0.0,53.0,30.0,-3.0,-3.0,-2.0,-15.0,-15.0
1705327041.3565705,-5.0,-38.0,-24.0,2.0,1.0,5.0,5.0,-8.0
1705327041.3565705,3.0,-8.0,-5.0,-4.0,-6.0,0.0,-5.0,-6.0
1705327041.3666,6.0,16.0,11.0,1.0,-4.0,-6.0,-3.0,12.0
1705327041.3666,-16.0,-20.0,-45.0,-5.0,5.0,2.0,-1.0,2.0
1705327041.3965645,-4.0,-1.0,14.0,-7.0,-4.0,-3.0,-2.0,3.0
1705327041.3965645,5.0,-14.0,-10.0,-26.0,-3.0,-3.0,-11.0,-9.0
1705327041.3965645,-7.0,8.0,50.0,46.0,4.0,4.0,8.0,12.0
1705327041.3965645,3.0,3.0,-16.0,-12.0,-10.0,-8.0,-1.0,-5.0
1705327041.4065664,-4.0,15.0,-18.0,-14.0,-2.0,-6.0,-8.0,-5.0
1705327041.4065664,4.0,-12.0,-1.0,5.0,0.0,-1.0,-7.0,-4.0
1705327041.4065664,-9.0,-69.0,-26.0,-16.0,9.0,7.0,0.0,-11.0
1705327041.4065664,4.0,14.0,9.0,6.0,-1.0,0.0,6.0,8.0
1705327041.4265687,-6.0,-70.0,14.0,12.0,-3.0,0.0,18.0,19.0
1705327041.4265687,-5.0,58.0,-2.0,-7.0,-6.0,-12.0,-10.0,-37.0
1705327041.4265687,11.0,23.0,25.0,3.0,0.0,7.0,-8.0,45.0
1705327041.4265687,10.0,-7.0,-37.0,-1.0,-4.0,-9.0,-1.0,17.0
1705327041.4466224,-15.0,44.0,13.0,-5.0,1.0,14.0,-7.0,-3.0
1705327041.4466224,15.0,-38.0,-10.0,13.0,4.0,-3.0,20.0,28.0
1705327041.4466224,-14.0,13.0,-13.0,-15.0,-8.0,-8.0,23.0,36.0
1705327041.4466224,-3.0,11.0,16.0,-1.0,1.0,-7.0,-11.0,-48.0
1705327041.466603,9.0,45.0,3.0,18.0,3.0,1.0,-18.0,4.0
1705327041.466603,-7.0,23.0,-4.0,-5.0,-2.0,9.0,-1.0,25.0
1705327041.466603,-3.0,14.0,6.0,-6.0,3.0,-2.0,-5.0,0.0
1705327041.466603,-7.0,43.0,75.0,-12.0,-10.0,-7.0,-4.0,12.0
1705327041.4865682,0.0,-4.0,-93.0,-6.0,-2.0,-2.0,6.0,-3.0
1705327041.4865682,-7.0,3.0,22.0,9.0,-1.0,-1.0,-8.0,-25.0
1705327041.4865682,3.0,-35.0,-1.0,-19.0,-4.0,-3.0,-4.0,7.0
1705327041.4865682,4.0,3.0,12.0,-3.0,-6.0,1.0,-1.0,0.0
1705327041.5067415,1.0,40.0,8.0,19.0,13.0,3.0,1.0,-8.0
1705327041.5067415,13.0,26.0,-7.0,-32.0,0.0,4.0,-8.0,8.0
1705327041.5067415,-8.0,32.0,22.0,12.0,-14.0,-4.0,3.0,-21.0
1705327041.5067415,4.0,-26.0,13.0,-2.0,17.0,7.0,-1.0,1.0
1705327041.5310502,-1.0,16.0,-41.0,-30.0,-6.0,-3.0,-5.0,-4.0
1705327041.5310502,-13.0,-41.0,-20.0,33.0,2.0,-6.0,-4.0,-10.0
1705327041.5330508,3.0,6.0,13.0,2.0,-3.0,0.0,1.0,-19.0
1705327041.5330508,3.0,-13.0,25.0,-8.0,-6.0,-1.0,-2.0,4.0
1705327041.569489,3.0,25.0,18.0,19.0,1.0,-7.0,-4.0,3.0
1705327041.569489,-9.0,53.0,1.0,-7.0,2.0,2.0,-1.0,-8.0
1705327041.569489,1.0,-5.0,-47.0,-14.0,-3.0,-3.0,-5.0,-18.0
1705327041.569489,-5.0,-25.0,-14.0,14.0,3.0,5.0,-1.0,7.0
1705327041.569489,-5.0,76.0,30.0,-9.0,-1.0,-2.0,6.0,-11.0
1705327041.569489,-5.0,-36.0,-17.0,-2.0,-5.0,0.0,-2.0,13.0
1705327041.569489,-7.0,-17.0,-25.0,10.0,1.0,-5.0,-16.0,-51.0
1705327041.569489,6.0,79.0,0.0,-15.0,1.0,0.0,4.0,-25.0
1705327041.589486,-6.0,-80.0,5.0,1.0,0.0,0.0,-11.0,16.0
1705327041.589486,7.0,22.0,-6.0,2.0,-7.0,-11.0,5.0,-44.0
1705327041.5994878,0.0,-17.0,13.0,0.0,6.0,7.0,-20.0,18.0
1705327041.5994878,-8.0,-9.0,-17.0,4.0,-5.0,-12.0,12.0,1.0
1705327041.6094868,-5.0,-75.0,-4.0,-5.0,-8.0,-5.0,-23.0,4.0
1705327041.6094868,4.0,-19.0,12.0,1.0,1.0,1.0,5.0,68.0
1705327041.6094868,-5.0,38.0,-25.0,-11.0,0.0,-5.0,12.0,-46.0
1705327041.6094868,6.0,-48.0,21.0,5.0,1.0,10.0,-5.0,7.0
1705327041.6294887,-8.0,52.0,-1.0,1.0,-7.0,-7.0,6.0,-28.0
1705327041.6294887,13.0,-17.0,-20.0,-6.0,-2.0,2.0,-4.0,16.0
1705327041.6294887,-2.0,5.0,15.0,-8.0,-9.0,0.0,8.0,6.0
1705327041.6294887,-1.0,-70.0,-12.0,-17.0,-6.0,-4.0,-9.0,-2.0
1705327041.6494846,-12.0,5.0,-15.0,18.0,6.0,3.0,6.0,11.0
1705327041.6494846,2.0,-55.0,24.0,-13.0,0.0,-1.0,-1.0,-6.0
1705327041.6494846,5.0,-7.0,30.0,16.0,4.0,-1.0,1.0,3.0
1705327041.6494846,-8.0,40.0,-21.0,13.0,-13.0,-7.0,-6.0,-7.0
1705327041.6694863,11.0,-25.0,11.0,-32.0,-1.0,-1.0,0.0,2.0
1705327041.6694863,-6.0,-16.0,4.0,42.0,8.0,0.0,-6.0,-22.0
1705327041.6694863,-4.0,-9.0,-1.0,-11.0,0.0,0.0,0.0,-1.0
1705327041.6694863,1.0,-36.0,9.0,-1.0,-2.0,-1.0,-4.0,17.0
1705327041.6894999,0.0,13.0,-32.0,10.0,1.0,1.0,9.0,-4.0
1705327041.6894999,-8.0,-30.0,-2.0,-16.0,-5.0,-1.0,-8.0,-26.0
1705327041.6894999,16.0,36.0,-14.0,-7.0,1.0,-2.0,5.0,57.0
1705327041.6894999,1.0,9.0,9.0,16.0,6.0,5.0,17.0,-24.0
1705327041.71949,4.0,11.0,6.0,-12.0,-3.0,-4.0,-18.0,-7.0
1705327041.71949,11.0,-23.0,2.0,-4.0,-5.0,-5.0,22.0,48.0
1705327041.71949,1.0,-54.0,-27.0,-2.0,-1.0,0.0,-6.0,-42.0
1705327041.71949,-7.0,42.0,-2.0,8.0,9.0,6.0,3.0,16.0
1705327041.729484,-1.0,-11.0,25.0,4.0,1.0,11.0,-23.0,-1.0
1705327041.729484,-3.0,26.0,6.0,-5.0,-4.0,-14.0,0.0,-23.0
1705327041.729484,-4.0,15.0,-38.0,-1.0,0.0,-5.0,-5.0,17.0
1705327041.729484,0.0,-11.0,36.0,-5.0,-1.0,0.0,-1.0,10.0
1705327041.7395244,0.0,10.0,10.0,2.0,-3.0,0.0,6.0,-27.0
1705327041.7395244,-1.0,3.0,-10.0,-8.0,-3.0,4.0,-7.0,1.0
1705327041.7494893,-3.0,-11.0,-15.0,5.0,8.0,4.0,6.0,9.0
1705327041.7494893,-4.0,-35.0,5.0,-9.0,-5.0,-5.0,-18.0,-11.0
1705327041.7794847,8.0,-10.0,33.0,23.0,7.0,4.0,11.0,0.0
1705327041.7794847,-4.0,45.0,-15.0,-37.0,-19.0,-13.0,-9.0,-19.0
1705327041.7794847,-9.0,17.0,19.0,31.0,12.0,2.0,2.0,-4.0
1705327041.7794847,-3.0,20.0,-39.0,-5.0,8.0,8.0,-4.0,15.0
1705327041.7894843,12.0,-18.0,0.0,-15.0,-7.0,-9.0,13.0,7.0
1705327041.7894843,-16.0,32.0,11.0,20.0,-5.0,0.0,-12.0,-18.0
1705327041.7894843,-2.0,-88.0,1.0,-21.0,-8.0,-6.0,-12.0,-14.0
1705327041.7894843,6.0,-12.0,-23.0,4.0,3.0,5.0,1.0,2.0
1705327041.7994876,-4.0,57.0,-13.0,-1.0,-3.0,-7.0,-5.0,-1.0
1705327041.7994876,3.0,11.0,36.0,-11.0,5.0,4.0,-1.0,-18.0
1705327041.819488,2.0,-20.0,-21.0,-12.0,-7.0,-1.0,4.0,34.0
1705327041.819488,-3.0,15.0,34.0,2.0,5.0,-2.0,3.0,-26.0
1705327041.8294847,2.0,-22.0,21.0,0.0,-4.0,-2.0,7.0,1.0
1705327041.8294847,-7.0,-42.0,-1.0,28.0,8.0,1.0,-11.0,-38.0
1705327041.8294847,-1.0,96.0,-25.0,-14.0,-4.0,0.0,3.0,-9.0
1705327041.8294847,8.0,49.0,14.0,-5.0,-4.0,2.0,-5.0,13.0
1705327041.849488,-7.0,-19.0,-6.0,0.0,-1.0,-7.0,17.0,-16.0
1705327041.849488,8.0,44.0,1.0,7.0,4.0,-1.0,13.0,69.0
1705327041.849488,-6.0,-15.0,-19.0,1.0,1.0,4.0,10.0,-38.0
1705327041.849488,-2.0,-5.0,-29.0,-8.0,-7.0,-6.0,-7.0,48.0
1705327041.8594882,-3.0,29.0,24.0,5.0,5.0,10.0,2.0,32.0
1705327041.8594882,21.0,-28.0,11.0,0.0,1.0,3.0,8.0,36.0
1705327041.879487,3.0,20.0,9.0,-7.0,-1.0,6.0,13.0,-18.0
1705327041.879487,-21.0,-44.0,-16.0,-3.0,-4.0,-5.0,-10.0,2.0
1705327041.8894894,5.0,4.0,-34.0,1.0,-1.0,-8.0,-8.0,-1.0
1705327041.8894894,-1.0,28.0,21.0,-11.0,-1.0,2.0,-2.0,-15.0
1705327041.8894894,11.0,-32.0,16.0,9.0,-3.0,1.0,-6.0,27.0
1705327041.8894894,-8.0,60.0,-1.0,20.0,7.0,-3.0,-4.0,-37.0
1705327041.9094849,-15.0,-26.0,-2.0,-5.0,0.0,-4.0,-10.0,-6.0
1705327041.9094849,4.0,-41.0,-63.0,-22.0,-6.0,-4.0,-6.0,-18.0
1705327041.9094849,-22.0,-24.0,-6.0,-21.0,-4.0,-1.0,0.0,4.0
1705327041.9094849,11.0,40.0,6.0,22.0,0.0,-4.0,9.0,12.0
1705327041.9195182,11.0,8.0,-23.0,-14.0,-3.0,-3.0,-4.0,-8.0
1705327041.9195182,-6.0,59.0,75.0,25.0,2.0,4.0,-6.0,1.0
1705327041.9394894,7.0,12.0,-67.0,-32.0,-7.0,-5.0,-6.0,0.0
1705327041.9394894,-3.0,13.0,62.0,14.0,7.0,5.0,5.0,19.0
1705327041.9495275,-11.0,-32.0,2.0,-29.0,-8.0,0.0,-6.0,-43.0
1705327041.9495275,0.0,-31.0,-44.0,17.0,8.0,3.0,-3.0,-12.0
1705327041.9495275,2.0,41.0,85.0,13.0,0.0,-6.0,-11.0,9.0
1705327041.9495275,1.0,-38.0,-115.0,-17.0,-7.0,-3.0,0.0,3.0
1705327041.9695187,2.0,19.0,-10.0,13.0,-11.0,-5.0,-5.0,6.0
1705327041.9695187,-12.0,-1.0,17.0,-6.0,17.0,8.0,7.0,7.0
1705327041.9695187,-1.0,-19.0,-7.0,10.0,1.0,-1.0,1.0,-3.0
1705327041.9695187,6.0,-14.0,47.0,-5.0,0.0,-2.0,-12.0,1.0
1705327041.9795175,-4.0,-10.0,8.0,9.0,-9.0,-2.0,-1.0,6.0
1705327041.9795175,-1.0,-37.0,-44.0,-23.0,0.0,-1.0,2.0,12.0
1705327041.999486,1.0,6.0,21.0,17.0,4.0,-3.0,-4.0,-10.0
1705327041.999486,6.0,-3.0,21.0,11.0,1.0,3.0,0.0,-20.0
1705327042.0094864,-5.0,12.0,21.0,-15.0,-9.0,-5.0,-2.0,17.0
1705327042.0094864,1.0,0.0,-6.0,16.0,1.0,1.0,-8.0,-5.0
1705327042.0094864,3.0,-15.0,-43.0,-6.0,0.0,0.0,-1.0,10.0
1705327042.0094864,-14.0,-1.0,-30.0,-29.0,-11.0,-6.0,0.0,-13.0
1705327042.0294874,-1.0,-14.0,-3.0,14.0,7.0,2.0,-1.0,-3.0
1705327042.0294874,-2.0,-8.0,-21.0,-26.0,-9.0,-4.0,-2.0,1.0
1705327042.0294874,0.0,16.0,41.0,5.0,-2.0,-4.0,-8.0,-47.0
1705327042.0394871,12.0,-26.0,-3.0,-2.0,-6.0,-3.0,-3.0,-30.0
1705327042.0497851,-8.0,-4.0,-4.0,3.0,4.0,1.0,2.0,17.0
1705327042.0497851,-34.0,1.0,3.0,-1.0,-1.0,1.0,-2.0,-12.0
1705327042.056481,8.0,17.0,0.0,5.0,-2.0,-2.0,-1.0,5.0
1705327042.056481,26.0,-5.0,-5.0,-3.0,1.0,-2.0,-1.0,-12.0
1705327042.0717726,-10.0,-8.0,-7.0,-5.0,5.0,3.0,-1.0,6.0
1705327042.0717726,4.0,3.0,4.0,9.0,-5.0,-3.0,-4.0,-10.0
1705327042.0727227,1.0,-11.0,11.0,4.0,-1.0,-2.0,-1.0,12.0
1705327042.0727227,-5.0,-11.0,-13.0,-21.0,1.0,1.0,3.0,12.0
1705327042.0923185,13.0,28.0,7.0,2.0,1.0,0.0,2.0,0.0
1705327042.0923185,1.0,-10.0,-12.0,-9.0,-6.0,-3.0,-3.0,-3.0
1705327042.1022878,-2.0,-2.0,17.0,16.0,1.0,1.0,-1.0,7.0
1705327042.1022878,-2.0,3.0,2.0,4.0,0.0,0.0,0.0,-3.0
1705327042.1022878,-3.0,8.0,-7.0,-6.0,-2.0,-2.0,-2.0,-7.0
1705327042.1022878,-3.0,-12.0,6.0,-1.0,-5.0,-2.0,-4.0,-8.0
1705327042.1122868,3.0,0.0,0.0,13.0,10.0,1.0,1.0,3.0
1705327042.1122868,-7.0,-1.0,-8.0,-5.0,-6.0,-1.0,1.0,5.0
1705327042.1222868,0.0,-9.0,-4.0,2.0,0.0,-1.0,-1.0,-1.0
1705327042.1222868,5.0,1.0,7.0,0.0,-3.0,-1.0,-1.0,-3.0
1705327042.1322896,-3.0,-7.0,12.0,4.0,-5.0,-4.0,-2.0,2.0
1705327042.1322896,-8.0,-2.0,-10.0,-11.0,0.0,0.0,2.0,5.0
1705327042.1523247,0.0,-4.0,1.0,5.0,3.0,2.0,-1.0,-2.0
1705327042.1523247,10.0,-1.0,-3.0,-2.0,-3.0,-5.0,-1.0,-5.0
1705327042.1523247,-3.0,0.0,-9.0,-9.0,-2.0,-1.0,-1.0,3.0
1705327042.1523247,-7.0,-1.0,4.0,9.0,2.0,0.0,1.0,-1.0
1705327042.1623333,6.0,-3.0,-1.0,-8.0,-3.0,-3.0,-1.0,-3.0
1705327042.1623333,-2.0,-2.0,-4.0,2.0,-1.0,-1.0,0.0,-2.0
1705327042.1722882,-6.0,0.0,23.0,1.0,-3.0,-1.0,0.0,3.0
1705327042.1722882,-4.0,-10.0,-39.0,-10.0,0.0,-2.0,-4.0,3.0
1705327042.1922865,1.0,-10.0,4.0,-9.0,0.0,-2.0,-2.0,-4.0
1705327042.1922865,-1.0,0.0,6.0,13.0,0.0,-1.0,-3.0,2.0
1705327042.1922865,0.0,3.0,-1.0,-11.0,-1.0,-2.0,0.0,2.0
1705327042.1922865,5.0,-3.0,19.0,5.0,-2.0,-3.0,-1.0,-2.0
1705327042.212291,-2.0,1.0,-3.0,1.0,0.0,-1.0,-1.0,-4.0
1705327042.212291,-4.0,-7.0,-3.0,-4.0,0.0,0.0,-2.0,-3.0
1705327042.212291,4.0,5.0,3.0,-9.0,-2.0,1.0,-3.0,-5.0
1705327042.212291,0.0,-3.0,4.0,4.0,0.0,3.0,5.0,5.0
1705327042.2322884,-2.0,-3.0,-9.0,2.0,-2.0,-4.0,-4.0,-1.0
1705327042.2322884,-4.0,-5.0,3.0,-3.0,-2.0,-3.0,-6.0,-4.0
1705327042.2322884,6.0,-4.0,-5.0,-4.0,-1.0,3.0,19.0,3.0
1705327042.2322884,-8.0,2.0,1.0,2.0,1.0,2.0,-1.0,-2.0
1705327042.252304,0.0,-4.0,-1.0,2.0,0.0,-5.0,-15.0,7.0
1705327042.252304,18.0,2.0,-2.0,-3.0,-2.0,-4.0,3.0,-3.0
1705327042.252304,-13.0,-4.0,-6.0,-6.0,-2.0,-1.0,-5.0,0.0
1705327042.252304,-4.0,-4.0,-3.0,-3.0,-2.0,2.0,4.0,-1.0
1705327042.282288,9.0,-3.0,6.0,2.0,2.0,2.0,2.0,1.0
1705327042.282288,-15.0,3.0,0.0,3.0,1.0,-2.0,1.0,0.0
1705327042.282288,5.0,-3.0,-7.0,-2.0,-10.0,-2.0,1.0,3.0
1705327042.282288,-3.0,4.0,8.0,1.0,-5.0,-2.0,-11.0,-5.0
1705327042.282288,10.0,3.0,-1.0,5.0,12.0,7.0,0.0,-3.0
1705327042.282288,-19.0,-3.0,-4.0,-2.0,-3.0,-4.0,0.0,-6.0
1705327042.2922866,-3.0,-2.0,-1.0,-6.0,-1.0,-1.0,-6.0,-1.0
1705327042.2922866,1.0,3.0,5.0,-7.0,-5.0,-3.0,-2.0,-1.0
1705327042.302286,11.0,0.0,-13.0,-1.0,-14.0,-7.0,-5.0,-3.0
1705327042.302286,4.0,-7.0,-14.0,-1.0,4.0,4.0,-10.0,-4.0
1705327042.3122878,-6.0,-5.0,-11.0,-1.0,4.0,0.0,0.0,2.0
1705327042.3122878,-3.0,1.0,0.0,3.0,0.0,-2.0,-4.0,-4.0
1705327042.3322868,-7.0,4.0,5.0,3.0,2.0,-2.0,2.0,2.0
1705327042.3322868,13.0,3.0,3.0,-2.0,-2.0,4.0,7.0,3.0
1705327042.3322868,-19.0,-5.0,-26.0,-6.0,1.0,-2.0,-10.0,-8.0
1705327042.3322868,14.0,0.0,5.0,6.0,0.0,0.0,7.0,5.0
1705327042.3422892,-8.0,-1.0,0.0,-5.0,-2.0,0.0,2.0,-1.0
1705327042.3422892,3.0,2.0,7.0,4.0,-3.0,-1.0,-2.0,2.0
1705327042.362286,-8.0,-1.0,6.0,-1.0,-5.0,-4.0,-8.0,-3.0
1705327042.362286,-1.0,-1.0,-2.0,-1.0,3.0,-2.0,-3.0,5.0
1705327042.362286,-9.0,-1.0,1.0,-1.0,-2.0,0.0,7.0,-2.0
1705327042.362286,3.0,-2.0,-2.0,-6.0,-7.0,-4.0,3.0,2.0
1705327042.3723288,9.0,2.0,4.0,0.0,1.0,-1.0,2.0,2.0
1705327042.3723288,-9.0,-9.0,-4.0,-1.0,4.0,4.0,-7.0,-4.0
1705327042.392288,-2.0,-3.0,2.0,4.0,5.0,2.0,1.0,8.0
1705327042.392288,-1.0,2.0,-4.0,-1.0,0.0,0.0,4.0,-6.0
1705327042.392288,7.0,-4.0,-4.0,-4.0,-5.0,-4.0,-13.0,-3.0
1705327042.392288,-3.0,5.0,4.0,-1.0,-6.0,-5.0,-1.0,1.0
1705327042.402286,-6.0,-4.0,-4.0,1.0,-2.0,0.0,-1.0,-14.0
1705327042.402286,-4.0,-4.0,-1.0,-3.0,0.0,2.0,0.0,2.0
1705327042.4123218,0.0,6.0,8.0,3.0,1.0,-2.0,0.0,3.0
1705327042.4123218,-2.0,-2.0,-6.0,-3.0,-1.0,-2.0,-1.0,-5.0
1705327042.432287,-1.0,-4.0,-7.0,-2.0,-4.0,-2.0,0.0,3.0
1705327042.432287,-2.0,0.0,1.0,-10.0,0.0,-2.0,-3.0,0.0
1705327042.432287,-3.0,-3.0,-6.0,1.0,-1.0,-1.0,-2.0,-5.0
1705327042.432287,-1.0,0.0,6.0,2.0,-1.0,-1.0,0.0,1.0
1705327042.452328,2.0,0.0,5.0,0.0,-4.0,-4.0,-2.0,-7.0
1705327042.452328,-2.0,3.0,3.0,3.0,2.0,0.0,-3.0,-2.0
1705327042.452328,1.0,-5.0,-1.0,-5.0,-1.0,0.0,2.0,0.0
1705327042.452328,2.0,-1.0,-3.0,2.0,1.0,-1.0,-2.0,-4.0
1705327042.4623277,-3.0,7.0,4.0,-6.0,-2.0,0.0,-1.0,5.0
1705327042.4623277,-13.0,-6.0,4.0,4.0,-2.0,-3.0,-2.0,-3.0
1705327042.4722853,3.0,-6.0,2.0,5.0,0.0,1.0,-4.0,-4.0
1705327042.4722853,-9.0,2.0,-4.0,1.0,-1.0,-2.0,-3.0,-5.0
1705327042.4922857,-3.0,-9.0,-7.0,-4.0,-3.0,-2.0,-2.0,-3.0
1705327042.4922857,6.0,5.0,-2.0,-6.0,0.0,3.0,2.0,-1.0
1705327042.4922857,-6.0,1.0,2.0,1.0,0.0,0.0,2.0,8.0
1705327042.4922857,-2.0,-7.0,-2.0,1.0,-2.0,-2.0,-1.0,-13.0
1705327042.512289,2.0,8.0,5.0,2.0,-2.0,0.0,-4.0,0.0
1705327042.512289,-2.0,1.0,-8.0,1.0,4.0,3.0,2.0,-1.0
1705327042.512289,-3.0,-11.0,-38.0,-6.0,-3.0,-2.0,-2.0,-2.0
1705327042.512289,3.0,3.0,23.0,-16.0,-9.0,-3.0,-5.0,2.0
1705327042.5322857,-3.0,-3.0,-6.0,22.0,10.0,2.0,5.0,1.0
1705327042.5322857,4.0,-1.0,9.0,11.0,1.0,-3.0,-4.0,1.0
1705327042.5322857,1.0,3.0,17.0,-1.0,2.0,1.0,-4.0,-2.0
1705327042.5322857,-4.0,-4.0,-19.0,1.0,-2.0,0.0,1.0,2.0
1705327042.5522883,-2.0,-6.0,-13.0,-15.0,-11.0,-2.0,-2.0,-6.0
1705327042.5522883,4.0,0.0,-3.0,-7.0,-2.0,-3.0,-8.0,0.0
1705327042.5522883,-2.0,1.0,10.0,5.0,-2.0,1.0,2.0,-4.0
1705327042.5522883,-3.0,-1.0,5.0,1.0,6.0,-1.0,0.0,1.0
1705327042.5722861,-1.0,-2.0,6.0,-2.0,-1.0,-1.0,3.0,0.0
1705327042.5722861,11.0,0.0,-6.0,4.0,-1.0,-2.0,0.0,1.0
1705327042.5722861,-4.0,-1.0,3.0,-7.0,-1.0,-2.0,-6.0,-3.0
1705327042.5722861,3.0,-2.0,-6.0,-13.0,-9.0,-5.0,-9.0,-3.0
1705327042.5967653,2.0,-3.0,7.0,32.0,5.0,0.0,-2.0,-12.0
1705327042.5967653,-16.0,5.0,-15.0,-16.0,9.0,3.0,2.0,3.0
1705327042.5977645,13.0,6.0,1.0,-4.0,-4.0,-2.0,8.0,7.0
1705327042.5977645,-2.0,2.0,7.0,-12.0,-3.0,3.0,1.0,-3.0
1705327042.6149545,2.0,2.0,-4.0,-11.0,-4.0,-3.0,-8.0,-10.0
1705327042.6149545,-5.0,-2.0,9.0,0.0,-14.0,-3.0,-1.0,-5.0
1705327042.6149545,1.0,1.0,-5.0,-11.0,0.0,-1.0,6.0,3.0
1705327042.6149545,-12.0,-8.0,-4.0,19.0,14.0,-1.0,0.0,2.0
1705327042.624958,1.0,-3.0,6.0,-3.0,-2.0,0.0,-3.0,4.0
1705327042.624958,5.0,-4.0,-11.0,-6.0,1.0,1.0,-7.0,-2.0
1705327042.634992,-6.0,-2.0,7.0,-6.0,-2.0,2.0,1.0,-4.0
1705327042.634992,-10.0,3.0,-4.0,-6.0,-8.0,-3.0,1.0,1.0
1705327042.6549575,-1.0,-4.0,0.0,-3.0,-1.0,-2.0,2.0,2.0
1705327042.6549575,-6.0,2.0,6.0,6.0,2.0,2.0,5.0,-2.0
1705327042.6549575,-1.0,-3.0,-1.0,-1.0,-3.0,-3.0,-2.0,-2.0
1705327042.6549575,8.0,53.0,10.0,2.0,-5.0,-1.0,3.0,3.0
1705327042.6649854,-1.0,21.0,4.0,11.0,6.0,-2.0,-1.0,3.0
1705327042.6649854,-2.0,-10.0,-11.0,-9.0,1.0,2.0,0.0,-1.0
1705327042.6749916,3.0,-4.0,-2.0,14.0,8.0,1.0,1.0,2.0
1705327042.6749916,6.0,-7.0,0.0,6.0,-1.0,-1.0,-3.0,0.0
1705327042.6849933,-1.0,-8.0,-6.0,-32.0,-9.0,-5.0,-7.0,-1.0
1705327042.6849933,6.0,-3.0,5.0,14.0,-7.0,-4.0,10.0,11.0
1705327042.6949568,-2.0,22.0,11.0,6.0,6.0,2.0,1.0,-3.0
1705327042.6949568,0.0,-13.0,-10.0,-11.0,-3.0,-1.0,-26.0,-7.0
1705327042.7149582,-2.0,-11.0,-1.0,2.0,-2.0,-4.0,2.0,0.0
1705327042.7149582,2.0,-7.0,-1.0,-2.0,-3.0,-1.0,1.0,4.0
1705327042.7149582,-3.0,-7.0,-2.0,3.0,-1.0,0.0,-6.0,-7.0
1705327042.7149582,-1.0,-17.0,2.0,1.0,2.0,2.0,5.0,4.0
1705327042.7249615,-4.0,-2.0,-6.0,-7.0,0.0,1.0,4.0,-1.0
1705327042.7249615,-6.0,-1.0,-10.0,-2.0,1.0,0.0,-5.0,7.0
1705327042.734959,3.0,-6.0,-10.0,-9.0,-3.0,-5.0,5.0,-14.0
1705327042.734959,-2.0,1.0,-7.0,2.0,-2.0,-1.0,-3.0,-6.0
1705327042.7449963,0.0,-11.0,-5.0,-2.0,-1.0,-1.0,8.0,-7.0
1705327042.7449963,0.0,5.0,17.0,4.0,0.0,-1.0,-8.0,3.0
1705327042.7549617,-2.0,-5.0,15.0,0.0,-5.0,-6.0,-2.0,-8.0
1705327042.7549617,-5.0,-12.0,-9.0,4.0,3.0,1.0,6.0,2.0
1705327042.7749903,6.0,0.0,8.0,2.0,1.0,3.0,-3.0,2.0
1705327042.7749903,-8.0,-5.0,-5.0,-5.0,-5.0,-3.0,-1.0,-8.0
1705327042.7749903,-6.0,6.0,10.0,-4.0,-2.0,-4.0,-10.0,4.0
1705327042.7749903,2.0,-38.0,-14.0,0.0,-3.0,-1.0,2.0,-3.0
1705327042.7949584,-7.0,12.0,-10.0,-8.0,0.0,0.0,-1.0,9.0
1705327042.7949584,7.0,5.0,8.0,4.0,0.0,-1.0,-4.0,-16.0
1705327042.7949584,6.0,5.0,-8.0,-1.0,0.0,2.0,4.0,15.0
1705327042.7949584,-16.0,25.0,6.0,0.0,-3.0,-4.0,1.0,4.0
1705327042.8049588,-4.0,-7.0,-4.0,0.0,1.0,-1.0,-5.0,-4.0
1705327042.8049588,-1.0,-7.0,-5.0,-11.0,-1.0,-1.0,-1.0,-3.0
1705327042.8149576,0.0,-6.0,-3.0,2.0,-2.0,1.0,3.0,-3.0
1705327042.8149576,7.0,-3.0,5.0,0.0,5.0,3.0,9.0,3.0
1705327042.844957,2.0,4.0,21.0,14.0,3.0,1.0,-3.0,2.0
1705327042.844957,-4.0,5.0,-16.0,-4.0,-2.0,-3.0,-2.0,-6.0
1705327042.844957,-6.0,-1.0,-20.0,-13.0,-3.0,1.0,-4.0,4.0
1705327042.844957,3.0,-2.0,-16.0,-8.0,-3.0,-3.0,-3.0,-11.0
1705327042.844957,0.0,-2.0,18.0,-1.0,-5.0,-3.0,-6.0,3.0
1705327042.844957,1.0,-5.0,-10.0,-1.0,2.0,1.0,3.0,7.0
1705327042.8549569,-3.0,-6.0,1.0,-4.0,-3.0,-3.0,-12.0,3.0
1705327042.8549569,-6.0,-22.0,-5.0,0.0,-1.0,4.0,-7.0,18.0
1705327042.8649955,4.0,20.0,9.0,3.0,2.0,-2.0,-3.0,-54.0
1705327042.8649955,-7.0,-32.0,-13.0,5.0,2.0,0.0,-9.0,-17.0
1705327042.8749585,9.0,14.0,33.0,4.0,-1.0,0.0,6.0,18.0
1705327042.8749585,-10.0,-11.0,-1.0,0.0,0.0,-2.0,-9.0,-28.0
1705327042.894958,-7.0,-29.0,-34.0,4.0,0.0,2.0,6.0,9.0
1705327042.894958,2.0,0.0,0.0,-11.0,-5.0,-1.0,-1.0,27.0
1705327042.894958,-6.0,-11.0,-64.0,-16.0,-3.0,-3.0,-5.0,-11.0
1705327042.894958,5.0,12.0,33.0,0.0,-3.0,-3.0,7.0,9.0
1705327042.904959,0.0,7.0,5.0,-5.0,-1.0,1.0,-2.0,18.0
1705327042.904959,0.0,15.0,33.0,13.0,6.0,4.0,3.0,-16.0
1705327042.914957,-2.0,-9.0,3.0,4.0,-2.0,-2.0,-2.0,17.0
1705327042.914957,2.0,1.0,-33.0,2.0,0.0,-5.0,-11.0,-8.0
1705327042.9249988,0.0,1.0,12.0,1.0,3.0,2.0,4.0,-1.0
1705327042.9249988,0.0,3.0,11.0,-3.0,-3.0,-12.0,-9.0,7.0
1705327042.9349582,-7.0,0.0,5.0,-3.0,-1.0,5.0,10.0,-17.0
1705327042.9349582,11.0,2.0,-5.0,-3.0,-1.0,-4.0,8.0,8.0
1705327042.954997,2.0,1.0,0.0,-4.0,-3.0,0.0,-7.0,0.0
1705327042.954997,-5.0,2.0,2.0,-3.0,-2.0,-1.0,-5.0,-5.0
1705327042.954997,2.0,-8.0,6.0,6.0,1.0,0.0,-5.0,-2.0
1705327042.954997,6.0,7.0,1.0,-2.0,-2.0,0.0,2.0,-10.0
1705327042.9649584,-20.0,4.0,-13.0,-4.0,3.0,0.0,8.0,16.0
1705327042.9649584,3.0,-10.0,-4.0,-7.0,-3.0,-2.0,-8.0,-4.0
1705327042.9749947,-1.0,1.0,-3.0,7.0,0.0,-2.0,-1.0,-14.0
1705327042.9749947,0.0,13.0,12.0,-15.0,-6.0,-3.0,3.0,7.0
1705327042.984958,9.0,3.0,-1.0,16.0,-1.0,-4.0,-9.0,-4.0
1705327042.984958,-1.0,-7.0,0.0,-2.0,-2.0,1.0,3.0,-4.0
1705327042.9949954,-4.0,-41.0,0.0,-12.0,2.0,-1.0,2.0,-1.0
1705327042.9949954,-4.0,-25.0,-6.0,16.0,1.0,1.0,-2.0,-2.0
1705327043.0149584,-3.0,-1.0,-9.0,0.0,-6.0,-7.0,-2.0,4.0
1705327043.0149584,3.0,19.0,-12.0,-24.0,5.0,4.0,4.0,-3.0
1705327043.0149584,-1.0,9.0,12.0,7.0,-11.0,-6.0,-5.0,-2.0
1705327043.0149584,-3.0,-6.0,-31.0,-27.0,8.0,7.0,10.0,4.0
1705327043.0250683,-1.0,-9.0,9.0,-15.0,-4.0,-1.0,-2.0,-3.0
1705327043.0250683,6.0,-5.0,-13.0,24.0,-1.0,0.0,1.0,0.0
1705327043.03496,-7.0,12.0,17.0,-1.0,-4.0,-2.0,-1.0,3.0
1705327043.03496,-4.0,-2.0,-11.0,3.0,-4.0,-2.0,-6.0,-9.0
1705327043.0449572,-3.0,-11.0,-32.0,-16.0,-4.0,0.0,-1.0,1.0
1705327043.0449572,5.0,5.0,33.0,-7.0,-5.0,-2.0,-3.0,-1.0
1705327043.054959,2.0,14.0,-15.0,0.0,3.0,0.0,-1.0,4.0
1705327043.054959,-1.0,28.0,45.0,22.0,6.0,4.0,5.0,1.0
1705327043.0749586,0.0,17.0,-34.0,-16.0,-2.0,-3.0,-1.0,3.0
1705327043.0749586,-11.0,-29.0,-6.0,3.0,-4.0,-6.0,-4.0,-8.0
1705327043.0749586,-1.0,11.0,6.0,17.0,5.0,3.0,6.0,11.0
1705327043.0749586,7.0,32.0,-2.0,-4.0,1.0,0.0,-2.0,19.0
1705327043.0849583,-3.0,-2.0,36.0,-4.0,-4.0,0.0,-3.0,-10.0
1705327043.0849583,-4.0,10.0,-41.0,0.0,2.0,1.0,5.0,3.0
1705327043.0949569,9.0,1.0,23.0,2.0,3.0,-1.0,5.0,-6.0
1705327043.0949569,-4.0,-20.0,-12.0,4.0,0.0,-3.0,-3.0,-1.0
1705327043.1049595,-3.0,-1.0,-22.0,-2.0,2.0,2.0,16.0,-2.0
1705327043.1049595,-2.0,40.0,-5.0,13.0,-3.0,-1.0,0.0,8.0
1705327043.1153405,-2.0,-14.0,39.0,-4.0,2.0,0.0,-3.0,1.0
1705327043.1153405,-4.0,-7.0,3.0,-5.0,-2.0,-2.0,-4.0,-2.0
1705327043.136135,1.0,-11.0,6.0,-5.0,-2.0,0.0,-6.0,-10.0
1705327043.136135,0.0,-8.0,-11.0,-9.0,-6.0,-3.0,-2.0,-6.0
1705327043.138133,0.0,0.0,-26.0,8.0,6.0,-2.0,-5.0,-9.0
1705327043.138133,-12.0,3.0,4.0,-8.0,-7.0,-2.0,-1.0,-1.0
1705327043.1478622,1.0,2.0,12.0,23.0,4.0,0.0,-15.0,-3.0
1705327043.1478622,-14.0,-20.0,1.0,-16.0,-8.0,-5.0,-8.0,-14.0
1705327043.1578677,4.0,1.0,-6.0,15.0,1.0,-1.0,-4.0,2.0
1705327043.1578677,-4.0,-2.0,8.0,-3.0,-1.0,-3.0,5.0,-6.0
1705327043.1678665,13.0,-8.0,-5.0,1.0,4.0,9.0,10.0,4.0
1705327043.1678665,14.0,2.0,-6.0,-13.0,-10.0,-12.0,-20.0,13.0
1705327043.1678665,-28.0,-3.0,-11.0,-9.0,-6.0,-4.0,-11.0,-36.0
1705327043.1678665,11.0,8.0,16.0,10.0,-3.0,1.0,10.0,4.0
1705327043.1879013,-3.0,0.0,-25.0,-9.0,6.0,1.0,-10.0,-3.0
1705327043.1879013,3.0,-6.0,16.0,11.0,6.0,7.0,9.0,2.0
1705327043.1978676,-2.0,5.0,-10.0,-15.0,-5.0,-3.0,-1.0,5.0
1705327043.1978676,7.0,-8.0,2.0,14.0,-3.0,-1.0,3.0,0.0
1705327043.2079093,-6.0,-6.0,4.0,-15.0,-5.0,-4.0,-9.0,4.0
1705327043.2079093,-2.0,4.0,7.0,11.0,7.0,8.0,12.0,-4.0
1705327043.2179046,5.0,10.0,19.0,8.0,1.0,-2.0,7.0,2.0
1705327043.2179046,-5.0,-3.0,3.0,-4.0,-3.0,-2.0,-5.0,-6.0
1705327043.227866,6.0,-8.0,-27.0,1.0,-4.0,-4.0,-6.0,31.0
1705327043.227866,-4.0,-10.0,-30.0,-9.0,2.0,3.0,-2.0,36.0
1705327043.227866,0.0,-45.0,1.0,-8.0,-6.0,1.0,-2.0,-55.0
1705327043.227866,5.0,26.0,28.0,5.0,2.0,-3.0,7.0,5.0
1705327043.247883,-3.0,-5.0,37.0,-3.0,-6.0,-2.0,-7.0,-14.0
1705327043.247883,0.0,4.0,-41.0,2.0,2.0,-4.0,3.0,13.0
1705327043.2578638,-5.0,-43.0,-15.0,-11.0,-4.0,-2.0,-3.0,7.0
1705327043.2578638,-4.0,-30.0,-55.0,-13.0,-3.0,-5.0,-4.0,-3.0
1705327043.267865,5.0,5.0,20.0,11.0,1.0,-1.0,0.0,9.0
1705327043.267865,-8.0,-21.0,31.0,2.0,-2.0,2.0,-2.0,-19.0
1705327043.287865,3.0,42.0,5.0,5.0,4.0,1.0,-1.0,15.0
1705327043.287865,-9.0,-17.0,-36.0,-20.0,-8.0,-5.0,-15.0,-26.0
1705327043.287865,-3.0,0.0,13.0,18.0,5.0,-1.0,6.0,-4.0
1705327043.287865,4.0,-14.0,-6.0,-11.0,1.0,2.0,8.0,-3.0
1705327043.287865,3.0,12.0,-18.0,-3.0,0.0,1.0,-13.0,-3.0
1705327043.287865,2.0,7.0,22.0,0.0,-2.0,0.0,-9.0,8.0
1705327043.3079035,-2.0,-6.0,-11.0,-4.0,-8.0,-9.0,1.0,-1.0
1705327043.3079035,-1.0,4.0,23.0,4.0,-1.0,2.0,4.0,-13.0
1705327043.317869,-3.0,9.0,9.0,2.0,-2.0,-5.0,-8.0,11.0
1705327043.317869,10.0,32.0,-7.0,0.0,1.0,6.0,0.0,-2.0
1705327043.3278654,-14.0,-11.0,11.0,-3.0,-2.0,-1.0,5.0,-8.0
1705327043.3278654,-10.0,-17.0,1.0,-3.0,2.0,-1.0,-5.0,-8.0
1705327043.347865,10.0,55.0,-7.0,-2.0,2.0,-1.0,2.0,13.0
1705327043.347865,-2.0,-25.0,-7.0,-11.0,-10.0,-5.0,-6.0,-2.0
1705327043.347865,4.0,17.0,1.0,37.0,15.0,1.0,2.0,-10.0
1705327043.347865,0.0,1.0,19.0,-15.0,0.0,-4.0,-1.0,3.0
1705327043.347865,-1.0,-22.0,-26.0,-4.0,-3.0,2.0,1.0,4.0
1705327043.347865,-5.0,3.0,-33.0,-1.0,-1.0,-3.0,0.0,-6.0
1705327043.3678644,-4.0,-7.0,-10.0,-14.0,-6.0,-1.0,1.0,9.0
1705327043.3678644,-3.0,6.0,-6.0,4.0,-1.0,-1.0,-5.0,2.0
1705327043.3778641,-6.0,-35.0,1.0,0.0,0.0,-2.0,-3.0,-6.0
1705327043.3778641,1.0,-19.0,22.0,8.0,3.0,1.0,5.0,19.0
1705327043.3978643,3.0,-1.0,0.0,-11.0,-5.0,-3.0,-11.0,-48.0
1705327043.3978643,-4.0,-2.0,-8.0,11.0,-1.0,-6.0,-4.0,-24.0
1705327043.3978643,1.0,-11.0,-8.0,-5.0,-2.0,3.0,8.0,15.0
1705327043.3978643,-6.0,15.0,-11.0,3.0,1.0,-5.0,-9.0,9.0
1705327043.4079027,-2.0,-5.0,4.0,-7.0,-1.0,5.0,19.0,6.0
1705327043.4079027,-1.0,9.0,-14.0,-6.0,-3.0,-1.0,-14.0,-7.0
1705327043.4079027,7.0,11.0,1.0,1.0,-2.0,-2.0,10.0,-2.0
1705327043.4079027,-8.0,-58.0,13.0,0.0,2.0,-1.0,-2.0,-17.0
1705327043.427909,2.0,36.0,18.0,-8.0,-1.0,1.0,-4.0,28.0
1705327043.427909,4.0,4.0,-9.0,-5.0,-7.0,-3.0,-3.0,-10.0
1705327043.437867,-5.0,-3.0,7.0,9.0,2.0,-1.0,2.0,6.0
1705327043.437867,5.0,6.0,-31.0,-1.0,1.0,1.0,0.0,-2.0
1705327043.467867,-2.0,-21.0,-8.0,-6.0,1.0,-2.0,-1.0,-4.0
1705327043.467867,1.0,8.0,17.0,-5.0,-2.0,2.0,6.0,9.0
1705327043.467867,1.0,2.0,3.0,9.0,-1.0,-5.0,-9.0,-4.0
1705327043.467867,0.0,2.0,31.0,-19.0,-3.0,1.0,2.0,-2.0
1705327043.467867,-5.0,9.0,-5.0,0.0,-6.0,-5.0,-7.0,-1.0
1705327043.467867,3.0,-7.0,7.0,2.0,2.0,0.0,5.0,3.0
1705327043.467867,-4.0,12.0,4.0,-2.0,-1.0,-4.0,-11.0,13.0
1705327043.467867,-9.0,-34.0,-33.0,1.0,1.0,-1.0,0.0,-33.0
1705327043.4878666,0.0,3.0,-4.0,-4.0,-1.0,-2.0,2.0,24.0
1705327043.4878666,1.0,0.0,11.0,6.0,0.0,-2.0,0.0,-29.0
1705327043.4979131,-4.0,-8.0,15.0,-6.0,-3.0,-4.0,2.0,35.0
1705327043.4979131,2.0,19.0,13.0,8.0,1.0,1.0,-6.0,4.0
1705327043.5178666,-1.0,-8.0,-5.0,-4.0,-2.0,0.0,2.0,-11.0
1705327043.5178666,-3.0,-2.0,3.0,-1.0,-2.0,-3.0,-8.0,7.0
1705327043.5178666,3.0,1.0,2.0,-5.0,1.0,-1.0,8.0,-20.0
1705327043.5178666,4.0,20.0,-16.0,-2.0,0.0,1.0,2.0,3.0
1705327043.5278974,-10.0,-24.0,-20.0,0.0,-3.0,-1.0,-4.0,-7.0
1705327043.5278974,-2.0,28.0,1.0,5.0,-1.0,1.0,-2.0,6.0
1705327043.5278974,1.0,22.0,2.0,-1.0,-1.0,1.0,-4.0,-11.0
1705327043.5278974,-3.0,-6.0,30.0,4.0,0.0,-2.0,-2.0,7.0
1705327043.5578651,3.0,14.0,-15.0,-7.0,-6.0,-2.0,0.0,-3.0
1705327043.5578651,-3.0,-13.0,-12.0,-3.0,-4.0,-4.0,-1.0,2.0
1705327043.5578651,-2.0,-18.0,-38.0,-7.0,1.0,1.0,-3.0,-11.0
1705327043.5578651,8.0,13.0,7.0,7.0,-4.0,-4.0,3.0,6.0
1705327043.5779035,4.0,5.0,19.0,-2.0,0.0,2.0,-4.0,-5.0
1705327043.5779035,0.0,4.0,10.0,-6.0,0.0,3.0,9.0,3.0
1705327043.5779035,-6.0,-9.0,-21.0,0.0,-2.0,-3.0,6.0,-4.0
1705327043.5779035,-6.0,0.0,1.0,8.0,6.0,2.0,-2.0,-3.0
1705327043.587908,4.0,-11.0,-37.0,-11.0,-6.0,-6.0,0.0,1.0
1705327043.587908,6.0,-1.0,6.0,8.0,4.0,0.0,-6.0,8.0
1705327043.587908,-4.0,-4.0,6.0,-3.0,-1.0,0.0,-19.0,-6.0
1705327043.587908,-5.0,2.0,0.0,-1.0,-3.0,0.0,19.0,-1.0
1705327043.6178641,-2.0,-4.0,-4.0,9.0,1.0,-1.0,-14.0,-2.0
1705327043.6178641,1.0,4.0,-3.0,-6.0,0.0,-1.0,3.0,2.0
1705327043.6178641,4.0,-5.0,8.0,-5.0,-6.0,-5.0,1.0,2.0
1705327043.6178641,0.0,3.0,-9.0,-6.0,-1.0,1.0,-5.0,-13.0
1705327043.6393592,-12.0,-5.0,8.0,1.0,2.0,5.0,4.0,6.0
1705327043.6393592,-1.0,5.0,33.0,11.0,1.0,-3.0,1.0,0.0
1705327043.6403599,-2.0,-11.0,-67.0,-10.0,0.0,3.0,0.0,-5.0
1705327043.6413567,4.0,0.0,11.0,-6.0,-5.0,-6.0,-10.0,1.0
1705327043.653395,-1.0,6.0,15.0,2.0,-4.0,-3.0,-7.0,-7.0
1705327043.653395,0.0,-6.0,-6.0,-8.0,0.0,3.0,-2.0,-3.0
1705327043.6603575,-11.0,24.0,29.0,6.0,6.0,1.0,11.0,0.0
1705327043.6603575,-1.0,0.0,7.0,18.0,2.0,1.0,4.0,5.0
1705327043.6740172,3.0,1.0,-9.0,2.0,-1.0,-2.0,-1.0,-4.0
1705327043.6740172,-5.0,-7.0,-3.0,-1.0,-3.0,-8.0,-10.0,-1.0
1705327043.6740172,12.0,-5.0,8.0,-6.0,-2.0,5.0,5.0,-9.0
1705327043.6740172,-11.0,-3.0,0.0,-6.0,3.0,3.0,-3.0,10.0
1705327043.694019,0.0,-16.0,14.0,-1.0,-5.0,-8.0,-6.0,-13.0
1705327043.694019,-8.0,10.0,-7.0,8.0,5.0,2.0,3.0,4.0
1705327043.694019,1.0,-22.0,-6.0,-20.0,-4.0,0.0,-4.0,-6.0
1705327043.694019,-7.0,12.0,18.0,0.0,-3.0,-5.0,-4.0,1.0
1705327043.7040522,11.0,-19.0,6.0,-6.0,-1.0,1.0,5.0,3.0
1705327043.7140248,3.0,10.0,11.0,23.0,3.0,-3.0,-1.0,-1.0
1705327043.7240183,-6.0,-1.0,-7.0,-13.0,-3.0,-3.0,-4.0,2.0
1705327043.7240183,10.0,26.0,10.0,1.0,2.0,2.0,-1.0,1.0
1705327043.7340627,-3.0,-69.0,-36.0,-14.0,-4.0,-1.0,0.0,-2.0
1705327043.7340627,9.0,22.0,31.0,14.0,-2.0,-4.0,1.0,5.0
1705327043.7340627,-15.0,-3.0,22.0,-15.0,-4.0,0.0,0.0,-4.0
1705327043.7340627,-7.0,1.0,-7.0,14.0,-1.0,-2.0,-6.0,-4.0
1705327043.7540193,-3.0,-4.0,-3.0,-8.0,0.0,1.0,2.0,1.0
1705327043.7540193,10.0,4.0,-25.0,-14.0,-5.0,-1.0,-5.0,-10.0
1705327043.7540193,-24.0,37.0,27.0,21.0,-4.0,-5.0,-4.0,-2.0
1705327043.7540193,-1.0,16.0,1.0,-7.0,6.0,-1.0,3.0,1.0
1705327043.764018,6.0,23.0,10.0,0.0,-2.0,2.0,7.0,7.0
1705327043.764018,-4.0,-23.0,-27.0,8.0,0.0,2.0,-3.0,0.0
1705327043.7840178,2.0,7.0,-14.0,-9.0,3.0,-1.0,-4.0,-11.0
1705327043.7840178,-3.0,-25.0,8.0,-1.0,-7.0,-2.0,-1.0,10.0
1705327043.7940729,-4.0,35.0,-5.0,-1.0,8.0,5.0,-2.0,-10.0
1705327043.7940729,-7.0,-25.0,-4.0,-23.0,-7.0,-3.0,0.0,-2.0
1705327043.7940729,11.0,-15.0,36.0,24.0,2.0,-4.0,-6.0,-1.0
1705327043.7940729,-28.0,-25.0,-19.0,-10.0,-3.0,2.0,-2.0,1.0
1705327043.814021,0.0,14.0,1.0,4.0,-1.0,-4.0,-7.0,-13.0
1705327043.814021,3.0,11.0,-17.0,-25.0,-1.0,1.0,1.0,1.0
1705327043.814021,0.0,-40.0,-13.0,3.0,-3.0,0.0,1.0,3.0
1705327043.814021,12.0,5.0,-21.0,-5.0,-3.0,-4.0,-3.0,15.0
1705327043.8240566,-7.0,-70.0,-47.0,2.0,-4.0,-4.0,-6.0,-33.0
1705327043.8240566,-10.0,-15.0,-4.0,-9.0,-3.0,-2.0,-4.0,-10.0
1705327043.8440204,4.0,11.0,-4.0,1.0,1.0,-1.0,-4.0,1.0
1705327043.8440204,1.0,30.0,22.0,1.0,1.0,1.0,3.0,-8.0
1705327043.8540177,6.0,35.0,5.0,-7.0,-6.0,-4.0,-1.0,24.0
1705327043.8540177,-22.0,3.0,-27.0,14.0,8.0,5.0,1.0,-3.0
1705327043.8540177,4.0,-59.0,24.0,5.0,-2.0,0.0,3.0,20.0
1705327043.8540177,2.0,-19.0,-47.0,-11.0,-4.0,-5.0,-9.0,-23.0
1705327043.8740587,-3.0,40.0,17.0,4.0,-1.0,0.0,2.0,-2.0
1705327043.8740587,6.0,1.0,-27.0,-27.0,-8.0,-4.0,-2.0,19.0
1705327043.8740587,1.0,21.0,0.0,21.0,3.0,3.0,8.0,31.0
1705327043.8740587,4.0,11.0,22.0,0.0,0.0,0.0,-4.0,-39.0
1705327043.884017,-6.0,-17.0,-5.0,-18.0,-4.0,-6.0,-4.0,12.0
1705327043.884017,3.0,38.0,48.0,13.0,11.0,8.0,8.0,9.0
1705327043.9040174,-12.0,-41.0,-49.0,-3.0,-1.0,0.0,-8.0,-52.0
1705327043.9040174,9.0,2.0,55.0,-2.0,-4.0,0.0,4.0,10.0
1705327043.9140568,1.0,48.0,1.0,12.0,4.0,4.0,-2.0,7.0
1705327043.9140568,-5.0,-48.0,-10.0,-10.0,-5.0,-10.0,-16.0,-16.0
1705327043.9140568,-3.0,1.0,-9.0,-4.0,-1.0,8.0,9.0,17.0
1705327043.9140568,-3.0,-12.0,11.0,2.0,-3.0,-5.0,4.0,-24.0
1705327043.9340637,5.0,-16.0,-29.0,-6.0,-1.0,0.0,0.0,20.0
1705327043.9340637,-1.0,51.0,7.0,2.0,-1.0,1.0,2.0,4.0
1705327043.9340637,2.0,5.0,-16.0,-1.0,0.0,-3.0,-18.0,-13.0
1705327043.9340637,-4.0,-24.0,-31.0,-14.0,-4.0,0.0,3.0,-29.0
1705327043.9440198,-8.0,-24.0,0.0,2.0,-2.0,-3.0,0.0,14.0
1705327043.9440198,-1.0,-5.0,-10.0,9.0,-1.0,-1.0,-2.0,-22.0
1705327043.9540522,8.0,36.0,52.0,1.0,0.0,-2.0,3.0,9.0
1705327043.9540522,0.0,12.0,-9.0,-3.0,1.0,0.0,-2.0,18.0
1705327043.9740179,-1.0,32.0,-32.0,7.0,2.0,0.0,-1.0,3.0
1705327043.9740179,-1.0,-32.0,-35.0,-8.0,-5.0,-4.0,3.0,5.0
1705327043.9740179,-3.0,10.0,1.0,-18.0,-4.0,-4.0,-12.0,-20.0
1705327043.9740179,5.0,-1.0,9.0,7.0,4.0,3.0,28.0,14.0
1705327043.994458,6.0,12.0,51.0,4.0,0.0,0.0,4.0,13.0
1705327043.994458,-2.0,-46.0,4.0,1.0,-4.0,-7.0,-13.0,-14.0
1705327043.994458,0.0,11.0,-10.0,1.0,1.0,-3.0,14.0,20.0
1705327043.994458,-4.0,0.0,-11.0,4.0,0.0,-1.0,-21.0,4.0
1705327044.004462,6.0,-9.0,-11.0,-3.0,2.0,6.0,16.0,-2.0
1705327044.004462,3.0,18.0,7.0,2.0,-1.0,2.0,4.0,10.0
1705327044.0244603,-1.0,-11.0,11.0,-4.0,-3.0,-3.0,-8.0,1.0
1705327044.0244603,-1.0,-15.0,-23.0,-1.0,-4.0,-5.0,-8.0,24.0
1705327044.0344598,-6.0,9.0,21.0,7.0,0.0,1.0,5.0,-12.0
1705327044.0344598,1.0,4.0,27.0,-5.0,-2.0,1.0,-6.0,-10.0
1705327044.0344598,-3.0,-15.0,-54.0,-27.0,-1.0,-1.0,0.0,-2.0
1705327044.0344598,3.0,8.0,2.0,14.0,-2.0,1.0,-6.0,9.0
1705327044.0544615,-10.0,-22.0,-4.0,-12.0,-5.0,-6.0,-15.0,-20.0
1705327044.0544615,3.0,9.0,0.0,-10.0,-1.0,-3.0,8.0,5.0
1705327044.0544615,-5.0,1.0,5.0,16.0,4.0,2.0,-1.0,-8.0
1705327044.0544615,0.0,2.0,-2.0,-13.0,-5.0,-2.0,-4.0,-2.0
1705327044.0744612,-1.0,0.0,-18.0,0.0,-4.0,0.0,-5.0,-6.0
1705327044.0744612,-2.0,-6.0,11.0,6.0,-4.0,-2.0,0.0,3.0
1705327044.0744612,10.0,11.0,-1.0,-1.0,-1.0,-1.0,-3.0,1.0
1705327044.0744612,0.0,0.0,-14.0,-7.0,4.0,3.0,-1.0,-1.0
1705327044.0944624,-17.0,-15.0,11.0,3.0,1.0,-6.0,-6.0,-3.0
1705327044.0944624,2.0,1.0,0.0,9.0,0.0,1.0,-3.0,1.0
1705327044.0944624,-14.0,12.0,7.0,16.0,-2.0,-2.0,-2.0,-1.0
1705327044.0944624,9.0,3.0,-17.0,-9.0,1.0,2.0,1.0,-20.0
1705327044.114465,6.0,-25.0,5.0,-6.0,1.0,2.0,-4.0,-3.0
1705327044.114465,-27.0,0.0,-11.0,-10.0,-2.0,-3.0,7.0,4.0
1705327044.114465,25.0,4.0,21.0,8.0,-2.0,-1.0,-14.0,-2.0
1705327044.114465,-21.0,-6.0,0.0,14.0,0.0,-5.0,-4.0,2.0
1705327044.1244612,-13.0,18.0,-13.0,-14.0,-3.0,-2.0,-3.0,11.0
1705327044.1244612,5.0,3.0,-5.0,4.0,1.0,1.0,-2.0,-11.0
1705327044.134458,9.0,-25.0,-2.0,-7.0,-2.0,2.0,11.0,20.0
1705327044.134458,10.0,59.0,24.0,-8.0,-4.0,-2.0,-2.0,2.0
1705327044.1545088,-6.0,7.0,-20.0,-5.0,0.0,-2.0,0.0,-2.0
1705327044.1545088,1.0,-58.0,-2.0,20.0,0.0,2.0,4.0,2.0
1705327044.1545088,-9.0,7.0,23.0,-6.0,-3.0,-5.0,-4.0,-9.0
1705327044.1545088,4.0,-18.0,-22.0,-4.0,0.0,2.0,-1.0,13.0
1705327044.17889,1.0,7.0,8.0,-13.0,-4.0,0.0,-4.0,-37.0
1705327044.17889,4.0,20.0,15.0,15.0,3.0,1.0,-8.0,1.0
1705327044.180042,-3.0,-8.0,-6.0,-5.0,-1.0,-3.0,6.0,-16.0
1705327044.180042,-4.0,-10.0,-3.0,4.0,1.0,2.0,-8.0,3.0
1705327044.1930466,-1.0,-2.0,-35.0,-8.0,-7.0,-8.0,0.0,19.0
1705327044.1930466,2.0,-3.0,-7.0,-12.0,-1.0,-2.0,0.0,-8.0
1705327044.1968346,-1.0,1.0,13.0,4.0,0.0,1.0,0.0,20.0
1705327044.1968346,-5.0,-8.0,10.0,3.0,-1.0,1.0,6.0,5.0
1705327044.216876,3.0,-1.0,16.0,6.0,2.0,2.0,-5.0,-12.0
1705327044.216876,2.0,7.0,1.0,-3.0,1.0,6.0,5.0,3.0
1705327044.216876,-6.0,20.0,-28.0,-4.0,-2.0,-5.0,-2.0,3.0
1705327044.216876,-6.0,-11.0,4.0,-5.0,0.0,-2.0,-1.0,-10.0
1705327044.2368374,2.0,-28.0,5.0,7.0,-1.0,-3.0,-3.0,-2.0
1705327044.2368374,5.0,36.0,-6.0,-2.0,0.0,-1.0,-9.0,13.0
1705327044.2368374,-5.0,-49.0,26.0,-6.0,-5.0,0.0,6.0,-12.0
1705327044.2368374,-6.0,-13.0,-16.0,-9.0,-5.0,-2.0,1.0,0.0
1705327044.2468817,4.0,-8.0,-15.0,4.0,3.0,2.0,-1.0,-4.0
1705327044.2468817,2.0,18.0,-18.0,-3.0,-2.0,-4.0,-5.0,6.0
1705327044.2568374,-2.0,26.0,8.0,-4.0,0.0,-3.0,-14.0,-26.0
1705327044.2568374,14.0,-18.0,-6.0,-1.0,-2.0,-4.0,-4.0,2.0
1705327044.2768748,-13.0,26.0,36.0,7.0,2.0,-3.0,11.0,8.0
1705327044.2768748,-6.0,-50.0,-12.0,-7.0,-3.0,0.0,-2.0,1.0
1705327044.2768748,4.0,22.0,-21.0,2.0,0.0,-1.0,-9.0,-10.0
1705327044.2768748,-3.0,-3.0,17.0,1.0,2.0,-6.0,0.0,-7.0
1705327044.2968383,10.0,5.0,2.0,-3.0,-2.0,6.0,6.0,20.0
1705327044.2968383,0.0,5.0,-10.0,4.0,3.0,-3.0,-1.0,-30.0
1705327044.2968383,-3.0,-3.0,11.0,-1.0,-2.0,1.0,4.0,3.0
1705327044.2968383,-2.0,6.0,9.0,0.0,-1.0,0.0,-6.0,-3.0
1705327044.3068469,2.0,-8.0,14.0,-2.0,1.0,0.0,-1.0,8.0
1705327044.3068469,0.0,-6.0,-22.0,0.0,-1.0,-1.0,4.0,11.0
1705327044.3168607,-3.0,0.0,-30.0,-2.0,0.0,1.0,-1.0,8.0
1705327044.3168607,5.0,12.0,42.0,2.0,0.0,1.0,1.0,2.0
1705327044.3368607,-3.0,-6.0,12.0,-1.0,-1.0,-4.0,-3.0,-8.0
1705327044.3368607,-9.0,-15.0,-2.0,-13.0,-7.0,-2.0,-1.0,-13.0
1705327044.3368607,-2.0,15.0,30.0,16.0,5.0,-4.0,-3.0,-4.0
1705327044.3368607,-4.0,-24.0,-91.0,-15.0,-2.0,0.0,4.0,11.0
1705327044.3568604,1.0,37.0,13.0,-1.0,-1.0,-1.0,-5.0,-9.0
1705327044.3568604,2.0,7.0,15.0,4.0,3.0,2.0,0.0,10.0
1705327044.3568604,-1.0,8.0,-6.0,-14.0,-1.0,4.0,-2.0,6.0
1705327044.3568604,6.0,-11.0,10.0,9.0,0.0,-1.0,-6.0,5.0
1705327044.3668594,-3.0,12.0,18.0,4.0,-1.0,-3.0,-18.0,-2.0
1705327044.3668594,-3.0,-16.0,-1.0,-3.0,-2.0,4.0,21.0,12.0
1705327044.3769,0.0,-8.0,-38.0,-6.0,-2.0,-7.0,-5.0,-47.0
1705327044.3769,-6.0,-2.0,8.0,-1.0,-1.0,3.0,13.0,6.0
1705327044.396859,9.0,-8.0,-14.0,0.0,0.0,-2.0,-1.0,-13.0
1705327044.396859,-3.0,13.0,45.0,5.0,2.0,-1.0,-6.0,10.0
1705327044.4068592,-5.0,2.0,-4.0,-2.0,-2.0,4.0,3.0,3.0
1705327044.4068592,1.0,5.0,30.0,-1.0,0.0,-2.0,-4.0,17.0
1705327044.416897,-1.0,-13.0,-36.0,1.0,-1.0,-3.0,1.0,-14.0
1705327044.416897,8.0,7.0,-19.0,-2.0,-3.0,-3.0,-11.0,-5.0
1705327044.416897,-15.0,-20.0,8.0,-5.0,-2.0,-4.0,-1.0,14.0
1705327044.416897,-3.0,18.0,1.0,11.0,3.0,0.0,-5.0,-5.0
1705327044.4368584,-3.0,-8.0,26.0,-11.0,-3.0,0.0,3.0,7.0
1705327044.4368584,-4.0,-3.0,-40.0,12.0,4.0,0.0,0.0,-1.0
1705327044.4368584,2.0,-8.0,17.0,-6.0,-8.0,-8.0,-5.0,4.0
1705327044.4368584,4.0,4.0,3.0,4.0,1.0,1.0,-2.0,-12.0
1705327044.456859,6.0,9.0,2.0,-1.0,-1.0,2.0,4.0,2.0
1705327044.456859,-5.0,-2.0,-3.0,-13.0,-6.0,-1.0,-5.0,-10.0
1705327044.456859,2.0,-24.0,-7.0,5.0,2.0,-3.0,-15.0,-4.0
1705327044.456859,-6.0,7.0,7.0,-1.0,-3.0,3.0,13.0,6.0
1705327044.4868598,-1.0,-23.0,-12.0,5.0,-1.0,-3.0,17.0,-18.0
1705327044.4868598,-1.0,-3.0,12.0,-3.0,-1.0,-3.0,-17.0,7.0
1705327044.4868598,0.0,-4.0,-10.0,0.0,-2.0,-1.0,15.0,18.0
1705327044.4868598,6.0,10.0,31.0,-4.0,-3.0,-2.0,-12.0,-3.0
1705327044.4968588,-28.0,-16.0,-49.0,-3.0,1.0,3.0,-10.0,-39.0
1705327044.4968588,-2.0,-1.0,28.0,3.0,-2.0,1.0,2.0,-1.0
1705327044.4968588,6.0,16.0,5.0,1.0,2.0,4.0,6.0,-1.0
1705327044.4968588,7.0,-15.0,-10.0,-2.0,-1.0,-7.0,-13.0,-4.0
1705327044.516861,7.0,28.0,17.0,3.0,1.0,0.0,5.0,19.0
1705327044.516861,-4.0,-2.0,0.0,-6.0,-3.0,-4.0,-1.0,-4.0
1705327044.516861,0.0,-4.0,28.0,8.0,-1.0,3.0,3.0,2.0
1705327044.516861,0.0,-6.0,-2.0,-1.0,-1.0,-2.0,-1.0,-4.0
1705327044.5368972,1.0,-8.0,-6.0,-3.0,-1.0,-5.0,-11.0,3.0
1705327044.5368972,-8.0,14.0,-18.0,-2.0,2.0,2.0,17.0,-4.0
1705327044.5368972,9.0,5.0,3.0,-6.0,-2.0,-2.0,-2.0,4.0
1705327044.5368972,-6.0,-2.0,-12.0,2.0,-4.0,0.0,12.0,-12.0
1705327044.5668588,0.0,2.0,22.0,4.0,-2.0,-5.0,-21.0,-2.0
1705327044.5668588,5.0,-5.0,0.0,-4.0,1.0,-1.0,-7.0,-1.0
1705327044.5668588,-7.0,5.0,-9.0,-3.0,-2.0,3.0,36.0,17.0
1705327044.5668588,-1.0,-1.0,-1.0,-2.0,0.0,-3.0,-12.0,-17.0
1705327044.5668588,2.0,-5.0,-4.0,-1.0,-1.0,-3.0,-2.0,13.0
1705327044.5668588,2.0,2.0,-9.0,-3.0,-2.0,-2.0,1.0,-8.0
1705327044.5768635,-6.0,2.0,-8.0,2.0,1.0,2.0,-5.0,0.0
1705327044.5768635,-7.0,-11.0,-9.0,-2.0,-4.0,1.0,-1.0,-1.0
1705327044.59689,-2.0,8.0,0.0,-5.0,-3.0,1.0,6.0,4.0
1705327044.59689,5.0,-2.0,-20.0,1.0,0.0,-2.0,-9.0,-1.0
1705327044.59689,5.0,7.0,3.0,2.0,1.0,0.0,-13.0,-6.0
1705327044.59689,3.0,-6.0,-7.0,-2.0,0.0,-1.0,3.0,-1.0
1705327044.6168642,4.0,-8.0,30.0,2.0,-1.0,-2.0,-2.0,4.0
1705327044.6168642,-4.0,2.0,-4.0,-3.0,-3.0,-2.0,-1.0,-2.0
1705327044.6168642,-3.0,0.0,4.0,-11.0,-5.0,-4.0,-2.0,1.0
1705327044.6168642,0.0,25.0,1.0,16.0,6.0,1.0,4.0,-11.0
1705327044.626861,1.0,2.0,7.0,1.0,0.0,1.0,0.0,18.0
1705327044.626861,-2.0,-9.0,5.0,-7.0,-6.0,-5.0,-3.0,12.0
1705327044.6368978,0.0,7.0,-20.0,-1.0,4.0,2.0,0.0,1.0
1705327044.6368978,-6.0,-2.0,-3.0,-11.0,-7.0,-4.0,-18.0,1.0
1705327044.6569192,5.0,-3.0,-12.0,0.0,0.0,1.0,20.0,0.0
1705327044.6569192,-17.0,-9.0,4.0,-1.0,3.0,-1.0,-8.0,-4.0
1705327044.6569192,4.0,-4.0,1.0,3.0,2.0,0.0,4.0,10.0
1705327044.6569192,0.0,-14.0,-3.0,1.0,1.0,-2.0,-9.0,-11.0
1705327044.686859,8.0,-4.0,-6.0,-6.0,1.0,2.0,3.0,10.0
1705327044.686859,0.0,2.0,8.0,1.0,-2.0,3.0,2.0,0.0
1705327044.686859,-5.0,2.0,-57.0,-10.0,-7.0,-1.0,-7.0,-17.0
1705327044.686859,2.0,-45.0,-25.0,-7.0,1.0,-2.0,2.0,4.0
1705327044.686859,-7.0,4.0,2.0,9.0,0.0,-2.0,-7.0,-7.0
1705327044.686859,5.0,20.0,44.0,12.0,2.0,-1.0,4.0,-8.0
1705327044.696859,2.0,-5.0,-26.0,-6.0,-2.0,-4.0,-8.0,7.0
1705327044.696859,-3.0,36.0,28.0,-4.0,-1.0,-2.0,3.0,-13.0
1705327044.7191317,-5.0,-25.0,-9.0,2.0,-1.0,1.0,2.0,-5.0
1705327044.7191317,8.0,0.0,-11.0,-7.0,1.0,0.0,-10.0,-6.0
1705327044.72013,-7.0,-21.0,10.0,14.0,-1.0,0.0,6.0,-3.0
1705327044.72013,-5.0,14.0,-2.0,1.0,0.0,-2.0,-1.0,7.0
1705327044.7497683,-4.0,11.0,5.0,-7.0,2.0,3.0,7.0,-1.0
1705327044.7497683,-6.0,-15.0,-36.0,-6.0,-4.0,-6.0,-4.0,-11.0
1705327044.7497683,9.0,-23.0,19.0,0.0,0.0,-2.0,-9.0,-7.0
1705327044.7497683,0.0,6.0,-20.0,-12.0,-1.0,0.0,7.0,8.0
1705327044.7497683,-19.0,-22.0,16.0,21.0,1.0,-1.0,-4.0,-9.0
1705327044.7497683,-7.0,9.0,9.0,-4.0,-1.0,0.0,-8.0,4.0
1705327044.7597651,-8.0,9.0,-14.0,-13.0,-4.0,-7.0,-8.0,-7.0
1705327044.7597651,1.0,-41.0,11.0,13.0,0.0,-1.0,5.0,12.0
1705327044.7697678,-2.0,-6.0,-10.0,-11.0,-1.0,-1.0,-6.0,-27.0
1705327044.7697678,12.0,11.0,-11.0,-12.0,-1.0,1.0,9.0,1.0
1705327044.779764,-8.0,2.0,43.0,24.0,6.0,2.0,3.0,7.0
1705327044.779764,0.0,4.0,-18.0,-11.0,-8.0,-5.0,-11.0,-15.0
1705327044.7997665,3.0,45.0,-19.0,-4.0,-6.0,-6.0,-8.0,5.0
1705327044.7997665,-4.0,-58.0,14.0,5.0,4.0,1.0,2.0,-9.0
1705327044.7997665,11.0,53.0,24.0,-20.0,-1.0,1.0,1.0,19.0
1705327044.7997665,-14.0,-64.0,5.0,-4.0,0.0,2.0,10.0,1.0
1705327044.8097649,8.0,-24.0,-54.0,-8.0,-1.0,-3.0,-6.0,1.0
1705327044.8097649,-3.0,82.0,17.0,2.0,-1.0,-1.0,-3.0,-6.0
1705327044.819769,-6.0,13.0,22.0,13.0,-6.0,1.0,2.0,5.0
1705327044.819769,15.0,8.0,-17.0,0.0,5.0,2.0,-3.0,0.0
1705327044.8298075,-19.0,13.0,22.0,-13.0,-5.0,-1.0,-3.0,1.0
1705327044.8298075,3.0,-12.0,-25.0,6.0,-3.0,-4.0,-5.0,-6.0
1705327044.8397653,-2.0,-56.0,-34.0,-1.0,-2.0,-2.0,-2.0,-6.0
1705327044.8397653,0.0,25.0,5.0,-14.0,-3.0,-1.0,1.0,-1.0
1705327044.8597696,7.0,2.0,22.0,11.0,1.0,3.0,4.0,7.0
1705327044.8597696,6.0,0.0,10.0,4.0,-1.0,-2.0,2.0,6.0
1705327044.8597696,-4.0,22.0,3.0,-6.0,-4.0,-1.0,-5.0,-14.0
1705327044.8597696,-2.0,-7.0,-26.0,-4.0,-2.0,-3.0,-4.0,4.0
1705327044.8697731,5.0,2.0,-3.0,-11.0,-2.0,-1.0,-3.0,-17.0
1705327044.8697731,-8.0,-16.0,14.0,-3.0,-3.0,-3.0,0.0,4.0
1705327044.8797681,4.0,-39.0,-19.0,-8.0,1.0,2.0,-4.0,-8.0
1705327044.8797681,0.0,-15.0,-9.0,6.0,3.0,2.0,1.0,-2.0
1705327044.8897696,-4.0,5.0,35.0,19.0,3.0,-2.0,-1.0,11.0
1705327044.8897696,-6.0,-3.0,-14.0,-7.0,-1.0,-1.0,3.0,-4.0
1705327044.8997648,1.0,-4.0,5.0,-11.0,0.0,-3.0,-3.0,-9.0
1705327044.8997648,1.0,-11.0,-30.0,8.0,-1.0,1.0,1.0,9.0
1705327044.919766,0.0,12.0,-23.0,5.0,2.0,0.0,1.0,-2.0
1705327044.919766,6.0,-13.0,9.0,-3.0,0.0,0.0,1.0,-3.0
1705327044.919766,-9.0,19.0,2.0,-3.0,1.0,-2.0,-4.0,-2.0
1705327044.919766,2.0,-13.0,11.0,-4.0,-4.0,-2.0,-3.0,-35.0
1705327044.9297655,-5.0,-19.0,-31.0,3.0,0.0,5.0,-1.0,10.0
1705327044.9297655,14.0,48.0,21.0,5.0,0.0,0.0,7.0,16.0
1705327044.9398055,-7.0,-34.0,17.0,-17.0,-7.0,-8.0,-9.0,-22.0
1705327044.9398055,-1.0,25.0,20.0,15.0,-1.0,-4.0,-1.0,2.0
1705327044.9497635,15.0,30.0,3.0,2.0,5.0,4.0,-2.0,-7.0
1705327044.9597685,-13.0,-19.0,15.0,-5.0,-3.0,-2.0,3.0,22.0
1705327044.9597685,2.0,28.0,-3.0,6.0,3.0,7.0,8.0,-6.0
1705327044.9597685,-4.0,-30.0,-7.0,-13.0,-5.0,-6.0,-12.0,-27.0
1705327044.9798088,2.0,-9.0,3.0,-4.0,-1.0,-1.0,5.0,33.0
1705327044.9798088,-9.0,-24.0,-9.0,-7.0,-2.0,0.0,-11.0,-77.0
1705327044.9798088,7.0,17.0,-12.0,7.0,-1.0,-6.0,2.0,14.0
1705327044.9798088,-6.0,23.0,28.0,-6.0,-1.0,2.0,-3.0,23.0
1705327044.9898102,2.0,2.0,-10.0,-1.0,-3.0,-4.0,10.0,-1.0
1705327044.9898102,-1.0,-2.0,-5.0,5.0,1.0,2.0,5.0,19.0
1705327044.9997647,3.0,-6.0,11.0,18.0,6.0,2.0,-6.0,-22.0
1705327044.9997647,-4.0,4.0,4.0,0.0,-2.0,-3.0,-5.0,5.0
1705327045.0097659,-6.0,-16.0,-21.0,-19.0,-6.0,0.0,-7.0,-12.0
1705327045.0097659,3.0,-4.0,-16.0,1.0,-1.0,0.0,2.0,19.0
1705327045.0197644,-3.0,-12.0,8.0,-11.0,-3.0,1.0,7.0,16.0
1705327045.0197644,-2.0,31.0,11.0,7.0,-3.0,0.0,0.0,-26.0
1705327045.039765,-6.0,-7.0,4.0,32.0,1.0,-5.0,-8.0,-20.0
1705327045.039765,9.0,10.0,23.0,-2.0,5.0,2.0,0.0,6.0
1705327045.039765,-2.0,-1.0,-12.0,2.0,1.0,-1.0,-6.0,27.0
1705327045.039765,-6.0,-13.0,-47.0,-19.0,-5.0,0.0,-7.0,3.0
1705327045.0497653,-1.0,-24.0,9.0,-16.0,-11.0,-11.0,-4.0,-31.0
1705327045.0497653,-2.0,-5.0,12.0,9.0,2.0,1.0,2.0,-27.0
1705327045.059767,-4.0,-6.0,-49.0,3.0,3.0,3.0,4.0,-11.0
1705327045.059767,-5.0,6.0,24.0,-4.0,-2.0,-2.0,4.0,8.0
1705327045.0697653,3.0,-6.0,-14.0,-27.0,2.0,3.0,-4.0,8.0
1705327045.0697653,-2.0,-2.0,-27.0,17.0,-3.0,-6.0,-7.0,11.0
1705327045.0797665,-3.0,8.0,19.0,-7.0,-2.0,-5.0,-13.0,8.0
1705327045.0797665,1.0,6.0,3.0,4.0,0.0,-2.0,8.0,36.0
1705327045.099765,4.0,2.0,7.0,-4.0,-6.0,-3.0,-4.0,-23.0
1705327045.099765,-12.0,-10.0,-7.0,-5.0,-2.0,-2.0,-2.0,-1.0
1705327045.099765,-20.0,-16.0,-3.0,0.0,0.0,-1.0,1.0,-3.0
1705327045.099765,3.0,1.0,-14.0,-5.0,2.0,-4.0,-9.0,13.0
1705327045.109767,4.0,16.0,19.0,6.0,2.0,2.0,4.0,9.0
1705327045.109767,-1.0,-7.0,-3.0,-4.0,-4.0,2.0,10.0,-3.0
1705327045.119798,15.0,-12.0,-3.0,2.0,-1.0,-1.0,3.0,5.0
1705327045.119798,-1.0,-16.0,-2.0,-1.0,-1.0,-2.0,-16.0,-12.0
1705327045.139766,1.0,47.0,26.0,1.0,-1.0,-4.0,-11.0,8.0
1705327045.139766,-6.0,-30.0,-16.0,-10.0,-3.0,-1.0,-2.0,4.0
1705327045.139766,12.0,21.0,-2.0,-7.0,0.0,-1.0,-7.0,-16.0
1705327045.139766,-27.0,7.0,7.0,14.0,2.0,-1.0,13.0,-7.0
1705327045.1597724,6.0,-56.0,-6.0,-1.0,-4.0,-4.0,-11.0,10.0
1705327045.1597724,6.0,-18.0,-20.0,14.0,-3.0,-2.0,0.0,13.0
1705327045.1597724,-2.0,41.0,3.0,-22.0,1.0,5.0,5.0,-5.0
1705327045.1597724,21.0,0.0,4.0,-3.0,0.0,3.0,4.0,-1.0
1705327045.179765,-12.0,-3.0,7.0,11.0,5.0,3.0,8.0,4.0
1705327045.179765,-5.0,6.0,-8.0,-11.0,-1.0,-2.0,-10.0,-8.0
1705327045.179765,7.0,-4.0,2.0,13.0,-3.0,-4.0,-1.0,11.0
1705327045.179765,-1.0,-5.0,6.0,1.0,1.0,2.0,11.0,-10.0
1705327045.1997645,-19.0,34.0,22.0,9.0,2.0,3.0,6.0,29.0
1705327045.1997645,7.0,29.0,10.0,-18.0,0.0,-1.0,9.0,23.0
1705327045.1997645,-5.0,4.0,-11.0,1.0,-3.0,-2.0,-5.0,-10.0
1705327045.1997645,3.0,-4.0,18.0,-1.0,-1.0,-5.0,-2.0,9.0
1705327045.2198033,-7.0,-5.0,-7.0,-1.0,-2.0,0.0,0.0,-11.0
1705327045.2198033,-5.0,-18.0,5.0,1.0,-2.0,0.0,-14.0,-14.0
1705327045.2198033,1.0,31.0,25.0,-15.0,-6.0,-5.0,-4.0,6.0
1705327045.2198033,-6.0,-13.0,-41.0,7.0,4.0,4.0,2.0,-4.0
1705327045.2450578,17.0,15.0,17.0,0.0,2.0,2.0,1.0,2.0
1705327045.2450578,-6.0,14.0,-4.0,-1.0,-1.0,-3.0,1.0,-7.0
1705327045.2450578,-5.0,-21.0,-28.0,-3.0,-1.0,-3.0,-10.0,-25.0
1705327045.2450578,5.0,14.0,27.0,2.0,-3.0,-2.0,-4.0,-5.0
1705327045.259056,-34.0,-36.0,-28.0,-3.0,-1.0,-2.0,-2.0,-23.0
1705327045.259056,5.0,2.0,9.0,-9.0,-2.0,-3.0,-4.0,-26.0
1705327045.2600543,2.0,-9.0,-6.0,14.0,0.0,0.0,8.0,18.0
1705327045.2600543,2.0,13.0,23.0,-1.0,2.0,2.0,-4.0,-28.0
1705327045.272627,8.0,-12.0,-49.0,-13.0,-5.0,-2.0,-6.0,12.0
1705327045.272627,0.0,18.0,-5.0,-22.0,-10.0,-6.0,4.0,-3.0
1705327045.282528,-13.0,4.0,-13.0,15.0,7.0,4.0,4.0,-6.0
1705327045.282528,3.0,-13.0,17.0,7.0,3.0,-1.0,-6.0,12.0
1705327045.2925272,0.0,-21.0,-3.0,1.0,0.0,-4.0,16.0,10.0
1705327045.2925272,7.0,3.0,-20.0,0.0,-2.0,4.0,0.0,-10.0
1705327045.302528,0.0,-11.0,-20.0,-9.0,-2.0,-1.0,-11.0,24.0
1705327045.302528,-6.0,8.0,1.0,-4.0,-1.0,1.0,2.0,-4.0
1705327045.3125277,5.0,-10.0,6.0,3.0,-1.0,-3.0,-1.0,28.0
1705327045.3125277,-8.0,1.0,16.0,9.0,4.0,3.0,-6.0,-30.0
1705327045.3125277,2.0,12.0,-20.0,-4.0,-2.0,2.0,-2.0,3.0
1705327045.3125277,2.0,5.0,7.0,-9.0,-9.0,-8.0,-12.0,17.0
1705327045.332526,-2.0,-21.0,-17.0,-3.0,1.0,5.0,3.0,-9.0
1705327045.332526,5.0,-15.0,-27.0,-1.0,-1.0,-3.0,3.0,15.0
1705327045.3425272,-4.0,-20.0,8.0,2.0,-3.0,1.0,-2.0,2.0
1705327045.3425272,-1.0,3.0,5.0,0.0,-1.0,-1.0,-9.0,-14.0
1705327045.3525276,17.0,31.0,34.0,-2.0,0.0,1.0,5.0,14.0
1705327045.3525276,-7.0,-36.0,-16.0,3.0,1.0,1.0,-8.0,5.0
1705327045.3625298,-1.0,9.0,14.0,10.0,4.0,1.0,2.0,-9.0
1705327045.3625298,-3.0,-3.0,-15.0,-6.0,-3.0,-10.0,2.0,29.0
1705327045.372541,-8.0,-4.0,-12.0,-2.0,-1.0,2.0,4.0,11.0
1705327045.372541,-4.0,-5.0,16.0,3.0,1.0,-1.0,-4.0,-35.0
1705327045.372541,9.0,-11.0,0.0,-10.0,-3.0,-3.0,-3.0,-6.0
1705327045.372541,-3.0,10.0,-5.0,0.0,4.0,4.0,-2.0,2.0
1705327045.4025288,-2.0,-5.0,-15.0,0.0,1.0,-3.0,-12.0,-4.0
1705327045.4025288,-1.0,11.0,1.0,0.0,-1.0,6.0,15.0,15.0
1705327045.4025288,4.0,-5.0,2.0,-3.0,-4.0,-5.0,-7.0,7.0
1705327045.4025288,2.0,-6.0,-3.0,1.0,-2.0,-3.0,-10.0,-31.0
1705327045.4225602,6.0,34.0,13.0,-5.0,-4.0,-4.0,-7.0,-3.0
1705327045.4225602,-21.0,-25.0,-25.0,-3.0,0.0,-5.0,-14.0,-3.0
1705327045.4225602,-9.0,-1.0,14.0,2.0,-3.0,2.0,20.0,-2.0
1705327045.4225602,3.0,9.0,15.0,-4.0,0.0,0.0,13.0,8.0
1705327045.4325259,-10.0,-51.0,-47.0,-5.0,-5.0,-2.0,-12.0,-31.0
1705327045.4325259,2.0,16.0,21.0,2.0,2.0,-1.0,0.0,18.0
1705327045.4325259,-2.0,-5.0,0.0,-2.0,1.0,-3.0,-8.0,-1.0
1705327045.4325259,-5.0,5.0,-5.0,1.0,-2.0,1.0,-6.0,4.0
1705327045.4625268,-3.0,-2.0,7.0,-1.0,-3.0,-4.0,16.0,-26.0
1705327045.4625268,8.0,0.0,-19.0,-2.0,0.0,-1.0,0.0,23.0
1705327045.4625268,-3.0,-12.0,5.0,-9.0,-1.0,-2.0,-3.0,-2.0
1705327045.4625268,2.0,-3.0,-13.0,3.0,1.0,4.0,-7.0,30.0
1705327045.4825592,5.0,9.0,20.0,4.0,1.0,1.0,4.0,-45.0
1705327045.4825592,11.0,11.0,8.0,5.0,-2.0,-3.0,6.0,12.0
1705327045.492526,-10.0,0.0,-4.0,3.0,-4.0,-3.0,2.0,-14.0
1705327045.492526,6.0,26.0,12.0,-1.0,1.0,1.0,-1.0,-4.0
1705327045.492526,-19.0,-13.0,4.0,-5.0,-1.0,0.0,-6.0,3.0
1705327045.492526,0.0,14.0,-9.0,-6.0,3.0,1.0,-1.0,-1.0
1705327045.492526,23.0,35.0,13.0,-1.0,4.0,3.0,1.0,-12.0
1705327045.492526,-20.0,-69.0,-27.0,6.0,-4.0,-5.0,-3.0,-1.0
1705327045.5225255,13.0,16.0,-16.0,-3.0,-3.0,-5.0,-4.0,12.0
1705327045.5225255,-22.0,35.0,39.0,8.0,-3.0,-3.0,2.0,-8.0
1705327045.5225255,0.0,-60.0,-11.0,0.0,4.0,0.0,0.0,4.0
1705327045.5225255,-8.0,31.0,-13.0,-12.0,-5.0,-2.0,-3.0,-18.0
1705327045.5425293,16.0,18.0,34.0,7.0,6.0,2.0,-2.0,19.0
1705327045.5425293,9.0,4.0,-24.0,3.0,-10.0,-5.0,-7.0,-9.0
1705327045.5425293,-8.0,28.0,-8.0,3.0,7.0,1.0,4.0,-2.0
1705327045.5425293,-4.0,-73.0,9.0,-6.0,-1.0,2.0,6.0,-9.0
1705327045.5525286,-19.0,-11.0,-39.0,-8.0,-4.0,-2.0,-13.0,-6.0
1705327045.5525286,10.0,-10.0,13.0,-4.0,1.0,3.0,5.0,16.0
1705327045.5625257,-5.0,-3.0,30.0,12.0,-5.0,-6.0,-9.0,17.0
1705327045.5625257,1.0,39.0,-9.0,-6.0,-2.0,-2.0,5.0,-8.0
1705327045.5825262,-12.0,-23.0,-3.0,4.0,2.0,3.0,4.0,8.0
1705327045.5825262,11.0,-10.0,13.0,5.0,4.0,1.0,-5.0,0.0
1705327045.5825262,-16.0,-12.0,-35.0,-11.0,-2.0,1.0,2.0,16.0
1705327045.5825262,-5.0,24.0,5.0,-1.0,-5.0,-4.0,8.0,-9.0
1705327045.6025271,0.0,-27.0,-4.0,-8.0,-2.0,-3.0,-17.0,-3.0
1705327045.6025271,2.0,-32.0,-31.0,-14.0,0.0,-1.0,1.0,5.0
1705327045.6025271,-8.0,26.0,20.0,13.0,2.0,4.0,10.0,-12.0
1705327045.6025271,7.0,1.0,12.0,-5.0,-5.0,-2.0,-14.0,6.0
1705327045.6125317,6.0,15.0,4.0,-2.0,-2.0,-2.0,3.0,0.0
1705327045.6125317,1.0,-4.0,11.0,8.0,3.0,0.0,2.0,6.0
1705327045.6325307,11.0,0.0,-24.0,-1.0,-3.0,-4.0,-1.0,-12.0
1705327045.6325307,0.0,4.0,-9.0,-4.0,-3.0,1.0,2.0,-4.0
1705327045.6325307,-4.0,-36.0,16.0,4.0,-3.0,-4.0,-1.0,1.0
1705327045.6325307,-14.0,-2.0,-4.0,-24.0,-6.0,-5.0,-1.0,-8.0
1705327045.6425292,-1.0,-21.0,-4.0,13.0,5.0,-1.0,-13.0,-5.0
1705327045.6425292,8.0,0.0,-2.0,5.0,2.0,1.0,10.0,11.0
1705327045.6625667,-11.0,-5.0,-1.0,0.0,1.0,4.0,-7.0,-32.0
1705327045.6625667,0.0,12.0,15.0,13.0,-1.0,-4.0,2.0,-2.0
1705327045.6625667,4.0,-7.0,3.0,-15.0,-4.0,-2.0,-6.0,-5.0
1705327045.6625667,7.0,-11.0,-2.0,-7.0,8.0,0.0,3.0,-1.0
1705327045.672527,-1.0,30.0,-14.0,11.0,4.0,6.0,0.0,-7.0
1705327045.672527,-5.0,-5.0,-1.0,3.0,-1.0,-11.0,-19.0,1.0
1705327045.6925254,-5.0,0.0,-5.0,-16.0,-14.0,-6.0,22.0,-35.0
1705327045.6925254,3.0,3.0,-2.0,0.0,2.0,1.0,8.0,5.0
1705327045.6925254,1.0,-1.0,8.0,-11.0,-3.0,-1.0,7.0,10.0
1705327045.6925254,4.0,7.0,19.0,21.0,3.0,3.0,-11.0,-4.0
1705327045.702527,2.0,0.0,-18.0,-9.0,2.0,1.0,-12.0,10.0
1705327045.702527,-5.0,9.0,-1.0,-5.0,-5.0,0.0,-4.0,2.0
1705327045.7225256,3.0,3.0,-14.0,-2.0,-3.0,-6.0,16.0,11.0
1705327045.7225256,-1.0,-9.0,-1.0,-8.0,-2.0,2.0,-3.0,-13.0
1705327045.7225256,-1.0,-3.0,26.0,2.0,-2.0,-2.0,1.0,13.0
1705327045.7225256,-6.0,1.0,-26.0,6.0,0.0,5.0,-4.0,-11.0
1705327045.7425294,9.0,16.0,45.0,8.0,2.0,0.0,-2.0,9.0
1705327045.7425294,-5.0,2.0,-71.0,4.0,-2.0,-3.0,6.0,13.0
1705327045.7425294,-1.0,31.0,-1.0,-18.0,-4.0,-3.0,-7.0,4.0
1705327045.7425294,-5.0,-8.0,-31.0,-3.0,9.0,0.0,-4.0,-11.0
1705327045.7525284,0.0,27.0,37.0,7.0,-2.0,-3.0,-4.0,6.0
1705327045.7525284,-4.0,-25.0,42.0,-16.0,-7.0,0.0,2.0,5.0
1705327045.7673762,-3.0,-8.0,-9.0,12.0,5.0,1.0,-2.0,-1.0
1705327045.7673762,0.0,9.0,0.0,3.0,-7.0,-4.0,-1.0,-2.0
1705327045.7952037,8.0,13.0,-27.0,-7.0,1.0,0.0,-2.0,6.0
1705327045.7952037,-4.0,10.0,13.0,1.0,1.0,2.0,3.0,-4.0
1705327045.7952037,10.0,-19.0,-17.0,-2.0,-3.0,-2.0,-3.0,15.0
1705327045.7952037,-7.0,-3.0,15.0,11.0,4.0,1.0,5.0,16.0
1705327045.7952037,0.0,17.0,-21.0,-3.0,-3.0,-6.0,-9.0,-11.0
1705327045.7952037,-7.0,-2.0,13.0,-6.0,-6.0,6.0,7.0,3.0
1705327045.8052068,5.0,-49.0,19.0,5.0,5.0,4.0,9.0,-10.0
1705327045.8052068,-2.0,-34.0,-25.0,-7.0,-6.0,-9.0,4.0,8.0
1705327045.8152053,0.0,43.0,20.0,4.0,0.0,-4.0,-3.0,-7.0
1705327045.8152053,-3.0,14.0,-9.0,-2.0,2.0,0.0,-4.0,2.0
1705327045.8152053,-17.0,3.0,-20.0,-5.0,-5.0,-4.0,-7.0,-33.0
1705327045.8152053,15.0,-9.0,12.0,-2.0,2.0,4.0,2.0,25.0
1705327045.835205,-11.0,-25.0,-16.0,-8.0,-5.0,-3.0,-17.0,-49.0
1705327045.835205,6.0,21.0,7.0,-2.0,1.0,-5.0,5.0,-1.0
1705327045.8452058,-3.0,-9.0,-9.0,-5.0,-3.0,2.0,0.0,-4.0
1705327045.8452058,4.0,12.0,17.0,9.0,-1.0,-3.0,-8.0,26.0
1705327045.8552053,-3.0,8.0,-8.0,-7.0,-6.0,-4.0,-1.0,-34.0
1705327045.8552053,2.0,-31.0,2.0,11.0,5.0,3.0,1.0,4.0
1705327045.86524,-5.0,15.0,11.0,8.0,0.0,-3.0,-16.0,-5.0
1705327045.86524,-7.0,7.0,-7.0,-19.0,-4.0,2.0,7.0,-24.0
1705327045.8752668,15.0,-15.0,2.0,-2.0,0.0,6.0,22.0,31.0
1705327045.8752668,0.0,49.0,12.0,5.0,-4.0,-7.0,-8.0,-3.0
1705327045.8752668,12.0,23.0,31.0,4.0,-1.0,1.0,1.0,-2.0
1705327045.8752668,-10.0,-8.0,-22.0,0.0,0.0,-1.0,-9.0,-19.0
1705327045.8952475,-4.0,-44.0,-12.0,-1.0,0.0,-2.0,-15.0,21.0
1705327045.8952475,-4.0,-10.0,6.0,-7.0,-2.0,-2.0,-3.0,-47.0
1705327045.9052148,6.0,13.0,1.0,3.0,2.0,1.0,-5.0,17.0
1705327045.9052148,6.0,58.0,33.0,6.0,-2.0,-1.0,3.0,9.0
1705327045.915244,-15.0,-48.0,-11.0,-2.0,-4.0,-2.0,-2.0,-3.0
1705327045.915244,-2.0,-36.0,-33.0,-4.0,1.0,1.0,-9.0,-4.0
1705327045.925205,-1.0,19.0,47.0,3.0,-2.0,-2.0,-7.0,8.0
1705327045.925205,12.0,-13.0,-3.0,3.0,-2.0,-2.0,-1.0,-5.0
1705327045.9352033,-12.0,-3.0,-33.0,-10.0,-3.0,-5.0,16.0,3.0
1705327045.9352033,8.0,20.0,-1.0,3.0,0.0,2.0,-1.0,13.0
1705327045.9352033,-14.0,-5.0,-22.0,-11.0,-3.0,-5.0,-2.0,-12.0
1705327045.9352033,-1.0,-61.0,-14.0,-13.0,-3.0,2.0,-10.0,-2.0
1705327045.9652085,3.0,31.0,25.0,15.0,5.0,0.0,-9.0,11.0
1705327045.9652085,1.0,4.0,12.0,-3.0,-1.0,-1.0,0.0,-6.0
1705327045.9652085,3.0,-12.0,-31.0,-3.0,-3.0,-1.0,6.0,14.0
1705327045.9652085,-7.0,17.0,-6.0,0.0,-1.0,0.0,-2.0,-8.0
1705327045.975205,2.0,-31.0,3.0,-15.0,0.0,-1.0,-5.0,-2.0
1705327045.975205,-10.0,-3.0,-7.0,18.0,1.0,-2.0,2.0,11.0
1705327045.985205,-4.0,-31.0,-58.0,-32.0,-8.0,-6.0,-5.0,-2.0
1705327045.985205,-1.0,17.0,44.0,9.0,4.0,2.0,-18.0,-40.0
1705327045.995205,1.0,12.0,4.0,5.0,1.0,5.0,18.0,9.0
1705327045.995205,8.0,-2.0,8.0,3.0,1.0,-1.0,-1.0,11.0
1705327045.995205,0.0,-9.0,8.0,10.0,-2.0,1.0,4.0,9.0
1705327045.995205,-9.0,-2.0,-28.0,-4.0,-2.0,-7.0,-4.0,-5.0
1705327046.0152547,2.0,-7.0,25.0,-1.0,1.0,1.0,-6.0,8.0
1705327046.0152547,-2.0,-4.0,-19.0,-4.0,-5.0,-1.0,-1.0,5.0
1705327046.025207,6.0,-6.0,-1.0,0.0,2.0,-4.0,-7.0,-2.0
1705327046.025207,-16.0,-8.0,4.0,-7.0,-1.0,4.0,12.0,5.0
1705327046.0352066,-1.0,5.0,15.0,10.0,0.0,-2.0,1.0,-11.0
1705327046.0352066,2.0,-9.0,-1.0,-23.0,-4.0,-2.0,-1.0,5.0
1705327046.0452034,-1.0,8.0,-22.0,3.0,-5.0,-2.0,-4.0,-7.0
1705327046.0452034,-2.0,-15.0,3.0,12.0,3.0,1.0,1.0,4.0
1705327046.0652046,0.0,10.0,3.0,-3.0,-5.0,-3.0,-2.0,-3.0
1705327046.0652046,8.0,27.0,25.0,-4.0,12.0,2.0,0.0,-6.0
1705327046.0752075,-26.0,-64.0,-21.0,-14.0,-4.0,-1.0,3.0,3.0
1705327046.0752075,11.0,22.0,19.0,1.0,-2.0,-1.0,1.0,-4.0
1705327046.0752075,-3.0,-2.0,-18.0,1.0,-4.0,-2.0,-8.0,2.0
1705327046.0752075,-5.0,-7.0,-1.0,0.0,-4.0,0.0,2.0,-1.0
1705327046.0852098,9.0,13.0,18.0,13.0,5.0,3.0,3.0,2.0
1705327046.0852098,-4.0,-8.0,-13.0,-9.0,-5.0,-8.0,-1.0,-4.0
1705327046.0952058,4.0,-15.0,-18.0,-3.0,-1.0,0.0,-6.0,0.0
1705327046.0952058,-21.0,-6.0,-13.0,-6.0,-4.0,-1.0,0.0,9.0
1705327046.1052363,3.0,30.0,31.0,8.0,4.0,1.0,-2.0,-17.0
1705327046.1052363,-1.0,-20.0,-20.0,1.0,-3.0,-3.0,13.0,18.0
1705327046.1152396,14.0,5.0,-3.0,-7.0,2.0,2.0,-8.0,-21.0
1705327046.1152396,-1.0,-12.0,-13.0,-2.0,-4.0,-5.0,9.0,9.0
1705327046.1152396,-4.0,16.0,23.0,7.0,0.0,-1.0,0.0,0.0
1705327046.1152396,-4.0,2.0,-7.0,-1.0,2.0,3.0,-1.0,9.0
1705327046.13521,0.0,31.0,7.0,-1.0,2.0,-1.0,0.0,3.0
1705327046.13521,-5.0,-45.0,-26.0,-4.0,-4.0,1.0,-7.0,-13.0
1705327046.145209,2.0,27.0,16.0,-4.0,-2.0,2.0,1.0,-4.0
1705327046.145209,0.0,10.0,12.0,-5.0,-2.0,-3.0,-3.0,-6.0
1705327046.1552455,1.0,2.0,1.0,3.0,2.0,1.0,0.0,-8.0
1705327046.1552455,3.0,5.0,11.0,9.0,0.0,0.0,-4.0,-7.0
1705327046.1652036,-7.0,-30.0,-28.0,-4.0,-2.0,-3.0,4.0,1.0
1705327046.1652036,1.0,-6.0,-48.0,-5.0,0.0,-3.0,-7.0,-9.0
1705327046.1752036,-4.0,-18.0,-6.0,-12.0,-7.0,-5.0,-7.0,0.0
1705327046.1752036,-2.0,20.0,36.0,-1.0,-5.0,1.0,-5.0,-4.0
1705327046.1752036,5.0,4.0,24.0,1.0,5.0,-1.0,28.0,13.0
1705327046.1752036,6.0,4.0,2.0,5.0,-1.0,1.0,2.0,-3.0
1705327046.195203,5.0,-4.0,-7.0,2.0,0.0,-3.0,0.0,26.0
1705327046.195203,8.0,-8.0,1.0,-1.0,0.0,0.0,-10.0,5.0
1705327046.205209,-2.0,7.0,-16.0,-3.0,-2.0,-1.0,4.0,5.0
1705327046.205209,-2.0,6.0,12.0,2.0,0.0,2.0,4.0,0.0
1705327046.2152433,2.0,-14.0,8.0,-3.0,-1.0,-1.0,0.0,-3.0
1705327046.2152433,-26.0,1.0,-19.0,-3.0,0.0,-4.0,-2.0,2.0
1705327046.2252073,4.0,4.0,13.0,0.0,-2.0,1.0,-7.0,-3.0
1705327046.2252073,5.0,2.0,8.0,0.0,-4.0,-11.0,-4.0,-5.0
1705327046.2452083,-11.0,-5.0,-12.0,0.0,0.0,1.0,0.0,3.0
1705327046.2452083,4.0,4.0,5.0,-2.0,3.0,2.0,1.0,-6.0
1705327046.2452083,3.0,4.0,12.0,3.0,-1.0,0.0,-9.0,-3.0
1705327046.2452083,5.0,1.0,23.0,5.0,0.0,2.0,2.0,17.0
1705327046.2552052,-12.0,-8.0,-59.0,-23.0,-10.0,-6.0,-10.0,-60.0
1705327046.2552052,-4.0,-7.0,-2.0,5.0,2.0,-1.0,9.0,9.0
1705327046.2652085,-2.0,-2.0,-2.0,-9.0,-3.0,2.0,1.0,0.0
1705327046.2652085,-1.0,3.0,17.0,22.0,8.0,0.0,-14.0,-4.0
1705327046.2752063,-1.0,19.0,7.0,-1.0,-4.0,1.0,5.0,13.0
1705327046.2752063,7.0,-17.0,-18.0,-1.0,-3.0,1.0,7.0,17.0
1705327046.285207,-4.0,0.0,-9.0,-7.0,-4.0,-7.0,-4.0,-18.0
1705327046.285207,-4.0,-3.0,12.0,-4.0,0.0,7.0,12.0,4.0
1705327046.3116558,-6.0,2.0,13.0,-4.0,1.0,5.0,-3.0,0.0
1705327046.3116558,5.0,4.0,-21.0,-7.0,-4.0,-9.0,1.0,-9.0
1705327046.3116558,1.0,25.0,21.0,8.0,1.0,-2.0,-20.0,1.0
1705327046.3116558,-4.0,1.0,-4.0,-3.0,0.0,0.0,8.0,-6.0
1705327046.323655,13.0,4.0,20.0,10.0,3.0,2.0,-8.0,2.0
1705327046.323655,-26.0,0.0,12.0,-5.0,-4.0,3.0,17.0,-1.0
1705327046.3256533,3.0,-17.0,-39.0,-3.0,1.0,2.0,2.0,7.0
1705327046.3256533,-1.0,3.0,-8.0,-8.0,-4.0,-7.0,-3.0,3.0
1705327046.3380284,1.0,-7.0,4.0,0.0,0.0,-1.0,1.0,3.0
1705327046.3380284,18.0,6.0,14.0,5.0,-2.0,-5.0,-8.0,1.0
1705327046.3480608,-11.0,-12.0,-21.0,-12.0,-4.0,2.0,1.0,0.0
1705327046.3480608,-6.0,-18.0,-2.0,-6.0,-5.0,-2.0,-11.0,-10.0
1705327046.3680298,5.0,-34.0,-45.0,-5.0,1.0,0.0,6.0,29.0
1705327046.3680298,5.0,12.0,34.0,15.0,4.0,0.0,3.0,-11.0
1705327046.3680298,-3.0,-3.0,-6.0,-7.0,-3.0,-4.0,-9.0,-6.0
1705327046.3680298,-1.0,15.0,-8.0,1.0,1.0,1.0,-3.0,3.0
1705327046.3780332,-6.0,-19.0,19.0,1.0,-1.0,-3.0,-1.0,9.0
1705327046.3780332,-1.0,-28.0,-30.0,-9.0,0.0,1.0,-10.0,-10.0
1705327046.3780332,6.0,14.0,33.0,2.0,1.0,3.0,14.0,-1.0
1705327046.3780332,0.0,-16.0,-9.0,-10.0,-9.0,-9.0,-3.0,-2.0
1705327046.3980289,-7.0,16.0,11.0,9.0,-1.0,-5.0,-4.0,-8.0
1705327046.3980289,1.0,-24.0,-16.0,2.0,-3.0,3.0,1.0,-10.0
1705327046.408069,-2.0,4.0,2.0,-14.0,-2.0,-2.0,-3.0,-4.0
1705327046.408069,2.0,12.0,-13.0,-3.0,4.0,7.0,6.0,2.0
1705327046.42803,-19.0,1.0,3.0,4.0,1.0,-8.0,0.0,-11.0
1705327046.42803,7.0,11.0,40.0,1.0,0.0,1.0,-11.0,2.0
1705327046.42803,7.0,2.0,-33.0,13.0,-2.0,-5.0,-7.0,6.0
1705327046.42803,2.0,-3.0,8.0,-2.0,-5.0,2.0,2.0,-4.0
1705327046.4382372,9.0,15.0,-8.0,-7.0,1.0,2.0,1.0,-1.0
1705327046.4382372,2.0,61.0,-2.0,-23.0,-3.0,-3.0,-2.0,4.0
1705327046.4382372,-3.0,-40.0,-6.0,4.0,7.0,0.0,-3.0,-6.0
1705327046.4382372,-20.0,-28.0,-18.0,-12.0,0.0,1.0,-2.0,-6.0
1705327046.46825,-5.0,11.0,28.0,30.0,-2.0,-1.0,5.0,5.0
1705327046.46825,10.0,5.0,-3.0,7.0,1.0,-3.0,-4.0,-15.0
1705327046.46825,0.0,2.0,-12.0,-9.0,-8.0,-4.0,0.0,12.0
1705327046.46825,-11.0,52.0,6.0,-3.0,0.0,-2.0,-13.0,-20.0
1705327046.4782507,7.0,-17.0,23.0,-9.0,-3.0,-1.0,-4.0,1.0
1705327046.4782507,-6.0,-10.0,-9.0,9.0,-1.0,-1.0,-2.0,0.0
1705327046.4782507,-10.0,-13.0,-26.0,-10.0,-3.0,-2.0,1.0,0.0
1705327046.4782507,0.0,-23.0,-2.0,-4.0,-5.0,-3.0,1.0,-8.0
1705327046.4982574,-1.0,-2.0,-30.0,0.0,1.0,1.0,0.0,0.0
1705327046.4982574,-5.0,-7.0,-7.0,10.0,-3.0,-3.0,-4.0,-2.0
1705327046.4982574,-2.0,10.0,42.0,-19.0,1.0,1.0,5.0,-2.0
1705327046.4982574,16.0,1.0,-19.0,11.0,3.0,0.0,1.0,28.0
1705327046.538251,-2.0,11.0,13.0,-9.0,-5.0,-2.0,-1.0,-3.0
1705327046.538251,4.0,-9.0,-23.0,-16.0,-3.0,-1.0,-1.0,-7.0
1705327046.538251,1.0,5.0,30.0,23.0,1.0,-1.0,-1.0,-2.0
1705327046.538251,-3.0,-3.0,-14.0,-4.0,-2.0,-4.0,-10.0,-17.0
1705327046.538251,0.0,1.0,-22.0,-8.0,0.0,5.0,4.0,72.0
1705327046.538251,-5.0,1.0,7.0,10.0,3.0,3.0,8.0,-42.0
1705327046.538251,-7.0,7.0,1.0,0.0,-5.0,-3.0,-10.0,-40.0
1705327046.538251,-2.0,-3.0,12.0,0.0,1.0,-4.0,-2.0,0.0
1705327046.5582526,-5.0,-1.0,20.0,3.0,3.0,-1.0,-6.0,-5.0
1705327046.5582526,1.0,2.0,-27.0,-10.0,-4.0,0.0,-7.0,12.0
1705327046.5582526,-3.0,-2.0,6.0,0.0,-2.0,1.0,-6.0,6.0
1705327046.5582526,-7.0,-22.0,-33.0,0.0,1.0,-3.0,2.0,-6.0
1705327046.5882509,2.0,7.0,22.0,-5.0,-5.0,-6.0,3.0,-33.0
1705327046.5882509,-12.0,-12.0,-56.0,-6.0,-1.0,-2.0,-17.0,18.0
1705327046.5882509,8.0,12.0,35.0,4.0,2.0,1.0,9.0,9.0
1705327046.5882509,-1.0,3.0,10.0,11.0,2.0,-1.0,11.0,-22.0
1705327046.598285,1.0,-7.0,10.0,-1.0,-4.0,-3.0,-6.0,-5.0
1705327046.598285,-6.0,28.0,5.0,-13.0,-2.0,-4.0,-4.0,-7.0
1705327046.598285,0.0,-40.0,22.0,16.0,10.0,2.0,-4.0,5.0
1705327046.598285,0.0,6.0,-16.0,-8.0,-4.0,1.0,-3.0,2.0
1705327046.6182907,5.0,9.0,17.0,1.0,-2.0,-3.0,-9.0,-7.0
1705327046.6182907,3.0,4.0,20.0,5.0,4.0,-1.0,8.0,3.0
1705327046.628288,-6.0,13.0,-16.0,-2.0,-4.0,3.0,7.0,15.0
1705327046.628288,0.0,1.0,21.0,3.0,0.0,-1.0,3.0,10.0
1705327046.6382854,-2.0,4.0,-25.0,-4.0,3.0,0.0,2.0,-13.0
1705327046.6382854,0.0,-14.0,11.0,2.0,-1.0,0.0,-4.0,7.0
1705327046.648288,4.0,0.0,-4.0,-5.0,-3.0,-3.0,-7.0,12.0
1705327046.648288,2.0,-15.0,22.0,4.0,2.0,6.0,8.0,-16.0
1705327046.6582901,-9.0,10.0,-25.0,-3.0,-2.0,-4.0,-9.0,-4.0
1705327046.6582901,3.0,-13.0,-4.0,0.0,1.0,1.0,24.0,0.0
1705327046.6582901,1.0,6.0,2.0,3.0,0.0,-2.0,-5.0,1.0
1705327046.6582901,1.0,-34.0,-21.0,-10.0,-4.0,0.0,-6.0,10.0
1705327046.6782527,6.0,0.0,4.0,1.0,-1.0,1.0,-4.0,-5.0
1705327046.6782527,-3.0,-8.0,-4.0,-3.0,0.0,-1.0,-6.0,-4.0
1705327046.6782527,-1.0,12.0,-12.0,0.0,-4.0,-4.0,-5.0,-16.0
1705327046.6782527,-7.0,12.0,24.0,-1.0,1.0,1.0,1.0,9.0
1705327046.698251,-14.0,-9.0,-2.0,2.0,0.0,3.0,4.0,1.0
1705327046.698251,3.0,-10.0,-8.0,-2.0,-5.0,-6.0,-11.0,-1.0
1705327046.698251,6.0,2.0,-15.0,-2.0,1.0,0.0,1.0,1.0
1705327046.698251,4.0,15.0,-7.0,-14.0,-2.0,1.0,-5.0,8.0
1705327046.7182536,2.0,-6.0,2.0,9.0,1.0,-2.0,18.0,-3.0
1705327046.7182536,-6.0,6.0,10.0,-1.0,1.0,0.0,0.0,3.0
1705327046.7182536,-2.0,-16.0,-18.0,-2.0,-3.0,-2.0,3.0,3.0
1705327046.7282536,-5.0,13.0,36.0,-5.0,-1.0,-4.0,-8.0,2.0
1705327046.7382514,-1.0,1.0,-7.0,-7.0,-1.0,0.0,-7.0,11.0
1705327046.7382514,1.0,-18.0,-11.0,1.0,-2.0,-1.0,-4.0,10.0
1705327046.7382514,-6.0,-9.0,-27.0,-4.0,-3.0,3.0,5.0,-37.0
1705327046.7382514,8.0,8.0,6.0,1.0,-2.0,-5.0,-6.0,13.0
1705327046.7582924,-3.0,14.0,-15.0,-10.0,-2.0,-4.0,-3.0,7.0
1705327046.7582924,-9.0,8.0,1.0,5.0,-1.0,-2.0,-5.0,-15.0
1705327046.7582924,3.0,-3.0,26.0,3.0,2.0,-1.0,-8.0,4.0
1705327046.7582924,5.0,14.0,-3.0,6.0,-3.0,-1.0,-1.0,2.0
1705327046.7782514,-17.0,3.0,-5.0,-6.0,2.0,5.0,3.0,-6.0
1705327046.7782514,3.0,20.0,10.0,0.0,2.0,-4.0,-4.0,-1.0
1705327046.7782514,3.0,16.0,9.0,7.0,-2.0,-2.0,0.0,-3.0
1705327046.7882543,5.0,2.0,5.0,0.0,3.0,1.0,2.0,-5.0
1705327046.798285,-3.0,-17.0,34.0,-5.0,-4.0,0.0,2.0,-1.0
1705327046.798285,-7.0,-15.0,-3.0,16.0,5.0,1.0,-2.0,3.0
1705327046.798285,-1.0,1.0,-11.0,-11.0,-6.0,-3.0,-5.0,-5.0
1705327046.798285,2.0,4.0,12.0,8.0,-3.0,-3.0,-4.0,-4.0
1705327046.8182518,4.0,3.0,17.0,-9.0,-3.0,-2.0,-4.0,-12.0
1705327046.8182518,0.0,-24.0,-36.0,-6.0,-3.0,1.0,3.0,6.0
1705327046.8182518,-8.0,8.0,23.0,9.0,6.0,1.0,1.0,3.0
1705327046.8182518,-7.0,36.0,-13.0,-17.0,-4.0,-1.0,-2.0,11.0
1705327046.8396218,0.0,18.0,-26.0,-2.0,-3.0,-4.0,-11.0,-78.0
1705327046.840585,-1.0,-19.0,41.0,-5.0,-4.0,0.0,5.0,5.0
1705327046.8476222,1.0,4.0,-25.0,0.0,2.0,2.0,1.0,13.0
1705327046.8476222,-3.0,-1.0,-2.0,4.0,-3.0,-5.0,-1.0,-6.0
1705327046.8608408,9.0,-6.0,3.0,2.0,0.0,0.0,6.0,21.0
1705327046.8608408,-1.0,14.0,0.0,-1.0,0.0,0.0,4.0,3.0
1705327046.8608408,-12.0,-18.0,-26.0,-8.0,-3.0,-4.0,-11.0,-23.0
1705327046.8608408,2.0,2.0,2.0,3.0,-3.0,0.0,3.0,-2.0
1705327046.8808458,2.0,-11.0,7.0,2.0,-3.0,-1.0,-2.0,9.0
1705327046.8808458,4.0,-25.0,-17.0,-12.0,-3.0,0.0,-4.0,-3.0
1705327046.8808458,1.0,28.0,22.0,4.0,0.0,-2.0,2.0,8.0
1705327046.8808458,8.0,12.0,8.0,8.0,3.0,2.0,-1.0,-5.0
1705327046.8908815,-24.0,-73.0,-17.0,7.0,-1.0,-6.0,-8.0,-1.0
1705327046.8908815,-3.0,28.0,-2.0,-12.0,1.0,3.0,4.0,-1.0
1705327046.900845,-3.0,-39.0,11.0,-12.0,-6.0,-6.0,-3.0,1.0
1705327046.900845,9.0,1.0,-10.0,0.0,-1.0,0.0,-3.0,-4.0
1705327046.9208841,17.0,56.0,16.0,8.0,8.0,7.0,4.0,10.0
1705327046.9208841,-14.0,2.0,5.0,5.0,-1.0,-2.0,-2.0,-5.0
1705327046.9208841,-5.0,-23.0,-15.0,-5.0,-1.0,-2.0,-7.0,-7.0
1705327046.9208841,-4.0,9.0,-3.0,-4.0,0.0,0.0,4.0,17.0
1705327046.9408896,-3.0,-12.0,-11.0,-2.0,-4.0,-5.0,-5.0,5.0
1705327046.9408896,11.0,-15.0,-4.0,-4.0,-3.0,-2.0,-1.0,-2.0
1705327046.9408896,8.0,12.0,2.0,1.0,-1.0,0.0,10.0,0.0
1705327046.9408896,-9.0,-21.0,-12.0,-4.0,0.0,-2.0,-1.0,1.0
1705327046.9608438,-3.0,0.0,-4.0,7.0,-1.0,2.0,1.0,7.0
1705327046.9608438,5.0,-2.0,13.0,3.0,5.0,1.0,-1.0,-5.0
1705327046.9608438,2.0,-10.0,-17.0,-12.0,-8.0,-3.0,-13.0,2.0
1705327046.9608438,2.0,-15.0,-20.0,12.0,3.0,-1.0,0.0,-7.0
1705327046.9908457,-7.0,11.0,-10.0,-4.0,-2.0,-1.0,2.0,3.0
1705327046.9908457,1.0,8.0,-4.0,-7.0,-4.0,2.0,1.0,2.0
1705327046.9908457,2.0,4.0,25.0,12.0,0.0,-1.0,-5.0,-5.0
1705327046.9908457,-9.0,-14.0,-45.0,-19.0,-1.0,-1.0,-4.0,-15.0
1705327047.0008442,7.0,-11.0,-3.0,-3.0,2.0,2.0,-1.0,2.0
1705327047.0008442,-16.0,4.0,12.0,1.0,-6.0,-8.0,-9.0,-3.0
1705327047.0008442,5.0,44.0,19.0,10.0,4.0,3.0,6.0,4.0
1705327047.0008442,8.0,-14.0,-10.0,0.0,-5.0,-3.0,-8.0,-6.0
1705327047.020893,-5.0,2.0,4.0,1.0,-2.0,0.0,3.0,6.0
1705327047.020893,4.0,-4.0,-24.0,-18.0,-4.0,-6.0,-15.0,3.0
1705327047.020893,-1.0,3.0,4.0,12.0,6.0,2.0,5.0,14.0
1705327047.020893,-17.0,-6.0,21.0,2.0,-5.0,-3.0,8.0,-8.0
1705327047.0408938,11.0,19.0,-16.0,-5.0,0.0,0.0,13.0,10.0
1705327047.0408938,1.0,5.0,7.0,0.0,1.0,-2.0,-5.0,6.0
1705327047.0408938,0.0,-2.0,-10.0,5.0,2.0,7.0,-4.0,-1.0
1705327047.0408938,-7.0,-23.0,-28.0,-15.0,-6.0,-4.0,9.0,6.0
1705327047.060896,6.0,-6.0,13.0,-1.0,2.0,-2.0,-8.0,-14.0
1705327047.060896,-2.0,12.0,9.0,14.0,-1.0,1.0,11.0,6.0
1705327047.060896,-5.0,-6.0,-48.0,-13.0,0.0,-8.0,-12.0,0.0
1705327047.060896,2.0,-8.0,27.0,1.0,4.0,10.0,-1.0,4.0
1705327047.0808942,1.0,-8.0,-5.0,-12.0,-5.0,-13.0,-20.0,-8.0
1705327047.0808942,-4.0,7.0,7.0,4.0,-2.0,-3.0,0.0,4.0
1705327047.0808942,7.0,-5.0,-1.0,-7.0,-1.0,-1.0,7.0,3.0
1705327047.0808942,-4.0,5.0,38.0,8.0,-1.0,-2.0,-6.0,-11.0
1705327047.1009278,0.0,-9.0,-20.0,1.0,1.0,5.0,5.0,-17.0
1705327047.1009278,-1.0,-17.0,-16.0,-7.0,-1.0,10.0,6.0,2.0
1705327047.1009278,-8.0,1.0,35.0,9.0,0.0,-5.0,-7.0,-14.0
1705327047.1009278,-8.0,-27.0,-79.0,-21.0,-5.0,-11.0,-10.0,2.0
1705327047.120905,-5.0,17.0,71.0,12.0,-1.0,-1.0,3.0,0.0
1705327047.120905,6.0,-36.0,-12.0,-2.0,0.0,-3.0,-4.0,-4.0
1705327047.120905,-8.0,5.0,3.0,-7.0,-3.0,3.0,14.0,-2.0
1705327047.120905,4.0,10.0,39.0,15.0,2.0,-3.0,-13.0,-10.0
1705327047.140898,-5.0,-19.0,-67.0,-7.0,-2.0,5.0,3.0,40.0
1705327047.140898,6.0,-11.0,4.0,-8.0,-2.0,-10.0,-14.0,-58.0
1705327047.140898,8.0,24.0,28.0,5.0,-4.0,6.0,9.0,9.0
1705327047.140898,-21.0,-7.0,-26.0,-10.0,2.0,-4.0,-5.0,-9.0
1705327047.1609347,8.0,2.0,21.0,13.0,10.0,4.0,5.0,2.0
1705327047.1609347,-2.0,1.0,17.0,15.0,-1.0,-1.0,0.0,4.0
1705327047.1609347,-8.0,-1.0,-18.0,-24.0,-7.0,-7.0,-7.0,-4.0
1705327047.1609347,8.0,9.0,61.0,10.0,-11.0,-1.0,2.0,-5.0
1705327047.1812675,-14.0,-17.0,-46.0,5.0,1.0,0.0,-2.0,-5.0
1705327047.1812675,12.0,46.0,3.0,-22.0,4.0,4.0,2.0,11.0
1705327047.1812675,8.0,3.0,2.0,9.0,3.0,0.0,0.0,-6.0
1705327047.1812675,-1.0,-21.0,-53.0,-3.0,-1.0,-1.0,2.0,8.0
1705327047.2008936,3.0,-40.0,1.0,-9.0,-9.0,-8.0,-6.0,-9.0
1705327047.2008936,-5.0,-3.0,-25.0,2.0,-3.0,-1.0,-1.0,1.0
1705327047.2008936,5.0,-2.0,-5.0,-5.0,-3.0,-5.0,-2.0,5.0
1705327047.2008936,-14.0,6.0,17.0,1.0,2.0,4.0,-8.0,-37.0
1705327047.220894,7.0,14.0,14.0,3.0,-3.0,-7.0,3.0,16.0
1705327047.220894,3.0,10.0,10.0,1.0,1.0,2.0,1.0,-10.0
1705327047.220894,-6.0,-14.0,-12.0,0.0,-1.0,1.0,12.0,3.0
1705327047.220894,10.0,5.0,7.0,5.0,4.0,0.0,-11.0,17.0
1705327047.2409294,-11.0,-28.0,-9.0,-9.0,-7.0,-1.0,-3.0,-21.0
1705327047.2409294,-5.0,-8.0,-8.0,2.0,0.0,3.0,10.0,11.0
1705327047.2409294,-2.0,-26.0,-1.0,1.0,1.0,-3.0,-12.0,-1.0
1705327047.2409294,16.0,-4.0,1.0,-4.0,-2.0,-4.0,8.0,17.0
1705327047.2608936,-3.0,14.0,-16.0,-4.0,-5.0,-2.0,-6.0,-5.0
1705327047.2608936,-8.0,-51.0,14.0,-8.0,-5.0,-2.0,-10.0,-1.0
1705327047.2608936,-12.0,13.0,-29.0,5.0,3.0,5.0,-4.0,-13.0
1705327047.2608936,3.0,-20.0,0.0,-7.0,-1.0,1.0,9.0,4.0
1705327047.2808938,21.0,20.0,14.0,-1.0,1.0,1.0,-7.0,-2.0
1705327047.2808938,1.0,5.0,2.0,11.0,2.0,-2.0,1.0,2.0
1705327047.2808938,-4.0,0.0,4.0,-7.0,-1.0,-2.0,3.0,-6.0
1705327047.2808938,-23.0,-8.0,-11.0,1.0,-4.0,-3.0,-2.0,-5.0
1705327047.3108957,-9.0,30.0,-14.0,-5.0,5.0,1.0,5.0,16.0
1705327047.3108957,16.0,8.0,-3.0,-8.0,-5.0,-3.0,-3.0,-2.0
1705327047.3108957,1.0,-2.0,-10.0,-1.0,-1.0,-1.0,-6.0,-1.0
1705327047.3108957,-5.0,7.0,-5.0,1.0,0.0,4.0,31.0,38.0
1705327047.3208954,-1.0,-10.0,10.0,2.0,0.0,4.0,-4.0,-24.0
1705327047.3208954,-10.0,5.0,11.0,2.0,-3.0,-10.0,4.0,5.0
1705327047.3208954,-3.0,14.0,-6.0,-2.0,-2.0,-1.0,0.0,12.0
1705327047.3208954,10.0,-5.0,6.0,5.0,-1.0,-1.0,-3.0,4.0
1705327047.3409312,8.0,37.0,22.0,-5.0,-3.0,1.0,3.0,4.0
1705327047.3409312,-14.0,-23.0,-2.0,2.0,1.0,0.0,-8.0,5.0
1705327047.3409312,2.0,-25.0,-24.0,-8.0,-4.0,-5.0,2.0,-3.0
1705327047.3409312,9.0,13.0,13.0,0.0,1.0,-2.0,-2.0,-13.0
1705327047.373242,-7.0,18.0,20.0,-4.0,-2.0,-2.0,2.0,-2.0
1705327047.373242,-7.0,9.0,-6.0,-8.0,-4.0,-3.0,-8.0,-9.0
1705327047.373242,0.0,-5.0,12.0,-7.0,-3.0,-2.0,-3.0,11.0
1705327047.373242,-1.0,7.0,-8.0,10.0,1.0,0.0,-7.0,-17.0
1705327047.388288,-4.0,-24.0,-50.0,-1.0,2.0,0.0,-18.0,-15.0
1705327047.388288,-1.0,1.0,5.0,-5.0,-2.0,5.0,25.0,23.0
1705327047.3892424,4.0,-1.0,18.0,1.0,-2.0,-7.0,-10.0,3.0
1705327047.3892424,-6.0,7.0,2.0,-10.0,-7.0,-2.0,-2.0,-8.0
1705327047.3937576,-4.0,-2.0,21.0,7.0,-1.0,-4.0,-10.0,0.0
1705327047.4037626,-4.0,5.0,-14.0,1.0,1.0,0.0,-7.0,-9.0
1705327047.4037626,6.0,-3.0,-18.0,-3.0,-1.0,1.0,-5.0,4.0
1705327047.4037626,-14.0,1.0,9.0,-4.0,-2.0,-1.0,1.0,13.0
1705327047.4337635,-4.0,-30.0,-1.0,1.0,0.0,-1.0,6.0,-9.0
1705327047.4337635,3.0,5.0,-24.0,-4.0,-2.0,-5.0,-9.0,10.0
1705327047.4337635,3.0,7.0,15.0,3.0,-1.0,0.0,2.0,-3.0
1705327047.4337635,-6.0,20.0,-1.0,-3.0,-1.0,0.0,-4.0,-7.0
1705327047.443763,-6.0,-8.0,-3.0,2.0,1.0,0.0,6.0,8.0
1705327047.443763,2.0,0.0,13.0,-4.0,-4.0,-5.0,-13.0,-10.0
1705327047.443763,-4.0,-2.0,6.0,5.0,0.0,1.0,-2.0,-11.0
1705327047.443763,5.0,8.0,-23.0,-8.0,0.0,3.0,11.0,-3.0
1705327047.4537628,-6.0,2.0,-2.0,-6.0,0.0,-2.0,1.0,7.0
1705327047.4637609,0.0,-11.0,-4.0,8.0,2.0,-2.0,1.0,-3.0
1705327047.4637609,3.0,0.0,25.0,0.0,-3.0,-3.0,-10.0,-6.0
1705327047.4637609,0.0,-9.0,-2.0,-11.0,-1.0,0.0,-15.0,-10.0
1705327047.4837623,2.0,-21.0,-19.0,-2.0,-4.0,-4.0,5.0,1.0
1705327047.4837623,8.0,33.0,17.0,5.0,3.0,9.0,3.0,16.0
1705327047.4837623,-19.0,-92.0,-17.0,1.0,-4.0,-8.0,0.0,-13.0
1705327047.4837623,1.0,34.0,11.0,2.0,-1.0,-1.0,2.0,-4.0
1705327047.5037603,20.0,12.0,10.0,0.0,-4.0,-5.0,-3.0,26.0
1705327047.5037603,-25.0,-2.0,9.0,8.0,5.0,4.0,-3.0,-6.0
1705327047.5037603,2.0,8.0,-42.0,-11.0,-2.0,4.0,0.0,-4.0
1705327047.5037603,7.0,-18.0,16.0,2.0,-1.0,-3.0,3.0,-5.0
1705327047.513764,-5.0,3.0,-12.0,-12.0,-5.0,-2.0,-3.0,16.0
1705327047.5237634,5.0,8.0,16.0,4.0,0.0,-1.0,8.0,-34.0
1705327047.5237634,5.0,24.0,12.0,5.0,3.0,0.0,15.0,6.0
1705327047.5237634,-2.0,-11.0,0.0,-3.0,0.0,0.0,-7.0,0.0
1705327047.5437603,-1.0,4.0,-10.0,1.0,-1.0,-2.0,1.0,-15.0
1705327047.5437603,5.0,-20.0,-16.0,0.0,-1.0,-5.0,-11.0,9.0
1705327047.5437603,-9.0,52.0,19.0,3.0,4.0,3.0,-7.0,-7.0
1705327047.5437603,-1.0,-4.0,-4.0,3.0,0.0,-1.0,19.0,6.0
1705327047.5637603,3.0,2.0,17.0,0.0,-2.0,-5.0,-17.0,1.0
1705327047.5637603,-3.0,-10.0,-11.0,-11.0,-3.0,-2.0,6.0,-5.0
1705327047.5637603,5.0,-12.0,3.0,17.0,-1.0,-3.0,2.0,8.0
1705327047.5637603,-9.0,-1.0,-12.0,-10.0,2.0,3.0,-5.0,29.0
1705327047.5837615,-2.0,-11.0,-39.0,-7.0,-3.0,-1.0,-13.0,-54.0
1705327047.5837615,-1.0,0.0,20.0,-2.0,-1.0,-3.0,11.0,1.0
1705327047.5837615,11.0,11.0,-3.0,-3.0,-1.0,3.0,13.0,7.0
1705327047.5837615,2.0,9.0,40.0,8.0,0.0,-6.0,-8.0,10.0
1705327047.6037626,-34.0,25.0,-22.0,-1.0,0.0,0.0,3.0,2.0
1705327047.6037626,1.0,-34.0,-15.0,-5.0,-3.0,1.0,-10.0,-1.0
1705327047.6037626,-2.0,3.0,-1.0,-3.0,0.0,-1.0,-7.0,-9.0
1705327047.6037626,-1.0,-20.0,-8.0,2.0,0.0,-2.0,-4.0,-22.0
1705327047.6237974,3.0,2.0,22.0,3.0,0.0,1.0,17.0,12.0
1705327047.6237974,-3.0,20.0,-1.0,-1.0,-4.0,-1.0,-3.0,-17.0
1705327047.6237974,-1.0,-3.0,-14.0,-7.0,-3.0,-3.0,-1.0,7.0
1705327047.6237974,0.0,-4.0,0.0,8.0,1.0,-3.0,-8.0,-13.0
1705327047.633795,2.0,-5.0,2.0,1.0,-1.0,-3.0,-6.0,1.0
1705327047.643764,1.0,7.0,-11.0,-8.0,0.0,7.0,9.0,7.0
1705327047.643764,-6.0,-12.0,-12.0,-8.0,-2.0,-4.0,-4.0,-16.0
1705327047.643764,3.0,-14.0,-8.0,-5.0,-3.0,-2.0,0.0,-10.0
1705327047.6637976,7.0,2.0,26.0,-12.0,-4.0,3.0,15.0,12.0
1705327047.6637976,-9.0,5.0,-3.0,27.0,8.0,2.0,-6.0,-13.0
1705327047.6637976,2.0,-25.0,-18.0,-14.0,-8.0,-7.0,1.0,8.0
1705327047.6637976,-10.0,13.0,0.0,-2.0,-2.0,0.0,-15.0,-28.0
1705327047.6837602,10.0,-32.0,-10.0,-6.0,-2.0,-1.0,1.0,13.0
1705327047.6837602,1.0,32.0,14.0,-6.0,-6.0,-4.0,-2.0,6.0
1705327047.6837602,5.0,-8.0,3.0,-4.0,-2.0,2.0,11.0,5.0
1705327047.6837602,0.0,2.0,-1.0,10.0,0.0,-4.0,3.0,-1.0
1705327047.703761,2.0,-6.0,0.0,-1.0,-1.0,1.0,-8.0,-6.0
1705327047.703761,2.0,37.0,-11.0,-9.0,-1.0,-1.0,1.0,10.0
1705327047.703761,-2.0,2.0,20.0,7.0,3.0,2.0,-6.0,-9.0
1705327047.703761,5.0,-20.0,-15.0,1.0,-10.0,-8.0,-7.0,6.0
1705327047.7237604,-9.0,24.0,14.0,7.0,13.0,7.0,3.0,-5.0
1705327047.7237604,1.0,-10.0,19.0,1.0,-9.0,-13.0,-13.0,-4.0
1705327047.7237604,-20.0,-36.0,-56.0,-14.0,-1.0,-3.0,-7.0,-6.0
1705327047.7237604,5.0,0.0,20.0,7.0,-2.0,1.0,-1.0,5.0
1705327047.7437625,1.0,-15.0,-1.0,6.0,-2.0,2.0,7.0,-8.0
1705327047.7437625,8.0,-10.0,-6.0,1.0,-7.0,-11.0,-10.0,12.0
1705327047.7437625,-10.0,29.0,17.0,-14.0,6.0,6.0,2.0,13.0
1705327047.7437625,-13.0,-16.0,-24.0,10.0,2.0,3.0,-3.0,-27.0
1705327047.763761,2.0,-61.0,-18.0,-28.0,-9.0,-8.0,-7.0,-1.0
1705327047.763761,6.0,16.0,28.0,24.0,8.0,7.0,5.0,6.0
1705327047.763761,-9.0,-9.0,-11.0,3.0,-5.0,-3.0,-4.0,4.0
1705327047.763761,-2.0,13.0,-11.0,3.0,5.0,3.0,2.0,12.0
1705327047.7837622,-5.0,21.0,6.0,-15.0,-9.0,-7.0,-1.0,-10.0
1705327047.7837622,0.0,0.0,12.0,-10.0,3.0,3.0,2.0,-14.0
1705327047.7837622,7.0,13.0,-14.0,6.0,-1.0,-3.0,-1.0,19.0
1705327047.7837622,3.0,15.0,21.0,4.0,-1.0,0.0,3.0,22.0
1705327047.8037605,-18.0,-32.0,-31.0,-2.0,4.0,3.0,-23.0,-37.0
1705327047.8037605,12.0,-3.0,0.0,-9.0,-6.0,-5.0,15.0,14.0
1705327047.8037605,0.0,13.0,49.0,17.0,4.0,0.0,-2.0,4.0
1705327047.8037605,-9.0,-8.0,2.0,-14.0,-3.0,2.0,10.0,-70.0
1705327047.823761,11.0,29.0,24.0,16.0,0.0,-2.0,1.0,68.0
1705327047.823761,-7.0,-22.0,-52.0,-10.0,0.0,1.0,-22.0,-16.0
1705327047.8337636,2.0,-8.0,29.0,3.0,-1.0,3.0,-9.0,-2.0
1705327047.8337636,8.0,-4.0,-12.0,-10.0,-2.0,-3.0,16.0,28.0
1705327047.8437626,-3.0,14.0,35.0,7.0,-3.0,0.0,3.0,3.0
1705327047.8437626,-5.0,-24.0,-18.0,4.0,3.0,6.0,-4.0,1.0
1705327047.8437626,6.0,40.0,-4.0,-1.0,-4.0,-3.0,10.0,0.0
1705327047.8437626,1.0,1.0,-2.0,-8.0,-3.0,1.0,-21.0,11.0
1705327047.8637993,-5.0,7.0,-16.0,3.0,-1.0,-1.0,7.0,2.0
1705327047.8637993,4.0,-16.0,-19.0,0.0,-2.0,-4.0,-2.0,-11.0
1705327047.8637993,0.0,-8.0,14.0,-3.0,-1.0,-3.0,-18.0,-7.0
1705327047.8637993,-10.0,8.0,0.0,-5.0,-3.0,-4.0,17.0,-32.0
1705327047.8737612,12.0,10.0,-9.0,3.0,-1.0,3.0,0.0,-12.0
1705327047.8737612,-19.0,13.0,17.0,-4.0,0.0,-1.0,-5.0,0.0
1705327047.8910797,-4.0,-9.0,1.0,3.0,-1.0,3.0,4.0,-9.0
1705327047.8910797,7.0,9.0,-27.0,1.0,3.0,-1.0,-12.0,2.0
1705327047.9061275,9.0,10.0,33.0,-5.0,-5.0,-9.0,-1.0,9.0
1705327047.9061275,-5.0,-26.0,-7.0,-4.0,-1.0,4.0,18.0,1.0
1705327047.9061275,-5.0,15.0,-1.0,-7.0,-4.0,-5.0,-9.0,-16.0
1705327047.9070845,10.0,-3.0,16.0,-2.0,-3.0,0.0,-4.0,25.0
1705327047.9201875,-2.0,-6.0,-34.0,2.0,-1.0,-1.0,1.0,-12.0
1705327047.9201875,1.0,-29.0,-1.0,-4.0,-4.0,-5.0,-8.0,0.0
1705327047.9201875,3.0,12.0,-8.0,3.0,1.0,0.0,1.0,0.0
1705327047.9201875,-6.0,-6.0,0.0,-11.0,-1.0,0.0,-8.0,-1.0
1705327047.9402308,2.0,13.0,6.0,5.0,1.0,-2.0,3.0,-10.0
1705327047.9402308,-5.0,-21.0,19.0,7.0,1.0,-1.0,-3.0,-9.0
1705327047.9502406,-7.0,-8.0,18.0,5.0,-1.0,0.0,3.0,1.0
1705327047.9502406,0.0,-10.0,-32.0,-8.0,-4.0,-3.0,-22.0,-2.0
1705327047.9602013,-2.0,-5.0,8.0,1.0,0.0,0.0,15.0,-23.0
1705327047.9602013,5.0,24.0,-2.0,-2.0,-3.0,-2.0,-8.0,33.0
1705327047.9602013,1.0,14.0,-3.0,1.0,0.0,-1.0,4.0,-9.0
1705327047.9602013,-12.0,-24.0,7.0,-9.0,-4.0,-5.0,-9.0,11.0
1705327047.9801993,-9.0,-7.0,-7.0,3.0,1.0,0.0,-17.0,-37.0
1705327047.9801993,9.0,12.0,-9.0,-3.0,0.0,2.0,3.0,-13.0
1705327047.9801993,2.0,-12.0,-29.0,-4.0,-2.0,-4.0,-1.0,-2.0
1705327047.9801993,13.0,15.0,17.0,6.0,3.0,1.0,0.0,1.0
1705327048.0002425,-1.0,1.0,0.0,2.0,1.0,0.0,13.0,44.0
1705327048.0002425,1.0,-2.0,9.0,-6.0,1.0,-1.0,3.0,-4.0
1705327048.0102036,-3.0,-13.0,-8.0,-2.0,-5.0,-6.0,-17.0,4.0
1705327048.0102036,-5.0,-3.0,4.0,-1.0,-1.0,4.0,5.0,2.0
1705327048.020202,3.0,34.0,14.0,3.0,-2.0,1.0,10.0,16.0
1705327048.020202,-9.0,-15.0,0.0,2.0,-1.0,0.0,-8.0,5.0
1705327048.020202,1.0,10.0,6.0,-4.0,2.0,5.0,8.0,0.0
1705327048.020202,5.0,0.0,2.0,3.0,-1.0,-3.0,-13.0,-8.0
1705327048.0402048,4.0,-28.0,-23.0,-8.0,-1.0,-1.0,-5.0,22.0
1705327048.0402048,-10.0,16.0,2.0,0.0,-4.0,3.0,18.0,-11.0
1705327048.0402048,-5.0,1.0,5.0,2.0,1.0,-4.0,1.0,5.0
1705327048.0402048,-5.0,-28.0,-2.0,-3.0,-3.0,0.0,7.0,2.0
1705327048.0601993,7.0,30.0,7.0,2.0,-3.0,-6.0,-26.0,-58.0
1705327048.0601993,-10.0,6.0,-4.0,1.0,1.0,4.0,14.0,9.0
1705327048.0702045,2.0,-19.0,-1.0,0.0,0.0,6.0,13.0,7.0
1705327048.0702045,6.0,26.0,-6.0,-8.0,-7.0,-10.0,-7.0,-10.0
1705327048.0802357,-10.0,27.0,7.0,2.0,-1.0,3.0,-1.0,-3.0
1705327048.0802357,2.0,-83.0,-12.0,2.0,1.0,-3.0,-14.0,-4.0
1705327048.0802357,5.0,4.0,3.0,5.0,3.0,1.0,9.0,9.0
1705327048.0802357,-10.0,16.0,-26.0,4.0,2.0,1.0,-6.0,1.0
1705327048.1002362,-3.0,-43.0,-9.0,-17.0,-3.0,0.0,7.0,25.0
1705327048.1002362,3.0,11.0,-6.0,-6.0,-4.0,-4.0,-5.0,-4.0
1705327048.1002362,2.0,-9.0,10.0,-3.0,-2.0,2.0,-1.0,7.0
1705327048.1002362,-5.0,-25.0,-3.0,9.0,5.0,2.0,5.0,1.0
1705327048.1202004,0.0,9.0,9.0,-2.0,-3.0,-3.0,1.0,7.0
1705327048.1202004,-10.0,9.0,-3.0,-4.0,-6.0,0.0,-7.0,1.0
1705327048.1302364,1.0,-38.0,-20.0,-10.0,2.0,0.0,-3.0,-6.0
1705327048.1302364,18.0,52.0,19.0,18.0,-4.0,-1.0,1.0,15.0
1705327048.1401997,-19.0,-42.0,-17.0,-15.0,1.0,-4.0,-8.0,-9.0
1705327048.1401997,1.0,12.0,2.0,0.0,0.0,3.0,10.0,10.0
1705327048.1401997,-8.0,29.0,13.0,-2.0,-3.0,-4.0,-8.0,-19.0
1705327048.1401997,-4.0,-1.0,-14.0,-23.0,-5.0,-1.0,10.0,-1.0
1705327048.160199,-6.0,0.0,3.0,7.0,-4.0,-1.0,-18.0,0.0
1705327048.160199,9.0,6.0,-24.0,-13.0,-8.0,-8.0,-4.0,-6.0
1705327048.160199,-1.0,5.0,43.0,7.0,3.0,-1.0,0.0,-1.0
1705327048.160199,3.0,16.0,-1.0,2.0,2.0,2.0,6.0,-5.0
1705327048.180204,-8.0,-12.0,3.0,-9.0,-7.0,-4.0,-1.0,15.0
1705327048.180204,0.0,-1.0,7.0,-8.0,-2.0,-2.0,-2.0,3.0
1705327048.1902006,3.0,-12.0,-23.0,6.0,-4.0,-2.0,-9.0,-58.0
1705327048.1902006,0.0,13.0,17.0,4.0,1.0,-1.0,4.0,22.0
1705327048.210201,-2.0,-75.0,1.0,-2.0,10.0,7.0,6.0,-2.0
1705327048.210201,-2.0,42.0,-6.0,16.0,2.0,-3.0,-4.0,-6.0
1705327048.210201,-2.0,5.0,27.0,-5.0,0.0,-2.0,3.0,4.0
1705327048.210201,0.0,-12.0,-22.0,-8.0,-3.0,-6.0,-3.0,-5.0
1705327048.220201,2.0,17.0,56.0,4.0,-7.0,-1.0,-6.0,19.0
1705327048.220201,6.0,-4.0,8.0,-1.0,1.0,2.0,-2.0,-12.0
1705327048.220201,-3.0,-2.0,-20.0,-6.0,0.0,0.0,15.0,36.0
1705327048.220201,-6.0,-18.0,11.0,-1.0,1.0,-1.0,-24.0,-56.0
1705327048.2502017,0.0,17.0,-1.0,2.0,-7.0,-5.0,19.0,-2.0
1705327048.2502017,2.0,-2.0,-15.0,-9.0,1.0,-2.0,-14.0,6.0
1705327048.2502017,5.0,10.0,-10.0,-4.0,2.0,5.0,-9.0,13.0
1705327048.2502017,-3.0,-3.0,18.0,2.0,-1.0,-4.0,-1.0,3.0
1705327048.2702012,6.0,11.0,-8.0,16.0,4.0,2.0,-7.0,5.0
1705327048.2702012,-7.0,-1.0,7.0,1.0,1.0,2.0,8.0,-8.0
1705327048.2702012,5.0,-8.0,-9.0,-9.0,-5.0,-4.0,-9.0,-13.0
1705327048.2702012,-1.0,-13.0,1.0,9.0,-1.0,-1.0,0.0,12.0
1705327048.2802014,-9.0,16.0,-5.0,-6.0,-5.0,-5.0,2.0,-16.0
1705327048.2802014,-14.0,-23.0,-19.0,6.0,7.0,-1.0,-6.0,1.0
1705327048.2802014,-10.0,3.0,-9.0,-4.0,-3.0,-1.0,-1.0,-7.0
1705327048.2802014,-2.0,-44.0,-12.0,-7.0,0.0,0.0,5.0,-2.0
1705327048.3102329,0.0,20.0,-6.0,2.0,0.0,-4.0,-4.0,-9.0
1705327048.3102329,14.0,-61.0,-6.0,-7.0,-5.0,-3.0,-5.0,8.0
1705327048.3102329,-13.0,44.0,11.0,5.0,-2.0,0.0,8.0,23.0
1705327048.3102329,-3.0,0.0,-47.0,-14.0,-4.0,-2.0,-7.0,10.0
1705327048.3301995,2.0,11.0,-8.0,-5.0,3.0,5.0,16.0,-12.0
1705327048.3301995,-9.0,-20.0,-27.0,-5.0,-1.0,-5.0,-10.0,-46.0
1705327048.3301995,9.0,11.0,11.0,5.0,-2.0,-5.0,-8.0,23.0
1705327048.3301995,0.0,5.0,13.0,9.0,1.0,0.0,9.0,4.0
1705327048.3402083,4.0,4.0,-11.0,-3.0,4.0,5.0,-1.0,8.0
1705327048.3402083,3.0,28.0,17.0,-1.0,-2.0,-4.0,2.0,13.0
1705327048.3402083,0.0,-9.0,-10.0,3.0,-4.0,-2.0,-6.0,-15.0
1705327048.3402083,-8.0,1.0,-18.0,-34.0,-2.0,2.0,-21.0,-1.0
1705327048.370199,3.0,-7.0,-2.0,18.0,3.0,-2.0,-2.0,-2.0
1705327048.370199,-6.0,25.0,36.0,5.0,-2.0,4.0,15.0,-1.0
1705327048.370199,3.0,-22.0,-35.0,-2.0,0.0,-1.0,1.0,-2.0
1705327048.370199,3.0,-14.0,4.0,-3.0,-6.0,0.0,9.0,41.0
1705327048.3802001,-11.0,-8.0,-4.0,-5.0,-4.0,-3.0,-21.0,-51.0
1705327048.3802001,7.0,20.0,11.0,0.0,2.0,0.0,0.0,12.0
1705327048.3802001,-3.0,3.0,11.0,3.0,2.0,0.0,0.0,-16.0
1705327048.3802001,-5.0,-2.0,17.0,-1.0,-2.0,-3.0,8.0,-4.0
1705327048.4005506,7.0,12.0,-10.0,-11.0,-2.0,-3.0,-3.0,10.0
1705327048.4005506,-4.0,22.0,2.0,17.0,2.0,2.0,4.0,2.0
1705327048.4005506,1.0,-21.0,-14.0,-8.0,-3.0,1.0,0.0,-6.0
1705327048.4005506,5.0,6.0,11.0,12.0,-1.0,2.0,1.0,0.0
1705327048.4406004,3.0,-24.0,-6.0,-21.0,1.0,-1.0,0.0,1.0
1705327048.4406004,-1.0,34.0,9.0,10.0,-1.0,-5.0,-3.0,4.0
1705327048.4406004,2.0,-6.0,-6.0,8.0,1.0,-1.0,4.0,9.0
1705327048.4406004,0.0,-19.0,-31.0,-10.0,0.0,3.0,8.0,-7.0
1705327048.4425666,-12.0,-23.0,-5.0,3.0,-8.0,-8.0,-29.0,-36.0
1705327048.4425666,-4.0,-7.0,10.0,-8.0,-3.0,-4.0,-6.0,2.0
1705327048.4425666,-4.0,-3.0,-6.0,-15.0,-6.0,-1.0,-2.0,7.0
1705327048.4425666,4.0,17.0,19.0,14.0,5.0,1.0,1.0,-15.0
1705327048.4625943,2.0,9.0,-16.0,4.0,1.0,4.0,9.0,9.0
1705327048.4625943,14.0,2.0,-9.0,2.0,0.0,3.0,1.0,12.0
1705327048.4625943,-16.0,-33.0,4.0,-20.0,-12.0,-11.0,-10.0,-16.0
1705327048.4625943,-16.0,-35.0,-7.0,-6.0,6.0,1.0,-8.0,-8.0
1705327048.4925685,7.0,37.0,5.0,13.0,4.0,2.0,7.0,12.0
1705327048.4925685,-1.0,-1.0,0.0,-5.0,-5.0,0.0,-3.0,0.0
1705327048.4925685,-1.0,-10.0,11.0,4.0,-4.0,-2.0,-1.0,1.0
1705327048.4925685,11.0,25.0,12.0,-8.0,0.0,-1.0,3.0,-8.0
1705327048.5025687,-2.0,-21.0,-21.0,-1.0,-1.0,-2.0,3.0,18.0
1705327048.5025687,1.0,3.0,16.0,-4.0,2.0,-2.0,-1.0,-13.0
1705327048.5025687,1.0,1.0,-29.0,-4.0,-1.0,0.0,-1.0,-6.0
1705327048.5025687,-7.0,-17.0,-9.0,-8.0,-1.0,-4.0,3.0,-2.0
1705327048.5225732,-1.0,8.0,16.0,7.0,4.0,2.0,-22.0,9.0
1705327048.5225732,-1.0,-1.0,-1.0,11.0,-1.0,1.0,-7.0,7.0
1705327048.5225732,0.0,0.0,2.0,-2.0,1.0,4.0,0.0,-11.0
1705327048.5225732,1.0,8.0,-22.0,6.0,-4.0,-4.0,4.0,-4.0
1705327048.542567,2.0,8.0,22.0,3.0,-2.0,0.0,6.0,2.0
1705327048.542567,-5.0,-7.0,-5.0,-18.0,0.0,2.0,4.0,4.0
1705327048.542567,-3.0,-8.0,-8.0,-1.0,0.0,-6.0,-16.0,-3.0
1705327048.542567,-1.0,13.0,22.0,4.0,0.0,3.0,-4.0,-4.0
1705327048.5625687,2.0,-10.0,-8.0,4.0,3.0,-1.0,3.0,3.0
1705327048.5625687,-3.0,1.0,-12.0,-8.0,-5.0,-3.0,-2.0,4.0
1705327048.5625687,0.0,18.0,16.0,12.0,4.0,3.0,19.0,18.0
1705327048.5625687,0.0,4.0,21.0,5.0,0.0,-1.0,-5.0,-7.0
1705327048.5825746,3.0,-4.0,-11.0,0.0,2.0,3.0,-3.0,1.0
1705327048.5825746,9.0,-3.0,0.0,-1.0,-2.0,-4.0,10.0,14.0
1705327048.5825746,-13.0,-1.0,-6.0,-7.0,-3.0,-9.0,-14.0,-19.0
1705327048.5825746,9.0,0.0,-6.0,3.0,-2.0,-3.0,-16.0,5.0
1705327048.6025689,-17.0,-4.0,12.0,-2.0,-1.0,2.0,12.0,-1.0
1705327048.6025689,-9.0,-3.0,-5.0,-5.0,1.0,8.0,33.0,10.0
1705327048.6025689,10.0,-8.0,-7.0,8.0,2.0,-3.0,-69.0,-49.0
1705327048.6025689,-7.0,6.0,9.0,-1.0,-4.0,-10.0,-11.0,-13.0
1705327048.6226077,-1.0,-3.0,-8.0,11.0,-2.0,-6.0,-1.0,-8.0
1705327048.6226077,0.0,-19.0,-20.0,-31.0,-3.0,-1.0,-5.0,-3.0
1705327048.6226077,5.0,5.0,-11.0,6.0,1.0,7.0,33.0,26.0
1705327048.6226077,-6.0,-2.0,3.0,4.0,4.0,3.0,-3.0,-7.0
1705327048.6425717,9.0,8.0,6.0,-3.0,-3.0,-2.0,-1.0,2.0
1705327048.6425717,-1.0,17.0,9.0,6.0,-4.0,-4.0,1.0,2.0
1705327048.6425717,0.0,1.0,-6.0,-10.0,-3.0,1.0,5.0,-2.0
1705327048.6425717,2.0,-24.0,1.0,2.0,-1.0,1.0,-6.0,-5.0
1705327048.6625679,-14.0,35.0,-28.0,0.0,-3.0,-1.0,14.0,-1.0
1705327048.6625679,0.0,-21.0,19.0,0.0,-4.0,-7.0,-18.0,16.0
1705327048.6625679,-3.0,-16.0,-16.0,5.0,5.0,2.0,3.0,1.0
1705327048.6625679,-2.0,9.0,-15.0,-12.0,-8.0,-3.0,6.0,0.0
1705327048.6825693,-3.0,10.0,11.0,-7.0,-5.0,-4.0,1.0,5.0
1705327048.6825693,-3.0,-10.0,-20.0,17.0,8.0,3.0,-2.0,-23.0
1705327048.6825693,5.0,2.0,12.0,10.0,6.0,1.0,11.0,4.0
1705327048.6825693,0.0,5.0,7.0,-6.0,1.0,3.0,-5.0,31.0
1705327048.7025688,3.0,-33.0,-15.0,-13.0,-4.0,-2.0,14.0,-52.0
1705327048.7025688,-6.0,2.0,-1.0,-6.0,-8.0,-3.0,-4.0,-17.0
1705327048.7025688,1.0,4.0,44.0,8.0,0.0,-7.0,0.0,7.0
1705327048.7025688,2.0,-3.0,-23.0,-4.0,1.0,4.0,17.0,1.0
1705327048.7325685,-1.0,-2.0,-21.0,-7.0,-2.0,-2.0,-18.0,-8.0
1705327048.7325685,5.0,-4.0,19.0,8.0,5.0,3.0,-4.0,20.0
1705327048.7325685,-11.0,5.0,-17.0,-4.0,-3.0,-6.0,-4.0,-49.0
1705327048.7325685,-6.0,-5.0,6.0,23.0,1.0,1.0,-3.0,-9.0
1705327048.7425692,2.0,-17.0,0.0,-19.0,1.0,-4.0,-13.0,1.0
1705327048.7425692,-1.0,3.0,-3.0,1.0,-2.0,2.0,8.0,-9.0
1705327048.7525697,7.0,-2.0,12.0,-1.0,0.0,1.0,3.0,30.0
1705327048.7525697,5.0,13.0,-8.0,-7.0,-2.0,-4.0,-5.0,-7.0
1705327048.762569,-1.0,-7.0,12.0,13.0,1.0,-1.0,-1.0,9.0
1705327048.762569,-6.0,26.0,-5.0,18.0,14.0,5.0,1.0,-2.0
1705327048.762569,-15.0,-38.0,-12.0,-11.0,-3.0,-2.0,-16.0,9.0
1705327048.762569,2.0,3.0,10.0,5.0,-7.0,-7.0,5.0,5.0
1705327048.7825866,6.0,-2.0,-10.0,-17.0,-8.0,0.0,-5.0,8.0
1705327048.7825866,-15.0,10.0,6.0,-12.0,-3.0,-3.0,1.0,0.0
1705327048.7825866,20.0,19.0,6.0,14.0,1.0,6.0,5.0,-9.0
1705327048.7825866,3.0,-1.0,-11.0,-20.0,9.0,0.0,-3.0,10.0
1705327048.802592,-19.0,-10.0,-4.0,9.0,-5.0,-5.0,5.0,2.0
1705327048.802592,5.0,5.0,4.0,1.0,-3.0,-1.0,5.0,-12.0
1705327048.8125684,2.0,7.0,-2.0,-8.0,-2.0,1.0,5.0,7.0
1705327048.8125684,-8.0,0.0,11.0,6.0,2.0,3.0,-8.0,-7.0
1705327048.8225715,7.0,4.0,-1.0,-4.0,1.0,2.0,-4.0,7.0
1705327048.8225715,5.0,-15.0,-9.0,-9.0,-5.0,-7.0,2.0,-11.0
1705327048.8225715,-2.0,14.0,-16.0,4.0,1.0,5.0,13.0,-4.0
1705327048.8225715,3.0,14.0,21.0,-4.0,0.0,-2.0,-2.0,1.0
1705327048.8426104,-1.0,-16.0,-12.0,1.0,1.0,3.0,-1.0,-4.0
1705327048.8426104,-1.0,-9.0,-33.0,0.0,0.0,-2.0,-5.0,-5.0
1705327048.8426104,-3.0,-9.0,26.0,-10.0,-4.0,-6.0,-6.0,50.0
1705327048.8426104,-14.0,18.0,6.0,2.0,-4.0,0.0,10.0,-61.0
1705327048.8626037,1.0,0.0,6.0,9.0,-1.0,-1.0,-13.0,11.0
1705327048.8626037,0.0,-6.0,-25.0,-10.0,-5.0,-1.0,-6.0,-10.0
1705327048.8726065,-3.0,27.0,2.0,-9.0,-1.0,-2.0,0.0,9.0
1705327048.8726065,-2.0,-27.0,8.0,11.0,4.0,3.0,-1.0,14.0
1705327048.892569,-1.0,1.0,5.0,4.0,0.0,2.0,27.0,2.0
1705327048.892569,0.0,-2.0,12.0,-3.0,-4.0,-11.0,-15.0,-7.0
1705327048.892569,-1.0,1.0,-6.0,-9.0,0.0,-2.0,-11.0,-9.0
1705327048.892569,-4.0,-13.0,-10.0,15.0,4.0,1.0,4.0,5.0
1705327048.9025695,6.0,8.0,2.0,-4.0,1.0,-1.0,-7.0,-14.0
1705327048.9025695,-5.0,7.0,-1.0,-11.0,-3.0,1.0,-2.0,10.0
1705327048.9025695,-2.0,-10.0,-11.0,3.0,-3.0,1.0,6.0,-10.0
1705327048.9025695,5.0,8.0,9.0,-1.0,1.0,1.0,3.0,5.0
1705327048.922571,0.0,4.0,17.0,2.0,0.0,-3.0,-2.0,12.0
1705327048.922571,0.0,4.0,-4.0,3.0,8.0,2.0,-1.0,-4.0
1705327048.932569,-1.0,-17.0,1.0,-4.0,-6.0,-1.0,-2.0,-17.0
1705327048.932569,0.0,31.0,31.0,-6.0,-3.0,-3.0,-1.0,4.0
1705327048.955832,-1.0,-13.0,2.0,-10.0,-2.0,-1.0,-2.0,4.0
1705327048.955832,-1.0,3.0,25.0,20.0,-2.0,-2.0,-4.0,-1.0
1705327048.956832,1.0,17.0,35.0,16.0,3.0,-1.0,1.0,-8.0
1705327048.956832,-5.0,-47.0,-76.0,-7.0,-1.0,4.0,11.0,-2.0
1705327048.9708328,-3.0,3.0,4.0,-9.0,-4.0,-3.0,-3.0,62.0
1705327048.9708328,7.0,6.0,-7.0,-8.0,-2.0,-5.0,-11.0,-23.0
1705327048.9718318,0.0,-5.0,17.0,3.0,-1.0,6.0,5.0,11.0
1705327048.9718318,-1.0,1.0,-14.0,-1.0,-4.0,-3.0,5.0,-7.0
1705327048.9855118,1.0,6.0,5.0,1.0,0.0,1.0,1.0,2.0
1705327048.9855118,2.0,-15.0,12.0,-2.0,1.0,5.0,-2.0,6.0
1705327048.9855118,-13.0,-9.0,-25.0,-10.0,-5.0,-9.0,-8.0,-3.0
1705327048.9855118,8.0,9.0,-3.0,2.0,-2.0,-3.0,-9.0,10.0
1705327049.0055103,2.0,-3.0,-10.0,8.0,0.0,-2.0,0.0,-22.0
1705327049.0055103,-20.0,-7.0,-1.0,-14.0,-5.0,-3.0,-7.0,0.0
1705327049.0055103,-5.0,1.0,-19.0,2.0,2.0,0.0,0.0,-16.0
1705327049.0055103,-1.0,-5.0,4.0,-17.0,-6.0,-3.0,-1.0,3.0
1705327049.0255067,9.0,2.0,25.0,10.0,5.0,-2.0,-2.0,-12.0
1705327049.0255067,8.0,17.0,-25.0,-5.0,-3.0,1.0,3.0,4.0
1705327049.0255067,-6.0,-63.0,-20.0,-4.0,-4.0,-4.0,0.0,1.0
1705327049.0255067,-9.0,-6.0,-20.0,-2.0,-5.0,-2.0,-5.0,2.0
1705327049.045507,-3.0,-19.0,31.0,2.0,2.0,-8.0,-12.0,-2.0
1705327049.045507,4.0,29.0,-5.0,1.0,0.0,10.0,8.0,1.0
1705327049.045507,-5.0,-6.0,-35.0,-6.0,-3.0,-8.0,-3.0,-36.0
1705327049.045507,3.0,25.0,39.0,8.0,0.0,3.0,-3.0,8.0
1705327049.0655088,-1.0,-10.0,-36.0,-7.0,2.0,3.0,10.0,-7.0
1705327049.0655088,-7.0,-9.0,23.0,1.0,-3.0,-4.0,-8.0,-2.0
1705327049.0655088,0.0,19.0,8.0,-3.0,0.0,4.0,9.0,17.0
1705327049.0655088,2.0,3.0,9.0,2.0,1.0,0.0,1.0,-2.0
1705327049.0955076,2.0,21.0,-10.0,-4.0,-1.0,1.0,-9.0,2.0
1705327049.0955076,-4.0,-15.0,-11.0,0.0,-1.0,-2.0,12.0,3.0
1705327049.0955076,-6.0,10.0,12.0,2.0,2.0,4.0,2.0,10.0
1705327049.0955076,9.0,-27.0,-17.0,-6.0,-3.0,-5.0,4.0,7.0
1705327049.0955076,-12.0,3.0,-3.0,-8.0,-2.0,6.0,-5.0,-5.0
1705327049.1055074,2.0,-27.0,5.0,2.0,-6.0,-7.0,-1.0,-3.0
1705327049.1055074,-17.0,-22.0,-16.0,13.0,7.0,-2.0,-19.0,-15.0
1705327049.1055074,-4.0,3.0,5.0,19.0,4.0,1.0,-9.0,-12.0
1705327049.1255064,-1.0,-1.0,-18.0,-30.0,-1.0,-2.0,4.0,-7.0
1705327049.1255064,14.0,22.0,25.0,15.0,-5.0,-4.0,1.0,6.0
1705327049.1255064,9.0,10.0,7.0,51.0,7.0,1.0,4.0,-8.0
1705327049.1255064,-7.0,-3.0,4.0,-37.0,-3.0,0.0,-2.0,-1.0
1705327049.1555057,-3.0,-60.0,-23.0,11.0,2.0,0.0,2.0,-9.0
1705327049.1555057,-6.0,38.0,-14.0,-20.0,-7.0,-3.0,-5.0,5.0
1705327049.1555057,-2.0,-41.0,-41.0,-27.0,-12.0,-5.0,-3.0,1.0
1705327049.1555057,2.0,11.0,55.0,20.0,-1.0,-6.0,-3.0,13.0
1705327049.1655068,-1.0,27.0,24.0,-5.0,-4.0,0.0,-1.0,-20.0
1705327049.1655068,1.0,-21.0,3.0,-3.0,2.0,-4.0,-5.0,2.0
1705327049.1655068,12.0,33.0,27.0,6.0,5.0,12.0,14.0,26.0
1705327049.1655068,-10.0,-7.0,-10.0,-7.0,-5.0,-10.0,-13.0,-60.0
1705327049.1855073,-4.0,14.0,-5.0,9.0,1.0,4.0,9.0,4.0
1705327049.1855073,-3.0,-15.0,11.0,5.0,5.0,1.0,-5.0,-6.0
1705327049.1855073,2.0,22.0,30.0,-12.0,-4.0,1.0,-5.0,13.0
1705327049.1855073,-1.0,-8.0,-45.0,-24.0,-3.0,4.0,2.0,20.0
1705327049.205507,-1.0,-4.0,14.0,15.0,-2.0,-6.0,-6.0,-15.0
1705327049.205507,-1.0,10.0,-17.0,22.0,9.0,4.0,-10.0,-1.0
1705327049.205507,0.0,-12.0,-10.0,-29.0,-5.0,-3.0,9.0,2.0
1705327049.205507,-3.0,7.0,-11.0,3.0,-1.0,5.0,9.0,-5.0
1705327049.2255063,0.0,9.0,5.0,6.0,-6.0,-4.0,-1.0,-6.0
1705327049.2255063,-2.0,-27.0,9.0,-16.0,4.0,3.0,4.0,4.0
1705327049.2255063,1.0,20.0,-15.0,-8.0,5.0,-3.0,-8.0,-6.0
1705327049.2255063,-1.0,-3.0,15.0,5.0,0.0,1.0,4.0,11.0
1705327049.2455094,5.0,0.0,9.0,-4.0,-4.0,0.0,-25.0,2.0
1705327049.2455094,1.0,-1.0,3.0,12.0,-3.0,-3.0,5.0,-3.0
1705327049.2455094,-2.0,6.0,9.0,0.0,-4.0,-7.0,2.0,1.0
1705327049.2455094,0.0,-3.0,-27.0,-6.0,-3.0,-5.0,-5.0,15.0
1705327049.2755077,-3.0,6.0,24.0,4.0,2.0,5.0,-9.0,14.0
1705327049.2755077,2.0,-5.0,-5.0,-5.0,-1.0,3.0,30.0,-35.0
1705327049.2755077,21.0,12.0,-7.0,0.0,2.0,3.0,-2.0,16.0
1705327049.2755077,-22.0,2.0,24.0,6.0,0.0,0.0,-1.0,2.0
1705327049.2855413,-1.0,0.0,-31.0,-9.0,-4.0,-5.0,-4.0,1.0
1705327049.2855413,2.0,-25.0,-14.0,-5.0,-4.0,-2.0,-11.0,0.0
1705327049.2855413,-13.0,15.0,14.0,4.0,3.0,1.0,8.0,0.0
1705327049.2855413,4.0,-23.0,11.0,-5.0,-2.0,-1.0,0.0,2.0
1705327049.3055422,6.0,7.0,-25.0,2.0,-2.0,-2.0,6.0,1.0
1705327049.3055422,-12.0,7.0,5.0,-5.0,6.0,-2.0,-5.0,0.0
1705327049.3055422,2.0,-4.0,-6.0,7.0,2.0,-2.0,-4.0,-19.0
1705327049.3055422,2.0,6.0,9.0,4.0,0.0,1.0,-2.0,6.0
1705327049.3255079,0.0,8.0,-3.0,-1.0,-2.0,0.0,15.0,-2.0
1705327049.3255079,3.0,6.0,5.0,-10.0,-9.0,-6.0,-16.0,3.0
1705327049.3255079,-9.0,-7.0,0.0,1.0,2.0,3.0,-4.0,-10.0
1705327049.3255079,6.0,6.0,-12.0,7.0,2.0,-4.0,-16.0,-11.0
1705327049.3455062,-2.0,-8.0,5.0,-6.0,2.0,1.0,40.0,3.0
1705327049.3455062,1.0,3.0,-11.0,3.0,-1.0,-1.0,-3.0,11.0
1705327049.3455062,-3.0,2.0,3.0,-9.0,-6.0,-4.0,-7.0,-11.0
1705327049.3455062,2.0,-5.0,-8.0,-1.0,-1.0,-3.0,-6.0,-33.0
1705327049.375507,-3.0,-4.0,-10.0,-4.0,1.0,1.0,-14.0,-3.0
1705327049.375507,-2.0,-6.0,-14.0,3.0,0.0,1.0,-10.0,-2.0
1705327049.375507,-3.0,16.0,-4.0,4.0,-1.0,-1.0,-1.0,-2.0
1705327049.375507,-3.0,9.0,10.0,2.0,-5.0,-2.0,5.0,10.0
1705327049.3855073,-5.0,-2.0,-20.0,-13.0,3.0,-2.0,-8.0,-3.0
1705327049.3855073,0.0,-4.0,33.0,-4.0,-2.0,1.0,5.0,-6.0
1705327049.3855073,-2.0,-6.0,-34.0,-15.0,-6.0,-3.0,-7.0,-8.0
1705327049.3855073,5.0,-8.0,-14.0,4.0,-1.0,3.0,-1.0,15.0
1705327049.40551,2.0,5.0,18.0,11.0,-1.0,-5.0,13.0,-2.0
1705327049.40551,0.0,4.0,11.0,-3.0,1.0,-2.0,1.0,11.0
1705327049.40551,3.0,-28.0,-19.0,1.0,-5.0,-1.0,3.0,15.0
1705327049.40551,-5.0,17.0,-2.0,4.0,4.0,1.0,-4.0,-24.0
1705327049.4255083,-4.0,-11.0,-24.0,1.0,2.0,1.0,-10.0,-10.0
1705327049.4255083,4.0,13.0,39.0,4.0,-2.0,1.0,5.0,17.0
1705327049.4255083,5.0,6.0,-2.0,-1.0,0.0,-1.0,7.0,17.0
1705327049.4255083,2.0,2.0,4.0,-2.0,-2.0,-2.0,7.0,12.0
1705327049.4455092,4.0,-5.0,-5.0,0.0,0.0,3.0,-4.0,-2.0
1705327049.4455092,2.0,-17.0,-25.0,-2.0,-3.0,0.0,-1.0,-3.0
1705327049.4455092,-16.0,19.0,34.0,-1.0,-1.0,0.0,-9.0,-9.0
1705327049.4455092,-1.0,-5.0,-19.0,-3.0,-1.0,-1.0,8.0,9.0
1705327049.465507,1.0,18.0,21.0,2.0,-3.0,-1.0,13.0,0.0
1705327049.465507,-2.0,-9.0,-6.0,0.0,0.0,-4.0,-6.0,0.0
1705327049.465507,8.0,-12.0,-22.0,-7.0,-2.0,3.0,4.0,0.0
1705327049.465507,-1.0,-9.0,-2.0,2.0,4.0,4.0,1.0,0.0
1705327049.487825,-5.0,-4.0,2.0,-9.0,-13.0,-9.0,-10.0,-1.0
1705327049.487825,-3.0,-1.0,-18.0,18.0,9.0,1.0,3.0,-6.0
1705327049.488827,-5.0,-8.0,0.0,-8.0,-3.0,-8.0,-19.0,-14.0
1705327049.488827,3.0,-3.0,-2.0,1.0,-3.0,-2.0,-1.0,1.0
1705327049.5082688,5.0,9.0,14.0,-1.0,2.0,6.0,1.0,3.0
1705327049.5082688,10.0,4.0,2.0,5.0,-8.0,-3.0,3.0,3.0
1705327049.5082688,-1.0,1.0,-9.0,-12.0,5.0,-3.0,-1.0,-5.0
1705327049.5082688,-8.0,11.0,19.0,13.0,3.0,0.0,7.0,9.0
1705327049.5282717,-9.0,2.0,9.0,19.0,7.0,6.0,2.0,-1.0
1705327049.5282717,-6.0,-7.0,4.0,-19.0,-10.0,-10.0,-14.0,-13.0
1705327049.5282717,1.0,5.0,21.0,12.0,-1.0,1.0,8.0,6.0
1705327049.5282717,1.0,9.0,-3.0,-8.0,-6.0,-3.0,-3.0,-9.0
1705327049.5482762,-4.0,20.0,-18.0,-8.0,-7.0,-6.0,1.0,2.0
1705327049.5482762,-4.0,7.0,-25.0,-4.0,13.0,7.0,0.0,1.0
1705327049.5482762,1.0,-2.0,29.0,0.0,-2.0,-3.0,-19.0,-4.0
1705327049.5482762,-1.0,4.0,-13.0,-6.0,-3.0,8.0,31.0,-4.0
1705327049.5782723,-3.0,-7.0,-5.0,-5.0,-6.0,-9.0,-9.0,31.0
1705327049.5782723,4.0,-1.0,-6.0,6.0,-1.0,1.0,2.0,12.0
1705327049.5782723,-1.0,8.0,10.0,-2.0,-4.0,-2.0,2.0,-2.0
1705327049.5782723,-8.0,-14.0,5.0,-3.0,1.0,-6.0,-15.0,7.0
1705327049.588279,7.0,-5.0,-8.0,3.0,4.0,2.0,-5.0,7.0
1705327049.588279,-10.0,-3.0,10.0,-18.0,-5.0,-2.0,-6.0,-34.0
1705327049.588279,5.0,14.0,-12.0,7.0,3.0,6.0,8.0,11.0
1705327049.588279,-3.0,-33.0,-36.0,-4.0,-3.0,-6.0,-6.0,-14.0
1705327049.6082711,0.0,-4.0,27.0,-5.0,1.0,-1.0,-2.0,-7.0
1705327049.6082711,-1.0,23.0,38.0,3.0,-2.0,-2.0,1.0,14.0
1705327049.6082711,2.0,10.0,7.0,3.0,0.0,-2.0,-21.0,-6.0
1705327049.6082711,11.0,-18.0,20.0,-2.0,0.0,9.0,18.0,-4.0
1705327049.6284525,-2.0,-2.0,-12.0,-2.0,0.0,1.0,10.0,-10.0
1705327049.6284525,-10.0,-15.0,-15.0,1.0,-1.0,0.0,4.0,-6.0
1705327049.6284525,-6.0,3.0,5.0,-5.0,-6.0,-3.0,3.0,-16.0
1705327049.6284525,-1.0,-13.0,-15.0,-3.0,-1.0,-6.0,-12.0,13.0
1705327049.6483152,12.0,-16.0,2.0,0.0,1.0,3.0,-11.0,-8.0
1705327049.6483152,-15.0,3.0,-6.0,-5.0,-8.0,-4.0,16.0,20.0
1705327049.6483152,2.0,-27.0,-29.0,1.0,2.0,0.0,-6.0,-9.0
1705327049.6483152,4.0,27.0,-7.0,-9.0,-3.0,-6.0,-9.0,6.0
1705327049.6682732,-1.0,-32.0,3.0,-1.0,-4.0,-5.0,-9.0,-13.0
1705327049.6682732,16.0,20.0,-9.0,1.0,-1.0,-2.0,-7.0,8.0
1705327049.6682732,6.0,-8.0,-4.0,-1.0,1.0,2.0,13.0,7.0
1705327049.6682732,-8.0,-1.0,14.0,6.0,0.0,1.0,1.0,8.0
1705327049.688271,-1.0,-8.0,1.0,-21.0,-8.0,-3.0,-7.0,-40.0
1705327049.688271,-6.0,-4.0,-29.0,14.0,2.0,2.0,-6.0,-3.0
1705327049.688271,-7.0,-15.0,12.0,-4.0,3.0,-1.0,5.0,0.0
1705327049.688271,3.0,20.0,41.0,24.0,2.0,0.0,-6.0,4.0
1705327049.7083032,-1.0,6.0,-34.0,-9.0,-3.0,-1.0,-5.0,13.0
1705327049.7083032,6.0,-9.0,-1.0,-8.0,-1.0,3.0,9.0,-8.0
1705327049.7083032,4.0,5.0,-4.0,-4.0,-4.0,-3.0,7.0,-3.0
1705327049.7083032,-8.0,2.0,-4.0,5.0,-7.0,-6.0,5.0,8.0
1705327049.7282717,-8.0,-11.0,9.0,1.0,3.0,-5.0,-9.0,1.0
1705327049.7282717,-5.0,-24.0,-21.0,-12.0,-2.0,-7.0,-20.0,-5.0
1705327049.7282717,0.0,1.0,-7.0,3.0,-4.0,-7.0,-4.0,-4.0
1705327049.7282717,3.0,-8.0,3.0,-8.0,2.0,9.0,16.0,-17.0
1705327049.7482738,0.0,32.0,2.0,11.0,-4.0,-7.0,18.0,6.0
1705327049.7482738,-4.0,0.0,3.0,3.0,0.0,-1.0,-7.0,-7.0
1705327049.7482738,-7.0,9.0,3.0,-16.0,-4.0,-2.0,-3.0,6.0
1705327049.7482738,-6.0,-6.0,-9.0,5.0,5.0,-3.0,-23.0,-6.0
1705327049.7682726,0.0,1.0,6.0,11.0,8.0,13.0,0.0,-12.0
1705327049.7682726,-5.0,-46.0,4.0,-3.0,-3.0,-2.0,8.0,2.0
1705327049.7682726,-7.0,-19.0,-39.0,-14.0,-10.0,-8.0,0.0,-1.0
1705327049.7682726,2.0,16.0,16.0,-6.0,-7.0,-2.0,-10.0,13.0
1705327049.7782712,2.0,5.0,21.0,-5.0,5.0,0.0,-9.0,-11.0
1705327049.7782712,0.0,2.0,8.0,12.0,3.0,1.0,3.0,22.0
1705327049.7882721,-20.0,-9.0,11.0,-5.0,-5.0,-2.0,-8.0,-57.0
1705327049.7882721,8.0,33.0,0.0,-10.0,-1.0,-7.0,-11.0,25.0
1705327049.8083038,-12.0,-39.0,1.0,4.0,-4.0,-4.0,-1.0,17.0
1705327049.8083038,0.0,4.0,-28.0,-7.0,-4.0,-2.0,2.0,-6.0
1705327049.8083038,6.0,9.0,9.0,8.0,5.0,5.0,9.0,15.0
1705327049.8083038,-3.0,4.0,-30.0,-14.0,-1.0,-3.0,-3.0,-16.0
1705327049.8282704,-5.0,21.0,32.0,3.0,-4.0,-5.0,-10.0,26.0
1705327049.8282704,0.0,2.0,-17.0,-7.0,-1.0,3.0,-2.0,-54.0
1705327049.8282704,8.0,9.0,-5.0,6.0,3.0,6.0,22.0,11.0
1705327049.8282704,-21.0,-14.0,16.0,-3.0,-1.0,1.0,0.0,-22.0
1705327049.8382714,1.0,-15.0,-8.0,0.0,2.0,5.0,1.0,23.0
1705327049.8382714,-19.0,4.0,4.0,-8.0,-8.0,-10.0,-16.0,7.0
1705327049.8483026,3.0,5.0,2.0,15.0,8.0,0.0,3.0,0.0
1705327049.8483026,10.0,0.0,-5.0,-4.0,-2.0,-4.0,9.0,0.0
1705327049.868311,-1.0,2.0,-11.0,-4.0,-3.0,-1.0,11.0,-4.0
1705327049.868311,17.0,17.0,17.0,-9.0,1.0,5.0,7.0,9.0
1705327049.868311,7.0,2.0,2.0,9.0,-6.0,-8.0,-15.0,-9.0
1705327049.868311,-39.0,-35.0,-3.0,-5.0,9.0,-2.0,-8.0,-9.0
1705327049.8882701,3.0,-3.0,-23.0,1.0,-3.0,-4.0,-2.0,-8.0
1705327049.8882701,2.0,-10.0,15.0,-12.0,-3.0,2.0,11.0,-4.0
1705327049.8882701,7.0,0.0,0.0,-11.0,-5.0,-1.0,-28.0,15.0
1705327049.8882701,25.0,43.0,12.0,7.0,-2.0,7.0,29.0,5.0
1705327049.8982716,-16.0,-63.0,-11.0,-5.0,-3.0,-5.0,-5.0,-18.0
1705327049.9082716,-2.0,19.0,0.0,-2.0,1.0,1.0,-3.0,-1.0
1705327049.9082716,-4.0,6.0,9.0,9.0,3.0,-1.0,-3.0,8.0
1705327049.9082716,2.0,-20.0,7.0,5.0,-1.0,-1.0,-13.0,7.0
1705327049.928272,-2.0,10.0,-25.0,-9.0,-1.0,-2.0,4.0,-8.0
1705327049.928272,4.0,7.0,-4.0,-4.0,-1.0,-2.0,-3.0,3.0
1705327049.928272,-7.0,-17.0,-10.0,-12.0,-8.0,-3.0,-3.0,3.0
1705327049.928272,1.0,-8.0,-11.0,12.0,2.0,0.0,1.0,-9.0
1705327049.9482713,6.0,15.0,5.0,-1.0,5.0,3.0,4.0,8.0
1705327049.9482713,0.0,-7.0,-26.0,5.0,0.0,0.0,-9.0,5.0
1705327049.9482713,-2.0,1.0,10.0,-14.0,3.0,1.0,3.0,-6.0
1705327049.9482713,3.0,-11.0,2.0,-9.0,-5.0,-3.0,0.0,2.0
1705327049.9582722,-1.0,17.0,46.0,16.0,-11.0,-5.0,-6.0,-1.0
1705327049.9582722,-5.0,0.0,-8.0,20.0,6.0,-2.0,-5.0,-5.0
1705327049.9682705,-3.0,-10.0,-24.0,-1.0,2.0,4.0,10.0,2.0
1705327049.9682705,8.0,4.0,19.0,9.0,-1.0,1.0,-2.0,2.0
1705327049.9995372,24.0,6.0,-15.0,-31.0,2.0,1.0,-5.0,-4.0
1705327049.9995372,-17.0,1.0,-4.0,6.0,-4.0,-6.0,1.0,-7.0
1705327049.9995372,-18.0,3.0,9.0,0.0,-2.0,-1.0,7.0,6.0
1705327049.9995372,-2.0,-23.0,-15.0,-6.0,0.0,-1.0,-4.0,-3.0
1705327050.0138986,8.0,20.0,-4.0,7.0,0.0,3.0,3.0,3.0
1705327050.0138986,17.0,-3.0,5.0,-5.0,-1.0,-1.0,-14.0,-9.0
1705327050.0148997,-1.0,3.0,-2.0,2.0,1.0,0.0,6.0,3.0
1705327050.0148997,1.0,7.0,-8.0,-6.0,-3.0,1.0,-10.0,-6.0
1705327050.0343895,-7.0,-6.0,-10.0,-3.0,-2.0,-7.0,2.0,5.0
1705327050.0343895,-1.0,3.0,1.0,-4.0,1.0,0.0,14.0,-1.0
1705327050.0343895,-5.0,-6.0,21.0,4.0,7.0,6.0,-11.0,-10.0
1705327050.0343895,3.0,-4.0,-12.0,-3.0,-1.0,3.0,3.0,-2.0
1705327050.0443895,-4.0,2.0,-1.0,1.0,-7.0,-4.0,20.0,-12.0
1705327050.0443895,-4.0,-9.0,-4.0,0.0,3.0,-2.0,-24.0,17.0
1705327050.0443895,5.0,7.0,0.0,2.0,3.0,-1.0,-1.0,-2.0
1705327050.0443895,7.0,0.0,-12.0,-11.0,-5.0,-4.0,-5.0,-3.0
1705327050.07439,-9.0,-4.0,1.0,-3.0,-6.0,0.0,-10.0,6.0
1705327050.07439,0.0,10.0,13.0,-1.0,-1.0,0.0,-4.0,-41.0
1705327050.07439,0.0,-11.0,-7.0,1.0,-2.0,-1.0,2.0,0.0
1705327050.07439,-9.0,-5.0,3.0,-7.0,-2.0,-8.0,1.0,12.0
1705327050.0844254,-3.0,2.0,-18.0,-1.0,-3.0,-2.0,1.0,-36.0
1705327050.0844254,-4.0,5.0,11.0,9.0,1.0,-2.0,6.0,-2.0
1705327050.0943882,18.0,8.0,17.0,1.0,4.0,8.0,-2.0,20.0
1705327050.0943882,-22.0,11.0,13.0,-5.0,-1.0,-2.0,-2.0,-16.0
1705327050.1143875,-7.0,4.0,-6.0,-2.0,1.0,-2.0,-6.0,2.0
1705327050.1143875,2.0,-3.0,7.0,-3.0,-1.0,0.0,6.0,41.0
1705327050.1143875,4.0,-1.0,0.0,3.0,-3.0,-6.0,-7.0,-75.0
1705327050.1143875,1.0,-6.0,-2.0,0.0,-2.0,0.0,-3.0,-4.0
1705327050.1343904,-1.0,4.0,5.0,3.0,3.0,1.0,-6.0,9.0
1705327050.1343904,-2.0,3.0,-4.0,-1.0,2.0,4.0,11.0,19.0
1705327050.1343904,-1.0,-9.0,-6.0,-1.0,-1.0,-1.0,1.0,18.0
1705327050.1343904,8.0,1.0,-4.0,-2.0,-7.0,-4.0,-5.0,0.0
1705327050.154395,-10.0,32.0,4.0,-2.0,2.0,-1.0,-5.0,-7.0
1705327050.154395,3.0,21.0,-48.0,-3.0,0.0,1.0,5.0,9.0
1705327050.154395,-8.0,-65.0,0.0,-9.0,-6.0,-9.0,-8.0,-1.0
1705327050.154395,0.0,5.0,-43.0,-6.0,-1.0,0.0,0.0,1.0
