1706291956.3130376,-27.0,0.0,-1.0,1.0,-13.0,1.0,-27.0,-11.0
1706291956.3130376,15.0,-12.0,-2.0,4.0,16.0,0.0,-23.0,-5.0
1706291956.3230236,-15.0,1.0,1.0,-1.0,-3.0,0.0,20.0,5.0
1706291956.3230236,10.0,20.0,6.0,2.0,-1.0,1.0,22.0,6.0
1706291956.3430357,12.0,29.0,3.0,3.0,4.0,2.0,-8.0,-26.0
1706291956.3430357,-13.0,-36.0,-19.0,-13.0,-17.0,-14.0,-7.0,-26.0
1706291956.3430357,-8.0,0.0,1.0,-3.0,-3.0,-3.0,-18.0,14.0
1706291956.3430357,0.0,-6.0,-1.0,-6.0,-2.0,-1.0,-2.0,26.0
1706291956.3630435,33.0,19.0,2.0,2.0,0.0,2.0,28.0,-9.0
1706291956.3630435,14.0,-1.0,2.0,3.0,-1.0,-2.0,-17.0,-28.0
1706291956.3630435,-59.0,-20.0,1.0,4.0,8.0,-3.0,2.0,-21.0
1706291956.3630435,-5.0,-1.0,-8.0,-7.0,-8.0,-4.0,-33.0,-2.0
1706291956.3930235,-9.0,-30.0,-4.0,-10.0,-5.0,2.0,18.0,36.0
1706291956.3930235,23.0,23.0,3.0,6.0,7.0,-2.0,-30.0,-17.0
1706291956.3930235,-9.0,-61.0,-4.0,9.0,7.0,5.0,23.0,12.0
1706291956.3930235,18.0,60.0,6.0,-4.0,-6.0,-11.0,-71.0,-55.0
1706291956.4031327,-7.0,-53.0,-13.0,-5.0,-4.0,-1.0,-7.0,7.0
1706291956.4031327,-14.0,8.0,-4.0,-12.0,-11.0,-6.0,20.0,31.0
1706291956.4031327,6.0,13.0,8.0,2.0,-2.0,0.0,-3.0,5.0
1706291956.4031327,-15.0,-50.0,-15.0,3.0,3.0,6.0,-10.0,-26.0
1706291956.433023,27.0,48.0,11.0,5.0,4.0,-1.0,-1.0,6.0
1706291956.433023,-16.0,-22.0,-15.0,-9.0,-9.0,-5.0,-4.0,-2.0
1706291956.433023,12.0,0.0,3.0,-3.0,0.0,-1.0,-2.0,14.0
1706291956.433023,6.0,26.0,7.0,3.0,3.0,3.0,11.0,-1.0
1706291956.433023,-4.0,-21.0,4.0,-1.0,-3.0,-4.0,-12.0,25.0
1706291956.433023,-7.0,-48.0,-11.0,-3.0,-2.0,-3.0,-2.0,-34.0
1706291956.4431837,-5.0,21.0,-9.0,-6.0,-8.0,-5.0,6.0,-11.0
1706291956.4431837,-1.0,-3.0,5.0,1.0,-3.0,3.0,4.0,-13.0
1706291956.4632854,-7.0,-19.0,1.0,6.0,10.0,10.0,2.0,-2.0
1706291956.4632854,7.0,48.0,19.0,0.0,-3.0,-2.0,-10.0,-1.0
1706291956.4632854,7.0,-35.0,-21.0,-2.0,9.0,-3.0,-3.0,32.0
1706291956.4632854,-11.0,-37.0,-7.0,-1.0,-3.0,1.0,7.0,-8.0
1706291956.5030227,11.0,25.0,7.0,5.0,3.0,4.0,3.0,14.0
1706291956.5030227,5.0,-6.0,2.0,-2.0,-4.0,-5.0,5.0,12.0
1706291956.5030227,-8.0,-2.0,17.0,-7.0,-12.0,-3.0,-9.0,-14.0
1706291956.5030227,14.0,57.0,8.0,8.0,4.0,2.0,13.0,20.0
1706291956.5030227,-23.0,-35.0,4.0,-10.0,-1.0,-3.0,-6.0,-15.0
1706291956.5030227,22.0,2.0,-82.0,-6.0,-5.0,-3.0,-4.0,13.0
1706291956.5030227,-23.0,-16.0,-21.0,-8.0,-10.0,-7.0,14.0,-18.0
1706291956.5030227,1.0,-46.0,-17.0,2.0,11.0,6.0,4.0,29.0
1706291956.5234427,3.0,61.0,33.0,-13.0,-14.0,-15.0,-19.0,8.0
1706291956.5234427,5.0,6.0,30.0,9.0,0.0,7.0,5.0,-48.0
1706291956.5430236,9.0,-37.0,4.0,11.0,12.0,2.0,-2.0,2.0
1706291956.5430236,2.0,9.0,-35.0,-4.0,0.0,-1.0,3.0,3.0
1706291956.5430236,-8.0,-3.0,0.0,5.0,-4.0,0.0,2.0,-17.0
1706291956.5430236,-4.0,34.0,-7.0,-4.0,0.0,0.0,21.0,73.0
1706291956.5430236,5.0,29.0,46.0,3.0,-1.0,0.0,-10.0,10.0
1706291956.5430236,-4.0,-8.0,-61.0,-18.0,-5.0,2.0,-19.0,-72.0
1706291956.5531347,1.0,-71.0,43.0,17.0,9.0,-3.0,-4.0,17.0
1706291956.5531347,-12.0,10.0,-31.0,-11.0,-8.0,-5.0,4.0,-17.0
1706291956.563175,-2.0,16.0,-5.0,7.0,4.0,3.0,-5.0,-10.0
1706291956.563175,-7.0,-29.0,29.0,-25.0,-19.0,-12.0,-6.0,33.0
1706291956.5833228,0.0,-5.0,-6.0,1.0,10.0,14.0,35.0,-18.0
1706291956.5833228,1.0,-8.0,14.0,30.0,14.0,0.0,-39.0,-8.0
1706291956.5833228,12.0,80.0,23.0,13.0,5.0,9.0,-3.0,11.0
1706291956.5833228,-12.0,-40.0,-81.0,-34.0,-15.0,-16.0,1.0,5.0
1706291956.6033306,-1.0,28.0,22.0,9.0,-3.0,1.0,0.0,-3.0
1706291956.6033306,-1.0,-9.0,-5.0,7.0,8.0,-1.0,10.0,5.0
1706291956.6033306,6.0,12.0,94.0,-4.0,-11.0,-12.0,-21.0,-6.0
1706291956.6033306,5.0,36.0,61.0,36.0,11.0,13.0,12.0,9.0
1706291956.6530254,-3.0,19.0,-12.0,-28.0,-8.0,-6.0,-12.0,-8.0
1706291956.6530254,-6.0,-7.0,19.0,3.0,15.0,6.0,1.0,-5.0
1706291956.6530254,-5.0,-9.0,-33.0,-1.0,-7.0,-5.0,-3.0,-8.0
1706291956.6530254,-2.0,3.0,66.0,-9.0,-13.0,-8.0,1.0,-1.0
1706291956.6530254,4.0,-15.0,-63.0,9.0,1.0,3.0,0.0,6.0
1706291956.6530254,9.0,0.0,-2.0,-5.0,5.0,1.0,3.0,-3.0
1706291956.663064,-5.0,-13.0,-33.0,-47.0,-15.0,-8.0,-2.0,-8.0
1706291956.663064,3.0,23.0,47.0,12.0,3.0,-2.0,4.0,7.0
1706291956.663064,8.0,11.0,11.0,13.0,6.0,-1.0,-8.0,3.0
1706291956.663064,-2.0,-2.0,2.0,-13.0,-3.0,12.0,-1.0,-7.0
1706291956.663064,-4.0,-19.0,-21.0,33.0,-2.0,-15.0,-11.0,-7.0
1706291956.663064,0.0,2.0,76.0,-29.0,-13.0,-6.0,-1.0,0.0
1706291956.6839182,2.0,5.0,-51.0,2.0,0.0,1.0,0.0,3.0
1706291956.6839182,0.0,2.0,74.0,2.0,-9.0,-6.0,2.0,-2.0
1706291956.6839182,5.0,17.0,-4.0,25.0,13.0,13.0,-1.0,8.0
1706291956.6839182,-5.0,1.0,-18.0,-9.0,15.0,10.0,22.0,3.0
1706291956.7134387,5.0,12.0,52.0,10.0,-4.0,-8.0,-4.0,-1.0
1706291956.7134387,-9.0,-21.0,16.0,-25.0,-15.0,-10.0,-3.0,-1.0
1706291956.7134387,2.0,2.0,-52.0,-4.0,-18.0,-9.0,-10.0,-3.0
1706291956.7134387,4.0,4.0,-35.0,-1.0,11.0,7.0,-2.0,3.0
1706291956.7277713,-6.0,-7.0,-32.0,1.0,6.0,-1.0,-2.0,-5.0
1706291956.7287946,3.0,5.0,51.0,45.0,-3.0,1.0,2.0,1.0
1706291956.7347898,0.0,3.0,21.0,3.0,9.0,3.0,20.0,0.0
1706291956.7347898,6.0,10.0,-29.0,42.0,27.0,5.0,-5.0,2.0
1706291956.745952,4.0,7.0,84.0,1.0,-4.0,0.0,3.0,1.0
1706291956.745952,-5.0,-2.0,21.0,-16.0,-8.0,-7.0,-13.0,-3.0
1706291956.745952,-4.0,-8.0,-7.0,-9.0,-11.0,-7.0,4.0,-6.0
1706291956.745952,-4.0,-8.0,-47.0,-23.0,-4.0,2.0,-2.0,-1.0
1706291956.7561858,2.0,4.0,43.0,9.0,8.0,2.0,-5.0,2.0
1706291956.7561858,2.0,0.0,-11.0,-8.0,-10.0,0.0,9.0,1.0
1706291956.765957,-5.0,-9.0,-28.0,0.0,-6.0,-1.0,-11.0,-3.0
1706291956.765957,1.0,11.0,22.0,6.0,-12.0,-6.0,5.0,0.0
1706291956.7862358,-4.0,-9.0,-41.0,-7.0,5.0,2.0,17.0,-1.0
1706291956.7862358,1.0,0.0,-16.0,-4.0,15.0,8.0,-5.0,1.0
1706291956.8059576,-3.0,-6.0,5.0,12.0,13.0,-5.0,-4.0,-1.0
1706291956.8059576,-1.0,3.0,-8.0,-6.0,-5.0,2.0,-12.0,-3.0
1706291956.8159525,-3.0,-7.0,-19.0,-20.0,-24.0,-16.0,-3.0,-3.0
1706291956.8159525,-4.0,-11.0,-21.0,4.0,-6.0,-2.0,1.0,0.0
1706291956.8159525,1.0,2.0,-13.0,-36.0,2.0,8.0,5.0,0.0
1706291956.8159525,2.0,6.0,36.0,16.0,4.0,-3.0,-1.0,3.0
1706291956.825948,-5.0,-13.0,-24.0,-14.0,-8.0,-3.0,-9.0,-6.0
1706291956.825948,3.0,5.0,10.0,0.0,-6.0,-6.0,-1.0,0.0
1706291956.825948,2.0,5.0,22.0,1.0,1.0,2.0,2.0,1.0
1706291956.825948,-10.0,-19.0,-1.0,1.0,-8.0,0.0,3.0,-5.0
1706291956.8462508,5.0,10.0,-22.0,-27.0,7.0,4.0,-9.0,2.0
1706291956.8462508,-4.0,-3.0,6.0,29.0,1.0,-1.0,3.0,-5.0
1706291956.8462508,2.0,6.0,4.0,-6.0,6.0,5.0,1.0,2.0
1706291956.8462508,-2.0,-1.0,-11.0,2.0,5.0,3.0,13.0,3.0
1706291956.8859515,-1.0,0.0,5.0,6.0,-2.0,-6.0,-23.0,-6.0
1706291956.8859515,-4.0,-8.0,-19.0,-36.0,-17.0,-22.0,5.0,-3.0
1706291956.8859515,-5.0,-17.0,1.0,-10.0,-6.0,4.0,4.0,11.0
1706291956.8859515,-6.0,-13.0,0.0,15.0,8.0,2.0,-4.0,-3.0
1706291956.8859515,-2.0,0.0,-12.0,-1.0,-1.0,0.0,20.0,-24.0
1706291956.8859515,2.0,3.0,2.0,0.0,8.0,0.0,-33.0,-4.0
1706291956.8859515,-1.0,0.0,-5.0,-9.0,-10.0,-1.0,-13.0,0.0
1706291956.8859515,0.0,6.0,8.0,-2.0,-9.0,-12.0,3.0,0.0
1706291956.906309,-6.0,-10.0,-9.0,-4.0,-5.0,6.0,14.0,7.0
1706291956.906309,-2.0,-3.0,-9.0,-8.0,-3.0,-3.0,2.0,1.0
1706291956.906309,2.0,9.0,13.0,12.0,7.0,1.0,4.0,-10.0
1706291956.906309,0.0,2.0,13.0,6.0,-1.0,1.0,-6.0,1.0
1706291956.9262722,-2.0,-1.0,-1.0,-3.0,-7.0,-4.0,-14.0,-1.0
1706291956.9262722,1.0,-2.0,-18.0,-11.0,-6.0,-8.0,13.0,4.0
1706291956.9262722,-5.0,0.0,8.0,8.0,11.0,4.0,-22.0,3.0
1706291956.9262722,2.0,2.0,-10.0,1.0,0.0,-2.0,3.0,0.0
1706291956.9459498,-4.0,-14.0,-12.0,1.0,-3.0,1.0,5.0,3.0
1706291956.9459498,-3.0,-7.0,-6.0,-3.0,1.0,11.0,12.0,-1.0
1706291956.9459498,4.0,7.0,3.0,-3.0,3.0,-10.0,52.0,11.0
1706291956.9459498,1.0,12.0,19.0,10.0,6.0,16.0,7.0,-12.0
1706291956.9663293,3.0,-2.0,-4.0,-1.0,-7.0,-11.0,-29.0,37.0
1706291956.9663293,-4.0,3.0,0.0,-8.0,-6.0,-12.0,-3.0,-47.0
1706291956.9663293,-3.0,0.0,1.0,-1.0,-1.0,8.0,28.0,-14.0
1706291956.9663293,-5.0,-3.0,-7.0,-6.0,-16.0,-21.0,-11.0,6.0
1706291956.995949,9.0,5.0,10.0,-2.0,7.0,14.0,40.0,36.0
1706291956.995949,3.0,-1.0,-3.0,1.0,12.0,-1.0,-10.0,1.0
1706291956.995949,-7.0,0.0,3.0,7.0,-4.0,1.0,25.0,36.0
1706291956.995949,6.0,2.0,0.0,-6.0,-5.0,-22.0,-73.0,-28.0
1706291956.995949,7.0,-1.0,-7.0,-8.0,-7.0,9.0,32.0,-3.0
1706291956.995949,-6.0,1.0,6.0,2.0,4.0,-4.0,-10.0,19.0
1706291957.0061345,0.0,-8.0,5.0,4.0,2.0,6.0,40.0,5.0
1706291957.0061345,-15.0,-3.0,-16.0,-5.0,-2.0,-8.0,-61.0,-7.0
1706291957.0262594,6.0,-1.0,3.0,-1.0,-1.0,-7.0,2.0,-9.0
1706291957.0262594,-10.0,-6.0,1.0,0.0,-4.0,6.0,35.0,20.0
1706291957.0262594,-2.0,-8.0,-8.0,-8.0,-2.0,-8.0,-94.0,-21.0
1706291957.0262594,4.0,1.0,4.0,-3.0,0.0,2.0,46.0,3.0
1706291957.0659504,-12.0,-3.0,-9.0,-3.0,-4.0,-9.0,-33.0,-28.0
1706291957.0759478,15.0,-2.0,-2.0,4.0,4.0,14.0,25.0,32.0
1706291957.0759478,0.0,-2.0,-14.0,-12.0,-13.0,-12.0,-76.0,-37.0
1706291957.0759478,-32.0,-14.0,0.0,-3.0,-3.0,-11.0,-21.0,-22.0
1706291957.0759478,15.0,8.0,4.0,5.0,6.0,11.0,32.0,36.0
1706291957.0759478,-16.0,-4.0,-1.0,-1.0,0.0,5.0,-21.0,-41.0
1706291957.0759478,17.0,-7.0,-3.0,-5.0,-4.0,-5.0,15.0,4.0
1706291957.0759478,19.0,20.0,4.0,0.0,1.0,18.0,5.0,-4.0
1706291957.0862114,-23.0,-1.0,1.0,1.0,2.0,-15.0,31.0,18.0
1706291957.0862114,-7.0,3.0,2.0,4.0,-2.0,8.0,16.0,11.0
1706291957.0862114,6.0,9.0,-3.0,3.0,10.0,8.0,-5.0,12.0
1706291957.0862114,1.0,-5.0,0.0,1.0,3.0,8.0,58.0,30.0
1706291957.1059537,15.0,-5.0,-2.0,-4.0,-6.0,-3.0,-10.0,42.0
1706291957.1059537,19.0,25.0,0.0,-7.0,-8.0,-4.0,18.0,38.0
1706291957.1059537,-11.0,3.0,1.0,3.0,-3.0,-3.0,3.0,-58.0
1706291957.1059537,9.0,6.0,4.0,5.0,3.0,-3.0,-32.0,-10.0
1706291957.116053,4.0,-25.0,-5.0,-2.0,-1.0,-5.0,-5.0,-10.0
1706291957.116053,-5.0,-11.0,-5.0,-4.0,-1.0,-5.0,-32.0,-24.0
1706291957.1262136,5.0,-2.0,-3.0,-2.0,-5.0,-2.0,4.0,-1.0
1706291957.1262136,4.0,-2.0,-4.0,-3.0,0.0,5.0,35.0,35.0
1706291957.1461916,-22.0,10.0,3.0,6.0,4.0,-1.0,-25.0,-39.0
1706291957.1461916,18.0,-17.0,0.0,2.0,-5.0,-8.0,-41.0,-15.0
1706291957.1461916,-15.0,-1.0,-3.0,-5.0,2.0,1.0,28.0,26.0
1706291957.1461916,1.0,5.0,-1.0,-3.0,-4.0,-2.0,-4.0,-4.0
1706291957.1659563,-30.0,9.0,1.0,-5.0,-9.0,-2.0,-8.0,7.0
1706291957.1659563,10.0,-2.0,-8.0,-6.0,-5.0,-8.0,-40.0,-61.0
1706291957.1659563,-10.0,4.0,2.0,1.0,1.0,5.0,40.0,15.0
1706291957.1659563,7.0,-13.0,0.0,0.0,-4.0,-2.0,-14.0,-37.0
1706291957.1761775,11.0,18.0,1.0,1.0,2.0,-2.0,-18.0,-44.0
1706291957.1761775,-17.0,8.0,8.0,1.0,7.0,2.0,-26.0,42.0
1706291957.1861289,19.0,-27.0,-10.0,-2.0,-9.0,-9.0,-43.0,-34.0
1706291957.1861289,-17.0,-6.0,-4.0,-6.0,-3.0,-6.0,23.0,2.0
1706291957.2062552,-26.0,-27.0,-6.0,2.0,4.0,4.0,-27.0,6.0
1706291957.2062552,12.0,7.0,2.0,6.0,4.0,3.0,36.0,-20.0
1706291957.2062552,-4.0,27.0,4.0,-8.0,-5.0,-7.0,-36.0,13.0
1706291957.2062552,18.0,7.0,5.0,6.0,0.0,-2.0,21.0,22.0
1706291957.2259486,3.0,26.0,4.0,-1.0,-1.0,2.0,4.0,-26.0
1706291957.2259486,-16.0,-13.0,-6.0,4.0,6.0,4.0,8.0,24.0
1706291957.2259486,12.0,2.0,4.0,-8.0,-9.0,-5.0,-8.0,-21.0
1706291957.2259486,20.0,5.0,3.0,10.0,13.0,11.0,26.0,85.0
1706291957.2361462,3.0,-12.0,0.0,0.0,-1.0,-3.0,-2.0,-2.0
1706291957.2361462,-4.0,32.0,3.0,-2.0,-4.0,-1.0,1.0,2.0
1706291957.2461317,-5.0,18.0,-6.0,-3.0,0.0,-2.0,13.0,19.0
1706291957.2461317,10.0,-7.0,-1.0,0.0,-4.0,-3.0,-35.0,-55.0
1706291957.278376,-10.0,3.0,3.0,4.0,8.0,-1.0,-7.0,-10.0
1706291957.278376,-9.0,-2.0,-3.0,-6.0,-5.0,-2.0,11.0,9.0
1706291957.278376,22.0,23.0,5.0,1.0,-2.0,0.0,5.0,-7.0
1706291957.278376,-28.0,38.0,2.0,-4.0,-2.0,1.0,-8.0,-4.0
1706291957.2883778,0.0,21.0,-6.0,-1.0,0.0,0.0,4.0,13.0
1706291957.2883778,-3.0,-51.0,-10.0,-6.0,-5.0,-5.0,-5.0,-2.0
1706291957.2883778,-10.0,-19.0,-8.0,1.0,2.0,3.0,17.0,24.0
1706291957.2883778,6.0,-18.0,1.0,-1.0,-2.0,-6.0,-53.0,-48.0
1706291957.3088305,4.0,-3.0,-1.0,-9.0,-16.0,-10.0,-12.0,-16.0
1706291957.3088305,-3.0,9.0,6.0,-2.0,-4.0,-3.0,6.0,4.0
1706291957.3088305,-10.0,-14.0,0.0,6.0,10.0,10.0,4.0,-3.0
1706291957.3088305,-1.0,-21.0,5.0,12.0,18.0,4.0,29.0,42.0
1706291957.318384,-5.0,-23.0,-18.0,-3.0,-1.0,-2.0,-2.0,-44.0
1706291957.318384,4.0,95.0,16.0,3.0,-3.0,2.0,-8.0,-27.0
1706291957.318384,-18.0,-54.0,-20.0,-7.0,-6.0,-9.0,-5.0,13.0
1706291957.318384,3.0,8.0,5.0,-2.0,-4.0,-1.0,14.0,4.0
1706291957.3484132,10.0,62.0,6.0,-1.0,1.0,3.0,0.0,-1.0
1706291957.3484132,30.0,29.0,-1.0,2.0,0.0,-6.0,20.0,23.0
1706291957.3484132,-21.0,-13.0,13.0,4.0,4.0,1.0,4.0,-12.0
1706291957.3484132,-7.0,16.0,4.0,-16.0,-10.0,-2.0,-1.0,-9.0
1706291957.3684158,12.0,-39.0,9.0,4.0,-4.0,8.0,14.0,24.0
1706291957.3684158,-23.0,-78.0,-23.0,-3.0,5.0,-8.0,-11.0,-29.0
1706291957.388378,6.0,90.0,39.0,3.0,2.0,4.0,-4.0,25.0
1706291957.388378,-7.0,-111.0,-78.0,-4.0,-1.0,-6.0,-11.0,-1.0
1706291957.388378,9.0,-17.0,21.0,8.0,1.0,0.0,5.0,14.0
1706291957.388378,-3.0,43.0,11.0,4.0,-3.0,4.0,8.0,37.0
1706291957.388378,-17.0,-15.0,-4.0,-12.0,-5.0,-1.0,-2.0,-28.0
1706291957.388378,8.0,51.0,37.0,5.0,-1.0,-2.0,20.0,-3.0
1706291957.4088464,9.0,13.0,22.0,19.0,8.0,2.0,-43.0,4.0
1706291957.4088464,-9.0,-68.0,-6.0,2.0,4.0,6.0,8.0,-3.0
1706291957.4088464,10.0,13.0,2.0,-3.0,-6.0,-12.0,-25.0,-32.0
1706291957.4088464,-7.0,-17.0,45.0,-9.0,-13.0,3.0,17.0,6.0
1706291957.4288435,-9.0,38.0,-83.0,-40.0,-10.0,-7.0,10.0,5.0
1706291957.4288435,2.0,-10.0,33.0,9.0,10.0,8.0,0.0,-4.0
1706291957.4288435,2.0,-30.0,5.0,0.0,-3.0,-2.0,0.0,37.0
1706291957.4288435,-2.0,24.0,-94.0,-10.0,-3.0,4.0,1.0,-5.0
1706291957.448378,-1.0,-47.0,56.0,15.0,8.0,-9.0,2.0,-2.0
1706291957.448378,-12.0,-18.0,6.0,21.0,10.0,10.0,-2.0,0.0
1706291957.448378,7.0,35.0,-16.0,-13.0,-14.0,-11.0,9.0,8.0
1706291957.448378,-17.0,-19.0,-45.0,-39.0,-12.0,-7.0,-13.0,-13.0
1706291957.4690325,-6.0,-10.0,-16.0,12.0,8.0,0.0,6.0,-3.0
1706291957.4690325,4.0,17.0,52.0,8.0,5.0,1.0,0.0,3.0
1706291957.4690325,-2.0,-59.0,30.0,45.0,7.0,6.0,4.0,-5.0
1706291957.4690325,-7.0,-2.0,-10.0,-29.0,-20.0,-11.0,-6.0,-2.0
1706291957.5087326,-5.0,-35.0,-63.0,-31.0,-16.0,-9.0,-7.0,-2.0
1706291957.5087326,10.0,32.0,-3.0,10.0,3.0,0.0,-1.0,0.0
1706291957.5087326,-7.0,-59.0,-14.0,-7.0,12.0,2.0,-1.0,-5.0
1706291957.5087326,3.0,18.0,58.0,21.0,4.0,3.0,0.0,3.0
1706291957.5087326,7.0,18.0,-2.0,0.0,5.0,6.0,9.0,6.0
1706291957.5087326,-16.0,-26.0,2.0,-29.0,-27.0,-19.0,-12.0,-14.0
1706291957.5087326,6.0,30.0,42.0,-4.0,5.0,5.0,7.0,3.0
1706291957.5087326,-1.0,7.0,24.0,23.0,4.0,-1.0,-1.0,0.0
1706291957.5287318,-5.0,-18.0,-75.0,-45.0,-15.0,-12.0,-14.0,-5.0
1706291957.5287318,-1.0,-8.0,36.0,35.0,6.0,7.0,20.0,1.0
1706291957.5287318,-2.0,11.0,9.0,-6.0,-12.0,-9.0,-5.0,-4.0
1706291957.5287318,2.0,4.0,-25.0,7.0,6.0,0.0,-2.0,-1.0
1706291957.5487313,1.0,8.0,55.0,39.0,8.0,11.0,12.0,3.0
1706291957.5487313,3.0,0.0,-61.0,-24.0,-12.0,-7.0,-7.0,0.0
1706291957.5487313,-2.0,13.0,-30.0,-27.0,28.0,12.0,4.0,2.0
1706291957.5487313,-2.0,-3.0,63.0,19.0,-2.0,-1.0,4.0,0.0
1706291957.569139,-5.0,-5.0,-17.0,1.0,-3.0,-7.0,-4.0,-5.0
1706291957.569139,-1.0,-6.0,-28.0,-22.0,-12.0,-3.0,-7.0,-1.0
1706291957.569139,-1.0,1.0,33.0,0.0,-29.0,-24.0,-6.0,-7.0
1706291957.569139,0.0,2.0,-15.0,0.0,-3.0,-2.0,28.0,3.0
1706291957.5893872,-1.0,3.0,39.0,14.0,11.0,10.0,-45.0,-4.0
1706291957.5893872,-2.0,-11.0,-4.0,-3.0,15.0,9.0,34.0,1.0
1706291957.5893872,3.0,17.0,-9.0,10.0,2.0,2.0,-30.0,-1.0
1706291957.5893872,-1.0,-1.0,-4.0,7.0,-8.0,1.0,3.0,-2.0
1706291957.6291544,-1.0,7.0,31.0,5.0,-7.0,-6.0,12.0,1.0
1706291957.6291544,1.0,-3.0,-40.0,-1.0,12.0,6.0,-3.0,2.0
1706291957.6291544,2.0,2.0,-14.0,-2.0,24.0,18.0,25.0,2.0
1706291957.6291544,-1.0,5.0,31.0,-39.0,-17.0,-11.0,-11.0,-1.0
1706291957.6291544,-4.0,-6.0,6.0,16.0,-8.0,-3.0,2.0,-4.0
1706291957.6291544,2.0,5.0,1.0,22.0,18.0,5.0,-14.0,0.0
1706291957.6291544,3.0,6.0,-10.0,11.0,-2.0,1.0,11.0,3.0
1706291957.6291544,-3.0,-6.0,-9.0,-6.0,-8.0,-6.0,-16.0,-2.0
1706291957.6494114,4.0,11.0,45.0,-5.0,-21.0,-8.0,10.0,0.0
1706291957.6494114,-2.0,-7.0,-24.0,-35.0,-8.0,-6.0,-7.0,-2.0
1706291957.6494114,-5.0,-5.0,-8.0,3.0,-9.0,-6.0,-4.0,-2.0
1706291957.6494114,-3.0,-1.0,-20.0,6.0,27.0,13.0,9.0,1.0
1706291957.6694608,0.0,-2.0,-25.0,-10.0,-1.0,-2.0,-6.0,-1.0
1706291957.6694608,-2.0,-1.0,19.0,11.0,-10.0,-8.0,-5.0,-3.0
1706291957.6694608,-3.0,-4.0,-22.0,-10.0,-18.0,-11.0,-3.0,-4.0
1706291957.6694608,-3.0,-7.0,-9.0,-13.0,5.0,1.0,-8.0,-2.0
1706291957.6791577,-1.0,1.0,7.0,-6.0,-5.0,-2.0,5.0,-2.0
1706291957.6791577,6.0,-1.0,15.0,3.0,2.0,-1.0,18.0,2.0
1706291957.6791577,-7.0,0.0,-12.0,8.0,9.0,6.0,-9.0,-1.0
1706291957.6791577,0.0,-1.0,7.0,15.0,7.0,7.0,0.0,0.0
1706291957.7095673,1.0,2.0,-4.0,-6.0,1.0,-5.0,16.0,0.0
1706291957.7095673,-2.0,-6.0,-27.0,-31.0,-22.0,-12.0,-49.0,-5.0
1706291957.7095673,-3.0,-6.0,5.0,17.0,-5.0,-5.0,-6.0,-4.0
1706291957.7095673,1.0,3.0,7.0,3.0,7.0,4.0,6.0,-2.0
1706291957.729156,-2.0,-2.0,-4.0,-10.0,-1.0,-9.0,22.0,0.0
1706291957.729156,-1.0,4.0,27.0,0.0,-7.0,1.0,-5.0,-3.0
1706291957.729156,3.0,2.0,-17.0,4.0,8.0,9.0,11.0,8.0
1706291957.729156,-3.0,0.0,24.0,11.0,13.0,-2.0,-37.0,-7.0
1706291957.7391596,2.0,1.0,-5.0,-10.0,0.0,0.0,-3.0,-15.0
1706291957.7391596,-2.0,2.0,18.0,-1.0,-7.0,-3.0,7.0,1.0
1706291957.7391596,-3.0,-2.0,-26.0,-10.0,-4.0,-2.0,-10.0,-3.0
1706291957.7391596,-6.0,-5.0,-14.0,-15.0,-10.0,-2.0,21.0,3.0
1706291957.7691684,5.0,-7.0,-43.0,6.0,-4.0,-1.0,13.0,0.0
1706291957.7691684,-3.0,1.0,34.0,7.0,7.0,-1.0,-6.0,3.0
1706291957.7691684,-1.0,0.0,-1.0,-8.0,-6.0,5.0,6.0,-2.0
1706291957.7691684,2.0,3.0,1.0,7.0,-4.0,-6.0,-22.0,2.0
1706291957.7916965,-1.0,0.0,-1.0,0.0,5.0,1.0,43.0,8.0
1706291957.7916965,-2.0,-1.0,-1.0,-1.0,8.0,6.0,-34.0,-7.0
1706291957.792716,1.0,-1.0,12.0,0.0,-8.0,-9.0,-14.0,4.0
1706291957.792716,-1.0,-5.0,-15.0,-8.0,-2.0,7.0,-7.0,-5.0
1706291957.805695,-2.0,-3.0,10.0,-2.0,-7.0,-15.0,5.0,3.0
1706291957.806695,2.0,0.0,-13.0,-1.0,-7.0,-4.0,17.0,25.0
1706291957.8113534,-8.0,-4.0,13.0,7.0,0.0,-7.0,-30.0,-63.0
1706291957.8113534,1.0,-2.0,-15.0,-2.0,14.0,8.0,2.0,-3.0
1706291957.831357,-2.0,3.0,10.0,2.0,3.0,9.0,-38.0,-3.0
1706291957.831357,-6.0,-2.0,-11.0,4.0,1.0,0.0,10.0,3.0
1706291957.831357,1.0,-3.0,-1.0,-13.0,-11.0,-8.0,9.0,13.0
1706291957.831357,0.0,0.0,5.0,6.0,-5.0,-9.0,0.0,12.0
1706291957.851613,-8.0,-16.0,2.0,-3.0,8.0,8.0,18.0,-18.0
1706291957.851613,2.0,-1.0,-27.0,-2.0,-6.0,-10.0,-15.0,-5.0
1706291957.851613,0.0,-2.0,0.0,-8.0,-9.0,0.0,20.0,7.0
1706291957.851613,3.0,6.0,21.0,15.0,6.0,5.0,3.0,1.0
1706291957.8617194,-3.0,-5.0,28.0,4.0,2.0,2.0,-10.0,0.0
1706291957.8617194,0.0,-1.0,-21.0,-11.0,2.0,3.0,5.0,-7.0
1706291957.8617194,1.0,2.0,21.0,-4.0,-5.0,0.0,-17.0,4.0
1706291957.8617194,-1.0,-6.0,-27.0,-11.0,-17.0,-6.0,67.0,11.0
1706291957.8913584,-3.0,2.0,-5.0,5.0,16.0,9.0,-39.0,-10.0
1706291957.8913584,0.0,-1.0,22.0,3.0,3.0,-9.0,-3.0,7.0
1706291957.8913584,0.0,0.0,-13.0,1.0,1.0,7.0,30.0,9.0
1706291957.8913584,-1.0,2.0,7.0,-6.0,-12.0,-15.0,-62.0,-20.0
1706291957.9117587,-1.0,0.0,7.0,0.0,-2.0,4.0,-1.0,4.0
1706291957.9117587,1.0,1.0,-7.0,3.0,1.0,1.0,7.0,-5.0
1706291957.9117587,-2.0,-2.0,-1.0,3.0,13.0,4.0,9.0,-6.0
1706291957.9117587,0.0,-1.0,1.0,-1.0,-6.0,-2.0,-1.0,-1.0
1706291957.9216146,-2.0,0.0,-4.0,-2.0,-5.0,-7.0,-3.0,9.0
1706291957.9216146,-1.0,-2.0,2.0,-3.0,-2.0,7.0,0.0,-13.0
1706291957.941355,-1.0,-5.0,-7.0,-5.0,-2.0,-4.0,6.0,11.0
1706291957.941355,-1.0,2.0,6.0,3.0,5.0,0.0,8.0,-1.0
1706291957.941355,1.0,5.0,-6.0,1.0,-8.0,2.0,5.0,-4.0
1706291957.941355,-1.0,0.0,0.0,0.0,0.0,-3.0,-30.0,3.0
1706291957.95136,-1.0,2.0,11.0,10.0,7.0,0.0,-5.0,0.0
1706291957.95136,-3.0,-8.0,-22.0,-11.0,-6.0,-2.0,-4.0,0.0
1706291957.9716547,0.0,-1.0,14.0,-4.0,-2.0,-3.0,3.0,4.0
1706291957.9716547,0.0,3.0,-33.0,-4.0,-1.0,-1.0,8.0,-4.0
1706291957.9716547,-2.0,-3.0,0.0,-5.0,-4.0,-4.0,-2.0,2.0
1706291957.9716547,-1.0,0.0,-7.0,-3.0,-11.0,-5.0,-33.0,-9.0
1706291957.9815848,0.0,-1.0,1.0,6.0,8.0,2.0,-4.0,6.0
1706291957.9815848,-1.0,-1.0,12.0,13.0,13.0,4.0,4.0,1.0
1706291957.9815848,-1.0,4.0,7.0,8.0,10.0,4.0,-12.0,-4.0
1706291957.9815848,-2.0,-3.0,-2.0,-7.0,-11.0,0.0,38.0,4.0
1706291958.0113633,1.0,0.0,-8.0,-1.0,-11.0,-20.0,-20.0,-4.0
1706291958.0113633,-2.0,-5.0,-3.0,-10.0,-6.0,4.0,8.0,14.0
1706291958.0113633,-1.0,-3.0,-10.0,-6.0,-3.0,-11.0,-10.0,0.0
1706291958.0113633,1.0,3.0,9.0,3.0,-1.0,-1.0,-16.0,-3.0
1706291958.03166,-6.0,-1.0,-2.0,0.0,5.0,6.0,13.0,-2.0
1706291958.03166,5.0,0.0,5.0,0.0,-4.0,-4.0,25.0,0.0
1706291958.03166,-5.0,-7.0,-7.0,-8.0,-11.0,-2.0,-44.0,-2.0
1706291958.03166,-1.0,-1.0,1.0,7.0,12.0,7.0,7.0,0.0
1706291958.0415826,3.0,1.0,0.0,2.0,4.0,0.0,-5.0,-7.0
1706291958.0415826,-4.0,-3.0,-1.0,-3.0,1.0,-1.0,2.0,5.0
1706291958.0713558,1.0,1.0,-5.0,-6.0,-5.0,-1.0,14.0,-1.0
1706291958.0713558,-1.0,-5.0,-4.0,-2.0,-8.0,-5.0,-7.0,-4.0
1706291958.0713558,0.0,0.0,-2.0,-1.0,-3.0,-5.0,-20.0,1.0
1706291958.0713558,-3.0,-6.0,-8.0,-1.0,-6.0,5.0,23.0,-8.0
1706291958.0713558,-1.0,-3.0,-13.0,-11.0,-3.0,-4.0,2.0,-2.0
1706291958.0713558,0.0,8.0,6.0,5.0,8.0,2.0,-1.0,5.0
1706291958.0918217,3.0,8.0,7.0,11.0,17.0,7.0,7.0,4.0
1706291958.0918217,-3.0,-17.0,3.0,-6.0,-11.0,-8.0,-9.0,-9.0
1706291958.0918217,1.0,-3.0,2.0,-3.0,-4.0,0.0,6.0,4.0
1706291958.0918217,4.0,6.0,0.0,0.0,2.0,-2.0,1.0,-1.0
1706291958.101381,-2.0,-5.0,-9.0,-7.0,-11.0,-4.0,-2.0,0.0
1706291958.101381,-2.0,6.0,-1.0,-4.0,-7.0,0.0,-12.0,-6.0
1706291958.111355,3.0,2.0,-3.0,-1.0,-3.0,-5.0,39.0,4.0
1706291958.111355,-3.0,-4.0,2.0,1.0,7.0,8.0,-23.0,-7.0
1706291958.1217513,-1.0,0.0,-4.0,-4.0,-3.0,-6.0,-6.0,-3.0
1706291958.1217513,-4.0,1.0,-1.0,3.0,8.0,-1.0,-7.0,-8.0
1706291958.1217513,-1.0,-4.0,0.0,0.0,-10.0,-1.0,8.0,7.0
1706291958.1217513,-2.0,-1.0,5.0,4.0,7.0,-4.0,-14.0,-4.0
1706291958.1518085,2.0,-4.0,-2.0,-5.0,-3.0,6.0,18.0,0.0
1706291958.1518085,-3.0,-7.0,0.0,3.0,0.0,-1.0,14.0,-4.0
1706291958.1518085,-2.0,5.0,-2.0,2.0,6.0,7.0,-79.0,7.0
1706291958.1518085,-1.0,-1.0,-2.0,-6.0,-12.0,-12.0,2.0,-5.0
1706291958.1613586,-4.0,-2.0,-4.0,-7.0,-11.0,-3.0,-9.0,-7.0
1706291958.1613586,0.0,2.0,2.0,-3.0,-1.0,-2.0,-11.0,-3.0
1706291958.1713915,1.0,-6.0,-1.0,0.0,4.0,4.0,21.0,-4.0
1706291958.1713915,-1.0,-2.0,0.0,-1.0,-3.0,-1.0,9.0,15.0
1706291958.1817396,-3.0,-5.0,-2.0,-4.0,-2.0,-8.0,-13.0,-1.0
1706291958.1817396,1.0,3.0,-5.0,8.0,6.0,9.0,13.0,1.0
1706291958.1817396,1.0,13.0,17.0,10.0,17.0,8.0,9.0,-1.0
1706291958.1817396,-2.0,-11.0,-19.0,-9.0,-3.0,-5.0,5.0,-5.0
1706291958.2117927,1.0,1.0,11.0,-4.0,-11.0,-2.0,7.0,2.0
1706291958.2117927,-1.0,1.0,-12.0,2.0,0.0,-4.0,-13.0,-7.0
1706291958.2117927,-1.0,2.0,-39.0,-4.0,-6.0,-6.0,1.0,-3.0
1706291958.2117927,-2.0,2.0,21.0,-5.0,-5.0,-6.0,-4.0,-5.0
1706291958.2216592,-3.0,0.0,15.0,0.0,2.0,4.0,0.0,2.0
1706291958.2216592,7.0,-4.0,-4.0,1.0,1.0,-4.0,-3.0,6.0
1706291958.2413545,1.0,-3.0,1.0,2.0,4.0,1.0,-2.0,-6.0
1706291958.2413545,-2.0,0.0,-7.0,3.0,0.0,1.0,20.0,6.0
1706291958.2413545,-2.0,-13.0,-9.0,-7.0,-8.0,-6.0,-8.0,-15.0
1706291958.2413545,-6.0,10.0,6.0,-10.0,-19.0,-11.0,-17.0,-4.0
1706291958.2413545,-2.0,-4.0,2.0,7.0,19.0,16.0,31.0,-2.0
1706291958.2413545,0.0,-5.0,3.0,11.0,12.0,3.0,-15.0,-15.0
1706291958.271818,0.0,4.0,-2.0,1.0,0.0,-4.0,-12.0,30.0
1706291958.271818,-3.0,-1.0,-1.0,-5.0,-7.0,-8.0,2.0,-4.0
1706291958.271818,-8.0,-9.0,1.0,-13.0,-17.0,-8.0,-26.0,-7.0
1706291958.271818,-1.0,6.0,17.0,-2.0,-1.0,1.0,5.0,-2.0
1706291958.281355,-1.0,-8.0,-17.0,3.0,7.0,6.0,6.0,1.0
1706291958.281355,0.0,3.0,4.0,-3.0,1.0,-4.0,-8.0,-13.0
1706291958.2913897,0.0,-1.0,16.0,2.0,-2.0,0.0,9.0,7.0
1706291958.2913897,-2.0,-1.0,0.0,5.0,5.0,0.0,4.0,1.0
1706291958.3016586,1.0,2.0,-11.0,-1.0,-1.0,1.0,-2.0,-5.0
1706291958.3016586,-2.0,-4.0,-9.0,-3.0,-1.0,-3.0,4.0,6.0
1706291958.3016586,0.0,-3.0,10.0,-6.0,-17.0,-8.0,0.0,-7.0
1706291958.3016586,-2.0,-2.0,-11.0,9.0,9.0,6.0,0.0,-1.0
1706291958.332247,0.0,-6.0,1.0,7.0,14.0,5.0,3.0,0.0
1706291958.332247,2.0,-7.0,-1.0,16.0,14.0,7.0,5.0,14.0
1706291958.332247,3.0,27.0,-12.0,-7.0,-8.0,-9.0,-4.0,-11.0
1706291958.332247,8.0,-3.0,-15.0,-16.0,-17.0,-8.0,-3.0,2.0
1706291958.3439474,-1.0,3.0,20.0,-16.0,-12.0,-3.0,2.0,-4.0
1706291958.3439474,-3.0,-6.0,-86.0,-16.0,-1.0,3.0,-2.0,3.0
1706291958.3539817,-5.0,-15.0,6.0,0.0,1.0,-3.0,-6.0,-2.0
1706291958.3539817,-4.0,-2.0,3.0,7.0,-3.0,-1.0,6.0,1.0
1706291958.364267,3.0,10.0,23.0,7.0,8.0,3.0,5.0,-4.0
1706291958.364267,2.0,7.0,63.0,2.0,0.0,1.0,-2.0,-14.0
1706291958.364267,-2.0,-7.0,-56.0,-10.0,-4.0,-5.0,-1.0,13.0
1706291958.364267,-6.0,-8.0,-17.0,-6.0,-2.0,-1.0,1.0,1.0
1706291958.3943813,0.0,0.0,7.0,10.0,0.0,3.0,-1.0,-4.0
1706291958.3943813,-1.0,-1.0,13.0,-3.0,-9.0,-5.0,1.0,-7.0
1706291958.3943813,-2.0,-1.0,5.0,5.0,4.0,-1.0,1.0,7.0
1706291958.3943813,0.0,4.0,31.0,2.0,7.0,2.0,2.0,4.0
1706291958.4147465,-2.0,-3.0,-27.0,-4.0,1.0,3.0,-1.0,-4.0
1706291958.4147465,0.0,-4.0,0.0,0.0,1.0,-1.0,0.0,2.0
1706291958.4147465,-1.0,-3.0,19.0,-4.0,-5.0,-4.0,1.0,-3.0
1706291958.4147465,0.0,2.0,1.0,-9.0,-7.0,-4.0,-4.0,-17.0
1706291958.4347737,-1.0,-2.0,20.0,15.0,-2.0,-3.0,-9.0,2.0
1706291958.4347737,1.0,7.0,-9.0,-15.0,-7.0,-2.0,0.0,2.0
1706291958.4347737,-6.0,1.0,46.0,1.0,-1.0,-2.0,-4.0,-5.0
1706291958.4347737,-1.0,-3.0,-43.0,1.0,4.0,-1.0,16.0,4.0
1706291958.4443846,1.0,2.0,-16.0,-2.0,-6.0,0.0,-2.0,-1.0
1706291958.4443846,2.0,-10.0,20.0,10.0,1.0,-3.0,-1.0,0.0
1706291958.4443846,3.0,16.0,3.0,-12.0,4.0,3.0,0.0,0.0
1706291958.4443846,-1.0,0.0,11.0,-3.0,-4.0,-1.0,0.0,1.0
1706291958.4747283,5.0,11.0,7.0,0.0,-3.0,-4.0,3.0,2.0
1706291958.4747283,1.0,-12.0,-1.0,8.0,3.0,8.0,3.0,0.0
1706291958.4747283,15.0,-6.0,30.0,7.0,-1.0,-3.0,4.0,-1.0
1706291958.4747283,-26.0,-4.0,-54.0,-4.0,-1.0,4.0,-8.0,-10.0
1706291958.4846685,-5.0,1.0,-8.0,-12.0,-4.0,-6.0,0.0,-1.0
1706291958.4846685,-3.0,-10.0,-14.0,-10.0,-14.0,-10.0,-21.0,0.0
1706291958.4846685,4.0,-1.0,16.0,17.0,8.0,3.0,26.0,-3.0
1706291958.4846685,5.0,-2.0,-22.0,-2.0,5.0,3.0,-19.0,3.0
1706291958.5043857,-5.0,-14.0,-23.0,1.0,4.0,1.0,0.0,-5.0
1706291958.5043857,-2.0,17.0,0.0,-7.0,-1.0,-3.0,-6.0,1.0
1706291958.5043857,-5.0,7.0,19.0,9.0,-5.0,-4.0,-4.0,-4.0
1706291958.5043857,4.0,-2.0,-6.0,-11.0,-7.0,-5.0,3.0,-5.0
1706291958.534845,-4.0,3.0,3.0,-1.0,10.0,3.0,-2.0,6.0
1706291958.534845,-3.0,-8.0,-4.0,2.0,-1.0,-2.0,-1.0,-4.0
1706291958.534845,-5.0,-6.0,-40.0,-8.0,-5.0,-1.0,-6.0,-2.0
1706291958.534845,2.0,-2.0,28.0,17.0,0.0,1.0,3.0,4.0
1706291958.5543823,3.0,-5.0,5.0,-8.0,-7.0,-8.0,-8.0,-3.0
1706291958.5543823,-3.0,-3.0,-17.0,0.0,4.0,3.0,7.0,0.0
1706291958.5543823,-3.0,-1.0,-2.0,-4.0,-3.0,-1.0,-4.0,0.0
1706291958.5543823,-3.0,-15.0,48.0,8.0,2.0,-1.0,-5.0,0.0
1706291958.5646522,-4.0,-2.0,-30.0,-8.0,0.0,-8.0,-4.0,-4.0
1706291958.5646522,0.0,7.0,14.0,1.0,-4.0,8.0,30.0,1.0
1706291958.5646522,-5.0,-4.0,-17.0,-6.0,-5.0,-7.0,-46.0,-6.0
1706291958.5646522,4.0,-4.0,-4.0,-2.0,3.0,-1.0,-1.0,5.0
1706291958.594789,7.0,3.0,8.0,2.0,0.0,5.0,4.0,-5.0
1706291958.594789,1.0,-3.0,6.0,-4.0,-3.0,-12.0,-8.0,0.0
1706291958.594789,-3.0,-11.0,-31.0,-4.0,1.0,3.0,12.0,-2.0
1706291958.594789,3.0,19.0,15.0,-3.0,-6.0,-1.0,-3.0,2.0
1706291958.6143842,-7.0,-9.0,15.0,5.0,-1.0,1.0,4.0,-6.0
1706291958.6143842,7.0,18.0,56.0,9.0,0.0,0.0,-6.0,-2.0
1706291958.6143842,1.0,-33.0,-92.0,-7.0,0.0,1.0,1.0,-2.0
1706291958.6143842,6.0,19.0,-10.0,-11.0,-5.0,-8.0,-4.0,0.0
1706291958.6244164,-5.0,-1.0,26.0,0.0,-3.0,1.0,1.0,0.0
1706291958.6244164,7.0,6.0,31.0,3.0,3.0,3.0,26.0,7.0
1706291958.6244164,1.0,-4.0,-11.0,-7.0,-5.0,-1.0,-17.0,-5.0
1706291958.6244164,1.0,-4.0,4.0,4.0,-6.0,-5.0,-12.0,0.0
1706291958.6548376,3.0,-6.0,-7.0,4.0,9.0,1.0,34.0,1.0
1706291958.6548376,-2.0,1.0,23.0,12.0,9.0,10.0,-44.0,6.0
1706291958.6548376,-4.0,8.0,46.0,7.0,8.0,-5.0,1.0,-1.0
1706291958.6548376,-3.0,-5.0,-22.0,-9.0,-4.0,0.0,8.0,1.0
1706291958.6743824,-3.0,3.0,15.0,-2.0,-10.0,-3.0,-10.0,-2.0
1706291958.6743824,-8.0,-6.0,-17.0,-8.0,-5.0,-2.0,4.0,-5.0
1706291958.6743824,-8.0,-4.0,-39.0,-4.0,1.0,0.0,6.0,-5.0
1706291958.6743824,-2.0,-3.0,-2.0,-2.0,-3.0,0.0,-8.0,0.0
1706291958.6846159,2.0,1.0,-22.0,-4.0,-5.0,2.0,0.0,0.0
1706291958.6846159,19.0,-19.0,-25.0,-6.0,-2.0,-11.0,-30.0,-3.0
1706291958.6846159,-6.0,25.0,15.0,-1.0,-1.0,6.0,27.0,1.0
1706291958.6846159,-9.0,-21.0,25.0,-3.0,-1.0,-12.0,1.0,-6.0
1706291958.7147317,-14.0,7.0,34.0,1.0,0.0,5.0,-8.0,-13.0
1706291958.7147317,-3.0,-3.0,-45.0,-7.0,-3.0,-5.0,-2.0,-3.0
1706291958.7147317,1.0,0.0,14.0,2.0,-1.0,1.0,-3.0,1.0
1706291958.7147317,3.0,5.0,15.0,4.0,2.0,4.0,2.0,6.0
1706291958.7243922,4.0,0.0,-11.0,4.0,1.0,4.0,1.0,2.0
1706291958.7243922,-20.0,-27.0,-39.0,-12.0,-5.0,-10.0,-1.0,-5.0
1706291958.7243922,1.0,-1.0,51.0,4.0,2.0,-1.0,13.0,2.0
1706291958.7243922,-6.0,-3.0,-47.0,-3.0,0.0,11.0,18.0,2.0
1706291958.7443824,1.0,-5.0,-5.0,-2.0,-6.0,-14.0,-16.0,-13.0
1706291958.7443824,-4.0,3.0,-16.0,1.0,4.0,10.0,16.0,-1.0
1706291958.7443824,-1.0,-3.0,3.0,0.0,1.0,-7.0,-2.0,2.0
1706291958.7443824,4.0,3.0,1.0,-4.0,-5.0,-2.0,-6.0,-2.0
1706291958.7843812,0.0,-2.0,23.0,5.0,1.0,3.0,-2.0,5.0
1706291958.7843812,-9.0,1.0,-41.0,-7.0,0.0,2.0,5.0,-2.0
1706291958.7843812,1.0,1.0,-2.0,-2.0,2.0,3.0,-4.0,-3.0
1706291958.7843812,0.0,2.0,11.0,1.0,-1.0,1.0,-7.0,-3.0
1706291958.7843812,-2.0,-3.0,-5.0,-4.0,-5.0,-8.0,-3.0,5.0
1706291958.7843812,-2.0,4.0,9.0,-1.0,-4.0,-4.0,4.0,-3.0
1706291958.7843812,1.0,-4.0,-8.0,0.0,0.0,-3.0,4.0,3.0
1706291958.7843812,5.0,7.0,12.0,2.0,2.0,0.0,-30.0,-6.0
1706291958.8048089,7.0,-7.0,-34.0,-7.0,1.0,0.0,1.0,3.0
1706291958.8048089,12.0,-12.0,23.0,3.0,1.0,1.0,2.0,1.0
1706291958.8048089,1.0,5.0,6.0,5.0,0.0,0.0,4.0,-3.0
1706291958.8048089,-4.0,-5.0,-2.0,-6.0,-4.0,0.0,-9.0,-5.0
1706291958.8453226,17.0,-19.0,-4.0,-9.0,-4.0,-6.0,-4.0,5.0
1706291958.8453226,-24.0,30.0,27.0,1.0,-3.0,9.0,-3.0,-1.0
1706291958.8453226,-4.0,-6.0,26.0,-2.0,-2.0,-8.0,-13.0,-2.0
1706291958.8453226,-2.0,-15.0,-37.0,5.0,10.0,5.0,19.0,1.0
1706291958.8493996,-24.0,-15.0,-19.0,3.0,5.0,2.0,-1.0,-2.0
1706291958.8493996,7.0,9.0,2.0,-3.0,-3.0,-2.0,7.0,-3.0
1706291958.8503246,2.0,5.0,6.0,10.0,0.0,-3.0,3.0,3.0
1706291958.8503246,-9.0,5.0,53.0,-1.0,-5.0,-1.0,7.0,1.0
1706291958.8709579,-7.0,-11.0,-26.0,-6.0,-3.0,-9.0,-13.0,3.0
1706291958.8709579,5.0,-8.0,-31.0,-2.0,-1.0,4.0,0.0,-13.0
1706291958.8709579,7.0,-9.0,19.0,-13.0,-8.0,-4.0,-3.0,0.0
1706291958.8709579,-8.0,16.0,10.0,3.0,3.0,-3.0,-5.0,-4.0
1706291958.9106007,3.0,8.0,7.0,-1.0,1.0,4.0,2.0,1.0
1706291958.9106007,16.0,-1.0,3.0,0.0,-2.0,-5.0,0.0,4.0
1706291958.9106007,4.0,-8.0,-43.0,-7.0,-1.0,1.0,-5.0,-1.0
1706291958.9106007,-4.0,-10.0,-28.0,-7.0,-5.0,-2.0,1.0,-2.0
1706291958.9106007,0.0,7.0,1.0,-1.0,-3.0,3.0,22.0,1.0
1706291958.9106007,-9.0,-1.0,15.0,0.0,-2.0,-6.0,-1.0,-1.0
1706291958.9106007,-5.0,-2.0,-6.0,-1.0,2.0,0.0,-4.0,1.0
1706291958.9106007,3.0,1.0,3.0,6.0,4.0,21.0,25.0,3.0
1706291958.931055,2.0,3.0,10.0,2.0,-2.0,-27.0,-16.0,-3.0
1706291958.931055,-7.0,-13.0,-12.0,-3.0,2.0,3.0,-5.0,0.0
1706291958.931055,7.0,9.0,6.0,-5.0,-7.0,5.0,0.0,1.0
1706291958.931055,1.0,3.0,-11.0,-4.0,-5.0,-10.0,10.0,-1.0
1706291958.9506118,1.0,1.0,6.0,-3.0,0.0,18.0,1.0,1.0
1706291958.9506118,-17.0,11.0,30.0,9.0,7.0,-4.0,-6.0,3.0
1706291958.9606035,7.0,1.0,-18.0,-2.0,1.0,2.0,-3.0,3.0
1706291958.9606035,6.0,-19.0,-4.0,1.0,0.0,-3.0,-22.0,-4.0
1706291958.9706626,-14.0,-26.0,18.0,-5.0,-10.0,-7.0,-25.0,-11.0
1706291958.9706626,-4.0,14.0,-5.0,-12.0,-4.0,-2.0,2.0,0.0
1706291958.9706626,-12.0,15.0,29.0,2.0,0.0,5.0,-3.0,-2.0
1706291958.9706626,10.0,-8.0,3.0,2.0,-4.0,-8.0,-1.0,3.0
1706291958.99103,3.0,2.0,-12.0,4.0,4.0,5.0,4.0,0.0
1706291958.99103,2.0,-9.0,8.0,1.0,-3.0,-2.0,1.0,-1.0
1706291958.99103,-9.0,-7.0,-3.0,1.0,1.0,-2.0,0.0,-7.0
1706291958.99103,-6.0,8.0,4.0,1.0,1.0,-3.0,-1.0,-4.0
1706291959.0210497,7.0,5.0,-3.0,-7.0,-4.0,-1.0,-1.0,3.0
1706291959.0210497,-3.0,5.0,-2.0,8.0,3.0,4.0,2.0,-1.0
1706291959.0210497,-5.0,3.0,-8.0,0.0,1.0,-3.0,0.0,0.0
1706291959.0210497,1.0,-6.0,1.0,-3.0,-2.0,-2.0,-4.0,0.0
1706291959.0312483,7.0,6.0,-3.0,-3.0,0.0,6.0,1.0,1.0
1706291959.0312483,10.0,-7.0,-2.0,10.0,0.0,-4.0,-1.0,0.0
1706291959.0312483,-13.0,-5.0,7.0,1.0,-1.0,1.0,3.0,1.0
1706291959.0312483,-6.0,59.0,-16.0,-9.0,-4.0,-3.0,-3.0,-3.0
1706291959.0512815,-5.0,8.0,3.0,1.0,-1.0,2.0,-1.0,1.0
1706291959.0512815,4.0,-11.0,-13.0,-12.0,-4.0,-7.0,12.0,2.0
1706291959.0512815,-4.0,1.0,-19.0,-2.0,1.0,-5.0,4.0,-4.0
1706291959.0512815,-5.0,-13.0,14.0,2.0,-1.0,-1.0,-4.0,4.0
1706291959.0710468,-3.0,8.0,-1.0,-1.0,-3.0,-2.0,-1.0,-4.0
1706291959.0710468,7.0,17.0,1.0,-14.0,-16.0,-4.0,2.0,1.0
1706291959.0710468,-6.0,-16.0,25.0,1.0,6.0,6.0,-4.0,-8.0
1706291959.0710468,-3.0,-20.0,-46.0,18.0,24.0,6.0,3.0,2.0
1706291959.0814044,-12.0,-15.0,1.0,7.0,4.0,1.0,7.0,-1.0
1706291959.0814044,17.0,-33.0,1.0,1.0,-1.0,-4.0,-9.0,-2.0
1706291959.0913417,-14.0,32.0,-12.0,-6.0,-12.0,-6.0,-2.0,-4.0
1706291959.0913417,-10.0,-13.0,11.0,-13.0,-12.0,-7.0,-5.0,-5.0
1706291959.1110473,4.0,-7.0,-7.0,-1.0,-1.0,-3.0,-2.0,4.0
1706291959.1110473,-1.0,-2.0,-4.0,0.0,1.0,4.0,2.0,-4.0
1706291959.1110473,-9.0,-43.0,-17.0,-3.0,-3.0,2.0,10.0,-1.0
1706291959.1110473,14.0,-19.0,13.0,-4.0,-7.0,-17.0,4.0,-1.0
1706291959.1310503,-5.0,18.0,-16.0,1.0,3.0,4.0,7.0,-8.0
1706291959.1310503,-10.0,4.0,3.0,-2.0,-1.0,-5.0,-9.0,11.0
1706291959.1310503,7.0,-7.0,7.0,1.0,3.0,0.0,-2.0,1.0
1706291959.1310503,1.0,-10.0,10.0,4.0,-1.0,5.0,1.0,-1.0
1706291959.141082,6.0,10.0,35.0,3.0,-1.0,0.0,-1.0,-1.0
1706291959.141082,4.0,7.0,-45.0,-2.0,0.0,6.0,3.0,0.0
1706291959.1510496,-3.0,-35.0,-64.0,-15.0,-5.0,-16.0,2.0,4.0
1706291959.1510496,-10.0,23.0,2.0,-5.0,-5.0,-1.0,-9.0,-19.0
1706291959.171047,6.0,11.0,14.0,-1.0,-2.0,-3.0,-4.0,16.0
1706291959.171047,-9.0,12.0,14.0,12.0,9.0,5.0,-9.0,-10.0
1706291959.171047,-1.0,3.0,7.0,3.0,1.0,8.0,15.0,10.0
1706291959.171047,7.0,28.0,12.0,-8.0,-3.0,0.0,-11.0,0.0
1706291959.191364,-9.0,-7.0,-52.0,-6.0,-1.0,-9.0,4.0,-7.0
1706291959.191364,-11.0,2.0,17.0,-6.0,-3.0,-1.0,4.0,-1.0
1706291959.191364,-3.0,5.0,19.0,-6.0,-6.0,0.0,-7.0,-9.0
1706291959.191364,-4.0,-4.0,12.0,1.0,0.0,-2.0,3.0,3.0
1706291959.2110536,-6.0,0.0,-3.0,2.0,6.0,6.0,-5.0,-3.0
1706291959.2110536,9.0,-4.0,-9.0,6.0,2.0,-3.0,2.0,1.0
1706291959.2110536,1.0,12.0,-2.0,-5.0,-4.0,-2.0,-9.0,-2.0
1706291959.2110536,-1.0,-1.0,-2.0,5.0,-1.0,2.0,11.0,2.0
1706291959.2410486,4.0,-4.0,6.0,-4.0,-3.0,5.0,-3.0,2.0
1706291959.2410486,-4.0,-11.0,-6.0,-7.0,-3.0,-4.0,-3.0,-2.0
1706291959.2410486,8.0,9.0,11.0,5.0,5.0,-1.0,-5.0,-2.0
1706291959.2410486,11.0,-4.0,9.0,0.0,0.0,2.0,5.0,5.0
1706291959.2510843,-5.0,-10.0,-23.0,2.0,-7.0,-5.0,-4.0,-4.0
1706291959.2510843,0.0,-4.0,3.0,-6.0,1.0,-1.0,0.0,-3.0
1706291959.2510843,-8.0,20.0,-9.0,4.0,0.0,1.0,-10.0,-3.0
1706291959.2510843,8.0,-12.0,3.0,-1.0,-5.0,-5.0,-2.0,-1.0
1706291959.2613988,-16.0,-15.0,-13.0,-12.0,-4.0,3.0,26.0,6.0
1706291959.2613988,-13.0,-39.0,-8.0,4.0,-4.0,-17.0,-22.0,-9.0
1706291959.2710493,11.0,3.0,31.0,1.0,-1.0,-3.0,-6.0,-6.0
1706291959.2710493,-5.0,-11.0,0.0,-3.0,-1.0,-7.0,-4.0,1.0
1706291959.2914655,5.0,32.0,20.0,6.0,1.0,5.0,3.0,4.0
1706291959.2914655,-13.0,-3.0,-13.0,-6.0,-4.0,2.0,1.0,0.0
1706291959.2914655,-1.0,-23.0,9.0,2.0,0.0,-1.0,0.0,0.0
1706291959.2914655,-1.0,3.0,-14.0,-3.0,1.0,9.0,3.0,-7.0
1706291959.311081,4.0,6.0,13.0,3.0,0.0,-18.0,-14.0,7.0
1706291959.311081,5.0,6.0,2.0,3.0,1.0,10.0,5.0,1.0
1706291959.311081,1.0,0.0,-15.0,1.0,-2.0,-9.0,28.0,-4.0
1706291959.311081,-5.0,4.0,2.0,-1.0,-1.0,0.0,-28.0,4.0
1706291959.3212926,1.0,-7.0,-8.0,-3.0,-2.0,-2.0,1.0,-5.0
1706291959.3212926,2.0,16.0,34.0,5.0,3.0,1.0,-6.0,-3.0
1706291959.331223,-28.0,-2.0,-42.0,-8.0,-1.0,2.0,-9.0,-2.0
1706291959.331223,-24.0,17.0,-6.0,-5.0,-3.0,-1.0,4.0,0.0
1706291959.3513646,4.0,-2.0,-3.0,8.0,3.0,-3.0,2.0,-8.0
1706291959.3513646,30.0,-21.0,7.0,-3.0,-2.0,-3.0,-5.0,2.0
1706291959.3513646,-14.0,14.0,15.0,4.0,0.0,2.0,-2.0,2.0
1706291959.3513646,-4.0,-21.0,-11.0,-2.0,-1.0,0.0,1.0,-5.0
1706291959.3821814,-5.0,-3.0,14.0,-2.0,0.0,1.0,-18.0,-8.0
1706291959.3821814,4.0,10.0,-15.0,-1.0,-2.0,-4.0,24.0,5.0
1706291959.3821814,19.0,2.0,18.0,5.0,1.0,6.0,2.0,1.0
1706291959.3821814,-2.0,-13.0,-39.0,-16.0,-7.0,-18.0,-28.0,-4.0
1706291959.3929362,2.0,1.0,10.0,-9.0,-7.0,0.0,-2.0,2.0
1706291959.3929362,-14.0,-5.0,8.0,2.0,3.0,1.0,-6.0,-15.0
1706291959.3929362,10.0,-2.0,3.0,11.0,10.0,8.0,-9.0,0.0
1706291959.3929362,4.0,-1.0,4.0,7.0,5.0,4.0,10.0,-1.0
1706291959.412942,-4.0,-2.0,1.0,-6.0,-3.0,1.0,1.0,3.0
1706291959.412942,-10.0,-4.0,-4.0,-1.0,-8.0,-1.0,-4.0,0.0
1706291959.412942,3.0,-4.0,-19.0,-3.0,-4.0,-9.0,-4.0,1.0
1706291959.412942,-1.0,8.0,16.0,8.0,9.0,11.0,3.0,-10.0
1706291959.433248,9.0,-4.0,23.0,-5.0,-4.0,-9.0,22.0,21.0
1706291959.433248,14.0,-13.0,-59.0,-11.0,-3.0,-2.0,-12.0,-28.0
1706291959.433248,9.0,3.0,-26.0,-15.0,-9.0,-4.0,-3.0,13.0
1706291959.433248,5.0,-7.0,8.0,1.0,-4.0,-1.0,0.0,7.0
1706291959.4629412,-4.0,-4.0,-13.0,-2.0,1.0,3.0,0.0,-13.0
1706291959.4629412,-3.0,13.0,29.0,8.0,2.0,2.0,6.0,7.0
1706291959.4629412,-8.0,-31.0,10.0,5.0,2.0,-1.0,-14.0,2.0
1706291959.4629412,-2.0,15.0,-16.0,-4.0,-3.0,10.0,16.0,-4.0
1706291959.4629412,-7.0,-11.0,-3.0,5.0,2.0,-17.0,-1.0,-5.0
1706291959.4629412,4.0,1.0,2.0,-4.0,-4.0,-2.0,-1.0,14.0
1706291959.4629412,-6.0,-3.0,3.0,2.0,2.0,3.0,-7.0,-20.0
1706291959.4729378,-8.0,-12.0,-3.0,-3.0,-3.0,-7.0,9.0,4.0
1706291959.493294,5.0,2.0,-15.0,-5.0,-1.0,5.0,-8.0,-6.0
1706291959.493294,-15.0,5.0,6.0,-1.0,-1.0,-2.0,2.0,4.0
1706291959.493294,8.0,7.0,5.0,-4.0,-1.0,-2.0,0.0,-1.0
1706291959.493294,9.0,-9.0,11.0,5.0,0.0,2.0,5.0,1.0
1706291959.512939,-16.0,55.0,-12.0,-4.0,-4.0,-2.0,-12.0,-1.0
1706291959.512939,-2.0,7.0,4.0,2.0,4.0,0.0,-1.0,1.0
1706291959.512939,3.0,-6.0,-6.0,-6.0,-6.0,-2.0,6.0,1.0
1706291959.512939,-1.0,11.0,25.0,6.0,1.0,-3.0,-2.0,1.0
1706291959.522937,-8.0,-40.0,-87.0,-15.0,0.0,-2.0,-11.0,-10.0
1706291959.532942,-2.0,10.0,39.0,1.0,1.0,4.0,5.0,11.0
1706291959.532942,2.0,15.0,8.0,0.0,1.0,-2.0,-4.0,11.0
1706291959.532942,3.0,-4.0,-4.0,2.0,-2.0,-6.0,-8.0,-7.0
1706291959.5532568,1.0,8.0,26.0,4.0,1.0,13.0,4.0,-2.0
1706291959.5532568,-4.0,-4.0,-5.0,-2.0,-4.0,-14.0,-11.0,-1.0
1706291959.5532568,4.0,-6.0,-17.0,1.0,-2.0,0.0,0.0,9.0
1706291959.5532568,14.0,10.0,13.0,-5.0,-4.0,-3.0,11.0,5.0
1706291959.572938,5.0,-2.0,15.0,-2.0,0.0,5.0,2.0,-6.0
1706291959.572938,-8.0,-2.0,-22.0,-2.0,0.0,-3.0,-23.0,5.0
1706291959.572938,19.0,3.0,16.0,2.0,-1.0,-2.0,-2.0,-4.0
1706291959.572938,-25.0,24.0,-7.0,-1.0,2.0,2.0,-3.0,1.0
1706291959.5929432,-5.0,-10.0,1.0,3.0,1.0,2.0,-6.0,-5.0
1706291959.5929432,-2.0,39.0,2.0,-6.0,-3.0,2.0,13.0,-3.0
1706291959.5929432,22.0,-8.0,-3.0,-5.0,-5.0,-6.0,-3.0,-3.0
1706291959.5929432,-29.0,16.0,-12.0,-2.0,2.0,-3.0,-10.0,-3.0
1706291959.6329384,0.0,-16.0,-2.0,1.0,-2.0,-5.0,-10.0,5.0
1706291959.6329384,-8.0,-10.0,16.0,-1.0,-1.0,0.0,28.0,-5.0
1706291959.6329384,-6.0,4.0,-30.0,-1.0,-1.0,-1.0,-1.0,2.0
1706291959.6329384,3.0,-20.0,-4.0,-5.0,-3.0,2.0,6.0,-1.0
1706291959.6329384,1.0,-6.0,10.0,-1.0,-4.0,-6.0,-3.0,1.0
1706291959.6329384,-7.0,-10.0,-2.0,1.0,0.0,1.0,-6.0,-4.0
1706291959.6329384,0.0,17.0,14.0,7.0,4.0,7.0,3.0,-6.0
1706291959.6329384,11.0,-15.0,-3.0,0.0,-1.0,1.0,4.0,6.0
1706291959.652943,4.0,7.0,35.0,6.0,4.0,-6.0,-20.0,-2.0
1706291959.652943,-3.0,-12.0,-59.0,-7.0,-7.0,-9.0,-5.0,-5.0
1706291959.652943,-17.0,-9.0,48.0,-13.0,-10.0,-4.0,3.0,-11.0
1706291959.652943,2.0,-15.0,-9.0,4.0,7.0,0.0,-10.0,-2.0
1706291959.6929407,3.0,2.0,11.0,7.0,5.0,7.0,7.0,2.0
1706291959.6929407,10.0,7.0,16.0,7.0,5.0,8.0,4.0,5.0
1706291959.6929407,-5.0,-3.0,-6.0,-4.0,-4.0,-7.0,-7.0,-2.0
1706291959.6929407,5.0,-8.0,-3.0,-7.0,-7.0,0.0,1.0,0.0
1706291959.6929407,7.0,-16.0,-5.0,4.0,2.0,0.0,5.0,3.0
1706291959.6929407,-27.0,19.0,2.0,-2.0,0.0,-2.0,-7.0,-15.0
1706291959.6929407,5.0,-5.0,-14.0,-3.0,0.0,-1.0,10.0,10.0
1706291959.6929407,9.0,16.0,9.0,-2.0,-3.0,0.0,-7.0,-2.0
1706291959.7129407,-6.0,-3.0,-17.0,-8.0,-3.0,0.0,12.0,1.0
1706291959.7129407,0.0,-9.0,8.0,-2.0,-4.0,-9.0,-16.0,-1.0
1706291959.7129407,-13.0,-3.0,3.0,2.0,3.0,5.0,5.0,-7.0
1706291959.7129407,-2.0,-3.0,5.0,1.0,0.0,-1.0,16.0,-2.0
1706291959.7429373,16.0,-8.0,-2.0,-4.0,-3.0,-6.0,-7.0,0.0
1706291959.7429373,-7.0,6.0,1.0,-2.0,1.0,4.0,4.0,0.0
1706291959.7429373,-3.0,3.0,10.0,3.0,2.0,4.0,5.0,0.0
1706291959.7429373,3.0,-16.0,-16.0,5.0,-1.0,-8.0,-29.0,-1.0
1706291959.7531333,4.0,12.0,-11.0,-8.0,-6.0,-2.0,-9.0,-3.0
1706291959.7531333,5.0,-15.0,23.0,-3.0,2.0,2.0,2.0,3.0
1706291959.7531333,-2.0,9.0,-11.0,3.0,5.0,0.0,-14.0,-11.0
1706291959.7531333,0.0,0.0,5.0,-2.0,-2.0,5.0,7.0,-1.0
1706291959.7729423,-9.0,-5.0,-8.0,1.0,-3.0,-3.0,6.0,-4.0
1706291959.7729423,6.0,11.0,12.0,3.0,2.0,-2.0,0.0,5.0
1706291959.7729423,-6.0,-1.0,-1.0,-10.0,-8.0,-3.0,-3.0,-4.0
1706291959.7729423,1.0,-4.0,-12.0,-5.0,-4.0,-4.0,1.0,-1.0
1706291959.802936,-8.0,-4.0,21.0,1.0,3.0,9.0,21.0,-2.0
1706291959.802936,7.0,-6.0,-29.0,4.0,1.0,-10.0,-6.0,6.0
1706291959.802936,-7.0,-2.0,-2.0,-1.0,-1.0,0.0,-6.0,-2.0
1706291959.802936,-6.0,-70.0,-16.0,-8.0,-3.0,4.0,8.0,-3.0
1706291959.8233812,-3.0,18.0,4.0,-4.0,-7.0,-17.0,-6.0,5.0
1706291959.8233812,-4.0,-1.0,10.0,0.0,0.0,8.0,-1.0,-4.0
1706291959.8233812,-4.0,-12.0,4.0,1.0,-1.0,-5.0,2.0,1.0
1706291959.8233812,-2.0,1.0,5.0,-6.0,-2.0,4.0,1.0,-1.0
1706291959.8233812,8.0,-17.0,2.0,8.0,5.0,8.0,4.0,-1.0
1706291959.8233812,8.0,-16.0,-9.0,-2.0,-1.0,1.0,-11.0,-1.0
1706291959.832942,3.0,-15.0,3.0,0.0,-2.0,-9.0,-7.0,-1.0
1706291959.832942,-2.0,17.0,9.0,0.0,0.0,-5.0,-10.0,-10.0
1706291959.8529859,-5.0,-6.0,-22.0,-6.0,-4.0,4.0,7.0,-2.0
1706291959.8529859,-3.0,6.0,1.0,-5.0,-4.0,-8.0,5.0,-2.0
1706291959.8529859,-11.0,14.0,-8.0,1.0,-1.0,5.0,-2.0,4.0
1706291959.8529859,3.0,8.0,6.0,2.0,3.0,-2.0,-1.0,-1.0
1706291959.873182,6.0,6.0,20.0,5.0,2.0,4.0,7.0,8.0
1706291959.873182,-20.0,-78.0,-43.0,-6.0,-1.0,-6.0,-9.0,-7.0
1706291959.873182,3.0,22.0,21.0,0.0,-2.0,-11.0,2.0,-4.0
1706291959.873182,8.0,10.0,-8.0,-3.0,-3.0,-3.0,1.0,12.0
1706291959.8929427,-9.0,-5.0,-14.0,-6.0,-4.0,-2.0,-2.0,-11.0
1706291959.8929427,-3.0,2.0,19.0,2.0,2.0,5.0,-1.0,2.0
1706291959.8929427,2.0,2.0,-5.0,3.0,4.0,2.0,2.0,2.0
1706291959.8929427,-20.0,-7.0,-5.0,7.0,3.0,1.0,4.0,-1.0
1706291959.920466,-2.0,3.0,-3.0,-1.0,3.0,4.0,-15.0,1.0
1706291959.920466,3.0,8.0,0.0,0.0,-4.0,-7.0,9.0,0.0
1706291959.920466,5.0,-3.0,-22.0,-6.0,-6.0,-3.0,4.0,0.0
1706291959.920466,-2.0,8.0,30.0,0.0,-5.0,-6.0,-25.0,-4.0
1706291959.9363518,-6.0,-2.0,-40.0,-4.0,1.0,4.0,12.0,1.0
1706291959.9363518,3.0,11.0,34.0,-4.0,3.0,-7.0,-9.0,-5.0
1706291959.9363518,-3.0,4.0,15.0,9.0,0.0,4.0,1.0,-2.0
1706291959.9363518,-3.0,-6.0,-45.0,-9.0,-5.0,-1.0,20.0,6.0
1706291959.9461503,0.0,0.0,8.0,-1.0,-1.0,8.0,-3.0,1.0
1706291959.9461503,1.0,13.0,-7.0,2.0,-2.0,-6.0,-11.0,3.0
1706291959.9461503,20.0,-29.0,-10.0,-4.0,1.0,1.0,-5.0,2.0
1706291959.9461503,0.0,7.0,9.0,-1.0,-3.0,-1.0,10.0,1.0
1706291959.9658813,4.0,3.0,12.0,-2.0,-4.0,-7.0,7.0,0.0
1706291959.9658813,34.0,-22.0,-7.0,5.0,1.0,5.0,-2.0,-4.0
1706291959.975889,-15.0,5.0,-10.0,-8.0,-1.0,-2.0,1.0,3.0
1706291959.975889,8.0,2.0,23.0,2.0,-1.0,0.0,-2.0,-5.0
1706291959.996237,-13.0,-4.0,-31.0,-4.0,0.0,-6.0,-6.0,-6.0
1706291959.996237,-7.0,-16.0,-1.0,-5.0,-3.0,8.0,9.0,2.0
1706291959.996237,-4.0,-3.0,-5.0,2.0,0.0,-6.0,-6.0,-2.0
1706291959.996237,2.0,5.0,5.0,-9.0,-5.0,-4.0,-1.0,0.0
1706291960.0058901,1.0,-14.0,-8.0,-3.0,-9.0,-8.0,-12.0,-23.0
1706291960.0058901,0.0,17.0,21.0,16.0,16.0,10.0,1.0,14.0
1706291960.0158856,-8.0,-18.0,-24.0,5.0,4.0,-1.0,-1.0,-7.0
1706291960.0158856,-3.0,7.0,-4.0,6.0,7.0,4.0,-1.0,0.0
1706291960.0358799,-2.0,3.0,10.0,6.0,-1.0,-3.0,-8.0,4.0
1706291960.0358799,-8.0,-2.0,-21.0,-14.0,-11.0,0.0,6.0,-2.0
1706291960.0358799,0.0,16.0,-10.0,-6.0,-1.0,2.0,-2.0,-5.0
1706291960.0358799,0.0,-10.0,9.0,-6.0,-8.0,-18.0,1.0,0.0
1706291960.0563376,-3.0,1.0,3.0,-5.0,-1.0,-1.0,14.0,2.0
1706291960.0563376,-3.0,15.0,15.0,-2.0,-3.0,4.0,1.0,-5.0
1706291960.0563376,2.0,-4.0,-3.0,4.0,1.0,-4.0,7.0,3.0
1706291960.0563376,-1.0,-6.0,-14.0,-4.0,-1.0,-4.0,-23.0,3.0
1706291960.0658815,-2.0,-4.0,7.0,3.0,0.0,-4.0,-10.0,-11.0
1706291960.0658815,-42.0,-25.0,-8.0,-3.0,-2.0,2.0,1.0,-7.0
1706291960.0759165,-14.0,50.0,22.0,1.0,-1.0,3.0,-2.0,11.0
1706291960.0759165,-2.0,-4.0,-25.0,1.0,1.0,-3.0,2.0,-9.0
1706291960.0861611,-5.0,-10.0,-3.0,0.0,2.0,-1.0,1.0,8.0
1706291960.0861611,8.0,-8.0,7.0,-2.0,-2.0,-1.0,-3.0,-4.0
1706291960.096036,0.0,-4.0,-17.0,-6.0,-4.0,-4.0,3.0,-8.0
1706291960.096036,0.0,8.0,6.0,1.0,1.0,4.0,6.0,7.0
1706291960.1258848,19.0,0.0,7.0,4.0,1.0,-2.0,-1.0,6.0
1706291960.1258848,7.0,13.0,-6.0,-4.0,-4.0,-4.0,1.0,-6.0
1706291960.1258848,9.0,-12.0,-1.0,-6.0,-3.0,-2.0,-1.0,1.0
1706291960.1258848,4.0,5.0,5.0,-1.0,-1.0,1.0,-2.0,0.0
1706291960.1258848,5.0,-2.0,6.0,-1.0,-5.0,-2.0,-8.0,-6.0
1706291960.1258848,7.0,18.0,9.0,2.0,-2.0,-2.0,-3.0,8.0
1706291960.1360002,-2.0,-20.0,-3.0,14.0,7.0,6.0,7.0,-3.0
1706291960.1360002,-13.0,26.0,5.0,-5.0,-2.0,1.0,-4.0,-7.0
1706291960.1462893,-4.0,11.0,9.0,-3.0,-1.0,-1.0,-4.0,2.0
1706291960.1462893,-1.0,13.0,1.0,-3.0,-4.0,-3.0,2.0,2.0
1706291960.1462893,-8.0,-12.0,-1.0,-6.0,-5.0,-1.0,-5.0,0.0
1706291960.1462893,12.0,-35.0,-7.0,3.0,4.0,2.0,2.0,2.0
1706291960.1758838,-5.0,11.0,5.0,1.0,-1.0,-2.0,0.0,-3.0
1706291960.1758838,0.0,18.0,-1.0,-3.0,-3.0,-2.0,1.0,2.0
1706291960.1758838,-11.0,-36.0,-6.0,-1.0,0.0,-2.0,-6.0,-3.0
1706291960.1758838,0.0,0.0,-4.0,5.0,4.0,1.0,0.0,-8.0
1706291960.1859176,-6.0,0.0,-5.0,0.0,0.0,0.0,0.0,4.0
1706291960.1859176,1.0,-12.0,-13.0,-5.0,-4.0,-3.0,0.0,-5.0
1706291960.1961555,4.0,15.0,9.0,-4.0,-5.0,3.0,20.0,1.0
1706291960.1961555,6.0,-21.0,5.0,-3.0,2.0,3.0,-14.0,0.0
1706291960.2061572,-14.0,22.0,6.0,5.0,-4.0,-20.0,11.0,-1.0
1706291960.2158895,-7.0,-1.0,-25.0,-3.0,0.0,0.0,-2.0,-2.0
1706291960.2158895,13.0,0.0,8.0,1.0,4.0,4.0,4.0,-1.0
1706291960.2158895,2.0,4.0,-15.0,-3.0,-2.0,-3.0,-3.0,-2.0
1706291960.2458825,7.0,-10.0,5.0,-5.0,-1.0,2.0,-9.0,1.0
1706291960.2458825,-15.0,-9.0,9.0,-2.0,1.0,2.0,8.0,14.0
1706291960.2458825,7.0,-19.0,-5.0,-4.0,-4.0,-3.0,-13.0,-31.0
1706291960.2458825,13.0,-1.0,-3.0,6.0,2.0,4.0,1.0,-3.0
1706291960.2458825,8.0,-12.0,-7.0,-7.0,-5.0,-1.0,-13.0,-3.0
1706291960.2458825,-7.0,19.0,-5.0,0.0,-1.0,-4.0,7.0,-6.0
1706291960.2559073,0.0,2.0,-4.0,-5.0,-1.0,-1.0,-9.0,12.0
1706291960.2559073,-8.0,-7.0,-13.0,-6.0,-7.0,-6.0,1.0,-1.0
1706291960.2662246,0.0,-9.0,-3.0,5.0,3.0,2.0,0.0,-2.0
1706291960.2662246,6.0,4.0,4.0,3.0,8.0,3.0,0.0,-8.0
1706291960.2662246,-5.0,16.0,9.0,3.0,-2.0,-2.0,-6.0,1.0
1706291960.2662246,-1.0,5.0,7.0,-4.0,-3.0,-2.0,5.0,-2.0
1706291960.2958827,-8.0,-3.0,1.0,-10.0,-6.0,-2.0,3.0,3.0
1706291960.2958827,1.0,-9.0,-18.0,3.0,-4.0,-1.0,-3.0,-6.0
1706291960.2958827,-6.0,10.0,3.0,-7.0,-3.0,-4.0,-3.0,3.0
1706291960.2958827,-21.0,20.0,9.0,11.0,10.0,4.0,15.0,9.0
1706291960.3061066,-3.0,-8.0,-7.0,1.0,8.0,5.0,-35.0,-20.0
1706291960.3061066,5.0,2.0,2.0,0.0,2.0,-1.0,1.0,1.0
1706291960.316096,-4.0,-5.0,-4.0,-5.0,-4.0,-3.0,-3.0,0.0
1706291960.316096,1.0,-7.0,-4.0,-11.0,-11.0,-4.0,1.0,-3.0
1706291960.3261619,-1.0,2.0,0.0,-3.0,-2.0,4.0,18.0,5.0
1706291960.335888,-2.0,-4.0,4.0,0.0,-3.0,-8.0,-33.0,-2.0
1706291960.335888,-2.0,3.0,-15.0,-4.0,-2.0,0.0,-5.0,0.0
1706291960.335888,-8.0,-12.0,2.0,0.0,1.0,-4.0,-16.0,-1.0
1706291960.3658862,0.0,25.0,4.0,4.0,2.0,5.0,22.0,4.0
1706291960.3658862,1.0,-10.0,-16.0,-4.0,-4.0,0.0,2.0,-3.0
1706291960.3658862,-11.0,-10.0,33.0,-5.0,-3.0,-1.0,2.0,1.0
1706291960.3658862,-5.0,28.0,-10.0,10.0,3.0,1.0,-4.0,16.0
1706291960.3758876,-6.0,-8.0,6.0,7.0,1.0,-1.0,-4.0,-4.0
1706291960.3758876,6.0,-30.0,-21.0,-5.0,-2.0,-3.0,4.0,-6.0
1706291960.3758876,19.0,-5.0,5.0,2.0,3.0,-3.0,-2.0,2.0
1706291960.3758876,0.0,-14.0,-12.0,-6.0,-4.0,0.0,11.0,12.0
1706291960.3861504,-1.0,-7.0,25.0,-7.0,-3.0,-4.0,-2.0,4.0
1706291960.3958888,0.0,2.0,7.0,-8.0,-11.0,-5.0,-2.0,-2.0
1706291960.3958888,-5.0,-7.0,-14.0,0.0,3.0,1.0,2.0,-1.0
1706291960.3958888,8.0,11.0,5.0,6.0,11.0,6.0,1.0,-6.0
1706291960.4303145,6.0,4.0,-13.0,2.0,-1.0,-1.0,2.0,3.0
1706291960.4313152,7.0,-7.0,5.0,12.0,3.0,2.0,-4.0,-2.0
1706291960.4313152,-6.0,36.0,-8.0,-1.0,-5.0,-6.0,-5.0,1.0
1706291960.4313152,-1.0,-5.0,5.0,-5.0,-7.0,-2.0,0.0,-10.0
1706291960.440333,-4.0,-27.0,-15.0,-13.0,-4.0,-3.0,-6.0,-4.0
1706291960.440333,18.0,24.0,5.0,-5.0,0.0,2.0,10.0,12.0
1706291960.440333,9.0,5.0,-3.0,1.0,-3.0,1.0,4.0,-9.0
1706291960.4413285,4.0,-5.0,1.0,-9.0,-4.0,-5.0,-31.0,-12.0
1706291960.458618,-9.0,12.0,-6.0,2.0,3.0,3.0,1.0,2.0
1706291960.458618,-18.0,-2.0,3.0,1.0,-4.0,-3.0,0.0,-2.0
1706291960.458618,-6.0,-27.0,-11.0,6.0,7.0,2.0,3.0,6.0
1706291960.458618,1.0,8.0,6.0,4.0,1.0,0.0,5.0,-4.0
1706291960.4689107,-16.0,-10.0,-6.0,-3.0,-6.0,-4.0,-3.0,-6.0
1706291960.4689107,-12.0,12.0,-5.0,-9.0,-5.0,-3.0,-4.0,-3.0
1706291960.4689107,2.0,16.0,13.0,-12.0,-12.0,-6.0,-3.0,2.0
1706291960.478938,-1.0,-16.0,-14.0,-2.0,1.0,0.0,6.0,-3.0
1706291960.4989333,4.0,11.0,-8.0,13.0,16.0,4.0,-1.0,2.0
1706291960.4989333,10.0,-26.0,11.0,2.0,3.0,2.0,5.0,1.0
1706291960.4989333,-8.0,-1.0,-15.0,-5.0,-9.0,-6.0,-5.0,-5.0
1706291960.4989333,-4.0,-2.0,23.0,-10.0,-16.0,-5.0,1.0,-4.0
1706291960.5189302,9.0,12.0,2.0,4.0,9.0,1.0,2.0,3.0
1706291960.5189302,-3.0,2.0,3.0,4.0,11.0,4.0,-1.0,-3.0
1706291960.5189302,8.0,-3.0,12.0,4.0,0.0,1.0,1.0,6.0
1706291960.5189302,11.0,-3.0,-7.0,-3.0,-11.0,-5.0,-7.0,-27.0
1706291960.5292468,-4.0,-16.0,1.0,-1.0,7.0,6.0,23.0,14.0
1706291960.5292468,3.0,3.0,4.0,6.0,0.0,-10.0,-10.0,-17.0
1706291960.5292468,-21.0,11.0,1.0,3.0,3.0,0.0,-1.0,3.0
1706291960.5292468,-6.0,10.0,-1.0,-1.0,0.0,7.0,17.0,3.0
1706291960.55936,-1.0,3.0,-8.0,-13.0,-16.0,-9.0,-8.0,-2.0
1706291960.55936,-13.0,20.0,4.0,-4.0,-3.0,6.0,5.0,7.0
1706291960.55936,2.0,2.0,-8.0,0.0,0.0,-2.0,-2.0,-6.0
1706291960.55936,-5.0,-11.0,-4.0,-2.0,-3.0,-1.0,-2.0,4.0
1706291960.5789273,0.0,-6.0,-10.0,-11.0,-9.0,-1.0,-5.0,-17.0
1706291960.5789273,3.0,-3.0,-1.0,-18.0,-5.0,-1.0,3.0,25.0
1706291960.5789273,2.0,-49.0,7.0,25.0,9.0,3.0,-3.0,12.0
1706291960.5789273,-4.0,-16.0,-17.0,-1.0,4.0,-1.0,-2.0,-6.0
1706291960.5892599,13.0,31.0,1.0,-3.0,-4.0,-4.0,-7.0,1.0
1706291960.5892599,-5.0,-17.0,11.0,19.0,10.0,1.0,0.0,-7.0
1706291960.5892599,-5.0,-10.0,-23.0,-16.0,-2.0,0.0,-1.0,-7.0
1706291960.5892599,-2.0,-3.0,-6.0,0.0,2.0,-4.0,-1.0,7.0
1706291960.628927,-1.0,0.0,10.0,2.0,-4.0,-4.0,-4.0,-5.0
1706291960.628927,-3.0,3.0,13.0,-10.0,-5.0,-2.0,-3.0,-6.0
1706291960.628927,6.0,8.0,18.0,1.0,-2.0,0.0,0.0,1.0
1706291960.628927,12.0,6.0,24.0,6.0,7.0,4.0,6.0,15.0
1706291960.628927,-17.0,27.0,-56.0,-8.0,-1.0,3.0,-3.0,5.0
1706291960.628927,1.0,3.0,1.0,6.0,5.0,0.0,1.0,-2.0
1706291960.628927,4.0,-6.0,-18.0,-5.0,-6.0,-4.0,-3.0,-1.0
1706291960.628927,-2.0,20.0,12.0,-7.0,-5.0,-3.0,2.0,-15.0
1706291960.648933,5.0,-11.0,21.0,-2.0,-9.0,-2.0,-1.0,21.0
1706291960.648933,-4.0,-5.0,-15.0,-2.0,2.0,1.0,-6.0,-18.0
1706291960.6589327,6.0,16.0,1.0,4.0,9.0,3.0,10.0,21.0
1706291960.6589327,-15.0,70.0,6.0,4.0,0.0,-5.0,-4.0,-2.0
1706291960.6989267,24.0,-64.0,-1.0,4.0,1.0,1.0,-4.0,-5.0
1706291960.6989267,-6.0,6.0,-13.0,-13.0,-13.0,-6.0,-4.0,-8.0
1706291960.6989267,-4.0,-7.0,15.0,-7.0,-2.0,1.0,-6.0,-8.0
1706291960.6989267,-1.0,-5.0,-3.0,0.0,4.0,2.0,0.0,1.0
1706291960.6989267,0.0,-7.0,5.0,9.0,3.0,-3.0,-3.0,-7.0
1706291960.6989267,6.0,1.0,11.0,5.0,-3.0,0.0,3.0,12.0
1706291960.6989267,-6.0,-4.0,-51.0,-22.0,-12.0,-10.0,-9.0,-15.0
1706291960.6989267,6.0,-17.0,-9.0,3.0,9.0,8.0,3.0,6.0
1706291960.7093012,-7.0,6.0,0.0,0.0,0.0,-1.0,-2.0,-3.0
1706291960.7093012,3.0,-4.0,5.0,-1.0,2.0,-1.0,2.0,0.0
1706291960.7093012,-7.0,4.0,23.0,4.0,-2.0,-4.0,-2.0,-2.0
1706291960.7093012,-1.0,-11.0,-7.0,-8.0,-5.0,-3.0,-2.0,-1.0
1706291960.7489278,-8.0,-1.0,7.0,9.0,7.0,1.0,2.0,-6.0
1706291960.7489278,-3.0,1.0,-16.0,-4.0,-1.0,-2.0,-16.0,15.0
1706291960.7489278,7.0,-6.0,-6.0,-1.0,-4.0,0.0,2.0,-9.0
1706291960.7489278,-1.0,-14.0,-9.0,-10.0,-9.0,-2.0,-3.0,4.0
1706291960.7489278,11.0,6.0,7.0,-4.0,-2.0,3.0,1.0,-3.0
1706291960.7489278,-7.0,-19.0,2.0,1.0,-1.0,-1.0,5.0,0.0
1706291960.7489278,4.0,0.0,-6.0,-1.0,2.0,3.0,2.0,9.0
1706291960.7489278,6.0,-7.0,9.0,-1.0,-1.0,-4.0,-5.0,-2.0
1706291960.7692132,-6.0,4.0,8.0,-5.0,-1.0,-4.0,0.0,0.0
1706291960.7692132,-9.0,-26.0,-35.0,-4.0,-3.0,-3.0,-2.0,-10.0
1706291960.7692132,-9.0,42.0,45.0,5.0,5.0,5.0,0.0,-1.0
1706291960.7692132,23.0,-6.0,-21.0,2.0,-3.0,-1.0,2.0,1.0
1706291960.808929,-20.0,-30.0,0.0,-2.0,-3.0,-1.0,-2.0,-4.0
1706291960.808929,1.0,0.0,4.0,-2.0,-1.0,-1.0,2.0,-7.0
1706291960.808929,3.0,-2.0,4.0,4.0,3.0,0.0,-1.0,4.0
1706291960.808929,-10.0,3.0,-3.0,4.0,2.0,-2.0,-6.0,5.0
1706291960.808929,-6.0,-6.0,-5.0,-4.0,-4.0,-3.0,-4.0,-2.0
1706291960.808929,-9.0,24.0,0.0,-1.0,-2.0,0.0,-3.0,-11.0
1706291960.808929,2.0,-6.0,-3.0,-4.0,-1.0,0.0,1.0,-2.0
1706291960.808929,-5.0,-16.0,7.0,0.0,-1.0,-3.0,-3.0,-5.0
1706291960.8293414,-1.0,-9.0,-16.0,-4.0,-1.0,-2.0,4.0,20.0
1706291960.8293414,-1.0,7.0,14.0,3.0,0.0,0.0,-6.0,-32.0
1706291960.8293414,8.0,0.0,-15.0,-4.0,-4.0,-1.0,-3.0,0.0
1706291960.8293414,-3.0,7.0,11.0,-4.0,-3.0,-3.0,-1.0,1.0
1706291960.8589606,2.0,11.0,12.0,0.0,0.0,0.0,-2.0,-7.0
1706291960.8589606,-4.0,-1.0,-5.0,-2.0,-4.0,-2.0,5.0,13.0
1706291960.8589606,4.0,-10.0,-3.0,1.0,1.0,-1.0,0.0,-4.0
1706291960.8589606,-7.0,-26.0,-35.0,-3.0,-1.0,-2.0,-3.0,-9.0
1706291960.8693469,1.0,16.0,12.0,-2.0,-2.0,-1.0,1.0,1.0
1706291960.8693469,-15.0,-19.0,-6.0,3.0,1.0,-4.0,-5.0,-11.0
1706291960.8792894,-25.0,58.0,2.0,0.0,-1.0,-4.0,-5.0,-11.0
1706291960.8792894,0.0,19.0,7.0,0.0,0.0,0.0,2.0,6.0
1706291960.8893235,1.0,6.0,-6.0,1.0,0.0,-2.0,0.0,4.0
1706291960.8893235,9.0,-3.0,-8.0,-7.0,-2.0,0.0,-1.0,1.0
1706291960.8893235,-5.0,-20.0,0.0,2.0,1.0,0.0,-1.0,-3.0
1706291960.8893235,0.0,-12.0,7.0,3.0,0.0,-1.0,0.0,-4.0
1706291960.9191687,-3.0,-6.0,-6.0,0.0,-2.0,-1.0,-2.0,-8.0
1706291960.9191687,15.0,11.0,9.0,0.0,0.0,0.0,2.0,2.0
1706291960.9191687,8.0,-5.0,-2.0,-3.0,-1.0,0.0,1.0,11.0
1706291960.9191687,0.0,7.0,-1.0,-1.0,-1.0,0.0,-2.0,-3.0
1706291960.929201,6.0,12.0,20.0,5.0,2.0,1.0,6.0,-1.0
1706291960.929201,-7.0,-23.0,-10.0,2.0,0.0,1.0,2.0,4.0
1706291960.929201,0.0,-27.0,2.0,0.0,1.0,2.0,3.0,19.0
1706291960.929201,-2.0,-7.0,16.0,1.0,-1.0,-3.0,-8.0,-23.0
1706291960.9492059,-3.0,13.0,-68.0,-13.0,-6.0,-3.0,-5.0,-7.0
1706291960.9492059,3.0,-3.0,5.0,9.0,-3.0,-2.0,1.0,9.0
1706291960.9589343,-4.0,-6.0,2.0,-8.0,-1.0,0.0,0.0,-1.0
1706291960.9589343,13.0,-4.0,-12.0,-1.0,1.0,-2.0,3.0,9.0
1706291960.9894173,0.0,14.0,29.0,2.0,0.0,0.0,-1.0,-5.0
1706291960.990417,10.0,21.0,8.0,-1.0,1.0,1.0,3.0,9.0
1706291960.990417,1.0,-18.0,2.0,4.0,-5.0,-1.0,-4.0,-4.0
1706291960.990417,-5.0,29.0,16.0,3.0,-2.0,-1.0,2.0,3.0
1706291960.9914792,-4.0,0.0,2.0,-1.0,0.0,-1.0,-6.0,-9.0
1706291960.9914792,-17.0,5.0,5.0,-1.0,0.0,0.0,-1.0,-6.0
1706291961.0019124,8.0,8.0,4.0,3.0,1.0,0.0,1.0,-1.0
1706291961.0019124,1.0,-20.0,-7.0,-4.0,-2.0,1.0,-1.0,-2.0
1706291961.011482,-1.0,-7.0,6.0,0.0,0.0,-3.0,-1.0,1.0
1706291961.011482,3.0,26.0,0.0,-6.0,-2.0,-2.0,1.0,2.0
1706291961.021482,-3.0,-2.0,-10.0,0.0,0.0,-1.0,-3.0,-8.0
1706291961.021482,-13.0,-18.0,-5.0,1.0,-1.0,-1.0,-1.0,-1.0
1706291961.0315146,1.0,-10.0,-5.0,-4.0,-2.0,-2.0,-1.0,0.0
1706291961.0315146,3.0,-7.0,-2.0,-4.0,-2.0,-1.0,-1.0,7.0
1706291961.0315146,2.0,-13.0,-9.0,-1.0,-1.0,-1.0,-5.0,-15.0
1706291961.0315146,-6.0,6.0,1.0,1.0,0.0,0.0,6.0,7.0
1706291961.0519524,-7.0,18.0,12.0,6.0,2.0,2.0,-2.0,-2.0
1706291961.0519524,6.0,-46.0,-7.0,-5.0,1.0,0.0,2.0,-2.0
1706291961.0618958,-1.0,-21.0,-2.0,-1.0,0.0,-3.0,0.0,3.0
1706291961.0618958,-5.0,-1.0,4.0,0.0,0.0,-1.0,-2.0,-3.0
1706291961.0714824,7.0,13.0,2.0,0.0,-2.0,0.0,-2.0,1.0
1706291961.0714824,0.0,-29.0,-21.0,-2.0,-2.0,-1.0,-3.0,-2.0
1706291961.0714824,-5.0,3.0,16.0,-1.0,-1.0,-1.0,-1.0,-7.0
1706291961.0714824,2.0,-8.0,2.0,0.0,-1.0,-1.0,-1.0,-1.0
1706291961.0919118,-2.0,-6.0,-3.0,0.0,-1.0,0.0,0.0,-1.0
1706291961.0919118,1.0,14.0,0.0,0.0,-1.0,-2.0,-3.0,0.0
1706291961.0919118,9.0,-4.0,-1.0,-1.0,-3.0,-2.0,-1.0,-1.0
1706291961.0919118,2.0,15.0,0.0,-3.0,-1.0,0.0,0.0,8.0
1706291961.111935,3.0,2.0,1.0,-2.0,-1.0,-1.0,-4.0,-6.0
1706291961.111935,-4.0,-4.0,-5.0,-4.0,-2.0,-2.0,-1.0,1.0
1706291961.121877,-3.0,4.0,-6.0,-2.0,-1.0,-2.0,1.0,1.0
1706291961.121877,-4.0,8.0,1.0,0.0,0.0,0.0,0.0,5.0
1706291961.1318731,10.0,2.0,-3.0,2.0,-2.0,-2.0,-2.0,3.0
1706291961.1318731,-8.0,13.0,1.0,-4.0,-2.0,1.0,1.0,0.0
1706291961.1318731,1.0,30.0,-6.0,-1.0,1.0,-1.0,-1.0,0.0
1706291961.1318731,-1.0,-16.0,-9.0,-6.0,-4.0,-6.0,-3.0,-5.0
1706291961.1614816,-2.0,-10.0,-2.0,-2.0,-2.0,-3.0,-1.0,-2.0
1706291961.1614816,3.0,11.0,5.0,1.0,-1.0,-2.0,-2.0,-2.0
1706291961.1614816,4.0,-5.0,-8.0,-1.0,0.0,0.0,0.0,4.0
1706291961.1614816,3.0,5.0,0.0,2.0,0.0,1.0,-1.0,-3.0
1706291961.171819,-4.0,-2.0,2.0,-1.0,-1.0,-2.0,-2.0,-3.0
1706291961.171819,-1.0,7.0,3.0,0.0,-1.0,-1.0,-2.0,3.0
1706291961.181885,-7.0,0.0,0.0,0.0,-1.0,-1.0,-1.0,-4.0
1706291961.181885,3.0,-2.0,3.0,4.0,1.0,1.0,-1.0,-2.0
1706291961.191485,1.0,-14.0,-3.0,-7.0,-4.0,-3.0,2.0,1.0
1706291961.191485,9.0,-8.0,-9.0,-9.0,-2.0,-1.0,0.0,2.0
1706291961.191485,-5.0,-11.0,-5.0,0.0,-2.0,-3.0,-1.0,-4.0
1706291961.191485,-5.0,-13.0,2.0,1.0,0.0,-2.0,-5.0,-4.0
1706291961.2214868,-2.0,-8.0,-4.0,2.0,0.0,-1.0,-1.0,-2.0
1706291961.2214868,-1.0,6.0,8.0,2.0,-2.0,2.0,-1.0,5.0
1706291961.2214868,-2.0,5.0,-10.0,-4.0,-2.0,0.0,0.0,-1.0
1706291961.2214868,-2.0,6.0,3.0,1.0,-3.0,0.0,-1.0,1.0
1706291961.2317824,-5.0,-6.0,2.0,4.0,2.0,1.0,-3.0,-2.0
1706291961.2317824,-22.0,-1.0,2.0,-1.0,0.0,-1.0,-2.0,-4.0
1706291961.2417994,10.0,47.0,4.0,3.0,1.0,1.0,1.0,2.0
1706291961.2417994,-14.0,-34.0,-9.0,-9.0,-5.0,-3.0,-3.0,-6.0
1706291961.261483,-6.0,18.0,8.0,-1.0,-2.0,-3.0,-2.0,-1.0
1706291961.261483,-2.0,3.0,0.0,3.0,0.0,-1.0,-2.0,-3.0
1706291961.261483,-2.0,-20.0,4.0,0.0,-2.0,-1.0,-1.0,-2.0
1706291961.261483,-2.0,1.0,-11.0,-5.0,-1.0,-1.0,1.0,-1.0
1706291961.2714806,6.0,-9.0,-5.0,-1.0,0.0,0.0,0.0,2.0
1706291961.2714806,2.0,-12.0,-2.0,-2.0,-2.0,-1.0,-1.0,-4.0
1706291961.2714806,-3.0,-7.0,0.0,0.0,1.0,0.0,0.0,-3.0
1706291961.2714806,-1.0,10.0,2.0,0.0,-1.0,-1.0,0.0,1.0
1706291961.2917423,-5.0,-7.0,0.0,0.0,0.0,-1.0,-2.0,1.0
1706291961.2917423,7.0,-23.0,-3.0,1.0,0.0,-3.0,-2.0,-1.0
1706291961.3018372,0.0,-5.0,1.0,0.0,0.0,-1.0,-4.0,-1.0
1706291961.3018372,4.0,10.0,-7.0,-3.0,-1.0,1.0,2.0,7.0
1706291961.3114817,-18.0,-8.0,-8.0,-6.0,-1.0,-1.0,-4.0,-7.0
1706291961.3114817,3.0,34.0,-1.0,-3.0,-1.0,-1.0,-1.0,0.0
1706291961.3114817,3.0,0.0,-3.0,-2.0,-1.0,1.0,0.0,1.0
1706291961.3114817,-7.0,3.0,20.0,3.0,1.0,-1.0,-1.0,-3.0
1706291961.3318768,0.0,-12.0,-42.0,-6.0,-2.0,-1.0,-1.0,-12.0
1706291961.3318768,16.0,5.0,-13.0,-1.0,1.0,-1.0,1.0,15.0
1706291961.3318768,-9.0,-13.0,4.0,-4.0,-2.0,-4.0,-2.0,-4.0
1706291961.3318768,5.0,15.0,-1.0,1.0,-2.0,0.0,1.0,5.0
1706291961.3618937,1.0,2.0,6.0,0.0,0.0,0.0,-3.0,-12.0
1706291961.3618937,-4.0,-6.0,-11.0,-1.0,1.0,1.0,0.0,-3.0
1706291961.3618937,-3.0,0.0,10.0,-2.0,-3.0,-2.0,-2.0,-3.0
1706291961.3618937,8.0,-10.0,-4.0,-2.0,1.0,-2.0,-2.0,6.0
1706291961.3714817,6.0,-2.0,9.0,-1.0,-1.0,-1.0,-2.0,3.0
1706291961.3714817,-1.0,-7.0,-2.0,0.0,0.0,0.0,0.0,-2.0
1706291961.3714817,-2.0,-4.0,1.0,-3.0,-3.0,-1.0,-1.0,1.0
1706291961.3714817,-3.0,-14.0,-9.0,-2.0,0.0,-2.0,0.0,-4.0
1706291961.39178,-1.0,-3.0,2.0,-5.0,-4.0,-1.0,0.0,5.0
1706291961.39178,-1.0,10.0,8.0,2.0,-1.0,1.0,-1.0,-5.0
1706291961.39178,-15.0,12.0,-14.0,-4.0,-2.0,-1.0,-3.0,-5.0
1706291961.39178,11.0,-20.0,-1.0,1.0,2.0,3.0,1.0,-1.0
1706291961.4214811,9.0,10.0,9.0,2.0,1.0,0.0,3.0,7.0
1706291961.4214811,0.0,-6.0,9.0,-1.0,-3.0,-2.0,-1.0,-3.0
1706291961.4214811,7.0,-5.0,2.0,2.0,0.0,1.0,0.0,1.0
1706291961.4214811,-5.0,-1.0,-13.0,-4.0,-2.0,-3.0,-2.0,-1.0
1706291961.4317462,-1.0,19.0,5.0,2.0,1.0,-1.0,-4.0,-17.0
1706291961.4317462,-4.0,-4.0,2.0,-1.0,0.0,-1.0,0.0,3.0
1706291961.4317462,-3.0,-11.0,1.0,4.0,1.0,1.0,-1.0,1.0
1706291961.4317462,-2.0,10.0,2.0,-2.0,-4.0,-3.0,-3.0,-6.0
1706291961.471487,-1.0,-13.0,-9.0,-4.0,-2.0,0.0,0.0,9.0
1706291961.471487,-11.0,-24.0,-4.0,-3.0,-1.0,-1.0,-3.0,-6.0
1706291961.471487,1.0,-1.0,-6.0,-2.0,0.0,-1.0,-2.0,-4.0
1706291961.471487,0.0,7.0,4.0,2.0,0.0,0.0,0.0,-1.0
1706291961.4815211,-4.0,-5.0,5.0,-1.0,-2.0,-2.0,2.0,5.0
1706291961.4815211,6.0,-8.0,-3.0,0.0,-1.0,-2.0,-2.0,-7.0
1706291961.49149,-3.0,14.0,5.0,-1.0,1.0,-1.0,1.0,1.0
1706291961.49222,-5.0,2.0,2.0,-4.0,-1.0,-1.0,1.0,0.0
1706291961.4972906,-2.0,-13.0,-2.0,2.0,0.0,-1.0,0.0,-1.0
1706291961.4983122,-4.0,8.0,1.0,-1.0,-1.0,-1.0,-2.0,0.0
1706291961.4983122,5.0,-12.0,-6.0,0.0,-1.0,0.0,-1.0,1.0
1706291961.4983122,7.0,-7.0,4.0,-2.0,-2.0,-2.0,-1.0,0.0
1706291961.5242095,2.0,20.0,4.0,0.0,-1.0,2.0,-4.0,-9.0
1706291961.5242095,-6.0,-13.0,-2.0,-5.0,-3.0,-4.0,-2.0,-2.0
1706291961.5242095,2.0,-7.0,-8.0,0.0,0.0,1.0,-2.0,0.0
1706291961.5242095,-1.0,-8.0,-5.0,-7.0,-4.0,-2.0,-3.0,-3.0
1706291961.5344496,1.0,1.0,6.0,1.0,0.0,1.0,1.0,5.0
1706291961.5344496,-4.0,13.0,7.0,2.0,0.0,0.0,-2.0,-1.0
1706291961.5445287,-3.0,-11.0,0.0,-1.0,0.0,-2.0,1.0,-3.0
1706291961.5445287,3.0,14.0,-5.0,1.0,1.0,0.0,-1.0,1.0
1706291961.55481,-3.0,-5.0,-4.0,-1.0,-1.0,-4.0,-2.0,0.0
1706291961.55481,6.0,11.0,2.0,-1.0,0.0,0.0,1.0,-1.0
1706291961.55481,-1.0,-3.0,-6.0,-4.0,-2.0,-1.0,1.0,2.0
1706291961.55481,-2.0,1.0,0.0,2.0,-2.0,1.0,-2.0,-2.0
1706291961.604468,-4.0,-7.0,1.0,-3.0,-2.0,-1.0,1.0,1.0
1706291961.604468,1.0,9.0,-4.0,0.0,1.0,0.0,0.0,-1.0
1706291961.604468,0.0,33.0,1.0,-1.0,-1.0,-2.0,0.0,-4.0
1706291961.604468,-4.0,-12.0,-3.0,0.0,-1.0,-1.0,-5.0,-1.0
1706291961.604468,4.0,-3.0,-1.0,-2.0,-2.0,-3.0,-1.0,2.0
1706291961.604468,-3.0,8.0,-3.0,2.0,0.0,-1.0,2.0,3.0
1706291961.604468,6.0,-28.0,-1.0,-3.0,-3.0,-1.0,-3.0,-3.0
1706291961.604468,-1.0,6.0,0.0,1.0,1.0,-1.0,0.0,-3.0
1706291961.6145155,-2.0,2.0,1.0,-1.0,-2.0,-2.0,-1.0,1.0
1706291961.6145155,1.0,-6.0,14.0,6.0,2.0,2.0,1.0,4.0
1706291961.6145155,-6.0,-12.0,-15.0,-9.0,-4.0,-8.0,-3.0,-4.0
1706291961.6145155,-1.0,-10.0,6.0,0.0,0.0,0.0,-2.0,-4.0
1706291961.6348786,-2.0,-9.0,-6.0,-2.0,0.0,-1.0,-2.0,3.0
1706291961.6348786,4.0,10.0,4.0,-1.0,-2.0,0.0,2.0,0.0
1706291961.6348786,-19.0,-18.0,4.0,0.0,-1.0,-2.0,-1.0,-3.0
1706291961.6348786,-1.0,6.0,0.0,0.0,0.0,-1.0,1.0,-1.0
1706291961.65534,-2.0,5.0,-2.0,0.0,0.0,-1.0,-1.0,-1.0
1706291961.65534,0.0,0.0,6.0,-1.0,-1.0,-1.0,-3.0,-3.0
1706291961.65534,5.0,4.0,-2.0,1.0,-1.0,0.0,0.0,0.0
1706291961.65534,-4.0,-7.0,-11.0,-2.0,-2.0,-3.0,-1.0,-1.0
1706291961.6749153,-1.0,-2.0,4.0,-1.0,-2.0,-1.0,1.0,1.0
1706291961.6749153,-2.0,-7.0,-11.0,-3.0,0.0,-2.0,-2.0,-3.0
1706291961.6749153,0.0,-1.0,9.0,0.0,1.0,2.0,-1.0,0.0
1706291961.6749153,1.0,0.0,1.0,1.0,0.0,1.0,2.0,1.0
1706291961.6949468,0.0,-2.0,-1.0,0.0,-1.0,-3.0,-4.0,-13.0
1706291961.6949468,-3.0,-4.0,-1.0,-2.0,-3.0,-2.0,-2.0,0.0
1706291961.6949468,1.0,0.0,-2.0,1.0,0.0,1.0,0.0,0.0
1706291961.6949468,-7.0,19.0,-1.0,-1.0,0.0,0.0,0.0,-3.0
1706291961.7153738,2.0,24.0,-3.0,-1.0,-3.0,-1.0,0.0,3.0
1706291961.7153738,-4.0,-1.0,-6.0,-3.0,-1.0,-2.0,0.0,0.0
1706291961.7153738,6.0,0.0,-2.0,0.0,-2.0,-2.0,-1.0,0.0
1706291961.7153738,0.0,-9.0,-3.0,0.0,1.0,-1.0,-2.0,-2.0
1706291961.7353704,-4.0,-8.0,2.0,0.0,-1.0,0.0,-1.0,3.0
1706291961.7353704,-6.0,-4.0,0.0,0.0,-2.0,-5.0,-3.0,-7.0
1706291961.7353704,6.0,53.0,-2.0,-2.0,1.0,1.0,1.0,4.0
1706291961.7353704,-4.0,-29.0,5.0,-5.0,-2.0,-3.0,-3.0,-4.0
1706291961.754948,-1.0,1.0,-4.0,-2.0,0.0,0.0,2.0,0.0
1706291961.754948,2.0,-3.0,0.0,-3.0,-2.0,-3.0,-1.0,0.0
1706291961.7653077,-3.0,-29.0,-1.0,0.0,0.0,-1.0,-1.0,0.0
1706291961.7653077,-1.0,11.0,-5.0,-4.0,-5.0,-3.0,-1.0,-1.0
1706291961.7753105,0.0,6.0,14.0,4.0,-4.0,-2.0,-4.0,-10.0
1706291961.7753105,-4.0,-6.0,-2.0,-2.0,-1.0,0.0,0.0,1.0
1706291961.7753105,-3.0,-22.0,-13.0,-3.0,5.0,2.0,-1.0,-1.0
1706291961.7753105,2.0,10.0,0.0,-1.0,-5.0,-5.0,-3.0,-2.0
1706291961.7952805,-4.0,-14.0,0.0,-4.0,-2.0,-1.0,0.0,2.0
1706291961.7952805,1.0,7.0,10.0,0.0,8.0,5.0,1.0,0.0
1706291961.7952805,-1.0,-2.0,5.0,0.0,-11.0,-7.0,-3.0,-2.0
1706291961.7952805,-2.0,-2.0,-1.0,-9.0,5.0,3.0,1.0,1.0
1706291961.814946,0.0,-10.0,-4.0,16.0,-2.0,0.0,-1.0,-2.0
1706291961.814946,-1.0,1.0,-6.0,2.0,7.0,-4.0,-2.0,-1.0
1706291961.814946,-1.0,3.0,-1.0,-3.0,-31.0,-7.0,-1.0,0.0
1706291961.814946,-1.0,-7.0,-8.0,12.0,21.0,6.0,-1.0,0.0
1706291961.8353074,2.0,4.0,2.0,-9.0,24.0,6.0,1.0,2.0
1706291961.8353074,-2.0,-7.0,0.0,9.0,-7.0,0.0,0.0,-3.0
1706291961.8353074,1.0,-6.0,1.0,-8.0,-1.0,-4.0,1.0,1.0
1706291961.8353074,1.0,30.0,-3.0,-13.0,-28.0,-11.0,-4.0,-2.0
1706291961.8553555,-3.0,7.0,-5.0,-22.0,-21.0,-7.0,-4.0,0.0
1706291961.8553555,1.0,4.0,-11.0,-9.0,-1.0,0.0,-1.0,0.0
1706291961.8553555,-5.0,12.0,6.0,13.0,18.0,6.0,-1.0,-3.0
1706291961.8553555,0.0,-16.0,2.0,11.0,0.0,2.0,0.0,-1.0
1706291961.8749483,-1.0,1.0,2.0,11.0,15.0,4.0,4.0,9.0
1706291961.8749483,1.0,-4.0,15.0,-7.0,-11.0,-4.0,-5.0,-14.0
1706291961.8749483,-2.0,-6.0,-21.0,-11.0,-5.0,-1.0,-2.0,-3.0
1706291961.8749483,-3.0,-3.0,-7.0,-11.0,5.0,-4.0,-2.0,-1.0
1706291961.8953362,-1.0,-4.0,8.0,3.0,-36.0,-8.0,-3.0,0.0
1706291961.8953362,-4.0,-9.0,-22.0,-3.0,3.0,3.0,-2.0,2.0
1706291961.8953362,0.0,-3.0,18.0,31.0,35.0,10.0,3.0,0.0
1706291961.8953362,0.0,0.0,-2.0,9.0,-6.0,-8.0,-2.0,-4.0
1706291961.915371,-1.0,-4.0,-4.0,-19.0,-15.0,-2.0,-1.0,-3.0
1706291961.915371,-1.0,-2.0,-5.0,-13.0,1.0,-1.0,-2.0,1.0
1706291961.924916,1.0,-3.0,1.0,6.0,4.0,6.0,0.0,-1.0
1706291961.924916,2.0,-5.0,-1.0,12.0,23.0,2.0,1.0,3.0
1706291961.934914,-2.0,-2.0,-2.0,-2.0,-10.0,-3.0,-1.0,-2.0
1706291961.934914,1.0,3.0,3.0,2.0,-11.0,0.0,-2.0,1.0
1706291961.934914,-2.0,-6.0,-5.0,-10.0,3.0,-8.0,1.0,1.0
1706291961.934914,-2.0,-1.0,8.0,-11.0,-22.0,-6.0,-1.0,-2.0
1706291961.9553509,-2.0,-7.0,-16.0,-21.0,-9.0,-9.0,-4.0,-4.0
1706291961.9553509,-2.0,2.0,-2.0,0.0,20.0,5.0,-3.0,1.0
1706291961.9553509,2.0,1.0,1.0,18.0,19.0,4.0,2.0,-1.0
1706291961.9553509,-2.0,-9.0,-5.0,-9.0,-29.0,-5.0,0.0,-3.0
1706291961.975115,-1.0,-8.0,-3.0,5.0,24.0,6.0,0.0,-1.0
1706291961.975115,-2.0,6.0,-2.0,13.0,-15.0,-7.0,1.0,2.0
1706291961.9849133,-4.0,-9.0,-2.0,-26.0,-7.0,-3.0,-4.0,-3.0
1706291961.9849133,-2.0,3.0,9.0,20.0,3.0,9.0,-1.0,-1.0
1706291961.9953027,-4.0,-16.0,-31.0,7.0,30.0,6.0,1.0,0.0
1706291961.9953027,3.0,4.0,5.0,29.0,9.0,3.0,6.0,10.0
1706291961.9953027,0.0,6.0,1.0,-10.0,-7.0,-6.0,-2.0,-8.0
1706291961.9953027,-2.0,2.0,-9.0,-18.0,-19.0,-6.0,-4.0,-3.0
1706291962.0224452,-7.0,-9.0,-3.0,-23.0,-18.0,-13.0,-9.0,-8.0
1706291962.0224452,-3.0,-8.0,-7.0,-23.0,0.0,-2.0,-3.0,-2.0
1706291962.0233326,-2.0,-2.0,-9.0,-21.0,-60.0,-10.0,-1.0,2.0
1706291962.0233326,3.0,0.0,6.0,35.0,68.0,20.0,6.0,2.0
1706291962.038229,3.0,10.0,20.0,52.0,42.0,13.0,6.0,2.0
1706291962.038229,2.0,5.0,3.0,7.0,-8.0,-7.0,-1.0,-3.0
1706291962.0405145,-3.0,-4.0,-3.0,-26.0,-22.0,-15.0,-9.0,-3.0
1706291962.0405145,-3.0,-7.0,-4.0,-30.0,-34.0,-7.0,-4.0,-3.0
1706291962.0605223,-2.0,-2.0,-8.0,-11.0,-8.0,-1.0,0.0,0.0
1706291962.0605223,-2.0,-2.0,0.0,-8.0,-1.0,-3.0,-1.0,-3.0
1706291962.0605223,2.0,-1.0,1.0,5.0,12.0,7.0,-3.0,-2.0
1706291962.0605223,-3.0,-12.0,-5.0,-3.0,4.0,-2.0,1.0,-1.0
1706291962.0808275,-1.0,0.0,4.0,16.0,6.0,-1.0,-3.0,-2.0
1706291962.0808275,-1.0,-1.0,0.0,-8.0,1.0,8.0,2.0,-2.0
1706291962.0808275,1.0,4.0,1.0,10.0,-13.0,-7.0,3.0,1.0
1706291962.0808275,-4.0,-13.0,3.0,3.0,16.0,-11.0,-3.0,-2.0
1706291962.110517,1.0,5.0,9.0,9.0,-12.0,-3.0,-1.0,-1.0
1706291962.110517,-2.0,-4.0,1.0,-9.0,-17.0,2.0,-2.0,-4.0
1706291962.110517,-1.0,0.0,3.0,42.0,68.0,15.0,2.0,2.0
1706291962.110517,2.0,6.0,-4.0,-32.0,-34.0,-2.0,2.0,2.0
1706291962.1205227,-1.0,-1.0,-6.0,-2.0,-34.0,-8.0,0.0,-1.0
1706291962.1205227,-3.0,-1.0,1.0,-13.0,10.0,-6.0,-3.0,-2.0
1706291962.1205227,3.0,11.0,12.0,10.0,-12.0,3.0,2.0,2.0
1706291962.1205227,-7.0,-20.0,-15.0,-1.0,18.0,0.0,-4.0,-4.0
1706291962.140848,1.0,3.0,3.0,-10.0,-5.0,1.0,-4.0,-1.0
1706291962.140848,0.0,2.0,4.0,8.0,14.0,0.0,-1.0,-2.0
1706291962.140848,-4.0,-4.0,-6.0,-20.0,-18.0,-11.0,-2.0,-4.0
1706291962.140848,-1.0,7.0,1.0,-17.0,-48.0,-8.0,-1.0,0.0
1706291962.170517,0.0,0.0,0.0,-4.0,17.0,3.0,-1.0,-1.0
1706291962.170517,1.0,-2.0,8.0,22.0,31.0,6.0,2.0,2.0
1706291962.170517,-1.0,-2.0,6.0,21.0,21.0,12.0,2.0,0.0
1706291962.170517,1.0,4.0,4.0,14.0,2.0,-5.0,0.0,1.0
1706291962.170517,1.0,-3.0,-5.0,-15.0,-13.0,-11.0,-2.0,0.0
1706291962.170517,-5.0,0.0,-9.0,-19.0,-25.0,-2.0,-3.0,-4.0
1706291962.1805236,-1.0,-5.0,-4.0,-4.0,-1.0,0.0,0.0,0.0
1706291962.1805236,-1.0,4.0,0.0,4.0,32.0,4.0,-1.0,-1.0
1706291962.2005188,-1.0,-2.0,-4.0,-4.0,-23.0,1.0,-1.0,0.0
1706291962.2005188,-2.0,-4.0,0.0,4.0,6.0,-4.0,1.0,-1.0
1706291962.2005188,-4.0,-2.0,-3.0,-15.0,-12.0,-8.0,-5.0,-2.0
1706291962.2005188,1.0,2.0,6.0,-5.0,-10.0,6.0,-1.0,-3.0
1706291962.210767,-1.0,0.0,5.0,28.0,23.0,3.0,0.0,0.0
1706291962.210767,1.0,6.0,-3.0,3.0,3.0,9.0,0.0,0.0
1706291962.220775,0.0,-1.0,1.0,-7.0,-19.0,-6.0,0.0,-1.0
1706291962.220775,-3.0,-10.0,-7.0,-16.0,2.0,-1.0,-4.0,-3.0
1706291962.2405212,-1.0,-8.0,0.0,-13.0,-7.0,-7.0,-4.0,-1.0
1706291962.2405212,1.0,19.0,6.0,12.0,-1.0,2.0,-1.0,1.0
1706291962.2405212,0.0,-3.0,-6.0,-17.0,3.0,5.0,0.0,-1.0
1706291962.2405212,2.0,8.0,3.0,29.0,16.0,2.0,1.0,0.0
1706291962.2605624,-4.0,-10.0,-6.0,-8.0,9.0,-13.0,-3.0,-3.0
1706291962.2605624,-1.0,-6.0,2.0,-8.0,-17.0,-3.0,-1.0,-2.0
1706291962.2605624,-2.0,0.0,-1.0,-6.0,-2.0,-2.0,0.0,0.0
1706291962.2605624,1.0,4.0,0.0,4.0,5.0,1.0,-1.0,0.0
1706291962.2706795,-1.0,2.0,-5.0,-1.0,-6.0,4.0,2.0,1.0
1706291962.2706795,-1.0,-5.0,-2.0,-3.0,-10.0,-15.0,-1.0,-1.0
1706291962.2809484,-5.0,-8.0,-12.0,-18.0,-32.0,-12.0,-8.0,-4.0
1706291962.2809484,0.0,1.0,0.0,-3.0,-23.0,11.0,0.0,-1.0
1706291962.3005757,1.0,6.0,2.0,4.0,62.0,8.0,3.0,1.0
1706291962.3005757,1.0,-5.0,-3.0,3.0,-23.0,2.0,0.0,0.0
1706291962.3005757,0.0,0.0,9.0,19.0,28.0,7.0,2.0,0.0
1706291962.3005757,0.0,0.0,0.0,2.0,-18.0,-7.0,-1.0,0.0
1706291962.3209841,0.0,1.0,-1.0,-2.0,9.0,6.0,1.0,-1.0
1706291962.3209841,1.0,0.0,0.0,-5.0,-13.0,-12.0,-1.0,0.0
1706291962.3209841,-3.0,-7.0,-3.0,-3.0,-6.0,0.0,-1.0,0.0
1706291962.3209841,-1.0,4.0,0.0,0.0,17.0,-3.0,-2.0,-2.0
1706291962.3410091,-3.0,-2.0,-3.0,-6.0,-23.0,2.0,1.0,-2.0
1706291962.3410091,-1.0,-2.0,-1.0,1.0,6.0,4.0,0.0,0.0
1706291962.3410091,-1.0,0.0,-5.0,-3.0,-22.0,-12.0,-2.0,-1.0
1706291962.3410091,-1.0,-3.0,-2.0,-9.0,8.0,-1.0,-3.0,-2.0
1706291962.3610203,2.0,2.0,3.0,11.0,-5.0,0.0,-1.0,1.0
1706291962.3610203,-4.0,-5.0,-7.0,-11.0,-1.0,-1.0,-2.0,-1.0
1706291962.3610203,-2.0,0.0,-1.0,-11.0,1.0,0.0,-1.0,0.0
1706291962.3610203,0.0,-2.0,-4.0,15.0,14.0,1.0,0.0,-1.0
1706291962.381427,-1.0,1.0,11.0,10.0,2.0,6.0,2.0,0.0
1706291962.381427,3.0,-3.0,0.0,21.0,20.0,0.0,1.0,2.0
1706291962.381427,2.0,0.0,-3.0,-6.0,-9.0,2.0,0.0,-1.0
1706291962.381427,-3.0,-2.0,-4.0,-24.0,-13.0,-10.0,-3.0,-4.0
1706291962.4011996,-1.0,0.0,-5.0,-1.0,-5.0,-6.0,-2.0,-2.0
1706291962.4011996,-6.0,-8.0,-7.0,-14.0,-24.0,-5.0,-4.0,-5.0
1706291962.4011996,-1.0,1.0,-2.0,-3.0,2.0,-9.0,-1.0,-2.0
1706291962.4011996,0.0,1.0,7.0,23.0,17.0,8.0,4.0,2.0
1706291962.4210203,0.0,2.0,4.0,-1.0,1.0,6.0,1.0,0.0
1706291962.4210203,1.0,2.0,-5.0,-7.0,-2.0,-3.0,1.0,1.0
1706291962.4210203,-2.0,-4.0,0.0,0.0,-5.0,1.0,-3.0,-1.0
1706291962.4210203,-1.0,-1.0,-2.0,-12.0,-7.0,-7.0,-3.0,-1.0
1706291962.4414454,1.0,3.0,4.0,2.0,2.0,6.0,-2.0,-2.0
1706291962.4414454,-2.0,-3.0,-2.0,3.0,17.0,6.0,0.0,-2.0
1706291962.4414454,0.0,-2.0,-3.0,3.0,-12.0,-2.0,-1.0,0.0
1706291962.4414454,1.0,3.0,-4.0,-2.0,3.0,-5.0,0.0,-1.0
1706291962.4614463,-3.0,-6.0,1.0,-3.0,-14.0,-4.0,-3.0,-2.0
1706291962.4614463,1.0,4.0,-2.0,-1.0,3.0,2.0,-2.0,-1.0
1706291962.4614463,-2.0,-6.0,1.0,-2.0,10.0,0.0,0.0,-2.0
1706291962.4614463,-2.0,-2.0,-3.0,-5.0,-7.0,-8.0,-2.0,-1.0
1706291962.4810228,-4.0,-2.0,-6.0,-24.0,-22.0,-8.0,-4.0,-2.0
1706291962.4810228,-5.0,-6.0,-11.0,0.0,-9.0,10.0,1.0,-1.0
1706291962.4810228,0.0,1.0,1.0,10.0,19.0,-17.0,-1.0,-1.0
1706291962.4810228,-2.0,-1.0,4.0,12.0,-3.0,23.0,5.0,0.0
1706291962.501308,3.0,4.0,3.0,28.0,69.0,18.0,7.0,3.0
1706291962.501308,-2.0,-6.0,4.0,-15.0,-37.0,-19.0,-7.0,-3.0
1706291962.501308,-1.0,1.0,0.0,8.0,2.0,-4.0,-2.0,-3.0
1706291962.501308,-3.0,-4.0,-6.0,-31.0,-29.0,-21.0,-8.0,-4.0
1706291962.531019,0.0,0.0,-4.0,15.0,-9.0,6.0,1.0,-2.0
1706291962.531019,-1.0,0.0,-2.0,8.0,45.0,14.0,2.0,0.0
1706291962.531019,2.0,0.0,-2.0,-9.0,-26.0,-11.0,-2.0,-1.0
1706291962.531019,-3.0,0.0,8.0,3.0,-9.0,-8.0,-3.0,-1.0
1706291962.531019,-2.0,3.0,-1.0,-23.0,-24.0,-13.0,-5.0,-2.0
1706291962.5410278,-3.0,-9.0,-16.0,-3.0,2.0,2.0,-2.0,-2.0
1706291962.5410278,1.0,5.0,6.0,14.0,14.0,11.0,3.0,1.0
1706291962.5410278,-1.0,-5.0,-10.0,1.0,0.0,7.0,4.0,2.0
1706291962.5633464,2.0,0.0,3.0,-10.0,-10.0,-3.0,0.0,0.0
1706291962.5633464,-1.0,1.0,3.0,-6.0,7.0,-11.0,-3.0,-2.0
1706291962.5643659,-3.0,-1.0,-1.0,3.0,-1.0,5.0,-2.0,-1.0
1706291962.5643659,0.0,1.0,-2.0,-10.0,10.0,-7.0,-1.0,-1.0
1706291962.5935946,-4.0,-5.0,-7.0,3.0,-16.0,0.0,-1.0,-1.0
1706291962.5935946,3.0,2.0,4.0,16.0,19.0,-5.0,1.0,1.0
1706291962.5935946,-1.0,0.0,-1.0,-6.0,-2.0,13.0,2.0,0.0
1706291962.5935946,2.0,5.0,7.0,28.0,36.0,13.0,2.0,-2.0
1706291962.5935946,0.0,-2.0,-2.0,-29.0,-35.0,-23.0,-6.0,-2.0
1706291962.5935946,-2.0,-3.0,-14.0,-22.0,-27.0,-2.0,-2.0,-3.0
1706291962.5935946,-3.0,-4.0,3.0,17.0,12.0,3.0,2.0,0.0
1706291962.5935946,2.0,2.0,-1.0,11.0,0.0,-6.0,-1.0,0.0
1706291962.613965,-1.0,-1.0,0.0,-2.0,18.0,2.0,0.0,-1.0
1706291962.6239884,-1.0,3.0,-6.0,-9.0,-37.0,-8.0,-3.0,-2.0
1706291962.6239884,-1.0,-1.0,3.0,-22.0,-2.0,0.0,-2.0,-2.0
1706291962.6239884,1.0,-7.0,-11.0,9.0,1.0,10.0,2.0,0.0
1706291962.663986,-1.0,-2.0,12.0,15.0,6.0,-1.0,-1.0,0.0
1706291962.663986,-2.0,-3.0,-33.0,-5.0,13.0,0.0,-1.0,-1.0
1706291962.663986,-1.0,-1.0,1.0,-7.0,-10.0,-2.0,-2.0,0.0
1706291962.663986,-5.0,-7.0,-26.0,-17.0,-11.0,-6.0,-2.0,-4.0
1706291962.663986,1.0,3.0,1.0,1.0,-3.0,-7.0,-3.0,0.0
1706291962.663986,0.0,-6.0,5.0,3.0,6.0,1.0,0.0,-1.0
1706291962.663986,0.0,0.0,-14.0,3.0,1.0,8.0,2.0,0.0
1706291962.663986,3.0,7.0,28.0,4.0,9.0,-3.0,1.0,1.0
1706291962.6740155,-3.0,-2.0,-1.0,20.0,39.0,12.0,1.0,-2.0
1706291962.683989,1.0,2.0,12.0,-26.0,-30.0,-9.0,-1.0,0.0
1706291962.683989,-3.0,-6.0,-54.0,9.0,5.0,-7.0,-4.0,-1.0
1706291962.683989,0.0,0.0,11.0,-1.0,2.0,0.0,-1.0,0.0
1706291962.723982,1.0,7.0,6.0,-1.0,-6.0,6.0,1.0,-1.0
1706291962.723982,-6.0,-8.0,19.0,17.0,38.0,9.0,2.0,-2.0
1706291962.723982,0.0,0.0,29.0,10.0,-7.0,0.0,-1.0,-1.0
1706291962.723982,-8.0,-20.0,-79.0,-25.0,-20.0,-12.0,-6.0,-4.0
1706291962.723982,-4.0,-5.0,6.0,-19.0,-21.0,-13.0,-4.0,-3.0
1706291962.723982,-1.0,-2.0,10.0,-4.0,-11.0,-5.0,-1.0,0.0
1706291962.723982,0.0,7.0,23.0,4.0,12.0,8.0,2.0,-1.0
1706291962.723982,-2.0,1.0,15.0,3.0,-3.0,-12.0,-3.0,-1.0
1706291962.734016,1.0,3.0,8.0,-7.0,-21.0,3.0,-1.0,0.0
1706291962.734016,1.0,-3.0,-19.0,15.0,29.0,8.0,4.0,2.0
1706291962.743984,-1.0,6.0,33.0,-2.0,4.0,-2.0,-2.0,-2.0
1706291962.743984,-2.0,1.0,21.0,5.0,-9.0,1.0,-1.0,-1.0
1706291962.764298,1.0,-3.0,-15.0,1.0,9.0,2.0,0.0,1.0
1706291962.764298,2.0,11.0,1.0,5.0,-18.0,-4.0,0.0,1.0
1706291962.764298,-6.0,-7.0,32.0,-19.0,20.0,-13.0,-6.0,-6.0
1706291962.764298,1.0,6.0,-8.0,-15.0,-36.0,2.0,-3.0,0.0
1706291962.7743366,-1.0,6.0,3.0,5.0,2.0,-10.0,-8.0,-2.0
1706291962.7743366,-6.0,-24.0,-71.0,20.0,35.0,21.0,9.0,-4.0
1706291962.7843285,0.0,-6.0,-5.0,11.0,16.0,-4.0,4.0,1.0
1706291962.7843285,5.0,9.0,11.0,-8.0,-23.0,2.0,7.0,1.0
1706291962.7943082,-6.0,-8.0,-17.0,-21.0,-5.0,-8.0,-34.0,-4.0
1706291962.7943082,0.0,13.0,1.0,4.0,11.0,3.0,-2.0,-1.0
1706291962.8039854,0.0,-1.0,-12.0,-5.0,-22.0,9.0,-2.0,-2.0
1706291962.8039854,-4.0,-4.0,20.0,-5.0,-12.0,-14.0,12.0,-1.0
1706291962.8242822,4.0,12.0,15.0,9.0,24.0,16.0,16.0,3.0
1706291962.8242822,-6.0,-16.0,-4.0,5.0,-12.0,-10.0,-8.0,-4.0
1706291962.8242822,1.0,5.0,15.0,-6.0,-12.0,-4.0,-2.0,0.0
1706291962.8242822,-2.0,-2.0,-22.0,1.0,7.0,4.0,-11.0,1.0
1706291962.8439817,2.0,-3.0,10.0,-3.0,-9.0,2.0,12.0,-1.0
1706291962.8439817,-6.0,-2.0,48.0,-10.0,-10.0,-7.0,-12.0,-4.0
1706291962.8439817,0.0,-3.0,-23.0,2.0,8.0,3.0,5.0,2.0
1706291962.8439817,-1.0,5.0,16.0,-1.0,-9.0,-8.0,-5.0,-2.0
1706291962.8839858,-1.0,-2.0,10.0,2.0,10.0,1.0,-2.0,-2.0
1706291962.8839858,8.0,22.0,1.0,3.0,4.0,13.0,10.0,7.0
1706291962.8839858,-1.0,-1.0,-34.0,-8.0,-30.0,-2.0,-5.0,-2.0
1706291962.8839858,-7.0,-24.0,-60.0,8.0,28.0,6.0,-2.0,-5.0
1706291962.8839858,-3.0,-6.0,-16.0,-6.0,-5.0,-3.0,2.0,-2.0
1706291962.8839858,0.0,-2.0,2.0,1.0,4.0,-9.0,-3.0,-3.0
1706291962.8839858,-1.0,3.0,-11.0,-22.0,-43.0,-14.0,-8.0,-1.0
1706291962.8839858,2.0,7.0,-8.0,17.0,40.0,14.0,-2.0,-1.0
1706291962.8939812,2.0,10.0,3.0,12.0,-2.0,6.0,10.0,2.0
1706291962.8939812,0.0,-2.0,32.0,-2.0,-2.0,-10.0,-5.0,-1.0
1706291962.903982,-4.0,-9.0,-44.0,-9.0,-5.0,-3.0,-4.0,-4.0
1706291962.903982,-4.0,-22.0,29.0,0.0,-6.0,-1.0,2.0,-2.0
1706291962.9142163,-2.0,-24.0,-46.0,-12.0,-11.0,-10.0,22.0,14.0
1706291962.9142163,-1.0,14.0,36.0,-14.0,-20.0,-7.0,-47.0,-15.0
1706291962.9239867,2.0,7.0,-50.0,2.0,9.0,6.0,7.0,3.0
1706291962.9239867,-5.0,14.0,39.0,4.0,6.0,1.0,27.0,0.0
1706291962.9439828,-2.0,-5.0,-4.0,20.0,22.0,12.0,-31.0,-6.0
1706291962.9439828,3.0,-2.0,-23.0,2.0,-3.0,0.0,12.0,7.0
1706291962.9439828,-5.0,-3.0,19.0,-9.0,-8.0,-11.0,-1.0,-4.0
1706291962.9439828,2.0,5.0,-11.0,2.0,10.0,6.0,-7.0,0.0
1706291962.9540172,-7.0,-11.0,0.0,-8.0,-12.0,-10.0,3.0,-3.0
1706291962.9540172,-1.0,3.0,19.0,-21.0,-30.0,-16.0,9.0,-1.0
1706291962.964332,-2.0,-1.0,13.0,14.0,6.0,11.0,-9.0,-4.0
1706291962.964332,6.0,5.0,28.0,14.0,15.0,15.0,8.0,7.0
1706291962.983981,-4.0,-9.0,-44.0,4.0,-5.0,-9.0,0.0,-6.0
1706291962.983981,2.0,-17.0,-45.0,-11.0,10.0,10.0,2.0,2.0
1706291962.983981,-1.0,-7.0,11.0,-7.0,-4.0,4.0,10.0,-1.0
1706291962.983981,0.0,25.0,23.0,-3.0,-9.0,-9.0,-6.0,-7.0
1706291963.004398,0.0,7.0,-36.0,-15.0,-13.0,-2.0,-2.0,0.0
1706291963.004398,-11.0,-28.0,-14.0,1.0,-9.0,-9.0,2.0,-3.0
1706291963.004398,3.0,10.0,12.0,-3.0,-6.0,-10.0,-4.0,3.0
1706291963.004398,-1.0,-1.0,0.0,12.0,29.0,9.0,-5.0,-4.0
1706291963.0143523,6.0,12.0,22.0,1.0,-7.0,1.0,-9.0,0.0
1706291963.0143523,0.0,-2.0,3.0,-7.0,-5.0,-6.0,4.0,-4.0
1706291963.0243106,-3.0,-5.0,5.0,13.0,9.0,-5.0,19.0,-3.0
1706291963.0243106,0.0,-1.0,-2.0,-15.0,-20.0,-13.0,-18.0,-1.0
1706291963.0439808,-5.0,-5.0,1.0,-10.0,-9.0,-8.0,-3.0,-7.0
1706291963.0439808,3.0,4.0,3.0,3.0,18.0,11.0,8.0,5.0
1706291963.0439808,1.0,-5.0,13.0,19.0,13.0,17.0,-14.0,-1.0
1706291963.0439808,-1.0,-5.0,-10.0,-9.0,-11.0,-22.0,-4.0,-3.0
1706291963.0639846,-1.0,-1.0,6.0,-6.0,8.0,-8.0,3.0,1.0
1706291963.0639846,-1.0,7.0,0.0,-9.0,-35.0,4.0,3.0,-1.0
1706291963.0639846,0.0,4.0,11.0,12.0,41.0,6.0,4.0,-1.0
1706291963.0639846,1.0,-10.0,-17.0,0.0,-7.0,11.0,0.0,2.0
1706291963.0742881,-3.0,-1.0,3.0,-18.0,-25.0,-28.0,-17.0,-6.0
1706291963.0742881,-1.0,4.0,8.0,1.0,-1.0,3.0,1.0,0.0
1706291963.0873024,0.0,-5.0,-11.0,8.0,11.0,1.0,-4.0,1.0
1706291963.0873024,6.0,4.0,-6.0,6.0,18.0,18.0,3.0,5.0
1706291963.1028197,-3.0,5.0,65.0,15.0,5.0,0.0,7.0,-3.0
1706291963.1028197,-5.0,-11.0,-51.0,-16.0,-9.0,-13.0,-16.0,-6.0
1706291963.1061523,-2.0,-6.0,8.0,-16.0,-24.0,2.0,48.0,4.0
1706291963.1061523,-2.0,-6.0,-7.0,-1.0,0.0,-11.0,-22.0,-2.0
1706291963.1164827,2.0,3.0,2.0,0.0,8.0,14.0,5.0,1.0
1706291963.1164827,5.0,16.0,51.0,18.0,5.0,-4.0,-9.0,2.0
1706291963.1265082,-3.0,-7.0,16.0,-9.0,-1.0,-5.0,-10.0,-1.0
1706291963.1265082,-3.0,-10.0,-14.0,2.0,-3.0,4.0,11.0,1.0
1706291963.146504,-1.0,-1.0,-14.0,-9.0,-8.0,-6.0,0.0,0.0
1706291963.146504,-7.0,-2.0,10.0,4.0,1.0,4.0,20.0,0.0
1706291963.156505,1.0,2.0,18.0,2.0,-3.0,-2.0,-19.0,-1.0
1706291963.156505,-5.0,0.0,6.0,-8.0,7.0,-2.0,1.0,-4.0
1706291963.156505,1.0,-3.0,-10.0,15.0,9.0,8.0,-12.0,-2.0
1706291963.156505,0.0,3.0,10.0,2.0,0.0,-3.0,10.0,-1.0
1706291963.1667154,-1.0,3.0,-12.0,-5.0,-6.0,-4.0,-3.0,-2.0
1706291963.1667154,-1.0,-6.0,-15.0,0.0,4.0,-1.0,-23.0,-1.0
1706291963.1768014,-6.0,-8.0,6.0,1.0,-12.0,8.0,31.0,-1.0
1706291963.1768014,-2.0,1.0,1.0,-4.0,9.0,0.0,-3.0,-1.0
1706291963.1865067,4.0,7.0,19.0,-9.0,-4.0,-6.0,-10.0,-1.0
1706291963.1865067,-2.0,-8.0,-10.0,13.0,-11.0,-10.0,-4.0,-2.0
1706291963.2065086,-6.0,-19.0,-85.0,-45.0,-19.0,-11.0,-8.0,-3.0
1706291963.2065086,-2.0,-1.0,31.0,8.0,-4.0,0.0,-5.0,-2.0
1706291963.2165043,-3.0,-12.0,-45.0,0.0,25.0,10.0,-5.0,-1.0
1706291963.2165043,-3.0,-6.0,-33.0,-1.0,-10.0,-6.0,40.0,-2.0
1706291963.2165043,4.0,16.0,100.0,24.0,0.0,4.0,-24.0,1.0
1706291963.2165043,6.0,-1.0,2.0,2.0,6.0,-4.0,-12.0,4.0
1706291963.2264996,-16.0,-18.0,-78.0,-36.0,-19.0,-9.0,-3.0,-8.0
1706291963.2264996,17.0,15.0,-22.0,-6.0,-4.0,-6.0,-3.0,5.0
1706291963.2369125,2.0,-6.0,27.0,0.0,-3.0,5.0,20.0,7.0
1706291963.2369125,-7.0,-14.0,1.0,-2.0,5.0,2.0,-1.0,-17.0
1706291963.246502,2.0,12.0,12.0,32.0,21.0,6.0,-1.0,1.0
1706291963.246502,-1.0,-1.0,-17.0,-27.0,-12.0,-5.0,-3.0,-1.0
1706291963.2664998,-1.0,1.0,-7.0,-13.0,-15.0,-7.0,-44.0,-7.0
1706291963.2664998,0.0,6.0,7.0,10.0,0.0,3.0,12.0,4.0
1706291963.2664998,8.0,6.0,-39.0,-5.0,1.0,0.0,3.0,4.0
1706291963.2664998,-13.0,-7.0,65.0,3.0,-1.0,-1.0,-13.0,-10.0
1706291963.276755,1.0,8.0,41.0,36.0,15.0,5.0,17.0,2.0
1706291963.276755,0.0,-12.0,-79.0,-11.0,6.0,3.0,2.0,3.0
1706291963.2867596,0.0,-5.0,4.0,-2.0,-8.0,-3.0,-14.0,-4.0
1706291963.2867596,0.0,10.0,48.0,-6.0,-14.0,-6.0,14.0,5.0
1706291963.2968013,-1.0,4.0,18.0,-3.0,-1.0,-1.0,-11.0,-3.0
1706291963.2968013,-8.0,-10.0,4.0,-14.0,-3.0,2.0,5.0,-2.0
1706291963.3065073,2.0,-3.0,26.0,7.0,-2.0,-9.0,-23.0,6.0
1706291963.3065073,7.0,-1.0,4.0,-6.0,-7.0,7.0,15.0,-2.0
1706291963.3269749,3.0,14.0,4.0,7.0,13.0,3.0,12.0,8.0
1706291963.3269749,0.0,-5.0,-32.0,2.0,5.0,5.0,-6.0,0.0
1706291963.3269749,-5.0,1.0,62.0,3.0,-14.0,-10.0,2.0,2.0
1706291963.3269749,-6.0,-2.0,-8.0,1.0,11.0,4.0,-8.0,-6.0
1706291963.3364995,-2.0,-5.0,-34.0,3.0,5.0,-3.0,0.0,-6.0
1706291963.3364995,-2.0,-3.0,6.0,0.0,-2.0,-7.0,-5.0,4.0
1706291963.346877,2.0,28.0,6.0,-6.0,-9.0,1.0,2.0,-10.0
1706291963.346877,3.0,-7.0,-14.0,-14.0,-14.0,-10.0,-12.0,4.0
1706291963.356916,-6.0,-3.0,-2.0,5.0,3.0,0.0,6.0,-5.0
1706291963.356916,1.0,1.0,1.0,8.0,12.0,9.0,-3.0,2.0
1706291963.3764997,0.0,7.0,30.0,5.0,4.0,-3.0,6.0,3.0
1706291963.3764997,-5.0,-43.0,-68.0,-2.0,-9.0,-5.0,-8.0,-4.0
1706291963.3868783,-1.0,41.0,7.0,-7.0,-10.0,-8.0,0.0,-1.0
1706291963.3868783,-1.0,-35.0,-36.0,-17.0,-15.0,-11.0,-3.0,-1.0
1706291963.3868783,-1.0,-8.0,20.0,-6.0,1.0,9.0,3.0,-3.0
1706291963.3868783,3.0,17.0,17.0,8.0,1.0,-2.0,-4.0,5.0
1706291963.3969085,-1.0,-27.0,-15.0,-5.0,3.0,3.0,3.0,-3.0
1706291963.3969085,6.0,56.0,27.0,16.0,12.0,4.0,-4.0,-2.0
1706291963.4068701,7.0,-16.0,-14.0,1.0,2.0,-3.0,2.0,2.0
1706291963.4068701,-12.0,-39.0,11.0,3.0,0.0,-4.0,-6.0,-6.0
1706291963.4265006,-8.0,-21.0,-82.0,-25.0,-13.0,-9.0,-5.0,-4.0
1706291963.4265006,-2.0,24.0,46.0,7.0,-13.0,-13.0,-4.0,-4.0
1706291963.4265006,-6.0,-25.0,-24.0,-4.0,8.0,5.0,-6.0,0.0
1706291963.4265006,0.0,19.0,41.0,-7.0,-5.0,-3.0,-4.0,-1.0
1706291963.4468749,1.0,-21.0,-13.0,5.0,2.0,-1.0,-3.0,0.0
1706291963.4468749,-10.0,17.0,33.0,-1.0,-13.0,1.0,3.0,4.0
1706291963.4468749,-7.0,5.0,0.0,7.0,7.0,-7.0,-5.0,-7.0
1706291963.4468749,4.0,2.0,11.0,9.0,14.0,12.0,2.0,1.0
1706291963.4569142,0.0,19.0,26.0,7.0,7.0,6.0,4.0,1.0
1706291963.4569142,-2.0,-53.0,-51.0,-17.0,-14.0,-4.0,-2.0,-5.0
1706291963.4668868,-1.0,-2.0,-1.0,4.0,0.0,1.0,2.0,0.0
1706291963.4668868,-6.0,14.0,-14.0,-16.0,-9.0,-1.0,-4.0,-3.0
1706291963.4769247,3.0,-19.0,17.0,7.0,18.0,4.0,2.0,2.0
1706291963.4769247,7.0,18.0,5.0,10.0,-6.0,0.0,-1.0,-1.0
1706291963.486504,-5.0,-17.0,-30.0,-11.0,3.0,-5.0,-5.0,-4.0
1706291963.486504,2.0,7.0,57.0,5.0,-2.0,4.0,-1.0,0.0
1706291963.5068781,-2.0,-15.0,-104.0,-19.0,-11.0,-10.0,1.0,-1.0
1706291963.5068781,-1.0,-3.0,45.0,-1.0,0.0,-4.0,-4.0,0.0
1706291963.5068781,-3.0,-2.0,-22.0,-2.0,-13.0,-8.0,-4.0,-5.0
1706291963.5068781,-3.0,11.0,45.0,-19.0,-10.0,-7.0,-3.0,-4.0
1706291963.5168247,-4.0,3.0,27.0,28.0,11.0,1.0,-1.0,-2.0
1706291963.5168247,-7.0,-14.0,-60.0,-15.0,0.0,-2.0,2.0,-3.0
1706291963.5267305,5.0,-9.0,-44.0,2.0,2.0,10.0,5.0,3.0
1706291963.5267305,-7.0,32.0,67.0,26.0,22.0,15.0,10.0,3.0
1706291963.5365024,17.0,-11.0,-46.0,-33.0,-16.0,-11.0,-6.0,-1.0
1706291963.5365024,0.0,13.0,16.0,33.0,5.0,2.0,1.0,4.0
1706291963.546499,-12.0,6.0,94.0,-11.0,-5.0,-18.0,-18.0,-4.0
1706291963.546499,-10.0,-21.0,-107.0,-23.0,-17.0,-5.0,8.0,-9.0
1706291963.567255,6.0,13.0,32.0,-4.0,0.0,8.0,38.0,13.0
1706291963.567255,1.0,2.0,0.0,3.0,9.0,1.0,-43.0,-19.0
1706291963.567255,3.0,-4.0,1.0,0.0,-9.0,0.0,-4.0,2.0
1706291963.567255,4.0,5.0,6.0,4.0,11.0,-9.0,-6.0,2.0
1706291963.5772207,-16.0,-8.0,2.0,-3.0,-7.0,-1.0,-18.0,-6.0
1706291963.5772207,11.0,5.0,-5.0,-7.0,-7.0,-6.0,27.0,5.0
1706291963.6112382,1.0,11.0,44.0,25.0,8.0,8.0,0.0,2.0
1706291963.6112382,-1.0,-22.0,-72.0,-22.0,5.0,2.0,-4.0,-4.0
1706291963.6122382,-2.0,7.0,-1.0,-2.0,-12.0,-5.0,8.0,1.0
1706291963.6122382,-2.0,-6.0,2.0,-10.0,-4.0,-6.0,-12.0,-1.0
1706291963.6122382,2.0,-1.0,-22.0,-6.0,1.0,7.0,12.0,-4.0
1706291963.6122382,-1.0,-14.0,68.0,28.0,7.0,-6.0,5.0,5.0
1706291963.6280997,-4.0,17.0,45.0,5.0,4.0,4.0,-5.0,-5.0
1706291963.6280997,3.0,-1.0,-18.0,-2.0,0.0,7.0,59.0,8.0
1706291963.6295154,-6.0,0.0,9.0,-4.0,-7.0,-15.0,-66.0,-12.0
1706291963.6295154,0.0,-4.0,-52.0,5.0,-1.0,0.0,-16.0,-24.0
1706291963.6393442,-2.0,-13.0,-8.0,-12.0,-1.0,7.0,-1.0,-2.0
1706291963.6393442,1.0,3.0,7.0,-9.0,-1.0,-2.0,-24.0,0.0
1706291963.6493914,1.0,-11.0,-24.0,2.0,1.0,10.0,32.0,6.0
1706291963.6493914,0.0,-17.0,6.0,2.0,-1.0,0.0,4.0,7.0
1706291963.6594038,-2.0,3.0,17.0,6.0,2.0,-1.0,-13.0,2.0
1706291963.6594038,3.0,3.0,-8.0,-5.0,-1.0,2.0,1.0,-7.0
1706291963.6594038,2.0,4.0,5.0,-2.0,-6.0,-3.0,7.0,3.0
1706291963.6594038,0.0,1.0,-12.0,4.0,1.0,1.0,-9.0,2.0
1706291963.6794112,1.0,18.0,14.0,6.0,4.0,7.0,16.0,2.0
1706291963.6794112,0.0,-10.0,10.0,0.0,3.0,2.0,-5.0,15.0
1706291963.6894708,-3.0,-2.0,-34.0,-9.0,-4.0,-10.0,-2.0,-4.0
1706291963.6894708,2.0,11.0,-6.0,-9.0,-8.0,-1.0,-3.0,-10.0
1706291963.6996696,-3.0,-8.0,-15.0,0.0,-1.0,-6.0,-5.0,-3.0
1706291963.6996696,2.0,3.0,9.0,-1.0,-4.0,7.0,0.0,-8.0
1706291963.719403,3.0,-1.0,-9.0,-5.0,-3.0,-6.0,7.0,3.0
1706291963.719403,-7.0,7.0,-3.0,9.0,12.0,15.0,13.0,8.0
1706291963.719403,-4.0,-8.0,-3.0,-1.0,-1.0,-5.0,-8.0,-6.0
1706291963.719403,1.0,1.0,1.0,-5.0,-13.0,-3.0,-19.0,1.0
1706291963.719403,-10.0,6.0,28.0,6.0,3.0,5.0,15.0,2.0
1706291963.719403,-7.0,6.0,-11.0,2.0,8.0,-2.0,-2.0,1.0
1706291963.7397397,-8.0,-15.0,-23.0,-6.0,-6.0,-6.0,-12.0,-6.0
1706291963.7397397,1.0,0.0,9.0,-6.0,0.0,-8.0,5.0,-2.0
1706291963.7494643,8.0,1.0,6.0,0.0,-7.0,-4.0,1.0,-4.0
1706291963.7494643,7.0,6.0,3.0,-2.0,-7.0,-1.0,1.0,1.0
1706291963.7597334,3.0,5.0,21.0,4.0,2.0,-4.0,-11.0,2.0
1706291963.7597334,-5.0,-11.0,-54.0,-5.0,4.0,-1.0,3.0,3.0
1706291963.7794101,9.0,3.0,3.0,-7.0,-4.0,-1.0,-8.0,4.0
1706291963.7794101,0.0,2.0,0.0,2.0,-7.0,-7.0,-4.0,-5.0
1706291963.7794101,4.0,0.0,5.0,0.0,-11.0,-12.0,3.0,1.0
1706291963.7794101,-7.0,-6.0,16.0,5.0,7.0,7.0,-7.0,-9.0
1706291963.7794101,-1.0,4.0,-1.0,13.0,32.0,21.0,17.0,7.0
1706291963.7794101,-9.0,-4.0,-7.0,-6.0,-14.0,-10.0,-4.0,0.0
1706291963.799415,-1.0,0.0,-7.0,-14.0,-5.0,0.0,-3.0,3.0
1706291963.799415,-3.0,1.0,7.0,3.0,-7.0,-5.0,5.0,-2.0
1706291963.8094587,-2.0,1.0,-5.0,-4.0,-1.0,-2.0,-7.0,-7.0
1706291963.8094587,3.0,1.0,10.0,2.0,-6.0,-1.0,0.0,2.0
1706291963.8194027,2.0,-1.0,-11.0,3.0,-4.0,-1.0,-3.0,-7.0
1706291963.8194027,-4.0,4.0,45.0,11.0,6.0,-2.0,-14.0,5.0
1706291963.8297577,-7.0,-16.0,-54.0,-16.0,-13.0,-8.0,36.0,-6.0
1706291963.8297577,-5.0,-11.0,-64.0,-20.0,-14.0,-2.0,-42.0,-11.0
1706291963.8396542,4.0,6.0,17.0,15.0,20.0,3.0,10.0,12.0
1706291963.8396542,2.0,1.0,-5.0,3.0,16.0,6.0,5.0,12.0
1706291963.8396542,3.0,14.0,40.0,7.0,-5.0,-4.0,-8.0,-22.0
1706291963.8396542,2.0,-6.0,-11.0,4.0,-3.0,-3.0,6.0,5.0
1706291963.8598027,-8.0,-8.0,-3.0,-7.0,-14.0,-5.0,1.0,-6.0
1706291963.8598027,-4.0,-3.0,-8.0,-10.0,-11.0,-13.0,-12.0,-9.0
1706291963.8694072,3.0,2.0,-5.0,-12.0,-9.0,-6.0,-13.0,7.0
1706291963.8694072,3.0,3.0,14.0,6.0,19.0,15.0,21.0,3.0
1706291963.879403,4.0,1.0,1.0,5.0,7.0,11.0,7.0,-2.0
1706291963.879403,-8.0,-6.0,2.0,3.0,2.0,-9.0,-35.0,-4.0
1706291963.8896365,0.0,-4.0,-21.0,-3.0,-4.0,-2.0,-5.0,3.0
1706291963.8896365,4.0,7.0,-9.0,-10.0,-3.0,-8.0,-2.0,-1.0
1706291963.8997269,-2.0,-2.0,13.0,-6.0,-9.0,-1.0,3.0,0.0
1706291963.8997269,2.0,4.0,52.0,20.0,7.0,2.0,14.0,-3.0
1706291963.8997269,-5.0,-5.0,-3.0,-11.0,3.0,6.0,-2.0,-2.0
1706291963.8997269,3.0,8.0,37.0,10.0,2.0,-4.0,-18.0,2.0
1706291963.920075,-5.0,-9.0,-9.0,-26.0,-13.0,-4.0,11.0,-3.0
1706291963.920075,-16.0,-24.0,-9.0,-20.0,-38.0,-22.0,-5.0,-11.0
1706291963.9297366,-2.0,5.0,34.0,2.0,8.0,5.0,-7.0,13.0
1706291963.9297366,2.0,-1.0,-86.0,-4.0,22.0,13.0,13.0,-20.0
1706291963.9400764,1.0,15.0,46.0,-2.0,0.0,-5.0,-10.0,-2.0
1706291963.9400764,2.0,1.0,-25.0,-2.0,-8.0,0.0,-19.0,-3.0
1706291963.9697332,-2.0,-4.0,1.0,30.0,7.0,-1.0,0.0,-1.0
1706291963.9697332,-2.0,1.0,14.0,0.0,-14.0,-8.0,2.0,9.0
1706291963.9697332,-1.0,-2.0,45.0,21.0,16.0,8.0,-8.0,-1.0
1706291963.9697332,0.0,-1.0,-93.0,-22.0,5.0,4.0,7.0,-3.0
1706291963.9697332,-2.0,-7.0,7.0,-9.0,-13.0,-5.0,-4.0,-3.0
1706291963.9697332,0.0,-5.0,-40.0,-15.0,-17.0,-9.0,3.0,1.0
1706291963.9897285,-2.0,-2.0,52.0,14.0,12.0,-3.0,-41.0,-5.0
1706291963.9897285,4.0,12.0,-24.0,6.0,9.0,9.0,24.0,8.0
1706291963.9897285,-5.0,6.0,24.0,6.0,-2.0,1.0,1.0,-2.0
1706291963.9897285,-2.0,-10.0,19.0,-3.0,-2.0,2.0,1.0,3.0
1706291964.0000193,-3.0,3.0,-20.0,-17.0,-12.0,-10.0,-13.0,-3.0
1706291964.0000193,9.0,8.0,57.0,35.0,16.0,16.0,29.0,12.0
1706291964.0097344,-10.0,-24.0,-99.0,-40.0,-21.0,-11.0,-21.0,-26.0
1706291964.0097344,5.0,19.0,69.0,9.0,3.0,2.0,8.0,6.0
1706291964.030103,-2.0,-20.0,-27.0,-13.0,2.0,-7.0,0.0,1.0
1706291964.030103,-7.0,-9.0,-59.0,-14.0,-1.0,0.0,-8.0,-7.0
1706291964.0497303,0.0,-11.0,9.0,12.0,5.0,5.0,37.0,5.0
1706291964.0497303,8.0,34.0,68.0,14.0,-1.0,-1.0,-48.0,-1.0
1706291964.0497303,-10.0,-26.0,-89.0,-29.0,-12.0,-3.0,18.0,-5.0
1706291964.0497303,1.0,6.0,37.0,2.0,4.0,2.0,0.0,15.0
1706291964.0497303,-6.0,-4.0,18.0,5.0,0.0,-5.0,-4.0,-24.0
1706291964.0497303,-4.0,-8.0,9.0,0.0,-7.0,-3.0,8.0,-1.0
1706291964.0597825,4.0,13.0,2.0,17.0,9.0,5.0,6.0,6.0
1706291964.0597825,-2.0,-4.0,-10.0,-10.0,1.0,2.0,-7.0,-18.0
1706291964.0698442,11.0,16.0,5.0,5.0,7.0,-9.0,-13.0,12.0
1706291964.0698442,-10.0,-26.0,-37.0,-9.0,-3.0,0.0,5.0,-4.0
1706291964.0800695,4.0,4.0,14.0,8.0,-9.0,-4.0,0.0,9.0
1706291964.0800695,-1.0,10.0,-13.0,-8.0,-6.0,-10.0,5.0,1.0
1706291964.0800695,-5.0,-6.0,8.0,-2.0,-3.0,2.0,-3.0,1.0
1706291964.0800695,4.0,39.0,48.0,8.0,3.0,2.0,1.0,-7.0
1706291964.1097317,-7.0,-52.0,-80.0,-10.0,-6.0,-3.0,3.0,-2.0
1706291964.1097317,-1.0,-8.0,35.0,-6.0,-1.0,-11.0,-12.0,-25.0
1706291964.1097317,-3.0,6.0,-3.0,3.0,4.0,9.0,-10.0,-16.0
1706291964.1097317,6.0,-15.0,-33.0,-2.0,0.0,-3.0,9.0,3.0
1706291964.119767,-2.0,8.0,34.0,1.0,-12.0,1.0,0.0,-3.0
1706291964.119767,0.0,53.0,26.0,0.0,6.0,1.0,2.0,7.0
1706291964.129732,2.0,1.0,-23.0,-4.0,3.0,8.0,0.0,8.0
1706291964.129732,-1.0,-5.0,-17.0,1.0,-5.0,-4.0,6.0,2.0
1706291964.14477,-1.0,1.0,18.0,3.0,4.0,-4.0,-1.0,-8.0
1706291964.14477,13.0,28.0,2.0,2.0,8.0,5.0,0.0,5.0
1706291964.1515167,-19.0,-93.0,11.0,-5.0,-7.0,-9.0,-4.0,3.0
1706291964.1515167,-23.0,18.0,-8.0,-3.0,0.0,1.0,0.0,3.0
1706291964.169394,-9.0,-4.0,-23.0,-7.0,-11.0,-5.0,-7.0,-5.0
1706291964.169394,-1.0,0.0,-14.0,0.0,0.0,-2.0,1.0,-2.0
1706291964.169394,-4.0,25.0,6.0,-2.0,-6.0,-6.0,-6.0,1.0
1706291964.169394,2.0,-85.0,-2.0,3.0,7.0,17.0,0.0,1.0
1706291964.1926897,9.0,40.0,8.0,10.0,14.0,3.0,3.0,0.0
1706291964.1926897,-9.0,-22.0,8.0,-5.0,-6.0,-1.0,-4.0,-3.0
1706291964.1926897,0.0,5.0,-25.0,-6.0,-7.0,-6.0,0.0,-4.0
1706291964.1926897,-3.0,13.0,15.0,-13.0,-13.0,-14.0,-1.0,2.0
1706291964.2126827,13.0,-21.0,14.0,12.0,8.0,24.0,5.0,4.0
1706291964.2126827,-10.0,-31.0,39.0,11.0,4.0,-4.0,2.0,3.0
1706291964.2126827,13.0,93.0,-10.0,-6.0,0.0,-4.0,2.0,8.0
1706291964.2126827,-4.0,-57.0,1.0,3.0,-5.0,-5.0,0.0,-5.0
1706291964.2227867,-1.0,48.0,-41.0,-9.0,4.0,4.0,0.0,-2.0
1706291964.2227867,6.0,7.0,11.0,-6.0,-9.0,0.0,-2.0,1.0
1706291964.2227867,7.0,6.0,32.0,9.0,5.0,1.0,-2.0,4.0
1706291964.2227867,0.0,4.0,-11.0,-5.0,-4.0,-11.0,-2.0,-2.0
1706291964.243133,5.0,29.0,14.0,20.0,6.0,-2.0,1.0,1.0
1706291964.243133,-5.0,-8.0,-58.0,-30.0,-21.0,-9.0,-4.0,-5.0
1706291964.243133,0.0,-12.0,6.0,6.0,8.0,-2.0,1.0,4.0
1706291964.243133,0.0,12.0,-14.0,-5.0,4.0,14.0,-2.0,-3.0
1706291964.272715,1.0,-11.0,73.0,19.0,1.0,12.0,8.0,4.0
1706291964.272715,-8.0,-28.0,-37.0,-20.0,5.0,-17.0,-4.0,-3.0
1706291964.272715,0.0,-8.0,-7.0,0.0,-4.0,12.0,-2.0,1.0
1706291964.272715,4.0,22.0,22.0,6.0,2.0,-5.0,-1.0,2.0
1706291964.2829554,-6.0,-2.0,23.0,12.0,-11.0,-8.0,-6.0,-4.0
1706291964.2829554,0.0,-22.0,11.0,-9.0,8.0,12.0,6.0,1.0
1706291964.2829554,1.0,1.0,12.0,3.0,2.0,1.0,1.0,2.0
1706291964.2829554,-3.0,5.0,42.0,-1.0,0.0,-2.0,-2.0,-4.0
1706291964.3030262,-2.0,8.0,-23.0,-23.0,-11.0,-13.0,-5.0,-3.0
1706291964.3030262,-15.0,-2.0,16.0,19.0,-8.0,-6.0,-3.0,-4.0
1706291964.312742,-3.0,-6.0,-79.0,-23.0,-9.0,3.0,1.0,-1.0
1706291964.312742,1.0,47.0,42.0,3.0,0.0,-18.0,-6.0,-3.0
1706291964.3228498,0.0,-13.0,48.0,6.0,19.0,7.0,1.0,-3.0
1706291964.33271,8.0,-1.0,-38.0,1.0,6.0,2.0,2.0,2.0
1706291964.33271,-2.0,6.0,83.0,0.0,-9.0,-6.0,-2.0,-4.0
1706291964.33271,-3.0,-9.0,-55.0,-7.0,-3.0,7.0,4.0,8.0
1706291964.3429518,-2.0,-6.0,-6.0,-14.0,-8.0,-12.0,-6.0,-6.0
1706291964.3429518,4.0,9.0,20.0,9.0,0.0,9.0,-3.0,0.0
1706291964.3429518,-5.0,-11.0,23.0,23.0,10.0,0.0,0.0,-1.0
1706291964.3429518,7.0,-1.0,7.0,0.0,1.0,-2.0,3.0,4.0
1706291964.3630962,-10.0,-10.0,-58.0,-8.0,-2.0,-9.0,-3.0,-1.0
1706291964.3630962,4.0,5.0,40.0,2.0,0.0,0.0,0.0,-2.0
1706291964.3630962,2.0,-7.0,-106.0,-6.0,-3.0,2.0,0.0,4.0
1706291964.3630962,-6.0,-7.0,59.0,-5.0,-8.0,-5.0,0.0,-4.0
1706291964.4031143,-1.0,-2.0,-15.0,-3.0,6.0,3.0,1.0,0.0
1706291964.4031143,-4.0,0.0,-10.0,7.0,-5.0,-2.0,-3.0,-3.0
1706291964.4031143,-3.0,-19.0,-46.0,-27.0,-11.0,-13.0,-3.0,-6.0
1706291964.4031143,0.0,1.0,-12.0,3.0,-3.0,-2.0,-4.0,-2.0
1706291964.4031143,-8.0,-1.0,25.0,-4.0,-6.0,2.0,-3.0,-3.0
1706291964.4031143,2.0,-11.0,-23.0,8.0,11.0,-5.0,2.0,2.0
1706291964.4031143,2.0,26.0,44.0,12.0,10.0,5.0,-2.0,7.0
1706291964.4031143,2.0,11.0,-34.0,0.0,4.0,-2.0,-1.0,-10.0
1706291964.4234054,2.0,-10.0,-37.0,-13.0,-16.0,-9.0,-4.0,3.0
1706291964.4234054,-3.0,9.0,25.0,0.0,-6.0,3.0,-1.0,-4.0
1706291964.4234054,-9.0,-30.0,-49.0,-12.0,6.0,0.0,1.0,-1.0
1706291964.4234054,-7.0,1.0,-32.0,0.0,-1.0,-10.0,-3.0,-1.0
1706291964.443114,12.0,6.0,1.0,-1.0,5.0,2.0,2.0,4.0
1706291964.443114,0.0,0.0,6.0,1.0,-8.0,-7.0,-4.0,-2.0
1706291964.443114,5.0,-4.0,22.0,4.0,2.0,-3.0,-2.0,-1.0
1706291964.443114,-22.0,0.0,-9.0,2.0,8.0,15.0,7.0,1.0
1706291964.4633882,-3.0,-4.0,-5.0,4.0,4.0,0.0,-1.0,-4.0
1706291964.4633882,-2.0,-10.0,-10.0,-8.0,-8.0,-5.0,-2.0,-1.0
1706291964.4633882,1.0,4.0,33.0,-4.0,-12.0,-1.0,-2.0,-3.0
1706291964.4633882,9.0,-4.0,-6.0,-1.0,0.0,7.0,-3.0,2.0
1706291964.5031147,-2.0,4.0,7.0,2.0,5.0,2.0,6.0,13.0
1706291964.5031147,-2.0,5.0,-5.0,5.0,1.0,-2.0,-4.0,-3.0
1706291964.5031147,-7.0,1.0,40.0,6.0,1.0,1.0,-1.0,-5.0
1706291964.5031147,-2.0,-12.0,12.0,-8.0,3.0,5.0,-1.0,-1.0
1706291964.5031147,-5.0,-11.0,-37.0,-6.0,-13.0,1.0,-2.0,4.0
1706291964.5031147,0.0,-7.0,39.0,1.0,-2.0,-9.0,-2.0,-1.0
1706291964.5031147,-2.0,-11.0,-6.0,6.0,11.0,6.0,-1.0,-2.0
1706291964.5031147,-3.0,2.0,8.0,3.0,5.0,-2.0,5.0,-2.0
1706291964.5233605,-1.0,1.0,18.0,-2.0,-4.0,7.0,26.0,-7.0
1706291964.5233605,2.0,4.0,-8.0,-6.0,-8.0,-3.0,-21.0,1.0
1706291964.5233605,-2.0,-13.0,-3.0,-7.0,-8.0,-6.0,1.0,-9.0
1706291964.5233605,6.0,11.0,19.0,0.0,-3.0,0.0,-12.0,16.0
1706291964.5531325,2.0,3.0,-10.0,-1.0,0.0,-5.0,-14.0,-45.0
1706291964.5531325,12.0,-3.0,-6.0,-1.0,1.0,1.0,7.0,50.0
1706291964.5531325,-9.0,13.0,14.0,4.0,6.0,6.0,22.0,-83.0
1706291964.5531325,8.0,-1.0,-16.0,10.0,11.0,6.0,-15.0,16.0
1706291964.5731118,-6.0,-3.0,0.0,-13.0,-14.0,-13.0,-13.0,5.0
1706291964.5731118,-1.0,3.0,-11.0,-4.0,-6.0,5.0,12.0,-4.0
1706291964.5731118,7.0,5.0,10.0,6.0,3.0,-5.0,-5.0,18.0
1706291964.5731118,4.0,-5.0,-17.0,-4.0,0.0,-1.0,6.0,-3.0
1706291964.583329,-2.0,-1.0,12.0,7.0,5.0,0.0,-2.0,-1.0
1706291964.583329,-6.0,-1.0,26.0,-6.0,-8.0,-7.0,-4.0,-11.0
1706291964.583329,2.0,9.0,11.0,2.0,-1.0,1.0,2.0,22.0
1706291964.583329,-4.0,-15.0,-59.0,-9.0,3.0,-4.0,8.0,-15.0
1706291964.6231196,2.0,-1.0,10.0,0.0,-5.0,-1.0,-11.0,15.0
1706291964.6231196,-3.0,1.0,-4.0,-4.0,-1.0,-1.0,-1.0,-11.0
1706291964.633116,4.0,0.0,-19.0,3.0,-1.0,3.0,-3.0,11.0
1706291964.633116,3.0,4.0,19.0,1.0,-6.0,-5.0,-5.0,1.0
1706291964.633116,-4.0,-4.0,-9.0,-5.0,-4.0,-3.0,-2.0,-6.0
1706291964.633116,-3.0,-3.0,-2.0,-1.0,1.0,0.0,5.0,-7.0
1706291964.633116,1.0,1.0,12.0,2.0,-1.0,-4.0,-7.0,7.0
1706291964.633116,1.0,-1.0,15.0,-2.0,-7.0,-4.0,-1.0,-3.0
1706291964.6434166,-3.0,-1.0,-9.0,0.0,5.0,7.0,1.0,5.0
1706291964.6434166,-2.0,-1.0,2.0,8.0,12.0,1.0,-1.0,-5.0
1706291964.6434166,4.0,4.0,-5.0,-10.0,-6.0,-4.0,-12.0,6.0
1706291964.6434166,-17.0,-6.0,-4.0,-10.0,-9.0,-7.0,8.0,-10.0
1706291964.6705542,4.0,1.0,6.0,10.0,9.0,6.0,-1.0,0.0
1706291964.6705542,0.0,1.0,-19.0,1.0,2.0,4.0,0.0,0.0
1706291964.6725645,1.0,-3.0,7.0,-9.0,-10.0,-9.0,-8.0,2.0
1706291964.6725645,6.0,-2.0,-2.0,12.0,11.0,3.0,3.0,1.0
1706291964.6838114,-8.0,-3.0,7.0,-6.0,-6.0,-8.0,-2.0,-2.0
1706291964.6848378,-3.0,0.0,-16.0,-7.0,-4.0,1.0,-2.0,-5.0
1706291964.688068,1.0,-2.0,4.0,4.0,3.0,-4.0,0.0,6.0
1706291964.688068,2.0,6.0,25.0,-4.0,-15.0,-4.0,-3.0,-2.0
1706291964.7080705,-2.0,2.0,13.0,9.0,15.0,2.0,0.0,5.0
1706291964.7080705,1.0,-7.0,-12.0,-2.0,6.0,4.0,3.0,-5.0
1706291964.7080705,-5.0,-16.0,-88.0,-29.0,-20.0,-10.0,-8.0,-5.0
1706291964.7080705,6.0,16.0,-1.0,4.0,-4.0,-3.0,-2.0,-1.0
1706291964.738063,1.0,-4.0,7.0,-2.0,2.0,1.0,0.0,-2.0
1706291964.738063,-4.0,-2.0,8.0,5.0,-2.0,0.0,-1.0,-3.0
1706291964.738063,-3.0,4.0,34.0,6.0,12.0,5.0,2.0,3.0
1706291964.738063,0.0,-5.0,-13.0,2.0,4.0,4.0,2.0,-4.0
1706291964.738063,10.0,-7.0,-21.0,8.0,-7.0,-9.0,-3.0,2.0
1706291964.738063,-10.0,9.0,13.0,-9.0,-10.0,-5.0,-4.0,-7.0
1706291964.7580721,3.0,1.0,-22.0,-8.0,-3.0,1.0,0.0,5.0
1706291964.7580721,-1.0,-8.0,5.0,-11.0,-11.0,-5.0,-3.0,-2.0
1706291964.7680666,0.0,2.0,2.0,-9.0,7.0,-5.0,-3.0,-2.0
1706291964.7780633,-1.0,-6.0,-13.0,7.0,6.0,4.0,1.0,0.0
1706291964.7780633,-1.0,2.0,17.0,11.0,3.0,2.0,2.0,2.0
1706291964.7780633,-4.0,-6.0,10.0,10.0,3.0,-6.0,-18.0,2.0
1706291964.788311,-5.0,4.0,-21.0,-13.0,-1.0,8.0,17.0,-2.0
1706291964.788311,2.0,1.0,-36.0,-5.0,0.0,-2.0,-1.0,1.0
1706291964.788311,-5.0,3.0,27.0,-8.0,-13.0,-12.0,-6.0,-1.0
1706291964.788311,-1.0,-5.0,-18.0,-5.0,-3.0,2.0,2.0,4.0
1706291964.7982566,-2.0,0.0,17.0,11.0,6.0,1.0,-1.0,-5.0
1706291964.7982566,-3.0,-12.0,-1.0,6.0,3.0,0.0,0.0,0.0
1706291964.8280644,2.0,7.0,26.0,5.0,3.0,2.0,1.0,6.0
1706291964.8280644,-4.0,-4.0,12.0,-3.0,-4.0,-3.0,1.0,-3.0
1706291964.8280644,1.0,-5.0,-16.0,-7.0,-5.0,-7.0,-6.0,-6.0
1706291964.8280644,-10.0,7.0,6.0,0.0,-4.0,-1.0,3.0,-2.0
1706291964.8280644,1.0,-1.0,6.0,7.0,2.0,2.0,-3.0,2.0
1706291964.8280644,-6.0,4.0,-8.0,-13.0,-8.0,-4.0,0.0,-7.0
1706291964.8484657,4.0,1.0,20.0,4.0,-1.0,1.0,-2.0,7.0
1706291964.8484657,4.0,-2.0,-3.0,-8.0,-1.0,0.0,-4.0,-6.0
1706291964.8484657,-1.0,-2.0,-8.0,6.0,5.0,1.0,2.0,0.0
1706291964.8484657,-3.0,-10.0,-11.0,4.0,8.0,2.0,2.0,-5.0
1706291964.8583734,-1.0,1.0,16.0,4.0,-10.0,-7.0,-3.0,1.0
1706291964.8583734,-1.0,-6.0,6.0,-3.0,1.0,1.0,0.0,2.0
1706291964.8683567,1.0,6.0,-5.0,-4.0,2.0,-1.0,1.0,0.0
1706291964.8683567,1.0,-6.0,0.0,-3.0,-10.0,-3.0,-1.0,-4.0
1706291964.8880632,-4.0,-2.0,-14.0,-5.0,0.0,0.0,-2.0,0.0
1706291964.8880632,2.0,-1.0,7.0,3.0,5.0,2.0,1.0,1.0
1706291964.8880632,-3.0,0.0,6.0,1.0,2.0,1.0,1.0,-3.0
1706291964.8880632,-2.0,-5.0,4.0,-2.0,-2.0,-8.0,-4.0,-2.0
1706291964.9083679,-3.0,4.0,-8.0,-7.0,-9.0,-5.0,1.0,6.0
1706291964.9083679,5.0,12.0,-4.0,4.0,0.0,2.0,-2.0,2.0
1706291964.9083679,-7.0,-20.0,-4.0,-6.0,-6.0,-3.0,-9.0,-23.0
1706291964.9083679,3.0,12.0,-34.0,-5.0,2.0,5.0,0.0,1.0
1706291964.9280694,-9.0,-46.0,-2.0,-1.0,0.0,6.0,4.0,-7.0
1706291964.9280694,2.0,28.0,18.0,-2.0,-2.0,-15.0,0.0,6.0
1706291964.9280694,-1.0,-43.0,-38.0,3.0,-3.0,-3.0,0.0,6.0
1706291964.9280694,-3.0,0.0,15.0,-5.0,-5.0,3.0,0.0,-1.0
1706291964.9580636,-6.0,9.0,-5.0,-1.0,1.0,-13.0,-7.0,-5.0
1706291964.9580636,2.0,3.0,12.0,2.0,3.0,2.0,8.0,-18.0
1706291964.9580636,4.0,-8.0,17.0,1.0,-9.0,7.0,3.0,32.0
1706291964.9580636,-4.0,-25.0,-12.0,-6.0,-1.0,-2.0,4.0,14.0
1706291964.9680674,2.0,6.0,-1.0,-1.0,3.0,2.0,-7.0,-2.0
1706291964.9680674,-4.0,-12.0,-1.0,-3.0,-3.0,-2.0,-3.0,-6.0
1706291964.9680674,0.0,26.0,6.0,-1.0,0.0,-9.0,-4.0,-6.0
1706291964.9680674,1.0,-3.0,4.0,6.0,7.0,6.0,6.0,-2.0
1706291964.9884195,4.0,7.0,-10.0,-2.0,-4.0,0.0,-2.0,9.0
1706291964.9884195,0.0,-3.0,0.0,-5.0,-8.0,1.0,1.0,6.0
1706291964.9884195,-2.0,8.0,-9.0,-9.0,-2.0,-3.0,-7.0,-33.0
1706291964.9884195,-2.0,5.0,14.0,14.0,4.0,5.0,-2.0,-10.0
1706291964.9980664,4.0,4.0,3.0,4.0,16.0,-2.0,-7.0,5.0
1706291964.9980664,-4.0,-7.0,-2.0,-7.0,-4.0,5.0,-17.0,12.0
1706291965.008065,-2.0,5.0,6.0,-1.0,-6.0,-7.0,7.0,-9.0
1706291965.008065,0.0,-2.0,-15.0,-19.0,-18.0,-11.0,-2.0,1.0
1706291965.0380688,-4.0,3.0,10.0,3.0,-3.0,-9.0,-10.0,-24.0
1706291965.0380688,-2.0,-12.0,-9.0,11.0,12.0,15.0,7.0,20.0
1706291965.0380688,4.0,9.0,4.0,6.0,23.0,10.0,6.0,12.0
1706291965.0380688,-4.0,13.0,23.0,16.0,2.0,-5.0,-10.0,-6.0
1706291965.048067,2.0,-5.0,-7.0,-10.0,-13.0,-2.0,9.0,10.0
1706291965.048067,-4.0,-9.0,-6.0,-11.0,-10.0,-5.0,20.0,-9.0
1706291965.048067,-2.0,6.0,-1.0,-3.0,-5.0,-14.0,-50.0,-7.0
1706291965.048067,1.0,7.0,6.0,0.0,2.0,-8.0,22.0,-6.0
1706291965.0682669,1.0,4.0,10.0,3.0,-1.0,8.0,-24.0,6.0
1706291965.0682669,-3.0,-5.0,-3.0,-5.0,-4.0,-16.0,-11.0,-3.0
1706291965.0682669,-5.0,0.0,0.0,-2.0,1.0,13.0,22.0,9.0
1706291965.0682669,8.0,10.0,-2.0,6.0,0.0,1.0,14.0,-7.0
1706291965.0980697,8.0,13.0,-8.0,-5.0,-1.0,8.0,-8.0,4.0
1706291965.0980697,-8.0,-7.0,-2.0,0.0,-2.0,-19.0,-17.0,-24.0
1706291965.0980697,0.0,-2.0,-4.0,1.0,-3.0,2.0,7.0,39.0
1706291965.0980697,-1.0,-6.0,1.0,-3.0,2.0,2.0,44.0,11.0
1706291965.1181543,0.0,4.0,-4.0,3.0,-1.0,-1.0,-53.0,-19.0
1706291965.1181543,12.0,18.0,-7.0,-13.0,-8.0,-2.0,-5.0,4.0
1706291965.1181543,-2.0,-4.0,9.0,4.0,5.0,-4.0,8.0,-5.0
1706291965.1181543,-1.0,-1.0,-12.0,-9.0,-5.0,0.0,2.0,-10.0
1706291965.1181543,-7.0,1.0,2.0,2.0,-1.0,16.0,25.0,2.0
1706291965.1181543,-2.0,-16.0,3.0,12.0,9.0,-13.0,26.0,15.0
1706291965.1281507,-1.0,-8.0,2.0,2.0,1.0,6.0,-17.0,-27.0
1706291965.1281507,0.0,9.0,-12.0,0.0,6.0,9.0,-20.0,7.0
1706291965.1483305,-1.0,-10.0,8.0,-3.0,-7.0,-8.0,1.0,5.0
1706291965.1483305,3.0,18.0,22.0,3.0,-2.0,2.0,-8.0,-11.0
1706291965.1483305,-5.0,8.0,0.0,2.0,-4.0,-4.0,-5.0,8.0
1706291965.1483305,3.0,-17.0,-33.0,-13.0,-5.0,-2.0,18.0,4.0
1706291965.1781507,-1.0,8.0,43.0,5.0,2.0,-13.0,10.0,-8.0
1706291965.1781507,-6.0,-11.0,-14.0,-14.0,-8.0,9.0,-34.0,1.0
1706291965.1781507,3.0,7.0,8.0,3.0,-1.0,-6.0,23.0,-3.0
1706291965.1781507,-1.0,-4.0,-19.0,-4.0,-2.0,-7.0,-81.0,-14.0
1706291965.1881588,-1.0,-2.0,-9.0,-5.0,-5.0,-8.0,37.0,20.0
1706291965.1881588,8.0,6.0,2.0,11.0,7.0,16.0,-66.0,-37.0
1706291965.1881588,-3.0,-4.0,-10.0,-3.0,-4.0,-16.0,21.0,-6.0
1706291965.1881588,-9.0,-7.0,-23.0,-15.0,3.0,2.0,21.0,-7.0
1706291965.2103915,-1.0,-8.0,7.0,-2.0,-4.0,-6.0,7.0,1.0
1706291965.2103915,-9.0,-11.0,20.0,5.0,-10.0,-10.0,1.0,6.0
1706291965.2114105,3.0,-4.0,-42.0,-22.0,-10.0,5.0,-13.0,-14.0
1706291965.212411,5.0,6.0,-26.0,9.0,6.0,-1.0,-23.0,0.0
1706291965.2409995,-11.0,3.0,56.0,1.0,19.0,5.0,13.0,-7.0
1706291965.2409995,0.0,-4.0,4.0,5.0,-2.0,2.0,35.0,8.0
1706291965.2409995,-5.0,-4.0,6.0,6.0,-6.0,6.0,-4.0,-2.0
1706291965.2409995,3.0,8.0,7.0,0.0,4.0,5.0,16.0,14.0
1706291965.2409995,17.0,14.0,-30.0,-6.0,-4.0,-7.0,-29.0,2.0
1706291965.2409995,-5.0,12.0,-7.0,-6.0,-5.0,-14.0,11.0,10.0
1706291965.2513344,-4.0,-18.0,-5.0,-12.0,-14.0,1.0,4.0,-11.0
1706291965.2513344,-1.0,7.0,20.0,2.0,2.0,-2.0,-22.0,-1.0
1706291965.2710028,-4.0,0.0,-13.0,0.0,2.0,5.0,31.0,-8.0
1706291965.2710028,-5.0,-1.0,-10.0,-5.0,-3.0,-2.0,11.0,3.0
1706291965.2710028,3.0,7.0,6.0,7.0,4.0,2.0,3.0,6.0
1706291965.2710028,-11.0,-5.0,25.0,7.0,2.0,8.0,-12.0,-7.0
1706291965.291318,-10.0,-17.0,-23.0,-2.0,-1.0,-6.0,-54.0,-1.0
1706291965.291318,8.0,14.0,-10.0,-8.0,-3.0,1.0,25.0,-6.0
1706291965.291318,-9.0,-10.0,-4.0,-8.0,-4.0,-7.0,-28.0,-8.0
1706291965.291318,-2.0,-6.0,20.0,6.0,-1.0,-4.0,6.0,-8.0
1706291965.3012078,15.0,0.0,-20.0,0.0,-4.0,7.0,1.0,19.0
1706291965.3012078,9.0,11.0,-8.0,4.0,2.0,-6.0,37.0,13.0
1706291965.3112986,-22.0,7.0,6.0,-9.0,0.0,-13.0,-19.0,11.0
1706291965.3112986,-10.0,-5.0,8.0,17.0,2.0,-5.0,-5.0,-32.0
1706291965.33101,-6.0,-14.0,-10.0,-7.0,1.0,3.0,8.0,-13.0
1706291965.33101,-9.0,0.0,-3.0,0.0,-2.0,-1.0,-17.0,-2.0
1706291965.33101,11.0,-4.0,-2.0,1.0,7.0,8.0,14.0,22.0
1706291965.33101,0.0,9.0,12.0,2.0,-5.0,-4.0,-9.0,8.0
1706291965.3512826,-3.0,-15.0,-6.0,12.0,-10.0,-10.0,-23.0,-2.0
1706291965.3512826,3.0,2.0,55.0,-2.0,9.0,24.0,11.0,9.0
1706291965.3512826,-15.0,-34.0,-77.0,-24.0,-7.0,-24.0,-23.0,-25.0
1706291965.3512826,-4.0,20.0,12.0,-9.0,-1.0,12.0,5.0,24.0
1706291965.361232,3.0,-1.0,-3.0,11.0,3.0,-3.0,24.0,-16.0
1706291965.361232,8.0,10.0,50.0,23.0,20.0,28.0,7.0,-10.0
1706291965.3712332,-3.0,-20.0,-18.0,11.0,-3.0,-5.0,13.0,-7.0
1706291965.3712332,22.0,-2.0,24.0,-16.0,6.0,8.0,2.0,9.0
1706291965.4110029,1.0,5.0,-60.0,-13.0,-15.0,-10.0,40.0,31.0
1706291965.4110029,-12.0,-6.0,-62.0,18.0,6.0,5.0,2.0,-7.0
1706291965.4110029,9.0,13.0,64.0,18.0,8.0,12.0,4.0,0.0
1706291965.4110029,1.0,-1.0,15.0,-4.0,-9.0,-19.0,9.0,16.0
1706291965.4210048,-15.0,-30.0,-57.0,-16.0,-6.0,9.0,-28.0,2.0
1706291965.4210048,-1.0,4.0,-15.0,-9.0,-9.0,-7.0,-16.0,-41.0
1706291965.4210048,8.0,16.0,32.0,10.0,-3.0,0.0,4.0,1.0
1706291965.4210048,-12.0,-23.0,-15.0,0.0,-12.0,-10.0,-18.0,-18.0
1706291965.4210048,23.0,11.0,27.0,-10.0,7.0,8.0,10.0,-2.0
1706291965.4210048,2.0,5.0,-1.0,22.0,6.0,-13.0,-8.0,11.0
1706291965.4312377,-18.0,-34.0,-10.0,-20.0,2.0,3.0,-10.0,2.0
1706291965.4312377,11.0,-4.0,1.0,7.0,-3.0,-9.0,1.0,-25.0
1706291965.4610002,-21.0,4.0,5.0,-10.0,-13.0,11.0,-6.0,-14.0
1706291965.4610002,22.0,-6.0,-8.0,-29.0,-6.0,-12.0,-26.0,8.0
1706291965.4610002,-35.0,20.0,15.0,9.0,7.0,16.0,52.0,0.0
1706291965.4610002,1.0,-29.0,-17.0,-12.0,8.0,1.0,0.0,5.0
1706291965.4710326,2.0,25.0,18.0,4.0,-1.0,1.0,22.0,-18.0
1706291965.4710326,-10.0,-49.0,-1.0,-3.0,-7.0,-16.0,-59.0,-9.0
1706291965.4710326,12.0,6.0,-11.0,-10.0,-5.0,10.0,0.0,3.0
1706291965.4710326,-7.0,10.0,4.0,17.0,9.0,-31.0,35.0,-2.0
1706291965.4813185,10.0,22.0,16.0,9.0,0.0,7.0,13.0,48.0
1706291965.4813185,-11.0,-24.0,-3.0,-11.0,-11.0,-20.0,14.0,-37.0
1706291965.5009997,30.0,18.0,0.0,-2.0,-2.0,-2.0,-12.0,33.0
1706291965.5009997,-24.0,7.0,19.0,6.0,-2.0,2.0,-8.0,5.0
1706291965.5009997,-3.0,5.0,60.0,13.0,-1.0,-5.0,-13.0,-32.0
1706291965.5009997,-5.0,-17.0,-93.0,-40.0,-2.0,0.0,-37.0,14.0
1706291965.5109985,1.0,-27.0,-41.0,-13.0,-3.0,1.0,12.0,10.0
1706291965.5109985,-3.0,0.0,-2.0,0.0,-2.0,11.0,-20.0,26.0
1706291965.531391,-1.0,-5.0,-35.0,11.0,8.0,-3.0,14.0,9.0
1706291965.531391,-9.0,20.0,63.0,-7.0,-4.0,-4.0,0.0,2.0
1706291965.531391,14.0,1.0,-40.0,-7.0,-3.0,-10.0,-12.0,-27.0
1706291965.531391,5.0,-10.0,37.0,6.0,3.0,14.0,1.0,2.0
1706291965.5413601,-1.0,-2.0,-41.0,3.0,0.0,-10.0,-1.0,1.0
1706291965.5413601,2.0,8.0,19.0,6.0,-4.0,-5.0,-4.0,5.0
1706291965.5609999,7.0,7.0,0.0,-23.0,5.0,3.0,-7.0,-1.0
1706291965.5609999,0.0,24.0,-11.0,10.0,4.0,1.0,12.0,-17.0
1706291965.5710049,2.0,3.0,34.0,25.0,3.0,-9.0,-22.0,-6.0
1706291965.5710049,-1.0,-14.0,1.0,-9.0,3.0,4.0,14.0,5.0
1706291965.5710049,1.0,23.0,38.0,21.0,-5.0,-7.0,-8.0,-7.0
1706291965.5710049,-3.0,-8.0,-30.0,-20.0,-10.0,0.0,6.0,-2.0
1706291965.5912397,-6.0,-11.0,-3.0,-13.0,-1.0,26.0,6.0,1.0
1706291965.5912397,6.0,1.0,-11.0,9.0,-6.0,-23.0,-31.0,0.0
1706291965.5912397,-7.0,26.0,22.0,-5.0,-13.0,-23.0,9.0,-8.0
1706291965.5912397,20.0,-17.0,-20.0,1.0,5.0,20.0,33.0,24.0
1706291965.6010087,-13.0,-4.0,1.0,-8.0,-1.0,-30.0,-52.0,-40.0
1706291965.6010087,11.0,13.0,19.0,13.0,6.0,15.0,68.0,-8.0
1706291965.6210008,19.0,-5.0,3.0,11.0,13.0,20.0,-58.0,7.0
1706291965.6210008,-18.0,26.0,7.0,-9.0,-9.0,-15.0,22.0,-20.0
1706291965.6210008,6.0,-7.0,3.0,-12.0,-6.0,-7.0,-42.0,30.0
1706291965.6210008,-12.0,4.0,-17.0,-12.0,-15.0,5.0,35.0,4.0
1706291965.6309986,-12.0,-27.0,6.0,8.0,-1.0,-20.0,3.0,-14.0
1706291965.6309986,1.0,-4.0,0.0,7.0,-1.0,1.0,2.0,9.0
1706291965.6514218,-3.0,8.0,4.0,-11.0,4.0,4.0,14.0,-7.0
1706291965.6514218,-2.0,-9.0,-12.0,4.0,3.0,5.0,-17.0,2.0
1706291965.6514218,0.0,1.0,-11.0,-3.0,4.0,15.0,8.0,13.0
1706291965.6514218,-8.0,-19.0,16.0,8.0,2.0,-10.0,-45.0,-10.0
1706291965.6709995,-4.0,4.0,29.0,11.0,2.0,7.0,10.0,-6.0
1706291965.6709995,-2.0,0.0,5.0,-3.0,-6.0,-11.0,-11.0,9.0
1706291965.6709995,2.0,5.0,76.0,0.0,-2.0,7.0,68.0,-12.0
1706291965.6709995,9.0,-17.0,-55.0,6.0,7.0,8.0,-33.0,-5.0
1706291965.6910024,12.0,8.0,26.0,9.0,3.0,18.0,10.0,-4.0
1706291965.6910024,-3.0,-10.0,-23.0,-23.0,-3.0,-12.0,-2.0,10.0
1706291965.6910024,-2.0,3.0,46.0,6.0,4.0,-3.0,-3.0,3.0
1706291965.6910024,7.0,30.0,64.0,6.0,-12.0,-3.0,-2.0,10.0
1706291965.7114217,-5.0,-3.0,-3.0,-3.0,-3.0,-11.0,9.0,4.0
1706291965.7114217,1.0,-29.0,-69.0,-9.0,-9.0,16.0,-12.0,-38.0
1706291965.7114217,-7.0,2.0,-41.0,6.0,1.0,-15.0,-23.0,-43.0
1706291965.7114217,-4.0,14.0,-36.0,-16.0,-3.0,6.0,21.0,-6.0
1706291965.7210002,-4.0,-18.0,-47.0,0.0,0.0,-7.0,-4.0,-16.0
1706291965.7210002,1.0,-3.0,49.0,5.0,6.0,9.0,-7.0,14.0
1706291965.7348797,0.0,2.0,-1.0,2.0,-3.0,-13.0,-11.0,6.0
1706291965.7348797,1.0,-6.0,-3.0,-4.0,-2.0,-1.0,2.0,-8.0
1706291965.750245,4.0,-6.0,0.0,-13.0,-10.0,8.0,10.0,3.0
1706291965.7508895,3.0,10.0,-24.0,12.0,4.0,-21.0,54.0,13.0
1706291965.75198,-6.0,0.0,6.0,7.0,7.0,6.0,-26.0,9.0
1706291965.75198,13.0,-6.0,-5.0,-14.0,0.0,9.0,30.0,2.0
1706291965.7638657,7.0,4.0,4.0,14.0,3.0,7.0,-26.0,5.0
1706291965.7638657,4.0,13.0,27.0,-11.0,-3.0,0.0,-16.0,5.0
1706291965.7739043,-7.0,-2.0,-23.0,-6.0,-10.0,18.0,-26.0,-10.0
1706291965.7739043,-15.0,-19.0,0.0,-8.0,-6.0,-16.0,-16.0,-2.0
1706291965.7838624,-1.0,9.0,3.0,12.0,7.0,-6.0,8.0,-5.0
1706291965.7838624,-8.0,-4.0,19.0,23.0,21.0,23.0,15.0,19.0
1706291965.794126,-1.0,7.0,-5.0,-12.0,0.0,10.0,-9.0,-8.0
1706291965.794126,2.0,-6.0,-9.0,4.0,-8.0,-6.0,11.0,3.0
1706291965.804354,-9.0,8.0,9.0,-10.0,-6.0,2.0,30.0,-11.0
1706291965.804354,6.0,-4.0,1.0,4.0,0.0,14.0,-10.0,0.0
1706291965.804354,9.0,36.0,5.0,-2.0,0.0,-20.0,-3.0,14.0
1706291965.804354,6.0,-34.0,-6.0,-10.0,-7.0,-4.0,-2.0,5.0
1706291965.8247445,-8.0,8.0,-5.0,-8.0,-4.0,7.0,35.0,-10.0
1706291965.8247445,1.0,27.0,21.0,10.0,0.0,-7.0,76.0,6.0
1706291965.8344386,-7.0,-16.0,-27.0,-6.0,-4.0,-12.0,-86.0,-3.0
1706291965.8344386,-5.0,10.0,29.0,4.0,-2.0,-8.0,-26.0,-53.0
1706291965.8443666,-6.0,-16.0,-50.0,-6.0,-2.0,-16.0,-5.0,-6.0
1706291965.8443666,-4.0,11.0,89.0,6.0,8.0,8.0,-26.0,-5.0
1706291965.8546326,-14.0,-37.0,-90.0,-8.0,1.0,-5.0,32.0,-14.0
1706291965.8546326,1.0,28.0,43.0,-12.0,-9.0,-5.0,10.0,18.0
1706291965.8646839,-8.0,-34.0,-66.0,-16.0,11.0,1.0,-23.0,4.0
1706291965.8646839,0.0,2.0,19.0,-3.0,2.0,8.0,-8.0,18.0
1706291965.8646839,2.0,-25.0,22.0,3.0,-13.0,-7.0,23.0,7.0
1706291965.8646839,2.0,42.0,5.0,10.0,-9.0,-5.0,-19.0,-2.0
1706291965.8846939,-3.0,-19.0,-8.0,-4.0,1.0,-6.0,6.0,1.0
1706291965.8846939,-10.0,-12.0,-18.0,-1.0,-9.0,-17.0,-16.0,-10.0
1706291965.89437,7.0,2.0,-7.0,9.0,5.0,3.0,4.0,11.0
1706291965.89437,9.0,17.0,10.0,5.0,5.0,12.0,39.0,10.0
1706291965.9243655,-4.0,-28.0,-12.0,-2.0,-8.0,-6.0,-49.0,-6.0
1706291965.9243655,-5.0,0.0,-2.0,5.0,-2.0,11.0,-6.0,-6.0
1706291965.9243655,7.0,10.0,13.0,-5.0,-1.0,4.0,-16.0,6.0
1706291965.9243655,-12.0,-13.0,-20.0,-1.0,7.0,3.0,-39.0,-13.0
1706291965.9243655,-11.0,15.0,19.0,-5.0,-4.0,-4.0,32.0,17.0
1706291965.9243655,-2.0,-9.0,-20.0,-4.0,-3.0,3.0,-89.0,-20.0
1706291965.934746,16.0,22.0,20.0,4.0,4.0,5.0,18.0,12.0
1706291965.934746,48.0,-15.0,-12.0,-2.0,-4.0,-11.0,-27.0,-10.0
1706291965.9543643,-98.0,-16.0,25.0,-3.0,-2.0,-4.0,7.0,-16.0
1706291965.9543643,-15.0,-14.0,-21.0,10.0,6.0,2.0,-16.0,1.0
1706291965.9543643,3.0,10.0,19.0,7.0,4.0,19.0,28.0,-16.0
1706291965.9543643,6.0,9.0,-19.0,-19.0,1.0,-9.0,-21.0,-8.0
1706291965.9645913,46.0,-2.0,19.0,4.0,-9.0,4.0,-24.0,-8.0
1706291965.9645913,-9.0,-16.0,-21.0,-16.0,1.0,-7.0,8.0,29.0
1706291965.9746664,-7.0,15.0,-6.0,-6.0,-9.0,-28.0,-6.0,10.0
1706291965.9746664,6.0,-9.0,0.0,19.0,3.0,16.0,25.0,16.0
1706291965.9846787,19.0,14.0,20.0,-11.0,-6.0,-22.0,-63.0,-4.0
1706291965.9846787,-6.0,14.0,31.0,7.0,7.0,6.0,80.0,-6.0
1706291965.9846787,5.0,-27.0,-61.0,-30.0,1.0,-3.0,34.0,15.0
1706291965.9846787,-26.0,-5.0,36.0,19.0,4.0,0.0,-42.0,-10.0
1706291966.0243647,7.0,24.0,-58.0,-12.0,-1.0,8.0,11.0,28.0
1706291966.0243647,19.0,-6.0,-24.0,-21.0,-14.0,-15.0,-18.0,-16.0
1706291966.0243647,5.0,50.0,54.0,4.0,-6.0,11.0,14.0,5.0
1706291966.0243647,-13.0,-32.0,-41.0,-16.0,3.0,8.0,3.0,6.0
1706291966.0243647,-7.0,38.0,50.0,47.0,16.0,1.0,60.0,4.0
1706291966.0243647,4.0,-9.0,18.0,-33.0,-5.0,-14.0,-26.0,-38.0
1706291966.0343654,-1.0,5.0,-16.0,18.0,6.0,15.0,25.0,-5.0
1706291966.0343654,-22.0,-16.0,9.0,-12.0,-8.0,-2.0,-13.0,-3.0
1706291966.0447779,20.0,-7.0,-9.0,-10.0,-14.0,-16.0,18.0,-1.0
1706291966.0447779,-4.0,4.0,-11.0,5.0,3.0,-11.0,-22.0,4.0
1706291966.0447779,-8.0,-6.0,36.0,-3.0,1.0,3.0,-15.0,-10.0
1706291966.0447779,-4.0,2.0,2.0,22.0,10.0,-5.0,17.0,-2.0
1706291966.0643675,6.0,-12.0,-16.0,-33.0,-4.0,-7.0,-10.0,7.0
1706291966.0643675,1.0,10.0,19.0,23.0,-11.0,1.0,-1.0,-9.0
1706291966.0743635,-7.0,-21.0,-4.0,2.0,-9.0,-5.0,-12.0,-2.0
1706291966.0743635,9.0,21.0,-11.0,-15.0,3.0,2.0,-3.0,13.0
1706291966.094798,-8.0,-20.0,11.0,-2.0,-8.0,-3.0,8.0,-15.0
1706291966.094798,4.0,6.0,-17.0,12.0,6.0,9.0,-25.0,8.0
1706291966.094798,-2.0,4.0,22.0,13.0,10.0,5.0,16.0,-5.0
1706291966.094798,-11.0,6.0,-14.0,-1.0,-2.0,3.0,-17.0,14.0
1706291966.1143646,6.0,0.0,21.0,0.0,5.0,6.0,-33.0,-21.0
1706291966.1143646,7.0,-25.0,-12.0,1.0,-5.0,-3.0,24.0,-4.0
1706291966.1143646,-7.0,-8.0,-9.0,-12.0,-6.0,-10.0,-12.0,-33.0
1706291966.1143646,-1.0,3.0,19.0,2.0,5.0,11.0,1.0,6.0
1706291966.124744,5.0,-4.0,6.0,6.0,-3.0,12.0,30.0,13.0
1706291966.124744,-2.0,21.0,-4.0,1.0,-3.0,-25.0,-5.0,11.0
1706291966.1343663,-9.0,-11.0,8.0,1.0,1.0,-11.0,-34.0,-17.0
1706291966.1343663,-2.0,-4.0,-19.0,-8.0,-7.0,11.0,67.0,4.0
1706291966.1548085,3.0,-3.0,5.0,3.0,1.0,11.0,-45.0,-8.0
1706291966.1548085,-6.0,-2.0,-10.0,-2.0,-5.0,-2.0,34.0,-6.0
1706291966.1548085,-12.0,-4.0,16.0,0.0,3.0,-4.0,-27.0,6.0
1706291966.1548085,2.0,-10.0,-18.0,-3.0,1.0,-12.0,8.0,28.0
1706291966.1743665,11.0,32.0,28.0,27.0,14.0,0.0,4.0,-8.0
1706291966.1743665,-7.0,-16.0,-93.0,-29.0,-8.0,10.0,25.0,4.0
1706291966.1743665,5.0,6.0,25.0,1.0,-12.0,-2.0,-2.0,15.0
1706291966.1743665,-7.0,-55.0,43.0,2.0,-5.0,-9.0,-4.0,-14.0
1706291966.1846063,-5.0,9.0,56.0,-6.0,-6.0,-6.0,-34.0,-8.0
1706291966.1846063,0.0,13.0,21.0,8.0,8.0,2.0,-19.0,3.0
1706291966.1943717,4.0,-25.0,-18.0,0.0,-8.0,1.0,19.0,4.0
1706291966.1943717,-1.0,-2.0,-27.0,-2.0,8.0,-5.0,-13.0,-9.0
1706291966.2147071,2.0,2.0,-10.0,-2.0,-9.0,-8.0,24.0,6.0
1706291966.2147071,-2.0,5.0,19.0,-7.0,-9.0,-3.0,-5.0,-7.0
1706291966.2147071,0.0,-12.0,-9.0,7.0,8.0,-1.0,-6.0,8.0
1706291966.2147071,-1.0,17.0,13.0,-1.0,-4.0,-6.0,7.0,-10.0
1706291966.2443671,-3.0,-17.0,-23.0,-13.0,4.0,2.0,-14.0,4.0
1706291966.2443671,0.0,4.0,1.0,-1.0,-3.0,-3.0,1.0,3.0
1706291966.2570324,3.0,-9.0,-11.0,-4.0,-2.0,-2.0,4.0,6.0
1706291966.2570324,18.0,2.0,-7.0,9.0,-2.0,-5.0,8.0,1.0
1706291966.2570324,-4.0,-20.0,-16.0,-3.0,0.0,2.0,-18.0,0.0
1706291966.2570324,-8.0,-11.0,12.0,-5.0,-3.0,-8.0,11.0,3.0
1706291966.258031,-1.0,11.0,11.0,11.0,1.0,6.0,-9.0,0.0
1706291966.258031,-2.0,-8.0,-5.0,-1.0,1.0,8.0,64.0,3.0
1706291966.2756279,2.0,-5.0,-2.0,-5.0,8.0,-8.0,-46.0,-5.0
1706291966.2756279,-6.0,3.0,12.0,9.0,3.0,-3.0,-12.0,-12.0
1706291966.2766328,3.0,-10.0,-11.0,-10.0,-10.0,-10.0,-8.0,10.0
1706291966.2776134,-12.0,22.0,-1.0,-4.0,0.0,7.0,-24.0,-2.0
1706291966.3067696,-16.0,5.0,1.0,-2.0,-3.0,12.0,75.0,4.0
1706291966.3067696,6.0,-2.0,-9.0,3.0,3.0,2.0,-31.0,3.0
1706291966.3067696,2.0,13.0,-4.0,1.0,0.0,5.0,25.0,-31.0
1706291966.3067696,2.0,0.0,4.0,-14.0,-2.0,-20.0,-14.0,28.0
1706291966.3067696,8.0,6.0,7.0,3.0,-2.0,12.0,9.0,6.0
1706291966.3067696,0.0,-11.0,-1.0,3.0,0.0,-32.0,-11.0,1.0
1706291966.3067696,-6.0,-20.0,8.0,0.0,-2.0,-4.0,-7.0,0.0
1706291966.3067696,7.0,14.0,32.0,-2.0,-4.0,-11.0,-13.0,-13.0
1706291966.336769,-1.0,-24.0,11.0,9.0,9.0,16.0,16.0,3.0
1706291966.336769,-5.0,41.0,-63.0,-11.0,2.0,1.0,-34.0,-4.0
1706291966.336769,7.0,15.0,44.0,12.0,4.0,-1.0,-4.0,4.0
1706291966.336769,-24.0,-62.0,-61.0,-18.0,-12.0,2.0,-10.0,-12.0
1706291966.3468032,-1.0,14.0,46.0,0.0,-16.0,-21.0,-12.0,-31.0
1706291966.3468032,-1.0,-15.0,18.0,6.0,3.0,9.0,16.0,-1.0
1706291966.3571894,0.0,6.0,18.0,-5.0,-6.0,1.0,9.0,5.0
1706291966.3571894,0.0,24.0,-1.0,-7.0,-2.0,0.0,-24.0,-19.0
1706291966.3672075,-5.0,-16.0,22.0,-3.0,-2.0,-10.0,24.0,7.0
1706291966.3672075,3.0,-10.0,-30.0,14.0,10.0,29.0,-8.0,0.0
1706291966.3672075,-1.0,-3.0,-74.0,-6.0,5.0,0.0,-15.0,-6.0
1706291966.3672075,-1.0,4.0,11.0,1.0,-6.0,-14.0,5.0,3.0
1706291966.3967698,1.0,1.0,-26.0,-2.0,-4.0,-10.0,-11.0,2.0
1706291966.3967698,-5.0,4.0,32.0,18.0,4.0,3.0,13.0,-1.0
1706291966.3967698,0.0,11.0,9.0,-18.0,0.0,1.0,3.0,10.0
1706291966.3967698,-1.0,5.0,-23.0,-18.0,-5.0,2.0,0.0,-6.0
1706291966.4067688,-4.0,-8.0,-23.0,4.0,0.0,-5.0,-14.0,3.0
1706291966.4067688,0.0,-15.0,22.0,-9.0,-8.0,0.0,8.0,-2.0
1706291966.4171512,8.0,-1.0,-4.0,12.0,5.0,-2.0,10.0,-1.0
1706291966.4171512,-8.0,-5.0,19.0,12.0,6.0,-21.0,-26.0,-3.0
1706291966.4271114,27.0,27.0,-9.0,5.0,1.0,1.0,3.0,6.0
1706291966.4271114,7.0,-2.0,4.0,-8.0,-2.0,-1.0,-33.0,-3.0
1706291966.4271114,-25.0,-19.0,-11.0,-12.0,-8.0,-3.0,41.0,4.0
1706291966.4271114,-6.0,-21.0,-2.0,-1.0,-6.0,3.0,11.0,-9.0
1706291966.4567723,-52.0,1.0,-10.0,1.0,11.0,-11.0,-34.0,-1.0
1706291966.4567723,13.0,-11.0,-1.0,-3.0,-2.0,18.0,26.0,1.0
1706291966.4567723,29.0,43.0,2.0,-3.0,-3.0,-5.0,-4.0,8.0
1706291966.4567723,4.0,19.0,8.0,7.0,8.0,0.0,6.0,-3.0
1706291966.4668021,24.0,-1.0,-13.0,3.0,-6.0,-1.0,20.0,2.0
1706291966.4668021,3.0,10.0,13.0,-5.0,-6.0,0.0,17.0,4.0
1706291966.4767718,-11.0,4.0,-2.0,-4.0,4.0,5.0,-29.0,-8.0
1706291966.4767718,-3.0,9.0,5.0,4.0,-7.0,5.0,3.0,2.0
1706291966.4871821,1.0,-3.0,-24.0,-18.0,-7.0,-10.0,3.0,-4.0
1706291966.4871821,-2.0,-1.0,15.0,0.0,7.0,-4.0,10.0,0.0
1706291966.4871821,-1.0,-16.0,-1.0,10.0,9.0,0.0,-7.0,3.0
1706291966.4871821,-1.0,1.0,-6.0,1.0,5.0,2.0,-17.0,-4.0
1706291966.506769,-1.0,-16.0,-68.0,-21.0,-6.0,7.0,41.0,-4.0
1706291966.506769,-6.0,5.0,35.0,-5.0,-9.0,-9.0,-26.0,-4.0
1706291966.516776,-4.0,4.0,13.0,7.0,-8.0,-2.0,-25.0,-2.0
1706291966.516776,0.0,-8.0,11.0,-10.0,2.0,-6.0,-9.0,4.0
1706291966.5272176,5.0,25.0,41.0,5.0,9.0,7.0,22.0,-3.0
1706291966.5272176,-12.0,-46.0,9.0,-1.0,-4.0,7.0,30.0,-26.0
1706291966.5372007,-1.0,-2.0,-30.0,-10.0,-1.0,-20.0,-23.0,-4.0
1706291966.5372007,3.0,18.0,82.0,35.0,1.0,1.0,15.0,-4.0
1706291966.547198,-11.0,-27.0,-17.0,-27.0,-12.0,-1.0,-20.0,-1.0
1706291966.547198,0.0,12.0,3.0,-6.0,5.0,0.0,11.0,5.0
1706291966.547198,0.0,-9.0,15.0,2.0,2.0,6.0,1.0,-1.0
1706291966.547198,0.0,-1.0,-37.0,-10.0,-5.0,-3.0,-6.0,1.0
1706291966.5667703,0.0,13.0,21.0,15.0,-2.0,-3.0,-8.0,2.0
1706291966.5667703,-2.0,-21.0,-21.0,4.0,-6.0,-5.0,3.0,3.0
1706291966.5767744,-1.0,-20.0,-16.0,-8.0,-2.0,6.0,14.0,-2.0
1706291966.5767744,-1.0,1.0,-8.0,6.0,1.0,3.0,-9.0,-2.0
1706291966.5871007,-1.0,4.0,12.0,4.0,0.0,3.0,-5.0,-1.0
1706291966.5871007,27.0,10.0,-18.0,-9.0,-3.0,-3.0,-6.0,5.0
1706291966.5970874,-12.0,0.0,-4.0,6.0,2.0,0.0,2.0,-2.0
1706291966.5970874,8.0,-23.0,0.0,11.0,-1.0,2.0,18.0,4.0
1706291966.6070626,9.0,4.0,5.0,-11.0,-4.0,-4.0,-10.0,8.0
1706291966.6070626,-22.0,2.0,-14.0,-11.0,-7.0,-16.0,-18.0,-16.0
1706291966.6070626,-2.0,20.0,8.0,3.0,3.0,2.0,1.0,9.0
1706291966.6070626,-5.0,4.0,-7.0,-2.0,1.0,-1.0,-23.0,-6.0
1706291966.6367729,10.0,3.0,-11.0,1.0,-5.0,1.0,0.0,-12.0
1706291966.6367729,1.0,-9.0,2.0,7.0,5.0,-4.0,-19.0,11.0
1706291966.6367729,5.0,18.0,8.0,-6.0,-8.0,6.0,32.0,7.0
1706291966.6367729,-11.0,-2.0,-12.0,-5.0,2.0,4.0,-72.0,-9.0
1706291966.6468132,-1.0,-3.0,-1.0,-1.0,-7.0,-21.0,-7.0,-13.0
1706291966.6468132,-8.0,16.0,3.0,7.0,8.0,16.0,-25.0,-37.0
1706291966.6570437,-5.0,-36.0,-2.0,-1.0,-2.0,-3.0,42.0,6.0
1706291966.6570437,1.0,3.0,-3.0,-7.0,-1.0,2.0,-10.0,-5.0
1706291966.667076,-2.0,6.0,14.0,8.0,6.0,14.0,2.0,10.0
1706291966.667076,-1.0,7.0,12.0,0.0,0.0,-12.0,-9.0,-4.0
1706291966.667076,-14.0,-9.0,-17.0,5.0,-1.0,-6.0,-16.0,-7.0
1706291966.667076,-2.0,2.0,35.0,-1.0,-9.0,-7.0,23.0,-2.0
1706291966.696772,-7.0,-2.0,-16.0,-18.0,2.0,3.0,1.0,6.0
1706291966.696772,5.0,15.0,41.0,4.0,-1.0,3.0,16.0,19.0
