1706292638.368821,-9.0,-46.0,-4.0,-5.0,-21.0,2.0,13.0,8.0
1706292638.368821,5.0,43.0,16.0,5.0,-10.0,4.0,4.0,-8.0
1706292638.368821,5.0,30.0,-43.0,-7.0,-16.0,1.0,15.0,-5.0
1706292638.368821,1.0,31.0,59.0,-5.0,-15.0,-12.0,-23.0,-9.0
1706292638.368821,12.0,21.0,14.0,22.0,13.0,32.0,47.0,27.0
1706292638.368821,-26.0,-75.0,-67.0,-26.0,-31.0,-24.0,-54.0,-32.0
1706292638.3787751,6.0,6.0,69.0,12.0,17.0,-8.0,-1.0,5.0
1706292638.3787751,4.0,36.0,-25.0,8.0,10.0,4.0,-44.0,-4.0
1706292638.3987958,-2.0,-17.0,-10.0,-21.0,-12.0,-1.0,4.0,4.0
1706292638.3987958,13.0,33.0,-1.0,6.0,-2.0,3.0,19.0,20.0
1706292638.3987958,-1.0,2.0,-45.0,-17.0,-3.0,-2.0,3.0,-20.0
1706292638.3987958,-19.0,-12.0,-74.0,-28.0,-12.0,-14.0,-10.0,-18.0
1706292638.418889,-1.0,26.0,86.0,14.0,4.0,-9.0,-5.0,8.0
1706292638.418889,-8.0,8.0,-12.0,-5.0,14.0,21.0,62.0,-35.0
1706292638.418889,1.0,-44.0,18.0,-3.0,-4.0,-8.0,-17.0,9.0
1706292638.418889,1.0,16.0,4.0,18.0,28.0,5.0,13.0,13.0
1706292638.4388382,-7.0,-18.0,-58.0,-25.0,-4.0,-27.0,0.0,-9.0
1706292638.4388382,-7.0,21.0,21.0,4.0,8.0,-18.0,-23.0,-3.0
1706292638.448779,-1.0,2.0,-9.0,-12.0,7.0,-8.0,-31.0,-21.0
1706292638.448779,-8.0,-23.0,15.0,4.0,13.0,7.0,28.0,4.0
1706292638.468773,23.0,17.0,7.0,20.0,27.0,2.0,5.0,14.0
1706292638.468773,-20.0,-30.0,55.0,-5.0,4.0,-7.0,0.0,33.0
1706292638.468773,10.0,11.0,-36.0,-8.0,12.0,1.0,53.0,-9.0
1706292638.468773,7.0,0.0,-3.0,-13.0,1.0,-10.0,-13.0,14.0
1706292638.4787812,-5.0,-2.0,28.0,7.0,8.0,-8.0,-8.0,-26.0
1706292638.4787812,6.0,22.0,-35.0,-19.0,4.0,-21.0,-31.0,0.0
1706292638.4787812,-19.0,-53.0,-16.0,4.0,4.0,10.0,-19.0,-3.0
1706292638.4787812,24.0,30.0,-2.0,8.0,5.0,-35.0,-83.0,-26.0
1706292638.4990418,-14.0,-4.0,-5.0,-16.0,0.0,-15.0,-25.0,22.0
1706292638.4990418,3.0,15.0,31.0,22.0,34.0,11.0,45.0,-36.0
1706292638.509055,6.0,9.0,98.0,28.0,13.0,-6.0,-47.0,-20.0
1706292638.509055,-27.0,1.0,-41.0,-4.0,13.0,2.0,51.0,4.0
1706292638.5190547,30.0,12.0,-87.0,-28.0,11.0,-12.0,39.0,11.0
1706292638.5190547,4.0,-74.0,-63.0,-2.0,5.0,-10.0,-62.0,11.0
1706292638.5190547,-13.0,74.0,77.0,-5.0,-5.0,-13.0,57.0,-18.0
1706292638.529061,-5.0,-70.0,-12.0,15.0,22.0,4.0,43.0,34.0
1706292638.5391786,-35.0,-80.0,-84.0,-45.0,-21.0,-15.0,-88.0,-69.0
1706292638.5391786,41.0,84.0,98.0,61.0,35.0,20.0,-23.0,34.0
1706292638.5391786,11.0,33.0,-80.0,-15.0,-6.0,-9.0,30.0,2.0
1706292638.5391786,-12.0,-89.0,107.0,-10.0,-17.0,-15.0,-28.0,3.0
1706292638.5590577,-2.0,73.0,17.0,-6.0,54.0,0.0,-16.0,-13.0
1706292638.5590577,0.0,-2.0,-37.0,-39.0,-4.0,-7.0,35.0,15.0
1706292638.56906,2.0,7.0,5.0,33.0,-6.0,5.0,1.0,30.0
1706292638.56906,19.0,33.0,37.0,20.0,24.0,-14.0,-41.0,-44.0
1706292638.589055,-18.0,-51.0,74.0,21.0,-6.0,-7.0,-9.0,-4.0
1706292638.589055,-7.0,-7.0,-66.0,-62.0,-7.0,-10.0,17.0,-8.0
1706292638.589055,5.0,6.0,53.0,-19.0,11.0,0.0,75.0,36.0
1706292638.589055,-7.0,18.0,42.0,18.0,-5.0,4.0,87.0,26.0
1706292638.5992649,7.0,3.0,-16.0,-24.0,-32.0,1.0,-15.0,3.0
1706292638.5992649,-3.0,-9.0,-2.0,5.0,19.0,-3.0,-2.0,-11.0
1706292638.5992649,-12.0,-67.0,-43.0,1.0,13.0,3.0,-7.0,-3.0
1706292638.5992649,14.0,35.0,-13.0,1.0,-6.0,0.0,13.0,11.0
1706292638.6193328,-6.0,-30.0,-24.0,33.0,18.0,27.0,100.0,19.0
1706292638.6193328,0.0,24.0,61.0,2.0,-37.0,-24.0,-65.0,3.0
1706292638.6324642,-15.0,7.0,34.0,-15.0,-34.0,3.0,74.0,9.0
1706292638.6334639,8.0,0.0,-11.0,-60.0,-1.0,4.0,2.0,9.0
1706292638.641464,-1.0,24.0,7.0,22.0,38.0,18.0,-52.0,-22.0
1706292638.641464,-12.0,-22.0,-9.0,20.0,-3.0,-12.0,-37.0,-27.0
1706292638.6480758,-24.0,-26.0,-5.0,-26.0,-25.0,-23.0,-51.0,-7.0
1706292638.6480758,1.0,36.0,8.0,1.0,-26.0,-1.0,-49.0,-1.0
1706292638.6618338,42.0,-15.0,4.0,6.0,-49.0,1.0,5.0,-6.0
1706292638.6618338,-47.0,-27.0,3.0,-12.0,5.0,10.0,16.0,3.0
1706292638.6618338,-1.0,-16.0,-15.0,0.0,20.0,7.0,-36.0,-13.0
1706292638.6618338,-1.0,54.0,-4.0,-8.0,4.0,16.0,27.0,-1.0
1706292638.6821728,1.0,15.0,-30.0,-9.0,-35.0,-7.0,12.0,29.0
1706292638.6821728,9.0,28.0,55.0,47.0,1.0,6.0,25.0,-2.0
1706292638.6918364,17.0,10.0,-23.0,-5.0,22.0,9.0,-21.0,0.0
1706292638.6918364,-9.0,24.0,-3.0,-9.0,3.0,17.0,13.0,-5.0
1706292638.6918364,-6.0,12.0,31.0,-10.0,-17.0,-43.0,-72.0,-23.0
1706292638.6918364,17.0,19.0,-16.0,-18.0,1.0,8.0,16.0,5.0
1706292638.7018342,9.0,61.0,30.0,0.0,-18.0,-3.0,-28.0,3.0
1706292638.7018342,-25.0,-90.0,-73.0,-24.0,-10.0,-6.0,7.0,-13.0
1706292638.7318363,-18.0,-58.0,-48.0,-15.0,-1.0,9.0,34.0,6.0
1706292638.7318363,-2.0,-22.0,-8.0,8.0,10.0,21.0,102.0,8.0
1706292638.7318363,14.0,-42.0,-26.0,10.0,0.0,-7.0,-42.0,-2.0
1706292638.7318363,9.0,58.0,-6.0,1.0,0.0,-9.0,-7.0,27.0
1706292638.7418637,5.0,29.0,31.0,8.0,11.0,6.0,4.0,0.0
1706292638.7418637,-7.0,-28.0,-40.0,-2.0,-6.0,-10.0,-10.0,1.0
1706292638.7418637,7.0,77.0,55.0,13.0,-7.0,1.0,29.0,-5.0
1706292638.7418637,-34.0,-85.0,-36.0,-3.0,-3.0,-9.0,-10.0,-22.0
1706292638.7522411,-3.0,-8.0,2.0,-8.0,22.0,1.0,1.0,17.0
1706292638.7522411,27.0,64.0,43.0,-3.0,4.0,-3.0,21.0,14.0
1706292638.762511,12.0,-20.0,15.0,13.0,-7.0,-4.0,-18.0,-7.0
1706292638.762511,13.0,38.0,10.0,18.0,3.0,-5.0,-29.0,8.0
1706292638.792253,-3.0,-37.0,-2.0,-17.0,13.0,21.0,45.0,10.0
1706292638.792253,-65.0,49.0,19.0,6.0,21.0,14.0,16.0,-35.0
1706292638.792253,40.0,-128.0,-82.0,-15.0,12.0,-15.0,-59.0,-10.0
1706292638.792253,-18.0,121.0,101.0,30.0,5.0,-8.0,-36.0,-15.0
1706292638.8026268,-60.0,-128.0,-107.0,-49.0,-23.0,-5.0,100.0,42.0
1706292638.8026268,10.0,70.0,13.0,-1.0,-8.0,0.0,-3.0,23.0
1706292638.8026268,49.0,92.0,58.0,25.0,32.0,37.0,-3.0,2.0
1706292638.8026268,-3.0,-87.0,-21.0,-24.0,-7.0,-17.0,-42.0,-11.0
1706292638.8126116,36.0,116.0,47.0,41.0,9.0,15.0,-54.0,-38.0
1706292638.8126116,-38.0,-95.0,-111.0,-52.0,-31.0,-31.0,-20.0,-19.0
1706292638.8224998,-17.0,19.0,-15.0,-15.0,-3.0,-25.0,-3.0,25.0
1706292638.8224998,56.0,58.0,33.0,39.0,10.0,23.0,19.0,-4.0
1706292638.842514,-42.0,30.0,32.0,-31.0,-20.0,-21.0,-38.0,-25.0
1706292638.842514,33.0,9.0,38.0,14.0,7.0,12.0,5.0,16.0
1706292638.842514,-3.0,24.0,29.0,10.0,-4.0,-5.0,3.0,-4.0
1706292638.842514,-21.0,-59.0,49.0,0.0,-14.0,-15.0,0.0,-14.0
1706292638.8622537,8.0,2.0,-23.0,26.0,29.0,8.0,-2.0,12.0
1706292638.8622537,17.0,6.0,0.0,8.0,-10.0,-4.0,-20.0,-8.0
1706292638.8622537,-46.0,-44.0,-35.0,-38.0,3.0,-1.0,25.0,-13.0
1706292638.8622537,14.0,-11.0,8.0,15.0,4.0,-5.0,1.0,10.0
1706292638.8726206,0.0,7.0,31.0,17.0,4.0,0.0,-7.0,-1.0
1706292638.8726206,26.0,-34.0,-11.0,13.0,9.0,-1.0,-9.0,2.0
1706292638.8825235,32.0,23.0,4.0,1.0,-2.0,16.0,34.0,26.0
1706292638.8825235,-56.0,-6.0,-62.0,-34.0,-17.0,-13.0,-30.0,-38.0
1706292638.912253,-13.0,8.0,12.0,-12.0,10.0,-23.0,-31.0,-17.0
1706292638.912253,3.0,11.0,21.0,21.0,41.0,37.0,29.0,15.0
1706292638.912253,-43.0,-33.0,-19.0,19.0,-12.0,-33.0,-25.0,-7.0
1706292638.912253,28.0,27.0,-5.0,-7.0,9.0,17.0,7.0,10.0
1706292638.922639,14.0,-1.0,10.0,-13.0,-14.0,-61.0,-26.0,-9.0
1706292638.922639,-17.0,-9.0,7.0,-1.0,-8.0,6.0,12.0,-10.0
1706292638.922639,10.0,4.0,35.0,-5.0,20.0,113.0,101.0,44.0
1706292638.922639,3.0,-23.0,-41.0,-14.0,-5.0,-26.0,13.0,-7.0
1706292638.9326155,8.0,28.0,-45.0,-16.0,-13.0,11.0,1.0,4.0
1706292638.9326155,23.0,22.0,81.0,-1.0,24.0,-17.0,7.0,19.0
1706292638.9526906,-37.0,-71.0,-106.0,-43.0,-24.0,-44.0,-23.0,-35.0
1706292638.9526906,7.0,13.0,34.0,21.0,74.0,33.0,1.0,3.0
1706292638.9722526,13.0,52.0,101.0,7.0,-35.0,-7.0,10.0,14.0
1706292638.9722526,-12.0,-44.0,-84.0,1.0,-4.0,-15.0,-32.0,-18.0
1706292638.9722526,-1.0,42.0,101.0,11.0,2.0,-12.0,-11.0,-11.0
1706292638.9722526,-12.0,-10.0,-54.0,-63.0,-26.0,-2.0,20.0,10.0
1706292638.982521,-2.0,8.0,-54.0,5.0,-1.0,-5.0,-9.0,-10.0
1706292638.982521,9.0,56.0,18.0,-21.0,-4.0,19.0,22.0,11.0
1706292638.982521,-26.0,37.0,8.0,50.0,-12.0,-27.0,-41.0,-21.0
1706292638.982521,-2.0,52.0,15.0,5.0,-22.0,-14.0,-13.0,-7.0
1706292638.992512,9.0,36.0,36.0,19.0,31.0,34.0,24.0,4.0
1706292639.002267,5.0,13.0,2.0,-41.0,-68.0,-14.0,-16.0,0.0
1706292639.002267,-18.0,-28.0,-51.0,-19.0,42.0,6.0,14.0,3.0
1706292639.002267,33.0,-8.0,31.0,21.0,1.0,-4.0,14.0,13.0
1706292639.0422564,-28.0,-36.0,-46.0,-18.0,-28.0,-6.0,-9.0,-12.0
1706292639.0422564,-2.0,-39.0,-15.0,-27.0,23.0,-5.0,-22.0,-8.0
1706292639.0422564,8.0,-13.0,33.0,6.0,5.0,-16.0,4.0,-7.0
1706292639.0422564,-7.0,-40.0,-45.0,-6.0,0.0,0.0,9.0,24.0
1706292639.0422564,10.0,-17.0,48.0,22.0,18.0,16.0,0.0,-28.0
1706292639.0422564,7.0,-28.0,-18.0,-5.0,-13.0,-9.0,21.0,46.0
1706292639.0422564,-9.0,-35.0,-14.0,-20.0,-4.0,-5.0,-14.0,-16.0
1706292639.0422564,11.0,8.0,-27.0,9.0,17.0,4.0,-25.0,2.0
1706292639.0522795,-4.0,7.0,50.0,35.0,-7.0,2.0,22.0,4.0
1706292639.0522795,-11.0,-23.0,-31.0,4.0,-5.0,-4.0,-7.0,-7.0
1706292639.0726364,-11.0,-8.0,-11.0,-3.0,-2.0,5.0,5.0,-11.0
1706292639.0726364,17.0,17.0,27.0,0.0,-11.0,1.0,-9.0,11.0
1706292639.082629,8.0,-45.0,12.0,1.0,-15.0,-5.0,-7.0,22.0
1706292639.082629,-16.0,-11.0,-15.0,-10.0,-15.0,-4.0,-17.0,-34.0
1706292639.082629,-15.0,-15.0,-10.0,4.0,0.0,-3.0,-4.0,0.0
1706292639.082629,-3.0,-24.0,-19.0,8.0,-10.0,-2.0,21.0,-6.0
1706292639.1022532,12.0,41.0,84.0,-6.0,4.0,4.0,0.0,-12.0
1706292639.1022532,24.0,-29.0,-42.0,2.0,1.0,-11.0,-22.0,3.0
1706292639.1022532,-12.0,-18.0,-34.0,-13.0,-19.0,-7.0,-19.0,-9.0
1706292639.1022532,-5.0,-10.0,10.0,4.0,-5.0,8.0,53.0,35.0
1706292639.1122801,30.0,21.0,-10.0,3.0,-3.0,0.0,-40.0,-19.0
1706292639.1122801,9.0,7.0,34.0,6.0,-1.0,-1.0,15.0,-10.0
1706292639.1322634,4.0,20.0,-1.0,9.0,6.0,-16.0,12.0,32.0
1706292639.1322634,-27.0,3.0,12.0,16.0,5.0,32.0,15.0,-29.0
1706292639.1422892,-6.0,-46.0,-33.0,-11.0,3.0,-4.0,44.0,61.0
1706292639.1422892,22.0,82.0,23.0,6.0,4.0,10.0,-55.0,-98.0
1706292639.1422892,-28.0,-19.0,-18.0,-19.0,-5.0,-13.0,-19.0,4.0
1706292639.1422892,11.0,40.0,15.0,2.0,4.0,-3.0,-6.0,14.0
1706292639.1673374,-29.0,-70.0,-103.0,-22.0,-13.0,-12.0,4.0,5.0
1706292639.1673374,-5.0,-57.0,-4.0,1.0,11.0,0.0,-10.0,-11.0
1706292639.1684222,10.0,36.0,24.0,44.0,-29.0,6.0,5.0,-10.0
1706292639.1684222,7.0,25.0,4.0,-12.0,-17.0,-17.0,-29.0,-9.0
1706292639.1781762,4.0,9.0,9.0,52.0,12.0,13.0,10.0,6.0
1706292639.1781762,0.0,-19.0,-4.0,-5.0,-5.0,0.0,25.0,50.0
1706292639.1882277,2.0,-1.0,2.0,-20.0,3.0,4.0,4.0,-24.0
1706292639.1882277,-5.0,-18.0,2.0,5.0,-5.0,-14.0,-17.0,-18.0
1706292639.1981773,14.0,22.0,7.0,-1.0,-1.0,0.0,16.0,17.0
1706292639.1981773,-22.0,5.0,18.0,10.0,-11.0,6.0,-32.0,-31.0
1706292639.1981773,12.0,-15.0,-16.0,-10.0,1.0,-4.0,4.0,10.0
1706292639.1981773,2.0,17.0,44.0,8.0,1.0,0.0,4.0,10.0
1706292639.218527,-9.0,-15.0,-57.0,-30.0,5.0,-6.0,-13.0,-55.0
1706292639.218527,1.0,11.0,20.0,17.0,-4.0,-6.0,16.0,25.0
1706292639.22818,0.0,-2.0,-9.0,-39.0,3.0,6.0,-14.0,-16.0
1706292639.22818,-3.0,-17.0,-8.0,-1.0,8.0,-5.0,-12.0,-7.0
1706292639.2381773,-3.0,17.0,20.0,10.0,-1.0,2.0,-13.0,-12.0
1706292639.2381773,-3.0,8.0,10.0,3.0,1.0,1.0,26.0,23.0
1706292639.2482262,31.0,49.0,28.0,31.0,5.0,1.0,2.0,11.0
1706292639.2482262,-20.0,-52.0,-42.0,-7.0,-16.0,-9.0,-7.0,-11.0
1706292639.2584214,-12.0,11.0,37.0,-6.0,26.0,9.0,4.0,4.0
1706292639.2584214,4.0,9.0,11.0,15.0,2.0,0.0,1.0,11.0
1706292639.2584214,2.0,26.0,13.0,0.0,-4.0,-4.0,3.0,7.0
1706292639.2584214,0.0,-19.0,-22.0,-4.0,0.0,-2.0,-3.0,-7.0
1706292639.2881837,6.0,-3.0,-23.0,0.0,1.0,0.0,-10.0,-2.0
1706292639.2881837,-1.0,26.0,50.0,9.0,1.0,-7.0,-1.0,-7.0
1706292639.2881837,-4.0,-11.0,7.0,13.0,0.0,1.0,-7.0,5.0
1706292639.2881837,-9.0,9.0,-6.0,9.0,10.0,5.0,23.0,-9.0
1706292639.2984304,-4.0,3.0,14.0,-11.0,1.0,-4.0,-17.0,15.0
1706292639.2984304,6.0,-10.0,-6.0,-11.0,1.0,-9.0,38.0,34.0
1706292639.328177,8.0,-16.0,-12.0,-2.0,2.0,18.0,-46.0,7.0
1706292639.328177,2.0,0.0,-2.0,-10.0,-5.0,-15.0,-3.0,-47.0
1706292639.328177,-12.0,6.0,-1.0,-1.0,7.0,19.0,-6.0,22.0
1706292639.328177,2.0,13.0,25.0,12.0,1.0,-7.0,7.0,2.0
1706292639.328177,-2.0,-60.0,-71.0,-13.0,7.0,-1.0,3.0,19.0
1706292639.328177,5.0,0.0,-7.0,-15.0,1.0,21.0,11.0,8.0
1706292639.3481834,0.0,18.0,29.0,10.0,13.0,14.0,8.0,-12.0
1706292639.3481834,-9.0,-13.0,-36.0,-16.0,3.0,-5.0,-13.0,2.0
1706292639.3481834,-3.0,4.0,3.0,-16.0,4.0,-8.0,12.0,1.0
1706292639.3481834,26.0,14.0,23.0,4.0,16.0,-5.0,-8.0,9.0
1706292639.3681798,-38.0,-2.0,-3.0,-5.0,-19.0,-15.0,5.0,-6.0
1706292639.3681798,-5.0,-4.0,-25.0,7.0,-3.0,4.0,-7.0,-3.0
1706292639.3681798,20.0,1.0,14.0,-12.0,16.0,-4.0,4.0,-12.0
1706292639.3681798,0.0,-8.0,-9.0,-3.0,-13.0,-12.0,-19.0,-6.0
1706292639.3783464,5.0,6.0,11.0,-9.0,-2.0,3.0,11.0,-1.0
1706292639.3783464,-5.0,3.0,4.0,-1.0,4.0,0.0,-2.0,-3.0
1706292639.3783464,-9.0,-6.0,-10.0,8.0,-6.0,-1.0,7.0,-8.0
1706292639.3783464,4.0,6.0,3.0,7.0,1.0,-2.0,25.0,15.0
1706292639.408179,19.0,17.0,-14.0,-3.0,-3.0,-10.0,-29.0,-3.0
1706292639.408179,-10.0,-49.0,-9.0,-2.0,5.0,-1.0,9.0,1.0
1706292639.408179,-6.0,28.0,28.0,3.0,-8.0,-11.0,39.0,29.0
1706292639.408179,-8.0,-30.0,-26.0,-13.0,5.0,18.0,4.0,-36.0
1706292639.4184575,15.0,18.0,9.0,8.0,2.0,-11.0,-11.0,-15.0
1706292639.4184575,-9.0,-25.0,-11.0,-14.0,-4.0,4.0,-5.0,19.0
1706292639.4281793,27.0,41.0,41.0,19.0,12.0,-5.0,-1.0,-23.0
1706292639.4281793,-51.0,-63.0,-72.0,-31.0,-18.0,-16.0,-11.0,6.0
1706292639.4382665,16.0,-13.0,-15.0,-8.0,-2.0,4.0,29.0,30.0
1706292639.4382665,15.0,18.0,20.0,19.0,5.0,1.0,-17.0,-10.0
1706292639.4382665,-13.0,0.0,-49.0,2.0,5.0,-11.0,-2.0,17.0
1706292639.4382665,8.0,25.0,45.0,11.0,-3.0,24.0,3.0,17.0
1706292639.4781806,2.0,-9.0,-15.0,-7.0,-13.0,-16.0,-13.0,-24.0
1706292639.4781806,0.0,-7.0,-45.0,-81.0,32.0,-10.0,9.0,10.0
1706292639.4781806,-23.0,-13.0,4.0,5.0,-9.0,27.0,3.0,-14.0
1706292639.4781806,0.0,13.0,13.0,16.0,12.0,-11.0,-31.0,-5.0
1706292639.4881928,-3.0,-12.0,-24.0,-14.0,29.0,13.0,6.0,-1.0
1706292639.4881928,-4.0,25.0,27.0,32.0,-12.0,-12.0,-4.0,2.0
1706292639.4881928,-7.0,-16.0,-8.0,-5.0,-7.0,-7.0,3.0,-14.0
1706292639.4881928,10.0,19.0,31.0,-23.0,-6.0,-16.0,-24.0,-6.0
1706292639.4985423,-12.0,-17.0,-29.0,16.0,-10.0,-14.0,-12.0,4.0
1706292639.4985423,-5.0,7.0,31.0,6.0,-3.0,27.0,8.0,-10.0
1706292639.5085042,6.0,-6.0,-3.0,7.0,-21.0,-13.0,-11.0,-12.0
1706292639.5085042,-4.0,0.0,19.0,8.0,17.0,12.0,25.0,12.0
1706292639.5185246,4.0,10.0,6.0,-1.0,-6.0,-11.0,-2.0,-2.0
1706292639.5185246,0.0,5.0,-46.0,2.0,3.0,2.0,-2.0,-8.0
1706292639.5281804,0.0,-17.0,-13.0,-7.0,-10.0,-7.0,-8.0,-5.0
1706292639.5281804,8.0,5.0,-3.0,8.0,-2.0,-2.0,-4.0,14.0
1706292639.5581765,-4.0,-6.0,-1.0,-15.0,-5.0,26.0,17.0,-7.0
1706292639.5581765,-7.0,1.0,30.0,11.0,3.0,-2.0,-9.0,-10.0
1706292639.5581765,3.0,10.0,-12.0,-6.0,3.0,2.0,1.0,4.0
1706292639.5581765,1.0,-8.0,-1.0,5.0,3.0,-7.0,3.0,-4.0
1706292639.5581765,-1.0,2.0,33.0,9.0,1.0,-3.0,6.0,-5.0
1706292639.5581765,-4.0,-5.0,-58.0,-38.0,-24.0,-9.0,-8.0,-5.0
1706292639.5581765,-1.0,5.0,39.0,23.0,1.0,-3.0,-7.0,-1.0
1706292639.5581765,-7.0,5.0,-13.0,7.0,-11.0,-8.0,-5.0,-5.0
1706292639.5982196,14.0,7.0,-2.0,-38.0,19.0,11.0,1.0,3.0
1706292639.5982196,-9.0,0.0,23.0,26.0,4.0,-3.0,8.0,0.0
1706292639.5982196,-3.0,-7.0,-11.0,-13.0,-13.0,-3.0,-4.0,-3.0
1706292639.5982196,23.0,0.0,-22.0,-6.0,13.0,5.0,-6.0,-1.0
1706292639.608573,-12.0,17.0,22.0,15.0,-7.0,-6.0,-8.0,-11.0
1706292639.608573,7.0,2.0,-14.0,0.0,0.0,0.0,-4.0,1.0
1706292639.608573,17.0,-11.0,-13.0,-3.0,3.0,11.0,11.0,1.0
1706292639.608573,-58.0,-27.0,15.0,25.0,-20.0,-20.0,-15.0,-8.0
1706292639.6184819,14.0,8.0,-3.0,-7.0,-4.0,-9.0,-10.0,-2.0
1706292639.6184819,-8.0,7.0,11.0,6.0,-1.0,-5.0,-5.0,-17.0
1706292639.6285293,-4.0,-10.0,7.0,-11.0,18.0,7.0,4.0,7.0
1706292639.6285293,15.0,19.0,-2.0,1.0,-4.0,7.0,11.0,8.0
1706292639.6382463,-6.0,-14.0,-5.0,6.0,4.0,6.0,11.0,0.0
1706292639.6382463,3.0,-2.0,18.0,6.0,-7.0,1.0,3.0,0.0
1706292639.6482327,-6.0,-3.0,-10.0,-10.0,-9.0,-34.0,-32.0,-12.0
1706292639.6482327,5.0,-3.0,19.0,10.0,9.0,2.0,2.0,2.0
1706292639.668677,0.0,6.0,-12.0,-13.0,1.0,-1.0,4.0,2.0
1706292639.668677,9.0,5.0,-9.0,3.0,-1.0,7.0,8.0,5.0
1706292639.668677,-2.0,-6.0,-5.0,-1.0,12.0,7.0,9.0,4.0
1706292639.668677,2.0,-11.0,-19.0,-10.0,-19.0,-22.0,-22.0,-9.0
1706292639.6992211,-7.0,-7.0,8.0,3.0,-5.0,0.0,5.0,2.0
1706292639.6992211,0.0,4.0,21.0,1.0,-16.0,0.0,-2.0,1.0
1706292639.6992211,-2.0,7.0,5.0,2.0,0.0,2.0,-4.0,-5.0
1706292639.6992211,3.0,6.0,5.0,19.0,-1.0,8.0,9.0,-2.0
1706292639.70724,2.0,-4.0,9.0,22.0,-17.0,-3.0,-1.0,-1.0
1706292639.7082727,-9.0,-2.0,-3.0,-3.0,54.0,13.0,5.0,-5.0
1706292639.709276,-5.0,-9.0,-17.0,-6.0,-9.0,-4.0,7.0,1.0
1706292639.709276,16.0,12.0,11.0,-48.0,-6.0,-7.0,-5.0,-2.0
1706292639.7304704,-16.0,-10.0,-15.0,13.0,-14.0,-5.0,-18.0,5.0
1706292639.7304704,6.0,1.0,9.0,-19.0,2.0,-10.0,22.0,7.0
1706292639.7304704,15.0,10.0,21.0,20.0,8.0,-7.0,-28.0,-28.0
1706292639.7304704,-4.0,-9.0,-34.0,-14.0,9.0,24.0,40.0,28.0
1706292639.740631,8.0,-4.0,-31.0,-6.0,-8.0,-20.0,-10.0,-3.0
1706292639.740631,-10.0,-4.0,-12.0,1.0,-13.0,9.0,1.0,0.0
1706292639.7506924,4.0,4.0,5.0,-3.0,1.0,17.0,13.0,8.0
1706292639.7506924,-5.0,13.0,2.0,-10.0,-17.0,-23.0,-19.0,-7.0
1706292639.7804635,7.0,-4.0,24.0,5.0,12.0,23.0,10.0,6.0
1706292639.7804635,-1.0,-9.0,-24.0,12.0,-6.0,-93.0,-69.0,-23.0
1706292639.7804635,0.0,-4.0,14.0,-4.0,10.0,85.0,28.0,26.0
1706292639.7804635,-14.0,14.0,3.0,-11.0,-7.0,-6.0,-5.0,-12.0
1706292639.7904668,-16.0,-33.0,-53.0,-33.0,-6.0,-11.0,8.0,-8.0
1706292639.7904668,-3.0,-3.0,2.0,-1.0,9.0,5.0,6.0,-7.0
1706292639.7904668,-3.0,4.0,0.0,21.0,-13.0,-45.0,-21.0,-3.0
1706292639.7904668,3.0,-7.0,5.0,4.0,10.0,7.0,-4.0,2.0
1706292639.8008337,-3.0,13.0,4.0,-28.0,-7.0,-3.0,11.0,-1.0
1706292639.8008337,2.0,-12.0,-48.0,-19.0,33.0,12.0,-14.0,2.0
1706292639.810856,-10.0,5.0,42.0,4.0,-1.0,-6.0,-1.0,-1.0
1706292639.810856,4.0,-23.0,-64.0,-1.0,-3.0,-6.0,-7.0,1.0
1706292639.8204668,3.0,2.0,11.0,7.0,2.0,6.0,13.0,-4.0
1706292639.8204668,1.0,1.0,19.0,11.0,-38.0,10.0,-14.0,6.0
1706292639.8204668,-9.0,16.0,26.0,-2.0,2.0,-26.0,-7.0,-7.0
1706292639.8204668,15.0,19.0,86.0,29.0,20.0,44.0,28.0,5.0
1706292639.840814,-3.0,-33.0,-69.0,-35.0,-13.0,-10.0,-26.0,-7.0
1706292639.840814,-23.0,-43.0,-7.0,9.0,-13.0,14.0,24.0,-3.0
1706292639.850466,5.0,-3.0,-27.0,-1.0,18.0,21.0,17.0,9.0
1706292639.850466,-7.0,10.0,26.0,-1.0,-8.0,-24.0,-19.0,-14.0
1706292639.8604984,32.0,10.0,16.0,6.0,-23.0,-63.0,-24.0,9.0
1706292639.8604984,-28.0,13.0,16.0,-8.0,-9.0,31.0,6.0,0.0
1706292639.8708706,-12.0,6.0,17.0,14.0,-1.0,-7.0,-8.0,-6.0
1706292639.8708706,-5.0,-27.0,-31.0,-5.0,27.0,7.0,10.0,-2.0
1706292639.8808744,10.0,15.0,49.0,16.0,12.0,44.0,25.0,2.0
1706292639.8808744,19.0,13.0,-4.0,2.0,-18.0,-22.0,-11.0,30.0
1706292639.8808744,-12.0,-31.0,14.0,-22.0,-12.0,-19.0,5.0,-20.0
1706292639.8808744,3.0,28.0,59.0,10.0,-3.0,4.0,6.0,4.0
1706292639.9104662,-22.0,-19.0,54.0,-2.0,4.0,-10.0,-12.0,-13.0
1706292639.9104662,26.0,5.0,99.0,-12.0,-16.0,-10.0,22.0,33.0
1706292639.9104662,-30.0,-15.0,-87.0,-24.0,-10.0,7.0,-13.0,-23.0
1706292639.9104662,19.0,17.0,27.0,13.0,-4.0,-5.0,-11.0,-40.0
1706292639.9204988,-10.0,2.0,-1.0,19.0,13.0,8.0,5.0,8.0
1706292639.9204988,16.0,19.0,23.0,15.0,5.0,-15.0,-17.0,1.0
1706292639.9307942,12.0,3.0,27.0,6.0,-3.0,28.0,36.0,28.0
1706292639.9307942,-15.0,-46.0,-101.0,-24.0,-5.0,-10.0,-21.0,-9.0
1706292639.9408104,-11.0,-1.0,27.0,8.0,-1.0,-9.0,0.0,-8.0
1706292639.9408104,6.0,56.0,27.0,10.0,8.0,27.0,4.0,3.0
1706292639.9408104,8.0,-29.0,-17.0,-6.0,0.0,-21.0,-12.0,21.0
1706292639.9408104,-1.0,0.0,-6.0,-12.0,-12.0,-6.0,3.0,-31.0
1706292639.9704676,3.0,4.0,-14.0,2.0,5.0,4.0,-14.0,0.0
1706292639.9704676,-9.0,-25.0,-17.0,4.0,0.0,-10.0,-5.0,-14.0
1706292639.9704676,1.0,21.0,17.0,-10.0,-8.0,4.0,0.0,-4.0
1706292639.9704676,4.0,-3.0,9.0,4.0,7.0,6.0,0.0,22.0
1706292639.9904652,7.0,6.0,18.0,-6.0,2.0,-9.0,-2.0,9.0
1706292639.9904652,-5.0,-2.0,-22.0,2.0,5.0,7.0,5.0,-18.0
1706292639.9904652,-18.0,14.0,-19.0,1.0,0.0,-2.0,-7.0,-9.0
1706292639.9904652,-7.0,-47.0,-10.0,-24.0,-11.0,-2.0,14.0,24.0
1706292640.00085,1.0,34.0,-12.0,20.0,-11.0,-1.0,-4.0,-14.0
1706292640.00085,6.0,-6.0,-41.0,-17.0,3.0,8.0,7.0,-1.0
1706292640.00085,3.0,-8.0,19.0,1.0,6.0,-8.0,-15.0,-14.0
1706292640.00085,-4.0,9.0,3.0,3.0,-12.0,-31.0,-22.0,7.0
1706292640.0304677,0.0,0.0,38.0,21.0,16.0,52.0,35.0,4.0
1706292640.0304677,0.0,-5.0,-30.0,-7.0,-3.0,-2.0,-8.0,-4.0
1706292640.0304677,13.0,21.0,15.0,2.0,1.0,1.0,3.0,-1.0
1706292640.0304677,4.0,5.0,-12.0,-6.0,-3.0,-16.0,-7.0,0.0
1706292640.0504642,-2.0,-8.0,1.0,-4.0,-1.0,-5.0,-15.0,-4.0
1706292640.0504642,-21.0,18.0,1.0,2.0,1.0,6.0,6.0,-4.0
1706292640.0504642,-66.0,-35.0,-16.0,-15.0,-11.0,-36.0,-71.0,-9.0
1706292640.0504642,6.0,2.0,-14.0,5.0,5.0,34.0,58.0,-24.0
1706292640.0607433,-9.0,-2.0,8.0,-4.0,-2.0,-10.0,-16.0,0.0
1706292640.0607433,5.0,1.0,-15.0,9.0,1.0,1.0,6.0,-22.0
1706292640.0607433,41.0,1.0,18.0,-3.0,-3.0,-11.0,-3.0,18.0
1706292640.0607433,-2.0,-30.0,-11.0,2.0,1.0,6.0,-12.0,28.0
1706292640.0904658,1.0,0.0,9.0,-1.0,0.0,-34.0,6.0,-23.0
1706292640.0904658,-7.0,4.0,34.0,7.0,4.0,47.0,7.0,6.0
1706292640.0904658,5.0,-5.0,-43.0,-7.0,-1.0,6.0,18.0,-2.0
1706292640.0904658,-6.0,9.0,45.0,3.0,-2.0,-2.0,-7.0,-4.0
1706292640.1005147,6.0,3.0,7.0,4.0,0.0,-12.0,-8.0,19.0
1706292640.1005147,9.0,-23.0,-26.0,-15.0,-10.0,-19.0,-9.0,4.0
1706292640.110782,-5.0,2.0,13.0,5.0,0.0,1.0,8.0,-17.0
1706292640.110782,2.0,18.0,-4.0,6.0,1.0,7.0,2.0,-1.0
1706292640.1207802,-13.0,0.0,-32.0,-11.0,-5.0,0.0,-12.0,-8.0
1706292640.1207802,-4.0,-4.0,-7.0,-1.0,-1.0,-11.0,-3.0,-8.0
1706292640.1207802,0.0,-40.0,-39.0,-17.0,-3.0,8.0,9.0,7.0
1706292640.1207802,-5.0,9.0,12.0,15.0,-3.0,-16.0,-14.0,-1.0
1706292640.1504662,-2.0,-1.0,-29.0,-11.0,-2.0,11.0,0.0,-1.0
1706292640.1504662,13.0,12.0,8.0,-2.0,2.0,-1.0,-2.0,8.0
1706292640.1504662,1.0,-16.0,4.0,0.0,2.0,-5.0,12.0,-3.0
1706292640.1504662,-3.0,-24.0,-24.0,-2.0,1.0,0.0,-4.0,28.0
1706292640.1605008,0.0,33.0,24.0,17.0,5.0,1.0,-4.0,-35.0
1706292640.1605008,-21.0,-14.0,-6.0,-23.0,-16.0,-2.0,-6.0,-19.0
1706292640.170469,21.0,-1.0,-8.0,-3.0,-5.0,2.0,16.0,40.0
1706292640.170469,16.0,15.0,-6.0,-4.0,-6.0,1.0,-8.0,17.0
1706292640.1807415,-17.0,-13.0,3.0,3.0,2.0,7.0,14.0,-28.0
1706292640.1807415,-4.0,-19.0,-37.0,-1.0,2.0,-15.0,-12.0,-13.0
1706292640.1807415,-4.0,23.0,34.0,21.0,-3.0,-12.0,-14.0,4.0
1706292640.1807415,-4.0,-7.0,-20.0,-13.0,4.0,16.0,6.0,18.0
1706292640.2104673,7.0,-1.0,-1.0,1.0,3.0,5.0,7.0,22.0
1706292640.2104673,-1.0,-29.0,2.0,0.0,0.0,-6.0,-3.0,-5.0
1706292640.21117,11.0,57.0,13.0,9.0,4.0,3.0,5.0,-5.0
1706292640.21117,-8.0,7.0,11.0,9.0,-10.0,-14.0,-10.0,-11.0
1706292640.2234628,7.0,10.0,4.0,1.0,-29.0,-16.0,-14.0,5.0
1706292640.2234628,-14.0,-28.0,-25.0,-14.0,28.0,23.0,12.0,1.0
1706292640.231979,6.0,7.0,-6.0,-11.0,15.0,5.0,2.0,2.0
1706292640.231979,-7.0,78.0,23.0,-12.0,-7.0,-8.0,-4.0,-18.0
1706292640.2441149,-14.0,-56.0,-36.0,0.0,-6.0,-1.0,-7.0,1.0
1706292640.2441149,18.0,4.0,33.0,9.0,-16.0,-15.0,2.0,16.0
1706292640.2441149,-23.0,-11.0,-52.0,-8.0,-4.0,-3.0,5.0,-16.0
1706292640.2441149,2.0,-13.0,-12.0,-22.0,-2.0,0.0,-10.0,-1.0
1706292640.2644596,9.0,14.0,4.0,-1.0,-6.0,6.0,5.0,27.0
1706292640.2644596,-3.0,13.0,-18.0,-1.0,-10.0,-10.0,8.0,-11.0
1706292640.2644596,-2.0,-27.0,30.0,12.0,-9.0,2.0,3.0,-8.0
1706292640.2644596,0.0,6.0,38.0,9.0,25.0,9.0,14.0,3.0
1706292640.2744362,3.0,13.0,1.0,1.0,4.0,-7.0,-24.0,3.0
1706292640.284157,-5.0,-28.0,-24.0,-5.0,2.0,2.0,10.0,7.0
1706292640.284157,0.0,6.0,-16.0,-10.0,-3.0,5.0,13.0,-7.0
1706292640.284157,1.0,4.0,2.0,6.0,-6.0,-2.0,-3.0,-5.0
1706292640.3046231,-1.0,0.0,34.0,-6.0,3.0,4.0,4.0,1.0
1706292640.3046231,3.0,14.0,20.0,17.0,0.0,-5.0,-10.0,-1.0
1706292640.3142436,-2.0,0.0,15.0,4.0,-5.0,1.0,1.0,-2.0
1706292640.3142436,-2.0,-7.0,40.0,8.0,3.0,3.0,-2.0,-3.0
1706292640.3242698,-8.0,-24.0,-34.0,-9.0,5.0,2.0,2.0,-3.0
1706292640.3242698,5.0,6.0,-14.0,-9.0,1.0,-3.0,-2.0,0.0
1706292640.3242698,3.0,0.0,-21.0,-4.0,-13.0,-5.0,-7.0,-2.0
1706292640.3242698,-5.0,-16.0,1.0,-50.0,-15.0,-7.0,-5.0,-8.0
1706292640.334628,8.0,8.0,-10.0,44.0,20.0,8.0,7.0,4.0
1706292640.334628,-11.0,-6.0,64.0,4.0,2.0,-5.0,-7.0,-3.0
1706292640.344249,3.0,13.0,-15.0,-18.0,1.0,1.0,-4.0,-1.0
1706292640.344249,3.0,15.0,-36.0,-1.0,0.0,-2.0,-1.0,0.0
1706292640.3642433,-1.0,-10.0,18.0,-7.0,-2.0,-2.0,1.0,-15.0
1706292640.3642433,11.0,17.0,2.0,-9.0,-2.0,-1.0,-1.0,18.0
1706292640.3642433,0.0,6.0,11.0,7.0,-5.0,-5.0,-4.0,-3.0
1706292640.3642433,-22.0,-60.0,-75.0,-17.0,-7.0,-5.0,-8.0,-41.0
1706292640.3845766,-9.0,19.0,37.0,-11.0,-2.0,0.0,-30.0,4.0
1706292640.3845766,-6.0,-11.0,-24.0,5.0,3.0,2.0,52.0,-8.0
1706292640.3845766,8.0,14.0,53.0,16.0,3.0,-3.0,0.0,9.0
1706292640.3845766,5.0,18.0,15.0,21.0,6.0,-1.0,-11.0,19.0
1706292640.404564,2.0,-10.0,-31.0,-9.0,1.0,-3.0,20.0,-25.0
1706292640.404564,3.0,11.0,24.0,-3.0,-4.0,1.0,-26.0,-9.0
1706292640.4142475,1.0,-6.0,-14.0,-7.0,-4.0,-6.0,33.0,35.0
1706292640.4142475,-3.0,-3.0,1.0,11.0,1.0,17.0,7.0,-39.0
1706292640.4342442,4.0,-10.0,-15.0,-6.0,4.0,-2.0,-6.0,4.0
1706292640.4342442,0.0,9.0,4.0,9.0,-7.0,-4.0,-14.0,5.0
1706292640.4342442,0.0,17.0,5.0,0.0,-1.0,-12.0,-5.0,-10.0
1706292640.4342442,12.0,-49.0,-13.0,12.0,0.0,-6.0,-8.0,4.0
1706292640.4442787,-12.0,45.0,-4.0,-21.0,-13.0,-5.0,-3.0,3.0
1706292640.4442787,-26.0,4.0,-5.0,-3.0,-4.0,-6.0,-8.0,-14.0
1706292640.4442787,-22.0,-92.0,-24.0,-5.0,-1.0,1.0,-18.0,0.0
1706292640.4442787,6.0,49.0,23.0,5.0,3.0,4.0,6.0,4.0
1706292640.4642448,27.0,21.0,25.0,11.0,3.0,3.0,10.0,9.0
1706292640.4642448,-6.0,-32.0,-42.0,-15.0,-9.0,-10.0,-18.0,0.0
1706292640.4642448,11.0,8.0,58.0,15.0,12.0,13.0,-2.0,-23.0
1706292640.4642448,-5.0,-34.0,-45.0,-9.0,-10.0,-7.0,1.0,44.0
1706292640.4846473,-5.0,-22.0,-11.0,-3.0,-10.0,-10.0,7.0,27.0
1706292640.4846473,-1.0,6.0,37.0,2.0,5.0,3.0,-6.0,-17.0
1706292640.4846473,6.0,48.0,75.0,11.0,-1.0,0.0,-9.0,-8.0
1706292640.4846473,8.0,1.0,-69.0,4.0,6.0,-1.0,4.0,-1.0
1706292640.5042436,15.0,11.0,16.0,9.0,3.0,3.0,8.0,48.0
1706292640.5042436,-58.0,-96.0,-91.0,-31.0,-7.0,-3.0,-10.0,-46.0
1706292640.5042436,7.0,86.0,9.0,-20.0,-4.0,0.0,-3.0,-17.0
1706292640.5042436,-2.0,-72.0,18.0,-18.0,-14.0,-13.0,-9.0,-60.0
1706292640.5342436,15.0,23.0,11.0,3.0,7.0,8.0,6.0,12.0
1706292640.5342436,10.0,65.0,31.0,21.0,5.0,5.0,15.0,91.0
1706292640.5342436,-14.0,-20.0,-56.0,-4.0,6.0,4.0,-8.0,-60.0
1706292640.5342436,-18.0,13.0,62.0,13.0,-2.0,-13.0,-17.0,-9.0
1706292640.544522,-29.0,-38.0,-12.0,-4.0,-1.0,2.0,-6.0,-16.0
1706292640.544522,26.0,13.0,21.0,5.0,1.0,-10.0,22.0,-30.0
1706292640.5542479,-3.0,-9.0,-39.0,-4.0,-4.0,-8.0,-25.0,52.0
1706292640.5542479,33.0,61.0,37.0,15.0,8.0,8.0,16.0,19.0
1706292640.564312,-13.0,-20.0,-9.0,-5.0,-3.0,1.0,-11.0,-28.0
1706292640.564312,42.0,43.0,25.0,11.0,6.0,9.0,6.0,29.0
1706292640.564312,-65.0,-37.0,-34.0,-20.0,-11.0,-20.0,-4.0,-31.0
1706292640.564312,5.0,-7.0,0.0,2.0,0.0,-2.0,10.0,-1.0
1706292640.6042416,45.0,10.0,1.0,-5.0,0.0,8.0,16.0,44.0
1706292640.6042416,-6.0,20.0,36.0,8.0,-2.0,-4.0,-17.0,-41.0
1706292640.6042416,0.0,-61.0,-22.0,-3.0,-8.0,-7.0,-8.0,-9.0
1706292640.6042416,-44.0,23.0,19.0,7.0,13.0,10.0,-4.0,2.0
1706292640.6042416,-21.0,-22.0,-24.0,-10.0,-8.0,-10.0,0.0,-11.0
1706292640.6042416,-8.0,-31.0,30.0,5.0,0.0,6.0,9.0,17.0
1706292640.6042416,0.0,16.0,-17.0,2.0,2.0,7.0,-2.0,-13.0
1706292640.6042416,-5.0,15.0,18.0,2.0,-2.0,6.0,13.0,5.0
1706292640.6246865,18.0,23.0,-4.0,-3.0,-1.0,-1.0,-6.0,1.0
1706292640.6246865,13.0,5.0,-15.0,-1.0,1.0,-3.0,-12.0,-3.0
1706292640.6246865,0.0,-5.0,6.0,-3.0,-1.0,1.0,3.0,22.0
1706292640.6246865,8.0,-8.0,-3.0,-1.0,-7.0,-3.0,0.0,3.0
1706292640.654241,-16.0,-1.0,-4.0,-8.0,-11.0,-9.0,-9.0,-28.0
1706292640.654241,-13.0,-30.0,-19.0,17.0,15.0,5.0,-4.0,9.0
1706292640.654241,24.0,17.0,0.0,12.0,6.0,1.0,7.0,4.0
1706292640.654241,14.0,29.0,27.0,-4.0,-1.0,5.0,-4.0,10.0
1706292640.6645105,-11.0,-10.0,-7.0,3.0,4.0,3.0,-2.0,-22.0
1706292640.6645105,7.0,18.0,-1.0,-3.0,-2.0,-6.0,6.0,-3.0
1706292640.674248,6.0,-5.0,0.0,-9.0,-7.0,-13.0,-6.0,-2.0
1706292640.674248,1.0,3.0,0.0,-1.0,2.0,-6.0,-1.0,10.0
1706292640.704244,-1.0,-11.0,19.0,3.0,4.0,-1.0,-14.0,7.0
1706292640.704244,1.0,-29.0,-44.0,-9.0,-5.0,35.0,30.0,-20.0
1706292640.714241,-28.0,-22.0,-76.0,-15.0,-2.0,-12.0,-14.0,6.0
1706292640.714241,4.0,15.0,43.0,3.0,-9.0,-16.0,-18.0,-4.0
1706292640.714241,-4.0,-14.0,-17.0,-1.0,1.0,2.0,2.0,-23.0
1706292640.714241,-9.0,20.0,27.0,3.0,4.0,-15.0,-17.0,0.0
1706292640.714241,20.0,8.0,44.0,7.0,-2.0,-21.0,12.0,31.0
1706292640.714241,-19.0,-28.0,-34.0,-2.0,0.0,59.0,1.0,-24.0
1706292640.7245207,43.0,54.0,21.0,5.0,-1.0,-20.0,-13.0,13.0
1706292640.7245207,-37.0,-66.0,-11.0,-13.0,-14.0,-12.0,-10.0,-3.0
1706292640.7342465,9.0,-7.0,5.0,0.0,5.0,15.0,0.0,-15.0
1706292640.7342465,-6.0,-12.0,-17.0,2.0,1.0,-17.0,1.0,14.0
1706292640.7640536,7.0,15.0,13.0,8.0,10.0,11.0,14.0,-7.0
1706292640.7640536,9.0,18.0,16.0,1.0,-5.0,-7.0,-11.0,-4.0
1706292640.7744715,-2.0,-6.0,-3.0,-5.0,1.0,3.0,2.0,1.0
1706292640.7744715,12.0,4.0,-14.0,-3.0,2.0,-10.0,2.0,6.0
1706292640.7744715,-24.0,15.0,-21.0,-6.0,-8.0,5.0,0.0,3.0
1706292640.7744715,6.0,21.0,1.0,-7.0,-6.0,-12.0,-6.0,-1.0
1706292640.7744715,-1.0,-26.0,3.0,1.0,2.0,6.0,3.0,1.0
1706292640.7744715,2.0,-4.0,-19.0,-7.0,-2.0,-8.0,-3.0,-2.0
1706292640.7777364,-9.0,-28.0,-8.0,-9.0,-6.0,-3.0,8.0,-1.0
1706292640.7777364,-5.0,-11.0,-15.0,-17.0,-8.0,-5.0,-12.0,-9.0
1706292640.787906,29.0,59.0,44.0,48.0,19.0,12.0,7.0,4.0
1706292640.787906,-32.0,-38.0,-23.0,-7.0,7.0,1.0,5.0,1.0
1706292640.8079524,-14.0,-12.0,-7.0,-4.0,-2.0,-5.0,-9.0,2.0
1706292640.8079524,17.0,35.0,0.0,1.0,2.0,2.0,1.0,1.0
1706292640.8079524,1.0,-26.0,2.0,-14.0,-12.0,2.0,0.0,-2.0
1706292640.8079524,12.0,37.0,65.0,12.0,-1.0,-15.0,-8.0,-7.0
1706292640.827742,-10.0,-35.0,-89.0,-11.0,7.0,1.0,3.0,12.0
1706292640.827742,14.0,16.0,3.0,1.0,1.0,3.0,3.0,6.0
1706292640.827742,-21.0,35.0,23.0,-7.0,-3.0,4.0,1.0,-6.0
1706292640.827742,-8.0,-47.0,-10.0,2.0,-3.0,-5.0,1.0,8.0
1706292640.8378417,4.0,20.0,34.0,4.0,0.0,5.0,1.0,-32.0
1706292640.8378417,48.0,65.0,61.0,31.0,7.0,4.0,2.0,-9.0
1706292640.848072,-82.0,-94.0,-72.0,-26.0,-14.0,-14.0,-13.0,-47.0
1706292640.848072,7.0,5.0,-9.0,-11.0,-2.0,-4.0,4.0,77.0
1706292640.8777387,4.0,14.0,20.0,2.0,-4.0,-5.0,-15.0,9.0
1706292640.8777387,17.0,1.0,-9.0,0.0,1.0,-3.0,0.0,-25.0
1706292640.8777387,-20.0,-7.0,39.0,5.0,-2.0,6.0,3.0,5.0
1706292640.8777387,0.0,1.0,-40.0,-1.0,-4.0,-4.0,6.0,-37.0
1706292640.887936,-16.0,-27.0,-14.0,2.0,4.0,7.0,4.0,6.0
1706292640.887936,-14.0,-48.0,-15.0,-7.0,-2.0,-2.0,-4.0,19.0
1706292640.887936,29.0,24.0,5.0,-4.0,2.0,4.0,3.0,0.0
1706292640.887936,-8.0,-6.0,-8.0,2.0,-4.0,-2.0,-6.0,-12.0
1706292640.8978481,8.0,7.0,14.0,-25.0,-10.0,-7.0,0.0,-1.0
1706292640.8978481,-13.0,3.0,13.0,21.0,6.0,1.0,-3.0,1.0
1706292640.9177396,25.0,21.0,-6.0,-9.0,-6.0,0.0,4.0,17.0
1706292640.9177396,-16.0,-17.0,-36.0,10.0,11.0,-1.0,-5.0,-29.0
1706292640.9277456,-9.0,-3.0,14.0,12.0,-1.0,-3.0,0.0,-7.0
1706292640.9277456,-5.0,-29.0,8.0,-5.0,-2.0,0.0,2.0,4.0
1706292640.9277456,-9.0,15.0,-6.0,-6.0,-5.0,-7.0,-8.0,6.0
1706292640.9277456,17.0,39.0,15.0,-11.0,-1.0,1.0,2.0,5.0
1706292640.9480648,-3.0,-54.0,-11.0,-2.0,-2.0,0.0,2.0,-10.0
1706292640.9480648,-29.0,34.0,9.0,-12.0,-8.0,-5.0,-7.0,7.0
1706292640.9480648,43.0,15.0,42.0,15.0,6.0,4.0,6.0,15.0
1706292640.9480648,10.0,0.0,-42.0,-10.0,-9.0,-5.0,-6.0,-9.0
1706292640.957994,-25.0,-41.0,8.0,1.0,3.0,1.0,1.0,-11.0
1706292640.957994,-3.0,-35.0,-72.0,-6.0,-6.0,-4.0,-1.0,11.0
1706292640.977739,12.0,-5.0,6.0,1.0,1.0,-4.0,-9.0,-4.0
1706292640.977739,-20.0,-4.0,-1.0,-1.0,0.0,3.0,-2.0,-11.0
1706292640.9877875,2.0,10.0,15.0,-45.0,-12.0,0.0,0.0,6.0
1706292640.9877875,-6.0,-10.0,11.0,-26.0,-10.0,-7.0,-4.0,0.0
1706292640.9877875,6.0,7.0,-6.0,59.0,27.0,10.0,6.0,-2.0
1706292640.9877875,6.0,13.0,10.0,32.0,0.0,2.0,3.0,2.0
1706292641.0080647,-1.0,16.0,-21.0,-3.0,-5.0,-8.0,-6.0,-2.0
1706292641.0080647,2.0,12.0,24.0,-55.0,-21.0,-6.0,-2.0,-3.0
1706292641.0080647,-4.0,4.0,0.0,-8.0,7.0,5.0,2.0,-4.0
1706292641.0080647,-4.0,-60.0,27.0,40.0,8.0,-4.0,-1.0,1.0
1706292641.0180032,8.0,9.0,20.0,3.0,-6.0,2.0,3.0,2.0
1706292641.0180032,-21.0,40.0,-5.0,23.0,9.0,-1.0,-5.0,-8.0
1706292641.0477407,-8.0,-19.0,-4.0,-30.0,-11.0,-4.0,-1.0,2.0
1706292641.0477407,26.0,50.0,44.0,-1.0,3.0,3.0,1.0,5.0
1706292641.0577376,3.0,-20.0,-93.0,-46.0,-15.0,-6.0,-7.0,-5.0
1706292641.0577376,10.0,7.0,25.0,40.0,13.0,1.0,1.0,2.0
1706292641.0577376,1.0,-1.0,5.0,4.0,-2.0,0.0,2.0,3.0
1706292641.0577376,-5.0,10.0,-9.0,-8.0,1.0,3.0,2.0,-6.0
1706292641.0680082,-4.0,6.0,52.0,3.0,-3.0,-7.0,-1.0,-3.0
1706292641.0680082,-5.0,-30.0,-21.0,-32.0,-2.0,-1.0,-2.0,-2.0
1706292641.0680082,9.0,8.0,-14.0,13.0,-10.0,-8.0,-3.0,-1.0
1706292641.0680082,6.0,6.0,-10.0,-4.0,4.0,4.0,3.0,2.0
1706292641.077949,-8.0,-6.0,-1.0,28.0,8.0,-1.0,-4.0,-3.0
1706292641.077949,5.0,-11.0,-18.0,11.0,4.0,3.0,2.0,5.0
1706292641.087891,-6.0,13.0,29.0,-13.0,-6.0,1.0,-3.0,-7.0
1706292641.087891,-9.0,-19.0,6.0,-64.0,-27.0,-11.0,-6.0,-5.0
1706292641.127739,-4.0,9.0,6.0,49.0,27.0,8.0,4.0,1.0
1706292641.127739,-9.0,-27.0,-59.0,24.0,9.0,5.0,1.0,-4.0
1706292641.127739,7.0,27.0,-41.0,6.0,1.0,-1.0,-2.0,0.0
1706292641.127739,-10.0,-60.0,1.0,0.0,-7.0,-9.0,-7.0,-2.0
1706292641.127739,13.0,68.0,115.0,17.0,4.0,2.0,3.0,5.0
1706292641.127739,-13.0,-52.0,-74.0,-40.0,-17.0,-11.0,-4.0,-8.0
1706292641.127739,0.0,-2.0,12.0,-10.0,-1.0,1.0,0.0,-1.0
1706292641.127739,-7.0,3.0,3.0,0.0,-7.0,-5.0,-2.0,0.0
1706292641.1477404,8.0,42.0,15.0,8.0,-7.0,-4.0,-2.0,-1.0
1706292641.1477404,9.0,8.0,5.0,15.0,9.0,6.0,4.0,15.0
1706292641.1477404,-21.0,-39.0,-26.0,-38.0,-14.0,-10.0,-7.0,-20.0
1706292641.1477404,-13.0,-10.0,-51.0,-21.0,-12.0,-7.0,-6.0,-9.0
1706292641.1681619,-14.0,-28.0,-35.0,16.0,-3.0,1.0,0.0,0.0
1706292641.1681619,15.0,42.0,44.0,-3.0,6.0,3.0,4.0,6.0
1706292641.1681619,-1.0,-13.0,39.0,-19.0,-8.0,-6.0,-5.0,-2.0
1706292641.1681619,0.0,22.0,-19.0,-47.0,-25.0,-7.0,-4.0,8.0
1706292641.1881042,-1.0,-29.0,-41.0,20.0,27.0,13.0,5.0,-13.0
1706292641.1881042,-6.0,-14.0,-21.0,33.0,16.0,5.0,0.0,-8.0
1706292641.1881042,0.0,6.0,27.0,-36.0,-11.0,-6.0,-3.0,-2.0
1706292641.1881042,11.0,10.0,-12.0,6.0,14.0,8.0,9.0,7.0
1706292641.207739,-8.0,-12.0,-7.0,-22.0,-13.0,-4.0,-4.0,-2.0
1706292641.207739,3.0,-3.0,-33.0,-8.0,-12.0,-10.0,1.0,8.0
1706292641.207739,-8.0,-4.0,15.0,10.0,-2.0,-5.0,-6.0,-5.0
1706292641.207739,-2.0,11.0,15.0,-5.0,2.0,1.0,0.0,-3.0
1706292641.2281716,22.0,14.0,-2.0,12.0,4.0,-2.0,0.0,14.0
1706292641.2281716,9.0,18.0,34.0,15.0,12.0,14.0,11.0,-6.0
1706292641.2281716,-14.0,-22.0,-36.0,6.0,5.0,6.0,0.0,4.0
1706292641.2281716,-6.0,-24.0,12.0,14.0,5.0,-2.0,0.0,-2.0
1706292641.2481394,-12.0,-24.0,-22.0,-23.0,-5.0,3.0,-1.0,-14.0
1706292641.2481394,22.0,85.0,98.0,2.0,-11.0,-6.0,-2.0,10.0
1706292641.2481394,6.0,-71.0,-71.0,-1.0,6.0,2.0,0.0,8.0
1706292641.2481394,0.0,-28.0,-9.0,18.0,6.0,1.0,5.0,11.0
1706292641.2690732,-5.0,8.0,1.0,-12.0,-7.0,-3.0,-1.0,-1.0
1706292641.2690732,3.0,2.0,53.0,-37.0,-15.0,-5.0,-5.0,-6.0
1706292641.274865,0.0,18.0,-57.0,47.0,36.0,22.0,1.0,-8.0
1706292641.274865,-2.0,21.0,58.0,-7.0,-5.0,-7.0,10.0,23.0
1706292641.2910538,-8.0,-7.0,-40.0,-2.0,-15.0,-18.0,-31.0,-38.0
1706292641.2910538,-2.0,-22.0,-47.0,-20.0,-13.0,-6.0,19.0,53.0
1706292641.2910538,6.0,28.0,28.0,6.0,5.0,6.0,8.0,6.0
1706292641.2910538,2.0,18.0,-13.0,7.0,16.0,23.0,-13.0,-35.0
1706292641.312485,0.0,-4.0,-1.0,-21.0,14.0,16.0,27.0,64.0
1706292641.312485,0.0,35.0,26.0,20.0,-9.0,-5.0,-2.0,-26.0
1706292641.312485,-10.0,-30.0,-28.0,-20.0,-23.0,-28.0,-22.0,-8.0
1706292641.312485,-3.0,7.0,-10.0,-22.0,-16.0,-16.0,-9.0,5.0
1706292641.3228812,9.0,11.0,30.0,39.0,15.0,11.0,1.0,-2.0
1706292641.3228812,-31.0,-97.0,-49.0,0.0,2.0,-13.0,-29.0,-28.0
1706292641.3329399,10.0,7.0,4.0,-1.0,4.0,8.0,16.0,14.0
1706292641.3329399,2.0,7.0,6.0,10.0,-3.0,-6.0,-5.0,-17.0
1706292641.3433225,1.0,18.0,5.0,-6.0,0.0,3.0,17.0,1.0
1706292641.3433225,-8.0,-8.0,-21.0,-12.0,-2.0,-6.0,-13.0,-11.0
1706292641.353275,3.0,33.0,34.0,4.0,-5.0,-8.0,-1.0,-1.0
1706292641.353275,-3.0,12.0,7.0,9.0,7.0,2.0,2.0,1.0
1706292641.3729506,10.0,4.0,-6.0,-14.0,-1.0,-1.0,5.0,-1.0
1706292641.3729506,20.0,-2.0,5.0,10.0,8.0,19.0,33.0,36.0
1706292641.3729506,-17.0,10.0,11.0,-7.0,0.0,7.0,9.0,-12.0
1706292641.3729506,-18.0,18.0,-10.0,6.0,0.0,-9.0,-9.0,-13.0
1706292641.393213,-2.0,-40.0,-29.0,-2.0,-11.0,-15.0,-20.0,-17.0
1706292641.393213,-28.0,-13.0,49.0,-5.0,-5.0,-7.0,-19.0,-29.0
1706292641.393213,1.0,52.0,-16.0,-7.0,-7.0,9.0,25.0,26.0
1706292641.393213,-5.0,25.0,-7.0,-1.0,-5.0,-31.0,-65.0,-57.0
1706292641.4031906,-16.0,49.0,13.0,2.0,-7.0,-12.0,-7.0,-1.0
1706292641.4031906,34.0,2.0,-8.0,9.0,10.0,8.0,4.0,-8.0
1706292641.413155,-2.0,-50.0,0.0,-5.0,-3.0,8.0,15.0,25.0
1706292641.413155,-6.0,18.0,-6.0,11.0,7.0,19.0,31.0,17.0
1706292641.442951,59.0,111.0,60.0,-4.0,-10.0,-10.0,-6.0,10.0
1706292641.442951,-53.0,-70.0,-50.0,-8.0,-5.0,-1.0,-8.0,-22.0
1706292641.442951,6.0,2.0,13.0,1.0,0.0,-1.0,-10.0,-13.0
1706292641.442951,13.0,-45.0,-14.0,0.0,-8.0,-9.0,3.0,13.0
1706292641.4529583,-6.0,-2.0,17.0,-3.0,-1.0,4.0,-3.0,-2.0
1706292641.4529583,2.0,-24.0,-6.0,-2.0,-1.0,1.0,2.0,0.0
1706292641.4529583,30.0,23.0,-3.0,8.0,3.0,19.0,29.0,32.0
1706292641.4529583,24.0,74.0,23.0,5.0,-3.0,-16.0,-45.0,-41.0
1706292641.4632196,-70.0,-113.0,-32.0,-8.0,-1.0,4.0,15.0,-3.0
1706292641.4632196,22.0,26.0,13.0,6.0,3.0,5.0,19.0,48.0
1706292641.4732316,-20.0,0.0,-5.0,-5.0,-9.0,-27.0,-29.0,-50.0
1706292641.4732316,-24.0,5.0,3.0,-3.0,5.0,22.0,14.0,53.0
1706292641.49295,104.0,43.0,45.0,12.0,0.0,-13.0,15.0,18.0
1706292641.49295,-52.0,-59.0,-57.0,-21.0,-12.0,43.0,-20.0,7.0
1706292641.49295,-42.0,51.0,7.0,5.0,3.0,-23.0,-26.0,-20.0
1706292641.49295,21.0,25.0,13.0,3.0,1.0,-3.0,11.0,45.0
1706292641.5132396,-18.0,66.0,-19.0,-13.0,-12.0,-22.0,-28.0,-64.0
1706292641.5132396,63.0,22.0,47.0,23.0,11.0,-3.0,0.0,2.0
1706292641.5132396,-5.0,-31.0,-28.0,-10.0,-10.0,2.0,13.0,18.0
1706292641.5132396,-12.0,-9.0,3.0,-3.0,-1.0,4.0,-3.0,-28.0
1706292641.5229573,-4.0,-36.0,13.0,6.0,-2.0,-4.0,11.0,26.0
1706292641.5329547,15.0,39.0,4.0,7.0,9.0,-1.0,10.0,-12.0
1706292641.552953,0.0,-28.0,15.0,-5.0,-5.0,-5.0,-13.0,-27.0
1706292641.552953,-25.0,6.0,26.0,-28.0,-14.0,-10.0,6.0,-22.0
1706292641.552953,-16.0,-62.0,-39.0,47.0,29.0,15.0,-1.0,-1.0
1706292641.552953,20.0,66.0,7.0,-9.0,-2.0,-7.0,-2.0,8.0
1706292641.552953,-30.0,-8.0,-2.0,6.0,4.0,-2.0,0.0,-15.0
1706292641.552953,16.0,-23.0,-8.0,3.0,-3.0,5.0,19.0,16.0
1706292641.5732324,-13.0,20.0,17.0,-18.0,-8.0,-5.0,-17.0,-16.0
1706292641.5732324,-33.0,-18.0,-34.0,-15.0,-3.0,-10.0,-7.0,-8.0
1706292641.5732324,23.0,4.0,-7.0,3.0,0.0,-6.0,-13.0,10.0
1706292641.5732324,23.0,-1.0,16.0,7.0,8.0,12.0,13.0,-10.0
1706292641.5829606,-22.0,-37.0,-31.0,-17.0,-11.0,1.0,-4.0,5.0
1706292641.5829606,-7.0,12.0,1.0,9.0,-2.0,-15.0,-10.0,-19.0
1706292641.6129496,38.0,26.0,43.0,-9.0,-12.0,4.0,12.0,9.0
1706292641.6129496,7.0,-9.0,-20.0,19.0,8.0,9.0,17.0,35.0
1706292641.6129496,-8.0,-10.0,-18.0,-22.0,-2.0,-2.0,-12.0,-10.0
1706292641.6129496,-8.0,1.0,16.0,-1.0,-12.0,-4.0,13.0,5.0
1706292641.6129496,9.0,21.0,-8.0,1.0,11.0,1.0,-16.0,-6.0
1706292641.6129496,-18.0,-29.0,7.0,36.0,-7.0,-15.0,-14.0,-15.0
1706292641.6332088,2.0,-1.0,-24.0,5.0,14.0,14.0,14.0,16.0
1706292641.6332088,15.0,43.0,51.0,0.0,-4.0,-10.0,-7.0,-9.0
1706292641.6332088,6.0,-10.0,-14.0,8.0,-2.0,5.0,6.0,27.0
1706292641.6332088,0.0,0.0,-22.0,-12.0,11.0,-1.0,0.0,-8.0
1706292641.6531868,5.0,-10.0,-6.0,-10.0,-16.0,3.0,9.0,11.0
1706292641.6531868,-1.0,17.0,-23.0,-27.0,-10.0,-6.0,-3.0,-9.0
1706292641.6629558,-3.0,-3.0,-3.0,-5.0,-11.0,-12.0,-12.0,-3.0
1706292641.6629558,5.0,11.0,24.0,-59.0,-8.0,-6.0,-12.0,-9.0
1706292641.6729546,10.0,37.0,30.0,83.0,18.0,17.0,16.0,20.0
1706292641.6729546,-7.0,-29.0,-25.0,-13.0,8.0,6.0,4.0,4.0
1706292641.6729546,-5.0,-30.0,12.0,8.0,0.0,0.0,4.0,-6.0
1706292641.6729546,3.0,-8.0,-21.0,-16.0,-11.0,-6.0,-9.0,-10.0
1706292641.7029545,-17.0,-19.0,-4.0,-44.0,-13.0,-15.0,-17.0,-23.0
1706292641.7029545,19.0,21.0,2.0,2.0,-1.0,1.0,7.0,13.0
1706292641.7029545,7.0,14.0,8.0,13.0,8.0,20.0,24.0,-13.0
1706292641.7029545,-23.0,-38.0,-28.0,-10.0,-5.0,3.0,-4.0,-11.0
1706292641.71295,15.0,29.0,25.0,-10.0,-11.0,-24.0,-26.0,8.0
1706292641.71295,-28.0,-24.0,0.0,24.0,4.0,7.0,4.0,-29.0
1706292641.71295,-10.0,-6.0,-1.0,-9.0,1.0,-14.0,-30.0,-17.0
1706292641.71295,0.0,-3.0,7.0,17.0,7.0,11.0,21.0,14.0
1706292641.7232258,-10.0,-14.0,-40.0,-57.0,-22.0,-6.0,0.0,-21.0
1706292641.732955,-5.0,-1.0,17.0,20.0,5.0,1.0,-2.0,35.0
1706292641.732955,8.0,12.0,-1.0,1.0,6.0,-4.0,0.0,-3.0
1706292641.732955,-6.0,1.0,9.0,-4.0,-16.0,-5.0,-6.0,-18.0
1706292641.762952,-2.0,5.0,8.0,11.0,17.0,7.0,4.0,3.0
1706292641.762952,8.0,-10.0,-37.0,-2.0,0.0,-6.0,2.0,18.0
1706292641.762952,13.0,18.0,5.0,10.0,-10.0,-6.0,-1.0,12.0
1706292641.762952,0.0,-13.0,8.0,1.0,11.0,3.0,1.0,13.0
1706292641.762952,-9.0,-8.0,-5.0,1.0,-8.0,-1.0,-1.0,-20.0
1706292641.762952,-28.0,-10.0,-14.0,-6.0,10.0,12.0,5.0,-9.0
1706292641.7731802,-34.0,11.0,-6.0,9.0,1.0,-9.0,-10.0,-1.0
1706292641.7731802,32.0,-11.0,-17.0,0.0,-4.0,-5.0,-6.0,-16.0
1706292641.7929554,-13.0,-2.0,11.0,-8.0,-10.0,12.0,27.0,18.0
1706292641.7929554,21.0,17.0,2.0,7.0,7.0,-10.0,-11.0,-7.0
1706292641.7929554,3.0,-9.0,-8.0,-13.0,1.0,13.0,13.0,5.0
1706292641.7929554,-17.0,-5.0,-5.0,3.0,7.0,20.0,30.0,6.0
1706292641.835269,-6.0,-17.0,-1.0,4.0,3.0,-10.0,-28.0,0.0
1706292641.835269,-6.0,0.0,11.0,-2.0,-8.0,-46.0,-65.0,-51.0
1706292641.835269,36.0,15.0,21.0,7.0,1.0,-11.0,14.0,72.0
1706292641.835269,-6.0,-10.0,-15.0,-6.0,2.0,14.0,27.0,-8.0
1706292641.835269,-9.0,-2.0,-1.0,7.0,8.0,16.0,11.0,-2.0
1706292641.835269,-1.0,2.0,7.0,1.0,1.0,8.0,13.0,2.0
1706292641.835269,10.0,-4.0,3.0,-3.0,6.0,5.0,1.0,3.0
1706292641.835269,-4.0,7.0,0.0,10.0,-2.0,-13.0,-2.0,-7.0
1706292641.8452935,1.0,-13.0,0.0,-6.0,2.0,21.0,13.0,11.0
1706292641.8452935,7.0,-6.0,-8.0,-1.0,-4.0,-2.0,-1.0,-1.0
1706292641.8452935,-12.0,-9.0,12.0,-5.0,-4.0,-1.0,-4.0,-27.0
1706292641.8452935,-6.0,0.0,0.0,6.0,2.0,0.0,5.0,30.0
1706292641.8753393,-15.0,-10.0,-14.0,-7.0,-4.0,-17.0,-20.0,-39.0
1706292641.8753393,5.0,4.0,4.0,-4.0,-1.0,-3.0,8.0,7.0
1706292641.8753393,16.0,-4.0,-5.0,-1.0,1.0,7.0,8.0,-2.0
1706292641.8753393,-9.0,3.0,1.0,8.0,-1.0,0.0,-12.0,-7.0
1706292641.8853712,-5.0,-1.0,-4.0,-2.0,-2.0,-11.0,-4.0,10.0
1706292641.8853712,21.0,4.0,6.0,6.0,-2.0,32.0,42.0,14.0
1706292641.8956265,-31.0,-12.0,-13.0,-15.0,-10.0,-31.0,-39.0,-27.0
1706292641.8956265,14.0,9.0,1.0,-6.0,-9.0,-26.0,-30.0,-7.0
1706292641.9056275,-12.0,-4.0,5.0,6.0,1.0,7.0,4.0,-1.0
1706292641.9056275,-4.0,6.0,2.0,-4.0,-9.0,3.0,9.0,6.0
1706292641.9056275,-8.0,-15.0,0.0,2.0,10.0,18.0,14.0,-6.0
1706292641.9056275,5.0,0.0,8.0,17.0,14.0,17.0,21.0,1.0
1706292641.945338,25.0,2.0,-8.0,-7.0,-7.0,-14.0,-36.0,3.0
1706292641.945338,-9.0,-2.0,-5.0,-13.0,-11.0,-18.0,-27.0,-8.0
1706292641.945338,0.0,-4.0,-6.0,1.0,0.0,7.0,14.0,-10.0
1706292641.945338,4.0,4.0,-1.0,3.0,7.0,27.0,41.0,11.0
1706292641.945338,8.0,11.0,11.0,3.0,1.0,-6.0,-38.0,2.0
1706292641.945338,6.0,-8.0,-11.0,-2.0,5.0,-10.0,-23.0,6.0
1706292641.9556117,-1.0,-1.0,-8.0,-6.0,-11.0,-20.0,-16.0,-18.0
1706292641.9556117,4.0,1.0,1.0,-1.0,-4.0,-8.0,-16.0,9.0
1706292641.9656315,6.0,6.0,-3.0,-2.0,4.0,6.0,28.0,4.0
1706292641.9656315,-11.0,5.0,12.0,8.0,3.0,-1.0,4.0,-10.0
1706292641.9656315,14.0,2.0,-5.0,-1.0,-3.0,-5.0,-5.0,7.0
1706292641.9656315,6.0,9.0,3.0,8.0,0.0,5.0,10.0,7.0
1706292641.9953399,-2.0,-20.0,-6.0,-6.0,-5.0,-24.0,-17.0,-13.0
1706292641.9953399,-9.0,-2.0,-15.0,-9.0,-1.0,-1.0,-2.0,-11.0
1706292641.9953399,11.0,1.0,10.0,2.0,3.0,14.0,17.0,12.0
1706292641.9953399,17.0,7.0,-3.0,-6.0,-6.0,4.0,2.0,9.0
1706292642.0053837,-74.0,1.0,-1.0,2.0,0.0,0.0,22.0,-23.0
1706292642.0053837,2.0,-18.0,-11.0,-10.0,-6.0,15.0,6.0,-3.0
1706292642.0155213,5.0,-4.0,-7.0,-8.0,-9.0,-18.0,-37.0,-10.0
1706292642.0155213,-17.0,5.0,7.0,-1.0,-9.0,-48.0,-48.0,-5.0
1706292642.0256813,20.0,-5.0,-3.0,-2.0,5.0,61.0,22.0,13.0
1706292642.0256813,6.0,20.0,13.0,3.0,-1.0,6.0,25.0,0.0
1706292642.0256813,-23.0,-6.0,-9.0,1.0,-1.0,-28.0,-39.0,-27.0
1706292642.0256813,0.0,-5.0,-1.0,-5.0,-1.0,16.0,33.0,32.0
1706292642.055339,6.0,-9.0,-5.0,0.0,-1.0,0.0,18.0,0.0
1706292642.055339,3.0,7.0,9.0,1.0,2.0,5.0,38.0,1.0
1706292642.055339,12.0,1.0,9.0,6.0,7.0,15.0,-17.0,4.0
1706292642.055339,-9.0,-10.0,-8.0,0.0,-1.0,-61.0,-28.0,-8.0
1706292642.0756037,2.0,-5.0,-2.0,0.0,-3.0,41.0,3.0,5.0
1706292642.0756037,-15.0,-4.0,2.0,6.0,4.0,24.0,5.0,-11.0
1706292642.0756037,-10.0,-4.0,-5.0,-3.0,-8.0,-10.0,8.0,10.0
1706292642.0756037,-4.0,-14.0,2.0,-4.0,-1.0,11.0,10.0,-24.0
1706292642.1053367,-17.0,11.0,18.0,12.0,1.0,-21.0,-14.0,0.0
1706292642.1053367,5.0,-9.0,1.0,1.0,-3.0,-6.0,-12.0,-4.0
1706292642.1053367,-2.0,-4.0,-6.0,1.0,9.0,24.0,23.0,21.0
1706292642.1053367,-45.0,-4.0,-7.0,-11.0,-11.0,-5.0,-49.0,-44.0
1706292642.1053367,42.0,4.0,2.0,1.0,-2.0,-17.0,2.0,-5.0
1706292642.1053367,-14.0,-10.0,-8.0,-3.0,-5.0,4.0,-8.0,3.0
1706292642.1153443,-23.0,7.0,-1.0,-3.0,-8.0,-8.0,2.0,-4.0
1706292642.1153443,16.0,-6.0,-13.0,-8.0,4.0,16.0,0.0,4.0
1706292642.1356888,17.0,2.0,0.0,-1.0,-3.0,-14.0,-5.0,25.0
1706292642.1356888,6.0,3.0,-1.0,-3.0,-5.0,-26.0,-35.0,-25.0
1706292642.1356888,4.0,2.0,2.0,-4.0,-6.0,11.0,35.0,52.0
1706292642.1356888,-33.0,-7.0,2.0,0.0,-5.0,6.0,-27.0,-47.0
1706292642.1553428,20.0,-1.0,8.0,4.0,-6.0,-7.0,22.0,5.0
1706292642.1553428,-58.0,-22.0,-16.0,-11.0,-2.0,9.0,-28.0,-40.0
1706292642.1553428,35.0,-1.0,9.0,-1.0,-4.0,-14.0,3.0,15.0
1706292642.1553428,-13.0,10.0,0.0,0.0,-4.0,-6.0,6.0,11.0
1706292642.1653714,13.0,4.0,-2.0,-4.0,-6.0,-22.0,-27.0,-3.0
1706292642.1653714,-8.0,3.0,6.0,1.0,2.0,14.0,15.0,5.0
1706292642.1753445,-2.0,-5.0,-7.0,-3.0,-1.0,-8.0,-7.0,-23.0
1706292642.1753445,1.0,11.0,2.0,7.0,10.0,27.0,44.0,27.0
1706292642.1956527,13.0,6.0,1.0,-3.0,-3.0,-14.0,-48.0,-18.0
1706292642.1956527,30.0,6.0,1.0,-3.0,-1.0,-6.0,-3.0,13.0
1706292642.1956527,-18.0,-6.0,-4.0,1.0,1.0,10.0,-9.0,-21.0
1706292642.1956527,27.0,0.0,-5.0,-1.0,-4.0,-3.0,2.0,14.0
1706292642.215344,-17.0,-4.0,-5.0,-5.0,-1.0,1.0,20.0,-3.0
1706292642.215344,2.0,-1.0,1.0,-1.0,-6.0,-16.0,-5.0,0.0
1706292642.215344,7.0,2.0,11.0,8.0,1.0,13.0,72.0,29.0
1706292642.215344,31.0,-10.0,-8.0,-4.0,7.0,17.0,19.0,9.0
1706292642.2253375,-6.0,-11.0,-9.0,-3.0,5.0,25.0,76.0,-9.0
1706292642.2253375,-7.0,11.0,3.0,-1.0,-7.0,-64.0,-103.0,19.0
1706292642.2353437,1.0,4.0,5.0,3.0,-2.0,12.0,31.0,-28.0
1706292642.2353437,-4.0,4.0,8.0,5.0,-2.0,-15.0,-8.0,11.0
1706292642.2555907,14.0,-16.0,-17.0,-7.0,3.0,23.0,18.0,7.0
1706292642.2555907,-3.0,-2.0,-6.0,-3.0,-1.0,-3.0,-2.0,13.0
1706292642.2555907,-45.0,-10.0,-15.0,-9.0,-4.0,-9.0,-33.0,-24.0
1706292642.2555907,18.0,3.0,0.0,-1.0,-3.0,-5.0,-16.0,-8.0
1706292642.285337,-23.0,-13.0,-4.0,-5.0,-5.0,-13.0,-28.0,-10.0
1706292642.285337,18.0,8.0,4.0,-5.0,-7.0,13.0,32.0,21.0
1706292642.285337,-6.0,1.0,1.0,5.0,3.0,-10.0,-35.0,-23.0
1706292642.285337,3.0,3.0,5.0,6.0,0.0,7.0,7.0,-5.0
1706292642.285337,-16.0,1.0,3.0,-4.0,-1.0,4.0,7.0,8.0
1706292642.285337,0.0,-2.0,-6.0,-9.0,-7.0,1.0,-8.0,-2.0
1706292642.285337,9.0,6.0,3.0,12.0,-4.0,-56.0,4.0,-4.0
1706292642.285337,-11.0,0.0,3.0,5.0,12.0,7.0,17.0,7.0
1706292642.3157666,28.0,15.0,29.0,12.0,4.0,23.0,-12.0,0.0
1706292642.3157666,4.0,-10.0,-7.0,4.0,7.0,26.0,26.0,-3.0
1706292642.3157666,-18.0,-32.0,-32.0,-26.0,-8.0,2.0,-17.0,-2.0
1706292642.3157666,-3.0,5.0,-2.0,-5.0,-9.0,-16.0,-34.0,-8.0
1706292642.3256488,-30.0,-12.0,-15.0,-3.0,-4.0,-20.0,15.0,-15.0
1706292642.3256488,-9.0,17.0,31.0,9.0,6.0,-9.0,-1.0,-2.0
1706292642.3256488,15.0,8.0,14.0,-2.0,0.0,17.0,10.0,6.0
1706292642.3256488,5.0,20.0,18.0,0.0,-4.0,-30.0,-6.0,6.0
1706292642.3537846,27.0,-1.0,-8.0,-2.0,12.0,38.0,16.0,6.0
1706292642.3537846,-56.0,-17.0,-10.0,-4.0,-9.0,-14.0,-9.0,-24.0
1706292642.3545697,-6.0,6.0,3.0,-1.0,-12.0,-58.0,-46.0,-9.0
1706292642.3545697,-12.0,-23.0,-19.0,-4.0,9.0,77.0,41.0,-23.0
1706292642.3783634,6.0,11.0,3.0,0.0,-3.0,-23.0,-73.0,33.0
1706292642.3783634,19.0,2.0,-5.0,6.0,0.0,6.0,22.0,0.0
1706292642.3783634,31.0,9.0,4.0,2.0,13.0,34.0,39.0,34.0
1706292642.3783634,-8.0,0.0,2.0,-1.0,-11.0,-50.0,-65.0,-26.0
1706292642.3883688,-31.0,-2.0,-6.0,-2.0,-7.0,-16.0,-3.0,-18.0
1706292642.3883688,-1.0,-2.0,4.0,3.0,6.0,14.0,2.0,2.0
1706292642.3883688,11.0,-4.0,-6.0,-1.0,-3.0,2.0,-13.0,-4.0
1706292642.3883688,12.0,-1.0,-4.0,-1.0,-2.0,8.0,23.0,13.0
1706292642.408366,-4.0,-2.0,-2.0,-1.0,-3.0,-14.0,-23.0,-14.0
1706292642.408366,9.0,8.0,1.0,0.0,4.0,-11.0,11.0,2.0
1706292642.408366,-10.0,4.0,2.0,2.0,5.0,19.0,9.0,-10.0
1706292642.408366,1.0,-8.0,-10.0,-3.0,-1.0,-1.0,9.0,7.0
1706292642.4383628,-23.0,5.0,7.0,-2.0,-1.0,-19.0,-23.0,-7.0
1706292642.4383628,28.0,-5.0,-4.0,-1.0,-4.0,-6.0,6.0,2.0
1706292642.4383628,4.0,-5.0,-9.0,-2.0,5.0,15.0,-3.0,8.0
1706292642.4383628,-9.0,-6.0,0.0,0.0,-4.0,-6.0,-20.0,-11.0
1706292642.4483647,10.0,9.0,1.0,4.0,2.0,-8.0,29.0,6.0
1706292642.4483647,12.0,9.0,17.0,3.0,-8.0,-96.0,-58.0,-7.0
1706292642.458364,-24.0,13.0,-12.0,-3.0,17.0,107.0,73.0,-10.0
1706292642.458364,19.0,-11.0,-21.0,6.0,17.0,-12.0,-29.0,56.0
1706292642.468363,-13.0,-26.0,-9.0,0.0,10.0,58.0,24.0,-52.0
1706292642.468363,-6.0,-16.0,-20.0,-12.0,-21.0,-32.0,-4.0,27.0
1706292642.468363,17.0,31.0,21.0,7.0,-6.0,-79.0,33.0,0.0
1706292642.468363,-6.0,20.0,24.0,8.0,3.0,53.0,-3.0,-12.0
1706292642.4883635,13.0,-8.0,-26.0,-12.0,-3.0,27.0,-12.0,20.0
1706292642.4883635,9.0,-72.0,-22.0,-13.0,-13.0,-29.0,-23.0,-41.0
1706292642.4883635,-6.0,-3.0,-17.0,-4.0,-8.0,-57.0,-74.0,-10.0
1706292642.4883635,19.0,9.0,2.0,-8.0,2.0,-20.0,64.0,13.0
1706292642.508365,-18.0,74.0,29.0,7.0,-11.0,-44.0,-5.0,8.0
1706292642.508365,2.0,-41.0,14.0,4.0,8.0,95.0,37.0,9.0
1706292642.5183635,-22.0,-23.0,9.0,-10.0,-13.0,-3.0,-28.0,-50.0
1706292642.5183635,-6.0,-72.0,-105.0,-17.0,-10.0,-85.0,-44.0,12.0
1706292642.528363,3.0,38.0,18.0,0.0,6.0,-57.0,16.0,-6.0
1706292642.528363,25.0,53.0,30.0,12.0,18.0,38.0,54.0,24.0
1706292642.528363,-21.0,-1.0,-16.0,7.0,11.0,54.0,-40.0,-25.0
1706292642.528363,-5.0,21.0,65.0,5.0,-1.0,1.0,4.0,14.0
1706292642.5583637,53.0,-10.0,-15.0,-13.0,-9.0,-15.0,9.0,-15.0
1706292642.5583637,-1.0,30.0,-9.0,1.0,-4.0,-8.0,-11.0,21.0
1706292642.5583637,-63.0,-23.0,7.0,5.0,2.0,-19.0,-11.0,-10.0
1706292642.5583637,-30.0,-5.0,-7.0,-6.0,-14.0,-5.0,-11.0,-24.0
1706292642.5684767,26.0,-13.0,-1.0,2.0,-1.0,8.0,6.0,25.0
1706292642.5684767,-31.0,-6.0,4.0,-6.0,-2.0,-8.0,-5.0,-10.0
1706292642.578363,33.0,-2.0,-17.0,-14.0,6.0,26.0,37.0,27.0
1706292642.578363,-1.0,12.0,13.0,6.0,-10.0,-19.0,-64.0,-18.0
1706292642.5883927,-19.0,-4.0,28.0,9.0,4.0,35.0,66.0,20.0
1706292642.5883927,-13.0,1.0,-43.0,-8.0,-3.0,-38.0,-5.0,-13.0
1706292642.5883927,-3.0,-12.0,29.0,1.0,-2.0,-1.0,-12.0,-14.0
1706292642.598407,6.0,37.0,6.0,-3.0,7.0,22.0,28.0,11.0
1706292642.6085348,-11.0,-78.0,-67.0,-17.0,-15.0,-71.0,-60.0,-1.0
1706292642.6085348,-11.0,-84.0,-70.0,-4.0,11.0,10.0,-2.0,-15.0
1706292642.6085348,15.0,-4.0,-1.0,-6.0,-17.0,-59.0,11.0,72.0
1706292642.6085348,12.0,18.0,45.0,-2.0,2.0,5.0,24.0,-10.0
1706292642.6287925,5.0,36.0,29.0,14.0,11.0,-23.0,-24.0,6.0
1706292642.6287925,-3.0,65.0,31.0,6.0,-10.0,-37.0,36.0,37.0
1706292642.638476,27.0,-2.0,3.0,12.0,3.0,-18.0,-43.0,-26.0
1706292642.638476,-6.0,-9.0,-8.0,-10.0,2.0,-8.0,22.0,23.0
1706292642.648469,-21.0,-17.0,-6.0,8.0,15.0,127.0,44.0,32.0
1706292642.648469,43.0,26.0,8.0,-2.0,-1.0,-5.0,15.0,17.0
1706292642.6584818,-62.0,2.0,-2.0,1.0,-5.0,-19.0,-28.0,-62.0
1706292642.6584818,-13.0,-23.0,-61.0,-18.0,-12.0,-9.0,1.0,20.0
1706292642.6685164,-4.0,8.0,-14.0,2.0,1.0,55.0,14.0,34.0
1706292642.6685164,25.0,-21.0,33.0,-16.0,-6.0,5.0,-50.0,-56.0
1706292642.6685164,-36.0,-24.0,-6.0,-6.0,-5.0,6.0,5.0,32.0
1706292642.6784933,5.0,3.0,30.0,5.0,-6.0,-86.0,-48.0,-101.0
1706292642.6887505,-24.0,-7.0,-19.0,-13.0,-13.0,-34.0,-20.0,9.0
1706292642.6887505,21.0,45.0,17.0,17.0,12.0,49.0,6.0,-24.0
1706292642.698521,52.0,16.0,-7.0,-7.0,-10.0,-32.0,-37.0,-18.0
1706292642.698521,-106.0,-67.0,-38.0,-7.0,-9.0,-1.0,-8.0,-52.0
1706292642.7084875,-1.0,-4.0,21.0,7.0,8.0,-38.0,-7.0,-3.0
1706292642.7084875,-15.0,25.0,51.0,10.0,5.0,-10.0,-9.0,-41.0
1706292642.7084875,34.0,-5.0,-43.0,-11.0,4.0,18.0,27.0,29.0
1706292642.7084875,28.0,2.0,22.0,14.0,20.0,107.0,47.0,35.0
1706292642.748479,3.0,-19.0,-73.0,-13.0,-15.0,-24.0,-11.0,-19.0
1706292642.748479,-25.0,-29.0,5.0,-6.0,0.0,9.0,-18.0,5.0
1706292642.748479,12.0,45.0,22.0,22.0,19.0,-23.0,0.0,37.0
1706292642.748479,14.0,5.0,44.0,6.0,10.0,90.0,63.0,-3.0
1706292642.748479,-13.0,-8.0,0.0,-3.0,-7.0,-26.0,-26.0,-31.0
1706292642.748479,-1.0,26.0,34.0,1.0,-1.0,-4.0,2.0,23.0
1706292642.7584863,4.0,-30.0,-75.0,-14.0,-15.0,-83.0,-7.0,0.0
1706292642.7584863,24.0,30.0,12.0,13.0,6.0,-105.0,-26.0,14.0
1706292642.76848,28.0,20.0,51.0,15.0,-8.0,-114.0,-25.0,15.0
1706292642.76848,-16.0,-11.0,-32.0,-9.0,-11.0,71.0,42.0,84.0
1706292642.76848,-12.0,2.0,3.0,-12.0,-10.0,-1.0,21.0,31.0
1706292642.76848,13.0,17.0,-12.0,2.0,-6.0,-39.0,-46.0,20.0
1706292642.7888877,-2.0,30.0,30.0,-12.0,-4.0,-10.0,2.0,-15.0
1706292642.7888877,-6.0,-77.0,-65.0,-18.0,-4.0,-36.0,-21.0,-3.0
1706292642.7888877,9.0,11.0,40.0,7.0,11.0,42.0,26.0,-9.0
1706292642.7888877,11.0,-18.0,-49.0,0.0,-4.0,6.0,-4.0,20.0
1706292642.8088658,2.0,44.0,23.0,5.0,6.0,29.0,0.0,-10.0
1706292642.8088658,-40.0,22.0,27.0,6.0,12.0,6.0,2.0,-23.0
1706292642.8184843,71.0,1.0,59.0,-13.0,-13.0,35.0,32.0,9.0
1706292642.8184843,-81.0,-20.0,-1.0,-3.0,-2.0,4.0,-3.0,-65.0
1706292642.82848,-26.0,-23.0,-10.0,2.0,-3.0,-6.0,-39.0,-34.0
1706292642.82848,-14.0,-6.0,13.0,26.0,12.0,-11.0,1.0,-13.0
1706292642.82848,0.0,2.0,-25.0,18.0,10.0,-9.0,2.0,10.0
1706292642.82848,52.0,22.0,15.0,-4.0,-4.0,-12.0,-6.0,31.0
1706292642.8488758,18.0,16.0,41.0,12.0,7.0,4.0,-26.0,2.0
1706292642.8488758,0.0,-5.0,-14.0,-6.0,-2.0,-23.0,-6.0,-5.0
1706292642.8488758,7.0,8.0,49.0,17.0,3.0,-48.0,21.0,-9.0
1706292642.8488758,13.0,31.0,35.0,-8.0,1.0,83.0,37.0,7.0
1706292642.8829,-40.0,-91.0,-107.0,-34.0,-6.0,-7.0,-6.0,-15.0
1706292642.8838978,24.0,26.0,7.0,-5.0,-8.0,-20.0,-17.0,-9.0
1706292642.8878965,-15.0,-20.0,-15.0,1.0,2.0,-5.0,-29.0,-13.0
1706292642.8878965,1.0,20.0,14.0,1.0,-3.0,-28.0,-47.0,-3.0
1706292642.8906674,15.0,48.0,58.0,18.0,7.0,1.0,24.0,21.0
1706292642.8906674,4.0,-4.0,10.0,5.0,7.0,26.0,5.0,6.0
1706292642.8906674,-34.0,-5.0,-91.0,-77.0,-38.0,-17.0,-23.0,-28.0
1706292642.8906674,-24.0,-115.0,-55.0,3.0,-6.0,-26.0,-7.0,3.0
1706292642.9110467,17.0,2.0,-42.0,21.0,14.0,32.0,24.0,7.0
1706292642.9110467,-5.0,38.0,33.0,-1.0,-7.0,-30.0,-15.0,-21.0
1706292642.9110467,7.0,-26.0,13.0,13.0,3.0,43.0,4.0,13.0
1706292642.9110467,1.0,42.0,44.0,-20.0,0.0,12.0,3.0,0.0
1706292642.9310622,-19.0,-35.0,-44.0,-30.0,-13.0,-36.0,-21.0,-23.0
1706292642.9310622,-17.0,-18.0,-22.0,11.0,-8.0,-3.0,9.0,-4.0
1706292642.9310622,18.0,40.0,20.0,-19.0,2.0,16.0,-42.0,5.0
1706292642.9310622,110.0,6.0,-48.0,37.0,3.0,-12.0,43.0,41.0
1706292642.950699,-79.0,-12.0,32.0,8.0,16.0,24.0,18.0,-32.0
1706292642.950699,-17.0,22.0,26.0,-5.0,-4.0,-5.0,6.0,2.0
1706292642.950699,-43.0,-14.0,-25.0,-5.0,-6.0,13.0,94.0,15.0
1706292642.950699,-19.0,14.0,62.0,-38.0,-13.0,-90.0,-91.0,-18.0
1706292642.971068,34.0,12.0,-6.0,-1.0,11.0,106.0,57.0,-10.0
1706292642.971068,8.0,-17.0,-42.0,14.0,23.0,-26.0,-31.0,-8.0
1706292642.971068,-10.0,42.0,4.0,4.0,-10.0,36.0,-13.0,-16.0
1706292642.971068,-29.0,-98.0,-117.0,-15.0,-10.0,-15.0,15.0,-14.0
1706292642.9906704,0.0,16.0,100.0,-26.0,-25.0,-24.0,-3.0,-5.0
1706292642.9906704,3.0,25.0,38.0,16.0,27.0,-5.0,50.0,13.0
1706292642.9906704,45.0,23.0,44.0,21.0,15.0,13.0,58.0,41.0
1706292642.9906704,-1.0,33.0,54.0,27.0,10.0,4.0,6.0,-61.0
1706292643.0110433,6.0,-9.0,-72.0,-10.0,-17.0,-12.0,-15.0,4.0
1706292643.0110433,6.0,-17.0,-41.0,-40.0,-14.0,13.0,12.0,8.0
1706292643.0110433,-17.0,-25.0,51.0,-14.0,-26.0,-24.0,-24.0,-20.0
1706292643.0110433,22.0,22.0,49.0,-9.0,-5.0,38.0,22.0,22.0
1706292643.031028,-9.0,-15.0,-48.0,86.0,26.0,-26.0,8.0,10.0
1706292643.031028,11.0,-13.0,-30.0,-5.0,-4.0,-16.0,-68.0,-6.0
1706292643.031028,-8.0,5.0,-28.0,-22.0,0.0,-4.0,-19.0,-10.0
1706292643.031028,-25.0,21.0,58.0,-16.0,-21.0,-4.0,-12.0,-8.0
1706292643.0610402,47.0,16.0,-6.0,-16.0,-1.0,-18.0,-3.0,18.0
1706292643.0610402,-42.0,-1.0,-10.0,-3.0,-6.0,-6.0,30.0,13.0
1706292643.0610402,94.0,14.0,39.0,22.0,7.0,-5.0,-67.0,-15.0
1706292643.0610402,-57.0,-51.0,-48.0,-6.0,-4.0,-26.0,8.0,-14.0
1706292643.071234,35.0,17.0,46.0,-8.0,8.0,42.0,42.0,26.0
1706292643.071234,-20.0,-16.0,-25.0,5.0,-2.0,-2.0,-18.0,-2.0
1706292643.071234,-65.0,-28.0,-6.0,-9.0,10.0,-6.0,-5.0,-40.0
1706292643.071234,4.0,37.0,19.0,12.0,-13.0,-8.0,-3.0,11.0
1706292643.0914106,-1.0,-2.0,-19.0,11.0,11.0,-25.0,-24.0,-6.0
1706292643.0914106,29.0,-12.0,27.0,-13.0,-11.0,11.0,-10.0,3.0
1706292643.0914106,41.0,11.0,-29.0,18.0,12.0,33.0,29.0,25.0
1706292643.0914106,-16.0,36.0,-3.0,1.0,16.0,39.0,3.0,24.0
1706292643.111039,-14.0,-41.0,30.0,-63.0,-31.0,-22.0,-74.0,-52.0
1706292643.111039,-30.0,8.0,11.0,8.0,-22.0,-13.0,-33.0,-32.0
1706292643.1210437,-56.0,-32.0,-31.0,11.0,-7.0,-37.0,-26.0,0.0
1706292643.1210437,-2.0,-2.0,15.0,37.0,27.0,16.0,15.0,13.0
1706292643.1312668,15.0,19.0,-34.0,-2.0,-18.0,-101.0,10.0,20.0
1706292643.1312668,55.0,12.0,-57.0,-3.0,30.0,93.0,-30.0,43.0
1706292643.1312668,-40.0,-26.0,22.0,-10.0,-7.0,3.0,96.0,-97.0
1706292643.1312668,16.0,-6.0,-28.0,-22.0,-10.0,-31.0,-32.0,22.0
1706292643.1510487,-35.0,-36.0,42.0,3.0,-13.0,-23.0,-23.0,-15.0
1706292643.1510487,16.0,9.0,-7.0,-2.0,-3.0,-26.0,10.0,0.0
1706292643.1510487,-12.0,-25.0,-25.0,8.0,-5.0,-8.0,-16.0,10.0
1706292643.1510487,20.0,-1.0,-45.0,6.0,13.0,35.0,15.0,4.0
1706292643.1710396,-2.0,18.0,6.0,-1.0,5.0,24.0,25.0,5.0
1706292643.1710396,9.0,11.0,36.0,-7.0,-9.0,-18.0,28.0,-6.0
1706292643.1710396,12.0,29.0,21.0,-38.0,4.0,9.0,-19.0,33.0
1706292643.1710396,-10.0,-26.0,-16.0,61.0,9.0,-1.0,56.0,12.0
1706292643.1913862,-27.0,-3.0,9.0,0.0,3.0,15.0,-27.0,-34.0
1706292643.1913862,49.0,8.0,-3.0,17.0,15.0,-12.0,16.0,27.0
1706292643.1913862,-94.0,-26.0,-10.0,-14.0,-4.0,-14.0,-62.0,-47.0
1706292643.1913862,51.0,13.0,18.0,-40.0,-28.0,-17.0,-75.0,-9.0
1706292643.2113733,-93.0,-58.0,-40.0,16.0,15.0,-2.0,-9.0,-41.0
1706292643.2113733,-16.0,-4.0,11.0,9.0,-4.0,-2.0,39.0,45.0
1706292643.2113733,26.0,31.0,38.0,-30.0,0.0,13.0,83.0,-17.0
1706292643.2113733,13.0,19.0,8.0,51.0,25.0,16.0,21.0,13.0
1706292643.2310412,39.0,18.0,1.0,-40.0,-22.0,4.0,1.0,44.0
1706292643.2310412,-4.0,-5.0,9.0,5.0,-22.0,-25.0,59.0,-19.0
1706292643.2310412,11.0,-2.0,-34.0,12.0,25.0,7.0,-20.0,42.0
1706292643.2310412,-3.0,12.0,1.0,12.0,26.0,10.0,20.0,2.0
1706292643.2513788,25.0,-10.0,-2.0,14.0,7.0,7.0,31.0,53.0
1706292643.2513788,-22.0,-24.0,5.0,5.0,8.0,-4.0,-16.0,-58.0
1706292643.2513788,40.0,44.0,9.0,3.0,-13.0,-3.0,-14.0,-5.0
1706292643.2513788,-36.0,-70.0,-47.0,-68.0,-37.0,-20.0,25.0,-37.0
1706292643.27104,2.0,13.0,1.0,-2.0,1.0,6.0,-20.0,33.0
1706292643.27104,9.0,27.0,31.0,5.0,3.0,8.0,-13.0,-16.0
1706292643.27104,13.0,5.0,59.0,40.0,9.0,16.0,0.0,-12.0
1706292643.27104,15.0,14.0,-16.0,-15.0,0.0,-27.0,-56.0,38.0
1706292643.2914,30.0,16.0,-16.0,1.0,0.0,0.0,-11.0,16.0
1706292643.2914,-117.0,-17.0,-2.0,-21.0,-10.0,-19.0,-16.0,-45.0
1706292643.2914,62.0,31.0,20.0,32.0,15.0,15.0,81.0,76.0
1706292643.2914,21.0,-11.0,-25.0,-25.0,5.0,43.0,19.0,22.0
1706292643.311371,121.0,33.0,17.0,-5.0,-11.0,-81.0,-76.0,-90.0
1706292643.311371,-58.0,-25.0,-18.0,27.0,24.0,-27.0,-44.0,2.0
1706292643.311371,-2.0,-33.0,-55.0,-4.0,14.0,-6.0,-10.0,-17.0
1706292643.311371,-12.0,15.0,48.0,1.0,18.0,14.0,84.0,31.0
1706292643.3410387,43.0,29.0,27.0,-4.0,17.0,31.0,67.0,46.0
1706292643.3410387,3.0,2.0,12.0,-54.0,-10.0,-19.0,-3.0,-10.0
1706292643.3410387,-23.0,-16.0,34.0,24.0,-1.0,-27.0,-42.0,-7.0
1706292643.3410387,1.0,11.0,-50.0,32.0,43.0,13.0,13.0,3.0
1706292643.361044,-28.0,25.0,41.0,19.0,31.0,14.0,1.0,-13.0
1706292643.361044,25.0,-11.0,-9.0,-16.0,4.0,-9.0,-5.0,-1.0
1706292643.361044,-33.0,-40.0,-29.0,-33.0,-22.0,-11.0,-24.0,39.0
1706292643.361044,47.0,38.0,-6.0,-4.0,-25.0,-22.0,-39.0,-18.0
1706292643.3712528,-64.0,-22.0,26.0,-1.0,-3.0,15.0,26.0,17.0
1706292643.3712528,-32.0,-1.0,-103.0,-21.0,-14.0,12.0,23.0,30.0
1706292643.3712528,97.0,17.0,73.0,26.0,14.0,12.0,-20.0,-8.0
1706292643.3712528,-102.0,-63.0,-42.0,0.0,-8.0,-16.0,-28.0,8.0
1706292643.412763,0.0,2.0,-15.0,-11.0,-23.0,-24.0,38.0,-26.0
1706292643.412763,13.0,-11.0,-37.0,-13.0,-29.0,-9.0,-9.0,-7.0
1706292643.4137647,8.0,31.0,7.0,8.0,14.0,20.0,12.0,35.0
1706292643.4137647,-21.0,-29.0,-20.0,-4.0,-1.0,4.0,1.0,-43.0
1706292643.419085,-80.0,19.0,54.0,19.0,1.0,-2.0,15.0,16.0
1706292643.4197743,109.0,18.0,1.0,-1.0,0.0,-41.0,-7.0,41.0
1706292643.4197743,-54.0,-58.0,-60.0,-19.0,-17.0,-55.0,-48.0,-61.0
1706292643.4197743,-57.0,46.0,56.0,-4.0,1.0,7.0,33.0,-2.0
1706292643.4341314,-33.0,-38.0,-17.0,-6.0,0.0,23.0,7.0,6.0
1706292643.4341314,-31.0,10.0,17.0,7.0,-2.0,-5.0,3.0,-6.0
1706292643.4341314,88.0,40.0,1.0,9.0,-2.0,-20.0,-42.0,-9.0
1706292643.4341314,18.0,-3.0,64.0,1.0,-1.0,12.0,-19.0,-27.0
1706292643.4543083,17.0,2.0,9.0,13.0,2.0,17.0,-2.0,-18.0
1706292643.4543083,36.0,19.0,30.0,29.0,8.0,36.0,7.0,11.0
1706292643.4543083,-21.0,-58.0,36.0,-19.0,-30.0,-19.0,-1.0,-9.0
1706292643.4543083,-26.0,22.0,8.0,-29.0,-40.0,-12.0,1.0,5.0
1706292643.4741771,17.0,-10.0,-54.0,11.0,0.0,37.0,-9.0,-6.0
1706292643.4741771,10.0,9.0,70.0,0.0,-23.0,11.0,0.0,0.0
1706292643.4741771,-19.0,81.0,82.0,33.0,-20.0,-31.0,16.0,13.0
1706292643.4741771,-3.0,-93.0,-83.0,-55.0,-24.0,-39.0,-28.0,-44.0
1706292643.4941957,-8.0,-12.0,119.0,-16.0,-34.0,42.0,30.0,11.0
1706292643.4941957,24.0,29.0,-79.0,-8.0,-10.0,42.0,38.0,-50.0
1706292643.4941957,-47.0,-28.0,-17.0,1.0,-10.0,-12.0,-38.0,53.0
1706292643.4941957,40.0,59.0,54.0,24.0,-11.0,1.0,-25.0,16.0
1706292643.5143638,22.0,21.0,37.0,16.0,-1.0,-27.0,-4.0,-3.0
1706292643.5143638,-30.0,-44.0,-84.0,-11.0,3.0,-28.0,-17.0,61.0
1706292643.5143638,26.0,18.0,15.0,11.0,4.0,-57.0,11.0,-72.0
1706292643.5143638,14.0,-33.0,-33.0,-20.0,-19.0,-43.0,-40.0,-15.0
1706292643.5343833,-13.0,-34.0,52.0,11.0,3.0,59.0,41.0,-9.0
1706292643.5343833,2.0,-7.0,-5.0,4.0,1.0,-14.0,-17.0,-3.0
1706292643.5343833,-38.0,-25.0,-64.0,-22.0,-8.0,-11.0,41.0,-25.0
1706292643.5343833,92.0,41.0,33.0,-4.0,-7.0,-82.0,-31.0,42.0
1706292643.554202,-7.0,24.0,-28.0,0.0,-3.0,35.0,-8.0,21.0
1706292643.5641975,10.0,-18.0,69.0,10.0,-13.0,-70.0,-26.0,-85.0
1706292643.5641975,-1.0,-18.0,-27.0,10.0,14.0,72.0,20.0,50.0
1706292643.5641975,8.0,38.0,79.0,17.0,-3.0,82.0,0.0,-46.0
1706292643.5741947,44.0,47.0,28.0,27.0,17.0,37.0,18.0,12.0
1706292643.5741947,-27.0,-1.0,69.0,-27.0,-5.0,73.0,-3.0,47.0
1706292643.584193,-33.0,-27.0,-29.0,-20.0,-17.0,-15.0,-18.0,-50.0
1706292643.584193,-17.0,18.0,105.0,26.0,5.0,30.0,79.0,-39.0
1706292643.5942447,40.0,108.0,39.0,10.0,4.0,-128.0,-17.0,42.0
1706292643.5942447,-78.0,-109.0,-42.0,-32.0,-12.0,81.0,70.0,-8.0
1706292643.6041942,4.0,89.0,8.0,-2.0,1.0,-40.0,0.0,-4.0
1706292643.6041942,-10.0,-11.0,-78.0,-20.0,-21.0,-53.0,1.0,11.0
1706292643.6142244,-23.0,3.0,-114.0,1.0,4.0,-68.0,-57.0,-17.0
1706292643.6142244,17.0,17.0,53.0,3.0,4.0,-49.0,-16.0,3.0
1706292643.6142244,-2.0,-8.0,-13.0,-3.0,-6.0,-77.0,-39.0,7.0
1706292643.6142244,-9.0,-12.0,-30.0,12.0,15.0,43.0,-2.0,24.0
1706292643.6345649,-25.0,-35.0,-28.0,-11.0,-3.0,-34.0,-45.0,-15.0
1706292643.6345649,52.0,25.0,8.0,26.0,12.0,-55.0,-28.0,-4.0
1706292643.6345649,-9.0,-28.0,-8.0,-5.0,5.0,60.0,-39.0,-5.0
1706292643.6345649,-13.0,96.0,3.0,14.0,5.0,-12.0,-39.0,-31.0
1706292643.6542244,33.0,-69.0,-2.0,-1.0,2.0,-1.0,62.0,25.0
1706292643.6542244,65.0,112.0,110.0,35.0,25.0,27.0,-78.0,-56.0
1706292643.6542244,-27.0,-35.0,-72.0,-42.0,-16.0,-12.0,11.0,34.0
1706292643.6542244,-28.0,-114.0,35.0,21.0,7.0,-112.0,-61.0,-7.0
1706292643.6741955,-27.0,-86.0,-105.0,-50.0,-20.0,38.0,-103.0,-45.0
1706292643.6741955,-18.0,25.0,68.0,20.0,15.0,65.0,83.0,79.0
1706292643.6741955,-25.0,-60.0,-69.0,-31.0,6.0,87.0,5.0,-40.0
1706292643.6741955,38.0,114.0,97.0,19.0,12.0,121.0,40.0,7.0
1706292643.6945388,-27.0,-90.0,-79.0,-25.0,-18.0,-74.0,-65.0,-36.0
1706292643.6945388,14.0,36.0,-75.0,23.0,14.0,-20.0,16.0,33.0
1706292643.6945388,10.0,26.0,34.0,34.0,19.0,23.0,-14.0,-28.0
1706292643.6945388,-9.0,43.0,-5.0,15.0,1.0,-20.0,28.0,43.0
1706292643.7142491,-9.0,18.0,-40.0,-27.0,-3.0,43.0,25.0,14.0
1706292643.7142491,-32.0,-68.0,-33.0,-33.0,-17.0,-9.0,-1.0,0.0
1706292643.7241948,14.0,25.0,13.0,19.0,8.0,-10.0,19.0,38.0
1706292643.7241948,-4.0,-37.0,-22.0,-6.0,6.0,-1.0,-14.0,-4.0
1706292643.7342005,5.0,69.0,72.0,23.0,4.0,-35.0,15.0,6.0
1706292643.7342005,0.0,-5.0,-46.0,-14.0,0.0,-28.0,-22.0,25.0
1706292643.7342005,-9.0,-12.0,56.0,0.0,1.0,17.0,5.0,4.0
1706292643.7342005,-10.0,-43.0,11.0,-13.0,2.0,15.0,15.0,3.0
1706292643.7544675,-7.0,-19.0,-19.0,-12.0,-2.0,15.0,7.0,-9.0
1706292643.7544675,-2.0,3.0,25.0,7.0,0.0,-16.0,-7.0,-14.0
1706292643.7544675,5.0,2.0,10.0,7.0,3.0,24.0,11.0,9.0
1706292643.7544675,-5.0,-31.0,-54.0,-19.0,-2.0,7.0,8.0,-1.0
1706292643.7742016,8.0,26.0,21.0,10.0,4.0,2.0,20.0,11.0
1706292643.7842047,-7.0,-12.0,-10.0,-4.0,-4.0,-10.0,-14.0,-24.0
1706292643.7941954,2.0,3.0,37.0,4.0,3.0,-6.0,2.0,8.0
1706292643.7941954,0.0,-14.0,-103.0,-12.0,-1.0,-4.0,-1.0,-7.0
1706292643.804194,-4.0,16.0,73.0,-1.0,-6.0,-1.0,-1.0,-3.0
1706292643.804194,-15.0,-33.0,-32.0,-5.0,-8.0,-5.0,-4.0,-18.0
1706292643.804194,-3.0,-11.0,-82.0,3.0,8.0,3.0,1.0,-1.0
1706292643.804194,1.0,28.0,32.0,8.0,3.0,-2.0,19.0,8.0
1706292643.8144088,-2.0,26.0,-8.0,-8.0,-1.0,12.0,-16.0,2.0
1706292643.8144088,-1.0,33.0,6.0,-16.0,-9.0,-1.0,-3.0,-15.0
1706292643.8144088,11.0,35.0,87.0,19.0,4.0,0.0,7.0,7.0
1706292643.8144088,-7.0,-16.0,-103.0,-33.0,-11.0,-2.0,-2.0,2.0
1706292643.8441927,9.0,72.0,54.0,10.0,5.0,8.0,19.0,-9.0
1706292643.8441927,-35.0,-86.0,-29.0,-9.0,3.0,-23.0,-16.0,-33.0
1706292643.8441927,8.0,48.0,22.0,9.0,2.0,-11.0,-10.0,-13.0
1706292643.8441927,-13.0,-21.0,-26.0,-16.0,-5.0,-1.0,-7.0,-3.0
1706292643.8441927,0.0,-45.0,-11.0,-4.0,-3.0,9.0,36.0,45.0
1706292643.8441927,6.0,39.0,0.0,-2.0,0.0,-4.0,-35.0,-35.0
1706292643.8542016,-26.0,-101.0,-28.0,-15.0,-7.0,5.0,3.0,-12.0
1706292643.8542016,15.0,7.0,44.0,6.0,0.0,9.0,30.0,72.0
1706292643.8745697,20.0,58.0,3.0,7.0,7.0,-11.0,-22.0,8.0
1706292643.8745697,-34.0,14.0,12.0,3.0,0.0,5.0,3.0,-2.0
1706292643.8745697,-1.0,-11.0,-3.0,0.0,-3.0,-4.0,-2.0,-3.0
1706292643.8745697,4.0,24.0,38.0,9.0,7.0,3.0,-4.0,-9.0
1706292643.894193,1.0,-37.0,-46.0,-13.0,-4.0,-4.0,0.0,-7.0
1706292643.894193,23.0,32.0,33.0,9.0,-1.0,5.0,10.0,8.0
1706292643.894193,-11.0,21.0,-11.0,-10.0,1.0,-2.0,-5.0,2.0
1706292643.894193,0.0,-42.0,-22.0,6.0,4.0,-1.0,-2.0,-9.0
1706292643.9045217,0.0,13.0,16.0,0.0,-1.0,3.0,5.0,-8.0
1706292643.9045217,8.0,17.0,-13.0,-8.0,-6.0,-5.0,0.0,-8.0
1706292643.9142015,-3.0,-47.0,-16.0,-14.0,-11.0,0.0,4.0,2.0
1706292643.9142015,-6.0,-6.0,90.0,-5.0,-8.0,-7.0,-9.0,-13.0
1706292643.9368105,-21.0,-83.0,-113.0,0.0,6.0,-1.0,-4.0,-16.0
1706292643.9368105,12.0,45.0,109.0,29.0,8.0,5.0,9.0,14.0
1706292643.9368105,9.0,0.0,-58.0,-3.0,22.0,4.0,4.0,9.0
1706292643.9368105,-4.0,12.0,-36.0,8.0,2.0,-7.0,-10.0,-17.0
1706292643.9564302,14.0,71.0,61.0,12.0,-5.0,2.0,-1.0,1.0
1706292643.9564302,-11.0,-87.0,9.0,-17.0,-12.0,-3.0,3.0,4.0
1706292643.9564302,-10.0,60.0,-32.0,-4.0,-2.0,0.0,13.0,1.0
1706292643.9564302,4.0,-38.0,33.0,-4.0,-5.0,-9.0,-38.0,8.0
1706292643.9664347,-62.0,-100.0,-113.0,-64.0,-27.0,-18.0,-1.0,33.0
1706292643.9664347,4.0,57.0,38.0,22.0,9.0,11.0,10.0,-2.0
1706292643.9767969,32.0,16.0,-28.0,0.0,-1.0,1.0,-16.0,-21.0
1706292643.9767969,-18.0,-8.0,-54.0,-15.0,-6.0,-4.0,2.0,-20.0
1706292643.9968333,26.0,7.0,40.0,18.0,7.0,6.0,9.0,2.0
1706292643.9968333,0.0,-19.0,-19.0,-5.0,-1.0,-1.0,0.0,27.0
1706292643.9968333,-32.0,14.0,25.0,8.0,0.0,-1.0,3.0,18.0
1706292643.9968333,3.0,20.0,13.0,9.0,5.0,5.0,10.0,1.0
1706292644.0165358,13.0,-1.0,18.0,0.0,1.0,2.0,-3.0,-14.0
1706292644.0165358,14.0,6.0,-34.0,-19.0,-12.0,-6.0,3.0,-13.0
1706292644.0165358,-6.0,26.0,34.0,11.0,-9.0,-3.0,-1.0,-8.0
1706292644.0165358,1.0,0.0,4.0,16.0,19.0,11.0,7.0,-8.0
1706292644.0264356,-14.0,1.0,20.0,9.0,3.0,-5.0,-4.0,-16.0
1706292644.0264356,8.0,-13.0,-33.0,-2.0,27.0,8.0,6.0,2.0
1706292644.0367756,5.0,24.0,53.0,-9.0,-11.0,-5.0,-2.0,5.0
1706292644.0367756,-7.0,-26.0,-83.0,-35.0,-9.0,-7.0,-2.0,3.0
1706292644.056435,10.0,25.0,66.0,39.0,-1.0,2.0,0.0,-2.0
1706292644.056435,1.0,-6.0,-12.0,-2.0,-6.0,-1.0,1.0,1.0
1706292644.056435,21.0,44.0,68.0,-3.0,-1.0,5.0,4.0,7.0
1706292644.056435,-6.0,-29.0,-19.0,-19.0,-16.0,-8.0,-3.0,-12.0
1706292644.0767357,3.0,56.0,-17.0,-7.0,0.0,2.0,1.0,-42.0
1706292644.0767357,-7.0,44.0,52.0,-37.0,-28.0,-14.0,-11.0,-9.0
1706292644.0767357,-13.0,-32.0,42.0,19.0,-22.0,-4.0,-6.0,-5.0
1706292644.0767357,15.0,40.0,-2.0,-61.0,24.0,7.0,6.0,-2.0
1706292644.0864882,1.0,-9.0,-30.0,31.0,-14.0,-9.0,-2.0,7.0
1706292644.0864882,-15.0,-34.0,18.0,93.0,28.0,3.0,-1.0,-1.0
1706292644.0966735,21.0,12.0,-1.0,-78.0,-18.0,-2.0,3.0,3.0
1706292644.0966735,-15.0,13.0,51.0,12.0,-34.0,-8.0,-11.0,-8.0
1706292644.126432,-10.0,-39.0,-36.0,40.0,54.0,2.0,-1.0,-1.0
1706292644.126432,2.0,-5.0,-36.0,-36.0,-31.0,-8.0,-6.0,-8.0
1706292644.126432,-3.0,-25.0,-51.0,10.0,3.0,1.0,-4.0,1.0
1706292644.126432,2.0,13.0,38.0,-7.0,7.0,-4.0,-1.0,-1.0
1706292644.1368074,-7.0,-21.0,-5.0,-38.0,-12.0,4.0,2.0,-3.0
1706292644.1368074,8.0,5.0,-4.0,15.0,10.0,4.0,4.0,3.0
1706292644.1368074,7.0,5.0,13.0,7.0,-2.0,-4.0,-1.0,2.0
1706292644.1368074,-12.0,15.0,5.0,-6.0,-10.0,-2.0,-2.0,-4.0
1706292644.1568513,5.0,-9.0,16.0,-13.0,-9.0,0.0,0.0,1.0
1706292644.1568513,-2.0,-4.0,-17.0,-3.0,11.0,5.0,5.0,4.0
1706292644.1568513,-9.0,21.0,68.0,-1.0,-1.0,-1.0,-1.0,-3.0
1706292644.1568513,8.0,-43.0,-58.0,-19.0,-10.0,-1.0,0.0,-2.0
1706292644.1767285,15.0,0.0,115.0,28.0,-10.0,-4.0,-3.0,2.0
1706292644.1767285,0.0,-21.0,0.0,-6.0,8.0,5.0,1.0,1.0
1706292644.1767285,-7.0,-32.0,-98.0,17.0,54.0,13.0,4.0,1.0
1706292644.1767285,8.0,54.0,58.0,6.0,-10.0,-4.0,-2.0,1.0
1706292644.196818,0.0,-2.0,-32.0,-54.0,2.0,6.0,1.0,0.0
1706292644.196818,2.0,6.0,-9.0,-27.0,-30.0,-14.0,-8.0,-2.0
1706292644.196818,-3.0,-5.0,51.0,127.0,21.0,0.0,2.0,-1.0
1706292644.196818,2.0,-13.0,-50.0,-50.0,39.0,13.0,9.0,4.0
1706292644.2168667,-5.0,14.0,-6.0,10.0,5.0,3.0,-1.0,-1.0
1706292644.2168667,3.0,21.0,-14.0,-39.0,-5.0,-4.0,-3.0,0.0
1706292644.2168667,24.0,-9.0,-16.0,-46.0,-21.0,-9.0,-4.0,1.0
1706292644.2168667,-30.0,2.0,18.0,29.0,-6.0,0.0,-1.0,-10.0
1706292644.2364357,10.0,-1.0,-6.0,-21.0,-13.0,1.0,0.0,-4.0
1706292644.2364357,-8.0,37.0,0.0,16.0,10.0,6.0,2.0,0.0
1706292644.2364357,-23.0,-72.0,-16.0,-11.0,-1.0,-4.0,-3.0,-1.0
1706292644.2364357,35.0,109.0,35.0,28.0,4.0,0.0,4.0,10.0
1706292644.2568915,-38.0,-22.0,54.0,12.0,6.0,-1.0,-1.0,20.0
1706292644.2568915,16.0,52.0,9.0,11.0,-2.0,-1.0,-2.0,-18.0
1706292644.2568915,-9.0,-56.0,-103.0,-58.0,-15.0,-5.0,2.0,17.0
1706292644.2568915,2.0,38.0,69.0,38.0,-2.0,-6.0,-8.0,22.0
1706292644.2869024,2.0,35.0,-71.0,-18.0,-9.0,-5.0,-14.0,-37.0
1706292644.2869024,-22.0,-37.0,16.0,-5.0,2.0,-1.0,0.0,-2.0
1706292644.2869024,-10.0,-7.0,15.0,-14.0,-7.0,-7.0,-5.0,-11.0
1706292644.2869024,2.0,-25.0,6.0,33.0,7.0,1.0,5.0,12.0
1706292644.2869024,3.0,-7.0,-4.0,13.0,6.0,5.0,5.0,0.0
1706292644.2869024,15.0,-34.0,6.0,-5.0,6.0,1.0,4.0,1.0
1706292644.2969015,-1.0,4.0,-23.0,-26.0,-22.0,-4.0,-4.0,-21.0
1706292644.2969015,2.0,-10.0,-11.0,-13.0,-4.0,1.0,1.0,0.0
1706292644.3169036,-32.0,-25.0,-17.0,-3.0,14.0,-4.0,-6.0,-34.0
1706292644.3169036,-3.0,-8.0,-9.0,-54.0,-26.0,-8.0,-5.0,-6.0
1706292644.3169036,16.0,33.0,34.0,73.0,23.0,12.0,8.0,17.0
1706292644.3169036,-35.0,-36.0,-22.0,-16.0,18.0,1.0,-1.0,-15.0
1706292644.336904,18.0,-40.0,6.0,5.0,-13.0,-7.0,-3.0,12.0
1706292644.336904,-7.0,67.0,0.0,-1.0,-7.0,-3.0,1.0,16.0
1706292644.336904,-22.0,-4.0,17.0,-27.0,-9.0,-5.0,-8.0,-20.0
1706292644.336904,5.0,-3.0,-18.0,-5.0,-16.0,-4.0,-2.0,-6.0
1706292644.3569055,15.0,-30.0,5.0,5.0,0.0,-1.0,0.0,3.0
1706292644.3569055,-46.0,-33.0,-43.0,-2.0,6.0,1.0,3.0,11.0
1706292644.3569055,19.0,20.0,21.0,-3.0,-6.0,-2.0,-8.0,-6.0
1706292644.3569055,6.0,-8.0,-66.0,11.0,6.0,5.0,9.0,23.0
1706292644.3771856,-6.0,-8.0,-1.0,-11.0,-3.0,0.0,2.0,-58.0
1706292644.3771856,20.0,-10.0,-16.0,13.0,1.0,-3.0,-4.0,46.0
1706292644.3771856,-10.0,7.0,12.0,-3.0,4.0,-24.0,-6.0,46.0
1706292644.3771856,-30.0,-14.0,24.0,14.0,0.0,28.0,-9.0,-30.0
1706292644.397144,-5.0,47.0,30.0,3.0,-4.0,-29.0,22.0,37.0
1706292644.397144,24.0,-28.0,-53.0,-3.0,6.0,66.0,6.0,-22.0
1706292644.397144,4.0,14.0,-11.0,-14.0,-2.0,-2.0,-3.0,-31.0
1706292644.397144,-5.0,0.0,25.0,9.0,2.0,-6.0,11.0,18.0
1706292644.4269006,14.0,21.0,12.0,-9.0,-8.0,-15.0,-16.0,17.0
1706292644.4269006,8.0,-5.0,25.0,18.0,4.0,-20.0,-9.0,-24.0
1706292644.4269006,-6.0,4.0,42.0,0.0,9.0,11.0,11.0,22.0
1706292644.4269006,19.0,-4.0,-2.0,13.0,-8.0,-10.0,-13.0,-16.0
1706292644.4372232,-8.0,3.0,-38.0,-20.0,3.0,9.0,0.0,2.0
1706292644.4372232,-2.0,-7.0,41.0,23.0,-5.0,-18.0,-3.0,-2.0
1706292644.4372232,-5.0,-6.0,-88.0,-24.0,5.0,7.0,-5.0,-7.0
1706292644.4372232,7.0,-8.0,57.0,3.0,-5.0,-11.0,1.0,-2.0
1706292644.4640615,-6.0,11.0,-1.0,-1.0,-3.0,3.0,-6.0,-7.0
1706292644.4640615,-4.0,23.0,-9.0,1.0,-5.0,-4.0,5.0,6.0
1706292644.4640615,39.0,-55.0,18.0,4.0,-3.0,-2.0,-1.0,2.0
1706292644.4640615,-23.0,-11.0,-6.0,7.0,3.0,-3.0,-2.0,-10.0
1706292644.4768157,-59.0,14.0,17.0,-11.0,-8.0,6.0,0.0,2.0
1706292644.4778376,-26.0,-30.0,-64.0,-12.0,-4.0,-9.0,-11.0,-17.0
1706292644.4778376,-14.0,22.0,26.0,4.0,1.0,2.0,1.0,-8.0
1706292644.4778376,24.0,-34.0,-28.0,-17.0,-5.0,-6.0,-5.0,-1.0
1706292644.4994855,27.0,21.0,34.0,8.0,0.0,9.0,8.0,47.0
1706292644.4994855,19.0,-5.0,-5.0,-1.0,2.0,-21.0,-5.0,-17.0
1706292644.4994855,29.0,2.0,-37.0,-4.0,0.0,12.0,0.0,-9.0
1706292644.4994855,-51.0,12.0,7.0,13.0,-2.0,7.0,4.0,-4.0
1706292644.5197875,9.0,26.0,35.0,-4.0,-2.0,-3.0,-3.0,2.0
1706292644.5197875,-8.0,-43.0,-37.0,-3.0,2.0,3.0,2.0,20.0
1706292644.5197875,6.0,33.0,-95.0,-23.0,-8.0,-13.0,-3.0,-2.0
1706292644.5197875,22.0,30.0,47.0,8.0,0.0,-6.0,-5.0,-1.0
1706292644.529482,-4.0,-57.0,-46.0,3.0,1.0,6.0,1.0,1.0
1706292644.529482,1.0,-2.0,38.0,5.0,3.0,-5.0,1.0,3.0
1706292644.529482,1.0,-9.0,38.0,-3.0,-8.0,2.0,0.0,2.0
1706292644.529482,13.0,24.0,-24.0,18.0,3.0,-1.0,-1.0,-2.0
1706292644.5594814,2.0,-7.0,-5.0,-18.0,2.0,-1.0,-2.0,-5.0
1706292644.5594814,27.0,1.0,17.0,37.0,3.0,3.0,5.0,2.0
1706292644.5594814,21.0,29.0,19.0,-14.0,1.0,1.0,0.0,2.0
1706292644.5594814,-56.0,3.0,-18.0,-25.0,-2.0,1.0,0.0,-15.0
1706292644.5799043,-14.0,-23.0,7.0,-15.0,-12.0,-7.0,-4.0,-4.0
1706292644.5799043,-7.0,19.0,17.0,9.0,0.0,0.0,-5.0,-7.0
1706292644.5799043,-12.0,10.0,7.0,6.0,-9.0,0.0,-1.0,1.0
1706292644.5799043,35.0,-8.0,29.0,5.0,-2.0,-5.0,0.0,5.0
1706292644.5894806,11.0,0.0,-47.0,-7.0,-1.0,-1.0,-5.0,-9.0
1706292644.5894806,-27.0,-2.0,-1.0,-28.0,-6.0,-1.0,-1.0,0.0
1706292644.5894806,-9.0,10.0,8.0,10.0,1.0,-9.0,12.0,79.0
1706292644.5894806,-1.0,-41.0,14.0,-15.0,-5.0,9.0,-15.0,-94.0
1706292644.609872,24.0,30.0,18.0,16.0,6.0,5.0,-2.0,86.0
1706292644.609872,22.0,35.0,15.0,1.0,2.0,3.0,5.0,15.0
1706292644.6194808,-37.0,-27.0,8.0,7.0,0.0,-3.0,-6.0,-34.0
1706292644.6194808,18.0,49.0,2.0,3.0,3.0,-1.0,6.0,17.0
1706292644.6398995,-29.0,4.0,-14.0,-1.0,-3.0,-1.0,4.0,-13.0
1706292644.6398995,51.0,40.0,13.0,0.0,0.0,-4.0,3.0,8.0
1706292644.6398995,45.0,44.0,9.0,-3.0,3.0,-1.0,-16.0,-62.0
1706292644.6398995,-46.0,-12.0,-8.0,-3.0,-4.0,-4.0,2.0,13.0
1706292644.6498184,-35.0,-75.0,-14.0,2.0,0.0,-3.0,-7.0,-42.0
1706292644.6498184,-38.0,-49.0,-8.0,-9.0,1.0,0.0,6.0,11.0
1706292644.6498184,-12.0,3.0,10.0,-2.0,0.0,0.0,0.0,-7.0
1706292644.6498184,50.0,2.0,-20.0,2.0,0.0,-3.0,-2.0,12.0
1706292644.6794822,13.0,27.0,40.0,7.0,0.0,1.0,4.0,7.0
1706292644.6794822,-14.0,-32.0,-4.0,-14.0,-2.0,-3.0,-5.0,-18.0
1706292644.6794822,-3.0,-14.0,23.0,0.0,-3.0,5.0,1.0,4.0
1706292644.6794822,0.0,-10.0,-48.0,3.0,9.0,-6.0,-2.0,9.0
1706292644.6999133,-2.0,-6.0,-17.0,-8.0,-1.0,2.0,3.0,-1.0
1706292644.6999133,-1.0,6.0,1.0,-7.0,-7.0,-3.0,-4.0,-7.0
1706292644.6999133,-15.0,1.0,12.0,2.0,-4.0,-3.0,-5.0,-12.0
1706292644.6999133,5.0,-5.0,11.0,-4.0,-7.0,-5.0,3.0,20.0
1706292644.7094824,15.0,15.0,-3.0,2.0,-3.0,-3.0,-3.0,-16.0
1706292644.7094824,-2.0,11.0,4.0,-1.0,0.0,1.0,-3.0,-9.0
1706292644.7094824,5.0,8.0,-2.0,5.0,4.0,1.0,5.0,15.0
1706292644.7094824,10.0,-91.0,-15.0,0.0,0.0,2.0,3.0,9.0
1706292644.7394826,-85.0,19.0,-6.0,1.0,1.0,-9.0,-5.0,-21.0
1706292644.7394826,6.0,25.0,15.0,4.0,2.0,11.0,-1.0,4.0
1706292644.7394826,-11.0,-70.0,-10.0,-1.0,1.0,-6.0,-8.0,14.0
1706292644.7394826,-18.0,72.0,-8.0,-9.0,-6.0,-2.0,-3.0,-9.0
1706292644.759838,33.0,-14.0,-2.0,1.0,0.0,2.0,-1.0,3.0
1706292644.759838,-25.0,-11.0,23.0,0.0,-1.0,-10.0,-10.0,-11.0
1706292644.759838,16.0,17.0,7.0,-30.0,-22.0,-7.0,-2.0,0.0
1706292644.759838,11.0,-23.0,-5.0,11.0,7.0,4.0,6.0,11.0
1706292644.769483,21.0,12.0,-11.0,1.0,-5.0,-6.0,-3.0,-7.0
1706292644.769483,-3.0,23.0,21.0,17.0,1.0,1.0,-1.0,-6.0
1706292644.769483,-4.0,-16.0,-17.0,32.0,45.0,12.0,8.0,1.0
1706292644.769483,-6.0,-3.0,16.0,-21.0,-16.0,-11.0,-7.0,-4.0
1706292644.799488,10.0,4.0,-9.0,-21.0,-7.0,-1.0,2.0,-2.0
1706292644.799488,2.0,-20.0,-12.0,-7.0,-7.0,-3.0,-2.0,-2.0
1706292644.799488,-17.0,6.0,7.0,-8.0,-21.0,-8.0,-2.0,-6.0
1706292644.799488,-4.0,-1.0,-2.0,-3.0,7.0,4.0,3.0,4.0
1706292644.8198857,23.0,9.0,17.0,16.0,7.0,5.0,0.0,1.0
1706292644.8198857,-6.0,-7.0,-14.0,-6.0,3.0,1.0,1.0,-1.0
1706292644.8198857,-8.0,3.0,-8.0,5.0,0.0,0.0,-1.0,-4.0
1706292644.8198857,0.0,15.0,5.0,4.0,-2.0,-5.0,-11.0,0.0
1706292644.8297427,13.0,0.0,7.0,-1.0,-3.0,-3.0,-4.0,-2.0
1706292644.8297427,-2.0,10.0,-5.0,-4.0,-4.0,-3.0,-1.0,-2.0
1706292644.8494818,-3.0,-11.0,-4.0,-3.0,3.0,2.0,-2.0,-1.0
1706292644.8494818,-1.0,31.0,-3.0,3.0,-5.0,0.0,8.0,11.0
1706292644.8594854,2.0,-72.0,-9.0,-5.0,-5.0,-2.0,-2.0,-4.0
1706292644.8594854,-4.0,36.0,-8.0,-3.0,4.0,3.0,1.0,2.0
1706292644.8594854,0.0,6.0,14.0,7.0,0.0,2.0,1.0,2.0
1706292644.8594854,4.0,5.0,8.0,-4.0,-3.0,-2.0,-4.0,1.0
1706292644.8797145,-8.0,10.0,-2.0,-4.0,0.0,0.0,-1.0,-6.0
1706292644.8797145,1.0,-6.0,-1.0,2.0,6.0,-2.0,3.0,1.0
1706292644.8797145,-8.0,1.0,12.0,-15.0,-8.0,-1.0,-3.0,-6.0
1706292644.8797145,6.0,-22.0,-11.0,55.0,14.0,-1.0,-2.0,-2.0
1706292644.8894856,-2.0,-1.0,-17.0,-14.0,2.0,7.0,2.0,2.0
1706292644.8894856,5.0,2.0,9.0,-18.0,-4.0,-5.0,-5.0,-4.0
1706292644.90949,-11.0,15.0,3.0,-2.0,-23.0,-2.0,-2.0,-3.0
1706292644.90949,13.0,-16.0,-14.0,-16.0,-1.0,-6.0,-2.0,6.0
1706292644.9294808,-17.0,13.0,3.0,21.0,26.0,10.0,2.0,-3.0
1706292644.9294808,14.0,-11.0,-2.0,15.0,0.0,2.0,8.0,8.0
1706292644.9294808,-25.0,-2.0,4.0,-16.0,-2.0,-3.0,-4.0,-17.0
1706292644.9294808,5.0,7.0,-1.0,-16.0,-1.0,-5.0,-4.0,-3.0
1706292644.9398696,10.0,12.0,6.0,10.0,-10.0,-5.0,-4.0,-1.0
1706292644.9398696,-3.0,-18.0,-7.0,-12.0,-4.0,-1.0,4.0,6.0
1706292644.9398696,4.0,11.0,-3.0,-4.0,2.0,0.0,0.0,2.0
1706292644.9398696,0.0,4.0,4.0,-6.0,-5.0,3.0,1.0,0.0
1706292644.9494991,3.0,14.0,-2.0,-1.0,1.0,-13.0,-3.0,-4.0
1706292644.9494991,-7.0,-25.0,-6.0,-3.0,-4.0,8.0,-2.0,-3.0
1706292644.969858,13.0,32.0,5.0,9.0,-2.0,-3.0,1.0,5.0
1706292644.969858,-27.0,-29.0,-24.0,-19.0,-7.0,-5.0,-6.0,-8.0
1706292644.979485,10.0,16.0,5.0,17.0,3.0,11.0,4.0,5.0
1706292644.979485,-12.0,-47.0,-1.0,14.0,-7.0,-13.0,-6.0,-5.0
1706292644.98236,3.0,26.0,8.0,0.0,-1.0,0.0,0.0,1.0
1706292644.98236,2.0,3.0,-8.0,-16.0,-3.0,2.0,-1.0,-2.0
1706292645.0018523,1.0,3.0,-3.0,9.0,6.0,-6.0,0.0,-1.0
1706292645.0018523,0.0,8.0,-11.0,10.0,11.0,4.0,0.0,-2.0
1706292645.0018523,-4.0,-15.0,1.0,-1.0,-1.0,0.0,-1.0,-2.0
1706292645.0018523,0.0,-1.0,10.0,-1.0,-7.0,-1.0,-1.0,1.0
1706292645.0157366,4.0,9.0,-5.0,-18.0,-15.0,-2.0,-1.0,-1.0
1706292645.0157366,-4.0,10.0,7.0,-5.0,-9.0,-9.0,-7.0,-5.0
1706292645.0157366,6.0,-18.0,-18.0,5.0,6.0,2.0,3.0,4.0
1706292645.0157366,-8.0,10.0,36.0,-48.0,-22.0,-3.0,-1.0,-3.0
1706292645.0360737,23.0,-4.0,-33.0,13.0,29.0,11.0,6.0,9.0
1706292645.0360737,1.0,9.0,6.0,-10.0,-2.0,-2.0,-4.0,-3.0
1706292645.0360737,-52.0,-22.0,-6.0,20.0,-3.0,-6.0,-4.0,-11.0
1706292645.0360737,-3.0,0.0,-11.0,-22.0,-5.0,-1.0,-1.0,-4.0
1706292645.0563526,-10.0,7.0,37.0,-26.0,-25.0,-7.0,-5.0,0.0
1706292645.0563526,9.0,-11.0,-11.0,12.0,7.0,1.0,-2.0,-2.0
1706292645.0563526,19.0,15.0,19.0,-2.0,0.0,-5.0,-2.0,3.0
1706292645.0563526,4.0,13.0,15.0,50.0,21.0,12.0,7.0,5.0
1706292645.0761683,-8.0,-68.0,-24.0,-10.0,-12.0,-6.0,-5.0,-3.0
1706292645.0761683,8.0,31.0,16.0,9.0,-5.0,-2.0,-1.0,5.0
1706292645.1060987,-1.0,6.0,-2.0,-4.0,0.0,-2.0,-3.0,-3.0
1706292645.1060987,-6.0,-11.0,-9.0,-15.0,-9.0,4.0,3.0,-2.0
1706292645.1060987,2.0,16.0,-12.0,-11.0,8.0,10.0,6.0,2.0
1706292645.1060987,6.0,10.0,26.0,-22.0,-10.0,-7.0,0.0,5.0
1706292645.1060987,-11.0,9.0,-3.0,19.0,15.0,-1.0,-2.0,-3.0
1706292645.1060987,16.0,-9.0,1.0,40.0,16.0,-1.0,1.0,2.0
1706292645.116093,-2.0,20.0,1.0,-5.0,-17.0,-9.0,-4.0,3.0
1706292645.116093,-12.0,0.0,-16.0,-13.0,4.0,10.0,4.0,-14.0
1706292645.116093,13.0,4.0,2.0,-12.0,-16.0,4.0,3.0,3.0
1706292645.116093,6.0,12.0,14.0,-3.0,-6.0,-3.0,1.0,2.0
1706292645.136469,-6.0,-24.0,-18.0,-9.0,13.0,7.0,8.0,-3.0
1706292645.136469,-7.0,-3.0,2.0,12.0,12.0,2.0,-3.0,0.0
1706292645.136469,-9.0,-24.0,-33.0,-2.0,-13.0,-8.0,-10.0,-4.0
1706292645.136469,6.0,-15.0,-16.0,0.0,8.0,-9.0,-4.0,-2.0
1706292645.1564777,5.0,15.0,21.0,19.0,16.0,3.0,-7.0,-2.0
1706292645.1564777,-14.0,-3.0,-28.0,-44.0,-22.0,-14.0,-9.0,-14.0
1706292645.1564777,-5.0,-4.0,13.0,25.0,-6.0,4.0,4.0,0.0
1706292645.1564777,-13.0,0.0,-8.0,-2.0,2.0,1.0,1.0,-2.0
1706292645.1760929,-7.0,4.0,-21.0,-3.0,15.0,0.0,0.0,-1.0
1706292645.1760929,3.0,-9.0,65.0,41.0,10.0,1.0,-3.0,2.0
1706292645.1760929,17.0,0.0,-39.0,-35.0,1.0,-1.0,1.0,2.0
1706292645.1760929,-4.0,15.0,19.0,7.0,-6.0,3.0,-3.0,-7.0
1706292645.196452,-10.0,-60.0,-78.0,-27.0,-27.0,-11.0,-5.0,2.0
1706292645.196452,-1.0,-6.0,-15.0,-5.0,35.0,13.0,10.0,4.0
1706292645.196452,0.0,-21.0,-6.0,-21.0,6.0,2.0,3.0,-1.0
1706292645.196452,6.0,12.0,23.0,8.0,-7.0,-2.0,-1.0,1.0
1706292645.2164915,4.0,35.0,29.0,29.0,0.0,1.0,1.0,-2.0
1706292645.2164915,-2.0,5.0,-1.0,-10.0,-14.0,-11.0,-6.0,-2.0
1706292645.2164915,9.0,1.0,6.0,-2.0,-5.0,3.0,12.0,4.0
1706292645.2164915,0.0,-10.0,-28.0,17.0,1.0,2.0,-2.0,2.0
1706292645.2360916,-9.0,18.0,40.0,0.0,8.0,-2.0,-26.0,-14.0
1706292645.2360916,-7.0,-18.0,-38.0,-11.0,-24.0,-17.0,29.0,-3.0
1706292645.2360916,6.0,0.0,-8.0,-10.0,5.0,-5.0,-19.0,-3.0
1706292645.2360916,7.0,6.0,27.0,-11.0,-4.0,2.0,2.0,7.0
1706292645.256328,0.0,26.0,28.0,5.0,-30.0,-10.0,6.0,-14.0
1706292645.2660987,-36.0,-43.0,-53.0,17.0,49.0,9.0,-3.0,4.0
1706292645.2660987,-9.0,-17.0,-23.0,-18.0,-9.0,-4.0,-2.0,-8.0
1706292645.2660987,-3.0,4.0,-4.0,-1.0,-7.0,-1.0,4.0,2.0
1706292645.2763455,9.0,3.0,3.0,-18.0,0.0,-4.0,-5.0,1.0
1706292645.2763455,12.0,27.0,18.0,-31.0,-30.0,-10.0,-8.0,-5.0
1706292645.2763455,-2.0,1.0,14.0,55.0,22.0,22.0,15.0,9.0
1706292645.2763455,-2.0,-1.0,-12.0,1.0,2.0,-2.0,-4.0,-2.0
1706292645.316092,7.0,42.0,52.0,5.0,21.0,2.0,5.0,4.0
1706292645.316092,-5.0,-10.0,-19.0,24.0,-15.0,-5.0,-11.0,-1.0
1706292645.316092,-15.0,-34.0,-28.0,-41.0,-8.0,-20.0,-26.0,-13.0
1706292645.316092,-10.0,-5.0,-1.0,-1.0,-14.0,2.0,3.0,-8.0
1706292645.316092,7.0,-23.0,-31.0,-34.0,-22.0,-2.0,12.0,10.0
1706292645.316092,-6.0,7.0,34.0,34.0,28.0,12.0,2.0,0.0
1706292645.316092,7.0,4.0,31.0,0.0,-19.0,-6.0,-9.0,1.0
1706292645.316092,0.0,-14.0,-42.0,45.0,28.0,9.0,2.0,-5.0
1706292645.3361378,-21.0,-27.0,-12.0,-7.0,-4.0,-9.0,-1.0,-13.0
1706292645.3361378,13.0,20.0,-25.0,-12.0,-11.0,-8.0,0.0,9.0
1706292645.3461008,7.0,13.0,7.0,14.0,12.0,12.0,12.0,3.0
1706292645.3461008,-1.0,-9.0,-2.0,-24.0,-9.0,-9.0,1.0,12.0
1706292645.3562698,12.0,25.0,61.0,3.0,-27.0,-10.0,-3.0,6.0
1706292645.3562698,4.0,-17.0,-32.0,27.0,38.0,17.0,3.0,-3.0
1706292645.3562698,7.0,11.0,4.0,-17.0,-5.0,-13.0,-7.0,-10.0
1706292645.3562698,-14.0,1.0,40.0,23.0,16.0,8.0,-4.0,0.0
1706292645.3860972,-2.0,-6.0,-41.0,-11.0,-4.0,-10.0,-5.0,-7.0
1706292645.3860972,-7.0,-3.0,12.0,16.0,-32.0,-3.0,-3.0,-4.0
1706292645.3860972,0.0,9.0,6.0,28.0,3.0,11.0,15.0,16.0
1706292645.3860972,48.0,-8.0,7.0,-25.0,42.0,5.0,0.0,3.0
1706292645.406093,-51.0,-6.0,-12.0,43.0,-2.0,-15.0,-21.0,-17.0
1706292645.406093,7.0,-2.0,18.0,-5.0,-2.0,-2.0,1.0,-2.0
1706292645.406093,0.0,-4.0,-22.0,14.0,12.0,3.0,5.0,5.0
1706292645.406093,-11.0,-2.0,-3.0,-20.0,-24.0,-12.0,-5.0,-5.0
1706292645.4161248,12.0,-8.0,3.0,14.0,1.0,7.0,8.0,9.0
1706292645.4161248,4.0,12.0,-7.0,-17.0,16.0,4.0,1.0,3.0
1706292645.4161248,-2.0,-7.0,8.0,-15.0,2.0,-7.0,-7.0,-3.0
1706292645.4161248,-18.0,-2.0,-12.0,21.0,33.0,13.0,7.0,-3.0
1706292645.4461,10.0,-16.0,-2.0,40.0,15.0,-11.0,-7.0,-1.0
1706292645.4461,5.0,25.0,20.0,30.0,24.0,-2.0,-3.0,2.0
1706292645.4461,-20.0,-14.0,-41.0,-20.0,-4.0,-7.0,2.0,-2.0
1706292645.4461,-3.0,-8.0,17.0,-23.0,-23.0,-28.0,-21.0,-14.0
1706292645.4760911,6.0,16.0,12.0,-14.0,-2.0,13.0,-10.0,4.0
1706292645.4760911,2.0,-21.0,-26.0,-23.0,4.0,-3.0,33.0,9.0
1706292645.4760911,-12.0,-9.0,19.0,11.0,26.0,5.0,-1.0,-10.0
1706292645.4760911,6.0,16.0,14.0,-14.0,-25.0,-13.0,2.0,15.0
1706292645.4760911,-12.0,-17.0,-23.0,-14.0,20.0,7.0,1.0,-7.0
1706292645.4760911,8.0,31.0,69.0,-19.0,-32.0,-26.0,-18.0,-6.0
1706292645.4760911,6.0,6.0,5.0,37.0,35.0,24.0,13.0,0.0
1706292645.4760911,-13.0,-11.0,-2.0,-4.0,-21.0,1.0,1.0,-9.0
1706292645.4964585,30.0,12.0,-34.0,-25.0,-43.0,-21.0,-1.0,5.0
1706292645.4964585,-37.0,-10.0,-13.0,0.0,31.0,15.0,4.0,5.0
1706292645.4964585,29.0,-5.0,14.0,-38.0,-46.0,-29.0,-20.0,-24.0
1706292645.4964585,-9.0,10.0,3.0,29.0,5.0,23.0,10.0,0.0
1706292645.529176,9.0,4.0,6.0,13.0,25.0,12.0,16.0,17.0
1706292645.529176,-31.0,-37.0,4.0,-6.0,-22.0,4.0,0.0,-14.0
1706292645.529176,10.0,18.0,-8.0,-14.0,-22.0,-10.0,-16.0,9.0
1706292645.529176,-4.0,-15.0,-42.0,-39.0,-20.0,-16.0,5.0,-5.0
1706292645.538632,-13.0,-2.0,14.0,-2.0,-21.0,7.0,7.0,-5.0
1706292645.538632,10.0,1.0,-35.0,-40.0,-35.0,3.0,-6.0,2.0
1706292645.538632,4.0,4.0,26.0,12.0,5.0,-14.0,-4.0,-5.0
1706292645.538632,4.0,2.0,16.0,-1.0,-10.0,7.0,-2.0,0.0
1706292645.558965,-7.0,-12.0,10.0,4.0,-4.0,-4.0,1.0,-1.0
1706292645.558965,17.0,12.0,9.0,-45.0,2.0,7.0,-3.0,-3.0
1706292645.558965,-9.0,-11.0,5.0,17.0,14.0,-3.0,-6.0,0.0
1706292645.558965,-1.0,-3.0,-26.0,-11.0,-18.0,-16.0,-1.0,-5.0
1706292645.578635,-2.0,6.0,53.0,3.0,29.0,15.0,11.0,3.0
1706292645.578635,9.0,11.0,-35.0,-22.0,-40.0,-18.0,-14.0,0.0
1706292645.5886328,2.0,1.0,-16.0,-8.0,4.0,1.0,8.0,-1.0
1706292645.5886328,-14.0,-2.0,-14.0,-14.0,-7.0,-2.0,-1.0,-3.0
1706292645.599014,13.0,2.0,-14.0,-16.0,31.0,6.0,-14.0,-9.0
1706292645.599014,7.0,6.0,-13.0,-20.0,-24.0,-6.0,9.0,15.0
1706292645.599014,-8.0,13.0,4.0,4.0,-12.0,-16.0,-1.0,0.0
1706292645.599014,-20.0,-28.0,36.0,48.0,77.0,14.0,11.0,-7.0
1706292645.6189568,4.0,2.0,-19.0,0.0,-32.0,0.0,6.0,-2.0
1706292645.6189568,16.0,29.0,14.0,-25.0,-10.0,-25.0,-15.0,-9.0
1706292645.6189568,0.0,4.0,5.0,18.0,10.0,24.0,14.0,3.0
1706292645.6189568,24.0,13.0,10.0,3.0,-24.0,-5.0,-8.0,4.0
1706292645.6386611,-18.0,-7.0,-11.0,-43.0,6.0,-1.0,-9.0,-11.0
1706292645.6386611,-23.0,-69.0,-25.0,37.0,71.0,38.0,10.0,-1.0
1706292645.6386611,-7.0,-9.0,-9.0,16.0,0.0,23.0,14.0,8.0
1706292645.6386611,7.0,26.0,10.0,-1.0,-41.0,-26.0,-20.0,-9.0
1706292645.6590772,4.0,6.0,-1.0,-2.0,10.0,14.0,10.0,6.0
1706292645.6590772,-1.0,-14.0,-31.0,40.0,-11.0,-7.0,-24.0,-7.0
1706292645.6590772,6.0,23.0,2.0,-28.0,-20.0,-15.0,10.0,2.0
1706292645.6590772,-13.0,-26.0,-22.0,2.0,11.0,18.0,5.0,-4.0
1706292645.688674,-5.0,-10.0,-28.0,6.0,-10.0,-13.0,2.0,1.0
1706292645.688674,8.0,21.0,38.0,-5.0,-40.0,-24.0,-10.0,-2.0
1706292645.688674,2.0,-7.0,-14.0,-6.0,10.0,10.0,8.0,6.0
1706292645.688674,4.0,2.0,-5.0,-10.0,-42.0,-23.0,-8.0,-5.0
1706292645.6986766,-14.0,-10.0,1.0,10.0,31.0,0.0,16.0,2.0
1706292645.6986766,22.0,19.0,68.0,54.0,-20.0,13.0,0.0,4.0
1706292645.6986766,-16.0,-19.0,-45.0,-20.0,-12.0,-31.0,-12.0,-9.0
1706292645.6986766,-22.0,13.0,-20.0,-37.0,-16.0,-14.0,16.0,-2.0
1706292645.7189867,21.0,2.0,26.0,12.0,3.0,-4.0,13.0,18.0
1706292645.7189867,-6.0,-17.0,-47.0,19.0,12.0,5.0,0.0,-11.0
1706292645.7189867,-22.0,-30.0,-22.0,-12.0,-1.0,-22.0,-16.0,-6.0
1706292645.7189867,-19.0,10.0,24.0,-24.0,5.0,2.0,-19.0,-9.0
1706292645.7486742,-8.0,-7.0,-30.0,-24.0,-11.0,-6.0,-17.0,-11.0
1706292645.7486742,8.0,8.0,-4.0,-15.0,10.0,-1.0,3.0,5.0
1706292645.7486742,10.0,-13.0,7.0,59.0,7.0,28.0,8.0,4.0
1706292645.7486742,5.0,9.0,-1.0,-20.0,12.0,1.0,-15.0,-1.0
1706292645.75867,-1.0,27.0,27.0,-26.0,-33.0,-2.0,-7.0,-3.0
1706292645.75867,-5.0,-20.0,-16.0,21.0,40.0,18.0,4.0,-1.0
1706292645.75867,4.0,29.0,37.0,-42.0,-28.0,4.0,-35.0,-6.0
1706292645.75867,0.0,-12.0,9.0,63.0,31.0,3.0,-20.0,-12.0
1706292645.7789574,-12.0,-14.0,-30.0,-21.0,-19.0,6.0,61.0,23.0
1706292645.7789574,-5.0,11.0,5.0,-11.0,-23.0,-3.0,-5.0,-12.0
1706292645.7789574,3.0,-5.0,-30.0,-25.0,-7.0,-9.0,-4.0,2.0
1706292645.7789574,6.0,-9.0,29.0,26.0,25.0,7.0,2.0,3.0
1706292645.7987018,8.0,10.0,-2.0,20.0,9.0,14.0,-13.0,-4.0
1706292645.7987018,-4.0,-2.0,53.0,67.0,-9.0,-22.0,-13.0,-4.0
1706292645.7987018,-2.0,13.0,29.0,-41.0,-32.0,-7.0,4.0,2.0
1706292645.7987018,4.0,-4.0,10.0,16.0,-20.0,6.0,16.0,9.0
1706292645.8186753,2.0,-15.0,0.0,23.0,17.0,-8.0,-20.0,-14.0
1706292645.8186753,-56.0,-7.0,-1.0,-53.0,-19.0,5.0,9.0,0.0
1706292645.8186753,67.0,23.0,14.0,-60.0,-71.0,-12.0,-22.0,-11.0
1706292645.8186753,12.0,-16.0,16.0,1.0,39.0,17.0,8.0,11.0
1706292645.8390846,-8.0,29.0,24.0,13.0,-4.0,-4.0,-4.0,7.0
1706292645.8390846,6.0,-16.0,-47.0,-46.0,-8.0,2.0,-8.0,-14.0
1706292645.8390846,-16.0,9.0,7.0,30.0,33.0,11.0,3.0,16.0
1706292645.8390846,10.0,21.0,-36.0,-22.0,23.0,17.0,16.0,10.0
1706292645.8586729,1.0,-25.0,10.0,22.0,11.0,-6.0,-57.0,-13.0
1706292645.8586729,18.0,11.0,-26.0,-31.0,-16.0,-8.0,56.0,9.0
1706292645.8586729,-19.0,-27.0,-18.0,21.0,33.0,10.0,2.0,-11.0
1706292645.8586729,15.0,2.0,2.0,4.0,-37.0,-10.0,-5.0,-5.0
1706292645.879058,-23.0,1.0,2.0,-34.0,-3.0,8.0,-26.0,-7.0
1706292645.879058,1.0,3.0,-3.0,37.0,59.0,10.0,-18.0,1.0
1706292645.879058,-9.0,-19.0,8.0,54.0,23.0,5.0,24.0,6.0
1706292645.879058,2.0,26.0,-11.0,-21.0,-5.0,9.0,5.0,5.0
1706292645.899436,-1.0,-13.0,-40.0,-24.0,-12.0,-13.0,-9.0,-5.0
1706292645.899436,3.0,8.0,66.0,58.0,3.0,7.0,-15.0,-12.0
1706292645.899436,-10.0,-8.0,48.0,30.0,29.0,17.0,15.0,13.0
1706292645.899436,2.0,-12.0,-45.0,-11.0,-2.0,-7.0,-12.0,-7.0
1706292645.9190564,7.0,6.0,8.0,8.0,-23.0,-9.0,3.0,2.0
1706292645.9190564,9.0,9.0,29.0,4.0,5.0,7.0,-13.0,2.0
1706292645.9190564,-10.0,3.0,-29.0,-4.0,7.0,-27.0,-28.0,-25.0
1706292645.9190564,5.0,2.0,24.0,15.0,-11.0,27.0,4.0,54.0
1706292645.9390957,-4.0,-17.0,-11.0,-22.0,-12.0,-3.0,6.0,-24.0
1706292645.9390957,-7.0,-2.0,-19.0,-21.0,-19.0,2.0,-5.0,-3.0
1706292645.9390957,7.0,11.0,15.0,-28.0,-22.0,-7.0,10.0,9.0
1706292645.9390957,-18.0,-32.0,-60.0,8.0,45.0,7.0,-1.0,-27.0
1706292645.9590569,9.0,2.0,3.0,0.0,-23.0,2.0,-12.0,12.0
1706292645.9590569,5.0,-1.0,-14.0,-5.0,23.0,3.0,0.0,10.0
1706292645.9590569,-5.0,-1.0,-23.0,-13.0,15.0,0.0,-7.0,-1.0
1706292645.9590569,10.0,16.0,11.0,8.0,-19.0,-26.0,-5.0,1.0
1706292645.9793463,0.0,18.0,75.0,89.0,35.0,22.0,18.0,2.0
1706292645.9793463,-9.0,-35.0,-61.0,-34.0,14.0,4.0,-2.0,-6.0
1706292645.9793463,22.0,-4.0,-9.0,16.0,-10.0,-1.0,-11.0,-2.0
1706292645.9793463,-40.0,-3.0,7.0,-3.0,-5.0,-23.0,-16.0,-21.0
1706292645.9991121,9.0,5.0,17.0,-27.0,-14.0,7.0,-15.0,-6.0
1706292645.9991121,6.0,3.0,-12.0,-10.0,-20.0,-9.0,0.0,10.0
1706292645.9991121,-19.0,-13.0,-16.0,-6.0,-23.0,-1.0,3.0,-14.0
1706292645.9991121,23.0,10.0,30.0,-1.0,-5.0,1.0,-24.0,-7.0
1706292646.0390582,-4.0,8.0,-12.0,16.0,11.0,-17.0,4.0,1.0
1706292646.0390582,2.0,3.0,-1.0,-2.0,0.0,23.0,13.0,11.0
1706292646.0390582,5.0,-1.0,-6.0,-8.0,-8.0,-33.0,12.0,37.0
1706292646.0390582,-5.0,-1.0,2.0,4.0,-9.0,13.0,-56.0,-65.0
1706292646.0390582,-7.0,-7.0,-19.0,0.0,12.0,49.0,21.0,-4.0
1706292646.0390582,4.0,11.0,7.0,-2.0,-3.0,-8.0,12.0,1.0
1706292646.0390582,-2.0,1.0,5.0,-1.0,-6.0,-25.0,-25.0,6.0
1706292646.0390582,-8.0,-13.0,1.0,-2.0,-4.0,12.0,102.0,6.0
1706292646.0673957,-1.0,5.0,-8.0,-3.0,-3.0,-15.0,-60.0,-25.0
1706292646.0673957,-1.0,-9.0,17.0,-13.0,-22.0,-57.0,-14.0,-4.0
1706292646.06845,-13.0,5.0,-18.0,11.0,29.0,45.0,-3.0,-21.0
1706292646.06845,7.0,-21.0,-14.0,-5.0,-7.0,-41.0,1.0,28.0
1706292646.081305,5.0,2.0,-36.0,-42.0,-18.0,-13.0,14.0,10.0
1706292646.081305,5.0,22.0,35.0,39.0,10.0,14.0,-1.0,-12.0
1706292646.081305,-5.0,11.0,8.0,-29.0,-21.0,-25.0,-11.0,-2.0
1706292646.081305,0.0,3.0,-23.0,13.0,26.0,23.0,6.0,7.0
1706292646.1015785,-2.0,-9.0,-1.0,5.0,5.0,-10.0,10.0,4.0
1706292646.1015785,-4.0,3.0,10.0,-12.0,-40.0,-28.0,-26.0,-10.0
1706292646.1015785,9.0,11.0,7.0,12.0,18.0,27.0,13.0,3.0
1706292646.1015785,-5.0,-9.0,-12.0,-47.0,-23.0,-2.0,-12.0,-3.0
1706292646.141652,-1.0,1.0,-12.0,3.0,-1.0,1.0,4.0,-8.0
1706292646.141652,6.0,20.0,19.0,-6.0,-7.0,-6.0,-6.0,10.0
1706292646.141652,-2.0,-4.0,7.0,1.0,-5.0,16.0,-7.0,-3.0
1706292646.141652,4.0,-10.0,-18.0,-6.0,-10.0,-25.0,-46.0,-30.0
1706292646.141652,-11.0,0.0,13.0,8.0,-1.0,-35.0,25.0,3.0
1706292646.141652,8.0,-8.0,-12.0,-4.0,7.0,0.0,-11.0,2.0
1706292646.141652,-6.0,-2.0,-6.0,0.0,5.0,34.0,21.0,8.0
1706292646.141652,5.0,17.0,28.0,16.0,-5.0,-27.0,-18.0,5.0
1706292646.1620858,2.0,-7.0,-13.0,-18.0,-7.0,-27.0,-15.0,-23.0
1706292646.1620858,-9.0,-20.0,-26.0,-13.0,-1.0,1.0,-9.0,-14.0
1706292646.1620858,-1.0,-6.0,21.0,13.0,3.0,-3.0,6.0,-2.0
1706292646.1620858,1.0,-4.0,16.0,4.0,-7.0,-12.0,2.0,9.0
1706292646.18165,-4.0,2.0,-7.0,-32.0,-8.0,11.0,4.0,7.0
1706292646.18165,-3.0,7.0,-5.0,6.0,7.0,13.0,7.0,-1.0
1706292646.18165,3.0,12.0,-13.0,19.0,-4.0,-16.0,-7.0,-5.0
1706292646.18165,-9.0,-4.0,10.0,-34.0,-12.0,4.0,7.0,-2.0
1706292646.2018595,7.0,9.0,6.0,36.0,13.0,12.0,6.0,9.0
1706292646.2018595,-11.0,-25.0,-15.0,-17.0,-3.0,1.0,0.0,-2.0
1706292646.2018595,-5.0,-2.0,-9.0,-11.0,-9.0,-17.0,-6.0,-6.0
1706292646.2018595,4.0,3.0,4.0,-17.0,-7.0,7.0,3.0,5.0
1706292646.2220867,2.0,7.0,10.0,25.0,6.0,3.0,4.0,4.0
1706292646.2220867,-4.0,-3.0,-11.0,-4.0,9.0,7.0,21.0,-1.0
1706292646.2220867,-2.0,-6.0,-12.0,-8.0,-3.0,-19.0,-32.0,-6.0
1706292646.2220867,-14.0,8.0,-15.0,-7.0,-9.0,2.0,61.0,6.0
1706292646.2416499,7.0,2.0,17.0,0.0,-4.0,-72.0,-45.0,-35.0
1706292646.2416499,6.0,8.0,-6.0,1.0,7.0,23.0,-15.0,30.0
1706292646.2416499,-8.0,-6.0,5.0,-7.0,-5.0,16.0,52.0,-3.0
1706292646.2416499,-1.0,0.0,-2.0,11.0,8.0,-29.0,-25.0,7.0
1706292646.2617993,-4.0,-8.0,-6.0,-2.0,-2.0,10.0,5.0,9.0
1706292646.2617993,2.0,0.0,4.0,-6.0,-15.0,-21.0,-7.0,3.0
1706292646.2617993,-3.0,17.0,6.0,6.0,-10.0,-16.0,-7.0,-14.0
1706292646.2617993,0.0,10.0,3.0,17.0,14.0,18.0,7.0,9.0
1706292646.281964,-3.0,11.0,-10.0,-9.0,-21.0,5.0,7.0,2.0
1706292646.281964,-3.0,-8.0,13.0,0.0,5.0,-9.0,-1.0,-8.0
1706292646.281964,-6.0,-12.0,-16.0,-24.0,11.0,23.0,0.0,4.0
1706292646.281964,4.0,0.0,32.0,14.0,12.0,15.0,5.0,-5.0
1706292646.3216527,5.0,-14.0,-18.0,18.0,6.0,16.0,2.0,12.0
1706292646.3216527,-8.0,-23.0,-10.0,6.0,16.0,-1.0,-3.0,-9.0
1706292646.3216527,6.0,-13.0,-3.0,-11.0,-6.0,2.0,10.0,3.0
1706292646.3216527,-5.0,-23.0,-11.0,-11.0,-3.0,9.0,-10.0,1.0
1706292646.3216527,-5.0,-9.0,2.0,-18.0,-6.0,-21.0,-8.0,-3.0
1706292646.3216527,8.0,6.0,7.0,0.0,-5.0,16.0,27.0,1.0
1706292646.3216527,3.0,3.0,9.0,10.0,12.0,12.0,-4.0,2.0
1706292646.3216527,4.0,0.0,-10.0,-2.0,-6.0,-44.0,-53.0,-5.0
1706292646.3516493,-4.0,-11.0,7.0,2.0,3.0,26.0,52.0,1.0
1706292646.3516493,0.0,6.0,-7.0,2.0,5.0,50.0,22.0,27.0
1706292646.3516493,-7.0,-9.0,1.0,-3.0,-5.0,-21.0,43.0,-13.0
1706292646.3516493,-4.0,2.0,-2.0,6.0,1.0,16.0,-33.0,-13.0
1706292646.3619092,5.0,0.0,-3.0,-4.0,-2.0,-19.0,-14.0,19.0
1706292646.3619092,-7.0,3.0,7.0,4.0,-6.0,-30.0,-9.0,-17.0
1706292646.3619092,2.0,-2.0,-1.0,2.0,4.0,20.0,8.0,10.0
1706292646.3619092,-3.0,-1.0,-7.0,-5.0,-15.0,2.0,16.0,5.0
1706292646.381834,-4.0,-3.0,4.0,14.0,20.0,7.0,4.0,4.0
1706292646.381834,-9.0,-5.0,-14.0,-4.0,1.0,0.0,-8.0,-13.0
1706292646.381834,-3.0,3.0,-5.0,-4.0,-10.0,-17.0,-28.0,2.0
1706292646.381834,-5.0,-2.0,-15.0,-14.0,9.0,-4.0,9.0,-12.0
1706292646.4016526,-3.0,10.0,10.0,7.0,1.0,25.0,-1.0,4.0
1706292646.4016526,-5.0,-5.0,-11.0,0.0,2.0,-22.0,-8.0,-4.0
1706292646.4016526,-5.0,-12.0,-2.0,-14.0,0.0,1.0,-9.0,-5.0
1706292646.4016526,-1.0,-10.0,-17.0,22.0,0.0,11.0,16.0,9.0
1706292646.4216502,0.0,-4.0,2.0,-5.0,3.0,0.0,-1.0,-5.0
1706292646.4216502,3.0,9.0,11.0,0.0,-4.0,5.0,1.0,2.0
1706292646.4216502,4.0,5.0,6.0,0.0,0.0,-5.0,-10.0,-1.0
1706292646.4216502,0.0,2.0,-3.0,-8.0,16.0,17.0,20.0,4.0
1706292646.4418254,-5.0,-7.0,-3.0,-4.0,-19.0,-2.0,-14.0,-9.0
1706292646.4418254,3.0,5.0,4.0,1.0,-11.0,-32.0,-18.0,-13.0
1706292646.4418254,0.0,-4.0,3.0,5.0,-1.0,-1.0,4.0,10.0
1706292646.4418254,6.0,-3.0,3.0,5.0,7.0,4.0,8.0,5.0
1706292646.4617047,0.0,-1.0,1.0,-4.0,-9.0,-11.0,-8.0,-7.0
1706292646.4617047,2.0,-1.0,0.0,-5.0,0.0,-6.0,2.0,10.0
1706292646.4716496,1.0,3.0,-14.0,-15.0,-14.0,-9.0,-13.0,-6.0
1706292646.4716496,-7.0,14.0,63.0,-53.0,-43.0,-2.0,0.0,-6.0
1706292646.4816797,2.0,-5.0,-55.0,88.0,62.0,22.0,15.0,11.0
1706292646.4816797,-3.0,13.0,-4.0,-28.0,-6.0,2.0,-6.0,-9.0
1706292646.4816797,-1.0,-3.0,1.0,38.0,20.0,-4.0,-5.0,3.0
1706292646.4816797,8.0,35.0,70.0,-111.0,-83.0,-22.0,-9.0,-6.0
1706292646.5019147,-8.0,-44.0,-65.0,69.0,63.0,27.0,11.0,3.0
1706292646.5019147,-2.0,-7.0,-1.0,-17.0,-9.0,-5.0,2.0,1.0
1706292646.5019147,-11.0,-5.0,-3.0,-48.0,-9.0,4.0,-1.0,-7.0
1706292646.5019147,1.0,-18.0,-13.0,24.0,32.0,5.0,6.0,9.0
1706292646.5216486,-3.0,5.0,29.0,-73.0,-47.0,-23.0,-48.0,-21.0
1706292646.5216486,2.0,-17.0,-21.0,-2.0,-1.0,-21.0,50.0,21.0
1706292646.5216486,12.0,-2.0,-2.0,17.0,19.0,56.0,46.0,17.0
1706292646.5216486,-17.0,-11.0,-34.0,10.0,-17.0,-51.0,41.0,-20.0
1706292646.5419786,5.0,15.0,21.0,-1.0,6.0,15.0,29.0,8.0
1706292646.5419786,2.0,11.0,3.0,22.0,12.0,-15.0,-29.0,-8.0
1706292646.5419786,-3.0,3.0,14.0,-13.0,-14.0,-13.0,-17.0,-8.0
1706292646.5419786,3.0,-5.0,-17.0,34.0,12.0,-24.0,-5.0,5.0
1706292646.5618348,-1.0,-2.0,12.0,-19.0,-18.0,-5.0,2.0,1.0
1706292646.5618348,1.0,4.0,23.0,-3.0,-6.0,4.0,-3.0,-7.0
1706292646.5618348,-6.0,-4.0,-7.0,-6.0,-11.0,-39.0,-5.0,21.0
1706292646.5618348,2.0,-3.0,-11.0,31.0,28.0,39.0,-11.0,-52.0
1706292646.583335,-1.0,5.0,16.0,-13.0,-8.0,-15.0,-8.0,3.0
1706292646.583335,1.0,2.0,-1.0,-8.0,-8.0,12.0,-10.0,-2.0
1706292646.5843349,2.0,7.0,6.0,13.0,3.0,-9.0,-16.0,-3.0
1706292646.5843349,-7.0,-7.0,-28.0,9.0,17.0,15.0,-4.0,11.0
1706292646.603968,-2.0,5.0,0.0,-45.0,-24.0,1.0,5.0,-3.0
1706292646.603968,-3.0,-9.0,4.0,-4.0,-10.0,-6.0,-1.0,-6.0
1706292646.603968,-5.0,3.0,-4.0,-9.0,-11.0,-9.0,-10.0,-12.0
1706292646.603968,-2.0,9.0,29.0,21.0,23.0,13.0,-1.0,9.0
1706292646.6141827,-1.0,-5.0,-25.0,-6.0,4.0,-10.0,0.0,1.0
1706292646.6141827,-10.0,-15.0,-24.0,8.0,-2.0,2.0,-7.0,-3.0
1706292646.6141827,0.0,-1.0,-2.0,-18.0,-2.0,-1.0,-11.0,-11.0
1706292646.6141827,4.0,-5.0,-19.0,-12.0,-7.0,-2.0,12.0,15.0
1706292646.6439657,9.0,17.0,18.0,-21.0,-8.0,-5.0,17.0,16.0
1706292646.6439657,-14.0,-10.0,2.0,-10.0,0.0,5.0,-58.0,-48.0
1706292646.6439657,0.0,-2.0,10.0,2.0,-2.0,-4.0,29.0,3.0
1706292646.6439657,-3.0,-6.0,-19.0,-4.0,-4.0,-20.0,-27.0,-2.0
1706292646.6642077,2.0,-2.0,12.0,4.0,-3.0,-14.0,7.0,5.0
1706292646.6642077,4.0,2.0,-5.0,-5.0,6.0,42.0,24.0,16.0
1706292646.6642077,4.0,3.0,5.0,13.0,10.0,-5.0,-36.0,-5.0
1706292646.6642077,6.0,2.0,1.0,9.0,-4.0,-7.0,-7.0,-6.0
1706292646.674196,-8.0,-12.0,-10.0,-5.0,-8.0,-16.0,-21.0,-1.0
1706292646.674196,9.0,7.0,10.0,5.0,5.0,-8.0,10.0,10.0
1706292646.6939692,-4.0,-10.0,-11.0,6.0,4.0,-2.0,13.0,6.0
1706292646.6939692,-4.0,-4.0,5.0,-2.0,-1.0,-1.0,-28.0,4.0
1706292646.7039654,2.0,10.0,18.0,-12.0,-16.0,-2.0,-14.0,-9.0
1706292646.7039654,-2.0,-13.0,-2.0,13.0,10.0,-1.0,18.0,2.0
1706292646.7039654,-9.0,-4.0,-4.0,0.0,-2.0,-5.0,-15.0,-14.0
1706292646.7039654,-2.0,-11.0,-12.0,-7.0,-5.0,-1.0,-1.0,-2.0
1706292646.7242918,0.0,-1.0,8.0,4.0,-2.0,1.0,11.0,-4.0
1706292646.7242918,2.0,7.0,-4.0,-3.0,3.0,0.0,-9.0,8.0
1706292646.7242918,4.0,3.0,-1.0,3.0,-1.0,-2.0,11.0,-1.0
1706292646.7242918,6.0,5.0,6.0,8.0,7.0,7.0,7.0,11.0
1706292646.7342963,-1.0,-2.0,-3.0,40.0,19.0,12.0,-8.0,1.0
1706292646.7342963,1.0,5.0,4.0,-3.0,-7.0,0.0,21.0,0.0
1706292646.7539647,-2.0,-5.0,-9.0,-16.0,-2.0,-4.0,-10.0,-2.0
1706292646.7539647,1.0,-3.0,-13.0,-7.0,-7.0,-3.0,10.0,6.0
1706292646.7640402,0.0,1.0,3.0,-14.0,-3.0,-2.0,-3.0,-3.0
1706292646.7640402,-3.0,-4.0,-11.0,-4.0,5.0,1.0,2.0,-2.0
1706292646.7640402,4.0,11.0,16.0,6.0,-7.0,-5.0,0.0,-4.0
1706292646.7640402,-3.0,-8.0,-16.0,2.0,-4.0,-4.0,-11.0,2.0
1706292646.784299,1.0,0.0,-2.0,-6.0,7.0,13.0,7.0,0.0
1706292646.784299,2.0,14.0,5.0,6.0,-1.0,-8.0,-2.0,1.0
1706292646.784299,-1.0,-5.0,-6.0,-5.0,-2.0,1.0,-12.0,-1.0
1706292646.784299,1.0,9.0,13.0,7.0,2.0,0.0,2.0,0.0
1706292646.8039641,2.0,7.0,7.0,1.0,-1.0,3.0,-5.0,-1.0
1706292646.8039641,-4.0,-5.0,-3.0,-3.0,-2.0,-7.0,6.0,-5.0
1706292646.8039641,4.0,4.0,10.0,16.0,3.0,1.0,-3.0,5.0
1706292646.8039641,3.0,0.0,6.0,-31.0,-6.0,5.0,2.0,10.0
1706292646.8239708,-18.0,-15.0,-35.0,11.0,1.0,1.0,2.0,-35.0
1706292646.8239708,6.0,25.0,72.0,-9.0,-3.0,-2.0,-7.0,1.0
1706292646.8239708,-1.0,-9.0,-89.0,46.0,24.0,4.0,5.0,-2.0
1706292646.8239708,0.0,-6.0,-22.0,16.0,4.0,10.0,8.0,7.0
1706292646.8441994,3.0,12.0,11.0,-33.0,-14.0,-16.0,-13.0,5.0
1706292646.8441994,-3.0,-19.0,43.0,54.0,-2.0,-7.0,-4.0,0.0
1706292646.8441994,-8.0,-20.0,-36.0,-22.0,-4.0,-3.0,3.0,-7.0
1706292646.8441994,-2.0,0.0,4.0,-6.0,3.0,5.0,-1.0,-3.0
1706292646.8739653,-2.0,3.0,-1.0,-21.0,-9.0,2.0,16.0,0.0
1706292646.8739653,3.0,6.0,-13.0,-12.0,-1.0,-14.0,-60.0,3.0
1706292646.8739653,-7.0,-4.0,26.0,-1.0,-6.0,8.0,82.0,13.0
1706292646.8739653,4.0,3.0,-7.0,-4.0,2.0,2.0,-18.0,0.0
1706292646.8839707,-7.0,-9.0,4.0,-6.0,-4.0,-13.0,-9.0,0.0
1706292646.8839707,-4.0,-8.0,-13.0,2.0,6.0,11.0,35.0,-3.0
1706292646.8839707,3.0,5.0,17.0,-5.0,-6.0,8.0,-19.0,-4.0
1706292646.8839707,-1.0,2.0,3.0,1.0,-3.0,-6.0,5.0,-7.0
1706292646.9139678,0.0,1.0,8.0,5.0,-1.0,5.0,14.0,4.0
1706292646.9139678,-3.0,-5.0,-28.0,-6.0,-2.0,-12.0,3.0,-10.0
1706292646.9239652,-1.0,0.0,11.0,-12.0,-2.0,-14.0,-27.0,-5.0
1706292646.9239652,-4.0,-2.0,11.0,18.0,4.0,6.0,13.0,-4.0
1706292646.9239652,-7.0,-12.0,-14.0,1.0,7.0,-2.0,-34.0,-5.0
1706292646.9239652,-2.0,3.0,-15.0,-20.0,-12.0,-2.0,-3.0,-1.0
1706292646.9239652,-1.0,-1.0,14.0,-16.0,-4.0,5.0,-6.0,-1.0
1706292646.9239652,4.0,14.0,0.0,7.0,-6.0,-5.0,-20.0,0.0
1706292646.9441528,5.0,7.0,12.0,-5.0,-4.0,-5.0,6.0,5.0
1706292646.9441528,-1.0,0.0,-23.0,-3.0,0.0,2.0,3.0,1.0
1706292646.9441528,-4.0,-7.0,-5.0,4.0,1.0,0.0,-3.0,-1.0
1706292646.9441528,1.0,3.0,9.0,8.0,-3.0,-9.0,-1.0,-3.0
1706292646.9642315,1.0,0.0,-2.0,-5.0,-3.0,7.0,2.0,3.0
1706292646.9642315,-7.0,-2.0,-3.0,-14.0,-7.0,-4.0,2.0,-5.0
1706292646.9642315,3.0,5.0,15.0,-7.0,-3.0,-1.0,-22.0,-6.0
1706292646.9642315,2.0,5.0,-6.0,-3.0,-5.0,-7.0,-4.0,0.0
1706292646.9939997,-14.0,-18.0,-9.0,11.0,19.0,18.0,9.0,-1.0
1706292646.9939997,1.0,2.0,4.0,-2.0,-2.0,0.0,-8.0,1.0
1706292646.9939997,-1.0,-4.0,-8.0,2.0,7.0,2.0,0.0,-2.0
1706292646.9939997,-3.0,-6.0,0.0,-4.0,-16.0,-17.0,-9.0,-5.0
1706292647.0041833,3.0,2.0,3.0,-7.0,-14.0,-6.0,-4.0,-2.0
1706292647.0041833,-1.0,-6.0,-4.0,5.0,-1.0,-5.0,-2.0,-1.0
1706292647.0041833,0.0,-2.0,-9.0,-4.0,0.0,3.0,5.0,-1.0
1706292647.0041833,-1.0,1.0,6.0,-4.0,5.0,0.0,-4.0,1.0
1706292647.0239666,4.0,1.0,1.0,3.0,-3.0,-6.0,-6.0,2.0
1706292647.0239666,-3.0,-7.0,-8.0,-6.0,-3.0,-6.0,-2.0,1.0
1706292647.0239666,4.0,3.0,7.0,-4.0,-6.0,-4.0,-3.0,2.0
1706292647.0239666,-6.0,6.0,8.0,-11.0,1.0,2.0,-2.0,-2.0
1706292647.0442436,-5.0,0.0,20.0,14.0,2.0,-2.0,0.0,-3.0
1706292647.0442436,-11.0,-19.0,-48.0,-15.0,-7.0,-5.0,-3.0,-4.0
1706292647.0442436,6.0,10.0,19.0,22.0,1.0,-6.0,-3.0,2.0
1706292647.0442436,-10.0,-13.0,-29.0,-17.0,4.0,3.0,2.0,-7.0
1706292647.0641384,1.0,-3.0,0.0,-29.0,-8.0,-5.0,-4.0,-1.0
1706292647.0641384,4.0,5.0,18.0,0.0,-9.0,-2.0,9.0,2.0
1706292647.0641384,-4.0,4.0,11.0,3.0,5.0,9.0,-8.0,-5.0
1706292647.0641384,-3.0,-6.0,-7.0,0.0,2.0,3.0,17.0,0.0
1706292647.093963,-2.0,0.0,-7.0,1.0,-1.0,-11.0,-23.0,7.0
1706292647.093963,4.0,7.0,8.0,-3.0,0.0,-23.0,-6.0,-19.0
1706292647.093963,-8.0,-11.0,-11.0,-10.0,-10.0,13.0,89.0,40.0
1706292647.093963,-1.0,-2.0,-1.0,8.0,9.0,10.0,-21.0,-39.0
1706292647.110097,1.0,4.0,1.0,6.0,1.0,-36.0,-27.0,-21.0
1706292647.110097,3.0,5.0,2.0,2.0,2.0,28.0,-28.0,-13.0
1706292647.110097,2.0,2.0,2.0,-1.0,0.0,-3.0,-12.0,-13.0
1706292647.110097,-4.0,-3.0,3.0,2.0,-2.0,10.0,26.0,13.0
1706292647.124191,11.0,1.0,-1.0,3.0,0.0,5.0,18.0,45.0
1706292647.124191,-11.0,0.0,-3.0,-2.0,-2.0,-8.0,42.0,-21.0
1706292647.124191,3.0,-3.0,3.0,4.0,0.0,-13.0,-53.0,6.0
1706292647.124191,0.0,-2.0,1.0,4.0,5.0,2.0,-9.0,12.0
1706292647.1468246,1.0,5.0,2.0,-1.0,-6.0,14.0,-1.0,-31.0
1706292647.1468246,-6.0,-10.0,-5.0,2.0,6.0,-7.0,5.0,19.0
1706292647.1468246,1.0,-1.0,3.0,-1.0,-2.0,0.0,-8.0,-10.0
1706292647.1468246,0.0,-6.0,-10.0,-5.0,-9.0,-13.0,7.0,5.0
1706292647.167127,-1.0,3.0,0.0,4.0,5.0,-6.0,10.0,9.0
1706292647.167127,5.0,4.0,2.0,-6.0,-3.0,-39.0,-16.0,2.0
1706292647.167127,-5.0,0.0,1.0,-6.0,1.0,73.0,-12.0,-14.0
1706292647.167127,4.0,0.0,-1.0,0.0,-4.0,-12.0,-8.0,4.0
1706292647.1868331,-1.0,4.0,12.0,-24.0,-12.0,-4.0,7.0,-3.0
1706292647.1868331,-2.0,-7.0,-19.0,33.0,15.0,7.0,-16.0,1.0
1706292647.1968334,3.0,1.0,-8.0,-2.0,-3.0,-17.0,-10.0,-3.0
1706292647.1968334,2.0,3.0,6.0,-4.0,-5.0,-31.0,-17.0,9.0
1706292647.2068248,-2.0,-4.0,-10.0,1.0,0.0,33.0,17.0,-4.0
1706292647.2068248,4.0,7.0,22.0,-6.0,6.0,26.0,10.0,26.0
1706292647.2068248,-5.0,-2.0,0.0,-2.0,-5.0,-64.0,17.0,1.0
1706292647.2068248,-6.0,-3.0,-8.0,8.0,3.0,91.0,-2.0,-7.0
1706292647.2271965,0.0,1.0,5.0,1.0,2.0,3.0,-51.0,-37.0
1706292647.2271965,3.0,5.0,-1.0,-9.0,-9.0,-15.0,14.0,14.0
1706292647.2271965,-2.0,-3.0,-10.0,-1.0,6.0,5.0,-36.0,5.0
1706292647.2271965,2.0,-3.0,4.0,-5.0,-2.0,-11.0,12.0,3.0
1706292647.2468252,-2.0,-3.0,-11.0,2.0,-5.0,-10.0,-14.0,10.0
1706292647.2468252,1.0,2.0,1.0,1.0,4.0,16.0,-3.0,-4.0
1706292647.2468252,1.0,1.0,0.0,-4.0,-3.0,-4.0,4.0,-6.0
1706292647.2468252,1.0,1.0,3.0,-6.0,-7.0,-21.0,-2.0,0.0
1706292647.267089,-3.0,-3.0,-3.0,-3.0,2.0,5.0,14.0,12.0
1706292647.267089,-1.0,-3.0,0.0,9.0,1.0,2.0,-1.0,-1.0
1706292647.267089,-1.0,2.0,6.0,-9.0,-8.0,-9.0,8.0,-6.0
1706292647.267089,0.0,5.0,8.0,-30.0,-17.0,-21.0,-15.0,1.0
1706292647.2872648,-1.0,-8.0,-17.0,38.0,22.0,8.0,18.0,8.0
1706292647.2872648,-1.0,0.0,4.0,-5.0,-5.0,10.0,5.0,-8.0
1706292647.2872648,-1.0,-7.0,-20.0,-3.0,0.0,-6.0,-12.0,-7.0
1706292647.2872648,1.0,2.0,9.0,-9.0,-1.0,-3.0,-7.0,-2.0
1706292647.3068268,0.0,-1.0,-2.0,-4.0,-2.0,-7.0,13.0,0.0
1706292647.3068268,1.0,0.0,0.0,-2.0,-3.0,-1.0,-2.0,-2.0
1706292647.3068268,-2.0,2.0,9.0,-11.0,2.0,14.0,33.0,-4.0
1706292647.3068268,0.0,0.0,-8.0,0.0,-4.0,-20.0,16.0,0.0
1706292647.3272414,-3.0,5.0,6.0,2.0,-2.0,0.0,-9.0,0.0
1706292647.3272414,-1.0,-14.0,-2.0,5.0,-3.0,-7.0,11.0,-7.0
1706292647.3272414,0.0,1.0,5.0,-3.0,-2.0,-4.0,0.0,-7.0
1706292647.3272414,-2.0,-4.0,-8.0,2.0,3.0,7.0,9.0,-3.0
1706292647.3472188,0.0,3.0,7.0,10.0,3.0,13.0,12.0,3.0
1706292647.3472188,1.0,5.0,-1.0,-19.0,-9.0,-37.0,-45.0,-4.0
1706292647.3472188,-1.0,-2.0,-13.0,6.0,7.0,62.0,21.0,7.0
1706292647.3472188,-2.0,-5.0,-3.0,6.0,-1.0,5.0,-9.0,-9.0
1706292647.357143,-1.0,0.0,-8.0,-10.0,1.0,-21.0,-7.0,-1.0
1706292647.357143,-4.0,-5.0,4.0,-11.0,-2.0,0.0,0.0,-6.0
1706292647.376824,-1.0,-6.0,3.0,18.0,-2.0,-34.0,-7.0,0.0
1706292647.376824,-6.0,-5.0,7.0,32.0,13.0,5.0,-1.0,0.0
1706292647.3870764,1.0,1.0,1.0,-19.0,-16.0,3.0,1.0,0.0
1706292647.3870764,-3.0,1.0,-9.0,-3.0,1.0,-7.0,2.0,-3.0
1706292647.3870764,3.0,5.0,14.0,0.0,8.0,-11.0,-26.0,-4.0
1706292647.3870764,0.0,-3.0,-20.0,7.0,-5.0,5.0,11.0,3.0
1706292647.416829,0.0,-8.0,-25.0,-2.0,0.0,-19.0,-6.0,-1.0
1706292647.416829,-3.0,1.0,1.0,-3.0,-7.0,9.0,6.0,-1.0
1706292647.4268324,-1.0,-1.0,12.0,-10.0,2.0,-3.0,-11.0,-1.0
1706292647.4268324,0.0,1.0,2.0,-2.0,0.0,-5.0,-9.0,0.0
1706292647.436824,-3.0,-2.0,16.0,-5.0,-6.0,7.0,4.0,0.0
1706292647.436824,-3.0,-4.0,-19.0,4.0,2.0,11.0,5.0,4.0
1706292647.436824,-2.0,0.0,-2.0,-9.0,-9.0,-4.0,-5.0,0.0
1706292647.436824,-1.0,-1.0,6.0,10.0,8.0,-8.0,5.0,-2.0
1706292647.4470906,0.0,-1.0,1.0,-5.0,-7.0,-4.0,-5.0,-4.0
1706292647.4470906,1.0,3.0,3.0,-5.0,1.0,6.0,4.0,0.0
1706292647.4470906,-2.0,-2.0,2.0,8.0,-2.0,-22.0,-10.0,-4.0
1706292647.4470906,-3.0,-1.0,-6.0,-9.0,-3.0,1.0,-2.0,0.0
1706292647.4671335,-1.0,-6.0,-4.0,-4.0,-1.0,5.0,-8.0,2.0
1706292647.4671335,-2.0,-3.0,6.0,9.0,5.0,16.0,-3.0,2.0
1706292647.476825,-2.0,1.0,-9.0,-4.0,-6.0,-37.0,0.0,-2.0
1706292647.476825,-1.0,0.0,-1.0,2.0,8.0,31.0,0.0,1.0
1706292647.476825,-2.0,-3.0,-2.0,-2.0,1.0,-7.0,7.0,-4.0
1706292647.476825,1.0,-2.0,-2.0,-6.0,-3.0,-11.0,1.0,-2.0
1706292647.4871922,0.0,-2.0,-7.0,-2.0,-9.0,-7.0,-10.0,-4.0
1706292647.4871922,-1.0,1.0,7.0,-2.0,-4.0,-9.0,2.0,-3.0
1706292647.5072165,2.0,5.0,1.0,-34.0,-5.0,-2.0,1.0,2.0
1706292647.5072165,1.0,11.0,36.0,40.0,20.0,16.0,3.0,3.0
1706292647.5072165,-3.0,-18.0,-31.0,26.0,11.0,7.0,2.0,-2.0
1706292647.5072165,-2.0,-2.0,0.0,-6.0,-7.0,-12.0,-10.0,-3.0
1706292647.526838,-2.0,1.0,-11.0,-16.0,-13.0,-3.0,-1.0,-2.0
1706292647.526838,-1.0,-1.0,-8.0,-15.0,-8.0,3.0,-3.0,-1.0
1706292647.526838,3.0,9.0,11.0,-4.0,4.0,9.0,4.0,2.0
1706292647.526838,-2.0,-1.0,26.0,10.0,7.0,-9.0,-1.0,-2.0
1706292647.5468237,-4.0,-4.0,-14.0,10.0,2.0,-8.0,-4.0,-3.0
1706292647.5468237,2.0,1.0,4.0,-24.0,-12.0,-4.0,1.0,-1.0
1706292647.5468237,-2.0,1.0,5.0,-5.0,-3.0,4.0,1.0,-1.0
1706292647.5468237,0.0,-10.0,-25.0,-20.0,-13.0,-11.0,-8.0,-2.0
1706292647.5669386,-1.0,1.0,23.0,20.0,10.0,4.0,5.0,-2.0
1706292647.5669386,-1.0,0.0,4.0,-2.0,-5.0,-2.0,-2.0,-2.0
1706292647.5669386,0.0,-2.0,-12.0,-3.0,-7.0,-1.0,-3.0,-2.0
1706292647.5669386,0.0,5.0,9.0,-4.0,-6.0,-7.0,-19.0,-2.0
1706292647.5968244,0.0,-1.0,5.0,5.0,0.0,-7.0,11.0,-1.0
1706292647.5968244,0.0,-1.0,-3.0,2.0,5.0,11.0,5.0,2.0
1706292647.5968244,-2.0,4.0,14.0,3.0,1.0,10.0,-1.0,1.0
1706292647.5968244,0.0,2.0,-13.0,-3.0,0.0,-2.0,-1.0,-2.0
1706292647.5968244,-1.0,-11.0,2.0,-3.0,-10.0,-15.0,-19.0,-1.0
1706292647.5968244,-3.0,-1.0,-14.0,3.0,15.0,-7.0,16.0,0.0
1706292647.607161,0.0,-3.0,-13.0,-2.0,-5.0,3.0,-1.0,-2.0
1706292647.607161,2.0,10.0,31.0,9.0,11.0,20.0,10.0,3.0
1706292647.6272354,-3.0,1.0,-3.0,4.0,8.0,2.0,-1.0,-1.0
1706292647.6272354,1.0,-9.0,-23.0,-6.0,-4.0,-8.0,-11.0,1.0
1706292647.6272354,-2.0,4.0,29.0,5.0,0.0,-3.0,-4.0,-5.0
1706292647.6272354,-3.0,-12.0,-43.0,-9.0,-4.0,-5.0,2.0,-4.0
1706292647.6506023,-1.0,2.0,3.0,0.0,-3.0,-5.0,-3.0,-3.0
1706292647.6506023,0.0,-3.0,-8.0,-4.0,-1.0,5.0,-5.0,-2.0
1706292647.6526039,1.0,-1.0,-20.0,-1.0,-2.0,0.0,6.0,1.0
1706292647.6526039,0.0,-2.0,8.0,-2.0,-5.0,-8.0,-4.0,-2.0
1706292647.671496,-1.0,-8.0,-7.0,0.0,1.0,5.0,7.0,-2.0
1706292647.671496,-3.0,7.0,27.0,-17.0,-16.0,0.0,-2.0,-4.0
1706292647.671496,1.0,-3.0,-3.0,-4.0,-2.0,-5.0,-3.0,-2.0
1706292647.671496,-8.0,-1.0,-2.0,-1.0,-1.0,-21.0,10.0,-1.0
1706292647.6818829,-2.0,-1.0,-11.0,0.0,-2.0,30.0,-5.0,-2.0
1706292647.6818829,-1.0,-7.0,-15.0,7.0,0.0,-5.0,-8.0,0.0
1706292647.6818829,0.0,-9.0,-42.0,0.0,9.0,-54.0,-1.0,0.0
1706292647.6818829,2.0,3.0,-37.0,-7.0,-12.0,12.0,-2.0,-1.0
1706292647.701499,-3.0,-2.0,44.0,-7.0,-5.0,-3.0,2.0,-4.0
1706292647.701499,-1.0,2.0,-10.0,-4.0,-3.0,-13.0,17.0,-3.0
1706292647.7115538,0.0,-3.0,16.0,2.0,-10.0,43.0,-3.0,4.0
1706292647.7115538,2.0,3.0,4.0,-3.0,5.0,-30.0,-6.0,-3.0
1706292647.72182,5.0,3.0,-38.0,22.0,4.0,-6.0,-2.0,3.0
1706292647.72182,5.0,12.0,21.0,11.0,15.0,-4.0,-7.0,2.0
1706292647.7317789,-2.0,5.0,53.0,6.0,-6.0,-25.0,-2.0,-3.0
1706292647.7317789,1.0,-6.0,-2.0,-7.0,-2.0,3.0,-7.0,-4.0
1706292647.741791,-4.0,4.0,14.0,-22.0,-12.0,6.0,3.0,0.0
1706292647.741791,-4.0,-13.0,-22.0,20.0,3.0,0.0,-5.0,1.0
1706292647.7517657,-3.0,-7.0,-3.0,1.0,9.0,17.0,6.0,-1.0
1706292647.7517657,1.0,4.0,37.0,5.0,0.0,8.0,-1.0,3.0
1706292647.781856,-7.0,-2.0,-41.0,-11.0,0.0,-8.0,-4.0,-1.0
1706292647.781856,16.0,2.0,-6.0,-9.0,-7.0,0.0,-3.0,-1.0
1706292647.7918465,-7.0,-1.0,7.0,-7.0,-4.0,6.0,-5.0,-3.0
1706292647.7918465,-11.0,-7.0,3.0,-2.0,-5.0,1.0,1.0,0.0
1706292647.7918465,5.0,-2.0,-11.0,0.0,5.0,-7.0,1.0,-1.0
1706292647.7918465,-6.0,-2.0,-3.0,5.0,3.0,1.0,-3.0,-1.0
1706292647.7918465,3.0,15.0,28.0,-2.0,-10.0,2.0,0.0,-1.0
1706292647.7918465,0.0,-7.0,-25.0,-1.0,2.0,1.0,3.0,2.0
1706292647.8018422,-4.0,-5.0,16.0,1.0,-3.0,-1.0,-1.0,0.0
1706292647.8018422,0.0,0.0,12.0,-5.0,-24.0,-4.0,-5.0,-2.0
1706292647.8018422,-2.0,-9.0,-51.0,-25.0,17.0,13.0,5.0,1.0
1706292647.8018422,3.0,9.0,7.0,27.0,20.0,9.0,4.0,2.0
1706292647.8223276,3.0,6.0,29.0,4.0,3.0,-2.0,0.0,3.0
1706292647.8223276,-4.0,0.0,16.0,6.0,5.0,13.0,0.0,-2.0
1706292647.8223276,-3.0,5.0,45.0,3.0,-9.0,-15.0,-3.0,-1.0
1706292647.8223276,-5.0,-17.0,-63.0,-38.0,-15.0,-5.0,-2.0,0.0
1706292647.8426356,3.0,11.0,33.0,42.0,-5.0,-6.0,-3.0,0.0
1706292647.8426356,-3.0,-15.0,-20.0,-24.0,8.0,1.0,-2.0,1.0
1706292647.8523405,-1.0,0.0,-9.0,14.0,6.0,3.0,-10.0,0.0
1706292647.8523405,-2.0,-6.0,10.0,-1.0,-6.0,-30.0,-17.0,-9.0
1706292647.8623412,4.0,-4.0,-5.0,-11.0,-7.0,41.0,43.0,10.0
1706292647.8623412,-1.0,-1.0,-3.0,-7.0,-7.0,-16.0,-6.0,-1.0
1706292647.8623412,1.0,3.0,5.0,6.0,4.0,-8.0,32.0,3.0
1706292647.8623412,0.0,-2.0,-3.0,-6.0,-14.0,28.0,-26.0,7.0
1706292647.8826587,-6.0,-2.0,-19.0,-11.0,1.0,-17.0,-13.0,-17.0
1706292647.8826587,-4.0,3.0,7.0,5.0,2.0,11.0,1.0,-1.0
1706292647.8923447,3.0,-4.0,-18.0,-10.0,-6.0,-22.0,-5.0,4.0
1706292647.8923447,-2.0,3.0,11.0,3.0,-6.0,-9.0,4.0,-7.0
1706292647.9026198,-2.0,-3.0,-10.0,-4.0,2.0,4.0,-2.0,4.0
1706292647.9026198,0.0,0.0,3.0,5.0,9.0,6.0,11.0,4.0
1706292647.9123442,-4.0,-5.0,-11.0,-9.0,-5.0,-10.0,-18.0,-9.0
1706292647.9123442,3.0,1.0,3.0,1.0,-23.0,2.0,8.0,2.0
1706292647.9423428,-5.0,-4.0,-3.0,-6.0,16.0,5.0,-3.0,-1.0
1706292647.9423428,1.0,6.0,-14.0,-18.0,-4.0,-17.0,-8.0,-2.0
1706292647.9423428,0.0,-13.0,3.0,23.0,-10.0,9.0,0.0,1.0
1706292647.9423428,-1.0,6.0,29.0,43.0,18.0,9.0,6.0,-1.0
1706292647.9423428,2.0,2.0,-14.0,-2.0,15.0,-4.0,-2.0,-1.0
1706292647.9423428,-9.0,1.0,-1.0,-21.0,-25.0,-10.0,-11.0,-10.0
1706292647.9523387,-5.0,-5.0,-11.0,-25.0,-4.0,4.0,-4.0,1.0
1706292647.9523387,2.0,3.0,10.0,2.0,1.0,-4.0,8.0,0.0
1706292647.9723895,-3.0,-8.0,9.0,-2.0,-16.0,-8.0,-10.0,-2.0
1706292647.9723895,-1.0,2.0,-6.0,10.0,3.0,6.0,0.0,2.0
1706292647.9723895,-2.0,3.0,0.0,-9.0,3.0,4.0,-3.0,-4.0
1706292647.9723895,-2.0,-6.0,-11.0,-13.0,-10.0,-13.0,-2.0,0.0
1706292647.9823415,-1.0,5.0,3.0,7.0,11.0,-6.0,-14.0,2.0
1706292647.9823415,2.0,-1.0,6.0,8.0,10.0,10.0,10.0,6.0
1706292647.9923725,2.0,0.0,-4.0,5.0,6.0,22.0,7.0,0.0
1706292647.9923725,-4.0,2.0,10.0,-6.0,6.0,-1.0,-3.0,-5.0
1706292648.0123477,-3.0,-3.0,-37.0,-13.0,-14.0,-22.0,-24.0,-6.0
1706292648.0123477,-2.0,-7.0,3.0,0.0,-3.0,0.0,31.0,-4.0
1706292648.0123477,2.0,3.0,-3.0,-6.0,-17.0,-13.0,-3.0,6.0
1706292648.0123477,-3.0,-1.0,-6.0,-9.0,9.0,2.0,-2.0,0.0
1706292648.0323412,0.0,1.0,27.0,12.0,6.0,14.0,11.0,0.0
1706292648.0323412,-1.0,-9.0,-6.0,7.0,7.0,-12.0,-20.0,0.0
1706292648.0323412,-1.0,-1.0,-38.0,-9.0,0.0,-5.0,-7.0,-3.0
1706292648.0323412,1.0,0.0,3.0,-3.0,2.0,10.0,12.0,-1.0
1706292648.042339,-2.0,-3.0,3.0,3.0,12.0,-15.0,-8.0,-3.0
1706292648.042339,-2.0,1.0,4.0,-1.0,-10.0,1.0,-1.0,-4.0
1706292648.0525577,0.0,4.0,4.0,-7.0,-10.0,-9.0,-7.0,-3.0
1706292648.0525577,-3.0,-2.0,6.0,-7.0,-12.0,11.0,-2.0,-3.0
1706292648.0626607,3.0,0.0,-8.0,14.0,17.0,4.0,5.0,4.0
1706292648.0626607,0.0,2.0,0.0,7.0,6.0,1.0,-18.0,3.0
1706292648.0626607,1.0,10.0,47.0,14.0,16.0,2.0,16.0,-3.0
1706292648.0626607,0.0,-5.0,-49.0,-20.0,-15.0,-32.0,-12.0,3.0
1706292648.0923393,-3.0,-8.0,-25.0,-12.0,-16.0,27.0,36.0,-5.0
1706292648.0923393,-2.0,-9.0,-13.0,4.0,5.0,15.0,2.0,-2.0
1706292648.0923393,-1.0,0.0,-6.0,-3.0,1.0,-8.0,-30.0,-2.0
1706292648.0923393,2.0,5.0,21.0,11.0,12.0,-6.0,5.0,0.0
1706292648.1025999,2.0,1.0,2.0,-9.0,-12.0,2.0,2.0,22.0
1706292648.1025999,-1.0,0.0,-12.0,-9.0,-13.0,-10.0,-9.0,-33.0
1706292648.112609,-4.0,0.0,14.0,14.0,17.0,11.0,-8.0,-2.0
1706292648.112609,-1.0,3.0,29.0,6.0,3.0,15.0,36.0,4.0
1706292648.122651,-2.0,-4.0,-38.0,-5.0,-6.0,-18.0,-38.0,-1.0
1706292648.122651,-1.0,-6.0,-2.0,-5.0,1.0,3.0,3.0,5.0
1706292648.1323445,0.0,-1.0,-1.0,-9.0,-16.0,-10.0,4.0,-2.0
1706292648.1323445,-1.0,0.0,5.0,6.0,7.0,1.0,-7.0,-4.0
1706292648.1693988,1.0,-2.0,-19.0,-6.0,-2.0,-3.0,-12.0,-4.0
1706292648.1693988,0.0,3.0,6.0,2.0,0.0,12.0,13.0,6.0
1706292648.1693988,-3.0,-2.0,-17.0,1.0,-5.0,8.0,10.0,-5.0
1706292648.1693988,1.0,-2.0,12.0,4.0,3.0,-6.0,-10.0,3.0
1706292648.1703987,3.0,0.0,-5.0,5.0,11.0,0.0,-3.0,-3.0
1706292648.1703987,1.0,4.0,6.0,-2.0,-3.0,-11.0,-4.0,1.0
1706292648.1733987,-4.0,-7.0,-12.0,-5.0,-6.0,0.0,-1.0,2.0
1706292648.1733987,2.0,7.0,38.0,-6.0,-6.0,0.0,-5.0,-5.0
1706292648.1858525,0.0,4.0,38.0,0.0,-12.0,-13.0,0.0,-7.0
1706292648.1858525,-9.0,-11.0,-43.0,-8.0,3.0,10.0,3.0,-1.0
1706292648.1858525,0.0,-3.0,-30.0,-1.0,-1.0,2.0,30.0,6.0
1706292648.1858525,-1.0,4.0,4.0,2.0,5.0,-2.0,-26.0,-5.0
1706292648.2058551,-3.0,-6.0,2.0,-10.0,-3.0,-2.0,10.0,-5.0
1706292648.2058551,3.0,-1.0,10.0,-5.0,-15.0,-21.0,-12.0,5.0
1706292648.2058551,6.0,2.0,13.0,2.0,1.0,3.0,-3.0,-1.0
1706292648.2058551,-15.0,-7.0,-31.0,4.0,16.0,8.0,10.0,1.0
1706292648.226187,-2.0,5.0,16.0,2.0,-4.0,1.0,3.0,-3.0
1706292648.226187,15.0,7.0,-2.0,5.0,7.0,3.0,1.0,4.0
1706292648.226187,-16.0,-8.0,0.0,-9.0,-14.0,-11.0,-13.0,-3.0
1706292648.226187,14.0,0.0,-18.0,-32.0,13.0,5.0,5.0,1.0
1706292648.2558537,-6.0,-4.0,5.0,38.0,-11.0,-7.0,-8.0,-5.0
1706292648.2558537,7.0,1.0,5.0,16.0,9.0,0.0,2.0,3.0
1706292648.2558537,-5.0,8.0,3.0,2.0,6.0,6.0,-1.0,-3.0
1706292648.2558537,5.0,17.0,-6.0,-3.0,-3.0,-8.0,-5.0,-2.0
1706292648.2660549,-14.0,-39.0,-19.0,-31.0,-24.0,-16.0,-1.0,-5.0
1706292648.2660549,4.0,6.0,28.0,1.0,0.0,7.0,-2.0,2.0
1706292648.2660549,6.0,-3.0,-19.0,2.0,-4.0,-5.0,-4.0,2.0
1706292648.2660549,-6.0,-3.0,0.0,2.0,6.0,4.0,1.0,-3.0
1706292648.2861397,8.0,13.0,0.0,-1.0,7.0,-9.0,-15.0,1.0
1706292648.2861397,-7.0,3.0,44.0,-2.0,-12.0,14.0,17.0,0.0
1706292648.2861397,0.0,1.0,-31.0,-11.0,-5.0,-4.0,-9.0,-1.0
1706292648.2861397,-1.0,-4.0,-53.0,7.0,1.0,4.0,8.0,0.0
1706292648.3158586,3.0,6.0,23.0,10.0,21.0,3.0,-3.0,0.0
1706292648.3158586,-10.0,-12.0,-10.0,-8.0,-9.0,-14.0,-11.0,-3.0
1706292648.3158586,-4.0,3.0,14.0,-13.0,-13.0,-9.0,-8.0,-11.0
1706292648.3158586,2.0,-13.0,1.0,0.0,-16.0,0.0,8.0,16.0
1706292648.3458517,4.0,13.0,31.0,18.0,12.0,7.0,11.0,3.0
1706292648.3458517,-2.0,-2.0,-64.0,-10.0,35.0,12.0,-1.0,5.0
1706292648.3458517,9.0,-8.0,-1.0,-6.0,-4.0,-1.0,3.0,3.0
1706292648.3458517,-13.0,-8.0,-2.0,-3.0,15.0,3.0,-5.0,-13.0
1706292648.3458517,1.0,-8.0,-6.0,-9.0,-21.0,-6.0,7.0,19.0
1706292648.3458517,-10.0,-5.0,-11.0,-16.0,-21.0,-12.0,-3.0,-4.0
1706292648.3458517,2.0,15.0,59.0,46.0,17.0,-4.0,-10.0,-6.0
1706292648.3458517,-3.0,-13.0,-41.0,-4.0,2.0,-10.0,-17.0,-4.0
1706292648.3758554,2.0,6.0,33.0,-3.0,7.0,8.0,28.0,15.0
1706292648.3758554,-2.0,2.0,51.0,-3.0,-14.0,17.0,-19.0,-23.0
1706292648.3758554,-4.0,-21.0,-96.0,-36.0,-17.0,1.0,33.0,0.0
1706292648.3858523,2.0,4.0,16.0,6.0,-2.0,3.0,-1.0,-4.0
1706292648.3858523,-1.0,-3.0,-15.0,2.0,10.0,-1.0,-4.0,-2.0
1706292648.3858523,-2.0,4.0,2.0,2.0,-8.0,-21.0,-10.0,4.0
1706292648.3858523,-2.0,2.0,43.0,2.0,2.0,2.0,-8.0,-3.0
1706292648.3858523,1.0,-2.0,-14.0,3.0,-11.0,-6.0,1.0,1.0
1706292648.4062414,-4.0,-10.0,-65.0,-19.0,-17.0,-5.0,-5.0,-10.0
1706292648.4062414,-1.0,3.0,24.0,11.0,24.0,5.0,6.0,3.0
1706292648.4062414,1.0,4.0,10.0,11.0,13.0,9.0,-5.0,-1.0
1706292648.4062414,15.0,15.0,5.0,1.0,-7.0,-7.0,0.0,0.0
1706292648.4358525,-26.0,-13.0,-10.0,-8.0,-3.0,12.0,-7.0,-9.0
1706292648.4358525,-2.0,-7.0,36.0,21.0,4.0,-1.0,4.0,-2.0
1706292648.4358525,1.0,-19.0,-79.0,-27.0,-5.0,-11.0,-9.0,3.0
1706292648.4358525,0.0,7.0,38.0,-4.0,-35.0,-13.0,-3.0,-5.0
1706292648.446181,14.0,20.0,3.0,16.0,29.0,29.0,7.0,-2.0
1706292648.446181,-25.0,-23.0,-12.0,-6.0,23.0,0.0,7.0,7.0
1706292648.4561775,12.0,8.0,25.0,12.0,7.0,-3.0,-6.0,7.0
1706292648.4561775,-2.0,-8.0,9.0,-19.0,-11.0,-24.0,3.0,27.0
1706292648.4661722,-8.0,5.0,24.0,0.0,-20.0,15.0,2.0,-24.0
1706292648.4661722,17.0,15.0,-10.0,3.0,-13.0,-12.0,-2.0,-19.0
1706292648.4758773,-7.0,0.0,-12.0,-9.0,-5.0,-7.0,4.0,-2.0
1706292648.4758773,-4.0,-13.0,16.0,8.0,13.0,14.0,11.0,-10.0
