1706292314.1991606,1.0,-3.0,-2.0,-5.0,0.0,-7.0,-12.0,3.0
1706292314.1991606,0.0,-1.0,-2.0,3.0,-3.0,-13.0,50.0,0.0
1706292314.20916,-2.0,-4.0,1.0,-3.0,5.0,34.0,-22.0,-3.0
1706292314.20916,0.0,5.0,-1.0,-2.0,-1.0,-13.0,-39.0,-2.0
1706292314.2291691,-4.0,-4.0,-5.0,-3.0,-15.0,-9.0,1.0,-1.0
1706292314.2291691,0.0,3.0,3.0,-9.0,-4.0,-5.0,3.0,2.0
1706292314.2291691,1.0,3.0,1.0,7.0,3.0,-7.0,17.0,1.0
1706292314.2291691,0.0,2.0,-2.0,1.0,11.0,0.0,-5.0,-1.0
1706292314.2526982,-2.0,0.0,0.0,1.0,-1.0,6.0,-6.0,-5.0
1706292314.2526982,1.0,-1.0,6.0,-4.0,0.0,-1.0,-14.0,-2.0
1706292314.2536929,-1.0,-2.0,-2.0,-5.0,-2.0,-5.0,7.0,-2.0
1706292314.2536929,1.0,3.0,-2.0,1.0,-2.0,4.0,-9.0,-2.0
1706292314.2686977,-3.0,-4.0,-5.0,-9.0,-8.0,-11.0,0.0,-3.0
1706292314.2686977,0.0,1.0,-1.0,0.0,-2.0,4.0,-4.0,-2.0
1706292314.2806916,-1.0,-1.0,-1.0,-9.0,-6.0,-2.0,1.0,-3.0
1706292314.2806916,0.0,2.0,2.0,10.0,6.0,1.0,6.0,1.0
1706292314.289728,-1.0,1.0,-1.0,0.0,15.0,-7.0,-10.0,1.0
1706292314.289728,0.0,-2.0,3.0,1.0,-6.0,25.0,14.0,-4.0
1706292314.2917275,2.0,3.0,-1.0,-1.0,6.0,-32.0,-52.0,-1.0
1706292314.2917275,-5.0,-9.0,-8.0,-5.0,-8.0,31.0,32.0,-2.0
1706292314.3127465,8.0,4.0,3.0,-2.0,4.0,2.0,17.0,25.0
1706292314.313698,-5.0,-2.0,-3.0,4.0,-6.0,-9.0,-35.0,-24.0
1706292314.3146968,-6.0,0.0,-3.0,-9.0,-12.0,3.0,9.0,6.0
1706292314.3156972,3.0,3.0,6.0,-2.0,-2.0,-21.0,-19.0,10.0
1706292314.3397176,3.0,2.0,2.0,6.0,12.0,-13.0,-2.0,-8.0
1706292314.3397176,14.0,1.0,-5.0,-8.0,-20.0,-36.0,-26.0,41.0
1706292314.3397176,-1.0,-1.0,4.0,12.0,11.0,31.0,59.0,-9.0
1706292314.3397176,-7.0,-6.0,-14.0,-1.0,9.0,6.0,6.0,-29.0
1706292314.3506944,-1.0,4.0,8.0,7.0,4.0,22.0,17.0,3.0
1706292314.3506944,-1.0,-2.0,4.0,-1.0,2.0,-12.0,-5.0,-23.0
1706292314.351693,-4.0,1.0,-19.0,-10.0,-12.0,-17.0,-18.0,9.0
1706292314.351693,-3.0,-10.0,-7.0,-9.0,-15.0,-9.0,-11.0,6.0
1706292314.3728614,1.0,6.0,0.0,-6.0,-5.0,4.0,-7.0,-13.0
1706292314.3728614,-4.0,0.0,12.0,9.0,10.0,7.0,0.0,-4.0
1706292314.3748527,1.0,-6.0,4.0,1.0,-5.0,-1.0,-4.0,-1.0
1706292314.3748527,0.0,0.0,0.0,7.0,9.0,9.0,7.0,-8.0
1706292314.3904572,-3.0,-7.0,-8.0,-8.0,-16.0,-25.0,8.0,-1.0
1706292314.3904572,-5.0,-5.0,-7.0,-3.0,7.0,5.0,-28.0,10.0
1706292314.393467,0.0,0.0,6.0,4.0,5.0,37.0,6.0,-4.0
1706292314.393467,2.0,4.0,0.0,1.0,-4.0,-31.0,-15.0,4.0
1706292314.41249,-3.0,-4.0,1.0,-4.0,3.0,9.0,-17.0,0.0
1706292314.41249,-1.0,3.0,-1.0,1.0,-4.0,6.0,6.0,2.0
1706292314.41249,1.0,-2.0,-9.0,-3.0,-7.0,-19.0,11.0,-9.0
1706292314.41249,-2.0,-3.0,6.0,-1.0,-6.0,-28.0,-34.0,-8.0
1706292314.458081,-3.0,3.0,6.0,10.0,19.0,24.0,-26.0,14.0
1706292314.458081,-2.0,-2.0,12.0,-1.0,5.0,14.0,20.0,-5.0
1706292314.458081,2.0,-6.0,-10.0,-5.0,-2.0,-6.0,-10.0,-15.0
1706292314.458081,-2.0,2.0,-1.0,-2.0,-3.0,-7.0,0.0,6.0
1706292314.458081,-4.0,0.0,-4.0,-1.0,-9.0,-11.0,22.0,-8.0
1706292314.458081,-1.0,-1.0,-6.0,-3.0,0.0,3.0,-2.0,10.0
1706292314.458081,2.0,7.0,13.0,-11.0,-3.0,-6.0,12.0,8.0
1706292314.458081,0.0,2.0,6.0,5.0,-4.0,3.0,-13.0,-3.0
1706292314.4700575,-1.0,-6.0,-4.0,-4.0,-4.0,1.0,-7.0,-4.0
1706292314.4700575,-2.0,1.0,7.0,24.0,22.0,14.0,7.0,-6.0
1706292314.4710577,-4.0,-8.0,-4.0,-42.0,-14.0,-9.0,-7.0,-4.0
1706292314.4710577,0.0,1.0,-5.0,42.0,1.0,6.0,8.0,-1.0
1706292314.4920561,-1.0,1.0,-9.0,-19.0,-8.0,-5.0,-6.0,-4.0
1706292314.4930599,0.0,-4.0,-8.0,-25.0,-16.0,-5.0,12.0,-4.0
1706292314.49406,-4.0,1.0,6.0,59.0,33.0,-1.0,-5.0,-2.0
1706292314.49406,1.0,-3.0,0.0,-38.0,-18.0,-2.0,1.0,5.0
1706292314.510083,-4.0,-4.0,-2.0,2.0,-9.0,-6.0,3.0,-4.0
1706292314.510083,2.0,4.0,-2.0,8.0,8.0,1.0,-5.0,-3.0
1706292314.5132751,-1.0,-1.0,4.0,-12.0,-13.0,1.0,0.0,2.0
1706292314.5132751,1.0,3.0,-3.0,-9.0,-6.0,4.0,3.0,2.0
1706292314.5301113,-3.0,-6.0,-1.0,5.0,6.0,-2.0,-4.0,-4.0
1706292314.5301113,0.0,3.0,-2.0,-5.0,7.0,8.0,8.0,-2.0
1706292314.5311005,-3.0,-7.0,-5.0,9.0,8.0,-3.0,1.0,1.0
1706292314.5320644,-2.0,1.0,0.0,4.0,0.0,-2.0,5.0,0.0
1706292314.5453017,-2.0,-4.0,-2.0,-13.0,-16.0,-8.0,-7.0,-6.0
1706292314.5453017,2.0,12.0,-1.0,0.0,-4.0,1.0,-1.0,2.0
1706292314.5453017,-3.0,-13.0,-4.0,3.0,5.0,3.0,5.0,1.0
1706292314.5453017,3.0,10.0,0.0,-11.0,2.0,-1.0,-1.0,-2.0
1706292314.565305,-6.0,-23.0,2.0,11.0,1.0,2.0,-3.0,-3.0
1706292314.565305,-1.0,-2.0,-2.0,2.0,15.0,-2.0,0.0,-1.0
1706292314.565305,4.0,15.0,0.0,-2.0,-13.0,-8.0,-4.0,-2.0
1706292314.565305,0.0,-8.0,-7.0,-17.0,-12.0,-3.0,-3.0,0.0
1706292314.5856733,2.0,21.0,0.0,-6.0,-5.0,-4.0,-1.0,-2.0
1706292314.5856733,-5.0,-26.0,-1.0,0.0,3.0,3.0,4.0,0.0
1706292314.5856733,-6.0,-1.0,-4.0,8.0,-5.0,-8.0,-4.0,-4.0
1706292314.5856733,-2.0,10.0,-4.0,-7.0,3.0,2.0,3.0,1.0
1706292314.6056244,0.0,-11.0,-3.0,12.0,3.0,1.0,-3.0,0.0
1706292314.6056244,-4.0,1.0,-3.0,-12.0,-3.0,-20.0,34.0,-3.0
1706292314.6056244,0.0,-2.0,2.0,-9.0,-24.0,0.0,-35.0,-2.0
1706292314.6056244,-1.0,-2.0,2.0,5.0,13.0,16.0,24.0,-1.0
1706292314.6257885,3.0,5.0,2.0,2.0,3.0,6.0,29.0,5.0
1706292314.6257885,0.0,1.0,0.0,9.0,8.0,1.0,-20.0,-4.0
1706292314.6257885,1.0,-4.0,-1.0,-3.0,5.0,-11.0,-7.0,1.0
1706292314.6257885,-1.0,0.0,-1.0,2.0,-7.0,1.0,6.0,-2.0
1706292314.645811,-2.0,1.0,-1.0,-11.0,-11.0,1.0,-14.0,-4.0
1706292314.645811,-2.0,-4.0,-5.0,-3.0,-4.0,7.0,2.0,-1.0
1706292314.645811,3.0,7.0,3.0,1.0,-1.0,-2.0,1.0,1.0
1706292314.645811,-1.0,-2.0,2.0,6.0,19.0,4.0,-9.0,0.0
1706292314.6656265,1.0,-4.0,-2.0,4.0,8.0,-6.0,0.0,0.0
1706292314.6656265,1.0,9.0,0.0,-5.0,-18.0,-6.0,-10.0,0.0
1706292314.6656265,2.0,7.0,-1.0,-7.0,0.0,7.0,13.0,-1.0
1706292314.6656265,-8.0,-20.0,-4.0,2.0,-9.0,-7.0,-5.0,-3.0
1706292314.685797,-1.0,-4.0,-1.0,1.0,5.0,1.0,1.0,0.0
1706292314.685797,0.0,10.0,-6.0,-9.0,-10.0,-6.0,-8.0,-1.0
1706292314.6958413,-2.0,-8.0,4.0,-5.0,-11.0,-4.0,4.0,-1.0
1706292314.6958413,-1.0,1.0,-4.0,6.0,4.0,0.0,-2.0,1.0
1706292314.7060022,0.0,4.0,0.0,-1.0,2.0,-1.0,6.0,-2.0
1706292314.7060022,-1.0,-4.0,-3.0,-1.0,13.0,16.0,7.0,1.0
1706292314.7060022,1.0,-16.0,-3.0,6.0,7.0,-1.0,3.0,-1.0
1706292314.7060022,-1.0,3.0,-1.0,-1.0,-10.0,-14.0,-6.0,0.0
1706292314.7459567,-3.0,-2.0,2.0,1.0,-1.0,-4.0,-30.0,-4.0
1706292314.7459567,1.0,8.0,-2.0,-3.0,-9.0,-6.0,25.0,-2.0
1706292314.7459567,0.0,3.0,-5.0,-7.0,-14.0,4.0,-2.0,-2.0
1706292314.7459567,0.0,-3.0,3.0,9.0,13.0,7.0,-9.0,-2.0
1706292314.746957,-1.0,1.0,-3.0,-3.0,-2.0,-18.0,1.0,1.0
1706292314.746957,-2.0,-8.0,-2.0,-9.0,-16.0,1.0,-35.0,-4.0
1706292314.7549582,-2.0,1.0,-1.0,0.0,9.0,0.0,-6.0,3.0
1706292314.7549582,-2.0,-10.0,-1.0,-4.0,-1.0,-9.0,4.0,-5.0
1706292314.7778244,1.0,4.0,-4.0,-10.0,-11.0,-4.0,-4.0,-3.0
1706292314.7778244,-2.0,-1.0,3.0,12.0,10.0,-10.0,-11.0,-3.0
1706292314.7778244,-2.0,-3.0,-2.0,-7.0,2.0,3.0,20.0,1.0
1706292314.7778244,0.0,5.0,3.0,14.0,0.0,3.0,-9.0,1.0
1706292314.788741,-1.0,12.0,3.0,-10.0,-2.0,1.0,5.0,-3.0
1706292314.788741,-2.0,-26.0,-16.0,-3.0,-3.0,2.0,-1.0,0.0
1706292314.788741,-1.0,1.0,6.0,-7.0,-3.0,-5.0,-1.0,-1.0
1706292314.788741,0.0,2.0,0.0,-7.0,-3.0,0.0,6.0,0.0
1706292314.805586,-5.0,-3.0,-3.0,-9.0,-3.0,3.0,-11.0,4.0
1706292314.80656,1.0,2.0,3.0,8.0,1.0,-3.0,7.0,-3.0
1706292314.8148377,1.0,4.0,0.0,4.0,4.0,3.0,-1.0,-1.0
1706292314.8148377,2.0,-3.0,-1.0,-11.0,-6.0,-18.0,-12.0,-1.0
1706292314.829868,-2.0,-3.0,1.0,8.0,-6.0,-5.0,23.0,3.0
1706292314.829868,2.0,6.0,-1.0,-4.0,5.0,10.0,1.0,-7.0
1706292314.8314447,2.0,-5.0,-3.0,0.0,10.0,24.0,76.0,29.0
1706292314.8314447,-5.0,8.0,2.0,1.0,-4.0,-1.0,-53.0,-32.0
1706292314.8522997,4.0,-5.0,-1.0,6.0,23.0,1.0,5.0,2.0
1706292314.8522997,-2.0,13.0,6.0,-1.0,-22.0,-16.0,-10.0,4.0
1706292314.8542747,1.0,-5.0,-3.0,5.0,4.0,-10.0,0.0,-10.0
1706292314.8542747,-2.0,-4.0,2.0,-8.0,8.0,12.0,15.0,24.0
1706292314.866054,-1.0,-23.0,-15.0,-6.0,-12.0,-1.0,-2.0,-9.0
1706292314.866054,-3.0,18.0,2.0,0.0,7.0,-3.0,-2.0,-1.0
1706292314.8750937,2.0,9.0,0.0,-7.0,-16.0,-16.0,-24.0,0.0
1706292314.8750937,-1.0,-7.0,-7.0,-19.0,-15.0,1.0,5.0,0.0
1706292314.8897765,2.0,3.0,7.0,23.0,19.0,10.0,-8.0,2.0
1706292314.8897765,-4.0,-18.0,-17.0,-2.0,4.0,-8.0,6.0,3.0
1706292314.8917754,1.0,14.0,15.0,3.0,-7.0,0.0,-15.0,-11.0
1706292314.8917754,1.0,-9.0,-10.0,-3.0,3.0,0.0,7.0,1.0
1706292314.9128451,1.0,9.0,5.0,-4.0,-11.0,0.0,4.0,-3.0
1706292314.9138467,-4.0,-9.0,-1.0,-6.0,3.0,5.0,-4.0,-1.0
1706292314.9148436,-4.0,3.0,7.0,9.0,13.0,0.0,-9.0,-5.0
1706292314.9148436,2.0,-4.0,-6.0,-1.0,-1.0,-1.0,6.0,0.0
1706292314.926644,-1.0,0.0,-4.0,-8.0,-9.0,-9.0,-9.0,0.0
1706292314.926644,2.0,4.0,-4.0,-10.0,-11.0,-3.0,-5.0,-2.0
1706292314.9346309,-5.0,-17.0,-12.0,-8.0,1.0,-1.0,-10.0,-4.0
1706292314.9346309,2.0,9.0,14.0,12.0,0.0,-2.0,7.0,4.0
1706292314.959764,4.0,24.0,5.0,7.0,12.0,4.0,-5.0,-2.0
1706292314.959764,-8.0,-39.0,-3.0,-6.0,1.0,2.0,0.0,-1.0
1706292314.959764,-5.0,-4.0,-5.0,-6.0,-11.0,-5.0,-2.0,-3.0
1706292314.959764,1.0,-10.0,-2.0,5.0,1.0,1.0,2.0,-1.0
1706292314.973342,-2.0,5.0,-3.0,-7.0,-4.0,-22.0,-13.0,-3.0
1706292314.973342,1.0,16.0,8.0,1.0,-9.0,8.0,0.0,-2.0
1706292314.9753563,2.0,16.0,-7.0,3.0,8.0,23.0,25.0,0.0
1706292314.9753563,-6.0,-14.0,2.0,4.0,10.0,1.0,2.0,-1.0
1706292314.987302,-3.0,-13.0,-1.0,4.0,2.0,10.0,-4.0,-1.0
1706292314.987302,2.0,4.0,4.0,8.0,15.0,-8.0,-4.0,1.0
1706292315.01521,1.0,7.0,-1.0,-6.0,-6.0,-13.0,-15.0,-3.0
1706292315.01521,-1.0,5.0,-5.0,-26.0,-6.0,-5.0,-2.0,-3.0
1706292315.01521,-1.0,3.0,-4.0,14.0,-9.0,3.0,6.0,0.0
1706292315.01521,-5.0,-22.0,-2.0,4.0,-2.0,-2.0,-4.0,-2.0
1706292315.01521,1.0,0.0,1.0,3.0,4.0,-3.0,-8.0,-1.0
1706292315.01521,2.0,8.0,0.0,0.0,-1.0,-1.0,4.0,1.0
1706292315.0252447,-2.0,-7.0,1.0,-5.0,1.0,1.0,-3.0,-1.0
1706292315.0252447,0.0,2.0,-1.0,-4.0,-5.0,0.0,1.0,-1.0
1706292315.0352588,-2.0,-15.0,-4.0,-4.0,4.0,0.0,-7.0,-1.0
1706292315.0352588,2.0,5.0,-3.0,-10.0,-17.0,-7.0,0.0,1.0
1706292315.0454617,-3.0,-3.0,1.0,8.0,3.0,-6.0,-17.0,-1.0
1706292315.0454617,3.0,10.0,3.0,9.0,11.0,7.0,-25.0,1.0
1706292315.0652554,-3.0,-3.0,-2.0,-1.0,-5.0,-3.0,66.0,-5.0
1706292315.0652554,-5.0,-9.0,-7.0,-5.0,-14.0,3.0,1.0,-4.0
1706292315.0652554,-3.0,0.0,-2.0,-7.0,3.0,17.0,-30.0,-4.0
1706292315.0652554,5.0,8.0,2.0,-4.0,-9.0,2.0,14.0,5.0
1706292315.0652554,-6.0,-13.0,-4.0,-5.0,1.0,-16.0,-26.0,-4.0
1706292315.0652554,4.0,7.0,0.0,14.0,8.0,-2.0,3.0,2.0
1706292315.085535,-4.0,-1.0,0.0,-6.0,0.0,8.0,21.0,-2.0
1706292315.085535,-2.0,-14.0,-4.0,-2.0,3.0,-4.0,-6.0,-5.0
1706292315.085535,-5.0,-9.0,-9.0,-4.0,-8.0,-10.0,-16.0,-3.0
1706292315.085535,6.0,25.0,8.0,7.0,-5.0,2.0,5.0,-1.0
1706292315.1055603,-2.0,-16.0,-3.0,-5.0,8.0,-2.0,-1.0,-1.0
1706292315.1055603,2.0,28.0,4.0,8.0,1.0,-4.0,3.0,1.0
1706292315.1217356,0.0,-1.0,2.0,2.0,-1.0,2.0,-9.0,2.0
1706292315.1217356,-4.0,-14.0,-4.0,-2.0,1.0,0.0,-6.0,-3.0
1706292315.1307151,1.0,12.0,1.0,-5.0,-12.0,-8.0,1.0,0.0
1706292315.1307151,-3.0,-14.0,-6.0,-14.0,-4.0,-3.0,7.0,-2.0
1706292315.131695,-1.0,-1.0,1.0,2.0,-6.0,1.0,-6.0,-1.0
1706292315.131695,-1.0,3.0,1.0,2.0,8.0,0.0,-5.0,1.0
1706292315.1521285,2.0,-1.0,-2.0,-11.0,-10.0,-2.0,9.0,2.0
1706292315.1521285,-2.0,-5.0,-1.0,8.0,12.0,5.0,5.0,-3.0
1706292315.1541595,-3.0,-2.0,0.0,0.0,2.0,-7.0,-18.0,-2.0
1706292315.1541595,0.0,7.0,-2.0,-7.0,-9.0,3.0,0.0,-2.0
1706292315.1831417,-3.0,-5.0,-2.0,3.0,13.0,4.0,6.0,1.0
1706292315.1831417,0.0,-4.0,0.0,-8.0,-12.0,-7.0,-2.0,-2.0
1706292315.185127,0.0,1.0,-2.0,-5.0,-8.0,0.0,-7.0,0.0
1706292315.185127,-2.0,-6.0,-1.0,2.0,-7.0,-11.0,-21.0,3.0
1706292315.190822,-1.0,-3.0,0.0,-2.0,26.0,-6.0,4.0,-7.0
1706292315.190822,-1.0,6.0,-1.0,10.0,-14.0,19.0,15.0,3.0
1706292315.1928253,0.0,4.0,-2.0,-7.0,0.0,14.0,-12.0,-4.0
1706292315.1928253,-1.0,5.0,4.0,4.0,10.0,3.0,20.0,3.0
1706292315.2138062,-4.0,-7.0,-4.0,1.0,-9.0,-8.0,0.0,-5.0
1706292315.2148132,-1.0,9.0,2.0,-1.0,6.0,-11.0,-23.0,-1.0
1706292315.2158136,2.0,-9.0,1.0,0.0,-2.0,-11.0,-14.0,2.0
1706292315.2158136,-4.0,-1.0,-7.0,-9.0,-7.0,2.0,5.0,-2.0
1706292315.2428043,-2.0,5.0,1.0,0.0,-6.0,-2.0,-3.0,-1.0
1706292315.2428043,-3.0,-12.0,-7.0,-9.0,-4.0,-6.0,10.0,-3.0
1706292315.2428043,2.0,10.0,4.0,0.0,-4.0,8.0,9.0,1.0
1706292315.2428043,3.0,19.0,4.0,10.0,15.0,1.0,-3.0,-2.0
1706292315.2446525,-5.0,-50.0,-5.0,-1.0,-10.0,-4.0,4.0,0.0
1706292315.2446525,0.0,39.0,1.0,-15.0,-17.0,-12.0,-10.0,0.0
1706292315.2446525,-4.0,-57.0,-12.0,7.0,5.0,5.0,2.0,-2.0
1706292315.2446525,0.0,0.0,-1.0,4.0,3.0,0.0,-1.0,-1.0
1706292315.2726336,3.0,20.0,-1.0,-18.0,-9.0,-4.0,-4.0,0.0
1706292315.2726336,-3.0,-24.0,-5.0,6.0,-5.0,-1.0,0.0,-2.0
1706292315.2736073,0.0,10.0,4.0,4.0,10.0,-1.0,-1.0,1.0
1706292315.2736073,1.0,11.0,-2.0,-6.0,0.0,-4.0,-1.0,-3.0
1706292315.294925,-2.0,-12.0,-4.0,-7.0,-23.0,-4.0,-3.0,-2.0
1706292315.294925,-1.0,3.0,4.0,1.0,11.0,5.0,-1.0,-3.0
1706292315.294925,0.0,13.0,3.0,10.0,22.0,6.0,7.0,3.0
1706292315.294925,-5.0,-21.0,-5.0,6.0,2.0,2.0,-6.0,-3.0
1706292315.3050265,-6.0,12.0,-2.0,-8.0,-4.0,-4.0,-3.0,4.0
1706292315.3050265,7.0,-9.0,-4.0,-12.0,-22.0,-15.0,-20.0,-6.0
1706292315.3150997,-4.0,8.0,-1.0,1.0,6.0,8.0,8.0,-1.0
1706292315.3150997,-1.0,-12.0,-2.0,-5.0,5.0,-30.0,-19.0,3.0
1706292315.3254135,-1.0,7.0,-1.0,2.0,-5.0,52.0,42.0,-4.0
1706292315.3254135,3.0,-2.0,-1.0,8.0,10.0,-15.0,-11.0,-5.0
1706292315.3254135,-3.0,0.0,-1.0,-2.0,-14.0,0.0,9.0,0.0
1706292315.3254135,3.0,12.0,4.0,-7.0,5.0,-5.0,-15.0,4.0
1706292315.3635705,5.0,6.0,-3.0,-2.0,-2.0,-15.0,-6.0,-6.0
1706292315.3635705,-8.0,-24.0,-1.0,7.0,6.0,1.0,-11.0,1.0
1706292315.3655696,5.0,4.0,1.0,-7.0,-2.0,0.0,12.0,1.0
1706292315.3655696,-2.0,11.0,0.0,5.0,-2.0,-4.0,16.0,5.0
1706292315.3735142,2.0,-34.0,-1.0,13.0,3.0,-6.0,-12.0,3.0
1706292315.3735142,0.0,12.0,-2.0,-3.0,1.0,10.0,15.0,-2.0
1706292315.3772671,0.0,27.0,6.0,-7.0,-13.0,-14.0,-19.0,5.0
1706292315.3772671,-8.0,-33.0,-6.0,-5.0,-7.0,13.0,10.0,-9.0
1706292315.4029415,-7.0,-34.0,-5.0,2.0,12.0,0.0,-7.0,-3.0
1706292315.4029415,-1.0,23.0,-5.0,-17.0,-13.0,-6.0,2.0,4.0
1706292315.4029415,-4.0,-3.0,11.0,28.0,13.0,-2.0,-2.0,-4.0
1706292315.4029415,6.0,6.0,-1.0,4.0,0.0,9.0,-1.0,0.0
1706292315.4150622,3.0,17.0,2.0,2.0,-3.0,-7.0,-2.0,-2.0
1706292315.4150622,-7.0,-22.0,-7.0,-11.0,-7.0,-5.0,-1.0,-1.0
1706292315.4165535,9.0,19.0,7.0,-12.0,-9.0,0.0,-1.0,2.0
1706292315.4165535,4.0,13.0,-2.0,8.0,1.0,6.0,3.0,-4.0
1706292315.4292896,-5.0,-2.0,-3.0,-7.0,0.0,-7.0,-8.0,2.0
1706292315.4292896,0.0,4.0,7.0,6.0,3.0,3.0,8.0,-1.0
1706292315.4362688,-8.0,-21.0,-19.0,-10.0,-4.0,-4.0,-7.0,-8.0
1706292315.4362688,5.0,3.0,5.0,-1.0,-6.0,-4.0,-15.0,11.0
1706292315.455989,-14.0,-2.0,-1.0,0.0,8.0,5.0,27.0,-21.0
1706292315.455989,3.0,6.0,5.0,4.0,-6.0,0.0,2.0,7.0
1706292315.455989,-1.0,-2.0,3.0,5.0,-4.0,-13.0,8.0,-13.0
1706292315.455989,-3.0,-4.0,-1.0,-2.0,12.0,8.0,-10.0,-2.0
1706292315.4713311,8.0,20.0,6.0,2.0,-9.0,-17.0,-10.0,9.0
1706292315.4713311,-3.0,-14.0,-3.0,2.0,12.0,31.0,18.0,-4.0
1706292315.4713311,-5.0,-8.0,-8.0,-8.0,-8.0,-11.0,-1.0,2.0
1706292315.4713311,-3.0,-3.0,-3.0,-2.0,-10.0,4.0,8.0,-4.0
1706292315.4814696,1.0,0.0,0.0,2.0,6.0,-6.0,-9.0,2.0
1706292315.4814696,-8.0,-19.0,-2.0,0.0,0.0,-7.0,0.0,-2.0
1706292315.4957628,1.0,3.0,-4.0,1.0,2.0,0.0,-10.0,2.0
1706292315.4957628,-3.0,-10.0,-2.0,-6.0,-4.0,-2.0,2.0,-7.0
1706292315.514089,6.0,36.0,3.0,-4.0,-9.0,-2.0,-7.0,4.0
1706292315.514089,-2.0,-46.0,-14.0,-7.0,-14.0,-16.0,-6.0,-2.0
1706292315.514089,-1.0,48.0,2.0,-6.0,5.0,8.0,-4.0,-3.0
1706292315.514089,1.0,-5.0,6.0,12.0,22.0,6.0,5.0,1.0
1706292315.5281332,-5.0,-15.0,-4.0,2.0,-7.0,0.0,-1.0,0.0
1706292315.5281332,3.0,33.0,6.0,-3.0,7.0,-7.0,-2.0,-1.0
1706292315.5281332,0.0,-9.0,-3.0,1.0,-6.0,0.0,-5.0,-2.0
1706292315.5281332,-6.0,-21.0,-7.0,-1.0,-3.0,0.0,5.0,2.0
1706292315.5488245,9.0,31.0,3.0,-6.0,-5.0,-5.0,-5.0,8.0
1706292315.5488245,-13.0,-3.0,-4.0,10.0,5.0,0.0,-3.0,-15.0
1706292315.5488245,-3.0,-15.0,0.0,-5.0,-7.0,-3.0,-3.0,0.0
1706292315.5488245,-3.0,-2.0,-1.0,-3.0,4.0,1.0,0.0,-4.0
1706292315.5785248,-1.0,-7.0,-6.0,2.0,3.0,2.0,-2.0,-1.0
1706292315.5785248,3.0,14.0,8.0,-2.0,-2.0,-6.0,-8.0,4.0
1706292315.5785248,14.0,-11.0,-4.0,-4.0,-17.0,-7.0,3.0,-6.0
1706292315.5785248,-1.0,18.0,8.0,2.0,5.0,4.0,9.0,-4.0
1706292315.5886984,-2.0,-3.0,-4.0,-7.0,-4.0,-1.0,-20.0,2.0
1706292315.5886984,-3.0,16.0,-6.0,1.0,1.0,-10.0,-9.0,-3.0
1706292315.5985327,1.0,-11.0,-6.0,1.0,23.0,19.0,7.0,-15.0
1706292315.5985327,0.0,-2.0,-1.0,-1.0,-7.0,-7.0,1.0,6.0
1706292315.6089675,2.0,-4.0,8.0,11.0,3.0,-1.0,0.0,-16.0
1706292315.6089675,0.0,8.0,2.0,-4.0,0.0,-2.0,-3.0,-1.0
1706292315.617139,-6.0,-9.0,-4.0,-7.0,-14.0,-9.0,-7.0,1.0
1706292315.617139,-1.0,6.0,2.0,-7.0,-8.0,-6.0,0.0,1.0
1706292315.6321404,-5.0,-13.0,-6.0,-3.0,5.0,2.0,4.0,1.0
1706292315.6321404,4.0,-8.0,-2.0,-1.0,-7.0,0.0,2.0,6.0
1706292315.6341903,-6.0,-16.0,-1.0,1.0,4.0,-1.0,-1.0,5.0
1706292315.6341903,1.0,-10.0,-2.0,-4.0,-6.0,-4.0,-5.0,-5.0
1706292315.6584172,1.0,6.0,-4.0,3.0,6.0,7.0,7.0,35.0
1706292315.6584172,-2.0,-15.0,-3.0,-10.0,2.0,-2.0,-9.0,-54.0
1706292315.6584172,-1.0,19.0,14.0,11.0,-6.0,-3.0,-4.0,5.0
1706292315.6584172,-5.0,-32.0,-13.0,-2.0,-19.0,-18.0,-14.0,-5.0
1706292315.6729412,-4.0,4.0,2.0,-7.0,-3.0,18.0,7.0,-1.0
1706292315.6729412,5.0,15.0,-3.0,11.0,14.0,7.0,10.0,24.0
1706292315.679947,1.0,-11.0,4.0,6.0,29.0,2.0,17.0,12.0
1706292315.679947,-3.0,-22.0,-3.0,-8.0,-12.0,-2.0,-1.0,-21.0
1706292315.6927907,-7.0,45.0,10.0,1.0,-6.0,-13.0,-31.0,-22.0
1706292315.6927907,-6.0,-45.0,-18.0,-8.0,-13.0,1.0,-4.0,6.0
1706292315.6967273,-8.0,6.0,3.0,-6.0,-10.0,-8.0,-12.0,-11.0
1706292315.6967273,0.0,-15.0,-7.0,-8.0,-7.0,-5.0,4.0,24.0
1706292315.7143853,-3.0,-5.0,-7.0,5.0,1.0,-3.0,3.0,0.0
1706292315.7153945,-3.0,17.0,4.0,6.0,8.0,0.0,0.0,-3.0
1706292315.7163928,-2.0,-10.0,-10.0,-20.0,-9.0,-4.0,-9.0,6.0
1706292315.7163928,1.0,16.0,5.0,12.0,8.0,8.0,2.0,-1.0
1706292315.731779,-2.0,-21.0,-5.0,4.0,-8.0,0.0,5.0,-7.0
1706292315.731779,1.0,10.0,15.0,11.0,6.0,-2.0,-1.0,6.0
1706292315.7397738,1.0,-3.0,-10.0,-1.0,8.0,2.0,5.0,-1.0
1706292315.7397738,-3.0,-3.0,-7.0,-20.0,-16.0,-11.0,-7.0,-5.0
1706292315.7533975,1.0,2.0,-1.0,-6.0,-8.0,-5.0,-4.0,-6.0
1706292315.7533975,6.0,2.0,4.0,16.0,9.0,20.0,15.0,6.0
1706292315.7553978,0.0,2.0,0.0,-10.0,2.0,6.0,1.0,3.0
1706292315.7553978,-3.0,16.0,6.0,11.0,27.0,6.0,-4.0,-3.0
1706292315.7751935,2.0,-13.0,-1.0,3.0,1.0,12.0,15.0,2.0
1706292315.7751935,-2.0,0.0,-2.0,-13.0,-8.0,-25.0,-14.0,5.0
1706292315.7761931,3.0,-2.0,-4.0,-3.0,-22.0,2.0,2.0,-7.0
1706292315.7761931,7.0,34.0,11.0,1.0,1.0,-8.0,-7.0,1.0
1706292315.798916,-2.0,-6.0,-2.0,-4.0,-1.0,-4.0,1.0,1.0
1706292315.798916,2.0,-15.0,-13.0,-6.0,-1.0,-1.0,-4.0,5.0
1706292315.806916,1.0,-12.0,0.0,8.0,-5.0,-8.0,-7.0,3.0
1706292315.806916,-2.0,15.0,-10.0,-11.0,-4.0,1.0,-3.0,-14.0
1706292315.8124585,3.0,-7.0,6.0,4.0,10.0,-3.0,3.0,24.0
1706292315.8124585,-4.0,8.0,2.0,-10.0,-10.0,-4.0,8.0,19.0
1706292315.8143477,13.0,1.0,-5.0,-2.0,-5.0,-9.0,-15.0,-31.0
1706292315.8143477,-4.0,-4.0,7.0,-2.0,-9.0,6.0,10.0,8.0
1706292315.8437583,4.0,2.0,-3.0,8.0,6.0,3.0,-2.0,-13.0
1706292315.8437583,-1.0,1.0,11.0,7.0,24.0,9.0,1.0,-3.0
1706292315.8437583,-12.0,-13.0,-19.0,-7.0,-6.0,1.0,3.0,10.0
1706292315.8437583,-1.0,-5.0,5.0,5.0,1.0,-4.0,-8.0,-11.0
1706292315.8576348,-2.0,-6.0,-6.0,-8.0,6.0,-6.0,0.0,5.0
1706292315.858569,0.0,5.0,0.0,3.0,-24.0,-7.0,-3.0,2.0
1706292315.8595684,-3.0,8.0,4.0,-3.0,4.0,-6.0,-22.0,-7.0
1706292315.8595684,-2.0,-3.0,-7.0,-4.0,-10.0,10.0,53.0,12.0
1706292315.8722944,-1.0,-5.0,4.0,6.0,10.0,-6.0,-30.0,-6.0
1706292315.8722944,-2.0,-2.0,-6.0,1.0,6.0,3.0,-5.0,-10.0
1706292315.874277,-3.0,9.0,16.0,4.0,2.0,3.0,12.0,4.0
1706292315.874277,-2.0,-12.0,-15.0,-12.0,-11.0,-15.0,-20.0,-2.0
1706292315.90286,1.0,-3.0,0.0,-6.0,-11.0,-9.0,5.0,-2.0
1706292315.90286,-4.0,0.0,10.0,-5.0,-5.0,5.0,-5.0,-14.0
1706292315.9038603,-5.0,-2.0,-28.0,-9.0,-1.0,2.0,4.0,3.0
1706292315.9038603,0.0,-6.0,9.0,18.0,16.0,0.0,-8.0,0.0
1706292315.9178405,-3.0,-9.0,-2.0,-4.0,14.0,11.0,11.0,-7.0
1706292315.9178405,0.0,8.0,-3.0,-3.0,-26.0,-13.0,-6.0,1.0
1706292315.9187,-6.0,-4.0,8.0,-3.0,0.0,-8.0,-4.0,0.0
1706292315.9187,4.0,-4.0,-30.0,-3.0,6.0,-1.0,-2.0,2.0
1706292315.932771,2.0,14.0,3.0,-2.0,-4.0,10.0,-6.0,-12.0
1706292315.932771,-4.0,-14.0,-1.0,-1.0,6.0,0.0,28.0,-1.0
1706292315.9337518,1.0,4.0,17.0,3.0,-1.0,4.0,1.0,3.0
1706292315.9337518,-9.0,-2.0,-8.0,-6.0,-10.0,-11.0,-12.0,6.0
1706292315.9639592,3.0,-2.0,1.0,4.0,8.0,20.0,15.0,-6.0
1706292315.9639592,9.0,4.0,0.0,1.0,-3.0,9.0,8.0,10.0
1706292315.9639592,-10.0,1.0,-2.0,-1.0,11.0,-3.0,-6.0,-14.0
1706292315.9639592,-5.0,-1.0,9.0,8.0,6.0,-4.0,-5.0,-3.0
1706292315.9689531,-2.0,-4.0,-2.0,-3.0,-10.0,-19.0,-6.0,4.0
1706292315.9689531,0.0,-4.0,-9.0,-7.0,-6.0,-3.0,3.0,-1.0
1706292315.9772644,1.0,-2.0,-2.0,0.0,-6.0,-1.0,-21.0,2.0
1706292315.9772644,-4.0,-11.0,0.0,-7.0,-5.0,6.0,3.0,-1.0
1706292315.9872901,-4.0,-1.0,0.0,-1.0,-2.0,-8.0,-2.0,-4.0
1706292315.9872901,0.0,-3.0,-8.0,0.0,6.0,-1.0,-8.0,-5.0
1706292315.9940867,1.0,7.0,2.0,-2.0,-3.0,-6.0,9.0,4.0
1706292315.9940867,0.0,3.0,11.0,-1.0,-4.0,-1.0,-1.0,-6.0
1706292316.014776,-3.0,-7.0,-9.0,-8.0,-21.0,-8.0,-4.0,-1.0
1706292316.014776,-4.0,0.0,-10.0,-1.0,16.0,10.0,-4.0,-5.0
1706292316.0164068,2.0,2.0,33.0,19.0,9.0,1.0,11.0,5.0
1706292316.0164068,4.0,3.0,-13.0,4.0,9.0,13.0,-10.0,-3.0
1706292316.0297992,1.0,6.0,1.0,-3.0,4.0,-13.0,4.0,0.0
1706292316.0297992,-2.0,0.0,-14.0,-13.0,-26.0,-20.0,-41.0,-2.0
1706292316.038941,-4.0,-13.0,4.0,-11.0,-15.0,14.0,11.0,-9.0
1706292316.038941,1.0,7.0,24.0,16.0,21.0,9.0,3.0,-9.0
1706292316.0443614,6.0,-3.0,2.0,2.0,1.0,-6.0,-1.0,15.0
1706292316.0443614,0.0,4.0,1.0,2.0,16.0,4.0,9.0,0.0
1706292316.0544147,-3.0,1.0,-1.0,0.0,0.0,-7.0,-8.0,-4.0
1706292316.0544147,-3.0,-8.0,-33.0,-18.0,-24.0,-14.0,-1.0,13.0
1706292316.0943594,-3.0,-2.0,-6.0,-9.0,-6.0,7.0,0.0,-16.0
1706292316.0943594,-5.0,-1.0,5.0,6.0,4.0,-11.0,3.0,-3.0
1706292316.0943594,4.0,2.0,-10.0,1.0,8.0,8.0,4.0,5.0
1706292316.0943594,-2.0,-3.0,11.0,-5.0,-9.0,-11.0,-10.0,-6.0
1706292316.0943594,-2.0,1.0,-4.0,-2.0,2.0,8.0,12.0,5.0
1706292316.0943594,1.0,1.0,10.0,3.0,-4.0,-4.0,-7.0,-2.0
1706292316.0943594,-1.0,-1.0,-10.0,8.0,8.0,-4.0,8.0,-4.0
1706292316.0943594,2.0,1.0,-2.0,-2.0,4.0,4.0,2.0,1.0
1706292316.1046848,-1.0,-2.0,-3.0,-6.0,-15.0,-7.0,-6.0,-2.0
1706292316.1046848,0.0,5.0,22.0,1.0,-4.0,4.0,3.0,0.0
1706292316.114405,-3.0,-9.0,-25.0,-5.0,4.0,-3.0,-8.0,3.0
1706292316.114405,-1.0,6.0,12.0,5.0,3.0,2.0,-2.0,-3.0
1706292316.1359236,-4.0,-4.0,-6.0,-2.0,-1.0,-5.0,-1.0,-2.0
1706292316.1359236,-2.0,-8.0,-2.0,-9.0,-18.0,4.0,-1.0,-6.0
1706292316.1379216,1.0,-1.0,-7.0,4.0,-3.0,-15.0,-5.0,4.0
1706292316.1379216,-5.0,3.0,1.0,-2.0,-8.0,-8.0,-11.0,-7.0
1706292316.1573617,-1.0,1.0,7.0,7.0,8.0,19.0,7.0,-8.0
1706292316.1573617,1.0,4.0,-10.0,1.0,13.0,0.0,7.0,1.0
1706292316.1593766,6.0,-2.0,-3.0,-5.0,-8.0,-4.0,-8.0,17.0
1706292316.1593766,-14.0,-6.0,1.0,-6.0,-9.0,-12.0,-16.0,-20.0
1706292316.1709619,1.0,-2.0,-2.0,-2.0,-6.0,-19.0,5.0,-1.0
1706292316.1709619,-1.0,-2.0,-2.0,-3.0,-8.0,17.0,0.0,-1.0
1706292316.1709619,1.0,2.0,4.0,1.0,14.0,-2.0,-10.0,-2.0
1706292316.1709619,2.0,2.0,0.0,10.0,11.0,7.0,5.0,3.0
1706292316.1906888,-5.0,1.0,-1.0,3.0,-5.0,-1.0,-3.0,0.0
1706292316.1906888,-2.0,-3.0,-5.0,1.0,9.0,-12.0,-2.0,-4.0
1706292316.1906888,-2.0,-4.0,5.0,1.0,-4.0,-1.0,6.0,-2.0
1706292316.1906888,4.0,-3.0,-6.0,-5.0,-5.0,4.0,8.0,3.0
1706292316.2108548,4.0,11.0,-1.0,-4.0,-9.0,-4.0,-8.0,-3.0
1706292316.2108548,-9.0,-21.0,-6.0,-6.0,-11.0,-3.0,1.0,-1.0
1706292316.2108548,-4.0,2.0,0.0,-4.0,3.0,4.0,-5.0,-5.0
1706292316.2108548,1.0,-1.0,1.0,3.0,0.0,6.0,7.0,0.0
1706292316.2473836,2.0,-4.0,-1.0,9.0,15.0,4.0,-1.0,4.0
1706292316.2473836,-1.0,5.0,-1.0,-5.0,-1.0,-6.0,-5.0,-2.0
1706292316.2483842,-2.0,2.0,-3.0,-1.0,-7.0,-5.0,-14.0,-2.0
1706292316.2483842,1.0,-3.0,2.0,-7.0,-6.0,-2.0,43.0,-2.0
1706292316.2551155,-4.0,1.0,0.0,-10.0,-18.0,-6.0,-7.0,-5.0
1706292316.2551155,0.0,0.0,-4.0,12.0,22.0,4.0,-7.0,2.0
1706292316.2566426,-1.0,0.0,-4.0,1.0,0.0,12.0,10.0,-3.0
1706292316.2566426,1.0,1.0,-2.0,2.0,-7.0,-6.0,-1.0,7.0
1706292316.277442,2.0,-9.0,2.0,4.0,8.0,-9.0,-15.0,-10.0
1706292316.277442,-1.0,0.0,0.0,-9.0,-11.0,-1.0,19.0,-1.0
1706292316.2787752,1.0,1.0,-4.0,-4.0,-13.0,2.0,-3.0,0.0
1706292316.2787752,-1.0,-2.0,4.0,1.0,11.0,-8.0,-24.0,-2.0
1706292316.292576,-4.0,-2.0,-2.0,1.0,6.0,9.0,14.0,7.0
1706292316.292576,6.0,4.0,3.0,6.0,8.0,-4.0,-7.0,13.0
1706292316.2986145,-6.0,-2.0,-4.0,-1.0,-6.0,-5.0,7.0,-19.0
1706292316.2986145,-1.0,-4.0,-8.0,-8.0,-3.0,7.0,9.0,0.0
1706292316.3109174,-3.0,-3.0,3.0,-2.0,-7.0,-12.0,-17.0,-1.0
1706292316.3109174,-1.0,2.0,1.0,-1.0,7.0,6.0,-2.0,-3.0
1706292316.3109174,0.0,1.0,-2.0,2.0,-3.0,3.0,3.0,0.0
1706292316.3109174,-1.0,1.0,-2.0,-2.0,3.0,4.0,-2.0,4.0
1706292316.3309476,-1.0,-7.0,-3.0,3.0,0.0,-1.0,4.0,-4.0
1706292316.3309476,-4.0,-5.0,-5.0,-5.0,-4.0,-5.0,0.0,-4.0
1706292316.3409753,0.0,3.0,-1.0,-3.0,-7.0,-5.0,-2.0,3.0
1706292316.3409753,-2.0,-6.0,-7.0,0.0,8.0,3.0,-9.0,-7.0
1706292316.3512437,-2.0,3.0,-1.0,1.0,2.0,-1.0,-6.0,2.0
1706292316.3512437,0.0,-1.0,0.0,-5.0,-7.0,5.0,18.0,-4.0
1706292316.3609185,0.0,-2.0,3.0,4.0,-1.0,-10.0,-15.0,0.0
1706292316.3609185,3.0,1.0,-3.0,-2.0,8.0,6.0,7.0,1.0
1706292316.3710215,-3.0,0.0,1.0,-2.0,-15.0,1.0,3.0,-1.0
1706292316.3710215,-3.0,-3.0,-3.0,-3.0,-7.0,-7.0,-13.0,-5.0
1706292316.3710215,-4.0,-1.0,-1.0,-6.0,0.0,-6.0,-7.0,0.0
1706292316.3710215,-1.0,-1.0,2.0,1.0,-11.0,4.0,4.0,0.0
1706292316.391728,-1.0,-1.0,-4.0,2.0,12.0,-3.0,-4.0,-2.0
1706292316.391728,2.0,0.0,-1.0,-1.0,0.0,-1.0,-2.0,-5.0
1706292316.391728,2.0,2.0,-1.0,-2.0,0.0,-6.0,2.0,7.0
1706292316.391728,-4.0,-2.0,7.0,-3.0,-7.0,8.0,8.0,-9.0
1706292316.4113355,-3.0,1.0,-2.0,1.0,8.0,10.0,12.0,4.0
1706292316.4113355,4.0,-2.0,0.0,0.0,-4.0,-7.0,-10.0,2.0
1706292316.4213347,-1.0,-2.0,-1.0,5.0,10.0,3.0,0.0,-5.0
1706292316.4213347,0.0,4.0,0.0,-1.0,2.0,-13.0,-5.0,1.0
1706292316.431678,-6.0,-18.0,-10.0,-10.0,-11.0,-6.0,-5.0,-3.0
1706292316.431678,2.0,29.0,6.0,2.0,0.0,1.0,0.0,-1.0
1706292316.431678,-8.0,-19.0,-7.0,-4.0,-5.0,-2.0,4.0,-4.0
1706292316.431678,-1.0,5.0,16.0,2.0,0.0,-4.0,-14.0,-3.0
1706292316.4513347,4.0,0.0,0.0,8.0,-3.0,-4.0,0.0,-4.0
1706292316.4513347,1.0,-1.0,-7.0,-8.0,1.0,2.0,-3.0,2.0
1706292316.4513347,1.0,3.0,3.0,3.0,-4.0,6.0,7.0,-3.0
1706292316.4513347,0.0,-1.0,-6.0,5.0,17.0,4.0,-5.0,7.0
1706292316.4713361,-1.0,2.0,3.0,-6.0,-10.0,-3.0,2.0,-2.0
1706292316.4713361,-4.0,-8.0,2.0,1.0,-7.0,-7.0,-12.0,-7.0
1706292316.4713361,-2.0,2.0,-4.0,-12.0,-6.0,-1.0,-1.0,1.0
1706292316.4713361,-2.0,-8.0,-1.0,2.0,-13.0,2.0,-4.0,-1.0
1706292316.5015144,2.0,3.0,-2.0,-6.0,4.0,4.0,3.0,0.0
1706292316.5015144,-3.0,-4.0,-4.0,7.0,5.0,-5.0,-3.0,-2.0
1706292316.5015144,-1.0,-1.0,1.0,-2.0,1.0,-1.0,-5.0,1.0
1706292316.5015144,2.0,0.0,-3.0,-2.0,-3.0,-13.0,-3.0,-2.0
1706292316.5113366,-1.0,-1.0,2.0,6.0,8.0,0.0,-16.0,-3.0
1706292316.5113366,-6.0,-7.0,-1.0,0.0,4.0,12.0,26.0,17.0
1706292316.5113366,5.0,0.0,2.0,0.0,0.0,3.0,13.0,-3.0
1706292316.5113366,-8.0,-3.0,-4.0,-5.0,-3.0,-13.0,-16.0,-20.0
1706292316.5313427,-2.0,4.0,-5.0,-9.0,-8.0,-8.0,-1.0,11.0
1706292316.5313427,-2.0,-6.0,-1.0,-3.0,-9.0,-6.0,-10.0,-17.0
1706292316.5413408,1.0,6.0,3.0,9.0,11.0,4.0,11.0,6.0
1706292316.5413408,1.0,1.0,-6.0,-3.0,-6.0,-1.0,2.0,4.0
1706292316.5514953,-4.0,-5.0,-3.0,-14.0,7.0,3.0,-3.0,-6.0
1706292316.5514953,-3.0,-3.0,-3.0,4.0,-12.0,-5.0,1.0,1.0
1706292316.5514953,-1.0,4.0,8.0,9.0,17.0,7.0,2.0,1.0
1706292316.5514953,1.0,-1.0,-5.0,5.0,1.0,6.0,-5.0,-2.0
1706292316.5831099,1.0,2.0,5.0,6.0,14.0,3.0,3.0,4.0
1706292316.5831099,0.0,-3.0,-4.0,-9.0,-3.0,-5.0,-1.0,1.0
1706292316.5831099,-1.0,-3.0,-3.0,-7.0,-14.0,-6.0,-9.0,-7.0
1706292316.5831099,1.0,-4.0,-1.0,-3.0,-14.0,-5.0,-3.0,8.0
1706292316.5911105,-2.0,-2.0,-4.0,-8.0,2.0,-4.0,2.0,-3.0
1706292316.5911105,2.0,3.0,2.0,15.0,4.0,8.0,-4.0,0.0
1706292316.6071582,-3.0,-4.0,-2.0,3.0,-1.0,5.0,-2.0,-3.0
1706292316.6071582,0.0,1.0,-1.0,-3.0,7.0,4.0,3.0,0.0
1706292316.615204,-2.0,-3.0,-4.0,-5.0,-19.0,-20.0,-24.0,-4.0
1706292316.615204,-1.0,1.0,2.0,-3.0,5.0,14.0,15.0,-4.0
1706292316.6172018,-3.0,-3.0,-4.0,-7.0,-5.0,-8.0,-7.0,-2.0
1706292316.6172018,-2.0,-1.0,-2.0,0.0,1.0,5.0,5.0,-1.0
1706292316.6439512,0.0,4.0,1.0,1.0,5.0,7.0,8.0,-4.0
1706292316.6439512,1.0,-1.0,-3.0,2.0,1.0,-9.0,-28.0,3.0
1706292316.6439512,-1.0,1.0,-2.0,-2.0,-6.0,-18.0,-15.0,1.0
1706292316.6439512,-1.0,-4.0,-6.0,-4.0,-12.0,-1.0,7.0,0.0
1706292316.6512725,2.0,3.0,3.0,4.0,7.0,5.0,-1.0,2.0
1706292316.6512725,-3.0,-2.0,6.0,-5.0,6.0,2.0,4.0,-10.0
1706292316.660289,-1.0,-1.0,-5.0,0.0,-7.0,-3.0,7.0,0.0
1706292316.660289,1.0,3.0,6.0,1.0,6.0,0.0,-9.0,-1.0
1706292316.685538,-1.0,-4.0,-8.0,-5.0,-23.0,-18.0,0.0,-1.0
1706292316.685538,0.0,-3.0,4.0,-3.0,-1.0,2.0,34.0,1.0
1706292316.685538,-2.0,-1.0,4.0,1.0,19.0,14.0,-35.0,-4.0
1706292316.685538,0.0,-1.0,-17.0,8.0,6.0,0.0,-6.0,1.0
1706292316.6969814,4.0,-1.0,2.0,6.0,10.0,3.0,20.0,17.0
1706292316.6969814,-5.0,-2.0,-7.0,-8.0,-12.0,-21.0,-16.0,-6.0
1706292316.698948,-4.0,-3.0,2.0,-9.0,-18.0,-10.0,7.0,-19.0
1706292316.698948,-3.0,-2.0,0.0,-4.0,3.0,10.0,7.0,-2.0
1706292316.7110162,3.0,1.0,1.0,5.0,-2.0,-8.0,-22.0,2.0
1706292316.7110162,-2.0,-4.0,-8.0,-7.0,-4.0,11.0,2.0,-1.0
1706292316.7213645,0.0,-3.0,-4.0,11.0,16.0,7.0,25.0,5.0
1706292316.7213645,-5.0,1.0,8.0,-2.0,3.0,-3.0,-14.0,6.0
1706292316.7510636,-1.0,3.0,-2.0,8.0,7.0,3.0,3.0,-12.0
1706292316.7520626,1.0,-4.0,6.0,3.0,1.0,2.0,0.0,4.0
1706292316.7560623,-3.0,0.0,-6.0,-8.0,-14.0,-1.0,-1.0,1.0
1706292316.7560623,-2.0,-3.0,-1.0,-1.0,-5.0,-5.0,1.0,-2.0
1706292316.7573364,-2.0,2.0,2.0,-2.0,6.0,8.0,0.0,-4.0
1706292316.7573364,2.0,3.0,-3.0,-4.0,-10.0,-4.0,-2.0,0.0
1706292316.7589626,-1.0,-9.0,-5.0,-5.0,-7.0,-3.0,-1.0,2.0
1706292316.7589626,3.0,-1.0,0.0,6.0,16.0,-3.0,-4.0,0.0
1706292316.7713373,-2.0,0.0,4.0,-6.0,-7.0,1.0,1.0,0.0
1706292316.7713373,0.0,0.0,2.0,3.0,2.0,2.0,-6.0,-11.0
1706292316.7806475,0.0,0.0,-17.0,-2.0,0.0,-3.0,0.0,2.0
1706292316.7806475,2.0,0.0,2.0,-5.0,-6.0,-2.0,2.0,-1.0
1706292316.7946577,-4.0,-1.0,-3.0,-3.0,6.0,-1.0,-2.0,-10.0
1706292316.7946577,2.0,-1.0,2.0,0.0,-9.0,6.0,3.0,12.0
1706292316.7966557,2.0,1.0,6.0,-8.0,-10.0,-3.0,-7.0,4.0
1706292316.7966557,-9.0,-5.0,-7.0,6.0,7.0,8.0,27.0,-27.0
1706292316.8180177,0.0,-1.0,-3.0,-2.0,3.0,-9.0,-14.0,23.0
1706292316.8180177,1.0,-2.0,-4.0,-11.0,-2.0,-4.0,23.0,29.0
1706292316.8190167,-5.0,0.0,2.0,11.0,-2.0,1.0,-18.0,-48.0
1706292316.8190167,5.0,2.0,2.0,-1.0,4.0,-10.0,-15.0,18.0
1706292316.8504791,5.0,-1.0,-1.0,-1.0,-7.0,17.0,20.0,2.0
1706292316.8504791,-10.0,0.0,-2.0,0.0,-3.0,-13.0,-20.0,-24.0
1706292316.8504791,3.0,2.0,0.0,0.0,9.0,-3.0,15.0,24.0
1706292316.8504791,-3.0,-2.0,-3.0,-8.0,-13.0,8.0,-4.0,5.0
1706292316.8552449,-2.0,1.0,-1.0,2.0,-3.0,-12.0,4.0,-9.0
1706292316.856289,-3.0,-8.0,-6.0,-3.0,-4.0,3.0,-18.0,13.0
1706292316.856289,-1.0,-1.0,0.0,-3.0,17.0,-5.0,0.0,-7.0
1706292316.856289,-2.0,-6.0,-1.0,2.0,-6.0,-13.0,-9.0,-2.0
1706292316.8778005,-1.0,-6.0,-4.0,-6.0,-13.0,4.0,0.0,0.0
1706292316.8778005,6.0,8.0,2.0,2.0,-9.0,10.0,11.0,10.0
1706292316.87915,-6.0,3.0,7.0,7.0,27.0,7.0,-1.0,-10.0
1706292316.87915,0.0,0.0,-5.0,-6.0,-8.0,2.0,14.0,7.0
1706292316.8911712,-4.0,-3.0,-5.0,-4.0,-8.0,-7.0,-19.0,-5.0
1706292316.8911712,1.0,-1.0,12.0,5.0,11.0,-2.0,-4.0,-14.0
1706292316.9065506,3.0,-1.0,-24.0,-4.0,-14.0,0.0,0.0,14.0
1706292316.9065506,4.0,7.0,5.0,-2.0,-6.0,-4.0,-6.0,2.0
1706292316.9159641,-2.0,-2.0,0.0,5.0,-5.0,-2.0,1.0,-2.0
1706292316.9159641,-4.0,-4.0,-5.0,-5.0,5.0,-9.0,12.0,25.0
1706292316.9170408,8.0,38.0,23.0,7.0,-1.0,-1.0,-20.0,-38.0
1706292316.9170408,-5.0,-55.0,-22.0,-6.0,0.0,0.0,2.0,6.0
1706292316.9368684,-11.0,12.0,-8.0,-6.0,-2.0,-1.0,-6.0,-29.0
1706292316.9368684,-7.0,-4.0,-10.0,1.0,3.0,0.0,12.0,6.0
1706292316.9368684,13.0,26.0,4.0,-3.0,-9.0,-10.0,2.0,100.0
1706292316.9368684,-10.0,32.0,10.0,-4.0,-3.0,-11.0,-10.0,-58.0
1706292316.9513073,2.0,-52.0,10.0,-9.0,4.0,12.0,5.0,11.0
1706292316.9513073,-17.0,-10.0,0.0,3.0,-7.0,-6.0,-14.0,-47.0
1706292316.970339,-5.0,-3.0,4.0,1.0,-4.0,3.0,8.0,30.0
1706292316.970339,5.0,22.0,16.0,3.0,7.0,4.0,-5.0,12.0
1706292316.974834,3.0,2.0,-15.0,11.0,11.0,8.0,9.0,3.0
1706292316.97531,-2.0,3.0,-14.0,-10.0,-5.0,-6.0,-7.0,-9.0
1706292316.9763367,-7.0,-32.0,-27.0,-16.0,-19.0,-7.0,1.0,-15.0
1706292316.9763367,2.0,1.0,-6.0,7.0,12.0,9.0,2.0,10.0
1706292316.9974077,-5.0,-1.0,-8.0,5.0,-2.0,-9.0,-5.0,-10.0
1706292316.9974077,6.0,10.0,36.0,3.0,6.0,1.0,-5.0,3.0
1706292316.998399,-3.0,-12.0,0.0,3.0,-8.0,2.0,2.0,-18.0
1706292316.999456,1.0,2.0,13.0,-3.0,-7.0,-5.0,-4.0,1.0
1706292317.0100403,0.0,12.0,-4.0,0.0,-2.0,-2.0,1.0,3.0
1706292317.0100403,4.0,-6.0,-11.0,-2.0,-7.0,-5.0,-8.0,-3.0
1706292317.0291886,-2.0,16.0,7.0,-4.0,0.0,6.0,5.0,-12.0
1706292317.0291886,-2.0,-19.0,-25.0,-5.0,-4.0,-7.0,-5.0,-1.0
1706292317.0355003,-8.0,-53.0,1.0,-6.0,-4.0,-4.0,-1.0,-3.0
1706292317.0355003,0.0,20.0,-16.0,6.0,2.0,7.0,0.0,-4.0
1706292317.0368903,1.0,9.0,27.0,13.0,24.0,6.0,5.0,-8.0
1706292317.0368903,0.0,3.0,-10.0,-6.0,1.0,0.0,-1.0,0.0
1706292317.0573618,2.0,13.0,3.0,-1.0,6.0,3.0,-1.0,0.0
1706292317.0573618,-2.0,-26.0,-19.0,-11.0,-14.0,-14.0,-8.0,-7.0
1706292317.0596426,-1.0,-1.0,1.0,-8.0,-12.0,1.0,-3.0,-1.0
1706292317.0596426,2.0,1.0,0.0,-2.0,-6.0,4.0,18.0,15.0
1706292317.0799215,-9.0,8.0,11.0,-11.0,-6.0,-5.0,-2.0,-21.0
1706292317.0799215,3.0,7.0,7.0,8.0,9.0,2.0,-3.0,0.0
1706292317.0799215,-6.0,-19.0,-18.0,2.0,3.0,-4.0,-3.0,-12.0
1706292317.0799215,3.0,-4.0,5.0,-2.0,4.0,3.0,-7.0,5.0
1706292317.0944204,-3.0,7.0,-4.0,-1.0,-9.0,-4.0,-1.0,21.0
1706292317.0944204,11.0,5.0,4.0,-3.0,-5.0,-1.0,-1.0,1.0
1706292317.0964284,-17.0,-13.0,-7.0,-5.0,-2.0,1.0,2.0,-39.0
1706292317.0964284,-3.0,1.0,6.0,2.0,-2.0,-13.0,-13.0,-5.0
1706292317.1097407,2.0,10.0,1.0,7.0,4.0,14.0,6.0,-2.0
1706292317.1097407,-2.0,0.0,-4.0,-6.0,-3.0,-2.0,-3.0,0.0
1706292317.1097407,1.0,-9.0,27.0,-5.0,-17.0,-7.0,-3.0,2.0
1706292317.1097407,-2.0,3.0,-21.0,-4.0,-10.0,-11.0,12.0,-8.0
1706292317.149168,3.0,8.0,9.0,14.0,23.0,5.0,-18.0,3.0
1706292317.149168,-3.0,-9.0,0.0,5.0,14.0,18.0,8.0,37.0
1706292317.149168,3.0,2.0,-5.0,0.0,5.0,-4.0,-13.0,1.0
1706292317.149168,-9.0,2.0,19.0,-1.0,-1.0,4.0,2.0,-17.0
1706292317.1539774,11.0,24.0,18.0,0.0,-9.0,-5.0,6.0,17.0
1706292317.1539774,2.0,-8.0,-21.0,-7.0,-7.0,-9.0,-2.0,-12.0
1706292317.1607742,1.0,-12.0,-5.0,-10.0,-19.0,-11.0,-5.0,4.0
1706292317.1617725,-4.0,-2.0,5.0,5.0,-3.0,6.0,-10.0,-3.0
1706292317.1776946,-1.0,7.0,6.0,8.0,14.0,-1.0,-6.0,-11.0
1706292317.1776946,2.0,8.0,18.0,4.0,11.0,8.0,13.0,2.0
1706292317.1796794,0.0,-1.0,-23.0,-11.0,-12.0,0.0,8.0,3.0
1706292317.1796794,0.0,-2.0,11.0,-7.0,-20.0,-21.0,-8.0,-2.0
1706292317.2003403,-1.0,0.0,-9.0,8.0,23.0,10.0,3.0,-2.0
1706292317.2003403,3.0,10.0,39.0,5.0,-2.0,4.0,-2.0,-4.0
1706292317.2015736,-2.0,-11.0,-17.0,-16.0,3.0,13.0,2.0,-12.0
1706292317.2015736,-5.0,-2.0,-9.0,15.0,9.0,-12.0,12.0,25.0
1706292317.2143562,0.0,-2.0,4.0,-9.0,-6.0,6.0,-6.0,-1.0
1706292317.2143562,-2.0,3.0,-2.0,13.0,-5.0,-20.0,-18.0,-10.0
1706292317.2212543,1.0,2.0,12.0,10.0,12.0,11.0,26.0,7.0
1706292317.2212543,-3.0,-6.0,-2.0,-16.0,-18.0,1.0,-26.0,-13.0
1706292317.2366517,-3.0,-8.0,-21.0,-10.0,-16.0,-15.0,6.0,2.0
1706292317.2366517,-4.0,-4.0,-9.0,1.0,0.0,-7.0,-12.0,0.0
1706292317.2366517,1.0,-1.0,-1.0,0.0,5.0,5.0,4.0,4.0
1706292317.2366517,5.0,1.0,0.0,16.0,26.0,11.0,10.0,4.0
1706292317.2663944,-4.0,-5.0,-7.0,-16.0,-17.0,-19.0,-8.0,-13.0
1706292317.2663944,-2.0,-1.0,-7.0,-8.0,-5.0,16.0,3.0,-7.0
1706292317.2663944,4.0,6.0,5.0,13.0,3.0,-9.0,-3.0,7.0
1706292317.2663944,-3.0,-6.0,-8.0,-11.0,4.0,0.0,-8.0,-8.0
1706292317.2663944,-1.0,-1.0,4.0,1.0,-8.0,6.0,11.0,-2.0
1706292317.2663944,-6.0,-4.0,-12.0,-10.0,-13.0,-13.0,-4.0,-2.0
1706292317.286445,1.0,3.0,-1.0,-4.0,1.0,3.0,9.0,-1.0
1706292317.286445,3.0,3.0,5.0,8.0,12.0,0.0,-14.0,4.0
1706292317.3103583,-1.0,3.0,-4.0,-5.0,-9.0,-4.0,-5.0,-14.0
1706292317.3103583,-1.0,-5.0,-2.0,2.0,10.0,9.0,10.0,13.0
1706292317.311358,1.0,-2.0,7.0,-2.0,-7.0,-18.0,-22.0,-7.0
1706292317.311358,-2.0,-3.0,-5.0,-2.0,-4.0,25.0,32.0,-9.0
1706292317.320478,0.0,0.0,-4.0,4.0,8.0,-2.0,2.0,-3.0
1706292317.320478,-4.0,2.0,2.0,-5.0,5.0,-2.0,-5.0,-15.0
1706292317.3214245,-6.0,-5.0,-5.0,5.0,-6.0,4.0,0.0,2.0
1706292317.3214245,2.0,4.0,8.0,-6.0,-19.0,-17.0,-11.0,1.0
1706292317.3262792,-3.0,-4.0,1.0,9.0,9.0,10.0,7.0,-9.0
1706292317.3262792,0.0,-3.0,-4.0,0.0,3.0,7.0,8.0,7.0
1706292317.3364964,-8.0,-2.0,1.0,-8.0,0.0,-3.0,4.0,-13.0
1706292317.3364964,0.0,1.0,-5.0,-6.0,-7.0,-5.0,-16.0,-4.0
1706292317.3567896,-1.0,-6.0,-9.0,-17.0,-7.0,-8.0,-2.0,8.0
1706292317.3567896,0.0,-1.0,-1.0,13.0,0.0,-7.0,-10.0,-2.0
1706292317.358819,-3.0,-5.0,-3.0,7.0,-3.0,-4.0,-3.0,2.0
1706292317.358819,-1.0,-2.0,-8.0,-7.0,-5.0,0.0,1.0,-2.0
1706292317.3811896,-3.0,1.0,0.0,-4.0,-7.0,-11.0,-10.0,-10.0
1706292317.3811896,3.0,-3.0,0.0,0.0,12.0,17.0,14.0,17.0
1706292317.383186,2.0,-1.0,-1.0,-6.0,-3.0,-12.0,-22.0,-1.0
1706292317.383186,2.0,0.0,-3.0,2.0,-6.0,34.0,41.0,5.0
1706292317.393109,2.0,-3.0,2.0,1.0,8.0,-13.0,-45.0,-4.0
1706292317.393109,-3.0,0.0,-3.0,-1.0,-3.0,5.0,9.0,-10.0
1706292317.3951266,0.0,-1.0,-3.0,-2.0,3.0,-8.0,-18.0,2.0
1706292317.3951266,-2.0,-2.0,3.0,6.0,1.0,-17.0,-12.0,3.0
1706292317.4251468,0.0,2.0,2.0,-6.0,-13.0,17.0,23.0,4.0
1706292317.4251468,0.0,0.0,-5.0,2.0,-1.0,-24.0,-21.0,-7.0
1706292317.4251468,-2.0,-2.0,-3.0,-8.0,8.0,30.0,19.0,4.0
1706292317.4251468,0.0,-3.0,-2.0,10.0,7.0,3.0,2.0,-2.0
1706292317.4352484,1.0,1.0,-1.0,4.0,-5.0,5.0,12.0,3.0
1706292317.4352484,-1.0,-1.0,-1.0,-8.0,-10.0,-32.0,-14.0,-7.0
1706292317.4352484,1.0,1.0,0.0,1.0,-3.0,7.0,-5.0,3.0
1706292317.4352484,-1.0,0.0,0.0,-7.0,5.0,6.0,-1.0,-5.0
1706292317.445394,1.0,2.0,0.0,2.0,-1.0,-18.0,6.0,8.0
1706292317.445394,-3.0,-2.0,-2.0,-6.0,-3.0,19.0,25.0,-5.0
1706292317.4557486,0.0,-1.0,0.0,0.0,-3.0,-17.0,8.0,0.0
1706292317.4557486,-2.0,-2.0,-3.0,-3.0,0.0,-5.0,-17.0,-5.0
1706292317.475427,-1.0,-3.0,-3.0,0.0,-10.0,-2.0,-5.0,3.0
1706292317.475427,0.0,-3.0,0.0,-6.0,7.0,-10.0,15.0,0.0
1706292317.475427,0.0,2.0,3.0,13.0,0.0,14.0,-18.0,0.0
1706292317.475427,6.0,2.0,0.0,-3.0,-2.0,-5.0,-1.0,-3.0
1706292317.4958022,-3.0,-2.0,-2.0,0.0,2.0,-9.0,-7.0,-1.0
1706292317.4958022,-3.0,-3.0,-2.0,-6.0,-1.0,9.0,3.0,-4.0
1706292317.4958022,0.0,1.0,1.0,4.0,0.0,-1.0,12.0,-1.0
1706292317.4958022,-4.0,-3.0,1.0,-3.0,-5.0,-9.0,-6.0,2.0
1706292317.5154903,-2.0,-4.0,-6.0,-9.0,-17.0,-4.0,-5.0,-1.0
1706292317.5154903,-1.0,-2.0,1.0,12.0,4.0,-9.0,-15.0,-3.0
1706292317.5255356,-1.0,-4.0,-5.0,-5.0,16.0,24.0,13.0,-2.0
1706292317.5255356,-2.0,0.0,-1.0,1.0,-3.0,-14.0,5.0,2.0
1706292317.535792,-3.0,-2.0,-2.0,2.0,1.0,16.0,-7.0,-3.0
1706292317.535792,-1.0,-2.0,0.0,-3.0,-16.0,-9.0,-14.0,-4.0
1706292317.535792,2.0,3.0,7.0,6.0,19.0,6.0,-2.0,3.0
1706292317.535792,-3.0,-5.0,-7.0,8.0,5.0,-17.0,-3.0,-1.0
1706292317.5603456,1.0,-1.0,-1.0,-1.0,4.0,9.0,17.0,0.0
1706292317.5603456,-1.0,0.0,-2.0,-12.0,-11.0,-12.0,-15.0,-1.0
1706292317.5618925,-2.0,-4.0,-4.0,-6.0,-17.0,-14.0,-10.0,-4.0
1706292317.5618925,2.0,3.0,0.0,-3.0,28.0,8.0,-1.0,2.0
1706292317.5758586,-1.0,-2.0,0.0,6.0,-17.0,-8.0,-5.0,1.0
1706292317.5758586,-1.0,3.0,0.0,-1.0,11.0,9.0,-4.0,-1.0
1706292317.5758586,-6.0,-3.0,-4.0,2.0,-9.0,-15.0,5.0,1.0
1706292317.5758586,-2.0,0.0,-3.0,-11.0,-16.0,2.0,-3.0,-1.0
1706292317.5961804,-1.0,-3.0,0.0,4.0,6.0,-5.0,-6.0,-3.0
1706292317.5961804,3.0,0.0,0.0,-1.0,8.0,11.0,16.0,1.0
1706292317.5961804,1.0,4.0,0.0,4.0,1.0,-7.0,6.0,0.0
1706292317.5961804,-3.0,0.0,2.0,0.0,-7.0,-3.0,-19.0,-2.0
1706292317.6162043,-3.0,-1.0,-2.0,-1.0,10.0,5.0,8.0,-1.0
1706292317.6162043,-3.0,-3.0,-4.0,2.0,-6.0,4.0,-3.0,-2.0
1706292317.6162043,-1.0,-4.0,-4.0,-15.0,-15.0,-26.0,-6.0,-1.0
1706292317.6162043,1.0,-2.0,1.0,8.0,-2.0,13.0,-6.0,-2.0
1706292317.6358614,0.0,1.0,3.0,-5.0,0.0,-24.0,-12.0,2.0
1706292317.6358614,-2.0,-1.0,-6.0,0.0,10.0,13.0,10.0,-5.0
1706292317.6458917,-1.0,-3.0,-4.0,-1.0,-7.0,-12.0,-4.0,-1.0
1706292317.6458917,-2.0,0.0,-2.0,-7.0,-22.0,3.0,7.0,-1.0
1706292317.6578693,-3.0,-3.0,2.0,0.0,24.0,7.0,-4.0,-2.0
1706292317.6578693,1.0,3.0,3.0,7.0,0.0,-3.0,-8.0,1.0
1706292317.6578693,2.0,1.0,2.0,7.0,2.0,-2.0,1.0,-2.0
1706292317.6578693,-2.0,-3.0,-2.0,-7.0,2.0,-15.0,-19.0,-1.0
1706292317.7008767,2.0,2.0,-2.0,-2.0,5.0,15.0,17.0,0.0
1706292317.7018764,-6.0,-7.0,0.0,0.0,-23.0,-7.0,-25.0,-5.0
1706292317.7070851,-1.0,0.0,-3.0,-9.0,-1.0,6.0,2.0,-2.0
1706292317.7070851,1.0,1.0,-2.0,6.0,7.0,2.0,2.0,2.0
1706292317.7070851,-2.0,-5.0,0.0,1.0,12.0,5.0,3.0,-3.0
1706292317.7070851,1.0,0.0,0.0,3.0,10.0,1.0,0.0,0.0
1706292317.7070851,-2.0,-3.0,-2.0,-5.0,-13.0,-5.0,-7.0,-2.0
1706292317.7070851,-2.0,4.0,-3.0,-5.0,-4.0,2.0,5.0,-4.0
1706292317.7171292,2.0,-7.0,-2.0,1.0,-9.0,-3.0,-1.0,-1.0
1706292317.7171292,4.0,8.0,-2.0,-4.0,-2.0,-18.0,0.0,1.0
1706292317.719188,-9.0,-14.0,-2.0,-4.0,1.0,15.0,-8.0,-3.0
1706292317.719188,-3.0,-3.0,-3.0,-3.0,-14.0,-2.0,1.0,-6.0
1706292317.7490997,0.0,2.0,1.0,4.0,10.0,11.0,11.0,-1.0
1706292317.7490997,1.0,-1.0,4.0,-3.0,9.0,2.0,-3.0,1.0
1706292317.7490997,4.0,2.0,-1.0,12.0,6.0,-7.0,-3.0,0.0
1706292317.7490997,0.0,-2.0,-3.0,-2.0,-14.0,-15.0,-5.0,-2.0
1706292317.754116,0.0,-1.0,-2.0,-8.0,-31.0,-13.0,-1.0,-2.0
1706292317.754116,-1.0,-3.0,-3.0,4.0,18.0,11.0,-23.0,-3.0
1706292317.7592843,-1.0,4.0,3.0,5.0,11.0,23.0,25.0,2.0
1706292317.7592843,-2.0,-6.0,-2.0,-7.0,6.0,0.0,3.0,0.0
1706292317.769343,-2.0,0.0,-4.0,-7.0,-26.0,-10.0,-10.0,-4.0
1706292317.769343,0.0,-2.0,-2.0,-4.0,-5.0,-9.0,7.0,0.0
1706292317.7793381,0.0,1.0,-4.0,-2.0,1.0,2.0,-5.0,-3.0
1706292317.7793381,0.0,-4.0,4.0,12.0,22.0,1.0,-3.0,2.0
1706292317.8193226,-3.0,0.0,-3.0,-6.0,-16.0,-5.0,3.0,0.0
1706292317.8193226,-2.0,-3.0,-2.0,-2.0,0.0,-11.0,-4.0,-3.0
1706292317.8193226,-3.0,-2.0,0.0,2.0,7.0,24.0,1.0,1.0
1706292317.8193226,0.0,0.0,1.0,1.0,2.0,8.0,13.0,-1.0
1706292317.8193226,-2.0,1.0,-2.0,-3.0,0.0,0.0,5.0,-2.0
1706292317.8193226,-6.0,-5.0,-2.0,-7.0,-19.0,-18.0,-13.0,-3.0
1706292317.8193226,-1.0,2.0,-1.0,-11.0,-4.0,-4.0,2.0,3.0
1706292317.8193226,5.0,2.0,5.0,21.0,21.0,15.0,2.0,1.0
1706292317.8296084,-2.0,3.0,0.0,5.0,8.0,-1.0,1.0,2.0
1706292317.8296084,-1.0,0.0,-4.0,-15.0,-17.0,7.0,11.0,-1.0
1706292317.839311,0.0,-2.0,-1.0,-4.0,-4.0,-17.0,-12.0,-2.0
1706292317.839311,0.0,1.0,5.0,16.0,1.0,3.0,4.0,1.0
1706292317.8596122,-2.0,-3.0,-3.0,2.0,18.0,1.0,-3.0,-1.0
1706292317.8596122,-1.0,0.0,1.0,3.0,-1.0,8.0,-5.0,-1.0
1706292317.8596122,-2.0,-2.0,-5.0,-17.0,-19.0,-19.0,-12.0,-4.0
1706292317.8596122,0.0,-1.0,-4.0,-20.0,-14.0,-7.0,5.0,1.0
1706292317.8696456,-1.0,-3.0,-5.0,5.0,1.0,-12.0,-22.0,-2.0
1706292317.8696456,0.0,-3.0,-1.0,-8.0,-8.0,11.0,9.0,2.0
1706292317.8799436,1.0,-2.0,-2.0,20.0,24.0,15.0,6.0,-1.0
1706292317.8799436,-2.0,-1.0,1.0,-2.0,16.0,-18.0,-11.0,-2.0
1706292317.8899455,2.0,2.0,2.0,-5.0,-14.0,22.0,30.0,1.0
1706292317.8899455,-5.0,-1.0,-1.0,-4.0,3.0,-7.0,-9.0,-3.0
1706292317.899613,-1.0,-9.0,-2.0,1.0,-14.0,-15.0,2.0,-1.0
1706292317.899613,0.0,3.0,-2.0,-2.0,1.0,12.0,9.0,-1.0
1706292317.919681,-2.0,1.0,-1.0,-8.0,3.0,-8.0,-9.0,-1.0
1706292317.919681,-1.0,0.0,0.0,12.0,-2.0,-6.0,3.0,-2.0
1706292317.9214442,2.0,-16.0,-1.0,-2.0,10.0,10.0,-3.0,0.0
1706292317.9214442,2.0,6.0,-2.0,-8.0,-15.0,-12.0,-7.0,-8.0
1706292317.933499,1.0,-1.0,2.0,-3.0,4.0,5.0,-1.0,2.0
1706292317.933499,-3.0,-2.0,0.0,13.0,5.0,8.0,24.0,2.0
1706292317.9420097,-2.0,5.0,0.0,-6.0,-9.0,-18.0,-22.0,-4.0
1706292317.9420097,-3.0,-1.0,0.0,-6.0,-5.0,5.0,1.0,2.0
1706292317.9571362,-1.0,-5.0,-6.0,-7.0,-29.0,-21.0,-13.0,-3.0
1706292317.9571362,-1.0,2.0,-1.0,0.0,15.0,21.0,7.0,-2.0
1706292317.9591444,-2.0,5.0,6.0,20.0,19.0,-13.0,2.0,0.0
1706292317.9591444,-5.0,-7.0,-3.0,-18.0,-15.0,22.0,20.0,0.0
1706292317.9794002,0.0,3.0,-1.0,12.0,2.0,-23.0,-26.0,1.0
1706292317.9794002,0.0,-1.0,-1.0,-3.0,2.0,0.0,6.0,-4.0
1706292317.9814737,-2.0,1.0,-3.0,-7.0,-17.0,4.0,-3.0,-3.0
1706292317.9814737,-1.0,-2.0,-1.0,-2.0,-19.0,-15.0,-11.0,-1.0
1706292318.0033453,-2.0,-3.0,-1.0,-6.0,17.0,19.0,-3.0,-4.0
1706292318.0033453,1.0,0.0,-2.0,0.0,-4.0,-14.0,-16.0,-3.0
1706292318.0043848,0.0,3.0,0.0,1.0,-1.0,-2.0,6.0,1.0
1706292318.0043848,0.0,-1.0,2.0,6.0,13.0,2.0,4.0,0.0
1706292318.0170107,1.0,0.0,-1.0,-2.0,-1.0,6.0,1.0,-1.0
1706292318.0170107,-3.0,-5.0,-2.0,-6.0,-11.0,-4.0,-1.0,1.0
1706292318.0191157,-2.0,2.0,-1.0,-9.0,-5.0,3.0,11.0,-4.0
1706292318.0191157,-10.0,-10.0,-2.0,-2.0,-13.0,-29.0,-31.0,-3.0
1706292318.0405211,-2.0,-1.0,-3.0,9.0,22.0,47.0,35.0,1.0
1706292318.0405211,-1.0,-2.0,-3.0,-1.0,-4.0,-9.0,-8.0,0.0
1706292318.0424657,0.0,1.0,-2.0,-2.0,-2.0,-2.0,-4.0,1.0
1706292318.0424657,2.0,1.0,-2.0,2.0,3.0,-8.0,1.0,1.0
1706292318.0589519,-2.0,-1.0,4.0,-3.0,-8.0,-10.0,10.0,-3.0
1706292318.0589519,0.0,1.0,0.0,2.0,2.0,3.0,-4.0,0.0
1706292318.0589519,0.0,-1.0,0.0,-3.0,-8.0,2.0,8.0,-1.0
1706292318.0589519,-1.0,2.0,2.0,11.0,15.0,4.0,0.0,-1.0
1706292318.0691688,-4.0,-4.0,-1.0,-5.0,-5.0,-6.0,-6.0,-2.0
1706292318.0691688,0.0,-4.0,-6.0,-9.0,-13.0,-5.0,10.0,1.0
1706292318.0789535,-5.0,-2.0,-3.0,-14.0,-14.0,-1.0,-22.0,-3.0
1706292318.0789535,1.0,-1.0,-1.0,13.0,24.0,7.0,10.0,-1.0
1706292318.1089473,2.0,1.0,1.0,0.0,11.0,-21.0,-26.0,0.0
1706292318.1089473,4.0,3.0,2.0,-4.0,-8.0,10.0,17.0,4.0
1706292318.1089473,0.0,-1.0,-2.0,-6.0,-1.0,5.0,5.0,-2.0
1706292318.1089473,-2.0,-2.0,-2.0,-11.0,-19.0,0.0,-1.0,0.0
1706292318.119152,1.0,1.0,1.0,-6.0,2.0,-4.0,-6.0,-1.0
1706292318.119152,-1.0,-2.0,2.0,25.0,15.0,-7.0,-5.0,-1.0
1706292318.119152,-1.0,5.0,4.0,6.0,9.0,5.0,1.0,-1.0
1706292318.119152,-3.0,-4.0,-4.0,-10.0,-5.0,0.0,-10.0,-2.0
1706292318.1291695,-2.0,-1.0,-4.0,-4.0,-21.0,-1.0,21.0,-2.0
1706292318.1291695,-2.0,-2.0,0.0,-12.0,4.0,10.0,-19.0,-3.0
1706292318.1389556,-1.0,0.0,-2.0,12.0,-2.0,-3.0,8.0,-2.0
1706292318.1389556,1.0,-2.0,2.0,3.0,11.0,8.0,19.0,1.0
1706292318.1789513,-1.0,0.0,1.0,-3.0,0.0,-16.0,-11.0,0.0
1706292318.1789513,-2.0,1.0,-1.0,0.0,-14.0,-3.0,7.0,-1.0
1706292318.1789513,-4.0,-3.0,-3.0,0.0,1.0,-2.0,-6.0,-2.0
1706292318.1789513,-1.0,0.0,-5.0,-12.0,-9.0,-1.0,-10.0,-1.0
1706292318.1789513,3.0,-2.0,-1.0,6.0,8.0,7.0,10.0,1.0
1706292318.1789513,-2.0,-1.0,-1.0,-1.0,1.0,-3.0,-3.0,-1.0
1706292318.1789513,-1.0,-2.0,0.0,-4.0,-3.0,-13.0,-10.0,-1.0
1706292318.1789513,0.0,3.0,3.0,-3.0,-13.0,-5.0,-2.0,-1.0
1706292318.1889472,-2.0,2.0,7.0,8.0,1.0,-10.0,-6.0,-1.0
1706292318.1889472,-3.0,-3.0,-14.0,-4.0,6.0,7.0,-15.0,-7.0
1706292318.1989768,-2.0,-3.0,-4.0,-6.0,-8.0,4.0,13.0,19.0
1706292318.1989768,0.0,-2.0,-5.0,3.0,4.0,28.0,20.0,-25.0
1706292318.219141,-4.0,-6.0,-3.0,-3.0,-5.0,-21.0,-25.0,-4.0
1706292318.219141,0.0,2.0,14.0,-1.0,-6.0,-20.0,-23.0,-6.0
1706292318.219141,1.0,-1.0,0.0,-2.0,3.0,2.0,11.0,0.0
1706292318.219141,-2.0,-6.0,-11.0,2.0,0.0,-6.0,-4.0,8.0
1706292318.2390113,-1.0,-1.0,1.0,3.0,-1.0,1.0,-1.0,-1.0
1706292318.2390113,-1.0,0.0,-2.0,-1.0,6.0,12.0,21.0,2.0
1706292318.2390113,3.0,3.0,7.0,-11.0,-10.0,-8.0,-11.0,-5.0
1706292318.2390113,-3.0,-1.0,7.0,2.0,2.0,-5.0,-5.0,2.0
1706292318.2708519,2.0,0.0,-6.0,17.0,6.0,13.0,5.0,-2.0
1706292318.2708519,-1.0,-2.0,4.0,1.0,-9.0,-5.0,-5.0,3.0
1706292318.2708519,2.0,-1.0,-3.0,4.0,10.0,-6.0,-9.0,-4.0
1706292318.2708519,0.0,1.0,-2.0,-7.0,-7.0,-8.0,-11.0,3.0
1706292318.2796683,0.0,1.0,-5.0,-15.0,-21.0,3.0,6.0,2.0
1706292318.2796683,-2.0,-3.0,-4.0,-9.0,8.0,4.0,11.0,0.0
1706292318.2816436,0.0,1.0,16.0,8.0,3.0,-11.0,-10.0,-3.0
1706292318.2816436,-1.0,-4.0,-31.0,-2.0,1.0,11.0,-12.0,-3.0
1706292318.3026803,-1.0,2.0,11.0,-4.0,1.0,7.0,4.0,-1.0
1706292318.3026803,6.0,4.0,-2.0,-1.0,-9.0,-14.0,-39.0,15.0
1706292318.3037078,-4.0,-11.0,-3.0,3.0,6.0,-3.0,26.0,-20.0
1706292318.3037078,-1.0,-1.0,14.0,3.0,3.0,-34.0,-29.0,-3.0
1706292318.3222282,1.0,-1.0,-3.0,-8.0,-2.0,57.0,61.0,8.0
1706292318.3222282,-7.0,-5.0,-10.0,-3.0,4.0,-2.0,-7.0,-9.0
1706292318.3232524,-2.0,-2.0,11.0,-3.0,2.0,-4.0,-32.0,9.0
1706292318.3232524,2.0,0.0,-5.0,-4.0,-13.0,-4.0,5.0,5.0
1706292318.3409793,2.0,3.0,5.0,11.0,11.0,-11.0,-11.0,-6.0
1706292318.3418903,-1.0,0.0,9.0,2.0,1.0,0.0,7.0,-2.0
1706292318.3428984,-1.0,2.0,-15.0,-8.0,-7.0,-21.0,-7.0,-2.0
1706292318.3428984,-1.0,-5.0,-1.0,5.0,1.0,2.0,8.0,-1.0
1706292318.3625162,0.0,-1.0,-1.0,-5.0,2.0,0.0,-28.0,1.0
1706292318.3625162,-2.0,-6.0,-2.0,-2.0,-10.0,-14.0,10.0,-3.0
1706292318.363541,0.0,-1.0,-14.0,4.0,10.0,-1.0,-9.0,-1.0
1706292318.363541,1.0,6.0,12.0,4.0,11.0,25.0,18.0,3.0
1706292318.3782396,-2.0,-4.0,-20.0,-7.0,-10.0,-12.0,-19.0,2.0
1706292318.3782396,-3.0,3.0,16.0,3.0,9.0,5.0,11.0,-1.0
1706292318.3846793,1.0,3.0,1.0,-5.0,-13.0,23.0,-5.0,0.0
1706292318.3846793,-4.0,-4.0,2.0,-9.0,-11.0,-13.0,13.0,1.0
1706292318.3996878,-2.0,-10.0,-25.0,-5.0,2.0,-15.0,-35.0,-3.0
1706292318.3996878,-3.0,1.0,1.0,0.0,-11.0,-4.0,52.0,-1.0
1706292318.4016297,-2.0,-4.0,-7.0,-1.0,4.0,-11.0,-50.0,-2.0
1706292318.4016297,1.0,3.0,16.0,0.0,5.0,4.0,26.0,27.0
1706292318.422238,-2.0,0.0,6.0,1.0,1.0,-2.0,-19.0,-37.0
1706292318.422238,0.0,4.0,-2.0,-17.0,-11.0,-12.0,-15.0,-2.0
1706292318.4239345,0.0,0.0,0.0,14.0,-7.0,20.0,29.0,1.0
1706292318.4239345,0.0,1.0,6.0,15.0,15.0,-17.0,-21.0,4.0
1706292318.4368005,-2.0,-7.0,-16.0,-11.0,-3.0,-4.0,29.0,6.0
1706292318.4368005,2.0,5.0,10.0,-9.0,-2.0,39.0,-3.0,-1.0
1706292318.4448054,0.0,-1.0,-6.0,-15.0,-23.0,6.0,16.0,1.0
1706292318.4448054,-3.0,-4.0,6.0,-1.0,15.0,-6.0,-23.0,-6.0
1706292318.458301,-1.0,5.0,16.0,16.0,5.0,-24.0,18.0,23.0
1706292318.458301,-1.0,-1.0,-13.0,4.0,7.0,6.0,-60.0,-37.0
1706292318.458301,-5.0,-3.0,0.0,-4.0,-1.0,-11.0,-4.0,1.0
1706292318.458301,0.0,0.0,-4.0,-5.0,-10.0,14.0,2.0,-10.0
1706292318.484803,-3.0,-3.0,3.0,-4.0,2.0,-6.0,12.0,-1.0
1706292318.484803,0.0,-5.0,-5.0,8.0,-6.0,-3.0,8.0,9.0
1706292318.484803,-3.0,-2.0,2.0,4.0,0.0,-5.0,1.0,-5.0
1706292318.484803,0.0,-3.0,-13.0,-6.0,-11.0,-9.0,-6.0,-9.0
1706292318.4973142,-1.0,2.0,6.0,-6.0,7.0,8.0,-6.0,0.0
1706292318.4973142,2.0,-1.0,-1.0,10.0,1.0,-5.0,8.0,9.0
1706292318.5055487,0.0,-6.0,-18.0,-15.0,-8.0,-4.0,2.0,-5.0
1706292318.5055487,-2.0,6.0,12.0,-21.0,-12.0,-6.0,4.0,-2.0
1706292318.5190027,-1.0,-6.0,-7.0,20.0,4.0,8.0,-7.0,0.0
1706292318.5190027,-2.0,-3.0,-6.0,2.0,12.0,2.0,5.0,1.0
1706292318.5297604,-1.0,1.0,5.0,4.0,6.0,-7.0,11.0,11.0
1706292318.5307622,-2.0,-2.0,-10.0,-4.0,2.0,-5.0,-27.0,-29.0
1706292318.5428157,-5.0,-1.0,4.0,-10.0,5.0,8.0,8.0,-1.0
1706292318.5438046,0.0,-2.0,-1.0,7.0,-9.0,-9.0,35.0,6.0
1706292318.5448313,-4.0,-1.0,-1.0,-14.0,1.0,4.0,-19.0,1.0
1706292318.5448313,1.0,-4.0,-4.0,2.0,-11.0,-23.0,-23.0,0.0
1706292318.5562646,1.0,2.0,3.0,9.0,3.0,-11.0,-47.0,-8.0
1706292318.5572884,-3.0,-4.0,-5.0,-6.0,3.0,12.0,23.0,1.0
1706292318.5714047,0.0,-1.0,0.0,5.0,6.0,-17.0,3.0,2.0
1706292318.5714047,5.0,7.0,-1.0,-2.0,-1.0,15.0,16.0,7.0
1706292318.597478,1.0,2.0,12.0,-1.0,-7.0,-1.0,6.0,-3.0
1706292318.597478,1.0,-2.0,-25.0,-7.0,-6.0,-12.0,-21.0,0.0
1706292318.5994775,-1.0,-4.0,-5.0,-6.0,-10.0,1.0,1.0,-6.0
1706292318.5994775,-2.0,0.0,1.0,4.0,-2.0,-3.0,7.0,-1.0
1706292318.602295,-2.0,1.0,-4.0,-1.0,-5.0,5.0,7.0,-1.0
1706292318.602295,0.0,-7.0,9.0,8.0,20.0,-5.0,-7.0,1.0
1706292318.6041124,0.0,0.0,-5.0,0.0,0.0,10.0,6.0,-2.0
1706292318.6041124,-4.0,-8.0,-10.0,-3.0,0.0,7.0,9.0,0.0
1706292318.6088157,0.0,1.0,0.0,-19.0,-9.0,-6.0,1.0,2.0
1706292318.6088157,-1.0,0.0,-3.0,-7.0,-6.0,-7.0,-7.0,-1.0
1706292318.629065,-1.0,0.0,1.0,16.0,-1.0,0.0,1.0,-7.0
1706292318.629065,-2.0,-3.0,3.0,11.0,2.0,6.0,-1.0,5.0
1706292318.6488361,2.0,1.0,1.0,-13.0,-7.0,-3.0,4.0,0.0
1706292318.6488361,-2.0,-3.0,-15.0,13.0,21.0,9.0,9.0,-1.0
1706292318.6488361,3.0,2.0,5.0,-1.0,13.0,-4.0,-25.0,-1.0
1706292318.6488361,-6.0,-1.0,-2.0,2.0,1.0,22.0,37.0,3.0
1706292318.6592338,0.0,1.0,2.0,-5.0,-6.0,-16.0,-39.0,0.0
1706292318.6592338,-1.0,1.0,8.0,11.0,-5.0,1.0,-23.0,8.0
1706292318.6592338,0.0,-2.0,0.0,-7.0,-9.0,-8.0,-2.0,-21.0
1706292318.6592338,1.0,-4.0,-1.0,-8.0,-7.0,0.0,13.0,4.0
1706292318.6695552,-3.0,0.0,-7.0,3.0,-2.0,-1.0,0.0,3.0
1706292318.6695552,-1.0,-2.0,3.0,-13.0,-11.0,-8.0,-3.0,-6.0
1706292318.6795516,-2.0,0.0,1.0,-3.0,-1.0,2.0,6.0,2.0
1706292318.6795516,3.0,0.0,-4.0,-2.0,10.0,0.0,-15.0,5.0
1706292318.7092433,1.0,-3.0,8.0,10.0,18.0,3.0,17.0,-6.0
1706292318.7092433,2.0,2.0,-2.0,-7.0,-24.0,-6.0,-26.0,4.0
1706292318.7092433,0.0,-1.0,-1.0,3.0,-6.0,26.0,34.0,-7.0
1706292318.7092433,-5.0,1.0,-1.0,-11.0,-2.0,-5.0,-16.0,-4.0
1706292318.719302,-4.0,-8.0,1.0,11.0,-7.0,-8.0,7.0,3.0
1706292318.719302,1.0,1.0,11.0,-4.0,-6.0,-13.0,3.0,0.0
1706292318.719302,-2.0,1.0,0.0,-2.0,-4.0,-15.0,-27.0,0.0
1706292318.719302,1.0,4.0,15.0,11.0,1.0,18.0,19.0,-5.0
1706292318.7359283,-4.0,-3.0,-9.0,-2.0,3.0,-5.0,1.0,-8.0
1706292318.7369277,3.0,-3.0,-15.0,-9.0,10.0,30.0,61.0,30.0
1706292318.7554994,1.0,3.0,-5.0,3.0,12.0,-7.0,-33.0,-24.0
1706292318.7564979,-5.0,-8.0,-17.0,-6.0,-24.0,-29.0,-5.0,-3.0
1706292318.7654977,6.0,9.0,27.0,5.0,5.0,1.0,-16.0,24.0
1706292318.7654977,0.0,3.0,3.0,2.0,-9.0,6.0,39.0,-27.0
1706292318.7654977,0.0,-4.0,-15.0,-8.0,1.0,-3.0,8.0,14.0
1706292318.7654977,3.0,14.0,13.0,-9.0,13.0,9.0,-8.0,4.0
1706292318.7819562,-16.0,-31.0,-34.0,6.0,-15.0,-3.0,7.0,-10.0
1706292318.7819562,0.0,0.0,9.0,-11.0,-8.0,-11.0,-24.0,2.0
1706292318.7838056,-4.0,-6.0,1.0,24.0,13.0,8.0,13.0,10.0
1706292318.7838056,0.0,3.0,-5.0,-24.0,-14.0,-12.0,-20.0,-2.0
1706292318.796075,2.0,14.0,13.0,14.0,3.0,10.0,10.0,2.0
1706292318.796075,-16.0,-45.0,-32.0,-12.0,18.0,0.0,-13.0,-10.0
1706292318.815455,8.0,40.0,14.0,7.0,-3.0,-4.0,-2.0,-4.0
1706292318.815455,-5.0,-12.0,-3.0,5.0,-2.0,-1.0,6.0,2.0
1706292318.8194733,2.0,7.0,17.0,1.0,-10.0,-5.0,7.0,-5.0
1706292318.8194733,6.0,5.0,-11.0,0.0,6.0,2.0,-17.0,-6.0
1706292318.821601,-5.0,-12.0,2.0,-5.0,-8.0,10.0,35.0,7.0
1706292318.821601,-4.0,-4.0,-6.0,-3.0,6.0,-6.0,-14.0,-3.0
1706292318.8418715,1.0,2.0,-1.0,-13.0,-3.0,-2.0,-11.0,-7.0
1706292318.842874,-3.0,7.0,1.0,3.0,-14.0,-12.0,-6.0,0.0
1706292318.843872,-4.0,-5.0,5.0,-3.0,6.0,-5.0,7.0,1.0
1706292318.843872,-3.0,-10.0,-12.0,12.0,7.0,19.0,10.0,0.0
1706292318.8557565,1.0,-2.0,-11.0,-21.0,-7.0,-6.0,-4.0,-10.0
1706292318.8557565,-1.0,2.0,20.0,7.0,0.0,-6.0,-8.0,7.0
1706292318.8720555,0.0,-5.0,2.0,-1.0,3.0,0.0,7.0,4.0
1706292318.8720555,8.0,4.0,-1.0,-11.0,-13.0,-10.0,2.0,6.0
1706292318.88019,-8.0,-1.0,2.0,19.0,27.0,6.0,44.0,-4.0
1706292318.88019,-7.0,2.0,8.0,-1.0,11.0,16.0,-36.0,-33.0
1706292318.8811617,0.0,-9.0,-12.0,-25.0,-19.0,-18.0,-1.0,-2.0
1706292318.8811617,-2.0,-2.0,-11.0,9.0,-14.0,-6.0,-20.0,2.0
1706292318.9099774,1.0,-3.0,-1.0,-8.0,-6.0,-4.0,-8.0,8.0
1706292318.9099774,5.0,6.0,10.0,-1.0,2.0,3.0,67.0,31.0
1706292318.9162757,0.0,0.0,-8.0,4.0,12.0,-24.0,-30.0,-23.0
1706292318.9162757,1.0,-2.0,-5.0,-7.0,18.0,46.0,-9.0,-15.0
1706292318.9320877,-5.0,1.0,-8.0,-15.0,-40.0,-11.0,1.0,-3.0
1706292318.9320877,3.0,4.0,2.0,9.0,8.0,-3.0,10.0,5.0
1706292318.9320877,0.0,1.0,10.0,-12.0,0.0,1.0,-54.0,-1.0
1706292318.9320877,-3.0,-3.0,0.0,3.0,-4.0,-11.0,15.0,8.0
1706292318.940472,5.0,3.0,1.0,10.0,18.0,7.0,-8.0,-12.0
1706292318.940472,0.0,1.0,3.0,2.0,-7.0,-8.0,-14.0,-2.0
1706292318.941311,-2.0,1.0,2.0,0.0,-9.0,5.0,17.0,6.0
1706292318.941311,0.0,2.0,-2.0,-13.0,-7.0,-16.0,-9.0,-10.0
1706292318.9627478,1.0,-2.0,-32.0,8.0,5.0,-1.0,-17.0,2.0
1706292318.9627478,-2.0,-3.0,2.0,-6.0,-3.0,5.0,-7.0,-5.0
1706292318.9647458,-1.0,-6.0,-5.0,6.0,3.0,-10.0,5.0,3.0
1706292318.9647458,-6.0,-2.0,17.0,1.0,-9.0,4.0,10.0,-10.0
1706292318.9936054,11.0,7.0,24.0,-8.0,8.0,32.0,36.0,39.0
1706292318.9936054,-14.0,-4.0,-20.0,4.0,4.0,-29.0,-26.0,-16.0
1706292318.9936054,4.0,6.0,33.0,4.0,-10.0,2.0,-19.0,-34.0
1706292318.9936054,3.0,2.0,-13.0,9.0,13.0,2.0,30.0,25.0
1706292319.0015192,0.0,-2.0,-11.0,-9.0,-11.0,-8.0,-9.0,-10.0
1706292319.0015192,5.0,2.0,9.0,0.0,2.0,40.0,12.0,2.0
1706292319.0015192,-9.0,-11.0,-37.0,-15.0,-4.0,-3.0,-56.0,-12.0
1706292319.0015192,-5.0,-2.0,0.0,9.0,-3.0,-16.0,31.0,6.0
1706292319.0230696,-2.0,-1.0,3.0,5.0,8.0,-27.0,-61.0,-3.0
1706292319.0230696,1.0,5.0,26.0,5.0,7.0,14.0,-10.0,-6.0
1706292319.024013,-1.0,2.0,-9.0,10.0,-2.0,2.0,35.0,21.0
1706292319.024013,6.0,5.0,10.0,1.0,7.0,-41.0,-53.0,-11.0
1706292319.051278,-7.0,-10.0,-16.0,-14.0,-14.0,37.0,38.0,3.0
1706292319.051278,-2.0,-2.0,-3.0,-8.0,-19.0,-5.0,-1.0,-1.0
1706292319.051278,0.0,-3.0,-3.0,7.0,6.0,-2.0,32.0,5.0
1706292319.051278,-2.0,-1.0,5.0,4.0,5.0,-2.0,-18.0,-6.0
1706292319.0589972,-3.0,-2.0,-2.0,-10.0,1.0,2.0,59.0,6.0
1706292319.0589972,0.0,-1.0,0.0,4.0,-6.0,-1.0,-14.0,-1.0
1706292319.0661006,-2.0,-2.0,-5.0,-4.0,-5.0,-3.0,23.0,14.0
1706292319.067021,-2.0,-7.0,-4.0,-2.0,-2.0,5.0,-64.0,-36.0
1706292319.0821555,-3.0,-2.0,-1.0,-5.0,3.0,6.0,19.0,3.0
1706292319.0821555,2.0,2.0,-6.0,-8.0,10.0,-13.0,-39.0,-8.0
1706292319.084139,-4.0,-3.0,18.0,9.0,-2.0,6.0,17.0,11.0
1706292319.084139,1.0,-3.0,-10.0,1.0,4.0,-3.0,20.0,16.0
1706292319.105243,1.0,5.0,17.0,5.0,1.0,-4.0,27.0,-9.0
1706292319.105243,-4.0,2.0,-6.0,-7.0,-14.0,-24.0,-19.0,-12.0
1706292319.1072345,-2.0,-9.0,-46.0,-23.0,-3.0,23.0,-10.0,0.0
1706292319.1072345,-2.0,-2.0,28.0,-10.0,-4.0,4.0,69.0,32.0
1706292319.1201751,-1.0,-1.0,-31.0,2.0,-7.0,-8.0,-57.0,-27.0
1706292319.1201751,5.0,-3.0,21.0,18.0,13.0,-13.0,2.0,8.0
1706292319.1346843,-4.0,5.0,1.0,-35.0,-27.0,-2.0,8.0,-6.0
1706292319.1346843,-5.0,-10.0,-20.0,36.0,14.0,-5.0,-24.0,7.0
1706292319.1435163,2.0,2.0,1.0,-11.0,12.0,11.0,-6.0,-22.0
1706292319.1435163,-2.0,-1.0,9.0,9.0,1.0,8.0,21.0,5.0
1706292319.1445582,2.0,0.0,4.0,-8.0,1.0,-2.0,-9.0,1.0
1706292319.1445582,-2.0,1.0,8.0,3.0,-19.0,-14.0,-2.0,-16.0
1706292319.1678486,-1.0,2.0,11.0,6.0,3.0,4.0,-14.0,9.0
1706292319.1678486,-1.0,-6.0,-29.0,-13.0,7.0,0.0,-2.0,-4.0
1706292319.1678486,-5.0,-5.0,9.0,5.0,2.0,21.0,3.0,-6.0
1706292319.1778457,6.0,9.0,3.0,-10.0,-1.0,-11.0,-10.0,4.0
1706292319.1778457,-4.0,-4.0,0.0,2.0,-9.0,-10.0,-14.0,-2.0
1706292319.1778457,5.0,6.0,-6.0,-9.0,-12.0,-16.0,19.0,-6.0
1706292319.1973379,-4.0,-11.0,-1.0,3.0,-2.0,0.0,-9.0,5.0
1706292319.1973379,-1.0,3.0,6.0,-1.0,-6.0,-1.0,-8.0,-7.0
1706292319.204338,-2.0,-1.0,-5.0,-2.0,8.0,-9.0,-11.0,5.0
1706292319.204338,-2.0,-3.0,-5.0,0.0,3.0,6.0,1.0,5.0
1706292319.204338,2.0,2.0,13.0,11.0,16.0,6.0,8.0,-2.0
1706292319.204338,1.0,-3.0,-15.0,-12.0,-13.0,-6.0,8.0,-9.0
1706292319.2252584,2.0,1.0,9.0,4.0,-4.0,13.0,-2.0,7.0
1706292319.2252584,-6.0,-2.0,-12.0,1.0,5.0,-4.0,-4.0,1.0
1706292319.22626,4.0,4.0,13.0,11.0,10.0,-16.0,10.0,-4.0
1706292319.22626,1.0,-5.0,-11.0,-4.0,5.0,23.0,20.0,7.0
1706292319.2475538,-6.0,-23.0,14.0,-26.0,-23.0,-22.0,-2.0,-3.0
1706292319.2475538,7.0,30.0,-13.0,35.0,4.0,13.0,2.0,10.0
1706292319.2495565,-7.0,-7.0,-19.0,-4.0,10.0,-9.0,-5.0,0.0
1706292319.2495565,-1.0,8.0,0.0,-1.0,-8.0,5.0,0.0,-6.0
1706292319.264553,-3.0,-9.0,-3.0,6.0,7.0,-10.0,-5.0,-1.0
1706292319.264553,0.0,-2.0,-4.0,-15.0,-14.0,-3.0,-1.0,0.0
1706292319.264553,-3.0,-2.0,11.0,-13.0,0.0,6.0,-1.0,-3.0
1706292319.264553,-3.0,2.0,-2.0,-7.0,9.0,-16.0,-13.0,-9.0
1706292319.2933908,-4.0,2.0,-5.0,10.0,-8.0,21.0,-3.0,-3.0
1706292319.2933908,-7.0,-11.0,4.0,-6.0,1.0,-4.0,-22.0,-3.0
1706292319.2944524,5.0,7.0,-2.0,8.0,0.0,-6.0,-4.0,-7.0
1706292319.2944524,-4.0,-10.0,-1.0,-16.0,-8.0,13.0,-1.0,-1.0
1706292319.2998395,1.0,4.0,-2.0,2.0,3.0,-17.0,-20.0,0.0
1706292319.2998395,-3.0,-11.0,-3.0,-11.0,-11.0,-12.0,1.0,-5.0
1706292319.3068476,0.0,-4.0,0.0,-1.0,-12.0,-7.0,-10.0,1.0
1706292319.3068476,-1.0,0.0,-1.0,9.0,12.0,34.0,22.0,-1.0
1706292319.322565,-2.0,-4.0,-5.0,2.0,10.0,9.0,15.0,11.0
1706292319.3235667,0.0,2.0,3.0,-5.0,-1.0,0.0,-5.0,-9.0
1706292319.3245687,-1.0,-1.0,-2.0,-5.0,0.0,-7.0,-6.0,6.0
1706292319.3245687,0.0,-2.0,-2.0,3.0,-7.0,-17.0,-5.0,-6.0
1706292319.3559306,1.0,2.0,-1.0,1.0,0.0,-8.0,1.0,4.0
1706292319.3559306,0.0,-2.0,3.0,-4.0,3.0,-7.0,6.0,2.0
1706292319.3559306,0.0,-1.0,1.0,7.0,-10.0,18.0,15.0,3.0
1706292319.3559306,1.0,1.0,5.0,19.0,27.0,13.0,16.0,5.0
1706292319.3591347,-1.0,0.0,-4.0,-14.0,-6.0,-5.0,-10.0,-5.0
1706292319.3591347,0.0,-4.0,-3.0,-8.0,-4.0,-11.0,-3.0,1.0
1706292319.3660853,0.0,0.0,-2.0,-3.0,-10.0,-10.0,7.0,-3.0
1706292319.3660853,-1.0,-2.0,-3.0,-18.0,-20.0,-7.0,-37.0,-3.0
1706292319.3840082,-2.0,3.0,1.0,4.0,2.0,-17.0,11.0,-9.0
1706292319.3840082,2.0,-1.0,24.0,1.0,-4.0,12.0,0.0,0.0
1706292319.3840082,0.0,1.0,-26.0,9.0,7.0,23.0,35.0,8.0
1706292319.3840082,-3.0,-5.0,14.0,-2.0,3.0,7.0,20.0,2.0
1706292319.4052763,-2.0,-3.0,-4.0,-1.0,-3.0,-8.0,-21.0,-6.0
1706292319.4052763,-1.0,-1.0,1.0,-1.0,2.0,-5.0,-12.0,-2.0
1706292319.406269,1.0,0.0,10.0,3.0,-1.0,-10.0,-14.0,0.0
1706292319.406269,1.0,0.0,-11.0,-3.0,-7.0,-10.0,-8.0,-2.0
1706292319.4220495,1.0,0.0,-3.0,-1.0,-3.0,-3.0,-11.0,-4.0
1706292319.4220495,-4.0,1.0,1.0,-10.0,-21.0,-4.0,5.0,-3.0
1706292319.4290483,-5.0,-6.0,-2.0,-5.0,-5.0,2.0,-10.0,-3.0
1706292319.4290483,-1.0,4.0,-4.0,0.0,6.0,-6.0,-2.0,7.0
1706292319.4419973,-3.0,-8.0,1.0,15.0,11.0,15.0,-4.0,0.0
1706292319.4419973,0.0,0.0,-11.0,9.0,8.0,7.0,3.0,1.0
1706292319.443995,1.0,0.0,-4.0,3.0,7.0,-10.0,-1.0,-3.0
1706292319.443995,-2.0,-3.0,-3.0,-12.0,-15.0,-6.0,-10.0,0.0
1706292319.4657745,0.0,6.0,2.0,-12.0,-13.0,-4.0,8.0,-1.0
1706292319.4657745,-3.0,-5.0,-1.0,-2.0,-5.0,0.0,-2.0,0.0
1706292319.4671876,0.0,-2.0,2.0,-5.0,-13.0,-6.0,-10.0,0.0
1706292319.4671876,-1.0,-1.0,-1.0,-1.0,9.0,0.0,7.0,-4.0
1706292319.4831808,2.0,1.0,0.0,2.0,-24.0,-8.0,-2.0,2.0
1706292319.4841826,-3.0,-4.0,-6.0,4.0,19.0,11.0,5.0,-4.0
1706292319.4892085,0.0,4.0,9.0,11.0,16.0,-3.0,-3.0,0.0
1706292319.4892085,-2.0,-5.0,-5.0,-2.0,2.0,-20.0,-25.0,-8.0
1706292319.51011,1.0,2.0,-3.0,-10.0,-1.0,32.0,49.0,2.0
1706292319.51011,0.0,-3.0,4.0,8.0,-6.0,-5.0,-3.0,2.0
1706292319.5115283,1.0,1.0,1.0,2.0,-3.0,5.0,4.0,-1.0
1706292319.5115283,-2.0,-3.0,-5.0,-2.0,-2.0,-14.0,-8.0,0.0
1706292319.5246327,-3.0,-4.0,-4.0,-7.0,-10.0,-21.0,-44.0,-7.0
1706292319.5246327,-2.0,1.0,-5.0,-15.0,-17.0,-11.0,10.0,-2.0
1706292319.5266118,1.0,4.0,-2.0,-14.0,-5.0,-3.0,-10.0,2.0
1706292319.5266118,2.0,-1.0,2.0,9.0,14.0,2.0,6.0,-1.0
1706292319.546783,-1.0,2.0,5.0,13.0,16.0,10.0,10.0,0.0
1706292319.546783,2.0,-1.0,1.0,9.0,12.0,9.0,8.0,4.0
1706292319.547783,-2.0,-4.0,0.0,4.0,2.0,-6.0,-13.0,-3.0
1706292319.547783,0.0,-1.0,-2.0,-1.0,-5.0,9.0,3.0,0.0
1706292319.5573242,-1.0,-1.0,-2.0,-9.0,-6.0,-8.0,17.0,1.0
1706292319.5573242,2.0,5.0,-1.0,-16.0,-8.0,1.0,-16.0,-2.0
1706292319.5573242,-4.0,-4.0,6.0,22.0,-9.0,-33.0,-44.0,-4.0
1706292319.5573242,-5.0,-3.0,-7.0,-9.0,1.0,46.0,72.0,-1.0
1706292319.5930994,5.0,5.0,-6.0,-5.0,13.0,10.0,-9.0,4.0
1706292319.5930994,-6.0,-1.0,20.0,14.0,-11.0,-18.0,14.0,-1.0
1706292319.5930994,-5.0,-9.0,-33.0,-11.0,9.0,14.0,-38.0,-7.0
1706292319.5930994,0.0,1.0,-1.0,3.0,-2.0,-27.0,-15.0,-3.0
1706292319.5989933,-3.0,-5.0,2.0,5.0,3.0,-6.0,-6.0,0.0
1706292319.5989933,1.0,2.0,-9.0,-9.0,-5.0,14.0,13.0,0.0
1706292319.6077805,0.0,1.0,13.0,-7.0,-12.0,-6.0,9.0,-2.0
1706292319.6077805,-3.0,-3.0,0.0,-4.0,-14.0,-6.0,-16.0,-1.0
1706292319.617875,-1.0,3.0,-2.0,5.0,16.0,0.0,-3.0,-4.0
1706292319.617875,0.0,-2.0,2.0,7.0,10.0,3.0,1.0,-2.0
1706292319.6280696,0.0,-1.0,4.0,4.0,7.0,6.0,17.0,2.0
1706292319.6280696,-1.0,-4.0,-5.0,-11.0,-12.0,-6.0,-12.0,-6.0
1706292319.6477683,0.0,6.0,2.0,-3.0,-10.0,-16.0,-4.0,0.0
1706292319.6477683,-4.0,-10.0,-7.0,-3.0,-3.0,6.0,-2.0,0.0
1706292319.6477683,-1.0,8.0,11.0,7.0,6.0,-10.0,-8.0,3.0
1706292319.6477683,2.0,1.0,-8.0,10.0,13.0,21.0,9.0,5.0
1706292319.657883,-6.0,-6.0,-3.0,-4.0,-5.0,2.0,8.0,-14.0
1706292319.657883,0.0,1.0,-8.0,-8.0,-6.0,-11.0,-12.0,2.0
1706292319.6677773,-2.0,-3.0,-3.0,-9.0,-9.0,-2.0,15.0,1.0
1706292319.6677773,2.0,3.0,9.0,0.0,-3.0,-22.0,-29.0,-1.0
1706292319.6748743,1.0,-1.0,2.0,4.0,11.0,7.0,-10.0,-3.0
1706292319.6748743,-3.0,-5.0,-12.0,-24.0,-6.0,1.0,7.0,-4.0
1706292319.6848915,2.0,3.0,7.0,21.0,6.0,8.0,20.0,-3.0
1706292319.6848915,-3.0,-9.0,-4.0,-17.0,-15.0,-15.0,-10.0,-1.0
1706292319.7123585,-1.0,0.0,1.0,28.0,13.0,30.0,26.0,2.0
1706292319.7123585,-1.0,-1.0,1.0,-8.0,-1.0,-20.0,-38.0,-3.0
1706292319.7224514,-1.0,-1.0,-4.0,-2.0,10.0,16.0,11.0,-1.0
1706292319.7224514,4.0,2.0,2.0,2.0,3.0,-13.0,-4.0,0.0
1706292319.7224514,-2.0,-1.0,-5.0,-16.0,-16.0,2.0,0.0,1.0
1706292319.7224514,-1.0,-1.0,-2.0,-1.0,7.0,-8.0,23.0,-4.0
1706292319.7224514,-4.0,-4.0,3.0,-5.0,-13.0,0.0,-3.0,-1.0
1706292319.7224514,-4.0,2.0,-1.0,11.0,5.0,5.0,8.0,-5.0
1706292319.742849,-1.0,-4.0,2.0,-5.0,1.0,-7.0,-9.0,-2.0
1706292319.742849,2.0,3.0,-1.0,8.0,1.0,-1.0,-3.0,0.0
1706292319.7448514,-2.0,-1.0,-9.0,-22.0,-17.0,-9.0,-4.0,-4.0
1706292319.7448514,-4.0,-2.0,0.0,5.0,0.0,1.0,4.0,0.0
1706292319.7798986,-2.0,-4.0,-4.0,-6.0,-17.0,-20.0,-11.0,3.0
1706292319.7798986,-2.0,-1.0,5.0,16.0,27.0,16.0,6.0,-3.0
1706292319.7818973,2.0,5.0,-3.0,0.0,12.0,4.0,10.0,1.0
1706292319.7818973,-2.0,-6.0,-1.0,-4.0,-10.0,-6.0,-25.0,-2.0
1706292319.7818973,-6.0,-10.0,-2.0,-3.0,-9.0,-22.0,-19.0,-3.0
1706292319.7818973,-3.0,-8.0,-6.0,-12.0,-23.0,11.0,-2.0,11.0
1706292319.7868984,3.0,3.0,5.0,6.0,5.0,10.0,5.0,1.0
1706292319.7868984,-1.0,5.0,1.0,7.0,26.0,23.0,14.0,-5.0
1706292319.8023252,0.0,3.0,6.0,-7.0,-12.0,-13.0,-12.0,-5.0
1706292319.8023252,-3.0,-4.0,0.0,7.0,-5.0,-15.0,-6.0,-3.0
1706292319.8043332,0.0,1.0,-16.0,-12.0,3.0,-9.0,-15.0,1.0
1706292319.8043332,0.0,0.0,-1.0,6.0,-2.0,8.0,16.0,1.0
1706292319.8248065,-4.0,-4.0,0.0,-2.0,1.0,15.0,23.0,3.0
1706292319.8248065,1.0,0.0,0.0,-10.0,-11.0,1.0,-31.0,-5.0
1706292319.8266788,0.0,1.0,6.0,-3.0,-5.0,-15.0,-4.0,-2.0
1706292319.8266788,-2.0,-3.0,-11.0,-25.0,-13.0,-3.0,-6.0,-2.0
1706292319.8476532,2.0,4.0,6.0,33.0,13.0,-2.0,1.0,2.0
1706292319.8476532,7.0,13.0,16.0,14.0,16.0,14.0,15.0,3.0
1706292319.8493118,-9.0,-26.0,-27.0,-6.0,3.0,1.0,-1.0,-4.0
1706292319.8493118,-4.0,-7.0,0.0,-12.0,-18.0,-13.0,-9.0,1.0
1706292319.8622823,3.0,-9.0,2.0,-15.0,-9.0,0.0,-3.0,0.0
1706292319.8622823,-2.0,32.0,-12.0,-4.0,-1.0,-5.0,0.0,-3.0
1706292319.8642502,-5.0,-22.0,11.0,11.0,1.0,7.0,7.0,-3.0
1706292319.8642502,2.0,9.0,11.0,-6.0,-9.0,-4.0,-10.0,1.0
1706292319.8852575,-1.0,-3.0,-8.0,5.0,17.0,9.0,-8.0,-2.0
1706292319.8852575,1.0,-2.0,-2.0,14.0,10.0,-2.0,-1.0,0.0
1706292319.8852575,0.0,12.0,8.0,-8.0,-6.0,-1.0,8.0,-4.0
1706292319.8852575,-1.0,0.0,-4.0,1.0,4.0,-13.0,7.0,2.0
1706292319.9053931,2.0,4.0,6.0,-5.0,-17.0,12.0,1.0,-4.0
1706292319.9053931,-4.0,-13.0,-5.0,-9.0,-6.0,3.0,26.0,0.0
1706292319.9053931,-2.0,5.0,-6.0,-11.0,2.0,7.0,-11.0,-4.0
1706292319.9053931,1.0,-7.0,5.0,18.0,0.0,-25.0,-17.0,-1.0
1706292319.9222486,-2.0,1.0,-10.0,-8.0,3.0,17.0,-8.0,0.0
1706292319.9222486,-1.0,-4.0,-8.0,-8.0,-10.0,-13.0,18.0,-6.0
1706292319.9243038,-1.0,2.0,11.0,3.0,-14.0,-2.0,-6.0,2.0
1706292319.9243038,-2.0,2.0,-6.0,3.0,7.0,10.0,4.0,-1.0
1706292319.9451087,-3.0,2.0,1.0,-2.0,15.0,-4.0,1.0,-2.0
1706292319.9451087,0.0,-3.0,-2.0,5.0,1.0,-5.0,-16.0,0.0
1706292319.9465585,0.0,3.0,2.0,-10.0,-11.0,0.0,1.0,-1.0
1706292319.9465585,-1.0,2.0,0.0,0.0,-2.0,6.0,-2.0,-1.0
1706292319.9678078,-2.0,-5.0,-7.0,2.0,6.0,-12.0,3.0,0.0
1706292319.9678078,-2.0,-6.0,-4.0,-13.0,-8.0,3.0,-2.0,-2.0
1706292319.9688218,1.0,6.0,3.0,17.0,-3.0,-14.0,-9.0,-3.0
1706292319.9688218,0.0,1.0,-1.0,-4.0,13.0,32.0,13.0,0.0
1706292319.982272,-1.0,-1.0,-5.0,0.0,-3.0,-14.0,-24.0,1.0
1706292319.982272,1.0,0.0,0.0,-12.0,9.0,-8.0,-19.0,-3.0
1706292319.9842715,-1.0,3.0,3.0,9.0,4.0,17.0,22.0,3.0
1706292319.9842715,-4.0,-22.0,-10.0,1.0,-8.0,-3.0,29.0,-3.0
1706292320.0043821,4.0,17.0,2.0,-15.0,-12.0,-18.0,-20.0,-4.0
1706292320.0043821,-6.0,-23.0,-3.0,1.0,-4.0,0.0,-11.0,0.0
1706292320.0069366,-1.0,0.0,-8.0,-13.0,-23.0,-8.0,-17.0,-3.0
1706292320.0069366,3.0,1.0,1.0,-10.0,16.0,3.0,8.0,3.0
1706292320.0277898,-2.0,-2.0,2.0,16.0,2.0,0.0,-3.0,0.0
1706292320.0277898,1.0,2.0,2.0,5.0,2.0,-2.0,12.0,2.0
1706292320.0289478,-1.0,-4.0,-5.0,-1.0,15.0,9.0,-19.0,-5.0
1706292320.0289478,-1.0,3.0,0.0,-7.0,-11.0,1.0,-11.0,-3.0
1706292320.0448203,-2.0,-4.0,-4.0,-15.0,-10.0,-9.0,9.0,-3.0
1706292320.0448203,-4.0,-4.0,-3.0,2.0,-5.0,-3.0,-5.0,-3.0
1706292320.0480578,0.0,-3.0,4.0,-6.0,-10.0,-8.0,2.0,-1.0
1706292320.0480578,1.0,4.0,-2.0,9.0,-2.0,-8.0,-10.0,0.0
1706292320.0651789,1.0,2.0,1.0,6.0,25.0,14.0,9.0,2.0
1706292320.0651789,1.0,-6.0,4.0,10.0,7.0,6.0,0.0,1.0
1706292320.0665677,2.0,8.0,-3.0,-9.0,2.0,-4.0,5.0,1.0
1706292320.0665677,-1.0,-2.0,-1.0,-12.0,-23.0,-21.0,-6.0,-2.0
1706292320.087413,-5.0,-10.0,-3.0,3.0,-12.0,13.0,14.0,-4.0
1706292320.087413,-5.0,-5.0,-4.0,-7.0,-2.0,4.0,2.0,-2.0
1706292320.0892553,1.0,-6.0,-1.0,7.0,18.0,0.0,-1.0,0.0
1706292320.0892553,4.0,15.0,2.0,-2.0,-12.0,-27.0,-40.0,1.0
1706292320.1002386,-5.0,-14.0,1.0,-6.0,-5.0,17.0,24.0,-2.0
1706292320.1002386,2.0,6.0,3.0,6.0,10.0,19.0,21.0,2.0
1706292320.1102388,2.0,4.0,8.0,-2.0,2.0,-17.0,-15.0,1.0
1706292320.1102388,0.0,2.0,-1.0,7.0,19.0,11.0,-18.0,0.0
1706292320.1202488,-3.0,-2.0,-6.0,-12.0,-32.0,-16.0,0.0,-3.0
1706292320.1202488,1.0,5.0,1.0,-3.0,-10.0,-12.0,-3.0,-1.0
1706292320.1202488,-1.0,-3.0,-2.0,1.0,-6.0,9.0,4.0,0.0
1706292320.1202488,0.0,-1.0,8.0,1.0,3.0,-6.0,7.0,-1.0
1706292320.1402485,2.0,0.0,-3.0,2.0,17.0,0.0,8.0,1.0
1706292320.1402485,-2.0,-5.0,-5.0,-7.0,4.0,-3.0,-18.0,-3.0
1706292320.150294,1.0,2.0,6.0,12.0,-11.0,7.0,14.0,-1.0
1706292320.150294,-3.0,-8.0,-9.0,-13.0,5.0,3.0,0.0,-1.0
1706292320.1702416,0.0,3.0,5.0,25.0,-3.0,-6.0,-3.0,1.0
1706292320.1702416,1.0,4.0,-6.0,-3.0,-12.0,-7.0,0.0,-4.0
1706292320.1702416,-3.0,-7.0,-2.0,-9.0,10.0,-3.0,0.0,-1.0
1706292320.1702416,0.0,-1.0,-1.0,2.0,-2.0,9.0,7.0,2.0
1706292320.1802647,1.0,-3.0,-2.0,-10.0,7.0,-2.0,-9.0,0.0
1706292320.1802647,-1.0,2.0,9.0,1.0,-7.0,-5.0,-3.0,-3.0
1706292320.1802647,0.0,-2.0,-20.0,-2.0,-4.0,-26.0,-17.0,-2.0
1706292320.1802647,-4.0,-5.0,-10.0,1.0,0.0,26.0,-2.0,-1.0
1706292320.200239,0.0,2.0,3.0,-7.0,-3.0,14.0,26.0,-2.0
1706292320.200239,2.0,10.0,14.0,0.0,-5.0,-7.0,0.0,-4.0
1706292320.200239,-7.0,-20.0,-18.0,2.0,10.0,8.0,29.0,-1.0
1706292320.200239,-3.0,-1.0,7.0,4.0,10.0,-14.0,-69.0,-5.0
1706292320.2206483,2.0,5.0,-3.0,-1.0,-9.0,-15.0,-15.0,-1.0
1706292320.2206483,2.0,-5.0,-1.0,-4.0,1.0,4.0,-4.0,2.0
1706292320.2206483,-1.0,1.0,-5.0,6.0,6.0,-1.0,-9.0,0.0
1706292320.2206483,0.0,3.0,23.0,-1.0,-3.0,-7.0,19.0,-4.0
1706292320.2411125,-3.0,-7.0,-16.0,-9.0,-7.0,-3.0,-7.0,0.0
1706292320.2411125,-1.0,8.0,8.0,-4.0,-11.0,-10.0,-15.0,-4.0
1706292320.2411125,1.0,1.0,5.0,2.0,2.0,2.0,-2.0,2.0
1706292320.2411125,-1.0,1.0,-1.0,8.0,15.0,11.0,23.0,0.0
1706292320.260662,0.0,-5.0,3.0,-1.0,-11.0,-15.0,-15.0,-3.0
1706292320.260662,-1.0,1.0,-4.0,-13.0,-2.0,-3.0,4.0,0.0
1706292320.260662,1.0,1.0,2.0,22.0,0.0,4.0,3.0,2.0
1706292320.260662,1.0,4.0,-10.0,-1.0,-3.0,5.0,7.0,-3.0
1706292320.2810578,4.0,6.0,-1.0,-6.0,3.0,-5.0,20.0,-4.0
1706292320.2810578,-6.0,-15.0,14.0,-3.0,2.0,7.0,3.0,-3.0
1706292320.291075,-9.0,5.0,-19.0,-14.0,-13.0,-12.0,-23.0,-10.0
1706292320.291075,5.0,-6.0,-5.0,1.0,-5.0,-2.0,14.0,0.0
1706292320.301027,-10.0,-23.0,-26.0,-3.0,3.0,-14.0,23.0,4.0
1706292320.301027,6.0,16.0,41.0,11.0,8.0,27.0,-15.0,1.0
1706292320.301027,0.0,2.0,10.0,-7.0,-3.0,-2.0,-5.0,-1.0
1706292320.301027,-6.0,8.0,-11.0,0.0,-10.0,-14.0,1.0,-4.0
1706292320.3306577,3.0,4.0,25.0,-4.0,-7.0,-6.0,-10.0,-1.0
1706292320.3306577,-8.0,-18.0,-10.0,-10.0,-10.0,-11.0,2.0,-4.0
1706292320.3306577,3.0,13.0,14.0,-7.0,11.0,8.0,1.0,-1.0
1706292320.3306577,-1.0,-9.0,-5.0,8.0,5.0,2.0,3.0,1.0
1706292320.340928,2.0,4.0,13.0,12.0,11.0,9.0,-10.0,0.0
1706292320.340928,1.0,4.0,-12.0,-2.0,2.0,-3.0,-4.0,2.0
1706292320.340928,1.0,-4.0,-9.0,-12.0,5.0,2.0,5.0,1.0
1706292320.340928,-4.0,1.0,12.0,22.0,-5.0,-2.0,5.0,-3.0
1706292320.3652198,-3.0,-4.0,-3.0,-7.0,-4.0,5.0,-14.0,-5.0
1706292320.3652198,0.0,-1.0,-17.0,4.0,0.0,-13.0,-5.0,-1.0
1706292320.3662057,4.0,-3.0,-3.0,-20.0,-10.0,-1.0,37.0,-1.0
1706292320.3662057,-8.0,-8.0,-5.0,-11.0,-20.0,-3.0,-16.0,1.0
1706292320.3834908,-1.0,6.0,-4.0,-1.0,-2.0,-7.0,-25.0,-3.0
1706292320.3834908,7.0,-3.0,-14.0,3.0,22.0,16.0,24.0,6.0
1706292320.3834908,4.0,0.0,12.0,16.0,10.0,-7.0,-4.0,1.0
1706292320.3834908,2.0,1.0,-3.0,-9.0,-12.0,-18.0,-9.0,2.0
1706292320.3932438,-13.0,-4.0,-5.0,-7.0,6.0,-2.0,-6.0,-4.0
1706292320.3932438,-7.0,-3.0,-9.0,-13.0,-29.0,-21.0,-10.0,-7.0
1706292320.4033542,-9.0,-9.0,5.0,16.0,14.0,24.0,2.0,-3.0
1706292320.4033542,-2.0,2.0,0.0,-3.0,-3.0,0.0,6.0,1.0
1706292320.4356637,7.0,7.0,-3.0,-10.0,5.0,-3.0,-3.0,3.0
1706292320.4356637,-1.0,-3.0,-6.0,10.0,7.0,3.0,6.0,0.0
1706292320.4356637,6.0,3.0,4.0,5.0,-2.0,-2.0,-6.0,3.0
1706292320.4356637,3.0,-9.0,-10.0,-12.0,0.0,6.0,2.0,0.0
1706292320.4474554,-2.0,8.0,1.0,-12.0,-8.0,-3.0,-1.0,-1.0
1706292320.4474554,4.0,-16.0,-8.0,18.0,1.0,3.0,-8.0,-1.0
1706292320.4545004,-1.0,5.0,3.0,-20.0,-14.0,-5.0,-4.0,-2.0
1706292320.4545004,-6.0,-17.0,1.0,21.0,9.0,-4.0,3.0,-2.0
1706292320.460533,4.0,5.0,-2.0,-5.0,-5.0,-2.0,-1.0,0.0
1706292320.4615023,-4.0,3.0,-5.0,-4.0,0.0,2.0,-8.0,2.0
1706292320.469502,-8.0,-13.0,-2.0,1.0,9.0,4.0,36.0,-4.0
1706292320.469502,2.0,1.0,-3.0,-7.0,7.0,-18.0,-21.0,0.0
1706292320.4845016,-6.0,-11.0,-4.0,5.0,-12.0,1.0,12.0,-2.0
1706292320.485502,0.0,8.0,-3.0,-4.0,13.0,4.0,2.0,-6.0
1706292320.4865022,-3.0,0.0,1.0,-1.0,-2.0,-3.0,-32.0,-4.0
1706292320.4865022,6.0,11.0,5.0,3.0,1.0,-6.0,11.0,2.0
1706292320.5125012,-2.0,-2.0,1.0,2.0,3.0,-3.0,3.0,-1.0
1706292320.5125012,-3.0,-4.0,-6.0,-7.0,-29.0,-14.0,-4.0,-1.0
1706292320.5125012,3.0,3.0,-1.0,-3.0,10.0,6.0,-11.0,1.0
1706292320.5125012,-3.0,0.0,5.0,4.0,8.0,7.0,6.0,-3.0
1706292320.5205288,-1.0,-2.0,-4.0,-4.0,-2.0,-5.0,-12.0,0.0
1706292320.5205288,-4.0,-8.0,-1.0,-1.0,2.0,0.0,5.0,-1.0
1706292320.5295038,-2.0,0.0,-6.0,-15.0,-13.0,-2.0,-5.0,0.0
1706292320.5295038,0.0,1.0,5.0,27.0,-6.0,7.0,1.0,-1.0
1706292320.539467,-3.0,-6.0,-2.0,-5.0,0.0,3.0,3.0,0.0
1706292320.539467,1.0,8.0,-3.0,-1.0,3.0,-1.0,-6.0,-2.0
1706292320.539467,2.0,1.0,-3.0,-4.0,-5.0,-3.0,0.0,1.0
1706292320.539467,-4.0,-25.0,2.0,-12.0,11.0,4.0,4.0,0.0
1706292320.5694702,2.0,18.0,-2.0,1.0,-6.0,2.0,-4.0,-1.0
1706292320.5694702,1.0,9.0,-1.0,3.0,4.0,-4.0,1.0,-1.0
1706292320.5694702,-5.0,-16.0,-1.0,5.0,-6.0,-14.0,-24.0,1.0
1706292320.5694702,0.0,3.0,-5.0,-22.0,-19.0,3.0,36.0,-2.0
1706292320.579585,0.0,2.0,0.0,17.0,21.0,-3.0,-19.0,-1.0
1706292320.579585,-2.0,-2.0,3.0,0.0,6.0,54.0,-19.0,-3.0
1706292320.5902433,-2.0,1.0,-1.0,-3.0,-19.0,-16.0,21.0,5.0
1706292320.5902433,3.0,2.0,-2.0,-5.0,17.0,-1.0,6.0,1.0
1706292320.6170366,2.0,9.0,4.0,5.0,-16.0,-13.0,-8.0,-1.0
1706292320.6170366,-1.0,3.0,-2.0,0.0,17.0,-3.0,5.0,-3.0
1706292320.6170366,0.0,7.0,-1.0,8.0,2.0,4.0,-12.0,-2.0
1706292320.6170366,-2.0,-7.0,-4.0,-11.0,-10.0,-1.0,-5.0,-1.0
1706292320.6283736,-1.0,-4.0,-2.0,-13.0,-10.0,-4.0,6.0,-4.0
1706292320.6283736,-3.0,-13.0,-2.0,6.0,-12.0,-11.0,-4.0,-2.0
1706292320.629392,5.0,7.0,2.0,-6.0,-3.0,6.0,4.0,0.0
1706292320.629392,-1.0,8.0,1.0,22.0,8.0,4.0,-1.0,-1.0
1706292320.6423726,-2.0,-6.0,-1.0,-1.0,6.0,8.0,-1.0,-1.0
1706292320.6423726,-2.0,-1.0,1.0,-1.0,-6.0,-8.0,1.0,2.0
1706292320.6513555,-2.0,-2.0,-4.0,-19.0,-5.0,-4.0,2.0,1.0
1706292320.6513555,1.0,2.0,-4.0,0.0,-4.0,-2.0,-11.0,-6.0
1706292320.668597,-1.0,-15.0,-1.0,5.0,4.0,4.0,-4.0,-1.0
1706292320.668597,-17.0,1.0,2.0,-3.0,-1.0,-15.0,-11.0,-4.0
1706292320.669636,-11.0,-6.0,-8.0,0.0,-12.0,0.0,41.0,-8.0
1706292320.669636,0.0,1.0,-2.0,-9.0,1.0,29.0,20.0,3.0
1706292320.696991,6.0,2.0,0.0,3.0,6.0,-19.0,-5.0,0.0
1706292320.696991,11.0,5.0,-4.0,-10.0,-11.0,-3.0,-7.0,2.0
1706292320.696991,0.0,-4.0,4.0,5.0,3.0,-6.0,-35.0,1.0
1706292320.696991,1.0,10.0,5.0,10.0,-4.0,12.0,6.0,1.0
1706292320.700991,1.0,-4.0,-1.0,1.0,11.0,7.0,22.0,2.0
1706292320.700991,1.0,5.0,2.0,-3.0,0.0,-6.0,1.0,3.0
1706292320.7171595,-1.0,-2.0,-1.0,5.0,-5.0,-3.0,1.0,-5.0
1706292320.7171595,-3.0,0.0,-3.0,-14.0,-4.0,-6.0,-14.0,0.0
1706292320.724746,2.0,-1.0,0.0,4.0,0.0,-7.0,-6.0,-1.0
1706292320.724746,-3.0,-6.0,-4.0,-5.0,-11.0,-14.0,1.0,-5.0
1706292320.7266421,0.0,0.0,-1.0,-1.0,2.0,10.0,-6.0,0.0
1706292320.7266421,0.0,-2.0,0.0,-5.0,8.0,-5.0,-3.0,-2.0
1706292320.747324,-3.0,16.0,1.0,4.0,-12.0,2.0,-6.0,-2.0
1706292320.747324,-4.0,-38.0,-7.0,5.0,2.0,-2.0,8.0,-1.0
1706292320.7493193,2.0,-1.0,-2.0,0.0,5.0,4.0,2.0,3.0
1706292320.7493193,0.0,11.0,-2.0,-5.0,-10.0,-11.0,-11.0,-6.0
1706292320.7613187,-3.0,-17.0,-1.0,-11.0,-3.0,17.0,8.0,2.0
1706292320.7613187,5.0,19.0,3.0,6.0,7.0,-24.0,15.0,3.0
1706292320.781722,-2.0,-15.0,0.0,4.0,6.0,31.0,-51.0,-3.0
1706292320.781722,-1.0,22.0,-2.0,-14.0,-8.0,-28.0,-19.0,-3.0
1706292320.784719,-4.0,-15.0,1.0,2.0,-4.0,21.0,9.0,-3.0
1706292320.784719,0.0,-6.0,-2.0,1.0,1.0,-3.0,3.0,0.0
1706292320.7867193,2.0,3.0,1.0,2.0,3.0,-10.0,7.0,0.0
1706292320.7867193,-1.0,-5.0,1.0,-1.0,1.0,-6.0,-6.0,-2.0
1706292320.8076348,1.0,32.0,1.0,-8.0,-19.0,-14.0,-18.0,-2.0
1706292320.8076348,-8.0,-39.0,-12.0,-3.0,-6.0,2.0,3.0,0.0
1706292320.8086207,2.0,12.0,3.0,4.0,10.0,-5.0,4.0,-3.0
1706292320.8086207,-7.0,-19.0,-5.0,7.0,15.0,12.0,-3.0,1.0
1706292320.83855,2.0,10.0,-3.0,-3.0,2.0,-2.0,7.0,0.0
1706292320.83855,-3.0,8.0,0.0,-26.0,-11.0,3.0,-2.0,-1.0
1706292320.8395255,-2.0,5.0,0.0,11.0,-4.0,-8.0,8.0,-1.0
1706292320.8395255,4.0,-8.0,4.0,12.0,4.0,-1.0,-3.0,1.0
1706292320.8445265,1.0,-2.0,1.0,5.0,2.0,3.0,-3.0,-2.0
1706292320.8445265,0.0,11.0,-2.0,4.0,4.0,6.0,3.0,0.0
1706292320.8465247,-1.0,-13.0,-5.0,-14.0,-4.0,-7.0,-4.0,-1.0
1706292320.8465247,-1.0,9.0,-1.0,-10.0,-18.0,1.0,3.0,0.0
1706292320.8678732,-1.0,-8.0,-6.0,-7.0,2.0,3.0,4.0,1.0
1706292320.8678732,0.0,1.0,4.0,-3.0,-11.0,-19.0,-9.0,-5.0
1706292320.8712096,-4.0,3.0,0.0,5.0,2.0,17.0,51.0,1.0
1706292320.8712096,2.0,-9.0,1.0,6.0,24.0,7.0,0.0,-1.0
1706292320.891224,-6.0,-6.0,2.0,1.0,1.0,-5.0,-28.0,-2.0
1706292320.891224,-1.0,3.0,3.0,0.0,0.0,-12.0,-9.0,-3.0
1706292320.8922179,-1.0,-1.0,-7.0,-5.0,-10.0,3.0,15.0,-2.0
1706292320.8922179,-2.0,1.0,-2.0,-5.0,-11.0,-4.0,-14.0,-2.0
1706292320.905218,1.0,-12.0,-4.0,-2.0,7.0,-1.0,5.0,0.0
1706292320.905218,1.0,12.0,1.0,-2.0,2.0,7.0,-8.0,0.0
1706292320.906221,-2.0,-2.0,-2.0,0.0,-1.0,-16.0,-6.0,-4.0
1706292320.906221,-4.0,-7.0,-2.0,-10.0,-35.0,3.0,-3.0,-3.0
1706292320.9272194,0.0,-6.0,-1.0,4.0,28.0,-4.0,0.0,2.0
1706292320.9272194,0.0,0.0,3.0,23.0,17.0,13.0,-1.0,-1.0
1706292320.9292169,2.0,-2.0,-1.0,-9.0,-2.0,-6.0,-10.0,0.0
1706292320.9292169,1.0,2.0,-5.0,-15.0,-1.0,-1.0,7.0,-1.0
1706292320.950219,-5.0,-2.0,2.0,6.0,-13.0,-18.0,-11.0,-2.0
1706292320.950219,8.0,4.0,-5.0,-8.0,-6.0,14.0,20.0,2.0
1706292320.9522188,-5.0,3.0,0.0,-6.0,-2.0,-3.0,-4.0,1.0
1706292320.9522188,-7.0,-14.0,0.0,9.0,-6.0,-5.0,-4.0,-3.0
1706292320.9652174,-6.0,-19.0,-4.0,-5.0,10.0,-5.0,-23.0,1.0
1706292320.9652174,3.0,7.0,2.0,1.0,1.0,6.0,25.0,-4.0
1706292320.9662175,1.0,1.0,-1.0,3.0,0.0,10.0,27.0,-3.0
1706292320.9662175,-2.0,1.0,-5.0,-8.0,-4.0,-10.0,-13.0,-1.0
1706292320.9882212,0.0,6.0,5.0,-11.0,-8.0,6.0,-12.0,-4.0
1706292320.9882212,-4.0,-6.0,-3.0,12.0,-5.0,-13.0,-18.0,-1.0
1706292320.9912243,3.0,-17.0,0.0,9.0,3.0,-7.0,-18.0,1.0
1706292320.9912243,-4.0,-3.0,1.0,-10.0,-9.0,1.0,16.0,-1.0
1706292321.0112174,-2.0,-6.0,-5.0,9.0,12.0,2.0,12.0,-1.0
1706292321.0112174,4.0,11.0,8.0,-1.0,0.0,-2.0,-5.0,2.0
1706292321.0112174,-8.0,-9.0,-12.0,-1.0,2.0,18.0,-2.0,-3.0
1706292321.0112174,2.0,5.0,0.0,-1.0,-1.0,-9.0,9.0,1.0
1706292321.0252352,0.0,-2.0,-5.0,-8.0,-24.0,-8.0,-32.0,-4.0
1706292321.0252352,2.0,1.0,-3.0,-4.0,30.0,6.0,7.0,2.0
1706292321.0312176,2.0,9.0,8.0,6.0,-15.0,-4.0,-14.0,3.0
1706292321.0312176,0.0,-7.0,-5.0,-2.0,0.0,-17.0,-17.0,-5.0
1706292321.050216,-5.0,-17.0,-3.0,-1.0,4.0,27.0,39.0,3.0
1706292321.050216,-5.0,-2.0,-2.0,-5.0,-7.0,-5.0,-27.0,-6.0
1706292321.050216,4.0,1.0,-1.0,0.0,9.0,0.0,-8.0,0.0
1706292321.050216,1.0,7.0,1.0,14.0,12.0,-5.0,-6.0,0.0
1706292321.0700226,2.0,12.0,4.0,-8.0,-17.0,-10.0,10.0,-1.0
1706292321.0700226,-7.0,-20.0,-10.0,-8.0,-12.0,-1.0,-3.0,1.0
1706292321.0720513,-1.0,-2.0,5.0,-1.0,10.0,-2.0,-4.0,0.0
1706292321.0720513,-2.0,0.0,-2.0,-1.0,-1.0,9.0,14.0,2.0
1706292321.0845091,1.0,-4.0,-1.0,8.0,3.0,-5.0,-14.0,-4.0
1706292321.0845091,1.0,-1.0,1.0,2.0,-8.0,2.0,-3.0,3.0
1706292321.091512,-7.0,-1.0,-4.0,-1.0,5.0,-11.0,4.0,-3.0
1706292321.091512,0.0,1.0,-1.0,-14.0,-7.0,-3.0,-3.0,-1.0
1706292321.1106489,3.0,4.0,-1.0,-4.0,-2.0,13.0,14.0,-1.0
1706292321.1106489,-6.0,-2.0,-2.0,3.0,5.0,-9.0,-3.0,-4.0
1706292321.1106489,1.0,0.0,-3.0,-8.0,-22.0,-11.0,-17.0,-1.0
1706292321.1106489,2.0,1.0,2.0,10.0,19.0,13.0,24.0,3.0
1706292321.1307838,2.0,3.0,2.0,6.0,14.0,4.0,-15.0,-2.0
1706292321.1307838,-1.0,1.0,-1.0,-1.0,-6.0,-2.0,2.0,-3.0
1706292321.1317823,1.0,11.0,1.0,-3.0,1.0,-6.0,3.0,-2.0
1706292321.1317823,-5.0,-1.0,-4.0,-5.0,-20.0,-6.0,-14.0,-3.0
1706292321.1443164,-1.0,6.0,0.0,-4.0,-11.0,-19.0,-3.0,-1.0
1706292321.1443164,0.0,-8.0,-3.0,0.0,3.0,17.0,17.0,-1.0
1706292321.151103,4.0,15.0,1.0,3.0,12.0,-1.0,-13.0,1.0
1706292321.151103,1.0,-1.0,-2.0,-2.0,-3.0,5.0,7.0,2.0
1706292321.1701055,-2.0,-3.0,1.0,-2.0,3.0,1.0,3.0,-1.0
1706292321.1701055,1.0,6.0,3.0,-12.0,1.0,-2.0,-3.0,-5.0
1706292321.1701055,-2.0,-13.0,0.0,12.0,-10.0,-11.0,-3.0,-1.0
1706292321.1701055,2.0,10.0,-5.0,0.0,6.0,6.0,-4.0,-2.0
1706292321.1915503,-4.0,-2.0,1.0,3.0,0.0,0.0,7.0,-2.0
1706292321.1915503,3.0,3.0,1.0,-7.0,-2.0,-2.0,-7.0,0.0
1706292321.1935475,-11.0,-8.0,-8.0,-15.0,-12.0,-3.0,1.0,-2.0
1706292321.1935475,-1.0,-19.0,1.0,-1.0,7.0,1.0,-6.0,0.0
1706292321.2055178,0.0,3.0,-1.0,10.0,-1.0,-7.0,-17.0,1.0
1706292321.2055178,2.0,1.0,-4.0,-1.0,-2.0,5.0,31.0,-3.0
1706292321.229863,0.0,-1.0,3.0,-5.0,3.0,-1.0,-3.0,-3.0
1706292321.229863,3.0,5.0,1.0,13.0,8.0,4.0,-7.0,0.0
1706292321.2328882,0.0,-3.0,-3.0,-8.0,-8.0,-21.0,-6.0,-1.0
1706292321.2328882,-2.0,-3.0,-1.0,1.0,-6.0,13.0,-4.0,-1.0
1706292321.2328882,0.0,-1.0,-5.0,-1.0,3.0,3.0,-1.0,-1.0
1706292321.2328882,-2.0,-4.0,3.0,-6.0,11.0,14.0,6.0,-1.0
1706292321.2504246,2.0,14.0,-1.0,-2.0,-5.0,-6.0,5.0,2.0
1706292321.2513905,-4.0,-7.0,3.0,-1.0,15.0,-8.0,-15.0,-7.0
1706292321.2523894,0.0,-3.0,-1.0,14.0,1.0,2.0,6.0,3.0
1706292321.2533925,0.0,3.0,6.0,5.0,-3.0,-12.0,-18.0,-3.0
1706292321.27563,-1.0,-1.0,-13.0,-7.0,-4.0,20.0,72.0,8.0
1706292321.2766283,-4.0,-1.0,-3.0,-4.0,-12.0,-19.0,-89.0,-6.0
1706292321.2796288,-3.0,-1.0,-4.0,-21.0,-4.0,0.0,-2.0,-5.0
1706292321.2796288,0.0,0.0,5.0,16.0,2.0,-4.0,-7.0,-1.0
1706292321.2878084,-5.0,-7.0,0.0,-3.0,-6.0,0.0,4.0,-4.0
1706292321.2878084,-3.0,5.0,-6.0,-2.0,-4.0,-4.0,17.0,0.0
1706292321.2898295,2.0,-3.0,0.0,-4.0,-8.0,-5.0,1.0,1.0
1706292321.2898295,-1.0,3.0,12.0,4.0,1.0,-1.0,-9.0,0.0
1706292321.3094273,-1.0,-6.0,-3.0,1.0,8.0,1.0,-6.0,-3.0
1706292321.3094273,-1.0,0.0,-1.0,0.0,-8.0,-3.0,10.0,0.0
1706292321.3114266,6.0,4.0,-1.0,-5.0,-5.0,-3.0,-14.0,-2.0
1706292321.3114266,-10.0,-12.0,-18.0,-14.0,-6.0,0.0,13.0,-2.0
1706292321.3265939,-2.0,-2.0,18.0,4.0,14.0,9.0,-9.0,-2.0
1706292321.3275926,1.0,-10.0,1.0,2.0,-6.0,-2.0,9.0,4.0
1706292321.3365924,3.0,20.0,3.0,-12.0,3.0,-3.0,3.0,-1.0
1706292321.3365924,-2.0,-5.0,-6.0,15.0,0.0,1.0,-1.0,0.0
1706292321.3477056,1.0,1.0,0.0,-5.0,0.0,-2.0,-8.0,-3.0
1706292321.3477056,-6.0,-12.0,-8.0,0.0,-12.0,-9.0,0.0,1.0
1706292321.349189,0.0,3.0,3.0,0.0,0.0,1.0,4.0,0.0
1706292321.350205,2.0,3.0,12.0,-2.0,-1.0,2.0,2.0,0.0
1706292321.3701086,0.0,1.0,-13.0,0.0,10.0,4.0,-6.0,12.0
1706292321.3701086,2.0,6.0,3.0,0.0,-4.0,-4.0,0.0,-15.0
1706292321.372126,-3.0,-9.0,2.0,15.0,26.0,3.0,0.0,5.0
1706292321.372126,-1.0,0.0,-4.0,-12.0,-28.0,-7.0,3.0,-9.0
1706292321.3943448,-3.0,-7.0,0.0,-1.0,-4.0,2.0,26.0,4.0
1706292321.3953447,0.0,1.0,0.0,-9.0,-6.0,-3.0,-29.0,3.0
1706292321.3985636,-2.0,-4.0,-7.0,5.0,3.0,7.0,-1.0,-3.0
1706292321.3985636,-1.0,11.0,32.0,-3.0,7.0,-8.0,-11.0,-1.0
1706292321.4093006,1.0,-3.0,-27.0,0.0,-3.0,1.0,-5.0,-2.0
1706292321.4093006,-1.0,1.0,2.0,11.0,15.0,2.0,19.0,-2.0
1706292321.4102862,-3.0,-10.0,-4.0,6.0,8.0,8.0,2.0,-2.0
1706292321.4102862,2.0,-1.0,-4.0,-15.0,-18.0,-8.0,7.0,4.0
1706292321.429929,-3.0,2.0,-3.0,-9.0,-17.0,-9.0,-26.0,-7.0
1706292321.429929,1.0,5.0,-1.0,4.0,12.0,4.0,8.0,-1.0
1706292321.431661,0.0,-4.0,-7.0,9.0,9.0,3.0,-1.0,-2.0
1706292321.431661,0.0,-9.0,12.0,-7.0,8.0,6.0,9.0,7.0
1706292321.4586756,6.0,5.0,6.0,2.0,-3.0,-4.0,-5.0,-7.0
1706292321.4586756,-1.0,-2.0,-16.0,-18.0,-7.0,-1.0,-9.0,-6.0
1706292321.4586756,3.0,-2.0,11.0,20.0,-13.0,-6.0,44.0,60.0
1706292321.4586756,-11.0,-8.0,8.0,0.0,1.0,1.0,4.0,-33.0
1706292321.4678636,0.0,16.0,-15.0,-10.0,-11.0,-9.0,-30.0,-46.0
1706292321.4678636,0.0,3.0,13.0,-1.0,5.0,-3.0,-38.0,14.0
1706292321.4688642,0.0,-2.0,-28.0,-14.0,-15.0,7.0,18.0,-26.0
1706292321.4688642,-2.0,2.0,-18.0,0.0,21.0,6.0,1.0,12.0
1706292321.4907863,1.0,-6.0,14.0,27.0,11.0,1.0,18.0,21.0
1706292321.4907863,2.0,14.0,0.0,0.0,2.0,4.0,2.0,-13.0
1706292321.4917586,-5.0,-6.0,13.0,-14.0,-17.0,-18.0,-9.0,11.0
1706292321.4917586,1.0,-3.0,-22.0,-8.0,-12.0,-5.0,-20.0,4.0
1706292321.513302,-3.0,-9.0,-10.0,-3.0,10.0,8.0,-1.0,-17.0
1706292321.513302,3.0,-8.0,-8.0,-5.0,-19.0,-3.0,15.0,16.0
1706292321.513302,-2.0,1.0,3.0,-8.0,0.0,4.0,-13.0,-15.0
1706292321.513302,0.0,1.0,16.0,19.0,27.0,1.0,6.0,8.0
1706292321.5273533,1.0,26.0,6.0,-17.0,-16.0,-9.0,-7.0,10.0
1706292321.5273533,-9.0,-39.0,0.0,16.0,3.0,0.0,20.0,-10.0
1706292321.528937,-6.0,8.0,-7.0,-9.0,-7.0,-7.0,-19.0,-14.0
1706292321.528937,-6.0,-24.0,-18.0,-13.0,-12.0,-3.0,-10.0,0.0
1706292321.5500638,2.0,-2.0,3.0,-4.0,12.0,3.0,9.0,12.0
1706292321.5500638,-2.0,9.0,5.0,13.0,-7.0,-5.0,4.0,3.0
1706292321.5515263,1.0,-1.0,8.0,7.0,-3.0,-2.0,-16.0,-16.0
1706292321.5515263,4.0,9.0,-14.0,-10.0,9.0,4.0,6.0,7.0
1706292321.5704029,-5.0,-1.0,13.0,8.0,-14.0,-3.0,-7.0,-14.0
1706292321.5704029,0.0,-2.0,-6.0,-6.0,7.0,6.0,11.0,4.0
1706292321.5724225,-3.0,-5.0,-4.0,-4.0,6.0,0.0,-26.0,2.0
1706292321.5734544,3.0,12.0,-4.0,-10.0,-12.0,-4.0,6.0,-11.0
1706292321.5875115,-1.0,-10.0,-5.0,-11.0,0.0,-2.0,17.0,15.0
1706292321.5875115,1.0,7.0,2.0,2.0,-8.0,-7.0,-2.0,-8.0
1706292321.5892763,4.0,6.0,8.0,9.0,18.0,13.0,-7.0,-4.0
1706292321.5892763,-4.0,2.0,-7.0,0.0,-12.0,-9.0,11.0,5.0
1706292321.6100242,-7.0,-8.0,1.0,-6.0,-13.0,11.0,-7.0,-8.0
1706292321.6100242,-1.0,-22.0,-1.0,-1.0,16.0,9.0,17.0,12.0
1706292321.6110256,4.0,1.0,5.0,7.0,14.0,-8.0,-1.0,-13.0
1706292321.6110256,-6.0,7.0,1.0,2.0,-5.0,4.0,-5.0,4.0
1706292321.6242158,5.0,-43.0,-9.0,-8.0,-7.0,-14.0,-8.0,-1.0
1706292321.6242158,-5.0,12.0,-7.0,-16.0,-9.0,-5.0,2.0,-1.0
1706292321.6332417,-8.0,-10.0,4.0,19.0,-14.0,-5.0,0.0,-2.0
1706292321.6332417,-7.0,-10.0,-5.0,4.0,2.0,-7.0,-18.0,-16.0
1706292321.6471298,-1.0,55.0,10.0,14.0,8.0,4.0,-3.0,0.0
1706292321.6471298,8.0,-1.0,-10.0,-12.0,0.0,6.0,-2.0,1.0
1706292321.6491075,2.0,-32.0,-6.0,-17.0,-6.0,-9.0,5.0,3.0
1706292321.6491075,0.0,5.0,-3.0,6.0,-16.0,-3.0,3.0,2.0
1706292321.6753309,-1.0,-5.0,-1.0,-14.0,-16.0,-19.0,-1.0,8.0
1706292321.6753309,1.0,7.0,4.0,9.0,21.0,6.0,-12.0,-7.0
1706292321.6753309,-3.0,18.0,2.0,0.0,4.0,18.0,30.0,-3.0
1706292321.6753309,4.0,-7.0,0.0,-5.0,9.0,20.0,7.0,4.0
1706292321.6753309,-1.0,-11.0,-1.0,12.0,7.0,-10.0,6.0,4.0
1706292321.6753309,-3.0,0.0,-1.0,-3.0,-12.0,5.0,9.0,-5.0
1706292321.6854072,-4.0,-6.0,-7.0,-11.0,-17.0,-30.0,-42.0,-9.0
1706292321.6854072,2.0,3.0,0.0,-24.0,2.0,-10.0,-3.0,-1.0
1706292321.705343,-4.0,-18.0,5.0,34.0,13.0,0.0,-3.0,-5.0
1706292321.705343,0.0,4.0,-5.0,4.0,3.0,-5.0,0.0,2.0
1706292321.705343,0.0,5.0,3.0,-5.0,3.0,12.0,19.0,3.0
1706292321.705343,-1.0,-9.0,-6.0,-9.0,-14.0,0.0,-9.0,1.0
1706292321.7353299,-1.0,7.0,0.0,-7.0,-2.0,-2.0,-25.0,-9.0
1706292321.7353299,0.0,-3.0,1.0,-2.0,3.0,1.0,14.0,2.0
1706292321.7353299,-3.0,-2.0,1.0,1.0,-7.0,-4.0,-12.0,-1.0
1706292321.7353299,1.0,-2.0,-5.0,11.0,8.0,0.0,-3.0,0.0
1706292321.7456489,0.0,-7.0,-1.0,-1.0,1.0,8.0,24.0,6.0
1706292321.7456489,7.0,16.0,1.0,-2.0,5.0,-1.0,-37.0,-5.0
1706292321.7456489,-12.0,-14.0,-6.0,4.0,3.0,5.0,16.0,1.0
1706292321.7456489,4.0,-1.0,0.0,-7.0,-20.0,-18.0,5.0,22.0
1706292321.7656722,-6.0,-1.0,2.0,-10.0,12.0,-22.0,-36.0,-35.0
1706292321.7656722,-12.0,-11.0,0.0,22.0,20.0,54.0,64.0,0.0
1706292321.775674,7.0,11.0,1.0,-1.0,-16.0,6.0,11.0,4.0
1706292321.775674,0.0,0.0,-2.0,3.0,10.0,14.0,2.0,-5.0
1706292321.785669,-3.0,-6.0,-5.0,-14.0,-16.0,-5.0,2.0,7.0
1706292321.785669,0.0,3.0,5.0,4.0,14.0,-26.0,-46.0,-3.0
1706292321.785669,1.0,0.0,1.0,-2.0,3.0,-12.0,-2.0,2.0
1706292321.785669,-1.0,-4.0,-8.0,-2.0,-7.0,-7.0,4.0,-9.0
1706292321.806019,1.0,6.0,1.0,-4.0,-14.0,2.0,-3.0,3.0
1706292321.806019,-4.0,-3.0,-5.0,-16.0,-10.0,-11.0,-5.0,-8.0
1706292321.806019,0.0,4.0,2.0,10.0,1.0,12.0,12.0,5.0
1706292321.806019,1.0,-1.0,2.0,-4.0,1.0,-9.0,-14.0,-4.0
1706292321.825955,-2.0,-2.0,-7.0,8.0,21.0,12.0,19.0,4.0
1706292321.825955,-1.0,-1.0,-2.0,-1.0,-15.0,-11.0,-18.0,7.0
1706292321.825955,10.0,1.0,-3.0,-15.0,-7.0,-6.0,1.0,0.0
1706292321.825955,-8.0,-3.0,-2.0,-13.0,-13.0,-3.0,1.0,-1.0
1706292321.8556654,2.0,13.0,10.0,3.0,15.0,15.0,7.0,-3.0
1706292321.8556654,-9.0,-15.0,1.0,25.0,-1.0,2.0,19.0,2.0
1706292321.8556654,-5.0,-3.0,-10.0,-11.0,-6.0,-24.0,-22.0,-11.0
1706292321.8556654,1.0,-19.0,0.0,2.0,-6.0,-7.0,-10.0,-5.0
1706292321.8723102,0.0,12.0,-1.0,-2.0,-4.0,10.0,0.0,8.0
1706292321.8723102,-1.0,-13.0,-3.0,-7.0,9.0,-25.0,4.0,1.0
1706292321.8743188,3.0,10.0,2.0,-1.0,-1.0,26.0,36.0,2.0
1706292321.8743188,-5.0,8.0,2.0,10.0,22.0,14.0,7.0,-9.0
1706292321.888317,3.0,10.0,-3.0,1.0,-14.0,-11.0,0.0,-4.0
1706292321.888317,-2.0,-12.0,1.0,-7.0,-9.0,-2.0,-7.0,1.0
1706292321.888317,-2.0,-2.0,-3.0,-3.0,-6.0,-20.0,-12.0,19.0
1706292321.888317,-2.0,-3.0,-2.0,-6.0,-3.0,9.0,18.0,-17.0
1706292321.906405,1.0,-6.0,0.0,8.0,3.0,-2.0,-11.0,-30.0
1706292321.906405,-1.0,8.0,1.0,0.0,6.0,5.0,0.0,-4.0
1706292321.906405,-3.0,0.0,2.0,-2.0,8.0,0.0,4.0,3.0
1706292321.906405,2.0,6.0,-3.0,1.0,-10.0,-8.0,-14.0,4.0
1706292321.9264174,-1.0,-6.0,2.0,2.0,4.0,1.0,-2.0,7.0
1706292321.9264174,2.0,6.0,5.0,-7.0,-13.0,-1.0,1.0,1.0
1706292321.9264174,-3.0,-4.0,-12.0,-15.0,6.0,3.0,-18.0,-10.0
1706292321.9364529,1.0,2.0,1.0,28.0,0.0,-5.0,-2.0,3.0
1706292321.9464061,-5.0,-10.0,-4.0,-13.0,-9.0,-11.0,3.0,2.0
1706292321.9464061,1.0,7.0,2.0,-2.0,7.0,14.0,-3.0,1.0
1706292321.9565132,1.0,3.0,0.0,-1.0,6.0,11.0,20.0,3.0
1706292321.9565132,-1.0,-1.0,3.0,1.0,3.0,-12.0,-13.0,-6.0
1706292321.9664083,-4.0,-9.0,-9.0,-8.0,4.0,18.0,17.0,9.0
1706292321.9664083,4.0,10.0,1.0,-6.0,-17.0,-19.0,-28.0,-6.0
1706292321.9664083,-1.0,-10.0,-6.0,-11.0,-15.0,-17.0,-12.0,-7.0
1706292321.9664083,-9.0,-5.0,-1.0,10.0,13.0,27.0,39.0,1.0
1706292321.9864612,-6.0,-6.0,0.0,0.0,-7.0,-17.0,-47.0,-1.0
1706292321.9864612,2.0,-6.0,0.0,9.0,3.0,4.0,2.0,-7.0
1706292321.9864612,-3.0,-2.0,1.0,-4.0,2.0,-6.0,-14.0,-10.0
1706292321.9864612,-8.0,14.0,1.0,-5.0,-10.0,-9.0,-9.0,-2.0
1706292322.0064063,-1.0,-5.0,-4.0,-5.0,-17.0,1.0,15.0,10.0
1706292322.0064063,3.0,3.0,-4.0,-11.0,-4.0,-3.0,8.0,-2.0
1706292322.0064063,-6.0,-3.0,0.0,2.0,-4.0,-3.0,-21.0,-5.0
1706292322.0064063,9.0,0.0,3.0,3.0,6.0,5.0,2.0,5.0
1706292322.0264125,-2.0,15.0,1.0,1.0,5.0,1.0,1.0,3.0
1706292322.0264125,-3.0,-21.0,-5.0,-2.0,-1.0,-7.0,-12.0,4.0
1706292322.0264125,1.0,-1.0,5.0,6.0,-1.0,15.0,17.0,-4.0
1706292322.0264125,-2.0,-5.0,-4.0,-4.0,-2.0,-5.0,-11.0,-3.0
1706292322.0464692,12.0,6.0,-2.0,4.0,4.0,-17.0,-3.0,20.0
1706292322.0464692,-20.0,-15.0,-6.0,-9.0,-12.0,5.0,14.0,-31.0
1706292322.0464692,1.0,1.0,-2.0,3.0,-2.0,-3.0,-5.0,2.0
1706292322.0464692,-5.0,-6.0,-1.0,-7.0,-2.0,8.0,7.0,-3.0
1706292322.0764086,3.0,-1.0,6.0,9.0,14.0,11.0,7.0,-3.0
1706292322.0764086,-4.0,2.0,-9.0,-4.0,-6.0,-13.0,11.0,29.0
1706292322.0764086,-11.0,-12.0,1.0,4.0,3.0,-5.0,-43.0,-22.0
1706292322.0764086,11.0,29.0,13.0,1.0,2.0,0.0,-8.0,-15.0
1706292322.0864055,-1.0,-11.0,-7.0,-6.0,-4.0,3.0,3.0,-4.0
1706292322.0864055,-2.0,2.0,-4.0,-2.0,-10.0,-6.0,11.0,1.0
1706292322.0864055,0.0,-5.0,-6.0,-8.0,0.0,-5.0,3.0,-3.0
1706292322.0864055,1.0,-3.0,-10.0,2.0,-21.0,-17.0,-14.0,4.0
1706292322.1160374,-6.0,1.0,-1.0,-1.0,-4.0,5.0,7.0,-9.0
1706292322.1160374,2.0,7.0,2.0,5.0,20.0,10.0,7.0,0.0
1706292322.1160374,4.0,-5.0,4.0,-4.0,5.0,3.0,4.0,5.0
1706292322.1160374,-2.0,-5.0,1.0,16.0,-2.0,-5.0,-10.0,-2.0
1706292322.1262324,-2.0,-5.0,-2.0,-4.0,9.0,-3.0,2.0,-3.0
1706292322.1262324,2.0,7.0,3.0,11.0,-4.0,2.0,-1.0,2.0
1706292322.1332312,0.0,-1.0,-3.0,-5.0,-9.0,-10.0,-3.0,-1.0
1706292322.1332312,0.0,-9.0,-6.0,-20.0,-9.0,-14.0,6.0,4.0
1706292322.1493766,-4.0,-8.0,-1.0,3.0,0.0,30.0,9.0,-3.0
1706292322.1493766,13.0,15.0,5.0,-1.0,3.0,-24.0,-10.0,4.0
1706292322.1563783,-1.0,8.0,4.0,9.0,3.0,7.0,10.0,-4.0
1706292322.1563783,-8.0,-9.0,-4.0,3.0,5.0,18.0,21.0,5.0
1706292322.1746671,3.0,-4.0,-4.0,-3.0,4.0,-1.0,-14.0,-3.0
1706292322.1746671,-9.0,-5.0,-5.0,-9.0,-11.0,-1.0,-21.0,-8.0
1706292322.1746671,7.0,2.0,0.0,-6.0,-7.0,-18.0,-1.0,0.0
1706292322.1746671,4.0,-4.0,-5.0,-1.0,-1.0,-3.0,-3.0,3.0
1706292322.1869473,-6.0,-4.0,2.0,-1.0,-9.0,-7.0,4.0,2.0
1706292322.1869473,2.0,-4.0,-9.0,1.0,2.0,7.0,3.0,-3.0
1706292322.1939464,-4.0,3.0,-2.0,1.0,17.0,-2.0,2.0,3.0
1706292322.1939464,0.0,1.0,5.0,10.0,4.0,9.0,-3.0,-1.0
1706292322.2089677,-2.0,1.0,1.0,-1.0,0.0,-3.0,-1.0,-2.0
1706292322.2089677,0.0,1.0,3.0,-6.0,-2.0,-6.0,-2.0,-3.0
1706292322.2099705,-1.0,0.0,-5.0,-8.0,-15.0,-11.0,-6.0,1.0
1706292322.2099705,-1.0,-4.0,0.0,1.0,2.0,-2.0,-28.0,0.0
1706292322.2312057,1.0,5.0,2.0,-2.0,8.0,8.0,51.0,1.0
1706292322.2312057,-6.0,-15.0,-3.0,1.0,0.0,4.0,-24.0,-2.0
1706292322.2471445,-1.0,13.0,-4.0,1.0,0.0,-2.0,-12.0,-6.0
1706292322.2471445,0.0,-3.0,-2.0,-12.0,-7.0,-16.0,-26.0,-5.0
1706292322.2481437,-2.0,-5.0,-4.0,-9.0,-20.0,-9.0,-8.0,-3.0
1706292322.2481437,3.0,6.0,3.0,1.0,10.0,13.0,14.0,3.0
1706292322.254147,0.0,-2.0,5.0,11.0,8.0,14.0,10.0,3.0
1706292322.254147,0.0,0.0,-1.0,-3.0,7.0,-9.0,1.0,2.0
1706292322.2693045,-1.0,-1.0,-5.0,-1.0,4.0,-7.0,-17.0,-1.0
1706292322.2693045,-2.0,-2.0,-1.0,-6.0,-17.0,0.0,4.0,-5.0
1706292322.2701452,-1.0,-4.0,-2.0,2.0,-2.0,-4.0,-16.0,-1.0
1706292322.2701452,0.0,3.0,0.0,-1.0,6.0,1.0,14.0,-2.0
1706292322.2931428,-3.0,-11.0,-5.0,1.0,-11.0,-4.0,-13.0,-2.0
1706292322.2931428,0.0,3.0,0.0,-2.0,6.0,0.0,8.0,6.0
1706292322.2931428,0.0,0.0,-4.0,-5.0,-26.0,5.0,10.0,-6.0
1706292322.2931428,-3.0,-1.0,0.0,-20.0,2.0,1.0,-6.0,-3.0
1706292322.3046978,-1.0,3.0,8.0,35.0,21.0,-9.0,-14.0,-1.0
1706292322.3046978,1.0,-6.0,-4.0,-3.0,-7.0,25.0,22.0,-1.0
1706292322.314697,-3.0,-6.0,-6.0,-1.0,1.0,-15.0,-34.0,0.0
1706292322.314697,4.0,5.0,-3.0,-10.0,-4.0,11.0,22.0,1.0
1706292322.3571177,-4.0,-7.0,-6.0,-17.0,-16.0,-12.0,-47.0,-5.0
1706292322.3571177,1.0,7.0,7.0,4.0,4.0,-9.0,2.0,0.0
1706292322.358118,-3.0,-9.0,2.0,4.0,6.0,1.0,-2.0,1.0
1706292322.358118,-1.0,1.0,-2.0,-4.0,-13.0,-5.0,-8.0,-1.0
1706292322.3601196,-3.0,-1.0,-4.0,-5.0,1.0,-13.0,6.0,0.0
1706292322.3601196,3.0,7.0,2.0,10.0,12.0,13.0,7.0,3.0
1706292322.3601196,1.0,0.0,1.0,2.0,10.0,5.0,14.0,0.0
1706292322.3601196,2.0,9.0,1.0,3.0,-4.0,-8.0,-5.0,0.0
1706292322.3661225,2.0,-4.0,-4.0,-5.0,-15.0,1.0,12.0,-1.0
1706292322.3661225,-6.0,-7.0,-6.0,-13.0,-14.0,-23.0,13.0,4.0
1706292322.3731067,-4.0,12.0,1.0,2.0,3.0,13.0,-4.0,-15.0
1706292322.3731067,0.0,-6.0,1.0,5.0,-4.0,-10.0,-6.0,2.0
1706292322.3963118,3.0,9.0,3.0,-4.0,-1.0,5.0,-2.0,0.0
1706292322.3963118,-2.0,-6.0,-2.0,-6.0,18.0,17.0,7.0,-2.0
1706292322.3993125,0.0,-3.0,-4.0,4.0,-8.0,-5.0,0.0,5.0
1706292322.3993125,-4.0,-7.0,4.0,9.0,12.0,3.0,11.0,-4.0
1706292322.4117434,2.0,-1.0,2.0,-2.0,-6.0,-11.0,-9.0,3.0
1706292322.4117434,0.0,3.0,-2.0,6.0,-1.0,0.0,1.0,-4.0
1706292322.4127834,2.0,0.0,1.0,-4.0,1.0,-3.0,15.0,4.0
1706292322.4127834,-3.0,-8.0,-2.0,-3.0,3.0,5.0,-21.0,-5.0
1706292322.4210567,0.0,0.0,-2.0,-8.0,6.0,4.0,16.0,1.0
1706292322.4210567,0.0,2.0,1.0,-13.0,-20.0,-17.0,-14.0,-4.0
1706292322.4313092,-3.0,-1.0,5.0,29.0,6.0,-1.0,-2.0,-1.0
1706292322.4313092,1.0,0.0,-6.0,11.0,17.0,1.0,-4.0,6.0
1706292322.4588392,-5.0,-1.0,10.0,-14.0,-13.0,14.0,18.0,-5.0
1706292322.4588392,2.0,5.0,0.0,3.0,5.0,-21.0,-14.0,-5.0
1706292322.4588392,-1.0,7.0,-14.0,-17.0,-16.0,13.0,8.0,6.0
1706292322.4588392,-3.0,-13.0,-5.0,-3.0,-1.0,-10.0,22.0,3.0
1706292322.4729867,0.0,-1.0,-6.0,-4.0,1.0,16.0,-52.0,-3.0
1706292322.4729867,-1.0,10.0,10.0,7.0,-6.0,-6.0,-7.0,-3.0
1706292322.4729867,1.0,-6.0,3.0,-4.0,-1.0,-16.0,9.0,0.0
1706292322.4729867,0.0,1.0,-4.0,-2.0,-7.0,5.0,10.0,19.0
1706292322.4831753,-1.0,14.0,4.0,-1.0,3.0,-3.0,-17.0,-29.0
1706292322.4831753,-1.0,0.0,-15.0,-6.0,-1.0,11.0,9.0,0.0
1706292322.4931104,-8.0,-27.0,1.0,3.0,-4.0,-9.0,-23.0,-5.0
1706292322.4931104,-3.0,9.0,2.0,2.0,-2.0,-2.0,2.0,-1.0
1706292322.5131545,-3.0,-15.0,-9.0,-8.0,-1.0,-5.0,-1.0,2.0
1706292322.5131545,0.0,-2.0,-3.0,4.0,10.0,10.0,-11.0,-2.0
1706292322.5229995,1.0,2.0,3.0,-4.0,-2.0,10.0,20.0,1.0
1706292322.5229995,-2.0,2.0,-1.0,-15.0,-1.0,1.0,-3.0,-8.0
1706292322.5429828,-1.0,-10.0,0.0,7.0,0.0,-13.0,18.0,6.0
1706292322.5429828,1.0,-4.0,1.0,15.0,17.0,-3.0,-14.0,-7.0
1706292322.5429828,-2.0,-1.0,0.0,-6.0,-2.0,-2.0,-5.0,1.0
1706292322.5429828,-3.0,-7.0,-7.0,-10.0,-17.0,-5.0,-11.0,-9.0
1706292322.5429828,3.0,17.0,-3.0,-15.0,4.0,4.0,6.0,3.0
1706292322.5429828,-7.0,-20.0,-2.0,12.0,-20.0,-7.0,0.0,1.0
1706292322.5533116,2.0,5.0,7.0,10.0,0.0,-2.0,15.0,1.0
1706292322.5533116,1.0,1.0,-1.0,7.0,17.0,14.0,-20.0,-4.0
1706292322.580739,0.0,-1.0,-3.0,-3.0,5.0,-5.0,-5.0,-1.0
1706292322.581738,0.0,1.0,3.0,-16.0,-15.0,7.0,5.0,0.0
1706292322.581738,1.0,3.0,-5.0,-8.0,-8.0,-14.0,-4.0,-1.0
1706292322.581738,-1.0,0.0,-2.0,-4.0,-11.0,1.0,-1.0,-7.0
1706292322.592749,-9.0,-29.0,-7.0,4.0,-3.0,3.0,19.0,5.0
1706292322.592749,2.0,12.0,3.0,8.0,23.0,11.0,-11.0,0.0
1706292322.592749,-2.0,-8.0,-4.0,-1.0,11.0,3.0,-6.0,0.0
1706292322.592749,1.0,7.0,-1.0,0.0,-6.0,2.0,12.0,1.0
1706292322.6251214,4.0,11.0,0.0,-1.0,4.0,-16.0,-11.0,3.0
1706292322.6251214,-3.0,3.0,1.0,-13.0,-36.0,-19.0,-8.0,-6.0
1706292322.6251214,3.0,3.0,2.0,5.0,15.0,-3.0,-13.0,3.0
1706292322.6251214,-1.0,-4.0,4.0,5.0,8.0,17.0,28.0,3.0
1706292322.629115,-5.0,-12.0,-10.0,-15.0,-9.0,-10.0,0.0,-4.0
1706292322.629115,3.0,0.0,5.0,22.0,17.0,15.0,2.0,4.0
1706292322.6375928,0.0,5.0,-7.0,-27.0,-10.0,4.0,2.0,-2.0
1706292322.6385865,-1.0,-8.0,3.0,20.0,-4.0,8.0,-3.0,-2.0
1706292322.6515865,1.0,1.0,-4.0,0.0,-1.0,-11.0,3.0,0.0
1706292322.6515865,-4.0,-6.0,-3.0,-2.0,6.0,-2.0,-15.0,-4.0
1706292322.6525888,-1.0,0.0,-1.0,1.0,2.0,-1.0,-14.0,-2.0
1706292322.6525888,0.0,2.0,6.0,0.0,1.0,-13.0,-6.0,-2.0
1706292322.6842759,-2.0,-1.0,-8.0,-11.0,-12.0,0.0,-1.0,0.0
1706292322.6852758,-3.0,-6.0,-4.0,-5.0,-7.0,-7.0,26.0,-5.0
1706292322.6852758,1.0,1.0,1.0,5.0,4.0,-7.0,3.0,-2.0
1706292322.6852758,1.0,-2.0,1.0,3.0,12.0,17.0,2.0,-2.0
1706292322.6885865,2.0,5.0,5.0,12.0,-6.0,-14.0,-12.0,1.0
1706292322.6896007,-3.0,-6.0,-9.0,-20.0,-13.0,0.0,8.0,3.0
1706292322.6896007,-3.0,0.0,-4.0,-1.0,7.0,-4.0,-15.0,0.0
1706292322.6896007,-2.0,-1.0,2.0,4.0,-12.0,-33.0,-9.0,-6.0
1706292322.71361,0.0,4.0,3.0,9.0,25.0,71.0,56.0,6.0
1706292322.71361,-1.0,-4.0,-5.0,0.0,0.0,-2.0,8.0,1.0
1706292322.71361,-2.0,-4.0,0.0,-11.0,-10.0,0.0,-14.0,-4.0
1706292322.71361,1.0,3.0,-3.0,-11.0,-9.0,-21.0,-9.0,0.0
1706292322.7389493,-1.0,-2.0,-1.0,16.0,3.0,-6.0,-14.0,-2.0
1706292322.7389493,0.0,1.0,0.0,-8.0,-6.0,-8.0,-8.0,-2.0
1706292322.7389493,1.0,-1.0,-3.0,-1.0,-2.0,4.0,16.0,-1.0
1706292322.7389493,-3.0,-6.0,-4.0,-12.0,-11.0,-3.0,-7.0,-5.0
1706292322.749169,1.0,4.0,-2.0,-3.0,3.0,-6.0,-4.0,0.0
1706292322.749169,0.0,-4.0,-1.0,-11.0,-18.0,-6.0,-4.0,-1.0
1706292322.7500534,-3.0,8.0,-1.0,4.0,11.0,10.0,9.0,0.0
1706292322.7500534,0.0,-5.0,-3.0,11.0,21.0,9.0,-7.0,-1.0
1706292322.7722318,-1.0,-2.0,2.0,4.0,0.0,-9.0,-23.0,-3.0
1706292322.7722318,-1.0,-1.0,-6.0,-5.0,-4.0,11.0,24.0,-1.0
1706292322.7722318,-1.0,-2.0,-1.0,-11.0,-23.0,-6.0,0.0,1.0
1706292322.7722318,0.0,0.0,-3.0,-1.0,19.0,-10.0,-10.0,-1.0
1706292322.7941592,-3.0,1.0,2.0,3.0,-25.0,5.0,8.0,-1.0
1706292322.7941592,0.0,-1.0,0.0,1.0,13.0,-14.0,-17.0,-1.0
1706292322.795147,0.0,1.0,4.0,13.0,8.0,17.0,8.0,0.0
1706292322.795147,-1.0,-2.0,-1.0,-1.0,5.0,17.0,14.0,0.0
1706292322.809449,1.0,-4.0,-1.0,-3.0,-5.0,-27.0,-26.0,-4.0
1706292322.810404,-3.0,4.0,-3.0,-6.0,-2.0,-2.0,-2.0,-1.0
1706292322.810404,-2.0,-8.0,-3.0,-9.0,-9.0,-3.0,6.0,0.0
1706292322.810404,2.0,15.0,4.0,1.0,-8.0,-6.0,-10.0,2.0
1706292322.8315275,-4.0,-9.0,-1.0,12.0,10.0,4.0,7.0,-2.0
1706292322.8315275,-4.0,-7.0,-8.0,-9.0,-12.0,-4.0,-31.0,-6.0
1706292322.8323264,1.0,3.0,-2.0,0.0,5.0,13.0,9.0,4.0
1706292322.8323264,1.0,1.0,0.0,-1.0,8.0,26.0,12.0,-1.0
1706292322.8546827,1.0,5.0,3.0,0.0,4.0,-9.0,-7.0,1.0
1706292322.8546827,1.0,2.0,4.0,7.0,6.0,-19.0,-14.0,-2.0
1706292322.8546827,0.0,-4.0,-1.0,1.0,-14.0,-28.0,-21.0,-5.0
1706292322.8546827,-3.0,-10.0,-5.0,-12.0,-24.0,-5.0,1.0,-2.0
1706292322.8696725,-3.0,0.0,-3.0,0.0,2.0,2.0,6.0,3.0
1706292322.8696725,2.0,1.0,6.0,6.0,20.0,-5.0,-16.0,0.0
1706292322.8696725,-2.0,3.0,0.0,14.0,-15.0,21.0,18.0,1.0
1706292322.8696725,-2.0,0.0,3.0,6.0,11.0,-1.0,1.0,0.0
1706292322.8907678,2.0,-1.0,-4.0,-9.0,-4.0,-8.0,7.0,-1.0
1706292322.8907678,-1.0,3.0,-5.0,-10.0,-22.0,-2.0,-4.0,1.0
1706292322.8907678,-3.0,2.0,1.0,-3.0,7.0,5.0,21.0,-4.0
1706292322.8907678,-3.0,-6.0,-1.0,3.0,-11.0,-14.0,-12.0,-2.0
1706292322.9107957,0.0,0.0,2.0,-2.0,3.0,-4.0,-3.0,1.0
1706292322.9107957,-1.0,-2.0,-1.0,2.0,0.0,12.0,8.0,-2.0
1706292322.9107957,3.0,-1.0,-2.0,-7.0,9.0,-8.0,-10.0,-2.0
1706292322.9107957,-2.0,-5.0,-4.0,8.0,-9.0,-4.0,-1.0,-1.0
1706292322.9207704,-1.0,7.0,1.0,2.0,0.0,5.0,7.0,-2.0
1706292322.9207704,-1.0,-8.0,-1.0,-4.0,8.0,6.0,9.0,0.0
1706292322.9207704,0.0,8.0,0.0,-3.0,4.0,-13.0,-26.0,-2.0
1706292322.9207704,-6.0,-9.0,-6.0,-12.0,-11.0,3.0,11.0,-5.0
1706292322.950769,-1.0,-13.0,-2.0,-7.0,-11.0,8.0,14.0,2.0
1706292322.950769,-2.0,1.0,-4.0,0.0,-4.0,-4.0,-5.0,-3.0
1706292322.950769,-1.0,-5.0,-4.0,6.0,12.0,13.0,14.0,3.0
1706292322.950769,1.0,8.0,8.0,2.0,5.0,2.0,6.0,2.0
1706292322.9710915,-6.0,-3.0,-3.0,4.0,3.0,-19.0,-38.0,-9.0
1706292322.9710915,0.0,-4.0,3.0,1.0,-3.0,6.0,7.0,1.0
1706292322.9710915,-1.0,7.0,6.0,-8.0,2.0,-9.0,12.0,-2.0
1706292322.9710915,-6.0,-14.0,-33.0,-18.0,-40.0,-4.0,-19.0,-7.0
1706292322.9811246,5.0,6.0,4.0,8.0,19.0,-1.0,-3.0,3.0
1706292322.9811246,1.0,-2.0,1.0,4.0,-1.0,7.0,23.0,-2.0
1706292322.9811246,-2.0,-5.0,-2.0,-5.0,-3.0,-11.0,-21.0,1.0
1706292322.9811246,-1.0,-2.0,2.0,-4.0,1.0,-6.0,4.0,-1.0
1706292323.011068,0.0,3.0,3.0,2.0,4.0,12.0,12.0,-1.0
1706292323.011068,-1.0,0.0,-4.0,-2.0,-1.0,-10.0,-15.0,0.0
1706292323.011068,2.0,-3.0,0.0,-3.0,-4.0,12.0,19.0,22.0
1706292323.011068,-1.0,0.0,1.0,-4.0,-6.0,-20.0,-17.0,-32.0
1706292323.0308113,-4.0,-9.0,-6.0,-14.0,-16.0,-8.0,-7.0,-4.0
1706292323.0308113,1.0,15.0,6.0,3.0,7.0,13.0,4.0,2.0
1706292323.0308113,-7.0,-22.0,-6.0,6.0,9.0,0.0,-2.0,-6.0
1706292323.0308113,2.0,-3.0,3.0,-1.0,6.0,5.0,12.0,12.0
1706292323.0507812,-1.0,3.0,0.0,-2.0,-8.0,-4.0,-11.0,-4.0
1706292323.0507812,-1.0,6.0,-2.0,-5.0,-8.0,-7.0,-19.0,-7.0
1706292323.0507812,-2.0,-6.0,-5.0,-1.0,-16.0,-22.0,-23.0,-4.0
1706292323.0507812,1.0,1.0,3.0,1.0,21.0,14.0,9.0,3.0
1706292323.0710526,2.0,5.0,1.0,2.0,17.0,13.0,13.0,1.0
1706292323.0710526,-3.0,-2.0,0.0,14.0,4.0,0.0,-7.0,2.0
1706292323.0710526,0.0,-2.0,-1.0,4.0,-1.0,2.0,-17.0,2.0
1706292323.0710526,-1.0,7.0,4.0,-5.0,-2.0,-18.0,-4.0,-2.0
1706292323.1012971,-4.0,1.0,0.0,-12.0,-14.0,-5.0,-10.0,-3.0
1706292323.1012971,-3.0,-8.0,-15.0,-8.0,-1.0,14.0,8.0,2.0
1706292323.1012971,2.0,2.0,3.0,5.0,3.0,-11.0,-3.0,-6.0
1706292323.1012971,0.0,1.0,3.0,-1.0,9.0,15.0,15.0,5.0
1706292323.109333,2.0,3.0,5.0,6.0,-8.0,7.0,0.0,4.0
1706292323.109333,0.0,-4.0,3.0,-4.0,-9.0,-14.0,20.0,9.0
1706292323.1102962,-5.0,-2.0,-3.0,-3.0,-5.0,9.0,-23.0,-28.0
1706292323.1102962,0.0,2.0,1.0,4.0,9.0,-11.0,-1.0,7.0
1706292323.1339233,-1.0,-2.0,-4.0,2.0,-1.0,-3.0,-5.0,-7.0
1706292323.1339233,-1.0,-6.0,-3.0,-2.0,7.0,2.0,8.0,8.0
1706292323.1339233,0.0,2.0,-3.0,-8.0,-11.0,-5.0,16.0,-2.0
1706292323.1339233,0.0,-6.0,2.0,-5.0,-2.0,10.0,-24.0,-1.0
1706292323.1548357,0.0,1.0,1.0,16.0,14.0,0.0,3.0,3.0
1706292323.1548357,2.0,-5.0,3.0,1.0,4.0,7.0,18.0,-4.0
1706292323.1548357,-3.0,1.0,0.0,-2.0,-3.0,-8.0,-6.0,1.0
1706292323.1548357,-3.0,-11.0,-12.0,-7.0,-17.0,-7.0,-7.0,-1.0
1706292323.1821928,-1.0,-7.0,-3.0,-7.0,-4.0,1.0,21.0,2.0
1706292323.1821928,-1.0,1.0,1.0,-7.0,-3.0,-12.0,-21.0,-5.0
1706292323.1821928,-1.0,2.0,-2.0,5.0,8.0,15.0,13.0,-1.0
1706292323.1821928,-3.0,0.0,1.0,1.0,11.0,-1.0,0.0,5.0
1706292323.1921954,2.0,4.0,-2.0,-8.0,-23.0,27.0,11.0,-2.0
1706292323.1921954,-4.0,-7.0,0.0,2.0,0.0,-25.0,-12.0,-7.0
1706292323.1921954,-1.0,-3.0,-17.0,-5.0,-2.0,-3.0,-12.0,10.0
1706292323.1921954,-1.0,5.0,2.0,3.0,2.0,-4.0,-15.0,-25.0
1706292323.2141902,-1.0,0.0,1.0,0.0,-7.0,-21.0,-5.0,4.0
1706292323.2141902,-1.0,-1.0,6.0,3.0,-1.0,-1.0,-2.0,-4.0
1706292323.2151911,-2.0,-3.0,2.0,-1.0,0.0,16.0,3.0,-5.0
1706292323.2151911,-1.0,-4.0,-5.0,-2.0,1.0,-15.0,7.0,8.0
1706292323.241194,1.0,-1.0,-9.0,-10.0,-7.0,17.0,1.0,2.0
1706292323.2421927,-4.0,2.0,6.0,1.0,6.0,1.0,-1.0,-7.0
1706292323.2421927,2.0,8.0,12.0,6.0,-6.0,-17.0,9.0,7.0
1706292323.2421927,0.0,-12.0,-25.0,-6.0,-5.0,3.0,-12.0,0.0
1706292323.252231,-2.0,-3.0,2.0,-2.0,9.0,2.0,4.0,-3.0
1706292323.252231,0.0,2.0,-9.0,0.0,-5.0,-4.0,-2.0,3.0
1706292323.252231,2.0,2.0,15.0,-3.0,6.0,7.0,2.0,-2.0
1706292323.252231,-2.0,-2.0,-6.0,2.0,11.0,1.0,-3.0,2.0
1706292323.27375,0.0,7.0,0.0,-3.0,-10.0,-14.0,-1.0,-2.0
1706292323.27375,-3.0,4.0,-6.0,-5.0,-9.0,-2.0,-14.0,1.0
1706292323.2747407,-2.0,-4.0,3.0,-15.0,10.0,13.0,4.0,-5.0
1706292323.2747407,2.0,3.0,5.0,23.0,-23.0,-16.0,7.0,5.0
1706292323.2977695,-2.0,-2.0,18.0,4.0,8.0,-1.0,0.0,-4.0
1706292323.2977695,2.0,5.0,-4.0,0.0,0.0,-3.0,0.0,-1.0
1706292323.2977695,-2.0,0.0,16.0,-7.0,-8.0,1.0,-15.0,-6.0
1706292323.2987711,-4.0,0.0,-42.0,-17.0,-1.0,-1.0,17.0,5.0
1706292323.3117683,-6.0,-7.0,-2.0,3.0,-4.0,-15.0,-7.0,-9.0
1706292323.3117683,2.0,2.0,16.0,6.0,8.0,12.0,-3.0,3.0
1706292323.3127406,0.0,-3.0,0.0,1.0,5.0,-2.0,-2.0,-5.0
1706292323.3127406,2.0,1.0,8.0,-4.0,-4.0,6.0,13.0,12.0
1706292323.3337502,-4.0,-4.0,-5.0,-5.0,-18.0,-30.0,-16.0,-4.0
1706292323.3347385,0.0,-3.0,9.0,16.0,10.0,7.0,18.0,-2.0
1706292323.3347385,-3.0,-3.0,-17.0,-1.0,-2.0,4.0,6.0,5.0
1706292323.3347385,-3.0,-1.0,10.0,4.0,0.0,0.0,-13.0,-5.0
1706292323.3537395,1.0,-3.0,-10.0,-8.0,2.0,7.0,7.0,1.0
1706292323.3537395,-1.0,-5.0,0.0,4.0,8.0,-4.0,-14.0,-6.0
1706292323.3607442,1.0,4.0,19.0,12.0,-2.0,-7.0,8.0,-1.0
1706292323.3607442,0.0,3.0,-3.0,-9.0,-14.0,-1.0,-14.0,-4.0
1706292323.3712075,-1.0,-5.0,-9.0,-20.0,-17.0,-27.0,18.0,0.0
1706292323.3721938,-4.0,-6.0,-20.0,-6.0,1.0,39.0,-34.0,-4.0
1706292323.3721938,3.0,-2.0,-7.0,15.0,9.0,-16.0,-10.0,3.0
1706292323.3721938,-2.0,-4.0,20.0,-26.0,-4.0,-9.0,0.0,-11.0
1706292323.405194,-2.0,-3.0,-15.0,27.0,3.0,5.0,-29.0,6.0
1706292323.405194,0.0,3.0,0.0,-3.0,7.0,-19.0,33.0,-7.0
1706292323.405194,-1.0,-1.0,-3.0,-7.0,-9.0,2.0,14.0,1.0
1706292323.405194,3.0,6.0,15.0,6.0,9.0,16.0,-2.0,5.0
1706292323.4081914,-3.0,-4.0,-10.0,-9.0,-10.0,-7.0,-43.0,-9.0
1706292323.4081914,0.0,0.0,-2.0,-17.0,-6.0,-16.0,-2.0,4.0
1706292323.4172332,-2.0,-5.0,-12.0,8.0,-5.0,9.0,29.0,-18.0
1706292323.4172332,-1.0,2.0,13.0,6.0,8.0,9.0,-23.0,-1.0
1706292323.4411914,2.0,4.0,-8.0,-3.0,-6.0,-3.0,17.0,2.0
1706292323.4411914,-1.0,-1.0,-7.0,-3.0,1.0,-7.0,-35.0,-1.0
1706292323.4411914,0.0,1.0,1.0,-6.0,7.0,7.0,25.0,9.0
1706292323.4411914,-1.0,-2.0,-7.0,-9.0,-15.0,-14.0,10.0,0.0
1706292323.4661934,1.0,-1.0,10.0,14.0,13.0,18.0,5.0,-4.0
1706292323.4661934,0.0,1.0,1.0,3.0,0.0,-10.0,2.0,4.0
1706292323.4661934,-3.0,-6.0,-15.0,-4.0,-5.0,-18.0,-23.0,1.0
1706292323.4661934,-1.0,-1.0,16.0,4.0,-1.0,21.0,48.0,-5.0
1706292323.468382,2.0,7.0,16.0,-7.0,14.0,13.0,-21.0,1.0
1706292323.468382,-4.0,-13.0,-33.0,0.0,-21.0,-23.0,13.0,-5.0
1706292323.4766471,-2.0,0.0,0.0,-6.0,-11.0,4.0,-20.0,1.0
1706292323.4766471,-3.0,-4.0,-4.0,4.0,14.0,8.0,0.0,-4.0
1706292323.4918761,0.0,-2.0,5.0,-1.0,-1.0,-4.0,33.0,1.0
1706292323.4918761,3.0,4.0,20.0,8.0,-1.0,18.0,3.0,2.0
1706292323.4926565,-1.0,-1.0,-17.0,-12.0,-2.0,-18.0,-56.0,-11.0
1706292323.4926565,-3.0,-7.0,-11.0,4.0,-1.0,15.0,-5.0,7.0
1706292323.5245748,2.0,4.0,10.0,-2.0,0.0,-5.0,6.0,1.0
1706292323.5245748,-3.0,-1.0,-1.0,-7.0,3.0,-3.0,7.0,-4.0
1706292323.5245748,-1.0,0.0,0.0,7.0,-23.0,-6.0,-2.0,1.0
1706292323.5245748,2.0,5.0,8.0,9.0,15.0,-8.0,-8.0,2.0
1706292323.5286224,-2.0,-3.0,-15.0,2.0,7.0,9.0,10.0,-3.0
1706292323.5286224,-1.0,-1.0,4.0,-19.0,-17.0,-6.0,-9.0,-6.0
1706292323.5366573,2.0,-2.0,7.0,27.0,18.0,2.0,5.0,2.0
1706292323.5377069,-1.0,1.0,-2.0,-9.0,-10.0,-6.0,0.0,-5.0
1706292323.5518932,-3.0,-5.0,-11.0,-9.0,-4.0,-3.0,-16.0,-2.0
1706292323.5518932,-1.0,0.0,8.0,9.0,-5.0,3.0,20.0,-1.0
1706292323.5527983,-4.0,-5.0,-5.0,-15.0,-11.0,-7.0,10.0,-1.0
1706292323.5527983,1.0,1.0,2.0,8.0,11.0,-2.0,9.0,1.0
1706292323.5740168,-3.0,-7.0,5.0,1.0,15.0,-6.0,-36.0,-1.0
1706292323.5740168,1.0,1.0,3.0,11.0,1.0,-7.0,14.0,10.0
1706292323.575044,-2.0,3.0,-22.0,-11.0,1.0,18.0,16.0,-5.0
1706292323.575044,1.0,-2.0,-4.0,0.0,-8.0,-4.0,-5.0,6.0
1706292323.5895329,1.0,3.0,-4.0,-11.0,-4.0,0.0,6.0,-4.0
1706292323.5895329,-1.0,-3.0,9.0,3.0,0.0,-10.0,-24.0,7.0
1706292323.5964854,0.0,5.0,29.0,4.0,12.0,-2.0,58.0,5.0
1706292323.5964854,0.0,-3.0,-46.0,-13.0,0.0,-6.0,-27.0,-6.0
1706292323.6118703,-3.0,-5.0,1.0,5.0,-4.0,-3.0,5.0,3.0
1706292323.6118703,-2.0,0.0,18.0,-2.0,-10.0,3.0,-11.0,-5.0
1706292323.6118703,-1.0,-4.0,-5.0,-2.0,2.0,8.0,-11.0,1.0
1706292323.6118703,0.0,0.0,4.0,-6.0,4.0,-21.0,4.0,-5.0
1706292323.6338456,-4.0,-6.0,2.0,8.0,-11.0,16.0,-10.0,1.0
1706292323.6338456,0.0,-1.0,-9.0,-5.0,1.0,20.0,27.0,-3.0
1706292323.6348836,2.0,3.0,4.0,2.0,7.0,-15.0,-42.0,-6.0
1706292323.6348836,-2.0,2.0,10.0,-8.0,1.0,10.0,2.0,2.0
1706292323.650319,1.0,1.0,-7.0,3.0,-4.0,-9.0,-4.0,1.0
1706292323.6513183,-3.0,-5.0,-9.0,-9.0,-10.0,-5.0,-3.0,-6.0
1706292323.6563194,-2.0,-5.0,-6.0,-4.0,7.0,2.0,-4.0,3.0
1706292323.6563194,-1.0,-3.0,-3.0,-2.0,-17.0,-20.0,-10.0,-1.0
1706292323.6717675,2.0,4.0,-1.0,-1.0,14.0,17.0,20.0,-1.0
1706292323.6717675,-1.0,2.0,1.0,-4.0,2.0,6.0,-13.0,-5.0
1706292323.6717675,-2.0,-6.0,-8.0,-2.0,-3.0,-13.0,-22.0,2.0
1706292323.6727672,-2.0,-2.0,3.0,20.0,-18.0,13.0,45.0,-2.0
1706292323.6941576,-1.0,0.0,7.0,8.0,15.0,-11.0,-7.0,-2.0
1706292323.6941576,4.0,2.0,-4.0,-5.0,11.0,-9.0,10.0,2.0
1706292323.695033,-1.0,-6.0,-16.0,-13.0,-9.0,0.0,-29.0,-6.0
1706292323.695033,2.0,5.0,7.0,4.0,12.0,-26.0,-55.0,1.0
1706292323.72419,-1.0,0.0,1.0,-5.0,-8.0,46.0,40.0,1.0
1706292323.72419,-1.0,-4.0,-11.0,-6.0,-10.0,17.0,6.0,3.0
1706292323.72419,1.0,3.0,5.0,10.0,-4.0,-15.0,-2.0,1.0
1706292323.72419,1.0,-3.0,6.0,8.0,12.0,5.0,-21.0,-2.0
1706292323.7313185,-2.0,0.0,-6.0,-18.0,-13.0,-27.0,19.0,-4.0
1706292323.7313185,2.0,0.0,-8.0,0.0,14.0,11.0,14.0,-1.0
1706292323.73232,0.0,4.0,19.0,8.0,1.0,5.0,-29.0,-4.0
1706292323.73232,-2.0,-2.0,-9.0,-9.0,-3.0,4.0,19.0,0.0
1706292323.75469,0.0,-4.0,-6.0,-2.0,-3.0,-16.0,-20.0,0.0
1706292323.75469,-3.0,0.0,-3.0,-12.0,-19.0,-1.0,6.0,-3.0
1706292323.75469,-3.0,-3.0,0.0,-7.0,-4.0,-2.0,17.0,3.0
1706292323.75469,0.0,-2.0,6.0,26.0,7.0,2.0,-4.0,-3.0
1706292323.7773795,1.0,0.0,-1.0,-6.0,-6.0,-4.0,-9.0,-3.0
1706292323.7773795,1.0,0.0,-3.0,-6.0,-1.0,-5.0,-9.0,2.0
1706292323.7783875,-1.0,0.0,-1.0,-7.0,3.0,2.0,5.0,-4.0
1706292323.7783875,-9.0,-5.0,-1.0,-13.0,-16.0,-6.0,-6.0,-6.0
1706292323.7953887,-4.0,-5.0,-3.0,-2.0,-1.0,1.0,4.0,1.0
1706292323.7953887,0.0,-3.0,-3.0,16.0,13.0,-1.0,-4.0,-2.0
1706292323.7953887,3.0,-1.0,-6.0,-8.0,2.0,-15.0,3.0,0.0
1706292323.7953887,3.0,2.0,1.0,-7.0,-19.0,21.0,20.0,-1.0
1706292323.8143227,-1.0,-3.0,-2.0,-2.0,8.0,-5.0,-19.0,0.0
1706292323.8143227,-3.0,-2.0,5.0,14.0,8.0,-10.0,-26.0,-5.0
1706292323.8143227,0.0,3.0,0.0,3.0,3.0,42.0,40.0,4.0
1706292323.8143227,1.0,-1.0,-12.0,-18.0,-18.0,-14.0,6.0,-1.0
1706292323.8377826,-1.0,-1.0,3.0,2.0,2.0,-15.0,-19.0,-4.0
1706292323.8377826,2.0,-2.0,-2.0,7.0,19.0,1.0,-14.0,3.0
1706292323.8377826,-2.0,-2.0,13.0,2.0,2.0,-11.0,-23.0,0.0
1706292323.8377826,-2.0,-1.0,-8.0,-10.0,-17.0,9.0,23.0,2.0
1706292323.8599544,4.0,-2.0,-8.0,-4.0,-14.0,-12.0,0.0,0.0
1706292323.8599544,-5.0,-5.0,1.0,8.0,-1.0,-3.0,3.0,0.0
1706292323.8599544,0.0,-1.0,-7.0,2.0,7.0,7.0,9.0,-1.0
1706292323.8599544,0.0,5.0,10.0,-2.0,9.0,4.0,-9.0,1.0
1706292323.8831012,1.0,0.0,1.0,-4.0,-4.0,-8.0,-2.0,0.0
1706292323.8831012,-4.0,-7.0,-13.0,-13.0,-19.0,-5.0,-2.0,-4.0
1706292323.8840988,-4.0,-8.0,2.0,3.0,1.0,5.0,10.0,0.0
1706292323.8840988,1.0,1.0,4.0,11.0,18.0,-13.0,-23.0,-5.0
1706292323.9164488,-3.0,-1.0,-6.0,-7.0,4.0,16.0,10.0,0.0
1706292323.9164488,0.0,8.0,2.0,7.0,-1.0,0.0,18.0,-4.0
1706292323.9164488,0.0,-7.0,-11.0,-11.0,-13.0,-40.0,-60.0,-3.0
1706292323.9164488,-1.0,-3.0,0.0,-5.0,-1.0,30.0,36.0,2.0
1706292323.9174495,0.0,1.0,3.0,9.0,-4.0,-5.0,-2.0,2.0
1706292323.9174495,-1.0,-3.0,5.0,-8.0,3.0,15.0,-3.0,-3.0
1706292323.9174495,-2.0,0.0,-9.0,-2.0,-7.0,-15.0,9.0,-1.0
1706292323.9174495,-3.0,-4.0,-6.0,-10.0,-24.0,-32.0,-23.0,-6.0
1706292323.9342337,2.0,-1.0,7.0,13.0,32.0,19.0,-12.0,-1.0
1706292323.9349818,1.0,1.0,-4.0,-3.0,1.0,-11.0,6.0,2.0
1706292323.9349818,1.0,9.0,12.0,23.0,5.0,12.0,8.0,0.0
1706292323.9349818,-4.0,-7.0,13.0,-1.0,3.0,-9.0,-6.0,0.0
1706292323.9572148,-2.0,-2.0,-5.0,7.0,-3.0,7.0,7.0,-6.0
1706292323.9572148,1.0,-4.0,-32.0,-12.0,-13.0,-23.0,5.0,16.0
1706292323.958087,-1.0,1.0,7.0,-10.0,-5.0,32.0,10.0,-31.0
1706292323.958087,-2.0,-4.0,5.0,-1.0,6.0,-10.0,-1.0,1.0
1706292323.9703772,2.0,8.0,18.0,12.0,2.0,4.0,-4.0,0.0
1706292323.9703772,-5.0,-11.0,-15.0,-2.0,6.0,-8.0,-13.0,-5.0
1706292323.9703772,1.0,1.0,-11.0,-2.0,-5.0,24.0,35.0,12.0
1706292323.9703772,-2.0,-1.0,-9.0,-11.0,-8.0,-15.0,-13.0,0.0
1706292323.9944336,0.0,2.0,1.0,-5.0,-3.0,0.0,10.0,-4.0
1706292323.9944336,0.0,0.0,-13.0,4.0,-4.0,5.0,-6.0,0.0
1706292323.9944336,-4.0,-3.0,8.0,-11.0,-9.0,-25.0,-10.0,-2.0
1706292323.9944336,4.0,6.0,4.0,6.0,5.0,24.0,12.0,3.0
1706292324.020304,-1.0,-5.0,-2.0,13.0,9.0,-18.0,4.0,4.0
1706292324.020304,0.0,5.0,15.0,2.0,2.0,10.0,-10.0,-2.0
1706292324.020304,2.0,1.0,-7.0,-8.0,-10.0,-15.0,-8.0,1.0
1706292324.020304,-4.0,-10.0,-6.0,-5.0,-13.0,-3.0,6.0,-5.0
1706292324.0306108,-3.0,-2.0,-12.0,-9.0,-7.0,-1.0,-1.0,-2.0
1706292324.0306108,-2.0,1.0,13.0,7.0,12.0,2.0,-1.0,-3.0
1706292324.0306108,0.0,2.0,-2.0,-2.0,10.0,2.0,2.0,0.0
1706292324.0306108,1.0,-3.0,-5.0,19.0,15.0,3.0,-2.0,4.0
1706292324.0550368,-2.0,-1.0,-4.0,-13.0,-19.0,-5.0,11.0,-4.0
1706292324.0550368,-5.0,-6.0,3.0,-5.0,-15.0,-7.0,-9.0,-10.0
1706292324.0550368,0.0,2.0,-4.0,2.0,-6.0,-14.0,4.0,5.0
1706292324.0550368,-2.0,3.0,0.0,-5.0,8.0,13.0,16.0,-4.0
1706292324.0781114,-1.0,-8.0,-5.0,-5.0,4.0,9.0,8.0,-1.0
1706292324.0781114,0.0,2.0,5.0,-4.0,-1.0,4.0,-17.0,-1.0
1706292324.0781114,0.0,-4.0,-10.0,-8.0,-1.0,-13.0,12.0,1.0
1706292324.0781114,-3.0,-2.0,3.0,-2.0,6.0,3.0,-13.0,-2.0
1706292324.086283,-2.0,-2.0,-6.0,-5.0,-2.0,-20.0,-19.0,-3.0
1706292324.086283,3.0,1.0,3.0,-3.0,-19.0,-1.0,15.0,1.0
1706292324.086283,-5.0,-5.0,4.0,10.0,15.0,5.0,0.0,-3.0
1706292324.086283,1.0,3.0,7.0,6.0,-4.0,7.0,-13.0,-1.0
1706292324.1144586,-1.0,-1.0,-4.0,-2.0,8.0,-3.0,-3.0,-1.0
1706292324.115452,1.0,1.0,11.0,-6.0,-7.0,-5.0,17.0,1.0
1706292324.115452,0.0,-5.0,-20.0,-4.0,-2.0,-2.0,-5.0,-1.0
1706292324.115452,1.0,0.0,-3.0,2.0,1.0,1.0,-11.0,-4.0
1706292324.1371133,-3.0,2.0,0.0,-1.0,-2.0,14.0,5.0,1.0
1706292324.1371133,0.0,-4.0,6.0,2.0,-1.0,-3.0,15.0,-2.0
1706292324.1381152,-1.0,1.0,7.0,-1.0,-11.0,-22.0,-18.0,-2.0
1706292324.1381152,-3.0,2.0,-13.0,-14.0,-6.0,-5.0,-4.0,-1.0
1706292324.1551156,-2.0,-3.0,7.0,14.0,9.0,5.0,16.0,2.0
1706292324.156117,-1.0,-4.0,-10.0,-9.0,5.0,-2.0,-17.0,-2.0
1706292324.156117,0.0,1.0,6.0,10.0,0.0,0.0,-3.0,4.0
1706292324.156117,2.0,0.0,1.0,2.0,6.0,7.0,13.0,0.0
1706292324.173821,-1.0,-2.0,-3.0,-6.0,1.0,-17.0,-5.0,-2.0
1706292324.173821,-2.0,1.0,-1.0,-6.0,-19.0,2.0,-4.0,-3.0
1706292324.1816654,1.0,-4.0,-4.0,-3.0,1.0,14.0,25.0,3.0
1706292324.1816654,-4.0,-2.0,2.0,7.0,6.0,-14.0,-5.0,-10.0
1706292324.1969674,3.0,1.0,-12.0,-2.0,-3.0,24.0,4.0,2.0
1706292324.1969674,-2.0,2.0,12.0,0.0,3.0,-18.0,-13.0,-2.0
1706292324.199136,-1.0,1.0,1.0,-12.0,-9.0,7.0,3.0,3.0
1706292324.199136,1.0,2.0,-2.0,1.0,-3.0,-1.0,2.0,-2.0
1706292324.2131684,-4.0,-5.0,2.0,9.0,4.0,-3.0,-4.0,-1.0
1706292324.2131684,0.0,-4.0,-9.0,-2.0,3.0,-11.0,-4.0,-2.0
1706292324.2141433,-1.0,0.0,9.0,-3.0,4.0,15.0,4.0,-1.0
1706292324.2141433,-1.0,-3.0,-24.0,-2.0,-1.0,-10.0,-13.0,2.0
1706292324.2448394,-3.0,3.0,17.0,-15.0,-13.0,-23.0,-16.0,-4.0
1706292324.2448394,-5.0,-3.0,5.0,-3.0,-22.0,16.0,19.0,-3.0
1706292324.2448394,-1.0,0.0,-10.0,-1.0,18.0,1.0,-12.0,-1.0
1706292324.2448394,1.0,3.0,3.0,-1.0,-11.0,-11.0,-5.0,-1.0
1706292324.2568414,-1.0,-6.0,-10.0,3.0,-3.0,4.0,-4.0,1.0
1706292324.2578099,2.0,1.0,1.0,5.0,14.0,-9.0,5.0,3.0
1706292324.2578099,-2.0,-2.0,-1.0,0.0,-9.0,2.0,12.0,-4.0
1706292324.2578099,-2.0,-3.0,-2.0,4.0,5.0,-27.0,-37.0,-5.0
1706292324.2710638,0.0,2.0,-2.0,-4.0,10.0,44.0,17.0,3.0
1706292324.2710638,1.0,1.0,2.0,-9.0,-10.0,-11.0,-12.0,-2.0
1706292324.2794085,0.0,-3.0,-8.0,2.0,-13.0,-12.0,-4.0,2.0
1706292324.2794085,1.0,-4.0,2.0,6.0,21.0,13.0,18.0,0.0
1706292324.3028042,-3.0,-2.0,4.0,-3.0,-6.0,-14.0,-2.0,-3.0
1706292324.3028042,0.0,-1.0,-2.0,2.0,7.0,6.0,-12.0,-3.0
1706292324.3028042,-2.0,-3.0,1.0,-3.0,-3.0,1.0,-10.0,-1.0
1706292324.3028042,1.0,2.0,4.0,3.0,-11.0,-11.0,3.0,-2.0
1706292324.3178744,-1.0,0.0,-6.0,3.0,-4.0,-5.0,-17.0,-3.0
1706292324.3178744,-2.0,-2.0,-5.0,-7.0,8.0,18.0,15.0,2.0
1706292324.3191261,-3.0,-4.0,-9.0,-4.0,-11.0,-21.0,-18.0,-3.0
1706292324.3195295,-3.0,1.0,23.0,-6.0,-5.0,2.0,11.0,2.0
1706292324.3315265,-1.0,-3.0,-5.0,-4.0,3.0,6.0,15.0,-2.0
1706292324.3315265,2.0,6.0,-4.0,12.0,11.0,1.0,-16.0,-1.0
1706292324.3396754,2.0,2.0,6.0,1.0,-1.0,-18.0,-1.0,-2.0
1706292324.3396754,-2.0,-7.0,-8.0,-3.0,-5.0,21.0,9.0,1.0
1706292324.3629348,2.0,-1.0,-3.0,-10.0,-3.0,-1.0,9.0,1.0
1706292324.3629348,-2.0,-4.0,-1.0,7.0,1.0,-1.0,-10.0,-6.0
1706292324.370924,-4.0,-1.0,-2.0,1.0,3.0,1.0,-8.0,-2.0
1706292324.3719234,0.0,1.0,-3.0,-15.0,-18.0,-8.0,19.0,0.0
1706292324.376621,0.0,-2.0,-3.0,1.0,18.0,1.0,-24.0,5.0
1706292324.376621,-2.0,-3.0,-4.0,1.0,-14.0,-7.0,13.0,-1.0
1706292324.3773956,-1.0,0.0,6.0,4.0,10.0,-10.0,-14.0,-5.0
1706292324.3773956,0.0,-2.0,-6.0,-2.0,4.0,16.0,19.0,3.0
1706292324.391434,-2.0,-1.0,-4.0,-2.0,-22.0,-18.0,-33.0,-3.0
1706292324.391434,-1.0,0.0,2.0,0.0,13.0,7.0,12.0,2.0
1706292324.4085689,-3.0,-5.0,-3.0,-9.0,-14.0,-3.0,-10.0,-2.0
1706292324.4085689,-1.0,-1.0,2.0,-13.0,1.0,-14.0,-35.0,14.0
1706292324.4153223,-1.0,-2.0,-3.0,16.0,-4.0,13.0,21.0,-33.0
1706292324.4153223,-5.0,-7.0,-3.0,2.0,7.0,-3.0,-12.0,1.0
1706292324.4163175,0.0,-2.0,-5.0,8.0,16.0,13.0,9.0,-1.0
1706292324.4163175,0.0,0.0,5.0,-1.0,-7.0,-11.0,-17.0,-4.0
1706292324.4379835,-1.0,0.0,-2.0,-10.0,-4.0,-4.0,15.0,7.0
1706292324.4379835,3.0,3.0,-4.0,-13.0,-14.0,-11.0,9.0,1.0
1706292324.4379835,-2.0,-4.0,-3.0,-9.0,3.0,20.0,-7.0,-5.0
1706292324.4379835,-3.0,-4.0,-2.0,14.0,17.0,5.0,30.0,-1.0
1706292324.4510493,1.0,2.0,0.0,-7.0,-14.0,-18.0,-1.0,6.0
1706292324.4510493,0.0,3.0,10.0,-1.0,-3.0,3.0,16.0,-2.0
1706292324.4625459,-1.0,1.0,-4.0,-1.0,1.0,4.0,8.0,1.0
1706292324.4625459,-2.0,-6.0,-8.0,-13.0,-7.0,-13.0,-14.0,-1.0
1706292324.4726598,1.0,7.0,3.0,0.0,-2.0,-9.0,-2.0,4.0
1706292324.4726598,-3.0,-5.0,3.0,8.0,6.0,9.0,-5.0,-1.0
1706292324.4726598,3.0,2.0,2.0,10.0,17.0,-2.0,22.0,3.0
1706292324.4726598,-4.0,0.0,5.0,11.0,0.0,19.0,13.0,0.0
1706292324.4925742,-3.0,-2.0,-2.0,-10.0,-12.0,-17.0,-15.0,-9.0
1706292324.4925742,9.0,1.0,14.0,-1.0,-8.0,-7.0,-11.0,22.0
1706292324.4925742,-3.0,-6.0,-22.0,-14.0,-10.0,30.0,12.0,-3.0
1706292324.4925742,0.0,-2.0,-9.0,6.0,6.0,-12.0,-17.0,-9.0
1706292324.5028648,-1.0,0.0,1.0,0.0,9.0,-6.0,15.0,3.0
1706292324.5028648,-3.0,-1.0,-3.0,-2.0,-6.0,2.0,-32.0,-8.0
1706292324.512786,-1.0,1.0,10.0,6.0,-5.0,-14.0,10.0,-2.0
1706292324.512786,1.0,6.0,0.0,-17.0,-1.0,8.0,1.0,0.0
1706292324.5325463,-4.0,-8.0,1.0,24.0,3.0,15.0,8.0,2.0
1706292324.5325463,-3.0,1.0,-4.0,-7.0,-3.0,-14.0,4.0,-9.0
1706292324.5325463,0.0,0.0,7.0,4.0,-2.0,2.0,-5.0,1.0
1706292324.5325463,-1.0,1.0,0.0,-8.0,-12.0,-6.0,-10.0,-6.0
1706292324.5530632,3.0,0.0,-5.0,-14.0,5.0,-3.0,-10.0,0.0
1706292324.5530632,-2.0,3.0,-7.0,1.0,-5.0,3.0,11.0,-3.0
1706292324.5530632,-1.0,-2.0,11.0,4.0,9.0,-4.0,-15.0,2.0
1706292324.5530632,-3.0,-4.0,-26.0,9.0,-4.0,3.0,-9.0,-6.0
1706292324.5630794,0.0,0.0,10.0,-7.0,0.0,-18.0,-1.0,-1.0
1706292324.5630794,-1.0,-5.0,-2.0,7.0,6.0,18.0,12.0,-1.0
1706292324.5731232,0.0,2.0,0.0,-5.0,-9.0,-25.0,-21.0,-3.0
1706292324.5731232,0.0,3.0,10.0,8.0,10.0,34.0,45.0,-3.0
1706292324.5934381,-2.0,-5.0,-7.0,-8.0,-12.0,1.0,-13.0,-1.0
1706292324.5934381,0.0,1.0,-4.0,-3.0,12.0,-7.0,6.0,0.0
1706292324.5934381,0.0,-1.0,3.0,0.0,-14.0,-19.0,-44.0,-6.0
1706292324.5934381,0.0,-5.0,-7.0,-6.0,12.0,-2.0,-24.0,1.0
