1706292147.1830475,38.0,-8.0,-33.0,22.0,28.0,24.0,1.0,34.0
1706292147.1830475,0.0,-6.0,3.0,11.0,20.0,20.0,-23.0,-11.0
1706292147.1830475,2.0,7.0,33.0,11.0,9.0,-4.0,6.0,6.0
1706292147.1830475,1.0,1.0,-52.0,-5.0,-19.0,-14.0,-23.0,-8.0
1706292147.2030587,3.0,-7.0,4.0,-38.0,-42.0,-23.0,-10.0,1.0
1706292147.2030587,6.0,-1.0,-19.0,3.0,22.0,22.0,13.0,-10.0
1706292147.2130508,-10.0,-1.0,14.0,17.0,12.0,4.0,7.0,-6.0
1706292147.2130508,-17.0,-7.0,-22.0,-3.0,8.0,1.0,-1.0,11.0
1706292147.2230465,31.0,9.0,17.0,9.0,-28.0,-29.0,-5.0,1.0
1706292147.2230465,-4.0,-5.0,-32.0,-20.0,-13.0,11.0,-2.0,-16.0
1706292147.2230465,-13.0,-7.0,10.0,-2.0,1.0,15.0,-5.0,3.0
1706292147.2230465,-8.0,-4.0,6.0,8.0,15.0,2.0,-16.0,-1.0
1706292147.243149,20.0,2.0,-6.0,-7.0,6.0,-9.0,4.0,1.0
1706292147.243149,7.0,1.0,13.0,-8.0,-2.0,1.0,-8.0,-8.0
1706292147.2530549,-26.0,2.0,77.0,20.0,1.0,-12.0,-5.0,2.0
1706292147.2530549,3.0,-10.0,-44.0,-42.0,-14.0,-6.0,-6.0,-6.0
1706292147.273125,16.0,10.0,40.0,12.0,2.0,-4.0,10.0,1.0
1706292147.273125,-15.0,-7.0,12.0,-4.0,-5.0,4.0,1.0,-1.0
1706292147.273125,6.0,3.0,-46.0,-3.0,1.0,-1.0,-7.0,-3.0
1706292147.273125,7.0,2.0,21.0,9.0,9.0,-7.0,1.0,1.0
1706292147.3030462,4.0,-6.0,-31.0,-7.0,-3.0,2.0,-2.0,3.0
1706292147.3030462,-11.0,0.0,-1.0,2.0,-14.0,-7.0,-6.0,-5.0
1706292147.3030462,-2.0,-7.0,-18.0,-5.0,-1.0,2.0,0.0,-2.0
1706292147.3030462,-6.0,-2.0,1.0,7.0,6.0,8.0,-4.0,-2.0
1706292147.3030462,7.0,-1.0,-16.0,-5.0,-11.0,-5.0,-5.0,0.0
1706292147.3030462,27.0,4.0,-1.0,4.0,-6.0,-2.0,2.0,-1.0
1706292147.3030462,-35.0,-7.0,0.0,-10.0,8.0,7.0,-2.0,-5.0
1706292147.3030462,0.0,-3.0,6.0,7.0,0.0,-1.0,-1.0,0.0
1706292147.3330488,15.0,3.0,6.0,7.0,5.0,1.0,-2.0,2.0
1706292147.3330488,-13.0,0.0,-15.0,-11.0,-3.0,-7.0,0.0,-1.0
1706292147.3330488,11.0,-5.0,-5.0,-4.0,-3.0,2.0,1.0,1.0
1706292147.3330488,-19.0,-9.0,52.0,10.0,2.0,6.0,-1.0,-1.0
1706292147.3433743,16.0,7.0,-69.0,-4.0,9.0,3.0,2.0,1.0
1706292147.3433743,-22.0,-5.0,19.0,-7.0,-13.0,-8.0,18.0,-3.0
1706292147.3533893,13.0,-1.0,3.0,-6.0,-7.0,-8.0,-41.0,-3.0
1706292147.3533893,-3.0,4.0,-29.0,-4.0,1.0,6.0,15.0,-3.0
1706292147.3633478,5.0,8.0,34.0,5.0,3.0,2.0,2.0,2.0
1706292147.3633478,-6.0,-2.0,-3.0,-5.0,1.0,5.0,5.0,-1.0
1706292147.3633478,-7.0,-4.0,8.0,3.0,-1.0,-9.0,-23.0,-6.0
1706292147.3633478,12.0,6.0,36.0,10.0,-5.0,-7.0,-8.0,0.0
1706292147.39439,-14.0,-8.0,-32.0,-12.0,0.0,4.0,-4.0,-3.0
1706292147.39439,7.0,3.0,-9.0,0.0,-1.0,-2.0,-8.0,-3.0
1706292147.3963904,-6.0,-8.0,15.0,0.0,-3.0,-6.0,12.0,1.0
1706292147.3963904,4.0,6.0,-2.0,4.0,12.0,7.0,-6.0,1.0
1706292147.408174,-2.0,0.0,5.0,10.0,3.0,-3.0,-5.0,-1.0
1706292147.408174,-4.0,-6.0,8.0,-3.0,-9.0,15.0,0.0,-3.0
1706292147.4093184,9.0,0.0,-6.0,0.0,-5.0,-9.0,5.0,2.0
1706292147.4093184,2.0,0.0,-4.0,-15.0,-2.0,-12.0,1.0,1.0
1706292147.4295995,-12.0,-3.0,11.0,18.0,-1.0,-2.0,2.0,2.0
1706292147.4295995,6.0,-10.0,-11.0,-13.0,27.0,10.0,-8.0,-4.0
1706292147.4295995,-11.0,7.0,37.0,13.0,-8.0,1.0,5.0,0.0
1706292147.4295995,3.0,-10.0,-53.0,-29.0,-10.0,-7.0,0.0,-2.0
1706292147.469315,4.0,-11.0,26.0,7.0,3.0,13.0,0.0,0.0
1706292147.469315,2.0,16.0,-37.0,-7.0,-8.0,-12.0,-12.0,-2.0
1706292147.469315,-5.0,-3.0,13.0,2.0,1.0,17.0,10.0,0.0
1706292147.469315,-1.0,3.0,-19.0,8.0,0.0,-2.0,-2.0,-1.0
1706292147.469315,11.0,-4.0,27.0,-5.0,-4.0,-13.0,0.0,0.0
1706292147.469315,0.0,-19.0,-51.0,-2.0,-2.0,-7.0,-5.0,-1.0
1706292147.469315,-22.0,3.0,16.0,0.0,0.0,2.0,2.0,-2.0
1706292147.469315,13.0,-2.0,-34.0,2.0,-2.0,3.0,-3.0,-2.0
1706292147.4895632,-13.0,5.0,-10.0,-5.0,0.0,-2.0,-2.0,-3.0
1706292147.4895632,7.0,3.0,40.0,8.0,-1.0,-6.0,-3.0,-1.0
1706292147.4895632,5.0,-3.0,-22.0,-2.0,2.0,-4.0,5.0,-1.0
1706292147.4895632,5.0,4.0,22.0,3.0,1.0,0.0,-3.0,6.0
1706292147.519318,2.0,4.0,-13.0,-12.0,-4.0,-5.0,-5.0,-8.0
1706292147.519318,-3.0,-10.0,4.0,1.0,-7.0,-5.0,-2.0,-4.0
1706292147.519318,5.0,-1.0,-3.0,2.0,1.0,-2.0,2.0,0.0
1706292147.519318,-5.0,-2.0,9.0,-8.0,-11.0,-7.0,-5.0,-1.0
1706292147.519318,12.0,3.0,-3.0,-4.0,0.0,8.0,0.0,0.0
1706292147.519318,-30.0,-7.0,6.0,14.0,10.0,7.0,-1.0,0.0
1706292147.5293233,6.0,1.0,38.0,0.0,10.0,7.0,1.0,-1.0
1706292147.5293233,7.0,0.0,-58.0,8.0,5.0,-1.0,0.0,-1.0
1706292147.5496807,2.0,0.0,28.0,-5.0,-6.0,-4.0,-1.0,-1.0
1706292147.5496807,-14.0,9.0,36.0,19.0,-6.0,-19.0,-5.0,-3.0
1706292147.5496807,-8.0,-22.0,-52.0,-39.0,-11.0,10.0,-3.0,-5.0
1706292147.5496807,-5.0,1.0,-13.0,16.0,2.0,2.0,1.0,-2.0
1706292147.579383,-2.0,-14.0,20.0,-8.0,-4.0,-11.0,-5.0,-1.0
1706292147.579383,7.0,3.0,-32.0,-1.0,-2.0,1.0,2.0,1.0
1706292147.579383,1.0,3.0,10.0,-8.0,-4.0,-5.0,-10.0,-2.0
1706292147.579383,-6.0,-6.0,18.0,-3.0,-1.0,6.0,14.0,0.0
1706292147.579383,-2.0,4.0,-8.0,1.0,-1.0,-6.0,11.0,0.0
1706292147.579383,5.0,2.0,14.0,-2.0,-3.0,12.0,-22.0,-2.0
1706292147.5897198,1.0,-1.0,-10.0,7.0,-2.0,-3.0,-10.0,0.0
1706292147.5897198,4.0,-2.0,17.0,-3.0,6.0,-7.0,-20.0,-4.0
1706292147.6194146,-16.0,-1.0,2.0,14.0,11.0,9.0,3.0,3.0
1706292147.6194146,1.0,-5.0,-3.0,-18.0,-12.0,-8.0,43.0,16.0
1706292147.6194146,3.0,2.0,-20.0,2.0,-5.0,1.0,8.0,-16.0
1706292147.6194146,6.0,9.0,40.0,2.0,-3.0,-10.0,-6.0,2.0
1706292147.6297758,-5.0,-3.0,-8.0,4.0,4.0,6.0,-2.0,-1.0
1706292147.6297758,6.0,-3.0,1.0,-1.0,-1.0,26.0,-4.0,0.0
1706292147.6297758,-1.0,-1.0,-2.0,9.0,15.0,-12.0,4.0,5.0
1706292147.6297758,2.0,7.0,54.0,14.0,1.0,2.0,3.0,-2.0
1706292147.63977,3.0,-10.0,-58.0,-30.0,-11.0,-3.0,-8.0,-3.0
1706292147.63977,-5.0,0.0,0.0,-4.0,-7.0,4.0,-3.0,-6.0
1706292147.6497154,0.0,-1.0,-27.0,-8.0,-10.0,-18.0,-12.0,1.0
1706292147.6497154,-3.0,0.0,34.0,-4.0,0.0,9.0,15.0,-1.0
1706292147.6701808,-7.0,-7.0,4.0,0.0,3.0,5.0,13.0,1.0
1706292147.6701808,5.0,7.0,17.0,3.0,3.0,-6.0,-28.0,-1.0
1706292147.6798358,-5.0,-4.0,37.0,8.0,-4.0,-2.0,22.0,-2.0
1706292147.6798358,-1.0,-5.0,-33.0,-1.0,2.0,1.0,-30.0,7.0
1706292147.6898322,4.0,8.0,36.0,5.0,-2.0,5.0,26.0,-21.0
1706292147.6898322,-5.0,-15.0,-78.0,-28.0,-7.0,-7.0,5.0,-4.0
1706292147.6898322,0.0,1.0,23.0,5.0,-4.0,-12.0,-14.0,-3.0
1706292147.6898322,-9.0,-6.0,-40.0,-12.0,-2.0,-1.0,-4.0,-4.0
1706292147.6998339,-8.0,4.0,19.0,15.0,4.0,0.0,-14.0,4.0
1706292147.6998339,22.0,5.0,-1.0,-1.0,3.0,2.0,5.0,-3.0
1706292147.7101862,-11.0,-4.0,-27.0,-1.0,-4.0,0.0,0.0,-2.0
1706292147.7101862,-12.0,-15.0,-1.0,22.0,-7.0,0.0,-5.0,-6.0
1706292147.7298331,9.0,6.0,-6.0,-16.0,14.0,-4.0,-7.0,2.0
1706292147.7298331,-7.0,0.0,11.0,1.0,-2.0,-6.0,0.0,-1.0
1706292147.7298331,12.0,4.0,8.0,-3.0,-6.0,5.0,-4.0,4.0
1706292147.7298331,6.0,4.0,-12.0,-16.0,-14.0,-16.0,2.0,-4.0
1706292147.7502646,-8.0,-11.0,-64.0,-15.0,-8.0,-7.0,-4.0,-1.0
1706292147.7502646,6.0,6.0,33.0,25.0,25.0,3.0,3.0,-1.0
1706292147.7502646,6.0,5.0,21.0,11.0,-1.0,1.0,-2.0,1.0
1706292147.7502646,-18.0,-27.0,-43.0,-19.0,-8.0,-2.0,0.0,-7.0
1706292147.7598355,-2.0,1.0,26.0,3.0,-14.0,-32.0,-5.0,0.0
1706292147.7598355,-5.0,-1.0,6.0,-8.0,-2.0,25.0,-8.0,-3.0
1706292147.7701113,-3.0,-1.0,-13.0,5.0,12.0,13.0,13.0,2.0
1706292147.7701113,5.0,9.0,14.0,7.0,9.0,3.0,-35.0,-6.0
1706292147.7898352,8.0,6.0,5.0,-4.0,-6.0,0.0,24.0,20.0
1706292147.7898352,-8.0,0.0,14.0,2.0,-6.0,-13.0,1.0,2.0
1706292147.7898352,-12.0,-8.0,-15.0,-4.0,-2.0,-15.0,-58.0,-17.0
1706292147.7898352,9.0,9.0,5.0,-10.0,-7.0,8.0,28.0,-5.0
1706292147.810174,-6.0,-2.0,-3.0,9.0,1.0,-19.0,-14.0,2.0
1706292147.810174,17.0,4.0,9.0,8.0,-2.0,11.0,28.0,24.0
1706292147.810174,-5.0,-1.0,-5.0,-5.0,4.0,5.0,28.0,-37.0
1706292147.810174,-8.0,-12.0,-58.0,-18.0,0.0,-3.0,-17.0,-2.0
1706292147.8201623,2.0,8.0,10.0,14.0,9.0,7.0,-12.0,-4.0
1706292147.8201623,-13.0,-10.0,3.0,-9.0,-8.0,-6.0,12.0,-2.0
1706292147.839833,6.0,4.0,-38.0,-6.0,-9.0,4.0,-11.0,14.0
1706292147.839833,-1.0,-2.0,-12.0,-6.0,-1.0,-16.0,16.0,-3.0
1706292147.8501143,5.0,-8.0,-32.0,2.0,4.0,12.0,-8.0,-4.0
1706292147.8501143,-13.0,1.0,14.0,-6.0,-2.0,-6.0,11.0,-4.0
1706292147.8501143,7.0,5.0,51.0,9.0,-2.0,-14.0,-15.0,5.0
1706292147.8501143,1.0,0.0,19.0,-3.0,-3.0,4.0,-19.0,-4.0
1706292147.870244,5.0,0.0,-6.0,-15.0,-6.0,18.0,12.0,6.0
1706292147.870244,-12.0,-9.0,-12.0,-4.0,-1.0,-23.0,8.0,-9.0
1706292147.870244,4.0,0.0,17.0,3.0,-1.0,4.0,22.0,6.0
1706292147.870244,19.0,13.0,37.0,9.0,9.0,15.0,32.0,9.0
1706292147.8801162,-39.0,-11.0,-40.0,-7.0,-5.0,-4.0,-56.0,-17.0
1706292147.8801162,-2.0,8.0,41.0,10.0,2.0,23.0,7.0,-3.0
1706292147.8901348,9.0,-5.0,-73.0,-24.0,-5.0,-40.0,-27.0,5.0
1706292147.8901348,3.0,2.0,29.0,18.0,0.0,14.0,-60.0,6.0
1706292147.9226887,6.0,3.0,-17.0,-2.0,3.0,-5.0,71.0,5.0
1706292147.9226887,2.0,-2.0,17.0,10.0,-4.0,-12.0,-14.0,-15.0
1706292147.9226887,-5.0,-21.0,-2.0,-1.0,5.0,17.0,12.0,7.0
1706292147.9226887,0.0,10.0,-13.0,-17.0,-1.0,-4.0,22.0,2.0
1706292147.9397328,-9.0,-4.0,35.0,7.0,-8.0,-4.0,-31.0,-6.0
1706292147.9397328,0.0,1.0,-3.0,2.0,-3.0,-7.0,-8.0,6.0
1706292147.9419913,33.0,9.0,33.0,6.0,-1.0,3.0,11.0,6.0
1706292147.9419913,-30.0,-3.0,-3.0,1.0,-3.0,-13.0,-13.0,-10.0
1706292147.9419913,-4.0,5.0,4.0,-3.0,1.0,-1.0,-12.0,5.0
1706292147.9419913,21.0,-9.0,-21.0,-10.0,0.0,-5.0,27.0,-2.0
1706292147.961994,-25.0,4.0,44.0,18.0,9.0,19.0,29.0,1.0
1706292147.961994,33.0,-1.0,-36.0,-13.0,-3.0,-13.0,-32.0,-6.0
1706292147.961994,-9.0,19.0,37.0,10.0,0.0,42.0,26.0,21.0
1706292147.961994,14.0,-5.0,-16.0,-5.0,-4.0,-67.0,-29.0,13.0
1706292147.9720109,-24.0,-5.0,-22.0,-9.0,-6.0,-15.0,-15.0,-24.0
1706292147.9720109,-11.0,-2.0,29.0,6.0,-2.0,5.0,23.0,-24.0
1706292147.9923043,38.0,-4.0,-9.0,-6.0,-5.0,-15.0,4.0,-7.0
1706292147.9923043,-44.0,7.0,-11.0,-2.0,0.0,25.0,-7.0,-2.0
1706292147.9923043,5.0,-24.0,-13.0,-8.0,-7.0,-9.0,-32.0,1.0
1706292147.9923043,12.0,2.0,6.0,12.0,13.0,-1.0,24.0,7.0
1706292148.0020003,-36.0,3.0,-2.0,0.0,-3.0,-2.0,-16.0,-4.0
1706292148.0020003,39.0,26.0,-5.0,3.0,-8.0,5.0,-12.0,-6.0
1706292148.0122213,15.0,26.0,4.0,-20.0,-4.0,2.0,8.0,8.0
1706292148.0122213,-51.0,5.0,44.0,27.0,11.0,-3.0,1.0,-4.0
1706292148.0419927,17.0,-35.0,-31.0,-14.0,7.0,-1.0,-2.0,-2.0
1706292148.0419927,-25.0,-8.0,44.0,-13.0,-16.0,-11.0,-9.0,-2.0
1706292148.0419927,8.0,13.0,28.0,20.0,13.0,14.0,12.0,2.0
1706292148.0419927,16.0,-8.0,-11.0,3.0,-7.0,-5.0,12.0,17.0
1706292148.0521617,6.0,11.0,2.0,14.0,4.0,8.0,4.0,-5.0
1706292148.0521617,-1.0,-3.0,36.0,3.0,11.0,7.0,-4.0,-4.0
1706292148.0521617,-5.0,-16.0,-86.0,-19.0,-6.0,0.0,-2.0,3.0
1706292148.0521617,-3.0,10.0,75.0,11.0,1.0,12.0,13.0,2.0
1706292148.0719924,-4.0,1.0,5.0,2.0,-6.0,-30.0,-13.0,-4.0
1706292148.0719924,-11.0,-9.0,-78.0,-10.0,-4.0,18.0,-11.0,-5.0
1706292148.0719924,11.0,5.0,14.0,7.0,1.0,-6.0,-8.0,-6.0
1706292148.0719924,-1.0,-10.0,-25.0,2.0,11.0,12.0,43.0,-1.0
1706292148.0820208,2.0,-10.0,17.0,-29.0,-24.0,-13.0,-35.0,3.0
1706292148.0820208,-4.0,-8.0,-7.0,-11.0,-11.0,0.0,-11.0,-14.0
1706292148.0820208,-10.0,8.0,40.0,5.0,4.0,-3.0,8.0,2.0
1706292148.0820208,13.0,-1.0,-16.0,4.0,4.0,-8.0,-3.0,4.0
1706292148.1119936,-5.0,-6.0,-14.0,16.0,10.0,6.0,-6.0,-5.0
1706292148.1119936,11.0,28.0,1.0,6.0,5.0,13.0,5.0,0.0
1706292148.1119936,5.0,-9.0,3.0,2.0,-2.0,4.0,20.0,26.0
1706292148.1119936,0.0,-13.0,-11.0,-26.0,-19.0,-26.0,-26.0,-3.0
1706292148.1321964,-46.0,4.0,13.0,9.0,5.0,-2.0,-8.0,13.0
1706292148.1321964,-13.0,17.0,-5.0,-4.0,0.0,-6.0,-26.0,-37.0
1706292148.1321964,-15.0,-23.0,-15.0,-2.0,-4.0,13.0,37.0,-32.0
1706292148.1321964,15.0,5.0,22.0,5.0,3.0,6.0,-27.0,13.0
1706292148.1520007,29.0,10.0,1.0,-6.0,-6.0,-11.0,31.0,16.0
1706292148.1520007,-22.0,-28.0,-20.0,-7.0,-3.0,-12.0,-50.0,-30.0
1706292148.1520007,52.0,24.0,-56.0,-12.0,-4.0,-3.0,-39.0,-60.0
1706292148.1520007,-77.0,-42.0,23.0,-3.0,-3.0,18.0,43.0,54.0
1706292148.181994,29.0,43.0,16.0,11.0,-1.0,-14.0,-3.0,4.0
1706292148.181994,3.0,-12.0,-27.0,-6.0,-1.0,-6.0,19.0,31.0
1706292148.181994,-9.0,5.0,26.0,-10.0,-8.0,1.0,-12.0,-12.0
1706292148.181994,24.0,-1.0,11.0,-3.0,-3.0,-9.0,-3.0,-9.0
1706292148.192031,28.0,-3.0,-6.0,7.0,0.0,2.0,10.0,-15.0
1706292148.192031,-58.0,-10.0,5.0,-1.0,2.0,-6.0,3.0,11.0
1706292148.192031,3.0,11.0,86.0,37.0,18.0,21.0,14.0,24.0
1706292148.192031,6.0,1.0,-47.0,-32.0,3.0,-3.0,24.0,5.0
1706292148.202031,2.0,-7.0,66.0,1.0,19.0,11.0,-27.0,-18.0
1706292148.202031,14.0,-13.0,-84.0,-23.0,-18.0,-16.0,6.0,-8.0
1706292148.202031,-23.0,0.0,62.0,14.0,-19.0,-24.0,-24.0,11.0
1706292148.202031,-8.0,7.0,-28.0,-22.0,-21.0,-8.0,-3.0,-19.0
1706292148.2319937,-3.0,-15.0,-34.0,8.0,-11.0,1.0,6.0,-5.0
1706292148.2319937,10.0,-20.0,-41.0,11.0,12.0,25.0,13.0,9.0
1706292148.2319937,-10.0,5.0,-18.0,-11.0,5.0,4.0,-8.0,7.0
1706292148.2319937,4.0,-9.0,46.0,-1.0,9.0,6.0,-8.0,-11.0
1706292148.2524655,-4.0,2.0,19.0,5.0,20.0,7.0,7.0,6.0
1706292148.2524655,12.0,10.0,46.0,19.0,-5.0,-3.0,-15.0,-9.0
1706292148.2524655,-7.0,-1.0,-41.0,-2.0,1.0,-1.0,17.0,15.0
1706292148.2524655,13.0,17.0,20.0,36.0,-7.0,-1.0,-16.0,-13.0
1706292148.2624779,0.0,-11.0,-15.0,-41.0,-9.0,0.0,-1.0,7.0
1706292148.2624779,-7.0,0.0,-6.0,-34.0,24.0,11.0,13.0,-7.0
1706292148.2624779,-8.0,-1.0,-14.0,-13.0,-9.0,-6.0,2.0,3.0
1706292148.2624779,8.0,9.0,-1.0,3.0,3.0,-3.0,-6.0,-6.0
1706292148.2924778,-15.0,-16.0,-8.0,20.0,-22.0,-9.0,-4.0,-8.0
1706292148.2924778,39.0,18.0,14.0,8.0,3.0,0.0,7.0,22.0
1706292148.2924778,-41.0,-28.0,-15.0,-24.0,-3.0,-7.0,-5.0,-17.0
1706292148.2924778,-7.0,4.0,-22.0,0.0,0.0,2.0,-9.0,7.0
1706292148.3125083,-27.0,12.0,-12.0,1.0,-4.0,-2.0,27.0,-18.0
1706292148.3125083,41.0,11.0,26.0,-4.0,-7.0,0.0,-23.0,-21.0
1706292148.3125083,13.0,10.0,-7.0,9.0,3.0,9.0,-42.0,32.0
1706292148.3125083,-10.0,-19.0,-13.0,3.0,-3.0,-6.0,35.0,35.0
1706292148.3227196,-11.0,13.0,3.0,-8.0,0.0,11.0,-13.0,-21.0
1706292148.3227196,-17.0,1.0,51.0,8.0,-2.0,-23.0,-13.0,0.0
1706292148.3327758,8.0,-23.0,-51.0,-4.0,-1.0,21.0,24.0,26.0
1706292148.3327758,0.0,11.0,-4.0,3.0,4.0,6.0,-34.0,-15.0
1706292148.3524776,11.0,-29.0,-62.0,-23.0,-3.0,-18.0,10.0,15.0
1706292148.3524776,1.0,15.0,49.0,17.0,-5.0,-22.0,20.0,2.0
1706292148.3524776,-2.0,-6.0,-65.0,-14.0,2.0,3.0,21.0,-2.0
1706292148.3524776,24.0,5.0,23.0,-4.0,-3.0,17.0,15.0,6.0
1706292148.3724778,-42.0,-21.0,9.0,8.0,-3.0,15.0,-16.0,0.0
1706292148.3724778,10.0,9.0,-16.0,2.0,7.0,2.0,-2.0,-7.0
1706292148.3724778,-1.0,-2.0,59.0,22.0,4.0,-15.0,-2.0,8.0
1706292148.3724778,7.0,-12.0,-46.0,-29.0,-6.0,-2.0,-7.0,-16.0
1706292148.3924766,-9.0,-3.0,-43.0,-8.0,2.0,-6.0,-2.0,-15.0
1706292148.3924766,-5.0,-8.0,5.0,7.0,2.0,2.0,1.0,19.0
1706292148.3924766,14.0,12.0,28.0,-17.0,2.0,3.0,7.0,-5.0
1706292148.3924766,-21.0,14.0,32.0,24.0,1.0,-12.0,-12.0,-7.0
1706292148.4124813,0.0,-12.0,11.0,8.0,6.0,-2.0,-6.0,-4.0
1706292148.4124813,-16.0,-25.0,-48.0,-34.0,-14.0,-5.0,3.0,4.0
1706292148.4124813,13.0,9.0,-1.0,-9.0,-7.0,-3.0,-4.0,-4.0
1706292148.4124813,2.0,-15.0,4.0,8.0,-1.0,-10.0,-5.0,-14.0
1706292148.4327672,11.0,2.0,-51.0,-16.0,-5.0,4.0,3.0,10.0
1706292148.4327672,-12.0,-2.0,42.0,12.0,-3.0,1.0,13.0,4.0
1706292148.4327672,15.0,2.0,39.0,-15.0,-12.0,-14.0,21.0,-12.0
1706292148.4327672,3.0,9.0,35.0,28.0,0.0,10.0,-27.0,-1.0
1706292148.4549782,0.0,12.0,4.0,-2.0,8.0,3.0,6.0,10.0
1706292148.4549782,25.0,-7.0,17.0,-1.0,-3.0,1.0,-13.0,-2.0
1706292148.4549782,-12.0,-6.0,-10.0,18.0,-4.0,-1.0,14.0,-2.0
1706292148.4549782,-12.0,0.0,-33.0,-25.0,2.0,-3.0,11.0,-2.0
1706292148.4724216,17.0,4.0,48.0,11.0,11.0,5.0,-3.0,0.0
1706292148.4724216,0.0,6.0,9.0,11.0,9.0,19.0,11.0,17.0
1706292148.4724216,-18.0,-7.0,-26.0,8.0,3.0,-3.0,-13.0,-12.0
1706292148.4724216,1.0,-4.0,-24.0,-12.0,-7.0,-4.0,-11.0,-7.0
1706292148.4947534,16.0,11.0,79.0,9.0,-16.0,-14.0,-20.0,-4.0
1706292148.4947534,-26.0,-21.0,-83.0,-27.0,-9.0,-24.0,-25.0,-14.0
1706292148.4947534,-2.0,6.0,26.0,7.0,2.0,8.0,6.0,-15.0
1706292148.4947534,4.0,-3.0,0.0,-5.0,-2.0,-7.0,6.0,5.0
1706292148.50484,-17.0,-12.0,-55.0,-11.0,-4.0,-16.0,-8.0,-20.0
1706292148.50484,9.0,6.0,41.0,18.0,6.0,7.0,-6.0,5.0
1706292148.5149546,4.0,-9.0,-23.0,-10.0,2.0,2.0,-9.0,2.0
1706292148.5149546,-11.0,4.0,-25.0,-9.0,-3.0,-7.0,-1.0,-7.0
1706292148.55468,5.0,8.0,65.0,11.0,-5.0,5.0,16.0,9.0
1706292148.55468,5.0,4.0,-22.0,3.0,-2.0,5.0,5.0,-1.0
1706292148.55468,-14.0,-20.0,-44.0,-10.0,15.0,1.0,-4.0,-2.0
1706292148.55468,10.0,10.0,30.0,7.0,-6.0,-1.0,3.0,1.0
1706292148.55468,11.0,0.0,-7.0,11.0,18.0,10.0,0.0,3.0
1706292148.55468,-6.0,-8.0,-13.0,-10.0,1.0,-4.0,2.0,-3.0
1706292148.55468,-12.0,3.0,14.0,1.0,-12.0,-8.0,-4.0,-1.0
1706292148.55468,1.0,0.0,7.0,-11.0,-7.0,-9.0,-5.0,-1.0
1706292148.5746863,2.0,-2.0,-5.0,-3.0,-8.0,26.0,6.0,-1.0
1706292148.5746863,9.0,6.0,-1.0,12.0,3.0,-9.0,-1.0,1.0
1706292148.58468,-2.0,-6.0,56.0,8.0,6.0,-11.0,-17.0,1.0
1706292148.58468,-22.0,-10.0,-69.0,-16.0,0.0,5.0,13.0,-3.0
1706292148.58468,10.0,2.0,-22.0,-11.0,-13.0,2.0,-16.0,-2.0
1706292148.58468,-10.0,-3.0,9.0,2.0,1.0,2.0,6.0,1.0
1706292148.594923,9.0,1.0,-4.0,0.0,-3.0,-8.0,-4.0,2.0
1706292148.594923,7.0,1.0,11.0,2.0,1.0,1.0,-4.0,-3.0
1706292148.6150255,-8.0,-4.0,0.0,-6.0,-9.0,-14.0,6.0,-1.0
1706292148.6150255,4.0,-1.0,3.0,2.0,4.0,10.0,2.0,0.0
1706292148.6150255,-1.0,6.0,2.0,14.0,10.0,9.0,-2.0,3.0
1706292148.6150255,-1.0,0.0,3.0,5.0,7.0,1.0,3.0,-3.0
1706292148.6251638,-1.0,-2.0,1.0,-14.0,-4.0,-4.0,5.0,-1.0
1706292148.6251638,8.0,4.0,32.0,10.0,-5.0,-11.0,-2.0,-1.0
1706292148.6251638,-15.0,-14.0,-39.0,-5.0,-10.0,-2.0,3.0,1.0
1706292148.6251638,-10.0,-18.0,-70.0,-25.0,-3.0,-4.0,-6.0,-8.0
1706292148.6650217,-6.0,-4.0,-18.0,-8.0,-4.0,-7.0,-5.0,1.0
1706292148.6650217,-8.0,-3.0,6.0,-23.0,-24.0,-2.0,-2.0,-4.0
1706292148.6650217,9.0,11.0,5.0,17.0,13.0,3.0,-1.0,0.0
1706292148.6650217,13.0,-9.0,42.0,19.0,17.0,8.0,4.0,3.0
1706292148.6750226,-2.0,5.0,13.0,10.0,10.0,-2.0,-1.0,2.0
1706292148.6750226,0.0,-4.0,-32.0,-4.0,-1.0,0.0,3.0,-1.0
1706292148.6750226,28.0,14.0,6.0,-7.0,-11.0,-1.0,1.0,3.0
1706292148.6750226,-40.0,-9.0,0.0,-6.0,-8.0,-4.0,-4.0,-5.0
1706292148.6850708,2.0,-1.0,-26.0,-4.0,-1.0,-6.0,1.0,-4.0
1706292148.6850708,-5.0,-4.0,-5.0,5.0,2.0,7.0,25.0,0.0
1706292148.6952739,-10.0,-1.0,1.0,-15.0,-13.0,-6.0,-10.0,-1.0
1706292148.6952739,35.0,19.0,21.0,4.0,0.0,10.0,0.0,7.0
1706292148.705285,-18.0,-11.0,-24.0,-3.0,3.0,-5.0,-6.0,-6.0
1706292148.705285,4.0,3.0,16.0,11.0,15.0,12.0,4.0,2.0
1706292148.705285,-18.0,-5.0,8.0,-3.0,-2.0,-10.0,-4.0,-4.0
1706292148.705285,11.0,2.0,6.0,0.0,-6.0,-6.0,1.0,2.0
1706292148.7450228,-8.0,1.0,-20.0,-9.0,-8.0,1.0,3.0,-1.0
1706292148.7450228,-3.0,-3.0,-20.0,6.0,-7.0,6.0,-10.0,-5.0
1706292148.7450228,-4.0,2.0,8.0,-5.0,-1.0,-8.0,3.0,1.0
1706292148.7450228,-5.0,4.0,24.0,2.0,13.0,9.0,-3.0,0.0
1706292148.7450228,13.0,0.0,22.0,10.0,-1.0,-1.0,1.0,1.0
1706292148.7450228,-1.0,1.0,-16.0,-10.0,1.0,-1.0,-6.0,0.0
1706292148.7550538,-3.0,-6.0,-26.0,0.0,-5.0,-1.0,0.0,-2.0
1706292148.7550538,7.0,6.0,16.0,-8.0,-9.0,-6.0,4.0,-1.0
1706292148.765402,4.0,5.0,4.0,6.0,3.0,-3.0,23.0,3.0
1706292148.765402,-17.0,-4.0,-1.0,6.0,6.0,-9.0,-46.0,-9.0
1706292148.765402,-3.0,1.0,-47.0,-17.0,3.0,15.0,7.0,-1.0
1706292148.765402,-7.0,-4.0,6.0,3.0,-2.0,-7.0,-1.0,-3.0
1706292148.7950237,6.0,1.0,13.0,-6.0,-8.0,-1.0,-2.0,0.0
1706292148.7950237,-2.0,-1.0,16.0,0.0,-8.0,-4.0,5.0,0.0
1706292148.7950237,2.0,-1.0,1.0,-2.0,-4.0,-7.0,-3.0,-1.0
1706292148.7950237,9.0,5.0,18.0,8.0,3.0,6.0,-16.0,1.0
1706292148.8050504,-3.0,6.0,11.0,4.0,2.0,2.0,12.0,-1.0
1706292148.8050504,-15.0,-19.0,-39.0,-17.0,-7.0,-12.0,15.0,-1.0
1706292148.8150244,9.0,3.0,30.0,0.0,4.0,4.0,-33.0,-5.0
1706292148.8150244,-23.0,-5.0,-6.0,5.0,-3.0,-3.0,6.0,-1.0
1706292148.8253014,4.0,0.0,28.0,4.0,2.0,-3.0,-10.0,-1.0
1706292148.8253014,7.0,6.0,18.0,1.0,-1.0,6.0,4.0,1.0
1706292148.8253014,-4.0,-6.0,-12.0,-1.0,-4.0,-8.0,7.0,2.0
1706292148.8253014,3.0,1.0,6.0,7.0,6.0,2.0,4.0,-1.0
1706292148.8550236,-2.0,-3.0,-3.0,2.0,3.0,1.0,-12.0,0.0
1706292148.8550236,3.0,5.0,32.0,6.0,2.0,0.0,0.0,4.0
1706292148.8550236,-1.0,-11.0,-55.0,-19.0,-8.0,-5.0,1.0,-9.0
1706292148.8550236,-14.0,-5.0,-18.0,-11.0,-13.0,-6.0,-1.0,-9.0
1706292148.8653538,0.0,-1.0,11.0,-3.0,-11.0,0.0,-2.0,4.0
1706292148.8653538,2.0,-1.0,-6.0,5.0,18.0,9.0,11.0,1.0
1706292148.87538,4.0,5.0,39.0,14.0,7.0,-13.0,13.0,10.0
1706292148.87538,12.0,12.0,76.0,25.0,9.0,5.0,10.0,6.0
1706292148.8850238,-7.0,-30.0,-118.0,-41.0,-9.0,-4.0,-5.0,-4.0
1706292148.8850238,5.0,10.0,47.0,17.0,-13.0,-9.0,-5.0,-3.0
1706292148.8850238,-7.0,6.0,4.0,-15.0,-1.0,3.0,1.0,1.0
1706292148.8850238,-8.0,-22.0,7.0,0.0,3.0,-6.0,-6.0,-7.0
1706292148.9150229,-5.0,-12.0,16.0,13.0,8.0,-1.0,-2.0,-1.0
1706292148.9150229,1.0,1.0,-36.0,-4.0,-4.0,8.0,-2.0,1.0
1706292148.9150229,9.0,3.0,-1.0,12.0,4.0,1.0,3.0,-3.0
1706292148.9150229,-1.0,1.0,-22.0,-12.0,-7.0,0.0,-4.0,-3.0
1706292148.9253507,6.0,14.0,31.0,0.0,-3.0,2.0,-6.0,-3.0
1706292148.9253507,-5.0,-10.0,-12.0,-15.0,-2.0,-6.0,-6.0,-4.0
1706292148.935359,-7.0,4.0,14.0,7.0,0.0,1.0,-4.0,-2.0
1706292148.935359,2.0,-1.0,-17.0,-5.0,-4.0,-3.0,-5.0,1.0
1706292148.9454036,-1.0,1.0,5.0,-1.0,1.0,2.0,11.0,1.0
1706292148.9454036,2.0,2.0,0.0,-2.0,2.0,4.0,29.0,12.0
1706292148.9454036,-9.0,-5.0,11.0,1.0,-5.0,-5.0,-31.0,-13.0
1706292148.9454036,8.0,6.0,-17.0,-4.0,-1.0,-3.0,-10.0,2.0
1706292148.983209,2.0,2.0,12.0,0.0,-2.0,0.0,-3.0,-2.0
1706292148.983209,-3.0,-6.0,-12.0,-9.0,-4.0,9.0,-5.0,-1.0
1706292148.983209,1.0,-5.0,16.0,6.0,7.0,-1.0,10.0,2.0
1706292148.984209,0.0,-2.0,-11.0,-6.0,5.0,4.0,4.0,-3.0
1706292148.988241,3.0,10.0,32.0,6.0,-1.0,-4.0,-7.0,-2.0
1706292148.988241,-8.0,3.0,35.0,2.0,-2.0,-7.0,0.0,-4.0
1706292148.9957905,-8.0,-22.0,-49.0,-15.0,-8.0,-8.0,-6.0,-5.0
1706292148.996816,2.0,4.0,-22.0,-13.0,-4.0,10.0,-1.0,-3.0
1706292149.0077846,2.0,6.0,15.0,12.0,8.0,12.0,5.0,2.0
1706292149.0077846,-7.0,-8.0,-11.0,5.0,-2.0,-6.0,-10.0,-6.0
1706292149.0277846,-1.0,4.0,16.0,1.0,-4.0,11.0,4.0,1.0
1706292149.0277846,6.0,-3.0,5.0,2.0,-1.0,-9.0,2.0,2.0
1706292149.0277846,-19.0,-6.0,-25.0,-10.0,-6.0,-7.0,-3.0,1.0
1706292149.0277846,33.0,3.0,3.0,-8.0,-5.0,8.0,-7.0,-4.0
1706292149.0277846,-38.0,-12.0,-23.0,-1.0,6.0,-9.0,-11.0,-1.0
1706292149.0277846,-14.0,-6.0,-14.0,-8.0,-7.0,-4.0,18.0,-1.0
1706292149.0483477,-7.0,-1.0,18.0,2.0,-1.0,-4.0,-9.0,2.0
1706292149.0483477,-1.0,3.0,-2.0,2.0,2.0,15.0,6.0,1.0
1706292149.0483477,14.0,5.0,12.0,2.0,-2.0,-22.0,-10.0,-1.0
1706292149.0483477,7.0,7.0,24.0,5.0,0.0,3.0,-10.0,5.0
1706292149.0880995,-4.0,-3.0,-16.0,1.0,3.0,-3.0,-6.0,-4.0
1706292149.0880995,-2.0,0.0,-8.0,-4.0,2.0,-5.0,-10.0,2.0
1706292149.0880995,5.0,8.0,16.0,0.0,-6.0,8.0,10.0,-2.0
1706292149.0880995,-3.0,1.0,-4.0,6.0,-1.0,-3.0,7.0,0.0
1706292149.0880995,4.0,-6.0,-44.0,-9.0,-2.0,-6.0,-3.0,-6.0
1706292149.0880995,-7.0,-23.0,3.0,-5.0,-1.0,-5.0,-4.0,-6.0
1706292149.0880995,6.0,24.0,11.0,8.0,-5.0,7.0,12.0,2.0
1706292149.0880995,-5.0,-2.0,6.0,1.0,-5.0,-8.0,-6.0,-5.0
1706292149.1083655,3.0,5.0,4.0,-13.0,7.0,13.0,6.0,2.0
1706292149.1083655,-5.0,-6.0,-8.0,11.0,9.0,-1.0,-2.0,-2.0
1706292149.1083655,0.0,-5.0,3.0,3.0,6.0,6.0,8.0,1.0
1706292149.1083655,2.0,1.0,2.0,-7.0,-7.0,4.0,-7.0,1.0
1706292149.1283073,3.0,-3.0,-8.0,-3.0,-14.0,-9.0,-3.0,-3.0
1706292149.1283073,3.0,3.0,-11.0,-5.0,-6.0,-4.0,-1.0,0.0
1706292149.1283073,-2.0,-3.0,2.0,0.0,7.0,4.0,0.0,2.0
1706292149.1283073,-7.0,-6.0,-11.0,-4.0,-1.0,-1.0,-4.0,-2.0
1706292149.1483762,14.0,0.0,28.0,0.0,-4.0,-5.0,4.0,-1.0
1706292149.1483762,-12.0,6.0,-15.0,-8.0,-3.0,-5.0,-2.0,-4.0
1706292149.1483762,-3.0,-7.0,7.0,1.0,-5.0,-5.0,-3.0,-1.0
1706292149.1483762,6.0,-6.0,-32.0,-4.0,3.0,6.0,-3.0,-1.0
1706292149.1880996,1.0,5.0,1.0,3.0,1.0,0.0,-1.0,1.0
1706292149.1880996,2.0,4.0,23.0,5.0,-1.0,-7.0,-4.0,-2.0
1706292149.1880996,-3.0,-4.0,21.0,1.0,-4.0,2.0,1.0,0.0
1706292149.1880996,-6.0,-6.0,-32.0,-7.0,-6.0,-4.0,1.0,-5.0
1706292149.1981006,-3.0,-1.0,-5.0,4.0,0.0,-2.0,-2.0,4.0
1706292149.1981006,2.0,3.0,-22.0,2.0,7.0,9.0,0.0,-13.0
1706292149.1981006,5.0,-1.0,1.0,-2.0,4.0,2.0,3.0,1.0
1706292149.1981006,1.0,6.0,20.0,5.0,1.0,-16.0,0.0,-1.0
1706292149.2084355,-4.0,-1.0,0.0,1.0,-3.0,8.0,1.0,-3.0
1706292149.2084355,-2.0,-2.0,5.0,-3.0,1.0,-16.0,-4.0,1.0
1706292149.2084355,-3.0,1.0,-2.0,-4.0,-3.0,0.0,3.0,0.0
1706292149.2084355,-1.0,-5.0,-20.0,-5.0,1.0,-3.0,-4.0,-3.0
1706292149.2284408,-3.0,-2.0,9.0,1.0,-5.0,3.0,-2.0,-4.0
1706292149.2284408,-8.0,-1.0,7.0,-17.0,-15.0,-13.0,0.0,0.0
1706292149.2381046,3.0,-3.0,-5.0,15.0,13.0,14.0,0.0,-2.0
1706292149.2381046,1.0,2.0,19.0,-1.0,5.0,1.0,2.0,3.0
1706292149.2481,0.0,2.0,-6.0,2.0,5.0,-5.0,-2.0,0.0
1706292149.2481,8.0,5.0,21.0,-2.0,-2.0,-1.0,-1.0,-2.0
1706292149.2481,-7.0,-4.0,-38.0,-5.0,-7.0,-7.0,-14.0,1.0
1706292149.2481,-1.0,3.0,31.0,10.0,4.0,7.0,17.0,1.0
1706292149.2683625,-18.0,-17.0,-48.0,-13.0,-4.0,-4.0,-3.0,-7.0
1706292149.2683625,6.0,11.0,53.0,15.0,2.0,6.0,-1.0,2.0
1706292149.2683625,5.0,14.0,-20.0,-15.0,-5.0,-10.0,-4.0,-1.0
1706292149.2683625,-3.0,-28.0,-20.0,4.0,-4.0,-6.0,-7.0,-1.0
1706292149.2880998,2.0,0.0,18.0,-5.0,0.0,2.0,-2.0,-3.0
1706292149.2880998,-5.0,-1.0,3.0,-5.0,-3.0,-2.0,-3.0,2.0
1706292149.2880998,2.0,-1.0,0.0,-4.0,-5.0,-2.0,3.0,-3.0
1706292149.2880998,-2.0,7.0,-4.0,6.0,3.0,-8.0,-7.0,-2.0
1706292149.3084502,4.0,3.0,12.0,6.0,5.0,0.0,2.0,-1.0
1706292149.3084502,-7.0,-5.0,-24.0,-6.0,-5.0,5.0,-1.0,-1.0
1706292149.3084502,-1.0,-4.0,9.0,2.0,1.0,-7.0,2.0,-1.0
1706292149.3084502,-1.0,2.0,5.0,-5.0,-4.0,2.0,-3.0,-1.0
1706292149.3283503,-5.0,-6.0,0.0,-7.0,-11.0,-14.0,-7.0,-3.0
1706292149.3283503,1.0,1.0,-9.0,12.0,11.0,2.0,-2.0,2.0
1706292149.3283503,0.0,-6.0,-3.0,-5.0,-3.0,6.0,4.0,-1.0
1706292149.3283503,-2.0,1.0,1.0,-4.0,-5.0,-5.0,-3.0,-1.0
1706292149.3581004,2.0,3.0,9.0,-2.0,1.0,4.0,0.0,1.0
1706292149.3581004,-6.0,-5.0,-19.0,-3.0,-1.0,-8.0,-1.0,-2.0
1706292149.3581004,-2.0,-1.0,10.0,-4.0,-7.0,-3.0,-3.0,-2.0
1706292149.3581004,1.0,1.0,1.0,-1.0,1.0,5.0,0.0,-1.0
1706292149.3684425,1.0,1.0,4.0,7.0,6.0,-5.0,-5.0,-2.0
1706292149.3684425,-3.0,-3.0,1.0,-4.0,1.0,4.0,-2.0,-3.0
1706292149.3684425,-1.0,-6.0,7.0,1.0,-2.0,6.0,-1.0,-1.0
1706292149.3684425,-1.0,3.0,-5.0,-4.0,-1.0,-3.0,-2.0,-2.0
1706292149.388488,-2.0,-1.0,-4.0,-6.0,-3.0,0.0,1.0,1.0
1706292149.388488,-4.0,-2.0,6.0,-7.0,-7.0,-4.0,-1.0,0.0
1706292149.388488,-1.0,-4.0,-18.0,-1.0,-1.0,-1.0,-3.0,-2.0
1706292149.388488,1.0,5.0,9.0,0.0,1.0,3.0,1.0,1.0
1706292149.4181058,-4.0,-2.0,21.0,14.0,2.0,-12.0,-4.0,-2.0
1706292149.4181058,-1.0,-12.0,-64.0,1.0,-1.0,15.0,4.0,0.0
1706292149.4181058,-1.0,-1.0,14.0,-17.0,-1.0,1.0,-1.0,0.0
1706292149.4181058,7.0,6.0,19.0,-2.0,-6.0,-1.0,0.0,1.0
1706292149.4281025,-2.0,-9.0,-11.0,-1.0,5.0,-1.0,1.0,0.0
1706292149.4281025,-11.0,-7.0,15.0,2.0,-6.0,-4.0,0.0,0.0
1706292149.4281025,6.0,1.0,-3.0,1.0,-6.0,-3.0,4.0,0.0
1706292149.4281025,-5.0,-5.0,-16.0,0.0,7.0,4.0,-1.0,0.0
1706292149.4484425,0.0,3.0,20.0,-3.0,-9.0,-3.0,-1.0,-2.0
1706292149.4484425,9.0,2.0,-5.0,-3.0,-3.0,0.0,-1.0,-1.0
1706292149.4484425,-15.0,-3.0,-6.0,6.0,0.0,5.0,2.0,-2.0
1706292149.4484425,4.0,0.0,4.0,4.0,1.0,-4.0,-2.0,-1.0
1706292149.4683743,3.0,-2.0,-12.0,0.0,2.0,5.0,-4.0,-1.0
1706292149.4683743,-1.0,0.0,6.0,-2.0,0.0,-18.0,-6.0,-1.0
1706292149.4781027,2.0,2.0,-4.0,-11.0,-9.0,-6.0,-3.0,-2.0
1706292149.4781027,0.0,0.0,2.0,-5.0,-10.0,-9.0,-2.0,-1.0
1706292149.4880996,-5.0,1.0,-5.0,-2.0,-1.0,3.0,0.0,-2.0
1706292149.4880996,-1.0,-2.0,1.0,3.0,-3.0,7.0,1.0,0.0
1706292149.4880996,3.0,-1.0,-5.0,9.0,12.0,6.0,4.0,2.0
1706292149.4880996,-5.0,2.0,28.0,-6.0,-4.0,-4.0,-4.0,-2.0
1706292149.5147307,2.0,-4.0,0.0,1.0,8.0,8.0,2.0,0.0
1706292149.5147307,0.0,7.0,28.0,2.0,-2.0,-9.0,1.0,1.0
1706292149.5147307,3.0,1.0,-6.0,3.0,1.0,3.0,-2.0,-3.0
1706292149.5147307,-3.0,1.0,-9.0,-7.0,-2.0,2.0,1.0,-2.0
1706292149.5385196,-4.0,-11.0,29.0,2.0,-9.0,15.0,3.0,-1.0
1706292149.5385196,-7.0,-3.0,-33.0,1.0,2.0,-19.0,-22.0,-6.0
1706292149.5385196,-1.0,-4.0,-17.0,-9.0,-6.0,7.0,25.0,-1.0
1706292149.5385196,5.0,4.0,7.0,4.0,3.0,0.0,-4.0,2.0
1706292149.5506904,2.0,4.0,-9.0,-3.0,-1.0,1.0,4.0,0.0
1706292149.5506904,-3.0,-2.0,16.0,1.0,-1.0,1.0,-2.0,0.0
1706292149.5506904,-14.0,-6.0,10.0,1.0,-2.0,0.0,-7.0,-2.0
1706292149.5506904,18.0,-2.0,-26.0,-3.0,-2.0,0.0,1.0,-1.0
1706292149.5807004,-8.0,7.0,0.0,14.0,1.0,-6.0,-3.0,2.0
1706292149.5807004,-15.0,-11.0,-12.0,-24.0,-1.0,3.0,2.0,-5.0
1706292149.5807004,5.0,5.0,2.0,6.0,-2.0,-10.0,-7.0,1.0
1706292149.5807004,0.0,14.0,8.0,0.0,4.0,5.0,5.0,-2.0
1706292149.5910842,1.0,-43.0,-25.0,-11.0,-11.0,-7.0,-8.0,0.0
1706292149.5910842,7.0,27.0,20.0,7.0,-4.0,-6.0,3.0,0.0
1706292149.6009705,-7.0,-21.0,10.0,3.0,1.0,1.0,-3.0,-3.0
1706292149.6009705,-3.0,3.0,-24.0,7.0,14.0,7.0,-6.0,0.0
1706292149.6110969,-3.0,-2.0,-3.0,-15.0,-3.0,-2.0,3.0,-2.0
1706292149.6110969,-5.0,-7.0,-7.0,-1.0,-7.0,8.0,6.0,-2.0
1706292149.6110969,5.0,6.0,28.0,2.0,1.0,-18.0,-8.0,2.0
1706292149.6110969,-5.0,-7.0,-41.0,-6.0,-8.0,-3.0,1.0,-2.0
1706292149.6407018,4.0,23.0,36.0,11.0,7.0,-4.0,-1.0,2.0
1706292149.6407018,0.0,-19.0,-75.0,-24.0,-9.0,8.0,5.0,-1.0
1706292149.6407018,0.0,9.0,3.0,0.0,-1.0,5.0,-4.0,-3.0
1706292149.6407018,-3.0,-11.0,6.0,-3.0,-7.0,-6.0,-1.0,-1.0
1706292149.6509442,-1.0,6.0,2.0,-2.0,-2.0,-8.0,2.0,-1.0
1706292149.6509442,6.0,6.0,29.0,10.0,3.0,4.0,1.0,3.0
1706292149.6509442,6.0,-5.0,-6.0,-1.0,-2.0,-3.0,0.0,-2.0
1706292149.6509442,-26.0,-8.0,-8.0,-4.0,-5.0,-4.0,-5.0,-4.0
1706292149.6709783,1.0,2.0,-10.0,-2.0,-2.0,-4.0,-3.0,-1.0
1706292149.6709783,1.0,-2.0,12.0,0.0,-1.0,-1.0,-1.0,-1.0
1706292149.6907113,5.0,1.0,-15.0,-10.0,-10.0,-14.0,-9.0,-2.0
1706292149.6907113,0.0,-5.0,14.0,0.0,0.0,0.0,1.0,1.0
1706292149.7007008,-8.0,2.0,1.0,8.0,11.0,-5.0,-6.0,-4.0
1706292149.7007008,8.0,2.0,-10.0,14.0,11.0,23.0,5.0,-1.0
1706292149.7007008,-8.0,-3.0,12.0,5.0,0.0,5.0,1.0,-1.0
1706292149.7007008,-9.0,-7.0,12.0,4.0,-1.0,-2.0,-3.0,-5.0
1706292149.7109573,8.0,14.0,-24.0,-20.0,-5.0,-1.0,1.0,3.0
1706292149.7109573,-3.0,-3.0,8.0,6.0,-4.0,-7.0,-2.0,1.0
1706292149.7109573,4.0,-5.0,-4.0,-4.0,-7.0,-3.0,-5.0,-2.0
1706292149.7109573,3.0,-11.0,37.0,0.0,-7.0,1.0,-3.0,-2.0
1706292149.7309449,2.0,9.0,-87.0,-13.0,-8.0,-2.0,-1.0,0.0
1706292149.7309449,-4.0,-3.0,0.0,-7.0,-3.0,-10.0,-4.0,-3.0
1706292149.7309449,-5.0,-2.0,-6.0,-2.0,3.0,12.0,1.0,-1.0
1706292149.7309449,4.0,-2.0,18.0,-1.0,0.0,-8.0,-1.0,0.0
1706292149.7606995,14.0,4.0,24.0,7.0,2.0,3.0,1.0,0.0
1706292149.7606995,-25.0,-7.0,-2.0,-6.0,-1.0,-1.0,-5.0,-4.0
1706292149.7606995,4.0,-2.0,-3.0,0.0,-3.0,-8.0,-1.0,0.0
1706292149.7606995,2.0,5.0,-18.0,0.0,5.0,11.0,-1.0,3.0
1706292149.7709806,-24.0,-1.0,14.0,3.0,-2.0,-22.0,-3.0,0.0
1706292149.7709806,12.0,9.0,5.0,2.0,2.0,6.0,-2.0,-1.0
1706292149.7709806,-2.0,2.0,7.0,-1.0,6.0,4.0,3.0,2.0
1706292149.7709806,5.0,2.0,-8.0,0.0,-2.0,-1.0,0.0,-1.0
1706292149.7910917,-4.0,-3.0,1.0,1.0,-4.0,3.0,-4.0,-2.0
1706292149.7910917,2.0,-6.0,0.0,2.0,2.0,2.0,2.0,-1.0
1706292149.8007033,-3.0,1.0,6.0,0.0,3.0,-4.0,0.0,-1.0
1706292149.8007033,1.0,5.0,-22.0,-5.0,0.0,1.0,3.0,-1.0
1706292149.810734,1.0,-8.0,40.0,6.0,-6.0,-9.0,-2.0,-2.0
1706292149.810734,-5.0,-6.0,-27.0,0.0,1.0,-7.0,1.0,1.0
1706292149.810734,8.0,12.0,-13.0,-7.0,5.0,8.0,1.0,-2.0
1706292149.810734,-2.0,-15.0,18.0,3.0,-3.0,0.0,-2.0,4.0
1706292149.8310049,-16.0,-6.0,15.0,-2.0,-2.0,9.0,-1.0,-3.0
1706292149.8310049,0.0,-2.0,-8.0,12.0,1.0,-6.0,-2.0,-1.0
1706292149.8310049,12.0,8.0,-8.0,-13.0,-4.0,5.0,1.0,2.0
1706292149.8310049,-27.0,-24.0,6.0,7.0,3.0,0.0,-1.0,-4.0
1706292149.851029,6.0,-2.0,-20.0,-4.0,-1.0,-3.0,-1.0,1.0
1706292149.851029,10.0,-14.0,-21.0,-15.0,-7.0,-3.0,2.0,13.0
1706292149.8607032,-29.0,15.0,-3.0,2.0,-3.0,-5.0,1.0,1.0
1706292149.8607032,19.0,12.0,3.0,0.0,0.0,11.0,2.0,-1.0
1706292149.8707373,-8.0,4.0,29.0,9.0,4.0,6.0,5.0,3.0
1706292149.8707373,16.0,-6.0,-40.0,-6.0,-1.0,-1.0,-12.0,-10.0
1706292149.8707373,4.0,-5.0,29.0,1.0,-2.0,-9.0,12.0,13.0
1706292149.8707373,0.0,4.0,-31.0,-3.0,-2.0,11.0,23.0,18.0
1706292149.891108,0.0,5.0,59.0,13.0,9.0,-7.0,-18.0,16.0
1706292149.891108,2.0,-2.0,35.0,-13.0,-2.0,1.0,-15.0,-29.0
1706292149.891108,-9.0,-8.0,26.0,4.0,-5.0,3.0,7.0,-16.0
1706292149.891108,10.0,2.0,-27.0,-8.0,-6.0,-20.0,-21.0,76.0
1706292149.9107008,0.0,-7.0,-68.0,-6.0,1.0,-1.0,-15.0,-70.0
1706292149.9107008,6.0,12.0,60.0,10.0,1.0,0.0,10.0,-12.0
1706292149.9107008,1.0,-6.0,26.0,10.0,3.0,4.0,-9.0,-7.0
1706292149.9107008,-6.0,-1.0,6.0,8.0,10.0,3.0,4.0,-10.0
1706292149.9309065,12.0,8.0,-74.0,-15.0,-1.0,22.0,15.0,27.0
1706292149.9309065,-31.0,-13.0,7.0,-4.0,-11.0,-41.0,-8.0,3.0
1706292149.9309065,7.0,-11.0,-31.0,-7.0,-7.0,-10.0,-4.0,-13.0
1706292149.9309065,-9.0,14.0,42.0,3.0,-2.0,4.0,-1.0,-17.0
1706292149.9508278,-1.0,-13.0,-36.0,-15.0,3.0,3.0,-4.0,4.0
1706292149.9508278,3.0,6.0,26.0,11.0,5.0,5.0,3.0,-2.0
1706292149.9508278,11.0,20.0,6.0,-2.0,-4.0,-2.0,3.0,13.0
1706292149.9508278,-14.0,-9.0,15.0,-8.0,-12.0,-19.0,-14.0,-19.0
1706292149.9807057,1.0,-7.0,55.0,7.0,-3.0,-3.0,0.0,-2.0
1706292149.9807057,2.0,-5.0,-60.0,-8.0,2.0,10.0,23.0,19.0
1706292149.9807057,2.0,-14.0,-38.0,-18.0,-3.0,-8.0,-22.0,7.0
1706292149.9807057,12.0,12.0,13.0,-2.0,-2.0,-7.0,-23.0,-25.0
1706292149.9910047,12.0,8.0,8.0,7.0,-2.0,10.0,10.0,22.0
1706292149.9910047,-9.0,-24.0,-13.0,3.0,-1.0,-5.0,-11.0,-2.0
1706292149.9910047,3.0,6.0,-10.0,3.0,1.0,-24.0,16.0,-32.0
1706292149.9910047,50.0,4.0,-14.0,0.0,0.0,3.0,9.0,-17.0
1706292150.010705,-57.0,-8.0,-4.0,-1.0,-2.0,-13.0,-27.0,-9.0
1706292150.010705,-1.0,6.0,18.0,1.0,-1.0,4.0,-13.0,7.0
1706292150.02071,-22.0,-23.0,-20.0,0.0,2.0,7.0,-22.0,7.0
1706292150.02071,-5.0,-14.0,-9.0,-8.0,-6.0,-2.0,1.0,-6.0
1706292150.0307014,9.0,-8.0,18.0,3.0,-2.0,8.0,14.0,-4.0
1706292150.0307014,33.0,22.0,14.0,-2.0,0.0,-4.0,-1.0,15.0
1706292150.0307014,-37.0,-7.0,14.0,9.0,2.0,1.0,-1.0,-2.0
1706292150.0307014,-19.0,33.0,-28.0,-6.0,-9.0,-11.0,9.0,-8.0
1706292150.0549488,11.0,-65.0,-61.0,-23.0,-7.0,14.0,-3.0,6.0
1706292150.0549488,2.0,8.0,8.0,2.0,9.0,6.0,10.0,-7.0
1706292150.0559504,33.0,15.0,25.0,9.0,5.0,5.0,4.0,10.0
1706292150.0559504,10.0,-9.0,21.0,-2.0,-5.0,-8.0,-6.0,-4.0
1706292150.0732837,-40.0,9.0,-2.0,9.0,-3.0,-10.0,6.0,-2.0
1706292150.0732837,7.0,7.0,32.0,-1.0,2.0,1.0,-1.0,-2.0
1706292150.0732837,1.0,3.0,2.0,-19.0,-15.0,5.0,6.0,2.0
1706292150.0732837,-5.0,-5.0,35.0,17.0,-2.0,-14.0,-17.0,-4.0
1706292150.083505,18.0,7.0,2.0,9.0,22.0,12.0,5.0,-3.0
1706292150.083505,-10.0,7.0,17.0,18.0,30.0,12.0,6.0,1.0
1706292150.0934484,2.0,6.0,-14.0,4.0,6.0,5.0,-6.0,5.0
1706292150.0934484,4.0,2.0,-8.0,-9.0,-14.0,-1.0,9.0,6.0
1706292150.1332834,12.0,13.0,71.0,-12.0,-30.0,-21.0,-1.0,-10.0
1706292150.1332834,-31.0,-12.0,-51.0,-10.0,-16.0,-7.0,-14.0,-2.0
1706292150.1332834,9.0,-7.0,2.0,-7.0,-2.0,6.0,4.0,27.0
1706292150.1332834,-8.0,-9.0,-29.0,-4.0,1.0,-6.0,-21.0,-37.0
1706292150.1332834,0.0,6.0,15.0,4.0,5.0,3.0,20.0,2.0
1706292150.1332834,1.0,3.0,-7.0,10.0,-5.0,0.0,-2.0,-10.0
1706292150.1332834,-4.0,-9.0,-25.0,-23.0,-2.0,0.0,-4.0,0.0
1706292150.1332834,-8.0,-4.0,2.0,4.0,6.0,9.0,6.0,10.0
1706292150.1532881,10.0,11.0,2.0,12.0,10.0,-5.0,-7.0,2.0
1706292150.1532881,10.0,8.0,31.0,-4.0,-6.0,1.0,8.0,9.0
1706292150.1532881,-9.0,17.0,5.0,17.0,5.0,0.0,3.0,-5.0
1706292150.1532881,-4.0,-28.0,-26.0,-6.0,0.0,7.0,-2.0,1.0
1706292150.1736133,-3.0,2.0,-4.0,-10.0,-5.0,-16.0,-9.0,-10.0
1706292150.1736133,17.0,20.0,-20.0,-12.0,-6.0,6.0,5.0,5.0
1706292150.1736133,11.0,-6.0,70.0,14.0,9.0,7.0,0.0,-7.0
1706292150.1736133,-45.0,42.0,42.0,-15.0,-2.0,-4.0,-9.0,-9.0
1706292150.193554,-1.0,-28.0,-1.0,2.0,-6.0,-5.0,1.0,12.0
1706292150.193554,3.0,0.0,-11.0,-1.0,-4.0,-1.0,-2.0,-12.0
1706292150.193554,-5.0,7.0,-12.0,2.0,-4.0,-11.0,-10.0,-17.0
1706292150.193554,17.0,-18.0,-43.0,-8.0,3.0,5.0,12.0,4.0
1706292150.2332807,0.0,31.0,38.0,13.0,2.0,4.0,1.0,0.0
1706292150.2332807,-4.0,-4.0,3.0,-5.0,-6.0,-9.0,-3.0,-4.0
1706292150.2332807,-15.0,-8.0,19.0,11.0,9.0,10.0,11.0,8.0
1706292150.2332807,12.0,3.0,6.0,24.0,7.0,1.0,3.0,-22.0
1706292150.2332807,5.0,-19.0,-13.0,-37.0,-19.0,-9.0,0.0,-5.0
1706292150.2332807,-18.0,-37.0,-81.0,-27.0,-7.0,-5.0,-30.0,-5.0
1706292150.2332807,17.0,18.0,-10.0,4.0,7.0,5.0,6.0,10.0
1706292150.2332807,-14.0,-36.0,21.0,-12.0,-22.0,-16.0,11.0,0.0
1706292150.2536407,24.0,25.0,-44.0,16.0,22.0,3.0,-17.0,-5.0
1706292150.2536407,-58.0,-15.0,22.0,30.0,17.0,9.0,12.0,9.0
1706292150.2536407,-7.0,-15.0,42.0,-25.0,-10.0,9.0,1.0,-16.0
1706292150.2536407,4.0,19.0,10.0,6.0,-1.0,-14.0,-5.0,11.0
1706292150.27328,50.0,11.0,20.0,0.0,-12.0,1.0,7.0,3.0
1706292150.27328,-51.0,-13.0,26.0,-11.0,-14.0,-8.0,1.0,-3.0
1706292150.27328,21.0,29.0,-35.0,-2.0,3.0,-5.0,-10.0,-5.0
1706292150.27328,-3.0,0.0,6.0,5.0,9.0,13.0,9.0,16.0
1706292150.293667,0.0,10.0,-21.0,-3.0,-3.0,-5.0,-3.0,27.0
1706292150.293667,35.0,23.0,86.0,32.0,9.0,5.0,10.0,-18.0
1706292150.293667,-31.0,-32.0,-36.0,-14.0,-12.0,-12.0,-18.0,-7.0
1706292150.293667,18.0,-5.0,-19.0,-15.0,1.0,5.0,1.0,-2.0
1706292150.313281,-4.0,-2.0,13.0,3.0,4.0,1.0,-2.0,10.0
1706292150.313281,-5.0,-27.0,46.0,1.0,2.0,-2.0,-2.0,5.0
1706292150.313281,6.0,72.0,-20.0,-17.0,-14.0,-11.0,3.0,6.0
1706292150.313281,-23.0,-24.0,13.0,14.0,4.0,2.0,-4.0,-8.0
1706292150.333668,2.0,78.0,50.0,-8.0,0.0,2.0,-5.0,-21.0
1706292150.333668,10.0,-80.0,18.0,-9.0,-11.0,-3.0,3.0,-1.0
1706292150.333668,13.0,37.0,75.0,23.0,-4.0,-17.0,5.0,3.0
1706292150.333668,-10.0,-4.0,-50.0,-29.0,15.0,25.0,-3.0,6.0
1706292150.353284,9.0,-3.0,74.0,36.0,17.0,4.0,8.0,-3.0
1706292150.353284,16.0,41.0,-16.0,-12.0,5.0,0.0,1.0,6.0
1706292150.3632815,-7.0,-50.0,-17.0,7.0,1.0,-3.0,-3.0,-5.0
1706292150.3632815,-11.0,20.0,35.0,15.0,-5.0,-7.0,-2.0,2.0
1706292150.373521,-25.0,-35.0,-45.0,-16.0,-14.0,-12.0,-4.0,-4.0
1706292150.373521,29.0,19.0,-34.0,-16.0,-11.0,-4.0,-2.0,-2.0
1706292150.373521,-22.0,-31.0,-7.0,8.0,2.0,0.0,1.0,-1.0
1706292150.373521,11.0,-14.0,23.0,7.0,5.0,5.0,2.0,0.0
1706292150.393501,-9.0,-71.0,-14.0,-5.0,-4.0,0.0,0.0,5.0
1706292150.393501,2.0,47.0,-34.0,-16.0,-7.0,-5.0,0.0,9.0
1706292150.393501,4.0,-35.0,-37.0,-12.0,-4.0,-1.0,-8.0,-11.0
1706292150.393501,4.0,-1.0,-7.0,-2.0,-1.0,-2.0,0.0,6.0
1706292150.413514,-11.0,66.0,54.0,8.0,6.0,6.0,4.0,-8.0
1706292150.413514,4.0,30.0,89.0,-4.0,-2.0,-5.0,1.0,38.0
1706292150.413514,-2.0,-37.0,85.0,14.0,0.0,-4.0,-6.0,-19.0
1706292150.413514,-9.0,47.0,-68.0,-19.0,-14.0,-7.0,-2.0,-4.0
1706292150.4532816,-12.0,-15.0,-52.0,-16.0,0.0,-1.0,-2.0,-3.0
1706292150.4532816,1.0,-15.0,-13.0,10.0,-1.0,0.0,-2.0,-7.0
1706292150.4532816,1.0,22.0,5.0,-27.0,-8.0,0.0,16.0,16.0
1706292150.4532816,28.0,9.0,65.0,23.0,-1.0,-13.0,-21.0,-28.0
1706292150.4532816,-14.0,3.0,-13.0,0.0,6.0,14.0,4.0,-9.0
1706292150.4532816,-19.0,-11.0,-52.0,0.0,9.0,5.0,-5.0,-7.0
1706292150.4634671,24.0,15.0,-14.0,10.0,7.0,-1.0,4.0,-2.0
1706292150.4634671,-9.0,-13.0,25.0,3.0,-2.0,-4.0,5.0,-1.0
1706292150.4832833,15.0,-30.0,-72.0,-13.0,-17.0,-5.0,-2.0,3.0
1706292150.4832833,2.0,-4.0,-7.0,-6.0,-2.0,-1.0,2.0,-6.0
1706292150.4832833,-6.0,24.0,35.0,18.0,14.0,8.0,-2.0,3.0
1706292150.4832833,-30.0,-6.0,-17.0,-7.0,3.0,0.0,0.0,6.0
1706292150.493315,30.0,-2.0,5.0,-3.0,-7.0,-7.0,-9.0,-3.0
1706292150.493315,-31.0,-38.0,-45.0,-6.0,-9.0,1.0,1.0,-1.0
1706292150.493315,-13.0,62.0,-31.0,-9.0,-9.0,-2.0,-4.0,-5.0
1706292150.493315,6.0,-116.0,19.0,-10.0,-2.0,-3.0,-2.0,3.0
1706292150.5332878,4.0,26.0,85.0,18.0,5.0,0.0,2.0,1.0
1706292150.5332878,24.0,-1.0,72.0,-1.0,-7.0,10.0,0.0,-16.0
1706292150.5332878,-10.0,-34.0,54.0,5.0,7.0,-9.0,-11.0,0.0
1706292150.5332878,-14.0,23.0,-69.0,-11.0,10.0,9.0,15.0,0.0
1706292150.5332878,2.0,14.0,73.0,7.0,-1.0,3.0,2.0,24.0
1706292150.5332878,-29.0,1.0,25.0,12.0,2.0,2.0,-2.0,-23.0
1706292150.5332878,10.0,-13.0,-21.0,-14.0,-3.0,2.0,-4.0,1.0
1706292150.5332878,8.0,42.0,30.0,20.0,0.0,1.0,-4.0,1.0
1706292150.5535204,9.0,-17.0,-26.0,-3.0,-4.0,-10.0,-3.0,4.0
1706292150.5535204,-13.0,9.0,-73.0,-19.0,-3.0,-1.0,4.0,8.0
1706292150.5535204,10.0,-8.0,0.0,6.0,-3.0,-2.0,-4.0,-5.0
1706292150.5535204,25.0,10.0,-28.0,-4.0,1.0,2.0,2.0,2.0
1706292150.598188,-39.0,-18.0,2.0,1.0,-1.0,0.0,0.0,-14.0
1706292150.598188,29.0,15.0,57.0,5.0,-1.0,-4.0,-4.0,1.0
1706292150.6001873,-17.0,32.0,-66.0,-3.0,-1.0,3.0,4.0,-3.0
1706292150.6011872,5.0,-65.0,-51.0,-19.0,-7.0,5.0,0.0,1.0
1706292150.6011872,-8.0,-1.0,-8.0,-1.0,-2.0,-4.0,-5.0,-7.0
1706292150.6011872,11.0,29.0,-9.0,-15.0,-8.0,-9.0,-6.0,-4.0
1706292150.6011872,-12.0,-54.0,15.0,4.0,7.0,1.0,4.0,1.0
1706292150.6011872,-9.0,27.0,56.0,7.0,7.0,5.0,-4.0,-2.0
1706292150.6164927,24.0,62.0,13.0,28.0,8.0,0.0,4.0,1.0
1706292150.6164927,-16.0,-2.0,4.0,15.0,3.0,11.0,-6.0,7.0
1706292150.6164927,16.0,-9.0,-81.0,-31.0,-12.0,-4.0,-7.0,-26.0
1706292150.6164927,12.0,26.0,73.0,11.0,3.0,-3.0,-1.0,2.0
1706292150.6460843,-16.0,-15.0,-16.0,-14.0,-8.0,2.0,-5.0,-10.0
1706292150.6460843,-2.0,7.0,-10.0,-1.0,-3.0,-15.0,10.0,3.0
1706292150.6460843,19.0,-16.0,-34.0,-5.0,-5.0,5.0,0.0,24.0
1706292150.6460843,-12.0,14.0,17.0,4.0,3.0,3.0,2.0,-2.0
1706292150.6460843,-22.0,-21.0,-11.0,-14.0,-5.0,-9.0,-4.0,-5.0
1706292150.6460843,14.0,-1.0,-7.0,0.0,2.0,-7.0,4.0,-6.0
1706292150.6561413,-45.0,-27.0,5.0,7.0,2.0,-1.0,2.0,5.0
1706292150.6561413,14.0,25.0,9.0,-1.0,-4.0,-7.0,-2.0,1.0
1706292150.676112,11.0,-1.0,-16.0,-10.0,1.0,6.0,6.0,1.0
1706292150.676112,-4.0,-60.0,-36.0,-7.0,-2.0,2.0,-1.0,0.0
1706292150.676112,10.0,21.0,40.0,15.0,10.0,4.0,-3.0,-3.0
1706292150.676112,-17.0,-2.0,5.0,-4.0,-10.0,-8.0,-5.0,-1.0
1706292150.7060838,15.0,10.0,45.0,11.0,3.0,5.0,-1.0,0.0
1706292150.7060838,-2.0,-44.0,-47.0,-2.0,7.0,4.0,1.0,0.0
1706292150.7060838,29.0,17.0,97.0,22.0,-5.0,-4.0,-3.0,2.0
1706292150.7060838,-7.0,-29.0,-124.0,-49.0,-8.0,3.0,2.0,-10.0
1706292150.7060838,-16.0,-18.0,34.0,3.0,0.0,-6.0,-3.0,22.0
1706292150.7060838,-21.0,23.0,41.0,9.0,2.0,10.0,-2.0,-8.0
1706292150.7162614,-17.0,-28.0,9.0,-4.0,-9.0,-17.0,-4.0,2.0
1706292150.7162614,21.0,2.0,8.0,1.0,-2.0,-1.0,-1.0,5.0
1706292150.736092,1.0,5.0,-25.0,-6.0,1.0,2.0,-5.0,-9.0
1706292150.736092,19.0,13.0,-2.0,2.0,3.0,-1.0,9.0,8.0
1706292150.736092,-31.0,15.0,3.0,0.0,-1.0,4.0,-7.0,2.0
1706292150.736092,-23.0,-2.0,17.0,8.0,-2.0,-5.0,-6.0,-32.0
1706292150.7560828,40.0,-24.0,-44.0,-13.0,-3.0,-2.0,1.0,-9.0
1706292150.7560828,-5.0,24.0,8.0,0.0,-3.0,-9.0,-12.0,-7.0
1706292150.7560828,3.0,2.0,6.0,4.0,2.0,7.0,28.0,92.0
1706292150.7560828,-29.0,-16.0,75.0,14.0,-3.0,-7.0,-47.0,-64.0
1706292150.7662687,-49.0,6.0,-68.0,-22.0,0.0,1.0,30.0,18.0
1706292150.7662687,19.0,21.0,92.0,15.0,0.0,-3.0,-32.0,-26.0
1706292150.7762785,13.0,2.0,-52.0,-29.0,-8.0,-6.0,-13.0,-24.0
1706292150.7762785,-2.0,48.0,71.0,12.0,3.0,2.0,10.0,42.0
1706292150.796735,8.0,-1.0,-4.0,1.0,-3.0,-3.0,0.0,-5.0
1706292150.796735,-9.0,24.0,-11.0,-13.0,-13.0,-6.0,2.0,9.0
1706292150.796735,13.0,24.0,20.0,12.0,3.0,8.0,2.0,-1.0
1706292150.796735,-7.0,-20.0,-12.0,-3.0,-15.0,1.0,-1.0,7.0
1706292150.8163233,-2.0,-7.0,65.0,-19.0,7.0,-4.0,-6.0,-20.0
1706292150.8163233,11.0,-4.0,-65.0,13.0,5.0,23.0,15.0,18.0
1706292150.8163233,-4.0,-7.0,21.0,38.0,44.0,24.0,4.0,-21.0
1706292150.8163233,16.0,1.0,-64.0,-31.0,1.0,-4.0,10.0,9.0
1706292150.8266647,-20.0,-21.0,72.0,2.0,-39.0,-5.0,-16.0,-8.0
1706292150.8266647,1.0,-1.0,8.0,-25.0,14.0,5.0,3.0,0.0
1706292150.8366332,-3.0,-2.0,22.0,33.0,-25.0,9.0,-10.0,-9.0
1706292150.8366332,-4.0,-17.0,-49.0,-46.0,18.0,-11.0,0.0,7.0
1706292150.8566177,13.0,-2.0,-56.0,9.0,10.0,10.0,-7.0,2.0
1706292150.8566177,-20.0,-1.0,15.0,-1.0,-8.0,-12.0,-8.0,3.0
1706292150.8566177,9.0,-1.0,-20.0,-13.0,-15.0,3.0,12.0,-23.0
1706292150.8566177,23.0,16.0,30.0,18.0,-6.0,-17.0,1.0,15.0
1706292150.8765962,-17.0,7.0,3.0,10.0,-1.0,15.0,16.0,-1.0
1706292150.8765962,18.0,1.0,22.0,2.0,-3.0,-20.0,11.0,-6.0
1706292150.8765962,-15.0,-4.0,-4.0,-16.0,-1.0,-24.0,-20.0,-9.0
1706292150.8765962,16.0,-5.0,-20.0,10.0,-5.0,15.0,16.0,5.0
1706292150.8864858,-6.0,-9.0,3.0,-4.0,-2.0,-15.0,0.0,14.0
1706292150.8864858,-11.0,-12.0,-19.0,8.0,4.0,11.0,0.0,-6.0
1706292150.896636,7.0,-13.0,-8.0,-23.0,-7.0,-17.0,-5.0,-6.0
1706292150.896636,-6.0,11.0,65.0,24.0,-6.0,-7.0,23.0,2.0
1706292150.9166749,-2.0,-2.0,-39.0,-2.0,21.0,15.0,-73.0,0.0
1706292150.9166749,14.0,3.0,10.0,2.0,10.0,6.0,36.0,5.0
1706292150.9166749,1.0,-1.0,-32.0,-24.0,-1.0,-4.0,41.0,8.0
1706292150.9166749,-6.0,0.0,25.0,2.0,-10.0,-2.0,-22.0,-19.0
1706292150.9363205,26.0,10.0,76.0,42.0,2.0,-14.0,13.0,4.0
1706292150.9363205,-21.0,-24.0,-96.0,-54.0,-4.0,-1.0,-33.0,-8.0
1706292150.9363205,-9.0,-6.0,46.0,20.0,11.0,10.0,-24.0,-5.0
1706292150.9363205,6.0,1.0,39.0,4.0,1.0,17.0,16.0,9.0
1706292150.9464822,-9.0,-1.0,-21.0,-7.0,-11.0,-8.0,55.0,8.0
1706292150.9464822,21.0,0.0,16.0,2.0,-4.0,-17.0,-50.0,-14.0
1706292150.9566343,17.0,26.0,28.0,-8.0,-4.0,-10.0,42.0,7.0
1706292150.9566343,-8.0,11.0,-45.0,0.0,6.0,15.0,-8.0,25.0
1706292150.97665,3.0,10.0,19.0,1.0,-4.0,-20.0,12.0,-1.0
1706292150.97665,6.0,9.0,40.0,13.0,-2.0,-14.0,-46.0,-9.0
1706292150.97665,-25.0,-13.0,-7.0,-14.0,-10.0,13.0,11.0,-14.0
1706292150.97665,9.0,-11.0,21.0,3.0,-3.0,-8.0,13.0,-3.0
1706292150.9965386,-13.0,0.0,-7.0,-2.0,5.0,3.0,-40.0,-42.0
1706292150.9965386,21.0,7.0,37.0,9.0,-2.0,6.0,15.0,11.0
1706292150.9965386,3.0,5.0,-15.0,7.0,1.0,-28.0,-27.0,0.0
1706292150.9965386,-54.0,-29.0,-60.0,-22.0,-2.0,4.0,-9.0,-9.0
1706292151.0063832,-24.0,-8.0,52.0,-6.0,-8.0,-8.0,13.0,4.0
1706292151.0063832,26.0,22.0,-35.0,-6.0,0.0,-9.0,8.0,12.0
1706292151.0165207,-5.0,-14.0,14.0,-1.0,-5.0,-2.0,-18.0,-9.0
1706292151.0165207,20.0,10.0,23.0,20.0,14.0,11.0,31.0,64.0
1706292151.0362923,-2.0,-30.0,-65.0,-6.0,9.0,5.0,-18.0,-46.0
1706292151.0362923,0.0,33.0,24.0,15.0,2.0,-5.0,48.0,19.0
1706292151.0362923,27.0,-8.0,1.0,-1.0,2.0,11.0,-24.0,-5.0
1706292151.0362923,14.0,4.0,-6.0,-1.0,-4.0,-3.0,14.0,-14.0
1706292151.056289,-25.0,-22.0,-16.0,-15.0,-9.0,-4.0,22.0,40.0
1706292151.056289,2.0,-5.0,21.0,4.0,-6.0,-2.0,-11.0,-10.0
1706292151.056289,-44.0,-29.0,-41.0,-8.0,-1.0,-22.0,-23.0,-24.0
1706292151.056289,16.0,5.0,22.0,2.0,-7.0,-10.0,12.0,6.0
1706292151.0766704,25.0,7.0,-25.0,-10.0,-5.0,4.0,-6.0,10.0
1706292151.0766704,-26.0,2.0,100.0,15.0,2.0,38.0,14.0,10.0
1706292151.0766704,15.0,9.0,33.0,-2.0,4.0,-3.0,26.0,19.0
1706292151.0766704,-3.0,-1.0,87.0,1.0,26.0,11.0,-18.0,-11.0
1706292151.0962908,1.0,19.0,60.0,19.0,-9.0,-2.0,23.0,-3.0
1706292151.0962908,-10.0,-5.0,-43.0,0.0,3.0,-17.0,-39.0,6.0
1706292151.0962908,-7.0,-6.0,38.0,11.0,-8.0,21.0,23.0,6.0
1706292151.0962908,4.0,4.0,-2.0,3.0,3.0,6.0,-17.0,-28.0
1706292151.119676,-3.0,-16.0,-76.0,-47.0,-15.0,-19.0,51.0,5.0
1706292151.119676,-5.0,-17.0,41.0,-3.0,-12.0,-4.0,-50.0,-21.0
1706292151.119676,0.0,16.0,9.0,-2.0,2.0,24.0,-9.0,6.0
1706292151.119676,-10.0,3.0,-34.0,-12.0,-16.0,-9.0,28.0,-4.0
1706292151.1390538,9.0,12.0,15.0,14.0,11.0,10.0,-39.0,2.0
1706292151.1390538,-13.0,-4.0,-16.0,-2.0,-3.0,-4.0,0.0,-14.0
1706292151.1390538,11.0,-1.0,-50.0,-10.0,-2.0,-15.0,45.0,21.0
1706292151.1390538,-8.0,5.0,11.0,8.0,2.0,-7.0,-88.0,-34.0
1706292151.1590538,-32.0,-32.0,-13.0,1.0,-2.0,18.0,14.0,-8.0
1706292151.1590538,-10.0,-17.0,-14.0,-2.0,1.0,-2.0,61.0,-13.0
1706292151.1590538,23.0,11.0,15.0,9.0,7.0,-3.0,0.0,5.0
1706292151.1590538,-7.0,5.0,-9.0,-7.0,-6.0,-1.0,-14.0,-5.0
1706292151.1793036,19.0,4.0,21.0,7.0,1.0,-5.0,-60.0,3.0
1706292151.1793036,-30.0,-6.0,-26.0,-2.0,3.0,-3.0,-14.0,-6.0
1706292151.1793036,-19.0,2.0,8.0,-1.0,8.0,-4.0,2.0,-8.0
1706292151.1793036,26.0,24.0,45.0,11.0,1.0,5.0,1.0,-10.0
1706292151.199328,7.0,10.0,-21.0,-21.0,-10.0,-8.0,5.0,6.0
1706292151.199328,-25.0,-13.0,50.0,-3.0,-16.0,-2.0,-4.0,-13.0
1706292151.199328,33.0,-1.0,-6.0,-7.0,-5.0,-10.0,-37.0,0.0
1706292151.199328,-24.0,5.0,0.0,-1.0,0.0,31.0,32.0,15.0
1706292151.2290554,9.0,18.0,45.0,19.0,10.0,-32.0,-21.0,-19.0
1706292151.2290554,33.0,14.0,-26.0,-2.0,-3.0,-22.0,32.0,31.0
1706292151.2290554,-5.0,13.0,50.0,7.0,-3.0,-2.0,-11.0,0.0
1706292151.2290554,7.0,-40.0,-94.0,-31.0,-16.0,-13.0,7.0,6.0
1706292151.239367,17.0,11.0,34.0,12.0,-11.0,18.0,-2.0,8.0
1706292151.239367,-33.0,-15.0,-58.0,-3.0,14.0,14.0,5.0,-4.0
1706292151.239367,-12.0,-6.0,-16.0,-4.0,24.0,13.0,-23.0,-13.0
1706292151.239367,22.0,9.0,15.0,1.0,-8.0,-13.0,-8.0,20.0
1706292151.2590554,-22.0,4.0,-13.0,-11.0,-5.0,-4.0,-12.0,-13.0
1706292151.2590554,6.0,-15.0,18.0,15.0,-30.0,-15.0,5.0,-5.0
1706292151.2590554,4.0,6.0,-2.0,-19.0,10.0,19.0,-12.0,3.0
1706292151.2590554,-6.0,-14.0,-12.0,4.0,9.0,-5.0,5.0,-14.0
1706292151.2692232,-3.0,-9.0,1.0,3.0,6.0,2.0,5.0,-1.0
1706292151.2692232,2.0,7.0,-21.0,-8.0,-4.0,2.0,-7.0,-2.0
1706292151.2692232,-4.0,-1.0,57.0,17.0,-10.0,-4.0,15.0,-1.0
1706292151.2692232,-12.0,-18.0,-83.0,-27.0,-14.0,-18.0,-9.0,-10.0
1706292151.2993321,-6.0,5.0,67.0,17.0,-2.0,-1.0,-3.0,-7.0
1706292151.2993321,8.0,3.0,-10.0,-43.0,4.0,-2.0,5.0,8.0
1706292151.2993321,-4.0,-8.0,-11.0,23.0,-2.0,-2.0,-1.0,-9.0
1706292151.2993321,-9.0,-17.0,-64.0,-6.0,-5.0,-14.0,2.0,0.0
1706292151.3193262,2.0,6.0,0.0,5.0,10.0,8.0,-11.0,0.0
1706292151.3193262,1.0,-7.0,-12.0,10.0,10.0,17.0,3.0,-4.0
1706292151.3193262,-3.0,-6.0,-7.0,-2.0,-3.0,-1.0,3.0,-2.0
1706292151.3193262,-9.0,9.0,39.0,19.0,9.0,-15.0,-9.0,1.0
1706292151.3490577,3.0,-7.0,-70.0,-22.0,-8.0,-1.0,6.0,1.0
1706292151.3490577,4.0,4.0,44.0,13.0,-5.0,3.0,0.0,-3.0
1706292151.3490577,-3.0,-9.0,-51.0,-33.0,-6.0,-7.0,2.0,-5.0
1706292151.3490577,-8.0,4.0,19.0,16.0,4.0,9.0,0.0,-1.0
1706292151.359103,11.0,-2.0,-11.0,-11.0,-1.0,-3.0,4.0,-1.0
1706292151.359103,-17.0,-4.0,12.0,16.0,13.0,1.0,2.0,8.0
1706292151.359103,-3.0,-8.0,-14.0,-3.0,-10.0,2.0,-52.0,-18.0
1706292151.359103,9.0,8.0,45.0,2.0,-1.0,-7.0,43.0,-2.0
1706292151.3790877,10.0,-1.0,9.0,-2.0,-1.0,-4.0,-28.0,-4.0
1706292151.3790877,-17.0,-2.0,-4.0,-12.0,-8.0,4.0,3.0,-2.0
1706292151.3790877,-16.0,-7.0,-18.0,-4.0,-6.0,-9.0,13.0,18.0
1706292151.3790877,21.0,0.0,22.0,5.0,8.0,5.0,-3.0,-14.0
1706292151.3894134,-14.0,-16.0,3.0,3.0,5.0,-1.0,24.0,2.0
1706292151.3894134,29.0,14.0,25.0,7.0,2.0,-7.0,-17.0,3.0
1706292151.3894134,-7.0,-5.0,-24.0,-11.0,-4.0,-7.0,11.0,-2.0
1706292151.3894134,6.0,12.0,49.0,8.0,-3.0,-2.0,-11.0,1.0
1706292151.429056,-3.0,-14.0,-59.0,-17.0,-9.0,6.0,-1.0,2.0
1706292151.429056,-5.0,-4.0,27.0,7.0,15.0,8.0,-4.0,-12.0
1706292151.429056,2.0,-8.0,4.0,16.0,2.0,-3.0,18.0,0.0
1706292151.429056,-14.0,16.0,55.0,-18.0,-14.0,-22.0,-26.0,-1.0
1706292151.43909,0.0,2.0,-14.0,20.0,17.0,2.0,1.0,-4.0
1706292151.43909,5.0,-13.0,-18.0,-18.0,-6.0,1.0,8.0,0.0
1706292151.43909,2.0,12.0,11.0,0.0,-8.0,-3.0,-4.0,-4.0
1706292151.43909,-1.0,-9.0,-28.0,3.0,7.0,8.0,6.0,4.0
1706292151.4493687,-2.0,6.0,19.0,9.0,-7.0,0.0,2.0,-2.0
1706292151.4493687,8.0,7.0,-4.0,-13.0,-5.0,1.0,0.0,-3.0
1706292151.4493687,-10.0,-3.0,3.0,6.0,-2.0,3.0,0.0,0.0
1706292151.4493687,0.0,-5.0,-11.0,4.0,-2.0,2.0,-6.0,0.0
1706292151.4793613,-1.0,6.0,10.0,1.0,4.0,-3.0,-7.0,-1.0
1706292151.4793613,-10.0,-6.0,-3.0,9.0,1.0,0.0,19.0,0.0
1706292151.4793613,1.0,-7.0,-37.0,-16.0,-6.0,12.0,10.0,-4.0
1706292151.4793613,-3.0,1.0,2.0,-3.0,-1.0,-2.0,-29.0,1.0
1706292151.4990911,12.0,4.0,-8.0,-4.0,-2.0,-2.0,4.0,-2.0
1706292151.4990911,2.0,-1.0,27.0,10.0,-1.0,1.0,-22.0,35.0
1706292151.4990911,9.0,0.0,-19.0,-10.0,-6.0,-15.0,3.0,-30.0
1706292151.4990911,8.0,0.0,3.0,2.0,6.0,3.0,13.0,4.0
1706292151.5091126,-35.0,-14.0,3.0,-3.0,6.0,4.0,-2.0,-5.0
1706292151.5091126,22.0,2.0,10.0,-5.0,-11.0,0.0,1.0,8.0
1706292151.5091126,-13.0,-5.0,5.0,-3.0,-5.0,-8.0,-2.0,-6.0
1706292151.5091126,7.0,8.0,-10.0,-7.0,-3.0,-2.0,-7.0,-1.0
1706292151.539055,6.0,0.0,23.0,17.0,-5.0,10.0,6.0,5.0
1706292151.539055,-11.0,-9.0,-57.0,-15.0,14.0,-16.0,2.0,-12.0
1706292151.539055,-2.0,2.0,15.0,-6.0,7.0,1.0,-11.0,6.0
1706292151.539055,0.0,3.0,-1.0,8.0,-3.0,-3.0,4.0,-5.0
1706292151.5593052,-1.0,4.0,1.0,-16.0,-11.0,-2.0,3.0,1.0
1706292151.5593052,-4.0,3.0,5.0,16.0,6.0,4.0,4.0,-4.0
1706292151.5593052,10.0,8.0,10.0,-2.0,1.0,1.0,-4.0,-1.0
1706292151.5593052,-12.0,-11.0,-10.0,-10.0,-7.0,-6.0,0.0,5.0
1706292151.5692632,1.0,4.0,17.0,-5.0,-4.0,11.0,0.0,-1.0
1706292151.5692632,8.0,-6.0,-24.0,-4.0,-6.0,-10.0,-7.0,-8.0
1706292151.5790622,-9.0,1.0,21.0,11.0,2.0,-4.0,0.0,6.0
1706292151.5790622,-4.0,-13.0,-38.0,-11.0,0.0,7.0,6.0,-1.0
1706292151.6090584,-11.0,5.0,10.0,3.0,1.0,-11.0,-4.0,-5.0
1706292151.6090584,6.0,5.0,-24.0,-10.0,-5.0,-2.0,-1.0,-7.0
1706292151.6090584,6.0,4.0,29.0,11.0,3.0,4.0,2.0,6.0
1706292151.6090584,-12.0,-16.0,-67.0,-3.0,-4.0,-2.0,0.0,-1.0
1706292151.6193728,-1.0,-7.0,-4.0,-7.0,1.0,-8.0,-7.0,-6.0
1706292151.6193728,0.0,8.0,32.0,3.0,1.0,6.0,15.0,2.0
1706292151.6193728,-11.0,-18.0,-15.0,-12.0,-8.0,0.0,-8.0,4.0
1706292151.6193728,24.0,6.0,8.0,2.0,0.0,4.0,1.0,-3.0
1706292151.6371636,-6.0,6.0,25.0,0.0,6.0,-1.0,-16.0,-1.0
1706292151.6371636,-6.0,-9.0,-2.0,5.0,-8.0,-4.0,4.0,-5.0
1706292151.637888,5.0,5.0,17.0,0.0,-7.0,0.0,2.0,2.0
1706292151.637888,-1.0,-4.0,-16.0,0.0,12.0,-1.0,-1.0,-1.0
1706292151.6549284,-20.0,-6.0,14.0,13.0,6.0,14.0,17.0,2.0
1706292151.6549284,12.0,4.0,-25.0,-3.0,-1.0,1.0,-7.0,-2.0
1706292151.6549284,-2.0,0.0,1.0,-13.0,-3.0,7.0,6.0,-1.0
1706292151.6549284,-11.0,0.0,23.0,-3.0,-4.0,-5.0,-2.0,-2.0
1706292151.675154,5.0,3.0,-9.0,2.0,2.0,-6.0,-2.0,0.0
1706292151.675154,-7.0,-7.0,6.0,0.0,-3.0,-6.0,-4.0,-6.0
1706292151.675154,7.0,7.0,3.0,-1.0,-10.0,0.0,-15.0,0.0
1706292151.675154,2.0,-5.0,10.0,5.0,6.0,5.0,18.0,-1.0
1706292151.695199,9.0,-4.0,-21.0,-7.0,-5.0,-1.0,-11.0,1.0
1706292151.695199,-2.0,-4.0,13.0,-3.0,0.0,4.0,4.0,-3.0
1706292151.7052233,2.0,2.0,-15.0,0.0,3.0,-4.0,5.0,-1.0
1706292151.7052233,-12.0,-3.0,3.0,-1.0,-6.0,-5.0,-6.0,-1.0
1706292151.7352698,15.0,8.0,7.0,3.0,-4.0,-4.0,-2.0,0.0
1706292151.7352698,-23.0,-18.0,-21.0,-14.0,1.0,0.0,-9.0,-3.0
1706292151.7352698,8.0,-1.0,-10.0,-3.0,-2.0,-5.0,-1.0,-2.0
1706292151.7352698,-13.0,-3.0,1.0,5.0,-8.0,-1.0,-7.0,-1.0
1706292151.7352698,12.0,11.0,22.0,7.0,6.0,3.0,5.0,3.0
1706292151.7352698,-7.0,-6.0,4.0,-4.0,4.0,1.0,-1.0,-3.0
1706292151.7352698,-7.0,-5.0,-37.0,-2.0,4.0,-2.0,1.0,-2.0
1706292151.7352698,1.0,1.0,19.0,-1.0,-3.0,3.0,-9.0,-2.0
1706292151.7556407,3.0,-2.0,2.0,-13.0,-13.0,-4.0,6.0,-1.0
1706292151.7556407,0.0,5.0,-82.0,-8.0,0.0,-2.0,-6.0,-4.0
1706292151.765284,-13.0,-17.0,22.0,10.0,8.0,7.0,-2.0,-3.0
1706292151.765284,6.0,11.0,29.0,6.0,1.0,6.0,-1.0,2.0
1706292151.7753184,-1.0,-4.0,-21.0,-14.0,-8.0,-4.0,2.0,-2.0
1706292151.7753184,9.0,8.0,46.0,11.0,2.0,4.0,-4.0,2.0
1706292151.7753184,0.0,2.0,-4.0,0.0,3.0,-3.0,2.0,1.0
1706292151.7753184,-17.0,-3.0,-15.0,-3.0,-2.0,-3.0,-2.0,-3.0
1706292151.795711,-9.0,-10.0,-11.0,-4.0,0.0,0.0,-1.0,-3.0
1706292151.795711,1.0,-2.0,11.0,0.0,-4.0,11.0,-2.0,1.0
1706292151.795711,20.0,6.0,-10.0,-6.0,1.0,-9.0,-1.0,-3.0
1706292151.795711,7.0,4.0,7.0,10.0,0.0,-1.0,0.0,0.0
1706292151.8157225,-12.0,-7.0,-16.0,-5.0,1.0,-3.0,1.0,-1.0
1706292151.8157225,7.0,-5.0,10.0,-6.0,-9.0,-3.0,-4.0,-3.0
1706292151.8157225,-4.0,5.0,3.0,-1.0,-4.0,-2.0,-2.0,0.0
1706292151.8257287,4.0,1.0,-2.0,7.0,1.0,1.0,1.0,0.0
1706292151.8358743,5.0,0.0,10.0,-10.0,5.0,-1.0,-2.0,-1.0
1706292151.8358743,-9.0,-4.0,8.0,10.0,0.0,2.0,0.0,-2.0
1706292151.8358743,-8.0,-24.0,-46.0,-13.0,-4.0,2.0,-2.0,0.0
1706292151.8358743,0.0,32.0,-31.0,-7.0,-4.0,-8.0,-4.0,-1.0
1706292151.8560352,3.0,-17.0,-2.0,16.0,-3.0,2.0,4.0,2.0
1706292151.8560352,-4.0,1.0,15.0,-3.0,4.0,4.0,-1.0,-1.0
1706292151.8560352,-17.0,-9.0,-38.0,-20.0,5.0,-9.0,0.0,-2.0
1706292151.8560352,3.0,-14.0,5.0,1.0,-1.0,-1.0,-1.0,1.0
1706292151.875722,-4.0,9.0,7.0,6.0,-4.0,-14.0,-7.0,-5.0
1706292151.875722,4.0,6.0,13.0,2.0,1.0,-3.0,-1.0,-1.0
1706292151.8857257,7.0,3.0,20.0,9.0,-7.0,-2.0,1.0,1.0
1706292151.8857257,-2.0,-4.0,4.0,-3.0,7.0,4.0,2.0,0.0
1706292151.8960416,-4.0,3.0,-5.0,-8.0,-3.0,3.0,0.0,-2.0
1706292151.8960416,15.0,0.0,17.0,5.0,-5.0,-8.0,-3.0,0.0
1706292151.8960416,-17.0,1.0,5.0,2.0,0.0,-8.0,5.0,-1.0
1706292151.8960416,-23.0,-13.0,1.0,-7.0,-6.0,14.0,-36.0,-5.0
1706292151.9160426,12.0,3.0,0.0,1.0,-5.0,-8.0,-10.0,-2.0
1706292151.9160426,1.0,2.0,-12.0,-1.0,4.0,-1.0,1.0,0.0
1706292151.9160426,-4.0,10.0,19.0,9.0,7.0,7.0,-5.0,1.0
1706292151.9160426,12.0,-7.0,2.0,6.0,8.0,0.0,10.0,0.0
1706292151.9457223,-7.0,-4.0,-12.0,-3.0,0.0,1.0,2.0,0.0
1706292151.9457223,2.0,6.0,14.0,-7.0,-12.0,-9.0,-12.0,-4.0
1706292151.9457223,-3.0,0.0,-29.0,-6.0,-10.0,1.0,5.0,0.0
1706292151.9457223,-6.0,-14.0,18.0,18.0,5.0,0.0,4.0,-2.0
1706292151.9559672,1.0,-3.0,-42.0,-22.0,3.0,-7.0,-3.0,0.0
1706292151.9559672,2.0,3.0,20.0,10.0,-4.0,-5.0,5.0,2.0
1706292151.9559672,-2.0,2.0,46.0,-5.0,-6.0,-2.0,-12.0,-5.0
1706292151.9559672,4.0,2.0,-7.0,-8.0,-8.0,0.0,19.0,0.0
1706292151.976041,7.0,5.0,23.0,9.0,12.0,11.0,-6.0,-2.0
1706292151.976041,-3.0,-1.0,-10.0,5.0,-4.0,2.0,27.0,1.0
1706292151.976041,-17.0,-7.0,11.0,-1.0,-2.0,-8.0,-45.0,-6.0
1706292151.976041,4.0,2.0,-6.0,-5.0,3.0,-8.0,-13.0,-1.0
1706292152.0157204,-2.0,-5.0,25.0,11.0,0.0,9.0,23.0,0.0
1706292152.0157204,-23.0,-4.0,-40.0,-8.0,-5.0,-3.0,19.0,0.0
1706292152.0157204,18.0,4.0,9.0,5.0,-8.0,1.0,6.0,-1.0
1706292152.0157204,-3.0,-5.0,-56.0,-17.0,-14.0,-4.0,-5.0,0.0
1706292152.0157204,4.0,0.0,-27.0,-12.0,0.0,-1.0,-4.0,-1.0
1706292152.0157204,-9.0,-19.0,22.0,-2.0,2.0,1.0,-9.0,-4.0
1706292152.0157204,-2.0,9.0,35.0,2.0,-6.0,-3.0,7.0,-1.0
1706292152.0157204,-13.0,-8.0,-36.0,-4.0,2.0,-5.0,-4.0,-3.0
1706292152.0357246,-3.0,-1.0,12.0,8.0,-1.0,-7.0,4.0,1.0
1706292152.0357246,5.0,-1.0,-27.0,-6.0,0.0,-5.0,-10.0,-2.0
1706292152.0357246,4.0,-4.0,-4.0,0.0,0.0,5.0,1.0,0.0
1706292152.0357246,-1.0,4.0,35.0,-15.0,0.0,-2.0,6.0,1.0
1706292152.0657244,22.0,16.0,5.0,4.0,8.0,7.0,-2.0,0.0
1706292152.0657244,-12.0,-20.0,-12.0,-6.0,-1.0,0.0,-9.0,-4.0
1706292152.0657244,-12.0,-1.0,4.0,1.0,-8.0,-3.0,3.0,-3.0
1706292152.0657244,6.0,2.0,5.0,8.0,-3.0,7.0,6.0,1.0
1706292152.0761528,-4.0,-7.0,6.0,-7.0,-9.0,-25.0,-12.0,-2.0
1706292152.0761528,5.0,5.0,-39.0,-9.0,-4.0,-13.0,-27.0,-1.0
1706292152.0761528,15.0,5.0,-7.0,6.0,7.0,16.0,42.0,5.0
1706292152.0761528,2.0,-1.0,42.0,6.0,-5.0,-9.0,18.0,3.0
1706292152.0957217,-5.0,-2.0,-27.0,-16.0,-5.0,9.0,-56.0,-3.0
1706292152.0957217,0.0,-7.0,-4.0,0.0,-1.0,-8.0,20.0,2.0
1706292152.0957217,4.0,7.0,-15.0,-1.0,3.0,-5.0,-56.0,-8.0
1706292152.0957217,4.0,0.0,7.0,0.0,5.0,13.0,47.0,13.0
1706292152.1261816,-33.0,-15.0,17.0,9.0,0.0,-26.0,-10.0,0.0
1706292152.1261816,0.0,13.0,27.0,1.0,-2.0,-2.0,-27.0,-41.0
1706292152.1261816,18.0,-14.0,2.0,-7.0,-2.0,5.0,28.0,3.0
1706292152.1261816,0.0,14.0,-24.0,-5.0,-2.0,5.0,-5.0,-2.0
1706292152.135778,-22.0,-5.0,3.0,-1.0,-8.0,13.0,12.0,-7.0
1706292152.135778,-12.0,6.0,14.0,2.0,3.0,2.0,0.0,16.0
1706292152.135778,1.0,-1.0,10.0,9.0,4.0,-4.0,7.0,-7.0
1706292152.135778,27.0,16.0,10.0,2.0,2.0,-3.0,-20.0,-1.0
1706292152.1557548,-7.0,-6.0,-13.0,-6.0,-5.0,2.0,14.0,11.0
1706292152.1557548,-19.0,-11.0,12.0,-4.0,-12.0,2.0,1.0,-2.0
1706292152.1557548,14.0,10.0,-14.0,-1.0,8.0,-7.0,-11.0,3.0
1706292152.1557548,-3.0,-2.0,0.0,-5.0,-1.0,3.0,-7.0,-4.0
1706292152.1853225,-10.0,-11.0,-15.0,-3.0,-1.0,-7.0,8.0,-2.0
1706292152.1853225,0.0,6.0,3.0,4.0,7.0,-7.0,-11.0,-4.0
1706292152.1853225,-13.0,-9.0,2.0,3.0,-4.0,-3.0,2.0,-5.0
1706292152.1863377,3.0,-2.0,-18.0,-2.0,-2.0,-11.0,-7.0,1.0
1706292152.2077744,16.0,7.0,-21.0,-3.0,-1.0,4.0,21.0,-2.0
1706292152.2077744,5.0,6.0,17.0,2.0,6.0,4.0,14.0,9.0
1706292152.2077744,-12.0,-9.0,-5.0,-2.0,-3.0,6.0,-25.0,1.0
1706292152.2077744,13.0,-6.0,-25.0,-1.0,-2.0,-9.0,0.0,-7.0
1706292152.2182186,4.0,6.0,2.0,-6.0,-1.0,7.0,2.0,-2.0
1706292152.2182186,-1.0,-12.0,-48.0,-7.0,-8.0,-2.0,6.0,5.0
1706292152.2182186,0.0,2.0,-9.0,4.0,-11.0,-6.0,0.0,0.0
1706292152.2182186,-13.0,-2.0,72.0,9.0,3.0,12.0,-5.0,-4.0
1706292152.2386317,5.0,-5.0,-62.0,3.0,12.0,2.0,2.0,-3.0
1706292152.2386317,13.0,6.0,-19.0,-10.0,18.0,7.0,-1.0,4.0
1706292152.2386317,-1.0,9.0,61.0,23.0,7.0,5.0,11.0,3.0
1706292152.2386317,-18.0,-14.0,-76.0,-16.0,-18.0,-16.0,-11.0,-6.0
1706292152.2682288,3.0,-12.0,-1.0,23.0,6.0,1.0,-1.0,0.0
1706292152.2682288,4.0,17.0,96.0,2.0,-10.0,-10.0,-6.0,2.0
1706292152.2682288,-3.0,-10.0,-78.0,-25.0,-11.0,-5.0,-4.0,-3.0
1706292152.2682288,-9.0,-3.0,30.0,0.0,9.0,2.0,2.0,4.0
1706292152.2784646,13.0,9.0,31.0,-3.0,-6.0,0.0,-3.0,-3.0
1706292152.2784646,-18.0,-11.0,-23.0,0.0,-5.0,3.0,-4.0,-3.0
1706292152.2784646,-8.0,6.0,30.0,2.0,2.0,-1.0,5.0,2.0
1706292152.2784646,0.0,-11.0,-27.0,-14.0,-7.0,-4.0,-8.0,-2.0
1706292152.298501,8.0,8.0,21.0,10.0,5.0,1.0,-1.0,0.0
1706292152.298501,4.0,-1.0,-14.0,1.0,-1.0,3.0,-1.0,-1.0
1706292152.298501,-1.0,-2.0,-12.0,0.0,-2.0,-4.0,6.0,1.0
1706292152.298501,-3.0,-1.0,28.0,5.0,2.0,-1.0,-6.0,-3.0
1706292152.3282332,5.0,-2.0,-47.0,-18.0,-8.0,-2.0,3.0,0.0
1706292152.3282332,-16.0,-3.0,-7.0,-10.0,-7.0,-2.0,2.0,2.0
1706292152.3382313,8.0,-2.0,2.0,2.0,4.0,0.0,1.0,-1.0
1706292152.3382313,0.0,-1.0,22.0,7.0,2.0,2.0,-3.0,-2.0
1706292152.3382313,-1.0,0.0,40.0,-6.0,-5.0,2.0,-7.0,-2.0
1706292152.3382313,8.0,2.0,-15.0,0.0,-7.0,-3.0,11.0,4.0
1706292152.3382313,-4.0,3.0,8.0,3.0,9.0,2.0,5.0,0.0
1706292152.3382313,-4.0,1.0,28.0,31.0,0.0,-19.0,-7.0,-3.0
1706292152.3584914,-8.0,-17.0,-49.0,-37.0,-3.0,5.0,4.0,1.0
1706292152.3584914,12.0,9.0,0.0,2.0,-5.0,-4.0,-14.0,-1.0
1706292152.3584914,-1.0,-1.0,-3.0,9.0,10.0,5.0,3.0,1.0
1706292152.3584914,-12.0,-4.0,8.0,9.0,11.0,10.0,5.0,0.0
1706292152.3982756,-2.0,-5.0,-12.0,-6.0,-9.0,-19.0,-9.0,-3.0
1706292152.3982756,5.0,6.0,39.0,-1.0,-13.0,-4.0,1.0,0.0
1706292152.3982756,-15.0,-14.0,-79.0,-21.0,-5.0,4.0,0.0,-3.0
1706292152.3982756,6.0,0.0,-17.0,-4.0,2.0,2.0,-3.0,0.0
1706292152.4086564,-15.0,3.0,17.0,7.0,3.0,0.0,0.0,-1.0
1706292152.4086564,6.0,2.0,41.0,5.0,4.0,8.0,-1.0,-1.0
1706292152.4086564,10.0,1.0,-18.0,1.0,-6.0,10.0,6.0,1.0
1706292152.4086564,8.0,-5.0,-10.0,-13.0,-4.0,-8.0,-19.0,0.0
1706292152.4186323,-18.0,10.0,48.0,6.0,-1.0,1.0,-3.0,1.0
1706292152.4186323,5.0,-8.0,-57.0,-4.0,4.0,2.0,-1.0,-3.0
1706292152.4186323,-17.0,-5.0,15.0,1.0,0.0,-3.0,-9.0,4.0
1706292152.4186323,2.0,2.0,-7.0,-9.0,-6.0,-1.0,3.0,-12.0
1706292152.4386213,7.0,-1.0,17.0,4.0,-2.0,8.0,-9.0,0.0
1706292152.4386213,12.0,4.0,-1.0,8.0,3.0,-7.0,-12.0,2.0
1706292152.4386213,-15.0,2.0,-3.0,-4.0,-2.0,-7.0,13.0,-3.0
1706292152.4386213,-1.0,-3.0,-11.0,-12.0,-4.0,-5.0,-14.0,-1.0
1706292152.4582896,4.0,14.0,28.0,21.0,-2.0,7.0,24.0,4.0
1706292152.4582896,9.0,-7.0,8.0,-7.0,9.0,3.0,-3.0,-4.0
1706292152.4582896,14.0,2.0,-40.0,-1.0,2.0,4.0,-13.0,-7.0
1706292152.4582896,-5.0,2.0,10.0,-3.0,3.0,3.0,14.0,5.0
1706292152.47857,-3.0,-8.0,-41.0,-15.0,-8.0,-8.0,-13.0,-6.0
1706292152.47857,-2.0,4.0,63.0,25.0,7.0,1.0,5.0,3.0
1706292152.47857,0.0,-7.0,21.0,-3.0,-8.0,4.0,1.0,-2.0
1706292152.47857,-1.0,5.0,2.0,-10.0,-7.0,-11.0,-3.0,-1.0
1706292152.4982898,4.0,-2.0,-3.0,20.0,7.0,5.0,2.0,-1.0
1706292152.4982898,3.0,1.0,23.0,-2.0,7.0,4.0,3.0,1.0
1706292152.4982898,-6.0,2.0,16.0,-1.0,-5.0,-5.0,-1.0,1.0
1706292152.4982898,-10.0,1.0,-23.0,-1.0,-1.0,-6.0,-4.0,2.0
1706292152.5185509,3.0,-5.0,9.0,-7.0,-8.0,1.0,3.0,-1.0
1706292152.5185509,-3.0,-1.0,-39.0,-11.0,-9.0,-7.0,1.0,-4.0
1706292152.5185509,14.0,7.0,23.0,13.0,7.0,-2.0,-3.0,0.0
1706292152.5185509,-10.0,-7.0,-6.0,-10.0,-8.0,0.0,20.0,0.0
1706292152.5582924,-9.0,-5.0,2.0,-3.0,-2.0,-5.0,-46.0,-7.0
1706292152.5582924,-5.0,1.0,-3.0,3.0,3.0,1.0,-2.0,-1.0
1706292152.5582924,-2.0,-3.0,-13.0,-12.0,-3.0,-3.0,1.0,-3.0
1706292152.5582924,8.0,6.0,39.0,10.0,1.0,6.0,2.0,33.0
1706292152.5582924,5.0,-22.0,-50.0,-7.0,3.0,0.0,11.0,-6.0
1706292152.5582924,-12.0,6.0,-17.0,1.0,-3.0,-4.0,0.0,-8.0
1706292152.5582924,1.0,-7.0,-37.0,-18.0,-9.0,-10.0,-11.0,3.0
1706292152.5582924,1.0,6.0,4.0,4.0,0.0,6.0,3.0,-7.0
1706292152.5785692,-5.0,-8.0,33.0,9.0,3.0,-6.0,7.0,9.0
1706292152.5785692,4.0,-4.0,-1.0,-3.0,-3.0,1.0,-4.0,0.0
1706292152.5785692,-12.0,-11.0,-23.0,-6.0,1.0,-5.0,8.0,-1.0
1706292152.5785692,2.0,9.0,32.0,5.0,-6.0,7.0,-5.0,-5.0
1706292152.598523,-4.0,-6.0,-13.0,1.0,2.0,-6.0,2.0,-2.0
1706292152.598523,-5.0,2.0,14.0,-5.0,0.0,4.0,-1.0,-4.0
1706292152.598523,8.0,8.0,21.0,-1.0,-3.0,-5.0,0.0,0.0
1706292152.598523,4.0,-10.0,-43.0,1.0,2.0,0.0,-1.0,-7.0
1706292152.6282883,-1.0,14.0,28.0,-6.0,-4.0,-1.0,-3.0,-5.0
1706292152.6282883,0.0,-14.0,-12.0,-2.0,-2.0,-9.0,3.0,0.0
1706292152.6282883,-7.0,4.0,22.0,9.0,7.0,2.0,-4.0,1.0
1706292152.6282883,-5.0,-6.0,-21.0,-9.0,-6.0,-6.0,-7.0,-9.0
1706292152.6383927,6.0,12.0,50.0,-4.0,-3.0,-1.0,8.0,2.0
1706292152.6383927,-8.0,-4.0,-64.0,-3.0,4.0,5.0,0.0,3.0
1706292152.6383927,7.0,-8.0,-16.0,2.0,0.0,-4.0,-1.0,-3.0
1706292152.6383927,-7.0,-4.0,3.0,-2.0,-4.0,-1.0,-5.0,-9.0
1706292152.668289,0.0,11.0,14.0,-4.0,-6.0,-9.0,-1.0,-1.0
1706292152.668289,2.0,-1.0,32.0,-8.0,-5.0,-1.0,-1.0,-3.0
1706292152.668289,-2.0,8.0,-3.0,0.0,1.0,5.0,1.0,-1.0
1706292152.668289,-6.0,-12.0,11.0,8.0,5.0,0.0,-5.0,-6.0
1706292152.6891227,16.0,6.0,-65.0,1.0,6.0,6.0,6.0,3.0
1706292152.6891227,-11.0,-14.0,13.0,-4.0,-7.0,-8.0,-9.0,-3.0
1706292152.6891227,-39.0,-6.0,18.0,-2.0,-3.0,-5.0,-4.0,-3.0
1706292152.6891227,17.0,4.0,2.0,-4.0,1.0,-3.0,4.0,-1.0
1706292152.7042398,-5.0,-2.0,-11.0,-1.0,-7.0,-1.0,-3.0,1.0
1706292152.7042398,12.0,5.0,0.0,6.0,4.0,4.0,2.0,1.0
1706292152.7042398,11.0,3.0,12.0,0.0,-5.0,-3.0,-2.0,0.0
1706292152.7042398,7.0,1.0,12.0,1.0,-2.0,-6.0,5.0,-3.0
1706292152.7405195,-3.0,4.0,31.0,9.0,4.0,3.0,1.0,-3.0
1706292152.7405195,-36.0,-20.0,-109.0,-20.0,-9.0,0.0,1.0,-3.0
1706292152.7505126,-4.0,-16.0,20.0,-3.0,-3.0,-11.0,-3.0,-3.0
1706292152.7505126,-2.0,0.0,-15.0,-10.0,7.0,3.0,-4.0,-2.0
1706292152.7505126,5.0,-2.0,6.0,0.0,-3.0,-4.0,-2.0,-2.0
1706292152.7505126,10.0,11.0,40.0,13.0,-3.0,-4.0,-1.0,2.0
1706292152.7505126,8.0,4.0,-5.0,0.0,6.0,5.0,4.0,2.0
1706292152.7505126,-3.0,-1.0,-17.0,-5.0,9.0,11.0,-2.0,-1.0
1706292152.760965,2.0,2.0,30.0,4.0,-1.0,-8.0,-1.0,-1.0
1706292152.760965,0.0,0.0,-17.0,-2.0,1.0,3.0,0.0,2.0
1706292152.760965,5.0,-1.0,3.0,-10.0,-7.0,-3.0,-15.0,-3.0
1706292152.760965,1.0,-2.0,-18.0,-3.0,-2.0,5.0,40.0,0.0
1706292152.7809787,-16.0,-7.0,-24.0,-12.0,-4.0,-2.0,-14.0,-1.0
1706292152.7809787,1.0,3.0,33.0,17.0,5.0,-2.0,0.0,-1.0
1706292152.7809787,8.0,10.0,27.0,7.0,-2.0,0.0,-1.0,0.0
1706292152.7809787,-10.0,-5.0,-38.0,-6.0,-3.0,-4.0,-4.0,1.0
1706292152.7910123,-1.0,3.0,41.0,7.0,1.0,3.0,5.0,-1.0
1706292152.7910123,1.0,-5.0,-60.0,-23.0,-9.0,-7.0,-1.0,-2.0
1706292152.801259,11.0,3.0,20.0,1.0,0.0,5.0,1.0,-1.0
1706292152.801259,-18.0,-4.0,24.0,9.0,10.0,14.0,-6.0,0.0
1706292152.8213403,-7.0,3.0,-4.0,7.0,1.0,-3.0,4.0,0.0
1706292152.8213403,0.0,0.0,0.0,-2.0,-1.0,-3.0,-11.0,-3.0
1706292152.8213403,10.0,0.0,-2.0,-1.0,-6.0,-10.0,0.0,-2.0
1706292152.8213403,3.0,2.0,-3.0,-1.0,-6.0,4.0,-11.0,-1.0
1706292152.8410087,3.0,5.0,20.0,-1.0,-2.0,1.0,2.0,-1.0
1706292152.8410087,-6.0,-10.0,-34.0,-5.0,4.0,0.0,7.0,2.0
1706292152.8410087,5.0,0.0,5.0,6.0,12.0,10.0,3.0,2.0
1706292152.8410087,-10.0,1.0,-6.0,4.0,-1.0,-7.0,-4.0,-2.0
1706292152.8512034,10.0,-6.0,-15.0,-9.0,-6.0,-7.0,-2.0,-2.0
1706292152.8512034,-10.0,0.0,19.0,-1.0,-9.0,-2.0,-2.0,1.0
1706292152.861152,-1.0,4.0,1.0,-3.0,-2.0,0.0,7.0,-2.0
1706292152.861152,5.0,1.0,18.0,2.0,0.0,-9.0,-9.0,-1.0
1706292152.8812544,-6.0,-2.0,7.0,3.0,-5.0,2.0,3.0,-2.0
1706292152.8812544,11.0,-7.0,-60.0,-21.0,-6.0,-2.0,1.0,-2.0
1706292152.8812544,-15.0,-11.0,-19.0,-1.0,4.0,6.0,-4.0,2.0
1706292152.8812544,6.0,3.0,9.0,-2.0,-8.0,-11.0,-2.0,7.0
1706292152.9010105,-5.0,-2.0,-19.0,-5.0,0.0,1.0,-3.0,-16.0
1706292152.9010105,0.0,2.0,43.0,10.0,4.0,4.0,25.0,3.0
1706292152.9010105,6.0,4.0,22.0,4.0,-2.0,-2.0,-23.0,-1.0
1706292152.9010105,-17.0,-14.0,-67.0,-6.0,-8.0,1.0,-5.0,-5.0
1706292152.911302,10.0,2.0,1.0,-7.0,10.0,1.0,-1.0,5.0
1706292152.911302,-24.0,1.0,32.0,15.0,4.0,11.0,3.0,-3.0
1706292152.9212594,2.0,-6.0,-43.0,-14.0,-15.0,-4.0,6.0,-2.0
1706292152.9212594,3.0,13.0,106.0,16.0,-1.0,-6.0,-4.0,-2.0
1706292152.9413724,2.0,-23.0,-97.0,-30.0,-14.0,0.0,1.0,-1.0
1706292152.9413724,1.0,0.0,17.0,-8.0,10.0,3.0,-6.0,-1.0
1706292152.9413724,8.0,5.0,17.0,9.0,8.0,6.0,8.0,4.0
1706292152.9413724,-15.0,-2.0,20.0,3.0,0.0,-7.0,-8.0,-2.0
1706292152.961027,-3.0,3.0,-14.0,-2.0,-2.0,-4.0,1.0,0.0
1706292152.961027,7.0,2.0,8.0,1.0,-8.0,-5.0,-8.0,-1.0
1706292152.961027,4.0,-2.0,-20.0,-4.0,-1.0,-5.0,-6.0,-3.0
1706292152.961027,7.0,4.0,16.0,3.0,4.0,0.0,10.0,0.0
1706292152.9813814,-4.0,0.0,-12.0,3.0,-1.0,8.0,-3.0,-1.0
1706292152.9813814,1.0,-5.0,-16.0,-7.0,-8.0,-24.0,-1.0,4.0
1706292152.9813814,-2.0,6.0,13.0,5.0,8.0,13.0,-4.0,-3.0
1706292152.9813814,3.0,-4.0,-18.0,-6.0,-3.0,-4.0,-7.0,-2.0
1706292153.0009758,-5.0,-10.0,12.0,6.0,7.0,16.0,8.0,-1.0
1706292153.0009758,-15.0,3.0,20.0,-1.0,-7.0,-3.0,-1.0,-6.0
1706292153.0009758,-6.0,1.0,3.0,10.0,-1.0,-7.0,1.0,-2.0
1706292153.0009758,7.0,0.0,-29.0,-17.0,-5.0,-3.0,-7.0,1.0
1706292153.0211792,1.0,0.0,22.0,6.0,3.0,-11.0,-8.0,2.0
1706292153.0211792,2.0,-11.0,-56.0,-6.0,-2.0,14.0,3.0,1.0
1706292153.0211792,-4.0,3.0,9.0,4.0,0.0,-9.0,-1.0,-3.0
1706292153.0211792,0.0,-3.0,-6.0,-5.0,-4.0,-4.0,-3.0,-3.0
1706292153.0409765,-3.0,7.0,55.0,9.0,1.0,11.0,6.0,1.0
1706292153.0409765,0.0,-9.0,-59.0,-9.0,-5.0,-2.0,1.0,0.0
1706292153.0409765,-2.0,-5.0,1.0,-5.0,0.0,-3.0,-1.0,1.0
1706292153.0409765,7.0,0.0,4.0,5.0,5.0,8.0,0.0,-1.0
1706292153.0613286,-28.0,-6.0,10.0,-6.0,-4.0,-14.0,-1.0,-2.0
1706292153.0613286,10.0,6.0,-9.0,6.0,1.0,6.0,-10.0,-2.0
1706292153.0613286,12.0,-1.0,0.0,-6.0,-5.0,8.0,5.0,1.0
1706292153.0613286,-15.0,3.0,-1.0,-1.0,0.0,-11.0,0.0,0.0
1706292153.0813282,-3.0,-9.0,6.0,1.0,0.0,-10.0,25.0,0.0
1706292153.0813282,7.0,9.0,42.0,7.0,4.0,1.0,10.0,-2.0
1706292153.0813282,-5.0,-4.0,-16.0,-3.0,-2.0,8.0,-14.0,-4.0
1706292153.0813282,6.0,0.0,-4.0,3.0,5.0,-4.0,-8.0,0.0
1706292153.1010144,13.0,6.0,-17.0,-6.0,-8.0,-2.0,-5.0,2.0
1706292153.1010144,-3.0,3.0,35.0,-1.0,-8.0,-5.0,2.0,-2.0
1706292153.1010144,-8.0,-5.0,-10.0,5.0,4.0,1.0,22.0,2.0
1706292153.1010144,-6.0,-8.0,-7.0,3.0,0.0,-4.0,5.0,-2.0
1706292153.121293,-6.0,-1.0,-19.0,1.0,4.0,-6.0,-38.0,-1.0
1706292153.121293,10.0,2.0,39.0,0.0,-2.0,4.0,24.0,3.0
1706292153.121293,-5.0,-1.0,-8.0,-13.0,-22.0,-9.0,-11.0,-9.0
1706292153.121293,0.0,-4.0,6.0,23.0,30.0,19.0,0.0,1.0
1706292153.14139,14.0,3.0,-10.0,-2.0,-1.0,-5.0,-7.0,1.0
1706292153.14139,-18.0,8.0,50.0,20.0,0.0,-2.0,-16.0,1.0
1706292153.14139,-6.0,-6.0,-57.0,-27.0,-6.0,-8.0,-1.0,2.0
1706292153.14139,-2.0,-5.0,1.0,-8.0,-19.0,4.0,2.0,0.0
1706292153.181753,6.0,1.0,-28.0,-9.0,1.0,8.0,-2.0,-3.0
1706292153.181753,8.0,0.0,-12.0,3.0,11.0,1.0,-8.0,0.0
1706292153.181753,-16.0,0.0,37.0,7.0,1.0,-3.0,8.0,1.0
1706292153.181753,-6.0,-6.0,-26.0,-10.0,-10.0,0.0,-5.0,-5.0
1706292153.181753,-3.0,0.0,33.0,10.0,-1.0,5.0,30.0,0.0
1706292153.181753,3.0,5.0,0.0,-2.0,0.0,4.0,-28.0,-3.0
1706292153.181753,17.0,-3.0,-7.0,2.0,8.0,-11.0,4.0,1.0
1706292153.181753,-27.0,1.0,-2.0,-9.0,-7.0,-6.0,-8.0,-2.0
1706292153.2020407,1.0,-1.0,6.0,0.0,-1.0,-2.0,3.0,0.0
1706292153.2020407,-5.0,-6.0,-9.0,-4.0,0.0,-7.0,-19.0,-5.0
1706292153.212052,12.0,1.0,0.0,-2.0,-4.0,0.0,28.0,0.0
1706292153.212052,4.0,3.0,15.0,3.0,1.0,0.0,0.0,1.0
1706292153.242652,-5.0,-4.0,-2.0,0.0,0.0,-1.0,-1.0,-4.0
1706292153.242652,7.0,-2.0,-13.0,-10.0,3.0,1.0,-3.0,-1.0
1706292153.242652,-1.0,6.0,45.0,19.0,3.0,3.0,-19.0,-1.0
1706292153.242652,4.0,-6.0,-61.0,-20.0,-10.0,-6.0,1.0,-1.0
1706292153.242652,-8.0,1.0,22.0,5.0,-3.0,-4.0,-9.0,-2.0
1706292153.242652,4.0,-1.0,-7.0,-5.0,0.0,-4.0,1.0,-2.0
1706292153.242652,-10.0,-2.0,10.0,5.0,5.0,10.0,1.0,1.0
1706292153.242652,4.0,-5.0,-45.0,-16.0,-4.0,-11.0,3.0,-2.0
1706292153.2733536,6.0,2.0,-5.0,4.0,-1.0,-12.0,-5.0,0.0
1706292153.2733536,-3.0,-5.0,25.0,-5.0,-3.0,2.0,2.0,0.0
1706292153.2733536,-2.0,1.0,22.0,2.0,-7.0,-6.0,-1.0,0.0
1706292153.2733536,10.0,3.0,8.0,-4.0,16.0,15.0,-3.0,-1.0
1706292153.28378,-3.0,3.0,-4.0,-2.0,1.0,5.0,-1.0,-1.0
1706292153.28378,-7.0,-6.0,6.0,18.0,2.0,-6.0,4.0,-2.0
1706292153.28378,6.0,4.0,-17.0,1.0,-8.0,-13.0,-11.0,-1.0
1706292153.28378,-11.0,-8.0,15.0,6.0,-5.0,-1.0,0.0,-1.0
1706292153.294175,4.0,-3.0,-12.0,-10.0,-1.0,6.0,3.0,2.0
1706292153.294175,1.0,0.0,3.0,-8.0,-4.0,-5.0,1.0,-1.0
1706292153.294175,-11.0,-5.0,-18.0,-7.0,-4.0,-8.0,-5.0,-1.0
1706292153.294175,7.0,-2.0,18.0,2.0,-6.0,-2.0,2.0,-2.0
1706292153.3237915,1.0,-1.0,-9.0,-5.0,0.0,1.0,0.0,0.0
1706292153.3237915,-10.0,-1.0,-10.0,-4.0,-2.0,-2.0,0.0,-1.0
1706292153.3237915,6.0,2.0,-1.0,-2.0,6.0,2.0,-3.0,0.0
1706292153.3237915,1.0,1.0,12.0,1.0,-4.0,2.0,1.0,1.0
1706292153.3441916,-1.0,-3.0,-11.0,-1.0,3.0,-2.0,1.0,-2.0
1706292153.3441916,8.0,0.0,-6.0,2.0,3.0,1.0,0.0,-2.0
1706292153.3441916,-6.0,0.0,15.0,-6.0,-3.0,-6.0,0.0,-2.0
1706292153.3441916,3.0,7.0,35.0,4.0,-4.0,-5.0,-4.0,-2.0
1706292153.3541412,-7.0,-6.0,-22.0,-5.0,-1.0,7.0,-8.0,-2.0
1706292153.3541412,1.0,-6.0,-60.0,-13.0,-1.0,3.0,5.0,1.0
1706292153.3541412,-6.0,5.0,1.0,2.0,0.0,5.0,-3.0,-2.0
1706292153.3541412,6.0,-3.0,10.0,4.0,2.0,-4.0,2.0,1.0
1706292153.39379,7.0,6.0,0.0,5.0,2.0,0.0,-3.0,-1.0
1706292153.39379,-10.0,-4.0,6.0,9.0,-5.0,-7.0,1.0,-1.0
1706292153.39379,-8.0,-3.0,3.0,-20.0,5.0,2.0,-5.0,-2.0
1706292153.39379,0.0,6.0,-13.0,2.0,1.0,-2.0,1.0,-1.0
1706292153.404097,3.0,0.0,5.0,-3.0,-6.0,-16.0,-2.0,-1.0
1706292153.404097,-2.0,-2.0,2.0,-1.0,1.0,16.0,-3.0,-3.0
1706292153.404097,-2.0,-5.0,-9.0,9.0,8.0,0.0,-4.0,1.0
1706292153.404097,2.0,-2.0,7.0,0.0,-2.0,3.0,2.0,-1.0
1706292153.4140995,7.0,-1.0,-10.0,-4.0,-2.0,-11.0,-3.0,-1.0
1706292153.4140995,-24.0,-5.0,14.0,-3.0,-5.0,-1.0,2.0,-2.0
1706292153.4241378,7.0,-2.0,1.0,1.0,-9.0,-1.0,-6.0,-2.0
1706292153.4241378,0.0,-3.0,-7.0,-1.0,0.0,-14.0,-6.0,-1.0
1706292153.4537892,-5.0,-5.0,0.0,-11.0,-2.0,1.0,-3.0,-2.0
1706292153.4537892,4.0,-1.0,11.0,9.0,7.0,0.0,1.0,0.0
1706292153.4537892,2.0,3.0,39.0,9.0,2.0,1.0,2.0,1.0
1706292153.4537892,4.0,3.0,-32.0,-6.0,6.0,2.0,-1.0,1.0
1706292153.4640532,-5.0,-6.0,-15.0,0.0,-4.0,-1.0,-3.0,-3.0
1706292153.4640532,11.0,3.0,30.0,-3.0,-7.0,-6.0,1.0,2.0
1706292153.4640532,-18.0,-12.0,-19.0,-6.0,-3.0,-4.0,1.0,-2.0
1706292153.4640532,3.0,9.0,-31.0,-7.0,-1.0,0.0,0.0,-2.0
1706292153.4740076,-7.0,-19.0,42.0,6.0,-5.0,-3.0,-2.0,-2.0
1706292153.4740076,-2.0,-6.0,-35.0,-12.0,-2.0,2.0,-3.0,-2.0
1706292153.5137887,13.0,4.0,8.0,11.0,5.0,-1.0,1.0,1.0
1706292153.5137887,3.0,1.0,12.0,-2.0,-7.0,-4.0,-1.0,-3.0
1706292153.5137887,-10.0,0.0,-19.0,-7.0,0.0,-5.0,0.0,0.0
1706292153.5137887,0.0,3.0,11.0,3.0,-4.0,-7.0,-5.0,-4.0
1706292153.5137887,0.0,-12.0,-18.0,-5.0,1.0,1.0,0.0,-1.0
1706292153.5137887,-5.0,-5.0,9.0,2.0,-4.0,2.0,-1.0,1.0
1706292153.5240746,0.0,4.0,-12.0,-4.0,2.0,3.0,-5.0,-1.0
1706292153.5240746,8.0,2.0,18.0,2.0,-5.0,-2.0,2.0,-1.0
1706292153.5240746,-2.0,2.0,-11.0,-7.0,-4.0,-8.0,0.0,-1.0
1706292153.5240746,-3.0,-2.0,14.0,4.0,-1.0,0.0,0.0,-1.0
1706292153.534056,4.0,8.0,13.0,8.0,3.0,-17.0,-2.0,-1.0
1706292153.534056,-5.0,-1.0,16.0,3.0,0.0,-5.0,-4.0,0.0
1706292153.5437977,-7.0,0.0,4.0,-13.0,1.0,2.0,1.0,-2.0
1706292153.5437977,0.0,-6.0,-8.0,-3.0,-1.0,-1.0,-2.0,1.0
1706292153.5837903,4.0,6.0,54.0,12.0,-3.0,-3.0,1.0,0.0
1706292153.5837903,10.0,0.0,-45.0,-14.0,3.0,2.0,1.0,1.0
1706292153.5837903,-2.0,-1.0,1.0,13.0,3.0,0.0,-2.0,-3.0
1706292153.5837903,-25.0,-19.0,7.0,-4.0,-7.0,-7.0,-8.0,-7.0
1706292153.5837903,-2.0,10.0,16.0,2.0,3.0,8.0,4.0,3.0
1706292153.5837903,13.0,-1.0,-25.0,0.0,-3.0,-3.0,-4.0,-2.0
1706292153.5837903,10.0,1.0,13.0,0.0,-1.0,5.0,-2.0,1.0
1706292153.5837903,2.0,-7.0,-67.0,-13.0,0.0,6.0,11.0,6.0
1706292153.5941813,7.0,-3.0,-18.0,-5.0,-4.0,1.0,5.0,-5.0
1706292153.5941813,-38.0,-9.0,10.0,0.0,-4.0,-7.0,-21.0,-7.0
1706292153.603792,3.0,4.0,-2.0,-3.0,-6.0,-14.0,-1.0,-1.0
1706292153.603792,9.0,2.0,31.0,11.0,0.0,-2.0,-13.0,-4.0
1706292153.62379,-10.0,-1.0,-29.0,-14.0,3.0,5.0,7.0,3.0
1706292153.62379,4.0,4.0,11.0,13.0,8.0,2.0,7.0,1.0
1706292153.62379,-8.0,-6.0,0.0,-9.0,-1.0,-3.0,-10.0,-3.0
1706292153.62379,-1.0,4.0,13.0,4.0,0.0,-16.0,4.0,2.0
1706292153.6441946,10.0,16.0,-8.0,8.0,-4.0,1.0,-3.0,-1.0
1706292153.6441946,-1.0,-39.0,20.0,-13.0,-4.0,0.0,1.0,-2.0
1706292153.6441946,-5.0,25.0,-4.0,-5.0,-1.0,3.0,-1.0,0.0
1706292153.6441946,1.0,13.0,-5.0,-4.0,-7.0,0.0,1.0,-5.0
1706292153.6541634,-16.0,-46.0,2.0,-1.0,-4.0,-1.0,-6.0,-4.0
1706292153.6541634,5.0,10.0,24.0,15.0,7.0,0.0,-3.0,2.0
1706292153.6737902,-4.0,-25.0,-49.0,-13.0,-2.0,9.0,4.0,-3.0
1706292153.6737902,0.0,6.0,1.0,-9.0,2.0,5.0,1.0,-1.0
1706292153.6839786,-1.0,5.0,0.0,2.0,1.0,4.0,-2.0,-5.0
1706292153.6839786,2.0,14.0,47.0,6.0,-3.0,-1.0,2.0,11.0
1706292153.6839786,1.0,-8.0,-4.0,-7.0,-6.0,-3.0,0.0,9.0
1706292153.6839786,-2.0,1.0,3.0,2.0,-1.0,-8.0,-16.0,-9.0
1706292153.704131,-8.0,-4.0,7.0,-2.0,0.0,11.0,11.0,-7.0
1706292153.704131,6.0,2.0,-8.0,-5.0,-1.0,-2.0,3.0,-4.0
1706292153.704131,4.0,9.0,7.0,7.0,2.0,5.0,1.0,-3.0
1706292153.704131,-13.0,-15.0,-10.0,1.0,3.0,-8.0,-5.0,5.0
1706292153.7337909,-4.0,5.0,19.0,3.0,1.0,7.0,-3.0,4.0
1706292153.7337909,-1.0,3.0,-8.0,-11.0,-6.0,-8.0,-8.0,-6.0
1706292153.7337909,6.0,-5.0,4.0,4.0,-4.0,-1.0,1.0,4.0
1706292153.7337909,-4.0,4.0,-17.0,-6.0,-2.0,3.0,7.0,-3.0
1706292153.744922,-1.0,-7.0,-14.0,-2.0,-4.0,2.0,-6.0,-5.0
1706292153.744922,-7.0,4.0,-5.0,-1.0,-2.0,-8.0,-1.0,-1.0
1706292153.7461913,-6.0,-12.0,-10.0,5.0,9.0,0.0,-2.0,-3.0
1706292153.7461913,12.0,0.0,19.0,-3.0,-5.0,0.0,2.0,0.0
1706292153.7680063,3.0,16.0,12.0,-4.0,-6.0,-12.0,-3.0,1.0
1706292153.7680063,4.0,-2.0,-23.0,16.0,11.0,7.0,2.0,0.0
1706292153.7690945,0.0,-5.0,-9.0,-13.0,0.0,-3.0,1.0,-3.0
1706292153.7690945,-6.0,1.0,7.0,-1.0,-2.0,7.0,1.0,-1.0
1706292153.7802997,-2.0,4.0,23.0,5.0,7.0,-1.0,-2.0,3.0
1706292153.7802997,1.0,-5.0,-21.0,-7.0,-8.0,0.0,0.0,-2.0
1706292153.7903073,-2.0,0.0,18.0,4.0,-4.0,-4.0,-2.0,-2.0
1706292153.7903073,16.0,5.0,14.0,2.0,0.0,8.0,1.0,-2.0
1706292153.8005586,-18.0,6.0,-6.0,-3.0,-2.0,-6.0,-2.0,1.0
1706292153.8005586,0.0,-11.0,-1.0,-1.0,1.0,-2.0,-1.0,-2.0
1706292153.8005586,8.0,3.0,0.0,2.0,-2.0,-1.0,-2.0,-7.0
1706292153.8005586,3.0,-1.0,16.0,-2.0,-4.0,4.0,3.0,12.0
1706292153.8206449,9.0,1.0,5.0,-6.0,-4.0,-9.0,-4.0,-9.0
1706292153.8206449,-1.0,7.0,-11.0,-5.0,2.0,6.0,-4.0,1.0
1706292153.8206449,-8.0,-2.0,-5.0,2.0,-1.0,16.0,4.0,4.0
1706292153.8206449,4.0,3.0,35.0,12.0,6.0,-9.0,-3.0,-8.0
1706292153.8603005,6.0,-14.0,-71.0,-8.0,2.0,0.0,-1.0,7.0
1706292153.8603005,-8.0,11.0,26.0,-2.0,1.0,-5.0,6.0,6.0
1706292153.8603005,-1.0,-19.0,10.0,1.0,-9.0,0.0,-4.0,-6.0
1706292153.8603005,-4.0,3.0,39.0,8.0,3.0,1.0,-6.0,2.0
1706292153.8603005,3.0,-11.0,-31.0,-8.0,3.0,2.0,-2.0,0.0
1706292153.8603005,-6.0,-1.0,22.0,8.0,4.0,-3.0,2.0,-5.0
1706292153.8603005,2.0,5.0,-1.0,9.0,2.0,-5.0,2.0,0.0
1706292153.8603005,-1.0,-7.0,-21.0,-6.0,-5.0,-2.0,-1.0,-4.0
1706292153.8803034,-4.0,0.0,56.0,8.0,-8.0,-4.0,-4.0,-3.0
1706292153.8803034,4.0,-6.0,-67.0,-22.0,-3.0,-2.0,-2.0,-7.0
1706292153.89033,3.0,7.0,22.0,-4.0,2.0,-3.0,-2.0,3.0
1706292153.89033,-19.0,-9.0,-13.0,2.0,0.0,-1.0,-2.0,-2.0
1706292153.9103549,8.0,3.0,17.0,7.0,0.0,0.0,1.0,-3.0
1706292153.9103549,10.0,2.0,-10.0,-12.0,-11.0,0.0,12.0,4.0
1706292153.9103549,-13.0,0.0,-6.0,0.0,1.0,3.0,-12.0,-4.0
1706292153.9103549,7.0,7.0,32.0,6.0,4.0,4.0,-2.0,-6.0
1706292153.9205055,-9.0,-9.0,-87.0,-8.0,-4.0,-19.0,27.0,8.0
1706292153.9205055,-10.0,-5.0,16.0,-4.0,-5.0,4.0,-28.0,-28.0
1706292153.9205055,4.0,2.0,-20.0,-9.0,-7.0,8.0,-6.0,0.0
1706292153.9205055,0.0,-2.0,11.0,0.0,-2.0,-11.0,6.0,7.0
1706292153.9403028,1.0,6.0,5.0,3.0,3.0,7.0,-10.0,-18.0
1706292153.9403028,4.0,2.0,12.0,3.0,-2.0,-4.0,20.0,6.0
1706292153.9403028,-7.0,-1.0,39.0,4.0,1.0,2.0,6.0,-1.0
1706292153.9403028,-6.0,-17.0,-53.0,-13.0,-4.0,5.0,-8.0,-6.0
1706292153.9703588,1.0,3.0,5.0,-8.0,-5.0,1.0,-8.0,3.0
1706292153.9703588,0.0,-2.0,-40.0,-1.0,-1.0,-3.0,-3.0,3.0
1706292153.9703588,-2.0,-1.0,11.0,-4.0,-3.0,-8.0,-15.0,-8.0
1706292153.9703588,-6.0,4.0,-17.0,-8.0,-1.0,1.0,19.0,2.0
1706292153.9805117,7.0,-7.0,18.0,-1.0,-9.0,-4.0,-6.0,0.0
1706292153.9805117,-9.0,9.0,-9.0,-3.0,-4.0,6.0,-7.0,-1.0
1706292153.9805117,6.0,2.0,12.0,13.0,8.0,-11.0,21.0,3.0
1706292153.9805117,-16.0,-5.0,-22.0,2.0,8.0,8.0,-11.0,-3.0
1706292154.0003047,5.0,-3.0,-5.0,-15.0,-8.0,-10.0,26.0,-1.0
1706292154.0003047,-1.0,1.0,45.0,10.0,-6.0,0.0,-67.0,-8.0
1706292154.0103285,-1.0,-2.0,-16.0,-11.0,-10.0,-24.0,27.0,3.0
1706292154.0103285,-1.0,8.0,45.0,7.0,4.0,-6.0,-18.0,4.0
1706292154.0303843,-8.0,-10.0,-50.0,-2.0,-2.0,24.0,28.0,-7.0
1706292154.0303843,5.0,-1.0,-11.0,-9.0,-4.0,-30.0,13.0,4.0
1706292154.0303843,-5.0,-3.0,20.0,12.0,1.0,-2.0,-12.0,1.0
1706292154.0303843,14.0,0.0,7.0,-11.0,-3.0,3.0,-6.0,-3.0
1706292154.040718,-12.0,-3.0,6.0,8.0,8.0,-2.0,-25.0,4.0
1706292154.040718,3.0,-2.0,4.0,5.0,6.0,7.0,11.0,2.0
1706292154.0506516,2.0,-4.0,-34.0,-13.0,-7.0,2.0,-7.0,-2.0
1706292154.0506516,-14.0,6.0,28.0,9.0,0.0,3.0,3.0,0.0
1706292154.0702994,32.0,22.0,1.0,-3.0,-1.0,-7.0,-16.0,1.0
1706292154.0702994,-8.0,-7.0,-1.0,4.0,7.0,9.0,19.0,5.0
1706292154.0702994,-10.0,1.0,7.0,-2.0,1.0,5.0,-3.0,-2.0
1706292154.0702994,13.0,-2.0,-6.0,5.0,-3.0,-11.0,3.0,-2.0
1706292154.090307,-3.0,-1.0,10.0,0.0,0.0,9.0,-5.0,1.0
1706292154.090307,-10.0,-4.0,39.0,10.0,2.0,9.0,12.0,0.0
1706292154.090307,5.0,-4.0,-62.0,-13.0,-3.0,-7.0,-15.0,7.0
1706292154.090307,-3.0,-10.0,-17.0,-3.0,-5.0,-2.0,2.0,-15.0
1706292154.1103013,-6.0,-1.0,40.0,-3.0,-2.0,-4.0,10.0,1.0
1706292154.1103013,9.0,3.0,5.0,-2.0,-2.0,-1.0,-18.0,-6.0
1706292154.1103013,-2.0,5.0,10.0,9.0,2.0,8.0,4.0,19.0
1706292154.1103013,1.0,-7.0,-8.0,-7.0,-9.0,-8.0,-3.0,-13.0
1706292154.1206808,-4.0,1.0,53.0,14.0,7.0,4.0,-2.0,-8.0
1706292154.1206808,0.0,-2.0,-44.0,-20.0,-5.0,8.0,7.0,-1.0
1706292154.1206808,3.0,8.0,65.0,5.0,-1.0,-12.0,-12.0,-10.0
1706292154.1206808,0.0,-8.0,-117.0,-23.0,-4.0,7.0,9.0,9.0
1706292154.1503108,-9.0,-4.0,19.0,-1.0,-8.0,-7.0,-8.0,-1.0
1706292154.1503108,5.0,-2.0,33.0,20.0,9.0,3.0,4.0,3.0
1706292154.1503108,-10.0,-6.0,-67.0,-11.0,-5.0,-8.0,-26.0,-8.0
1706292154.1503108,6.0,0.0,18.0,5.0,2.0,1.0,38.0,4.0
1706292154.1703007,1.0,-4.0,-32.0,-2.0,2.0,33.0,-16.0,4.0
1706292154.1703007,10.0,9.0,5.0,-4.0,-2.0,-18.0,13.0,5.0
1706292154.1703007,-24.0,-7.0,16.0,3.0,3.0,6.0,-11.0,-6.0
1706292154.1703007,-9.0,-5.0,-13.0,-3.0,-6.0,-18.0,-7.0,-2.0
1706292154.1806805,3.0,-2.0,-21.0,-5.0,-3.0,-7.0,-7.0,-3.0
1706292154.1806805,0.0,4.0,29.0,4.0,-2.0,1.0,3.0,1.0
1706292154.1906345,18.0,17.0,47.0,5.0,0.0,5.0,3.0,-2.0
1706292154.1906345,-1.0,-10.0,23.0,-5.0,-6.0,2.0,1.0,-2.0
1706292154.2103562,-10.0,-29.0,-45.0,-7.0,1.0,-6.0,-34.0,-1.0
1706292154.2103562,8.0,8.0,14.0,6.0,7.0,4.0,3.0,-3.0
1706292154.2103562,-15.0,-15.0,-9.0,-6.0,-3.0,-3.0,5.0,-3.0
1706292154.2103562,0.0,15.0,12.0,3.0,-1.0,3.0,-12.0,-2.0
1706292154.2303007,6.0,2.0,24.0,8.0,4.0,-6.0,12.0,5.0
1706292154.2303007,9.0,0.0,0.0,3.0,1.0,1.0,-1.0,-5.0
1706292154.2303007,-14.0,-26.0,-57.0,-15.0,-6.0,3.0,4.0,-5.0
1706292154.2303007,-10.0,2.0,29.0,3.0,0.0,1.0,-3.0,3.0
1706292154.2403016,8.0,9.0,0.0,3.0,-3.0,-2.0,3.0,-4.0
1706292154.2403016,-10.0,-3.0,-10.0,-9.0,-9.0,-2.0,1.0,1.0
1706292154.2403016,5.0,0.0,5.0,5.0,8.0,-3.0,6.0,-1.0
1706292154.2403016,4.0,4.0,-17.0,-4.0,1.0,-9.0,-17.0,-1.0
1706292154.270355,-3.0,8.0,17.0,14.0,13.0,17.0,20.0,0.0
1706292154.270355,-4.0,-9.0,-14.0,-8.0,-9.0,10.0,-3.0,1.0
1706292154.270355,11.0,5.0,-35.0,-6.0,-8.0,-13.0,2.0,-2.0
1706292154.270355,0.0,-3.0,26.0,2.0,0.0,1.0,3.0,1.0
1706292154.28523,-4.0,-3.0,-14.0,-11.0,-5.0,-10.0,-36.0,-3.0
1706292154.28523,4.0,-4.0,26.0,10.0,0.0,-1.0,3.0,0.0
1706292154.2914677,2.0,4.0,42.0,2.0,-3.0,3.0,4.0,-3.0
1706292154.2914677,-7.0,-14.0,-80.0,-19.0,-1.0,-3.0,-18.0,-3.0
1706292154.3023179,-3.0,3.0,50.0,2.0,-2.0,-4.0,22.0,0.0
1706292154.3023179,1.0,5.0,-30.0,-6.0,-5.0,-7.0,-1.0,2.0
1706292154.3023179,-8.0,-6.0,21.0,-5.0,-1.0,-5.0,11.0,-8.0
1706292154.3023179,3.0,-2.0,1.0,3.0,-2.0,4.0,-27.0,3.0
1706292154.33232,-5.0,-6.0,-35.0,-5.0,-3.0,-7.0,0.0,-2.0
1706292154.33232,-9.0,-6.0,14.0,4.0,3.0,-3.0,-4.0,-3.0
1706292154.33232,16.0,13.0,-10.0,8.0,5.0,-1.0,10.0,3.0
1706292154.33232,15.0,-10.0,10.0,5.0,-1.0,11.0,11.0,0.0
1706292154.3423538,-9.0,16.0,-4.0,-4.0,-6.0,-4.0,-7.0,-3.0
1706292154.3423538,-15.0,-17.0,-12.0,-5.0,0.0,-4.0,2.0,-5.0
1706292154.352323,6.0,1.0,-3.0,-11.0,0.0,5.0,-3.0,0.0
1706292154.352323,-18.0,-2.0,-16.0,-2.0,-4.0,-10.0,-1.0,-3.0
1706292154.3623226,-6.0,-11.0,3.0,-4.0,-10.0,4.0,-1.0,-1.0
1706292154.3623226,0.0,8.0,-30.0,1.0,12.0,2.0,-1.0,0.0
1706292154.3623226,0.0,-3.0,-8.0,3.0,11.0,9.0,-2.0,2.0
1706292154.3623226,7.0,7.0,29.0,8.0,0.0,-3.0,3.0,-3.0
1706292154.4123173,-1.0,3.0,8.0,-4.0,-2.0,-9.0,22.0,0.0
1706292154.4123173,2.0,-4.0,-11.0,-9.0,-10.0,1.0,-30.0,-5.0
1706292154.4123173,-12.0,-2.0,-11.0,-5.0,-8.0,-8.0,-5.0,-1.0
1706292154.4123173,5.0,1.0,8.0,7.0,3.0,10.0,0.0,1.0
1706292154.4123173,5.0,-3.0,-5.0,-2.0,-1.0,-9.0,10.0,-2.0
1706292154.4123173,-3.0,3.0,22.0,1.0,-3.0,-1.0,5.0,0.0
1706292154.4123173,8.0,-3.0,-11.0,0.0,1.0,-1.0,-8.0,-2.0
1706292154.4123173,-7.0,0.0,10.0,-2.0,2.0,-14.0,29.0,2.0
1706292154.422511,13.0,6.0,27.0,7.0,2.0,4.0,-32.0,-1.0
1706292154.422511,-17.0,-9.0,-43.0,-14.0,-7.0,-7.0,6.0,-1.0
1706292154.422511,0.0,2.0,26.0,6.0,-7.0,-4.0,-8.0,2.0
1706292154.422511,-9.0,-10.0,-30.0,-14.0,-1.0,8.0,11.0,-2.0
1706292154.4623244,2.0,2.0,-7.0,8.0,10.0,-6.0,-13.0,-1.0
1706292154.4623244,17.0,6.0,2.0,-7.0,0.0,-3.0,13.0,1.0
1706292154.4623244,-5.0,5.0,40.0,3.0,-7.0,2.0,-12.0,-3.0
1706292154.4623244,-8.0,-12.0,-47.0,-5.0,-9.0,-10.0,-8.0,-4.0
1706292154.4623244,0.0,-2.0,-7.0,2.0,4.0,4.0,1.0,2.0
1706292154.4623244,-4.0,4.0,-13.0,-4.0,7.0,1.0,-4.0,-1.0
1706292154.4723182,1.0,1.0,24.0,7.0,4.0,10.0,9.0,0.0
1706292154.4723182,9.0,5.0,0.0,0.0,3.0,-7.0,-6.0,-1.0
1706292154.4827106,-8.0,0.0,-2.0,-8.0,-9.0,-8.0,-2.0,-3.0
1706292154.4827106,1.0,3.0,8.0,6.0,-3.0,-2.0,5.0,-1.0
1706292154.4926908,0.0,-5.0,-14.0,-2.0,0.0,11.0,0.0,-1.0
1706292154.4926908,9.0,8.0,24.0,4.0,-2.0,-9.0,-8.0,1.0
1706292154.5123203,-6.0,7.0,6.0,4.0,-1.0,13.0,6.0,-1.0
1706292154.5123203,-7.0,-19.0,-6.0,-15.0,-6.0,-4.0,-9.0,-6.0
1706292154.5123203,-13.0,-4.0,-26.0,-10.0,-3.0,-1.0,3.0,-2.0
1706292154.5123203,0.0,0.0,29.0,6.0,2.0,5.0,-5.0,-3.0
1706292154.522352,2.0,1.0,-14.0,-8.0,-1.0,1.0,4.0,1.0
1706292154.522352,-5.0,1.0,21.0,8.0,0.0,-7.0,-8.0,1.0
1706292154.5323775,14.0,-2.0,-14.0,-1.0,0.0,0.0,-3.0,-2.0
1706292154.5323775,5.0,5.0,2.0,-2.0,0.0,0.0,-7.0,-1.0
1706292154.542737,-3.0,-3.0,6.0,-1.0,-5.0,-8.0,4.0,0.0
1706292154.542737,-1.0,-5.0,4.0,2.0,0.0,4.0,4.0,-1.0
1706292154.552371,6.0,7.0,-23.0,-5.0,0.0,-9.0,2.0,-1.0
1706292154.552371,-8.0,9.0,66.0,16.0,7.0,4.0,-9.0,1.0
1706292154.562319,-13.0,-29.0,-73.0,-16.0,-3.0,-1.0,2.0,-3.0
1706292154.562319,-8.0,-5.0,15.0,1.0,-1.0,-4.0,-3.0,0.0
1706292154.5723228,0.0,0.0,-3.0,-2.0,-7.0,-8.0,-3.0,-1.0
1706292154.5723228,4.0,0.0,10.0,4.0,4.0,1.0,2.0,-1.0
1706292154.5826473,0.0,8.0,32.0,12.0,5.0,-7.0,1.0,3.0
1706292154.5826473,0.0,-6.0,-38.0,-12.0,-3.0,11.0,3.0,-1.0
1706292154.5926208,-1.0,2.0,9.0,9.0,6.0,-17.0,-9.0,-3.0
1706292154.5926208,2.0,4.0,21.0,-5.0,-4.0,-1.0,-1.0,0.0
1706292154.6025329,1.0,-6.0,-61.0,-17.0,-2.0,-16.0,-3.0,-1.0
1706292154.6025329,-3.0,-11.0,-9.0,2.0,-4.0,-13.0,-7.0,-1.0
1706292154.6025329,0.0,0.0,-17.0,1.0,1.0,9.0,8.0,0.0
1706292154.6025329,5.0,-4.0,-20.0,-5.0,-2.0,-3.0,3.0,0.0
1706292154.6323225,-19.0,8.0,29.0,5.0,-3.0,3.0,-1.0,-5.0
1706292154.6323225,6.0,11.0,6.0,2.0,0.0,-5.0,0.0,0.0
1706292154.6323225,-11.0,-8.0,-7.0,-3.0,-3.0,-2.0,-23.0,-6.0
1706292154.6323225,6.0,3.0,6.0,-1.0,-5.0,4.0,33.0,0.0
1706292154.642352,2.0,-5.0,-1.0,0.0,5.0,2.0,-29.0,-2.0
1706292154.642352,3.0,1.0,19.0,7.0,0.0,-10.0,5.0,-1.0
1706292154.6523235,0.0,-4.0,17.0,-8.0,-8.0,1.0,10.0,-2.0
1706292154.6523235,-32.0,-8.0,-7.0,-7.0,-3.0,0.0,-11.0,-1.0
1706292154.6626258,15.0,4.0,9.0,2.0,1.0,-3.0,-5.0,-1.0
1706292154.6626258,3.0,-6.0,-35.0,-3.0,-1.0,2.0,3.0,-1.0
1706292154.6626258,-1.0,4.0,24.0,8.0,-1.0,-5.0,-2.0,1.0
1706292154.6626258,4.0,-8.0,-43.0,-20.0,-3.0,-1.0,-8.0,-4.0
1706292154.6923177,-3.0,2.0,-5.0,3.0,-1.0,5.0,13.0,0.0
1706292154.6923177,-1.0,-10.0,-47.0,0.0,9.0,1.0,-11.0,-2.0
1706292154.6923177,3.0,4.0,-9.0,-3.0,-6.0,-11.0,7.0,1.0
1706292154.6923177,-3.0,-4.0,24.0,-5.0,10.0,-6.0,-12.0,-2.0
1706292154.7027254,-3.0,-2.0,2.0,-2.0,-1.0,1.0,5.0,0.0
1706292154.7027254,-3.0,-1.0,-14.0,-12.0,-10.0,-6.0,0.0,0.0
1706292154.7123759,-2.0,-2.0,0.0,0.0,-7.0,-5.0,-5.0,-1.0
1706292154.7123759,-2.0,-6.0,-7.0,5.0,-2.0,3.0,2.0,-2.0
1706292154.7223198,8.0,13.0,12.0,-1.0,0.0,0.0,-1.0,0.0
1706292154.7223198,7.0,-10.0,20.0,3.0,-6.0,-2.0,-3.0,-2.0
1706292154.7223198,-13.0,2.0,-12.0,-2.0,5.0,6.0,2.0,-1.0
1706292154.7223198,-3.0,-10.0,4.0,2.0,-4.0,-1.0,-7.0,-5.0
1706292154.7423503,1.0,-2.0,0.0,-2.0,0.0,-2.0,4.0,-1.0
1706292154.7423503,1.0,9.0,17.0,0.0,-4.0,2.0,0.0,1.0
1706292154.7423503,6.0,-5.0,0.0,1.0,5.0,9.0,2.0,-1.0
1706292154.7423503,12.0,14.0,-15.0,-1.0,1.0,0.0,5.0,3.0
1706292154.7627661,-10.0,-10.0,16.0,2.0,-4.0,3.0,-4.0,-1.0
1706292154.7627661,-2.0,0.0,8.0,-7.0,-9.0,-5.0,-2.0,-2.0
1706292154.772369,4.0,1.0,-3.0,4.0,7.0,-12.0,0.0,0.0
1706292154.772369,-19.0,-3.0,-5.0,25.0,1.0,2.0,-10.0,-5.0
1706292154.7823188,-3.0,-6.0,-23.0,7.0,-7.0,4.0,2.0,-2.0
1706292154.7823188,-4.0,6.0,11.0,-9.0,35.0,-4.0,-2.0,3.0
1706292154.7823188,1.0,-4.0,-3.0,-7.0,-1.0,1.0,2.0,-1.0
1706292154.7823188,19.0,0.0,-26.0,-22.0,-12.0,-3.0,-2.0,2.0
1706292154.810351,-9.0,-4.0,6.0,4.0,-14.0,-11.0,-3.0,-3.0
1706292154.810351,-8.0,-2.0,9.0,8.0,-6.0,9.0,0.0,-3.0
1706292154.8118727,-1.0,-4.0,-3.0,-1.0,-4.0,1.0,-2.0,-2.0
1706292154.8118727,4.0,6.0,14.0,7.0,7.0,2.0,0.0,0.0
1706292154.8236973,-1.0,-5.0,-23.0,-11.0,-3.0,-2.0,0.0,-1.0
1706292154.8236973,6.0,5.0,16.0,1.0,-5.0,-2.0,-3.0,-2.0
1706292154.8321989,-3.0,-3.0,-6.0,-4.0,2.0,6.0,2.0,1.0
1706292154.8321989,-2.0,-3.0,12.0,6.0,-1.0,-7.0,-2.0,-2.0
1706292154.8452957,0.0,-1.0,10.0,-4.0,4.0,6.0,4.0,1.0
1706292154.8452957,-7.0,0.0,8.0,6.0,0.0,8.0,2.0,-3.0
1706292154.8452957,-6.0,-1.0,3.0,1.0,-3.0,-2.0,-2.0,0.0
1706292154.8452957,14.0,1.0,14.0,-4.0,-2.0,8.0,2.0,1.0
1706292154.8657296,-15.0,2.0,-45.0,-12.0,0.0,-15.0,-3.0,-2.0
1706292154.8657296,-3.0,-4.0,12.0,3.0,-5.0,-5.0,-2.0,1.0
1706292154.8756728,-3.0,-1.0,-14.0,-2.0,-5.0,-1.0,-17.0,-1.0
1706292154.8756728,10.0,2.0,22.0,-1.0,1.0,9.0,11.0,-1.0
1706292154.8854942,2.0,0.0,11.0,-7.0,1.0,2.0,-8.0,-3.0
1706292154.8854942,-7.0,2.0,3.0,0.0,-9.0,6.0,-3.0,-4.0
1706292154.8854942,5.0,-5.0,-6.0,3.0,-3.0,-9.0,3.0,0.0
1706292154.8854942,-10.0,-1.0,5.0,-5.0,3.0,1.0,-4.0,-1.0
1706292154.905293,5.0,-4.0,20.0,9.0,4.0,9.0,1.0,-2.0
1706292154.905293,3.0,-1.0,-8.0,0.0,13.0,1.0,5.0,-1.0
1706292154.905293,0.0,2.0,-14.0,7.0,2.0,12.0,3.0,-2.0
1706292154.905293,-10.0,-7.0,-53.0,-24.0,-19.0,-21.0,-4.0,-2.0
1706292154.925623,6.0,-2.0,9.0,8.0,-1.0,7.0,5.0,-1.0
1706292154.925623,4.0,8.0,42.0,2.0,-4.0,4.0,12.0,1.0
1706292154.925623,4.0,-3.0,-42.0,-3.0,15.0,-1.0,12.0,0.0
1706292154.925623,-10.0,2.0,21.0,11.0,2.0,4.0,-38.0,-6.0
1706292154.945296,5.0,7.0,24.0,-1.0,-5.0,-6.0,0.0,1.0
1706292154.945296,-7.0,-12.0,-40.0,-21.0,-16.0,-1.0,-2.0,-1.0
1706292154.945296,2.0,1.0,28.0,4.0,-7.0,-6.0,-1.0,-1.0
1706292154.945296,-5.0,-8.0,-32.0,-5.0,2.0,-2.0,13.0,2.0
1706292154.965593,-8.0,-3.0,-6.0,-5.0,3.0,-4.0,0.0,-3.0
1706292154.965593,0.0,6.0,10.0,11.0,5.0,-2.0,-6.0,-1.0
1706292154.965593,1.0,-2.0,8.0,-8.0,-6.0,0.0,3.0,-2.0
1706292154.965593,0.0,1.0,-3.0,6.0,1.0,1.0,3.0,0.0
1706292154.985629,3.0,13.0,9.0,4.0,0.0,1.0,1.0,1.0
1706292154.985629,-6.0,-13.0,-4.0,2.0,5.0,-1.0,0.0,2.0
1706292154.985629,0.0,3.0,-6.0,-6.0,-9.0,-5.0,-6.0,-3.0
1706292154.985629,4.0,7.0,9.0,-3.0,-3.0,2.0,0.0,0.0
1706292155.0055747,-1.0,-1.0,-8.0,3.0,13.0,2.0,-1.0,0.0
1706292155.0055747,-1.0,3.0,-23.0,-5.0,1.0,-5.0,-4.0,-1.0
1706292155.0152955,-2.0,-3.0,14.0,3.0,-3.0,12.0,-4.0,-1.0
1706292155.0152955,3.0,1.0,17.0,8.0,-2.0,-6.0,0.0,-2.0
1706292155.0253284,-3.0,-2.0,46.0,2.0,-3.0,-5.0,1.0,0.0
1706292155.0253284,-11.0,-8.0,-56.0,-14.0,-2.0,-5.0,-31.0,-1.0
1706292155.0253284,-15.0,-5.0,15.0,2.0,0.0,5.0,16.0,2.0
1706292155.0253284,12.0,-2.0,-20.0,-8.0,1.0,-4.0,-2.0,-6.0
1706292155.045418,7.0,6.0,34.0,4.0,-2.0,7.0,-10.0,15.0
1706292155.045418,2.0,4.0,41.0,5.0,-8.0,-8.0,21.0,-12.0
1706292155.045418,-2.0,-10.0,-56.0,-10.0,0.0,-10.0,-17.0,-7.0
1706292155.045418,-8.0,2.0,77.0,5.0,-1.0,8.0,2.0,-1.0
1706292155.0852978,4.0,-3.0,-74.0,-8.0,0.0,-11.0,22.0,-6.0
1706292155.0852978,8.0,1.0,-21.0,-6.0,-4.0,-7.0,-33.0,0.0
1706292155.0852978,-6.0,2.0,53.0,5.0,2.0,6.0,7.0,1.0
1706292155.0852978,-10.0,-8.0,-71.0,-3.0,0.0,-3.0,-2.0,2.0
1706292155.0852978,0.0,-7.0,11.0,1.0,1.0,-2.0,12.0,-2.0
1706292155.0852978,4.0,4.0,8.0,1.0,-4.0,1.0,13.0,1.0
1706292155.0852978,-1.0,1.0,-11.0,-5.0,1.0,-8.0,-10.0,0.0
1706292155.0852978,-2.0,1.0,16.0,1.0,-2.0,8.0,9.0,-1.0
1706292155.1056664,-7.0,-5.0,-2.0,-5.0,-7.0,-5.0,-10.0,-3.0
1706292155.1056664,6.0,5.0,-4.0,7.0,8.0,4.0,5.0,-2.0
1706292155.1056664,2.0,-2.0,23.0,-2.0,0.0,3.0,-4.0,1.0
1706292155.1056664,-2.0,3.0,0.0,2.0,1.0,-3.0,-1.0,-1.0
1706292155.1256943,-12.0,-14.0,-31.0,-10.0,-7.0,-8.0,-11.0,-8.0
1706292155.1256943,5.0,3.0,41.0,7.0,0.0,0.0,8.0,5.0
1706292155.1352947,-12.0,-8.0,-26.0,-1.0,-6.0,-4.0,-2.0,-5.0
1706292155.1352947,0.0,-3.0,-73.0,-22.0,-4.0,-4.0,-31.0,9.0
1706292155.1553395,5.0,6.0,28.0,14.0,0.0,-1.0,-28.0,-25.0
1706292155.1553395,-5.0,2.0,43.0,8.0,3.0,-18.0,19.0,-10.0
1706292155.1553395,-12.0,-20.0,4.0,-21.0,-8.0,20.0,74.0,7.0
1706292155.1553395,-6.0,7.0,-38.0,-7.0,-1.0,-14.0,-10.0,-3.0
1706292155.1752937,3.0,3.0,5.0,-4.0,0.0,-4.0,-27.0,7.0
1706292155.1752937,3.0,0.0,-38.0,-1.0,-4.0,-2.0,-16.0,4.0
1706292155.1752937,-13.0,0.0,26.0,10.0,0.0,2.0,1.0,-5.0
1706292155.1752937,27.0,0.0,17.0,6.0,6.0,4.0,12.0,12.0
1706292155.1855478,-33.0,-2.0,16.0,2.0,4.0,-1.0,8.0,3.0
1706292155.1855478,-26.0,-10.0,-15.0,-3.0,-3.0,3.0,-7.0,-6.0
1706292155.1855478,19.0,8.0,-14.0,-3.0,0.0,-4.0,-15.0,8.0
1706292155.1855478,-11.0,-4.0,10.0,-4.0,-9.0,-1.0,-2.0,-6.0
1706292155.2055562,24.0,7.0,8.0,0.0,3.0,-4.0,5.0,0.0
1706292155.2055562,6.0,-2.0,-6.0,-2.0,3.0,6.0,5.0,-2.0
1706292155.2055562,-1.0,2.0,9.0,5.0,-2.0,-2.0,-1.0,0.0
1706292155.2055562,0.0,-5.0,-23.0,3.0,-2.0,-9.0,-10.0,-7.0
1706292155.2452989,11.0,4.0,29.0,-6.0,-3.0,4.0,-19.0,-3.0
1706292155.2452989,-10.0,-30.0,-67.0,-25.0,-15.0,18.0,2.0,0.0
1706292155.2452989,-12.0,22.0,26.0,7.0,7.0,-20.0,-11.0,-1.0
1706292155.2452989,-2.0,-3.0,67.0,9.0,4.0,-1.0,17.0,-5.0
1706292155.2452989,-7.0,-4.0,-31.0,-10.0,-6.0,1.0,30.0,7.0
1706292155.2452989,3.0,5.0,-5.0,1.0,2.0,5.0,-16.0,10.0
1706292155.2452989,24.0,12.0,48.0,7.0,1.0,-3.0,-20.0,-9.0
1706292155.2452989,-7.0,-10.0,-21.0,-6.0,-6.0,-5.0,16.0,-6.0
1706292155.2655485,4.0,2.0,-29.0,-5.0,-4.0,1.0,19.0,3.0
1706292155.2655485,16.0,16.0,55.0,13.0,12.0,7.0,-25.0,1.0
1706292155.2655485,-7.0,-9.0,-47.0,-3.0,-1.0,-11.0,17.0,0.0
1706292155.2655485,-23.0,0.0,17.0,-3.0,-14.0,-6.0,-10.0,1.0
1706292155.3052962,12.0,-11.0,-10.0,18.0,17.0,4.0,2.0,-5.0
1706292155.3052962,10.0,-2.0,5.0,5.0,5.0,1.0,3.0,-1.0
1706292155.3052962,-38.0,-11.0,-3.0,-2.0,7.0,6.0,-12.0,1.0
1706292155.3052962,2.0,22.0,-4.0,-9.0,2.0,5.0,-2.0,-4.0
1706292155.3052962,-6.0,-33.0,3.0,-13.0,-20.0,-22.0,-6.0,0.0
1706292155.3052962,12.0,-2.0,7.0,16.0,-6.0,-5.0,5.0,-1.0
1706292155.3052962,13.0,26.0,-9.0,14.0,20.0,7.0,-10.0,1.0
1706292155.3052962,10.0,-6.0,17.0,-2.0,0.0,1.0,7.0,-1.0
1706292155.3257449,-26.0,-21.0,-20.0,-5.0,-3.0,14.0,0.0,-4.0
1706292155.3257449,-5.0,7.0,6.0,-9.0,-1.0,-3.0,2.0,-1.0
1706292155.3257449,9.0,-7.0,9.0,-13.0,-20.0,-10.0,-6.0,-3.0
1706292155.3257449,2.0,17.0,-2.0,8.0,6.0,0.0,-2.0,0.0
1706292155.3576734,7.0,4.0,16.0,-5.0,-1.0,-2.0,-5.0,-2.0
1706292155.3576734,-7.0,1.0,6.0,3.0,-3.0,-10.0,2.0,-2.0
1706292155.3576734,9.0,3.0,7.0,-1.0,-4.0,3.0,-3.0,-1.0
1706292155.3576734,11.0,5.0,8.0,9.0,8.0,13.0,0.0,-1.0
1706292155.3681881,-19.0,1.0,-1.0,-1.0,2.0,0.0,-1.0,-2.0
1706292155.3681881,-5.0,-1.0,-34.0,-6.0,-9.0,-9.0,6.0,-3.0
1706292155.3681881,13.0,1.0,3.0,-4.0,-7.0,-8.0,-9.0,0.0
1706292155.3681881,-4.0,-14.0,7.0,14.0,11.0,-4.0,1.0,0.0
1706292155.3783934,1.0,-4.0,2.0,7.0,2.0,26.0,9.0,2.0
1706292155.3783934,-9.0,17.0,13.0,-6.0,4.0,-3.0,-2.0,-3.0
1706292155.3883233,12.0,-4.0,-18.0,-3.0,-1.0,-4.0,-2.0,0.0
1706292155.3883233,14.0,-7.0,-10.0,-3.0,0.0,4.0,-3.0,-2.0
1706292155.418182,-42.0,-2.0,-8.0,3.0,-5.0,-7.0,-5.0,-3.0
1706292155.418182,10.0,-2.0,6.0,-20.0,-6.0,0.0,1.0,-1.0
1706292155.418182,0.0,-6.0,-13.0,-11.0,-7.0,-1.0,-1.0,-3.0
1706292155.418182,-12.0,-8.0,3.0,-3.0,-9.0,-2.0,-2.0,-2.0
1706292155.4283502,24.0,29.0,5.0,6.0,5.0,-9.0,-3.0,0.0
1706292155.4283502,6.0,-19.0,5.0,3.0,2.0,3.0,3.0,1.0
1706292155.4283502,-16.0,2.0,-4.0,0.0,-2.0,-1.0,0.0,-4.0
1706292155.4283502,-3.0,-17.0,-25.0,-2.0,-2.0,-2.0,-1.0,-1.0
1706292155.438471,17.0,8.0,16.0,-6.0,-5.0,2.0,-6.0,-1.0
1706292155.438471,-19.0,2.0,10.0,4.0,-3.0,-9.0,-3.0,0.0
1706292155.4581795,8.0,-7.0,-14.0,-2.0,1.0,0.0,-6.0,1.0
1706292155.4581795,-8.0,5.0,38.0,8.0,3.0,0.0,0.0,-3.0
1706292155.4682143,3.0,-6.0,-47.0,-12.0,1.0,-11.0,-5.0,-3.0
1706292155.4682143,3.0,5.0,16.0,5.0,1.0,5.0,4.0,0.0
1706292155.4682143,6.0,2.0,6.0,-2.0,-8.0,1.0,-2.0,1.0
1706292155.4682143,-19.0,-7.0,-1.0,1.0,-2.0,-12.0,-2.0,-1.0
1706292155.4885356,-3.0,-3.0,-1.0,5.0,4.0,-7.0,-2.0,0.0
1706292155.4885356,1.0,-7.0,-12.0,-2.0,-5.0,-10.0,-6.0,-3.0
1706292155.4885356,7.0,2.0,4.0,2.0,3.0,11.0,3.0,1.0
1706292155.4885356,-3.0,-2.0,-11.0,-14.0,-7.0,-5.0,1.0,-1.0
1706292155.498497,15.0,20.0,17.0,17.0,11.0,2.0,2.0,0.0
1706292155.498497,1.0,-13.0,-36.0,-1.0,0.0,-11.0,1.0,0.0
1706292155.5181818,-4.0,3.0,5.0,5.0,5.0,3.0,-3.0,-1.0
1706292155.5181818,8.0,-20.0,-5.0,-7.0,-4.0,0.0,0.0,-1.0
1706292155.5282116,-14.0,7.0,-4.0,-17.0,-13.0,-3.0,-7.0,-6.0
1706292155.5282116,1.0,-4.0,-16.0,-7.0,-5.0,0.0,0.0,-1.0
1706292155.5282116,-21.0,9.0,13.0,2.0,1.0,-3.0,0.0,-1.0
1706292155.5282116,9.0,-3.0,-32.0,-6.0,0.0,1.0,-3.0,-1.0
1706292155.5485706,3.0,-5.0,19.0,0.0,1.0,-1.0,5.0,1.0
1706292155.5485706,7.0,9.0,10.0,2.0,-3.0,0.0,1.0,2.0
1706292155.5485706,-10.0,-13.0,-12.0,-8.0,-4.0,-2.0,-5.0,-4.0
1706292155.5485706,1.0,8.0,8.0,6.0,6.0,-3.0,-1.0,0.0
1706292155.5681803,10.0,5.0,14.0,6.0,2.0,0.0,-2.0,0.0
1706292155.5681803,-22.0,-13.0,-49.0,-13.0,-2.0,10.0,0.0,-4.0
1706292155.5681803,3.0,-6.0,5.0,0.0,0.0,-21.0,-8.0,-2.0
1706292155.5681803,-4.0,4.0,10.0,4.0,-3.0,6.0,4.0,1.0
1706292155.5884628,12.0,-7.0,-28.0,-12.0,0.0,-2.0,-5.0,0.0
1706292155.5884628,-6.0,5.0,23.0,7.0,1.0,12.0,0.0,0.0
1706292155.5884628,-1.0,-8.0,-7.0,1.0,2.0,5.0,-4.0,-2.0
1706292155.5884628,20.0,9.0,0.0,1.0,-5.0,1.0,1.0,0.0
1706292155.6084685,-43.0,-9.0,28.0,9.0,5.0,-12.0,-4.0,-2.0
1706292155.6084685,3.0,-8.0,-15.0,-13.0,-8.0,-1.0,-1.0,-4.0
1706292155.6084685,-4.0,-1.0,-1.0,-2.0,-7.0,-8.0,-4.0,-3.0
1706292155.6084685,4.0,-2.0,-7.0,-9.0,-1.0,-10.0,-1.0,0.0
1706292155.6381826,1.0,14.0,7.0,5.0,-6.0,14.0,4.0,2.0
1706292155.6381826,-5.0,-7.0,17.0,-3.0,8.0,-5.0,1.0,-1.0
1706292155.6381826,6.0,-6.0,-10.0,-2.0,0.0,-5.0,1.0,-2.0
1706292155.6381826,4.0,10.0,9.0,4.0,0.0,1.0,-1.0,2.0
1706292155.6481786,-9.0,-14.0,-28.0,-13.0,-9.0,-8.0,-2.0,-2.0
1706292155.6481786,-6.0,-7.0,14.0,13.0,0.0,2.0,0.0,-1.0
1706292155.6481786,24.0,-5.0,-47.0,-18.0,-4.0,-12.0,-1.0,2.0
1706292155.6481786,-19.0,6.0,20.0,1.0,2.0,0.0,-4.0,0.0
1706292155.6685936,-19.0,-9.0,-8.0,-5.0,-5.0,-4.0,-4.0,-7.0
1706292155.6685936,-1.0,6.0,13.0,0.0,-4.0,-8.0,-8.0,-4.0
1706292155.6685936,-5.0,-3.0,19.0,9.0,6.0,11.0,3.0,0.0
1706292155.6685936,-2.0,-2.0,-5.0,2.0,2.0,1.0,0.0,-1.0
1706292155.6881804,21.0,0.0,-6.0,-9.0,2.0,3.0,0.0,3.0
1706292155.6881804,-5.0,0.0,7.0,2.0,-1.0,-2.0,1.0,-2.0
1706292155.6881804,-2.0,2.0,3.0,-12.0,-9.0,-3.0,-2.0,-1.0
1706292155.6881804,-9.0,-6.0,-17.0,3.0,12.0,6.0,-2.0,-3.0
1706292155.7084613,12.0,0.0,0.0,1.0,0.0,-1.0,4.0,3.0
1706292155.7084613,7.0,5.0,-4.0,-7.0,-6.0,1.0,1.0,0.0
1706292155.7084613,-5.0,-1.0,0.0,1.0,2.0,6.0,-1.0,-2.0
1706292155.7084613,-19.0,-12.0,-5.0,-9.0,-13.0,-5.0,-1.0,-7.0
1706292155.7681847,8.0,2.0,-3.0,0.0,3.0,-14.0,0.0,2.0
1706292155.7681847,6.0,12.0,1.0,3.0,1.0,-4.0,-1.0,-1.0
1706292155.7681847,-12.0,-16.0,27.0,4.0,-3.0,-1.0,-3.0,-1.0
1706292155.7681847,-9.0,-4.0,-44.0,-3.0,-5.0,-8.0,0.0,-2.0
1706292155.7681847,7.0,-14.0,-1.0,-5.0,4.0,13.0,-1.0,-2.0
1706292155.7681847,-2.0,24.0,-16.0,-1.0,1.0,-3.0,-1.0,0.0
1706292155.7681847,-1.0,-13.0,-3.0,4.0,2.0,0.0,1.0,1.0
1706292155.7681847,0.0,4.0,-14.0,-2.0,0.0,-3.0,1.0,0.0
1706292155.7681847,2.0,-9.0,-16.0,-8.0,-10.0,-4.0,-4.0,-1.0
1706292155.7681847,3.0,-5.0,5.0,1.0,-3.0,-1.0,1.0,1.0
1706292155.7681847,9.0,10.0,4.0,0.0,5.0,7.0,0.0,0.0
1706292155.7681847,-12.0,-1.0,19.0,6.0,-3.0,1.0,-5.0,0.0
1706292155.7885957,15.0,5.0,12.0,6.0,4.0,-4.0,-3.0,-3.0
1706292155.7885957,-3.0,-9.0,-17.0,-6.0,-5.0,-5.0,-1.0,-2.0
1706292155.7885957,-7.0,1.0,2.0,1.0,-4.0,2.0,0.0,-2.0
1706292155.7885957,8.0,0.0,11.0,1.0,9.0,-17.0,-2.0,2.0
1706292155.8082302,-4.0,3.0,-3.0,1.0,-6.0,-7.0,-2.0,-2.0
1706292155.8082302,16.0,5.0,17.0,1.0,4.0,6.0,1.0,2.0
1706292155.8082302,-17.0,1.0,-6.0,1.0,-1.0,-1.0,-3.0,0.0
1706292155.8082302,3.0,-10.0,-3.0,-10.0,-2.0,7.0,-1.0,-1.0
1706292155.8284826,-9.0,0.0,-2.0,3.0,4.0,1.0,2.0,0.0
1706292155.8284826,6.0,-3.0,-1.0,-2.0,-5.0,-2.0,-5.0,-1.0
1706292155.8284826,9.0,3.0,0.0,-2.0,-9.0,-7.0,-1.0,1.0
1706292155.8284826,5.0,1.0,-5.0,-11.0,-7.0,6.0,1.0,-1.0
1706292155.8484514,4.0,6.0,9.0,4.0,1.0,3.0,2.0,0.0
1706292155.8484514,-14.0,-14.0,13.0,4.0,1.0,1.0,-2.0,-2.0
1706292155.8484514,-3.0,-4.0,-47.0,-9.0,3.0,-3.0,-6.0,-3.0
1706292155.8484514,-1.0,8.0,33.0,2.0,0.0,4.0,-2.0,-2.0
1706292155.8929632,-6.0,-10.0,-32.0,-9.0,-4.0,-18.0,-5.0,-3.0
1706292155.8929632,4.0,6.0,5.0,2.0,2.0,-1.0,2.0,1.0
1706292155.8929632,-3.0,-14.0,45.0,7.0,3.0,-1.0,1.0,0.0
1706292155.8929632,10.0,-7.0,-45.0,-7.0,-6.0,-4.0,-1.0,-2.0
1706292155.8929632,-20.0,2.0,-8.0,-4.0,-7.0,8.0,1.0,0.0
1706292155.8929632,3.0,-3.0,28.0,5.0,-4.0,-11.0,-4.0,-3.0
1706292155.8929632,9.0,5.0,-45.0,-5.0,8.0,14.0,3.0,-1.0
1706292155.8929632,-6.0,3.0,14.0,7.0,8.0,-1.0,2.0,0.0
1706292155.9112144,8.0,0.0,8.0,4.0,1.0,3.0,-2.0,0.0
1706292155.9112144,-13.0,-5.0,-11.0,-8.0,-8.0,-3.0,-5.0,-2.0
1706292155.9112144,6.0,1.0,1.0,1.0,-2.0,-1.0,1.0,1.0
1706292155.9112144,0.0,4.0,20.0,25.0,4.0,12.0,0.0,0.0
1706292155.931611,15.0,7.0,-4.0,-20.0,6.0,3.0,-1.0,-2.0
1706292155.931611,-8.0,-3.0,0.0,-5.0,1.0,-4.0,3.0,-1.0
1706292155.931611,-17.0,-7.0,23.0,-2.0,-9.0,-17.0,-8.0,-3.0
1706292155.931611,-1.0,-4.0,-7.0,-4.0,-5.0,-6.0,-3.0,1.0
1706292155.9415443,1.0,15.0,62.0,18.0,2.0,2.0,0.0,-2.0
1706292155.9415443,6.0,-4.0,-61.0,5.0,2.0,2.0,1.0,1.0
1706292155.951466,4.0,-5.0,17.0,-11.0,-1.0,6.0,2.0,-2.0
1706292155.951466,-18.0,13.0,44.0,8.0,-4.0,-3.0,-1.0,-4.0
1706292155.9715698,1.0,-13.0,-32.0,-11.0,-4.0,-3.0,-2.0,1.0
1706292155.9715698,-2.0,-4.0,-26.0,-5.0,1.0,-3.0,-2.0,-1.0
1706292155.9715698,-5.0,1.0,3.0,5.0,0.0,1.0,-1.0,-4.0
1706292155.9715698,-7.0,-13.0,-3.0,-4.0,3.0,1.0,0.0,3.0
1706292156.0012128,2.0,9.0,16.0,0.0,-8.0,0.0,-3.0,-12.0
1706292156.0012128,3.0,-2.0,-3.0,-9.0,-5.0,-1.0,-4.0,2.0
1706292156.0012128,2.0,0.0,-45.0,7.0,4.0,-6.0,0.0,2.0
1706292156.0012128,8.0,5.0,43.0,-12.0,-5.0,5.0,-19.0,-19.0
1706292156.021214,-6.0,-1.0,36.0,12.0,2.0,-3.0,0.0,-1.0
1706292156.021214,-3.0,-16.0,-37.0,-11.0,-1.0,-5.0,-3.0,1.0
1706292156.021214,-4.0,-13.0,-42.0,-12.0,-8.0,6.0,2.0,-6.0
1706292156.021214,-11.0,-2.0,7.0,8.0,4.0,-14.0,6.0,5.0
1706292156.0312462,0.0,4.0,-8.0,4.0,2.0,-2.0,2.0,8.0
1706292156.0312462,-1.0,8.0,29.0,5.0,5.0,3.0,-3.0,-5.0
1706292156.0312462,10.0,9.0,57.0,14.0,2.0,6.0,6.0,18.0
1706292156.0312462,-4.0,-12.0,-53.0,-24.0,-8.0,-15.0,-8.0,-8.0
1706292156.0516353,3.0,-8.0,-57.0,-9.0,-8.0,4.0,-7.0,2.0
1706292156.0516353,0.0,32.0,72.0,19.0,7.0,2.0,-12.0,13.0
1706292156.0516353,-18.0,-34.0,-51.0,-13.0,0.0,0.0,2.0,-21.0
1706292156.0516353,19.0,4.0,78.0,17.0,2.0,-2.0,14.0,14.0
1706292156.0712152,-17.0,-1.0,20.0,-4.0,-4.0,-9.0,-1.0,6.0
1706292156.0712152,10.0,-8.0,-61.0,-20.0,-5.0,-5.0,-22.0,-47.0
1706292156.0712152,4.0,20.0,73.0,22.0,5.0,8.0,7.0,23.0
1706292156.0712152,-15.0,-14.0,-66.0,-22.0,-10.0,-15.0,22.0,-14.0
1706292156.0914874,1.0,-13.0,-59.0,-11.0,1.0,-1.0,-12.0,-7.0
1706292156.0914874,-13.0,2.0,92.0,18.0,6.0,15.0,36.0,15.0
1706292156.0914874,1.0,2.0,-70.0,-14.0,-3.0,-15.0,-20.0,-4.0
1706292156.0914874,12.0,4.0,21.0,5.0,-1.0,4.0,-7.0,5.0
1706292156.111513,-1.0,3.0,47.0,10.0,-4.0,-7.0,29.0,-4.0
1706292156.111513,-4.0,-10.0,-24.0,-15.0,-2.0,4.0,-15.0,0.0
1706292156.111513,15.0,8.0,43.0,15.0,5.0,0.0,1.0,0.0
1706292156.111513,4.0,16.0,-57.0,-8.0,1.0,13.0,1.0,-8.0
1706292156.1412168,-35.0,-8.0,-14.0,-5.0,-7.0,-11.0,-23.0,3.0
1706292156.1512127,-2.0,0.0,63.0,16.0,3.0,-1.0,35.0,1.0
1706292156.1512127,0.0,7.0,-39.0,-22.0,-6.0,-9.0,-14.0,20.0
1706292156.1512127,1.0,-34.0,14.0,1.0,-1.0,-4.0,-18.0,-15.0
1706292156.1512127,8.0,-24.0,-8.0,-8.0,2.0,9.0,4.0,-6.0
1706292156.1512127,19.0,63.0,90.0,21.0,0.0,-2.0,-14.0,16.0
1706292156.1512127,-12.0,-42.0,10.0,-3.0,0.0,-1.0,-5.0,-17.0
1706292156.1512127,11.0,18.0,33.0,1.0,10.0,5.0,12.0,10.0
1706292156.171626,-34.0,-19.0,5.0,1.0,-3.0,-5.0,-2.0,-7.0
1706292156.171626,6.0,-26.0,-24.0,-3.0,-4.0,-2.0,-1.0,4.0
1706292156.171626,-5.0,23.0,17.0,-3.0,-6.0,3.0,-2.0,-10.0
1706292156.171626,-17.0,1.0,-15.0,8.0,8.0,13.0,-1.0,6.0
1706292156.1912155,11.0,7.0,13.0,8.0,2.0,1.0,0.0,-5.0
1706292156.1912155,7.0,-7.0,-48.0,-12.0,-2.0,-4.0,1.0,1.0
1706292156.1912155,-44.0,8.0,8.0,-5.0,-6.0,-6.0,6.0,-2.0
1706292156.1912155,28.0,-9.0,-18.0,0.0,-10.0,4.0,-1.0,-2.0
1706292156.2115605,21.0,18.0,10.0,-8.0,1.0,6.0,-7.0,4.0
1706292156.2115605,-21.0,-14.0,-30.0,-1.0,5.0,-15.0,-8.0,-5.0
1706292156.2115605,28.0,-18.0,-9.0,-1.0,3.0,1.0,3.0,-1.0
1706292156.2115605,7.0,13.0,16.0,0.0,-1.0,0.0,22.0,3.0
1706292156.2412145,-12.0,-6.0,-9.0,0.0,-8.0,-14.0,-35.0,-11.0
1706292156.2412145,-15.0,-16.0,-42.0,-10.0,-9.0,-6.0,2.0,-4.0
1706292156.2412145,-16.0,-12.0,5.0,-6.0,-3.0,5.0,14.0,-13.0
1706292156.2412145,-8.0,2.0,-42.0,-5.0,2.0,2.0,0.0,5.0
1706292156.2412145,35.0,12.0,15.0,13.0,9.0,10.0,21.0,46.0
1706292156.2412145,0.0,-12.0,-40.0,-15.0,-1.0,7.0,-8.0,-56.0
1706292156.2512195,10.0,17.0,29.0,2.0,-2.0,-7.0,-1.0,18.0
1706292156.2512195,-1.0,-4.0,30.0,-7.0,-10.0,-12.0,-15.0,-7.0
1706292156.271506,-3.0,4.0,-1.0,6.0,-8.0,-11.0,9.0,3.0
1706292156.271506,-6.0,2.0,9.0,2.0,6.0,23.0,1.0,9.0
1706292156.271506,4.0,2.0,-7.0,5.0,17.0,5.0,2.0,-5.0
1706292156.271506,3.0,-4.0,-33.0,10.0,-8.0,-6.0,1.0,3.0
1706292156.311217,-11.0,-8.0,35.0,-7.0,22.0,13.0,-1.0,-12.0
1706292156.311217,-4.0,3.0,-13.0,-5.0,-8.0,-4.0,4.0,12.0
1706292156.321212,8.0,-1.0,-27.0,11.0,-1.0,-16.0,-9.0,-11.0
1706292156.321212,-9.0,0.0,8.0,-4.0,2.0,7.0,-7.0,4.0
1706292156.321212,-1.0,4.0,-9.0,-1.0,-12.0,-10.0,5.0,-8.0
1706292156.321212,1.0,-6.0,-1.0,-6.0,-6.0,0.0,-1.0,3.0
1706292156.321212,5.0,10.0,27.0,-2.0,-3.0,-7.0,-1.0,5.0
1706292156.321212,0.0,0.0,-12.0,-6.0,-8.0,-9.0,-11.0,-4.0
1706292156.3315556,-8.0,-3.0,23.0,6.0,-1.0,3.0,4.0,-6.0
1706292156.3315556,-3.0,-11.0,-55.0,-11.0,1.0,-3.0,-4.0,1.0
1706292156.3315556,-7.0,5.0,12.0,1.0,-4.0,-2.0,-7.0,-8.0
1706292156.3315556,-4.0,4.0,7.0,8.0,2.0,0.0,-3.0,-1.0
1706292156.3612144,13.0,-2.0,-9.0,-13.0,-11.0,1.0,-3.0,-8.0
1706292156.3612144,3.0,7.0,44.0,14.0,11.0,-2.0,0.0,11.0
1706292156.3612144,-8.0,-11.0,-13.0,-7.0,-4.0,3.0,-3.0,-3.0
1706292156.3612144,6.0,1.0,-18.0,-6.0,1.0,0.0,-2.0,-2.0
1706292156.3612144,-3.0,-5.0,27.0,4.0,2.0,8.0,1.0,2.0
1706292156.3612144,-28.0,-4.0,5.0,3.0,-6.0,-11.0,-6.0,-9.0
1706292156.3715172,4.0,3.0,-35.0,0.0,-5.0,3.0,-4.0,-5.0
1706292156.3715172,0.0,-11.0,-6.0,-13.0,1.0,2.0,-6.0,-1.0
1706292156.391521,9.0,4.0,-25.0,-8.0,2.0,-2.0,-2.0,-2.0
1706292156.391521,-2.0,-4.0,15.0,1.0,-5.0,-8.0,3.0,4.0
1706292156.391521,-3.0,10.0,22.0,5.0,4.0,9.0,0.0,0.0
1706292156.391521,6.0,-7.0,-11.0,-3.0,-4.0,-6.0,-3.0,2.0
1706292156.4152656,-15.0,-7.0,-33.0,0.0,0.0,-5.0,0.0,-2.0
1706292156.4152656,13.0,7.0,3.0,0.0,1.0,5.0,0.0,-1.0
1706292156.4163,1.0,6.0,15.0,7.0,0.0,-2.0,-10.0,1.0
1706292156.4163,-3.0,3.0,55.0,10.0,7.0,7.0,10.0,-1.0
1706292156.4291475,3.0,-4.0,-28.0,-8.0,-3.0,-1.0,1.0,1.0
1706292156.4291475,8.0,-1.0,0.0,-3.0,2.0,0.0,-9.0,1.0
1706292156.4337564,1.0,0.0,5.0,-1.0,-6.0,-8.0,-4.0,-2.0
1706292156.4337564,-9.0,-1.0,11.0,-4.0,-8.0,-3.0,-19.0,-2.0
1706292156.4441583,4.0,4.0,16.0,5.0,9.0,12.0,11.0,-1.0
1706292156.4441583,-4.0,1.0,11.0,-1.0,-4.0,-4.0,9.0,-1.0
1706292156.4537582,5.0,1.0,1.0,-1.0,3.0,-5.0,-4.0,0.0
1706292156.4537582,-1.0,0.0,14.0,6.0,0.0,-3.0,9.0,1.0
1706292156.4740303,-13.0,-4.0,-29.0,-4.0,-5.0,7.0,2.0,-6.0
1706292156.4740303,10.0,12.0,44.0,8.0,-3.0,-1.0,-7.0,2.0
1706292156.4740303,-1.0,-8.0,10.0,-6.0,2.0,3.0,1.0,-2.0
1706292156.4740303,-16.0,-17.0,-43.0,-10.0,0.0,2.0,-4.0,-6.0
1706292156.4837637,6.0,0.0,32.0,6.0,1.0,-8.0,-8.0,-3.0
1706292156.4837637,-10.0,-9.0,-65.0,-8.0,-1.0,5.0,-1.0,2.0
1706292156.4941378,1.0,2.0,-15.0,-6.0,-6.0,-4.0,9.0,0.0
1706292156.4941378,-12.0,3.0,34.0,5.0,-4.0,2.0,0.0,3.0
1706292156.5041504,5.0,-4.0,-44.0,-17.0,-6.0,-7.0,-9.0,-6.0
1706292156.5041504,5.0,3.0,10.0,13.0,5.0,5.0,12.0,-5.0
1706292156.5137608,-19.0,-3.0,-27.0,-9.0,2.0,-3.0,-4.0,4.0
1706292156.5137608,16.0,7.0,-11.0,-7.0,4.0,3.0,0.0,7.0
1706292156.5341194,-15.0,-2.0,30.0,9.0,3.0,14.0,69.0,-7.0
1706292156.5341194,-3.0,1.0,46.0,7.0,-3.0,-23.0,-93.0,4.0
1706292156.5341194,3.0,-5.0,-22.0,-14.0,-12.0,-37.0,-21.0,-39.0
1706292156.5341194,9.0,10.0,39.0,7.0,0.0,9.0,44.0,6.0
1706292156.544162,-5.0,-6.0,-30.0,-6.0,-3.0,-2.0,-11.0,1.0
1706292156.544162,4.0,5.0,-42.0,-14.0,-2.0,7.0,3.0,4.0
1706292156.5541353,6.0,7.0,28.0,12.0,7.0,8.0,-2.0,4.0
1706292156.5541353,-10.0,-12.0,-89.0,-21.0,-6.0,-11.0,-36.0,-8.0
1706292156.5641444,18.0,2.0,13.0,0.0,-5.0,-3.0,2.0,1.0
1706292156.5641444,-7.0,-1.0,21.0,0.0,5.0,7.0,24.0,-1.0
1706292156.5737581,-14.0,-7.0,-20.0,6.0,2.0,8.0,-7.0,7.0
1706292156.5737581,-1.0,-12.0,12.0,-4.0,-6.0,-26.0,1.0,-8.0
1706292156.5938072,-2.0,2.0,17.0,13.0,9.0,-2.0,-10.0,4.0
1706292156.5938072,-10.0,3.0,14.0,7.0,-12.0,-5.0,-3.0,-1.0
1706292156.5938072,9.0,13.0,-46.0,-16.0,25.0,28.0,17.0,3.0
1706292156.5938072,10.0,1.0,-1.0,9.0,0.0,-4.0,3.0,1.0
1706292156.604049,-12.0,-1.0,5.0,-1.0,-4.0,-8.0,-16.0,0.0
1706292156.604049,4.0,1.0,-5.0,0.0,-5.0,-7.0,4.0,-4.0
1706292156.6140199,-16.0,-9.0,6.0,-9.0,-18.0,-7.0,6.0,-1.0
1706292156.6140199,-7.0,-7.0,6.0,-3.0,-3.0,4.0,-6.0,5.0
1706292156.6337643,-1.0,4.0,-7.0,-2.0,0.0,-7.0,-16.0,3.0
1706292156.6337643,9.0,4.0,3.0,-1.0,0.0,5.0,21.0,-18.0
1706292156.6337643,14.0,-1.0,14.0,6.0,-4.0,2.0,-12.0,-34.0
1706292156.6337643,10.0,17.0,3.0,0.0,4.0,-3.0,8.0,14.0
1706292156.6541939,-37.0,29.0,65.0,11.0,-1.0,-2.0,-10.0,-19.0
1706292156.6541939,11.0,-100.0,-88.0,-14.0,1.0,1.0,23.0,43.0
1706292156.6541939,-4.0,35.0,-27.0,-13.0,-9.0,-17.0,-5.0,-49.0
1706292156.6541939,34.0,20.0,2.0,-12.0,-9.0,3.0,-28.0,-38.0
1706292156.6641605,-12.0,-1.0,-23.0,-6.0,0.0,-1.0,-14.0,13.0
1706292156.6641605,-25.0,-3.0,52.0,7.0,1.0,-21.0,9.0,15.0
1706292156.6741302,-11.0,-16.0,-7.0,7.0,8.0,1.0,-17.0,31.0
1706292156.6741302,-11.0,-12.0,-5.0,5.0,1.0,20.0,15.0,-2.0
1706292156.6937559,40.0,4.0,5.0,3.0,2.0,5.0,7.0,10.0
1706292156.6937559,15.0,16.0,25.0,1.0,10.0,5.0,-4.0,4.0
1706292156.6937559,1.0,-17.0,-23.0,-3.0,-6.0,-5.0,17.0,18.0
1706292156.6937559,-17.0,16.0,34.0,8.0,-13.0,-11.0,-4.0,-10.0
1706292156.7141764,1.0,-14.0,-50.0,-28.0,-2.0,-4.0,-6.0,1.0
1706292156.7141764,-8.0,9.0,21.0,32.0,14.0,13.0,2.0,-9.0
1706292156.7141764,3.0,3.0,39.0,23.0,0.0,9.0,-3.0,-5.0
1706292156.7141764,-8.0,-12.0,-6.0,-9.0,20.0,3.0,-5.0,7.0
1706292156.7241423,-2.0,-10.0,-17.0,-10.0,-16.0,-11.0,-3.0,-4.0
1706292156.7241423,2.0,18.0,45.0,-9.0,-11.0,0.0,2.0,-14.0
1706292156.734115,7.0,-2.0,-29.0,-15.0,-9.0,-4.0,6.0,16.0
1706292156.734115,-10.0,1.0,55.0,29.0,1.0,0.0,-5.0,6.0
1706292156.7537558,7.0,-1.0,31.0,1.0,3.0,2.0,2.0,-3.0
1706292156.7537558,-8.0,0.0,-72.0,-28.0,-1.0,-4.0,-5.0,-12.0
1706292156.7537558,2.0,-2.0,55.0,19.0,4.0,6.0,5.0,10.0
1706292156.7537558,-1.0,3.0,-6.0,-12.0,-2.0,2.0,-1.0,4.0
1706292156.774066,-2.0,0.0,0.0,13.0,-2.0,-13.0,-3.0,-9.0
1706292156.774066,-6.0,-5.0,-6.0,-3.0,-2.0,3.0,-3.0,-5.0
1706292156.774066,-1.0,-2.0,11.0,-2.0,2.0,1.0,6.0,8.0
1706292156.774066,17.0,-13.0,-30.0,-3.0,13.0,5.0,-1.0,-2.0
1706292156.7940214,-32.0,-2.0,-27.0,-5.0,-6.0,-1.0,-3.0,-2.0
1706292156.7940214,-4.0,2.0,9.0,-11.0,-14.0,-10.0,1.0,-5.0
1706292156.8039894,5.0,0.0,4.0,19.0,13.0,2.0,-1.0,5.0
1706292156.8039894,0.0,6.0,22.0,2.0,4.0,11.0,73.0,4.0
1706292156.8137627,9.0,-12.0,-58.0,-7.0,-8.0,-13.0,-84.0,-6.0
1706292156.8137627,2.0,9.0,-4.0,0.0,-2.0,4.0,33.0,2.0
1706292156.8237603,-6.0,-5.0,-5.0,-20.0,-9.0,-4.0,-33.0,-5.0
1706292156.8237603,-3.0,-1.0,2.0,2.0,-6.0,-10.0,18.0,3.0
1706292156.8437598,3.0,-3.0,7.0,0.0,-4.0,-2.0,21.0,1.0
1706292156.8437598,-10.0,-9.0,-10.0,-6.0,-4.0,-2.0,-11.0,-4.0
1706292156.8437598,17.0,0.0,22.0,1.0,4.0,4.0,12.0,3.0
1706292156.8437598,-23.0,-5.0,-22.0,4.0,3.0,-9.0,-28.0,-4.0
1706292156.8540192,-3.0,0.0,2.0,1.0,-1.0,1.0,2.0,0.0
1706292156.8540192,3.0,3.0,-43.0,-6.0,-3.0,2.0,-17.0,-6.0
1706292156.8737583,1.0,-1.0,15.0,2.0,-3.0,1.0,12.0,1.0
1706292156.8737583,-12.0,-8.0,-2.0,-8.0,-4.0,-3.0,-24.0,9.0
1706292156.8737583,8.0,4.0,17.0,3.0,2.0,7.0,12.0,-4.0
1706292156.8737583,9.0,8.0,12.0,15.0,6.0,3.0,6.0,15.0
1706292156.8737583,-15.0,-3.0,16.0,-12.0,-3.0,-14.0,-4.0,-9.0
1706292156.8737583,4.0,22.0,-7.0,-5.0,-8.0,-3.0,2.0,-6.0
1706292156.8941727,-3.0,-2.0,21.0,8.0,-1.0,5.0,-28.0,1.0
1706292156.8941727,-5.0,-4.0,-16.0,-16.0,-1.0,4.0,-18.0,4.0
1706292156.8941727,11.0,3.0,15.0,11.0,-2.0,-8.0,39.0,0.0
1706292156.8941727,-4.0,-13.0,-78.0,-11.0,1.0,2.0,-3.0,62.0
1706292156.9137568,-7.0,-3.0,45.0,17.0,6.0,-30.0,-14.0,-59.0
1706292156.9137568,6.0,12.0,17.0,-5.0,4.0,23.0,17.0,-19.0
1706292156.9137568,-18.0,-27.0,8.0,-4.0,-7.0,-1.0,-26.0,-10.0
1706292156.9137568,5.0,-6.0,-25.0,-17.0,-11.0,-3.0,-31.0,-9.0
1706292156.9239762,3.0,2.0,-2.0,-3.0,-6.0,3.0,23.0,18.0
1706292156.9239762,-8.0,-18.0,35.0,0.0,-1.0,-9.0,-21.0,-5.0
1706292156.9442933,-7.0,23.0,-23.0,9.0,10.0,10.0,23.0,10.0
1706292156.9453359,14.0,-5.0,43.0,10.0,3.0,4.0,-5.0,-25.0
1706292156.9551346,-13.0,-21.0,-36.0,0.0,-7.0,5.0,4.0,9.0
1706292156.9551346,-13.0,-3.0,32.0,-5.0,-10.0,-11.0,-5.0,-14.0
1706292156.9571502,7.0,6.0,32.0,-9.0,5.0,13.0,5.0,11.0
1706292156.9571502,-27.0,-44.0,30.0,10.0,6.0,-5.0,-6.0,-9.0
1706292156.9765692,2.0,4.0,-14.0,-9.0,0.0,5.0,6.0,-2.0
1706292156.9765692,14.0,8.0,11.0,9.0,-6.0,-10.0,12.0,2.0
1706292156.9765692,5.0,0.0,-20.0,-3.0,-7.0,-8.0,-24.0,3.0
1706292156.9765692,3.0,8.0,-22.0,-5.0,-6.0,1.0,6.0,-10.0
1706292156.9865918,-17.0,9.0,23.0,5.0,4.0,10.0,19.0,1.0
1706292156.9865918,-22.0,-9.0,16.0,-2.0,-8.0,-9.0,-3.0,8.0
1706292156.9968185,5.0,-4.0,-96.0,-24.0,-6.0,-2.0,-29.0,-15.0
1706292156.9968185,0.0,0.0,25.0,4.0,1.0,7.0,6.0,-11.0
1706292157.0068552,8.0,-3.0,6.0,-2.0,3.0,-6.0,-2.0,11.0
1706292157.0068552,12.0,10.0,40.0,18.0,7.0,-5.0,2.0,22.0
1706292157.0165966,-10.0,-34.0,-74.0,-18.0,-10.0,-13.0,18.0,-23.0
1706292157.0165966,-11.0,9.0,9.0,6.0,-4.0,4.0,-23.0,-17.0
1706292157.0465717,-5.0,2.0,-12.0,-3.0,-1.0,4.0,10.0,3.0
1706292157.0465717,8.0,1.0,-44.0,-6.0,5.0,1.0,-9.0,3.0
1706292157.0465717,-10.0,-1.0,60.0,14.0,-5.0,-7.0,7.0,3.0
1706292157.0465717,0.0,-12.0,-36.0,-15.0,-7.0,-11.0,3.0,1.0
1706292157.0465717,26.0,14.0,17.0,20.0,15.0,7.0,0.0,3.0
1706292157.0465717,-14.0,-1.0,-32.0,10.0,8.0,1.0,0.0,-11.0
1706292157.0565732,17.0,12.0,30.0,1.0,2.0,7.0,7.0,10.0
1706292157.0565732,-32.0,-1.0,6.0,10.0,-4.0,-2.0,-2.0,-5.0
1706292157.0765998,1.0,-3.0,-7.0,-23.0,-3.0,0.0,-4.0,2.0
1706292157.0765998,16.0,3.0,16.0,9.0,-3.0,3.0,-8.0,-3.0
1706292157.0765998,-8.0,10.0,-21.0,-2.0,0.0,-11.0,-20.0,-2.0
1706292157.0765998,4.0,-5.0,-12.0,-10.0,-5.0,0.0,7.0,3.0
1706292157.0970259,-7.0,-15.0,-28.0,-13.0,-7.0,-9.0,-12.0,-1.0
1706292157.0970259,2.0,2.0,12.0,-1.0,-4.0,3.0,31.0,1.0
1706292157.0970259,8.0,10.0,64.0,17.0,4.0,11.0,-2.0,4.0
1706292157.0970259,16.0,-3.0,-38.0,-5.0,0.0,-8.0,-13.0,-7.0
1706292157.106981,2.0,14.0,3.0,1.0,1.0,-1.0,10.0,0.0
1706292157.106981,-9.0,13.0,-6.0,-10.0,-6.0,0.0,-7.0,-4.0
1706292157.1168487,2.0,-13.0,8.0,5.0,4.0,0.0,-19.0,1.0
1706292157.1168487,1.0,5.0,10.0,2.0,5.0,-8.0,5.0,-3.0
1706292157.1365829,9.0,13.0,-13.0,2.0,5.0,7.0,8.0,31.0
1706292157.1365829,-25.0,5.0,40.0,-2.0,-6.0,-15.0,3.0,-13.0
1706292157.1365829,8.0,0.0,-51.0,-12.0,-5.0,8.0,-11.0,-14.0
1706292157.1365829,-23.0,-12.0,-1.0,-2.0,0.0,-1.0,-6.0,-6.0
1706292157.1568937,-4.0,-4.0,16.0,-2.0,-3.0,-2.0,20.0,6.0
1706292157.1568937,32.0,12.0,-36.0,-3.0,2.0,5.0,-22.0,0.0
1706292157.1568937,-18.0,-7.0,-20.0,-1.0,2.0,6.0,13.0,6.0
1706292157.1568937,0.0,4.0,27.0,4.0,3.0,-7.0,-7.0,-3.0
1706292157.166924,4.0,-9.0,-29.0,-3.0,-2.0,-5.0,9.0,-9.0
1706292157.166924,-16.0,-11.0,9.0,-1.0,-2.0,6.0,-19.0,-6.0
1706292157.1769505,-9.0,-10.0,-3.0,-5.0,-5.0,-16.0,0.0,-6.0
1706292157.1769505,49.0,21.0,-4.0,3.0,4.0,8.0,58.0,36.0
1706292157.1965876,-61.0,-7.0,6.0,-2.0,-2.0,-2.0,-28.0,-64.0
1706292157.1965876,38.0,1.0,4.0,-3.0,-2.0,5.0,1.0,-14.0
1706292157.1965876,-22.0,4.0,9.0,3.0,-8.0,-9.0,-11.0,-20.0
1706292157.1965876,3.0,-7.0,-9.0,-11.0,-7.0,-10.0,20.0,-2.0
1706292157.2170146,16.0,3.0,34.0,2.0,-4.0,-30.0,-42.0,14.0
1706292157.2170146,-6.0,-13.0,-50.0,-6.0,2.0,10.0,6.0,2.0
1706292157.2170146,0.0,7.0,50.0,7.0,-15.0,2.0,-1.0,0.0
1706292157.2170146,11.0,6.0,50.0,-2.0,17.0,6.0,2.0,-2.0
1706292157.2269378,12.0,-1.0,-47.0,4.0,19.0,24.0,24.0,8.0
1706292157.2269378,0.0,-6.0,-10.0,15.0,17.0,-22.0,-15.0,5.0
1706292157.2368243,4.0,-2.0,-1.0,-21.0,-10.0,-7.0,5.0,14.0
1706292157.2368243,-16.0,10.0,45.0,32.0,-11.0,4.0,-25.0,-10.0
1706292157.2565832,15.0,-1.0,4.0,-39.0,8.0,13.0,1.0,5.0
1706292157.2565832,-14.0,-6.0,-3.0,-5.0,-9.0,-4.0,7.0,6.0
1706292157.2565832,3.0,1.0,-7.0,30.0,5.0,9.0,7.0,4.0
1706292157.2565832,-4.0,4.0,5.0,-29.0,-3.0,-7.0,-16.0,-8.0
1706292157.2770314,0.0,-3.0,-2.0,5.0,-10.0,-4.0,-3.0,-5.0
1706292157.2770314,-4.0,-14.0,-16.0,-6.0,-5.0,-4.0,9.0,-3.0
1706292157.2770314,1.0,2.0,4.0,1.0,0.0,-2.0,1.0,2.0
1706292157.2770314,-3.0,-1.0,2.0,6.0,-3.0,4.0,-16.0,-3.0
1706292157.2869313,7.0,0.0,5.0,3.0,-5.0,-4.0,9.0,8.0
1706292157.2869313,-5.0,4.0,-2.0,-4.0,5.0,-4.0,-12.0,1.0
1706292157.3065827,1.0,-1.0,50.0,9.0,2.0,3.0,19.0,7.0
1706292157.3065827,-2.0,-10.0,-97.0,-12.0,3.0,-4.0,-48.0,10.0
1706292157.3065827,9.0,1.0,37.0,0.0,-11.0,0.0,11.0,-24.0
1706292157.3065827,-14.0,4.0,43.0,6.0,-2.0,-5.0,-1.0,-10.0
1706292157.3165889,3.0,-6.0,-69.0,-16.0,3.0,0.0,-12.0,-20.0
1706292157.3165889,-29.0,-2.0,18.0,2.0,-4.0,-1.0,4.0,0.0
1706292157.3367937,-3.0,-3.0,7.0,2.0,-8.0,-10.0,-1.0,1.0
1706292157.3367937,2.0,-2.0,-38.0,-11.0,-4.0,2.0,-18.0,20.0
1706292157.3367937,8.0,2.0,25.0,4.0,3.0,-3.0,2.0,2.0
1706292157.3367937,11.0,-7.0,-29.0,-5.0,-3.0,-8.0,9.0,-4.0
1706292157.346871,-10.0,0.0,11.0,7.0,4.0,4.0,-4.0,4.0
1706292157.346871,5.0,10.0,37.0,2.0,2.0,3.0,19.0,9.0
1706292157.3765843,9.0,4.0,-26.0,-10.0,2.0,-9.0,-2.0,8.0
1706292157.3765843,1.0,-11.0,13.0,29.0,1.0,-8.0,-6.0,-8.0
1706292157.3765843,-18.0,-20.0,-13.0,-19.0,-4.0,2.0,4.0,6.0
1706292157.3765843,12.0,5.0,22.0,0.0,-1.0,2.0,6.0,-2.0
1706292157.3765843,-18.0,-11.0,-45.0,-8.0,-4.0,5.0,-2.0,-2.0
1706292157.3765843,0.0,9.0,7.0,-6.0,-3.0,-4.0,-3.0,-9.0
1706292157.3969083,19.0,12.0,15.0,11.0,-6.0,-5.0,-1.0,4.0
1706292157.3969083,-11.0,-5.0,0.0,4.0,3.0,-1.0,1.0,-7.0
1706292157.3969083,0.0,-11.0,-27.0,-20.0,-9.0,-8.0,-6.0,-1.0
1706292157.3969083,2.0,5.0,19.0,-2.0,-3.0,-1.0,4.0,2.0
1706292157.4068177,2.0,-4.0,-2.0,3.0,0.0,5.0,12.0,4.0
1706292157.4068177,3.0,4.0,-32.0,-7.0,-5.0,-3.0,-50.0,-9.0
1706292157.4365838,-10.0,-1.0,50.0,13.0,4.0,-1.0,18.0,2.0
1706292157.4365838,3.0,-2.0,-39.0,-9.0,1.0,-2.0,5.0,-1.0
1706292157.4365838,-8.0,2.0,13.0,4.0,2.0,0.0,-6.0,1.0
1706292157.4365838,-2.0,-13.0,-9.0,-2.0,-3.0,0.0,24.0,-4.0
1706292157.4365838,0.0,15.0,10.0,3.0,1.0,9.0,11.0,13.0
1706292157.4365838,-1.0,4.0,20.0,-2.0,-6.0,-5.0,-11.0,15.0
1706292157.4578278,6.0,-3.0,-11.0,2.0,1.0,11.0,-36.0,-39.0
1706292157.4578278,9.0,1.0,-35.0,2.0,7.0,-10.0,43.0,4.0
1706292157.4598753,-7.0,-13.0,-16.0,-4.0,-3.0,-2.0,-14.0,-1.0
1706292157.4598753,-5.0,1.0,33.0,-2.0,-2.0,12.0,13.0,0.0
1706292157.4824235,7.0,9.0,13.0,4.0,0.0,3.0,5.0,13.0
1706292157.4824235,-9.0,-15.0,-43.0,7.0,0.0,-4.0,-16.0,-4.0
1706292157.4824235,10.0,7.0,-12.0,10.0,6.0,9.0,6.0,-1.0
1706292157.4824235,-1.0,-2.0,10.0,-5.0,-5.0,-8.0,0.0,-6.0
1706292157.492814,3.0,-1.0,-24.0,-16.0,-1.0,1.0,-2.0,5.0
1706292157.492814,-8.0,-2.0,31.0,-5.0,-10.0,-5.0,-5.0,-7.0
1706292157.492814,1.0,-2.0,25.0,27.0,6.0,-7.0,1.0,1.0
1706292157.492814,-14.0,1.0,-55.0,-22.0,9.0,15.0,-6.0,-5.0
1706292157.5128314,-7.0,-11.0,-7.0,9.0,13.0,4.0,2.0,4.0
1706292157.5128314,7.0,-9.0,-3.0,-20.0,-10.0,-3.0,5.0,1.0
1706292157.5128314,10.0,8.0,25.0,-3.0,-6.0,2.0,-4.0,-1.0
