1706291995.8332257,-3.0,-2.0,-4.0,-2.0,-2.0,-1.0,0.0,-1.0
1706291995.8332257,0.0,-2.0,-1.0,-1.0,-2.0,0.0,-2.0,-2.0
1706291995.8402257,-2.0,-14.0,-2.0,0.0,-2.0,-1.0,-1.0,1.0
1706291995.8402257,-1.0,17.0,4.0,-1.0,0.0,-1.0,-1.0,-1.0
1706291995.852225,-2.0,-5.0,5.0,-1.0,-1.0,0.0,-1.0,-3.0
1706291995.852225,-2.0,-4.0,-7.0,-2.0,-2.0,-2.0,-2.0,-4.0
1706291995.855225,0.0,-2.0,7.0,0.0,-1.0,-1.0,-1.0,-1.0
1706291995.855225,0.0,-6.0,0.0,-1.0,-1.0,-1.0,-1.0,-1.0
1706291995.8672109,0.0,3.0,-8.0,0.0,1.0,-2.0,-1.0,1.0
1706291995.8672109,1.0,4.0,1.0,0.0,-1.0,1.0,-1.0,-1.0
1706291995.8672109,1.0,-5.0,3.0,-2.0,-1.0,0.0,-2.0,-1.0
1706291995.8672109,-6.0,-23.0,-20.0,-4.0,-2.0,-1.0,-3.0,-2.0
1706291995.8919842,4.0,25.0,-2.0,-1.0,0.0,0.0,0.0,2.0
1706291995.8919842,1.0,1.0,-1.0,-1.0,-1.0,-3.0,-2.0,-2.0
1706291995.8999848,-1.0,6.0,2.0,-2.0,-3.0,-1.0,-2.0,1.0
1706291995.8999848,0.0,3.0,3.0,1.0,-1.0,-1.0,1.0,1.0
1706291995.9069834,-1.0,-9.0,-1.0,0.0,-1.0,0.0,1.0,3.0
1706291995.9069834,0.0,-1.0,-11.0,-1.0,1.0,0.0,-1.0,-1.0
1706291995.9209833,-2.0,4.0,5.0,-1.0,1.0,-2.0,0.0,1.0
1706291995.9209833,-3.0,-8.0,-2.0,-3.0,-2.0,-3.0,-2.0,-3.0
1706291995.930021,-2.0,0.0,10.0,0.0,-2.0,-2.0,1.0,-1.0
1706291995.930021,-3.0,-4.0,1.0,-2.0,-3.0,-1.0,-1.0,-4.0
1706291995.9319837,-2.0,0.0,-7.0,-1.0,-1.0,-1.0,-1.0,1.0
1706291995.9319837,-2.0,-3.0,-2.0,0.0,0.0,-3.0,-11.0,2.0
1706291995.9529839,-2.0,-4.0,0.0,1.0,0.0,2.0,10.0,-2.0
1706291995.9529839,0.0,0.0,-2.0,-3.0,-1.0,-1.0,8.0,0.0
1706291995.954022,-3.0,0.0,-4.0,-3.0,0.0,-1.0,1.0,-4.0
1706291995.954022,-2.0,-1.0,1.0,-1.0,-1.0,-2.0,-3.0,-3.0
1706291995.9662461,0.0,-5.0,-3.0,-3.0,-1.0,-2.0,-5.0,-1.0
1706291995.9662461,-2.0,-3.0,4.0,0.0,-1.0,-3.0,-2.0,-1.0
1706291995.9782448,-3.0,4.0,-4.0,0.0,-1.0,0.0,-3.0,-1.0
1706291995.9782448,3.0,-2.0,3.0,0.0,0.0,1.0,1.0,0.0
1706291995.9902456,-4.0,-5.0,0.0,-1.0,-2.0,0.0,-4.0,-4.0
1706291995.9902456,1.0,-1.0,-1.0,-1.0,-1.0,-1.0,-1.0,1.0
1706291995.991248,0.0,-1.0,0.0,-1.0,2.0,-2.0,0.0,6.0
1706291995.991248,-2.0,0.0,0.0,-2.0,-3.0,-1.0,-4.0,-11.0
1706291996.0122805,-2.0,-4.0,-2.0,-2.0,-2.0,-3.0,-4.0,-1.0
1706291996.0122805,-2.0,-1.0,-2.0,0.0,-1.0,0.0,-6.0,0.0
1706291996.0142462,1.0,8.0,-1.0,0.0,-2.0,0.0,0.0,-2.0
1706291996.0142462,6.0,4.0,-1.0,0.0,0.0,0.0,4.0,3.0
1706291996.0237305,0.0,-1.0,-2.0,-3.0,-1.0,-1.0,-2.0,0.0
1706291996.0237305,-1.0,1.0,2.0,0.0,-1.0,-1.0,-3.0,-3.0
1706291996.0337338,1.0,1.0,-2.0,0.0,-2.0,-1.0,-2.0,-4.0
1706291996.0337338,-3.0,-2.0,-1.0,-1.0,-1.0,-1.0,2.0,0.0
1706291996.053775,-2.0,-3.0,-1.0,-1.0,-1.0,0.0,-3.0,-4.0
1706291996.053775,-1.0,2.0,2.0,0.0,0.0,-1.0,-1.0,2.0
1706291996.053775,-2.0,-4.0,-2.0,-2.0,-1.0,-3.0,-1.0,-1.0
1706291996.053775,-2.0,-2.0,0.0,0.0,-1.0,0.0,-1.0,0.0
1706291996.063776,-3.0,-3.0,-2.0,-2.0,1.0,-2.0,-1.0,1.0
1706291996.063776,0.0,-4.0,-1.0,0.0,-1.0,-1.0,-1.0,-1.0
1706291996.073733,-1.0,-5.0,-2.0,-1.0,0.0,-1.0,-2.0,-2.0
1706291996.073733,-3.0,-4.0,-1.0,0.0,0.0,-3.0,-1.0,-1.0
1706291996.0864737,1.0,0.0,-2.0,0.0,-3.0,-1.0,-1.0,-3.0
1706291996.0864737,-1.0,-2.0,-1.0,-3.0,-1.0,0.0,0.0,6.0
1706291996.101473,0.0,-4.0,-1.0,-2.0,-1.0,0.0,-3.0,-7.0
1706291996.101473,-2.0,-1.0,-2.0,-1.0,0.0,2.0,0.0,0.0
1706291996.1171887,-4.0,-2.0,-3.0,-1.0,-1.0,-2.0,-2.0,-2.0
1706291996.1171887,-1.0,0.0,0.0,-2.0,-1.0,-1.0,-1.0,2.0
1706291996.1171887,0.0,-3.0,-2.0,0.0,-1.0,-2.0,-1.0,-2.0
1706291996.1171887,-2.0,-2.0,-1.0,-2.0,-2.0,-1.0,-1.0,-1.0
1706291996.1352515,0.0,-1.0,-2.0,-2.0,-2.0,-2.0,-1.0,-1.0
1706291996.1352515,-2.0,-1.0,-2.0,-1.0,-2.0,-1.0,0.0,-6.0
1706291996.1352515,-2.0,0.0,-2.0,-2.0,-1.0,0.0,-2.0,0.0
1706291996.1352515,-2.0,-1.0,-1.0,0.0,-1.0,-2.0,-1.0,0.0
1706291996.1462498,-2.0,-1.0,-1.0,-2.0,0.0,-1.0,-1.0,-2.0
1706291996.1462498,0.0,-1.0,0.0,-2.0,0.0,0.0,-2.0,-3.0
1706291996.155251,0.0,-1.0,-2.0,-1.0,-2.0,0.0,-1.0,-2.0
1706291996.155251,-2.0,-2.0,-1.0,-2.0,0.0,-2.0,1.0,1.0
1706291996.1671913,-1.0,0.0,-1.0,-2.0,0.0,-2.0,-1.0,-1.0
1706291996.1671913,-2.0,-2.0,-1.0,-1.0,-1.0,-2.0,-2.0,-2.0
1706291996.1780114,-2.0,0.0,-1.0,-1.0,0.0,-4.0,-1.0,0.0
1706291996.1780114,-1.0,1.0,0.0,-2.0,-2.0,-1.0,-2.0,-2.0
1706291996.19301,0.0,7.0,-1.0,0.0,-1.0,-1.0,-1.0,-2.0
1706291996.19301,0.0,-4.0,-2.0,-1.0,1.0,-3.0,-2.0,-4.0
1706291996.2030087,-1.0,1.0,-1.0,-2.0,-3.0,0.0,-1.0,0.0
1706291996.2030087,-2.0,-3.0,-3.0,-2.0,-3.0,-1.0,-1.0,0.0
1706291996.2060091,-1.0,2.0,3.0,1.0,0.0,-1.0,-2.0,1.0
1706291996.2060091,-2.0,-4.0,-2.0,0.0,-2.0,-2.0,-4.0,-2.0
1706291996.2150102,-1.0,-2.0,-2.0,1.0,-2.0,0.0,0.0,-1.0
1706291996.2150102,1.0,2.0,0.0,-2.0,-1.0,0.0,-2.0,1.0
1706291996.23001,0.0,-6.0,-1.0,0.0,-2.0,0.0,-2.0,-1.0
1706291996.23001,-2.0,0.0,0.0,1.0,-2.0,-1.0,0.0,-1.0
1706291996.2310095,0.0,-3.0,-3.0,-3.0,1.0,-2.0,0.0,0.0
1706291996.2320118,-2.0,-2.0,-1.0,-1.0,-1.0,-1.0,0.0,1.0
1706291996.2580113,-1.0,-3.0,-1.0,0.0,-1.0,-1.0,0.0,0.0
1706291996.2580113,-1.0,0.0,-2.0,-2.0,0.0,0.0,-1.0,0.0
1706291996.2580113,1.0,2.0,-2.0,-2.0,0.0,1.0,7.0,-2.0
1706291996.2580113,-1.0,-1.0,-2.0,-1.0,1.0,-1.0,-2.0,1.0
1706291996.2660124,-1.0,-3.0,-2.0,0.0,-1.0,0.0,0.0,-1.0
1706291996.2660124,6.0,11.0,1.0,-1.0,1.0,0.0,2.0,-2.0
1706291996.2750118,-1.0,-2.0,-1.0,0.0,-2.0,-1.0,-2.0,1.0
1706291996.2750118,-1.0,1.0,-2.0,-2.0,-1.0,-1.0,-1.0,-1.0
1706291996.2900116,1.0,8.0,0.0,-1.0,-2.0,1.0,0.0,-2.0
1706291996.2900116,-2.0,-5.0,-1.0,-2.0,-1.0,-2.0,-2.0,0.0
1706291996.2910116,1.0,-1.0,0.0,-1.0,-2.0,-2.0,-4.0,2.0
1706291996.2920136,-2.0,-1.0,0.0,-1.0,-1.0,-2.0,-1.0,-2.0
1706291996.315706,-4.0,0.0,0.0,-2.0,-3.0,-3.0,-2.0,-3.0
1706291996.315706,3.0,-3.0,-2.0,-1.0,-1.0,-1.0,-1.0,0.0
1706291996.315706,-1.0,-1.0,-2.0,-2.0,-1.0,-1.0,-3.0,-1.0
1706291996.315706,0.0,-1.0,1.0,0.0,0.0,-2.0,1.0,6.0
1706291996.3261054,-2.0,-4.0,-1.0,0.0,1.0,-1.0,-3.0,-7.0
1706291996.3261054,-3.0,-2.0,-2.0,1.0,0.0,0.0,-1.0,-1.0
1706291996.335619,-2.0,0.0,-1.0,-1.0,-2.0,-3.0,-1.0,-3.0
1706291996.335619,0.0,-3.0,-1.0,-1.0,-2.0,1.0,-2.0,0.0
1706291996.3671584,-1.0,-4.0,-1.0,-2.0,-1.0,0.0,-1.0,2.0
1706291996.3671584,-2.0,-2.0,-3.0,-2.0,-2.0,-1.0,-3.0,-1.0
1706291996.3671584,-3.0,0.0,0.0,0.0,1.0,1.0,-2.0,-2.0
1706291996.3671584,-2.0,-2.0,-2.0,-1.0,-2.0,-1.0,-2.0,-5.0
1706291996.3728056,-1.0,-4.0,0.0,-1.0,-1.0,-1.0,0.0,1.0
1706291996.3737087,-1.0,-1.0,0.0,-1.0,-1.0,-3.0,-2.0,-5.0
1706291996.3738945,-2.0,0.0,-2.0,-1.0,1.0,-1.0,0.0,1.0
1706291996.3738945,0.0,-2.0,-2.0,1.0,-1.0,0.0,-1.0,-4.0
1706291996.3843536,-2.0,-3.0,-2.0,0.0,0.0,-1.0,0.0,-1.0
1706291996.3843536,-2.0,-2.0,0.0,-1.0,-1.0,-1.0,1.0,-1.0
1706291996.3942046,-1.0,-2.0,-2.0,0.0,-1.0,-1.0,-1.0,-2.0
1706291996.3942046,-1.0,0.0,-2.0,-2.0,0.0,-1.0,-1.0,-3.0
1706291996.4138918,-1.0,-3.0,-3.0,-1.0,-2.0,-1.0,0.0,-1.0
1706291996.4138918,-4.0,-1.0,-2.0,0.0,0.0,0.0,-3.0,-2.0
1706291996.4138918,-1.0,-1.0,1.0,-2.0,-2.0,-2.0,0.0,-2.0
1706291996.4138918,-1.0,2.0,-1.0,0.0,-1.0,-1.0,0.0,-3.0
1706291996.4242392,-1.0,-1.0,-2.0,0.0,-1.0,-1.0,-1.0,0.0
1706291996.4242392,0.0,0.0,0.0,0.0,-2.0,-1.0,1.0,-2.0
1706291996.433901,-2.0,-2.0,-1.0,-2.0,-1.0,0.0,1.0,5.0
1706291996.433901,-1.0,-3.0,-2.0,-1.0,-1.0,-2.0,-6.0,-18.0
1706291996.4543483,-1.0,1.0,0.0,-2.0,-2.0,0.0,-2.0,-2.0
1706291996.4543483,-1.0,-4.0,0.0,-1.0,-2.0,-1.0,-3.0,1.0
1706291996.4543483,-3.0,-1.0,-2.0,-1.0,-1.0,-1.0,-3.0,3.0
1706291996.4543483,-1.0,0.0,-1.0,0.0,1.0,-1.0,0.0,0.0
1706291996.469788,-2.0,-3.0,-1.0,-3.0,0.0,0.0,-1.0,1.0
1706291996.469788,-3.0,-1.0,-3.0,0.0,0.0,-1.0,-2.0,-5.0
1706291996.4768014,-3.0,-1.0,0.0,-1.0,-3.0,-1.0,-3.0,1.0
1706291996.4768014,-2.0,-3.0,-1.0,-2.0,1.0,0.0,-2.0,1.0
1706291996.490127,-1.0,-2.0,-2.0,0.0,-1.0,-2.0,-1.0,-2.0
1706291996.490127,-2.0,-2.0,-3.0,-3.0,-1.0,0.0,-1.0,3.0
1706291996.490127,0.0,1.0,-3.0,-3.0,1.0,-2.0,-2.0,-3.0
1706291996.490127,-1.0,-1.0,-1.0,-1.0,-3.0,0.0,-1.0,-1.0
1706291996.5104723,0.0,-2.0,0.0,-2.0,-1.0,-1.0,-1.0,-1.0
1706291996.5104723,4.0,13.0,2.0,0.0,1.0,-1.0,2.0,0.0
1706291996.5104723,0.0,-8.0,-4.0,-1.0,-1.0,0.0,1.0,-3.0
1706291996.5104723,-2.0,-2.0,-1.0,-3.0,-2.0,0.0,4.0,0.0
1706291996.5301301,0.0,1.0,-1.0,-2.0,-1.0,-1.0,-1.0,1.0
1706291996.5301301,-3.0,-2.0,-3.0,-1.0,-2.0,0.0,1.0,-1.0
1706291996.5301301,-2.0,-1.0,-1.0,1.0,0.0,-1.0,0.0,-2.0
1706291996.5301301,-1.0,-1.0,-1.0,-3.0,-2.0,0.0,1.0,4.0
1706291996.552944,-3.0,-4.0,-1.0,-2.0,-2.0,-1.0,-1.0,-4.0
1706291996.552944,-2.0,-4.0,-1.0,-3.0,-3.0,1.0,0.0,3.0
1706291996.5539455,-3.0,0.0,-1.0,0.0,-1.0,-1.0,-2.0,-4.0
1706291996.5539455,-3.0,-1.0,-3.0,0.0,-2.0,-1.0,-2.0,-1.0
1706291996.5846338,0.0,0.0,0.0,2.0,1.0,-3.0,-4.0,2.0
1706291996.585634,-1.0,-4.0,0.0,0.0,0.0,-2.0,-5.0,-3.0
1706291996.5876338,0.0,-4.0,0.0,0.0,-2.0,-3.0,-1.0,-2.0
1706291996.5876338,2.0,4.0,0.0,-1.0,0.0,0.0,-1.0,0.0
1706291996.588646,-1.0,0.0,0.0,-1.0,-2.0,-1.0,-3.0,-2.0
1706291996.588646,-1.0,-2.0,-1.0,0.0,1.0,0.0,-1.0,2.0
1706291996.597688,0.0,-3.0,0.0,-1.0,-1.0,0.0,0.0,-2.0
1706291996.597688,-2.0,-1.0,0.0,1.0,-3.0,-1.0,-2.0,-1.0
1706291996.6126127,0.0,0.0,-2.0,-2.0,-1.0,-1.0,1.0,-2.0
1706291996.6126127,-2.0,-4.0,-2.0,-1.0,-1.0,-2.0,-1.0,-2.0
1706291996.6136239,-1.0,1.0,-2.0,0.0,0.0,-1.0,0.0,8.0
1706291996.6146111,-1.0,-4.0,-1.0,-3.0,-2.0,-2.0,-1.0,-5.0
1706291996.6456635,-2.0,-1.0,-1.0,-1.0,-2.0,-2.0,2.0,0.0
1706291996.6456635,-1.0,4.0,-1.0,-2.0,-1.0,-1.0,1.0,0.0
1706291996.6456635,1.0,-14.0,-5.0,-2.0,-1.0,0.0,-1.0,1.0
1706291996.6456635,-2.0,-1.0,-1.0,1.0,0.0,2.0,1.0,0.0
1706291996.6486237,-2.0,-2.0,0.0,0.0,-2.0,0.0,0.0,0.0
1706291996.6486237,-2.0,-2.0,0.0,-2.0,0.0,-3.0,-2.0,0.0
1706291996.6588264,-2.0,5.0,1.0,-2.0,-1.0,-2.0,0.0,-4.0
1706291996.6598222,-1.0,-2.0,-1.0,-2.0,0.0,-2.0,-1.0,-1.0
1706291996.67393,-1.0,-1.0,-2.0,-1.0,-1.0,-2.0,-1.0,-1.0
1706291996.67393,-2.0,0.0,-1.0,0.0,-1.0,-1.0,-2.0,-1.0
1706291996.6758988,-2.0,3.0,2.0,0.0,-2.0,0.0,-1.0,-5.0
1706291996.6758988,-1.0,-1.0,0.0,-1.0,1.0,-3.0,0.0,-1.0
1706291996.715813,0.0,0.0,-2.0,0.0,1.0,-1.0,-1.0,1.0
1706291996.715813,-2.0,-3.0,0.0,-1.0,-1.0,1.0,1.0,-2.0
1706291996.715813,-1.0,1.0,-1.0,-3.0,-2.0,0.0,-2.0,-2.0
1706291996.715813,0.0,-2.0,-3.0,-1.0,-1.0,-2.0,1.0,3.0
1706291996.715813,1.0,1.0,-2.0,0.0,0.0,0.0,1.0,-3.0
1706291996.715813,-2.0,-3.0,-2.0,0.0,-1.0,-1.0,3.0,1.0
1706291996.7178137,-1.0,1.0,-1.0,-1.0,-3.0,-2.0,0.0,-2.0
1706291996.7178137,-1.0,0.0,-1.0,0.0,-2.0,-1.0,-1.0,-1.0
1706291996.7333734,-3.0,-5.0,-2.0,-1.0,-2.0,0.0,0.0,-2.0
1706291996.7333734,-1.0,5.0,0.0,-2.0,-1.0,-1.0,2.0,4.0
1706291996.7386866,-2.0,-19.0,-4.0,-3.0,-2.0,-2.0,-5.0,-17.0
1706291996.7386866,0.0,0.0,-1.0,-1.0,-1.0,-3.0,-2.0,1.0
1706291996.756982,-2.0,0.0,1.0,1.0,-1.0,-1.0,-2.0,-2.0
1706291996.756982,1.0,-3.0,-1.0,-1.0,-1.0,-1.0,-2.0,0.0
1706291996.756982,0.0,5.0,-2.0,0.0,0.0,0.0,-1.0,5.0
1706291996.756982,-2.0,-4.0,-2.0,-1.0,-2.0,-2.0,-6.0,1.0
1706291996.7721565,-4.0,-3.0,0.0,-1.0,-1.0,-2.0,-2.0,-1.0
1706291996.7721565,-4.0,0.0,-1.0,-1.0,-2.0,-2.0,-5.0,0.0
1706291996.77716,-2.0,0.0,2.0,0.0,0.0,0.0,-6.0,-1.0
1706291996.7781572,-9.0,-12.0,-1.0,0.0,1.0,0.0,-5.0,-2.0
1706291996.792803,2.0,6.0,0.0,0.0,-3.0,-2.0,-4.0,3.0
1706291996.792803,-2.0,-6.0,-2.0,-2.0,-1.0,-1.0,-4.0,-10.0
1706291996.793786,1.0,4.0,1.0,0.0,0.0,-1.0,-1.0,1.0
1706291996.793786,0.0,-9.0,0.0,-1.0,0.0,1.0,1.0,-1.0
1706291996.8146565,-2.0,-2.0,-3.0,-4.0,0.0,2.0,2.0,7.0
1706291996.8155441,-2.0,-5.0,-2.0,-1.0,0.0,-2.0,-4.0,-13.0
1706291996.816583,-1.0,3.0,-2.0,-2.0,-1.0,-2.0,0.0,-1.0
1706291996.816583,4.0,5.0,2.0,-1.0,-1.0,-1.0,1.0,-2.0
1706291996.8284743,7.0,-2.0,-1.0,0.0,-1.0,-2.0,0.0,1.0
1706291996.8284743,1.0,-2.0,-2.0,-1.0,-1.0,-2.0,0.0,1.0
1706291996.8374717,-12.0,6.0,0.0,1.0,0.0,2.0,1.0,-1.0
1706291996.8374717,0.0,10.0,-1.0,-1.0,-1.0,-1.0,2.0,-1.0
1706291996.8528092,-2.0,-10.0,-3.0,0.0,-1.0,-1.0,-1.0,-3.0
1706291996.8528092,-1.0,-1.0,-1.0,0.0,-1.0,0.0,-1.0,1.0
1706291996.8538082,4.0,-1.0,-1.0,-3.0,1.0,0.0,-1.0,-2.0
1706291996.8538082,0.0,7.0,-1.0,0.0,0.0,0.0,1.0,0.0
1706291996.875846,-5.0,-1.0,-1.0,-2.0,-1.0,-1.0,-2.0,-4.0
1706291996.875846,-5.0,-11.0,-3.0,-2.0,-1.0,-1.0,-1.0,0.0
1706291996.876812,3.0,1.0,-2.0,0.0,-2.0,-1.0,1.0,3.0
1706291996.876812,0.0,-2.0,-2.0,-2.0,-1.0,-2.0,4.0,-1.0
1706291996.8943436,0.0,0.0,-2.0,-1.0,0.0,0.0,-4.0,7.0
1706291996.8943436,1.0,-3.0,-1.0,-2.0,-1.0,-1.0,-4.0,-15.0
1706291996.9053507,0.0,2.0,0.0,-1.0,-2.0,0.0,1.0,1.0
1706291996.9053507,-1.0,-5.0,0.0,-1.0,-1.0,-1.0,-1.0,0.0
1706291996.9125156,-1.0,1.0,-1.0,-1.0,-2.0,-2.0,-2.0,-4.0
1706291996.9125156,0.0,7.0,1.0,0.0,-1.0,-1.0,1.0,3.0
1706291996.9143462,-2.0,-3.0,-2.0,0.0,-1.0,-1.0,-1.0,-1.0
1706291996.9143462,0.0,0.0,-1.0,0.0,-2.0,-3.0,-2.0,-2.0
1706291996.9453404,-3.0,-1.0,0.0,-2.0,0.0,-1.0,1.0,-2.0
1706291996.9453404,1.0,0.0,-3.0,-2.0,0.0,-2.0,0.0,4.0
1706291996.9453404,-1.0,-3.0,-1.0,0.0,0.0,0.0,0.0,-4.0
1706291996.9453404,-2.0,-3.0,0.0,-3.0,-1.0,-1.0,0.0,3.0
1706291996.9479957,-2.0,3.0,1.0,0.0,0.0,-2.0,-1.0,-4.0
1706291996.9490037,2.0,3.0,-2.0,-2.0,-4.0,-1.0,1.0,2.0
1706291996.958435,1.0,-1.0,-1.0,-1.0,-1.0,-2.0,-1.0,1.0
1706291996.958435,-1.0,0.0,-1.0,-1.0,-1.0,0.0,1.0,-2.0
1706291996.979305,-1.0,-4.0,-1.0,-1.0,-2.0,-1.0,-1.0,-1.0
1706291996.979305,0.0,6.0,0.0,-2.0,0.0,1.0,0.0,-1.0
1706291996.979305,-2.0,-4.0,-4.0,-2.0,-2.0,-2.0,0.0,1.0
1706291996.979305,-1.0,1.0,-1.0,-2.0,-1.0,-3.0,-3.0,-3.0
1706291996.9955463,-3.0,3.0,-1.0,-2.0,-2.0,0.0,2.0,5.0
1706291996.9955463,4.0,-2.0,0.0,-1.0,-1.0,-1.0,-5.0,-12.0
1706291996.9975722,-1.0,0.0,-1.0,-2.0,-1.0,-2.0,1.0,0.0
1706291996.9975722,-3.0,-2.0,-1.0,-1.0,-1.0,0.0,-2.0,-2.0
1706291997.0115469,-1.0,-2.0,-2.0,1.0,0.0,0.0,-3.0,-1.0
1706291997.0115469,-4.0,-1.0,1.0,0.0,-1.0,0.0,1.0,7.0
1706291997.017457,-1.0,-4.0,-2.0,0.0,-3.0,-1.0,-1.0,0.0
1706291997.017457,-1.0,-1.0,-2.0,0.0,-1.0,-1.0,-1.0,-2.0
1706291997.0358498,-2.0,0.0,-1.0,-1.0,0.0,-1.0,-1.0,-4.0
1706291997.036848,-1.0,-3.0,-1.0,-1.0,0.0,0.0,-1.0,2.0
1706291997.036848,-6.0,-10.0,0.0,-3.0,0.0,-1.0,-2.0,-2.0
1706291997.036848,-1.0,-3.0,-2.0,-2.0,-2.0,0.0,1.0,1.0
1706291997.0551374,0.0,-3.0,0.0,-2.0,-1.0,-1.0,-1.0,-3.0
1706291997.0551374,-7.0,0.0,-1.0,0.0,0.0,-1.0,1.0,2.0
1706291997.0570977,2.0,0.0,-1.0,-1.0,-1.0,-1.0,-2.0,-1.0
1706291997.0570977,0.0,0.0,0.0,0.0,-2.0,-1.0,-5.0,0.0
1706291997.0689752,-1.0,-3.0,-1.0,0.0,0.0,-2.0,3.0,6.0
1706291997.0689752,-4.0,-2.0,-3.0,1.0,-2.0,-2.0,-4.0,-12.0
1706291997.0779505,-4.0,2.0,-2.0,1.0,-1.0,0.0,-2.0,-2.0
1706291997.0779505,1.0,1.0,0.0,-1.0,0.0,0.0,-1.0,-1.0
1706291997.0952375,1.0,2.0,0.0,-2.0,-1.0,-2.0,-1.0,-2.0
1706291997.0952375,1.0,0.0,-2.0,-1.0,-1.0,-1.0,1.0,5.0
1706291997.0952375,0.0,3.0,-1.0,-2.0,-1.0,-2.0,1.0,0.0
1706291997.0952375,-1.0,-1.0,-2.0,-2.0,-1.0,0.0,-2.0,-3.0
1706291997.115282,1.0,6.0,0.0,0.0,-1.0,-1.0,-1.0,-3.0
1706291997.115282,-2.0,-21.0,-6.0,0.0,0.0,0.0,-2.0,2.0
1706291997.1172824,1.0,0.0,0.0,-1.0,0.0,-3.0,-2.0,-3.0
1706291997.1172824,-2.0,-3.0,-2.0,-1.0,-2.0,-1.0,1.0,0.0
1706291997.12961,-2.0,-1.0,0.0,-1.0,-2.0,0.0,1.0,-3.0
1706291997.12961,1.0,4.0,0.0,0.0,-1.0,1.0,-1.0,1.0
1706291997.1456175,1.0,2.0,0.0,0.0,1.0,0.0,3.0,1.0
1706291997.1456175,-3.0,-1.0,-2.0,-1.0,0.0,-1.0,3.0,8.0
1706291997.1528418,4.0,-1.0,0.0,-1.0,-2.0,-1.0,-4.0,-13.0
1706291997.1528418,-1.0,4.0,0.0,-1.0,0.0,-1.0,0.0,0.0
1706291997.1548712,-2.0,-4.0,0.0,-2.0,-3.0,2.0,-1.0,-1.0
1706291997.1548712,-1.0,1.0,0.0,-2.0,1.0,-1.0,-2.0,-1.0
1706291997.175712,-4.0,-3.0,-3.0,-1.0,-2.0,-2.0,-1.0,0.0
1706291997.175712,-2.0,0.0,-1.0,-2.0,0.0,0.0,-2.0,1.0
1706291997.1767159,2.0,0.0,-1.0,0.0,-1.0,-3.0,-1.0,0.0
1706291997.1767159,-5.0,-5.0,-1.0,0.0,-2.0,-1.0,-2.0,-10.0
1706291997.200352,-2.0,-3.0,-4.0,-1.0,0.0,0.0,-2.0,0.0
1706291997.200352,-1.0,0.0,-1.0,-2.0,-1.0,-3.0,-6.0,-1.0
1706291997.200352,8.0,8.0,2.0,-1.0,-1.0,-1.0,-2.0,1.0
1706291997.200352,0.0,-13.0,-4.0,-3.0,0.0,0.0,-2.0,-3.0
1706291997.2120945,0.0,-1.0,-1.0,-1.0,-1.0,-3.0,0.0,0.0
1706291997.2131002,-2.0,0.0,-1.0,-1.0,-1.0,-2.0,-3.0,1.0
1706291997.2190905,-4.0,1.0,0.0,-1.0,0.0,0.0,0.0,0.0
1706291997.2190905,7.0,16.0,0.0,0.0,-2.0,-3.0,1.0,0.0
1706291997.2346392,0.0,-1.0,-1.0,-2.0,-1.0,0.0,-2.0,-1.0
1706291997.2346392,0.0,0.0,-1.0,0.0,-2.0,-1.0,4.0,10.0
1706291997.2366557,-2.0,-2.0,-2.0,-2.0,-2.0,-2.0,-4.0,-9.0
1706291997.2366557,-4.0,-6.0,-1.0,-2.0,-2.0,-1.0,-1.0,-1.0
1706291997.260257,-3.0,-3.0,-2.0,-1.0,-1.0,-1.0,1.0,0.0
1706291997.260257,2.0,0.0,0.0,-1.0,-1.0,-2.0,2.0,0.0
1706291997.260257,-4.0,-7.0,-3.0,0.0,-2.0,-1.0,0.0,0.0
1706291997.260257,-2.0,0.0,0.0,-1.0,-2.0,0.0,-1.0,-2.0
1706291997.2723873,-2.0,-2.0,-1.0,-1.0,-1.0,-1.0,-2.0,-1.0
1706291997.2723873,-2.0,-3.0,0.0,0.0,-1.0,-2.0,-1.0,-3.0
1706291997.279877,-1.0,-2.0,-3.0,-1.0,-2.0,-1.0,-3.0,-1.0
1706291997.279877,-1.0,-1.0,-3.0,-1.0,-1.0,-2.0,-3.0,-3.0
1706291997.2951226,0.0,1.0,1.0,0.0,-2.0,-2.0,-2.0,-1.0
1706291997.2951226,0.0,1.0,-1.0,-1.0,-1.0,-3.0,-3.0,-2.0
1706291997.2970033,-2.0,5.0,1.0,-1.0,-1.0,-1.0,-1.0,0.0
1706291997.2970033,-3.0,-4.0,0.0,0.0,-1.0,-1.0,0.0,2.0
1706291997.3190138,-3.0,-2.0,1.0,-1.0,0.0,-1.0,-2.0,-1.0
1706291997.3190138,0.0,1.0,-1.0,-2.0,-1.0,1.0,-1.0,-2.0
1706291997.3190138,-2.0,4.0,-1.0,-2.0,-1.0,0.0,0.0,0.0
1706291997.3190138,-1.0,0.0,1.0,0.0,1.0,1.0,-2.0,-1.0
1706291997.3312027,-2.0,-4.0,-3.0,-1.0,0.0,-1.0,0.0,-1.0
1706291997.3312027,-1.0,-1.0,-1.0,0.0,0.0,0.0,2.0,-3.0
1706291997.347223,-1.0,-3.0,-1.0,-3.0,-2.0,-1.0,2.0,1.0
1706291997.348235,0.0,-1.0,-3.0,-1.0,-1.0,-1.0,1.0,-3.0
1706291997.3552763,-3.0,-1.0,-1.0,0.0,-1.0,0.0,0.0,1.0
1706291997.3552763,0.0,1.0,-1.0,0.0,-1.0,-1.0,0.0,-1.0
1706291997.3562398,0.0,-5.0,-2.0,-2.0,0.0,-2.0,0.0,0.0
1706291997.357255,1.0,-1.0,-2.0,0.0,1.0,0.0,-1.0,0.0
1706291997.3791428,-1.0,1.0,1.0,-1.0,-1.0,-2.0,-2.0,0.0
1706291997.3791428,-2.0,-3.0,-2.0,-2.0,0.0,-2.0,-2.0,-2.0
1706291997.3791428,-1.0,-3.0,-1.0,0.0,0.0,-1.0,0.0,0.0
1706291997.3791428,-2.0,1.0,-1.0,-1.0,-2.0,-2.0,-3.0,-7.0
1706291997.3926175,-2.0,-1.0,-2.0,-2.0,0.0,0.0,-1.0,-1.0
1706291997.3926175,0.0,-1.0,-1.0,0.0,0.0,0.0,-1.0,-1.0
1706291997.3990057,-2.0,-4.0,-2.0,-1.0,0.0,-2.0,-3.0,-5.0
1706291997.400035,0.0,1.0,-1.0,-2.0,-1.0,0.0,-1.0,3.0
1706291997.43632,0.0,-2.0,0.0,-1.0,-3.0,0.0,-2.0,-1.0
1706291997.43632,-1.0,-2.0,0.0,-1.0,-1.0,-2.0,-4.0,-3.0
1706291997.43632,-1.0,-2.0,0.0,-1.0,0.0,-1.0,-3.0,2.0
1706291997.43632,-1.0,-1.0,-2.0,0.0,-2.0,1.0,-2.0,0.0
1706291997.43632,0.0,0.0,0.0,-2.0,0.0,-3.0,0.0,-1.0
1706291997.43632,-1.0,0.0,0.0,-1.0,-3.0,-1.0,0.0,0.0
1706291997.43632,-1.0,-2.0,0.0,-1.0,-1.0,-2.0,0.0,-1.0
1706291997.43632,0.0,0.0,-2.0,-3.0,-1.0,-1.0,-1.0,-1.0
1706291997.4463234,-1.0,-2.0,-1.0,-2.0,-2.0,-1.0,0.0,-2.0
1706291997.4463234,-1.0,0.0,-3.0,-2.0,-2.0,-1.0,-1.0,-1.0
1706291997.4564366,0.0,-2.0,-2.0,-1.0,-1.0,0.0,0.0,-1.0
1706291997.4564366,-1.0,-2.0,0.0,-2.0,-1.0,0.0,0.0,-1.0
1706291997.482677,-1.0,1.0,-3.0,-2.0,-1.0,0.0,-1.0,1.0
1706291997.4836767,-2.0,-2.0,-3.0,-2.0,-1.0,-1.0,-1.0,-2.0
1706291997.484122,0.0,0.0,-3.0,-1.0,-2.0,2.0,-3.0,-1.0
1706291997.484122,-3.0,-1.0,-1.0,-1.0,0.0,-2.0,-2.0,-1.0
1706291997.4981928,-2.0,-1.0,-2.0,-1.0,-2.0,0.0,-1.0,-2.0
1706291997.4981928,-1.0,-2.0,-2.0,-3.0,-2.0,-1.0,0.0,9.0
1706291997.500207,0.0,-1.0,-2.0,-1.0,-1.0,-2.0,-4.0,-8.0
1706291997.500207,0.0,-2.0,-2.0,-2.0,-1.0,-1.0,-2.0,-1.0
1706291997.511268,-1.0,-3.0,-1.0,-1.0,-2.0,-2.0,-1.0,0.0
1706291997.511268,-1.0,2.0,1.0,-1.0,-3.0,0.0,0.0,-1.0
1706291997.52027,-2.0,-1.0,0.0,1.0,-3.0,-2.0,0.0,3.0
1706291997.52027,-2.0,-1.0,1.0,1.0,-1.0,-1.0,0.0,-2.0
1706291997.5426137,1.0,-2.0,1.0,1.0,1.0,0.0,-1.0,1.0
1706291997.5426137,0.0,-1.0,-1.0,-1.0,0.0,-1.0,-3.0,-2.0
1706291997.5426137,-1.0,0.0,1.0,0.0,0.0,1.0,-1.0,-1.0
1706291997.5426137,-1.0,0.0,-2.0,0.0,0.0,-3.0,0.0,-2.0
1706291997.5575004,-3.0,-1.0,0.0,0.0,-3.0,-2.0,-2.0,-2.0
1706291997.5584662,-1.0,-1.0,1.0,0.0,-1.0,-2.0,-1.0,-5.0
1706291997.5594616,-2.0,-1.0,-1.0,1.0,0.0,0.0,-2.0,-1.0
1706291997.5594616,-1.0,-1.0,0.0,1.0,-2.0,0.0,-2.0,2.0
1706291997.5709996,-1.0,1.0,-2.0,-1.0,1.0,-1.0,1.0,-2.0
1706291997.5709996,-1.0,-1.0,-1.0,0.0,-1.0,-1.0,0.0,-1.0
1706291997.5893302,-1.0,5.0,2.0,-1.0,-1.0,-1.0,0.0,-2.0
1706291997.5893302,-2.0,-17.0,-5.0,-2.0,1.0,-1.0,-2.0,0.0
1706291997.5952966,-1.0,1.0,-3.0,0.0,-1.0,-2.0,-1.0,-2.0
1706291997.5952966,-2.0,-3.0,0.0,-1.0,0.0,1.0,-1.0,-2.0
1706291997.5967913,0.0,-2.0,1.0,-2.0,-1.0,-1.0,1.0,-1.0
1706291997.597824,-3.0,2.0,0.0,-2.0,-1.0,0.0,-1.0,1.0
1706291997.6176512,-2.0,-1.0,-2.0,-3.0,-1.0,-1.0,-2.0,-2.0
1706291997.6176512,-1.0,-2.0,-3.0,-2.0,-1.0,0.0,-2.0,-1.0
1706291997.6186564,-1.0,-2.0,-2.0,0.0,-1.0,0.0,-1.0,-1.0
1706291997.6186564,-1.0,3.0,1.0,0.0,-1.0,-1.0,-2.0,0.0
1706291997.6316617,-1.0,-1.0,-1.0,0.0,0.0,-2.0,-2.0,-1.0
1706291997.6316617,-2.0,1.0,-1.0,-1.0,-2.0,-2.0,-3.0,-2.0
1706291997.6399422,-1.0,-1.0,-1.0,-3.0,-1.0,-1.0,0.0,-1.0
1706291997.6399422,0.0,0.0,-1.0,-1.0,-1.0,-1.0,-1.0,-3.0
1706291997.6499703,2.0,-1.0,-1.0,-1.0,-1.0,0.0,1.0,-1.0
1706291997.6558945,0.0,0.0,-1.0,-1.0,-1.0,-2.0,-1.0,-2.0
1706291997.6568913,-2.0,-2.0,0.0,-1.0,1.0,-1.0,-3.0,0.0
1706291997.6568913,0.0,2.0,-2.0,-1.0,-1.0,-2.0,0.0,-2.0
1706291997.6779988,0.0,-2.0,-2.0,-1.0,-1.0,-1.0,0.0,-1.0
1706291997.6779988,0.0,0.0,0.0,0.0,-2.0,0.0,0.0,0.0
1706291997.6789427,-2.0,-2.0,-2.0,0.0,-2.0,-2.0,-1.0,-1.0
1706291997.6789427,-2.0,2.0,-1.0,-2.0,0.0,-1.0,-2.0,0.0
1706291997.6891012,-2.0,0.0,0.0,-2.0,-1.0,-1.0,-2.0,0.0
1706291997.6891012,-1.0,-1.0,-2.0,-1.0,-1.0,-1.0,-2.0,-3.0
1706291997.7093396,1.0,-1.0,0.0,0.0,-2.0,-1.0,0.0,0.0
1706291997.7093396,-1.0,0.0,-1.0,0.0,-2.0,-2.0,0.0,-1.0
1706291997.7147822,-2.0,-1.0,-1.0,0.0,0.0,-1.0,-3.0,-1.0
1706291997.7147822,-2.0,-3.0,-2.0,-2.0,0.0,-2.0,-2.0,-1.0
1706291997.7168977,-1.0,0.0,-1.0,-2.0,-1.0,-4.0,0.0,0.0
1706291997.7168977,0.0,0.0,-1.0,-1.0,0.0,-8.0,2.0,-1.0
1706291997.7374098,0.0,-2.0,2.0,-1.0,-1.0,-5.0,0.0,2.0
1706291997.7381647,-2.0,1.0,0.0,0.0,0.0,-3.0,1.0,-6.0
1706291997.738982,2.0,-2.0,0.0,-1.0,0.0,2.0,-1.0,5.0
1706291997.738982,0.0,0.0,1.0,0.0,-1.0,4.0,-3.0,-1.0
1706291997.7491682,-1.0,0.0,-2.0,-1.0,0.0,5.0,-2.0,0.0
1706291997.7491682,-2.0,-1.0,-1.0,-1.0,-1.0,4.0,-2.0,-1.0
1706291997.7706208,-3.0,-2.0,-4.0,-1.0,-3.0,3.0,-1.0,-3.0
1706291997.7706208,-2.0,1.0,-2.0,-1.0,-1.0,3.0,-1.0,1.0
1706291997.7832296,-1.0,-2.0,-3.0,-4.0,-1.0,3.0,-2.0,-1.0
1706291997.7832296,-1.0,-1.0,-3.0,-1.0,-2.0,3.0,-1.0,0.0
1706291997.7842283,-3.0,0.0,-1.0,-3.0,-1.0,3.0,-2.0,-2.0
1706291997.7842283,1.0,-1.0,-3.0,-3.0,-3.0,2.0,-2.0,-1.0
1706291997.7987595,-2.0,0.0,-2.0,-1.0,-1.0,2.0,-1.0,-2.0
1706291997.7987595,-1.0,-2.0,-3.0,0.0,-2.0,-1.0,-2.0,-1.0
1706291997.7997558,0.0,-2.0,-2.0,0.0,0.0,-6.0,0.0,-1.0
1706291997.7997558,-2.0,-2.0,-1.0,-1.0,-1.0,-5.0,-1.0,-1.0
1706291997.812758,-1.0,0.0,-2.0,0.0,-1.0,-7.0,-2.0,-2.0
1706291997.812758,-1.0,-1.0,-2.0,-3.0,-1.0,-6.0,1.0,2.0
1706291997.8364193,-2.0,-2.0,-1.0,-3.0,0.0,-4.0,-2.0,-1.0
1706291997.8364193,-1.0,-2.0,-1.0,-2.0,-1.0,-4.0,0.0,-1.0
1706291997.8374193,0.0,-1.0,-2.0,-2.0,0.0,-4.0,-1.0,-3.0
1706291997.8374193,-1.0,-1.0,1.0,1.0,-2.0,-5.0,-2.0,1.0
1706291997.842421,-1.0,-1.0,-1.0,-1.0,-1.0,-4.0,-5.0,-2.0
1706291997.842421,-1.0,-1.0,0.0,-1.0,-2.0,-1.0,-3.0,-2.0
1706291997.857399,-1.0,0.0,0.0,0.0,-1.0,-1.0,1.0,1.0
1706291997.857399,0.0,-2.0,-1.0,-1.0,0.0,-2.0,1.0,0.0
1706291997.8592982,-2.0,0.0,0.0,0.0,-1.0,0.0,-2.0,-3.0
1706291997.8592982,-1.0,0.0,-1.0,1.0,0.0,1.0,-1.0,1.0
1706291997.8732986,-3.0,-1.0,1.0,-1.0,0.0,1.0,0.0,0.0
1706291997.8732986,0.0,-1.0,-1.0,0.0,1.0,2.0,-1.0,7.0
1706291997.8800228,-1.0,-2.0,-3.0,0.0,-2.0,-1.0,0.0,-3.0
1706291997.8800228,1.0,0.0,0.0,0.0,0.0,3.0,2.0,0.0
1706291997.8947353,-2.0,-2.0,2.0,2.0,-3.0,2.0,-1.0,-4.0
1706291997.8947353,-2.0,-2.0,-1.0,-1.0,-1.0,0.0,-2.0,0.0
1706291997.8967352,-2.0,-2.0,-1.0,0.0,-1.0,2.0,4.0,-3.0
1706291997.8967352,-1.0,-2.0,0.0,-1.0,-2.0,0.0,-9.0,-15.0
1706291997.9346979,-1.0,0.0,-2.0,-1.0,-1.0,0.0,2.0,1.0
1706291997.9346979,-2.0,0.0,0.0,0.0,-1.0,0.0,-3.0,-11.0
1706291997.9346979,-1.0,-2.0,-1.0,0.0,-1.0,-3.0,0.0,14.0
1706291997.9346979,-2.0,-1.0,-1.0,-2.0,-2.0,-2.0,0.0,2.0
1706291997.9356987,0.0,-1.0,-1.0,0.0,0.0,-1.0,-1.0,1.0
1706291997.9356987,7.0,14.0,0.0,0.0,0.0,4.0,0.0,-1.0
1706291997.9403892,1.0,0.0,-2.0,-1.0,-1.0,-1.0,7.0,-2.0
1706291997.9403892,-1.0,-1.0,0.0,0.0,-2.0,-12.0,-14.0,1.0
1706291997.9557493,0.0,-8.0,0.0,-1.0,-1.0,-1.0,-2.0,-2.0
1706291997.9557493,1.0,-2.0,1.0,-2.0,-2.0,-3.0,0.0,4.0
1706291997.9557493,1.0,4.0,0.0,-2.0,0.0,1.0,8.0,0.0
1706291997.9557493,1.0,3.0,0.0,-1.0,0.0,3.0,5.0,2.0
1706291997.9760017,-2.0,-3.0,-3.0,0.0,-1.0,0.0,-1.0,-25.0
1706291997.9760017,-5.0,-6.0,-3.0,-2.0,-2.0,-4.0,-2.0,33.0
1706291997.9760017,7.0,-6.0,-1.0,-1.0,1.0,-1.0,-5.0,0.0
1706291997.9760017,-4.0,-9.0,-2.0,0.0,-2.0,-3.0,-1.0,-2.0
1706291997.985748,0.0,2.0,-2.0,-2.0,-2.0,0.0,-3.0,12.0
1706291997.985748,-2.0,-2.0,-1.0,-2.0,-2.0,-2.0,-7.0,-10.0
1706291997.9957712,-2.0,-1.0,-3.0,-1.0,-2.0,-3.0,-18.0,-5.0
1706291997.9957712,0.0,0.0,-1.0,-2.0,0.0,0.0,-7.0,3.0
1706291998.0158613,-1.0,1.0,0.0,0.0,1.0,2.0,-3.0,-1.0
1706291998.0158613,1.0,1.0,0.0,0.0,-1.0,-12.0,-4.0,-5.0
1706291998.0158613,-4.0,-3.0,-2.0,-1.0,1.0,2.0,9.0,-1.0
1706291998.0158613,-1.0,-2.0,-1.0,-1.0,0.0,4.0,3.0,-14.0
1706291998.035857,0.0,1.0,-1.0,-3.0,-1.0,-5.0,17.0,2.0
1706291998.035857,-3.0,-4.0,-1.0,-3.0,-1.0,0.0,14.0,3.0
1706291998.035857,-8.0,-5.0,0.0,-1.0,-3.0,-4.0,5.0,-5.0
1706291998.035857,1.0,6.0,-2.0,-3.0,-1.0,0.0,9.0,-2.0
1706291998.0458565,1.0,1.0,-2.0,-2.0,-2.0,2.0,-3.0,5.0
1706291998.0458565,-3.0,-2.0,-3.0,0.0,-2.0,1.0,1.0,2.0
1706291998.0558577,-8.0,-20.0,-1.0,-1.0,-2.0,0.0,-3.0,-4.0
1706291998.0558577,2.0,-2.0,-1.0,1.0,0.0,-4.0,6.0,4.0
1706291998.0658581,-2.0,-2.0,0.0,0.0,-2.0,-2.0,-6.0,-3.0
1706291998.0658581,1.0,2.0,2.0,0.0,1.0,0.0,-2.0,-6.0
1706291998.0758564,-12.0,-24.0,-1.0,1.0,0.0,3.0,-6.0,-1.0
1706291998.0758564,-1.0,5.0,1.0,0.0,1.0,5.0,-22.0,-2.0
1706291998.0961738,3.0,6.0,1.0,0.0,-2.0,-13.0,-8.0,5.0
1706291998.0961738,-2.0,-4.0,-1.0,0.0,0.0,0.0,-20.0,-40.0
1706291998.0961738,2.0,4.0,0.0,1.0,0.0,-5.0,-8.0,44.0
1706291998.0961738,-4.0,-7.0,0.0,1.0,0.0,-1.0,6.0,3.0
1706291998.115856,-3.0,-2.0,0.0,0.0,0.0,1.0,-3.0,-3.0
1706291998.115856,-2.0,-2.0,-1.0,0.0,2.0,7.0,6.0,1.0
1706291998.115856,4.0,11.0,-1.0,0.0,-1.0,-7.0,-11.0,-13.0
1706291998.115856,-2.0,-1.0,0.0,-1.0,-2.0,0.0,12.0,-2.0
1706291998.1258562,-1.0,-1.0,-3.0,-2.0,-4.0,-9.0,-2.0,20.0
1706291998.1258562,-5.0,-3.0,-2.0,0.0,0.0,-1.0,10.0,-7.0
1706291998.1358607,2.0,6.0,0.0,0.0,0.0,2.0,0.0,-22.0
1706291998.1358607,-3.0,-3.0,-2.0,-1.0,-1.0,0.0,-8.0,7.0
1706291998.1558573,-2.0,-5.0,-3.0,-2.0,0.0,4.0,2.0,-9.0
1706291998.1558573,-2.0,-1.0,-2.0,-1.0,-3.0,1.0,10.0,3.0
1706291998.165857,-2.0,5.0,-1.0,-2.0,0.0,-2.0,-18.0,-9.0
1706291998.165857,0.0,-1.0,-1.0,0.0,0.0,-3.0,-8.0,-4.0
1706291998.1714208,-1.0,-1.0,-1.0,0.0,0.0,5.0,21.0,-15.0
1706291998.1714208,-3.0,-1.0,-1.0,-2.0,-2.0,-11.0,-22.0,25.0
1706291998.1802917,8.0,17.0,0.0,-1.0,-2.0,4.0,23.0,6.0
1706291998.1802917,0.0,-4.0,-1.0,-1.0,0.0,-1.0,-17.0,-25.0
1706291998.198444,-2.0,-3.0,-2.0,-1.0,0.0,-1.0,4.0,47.0
1706291998.208445,3.0,-2.0,1.0,0.0,1.0,4.0,-32.0,3.0
1706291998.208445,-6.0,-3.0,-1.0,-1.0,-1.0,4.0,28.0,-14.0
1706291998.208445,-2.0,-3.0,-2.0,-3.0,-4.0,-13.0,21.0,14.0
1706291998.208445,-8.0,-9.0,-4.0,0.0,-2.0,-3.0,-11.0,-41.0
1706291998.208445,-2.0,7.0,-1.0,-3.0,-2.0,-5.0,8.0,-10.0
1706291998.2184446,5.0,1.0,0.0,0.0,1.0,4.0,-22.0,26.0
1706291998.2184446,-3.0,-1.0,-2.0,-2.0,1.0,4.0,3.0,-9.0
1706291998.2284446,-2.0,-4.0,-1.0,-2.0,-2.0,-2.0,-5.0,-6.0
1706291998.2284446,-1.0,-3.0,-2.0,-2.0,0.0,-1.0,-5.0,-7.0
1706291998.2384436,-1.0,-1.0,-1.0,-2.0,-2.0,-2.0,4.0,-14.0
1706291998.2384436,-2.0,0.0,-1.0,-2.0,-1.0,-4.0,7.0,3.0
1706291998.2484443,1.0,2.0,0.0,0.0,-2.0,0.0,0.0,-3.0
1706291998.2484443,2.0,-2.0,-1.0,-1.0,-1.0,-2.0,-36.0,4.0
1706291998.258445,-3.0,2.0,-1.0,-1.0,-1.0,-2.0,3.0,-8.0
1706291998.258445,-2.0,-1.0,-1.0,-2.0,-1.0,1.0,-6.0,0.0
1706291998.2773256,2.0,3.0,-1.0,1.0,0.0,2.0,-7.0,-1.0
1706291998.2773256,-1.0,-4.0,-2.0,0.0,-1.0,-1.0,18.0,9.0
1706291998.2793255,-3.0,-3.0,0.0,-3.0,-2.0,-1.0,-16.0,-27.0
1706291998.2793255,0.0,0.0,1.0,0.0,0.0,1.0,-4.0,5.0
1706291998.2913268,0.0,0.0,0.0,-2.0,1.0,-1.0,2.0,1.0
1706291998.2913268,1.0,-2.0,-1.0,0.0,-2.0,7.0,26.0,-13.0
1706291998.3003566,-1.0,-1.0,-1.0,0.0,-1.0,-13.0,-13.0,-14.0
1706291998.3003566,-1.0,-1.0,-2.0,-2.0,-3.0,0.0,1.0,-7.0
1706291998.3233247,6.0,0.0,0.0,-1.0,2.0,0.0,40.0,34.0
1706291998.3233247,6.0,2.0,-1.0,1.0,-5.0,0.0,22.0,2.0
1706291998.3243246,-6.0,-4.0,-5.0,-2.0,3.0,-6.0,-32.0,-14.0
1706291998.3243246,-2.0,-4.0,-1.0,-2.0,-10.0,-20.0,-2.0,45.0
1706291998.338464,0.0,-1.0,1.0,0.0,4.0,-8.0,-35.0,-23.0
1706291998.338464,-6.0,-1.0,1.0,-1.0,-2.0,-1.0,-18.0,-5.0
1706291998.338464,6.0,-1.0,-3.0,1.0,-1.0,9.0,-5.0,16.0
1706291998.338464,-1.0,-1.0,-1.0,0.0,3.0,4.0,4.0,-11.0
1706291998.358731,-3.0,0.0,-1.0,-2.0,-5.0,3.0,-26.0,-10.0
1706291998.358731,-1.0,-4.0,-2.0,-2.0,1.0,0.0,33.0,6.0
1706291998.358731,-2.0,1.0,-1.0,0.0,-1.0,-6.0,2.0,9.0
1706291998.358731,0.0,1.0,-1.0,-1.0,1.0,4.0,10.0,15.0
1706291998.3884625,1.0,0.0,-2.0,-2.0,-1.0,0.0,2.0,-2.0
1706291998.3884625,-1.0,4.0,3.0,-2.0,0.0,-3.0,-2.0,-12.0
1706291998.3984623,-1.0,-2.0,-1.0,-2.0,-1.0,-2.0,13.0,9.0
1706291998.3984623,1.0,-1.0,-1.0,-1.0,-1.0,5.0,-14.0,-11.0
1706291998.3984623,-4.0,-3.0,-3.0,-2.0,0.0,-4.0,7.0,0.0
1706291998.3984623,-6.0,-5.0,-3.0,-2.0,0.0,-3.0,-11.0,7.0
1706291998.3984623,-1.0,2.0,2.0,-2.0,-2.0,-4.0,2.0,1.0
1706291998.3984623,-6.0,-9.0,-5.0,-3.0,0.0,1.0,-2.0,-2.0
1706291998.4284606,-2.0,0.0,2.0,1.0,1.0,12.0,-6.0,-38.0
1706291998.4284606,13.0,3.0,3.0,0.0,-1.0,-5.0,26.0,65.0
1706291998.4284606,-8.0,0.0,-2.0,-5.0,-8.0,-26.0,-72.0,-58.0
1706291998.4284606,-6.0,-8.0,-2.0,1.0,0.0,-7.0,-12.0,-42.0
1706291998.4284606,2.0,5.0,-5.0,-2.0,0.0,-4.0,25.0,-9.0
1706291998.4284606,3.0,1.0,-1.0,3.0,3.0,10.0,35.0,-16.0
1706291998.438716,0.0,-4.0,-4.0,-4.0,-5.0,-11.0,-61.0,-33.0
1706291998.438716,0.0,5.0,2.0,-1.0,-2.0,-4.0,13.0,49.0
1706291998.4571524,12.0,1.0,1.0,-1.0,-2.0,-4.0,-40.0,-45.0
1706291998.4571524,-7.0,-2.0,-3.0,-2.0,5.0,8.0,0.0,-19.0
1706291998.4591486,5.0,4.0,3.0,2.0,-9.0,-4.0,35.0,36.0
1706291998.4591486,-7.0,-3.0,-3.0,0.0,2.0,4.0,23.0,-25.0
1706291998.4789233,-2.0,-2.0,0.0,-1.0,-3.0,-2.0,-1.0,21.0
1706291998.4789233,-4.0,-1.0,-2.0,-1.0,0.0,-3.0,-18.0,-6.0
1706291998.4943166,1.0,-2.0,-1.0,-2.0,4.0,23.0,24.0,13.0
1706291998.4943166,2.0,7.0,1.0,1.0,0.0,-7.0,-41.0,-13.0
1706291998.4943166,-4.0,-7.0,-5.0,-4.0,-5.0,-1.0,64.0,44.0
1706291998.4943166,6.0,-3.0,-2.0,-7.0,-2.0,-9.0,-57.0,-35.0
1706291998.5027995,-2.0,0.0,3.0,6.0,7.0,7.0,31.0,22.0
1706291998.5027995,3.0,0.0,1.0,6.0,1.0,1.0,3.0,-14.0
1706291998.5173602,0.0,2.0,0.0,1.0,1.0,10.0,3.0,55.0
1706291998.5173602,-5.0,-3.0,-7.0,-5.0,-9.0,-5.0,-40.0,31.0
1706291998.5194025,-21.0,-5.0,-7.0,-10.0,-7.0,-14.0,-3.0,-47.0
1706291998.5194025,8.0,5.0,-2.0,-6.0,0.0,6.0,-7.0,-9.0
1706291998.547626,3.0,7.0,9.0,4.0,-2.0,-26.0,-39.0,-12.0
1706291998.547626,-9.0,-7.0,-5.0,2.0,7.0,33.0,37.0,-4.0
1706291998.547626,-5.0,-2.0,2.0,0.0,1.0,0.0,10.0,6.0
1706291998.547626,-3.0,-1.0,0.0,1.0,6.0,-1.0,-3.0,30.0
1706291998.5556087,-5.0,5.0,2.0,-1.0,-5.0,1.0,0.0,-20.0
1706291998.5556087,2.0,-1.0,-3.0,-2.0,-8.0,-7.0,6.0,-14.0
1706291998.5615919,6.0,-2.0,7.0,6.0,5.0,5.0,17.0,53.0
1706291998.5615919,-1.0,-4.0,-10.0,-8.0,-6.0,-3.0,22.0,7.0
1706291998.577557,9.0,-1.0,0.0,-2.0,3.0,-2.0,-19.0,18.0
1706291998.577557,-19.0,-3.0,0.0,0.0,-1.0,0.0,20.0,18.0
1706291998.5804179,1.0,-3.0,-2.0,3.0,11.0,-9.0,1.0,4.0
1706291998.5804179,-3.0,-3.0,-1.0,-2.0,-15.0,6.0,-29.0,-22.0
1706291998.6041198,3.0,-5.0,-4.0,-2.0,2.0,-9.0,-85.0,-46.0
1706291998.6041198,-4.0,-1.0,2.0,0.0,-4.0,-9.0,18.0,-10.0
1706291998.6041198,7.0,-1.0,-5.0,-3.0,-2.0,12.0,-28.0,-55.0
1706291998.6041198,7.0,-1.0,2.0,-1.0,1.0,-11.0,-16.0,44.0
1706291998.614124,-25.0,10.0,-2.0,1.0,0.0,9.0,-6.0,-29.0
1706291998.614124,34.0,8.0,11.0,3.0,0.0,-28.0,-87.0,-75.0
1706291998.6223924,-9.0,0.0,-6.0,-3.0,-2.0,19.0,-11.0,27.0
1706291998.6223924,-16.0,-6.0,-8.0,-6.0,-3.0,-17.0,63.0,-18.0
1706291998.6383908,-10.0,-12.0,-8.0,-3.0,-2.0,-8.0,33.0,7.0
1706291998.6383908,-11.0,-12.0,-8.0,-8.0,-5.0,-7.0,5.0,2.0
1706291998.6563895,6.0,3.0,3.0,2.0,3.0,16.0,56.0,-52.0
1706291998.6563895,16.0,5.0,8.0,5.0,3.0,9.0,10.0,31.0
1706291998.660389,1.0,-7.0,-7.0,-3.0,-5.0,-7.0,-24.0,-29.0
1706291998.660389,-27.0,0.0,4.0,5.0,-1.0,-3.0,8.0,-3.0
1706291998.6613898,-3.0,-10.0,-10.0,-6.0,-2.0,-5.0,28.0,11.0
1706291998.6613898,-14.0,-6.0,-3.0,-3.0,3.0,17.0,-31.0,-23.0
1706291998.6735885,-3.0,-8.0,-4.0,-2.0,-4.0,-5.0,13.0,36.0
1706291998.6743944,5.0,3.0,0.0,0.0,1.0,-8.0,-26.0,35.0
1706291998.6823897,22.0,1.0,1.0,-1.0,-4.0,-3.0,27.0,-5.0
1706291998.6823897,5.0,2.0,1.0,0.0,2.0,11.0,-12.0,45.0
1706291998.6975923,4.0,2.0,8.0,3.0,2.0,15.0,-3.0,23.0
1706291998.6975923,-6.0,-9.0,-12.0,-8.0,-3.0,-14.0,30.0,-7.0
1706291998.6994028,14.0,0.0,-1.0,-5.0,-8.0,-2.0,-17.0,9.0
1706291998.6994028,3.0,1.0,6.0,4.0,0.0,-12.0,43.0,59.0
1706291998.7283885,-4.0,-11.0,-9.0,-3.0,-1.0,17.0,32.0,-86.0
1706291998.7283885,-4.0,-3.0,-5.0,-6.0,-1.0,22.0,-45.0,-25.0
1706291998.7283885,-5.0,-4.0,1.0,6.0,-4.0,-22.0,-5.0,-3.0
1706291998.7283885,11.0,11.0,8.0,1.0,1.0,2.0,1.0,-35.0
1706291998.7342482,17.0,-11.0,-16.0,-7.0,-6.0,-10.0,-3.0,-22.0
1706291998.7342482,1.0,-2.0,0.0,-1.0,3.0,-7.0,9.0,42.0
1706291998.7431805,-4.0,15.0,8.0,7.0,5.0,12.0,-61.0,-1.0
1706291998.7431805,8.0,9.0,-7.0,-6.0,-5.0,10.0,58.0,-10.0
1706291998.75778,-14.0,-5.0,-2.0,-3.0,2.0,1.0,40.0,56.0
1706291998.75778,-1.0,-8.0,-12.0,-6.0,-6.0,-16.0,23.0,-19.0
1706291998.7588136,-4.0,2.0,1.0,-2.0,-1.0,-1.0,-17.0,31.0
1706291998.759778,-3.0,5.0,5.0,2.0,-2.0,-4.0,-19.0,47.0
1706291998.7802398,8.0,7.0,4.0,2.0,2.0,3.0,-4.0,39.0
1706291998.7802398,1.0,3.0,6.0,4.0,0.0,5.0,5.0,6.0
1706291998.781767,-12.0,-1.0,1.0,-1.0,-3.0,-4.0,13.0,23.0
1706291998.781767,-5.0,-8.0,-4.0,-2.0,2.0,-1.0,-28.0,-25.0
1706291998.7942271,-10.0,-4.0,-1.0,-5.0,-4.0,-8.0,33.0,-6.0
1706291998.7942271,2.0,2.0,0.0,3.0,-1.0,-4.0,5.0,5.0
1706291998.8022451,-5.0,-8.0,-6.0,-5.0,-2.0,-8.0,13.0,10.0
1706291998.8031986,-7.0,-5.0,-6.0,-3.0,-2.0,5.0,4.0,-49.0
1706291998.8152487,-4.0,7.0,7.0,5.0,5.0,-44.0,-104.0,-3.0
1706291998.8152487,12.0,2.0,-4.0,0.0,3.0,32.0,61.0,39.0
1706291998.8152487,-8.0,-7.0,-13.0,-11.0,-4.0,-14.0,48.0,12.0
1706291998.8152487,-13.0,-20.0,-16.0,-5.0,-6.0,-11.0,4.0,-22.0
1706291998.8447828,-5.0,-2.0,-4.0,-4.0,-3.0,-17.0,-34.0,-15.0
1706291998.8447828,-14.0,4.0,4.0,1.0,-3.0,-23.0,-24.0,-19.0
1706291998.8447828,-4.0,1.0,0.0,0.0,3.0,22.0,32.0,3.0
1706291998.8447828,-6.0,-9.0,-7.0,-4.0,1.0,11.0,18.0,2.0
1706291998.8447828,1.0,0.0,-1.0,1.0,1.0,9.0,-6.0,-8.0
1706291998.854789,-5.0,-19.0,-13.0,-5.0,-5.0,-6.0,-11.0,-12.0
1706291998.854789,1.0,-2.0,-2.0,0.0,-4.0,-3.0,2.0,-13.0
1706291998.854789,-1.0,9.0,7.0,1.0,2.0,-10.0,-22.0,-22.0
1706291998.8748078,-3.0,-16.0,-8.0,-7.0,-4.0,1.0,14.0,20.0
1706291998.8748078,-7.0,4.0,5.0,1.0,0.0,29.0,44.0,0.0
1706291998.8748078,4.0,4.0,6.0,4.0,4.0,-7.0,-24.0,-7.0
1706291998.8748078,6.0,-2.0,2.0,3.0,2.0,-31.0,-25.0,15.0
1706291998.8948953,-3.0,7.0,4.0,3.0,-3.0,-6.0,15.0,15.0
1706291998.8948953,-13.0,0.0,-1.0,-4.0,-5.0,-6.0,13.0,-1.0
1706291998.8948953,-4.0,-6.0,-8.0,-5.0,-4.0,25.0,-4.0,23.0
1706291998.8948953,4.0,5.0,0.0,2.0,-1.0,-1.0,-10.0,-34.0
1706291998.9047818,9.0,4.0,8.0,9.0,9.0,12.0,27.0,0.0
1706291998.9047818,-3.0,13.0,1.0,-1.0,0.0,-2.0,2.0,4.0
1706291998.9147823,13.0,1.0,1.0,2.0,0.0,-16.0,-13.0,100.0
1706291998.9147823,6.0,-11.0,-8.0,-7.0,-1.0,11.0,68.0,3.0
1706291998.934781,-7.0,-1.0,2.0,-5.0,-9.0,11.0,18.0,-5.0
1706291998.934781,6.0,0.0,-4.0,-2.0,0.0,2.0,-6.0,10.0
1706291998.934781,-4.0,-5.0,-3.0,-3.0,-1.0,-18.0,-6.0,-13.0
1706291998.934781,-11.0,-8.0,-2.0,17.0,-1.0,-10.0,-26.0,8.0
1706291998.9615872,1.0,5.0,4.0,-6.0,6.0,-1.0,14.0,-5.0
1706291998.9615872,8.0,-5.0,-3.0,-2.0,0.0,-9.0,27.0,-11.0
1706291998.9615872,-2.0,10.0,8.0,-3.0,-1.0,7.0,6.0,-31.0
1706291998.9615872,-9.0,-8.0,-6.0,-9.0,-10.0,-6.0,-23.0,-2.0
1706291998.973581,-6.0,-2.0,-3.0,0.0,-1.0,19.0,-45.0,-11.0
1706291998.973581,0.0,-1.0,-2.0,3.0,0.0,-37.0,-49.0,16.0
1706291998.9825647,-5.0,-4.0,1.0,0.0,2.0,4.0,0.0,-9.0
1706291998.9825647,1.0,5.0,2.0,2.0,2.0,13.0,-1.0,11.0
1706291998.9985833,-5.0,4.0,2.0,-1.0,-1.0,21.0,20.0,33.0
1706291998.9985833,3.0,-1.0,0.0,-5.0,-5.0,3.0,-29.0,-8.0
1706291998.9995735,-2.0,0.0,0.0,2.0,1.0,0.0,-6.0,-19.0
1706291998.9995735,2.0,4.0,4.0,-1.0,4.0,-5.0,-10.0,24.0
1706291999.0205853,-4.0,-2.0,7.0,14.0,-5.0,-2.0,4.0,13.0
1706291999.0205853,6.0,7.0,10.0,1.0,5.0,2.0,-4.0,5.0
1706291999.0215871,-6.0,-4.0,-17.0,-30.0,-3.0,-3.0,-10.0,6.0
1706291999.0215871,2.0,-7.0,-7.0,-4.0,-12.0,-16.0,-19.0,-43.0
1706291999.0337403,4.0,2.0,-8.0,-29.0,1.0,1.0,8.0,2.0
1706291999.0337403,-1.0,-7.0,-3.0,17.0,5.0,-3.0,-8.0,-10.0
1706291999.04275,-1.0,1.0,2.0,15.0,7.0,30.0,44.0,-6.0
1706291999.04275,-11.0,-24.0,-10.0,-6.0,5.0,19.0,2.0,2.0
1706291999.054661,0.0,6.0,10.0,10.0,-6.0,-26.0,4.0,-9.0
1706291999.054661,-16.0,-1.0,-1.0,-7.0,-10.0,-32.0,-49.0,-107.0
1706291999.054661,10.0,4.0,4.0,0.0,-4.0,26.0,64.0,39.0
1706291999.054661,1.0,8.0,4.0,0.0,-5.0,1.0,-5.0,21.0
1706291999.0750368,12.0,-5.0,-3.0,2.0,-2.0,-9.0,6.0,4.0
1706291999.0750368,-6.0,-1.0,2.0,-7.0,2.0,12.0,14.0,9.0
1706291999.0750368,-7.0,-10.0,-4.0,-3.0,-5.0,-21.0,-42.0,-32.0
1706291999.0750368,-8.0,-11.0,-10.0,-8.0,-3.0,2.0,-18.0,-17.0
1706291999.0946653,1.0,7.0,2.0,-2.0,0.0,-9.0,4.0,2.0
1706291999.0946653,10.0,10.0,2.0,5.0,4.0,1.0,-16.0,22.0
1706291999.0946653,-4.0,-4.0,2.0,11.0,-3.0,3.0,15.0,-15.0
1706291999.0946653,8.0,14.0,36.0,44.0,-14.0,-1.0,-8.0,11.0
1706291999.1166494,-13.0,-13.0,-15.0,-2.0,24.0,-4.0,4.0,-15.0
1706291999.1166494,7.0,-2.0,-22.0,-17.0,9.0,6.0,4.0,26.0
1706291999.1236317,0.0,2.0,-3.0,-3.0,-4.0,0.0,-2.0,-16.0
1706291999.124333,-2.0,3.0,-5.0,-20.0,-5.0,-29.0,-6.0,-10.0
1706291999.137864,3.0,1.0,9.0,8.0,-21.0,-12.0,23.0,90.0
1706291999.137864,-6.0,-8.0,6.0,6.0,-5.0,25.0,-14.0,-36.0
1706291999.137864,-19.0,-11.0,-12.0,-15.0,-4.0,8.0,-14.0,-56.0
1706291999.137864,-4.0,4.0,6.0,-1.0,-4.0,9.0,56.0,91.0
1706291999.1578639,23.0,-1.0,-3.0,2.0,4.0,6.0,5.0,4.0
1706291999.1578639,10.0,-7.0,-6.0,-8.0,-3.0,-9.0,31.0,34.0
1706291999.1679788,-8.0,2.0,4.0,0.0,-2.0,-12.0,-8.0,19.0
1706291999.1679788,-10.0,4.0,-3.0,-2.0,4.0,-11.0,-66.0,-34.0
1706291999.1679788,-12.0,-1.0,-1.0,1.0,1.0,6.0,-4.0,-25.0
1706291999.1679788,-1.0,-2.0,-4.0,-4.0,-3.0,6.0,15.0,24.0
1706291999.1779523,10.0,3.0,7.0,9.0,-1.0,-14.0,-23.0,6.0
1706291999.1779523,8.0,7.0,8.0,-6.0,2.0,10.0,-1.0,-15.0
1706291999.198198,-5.0,0.0,14.0,36.0,-5.0,-1.0,-9.0,-11.0
1706291999.198198,0.0,-6.0,-46.0,-84.0,11.0,17.0,1.0,-15.0
1706291999.198198,-3.0,-12.0,-29.0,-20.0,10.0,-4.0,-6.0,8.0
1706291999.198198,4.0,4.0,0.0,7.0,7.0,-1.0,4.0,-11.0
1706291999.2135105,-7.0,-4.0,-14.0,-22.0,-20.0,-7.0,-4.0,-21.0
1706291999.2135105,-1.0,2.0,33.0,29.0,-14.0,-6.0,5.0,20.0
1706291999.2286563,9.0,1.0,-1.0,30.0,16.0,-1.0,-8.0,12.0
1706291999.2297013,5.0,-2.0,-10.0,0.0,8.0,-2.0,19.0,-7.0
1706291999.2378793,-12.0,-3.0,5.0,10.0,-3.0,3.0,-12.0,-10.0
1706291999.2378793,0.0,5.0,12.0,9.0,-12.0,-4.0,12.0,-5.0
1706291999.2378793,8.0,8.0,3.0,-14.0,-9.0,-13.0,26.0,34.0
1706291999.2378793,-5.0,0.0,3.0,3.0,-1.0,20.0,-18.0,-73.0
1706291999.2605736,-15.0,-6.0,-4.0,-13.0,-2.0,-10.0,-17.0,-6.0
1706291999.2605736,3.0,-2.0,-4.0,0.0,2.0,0.0,14.0,-5.0
1706291999.2618268,3.0,5.0,7.0,4.0,-4.0,-40.0,9.0,-59.0
1706291999.2618268,-3.0,1.0,-1.0,-1.0,1.0,-18.0,53.0,48.0
1706291999.2825122,3.0,-2.0,-11.0,-18.0,5.0,46.0,-1.0,-40.0
1706291999.2825122,-5.0,3.0,5.0,13.0,0.0,-31.0,-18.0,-12.0
1706291999.2841215,-7.0,-8.0,5.0,5.0,-9.0,6.0,-20.0,14.0
1706291999.2841215,12.0,0.0,-1.0,-6.0,1.0,-4.0,-5.0,5.0
1706291999.2972498,-1.0,-6.0,2.0,13.0,6.0,-6.0,-6.0,-10.0
1706291999.2972498,-1.0,-6.0,-8.0,19.0,8.0,17.0,12.0,22.0
1706291999.3042037,0.0,7.0,23.0,29.0,-7.0,-3.0,-18.0,0.0
1706291999.3042037,-4.0,-11.0,-34.0,-27.0,18.0,8.0,-4.0,2.0
1706291999.3209074,4.0,5.0,-6.0,-36.0,6.0,15.0,19.0,24.0
1706291999.3209074,-8.0,-16.0,-21.0,-29.0,-3.0,-9.0,-12.0,-12.0
1706291999.3209074,-1.0,0.0,1.0,16.0,-5.0,-6.0,-16.0,1.0
1706291999.3209074,6.0,16.0,19.0,9.0,-6.0,8.0,-6.0,0.0
1706291999.3411856,2.0,-1.0,4.0,18.0,6.0,-12.0,-2.0,-2.0
1706291999.3411856,-1.0,1.0,6.0,-3.0,0.0,2.0,-2.0,16.0
1706291999.3411856,-2.0,3.0,-1.0,-16.0,-4.0,1.0,-24.0,-51.0
1706291999.3411856,-2.0,3.0,11.0,1.0,-7.0,0.0,4.0,14.0
1706291999.3511777,-3.0,0.0,-5.0,-1.0,5.0,-7.0,-17.0,-58.0
1706291999.3511777,-4.0,0.0,3.0,3.0,0.0,-14.0,-62.0,-25.0
1706291999.3851519,2.0,-1.0,-6.0,-7.0,0.0,28.0,57.0,28.0
1706291999.3851519,-3.0,-2.0,-6.0,-2.0,-5.0,-21.0,14.0,-14.0
1706291999.3871522,-9.0,-14.0,-12.0,-17.0,-13.0,-3.0,-32.0,73.0
1706291999.3871522,6.0,2.0,4.0,14.0,1.0,11.0,9.0,-41.0
1706291999.3915372,10.0,1.0,2.0,4.0,7.0,14.0,-13.0,7.0
1706291999.3915372,-3.0,-1.0,-5.0,-5.0,1.0,-16.0,-81.0,-18.0
1706291999.4028895,-3.0,-1.0,-2.0,-5.0,-6.0,-11.0,30.0,27.0
1706291999.403916,-3.0,-9.0,2.0,12.0,-5.0,10.0,41.0,26.0
1706291999.403916,-1.0,-1.0,-7.0,-15.0,2.0,-2.0,-17.0,14.0
1706291999.403916,-10.0,-16.0,-9.0,-10.0,-5.0,9.0,14.0,-1.0
1706291999.414177,6.0,7.0,6.0,9.0,-7.0,-16.0,-7.0,-7.0
1706291999.414177,2.0,5.0,6.0,-2.0,3.0,-1.0,-16.0,6.0
1706291999.4242072,-12.0,-27.0,-6.0,8.0,4.0,1.0,3.0,-18.0
1706291999.4242072,-2.0,-5.0,-34.0,-46.0,0.0,4.0,1.0,15.0
1706291999.4539142,18.0,10.0,4.0,21.0,8.0,-13.0,54.0,52.0
1706291999.4539142,-15.0,0.0,-1.0,2.0,-4.0,31.0,15.0,19.0
1706291999.4539142,-3.0,1.0,3.0,-5.0,-4.0,-7.0,-14.0,-1.0
1706291999.4539142,-4.0,1.0,16.0,15.0,-7.0,-8.0,-18.0,-13.0
1706291999.4539142,2.0,-4.0,-1.0,-8.0,-6.0,11.0,17.0,-5.0
1706291999.4539142,8.0,10.0,8.0,-1.0,-3.0,-9.0,4.0,17.0
1706291999.4639215,-5.0,-3.0,-2.0,-7.0,0.0,-17.0,-22.0,8.0
1706291999.4639215,-3.0,-5.0,4.0,19.0,4.0,8.0,-19.0,-6.0
1706291999.474361,6.0,4.0,-18.0,-39.0,0.0,2.0,-13.0,-23.0
1706291999.474361,-6.0,-5.0,0.0,22.0,-2.0,-5.0,1.0,-27.0
1706291999.4839172,-2.0,5.0,-1.0,-11.0,-7.0,-29.0,10.0,-13.0
1706291999.4839172,3.0,5.0,7.0,7.0,-2.0,28.0,-53.0,2.0
1706291999.4939156,-5.0,-2.0,0.0,1.0,1.0,2.0,-13.0,-6.0
1706291999.4939156,4.0,4.0,-1.0,-9.0,-5.0,-9.0,-3.0,5.0
1706291999.5039585,3.0,1.0,-2.0,5.0,3.0,2.0,-9.0,12.0
1706291999.5039585,-1.0,2.0,10.0,29.0,-3.0,-2.0,30.0,3.0
1706291999.5142174,-3.0,-3.0,6.0,-13.0,-1.0,4.0,9.0,-13.0
1706291999.5142174,2.0,0.0,-12.0,7.0,7.0,1.0,-35.0,2.0
1706291999.5239213,-1.0,0.0,-15.0,-18.0,3.0,1.0,12.0,15.0
1706291999.5239213,4.0,1.0,3.0,4.0,-3.0,-5.0,14.0,9.0
1706291999.5341518,-2.0,6.0,22.0,47.0,-2.0,3.0,-15.0,-19.0
1706291999.5341518,6.0,-3.0,-8.0,-36.0,-4.0,-12.0,52.0,30.0
1706291999.56844,-5.0,2.0,0.0,3.0,-1.0,6.0,6.0,9.0
1706291999.5694416,-4.0,-5.0,-7.0,-24.0,-7.0,-6.0,21.0,-22.0
1706291999.5694416,-6.0,-7.0,-8.0,0.0,2.0,-3.0,-18.0,-19.0
1706291999.5694416,0.0,0.0,11.0,21.0,0.0,1.0,2.0,38.0
1706291999.5694416,2.0,-2.0,1.0,4.0,-2.0,6.0,-8.0,-28.0
1706291999.5694416,-1.0,10.0,-2.0,-9.0,0.0,-6.0,13.0,-10.0
1706291999.5829315,10.0,4.0,3.0,3.0,0.0,10.0,58.0,84.0
1706291999.5829315,3.0,0.0,-1.0,1.0,-1.0,-13.0,-7.0,-6.0
1706291999.5849385,2.0,2.0,-1.0,-8.0,0.0,30.0,0.0,36.0
1706291999.5849385,-4.0,-3.0,0.0,5.0,1.0,-5.0,-38.0,-95.0
1706291999.5874283,6.0,-3.0,-8.0,-10.0,-1.0,-5.0,-12.0,-6.0
1706291999.5874283,1.0,3.0,3.0,8.0,2.0,16.0,27.0,37.0
1706291999.6274242,-6.0,-1.0,3.0,0.0,-3.0,-11.0,-35.0,-38.0
1706291999.6274242,1.0,-8.0,0.0,-3.0,2.0,-11.0,9.0,23.0
1706291999.6274242,-4.0,3.0,-1.0,0.0,1.0,2.0,-11.0,-19.0
1706291999.6274242,-5.0,-8.0,-1.0,0.0,-4.0,-7.0,-3.0,-35.0
1706291999.6274242,-1.0,2.0,5.0,-14.0,-2.0,-9.0,-2.0,7.0
1706291999.6274242,3.0,3.0,-1.0,13.0,2.0,19.0,3.0,31.0
1706291999.6377604,-6.0,-3.0,8.0,2.0,-6.0,-21.0,-35.0,-25.0
1706291999.6377604,0.0,-6.0,-2.0,-5.0,-1.0,0.0,-4.0,13.0
1706291999.6377604,6.0,2.0,-11.0,14.0,-3.0,-2.0,11.0,9.0
1706291999.6377604,-4.0,-15.0,-3.0,-59.0,1.0,-1.0,17.0,9.0
1706291999.667594,-3.0,2.0,-22.0,-2.0,-4.0,6.0,-14.0,-26.0
1706291999.667594,-3.0,0.0,9.0,35.0,-6.0,-8.0,-12.0,-9.0
1706291999.667594,0.0,-4.0,-8.0,-13.0,-3.0,-1.0,3.0,0.0
1706291999.667594,-3.0,-20.0,17.0,46.0,-6.0,-7.0,3.0,20.0
1706291999.6796265,-5.0,3.0,-1.0,-17.0,1.0,-4.0,23.0,-4.0
1706291999.680594,2.0,-1.0,-15.0,-36.0,-2.0,10.0,45.0,25.0
1706291999.6815956,0.0,5.0,12.0,11.0,-4.0,-10.0,-10.0,-48.0
1706291999.6815956,1.0,-8.0,-14.0,6.0,4.0,-1.0,-2.0,16.0
1706291999.7055998,-18.0,4.0,11.0,-4.0,-5.0,-4.0,-2.0,-30.0
1706291999.7055998,-2.0,4.0,3.0,23.0,8.0,2.0,-6.0,-20.0
1706291999.7055998,13.0,0.0,-9.0,-18.0,2.0,-4.0,10.0,1.0
1706291999.7055998,2.0,5.0,5.0,3.0,2.0,1.0,24.0,6.0
1706291999.7215958,-5.0,-13.0,-4.0,0.0,-1.0,-4.0,-51.0,9.0
1706291999.7215958,8.0,6.0,0.0,-7.0,-1.0,-1.0,-13.0,21.0
1706291999.7315946,-21.0,-7.0,6.0,5.0,-3.0,-2.0,-7.0,-24.0
1706291999.7315946,-1.0,6.0,-8.0,-10.0,0.0,0.0,4.0,-2.0
1706291999.7406359,-4.0,-3.0,-1.0,5.0,2.0,-8.0,-18.0,16.0
1706291999.7406359,0.0,0.0,0.0,0.0,-3.0,-1.0,-63.0,-105.0
1706291999.7415943,-3.0,-5.0,0.0,0.0,-1.0,4.0,-10.0,7.0
1706291999.7415943,5.0,9.0,-3.0,2.0,-1.0,3.0,-13.0,-3.0
1706291999.7625942,-3.0,2.0,-3.0,-4.0,3.0,-3.0,18.0,4.0
1706291999.7625942,2.0,-7.0,3.0,-3.0,1.0,-9.0,-2.0,10.0
1706291999.7635934,5.0,1.0,0.0,1.0,3.0,1.0,12.0,16.0
1706291999.7635934,-5.0,1.0,-3.0,-5.0,-2.0,-7.0,-5.0,-2.0
1706291999.7756205,4.0,-4.0,1.0,4.0,-4.0,7.0,14.0,5.0
1706291999.7766314,-5.0,1.0,2.0,13.0,-2.0,3.0,3.0,9.0
1706291999.7876153,0.0,2.0,-1.0,-7.0,1.0,-5.0,0.0,10.0
1706291999.7876153,1.0,2.0,2.0,7.0,-6.0,-4.0,2.0,14.0
1706291999.800669,2.0,-5.0,-8.0,-18.0,1.0,3.0,19.0,7.0
1706291999.800669,0.0,5.0,-9.0,-15.0,4.0,6.0,-17.0,11.0
1706291999.801643,-3.0,-4.0,-5.0,3.0,-7.0,-7.0,-27.0,-1.0
1706291999.801643,4.0,-1.0,-2.0,0.0,3.0,4.0,7.0,3.0
1706291999.823616,-3.0,-5.0,0.0,3.0,-7.0,-4.0,-14.0,-30.0
1706291999.823616,-1.0,1.0,1.0,-1.0,-1.0,-2.0,-63.0,-61.0
1706291999.8245986,-4.0,-1.0,-1.0,-2.0,0.0,6.0,4.0,6.0
1706291999.8245986,-10.0,-7.0,-7.0,-4.0,-6.0,-20.0,-21.0,-10.0
1706291999.844617,10.0,3.0,3.0,5.0,0.0,6.0,2.0,17.0
1706291999.844617,4.0,0.0,1.0,-4.0,1.0,4.0,31.0,41.0
1706291999.8465943,-2.0,2.0,2.0,3.0,1.0,-2.0,15.0,13.0
1706291999.8465943,2.0,2.0,2.0,1.0,-1.0,4.0,-10.0,14.0
1706291999.860598,-6.0,3.0,5.0,7.0,3.0,-2.0,1.0,2.0
1706291999.860598,-4.0,-10.0,-6.0,-7.0,-6.0,-6.0,16.0,43.0
1706291999.8626301,10.0,1.0,1.0,-2.0,-2.0,-3.0,7.0,-8.0
1706291999.8626301,1.0,3.0,-2.0,-1.0,1.0,2.0,-2.0,-11.0
1706291999.883594,3.0,-3.0,-3.0,-1.0,0.0,-3.0,1.0,50.0
1706291999.883594,-2.0,3.0,4.0,-2.0,-1.0,-7.0,-27.0,-9.0
1706291999.8845942,-9.0,0.0,2.0,3.0,2.0,-6.0,-4.0,14.0
1706291999.8845942,12.0,-4.0,-2.0,-5.0,-1.0,3.0,-14.0,11.0
1706291999.900594,4.0,-3.0,0.0,1.0,3.0,16.0,31.0,66.0
1706291999.900594,-14.0,-10.0,-9.0,-4.0,-8.0,-14.0,-18.0,-107.0
1706291999.9045987,5.0,-5.0,-4.0,-2.0,2.0,0.0,-5.0,-2.0
1706291999.9055963,-12.0,-9.0,-11.0,-6.0,-1.0,1.0,15.0,17.0
1706291999.9216092,0.0,0.0,-3.0,-3.0,-4.0,-3.0,-51.0,-66.0
1706291999.9216092,-11.0,2.0,5.0,3.0,1.0,3.0,61.0,44.0
1706291999.9246025,-15.0,-10.0,-3.0,-5.0,-6.0,4.0,-30.0,-43.0
1706291999.9246025,-16.0,-4.0,-5.0,-5.0,-2.0,-6.0,12.0,-11.0
1706291999.9455924,1.0,0.0,-2.0,2.0,2.0,17.0,16.0,28.0
1706291999.9455924,4.0,0.0,-3.0,-5.0,-2.0,-10.0,-26.0,-85.0
1706291999.9455924,1.0,2.0,-2.0,-3.0,-3.0,-12.0,-17.0,-12.0
1706291999.9455924,-3.0,5.0,4.0,-1.0,-2.0,8.0,12.0,15.0
1706291999.9565988,-4.0,-1.0,-4.0,-1.0,-2.0,-6.0,-1.0,-38.0
1706291999.9565988,15.0,0.0,1.0,0.0,0.0,14.0,27.0,97.0
1706291999.964596,-6.0,-3.0,-1.0,0.0,-4.0,-14.0,13.0,-41.0
1706291999.964596,9.0,5.0,4.0,-1.0,-1.0,-5.0,8.0,62.0
1706291999.9800792,-24.0,-4.0,-5.0,-2.0,-1.0,-6.0,-23.0,-85.0
1706291999.9800792,-12.0,-6.0,-5.0,-4.0,-3.0,-6.0,-52.0,-63.0
1706291999.982107,1.0,-2.0,-1.0,1.0,1.0,9.0,12.0,16.0
1706291999.982107,6.0,-1.0,-3.0,-4.0,-1.0,-2.0,-6.0,19.0
1706292000.004073,-2.0,1.0,0.0,-1.0,0.0,-4.0,0.0,-48.0
1706292000.004073,-6.0,-2.0,-2.0,-2.0,-1.0,-4.0,1.0,30.0
1706292000.005126,-1.0,0.0,0.0,0.0,-2.0,3.0,18.0,-37.0
1706292000.005126,-6.0,-2.0,-1.0,-2.0,-2.0,-3.0,-38.0,-128.0
1706292000.0170765,10.0,-2.0,0.0,1.0,0.0,-7.0,-18.0,65.0
1706292000.0170765,3.0,0.0,-2.0,-2.0,0.0,1.0,12.0,10.0
1706292000.0251153,7.0,3.0,3.0,2.0,3.0,6.0,17.0,24.0
1706292000.0251153,1.0,3.0,4.0,3.0,2.0,6.0,9.0,2.0
1706292000.0400844,-1.0,-3.0,1.0,-2.0,-2.0,-9.0,-2.0,-4.0
1706292000.0400844,-2.0,0.0,-2.0,0.0,-1.0,0.0,-3.0,-4.0
1706292000.046099,-6.0,-1.0,0.0,-3.0,-2.0,-3.0,-11.0,17.0
1706292000.046099,-5.0,0.0,1.0,0.0,-1.0,4.0,-20.0,-21.0
1706292000.0680711,5.0,-1.0,-3.0,-2.0,-4.0,-2.0,5.0,43.0
1706292000.0680711,-1.0,-1.0,3.0,0.0,1.0,-3.0,25.0,21.0
1706292000.0680711,3.0,3.0,0.0,0.0,1.0,5.0,2.0,16.0
1706292000.0680711,4.0,-1.0,0.0,1.0,-1.0,-10.0,0.0,15.0
1706292000.0761116,4.0,-2.0,-3.0,-4.0,0.0,0.0,3.0,-13.0
1706292000.0761116,-1.0,-1.0,0.0,-1.0,0.0,1.0,3.0,-9.0
1706292000.085072,4.0,0.0,-4.0,1.0,-2.0,-4.0,2.0,32.0
1706292000.085072,-3.0,-2.0,-1.0,-1.0,0.0,1.0,9.0,-2.0
1706292000.1100736,-5.0,-1.0,0.0,0.0,-2.0,0.0,3.0,-12.0
1706292000.1100736,1.0,0.0,-2.0,0.0,-1.0,4.0,8.0,15.0
1706292000.1100736,0.0,0.0,-2.0,0.0,1.0,-2.0,-8.0,5.0
1706292000.1100736,0.0,2.0,-3.0,0.0,0.0,0.0,3.0,10.0
1706292000.123075,0.0,0.0,0.0,-1.0,4.0,-2.0,4.0,-8.0
1706292000.123075,-1.0,-2.0,0.0,0.0,-11.0,-1.0,-13.0,4.0
1706292000.124077,2.0,-3.0,-2.0,-3.0,2.0,-7.0,-28.0,-7.0
1706292000.124077,-4.0,-1.0,0.0,-2.0,-3.0,-1.0,-1.0,-18.0
1706292000.1361053,6.0,0.0,-2.0,0.0,2.0,-2.0,7.0,1.0
1706292000.1361053,-1.0,-1.0,-1.0,-1.0,2.0,1.0,47.0,52.0
1706292000.1450722,-5.0,-2.0,-2.0,0.0,-2.0,-1.0,16.0,-10.0
1706292000.1450722,-1.0,-1.0,-2.0,-1.0,0.0,1.0,-7.0,-2.0
1706292000.1700733,3.0,-2.0,-2.0,-1.0,-5.0,-5.0,-4.0,-33.0
1706292000.1700733,14.0,1.0,0.0,1.0,1.0,1.0,-14.0,-2.0
1706292000.173082,-1.0,0.0,-1.0,0.0,-1.0,2.0,-1.0,5.0
1706292000.173082,1.0,2.0,0.0,-1.0,0.0,-5.0,-6.0,19.0
1706292000.1821084,-7.0,-1.0,-1.0,-2.0,-4.0,2.0,12.0,-9.0
1706292000.1821084,-4.0,-1.0,0.0,-1.0,0.0,-2.0,-7.0,-9.0
1706292000.1841035,0.0,-1.0,0.0,-1.0,0.0,-1.0,3.0,16.0
1706292000.1841035,1.0,-1.0,-3.0,-1.0,-2.0,0.0,1.0,-6.0
1706292000.1961071,0.0,0.0,-1.0,-2.0,-2.0,1.0,0.0,30.0
1706292000.1961071,-3.0,-1.0,-1.0,-3.0,1.0,-1.0,-2.0,-3.0
1706292000.2050788,0.0,-1.0,-1.0,-2.0,0.0,-1.0,-9.0,-5.0
1706292000.2050788,-2.0,0.0,1.0,-1.0,-1.0,1.0,11.0,14.0
1706292000.231071,-1.0,8.0,2.0,1.0,-3.0,2.0,0.0,-1.0
1706292000.231071,-5.0,-22.0,-6.0,-1.0,0.0,-3.0,-13.0,-20.0
1706292000.231071,-2.0,0.0,0.0,-2.0,0.0,1.0,2.0,3.0
1706292000.231071,-2.0,-2.0,2.0,-2.0,-3.0,-2.0,1.0,0.0
1706292000.243072,-2.0,-3.0,0.0,-1.0,0.0,-3.0,1.0,4.0
1706292000.243072,-2.0,5.0,-1.0,0.0,-2.0,-1.0,-3.0,-5.0
1706292000.244105,-1.0,1.0,-1.0,-1.0,-1.0,0.0,-2.0,9.0
1706292000.244105,-1.0,-2.0,-3.0,0.0,-1.0,0.0,3.0,4.0
1706292000.2660718,1.0,2.0,-1.0,0.0,-1.0,1.0,-4.0,-3.0
1706292000.2660718,-4.0,4.0,2.0,0.0,1.0,-2.0,-1.0,2.0
1706292000.2731295,0.0,-1.0,-1.0,0.0,-2.0,1.0,-2.0,-2.0
1706292000.2731295,-2.0,0.0,-1.0,-3.0,0.0,-2.0,-6.0,-8.0
1706292000.2965274,-2.0,-4.0,-3.0,0.0,-1.0,0.0,12.0,2.0
1706292000.2965274,0.0,1.0,-1.0,0.0,0.0,-1.0,-4.0,-1.0
1706292000.2965274,-2.0,-1.0,-2.0,0.0,0.0,-3.0,-3.0,-4.0
1706292000.2965274,-4.0,0.0,-3.0,-1.0,0.0,0.0,-8.0,-4.0
1706292000.3021774,15.0,-3.0,-2.0,0.0,0.0,1.0,-2.0,12.0
1706292000.3031785,-2.0,-2.0,-2.0,-2.0,-1.0,-3.0,-11.0,-20.0
1706292000.3052297,0.0,0.0,-2.0,-2.0,-1.0,-2.0,-6.0,-26.0
1706292000.3052297,0.0,0.0,0.0,0.0,-5.0,0.0,0.0,7.0
1706292000.3249915,-6.0,-4.0,-1.0,-2.0,1.0,-2.0,-6.0,-4.0
1706292000.3249915,-1.0,2.0,1.0,-2.0,0.0,1.0,3.0,4.0
1706292000.3269324,1.0,-3.0,-2.0,-1.0,0.0,-1.0,2.0,9.0
1706292000.3269324,-2.0,-3.0,-2.0,-1.0,0.0,-2.0,1.0,-6.0
1706292000.3429413,-6.0,-1.0,-1.0,-2.0,-3.0,0.0,0.0,3.0
1706292000.3429413,1.0,2.0,0.0,-1.0,-1.0,-1.0,1.0,-1.0
1706292000.3461614,-3.0,5.0,1.0,-1.0,-2.0,0.0,-2.0,22.0
1706292000.3461614,-2.0,-3.0,-2.0,-2.0,0.0,-2.0,1.0,1.0
1706292000.3629582,-4.0,-1.0,0.0,-1.0,-1.0,-1.0,-3.0,-1.0
1706292000.3629582,-3.0,-2.0,-2.0,-2.0,-2.0,0.0,-1.0,2.0
1706292000.3642788,0.0,1.0,0.0,-1.0,-2.0,-2.0,-1.0,-2.0
1706292000.3642788,1.0,1.0,-1.0,0.0,-1.0,-2.0,1.0,0.0
1706292000.3983831,-1.0,-3.0,-2.0,-1.0,0.0,-2.0,-3.0,-1.0
1706292000.3983831,-1.0,3.0,-1.0,-2.0,0.0,-3.0,-3.0,-4.0
1706292000.3983831,0.0,-3.0,0.0,0.0,-3.0,0.0,3.0,2.0
1706292000.3983831,-4.0,-1.0,0.0,0.0,-2.0,2.0,0.0,4.0
1706292000.3993819,10.0,-1.0,-2.0,-2.0,-2.0,-1.0,1.0,-9.0
1706292000.400383,-5.0,-1.0,0.0,0.0,0.0,2.0,-1.0,-1.0
1706292000.4073844,0.0,-3.0,-1.0,0.0,-2.0,-1.0,1.0,1.0
1706292000.4073844,-3.0,-1.0,0.0,0.0,0.0,-1.0,1.0,-2.0
1706292000.4234476,-4.0,1.0,0.0,0.0,-1.0,-2.0,-3.0,1.0
1706292000.4244435,0.0,0.0,0.0,-2.0,-2.0,0.0,0.0,1.0
1706292000.42603,1.0,-4.0,-2.0,-1.0,0.0,-2.0,-2.0,-3.0
1706292000.42603,2.0,1.0,-1.0,1.0,0.0,-2.0,-1.0,-2.0
1706292000.4453297,-5.0,-1.0,-1.0,-1.0,-2.0,-1.0,-1.0,1.0
1706292000.4453297,-9.0,-14.0,-3.0,-2.0,-1.0,-2.0,-2.0,-1.0
1706292000.4468117,-2.0,1.0,-1.0,-2.0,-3.0,-1.0,-2.0,-1.0
1706292000.4468117,-3.0,-1.0,-1.0,-1.0,-1.0,-1.0,-1.0,-1.0
1706292000.4668188,-3.0,0.0,1.0,-2.0,-1.0,-2.0,-4.0,0.0
1706292000.4668188,0.0,-2.0,0.0,-1.0,-2.0,-1.0,1.0,3.0
1706292000.4676743,-3.0,-2.0,1.0,-1.0,0.0,-2.0,0.0,-8.0
1706292000.4676743,0.0,0.0,-1.0,-1.0,0.0,-3.0,-1.0,-2.0
1706292000.4829197,-3.0,-2.0,-1.0,-1.0,1.0,1.0,-1.0,-1.0
1706292000.4829197,0.0,3.0,0.0,0.0,0.0,0.0,0.0,-1.0
1706292000.483782,-2.0,-1.0,-2.0,-1.0,0.0,0.0,1.0,3.0
1706292000.483782,3.0,1.0,0.0,-1.0,-1.0,-2.0,0.0,0.0
1706292000.505003,-5.0,-2.0,-2.0,0.0,-1.0,-1.0,-2.0,-2.0
1706292000.505003,1.0,11.0,1.0,0.0,-2.0,-3.0,0.0,0.0
1706292000.5060046,-2.0,-24.0,-4.0,-1.0,0.0,-2.0,-7.0,-1.0
1706292000.5060046,0.0,-1.0,-1.0,-1.0,-2.0,-2.0,1.0,2.0
1706292000.5204372,-1.0,-1.0,-1.0,-2.0,-1.0,0.0,-1.0,-11.0
1706292000.5204372,10.0,2.0,1.0,0.0,1.0,0.0,-2.0,-2.0
1706292000.5271623,1.0,3.0,-2.0,0.0,-1.0,0.0,-2.0,-1.0
1706292000.5271623,-1.0,0.0,-1.0,-2.0,-2.0,-2.0,0.0,2.0
1706292000.5424027,-1.0,-3.0,-1.0,0.0,-2.0,-1.0,-1.0,-1.0
1706292000.5424027,-1.0,3.0,-1.0,-2.0,-1.0,-1.0,0.0,0.0
1706292000.5443082,-2.0,1.0,0.0,1.0,1.0,1.0,0.0,-2.0
1706292000.5443082,1.0,-3.0,1.0,-1.0,-1.0,0.0,0.0,-4.0
1706292000.5651236,-3.0,2.0,-2.0,0.0,0.0,1.0,0.0,3.0
1706292000.5651236,-3.0,-4.0,-3.0,-1.0,-1.0,0.0,0.0,-3.0
1706292000.5671341,1.0,3.0,0.0,-2.0,-1.0,-2.0,0.0,4.0
1706292000.5671341,-2.0,-1.0,-2.0,-2.0,-1.0,-1.0,-1.0,-4.0
1706292000.578725,-2.0,-1.0,0.0,0.0,-1.0,0.0,7.0,-1.0
1706292000.5794945,3.0,-1.0,0.0,1.0,-3.0,-4.0,-5.0,-11.0
1706292000.588699,-2.0,1.0,0.0,-1.0,1.0,2.0,-1.0,-1.0
1706292000.588699,-1.0,1.0,-2.0,0.0,-2.0,-1.0,0.0,1.0
1706292000.6027174,0.0,-1.0,-1.0,-1.0,-1.0,0.0,-5.0,-4.0
1706292000.6037428,0.0,-4.0,-1.0,-1.0,0.0,0.0,0.0,1.0
1706292000.6047335,0.0,3.0,-2.0,1.0,0.0,-2.0,3.0,0.0
1706292000.6047335,0.0,-2.0,0.0,0.0,1.0,-1.0,-2.0,-3.0
1706292000.6251955,-1.0,-1.0,0.0,-2.0,-1.0,-4.0,-2.0,3.0
1706292000.6251955,-5.0,-2.0,-2.0,-4.0,0.0,4.0,6.0,2.0
1706292000.626498,1.0,1.0,0.0,-2.0,-2.0,-2.0,-4.0,-3.0
1706292000.626498,-9.0,-1.0,0.0,-1.0,-1.0,1.0,1.0,1.0
1706292000.6413534,-2.0,-3.0,-4.0,-1.0,-3.0,-1.0,-2.0,-1.0
1706292000.6413534,-2.0,-3.0,-2.0,-1.0,-1.0,-3.0,-2.0,2.0
1706292000.6473725,0.0,0.0,-1.0,0.0,-2.0,0.0,1.0,-2.0
1706292000.6473725,1.0,-1.0,-2.0,-1.0,-1.0,-2.0,-3.0,-1.0
1706292000.6621425,-2.0,-1.0,0.0,0.0,-1.0,-2.0,-3.0,0.0
1706292000.6621425,-2.0,0.0,0.0,0.0,0.0,-1.0,-4.0,-1.0
1706292000.6641436,-2.0,1.0,-1.0,0.0,-2.0,-2.0,-1.0,-1.0
1706292000.6641436,-1.0,-1.0,-1.0,1.0,-1.0,-1.0,1.0,2.0
1706292000.6991823,0.0,-2.0,-1.0,-3.0,-1.0,-1.0,-3.0,-8.0
1706292000.6991823,-2.0,-1.0,-2.0,-3.0,-4.0,0.0,1.0,3.0
1706292000.6991823,-3.0,-2.0,-2.0,-4.0,-1.0,1.0,1.0,-1.0
1706292000.6991823,-1.0,7.0,-2.0,-3.0,-1.0,0.0,-4.0,3.0
1706292000.6991823,1.0,-2.0,-3.0,-3.0,-2.0,-1.0,-2.0,1.0
1706292000.6991823,-2.0,1.0,-1.0,-1.0,-2.0,-1.0,-2.0,-1.0
1706292000.706275,-1.0,2.0,-1.0,0.0,-1.0,0.0,-3.0,-2.0
1706292000.706275,3.0,1.0,1.0,-1.0,-1.0,-3.0,-7.0,-10.0
1706292000.723354,-4.0,-1.0,0.0,0.0,-1.0,-1.0,3.0,10.0
1706292000.723354,-4.0,0.0,-1.0,-3.0,-1.0,-3.0,-6.0,-1.0
1706292000.724405,5.0,0.0,0.0,0.0,0.0,-1.0,1.0,2.0
1706292000.724405,-1.0,-5.0,0.0,0.0,1.0,1.0,0.0,-3.0
1706292000.7448015,1.0,1.0,1.0,1.0,-1.0,-1.0,0.0,-1.0
1706292000.7448015,-3.0,-5.0,-1.0,1.0,0.0,-3.0,0.0,-2.0
1706292000.753381,-3.0,-3.0,1.0,-1.0,-1.0,-3.0,-2.0,-3.0
1706292000.753381,0.0,-3.0,-1.0,0.0,-1.0,-1.0,1.0,-1.0
1706292000.760584,0.0,-3.0,-1.0,1.0,-1.0,-1.0,-3.0,0.0
1706292000.760584,-2.0,1.0,-2.0,0.0,-1.0,1.0,-1.0,-3.0
1706292000.7675853,-7.0,0.0,-3.0,-1.0,0.0,-5.0,-1.0,0.0
1706292000.7675853,1.0,-3.0,1.0,1.0,-1.0,3.0,4.0,4.0
1706292000.7822611,-3.0,0.0,-2.0,-2.0,-1.0,-2.0,-4.0,-15.0
1706292000.7822611,1.0,-1.0,-2.0,0.0,-1.0,0.0,-1.0,0.0
1706292000.784284,-1.0,-1.0,0.0,-2.0,-2.0,-1.0,0.0,-1.0
1706292000.784284,-4.0,-4.0,-2.0,0.0,-1.0,-3.0,-1.0,-1.0
1706292000.8083117,-1.0,-1.0,-1.0,-1.0,1.0,-2.0,0.0,1.0
1706292000.8083117,-1.0,-1.0,-1.0,-1.0,-1.0,0.0,0.0,-2.0
1706292000.8093688,3.0,-1.0,-1.0,0.0,-1.0,1.0,-3.0,0.0
1706292000.8093688,0.0,1.0,-1.0,-1.0,-3.0,0.0,-3.0,0.0
1706292000.8213305,0.0,-3.0,-1.0,0.0,-2.0,1.0,-1.0,1.0
1706292000.8213305,1.0,0.0,-2.0,0.0,-2.0,-1.0,0.0,-2.0
1706292000.8457968,-2.0,0.0,-1.0,-1.0,-1.0,-1.0,-1.0,0.0
1706292000.8457968,1.0,0.0,0.0,0.0,0.0,0.0,0.0,-1.0
1706292000.8517966,-2.0,-1.0,-2.0,0.0,-1.0,0.0,-1.0,0.0
1706292000.8517966,-1.0,4.0,1.0,-2.0,-1.0,-1.0,-3.0,-1.0
1706292000.8517966,-4.0,-12.0,-4.0,-1.0,0.0,0.0,-1.0,-2.0
1706292000.8517966,8.0,10.0,-3.0,-2.0,-3.0,-3.0,-8.0,2.0
1706292000.8653202,-4.0,-1.0,-1.0,-2.0,-1.0,-3.0,13.0,-5.0
1706292000.8653202,-1.0,-4.0,-2.0,0.0,-1.0,0.0,3.0,10.0
1706292000.8663106,0.0,3.0,-1.0,0.0,-2.0,0.0,-2.0,-5.0
1706292000.8663106,-4.0,-4.0,0.0,-1.0,-1.0,-3.0,-6.0,-17.0
1706292000.907767,-1.0,-1.0,-2.0,-1.0,-2.0,-1.0,-3.0,1.0
1706292000.907767,1.0,3.0,0.0,0.0,-1.0,-1.0,-1.0,0.0
1706292000.907767,0.0,-1.0,-2.0,-2.0,0.0,1.0,6.0,2.0
1706292000.907767,-5.0,-5.0,-1.0,-1.0,0.0,-1.0,1.0,3.0
1706292000.907767,0.0,0.0,0.0,0.0,-2.0,0.0,-3.0,-6.0
1706292000.907767,-1.0,-5.0,-1.0,-1.0,-1.0,-2.0,-5.0,11.0
1706292000.907767,3.0,6.0,2.0,2.0,-2.0,-4.0,-7.0,-7.0
1706292000.907767,-3.0,-3.0,-1.0,-2.0,0.0,1.0,1.0,1.0
1706292000.925127,1.0,-1.0,0.0,-2.0,0.0,-1.0,-4.0,3.0
1706292000.925127,-1.0,-3.0,-3.0,-1.0,-1.0,-2.0,-2.0,-5.0
1706292000.9271243,-1.0,-2.0,-1.0,-1.0,-2.0,2.0,0.0,2.0
1706292000.9271243,0.0,1.0,-2.0,-1.0,-2.0,-1.0,2.0,4.0
1706292000.9495358,-1.0,1.0,0.0,1.0,-1.0,-1.0,-1.0,1.0
1706292000.9495358,-1.0,-3.0,-2.0,-3.0,-2.0,0.0,0.0,-2.0
1706292000.9495358,-3.0,-2.0,-1.0,-1.0,-3.0,-2.0,1.0,1.0
1706292000.9495358,-2.0,-2.0,-1.0,-1.0,-1.0,-1.0,0.0,-7.0
1706292000.9624283,-2.0,-2.0,-3.0,-2.0,-2.0,-1.0,-2.0,3.0
1706292000.9624283,-5.0,7.0,2.0,-1.0,0.0,-1.0,0.0,1.0
1706292000.96432,-1.0,-20.0,-3.0,-1.0,0.0,-1.0,-2.0,-3.0
1706292000.96432,-2.0,-5.0,-1.0,-1.0,-1.0,0.0,-1.0,2.0
1706292000.9854164,2.0,-1.0,0.0,1.0,-1.0,-1.0,-6.0,0.0
1706292000.9854164,-13.0,6.0,1.0,0.0,-1.0,0.0,-1.0,-2.0
1706292000.9864194,-2.0,5.0,0.0,-2.0,-2.0,-1.0,2.0,-1.0
1706292000.9864194,-9.0,-12.0,-3.0,-2.0,-1.0,-3.0,-2.0,-2.0
1706292001.0082955,-1.0,4.0,-1.0,-1.0,-1.0,0.0,-1.0,1.0
1706292001.0082955,4.0,-4.0,-1.0,-1.0,-1.0,-1.0,-2.0,-7.0
1706292001.0082955,0.0,1.0,-1.0,-1.0,0.0,-2.0,-2.0,1.0
1706292001.0082955,-2.0,-1.0,-2.0,-1.0,1.0,0.0,0.0,-3.0
1706292001.0221293,0.0,-2.0,-1.0,-3.0,-1.0,-2.0,5.0,7.0
1706292001.0221293,6.0,-5.0,0.0,-1.0,-1.0,-3.0,-3.0,-5.0
1706292001.0291274,-1.0,3.0,-2.0,0.0,0.0,-1.0,-2.0,-1.0
1706292001.0291274,1.0,1.0,0.0,-1.0,0.0,-1.0,-1.0,2.0
1706292001.0451546,-1.0,-1.0,-1.0,-1.0,0.0,0.0,-4.0,-1.0
1706292001.0451546,-1.0,-1.0,1.0,-1.0,-2.0,0.0,0.0,-5.0
1706292001.0470085,-3.0,-3.0,0.0,-2.0,-1.0,-4.0,-3.0,-6.0
1706292001.0470085,1.0,-1.0,-1.0,-1.0,-2.0,-1.0,0.0,1.0
1706292001.0591931,-2.0,-2.0,-3.0,-2.0,-1.0,-1.0,-2.0,-1.0
1706292001.0591931,-2.0,-6.0,-2.0,-1.0,-1.0,-3.0,-1.0,-3.0
1706292001.0680556,0.0,3.0,0.0,0.0,0.0,0.0,-2.0,2.0
1706292001.0680556,-5.0,6.0,1.0,-1.0,-1.0,-2.0,-2.0,-4.0
1706292001.0823011,-1.0,-10.0,-3.0,-2.0,0.0,-4.0,-3.0,-5.0
1706292001.0823011,-6.0,-12.0,-2.0,-3.0,-1.0,-1.0,4.0,0.0
1706292001.0969095,-1.0,2.0,-1.0,-1.0,0.0,-1.0,-3.0,2.0
1706292001.0969095,-1.0,-2.0,-2.0,-2.0,0.0,-2.0,1.0,-1.0
1706292001.1126246,0.0,3.0,1.0,-1.0,0.0,-1.0,-1.0,-1.0
1706292001.1126246,-1.0,-2.0,-1.0,0.0,-1.0,-2.0,-4.0,-3.0
1706292001.1143565,-2.0,-4.0,-2.0,-3.0,-1.0,0.0,-1.0,0.0
1706292001.1143565,2.0,2.0,0.0,0.0,-2.0,-1.0,1.0,1.0
1706292001.126369,-1.0,0.0,-1.0,0.0,-2.0,-1.0,-2.0,-1.0
1706292001.126369,2.0,0.0,-1.0,-1.0,0.0,-1.0,-1.0,1.0
1706292001.129369,-2.0,2.0,-1.0,1.0,-1.0,0.0,0.0,-2.0
1706292001.129369,0.0,0.0,-1.0,-1.0,-2.0,0.0,0.0,2.0
1706292001.1422234,-2.0,0.0,-1.0,-1.0,-1.0,-1.0,1.0,-1.0
1706292001.1422234,-1.0,-1.0,-2.0,-2.0,-3.0,-1.0,-3.0,-2.0
1706292001.150782,-1.0,-2.0,-2.0,-1.0,0.0,1.0,0.0,2.0
1706292001.150782,1.0,-2.0,0.0,-3.0,-2.0,-3.0,-4.0,-1.0
1706292001.1722956,0.0,-1.0,1.0,1.0,-2.0,-1.0,-1.0,0.0
1706292001.1722956,-2.0,2.0,-2.0,-2.0,0.0,0.0,-1.0,-3.0
1706292001.1722956,-3.0,-1.0,-2.0,1.0,0.0,-2.0,-1.0,2.0
1706292001.1722956,0.0,-2.0,-2.0,0.0,0.0,-1.0,-4.0,-14.0
1706292001.1825187,0.0,0.0,-2.0,-2.0,-2.0,1.0,0.0,-1.0
1706292001.1825187,4.0,1.0,-1.0,-2.0,-2.0,-1.0,-2.0,0.0
1706292001.1825187,0.0,-3.0,-1.0,-2.0,-1.0,-1.0,1.0,-1.0
1706292001.1825187,-10.0,-1.0,-1.0,-1.0,-1.0,-2.0,-3.0,0.0
1706292001.2023053,9.0,-1.0,-3.0,-1.0,-1.0,0.0,-8.0,0.0
1706292001.2023053,0.0,-1.0,-1.0,-1.0,-1.0,0.0,2.0,-3.0
1706292001.2023053,0.0,-1.0,-1.0,-1.0,-2.0,1.0,0.0,0.0
1706292001.2023053,-3.0,0.0,-1.0,0.0,-1.0,-1.0,0.0,1.0
1706292001.2458007,-4.0,-2.0,-2.0,-2.0,-2.0,-1.0,-1.0,-2.0
1706292001.2463179,-1.0,0.0,-2.0,0.0,-1.0,-2.0,-2.0,3.0
1706292001.2501845,1.0,-1.0,-1.0,-1.0,-2.0,0.0,-2.0,-4.0
1706292001.2501845,1.0,3.0,0.0,0.0,-1.0,0.0,-1.0,2.0
1706292001.2501845,-4.0,-6.0,-2.0,-2.0,-1.0,-3.0,0.0,0.0
1706292001.2501845,-1.0,1.0,1.0,0.0,0.0,-1.0,-1.0,-3.0
1706292001.2501845,2.0,0.0,0.0,-2.0,-1.0,-2.0,0.0,7.0
1706292001.2501845,1.0,-4.0,-2.0,1.0,-1.0,0.0,-1.0,0.0
1706292001.2621927,-2.0,2.0,-1.0,0.0,0.0,0.0,2.0,0.0
1706292001.2621927,-2.0,-1.0,0.0,-1.0,-1.0,-3.0,-3.0,-6.0
1706292001.26899,-1.0,-2.0,-1.0,0.0,0.0,0.0,-2.0,1.0
1706292001.26899,2.0,2.0,-1.0,-1.0,-1.0,0.0,2.0,1.0
1706292001.2973971,-2.0,1.0,0.0,1.0,0.0,0.0,0.0,-3.0
1706292001.2973971,1.0,-1.0,-1.0,2.0,-2.0,-1.0,2.0,4.0
1706292001.2973971,0.0,2.0,0.0,0.0,0.0,-1.0,-4.0,-2.0
1706292001.2973971,1.0,-2.0,-1.0,-3.0,0.0,-1.0,-2.0,-1.0
1706292001.3076954,-4.0,-3.0,-1.0,-2.0,-1.0,-1.0,-1.0,-3.0
1706292001.3076954,8.0,-3.0,-2.0,-1.0,-1.0,1.0,0.0,6.0
1706292001.3135884,-3.0,0.0,0.0,-1.0,0.0,-2.0,-1.0,-4.0
1706292001.3135884,-2.0,-3.0,-1.0,-2.0,0.0,-1.0,-2.0,-2.0
1706292001.3213854,1.0,-1.0,0.0,-2.0,1.0,-1.0,-3.0,2.0
1706292001.3213854,-4.0,2.0,0.0,-2.0,1.0,0.0,-2.0,-4.0
1706292001.3298833,-1.0,-1.0,-1.0,-2.0,-1.0,-2.0,-1.0,-3.0
1706292001.3298833,1.0,-2.0,-2.0,-2.0,-2.0,-2.0,0.0,5.0
1706292001.3538675,-10.0,-13.0,-1.0,0.0,-1.0,-1.0,-4.0,-7.0
1706292001.3538675,-1.0,1.0,-2.0,-1.0,0.0,-2.0,0.0,-2.0
1706292001.3538675,-1.0,-2.0,-3.0,-1.0,-3.0,-3.0,1.0,1.0
1706292001.3538675,-1.0,4.0,1.0,0.0,-1.0,-1.0,-1.0,-1.0
1706292001.3679574,-2.0,-19.0,-4.0,-3.0,-1.0,0.0,-1.0,0.0
1706292001.3679574,-3.0,-1.0,-1.0,-1.0,-1.0,-1.0,-3.0,-3.0
1706292001.3689644,-1.0,-1.0,-1.0,-1.0,1.0,0.0,-2.0,-1.0
1706292001.3689644,1.0,-2.0,0.0,-2.0,-1.0,-1.0,-1.0,-2.0
1706292001.4004374,3.0,7.0,1.0,-2.0,-2.0,0.0,1.0,0.0
1706292001.4014378,0.0,8.0,0.0,-2.0,-2.0,3.0,-1.0,4.0
1706292001.4014378,-1.0,-2.0,-1.0,-3.0,-2.0,-2.0,-1.0,-4.0
1706292001.4014378,-3.0,1.0,0.0,0.0,-1.0,0.0,-1.0,-1.0
1706292001.412984,11.0,5.0,0.0,0.0,-2.0,-3.0,2.0,1.0
1706292001.412984,6.0,8.0,-2.0,0.0,1.0,-2.0,0.0,0.0
1706292001.4149888,-2.0,3.0,0.0,-1.0,0.0,-2.0,-3.0,-2.0
1706292001.4149888,-5.0,12.0,1.0,0.0,0.0,1.0,0.0,-3.0
1706292001.4280903,-1.0,3.0,0.0,-1.0,0.0,-1.0,0.0,1.0
1706292001.4280903,-15.0,-36.0,-3.0,-2.0,-2.0,-2.0,-1.0,-3.0
1706292001.4290519,3.0,12.0,1.0,-1.0,-2.0,-1.0,3.0,7.0
1706292001.4290519,-7.0,-26.0,-8.0,-5.0,-1.0,-2.0,-3.0,-19.0
1706292001.4501412,15.0,0.0,0.0,0.0,-1.0,-2.0,-2.0,-3.0
1706292001.4501412,-3.0,2.0,-2.0,1.0,0.0,-2.0,-1.0,0.0
1706292001.452149,-5.0,-17.0,1.0,1.0,0.0,1.0,0.0,-5.0
1706292001.452149,-1.0,12.0,-2.0,-1.0,-1.0,-1.0,-2.0,6.0
1706292001.4653482,-10.0,-8.0,-1.0,-3.0,0.0,-1.0,-2.0,-1.0
1706292001.4653482,3.0,1.0,-1.0,-2.0,-3.0,-2.0,-2.0,-4.0
1706292001.466932,0.0,0.0,-2.0,-1.0,-1.0,-1.0,-4.0,-2.0
1706292001.466932,1.0,-5.0,0.0,-1.0,-1.0,-2.0,-3.0,2.0
1706292001.488945,-1.0,14.0,-1.0,-1.0,-1.0,0.0,-2.0,-3.0
1706292001.488945,1.0,5.0,-1.0,1.0,-1.0,0.0,-2.0,1.0
1706292001.488945,-12.0,-23.0,-3.0,-2.0,-1.0,-1.0,-1.0,-4.0
1706292001.488945,1.0,-4.0,-1.0,-1.0,-1.0,-1.0,-1.0,0.0
1706292001.5021534,-5.0,4.0,0.0,0.0,-1.0,-2.0,1.0,-1.0
1706292001.5031593,-4.0,-23.0,-3.0,-2.0,-1.0,-1.0,-1.0,-1.0
1706292001.520164,3.0,2.0,-2.0,-1.0,-1.0,0.0,-2.0,-2.0
1706292001.5211632,-1.0,0.0,0.0,0.0,-2.0,-1.0,0.0,0.0
1706292001.5333257,-4.0,0.0,1.0,-2.0,0.0,-2.0,0.0,0.0
1706292001.5333257,0.0,6.0,2.0,-1.0,1.0,-2.0,0.0,-2.0
1706292001.5353239,-1.0,0.0,-1.0,0.0,-2.0,-2.0,1.0,-3.0
1706292001.5353239,1.0,0.0,0.0,1.0,0.0,-2.0,-1.0,2.0
1706292001.54732,7.0,-5.0,-3.0,-1.0,-1.0,-2.0,2.0,1.0
1706292001.5483205,-2.0,2.0,0.0,0.0,-1.0,0.0,-3.0,-1.0
1706292001.5493193,-1.0,2.0,0.0,-1.0,0.0,1.0,-2.0,-1.0
1706292001.5493193,-1.0,0.0,0.0,-1.0,-1.0,1.0,0.0,0.0
1706292001.5614505,-4.0,-2.0,1.0,-1.0,0.0,-2.0,-4.0,-2.0
1706292001.5614505,0.0,2.0,0.0,-2.0,-1.0,-2.0,-1.0,-1.0
1706292001.5783165,0.0,2.0,-3.0,0.0,-1.0,0.0,0.0,-1.0
1706292001.5783165,1.0,-2.0,-1.0,0.0,-1.0,-2.0,1.0,0.0
1706292001.5853183,-5.0,-1.0,0.0,2.0,0.0,1.0,0.0,7.0
1706292001.5853183,0.0,1.0,1.0,-2.0,-2.0,0.0,-4.0,-12.0
1706292001.5863194,-3.0,4.0,-1.0,-1.0,-2.0,1.0,-1.0,-1.0
1706292001.5863194,-1.0,-3.0,1.0,0.0,-1.0,1.0,1.0,-2.0
1706292001.6075373,-6.0,0.0,-3.0,-1.0,-1.0,-1.0,0.0,-2.0
1706292001.6075373,-1.0,2.0,-1.0,1.0,-1.0,-1.0,0.0,0.0
1706292001.6095233,1.0,-1.0,0.0,-2.0,-1.0,-2.0,-1.0,1.0
1706292001.6095233,-1.0,0.0,-2.0,-3.0,-3.0,1.0,-1.0,-1.0
1706292001.630731,-3.0,-1.0,-2.0,-2.0,-1.0,0.0,-1.0,-3.0
1706292001.630731,-5.0,-7.0,-2.0,-3.0,-3.0,-1.0,-1.0,2.0
1706292001.6317255,-1.0,5.0,-2.0,-2.0,-1.0,-1.0,3.0,-2.0
1706292001.6317255,7.0,-3.0,0.0,-2.0,0.0,-1.0,-4.0,-3.0
1706292001.6454334,-2.0,0.0,0.0,-1.0,-1.0,-1.0,-1.0,-2.0
1706292001.6454334,-1.0,3.0,0.0,-2.0,-2.0,0.0,2.0,0.0
1706292001.6464362,-4.0,-14.0,-4.0,-2.0,-2.0,-2.0,-7.0,-1.0
1706292001.6464362,-2.0,2.0,-2.0,-1.0,0.0,-1.0,-2.0,2.0
1706292001.6682544,-1.0,0.0,0.0,-1.0,-1.0,0.0,-2.0,-2.0
1706292001.6682544,1.0,0.0,-2.0,-1.0,-1.0,-1.0,0.0,0.0
1706292001.6685627,1.0,3.0,0.0,-1.0,0.0,-1.0,-1.0,-2.0
1706292001.6685627,-3.0,-1.0,-1.0,-2.0,-1.0,0.0,0.0,0.0
1706292001.6885586,-1.0,-2.0,-3.0,-1.0,-2.0,-2.0,-3.0,-2.0
1706292001.6885586,-2.0,5.0,-1.0,1.0,0.0,-1.0,1.0,6.0
1706292001.6885586,0.0,0.0,0.0,0.0,-2.0,-1.0,-2.0,-2.0
1706292001.6885586,-5.0,-4.0,0.0,-3.0,-2.0,-3.0,-2.0,0.0
1706292001.6989133,1.0,2.0,0.0,0.0,-2.0,-1.0,0.0,-3.0
1706292001.6989133,-1.0,0.0,-1.0,-3.0,-1.0,0.0,1.0,3.0
1706292001.6989133,0.0,0.0,-1.0,-1.0,0.0,0.0,-1.0,-2.0
1706292001.6989133,-2.0,-2.0,0.0,0.0,0.0,-1.0,-1.0,-2.0
1706292001.721585,-2.0,-3.0,-1.0,-1.0,2.0,0.0,-1.0,1.0
1706292001.721585,3.0,-1.0,-3.0,0.0,0.0,-2.0,-2.0,-3.0
1706292001.721585,-1.0,0.0,0.0,0.0,0.0,-3.0,-2.0,-3.0
1706292001.721585,0.0,1.0,-2.0,-2.0,-2.0,0.0,-1.0,-1.0
1706292001.751588,-2.0,-1.0,-1.0,-2.0,-1.0,0.0,-1.0,-3.0
1706292001.751588,-1.0,-4.0,0.0,0.0,-1.0,-2.0,-2.0,-1.0
1706292001.751588,-2.0,2.0,0.0,-1.0,-2.0,1.0,0.0,-3.0
1706292001.751588,-2.0,-1.0,0.0,-1.0,-2.0,-2.0,-2.0,2.0
1706292001.7719781,1.0,5.0,1.0,0.0,-3.0,-3.0,-3.0,0.0
1706292001.7719781,-3.0,-17.0,-5.0,-2.0,1.0,1.0,-1.0,-2.0
1706292001.7719781,-2.0,1.0,-2.0,-1.0,0.0,-1.0,0.0,1.0
1706292001.7719781,1.0,0.0,0.0,0.0,-1.0,-2.0,0.0,-3.0
1706292001.7915878,-2.0,-5.0,-2.0,0.0,0.0,-1.0,-3.0,-2.0
1706292001.7915878,0.0,5.0,0.0,1.0,-2.0,-3.0,0.0,-2.0
1706292001.7915878,0.0,0.0,0.0,-1.0,0.0,-2.0,-1.0,0.0
1706292001.7915878,-6.0,-12.0,-3.0,-1.0,0.0,0.0,0.0,-2.0
1706292001.8015954,0.0,6.0,-3.0,0.0,0.0,0.0,0.0,-2.0
1706292001.8015954,-2.0,0.0,0.0,-1.0,-1.0,-3.0,-3.0,-1.0
1706292001.8015954,-1.0,-4.0,-2.0,-2.0,0.0,0.0,-1.0,-2.0
1706292001.8015954,0.0,0.0,1.0,-1.0,0.0,0.0,0.0,-4.0
1706292001.8322265,0.0,-4.0,-2.0,0.0,0.0,1.0,-1.0,0.0
1706292001.833227,-2.0,0.0,-3.0,-2.0,0.0,-2.0,0.0,-1.0
1706292001.833227,1.0,-1.0,1.0,0.0,-2.0,0.0,0.0,-1.0
1706292001.833227,1.0,1.0,0.0,-1.0,-2.0,0.0,0.0,1.0
1706292001.8469388,-1.0,-2.0,-2.0,-1.0,-3.0,-1.0,-1.0,-1.0
1706292001.8469388,1.0,3.0,0.0,-2.0,-1.0,-1.0,-2.0,-2.0
1706292001.8479207,-1.0,7.0,3.0,-1.0,-1.0,-2.0,-2.0,-1.0
1706292001.8479207,-2.0,-11.0,-2.0,0.0,-1.0,0.0,-1.0,0.0
1706292001.8689528,-2.0,-2.0,-1.0,0.0,-1.0,-1.0,-1.0,-3.0
1706292001.8689528,-3.0,1.0,1.0,-1.0,-1.0,-1.0,-1.0,-2.0
1706292001.869935,2.0,-2.0,-1.0,-2.0,-1.0,-1.0,1.0,7.0
1706292001.869935,-1.0,11.0,-2.0,-2.0,0.0,-1.0,-2.0,-5.0
1706292001.8849945,-1.0,-3.0,-2.0,-3.0,-2.0,0.0,0.0,0.0
1706292001.8849945,-1.0,-1.0,-1.0,2.0,-1.0,0.0,-1.0,-3.0
1706292001.8849945,-2.0,-4.0,-4.0,-1.0,0.0,-2.0,-1.0,-2.0
1706292001.8849945,0.0,0.0,-3.0,-1.0,0.0,-3.0,1.0,-1.0
1706292001.9121408,0.0,-2.0,-2.0,-2.0,-1.0,0.0,1.0,1.0
1706292001.9121408,0.0,2.0,0.0,-2.0,-3.0,0.0,-1.0,1.0
1706292001.9121408,-2.0,-3.0,-3.0,-2.0,-1.0,-2.0,-1.0,-4.0
1706292001.9121408,-2.0,-1.0,-1.0,0.0,-3.0,-2.0,-2.0,1.0
1706292001.9295192,1.0,1.0,0.0,-1.0,-1.0,-2.0,-2.0,0.0
1706292001.9295192,-1.0,-3.0,-2.0,-1.0,-1.0,-1.0,-2.0,-1.0
1706292001.9295192,-1.0,-2.0,0.0,-2.0,0.0,0.0,-2.0,-1.0
1706292001.9295192,0.0,0.0,-2.0,-2.0,-1.0,1.0,-2.0,-1.0
1706292001.9455187,-3.0,-3.0,-2.0,-2.0,-1.0,-3.0,0.0,0.0
1706292001.9455187,-1.0,1.0,0.0,-1.0,-3.0,-1.0,0.0,0.0
1706292001.951519,-2.0,-1.0,-1.0,-1.0,0.0,-1.0,-1.0,-4.0
1706292001.951519,-1.0,10.0,2.0,-1.0,0.0,-2.0,-1.0,0.0
1706292001.9695187,-4.0,-18.0,-2.0,-1.0,0.0,-2.0,-1.0,-3.0
1706292001.9695187,6.0,15.0,0.0,0.0,2.0,0.0,0.0,0.0
1706292001.9745188,0.0,0.0,0.0,-1.0,-2.0,-2.0,0.0,-1.0
1706292001.9745188,1.0,0.0,0.0,0.0,-1.0,0.0,1.0,1.0
1706292002.015518,-1.0,-1.0,-2.0,-1.0,-1.0,-2.0,-1.0,0.0
1706292002.015518,-2.0,-4.0,-2.0,-1.0,-1.0,-2.0,0.0,-3.0
1706292002.015518,0.0,-2.0,-1.0,-2.0,-3.0,0.0,-1.0,-1.0
1706292002.015518,1.0,-1.0,0.0,1.0,-1.0,-3.0,-1.0,-1.0
1706292002.015518,-1.0,4.0,1.0,-1.0,1.0,0.0,-1.0,-1.0
1706292002.015518,-3.0,-5.0,-1.0,0.0,1.0,0.0,-1.0,-1.0
1706292002.015518,0.0,3.0,-2.0,-1.0,-2.0,-2.0,-1.0,-2.0
1706292002.015518,-1.0,-4.0,-3.0,0.0,1.0,-2.0,-2.0,-1.0
1706292002.0267177,-3.0,2.0,-1.0,-2.0,0.0,0.0,0.0,-2.0
1706292002.0267177,-2.0,-3.0,-1.0,-1.0,-2.0,-4.0,-2.0,1.0
1706292002.0275235,-1.0,-4.0,-1.0,-1.0,-2.0,1.0,-2.0,0.0
1706292002.0275235,-1.0,-2.0,-1.0,-3.0,-2.0,0.0,0.0,5.0
1706292002.0495229,0.0,0.0,-1.0,0.0,0.0,0.0,0.0,-2.0
1706292002.0495229,-1.0,-1.0,-2.0,-4.0,-2.0,0.0,1.0,-1.0
1706292002.0495229,-3.0,-3.0,-2.0,-1.0,-1.0,0.0,0.0,0.0
1706292002.0505214,-3.0,-2.0,-3.0,0.0,-1.0,0.0,-5.0,0.0
1706292002.0755181,0.0,2.0,-2.0,-1.0,0.0,0.0,-2.0,2.0
1706292002.0755181,-2.0,-1.0,-2.0,-1.0,0.0,1.0,-1.0,-3.0
1706292002.0755181,-1.0,-2.0,0.0,0.0,-2.0,1.0,-1.0,0.0
1706292002.0755181,-1.0,-3.0,-1.0,-1.0,0.0,0.0,-1.0,-3.0
1706292002.0865228,-1.0,7.0,1.0,-1.0,-1.0,0.0,-1.0,-2.0
1706292002.0865228,-2.0,-9.0,-2.0,-2.0,-2.0,-3.0,-1.0,-3.0
1706292002.0945182,-1.0,0.0,-1.0,-2.0,-1.0,-1.0,-3.0,-1.0
1706292002.0945182,-1.0,-1.0,-1.0,-2.0,-1.0,1.0,2.0,-3.0
1706292002.1095183,1.0,3.0,1.0,-1.0,-3.0,-2.0,-1.0,0.0
1706292002.1095183,-5.0,0.0,-2.0,-1.0,-2.0,-1.0,0.0,1.0
1706292002.1095183,-4.0,-13.0,-1.0,-1.0,-1.0,-1.0,-1.0,-3.0
1706292002.1095183,0.0,3.0,0.0,-1.0,-1.0,-1.0,-2.0,-3.0
1706292002.1325178,4.0,-4.0,-3.0,-1.0,-3.0,-2.0,0.0,2.0
1706292002.1325178,-3.0,-1.0,-1.0,2.0,-1.0,1.0,-3.0,-1.0
1706292002.1325178,-3.0,-4.0,-1.0,0.0,-2.0,-1.0,-2.0,-1.0
1706292002.1325178,1.0,-5.0,-1.0,0.0,-1.0,0.0,-1.0,5.0
1706292002.1465175,-1.0,-2.0,-1.0,-1.0,-1.0,-2.0,-7.0,-17.0
1706292002.1465175,1.0,0.0,1.0,-1.0,1.0,-1.0,-3.0,-1.0
1706292002.1475177,1.0,6.0,0.0,0.0,0.0,-1.0,-1.0,-1.0
1706292002.1475177,-2.0,-2.0,2.0,-1.0,-2.0,-2.0,-1.0,2.0
1706292002.1775174,-1.0,6.0,1.0,0.0,0.0,-1.0,1.0,3.0
1706292002.1775174,-1.0,-4.0,-3.0,-1.0,-1.0,-1.0,-2.0,-3.0
1706292002.178518,4.0,14.0,-3.0,0.0,-1.0,-1.0,0.0,2.0
1706292002.178518,-2.0,1.0,-2.0,0.0,-1.0,-1.0,-2.0,-3.0
1706292002.195519,-2.0,-2.0,-1.0,0.0,-2.0,0.0,-1.0,0.0
1706292002.195519,-1.0,-1.0,0.0,-2.0,-1.0,-1.0,-2.0,-4.0
1706292002.195519,-2.0,-4.0,2.0,0.0,0.0,-2.0,-2.0,0.0
1706292002.195519,-2.0,1.0,1.0,-1.0,-1.0,-2.0,-1.0,-2.0
1706292002.2075222,-7.0,1.0,-1.0,-1.0,-1.0,1.0,2.0,0.0
1706292002.2075222,-1.0,-1.0,-1.0,-1.0,0.0,-1.0,1.0,0.0
1706292002.208522,-1.0,-2.0,-1.0,0.0,-1.0,-3.0,-1.0,-1.0
1706292002.208522,-1.0,-1.0,-2.0,-1.0,-1.0,-1.0,0.0,-1.0
1706292002.2405188,-10.0,-16.0,-2.0,0.0,1.0,-3.0,0.0,-2.0
1706292002.2405188,2.0,2.0,0.0,-2.0,-3.0,-2.0,0.0,2.0
1706292002.243518,-2.0,-1.0,-2.0,-1.0,-1.0,-1.0,-1.0,-3.0
1706292002.243518,-2.0,-2.0,-1.0,-1.0,-1.0,-1.0,0.0,-4.0
1706292002.2525206,0.0,-4.0,0.0,-1.0,1.0,-2.0,-1.0,2.0
1706292002.2525206,0.0,-1.0,1.0,1.0,-1.0,0.0,0.0,-1.0
1706292002.253519,1.0,0.0,-2.0,-1.0,-3.0,-1.0,2.0,-2.0
1706292002.253519,-1.0,0.0,-2.0,-2.0,-2.0,-1.0,0.0,0.0
1706292002.2675223,2.0,9.0,0.0,-1.0,-1.0,0.0,2.0,-1.0
1706292002.2675223,-3.0,-21.0,-4.0,-1.0,0.0,-1.0,0.0,1.0
1706292002.2685242,-3.0,-1.0,-2.0,-2.0,-1.0,-1.0,-1.0,-2.0
1706292002.2685242,-1.0,-3.0,-1.0,-1.0,0.0,0.0,-1.0,3.0
1706292002.2915187,3.0,2.0,-2.0,-1.0,-3.0,-2.0,-8.0,-12.0
1706292002.2915187,-1.0,8.0,0.0,-1.0,-2.0,0.0,-4.0,-3.0
1706292002.2915187,0.0,-5.0,0.0,-3.0,-1.0,-1.0,-1.0,3.0
1706292002.2915187,-1.0,-3.0,-1.0,-2.0,0.0,-1.0,2.0,0.0
1706292002.303519,-2.0,-2.0,-3.0,-2.0,-2.0,-2.0,0.0,1.0
1706292002.303519,-1.0,1.0,0.0,0.0,-2.0,0.0,0.0,2.0
1706292002.3125238,-1.0,-3.0,-1.0,-2.0,-2.0,0.0,-4.0,-3.0
1706292002.3125238,0.0,3.0,0.0,0.0,-2.0,1.0,-7.0,-1.0
1706292002.3275204,1.0,-2.0,-1.0,0.0,-1.0,-2.0,3.0,3.0
1706292002.3275204,-1.0,2.0,0.0,0.0,1.0,-3.0,-3.0,-2.0
1706292002.3275204,-1.0,1.0,0.0,-1.0,-1.0,0.0,-1.0,1.0
1706292002.3275204,-7.0,0.0,1.0,1.0,-1.0,-5.0,-2.0,-4.0
1706292002.3605177,7.0,-3.0,0.0,1.0,-2.0,-1.0,-4.0,1.0
1706292002.3615186,-2.0,1.0,-1.0,-2.0,-2.0,-1.0,-3.0,0.0
1706292002.3615186,-3.0,0.0,0.0,-1.0,0.0,0.0,-1.0,-1.0
1706292002.3615186,0.0,-2.0,-3.0,-2.0,-1.0,-2.0,-2.0,-2.0
1706292002.3635354,5.0,9.0,-2.0,0.0,1.0,-1.0,-1.0,1.0
1706292002.3635354,1.0,2.0,0.0,-2.0,-1.0,0.0,0.0,0.0
1706292002.3725214,-1.0,-2.0,0.0,0.0,-1.0,-2.0,-1.0,-1.0
1706292002.3725214,1.0,0.0,-2.0,-1.0,0.0,0.0,2.0,-2.0
1706292002.3872185,-4.0,-2.0,0.0,0.0,-1.0,1.0,0.0,0.0
1706292002.3872185,-1.0,0.0,-1.0,1.0,-1.0,-1.0,-3.0,-1.0
1706292002.3882186,-1.0,-2.0,-1.0,-1.0,-2.0,-1.0,-1.0,-2.0
1706292002.3882186,0.0,-3.0,0.0,-1.0,-2.0,-1.0,0.0,-1.0
1706292002.4093528,-1.0,-3.0,0.0,-1.0,1.0,1.0,0.0,-1.0
1706292002.4093528,-1.0,7.0,0.0,-1.0,0.0,0.0,1.0,-2.0
1706292002.4102294,-5.0,-25.0,-6.0,-1.0,0.0,-1.0,2.0,6.0
1706292002.4102294,0.0,0.0,-1.0,-1.0,-2.0,-1.0,-2.0,-4.0
1706292002.4316394,-2.0,-2.0,-3.0,-2.0,-3.0,-1.0,0.0,1.0
1706292002.4316394,-1.0,1.0,0.0,0.0,-1.0,-2.0,2.0,-5.0
1706292002.4316394,1.0,6.0,-2.0,1.0,1.0,-2.0,1.0,4.0
1706292002.4316394,1.0,-2.0,-3.0,0.0,-2.0,1.0,-2.0,1.0
1706292002.447267,-6.0,-4.0,0.0,-1.0,-2.0,-7.0,-2.0,-2.0
1706292002.447267,-1.0,-1.0,-1.0,-1.0,-2.0,0.0,0.0,-1.0
1706292002.447267,-1.0,5.0,0.0,-2.0,-2.0,-1.0,-3.0,-6.0
1706292002.447267,-2.0,-1.0,-1.0,0.0,1.0,1.0,0.0,1.0
1706292002.4693842,-3.0,0.0,1.0,-3.0,-1.0,0.0,-1.0,-2.0
1706292002.4693842,1.0,-3.0,-3.0,-3.0,-1.0,1.0,-2.0,0.0
1706292002.4703395,0.0,3.0,1.0,-1.0,-1.0,1.0,-1.0,-3.0
1706292002.4703395,-1.0,-2.0,-2.0,-2.0,-1.0,-1.0,1.0,-3.0
1706292002.4843388,-1.0,-2.0,-1.0,-3.0,-2.0,-2.0,1.0,2.0
1706292002.4843388,-1.0,-2.0,-3.0,-1.0,1.0,-5.0,-2.0,-2.0
1706292002.491589,0.0,0.0,-3.0,-4.0,-3.0,1.0,-2.0,-2.0
1706292002.491589,-1.0,0.0,-1.0,-1.0,-1.0,-1.0,-1.0,0.0
1706292002.5070863,0.0,6.0,0.0,-1.0,-1.0,1.0,2.0,1.0
1706292002.5078778,-4.0,-25.0,-5.0,-2.0,-7.0,0.0,2.0,1.0
1706292002.5078778,-1.0,4.0,1.0,1.0,5.0,0.0,-1.0,-2.0
1706292002.5078778,-1.0,0.0,0.0,-4.0,-3.0,-4.0,-2.0,-2.0
1706292002.529734,-2.0,-3.0,-1.0,0.0,-1.0,-2.0,-2.0,-1.0
1706292002.529734,0.0,5.0,1.0,0.0,1.0,2.0,1.0,1.0
1706292002.529734,-1.0,0.0,-1.0,0.0,-4.0,-2.0,-1.0,-1.0
1706292002.529734,0.0,-3.0,-1.0,-1.0,0.0,-1.0,0.0,-1.0
1706292002.548603,-3.0,-2.0,-2.0,-2.0,-2.0,-1.0,-1.0,-1.0
1706292002.548603,-1.0,4.0,0.0,-2.0,-1.0,-3.0,-2.0,-3.0
1706292002.5513213,-1.0,-3.0,-1.0,-2.0,-1.0,2.0,0.0,-3.0
1706292002.5513213,0.0,3.0,-1.0,0.0,-1.0,-6.0,-1.0,0.0
1706292002.583673,-1.0,-4.0,-1.0,-3.0,-3.0,0.0,-3.0,-1.0
1706292002.583673,-2.0,1.0,1.0,-3.0,-2.0,1.0,4.0,7.0
1706292002.583673,-2.0,0.0,-1.0,-4.0,0.0,-3.0,-5.0,-18.0
1706292002.583673,-3.0,-2.0,0.0,-1.0,-2.0,1.0,0.0,-1.0
1706292002.597997,2.0,0.0,-2.0,0.0,-1.0,-1.0,-7.0,1.0
1706292002.597997,0.0,0.0,-1.0,0.0,2.0,3.0,9.0,-1.0
1706292002.597997,0.0,-1.0,-1.0,0.0,0.0,-2.0,3.0,4.0
1706292002.597997,-2.0,-1.0,-1.0,0.0,-1.0,2.0,4.0,-1.0
1706292002.603466,-7.0,1.0,1.0,-1.0,1.0,0.0,-3.0,-1.0
1706292002.603466,-1.0,-12.0,-4.0,0.0,0.0,-2.0,-5.0,-5.0
1706292002.612468,0.0,1.0,-2.0,0.0,-1.0,-2.0,-1.0,3.0
1706292002.612468,0.0,0.0,-2.0,-2.0,-2.0,0.0,-4.0,-1.0
1706292002.6316113,-5.0,-4.0,-2.0,1.0,0.0,0.0,2.0,-1.0
1706292002.6316113,-1.0,5.0,0.0,-3.0,3.0,0.0,-4.0,1.0
1706292002.6316113,-2.0,-1.0,-1.0,-1.0,-13.0,-2.0,0.0,1.0
1706292002.6316113,0.0,-3.0,0.0,-1.0,3.0,-1.0,-4.0,-1.0
1706292002.6504068,0.0,1.0,0.0,-1.0,-1.0,2.0,6.0,0.0
1706292002.6504068,-1.0,3.0,-1.0,-1.0,3.0,-3.0,-2.0,-2.0
1706292002.6504068,0.0,-2.0,-1.0,-1.0,0.0,-3.0,-1.0,0.0
1706292002.6504068,-3.0,2.0,-1.0,1.0,-1.0,3.0,0.0,-2.0
1706292002.6639624,1.0,-3.0,-2.0,-2.0,0.0,-1.0,-1.0,-1.0
1706292002.6639624,0.0,2.0,0.0,0.0,-3.0,-2.0,-3.0,0.0
1706292002.67083,-4.0,-1.0,-1.0,-1.0,2.0,0.0,1.0,1.0
1706292002.67083,1.0,-1.0,-1.0,-1.0,-2.0,-3.0,4.0,-1.0
1706292002.6955037,0.0,-2.0,-1.0,-1.0,-1.0,-2.0,-8.0,-7.0
1706292002.6965146,0.0,0.0,0.0,-1.0,-2.0,0.0,-4.0,-6.0
1706292002.6965146,0.0,1.0,1.0,1.0,0.0,-1.0,-2.0,-2.0
1706292002.6965146,-1.0,-1.0,0.0,-3.0,0.0,1.0,-2.0,-2.0
1706292002.709653,3.0,1.0,-2.0,-1.0,0.0,-1.0,3.0,0.0
1706292002.709653,-5.0,2.0,-2.0,-1.0,-3.0,-2.0,1.0,-10.0
1706292002.709653,-8.0,1.0,-2.0,-2.0,0.0,1.0,0.0,-1.0
1706292002.7106535,-1.0,-3.0,-2.0,1.0,-2.0,-2.0,-3.0,2.0
1706292002.7320027,0.0,0.0,-1.0,0.0,-2.0,-2.0,-1.0,3.0
1706292002.7320027,-1.0,2.0,-1.0,-1.0,-4.0,0.0,-3.0,2.0
1706292002.7320027,-2.0,-2.0,-1.0,-1.0,1.0,0.0,-1.0,1.0
1706292002.7330093,-1.0,-1.0,-2.0,-2.0,-1.0,-2.0,0.0,-3.0
1706292002.7616076,-1.0,-1.0,-1.0,0.0,0.0,0.0,0.0,-2.0
1706292002.7616076,0.0,-2.0,-1.0,-3.0,-1.0,-1.0,1.0,-1.0
1706292002.7616076,3.0,-1.0,-2.0,-2.0,0.0,-2.0,0.0,0.0
1706292002.7616076,-1.0,0.0,0.0,-1.0,1.0,-1.0,-5.0,1.0
1706292002.777716,0.0,-1.0,-1.0,-2.0,-2.0,0.0,0.0,-1.0
1706292002.777716,-1.0,1.0,-1.0,-1.0,-1.0,-1.0,-2.0,3.0
1706292002.7786837,1.0,-1.0,-2.0,-3.0,-1.0,-1.0,2.0,0.0
1706292002.7786837,-1.0,-3.0,0.0,-2.0,-2.0,0.0,0.0,-1.0
1706292002.7841609,-2.0,-3.0,-2.0,-2.0,-1.0,0.0,0.0,-1.0
1706292002.7841609,-1.0,1.0,0.0,-1.0,-3.0,-1.0,0.0,-3.0
1706292002.7912588,1.0,-1.0,-1.0,1.0,-1.0,-1.0,-6.0,-1.0
1706292002.7912588,-2.0,1.0,0.0,-1.0,-2.0,2.0,3.0,-4.0
1706292002.8092892,0.0,4.0,1.0,-1.0,0.0,0.0,2.0,10.0
1706292002.8092892,-2.0,-8.0,-3.0,0.0,-1.0,1.0,-3.0,-5.0
1706292002.8092892,8.0,15.0,0.0,0.0,0.0,-3.0,-3.0,0.0
1706292002.8092892,-2.0,1.0,1.0,0.0,0.0,-1.0,-3.0,-2.0
1706292002.829629,0.0,-6.0,-2.0,1.0,-1.0,-1.0,2.0,1.0
1706292002.829629,1.0,4.0,0.0,0.0,-2.0,-1.0,-2.0,3.0
1706292002.8304248,-3.0,-4.0,-2.0,1.0,0.0,-1.0,-2.0,2.0
1706292002.8304248,-1.0,-1.0,-1.0,0.0,-1.0,-4.0,-3.0,-3.0
1706292002.8525453,0.0,1.0,0.0,0.0,-1.0,-3.0,-2.0,-5.0
1706292002.8525453,-4.0,3.0,3.0,1.0,0.0,-3.0,-3.0,0.0
1706292002.8525453,-6.0,-5.0,0.0,0.0,-2.0,-2.0,-2.0,-3.0
1706292002.8525453,-1.0,-1.0,-1.0,0.0,-2.0,-1.0,-4.0,2.0
1706292002.8670876,3.0,3.0,0.0,-1.0,0.0,0.0,-3.0,-3.0
1706292002.8670876,1.0,-3.0,-2.0,-3.0,0.0,-1.0,-2.0,0.0
1706292002.868087,-1.0,-3.0,-1.0,-2.0,-1.0,0.0,1.0,1.0
1706292002.868087,2.0,-12.0,-2.0,0.0,-2.0,0.0,-1.0,0.0
1706292002.8895411,-2.0,18.0,0.0,-2.0,-3.0,-5.0,-2.0,-3.0
1706292002.8895411,-3.0,-3.0,-1.0,0.0,0.0,-2.0,0.0,-2.0
1706292002.8905442,1.0,-1.0,-1.0,-1.0,1.0,-1.0,0.0,-2.0
1706292002.8905442,-2.0,0.0,-1.0,0.0,-1.0,-1.0,-1.0,-1.0
1706292002.9146676,-2.0,-8.0,-4.0,0.0,-1.0,1.0,-1.0,-4.0
1706292002.9146676,-1.0,-3.0,-1.0,-1.0,-3.0,-2.0,-1.0,-1.0
1706292002.9146676,-3.0,-2.0,-1.0,-1.0,-1.0,0.0,0.0,-2.0
1706292002.9146676,1.0,0.0,7.0,1.0,-1.0,-2.0,1.0,-1.0
1706292002.927224,-3.0,-6.0,-5.0,-2.0,0.0,0.0,0.0,0.0
1706292002.927224,0.0,-1.0,-5.0,-2.0,-1.0,-1.0,-3.0,0.0
1706292002.927224,7.0,17.0,3.0,-1.0,-1.0,0.0,0.0,-2.0
1706292002.927224,-3.0,-15.0,-7.0,-2.0,-1.0,0.0,0.0,-2.0
1706292002.949656,0.0,-3.0,4.0,0.0,-1.0,0.0,-2.0,-2.0
1706292002.9502501,-2.0,-3.0,0.0,0.0,-1.0,-1.0,0.0,0.0
1706292002.9502501,-2.0,-6.0,-3.0,-2.0,-3.0,0.0,0.0,6.0
1706292002.9502501,-1.0,7.0,0.0,0.0,-1.0,-3.0,-6.0,-14.0
1706292002.971569,2.0,-3.0,-2.0,-2.0,-1.0,-1.0,-2.0,0.0
1706292002.971569,0.0,-2.0,-3.0,-1.0,0.0,-2.0,0.0,0.0
1706292002.97257,-3.0,-4.0,-1.0,-1.0,-1.0,-2.0,0.0,0.0
1706292002.97257,2.0,5.0,-2.0,0.0,0.0,-3.0,0.0,3.0
1706292002.9875042,-5.0,-7.0,0.0,-1.0,0.0,-3.0,-2.0,-4.0
1706292002.9875042,-3.0,2.0,0.0,-1.0,-1.0,-1.0,-1.0,0.0
1706292002.9875042,1.0,-3.0,0.0,-2.0,-2.0,0.0,1.0,1.0
1706292002.9885046,-1.0,-1.0,-2.0,-2.0,-2.0,-1.0,0.0,1.0
1706292003.011847,-3.0,-2.0,-2.0,-1.0,-1.0,0.0,-1.0,-3.0
1706292003.011847,1.0,0.0,1.0,-1.0,-2.0,-1.0,1.0,-1.0
1706292003.0128596,-2.0,-5.0,-3.0,-2.0,-1.0,0.0,-3.0,-3.0
1706292003.0128596,-1.0,-1.0,-5.0,-3.0,-2.0,-1.0,-3.0,0.0
1706292003.0335295,5.0,-3.0,0.0,-2.0,0.0,-1.0,-1.0,2.0
1706292003.0335295,0.0,0.0,-1.0,-1.0,0.0,-2.0,-1.0,0.0
1706292003.0335295,-3.0,3.0,1.0,0.0,-1.0,-1.0,0.0,-2.0
1706292003.0335295,1.0,3.0,0.0,-2.0,-2.0,-1.0,-1.0,0.0
1706292003.047041,-3.0,1.0,-1.0,0.0,-1.0,-1.0,1.0,-1.0
1706292003.047041,1.0,-2.0,-1.0,0.0,-1.0,-1.0,-2.0,-2.0
1706292003.0540712,0.0,-2.0,-1.0,0.0,1.0,0.0,-2.0,-3.0
1706292003.0540712,-3.0,0.0,-1.0,-1.0,0.0,0.0,0.0,1.0
1706292003.0806887,-2.0,-4.0,-1.0,0.0,-1.0,0.0,0.0,6.0
1706292003.0806887,1.0,4.0,1.0,-1.0,-1.0,-1.0,-3.0,-15.0
1706292003.0806887,-4.0,-5.0,-1.0,-1.0,-1.0,-6.0,-4.0,-4.0
1706292003.0806887,2.0,-2.0,-1.0,-1.0,0.0,1.0,1.0,3.0
1706292003.0918133,-2.0,-4.0,-2.0,-2.0,-3.0,-2.0,0.0,-2.0
1706292003.0918133,0.0,-1.0,-4.0,-1.0,0.0,1.0,0.0,3.0
1706292003.0928066,-4.0,-3.0,0.0,0.0,0.0,-1.0,-1.0,-3.0
1706292003.0928066,-2.0,-5.0,-1.0,1.0,0.0,-3.0,-1.0,-3.0
1706292003.1152098,-1.0,14.0,-1.0,1.0,-2.0,-3.0,-3.0,0.0
1706292003.1152098,-3.0,-2.0,-1.0,-1.0,1.0,-1.0,0.0,3.0
1706292003.1152098,1.0,-5.0,-1.0,-1.0,-1.0,1.0,-2.0,-2.0
1706292003.1152098,-3.0,2.0,0.0,-1.0,-1.0,-2.0,-1.0,3.0
1706292003.1408055,0.0,-7.0,-1.0,-1.0,0.0,0.0,-2.0,-1.0
1706292003.1408055,-2.0,5.0,0.0,0.0,-1.0,-3.0,0.0,0.0
1706292003.1408055,0.0,-1.0,-2.0,-2.0,-2.0,-1.0,-1.0,0.0
1706292003.1408055,2.0,-4.0,0.0,-1.0,-2.0,-1.0,-1.0,2.0
1706292003.160531,-2.0,-3.0,-1.0,-2.0,-1.0,-3.0,-1.0,-5.0
1706292003.160531,-1.0,1.0,2.0,-1.0,-2.0,-3.0,1.0,10.0
1706292003.1615372,0.0,-1.0,-2.0,-1.0,0.0,0.0,-5.0,-13.0
1706292003.1615372,0.0,-1.0,-1.0,-1.0,7.0,-2.0,-1.0,1.0
1706292003.1680176,-2.0,0.0,0.0,-2.0,-15.0,3.0,1.0,-3.0
1706292003.1680176,-1.0,-1.0,-1.0,1.0,3.0,1.0,-1.0,3.0
1706292003.1680176,0.0,-4.0,-1.0,0.0,-1.0,-4.0,1.0,2.0
1706292003.1680176,-1.0,-1.0,0.0,-1.0,-1.0,4.0,1.0,0.0
1706292003.1988316,-1.0,-3.0,-2.0,-2.0,2.0,-1.0,-2.0,-1.0
1706292003.1988316,-1.0,-6.0,-2.0,-1.0,-2.0,-2.0,-2.0,-5.0
1706292003.1988316,-2.0,-1.0,-1.0,-2.0,-2.0,-1.0,-2.0,2.0
1706292003.1988316,-3.0,1.0,1.0,-1.0,-1.0,4.0,-1.0,-6.0
1706292003.2124572,2.0,-4.0,-1.0,-1.0,1.0,-6.0,-1.0,4.0
1706292003.2124572,0.0,-2.0,-1.0,0.0,-3.0,0.0,-1.0,-3.0
1706292003.213456,0.0,1.0,-1.0,-1.0,-1.0,-2.0,-1.0,-1.0
1706292003.213456,-2.0,4.0,-2.0,-3.0,-5.0,-3.0,0.0,1.0
1706292003.226644,-4.0,-16.0,-3.0,0.0,2.0,4.0,-1.0,-2.0
1706292003.226644,0.0,-2.0,-2.0,1.0,1.0,-2.0,-2.0,-1.0
1706292003.2276254,-2.0,3.0,0.0,2.0,-1.0,1.0,0.0,0.0
1706292003.2276254,0.0,3.0,0.0,-2.0,-2.0,-2.0,-1.0,-2.0
1706292003.2609205,-3.0,0.0,0.0,0.0,0.0,-2.0,0.0,-1.0
1706292003.2609205,-1.0,-1.0,-2.0,-4.0,-3.0,-3.0,-9.0,-4.0
1706292003.2609205,0.0,-10.0,0.0,-1.0,0.0,3.0,10.0,9.0
1706292003.2609205,-1.0,12.0,-4.0,-1.0,-2.0,-3.0,-8.0,-18.0
1706292003.2726912,-2.0,2.0,-1.0,-1.0,2.0,-1.0,0.0,-3.0
1706292003.2726912,-2.0,-5.0,1.0,-1.0,1.0,1.0,0.0,1.0
1706292003.2736886,2.0,2.0,-1.0,-2.0,3.0,-1.0,1.0,1.0
1706292003.2736886,-2.0,-8.0,-2.0,1.0,-10.0,-3.0,-2.0,4.0
1706292003.2868114,1.0,-1.0,0.0,0.0,2.0,-2.0,-2.0,3.0
1706292003.2868114,1.0,3.0,-1.0,1.0,-1.0,-3.0,0.0,-4.0
1706292003.287784,-2.0,1.0,-2.0,-1.0,-3.0,2.0,-1.0,-2.0
1706292003.287784,-8.0,-16.0,-3.0,0.0,3.0,0.0,3.0,2.0
1706292003.3090956,-1.0,-1.0,-2.0,-1.0,0.0,-1.0,-2.0,-1.0
1706292003.3090956,-2.0,-3.0,0.0,-2.0,-3.0,-6.0,-1.0,-1.0
1706292003.3101125,1.0,0.0,-1.0,-2.0,1.0,-1.0,-1.0,0.0
1706292003.3101125,-1.0,-1.0,-2.0,0.0,-2.0,-4.0,-1.0,4.0
1706292003.33186,-1.0,3.0,-1.0,-1.0,-2.0,2.0,-3.0,-13.0
1706292003.33186,0.0,-4.0,-1.0,-2.0,0.0,5.0,3.0,2.0
1706292003.3328583,-3.0,0.0,-3.0,-1.0,-1.0,-10.0,-6.0,-50.0
1706292003.3328583,1.0,0.0,-1.0,-2.0,-1.0,-4.0,-12.0,53.0
1706292003.3471222,-1.0,3.0,0.0,-2.0,-2.0,-2.0,-2.0,-6.0
1706292003.3471222,8.0,0.0,-3.0,-1.0,-2.0,-2.0,0.0,13.0
1706292003.3478413,-1.0,2.0,0.0,0.0,-3.0,-1.0,-8.0,5.0
1706292003.3478413,-10.0,-13.0,-2.0,-1.0,-1.0,2.0,7.0,-11.0
1706292003.3702357,5.0,12.0,1.0,1.0,1.0,-2.0,-2.0,-10.0
1706292003.3702357,-9.0,-27.0,-4.0,-1.0,0.0,-1.0,-5.0,0.0
1706292003.3712096,-2.0,-2.0,-2.0,0.0,-2.0,0.0,9.0,8.0
1706292003.3722112,0.0,-3.0,0.0,1.0,1.0,-3.0,-11.0,-10.0
1706292003.3917263,1.0,1.0,-1.0,-2.0,0.0,3.0,14.0,15.0
1706292003.3917263,-10.0,7.0,1.0,0.0,0.0,-3.0,1.0,-13.0
1706292003.3927357,2.0,-3.0,-3.0,-3.0,1.0,2.0,-4.0,8.0
1706292003.3927357,1.0,-7.0,0.0,0.0,0.0,0.0,3.0,-13.0
1706292003.4150853,0.0,16.0,-1.0,-2.0,-3.0,0.0,-7.0,-2.0
1706292003.4150853,0.0,4.0,0.0,-1.0,-4.0,-4.0,1.0,2.0
1706292003.4150853,-3.0,-5.0,-1.0,-1.0,0.0,-3.0,-1.0,0.0
1706292003.4160845,3.0,8.0,1.0,-2.0,-1.0,-2.0,-1.0,-2.0
1706292003.4291198,-3.0,-11.0,0.0,0.0,-3.0,-2.0,3.0,4.0
1706292003.4291198,0.0,0.0,-1.0,1.0,0.0,2.0,2.0,-4.0
1706292003.4300141,-2.0,3.0,-1.0,-2.0,0.0,-2.0,-1.0,7.0
1706292003.4300141,1.0,1.0,0.0,-1.0,-2.0,0.0,3.0,-10.0
1706292003.452372,-3.0,-6.0,-2.0,1.0,-1.0,-1.0,-7.0,8.0
1706292003.452372,-1.0,3.0,-1.0,-1.0,-1.0,-3.0,1.0,-12.0
1706292003.4533687,0.0,-3.0,0.0,-1.0,-3.0,0.0,-3.0,0.0
1706292003.4533687,0.0,4.0,-2.0,-2.0,-1.0,0.0,4.0,-2.0
1706292003.47237,0.0,-3.0,0.0,-1.0,-1.0,-1.0,-2.0,-2.0
1706292003.47237,0.0,0.0,-2.0,-1.0,-1.0,1.0,-2.0,3.0
1706292003.47237,-1.0,-2.0,0.0,1.0,-1.0,1.0,-1.0,1.0
1706292003.47237,-1.0,-1.0,0.0,-1.0,1.0,-3.0,2.0,-45.0
1706292003.4896562,3.0,-1.0,0.0,0.0,-2.0,-2.0,-2.0,2.0
1706292003.4896562,1.0,-1.0,-2.0,-2.0,-2.0,-1.0,-1.0,-1.0
1706292003.4896562,0.0,0.0,-2.0,-3.0,-2.0,0.0,1.0,9.0
1706292003.4896562,0.0,3.0,-2.0,-1.0,1.0,2.0,3.0,-8.0
1706292003.511654,-4.0,4.0,-1.0,-1.0,1.0,-3.0,-2.0,-7.0
1706292003.511654,-8.0,-19.0,-4.0,-1.0,-2.0,-1.0,1.0,3.0
1706292003.5126543,-1.0,-1.0,1.0,-1.0,-1.0,-2.0,2.0,-13.0
1706292003.5126543,0.0,0.0,-2.0,-4.0,-2.0,0.0,-2.0,12.0
1706292003.5292938,-2.0,-3.0,-3.0,-2.0,1.0,0.0,2.0,2.0
1706292003.5292938,-1.0,5.0,1.0,-2.0,-1.0,1.0,0.0,6.0
1706292003.530294,-1.0,-1.0,-2.0,0.0,-2.0,-3.0,0.0,0.0
1706292003.530294,0.0,-2.0,-3.0,-1.0,-3.0,-3.0,-2.0,8.0
1706292003.5497322,-2.0,-6.0,-1.0,-2.0,-3.0,-2.0,-3.0,-6.0
1706292003.5497322,2.0,2.0,-1.0,0.0,-1.0,-1.0,0.0,-7.0
1706292003.5507338,-1.0,-2.0,0.0,-2.0,-3.0,-1.0,-5.0,1.0
1706292003.5507338,0.0,2.0,0.0,1.0,-1.0,1.0,-1.0,7.0
1706292003.5719047,-1.0,-4.0,-3.0,-1.0,-1.0,-1.0,0.0,-3.0
1706292003.5719047,-1.0,4.0,-1.0,-3.0,-1.0,0.0,-2.0,-2.0
1706292003.57273,0.0,0.0,1.0,-2.0,0.0,-2.0,-1.0,4.0
1706292003.57273,-3.0,0.0,-1.0,-1.0,0.0,0.0,-6.0,-13.0
1706292003.5913725,5.0,7.0,1.0,-1.0,0.0,-2.0,-6.0,3.0
1706292003.5913725,-1.0,0.0,-1.0,0.0,-1.0,-1.0,-1.0,-5.0
1706292003.5913725,-2.0,0.0,-1.0,0.0,0.0,-1.0,-2.0,2.0
1706292003.5923717,-6.0,1.0,-1.0,0.0,-1.0,1.0,1.0,3.0
1706292003.6093102,-3.0,-6.0,1.0,0.0,0.0,-2.0,-2.0,-2.0
1706292003.6093102,1.0,2.0,-2.0,0.0,0.0,4.0,-5.0,-1.0
1706292003.6183045,1.0,-1.0,-1.0,-2.0,-2.0,-8.0,-1.0,-1.0
1706292003.6183045,-8.0,-4.0,1.0,1.0,0.0,4.0,16.0,4.0
1706292003.631669,0.0,-4.0,-3.0,-2.0,-4.0,-7.0,-5.0,1.0
1706292003.6324346,-2.0,1.0,1.0,0.0,0.0,-2.0,-10.0,2.0
1706292003.6324346,-4.0,-1.0,0.0,0.0,1.0,5.0,6.0,-1.0
1706292003.63343,1.0,-1.0,0.0,0.0,-1.0,-3.0,-4.0,1.0
1706292003.6462126,-4.0,-4.0,-2.0,-1.0,-1.0,7.0,13.0,4.0
1706292003.6462126,4.0,3.0,0.0,1.0,-1.0,-2.0,-4.0,-17.0
1706292003.6638098,-1.0,-2.0,-1.0,0.0,-3.0,-9.0,-1.0,-2.0
1706292003.6638098,2.0,0.0,-1.0,-2.0,0.0,-2.0,-10.0,4.0
1706292003.6688256,-1.0,-2.0,0.0,-1.0,0.0,2.0,1.0,-5.0
1706292003.669826,-1.0,-3.0,-2.0,-2.0,-1.0,1.0,-4.0,-5.0
1706292003.669826,-1.0,0.0,-1.0,-1.0,0.0,5.0,2.0,-1.0
1706292003.669826,1.0,-2.0,-2.0,-2.0,0.0,-5.0,-6.0,-1.0
1706292003.6919348,-3.0,-2.0,-1.0,0.0,0.0,-4.0,-10.0,-5.0
1706292003.6919348,0.0,0.0,-1.0,0.0,0.0,1.0,9.0,3.0
1706292003.6973615,0.0,-2.0,-3.0,0.0,-1.0,-2.0,-7.0,-3.0
1706292003.6973615,2.0,1.0,-1.0,-1.0,-1.0,0.0,3.0,3.0
1706292003.707361,-1.0,-2.0,-2.0,-2.0,1.0,-1.0,-1.0,1.0
1706292003.707361,-2.0,-1.0,-2.0,-2.0,-1.0,-3.0,7.0,4.0
1706292003.7153726,-1.0,-2.0,-1.0,-1.0,-1.0,1.0,-2.0,0.0
1706292003.7153726,-1.0,-2.0,-2.0,-2.0,-1.0,0.0,0.0,-1.0
1706292003.7296653,-2.0,0.0,-1.0,-2.0,-1.0,2.0,-1.0,-2.0
1706292003.7296653,-1.0,0.0,1.0,-2.0,-1.0,-2.0,-2.0,3.0
1706292003.7306614,-3.0,0.0,-3.0,-2.0,0.0,-1.0,-5.0,-3.0
1706292003.7306614,0.0,6.0,0.0,-1.0,0.0,4.0,3.0,-1.0
1706292003.755858,-2.0,-22.0,-5.0,-1.0,-1.0,-7.0,-2.0,-1.0
1706292003.755858,-5.0,1.0,0.0,-1.0,-2.0,0.0,-4.0,3.0
1706292003.755858,4.0,-2.0,-2.0,-2.0,0.0,1.0,-3.0,-15.0
1706292003.755858,-1.0,-3.0,0.0,-2.0,-2.0,-2.0,-4.0,0.0
1706292003.7665148,-2.0,4.0,-2.0,-1.0,-1.0,0.0,0.0,-2.0
1706292003.7665148,-2.0,-2.0,-1.0,-1.0,-1.0,0.0,-3.0,1.0
1706292003.77451,-5.0,-3.0,0.0,-2.0,-1.0,-2.0,1.0,4.0
1706292003.77451,0.0,0.0,-2.0,0.0,-1.0,-6.0,-2.0,1.0
1706292003.789223,0.0,1.0,-1.0,0.0,-1.0,1.0,-12.0,-8.0
1706292003.789223,3.0,-2.0,-2.0,0.0,0.0,8.0,29.0,13.0
1706292003.790208,-3.0,1.0,0.0,1.0,-1.0,-8.0,-9.0,-2.0
1706292003.790208,-1.0,-2.0,-3.0,0.0,-1.0,-2.0,-12.0,20.0
1706292003.8148339,-4.0,0.0,-1.0,-1.0,-2.0,-8.0,7.0,7.0
1706292003.8148339,-2.0,-1.0,-3.0,-3.0,-1.0,3.0,1.0,-6.0
1706292003.8148339,1.0,0.0,0.0,0.0,0.0,2.0,-1.0,5.0
1706292003.8148339,-2.0,-3.0,-2.0,0.0,-3.0,0.0,1.0,-27.0
1706292003.8264737,-1.0,0.0,0.0,-1.0,-1.0,0.0,1.0,47.0
1706292003.8274693,4.0,0.0,-2.0,-2.0,-1.0,-7.0,-8.0,9.0
1706292003.8354633,-1.0,-3.0,0.0,-1.0,0.0,0.0,3.0,-9.0
1706292003.8354633,-1.0,-2.0,-2.0,-2.0,0.0,-2.0,-1.0,-3.0
1706292003.8491824,1.0,3.0,-1.0,0.0,-2.0,5.0,0.0,-15.0
1706292003.8491824,0.0,0.0,-1.0,0.0,-2.0,-4.0,-3.0,-8.0
1706292003.8501801,-1.0,-2.0,-1.0,-2.0,-2.0,-1.0,-5.0,10.0
1706292003.8501801,0.0,0.0,-1.0,-1.0,-1.0,0.0,1.0,-4.0
1706292003.8720632,0.0,-1.0,2.0,0.0,-2.0,-2.0,-1.0,-12.0
1706292003.8720632,-1.0,-3.0,0.0,0.0,-1.0,-3.0,-8.0,1.0
1706292003.8793044,0.0,0.0,-3.0,-1.0,-3.0,0.0,4.0,-8.0
1706292003.8793044,-3.0,-2.0,-1.0,-1.0,0.0,-1.0,0.0,2.0
1706292003.886058,2.0,2.0,-2.0,0.0,-1.0,1.0,2.0,-1.0
1706292003.886058,-2.0,0.0,-1.0,-2.0,-1.0,-3.0,-8.0,-7.0
1706292003.894891,1.0,-2.0,0.0,0.0,-1.0,2.0,2.0,2.0
1706292003.894891,-2.0,-3.0,-1.0,-1.0,0.0,-1.0,0.0,-3.0
1706292003.9100623,0.0,-1.0,-3.0,-1.0,-1.0,3.0,-1.0,-11.0
1706292003.9100623,0.0,-1.0,1.0,-1.0,-2.0,-3.0,9.0,0.0
1706292003.9100623,-4.0,-2.0,-1.0,0.0,-1.0,-2.0,-23.0,-3.0
1706292003.9111116,3.0,0.0,0.0,-3.0,-2.0,2.0,6.0,11.0
1706292003.9314718,-2.0,0.0,0.0,0.0,-1.0,-4.0,-2.0,-6.0
1706292003.9314718,1.0,0.0,-2.0,0.0,0.0,-3.0,0.0,-5.0
1706292003.93247,-1.0,-2.0,-1.0,-2.0,-3.0,-1.0,7.0,3.0
1706292003.93247,-2.0,-1.0,-1.0,0.0,-1.0,-2.0,-3.0,3.0
1706292003.9464693,0.0,-1.0,0.0,-2.0,1.0,-1.0,3.0,-4.0
1706292003.9464693,-1.0,-1.0,0.0,0.0,-2.0,0.0,-9.0,2.0
1706292003.9544709,-1.0,-1.0,-2.0,-1.0,-2.0,-3.0,1.0,5.0
1706292003.9544709,1.0,-1.0,-2.0,-1.0,-2.0,-1.0,0.0,-3.0
1706292003.969506,0.0,0.0,-1.0,-1.0,-2.0,0.0,-1.0,-2.0
1706292003.969506,-3.0,-3.0,-2.0,-1.0,-1.0,-1.0,-5.0,-4.0
1706292003.969506,0.0,0.0,-1.0,-1.0,-1.0,2.0,6.0,-1.0
1706292003.9705057,-3.0,-1.0,0.0,0.0,-1.0,1.0,0.0,-5.0
1706292003.9941995,-7.0,-1.0,-2.0,-3.0,0.0,2.0,-4.0,0.0
1706292003.9941995,0.0,-2.0,-1.0,-1.0,-2.0,-8.0,-4.0,1.0
1706292003.9941995,-5.0,-1.0,-1.0,0.0,1.0,2.0,3.0,-7.0
1706292003.9941995,0.0,-1.0,1.0,-1.0,0.0,0.0,7.0,2.0
1706292004.0156257,-3.0,-1.0,1.0,0.0,-3.0,-6.0,-4.0,1.0
1706292004.0156257,-2.0,-1.0,-1.0,0.0,0.0,6.0,-3.0,-3.0
1706292004.0166352,-3.0,-1.0,-2.0,-1.0,0.0,-6.0,0.0,1.0
1706292004.0166352,-2.0,-1.0,0.0,-1.0,0.0,0.0,-2.0,5.0
1706292004.039826,0.0,-3.0,-1.0,-1.0,0.0,3.0,19.0,-1.0
1706292004.039826,-1.0,-2.0,0.0,-1.0,-1.0,-1.0,-17.0,1.0
1706292004.0418253,1.0,-1.0,1.0,0.0,0.0,-2.0,-1.0,-3.0
1706292004.0418253,0.0,-2.0,-2.0,-2.0,0.0,-2.0,-5.0,1.0
1706292004.0520585,0.0,-1.0,-1.0,-1.0,0.0,-1.0,7.0,-1.0
1706292004.053056,-1.0,-2.0,0.0,-1.0,1.0,-1.0,1.0,-4.0
1706292004.053056,0.0,-2.0,-1.0,-2.0,-2.0,-2.0,2.0,3.0
1706292004.053056,0.0,0.0,-1.0,0.0,0.0,0.0,3.0,-3.0
1706292004.0754886,0.0,-1.0,-1.0,1.0,0.0,-3.0,-9.0,-12.0
1706292004.0754886,-2.0,-2.0,-1.0,-2.0,-1.0,-1.0,3.0,29.0
1706292004.0754886,0.0,-2.0,-1.0,-1.0,-1.0,-2.0,-13.0,12.0
1706292004.0754886,-1.0,-1.0,-1.0,-1.0,-1.0,-2.0,4.0,-4.0
1706292004.100047,-1.0,-2.0,0.0,-1.0,-3.0,1.0,-3.0,-2.0
1706292004.100047,0.0,-1.0,-1.0,0.0,-1.0,0.0,-8.0,-7.0
1706292004.101057,1.0,1.0,-2.0,-1.0,-2.0,2.0,20.0,3.0
1706292004.101057,-1.0,-1.0,0.0,-1.0,-2.0,-7.0,-7.0,3.0
1706292004.1123111,-1.0,-1.0,-1.0,-2.0,-1.0,-1.0,-16.0,-6.0
1706292004.1123111,-1.0,-2.0,-1.0,0.0,0.0,0.0,3.0,-5.0
1706292004.1123111,-1.0,-1.0,0.0,-2.0,-1.0,2.0,-5.0,-4.0
1706292004.1123111,-6.0,-7.0,-1.0,1.0,-1.0,-1.0,-1.0,-8.0
1706292004.1460862,3.0,6.0,-2.0,-1.0,-2.0,0.0,-8.0,2.0
1706292004.1470897,-1.0,0.0,-2.0,0.0,-1.0,0.0,7.0,-6.0
1706292004.1470897,-1.0,-1.0,-2.0,0.0,-1.0,-1.0,-2.0,-5.0
1706292004.1470897,-5.0,-3.0,-1.0,-1.0,-1.0,-1.0,-7.0,1.0
1706292004.1510892,-2.0,-2.0,0.0,-1.0,0.0,-3.0,16.0,-1.0
1706292004.1510892,-2.0,0.0,1.0,-3.0,-1.0,-2.0,-35.0,-6.0
1706292004.1510892,-10.0,-16.0,-4.0,0.0,-2.0,-4.0,-1.0,-6.0
1706292004.1510892,4.0,2.0,-1.0,-4.0,-2.0,-2.0,-1.0,2.0
1706292004.1721475,0.0,2.0,0.0,0.0,0.0,-2.0,-5.0,2.0
1706292004.1721475,-2.0,8.0,-1.0,0.0,0.0,0.0,10.0,-7.0
1706292004.1721475,-1.0,-1.0,0.0,-1.0,0.0,-1.0,-6.0,-1.0
1706292004.1721475,-5.0,-3.0,-1.0,0.0,0.0,0.0,-5.0,-9.0
1706292004.204728,0.0,-5.0,-2.0,-1.0,-1.0,1.0,3.0,0.0
1706292004.204728,-3.0,-2.0,-1.0,0.0,-2.0,-6.0,3.0,0.0
1706292004.204728,0.0,3.0,-1.0,-1.0,0.0,-2.0,-1.0,-1.0
1706292004.204728,-3.0,1.0,-1.0,0.0,-1.0,0.0,3.0,2.0
1706292004.2100616,3.0,3.0,-1.0,-2.0,-3.0,0.0,5.0,2.0
1706292004.2100616,-1.0,-2.0,-2.0,-2.0,-2.0,1.0,7.0,-2.0
1706292004.211066,2.0,5.0,1.0,0.0,-1.0,1.0,-2.0,0.0
1706292004.211066,10.0,13.0,-1.0,-1.0,-1.0,-4.0,-11.0,4.0
1706292004.2331874,-2.0,-6.0,-1.0,-2.0,-1.0,0.0,3.0,-16.0
1706292004.2331874,-1.0,-4.0,0.0,-1.0,-2.0,-1.0,-2.0,-2.0
1706292004.2341857,2.0,1.0,-1.0,0.0,0.0,-2.0,2.0,-1.0
1706292004.2341857,-1.0,-3.0,1.0,0.0,0.0,1.0,-3.0,0.0
1706292004.2773197,-2.0,2.0,-1.0,-1.0,-2.0,-4.0,-8.0,2.0
1706292004.2773197,3.0,0.0,-2.0,-3.0,0.0,-2.0,6.0,0.0
1706292004.2773197,-3.0,-4.0,-1.0,-1.0,-2.0,-2.0,-4.0,-4.0
1706292004.2773197,0.0,1.0,-1.0,-3.0,-1.0,-2.0,1.0,-2.0
1706292004.2773197,-9.0,-47.0,-6.0,-2.0,-1.0,-3.0,-8.0,3.0
1706292004.2773197,-5.0,11.0,0.0,-1.0,0.0,0.0,3.0,-3.0
1706292004.2773197,0.0,1.0,-1.0,-1.0,0.0,0.0,-2.0,1.0
1706292004.2773197,-1.0,-1.0,-1.0,-1.0,-1.0,1.0,-1.0,-2.0
1706292004.2922573,1.0,4.0,1.0,0.0,-1.0,0.0,-2.0,2.0
1706292004.2922573,3.0,1.0,-3.0,0.0,-2.0,-1.0,-3.0,0.0
1706292004.2922573,0.0,1.0,1.0,-2.0,0.0,0.0,-2.0,-1.0
1706292004.2922573,-2.0,0.0,-2.0,0.0,-1.0,-1.0,1.0,-1.0
1706292004.315156,1.0,11.0,0.0,-1.0,-1.0,-2.0,-2.0,0.0
1706292004.315156,-1.0,-7.0,-2.0,-1.0,0.0,-2.0,-1.0,-2.0
1706292004.316164,-3.0,-2.0,-1.0,-2.0,0.0,1.0,0.0,-2.0
1706292004.316164,4.0,0.0,-1.0,-3.0,-2.0,0.0,0.0,-2.0
1706292004.3291607,-4.0,8.0,0.0,-1.0,-1.0,-2.0,-3.0,2.0
1706292004.3291607,-2.0,-4.0,-2.0,1.0,0.0,0.0,1.0,-1.0
1706292004.3301609,-1.0,-7.0,-3.0,-1.0,-2.0,-2.0,1.0,-1.0
1706292004.3301609,-3.0,-10.0,1.0,1.0,1.0,-2.0,1.0,-3.0
1706292004.35218,-5.0,10.0,-1.0,0.0,1.0,0.0,1.0,1.0
1706292004.35218,-1.0,0.0,0.0,0.0,-2.0,-2.0,0.0,-2.0
1706292004.35218,7.0,-8.0,-4.0,-2.0,-1.0,1.0,1.0,3.0
1706292004.35218,-2.0,1.0,0.0,-2.0,-2.0,0.0,-3.0,-1.0
1706292004.3750572,2.0,5.0,0.0,0.0,0.0,-1.0,0.0,9.0
1706292004.3750572,-5.0,-12.0,-6.0,-2.0,-1.0,-3.0,1.0,-7.0
1706292004.3758087,-1.0,-2.0,0.0,-2.0,-1.0,-1.0,-2.0,-1.0
1706292004.3758087,0.0,-1.0,6.0,3.0,1.0,-1.0,1.0,0.0
1706292004.3894706,2.0,-5.0,-12.0,-3.0,0.0,-1.0,0.0,2.0
1706292004.3894706,8.0,-5.0,8.0,-4.0,-4.0,-1.0,-3.0,1.0
1706292004.3905032,4.0,17.0,-2.0,-1.0,-2.0,-1.0,-1.0,-1.0
1706292004.3905032,0.0,2.0,-1.0,1.0,-3.0,0.0,2.0,-1.0
1706292004.4118917,-1.0,4.0,2.0,2.0,0.0,0.0,-2.0,-5.0
1706292004.4118917,2.0,1.0,1.0,2.0,1.0,2.0,1.0,2.0
1706292004.412669,0.0,4.0,-29.0,-7.0,-3.0,-5.0,-4.0,-4.0
1706292004.412669,-1.0,4.0,4.0,-1.0,-1.0,-2.0,4.0,-1.0
1706292004.4338577,-2.0,-7.0,-2.0,-2.0,-2.0,-1.0,-1.0,-3.0
1706292004.4338577,6.0,22.0,-1.0,1.0,0.0,0.0,1.0,1.0
1706292004.4422488,-5.0,-8.0,10.0,0.0,0.0,0.0,0.0,1.0
1706292004.4422488,-2.0,11.0,-4.0,-1.0,-2.0,-1.0,-1.0,-1.0
1706292004.4492915,4.0,9.0,3.0,-1.0,-1.0,-2.0,-1.0,-4.0
1706292004.4492915,-6.0,-7.0,-6.0,-1.0,0.0,-2.0,0.0,-1.0
1706292004.4502466,-4.0,-8.0,3.0,1.0,1.0,-1.0,-2.0,-1.0
1706292004.4502466,0.0,-5.0,-5.0,-2.0,-1.0,-2.0,-1.0,-1.0
1706292004.4724555,-3.0,-3.0,11.0,0.0,-1.0,-1.0,-1.0,-3.0
1706292004.4724555,-7.0,-16.0,-18.0,-3.0,-2.0,2.0,17.0,1.0
1706292004.4734519,-1.0,1.0,1.0,1.0,-1.0,-4.0,-6.0,-1.0
1706292004.4734519,-4.0,-10.0,-6.0,-2.0,0.0,-2.0,-5.0,-1.0
1706292004.5065563,-1.0,0.0,12.0,-2.0,-3.0,-1.0,-5.0,0.0
1706292004.5065563,-4.0,0.0,11.0,3.0,2.0,0.0,4.0,-3.0
1706292004.5183818,-2.0,2.0,-23.0,-4.0,-1.0,0.0,-2.0,4.0
1706292004.5183818,-3.0,-6.0,-13.0,-4.0,-3.0,-2.0,-3.0,-3.0
1706292004.5183818,1.0,-3.0,-5.0,2.0,-1.0,-1.0,4.0,-1.0
1706292004.5183818,-1.0,2.0,4.0,0.0,-1.0,-1.0,-7.0,0.0
1706292004.5183818,0.0,-4.0,2.0,0.0,-2.0,0.0,0.0,-3.0
1706292004.5183818,-2.0,-4.0,2.0,1.0,3.0,0.0,-3.0,-2.0
1706292004.5321844,-2.0,0.0,-9.0,-6.0,0.0,0.0,-2.0,0.0
1706292004.5321844,-2.0,-1.0,-1.0,-3.0,-1.0,-1.0,1.0,1.0
1706292004.5341752,-3.0,0.0,6.0,2.0,1.0,1.0,2.0,2.0
1706292004.5351727,-1.0,-5.0,-4.0,0.0,1.0,0.0,5.0,-2.0
1706292004.5541725,-3.0,-2.0,6.0,1.0,-1.0,-1.0,-2.0,-1.0
1706292004.5541725,-3.0,-1.0,-2.0,-3.0,-3.0,-3.0,-5.0,-2.0
1706292004.5551715,-2.0,3.0,3.0,-1.0,0.0,1.0,4.0,-1.0
1706292004.5551715,1.0,5.0,1.0,-2.0,-3.0,0.0,1.0,0.0
1706292004.5695214,2.0,-4.0,-6.0,-2.0,0.0,-1.0,-1.0,-1.0
1706292004.5695214,-4.0,4.0,1.0,-2.0,-2.0,-2.0,-5.0,0.0
1706292004.5705178,-2.0,-2.0,3.0,-1.0,-2.0,-1.0,-1.0,-4.0
1706292004.5705178,-2.0,-2.0,-1.0,0.0,-3.0,-1.0,-2.0,-2.0
1706292004.5953805,0.0,0.0,-6.0,0.0,-1.0,-2.0,-1.0,-1.0
1706292004.5953805,-1.0,-3.0,-3.0,-1.0,-2.0,-1.0,-2.0,-2.0
1706292004.5953805,0.0,4.0,5.0,-2.0,-1.0,-2.0,-3.0,-2.0
1706292004.5953805,-3.0,1.0,10.0,0.0,0.0,-1.0,-1.0,0.0
1706292004.6143267,-2.0,-2.0,-14.0,-2.0,-1.0,-2.0,3.0,0.0
1706292004.6143267,1.0,-1.0,-2.0,-1.0,0.0,0.0,-2.0,-2.0
1706292004.6151104,-1.0,-1.0,2.0,-2.0,-1.0,-1.0,-1.0,-1.0
1706292004.6151104,-2.0,-3.0,-1.0,-1.0,-1.0,-1.0,-2.0,-1.0
1706292004.628694,1.0,-1.0,2.0,0.0,-3.0,-2.0,-1.0,0.0
1706292004.628694,-1.0,-5.0,-2.0,0.0,0.0,-2.0,-4.0,-1.0
1706292004.6371315,1.0,4.0,1.0,0.0,-3.0,4.0,12.0,-1.0
1706292004.6371315,-1.0,-4.0,0.0,0.0,-1.0,-4.0,-38.0,-1.0
1706292004.6520276,-3.0,0.0,2.0,-1.0,-1.0,0.0,2.0,-3.0
1706292004.6528301,-3.0,-1.0,-5.0,0.0,0.0,0.0,-2.0,6.0
1706292004.6538084,-3.0,-3.0,1.0,-1.0,-1.0,-1.0,-7.0,-11.0
1706292004.654807,2.0,0.0,-4.0,-1.0,0.0,1.0,10.0,1.0
1706292004.6745932,-5.0,-2.0,0.0,1.0,-1.0,0.0,-2.0,-7.0
1706292004.6745932,-2.0,-1.0,0.0,-1.0,-1.0,-1.0,-5.0,2.0
1706292004.6754205,-2.0,3.0,2.0,-1.0,-1.0,-1.0,-2.0,1.0
1706292004.6754205,-3.0,-17.0,-7.0,-2.0,-1.0,-1.0,5.0,-1.0
1706292004.688484,0.0,-1.0,-2.0,-2.0,-1.0,-2.0,-4.0,0.0
1706292004.688484,-2.0,-1.0,0.0,0.0,-1.0,2.0,6.0,-3.0
1706292004.6968489,-2.0,-2.0,0.0,-2.0,0.0,-2.0,-4.0,1.0
1706292004.6968489,-2.0,4.0,-2.0,-1.0,-1.0,-1.0,3.0,-3.0
1706292004.7122355,0.0,-1.0,1.0,-2.0,-1.0,0.0,-1.0,2.0
1706292004.7122355,-1.0,-3.0,-1.0,-4.0,-2.0,-2.0,-3.0,-2.0
1706292004.7122355,1.0,-2.0,-2.0,0.0,-3.0,-2.0,-3.0,0.0
1706292004.7122355,0.0,0.0,0.0,0.0,0.0,1.0,1.0,1.0
1706292004.7344344,-2.0,-2.0,-1.0,-2.0,-1.0,-2.0,1.0,-2.0
1706292004.7344344,-1.0,1.0,1.0,-1.0,-2.0,0.0,-1.0,-2.0
1706292004.7354343,0.0,-4.0,-2.0,-1.0,-1.0,-2.0,-3.0,1.0
1706292004.7354343,0.0,1.0,1.0,-1.0,0.0,-1.0,5.0,-1.0
1706292004.760676,-1.0,0.0,0.0,-2.0,-2.0,-1.0,-3.0,0.0
1706292004.760676,-1.0,0.0,0.0,-2.0,-2.0,-1.0,-3.0,-3.0
1706292004.7626758,0.0,-2.0,1.0,-1.0,-2.0,-1.0,-1.0,2.0
1706292004.7626758,0.0,0.0,-3.0,-2.0,-1.0,-1.0,1.0,-1.0
1706292004.7717261,0.0,0.0,-1.0,1.0,-1.0,0.0,-2.0,1.0
1706292004.7717261,1.0,-1.0,-1.0,0.0,0.0,-3.0,-2.0,-2.0
1706292004.772788,0.0,-2.0,-2.0,-1.0,-1.0,-2.0,-1.0,-1.0
1706292004.772788,-1.0,1.0,-3.0,-2.0,-1.0,-1.0,2.0,-1.0
1706292004.7946777,-2.0,-1.0,-1.0,-3.0,-1.0,-1.0,-1.0,-1.0
1706292004.7946777,-2.0,-2.0,-1.0,-2.0,-2.0,-3.0,-1.0,-2.0
1706292004.7946777,0.0,-2.0,-2.0,0.0,0.0,0.0,-1.0,-2.0
1706292004.7946777,0.0,0.0,0.0,0.0,0.0,-2.0,-1.0,-1.0
1706292004.809599,1.0,-1.0,-1.0,1.0,-1.0,-1.0,-4.0,1.0
1706292004.809599,-1.0,0.0,-1.0,-1.0,-2.0,-3.0,-4.0,-4.0
1706292004.826535,-2.0,-2.0,-2.0,-1.0,-1.0,-1.0,0.0,1.0
1706292004.826535,-3.0,0.0,-1.0,-3.0,0.0,0.0,0.0,-1.0
1706292004.8336802,-2.0,1.0,-1.0,-1.0,-1.0,0.0,-2.0,2.0
1706292004.8336802,0.0,-1.0,-2.0,-1.0,0.0,-2.0,-2.0,-12.0
1706292004.8346698,-1.0,5.0,1.0,0.0,-2.0,-3.0,0.0,0.0
1706292004.8346698,-1.0,-16.0,-3.0,-1.0,-2.0,-1.0,0.0,0.0
1706292004.8546295,0.0,-1.0,-1.0,-1.0,-1.0,-2.0,-1.0,-2.0
1706292004.8546295,0.0,0.0,-1.0,-3.0,0.0,1.0,0.0,2.0
1706292004.8556247,-2.0,1.0,2.0,-2.0,-2.0,-1.0,1.0,1.0
1706292004.8556247,-1.0,3.0,0.0,1.0,-1.0,0.0,-1.0,-4.0
1706292004.8790069,0.0,-1.0,-2.0,0.0,-1.0,-2.0,1.0,1.0
1706292004.8790069,0.0,-3.0,-1.0,-1.0,-1.0,-1.0,0.0,1.0
1706292004.8790069,-2.0,-6.0,-2.0,-2.0,-1.0,0.0,-4.0,-2.0
1706292004.8790069,0.0,0.0,0.0,-2.0,-1.0,-1.0,0.0,0.0
1706292004.891329,-1.0,-4.0,-1.0,1.0,0.0,0.0,-1.0,-4.0
1706292004.891329,-1.0,1.0,1.0,1.0,0.0,-1.0,-1.0,1.0
1706292004.892295,0.0,-4.0,-1.0,-1.0,0.0,-3.0,0.0,-1.0
1706292004.892295,0.0,0.0,0.0,-2.0,-2.0,-1.0,0.0,-1.0
1706292004.9152768,-1.0,1.0,-2.0,-1.0,-2.0,1.0,0.0,-2.0
1706292004.9152768,-1.0,-1.0,-1.0,-1.0,1.0,-1.0,1.0,2.0
1706292004.916276,-2.0,-3.0,-2.0,-1.0,-1.0,-2.0,0.0,-1.0
1706292004.916276,-1.0,1.0,-1.0,-1.0,-1.0,-1.0,-1.0,-1.0
1706292004.9289472,0.0,-1.0,0.0,-2.0,0.0,-3.0,1.0,-1.0
1706292004.9289472,-1.0,-1.0,-1.0,-2.0,-2.0,-2.0,0.0,2.0
1706292004.9373171,-1.0,-1.0,0.0,0.0,-1.0,-2.0,-1.0,0.0
1706292004.9373171,-1.0,3.0,0.0,0.0,-1.0,-1.0,0.0,-1.0
1706292004.9514408,-1.0,1.0,-3.0,-2.0,1.0,-1.0,-1.0,-2.0
1706292004.9514408,0.0,-3.0,-2.0,-1.0,1.0,1.0,-1.0,2.0
1706292004.9524548,0.0,0.0,-2.0,0.0,0.0,1.0,-4.0,-13.0
1706292004.9524548,0.0,0.0,-3.0,-2.0,-2.0,-1.0,-4.0,-1.0
1706292004.9745176,-2.0,-1.0,0.0,0.0,-1.0,0.0,-2.0,1.0
1706292004.9745176,-1.0,1.0,-1.0,0.0,-1.0,-1.0,0.0,-1.0
1706292004.9754462,-1.0,-1.0,-2.0,-1.0,0.0,-1.0,-1.0,1.0
1706292004.9754462,-2.0,-1.0,-1.0,1.0,-1.0,-1.0,-1.0,-1.0
1706292004.9979997,-2.0,-2.0,-1.0,-3.0,0.0,-2.0,-2.0,-4.0
1706292004.9979997,-3.0,-1.0,-1.0,-1.0,-1.0,0.0,-1.0,-1.0
1706292005.0056732,-2.0,-2.0,0.0,-2.0,-2.0,0.0,-1.0,1.0
1706292005.0056732,1.0,1.0,-1.0,0.0,0.0,-2.0,0.0,0.0
1706292005.0126412,0.0,0.0,1.0,1.0,-2.0,-1.0,2.0,-1.0
1706292005.0126412,0.0,-1.0,-2.0,-1.0,0.0,0.0,0.0,-3.0
1706292005.0126412,-1.0,-1.0,0.0,-1.0,-1.0,-1.0,0.0,1.0
1706292005.0126412,-1.0,6.0,-1.0,-2.0,0.0,-2.0,0.0,1.0
1706292005.045972,-2.0,-8.0,-3.0,-1.0,0.0,-1.0,-1.0,-2.0
1706292005.045972,-1.0,1.0,-1.0,-1.0,-1.0,-1.0,-1.0,-1.0
1706292005.045972,-1.0,0.0,-1.0,-1.0,-2.0,0.0,-1.0,-2.0
1706292005.045972,1.0,3.0,-1.0,0.0,-1.0,-2.0,0.0,12.0
1706292005.0501919,-5.0,1.0,-1.0,-1.0,-1.0,0.0,-4.0,-5.0
1706292005.0501919,-1.0,-1.0,-1.0,0.0,-2.0,0.0,-4.0,-2.0
1706292005.0501919,-2.0,-2.0,-2.0,-1.0,-1.0,-1.0,4.0,3.0
1706292005.0501919,-3.0,-3.0,0.0,0.0,-3.0,-3.0,-2.0,-10.0
1706292005.0706303,-2.0,0.0,-1.0,-2.0,-1.0,-1.0,-2.0,-1.0
1706292005.0706303,0.0,-3.0,0.0,-2.0,-1.0,1.0,-1.0,0.0
1706292005.0706303,-1.0,-3.0,-1.0,-1.0,0.0,-4.0,0.0,-4.0
1706292005.0706303,0.0,-5.0,0.0,2.0,-1.0,0.0,1.0,2.0
1706292005.10026,1.0,0.0,-3.0,1.0,-1.0,-1.0,1.0,2.0
1706292005.10026,0.0,0.0,0.0,-1.0,-1.0,1.0,-1.0,-6.0
1706292005.10026,-1.0,0.0,-2.0,-2.0,-1.0,0.0,-1.0,4.0
1706292005.10026,-2.0,-3.0,0.0,-2.0,-1.0,-2.0,-3.0,-5.0
1706292005.1102731,0.0,0.0,-1.0,-3.0,0.0,0.0,-2.0,0.0
1706292005.1102731,-1.0,-1.0,-3.0,0.0,-1.0,-1.0,0.0,5.0
1706292005.1102731,-2.0,-1.0,-1.0,-3.0,-1.0,1.0,-4.0,-9.0
1706292005.1102731,-1.0,-2.0,0.0,-2.0,-2.0,-2.0,-3.0,-1.0
1706292005.132082,0.0,2.0,2.0,-2.0,-2.0,-2.0,0.0,0.0
1706292005.1330733,4.0,8.0,-5.0,-3.0,-2.0,-1.0,-1.0,0.0
1706292005.1400738,8.0,-1.0,-1.0,0.0,-3.0,-1.0,-5.0,3.0
1706292005.1400738,-2.0,0.0,-1.0,-3.0,-1.0,-1.0,-2.0,-4.0
1706292005.1582935,0.0,-4.0,-3.0,0.0,0.0,-1.0,-2.0,0.0
1706292005.1582935,-5.0,-2.0,0.0,-2.0,-1.0,-3.0,1.0,2.0
1706292005.1582935,-5.0,-3.0,-2.0,1.0,-2.0,-2.0,2.0,-10.0
1706292005.1582935,0.0,-3.0,-4.0,-1.0,-1.0,-1.0,-4.0,17.0
1706292005.17831,-2.0,0.0,0.0,0.0,-2.0,-2.0,0.0,-1.0
1706292005.17831,-3.0,-4.0,0.0,-2.0,-2.0,-5.0,-2.0,0.0
1706292005.17831,-3.0,0.0,0.0,0.0,-1.0,-1.0,-1.0,6.0
1706292005.1796172,-2.0,-1.0,1.0,-1.0,1.0,0.0,-1.0,-11.0
1706292005.1927187,0.0,0.0,-1.0,-1.0,0.0,-1.0,1.0,-2.0
1706292005.1927187,-2.0,-3.0,1.0,1.0,-1.0,1.0,0.0,1.0
1706292005.1937315,-2.0,-1.0,0.0,0.0,0.0,-2.0,0.0,-5.0
1706292005.1937315,3.0,0.0,1.0,-1.0,-1.0,0.0,-2.0,-11.0
1706292005.2147663,-1.0,5.0,0.0,0.0,-1.0,1.0,-1.0,1.0
1706292005.2147663,-1.0,-1.0,0.0,-1.0,1.0,-1.0,-1.0,-4.0
1706292005.2147663,-1.0,2.0,-2.0,0.0,1.0,0.0,-1.0,1.0
1706292005.215797,-2.0,-1.0,-2.0,0.0,-1.0,-1.0,1.0,0.0
1706292005.2377436,1.0,1.0,0.0,-1.0,-1.0,-2.0,-1.0,1.0
1706292005.2377436,-1.0,-5.0,-1.0,0.0,0.0,-1.0,-1.0,-5.0
1706292005.2377436,-3.0,-3.0,0.0,-2.0,-1.0,0.0,1.0,2.0
1706292005.2377436,-3.0,1.0,-1.0,1.0,-1.0,0.0,2.0,0.0
1706292005.2515616,1.0,-4.0,-1.0,-1.0,-1.0,0.0,-2.0,-5.0
1706292005.2515616,-1.0,-4.0,-2.0,-3.0,-2.0,0.0,-1.0,0.0
1706292005.2525604,-9.0,-16.0,-3.0,0.0,-2.0,-1.0,-3.0,-1.0
1706292005.2525604,-2.0,-1.0,0.0,-1.0,-1.0,0.0,-2.0,-2.0
1706292005.274141,-2.0,-3.0,-1.0,0.0,0.0,0.0,-1.0,-1.0
1706292005.274141,0.0,-3.0,-2.0,0.0,-1.0,-3.0,-3.0,0.0
1706292005.275146,-1.0,-1.0,0.0,-1.0,-2.0,-1.0,-2.0,1.0
1706292005.275146,-2.0,-2.0,-3.0,-2.0,-1.0,0.0,1.0,-1.0
1706292005.2976394,-3.0,-2.0,-1.0,-3.0,-2.0,-2.0,0.0,2.0
1706292005.2976394,-1.0,-1.0,0.0,-2.0,-2.0,-1.0,-2.0,-1.0
1706292005.2985055,2.0,4.0,-1.0,-2.0,-2.0,0.0,-1.0,-1.0
1706292005.2985055,-1.0,0.0,-2.0,-1.0,-2.0,-1.0,0.0,-3.0
1706292005.3289387,-1.0,-2.0,-2.0,-1.0,-1.0,-3.0,-1.0,-2.0
1706292005.3289387,-1.0,-5.0,-2.0,-2.0,-1.0,-1.0,-1.0,-1.0
1706292005.3289387,1.0,2.0,0.0,-1.0,-1.0,-1.0,0.0,-1.0
1706292005.3289387,0.0,0.0,-1.0,-1.0,-1.0,-2.0,-3.0,-1.0
1706292005.3342903,-1.0,-2.0,-2.0,0.0,-1.0,0.0,-1.0,4.0
1706292005.3342903,-1.0,3.0,0.0,-2.0,-2.0,-2.0,-6.0,-15.0
1706292005.3353405,-5.0,-6.0,-3.0,-2.0,1.0,0.0,-1.0,-1.0
1706292005.3353405,1.0,0.0,-1.0,-1.0,-1.0,-2.0,2.0,2.0
1706292005.357324,0.0,0.0,-2.0,-1.0,-2.0,0.0,-2.0,-2.0
1706292005.357324,-1.0,-2.0,0.0,1.0,0.0,0.0,0.0,2.0
1706292005.3583343,1.0,6.0,-1.0,0.0,-1.0,-2.0,0.0,-1.0
1706292005.3583343,-2.0,-3.0,-3.0,-1.0,-1.0,0.0,0.0,-2.0
1706292005.373358,-2.0,-4.0,-3.0,-3.0,-2.0,-3.0,0.0,-1.0
1706292005.373358,9.0,15.0,-2.0,-1.0,-1.0,-1.0,0.0,1.0
1706292005.373358,1.0,-1.0,-3.0,-2.0,-2.0,-2.0,-1.0,0.0
1706292005.373358,-2.0,-3.0,-3.0,0.0,-1.0,1.0,0.0,0.0
1706292005.3952522,3.0,4.0,1.0,0.0,-1.0,-2.0,-2.0,-2.0
1706292005.3952522,-4.0,-5.0,0.0,-1.0,0.0,-1.0,-3.0,1.0
1706292005.3963041,-2.0,1.0,-1.0,0.0,0.0,-1.0,-2.0,-1.0
1706292005.3963041,1.0,1.0,-1.0,-1.0,0.0,0.0,-4.0,-3.0
1706292005.418169,-3.0,-2.0,0.0,-1.0,0.0,0.0,9.0,2.0
1706292005.418169,0.0,-5.0,-3.0,-3.0,0.0,0.0,2.0,0.0
1706292005.418169,1.0,-1.0,-2.0,-2.0,-1.0,-1.0,-2.0,-1.0
1706292005.418169,-1.0,-2.0,0.0,-1.0,-1.0,-1.0,-2.0,-2.0
1706292005.4281676,-3.0,-3.0,-1.0,-1.0,-1.0,-2.0,-4.0,-5.0
1706292005.4281676,-1.0,-4.0,-1.0,-1.0,-1.0,-2.0,0.0,7.0
1706292005.4281676,1.0,1.0,0.0,0.0,-1.0,-1.0,-1.0,-1.0
1706292005.4281676,-1.0,-1.0,1.0,-1.0,-1.0,-2.0,-2.0,0.0
1706292005.4483333,-2.0,0.0,-1.0,0.0,-1.0,-1.0,-3.0,-1.0
1706292005.4483333,-1.0,-1.0,0.0,0.0,0.0,0.0,0.0,0.0
1706292005.4483333,-2.0,1.0,-1.0,0.0,0.0,-1.0,-1.0,1.0
1706292005.4483333,1.0,-2.0,-1.0,-2.0,-2.0,-2.0,0.0,-2.0
1706292005.4783235,-1.0,-2.0,0.0,-1.0,-1.0,0.0,0.0,0.0
1706292005.4783235,-3.0,-1.0,-2.0,-1.0,-1.0,-1.0,-1.0,-4.0
1706292005.4783235,-1.0,7.0,0.0,-3.0,1.0,-1.0,-1.0,-2.0
1706292005.4792855,-1.0,-2.0,-1.0,-1.0,-1.0,-2.0,-2.0,1.0
1706292005.4943314,1.0,0.0,-2.0,-3.0,0.0,-1.0,-1.0,-3.0
1706292005.4943314,-2.0,-2.0,-1.0,-1.0,-1.0,-1.0,-1.0,-3.0
1706292005.4953313,-1.0,1.0,0.0,-2.0,-1.0,-1.0,0.0,-3.0
1706292005.4953313,-1.0,-1.0,-1.0,-1.0,-1.0,0.0,2.0,1.0
1706292005.5146706,-2.0,-3.0,-1.0,-1.0,-1.0,0.0,-4.0,-2.0
1706292005.5156648,0.0,2.0,-1.0,-1.0,-1.0,-1.0,0.0,-1.0
1706292005.5156648,-1.0,-5.0,-1.0,-1.0,-3.0,-1.0,0.0,1.0
1706292005.5156648,-3.0,-3.0,-1.0,-1.0,-3.0,-2.0,-1.0,-1.0
1706292005.5314834,-1.0,0.0,0.0,-1.0,-1.0,-1.0,-2.0,-2.0
1706292005.5314834,-2.0,-3.0,-1.0,-1.0,-1.0,1.0,-1.0,-2.0
1706292005.5314834,3.0,-2.0,-2.0,-2.0,-2.0,1.0,2.0,3.0
1706292005.5314834,5.0,11.0,-3.0,0.0,0.0,-3.0,-1.0,0.0
1706292005.561476,-3.0,1.0,-1.0,-2.0,0.0,-1.0,2.0,3.0
1706292005.561476,-1.0,-2.0,-1.0,-1.0,1.0,-2.0,-4.0,-15.0
1706292005.561476,-2.0,-2.0,-1.0,-2.0,0.0,-1.0,-1.0,-1.0
1706292005.561476,-2.0,-4.0,0.0,-4.0,-1.0,0.0,0.0,-1.0
1706292005.5718768,0.0,-4.0,-1.0,-1.0,-2.0,0.0,-4.0,-1.0
1706292005.5718768,0.0,1.0,-1.0,0.0,-1.0,-2.0,0.0,2.0
1706292005.5718768,-1.0,-3.0,-1.0,-1.0,-1.0,-1.0,0.0,-2.0
1706292005.5718768,-3.0,-4.0,-1.0,0.0,-1.0,-2.0,-1.0,-2.0
1706292005.601505,1.0,7.0,2.0,-1.0,-1.0,-2.0,-5.0,-4.0
1706292005.601505,-3.0,-13.0,-1.0,-1.0,0.0,0.0,-1.0,0.0
1706292005.601505,-2.0,0.0,-1.0,-1.0,-2.0,-3.0,-2.0,-2.0
1706292005.601505,-3.0,-1.0,-3.0,-1.0,-3.0,-1.0,-2.0,1.0
1706292005.611485,-1.0,2.0,-1.0,-1.0,-1.0,-1.0,2.0,-1.0
1706292005.611485,1.0,3.0,-2.0,-1.0,0.0,-1.0,0.0,1.0
1706292005.621488,-2.0,-2.0,-2.0,0.0,-1.0,-2.0,-1.0,0.0
1706292005.621488,-1.0,-1.0,-1.0,-1.0,0.0,2.0,-1.0,-2.0
1706292005.6317158,0.0,-6.0,-4.0,-1.0,-1.0,1.0,-2.0,-1.0
1706292005.6317158,-1.0,0.0,-1.0,0.0,-1.0,-1.0,-1.0,0.0
1706292005.6317158,0.0,-3.0,-2.0,0.0,-1.0,-2.0,-2.0,0.0
1706292005.6317158,-3.0,-2.0,0.0,-2.0,-1.0,-1.0,0.0,-5.0
1706292005.6714752,-2.0,-2.0,-3.0,-3.0,-1.0,-3.0,1.0,1.0
1706292005.6714752,-3.0,1.0,-1.0,-1.0,0.0,-1.0,2.0,10.0
1706292005.6714752,0.0,1.0,2.0,-1.0,-3.0,0.0,-1.0,-1.0
1706292005.6714752,5.0,11.0,-1.0,0.0,0.0,-1.0,-2.0,-1.0
1706292005.6714752,0.0,-3.0,-1.0,-2.0,-1.0,0.0,-1.0,-1.0
1706292005.6714752,0.0,-1.0,-2.0,-3.0,-1.0,0.0,0.0,2.0
1706292005.6714752,1.0,-1.0,-2.0,-3.0,-1.0,-3.0,-1.0,3.0
1706292005.6714752,-6.0,-5.0,-1.0,-1.0,0.0,0.0,-2.0,-4.0
1706292005.691742,-6.0,-1.0,0.0,-1.0,0.0,-2.0,-2.0,1.0
1706292005.691742,1.0,2.0,-2.0,-1.0,-4.0,1.0,-1.0,-3.0
1706292005.691742,-2.0,5.0,1.0,0.0,-1.0,0.0,-1.0,-3.0
1706292005.691742,-1.0,-13.0,-3.0,-3.0,-2.0,-2.0,1.0,0.0
1706292005.7289722,-3.0,-2.0,-2.0,-2.0,0.0,-2.0,0.0,-2.0
1706292005.7289722,-3.0,-3.0,0.0,0.0,-2.0,-1.0,-2.0,0.0
1706292005.7289722,-1.0,1.0,-1.0,-2.0,1.0,0.0,-1.0,-4.0
1706292005.7289722,-2.0,0.0,-1.0,0.0,0.0,0.0,0.0,2.0
1706292005.7309775,2.0,-1.0,-1.0,2.0,0.0,-1.0,-2.0,-2.0
1706292005.7309775,-2.0,-1.0,-1.0,-2.0,-1.0,-1.0,9.0,-2.0
1706292005.7399244,-1.0,-3.0,-2.0,-3.0,1.0,-1.0,-1.0,-1.0
1706292005.7399244,0.0,0.0,-1.0,-1.0,-1.0,0.0,-1.0,1.0
1706292005.7543397,-2.0,-4.0,0.0,0.0,-3.0,0.0,-1.0,-2.0
1706292005.7543397,-2.0,0.0,-1.0,-1.0,-1.0,-2.0,-5.0,-2.0
1706292005.7553418,-2.0,-1.0,-2.0,-1.0,-1.0,-2.0,-2.0,1.0
1706292005.7553418,-3.0,-1.0,0.0,-1.0,0.0,-1.0,-2.0,1.0
1706292005.7845538,-1.0,1.0,-1.0,-2.0,-1.0,1.0,3.0,-3.0
1706292005.7855532,-1.0,-1.0,-1.0,0.0,-1.0,-4.0,-2.0,10.0
1706292005.7855532,-2.0,-3.0,0.0,0.0,-3.0,-3.0,-5.0,-17.0
1706292005.7855532,-4.0,0.0,-1.0,-2.0,-1.0,-3.0,-3.0,-2.0
1706292005.791313,0.0,-3.0,-1.0,-2.0,0.0,-2.0,-2.0,2.0
1706292005.791313,-1.0,1.0,-2.0,-3.0,-1.0,1.0,-1.0,-3.0
1706292005.7997568,-2.0,-3.0,-3.0,-2.0,1.0,-1.0,0.0,4.0
1706292005.7997568,-8.0,-6.0,2.0,-2.0,-3.0,1.0,0.0,-4.0
1706292005.82407,-1.0,-19.0,-6.0,-2.0,0.0,2.0,0.0,-3.0
1706292005.82407,-1.0,-2.0,-2.0,0.0,1.0,-1.0,0.0,-4.0
1706292005.82407,1.0,0.0,-2.0,0.0,-2.0,0.0,0.0,3.0
1706292005.82407,1.0,-1.0,-1.0,0.0,-1.0,-2.0,0.0,-2.0
1706292005.8377132,0.0,5.0,2.0,1.0,-1.0,-2.0,0.0,2.0
1706292005.8377132,4.0,5.0,2.0,-3.0,0.0,-1.0,-2.0,-2.0
1706292005.838683,-1.0,-2.0,1.0,0.0,0.0,0.0,0.0,0.0
1706292005.838683,-1.0,-3.0,0.0,2.0,1.0,2.0,-1.0,2.0
1706292005.8516822,-3.0,-7.0,-2.0,-1.0,0.0,-1.0,-2.0,-4.0
1706292005.8516822,-7.0,15.0,-1.0,0.0,-1.0,0.0,0.0,-4.0
1706292005.8601832,-1.0,0.0,-1.0,-1.0,-1.0,-2.0,-2.0,1.0
1706292005.8601832,-4.0,1.0,-2.0,-1.0,-1.0,-1.0,-1.0,-3.0
1706292005.8755398,0.0,6.0,2.0,-2.0,-2.0,-1.0,-1.0,1.0
1706292005.8755398,-3.0,-14.0,-3.0,-1.0,-1.0,-1.0,-1.0,6.0
1706292005.8755398,-10.0,-14.0,0.0,-1.0,0.0,-1.0,-5.0,-15.0
1706292005.8755398,0.0,0.0,-3.0,-1.0,-2.0,-2.0,1.0,-1.0
1706292005.9028072,1.0,3.0,-1.0,0.0,-1.0,-2.0,-1.0,-1.0
1706292005.903807,1.0,1.0,-1.0,0.0,-2.0,-1.0,-3.0,0.0
1706292005.903807,3.0,3.0,-1.0,-2.0,-2.0,1.0,0.0,6.0
1706292005.903807,1.0,-4.0,1.0,-2.0,-2.0,-1.0,1.0,-1.0
1706292005.9271235,-2.0,2.0,1.0,-1.0,-2.0,-3.0,-1.0,-4.0
1706292005.9271235,-2.0,-3.0,0.0,-1.0,-2.0,0.0,-2.0,-3.0
1706292005.9281254,-1.0,2.0,10.0,0.0,-2.0,-1.0,0.0,2.0
1706292005.9281254,1.0,-2.0,-14.0,-2.0,-1.0,0.0,-3.0,0.0
1706292005.9436839,1.0,3.0,-1.0,-2.0,-2.0,-1.0,-1.0,2.0
1706292005.9436839,-2.0,-28.0,0.0,-1.0,-1.0,-1.0,-1.0,-5.0
1706292005.9436839,2.0,2.0,-2.0,0.0,1.0,1.0,-2.0,-1.0
1706292005.9436839,-3.0,6.0,6.0,0.0,0.0,-1.0,0.0,4.0
1706292005.9574013,2.0,4.0,2.0,1.0,1.0,-1.0,0.0,-5.0
1706292005.9574013,0.0,0.0,-3.0,0.0,2.0,-1.0,0.0,-1.0
1706292005.9574013,-2.0,2.0,2.0,0.0,-2.0,0.0,3.0,7.0
1706292005.9574013,-1.0,-23.0,-3.0,0.0,0.0,-2.0,-3.0,-5.0
1706292005.9873505,-4.0,-4.0,-5.0,-1.0,1.0,0.0,1.0,1.0
1706292005.9873505,-1.0,2.0,2.0,-1.0,-4.0,-2.0,-2.0,-3.0
1706292005.9873505,-3.0,-1.0,-3.0,-2.0,-2.0,-2.0,-1.0,3.0
1706292005.9873505,2.0,7.0,-6.0,-2.0,-3.0,-2.0,-1.0,-1.0
1706292006.0053623,-1.0,-2.0,-3.0,-1.0,-1.0,1.0,-3.0,-1.0
1706292006.0053623,5.0,-4.0,0.0,-3.0,-1.0,-2.0,-2.0,0.0
1706292006.0073607,-7.0,-9.0,-3.0,-2.0,-2.0,-1.0,0.0,-3.0
1706292006.0073607,1.0,0.0,2.0,1.0,-1.0,0.0,1.0,-1.0
1706292006.013904,0.0,-1.0,0.0,-2.0,-1.0,-1.0,-1.0,-1.0
1706292006.013904,-1.0,6.0,2.0,-3.0,-1.0,-2.0,1.0,0.0
1706292006.013904,1.0,-8.0,-15.0,-1.0,0.0,-1.0,0.0,-3.0
1706292006.013904,0.0,5.0,7.0,-1.0,-1.0,-2.0,-2.0,-1.0
1706292006.043906,-1.0,1.0,-2.0,2.0,0.0,-2.0,-1.0,3.0
1706292006.043906,-3.0,3.0,4.0,0.0,-1.0,-1.0,0.0,-2.0
1706292006.043906,1.0,1.0,2.0,-1.0,-1.0,0.0,0.0,-2.0
1706292006.043906,-1.0,0.0,-4.0,-1.0,-1.0,0.0,-1.0,0.0
1706292006.05401,2.0,7.0,3.0,-2.0,-2.0,-2.0,-2.0,-2.0
1706292006.05401,-3.0,-10.0,-7.0,-1.0,-1.0,0.0,-4.0,0.0
1706292006.05401,1.0,4.0,-2.0,-1.0,0.0,-1.0,1.0,-1.0
1706292006.05401,0.0,4.0,1.0,-2.0,-1.0,-1.0,-1.0,0.0
1706292006.0739536,-2.0,-5.0,-1.0,-2.0,-2.0,0.0,-2.0,-1.0
1706292006.0739536,1.0,1.0,-3.0,-1.0,-2.0,-1.0,-1.0,-3.0
1706292006.0739536,0.0,0.0,-1.0,0.0,-1.0,0.0,0.0,2.0
1706292006.0739536,-1.0,0.0,1.0,0.0,-1.0,-1.0,1.0,-1.0
1706292006.1189234,-1.0,0.0,-1.0,-1.0,0.0,-3.0,-1.0,-1.0
1706292006.1189234,-3.0,5.0,-1.0,-2.0,-1.0,0.0,-1.0,-5.0
1706292006.1189234,0.0,0.0,1.0,-1.0,0.0,-1.0,-2.0,2.0
1706292006.1189234,0.0,0.0,-4.0,-3.0,-3.0,-1.0,-2.0,-1.0
1706292006.1189234,-3.0,-2.0,0.0,-1.0,-2.0,2.0,0.0,1.0
1706292006.1189234,0.0,0.0,-3.0,-1.0,-1.0,-4.0,-2.0,1.0
1706292006.119922,-1.0,-2.0,0.0,-1.0,-2.0,-2.0,-1.0,0.0
1706292006.119922,-4.0,-2.0,-1.0,0.0,0.0,-1.0,-3.0,-5.0
1706292006.1378968,-1.0,-1.0,-2.0,-1.0,-3.0,-1.0,-1.0,-1.0
1706292006.1378968,1.0,1.0,0.0,-3.0,0.0,1.0,-1.0,-1.0
1706292006.1388063,1.0,1.0,-1.0,-2.0,-2.0,-1.0,-3.0,-3.0
1706292006.1388063,-1.0,-2.0,-1.0,1.0,-1.0,-2.0,-2.0,0.0
1706292006.1696773,0.0,1.0,-2.0,-1.0,-1.0,-1.0,-1.0,8.0
1706292006.1696773,-4.0,-1.0,-2.0,-1.0,-1.0,-1.0,-4.0,-15.0
1706292006.1696773,-2.0,0.0,-1.0,-2.0,0.0,-3.0,-1.0,-2.0
1706292006.1696773,0.0,0.0,0.0,-2.0,-1.0,-1.0,1.0,1.0
1706292006.1741977,-2.0,-4.0,-1.0,-1.0,-2.0,-2.0,-1.0,0.0
1706292006.1741977,1.0,1.0,-1.0,-1.0,-1.0,-1.0,0.0,2.0
1706292006.1752439,2.0,9.0,0.0,-1.0,-3.0,-1.0,-1.0,0.0
1706292006.1752439,0.0,-3.0,0.0,-1.0,-1.0,-1.0,-3.0,-2.0
1706292006.19767,1.0,0.0,0.0,1.0,-1.0,0.0,0.0,-2.0
1706292006.19767,3.0,7.0,5.0,-1.0,1.0,0.0,1.0,4.0
1706292006.1985176,-2.0,-2.0,-6.0,-1.0,-2.0,-2.0,0.0,-3.0
1706292006.1985176,-2.0,-2.0,0.0,-2.0,-1.0,-1.0,-1.0,0.0
1706292006.2269363,-2.0,-1.0,-2.0,-3.0,-2.0,-2.0,-2.0,-3.0
1706292006.2269363,-3.0,0.0,3.0,-1.0,-1.0,0.0,0.0,0.0
1706292006.2269363,0.0,-2.0,3.0,0.0,-1.0,-1.0,0.0,2.0
1706292006.2269363,-1.0,-1.0,-4.0,-1.0,-2.0,-1.0,-1.0,-1.0
1706292006.2342992,-2.0,-4.0,2.0,0.0,-1.0,-1.0,-2.0,-4.0
1706292006.2342992,0.0,-1.0,-3.0,0.0,0.0,-1.0,0.0,-1.0
1706292006.2353122,-2.0,-3.0,1.0,-1.0,-1.0,0.0,-3.0,0.0
1706292006.2353122,0.0,0.0,-3.0,-1.0,0.0,-1.0,-1.0,0.0
1706292006.2574134,-2.0,1.0,-4.0,-3.0,0.0,-2.0,0.0,-4.0
1706292006.2574134,-1.0,-3.0,-3.0,-2.0,-1.0,0.0,1.0,3.0
1706292006.258006,-2.0,-2.0,-2.0,-2.0,0.0,-2.0,-1.0,-4.0
1706292006.258006,-1.0,-1.0,2.0,0.0,-3.0,-1.0,-1.0,0.0
1706292006.287992,-2.0,-1.0,-1.0,-1.0,-1.0,-1.0,-3.0,-3.0
1706292006.287992,-1.0,1.0,-2.0,-1.0,-1.0,-1.0,-2.0,0.0
1706292006.287992,-2.0,-17.0,-4.0,-2.0,0.0,-1.0,-2.0,-3.0
1706292006.287992,-4.0,0.0,0.0,1.0,-1.0,0.0,1.0,1.0
1706292006.295065,8.0,2.0,-3.0,-2.0,-2.0,-2.0,-4.0,-6.0
1706292006.295065,0.0,-4.0,-4.0,-2.0,-1.0,0.0,0.0,0.0
1706292006.2959833,-1.0,2.0,0.0,-1.0,0.0,-1.0,-1.0,0.0
1706292006.2959833,-1.0,1.0,0.0,0.0,0.0,-1.0,-1.0,-3.0
1706292006.3138707,-3.0,-4.0,-3.0,-1.0,-2.0,-3.0,0.0,2.0
1706292006.3138707,-2.0,-1.0,-1.0,0.0,-2.0,-3.0,-1.0,0.0
1706292006.3138707,1.0,0.0,-1.0,-2.0,-3.0,-2.0,-1.0,-3.0
1706292006.3138707,-1.0,-3.0,-3.0,-3.0,-1.0,-1.0,0.0,1.0
1706292006.333872,7.0,14.0,0.0,1.0,0.0,0.0,0.0,0.0
1706292006.333872,0.0,-2.0,0.0,-2.0,-2.0,-2.0,-2.0,-2.0
1706292006.333872,-3.0,1.0,-1.0,0.0,-1.0,0.0,0.0,1.0
1706292006.333872,1.0,2.0,-2.0,0.0,0.0,1.0,-1.0,-1.0
1706292006.3542037,-3.0,-5.0,-1.0,-2.0,0.0,1.0,-1.0,-4.0
