1706292457.0129035,-10.0,-8.0,-34.0,21.0,13.0,-2.0,-28.0,-37.0
1706292457.0129035,5.0,32.0,12.0,-4.0,-4.0,2.0,-23.0,20.0
1706292457.0129035,3.0,-23.0,17.0,1.0,-14.0,-8.0,-2.0,-3.0
1706292457.0129035,7.0,-4.0,-31.0,-4.0,12.0,16.0,4.0,-11.0
1706292457.0430098,-27.0,-5.0,42.0,-14.0,-15.0,-13.0,-11.0,-18.0
1706292457.0430098,2.0,12.0,45.0,-5.0,-4.0,-14.0,20.0,37.0
1706292457.0430098,-1.0,-11.0,-20.0,-10.0,-9.0,-3.0,23.0,-33.0
1706292457.0430098,-29.0,-7.0,-9.0,3.0,-5.0,-2.0,-66.0,-69.0
1706292457.0630114,5.0,-22.0,-107.0,-29.0,-4.0,-1.0,13.0,17.0
1706292457.0630114,0.0,8.0,87.0,25.0,0.0,-8.0,7.0,-1.0
1706292457.0630114,-6.0,-5.0,5.0,-20.0,-9.0,-12.0,-23.0,-24.0
1706292457.0630114,16.0,16.0,11.0,8.0,4.0,18.0,38.0,13.0
1706292457.0829,-8.0,-16.0,-40.0,9.0,5.0,-6.0,-3.0,5.0
1706292457.0829,2.0,-19.0,-49.0,-21.0,-2.0,2.0,0.0,11.0
1706292457.0829,5.0,-7.0,67.0,3.0,-5.0,-1.0,-4.0,-2.0
1706292457.0829,-1.0,11.0,-31.0,0.0,2.0,-6.0,16.0,23.0
1706292457.1032553,15.0,-4.0,-15.0,3.0,-2.0,1.0,-12.0,-16.0
1706292457.1032553,15.0,10.0,-19.0,-12.0,-5.0,0.0,9.0,1.0
1706292457.1032553,-40.0,7.0,22.0,14.0,7.0,2.0,1.0,2.0
1706292457.1032553,-15.0,-70.0,-43.0,-23.0,-15.0,-13.0,-8.0,-5.0
1706292457.123097,6.0,19.0,38.0,16.0,14.0,4.0,-3.0,12.0
1706292457.123097,-9.0,-14.0,-36.0,-12.0,-4.0,-3.0,0.0,-22.0
1706292457.123097,19.0,22.0,7.0,2.0,3.0,6.0,4.0,17.0
1706292457.123097,5.0,6.0,-38.0,0.0,-11.0,-6.0,-10.0,-5.0
1706292457.132899,-1.0,2.0,30.0,-17.0,-18.0,-1.0,5.0,3.0
1706292457.132899,0.0,-7.0,-8.0,15.0,22.0,1.0,13.0,5.0
1706292457.1430786,2.0,4.0,-22.0,0.0,3.0,0.0,-36.0,-17.0
1706292457.1430786,0.0,2.0,1.0,26.0,14.0,6.0,21.0,17.0
1706292457.1631079,14.0,25.0,16.0,-16.0,-14.0,-8.0,-10.0,-1.0
1706292457.1631079,-6.0,-23.0,-4.0,15.0,-3.0,1.0,-3.0,-7.0
1706292457.1631079,-9.0,-1.0,-38.0,-4.0,11.0,8.0,13.0,13.0
1706292457.1631079,5.0,-6.0,11.0,-19.0,-16.0,-8.0,1.0,-12.0
1706292457.1829,-5.0,-2.0,23.0,6.0,4.0,-7.0,-12.0,-3.0
1706292457.1829,5.0,19.0,0.0,-3.0,-30.0,-8.0,-8.0,-9.0
1706292457.1829,1.0,-22.0,9.0,-24.0,-7.0,-5.0,-4.0,4.0
1706292457.1829,12.0,8.0,-5.0,19.0,16.0,8.0,10.0,9.0
1706292457.1929371,-37.0,-16.0,-9.0,7.0,8.0,5.0,3.0,-10.0
1706292457.1929371,5.0,-6.0,-6.0,-23.0,-3.0,-2.0,2.0,0.0
1706292457.2030559,9.0,-3.0,-10.0,-17.0,-18.0,-3.0,-6.0,-6.0
1706292457.2030559,-3.0,23.0,1.0,15.0,8.0,-6.0,3.0,-1.0
1706292457.2231877,6.0,-11.0,2.0,-8.0,4.0,14.0,17.0,9.0
1706292457.2231877,5.0,1.0,11.0,5.0,5.0,-5.0,-4.0,-4.0
1706292457.2231877,-10.0,2.0,1.0,11.0,-4.0,-2.0,-5.0,0.0
1706292457.2231877,-19.0,-10.0,-7.0,-17.0,-11.0,-5.0,17.0,8.0
1706292457.2629015,6.0,8.0,-5.0,-18.0,-7.0,-8.0,-35.0,-14.0
1706292457.2629015,-6.0,9.0,-1.0,11.0,-1.0,1.0,5.0,-5.0
1706292457.2629015,15.0,-20.0,-8.0,-8.0,2.0,1.0,5.0,2.0
1706292457.2629015,0.0,5.0,-18.0,-4.0,-9.0,-6.0,-6.0,1.0
1706292457.2629015,4.0,-7.0,-4.0,6.0,-1.0,3.0,4.0,7.0
1706292457.2629015,9.0,-24.0,-19.0,-22.0,2.0,1.0,-20.0,-8.0
1706292457.2629015,-31.0,3.0,10.0,2.0,-9.0,-9.0,14.0,-5.0
1706292457.2629015,23.0,24.0,12.0,9.0,5.0,13.0,32.0,17.0
1706292457.2928998,-2.0,3.0,20.0,28.0,24.0,2.0,-22.0,-6.0
1706292457.2928998,-13.0,10.0,10.0,-1.0,11.0,-6.0,-1.0,-15.0
1706292457.2928998,-18.0,-7.0,-7.0,22.0,10.0,2.0,-5.0,-3.0
1706292457.2928998,1.0,0.0,16.0,-10.0,-20.0,-16.0,-9.0,-8.0
1706292457.3029296,3.0,-3.0,-35.0,-49.0,-33.0,-9.0,0.0,-4.0
1706292457.3029296,17.0,19.0,-4.0,37.0,7.0,8.0,7.0,6.0
1706292457.3029296,-4.0,-8.0,-11.0,-4.0,14.0,4.0,4.0,2.0
1706292457.3029296,12.0,15.0,11.0,2.0,8.0,9.0,1.0,7.0
1706292457.313237,16.0,1.0,8.0,2.0,3.0,-9.0,-6.0,1.0
1706292457.313237,-30.0,-22.0,-7.0,-6.0,-7.0,-12.0,-5.0,-6.0
1706292457.3231547,-12.0,5.0,-4.0,-6.0,-2.0,25.0,-14.0,-3.0
1706292457.3231547,1.0,-17.0,-5.0,-9.0,2.0,-1.0,8.0,-10.0
1706292457.342902,8.0,-8.0,2.0,16.0,1.0,2.0,-7.0,-2.0
1706292457.342902,2.0,17.0,9.0,-11.0,-8.0,-8.0,2.0,7.0
1706292457.3529,2.0,-17.0,1.0,10.0,-7.0,-17.0,-10.0,-8.0
1706292457.3529,-16.0,-43.0,-11.0,-15.0,1.0,23.0,-17.0,-4.0
1706292457.3675282,-4.0,-14.0,-6.0,7.0,0.0,-4.0,8.0,-3.0
1706292457.3685515,-6.0,-5.0,40.0,-9.0,-7.0,-9.0,-1.0,-1.0
1706292457.3685515,1.0,16.0,-41.0,-9.0,-1.0,-7.0,-5.0,3.0
1706292457.3685515,-2.0,-37.0,-19.0,-6.0,-3.0,-8.0,-10.0,-6.0
1706292457.3892212,-10.0,34.0,-9.0,-3.0,1.0,3.0,14.0,2.0
1706292457.3892212,3.0,-22.0,-6.0,-3.0,-3.0,3.0,14.0,9.0
1706292457.3892212,6.0,21.0,10.0,9.0,1.0,-4.0,10.0,-3.0
1706292457.3892212,-7.0,6.0,10.0,8.0,5.0,-11.0,-3.0,-7.0
1706292457.399421,-10.0,-7.0,18.0,-4.0,-9.0,9.0,4.0,4.0
1706292457.399421,17.0,43.0,13.0,-1.0,3.0,5.0,19.0,22.0
1706292457.399421,14.0,13.0,17.0,3.0,-4.0,-7.0,-11.0,9.0
1706292457.399421,-3.0,9.0,-65.0,-16.0,-3.0,-6.0,-39.0,-61.0
1706292457.439509,4.0,3.0,6.0,12.0,11.0,-1.0,22.0,22.0
1706292457.439509,-17.0,-10.0,42.0,-1.0,-6.0,21.0,60.0,-6.0
1706292457.439509,10.0,0.0,-49.0,-5.0,-4.0,8.0,-36.0,-11.0
1706292457.439509,-4.0,4.0,-17.0,-2.0,-3.0,-10.0,12.0,26.0
1706292457.4495413,24.0,7.0,21.0,6.0,1.0,-7.0,-4.0,6.0
1706292457.4495413,-18.0,-35.0,-33.0,-25.0,-12.0,-13.0,-25.0,-14.0
1706292457.4495413,10.0,1.0,5.0,5.0,13.0,5.0,11.0,9.0
1706292457.4495413,-7.0,13.0,36.0,27.0,3.0,2.0,7.0,7.0
1706292457.4699543,-7.0,-6.0,1.0,-5.0,-1.0,-4.0,-6.0,-6.0
1706292457.4699543,12.0,7.0,-24.0,-6.0,5.0,6.0,-6.0,6.0
1706292457.4699543,0.0,-19.0,-37.0,-11.0,-10.0,-4.0,7.0,-6.0
1706292457.4699543,0.0,15.0,100.0,24.0,6.0,-2.0,-17.0,-2.0
1706292457.4795084,-2.0,-23.0,-28.0,-2.0,-9.0,-6.0,5.0,-4.0
1706292457.4795084,-43.0,-72.0,-59.0,-22.0,1.0,0.0,-18.0,-17.0
1706292457.4795084,2.0,-32.0,-21.0,-13.0,-10.0,-5.0,16.0,-5.0
1706292457.4795084,14.0,7.0,5.0,1.0,9.0,4.0,6.0,20.0
1706292457.5095065,-9.0,19.0,27.0,12.0,2.0,3.0,19.0,19.0
1706292457.5095065,-5.0,3.0,35.0,16.0,6.0,-6.0,-16.0,-11.0
1706292457.5095065,5.0,14.0,-14.0,-5.0,-7.0,5.0,8.0,-7.0
1706292457.5095065,-14.0,-1.0,-19.0,-12.0,-8.0,-9.0,22.0,-4.0
1706292457.5195105,10.0,-3.0,-19.0,-8.0,-1.0,7.0,-15.0,-13.0
1706292457.5195105,7.0,27.0,-6.0,14.0,5.0,2.0,-8.0,20.0
1706292457.5195105,8.0,16.0,58.0,1.0,6.0,-3.0,-6.0,-9.0
1706292457.5195105,-14.0,-5.0,0.0,-10.0,-10.0,-13.0,-10.0,1.0
1706292457.539945,15.0,-36.0,-7.0,-2.0,1.0,2.0,3.0,-15.0
1706292457.539945,7.0,52.0,4.0,-8.0,-12.0,-29.0,-12.0,7.0
1706292457.539945,-24.0,-16.0,15.0,6.0,-2.0,24.0,20.0,30.0
1706292457.539945,7.0,21.0,-26.0,-31.0,-4.0,0.0,-15.0,-25.0
1706292457.569509,2.0,-7.0,22.0,23.0,-4.0,-6.0,5.0,1.0
1706292457.569509,17.0,3.0,6.0,-1.0,0.0,4.0,-33.0,-3.0
1706292457.569509,-3.0,-3.0,34.0,0.0,5.0,-10.0,0.0,-12.0
1706292457.569509,12.0,-13.0,-40.0,-1.0,4.0,-2.0,-28.0,27.0
1706292457.5795417,-9.0,-14.0,-17.0,-9.0,0.0,3.0,5.0,-9.0
1706292457.5795417,-1.0,13.0,7.0,11.0,10.0,5.0,5.0,-2.0
1706292457.5795417,-3.0,-5.0,47.0,3.0,-4.0,-20.0,-33.0,-4.0
1706292457.5795417,-15.0,10.0,-5.0,-1.0,-6.0,18.0,42.0,-12.0
1706292457.5995078,-3.0,42.0,11.0,-9.0,-7.0,-15.0,-11.0,-5.0
1706292457.5995078,-33.0,-50.0,-4.0,10.0,5.0,17.0,6.0,-2.0
1706292457.5995078,-15.0,27.0,-11.0,-4.0,-1.0,-5.0,-8.0,-10.0
1706292457.5995078,11.0,1.0,17.0,8.0,6.0,16.0,23.0,14.0
1706292457.6381874,-17.0,9.0,32.0,3.0,-4.0,-16.0,-21.0,-24.0
1706292457.6381874,10.0,22.0,-13.0,-3.0,-5.0,-1.0,8.0,-7.0
1706292457.6381874,3.0,-24.0,-7.0,14.0,-2.0,-3.0,10.0,1.0
1706292457.6381874,-9.0,-5.0,-54.0,-6.0,-5.0,-19.0,15.0,12.0
1706292457.6441877,-15.0,-8.0,17.0,-2.0,6.0,19.0,-24.0,-4.0
1706292457.6441877,19.0,-1.0,2.0,1.0,-3.0,-8.0,20.0,9.0
1706292457.6441877,0.0,4.0,7.0,-5.0,-3.0,2.0,-19.0,-17.0
1706292457.6441877,11.0,9.0,31.0,9.0,-13.0,6.0,4.0,21.0
1706292457.6676512,1.0,27.0,1.0,1.0,18.0,8.0,-1.0,6.0
1706292457.6676512,-14.0,-53.0,-53.0,49.0,13.0,-8.0,13.0,-11.0
1706292457.668483,20.0,59.0,-12.0,-6.0,-4.0,-1.0,22.0,22.0
1706292457.668483,-9.0,-24.0,0.0,-16.0,-9.0,-10.0,-28.0,-30.0
1706292457.698033,-11.0,16.0,-2.0,-16.0,-8.0,-3.0,7.0,8.0
1706292457.698033,13.0,31.0,9.0,-16.0,-10.0,4.0,-14.0,2.0
1706292457.698033,-4.0,-5.0,19.0,0.0,4.0,1.0,4.0,-18.0
1706292457.698033,14.0,11.0,-25.0,-2.0,2.0,-3.0,-10.0,5.0
1706292457.7052855,-1.0,-32.0,-1.0,8.0,-2.0,-4.0,0.0,-9.0
1706292457.7054446,-11.0,-8.0,2.0,-6.0,-1.0,-6.0,-6.0,1.0
1706292457.706472,-16.0,-20.0,-28.0,-6.0,-2.0,9.0,3.0,39.0
1706292457.706472,8.0,9.0,15.0,1.0,3.0,6.0,-1.0,-57.0
1706292457.7285419,-3.0,-1.0,-1.0,0.0,6.0,-1.0,1.0,18.0
1706292457.7285419,-10.0,-38.0,-32.0,-15.0,-6.0,-5.0,5.0,-8.0
1706292457.7285419,18.0,6.0,3.0,-2.0,0.0,-20.0,-9.0,-8.0
1706292457.7295392,8.0,21.0,15.0,7.0,5.0,20.0,-6.0,30.0
1706292457.7612603,-4.0,2.0,-18.0,-1.0,-8.0,-1.0,7.0,4.0
1706292457.7612603,-2.0,-5.0,13.0,1.0,3.0,-5.0,5.0,4.0
1706292457.7632616,1.0,0.0,-12.0,-9.0,-2.0,-4.0,-23.0,-14.0
1706292457.7632616,-15.0,-18.0,9.0,-15.0,0.0,-3.0,9.0,-20.0
1706292457.7642605,14.0,13.0,14.0,10.0,-9.0,-1.0,0.0,7.0
1706292457.7642605,-1.0,22.0,-13.0,-6.0,-8.0,0.0,-7.0,12.0
1706292457.7642605,-10.0,-38.0,-5.0,28.0,19.0,1.0,5.0,-13.0
1706292457.7642605,-1.0,15.0,10.0,-7.0,-3.0,-5.0,-3.0,15.0
1706292457.7873461,-11.0,-18.0,-26.0,-12.0,-2.0,-1.0,-7.0,14.0
1706292457.7873461,8.0,4.0,12.0,-7.0,-2.0,1.0,-5.0,-13.0
1706292457.7883499,-9.0,2.0,3.0,0.0,-5.0,5.0,36.0,12.0
1706292457.788828,-2.0,-10.0,4.0,14.0,-1.0,-11.0,-28.0,12.0
1706292457.8088562,-5.0,32.0,-4.0,-3.0,0.0,-7.0,-16.0,-12.0
1706292457.8088562,11.0,-13.0,8.0,4.0,0.0,16.0,43.0,30.0
1706292457.8088562,9.0,43.0,14.0,-11.0,-7.0,-14.0,-23.0,-35.0
1706292457.8088562,-24.0,-15.0,-3.0,1.0,3.0,-3.0,-8.0,-22.0
1706292457.8192513,6.0,-5.0,-14.0,3.0,-1.0,-1.0,11.0,5.0
1706292457.8192513,5.0,26.0,2.0,-10.0,-2.0,14.0,0.0,4.0
1706292457.8291988,-2.0,11.0,-2.0,-3.0,0.0,-8.0,-3.0,3.0
1706292457.8291988,-1.0,-8.0,-5.0,-7.0,-2.0,-9.0,-23.0,-7.0
1706292457.8395712,0.0,-6.0,-9.0,5.0,1.0,-3.0,15.0,8.0
1706292457.8395712,1.0,-5.0,6.0,0.0,1.0,2.0,-20.0,0.0
1706292457.8492336,3.0,-14.0,19.0,0.0,-5.0,0.0,4.0,1.0
1706292457.8492336,-3.0,17.0,-21.0,4.0,-1.0,-2.0,-2.0,-25.0
1706292457.8695686,4.0,-32.0,-17.0,-10.0,-1.0,6.0,8.0,-19.0
1706292457.8695686,1.0,1.0,-1.0,-6.0,-1.0,-3.0,-17.0,-15.0
1706292457.8695686,0.0,-1.0,-1.0,4.0,-8.0,-4.0,-9.0,1.0
1706292457.8695686,7.0,-37.0,9.0,-7.0,-2.0,-7.0,6.0,4.0
1706292457.879595,-17.0,17.0,-1.0,3.0,0.0,9.0,3.0,-6.0
1706292457.879595,16.0,41.0,6.0,-9.0,-4.0,-5.0,14.0,0.0
1706292457.8921173,1.0,-21.0,-26.0,11.0,7.0,-16.0,-52.0,-24.0
1706292457.8921173,-4.0,-8.0,8.0,-2.0,-3.0,8.0,13.0,25.0
1706292457.9131157,11.0,-1.0,13.0,-1.0,4.0,24.0,44.0,22.0
1706292457.9131157,-8.0,-36.0,0.0,-16.0,-2.0,-17.0,-28.0,-55.0
1706292457.9131157,-11.0,-11.0,-13.0,-6.0,-10.0,-28.0,-16.0,16.0
1706292457.9131157,-9.0,-14.0,-1.0,4.0,4.0,23.0,-8.0,7.0
1706292457.9218304,0.0,-5.0,2.0,-1.0,-8.0,-16.0,-10.0,-12.0
1706292457.9218304,2.0,45.0,29.0,-18.0,-3.0,4.0,0.0,12.0
1706292457.932142,9.0,-8.0,-36.0,-4.0,8.0,6.0,9.0,8.0
1706292457.932142,0.0,-51.0,-9.0,3.0,2.0,-11.0,11.0,-7.0
1706292457.9421961,9.0,21.0,6.0,5.0,2.0,4.0,-8.0,7.0
1706292457.9421961,-2.0,-58.0,-35.0,-1.0,-9.0,-7.0,-10.0,2.0
1706292457.952071,9.0,-21.0,-4.0,-10.0,2.0,12.0,38.0,15.0
1706292457.952071,-13.0,10.0,15.0,-6.0,-9.0,-8.0,-35.0,-4.0
1706292457.9618309,-5.0,-41.0,-22.0,-12.0,0.0,-12.0,33.0,-5.0
1706292457.9618309,-35.0,39.0,25.0,7.0,5.0,3.0,-29.0,-3.0
1706292457.9618309,17.0,11.0,33.0,31.0,1.0,11.0,21.0,-5.0
1706292457.9618309,6.0,-7.0,-23.0,-12.0,3.0,4.0,9.0,-5.0
1706292457.9821677,3.0,10.0,5.0,1.0,-8.0,-27.0,-29.0,0.0
1706292457.9821677,-3.0,-3.0,-10.0,-17.0,3.0,24.0,20.0,-28.0
1706292457.9821677,-6.0,22.0,18.0,36.0,6.0,9.0,6.0,23.0
1706292457.9821677,-13.0,0.0,-15.0,0.0,-1.0,-6.0,-19.0,-12.0
1706292458.0022814,9.0,-4.0,10.0,-5.0,-2.0,-17.0,-30.0,-25.0
1706292458.0022814,6.0,37.0,-26.0,7.0,-1.0,-5.0,16.0,15.0
1706292458.0121303,2.0,33.0,40.0,-22.0,-4.0,19.0,1.0,9.0
1706292458.0121303,2.0,-43.0,-49.0,8.0,-17.0,-20.0,21.0,-9.0
1706292458.021832,5.0,12.0,7.0,2.0,16.0,16.0,-6.0,-5.0
1706292458.021832,9.0,-16.0,-1.0,-3.0,-1.0,0.0,5.0,14.0
1706292458.021832,-15.0,-6.0,0.0,6.0,-2.0,2.0,-8.0,-5.0
1706292458.021832,3.0,24.0,-7.0,-17.0,-10.0,-4.0,38.0,19.0
1706292458.0418627,-4.0,0.0,14.0,4.0,5.0,6.0,-6.0,2.0
1706292458.0418627,9.0,2.0,15.0,7.0,14.0,2.0,-24.0,-13.0
1706292458.0518296,-1.0,-46.0,-25.0,-17.0,-12.0,-7.0,-9.0,2.0
1706292458.0518296,28.0,61.0,27.0,14.0,7.0,5.0,-12.0,-4.0
1706292458.0623136,-5.0,-20.0,2.0,10.0,-9.0,-1.0,12.0,44.0
1706292458.0623136,-4.0,19.0,28.0,15.0,2.0,-9.0,2.0,-26.0
1706292458.0719805,22.0,7.0,-34.0,-30.0,-8.0,-4.0,-12.0,0.0
1706292458.0719805,15.0,9.0,8.0,5.0,10.0,4.0,11.0,-9.0
1706292458.0818326,-25.0,-19.0,33.0,10.0,-1.0,1.0,-64.0,-18.0
1706292458.0818326,-7.0,-28.0,-21.0,-1.0,-9.0,-9.0,35.0,53.0
1706292458.0818326,-5.0,4.0,-35.0,-14.0,-3.0,-7.0,-47.0,-74.0
1706292458.0818326,22.0,25.0,17.0,2.0,3.0,4.0,7.0,31.0
1706292458.1021397,-25.0,-2.0,3.0,-3.0,-1.0,-6.0,3.0,-44.0
1706292458.1021397,11.0,-22.0,8.0,6.0,-4.0,-4.0,-13.0,19.0
1706292458.1118371,-26.0,-21.0,-7.0,-8.0,-3.0,8.0,28.0,-1.0
1706292458.1118371,13.0,35.0,14.0,-22.0,2.0,-1.0,-3.0,14.0
1706292458.1220648,1.0,1.0,-27.0,26.0,-3.0,-5.0,13.0,14.0
1706292458.1220648,-13.0,-7.0,2.0,-1.0,-5.0,-11.0,-41.0,-13.0
1706292458.133485,-7.0,3.0,-7.0,-3.0,-2.0,0.0,29.0,8.0
1706292458.133485,-13.0,-18.0,12.0,5.0,5.0,5.0,34.0,27.0
1706292458.1513262,-4.0,-5.0,-13.0,-19.0,-7.0,1.0,-59.0,-21.0
1706292458.1513262,5.0,0.0,2.0,3.0,-3.0,-7.0,-11.0,-49.0
1706292458.1543279,2.0,15.0,6.0,5.0,8.0,2.0,-10.0,20.0
1706292458.1553366,-4.0,-50.0,-3.0,1.0,-3.0,5.0,24.0,8.0
1706292458.1701021,13.0,13.0,-47.0,-19.0,-7.0,-3.0,6.0,11.0
1706292458.1701021,10.0,-17.0,14.0,10.0,3.0,10.0,9.0,-22.0
1706292458.171058,0.0,18.0,2.0,-8.0,-7.0,-10.0,-1.0,50.0
1706292458.1720612,-8.0,16.0,-5.0,-27.0,2.0,-4.0,-35.0,-41.0
1706292458.1849828,16.0,-51.0,-8.0,20.0,0.0,4.0,34.0,10.0
1706292458.185981,6.0,4.0,43.0,15.0,6.0,1.0,4.0,6.0
1706292458.1949801,-3.0,0.0,3.0,7.0,-5.0,-3.0,-1.0,-9.0
1706292458.1949801,-3.0,4.0,-3.0,-19.0,-5.0,0.0,0.0,2.0
1706292458.2070363,4.0,37.0,-3.0,-2.0,5.0,4.0,15.0,2.0
1706292458.2070363,2.0,28.0,-39.0,-2.0,-7.0,-1.0,3.0,12.0
1706292458.2153108,-3.0,-6.0,25.0,-10.0,-1.0,1.0,5.0,5.0
1706292458.2153108,-14.0,-25.0,-24.0,23.0,-3.0,-2.0,-4.0,0.0
1706292458.230305,19.0,9.0,6.0,-4.0,1.0,-6.0,-5.0,-13.0
1706292458.230305,-23.0,-12.0,-21.0,-16.0,-11.0,2.0,0.0,-2.0
1706292458.2323036,-18.0,0.0,4.0,14.0,9.0,7.0,17.0,8.0
1706292458.2323036,1.0,13.0,5.0,7.0,3.0,-2.0,-6.0,-8.0
1706292458.2443914,0.0,9.0,17.0,-2.0,-1.0,10.0,22.0,9.0
1706292458.2449205,-4.0,-2.0,-13.0,-2.0,-2.0,-3.0,7.0,11.0
1706292458.274459,3.0,-12.0,-2.0,-6.0,2.0,7.0,3.0,2.0
1706292458.274459,-15.0,-3.0,16.0,8.0,-1.0,-34.0,-44.0,-33.0
1706292458.275457,14.0,-2.0,-9.0,-8.0,0.0,40.0,44.0,-7.0
1706292458.275457,-7.0,-10.0,5.0,-7.0,-3.0,-14.0,0.0,47.0
1706292458.275457,5.0,1.0,1.0,0.0,-5.0,1.0,7.0,-49.0
1706292458.275457,-39.0,12.0,-8.0,3.0,-6.0,-29.0,-17.0,-27.0
1706292458.2895107,-7.0,-1.0,0.0,-9.0,-1.0,-2.0,-28.0,-4.0
1706292458.2895107,4.0,-1.0,-15.0,-1.0,-2.0,6.0,-29.0,0.0
1706292458.2920237,-13.0,-31.0,16.0,3.0,-1.0,-9.0,16.0,6.0
1706292458.2920237,34.0,-3.0,15.0,9.0,2.0,13.0,17.0,17.0
1706292458.3147404,-15.0,1.0,-18.0,-18.0,-13.0,-19.0,-4.0,-9.0
1706292458.3147404,-6.0,-24.0,-46.0,4.0,10.0,10.0,6.0,-14.0
1706292458.3147404,-6.0,16.0,-4.0,-7.0,-8.0,-4.0,-8.0,9.0
1706292458.3147404,14.0,61.0,34.0,-27.0,-7.0,6.0,5.0,2.0
1706292458.3277535,-26.0,-57.0,-10.0,13.0,20.0,-4.0,0.0,8.0
1706292458.3277535,2.0,5.0,37.0,54.0,9.0,1.0,4.0,-14.0
1706292458.3289685,9.0,-13.0,-1.0,9.0,1.0,-9.0,-12.0,-14.0
1706292458.3289685,-15.0,74.0,17.0,-10.0,-10.0,6.0,0.0,8.0
1706292458.350174,0.0,17.0,-25.0,-26.0,-9.0,-5.0,-4.0,1.0
1706292458.350174,23.0,15.0,-6.0,-17.0,-6.0,-3.0,16.0,13.0
1706292458.3511555,26.0,21.0,14.0,-2.0,3.0,0.0,-21.0,-10.0
1706292458.3511555,-34.0,-44.0,-11.0,18.0,10.0,15.0,1.0,10.0
1706292458.3750684,-30.0,30.0,-5.0,-3.0,5.0,1.0,23.0,6.0
1706292458.3750684,-24.0,-9.0,11.0,1.0,4.0,-1.0,-31.0,-23.0
1706292458.3750684,21.0,-8.0,-12.0,-10.0,-12.0,-12.0,-3.0,10.0
1706292458.3750684,-9.0,-28.0,-20.0,-2.0,-8.0,-3.0,-1.0,2.0
1706292458.3880897,7.0,6.0,18.0,3.0,-5.0,-2.0,11.0,-22.0
1706292458.3880897,9.0,11.0,5.0,-12.0,-3.0,3.0,38.0,32.0
1706292458.3890991,-23.0,6.0,13.0,5.0,5.0,4.0,-17.0,-41.0
1706292458.3890991,12.0,1.0,-21.0,0.0,-1.0,-3.0,-3.0,14.0
1706292458.410304,10.0,1.0,19.0,2.0,2.0,-5.0,-3.0,6.0
1706292458.410304,-6.0,21.0,18.0,4.0,-1.0,2.0,12.0,6.0
1706292458.4115336,-14.0,-43.0,-5.0,-12.0,-3.0,-11.0,9.0,14.0
1706292458.4115336,16.0,-27.0,-38.0,2.0,-1.0,13.0,-26.0,-41.0
1706292458.4333537,4.0,-5.0,16.0,11.0,-7.0,-9.0,4.0,20.0
1706292458.4333537,10.0,20.0,8.0,-5.0,2.0,1.0,-6.0,-9.0
1706292458.438083,0.0,17.0,17.0,4.0,5.0,0.0,5.0,6.0
1706292458.438083,-12.0,-16.0,4.0,0.0,2.0,-10.0,-3.0,0.0
1706292458.4472618,-14.0,-49.0,-8.0,-9.0,-11.0,9.0,-30.0,-17.0
1706292458.4472618,6.0,-14.0,-19.0,-10.0,0.0,-1.0,-13.0,9.0
1706292458.4490128,0.0,8.0,-2.0,5.0,4.0,-1.0,18.0,21.0
1706292458.4490128,0.0,-14.0,9.0,12.0,-1.0,11.0,1.0,-12.0
1706292458.4789722,-7.0,-16.0,-36.0,-13.0,-7.0,-32.0,-29.0,-46.0
1706292458.4789722,6.0,11.0,6.0,-7.0,-4.0,7.0,16.0,-2.0
1706292458.4799733,-6.0,-23.0,-11.0,-1.0,0.0,13.0,-3.0,4.0
1706292458.4799733,8.0,12.0,4.0,-14.0,-6.0,-4.0,37.0,49.0
1706292458.4926965,6.0,-5.0,8.0,-1.0,-1.0,-4.0,-16.0,-50.0
1706292458.4926965,-9.0,7.0,-3.0,-3.0,-1.0,-14.0,-5.0,-21.0
1706292458.4938295,7.0,11.0,-7.0,-3.0,-6.0,-1.0,-6.0,-6.0
1706292458.4938295,15.0,-6.0,-9.0,1.0,4.0,9.0,-7.0,4.0
1706292458.5070975,-4.0,37.0,9.0,6.0,3.0,-2.0,20.0,25.0
1706292458.5070975,10.0,-2.0,2.0,3.0,1.0,-6.0,-1.0,2.0
1706292458.5136282,-37.0,-43.0,-23.0,-9.0,-1.0,-6.0,-5.0,-32.0
1706292458.5136282,2.0,-17.0,5.0,6.0,0.0,-5.0,8.0,30.0
1706292458.5392716,12.0,28.0,4.0,7.0,2.0,0.0,-11.0,20.0
1706292458.5392716,-10.0,-24.0,-5.0,-8.0,-8.0,0.0,4.0,-16.0
1706292458.5392716,8.0,42.0,10.0,-2.0,3.0,5.0,1.0,16.0
1706292458.5392716,-8.0,-34.0,-8.0,5.0,3.0,-5.0,-21.0,-25.0
1706292458.5524635,-6.0,-8.0,-12.0,-7.0,-1.0,-2.0,9.0,25.0
1706292458.5524635,1.0,-25.0,1.0,0.0,-2.0,5.0,9.0,14.0
1706292458.5543475,14.0,56.0,16.0,-10.0,-7.0,0.0,-6.0,2.0
1706292458.5543475,-15.0,-33.0,1.0,9.0,4.0,-3.0,-5.0,-9.0
1706292458.5669124,21.0,46.0,-15.0,-31.0,-10.0,-1.0,3.0,1.0
1706292458.5669124,-4.0,-22.0,4.0,17.0,6.0,-3.0,-4.0,7.0
1706292458.573936,-5.0,-43.0,-49.0,-4.0,-3.0,3.0,13.0,-3.0
1706292458.573936,14.0,30.0,10.0,-25.0,-2.0,-5.0,-3.0,-6.0
1706292458.598482,-13.0,-6.0,-8.0,33.0,1.0,-5.0,1.0,26.0
1706292458.598482,-5.0,26.0,12.0,5.0,2.0,6.0,-12.0,-38.0
1706292458.598482,-1.0,0.0,24.0,-1.0,-4.0,-4.0,0.0,-38.0
1706292458.598482,-10.0,-14.0,10.0,5.0,4.0,-1.0,5.0,10.0
1706292458.6133907,10.0,2.0,1.0,-5.0,0.0,6.0,-6.0,0.0
1706292458.6133907,-4.0,-11.0,-12.0,-9.0,-5.0,-5.0,2.0,3.0
1706292458.6144648,23.0,-5.0,8.0,12.0,3.0,-4.0,-6.0,33.0
1706292458.6154602,-3.0,25.0,-14.0,-8.0,-1.0,-2.0,16.0,-43.0
1706292458.6282313,4.0,-17.0,4.0,6.0,6.0,3.0,5.0,4.0
1706292458.6282313,12.0,35.0,20.0,8.0,3.0,-8.0,-10.0,9.0
1706292458.6345334,-30.0,-23.0,-37.0,-7.0,0.0,1.0,-10.0,-11.0
1706292458.6345334,17.0,1.0,12.0,3.0,-3.0,-3.0,3.0,24.0
1706292458.679073,-5.0,-26.0,12.0,-9.0,-7.0,-14.0,-11.0,0.0
1706292458.679073,0.0,-3.0,-17.0,-11.0,-6.0,15.0,25.0,10.0
1706292458.679073,15.0,8.0,16.0,6.0,1.0,-3.0,7.0,17.0
1706292458.679073,-9.0,11.0,12.0,5.0,4.0,21.0,-2.0,-51.0
1706292458.6800725,-3.0,-9.0,-5.0,-4.0,-3.0,-6.0,21.0,27.0
1706292458.6800725,-3.0,-19.0,14.0,-4.0,-3.0,-11.0,-41.0,-2.0
1706292458.6800725,3.0,-1.0,-6.0,-3.0,-2.0,-7.0,3.0,-12.0
1706292458.6800725,-3.0,4.0,-13.0,1.0,-4.0,-3.0,-5.0,2.0
1706292458.6871588,1.0,28.0,40.0,-3.0,-1.0,4.0,10.0,-9.0
1706292458.6871588,-5.0,-8.0,-28.0,9.0,4.0,0.0,15.0,8.0
1706292458.6972373,-14.0,-37.0,-23.0,10.0,-11.0,-6.0,-13.0,-6.0
1706292458.698236,5.0,32.0,10.0,-7.0,-9.0,-2.0,8.0,28.0
1706292458.7102911,13.0,-2.0,21.0,10.0,0.0,0.0,-17.0,-11.0
1706292458.7102911,-7.0,-9.0,-38.0,-15.0,9.0,1.0,3.0,-3.0
1706292458.712342,-13.0,53.0,-3.0,-17.0,2.0,7.0,-5.0,-4.0
1706292458.712342,3.0,-45.0,-3.0,-14.0,-3.0,-7.0,-15.0,2.0
1706292458.732144,-13.0,49.0,6.0,-4.0,1.0,8.0,-8.0,-6.0
1706292458.732144,2.0,-8.0,-31.0,-22.0,-19.0,-15.0,-14.0,-22.0
1706292458.7339108,-2.0,-39.0,12.0,5.0,3.0,4.0,-1.0,5.0
1706292458.7339108,2.0,-5.0,-10.0,7.0,-4.0,-6.0,5.0,22.0
1706292458.7470717,1.0,-4.0,-6.0,5.0,3.0,4.0,2.0,11.0
1706292458.7470717,-4.0,-61.0,1.0,4.0,3.0,-1.0,12.0,-18.0
1706292458.753078,-16.0,39.0,33.0,1.0,-3.0,-5.0,-34.0,8.0
1706292458.753078,-6.0,-11.0,-13.0,7.0,3.0,-1.0,1.0,-1.0
1706292458.7701075,-8.0,-83.0,-54.0,-6.0,-1.0,3.0,-2.0,-9.0
1706292458.7701075,-16.0,23.0,28.0,-1.0,-3.0,3.0,0.0,0.0
1706292458.7716355,7.0,-3.0,6.0,0.0,0.0,0.0,16.0,4.0
1706292458.7716355,5.0,6.0,19.0,3.0,1.0,-5.0,0.0,17.0
1706292458.7923002,-7.0,-16.0,-2.0,-9.0,-4.0,-9.0,-14.0,-13.0
1706292458.7923002,-2.0,6.0,2.0,4.0,-2.0,0.0,-1.0,-1.0
1706292458.7940688,0.0,-16.0,-6.0,-4.0,4.0,6.0,6.0,-7.0
1706292458.7940688,-7.0,22.0,-6.0,7.0,-3.0,-9.0,-16.0,-7.0
1706292458.8095016,34.0,103.0,19.0,4.0,3.0,3.0,6.0,4.0
1706292458.8095016,-31.0,-27.0,-23.0,-15.0,-5.0,-3.0,-6.0,-4.0
1706292458.815507,12.0,12.0,15.0,24.0,-6.0,0.0,-1.0,3.0
1706292458.815507,0.0,-19.0,-17.0,-10.0,1.0,1.0,0.0,-2.0
1706292458.8303194,3.0,-8.0,-1.0,-18.0,-1.0,-3.0,4.0,-8.0
1706292458.8303194,19.0,20.0,15.0,15.0,-3.0,0.0,0.0,13.0
1706292458.831336,-8.0,0.0,3.0,-13.0,-2.0,-15.0,-26.0,-23.0
1706292458.831336,-10.0,-15.0,-15.0,4.0,0.0,10.0,-16.0,-10.0
1706292458.854252,2.0,-12.0,8.0,3.0,4.0,-8.0,7.0,3.0
1706292458.854252,7.0,32.0,19.0,-2.0,-3.0,4.0,6.0,0.0
1706292458.8552606,-22.0,-15.0,-24.0,-15.0,0.0,26.0,23.0,3.0
1706292458.8552606,-10.0,-22.0,10.0,9.0,0.0,-33.0,1.0,-5.0
1706292458.8696299,5.0,-1.0,2.0,-5.0,-5.0,19.0,-12.0,5.0
1706292458.8696299,4.0,-5.0,-18.0,0.0,2.0,-4.0,31.0,20.0
1706292458.874832,8.0,8.0,10.0,6.0,-2.0,-10.0,-65.0,-50.0
1706292458.874832,0.0,-14.0,-38.0,-23.0,-4.0,3.0,13.0,-14.0
1706292458.8980975,-5.0,-11.0,17.0,10.0,0.0,-8.0,-3.0,11.0
1706292458.8980975,-1.0,-9.0,-12.0,-2.0,3.0,2.0,6.0,12.0
1706292458.9001234,-5.0,16.0,26.0,4.0,2.0,0.0,15.0,2.0
1706292458.9001234,-4.0,25.0,11.0,8.0,7.0,2.0,-20.0,-2.0
1706292458.913394,13.0,-21.0,-14.0,0.0,-6.0,-8.0,-1.0,-7.0
1706292458.913394,-7.0,23.0,12.0,2.0,-1.0,3.0,-9.0,-8.0
1706292458.9144197,-4.0,3.0,-13.0,0.0,4.0,0.0,25.0,40.0
1706292458.9144197,-3.0,24.0,-1.0,1.0,-4.0,0.0,7.0,-30.0
1706292458.9438598,-27.0,-26.0,-9.0,6.0,1.0,1.0,-15.0,0.0
1706292458.9438598,23.0,36.0,26.0,-6.0,-4.0,-6.0,-8.0,-12.0
1706292458.9438598,5.0,2.0,-14.0,-8.0,-9.0,-5.0,6.0,11.0
1706292458.9438598,0.0,4.0,25.0,25.0,-1.0,3.0,14.0,2.0
1706292458.9501097,-9.0,-50.0,-53.0,-32.0,8.0,7.0,8.0,-6.0
1706292458.9501097,-5.0,-15.0,-22.0,16.0,2.0,0.0,-5.0,-4.0
1706292458.95211,-4.0,-10.0,6.0,3.0,-11.0,-20.0,-25.0,-15.0
1706292458.95211,23.0,12.0,26.0,4.0,-6.0,3.0,1.0,17.0
1706292458.9722588,-20.0,-9.0,43.0,0.0,-2.0,-7.0,-9.0,-9.0
1706292458.9722588,-21.0,-26.0,-31.0,-16.0,-7.0,0.0,-5.0,-5.0
1706292458.9742708,16.0,19.0,59.0,28.0,7.0,6.0,16.0,8.0
1706292458.9742708,14.0,-7.0,-13.0,12.0,13.0,7.0,-1.0,5.0
1706292458.9881036,-24.0,15.0,15.0,-4.0,2.0,-4.0,-2.0,-2.0
1706292458.9881036,-1.0,-9.0,6.0,-14.0,-3.0,-2.0,-15.0,-12.0
1706292458.9881036,18.0,-59.0,-52.0,-7.0,-3.0,-3.0,2.0,1.0
1706292458.9881036,3.0,4.0,22.0,-11.0,-9.0,-3.0,20.0,29.0
1706292459.0081124,0.0,21.0,10.0,12.0,-2.0,-22.0,-1.0,-7.0
1706292459.0081124,1.0,25.0,5.0,-1.0,0.0,30.0,-11.0,-71.0
1706292459.0081124,0.0,-15.0,-25.0,-4.0,0.0,0.0,16.0,48.0
1706292459.0081124,2.0,-41.0,-2.0,-5.0,1.0,4.0,13.0,37.0
1706292459.0481098,-1.0,9.0,-22.0,-4.0,-7.0,-14.0,-9.0,-57.0
1706292459.0481098,-2.0,-16.0,17.0,8.0,4.0,6.0,15.0,6.0
1706292459.0481098,10.0,30.0,-10.0,-11.0,-1.0,-7.0,-15.0,-27.0
1706292459.0481098,-10.0,-5.0,0.0,-5.0,6.0,6.0,-3.0,-3.0
1706292459.0481098,8.0,15.0,-9.0,3.0,-7.0,-2.0,4.0,23.0
1706292459.0481098,-2.0,-9.0,4.0,-1.0,-2.0,-16.0,-17.0,-1.0
1706292459.0481098,25.0,51.0,17.0,0.0,5.0,11.0,8.0,3.0
1706292459.0481098,-32.0,-14.0,-25.0,-13.0,-8.0,-14.0,-17.0,-20.0
1706292459.0684936,-3.0,-8.0,-7.0,7.0,-1.0,8.0,0.0,1.0
1706292459.0684936,19.0,-11.0,8.0,5.0,0.0,-9.0,0.0,10.0
1706292459.0684936,-13.0,-27.0,-17.0,-16.0,1.0,1.0,11.0,3.0
1706292459.0684936,19.0,27.0,13.0,19.0,2.0,1.0,-7.0,-1.0
1706292459.0881073,-5.0,22.0,26.0,-4.0,0.0,9.0,-6.0,-4.0
1706292459.0881073,-15.0,-44.0,-35.0,-6.0,-1.0,-7.0,1.0,12.0
1706292459.0881073,-15.0,1.0,4.0,5.0,-4.0,-5.0,-2.0,2.0
1706292459.0881073,-9.0,3.0,-5.0,-16.0,-11.0,1.0,-5.0,-11.0
1706292459.098232,0.0,-29.0,9.0,-20.0,1.0,3.0,0.0,-3.0
1706292459.098232,3.0,24.0,18.0,9.0,-7.0,-6.0,0.0,14.0
1706292459.108388,0.0,3.0,-7.0,-4.0,10.0,3.0,0.0,-7.0
1706292459.108388,5.0,-4.0,14.0,-5.0,1.0,0.0,3.0,-3.0
1706292459.1285203,-6.0,-11.0,-17.0,2.0,3.0,-2.0,-8.0,-4.0
1706292459.1285203,0.0,-10.0,-12.0,-35.0,-13.0,0.0,5.0,17.0
1706292459.1285203,-3.0,-5.0,12.0,32.0,-4.0,-5.0,-8.0,-20.0
1706292459.1285203,10.0,8.0,8.0,-2.0,-1.0,0.0,14.0,52.0
1706292459.1481073,-5.0,-34.0,-31.0,2.0,-7.0,4.0,-2.0,-10.0
1706292459.1481073,-3.0,14.0,18.0,4.0,10.0,0.0,28.0,5.0
1706292459.1481073,-1.0,5.0,32.0,2.0,-4.0,4.0,-36.0,-2.0
1706292459.1481073,-8.0,-20.0,-64.0,-13.0,1.0,-6.0,-23.0,-17.0
1706292459.1582212,6.0,2.0,-4.0,6.0,0.0,12.0,45.0,66.0
1706292459.1582212,1.0,14.0,-3.0,0.0,-3.0,-14.0,-23.0,-72.0
1706292459.1684105,8.0,45.0,0.0,-6.0,4.0,4.0,13.0,12.0
1706292459.1684105,-3.0,3.0,28.0,1.0,0.0,-3.0,-2.0,-1.0
1706292459.188443,17.0,15.0,-31.0,-2.0,0.0,-2.0,-4.0,-1.0
1706292459.188443,-24.0,3.0,15.0,10.0,-1.0,-2.0,-9.0,27.0
1706292459.188443,-16.0,-28.0,-8.0,0.0,4.0,-2.0,8.0,-5.0
1706292459.188443,-8.0,8.0,27.0,1.0,3.0,8.0,6.0,-2.0
1706292459.2081091,15.0,-4.0,-48.0,-3.0,-4.0,-6.0,-13.0,-14.0
1706292459.2081091,10.0,15.0,15.0,-2.0,5.0,6.0,23.0,38.0
1706292459.2081091,-23.0,-18.0,-8.0,-8.0,-6.0,-7.0,-26.0,-37.0
1706292459.2081091,14.0,26.0,-6.0,4.0,0.0,6.0,8.0,-14.0
1706292459.2182295,4.0,18.0,0.0,0.0,-4.0,-7.0,-6.0,1.0
1706292459.2182295,-13.0,19.0,43.0,7.0,5.0,0.0,-2.0,-14.0
1706292459.22842,-18.0,-95.0,-50.0,-17.0,-10.0,-3.0,16.0,-27.0
1706292459.22842,25.0,-4.0,-31.0,-5.0,3.0,0.0,-7.0,-7.0
1706292459.2484975,2.0,24.0,49.0,9.0,-3.0,-1.0,-12.0,-7.0
1706292459.2484975,0.0,-8.0,-24.0,-13.0,-7.0,-7.0,-15.0,8.0
1706292459.2484975,-12.0,18.0,12.0,13.0,9.0,5.0,13.0,9.0
1706292459.2484975,-16.0,-11.0,-29.0,-22.0,-14.0,-5.0,-10.0,-11.0
1706292459.2687418,-10.0,-24.0,-1.0,23.0,14.0,1.0,10.0,-5.0
1706292459.2687418,12.0,10.0,8.0,10.0,-1.0,0.0,-4.0,10.0
1706292459.2687418,15.0,2.0,24.0,-9.0,-6.0,-7.0,1.0,14.0
1706292459.2687418,2.0,-1.0,2.0,-13.0,-1.0,0.0,3.0,-4.0
1706292459.2888298,-19.0,-14.0,-29.0,5.0,-3.0,4.0,2.0,1.0
1706292459.2888298,5.0,-7.0,4.0,1.0,3.0,-3.0,-13.0,-4.0
1706292459.2888298,6.0,10.0,-25.0,-12.0,-8.0,-7.0,1.0,13.0
1706292459.2888298,-6.0,-13.0,-13.0,0.0,2.0,1.0,1.0,-12.0
1706292459.3284974,4.0,3.0,28.0,-1.0,4.0,1.0,-6.0,-6.0
1706292459.3284974,3.0,0.0,0.0,15.0,16.0,7.0,-5.0,5.0
1706292459.3284974,9.0,6.0,-15.0,-11.0,-2.0,2.0,6.0,3.0
1706292459.3284974,-4.0,-5.0,-9.0,-2.0,-11.0,-7.0,-6.0,2.0
1706292459.3284974,6.0,0.0,24.0,3.0,-5.0,-3.0,19.0,2.0
1706292459.3284974,-7.0,-2.0,7.0,-4.0,-7.0,-12.0,-38.0,-4.0
1706292459.3284974,7.0,6.0,-30.0,-5.0,-1.0,8.0,-1.0,3.0
1706292459.3284974,-16.0,4.0,21.0,10.0,7.0,8.0,0.0,27.0
1706292459.3487866,-7.0,-6.0,-2.0,-5.0,-6.0,-19.0,-25.0,-67.0
1706292459.3487866,5.0,10.0,27.0,-1.0,-2.0,4.0,12.0,10.0
1706292459.3487866,-4.0,-75.0,-47.0,-8.0,-1.0,-9.0,-6.0,-5.0
1706292459.3487866,-10.0,9.0,22.0,8.0,0.0,-7.0,-16.0,-37.0
1706292459.3684978,-3.0,-6.0,-59.0,-21.0,-4.0,5.0,1.0,17.0
1706292459.3684978,0.0,31.0,16.0,1.0,-4.0,-5.0,3.0,-5.0
1706292459.3684978,1.0,7.0,24.0,10.0,3.0,4.0,2.0,0.0
1706292459.3684978,5.0,-30.0,13.0,-6.0,-1.0,-2.0,8.0,1.0
1706292459.3884969,21.0,47.0,53.0,10.0,2.0,3.0,4.0,11.0
1706292459.3884969,-35.0,-128.0,-106.0,-8.0,-4.0,-6.0,-6.0,-22.0
1706292459.3884969,14.0,45.0,44.0,-43.0,-8.0,-4.0,2.0,15.0
1706292459.3884969,-2.0,9.0,-8.0,40.0,7.0,0.0,-3.0,-3.0
1706292459.408827,0.0,22.0,28.0,-4.0,-9.0,-4.0,-9.0,6.0
1706292459.408827,21.0,1.0,14.0,-5.0,0.0,3.0,22.0,30.0
1706292459.408827,-18.0,30.0,3.0,12.0,5.0,0.0,-56.0,-28.0
1706292459.408827,41.0,-2.0,-5.0,-16.0,2.0,2.0,15.0,17.0
1706292459.4285066,-36.0,-38.0,1.0,-6.0,-6.0,-5.0,2.0,-4.0
1706292459.4385018,-2.0,17.0,-18.0,3.0,-1.0,-2.0,1.0,10.0
1706292459.4584951,9.0,0.0,28.0,12.0,4.0,3.0,24.0,-2.0
1706292459.4584951,19.0,19.0,22.0,-1.0,0.0,1.0,-1.0,-29.0
1706292459.4584951,6.0,4.0,-17.0,2.0,-2.0,-4.0,-18.0,28.0
1706292459.4584951,0.0,5.0,-4.0,-1.0,0.0,0.0,4.0,18.0
1706292459.4584951,0.0,-16.0,2.0,-3.0,-5.0,-6.0,-10.0,-45.0
1706292459.4584951,-6.0,-3.0,-4.0,4.0,-1.0,4.0,10.0,14.0
1706292459.4919393,-1.0,10.0,-3.0,-5.0,8.0,5.0,8.0,-4.0
1706292459.4919393,-8.0,-3.0,-17.0,-13.0,-7.0,-2.0,-2.0,-4.0
1706292459.4949381,2.0,-3.0,1.0,7.0,6.0,4.0,7.0,10.0
1706292459.4949381,-27.0,-21.0,14.0,11.0,2.0,-1.0,-3.0,-7.0
1706292459.4949381,7.0,-10.0,25.0,-1.0,-1.0,-1.0,-4.0,11.0
1706292459.4949381,19.0,20.0,13.0,-4.0,-4.0,-6.0,-8.0,-5.0
1706292459.4959383,-8.0,11.0,-30.0,-1.0,1.0,-3.0,7.0,11.0
1706292459.4959383,-19.0,1.0,-14.0,-13.0,-7.0,6.0,16.0,-4.0
1706292459.5039356,-5.0,11.0,32.0,6.0,0.0,-3.0,-11.0,-38.0
1706292459.5039356,9.0,3.0,-22.0,1.0,3.0,4.0,12.0,11.0
1706292459.513936,0.0,6.0,6.0,9.0,3.0,16.0,32.0,23.0
1706292459.513936,-6.0,7.0,-1.0,-9.0,-5.0,-8.0,-35.0,-30.0
1706292459.5439324,13.0,22.0,13.0,0.0,-3.0,3.0,27.0,21.0
1706292459.5439324,-3.0,-8.0,15.0,6.0,0.0,-8.0,5.0,-21.0
1706292459.5439324,-2.0,-6.0,-1.0,-6.0,-3.0,-7.0,12.0,36.0
1706292459.5439324,-16.0,0.0,-5.0,-7.0,-3.0,-10.0,-29.0,-49.0
1706292459.5439324,11.0,-3.0,-6.0,2.0,2.0,5.0,7.0,10.0
1706292459.5439324,10.0,-12.0,5.0,2.0,-4.0,-4.0,9.0,-2.0
1706292459.5539653,-15.0,14.0,8.0,-7.0,-4.0,0.0,-15.0,3.0
1706292459.5539653,-10.0,19.0,8.0,6.0,9.0,4.0,11.0,24.0
1706292459.5642958,-12.0,-31.0,-14.0,10.0,0.0,-3.0,-6.0,-5.0
1706292459.5642958,-7.0,-12.0,-14.0,-8.0,3.0,2.0,0.0,-6.0
1706292459.5741005,43.0,26.0,24.0,-6.0,-5.0,-1.0,-8.0,-12.0
1706292459.5741005,-24.0,28.0,-25.0,8.0,-2.0,-4.0,3.0,12.0
1706292459.5939388,-16.0,-89.0,-1.0,-13.0,4.0,-1.0,-3.0,-9.0
1706292459.5939388,16.0,79.0,-4.0,-1.0,-7.0,-2.0,-10.0,-4.0
1706292459.5939388,1.0,-13.0,0.0,11.0,-3.0,-9.0,11.0,10.0
1706292459.5939388,8.0,-1.0,-11.0,-41.0,4.0,0.0,-3.0,6.0
1706292459.6039307,26.0,20.0,2.0,-3.0,-6.0,1.0,21.0,20.0
1706292459.6039307,-11.0,-8.0,27.0,-9.0,4.0,1.0,-34.0,-31.0
1706292459.6141696,-4.0,-9.0,13.0,11.0,-1.0,-1.0,0.0,8.0
1706292459.6141696,-3.0,5.0,3.0,9.0,-3.0,3.0,5.0,1.0
1706292459.6241715,-12.0,1.0,-22.0,-9.0,-2.0,-3.0,-3.0,-9.0
1706292459.6241715,-8.0,-25.0,11.0,-2.0,-3.0,2.0,15.0,13.0
1706292459.6339374,1.0,31.0,-6.0,7.0,2.0,-7.0,-9.0,-7.0
1706292459.6339374,12.0,-17.0,5.0,10.0,0.0,6.0,7.0,21.0
1706292459.6639316,-29.0,-11.0,-24.0,-14.0,-4.0,4.0,-6.0,-25.0
1706292459.6639316,3.0,15.0,26.0,3.0,-2.0,0.0,7.0,6.0
1706292459.6639316,6.0,-32.0,-62.0,-3.0,-2.0,-9.0,-2.0,12.0
1706292459.6639316,-17.0,-8.0,5.0,-19.0,-6.0,6.0,-2.0,5.0
1706292459.6639316,9.0,5.0,13.0,17.0,7.0,2.0,2.0,3.0
1706292459.6639316,-4.0,-5.0,0.0,6.0,-7.0,-1.0,-7.0,-7.0
1706292459.6742833,-3.0,27.0,38.0,-26.0,3.0,2.0,0.0,-7.0
1706292459.6742833,12.0,-44.0,-33.0,16.0,-16.0,-13.0,-5.0,-2.0
1706292459.683936,-7.0,18.0,1.0,12.0,-2.0,0.0,-7.0,-8.0
1706292459.683936,-30.0,-18.0,-8.0,5.0,15.0,-3.0,-7.0,-4.0
1706292459.6939323,-5.0,-15.0,14.0,9.0,19.0,14.0,0.0,-2.0
1706292459.6939323,-10.0,5.0,-33.0,-17.0,-4.0,-8.0,-6.0,-3.0
1706292459.7142477,29.0,46.0,12.0,-7.0,-5.0,3.0,29.0,34.0
1706292459.7142477,4.0,23.0,-12.0,-3.0,-15.0,-9.0,-19.0,-8.0
1706292459.7142477,-24.0,1.0,22.0,-3.0,-8.0,-2.0,-11.0,-49.0
1706292459.7142477,-5.0,38.0,16.0,2.0,-1.0,-3.0,-3.0,-5.0
1706292459.7243087,-19.0,-14.0,20.0,3.0,-3.0,-4.0,3.0,19.0
1706292459.7243087,18.0,-4.0,-41.0,-17.0,0.0,0.0,21.0,-9.0
1706292459.7342548,2.0,22.0,-1.0,4.0,-1.0,-4.0,11.0,7.0
1706292459.7342548,7.0,-19.0,-18.0,3.0,0.0,1.0,-4.0,3.0
1706292459.7442942,-3.0,0.0,5.0,-5.0,-2.0,-3.0,-7.0,-7.0
1706292459.7442942,-1.0,-18.0,17.0,8.0,3.0,-5.0,-10.0,-17.0
1706292459.753955,-17.0,-34.0,-26.0,-3.0,-4.0,10.0,15.0,33.0
1706292459.753955,27.0,-13.0,6.0,3.0,-2.0,-3.0,8.0,16.0
1706292459.7739654,-7.0,2.0,5.0,0.0,3.0,2.0,-6.0,-8.0
1706292459.7739654,-18.0,-23.0,1.0,0.0,-4.0,0.0,-2.0,0.0
1706292459.7739654,4.0,-20.0,-29.0,-1.0,-4.0,-3.0,-5.0,-9.0
1706292459.7739654,0.0,-8.0,-30.0,-7.0,-2.0,-4.0,-2.0,-1.0
1706292459.7843008,0.0,2.0,-5.0,-3.0,2.0,-2.0,-20.0,-11.0
1706292459.7843008,4.0,-18.0,12.0,6.0,1.0,1.0,-9.0,-5.0
1706292459.794287,15.0,18.0,-28.0,-21.0,-9.0,-10.0,-15.0,17.0
1706292459.794287,6.0,36.0,28.0,18.0,1.0,8.0,18.0,-9.0
1706292459.8042853,-7.0,-56.0,-21.0,5.0,1.0,-5.0,12.0,-9.0
1706292459.8042853,-10.0,-45.0,-19.0,-8.0,1.0,0.0,7.0,6.0
1706292459.8239336,5.0,39.0,28.0,9.0,-2.0,7.0,-22.0,4.0
1706292459.8239336,-10.0,4.0,24.0,-5.0,1.0,-9.0,-10.0,-11.0
1706292459.8340976,13.0,-19.0,-20.0,-5.0,-8.0,-5.0,-4.0,-13.0
1706292459.8340976,-13.0,39.0,40.0,-1.0,-1.0,-2.0,-1.0,3.0
1706292459.8340976,-9.0,-31.0,-13.0,1.0,0.0,0.0,9.0,-4.0
1706292459.8340976,-24.0,-19.0,-18.0,-18.0,2.0,1.0,9.0,-8.0
1706292459.8440142,1.0,16.0,3.0,36.0,5.0,1.0,-10.0,12.0
1706292459.8440142,5.0,-2.0,7.0,-3.0,-4.0,-4.0,-2.0,1.0
1706292459.854112,-8.0,-8.0,2.0,0.0,-4.0,-4.0,-8.0,-17.0
1706292459.854112,-10.0,-52.0,-4.0,-29.0,-4.0,3.0,6.0,10.0
1706292459.8739328,-4.0,1.0,7.0,6.0,11.0,2.0,-1.0,-2.0
1706292459.8739328,20.0,58.0,-14.0,4.0,1.0,0.0,3.0,9.0
1706292459.8739328,-15.0,-1.0,1.0,10.0,-2.0,-3.0,4.0,-8.0
1706292459.8739328,14.0,6.0,9.0,-10.0,-4.0,-4.0,-7.0,2.0
1706292459.8942714,13.0,-31.0,-20.0,-22.0,-8.0,2.0,-3.0,10.0
1706292459.8942714,-8.0,10.0,-2.0,0.0,3.0,2.0,-3.0,-2.0
1706292459.8942714,-11.0,-5.0,2.0,11.0,0.0,-6.0,-2.0,-12.0
1706292459.8942714,1.0,20.0,29.0,15.0,5.0,1.0,-10.0,-10.0
1706292459.9043095,10.0,30.0,-22.0,-14.0,-8.0,-4.0,-7.0,1.0
1706292459.9043095,-17.0,-10.0,-8.0,2.0,0.0,3.0,6.0,3.0
1706292459.9142756,-7.0,-13.0,-9.0,-6.0,3.0,-3.0,3.0,14.0
1706292459.9142756,0.0,10.0,3.0,7.0,-3.0,-5.0,-2.0,-19.0
1706292459.924286,-7.0,-5.0,-10.0,-4.0,0.0,3.0,22.0,7.0
1706292459.924286,18.0,25.0,8.0,-7.0,-4.0,-5.0,-26.0,-8.0
1706292459.9339328,-4.0,-1.0,20.0,1.0,2.0,-3.0,-18.0,13.0
1706292459.9339328,13.0,-3.0,15.0,10.0,1.0,5.0,-2.0,-27.0
1706292459.9639306,-15.0,-19.0,-50.0,-14.0,-5.0,-4.0,-2.0,-38.0
1706292459.9639306,-16.0,-21.0,0.0,-5.0,1.0,-4.0,18.0,30.0
1706292459.9639306,11.0,-7.0,5.0,1.0,1.0,8.0,5.0,0.0
1706292459.9639306,15.0,21.0,6.0,6.0,-2.0,-2.0,-17.0,33.0
1706292459.9639306,-14.0,35.0,14.0,5.0,8.0,-3.0,-6.0,-21.0
1706292459.9639306,10.0,-20.0,-5.0,-2.0,-1.0,-6.0,-6.0,-4.0
1706292459.974275,-6.0,60.0,0.0,7.0,-2.0,12.0,1.0,-12.0
1706292459.974275,-22.0,27.0,33.0,3.0,1.0,1.0,14.0,25.0
1706292459.993931,-2.0,-15.0,12.0,-28.0,-3.0,3.0,-2.0,7.0
1706292459.993931,4.0,-11.0,-51.0,20.0,-2.0,-7.0,-5.0,-2.0
1706292459.993931,12.0,-14.0,8.0,-12.0,3.0,3.0,1.0,9.0
1706292459.993931,6.0,42.0,-4.0,19.0,3.0,-7.0,2.0,-8.0
1706292460.0153222,-9.0,-11.0,24.0,-6.0,-4.0,-6.0,-11.0,1.0
1706292460.0153222,-11.0,28.0,9.0,-9.0,-3.0,5.0,4.0,-9.0
1706292460.0163174,15.0,-13.0,-11.0,-5.0,-5.0,-8.0,3.0,-11.0
1706292460.0163174,8.0,-15.0,-9.0,-1.0,6.0,1.0,-4.0,22.0
1706292460.0366464,-12.0,-8.0,2.0,-8.0,-5.0,-7.0,-14.0,-27.0
1706292460.0366464,-1.0,-25.0,-7.0,5.0,8.0,3.0,8.0,5.0
1706292460.0366464,-7.0,-7.0,-7.0,-4.0,-2.0,1.0,0.0,-7.0
1706292460.0366464,15.0,-5.0,2.0,16.0,0.0,-6.0,0.0,11.0
1706292460.0466483,-4.0,31.0,9.0,5.0,-3.0,5.0,6.0,15.0
1706292460.0466483,4.0,-8.0,-4.0,-9.0,-3.0,1.0,-33.0,-29.0
1706292460.0466483,-10.0,-5.0,-6.0,-4.0,-5.0,-7.0,-11.0,5.0
1706292460.0466483,0.0,-7.0,-19.0,-14.0,-3.0,-4.0,-14.0,-55.0
1706292460.0669775,7.0,-9.0,7.0,7.0,-2.0,-3.0,0.0,20.0
1706292460.0669775,2.0,-5.0,6.0,4.0,1.0,1.0,10.0,-1.0
1706292460.076655,6.0,-4.0,1.0,0.0,1.0,-4.0,0.0,13.0
1706292460.076655,2.0,-10.0,-7.0,-5.0,2.0,13.0,10.0,7.0
1706292460.08687,-14.0,-33.0,-23.0,7.0,-5.0,-10.0,-12.0,-10.0
1706292460.08687,1.0,5.0,3.0,-10.0,-5.0,-4.0,-2.0,0.0
1706292460.1066496,1.0,-9.0,-13.0,-1.0,-2.0,-4.0,2.0,-6.0
1706292460.1066496,-2.0,-3.0,0.0,-5.0,-2.0,0.0,4.0,4.0
1706292460.1066496,5.0,10.0,11.0,-8.0,-1.0,-1.0,1.0,-9.0
1706292460.1066496,4.0,11.0,21.0,-12.0,-6.0,0.0,0.0,3.0
1706292460.1066496,1.0,-20.0,-26.0,41.0,21.0,4.0,-3.0,-2.0
1706292460.1066496,-11.0,-13.0,-10.0,0.0,8.0,2.0,9.0,0.0
1706292460.1269395,-5.0,16.0,-6.0,-8.0,-2.0,0.0,-1.0,9.0
1706292460.1269395,-12.0,-6.0,-5.0,-15.0,-14.0,-11.0,-4.0,6.0
1706292460.136654,-1.0,1.0,7.0,-17.0,-13.0,-7.0,2.0,-5.0
1706292460.136654,-10.0,-9.0,-6.0,2.0,1.0,0.0,-9.0,0.0
1706292460.1468124,9.0,31.0,8.0,-1.0,0.0,2.0,2.0,6.0
1706292460.1468124,-10.0,-27.0,-1.0,6.0,7.0,2.0,13.0,5.0
1706292460.1666493,-5.0,15.0,7.0,0.0,-5.0,0.0,22.0,-4.0
1706292460.1666493,3.0,6.0,4.0,1.0,3.0,-3.0,-28.0,-1.0
1706292460.1666493,13.0,-35.0,-7.0,1.0,0.0,-1.0,6.0,33.0
1706292460.1666493,10.0,36.0,11.0,6.0,3.0,4.0,-2.0,-34.0
1706292460.1666493,-27.0,-27.0,-12.0,-6.0,-3.0,-2.0,7.0,-1.0
1706292460.1666493,2.0,-8.0,-5.0,-9.0,-8.0,-6.0,-5.0,-28.0
1706292460.1869495,4.0,16.0,18.0,7.0,2.0,1.0,0.0,10.0
1706292460.1869495,11.0,6.0,-1.0,4.0,0.0,-2.0,-15.0,-1.0
1706292460.1966538,5.0,-2.0,5.0,-6.0,0.0,-2.0,5.0,4.0
1706292460.1966538,1.0,10.0,8.0,1.0,-2.0,-2.0,7.0,11.0
1706292460.2366464,-4.0,9.0,2.0,1.0,2.0,1.0,-4.0,-14.0
1706292460.2366464,6.0,-15.0,-5.0,8.0,6.0,7.0,11.0,25.0
1706292460.2366464,-12.0,7.0,-5.0,-7.0,-6.0,-1.0,-35.0,-34.0
1706292460.2366464,-12.0,-8.0,-6.0,-1.0,-1.0,-8.0,1.0,4.0
1706292460.2366464,3.0,-34.0,-6.0,-6.0,-7.0,0.0,4.0,-10.0
1706292460.2366464,-12.0,21.0,-3.0,-10.0,-4.0,-4.0,0.0,1.0
1706292460.2366464,5.0,-8.0,22.0,15.0,-1.0,3.0,1.0,6.0
1706292460.2366464,16.0,13.0,10.0,-1.0,-4.0,-4.0,0.0,4.0
1706292460.247048,-20.0,-11.0,-23.0,-4.0,-1.0,-2.0,-6.0,-3.0
1706292460.247048,8.0,-12.0,5.0,-6.0,6.0,4.0,7.0,-6.0
1706292460.2566488,-6.0,-6.0,-23.0,-13.0,-2.0,-2.0,-3.0,-6.0
1706292460.2566488,-15.0,-7.0,-11.0,-3.0,-8.0,-3.0,-3.0,-1.0
1706292460.2766485,14.0,6.0,18.0,-9.0,-1.0,2.0,7.0,4.0
1706292460.2766485,-14.0,-30.0,-7.0,20.0,1.0,1.0,2.0,-9.0
1706292460.2766485,7.0,-1.0,3.0,-1.0,0.0,0.0,10.0,8.0
1706292460.2766485,1.0,-52.0,-3.0,0.0,-2.0,-5.0,-3.0,17.0
1706292460.2869277,12.0,60.0,-5.0,0.0,-1.0,1.0,-4.0,-36.0
1706292460.2869277,-14.0,15.0,-3.0,-6.0,3.0,6.0,12.0,19.0
1706292460.2869277,-1.0,21.0,5.0,-7.0,-4.0,-10.0,-3.0,-22.0
1706292460.2869277,5.0,-2.0,3.0,4.0,-3.0,-1.0,3.0,27.0
1706292460.326656,-18.0,-35.0,4.0,1.0,-1.0,-3.0,-12.0,-63.0
1706292460.326656,15.0,8.0,-6.0,5.0,-4.0,-5.0,-4.0,45.0
1706292460.3366477,13.0,26.0,7.0,-3.0,4.0,-1.0,6.0,7.0
1706292460.3366477,-2.0,-8.0,-15.0,-9.0,5.0,6.0,7.0,2.0
1706292460.3366477,9.0,-24.0,6.0,4.0,-2.0,-7.0,-5.0,17.0
1706292460.3366477,-8.0,-4.0,-20.0,-8.0,-11.0,-2.0,1.0,-11.0
1706292460.3366477,0.0,-14.0,5.0,2.0,-3.0,-4.0,-11.0,0.0
1706292460.3366477,-16.0,-16.0,13.0,-3.0,-4.0,-4.0,3.0,-12.0
1706292460.3466814,13.0,0.0,-11.0,-1.0,2.0,4.0,13.0,5.0
1706292460.3466814,3.0,2.0,4.0,-3.0,-3.0,-8.0,-3.0,11.0
1706292460.3466814,8.0,9.0,5.0,-2.0,1.0,6.0,9.0,37.0
1706292460.3466814,8.0,-13.0,-5.0,-3.0,-2.0,-4.0,-26.0,-54.0
1706292460.3866472,4.0,44.0,-3.0,-4.0,-2.0,-2.0,3.0,18.0
1706292460.3866472,-1.0,-8.0,2.0,-6.0,-2.0,-1.0,-2.0,-24.0
1706292460.3866472,-1.0,-49.0,-6.0,-1.0,-2.0,-2.0,-1.0,19.0
1706292460.3866472,-1.0,39.0,9.0,3.0,0.0,-6.0,-8.0,-46.0
1706292460.397008,-6.0,-9.0,-5.0,2.0,0.0,3.0,-3.0,3.0
1706292460.397008,-2.0,-47.0,1.0,3.0,1.0,-3.0,-4.0,-17.0
1706292460.397008,-6.0,16.0,-7.0,1.0,3.0,-1.0,4.0,0.0
1706292460.397008,4.0,1.0,3.0,-5.0,-3.0,9.0,7.0,18.0
1706292460.4070718,-9.0,2.0,7.0,-1.0,-3.0,-9.0,-14.0,6.0
1706292460.4070718,1.0,-8.0,2.0,9.0,3.0,-2.0,10.0,-10.0
1706292460.4170198,3.0,10.0,2.0,-3.0,-3.0,-4.0,8.0,12.0
1706292460.4170198,-6.0,8.0,14.0,3.0,3.0,3.0,2.0,-17.0
1706292460.4366515,-1.0,-19.0,-51.0,-4.0,-5.0,-12.0,-4.0,4.0
1706292460.4366515,11.0,4.0,-3.0,-8.0,0.0,12.0,24.0,-1.0
1706292460.4366515,-10.0,-11.0,-11.0,3.0,-2.0,9.0,-38.0,-10.0
1706292460.4366515,14.0,19.0,3.0,0.0,-1.0,-3.0,9.0,22.0
1706292460.457052,0.0,18.0,40.0,6.0,-1.0,-8.0,-4.0,-13.0
1706292460.457052,-4.0,15.0,5.0,7.0,4.0,3.0,-2.0,35.0
1706292460.457052,-1.0,35.0,-23.0,-8.0,-1.0,1.0,8.0,-26.0
1706292460.457052,-12.0,20.0,7.0,-5.0,-1.0,3.0,5.0,0.0
1706292460.4670575,-6.0,-30.0,8.0,4.0,-7.0,-1.0,-7.0,14.0
1706292460.4670575,-2.0,-30.0,-14.0,3.0,12.0,-4.0,-4.0,-4.0
1706292460.476716,24.0,10.0,37.0,27.0,-2.0,-1.0,-5.0,-12.0
1706292460.476716,-27.0,0.0,-76.0,-17.0,-9.0,-8.0,-8.0,9.0
1706292460.4866495,2.0,-28.0,8.0,-1.0,0.0,3.0,10.0,13.0
1706292460.4866495,-1.0,37.0,41.0,-25.0,-9.0,-5.0,-16.0,-24.0
1706292460.496647,-6.0,-47.0,-2.0,13.0,4.0,-3.0,3.0,1.0
1706292460.496647,5.0,4.0,11.0,9.0,4.0,2.0,0.0,0.0
1706292460.5169704,15.0,26.0,-2.0,4.0,4.0,4.0,5.0,15.0
1706292460.5169704,-20.0,-16.0,1.0,-9.0,-8.0,-3.0,-9.0,-6.0
1706292460.5169704,-2.0,14.0,-13.0,-13.0,-1.0,-2.0,2.0,-5.0
1706292460.5169704,-12.0,-22.0,7.0,5.0,-1.0,-1.0,4.0,26.0
1706292460.5270753,-2.0,-2.0,-15.0,-5.0,1.0,-2.0,-40.0,-49.0
1706292460.5270753,3.0,6.0,3.0,10.0,2.0,4.0,22.0,9.0
1706292460.541964,-6.0,-6.0,-8.0,-8.0,4.0,-8.0,-10.0,-8.0
1706292460.5429635,-1.0,-8.0,4.0,4.0,-2.0,-7.0,-6.0,1.0
1706292460.5551245,-1.0,-18.0,10.0,-1.0,6.0,21.0,17.0,15.0
1706292460.5551245,8.0,14.0,-15.0,-1.0,-4.0,-1.0,1.0,-7.0
1706292460.556527,-8.0,-5.0,0.0,-7.0,-6.0,-3.0,0.0,-7.0
1706292460.556527,8.0,-15.0,0.0,-7.0,-2.0,-14.0,-4.0,25.0
1706292460.5694222,-8.0,18.0,9.0,4.0,5.0,8.0,-2.0,-17.0
1706292460.5694222,6.0,14.0,7.0,4.0,0.0,0.0,2.0,1.0
1706292460.579425,-14.0,-22.0,-17.0,-16.0,-4.0,3.0,-1.0,-10.0
1706292460.579425,-5.0,-22.0,14.0,6.0,1.0,0.0,3.0,15.0
1706292460.5897195,9.0,5.0,12.0,2.0,-5.0,-6.0,6.0,-3.0
1706292460.5897195,-8.0,-15.0,-6.0,-10.0,-7.0,-5.0,-20.0,-9.0
1706292460.5897195,-7.0,34.0,2.0,5.0,10.0,-1.0,0.0,3.0
1706292460.599428,-5.0,23.0,-57.0,-2.0,-6.0,4.0,9.0,-3.0
1706292460.6194212,-11.0,-57.0,-21.0,-17.0,2.0,-1.0,2.0,14.0
1706292460.6194212,10.0,77.0,37.0,15.0,1.0,1.0,-5.0,0.0
1706292460.6194212,20.0,40.0,4.0,1.0,-3.0,-4.0,20.0,2.0
1706292460.6194212,-42.0,-23.0,42.0,9.0,4.0,0.0,-16.0,-30.0
1706292460.6297002,15.0,25.0,-10.0,2.0,5.0,4.0,10.0,13.0
1706292460.6297002,-16.0,-19.0,-11.0,-2.0,-15.0,-10.0,-12.0,-6.0
1706292460.6394281,20.0,22.0,29.0,-14.0,8.0,-1.0,9.0,30.0
1706292460.6394281,10.0,-4.0,-19.0,-10.0,1.0,7.0,-16.0,-47.0
1706292460.669426,9.0,24.0,18.0,5.0,-2.0,-5.0,1.0,14.0
1706292460.669426,-14.0,-20.0,-10.0,-12.0,-1.0,-6.0,-7.0,-28.0
1706292460.669426,-6.0,-13.0,-6.0,9.0,-4.0,0.0,-6.0,-9.0
1706292460.669426,15.0,-7.0,10.0,-5.0,-2.0,5.0,6.0,-11.0
1706292460.669426,-7.0,7.0,-1.0,0.0,-6.0,-13.0,-8.0,-5.0
1706292460.669426,12.0,-9.0,-17.0,0.0,3.0,0.0,0.0,26.0
1706292460.669426,6.0,17.0,6.0,3.0,1.0,3.0,-4.0,-9.0
1706292460.669426,3.0,16.0,4.0,0.0,-6.0,-6.0,1.0,9.0
1706292460.689765,2.0,-4.0,3.0,-1.0,-2.0,0.0,22.0,-9.0
1706292460.689765,-52.0,-28.0,-29.0,0.0,-1.0,-4.0,-21.0,-33.0
1706292460.699427,4.0,-19.0,-11.0,-9.0,-6.0,-4.0,-26.0,-2.0
1706292460.699427,-8.0,-6.0,-5.0,-7.0,0.0,4.0,12.0,12.0
1706292460.7194297,0.0,21.0,-10.0,-2.0,-7.0,-15.0,-40.0,-20.0
1706292460.7194297,24.0,2.0,15.0,-7.0,-1.0,8.0,14.0,17.0
1706292460.7194297,-20.0,-28.0,9.0,8.0,4.0,6.0,8.0,-7.0
1706292460.7194297,3.0,10.0,-21.0,-3.0,-2.0,0.0,-4.0,6.0
1706292460.7294223,-25.0,-64.0,-21.0,-5.0,4.0,0.0,3.0,-9.0
1706292460.7294223,9.0,9.0,-8.0,12.0,9.0,5.0,-2.0,5.0
1706292460.7294223,0.0,7.0,37.0,-4.0,-6.0,-6.0,-2.0,-10.0
1706292460.7294223,21.0,32.0,24.0,5.0,3.0,1.0,8.0,13.0
1706292460.749783,-8.0,-40.0,-77.0,-11.0,-8.0,-2.0,20.0,22.0
1706292460.749783,5.0,37.0,52.0,1.0,4.0,-3.0,-10.0,-20.0
1706292460.7594252,-3.0,-11.0,-31.0,-28.0,-5.0,-1.0,8.0,12.0
1706292460.7594252,9.0,-9.0,7.0,22.0,-3.0,-2.0,-16.0,-14.0
1706292460.7794228,-11.0,12.0,12.0,0.0,-1.0,-5.0,-1.0,6.0
1706292460.7794228,2.0,-32.0,-39.0,1.0,-3.0,-1.0,1.0,2.0
1706292460.7794228,-12.0,-9.0,0.0,-4.0,-2.0,-3.0,2.0,4.0
1706292460.7794228,-17.0,-10.0,-20.0,-14.0,-3.0,-2.0,0.0,4.0
1706292460.7896683,7.0,27.0,30.0,7.0,3.0,5.0,-10.0,-14.0
1706292460.7896683,18.0,-33.0,-15.0,2.0,-1.0,-1.0,30.0,26.0
1706292460.7896683,-34.0,-1.0,1.0,6.0,-1.0,-9.0,-46.0,-46.0
1706292460.7896683,20.0,-10.0,-5.0,-3.0,3.0,3.0,12.0,10.0
1706292460.8094273,-9.0,20.0,18.0,9.0,-1.0,0.0,-12.0,26.0
1706292460.8094273,-10.0,-8.0,-10.0,-13.0,-7.0,-21.0,-31.0,-46.0
1706292460.8194273,24.0,-4.0,-8.0,4.0,3.0,19.0,24.0,26.0
1706292460.8194273,-5.0,0.0,9.0,-2.0,-3.0,-2.0,11.0,11.0
1706292460.839423,-20.0,-8.0,-4.0,-6.0,-4.0,-5.0,1.0,-26.0
1706292460.839423,1.0,3.0,2.0,4.0,1.0,5.0,-6.0,24.0
1706292460.839423,-16.0,-6.0,0.0,5.0,-4.0,-19.0,7.0,-5.0
1706292460.839423,-4.0,20.0,6.0,5.0,1.0,19.0,-11.0,-6.0
1706292460.849455,12.0,31.0,26.0,4.0,10.0,-7.0,10.0,17.0
1706292460.849455,-17.0,-29.0,-37.0,-9.0,-3.0,6.0,-2.0,-3.0
1706292460.849455,2.0,-10.0,7.0,4.0,-4.0,-11.0,-16.0,-17.0
1706292460.849455,9.0,22.0,9.0,-2.0,5.0,0.0,9.0,13.0
1706292460.8698564,1.0,-19.0,-25.0,-9.0,-7.0,-4.0,-1.0,-3.0
1706292460.8698564,7.0,-20.0,26.0,10.0,1.0,2.0,12.0,2.0
1706292460.8794234,8.0,8.0,-23.0,-10.0,-5.0,5.0,12.0,14.0
1706292460.8794234,2.0,-37.0,24.0,5.0,2.0,-4.0,-10.0,-9.0
1706292460.8897514,-7.0,19.0,9.0,-5.0,-1.0,3.0,-5.0,-8.0
1706292460.8897514,-4.0,-13.0,3.0,-10.0,12.0,-4.0,-5.0,-1.0
1706292460.899423,-4.0,-39.0,21.0,49.0,3.0,1.0,1.0,-1.0
1706292460.9094217,-2.0,-52.0,-6.0,-10.0,-3.0,-14.0,-10.0,-1.0
1706292460.9094217,-4.0,-26.0,-60.0,-21.0,-5.0,3.0,5.0,-2.0
1706292460.9094217,-16.0,30.0,-5.0,-3.0,-15.0,-5.0,-4.0,-10.0
1706292460.9094217,19.0,46.0,34.0,21.0,8.0,5.0,4.0,-1.0
1706292460.9094217,-36.0,-41.0,-37.0,-54.0,-21.0,-10.0,-7.0,-7.0
1706292460.949423,21.0,41.0,38.0,42.0,22.0,5.0,20.0,7.0
1706292460.949423,-20.0,23.0,22.0,-7.0,-3.0,-1.0,-22.0,-46.0
1706292460.949423,45.0,35.0,28.0,-7.0,1.0,11.0,5.0,70.0
1706292460.949423,-18.0,18.0,-7.0,2.0,-1.0,-22.0,-3.0,-40.0
1706292460.949423,3.0,-8.0,-3.0,-32.0,-16.0,17.0,30.0,26.0
1706292460.949423,5.0,10.0,25.0,16.0,-3.0,-1.0,-41.0,-109.0
1706292460.959421,-19.0,-29.0,-22.0,33.0,14.0,5.0,-16.0,-21.0
1706292460.959421,14.0,3.0,-43.0,-16.0,-9.0,-4.0,-10.0,27.0
1706292460.9697134,-1.0,-2.0,3.0,-10.0,-5.0,-9.0,-27.0,-5.0
1706292460.9697134,-10.0,4.0,3.0,5.0,4.0,-1.0,15.0,49.0
1706292460.9697134,3.0,-5.0,7.0,-34.0,-12.0,-4.0,18.0,-11.0
1706292460.9697134,-11.0,-8.0,-38.0,9.0,6.0,-2.0,0.0,-11.0
1706292461.0094237,7.0,22.0,37.0,12.0,2.0,5.0,-4.0,17.0
1706292461.0094237,15.0,-3.0,8.0,-4.0,-3.0,-4.0,-23.0,-17.0
1706292461.0094237,-8.0,-4.0,-26.0,-1.0,6.0,-3.0,-6.0,11.0
1706292461.0094237,-3.0,18.0,-38.0,4.0,-1.0,0.0,6.0,2.0
1706292461.0094237,4.0,-7.0,15.0,-6.0,-2.0,-3.0,-30.0,-30.0
1706292461.0094237,6.0,3.0,-24.0,-2.0,2.0,-3.0,47.0,65.0
1706292461.019426,-20.0,-11.0,-5.0,-14.0,-11.0,-11.0,-35.0,-72.0
1706292461.019426,17.0,5.0,16.0,5.0,1.0,1.0,1.0,15.0
1706292461.0297353,-6.0,-6.0,4.0,10.0,-4.0,-5.0,-10.0,-4.0
1706292461.0297353,8.0,-1.0,-2.0,0.0,-3.0,1.0,1.0,21.0
1706292461.0297353,4.0,15.0,-14.0,-11.0,-3.0,-2.0,19.0,20.0
1706292461.0297353,4.0,-9.0,10.0,3.0,2.0,6.0,10.0,8.0
1706292461.0720112,1.0,10.0,-2.0,4.0,8.0,3.0,-1.0,-4.0
1706292461.0720112,-3.0,-9.0,-5.0,-12.0,3.0,4.0,9.0,6.0
1706292461.0720112,7.0,13.0,1.0,-1.0,-1.0,-1.0,6.0,8.0
1706292461.0720112,5.0,11.0,18.0,6.0,-3.0,0.0,-5.0,-8.0
1706292461.0850089,-8.0,4.0,15.0,5.0,-3.0,-2.0,5.0,-2.0
1706292461.0850089,1.0,-43.0,-83.0,-22.0,-6.0,-7.0,2.0,9.0
1706292461.0850089,-2.0,12.0,13.0,-9.0,-6.0,-1.0,-5.0,-8.0
1706292461.0850089,-1.0,-23.0,15.0,8.0,3.0,3.0,-5.0,3.0
1706292461.0952013,2.0,7.0,-12.0,-2.0,1.0,-2.0,5.0,2.0
1706292461.0952013,6.0,17.0,20.0,19.0,-2.0,2.0,3.0,6.0
1706292461.096217,0.0,9.0,-5.0,-1.0,4.0,2.0,-8.0,-3.0
1706292461.096217,-3.0,0.0,7.0,0.0,0.0,-1.0,4.0,-1.0
1706292461.1223218,6.0,-6.0,-13.0,-10.0,0.0,-6.0,25.0,19.0
1706292461.1223218,-12.0,-19.0,5.0,0.0,-7.0,0.0,-35.0,-24.0
1706292461.1223218,-5.0,-4.0,-1.0,-3.0,-4.0,2.0,-3.0,25.0
1706292461.1223218,-2.0,11.0,11.0,-2.0,-5.0,-20.0,11.0,-37.0
1706292461.1223218,5.0,-8.0,-11.0,3.0,3.0,-4.0,-5.0,-18.0
1706292461.1223218,7.0,18.0,8.0,-1.0,5.0,27.0,25.0,17.0
1706292461.1425693,-9.0,-6.0,-6.0,-5.0,-2.0,-11.0,-1.0,-8.0
1706292461.1425693,6.0,6.0,7.0,4.0,7.0,12.0,-11.0,17.0
1706292461.172323,-8.0,-18.0,-8.0,-1.0,-8.0,-14.0,-6.0,-10.0
1706292461.172323,2.0,10.0,2.0,-1.0,1.0,-13.0,-7.0,-2.0
1706292461.172323,1.0,-26.0,-6.0,-5.0,1.0,8.0,-4.0,-2.0
1706292461.172323,-1.0,10.0,15.0,15.0,0.0,3.0,13.0,8.0
1706292461.172323,-12.0,-20.0,3.0,-1.0,-1.0,2.0,-9.0,-15.0
1706292461.172323,-2.0,-13.0,-22.0,-28.0,-11.0,-10.0,0.0,11.0
1706292461.172323,-2.0,27.0,10.0,23.0,4.0,0.0,5.0,-10.0
1706292461.172323,1.0,-2.0,-11.0,-14.0,6.0,5.0,-1.0,-2.0
1706292461.2027676,11.0,0.0,-14.0,13.0,-3.0,0.0,-4.0,2.0
1706292461.2027676,-4.0,-6.0,5.0,8.0,4.0,1.0,-5.0,1.0
1706292461.2027676,-10.0,-14.0,-7.0,-22.0,-10.0,-11.0,0.0,-2.0
1706292461.2027676,0.0,6.0,6.0,-1.0,3.0,-3.0,-20.0,4.0
1706292461.222323,3.0,20.0,4.0,5.0,4.0,14.0,-1.0,6.0
1706292461.222323,10.0,0.0,-1.0,0.0,2.0,24.0,42.0,22.0
1706292461.222323,-1.0,-11.0,-14.0,-10.0,-6.0,-14.0,-18.0,1.0
1706292461.222323,-2.0,6.0,4.0,1.0,-5.0,0.0,24.0,-22.0
1706292461.232718,-2.0,-6.0,-3.0,-4.0,1.0,-3.0,-11.0,-9.0
1706292461.232718,-9.0,4.0,5.0,6.0,1.0,-18.0,-17.0,6.0
1706292461.232718,3.0,2.0,0.0,-2.0,5.0,15.0,11.0,-1.0
1706292461.232718,-2.0,-1.0,0.0,-1.0,-6.0,-8.0,8.0,24.0
1706292461.2627497,-6.0,12.0,3.0,-5.0,-8.0,-2.0,1.0,2.0
1706292461.2627497,2.0,-33.0,10.0,4.0,-4.0,-1.0,-3.0,-18.0
1706292461.2627497,-7.0,-16.0,-9.0,-21.0,-3.0,-1.0,14.0,16.0
1706292461.2627497,2.0,-2.0,-7.0,11.0,-6.0,-5.0,-11.0,-3.0
1706292461.2723277,-11.0,-11.0,-33.0,18.0,8.0,6.0,4.0,-3.0
1706292461.2723277,-6.0,-19.0,18.0,8.0,6.0,-2.0,-9.0,-1.0
1706292461.282324,10.0,3.0,-19.0,-25.0,-10.0,-8.0,-2.0,-5.0
1706292461.282324,-8.0,-1.0,10.0,16.0,4.0,3.0,-9.0,-1.0
1706292461.2923667,1.0,8.0,9.0,-18.0,-11.0,1.0,-7.0,-3.0
1706292461.2923667,9.0,29.0,-3.0,12.0,6.0,-11.0,4.0,8.0
1706292461.2923667,-7.0,-4.0,-6.0,3.0,-4.0,2.0,-4.0,-8.0
1706292461.2923667,4.0,5.0,12.0,-7.0,4.0,7.0,0.0,-3.0
1706292461.3124998,0.0,2.0,9.0,-3.0,-7.0,-11.0,-2.0,8.0
1706292461.3124998,-3.0,5.0,-16.0,-7.0,6.0,-2.0,-2.0,-3.0
1706292461.3223348,2.0,-12.0,3.0,2.0,3.0,3.0,3.0,-2.0
1706292461.3223348,10.0,5.0,-5.0,-2.0,-1.0,3.0,-17.0,-8.0
1706292461.342328,-19.0,-1.0,11.0,2.0,-2.0,-4.0,31.0,3.0
1706292461.342328,-1.0,-2.0,-3.0,-16.0,-19.0,-12.0,-25.0,-5.0
1706292461.352322,7.0,6.0,1.0,14.0,12.0,5.0,5.0,1.0
1706292461.352322,2.0,20.0,2.0,5.0,6.0,4.0,6.0,6.0
1706292461.352322,3.0,20.0,6.0,0.0,10.0,2.0,-3.0,-1.0
1706292461.352322,-12.0,-28.0,-21.0,6.0,-8.0,-2.0,5.0,-10.0
1706292461.352322,-6.0,9.0,27.0,-4.0,-11.0,-5.0,0.0,2.0
1706292461.352322,4.0,13.0,-23.0,1.0,-1.0,-4.0,-7.0,0.0
1706292461.392323,-6.0,-71.0,-51.0,-36.0,-6.0,-3.0,-9.0,-4.0
1706292461.392323,7.0,41.0,23.0,28.0,7.0,1.0,2.0,2.0
1706292461.392323,-3.0,-7.0,-1.0,27.0,0.0,-2.0,-6.0,-6.0
1706292461.392323,-5.0,-16.0,-10.0,-13.0,3.0,0.0,4.0,1.0
1706292461.392323,3.0,11.0,10.0,-4.0,-3.0,3.0,-9.0,-2.0
1706292461.392323,3.0,6.0,-12.0,-17.0,-2.0,-4.0,-3.0,6.0
1706292461.392323,2.0,-7.0,6.0,-3.0,-3.0,-1.0,4.0,9.0
1706292461.392323,-4.0,-16.0,3.0,3.0,-11.0,-7.0,9.0,-7.0
1706292461.4127648,-5.0,12.0,3.0,8.0,2.0,-3.0,-42.0,-36.0
1706292461.4127648,6.0,8.0,9.0,0.0,1.0,0.0,-6.0,1.0
1706292461.4127648,-9.0,6.0,4.0,5.0,3.0,1.0,11.0,4.0
1706292461.4127648,-2.0,-13.0,-7.0,-18.0,-5.0,5.0,40.0,2.0
1706292461.442324,3.0,14.0,12.0,6.0,-2.0,-15.0,-83.0,-25.0
1706292461.442324,-3.0,-21.0,-17.0,-3.0,0.0,1.0,9.0,0.0
1706292461.442324,-5.0,-9.0,-6.0,-21.0,-15.0,-13.0,-24.0,-6.0
1706292461.442324,1.0,9.0,4.0,13.0,18.0,15.0,2.0,4.0
1706292461.4523516,9.0,1.0,10.0,13.0,7.0,-2.0,28.0,17.0
1706292461.4523516,11.0,20.0,26.0,7.0,3.0,2.0,-4.0,-7.0
1706292461.4523516,-20.0,-8.0,-17.0,-11.0,-4.0,-6.0,-2.0,8.0
1706292461.4623356,0.0,-5.0,10.0,-11.0,-13.0,-9.0,-13.0,-24.0
1706292461.4723277,-5.0,-3.0,2.0,5.0,-8.0,1.0,13.0,8.0
1706292461.4723277,2.0,4.0,4.0,3.0,6.0,2.0,2.0,6.0
1706292461.4723277,1.0,-10.0,-26.0,-2.0,5.0,-5.0,7.0,-5.0
1706292461.4723277,-1.0,10.0,34.0,3.0,-7.0,0.0,-7.0,-8.0
1706292461.512328,1.0,6.0,-8.0,-11.0,1.0,4.0,15.0,7.0
1706292461.512328,-4.0,3.0,7.0,-6.0,-4.0,-1.0,17.0,4.0
1706292461.5223217,6.0,4.0,-4.0,-4.0,7.0,1.0,-6.0,-9.0
1706292461.5223217,-7.0,-15.0,-12.0,5.0,-1.0,-2.0,-4.0,27.0
1706292461.5223217,4.0,1.0,-2.0,-2.0,-4.0,-5.0,3.0,-26.0
1706292461.5223217,-3.0,-11.0,-8.0,-3.0,1.0,5.0,-3.0,-1.0
1706292461.5223217,2.0,10.0,12.0,2.0,2.0,3.0,2.0,13.0
1706292461.5223217,-1.0,11.0,-3.0,-5.0,-3.0,-6.0,-25.0,-19.0
1706292461.5326052,4.0,-5.0,3.0,-1.0,1.0,4.0,28.0,11.0
1706292461.5326052,-20.0,0.0,17.0,-2.0,-5.0,-4.0,-6.0,-5.0
1706292461.5326052,6.0,-3.0,-13.0,1.0,-1.0,-1.0,8.0,-11.0
1706292461.5326052,-9.0,-4.0,6.0,-3.0,-4.0,-2.0,-8.0,16.0
1706292461.5623243,4.0,-10.0,-9.0,3.0,7.0,2.0,5.0,14.0
1706292461.5623243,3.0,11.0,-2.0,-7.0,1.0,2.0,4.0,-4.0
1706292461.5623243,10.0,-8.0,9.0,5.0,-2.0,-6.0,-6.0,4.0
1706292461.5623243,-12.0,6.0,-5.0,7.0,1.0,2.0,9.0,-16.0
1706292461.5725753,11.0,6.0,-6.0,-10.0,-7.0,-3.0,0.0,12.0
1706292461.5725753,-3.0,-7.0,-6.0,-8.0,-6.0,-9.0,-13.0,0.0
1706292461.5725753,6.0,-14.0,-9.0,1.0,0.0,7.0,3.0,-3.0
1706292461.5725753,10.0,34.0,9.0,8.0,6.0,6.0,7.0,6.0
1706292461.592707,-14.0,-31.0,-16.0,1.0,0.0,1.0,1.0,-5.0
1706292461.592707,3.0,22.0,-5.0,-1.0,2.0,-3.0,-8.0,3.0
1706292461.592707,0.0,12.0,10.0,5.0,-3.0,1.0,7.0,4.0
1706292461.592707,0.0,-12.0,-2.0,-13.0,5.0,-4.0,-6.0,-7.0
1706292461.6275911,3.0,14.0,8.0,8.0,-2.0,3.0,19.0,13.0
1706292461.6275911,-14.0,-23.0,-16.0,-32.0,-15.0,-14.0,-48.0,-12.0
1706292461.6275911,-6.0,3.0,4.0,27.0,11.0,5.0,-4.0,-30.0
1706292461.6275911,6.0,-13.0,-20.0,-3.0,-2.0,1.0,4.0,40.0
1706292461.635083,-5.0,12.0,19.0,3.0,0.0,-11.0,8.0,42.0
1706292461.635083,0.0,-24.0,-22.0,-12.0,-6.0,13.0,1.0,-77.0
1706292461.635083,-3.0,10.0,-1.0,-14.0,-6.0,2.0,-1.0,-5.0
1706292461.635083,-4.0,-12.0,-5.0,-1.0,0.0,-5.0,-12.0,-8.0
1706292461.6552885,2.0,4.0,15.0,10.0,-1.0,-4.0,11.0,7.0
1706292461.6552885,17.0,31.0,-4.0,2.0,1.0,-6.0,6.0,40.0
1706292461.6552885,-26.0,-7.0,6.0,-3.0,0.0,-1.0,-35.0,-29.0
1706292461.6552885,1.0,-4.0,6.0,1.0,-6.0,-8.0,3.0,-15.0
1706292461.685081,-8.0,-6.0,-7.0,-17.0,-6.0,-1.0,-2.0,-7.0
1706292461.685081,6.0,3.0,2.0,14.0,3.0,4.0,17.0,17.0
1706292461.685081,9.0,-20.0,-8.0,-6.0,-1.0,1.0,4.0,4.0
1706292461.685081,-1.0,15.0,2.0,3.0,-3.0,-4.0,-9.0,10.0
1706292461.685081,-9.0,2.0,-27.0,-18.0,-4.0,2.0,-11.0,-23.0
1706292461.685081,2.0,-4.0,36.0,19.0,3.0,4.0,-8.0,-4.0
1706292461.6951065,-1.0,-11.0,-40.0,-10.0,0.0,-6.0,2.0,41.0
1706292461.6951065,-10.0,-11.0,0.0,-1.0,-5.0,-4.0,-3.0,-9.0
1706292461.7153683,7.0,5.0,-3.0,2.0,7.0,7.0,-7.0,6.0
1706292461.7153683,-6.0,6.0,7.0,7.0,-2.0,-13.0,-5.0,-21.0
1706292461.7153683,-6.0,5.0,4.0,-6.0,-4.0,25.0,27.0,7.0
1706292461.7153683,-5.0,-11.0,-11.0,-11.0,-6.0,-17.0,-22.0,-15.0
1706292461.7450802,-2.0,-4.0,4.0,3.0,-3.0,-1.0,1.0,1.0
1706292461.7450802,0.0,-5.0,-4.0,0.0,-1.0,-7.0,5.0,14.0
1706292461.7450802,2.0,0.0,10.0,-18.0,-4.0,-13.0,-20.0,1.0
1706292461.7450802,8.0,4.0,-11.0,13.0,0.0,-4.0,17.0,-1.0
1706292461.7450802,7.0,-4.0,15.0,6.0,1.0,18.0,-4.0,-3.0
1706292461.7450802,-3.0,30.0,-5.0,-1.0,4.0,-10.0,-8.0,-14.0
1706292461.7552326,-17.0,-4.0,-4.0,-3.0,-4.0,9.0,27.0,-14.0
1706292461.7552326,2.0,18.0,6.0,-1.0,1.0,4.0,-7.0,6.0
1706292461.7950785,-2.0,-25.0,7.0,-4.0,-5.0,-8.0,17.0,27.0
1706292461.7950785,7.0,1.0,-35.0,-2.0,4.0,1.0,-4.0,-34.0
1706292461.7950785,3.0,16.0,30.0,10.0,1.0,-8.0,18.0,15.0
1706292461.7950785,-5.0,-41.0,-45.0,-10.0,-1.0,8.0,-9.0,-33.0
1706292461.7950785,16.0,59.0,11.0,0.0,-2.0,-12.0,13.0,34.0
1706292461.7950785,-10.0,-24.0,-2.0,-9.0,-3.0,-2.0,-30.0,-1.0
1706292461.7950785,4.0,29.0,-4.0,4.0,2.0,-3.0,1.0,-7.0
1706292461.7950785,-3.0,21.0,16.0,4.0,-1.0,-3.0,-18.0,-14.0
1706292461.805305,0.0,20.0,3.0,-13.0,-3.0,-17.0,-37.0,-22.0
1706292461.805305,1.0,-14.0,-5.0,4.0,-1.0,28.0,65.0,30.0
1706292461.8150887,-2.0,-11.0,2.0,8.0,-2.0,-14.0,-20.0,-14.0
1706292461.8150887,6.0,0.0,9.0,-7.0,0.0,-1.0,18.0,19.0
1706292461.8450806,-5.0,-37.0,-19.0,0.0,-2.0,0.0,-8.0,-19.0
1706292461.8450806,-5.0,1.0,10.0,-11.0,-7.0,-10.0,-11.0,10.0
1706292461.8450806,-2.0,-2.0,-5.0,10.0,8.0,2.0,-9.0,3.0
1706292461.8450806,-9.0,-59.0,6.0,1.0,0.0,8.0,12.0,14.0
1706292461.8554013,-8.0,26.0,11.0,0.0,-4.0,-8.0,-8.0,-28.0
1706292461.8554013,5.0,8.0,25.0,9.0,4.0,0.0,31.0,31.0
1706292461.8554013,3.0,-13.0,-28.0,-30.0,-8.0,6.0,1.0,-17.0
1706292461.8554013,-11.0,-16.0,-7.0,19.0,0.0,-5.0,-9.0,-4.0
1706292461.86539,2.0,-2.0,14.0,3.0,7.0,4.0,-45.0,-53.0
1706292461.86539,-9.0,-10.0,2.0,-19.0,1.0,3.0,12.0,-33.0
1706292461.875347,-2.0,3.0,8.0,18.0,-5.0,-4.0,12.0,24.0
1706292461.875347,11.0,18.0,3.0,-12.0,-2.0,-4.0,-17.0,-2.0
1706292461.89508,-5.0,-5.0,14.0,4.0,-8.0,1.0,23.0,20.0
1706292461.89508,1.0,7.0,0.0,-3.0,-2.0,-2.0,-8.0,4.0
1706292461.89508,-3.0,-1.0,4.0,-5.0,-2.0,-10.0,-24.0,-10.0
1706292461.89508,-1.0,9.0,-18.0,-7.0,-1.0,-2.0,8.0,-1.0
1706292461.9151423,-1.0,-22.0,-7.0,8.0,4.0,22.0,75.0,35.0
1706292461.9151423,-12.0,-2.0,1.0,-4.0,-4.0,-5.0,-50.0,-40.0
1706292461.9151423,0.0,-5.0,-2.0,1.0,-1.0,-6.0,-5.0,-8.0
1706292461.9151423,4.0,4.0,6.0,2.0,-1.0,4.0,-5.0,8.0
1706292461.9252803,-5.0,28.0,-9.0,-6.0,-5.0,-12.0,16.0,29.0
1706292461.9252803,1.0,-8.0,5.0,7.0,4.0,3.0,-12.0,-29.0
1706292461.9351408,15.0,4.0,5.0,11.0,4.0,6.0,0.0,15.0
1706292461.9351408,19.0,29.0,-4.0,-7.0,5.0,0.0,1.0,-1.0
1706292461.965086,-18.0,-14.0,-10.0,-2.0,-3.0,0.0,-16.0,-10.0
1706292461.965086,7.0,3.0,-4.0,-3.0,-9.0,-5.0,12.0,25.0
1706292461.965086,-15.0,-42.0,-33.0,-14.0,-7.0,-7.0,-17.0,-11.0
1706292461.965086,9.0,39.0,21.0,13.0,0.0,1.0,-11.0,-12.0
1706292461.975115,2.0,-44.0,-14.0,-4.0,5.0,2.0,-7.0,1.0
1706292461.975115,-13.0,11.0,0.0,10.0,3.0,-2.0,2.0,27.0
1706292461.975115,1.0,7.0,7.0,-11.0,-2.0,-2.0,-1.0,-15.0
1706292461.975115,-6.0,-21.0,0.0,-8.0,-1.0,2.0,26.0,15.0
1706292461.9950833,-3.0,19.0,-2.0,-3.0,-4.0,-8.0,-25.0,-24.0
1706292461.9950833,-1.0,-30.0,-7.0,3.0,1.0,9.0,2.0,18.0
1706292462.005101,8.0,-4.0,7.0,6.0,0.0,-5.0,-8.0,-12.0
1706292462.005101,-7.0,2.0,-5.0,-5.0,-2.0,-4.0,-3.0,16.0
1706292462.0151436,2.0,-13.0,0.0,2.0,4.0,-11.0,-17.0,-24.0
1706292462.0151436,6.0,2.0,-3.0,-22.0,-1.0,13.0,37.0,24.0
1706292462.0151436,6.0,8.0,3.0,22.0,4.0,-6.0,-22.0,-13.0
1706292462.0151436,-8.0,4.0,2.0,-5.0,-2.0,19.0,43.0,20.0
1706292462.0355077,-12.0,-6.0,-1.0,4.0,-4.0,-21.0,-36.0,-44.0
1706292462.0355077,-1.0,-3.0,0.0,-3.0,-4.0,-5.0,-3.0,0.0
1706292462.0355077,-1.0,4.0,-4.0,-8.0,0.0,16.0,18.0,24.0
1706292462.0355077,-6.0,10.0,4.0,-2.0,-3.0,-13.0,-6.0,8.0
1706292462.0454462,4.0,4.0,4.0,1.0,2.0,16.0,24.0,2.0
1706292462.0454462,-10.0,-21.0,-19.0,-7.0,-8.0,-7.0,0.0,-5.0
1706292462.0551186,-2.0,-5.0,-4.0,9.0,9.0,-9.0,-24.0,-5.0
1706292462.0551186,0.0,-21.0,2.0,3.0,-1.0,3.0,-5.0,-12.0
1706292462.0754635,7.0,-4.0,-5.0,-21.0,-8.0,5.0,19.0,26.0
1706292462.0754635,-6.0,12.0,6.0,25.0,10.0,-3.0,-27.0,-22.0
1706292462.0754635,-6.0,7.0,1.0,1.0,4.0,3.0,27.0,10.0
1706292462.0754635,-10.0,-35.0,-13.0,-11.0,-7.0,-7.0,-6.0,-11.0
1706292462.0955303,19.0,14.0,-3.0,-3.0,2.0,8.0,-7.0,6.0
1706292462.0955303,1.0,-8.0,-2.0,-10.0,-10.0,-9.0,4.0,5.0
1706292462.0955303,-3.0,-4.0,9.0,-6.0,-2.0,-2.0,1.0,6.0
1706292462.0955303,-8.0,8.0,-14.0,10.0,4.0,-3.0,-11.0,-25.0
1706292462.1054392,-32.0,9.0,-1.0,4.0,-1.0,4.0,12.0,-4.0
1706292462.1054392,9.0,8.0,2.0,-1.0,-4.0,-6.0,-3.0,4.0
1706292462.1153822,-12.0,-35.0,-3.0,6.0,-3.0,-2.0,-6.0,-3.0
1706292462.1153822,-6.0,40.0,11.0,-10.0,2.0,1.0,3.0,-6.0
1706292462.141692,15.0,-12.0,11.0,9.0,0.0,-1.0,-1.0,75.0
1706292462.141692,-6.0,0.0,-11.0,-1.0,4.0,1.0,-14.0,-86.0
1706292462.141692,12.0,-4.0,7.0,-14.0,-6.0,-3.0,7.0,-7.0
1706292462.141692,9.0,-2.0,-2.0,1.0,-3.0,-3.0,-9.0,-3.0
1706292462.1678085,-1.0,-25.0,-2.0,1.0,-3.0,-1.0,-4.0,-1.0
1706292462.1778078,-6.0,7.0,4.0,-3.0,2.0,0.0,3.0,26.0
1706292462.1778078,15.0,1.0,-5.0,-18.0,-6.0,-3.0,5.0,13.0
1706292462.1778078,6.0,-14.0,-3.0,7.0,-5.0,-8.0,-11.0,8.0
1706292462.1778078,-15.0,-20.0,-17.0,20.0,14.0,8.0,11.0,-12.0
1706292462.1778078,14.0,-2.0,-1.0,-15.0,-8.0,-5.0,-7.0,13.0
1706292462.1778078,-11.0,10.0,0.0,12.0,0.0,-2.0,-5.0,-22.0
1706292462.1778078,4.0,2.0,5.0,-8.0,-3.0,-4.0,-8.0,6.0
1706292462.1978204,-1.0,-14.0,-31.0,-10.0,-3.0,2.0,0.0,-7.0
1706292462.1978204,2.0,-6.0,7.0,9.0,4.0,2.0,7.0,11.0
1706292462.1978204,-15.0,1.0,-3.0,-9.0,-11.0,-6.0,2.0,-6.0
1706292462.1978204,-3.0,-5.0,4.0,7.0,11.0,-2.0,-32.0,8.0
1706292462.2278128,4.0,10.0,18.0,11.0,3.0,3.0,-4.0,-16.0
1706292462.2378075,9.0,-6.0,-9.0,-2.0,5.0,6.0,7.0,4.0
1706292462.2378075,-15.0,8.0,-2.0,1.0,1.0,-3.0,-8.0,3.0
1706292462.2378075,6.0,-8.0,2.0,-8.0,-10.0,-1.0,6.0,5.0
1706292462.2378075,1.0,32.0,-8.0,-12.0,-5.0,-6.0,-6.0,-16.0
1706292462.2378075,-10.0,0.0,-2.0,4.0,-1.0,-1.0,5.0,17.0
1706292462.2378075,21.0,48.0,2.0,-2.0,-3.0,-6.0,5.0,11.0
1706292462.2378075,-6.0,-10.0,3.0,-2.0,-1.0,-11.0,4.0,-19.0
1706292462.2578094,6.0,-1.0,3.0,-5.0,-4.0,21.0,-13.0,-3.0
1706292462.2578094,8.0,21.0,13.0,6.0,1.0,-5.0,6.0,6.0
1706292462.2578094,11.0,26.0,9.0,3.0,0.0,5.0,-5.0,-12.0
1706292462.2578094,-1.0,-58.0,-30.0,-7.0,-1.0,-7.0,-1.0,16.0
1706292462.287806,-3.0,27.0,8.0,-4.0,-5.0,-11.0,-10.0,-12.0
1706292462.287806,-17.0,-30.0,-9.0,1.0,2.0,4.0,2.0,6.0
1706292462.287806,-9.0,2.0,-32.0,-10.0,-4.0,-2.0,2.0,-3.0
1706292462.287806,4.0,37.0,15.0,-27.0,4.0,2.0,-3.0,-6.0
1706292462.2981505,-4.0,3.0,5.0,49.0,12.0,-2.0,3.0,-14.0
1706292462.2981505,-2.0,-6.0,4.0,-1.0,-3.0,-2.0,-6.0,0.0
1706292462.2981505,10.0,-3.0,21.0,6.0,2.0,0.0,-2.0,0.0
1706292462.2981505,11.0,7.0,-14.0,-4.0,-5.0,3.0,9.0,24.0
1706292462.318174,-2.0,-34.0,-8.0,-25.0,-8.0,-6.0,-7.0,15.0
1706292462.318174,-1.0,8.0,0.0,9.0,1.0,-5.0,-12.0,-36.0
1706292462.318174,-4.0,-26.0,-4.0,1.0,0.0,-5.0,-7.0,8.0
1706292462.318174,-5.0,1.0,4.0,8.0,0.0,13.0,12.0,-31.0
1706292462.3581696,5.0,4.0,7.0,-4.0,-1.0,1.0,12.0,29.0
1706292462.3581696,0.0,-3.0,-10.0,-4.0,-5.0,-3.0,-31.0,1.0
1706292462.3681672,0.0,-14.0,0.0,-10.0,-2.0,-8.0,24.0,3.0
1706292462.3681672,-6.0,8.0,12.0,11.0,0.0,13.0,12.0,1.0
1706292462.3681672,-5.0,0.0,-4.0,-9.0,-7.0,-11.0,-7.0,-15.0
1706292462.3681672,9.0,-4.0,-4.0,-11.0,-1.0,-5.0,7.0,11.0
1706292462.3681672,-13.0,21.0,14.0,4.0,-3.0,6.0,-1.0,-18.0
1706292462.3681672,2.0,-13.0,-22.0,0.0,-10.0,-9.0,1.0,23.0
1706292462.3681672,-2.0,-4.0,-9.0,1.0,11.0,3.0,-9.0,-25.0
1706292462.3681672,-8.0,-6.0,-1.0,-4.0,17.0,11.0,6.0,9.0
1706292462.3781707,7.0,-11.0,4.0,-13.0,0.0,-7.0,-12.0,-7.0
1706292462.3781707,-7.0,34.0,31.0,10.0,-10.0,-1.0,-2.0,-11.0
1706292462.3982,-5.0,-36.0,-43.0,-8.0,-2.0,-5.0,-9.0,-1.0
1706292462.3982,3.0,5.0,-3.0,22.0,3.0,-4.0,5.0,1.0
1706292462.3982,3.0,2.0,-12.0,-5.0,-1.0,9.0,0.0,-1.0
1706292462.3982,0.0,2.0,12.0,-9.0,-5.0,-4.0,-4.0,0.0
1706292462.4185805,-2.0,1.0,6.0,-18.0,-16.0,-8.0,-1.0,-4.0
1706292462.4185805,-14.0,-27.0,2.0,-11.0,-7.0,-2.0,0.0,-4.0
1706292462.4185805,7.0,-5.0,-8.0,6.0,2.0,4.0,6.0,10.0
1706292462.4185805,-10.0,-6.0,-4.0,3.0,1.0,-2.0,-10.0,-10.0
1706292462.4285035,-5.0,-11.0,8.0,1.0,3.0,-3.0,-7.0,-10.0
1706292462.4285035,-13.0,-7.0,-2.0,2.0,0.0,-1.0,24.0,2.0
1706292462.4381742,6.0,-4.0,-7.0,2.0,1.0,2.0,-42.0,15.0
1706292462.4381742,10.0,-11.0,-7.0,1.0,5.0,-6.0,-1.0,-10.0
1706292462.4583278,20.0,28.0,11.0,-4.0,0.0,-2.0,3.0,11.0
1706292462.4583278,-13.0,2.0,5.0,2.0,-1.0,2.0,5.0,0.0
1706292462.4583278,-20.0,-6.0,-4.0,0.0,-2.0,-1.0,9.0,3.0
1706292462.4583278,-5.0,25.0,4.0,3.0,5.0,-1.0,-3.0,14.0
1706292462.4784732,11.0,16.0,-7.0,-2.0,-1.0,3.0,-15.0,-24.0
1706292462.4784732,19.0,-2.0,10.0,2.0,-8.0,-5.0,-7.0,9.0
1706292462.4784732,-11.0,-15.0,-16.0,-9.0,1.0,3.0,18.0,-12.0
1706292462.4784732,-21.0,-23.0,-8.0,5.0,5.0,0.0,-3.0,1.0
1706292462.4881814,-27.0,6.0,13.0,1.0,-6.0,-6.0,3.0,-5.0
1706292462.4981763,14.0,11.0,-6.0,-5.0,-4.0,-2.0,-6.0,19.0
1706292462.4981763,-10.0,-15.0,-3.0,-2.0,-1.0,1.0,-2.0,-14.0
1706292462.4981763,12.0,-20.0,-9.0,-24.0,-4.0,-2.0,-9.0,-13.0
1706292462.5281715,-5.0,-31.0,28.0,38.0,-2.0,-4.0,-17.0,7.0
1706292462.5281715,15.0,28.0,-34.0,-8.0,9.0,4.0,23.0,2.0
1706292462.5281715,3.0,3.0,20.0,4.0,-2.0,-6.0,-16.0,-6.0
1706292462.5281715,6.0,-1.0,-8.0,4.0,0.0,2.0,-15.0,1.0
1706292462.5383945,-4.0,-16.0,-7.0,-26.0,6.0,5.0,7.0,1.0
1706292462.5383945,6.0,2.0,24.0,24.0,-2.0,-6.0,-18.0,-5.0
1706292462.5383945,-10.0,-12.0,-8.0,4.0,-1.0,3.0,-13.0,-1.0
1706292462.5383945,9.0,13.0,2.0,-7.0,-5.0,-2.0,10.0,-8.0
1706292462.5483966,0.0,-5.0,-21.0,-8.0,1.0,1.0,1.0,-22.0
1706292462.5483966,-14.0,9.0,-9.0,-5.0,-9.0,-23.0,11.0,60.0
1706292462.558177,-4.0,-11.0,-5.0,-10.0,-3.0,19.0,7.0,-31.0
1706292462.558177,-8.0,11.0,12.0,8.0,-1.0,0.0,2.0,-7.0
1706292462.5981688,-7.0,7.0,4.0,3.0,-3.0,-1.0,6.0,-3.0
1706292462.5981688,3.0,1.0,2.0,-4.0,-1.0,-2.0,5.0,-3.0
1706292462.5981688,5.0,-5.0,2.0,5.0,-2.0,9.0,12.0,20.0
1706292462.5981688,3.0,-12.0,-8.0,-1.0,2.0,-1.0,-4.0,1.0
1706292462.5981688,12.0,5.0,-4.0,1.0,-3.0,-9.0,2.0,-22.0
1706292462.5981688,-17.0,-7.0,-3.0,-7.0,-2.0,3.0,11.0,-18.0
1706292462.5981688,11.0,8.0,5.0,1.0,-1.0,-14.0,-39.0,6.0
1706292462.5981688,15.0,0.0,-4.0,5.0,0.0,-5.0,-3.0,1.0
1706292462.6084557,-24.0,4.0,-1.0,-8.0,3.0,25.0,29.0,13.0
1706292462.6084557,6.0,-15.0,6.0,-6.0,-12.0,-30.0,-37.0,-15.0
1706292462.628168,3.0,-2.0,-5.0,1.0,2.0,22.0,30.0,2.0
1706292462.628168,-5.0,0.0,1.0,3.0,2.0,-5.0,9.0,14.0
1706292462.6383832,15.0,0.0,14.0,2.0,-5.0,-3.0,-18.0,6.0
1706292462.6383832,-4.0,-2.0,-5.0,1.0,14.0,9.0,-3.0,-4.0
1706292462.6383832,-3.0,-31.0,-19.0,-7.0,3.0,-14.0,-5.0,8.0
1706292462.6383832,-14.0,69.0,21.0,-10.0,-5.0,-9.0,-14.0,-16.0
1706292462.6633973,-15.0,-26.0,-20.0,8.0,5.0,-1.0,10.0,5.0
1706292462.6633973,5.0,-1.0,9.0,-15.0,-7.0,14.0,-1.0,-10.0
1706292462.6644578,15.0,-7.0,9.0,38.0,4.0,-10.0,11.0,7.0
1706292462.6644578,-21.0,22.0,-5.0,-24.0,-13.0,2.0,-1.0,-13.0
1706292462.6857247,14.0,-18.0,-23.0,-7.0,-4.0,-4.0,-9.0,-10.0
1706292462.6857247,-1.0,20.0,5.0,-6.0,1.0,3.0,1.0,25.0
1706292462.6857247,7.0,-12.0,10.0,-8.0,-4.0,-5.0,10.0,9.0
1706292462.6857247,8.0,8.0,3.0,9.0,8.0,8.0,8.0,2.0
1706292462.695824,-17.0,-14.0,19.0,22.0,1.0,-2.0,-7.0,4.0
1706292462.695824,0.0,-11.0,-4.0,3.0,6.0,5.0,-1.0,-28.0
1706292462.695824,4.0,10.0,-12.0,-15.0,-6.0,-5.0,9.0,0.0
1706292462.695824,0.0,-12.0,9.0,6.0,-7.0,-2.0,5.0,5.0
1706292462.7160523,14.0,45.0,16.0,-24.0,-3.0,-8.0,0.0,9.0
1706292462.7160523,-6.0,-30.0,-19.0,-4.0,-4.0,5.0,8.0,-4.0
1706292462.7160523,-14.0,24.0,30.0,31.0,15.0,-1.0,-11.0,-19.0
1706292462.7160523,-6.0,-23.0,-14.0,-3.0,5.0,2.0,-1.0,-8.0
1706292462.736053,-9.0,-15.0,-32.0,1.0,-6.0,-3.0,-1.0,-6.0
1706292462.736053,13.0,6.0,30.0,-1.0,-8.0,-3.0,-1.0,17.0
1706292462.7557263,-6.0,-7.0,-50.0,-18.0,-9.0,-8.0,3.0,1.0
1706292462.7557263,15.0,17.0,-8.0,2.0,-1.0,-1.0,0.0,14.0
1706292462.765727,-3.0,7.0,12.0,-5.0,-2.0,-2.0,-6.0,-23.0
1706292462.765727,1.0,0.0,3.0,11.0,5.0,2.0,-6.0,-14.0
1706292462.765727,-17.0,-2.0,-10.0,-12.0,-2.0,-3.0,-7.0,-2.0
1706292462.765727,-18.0,0.0,6.0,7.0,3.0,-6.0,-39.0,5.0
1706292462.7759738,13.0,40.0,3.0,-1.0,1.0,13.0,17.0,18.0
1706292462.7759738,-32.0,-17.0,-9.0,-3.0,-3.0,-5.0,1.0,16.0
1706292462.7759738,1.0,-1.0,19.0,3.0,0.0,-16.0,-17.0,-68.0
1706292462.7759738,-7.0,-37.0,-17.0,-4.0,-5.0,2.0,12.0,33.0
1706292462.8057237,3.0,2.0,6.0,-5.0,-6.0,12.0,4.0,-9.0
1706292462.8057237,1.0,9.0,-4.0,4.0,4.0,-20.0,-2.0,-12.0
1706292462.8057237,0.0,-16.0,-7.0,-10.0,-10.0,17.0,1.0,12.0
1706292462.8057237,20.0,-7.0,11.0,7.0,5.0,2.0,3.0,-4.0
1706292462.816065,-39.0,-10.0,-21.0,-10.0,-2.0,-9.0,-2.0,-16.0
1706292462.816065,18.0,29.0,9.0,6.0,-3.0,-1.0,-5.0,10.0
1706292462.816065,25.0,-1.0,-1.0,-9.0,-6.0,-7.0,-3.0,21.0
1706292462.816065,-3.0,36.0,23.0,-3.0,0.0,1.0,13.0,-22.0
1706292462.856085,3.0,-27.0,-12.0,27.0,14.0,5.0,-7.0,47.0
1706292462.856085,-11.0,-10.0,-29.0,-16.0,-4.0,0.0,-11.0,-50.0
1706292462.856085,-14.0,-2.0,10.0,10.0,-4.0,-12.0,-8.0,7.0
1706292462.856085,3.0,-23.0,-12.0,0.0,-2.0,13.0,4.0,-9.0
1706292462.856085,2.0,-19.0,15.0,-21.0,-12.0,-17.0,-1.0,3.0
1706292462.856085,-10.0,22.0,5.0,6.0,4.0,11.0,5.0,3.0
1706292462.856085,-2.0,0.0,-10.0,3.0,2.0,-2.0,-13.0,5.0
1706292462.856085,-4.0,-4.0,-9.0,7.0,8.0,1.0,14.0,-18.0
1706292462.8762307,6.0,3.0,5.0,-9.0,-6.0,-9.0,-7.0,4.0
1706292462.8762307,-6.0,-10.0,-12.0,2.0,-5.0,1.0,-9.0,-17.0
1706292462.8762307,8.0,9.0,10.0,-3.0,5.0,-2.0,-33.0,13.0
1706292462.8762307,-21.0,14.0,-6.0,-2.0,-4.0,0.0,-5.0,-25.0
1706292462.9060812,15.0,-6.0,4.0,-2.0,1.0,-7.0,-4.0,-10.0
1706292462.9060812,17.0,-20.0,-8.0,-7.0,-3.0,3.0,-22.0,-3.0
1706292462.9060812,7.0,31.0,10.0,6.0,-2.0,0.0,13.0,-2.0
1706292462.9060812,3.0,-12.0,0.0,-9.0,2.0,2.0,5.0,15.0
1706292462.9161575,7.0,-35.0,-13.0,14.0,5.0,-1.0,-20.0,8.0
1706292462.9161575,-3.0,5.0,8.0,2.0,-2.0,-6.0,-11.0,-11.0
1706292462.926088,-6.0,2.0,-22.0,-22.0,-12.0,-3.0,13.0,1.0
1706292462.926088,18.0,6.0,-16.0,-3.0,0.0,-2.0,14.0,27.0
1706292462.9460864,0.0,-28.0,3.0,-2.0,7.0,0.0,-2.0,-33.0
1706292462.9460864,-11.0,-25.0,1.0,1.0,-1.0,-3.0,-1.0,6.0
1706292462.9460864,-10.0,-3.0,3.0,-14.0,-2.0,-8.0,4.0,-30.0
1706292462.9460864,-3.0,-18.0,5.0,-3.0,-7.0,8.0,-3.0,-2.0
1706292462.9660804,14.0,45.0,13.0,23.0,-3.0,-1.0,1.0,33.0
1706292462.9660804,-18.0,-12.0,-13.0,-4.0,0.0,-17.0,-8.0,-54.0
1706292462.9660804,-30.0,-33.0,-7.0,5.0,10.0,34.0,28.0,0.0
1706292462.9660804,17.0,-10.0,-6.0,-32.0,-12.0,-16.0,-7.0,3.0
1706292462.9761565,-15.0,12.0,-3.0,24.0,4.0,3.0,10.0,-13.0
1706292462.9761565,-1.0,12.0,11.0,-10.0,-4.0,3.0,5.0,18.0
1706292462.986087,6.0,1.0,-1.0,2.0,-1.0,-6.0,0.0,11.0
1706292462.986087,-9.0,-19.0,-3.0,-3.0,-3.0,-2.0,-3.0,-6.0
1706292463.016086,-19.0,7.0,1.0,-18.0,-5.0,1.0,12.0,-2.0
1706292463.016086,9.0,7.0,-3.0,11.0,4.0,-1.0,-25.0,0.0
1706292463.016086,-4.0,6.0,13.0,1.0,3.0,-4.0,19.0,14.0
1706292463.016086,-4.0,-18.0,-1.0,13.0,-2.0,-3.0,-6.0,-10.0
1706292463.016086,13.0,1.0,5.0,-7.0,-8.0,-3.0,-5.0,0.0
1706292463.016086,0.0,-1.0,-4.0,-4.0,-6.0,2.0,17.0,12.0
1706292463.016086,-2.0,-47.0,-32.0,-16.0,-4.0,3.0,-32.0,-9.0
1706292463.016086,3.0,23.0,26.0,17.0,16.0,2.0,-10.0,-3.0
1706292463.0362687,-5.0,-12.0,-6.0,-10.0,2.0,-13.0,0.0,-6.0
1706292463.0362687,2.0,13.0,-48.0,-10.0,-7.0,17.0,23.0,9.0
1706292463.0362687,14.0,28.0,10.0,-10.0,-8.0,-11.0,-3.0,3.0
1706292463.0362687,-6.0,-51.0,-5.0,4.0,-1.0,-4.0,4.0,-6.0
1706292463.066082,-33.0,27.0,-10.0,-15.0,-5.0,-3.0,-13.0,-11.0
1706292463.066082,9.0,-18.0,20.0,15.0,-5.0,-9.0,6.0,10.0
1706292463.066082,-8.0,-11.0,-19.0,-28.0,-2.0,6.0,5.0,-5.0
1706292463.066082,4.0,-7.0,-6.0,17.0,1.0,1.0,-6.0,-8.0
1706292463.0762787,-9.0,-17.0,9.0,-17.0,-1.0,-2.0,-2.0,-9.0
1706292463.0762787,-12.0,6.0,-4.0,4.0,-4.0,-3.0,5.0,21.0
1706292463.0762787,5.0,11.0,7.0,19.0,2.0,3.0,5.0,-2.0
1706292463.0762787,-14.0,-5.0,20.0,-2.0,-3.0,-5.0,-6.0,-2.0
1706292463.1060877,27.0,15.0,-18.0,-27.0,-5.0,8.0,20.0,12.0
1706292463.1060877,3.0,4.0,14.0,1.0,5.0,3.0,2.0,-7.0
1706292463.1060877,-14.0,16.0,22.0,6.0,1.0,-9.0,-9.0,-2.0
1706292463.1060877,11.0,20.0,-12.0,-10.0,-3.0,-2.0,-6.0,4.0
1706292463.136084,-3.0,10.0,8.0,14.0,1.0,4.0,0.0,1.0
1706292463.136084,-2.0,2.0,14.0,-3.0,0.0,5.0,2.0,-5.0
1706292463.136084,8.0,-15.0,-5.0,4.0,-4.0,-5.0,11.0,22.0
1706292463.136084,-30.0,0.0,-14.0,-1.0,-2.0,-4.0,-14.0,-1.0
1706292463.136084,15.0,31.0,21.0,1.0,-3.0,-8.0,1.0,15.0
1706292463.136084,-24.0,-62.0,-25.0,-13.0,-4.0,-4.0,-9.0,-12.0
1706292463.1460817,11.0,-23.0,2.0,7.0,3.0,-11.0,-20.0,-33.0
1706292463.1460817,3.0,17.0,-10.0,-1.0,-2.0,5.0,-2.0,7.0
1706292463.1660874,4.0,-9.0,3.0,7.0,2.0,-5.0,20.0,21.0
1706292463.1660874,-3.0,27.0,11.0,1.0,2.0,6.0,18.0,-11.0
1706292463.1660874,-14.0,20.0,5.0,6.0,0.0,-6.0,7.0,40.0
1706292463.1660874,-10.0,-4.0,2.0,-1.0,-3.0,-2.0,-2.0,-12.0
1706292463.199865,22.0,2.0,-3.0,-17.0,-14.0,-14.0,-17.0,2.0
1706292463.199865,6.0,-13.0,-7.0,16.0,6.0,-3.0,-10.0,5.0
1706292463.2018619,-22.0,17.0,10.0,9.0,16.0,6.0,3.0,-17.0
1706292463.2018619,16.0,-8.0,-11.0,-37.0,3.0,10.0,16.0,17.0
1706292463.2018619,-20.0,-18.0,1.0,66.0,21.0,7.0,-10.0,-9.0
1706292463.2018619,16.0,49.0,19.0,12.0,2.0,5.0,5.0,-7.0
1706292463.203885,-16.0,-29.0,3.0,-3.0,-8.0,-2.0,-5.0,-2.0
1706292463.203885,-3.0,-22.0,-31.0,-16.0,6.0,-10.0,-1.0,-2.0
1706292463.216644,14.0,16.0,-23.0,-20.0,-1.0,8.0,-2.0,-9.0
1706292463.216644,-8.0,-51.0,-6.0,-6.0,-15.0,-11.0,-9.0,0.0
1706292463.2266443,17.0,35.0,25.0,5.0,2.0,3.0,14.0,5.0
1706292463.2266443,-22.0,-26.0,-50.0,3.0,-2.0,0.0,-2.0,5.0
1706292463.2367136,-7.0,8.0,6.0,1.0,-7.0,0.0,15.0,-8.0
1706292463.2367136,12.0,-6.0,-15.0,-10.0,8.0,2.0,-5.0,8.0
1706292463.2466466,14.0,37.0,14.0,-1.0,-6.0,1.0,-8.0,-7.0
1706292463.2466466,-2.0,-13.0,18.0,14.0,-4.0,-2.0,11.0,-7.0
1706292463.2570422,-9.0,-19.0,-22.0,-11.0,0.0,2.0,0.0,10.0
1706292463.2570422,-5.0,-2.0,8.0,-9.0,2.0,0.0,10.0,13.0
1706292463.2570422,2.0,-6.0,-1.0,9.0,-2.0,0.0,-3.0,-5.0
1706292463.2570422,9.0,14.0,3.0,-2.0,-6.0,-6.0,-2.0,3.0
1706292463.2866464,-1.0,2.0,11.0,8.0,8.0,4.0,-5.0,-12.0
1706292463.2866464,-6.0,23.0,-15.0,-11.0,1.0,4.0,3.0,11.0
1706292463.2866464,-7.0,-18.0,25.0,2.0,-2.0,-3.0,-2.0,12.0
1706292463.2866464,16.0,21.0,-12.0,1.0,-6.0,-3.0,-10.0,-17.0
1706292463.2966704,11.0,-21.0,4.0,-6.0,-4.0,0.0,-5.0,8.0
1706292463.2966704,-4.0,14.0,-20.0,-9.0,2.0,-1.0,19.0,-12.0
1706292463.2966704,-4.0,8.0,6.0,-5.0,-1.0,-4.0,-12.0,19.0
1706292463.3066475,4.0,14.0,25.0,5.0,0.0,3.0,17.0,13.0
1706292463.3169796,11.0,-7.0,8.0,-4.0,1.0,1.0,-10.0,-7.0
1706292463.3169796,-1.0,-2.0,18.0,5.0,0.0,-2.0,2.0,4.0
1706292463.3169796,4.0,-1.0,-18.0,-1.0,-3.0,-8.0,0.0,8.0
1706292463.3169796,3.0,0.0,12.0,1.0,-1.0,23.0,0.0,-15.0
1706292463.3369908,-31.0,-10.0,-15.0,-3.0,-2.0,-8.0,-24.0,-16.0
1706292463.3369908,10.0,15.0,13.0,2.0,-4.0,-11.0,-8.0,-11.0
1706292463.3466494,6.0,37.0,-9.0,-5.0,-13.0,-14.0,-12.0,-1.0
1706292463.3466494,-17.0,-36.0,-7.0,-9.0,10.0,-5.0,-25.0,-2.0
1706292463.3766446,9.0,3.0,4.0,20.0,6.0,11.0,17.0,6.0
1706292463.3766446,4.0,28.0,16.0,7.0,4.0,7.0,2.0,6.0
1706292463.3866427,-1.0,-9.0,-4.0,-3.0,-5.0,-3.0,-1.0,-23.0
1706292463.3866427,-8.0,-29.0,-32.0,-5.0,-7.0,-10.0,8.0,16.0
1706292463.3866427,-1.0,18.0,10.0,-16.0,-1.0,1.0,2.0,-8.0
1706292463.3866427,8.0,13.0,0.0,-5.0,-8.0,-7.0,-10.0,-7.0
1706292463.3866427,4.0,24.0,6.0,-9.0,-6.0,7.0,12.0,4.0
1706292463.3866427,9.0,-23.0,7.0,21.0,7.0,-1.0,-6.0,-12.0
1706292463.406644,11.0,27.0,43.0,12.0,-5.0,-3.0,-1.0,5.0
1706292463.406644,-13.0,2.0,-95.0,-32.0,-12.0,-3.0,-9.0,-6.0
1706292463.406644,17.0,-10.0,-34.0,-20.0,8.0,10.0,2.0,0.0
1706292463.406644,-2.0,1.0,58.0,9.0,-2.0,-8.0,-4.0,-5.0
1706292463.4270864,-5.0,-46.0,-76.0,-14.0,-7.0,-10.0,-3.0,-9.0
1706292463.4270864,11.0,23.0,28.0,2.0,-3.0,1.0,0.0,11.0
1706292463.4270864,-13.0,-12.0,7.0,-4.0,2.0,7.0,17.0,4.0
1706292463.4270864,6.0,20.0,0.0,15.0,4.0,-3.0,-2.0,-8.0
1706292463.4370527,-1.0,-21.0,31.0,-3.0,-6.0,-3.0,-11.0,1.0
1706292463.4370527,10.0,-9.0,10.0,2.0,0.0,-3.0,-2.0,-13.0
1706292463.4370527,-4.0,-42.0,-32.0,-16.0,3.0,0.0,14.0,-10.0
1706292463.4370527,-14.0,22.0,18.0,33.0,2.0,1.0,-3.0,-3.0
1706292463.4666445,-11.0,4.0,10.0,-9.0,-8.0,-6.0,-18.0,-5.0
1706292463.4666445,-7.0,-42.0,-55.0,2.0,6.0,6.0,4.0,-4.0
1706292463.4666445,5.0,8.0,25.0,7.0,-2.0,1.0,-1.0,-6.0
1706292463.4666445,8.0,-3.0,-21.0,-16.0,0.0,-5.0,6.0,7.0
1706292463.4766748,-10.0,7.0,-15.0,-2.0,4.0,-18.0,-16.0,-18.0
1706292463.4766748,-4.0,4.0,43.0,9.0,-2.0,19.0,14.0,6.0
1706292463.4866462,-2.0,-17.0,-22.0,4.0,0.0,0.0,-4.0,-7.0
1706292463.4866462,-4.0,7.0,-6.0,-18.0,-9.0,-14.0,-7.0,7.0
1706292463.4970772,-2.0,8.0,13.0,5.0,-2.0,7.0,14.0,-4.0
1706292463.4970772,5.0,-26.0,12.0,-2.0,1.0,-13.0,-4.0,5.0
1706292463.4970772,-12.0,12.0,-9.0,1.0,1.0,-3.0,-30.0,-31.0
1706292463.4970772,0.0,13.0,-22.0,-6.0,-7.0,21.0,34.0,-1.0
1706292463.5166457,-9.0,2.0,-2.0,-7.0,3.0,1.0,0.0,9.0
1706292463.5166457,-3.0,-13.0,-11.0,-7.0,-2.0,0.0,6.0,12.0
1706292463.526643,-6.0,18.0,9.0,25.0,4.0,-4.0,-21.0,-15.0
1706292463.526643,5.0,14.0,28.0,-17.0,-4.0,-10.0,-11.0,-4.0
1706292463.5370743,-18.0,-44.0,-38.0,-9.0,0.0,0.0,6.0,-6.0
1706292463.5370743,-1.0,20.0,27.0,16.0,-6.0,1.0,-1.0,11.0
1706292463.5466452,-6.0,-35.0,0.0,-5.0,6.0,-3.0,1.0,12.0
1706292463.5466452,-7.0,-10.0,-8.0,13.0,-4.0,-6.0,-11.0,-3.0
1706292463.557072,2.0,-1.0,-13.0,-6.0,-4.0,5.0,9.0,3.0
1706292463.557072,-13.0,-37.0,-30.0,-8.0,-2.0,-4.0,1.0,-8.0
1706292463.557072,8.0,12.0,35.0,11.0,-8.0,-3.0,-35.0,1.0
1706292463.557072,1.0,-12.0,-17.0,-8.0,4.0,4.0,-3.0,2.0
1706292463.576645,-4.0,-5.0,1.0,-18.0,-6.0,8.0,38.0,-2.0
1706292463.576645,-19.0,-40.0,0.0,-3.0,-3.0,-48.0,-56.0,-2.0
1706292463.58665,5.0,-3.0,-7.0,0.0,3.0,63.0,76.0,12.0
1706292463.58665,1.0,-15.0,-3.0,-10.0,-5.0,-13.0,-31.0,-32.0
1706292463.5969412,-3.0,29.0,0.0,8.0,0.0,-9.0,11.0,22.0
1706292463.5969412,1.0,-19.0,21.0,-3.0,0.0,11.0,1.0,-11.0
1706292463.6069536,3.0,32.0,11.0,8.0,5.0,-6.0,10.0,-16.0
1706292463.6069536,-7.0,-27.0,-13.0,-7.0,-4.0,-6.0,-19.0,3.0
1706292463.6169493,-28.0,-52.0,3.0,5.0,3.0,5.0,-1.0,-4.0
1706292463.6169493,-3.0,14.0,-3.0,-3.0,-3.0,-2.0,2.0,11.0
1706292463.6169493,-16.0,15.0,4.0,-5.0,-1.0,-12.0,-7.0,10.0
1706292463.6169493,2.0,1.0,-2.0,2.0,0.0,9.0,13.0,-1.0
1706292463.6466455,11.0,54.0,31.0,14.0,-5.0,-13.0,-22.0,3.0
1706292463.6466455,-5.0,-2.0,-7.0,-7.0,5.0,10.0,7.0,-12.0
1706292463.6466455,7.0,-15.0,-6.0,0.0,-2.0,-7.0,7.0,7.0
1706292463.6466455,4.0,32.0,19.0,-4.0,-8.0,-8.0,-27.0,1.0
1706292463.6566796,13.0,-11.0,-16.0,-9.0,-2.0,6.0,11.0,9.0
1706292463.6566796,-4.0,1.0,14.0,-17.0,-6.0,3.0,-12.0,-15.0
1706292463.6669266,1.0,-25.0,-48.0,21.0,10.0,-3.0,-1.0,-8.0
1706292463.6669266,-12.0,-26.0,6.0,-19.0,-1.0,2.0,8.0,15.0
1706292463.6766627,27.0,16.0,4.0,11.0,0.0,2.0,-1.0,11.0
1706292463.6766627,1.0,23.0,31.0,-21.0,-5.0,7.0,-7.0,-21.0
1706292463.6766627,-7.0,-2.0,-37.0,-13.0,-14.0,-21.0,-21.0,-6.0
1706292463.6766627,-10.0,-10.0,-34.0,-12.0,0.0,1.0,7.0,1.0
1706292463.6969132,5.0,-13.0,-7.0,-14.0,-7.0,-2.0,-30.0,-14.0
1706292463.6969132,12.0,15.0,26.0,21.0,8.0,2.0,8.0,4.0
1706292463.7067342,-8.0,-5.0,11.0,-7.0,-1.0,-4.0,5.0,3.0
1706292463.7067342,-9.0,20.0,17.0,17.0,6.0,2.0,-1.0,12.0
1706292463.7217846,2.0,5.0,-26.0,-12.0,-1.0,5.0,4.0,-13.0
1706292463.7217846,13.0,1.0,-12.0,10.0,3.0,1.0,15.0,14.0
1706292463.7281456,-14.0,-9.0,9.0,1.0,-1.0,-3.0,-12.0,3.0
1706292463.7281456,4.0,7.0,31.0,8.0,-3.0,-6.0,3.0,2.0
1706292463.7432745,-8.0,-5.0,-15.0,7.0,7.0,-3.0,2.0,-11.0
1706292463.7432745,-4.0,19.0,-9.0,0.0,4.0,-2.0,-28.0,4.0
1706292463.7442725,20.0,0.0,-1.0,-14.0,-6.0,-5.0,-12.0,-5.0
1706292463.7442725,14.0,12.0,1.0,3.0,2.0,5.0,13.0,2.0
1706292463.769571,-19.0,-5.0,12.0,2.0,-8.0,-19.0,-5.0,13.0
1706292463.769571,-6.0,-8.0,-6.0,4.0,-2.0,9.0,6.0,-22.0
1706292463.769571,-4.0,-2.0,7.0,-6.0,0.0,-16.0,-18.0,-15.0
1706292463.769571,28.0,21.0,1.0,5.0,-5.0,6.0,12.0,12.0
1706292463.769571,8.0,17.0,9.0,-1.0,7.0,-5.0,-38.0,19.0
1706292463.769571,-15.0,-15.0,-41.0,-13.0,-13.0,0.0,30.0,-49.0
1706292463.7799013,17.0,7.0,19.0,3.0,-1.0,-15.0,-12.0,-9.0
1706292463.7799013,4.0,-4.0,-6.0,-4.0,3.0,1.0,-1.0,-7.0
1706292463.8000016,-8.0,4.0,0.0,-3.0,-2.0,-5.0,-10.0,-23.0
1706292463.8000016,13.0,2.0,13.0,4.0,3.0,6.0,21.0,38.0
1706292463.8000016,-8.0,-7.0,-4.0,-3.0,-4.0,4.0,7.0,9.0
1706292463.8000016,1.0,12.0,12.0,-13.0,-8.0,-4.0,2.0,-14.0
1706292463.8195984,-1.0,-5.0,7.0,-3.0,-2.0,2.0,8.0,10.0
1706292463.8195984,-11.0,-53.0,-17.0,7.0,-2.0,-4.0,-20.0,-1.0
1706292463.8195984,16.0,43.0,93.0,42.0,6.0,12.0,34.0,13.0
1706292463.8195984,-32.0,-65.0,-104.0,-20.0,0.0,-15.0,-9.0,-6.0
1706292463.8299303,11.0,-5.0,32.0,-2.0,9.0,12.0,12.0,3.0
1706292463.8299303,-2.0,51.0,25.0,11.0,2.0,-2.0,-37.0,-19.0
1706292463.849565,3.0,43.0,66.0,-67.0,-26.0,-12.0,16.0,28.0
1706292463.849565,-9.0,7.0,-42.0,36.0,22.0,12.0,6.0,9.0
1706292463.8597934,-25.0,-56.0,-21.0,33.0,-16.0,-4.0,11.0,-17.0
1706292463.8597934,-2.0,26.0,-34.0,-46.0,-3.0,-2.0,-8.0,-27.0
1706292463.8597934,-2.0,28.0,3.0,30.0,31.0,8.0,-2.0,12.0
1706292463.8597934,17.0,13.0,36.0,22.0,6.0,3.0,-1.0,31.0
1706292463.8895688,6.0,27.0,6.0,-4.0,-5.0,0.0,-5.0,-29.0
1706292463.8895688,9.0,14.0,-6.0,-28.0,-14.0,2.0,13.0,18.0
1706292463.8895688,-3.0,-24.0,-28.0,-2.0,-14.0,-9.0,-82.0,-41.0
1706292463.8895688,-7.0,16.0,38.0,-8.0,4.0,2.0,50.0,70.0
1706292463.8996189,-1.0,-18.0,-23.0,-4.0,-3.0,0.0,-77.0,-57.0
1706292463.8996189,-6.0,-16.0,55.0,11.0,5.0,-2.0,8.0,44.0
1706292463.9095647,-7.0,-19.0,-71.0,-10.0,-8.0,-21.0,-22.0,-7.0
1706292463.9095647,0.0,-19.0,9.0,-8.0,-8.0,1.0,-5.0,-7.0
1706292463.919823,8.0,23.0,24.0,-5.0,9.0,9.0,5.0,-22.0
1706292463.919823,3.0,7.0,10.0,8.0,1.0,-2.0,0.0,-12.0
1706292463.919823,-9.0,-28.0,-29.0,7.0,0.0,4.0,4.0,11.0
1706292463.919823,0.0,17.0,35.0,-21.0,-7.0,-15.0,-9.0,-8.0
1706292463.9399128,-6.0,2.0,8.0,31.0,5.0,-1.0,22.0,13.0
1706292463.9399128,7.0,-14.0,-73.0,0.0,4.0,6.0,7.0,21.0
1706292463.9399128,-4.0,-11.0,-5.0,10.0,2.0,6.0,19.0,-3.0
1706292463.9399128,-6.0,1.0,26.0,0.0,-4.0,-9.0,-30.0,-41.0
1706292463.9595737,11.0,-2.0,-88.0,-47.0,-9.0,12.0,37.0,28.0
1706292463.9595737,-9.0,-10.0,15.0,23.0,-1.0,-28.0,-13.0,-28.0
1706292463.9795637,0.0,-14.0,12.0,1.0,5.0,10.0,27.0,23.0
1706292463.9795637,-16.0,0.0,-14.0,-7.0,-3.0,2.0,0.0,-12.0
1706292463.9795637,14.0,-3.0,24.0,-7.0,0.0,10.0,-3.0,-6.0
1706292463.9795637,5.0,10.0,1.0,13.0,1.0,-14.0,53.0,69.0
1706292463.9795637,-12.0,-15.0,-13.0,-27.0,-8.0,16.0,0.0,-73.0
1706292463.9795637,6.0,5.0,-14.0,4.0,-8.0,1.0,10.0,23.0
1706292463.9995663,-9.0,-2.0,-45.0,-8.0,5.0,-8.0,-2.0,5.0
1706292463.9995663,2.0,5.0,20.0,-3.0,2.0,9.0,7.0,0.0
1706292463.9995663,-3.0,1.0,33.0,-1.0,-1.0,-4.0,7.0,21.0
1706292463.9995663,-3.0,-12.0,1.0,-1.0,1.0,-1.0,-20.0,-46.0
1706292464.0195653,12.0,25.0,-16.0,39.0,7.0,-2.0,20.0,47.0
1706292464.0195653,5.0,0.0,72.0,13.0,2.0,-2.0,-10.0,-13.0
1706292464.0195653,-11.0,-34.0,-98.0,-28.0,-9.0,-6.0,-1.0,17.0
1706292464.0195653,1.0,12.0,51.0,-13.0,-1.0,1.0,-8.0,-29.0
1706292464.0400226,-11.0,-18.0,-21.0,-21.0,-10.0,-12.0,-4.0,-6.0
1706292464.0400226,-1.0,9.0,18.0,5.0,0.0,-1.0,-6.0,3.0
1706292464.0400226,2.0,24.0,28.0,15.0,6.0,6.0,-11.0,2.0
1706292464.0495675,-6.0,-19.0,12.0,-11.0,-2.0,-2.0,0.0,4.0
1706292464.0695646,-2.0,23.0,-13.0,-6.0,-9.0,1.0,10.0,0.0
1706292464.0695646,-2.0,-31.0,-77.0,-8.0,11.0,2.0,34.0,7.0
1706292464.0695646,-6.0,-13.0,44.0,4.0,-9.0,-13.0,-15.0,-32.0
1706292464.0695646,3.0,10.0,-41.0,7.0,-1.0,8.0,15.0,-12.0
1706292464.0797994,-5.0,-4.0,50.0,-37.0,8.0,-2.0,-26.0,16.0
1706292464.0797994,2.0,3.0,8.0,30.0,-4.0,-1.0,-20.0,-14.0
1706292464.0895705,-8.0,0.0,-16.0,0.0,4.0,-5.0,31.0,19.0
1706292464.0895705,2.0,8.0,32.0,11.0,1.0,4.0,11.0,15.0
1706292464.099906,0.0,2.0,30.0,13.0,-6.0,-7.0,-3.0,-9.0
1706292464.099906,-1.0,11.0,-12.0,-19.0,-3.0,1.0,-13.0,-13.0
1706292464.1095698,-1.0,-45.0,-37.0,-43.0,-18.0,-9.0,-3.0,7.0
1706292464.1095698,1.0,5.0,-1.0,39.0,9.0,2.0,-9.0,-6.0
1706292464.1395664,-5.0,-24.0,-19.0,1.0,16.0,8.0,9.0,4.0
1706292464.1395664,-4.0,9.0,13.0,-8.0,-1.0,1.0,-4.0,-7.0
1706292464.1495652,10.0,23.0,13.0,16.0,-1.0,-1.0,-5.0,2.0
1706292464.1495652,-10.0,-19.0,-3.0,-8.0,-7.0,-6.0,-7.0,-5.0
1706292464.1495652,-2.0,-8.0,-36.0,-14.0,-10.0,-8.0,0.0,-6.0
1706292464.1495652,-3.0,-5.0,9.0,6.0,-4.0,1.0,-10.0,2.0
1706292464.1495652,6.0,22.0,16.0,-4.0,-3.0,4.0,-3.0,6.0
1706292464.1495652,8.0,-15.0,-25.0,1.0,6.0,-5.0,-4.0,-9.0
1706292464.1598413,12.0,39.0,71.0,25.0,16.0,10.0,14.0,10.0
1706292464.1598413,-24.0,-31.0,-12.0,0.0,-5.0,1.0,-15.0,-12.0
1706292464.1598413,-7.0,-10.0,-21.0,-2.0,-1.0,-5.0,-5.0,-1.0
1706292464.1695774,-1.0,-9.0,-9.0,-5.0,-10.0,-11.0,-2.0,-10.0
1706292464.1995661,35.0,9.0,7.0,-15.0,-3.0,4.0,4.0,9.0
1706292464.1995661,-6.0,14.0,9.0,0.0,10.0,2.0,1.0,0.0
1706292464.1995661,5.0,-3.0,-15.0,-11.0,1.0,1.0,12.0,9.0
1706292464.1995661,-19.0,9.0,5.0,15.0,0.0,2.0,-9.0,-16.0
1706292464.1995661,-13.0,-19.0,13.0,0.0,-15.0,-22.0,-21.0,-8.0
1706292464.1995661,20.0,-25.0,-6.0,7.0,-2.0,-1.0,-8.0,-3.0
1706292464.1995661,4.0,-30.0,11.0,11.0,4.0,3.0,6.0,0.0
1706292464.1995661,2.0,50.0,-16.0,-13.0,-5.0,-1.0,-1.0,4.0
1706292464.2199922,10.0,-7.0,4.0,-1.0,5.0,4.0,14.0,7.0
1706292464.2199922,28.0,-1.0,-11.0,-1.0,-2.0,-1.0,-2.0,5.0
1706292464.2199922,-53.0,6.0,19.0,8.0,6.0,1.0,-6.0,-6.0
1706292464.2199922,5.0,-9.0,-13.0,-14.0,0.0,0.0,-7.0,-1.0
1706292464.2540004,-2.0,-7.0,26.0,4.0,-4.0,-3.0,3.0,2.0
1706292464.2540004,3.0,11.0,-9.0,-1.0,-1.0,-3.0,-3.0,1.0
1706292464.2540004,11.0,11.0,-17.0,-6.0,-3.0,-2.0,1.0,-6.0
1706292464.2540004,-3.0,-28.0,-19.0,-5.0,-9.0,-5.0,-12.0,4.0
1706292464.2679558,-18.0,2.0,19.0,9.0,7.0,5.0,1.0,-6.0
1706292464.2679558,-9.0,-7.0,39.0,17.0,-5.0,-2.0,-1.0,-2.0
1706292464.2689087,7.0,-7.0,-28.0,-7.0,11.0,8.0,12.0,4.0
1706292464.2689087,-2.0,-2.0,3.0,-4.0,-6.0,-13.0,-20.0,-1.0
1706292464.2825916,7.0,30.0,-15.0,-11.0,-4.0,1.0,13.0,7.0
1706292464.2825916,-25.0,-14.0,-21.0,-10.0,-1.0,4.0,-12.0,-33.0
1706292464.2825916,9.0,-16.0,23.0,9.0,2.0,-1.0,19.0,28.0
1706292464.2825916,-4.0,-23.0,-5.0,-6.0,0.0,-20.0,-14.0,-18.0
1706292464.3025913,-11.0,-8.0,7.0,7.0,-4.0,14.0,3.0,2.0
1706292464.3025913,7.0,43.0,9.0,10.0,4.0,-7.0,13.0,13.0
1706292464.3025913,-1.0,20.0,2.0,2.0,-1.0,-5.0,-19.0,-12.0
1706292464.3025913,13.0,11.0,18.0,0.0,7.0,11.0,18.0,-6.0
1706292464.3229299,8.0,0.0,-13.0,-11.0,-10.0,-22.0,-12.0,25.0
1706292464.3229299,8.0,-1.0,5.0,-4.0,-1.0,5.0,14.0,7.0
1706292464.3229299,-12.0,13.0,-15.0,-1.0,4.0,6.0,-2.0,25.0
1706292464.3229299,-7.0,-7.0,6.0,-3.0,-2.0,-7.0,-74.0,-48.0
1706292464.3425896,-9.0,-2.0,8.0,3.0,4.0,24.0,40.0,-9.0
1706292464.3425896,-2.0,-6.0,-5.0,-12.0,-11.0,-7.0,-7.0,-9.0
1706292464.3425896,12.0,2.0,-20.0,7.0,0.0,-2.0,-17.0,-3.0
1706292464.3425896,5.0,2.0,-12.0,-7.0,5.0,-9.0,31.0,31.0
1706292464.362639,-2.0,-3.0,-3.0,8.0,-2.0,-6.0,-16.0,-5.0
1706292464.362639,-19.0,-35.0,1.0,-3.0,4.0,2.0,-15.0,-3.0
1706292464.362639,22.0,-4.0,7.0,6.0,-2.0,-6.0,3.0,-10.0
1706292464.362639,-14.0,27.0,9.0,1.0,-5.0,9.0,10.0,13.0
1706292464.3829207,1.0,-15.0,-8.0,-16.0,-4.0,-28.0,-19.0,-18.0
1706292464.3829207,-2.0,-14.0,-14.0,5.0,-3.0,28.0,23.0,7.0
1706292464.3829207,-9.0,10.0,10.0,-26.0,-13.0,-17.0,-29.0,-21.0
1706292464.3829207,10.0,-21.0,-1.0,36.0,16.0,13.0,21.0,3.0
1706292464.4025939,-16.0,-30.0,-21.0,0.0,-6.0,-6.0,-8.0,-1.0
1706292464.4025939,4.0,30.0,10.0,-21.0,-5.0,-11.0,11.0,16.0
1706292464.4025939,4.0,-8.0,-2.0,2.0,-1.0,-3.0,3.0,-22.0
1706292464.4025939,-3.0,-26.0,3.0,4.0,0.0,9.0,10.0,-12.0
1706292464.4225886,-4.0,14.0,0.0,-4.0,-2.0,0.0,-11.0,2.0
1706292464.4225886,-1.0,14.0,22.0,4.0,6.0,-6.0,13.0,-29.0
1706292464.4225886,7.0,-29.0,-35.0,-3.0,-5.0,2.0,-30.0,67.0
1706292464.4225886,8.0,7.0,21.0,-15.0,-7.0,12.0,36.0,11.0
1706292464.4429238,8.0,21.0,44.0,20.0,9.0,-3.0,-39.0,-82.0
1706292464.4429238,0.0,-27.0,-61.0,-15.0,-3.0,6.0,-18.0,4.0
1706292464.4429238,-12.0,-5.0,45.0,15.0,-1.0,-21.0,8.0,-24.0
1706292464.4429238,3.0,19.0,11.0,-2.0,-1.0,11.0,32.0,26.0
1706292464.462593,-9.0,-1.0,-3.0,-7.0,-3.0,23.0,-30.0,-11.0
1706292464.462593,8.0,21.0,1.0,4.0,-2.0,-11.0,4.0,19.0
1706292464.462593,0.0,1.0,-9.0,1.0,6.0,7.0,5.0,-18.0
1706292464.462593,4.0,-15.0,-22.0,-4.0,-4.0,-18.0,11.0,22.0
1706292464.4925869,7.0,27.0,30.0,4.0,0.0,-6.0,3.0,2.0
1706292464.4925869,-5.0,-20.0,-14.0,-17.0,1.0,0.0,10.0,6.0
1706292464.4925869,13.0,13.0,-17.0,18.0,1.0,5.0,-15.0,-15.0
1706292464.4925869,7.0,22.0,7.0,-9.0,-4.0,-4.0,-11.0,-5.0
1706292464.5029702,-38.0,2.0,-11.0,-4.0,1.0,1.0,17.0,29.0
1706292464.5029702,1.0,-11.0,12.0,0.0,1.0,-4.0,-6.0,-4.0
1706292464.5029702,-2.0,-29.0,-32.0,10.0,-2.0,7.0,20.0,9.0
1706292464.5029702,2.0,72.0,32.0,9.0,-1.0,-3.0,-18.0,-12.0
1706292464.522588,7.0,-11.0,-18.0,4.0,1.0,2.0,4.0,17.0
1706292464.522588,-5.0,19.0,72.0,14.0,9.0,-3.0,-10.0,15.0
1706292464.522588,-14.0,-7.0,-45.0,-30.0,-3.0,-10.0,0.0,0.0
1706292464.522588,1.0,-34.0,16.0,-9.0,-4.0,7.0,-10.0,-37.0
1706292464.5429318,-13.0,-14.0,-25.0,-8.0,-10.0,-3.0,19.0,17.0
1706292464.5429318,8.0,56.0,12.0,3.0,-2.0,-4.0,-33.0,-27.0
1706292464.5429318,8.0,39.0,26.0,7.0,-4.0,6.0,4.0,4.0
1706292464.5429318,1.0,5.0,4.0,-6.0,-4.0,-10.0,22.0,32.0
1706292464.5628831,-3.0,-21.0,-36.0,-6.0,-2.0,-14.0,-37.0,-19.0
1706292464.5628831,-1.0,-16.0,7.0,4.0,-1.0,8.0,38.0,18.0
1706292464.5628831,4.0,6.0,10.0,1.0,2.0,6.0,-19.0,-26.0
1706292464.5628831,-17.0,-15.0,-34.0,-3.0,-1.0,-3.0,-41.0,-2.0
1706292464.5925891,2.0,-3.0,22.0,-1.0,-2.0,-1.0,38.0,-4.0
1706292464.5925891,16.0,-16.0,-40.0,0.0,-6.0,-17.0,-15.0,27.0
1706292464.5925891,-2.0,23.0,29.0,8.0,9.0,18.0,12.0,-20.0
1706292464.5925891,-16.0,-17.0,-12.0,-20.0,-6.0,-4.0,-6.0,0.0
1706292464.6026216,-1.0,-14.0,-6.0,7.0,-3.0,-1.0,-4.0,10.0
1706292464.6026216,1.0,2.0,-15.0,-8.0,-3.0,-5.0,-15.0,-14.0
1706292464.6026216,3.0,-11.0,-2.0,-11.0,-5.0,-4.0,14.0,30.0
1706292464.6026216,2.0,-27.0,9.0,-19.0,5.0,3.0,-8.0,-9.0
1706292464.6230373,3.0,58.0,-12.0,19.0,4.0,-1.0,5.0,3.0
1706292464.6230373,-10.0,-5.0,12.0,-1.0,-6.0,-3.0,-2.0,-12.0
1706292464.6230373,3.0,-19.0,13.0,5.0,0.0,0.0,2.0,-6.0
1706292464.6230373,-5.0,-15.0,-29.0,-7.0,-6.0,-3.0,-3.0,-5.0
1706292464.6425877,19.0,34.0,57.0,-1.0,-1.0,1.0,16.0,24.0
1706292464.6425877,-22.0,-16.0,-76.0,-23.0,-12.0,-9.0,-56.0,-44.0
1706292464.6425877,-5.0,-22.0,-31.0,-11.0,-1.0,-2.0,3.0,6.0
1706292464.6425877,-1.0,-12.0,-10.0,8.0,-1.0,3.0,4.0,13.0
1706292464.6625926,3.0,-8.0,-8.0,-8.0,0.0,-11.0,-13.0,28.0
1706292464.6625926,10.0,-34.0,28.0,12.0,2.0,-7.0,-6.0,-77.0
1706292464.6625926,-11.0,39.0,22.0,-2.0,-6.0,10.0,-6.0,8.0
1706292464.6625926,-6.0,-15.0,-26.0,5.0,-1.0,7.0,18.0,5.0
1706292464.6829386,2.0,-4.0,5.0,2.0,3.0,15.0,1.0,-16.0
1706292464.6829386,-7.0,-13.0,-4.0,-2.0,-1.0,-13.0,30.0,34.0
1706292464.6829386,-19.0,-11.0,-8.0,3.0,0.0,-3.0,-10.0,-12.0
1706292464.6829386,12.0,21.0,21.0,3.0,1.0,-3.0,19.0,3.0
1706292464.7125902,-6.0,-11.0,-5.0,-4.0,-2.0,-5.0,-21.0,-16.0
1706292464.7125902,-3.0,3.0,-3.0,1.0,-1.0,-6.0,-6.0,12.0
1706292464.7125902,-10.0,3.0,8.0,0.0,4.0,-7.0,-18.0,-22.0
1706292464.7125902,2.0,10.0,4.0,7.0,1.0,-6.0,4.0,17.0
1706292464.72282,0.0,-17.0,-7.0,-9.0,-3.0,-4.0,-7.0,-9.0
1706292464.72282,-1.0,-30.0,1.0,2.0,-3.0,17.0,-17.0,-5.0
1706292464.72282,9.0,-6.0,-20.0,-8.0,-2.0,-6.0,-6.0,5.0
1706292464.72282,14.0,7.0,3.0,0.0,1.0,-4.0,-3.0,-14.0
1706292464.7525892,0.0,18.0,13.0,7.0,1.0,0.0,23.0,10.0
1706292464.7525892,-20.0,-20.0,-14.0,-7.0,-2.0,-7.0,-15.0,-1.0
1706292464.7525892,1.0,15.0,21.0,-2.0,-7.0,1.0,-3.0,8.0
1706292464.7525892,-9.0,-64.0,-8.0,7.0,2.0,0.0,4.0,-1.0
1706292464.7525892,14.0,-14.0,-69.0,-9.0,1.0,-3.0,1.0,2.0
1706292464.7525892,-4.0,55.0,45.0,3.0,-2.0,11.0,8.0,-1.0
1706292464.7626228,-5.0,-44.0,1.0,-10.0,-8.0,-7.0,10.0,-4.0
1706292464.7626228,-3.0,29.0,7.0,6.0,5.0,0.0,-15.0,-3.0
1706292464.7910628,2.0,14.0,37.0,8.0,-11.0,-7.0,-9.0,2.0
1706292464.7910628,-4.0,-63.0,-37.0,-13.0,12.0,7.0,30.0,35.0
1706292464.7910628,9.0,24.0,14.0,23.0,-1.0,-14.0,-38.0,-41.0
1706292464.7910628,-1.0,-21.0,-20.0,-21.0,-8.0,-7.0,-7.0,-7.0
1706292464.8150442,-1.0,-28.0,-12.0,11.0,4.0,2.0,1.0,-7.0
1706292464.8150442,2.0,63.0,18.0,5.0,3.0,7.0,17.0,19.0
1706292464.8150442,7.0,-2.0,15.0,-12.0,2.0,0.0,10.0,18.0
1706292464.8150442,-5.0,35.0,28.0,3.0,2.0,8.0,4.0,-23.0
1706292464.8150442,1.0,-9.0,-2.0,-10.0,-3.0,-2.0,-3.0,22.0
1706292464.8150442,7.0,-6.0,-13.0,-2.0,-5.0,-13.0,-31.0,-30.0
1706292464.825366,-6.0,5.0,3.0,7.0,5.0,13.0,16.0,-17.0
1706292464.825366,1.0,-2.0,-12.0,-1.0,-4.0,-8.0,-17.0,35.0
1706292464.845274,-6.0,-11.0,-3.0,-11.0,-4.0,-9.0,-2.0,-17.0
1706292464.845274,2.0,14.0,15.0,3.0,-3.0,4.0,-4.0,-16.0
1706292464.845274,10.0,9.0,6.0,4.0,5.0,4.0,16.0,15.0
1706292464.845274,2.0,8.0,-18.0,-5.0,-3.0,-2.0,-18.0,2.0
1706292464.8654509,-16.0,-6.0,7.0,1.0,-3.0,1.0,1.0,-20.0
1706292464.8654509,11.0,1.0,-3.0,-13.0,-15.0,-13.0,-5.0,16.0
1706292464.8654509,-15.0,-10.0,-13.0,-1.0,5.0,-1.0,-16.0,-10.0
1706292464.8654509,-2.0,-11.0,7.0,19.0,8.0,12.0,10.0,2.0
1706292464.8750472,-1.0,25.0,32.0,13.0,35.0,13.0,8.0,6.0
1706292464.8750472,13.0,-23.0,-47.0,-1.0,10.0,5.0,3.0,-6.0
1706292464.8850803,2.0,-15.0,4.0,-42.0,-25.0,-7.0,6.0,11.0
1706292464.8850803,-2.0,12.0,0.0,16.0,-18.0,-10.0,-15.0,-5.0
1706292464.9050465,4.0,-8.0,2.0,-11.0,-5.0,-4.0,4.0,-10.0
1706292464.9050465,5.0,20.0,32.0,11.0,3.0,8.0,21.0,11.0
1706292464.9050465,-7.0,-15.0,-23.0,-10.0,1.0,-10.0,2.0,6.0
1706292464.9050465,-22.0,-18.0,-18.0,-19.0,-7.0,-8.0,-10.0,-14.0
1706292464.925412,20.0,12.0,7.0,-1.0,-8.0,1.0,21.0,-6.0
1706292464.925412,-3.0,5.0,6.0,5.0,3.0,2.0,3.0,18.0
1706292464.925412,-22.0,-34.0,2.0,8.0,1.0,2.0,24.0,-34.0
1706292464.925412,-9.0,-33.0,-20.0,-8.0,1.0,-8.0,-13.0,10.0
1706292464.9352655,-12.0,-12.0,-12.0,4.0,-2.0,2.0,-8.0,-46.0
1706292464.9352655,25.0,-32.0,-3.0,-8.0,-6.0,-4.0,7.0,45.0
1706292464.9453347,-3.0,-17.0,-7.0,10.0,4.0,1.0,6.0,-11.0
1706292464.9453347,9.0,39.0,16.0,3.0,2.0,3.0,12.0,19.0
1706292464.9650476,-17.0,-23.0,-4.0,-8.0,-5.0,-4.0,-18.0,-12.0
1706292464.9650476,-9.0,-4.0,-15.0,-5.0,-2.0,1.0,-5.0,-10.0
1706292464.9650476,14.0,11.0,8.0,4.0,-1.0,0.0,-9.0,9.0
1706292464.9650476,0.0,7.0,4.0,-2.0,5.0,3.0,14.0,-2.0
1706292464.985225,0.0,-4.0,-6.0,5.0,-5.0,-10.0,-12.0,11.0
1706292464.985225,-16.0,8.0,6.0,-4.0,-1.0,1.0,-10.0,-24.0
1706292464.985225,-4.0,10.0,-12.0,1.0,-2.0,0.0,3.0,19.0
1706292464.985225,3.0,-4.0,3.0,-3.0,-3.0,-2.0,-5.0,-39.0
1706292465.0150502,22.0,6.0,-12.0,-5.0,-6.0,-18.0,11.0,70.0
1706292465.0150502,-14.0,43.0,12.0,3.0,-2.0,21.0,51.0,19.0
1706292465.0150502,27.0,16.0,6.0,3.0,4.0,12.0,-51.0,-29.0
1706292465.0150502,-9.0,17.0,15.0,8.0,8.0,10.0,10.0,-11.0
1706292465.0350518,-9.0,-7.0,-27.0,-11.0,-10.0,-22.0,-24.0,-13.0
1706292465.0350518,-8.0,23.0,3.0,-2.0,-3.0,-7.0,10.0,4.0
1706292465.045048,3.0,14.0,2.0,3.0,3.0,-5.0,-11.0,18.0
1706292465.045048,2.0,6.0,-5.0,-2.0,-2.0,-4.0,-2.0,-11.0
1706292465.045048,5.0,-21.0,13.0,-9.0,1.0,16.0,11.0,8.0
1706292465.045048,-20.0,-16.0,-18.0,11.0,0.0,-6.0,-22.0,-7.0
1706292465.045048,8.0,3.0,-2.0,-8.0,-5.0,-1.0,15.0,-2.0
1706292465.045048,0.0,-40.0,-4.0,-19.0,-12.0,-5.0,-11.0,0.0
1706292465.065311,-14.0,8.0,8.0,37.0,15.0,3.0,1.0,0.0
1706292465.065311,20.0,-39.0,-45.0,-18.0,-8.0,-6.0,-10.0,-16.0
1706292465.065311,0.0,19.0,20.0,29.0,6.0,3.0,5.0,10.0
1706292465.065311,-15.0,7.0,19.0,-14.0,1.0,-4.0,-6.0,-6.0
1706292465.085098,-28.0,-36.0,-44.0,-18.0,-6.0,3.0,4.0,-7.0
1706292465.085098,5.0,7.0,20.0,0.0,-3.0,-4.0,-6.0,-5.0
1706292465.085098,2.0,0.0,1.0,-5.0,0.0,-1.0,8.0,13.0
1706292465.085098,7.0,-2.0,6.0,3.0,-3.0,-5.0,-3.0,8.0
1706292465.1250474,-10.0,32.0,28.0,8.0,2.0,11.0,8.0,-8.0
1706292465.1250474,-1.0,11.0,-1.0,5.0,6.0,3.0,-6.0,-3.0
1706292465.1250474,-12.0,-9.0,-2.0,-4.0,-2.0,-7.0,10.0,-33.0
1706292465.1250474,12.0,9.0,-4.0,7.0,1.0,-3.0,0.0,47.0
1706292465.1250474,-1.0,2.0,4.0,-15.0,0.0,11.0,5.0,-13.0
1706292465.1250474,6.0,-12.0,20.0,11.0,-3.0,-16.0,0.0,13.0
1706292465.1250474,-2.0,17.0,9.0,-4.0,1.0,15.0,-3.0,10.0
1706292465.1250474,4.0,17.0,-15.0,9.0,5.0,-1.0,5.0,15.0
1706292465.135057,4.0,-14.0,-2.0,-6.0,-5.0,-6.0,-25.0,-9.0
1706292465.135057,-8.0,25.0,-15.0,-12.0,1.0,6.0,-11.0,5.0
1706292465.145045,-11.0,9.0,13.0,8.0,3.0,-18.0,2.0,-18.0
1706292465.145045,7.0,-8.0,-12.0,-1.0,-2.0,6.0,8.0,-13.0
1706292465.1652358,12.0,20.0,9.0,-4.0,-2.0,2.0,1.0,17.0
1706292465.1652358,-8.0,-22.0,1.0,2.0,-1.0,-11.0,-22.0,-35.0
1706292465.1652358,-7.0,-5.0,-8.0,-2.0,0.0,-2.0,3.0,55.0
1706292465.1652358,-1.0,-4.0,-2.0,-3.0,-3.0,0.0,-4.0,-17.0
1706292465.1950462,-8.0,-8.0,-1.0,1.0,0.0,-1.0,3.0,-13.0
1706292465.1950462,13.0,-2.0,21.0,-1.0,-5.0,4.0,20.0,2.0
1706292465.1950462,-3.0,-3.0,-25.0,4.0,9.0,9.0,0.0,2.0
1706292465.1950462,-12.0,4.0,-7.0,-5.0,-5.0,-10.0,-9.0,-16.0
1706292465.1950462,-4.0,-9.0,-3.0,0.0,8.0,5.0,6.0,9.0
1706292465.1950462,11.0,24.0,-4.0,-16.0,-9.0,-7.0,-11.0,-8.0
1706292465.2050488,1.0,22.0,12.0,11.0,-3.0,-5.0,7.0,4.0
1706292465.2050488,-19.0,-67.0,-35.0,-14.0,-7.0,-6.0,-3.0,-14.0
1706292465.2253418,4.0,12.0,15.0,6.0,-8.0,5.0,3.0,6.0
1706292465.2253418,5.0,-14.0,-3.0,1.0,8.0,7.0,34.0,32.0
1706292465.2253418,11.0,12.0,5.0,-14.0,-5.0,-7.0,-8.0,-23.0
1706292465.2253418,-9.0,1.0,13.0,-1.0,-2.0,2.0,22.0,-4.0
1706292465.2650468,-17.0,-6.0,-29.0,-13.0,-6.0,-18.0,-17.0,-6.0
1706292465.2650468,-5.0,8.0,1.0,-3.0,0.0,17.0,25.0,18.0
1706292465.2750494,8.0,20.0,10.0,0.0,-2.0,-2.0,-8.0,-11.0
1706292465.2750494,1.0,5.0,14.0,7.0,1.0,-4.0,-17.0,9.0
1706292465.2750494,-8.0,-14.0,-3.0,5.0,-1.0,-3.0,-10.0,-32.0
1706292465.2750494,-1.0,13.0,31.0,7.0,1.0,-2.0,-10.0,5.0
1706292465.2750494,6.0,-47.0,-59.0,-16.0,-5.0,-5.0,-7.0,-13.0
1706292465.2750494,15.0,7.0,8.0,5.0,4.0,1.0,-8.0,-6.0
1706292465.2853782,17.0,23.0,12.0,-3.0,-2.0,-4.0,1.0,5.0
1706292465.2853782,-15.0,-29.0,-23.0,10.0,8.0,0.0,-15.0,-4.0
1706292465.2853782,-9.0,29.0,23.0,1.0,5.0,3.0,-4.0,-17.0
1706292465.2853782,-6.0,-21.0,-22.0,-7.0,-4.0,-2.0,10.0,25.0
1706292465.3184557,5.0,-10.0,0.0,-3.0,-4.0,0.0,-3.0,-7.0
1706292465.3184557,-7.0,-5.0,9.0,-2.0,-5.0,-5.0,-6.0,-4.0
1706292465.3184557,-7.0,-9.0,-10.0,-10.0,-9.0,-5.0,2.0,-6.0
1706292465.3184557,2.0,16.0,-1.0,4.0,5.0,14.0,4.0,5.0
1706292465.3243546,8.0,25.0,19.0,5.0,1.0,-4.0,4.0,10.0
1706292465.3253767,-15.0,-18.0,-26.0,-8.0,-1.0,-8.0,-4.0,-4.0
1706292465.3315852,4.0,6.0,4.0,3.0,0.0,-6.0,-6.0,-9.0
1706292465.3315852,-4.0,-17.0,-1.0,-1.0,2.0,14.0,12.0,8.0
1706292465.3481147,12.0,-4.0,-3.0,-1.0,-5.0,1.0,-12.0,19.0
1706292465.3481147,7.0,12.0,4.0,-4.0,0.0,-7.0,4.0,-63.0
1706292465.3481147,-9.0,-26.0,-11.0,-2.0,-1.0,-5.0,7.0,19.0
1706292465.3481147,-8.0,9.0,6.0,4.0,-2.0,-12.0,-15.0,-22.0
1706292465.368377,1.0,1.0,2.0,0.0,-3.0,4.0,13.0,6.0
1706292465.368377,-2.0,-3.0,-12.0,-12.0,-5.0,-15.0,-21.0,3.0
1706292465.368377,0.0,2.0,17.0,3.0,5.0,11.0,11.0,13.0
1706292465.368377,5.0,12.0,9.0,2.0,-13.0,-7.0,-8.0,-12.0
1706292465.378162,9.0,-4.0,7.0,41.0,22.0,8.0,6.0,-2.0
1706292465.378162,-15.0,-7.0,15.0,3.0,9.0,5.0,-11.0,2.0
1706292465.3884187,-1.0,-20.0,-50.0,-4.0,6.0,-4.0,-1.0,-1.0
1706292465.3884187,10.0,20.0,5.0,-14.0,-3.0,3.0,1.0,3.0
1706292465.3981133,9.0,8.0,-7.0,-15.0,0.0,-12.0,-1.0,7.0
1706292465.4081123,2.0,12.0,26.0,-9.0,-9.0,7.0,-1.0,4.0
1706292465.4081123,-1.0,5.0,28.0,16.0,-7.0,-4.0,-2.0,6.0
1706292465.4081123,-1.0,-27.0,-26.0,-1.0,-4.0,-8.0,-6.0,1.0
1706292465.4283905,-29.0,-25.0,2.0,-4.0,-1.0,1.0,-8.0,-22.0
1706292465.4283905,7.0,22.0,-15.0,1.0,0.0,-4.0,-11.0,-14.0
1706292465.4283905,0.0,1.0,14.0,-4.0,-4.0,-1.0,-5.0,-6.0
1706292465.4283905,-14.0,-12.0,-21.0,-4.0,0.0,2.0,17.0,-10.0
1706292465.4381573,7.0,2.0,-14.0,-4.0,-5.0,0.0,-23.0,-8.0
1706292465.4381573,-26.0,-11.0,-3.0,1.0,3.0,0.0,-2.0,3.0
1706292465.448156,0.0,37.0,3.0,0.0,-1.0,-3.0,-2.0,7.0
1706292465.448156,-3.0,16.0,29.0,4.0,-2.0,-3.0,10.0,5.0
1706292465.4584234,-4.0,-34.0,-25.0,-11.0,-2.0,-3.0,-3.0,19.0
1706292465.4584234,1.0,-16.0,-3.0,2.0,-3.0,3.0,-4.0,-37.0
1706292465.4681106,17.0,5.0,0.0,-2.0,-2.0,-4.0,-1.0,13.0
1706292465.4681106,-6.0,34.0,23.0,9.0,10.0,3.0,-10.0,1.0
1706292465.4881113,-15.0,-8.0,-15.0,-23.0,-12.0,-4.0,6.0,-15.0
1706292465.4881113,-10.0,-17.0,-15.0,27.0,7.0,3.0,-9.0,17.0
1706292465.4881113,-7.0,8.0,45.0,-15.0,-9.0,-2.0,3.0,9.0
1706292465.4881113,19.0,-44.0,-68.0,-4.0,3.0,-4.0,-17.0,-16.0
1706292465.4983864,-24.0,-5.0,-10.0,21.0,7.0,1.0,7.0,1.0
1706292465.4983864,30.0,12.0,-9.0,-9.0,-1.0,-1.0,5.0,8.0
1706292465.508426,-7.0,8.0,42.0,5.0,-6.0,2.0,3.0,-2.0
1706292465.508426,-9.0,-6.0,-19.0,-11.0,-4.0,-8.0,-14.0,-13.0
1706292465.5281107,16.0,16.0,-3.0,-1.0,-14.0,0.0,3.0,0.0
1706292465.5281107,15.0,-14.0,16.0,8.0,11.0,5.0,8.0,9.0
1706292465.5281107,-33.0,-25.0,-32.0,7.0,19.0,5.0,5.0,-8.0
1706292465.5281107,8.0,29.0,29.0,7.0,7.0,5.0,-4.0,5.0
1706292465.5483987,-2.0,-14.0,-3.0,-14.0,-4.0,-5.0,13.0,2.0
1706292465.5483987,12.0,34.0,22.0,-2.0,-14.0,-8.0,-13.0,-7.0
1706292465.5483987,5.0,-7.0,-10.0,-5.0,-6.0,-2.0,-1.0,4.0
1706292465.5483987,2.0,8.0,22.0,-1.0,-7.0,-5.0,2.0,0.0
1706292465.5583534,-4.0,20.0,-22.0,-5.0,-2.0,-1.0,6.0,5.0
1706292465.5583534,-1.0,17.0,17.0,-3.0,-3.0,-3.0,-2.0,3.0
1706292465.5683217,-13.0,-21.0,3.0,1.0,-1.0,1.0,4.0,-6.0
1706292465.5683217,-4.0,-50.0,-32.0,-2.0,1.0,0.0,-6.0,-2.0
1706292465.5981138,9.0,52.0,15.0,-8.0,2.0,1.0,10.0,-8.0
1706292465.5981138,-8.0,-16.0,18.0,0.0,-2.0,0.0,3.0,40.0
1706292465.5981138,-16.0,-45.0,-67.0,-4.0,-4.0,-5.0,-2.0,-79.0
1706292465.5981138,1.0,-1.0,30.0,-2.0,0.0,0.0,-4.0,10.0
1706292465.6081357,5.0,-7.0,10.0,4.0,3.0,-7.0,-3.0,-15.0
1706292465.6081357,-15.0,-15.0,-9.0,-3.0,2.0,15.0,-32.0,-34.0
1706292465.6081357,29.0,2.0,-7.0,-4.0,-5.0,-7.0,20.0,44.0
1706292465.6081357,1.0,17.0,6.0,5.0,0.0,-9.0,2.0,2.0
1706292465.6181178,-9.0,-15.0,1.0,-6.0,-2.0,3.0,-9.0,5.0
1706292465.6181178,-5.0,-4.0,-16.0,-10.0,-4.0,7.0,41.0,2.0
1706292465.6283402,8.0,6.0,16.0,11.0,1.0,-9.0,-50.0,-11.0
1706292465.6283402,-4.0,-8.0,-22.0,-5.0,-7.0,-9.0,-10.0,-14.0
1706292465.6481123,1.0,-3.0,29.0,-9.0,-2.0,-7.0,-5.0,7.0
1706292465.6481123,-3.0,5.0,-12.0,24.0,8.0,0.0,8.0,5.0
1706292465.6481123,4.0,3.0,18.0,-7.0,-2.0,7.0,12.0,10.0
1706292465.6481123,5.0,5.0,-19.0,5.0,-2.0,-6.0,2.0,9.0
1706292465.6683578,-13.0,0.0,11.0,-6.0,0.0,7.0,4.0,-1.0
1706292465.6683578,-1.0,1.0,-10.0,-10.0,-1.0,0.0,-10.0,-32.0
1706292465.6683578,11.0,30.0,9.0,0.0,4.0,-7.0,11.0,37.0
1706292465.6683578,2.0,32.0,20.0,-10.0,3.0,19.0,8.0,-9.0
1706292465.6783452,-3.0,-14.0,-11.0,13.0,2.0,3.0,2.0,19.0
1706292465.6783452,-1.0,7.0,1.0,4.0,-8.0,-12.0,-15.0,-27.0
1706292465.6883204,-14.0,6.0,-3.0,3.0,-3.0,-1.0,-1.0,-3.0
1706292465.6883204,-8.0,-12.0,-3.0,-9.0,-2.0,1.0,23.0,37.0
1706292465.7181141,27.0,-4.0,-6.0,1.0,-2.0,-1.0,-7.0,-29.0
1706292465.7181141,-32.0,-12.0,-9.0,-5.0,-3.0,-3.0,-7.0,4.0
1706292465.7181141,10.0,-28.0,-5.0,-3.0,-1.0,5.0,6.0,9.0
1706292465.7181141,3.0,57.0,11.0,2.0,-1.0,-3.0,-19.0,-14.0
1706292465.7281508,2.0,-13.0,-14.0,-1.0,-3.0,-5.0,22.0,14.0
1706292465.7281508,8.0,-3.0,6.0,1.0,3.0,-1.0,0.0,10.0
1706292465.7281508,-14.0,-37.0,-9.0,-6.0,-1.0,6.0,-9.0,-22.0
1706292465.7281508,6.0,52.0,13.0,5.0,4.0,2.0,-11.0,2.0
1706292465.738116,11.0,9.0,5.0,3.0,-3.0,-9.0,-4.0,5.0
1706292465.738116,23.0,75.0,-3.0,-15.0,0.0,6.0,0.0,9.0
1706292465.7581115,-16.0,-13.0,-11.0,2.0,-7.0,-3.0,9.0,15.0
1706292465.7581115,4.0,-32.0,-10.0,-15.0,-8.0,-3.0,-7.0,-19.0
1706292465.7581115,-10.0,-5.0,11.0,17.0,3.0,-7.0,-27.0,-37.0
1706292465.7581115,4.0,-4.0,2.0,7.0,4.0,-1.0,14.0,18.0
1706292465.768144,17.0,18.0,6.0,3.0,8.0,1.0,-13.0,10.0
1706292465.768144,-22.0,-24.0,37.0,-20.0,-4.0,-2.0,2.0,-5.0
1706292465.7981136,-12.0,-33.0,-43.0,24.0,4.0,6.0,6.0,-12.0
1706292465.7981136,-12.0,-15.0,15.0,-16.0,-8.0,-11.0,-7.0,-6.0
1706292465.7981136,1.0,13.0,16.0,4.0,-3.0,-1.0,0.0,0.0
1706292465.7981136,-1.0,-24.0,-12.0,-2.0,-1.0,5.0,8.0,10.0
1706292465.7981136,3.0,10.0,2.0,-11.0,2.0,5.0,28.0,1.0
1706292465.7981136,-4.0,-20.0,-4.0,3.0,3.0,-10.0,-17.0,7.0
1706292465.808111,9.0,-14.0,-16.0,-6.0,-4.0,5.0,8.0,-5.0
1706292465.808111,4.0,-23.0,7.0,10.0,4.0,-12.0,-22.0,-4.0
1706292465.8281155,-3.0,0.0,9.0,-8.0,-2.0,14.0,34.0,26.0
1706292465.8281155,4.0,-16.0,-23.0,1.0,-3.0,-9.0,-28.0,11.0
1706292465.8281155,-19.0,4.0,13.0,-2.0,1.0,-13.0,9.0,1.0
1706292465.8281155,-4.0,-36.0,-17.0,2.0,0.0,23.0,41.0,-47.0
1706292465.8500838,13.0,46.0,1.0,-8.0,-4.0,-11.0,-59.0,28.0
1706292465.8500838,-27.0,-15.0,8.0,1.0,1.0,2.0,31.0,15.0
1706292465.8521347,33.0,-4.0,-7.0,-3.0,-1.0,-3.0,-23.0,-4.0
1706292465.8521347,2.0,-22.0,-4.0,7.0,4.0,-3.0,1.0,19.0
1706292465.8640668,-11.0,42.0,-11.0,-3.0,2.0,3.0,10.0,-36.0
1706292465.8670611,9.0,28.0,8.0,-5.0,-5.0,-1.0,-17.0,-23.0
1706292465.8907864,-13.0,-6.0,-16.0,-4.0,-2.0,1.0,2.0,37.0
1706292465.8907864,-8.0,3.0,1.0,7.0,2.0,-3.0,0.0,-2.0
1706292465.8907864,-3.0,-28.0,12.0,-7.0,-3.0,1.0,8.0,-3.0
1706292465.8907864,22.0,47.0,5.0,-1.0,-2.0,-7.0,-2.0,8.0
1706292465.8907864,-21.0,-8.0,-23.0,0.0,4.0,6.0,1.0,-39.0
1706292465.8907864,13.0,0.0,-2.0,-11.0,-9.0,-9.0,-12.0,37.0
1706292465.9112117,2.0,-7.0,11.0,8.0,-4.0,0.0,-14.0,1.0
1706292465.9112117,9.0,-14.0,-19.0,-13.0,-1.0,-5.0,1.0,1.0
1706292465.9112117,-18.0,6.0,-1.0,2.0,9.0,-1.0,-13.0,-13.0
1706292465.9112117,-9.0,8.0,-1.0,8.0,3.0,21.0,24.0,-17.0
1706292465.9312434,-1.0,-15.0,-5.0,-30.0,-5.0,-6.0,0.0,37.0
1706292465.9312434,-7.0,13.0,3.0,18.0,5.0,6.0,6.0,-9.0
1706292465.9312434,4.0,-17.0,15.0,-13.0,-14.0,-5.0,9.0,6.0
1706292465.9312434,-18.0,6.0,-21.0,-15.0,1.0,-2.0,-9.0,-9.0
1706292465.9415412,-1.0,-16.0,-20.0,20.0,-6.0,-6.0,-1.0,-13.0
1706292465.9415412,-3.0,-45.0,-16.0,-7.0,5.0,-2.0,-6.0,5.0
1706292465.9415412,-10.0,-5.0,-1.0,8.0,9.0,13.0,26.0,9.0
1706292465.9415412,5.0,32.0,18.0,-1.0,-2.0,-10.0,-57.0,-18.0
1706292465.97121,-2.0,-20.0,-4.0,-13.0,-6.0,2.0,-3.0,-8.0
1706292465.97121,23.0,-11.0,4.0,-11.0,-14.0,-7.0,18.0,23.0
1706292465.97121,-7.0,-18.0,-14.0,6.0,-4.0,-5.0,-11.0,-12.0
1706292465.97121,1.0,-7.0,-1.0,4.0,-1.0,-5.0,0.0,3.0
1706292465.99148,-14.0,27.0,17.0,3.0,2.0,0.0,-4.0,-18.0
1706292465.99148,-22.0,-12.0,-12.0,3.0,2.0,-4.0,-10.0,-26.0
1706292465.99148,12.0,16.0,0.0,-9.0,0.0,3.0,8.0,11.0
1706292465.99148,28.0,28.0,8.0,15.0,-3.0,-4.0,0.0,6.0
1706292466.0014648,6.0,-11.0,19.0,-13.0,3.0,0.0,-8.0,2.0
1706292466.0014648,-7.0,-30.0,-23.0,-1.0,-2.0,-1.0,12.0,-16.0
1706292466.0014648,16.0,10.0,-13.0,7.0,-3.0,-5.0,-15.0,3.0
1706292466.0014648,-18.0,-9.0,-10.0,3.0,4.0,0.0,11.0,12.0
1706292466.0412123,28.0,69.0,7.0,-4.0,-2.0,-2.0,0.0,-6.0
1706292466.0412123,-4.0,20.0,5.0,-5.0,-1.0,3.0,-3.0,-16.0
1706292466.0512085,-9.0,-13.0,14.0,-3.0,-4.0,-2.0,-6.0,-7.0
1706292466.0512085,-1.0,-22.0,-2.0,1.0,1.0,-4.0,3.0,18.0
1706292466.0512085,-15.0,18.0,0.0,9.0,4.0,4.0,2.0,2.0
1706292466.0512085,-6.0,18.0,14.0,3.0,3.0,3.0,2.0,-10.0
1706292466.0512085,21.0,28.0,-10.0,-3.0,-7.0,-5.0,-9.0,18.0
1706292466.0512085,-16.0,-8.0,10.0,-5.0,0.0,0.0,3.0,-10.0
1706292466.0614223,-9.0,-46.0,-21.0,0.0,-2.0,-1.0,-10.0,-3.0
1706292466.0614223,2.0,11.0,6.0,7.0,4.0,-4.0,-2.0,2.0
1706292466.0714126,0.0,7.0,8.0,9.0,4.0,3.0,20.0,-5.0
1706292466.0714126,3.0,-19.0,-7.0,-4.0,-4.0,0.0,-31.0,-6.0
1706292466.0912142,11.0,35.0,-12.0,-6.0,-2.0,-15.0,2.0,-7.0
1706292466.0912142,-6.0,-13.0,0.0,7.0,-1.0,6.0,-4.0,2.0
1706292466.0912142,5.0,14.0,13.0,-1.0,-2.0,2.0,-15.0,5.0
1706292466.0912142,-5.0,10.0,9.0,-1.0,-4.0,-5.0,16.0,-19.0
1706292466.1112137,-20.0,-23.0,-6.0,1.0,5.0,6.0,-4.0,2.0
1706292466.1112137,6.0,-35.0,-11.0,-23.0,-4.0,-6.0,-7.0,-1.0
1706292466.1112137,-2.0,17.0,0.0,19.0,2.0,-1.0,2.0,-2.0
1706292466.1112137,5.0,18.0,1.0,0.0,-3.0,1.0,9.0,-3.0
1706292466.121242,-2.0,-22.0,18.0,-21.0,-4.0,-6.0,-11.0,3.0
1706292466.121242,1.0,-21.0,-29.0,17.0,8.0,2.0,4.0,-10.0
1706292466.1314125,-6.0,-18.0,13.0,-20.0,-4.0,-3.0,-11.0,6.0
1706292466.1314125,11.0,-5.0,-13.0,14.0,1.0,0.0,0.0,8.0
1706292466.1612115,6.0,-15.0,2.0,3.0,-7.0,-2.0,6.0,-8.0
1706292466.1612115,5.0,6.0,33.0,-5.0,-3.0,4.0,2.0,12.0
1706292466.1612115,-19.0,54.0,-4.0,-17.0,-3.0,0.0,-5.0,-16.0
1706292466.1612115,-1.0,-19.0,-33.0,-8.0,2.0,-6.0,-4.0,8.0
1706292466.1712096,1.0,7.0,10.0,-15.0,0.0,3.0,9.0,18.0
1706292466.1712096,11.0,-24.0,2.0,2.0,-6.0,-3.0,-8.0,-29.0
1706292466.1712096,-10.0,4.0,6.0,12.0,2.0,-2.0,-3.0,3.0
1706292466.1712096,14.0,16.0,-2.0,-4.0,0.0,-2.0,10.0,36.0
1706292466.181556,-33.0,-22.0,-27.0,7.0,-1.0,0.0,-24.0,-41.0
1706292466.181556,-19.0,13.0,15.0,-2.0,-2.0,1.0,19.0,10.0
1706292466.1914876,16.0,-32.0,-1.0,0.0,-3.0,-5.0,40.0,-4.0
1706292466.1914876,-24.0,-14.0,15.0,-2.0,-2.0,-9.0,-48.0,-16.0
1706292466.2012095,-12.0,-28.0,-10.0,-3.0,-4.0,-2.0,9.0,2.0
1706292466.2112179,14.0,-1.0,-6.0,7.0,-1.0,-4.0,-3.0,4.0
1706292466.2112179,-6.0,-10.0,-7.0,-13.0,-1.0,0.0,0.0,-3.0
1706292466.2112179,5.0,13.0,-1.0,-2.0,-3.0,0.0,16.0,3.0
1706292466.2315094,4.0,3.0,19.0,13.0,3.0,9.0,14.0,-2.0
1706292466.2315094,1.0,-22.0,-5.0,0.0,0.0,-4.0,-4.0,3.0
1706292466.2315094,-1.0,-25.0,-19.0,-10.0,-1.0,-7.0,-15.0,-10.0
1706292466.2315094,7.0,9.0,23.0,-3.0,-7.0,-9.0,-1.0,-9.0
1706292466.2412143,13.0,18.0,7.0,10.0,4.0,18.0,-5.0,-2.0
1706292466.2412143,-13.0,12.0,-21.0,-8.0,11.0,7.0,16.0,17.0
1706292466.2612114,-7.0,-17.0,-8.0,2.0,-2.0,-4.0,-10.0,-8.0
1706292466.2612114,14.0,15.0,20.0,6.0,-4.0,-2.0,-4.0,-25.0
1706292466.2612114,-4.0,-24.0,-16.0,-4.0,-9.0,-13.0,1.0,2.0
1706292466.2612114,5.0,13.0,0.0,-11.0,-2.0,9.0,0.0,10.0
1706292466.2712412,9.0,-21.0,-22.0,4.0,8.0,2.0,2.0,4.0
1706292466.2712412,11.0,28.0,26.0,3.0,1.0,4.0,0.0,-6.0
1706292466.2914865,-12.0,17.0,-22.0,-12.0,-5.0,-4.0,6.0,40.0
1706292466.2914865,22.0,22.0,34.0,3.0,-9.0,-7.0,-49.0,-57.0
1706292466.2914865,-30.0,-19.0,-46.0,-13.0,1.0,-2.0,6.0,-6.0
1706292466.2914865,-27.0,38.0,14.0,7.0,10.0,9.0,18.0,5.0
1706292466.3014367,2.0,-19.0,3.0,28.0,-2.0,-3.0,-2.0,13.0
1706292466.3014367,-7.0,-2.0,-14.0,-8.0,-4.0,-5.0,1.0,13.0
1706292466.3114054,8.0,53.0,53.0,-1.0,-8.0,3.0,1.0,-25.0
1706292466.3114054,8.0,-63.0,-56.0,-22.0,3.0,0.0,2.0,-13.0
1706292466.331217,27.0,-3.0,13.0,-6.0,-1.0,-7.0,-5.0,16.0
1706292466.331217,-20.0,3.0,31.0,2.0,3.0,3.0,12.0,11.0
1706292466.331217,11.0,2.0,30.0,10.0,-8.0,-1.0,-5.0,22.0
1706292466.331217,-19.0,-22.0,-31.0,-11.0,8.0,4.0,1.0,-19.0
1706292466.3612678,10.0,-17.0,-33.0,-11.0,6.0,-3.0,-8.0,-3.0
1706292466.3612678,6.0,7.0,21.0,6.0,-7.0,-3.0,1.0,6.0
1706292466.3612678,6.0,-4.0,-3.0,2.0,-1.0,-2.0,-6.0,11.0
1706292466.3612678,-1.0,6.0,13.0,4.0,-2.0,-2.0,1.0,1.0
1706292466.3612678,-5.0,12.0,4.0,-2.0,0.0,-4.0,-1.0,-10.0
1706292466.3612678,18.0,7.0,-3.0,11.0,2.0,-2.0,-2.0,14.0
1706292466.376286,-34.0,-61.0,-21.0,-20.0,4.0,7.0,2.0,-4.0
1706292466.376286,-5.0,-18.0,-15.0,13.0,-5.0,-7.0,-6.0,11.0
1706292466.390207,20.0,2.0,17.0,0.0,-2.0,-2.0,5.0,-28.0
1706292466.390207,-10.0,26.0,-30.0,-10.0,-7.0,-6.0,-20.0,1.0
1706292466.3913472,-31.0,-15.0,-7.0,-3.0,-2.0,-12.0,-17.0,-12.0
1706292466.3913472,5.0,19.0,3.0,-2.0,-3.0,16.0,19.0,4.0
1706292466.4073586,-12.0,2.0,10.0,-6.0,-5.0,-9.0,-9.0,-6.0
1706292466.4073586,5.0,-29.0,-13.0,0.0,4.0,4.0,20.0,5.0
1706292466.4073586,19.0,30.0,6.0,-2.0,-7.0,-10.0,-4.0,-2.0
1706292466.4073586,-1.0,-16.0,-4.0,-4.0,-9.0,9.0,17.0,19.0
1706292466.4270828,-9.0,10.0,3.0,2.0,17.0,1.0,-19.0,-29.0
1706292466.4270828,-15.0,21.0,6.0,2.0,6.0,11.0,25.0,7.0
1706292466.4270828,16.0,-3.0,8.0,12.0,11.0,0.0,-3.0,-2.0
1706292466.4270828,-23.0,-77.0,-43.0,-16.0,-12.0,-18.0,-17.0,-8.0
1706292466.4474025,32.0,13.0,26.0,22.0,-14.0,-7.0,11.0,12.0
1706292466.4474025,-29.0,0.0,-17.0,3.0,-7.0,-11.0,-16.0,-6.0
1706292466.4474025,-1.0,-9.0,-4.0,-10.0,-7.0,0.0,-12.0,-24.0
1706292466.4474025,-3.0,7.0,29.0,2.0,3.0,-2.0,-2.0,2.0
1706292466.4674227,-6.0,-27.0,-37.0,-21.0,6.0,10.0,9.0,-1.0
1706292466.4674227,-1.0,-16.0,17.0,-3.0,-8.0,-9.0,-11.0,-6.0
1706292466.4674227,7.0,14.0,-39.0,3.0,-2.0,3.0,2.0,5.0
1706292466.4674227,21.0,26.0,24.0,10.0,12.0,1.0,8.0,-5.0
1706292466.4870837,-12.0,6.0,-1.0,2.0,3.0,-1.0,-14.0,-14.0
1706292466.4870837,-3.0,-13.0,-27.0,-12.0,-9.0,-3.0,14.0,28.0
1706292466.4870837,11.0,10.0,35.0,3.0,3.0,1.0,0.0,30.0
1706292466.4870837,8.0,15.0,9.0,-1.0,-1.0,-4.0,-6.0,1.0
1706292466.507085,-8.0,9.0,13.0,3.0,-3.0,1.0,-1.0,2.0
1706292466.507085,-14.0,-25.0,-34.0,-6.0,2.0,1.0,-8.0,-2.0
1706292466.507085,43.0,10.0,-2.0,-1.0,-3.0,0.0,3.0,2.0
1706292466.507085,-6.0,1.0,3.0,1.0,-2.0,-5.0,-7.0,21.0
1706292466.5274673,18.0,31.0,18.0,5.0,2.0,7.0,38.0,31.0
1706292466.5274673,-14.0,-22.0,-9.0,1.0,-1.0,-15.0,-44.0,-26.0
1706292466.5274673,-23.0,-7.0,6.0,-1.0,0.0,9.0,21.0,18.0
1706292466.5274673,-11.0,-32.0,-10.0,-1.0,-2.0,-7.0,-8.0,-4.0
1706292466.547083,3.0,-7.0,-6.0,-2.0,-2.0,4.0,18.0,-20.0
1706292466.547083,15.0,-7.0,-7.0,-11.0,-5.0,-4.0,-3.0,-10.0
1706292466.547083,2.0,-23.0,12.0,5.0,-1.0,-4.0,4.0,-10.0
1706292466.547083,20.0,26.0,1.0,-2.0,0.0,-1.0,-2.0,11.0
1706292466.567085,-24.0,-21.0,-22.0,-2.0,-5.0,-2.0,-15.0,-5.0
1706292466.567085,10.0,27.0,14.0,3.0,4.0,4.0,14.0,-1.0
1706292466.567085,-16.0,-4.0,-3.0,-3.0,0.0,0.0,-9.0,-11.0
1706292466.567085,3.0,19.0,7.0,2.0,-4.0,1.0,5.0,-15.0
1706292466.587083,-1.0,27.0,26.0,-22.0,-6.0,-6.0,-2.0,-2.0
1706292466.587083,7.0,-29.0,-9.0,6.0,8.0,5.0,10.0,9.0
1706292466.587083,-5.0,7.0,-5.0,12.0,9.0,5.0,-5.0,-12.0
1706292466.587083,-13.0,-29.0,-40.0,-1.0,-3.0,-14.0,-24.0,-17.0
1706292466.5971107,1.0,0.0,23.0,9.0,-2.0,3.0,5.0,3.0
1706292466.5971107,-6.0,8.0,-1.0,-7.0,2.0,5.0,6.0,3.0
1706292466.6070876,17.0,8.0,6.0,-27.0,-8.0,-9.0,-5.0,-11.0
1706292466.6070876,-30.0,16.0,6.0,18.0,5.0,9.0,3.0,-15.0
1706292466.6274502,-11.0,-17.0,-25.0,-8.0,5.0,-3.0,-12.0,3.0
1706292466.6274502,19.0,19.0,16.0,-5.0,-7.0,-2.0,9.0,-3.0
1706292466.6274502,-29.0,20.0,11.0,5.0,-6.0,-2.0,-14.0,-23.0
1706292466.6274502,7.0,-26.0,-31.0,-17.0,-6.0,-11.0,3.0,26.0
1706292466.6470866,8.0,50.0,30.0,4.0,-3.0,0.0,7.0,27.0
1706292466.6470866,-5.0,3.0,-30.0,3.0,0.0,5.0,-5.0,-38.0
1706292466.6470866,15.0,-15.0,18.0,10.0,1.0,-2.0,0.0,33.0
1706292466.6470866,-27.0,-36.0,0.0,-10.0,-7.0,-4.0,-12.0,-60.0
1706292466.657348,4.0,-14.0,-9.0,-7.0,-3.0,-4.0,-2.0,7.0
1706292466.657348,2.0,-24.0,16.0,2.0,1.0,0.0,4.0,24.0
1706292466.6770844,-29.0,-41.0,-14.0,-1.0,0.0,-1.0,-4.0,-25.0
1706292466.6770844,-10.0,17.0,-5.0,0.0,-2.0,4.0,12.0,12.0
1706292466.687394,2.0,-27.0,19.0,-3.0,3.0,-3.0,-13.0,-11.0
1706292466.687394,2.0,26.0,-7.0,15.0,3.0,-1.0,2.0,-4.0
1706292466.687394,14.0,-10.0,-25.0,-10.0,-1.0,0.0,-2.0,2.0
1706292466.687394,-10.0,10.0,17.0,-4.0,-2.0,4.0,0.0,-15.0
1706292466.7071362,8.0,-10.0,-16.0,-4.0,2.0,-8.0,-7.0,12.0
1706292466.7071362,-20.0,3.0,14.0,4.0,-4.0,2.0,10.0,6.0
1706292466.7071362,-24.0,10.0,-6.0,-8.0,-5.0,-7.0,-3.0,0.0
1706292466.7071362,4.0,3.0,-2.0,1.0,-2.0,1.0,13.0,-7.0
1706292466.7171614,-22.0,4.0,-1.0,8.0,1.0,3.0,-11.0,-5.0
1706292466.7271676,11.0,-4.0,11.0,-1.0,8.0,1.0,9.0,2.0
1706292466.7271676,-5.0,6.0,2.0,3.0,-1.0,-5.0,-3.0,-13.0
1706292466.7271676,26.0,47.0,35.0,4.0,-7.0,3.0,10.0,4.0
1706292466.747469,3.0,-42.0,-32.0,7.0,6.0,1.0,-10.0,2.0
1706292466.747469,-10.0,15.0,20.0,-7.0,-7.0,-3.0,-3.0,7.0
1706292466.747469,6.0,-26.0,-30.0,6.0,3.0,1.0,1.0,-5.0
1706292466.747469,7.0,8.0,-9.0,-3.0,-1.0,-4.0,0.0,9.0
1706292466.7771611,-5.0,9.0,39.0,-2.0,-11.0,-3.0,-25.0,-11.0
1706292466.7771611,-9.0,-41.0,-78.0,-16.0,-16.0,-5.0,-11.0,-8.0
1706292466.7771611,47.0,53.0,56.0,17.0,8.0,5.0,8.0,17.0
1706292466.7771611,-16.0,-16.0,-29.0,-15.0,-6.0,-3.0,-12.0,-15.0
1706292466.7771611,1.0,-8.0,-21.0,-2.0,10.0,3.0,7.0,-5.0
1706292466.7771611,4.0,38.0,33.0,14.0,-2.0,-4.0,-2.0,16.0
1706292466.7873256,8.0,-9.0,-32.0,-14.0,-4.0,-3.0,-6.0,-16.0
1706292466.7873256,-3.0,-11.0,15.0,-7.0,-3.0,-2.0,0.0,5.0
1706292466.8171675,-5.0,-12.0,-24.0,-4.0,-3.0,-1.0,5.0,-3.0
1706292466.8171675,3.0,-5.0,15.0,-2.0,1.0,1.0,2.0,-1.0
1706292466.8271954,-20.0,0.0,23.0,9.0,-1.0,1.0,-3.0,-3.0
1706292466.8271954,7.0,25.0,-7.0,8.0,15.0,8.0,4.0,-12.0
1706292466.8271954,-20.0,-27.0,-8.0,-1.0,-5.0,-3.0,15.0,16.0
1706292466.8271954,-2.0,-14.0,6.0,4.0,0.0,-2.0,-10.0,3.0
1706292466.8271954,-8.0,-1.0,-11.0,-8.0,-5.0,-8.0,-28.0,-8.0
1706292466.8271954,5.0,-37.0,9.0,2.0,4.0,-1.0,3.0,-7.0
1706292466.8373716,-1.0,8.0,21.0,1.0,-10.0,11.0,16.0,5.0
1706292466.8373716,15.0,6.0,-43.0,-5.0,0.0,-2.0,-3.0,7.0
1706292466.8471675,-7.0,16.0,11.0,1.0,2.0,7.0,22.0,3.0
1706292466.8471675,-16.0,-21.0,-9.0,-7.0,-6.0,-18.0,-22.0,-3.0
1706292466.877162,11.0,-12.0,-23.0,-12.0,1.0,10.0,4.0,1.0
1706292466.877162,0.0,1.0,23.0,1.0,-6.0,-4.0,-1.0,-18.0
1706292466.877162,-2.0,11.0,-3.0,-7.0,2.0,-3.0,14.0,17.0
1706292466.877162,15.0,12.0,9.0,10.0,-2.0,1.0,-27.0,4.0
1706292466.8872643,-26.0,10.0,12.0,7.0,7.0,2.0,6.0,-2.0
1706292466.8872643,-18.0,-20.0,-5.0,-13.0,-2.0,-4.0,-5.0,-25.0
1706292466.8872643,18.0,0.0,-8.0,-3.0,7.0,8.0,5.0,12.0
1706292466.8872643,20.0,12.0,69.0,9.0,14.0,8.0,6.0,13.0
1706292466.9147944,16.0,-22.0,-94.0,0.0,-21.0,-24.0,-12.0,-14.0
1706292466.9147944,-18.0,15.0,49.0,15.0,7.0,4.0,-8.0,-1.0
1706292466.916608,5.0,43.0,-39.0,-14.0,-13.0,-9.0,-3.0,-8.0
1706292466.916608,-4.0,-44.0,-4.0,-8.0,-9.0,0.0,9.0,33.0
1706292466.9296565,12.0,62.0,12.0,-27.0,13.0,4.0,-4.0,-13.0
1706292466.9296565,9.0,-31.0,45.0,12.0,-4.0,-3.0,0.0,22.0
1706292466.9296565,-15.0,6.0,-11.0,6.0,2.0,4.0,6.0,-26.0
1706292466.9296565,-7.0,52.0,49.0,9.0,2.0,3.0,3.0,-13.0
1706292466.949968,9.0,-1.0,-10.0,-15.0,-11.0,-12.0,-8.0,29.0
1706292466.949968,-5.0,-23.0,-74.0,-10.0,-1.0,-4.0,-2.0,4.0
1706292466.949968,-11.0,-33.0,21.0,16.0,6.0,2.0,-5.0,-8.0
1706292466.949968,-15.0,-8.0,-14.0,9.0,-4.0,-1.0,1.0,14.0
1706292466.9699862,0.0,3.0,1.0,13.0,2.0,1.0,16.0,-24.0
1706292466.9699862,-5.0,20.0,10.0,-4.0,4.0,7.0,-29.0,2.0
1706292466.9699862,3.0,-22.0,-16.0,-16.0,-12.0,-7.0,-30.0,-18.0
1706292466.9699862,15.0,10.0,-27.0,-1.0,-2.0,-6.0,5.0,25.0
1706292466.9996586,-32.0,14.0,64.0,15.0,8.0,8.0,2.0,-11.0
1706292466.9996586,11.0,2.0,-15.0,-6.0,-2.0,3.0,20.0,0.0
1706292466.9996586,17.0,4.0,20.0,8.0,-5.0,-5.0,-10.0,-17.0
1706292466.9996586,-6.0,3.0,-26.0,-8.0,4.0,-5.0,-11.0,4.0
1706292467.0099277,3.0,-12.0,8.0,5.0,-1.0,-2.0,0.0,-1.0
1706292467.0099277,12.0,6.0,15.0,-2.0,-3.0,7.0,-17.0,-2.0
1706292467.0099277,12.0,-24.0,35.0,5.0,-2.0,-1.0,15.0,4.0
1706292467.0099277,2.0,11.0,15.0,-2.0,-1.0,-3.0,3.0,3.0
1706292467.0297215,-2.0,-2.0,-5.0,-7.0,-5.0,-4.0,-20.0,-31.0
1706292467.0297215,0.0,-15.0,-32.0,-5.0,-2.0,-10.0,7.0,4.0
1706292467.0297215,-10.0,25.0,28.0,0.0,3.0,-1.0,14.0,44.0
1706292467.0297215,10.0,1.0,-15.0,-6.0,-4.0,8.0,-28.0,-55.0
1706292467.0496595,4.0,-8.0,9.0,7.0,1.0,5.0,2.0,38.0
1706292467.0496595,22.0,27.0,31.0,2.0,0.0,1.0,21.0,-13.0
1706292467.0496595,-26.0,-2.0,-15.0,-3.0,3.0,2.0,-24.0,-33.0
1706292467.0496595,-5.0,-30.0,-21.0,-4.0,-5.0,-8.0,11.0,16.0
1706292467.0699456,5.0,18.0,-11.0,-1.0,-5.0,-3.0,-7.0,-15.0
1706292467.0699456,-23.0,2.0,6.0,-6.0,1.0,8.0,6.0,-12.0
1706292467.0699456,12.0,-5.0,-17.0,0.0,-3.0,-7.0,15.0,6.0
1706292467.0699456,-4.0,-10.0,-11.0,-5.0,0.0,6.0,5.0,-3.0
1706292467.0996625,15.0,-11.0,10.0,-24.0,-9.0,-5.0,-8.0,-13.0
1706292467.0996625,-4.0,16.0,22.0,10.0,-1.0,-16.0,-7.0,-3.0
1706292467.109659,-2.0,-3.0,-8.0,19.0,-7.0,-6.0,-3.0,10.0
1706292467.109659,13.0,53.0,32.0,9.0,18.0,17.0,11.0,7.0
1706292467.1196573,3.0,-15.0,-37.0,24.0,-4.0,-2.0,7.0,14.0
1706292467.1196573,3.0,-8.0,-6.0,-29.0,11.0,1.0,6.0,8.0
1706292467.1196573,-10.0,-7.0,-23.0,6.0,-7.0,-3.0,-9.0,-1.0
1706292467.1196573,33.0,23.0,5.0,-56.0,-16.0,-10.0,5.0,8.0
1706292467.129948,-26.0,-36.0,-15.0,6.0,-6.0,-19.0,-39.0,-35.0
1706292467.129948,-14.0,2.0,14.0,19.0,1.0,5.0,1.0,-4.0
1706292467.129948,-2.0,-9.0,-19.0,-17.0,-8.0,-5.0,6.0,0.0
1706292467.129948,2.0,-14.0,32.0,14.0,5.0,0.0,-6.0,-2.0
1706292467.1596622,-3.0,16.0,-6.0,2.0,9.0,6.0,14.0,11.0
1706292467.1696675,-14.0,-38.0,-72.0,-13.0,-9.0,-9.0,-10.0,-1.0
1706292467.1696675,-14.0,-7.0,14.0,-20.0,-1.0,5.0,1.0,-2.0
1706292467.1696675,-11.0,1.0,3.0,19.0,-5.0,-4.0,-3.0,-8.0
1706292467.1796613,3.0,1.0,57.0,4.0,2.0,-1.0,1.0,17.0
1706292467.1796613,8.0,7.0,-13.0,-16.0,-6.0,1.0,8.0,9.0
1706292467.1796613,-1.0,-15.0,-65.0,-17.0,2.0,3.0,-5.0,-12.0
1706292467.1796613,-2.0,-8.0,14.0,-3.0,-11.0,-8.0,2.0,-3.0
1706292467.190037,-11.0,-3.0,-24.0,0.0,2.0,2.0,11.0,1.0
1706292467.190037,3.0,-3.0,45.0,-6.0,-12.0,-6.0,-42.0,-11.0
1706292467.190037,11.0,-15.0,-21.0,14.0,14.0,7.0,3.0,23.0
1706292467.190037,1.0,-14.0,-25.0,-5.0,-4.0,-4.0,-4.0,-30.0
1706292467.2097173,4.0,9.0,26.0,-8.0,2.0,3.0,5.0,2.0
1706292467.2097173,-5.0,8.0,4.0,18.0,8.0,5.0,24.0,12.0
1706292467.2097173,33.0,61.0,39.0,-2.0,-2.0,-4.0,3.0,-8.0
1706292467.2097173,-26.0,-68.0,-22.0,-3.0,-6.0,-6.0,-15.0,16.0
1706292467.220018,-1.0,40.0,-6.0,1.0,7.0,5.0,20.0,38.0
