1705334342.374891,-23.0,1.0,1.0,-14.0,-10.0,-7.0,0.0,-12.0
1705334342.374891,118.0,63.0,-6.0,6.0,8.0,-13.0,-31.0,-51.0
1705334342.374891,41.0,53.0,-8.0,0.0,-3.0,15.0,22.0,85.0
1705334342.374891,-81.0,-128.0,-15.0,-3.0,-6.0,-17.0,-25.0,-25.0
1705334342.395083,30.0,-7.0,-1.0,5.0,13.0,11.0,6.0,-1.0
1705334342.395083,-56.0,-76.0,18.0,-3.0,-4.0,7.0,9.0,12.0
1705334342.395083,44.0,84.0,-3.0,-11.0,-15.0,-25.0,-9.0,-13.0
1705334342.395083,19.0,4.0,5.0,18.0,22.0,19.0,0.0,21.0
1705334342.4148898,-23.0,17.0,-8.0,-10.0,-11.0,-12.0,-8.0,-45.0
1705334342.4148898,34.0,-4.0,-1.0,-3.0,-5.0,-1.0,21.0,31.0
1705334342.4148898,33.0,49.0,-8.0,4.0,4.0,1.0,34.0,-1.0
1705334342.4148898,-101.0,-107.0,-18.0,-13.0,-11.0,-25.0,-87.0,-60.0
1705334342.4350345,35.0,-9.0,11.0,-6.0,-6.0,-8.0,4.0,-5.0
1705334342.4350345,3.0,55.0,18.0,11.0,10.0,11.0,-24.0,-7.0
1705334342.4350345,-46.0,-50.0,13.0,13.0,6.0,11.0,2.0,-35.0
1705334342.4350345,92.0,85.0,-24.0,-7.0,-10.0,4.0,30.0,31.0
1705334342.455033,-30.0,20.0,-11.0,6.0,6.0,14.0,7.0,7.0
1705334342.455033,-70.0,-84.0,-18.0,-24.0,-1.0,3.0,1.0,20.0
1705334342.4650319,-64.0,-74.0,-5.0,-15.0,-5.0,-4.0,-7.0,-35.0
1705334342.4650319,26.0,64.0,81.0,59.0,16.0,21.0,24.0,19.0
1705334342.475296,14.0,24.0,-13.0,-4.0,-6.0,-8.0,-1.0,-1.0
1705334342.475296,31.0,9.0,-16.0,-35.0,-9.0,5.0,20.0,24.0
1705334342.4850433,-39.0,-12.0,-38.0,-6.0,11.0,4.0,-14.0,-20.0
1705334342.4850433,13.0,-43.0,6.0,23.0,-22.0,-9.0,12.0,17.0
1705334342.4952939,-3.0,93.0,62.0,21.0,16.0,9.0,6.0,2.0
1705334342.4952939,23.0,-72.0,-53.0,-20.0,10.0,-1.0,1.0,9.0
1705334342.505267,-6.0,0.0,-34.0,-23.0,0.0,-1.0,-15.0,-5.0
1705334342.505267,-6.0,1.0,1.0,-6.0,-16.0,-4.0,4.0,-3.0
1705334342.5152798,2.0,-11.0,10.0,17.0,-5.0,3.0,0.0,-1.0
1705334342.5152798,16.0,57.0,77.0,46.0,25.0,14.0,12.0,8.0
1705334342.5152798,-18.0,-38.0,-22.0,5.0,3.0,-1.0,-5.0,-15.0
1705334342.5152798,3.0,46.0,-4.0,-50.0,-11.0,-10.0,-1.0,-4.0
1705334342.5450327,-21.0,10.0,55.0,20.0,-33.0,-11.0,-3.0,1.0
1705334342.5450327,11.0,63.0,-33.0,22.0,7.0,9.0,10.0,3.0
1705334342.5450327,-3.0,16.0,48.0,-5.0,3.0,7.0,10.0,-7.0
1705334342.5450327,-8.0,-93.0,-113.0,-63.0,48.0,6.0,-8.0,-5.0
1705334342.5450327,13.0,-40.0,71.0,-12.0,2.0,-9.0,-13.0,11.0
1705334342.5450327,7.0,22.0,25.0,-14.0,-20.0,-27.0,-26.0,-8.0
1705334342.5550323,-5.0,44.0,122.0,92.0,-5.0,-3.0,-19.0,-15.0
1705334342.5550323,2.0,42.0,-16.0,18.0,-8.0,7.0,7.0,1.0
1705334342.575035,-5.0,-22.0,-128.0,-44.0,2.0,-6.0,-2.0,-6.0
1705334342.575035,2.0,-16.0,-18.0,30.0,-14.0,-4.0,0.0,2.0
1705334342.575035,-5.0,35.0,-32.0,-15.0,-5.0,-7.0,-3.0,-3.0
1705334342.575035,-5.0,-10.0,117.0,32.0,15.0,10.0,6.0,0.0
1705334342.5953515,-5.0,-51.0,-104.0,-43.0,-4.0,-12.0,-13.0,-6.0
1705334342.5953515,-13.0,-11.0,70.0,-105.0,-49.0,-40.0,-27.0,-10.0
1705334342.5953515,0.0,19.0,-7.0,-6.0,3.0,3.0,-8.0,-3.0
1705334342.5953515,11.0,17.0,-29.0,83.0,30.0,21.0,10.0,4.0
1705334342.6150372,2.0,0.0,10.0,79.0,21.0,22.0,19.0,2.0
1705334342.6150372,-3.0,20.0,-27.0,-44.0,-9.0,-7.0,0.0,1.0
1705334342.6150372,-6.0,-19.0,-9.0,-43.0,-17.0,-11.0,-9.0,-4.0
1705334342.625048,3.0,-13.0,111.0,-15.0,-13.0,-4.0,3.0,3.0
1705334342.6350648,-2.0,37.0,-11.0,17.0,10.0,-1.0,-6.0,0.0
1705334342.6350648,2.0,21.0,-47.0,49.0,23.0,22.0,19.0,6.0
1705334342.6350648,-5.0,-5.0,59.0,23.0,1.0,2.0,-4.0,-6.0
1705334342.6350648,-2.0,-35.0,-49.0,-14.0,-9.0,-11.0,-7.0,-1.0
1705334342.655069,-16.0,-31.0,-23.0,-70.0,-38.0,-28.0,-17.0,-9.0
1705334342.655069,-3.0,-15.0,-44.0,8.0,17.0,14.0,0.0,1.0
1705334342.655069,4.0,-22.0,34.0,18.0,13.0,6.0,7.0,4.0
1705334342.655069,-2.0,-20.0,65.0,22.0,-5.0,-7.0,-5.0,0.0
1705334342.675036,2.0,0.0,-20.0,-20.0,11.0,5.0,2.0,-13.0
1705334342.675036,-10.0,8.0,-23.0,-1.0,-21.0,-18.0,-13.0,-21.0
1705334342.675036,-10.0,-9.0,-95.0,-36.0,-16.0,-9.0,-4.0,26.0
1705334342.675036,-1.0,-21.0,56.0,-25.0,-16.0,-16.0,-9.0,-6.0
1705334342.6950347,6.0,-7.0,-8.0,20.0,18.0,10.0,4.0,4.0
1705334342.6950347,11.0,-12.0,103.0,25.0,4.0,9.0,10.0,6.0
1705334342.6950347,-8.0,-11.0,-85.0,-36.0,-5.0,-6.0,-6.0,-11.0
1705334342.6950347,-3.0,27.0,-90.0,-45.0,-15.0,-1.0,-2.0,-1.0
1705334342.7153513,4.0,6.0,45.0,36.0,4.0,6.0,2.0,0.0
1705334342.7153513,1.0,45.0,11.0,49.0,19.0,16.0,11.0,-1.0
1705334342.7250376,0.0,-6.0,12.0,-18.0,0.0,-11.0,-5.0,-9.0
1705334342.7250376,0.0,-11.0,-100.0,-61.0,-8.0,-9.0,-8.0,5.0
1705334342.73579,0.0,28.0,58.0,5.0,0.0,-1.0,-2.0,-3.0
1705334342.73579,8.0,36.0,11.0,-13.0,-9.0,-4.0,-7.0,8.0
1705334342.7438455,-2.0,29.0,37.0,20.0,3.0,-1.0,-2.0,-5.0
1705334342.7438455,-5.0,-10.0,-83.0,2.0,-4.0,1.0,4.0,-2.0
1705334342.767681,-3.0,-18.0,13.0,18.0,9.0,11.0,9.0,0.0
1705334342.767681,-1.0,-53.0,-63.0,-34.0,-4.0,-3.0,-5.0,1.0
1705334342.767681,-4.0,-12.0,32.0,32.0,8.0,7.0,4.0,-5.0
1705334342.767681,2.0,6.0,45.0,4.0,7.0,8.0,8.0,-3.0
1705334342.7780585,-10.0,-98.0,-11.0,-2.0,-18.0,-21.0,-15.0,-3.0
1705334342.7780585,1.0,45.0,-57.0,-30.0,-11.0,-3.0,0.0,5.0
1705334342.7780585,2.0,-22.0,22.0,27.0,17.0,0.0,-1.0,-4.0
1705334342.7780585,-4.0,2.0,-7.0,-29.0,-7.0,-5.0,-5.0,2.0
1705334342.7880661,6.0,17.0,-8.0,-28.0,0.0,1.0,0.0,5.0
1705334342.7880661,1.0,-24.0,37.0,48.0,2.0,-6.0,-2.0,-1.0
1705334342.7982326,-7.0,-4.0,-53.0,-28.0,-16.0,-10.0,-9.0,-7.0
1705334342.7982326,0.0,7.0,31.0,11.0,1.0,0.0,-2.0,0.0
1705334342.8181114,0.0,6.0,4.0,1.0,-4.0,-1.0,-1.0,0.0
1705334342.8181114,2.0,-2.0,-12.0,4.0,7.0,5.0,3.0,1.0
1705334342.8181114,0.0,8.0,64.0,3.0,-7.0,-4.0,-2.0,-1.0
1705334342.8181114,-1.0,-20.0,-35.0,6.0,-1.0,-4.0,4.0,5.0
1705334342.8383415,3.0,36.0,66.0,28.0,11.0,16.0,9.0,0.0
1705334342.8383415,-4.0,-35.0,-12.0,-17.0,-6.0,-10.0,-7.0,-2.0
1705334342.8383415,-2.0,-13.0,-81.0,-53.0,-8.0,-4.0,-11.0,-6.0
1705334342.8383415,-2.0,9.0,71.0,36.0,-6.0,-7.0,-7.0,-4.0
1705334342.854925,2.0,5.0,-46.0,-15.0,2.0,1.0,1.0,3.0
1705334342.854925,12.0,12.0,83.0,118.0,33.0,24.0,18.0,5.0
1705334342.8649325,-23.0,1.0,-13.0,-76.0,-44.0,-32.0,-19.0,-10.0
1705334342.8649325,-3.0,-5.0,-6.0,20.0,-4.0,-1.0,-7.0,-2.0
1705334342.8752477,-3.0,40.0,70.0,27.0,-2.0,2.0,-4.0,-5.0
1705334342.8752477,-2.0,-9.0,19.0,4.0,2.0,2.0,-1.0,1.0
1705334342.8849342,5.0,-18.0,-67.0,1.0,10.0,5.0,4.0,-1.0
1705334342.8849342,3.0,20.0,3.0,2.0,1.0,-3.0,-1.0,-1.0
1705334342.8953984,-8.0,-5.0,-25.0,-26.0,-4.0,-2.0,-2.0,-1.0
1705334342.8953984,2.0,-5.0,9.0,-2.0,2.0,2.0,0.0,1.0
1705334342.9049752,6.0,51.0,13.0,10.0,6.0,6.0,3.0,-1.0
1705334342.9049752,-10.0,-37.0,-54.0,-47.0,-16.0,-12.0,-6.0,-6.0
1705334342.9049752,-2.0,12.0,18.0,25.0,9.0,2.0,3.0,0.0
1705334342.9049752,-2.0,9.0,-28.0,-28.0,-7.0,-5.0,-4.0,-1.0
1705334342.9149873,3.0,-14.0,33.0,25.0,5.0,6.0,5.0,4.0
1705334342.9149873,6.0,13.0,21.0,23.0,9.0,7.0,1.0,-2.0
1705334342.9354413,-3.0,15.0,1.0,-17.0,-5.0,0.0,6.0,1.0
1705334342.9354413,-4.0,14.0,-28.0,-28.0,-12.0,-17.0,-21.0,-9.0
1705334342.9450715,-2.0,-21.0,33.0,26.0,5.0,11.0,8.0,3.0
1705334342.9450715,5.0,33.0,11.0,-24.0,-2.0,-2.0,-2.0,0.0
1705334342.9554374,-5.0,15.0,57.0,43.0,15.0,9.0,4.0,2.0
1705334342.9554374,0.0,19.0,36.0,-17.0,-7.0,-5.0,1.0,2.0
1705334342.9554374,5.0,-16.0,11.0,11.0,-1.0,6.0,5.0,3.0
1705334342.9554374,2.0,-4.0,78.0,18.0,5.0,1.0,-2.0,0.0
1705334342.9749873,-8.0,-19.0,-13.0,-32.0,-7.0,-8.0,-7.0,-2.0
1705334342.9749873,-5.0,9.0,2.0,19.0,2.0,0.0,2.0,-3.0
1705334342.9849885,2.0,-12.0,4.0,9.0,7.0,8.0,5.0,2.0
1705334342.9849885,-7.0,31.0,-29.0,-7.0,1.0,7.0,6.0,-2.0
1705334343.0054471,-2.0,36.0,-10.0,2.0,1.0,5.0,6.0,1.0
1705334343.0054471,3.0,34.0,-52.0,33.0,14.0,18.0,13.0,0.0
1705334343.0054471,-25.0,-27.0,-71.0,-70.0,-21.0,-14.0,-10.0,-11.0
1705334343.0054471,-13.0,20.0,13.0,-2.0,-2.0,5.0,4.0,-2.0
1705334343.0249894,4.0,37.0,-12.0,12.0,1.0,4.0,0.0,0.0
1705334343.0249894,2.0,-4.0,32.0,-10.0,2.0,2.0,0.0,-1.0
1705334343.0249894,11.0,-49.0,-10.0,44.0,18.0,9.0,8.0,5.0
1705334343.0249894,4.0,22.0,-16.0,34.0,0.0,-16.0,-9.0,2.0
1705334343.045407,-8.0,-114.0,-31.0,-60.0,-27.0,-34.0,-24.0,-5.0
1705334343.045407,19.0,-10.0,31.0,1.0,5.0,-2.0,-4.0,10.0
1705334343.045407,17.0,28.0,-5.0,-13.0,3.0,-10.0,-8.0,3.0
1705334343.045407,5.0,-34.0,55.0,39.0,5.0,-3.0,-4.0,0.0
1705334343.0553484,5.0,-80.0,-100.0,-59.0,-16.0,-13.0,-8.0,1.0
1705334343.0553484,-13.0,-43.0,10.0,-32.0,-5.0,-9.0,-11.0,-1.0
1705334343.0650766,9.0,2.0,38.0,20.0,2.0,-1.0,-1.0,2.0
1705334343.0650766,0.0,55.0,-24.0,-26.0,3.0,2.0,-3.0,-1.0
1705334343.0754342,4.0,-5.0,39.0,3.0,-9.0,-14.0,-8.0,1.0
1705334343.0754342,-10.0,-19.0,14.0,-1.0,-1.0,4.0,2.0,-1.0
1705334343.0754342,-1.0,56.0,-41.0,-6.0,3.0,4.0,2.0,-3.0
1705334343.0754342,-13.0,-31.0,-46.0,-57.0,-21.0,-11.0,-9.0,-7.0
1705334343.0950172,2.0,19.0,89.0,29.0,7.0,8.0,3.0,-3.0
1705334343.0950172,-14.0,-2.0,-27.0,19.0,2.0,3.0,3.0,-3.0
1705334343.105026,8.0,30.0,68.0,34.0,11.0,11.0,6.0,-1.0
1705334343.105026,-6.0,-104.0,-64.0,-53.0,-14.0,-8.0,-6.0,-2.0
1705334343.1150281,9.0,33.0,-55.0,-14.0,5.0,4.0,2.0,0.0
1705334343.1150281,-5.0,-47.0,21.0,-5.0,-17.0,-17.0,-12.0,-5.0
1705334343.1250353,-4.0,2.0,-11.0,25.0,0.0,-4.0,-3.0,0.0
1705334343.1250353,9.0,-3.0,-13.0,4.0,7.0,11.0,8.0,5.0
1705334343.1349878,-7.0,-11.0,-71.0,-16.0,-2.0,-2.0,-2.0,-2.0
1705334343.1349878,-31.0,-43.0,71.0,0.0,-5.0,-2.0,-2.0,-10.0
1705334343.1349878,0.0,-35.0,-40.0,-46.0,-13.0,-11.0,-6.0,-2.0
1705334343.1349878,-3.0,-49.0,-70.0,17.0,9.0,6.0,3.0,0.0
1705334343.1554477,-6.0,84.0,119.0,40.0,6.0,4.0,0.0,-3.0
1705334343.1554477,14.0,21.0,-35.0,-20.0,-4.0,-4.0,2.0,4.0
1705334343.165234,-10.0,0.0,-12.0,7.0,-2.0,-3.0,-4.0,-5.0
1705334343.165234,-3.0,-8.0,39.0,13.0,5.0,5.0,0.0,-4.0
1705334343.175431,2.0,-30.0,14.0,0.0,-4.0,-3.0,1.0,1.0
1705334343.175431,-1.0,-2.0,-84.0,-11.0,-1.0,-5.0,-7.0,-2.0
1705334343.1850305,-6.0,6.0,-17.0,-12.0,1.0,0.0,0.0,0.0
1705334343.1850305,4.0,-9.0,52.0,30.0,-7.0,-10.0,-9.0,-2.0
1705334343.1949868,10.0,-4.0,-19.0,5.0,-1.0,2.0,15.0,1.0
1705334343.1949868,8.0,21.0,-48.0,-19.0,-4.0,2.0,-3.0,2.0
1705334343.1949868,-1.0,-7.0,41.0,-7.0,1.0,3.0,4.0,-5.0
1705334343.1949868,-2.0,12.0,27.0,13.0,2.0,2.0,-6.0,-1.0
1705334343.2154408,-21.0,4.0,4.0,-8.0,-5.0,-7.0,-11.0,-7.0
1705334343.2154408,5.0,-37.0,9.0,-13.0,-5.0,-6.0,-2.0,2.0
1705334343.2251582,2.0,80.0,46.0,25.0,8.0,10.0,-2.0,5.0
1705334343.2251582,10.0,3.0,-3.0,1.0,2.0,4.0,21.0,6.0
1705334343.235427,5.0,-27.0,3.0,0.0,-2.0,-2.0,-3.0,1.0
1705334343.235427,-4.0,23.0,-1.0,4.0,3.0,6.0,3.0,6.0
1705334343.2450364,-3.0,-24.0,-3.0,-1.0,-6.0,-5.0,-23.0,-7.0
1705334343.2450364,-8.0,-14.0,11.0,-9.0,-5.0,0.0,17.0,-25.0
1705334343.255047,-7.0,-18.0,-35.0,-3.0,4.0,7.0,0.0,-2.0
1705334343.255047,-3.0,12.0,9.0,0.0,-4.0,0.0,-24.0,0.0
1705334343.255047,3.0,7.0,0.0,1.0,-4.0,3.0,32.0,5.0
1705334343.255047,11.0,23.0,33.0,12.0,5.0,3.0,-8.0,11.0
1705334343.2774336,-6.0,-26.0,-79.0,-22.0,-8.0,-7.0,-8.0,-7.0
1705334343.2774336,10.0,-1.0,54.0,27.0,4.0,1.0,-1.0,-9.0
1705334343.2774336,-5.0,-35.0,-34.0,-30.0,-7.0,-8.0,-14.0,1.0
1705334343.2774336,-3.0,31.0,25.0,0.0,0.0,0.0,-1.0,2.0
1705334343.297382,-5.0,-67.0,-84.0,-21.0,-3.0,-3.0,-1.0,-1.0
1705334343.297382,7.0,33.0,33.0,16.0,8.0,2.0,5.0,-1.0
1705334343.305989,-3.0,-19.0,40.0,10.0,-6.0,-7.0,-1.0,-1.0
1705334343.305989,1.0,47.0,-4.0,1.0,6.0,8.0,4.0,6.0
1705334343.3284671,6.0,2.0,17.0,6.0,-9.0,-4.0,-12.0,-1.0
1705334343.3284671,-1.0,-17.0,4.0,-2.0,1.0,4.0,8.0,-3.0
1705334343.3382866,9.0,-3.0,-51.0,2.0,3.0,7.0,3.0,-2.0
1705334343.3382866,2.0,-26.0,-5.0,-2.0,-2.0,-2.0,-10.0,3.0
1705334343.3382866,-11.0,37.0,26.0,6.0,4.0,5.0,8.0,0.0
1705334343.3382866,4.0,23.0,-6.0,-3.0,-2.0,0.0,3.0,2.0
1705334343.3382866,-1.0,-6.0,52.0,15.0,3.0,3.0,6.0,8.0
1705334343.3382866,-30.0,32.0,-73.0,-39.0,-14.0,-22.0,-16.0,4.0
1705334343.3758163,-2.0,-37.0,13.0,24.0,1.0,-4.0,0.0,19.0
1705334343.3758163,10.0,3.0,-35.0,-30.0,-8.0,-6.0,5.0,-27.0
1705334343.3758163,-12.0,1.0,7.0,-8.0,-4.0,-7.0,-15.0,2.0
1705334343.3758163,3.0,-62.0,-29.0,12.0,2.0,1.0,4.0,8.0
1705334343.3758163,7.0,-12.0,43.0,-9.0,1.0,-2.0,-4.0,2.0
1705334343.3758163,-13.0,-12.0,7.0,16.0,2.0,6.0,1.0,1.0
1705334343.3758163,17.0,-15.0,23.0,-1.0,-2.0,3.0,1.0,3.0
1705334343.3758163,1.0,23.0,-19.0,0.0,-3.0,2.0,-3.0,-13.0
1705334343.3958142,3.0,34.0,-7.0,-2.0,-2.0,4.0,-1.0,-4.0
1705334343.3958142,0.0,26.0,31.0,3.0,1.0,7.0,2.0,8.0
1705334343.3958142,10.0,-5.0,1.0,29.0,7.0,60.0,16.0,0.0
1705334343.3958142,-10.0,-102.0,-10.0,-42.0,-12.0,40.0,-15.0,-11.0
1705334343.4158156,-8.0,78.0,101.0,-13.0,-10.0,-15.0,-13.0,-27.0
1705334343.4158156,1.0,-12.0,-67.0,-10.0,-6.0,-32.0,14.0,19.0
1705334343.4258122,-10.0,-4.0,24.0,-9.0,-2.0,-57.0,-5.0,-7.0
1705334343.4258122,21.0,18.0,48.0,37.0,6.0,-35.0,8.0,4.0
1705334343.4359322,-1.0,-63.0,-38.0,-4.0,4.0,-10.0,-5.0,-1.0
1705334343.4359322,-5.0,-16.0,-12.0,-13.0,-7.0,-12.0,-3.0,-9.0
1705334343.4458168,6.0,-22.0,-43.0,0.0,-4.0,-7.0,-3.0,1.0
1705334343.4458168,-4.0,12.0,-2.0,1.0,1.0,5.0,-5.0,2.0
1705334343.4658182,8.0,4.0,33.0,18.0,9.0,16.0,9.0,0.0
1705334343.4658182,5.0,17.0,29.0,8.0,2.0,12.0,1.0,3.0
1705334343.4758172,-10.0,-5.0,-113.0,-30.0,-7.0,-3.0,-10.0,-9.0
1705334343.4758172,3.0,16.0,62.0,4.0,-3.0,-3.0,2.0,1.0
1705334343.4758172,0.0,13.0,33.0,10.0,3.0,0.0,3.0,-7.0
1705334343.4758172,5.0,-3.0,15.0,10.0,6.0,16.0,4.0,1.0
1705334343.4858418,-6.0,14.0,-5.0,5.0,3.0,6.0,-4.0,-5.0
1705334343.4858418,-6.0,-5.0,-1.0,-4.0,-6.0,-14.0,-5.0,-8.0
1705334343.4962327,4.0,0.0,-91.0,-21.0,-2.0,-4.0,3.0,11.0
1705334343.4962327,-47.0,-85.0,-14.0,-9.0,-7.0,-6.0,-12.0,-11.0
1705334343.4962327,-1.0,-38.0,-1.0,-7.0,3.0,-6.0,-2.0,-4.0
1705334343.4962327,10.0,-3.0,4.0,14.0,9.0,-5.0,6.0,1.0
1705334343.5162647,4.0,4.0,27.0,-2.0,-2.0,-10.0,0.0,-2.0
1705334343.5162647,1.0,-56.0,-68.0,-15.0,-9.0,-20.0,-7.0,-2.0
1705334343.5162647,5.0,45.0,126.0,32.0,10.0,4.0,4.0,-1.0
1705334343.5162647,-3.0,-19.0,-82.0,-22.0,-5.0,-14.0,-7.0,-2.0
1705334343.5363395,-11.0,-19.0,-14.0,-4.0,-2.0,-2.0,-3.0,-1.0
1705334343.5363395,16.0,54.0,25.0,-11.0,-5.0,-9.0,3.0,5.0
1705334343.545902,-28.0,29.0,17.0,9.0,3.0,-4.0,1.0,-6.0
1705334343.545902,2.0,36.0,-22.0,5.0,4.0,-4.0,4.0,3.0
1705334343.5558987,40.0,57.0,18.0,-4.0,0.0,10.0,1.0,10.0
1705334343.5558987,2.0,-13.0,-18.0,-20.0,-8.0,-1.0,-6.0,-3.0
1705334343.5558987,9.0,-1.0,21.0,2.0,0.0,2.0,-2.0,3.0
1705334343.5558987,1.0,18.0,72.0,14.0,7.0,9.0,5.0,1.0
1705334343.5959022,-21.0,-42.0,-110.0,-15.0,-6.0,-6.0,1.0,-2.0
1705334343.5959022,-2.0,44.0,78.0,26.0,6.0,0.0,-3.0,0.0
1705334343.5959022,-2.0,-32.0,-91.0,-29.0,-10.0,-7.0,-5.0,2.0
1705334343.5959022,-3.0,-20.0,-21.0,-5.0,-3.0,-4.0,-4.0,-2.0
1705334343.5959022,-8.0,-6.0,50.0,15.0,0.0,1.0,-6.0,-7.0
1705334343.5959022,8.0,16.0,24.0,-8.0,2.0,7.0,-1.0,1.0
1705334343.6061006,4.0,-28.0,4.0,4.0,-5.0,-8.0,-8.0,-2.0
1705334343.6061006,-2.0,6.0,-29.0,9.0,7.0,12.0,2.0,-1.0
1705334343.6163602,6.0,9.0,64.0,2.0,-2.0,6.0,2.0,0.0
1705334343.6163602,-23.0,-39.0,-35.0,-10.0,1.0,-1.0,-5.0,-2.0
1705334343.6163602,-3.0,1.0,43.0,5.0,-3.0,-1.0,1.0,0.0
1705334343.6163602,-7.0,-6.0,-27.0,-19.0,-8.0,1.0,-2.0,-4.0
1705334343.6458988,-27.0,-68.0,7.0,10.0,1.0,6.0,0.0,-4.0
1705334343.6458988,-3.0,-23.0,3.0,4.0,-2.0,1.0,-2.0,-3.0
1705334343.6458988,-16.0,-63.0,51.0,12.0,1.0,1.0,1.0,-2.0
1705334343.6458988,-11.0,-70.0,-63.0,-19.0,-6.0,-10.0,-7.0,-4.0
1705334343.6561701,0.0,-29.0,22.0,4.0,-4.0,-6.0,-4.0,-3.0
1705334343.6561701,10.0,5.0,-60.0,-9.0,0.0,2.0,1.0,2.0
1705334343.6659033,1.0,50.0,47.0,-3.0,-2.0,-1.0,1.0,-2.0
1705334343.6659033,1.0,16.0,35.0,20.0,5.0,5.0,2.0,0.0
1705334343.6762104,18.0,21.0,-36.0,-14.0,-3.0,1.0,2.0,5.0
1705334343.6762104,12.0,46.0,14.0,6.0,2.0,2.0,-1.0,2.0
1705334343.6762104,11.0,16.0,53.0,16.0,3.0,5.0,2.0,4.0
1705334343.6762104,-13.0,4.0,6.0,-13.0,-5.0,-5.0,-6.0,-10.0
1705334343.7058988,0.0,-6.0,-48.0,-18.0,-3.0,-4.0,-1.0,1.0
1705334343.7058988,-5.0,-6.0,-12.0,-3.0,-1.0,2.0,-2.0,-3.0
1705334343.7058988,-17.0,-50.0,-37.0,-8.0,-7.0,-5.0,-2.0,2.0
1705334343.7058988,9.0,-1.0,64.0,12.0,4.0,4.0,0.0,3.0
1705334343.7162852,-1.0,12.0,61.0,16.0,-3.0,-5.0,-4.0,-2.0
1705334343.7162852,-5.0,-19.0,-43.0,-11.0,-7.0,-6.0,-5.0,-1.0
1705334343.7259011,7.0,-12.0,-18.0,-9.0,-5.0,-3.0,-5.0,-2.0
1705334343.7259011,6.0,34.0,-38.0,11.0,8.0,12.0,8.0,4.0
1705334343.7363534,7.0,5.0,9.0,1.0,1.0,1.0,-2.0,0.0
1705334343.7363534,-28.0,-64.0,-4.0,-12.0,-10.0,-10.0,-8.0,-8.0
1705334343.7462878,19.0,43.0,-14.0,-7.0,-1.0,1.0,0.0,0.0
1705334343.7462878,3.0,-18.0,8.0,-1.0,-2.0,1.0,-1.0,1.0
1705334343.765899,-11.0,-2.0,9.0,8.0,8.0,12.0,3.0,-1.0
1705334343.765899,4.0,16.0,9.0,12.0,0.0,7.0,7.0,4.0
1705334343.765899,-34.0,-2.0,-69.0,-7.0,3.0,1.0,-3.0,-9.0
1705334343.765899,-19.0,-34.0,-15.0,-13.0,-10.0,-9.0,-5.0,-7.0
1705334343.775947,44.0,5.0,-102.0,-34.0,0.0,1.0,1.0,1.0
1705334343.775947,45.0,2.0,79.0,2.0,-3.0,-3.0,2.0,-3.0
1705334343.7859046,30.0,17.0,51.0,3.0,-8.0,-11.0,-6.0,-2.0
1705334343.7859046,8.0,26.0,46.0,13.0,4.0,6.0,2.0,3.0
1705334343.8003862,-43.0,-53.0,-56.0,-2.0,-3.0,-10.0,-1.0,-2.0
1705334343.8013928,-18.0,17.0,4.0,10.0,9.0,6.0,4.0,0.0
1705334343.808197,-12.0,-1.0,9.0,-1.0,1.0,-9.0,-3.0,-1.0
1705334343.808197,13.0,36.0,28.0,5.0,-3.0,-5.0,-2.0,4.0
1705334343.8268945,-14.0,-8.0,-13.0,-3.0,-4.0,1.0,2.0,0.0
1705334343.8268945,12.0,40.0,-3.0,6.0,5.0,4.0,0.0,-2.0
1705334343.8268945,-6.0,5.0,73.0,11.0,2.0,7.0,3.0,-1.0
1705334343.8268945,-14.0,-9.0,-99.0,-15.0,-6.0,0.0,-4.0,-3.0
1705334343.8369226,-10.0,2.0,57.0,-1.0,-3.0,4.0,-2.0,-2.0
1705334343.8369226,-2.0,16.0,-42.0,-17.0,-3.0,1.0,-1.0,1.0
1705334343.8468964,0.0,1.0,-36.0,-27.0,-8.0,1.0,-3.0,-3.0
1705334343.8468964,6.0,1.0,72.0,3.0,-4.0,5.0,-2.0,0.0
1705334343.8570511,4.0,47.0,28.0,20.0,8.0,10.0,-1.0,0.0
1705334343.8570511,-4.0,-22.0,-23.0,9.0,-1.0,5.0,-6.0,-3.0
1705334343.8760788,5.0,-19.0,-7.0,8.0,4.0,12.0,-1.0,1.0
1705334343.8760788,4.0,7.0,-75.0,-18.0,-2.0,5.0,-1.0,1.0
1705334343.8760788,4.0,15.0,30.0,11.0,2.0,-3.0,-6.0,-5.0
1705334343.8760788,-10.0,-19.0,21.0,7.0,0.0,0.0,-1.0,-2.0
1705334343.886112,14.0,65.0,-26.0,-7.0,3.0,5.0,3.0,-3.0
1705334343.886112,-1.0,50.0,39.0,7.0,0.0,-1.0,2.0,2.0
1705334343.8964384,-5.0,-22.0,-2.0,-14.0,-14.0,-8.0,-6.0,-2.0
1705334343.8964384,2.0,-16.0,16.0,3.0,2.0,7.0,-4.0,-2.0
1705334343.9060817,9.0,-36.0,-31.0,8.0,-3.0,3.0,5.0,6.0
1705334343.9060817,-10.0,-62.0,13.0,-3.0,5.0,1.0,-2.0,-8.0
1705334343.9165115,7.0,-10.0,12.0,-1.0,-5.0,-1.0,1.0,3.0
1705334343.9165115,-3.0,16.0,-18.0,-4.0,0.0,-5.0,-3.0,3.0
1705334343.9264257,-12.0,-38.0,36.0,-4.0,-4.0,-5.0,-7.0,-18.0
1705334343.9264257,-4.0,-27.0,8.0,-2.0,5.0,5.0,-1.0,1.0
1705334343.9363668,-10.0,-51.0,8.0,8.0,5.0,5.0,3.0,3.0
1705334343.9363668,41.0,55.0,-17.0,4.0,0.0,3.0,2.0,1.0
1705334343.9363668,3.0,-43.0,-43.0,-4.0,-3.0,-2.0,-1.0,5.0
1705334343.9363668,2.0,-15.0,-19.0,-5.0,-4.0,-5.0,-3.0,-2.0
1705334343.9760783,12.0,29.0,35.0,-1.0,2.0,-1.0,-2.0,-4.0
1705334343.9760783,-24.0,-53.0,30.0,3.0,-3.0,-2.0,1.0,-3.0
1705334343.9760783,-7.0,26.0,-81.0,-1.0,3.0,0.0,2.0,1.0
1705334343.9760783,22.0,28.0,39.0,-14.0,-5.0,-2.0,5.0,0.0
1705334343.9760783,-36.0,-44.0,1.0,11.0,2.0,-4.0,-5.0,-8.0
1705334343.9760783,-4.0,-34.0,-6.0,0.0,-4.0,-7.0,-1.0,-1.0
1705334343.9862812,-14.0,-5.0,90.0,9.0,1.0,-6.0,-4.0,-4.0
1705334343.9862812,-14.0,-76.0,-95.0,-15.0,-6.0,-10.0,-3.0,-3.0
1705334343.9963868,0.0,-4.0,1.0,4.0,2.0,-5.0,1.0,0.0
1705334343.9963868,-35.0,-59.0,1.0,-8.0,-2.0,1.0,1.0,-7.0
1705334343.9963868,6.0,-5.0,6.0,0.0,-1.0,-1.0,-2.0,0.0
1705334343.9963868,-14.0,-33.0,34.0,5.0,-1.0,-5.0,-1.0,0.0
1705334344.0262208,5.0,-8.0,-45.0,-21.0,-5.0,-3.0,-1.0,12.0
1705334344.0262208,19.0,53.0,-28.0,-4.0,-3.0,-2.0,-1.0,2.0
1705334344.0262208,10.0,36.0,55.0,-2.0,1.0,0.0,11.0,3.0
1705334344.0262208,3.0,-72.0,-81.0,-1.0,-4.0,-6.0,-13.0,8.0
1705334344.0363753,-12.0,52.0,27.0,-4.0,4.0,-5.0,-13.0,-32.0
1705334344.0363753,8.0,-3.0,38.0,3.0,-2.0,-2.0,2.0,7.0
1705334344.0660772,-9.0,-39.0,-20.0,-5.0,-4.0,-5.0,-1.0,3.0
1705334344.0660772,5.0,22.0,39.0,17.0,4.0,2.0,0.0,-2.0
1705334344.0660772,43.0,34.0,-24.0,-3.0,-4.0,-4.0,7.0,13.0
1705334344.0660772,-4.0,-2.0,10.0,-1.0,5.0,1.0,-2.0,-4.0
1705334344.0660772,2.0,5.0,2.0,7.0,5.0,4.0,-2.0,-2.0
1705334344.0660772,-10.0,10.0,93.0,12.0,4.0,0.0,4.0,14.0
1705334344.0862398,-8.0,-21.0,-73.0,-4.0,-1.0,-1.0,0.0,21.0
1705334344.0862398,-27.0,-24.0,-19.0,-6.0,-4.0,-5.0,1.0,-61.0
1705334344.0862398,35.0,25.0,-21.0,-2.0,3.0,2.0,7.0,25.0
1705334344.0862398,-3.0,36.0,45.0,3.0,0.0,-1.0,0.0,-5.0
1705334344.0964205,-18.0,-88.0,0.0,-3.0,-1.0,-6.0,-2.0,-2.0
1705334344.0964205,0.0,36.0,34.0,11.0,7.0,-3.0,-6.0,14.0
1705334344.1060784,-15.0,-25.0,-15.0,-1.0,-5.0,-7.0,-4.0,-7.0
1705334344.1060784,3.0,43.0,-17.0,-11.0,-1.0,-4.0,2.0,-8.0
1705334344.116113,3.0,25.0,35.0,12.0,3.0,1.0,-1.0,-4.0
1705334344.116113,-3.0,-44.0,-39.0,-11.0,-7.0,-5.0,1.0,12.0
1705334344.116113,-10.0,6.0,-40.0,-10.0,-3.0,-3.0,-6.0,-24.0
1705334344.116113,-2.0,-6.0,20.0,18.0,7.0,4.0,4.0,3.0
1705334344.1460807,23.0,19.0,-1.0,-14.0,-1.0,7.0,4.0,1.0
1705334344.1460807,-4.0,14.0,16.0,-13.0,-8.0,-7.0,-6.0,1.0
1705334344.1460807,-5.0,15.0,-7.0,2.0,-4.0,-2.0,1.0,6.0
1705334344.1460807,23.0,24.0,35.0,10.0,4.0,7.0,5.0,3.0
1705334344.1560786,-19.0,-24.0,-96.0,-4.0,0.0,-6.0,-7.0,-13.0
1705334344.1560786,1.0,16.0,86.0,4.0,0.0,0.0,2.0,5.0
1705334344.1661398,3.0,28.0,32.0,12.0,5.0,0.0,-6.0,8.0
1705334344.1661398,-4.0,-11.0,-98.0,-30.0,-14.0,-11.0,-7.0,-15.0
1705334344.1763468,-27.0,-36.0,25.0,9.0,6.0,2.0,2.0,-7.0
1705334344.1763468,15.0,31.0,-24.0,5.0,4.0,4.0,1.0,5.0
1705334344.1763468,-8.0,-51.0,-20.0,-4.0,-4.0,-11.0,-2.0,3.0
1705334344.186089,-4.0,-5.0,32.0,6.0,1.0,10.0,-5.0,-8.0
1705334344.2060788,-10.0,7.0,17.0,0.0,-5.0,-5.0,2.0,-5.0
1705334344.2060788,-6.0,-22.0,-3.0,-1.0,-2.0,-3.0,-5.0,14.0
1705334344.2060788,-12.0,-34.0,29.0,0.0,0.0,2.0,1.0,-12.0
1705334344.2060788,-3.0,-16.0,-52.0,-16.0,-5.0,-9.0,1.0,-9.0
1705334344.216366,24.0,58.0,37.0,5.0,1.0,4.0,1.0,18.0
1705334344.216366,10.0,28.0,-17.0,3.0,-1.0,-4.0,-1.0,-7.0
1705334344.2264426,0.0,10.0,4.0,2.0,2.0,0.0,6.0,12.0
1705334344.2264426,-11.0,-10.0,38.0,4.0,-4.0,-9.0,-12.0,-14.0
1705334344.2362835,-2.0,-13.0,-7.0,-5.0,-1.0,3.0,-3.0,-3.0
1705334344.2362835,-12.0,-33.0,4.0,-2.0,-6.0,-8.0,-2.0,-5.0
1705334344.2362835,-14.0,-29.0,-61.0,-14.0,-1.0,2.0,3.0,5.0
1705334344.2362835,-8.0,1.0,14.0,9.0,3.0,4.0,2.0,9.0
1705334344.2660775,0.0,15.0,-34.0,-1.0,-5.0,-6.0,-4.0,-3.0
1705334344.2660775,-7.0,12.0,57.0,8.0,2.0,-2.0,0.0,-4.0
1705334344.2660775,2.0,30.0,-8.0,-6.0,-2.0,-1.0,-6.0,-10.0
1705334344.2660775,0.0,-10.0,-45.0,-23.0,-10.0,-8.0,-5.0,6.0
1705334344.2764838,3.0,-10.0,17.0,11.0,4.0,5.0,2.0,-1.0
1705334344.2764838,-21.0,-53.0,-49.0,-15.0,-5.0,-7.0,2.0,4.0
1705334344.2864442,0.0,-24.0,-13.0,1.0,2.0,5.0,-8.0,-22.0
1705334344.2864442,3.0,4.0,43.0,10.0,4.0,11.0,5.0,0.0
1705334344.2964525,5.0,-15.0,-4.0,-2.0,-3.0,-3.0,0.0,4.0
1705334344.2964525,21.0,60.0,18.0,1.0,1.0,-2.0,0.0,-2.0
1705334344.2964525,-9.0,-7.0,-39.0,-12.0,-9.0,-11.0,-7.0,6.0
1705334344.2964525,-4.0,-17.0,25.0,-12.0,-5.0,-4.0,-4.0,0.0
1705334344.3260775,-33.0,-55.0,4.0,3.0,0.0,-2.0,-3.0,-12.0
1705334344.3260775,0.0,19.0,0.0,1.0,1.0,3.0,0.0,2.0
1705334344.3273804,-2.0,0.0,1.0,1.0,1.0,-3.0,-5.0,0.0
1705334344.3273804,5.0,13.0,-3.0,8.0,2.0,2.0,10.0,-9.0
1705334344.3398752,-8.0,0.0,47.0,4.0,-2.0,-4.0,-10.0,-13.0
1705334344.3398752,10.0,-15.0,-38.0,-16.0,-4.0,-4.0,0.0,-1.0
1705334344.3485641,-12.0,47.0,16.0,-8.0,-4.0,-2.0,-2.0,-7.0
1705334344.3485641,-9.0,-32.0,-13.0,3.0,-2.0,-2.0,0.0,11.0
1705334344.361514,10.0,23.0,25.0,11.0,3.0,3.0,1.0,13.0
1705334344.361514,-3.0,-10.0,-9.0,-2.0,1.0,1.0,3.0,5.0
1705334344.361514,-3.0,-19.0,-42.0,-12.0,-5.0,-2.0,-6.0,-24.0
1705334344.361514,1.0,11.0,-1.0,-2.0,-2.0,0.0,-2.0,-1.0
1705334344.381108,9.0,8.0,10.0,8.0,0.0,1.0,8.0,17.0
1705334344.381108,3.0,4.0,26.0,24.0,7.0,9.0,-6.0,4.0
1705334344.381108,1.0,-2.0,-29.0,-23.0,-7.0,-9.0,14.0,-6.0
1705334344.381108,-8.0,-17.0,-47.0,-20.0,-14.0,-20.0,-6.0,-2.0
1705334344.3914149,-2.0,17.0,9.0,5.0,4.0,5.0,-5.0,-15.0
1705334344.3914149,-6.0,-29.0,14.0,4.0,-3.0,3.0,-12.0,-4.0
1705334344.401365,-12.0,21.0,-18.0,5.0,-1.0,7.0,4.0,8.0
1705334344.401365,-16.0,-46.0,11.0,8.0,4.0,-3.0,-4.0,-8.0
1705334344.421107,6.0,34.0,-10.0,-10.0,-4.0,-7.0,0.0,0.0
1705334344.421107,-3.0,-1.0,-24.0,-1.0,0.0,-2.0,1.0,17.0
1705334344.421107,9.0,-1.0,42.0,9.0,2.0,2.0,-1.0,-5.0
1705334344.421107,2.0,21.0,26.0,1.0,-2.0,2.0,6.0,30.0
1705334344.441459,-8.0,-10.0,-20.0,-6.0,-3.0,-3.0,-7.0,-43.0
1705334344.441459,2.0,-16.0,18.0,-8.0,1.0,-1.0,0.0,2.0
1705334344.441459,5.0,3.0,-39.0,-5.0,-4.0,-6.0,-2.0,15.0
1705334344.441459,-2.0,16.0,37.0,0.0,2.0,2.0,-3.0,4.0
1705334344.4517348,10.0,-16.0,-5.0,0.0,-3.0,-1.0,2.0,3.0
1705334344.4517348,5.0,-8.0,1.0,-7.0,-5.0,-2.0,4.0,-2.0
1705334344.4616587,1.0,-4.0,41.0,16.0,9.0,3.0,-3.0,-1.0
1705334344.4616587,4.0,23.0,1.0,12.0,3.0,4.0,-3.0,-4.0
1705334344.501391,4.0,-5.0,-44.0,-10.0,1.0,4.0,5.0,25.0
1705334344.501391,-2.0,-28.0,0.0,-8.0,-5.0,-13.0,-4.0,-38.0
1705334344.501391,-11.0,-80.0,10.0,-5.0,-6.0,8.0,-3.0,8.0
1705334344.501391,-18.0,-20.0,-19.0,-2.0,1.0,-5.0,-2.0,-20.0
1705334344.501391,3.0,27.0,24.0,5.0,-1.0,1.0,4.0,9.0
1705334344.501391,8.0,49.0,-1.0,-4.0,1.0,4.0,5.0,22.0
1705334344.501391,-2.0,-14.0,-2.0,-14.0,-8.0,-14.0,-9.0,-23.0
1705334344.501391,2.0,17.0,6.0,5.0,4.0,4.0,1.0,-3.0
1705334344.5116484,5.0,-14.0,12.0,-4.0,-1.0,0.0,-2.0,-3.0
1705334344.5116484,-7.0,-10.0,-35.0,0.0,-6.0,-12.0,-3.0,6.0
1705334344.5216115,-8.0,14.0,28.0,9.0,1.0,7.0,1.0,-4.0
1705334344.5216115,6.0,-54.0,-71.0,-19.0,-3.0,4.0,1.0,8.0
1705334344.5513906,16.0,59.0,34.0,13.0,7.0,2.0,-1.0,4.0
1705334344.5513906,-9.0,-55.0,-40.0,0.0,3.0,3.0,-8.0,-37.0
1705334344.5513906,-8.0,13.0,-1.0,-10.0,-8.0,-9.0,0.0,-1.0
1705334344.5513906,-5.0,13.0,25.0,8.0,0.0,-8.0,-6.0,6.0
1705334344.5615342,-33.0,-56.0,-23.0,-6.0,-6.0,-4.0,1.0,14.0
1705334344.5615342,-11.0,-4.0,11.0,2.0,0.0,0.0,-11.0,-43.0
1705334344.5615342,8.0,-22.0,4.0,4.0,1.0,3.0,2.0,19.0
1705334344.5615342,6.0,43.0,-16.0,-4.0,-4.0,-3.0,-3.0,-38.0
1705334344.5714808,-8.0,-25.0,8.0,1.0,0.0,2.0,-3.0,1.0
1705334344.5714808,10.0,20.0,-1.0,-1.0,-1.0,4.0,6.0,31.0
1705334344.5913959,-3.0,21.0,6.0,-1.0,2.0,0.0,-1.0,-16.0
1705334344.5913959,-5.0,-8.0,9.0,0.0,-2.0,-1.0,0.0,-1.0
1705334344.6017041,7.0,7.0,-6.0,-6.0,0.0,-5.0,-2.0,-5.0
1705334344.6017041,-4.0,-12.0,-9.0,-2.0,-5.0,-4.0,1.0,8.0
1705334344.6017041,13.0,17.0,1.0,3.0,2.0,-2.0,-5.0,2.0
1705334344.6017041,28.0,66.0,26.0,2.0,2.0,6.0,7.0,18.0
1705334344.6217792,1.0,-9.0,-4.0,-4.0,-5.0,-7.0,-4.0,-12.0
1705334344.6217792,-10.0,-26.0,2.0,-1.0,1.0,1.0,0.0,0.0
1705334344.6217792,-5.0,-21.0,0.0,4.0,0.0,-2.0,1.0,6.0
1705334344.6217792,0.0,10.0,14.0,4.0,0.0,-4.0,-3.0,-8.0
1705334344.631711,-12.0,-21.0,0.0,-9.0,-5.0,0.0,1.0,-4.0
1705334344.631711,4.0,36.0,-31.0,-6.0,0.0,0.0,0.0,0.0
1705334344.651392,44.0,113.0,26.0,4.0,0.0,0.0,2.0,11.0
1705334344.651392,-22.0,-91.0,-19.0,-6.0,-1.0,-3.0,-4.0,0.0
1705334344.6617217,7.0,-20.0,23.0,-1.0,-1.0,0.0,0.0,-1.0
1705334344.6617217,-14.0,-39.0,8.0,-2.0,0.0,1.0,-2.0,0.0
1705334344.6617217,-22.0,-65.0,-16.0,0.0,-1.0,-1.0,-4.0,-5.0
1705334344.6617217,-12.0,-62.0,29.0,-1.0,-3.0,-5.0,-2.0,-3.0
1705334344.6818173,-2.0,10.0,-16.0,-6.0,0.0,2.0,2.0,-2.0
1705334344.6818173,-9.0,3.0,20.0,2.0,-1.0,-4.0,-3.0,-2.0
1705334344.6818173,9.0,-46.0,-9.0,-2.0,0.0,1.0,1.0,6.0
1705334344.6818173,3.0,-30.0,9.0,0.0,-3.0,-2.0,2.0,0.0
1705334344.6917143,-48.0,-99.0,-31.0,-2.0,0.0,-2.0,-6.0,-12.0
1705334344.6917143,19.0,18.0,-2.0,-2.0,-2.0,1.0,2.0,6.0
1705334344.7213917,-13.0,-10.0,11.0,4.0,3.0,-1.0,-2.0,-7.0
1705334344.7213917,-22.0,-44.0,-27.0,-2.0,-2.0,-1.0,-1.0,0.0
1705334344.7213917,9.0,-32.0,-5.0,-2.0,1.0,-6.0,-3.0,-3.0
1705334344.7213917,-6.0,-56.0,-4.0,-2.0,-1.0,2.0,0.0,-1.0
1705334344.7213917,-7.0,-31.0,-1.0,1.0,-3.0,-4.0,-4.0,-1.0
1705334344.7213917,18.0,63.0,1.0,3.0,1.0,6.0,3.0,1.0
1705334344.7418177,13.0,45.0,19.0,0.0,-1.0,3.0,2.0,2.0
1705334344.7418177,6.0,84.0,4.0,4.0,1.0,-1.0,-1.0,-2.0
1705334344.7418177,7.0,-4.0,-8.0,4.0,3.0,3.0,0.0,2.0
1705334344.7418177,-7.0,13.0,-50.0,-15.0,-4.0,-6.0,-6.0,-2.0
1705334344.751728,8.0,54.0,8.0,2.0,-2.0,-3.0,-1.0,2.0
1705334344.751728,8.0,-4.0,20.0,1.0,-1.0,-1.0,0.0,5.0
1705334344.7713923,-8.0,-5.0,22.0,5.0,2.0,5.0,3.0,-2.0
1705334344.7713923,-4.0,81.0,-11.0,-5.0,-1.0,4.0,1.0,0.0
1705334344.7817516,1.0,-11.0,-12.0,-2.0,-1.0,-3.0,-1.0,-2.0
1705334344.7817516,-6.0,-21.0,-20.0,-9.0,-3.0,-1.0,-2.0,0.0
1705334344.7817516,-10.0,-6.0,-2.0,-4.0,-2.0,-3.0,-1.0,-2.0
1705334344.7817516,33.0,46.0,26.0,5.0,1.0,3.0,1.0,6.0
1705334344.8017042,3.0,-3.0,-1.0,-1.0,-4.0,-2.0,-2.0,-4.0
1705334344.8017042,12.0,16.0,4.0,3.0,0.0,3.0,2.0,2.0
1705334344.811392,24.0,87.0,8.0,-1.0,1.0,3.0,3.0,10.0
1705334344.811392,-4.0,-29.0,3.0,4.0,2.0,-3.0,-3.0,-2.0
1705334344.811392,2.0,3.0,-8.0,-2.0,-2.0,-3.0,-2.0,0.0
1705334344.811392,1.0,-9.0,5.0,1.0,-1.0,-1.0,-4.0,-1.0
1705334344.8217075,-3.0,3.0,-9.0,-4.0,-2.0,-3.0,-1.0,-2.0
1705334344.8217075,-1.0,71.0,31.0,5.0,1.0,2.0,3.0,-3.0
1705334344.8418188,-4.0,-10.0,-24.0,-4.0,0.0,-1.0,-4.0,-2.0
1705334344.8418188,-5.0,-25.0,-2.0,-2.0,-3.0,-3.0,-1.0,-3.0
1705334344.8418188,1.0,20.0,20.0,4.0,1.0,3.0,-1.0,0.0
1705334344.8418188,-12.0,-61.0,-43.0,-11.0,-4.0,-6.0,-7.0,-4.0
1705334344.8659616,4.0,0.0,-8.0,3.0,1.0,3.0,3.0,1.0
1705334344.8659616,-22.0,-51.0,1.0,2.0,0.0,2.0,0.0,-4.0
1705334344.8673525,-9.0,-90.0,-14.0,-22.0,-10.0,-13.0,-11.0,-7.0
1705334344.8673525,3.0,-38.0,37.0,13.0,2.0,-1.0,-2.0,-2.0
1705334344.8825226,-9.0,-19.0,-22.0,-15.0,-5.0,0.0,-3.0,-1.0
1705334344.8825226,-10.0,-28.0,-45.0,-5.0,0.0,-5.0,-4.0,-3.0
1705334344.8825226,-5.0,-14.0,2.0,3.0,0.0,1.0,2.0,-2.0
1705334344.8825226,-10.0,-18.0,0.0,-4.0,-1.0,-1.0,-2.0,-2.0
1705334344.9025228,2.0,5.0,12.0,3.0,-1.0,-4.0,-1.0,-1.0
1705334344.9025228,9.0,17.0,29.0,5.0,3.0,2.0,2.0,1.0
1705334344.9025228,-22.0,-75.0,-35.0,-5.0,-5.0,-7.0,-6.0,-8.0
1705334344.9025228,22.0,22.0,2.0,-1.0,-1.0,3.0,3.0,5.0
1705334344.9227402,3.0,4.0,7.0,0.0,0.0,0.0,-1.0,0.0
1705334344.9227402,6.0,32.0,2.0,-7.0,-1.0,-5.0,-4.0,1.0
1705334344.9325345,1.0,7.0,-3.0,0.0,-6.0,0.0,0.0,0.0
1705334344.9325345,-18.0,-6.0,-7.0,-1.0,0.0,-1.0,1.0,-3.0
1705334344.9425228,-1.0,28.0,-1.0,0.0,0.0,0.0,-1.0,-1.0
1705334344.9425228,4.0,-43.0,4.0,-1.0,-2.0,-3.0,0.0,1.0
1705334344.9425228,3.0,11.0,16.0,1.0,0.0,-1.0,-3.0,-1.0
1705334344.9425228,8.0,6.0,20.0,6.0,0.0,2.0,2.0,1.0
1705334344.9625516,0.0,-4.0,-8.0,4.0,2.0,0.0,1.0,-1.0
1705334344.9625516,-2.0,9.0,15.0,-1.0,-6.0,-4.0,0.0,1.0
1705334344.9625516,2.0,22.0,-52.0,-37.0,-7.0,-1.0,-3.0,0.0
1705334344.9625516,-3.0,-19.0,5.0,-6.0,-5.0,-4.0,-3.0,0.0
1705334344.992402,-2.0,-10.0,16.0,6.0,2.0,0.0,-1.0,-2.0
1705334344.992402,-12.0,-70.0,1.0,8.0,-1.0,-1.0,-2.0,-3.0
1705334344.992402,14.0,43.0,26.0,15.0,3.0,2.0,1.0,3.0
1705334344.992402,-9.0,-7.0,-14.0,-5.0,-2.0,-4.0,-3.0,-3.0
1705334345.0024993,-11.0,-29.0,-13.0,-5.0,-3.0,-5.0,-2.0,-3.0
1705334345.0024993,-28.0,-56.0,-8.0,-4.0,-4.0,-3.0,-7.0,-7.0
1705334345.0024993,19.0,40.0,17.0,8.0,4.0,2.0,1.0,4.0
1705334345.0024993,-5.0,-33.0,-24.0,-6.0,-2.0,-3.0,-3.0,-2.0
1705334345.022454,2.0,-2.0,6.0,-1.0,-3.0,-3.0,-1.0,0.0
1705334345.022454,3.0,27.0,-9.0,-7.0,-3.0,2.0,1.0,0.0
1705334345.022454,-5.0,-14.0,-1.0,2.0,1.0,3.0,0.0,1.0
1705334345.022454,0.0,-20.0,10.0,6.0,2.0,3.0,1.0,-1.0
1705334345.0524023,-2.0,-5.0,-2.0,-6.0,-3.0,-4.0,-3.0,-1.0
1705334345.0524023,11.0,54.0,8.0,3.0,0.0,2.0,0.0,-1.0
1705334345.0524023,9.0,-20.0,8.0,3.0,4.0,1.0,2.0,-2.0
1705334345.0524023,-5.0,-9.0,-63.0,-11.0,-2.0,-1.0,-4.0,-2.0
1705334345.0624545,-10.0,-56.0,-5.0,-10.0,-7.0,-8.0,-2.0,-3.0
1705334345.0624545,9.0,4.0,6.0,2.0,1.0,-5.0,-1.0,2.0
1705334345.0624545,-15.0,-47.0,7.0,8.0,4.0,-1.0,0.0,-3.0
1705334345.0624545,15.0,51.0,13.0,6.0,1.0,3.0,4.0,2.0
1705334345.0824084,7.0,-4.0,6.0,-9.0,-5.0,-5.0,-4.0,-1.0
1705334345.0824084,3.0,6.0,-2.0,-1.0,-1.0,2.0,1.0,1.0
1705334345.102405,-11.0,-14.0,0.0,3.0,-1.0,1.0,0.0,-1.0
1705334345.102405,-2.0,-36.0,16.0,6.0,0.0,-1.0,-3.0,-1.0
1705334345.102405,-3.0,6.0,-18.0,-3.0,-2.0,1.0,-1.0,-1.0
1705334345.102405,9.0,29.0,0.0,-11.0,-2.0,0.0,0.0,1.0
1705334345.1125045,0.0,-4.0,2.0,2.0,0.0,0.0,-1.0,1.0
1705334345.1125045,-7.0,-3.0,1.0,0.0,0.0,-4.0,-2.0,-2.0
1705334345.1228137,5.0,32.0,-2.0,8.0,4.0,3.0,-2.0,0.0
1705334345.1228137,-7.0,-58.0,27.0,5.0,3.0,7.0,4.0,-2.0
1705334345.1228137,-5.0,85.0,-12.0,-6.0,-4.0,-1.0,-1.0,-3.0
1705334345.1228137,1.0,-2.0,-18.0,-10.0,-2.0,-5.0,-1.0,0.0
1705334345.1427813,-1.0,-26.0,-9.0,4.0,1.0,-2.0,2.0,0.0
1705334345.1427813,-3.0,-20.0,-3.0,3.0,-1.0,-2.0,-2.0,-3.0
1705334345.1427813,3.0,-47.0,-1.0,-3.0,-7.0,-5.0,-3.0,-2.0
1705334345.1427813,16.0,45.0,28.0,0.0,2.0,1.0,-1.0,0.0
1705334345.1724021,6.0,13.0,-23.0,-15.0,-2.0,2.0,0.0,0.0
1705334345.1724021,5.0,11.0,4.0,2.0,2.0,-1.0,-1.0,1.0
1705334345.1724021,1.0,-14.0,-5.0,14.0,3.0,-4.0,-5.0,-2.0
1705334345.1724021,-9.0,-17.0,-9.0,0.0,-7.0,-3.0,-3.0,-1.0
1705334345.1824696,-1.0,-5.0,8.0,1.0,-1.0,0.0,-2.0,-1.0
1705334345.1824696,2.0,23.0,-2.0,1.0,-4.0,-2.0,-1.0,1.0
1705334345.1824696,-3.0,0.0,13.0,1.0,-5.0,0.0,0.0,-2.0
1705334345.1824696,-6.0,-25.0,-33.0,-7.0,0.0,-2.0,-2.0,-5.0
1705334345.2026615,-2.0,-3.0,20.0,-4.0,-1.0,-2.0,2.0,-2.0
1705334345.2026615,-15.0,-78.0,-32.0,-6.0,-5.0,-6.0,-8.0,-6.0
1705334345.2026615,-6.0,-12.0,18.0,-2.0,4.0,2.0,-2.0,-1.0
1705334345.2026615,-3.0,-32.0,10.0,4.0,-3.0,-4.0,-3.0,-1.0
1705334345.2224019,0.0,-8.0,1.0,6.0,0.0,1.0,0.0,0.0
1705334345.2224019,-11.0,-21.0,9.0,4.0,0.0,-6.0,-3.0,-4.0
1705334345.2224019,1.0,-12.0,-66.0,-31.0,-6.0,-4.0,-3.0,1.0
1705334345.2224019,6.0,-19.0,1.0,-7.0,-4.0,-1.0,-3.0,0.0
1705334345.2427597,-1.0,-12.0,10.0,0.0,-2.0,-1.0,-1.0,-1.0
1705334345.2427597,13.0,43.0,16.0,4.0,3.0,5.0,3.0,3.0
1705334345.2427597,2.0,5.0,20.0,11.0,3.0,-2.0,0.0,1.0
1705334345.2427597,-4.0,-4.0,-12.0,-7.0,-3.0,-1.0,1.0,-1.0
1705334345.2927814,-2.0,-13.0,9.0,7.0,0.0,0.0,0.0,0.0
1705334345.2927814,2.0,22.0,-25.0,-16.0,-2.0,-3.0,-1.0,-1.0
1705334345.2927814,-1.0,5.0,7.0,1.0,-2.0,3.0,2.0,-1.0
1705334345.2927814,-4.0,-2.0,15.0,4.0,-2.0,-1.0,-3.0,-3.0
1705334345.2927814,4.0,1.0,12.0,15.0,4.0,4.0,0.0,-1.0
1705334345.2927814,-12.0,23.0,-9.0,-2.0,-1.0,0.0,1.0,-2.0
1705334345.2927814,1.0,-12.0,-51.0,-22.0,-7.0,-10.0,-5.0,-4.0
1705334345.2927814,-6.0,-8.0,9.0,4.0,0.0,-1.0,-1.0,-3.0
1705334345.3030355,1.0,3.0,2.0,-3.0,1.0,0.0,0.0,3.0
1705334345.3030355,9.0,14.0,37.0,7.0,-1.0,1.0,-1.0,0.0
1705334345.3030355,-13.0,-59.0,-31.0,1.0,-1.0,0.0,-1.0,-3.0
1705334345.3030355,-10.0,-8.0,4.0,-5.0,0.0,-5.0,-4.0,-2.0
1705334345.3327808,-1.0,-8.0,1.0,1.0,-3.0,-4.0,-1.0,-1.0
1705334345.3327808,4.0,11.0,-8.0,-2.0,-1.0,0.0,0.0,0.0
1705334345.3327808,3.0,21.0,22.0,3.0,-1.0,1.0,0.0,-1.0
1705334345.3327808,-12.0,-8.0,-5.0,7.0,-1.0,3.0,0.0,-6.0
1705334345.3428485,-1.0,-19.0,-16.0,-5.0,-1.0,1.0,-2.0,-5.0
1705334345.3428485,-5.0,-17.0,3.0,4.0,0.0,1.0,-1.0,0.0
1705334345.3428485,3.0,6.0,9.0,-5.0,-3.0,-1.0,1.0,-2.0
1705334345.3428485,4.0,4.0,-4.0,-4.0,1.0,-1.0,1.0,0.0
1705334345.362846,-2.0,-2.0,-9.0,-5.0,-1.0,4.0,0.0,-2.0
1705334345.362846,3.0,8.0,12.0,4.0,2.0,-1.0,-2.0,-1.0
1705334345.362846,-2.0,-1.0,5.0,7.0,0.0,-3.0,-2.0,-1.0
1705334345.362846,-7.0,-1.0,-61.0,-20.0,-5.0,-2.0,0.0,-1.0
1705334345.3900268,0.0,13.0,12.0,2.0,-2.0,-2.0,0.0,0.0
1705334345.3900268,0.0,4.0,-6.0,-3.0,-1.0,-1.0,1.0,-3.0
1705334345.3908308,-2.0,31.0,31.0,8.0,3.0,4.0,4.0,0.0
1705334345.3908308,0.0,-3.0,16.0,3.0,-1.0,-3.0,-2.0,-2.0
1705334345.4070134,-1.0,4.0,-13.0,-4.0,-3.0,2.0,-2.0,0.0
1705334345.4079986,2.0,-6.0,-17.0,-1.0,0.0,-1.0,0.0,-1.0
1705334345.4079986,1.0,-4.0,15.0,0.0,0.0,0.0,2.0,1.0
1705334345.4079986,1.0,-7.0,-8.0,3.0,-2.0,0.0,0.0,-1.0
1705334345.4353914,-4.0,1.0,6.0,-4.0,-1.0,-3.0,0.0,-2.0
1705334345.4353914,0.0,17.0,-1.0,0.0,-2.0,-1.0,-2.0,0.0
1705334345.4353914,-3.0,-4.0,5.0,4.0,-1.0,-1.0,0.0,-1.0
1705334345.4353914,0.0,-6.0,-24.0,-5.0,1.0,2.0,0.0,0.0
1705334345.4454498,4.0,4.0,4.0,4.0,0.0,0.0,-1.0,1.0
1705334345.4454498,-1.0,10.0,-11.0,-8.0,-4.0,-1.0,-2.0,-3.0
1705334345.4454498,0.0,-2.0,8.0,1.0,-1.0,-1.0,-2.0,0.0
1705334345.4454498,-3.0,8.0,36.0,13.0,2.0,3.0,-1.0,-3.0
1705334345.4654636,-5.0,-5.0,-38.0,-4.0,1.0,-2.0,-2.0,-3.0
1705334345.4654636,8.0,-8.0,-14.0,-3.0,-3.0,-3.0,-3.0,0.0
1705334345.4654636,1.0,-2.0,12.0,5.0,0.0,2.0,1.0,0.0
1705334345.4654636,3.0,1.0,-15.0,-14.0,-4.0,-5.0,1.0,2.0
1705334345.4927518,-2.0,10.0,17.0,1.0,-3.0,0.0,-1.0,1.0
1705334345.4927518,-9.0,-38.0,-12.0,0.0,0.0,-1.0,-2.0,-4.0
1705334345.4927518,2.0,-6.0,-13.0,-10.0,-3.0,-2.0,-2.0,-1.0
1705334345.4927518,1.0,-4.0,39.0,11.0,0.0,-1.0,-2.0,0.0
1705334345.5030823,5.0,31.0,21.0,2.0,0.0,0.0,3.0,0.0
1705334345.5030823,-4.0,9.0,-53.0,-18.0,-2.0,-2.0,-2.0,1.0
1705334345.5030823,1.0,-5.0,4.0,-1.0,-2.0,-2.0,-4.0,-3.0
1705334345.5030823,0.0,-7.0,3.0,2.0,0.0,1.0,-2.0,-1.0
1705334345.5233276,-4.0,-12.0,6.0,2.0,-1.0,-2.0,-2.0,-2.0
1705334345.5233276,7.0,25.0,36.0,3.0,0.0,1.0,1.0,1.0
1705334345.5233276,2.0,29.0,-14.0,-5.0,-1.0,-1.0,0.0,-1.0
1705334345.5233276,3.0,13.0,1.0,-3.0,0.0,-2.0,0.0,0.0
1705334345.5630982,-4.0,-25.0,-4.0,-5.0,-3.0,-2.0,-3.0,-2.0
1705334345.5630982,-5.0,-9.0,-1.0,5.0,1.0,0.0,-1.0,-3.0
1705334345.5630982,1.0,-15.0,-16.0,0.0,1.0,-2.0,-1.0,0.0
1705334345.5630982,-3.0,-10.0,15.0,3.0,0.0,1.0,2.0,0.0
1705334345.5630982,-1.0,-4.0,-14.0,-12.0,-7.0,-9.0,-6.0,-5.0
1705334345.5630982,-3.0,5.0,3.0,-2.0,-1.0,0.0,-1.0,-1.0
1705334345.5630982,-5.0,-14.0,6.0,1.0,0.0,1.0,-1.0,-1.0
1705334345.5630982,-5.0,-44.0,-10.0,-1.0,-3.0,-3.0,-4.0,-2.0
1705334345.5833018,0.0,-4.0,-4.0,4.0,2.0,4.0,3.0,-1.0
1705334345.5833018,9.0,24.0,8.0,3.0,1.0,1.0,-1.0,2.0
1705334345.5833018,-3.0,-1.0,3.0,-2.0,-1.0,-5.0,-4.0,1.0
1705334345.5833018,-1.0,7.0,1.0,-5.0,-3.0,-3.0,0.0,-1.0
1705334345.603313,-3.0,1.0,3.0,-3.0,-1.0,-1.0,-1.0,1.0
1705334345.603313,-2.0,-18.0,-27.0,-2.0,0.0,2.0,1.0,-4.0
1705334345.603313,4.0,37.0,5.0,2.0,0.0,0.0,0.0,-1.0
1705334345.603313,2.0,10.0,5.0,-4.0,-4.0,-2.0,-4.0,-1.0
1705334345.6235502,-7.0,1.0,-16.0,-4.0,-1.0,-4.0,-2.0,-2.0
1705334345.6235502,2.0,-2.0,15.0,5.0,0.0,0.0,1.0,1.0
1705334345.6235502,-8.0,5.0,3.0,3.0,-1.0,-1.0,0.0,-2.0
1705334345.6235502,-4.0,-1.0,-9.0,-2.0,-2.0,0.0,0.0,-2.0
1705334345.6434422,1.0,-5.0,11.0,-2.0,-3.0,-3.0,-3.0,-2.0
1705334345.6434422,-3.0,-9.0,-3.0,0.0,-1.0,0.0,-1.0,-1.0
1705334345.6434422,2.0,-13.0,-10.0,-10.0,-3.0,-4.0,-2.0,0.0
1705334345.6434422,1.0,-1.0,-2.0,-1.0,-2.0,-3.0,0.0,0.0
1705334345.6633146,-7.0,-31.0,-20.0,-8.0,-4.0,-3.0,-2.0,-3.0
1705334345.6633146,-1.0,-22.0,-4.0,0.0,1.0,-1.0,-1.0,-2.0
1705334345.673339,5.0,1.0,15.0,4.0,-2.0,0.0,-1.0,-1.0
1705334345.673339,2.0,17.0,-2.0,-1.0,1.0,0.0,-1.0,3.0
1705334345.683588,1.0,-1.0,-2.0,1.0,0.0,-2.0,-3.0,1.0
1705334345.683588,-3.0,-5.0,16.0,-2.0,-4.0,-6.0,-1.0,-2.0
1705334345.683588,-2.0,-16.0,-25.0,-1.0,0.0,-1.0,-1.0,-2.0
1705334345.683588,-3.0,-13.0,4.0,-6.0,-3.0,-2.0,-2.0,-1.0
1705334345.7035627,2.0,12.0,20.0,6.0,0.0,3.0,0.0,1.0
1705334345.7035627,-5.0,4.0,-34.0,-12.0,-4.0,-5.0,-4.0,0.0
1705334345.7035627,-2.0,-14.0,-27.0,-8.0,-1.0,4.0,2.0,-1.0
1705334345.7035627,5.0,11.0,24.0,5.0,0.0,0.0,-3.0,0.0
1705334345.7234683,4.0,47.0,-2.0,2.0,3.0,2.0,2.0,1.0
1705334345.7234683,4.0,1.0,18.0,2.0,1.0,-1.0,1.0,-1.0
1705334345.7234683,-4.0,-10.0,1.0,7.0,0.0,0.0,0.0,-1.0
1705334345.7234683,1.0,-9.0,-7.0,1.0,0.0,0.0,-1.0,0.0
1705334345.7435665,1.0,-12.0,2.0,-2.0,-2.0,-2.0,-2.0,-3.0
1705334345.7435665,-7.0,6.0,-1.0,1.0,-2.0,1.0,0.0,-4.0
1705334345.7435665,-3.0,36.0,10.0,-1.0,0.0,-1.0,-2.0,0.0
1705334345.7435665,-2.0,-2.0,-8.0,0.0,-2.0,-1.0,-1.0,0.0
1705334345.7634203,0.0,-9.0,2.0,-2.0,-1.0,-4.0,-1.0,-1.0
1705334345.7634203,-9.0,-27.0,-35.0,-13.0,-5.0,-3.0,-3.0,-2.0
1705334345.7634203,3.0,-11.0,31.0,3.0,0.0,1.0,0.0,-1.0
1705334345.7634203,-9.0,-31.0,-1.0,5.0,-2.0,-5.0,-3.0,-6.0
1705334345.7833107,-11.0,-18.0,-47.0,-15.0,-5.0,-2.0,-1.0,-4.0
1705334345.7833107,0.0,-4.0,6.0,5.0,0.0,0.0,0.0,1.0
1705334345.7833107,-1.0,-9.0,-9.0,-4.0,-2.0,-2.0,-1.0,-2.0
1705334345.7833107,2.0,-8.0,25.0,6.0,1.0,1.0,2.0,1.0
1705334345.803542,-3.0,1.0,-33.0,1.0,2.0,-1.0,-2.0,-2.0
1705334345.803542,-1.0,7.0,3.0,-13.0,-6.0,-3.0,-3.0,-1.0
1705334345.803542,1.0,-2.0,7.0,3.0,-3.0,-1.0,-1.0,0.0
1705334345.803542,5.0,48.0,7.0,3.0,1.0,0.0,1.0,0.0
1705334345.8333092,-8.0,-8.0,13.0,3.0,0.0,-1.0,-2.0,-2.0
1705334345.8333092,2.0,12.0,-4.0,4.0,2.0,2.0,0.0,-2.0
1705334345.8333092,-2.0,-7.0,-4.0,-2.0,-2.0,-2.0,-3.0,-1.0
1705334345.8333092,-2.0,-13.0,-7.0,-3.0,-2.0,-2.0,-2.0,-1.0
1705334345.8436522,7.0,17.0,10.0,0.0,0.0,-1.0,0.0,0.0
1705334345.8436522,-1.0,0.0,4.0,4.0,1.0,2.0,-1.0,-2.0
1705334345.8436522,-1.0,-20.0,-6.0,-3.0,-2.0,-4.0,-3.0,-1.0
1705334345.8436522,-12.0,26.0,10.0,3.0,2.0,3.0,0.0,-2.0
1705334345.8833098,-3.0,-32.0,-22.0,-3.0,-4.0,-4.0,-1.0,1.0
1705334345.8833098,-8.0,-1.0,14.0,-4.0,-2.0,3.0,-2.0,-4.0
1705334345.8833098,-1.0,-6.0,-5.0,-3.0,-3.0,-2.0,0.0,-1.0
1705334345.8833098,1.0,10.0,-9.0,-3.0,-1.0,3.0,1.0,-2.0
1705334345.8833098,2.0,0.0,15.0,4.0,-3.0,-1.0,-1.0,0.0
1705334345.8833098,1.0,6.0,-3.0,0.0,-1.0,-2.0,0.0,1.0
1705334345.8833098,-6.0,12.0,-4.0,0.0,-1.0,-2.0,-2.0,-4.0
1705334345.8833098,1.0,-5.0,-5.0,-2.0,0.0,-2.0,-1.0,2.0
1705334345.9037163,3.0,-1.0,10.0,-1.0,-4.0,-2.0,1.0,1.0
1705334345.9037163,3.0,-5.0,-2.0,1.0,-2.0,-5.0,-3.0,0.0
1705334345.9037163,2.0,-7.0,5.0,-1.0,0.0,-1.0,1.0,-1.0
1705334345.9037163,5.0,4.0,13.0,2.0,1.0,1.0,-1.0,-1.0
1705334345.9255443,-4.0,13.0,-10.0,-9.0,-2.0,2.0,1.0,-1.0
1705334345.9255443,6.0,8.0,-4.0,-2.0,-1.0,-2.0,-1.0,2.0
1705334345.9255443,-13.0,24.0,1.0,3.0,2.0,2.0,-1.0,-1.0
1705334345.9255443,-10.0,-8.0,4.0,-6.0,-2.0,-5.0,-3.0,-4.0
1705334345.9451616,-3.0,-26.0,8.0,-1.0,-5.0,-5.0,-5.0,-3.0
1705334345.9451616,-13.0,-45.0,5.0,1.0,2.0,0.0,1.0,-4.0
1705334345.9451616,4.0,-12.0,-13.0,2.0,-1.0,-1.0,2.0,2.0
1705334345.9451616,0.0,-16.0,-32.0,-9.0,-2.0,-3.0,-3.0,-2.0
1705334345.9648576,3.0,25.0,21.0,-4.0,-4.0,-2.0,-1.0,2.0
1705334345.9648576,2.0,0.0,1.0,0.0,0.0,-1.0,-3.0,-4.0
1705334345.9648576,-1.0,23.0,5.0,2.0,1.0,3.0,3.0,1.0
1705334345.9648576,-1.0,-16.0,-2.0,-1.0,-1.0,-1.0,1.0,0.0
1705334345.9852252,-6.0,-13.0,-5.0,5.0,7.0,3.0,-2.0,-4.0
1705334345.9852252,-1.0,17.0,26.0,2.0,-3.0,0.0,1.0,-2.0
1705334345.9852252,0.0,30.0,9.0,3.0,1.0,0.0,1.0,1.0
1705334345.9852252,-2.0,3.0,-37.0,-16.0,-5.0,-3.0,0.0,0.0
1705334346.0037415,-1.0,6.0,6.0,-3.0,-3.0,-1.0,-2.0,-1.0
1705334346.0037415,-7.0,-22.0,3.0,3.0,4.0,0.0,-2.0,-5.0
1705334346.0037415,7.0,-23.0,3.0,-1.0,-3.0,-4.0,-2.0,-1.0
1705334346.0037415,8.0,14.0,-26.0,-2.0,-4.0,-3.0,-2.0,-1.0
1705334346.024191,-7.0,-60.0,-12.0,-8.0,-10.0,-10.0,-6.0,-3.0
1705334346.024191,17.0,70.0,52.0,19.0,8.0,3.0,6.0,10.0
1705334346.024191,0.0,-44.0,-7.0,8.0,5.0,3.0,1.0,-1.0
1705334346.024191,-5.0,-7.0,-49.0,-14.0,-10.0,-9.0,-6.0,-5.0
1705334346.0441833,9.0,17.0,32.0,-2.0,-3.0,-2.0,0.0,0.0
1705334346.0441833,-14.0,-20.0,-82.0,-31.0,-7.0,-7.0,-9.0,-5.0
1705334346.0441833,-8.0,0.0,68.0,17.0,2.0,-2.0,-3.0,-3.0
1705334346.0441833,-7.0,-21.0,-15.0,3.0,4.0,2.0,5.0,-2.0
1705334346.0637393,11.0,-15.0,75.0,14.0,6.0,4.0,0.0,-2.0
1705334346.0637393,2.0,5.0,-102.0,-19.0,-6.0,-4.0,0.0,-2.0
1705334346.0637393,2.0,-16.0,-19.0,-11.0,-3.0,-4.0,-3.0,-3.0
1705334346.0637393,-3.0,-13.0,31.0,5.0,-3.0,-1.0,-1.0,-1.0
1705334346.084087,-1.0,10.0,-7.0,6.0,5.0,5.0,4.0,1.0
1705334346.084087,3.0,-6.0,55.0,17.0,5.0,3.0,1.0,-1.0
1705334346.084087,-3.0,-32.0,-66.0,-10.0,-3.0,-3.0,-2.0,0.0
1705334346.084087,3.0,-19.0,23.0,2.0,-2.0,-2.0,-1.0,-2.0
1705334346.1136112,-3.0,57.0,-6.0,6.0,5.0,3.0,1.0,0.0
1705334346.1136112,10.0,9.0,20.0,-4.0,-7.0,-4.0,-7.0,-1.0
1705334346.1136112,0.0,-4.0,-13.0,-7.0,-3.0,-3.0,-4.0,-2.0
1705334346.1136112,-2.0,-20.0,18.0,0.0,3.0,0.0,-1.0,-1.0
1705334346.1236465,4.0,0.0,1.0,9.0,3.0,1.0,1.0,0.0
1705334346.1236465,-8.0,-14.0,18.0,6.0,-2.0,-1.0,-1.0,0.0
1705334346.1236465,-2.0,16.0,9.0,7.0,1.0,3.0,2.0,-2.0
1705334346.1236465,11.0,18.0,-17.0,-1.0,2.0,1.0,0.0,0.0
1705334346.1439354,-16.0,0.0,51.0,-5.0,-5.0,-2.0,-1.0,-2.0
1705334346.1439354,3.0,-12.0,-39.0,-10.0,-3.0,-2.0,1.0,2.0
1705334346.1439354,-1.0,-15.0,-69.0,-21.0,-11.0,-9.0,-6.0,-5.0
1705334346.1439354,-9.0,-59.0,1.0,-4.0,1.0,6.0,0.0,-2.0
1705334346.1736383,6.0,3.0,-15.0,6.0,-1.0,-3.0,0.0,2.0
1705334346.1736383,-8.0,-5.0,49.0,7.0,4.0,3.0,4.0,2.0
1705334346.1736383,-15.0,-49.0,-29.0,-20.0,-3.0,5.0,2.0,-4.0
1705334346.1736383,-4.0,32.0,55.0,16.0,-2.0,2.0,3.0,-13.0
1705334346.1836798,9.0,-17.0,-22.0,-4.0,-7.0,-16.0,-13.0,74.0
1705334346.1836798,-1.0,-6.0,-3.0,12.0,1.0,2.0,-1.0,-37.0
1705334346.1836798,1.0,49.0,2.0,6.0,4.0,7.0,9.0,38.0
1705334346.1836798,-13.0,3.0,-24.0,-11.0,0.0,5.0,-3.0,-4.0
1705334346.2136514,2.0,-56.0,-63.0,-53.0,-18.0,-13.0,-7.0,-41.0
1705334346.2136514,6.0,26.0,13.0,9.0,-2.0,0.0,-3.0,3.0
1705334346.2136514,0.0,-2.0,-1.0,-6.0,0.0,0.0,-2.0,3.0
1705334346.2136514,12.0,20.0,79.0,42.0,15.0,7.0,9.0,13.0
1705334346.224036,-18.0,-31.0,-105.0,-33.0,-11.0,-9.0,-8.0,-8.0
1705334346.224036,-3.0,-33.0,17.0,-1.0,-5.0,-5.0,-6.0,1.0
1705334346.224036,-1.0,-13.0,-22.0,-8.0,-6.0,-1.0,-3.0,-16.0
1705334346.224036,21.0,56.0,26.0,0.0,12.0,4.0,7.0,15.0
1705334346.24399,-29.0,-96.0,16.0,5.0,-4.0,6.0,-3.0,-31.0
1705334346.24399,-2.0,7.0,-53.0,-36.0,-5.0,-1.0,-2.0,8.0
1705334346.24399,11.0,33.0,25.0,2.0,-1.0,2.0,-2.0,2.0
1705334346.2536821,11.0,30.0,46.0,43.0,5.0,2.0,2.0,1.0
1705334346.263654,14.0,32.0,-71.0,3.0,12.0,10.0,5.0,-10.0
1705334346.263654,-10.0,1.0,42.0,-20.0,-8.0,-3.0,4.0,-5.0
1705334346.263654,-3.0,-59.0,23.0,13.0,-3.0,-6.0,-9.0,-39.0
1705334346.263654,-22.0,-54.0,-25.0,-39.0,-13.0,-8.0,-4.0,-4.0
1705334346.2839406,-15.0,24.0,40.0,22.0,4.0,-5.0,0.0,1.0
1705334346.2839406,3.0,2.0,8.0,12.0,0.0,-11.0,-13.0,-21.0
1705334346.2839406,17.0,-33.0,-16.0,14.0,7.0,-10.0,0.0,-19.0
1705334346.2839406,7.0,-11.0,-48.0,-14.0,-6.0,-4.0,-1.0,-15.0
1705334346.3040056,-3.0,-19.0,21.0,7.0,7.0,7.0,5.0,6.0
1705334346.3040056,11.0,60.0,35.0,23.0,6.0,-4.0,2.0,14.0
1705334346.3040056,-20.0,-31.0,-1.0,-9.0,-8.0,2.0,-6.0,9.0
1705334346.3040056,-1.0,-7.0,-69.0,-3.0,3.0,9.0,-3.0,3.0
1705334346.324027,9.0,35.0,51.0,-3.0,-4.0,3.0,3.0,9.0
1705334346.324027,-4.0,-24.0,3.0,12.0,-2.0,-2.0,-3.0,14.0
1705334346.324027,20.0,19.0,15.0,-3.0,-1.0,2.0,1.0,-3.0
1705334346.324027,1.0,26.0,2.0,-1.0,-9.0,-11.0,-6.0,7.0
1705334346.3440232,19.0,-17.0,-55.0,-20.0,8.0,14.0,5.0,-1.0
1705334346.3440232,28.0,-15.0,32.0,10.0,4.0,10.0,6.0,6.0
1705334346.3440232,4.0,36.0,-6.0,12.0,2.0,3.0,3.0,8.0
1705334346.3440232,-67.0,-19.0,-65.0,-44.0,-11.0,-13.0,-13.0,-26.0
1705334346.364419,3.0,57.0,95.0,19.0,-5.0,-18.0,-4.0,-8.0
1705334346.364419,35.0,-7.0,-20.0,8.0,-3.0,5.0,9.0,14.0
1705334346.364419,42.0,25.0,10.0,-15.0,8.0,4.0,5.0,22.0
1705334346.364419,-49.0,-59.0,-5.0,11.0,8.0,-10.0,-9.0,-22.0
1705334346.3840232,-38.0,-28.0,-16.0,3.0,-5.0,-5.0,-5.0,-15.0
1705334346.3840232,-7.0,5.0,-2.0,-4.0,-1.0,0.0,2.0,1.0
1705334346.3840232,39.0,21.0,15.0,2.0,-2.0,-3.0,-1.0,-16.0
1705334346.3840232,3.0,31.0,21.0,0.0,-4.0,4.0,6.0,41.0
1705334346.4048069,-3.0,5.0,-31.0,-16.0,-5.0,-2.0,-4.0,-6.0
1705334346.4048069,-23.0,-16.0,-24.0,-6.0,3.0,3.0,-1.0,-10.0
1705334346.4048069,7.0,7.0,20.0,5.0,-4.0,-8.0,-8.0,2.0
1705334346.4048069,22.0,-15.0,8.0,-4.0,-2.0,5.0,1.0,-18.0
1705334346.424906,5.0,-5.0,8.0,13.0,7.0,6.0,5.0,4.0
1705334346.424906,33.0,1.0,-11.0,-2.0,-2.0,-6.0,-1.0,32.0
1705334346.424906,-47.0,12.0,7.0,-11.0,-7.0,-4.0,-5.0,-4.0
1705334346.424906,32.0,14.0,0.0,-1.0,-3.0,-4.0,-4.0,-7.0
1705334346.4478436,2.0,38.0,5.0,12.0,6.0,7.0,4.0,4.0
1705334346.4478436,14.0,-38.0,-18.0,-6.0,0.0,-3.0,7.0,7.0
1705334346.4478436,-80.0,-86.0,-9.0,-2.0,-1.0,-4.0,-7.0,0.0
1705334346.4478436,-15.0,33.0,11.0,0.0,-7.0,-9.0,-3.0,5.0
1705334346.464013,43.0,27.0,4.0,14.0,12.0,18.0,58.0,38.0
1705334346.464013,10.0,-18.0,-2.0,3.0,3.0,0.0,-44.0,-23.0
1705334346.464013,-67.0,-16.0,-12.0,-16.0,-20.0,-33.0,-54.0,-90.0
1705334346.464013,4.0,-20.0,13.0,6.0,3.0,8.0,14.0,8.0
1705334346.4842193,-47.0,-38.0,-11.0,-3.0,-1.0,-1.0,16.0,18.0
1705334346.4842193,44.0,60.0,-9.0,-5.0,3.0,15.0,59.0,43.0
1705334346.5040157,-25.0,23.0,10.0,-2.0,-3.0,-9.0,-59.0,-11.0
1705334346.5040157,-19.0,-5.0,5.0,-1.0,3.0,-6.0,-17.0,-39.0
1705334346.5040157,43.0,-21.0,5.0,3.0,2.0,6.0,21.0,19.0
1705334346.5040157,-39.0,19.0,-20.0,-8.0,-9.0,-15.0,-11.0,-14.0
1705334346.5040157,35.0,34.0,-3.0,-6.0,-4.0,5.0,33.0,43.0
1705334346.5040157,9.0,-28.0,-9.0,-6.0,-4.0,2.0,1.0,19.0
1705334346.5244708,-7.0,30.0,21.0,6.0,3.0,2.0,0.0,-35.0
1705334346.5244708,-25.0,-29.0,-9.0,-2.0,3.0,6.0,-1.0,-16.0
1705334346.5244708,5.0,40.0,6.0,3.0,4.0,6.0,30.0,62.0
1705334346.5244708,16.0,-41.0,3.0,7.0,1.0,-5.0,-23.0,0.0
1705334346.544329,21.0,-8.0,-11.0,-6.0,-11.0,-25.0,-45.0,-22.0
1705334346.544329,-9.0,3.0,20.0,-2.0,-4.0,2.0,-4.0,-28.0
1705334346.544329,-12.0,-6.0,-9.0,-1.0,5.0,17.0,51.0,11.0
1705334346.544329,15.0,36.0,6.0,1.0,1.0,4.0,-4.0,17.0
1705334346.564016,27.0,-14.0,3.0,2.0,2.0,-1.0,-14.0,-1.0
1705334346.564016,-49.0,-21.0,-14.0,-6.0,-4.0,-5.0,10.0,-7.0
1705334346.564016,56.0,8.0,6.0,1.0,2.0,-1.0,3.0,9.0
1705334346.564016,9.0,28.0,11.0,2.0,1.0,2.0,0.0,16.0
1705334346.5843322,-1.0,4.0,12.0,-3.0,-6.0,-10.0,-20.0,-19.0
1705334346.5843322,-25.0,16.0,-38.0,-13.0,-5.0,-9.0,-9.0,11.0
1705334346.5843322,15.0,-34.0,-2.0,2.0,4.0,11.0,21.0,1.0
1705334346.5843322,-11.0,9.0,-6.0,-1.0,2.0,5.0,10.0,-26.0
1705334346.6340156,1.0,-42.0,4.0,4.0,-3.0,-18.0,-26.0,-37.0
1705334346.6340156,15.0,-14.0,2.0,-4.0,-7.0,-17.0,-6.0,14.0
1705334346.6340156,0.0,-45.0,-2.0,-4.0,3.0,24.0,9.0,5.0
1705334346.6340156,-6.0,2.0,12.0,1.0,-5.0,-49.0,-5.0,-59.0
1705334346.6340156,-33.0,-39.0,-23.0,-2.0,-1.0,-1.0,-23.0,-10.0
1705334346.6340156,34.0,-20.0,0.0,3.0,13.0,42.0,9.0,47.0
1705334346.6340156,-32.0,-29.0,-15.0,-10.0,-7.0,-26.0,28.0,-27.0
1705334346.6340156,-1.0,35.0,3.0,-10.0,-4.0,8.0,14.0,23.0
1705334346.6443338,-17.0,-11.0,0.0,-4.0,-5.0,-28.0,-2.0,-17.0
1705334346.6443338,-1.0,-27.0,16.0,4.0,-2.0,-16.0,-31.0,-7.0
1705334346.6443338,5.0,23.0,16.0,4.0,0.0,10.0,-19.0,-7.0
1705334346.6443338,4.0,2.0,0.0,0.0,-3.0,-7.0,7.0,16.0
1705334346.6644785,-9.0,16.0,-32.0,-3.0,0.0,10.0,-7.0,-8.0
1705334346.6644785,-27.0,25.0,-46.0,-11.0,-6.0,-31.0,-9.0,36.0
1705334346.6744473,34.0,-54.0,-14.0,-9.0,-2.0,24.0,1.0,-66.0
1705334346.6744473,-4.0,32.0,3.0,-8.0,-10.0,-20.0,-32.0,31.0
1705334346.6846795,13.0,48.0,38.0,2.0,11.0,33.0,40.0,-13.0
1705334346.6846795,6.0,-82.0,70.0,26.0,10.0,15.0,9.0,-27.0
1705334346.6846795,-35.0,59.0,-13.0,-5.0,-2.0,10.0,-9.0,50.0
1705334346.6846795,16.0,-51.0,-49.0,-6.0,-4.0,2.0,11.0,5.0
1705334346.704728,2.0,21.0,11.0,4.0,2.0,17.0,9.0,33.0
1705334346.704728,-30.0,-10.0,19.0,-4.0,1.0,-19.0,5.0,-33.0
1705334346.704728,2.0,-1.0,-79.0,-15.0,-7.0,-32.0,-25.0,8.0
1705334346.704728,-15.0,0.0,-15.0,-10.0,-3.0,13.0,-14.0,-11.0
1705334346.7339616,-8.0,-27.0,12.0,11.0,1.0,-8.0,6.0,-9.0
1705334346.7339616,5.0,60.0,49.0,16.0,11.0,44.0,11.0,7.0
1705334346.7339616,24.0,-58.0,39.0,9.0,2.0,-19.0,-10.0,-2.0
1705334346.7339616,-3.0,16.0,32.0,-3.0,-7.0,-6.0,-4.0,3.0
1705334346.7441404,-11.0,17.0,-42.0,-12.0,-12.0,-16.0,-3.0,10.0
1705334346.7441404,-5.0,-38.0,-120.0,-14.0,-3.0,-9.0,-8.0,-22.0
1705334346.7441404,1.0,21.0,112.0,11.0,7.0,11.0,3.0,7.0
1705334346.7441404,2.0,-24.0,-19.0,4.0,3.0,3.0,11.0,-10.0
1705334346.7642934,-6.0,-38.0,-27.0,-27.0,-14.0,-16.0,-21.0,8.0
1705334346.7642934,11.0,24.0,57.0,9.0,1.0,2.0,3.0,-7.0
1705334346.7739756,-4.0,2.0,18.0,0.0,2.0,-4.0,-1.0,7.0
1705334346.7739756,13.0,3.0,70.0,25.0,14.0,20.0,9.0,-10.0
1705334346.7939706,-4.0,1.0,-40.0,3.0,-1.0,-1.0,-6.0,-2.0
1705334346.7939706,-10.0,-37.0,-61.0,-9.0,-14.0,-15.0,-11.0,-3.0
1705334346.7939706,-9.0,59.0,1.0,12.0,10.0,7.0,9.0,-5.0
1705334346.7939706,-2.0,-19.0,-87.0,-45.0,-21.0,-21.0,-16.0,-3.0
1705334346.8039699,2.0,12.0,37.0,-26.0,-7.0,-2.0,-7.0,20.0
1705334346.8039699,0.0,-24.0,34.0,5.0,1.0,-2.0,4.0,-16.0
1705334346.8039699,9.0,20.0,-102.0,11.0,9.0,6.0,1.0,-5.0
1705334346.8039699,-19.0,15.0,73.0,33.0,8.0,11.0,7.0,-3.0
1705334346.8244069,-6.0,-12.0,-62.0,-27.0,-13.0,-9.0,-7.0,5.0
1705334346.8244069,-9.0,-9.0,-57.0,-27.0,1.0,0.0,0.0,1.0
1705334346.8342836,12.0,43.0,125.0,32.0,-2.0,-5.0,-5.0,-10.0
1705334346.8342836,4.0,-19.0,-98.0,-22.0,-12.0,-8.0,-7.0,3.0
1705334346.8542924,-10.0,8.0,25.0,24.0,11.0,4.0,6.0,-2.0
1705334346.8542924,7.0,20.0,104.0,-1.0,-22.0,-49.0,-21.0,-4.0
1705334346.8542924,-5.0,-22.0,-128.0,-29.0,-2.0,38.0,6.0,7.0
1705334346.8542924,2.0,-67.0,3.0,-7.0,5.0,14.0,19.0,0.0
1705334346.8646245,6.0,-11.0,11.0,28.0,6.0,1.0,-4.0,2.0
1705334346.8646245,5.0,0.0,-24.0,-28.0,20.0,29.0,19.0,-4.0
1705334346.8646245,3.0,1.0,127.0,10.0,-14.0,-48.0,-19.0,2.0
1705334346.8646245,-10.0,13.0,-29.0,-1.0,-11.0,-36.0,-36.0,10.0
1705334346.8846512,11.0,-24.0,-22.0,21.0,13.0,37.0,4.0,29.0
1705334346.8846512,-31.0,1.0,-88.0,53.0,-2.0,-2.0,6.0,-5.0
1705334346.8846512,-19.0,-24.0,-66.0,-77.0,-2.0,-7.0,3.0,-2.0
1705334346.8846512,15.0,70.0,127.0,39.0,-8.0,31.0,8.0,-1.0
1705334346.9043264,9.0,62.0,-37.0,-21.0,0.0,1.0,10.0,6.0
1705334346.9043264,89.0,-26.0,-29.0,-21.0,12.0,10.0,0.0,13.0
1705334346.9043264,-43.0,-18.0,-111.0,28.0,8.0,6.0,5.0,-1.0
1705334346.9043264,-61.0,0.0,46.0,-24.0,-6.0,-13.0,-1.0,-11.0
1705334346.9246058,-19.0,-38.0,49.0,22.0,-14.0,-23.0,-20.0,-6.0
1705334346.9246058,-7.0,14.0,25.0,17.0,-13.0,-8.0,-12.0,-10.0
1705334346.9246058,41.0,-11.0,-35.0,-2.0,8.0,8.0,7.0,5.0
1705334346.9246058,34.0,-13.0,-57.0,8.0,17.0,13.0,14.0,11.0
1705334346.9442933,-3.0,-18.0,15.0,-14.0,-9.0,4.0,5.0,-17.0
1705334346.9442933,-36.0,3.0,20.0,-65.0,-21.0,-42.0,-6.0,-8.0
1705334346.9442933,2.0,2.0,15.0,13.0,-5.0,-10.0,-32.0,-2.0
1705334346.9442933,34.0,-44.0,0.0,54.0,22.0,58.0,32.0,34.0
1705334346.964672,-3.0,-1.0,-13.0,-22.0,2.0,-33.0,-12.0,-62.0
1705334346.964672,-8.0,5.0,46.0,26.0,-9.0,-33.0,-30.0,61.0
1705334346.964672,-1.0,18.0,10.0,3.0,0.0,40.0,23.0,0.0
1705334346.964672,1.0,-30.0,47.0,-18.0,-13.0,-24.0,-14.0,-60.0
1705334346.9881287,35.0,-25.0,-41.0,6.0,5.0,17.0,10.0,15.0
1705334346.9881287,-24.0,11.0,-20.0,-6.0,0.0,-6.0,-6.0,-42.0
1705334346.9881287,-17.0,8.0,27.0,6.0,-9.0,-11.0,-7.0,12.0
1705334346.9881287,10.0,16.0,-16.0,4.0,4.0,5.0,3.0,21.0
1705334347.0071118,-11.0,-19.0,-35.0,-43.0,-8.0,-4.0,-4.0,3.0
1705334347.0071118,-29.0,15.0,12.0,41.0,-2.0,14.0,3.0,-16.0
1705334347.0071118,21.0,14.0,17.0,-18.0,-3.0,-4.0,13.0,25.0
1705334347.0071118,8.0,-49.0,-44.0,-17.0,4.0,-3.0,-9.0,-18.0
1705334347.034546,-18.0,7.0,36.0,11.0,6.0,-15.0,-20.0,6.0
1705334347.034546,-29.0,-6.0,-1.0,36.0,8.0,14.0,-13.0,-43.0
1705334347.034546,-9.0,2.0,15.0,12.0,1.0,-5.0,-11.0,-25.0
1705334347.034546,26.0,13.0,-20.0,-17.0,-7.0,-20.0,1.0,17.0
1705334347.0548131,44.0,8.0,51.0,13.0,-2.0,10.0,18.0,39.0
1705334347.0548131,41.0,14.0,-14.0,-6.0,5.0,28.0,28.0,26.0
1705334347.0548131,-81.0,24.0,15.0,10.0,-4.0,-15.0,-11.0,-5.0
1705334347.0548131,-28.0,-27.0,-41.0,-24.0,-11.0,-20.0,-6.0,-9.0
1705334347.0745535,10.0,18.0,-1.0,11.0,5.0,16.0,40.0,30.0
1705334347.0745535,45.0,23.0,-8.0,-25.0,8.0,13.0,-11.0,12.0
1705334347.0745535,-58.0,-28.0,-2.0,-16.0,-11.0,-30.0,-47.0,-57.0
1705334347.0745535,-29.0,-28.0,-13.0,-4.0,-3.0,6.0,10.0,26.0
1705334347.084753,3.0,-39.0,0.0,9.0,4.0,-7.0,-23.0,-35.0
1705334347.084753,-57.0,-29.0,-10.0,-1.0,0.0,0.0,19.0,9.0
1705334347.084753,78.0,19.0,6.0,1.0,2.0,3.0,21.0,22.0
1705334347.084753,-6.0,-22.0,-2.0,13.0,5.0,6.0,-8.0,-9.0
1705334347.1045563,-3.0,84.0,3.0,5.0,-13.0,-13.0,-5.0,11.0
1705334347.1045563,8.0,-15.0,-2.0,-29.0,-6.0,-6.0,-16.0,-24.0
1705334347.1045563,-9.0,-84.0,-9.0,-11.0,9.0,3.0,2.0,-9.0
1705334347.1045563,-12.0,-27.0,-20.0,1.0,3.0,0.0,34.0,-4.0
1705334347.1248355,49.0,73.0,-1.0,-9.0,-1.0,7.0,-5.0,18.0
1705334347.1248355,5.0,-47.0,6.0,4.0,-7.0,-4.0,-7.0,-15.0
1705334347.1248355,-37.0,3.0,-7.0,7.0,-5.0,-3.0,-9.0,-9.0
1705334347.1248355,24.0,45.0,64.0,5.0,3.0,9.0,0.0,14.0
1705334347.1448572,-18.0,-85.0,-36.0,4.0,-1.0,-4.0,5.0,-8.0
1705334347.1448572,-2.0,69.0,-32.0,-25.0,-9.0,-3.0,-3.0,19.0
1705334347.1545606,71.0,11.0,7.0,3.0,-2.0,9.0,17.0,8.0
1705334347.1545606,-18.0,-1.0,-40.0,-10.0,-6.0,-10.0,-15.0,-9.0
1705334347.1645606,-56.0,-6.0,98.0,9.0,5.0,19.0,1.0,-11.0
1705334347.1645606,22.0,16.0,-35.0,2.0,1.0,6.0,7.0,-4.0
1705334347.174555,14.0,5.0,25.0,-10.0,-4.0,-1.0,10.0,22.0
1705334347.174555,36.0,33.0,48.0,11.0,2.0,-6.0,-16.0,-5.0
1705334347.184554,-27.0,-77.0,39.0,1.0,-5.0,-8.0,-5.0,-5.0
1705334347.184554,-13.0,6.0,-63.0,-29.0,-8.0,-5.0,4.0,17.0
1705334347.184554,7.0,29.0,44.0,-1.0,0.0,0.0,6.0,-11.0
1705334347.184554,-6.0,22.0,63.0,22.0,14.0,11.0,-4.0,2.0
1705334347.2048545,-8.0,-10.0,17.0,17.0,1.0,-3.0,-12.0,-16.0
1705334347.2048545,2.0,22.0,106.0,6.0,-3.0,-4.0,1.0,-3.0
1705334347.2145603,-3.0,-22.0,-56.0,-16.0,-18.0,-21.0,-1.0,9.0
1705334347.2145603,-8.0,-39.0,-101.0,-56.0,-13.0,-8.0,-9.0,-3.0
1705334347.2345545,0.0,33.0,57.0,10.0,12.0,14.0,4.0,3.0
1705334347.2345545,1.0,16.0,46.0,38.0,21.0,8.0,-26.0,-5.0
1705334347.2345545,7.0,-62.0,71.0,-6.0,-15.0,5.0,45.0,27.0
1705334347.2345545,-27.0,7.0,58.0,5.0,-6.0,-22.0,-16.0,0.0
1705334347.2445874,-1.0,21.0,-128.0,-20.0,-13.0,-28.0,-38.0,-19.0
1705334347.2445874,10.0,1.0,26.0,18.0,16.0,63.0,59.0,1.0
1705334347.2445874,19.0,4.0,-56.0,16.0,11.0,3.0,4.0,-11.0
1705334347.2445874,-25.0,-1.0,78.0,13.0,4.0,-5.0,-8.0,4.0
1705334347.264898,-36.0,-60.0,-124.0,-40.0,-22.0,-27.0,-41.0,-35.0
1705334347.264898,22.0,26.0,53.0,-14.0,-7.0,-21.0,-1.0,26.0
1705334347.264898,-22.0,18.0,73.0,38.0,14.0,7.0,-2.0,3.0
1705334347.264898,-2.0,-19.0,-118.0,-21.0,-6.0,8.0,7.0,-17.0
1705334347.2845557,32.0,52.0,-12.0,-14.0,-6.0,-8.0,-44.0,-2.0
1705334347.2845557,20.0,21.0,64.0,14.0,-2.0,7.0,47.0,5.0
1705334347.2845557,-32.0,-77.0,-38.0,0.0,9.0,-3.0,-14.0,1.0
1705334347.2845557,-12.0,-20.0,-75.0,-17.0,-5.0,-9.0,-7.0,1.0
1705334347.3048644,10.0,32.0,-5.0,7.0,15.0,20.0,21.0,7.0
1705334347.3048644,-6.0,-33.0,-47.0,-12.0,-13.0,-11.0,-15.0,-10.0
1705334347.3048644,31.0,35.0,51.0,8.0,-2.0,-5.0,-9.0,-10.0
1705334347.3048644,3.0,15.0,96.0,29.0,-2.0,-2.0,-7.0,-8.0
1705334347.324798,14.0,2.0,-7.0,-6.0,-6.0,5.0,19.0,5.0
1705334347.324798,44.0,-34.0,-35.0,-8.0,2.0,4.0,17.0,12.0
1705334347.3345609,-31.0,2.0,-43.0,-6.0,9.0,-5.0,-7.0,3.0
1705334347.3345609,18.0,16.0,-22.0,-7.0,1.0,6.0,-3.0,-11.0
1705334347.364554,-87.0,-11.0,20.0,-13.0,-5.0,0.0,19.0,8.0
1705334347.364554,-21.0,-52.0,-7.0,1.0,-7.0,-20.0,-27.0,-27.0
1705334347.364554,23.0,24.0,-2.0,-2.0,6.0,15.0,10.0,4.0
1705334347.364554,-48.0,-1.0,-27.0,13.0,-13.0,-13.0,-5.0,16.0
1705334347.364554,-1.0,-44.0,51.0,-10.0,13.0,12.0,-6.0,-17.0
1705334347.364554,-24.0,-1.0,-3.0,28.0,-14.0,-10.0,1.0,-29.0
1705334347.364554,-55.0,-74.0,-36.0,-54.0,-12.0,-22.0,-40.0,-26.0
1705334347.364554,41.0,-20.0,22.0,37.0,6.0,5.0,20.0,-5.0
1705334347.4045527,37.0,90.0,14.0,-6.0,-1.0,16.0,54.0,44.0
1705334347.4045527,-36.0,13.0,-12.0,-22.0,-7.0,-16.0,-27.0,21.0
1705334347.4045527,55.0,9.0,14.0,25.0,-2.0,-4.0,-25.0,-23.0
1705334347.4045527,-41.0,-58.0,-17.0,-13.0,2.0,5.0,1.0,-23.0
1705334347.4045527,100.0,60.0,32.0,69.0,-1.0,2.0,18.0,19.0
1705334347.4045527,-95.0,-25.0,-24.0,-47.0,3.0,3.0,-11.0,-6.0
1705334347.414952,22.0,34.0,10.0,14.0,5.0,4.0,6.0,0.0
1705334347.414952,-9.0,49.0,-10.0,-25.0,1.0,-4.0,-8.0,16.0
1705334347.4249144,17.0,-46.0,0.0,38.0,6.0,-3.0,2.0,-6.0
1705334347.4249144,4.0,-28.0,-18.0,-17.0,-8.0,-4.0,2.0,4.0
1705334347.4249144,29.0,71.0,25.0,13.0,-3.0,0.0,-6.0,14.0
1705334347.4249144,-4.0,11.0,2.0,12.0,2.0,3.0,-5.0,-12.0
1705334347.4448097,-5.0,3.0,17.0,-27.0,-2.0,4.0,5.0,5.0
1705334347.4448097,120.0,71.0,-36.0,11.0,-1.0,-2.0,0.0,68.0
1705334347.4448097,-37.0,-32.0,-20.0,-21.0,-2.0,-1.0,14.0,1.0
1705334347.4448097,-14.0,-77.0,-27.0,-11.0,-8.0,-18.0,-53.0,-83.0
1705334347.4745896,12.0,25.0,11.0,-6.0,-2.0,-6.0,28.0,13.0
1705334347.4745896,3.0,-32.0,29.0,20.0,4.0,-21.0,-26.0,-23.0
1705334347.4745896,16.0,29.0,26.0,1.0,3.0,38.0,31.0,19.0
1705334347.4745896,41.0,25.0,-20.0,-5.0,4.0,2.0,7.0,45.0
1705334347.4849706,-43.0,-57.0,15.0,-3.0,0.0,-17.0,-22.0,-16.0
1705334347.4849706,-17.0,8.0,11.0,-1.0,-2.0,-40.0,-53.0,-32.0
1705334347.4849706,20.0,-24.0,-71.0,-15.0,-9.0,65.0,87.0,11.0
1705334347.4849706,3.0,-9.0,29.0,-11.0,-6.0,-23.0,-3.0,3.0
1705334347.5175564,-26.0,10.0,45.0,20.0,10.0,7.0,-55.0,-24.0
1705334347.5175564,-1.0,7.0,95.0,16.0,9.0,18.0,60.0,18.0
1705334347.5175564,-6.0,-2.0,-23.0,-14.0,-20.0,-16.0,-16.0,-16.0
1705334347.5175564,-2.0,0.0,-60.0,-5.0,5.0,15.0,6.0,-4.0
1705334347.5299745,0.0,-9.0,-60.0,-14.0,1.0,-2.0,11.0,6.0
1705334347.5299745,-8.0,8.0,90.0,29.0,14.0,17.0,-24.0,-29.0
1705334347.5299745,0.0,43.0,-16.0,-17.0,-12.0,-41.0,-35.0,47.0
1705334347.5299745,1.0,19.0,-29.0,-49.0,-24.0,-13.0,-23.0,-19.0
1705334347.5699716,-8.0,-18.0,11.0,-4.0,-6.0,-19.0,36.0,-14.0
1705334347.5699716,0.0,-17.0,-20.0,33.0,10.0,-8.0,8.0,-23.0
1705334347.5699716,-11.0,-19.0,-3.0,23.0,17.0,41.0,-16.0,-25.0
1705334347.5699716,0.0,20.0,5.0,10.0,8.0,-22.0,0.0,10.0
1705334347.580352,-14.0,-9.0,-55.0,-26.0,-20.0,21.0,-18.0,17.0
1705334347.580352,2.0,-30.0,22.0,1.0,0.0,23.0,43.0,2.0
1705334347.580352,-10.0,-4.0,-30.0,1.0,4.0,-18.0,5.0,21.0
1705334347.580352,13.0,56.0,-9.0,31.0,16.0,10.0,-2.0,16.0
1705334347.580352,-16.0,-5.0,60.0,-13.0,-4.0,-9.0,-39.0,-36.0
1705334347.580352,-10.0,-1.0,-21.0,-46.0,-23.0,-18.0,7.0,-4.0
1705334347.59033,8.0,3.0,85.0,8.0,-1.0,-21.0,-12.0,1.0
1705334347.59033,5.0,1.0,13.0,-4.0,-15.0,-2.0,6.0,2.0
1705334347.6102974,-6.0,-17.0,-106.0,-9.0,4.0,3.0,-2.0,-4.0
1705334347.6102974,8.0,-12.0,10.0,27.0,17.0,26.0,35.0,6.0
1705334347.6102974,-13.0,39.0,3.0,8.0,-3.0,-16.0,-44.0,-13.0
1705334347.6102974,13.0,-17.0,16.0,-1.0,2.0,8.0,45.0,31.0
1705334347.6304,11.0,-18.0,-13.0,-7.0,5.0,24.0,9.0,-23.0
1705334347.6304,-5.0,-1.0,-79.0,-38.0,-11.0,-29.0,-34.0,-3.0
1705334347.6304,-23.0,-65.0,15.0,17.0,0.0,8.0,-5.0,36.0
1705334347.6304,6.0,0.0,-15.0,-8.0,10.0,15.0,20.0,-21.0
1705334347.650481,38.0,2.0,102.0,37.0,1.0,-10.0,-29.0,15.0
1705334347.650481,-24.0,-43.0,-128.0,-63.0,-24.0,-16.0,9.0,-6.0
1705334347.650481,-4.0,-12.0,33.0,11.0,-2.0,-15.0,8.0,-12.0
1705334347.650481,12.0,-6.0,-41.0,2.0,-4.0,3.0,-10.0,12.0
1705334347.6702497,-11.0,-36.0,20.0,-13.0,6.0,-1.0,2.0,14.0
1705334347.6702497,2.0,7.0,22.0,5.0,3.0,18.0,-4.0,-2.0
1705334347.6702497,6.0,39.0,-8.0,18.0,1.0,-3.0,-9.0,9.0
1705334347.6702497,-3.0,-29.0,38.0,-18.0,-3.0,4.0,2.0,2.0
1705334347.690181,-4.0,21.0,68.0,37.0,15.0,-11.0,10.0,-6.0
1705334347.690181,6.0,22.0,94.0,38.0,0.0,-5.0,-25.0,5.0
1705334347.690181,0.0,-39.0,-115.0,-54.0,-11.0,-24.0,-8.0,18.0
1705334347.690181,13.0,6.0,-8.0,8.0,10.0,31.0,17.0,1.0
1705334347.710493,-24.0,-5.0,58.0,-13.0,-18.0,-20.0,-1.0,0.0
1705334347.710493,2.0,-36.0,-27.0,7.0,12.0,29.0,-1.0,-3.0
1705334347.710493,5.0,14.0,-57.0,-6.0,3.0,-19.0,4.0,-29.0
1705334347.710493,-5.0,20.0,117.0,6.0,-3.0,11.0,4.0,3.0
1705334347.7302957,-15.0,5.0,-56.0,-8.0,-4.0,-4.0,-4.0,-17.0
1705334347.7302957,-7.0,28.0,24.0,8.0,2.0,-16.0,-10.0,2.0
1705334347.7302957,-1.0,-22.0,2.0,32.0,6.0,34.0,16.0,0.0
1705334347.7302957,29.0,22.0,-52.0,7.0,14.0,9.0,19.0,18.0
1705334347.7505395,-7.0,7.0,70.0,-14.0,-13.0,-15.0,-13.0,1.0
1705334347.7505395,-43.0,-40.0,-108.0,-32.0,0.0,4.0,0.0,-22.0
1705334347.7505395,-12.0,13.0,112.0,-21.0,-25.0,-49.0,-19.0,-21.0
1705334347.7505395,6.0,14.0,-39.0,4.0,-4.0,-5.0,-14.0,9.0
1705334347.7704246,21.0,7.0,-72.0,21.0,18.0,41.0,25.0,28.0
1705334347.7704246,-2.0,-18.0,-54.0,6.0,2.0,7.0,-3.0,-42.0
1705334347.7704246,10.0,5.0,37.0,-74.0,-7.0,-19.0,-14.0,-10.0
1705334347.7704246,-3.0,15.0,13.0,7.0,-1.0,-5.0,-5.0,5.0
1705334347.7900534,11.0,5.0,36.0,29.0,-4.0,-10.0,3.0,10.0
1705334347.7900534,5.0,-12.0,2.0,31.0,6.0,-11.0,-3.0,24.0
1705334347.7900534,0.0,-3.0,-78.0,-15.0,3.0,18.0,7.0,8.0
1705334347.7900534,-24.0,1.0,34.0,12.0,0.0,-7.0,-5.0,-37.0
1705334347.810499,17.0,-12.0,-92.0,-71.0,-13.0,-16.0,-18.0,-16.0
1705334347.810499,-1.0,23.0,89.0,-6.0,-10.0,-5.0,6.0,45.0
1705334347.810499,40.0,-33.0,32.0,24.0,-1.0,23.0,-19.0,-54.0
1705334347.810499,-67.0,-18.0,-67.0,3.0,7.0,8.0,9.0,21.0
1705334347.8304806,-4.0,8.0,-77.0,-11.0,7.0,-5.0,11.0,3.0
1705334347.8304806,-11.0,31.0,101.0,5.0,-24.0,-28.0,-16.0,-9.0
1705334347.8304806,20.0,3.0,-18.0,23.0,9.0,-9.0,1.0,15.0
1705334347.8304806,20.0,-5.0,-48.0,5.0,-3.0,-11.0,-8.0,-19.0
1705334347.850091,-4.0,-54.0,-112.0,-11.0,8.0,25.0,17.0,-8.0
1705334347.850091,-4.0,16.0,3.0,-23.0,3.0,2.0,-9.0,-3.0
1705334347.850091,-15.0,21.0,115.0,18.0,-13.0,-8.0,2.0,-4.0
1705334347.850091,9.0,-44.0,29.0,52.0,10.0,0.0,-6.0,-10.0
1705334347.8703942,-9.0,31.0,8.0,-1.0,-2.0,-2.0,8.0,10.0
1705334347.8703942,14.0,-15.0,-10.0,-46.0,-16.0,-35.0,-22.0,-7.0
1705334347.8703942,-18.0,-40.0,-44.0,13.0,9.0,25.0,0.0,12.0
1705334347.8703942,35.0,15.0,-17.0,-22.0,-9.0,-1.0,8.0,37.0
1705334347.890376,12.0,-19.0,16.0,48.0,4.0,-5.0,-4.0,-17.0
1705334347.890376,-54.0,63.0,29.0,-39.0,-14.0,-12.0,0.0,44.0
1705334347.890376,14.0,42.0,-14.0,-11.0,-5.0,6.0,-12.0,-57.0
1705334347.890376,1.0,-11.0,-1.0,-15.0,-2.0,1.0,4.0,16.0
1705334347.920058,5.0,-10.0,-7.0,5.0,6.0,7.0,13.0,11.0
1705334347.920058,25.0,-8.0,-32.0,30.0,11.0,3.0,-2.0,-12.0
1705334347.920058,-23.0,0.0,-39.0,-17.0,4.0,-10.0,6.0,14.0
1705334347.920058,-4.0,12.0,80.0,2.0,-12.0,-7.0,-8.0,12.0
1705334347.9300885,11.0,-3.0,1.0,-5.0,-14.0,-9.0,-8.0,-9.0
1705334347.9300885,-8.0,-28.0,-20.0,11.0,10.0,12.0,3.0,-6.0
1705334347.9300885,-47.0,-24.0,51.0,22.0,8.0,6.0,-1.0,-3.0
1705334347.9300885,24.0,-23.0,-39.0,-7.0,6.0,5.0,1.0,-9.0
1705334347.9500544,-25.0,35.0,5.0,-26.0,-13.0,-18.0,-6.0,5.0
1705334347.9500544,-1.0,-68.0,-28.0,9.0,10.0,15.0,2.0,-10.0
1705334347.9500544,29.0,39.0,-20.0,13.0,2.0,4.0,11.0,22.0
1705334347.9500544,-3.0,-10.0,36.0,-5.0,-12.0,-13.0,-13.0,-14.0
1705334347.9704163,-22.0,-14.0,45.0,19.0,-2.0,2.0,5.0,5.0
1705334347.9704163,12.0,64.0,-40.0,5.0,1.0,14.0,11.0,9.0
1705334347.9704163,-21.0,-6.0,-23.0,-17.0,2.0,-10.0,-4.0,-11.0
1705334347.9704163,44.0,-6.0,28.0,-1.0,-2.0,-2.0,-15.0,0.0
1705334348.000069,-109.0,-54.0,-33.0,-21.0,-12.0,-16.0,-51.0,-69.0
1705334348.000069,1.0,-12.0,0.0,12.0,6.0,20.0,30.0,14.0
1705334348.000069,33.0,28.0,22.0,7.0,1.0,-2.0,42.0,37.0
1705334348.000069,12.0,6.0,4.0,-15.0,-9.0,-5.0,-5.0,-3.0
1705334348.0100539,34.0,17.0,-13.0,-7.0,2.0,-4.0,-30.0,-7.0
1705334348.0100539,-22.0,2.0,16.0,25.0,7.0,0.0,7.0,-15.0
1705334348.0100539,-13.0,-7.0,-11.0,-27.0,-8.0,9.0,-21.0,-7.0
1705334348.0100539,-32.0,8.0,-5.0,4.0,-7.0,1.0,23.0,10.0
1705334348.0311837,7.0,-10.0,27.0,-11.0,5.0,8.0,29.0,31.0
1705334348.0311837,46.0,-35.0,-28.0,13.0,7.0,-2.0,-5.0,-14.0
1705334348.0321858,18.0,68.0,-18.0,13.0,-9.0,-12.0,-9.0,25.0
1705334348.0321858,-58.0,-6.0,-13.0,-32.0,-5.0,-9.0,-27.0,-72.0
1705334348.053847,-22.0,-49.0,0.0,-10.0,-6.0,-15.0,-24.0,-6.0
1705334348.053847,9.0,-49.0,21.0,11.0,-3.0,6.0,-12.0,-1.0
1705334348.053847,-43.0,61.0,-20.0,-13.0,-2.0,-13.0,-32.0,-21.0
1705334348.053847,24.0,-2.0,4.0,3.0,1.0,6.0,17.0,7.0
1705334348.082642,25.0,-11.0,18.0,10.0,1.0,5.0,31.0,22.0
1705334348.082642,7.0,0.0,-26.0,-23.0,-8.0,14.0,16.0,2.0
1705334348.092634,42.0,-54.0,3.0,9.0,9.0,4.0,14.0,12.0
1705334348.092634,-50.0,13.0,1.0,-3.0,-4.0,-13.0,-21.0,7.0
1705334348.1026351,-8.0,4.0,14.0,4.0,2.0,-12.0,-2.0,-36.0
1705334348.1026351,29.0,-47.0,-13.0,2.0,-4.0,-6.0,-7.0,-6.0
1705334348.1026351,-10.0,-30.0,4.0,-1.0,0.0,23.0,5.0,-20.0
1705334348.1026351,13.0,-9.0,-7.0,-2.0,5.0,1.0,8.0,-7.0
1705334348.1126382,24.0,13.0,22.0,12.0,5.0,9.0,27.0,74.0
1705334348.1126382,-31.0,-4.0,-44.0,-21.0,-11.0,-1.0,-17.0,-19.0
1705334348.1126382,26.0,37.0,10.0,-14.0,-5.0,-7.0,4.0,-8.0
1705334348.1126382,-11.0,13.0,27.0,17.0,4.0,-1.0,-12.0,2.0
1705334348.1326337,-18.0,-11.0,19.0,12.0,1.0,-2.0,-5.0,-14.0
1705334348.1326337,-16.0,-11.0,-23.0,-7.0,-15.0,-19.0,-18.0,-3.0
1705334348.1326337,-21.0,-13.0,30.0,2.0,1.0,-1.0,8.0,2.0
1705334348.1326337,24.0,-8.0,56.0,17.0,14.0,17.0,-2.0,1.0
1705334348.1426601,19.0,68.0,-84.0,-16.0,0.0,-2.0,4.0,1.0
1705334348.1426601,-24.0,17.0,-24.0,-41.0,-14.0,-11.0,-5.0,2.0
1705334348.1529994,0.0,-46.0,62.0,-1.0,-12.0,-7.0,-9.0,-18.0
1705334348.1529994,26.0,20.0,15.0,12.0,5.0,4.0,-25.0,15.0
1705334348.1712763,-18.0,-9.0,75.0,23.0,8.0,10.0,33.0,-4.0
1705334348.1712763,21.0,16.0,52.0,10.0,5.0,7.0,7.0,32.0
1705334348.1712763,-7.0,5.0,-8.0,18.0,9.0,0.0,-10.0,-25.0
1705334348.1712763,3.0,-16.0,-65.0,1.0,-1.0,-11.0,-36.0,43.0
1705334348.191318,-14.0,-42.0,-23.0,-44.0,-26.0,-3.0,68.0,38.0
1705334348.191318,4.0,32.0,-24.0,16.0,6.0,2.0,-6.0,-30.0
1705334348.191318,-12.0,-8.0,0.0,21.0,14.0,2.0,-10.0,12.0
1705334348.191318,-5.0,-1.0,16.0,-30.0,-12.0,-8.0,18.0,-6.0
1705334348.2015762,2.0,-13.0,-34.0,-16.0,-9.0,-8.0,-44.0,-20.0
1705334348.2015762,6.0,37.0,46.0,0.0,4.0,5.0,37.0,14.0
1705334348.2116027,13.0,-7.0,3.0,23.0,8.0,3.0,-11.0,0.0
1705334348.2116027,7.0,-21.0,-42.0,-2.0,3.0,2.0,12.0,-4.0
1705334348.2415948,-3.0,57.0,-28.0,-6.0,-6.0,-8.0,-31.0,-14.0
1705334348.2415948,3.0,-3.0,8.0,-10.0,-5.0,-2.0,-2.0,-9.0
1705334348.2415948,-22.0,-28.0,-31.0,15.0,15.0,5.0,-10.0,3.0
1705334348.2415948,-25.0,-8.0,-10.0,-16.0,-5.0,-5.0,7.0,-24.0
1705334348.2516289,26.0,16.0,40.0,-1.0,-5.0,5.0,8.0,2.0
1705334348.2516289,12.0,2.0,5.0,22.0,10.0,-1.0,-16.0,0.0
1705334348.2516289,-34.0,-44.0,-43.0,-15.0,-16.0,-6.0,13.0,-1.0
1705334348.2516289,-12.0,9.0,9.0,-24.0,-6.0,-5.0,5.0,-9.0
1705334348.2713983,25.0,6.0,-5.0,17.0,13.0,3.0,-9.0,-14.0
1705334348.2713983,38.0,23.0,-3.0,-11.0,-5.0,-5.0,-23.0,9.0
1705334348.2713983,0.0,-13.0,-12.0,0.0,-7.0,-6.0,12.0,5.0
1705334348.2713983,-18.0,16.0,20.0,3.0,-9.0,2.0,12.0,-12.0
1705334348.2913818,-6.0,14.0,-1.0,-8.0,2.0,7.0,-13.0,-12.0
1705334348.2913818,1.0,3.0,-4.0,31.0,9.0,2.0,-8.0,-5.0
1705334348.2913818,29.0,-13.0,-14.0,-64.0,-3.0,-19.0,5.0,16.0
1705334348.2913818,-8.0,-1.0,-9.0,27.0,4.0,-2.0,-8.0,-4.0
1705334348.3117301,2.0,0.0,2.0,16.0,1.0,4.0,-2.0,-2.0
1705334348.3117301,27.0,13.0,26.0,29.0,-7.0,5.0,7.0,-6.0
1705334348.3117301,-42.0,38.0,20.0,-14.0,-9.0,1.0,1.0,-8.0
1705334348.3117301,-40.0,-29.0,-47.0,-36.0,-2.0,-7.0,-8.0,-4.0
1705334348.3217163,-41.0,-11.0,7.0,7.0,1.0,-8.0,-11.0,-6.0
1705334348.3217163,14.0,1.0,5.0,-3.0,-5.0,2.0,-2.0,2.0
1705334348.3417106,50.0,39.0,36.0,67.0,-1.0,11.0,22.0,16.0
1705334348.3417106,-26.0,3.0,18.0,-45.0,3.0,-2.0,5.0,5.0
1705334348.351379,-27.0,-57.0,-93.0,-21.0,3.0,-9.0,-15.0,-7.0
1705334348.351379,11.0,-12.0,18.0,1.0,-2.0,0.0,-2.0,5.0
1705334348.3613791,-22.0,29.0,15.0,-12.0,-4.0,2.0,1.0,-5.0
1705334348.3613791,27.0,-38.0,-10.0,37.0,12.0,3.0,5.0,1.0
1705334348.3717494,12.0,43.0,11.0,-1.0,1.0,-6.0,-7.0,8.0
1705334348.3717494,-3.0,2.0,-5.0,-21.0,7.0,7.0,15.0,-2.0
1705334348.3717494,59.0,-11.0,-7.0,-15.0,-13.0,-13.0,-22.0,-1.0
1705334348.3717494,-24.0,18.0,25.0,26.0,-8.0,-3.0,6.0,-8.0
1705334348.3816907,5.0,-37.0,17.0,-34.0,-8.0,4.0,-1.0,-3.0
1705334348.3816907,-32.0,46.0,-28.0,-24.0,4.0,-2.0,-6.0,-16.0
1705334348.4013789,16.0,-56.0,19.0,24.0,3.0,3.0,3.0,3.0
1705334348.4013789,-55.0,-54.0,-80.0,23.0,20.0,1.0,0.0,-4.0
1705334348.4115891,-44.0,12.0,28.0,-18.0,-20.0,-15.0,-23.0,-17.0
1705334348.4115891,53.0,7.0,3.0,35.0,-5.0,-2.0,2.0,15.0
1705334348.4115891,-37.0,-12.0,9.0,-20.0,3.0,2.0,7.0,-2.0
1705334348.4115891,-41.0,21.0,9.0,19.0,-9.0,-4.0,-3.0,-14.0
1705334348.4316773,37.0,-39.0,-25.0,-22.0,-1.0,9.0,24.0,28.0
1705334348.4316773,-30.0,10.0,-11.0,-38.0,-12.0,-9.0,-8.0,-9.0
1705334348.4316773,49.0,13.0,-3.0,24.0,4.0,-4.0,-15.0,-4.0
1705334348.4316773,-26.0,-75.0,-21.0,0.0,8.0,-8.0,-10.0,-17.0
1705334348.4415908,13.0,80.0,21.0,20.0,6.0,3.0,-2.0,-8.0
1705334348.4415908,0.0,-43.0,33.0,-10.0,-10.0,-1.0,-3.0,14.0
1705334348.4515402,-57.0,43.0,5.0,31.0,2.0,-9.0,6.0,-11.0
1705334348.4515402,38.0,24.0,13.0,-31.0,-19.0,10.0,13.0,5.0
1705334348.4713893,81.0,-4.0,6.0,4.0,16.0,10.0,7.0,14.0
1705334348.4713893,-127.0,-65.0,-11.0,-7.0,0.0,-6.0,-35.0,-36.0
1705334348.4813817,94.0,10.0,-45.0,-30.0,8.0,-3.0,-11.0,5.0
1705334348.4813817,-5.0,-42.0,48.0,11.0,-5.0,-11.0,5.0,2.0
1705334348.491379,51.0,56.0,-25.0,2.0,-8.0,-1.0,1.0,15.0
1705334348.491379,-5.0,20.0,5.0,3.0,-1.0,2.0,11.0,17.0
1705334348.491379,-47.0,-49.0,5.0,-23.0,-10.0,0.0,-15.0,-32.0
1705334348.491379,24.0,85.0,59.0,4.0,0.0,13.0,13.0,30.0
1705334348.5014133,65.0,-4.0,-73.0,-21.0,-2.0,6.0,15.0,-9.0
1705334348.5014133,-3.0,-9.0,81.0,36.0,-7.0,-5.0,-16.0,-8.0
1705334348.5313776,57.0,29.0,-69.0,-45.0,8.0,16.0,36.0,37.0
1705334348.5313776,-42.0,-52.0,-59.0,-40.0,12.0,-31.0,-41.0,-21.0
1705334348.5313776,-16.0,13.0,55.0,39.0,3.0,-6.0,-12.0,-16.0
1705334348.5313776,34.0,19.0,-13.0,-14.0,-3.0,4.0,21.0,8.0
1705334348.5313776,39.0,52.0,56.0,-4.0,-21.0,3.0,-3.0,1.0
1705334348.5313776,58.0,-18.0,-2.0,12.0,1.0,13.0,19.0,13.0
1705334348.551562,38.0,-42.0,-10.0,9.0,6.0,-10.0,-12.0,4.0
1705334348.551562,-10.0,7.0,1.0,-4.0,2.0,-2.0,6.0,0.0
1705334348.551562,9.0,11.0,-13.0,-12.0,0.0,-4.0,-10.0,-1.0
1705334348.551562,66.0,-10.0,-13.0,6.0,-7.0,2.0,25.0,13.0
1705334348.5781777,-72.0,-45.0,21.0,-27.0,-14.0,-8.0,-54.0,-27.0
1705334348.5781777,15.0,9.0,-77.0,18.0,20.0,7.0,10.0,1.0
1705334348.5781777,-55.0,-34.0,37.0,21.0,12.0,0.0,0.0,9.0
1705334348.5781777,38.0,46.0,-30.0,-5.0,-13.0,-1.0,-2.0,9.0
1705334348.5934744,-58.0,33.0,50.0,32.0,-3.0,3.0,17.0,-14.0
1705334348.5934744,44.0,-47.0,-28.0,-1.0,12.0,0.0,2.0,12.0
1705334348.5934744,-78.0,80.0,7.0,16.0,-16.0,-3.0,-35.0,-19.0
1705334348.5934744,107.0,-33.0,25.0,-35.0,-1.0,4.0,6.0,-9.0
1705334348.615662,-104.0,-78.0,-12.0,19.0,24.0,-17.0,-11.0,-18.0
1705334348.615662,-20.0,38.0,-7.0,20.0,-4.0,3.0,-3.0,-15.0
1705334348.615662,57.0,-7.0,-11.0,-14.0,3.0,5.0,21.0,11.0
1705334348.615662,0.0,68.0,15.0,-10.0,-10.0,5.0,-23.0,8.0
1705334348.6356735,56.0,42.0,33.0,8.0,4.0,-5.0,-6.0,15.0
1705334348.6356735,-23.0,-17.0,-5.0,-8.0,3.0,-4.0,13.0,6.0
1705334348.6356735,5.0,52.0,-4.0,28.0,2.0,6.0,12.0,13.0
1705334348.6356735,-23.0,-3.0,10.0,2.0,0.0,2.0,-22.0,-45.0
1705334348.6458964,-97.0,-64.0,8.0,-14.0,-7.0,-2.0,-5.0,-19.0
1705334348.6458964,0.0,28.0,-44.0,-34.0,-1.0,-3.0,1.0,-1.0
1705334348.6458964,44.0,-14.0,4.0,-10.0,-4.0,5.0,25.0,13.0
1705334348.6458964,-61.0,50.0,24.0,34.0,-2.0,1.0,0.0,19.0
1705334348.6756928,12.0,-45.0,-34.0,-20.0,3.0,-8.0,-2.0,5.0
1705334348.6756928,45.0,-17.0,23.0,5.0,5.0,-1.0,-60.0,2.0
1705334348.6756928,-11.0,13.0,1.0,-8.0,-7.0,3.0,74.0,-7.0
1705334348.6756928,-38.0,-26.0,-12.0,7.0,2.0,-12.0,-35.0,-22.0
1705334348.6957119,21.0,52.0,-2.0,-5.0,-8.0,-5.0,-2.0,-1.0
1705334348.6957119,-2.0,26.0,25.0,-8.0,-11.0,-8.0,15.0,9.0
1705334348.6957119,-10.0,-54.0,-21.0,-4.0,9.0,4.0,-32.0,-35.0
1705334348.6957119,-15.0,2.0,-1.0,8.0,0.0,-2.0,-1.0,2.0
1705334348.7061565,27.0,35.0,-9.0,-6.0,-1.0,43.0,32.0,11.0
1705334348.7061565,0.0,-13.0,2.0,-14.0,-2.0,-14.0,-9.0,-22.0
1705334348.7061565,-33.0,-45.0,10.0,14.0,5.0,-12.0,-23.0,-18.0
1705334348.7061565,31.0,12.0,57.0,18.0,0.0,-9.0,-20.0,31.0
1705334348.7361686,8.0,50.0,-68.0,-7.0,-7.0,-31.0,-23.0,-21.0
1705334348.7361686,-18.0,10.0,-11.0,-14.0,-5.0,4.0,49.0,-20.0
1705334348.7361686,-10.0,-30.0,5.0,-4.0,-1.0,20.0,22.0,21.0
1705334348.7361686,43.0,13.0,66.0,6.0,0.0,2.0,17.0,8.0
1705334348.7565894,17.0,-31.0,-31.0,6.0,-2.0,-25.0,-42.0,22.0
1705334348.7565894,-14.0,-17.0,19.0,-32.0,-10.0,16.0,20.0,-3.0
1705334348.7565894,-33.0,-32.0,61.0,5.0,-9.0,-52.0,-107.0,-26.0
1705334348.7565894,-3.0,19.0,-68.0,-12.0,-8.0,-6.0,93.0,8.0
1705334348.766431,39.0,-39.0,75.0,32.0,15.0,50.0,46.0,-18.0
1705334348.766431,-11.0,-37.0,41.0,41.0,17.0,5.0,-22.0,-15.0
1705334348.766431,2.0,-22.0,-116.0,-72.0,-31.0,-52.0,-34.0,59.0
1705334348.766431,-9.0,13.0,58.0,-12.0,-3.0,14.0,6.0,-28.0
1705334348.7867584,20.0,31.0,55.0,39.0,5.0,6.0,3.0,47.0
1705334348.7867584,-21.0,-19.0,-98.0,-67.0,-9.0,33.0,63.0,8.0
1705334348.7867584,10.0,-8.0,55.0,-9.0,3.0,-10.0,-95.0,-38.0
1705334348.7964468,8.0,8.0,26.0,44.0,14.0,-7.0,-10.0,21.0
1705334348.8164408,-12.0,13.0,71.0,-10.0,-6.0,3.0,46.0,32.0
1705334348.8164408,17.0,-6.0,4.0,39.0,3.0,-12.0,-37.0,38.0
1705334348.8164408,-7.0,3.0,-100.0,-2.0,-7.0,-4.0,10.0,-13.0
1705334348.8164408,-15.0,-4.0,-128.0,-35.0,3.0,10.0,0.0,-16.0
1705334348.8264735,-22.0,0.0,24.0,-19.0,-6.0,5.0,-10.0,-17.0
1705334348.8264735,14.0,2.0,85.0,31.0,-4.0,-15.0,-1.0,-24.0
1705334348.8264735,-3.0,-32.0,-5.0,11.0,7.0,-1.0,0.0,-29.0
1705334348.8264735,9.0,6.0,-20.0,17.0,3.0,12.0,13.0,7.0
1705334348.8464396,-11.0,37.0,-82.0,6.0,12.0,-2.0,5.0,-3.0
1705334348.8464396,-1.0,12.0,17.0,29.0,4.0,8.0,-28.0,-4.0
1705334348.8464396,9.0,-34.0,-79.0,-42.0,-10.0,4.0,45.0,15.0
1705334348.8464396,6.0,35.0,72.0,-79.0,-23.0,-12.0,-20.0,-13.0
1705334348.8764431,-12.0,-15.0,24.0,3.0,-2.0,-10.0,-6.0,0.0
1705334348.8764431,4.0,-3.0,-27.0,0.0,1.0,-11.0,-4.0,1.0
1705334348.8764431,-16.0,1.0,27.0,60.0,13.0,22.0,23.0,-17.0
1705334348.8764431,-4.0,13.0,-22.0,16.0,0.0,-3.0,-32.0,8.0
1705334348.8866727,6.0,-3.0,-100.0,-49.0,-17.0,-15.0,11.0,-22.0
1705334348.8866727,-9.0,15.0,127.0,20.0,4.0,-1.0,0.0,-44.0
1705334348.8866727,12.0,-24.0,-47.0,0.0,9.0,16.0,14.0,-5.0
1705334348.8866727,-7.0,15.0,-23.0,-17.0,-7.0,-11.0,-12.0,-11.0
1705334348.91644,-17.0,-81.0,-99.0,-42.0,-9.0,3.0,-15.0,11.0
1705334348.91644,22.0,105.0,45.0,11.0,4.0,1.0,16.0,19.0
1705334348.91644,-3.0,-4.0,95.0,6.0,1.0,-4.0,5.0,6.0
1705334348.91644,-16.0,-21.0,77.0,16.0,0.0,-4.0,-5.0,-25.0
1705334348.9366994,23.0,5.0,-9.0,15.0,9.0,11.0,7.0,5.0
1705334348.9366994,-7.0,-26.0,-88.0,-10.0,4.0,4.0,-5.0,5.0
1705334348.9366994,-11.0,23.0,16.0,6.0,2.0,-2.0,5.0,19.0
1705334348.9366994,13.0,-22.0,-24.0,-13.0,-12.0,-12.0,-1.0,25.0
1705334348.9466934,-7.0,10.0,90.0,20.0,4.0,22.0,-2.0,28.0
1705334348.9466934,4.0,-21.0,-77.0,-24.0,-8.0,-16.0,-20.0,-39.0
1705334348.9466934,-20.0,-3.0,6.0,20.0,7.0,6.0,8.0,28.0
1705334348.9466934,8.0,7.0,-40.0,1.0,-1.0,-3.0,-14.0,17.0
1705334348.9864376,13.0,-23.0,86.0,1.0,-10.0,-9.0,16.0,-5.0
1705334348.9864376,-13.0,44.0,-46.0,-28.0,-6.0,-1.0,-11.0,-9.0
1705334348.9864376,23.0,3.0,81.0,42.0,18.0,14.0,19.0,-21.0
1705334348.9864376,0.0,29.0,-34.0,-9.0,-5.0,0.0,-2.0,-11.0
1705334348.996785,-42.0,-44.0,-56.0,-6.0,-9.0,-19.0,-20.0,-16.0
1705334348.996785,0.0,-6.0,99.0,27.0,10.0,5.0,4.0,49.0
1705334348.996785,10.0,-17.0,-85.0,-15.0,0.0,6.0,8.0,-30.0
1705334348.996785,6.0,13.0,70.0,-33.0,-13.0,-17.0,-10.0,-15.0
1705334349.0164387,-27.0,26.0,3.0,13.0,-2.0,-16.0,-1.0,23.0
1705334349.0164387,25.0,-22.0,-50.0,9.0,5.0,19.0,-6.0,-34.0
1705334349.0164387,-17.0,49.0,43.0,0.0,2.0,9.0,13.0,52.0
1705334349.0164387,6.0,-4.0,-105.0,-29.0,-13.0,-14.0,1.0,14.0
1705334349.026773,4.0,-14.0,48.0,28.0,11.0,-2.0,-14.0,-52.0
1705334349.026773,8.0,-11.0,-42.0,-32.0,-9.0,2.0,3.0,20.0
1705334349.036443,-16.0,-30.0,-74.0,-17.0,0.0,-4.0,-4.0,-9.0
1705334349.036443,7.0,12.0,108.0,42.0,26.0,20.0,-16.0,28.0
1705334349.0567715,34.0,45.0,69.0,-11.0,-14.0,-9.0,42.0,14.0
1705334349.0567715,-48.0,-9.0,-54.0,-12.0,-11.0,-2.0,-18.0,-27.0
1705334349.0567715,20.0,13.0,-19.0,-13.0,-8.0,-2.0,1.0,-30.0
1705334349.0567715,-12.0,-55.0,-7.0,20.0,14.0,11.0,3.0,-4.0
1705334349.0764391,11.0,9.0,-84.0,-19.0,-3.0,1.0,-4.0,14.0
1705334349.0764391,5.0,33.0,52.0,-5.0,-8.0,-22.0,-5.0,25.0
1705334349.0764391,-20.0,3.0,35.0,0.0,-3.0,4.0,-1.0,-26.0
1705334349.0764391,-7.0,-13.0,-13.0,11.0,7.0,7.0,11.0,-18.0
1705334349.0952454,7.0,-15.0,61.0,14.0,-6.0,-11.0,-21.0,-1.0
1705334349.0952454,12.0,-18.0,-19.0,-22.0,-5.0,-1.0,8.0,19.0
1705334349.0959332,-5.0,11.0,1.0,5.0,0.0,-10.0,-12.0,7.0
1705334349.0959332,6.0,-6.0,16.0,16.0,6.0,9.0,9.0,1.0
1705334349.1117744,0.0,23.0,-10.0,1.0,0.0,9.0,-5.0,-14.0
1705334349.1117744,-11.0,-36.0,-4.0,3.0,-3.0,-12.0,-7.0,2.0
1705334349.1117744,4.0,10.0,19.0,-3.0,-2.0,-1.0,1.0,0.0
1705334349.1117744,4.0,18.0,-34.0,-24.0,-7.0,0.0,5.0,-2.0
1705334349.1317775,1.0,11.0,-1.0,-3.0,-2.0,3.0,-4.0,-3.0
1705334349.1317775,-4.0,-18.0,13.0,14.0,7.0,-6.0,-5.0,-4.0
1705334349.14183,1.0,-5.0,10.0,8.0,0.0,-2.0,-2.0,7.0
1705334349.14183,-5.0,-5.0,-31.0,1.0,-4.0,2.0,6.0,-3.0
1705334349.1521926,-2.0,0.0,-24.0,-12.0,0.0,1.0,-9.0,-6.0
1705334349.1521926,7.0,8.0,28.0,15.0,2.0,-3.0,0.0,6.0
1705334349.1521926,-5.0,-10.0,-5.0,-9.0,-4.0,-2.0,1.0,-3.0
1705334349.1521926,-8.0,-4.0,-14.0,-1.0,-3.0,-5.0,-5.0,-6.0
1705334349.172181,1.0,-7.0,4.0,3.0,2.0,1.0,-2.0,-3.0
1705334349.172181,6.0,-12.0,0.0,-2.0,-1.0,-1.0,0.0,3.0
1705334349.172181,-6.0,-11.0,-12.0,-9.0,-3.0,-2.0,-1.0,2.0
1705334349.172181,-8.0,-26.0,4.0,4.0,-3.0,-1.0,-1.0,-5.0
1705334349.1921797,1.0,5.0,-9.0,-4.0,2.0,0.0,-2.0,0.0
1705334349.1921797,3.0,-16.0,-9.0,-3.0,0.0,-2.0,-1.0,3.0
1705334349.1921797,1.0,30.0,0.0,0.0,-2.0,-3.0,-4.0,2.0
1705334349.1921797,-6.0,8.0,15.0,3.0,-4.0,-3.0,3.0,0.0
1705334349.2117743,1.0,-5.0,-8.0,0.0,1.0,0.0,-2.0,-3.0
1705334349.2117743,-1.0,-17.0,-10.0,-2.0,4.0,0.0,0.0,2.0
1705334349.2117743,-3.0,6.0,10.0,3.0,-1.0,0.0,-1.0,-2.0
1705334349.2117743,2.0,0.0,-2.0,0.0,-3.0,-3.0,0.0,-1.0
1705334349.2417755,3.0,3.0,-9.0,-3.0,-2.0,-2.0,-1.0,-1.0
1705334349.2417755,-5.0,-12.0,13.0,-1.0,0.0,-1.0,0.0,-3.0
1705334349.2417755,0.0,7.0,-16.0,-2.0,0.0,0.0,1.0,0.0
1705334349.2417755,-1.0,-5.0,-3.0,-8.0,-3.0,-3.0,-1.0,0.0
1705334349.2520328,-2.0,0.0,-2.0,4.0,1.0,-1.0,-3.0,-1.0
1705334349.2520328,-1.0,-1.0,2.0,0.0,-3.0,0.0,0.0,1.0
1705334349.2520328,1.0,1.0,7.0,-2.0,0.0,0.0,-2.0,0.0
1705334349.2520328,0.0,-1.0,-6.0,10.0,2.0,0.0,-1.0,-3.0
1705334349.2721047,0.0,3.0,-1.0,-4.0,0.0,1.0,-3.0,-1.0
1705334349.2721047,0.0,-5.0,0.0,-11.0,-2.0,-4.0,-1.0,-1.0
1705334349.2721047,-1.0,2.0,-4.0,1.0,-5.0,-3.0,-3.0,-2.0
1705334349.2721047,-4.0,-6.0,-3.0,2.0,3.0,0.0,-1.0,-2.0
1705334349.3017757,1.0,-10.0,-1.0,4.0,-1.0,-1.0,-1.0,-1.0
1705334349.3017757,3.0,14.0,14.0,6.0,-3.0,-1.0,0.0,0.0
1705334349.3017757,-7.0,10.0,-19.0,-9.0,-4.0,-3.0,-5.0,-5.0
1705334349.3017757,-2.0,-9.0,-7.0,-1.0,1.0,-2.0,1.0,-1.0
1705334349.3120499,2.0,-5.0,-5.0,-4.0,-1.0,-1.0,-2.0,-2.0
1705334349.3120499,-4.0,-21.0,-3.0,-3.0,-1.0,0.0,-2.0,-2.0
1705334349.3120499,2.0,-3.0,11.0,10.0,1.0,1.0,2.0,2.0
1705334349.3120499,-5.0,-14.0,10.0,-4.0,-1.0,-2.0,-2.0,-5.0
1705334349.332127,1.0,-5.0,-28.0,-16.0,-6.0,-4.0,-3.0,-2.0
1705334349.332127,0.0,6.0,3.0,-1.0,-2.0,-2.0,-2.0,2.0
1705334349.332127,-2.0,-16.0,4.0,-1.0,-2.0,0.0,0.0,0.0
1705334349.332127,-1.0,-4.0,-7.0,6.0,2.0,2.0,0.0,-1.0
1705334349.3717766,-2.0,3.0,8.0,4.0,0.0,1.0,1.0,-2.0
1705334349.3717766,-1.0,1.0,-7.0,-4.0,-4.0,-1.0,-1.0,0.0
1705334349.3717766,0.0,-8.0,-3.0,-4.0,-2.0,-2.0,-1.0,-1.0
1705334349.3717766,0.0,-12.0,0.0,-2.0,-1.0,-1.0,-1.0,0.0
1705334349.3717766,2.0,15.0,7.0,7.0,1.0,-1.0,0.0,-3.0
1705334349.3717766,-4.0,3.0,-12.0,-6.0,0.0,-2.0,-1.0,-2.0
1705334349.3717766,0.0,1.0,6.0,-4.0,-5.0,-2.0,-3.0,-1.0
1705334349.3717766,2.0,8.0,5.0,0.0,-1.0,0.0,-2.0,-1.0
1705334349.3921864,-3.0,4.0,3.0,0.0,0.0,0.0,-3.0,-1.0
1705334349.3921864,-2.0,-1.0,-7.0,5.0,0.0,0.0,0.0,-2.0
1705334349.4021657,2.0,-5.0,1.0,-5.0,0.0,0.0,-2.0,0.0
1705334349.4021657,-2.0,1.0,-4.0,-1.0,0.0,-2.0,-1.0,-2.0
1705334349.4021657,0.0,0.0,-2.0,1.0,-2.0,0.0,-1.0,0.0
1705334349.4021657,-1.0,-12.0,-2.0,-3.0,-5.0,-2.0,0.0,-2.0
1705334349.4217756,-2.0,-4.0,1.0,0.0,2.0,0.0,-1.0,-2.0
1705334349.4217756,-1.0,2.0,6.0,0.0,-3.0,1.0,-2.0,0.0
1705334349.4217756,-1.0,9.0,13.0,19.0,3.0,2.0,2.0,0.0
1705334349.4217756,-2.0,4.0,-44.0,-40.0,-5.0,-4.0,-3.0,-2.0
1705334349.4320605,-1.0,1.0,-11.0,-6.0,-4.0,-4.0,-1.0,0.0
1705334349.4320605,-1.0,0.0,1.0,0.0,-2.0,-1.0,-2.0,-1.0
1705334349.4420927,0.0,-9.0,14.0,1.0,0.0,-1.0,-1.0,-1.0
1705334349.4420927,1.0,0.0,21.0,17.0,2.0,3.0,1.0,1.0
1705334349.4517827,1.0,-3.0,-6.0,-2.0,-1.0,1.0,0.0,1.0
1705334349.4517827,-3.0,5.0,1.0,-1.0,-5.0,0.0,1.0,-2.0
1705334349.471787,-3.0,-9.0,-2.0,-7.0,-4.0,0.0,1.0,-1.0
1705334349.471787,4.0,21.0,24.0,11.0,8.0,3.0,1.0,0.0
1705334349.4917784,1.0,-14.0,2.0,1.0,2.0,-1.0,-1.0,-1.0
1705334349.4917784,-2.0,-3.0,-36.0,-7.0,-1.0,-3.0,-2.0,0.0
1705334349.4917784,-6.0,-4.0,-15.0,-9.0,-5.0,-3.0,-4.0,-2.0
1705334349.4917784,-1.0,9.0,2.0,-2.0,-6.0,-3.0,-2.0,-1.0
1705334349.4917784,-2.0,2.0,15.0,2.0,-2.0,0.0,-1.0,-2.0
1705334349.4917784,2.0,2.0,12.0,5.0,0.0,0.0,3.0,1.0
1705334349.5020063,-1.0,2.0,-13.0,-6.0,-3.0,-1.0,0.0,2.0
1705334349.5020063,1.0,-4.0,-2.0,0.0,-3.0,-2.0,-1.0,-2.0
1705334349.511783,-2.0,1.0,6.0,1.0,-1.0,-3.0,0.0,-2.0
1705334349.511783,11.0,-11.0,-8.0,-5.0,-4.0,-2.0,-1.0,1.0
1705334349.5317812,-4.0,-4.0,-4.0,0.0,2.0,0.0,-3.0,-4.0
1705334349.5317812,1.0,-8.0,4.0,4.0,1.0,-1.0,-2.0,-1.0
1705334349.5317812,1.0,-2.0,-3.0,-2.0,-1.0,0.0,0.0,-1.0
1705334349.5317812,-1.0,-2.0,3.0,-1.0,0.0,-3.0,-2.0,0.0
1705334349.5522313,0.0,1.0,5.0,3.0,-1.0,-2.0,-2.0,-1.0
1705334349.5522313,-1.0,0.0,-8.0,-8.0,-2.0,-2.0,-2.0,-1.0
1705334349.5522313,0.0,-1.0,-15.0,5.0,-3.0,-1.0,-2.0,-1.0
1705334349.5522313,0.0,2.0,-14.0,-25.0,-3.0,-2.0,1.0,-1.0
1705334349.5617788,-4.0,9.0,8.0,3.0,-1.0,0.0,-2.0,0.0
1705334349.5617788,-4.0,-4.0,-3.0,7.0,1.0,2.0,-1.0,-2.0
1705334349.5717754,-3.0,1.0,5.0,0.0,-1.0,-2.0,-2.0,0.0
1705334349.5717754,-1.0,4.0,6.0,9.0,1.0,-1.0,-2.0,-2.0
1705334349.5819292,3.0,-2.0,-5.0,-3.0,-1.0,-1.0,1.0,-1.0
1705334349.5819292,0.0,-7.0,0.0,-1.0,-3.0,-2.0,-2.0,1.0
1705334349.5919867,-1.0,0.0,4.0,-2.0,-3.0,1.0,-1.0,0.0
1705334349.5919867,-2.0,-10.0,-3.0,5.0,2.0,-2.0,0.0,-1.0
1705334349.6121156,-2.0,4.0,10.0,0.0,0.0,1.0,-2.0,-3.0
1705334349.6121156,-4.0,-15.0,-28.0,-2.0,-1.0,-3.0,0.0,-2.0
1705334349.6121156,1.0,12.0,-12.0,-8.0,-1.0,-3.0,-1.0,-1.0
1705334349.6121156,-4.0,1.0,8.0,-1.0,-3.0,0.0,-1.0,-1.0
1705334349.6441314,-2.0,-6.0,5.0,-6.0,-3.0,-6.0,-2.0,0.0
1705334349.6441314,0.0,2.0,16.0,2.0,0.0,-1.0,-1.0,0.0
1705334349.6441314,-2.0,-7.0,-7.0,1.0,-1.0,-1.0,-1.0,0.0
1705334349.6441314,-3.0,1.0,2.0,3.0,-2.0,0.0,0.0,-1.0
1705334349.6441314,-1.0,-5.0,-6.0,4.0,3.0,2.0,0.0,-2.0
1705334349.6441314,0.0,-2.0,-1.0,0.0,-2.0,0.0,1.0,0.0
1705334349.6544201,-6.0,-4.0,3.0,0.0,-2.0,0.0,-1.0,-1.0
1705334349.6544201,1.0,-6.0,6.0,0.0,-1.0,1.0,-2.0,0.0
1705334349.664456,-2.0,9.0,-13.0,-11.0,-5.0,-5.0,-2.0,1.0
1705334349.664456,-1.0,0.0,-13.0,-1.0,0.0,-2.0,-2.0,-1.0
1705334349.664456,-2.0,2.0,8.0,-3.0,-1.0,-2.0,-1.0,0.0
1705334349.664456,0.0,-2.0,5.0,3.0,-2.0,-2.0,1.0,-2.0
1705334349.6824389,1.0,-8.0,9.0,1.0,-1.0,1.0,2.0,-1.0
1705334349.6824389,-3.0,-5.0,0.0,4.0,1.0,0.0,-2.0,-1.0
1705334349.6927042,2.0,-1.0,-24.0,-11.0,-4.0,-5.0,-3.0,-1.0
1705334349.6927042,0.0,1.0,-3.0,-10.0,-1.0,0.0,-3.0,-2.0
1705334349.712447,2.0,0.0,-6.0,-2.0,-1.0,-1.0,-1.0,0.0
1705334349.712447,-3.0,-7.0,10.0,3.0,-3.0,-1.0,-1.0,-1.0
1705334349.712447,0.0,-5.0,10.0,6.0,1.0,0.0,-1.0,-2.0
1705334349.712447,-5.0,0.0,-9.0,1.0,1.0,0.0,-3.0,-2.0
1705334349.7327485,0.0,-5.0,1.0,-1.0,-4.0,-2.0,0.0,-1.0
1705334349.7327485,-1.0,-1.0,6.0,-1.0,-1.0,-1.0,-1.0,-1.0
1705334349.7327485,-1.0,-3.0,-7.0,0.0,-1.0,0.0,0.0,0.0
1705334349.7327485,-1.0,2.0,1.0,-5.0,0.0,-5.0,-1.0,-1.0
1705334349.7624476,1.0,-9.0,-4.0,-1.0,0.0,-2.0,-2.0,-1.0
1705334349.7624476,1.0,0.0,-6.0,-3.0,0.0,-1.0,-2.0,2.0
1705334349.7624476,0.0,-5.0,0.0,1.0,1.0,1.0,-1.0,-2.0
1705334349.7624476,-1.0,1.0,-6.0,2.0,0.0,2.0,-1.0,-1.0
1705334349.7624476,0.0,-2.0,16.0,3.0,0.0,-2.0,-1.0,-1.0
1705334349.7624476,-2.0,-5.0,-7.0,-2.0,-4.0,-3.0,-2.0,-2.0
1705334349.7724738,-2.0,7.0,3.0,-6.0,-1.0,-3.0,-2.0,-1.0
1705334349.7724738,4.0,13.0,-1.0,-2.0,0.0,-2.0,2.0,3.0
1705334349.7924895,0.0,-5.0,-13.0,-2.0,0.0,0.0,-1.0,0.0
1705334349.7924895,1.0,-2.0,7.0,0.0,-1.0,1.0,-3.0,-2.0
1705334349.8024468,-1.0,5.0,8.0,1.0,0.0,0.0,-2.0,-1.0
1705334349.8024468,0.0,-10.0,19.0,4.0,2.0,-2.0,-2.0,-1.0
1705334349.8024468,-2.0,2.0,-33.0,-7.0,-3.0,-4.0,-1.0,0.0
1705334349.8024468,0.0,5.0,7.0,-5.0,-2.0,-2.0,1.0,-1.0
1705334349.8126762,-2.0,-15.0,-6.0,0.0,-2.0,-4.0,-2.0,-2.0
1705334349.8126762,1.0,-4.0,10.0,11.0,1.0,1.0,-2.0,0.0
1705334349.8224523,2.0,1.0,24.0,-8.0,-2.0,-1.0,-1.0,0.0
1705334349.8224523,-3.0,-3.0,-34.0,-10.0,-4.0,-5.0,-3.0,-3.0
1705334349.832515,1.0,-2.0,-18.0,-7.0,-4.0,-2.0,-1.0,0.0
1705334349.832515,-3.0,-4.0,-3.0,0.0,-2.0,1.0,0.0,-1.0
1705334349.852774,-1.0,-10.0,13.0,8.0,-1.0,0.0,1.0,-2.0
1705334349.852774,2.0,4.0,6.0,0.0,0.0,-1.0,-1.0,1.0
1705334349.852774,-1.0,-8.0,6.0,-4.0,0.0,-1.0,-1.0,-4.0
1705334349.852774,-1.0,3.0,-6.0,1.0,-2.0,0.0,0.0,1.0
1705334349.8824477,0.0,-3.0,-7.0,-1.0,0.0,2.0,-1.0,2.0
1705334349.8824477,1.0,-9.0,4.0,0.0,-1.0,-1.0,-1.0,-2.0
1705334349.8824477,0.0,5.0,-2.0,1.0,-2.0,-1.0,-2.0,0.0
1705334349.8824477,0.0,-3.0,-9.0,-7.0,-2.0,-3.0,-1.0,-1.0
1705334349.8824477,-4.0,1.0,-6.0,-3.0,-1.0,-2.0,1.0,-4.0
1705334349.8824477,-6.0,-5.0,0.0,-4.0,-1.0,-4.0,-3.0,-2.0
1705334349.8926587,0.0,-6.0,11.0,5.0,0.0,2.0,0.0,-1.0
1705334349.8926587,-2.0,2.0,-6.0,-1.0,-2.0,-2.0,0.0,-3.0
1705334349.9127524,-1.0,-2.0,0.0,2.0,1.0,-1.0,0.0,-1.0
1705334349.9127524,0.0,0.0,3.0,1.0,0.0,-1.0,1.0,0.0
1705334349.9127524,-4.0,-8.0,-43.0,-11.0,-2.0,-4.0,-1.0,0.0
1705334349.9127524,-2.0,-10.0,6.0,-2.0,-2.0,-2.0,-3.0,-2.0
1705334349.9324527,0.0,15.0,-2.0,5.0,0.0,0.0,-2.0,0.0
1705334349.9324527,2.0,10.0,7.0,-3.0,-2.0,-1.0,-2.0,0.0
1705334349.9324527,-2.0,1.0,14.0,1.0,1.0,0.0,1.0,-1.0
1705334349.9324527,0.0,-11.0,-1.0,4.0,-2.0,-2.0,-2.0,1.0
1705334349.942447,-2.0,-11.0,-1.0,-5.0,-3.0,0.0,-3.0,-1.0
1705334349.942447,1.0,-5.0,-13.0,-1.0,-1.0,-1.0,1.0,-1.0
1705334349.9524975,3.0,0.0,17.0,1.0,0.0,0.0,-1.0,-1.0
1705334349.9524975,-1.0,-3.0,-17.0,1.0,1.0,0.0,0.0,-2.0
1705334349.9724474,-1.0,-3.0,7.0,1.0,-3.0,-3.0,-1.0,-1.0
1705334349.9724474,0.0,4.0,-3.0,-3.0,-1.0,1.0,0.0,-1.0
1705334349.9724474,0.0,-6.0,5.0,0.0,0.0,-1.0,-1.0,-2.0
1705334349.9724474,0.0,0.0,9.0,-4.0,0.0,-1.0,-1.0,-4.0
1705334349.9824736,0.0,-5.0,-16.0,-2.0,-2.0,-1.0,-1.0,2.0
1705334349.9824736,0.0,-10.0,-1.0,1.0,-1.0,-3.0,-2.0,0.0
1705334349.9925187,0.0,-11.0,-4.0,2.0,-1.0,-2.0,-1.0,1.0
1705334349.9925187,-3.0,14.0,13.0,5.0,1.0,0.0,0.0,0.0
1705334350.0024512,-3.0,-5.0,-3.0,-10.0,-2.0,-4.0,-3.0,-1.0
1705334350.0024512,-3.0,-11.0,-4.0,-1.0,-4.0,-2.0,-2.0,-2.0
1705334350.0126867,1.0,-5.0,1.0,1.0,0.0,1.0,-2.0,-2.0
1705334350.0126867,-2.0,-6.0,-10.0,-1.0,-2.0,-4.0,0.0,1.0
1705334350.0424476,0.0,-7.0,13.0,5.0,2.0,-1.0,1.0,-1.0
1705334350.0424476,-2.0,-4.0,-8.0,2.0,0.0,-1.0,1.0,0.0
1705334350.0424476,-3.0,16.0,4.0,-7.0,-3.0,-5.0,-4.0,-4.0
1705334350.0424476,1.0,-8.0,-30.0,-10.0,-3.0,-2.0,0.0,-2.0
1705334350.0424476,-3.0,-12.0,-14.0,-1.0,-3.0,-1.0,-2.0,-1.0
1705334350.0424476,-8.0,-6.0,7.0,4.0,0.0,2.0,0.0,-1.0
1705334350.0525525,-2.0,-1.0,7.0,5.0,1.0,0.0,0.0,0.0
1705334350.0525525,0.0,2.0,12.0,-2.0,-2.0,-2.0,-1.0,1.0
1705334350.0924482,5.0,-4.0,-2.0,-2.0,-1.0,-1.0,1.0,1.0
1705334350.0924482,-1.0,-11.0,-5.0,-2.0,0.0,0.0,-1.0,-1.0
1705334350.0924482,-2.0,-7.0,-2.0,2.0,-1.0,-2.0,1.0,-1.0
1705334350.0924482,-5.0,6.0,10.0,-7.0,-3.0,-3.0,-3.0,-2.0
1705334350.0924482,-2.0,-4.0,-17.0,-2.0,-2.0,-4.0,-1.0,-2.0
1705334350.0924482,2.0,-3.0,18.0,-1.0,-1.0,-2.0,-3.0,-2.0
1705334350.0924482,2.0,2.0,-16.0,-3.0,-3.0,0.0,0.0,-1.0
1705334350.0924482,-1.0,-12.0,-7.0,2.0,2.0,1.0,-1.0,-2.0
1705334350.102741,-2.0,-6.0,2.0,2.0,0.0,2.0,-1.0,-2.0
1705334350.102741,0.0,9.0,4.0,-3.0,0.0,-1.0,0.0,-2.0
1705334350.112449,0.0,9.0,4.0,2.0,2.0,-1.0,0.0,0.0
1705334350.112449,1.0,1.0,7.0,2.0,-2.0,0.0,-1.0,-1.0
1705334350.1224468,-2.0,-3.0,-6.0,-2.0,2.0,-1.0,-3.0,0.0
1705334350.1224468,-2.0,-2.0,5.0,-4.0,-2.0,-5.0,-2.0,-1.0
1705334350.1327488,1.0,0.0,-7.0,-1.0,-2.0,0.0,-1.0,-1.0
1705334350.1327488,3.0,3.0,-18.0,-10.0,-5.0,-2.0,-1.0,0.0
1705334350.1579084,-2.0,3.0,19.0,-2.0,1.0,-1.0,-3.0,-4.0
1705334350.1579084,2.0,-3.0,-4.0,3.0,-1.0,0.0,0.0,1.0
1705334350.1579084,-5.0,-4.0,4.0,2.0,-2.0,-1.0,-1.0,-1.0
1705334350.1579084,0.0,-3.0,8.0,1.0,0.0,-2.0,-3.0,-1.0
1705334350.1673884,0.0,-9.0,-9.0,0.0,0.0,-2.0,0.0,-2.0
1705334350.168044,0.0,-8.0,11.0,7.0,1.0,-1.0,2.0,0.0
1705334350.1745572,-2.0,2.0,20.0,-1.0,1.0,2.0,0.0,-5.0
1705334350.1745572,-5.0,-12.0,-79.0,-9.0,-4.0,-2.0,-2.0,-3.0
1705334350.1878467,-3.0,5.0,-8.0,-11.0,-4.0,-5.0,-3.0,1.0
1705334350.1878467,2.0,-2.0,-3.0,-1.0,-2.0,-2.0,-2.0,1.0
1705334350.1977348,-4.0,1.0,22.0,3.0,1.0,-1.0,-1.0,1.0
1705334350.1977348,-1.0,-10.0,17.0,4.0,3.0,3.0,1.0,0.0
1705334350.2079585,1.0,3.0,-12.0,-1.0,-2.0,-2.0,0.0,-3.0
1705334350.2079585,-1.0,7.0,-1.0,-1.0,-2.0,0.0,-2.0,-1.0
1705334350.218008,0.0,-4.0,-7.0,-2.0,-3.0,-3.0,-2.0,-1.0
1705334350.218008,0.0,1.0,15.0,1.0,1.0,0.0,0.0,0.0
1705334350.2277396,0.0,9.0,-1.0,1.0,-1.0,-2.0,-1.0,-3.0
1705334350.2277396,0.0,3.0,6.0,-2.0,0.0,-1.0,-2.0,0.0
1705334350.2277396,3.0,-2.0,-15.0,-4.0,0.0,0.0,-2.0,-1.0
1705334350.2277396,-5.0,3.0,11.0,0.0,-1.0,-2.0,-2.0,-2.0
1705334350.2479177,-1.0,3.0,8.0,1.0,0.0,3.0,2.0,0.0
1705334350.2479177,0.0,-3.0,-7.0,-3.0,0.0,0.0,-1.0,-3.0
1705334350.2677357,0.0,-5.0,-9.0,-2.0,-1.0,0.0,-2.0,-1.0
1705334350.2677357,-5.0,4.0,5.0,4.0,-1.0,-2.0,1.0,-2.0
1705334350.2677357,-1.0,-5.0,-2.0,-3.0,-1.0,1.0,-1.0,2.0
1705334350.2677357,1.0,-2.0,-3.0,-4.0,-3.0,-6.0,-2.0,-1.0
1705334350.2777708,3.0,-3.0,-14.0,-5.0,-3.0,-3.0,-1.0,-1.0
1705334350.2777708,2.0,-3.0,9.0,2.0,-1.0,-2.0,-2.0,0.0
1705334350.2880702,-1.0,2.0,11.0,1.0,-1.0,-2.0,0.0,-2.0
1705334350.2880702,-4.0,2.0,-29.0,-3.0,-1.0,0.0,0.0,-2.0
1705334350.3077345,1.0,-4.0,14.0,0.0,0.0,0.0,-1.0,-2.0
1705334350.3077345,-5.0,-2.0,8.0,2.0,1.0,-1.0,-1.0,-1.0
1705334350.3177636,-1.0,-9.0,-29.0,0.0,-2.0,-2.0,0.0,0.0
1705334350.3177636,0.0,-15.0,-33.0,-7.0,-3.0,-3.0,-1.0,-1.0
1705334350.3177636,1.0,6.0,8.0,-1.0,-1.0,1.0,-1.0,0.0
1705334350.3177636,3.0,0.0,8.0,0.0,-1.0,-1.0,-1.0,-1.0
1705334350.3381174,1.0,1.0,16.0,1.0,-1.0,1.0,-1.0,-1.0
1705334350.3381174,-3.0,-13.0,-1.0,-1.0,-2.0,0.0,0.0,0.0
1705334350.3381174,-3.0,-4.0,13.0,-2.0,0.0,-2.0,-1.0,-2.0
1705334350.3381174,1.0,-6.0,-26.0,0.0,-2.0,-1.0,0.0,-2.0
1705334350.3481207,3.0,2.0,14.0,-4.0,-3.0,-3.0,-3.0,-2.0
1705334350.3481207,2.0,6.0,17.0,5.0,1.0,1.0,0.0,0.0
1705334350.367734,-6.0,1.0,-8.0,-3.0,-1.0,0.0,1.0,0.0
1705334350.367734,4.0,0.0,19.0,-7.0,-1.0,-2.0,-2.0,1.0
1705334350.3781512,-2.0,-6.0,-28.0,-2.0,-1.0,-1.0,-2.0,-3.0
1705334350.3781512,-3.0,7.0,4.0,2.0,0.0,0.0,0.0,0.0
1705334350.3781512,-3.0,-4.0,-4.0,-1.0,-1.0,-1.0,0.0,-1.0
1705334350.3781512,0.0,-3.0,3.0,-4.0,-1.0,1.0,1.0,2.0
1705334350.3981647,-2.0,-1.0,10.0,-1.0,-1.0,-1.0,-1.0,0.0
1705334350.3981647,1.0,2.0,11.0,1.0,-1.0,0.0,-2.0,1.0
1705334350.3981647,2.0,-6.0,-15.0,1.0,1.0,-3.0,1.0,0.0
1705334350.3981647,-3.0,-4.0,-15.0,-7.0,-3.0,0.0,-3.0,-2.0
1705334350.4080982,0.0,-1.0,-2.0,0.0,2.0,0.0,0.0,-1.0
1705334350.4080982,0.0,18.0,18.0,-1.0,-1.0,-1.0,0.0,0.0
1705334350.4277337,-1.0,-6.0,-5.0,1.0,0.0,-3.0,-1.0,-1.0
1705334350.4277337,-1.0,1.0,-7.0,0.0,0.0,-2.0,1.0,-1.0
1705334350.438101,-2.0,-3.0,18.0,2.0,-1.0,1.0,-1.0,0.0
1705334350.438101,-1.0,-7.0,-8.0,-4.0,-1.0,-1.0,0.0,-2.0
1705334350.438101,3.0,-9.0,-9.0,-4.0,-1.0,-4.0,-3.0,0.0
1705334350.438101,-1.0,2.0,22.0,6.0,0.0,-3.0,-1.0,0.0
1705334350.4581056,-3.0,11.0,8.0,0.0,1.0,-1.0,-2.0,-1.0
1705334350.4581056,0.0,-5.0,-37.0,-14.0,-2.0,-1.0,-1.0,-1.0
1705334350.4581056,-1.0,-2.0,10.0,1.0,-1.0,1.0,-1.0,-1.0
1705334350.4581056,-1.0,-2.0,-8.0,-1.0,-1.0,0.0,-2.0,-2.0
1705334350.4680502,1.0,-4.0,14.0,5.0,0.0,0.0,1.0,1.0
1705334350.4680502,-3.0,1.0,5.0,3.0,3.0,-1.0,0.0,-4.0
1705334350.487734,-2.0,1.0,-10.0,-4.0,-2.0,-1.0,-2.0,1.0
1705334350.487734,-2.0,4.0,19.0,4.0,1.0,0.0,0.0,-2.0
1705334350.498123,-1.0,-4.0,-8.0,-1.0,-2.0,0.0,1.0,-1.0
1705334350.498123,-2.0,-7.0,-16.0,-1.0,-2.0,-3.0,-5.0,-2.0
1705334350.498123,-4.0,3.0,-2.0,-11.0,-3.0,-2.0,-3.0,-3.0
1705334350.498123,-1.0,-2.0,-2.0,-1.0,-2.0,0.0,-1.0,-1.0
1705334350.5180082,-1.0,-5.0,-3.0,-3.0,-1.0,-1.0,1.0,0.0
1705334350.5180082,2.0,-10.0,18.0,3.0,2.0,0.0,-1.0,-1.0
1705334350.5180082,2.0,-5.0,-14.0,5.0,-1.0,0.0,1.0,-2.0
1705334350.5180082,-2.0,-1.0,15.0,0.0,-1.0,-1.0,-3.0,0.0
1705334350.5277348,-1.0,2.0,-10.0,-3.0,-3.0,-1.0,-1.0,-1.0
1705334350.5277348,0.0,0.0,5.0,0.0,0.0,-1.0,-1.0,-3.0
1705334350.5379593,0.0,3.0,2.0,2.0,-1.0,-1.0,1.0,-1.0
1705334350.5379593,1.0,7.0,-4.0,-2.0,-1.0,0.0,-1.0,-2.0
1705334350.5580795,0.0,-8.0,-16.0,-4.0,-2.0,-1.0,-3.0,1.0
1705334350.5580795,-4.0,9.0,13.0,0.0,-3.0,-2.0,-1.0,-2.0
1705334350.5580795,-1.0,1.0,-1.0,-3.0,-1.0,-2.0,0.0,-1.0
1705334350.5580795,-2.0,-1.0,-11.0,-3.0,-2.0,-5.0,1.0,-3.0
1705334350.607736,0.0,-1.0,8.0,2.0,0.0,-1.0,0.0,-1.0
1705334350.607736,-1.0,14.0,-21.0,-2.0,2.0,1.0,1.0,1.0
1705334350.607736,2.0,6.0,8.0,-4.0,-2.0,-1.0,-3.0,-1.0
1705334350.607736,1.0,-2.0,-6.0,1.0,-3.0,-1.0,-3.0,0.0
1705334350.607736,-2.0,1.0,-9.0,-5.0,-1.0,-1.0,-1.0,-3.0
1705334350.607736,0.0,-2.0,7.0,1.0,-3.0,-1.0,0.0,0.0
1705334350.607736,0.0,-2.0,-8.0,2.0,-1.0,1.0,0.0,1.0
1705334350.607736,-1.0,0.0,0.0,0.0,0.0,-1.0,-1.0,-1.0
1705334350.6177335,-2.0,-4.0,9.0,0.0,-3.0,-3.0,-2.0,-2.0
1705334350.6177335,2.0,-1.0,-2.0,-2.0,-3.0,0.0,0.0,-1.0
1705334350.6177335,-2.0,-1.0,-2.0,-4.0,1.0,0.0,-3.0,0.0
1705334350.6177335,-3.0,3.0,-7.0,-3.0,0.0,-2.0,-1.0,-2.0
1705334350.6380038,0.0,-4.0,-7.0,1.0,0.0,-3.0,-1.0,-2.0
1705334350.6380038,-1.0,-2.0,3.0,5.0,-1.0,-1.0,-1.0,0.0
1705334350.6380038,0.0,3.0,11.0,-1.0,0.0,0.0,-1.0,1.0
1705334350.6380038,-2.0,-3.0,-18.0,-4.0,-3.0,-2.0,-1.0,0.0
1705334350.6579506,-2.0,2.0,-20.0,-1.0,-1.0,1.0,-1.0,-1.0
1705334350.6579506,-1.0,-12.0,5.0,-3.0,-2.0,-3.0,-1.0,0.0
1705334350.6579506,2.0,-2.0,-1.0,1.0,1.0,-3.0,0.0,-2.0
1705334350.6579506,-9.0,-15.0,0.0,0.0,-1.0,0.0,-1.0,-3.0
1705334350.6780457,1.0,5.0,7.0,2.0,-2.0,-2.0,-1.0,0.0
1705334350.6780457,-4.0,-6.0,-11.0,-4.0,-1.0,-2.0,-2.0,-1.0
1705334350.6780457,-3.0,-2.0,13.0,5.0,-1.0,1.0,0.0,0.0
1705334350.6780457,2.0,-2.0,-10.0,-4.0,-1.0,-4.0,0.0,-2.0
1705334350.709834,-1.0,-1.0,0.0,-4.0,-1.0,-1.0,-1.0,0.0
1705334350.709834,-1.0,7.0,6.0,-2.0,-2.0,0.0,-2.0,0.0
1705334350.709834,-2.0,-7.0,5.0,1.0,-2.0,-1.0,-1.0,-3.0
1705334350.709834,1.0,2.0,-16.0,1.0,0.0,2.0,1.0,-1.0
1705334350.7285104,-3.0,2.0,3.0,-2.0,-2.0,-1.0,-2.0,-2.0
1705334350.7285104,0.0,-3.0,-3.0,-1.0,-2.0,1.0,-1.0,1.0
1705334350.7285104,-3.0,-23.0,-9.0,-2.0,-3.0,-1.0,-1.0,-3.0
1705334350.7285104,3.0,0.0,17.0,0.0,0.0,-2.0,-2.0,0.0
1705334350.7285104,0.0,-4.0,-5.0,1.0,0.0,-2.0,-2.0,-2.0
1705334350.7385206,-3.0,2.0,9.0,1.0,1.0,-1.0,2.0,-3.0
1705334350.7385206,-2.0,2.0,-9.0,0.0,-2.0,-1.0,0.0,-2.0
1705334350.7385206,0.0,-5.0,6.0,-1.0,-2.0,1.0,0.0,1.0
1705334350.758552,1.0,7.0,15.0,5.0,0.0,-2.0,-2.0,1.0
1705334350.758552,-1.0,-6.0,10.0,-5.0,-1.0,0.0,0.0,-2.0
1705334350.758552,-1.0,-6.0,-12.0,-1.0,-1.0,-2.0,0.0,-1.0
1705334350.758552,-2.0,1.0,-6.0,-7.0,-3.0,-3.0,0.0,-1.0
1705334350.7789786,1.0,-4.0,10.0,2.0,-1.0,0.0,1.0,0.0
1705334350.7789786,-1.0,-1.0,-19.0,5.0,1.0,-1.0,-1.0,1.0
1705334350.7789786,-5.0,10.0,9.0,0.0,-2.0,-1.0,-1.0,-1.0
1705334350.7789786,-1.0,-2.0,8.0,4.0,1.0,2.0,-2.0,-1.0
1705334350.7885597,-2.0,-8.0,-30.0,-8.0,0.0,-2.0,-1.0,-4.0
1705334350.7985296,-1.0,4.0,13.0,3.0,-1.0,0.0,-1.0,-1.0
1705334350.7985296,0.0,2.0,-16.0,-7.0,-3.0,-2.0,-2.0,0.0
1705334350.7985296,0.0,-3.0,-4.0,4.0,-4.0,-4.0,-4.0,-3.0
1705334350.8185518,-2.0,2.0,4.0,1.0,2.0,-1.0,-1.0,0.0
1705334350.8185518,0.0,2.0,-8.0,-6.0,1.0,-1.0,-1.0,1.0
1705334350.8185518,0.0,2.0,6.0,3.0,0.0,1.0,-3.0,-2.0
1705334350.8185518,-2.0,-3.0,-7.0,-1.0,1.0,0.0,0.0,-1.0
1705334350.838969,2.0,-2.0,11.0,4.0,0.0,2.0,-1.0,-1.0
1705334350.838969,0.0,-5.0,2.0,5.0,0.0,-1.0,-1.0,-1.0
1705334350.838969,-2.0,6.0,-10.0,-24.0,-7.0,-6.0,-5.0,-1.0
1705334350.838969,-1.0,2.0,5.0,6.0,-1.0,-1.0,-1.0,0.0
1705334350.8485796,-1.0,-8.0,-2.0,-1.0,0.0,-2.0,-1.0,-1.0
1705334350.8485796,0.0,0.0,-1.0,1.0,2.0,1.0,1.0,0.0
1705334350.8585222,1.0,1.0,9.0,5.0,1.0,0.0,1.0,0.0
1705334350.8585222,-4.0,-3.0,-14.0,-3.0,-2.0,-1.0,-1.0,-3.0
1705334350.8788202,-3.0,-7.0,7.0,-4.0,-2.0,-4.0,-1.0,-3.0
1705334350.8788202,-7.0,-3.0,-19.0,-7.0,-3.0,-1.0,-3.0,-3.0
1705334350.8788202,0.0,-2.0,-4.0,5.0,-1.0,-1.0,-1.0,1.0
1705334350.8788202,-1.0,2.0,6.0,-5.0,0.0,-1.0,0.0,-1.0
1705334350.8988595,-2.0,1.0,-3.0,2.0,1.0,1.0,-2.0,-2.0
1705334350.8988595,1.0,0.0,1.0,0.0,-2.0,-4.0,-3.0,-1.0
1705334350.8988595,-4.0,-11.0,-1.0,2.0,0.0,1.0,-1.0,-3.0
1705334350.8988595,1.0,12.0,-1.0,-2.0,-1.0,-1.0,-1.0,0.0
1705334350.9085932,-2.0,2.0,0.0,-2.0,1.0,-1.0,-1.0,1.0
1705334350.9085932,1.0,2.0,-2.0,-1.0,-2.0,-2.0,-1.0,-2.0
1705334350.948517,1.0,3.0,-3.0,2.0,2.0,1.0,1.0,0.0
1705334350.948517,1.0,-7.0,1.0,-2.0,-2.0,-2.0,-1.0,0.0
1705334350.948517,-3.0,1.0,-5.0,1.0,-5.0,-2.0,-2.0,-3.0
1705334350.948517,-1.0,2.0,15.0,3.0,-1.0,3.0,-1.0,0.0
1705334350.948517,-3.0,-10.0,2.0,9.0,5.0,4.0,2.0,0.0
1705334350.948517,-1.0,1.0,-30.0,-33.0,-10.0,-10.0,-5.0,-4.0
1705334350.958885,0.0,4.0,-3.0,-5.0,-2.0,-2.0,-1.0,-1.0
1705334350.958885,1.0,-5.0,-4.0,7.0,6.0,2.0,1.0,3.0
1705334350.958885,0.0,0.0,9.0,10.0,6.0,1.0,0.0,-1.0
1705334350.958885,1.0,-2.0,9.0,10.0,3.0,2.0,2.0,1.0
1705334350.968519,-2.0,-5.0,-2.0,-3.0,-4.0,-1.0,-3.0,1.0
1705334350.968519,-1.0,-2.0,-12.0,-3.0,-4.0,-2.0,-1.0,-1.0
1705334350.9788227,-1.0,4.0,-9.0,-7.0,-4.0,-4.0,-2.0,-1.0
1705334350.9788227,-2.0,-4.0,30.0,3.0,0.0,-2.0,-2.0,-1.0
1705334350.9987357,-1.0,1.0,-9.0,-8.0,-6.0,-3.0,-2.0,-2.0
1705334350.9987357,0.0,-2.0,8.0,-2.0,-3.0,-1.0,-1.0,-2.0
1705334350.9987357,2.0,-1.0,-9.0,-6.0,-4.0,-2.0,-3.0,-1.0
1705334350.9987357,0.0,-2.0,-1.0,9.0,6.0,3.0,1.0,-1.0
1705334351.0188575,0.0,2.0,6.0,4.0,5.0,2.0,1.0,-1.0
1705334351.0188575,-2.0,1.0,-3.0,-6.0,-3.0,-2.0,-3.0,-2.0
1705334351.0188575,-3.0,6.0,1.0,-6.0,-7.0,-4.0,-3.0,-2.0
1705334351.0188575,0.0,-8.0,-1.0,5.0,-1.0,1.0,1.0,0.0
1705334351.0287542,0.0,0.0,-6.0,-1.0,1.0,2.0,2.0,0.0
1705334351.0287542,-3.0,-1.0,-7.0,0.0,0.0,-2.0,-1.0,-2.0
1705334351.068519,-1.0,3.0,6.0,2.0,-16.0,-7.0,-4.0,-3.0
1705334351.068519,-2.0,-1.0,-1.0,-6.0,1.0,3.0,-1.0,0.0
1705334351.068519,0.0,-9.0,-8.0,-13.0,6.0,2.0,-1.0,1.0
1705334351.068519,-1.0,0.0,1.0,1.0,8.0,2.0,1.0,1.0
1705334351.068519,-2.0,-7.0,0.0,6.0,7.0,2.0,0.0,1.0
1705334351.068519,1.0,4.0,-16.0,8.0,-4.0,-3.0,0.0,-1.0
1705334351.078567,-1.0,-1.0,1.0,-2.0,-9.0,-5.0,-5.0,-2.0
1705334351.078567,-3.0,-4.0,4.0,-12.0,-18.0,-9.0,-5.0,-1.0
1705334351.078567,-2.0,4.0,3.0,2.0,10.0,1.0,2.0,0.0
1705334351.078567,0.0,-4.0,-8.0,3.0,8.0,2.0,-2.0,0.0
1705334351.1085174,-2.0,-4.0,-5.0,0.0,-2.0,0.0,-1.0,2.0
1705334351.1085174,-1.0,-4.0,4.0,-2.0,-2.0,-1.0,0.0,-1.0
1705334351.1085174,0.0,3.0,-6.0,-1.0,-5.0,-2.0,-1.0,-1.0
1705334351.1085174,-1.0,0.0,-1.0,-5.0,-6.0,-2.0,-2.0,-1.0
1705334351.1185255,-2.0,0.0,9.0,-4.0,2.0,-4.0,-2.0,-3.0
1705334351.1185255,0.0,-2.0,-3.0,-4.0,-25.0,-8.0,-1.0,1.0
1705334351.1185255,-3.0,1.0,-16.0,-9.0,17.0,3.0,0.0,-3.0
1705334351.1185255,-2.0,-1.0,3.0,-3.0,7.0,2.0,1.0,1.0
1705334351.1485214,1.0,-7.0,-6.0,19.0,9.0,4.0,2.0,2.0
1705334351.1485214,-2.0,-2.0,10.0,15.0,11.0,2.0,-2.0,0.0
1705334351.1485214,-2.0,4.0,-1.0,-11.0,-13.0,-8.0,-3.0,-2.0
1705334351.1485214,0.0,-5.0,8.0,-4.0,-4.0,-4.0,-3.0,-2.0
1705334351.1485214,-4.0,6.0,-2.0,0.0,-14.0,0.0,0.0,0.0
1705334351.1485214,0.0,-3.0,-13.0,-8.0,4.0,-1.0,0.0,-1.0
1705334351.1585655,0.0,-2.0,2.0,1.0,0.0,3.0,-1.0,-2.0
1705334351.1585655,-5.0,2.0,0.0,-4.0,-3.0,0.0,0.0,-2.0
1705334351.1789584,0.0,-2.0,-3.0,-1.0,-6.0,-1.0,-1.0,0.0
1705334351.1789584,2.0,-5.0,-4.0,3.0,8.0,2.0,2.0,0.0
1705334351.1789584,0.0,-2.0,13.0,0.0,-2.0,-4.0,-3.0,-1.0
1705334351.1789584,-1.0,-2.0,-9.0,-8.0,-11.0,-6.0,-2.0,-3.0
1705334351.1985207,-2.0,-2.0,-4.0,-7.0,0.0,0.0,0.0,-2.0
1705334351.1985207,-1.0,2.0,22.0,15.0,8.0,3.0,1.0,0.0
1705334351.1985207,2.0,-8.0,-6.0,2.0,5.0,2.0,0.0,0.0
1705334351.1985207,0.0,-6.0,-13.0,3.0,-4.0,-6.0,-3.0,0.0
1705334351.208553,-2.0,-1.0,-11.0,-13.0,6.0,-3.0,-5.0,-3.0
1705334351.208553,-2.0,4.0,-1.0,-8.0,-4.0,1.0,-1.0,-3.0
1705334351.226472,1.0,-5.0,8.0,3.0,-7.0,-2.0,-1.0,1.0
1705334351.226472,-1.0,6.0,9.0,10.0,12.0,5.0,2.0,0.0
1705334351.241547,-3.0,-1.0,-5.0,8.0,11.0,3.0,0.0,1.0
1705334351.241547,0.0,-3.0,-7.0,-12.0,-13.0,-6.0,-2.0,-1.0
1705334351.2426844,-1.0,-5.0,0.0,-6.0,-9.0,-3.0,-1.0,-1.0
1705334351.2426844,-1.0,1.0,-9.0,-7.0,-9.0,-6.0,-2.0,-3.0
1705334351.2627132,0.0,4.0,8.0,10.0,-2.0,1.0,0.0,0.0
1705334351.2627132,-2.0,-4.0,-4.0,-5.0,7.0,2.0,1.0,-1.0
1705334351.2627132,-2.0,-10.0,-7.0,5.0,-4.0,-2.0,-1.0,-2.0
1705334351.2627132,-1.0,-4.0,1.0,1.0,7.0,1.0,-1.0,-1.0
1705334351.272747,1.0,-2.0,-2.0,-1.0,1.0,-2.0,-1.0,0.0
1705334351.272747,-1.0,1.0,-1.0,2.0,-5.0,-3.0,-4.0,-3.0
1705334351.2830062,-4.0,0.0,-4.0,-12.0,-11.0,-3.0,-1.0,0.0
1705334351.2830062,0.0,-1.0,-2.0,-2.0,5.0,1.0,1.0,0.0
1705334351.2930193,-2.0,-3.0,4.0,10.0,-2.0,-5.0,-1.0,-2.0
1705334351.2930193,-1.0,0.0,-10.0,-20.0,-2.0,-2.0,-2.0,0.0
1705334351.3026867,-3.0,-1.0,-3.0,-3.0,-8.0,-3.0,-2.0,1.0
1705334351.3026867,-1.0,-2.0,2.0,9.0,3.0,3.0,1.0,1.0
1705334351.3229792,0.0,-4.0,-2.0,0.0,11.0,3.0,1.0,0.0
1705334351.3229792,-2.0,1.0,8.0,2.0,-4.0,-7.0,0.0,-2.0
1705334351.3229792,-1.0,-5.0,-16.0,14.0,13.0,3.0,-1.0,-1.0
1705334351.3229792,0.0,-3.0,17.0,-13.0,-21.0,-5.0,-5.0,-2.0
1705334351.3329835,0.0,-3.0,-17.0,-11.0,-14.0,-7.0,-3.0,-1.0
1705334351.3329835,-1.0,3.0,13.0,15.0,23.0,5.0,2.0,-1.0
1705334351.3429682,0.0,4.0,-4.0,0.0,3.0,0.0,3.0,-1.0
1705334351.3429682,-1.0,-3.0,3.0,-8.0,-14.0,-4.0,-2.0,-1.0
1705334351.3530335,2.0,-3.0,2.0,-12.0,-2.0,-3.0,-4.0,-2.0
1705334351.3530335,1.0,-2.0,-11.0,-7.0,-8.0,-2.0,0.0,-2.0
1705334351.3830502,-1.0,1.0,8.0,4.0,5.0,0.0,2.0,-1.0
1705334351.3830502,0.0,-3.0,-10.0,8.0,9.0,2.0,0.0,-1.0
1705334351.3830502,-1.0,3.0,4.0,-2.0,-10.0,-3.0,1.0,-1.0
1705334351.3830502,-1.0,-2.0,-3.0,0.0,-10.0,-3.0,-3.0,-1.0
1705334351.3830502,-1.0,3.0,9.0,2.0,11.0,1.0,-2.0,0.0
1705334351.3830502,1.0,-2.0,0.0,0.0,1.0,0.0,0.0,-1.0
1705334351.393311,-4.0,0.0,-8.0,-4.0,-9.0,-4.0,-1.0,-1.0
1705334351.393311,-1.0,-1.0,-16.0,-3.0,-2.0,-1.0,-3.0,-1.0
1705334351.4033167,-2.0,-1.0,14.0,-8.0,2.0,2.0,0.0,-2.0
1705334351.4033167,-1.0,2.0,4.0,4.0,-1.0,-2.0,-2.0,-1.0
1705334351.413343,0.0,-6.0,-27.0,-3.0,6.0,-2.0,0.0,-1.0
1705334351.413343,-1.0,-3.0,-4.0,9.0,-4.0,-5.0,-2.0,-1.0
1705334351.4430501,-2.0,-5.0,-7.0,-5.0,-3.0,1.0,-3.0,-1.0
1705334351.4430501,-1.0,0.0,-2.0,-2.0,-9.0,-4.0,-2.0,-1.0
1705334351.4430501,-2.0,3.0,14.0,-7.0,3.0,-1.0,-1.0,1.0
1705334351.4430501,-2.0,-5.0,2.0,5.0,7.0,3.0,0.0,-2.0
1705334351.4430501,3.0,-3.0,-5.0,-2.0,1.0,3.0,2.0,1.0
1705334351.4430501,-4.0,2.0,1.0,2.0,1.0,-3.0,-2.0,-2.0
1705334351.4635007,-1.0,-2.0,1.0,-3.0,2.0,-2.0,-1.0,-1.0
1705334351.4635007,1.0,-1.0,-13.0,-18.0,-12.0,-6.0,-1.0,1.0
1705334351.4635007,-3.0,2.0,4.0,4.0,-1.0,0.0,0.0,0.0
1705334351.4635007,2.0,-5.0,-2.0,9.0,5.0,1.0,-1.0,-1.0
1705334351.4733984,-1.0,4.0,11.0,2.0,-7.0,0.0,-2.0,-3.0
1705334351.4733984,-2.0,-1.0,5.0,3.0,-3.0,-2.0,-3.0,-3.0
1705334351.4830518,-4.0,8.0,-4.0,-3.0,-6.0,-2.0,0.0,-1.0
1705334351.4830518,-2.0,-5.0,-11.0,-13.0,-3.0,-5.0,-1.0,1.0
1705334351.5034761,-1.0,-2.0,-1.0,10.0,3.0,3.0,-2.0,0.0
1705334351.5034761,2.0,-3.0,0.0,-3.0,5.0,-1.0,1.0,1.0
1705334351.5034761,0.0,-3.0,-3.0,-10.0,-13.0,-7.0,-2.0,-1.0
1705334351.5034761,-2.0,2.0,-3.0,2.0,7.0,3.0,2.0,1.0
1705334351.5231063,-1.0,-2.0,13.0,3.0,5.0,4.0,-1.0,-2.0
1705334351.5231063,-1.0,-4.0,-9.0,0.0,-4.0,-4.0,-1.0,0.0
1705334351.5231063,0.0,-4.0,2.0,-2.0,-7.0,-4.0,-1.0,-1.0
1705334351.5231063,1.0,-2.0,5.0,-1.0,3.0,2.0,0.0,0.0
1705334351.5330508,0.0,-4.0,-10.0,6.0,11.0,0.0,0.0,-2.0
1705334351.5330508,-2.0,3.0,2.0,-3.0,-5.0,0.0,-2.0,-2.0
1705334351.5434003,-5.0,-4.0,-3.0,-15.0,1.0,-4.0,-4.0,-2.0
1705334351.5434003,-1.0,5.0,2.0,-9.0,-9.0,-1.0,-2.0,-1.0
1705334351.5634995,-3.0,0.0,1.0,1.0,-7.0,-2.0,1.0,-2.0
1705334351.5634995,-3.0,-3.0,-7.0,8.0,5.0,3.0,0.0,-1.0
1705334351.5634995,-1.0,4.0,11.0,3.0,-1.0,-2.0,-2.0,-1.0
1705334351.5634995,-1.0,-3.0,-1.0,-3.0,-1.0,0.0,0.0,-2.0
1705334351.583092,-2.0,0.0,9.0,-3.0,-3.0,-2.0,0.0,1.0
1705334351.583092,-1.0,-5.0,-2.0,-5.0,-2.0,-1.0,-3.0,-2.0
1705334351.583092,0.0,-3.0,5.0,3.0,-1.0,0.0,-1.0,-2.0
1705334351.583092,0.0,-5.0,2.0,6.0,5.0,2.0,0.0,2.0
1705334351.5930507,0.0,1.0,0.0,1.0,-3.0,-1.0,-2.0,-1.0
1705334351.5930507,-2.0,-8.0,6.0,-8.0,0.0,-2.0,-2.0,-1.0
1705334351.6030557,-1.0,3.0,-21.0,-16.0,-3.0,-5.0,-6.0,-3.0
1705334351.6030557,0.0,1.0,-8.0,-1.0,1.0,-4.0,-1.0,1.0
1705334351.623056,-1.0,-5.0,-1.0,6.0,-4.0,0.0,-1.0,-1.0
1705334351.623056,0.0,-1.0,6.0,12.0,1.0,3.0,2.0,0.0
1705334351.623056,-2.0,-7.0,-2.0,-1.0,0.0,-1.0,0.0,0.0
1705334351.623056,-1.0,3.0,-5.0,-4.0,-4.0,-1.0,0.0,-1.0
1705334351.6630538,-1.0,-4.0,7.0,-4.0,6.0,4.0,1.0,0.0
1705334351.6630538,0.0,-8.0,-8.0,5.0,5.0,3.0,1.0,1.0
1705334351.6630538,1.0,5.0,6.0,-2.0,-2.0,-1.0,-2.0,0.0
1705334351.6630538,-4.0,-4.0,-7.0,-7.0,-4.0,-4.0,-2.0,-2.0
1705334351.6630538,-1.0,-3.0,-9.0,-6.0,-7.0,-5.0,-3.0,1.0
1705334351.6630538,-3.0,0.0,-5.0,-4.0,-3.0,-2.0,-2.0,-2.0
1705334351.6630538,-1.0,-1.0,3.0,13.0,2.0,0.0,1.0,0.0
1705334351.6630538,-1.0,-1.0,6.0,-1.0,-4.0,-1.0,-2.0,-1.0
1705334351.6833792,-1.0,-1.0,-6.0,-8.0,-2.0,0.0,0.0,1.0
1705334351.6833792,0.0,2.0,-3.0,-5.0,0.0,0.0,0.0,-1.0
1705334351.6833792,-1.0,-1.0,-1.0,4.0,-2.0,0.0,-1.0,2.0
1705334351.6833792,-1.0,-7.0,-1.0,1.0,3.0,2.0,-1.0,-3.0
1705334351.7030582,1.0,-5.0,-6.0,-3.0,-3.0,-3.0,-3.0,-1.0
1705334351.7030582,0.0,-2.0,22.0,4.0,6.0,2.0,0.0,-2.0
1705334351.7130578,-1.0,-1.0,-43.0,-3.0,-5.0,-1.0,0.0,-2.0
1705334351.7130578,-1.0,-5.0,7.0,-2.0,-4.0,-2.0,-1.0,0.0
1705334351.7230518,0.0,3.0,2.0,0.0,-3.0,-2.0,0.0,-3.0
1705334351.7230518,0.0,1.0,-29.0,-22.0,-6.0,-5.0,-4.0,-3.0
1705334351.7230518,-1.0,-8.0,17.0,5.0,1.0,0.0,-1.0,-2.0
1705334351.7230518,0.0,-3.0,-6.0,5.0,2.0,-1.0,-1.0,1.0
1705334351.7441084,-2.0,0.0,9.0,0.0,-3.0,-4.0,-2.0,-1.0
1705334351.7441084,1.0,0.0,7.0,3.0,0.0,0.0,-2.0,0.0
1705334351.7451081,-2.0,-5.0,-13.0,-4.0,3.0,2.0,-1.0,-1.0
1705334351.7451081,-1.0,4.0,5.0,-5.0,-6.0,-3.0,-3.0,-2.0
1705334351.765735,-2.0,-5.0,0.0,5.0,-2.0,-1.0,0.0,-2.0
1705334351.765735,-3.0,8.0,-4.0,-4.0,0.0,1.0,-1.0,0.0
1705334351.7673676,0.0,-8.0,5.0,1.0,1.0,-1.0,-1.0,0.0
1705334351.7673676,-4.0,-3.0,-1.0,0.0,-2.0,1.0,-1.0,0.0
1705334351.7756333,0.0,-2.0,-1.0,-2.0,4.0,0.0,-3.0,-1.0
1705334351.7756333,-1.0,-2.0,0.0,-3.0,-4.0,-4.0,-1.0,-1.0
1705334351.7860231,-2.0,-1.0,-5.0,-4.0,-5.0,-3.0,-3.0,-2.0
1705334351.7860231,0.0,2.0,-2.0,0.0,-2.0,1.0,0.0,-3.0
1705334351.795636,-2.0,-4.0,-3.0,-5.0,0.0,0.0,0.0,-1.0
1705334351.795636,-2.0,3.0,4.0,1.0,-1.0,3.0,-1.0,-1.0
1705334351.795636,-1.0,-7.0,1.0,-4.0,2.0,1.0,1.0,0.0
1705334351.8056724,-1.0,3.0,7.0,4.0,1.0,-4.0,-3.0,-1.0
1705334351.826027,1.0,-2.0,-6.0,4.0,-1.0,0.0,-1.0,-2.0
1705334351.826027,-1.0,-3.0,4.0,-1.0,-2.0,-2.0,-1.0,-2.0
1705334351.826027,-2.0,1.0,0.0,2.0,-3.0,3.0,1.0,-2.0
1705334351.826027,-1.0,-2.0,-5.0,-2.0,4.0,-1.0,-1.0,-1.0
1705334351.8360274,1.0,-2.0,8.0,-6.0,0.0,-2.0,-2.0,-1.0
1705334351.8360274,-1.0,-4.0,-10.0,2.0,0.0,-1.0,0.0,-1.0
1705334351.8464234,0.0,4.0,2.0,2.0,-1.0,0.0,-4.0,0.0
1705334351.8464234,-2.0,-5.0,-7.0,-4.0,-1.0,-1.0,-1.0,0.0
1705334351.8638055,-3.0,3.0,0.0,-6.0,-2.0,-1.0,0.0,-1.0
1705334351.8638055,0.0,-1.0,6.0,10.0,0.0,-2.0,0.0,0.0
1705334351.8638055,0.0,-4.0,-7.0,-8.0,0.0,0.0,0.0,0.0
1705334351.8638055,1.0,0.0,2.0,1.0,-4.0,-1.0,-3.0,0.0
1705334351.8838046,-2.0,-1.0,3.0,-3.0,0.0,1.0,-2.0,-1.0
1705334351.8838046,-1.0,-8.0,-3.0,3.0,0.0,-4.0,-2.0,-1.0
1705334351.8838046,0.0,-9.0,-12.0,-9.0,-1.0,-3.0,0.0,-1.0
1705334351.8838046,0.0,0.0,7.0,-12.0,-4.0,-3.0,-1.0,-1.0
1705334351.8941693,-1.0,6.0,0.0,8.0,1.0,-3.0,-3.0,-1.0
1705334351.8941693,-1.0,-7.0,13.0,11.0,1.0,4.0,1.0,2.0
1705334351.904147,0.0,3.0,4.0,7.0,-1.0,-2.0,-2.0,-2.0
1705334351.904147,0.0,-3.0,-15.0,-5.0,-4.0,2.0,1.0,-2.0
1705334351.914091,-1.0,-5.0,-12.0,-11.0,-5.0,-1.0,-1.0,-1.0
1705334351.914091,-3.0,1.0,-1.0,-3.0,-2.0,-2.0,-1.0,0.0
1705334351.9337718,-1.0,-3.0,4.0,-5.0,-1.0,-1.0,-2.0,-1.0
1705334351.9337718,-2.0,-5.0,7.0,7.0,-1.0,-4.0,0.0,-2.0
1705334351.9440145,-5.0,-8.0,-7.0,-2.0,2.0,-3.0,0.0,0.0
1705334351.9440145,0.0,-11.0,-8.0,-7.0,-3.0,-7.0,-3.0,-1.0
1705334351.9440145,3.0,-6.0,5.0,-9.0,1.0,-1.0,-1.0,1.0
1705334351.9440145,2.0,-2.0,-4.0,6.0,-2.0,-6.0,-2.0,-1.0
1705334351.9540443,2.0,0.0,17.0,-6.0,-7.0,-5.0,-4.0,-1.0
1705334351.9540443,-1.0,1.0,-21.0,-14.0,-3.0,1.0,-1.0,-3.0
1705334351.9640229,-2.0,7.0,4.0,6.0,4.0,6.0,3.0,-1.0
1705334351.9640229,-2.0,6.0,4.0,8.0,9.0,6.0,2.0,-1.0
1705334351.9837768,-4.0,2.0,-6.0,7.0,-1.0,3.0,2.0,-2.0
1705334351.9937763,-3.0,12.0,5.0,2.0,-4.0,0.0,1.0,-3.0
1705334351.9937763,-4.0,8.0,3.0,-2.0,-2.0,1.0,-1.0,-4.0
1705334351.9937763,-4.0,1.0,-13.0,-8.0,-2.0,0.0,0.0,-1.0
1705334352.0038052,0.0,-4.0,-3.0,7.0,2.0,0.0,1.0,-1.0
1705334352.0038052,0.0,-12.0,2.0,2.0,-1.0,-1.0,0.0,1.0
1705334352.0038052,0.0,-12.0,-1.0,6.0,-2.0,-5.0,-3.0,-2.0
1705334352.0038052,1.0,-5.0,7.0,0.0,2.0,-1.0,-1.0,-1.0
1705334352.0141647,1.0,-6.0,-12.0,-12.0,-5.0,-3.0,-2.0,-1.0
1705334352.0141647,3.0,-1.0,3.0,0.0,1.0,-3.0,-2.0,-1.0
1705334352.0241406,-2.0,-5.0,4.0,0.0,-2.0,-3.0,-2.0,0.0
1705334352.0241406,-1.0,-3.0,-5.0,-1.0,-1.0,-2.0,-4.0,1.0
1705334352.0437737,-1.0,4.0,-7.0,-5.0,-3.0,0.0,-2.0,-1.0
1705334352.0437737,-1.0,4.0,14.0,2.0,0.0,2.0,1.0,-1.0
1705334352.0437737,-2.0,3.0,-5.0,4.0,2.0,-1.0,0.0,-1.0
1705334352.0437737,-4.0,-2.0,-2.0,-6.0,-4.0,0.0,-1.0,-2.0
1705334352.0642252,0.0,1.0,-2.0,-1.0,-1.0,0.0,1.0,-1.0
1705334352.0642252,0.0,1.0,1.0,-2.0,2.0,-1.0,-3.0,-2.0
1705334352.0642252,0.0,-2.0,4.0,0.0,1.0,-1.0,0.0,0.0
1705334352.0642252,1.0,-5.0,2.0,3.0,-2.0,-2.0,-1.0,-1.0
1705334352.0741725,-2.0,-3.0,-3.0,3.0,1.0,-2.0,-1.0,-2.0
1705334352.0741725,-2.0,1.0,-5.0,-6.0,-4.0,-2.0,-3.0,0.0
1705334352.0837722,-1.0,0.0,1.0,-2.0,-3.0,-1.0,-2.0,-2.0
1705334352.0837722,1.0,-3.0,-4.0,-3.0,-2.0,-2.0,0.0,-1.0
1705334352.103774,0.0,0.0,2.0,-1.0,-1.0,-2.0,-1.0,0.0
1705334352.103774,-2.0,0.0,-8.0,-1.0,2.0,2.0,0.0,-1.0
1705334352.103774,-2.0,2.0,3.0,-1.0,-3.0,-1.0,-4.0,-1.0
1705334352.103774,-3.0,0.0,-3.0,-3.0,1.0,1.0,-3.0,-1.0
1705334352.1242368,-2.0,-2.0,-18.0,-8.0,-2.0,0.0,-2.0,-2.0
1705334352.1242368,-1.0,0.0,9.0,-4.0,-1.0,0.0,0.0,-1.0
1705334352.1242368,-1.0,-1.0,5.0,10.0,-2.0,-3.0,-1.0,-1.0
1705334352.1242368,-1.0,-6.0,-3.0,-2.0,-2.0,-1.0,-1.0,-2.0
1705334352.1341705,0.0,-4.0,2.0,-5.0,0.0,-1.0,-4.0,-1.0
1705334352.1341705,-3.0,1.0,-8.0,0.0,0.0,-2.0,-1.0,0.0
1705334352.1441388,0.0,0.0,-2.0,1.0,-1.0,1.0,0.0,-1.0
1705334352.1441388,-3.0,2.0,2.0,-7.0,-3.0,-1.0,-1.0,-1.0
1705334352.1637738,-3.0,-2.0,-3.0,-3.0,-1.0,1.0,1.0,-1.0
1705334352.1637738,1.0,-5.0,1.0,2.0,1.0,0.0,-3.0,0.0
1705334352.1637738,-1.0,-2.0,3.0,2.0,-1.0,-1.0,-1.0,0.0
1705334352.1637738,0.0,-4.0,-4.0,-4.0,-1.0,-3.0,-1.0,0.0
1705334352.1842222,-1.0,-4.0,4.0,4.0,1.0,0.0,-1.0,-2.0
1705334352.1842222,-1.0,-2.0,-5.0,-6.0,0.0,-1.0,-1.0,-4.0
1705334352.1842222,-1.0,-4.0,-2.0,-4.0,-4.0,-4.0,-1.0,0.0
1705334352.1842222,-1.0,0.0,-2.0,-5.0,-5.0,-1.0,-2.0,-2.0
1705334352.1941738,1.0,-7.0,0.0,2.0,1.0,-2.0,-2.0,0.0
1705334352.1941738,1.0,6.0,4.0,7.0,3.0,-1.0,-1.0,-1.0
1705334352.203775,-1.0,-3.0,-6.0,-2.0,0.0,0.0,-2.0,-1.0
1705334352.203775,-1.0,1.0,-2.0,-2.0,-2.0,0.0,-2.0,0.0
1705334352.2237718,-2.0,-2.0,2.0,-2.0,-4.0,-3.0,-1.0,1.0
1705334352.2237718,-2.0,-3.0,-2.0,-7.0,-1.0,1.0,-2.0,-3.0
1705334352.2337732,-1.0,-6.0,-4.0,-5.0,-2.0,0.0,-2.0,-1.0
1705334352.2337732,-4.0,-7.0,0.0,5.0,0.0,-2.0,1.0,-1.0
1705334352.2441766,-1.0,5.0,3.0,1.0,-1.0,0.0,0.0,-2.0
1705334352.2441766,-3.0,-3.0,-2.0,-10.0,-5.0,0.0,-3.0,-1.0
1705334352.2441766,-2.0,-4.0,-3.0,8.0,-3.0,-4.0,-2.0,-2.0
1705334352.2441766,1.0,-7.0,-7.0,-9.0,0.0,-1.0,0.0,-1.0
1705334352.2541661,3.0,-12.0,-1.0,5.0,6.0,1.0,1.0,1.0
1705334352.2541661,0.0,8.0,0.0,-8.0,-4.0,-4.0,-3.0,-1.0
1705334352.2640476,2.0,-3.0,-4.0,-8.0,-1.0,0.0,0.0,-1.0
1705334352.2640476,-2.0,3.0,3.0,5.0,-4.0,-1.0,0.0,-1.0
1705334352.2861068,-2.0,-3.0,0.0,-1.0,-3.0,1.0,-1.0,-1.0
1705334352.2861068,-1.0,2.0,1.0,3.0,1.0,-1.0,0.0,0.0
1705334352.2891893,1.0,-2.0,-1.0,0.0,-2.0,-2.0,-2.0,0.0
1705334352.2891893,0.0,-19.0,-2.0,2.0,0.0,-1.0,-2.0,-3.0
1705334352.3062105,-2.0,3.0,-2.0,-5.0,-3.0,-1.0,-1.0,-3.0
1705334352.3062105,-3.0,1.0,-2.0,1.0,-3.0,-2.0,-1.0,0.0
1705334352.3076158,-1.0,-6.0,-2.0,-2.0,-1.0,-1.0,-1.0,-2.0
1705334352.3082552,1.0,2.0,-2.0,1.0,2.0,-1.0,1.0,1.0
1705334352.318496,1.0,-11.0,-1.0,-1.0,-1.0,-2.0,-1.0,-1.0
1705334352.318496,-1.0,-8.0,0.0,2.0,2.0,1.0,-2.0,-1.0
1705334352.3283873,-1.0,4.0,0.0,0.0,0.0,0.0,1.0,-2.0
1705334352.3283873,-2.0,-4.0,0.0,1.0,0.0,-1.0,-2.0,-2.0
1705334352.3383892,0.0,-3.0,4.0,2.0,-3.0,0.0,1.0,-1.0
1705334352.3383892,-3.0,0.0,-5.0,-5.0,0.0,-2.0,0.0,1.0
1705334352.34869,-4.0,-1.0,1.0,0.0,1.0,0.0,0.0,1.0
1705334352.34869,-1.0,-28.0,7.0,8.0,2.0,4.0,0.0,-2.0
1705334352.3584151,-4.0,47.0,-2.0,-2.0,-2.0,-5.0,-3.0,-1.0
1705334352.3584151,-8.0,4.0,-23.0,-10.0,-8.0,-8.0,-7.0,-5.0
1705334352.368389,3.0,-13.0,43.0,-3.0,1.0,3.0,2.0,1.0
1705334352.368389,-14.0,40.0,-80.0,-19.0,-7.0,-12.0,-10.0,-7.0
1705334352.3784208,0.0,-31.0,24.0,-2.0,-1.0,-1.0,0.0,-1.0
1705334352.3784208,4.0,-10.0,9.0,-4.0,-2.0,1.0,0.0,0.0
1705334352.3883934,2.0,-11.0,-10.0,17.0,6.0,8.0,6.0,2.0
1705334352.3883934,5.0,18.0,62.0,16.0,4.0,8.0,7.0,1.0
1705334352.3983934,-6.0,-3.0,53.0,-11.0,-11.0,-11.0,-8.0,-6.0
1705334352.3983934,-2.0,4.0,-44.0,3.0,0.0,-6.0,-3.0,3.0
1705334352.4086277,1.0,4.0,-69.0,-22.0,-4.0,-7.0,-4.0,0.0
1705334352.4086277,-5.0,-36.0,-25.0,-16.0,-4.0,-5.0,-4.0,-3.0
1705334352.41866,3.0,-32.0,-18.0,2.0,3.0,4.0,4.0,-1.0
1705334352.41866,-4.0,12.0,74.0,10.0,0.0,-3.0,0.0,-5.0
1705334352.4283926,-4.0,12.0,-49.0,6.0,1.0,1.0,-1.0,-2.0
1705334352.4283926,-1.0,-7.0,-64.0,-12.0,-1.0,-2.0,-1.0,1.0
1705334352.4483879,0.0,4.0,32.0,11.0,2.0,2.0,0.0,1.0
1705334352.4483879,4.0,-11.0,17.0,4.0,-1.0,0.0,0.0,1.0
1705334352.4483879,-1.0,-18.0,19.0,-4.0,0.0,-2.0,-1.0,-3.0
1705334352.4483879,7.0,16.0,-56.0,4.0,0.0,0.0,3.0,0.0
1705334352.4584715,-3.0,34.0,20.0,5.0,2.0,5.0,2.0,-1.0
1705334352.4584715,0.0,-1.0,13.0,-3.0,0.0,-1.0,0.0,-2.0
1705334352.4687493,-10.0,-12.0,-18.0,-20.0,-13.0,-14.0,-10.0,-5.0
1705334352.4687493,3.0,4.0,75.0,3.0,-2.0,-3.0,-2.0,3.0
1705334352.4787805,2.0,-22.0,-59.0,3.0,1.0,3.0,2.0,0.0
1705334352.4787805,0.0,-13.0,-27.0,10.0,3.0,8.0,5.0,-1.0
1705334352.4787805,0.0,13.0,24.0,2.0,0.0,0.0,0.0,-2.0
1705334352.4787805,-4.0,-17.0,2.0,-2.0,-1.0,-1.0,-2.0,-2.0
1705334352.5083876,1.0,14.0,-9.0,0.0,-3.0,-5.0,-4.0,-1.0
1705334352.5083876,-1.0,-8.0,0.0,-6.0,0.0,-4.0,0.0,-1.0
1705334352.5083876,1.0,-8.0,13.0,0.0,0.0,-1.0,-2.0,-1.0
1705334352.5083876,2.0,6.0,17.0,5.0,3.0,3.0,0.0,-1.0
1705334352.5187275,1.0,1.0,-15.0,-6.0,-2.0,-1.0,-1.0,0.0
1705334352.5187275,4.0,-4.0,-4.0,-7.0,-4.0,-2.0,-2.0,0.0
1705334352.5287235,0.0,1.0,4.0,3.0,1.0,0.0,0.0,0.0
1705334352.5287235,-4.0,-4.0,11.0,3.0,-1.0,-1.0,0.0,-1.0
1705334352.538766,-2.0,-5.0,2.0,-1.0,-2.0,-3.0,-1.0,-2.0
1705334352.538766,-3.0,-9.0,-31.0,-5.0,0.0,0.0,-1.0,-2.0
1705334352.538766,-3.0,7.0,11.0,-5.0,-3.0,-3.0,-3.0,-1.0
1705334352.538766,-1.0,0.0,5.0,-2.0,-1.0,-1.0,-1.0,-1.0
1705334352.5687704,-2.0,-5.0,-7.0,-2.0,0.0,-1.0,0.0,0.0
1705334352.5687704,-1.0,-3.0,-1.0,3.0,-1.0,0.0,-1.0,-1.0
1705334352.5783887,0.0,2.0,-2.0,8.0,3.0,2.0,4.0,-1.0
1705334352.5783887,0.0,10.0,25.0,-3.0,-2.0,-4.0,-2.0,0.0
1705334352.5883868,-2.0,-14.0,-37.0,-19.0,-4.0,-6.0,-4.0,2.0
1705334352.5883868,-2.0,-3.0,-1.0,2.0,0.0,0.0,-2.0,1.0
1705334352.5883868,-2.0,-2.0,9.0,2.0,0.0,1.0,1.0,-1.0
1705334352.5883868,-2.0,-12.0,2.0,7.0,-2.0,0.0,0.0,-3.0
1705334352.5983868,-2.0,8.0,17.0,5.0,1.0,0.0,-1.0,-1.0
1705334352.5983868,-1.0,-6.0,-8.0,-6.0,-5.0,-4.0,-3.0,-1.0
1705334352.5983868,-1.0,-3.0,-1.0,-2.0,-3.0,1.0,-1.0,0.0
1705334352.5983868,0.0,4.0,-24.0,-3.0,0.0,1.0,-1.0,-1.0
1705334352.628602,-1.0,-1.0,1.0,1.0,-1.0,-1.0,-1.0,-1.0
1705334352.628602,-1.0,2.0,6.0,0.0,1.0,0.0,0.0,-3.0
1705334352.628602,-2.0,1.0,7.0,7.0,0.0,0.0,-1.0,-1.0
1705334352.628602,1.0,1.0,-22.0,-13.0,-1.0,-1.0,-1.0,0.0
1705334352.6386492,-1.0,-2.0,2.0,2.0,0.0,1.0,-2.0,-1.0
1705334352.6386492,-1.0,-10.0,11.0,2.0,-3.0,-2.0,0.0,0.0
1705334352.648464,0.0,-4.0,-14.0,0.0,-3.0,-3.0,1.0,0.0
1705334352.648464,-1.0,-7.0,12.0,3.0,-1.0,-4.0,-1.0,1.0
