1705334979.3647244,3.0,4.0,2.0,0.0,-3.0,-2.0,2.0,4.0
1705334979.3647244,1.0,-1.0,6.0,6.0,4.0,-8.0,-6.0,-1.0
1705334979.3647244,-2.0,-52.0,-9.0,-1.0,-3.0,-4.0,3.0,-3.0
1705334979.3647244,2.0,11.0,1.0,-4.0,0.0,-8.0,2.0,1.0
1705334979.3747637,-1.0,13.0,0.0,-4.0,-4.0,-26.0,-12.0,0.0
1705334979.3747637,2.0,1.0,4.0,3.0,5.0,17.0,1.0,-1.0
1705334979.3747637,-1.0,5.0,-1.0,-1.0,-9.0,-30.0,-11.0,-7.0
1705334979.3747637,-4.0,-10.0,-7.0,0.0,2.0,17.0,10.0,0.0
1705334979.384764,2.0,7.0,6.0,-10.0,-2.0,0.0,1.0,-2.0
1705334979.384764,-8.0,-7.0,3.0,3.0,-4.0,-14.0,-2.0,1.0
1705334979.3947632,4.0,9.0,0.0,2.0,2.0,2.0,-3.0,-1.0
1705334979.3947632,-9.0,-8.0,-4.0,-5.0,-5.0,-14.0,-12.0,-4.0
1705334979.4347222,-2.0,3.0,-4.0,0.0,1.0,14.0,9.0,-1.0
1705334979.4347222,2.0,-1.0,-4.0,3.0,0.0,-19.0,-8.0,-4.0
1705334979.4347222,3.0,0.0,1.0,-4.0,0.0,13.0,8.0,-1.0
1705334979.4347222,-1.0,-22.0,2.0,3.0,0.0,1.0,-1.0,0.0
1705334979.4347222,1.0,-31.0,-1.0,-2.0,-3.0,-23.0,-15.0,-1.0
1705334979.4347222,2.0,-12.0,-4.0,-33.0,-9.0,-7.0,-5.0,0.0
1705334979.4347222,-2.0,6.0,-1.0,-9.0,-4.0,3.0,-4.0,1.0
1705334979.4347222,7.0,0.0,8.0,36.0,9.0,-1.0,-2.0,0.0
1705334979.4449613,-1.0,5.0,-1.0,5.0,-4.0,0.0,-3.0,-2.0
1705334979.4449613,-7.0,-12.0,0.0,3.0,1.0,5.0,4.0,0.0
1705334979.4548178,-3.0,1.0,-9.0,-7.0,-1.0,-11.0,-8.0,-3.0
1705334979.4548178,2.0,-15.0,-2.0,-10.0,0.0,3.0,2.0,2.0
1705334979.474942,3.0,-1.0,0.0,2.0,-5.0,-30.0,-13.0,0.0
1705334979.474942,8.0,34.0,8.0,2.0,8.0,55.0,15.0,4.0
1705334979.474942,-8.0,0.0,-4.0,-7.0,1.0,19.0,14.0,-2.0
1705334979.474942,-3.0,10.0,-3.0,-6.0,-2.0,6.0,10.0,-2.0
1705334979.4947252,1.0,9.0,0.0,1.0,5.0,-2.0,8.0,21.0
1705334979.4947252,1.0,-3.0,-8.0,-2.0,-11.0,-26.0,-15.0,-11.0
1705334979.4947252,-3.0,17.0,1.0,5.0,-9.0,-29.0,-28.0,-9.0
1705334979.4947252,9.0,5.0,6.0,7.0,15.0,65.0,27.0,1.0
1705334979.5047262,-15.0,-5.0,-3.0,-7.0,-3.0,9.0,-2.0,-11.0
1705334979.5047262,-10.0,13.0,-8.0,1.0,-1.0,-13.0,2.0,-1.0
1705334979.5247247,-1.0,7.0,3.0,7.0,-2.0,-5.0,5.0,5.0
1705334979.5247247,-1.0,12.0,0.0,-3.0,-2.0,-1.0,0.0,1.0
1705334979.5349646,0.0,-25.0,-7.0,-16.0,-6.0,-12.0,-17.0,-11.0
1705334979.5349646,2.0,-7.0,3.0,1.0,-4.0,-3.0,-5.0,-1.0
1705334979.5349646,0.0,8.0,1.0,23.0,15.0,17.0,3.0,-5.0
1705334979.5349646,5.0,-4.0,-8.0,-7.0,1.0,-12.0,-5.0,1.0
1705334979.5550742,-15.0,10.0,1.0,9.0,-3.0,0.0,10.0,4.0
1705334979.5550742,-5.0,16.0,-4.0,-7.0,-14.0,-1.0,0.0,-5.0
1705334979.5550742,-2.0,2.0,12.0,-3.0,16.0,42.0,16.0,4.0
1705334979.5550742,0.0,-22.0,-19.0,-8.0,-4.0,-6.0,-7.0,-1.0
1705334979.5649848,5.0,-39.0,7.0,-11.0,-4.0,-14.0,-2.0,-4.0
1705334979.5649848,5.0,-15.0,-1.0,-5.0,-12.0,-10.0,-12.0,1.0
1705334979.604724,1.0,1.0,6.0,-4.0,-3.0,-11.0,-4.0,4.0
1705334979.604724,-3.0,8.0,-5.0,0.0,-3.0,-10.0,-7.0,-2.0
1705334979.604724,-2.0,41.0,0.0,5.0,11.0,17.0,-5.0,-5.0
1705334979.604724,-2.0,16.0,2.0,2.0,-2.0,-32.0,-11.0,-4.0
1705334979.604724,6.0,9.0,-5.0,-2.0,3.0,58.0,36.0,6.0
1705334979.604724,-9.0,-16.0,1.0,-1.0,-1.0,-15.0,-8.0,-4.0
1705334979.6149752,3.0,-14.0,-7.0,0.0,-3.0,-5.0,-5.0,-3.0
1705334979.6149752,-2.0,1.0,5.0,13.0,9.0,-16.0,-9.0,10.0
1705334979.6149752,5.0,12.0,-1.0,-9.0,0.0,12.0,-4.0,-6.0
1705334979.6149752,6.0,-4.0,-3.0,-15.0,-3.0,13.0,12.0,1.0
1705334979.62498,-8.0,-5.0,0.0,4.0,0.0,5.0,-6.0,-7.0
1705334979.62498,-6.0,15.0,-1.0,11.0,15.0,22.0,17.0,-1.0
1705334979.661887,-5.0,1.0,-6.0,-2.0,-2.0,-6.0,-5.0,2.0
1705334979.661887,-2.0,9.0,3.0,-7.0,-18.0,-15.0,-11.0,-4.0
1705334979.661887,12.0,27.0,4.0,-16.0,-3.0,9.0,8.0,3.0
1705334979.661887,-1.0,-17.0,-8.0,6.0,3.0,7.0,-2.0,-4.0
1705334979.6628854,-7.0,-19.0,3.0,23.0,6.0,-27.0,-8.0,-4.0
1705334979.6628854,3.0,-6.0,6.0,11.0,-11.0,-9.0,-4.0,2.0
1705334979.6776314,-3.0,-2.0,-16.0,2.0,3.0,6.0,-1.0,1.0
1705334979.6776314,4.0,-1.0,10.0,-11.0,-2.0,3.0,13.0,2.0
1705334979.6776314,-3.0,8.0,-6.0,-24.0,-10.0,-3.0,3.0,-3.0
1705334979.6776314,-4.0,-13.0,9.0,22.0,5.0,-7.0,-10.0,-2.0
1705334979.6876328,0.0,-16.0,9.0,-10.0,0.0,-10.0,-6.0,-2.0
1705334979.6876328,-3.0,-24.0,-10.0,-7.0,-5.0,-5.0,3.0,-2.0
1705334979.6976357,1.0,-36.0,-3.0,-3.0,-6.0,-29.0,-17.0,-2.0
1705334979.6976357,5.0,-8.0,-3.0,-11.0,-1.0,3.0,-3.0,3.0
1705334979.7176325,-5.0,-10.0,-4.0,4.0,-1.0,-14.0,-10.0,-2.0
1705334979.7176325,1.0,-13.0,1.0,-14.0,-9.0,-5.0,5.0,0.0
1705334979.7176325,-2.0,-5.0,-1.0,-16.0,-6.0,-26.0,-9.0,-1.0
1705334979.7176325,-13.0,-3.0,-6.0,-12.0,-7.0,-24.0,-16.0,-1.0
1705334979.7379785,-2.0,4.0,2.0,9.0,1.0,24.0,14.0,0.0
1705334979.7379785,1.0,15.0,-1.0,3.0,10.0,13.0,1.0,4.0
1705334979.7379785,-2.0,12.0,-1.0,3.0,-10.0,-2.0,0.0,-7.0
1705334979.7379785,-6.0,17.0,-3.0,-6.0,0.0,18.0,8.0,-3.0
1705334979.7556975,6.0,6.0,4.0,10.0,6.0,-3.0,-1.0,1.0
1705334979.7556975,-10.0,-3.0,-3.0,9.0,4.0,-6.0,-12.0,-6.0
1705334979.7556975,3.0,2.0,-1.0,4.0,11.0,10.0,9.0,1.0
1705334979.7556975,2.0,10.0,4.0,-4.0,-6.0,-2.0,-5.0,-2.0
1705334979.7853258,1.0,6.0,-4.0,-11.0,-7.0,14.0,12.0,-1.0
1705334979.7853258,-7.0,-12.0,-5.0,20.0,0.0,-12.0,4.0,4.0
1705334979.7853258,-7.0,-14.0,-1.0,-15.0,-5.0,-18.0,-24.0,-7.0
1705334979.7853258,-4.0,-11.0,6.0,24.0,11.0,0.0,3.0,-6.0
1705334979.7956877,4.0,7.0,-11.0,-29.0,-9.0,-1.0,5.0,3.0
1705334979.7956877,8.0,4.0,-15.0,-16.0,-13.0,0.0,-5.0,-3.0
1705334979.7956877,4.0,-6.0,8.0,16.0,5.0,-12.0,-6.0,2.0
1705334979.7956877,-6.0,5.0,11.0,-2.0,13.0,9.0,4.0,1.0
1705334979.805704,-1.0,8.0,-3.0,-15.0,0.0,-3.0,-4.0,-2.0
1705334979.805704,2.0,-2.0,-5.0,0.0,-14.0,-3.0,-15.0,-5.0
1705334979.825325,-2.0,-2.0,-9.0,-15.0,-14.0,-13.0,-7.0,1.0
1705334979.825325,8.0,-1.0,-4.0,-12.0,5.0,7.0,21.0,3.0
1705334979.8355854,-10.0,-8.0,0.0,13.0,3.0,-7.0,5.0,-15.0
1705334979.8355854,-7.0,7.0,0.0,-9.0,-2.0,-19.0,-14.0,20.0
1705334979.8355854,0.0,18.0,5.0,9.0,4.0,35.0,9.0,2.0
1705334979.8355854,4.0,5.0,-6.0,1.0,4.0,14.0,5.0,7.0
1705334979.8556755,0.0,6.0,2.0,8.0,-1.0,-2.0,-2.0,-6.0
1705334979.8556755,2.0,20.0,0.0,2.0,-1.0,-9.0,-5.0,-10.0
1705334979.8556755,-5.0,8.0,-2.0,-4.0,-13.0,-13.0,-4.0,-3.0
1705334979.8556755,-5.0,-4.0,-4.0,-2.0,10.0,1.0,-5.0,-5.0
1705334979.885326,-1.0,9.0,-3.0,0.0,-16.0,4.0,-4.0,2.0
1705334979.885326,3.0,13.0,6.0,10.0,21.0,7.0,-2.0,-3.0
1705334979.885326,-1.0,-23.0,-11.0,-8.0,-1.0,-10.0,8.0,-4.0
1705334979.885326,-1.0,-2.0,2.0,-6.0,-19.0,-10.0,-4.0,-1.0
1705334979.8957298,2.0,-4.0,-4.0,4.0,-1.0,-14.0,-8.0,2.0
1705334979.8957298,4.0,6.0,12.0,0.0,-5.0,18.0,15.0,2.0
1705334979.8957298,-4.0,11.0,-7.0,10.0,-2.0,-32.0,-23.0,-7.0
1705334979.8957298,4.0,13.0,2.0,-2.0,7.0,9.0,6.0,-1.0
1705334979.9253244,3.0,-3.0,-4.0,-4.0,5.0,-4.0,-2.0,2.0
1705334979.9253244,-1.0,7.0,-1.0,-1.0,-13.0,-1.0,-3.0,-10.0
1705334979.9253244,-3.0,3.0,2.0,-5.0,17.0,28.0,3.0,2.0
1705334979.9253244,0.0,-3.0,0.0,-4.0,-10.0,-8.0,-5.0,2.0
1705334979.9253244,-1.0,-12.0,1.0,4.0,-2.0,-2.0,-8.0,2.0
1705334979.9253244,4.0,-1.0,-4.0,-5.0,7.0,20.0,18.0,1.0
1705334979.9418833,4.0,-1.0,4.0,-1.0,-6.0,-7.0,0.0,-2.0
1705334979.9428864,0.0,-1.0,-10.0,-16.0,-6.0,-9.0,-12.0,1.0
1705334979.958828,-10.0,-4.0,11.0,30.0,22.0,29.0,12.0,7.0
1705334979.958828,-5.0,-9.0,-3.0,-3.0,-1.0,-11.0,-8.0,-7.0
1705334979.9628592,8.0,4.0,-1.0,-1.0,-13.0,-6.0,-10.0,-1.0
1705334979.9628592,3.0,14.0,0.0,-1.0,-8.0,-9.0,13.0,1.0
1705334979.9808245,-8.0,6.0,-10.0,-17.0,0.0,-3.0,8.0,-3.0
1705334979.9808245,-2.0,2.0,1.0,11.0,1.0,0.0,-6.0,-3.0
1705334979.9808245,-2.0,3.0,1.0,4.0,11.0,19.0,6.0,2.0
1705334979.9808245,2.0,0.0,-4.0,-8.0,-2.0,4.0,-5.0,-5.0
1705334980.0016315,4.0,16.0,6.0,2.0,-6.0,-9.0,-15.0,-5.0
1705334980.0016315,-2.0,-1.0,4.0,0.0,0.0,-10.0,-1.0,-2.0
1705334980.0033717,-2.0,0.0,-19.0,-29.0,-14.0,-4.0,-9.0,0.0
1705334980.0033717,-8.0,-9.0,-3.0,17.0,0.0,1.0,-2.0,0.0
1705334980.0163922,4.0,-5.0,0.0,3.0,6.0,1.0,7.0,2.0
1705334980.0163922,-1.0,-9.0,1.0,-21.0,0.0,-8.0,-4.0,-4.0
1705334980.0231128,-2.0,2.0,11.0,17.0,-4.0,-6.0,-6.0,3.0
1705334980.0231128,-6.0,-9.0,-10.0,-20.0,1.0,-3.0,1.0,-2.0
1705334980.0391982,0.0,-24.0,12.0,17.0,2.0,-2.0,12.0,1.0
1705334980.0391982,1.0,-13.0,-14.0,-16.0,-10.0,-16.0,-1.0,-3.0
1705334980.040846,-7.0,-6.0,-9.0,-2.0,-9.0,-18.0,-8.0,-1.0
1705334980.040846,2.0,-4.0,9.0,9.0,4.0,4.0,-8.0,6.0
1705334980.061832,2.0,4.0,8.0,5.0,16.0,3.0,-11.0,-5.0
1705334980.061832,-7.0,-2.0,0.0,0.0,-4.0,-2.0,2.0,-4.0
1705334980.0638309,-1.0,-5.0,-5.0,-6.0,-14.0,-25.0,-15.0,0.0
1705334980.0638309,5.0,20.0,-1.0,-3.0,-8.0,9.0,-5.0,-10.0
1705334980.0758245,-3.0,5.0,-9.0,-9.0,-9.0,5.0,9.0,5.0
1705334980.0758245,-3.0,4.0,-3.0,6.0,5.0,3.0,35.0,9.0
1705334980.1009922,-9.0,1.0,3.0,-10.0,0.0,6.0,8.0,-5.0
1705334980.1009922,1.0,0.0,10.0,19.0,5.0,-9.0,-7.0,-1.0
1705334980.1024656,10.0,13.0,-11.0,-8.0,-3.0,-3.0,-10.0,-2.0
1705334980.1024656,0.0,-3.0,-1.0,-20.0,-9.0,-7.0,-20.0,-9.0
1705334980.1056361,-24.0,-7.0,-4.0,28.0,20.0,16.0,9.0,1.0
1705334980.1056361,-5.0,-16.0,-8.0,9.0,-1.0,-14.0,1.0,-2.0
1705334980.127427,-3.0,6.0,-1.0,0.0,-7.0,-4.0,-11.0,-4.0
1705334980.127427,3.0,-7.0,-3.0,-8.0,-13.0,-5.0,-1.0,2.0
1705334980.127427,10.0,-2.0,10.0,8.0,12.0,15.0,15.0,2.0
1705334980.127427,0.0,-17.0,-4.0,-8.0,-1.0,-16.0,-17.0,-1.0
1705334980.1374295,-5.0,-17.0,-4.0,-11.0,-19.0,-17.0,-12.0,-3.0
1705334980.1374295,-2.0,8.0,1.0,-1.0,17.0,35.0,13.0,-1.0
1705334980.1374295,3.0,3.0,12.0,7.0,-2.0,-17.0,-28.0,0.0
1705334980.1374295,-3.0,-14.0,-19.0,-17.0,4.0,55.0,37.0,2.0
1705334980.1563778,2.0,3.0,-1.0,-4.0,-5.0,-8.0,-8.0,3.0
1705334980.1563778,0.0,8.0,-3.0,1.0,-6.0,-2.0,7.0,3.0
1705334980.1563778,-1.0,3.0,3.0,-2.0,0.0,5.0,-3.0,-6.0
1705334980.1563778,-4.0,2.0,2.0,2.0,-4.0,-24.0,-29.0,-10.0
1705334980.176338,-1.0,-4.0,-3.0,-16.0,-2.0,16.0,13.0,4.0
1705334980.176338,-5.0,-3.0,7.0,17.0,-1.0,2.0,-3.0,-3.0
1705334980.176338,7.0,12.0,-1.0,-16.0,1.0,5.0,13.0,-2.0
1705334980.176338,-4.0,0.0,-8.0,12.0,-1.0,-12.0,-13.0,-7.0
1705334980.2023375,1.0,0.0,2.0,-4.0,3.0,0.0,3.0,1.0
1705334980.2023375,-7.0,8.0,-4.0,-2.0,5.0,4.0,-5.0,-2.0
1705334980.2043705,7.0,2.0,3.0,1.0,-9.0,-8.0,7.0,3.0
1705334980.2043705,-7.0,-4.0,5.0,6.0,-1.0,4.0,1.0,-1.0
1705334980.2206225,-3.0,2.0,4.0,14.0,4.0,-13.0,-15.0,-4.0
1705334980.2206225,7.0,3.0,2.0,4.0,12.0,25.0,19.0,6.0
1705334980.2206225,-4.0,3.0,-9.0,-11.0,-3.0,-6.0,-8.0,-4.0
1705334980.2206225,6.0,-11.0,7.0,2.0,-6.0,-13.0,0.0,2.0
1705334980.2405632,-3.0,-7.0,-2.0,2.0,-3.0,-2.0,-14.0,-4.0
1705334980.2405632,-1.0,-5.0,5.0,-1.0,6.0,5.0,-15.0,3.0
1705334980.2405632,-8.0,-3.0,-4.0,-6.0,6.0,40.0,42.0,3.0
1705334980.2405632,1.0,15.0,0.0,-7.0,-4.0,-6.0,-6.0,0.0
1705334980.2605588,-4.0,1.0,-2.0,-7.0,-11.0,-17.0,11.0,-4.0
1705334980.2605588,3.0,3.0,2.0,15.0,-1.0,-16.0,-27.0,-6.0
1705334980.2605588,3.0,4.0,-3.0,-2.0,1.0,6.0,6.0,1.0
1705334980.2605588,5.0,-3.0,-7.0,-7.0,-1.0,-12.0,-7.0,7.0
1705334980.2806137,-19.0,-5.0,4.0,-4.0,-8.0,1.0,-7.0,-12.0
1705334980.2806137,6.0,-1.0,-8.0,-9.0,-2.0,-3.0,-6.0,-5.0
1705334980.2806137,-2.0,0.0,4.0,8.0,-6.0,-1.0,1.0,4.0
1705334980.2806137,-2.0,2.0,4.0,-8.0,-9.0,-17.0,-6.0,-1.0
1705334980.310966,5.0,16.0,-3.0,2.0,15.0,23.0,6.0,-1.0
1705334980.310966,-4.0,1.0,-11.0,0.0,-1.0,-11.0,-2.0,-1.0
1705334980.310966,2.0,-3.0,5.0,9.0,-5.0,-17.0,-20.0,-12.0
1705334980.310966,-4.0,2.0,2.0,-1.0,3.0,17.0,15.0,2.0
1705334980.310966,2.0,-4.0,3.0,7.0,-5.0,-4.0,3.0,4.0
1705334980.310966,-5.0,-12.0,-8.0,-18.0,-4.0,-5.0,2.0,-2.0
1705334980.321085,3.0,1.0,-15.0,-30.0,-14.0,-12.0,-14.0,-1.0
1705334980.321085,-3.0,-2.0,4.0,34.0,21.0,15.0,12.0,1.0
1705334980.330968,-1.0,-8.0,3.0,18.0,3.0,2.0,2.0,2.0
1705334980.330968,-2.0,-2.0,5.0,8.0,-3.0,-9.0,-1.0,-1.0
1705334980.3409681,-4.0,-1.0,0.0,-21.0,-10.0,-7.0,-13.0,-4.0
1705334980.3409681,-3.0,-4.0,-9.0,-16.0,-12.0,-11.0,-11.0,-6.0
1705334980.3609593,2.0,7.0,6.0,-9.0,0.0,17.0,21.0,7.0
1705334980.3609593,2.0,-5.0,-11.0,1.0,9.0,2.0,-3.0,1.0
1705334980.3609593,4.0,-7.0,7.0,13.0,4.0,-5.0,-1.0,0.0
1705334980.3609593,1.0,7.0,12.0,-13.0,-12.0,-15.0,-7.0,1.0
1705334980.3709483,-6.0,0.0,-2.0,-5.0,-8.0,-16.0,-13.0,-3.0
1705334980.3709483,-4.0,9.0,6.0,0.0,-8.0,7.0,-12.0,-4.0
1705334980.3809855,-1.0,5.0,-6.0,7.0,7.0,18.0,15.0,4.0
1705334980.3809855,1.0,0.0,-11.0,-5.0,0.0,-11.0,-10.0,-6.0
1705334980.3909738,3.0,-5.0,-3.0,-1.0,2.0,22.0,16.0,3.0
1705334980.3909738,-9.0,11.0,-6.0,-13.0,-8.0,-16.0,-10.0,-9.0
1705334980.4009566,-1.0,-3.0,12.0,22.0,4.0,1.0,-2.0,-1.0
1705334980.4009566,-1.0,-1.0,5.0,-16.0,-9.0,2.0,5.0,0.0
1705334980.4209485,5.0,0.0,0.0,22.0,1.0,-22.0,-23.0,1.0
1705334980.4209485,0.0,7.0,-1.0,3.0,7.0,34.0,31.0,2.0
1705334980.4209485,1.0,1.0,-2.0,-11.0,-2.0,5.0,3.0,0.0
1705334980.4209485,-3.0,-11.0,-10.0,-6.0,0.0,-4.0,2.0,-1.0
1705334980.4309478,0.0,-7.0,-8.0,-9.0,-3.0,-10.0,-14.0,-3.0
1705334980.4309478,-1.0,16.0,3.0,-5.0,-8.0,-5.0,-2.0,2.0
1705334980.4412005,-8.0,-4.0,-9.0,-6.0,-12.0,-21.0,-11.0,-3.0
1705334980.4412005,3.0,4.0,13.0,17.0,13.0,23.0,16.0,4.0
1705334980.451199,-1.0,-13.0,-21.0,-21.0,-5.0,-10.0,-9.0,-10.0
1705334980.451199,8.0,-3.0,1.0,15.0,8.0,-4.0,4.0,5.0
1705334980.4609623,-4.0,-5.0,-1.0,-11.0,-4.0,-2.0,1.0,2.0
1705334980.4609623,-1.0,-3.0,0.0,29.0,-3.0,-23.0,-40.0,-12.0
1705334980.4820395,-3.0,6.0,14.0,1.0,1.0,32.0,44.0,13.0
1705334980.4830372,-4.0,-5.0,1.0,-3.0,-9.0,-18.0,-9.0,-5.0
1705334980.4840367,-1.0,1.0,-15.0,-2.0,0.0,-3.0,0.0,3.0
1705334980.4840367,0.0,-1.0,2.0,-12.0,-8.0,3.0,10.0,-2.0
1705334980.5120957,0.0,1.0,-2.0,-6.0,4.0,0.0,-11.0,-6.0
1705334980.5120957,0.0,-16.0,2.0,-17.0,-10.0,-22.0,-4.0,1.0
1705334980.5131319,-6.0,-5.0,2.0,-2.0,2.0,18.0,3.0,-6.0
1705334980.5131319,-1.0,1.0,-13.0,4.0,7.0,-2.0,2.0,5.0
1705334980.519149,2.0,-14.0,-2.0,2.0,-3.0,-10.0,-10.0,-10.0
1705334980.519149,0.0,-5.0,6.0,3.0,-3.0,5.0,2.0,0.0
1705334980.5211082,0.0,10.0,7.0,-2.0,-4.0,-26.0,-25.0,-4.0
1705334980.5211082,-6.0,4.0,0.0,-10.0,-2.0,18.0,24.0,2.0
1705334980.5423071,-3.0,-1.0,-2.0,-2.0,7.0,11.0,8.0,3.0
1705334980.5423071,3.0,12.0,-5.0,-5.0,1.0,2.0,-5.0,-2.0
1705334980.5433204,-1.0,-1.0,3.0,5.0,-9.0,-15.0,-6.0,-4.0
1705334980.5433204,-1.0,-3.0,-10.0,-15.0,2.0,-2.0,-3.0,-1.0
1705334980.5559397,-1.0,9.0,-5.0,-4.0,-5.0,-17.0,-9.0,-2.0
1705334980.5559397,-6.0,-6.0,1.0,19.0,4.0,-1.0,4.0,-6.0
1705334980.5642147,5.0,-4.0,1.0,2.0,0.0,13.0,14.0,2.0
1705334980.5642147,-3.0,4.0,1.0,-6.0,-4.0,-4.0,0.0,1.0
1705334980.5795045,1.0,-10.0,3.0,-8.0,-4.0,-5.0,-6.0,-6.0
1705334980.5795045,2.0,10.0,-12.0,-9.0,2.0,8.0,-8.0,0.0
1705334980.5805604,1.0,-8.0,2.0,3.0,12.0,-3.0,8.0,3.0
1705334980.5815058,-6.0,-19.0,7.0,10.0,-1.0,-11.0,-7.0,-5.0
1705334980.6015408,-4.0,13.0,3.0,10.0,1.0,-14.0,-19.0,-1.0
1705334980.6015408,0.0,-5.0,1.0,0.0,-1.0,24.0,13.0,1.0
1705334980.6033545,3.0,-5.0,-7.0,-1.0,-1.0,16.0,15.0,0.0
1705334980.6033545,-1.0,5.0,-5.0,-28.0,-8.0,-2.0,-1.0,-3.0
1705334980.6158214,0.0,3.0,-8.0,-18.0,-4.0,-15.0,-10.0,-2.0
1705334980.6158214,0.0,8.0,8.0,27.0,0.0,-6.0,-21.0,1.0
1705334980.6245484,-2.0,-1.0,9.0,27.0,19.0,28.0,12.0,-5.0
1705334980.6245484,-7.0,-9.0,4.0,-2.0,-1.0,-6.0,2.0,1.0
1705334980.639058,-1.0,-11.0,-9.0,-7.0,-7.0,-4.0,0.0,1.0
1705334980.639058,-5.0,2.0,-10.0,-24.0,-9.0,-8.0,-2.0,-4.0
1705334980.6410735,-7.0,-3.0,-7.0,-1.0,-2.0,-10.0,-10.0,-1.0
1705334980.6410735,3.0,9.0,-3.0,-6.0,-5.0,-19.0,-34.0,-3.0
1705334980.6621096,3.0,12.0,-1.0,2.0,12.0,59.0,22.0,2.0
1705334980.6621096,-1.0,-14.0,5.0,16.0,5.0,-12.0,5.0,0.0
1705334980.6641626,3.0,-3.0,1.0,-4.0,-2.0,-2.0,3.0,3.0
1705334980.6641626,-1.0,4.0,0.0,6.0,-5.0,-4.0,1.0,-7.0
1705334980.6761243,1.0,8.0,3.0,3.0,-4.0,-7.0,-1.0,1.0
1705334980.6761243,-2.0,-6.0,-3.0,-3.0,2.0,-6.0,-14.0,-4.0
1705334980.6848435,-5.0,-2.0,-7.0,-3.0,0.0,1.0,1.0,-1.0
1705334980.6848435,2.0,4.0,5.0,-15.0,-5.0,1.0,6.0,2.0
1705334980.7003372,-1.0,-35.0,-22.0,8.0,-1.0,-12.0,-21.0,-8.0
1705334980.7003372,0.0,9.0,13.0,-1.0,2.0,29.0,43.0,5.0
1705334980.7013717,6.0,-4.0,12.0,7.0,8.0,-8.0,3.0,4.0
1705334980.7013717,0.0,-6.0,-3.0,22.0,4.0,11.0,8.0,-1.0
1705334980.7228603,-8.0,-5.0,5.0,-4.0,-10.0,-30.0,-19.0,-7.0
1705334980.7228603,-2.0,3.0,-7.0,4.0,-7.0,2.0,-5.0,-4.0
1705334980.7238612,1.0,-7.0,-16.0,-16.0,-12.0,-11.0,-1.0,-1.0
1705334980.7238612,5.0,7.0,0.0,-5.0,0.0,18.0,6.0,2.0
1705334980.73585,1.0,-4.0,5.0,2.0,-1.0,-7.0,1.0,0.0
1705334980.73585,-6.0,-12.0,-10.0,-10.0,-4.0,-7.0,-21.0,-1.0
1705334980.74485,-1.0,17.0,3.0,-10.0,-2.0,6.0,9.0,1.0
1705334980.74485,-2.0,-3.0,2.0,9.0,-1.0,3.0,-4.0,-7.0
1705334980.7592797,0.0,-19.0,1.0,5.0,-2.0,-3.0,13.0,3.0
1705334980.7592797,4.0,-5.0,-1.0,1.0,10.0,-4.0,-6.0,5.0
1705334980.7612543,-2.0,-8.0,-4.0,-6.0,-2.0,2.0,-20.0,-5.0
1705334980.7612543,4.0,-6.0,-4.0,-12.0,-3.0,0.0,2.0,3.0
1705334980.7821038,-5.0,15.0,2.0,6.0,-3.0,-2.0,3.0,-2.0
1705334980.7821038,-1.0,15.0,2.0,-13.0,-13.0,-31.0,-22.0,-6.0
1705334980.783962,-1.0,6.0,2.0,22.0,11.0,29.0,19.0,4.0
1705334980.783962,-1.0,-6.0,-7.0,-7.0,7.0,7.0,16.0,1.0
1705334980.7956736,2.0,16.0,19.0,-1.0,-6.0,5.0,-3.0,-1.0
1705334980.7956736,-1.0,-6.0,-9.0,-16.0,0.0,-2.0,9.0,-2.0
1705334980.8048503,-6.0,5.0,-5.0,4.0,-8.0,-32.0,-33.0,-9.0
1705334980.8048503,-4.0,-15.0,-7.0,9.0,-4.0,1.0,-3.0,-1.0
1705334980.819197,-2.0,-7.0,2.0,-5.0,-5.0,9.0,8.0,-1.0
1705334980.819197,0.0,-8.0,4.0,0.0,8.0,10.0,16.0,5.0
1705334980.8211133,4.0,-9.0,-4.0,-3.0,1.0,-1.0,-7.0,-4.0
1705334980.8211133,-3.0,4.0,2.0,-3.0,-3.0,-10.0,8.0,2.0
1705334980.8426101,-10.0,-16.0,-8.0,-4.0,-5.0,-19.0,-16.0,-7.0
1705334980.8426101,8.0,16.0,7.0,-2.0,-7.0,11.0,-3.0,-3.0
1705334980.843629,-10.0,-4.0,-2.0,-6.0,-1.0,4.0,11.0,3.0
1705334980.843629,4.0,-4.0,-4.0,-6.0,-2.0,-3.0,-4.0,1.0
1705334980.8558662,0.0,9.0,1.0,9.0,5.0,-11.0,-1.0,1.0
1705334980.8558662,2.0,4.0,1.0,5.0,0.0,1.0,-11.0,-5.0
1705334980.8648758,7.0,2.0,-6.0,-3.0,-2.0,-3.0,-4.0,-3.0
1705334980.8648758,-8.0,-3.0,2.0,0.0,1.0,10.0,4.0,-4.0
1705334980.8792,2.0,5.0,-2.0,-7.0,4.0,7.0,9.0,4.0
1705334980.8792,-4.0,-3.0,-2.0,1.0,-1.0,2.0,1.0,0.0
1705334980.8811285,-1.0,8.0,0.0,-13.0,-2.0,-11.0,-8.0,-3.0
1705334980.8811285,0.0,-5.0,2.0,-6.0,-11.0,-18.0,-10.0,-2.0
1705334980.9021726,-3.0,-5.0,-11.0,11.0,12.0,16.0,5.0,2.0
1705334980.9021726,-1.0,-6.0,-1.0,12.0,6.0,2.0,-6.0,-2.0
1705334980.9031823,0.0,7.0,17.0,4.0,-4.0,-24.0,10.0,1.0
1705334980.904186,1.0,9.0,10.0,1.0,4.0,41.0,3.0,6.0
1705334980.924603,0.0,1.0,-7.0,-10.0,-4.0,-2.0,7.0,1.0
1705334980.924603,-2.0,-4.0,-6.0,-5.0,-10.0,-19.0,-10.0,-4.0
1705334980.926516,-2.0,-5.0,-3.0,-5.0,-1.0,-7.0,-22.0,-7.0
1705334980.926516,5.0,6.0,4.0,6.0,5.0,14.0,21.0,7.0
1705334980.9391792,2.0,2.0,-2.0,1.0,2.0,7.0,6.0,-4.0
1705334980.9391792,-9.0,-3.0,-5.0,-1.0,1.0,-5.0,-4.0,-1.0
1705334980.9451773,-7.0,-5.0,-3.0,-2.0,-4.0,-8.0,-4.0,-1.0
1705334980.9461813,-3.0,7.0,-1.0,2.0,-3.0,-3.0,-3.0,-3.0
1705334980.9651237,4.0,7.0,-1.0,-1.0,-2.0,0.0,-6.0,0.0
1705334980.9651237,0.0,10.0,4.0,4.0,5.0,11.0,13.0,3.0
1705334980.9651237,-3.0,2.0,0.0,-3.0,-4.0,-5.0,-6.0,-3.0
1705334980.9651237,-1.0,-5.0,-6.0,0.0,0.0,1.0,-5.0,-2.0
1705334980.9841151,-1.0,5.0,3.0,-5.0,-3.0,8.0,4.0,0.0
1705334980.9841151,-1.0,-12.0,-2.0,6.0,-1.0,-11.0,3.0,-1.0
1705334980.9861107,-2.0,4.0,-3.0,2.0,-3.0,6.0,-4.0,-2.0
1705334980.9861107,-10.0,-10.0,-9.0,-14.0,-6.0,-17.0,-18.0,-6.0
1705334980.999101,2.0,-6.0,-7.0,-16.0,0.0,12.0,-1.0,-1.0
1705334980.999101,-1.0,14.0,6.0,-2.0,-3.0,5.0,3.0,-3.0
1705334981.0057948,-1.0,-6.0,4.0,17.0,4.0,7.0,1.0,1.0
1705334981.0068223,-1.0,-16.0,-1.0,18.0,1.0,-24.0,-15.0,-4.0
1705334981.0220625,-2.0,2.0,1.0,-8.0,-7.0,0.0,3.0,0.0
1705334981.0231018,2.0,-3.0,-16.0,-12.0,-1.0,-6.0,3.0,-1.0
1705334981.0241108,1.0,-7.0,16.0,-11.0,-5.0,-5.0,-2.0,2.0
1705334981.0241108,-2.0,6.0,-4.0,1.0,-6.0,-2.0,-9.0,-4.0
1705334981.0572443,0.0,-1.0,8.0,0.0,-2.0,0.0,6.0,-1.0
1705334981.0572443,-3.0,-3.0,-1.0,-2.0,3.0,7.0,-2.0,0.0
1705334981.0572443,-3.0,-3.0,-17.0,-6.0,-2.0,-3.0,5.0,1.0
1705334981.0572443,1.0,-3.0,3.0,0.0,-1.0,1.0,2.0,-1.0
1705334981.0572443,1.0,-1.0,-1.0,0.0,-2.0,-9.0,-6.0,-2.0
1705334981.0572443,-6.0,4.0,-3.0,-5.0,-5.0,-4.0,-1.0,1.0
1705334981.0664814,4.0,-2.0,-2.0,0.0,2.0,2.0,3.0,1.0
1705334981.0664814,1.0,-10.0,-4.0,-5.0,-3.0,-13.0,-6.0,-6.0
1705334981.0822067,-1.0,-1.0,-2.0,4.0,2.0,-8.0,-3.0,0.0
1705334981.0822067,-8.0,-18.0,7.0,0.0,-9.0,-9.0,-6.0,-4.0
1705334981.0891721,1.0,6.0,5.0,-2.0,2.0,11.0,2.0,2.0
1705334981.0891721,-2.0,-1.0,-5.0,0.0,8.0,0.0,15.0,3.0
1705334981.1047318,-1.0,-4.0,-7.0,-7.0,-9.0,-5.0,-16.0,-3.0
1705334981.1047318,5.0,3.0,1.0,-2.0,0.0,-4.0,16.0,2.0
1705334981.1060894,-1.0,1.0,2.0,3.0,1.0,4.0,-5.0,-1.0
1705334981.1060894,-3.0,-5.0,-9.0,-4.0,-6.0,-12.0,-3.0,-2.0
1705334981.1180725,-5.0,11.0,0.0,-3.0,-4.0,-14.0,-4.0,-3.0
1705334981.1180725,-1.0,12.0,9.0,3.0,-2.0,5.0,3.0,-4.0
1705334981.126817,0.0,-1.0,-16.0,-5.0,-4.0,0.0,0.0,0.0
1705334981.126817,-3.0,-6.0,0.0,-1.0,2.0,4.0,-5.0,1.0
1705334981.1428275,3.0,-11.0,1.0,0.0,-4.0,-8.0,-4.0,-1.0
1705334981.1428275,-4.0,0.0,-18.0,0.0,4.0,-4.0,-5.0,-1.0
1705334981.1438406,-3.0,-13.0,-3.0,-6.0,-2.0,1.0,2.0,0.0
1705334981.1438406,1.0,-1.0,26.0,-1.0,-8.0,-20.0,-7.0,-2.0
1705334981.1647282,-2.0,21.0,1.0,-1.0,1.0,11.0,0.0,0.0
1705334981.1647282,3.0,-3.0,-2.0,-2.0,-2.0,5.0,-1.0,0.0
1705334981.1709943,-2.0,-5.0,-12.0,-1.0,-3.0,7.0,10.0,-5.0
1705334981.1709943,0.0,-2.0,-7.0,0.0,3.0,1.0,4.0,2.0
1705334981.1780014,-1.0,3.0,9.0,3.0,7.0,3.0,2.0,-2.0
1705334981.1780014,-2.0,9.0,1.0,0.0,-2.0,-12.0,-16.0,-2.0
1705334981.1870036,4.0,6.0,4.0,8.0,2.0,13.0,8.0,0.0
1705334981.1870036,3.0,5.0,-6.0,-6.0,2.0,11.0,4.0,5.0
1705334981.2083948,-6.0,-6.0,1.0,6.0,2.0,6.0,-2.0,-3.0
1705334981.2083948,0.0,0.0,1.0,0.0,-6.0,-7.0,-4.0,-4.0
1705334981.2093947,-13.0,0.0,-3.0,-9.0,-4.0,-12.0,-13.0,-9.0
1705334981.2093947,1.0,15.0,2.0,1.0,-6.0,-6.0,0.0,0.0
1705334981.2242274,2.0,-4.0,-2.0,6.0,7.0,18.0,7.0,5.0
1705334981.2242274,6.0,3.0,2.0,1.0,1.0,1.0,-14.0,0.0
1705334981.2264006,1.0,2.0,-1.0,-6.0,-5.0,1.0,-10.0,0.0
1705334981.2264006,0.0,-4.0,-3.0,4.0,10.0,49.0,30.0,3.0
1705334981.2382088,-4.0,-14.0,-8.0,-9.0,-9.0,-23.0,-5.0,-3.0
1705334981.2382088,1.0,4.0,2.0,0.0,-2.0,6.0,-3.0,-1.0
1705334981.2469196,0.0,-5.0,2.0,2.0,1.0,-16.0,-12.0,-2.0
1705334981.2469196,-4.0,-6.0,-7.0,-3.0,-1.0,-5.0,-10.0,-2.0
1705334981.2690537,-1.0,-12.0,-12.0,-2.0,1.0,-10.0,-2.0,-1.0
1705334981.2690537,4.0,-1.0,19.0,4.0,5.0,10.0,7.0,-1.0
1705334981.2690537,-6.0,0.0,15.0,-2.0,-5.0,-4.0,1.0,-1.0
1705334981.2690537,-9.0,-2.0,-8.0,-7.0,-10.0,-16.0,-8.0,-4.0
1705334981.284979,3.0,9.0,2.0,0.0,-6.0,-4.0,0.0,-3.0
1705334981.284979,-2.0,-9.0,-12.0,5.0,2.0,1.0,8.0,2.0
1705334981.286128,-2.0,6.0,7.0,1.0,6.0,5.0,1.0,1.0
1705334981.286128,-2.0,0.0,-1.0,3.0,-7.0,-31.0,-36.0,-9.0
1705334981.298206,-7.0,7.0,-20.0,-4.0,0.0,23.0,23.0,-2.0
1705334981.298206,0.0,-11.0,-6.0,-4.0,4.0,17.0,21.0,4.0
1705334981.307218,2.0,1.0,0.0,-1.0,-2.0,-9.0,-3.0,1.0
1705334981.307218,0.0,-10.0,0.0,2.0,-4.0,-7.0,-9.0,-2.0
1705334981.327788,0.0,-7.0,11.0,4.0,-2.0,-9.0,-9.0,-2.0
1705334981.327788,-6.0,6.0,-3.0,-6.0,-2.0,-11.0,-5.0,-3.0
1705334981.327788,-3.0,-14.0,1.0,3.0,-13.0,13.0,16.0,2.0
1705334981.327788,-3.0,-6.0,-1.0,-2.0,23.0,-5.0,-3.0,0.0
1705334981.342794,15.0,-12.0,2.0,5.0,-4.0,-4.0,-6.0,-1.0
1705334981.342794,-11.0,-3.0,4.0,3.0,0.0,0.0,1.0,-2.0
1705334981.342794,2.0,3.0,-3.0,-9.0,-10.0,-15.0,-12.0,-4.0
1705334981.342794,3.0,2.0,-4.0,0.0,-11.0,-2.0,3.0,0.0
1705334981.3529823,-4.0,8.0,7.0,2.0,10.0,4.0,2.0,2.0
1705334981.3529823,-2.0,9.0,-8.0,-6.0,-5.0,-11.0,-24.0,-4.0
1705334981.3631778,-2.0,-7.0,1.0,-5.0,-2.0,-13.0,12.0,2.0
1705334981.3631778,3.0,3.0,-7.0,-4.0,-4.0,31.0,13.0,2.0
1705334981.3727963,3.0,12.0,7.0,-2.0,-2.0,-8.0,-8.0,-1.0
1705334981.3727963,3.0,-3.0,-10.0,-7.0,-4.0,-10.0,-6.0,-1.0
1705334981.3828213,1.0,-5.0,-10.0,2.0,3.0,-13.0,-2.0,-1.0
1705334981.3828213,-10.0,6.0,9.0,0.0,3.0,14.0,10.0,-5.0
1705334981.4030871,-3.0,-7.0,11.0,6.0,3.0,-21.0,-13.0,0.0
1705334981.4030871,-6.0,-8.0,-2.0,4.0,-1.0,2.0,5.0,-2.0
1705334981.4030871,5.0,20.0,-8.0,-6.0,-1.0,-2.0,-5.0,0.0
1705334981.4030871,1.0,-6.0,-14.0,1.0,4.0,-3.0,3.0,-1.0
1705334981.413092,-4.0,2.0,-10.0,-12.0,-11.0,-1.0,-9.0,-2.0
1705334981.413092,-1.0,16.0,-13.0,-2.0,-14.0,-5.0,-1.0,-2.0
1705334981.423112,-2.0,-6.0,7.0,-6.0,23.0,13.0,4.0,-2.0
1705334981.423112,2.0,-5.0,15.0,3.0,-3.0,-8.0,-6.0,-1.0
1705334981.4431667,-4.0,-13.0,5.0,0.0,1.0,6.0,-3.0,-2.0
1705334981.4431667,6.0,-3.0,1.0,3.0,-5.0,-9.0,-5.0,2.0
1705334981.453131,-3.0,-2.0,-5.0,3.0,-9.0,8.0,12.0,-1.0
1705334981.453131,1.0,6.0,0.0,-4.0,-3.0,-5.0,-8.0,-2.0
1705334981.4634466,-6.0,-6.0,-5.0,-11.0,0.0,-8.0,-4.0,-5.0
1705334981.4634466,1.0,-5.0,7.0,-6.0,-19.0,-15.0,-5.0,-2.0
1705334981.4634466,1.0,-6.0,-16.0,-6.0,10.0,16.0,-3.0,0.0
1705334981.4634466,2.0,-7.0,7.0,5.0,6.0,-6.0,5.0,1.0
1705334981.4734867,0.0,-2.0,-4.0,2.0,-9.0,10.0,7.0,-1.0
1705334981.4734867,-2.0,-5.0,0.0,3.0,12.0,-12.0,-7.0,-2.0
1705334981.4931285,0.0,10.0,10.0,5.0,-5.0,-6.0,-14.0,-2.0
1705334981.4931285,-1.0,8.0,-3.0,-5.0,-6.0,-8.0,-1.0,-2.0
1705334981.4931285,-3.0,1.0,0.0,-8.0,-12.0,8.0,7.0,-1.0
1705334981.4931285,-3.0,6.0,-28.0,-9.0,0.0,-8.0,-6.0,-2.0
1705334981.5031345,0.0,-8.0,12.0,0.0,-3.0,9.0,3.0,1.0
1705334981.5031345,-2.0,-5.0,14.0,8.0,5.0,4.0,-8.0,-2.0
1705334981.523132,-2.0,10.0,-12.0,4.0,5.0,1.0,-8.0,0.0
1705334981.523132,2.0,1.0,-2.0,-6.0,5.0,9.0,8.0,0.0
1705334981.523132,-1.0,1.0,-9.0,0.0,-3.0,-9.0,-4.0,-3.0
1705334981.523132,-1.0,1.0,4.0,4.0,-2.0,7.0,9.0,0.0
1705334981.5334196,-1.0,-5.0,7.0,1.0,-9.0,-15.0,-9.0,-2.0
1705334981.5334196,-3.0,0.0,12.0,4.0,5.0,10.0,4.0,0.0
1705334981.5431306,-1.0,11.0,-4.0,-2.0,-10.0,-10.0,-1.0,-4.0
1705334981.5431306,0.0,-6.0,-4.0,-7.0,-10.0,-8.0,-4.0,-2.0
1705334981.5531652,-3.0,-2.0,-8.0,5.0,7.0,2.0,6.0,-1.0
1705334981.5531652,-1.0,6.0,7.0,6.0,10.0,5.0,-4.0,-1.0
1705334981.563136,-6.0,-5.0,-5.0,-5.0,-3.0,-8.0,-10.0,-11.0
1705334981.563136,-4.0,-7.0,-6.0,-3.0,-6.0,3.0,3.0,9.0
1705334981.5831318,3.0,3.0,-8.0,-2.0,6.0,14.0,14.0,-1.0
1705334981.5831318,-2.0,-7.0,-1.0,0.0,-5.0,-10.0,-10.0,-3.0
1705334981.5831318,-1.0,-12.0,0.0,4.0,2.0,6.0,1.0,3.0
1705334981.5831318,0.0,-1.0,-1.0,-7.0,-3.0,-3.0,-3.0,-7.0
1705334981.5931306,-1.0,7.0,-10.0,2.0,-5.0,-2.0,-3.0,0.0
1705334981.5931306,-3.0,-3.0,9.0,-1.0,-1.0,1.0,2.0,-3.0
1705334981.603185,-1.0,0.0,12.0,2.0,1.0,-4.0,-4.0,0.0
1705334981.603185,1.0,-13.0,-5.0,-5.0,-1.0,-10.0,-12.0,-3.0
1705334981.6133528,-3.0,-16.0,2.0,0.0,7.0,6.0,-2.0,0.0
1705334981.6133528,0.0,6.0,-8.0,-6.0,-9.0,0.0,15.0,-2.0
1705334981.623135,2.0,-7.0,-7.0,2.0,3.0,7.0,6.0,4.0
1705334981.623135,-4.0,-1.0,5.0,3.0,-2.0,-5.0,1.0,-1.0
1705334981.6432912,-5.0,8.0,-1.0,-4.0,-4.0,-8.0,-3.0,-2.0
1705334981.6432912,-1.0,-5.0,-5.0,-3.0,-1.0,-4.0,-4.0,-1.0
1705334981.6432912,-2.0,-3.0,-8.0,-2.0,-2.0,-4.0,-8.0,-1.0
1705334981.6432912,0.0,18.0,1.0,-1.0,-1.0,1.0,4.0,-2.0
1705334981.6731327,0.0,-3.0,6.0,2.0,-2.0,-2.0,-3.0,0.0
1705334981.6731327,2.0,1.0,7.0,5.0,2.0,10.0,5.0,1.0
1705334981.6731327,-6.0,-3.0,-14.0,-6.0,1.0,-15.0,-11.0,-2.0
1705334981.6731327,2.0,-4.0,-2.0,-1.0,3.0,11.0,8.0,0.0
1705334981.6731327,-1.0,4.0,27.0,9.0,3.0,4.0,5.0,1.0
1705334981.6731327,0.0,1.0,-4.0,-1.0,-9.0,-1.0,-4.0,0.0
1705334981.6832118,-2.0,2.0,-6.0,-3.0,-2.0,-4.0,1.0,-2.0
1705334981.6832118,2.0,-5.0,-18.0,-3.0,-4.0,-7.0,-7.0,-1.0
1705334981.7033095,0.0,0.0,6.0,-2.0,-1.0,-1.0,-4.0,-2.0
1705334981.7033095,0.0,7.0,1.0,3.0,4.0,3.0,0.0,0.0
1705334981.7033095,0.0,3.0,8.0,-4.0,-11.0,0.0,-2.0,-1.0
1705334981.7033095,-7.0,-3.0,5.0,-7.0,-3.0,-2.0,0.0,-3.0
1705334981.7231297,-1.0,8.0,3.0,-4.0,0.0,-2.0,1.0,-2.0
1705334981.7231297,3.0,-7.0,12.0,10.0,-2.0,-3.0,-3.0,-2.0
1705334981.7231297,1.0,-5.0,-6.0,2.0,14.0,3.0,2.0,-1.0
1705334981.7231297,-2.0,-1.0,1.0,0.0,-5.0,-29.0,-21.0,-4.0
1705334981.7333112,1.0,-15.0,-27.0,-2.0,2.0,49.0,20.0,3.0
1705334981.7333112,-2.0,0.0,1.0,-5.0,-1.0,1.0,7.0,-1.0
1705334981.7431352,2.0,3.0,1.0,1.0,-3.0,0.0,4.0,0.0
1705334981.7431352,-4.0,-4.0,-10.0,-5.0,-5.0,-7.0,-10.0,-3.0
1705334981.763276,-2.0,13.0,12.0,-2.0,-2.0,-10.0,-8.0,-2.0
1705334981.763276,0.0,2.0,11.0,-1.0,-2.0,-4.0,-2.0,-2.0
1705334981.763276,0.0,2.0,-8.0,0.0,-5.0,-1.0,-2.0,-1.0
1705334981.763276,1.0,-2.0,-20.0,-2.0,2.0,6.0,5.0,0.0
1705334981.7855809,-4.0,2.0,-5.0,-7.0,-3.0,-13.0,-4.0,-2.0
1705334981.7855809,-1.0,-17.0,24.0,-2.0,5.0,8.0,0.0,0.0
1705334981.7868335,-4.0,-3.0,-1.0,5.0,-4.0,-6.0,-2.0,-1.0
1705334981.7868335,0.0,11.0,7.0,0.0,-3.0,3.0,2.0,0.0
1705334981.8022847,-3.0,-1.0,-38.0,-15.0,-7.0,-7.0,-3.0,-4.0
1705334981.8022847,-5.0,12.0,6.0,-2.0,10.0,-1.0,-4.0,-1.0
1705334981.8091137,3.0,-1.0,13.0,10.0,-1.0,6.0,0.0,1.0
1705334981.8091137,1.0,-9.0,-14.0,4.0,3.0,6.0,4.0,-1.0
1705334981.8291383,-1.0,1.0,10.0,-5.0,-3.0,-9.0,-1.0,-1.0
1705334981.8291383,-3.0,4.0,5.0,2.0,-5.0,4.0,-6.0,-1.0
1705334981.8291383,-5.0,-5.0,-3.0,-7.0,-2.0,-19.0,-7.0,-3.0
1705334981.8291383,2.0,4.0,0.0,6.0,12.0,47.0,24.0,3.0
1705334981.8291383,0.0,-13.0,7.0,0.0,-8.0,-7.0,1.0,-1.0
1705334981.8291383,0.0,-2.0,-17.0,-3.0,-1.0,-6.0,-7.0,-3.0
1705334981.8494763,-1.0,9.0,-7.0,2.0,11.0,4.0,2.0,-1.0
1705334981.8494763,-1.0,-7.0,-10.0,-5.0,-5.0,-11.0,-12.0,-2.0
1705334981.8595147,-3.0,3.0,0.0,1.0,-1.0,-4.0,-5.0,1.0
1705334981.8595147,-1.0,-4.0,-3.0,-3.0,-8.0,-4.0,-3.0,-2.0
1705334981.8595147,0.0,4.0,-3.0,-9.0,-12.0,1.0,-4.0,-1.0
1705334981.8595147,-5.0,-7.0,4.0,-9.0,-3.0,-10.0,-4.0,-2.0
1705334981.879152,5.0,-3.0,12.0,9.0,9.0,2.0,1.0,1.0
1705334981.879152,-1.0,3.0,7.0,2.0,-7.0,-5.0,0.0,-1.0
1705334981.879152,-1.0,20.0,4.0,1.0,0.0,0.0,-3.0,0.0
1705334981.879152,-4.0,0.0,-26.0,-10.0,-3.0,-1.0,3.0,-1.0
1705334981.8995647,1.0,1.0,-8.0,-3.0,0.0,-6.0,-3.0,-1.0
1705334981.8995647,-1.0,-11.0,26.0,10.0,3.0,3.0,0.0,0.0
1705334981.8995647,-1.0,-2.0,-17.0,-6.0,-2.0,5.0,4.0,1.0
1705334981.8995647,-2.0,-3.0,8.0,8.0,3.0,-3.0,-5.0,-1.0
1705334981.919578,0.0,-3.0,20.0,0.0,-5.0,-6.0,-6.0,-2.0
1705334981.919578,-2.0,4.0,-14.0,-4.0,-1.0,-4.0,0.0,-1.0
1705334981.919578,-2.0,-1.0,-2.0,-7.0,-13.0,0.0,-2.0,-2.0
1705334981.919578,-1.0,2.0,-25.0,-3.0,8.0,-5.0,-1.0,-1.0
1705334981.9391518,0.0,-10.0,-15.0,3.0,2.0,-5.0,-5.0,-1.0
1705334981.9391518,5.0,6.0,14.0,0.0,4.0,3.0,5.0,1.0
1705334981.9391518,-6.0,-7.0,16.0,7.0,7.0,29.0,14.0,-1.0
1705334981.9391518,-1.0,1.0,9.0,2.0,-5.0,-9.0,0.0,-1.0
1705334981.9595737,1.0,1.0,-3.0,-3.0,-8.0,-10.0,-7.0,-2.0
1705334981.9595737,-4.0,-6.0,-28.0,-7.0,-3.0,-6.0,-5.0,0.0
1705334981.9595737,0.0,0.0,-2.0,-5.0,-5.0,-17.0,-12.0,-4.0
1705334981.9595737,-1.0,-4.0,24.0,2.0,-4.0,3.0,2.0,-3.0
1705334981.979154,-4.0,-3.0,1.0,4.0,0.0,2.0,2.0,0.0
1705334981.979154,0.0,6.0,-22.0,-11.0,3.0,3.0,-1.0,-2.0
1705334981.979154,-2.0,-5.0,-3.0,7.0,7.0,0.0,0.0,1.0
1705334981.979154,1.0,-3.0,20.0,4.0,4.0,-2.0,-4.0,0.0
1705334981.999402,-1.0,7.0,-3.0,-1.0,0.0,-2.0,0.0,-2.0
1705334981.999402,-4.0,7.0,-10.0,3.0,-5.0,1.0,2.0,-1.0
1705334982.0091558,0.0,-15.0,0.0,-13.0,-3.0,-7.0,-2.0,1.0
1705334982.0091558,0.0,21.0,-10.0,7.0,-9.0,-2.0,-3.0,-3.0
1705334982.0194273,-4.0,-6.0,0.0,-10.0,-1.0,5.0,3.0,0.0
1705334982.0194273,0.0,1.0,-7.0,-20.0,-4.0,-1.0,-5.0,-1.0
1705334982.0291555,-1.0,5.0,27.0,20.0,9.0,3.0,4.0,1.0
1705334982.0291555,1.0,-13.0,0.0,-6.0,-3.0,-2.0,-2.0,-1.0
1705334982.059152,1.0,-14.0,9.0,5.0,-5.0,-4.0,-3.0,-2.0
1705334982.059152,-4.0,-4.0,-4.0,5.0,-9.0,-30.0,-22.0,-2.0
1705334982.059152,5.0,-4.0,-1.0,-6.0,2.0,28.0,25.0,2.0
1705334982.059152,-2.0,-14.0,0.0,-8.0,6.0,-6.0,-7.0,0.0
1705334982.059152,-3.0,15.0,-5.0,-1.0,16.0,15.0,14.0,0.0
1705334982.059152,-2.0,-8.0,-4.0,-7.0,-9.0,-2.0,-1.0,-2.0
1705334982.059152,1.0,5.0,-4.0,-2.0,-13.0,-19.0,-14.0,-4.0
1705334982.059152,0.0,5.0,14.0,6.0,-9.0,-6.0,-4.0,1.0
1705334982.0891602,-6.0,-7.0,-1.0,8.0,5.0,-12.0,-5.0,-4.0
1705334982.0891602,2.0,-16.0,8.0,4.0,4.0,4.0,4.0,0.0
1705334982.0891602,-2.0,8.0,2.0,-3.0,6.0,0.0,-4.0,-3.0
1705334982.0891602,-4.0,-10.0,-57.0,-16.0,-13.0,-6.0,-3.0,-4.0
1705334982.0993416,3.0,6.0,12.0,-6.0,2.0,-2.0,-8.0,3.0
1705334982.0993416,2.0,3.0,-6.0,5.0,5.0,1.0,8.0,0.0
1705334982.1091561,-2.0,-6.0,9.0,1.0,-3.0,9.0,7.0,2.0
1705334982.1091561,1.0,-10.0,26.0,2.0,1.0,5.0,1.0,-1.0
1705334982.1291506,-1.0,-1.0,-8.0,5.0,-5.0,-6.0,-3.0,-4.0
1705334982.1291506,-2.0,12.0,8.0,-1.0,-1.0,-3.0,1.0,2.0
1705334982.1291506,0.0,4.0,-28.0,-14.0,-3.0,-13.0,-21.0,-4.0
1705334982.1291506,5.0,-9.0,7.0,5.0,4.0,10.0,10.0,-13.0
1705334982.1394691,-1.0,16.0,-32.0,-15.0,-10.0,-6.0,-10.0,10.0
1705334982.1394691,-9.0,-4.0,7.0,2.0,7.0,12.0,11.0,-6.0
1705334982.1394691,-1.0,0.0,53.0,21.0,-4.0,-14.0,-5.0,5.0
1705334982.149156,-2.0,-8.0,-36.0,-11.0,0.0,5.0,4.0,-1.0
1705334982.1591513,0.0,-5.0,13.0,-6.0,-2.0,-4.0,-4.0,-6.0
1705334982.1591513,2.0,1.0,-7.0,0.0,2.0,5.0,-1.0,-2.0
1705334982.169151,-2.0,12.0,-18.0,-13.0,-6.0,-14.0,-7.0,-3.0
1705334982.169151,-2.0,13.0,14.0,5.0,-1.0,15.0,1.0,0.0
1705334982.179521,8.0,3.0,6.0,-3.0,-10.0,-12.0,1.0,-2.0
1705334982.179521,-5.0,-3.0,-1.0,3.0,7.0,8.0,2.0,1.0
1705334982.179521,0.0,-6.0,-3.0,15.0,12.0,9.0,3.0,-1.0
1705334982.179521,-3.0,-13.0,-20.0,-6.0,-10.0,-7.0,0.0,6.0
1705334982.1993494,-9.0,6.0,-14.0,-3.0,7.0,2.0,-3.0,-9.0
1705334982.1993494,-1.0,-5.0,-4.0,-12.0,-10.0,-14.0,-11.0,-4.0
1705334982.1993494,1.0,-9.0,10.0,4.0,8.0,28.0,17.0,3.0
1705334982.1993494,7.0,-1.0,-2.0,-8.0,-6.0,-16.0,-7.0,8.0
1705334982.2193458,-3.0,-18.0,7.0,8.0,-2.0,2.0,-2.0,-3.0
1705334982.2193458,-3.0,6.0,0.0,2.0,8.0,6.0,3.0,-3.0
1705334982.2293515,-3.0,12.0,-17.0,-11.0,-7.0,-24.0,-7.0,-6.0
1705334982.2293515,1.0,9.0,10.0,3.0,-6.0,-9.0,-7.0,1.0
1705334982.2396822,-3.0,-21.0,14.0,1.0,-13.0,5.0,10.0,-1.0
1705334982.2396822,0.0,2.0,5.0,8.0,19.0,0.0,-8.0,0.0
1705334982.2396822,-4.0,-17.0,-54.0,-12.0,-7.0,-2.0,-3.0,-1.0
1705334982.2396822,-1.0,-1.0,38.0,8.0,18.0,5.0,0.0,9.0
1705334982.2893457,4.0,13.0,-9.0,6.0,-5.0,-5.0,-3.0,0.0
1705334982.2893457,2.0,4.0,31.0,-4.0,-20.0,-3.0,-1.0,-1.0
1705334982.2893457,-5.0,-8.0,-62.0,-20.0,-2.0,-3.0,-6.0,-4.0
1705334982.2893457,-5.0,2.0,10.0,3.0,4.0,2.0,3.0,-6.0
1705334982.2893457,4.0,10.0,-4.0,1.0,7.0,9.0,4.0,3.0
1705334982.2893457,-4.0,0.0,7.0,4.0,-2.0,31.0,17.0,2.0
1705334982.2893457,0.0,2.0,32.0,3.0,-5.0,-9.0,-7.0,-4.0
1705334982.2893457,-4.0,-7.0,-9.0,1.0,2.0,1.0,1.0,-3.0
1705334982.2996364,-4.0,8.0,3.0,-6.0,-5.0,-22.0,-14.0,-1.0
1705334982.2996364,2.0,-6.0,-33.0,-6.0,-2.0,16.0,14.0,1.0
1705334982.2996364,1.0,-3.0,20.0,2.0,-10.0,-15.0,-5.0,-5.0
1705334982.2996364,-2.0,13.0,-13.0,-14.0,0.0,-8.0,-8.0,4.0
1705334982.341675,1.0,4.0,19.0,10.0,14.0,17.0,7.0,-1.0
1705334982.341675,4.0,-8.0,-15.0,7.0,-4.0,-22.0,-10.0,1.0
1705334982.341675,-6.0,2.0,-2.0,-3.0,6.0,6.0,3.0,0.0
1705334982.341675,-1.0,2.0,23.0,-2.0,-10.0,-6.0,-4.0,-5.0
1705334982.341675,0.0,-7.0,-2.0,-6.0,-4.0,-1.0,-1.0,-2.0
1705334982.341675,-2.0,8.0,-8.0,4.0,1.0,-3.0,-4.0,0.0
1705334982.341675,0.0,-7.0,9.0,-3.0,-3.0,5.0,3.0,1.0
1705334982.341675,-4.0,7.0,-23.0,2.0,7.0,3.0,0.0,-3.0
1705334982.3624308,-1.0,4.0,-4.0,-7.0,-7.0,2.0,-1.0,-2.0
1705334982.3624308,-2.0,-7.0,1.0,11.0,1.0,-5.0,-5.0,-4.0
1705334982.3624308,-1.0,2.0,14.0,7.0,4.0,-2.0,0.0,3.0
1705334982.3624308,2.0,7.0,1.0,-5.0,-11.0,0.0,1.0,-1.0
1705334982.3896399,-2.0,-14.0,-11.0,-1.0,6.0,2.0,1.0,0.0
1705334982.3896399,-3.0,10.0,-15.0,-14.0,-1.0,-10.0,-5.0,-2.0
1705334982.3896399,3.0,-2.0,5.0,-2.0,-6.0,3.0,-1.0,-1.0
1705334982.3896399,0.0,-6.0,32.0,6.0,2.0,0.0,-1.0,0.0
1705334982.3999066,2.0,8.0,-30.0,0.0,1.0,8.0,1.0,-2.0
1705334982.3999066,-4.0,2.0,9.0,-14.0,-1.0,-3.0,-1.0,-1.0
1705334982.409654,0.0,-10.0,10.0,-1.0,2.0,8.0,4.0,1.0
1705334982.409654,-7.0,-6.0,1.0,8.0,2.0,-7.0,-6.0,-2.0
1705334982.4199836,-1.0,8.0,-9.0,-10.0,-16.0,-27.0,-11.0,-4.0
1705334982.4199836,1.0,2.0,27.0,15.0,6.0,35.0,21.0,1.0
1705334982.4199836,0.0,-1.0,-13.0,-14.0,-7.0,-8.0,-1.0,-7.0
1705334982.4199836,3.0,-17.0,16.0,-9.0,-2.0,1.0,3.0,3.0
1705334982.439648,0.0,-15.0,-28.0,1.0,5.0,-7.0,-5.0,1.0
1705334982.439648,-4.0,4.0,-24.0,-5.0,2.0,-15.0,-9.0,-2.0
1705334982.439648,-4.0,26.0,44.0,17.0,-3.0,3.0,1.0,-8.0
1705334982.439648,-7.0,-3.0,-76.0,-15.0,0.0,-2.0,-3.0,9.0
1705334982.4596486,1.0,4.0,9.0,-3.0,-4.0,-5.0,-2.0,-3.0
1705334982.4596486,4.0,-12.0,-8.0,0.0,-7.0,-4.0,-5.0,2.0
1705334982.46965,0.0,-10.0,26.0,2.0,6.0,5.0,2.0,-2.0
1705334982.46965,0.0,9.0,14.0,5.0,-9.0,-5.0,-4.0,-8.0
1705334982.48003,-2.0,-5.0,-11.0,-2.0,13.0,12.0,6.0,0.0
1705334982.48003,2.0,9.0,2.0,-9.0,-8.0,-3.0,-3.0,-2.0
1705334982.48003,-5.0,-5.0,-14.0,1.0,-9.0,-11.0,-9.0,1.0
1705334982.48003,-4.0,-13.0,-1.0,5.0,0.0,-1.0,-8.0,-4.0
1705334982.499555,-1.0,-2.0,1.0,-9.0,2.0,8.0,7.0,1.0
1705334982.499555,4.0,2.0,40.0,12.0,2.0,-3.0,-4.0,-2.0
1705334982.509909,0.0,-11.0,-72.0,-6.0,13.0,30.0,20.0,7.0
1705334982.509909,-1.0,4.0,19.0,-17.0,-5.0,-2.0,-1.0,-2.0
1705334982.5199466,-2.0,2.0,22.0,15.0,-7.0,-19.0,-15.0,-3.0
1705334982.5199466,-2.0,5.0,-11.0,-2.0,-2.0,26.0,6.0,1.0
1705334982.5295548,2.0,3.0,5.0,-6.0,-7.0,-12.0,-4.0,3.0
1705334982.5295548,2.0,-3.0,-7.0,4.0,9.0,7.0,5.0,-3.0
1705334982.5399969,1.0,-6.0,11.0,-3.0,3.0,0.0,-4.0,-3.0
1705334982.5399969,-3.0,0.0,5.0,4.0,-3.0,-15.0,-6.0,-1.0
1705334982.5399969,-2.0,3.0,-17.0,-12.0,-4.0,-6.0,-8.0,0.0
1705334982.5399969,-1.0,-4.0,13.0,8.0,-2.0,3.0,2.0,-3.0
1705334982.559589,-1.0,0.0,3.0,8.0,-5.0,-1.0,5.0,-2.0
1705334982.559589,-2.0,-14.0,-12.0,-14.0,-5.0,-7.0,-1.0,2.0
1705334982.559589,1.0,-10.0,7.0,2.0,-1.0,1.0,-1.0,-1.0
1705334982.559589,1.0,3.0,-13.0,-9.0,-1.0,-11.0,-5.0,-3.0
1705334982.579554,-4.0,9.0,47.0,9.0,-4.0,2.0,-1.0,1.0
1705334982.579554,-5.0,-9.0,-21.0,-1.0,7.0,3.0,-2.0,-2.0
1705334982.589556,-3.0,-1.0,-68.0,-13.0,-1.0,-9.0,-9.0,0.0
1705334982.589556,0.0,1.0,11.0,-3.0,-5.0,-2.0,-3.0,-2.0
1705334982.6028693,1.0,-23.0,-10.0,0.0,-4.0,0.0,2.0,0.0
1705334982.6028693,6.0,9.0,26.0,-5.0,-8.0,-16.0,-11.0,-2.0
1705334982.6028693,-2.0,2.0,23.0,1.0,5.0,20.0,11.0,0.0
1705334982.6028693,0.0,-11.0,-9.0,12.0,9.0,5.0,6.0,1.0
1705334982.6234992,-2.0,6.0,5.0,1.0,7.0,6.0,2.0,-2.0
1705334982.6234992,-2.0,5.0,-17.0,-8.0,-2.0,-19.0,-10.0,-1.0
1705334982.6234992,2.0,-6.0,11.0,4.0,-6.0,-8.0,-6.0,-2.0
1705334982.6234992,-4.0,-1.0,-5.0,-5.0,-5.0,3.0,5.0,0.0
1705334982.6316342,-2.0,2.0,-20.0,2.0,0.0,5.0,1.0,-3.0
1705334982.6316342,-4.0,-7.0,20.0,-2.0,-7.0,-14.0,-2.0,-3.0
1705334982.6472194,1.0,11.0,3.0,2.0,-1.0,-6.0,-5.0,1.0
1705334982.6472194,4.0,-8.0,15.0,-2.0,14.0,18.0,3.0,2.0
1705334982.6573105,-8.0,-33.0,-45.0,-13.0,-5.0,-8.0,-7.0,-2.0
1705334982.6573105,2.0,6.0,-4.0,-7.0,-7.0,21.0,7.0,-1.0
1705334982.6653554,0.0,-3.0,24.0,8.0,7.0,-2.0,1.0,0.0
1705334982.6653554,0.0,-3.0,-12.0,7.0,-5.0,-10.0,-4.0,-2.0
1705334982.6857784,0.0,13.0,-11.0,-9.0,2.0,-1.0,-4.0,2.0
1705334982.6857784,-3.0,-2.0,-21.0,-2.0,-2.0,6.0,1.0,-6.0
1705334982.6857784,-2.0,-5.0,21.0,1.0,-4.0,-3.0,-3.0,3.0
1705334982.6857784,1.0,-8.0,-7.0,-5.0,-8.0,-3.0,-1.0,1.0
1705334982.6957126,-2.0,6.0,-2.0,-1.0,4.0,6.0,5.0,-2.0
1705334982.6957126,-2.0,1.0,-9.0,4.0,0.0,-1.0,3.0,-1.0
1705334982.7056677,-3.0,-6.0,4.0,-3.0,-1.0,-18.0,-13.0,-8.0
1705334982.7056677,-1.0,28.0,10.0,5.0,-1.0,4.0,0.0,-2.0
1705334982.7153218,3.0,-13.0,21.0,6.0,0.0,-1.0,4.0,2.0
1705334982.7153218,-4.0,3.0,12.0,-3.0,-4.0,6.0,3.0,-1.0
1705334982.7253196,-4.0,-16.0,-55.0,-13.0,-11.0,-11.0,-8.0,-2.0
1705334982.7253196,-3.0,1.0,-9.0,8.0,6.0,-5.0,0.0,-2.0
1705334982.7457767,1.0,-3.0,-6.0,-8.0,5.0,7.0,1.0,-1.0
1705334982.7457767,-1.0,5.0,-9.0,-3.0,-7.0,-17.0,-9.0,0.0
1705334982.7457767,-3.0,2.0,22.0,14.0,19.0,21.0,6.0,1.0
1705334982.7457767,-1.0,-4.0,14.0,-2.0,-11.0,-11.0,-6.0,-3.0
1705334982.755727,5.0,12.0,20.0,9.0,-6.0,-1.0,-1.0,0.0
1705334982.755727,-5.0,-7.0,-15.0,-6.0,3.0,-4.0,2.0,0.0
1705334982.765694,-5.0,15.0,-11.0,-6.0,-7.0,-6.0,-2.0,-1.0
1705334982.765694,-3.0,-2.0,-15.0,-2.0,-1.0,-4.0,-7.0,-3.0
1705334982.7753246,-3.0,-13.0,21.0,-3.0,-5.0,0.0,4.0,-2.0
1705334982.7753246,0.0,-2.0,-22.0,-3.0,-3.0,-12.0,-9.0,-1.0
1705334982.7853196,-1.0,-2.0,8.0,-2.0,-1.0,0.0,4.0,-1.0
1705334982.7853196,2.0,-21.0,11.0,1.0,4.0,5.0,4.0,-1.0
1705334982.8055909,-3.0,0.0,6.0,1.0,-1.0,0.0,-1.0,-1.0
1705334982.8055909,-3.0,8.0,4.0,-1.0,1.0,-4.0,-2.0,0.0
1705334982.8055909,0.0,4.0,4.0,-1.0,-2.0,-6.0,-1.0,-2.0
1705334982.8055909,-1.0,-4.0,-10.0,-2.0,-3.0,-4.0,-1.0,-1.0
1705334982.8253212,-1.0,-1.0,-3.0,-1.0,-5.0,-4.0,-3.0,2.0
1705334982.8253212,-2.0,-5.0,-1.0,-7.0,-1.0,-1.0,-2.0,-5.0
1705334982.8253212,1.0,12.0,21.0,4.0,-3.0,-4.0,-4.0,-1.0
1705334982.8253212,2.0,1.0,10.0,5.0,7.0,34.0,14.0,1.0
1705334982.8453264,-3.0,-2.0,-9.0,2.0,-4.0,-6.0,-11.0,-3.0
1705334982.8460662,-5.0,-12.0,-33.0,-12.0,-8.0,-1.0,5.0,-3.0
1705334982.8470626,0.0,-2.0,20.0,-18.0,-2.0,-2.0,2.0,-1.0
1705334982.8470626,0.0,-17.0,19.0,3.0,-6.0,-9.0,-4.0,0.0
1705334982.8672178,0.0,10.0,33.0,11.0,14.0,10.0,1.0,-2.0
1705334982.8682187,-1.0,16.0,-61.0,-5.0,2.0,-9.0,-6.0,1.0
1705334982.8692148,0.0,-9.0,5.0,10.0,3.0,11.0,5.0,-1.0
1705334982.8692148,-8.0,1.0,-19.0,-12.0,-14.0,-16.0,-6.0,-5.0
1705334982.8946342,0.0,-12.0,-19.0,-4.0,-7.0,-4.0,-1.0,1.0
1705334982.8946342,5.0,-3.0,51.0,15.0,1.0,-1.0,1.0,-3.0
1705334982.8946342,-4.0,3.0,-29.0,-5.0,-4.0,-3.0,0.0,-2.0
1705334982.8946342,-1.0,-13.0,11.0,-5.0,7.0,-1.0,-1.0,5.0
1705334982.8946342,1.0,-1.0,-15.0,0.0,0.0,-1.0,0.0,-2.0
1705334982.8946342,0.0,5.0,19.0,6.0,-4.0,0.0,-2.0,-1.0
1705334982.9150589,5.0,5.0,-4.0,12.0,11.0,-1.0,-2.0,-2.0
1705334982.9150589,-3.0,-2.0,-1.0,-13.0,-10.0,-9.0,-4.0,-4.0
1705334982.9250357,-7.0,5.0,-17.0,-17.0,-9.0,-7.0,-4.0,-2.0
1705334982.9250357,1.0,0.0,-12.0,-4.0,5.0,6.0,-2.0,0.0
1705334982.9250357,0.0,-9.0,22.0,11.0,-1.0,-5.0,-2.0,-1.0
1705334982.9250357,0.0,17.0,20.0,13.0,13.0,24.0,11.0,1.0
1705334982.9446335,-1.0,2.0,-57.0,-8.0,-1.0,-2.0,0.0,-2.0
1705334982.9446335,-6.0,5.0,25.0,-5.0,-5.0,-1.0,-1.0,-2.0
1705334982.9446335,1.0,4.0,-8.0,-4.0,-6.0,-4.0,-5.0,4.0
1705334982.9446335,-1.0,-10.0,-6.0,-3.0,-2.0,-4.0,-6.0,-1.0
1705334982.954633,-3.0,3.0,24.0,6.0,-6.0,-2.0,1.0,-3.0
1705334982.954633,0.0,-3.0,29.0,9.0,2.0,4.0,3.0,0.0
1705334982.9646358,-1.0,8.0,-44.0,-25.0,-9.0,-31.0,-29.0,-3.0
1705334982.9646358,2.0,9.0,37.0,8.0,11.0,52.0,31.0,5.0
1705334982.9849782,0.0,-10.0,-18.0,-1.0,-4.0,14.0,9.0,3.0
1705334982.9849782,-1.0,-2.0,-40.0,-2.0,19.0,0.0,2.0,0.0
1705334982.9849782,-3.0,-2.0,53.0,8.0,-4.0,0.0,-1.0,-2.0
1705334982.9849782,-1.0,6.0,-16.0,-6.0,-6.0,-21.0,-13.0,-3.0
1705334983.0146348,-2.0,3.0,-8.0,-7.0,-12.0,-12.0,-6.0,-4.0
1705334983.0146348,-1.0,5.0,20.0,10.0,-3.0,-1.0,-4.0,0.0
1705334983.0146348,-1.0,0.0,-16.0,-2.0,3.0,24.0,10.0,-1.0
1705334983.0146348,-3.0,4.0,-12.0,-6.0,1.0,-17.0,-9.0,-2.0
1705334983.0146348,-1.0,-5.0,7.0,-1.0,-2.0,6.0,4.0,0.0
1705334983.0146348,5.0,6.0,13.0,-3.0,-6.0,-11.0,-2.0,0.0
1705334983.0246675,-12.0,-3.0,-20.0,4.0,5.0,3.0,3.0,-1.0
1705334983.0246675,-2.0,-1.0,-16.0,-4.0,-7.0,-12.0,-6.0,-3.0
1705334983.0546358,4.0,12.0,11.0,-2.0,5.0,8.0,-4.0,-1.0
1705334983.0546358,0.0,-4.0,23.0,-3.0,-7.0,10.0,7.0,2.0
1705334983.0546358,1.0,-3.0,-48.0,-8.0,-6.0,-1.0,1.0,-1.0
1705334983.0546358,-3.0,-7.0,6.0,9.0,3.0,-7.0,-4.0,0.0
1705334983.0648637,-3.0,0.0,-30.0,-15.0,5.0,-4.0,-3.0,-2.0
1705334983.0648637,0.0,12.0,46.0,12.0,4.0,-4.0,-3.0,-1.0
1705334983.0648637,0.0,-7.0,0.0,-17.0,-9.0,-3.0,4.0,0.0
1705334983.0648637,-3.0,-5.0,-18.0,9.0,-12.0,-18.0,-7.0,-2.0
1705334983.0748994,-1.0,-1.0,13.0,-5.0,2.0,-1.0,-3.0,-3.0
1705334983.0748994,0.0,-18.0,-21.0,9.0,12.0,13.0,5.0,1.0
1705334983.0846403,0.0,-2.0,23.0,5.0,-3.0,-3.0,1.0,0.0
1705334983.0846403,-6.0,10.0,-19.0,-13.0,-10.0,-11.0,-7.0,-5.0
1705334983.1049416,0.0,-11.0,9.0,-2.0,-11.0,-8.0,-1.0,1.0
1705334983.1049416,-2.0,0.0,-21.0,-6.0,0.0,-2.0,-6.0,-1.0
1705334983.1049416,2.0,-6.0,2.0,6.0,3.0,-1.0,-2.0,-1.0
1705334983.1049416,1.0,-4.0,-1.0,-13.0,-10.0,-4.0,2.0,-2.0
1705334983.1346338,-5.0,1.0,2.0,4.0,5.0,7.0,5.0,0.0
1705334983.1346338,-3.0,-10.0,-8.0,-13.0,-10.0,-8.0,-3.0,-3.0
1705334983.1346338,1.0,-5.0,0.0,13.0,12.0,12.0,3.0,-2.0
1705334983.1346338,1.0,-5.0,4.0,5.0,7.0,-3.0,2.0,-2.0
1705334983.1346338,-1.0,-3.0,22.0,3.0,-2.0,-8.0,-1.0,-1.0
1705334983.1346338,-1.0,-9.0,-63.0,-8.0,-7.0,-11.0,-7.0,0.0
1705334983.1446607,-3.0,4.0,42.0,-1.0,-13.0,-10.0,-6.0,-1.0
1705334983.1446607,2.0,-4.0,-18.0,-3.0,8.0,4.0,-1.0,-2.0
1705334983.1646338,-4.0,-13.0,1.0,-8.0,-1.0,-10.0,-7.0,-2.0
1705334983.1646338,-2.0,1.0,18.0,5.0,-1.0,-1.0,0.0,1.0
1705334983.1646338,1.0,-22.0,-21.0,-3.0,-6.0,1.0,5.0,0.0
1705334983.1646338,-2.0,16.0,14.0,-5.0,-5.0,3.0,-1.0,0.0
1705334983.1850557,1.0,-3.0,11.0,10.0,8.0,3.0,2.0,0.0
1705334983.1850557,1.0,2.0,38.0,11.0,7.0,1.0,0.0,-2.0
1705334983.1850557,-3.0,-14.0,-34.0,-14.0,-11.0,-3.0,-1.0,-2.0
1705334983.1850557,-1.0,-10.0,-12.0,-7.0,-2.0,-6.0,-2.0,0.0
1705334983.1950066,-4.0,7.0,-36.0,16.0,2.0,-4.0,-4.0,-2.0
1705334983.1950066,0.0,-15.0,-13.0,-23.0,1.0,6.0,-1.0,0.0
1705334983.2049372,2.0,8.0,27.0,3.0,2.0,0.0,-2.0,1.0
1705334983.2049372,-2.0,2.0,16.0,-2.0,-2.0,-1.0,-5.0,-3.0
1705334983.224632,-2.0,5.0,-23.0,-5.0,-12.0,-4.0,-2.0,0.0
1705334983.224632,-4.0,-12.0,29.0,11.0,2.0,3.0,2.0,-3.0
1705334983.224632,4.0,-7.0,1.0,-8.0,7.0,2.0,0.0,0.0
1705334983.224632,0.0,-11.0,-15.0,-5.0,-3.0,-1.0,0.0,0.0
1705334983.2449646,0.0,1.0,15.0,-6.0,-2.0,-2.0,-1.0,-3.0
1705334983.2449646,1.0,6.0,-15.0,3.0,-1.0,3.0,1.0,-1.0
1705334983.2449646,-1.0,10.0,26.0,10.0,-1.0,-6.0,-1.0,-2.0
1705334983.2449646,-2.0,3.0,-15.0,3.0,-3.0,-3.0,-3.0,-1.0
1705334983.2548826,0.0,-3.0,6.0,1.0,2.0,4.0,1.0,1.0
1705334983.2548826,-5.0,3.0,-67.0,-16.0,-1.0,-2.0,-1.0,0.0
1705334983.284641,-1.0,16.0,18.0,-2.0,-4.0,0.0,0.0,1.0
1705334983.284641,-2.0,0.0,41.0,6.0,14.0,2.0,-5.0,-3.0
1705334983.284641,-2.0,-8.0,4.0,-2.0,-8.0,-2.0,0.0,-2.0
1705334983.284641,2.0,10.0,8.0,4.0,-6.0,-3.0,-1.0,-1.0
1705334983.284641,2.0,-2.0,-10.0,5.0,-1.0,0.0,-1.0,-3.0
1705334983.284641,-4.0,-8.0,-11.0,-5.0,-1.0,0.0,0.0,-1.0
1705334983.305025,0.0,14.0,13.0,-8.0,3.0,-1.0,-2.0,-1.0
1705334983.305025,1.0,-7.0,2.0,10.0,-3.0,-2.0,-2.0,-2.0
1705334983.305025,-3.0,-8.0,0.0,-6.0,-13.0,-1.0,1.0,-2.0
1705334983.305025,1.0,13.0,-4.0,1.0,9.0,0.0,0.0,0.0
1705334983.3150167,-1.0,-7.0,1.0,8.0,9.0,-4.0,-1.0,0.0
1705334983.3150167,1.0,20.0,-11.0,2.0,-1.0,3.0,1.0,0.0
1705334983.3249433,-6.0,6.0,4.0,-1.0,3.0,-1.0,-2.0,-2.0
1705334983.3249433,0.0,-5.0,-16.0,-3.0,-13.0,-2.0,0.0,-1.0
1705334983.344666,-3.0,-19.0,-11.0,-14.0,-4.0,1.0,2.0,-1.0
1705334983.344666,1.0,9.0,44.0,0.0,0.0,-4.0,0.0,-1.0
1705334983.344666,-3.0,-2.0,-27.0,6.0,-2.0,-2.0,-2.0,-2.0
1705334983.344666,0.0,-9.0,-5.0,-7.0,-11.0,-6.0,-7.0,-2.0
1705334983.3697205,-2.0,7.0,-4.0,-8.0,-2.0,-25.0,-17.0,-3.0
1705334983.370743,0.0,-16.0,-7.0,0.0,2.0,13.0,8.0,1.0
1705334983.3717365,1.0,-5.0,2.0,4.0,6.0,-6.0,4.0,0.0
1705334983.3717365,-4.0,-5.0,-11.0,3.0,0.0,2.0,4.0,-2.0
1705334983.3830886,4.0,12.0,5.0,-7.0,-4.0,-5.0,0.0,1.0
1705334983.3830886,-5.0,10.0,-8.0,-10.0,-14.0,-14.0,-11.0,-5.0
1705334983.410689,-3.0,5.0,30.0,9.0,1.0,1.0,0.0,-1.0
1705334983.410689,1.0,-8.0,-17.0,1.0,6.0,-2.0,-2.0,0.0
1705334983.410689,-1.0,3.0,9.0,-1.0,-4.0,-2.0,-1.0,-1.0
1705334983.410689,-3.0,2.0,-12.0,-8.0,-4.0,-2.0,0.0,1.0
1705334983.410689,2.0,1.0,-3.0,-11.0,3.0,1.0,-2.0,-2.0
1705334983.410689,0.0,-15.0,13.0,7.0,5.0,6.0,-1.0,-1.0
1705334983.421021,0.0,1.0,20.0,-6.0,4.0,15.0,7.0,0.0
1705334983.421021,-3.0,4.0,-32.0,15.0,5.0,-1.0,-2.0,-1.0
1705334983.431043,1.0,7.0,7.0,9.0,0.0,3.0,0.0,0.0
1705334983.431043,0.0,-2.0,-5.0,3.0,-6.0,-3.0,-1.0,-1.0
1705334983.441316,-3.0,14.0,9.0,-5.0,-4.0,0.0,0.0,-4.0
1705334983.441316,-2.0,0.0,25.0,-7.0,-12.0,-9.0,-3.0,-1.0
1705334983.4610376,-2.0,-4.0,-15.0,4.0,13.0,4.0,-1.0,0.0
1705334983.4610376,3.0,-19.0,-44.0,-8.0,4.0,-1.0,1.0,3.0
1705334983.4610376,-2.0,6.0,0.0,3.0,-1.0,2.0,1.0,-1.0
1705334983.4610376,-3.0,-6.0,15.0,-5.0,-4.0,-5.0,-5.0,-3.0
1705334983.4610376,-4.0,8.0,-26.0,-8.0,-8.0,3.0,3.0,-4.0
1705334983.4610376,-2.0,-4.0,9.0,-4.0,-6.0,2.0,1.0,0.0
1705334983.481453,-3.0,-1.0,-27.0,13.0,14.0,4.0,1.0,0.0
1705334983.481453,0.0,-10.0,29.0,5.0,4.0,-1.0,-2.0,0.0
1705334983.4910405,1.0,-17.0,10.0,4.0,-2.0,-1.0,-1.0,-1.0
1705334983.4910405,-4.0,10.0,24.0,-5.0,-7.0,-3.0,-1.0,-3.0
1705334983.5010371,-3.0,-10.0,-54.0,-12.0,-9.0,-2.0,-2.0,-2.0
1705334983.5010371,-1.0,-7.0,-5.0,0.0,8.0,5.0,2.0,-1.0
1705334983.5109394,1.0,-9.0,8.0,3.0,-1.0,1.0,-1.0,-1.0
1705334983.5109394,0.0,7.0,-2.0,-8.0,2.0,-6.0,-3.0,0.0
1705334983.5213578,0.0,-5.0,-1.0,-6.0,0.0,-1.0,-2.0,-2.0
1705334983.5213578,-2.0,-8.0,21.0,11.0,-1.0,10.0,5.0,-1.0
1705334983.5213578,0.0,-11.0,-11.0,-3.0,0.0,2.0,2.0,1.0
1705334983.5213578,-3.0,-5.0,12.0,-8.0,-8.0,-5.0,-5.0,-4.0
1705334983.5413783,-3.0,17.0,-6.0,3.0,-4.0,-5.0,-5.0,0.0
1705334983.5413783,2.0,-14.0,-19.0,-8.0,2.0,-3.0,-4.0,-1.0
1705334983.5509548,-2.0,14.0,5.0,5.0,2.0,-1.0,-3.0,0.0
1705334983.5509548,-4.0,-8.0,-16.0,-16.0,-6.0,-4.0,-4.0,-2.0
1705334983.5609493,3.0,-13.0,15.0,-2.0,-2.0,1.0,2.0,2.0
1705334983.5609493,0.0,-10.0,24.0,-19.0,-7.0,-8.0,-4.0,-1.0
1705334983.5712547,-1.0,-17.0,-25.0,5.0,3.0,5.0,3.0,-1.0
1705334983.5712547,2.0,-1.0,4.0,8.0,5.0,-2.0,0.0,1.0
1705334983.5813472,-4.0,-4.0,-4.0,6.0,-4.0,0.0,-1.0,-1.0
1705334983.5813472,2.0,19.0,18.0,-6.0,0.0,2.0,1.0,1.0
1705334983.5912929,-5.0,5.0,25.0,-9.0,-6.0,-9.0,-8.0,-3.0
1705334983.5912929,0.0,-6.0,-54.0,9.0,2.0,4.0,3.0,0.0
1705334983.6109493,1.0,-6.0,14.0,12.0,2.0,1.0,2.0,-2.0
1705334983.6109493,0.0,-6.0,-23.0,-5.0,-6.0,-5.0,-2.0,1.0
1705334983.6109493,-3.0,-7.0,11.0,-16.0,1.0,-1.0,-2.0,-2.0
1705334983.6109493,-2.0,11.0,4.0,4.0,-1.0,3.0,-1.0,-3.0
1705334983.6212878,0.0,-4.0,0.0,3.0,-2.0,-16.0,-17.0,-1.0
1705334983.6212878,-3.0,7.0,-51.0,-2.0,9.0,5.0,9.0,-2.0
1705334983.6313257,1.0,4.0,11.0,-2.0,-5.0,-6.0,1.0,0.0
1705334983.6313257,2.0,-7.0,36.0,2.0,-1.0,8.0,3.0,0.0
1705334983.6413453,-3.0,12.0,-11.0,-6.0,-1.0,16.0,9.0,1.0
1705334983.6413453,-1.0,3.0,19.0,5.0,-5.0,-14.0,-8.0,-4.0
1705334983.6512523,-1.0,3.0,-9.0,3.0,-2.0,0.0,-1.0,0.0
1705334983.6512523,-1.0,11.0,10.0,0.0,0.0,-8.0,-5.0,-1.0
1705334983.6609511,-1.0,-14.0,-19.0,-3.0,-2.0,-7.0,-2.0,-2.0
1705334983.6609511,-3.0,1.0,2.0,1.0,-2.0,2.0,-1.0,-2.0
1705334983.670965,-2.0,0.0,-56.0,-9.0,-4.0,-4.0,-3.0,-2.0
1705334983.670965,-1.0,-3.0,23.0,-5.0,-3.0,-3.0,1.0,0.0
1705334983.681326,1.0,-1.0,1.0,-6.0,3.0,2.0,-1.0,-1.0
1705334983.681326,-2.0,13.0,8.0,6.0,0.0,5.0,1.0,-1.0
1705334983.6913316,-1.0,-4.0,21.0,4.0,-7.0,-4.0,-4.0,-1.0
1705334983.6913316,2.0,18.0,9.0,-8.0,0.0,4.0,1.0,1.0
1705334983.7011387,-1.0,-6.0,2.0,-5.0,-11.0,7.0,6.0,0.0
1705334983.7011387,0.0,24.0,-40.0,23.0,25.0,1.0,-2.0,0.0
1705334983.7209487,1.0,6.0,-6.0,1.0,-4.0,-7.0,-5.0,0.0
1705334983.7209487,0.0,1.0,0.0,7.0,-6.0,-1.0,-2.0,-2.0
1705334983.7209487,2.0,-14.0,12.0,-8.0,-4.0,0.0,1.0,0.0
1705334983.7209487,-3.0,-12.0,-2.0,-9.0,-9.0,0.0,0.0,-1.0
1705334983.7309523,-3.0,4.0,19.0,-1.0,0.0,-1.0,-1.0,-2.0
1705334983.7309523,0.0,-13.0,-11.0,-2.0,1.0,2.0,0.0,-1.0
1705334983.751342,2.0,3.0,16.0,1.0,3.0,0.0,1.0,0.0
1705334983.751342,-3.0,-15.0,-13.0,-4.0,-4.0,-3.0,-2.0,-4.0
1705334983.751342,2.0,1.0,-4.0,-2.0,3.0,-2.0,0.0,0.0
1705334983.751342,-3.0,-1.0,4.0,-2.0,-1.0,2.0,-1.0,-1.0
1705334983.7612906,-2.0,-1.0,19.0,5.0,3.0,-3.0,-1.0,-1.0
1705334983.7612906,0.0,1.0,-9.0,-5.0,-3.0,-5.0,-4.0,0.0
1705334983.771264,1.0,-3.0,50.0,2.0,-3.0,0.0,0.0,1.0
1705334983.771264,3.0,11.0,-31.0,8.0,6.0,-1.0,0.0,-2.0
1705334983.7812357,-9.0,-10.0,-36.0,-20.0,-16.0,-9.0,-7.0,-5.0
1705334983.7812357,-3.0,-7.0,26.0,-15.0,-3.0,-2.0,-4.0,-1.0
1705334983.7909482,-2.0,-5.0,2.0,17.0,4.0,5.0,2.0,-2.0
1705334983.7909482,0.0,28.0,-10.0,-9.0,-3.0,-4.0,-1.0,1.0
1705334983.811325,4.0,-26.0,4.0,3.0,-1.0,3.0,2.0,1.0
1705334983.811325,0.0,36.0,26.0,13.0,1.0,-1.0,0.0,-3.0
1705334983.811325,-2.0,-17.0,-55.0,-9.0,-5.0,-2.0,-4.0,-2.0
1705334983.811325,-5.0,-20.0,-14.0,-10.0,-5.0,-3.0,-3.0,-2.0
1705334983.821311,-2.0,10.0,-19.0,-1.0,0.0,-2.0,-4.0,-2.0
1705334983.821311,2.0,-18.0,26.0,1.0,-4.0,2.0,-1.0,2.0
1705334983.831297,1.0,6.0,26.0,6.0,1.0,2.0,2.0,-1.0
1705334983.831297,-3.0,6.0,0.0,10.0,5.0,2.0,0.0,-3.0
1705334983.8413324,-2.0,-9.0,-5.0,-11.0,-4.0,1.0,2.0,0.0
1705334983.8413324,-1.0,-3.0,4.0,0.0,-1.0,-3.0,0.0,-2.0
1705334983.8509572,-3.0,17.0,-27.0,-3.0,4.0,0.0,-1.0,-2.0
1705334983.8509572,0.0,-14.0,9.0,-3.0,-7.0,-5.0,-3.0,-2.0
1705334983.8713286,-4.0,16.0,9.0,2.0,1.0,3.0,0.0,-2.0
1705334983.8713286,-1.0,-8.0,-29.0,-1.0,5.0,3.0,1.0,0.0
1705334983.8713286,0.0,0.0,13.0,1.0,-6.0,-8.0,-8.0,0.0
1705334983.8713286,-1.0,-25.0,-11.0,-9.0,-2.0,1.0,5.0,0.0
1705334983.8812737,0.0,1.0,9.0,7.0,13.0,-4.0,-6.0,-3.0
1705334983.8812737,0.0,6.0,-22.0,-12.0,-8.0,-6.0,-5.0,0.0
1705334983.8912723,-2.0,-1.0,19.0,-8.0,-4.0,5.0,1.0,-1.0
1705334983.8912723,1.0,-35.0,-12.0,15.0,3.0,-10.0,-8.0,2.0
1705334983.9092224,1.0,21.0,-21.0,2.0,-1.0,13.0,13.0,0.0
1705334983.9092224,-3.0,6.0,-14.0,-16.0,-6.0,-1.0,2.0,0.0
1705334983.9110682,-1.0,-10.0,39.0,3.0,-4.0,-4.0,-2.0,-1.0
1705334983.9110682,-1.0,6.0,18.0,3.0,-1.0,3.0,0.0,-1.0
1705334983.9236631,2.0,6.0,12.0,13.0,7.0,4.0,-1.0,-1.0
1705334983.9236631,-4.0,6.0,18.0,-5.0,-9.0,-3.0,-3.0,-3.0
1705334983.9337177,-4.0,0.0,-47.0,-14.0,-2.0,-12.0,-10.0,-3.0
1705334983.9337177,-2.0,1.0,17.0,2.0,-3.0,-1.0,2.0,0.0
1705334983.9436638,-1.0,-21.0,-52.0,0.0,4.0,13.0,0.0,1.0
1705334983.9436638,0.0,-10.0,13.0,2.0,-5.0,-14.0,-12.0,-1.0
1705334983.963716,3.0,2.0,22.0,5.0,18.0,50.0,29.0,4.0
1705334983.963716,-1.0,-7.0,4.0,11.0,-4.0,-26.0,-13.0,-3.0
1705334983.9740183,-1.0,6.0,16.0,-24.0,-16.0,-3.0,-7.0,-1.0
1705334983.9740183,0.0,2.0,-9.0,5.0,14.0,35.0,19.0,3.0
1705334983.9740183,1.0,-31.0,-22.0,-17.0,-15.0,-37.0,-13.0,-2.0
1705334983.9740183,2.0,0.0,18.0,-5.0,1.0,4.0,0.0,1.0
1705334983.9840553,0.0,1.0,27.0,13.0,7.0,-10.0,-8.0,1.0
1705334983.9840553,-1.0,15.0,-31.0,-1.0,-3.0,-17.0,-11.0,-2.0
1705334983.9937315,-5.0,25.0,19.0,-5.0,-7.0,-5.0,0.0,-3.0
1705334983.9937315,-3.0,11.0,12.0,-1.0,2.0,28.0,8.0,-2.0
1705334984.012292,-2.0,-1.0,19.0,13.0,2.0,-19.0,-5.0,-2.0
1705334984.012292,-2.0,-21.0,-17.0,-1.0,4.0,2.0,4.0,-2.0
1705334984.012292,0.0,-8.0,-32.0,-1.0,0.0,-3.0,-1.0,1.0
1705334984.012292,0.0,-1.0,13.0,-2.0,-5.0,-3.0,-1.0,0.0
1705334984.022648,0.0,-10.0,18.0,-1.0,-4.0,-7.0,-4.0,0.0
1705334984.022648,0.0,-13.0,-33.0,-12.0,-6.0,-3.0,0.0,-1.0
1705334984.022648,-1.0,0.0,-29.0,-7.0,-3.0,-3.0,-6.0,-1.0
1705334984.022648,-1.0,10.0,13.0,-1.0,-2.0,-7.0,-3.0,-1.0
1705334984.0523036,1.0,-1.0,-3.0,-2.0,0.0,1.0,2.0,0.0
1705334984.0523036,-4.0,5.0,10.0,3.0,1.0,-2.0,0.0,-2.0
1705334984.0523036,-1.0,1.0,-20.0,3.0,10.0,-1.0,-6.0,-2.0
1705334984.0523036,-3.0,0.0,-18.0,-11.0,-1.0,4.0,5.0,-1.0
1705334984.0723014,-2.0,4.0,-3.0,-2.0,-1.0,-5.0,-4.0,-3.0
1705334984.0723014,2.0,-4.0,37.0,9.0,1.0,32.0,13.0,1.0
1705334984.0723014,-3.0,3.0,-10.0,-10.0,-8.0,-8.0,-3.0,-2.0
1705334984.0723014,0.0,-9.0,17.0,9.0,3.0,-2.0,0.0,0.0
1705334984.0825148,-1.0,0.0,0.0,-2.0,-3.0,-10.0,-3.0,-2.0
1705334984.0825148,-5.0,-12.0,-30.0,-11.0,-4.0,-12.0,-8.0,-3.0
1705334984.0825148,0.0,1.0,7.0,2.0,3.0,5.0,4.0,0.0
1705334984.0825148,0.0,-4.0,-8.0,-2.0,2.0,-4.0,-2.0,0.0
1705334984.1123252,-1.0,1.0,3.0,-1.0,-10.0,-5.0,-2.0,-3.0
1705334984.1123252,2.0,-1.0,3.0,6.0,0.0,-12.0,-11.0,-2.0
1705334984.1123252,-2.0,1.0,8.0,-1.0,-3.0,15.0,12.0,1.0
1705334984.1123252,-5.0,5.0,-13.0,-20.0,-3.0,-11.0,-5.0,-3.0
1705334984.1423,-1.0,1.0,-3.0,0.0,-3.0,1.0,1.0,1.0
1705334984.1423,-1.0,10.0,11.0,4.0,5.0,2.0,0.0,-1.0
1705334984.1423,-1.0,4.0,10.0,3.0,-2.0,-2.0,-4.0,0.0
1705334984.1423,-1.0,9.0,0.0,13.0,2.0,3.0,1.0,-1.0
1705334984.1423,-1.0,2.0,-35.0,-2.0,4.0,8.0,5.0,-1.0
1705334984.1423,-1.0,10.0,-26.0,2.0,-8.0,-8.0,-4.0,-4.0
1705334984.1423,-2.0,16.0,11.0,1.0,-2.0,-6.0,-6.0,-2.0
1705334984.1423,-3.0,0.0,18.0,-6.0,-4.0,1.0,-1.0,-3.0
1705334984.1824,-1.0,8.0,26.0,4.0,1.0,0.0,2.0,1.0
1705334984.1824,-1.0,-5.0,1.0,4.0,-3.0,-1.0,1.0,-1.0
1705334984.1824,-1.0,-1.0,0.0,10.0,6.0,7.0,6.0,0.0
1705334984.1824,-6.0,1.0,-109.0,-12.0,0.0,1.0,0.0,-3.0
1705334984.1824,0.0,-2.0,16.0,-7.0,0.0,0.0,-2.0,1.0
1705334984.1824,1.0,1.0,23.0,-2.0,1.0,-2.0,-2.0,0.0
1705334984.1924212,-2.0,-11.0,-17.0,1.0,-3.0,-4.0,-3.0,-2.0
1705334984.1924212,-2.0,2.0,31.0,6.0,0.0,2.0,-1.0,0.0
1705334984.2028246,-2.0,-13.0,-18.0,-3.0,-2.0,-2.0,0.0,-1.0
1705334984.2028246,1.0,-1.0,-12.0,-7.0,-3.0,-6.0,-2.0,0.0
1705334984.2028246,0.0,-14.0,11.0,1.0,1.0,-3.0,-1.0,0.0
1705334984.2028246,-1.0,-4.0,8.0,5.0,0.0,-4.0,-4.0,2.0
1705334984.232678,-2.0,3.0,15.0,-2.0,2.0,2.0,-1.0,-1.0
1705334984.232678,1.0,-7.0,35.0,-3.0,-2.0,-1.0,0.0,0.0
1705334984.232678,-5.0,-1.0,-62.0,-11.0,0.0,-1.0,-4.0,-2.0
1705334984.232678,0.0,11.0,16.0,-9.0,-3.0,-2.0,-2.0,-1.0
1705334984.242676,2.0,-8.0,-15.0,9.0,1.0,1.0,-1.0,0.0
1705334984.242676,-3.0,-1.0,-6.0,-1.0,-2.0,-6.0,-4.0,-3.0
1705334984.2529645,-1.0,4.0,2.0,-29.0,-16.0,2.0,5.0,-1.0
1705334984.2529645,-1.0,-8.0,-1.0,11.0,12.0,6.0,3.0,-3.0
1705334984.2629838,0.0,-2.0,6.0,15.0,8.0,-5.0,-8.0,0.0
1705334984.2629838,0.0,2.0,12.0,3.0,-3.0,-10.0,-8.0,-4.0
1705334984.2629838,-1.0,2.0,8.0,1.0,-3.0,10.0,9.0,2.0
1705334984.2629838,2.0,-2.0,9.0,0.0,-7.0,-8.0,-4.0,0.0
1705334984.3126762,-1.0,3.0,-12.0,-21.0,-6.0,1.0,6.0,-3.0
1705334984.3126762,-2.0,1.0,-7.0,-1.0,1.0,-1.0,-3.0,0.0
1705334984.3126762,-1.0,2.0,10.0,3.0,-5.0,-18.0,-13.0,-3.0
1705334984.3126762,0.0,2.0,4.0,4.0,7.0,10.0,3.0,2.0
1705334984.3126762,-2.0,-14.0,11.0,3.0,-2.0,-8.0,-5.0,-2.0
1705334984.3126762,-3.0,-5.0,-8.0,-2.0,-5.0,-6.0,-4.0,-1.0
1705334984.3126762,-1.0,4.0,29.0,8.0,1.0,5.0,-4.0,-4.0
1705334984.3126762,1.0,-11.0,-42.0,-6.0,-6.0,-2.0,0.0,-1.0
1705334984.3229423,-4.0,12.0,-12.0,-3.0,-6.0,-4.0,-1.0,-1.0
1705334984.3229423,-1.0,2.0,1.0,-5.0,1.0,12.0,6.0,-1.0
1705334984.3229423,1.0,-2.0,-9.0,-2.0,5.0,3.0,2.0,0.0
1705334984.3229423,0.0,1.0,16.0,3.0,-5.0,-5.0,-5.0,0.0
1705334984.342678,0.0,-5.0,3.0,3.0,1.0,0.0,-1.0,-1.0
1705334984.342678,1.0,0.0,-24.0,-1.0,1.0,3.0,0.0,0.0
1705334984.3528612,0.0,11.0,10.0,3.0,-1.0,-8.0,-6.0,-1.0
1705334984.3528612,-4.0,-14.0,10.0,-5.0,-2.0,-5.0,-3.0,-4.0
1705334984.363134,1.0,-8.0,-7.0,-3.0,1.0,8.0,4.0,-1.0
1705334984.363134,-2.0,0.0,-6.0,-5.0,-2.0,-4.0,-2.0,0.0
1705334984.373515,1.0,-10.0,-9.0,-7.0,-2.0,-1.0,-1.0,1.0
1705334984.373515,0.0,4.0,0.0,0.0,0.0,2.0,0.0,0.0
1705334984.3835459,1.0,4.0,18.0,5.0,2.0,2.0,0.0,-2.0
1705334984.3835459,-1.0,3.0,42.0,8.0,-1.0,-1.0,0.0,0.0
1705334984.3835459,-4.0,-6.0,-48.0,-3.0,-2.0,-9.0,-8.0,-3.0
1705334984.3835459,0.0,0.0,7.0,-8.0,-5.0,-3.0,0.0,0.0
1705334984.4126532,0.0,-2.0,-9.0,-2.0,0.0,13.0,9.0,1.0
1705334984.4126532,-2.0,10.0,10.0,2.0,0.0,-1.0,0.0,1.0
1705334984.4126532,0.0,-7.0,14.0,11.0,-1.0,-5.0,0.0,2.0
1705334984.4126532,0.0,5.0,14.0,4.0,0.0,11.0,1.0,-2.0
1705334984.423056,-2.0,9.0,23.0,-3.0,-6.0,-18.0,-14.0,-3.0
1705334984.423056,-2.0,-12.0,-31.0,-9.0,3.0,20.0,11.0,0.0
1705334984.4347022,1.0,-7.0,9.0,-2.0,4.0,-2.0,1.0,1.0
1705334984.4347022,-1.0,-4.0,-24.0,-2.0,-4.0,-6.0,-3.0,-3.0
1705334984.4490783,-1.0,9.0,9.0,1.0,-3.0,1.0,0.0,-1.0
1705334984.4490783,-1.0,2.0,14.0,4.0,-1.0,-4.0,-2.0,-2.0
1705334984.4582262,-1.0,-2.0,-13.0,-8.0,-2.0,-4.0,-2.0,0.0
1705334984.4582262,-1.0,-2.0,-6.0,-1.0,-2.0,-2.0,1.0,-1.0
1705334984.4682512,-3.0,-1.0,1.0,-5.0,-11.0,-2.0,-3.0,-3.0
1705334984.4682512,-1.0,5.0,-7.0,-7.0,-4.0,-9.0,-5.0,-2.0
1705334984.4682512,-2.0,-9.0,-8.0,5.0,16.0,13.0,3.0,-1.0
1705334984.4682512,3.0,-8.0,28.0,14.0,9.0,-2.0,-7.0,2.0
1705334984.47852,1.0,0.0,12.0,7.0,4.0,13.0,8.0,3.0
1705334984.47852,-1.0,1.0,-12.0,-18.0,-11.0,-19.0,-16.0,-1.0
1705334984.4887428,-2.0,9.0,3.0,-7.0,-8.0,14.0,8.0,-1.0
1705334984.4887428,-5.0,-1.0,3.0,-5.0,-10.0,-10.0,-3.0,-3.0
1705334984.5085368,-1.0,-5.0,1.0,4.0,7.0,23.0,5.0,0.0
1705334984.5085368,0.0,-2.0,-12.0,4.0,7.0,35.0,19.0,1.0
1705334984.5085368,-1.0,4.0,12.0,3.0,0.0,-7.0,-3.0,-1.0
1705334984.5085368,0.0,1.0,-15.0,-9.0,-2.0,-7.0,-5.0,0.0
1705334984.5289874,-2.0,8.0,13.0,-1.0,-6.0,-19.0,-11.0,-3.0
1705334984.5289874,-2.0,4.0,10.0,-1.0,-1.0,8.0,-2.0,-1.0
1705334984.5289874,-1.0,-3.0,8.0,3.0,-3.0,-5.0,-6.0,-1.0
1705334984.5289874,-3.0,-8.0,-12.0,-2.0,-1.0,-1.0,5.0,-2.0
1705334984.5389156,-2.0,-8.0,-27.0,-6.0,-4.0,-9.0,-3.0,-2.0
1705334984.5389156,-1.0,-11.0,-9.0,1.0,-1.0,-10.0,-4.0,-1.0
1705334984.5488873,0.0,-2.0,7.0,6.0,3.0,8.0,5.0,0.0
1705334984.5488873,-1.0,0.0,0.0,-6.0,1.0,3.0,4.0,1.0
1705334984.5685349,1.0,-9.0,-10.0,-6.0,2.0,-4.0,-2.0,-1.0
1705334984.5685349,0.0,3.0,-1.0,5.0,0.0,-21.0,-10.0,-2.0
1705334984.578568,-1.0,4.0,15.0,8.0,-3.0,-3.0,-4.0,-4.0
1705334984.578568,0.0,2.0,11.0,-9.0,-2.0,36.0,12.0,-1.0
1705334984.5985436,-2.0,-1.0,-5.0,-2.0,1.0,-12.0,1.0,-1.0
1705334984.5985436,-2.0,-6.0,1.0,10.0,4.0,-1.0,-2.0,0.0
1705334984.5985436,-2.0,-4.0,3.0,-14.0,-4.0,-3.0,-4.0,0.0
1705334984.5985436,1.0,-1.0,-4.0,2.0,1.0,-4.0,-4.0,1.0
1705334984.5985436,-3.0,-4.0,-11.0,-3.0,-7.0,-7.0,-4.0,-4.0
1705334984.5985436,0.0,1.0,7.0,1.0,-4.0,-5.0,-2.0,-1.0
1705334984.6087837,1.0,-5.0,-2.0,3.0,7.0,-2.0,4.0,0.0
1705334984.6087837,-3.0,-6.0,1.0,5.0,-1.0,-10.0,-11.0,-3.0
1705334984.6385324,0.0,1.0,-13.0,-4.0,-3.0,-7.0,-2.0,0.0
1705334984.6385324,-2.0,-3.0,7.0,-2.0,1.0,-9.0,4.0,-4.0
1705334984.6385324,1.0,0.0,-5.0,-3.0,0.0,26.0,5.0,-1.0
1705334984.6385324,-1.0,2.0,1.0,-1.0,-1.0,-1.0,0.0,7.0
1705334984.6488144,-4.0,8.0,19.0,3.0,1.0,3.0,1.0,-14.0
1705334984.6488144,0.0,0.0,-54.0,-7.0,-4.0,-5.0,-4.0,18.0
1705334984.6488144,-4.0,-1.0,-8.0,-10.0,-8.0,-17.0,-6.0,-6.0
1705334984.6488144,0.0,3.0,-4.0,2.0,-3.0,-8.0,-5.0,1.0
1705334984.6588137,1.0,-3.0,22.0,3.0,1.0,11.0,0.0,0.0
1705334984.6588137,-4.0,9.0,3.0,-10.0,-8.0,8.0,4.0,-11.0
1705334984.668778,1.0,-5.0,-18.0,5.0,2.0,-2.0,-5.0,3.0
1705334984.668778,0.0,-9.0,13.0,-1.0,4.0,-1.0,4.0,-3.0
1705334984.698532,1.0,-9.0,-6.0,10.0,4.0,-10.0,-4.0,2.0
1705334984.698532,-1.0,-11.0,16.0,-3.0,3.0,16.0,3.0,-4.0
1705334984.698532,-2.0,-4.0,-26.0,-9.0,-8.0,-19.0,-6.0,1.0
1705334984.698532,-2.0,-4.0,-7.0,-1.0,-2.0,-4.0,-2.0,-3.0
1705334984.7088907,-1.0,-6.0,-28.0,-4.0,2.0,-6.0,-2.0,-14.0
1705334984.7088907,3.0,3.0,26.0,7.0,-2.0,-4.0,-3.0,12.0
1705334984.7088907,-1.0,0.0,-26.0,-8.0,-3.0,-8.0,-2.0,-4.0
1705334984.7088907,0.0,-8.0,-5.0,-4.0,-5.0,-3.0,1.0,-2.0
1705334984.728598,0.0,0.0,1.0,-8.0,-4.0,-1.0,-4.0,3.0
1705334984.728598,-1.0,6.0,1.0,4.0,3.0,-6.0,1.0,-10.0
1705334984.728598,-1.0,4.0,30.0,10.0,1.0,-3.0,-3.0,-3.0
1705334984.728598,0.0,-1.0,-3.0,-8.0,-1.0,14.0,6.0,-1.0
1705334984.7486086,-3.0,-6.0,-19.0,-7.0,-2.0,1.0,0.0,2.0
1705334984.7486086,-1.0,-5.0,8.0,0.0,-5.0,-3.0,0.0,-4.0
1705334984.7486086,0.0,7.0,6.0,5.0,0.0,-14.0,-9.0,0.0
1705334984.7486086,-2.0,-2.0,0.0,0.0,10.0,20.0,12.0,1.0
1705334984.7686517,-1.0,-1.0,-4.0,-1.0,-2.0,6.0,3.0,2.0
1705334984.7686517,0.0,-1.0,-3.0,1.0,1.0,-1.0,-2.0,-4.0
1705334984.7686517,-1.0,0.0,4.0,-4.0,-9.0,-5.0,-6.0,-2.0
1705334984.7686517,-3.0,1.0,0.0,3.0,-5.0,-11.0,-7.0,-3.0
1705334984.788607,-1.0,3.0,-1.0,-2.0,-1.0,4.0,0.0,1.0
1705334984.788607,-2.0,-6.0,-10.0,-2.0,4.0,7.0,3.0,0.0
1705334984.788607,-1.0,-5.0,-6.0,2.0,3.0,2.0,1.0,-1.0
1705334984.788607,0.0,1.0,11.0,-2.0,-4.0,-12.0,-9.0,-2.0
1705334984.808956,0.0,4.0,4.0,-2.0,-3.0,-13.0,-2.0,2.0
1705334984.808956,0.0,0.0,0.0,7.0,0.0,4.0,-7.0,-2.0
1705334984.8189194,0.0,-1.0,-8.0,-12.0,-6.0,-1.0,4.0,0.0
1705334984.8189194,-3.0,-1.0,-9.0,-3.0,-7.0,6.0,10.0,0.0
1705334984.8286133,1.0,-2.0,-3.0,2.0,3.0,2.0,1.0,1.0
1705334984.8286133,-3.0,-1.0,-5.0,-1.0,-2.0,-14.0,-4.0,-1.0
1705334984.8286133,1.0,0.0,13.0,3.0,4.0,7.0,3.0,0.0
1705334984.8286133,-1.0,2.0,-12.0,1.0,-1.0,-12.0,-12.0,-4.0
1705334984.8786082,1.0,-3.0,20.0,-2.0,-4.0,-11.0,-11.0,0.0
1705334984.8786082,-2.0,3.0,-11.0,-9.0,-4.0,25.0,24.0,0.0
1705334984.8786082,-1.0,-5.0,4.0,1.0,1.0,8.0,6.0,1.0
1705334984.8786082,1.0,-2.0,-7.0,1.0,-1.0,-11.0,-5.0,-2.0
1705334984.8786082,-2.0,-6.0,-11.0,-6.0,1.0,-1.0,-5.0,-1.0
1705334984.8786082,1.0,8.0,23.0,5.0,3.0,-5.0,-5.0,-2.0
1705334984.8786082,0.0,-2.0,-9.0,-2.0,-3.0,0.0,4.0,0.0
1705334984.8786082,-1.0,0.0,-20.0,-1.0,-1.0,4.0,-1.0,-1.0
1705334984.8886044,-1.0,-3.0,-12.0,-2.0,0.0,4.0,1.0,0.0
1705334984.8886044,-1.0,-8.0,-9.0,-4.0,-3.0,-13.0,-6.0,-1.0
1705334984.8886044,-1.0,-1.0,16.0,6.0,6.0,1.0,-1.0,1.0
1705334984.8886044,-1.0,0.0,21.0,2.0,1.0,-2.0,-2.0,-2.0
1705334984.9089596,-2.0,0.0,-2.0,-1.0,-8.0,0.0,4.0,0.0
1705334984.9089596,0.0,-4.0,-9.0,-4.0,-6.0,-6.0,-6.0,-2.0
1705334984.9089596,-3.0,3.0,0.0,-2.0,-5.0,-10.0,-8.0,-2.0
1705334984.9089596,-1.0,-1.0,-13.0,0.0,2.0,20.0,6.0,-1.0
1705334984.9289432,-3.0,6.0,-5.0,-4.0,-5.0,-22.0,-10.0,0.0
1705334984.9289432,1.0,3.0,9.0,-2.0,5.0,44.0,23.0,1.0
1705334984.9289432,-2.0,1.0,10.0,1.0,-4.0,-9.0,-4.0,-3.0
1705334984.9289432,1.0,5.0,-12.0,-11.0,-16.0,-26.0,-14.0,-4.0
1705334984.9492564,-2.0,1.0,-2.0,4.0,8.0,20.0,11.0,0.0
1705334984.9492564,-2.0,-4.0,1.0,0.0,5.0,-19.0,-12.0,-2.0
1705334984.9492564,-1.0,-7.0,1.0,1.0,3.0,5.0,3.0,-1.0
1705334984.9492564,1.0,-4.0,9.0,2.0,-5.0,-6.0,-2.0,-1.0
1705334984.985367,0.0,1.0,-10.0,-10.0,-10.0,-4.0,-3.0,-2.0
1705334984.985367,-3.0,-5.0,7.0,0.0,2.0,-10.0,-7.0,-1.0
1705334984.985367,0.0,-8.0,-16.0,2.0,4.0,14.0,7.0,0.0
1705334984.985367,-1.0,-3.0,7.0,0.0,-2.0,-15.0,-13.0,-1.0
1705334984.9890752,0.0,4.0,6.0,3.0,1.0,8.0,8.0,0.0
1705334984.9890752,0.0,1.0,10.0,0.0,-1.0,4.0,3.0,1.0
1705334984.9890752,0.0,1.0,-7.0,-3.0,-4.0,-10.0,-2.0,-1.0
1705334984.9890752,0.0,-8.0,-7.0,-1.0,3.0,7.0,3.0,-1.0
1705334985.0090911,-1.0,0.0,-4.0,-3.0,-2.0,-2.0,-5.0,-1.0
1705334985.0090911,0.0,4.0,-6.0,-2.0,-7.0,-13.0,-10.0,-2.0
1705334985.0090911,0.0,-2.0,1.0,-1.0,0.0,9.0,2.0,1.0
1705334985.0090911,-1.0,-2.0,-3.0,-1.0,4.0,-1.0,6.0,-1.0
1705334985.0294497,1.0,-10.0,14.0,9.0,5.0,19.0,7.0,1.0
1705334985.0294497,-1.0,-11.0,-31.0,3.0,2.0,-12.0,-6.0,-3.0
1705334985.0294497,-3.0,-2.0,2.0,-11.0,-4.0,-5.0,-2.0,1.0
1705334985.0294497,-2.0,-4.0,-2.0,-16.0,-1.0,-7.0,-3.0,-2.0
1705334985.049078,-1.0,-8.0,3.0,4.0,-1.0,-6.0,-2.0,0.0
1705334985.049078,-2.0,-5.0,3.0,-2.0,-6.0,-2.0,-2.0,-2.0
1705334985.049078,1.0,6.0,-3.0,3.0,-6.0,-12.0,-16.0,-4.0
1705334985.049078,0.0,0.0,-5.0,3.0,-2.0,1.0,4.0,1.0
1705334985.0690806,1.0,-2.0,-3.0,1.0,8.0,16.0,13.0,-1.0
1705334985.0690806,2.0,-5.0,10.0,8.0,8.0,25.0,10.0,3.0
1705334985.0690806,-5.0,-4.0,-47.0,-25.0,-7.0,-9.0,-4.0,-5.0
1705334985.0690806,-3.0,4.0,21.0,3.0,-9.0,-8.0,-6.0,-2.0
1705334985.0894382,-1.0,-3.0,-5.0,-2.0,-5.0,-16.0,-7.0,-1.0
1705334985.0894382,1.0,-5.0,2.0,2.0,1.0,-7.0,-4.0,-2.0
1705334985.0894382,0.0,-5.0,9.0,1.0,1.0,2.0,1.0,-2.0
1705334985.0894382,0.0,-5.0,-10.0,0.0,4.0,0.0,-5.0,0.0
1705334985.099397,-3.0,-8.0,-3.0,0.0,-2.0,0.0,1.0,-3.0
1705334985.099397,-2.0,-2.0,-2.0,-3.0,-2.0,-3.0,-2.0,-1.0
1705334985.1090794,-2.0,3.0,11.0,1.0,-4.0,-2.0,2.0,2.0
1705334985.1090794,-2.0,1.0,-5.0,3.0,-2.0,-5.0,-1.0,-2.0
1705334985.1391118,0.0,0.0,13.0,2.0,-2.0,5.0,3.0,0.0
1705334985.1391118,1.0,0.0,-7.0,-11.0,-6.0,-12.0,-5.0,-2.0
1705334985.1391118,-2.0,-4.0,5.0,5.0,1.0,5.0,1.0,-1.0
1705334985.1391118,-1.0,0.0,1.0,-3.0,-1.0,0.0,-3.0,1.0
1705334985.14943,-1.0,-4.0,-4.0,-3.0,-2.0,-2.0,-6.0,1.0
1705334985.14943,0.0,5.0,-15.0,-5.0,-3.0,7.0,3.0,-1.0
1705334985.14943,-2.0,7.0,12.0,1.0,-1.0,0.0,-3.0,-1.0
1705334985.14943,0.0,-3.0,6.0,9.0,9.0,4.0,-1.0,1.0
1705334985.1691127,-1.0,0.0,-10.0,-6.0,-4.0,-2.0,2.0,0.0
1705334985.1691127,-1.0,3.0,10.0,1.0,-1.0,-8.0,-2.0,-2.0
1705334985.1794705,-1.0,-3.0,-12.0,-3.0,1.0,0.0,0.0,0.0
1705334985.1794705,-1.0,0.0,28.0,10.0,-4.0,4.0,3.0,0.0
1705334985.1893904,-5.0,17.0,-33.0,-27.0,-3.0,-14.0,-9.0,-5.0
1705334985.1893904,0.0,2.0,8.0,9.0,9.0,17.0,4.0,2.0
1705334985.1893904,2.0,2.0,1.0,-3.0,-1.0,-4.0,2.0,2.0
1705334985.1893904,0.0,-1.0,-15.0,-4.0,-3.0,-2.0,2.0,1.0
1705334985.2094426,1.0,2.0,8.0,6.0,-3.0,-7.0,-4.0,1.0
1705334985.2094426,-3.0,4.0,0.0,-7.0,-9.0,-12.0,-7.0,-3.0
1705334985.219078,-2.0,2.0,-2.0,0.0,-2.0,-4.0,-2.0,-4.0
1705334985.219078,-2.0,-1.0,-3.0,2.0,4.0,-8.0,-4.0,-1.0
1705334985.219078,0.0,-5.0,0.0,4.0,5.0,22.0,11.0,1.0
1705334985.219078,-1.0,0.0,-6.0,-3.0,0.0,-14.0,-9.0,-2.0
1705334985.239077,-1.0,-3.0,21.0,6.0,-1.0,3.0,11.0,-1.0
1705334985.239077,-1.0,-2.0,-7.0,-6.0,-5.0,-10.0,-7.0,-2.0
1705334985.2491114,-2.0,2.0,0.0,2.0,-1.0,-5.0,-9.0,-6.0
1705334985.2491114,-4.0,0.0,-5.0,-8.0,-7.0,-4.0,-2.0,-2.0
1705334985.2491114,-1.0,-3.0,-4.0,-1.0,1.0,-7.0,-4.0,0.0
1705334985.2491114,-1.0,0.0,-1.0,-2.0,3.0,6.0,5.0,-1.0
1705334985.2693894,0.0,-5.0,-5.0,1.0,0.0,3.0,-2.0,-2.0
1705334985.2693894,-2.0,7.0,12.0,1.0,-7.0,-9.0,-6.0,-1.0
1705334985.2693894,-1.0,5.0,4.0,-1.0,0.0,1.0,-4.0,-1.0
1705334985.2693894,0.0,-6.0,-3.0,-2.0,2.0,9.0,6.0,-1.0
1705334985.2793074,1.0,-1.0,-1.0,1.0,-1.0,-8.0,-5.0,-1.0
1705334985.2793074,-2.0,5.0,18.0,6.0,2.0,-5.0,-1.0,-2.0
1705334985.2890837,-1.0,0.0,-12.0,-6.0,-2.0,7.0,3.0,-2.0
1705334985.2890837,-1.0,-3.0,-25.0,-8.0,-5.0,-2.0,-2.0,-2.0
1705334985.3190782,-1.0,6.0,9.0,6.0,-2.0,-3.0,-2.0,-1.0
1705334985.3190782,0.0,2.0,-14.0,-11.0,-1.0,-5.0,-4.0,-1.0
1705334985.3190782,0.0,1.0,7.0,9.0,5.0,23.0,6.0,-1.0
1705334985.3190782,-3.0,-3.0,3.0,-2.0,-3.0,-4.0,-3.0,0.0
1705334985.3291109,-2.0,-2.0,-9.0,0.0,-3.0,-5.0,-1.0,-2.0
1705334985.3291109,-2.0,-3.0,6.0,2.0,-2.0,-5.0,-4.0,-2.0
1705334985.3291109,0.0,-6.0,-10.0,0.0,-1.0,1.0,1.0,-2.0
1705334985.3291109,-3.0,3.0,13.0,-10.0,-2.0,8.0,2.0,0.0
1705334985.33908,-2.0,1.0,6.0,3.0,0.0,6.0,7.0,1.0
1705334985.33908,0.0,-6.0,-3.0,-1.0,1.0,-1.0,-3.0,0.0
1705334985.3491051,0.0,-6.0,-10.0,1.0,-5.0,-6.0,-6.0,-2.0
1705334985.3491051,1.0,2.0,-5.0,3.0,3.0,5.0,3.0,-1.0
1705334985.3690825,0.0,-5.0,1.0,-2.0,-3.0,-10.0,-5.0,-2.0
1705334985.3690825,-1.0,1.0,-2.0,2.0,-1.0,-1.0,0.0,-1.0
1705334985.3690825,-1.0,-1.0,2.0,-1.0,-1.0,-4.0,-5.0,1.0
1705334985.3690825,0.0,-4.0,-2.0,-8.0,-2.0,2.0,3.0,-2.0
1705334985.389368,-3.0,0.0,8.0,-2.0,-2.0,-4.0,-3.0,-2.0
1705334985.389368,-1.0,-6.0,-12.0,0.0,-2.0,-3.0,2.0,1.0
1705334985.389368,-2.0,-8.0,8.0,-4.0,-2.0,-3.0,-3.0,-2.0
1705334985.389368,-2.0,-2.0,-10.0,3.0,-1.0,-7.0,-4.0,1.0
1705334985.4190764,1.0,-11.0,17.0,3.0,0.0,1.0,-2.0,-2.0
1705334985.4190764,-1.0,-2.0,-4.0,-4.0,0.0,4.0,3.0,0.0
1705334985.4190764,-1.0,4.0,16.0,3.0,0.0,-5.0,-3.0,-2.0
1705334985.4190764,-1.0,-4.0,-7.0,-1.0,-5.0,-6.0,-2.0,-3.0
1705334985.429078,-1.0,-17.0,-31.0,-8.0,-8.0,-8.0,-2.0,-1.0
1705334985.429078,-2.0,-5.0,1.0,2.0,4.0,6.0,0.0,1.0
1705334985.429078,-1.0,1.0,-16.0,2.0,5.0,-6.0,-8.0,0.0
1705334985.429078,-2.0,5.0,32.0,-2.0,-2.0,8.0,10.0,0.0
1705334985.449474,0.0,0.0,0.0,-3.0,-5.0,-15.0,-14.0,-1.0
1705334985.449474,-1.0,-3.0,-2.0,-5.0,-3.0,11.0,10.0,-1.0
1705334985.449474,0.0,-7.0,-14.0,1.0,4.0,28.0,15.0,1.0
1705334985.449474,0.0,-3.0,-4.0,2.0,4.0,3.0,2.0,0.0
1705334985.4590795,-2.0,-1.0,1.0,-1.0,2.0,-5.0,-4.0,0.0
1705334985.4590795,-2.0,2.0,-14.0,-6.0,-6.0,-11.0,-11.0,-2.0
1705334985.4691062,-3.0,3.0,6.0,-1.0,-7.0,-18.0,-7.0,-1.0
1705334985.4691062,0.0,-1.0,4.0,6.0,0.0,5.0,0.0,-1.0
1705334985.491348,0.0,-13.0,1.0,-4.0,-1.0,1.0,1.0,-1.0
1705334985.4923484,-3.0,-4.0,5.0,0.0,-7.0,-12.0,-4.0,-2.0
1705334985.4933789,-1.0,-3.0,0.0,-2.0,1.0,2.0,0.0,0.0
1705334985.4933789,0.0,-9.0,-8.0,0.0,4.0,-3.0,-6.0,-1.0
1705334985.5144465,-3.0,-1.0,3.0,1.0,1.0,5.0,6.0,-1.0
1705334985.5144465,1.0,2.0,-3.0,-2.0,-1.0,0.0,4.0,0.0
1705334985.5164611,-2.0,-2.0,-5.0,-4.0,-5.0,-7.0,-4.0,-3.0
1705334985.5164611,-3.0,0.0,-3.0,-1.0,-4.0,-3.0,-5.0,-3.0
1705334985.5219417,-3.0,9.0,9.0,6.0,-2.0,3.0,-1.0,-2.0
1705334985.5219417,0.0,-3.0,5.0,0.0,4.0,0.0,-2.0,-1.0
1705334985.531976,0.0,0.0,-8.0,-2.0,-2.0,-3.0,-3.0,1.0
1705334985.531976,1.0,-4.0,-10.0,-4.0,2.0,4.0,-2.0,-1.0
1705334985.5503025,-1.0,-11.0,12.0,1.0,-4.0,-8.0,-5.0,-1.0
1705334985.5503025,-1.0,2.0,17.0,6.0,2.0,10.0,10.0,0.0
1705334985.5503025,-2.0,-6.0,-26.0,-5.0,0.0,10.0,4.0,-1.0
1705334985.5503025,-2.0,0.0,-11.0,-8.0,-5.0,-14.0,-7.0,-2.0
1705334985.5698514,-1.0,8.0,-4.0,-3.0,-6.0,-2.0,-1.0,-2.0
1705334985.5698514,0.0,0.0,0.0,-1.0,-1.0,1.0,-1.0,-1.0
1705334985.5698514,-2.0,-1.0,17.0,8.0,2.0,2.0,2.0,0.0
1705334985.5698514,-3.0,0.0,-12.0,-2.0,-4.0,-7.0,-4.0,0.0
1705334985.5800028,-1.0,6.0,-3.0,-2.0,6.0,16.0,5.0,1.0
1705334985.5800028,1.0,1.0,-4.0,3.0,0.0,-8.0,-7.0,-1.0
1705334985.5900738,0.0,-6.0,5.0,-2.0,-1.0,-9.0,-10.0,-1.0
1705334985.5900738,-2.0,4.0,3.0,3.0,-1.0,11.0,9.0,-2.0
1705334985.6103842,-1.0,-7.0,5.0,-3.0,-6.0,-10.0,-4.0,-1.0
1705334985.6103842,-1.0,-2.0,-13.0,-4.0,-4.0,-1.0,0.0,-2.0
1705334985.6103842,0.0,-1.0,5.0,6.0,1.0,-2.0,0.0,-1.0
1705334985.6103842,-1.0,-2.0,-4.0,-14.0,-4.0,-9.0,-6.0,-2.0
1705334985.6400917,-1.0,6.0,-12.0,0.0,0.0,0.0,-1.0,-2.0
1705334985.6400917,-1.0,1.0,14.0,-2.0,0.0,5.0,0.0,0.0
1705334985.6400917,-4.0,1.0,9.0,-4.0,-9.0,-14.0,-6.0,-3.0
1705334985.6400917,0.0,-11.0,-4.0,12.0,4.0,1.0,1.0,-1.0
1705334985.650127,2.0,6.0,5.0,-3.0,1.0,7.0,2.0,2.0
1705334985.650127,-2.0,-6.0,-2.0,-4.0,-4.0,-11.0,-7.0,-1.0
1705334985.650127,-1.0,-3.0,-14.0,-5.0,-3.0,5.0,3.0,0.0
1705334985.650127,-2.0,-6.0,-7.0,5.0,4.0,-1.0,-1.0,0.0
1705334985.670385,-2.0,6.0,-5.0,-2.0,0.0,2.0,1.0,-1.0
1705334985.670385,-1.0,2.0,-5.0,-2.0,-1.0,-4.0,-3.0,-2.0
1705334985.670385,1.0,-1.0,12.0,-5.0,-7.0,-3.0,-2.0,0.0
1705334985.670385,-1.0,-1.0,2.0,2.0,-5.0,-1.0,0.0,1.0
1705334985.6903238,0.0,1.0,23.0,4.0,-1.0,-2.0,-1.0,-1.0
1705334985.6903238,-2.0,4.0,8.0,-4.0,-2.0,-5.0,-8.0,-1.0
1705334985.6903238,-1.0,-4.0,-30.0,-1.0,3.0,5.0,10.0,0.0
1705334985.6903238,-2.0,-2.0,-10.0,-2.0,-2.0,4.0,-1.0,0.0
1705334985.710092,-1.0,0.0,-24.0,-6.0,0.0,-5.0,-4.0,-2.0
1705334985.710092,-1.0,-2.0,11.0,-1.0,2.0,9.0,8.0,0.0
1705334985.710092,1.0,2.0,3.0,1.0,-3.0,-6.0,-9.0,-1.0
1705334985.710092,-1.0,-2.0,12.0,4.0,1.0,-1.0,4.0,-1.0
1705334985.730363,-2.0,-7.0,0.0,-1.0,-5.0,-4.0,-2.0,-2.0
1705334985.730363,0.0,1.0,-28.0,-12.0,-4.0,-1.0,-2.0,-2.0
1705334985.730363,0.0,3.0,16.0,6.0,7.0,1.0,0.0,-3.0
1705334985.730363,0.0,-5.0,1.0,-1.0,-6.0,-10.0,-5.0,-2.0
1705334985.760094,-1.0,-8.0,2.0,3.0,4.0,8.0,2.0,0.0
1705334985.760094,-3.0,-3.0,-19.0,-2.0,-3.0,-6.0,-4.0,-1.0
1705334985.760094,0.0,-1.0,0.0,3.0,-1.0,5.0,0.0,-1.0
1705334985.760094,1.0,0.0,21.0,-4.0,-3.0,-4.0,-2.0,-1.0
1705334985.7702916,-3.0,-8.0,-22.0,-5.0,2.0,-1.0,-1.0,-2.0
1705334985.7702916,-2.0,2.0,13.0,-3.0,-2.0,-2.0,0.0,-2.0
1705334985.7702916,-1.0,2.0,-8.0,1.0,1.0,0.0,-1.0,1.0
1705334985.7702916,-1.0,3.0,3.0,-2.0,-5.0,0.0,1.0,-1.0
1705334985.7900944,0.0,-1.0,9.0,2.0,-5.0,-2.0,-1.0,-1.0
1705334985.7900944,-2.0,-1.0,-5.0,8.0,1.0,-6.0,-4.0,-2.0
1705334985.8000941,0.0,0.0,13.0,-5.0,1.0,9.0,4.0,0.0
1705334985.8000941,0.0,-3.0,-16.0,-4.0,1.0,-5.0,-2.0,-1.0
1705334985.8101265,-1.0,-14.0,-25.0,-3.0,-3.0,0.0,1.0,0.0
1705334985.8101265,-1.0,-3.0,-2.0,-12.0,-5.0,0.0,-2.0,-2.0
1705334985.8101265,-1.0,-4.0,32.0,7.0,2.0,-7.0,-2.0,-3.0
1705334985.8101265,-1.0,-5.0,-24.0,3.0,0.0,0.0,-1.0,-1.0
1705334985.8303397,-1.0,-13.0,-6.0,6.0,4.0,2.0,1.0,-1.0
1705334985.8303397,-2.0,3.0,16.0,2.0,-5.0,-1.0,0.0,-1.0
1705334985.8303397,-3.0,-10.0,-11.0,-12.0,-5.0,-6.0,-4.0,-3.0
1705334985.8303397,-1.0,-7.0,7.0,-6.0,0.0,-1.0,0.0,0.0
1705334985.8500946,-2.0,-3.0,1.0,-1.0,-3.0,-4.0,-3.0,-3.0
1705334985.8500946,2.0,-4.0,-13.0,5.0,3.0,-9.0,-12.0,-1.0
1705334985.8700957,-2.0,0.0,4.0,-4.0,-4.0,17.0,14.0,1.0
1705334985.8700957,0.0,-5.0,-9.0,-2.0,3.0,0.0,-3.0,-2.0
1705334985.8700957,1.0,2.0,21.0,3.0,2.0,0.0,-3.0,-1.0
1705334985.8700957,-1.0,2.0,6.0,-1.0,-1.0,2.0,4.0,0.0
1705334985.8700957,-2.0,-6.0,-31.0,-1.0,-4.0,-15.0,-10.0,-3.0
1705334985.8700957,-4.0,0.0,12.0,-3.0,-3.0,7.0,4.0,-1.0
1705334985.8904643,0.0,7.0,1.0,-1.0,-2.0,-2.0,-1.0,0.0
1705334985.8904643,-2.0,-3.0,29.0,6.0,-6.0,-5.0,-5.0,-2.0
1705334985.8904643,-1.0,4.0,-14.0,-9.0,1.0,-9.0,-7.0,-1.0
1705334985.8904643,0.0,0.0,-3.0,1.0,0.0,2.0,2.0,1.0
1705334985.910091,-3.0,-6.0,-7.0,-8.0,0.0,-4.0,1.0,-2.0
1705334985.910091,0.0,-6.0,0.0,5.0,1.0,4.0,2.0,0.0
1705334985.910091,-1.0,-2.0,-2.0,4.0,-5.0,-7.0,-5.0,-1.0
1705334985.910091,-2.0,-2.0,9.0,2.0,-4.0,-11.0,-12.0,-4.0
1705334985.930476,0.0,10.0,-4.0,-3.0,5.0,11.0,12.0,1.0
1705334985.930476,-2.0,-9.0,-23.0,-2.0,-1.0,5.0,6.0,0.0
1705334985.930476,0.0,6.0,22.0,2.0,-3.0,-5.0,-2.0,-2.0
1705334985.930476,-4.0,6.0,1.0,-9.0,-6.0,-19.0,-16.0,-3.0
1705334985.950358,1.0,1.0,12.0,2.0,-1.0,-2.0,-1.0,0.0
1705334985.950358,-2.0,-2.0,-1.0,-1.0,-5.0,-8.0,-5.0,-3.0
1705334985.950358,-3.0,-4.0,1.0,-2.0,0.0,16.0,6.0,2.0
1705334985.950358,-2.0,2.0,-15.0,-6.0,0.0,-7.0,-3.0,0.0
1705334985.9701252,-3.0,-4.0,3.0,5.0,2.0,-4.0,-1.0,-2.0
1705334985.9701252,1.0,-7.0,-1.0,2.0,1.0,-5.0,1.0,2.0
1705334985.9701252,-1.0,3.0,3.0,1.0,-1.0,-1.0,-2.0,-1.0
1705334985.9701252,-1.0,-5.0,-29.0,-16.0,-5.0,1.0,0.0,-3.0
1705334985.9904954,-2.0,6.0,2.0,-1.0,-4.0,-3.0,-6.0,-1.0
1705334985.9904954,0.0,15.0,14.0,5.0,2.0,-3.0,-3.0,-3.0
1705334985.9904954,-3.0,-2.0,-9.0,2.0,-4.0,1.0,-3.0,-1.0
1705334985.9904954,2.0,-3.0,20.0,8.0,1.0,9.0,10.0,1.0
1705334986.0224884,0.0,-4.0,-17.0,-6.0,-1.0,-1.0,1.0,-1.0
1705334986.0224884,-1.0,-1.0,-15.0,-4.0,-1.0,-7.0,-3.0,-2.0
1705334986.0224884,1.0,-6.0,28.0,-7.0,0.0,1.0,1.0,1.0
1705334986.0224884,-1.0,3.0,-4.0,4.0,3.0,5.0,3.0,0.0
1705334986.0224884,-2.0,5.0,-3.0,-9.0,-8.0,-12.0,-11.0,-2.0
1705334986.0224884,-1.0,0.0,-13.0,1.0,0.0,-3.0,-1.0,-1.0
1705334986.0409696,1.0,1.0,-3.0,-1.0,3.0,13.0,2.0,-1.0
1705334986.0409696,0.0,-6.0,9.0,4.0,1.0,13.0,9.0,1.0
1705334986.0549667,-1.0,-4.0,3.0,0.0,0.0,-10.0,-1.0,-1.0
1705334986.0549667,-2.0,4.0,-9.0,-4.0,1.0,7.0,0.0,0.0
1705334986.0549667,0.0,-7.0,-12.0,-7.0,-1.0,-12.0,-7.0,-3.0
1705334986.0549667,-1.0,-1.0,4.0,2.0,-1.0,-2.0,-2.0,0.0
1705334986.0885596,-2.0,-5.0,-7.0,-2.0,-5.0,-6.0,-5.0,-1.0
1705334986.0885596,-1.0,0.0,2.0,-4.0,0.0,2.0,-1.0,0.0
1705334986.0885596,-1.0,-10.0,6.0,7.0,0.0,-13.0,0.0,-1.0
1705334986.0885596,0.0,11.0,42.0,6.0,4.0,16.0,5.0,1.0
1705334986.0885596,-1.0,-7.0,-9.0,-11.0,-7.0,-9.0,-11.0,-3.0
1705334986.0885596,-2.0,-6.0,-31.0,-7.0,2.0,14.0,7.0,2.0
1705334986.0885596,0.0,-6.0,-22.0,-1.0,1.0,-12.0,-12.0,-2.0
1705334986.0885596,1.0,-2.0,18.0,6.0,3.0,3.0,9.0,-1.0
1705334986.1089208,-1.0,-7.0,3.0,2.0,-4.0,-11.0,-7.0,-1.0
1705334986.1089208,-4.0,3.0,-8.0,-1.0,-3.0,26.0,11.0,-1.0
1705334986.1089208,1.0,0.0,-1.0,-11.0,-5.0,-2.0,0.0,-1.0
1705334986.1089208,-4.0,3.0,-12.0,-2.0,-3.0,-12.0,-9.0,-3.0
1705334986.1385596,-2.0,-5.0,10.0,5.0,1.0,4.0,-1.0,-1.0
1705334986.1385596,0.0,-6.0,-9.0,-4.0,-1.0,-11.0,-1.0,-3.0
1705334986.1385596,-1.0,0.0,-12.0,2.0,1.0,11.0,7.0,2.0
1705334986.1385596,0.0,-5.0,5.0,-1.0,0.0,2.0,0.0,-2.0
1705334986.1485987,0.0,-1.0,5.0,-3.0,-3.0,-1.0,-2.0,-1.0
1705334986.1485987,-2.0,8.0,8.0,0.0,-5.0,-10.0,-8.0,-3.0
1705334986.158565,-2.0,0.0,-5.0,1.0,-1.0,-4.0,-3.0,-3.0
1705334986.158565,-2.0,-6.0,-20.0,-6.0,1.0,-5.0,-4.0,-1.0
1705334986.1785629,-1.0,-2.0,2.0,2.0,3.0,16.0,9.0,-1.0
1705334986.1785629,0.0,3.0,14.0,-1.0,-2.0,-2.0,-2.0,-3.0
1705334986.1785629,-1.0,-3.0,5.0,-1.0,-5.0,-11.0,-8.0,-1.0
1705334986.1785629,0.0,-1.0,-10.0,-2.0,-3.0,-2.0,7.0,-1.0
1705334986.1885629,2.0,-15.0,-7.0,0.0,7.0,15.0,9.0,2.0
1705334986.1885629,0.0,-7.0,-2.0,-1.0,-3.0,-10.0,-7.0,-1.0
1705334986.1885629,-2.0,7.0,-2.0,1.0,-3.0,-1.0,-1.0,-2.0
1705334986.1885629,1.0,1.0,-1.0,-6.0,-4.0,-12.0,-12.0,-1.0
1705334986.2088616,-1.0,0.0,13.0,2.0,3.0,2.0,1.0,-1.0
1705334986.2088616,0.0,-4.0,6.0,2.0,-2.0,-1.0,2.0,-1.0
1705334986.218563,-1.0,4.0,-3.0,-1.0,2.0,-3.0,-3.0,-1.0
1705334986.218563,-1.0,-6.0,-3.0,-6.0,-3.0,1.0,-4.0,0.0
1705334986.228824,-2.0,-6.0,9.0,0.0,-3.0,4.0,4.0,0.0
1705334986.228824,-1.0,-5.0,-20.0,-7.0,-1.0,4.0,1.0,0.0
1705334986.228824,-4.0,8.0,-4.0,2.0,-3.0,-10.0,-1.0,-3.0
1705334986.228824,0.0,0.0,-3.0,-1.0,3.0,1.0,-2.0,2.0
1705334986.2485583,0.0,-5.0,4.0,-2.0,-2.0,-6.0,-4.0,-1.0
1705334986.2485583,-2.0,-6.0,-2.0,-1.0,0.0,-7.0,-5.0,0.0
1705334986.2485583,0.0,3.0,13.0,0.0,-3.0,0.0,3.0,0.0
1705334986.2485583,-1.0,0.0,-1.0,2.0,-2.0,5.0,0.0,0.0
1705334986.268938,-3.0,1.0,0.0,3.0,0.0,4.0,3.0,-3.0
1705334986.268938,1.0,-7.0,-8.0,1.0,2.0,3.0,5.0,1.0
1705334986.2785604,0.0,2.0,-10.0,-6.0,-3.0,9.0,0.0,-1.0
1705334986.2785604,-1.0,2.0,-1.0,1.0,-1.0,-14.0,-9.0,-3.0
1705334986.288911,-2.0,-2.0,-16.0,-6.0,-3.0,4.0,-7.0,-2.0
1705334986.288911,-2.0,4.0,11.0,3.0,3.0,16.0,9.0,-1.0
1705334986.288911,-2.0,3.0,16.0,1.0,-2.0,-1.0,1.0,-1.0
1705334986.288911,0.0,-2.0,-3.0,1.0,-3.0,-9.0,-6.0,-1.0
1705334986.3085926,-2.0,-2.0,-13.0,-3.0,-3.0,-5.0,-2.0,-1.0
1705334986.3085926,3.0,-3.0,-7.0,-7.0,-5.0,-5.0,-1.0,2.0
1705334986.3085926,-2.0,0.0,1.0,-1.0,2.0,0.0,-1.0,-3.0
1705334986.3085926,-6.0,0.0,-1.0,2.0,1.0,0.0,0.0,-2.0
1705334986.3285682,0.0,1.0,7.0,1.0,-2.0,-10.0,-4.0,-2.0
1705334986.3285682,-1.0,-3.0,-7.0,1.0,-1.0,-1.0,-5.0,-1.0
1705334986.3385646,2.0,-1.0,-2.0,-2.0,-2.0,-6.0,-1.0,0.0
1705334986.3385646,-2.0,-7.0,-5.0,-1.0,-3.0,0.0,1.0,-1.0
1705334986.3488138,-1.0,-1.0,-2.0,-4.0,-1.0,1.0,0.0,1.0
1705334986.3488138,0.0,5.0,9.0,0.0,0.0,0.0,-2.0,-1.0
1705334986.3488138,-2.0,-2.0,-4.0,-2.0,2.0,6.0,0.0,-3.0
1705334986.3488138,1.0,-6.0,-6.0,2.0,0.0,0.0,-2.0,-2.0
1705334986.3685591,-1.0,-4.0,0.0,-4.0,-5.0,-4.0,1.0,0.0
1705334986.3685591,0.0,-2.0,3.0,3.0,3.0,6.0,0.0,-1.0
1705334986.3685591,-1.0,-10.0,5.0,6.0,-1.0,-1.0,0.0,-1.0
1705334986.3685591,0.0,2.0,-1.0,-2.0,-2.0,-4.0,-6.0,0.0
1705334986.3889408,0.0,1.0,-14.0,-9.0,-1.0,1.0,4.0,-1.0
1705334986.3889408,-3.0,0.0,1.0,-2.0,-3.0,-13.0,-9.0,-1.0
1705334986.3889408,-3.0,-7.0,-1.0,-2.0,-3.0,4.0,3.0,-3.0
1705334986.3985682,1.0,0.0,21.0,3.0,-2.0,0.0,-1.0,0.0
1705334986.4085603,0.0,-4.0,-35.0,-3.0,-3.0,-14.0,-13.0,-2.0
1705334986.4085603,-2.0,3.0,1.0,-4.0,1.0,-4.0,3.0,0.0
1705334986.4085603,3.0,-11.0,-7.0,2.0,6.0,18.0,6.0,2.0
1705334986.4085603,-6.0,-8.0,10.0,-1.0,-3.0,0.0,3.0,-3.0
1705334986.4288578,-3.0,3.0,-3.0,4.0,3.0,-2.0,-6.0,-2.0
1705334986.4288578,2.0,4.0,8.0,-1.0,-5.0,-15.0,-2.0,6.0
1705334986.4288578,-4.0,-12.0,-6.0,-3.0,-3.0,-6.0,-3.0,-4.0
1705334986.4288578,4.0,-3.0,-5.0,-4.0,-1.0,-2.0,-1.0,-1.0
1705334986.4488304,-1.0,1.0,-1.0,-2.0,-2.0,-3.0,-2.0,0.0
1705334986.4488304,-1.0,-4.0,3.0,4.0,-1.0,-3.0,-4.0,-4.0
1705334986.4585636,2.0,3.0,14.0,-3.0,-6.0,-10.0,-5.0,3.0
1705334986.4585636,-2.0,-1.0,-9.0,-3.0,-1.0,16.0,7.0,-1.0
1705334986.478565,-3.0,-5.0,3.0,2.0,2.0,-1.0,0.0,-3.0
1705334986.478565,-1.0,-6.0,-8.0,-2.0,-2.0,-3.0,-2.0,1.0
1705334986.478565,-4.0,-5.0,-5.0,0.0,-2.0,-2.0,-1.0,-1.0
1705334986.478565,-2.0,-5.0,0.0,0.0,-6.0,-10.0,-5.0,-4.0
1705334986.4885597,0.0,2.0,36.0,0.0,-2.0,-3.0,2.0,1.0
1705334986.4885597,-2.0,-5.0,-4.0,5.0,10.0,11.0,2.0,-2.0
1705334986.4885597,0.0,-6.0,0.0,2.0,0.0,-2.0,-2.0,0.0
1705334986.4885597,-1.0,0.0,-30.0,-5.0,0.0,-2.0,-2.0,-1.0
1705334986.5185604,2.0,-5.0,-20.0,-14.0,-7.0,-4.0,-3.0,0.0
1705334986.5185604,1.0,-2.0,14.0,-5.0,-4.0,1.0,-2.0,-2.0
1705334986.5185604,-1.0,-1.0,-5.0,-4.0,1.0,-2.0,4.0,0.0
1705334986.5185604,0.0,3.0,28.0,15.0,7.0,8.0,10.0,4.0
1705334986.528558,-3.0,0.0,11.0,8.0,1.0,13.0,2.0,-3.0
1705334986.528558,-3.0,3.0,-16.0,-4.0,-1.0,7.0,3.0,-2.0
1705334986.528558,-2.0,-7.0,-28.0,-4.0,-1.0,-5.0,-6.0,-1.0
1705334986.528558,2.0,0.0,8.0,-6.0,-4.0,-10.0,-5.0,-1.0
1705334986.5489714,-1.0,-3.0,3.0,1.0,1.0,-5.0,0.0,0.0
1705334986.5489714,-2.0,-6.0,3.0,-2.0,-5.0,1.0,-4.0,-2.0
1705334986.5489714,2.0,-1.0,3.0,-4.0,-4.0,-5.0,-3.0,-2.0
1705334986.5489714,-1.0,0.0,7.0,0.0,1.0,1.0,-3.0,0.0
1705334986.5784469,-1.0,-2.0,-9.0,-2.0,3.0,0.0,-5.0,0.0
1705334986.5791955,0.0,-2.0,-6.0,0.0,-3.0,-11.0,-4.0,-2.0
1705334986.5791955,0.0,-1.0,1.0,2.0,-2.0,-1.0,-2.0,0.0
1705334986.5791955,-7.0,-6.0,1.0,-4.0,1.0,14.0,8.0,-3.0
1705334986.5883424,6.0,0.0,-9.0,4.0,2.0,3.0,1.0,6.0
1705334986.5883424,-15.0,-4.0,-8.0,-3.0,-2.0,-6.0,-4.0,-18.0
1705334986.5883424,1.0,13.0,20.0,6.0,3.0,-1.0,-3.0,1.0
1705334986.5883424,3.0,-6.0,-10.0,-14.0,-5.0,-8.0,-7.0,-1.0
1705334986.6086264,-1.0,-2.0,-1.0,-1.0,-6.0,-6.0,-1.0,-2.0
1705334986.6086264,2.0,-1.0,-19.0,-10.0,-1.0,-4.0,-4.0,2.0
1705334986.6086264,-2.0,3.0,4.0,-2.0,-4.0,1.0,1.0,-3.0
1705334986.6086264,0.0,-4.0,7.0,6.0,3.0,5.0,6.0,2.0
1705334986.648345,-2.0,-3.0,-4.0,3.0,5.0,-5.0,-2.0,0.0
1705334986.648345,-1.0,-7.0,-2.0,3.0,0.0,-11.0,0.0,-2.0
1705334986.648345,-2.0,3.0,18.0,3.0,4.0,6.0,-4.0,-4.0
1705334986.648345,-1.0,-2.0,3.0,-1.0,-2.0,-10.0,-2.0,-2.0
1705334986.648345,-1.0,-7.0,-16.0,-3.0,-2.0,3.0,2.0,2.0
1705334986.648345,2.0,2.0,6.0,3.0,-5.0,-9.0,-6.0,-2.0
1705334986.648345,3.0,3.0,-11.0,-3.0,-1.0,-5.0,-3.0,4.0
1705334986.648345,0.0,-6.0,-9.0,-4.0,-3.0,3.0,-2.0,-5.0
1705334986.6687777,-8.0,4.0,14.0,6.0,-2.0,0.0,-2.0,-6.0
1705334986.6687777,1.0,3.0,11.0,-4.0,-2.0,-3.0,-2.0,2.0
1705334986.6687777,-3.0,2.0,-3.0,-3.0,-3.0,-3.0,-2.0,0.0
1705334986.6687777,3.0,6.0,-12.0,0.0,-1.0,-17.0,-8.0,1.0
1705334986.6983447,1.0,3.0,4.0,-2.0,4.0,37.0,13.0,1.0
1705334986.6983447,1.0,4.0,4.0,5.0,3.0,10.0,10.0,4.0
1705334986.6983447,-1.0,7.0,2.0,-3.0,-6.0,-7.0,-2.0,-3.0
1705334986.6983447,-3.0,2.0,-4.0,-2.0,-6.0,-27.0,-22.0,-2.0
1705334986.7085788,-2.0,-15.0,-1.0,2.0,1.0,5.0,6.0,-1.0
1705334986.7085788,-2.0,-3.0,3.0,-1.0,-2.0,4.0,4.0,1.0
1705334986.7085788,3.0,-3.0,-20.0,0.0,2.0,-5.0,-4.0,1.0
1705334986.7085788,0.0,6.0,8.0,0.0,-2.0,7.0,1.0,2.0
1705334986.7286417,-10.0,6.0,-4.0,-9.0,-7.0,-23.0,-11.0,-11.0
1705334986.7286417,1.0,-2.0,-3.0,1.0,3.0,5.0,-1.0,-1.0
1705334986.7286417,-4.0,1.0,-4.0,-1.0,-1.0,3.0,2.0,0.0
1705334986.7286417,1.0,3.0,-2.0,0.0,-3.0,-2.0,-2.0,1.0
1705334986.7683456,0.0,4.0,1.0,-2.0,-6.0,-16.0,-11.0,-1.0
1705334986.7683456,-3.0,-3.0,0.0,-2.0,1.0,6.0,9.0,-1.0
1705334986.7683456,3.0,0.0,-4.0,2.0,3.0,1.0,1.0,2.0
1705334986.7683456,-1.0,-4.0,-5.0,-1.0,2.0,5.0,4.0,-3.0
1705334986.7683456,0.0,-11.0,6.0,-1.0,-3.0,0.0,-5.0,-4.0
1705334986.7683456,-2.0,9.0,0.0,-1.0,-4.0,-1.0,-5.0,-1.0
1705334986.7683456,0.0,-4.0,-10.0,-6.0,-5.0,-6.0,-6.0,6.0
1705334986.7683456,0.0,-3.0,1.0,1.0,1.0,12.0,12.0,-3.0
1705334986.7884116,-3.0,3.0,6.0,-5.0,-4.0,-10.0,-3.0,-3.0
1705334986.7884116,0.0,-2.0,5.0,5.0,-1.0,-12.0,-9.0,0.0
1705334986.8083463,-2.0,-3.0,-4.0,-6.0,6.0,26.0,14.0,-1.0
1705334986.8083463,-1.0,0.0,-8.0,-1.0,2.0,-1.0,-1.0,1.0
1705334986.8183777,3.0,4.0,0.0,4.0,-2.0,-6.0,-2.0,1.0
1705334986.8183777,0.0,-7.0,-3.0,-1.0,-1.0,5.0,-7.0,0.0
1705334986.8183777,-2.0,3.0,2.0,-2.0,-6.0,-2.0,6.0,-4.0
1705334986.8183777,-5.0,-1.0,-6.0,0.0,-2.0,-7.0,-2.0,-1.0
1705334986.8287008,0.0,-9.0,0.0,-1.0,0.0,3.0,5.0,0.0
1705334986.8287008,0.0,-4.0,-2.0,-3.0,-1.0,-4.0,-3.0,0.0
1705334986.8287008,-2.0,-2.0,-1.0,0.0,-3.0,-14.0,-12.0,-3.0
1705334986.8287008,-1.0,1.0,-3.0,-1.0,1.0,1.0,1.0,-3.0
1705334986.8583446,1.0,3.0,10.0,2.0,0.0,6.0,3.0,8.0
1705334986.8583446,0.0,-6.0,2.0,1.0,-4.0,-19.0,-12.0,-7.0
1705334986.8583446,0.0,-2.0,-11.0,-3.0,0.0,2.0,10.0,-4.0
1705334986.8583446,1.0,-8.0,0.0,-3.0,0.0,-2.0,-1.0,2.0
1705334986.8787963,3.0,10.0,-4.0,-2.0,0.0,-5.0,-5.0,-5.0
1705334986.8787963,0.0,-7.0,-5.0,-1.0,1.0,4.0,2.0,5.0
1705334986.8787963,-2.0,1.0,14.0,-2.0,-6.0,-14.0,-8.0,-3.0
1705334986.8787963,-3.0,-1.0,-7.0,0.0,0.0,0.0,-3.0,-3.0
1705334986.8886795,0.0,-12.0,0.0,0.0,2.0,12.0,9.0,2.0
1705334986.8886795,1.0,-4.0,0.0,-5.0,-5.0,-3.0,-1.0,-1.0
1705334986.8886795,0.0,-2.0,-3.0,3.0,3.0,7.0,-1.0,-6.0
1705334986.8886795,1.0,-11.0,0.0,0.0,3.0,2.0,5.0,9.0
1705334986.9183447,-4.0,-2.0,4.0,4.0,0.0,-5.0,-6.0,-3.0
1705334986.9183447,8.0,0.0,-11.0,-10.0,-4.0,-5.0,-2.0,3.0
1705334986.9183447,-6.0,2.0,3.0,0.0,-5.0,-9.0,-12.0,-9.0
1705334986.9183447,-3.0,1.0,-9.0,-2.0,-2.0,13.0,13.0,2.0
1705334986.9386954,3.0,3.0,-4.0,-2.0,2.0,-5.0,1.0,4.0
1705334986.9386954,2.0,-7.0,4.0,1.0,-2.0,-7.0,-3.0,-1.0
1705334986.9386954,-4.0,-6.0,-5.0,-5.0,-1.0,-5.0,-3.0,-1.0
1705334986.9386954,0.0,0.0,-5.0,3.0,-1.0,-5.0,-8.0,-6.0
1705334986.948582,-5.0,-4.0,4.0,-1.0,-1.0,10.0,7.0,-2.0
1705334986.948582,-5.0,-1.0,2.0,0.0,-3.0,1.0,2.0,5.0
1705334986.948582,1.0,-6.0,-10.0,-2.0,-3.0,-4.0,-5.0,-10.0
1705334986.948582,-6.0,1.0,1.0,-1.0,-1.0,4.0,-1.0,-2.0
1705334986.9783447,4.0,6.0,17.0,-3.0,-6.0,-3.0,-1.0,3.0
1705334986.9783447,-3.0,-3.0,-1.0,2.0,6.0,5.0,1.0,-8.0
1705334986.9783447,-2.0,-8.0,-13.0,1.0,3.0,4.0,-1.0,5.0
1705334986.9783447,-7.0,3.0,-19.0,-1.0,-4.0,-21.0,-14.0,-5.0
1705334986.998746,0.0,-2.0,-8.0,-3.0,0.0,18.0,17.0,-1.0
1705334986.998746,1.0,-4.0,23.0,-3.0,-2.0,-4.0,-1.0,-3.0
1705334986.998746,3.0,0.0,2.0,1.0,0.0,6.0,5.0,13.0
1705334986.998746,-1.0,-2.0,20.0,1.0,-1.0,-1.0,-3.0,-9.0
1705334987.0087168,1.0,-3.0,-54.0,-10.0,-8.0,-19.0,-14.0,-5.0
1705334987.0087168,-3.0,-9.0,-4.0,2.0,-2.0,3.0,0.0,-2.0
1705334987.0283442,3.0,7.0,1.0,-3.0,-1.0,1.0,-1.0,-1.0
1705334987.0283442,4.0,-7.0,-1.0,-2.0,-4.0,-1.0,-1.0,4.0
1705334987.0283442,-4.0,-2.0,11.0,2.0,1.0,-1.0,-3.0,-2.0
1705334987.0283442,-2.0,1.0,0.0,7.0,1.0,5.0,3.0,-3.0
1705334987.0283442,-1.0,-4.0,2.0,-7.0,-1.0,-4.0,-2.0,2.0
1705334987.0283442,-1.0,3.0,1.0,-3.0,-1.0,5.0,1.0,1.0
1705334987.0587122,-2.0,-1.0,1.0,-3.0,1.0,-8.0,-4.0,-2.0
1705334987.0587122,-3.0,1.0,-15.0,-2.0,-2.0,3.0,-1.0,-1.0
1705334987.0587122,-2.0,4.0,24.0,9.0,2.0,-4.0,-2.0,-2.0
1705334987.0587122,-2.0,4.0,-14.0,2.0,-1.0,0.0,0.0,-2.0
1705334987.0685759,-1.0,1.0,7.0,9.0,4.0,2.0,-2.0,-2.0
1705334987.0685759,0.0,8.0,13.0,4.0,4.0,1.0,-1.0,3.0
1705334987.0831015,-1.0,3.0,8.0,-11.0,-5.0,-3.0,-3.0,-2.0
1705334987.0831015,2.0,1.0,-10.0,-11.0,-4.0,-1.0,0.0,-1.0
1705334987.1036024,-2.0,1.0,3.0,2.0,-2.0,-4.0,-3.0,1.0
1705334987.1036024,-2.0,1.0,5.0,4.0,0.0,4.0,3.0,-2.0
1705334987.1036024,-4.0,-2.0,-21.0,3.0,1.0,-1.0,1.0,-1.0
1705334987.1036024,0.0,6.0,22.0,4.0,1.0,1.0,-1.0,0.0
1705334987.1139724,0.0,-1.0,-22.0,-5.0,-2.0,-5.0,-4.0,-1.0
1705334987.1139724,-1.0,-11.0,-7.0,-8.0,0.0,-1.0,0.0,1.0
1705334987.1139724,-4.0,3.0,-11.0,-3.0,-4.0,-1.0,0.0,-2.0
1705334987.1139724,-1.0,7.0,16.0,-1.0,-4.0,-4.0,-4.0,0.0
1705334987.1336164,0.0,2.0,5.0,7.0,0.0,0.0,-1.0,-1.0
1705334987.1336164,-1.0,0.0,-3.0,-8.0,0.0,-1.0,0.0,-1.0
1705334987.1336164,0.0,-3.0,-14.0,5.0,1.0,-1.0,1.0,-1.0
1705334987.1336164,0.0,-8.0,7.0,-3.0,-1.0,0.0,-1.0,0.0
1705334987.1536036,-4.0,-3.0,-19.0,-10.0,-5.0,-4.0,-3.0,-2.0
1705334987.1536036,-1.0,0.0,-5.0,-9.0,-5.0,-5.0,-3.0,-1.0
1705334987.1536036,-3.0,-2.0,8.0,3.0,1.0,0.0,-2.0,-1.0
1705334987.1536036,-3.0,4.0,-12.0,7.0,11.0,7.0,1.0,0.0
1705334987.1739538,1.0,4.0,24.0,0.0,3.0,-1.0,0.0,-1.0
1705334987.1739538,-1.0,8.0,-9.0,0.0,-7.0,-5.0,-1.0,-1.0
1705334987.1739538,-1.0,2.0,-6.0,0.0,-4.0,-2.0,-1.0,0.0
1705334987.1739538,-1.0,1.0,18.0,-1.0,-6.0,0.0,1.0,-2.0
1705334987.19361,-2.0,-4.0,-10.0,0.0,1.0,0.0,-1.0,0.0
1705334987.19361,-1.0,-1.0,-4.0,1.0,3.0,1.0,0.0,-2.0
1705334987.213605,0.0,-3.0,0.0,-3.0,0.0,2.0,2.0,-1.0
1705334987.213605,0.0,-6.0,-5.0,-8.0,-6.0,-4.0,-4.0,-1.0
1705334987.213605,-1.0,17.0,11.0,-9.0,-9.0,-12.0,-10.0,-4.0
1705334987.213605,-12.0,-1.0,8.0,3.0,-1.0,12.0,1.0,-5.0
1705334987.213605,2.0,-5.0,23.0,14.0,9.0,12.0,10.0,2.0
1705334987.213605,0.0,-8.0,-36.0,-7.0,2.0,-1.0,2.0,-1.0
1705334987.2340362,-2.0,-9.0,-8.0,4.0,0.0,0.0,-1.0,-2.0
1705334987.2340362,2.0,-5.0,11.0,-2.0,-3.0,-6.0,-6.0,-1.0
1705334987.2340362,-3.0,3.0,-3.0,-5.0,-3.0,-5.0,-4.0,-2.0
1705334987.2340362,-1.0,-5.0,-4.0,3.0,0.0,3.0,0.0,1.0
1705334987.243605,2.0,0.0,22.0,-1.0,-4.0,-3.0,-1.0,-1.0
1705334987.243605,-1.0,-3.0,-17.0,-9.0,1.0,-2.0,0.0,0.0
1705334987.2536316,0.0,-5.0,-1.0,-3.0,-1.0,-3.0,-7.0,-2.0
1705334987.2536316,2.0,4.0,20.0,7.0,3.0,-4.0,3.0,-2.0
1705334987.2740629,-2.0,-2.0,-29.0,-2.0,1.0,8.0,-3.0,-1.0
1705334987.2740629,1.0,2.0,12.0,2.0,-4.0,-7.0,2.0,-1.0
1705334987.2740629,0.0,4.0,13.0,-2.0,-10.0,-19.0,-6.0,-1.0
1705334987.2740629,-2.0,-4.0,-15.0,-9.0,-2.0,12.0,6.0,-1.0
1705334987.293926,-2.0,-23.0,-16.0,-1.0,7.0,16.0,15.0,0.0
1705334987.293926,3.0,-5.0,-8.0,4.0,2.0,-5.0,-2.0,0.0
1705334987.293926,-1.0,-1.0,11.0,-3.0,-2.0,-6.0,-5.0,-2.0
1705334987.293926,-2.0,1.0,5.0,1.0,-8.0,-27.0,-15.0,-1.0
1705334987.303606,-3.0,-2.0,-13.0,-4.0,-3.0,13.0,8.0,-4.0
1705334987.303606,2.0,-2.0,18.0,0.0,1.0,-2.0,-1.0,2.0
1705334987.313638,-1.0,-2.0,-10.0,-5.0,-6.0,-20.0,-14.0,-4.0
1705334987.313638,-16.0,-4.0,-5.0,1.0,-2.0,-12.0,-1.0,-9.0
1705334987.3340588,7.0,-5.0,3.0,5.0,6.0,29.0,13.0,7.0
1705334987.3340588,1.0,5.0,-22.0,-2.0,-2.0,-7.0,-6.0,-8.0
1705334987.3340588,2.0,7.0,-16.0,-13.0,1.0,9.0,0.0,3.0
1705334987.3340588,4.0,-4.0,-5.0,-2.0,0.0,-2.0,-3.0,5.0
1705334987.354048,-5.0,7.0,26.0,9.0,-1.0,-14.0,-7.0,-4.0
1705334987.354048,-2.0,2.0,-9.0,-1.0,-1.0,5.0,1.0,-1.0
1705334987.354048,-5.0,-9.0,-7.0,-5.0,-6.0,-11.0,-6.0,-3.0
1705334987.354048,-2.0,5.0,-4.0,4.0,6.0,34.0,16.0,0.0
1705334987.373603,-5.0,-10.0,-6.0,-10.0,-1.0,-8.0,0.0,-1.0
1705334987.373603,4.0,0.0,7.0,6.0,1.0,2.0,-3.0,6.0
1705334987.373603,-2.0,9.0,14.0,3.0,0.0,-4.0,0.0,-3.0
1705334987.373603,-3.0,-2.0,-7.0,-6.0,-8.0,-24.0,-12.0,-14.0
1705334987.3940465,5.0,-1.0,8.0,4.0,5.0,23.0,6.0,-4.0
1705334987.3940465,-2.0,5.0,-7.0,-3.0,-2.0,-7.0,-1.0,5.0
1705334987.3940465,-10.0,0.0,-2.0,2.0,-2.0,2.0,-1.0,-3.0
1705334987.3940465,9.0,3.0,2.0,6.0,0.0,-2.0,-3.0,5.0
1705334987.4140556,-2.0,4.0,11.0,-11.0,-5.0,-25.0,-23.0,-3.0
1705334987.4140556,-3.0,7.0,-19.0,-6.0,4.0,18.0,21.0,-3.0
1705334987.4140556,10.0,-10.0,7.0,3.0,2.0,7.0,7.0,5.0
1705334987.4140556,-9.0,2.0,9.0,0.0,-2.0,3.0,-5.0,-8.0
1705334987.4236054,-2.0,2.0,-10.0,-1.0,-7.0,-19.0,-8.0,7.0
1705334987.4236054,-2.0,10.0,15.0,-1.0,0.0,3.0,-6.0,-4.0
1705334987.4336042,-6.0,2.0,-12.0,2.0,1.0,4.0,0.0,-2.0
1705334987.4336042,5.0,4.0,32.0,5.0,-1.0,2.0,8.0,6.0
1705334987.4540124,-2.0,5.0,-4.0,-1.0,-2.0,-2.0,-7.0,-3.0
1705334987.4540124,-5.0,1.0,-28.0,-3.0,-3.0,-5.0,-5.0,2.0
1705334987.4540124,0.0,1.0,-8.0,-6.0,0.0,4.0,3.0,-1.0
1705334987.4540124,-1.0,-7.0,-7.0,-8.0,0.0,0.0,-2.0,-1.0
1705334987.4736063,0.0,7.0,13.0,5.0,-3.0,-15.0,-3.0,0.0
1705334987.4736063,2.0,4.0,-3.0,1.0,-3.0,-4.0,-7.0,-2.0
1705334987.4736063,-2.0,-4.0,-7.0,-4.0,5.0,23.0,13.0,-1.0
1705334987.4736063,2.0,1.0,-3.0,-5.0,-4.0,-10.0,-7.0,2.0
1705334987.4936087,-4.0,4.0,-4.0,-5.0,-1.0,1.0,0.0,-1.0
1705334987.4936087,-2.0,8.0,3.0,-1.0,-2.0,-1.0,8.0,1.0
1705334987.4936087,-3.0,0.0,-2.0,6.0,3.0,9.0,-2.0,-10.0
1705334987.4936087,2.0,2.0,7.0,1.0,-2.0,-8.0,-10.0,3.0
1705334987.5139456,1.0,5.0,-4.0,-3.0,1.0,18.0,15.0,-2.0
1705334987.5139456,-3.0,1.0,8.0,2.0,-4.0,-13.0,-12.0,-2.0
1705334987.5139456,-3.0,9.0,-6.0,-3.0,-3.0,-5.0,-1.0,2.0
1705334987.5139456,-1.0,1.0,-10.0,0.0,2.0,6.0,3.0,-2.0
1705334987.5436034,0.0,-4.0,3.0,1.0,-6.0,-10.0,-10.0,-2.0
1705334987.5436034,0.0,2.0,-4.0,-4.0,0.0,-1.0,0.0,1.0
1705334987.5436034,-1.0,1.0,1.0,1.0,6.0,13.0,7.0,0.0
1705334987.5436034,0.0,2.0,9.0,2.0,-1.0,-2.0,0.0,1.0
1705334987.5538595,-2.0,0.0,-12.0,-3.0,-4.0,-15.0,-2.0,-2.0
1705334987.5538595,-2.0,-11.0,8.0,0.0,-2.0,4.0,-3.0,-4.0
1705334987.563609,2.0,-1.0,3.0,0.0,-3.0,-3.0,1.0,0.0
1705334987.563609,-1.0,-1.0,-1.0,3.0,0.0,-1.0,-2.0,0.0
1705334987.573934,-1.0,2.0,-4.0,-5.0,-3.0,2.0,0.0,0.0
1705334987.573934,-1.0,2.0,-6.0,-2.0,-1.0,1.0,2.0,-4.0
1705334987.573934,1.0,1.0,6.0,-7.0,-3.0,-10.0,-6.0,0.0
1705334987.573934,-2.0,-2.0,6.0,3.0,0.0,7.0,5.0,-1.0
1705334987.603608,-2.0,-1.0,5.0,4.0,1.0,-4.0,-2.0,-3.0
1705334987.603608,-2.0,-1.0,-27.0,-6.0,-1.0,-12.0,-15.0,-3.0
1705334987.603608,0.0,1.0,-4.0,1.0,0.0,8.0,10.0,1.0
1705334987.603608,0.0,0.0,15.0,-5.0,-1.0,3.0,2.0,-1.0
1705334987.6222658,-1.0,0.0,-3.0,0.0,-1.0,-5.0,-2.0,-2.0
1705334987.6222658,0.0,-13.0,14.0,-1.0,-2.0,0.0,-1.0,0.0
1705334987.6222658,-1.0,-8.0,-31.0,-1.0,-3.0,-8.0,-6.0,-1.0
1705334987.6222658,0.0,-2.0,-13.0,-3.0,-1.0,1.0,1.0,2.0
1705334987.6367707,-1.0,-15.0,34.0,3.0,2.0,5.0,2.0,0.0
1705334987.6367707,-2.0,-6.0,-38.0,-5.0,-4.0,-1.0,2.0,-2.0
1705334987.6367707,-1.0,-7.0,3.0,-2.0,-5.0,-5.0,-4.0,-2.0
1705334987.6367707,-1.0,0.0,-8.0,-1.0,-1.0,1.0,0.0,-3.0
1705334987.6567686,0.0,3.0,-9.0,-2.0,-1.0,-3.0,-4.0,-1.0
1705334987.6567686,-1.0,-1.0,27.0,4.0,0.0,3.0,3.0,-1.0
1705334987.6567686,-1.0,-2.0,-3.0,0.0,-3.0,-12.0,-8.0,-2.0
1705334987.6567686,-4.0,4.0,-6.0,-6.0,2.0,-3.0,0.0,-1.0
1705334987.6767795,-1.0,-4.0,-7.0,5.0,4.0,8.0,5.0,0.0
1705334987.6767795,0.0,-13.0,18.0,-2.0,1.0,4.0,0.0,-2.0
1705334987.6767795,0.0,9.0,31.0,13.0,1.0,-1.0,-2.0,1.0
1705334987.6767795,-1.0,2.0,-24.0,1.0,-1.0,-6.0,-3.0,-1.0
1705334987.7067814,-6.0,-15.0,3.0,-13.0,-7.0,-11.0,-5.0,-3.0
1705334987.7067814,-1.0,-9.0,-40.0,-19.0,-5.0,1.0,3.0,2.0
1705334987.7067814,2.0,-4.0,27.0,10.0,0.0,-4.0,-5.0,1.0
1705334987.7067814,2.0,-5.0,37.0,3.0,0.0,4.0,0.0,-1.0
1705334987.714669,-2.0,15.0,-39.0,-8.0,-1.0,-3.0,-2.0,-2.0
1705334987.714669,1.0,0.0,86.0,29.0,6.0,4.0,2.0,-1.0
1705334987.714669,-3.0,-8.0,-93.0,-28.0,-4.0,-1.0,1.0,-1.0
1705334987.714669,0.0,8.0,88.0,0.0,-6.0,-3.0,-4.0,0.0
1705334987.7350945,-1.0,1.0,-11.0,3.0,-2.0,-3.0,-3.0,-1.0
1705334987.7350945,-2.0,-14.0,-46.0,-15.0,-5.0,-10.0,-6.0,-4.0
1705334987.7350945,2.0,4.0,11.0,7.0,5.0,5.0,4.0,-2.0
1705334987.7350945,0.0,-12.0,-24.0,10.0,2.0,3.0,6.0,-2.0
1705334987.754679,-3.0,-3.0,58.0,-15.0,-8.0,-9.0,-6.0,-2.0
1705334987.754679,-1.0,8.0,36.0,28.0,5.0,0.0,-1.0,-1.0
1705334987.754679,-2.0,-13.0,-37.0,-24.0,-7.0,-2.0,-1.0,-1.0
1705334987.754679,-3.0,-6.0,-49.0,-13.0,-4.0,-3.0,-4.0,-3.0
1705334987.774936,1.0,2.0,19.0,3.0,2.0,-4.0,-3.0,0.0
1705334987.774936,0.0,-2.0,-23.0,-4.0,2.0,7.0,4.0,0.0
1705334987.774936,1.0,-4.0,-18.0,9.0,3.0,7.0,6.0,2.0
1705334987.774936,-3.0,7.0,43.0,5.0,-3.0,-9.0,-5.0,-2.0
1705334987.7949986,-3.0,0.0,-44.0,-13.0,1.0,4.0,1.0,0.0
1705334987.7949986,-2.0,3.0,7.0,-4.0,4.0,-1.0,-2.0,1.0
1705334987.7949986,-2.0,1.0,19.0,2.0,-6.0,-4.0,-3.0,-1.0
1705334987.7949986,-2.0,-1.0,10.0,-7.0,-13.0,-18.0,-14.0,-4.0
1705334987.8148377,1.0,-10.0,26.0,20.0,1.0,21.0,13.0,-1.0
1705334987.8148377,0.0,-1.0,-8.0,1.0,9.0,6.0,4.0,1.0
1705334987.8148377,-1.0,-6.0,0.0,-1.0,-1.0,-5.0,-2.0,-1.0
1705334987.8148377,1.0,3.0,-44.0,-7.0,1.0,-7.0,-11.0,0.0
1705334987.8446772,-2.0,-1.0,1.0,2.0,-1.0,6.0,8.0,-3.0
1705334987.8446772,0.0,-13.0,-13.0,-3.0,-4.0,-6.0,-4.0,-2.0
1705334987.8446772,3.0,3.0,31.0,2.0,2.0,17.0,8.0,0.0
1705334987.8446772,-3.0,3.0,-36.0,-6.0,-5.0,-4.0,-1.0,-2.0
1705334987.8646774,-1.0,7.0,-13.0,-2.0,-3.0,-15.0,-8.0,-2.0
1705334987.8646774,0.0,5.0,24.0,1.0,-7.0,-5.0,-5.0,-1.0
1705334987.8646774,-2.0,7.0,35.0,1.0,-1.0,-6.0,-6.0,-1.0
1705334987.8646774,-1.0,-6.0,-22.0,0.0,6.0,8.0,5.0,-1.0
1705334987.8750482,1.0,-8.0,-5.0,-2.0,-6.0,-14.0,-11.0,-2.0
1705334987.8750482,-4.0,7.0,0.0,-5.0,-13.0,-9.0,-5.0,-2.0
1705334987.8750482,-1.0,1.0,-4.0,2.0,3.0,4.0,1.0,-1.0
1705334987.8750482,0.0,-5.0,-16.0,4.0,10.0,19.0,10.0,1.0
1705334987.8951218,0.0,1.0,-15.0,-4.0,4.0,-1.0,0.0,-2.0
1705334987.8951218,0.0,-1.0,40.0,9.0,5.0,1.0,-1.0,-3.0
1705334987.8951218,-4.0,0.0,-48.0,-9.0,-12.0,-18.0,-9.0,-3.0
1705334987.8951218,-2.0,-4.0,17.0,-2.0,-4.0,-7.0,-6.0,-1.0
1705334987.9246776,0.0,0.0,6.0,-1.0,-5.0,-2.0,-1.0,0.0
1705334987.9246776,-1.0,-11.0,-27.0,-9.0,-6.0,-3.0,-2.0,-3.0
1705334987.9246776,-1.0,-1.0,21.0,2.0,1.0,-3.0,2.0,-2.0
1705334987.9246776,0.0,-4.0,0.0,-2.0,0.0,1.0,2.0,0.0
1705334987.9347105,0.0,-11.0,-13.0,-2.0,1.0,-2.0,-5.0,-2.0
1705334987.9347105,-1.0,0.0,-8.0,-4.0,-2.0,-5.0,-3.0,-1.0
1705334987.9347105,-1.0,-2.0,9.0,6.0,3.0,8.0,0.0,1.0
1705334987.9347105,-3.0,0.0,-8.0,-5.0,-9.0,-21.0,-11.0,-3.0
1705334987.9550204,0.0,5.0,0.0,3.0,4.0,25.0,13.0,3.0
1705334987.9550204,-3.0,-1.0,-6.0,-1.0,0.0,-15.0,-2.0,0.0
1705334987.9550204,-1.0,-6.0,8.0,-1.0,0.0,12.0,5.0,-1.0
1705334987.9550204,2.0,-4.0,-14.0,-3.0,1.0,3.0,-1.0,-1.0
1705334987.994681,-3.0,4.0,-1.0,-2.0,-6.0,-17.0,-11.0,-3.0
1705334987.994681,1.0,-11.0,-5.0,1.0,0.0,2.0,2.0,-1.0
1705334987.994681,-2.0,2.0,1.0,-1.0,2.0,0.0,1.0,-1.0
1705334987.994681,-1.0,8.0,3.0,-3.0,0.0,0.0,1.0,0.0
1705334987.994681,0.0,0.0,2.0,3.0,4.0,0.0,-5.0,-1.0
1705334987.994681,-4.0,2.0,-7.0,-7.0,-8.0,-8.0,-5.0,-5.0
1705334987.994681,-1.0,0.0,9.0,0.0,1.0,3.0,3.0,0.0
1705334987.994681,1.0,-4.0,0.0,3.0,0.0,-6.0,-1.0,-2.0
1705334988.01488,-2.0,8.0,-11.0,0.0,-3.0,-4.0,-4.0,-2.0
1705334988.01488,1.0,-2.0,0.0,-3.0,-5.0,-2.0,2.0,1.0
1705334988.01488,1.0,1.0,2.0,-4.0,2.0,0.0,-1.0,-1.0
1705334988.01488,-2.0,7.0,7.0,6.0,7.0,6.0,4.0,0.0
1705334988.044677,1.0,-8.0,14.0,-2.0,-4.0,-11.0,-7.0,0.0
1705334988.044677,0.0,-2.0,-9.0,-1.0,-2.0,1.0,-3.0,-2.0
1705334988.044677,-2.0,6.0,3.0,0.0,-4.0,-3.0,-6.0,-2.0
1705334988.044677,0.0,-9.0,-1.0,-4.0,1.0,4.0,3.0,0.0
1705334988.054735,-1.0,7.0,2.0,4.0,2.0,-2.0,2.0,-2.0
1705334988.054735,0.0,7.0,18.0,4.0,4.0,19.0,7.0,3.0
1705334988.054735,-2.0,3.0,-6.0,-3.0,-8.0,-19.0,-14.0,-3.0
1705334988.054735,1.0,10.0,-7.0,-2.0,5.0,30.0,16.0,1.0
1705334988.0750628,-4.0,3.0,-11.0,-3.0,1.0,12.0,2.0,-2.0
1705334988.0750628,0.0,5.0,-1.0,3.0,6.0,23.0,12.0,2.0
1705334988.0750628,-2.0,0.0,7.0,1.0,2.0,13.0,5.0,0.0
1705334988.0750628,-2.0,-1.0,-1.0,1.0,-4.0,-11.0,-5.0,0.0
1705334988.0948503,-3.0,-11.0,-5.0,-4.0,-2.0,-11.0,-5.0,-2.0
1705334988.0948503,-3.0,1.0,-7.0,-3.0,-4.0,3.0,0.0,-1.0
1705334988.104678,-1.0,-5.0,3.0,-1.0,-4.0,-8.0,-2.0,-1.0
1705334988.104678,-3.0,-20.0,-8.0,1.0,0.0,2.0,-4.0,-1.0
1705334988.1147113,0.0,-8.0,8.0,2.0,0.0,-1.0,4.0,-1.0
1705334988.1147113,10.0,4.0,-18.0,-1.0,0.0,-5.0,-2.0,-2.0
1705334988.1147113,-13.0,-7.0,-36.0,-21.0,0.0,-6.0,-4.0,-1.0
1705334988.124683,-2.0,-2.0,-3.0,-2.0,-5.0,-5.0,-1.0,-2.0
1705334988.1350977,0.0,-2.0,4.0,2.0,-1.0,-3.0,-1.0,0.0
1705334988.1350977,-3.0,10.0,16.0,1.0,-4.0,-3.0,-4.0,-2.0
1705334988.1350977,5.0,9.0,-11.0,-2.0,0.0,-8.0,-4.0,-1.0
1705334988.1350977,-6.0,19.0,7.0,-11.0,-1.0,-6.0,1.0,0.0
1705334988.1613202,4.0,13.0,45.0,22.0,8.0,19.0,4.0,-3.0
1705334988.1622615,-14.0,-14.0,-90.0,-6.0,1.0,-5.0,-2.0,-1.0
1705334988.1622615,2.0,4.0,5.0,12.0,2.0,2.0,2.0,0.0
1705334988.1622615,0.0,-4.0,36.0,6.0,-3.0,-12.0,-8.0,-3.0
1705334988.1695096,0.0,-6.0,-14.0,-13.0,-9.0,-4.0,-2.0,0.0
1705334988.1695096,2.0,2.0,37.0,7.0,0.0,-3.0,-1.0,-1.0
1705334988.1797695,0.0,-8.0,-8.0,-7.0,2.0,-4.0,-4.0,-3.0
1705334988.1797695,4.0,2.0,-14.0,-1.0,2.0,8.0,2.0,-1.0
1705334988.1995115,-3.0,13.0,9.0,-3.0,-1.0,-5.0,-2.0,1.0
1705334988.1995115,2.0,-11.0,-10.0,-5.0,-3.0,-9.0,-8.0,0.0
1705334988.1995115,0.0,6.0,-1.0,-1.0,-7.0,-11.0,-3.0,-1.0
1705334988.1995115,-1.0,3.0,10.0,7.0,6.0,-5.0,-1.0,-1.0
1705334988.2195103,3.0,2.0,-7.0,-5.0,-3.0,-2.0,1.0,-1.0
1705334988.2195103,-1.0,14.0,-4.0,-9.0,4.0,12.0,8.0,0.0
1705334988.2195103,-2.0,1.0,25.0,6.0,0.0,0.0,-2.0,-1.0
1705334988.2195103,-1.0,-1.0,15.0,2.0,-10.0,-21.0,-10.0,-4.0
1705334988.2295337,-2.0,-6.0,-41.0,-3.0,2.0,10.0,0.0,0.0
1705334988.2295337,0.0,9.0,13.0,-8.0,-2.0,-4.0,0.0,-1.0
1705334988.2398818,-1.0,-7.0,-1.0,4.0,3.0,3.0,1.0,-1.0
1705334988.2398818,-2.0,-14.0,-31.0,-10.0,-7.0,-2.0,-2.0,-1.0
1705334988.2498908,-4.0,-12.0,20.0,-5.0,-4.0,-7.0,-3.0,-2.0
1705334988.2498908,-1.0,-1.0,29.0,16.0,7.0,3.0,0.0,0.0
1705334988.2595096,3.0,-2.0,-11.0,-12.0,1.0,7.0,2.0,-1.0
1705334988.2595096,0.0,-3.0,-16.0,4.0,4.0,3.0,1.0,0.0
1705334988.27954,0.0,-16.0,-2.0,-6.0,-5.0,-9.0,-1.0,-2.0
1705334988.27954,-4.0,15.0,1.0,7.0,-5.0,9.0,0.0,-5.0
1705334988.27954,-2.0,-10.0,-8.0,-1.0,-4.0,-19.0,-8.0,-3.0
1705334988.27954,-1.0,-10.0,-34.0,-9.0,-3.0,1.0,-3.0,0.0
1705334988.2898297,0.0,2.0,-12.0,-5.0,5.0,3.0,5.0,4.0
1705334988.2898297,-4.0,3.0,25.0,-6.0,-5.0,-13.0,-5.0,-3.0
1705334988.2998753,3.0,11.0,11.0,5.0,1.0,7.0,6.0,0.0
1705334988.2998753,-2.0,10.0,6.0,3.0,0.0,-3.0,-4.0,-3.0
1705334988.3195398,2.0,-9.0,-5.0,5.0,5.0,18.0,8.0,2.0
1705334988.3195398,-2.0,8.0,-3.0,-9.0,-8.0,-13.0,-7.0,-2.0
1705334988.3195398,-3.0,-8.0,6.0,5.0,1.0,-8.0,-4.0,-2.0
1705334988.3195398,-1.0,-15.0,6.0,-2.0,6.0,20.0,13.0,2.0
1705334988.3399603,-2.0,-3.0,-14.0,0.0,-1.0,-12.0,-7.0,-3.0
1705334988.3399603,1.0,-14.0,-14.0,-6.0,-5.0,-25.0,-14.0,-2.0
1705334988.3399603,5.0,7.0,29.0,0.0,-10.0,-13.0,-7.0,-2.0
1705334988.3399603,-1.0,-3.0,-41.0,1.0,9.0,53.0,31.0,6.0
1705334988.3599532,-6.0,6.0,15.0,-2.0,4.0,-7.0,-2.0,-1.0
1705334988.3599532,1.0,-4.0,3.0,2.0,2.0,1.0,4.0,0.0
1705334988.3599532,-4.0,-3.0,-60.0,-9.0,-6.0,-36.0,-26.0,-4.0
1705334988.3599532,4.0,-5.0,3.0,3.0,-5.0,7.0,2.0,-2.0
1705334988.3695073,3.0,-1.0,19.0,0.0,-3.0,8.0,3.0,0.0
1705334988.3695073,-3.0,-18.0,-8.0,-1.0,1.0,-2.0,-1.0,0.0
1705334988.3795054,-1.0,-4.0,32.0,6.0,1.0,6.0,7.0,2.0
1705334988.3795054,-4.0,-7.0,0.0,-6.0,-5.0,-20.0,-13.0,-1.0
1705334988.3997715,-3.0,-5.0,-10.0,3.0,-6.0,-16.0,-10.0,-3.0
1705334988.3997715,0.0,-3.0,7.0,-4.0,-9.0,-36.0,-9.0,-1.0
1705334988.3997715,0.0,9.0,9.0,9.0,22.0,88.0,36.0,6.0
1705334988.3997715,-1.0,9.0,6.0,-1.0,-3.0,-18.0,-5.0,-4.0
1705334988.4095106,1.0,3.0,-2.0,-1.0,-3.0,3.0,-2.0,-1.0
1705334988.4095106,1.0,-3.0,-10.0,-4.0,-4.0,-16.0,-14.0,-9.0
1705334988.4197583,-7.0,7.0,-7.0,-4.0,-7.0,-29.0,-11.0,1.0
1705334988.4197583,-1.0,-1.0,6.0,-2.0,2.0,30.0,16.0,12.0
1705334988.4395123,5.0,-1.0,-7.0,-2.0,-3.0,-17.0,-12.0,-2.0
1705334988.4395123,21.0,-5.0,-6.0,3.0,2.0,16.0,16.0,9.0
1705334988.4395123,12.0,5.0,-4.0,-7.0,-7.0,-34.0,-24.0,-10.0
1705334988.4395123,-60.0,-8.0,-11.0,2.0,13.0,47.0,19.0,-4.0
1705334988.4598017,-9.0,-9.0,1.0,-6.0,-7.0,-14.0,-6.0,-15.0
1705334988.4598017,-4.0,8.0,6.0,-4.0,-2.0,4.0,-6.0,0.0
1705334988.4695122,8.0,-3.0,14.0,5.0,5.0,23.0,13.0,1.0
1705334988.4695122,32.0,7.0,5.0,4.0,-5.0,-29.0,-14.0,5.0
1705334988.4695122,3.0,4.0,-4.0,-3.0,1.0,1.0,6.0,4.0
1705334988.4695122,-5.0,-12.0,9.0,6.0,6.0,15.0,4.0,0.0
1705334988.4797559,6.0,-2.0,-14.0,-4.0,-9.0,-20.0,-9.0,1.0
1705334988.4797559,6.0,3.0,6.0,-6.0,-9.0,-31.0,-24.0,-6.0
1705334988.4995127,-10.0,1.0,-4.0,5.0,9.0,37.0,18.0,3.0
1705334988.4995127,-2.0,-12.0,-3.0,-8.0,-10.0,-48.0,-25.0,-5.0
1705334988.4995127,-12.0,-10.0,-5.0,0.0,6.0,40.0,33.0,2.0
1705334988.4995127,0.0,-2.0,4.0,-2.0,-7.0,-34.0,-18.0,-7.0
1705334988.5195074,4.0,1.0,-2.0,0.0,0.0,-1.0,5.0,2.0
1705334988.5195074,-4.0,-1.0,-5.0,0.0,3.0,22.0,9.0,0.0
1705334988.5195074,-8.0,0.0,1.0,-1.0,-3.0,-2.0,-10.0,-3.0
1705334988.5195074,1.0,-2.0,4.0,2.0,-3.0,-15.0,-4.0,-3.0
1705334988.5398893,13.0,-5.0,-6.0,-9.0,-11.0,-31.0,-13.0,2.0
1705334988.5398893,1.0,3.0,-4.0,0.0,2.0,18.0,4.0,0.0
1705334988.5398893,-23.0,-9.0,-1.0,2.0,3.0,9.0,6.0,-6.0
1705334988.5398893,10.0,3.0,3.0,-3.0,-2.0,-10.0,-2.0,-5.0
1705334988.549509,-18.0,-1.0,-7.0,-2.0,-8.0,-25.0,-11.0,3.0
1705334988.549509,7.0,-2.0,13.0,2.0,5.0,34.0,17.0,0.0
1705334988.559506,-16.0,-2.0,-9.0,4.0,1.0,-2.0,-5.0,-2.0
1705334988.559506,1.0,1.0,-12.0,-10.0,-6.0,-22.0,-8.0,-4.0
1705334988.5795584,2.0,-4.0,2.0,3.0,3.0,23.0,0.0,0.0
1705334988.5795584,-1.0,-2.0,-8.0,-4.0,-6.0,-24.0,-20.0,-2.0
1705334988.5795584,10.0,7.0,7.0,1.0,3.0,31.0,25.0,5.0
1705334988.5795584,5.0,-8.0,6.0,3.0,-2.0,-8.0,-7.0,0.0
1705334988.5995066,-6.0,-4.0,-7.0,-1.0,-3.0,-32.0,-4.0,-3.0
1705334988.5995066,3.0,7.0,-1.0,3.0,13.0,79.0,30.0,4.0
1705334988.5995066,11.0,-3.0,0.0,-6.0,-13.0,-41.0,-17.0,-2.0
1705334988.5995066,-7.0,-6.0,0.0,3.0,6.0,14.0,6.0,-8.0
1705334988.609875,-26.0,-12.0,-2.0,0.0,-2.0,-16.0,-8.0,20.0
1705334988.6195102,-8.0,-11.0,-6.0,-2.0,-6.0,-15.0,-18.0,-29.0
1705334988.6195102,0.0,-1.0,-1.0,-4.0,-5.0,-10.0,-6.0,-2.0
1705334988.6195102,15.0,-1.0,2.0,-3.0,-8.0,-14.0,2.0,1.0
1705334988.6399486,11.0,9.0,-1.0,3.0,4.0,34.0,11.0,4.0
1705334988.6399486,-8.0,-4.0,-6.0,-2.0,1.0,-5.0,11.0,8.0
1705334988.6399486,0.0,-5.0,-2.0,-2.0,1.0,-3.0,-7.0,-3.0
1705334988.6399486,2.0,0.0,4.0,3.0,1.0,-17.0,-13.0,1.0
1705334988.6595087,-2.0,-3.0,-2.0,-1.0,0.0,6.0,-1.0,-26.0
1705334988.6595087,-6.0,3.0,-2.0,1.0,-2.0,7.0,7.0,5.0
1705334988.6595087,10.0,-1.0,0.0,-4.0,-11.0,-37.0,-9.0,11.0
1705334988.6595087,-1.0,5.0,4.0,2.0,8.0,40.0,17.0,12.0
1705334988.679063,4.0,-10.0,1.0,3.0,9.0,20.0,15.0,-4.0
1705334988.679063,2.0,3.0,-3.0,-3.0,1.0,-9.0,-13.0,-11.0
1705334988.679063,-20.0,1.0,0.0,-3.0,-6.0,-17.0,-7.0,-13.0
1705334988.679063,14.0,4.0,-2.0,-1.0,-2.0,-12.0,-3.0,36.0
1705334988.7022471,-16.0,-1.0,-3.0,-2.0,-3.0,6.0,-7.0,-41.0
1705334988.7022471,8.0,5.0,2.0,0.0,-3.0,-20.0,-9.0,10.0
1705334988.7022471,-25.0,-8.0,-2.0,-1.0,0.0,16.0,9.0,-2.0
1705334988.7022471,-14.0,-6.0,-3.0,-4.0,0.0,13.0,5.0,-4.0
1705334988.722258,13.0,1.0,2.0,-1.0,-7.0,-18.0,-26.0,9.0
1705334988.722258,1.0,7.0,-1.0,3.0,19.0,54.0,53.0,-14.0
1705334988.722258,9.0,-3.0,0.0,-1.0,-5.0,-7.0,-3.0,6.0
1705334988.722258,1.0,-1.0,-2.0,-5.0,-5.0,-13.0,-6.0,-9.0
1705334988.7297695,0.0,-13.0,-2.0,-5.0,-16.0,-17.0,-10.0,-2.0
1705334988.7297695,-4.0,-14.0,-1.0,2.0,1.0,5.0,6.0,3.0
1705334988.7397923,2.0,-1.0,0.0,3.0,12.0,-4.0,-18.0,-3.0
1705334988.7397923,0.0,-4.0,1.0,7.0,12.0,23.0,18.0,-6.0
1705334988.7697825,-2.0,1.0,-5.0,-9.0,-12.0,-38.0,-24.0,-2.0
1705334988.7697825,7.0,-14.0,-3.0,-1.0,-6.0,-10.0,-5.0,9.0
1705334988.7697825,-2.0,-4.0,0.0,-2.0,-2.0,13.0,2.0,-3.0
1705334988.7697825,-11.0,-8.0,-1.0,-5.0,-8.0,-19.0,-17.0,-17.0
1705334988.7800198,0.0,6.0,-1.0,-4.0,-6.0,-18.0,-11.0,3.0
1705334988.7800198,-6.0,7.0,0.0,0.0,0.0,0.0,4.0,4.0
1705334988.7800198,18.0,4.0,1.0,-1.0,5.0,19.0,16.0,5.0
1705334988.7800198,3.0,4.0,-1.0,-3.0,-5.0,-2.0,-17.0,-4.0
1705334988.7900293,6.0,-6.0,1.0,2.0,0.0,-10.0,-9.0,2.0
1705334988.7998285,-3.0,15.0,1.0,2.0,16.0,70.0,52.0,11.0
1705334988.7998285,-12.0,-5.0,-3.0,-6.0,-8.0,-26.0,-14.0,-12.0
1705334988.7998285,-3.0,0.0,0.0,1.0,-2.0,-11.0,-10.0,-3.0
1705334988.8297815,4.0,-6.0,-1.0,6.0,12.0,34.0,30.0,7.0
1705334988.8297815,-4.0,-2.0,3.0,0.0,-1.0,-35.0,-27.0,-1.0
1705334988.8297815,3.0,1.0,-2.0,2.0,-4.0,-15.0,-10.0,-1.0
1705334988.8297815,-5.0,5.0,-1.0,0.0,0.0,6.0,19.0,-3.0
1705334988.839807,8.0,-3.0,-2.0,-8.0,-8.0,-5.0,4.0,4.0
1705334988.839807,-11.0,-19.0,-4.0,-1.0,-14.0,-38.0,-28.0,-6.0
1705334988.839807,-5.0,1.0,0.0,-1.0,10.0,21.0,10.0,-1.0
1705334988.839807,-2.0,-6.0,0.0,1.0,2.0,-11.0,-9.0,-5.0
1705334988.860598,2.0,1.0,-2.0,4.0,1.0,-1.0,-12.0,-2.0
1705334988.860598,2.0,-5.0,-5.0,-8.0,-11.0,-11.0,-4.0,1.0
1705334988.860598,-2.0,0.0,0.0,-1.0,-7.0,7.0,2.0,3.0
1705334988.860598,-5.0,-4.0,2.0,-1.0,-1.0,-6.0,-2.0,-6.0
1705334988.8802438,3.0,-8.0,-3.0,-2.0,1.0,-11.0,-2.0,2.0
1705334988.8802438,-8.0,-5.0,-1.0,-1.0,-7.0,-10.0,-13.0,-5.0
1705334988.8802438,3.0,-1.0,-1.0,-2.0,0.0,9.0,0.0,-1.0
1705334988.8802438,-5.0,0.0,-4.0,-3.0,2.0,-1.0,-11.0,-3.0
1705334988.9005823,-1.0,9.0,-1.0,2.0,9.0,21.0,30.0,5.0
1705334988.9005823,1.0,-9.0,-3.0,-3.0,-8.0,-31.0,-29.0,-3.0
1705334988.9005823,11.0,6.0,2.0,2.0,0.0,7.0,2.0,1.0
1705334988.9005823,-5.0,4.0,4.0,4.0,-1.0,18.0,14.0,3.0
1705334988.910577,-4.0,-4.0,1.0,2.0,2.0,3.0,-1.0,0.0
1705334988.910577,0.0,-4.0,0.0,1.0,-1.0,-11.0,-8.0,-5.0
1705334988.910577,-4.0,7.0,-1.0,-6.0,-2.0,-4.0,-5.0,-4.0
1705334988.910577,-1.0,14.0,-4.0,-8.0,-2.0,3.0,7.0,-1.0
1705334988.9402437,-3.0,-2.0,2.0,2.0,3.0,9.0,6.0,-1.0
1705334988.9402437,-7.0,7.0,0.0,-1.0,-2.0,1.0,-5.0,0.0
1705334988.9402437,2.0,-10.0,-3.0,3.0,4.0,-8.0,3.0,-1.0
1705334988.9402437,-1.0,-2.0,-1.0,0.0,-4.0,1.0,-5.0,-3.0
1705334988.9603293,-2.0,0.0,0.0,1.0,-1.0,4.0,-4.0,-2.0
1705334988.9603293,0.0,4.0,-5.0,-7.0,-7.0,-9.0,-6.0,0.0
1705334988.9603293,7.0,10.0,2.0,-1.0,-1.0,-1.0,-5.0,0.0
1705334988.9603293,0.0,-1.0,-2.0,0.0,-6.0,-1.0,-3.0,-1.0
1705334988.9700372,-14.0,3.0,-2.0,-1.0,-2.0,5.0,6.0,0.0
1705334988.9800422,6.0,10.0,2.0,-1.0,8.0,-2.0,-9.0,-1.0
1705334988.9800422,-1.0,2.0,-5.0,1.0,4.0,4.0,3.0,0.0
1705334988.9800422,12.0,4.0,-3.0,-4.0,-5.0,-12.0,-4.0,-2.0
1705334989.0200367,-2.0,-2.0,-1.0,1.0,-3.0,-5.0,4.0,-1.0
1705334989.0200367,-5.0,7.0,-1.0,-2.0,-4.0,-7.0,-5.0,-1.0
1705334989.0200367,-8.0,-1.0,2.0,-2.0,-4.0,-6.0,1.0,-2.0
1705334989.0200367,0.0,-1.0,-3.0,0.0,2.0,5.0,3.0,-2.0
1705334989.0200367,2.0,19.0,-2.0,-3.0,-3.0,-5.0,-10.0,-2.0
1705334989.0200367,3.0,9.0,-2.0,-1.0,0.0,1.0,1.0,3.0
1705334989.0200367,-2.0,14.0,0.0,-1.0,-2.0,-1.0,-2.0,-1.0
1705334989.0200367,-5.0,4.0,0.0,-1.0,-2.0,1.0,-6.0,-3.0
1705334989.0303175,2.0,4.0,-3.0,1.0,5.0,6.0,-1.0,-1.0
1705334989.0303175,-10.0,-20.0,7.0,4.0,2.0,-1.0,6.0,2.0
1705334989.0303175,-1.0,-8.0,0.0,0.0,-2.0,3.0,2.0,-2.0
1705334989.0303175,-3.0,3.0,-1.0,0.0,-1.0,-1.0,0.0,-1.0
1705334989.060033,-1.0,-9.0,-2.0,-6.0,1.0,2.0,4.0,1.0
1705334989.060033,1.0,-6.0,-4.0,2.0,-2.0,-2.0,1.0,-5.0
1705334989.060033,2.0,-4.0,-2.0,5.0,1.0,-8.0,-6.0,-1.0
1705334989.060033,-3.0,8.0,-2.0,-1.0,1.0,3.0,-3.0,1.0
1705334989.080302,1.0,2.0,-2.0,-2.0,-2.0,0.0,1.0,0.0
1705334989.080302,1.0,-7.0,-3.0,-7.0,-3.0,-1.0,-4.0,-3.0
1705334989.080302,0.0,9.0,4.0,-4.0,-3.0,0.0,-1.0,1.0
1705334989.080302,-1.0,-3.0,0.0,0.0,-2.0,3.0,0.0,-2.0
1705334989.0902388,-2.0,5.0,-1.0,-3.0,2.0,6.0,0.0,0.0
1705334989.0902388,0.0,6.0,-4.0,-1.0,0.0,-1.0,-1.0,0.0
1705334989.1200373,0.0,4.0,-2.0,0.0,-3.0,-4.0,-4.0,0.0
1705334989.1200373,-3.0,6.0,1.0,-5.0,-2.0,2.0,2.0,0.0
1705334989.1200373,-1.0,10.0,1.0,-2.0,0.0,-1.0,-1.0,-1.0
1705334989.1200373,-2.0,2.0,-2.0,-11.0,-8.0,-2.0,2.0,-2.0
1705334989.1200373,1.0,-10.0,-5.0,-2.0,-3.0,-2.0,-1.0,-1.0
1705334989.1200373,1.0,-14.0,4.0,15.0,22.0,5.0,1.0,2.0
1705334989.1404328,-2.0,6.0,1.0,-1.0,-9.0,-4.0,-5.0,-1.0
1705334989.1404328,1.0,0.0,1.0,8.0,-7.0,-4.0,-1.0,0.0
1705334989.1404328,-1.0,-10.0,-2.0,-1.0,9.0,2.0,1.0,2.0
1705334989.1404328,1.0,-4.0,-2.0,-4.0,-6.0,-2.0,0.0,2.0
1705334989.1500363,3.0,2.0,-1.0,-6.0,-1.0,-2.0,-2.0,2.0
1705334989.1500363,-2.0,6.0,-1.0,-4.0,-8.0,-3.0,0.0,-3.0
1705334989.160061,-5.0,-14.0,-1.0,-5.0,-3.0,-1.0,-5.0,-6.0
1705334989.160061,1.0,-13.0,0.0,4.0,5.0,1.0,0.0,-4.0
1705334989.1803293,-1.0,-8.0,-1.0,2.0,0.0,-3.0,1.0,-2.0
1705334989.1803293,-1.0,17.0,-2.0,-12.0,-24.0,-14.0,-5.0,-4.0
1705334989.1803293,-1.0,8.0,0.0,-2.0,13.0,7.0,-1.0,-5.0
1705334989.1803293,-2.0,-1.0,-5.0,-3.0,9.0,5.0,1.0,0.0
1705334989.202063,0.0,15.0,0.0,2.0,8.0,7.0,2.0,1.0
1705334989.202063,-1.0,0.0,2.0,6.0,2.0,-2.0,0.0,3.0
1705334989.202063,-4.0,-1.0,0.0,1.0,-2.0,-3.0,-3.0,-1.0
1705334989.202063,-1.0,13.0,-8.0,-15.0,-16.0,-5.0,-1.0,-4.0
1705334989.222065,-4.0,-2.0,-1.0,1.0,-18.0,-9.0,-3.0,-7.0
1705334989.222065,2.0,-1.0,0.0,6.0,10.0,6.0,0.0,-2.0
1705334989.232095,-4.0,1.0,2.0,9.0,-5.0,-1.0,1.0,-5.0
1705334989.232095,5.0,10.0,-4.0,-25.0,-5.0,0.0,-2.0,-6.0
1705334989.241372,-6.0,-19.0,5.0,19.0,4.0,3.0,1.0,-2.0
1705334989.242395,2.0,-17.0,-6.0,-4.0,7.0,3.0,-3.0,1.0
1705334989.242395,1.0,7.0,1.0,-8.0,0.0,2.0,0.0,6.0
1705334989.242395,-1.0,0.0,-6.0,15.0,-3.0,-6.0,-5.0,2.0
1705334989.2919302,-8.0,-5.0,7.0,-7.0,-5.0,-1.0,0.0,6.0
1705334989.2919302,3.0,-8.0,-9.0,-16.0,2.0,-2.0,-2.0,-1.0
1705334989.2919302,-9.0,-20.0,-2.0,-1.0,0.0,-2.0,0.0,2.0
1705334989.2919302,4.0,-8.0,-9.0,-3.0,-4.0,-6.0,-2.0,-1.0
1705334989.2919302,-8.0,2.0,8.0,8.0,7.0,2.0,6.0,3.0
1705334989.2919302,6.0,3.0,-3.0,1.0,1.0,-6.0,-3.0,-3.0
1705334989.2919302,-21.0,-5.0,10.0,0.0,0.0,0.0,7.0,-3.0
1705334989.2919302,-15.0,4.0,7.0,0.0,-12.0,-8.0,-6.0,-8.0
1705334989.301935,8.0,3.0,2.0,14.0,0.0,-2.0,0.0,-3.0
1705334989.301935,-9.0,-4.0,-9.0,-7.0,10.0,0.0,1.0,3.0
1705334989.301935,11.0,-5.0,-5.0,-12.0,-12.0,-9.0,-5.0,-1.0
1705334989.301935,-4.0,9.0,6.0,-3.0,-1.0,1.0,1.0,0.0
1705334989.3220544,-1.0,8.0,-24.0,-13.0,-2.0,-2.0,-3.0,-4.0
1705334989.3220544,-3.0,0.0,1.0,-2.0,-3.0,1.0,-2.0,-2.0
1705334989.3220544,6.0,13.0,-3.0,-7.0,-2.0,-4.0,-5.0,-2.0
1705334989.3220544,-3.0,-1.0,4.0,19.0,4.0,0.0,-2.0,0.0
1705334989.3319318,12.0,22.0,-3.0,-15.0,-2.0,-3.0,-7.0,0.0
1705334989.3319318,-12.0,9.0,0.0,1.0,2.0,3.0,4.0,2.0
1705334989.3409705,0.0,14.0,3.0,12.0,2.0,2.0,-6.0,-8.0
1705334989.3409705,-3.0,8.0,5.0,-8.0,-1.0,0.0,0.0,2.0
1705334989.3612618,4.0,12.0,-2.0,-7.0,2.0,0.0,0.0,-2.0
1705334989.3612618,-3.0,3.0,4.0,13.0,4.0,1.0,-1.0,-5.0
1705334989.3612618,9.0,-1.0,-4.0,-9.0,-7.0,-5.0,-5.0,1.0
1705334989.3612618,1.0,1.0,1.0,-1.0,-1.0,0.0,1.0,1.0
1705334989.380991,-1.0,-13.0,-9.0,-2.0,0.0,0.0,-4.0,-2.0
1705334989.380991,-1.0,0.0,-3.0,-3.0,-3.0,1.0,0.0,-2.0
1705334989.391217,-1.0,-1.0,-1.0,-2.0,-4.0,-3.0,0.0,0.0
1705334989.391217,5.0,-12.0,5.0,2.0,2.0,-3.0,0.0,0.0
1705334989.391217,0.0,7.0,-2.0,0.0,-2.0,-1.0,0.0,1.0
1705334989.391217,0.0,4.0,10.0,-4.0,-4.0,0.0,-1.0,1.0
1705334989.401201,-3.0,-4.0,-33.0,-2.0,-3.0,-3.0,0.0,-6.0
1705334989.401201,1.0,-9.0,18.0,5.0,0.0,0.0,0.0,1.0
1705334989.4212935,0.0,0.0,11.0,-1.0,0.0,1.0,-1.0,-4.0
1705334989.4212935,-6.0,-3.0,-50.0,-8.0,-3.0,-4.0,-4.0,-2.0
1705334989.4212935,4.0,-4.0,8.0,2.0,2.0,1.0,-1.0,5.0
1705334989.4212935,0.0,9.0,2.0,-4.0,-2.0,1.0,-2.0,-1.0
1705334989.4509926,-2.0,-8.0,29.0,2.0,0.0,-1.0,1.0,-1.0
1705334989.4509926,9.0,-5.0,12.0,12.0,5.0,-1.0,-5.0,-2.0
1705334989.4509926,-8.0,15.0,-14.0,-4.0,-1.0,-1.0,7.0,-12.0
1705334989.4509926,-11.0,-15.0,-37.0,-19.0,-8.0,-6.0,5.0,48.0
1705334989.461025,3.0,-8.0,7.0,0.0,-1.0,-6.0,-6.0,-4.0
1705334989.461025,12.0,-3.0,16.0,5.0,2.0,3.0,-1.0,21.0
1705334989.461025,-7.0,-4.0,21.0,7.0,-1.0,-4.0,-5.0,-20.0
1705334989.461025,7.0,7.0,1.0,6.0,5.0,12.0,11.0,41.0
1705334989.4810014,-3.0,-5.0,-20.0,-5.0,-1.0,-3.0,0.0,-42.0
1705334989.4810014,-2.0,-4.0,8.0,-2.0,-3.0,-4.0,-6.0,-26.0
1705334989.4810014,2.0,-14.0,1.0,1.0,-1.0,-2.0,1.0,8.0
1705334989.4810014,-1.0,0.0,-9.0,-1.0,-2.0,1.0,3.0,-5.0
1705334989.5011487,2.0,-5.0,-10.0,-3.0,1.0,3.0,-3.0,27.0
1705334989.5011487,0.0,-2.0,9.0,0.0,0.0,-4.0,-1.0,-6.0
1705334989.5011487,5.0,9.0,-4.0,-1.0,0.0,3.0,2.0,11.0
1705334989.5011487,-3.0,0.0,-3.0,2.0,2.0,1.0,0.0,-16.0
1705334989.5210907,-1.0,-1.0,2.0,1.0,-2.0,-4.0,0.0,-4.0
1705334989.5210907,-5.0,-3.0,-1.0,-1.0,-1.0,3.0,1.0,-5.0
1705334989.5210907,-5.0,5.0,-4.0,-2.0,-1.0,-4.0,-2.0,9.0
1705334989.5210907,5.0,-4.0,12.0,4.0,0.0,-3.0,-6.0,-11.0
1705334989.5408585,-1.0,-3.0,20.0,8.0,2.0,3.0,-1.0,-10.0
1705334989.5408585,-6.0,-3.0,-38.0,-3.0,0.0,0.0,1.0,8.0
1705334989.5408585,0.0,-5.0,-40.0,-11.0,-7.0,-11.0,-10.0,7.0
1705334989.5408585,-2.0,-3.0,4.0,1.0,2.0,14.0,3.0,-25.0
1705334989.5611908,-1.0,0.0,0.0,-4.0,-2.0,-5.0,-3.0,9.0
1705334989.5611908,-9.0,-2.0,26.0,5.0,2.0,11.0,8.0,-7.0
1705334989.5611908,8.0,2.0,8.0,5.0,3.0,4.0,0.0,-3.0
1705334989.5611908,-5.0,-7.0,-3.0,-1.0,-1.0,-9.0,-8.0,-14.0
1705334989.5815475,-8.0,-6.0,-16.0,-7.0,-4.0,2.0,1.0,6.0
1705334989.5815475,1.0,-2.0,1.0,-3.0,-3.0,-7.0,-4.0,3.0
1705334989.5815475,1.0,19.0,9.0,0.0,-4.0,-18.0,-4.0,4.0
1705334989.5815475,3.0,13.0,3.0,1.0,-2.0,12.0,-1.0,-8.0
1705334989.6012619,0.0,-21.0,1.0,6.0,4.0,-2.0,4.0,13.0
1705334989.6012619,1.0,5.0,-2.0,-3.0,-2.0,-6.0,-2.0,-5.0
1705334989.6012619,-1.0,-20.0,3.0,-3.0,0.0,0.0,-3.0,-4.0
1705334989.6012619,0.0,23.0,1.0,-1.0,-9.0,-20.0,-8.0,-5.0
1705334989.6216059,2.0,3.0,-21.0,-25.0,-11.0,-2.0,-3.0,-2.0
1705334989.6216059,-10.0,-7.0,-7.0,7.0,-2.0,-1.0,-1.0,-2.0
1705334989.6216059,2.0,-5.0,10.0,-1.0,4.0,-7.0,0.0,1.0
1705334989.6216059,5.0,-42.0,-19.0,-12.0,-6.0,6.0,-2.0,-5.0
1705334989.6410997,3.0,-1.0,0.0,9.0,6.0,6.0,5.0,-2.0
1705334989.6410997,2.0,0.0,12.0,1.0,-3.0,-3.0,0.0,3.0
1705334989.6410997,-4.0,28.0,30.0,-5.0,-4.0,6.0,1.0,0.0
1705334989.6410997,-21.0,34.0,-2.0,9.0,-4.0,-10.0,-6.0,-4.0
1705334989.6811094,-5.0,12.0,-38.0,-12.0,2.0,-4.0,-7.0,-4.0
1705334989.6811094,1.0,4.0,-5.0,3.0,4.0,-11.0,-7.0,3.0
1705334989.6811094,2.0,-20.0,2.0,2.0,-2.0,-6.0,-2.0,0.0
1705334989.6811094,8.0,-7.0,1.0,-7.0,2.0,8.0,4.0,-2.0
1705334989.6811094,1.0,14.0,38.0,9.0,-7.0,-11.0,0.0,2.0
1705334989.6811094,-4.0,16.0,-7.0,0.0,-2.0,2.0,-1.0,-11.0
1705334989.6811094,-3.0,-8.0,-15.0,-9.0,-6.0,9.0,-1.0,7.0
1705334989.6811094,10.0,-3.0,15.0,3.0,5.0,-2.0,5.0,-19.0
1705334989.701112,-23.0,-4.0,-1.0,8.0,0.0,8.0,1.0,34.0
1705334989.701112,2.0,-19.0,-2.0,-7.0,-1.0,-5.0,-5.0,-14.0
1705334989.701112,-5.0,2.0,-3.0,-1.0,-2.0,5.0,2.0,3.0
1705334989.701112,1.0,-2.0,-6.0,-4.0,-2.0,-3.0,-2.0,1.0
1705334989.7214692,-6.0,-5.0,2.0,1.0,1.0,3.0,1.0,-20.0
1705334989.7214692,7.0,24.0,5.0,2.0,0.0,2.0,3.0,5.0
1705334989.7214692,-11.0,-38.0,-9.0,-5.0,0.0,5.0,-4.0,-6.0
1705334989.7214692,-7.0,-9.0,0.0,0.0,3.0,-2.0,-3.0,3.0
1705334989.7437592,-3.0,-13.0,-4.0,2.0,1.0,2.0,1.0,-3.0
1705334989.7437592,-3.0,0.0,4.0,-2.0,0.0,3.0,1.0,8.0
1705334989.7514641,5.0,3.0,-5.0,12.0,5.0,4.0,3.0,-5.0
1705334989.7514641,8.0,-5.0,2.0,-4.0,-1.0,-8.0,-5.0,5.0
1705334989.771463,6.0,-3.0,0.0,-5.0,-4.0,-3.0,-3.0,-2.0
1705334989.771463,-8.0,-15.0,-1.0,2.0,0.0,3.0,2.0,-2.0
1705334989.771463,-1.0,3.0,2.0,-4.0,1.0,6.0,1.0,0.0
1705334989.771463,-2.0,1.0,-12.0,-2.0,0.0,-4.0,-4.0,-1.0
1705334989.7814677,0.0,1.0,0.0,2.0,-3.0,-9.0,-9.0,-5.0
1705334989.7814677,5.0,13.0,16.0,3.0,-1.0,15.0,9.0,4.0
1705334989.7814677,-1.0,-5.0,-2.0,3.0,-3.0,-10.0,-3.0,-7.0
1705334989.7814677,-5.0,6.0,-19.0,-7.0,-3.0,1.0,-1.0,-1.0
1705334989.8117363,0.0,16.0,3.0,-6.0,-11.0,-22.0,-12.0,-4.0
1705334989.8117363,1.0,-22.0,-9.0,1.0,7.0,28.0,12.0,5.0
