1705334674.0669749,-1.0,-7.0,0.0,0.0,14.0,3.0,-3.0,-17.0
1705334674.0669749,2.0,8.0,2.0,3.0,-5.0,0.0,-1.0,14.0
1705334674.0669749,-1.0,1.0,-3.0,-7.0,-8.0,-9.0,-2.0,-3.0
1705334674.0669749,-3.0,-6.0,-2.0,-2.0,-3.0,-1.0,-2.0,-2.0
1705334674.0869563,-1.0,-3.0,-2.0,-5.0,1.0,4.0,0.0,-1.0
1705334674.0869563,-2.0,-8.0,-2.0,2.0,5.0,0.0,1.0,-5.0
1705334674.0869563,1.0,16.0,3.0,4.0,7.0,-2.0,-3.0,-1.0
1705334674.0869563,-1.0,-5.0,-4.0,-2.0,-5.0,-1.0,-2.0,2.0
1705334674.1169212,1.0,-6.0,2.0,-4.0,-12.0,-2.0,-1.0,3.0
1705334674.1169212,-2.0,-20.0,-3.0,1.0,13.0,-2.0,-3.0,-4.0
1705334674.1169212,0.0,-4.0,3.0,0.0,-5.0,5.0,2.0,3.0
1705334674.1169212,-1.0,4.0,-4.0,0.0,8.0,-1.0,2.0,-2.0
1705334674.1269548,-3.0,-3.0,-1.0,0.0,0.0,-2.0,-1.0,1.0
1705334674.1269548,-1.0,4.0,-2.0,-7.0,-9.0,-2.0,-2.0,-3.0
1705334674.1369255,1.0,2.0,1.0,-3.0,-7.0,-6.0,-2.0,-2.0
1705334674.1369255,0.0,-9.0,3.0,5.0,11.0,5.0,-3.0,-2.0
1705334674.1669238,0.0,-4.0,-1.0,3.0,2.0,1.0,2.0,2.0
1705334674.1669238,0.0,8.0,4.0,-2.0,-5.0,-4.0,-4.0,-2.0
1705334674.1669238,-1.0,-3.0,-2.0,1.0,-1.0,-1.0,-1.0,-2.0
1705334674.1669238,0.0,-8.0,-4.0,-11.0,-11.0,-2.0,-1.0,-2.0
1705334674.1669238,1.0,5.0,-1.0,-3.0,-1.0,-2.0,-2.0,2.0
1705334674.1669238,1.0,-18.0,2.0,9.0,12.0,6.0,5.0,-1.0
1705334674.176984,0.0,14.0,3.0,-2.0,-10.0,-1.0,-2.0,0.0
1705334674.176984,-4.0,9.0,1.0,3.0,9.0,-1.0,-1.0,-2.0
1705334674.1873953,-5.0,-3.0,-11.0,-7.0,-9.0,-6.0,-3.0,0.0
1705334674.1873953,0.0,0.0,-3.0,-5.0,-10.0,-5.0,-2.0,-4.0
1705334674.196924,0.0,5.0,-2.0,-3.0,3.0,2.0,0.0,-1.0
1705334674.196924,0.0,-1.0,4.0,5.0,4.0,-1.0,1.0,1.0
1705334674.2073097,0.0,-12.0,1.0,0.0,4.0,1.0,-2.0,-3.0
1705334674.2073097,-5.0,3.0,-2.0,-3.0,-17.0,-1.0,-1.0,-3.0
1705334674.2073097,-2.0,-25.0,-5.0,-6.0,-2.0,-8.0,0.0,0.0
1705334674.2073097,1.0,19.0,3.0,2.0,12.0,3.0,0.0,-2.0
1705334674.2269208,-3.0,7.0,-7.0,3.0,-3.0,0.0,-2.0,0.0
1705334674.2269208,0.0,9.0,3.0,0.0,7.0,-4.0,-4.0,-1.0
1705334674.236924,-1.0,1.0,-3.0,-2.0,-16.0,2.0,-2.0,-3.0
1705334674.236924,1.0,-10.0,-1.0,-1.0,2.0,1.0,-1.0,1.0
1705334674.2471633,1.0,3.0,4.0,3.0,2.0,0.0,0.0,1.0
1705334674.2471633,-4.0,20.0,-3.0,-3.0,-1.0,-3.0,-3.0,-2.0
1705334674.256923,-3.0,0.0,0.0,-2.0,-1.0,-2.0,0.0,-3.0
1705334674.256923,0.0,-5.0,-4.0,0.0,-4.0,-4.0,-4.0,0.0
1705334674.2769217,2.0,11.0,4.0,4.0,13.0,6.0,4.0,1.0
1705334674.2769217,-3.0,-1.0,-4.0,-5.0,-7.0,-3.0,-1.0,0.0
1705334674.2769217,-1.0,3.0,-3.0,-4.0,1.0,-4.0,-3.0,0.0
1705334674.2769217,-3.0,1.0,-3.0,-7.0,-28.0,-3.0,-3.0,-1.0
1705334674.2871993,-2.0,4.0,3.0,1.0,15.0,-1.0,-2.0,0.0
1705334674.2871993,2.0,5.0,0.0,6.0,5.0,4.0,3.0,1.0
1705334674.2969258,-3.0,3.0,-1.0,5.0,12.0,3.0,0.0,1.0
1705334674.2969258,1.0,-1.0,1.0,-1.0,1.0,-2.0,-1.0,1.0
1705334674.3172994,-1.0,-12.0,-5.0,-5.0,-13.0,-7.0,-2.0,-3.0
1705334674.3172994,0.0,0.0,0.0,-2.0,0.0,-1.0,-1.0,-1.0
1705334674.3172994,2.0,-19.0,-4.0,0.0,-6.0,-6.0,-3.0,-2.0
1705334674.3172994,-4.0,10.0,-5.0,-9.0,-12.0,-6.0,-3.0,-1.0
1705334674.3369205,-2.0,-9.0,4.0,1.0,3.0,6.0,0.0,0.0
1705334674.3369205,0.0,-1.0,-3.0,2.0,17.0,1.0,-1.0,-2.0
1705334674.3369205,-2.0,-3.0,-4.0,-2.0,-13.0,-1.0,-2.0,0.0
1705334674.3369205,3.0,1.0,3.0,3.0,15.0,-2.0,1.0,0.0
1705334674.3469613,-1.0,16.0,-1.0,-2.0,-10.0,-2.0,-2.0,-1.0
1705334674.3469613,-2.0,3.0,-2.0,-3.0,-10.0,1.0,0.0,0.0
1705334674.356927,-1.0,10.0,5.0,-1.0,2.0,0.0,-1.0,-2.0
1705334674.356927,-3.0,-21.0,-9.0,-3.0,-3.0,0.0,1.0,0.0
1705334674.3670032,1.0,2.0,3.0,2.0,8.0,2.0,1.0,1.0
1705334674.3670032,0.0,11.0,-3.0,-4.0,-7.0,-3.0,1.0,1.0
1705334674.3976376,-3.0,-3.0,-2.0,-2.0,2.0,-3.0,-1.0,-2.0
1705334674.3976376,-2.0,-10.0,0.0,-1.0,-6.0,-3.0,-2.0,-4.0
1705334674.3976376,-1.0,-1.0,-4.0,1.0,14.0,3.0,1.0,-2.0
1705334674.3976376,5.0,-1.0,3.0,1.0,-5.0,-4.0,0.0,1.0
1705334674.3976376,-2.0,-1.0,-4.0,-7.0,-12.0,-2.0,-3.0,0.0
1705334674.3976376,-1.0,-9.0,-1.0,-3.0,7.0,4.0,-2.0,-2.0
1705334674.409984,1.0,-18.0,2.0,7.0,-3.0,0.0,0.0,0.0
1705334674.409984,-4.0,-9.0,0.0,0.0,3.0,-2.0,-3.0,-4.0
1705334674.409984,-2.0,-6.0,2.0,0.0,0.0,-1.0,2.0,0.0
1705334674.417498,-1.0,5.0,-3.0,0.0,-4.0,-3.0,-1.0,-1.0
1705334674.4275115,-2.0,-3.0,-4.0,-11.0,-12.0,-7.0,-4.0,-2.0
1705334674.4275115,1.0,-4.0,-2.0,-1.0,-11.0,-1.0,-3.0,-2.0
1705334674.4375145,0.0,20.0,-3.0,6.0,28.0,5.0,0.0,-1.0
1705334674.4375145,-1.0,-9.0,0.0,8.0,6.0,0.0,0.0,-1.0
1705334674.447512,0.0,-1.0,3.0,0.0,0.0,0.0,-2.0,-1.0
1705334674.447512,-3.0,9.0,-6.0,-9.0,-25.0,-6.0,-2.0,-1.0
1705334674.447512,-1.0,-7.0,2.0,-5.0,5.0,-6.0,-3.0,-3.0
1705334674.447512,1.0,-13.0,-3.0,1.0,-5.0,2.0,2.0,0.0
1705334674.4679823,-4.0,6.0,1.0,2.0,7.0,0.0,-3.0,-3.0
1705334674.4679823,0.0,-7.0,1.0,-1.0,-5.0,0.0,-2.0,-2.0
1705334674.4679823,1.0,-1.0,0.0,2.0,0.0,1.0,0.0,2.0
1705334674.4679823,-4.0,0.0,-2.0,-5.0,-4.0,-5.0,-2.0,-1.0
1705334674.497511,-1.0,-12.0,-4.0,-6.0,-13.0,-4.0,-1.0,-2.0
1705334674.497511,-2.0,20.0,2.0,-2.0,3.0,3.0,1.0,-1.0
1705334674.497511,-2.0,-8.0,-1.0,4.0,7.0,2.0,-3.0,-2.0
1705334674.497511,1.0,2.0,2.0,0.0,1.0,-2.0,0.0,1.0
1705334674.5178537,-1.0,-15.0,-5.0,-5.0,-8.0,-5.0,-1.0,-1.0
1705334674.5178537,-2.0,-5.0,2.0,0.0,8.0,2.0,-1.0,-2.0
1705334674.5178537,1.0,4.0,-1.0,-4.0,-9.0,-7.0,-3.0,-2.0
1705334674.5178537,-3.0,1.0,-4.0,-8.0,-16.0,-2.0,1.0,-1.0
1705334674.5278022,-1.0,7.0,0.0,7.0,30.0,3.0,1.0,-1.0
1705334674.5278022,0.0,-11.0,0.0,3.0,6.0,5.0,2.0,-1.0
1705334674.5278022,1.0,-5.0,-1.0,3.0,-10.0,-1.0,0.0,1.0
1705334674.5375233,-2.0,6.0,3.0,-6.0,-18.0,-5.0,-6.0,-1.0
1705334674.557513,-2.0,9.0,-7.0,-7.0,-8.0,-3.0,-2.0,-1.0
1705334674.557513,-2.0,-5.0,2.0,3.0,10.0,1.0,-3.0,-3.0
1705334674.557513,1.0,2.0,-5.0,-5.0,-1.0,-2.0,-2.0,-1.0
1705334674.557513,1.0,-3.0,1.0,-1.0,0.0,-3.0,-1.0,-1.0
1705334674.5675392,0.0,-24.0,3.0,-1.0,-4.0,1.0,-1.0,0.0
1705334674.5675392,-5.0,15.0,0.0,-3.0,-12.0,-3.0,-3.0,-3.0
1705334674.5675392,0.0,-4.0,-2.0,-4.0,4.0,3.0,1.0,0.0
1705334674.5675392,-2.0,0.0,-1.0,6.0,18.0,4.0,-2.0,-3.0
1705334674.5878558,-1.0,-1.0,-1.0,-1.0,-13.0,-9.0,-3.0,-2.0
1705334674.5878558,2.0,-4.0,-2.0,-2.0,0.0,0.0,2.0,0.0
1705334674.5878558,-2.0,-3.0,2.0,-2.0,-5.0,1.0,0.0,-1.0
1705334674.5975225,-3.0,15.0,0.0,2.0,9.0,3.0,-1.0,0.0
1705334674.6175106,1.0,3.0,0.0,-1.0,-5.0,-3.0,-1.0,0.0
1705334674.6175106,1.0,10.0,5.0,0.0,-9.0,-5.0,0.0,1.0
1705334674.6175106,0.0,2.0,-9.0,-6.0,-13.0,3.0,1.0,-2.0
1705334674.6175106,0.0,5.0,1.0,4.0,26.0,3.0,0.0,-2.0
1705334674.627848,0.0,-21.0,-3.0,1.0,-2.0,1.0,1.0,1.0
1705334674.627848,0.0,-4.0,-4.0,-7.0,-20.0,-6.0,-4.0,-1.0
1705334674.627848,-4.0,6.0,2.0,4.0,19.0,-4.0,-1.0,-2.0
1705334674.627848,0.0,-6.0,-1.0,0.0,-7.0,3.0,0.0,0.0
1705334674.6575117,-1.0,12.0,4.0,0.0,3.0,1.0,2.0,0.0
1705334674.6575117,0.0,0.0,-10.0,-9.0,-8.0,-5.0,-2.0,-1.0
1705334674.6575117,-1.0,8.0,-3.0,-4.0,-4.0,1.0,4.0,-1.0
1705334674.6575117,-3.0,-5.0,-2.0,0.0,-1.0,-7.0,-5.0,-2.0
1705334674.6695008,-3.0,21.0,-1.0,0.0,-2.0,0.0,-5.0,-13.0
1705334674.6695008,2.0,-5.0,11.0,11.0,11.0,5.0,2.0,17.0
1705334674.6780455,-1.0,2.0,-7.0,3.0,-3.0,2.0,-2.0,-4.0
1705334674.6780455,-1.0,5.0,-6.0,-15.0,-7.0,-8.0,0.0,14.0
1705334674.6927624,0.0,-14.0,-7.0,-9.0,-21.0,-3.0,-1.0,-5.0
1705334674.6927624,-5.0,-4.0,-1.0,0.0,26.0,0.0,-1.0,-6.0
1705334674.6937618,1.0,-9.0,9.0,8.0,-5.0,-2.0,-1.0,-4.0
1705334674.6937618,-1.0,-11.0,-6.0,-5.0,-10.0,1.0,0.0,-7.0
1705334674.714926,0.0,3.0,1.0,5.0,14.0,3.0,-1.0,4.0
1705334674.714926,-1.0,5.0,1.0,-3.0,-6.0,-1.0,-1.0,-6.0
1705334674.7167625,0.0,-2.0,0.0,-2.0,3.0,-2.0,-1.0,2.0
1705334674.7167625,-3.0,-15.0,-2.0,-2.0,-16.0,-4.0,-1.0,-4.0
1705334674.7453427,0.0,17.0,2.0,-3.0,-3.0,0.0,-1.0,0.0
1705334674.7453427,0.0,-25.0,-9.0,2.0,9.0,1.0,0.0,-3.0
1705334674.7453427,-2.0,10.0,-1.0,-2.0,-3.0,-1.0,-1.0,-1.0
1705334674.7453427,-2.0,-4.0,3.0,-5.0,-23.0,-7.0,-1.0,0.0
1705334674.752545,-1.0,-4.0,-3.0,4.0,27.0,8.0,0.0,-1.0
1705334674.752545,1.0,14.0,-2.0,4.0,1.0,-3.0,1.0,-1.0
1705334674.7543442,0.0,1.0,1.0,-7.0,-11.0,-3.0,-3.0,-2.0
1705334674.7543442,1.0,0.0,-3.0,-3.0,-8.0,0.0,1.0,-3.0
1705334674.775342,-4.0,-1.0,-1.0,-1.0,12.0,-5.0,-4.0,2.0
1705334674.775342,1.0,8.0,-2.0,-4.0,-11.0,1.0,-2.0,-1.0
1705334674.7763438,-1.0,-13.0,-1.0,-4.0,4.0,3.0,0.0,0.0
1705334674.7763438,2.0,-5.0,6.0,4.0,8.0,1.0,0.0,-2.0
1705334674.7977126,-3.0,1.0,-4.0,-2.0,-9.0,-3.0,0.0,-2.0
1705334674.7977126,-1.0,-1.0,-4.0,-2.0,6.0,-2.0,-3.0,-2.0
1705334674.798713,-4.0,1.0,-1.0,-1.0,-9.0,-5.0,-1.0,0.0
1705334674.798713,0.0,-12.0,0.0,1.0,6.0,0.0,1.0,-3.0
1705334674.8121212,-1.0,-16.0,-3.0,-8.0,-17.0,-6.0,-1.0,0.0
1705334674.8131013,-3.0,7.0,0.0,-1.0,-1.0,4.0,0.0,-3.0
1705334674.814089,1.0,-2.0,-1.0,-2.0,3.0,-2.0,-1.0,-1.0
1705334674.814089,2.0,-7.0,2.0,7.0,19.0,1.0,-3.0,-1.0
1705334674.8350554,-4.0,-1.0,0.0,8.0,5.0,5.0,1.0,1.0
1705334674.8350554,0.0,1.0,-2.0,-5.0,-18.0,-5.0,-2.0,-1.0
1705334674.8450627,-1.0,-5.0,-1.0,-6.0,-1.0,-3.0,-3.0,0.0
1705334674.8450627,1.0,9.0,2.0,0.0,-3.0,-3.0,1.0,0.0
1705334674.8577614,-1.0,3.0,-11.0,-8.0,-11.0,-6.0,-4.0,-3.0
1705334674.8577614,-7.0,-4.0,0.0,4.0,9.0,-1.0,-1.0,-1.0
1705334674.8593519,0.0,9.0,-3.0,-7.0,-7.0,-1.0,-2.0,-2.0
1705334674.8593519,-1.0,-4.0,-3.0,-1.0,6.0,4.0,-3.0,-2.0
1705334674.8697653,1.0,1.0,2.0,-7.0,-14.0,-5.0,-1.0,0.0
1705334674.8697653,-2.0,-3.0,-1.0,3.0,8.0,-4.0,3.0,0.0
1705334674.8697653,1.0,-3.0,3.0,6.0,4.0,3.0,-1.0,0.0
1705334674.8697653,-2.0,-20.0,-8.0,1.0,6.0,-2.0,-1.0,-2.0
1705334674.8897588,1.0,-1.0,0.0,-4.0,-12.0,4.0,1.0,-1.0
1705334674.8897588,-3.0,20.0,2.0,3.0,8.0,1.0,1.0,-2.0
1705334674.8993556,3.0,-9.0,1.0,-2.0,-10.0,-5.0,0.0,1.0
1705334674.8993556,-6.0,13.0,-4.0,0.0,4.0,-2.0,1.0,1.0
1705334674.9180257,0.0,-9.0,2.0,1.0,-6.0,-6.0,-2.0,-3.0
1705334674.9180257,-5.0,-8.0,4.0,-6.0,-16.0,-7.0,-11.0,-19.0
1705334674.9191823,0.0,-15.0,1.0,5.0,14.0,5.0,7.0,27.0
1705334674.9191823,-3.0,18.0,-10.0,-1.0,-4.0,0.0,-4.0,-36.0
1705334674.940144,0.0,-23.0,12.0,-7.0,-24.0,-5.0,-3.0,8.0
1705334674.940144,6.0,9.0,-22.0,-11.0,31.0,1.0,-4.0,-11.0
1705334674.941658,-6.0,12.0,9.0,4.0,-7.0,-1.0,-1.0,3.0
1705334674.941658,0.0,-27.0,-6.0,7.0,-5.0,2.0,1.0,8.0
1705334674.9526374,-2.0,34.0,0.0,2.0,8.0,2.0,2.0,4.0
1705334674.9526374,1.0,-24.0,22.0,0.0,-13.0,-2.0,0.0,-7.0
1705334674.9526374,0.0,0.0,-1.0,-2.0,3.0,-4.0,-6.0,-8.0
1705334674.9526374,0.0,9.0,2.0,-6.0,-8.0,-8.0,-2.0,5.0
1705334674.972836,-5.0,5.0,-8.0,0.0,-2.0,-2.0,-1.0,-7.0
1705334674.972836,3.0,-8.0,-7.0,2.0,1.0,1.0,2.0,10.0
1705334674.972836,-2.0,-1.0,-6.0,-2.0,-1.0,1.0,1.0,-9.0
1705334674.972836,-4.0,8.0,5.0,4.0,18.0,3.0,-3.0,6.0
1705334674.9928339,1.0,-7.0,0.0,3.0,10.0,2.0,-1.0,-2.0
1705334674.9928339,-3.0,-9.0,-5.0,-3.0,-14.0,-3.0,1.0,5.0
1705334675.0031674,-1.0,14.0,5.0,2.0,-1.0,-5.0,-2.0,-3.0
1705334675.0031674,-2.0,-7.0,-6.0,-6.0,-8.0,-3.0,0.0,-3.0
1705334675.0132537,0.0,-26.0,4.0,-4.0,-3.0,0.0,-2.0,0.0
1705334675.0132537,-3.0,50.0,-4.0,-5.0,4.0,0.0,0.0,3.0
1705334675.0132537,-4.0,2.0,-1.0,1.0,-13.0,0.0,-2.0,-5.0
1705334675.0132537,2.0,-8.0,7.0,-4.0,-1.0,-1.0,1.0,5.0
1705334675.0297518,-2.0,4.0,-15.0,7.0,9.0,-3.0,-2.0,-3.0
1705334675.0297518,4.0,-18.0,17.0,2.0,-12.0,0.0,1.0,4.0
1705334675.0297518,0.0,-25.0,-6.0,-8.0,10.0,0.0,-2.0,-13.0
1705334675.0297518,-9.0,28.0,1.0,-4.0,-4.0,-2.0,-3.0,4.0
1705334675.0497625,5.0,5.0,-4.0,-6.0,-7.0,-4.0,1.0,20.0
1705334675.0497625,1.0,-28.0,2.0,10.0,1.0,5.0,11.0,25.0
1705334675.0497625,1.0,20.0,0.0,0.0,4.0,-4.0,-13.0,-23.0
1705334675.0497625,11.0,5.0,-2.0,-4.0,-6.0,-3.0,1.0,-8.0
1705334675.0700827,-5.0,-1.0,13.0,-5.0,-5.0,-1.0,-5.0,-23.0
1705334675.0700827,-6.0,-1.0,-5.0,5.0,13.0,5.0,3.0,17.0
1705334675.0700827,1.0,24.0,-11.0,10.0,13.0,2.0,2.0,3.0
1705334675.0700827,-2.0,-22.0,9.0,1.0,-14.0,-5.0,3.0,-15.0
1705334675.089792,8.0,-41.0,-21.0,-14.0,-12.0,-7.0,-11.0,-3.0
1705334675.089792,-8.0,51.0,-9.0,-13.0,-2.0,-3.0,-7.0,-1.0
1705334675.089792,-5.0,-23.0,10.0,-4.0,-6.0,0.0,1.0,5.0
1705334675.089792,1.0,-8.0,22.0,8.0,-16.0,-3.0,-1.0,-1.0
1705334675.1197617,3.0,3.0,-10.0,16.0,31.0,10.0,9.0,6.0
1705334675.1197617,-1.0,-17.0,6.0,-8.0,-1.0,0.0,-5.0,-31.0
1705334675.1197617,-4.0,4.0,-11.0,-8.0,-14.0,-6.0,-3.0,19.0
1705334675.1197617,0.0,-6.0,-2.0,-8.0,-4.0,1.0,-1.0,3.0
1705334675.1301625,-8.0,14.0,3.0,-2.0,-4.0,-3.0,1.0,-4.0
1705334675.1301625,2.0,6.0,-10.0,9.0,7.0,-1.0,0.0,-3.0
1705334675.1301625,1.0,11.0,17.0,9.0,-3.0,5.0,2.0,-4.0
1705334675.1301625,2.0,-2.0,50.0,32.0,28.0,6.0,-2.0,2.0
1705334675.1501331,-6.0,15.0,-48.0,-15.0,-10.0,-1.0,-4.0,7.0
1705334675.1501331,-2.0,14.0,-36.0,-30.0,-15.0,-11.0,-6.0,6.0
1705334675.1501331,-1.0,-10.0,26.0,-10.0,-15.0,-9.0,-2.0,-7.0
1705334675.1501331,-4.0,-14.0,-15.0,1.0,4.0,-1.0,-10.0,-12.0
1705334675.169761,5.0,9.0,44.0,18.0,7.0,3.0,4.0,-7.0
1705334675.169761,-3.0,-18.0,-4.0,4.0,-5.0,-1.0,3.0,32.0
1705334675.169761,8.0,-15.0,-42.0,-11.0,0.0,0.0,3.0,-1.0
1705334675.169761,-17.0,5.0,4.0,-9.0,-9.0,-4.0,-2.0,-1.0
1705334675.190203,-5.0,34.0,-23.0,-13.0,-11.0,-6.0,-5.0,-8.0
1705334675.190203,2.0,-13.0,16.0,12.0,12.0,2.0,-3.0,-15.0
1705334675.190203,0.0,-6.0,18.0,10.0,15.0,7.0,2.0,12.0
1705334675.190203,-5.0,10.0,-23.0,-3.0,7.0,-4.0,-3.0,0.0
1705334675.2173662,6.0,-42.0,4.0,6.0,-3.0,1.0,3.0,7.0
1705334675.2173662,-8.0,12.0,14.0,-8.0,-18.0,-4.0,0.0,-10.0
1705334675.2191265,-4.0,-2.0,-44.0,-12.0,-11.0,-11.0,-3.0,-4.0
1705334675.2191265,3.0,-6.0,-22.0,-18.0,12.0,8.0,1.0,5.0
1705334675.2371535,-2.0,12.0,19.0,8.0,4.0,0.0,-1.0,-1.0
1705334675.2371535,11.0,-8.0,6.0,10.0,6.0,3.0,1.0,-11.0
1705334675.2401497,-7.0,16.0,18.0,-3.0,-4.0,-3.0,-5.0,-5.0
1705334675.2401497,1.0,11.0,-11.0,-7.0,-25.0,-10.0,-3.0,0.0
1705334675.255263,-3.0,-3.0,-14.0,-13.0,8.0,5.0,-1.0,0.0
1705334675.255263,2.0,-1.0,-6.0,7.0,-1.0,7.0,1.0,-2.0
1705334675.2613022,-2.0,1.0,-10.0,7.0,16.0,6.0,3.0,-3.0
1705334675.2613022,1.0,0.0,3.0,0.0,3.0,-3.0,1.0,6.0
1705334675.2844427,-6.0,5.0,30.0,2.0,-11.0,-5.0,-2.0,-5.0
1705334675.2844427,-9.0,6.0,-20.0,-6.0,-10.0,-1.0,0.0,-5.0
1705334675.2844427,3.0,2.0,-12.0,-12.0,-4.0,-2.0,-1.0,1.0
1705334675.2844427,17.0,4.0,8.0,2.0,-19.0,-4.0,4.0,6.0
1705334675.291375,1.0,1.0,-12.0,0.0,32.0,2.0,-3.0,-1.0
1705334675.291375,-6.0,-1.0,5.0,-3.0,-10.0,-8.0,-7.0,-6.0
1705334675.299833,-4.0,-6.0,19.0,2.0,0.0,1.0,-1.0,0.0
1705334675.299833,-5.0,-5.0,-21.0,0.0,2.0,8.0,3.0,1.0
1705334675.3150969,-6.0,14.0,-2.0,-11.0,-13.0,-2.0,2.0,-1.0
1705334675.3150969,-1.0,-1.0,6.0,22.0,5.0,-3.0,-3.0,-1.0
1705334675.3168955,-2.0,-15.0,24.0,21.0,-11.0,-4.0,-3.0,-5.0
1705334675.3168955,0.0,2.0,-19.0,-8.0,24.0,1.0,2.0,2.0
1705334675.3379133,-6.0,19.0,-17.0,-16.0,-17.0,-4.0,-5.0,-3.0
1705334675.3379133,5.0,-13.0,1.0,-7.0,4.0,5.0,1.0,-2.0
1705334675.338923,4.0,25.0,30.0,-3.0,-7.0,-3.0,2.0,1.0
1705334675.338923,-8.0,-2.0,4.0,-1.0,-16.0,-8.0,-5.0,-5.0
1705334675.352921,2.0,1.0,6.0,-3.0,5.0,0.0,0.0,-2.0
1705334675.352921,2.0,11.0,-8.0,-17.0,-35.0,-9.0,-2.0,0.0
1705334675.3599494,-6.0,-10.0,-16.0,7.0,36.0,6.0,1.0,-2.0
1705334675.3599494,-1.0,-8.0,0.0,10.0,13.0,4.0,0.0,0.0
1705334675.3759906,-3.0,-7.0,8.0,9.0,-1.0,-5.0,-4.0,-2.0
1705334675.3759906,1.0,-29.0,-19.0,0.0,4.0,5.0,1.0,2.0
1705334675.3769848,-5.0,37.0,4.0,-14.0,-17.0,-5.0,-2.0,1.0
1705334675.3769848,-2.0,-8.0,3.0,-10.0,-10.0,-2.0,2.0,0.0
1705334675.3989184,0.0,4.0,2.0,13.0,10.0,1.0,-1.0,0.0
1705334675.3989184,1.0,0.0,-4.0,-1.0,-3.0,-3.0,-1.0,0.0
1705334675.3999155,0.0,-25.0,-19.0,-5.0,7.0,2.0,1.0,-2.0
1705334675.3999155,0.0,26.0,28.0,6.0,0.0,-3.0,-3.0,-2.0
1705334675.4122736,0.0,-18.0,13.0,0.0,-14.0,-6.0,-1.0,-1.0
1705334675.4122736,0.0,-3.0,2.0,-4.0,6.0,0.0,-3.0,-1.0
1705334675.421283,-3.0,-19.0,-44.0,-8.0,1.0,4.0,-1.0,-2.0
1705334675.421283,2.0,18.0,10.0,-4.0,-9.0,-4.0,-3.0,1.0
1705334675.4360244,-3.0,-20.0,15.0,-1.0,-10.0,-4.0,1.0,-1.0
1705334675.4360244,-2.0,4.0,7.0,4.0,12.0,2.0,-2.0,-4.0
1705334675.4661515,-2.0,3.0,-3.0,9.0,9.0,7.0,1.0,-1.0
1705334675.4671512,-1.0,-29.0,-20.0,6.0,11.0,4.0,1.0,-1.0
1705334675.4711492,4.0,14.0,5.0,-2.0,-9.0,-3.0,-3.0,-1.0
1705334675.4711492,-2.0,7.0,-3.0,-16.0,-24.0,-9.0,-4.0,-1.0
1705334675.4711492,0.0,-2.0,3.0,0.0,6.0,-5.0,-1.0,-1.0
1705334675.4711492,-1.0,-7.0,-6.0,-8.0,-11.0,-3.0,-1.0,-1.0
1705334675.4721475,2.0,8.0,0.0,4.0,11.0,2.0,-1.0,-1.0
1705334675.4721475,2.0,0.0,4.0,4.0,2.0,1.0,1.0,1.0
1705334675.480949,-2.0,4.0,8.0,-2.0,-9.0,-6.0,-3.0,0.0
1705334675.480949,-1.0,-4.0,-4.0,-7.0,-4.0,0.0,0.0,-3.0
1705334675.495561,-2.0,-39.0,-10.0,2.0,4.0,-1.0,-1.0,-1.0
1705334675.49658,1.0,20.0,5.0,1.0,1.0,1.0,0.0,-2.0
1705334675.4995759,2.0,-25.0,2.0,1.0,-2.0,-6.0,-3.0,-2.0
1705334675.5005796,3.0,14.0,-2.0,3.0,5.0,3.0,1.0,3.0
1705334675.5173986,-5.0,-1.0,0.0,0.0,-12.0,0.0,-2.0,-4.0
1705334675.5173986,-2.0,3.0,-15.0,-12.0,7.0,-5.0,-2.0,0.0
1705334675.519066,-1.0,-6.0,-1.0,-6.0,-16.0,1.0,-3.0,-1.0
1705334675.519066,-3.0,-16.0,2.0,6.0,23.0,-1.0,1.0,-1.0
1705334675.5313551,0.0,5.0,-9.0,0.0,0.0,-2.0,1.0,0.0
1705334675.5313551,-2.0,-6.0,12.0,0.0,-4.0,1.0,0.0,-1.0
1705334675.5402987,-2.0,5.0,-2.0,3.0,-11.0,-5.0,-3.0,-3.0
1705334675.5402987,-5.0,-7.0,-10.0,-11.0,-17.0,-4.0,-4.0,-3.0
1705334675.5616918,0.0,-10.0,18.0,15.0,19.0,8.0,2.0,1.0
1705334675.5616918,2.0,-11.0,-2.0,17.0,23.0,1.0,2.0,1.0
1705334675.5703177,2.0,5.0,12.0,-17.0,-18.0,-9.0,-4.0,1.0
1705334675.5703177,-1.0,-8.0,-2.0,-2.0,-11.0,-3.0,-4.0,-1.0
1705334675.5821643,-3.0,15.0,-13.0,-16.0,-5.0,-4.0,-2.0,-1.0
1705334675.5821643,-2.0,-4.0,-1.0,-2.0,0.0,6.0,0.0,-2.0
1705334675.5821643,1.0,3.0,-6.0,10.0,10.0,1.0,2.0,1.0
1705334675.5821643,1.0,-5.0,0.0,-1.0,-17.0,-1.0,0.0,0.0
1705334675.5923147,0.0,3.0,-6.0,-2.0,6.0,-6.0,-1.0,0.0
1705334675.5923147,-2.0,17.0,1.0,-11.0,-4.0,-2.0,-3.0,-3.0
1705334675.6009004,-3.0,-1.0,-12.0,-3.0,0.0,2.0,1.0,-2.0
1705334675.6009004,1.0,-27.0,2.0,11.0,19.0,4.0,4.0,2.0
1705334675.629637,-1.0,6.0,-2.0,-13.0,-16.0,-4.0,-4.0,-1.0
1705334675.629637,0.0,1.0,1.0,3.0,2.0,-3.0,-4.0,-1.0
1705334675.629637,-6.0,19.0,5.0,-9.0,-4.0,-4.0,-4.0,-4.0
1705334675.629637,-2.0,-5.0,-8.0,-3.0,-9.0,-2.0,-2.0,-3.0
1705334675.6388896,-2.0,-2.0,-5.0,2.0,-4.0,0.0,3.0,0.0
1705334675.6388896,0.0,-8.0,4.0,-1.0,0.0,1.0,1.0,0.0
1705334675.639894,-1.0,-3.0,-3.0,1.0,1.0,1.0,0.0,0.0
1705334675.639894,-2.0,-6.0,-2.0,2.0,-1.0,-1.0,-3.0,-1.0
1705334675.6511831,0.0,7.0,-3.0,4.0,12.0,4.0,0.0,-2.0
1705334675.6520872,0.0,1.0,28.0,4.0,-7.0,-10.0,-3.0,0.0
1705334675.6601198,1.0,-1.0,-21.0,0.0,-18.0,0.0,-1.0,0.0
1705334675.6601198,-4.0,3.0,-12.0,-14.0,14.0,3.0,-1.0,-1.0
1705334675.6819339,1.0,-15.0,-1.0,2.0,15.0,-1.0,-3.0,-1.0
1705334675.6819339,0.0,6.0,1.0,3.0,-15.0,-3.0,0.0,0.0
1705334675.6829338,-1.0,-8.0,10.0,4.0,6.0,1.0,0.0,2.0
1705334675.6829338,2.0,10.0,5.0,-11.0,-23.0,-6.0,-3.0,0.0
1705334675.6978166,-2.0,4.0,-8.0,4.0,0.0,3.0,1.0,1.0
1705334675.6978166,-1.0,14.0,11.0,12.0,18.0,3.0,1.0,0.0
1705334675.6992097,5.0,-5.0,4.0,0.0,0.0,0.0,-2.0,-1.0
1705334675.6992097,-8.0,14.0,-19.0,-13.0,-15.0,-11.0,-4.0,-3.0
1705334675.7201636,-4.0,-6.0,5.0,-6.0,-8.0,-1.0,-2.0,-3.0
1705334675.7201636,-3.0,0.0,-12.0,0.0,11.0,3.0,0.0,-1.0
1705334675.7212014,0.0,-1.0,7.0,11.0,4.0,2.0,2.0,1.0
1705334675.7212014,0.0,-3.0,2.0,0.0,1.0,-1.0,-2.0,-1.0
1705334675.736199,-1.0,15.0,-4.0,-8.0,-13.0,-5.0,-2.0,-3.0
1705334675.736199,-3.0,2.0,-12.0,-11.0,-20.0,-5.0,-3.0,-1.0
1705334675.736199,-3.0,-1.0,0.0,-9.0,18.0,-3.0,-1.0,-4.0
1705334675.736199,0.0,-18.0,-1.0,10.0,1.0,5.0,0.0,0.0
1705334675.7582085,0.0,18.0,6.0,7.0,8.0,3.0,0.0,1.0
1705334675.7582085,3.0,-6.0,6.0,5.0,-1.0,1.0,-2.0,0.0
1705334675.7592213,-7.0,1.0,-3.0,-8.0,-5.0,-5.0,-4.0,-1.0
1705334675.7592213,-3.0,-15.0,2.0,-2.0,-9.0,-8.0,-3.0,-3.0
1705334675.7797034,3.0,-4.0,-15.0,-9.0,-8.0,0.0,-3.0,-2.0
1705334675.7797034,-4.0,-25.0,-4.0,4.0,2.0,2.0,1.0,-2.0
1705334675.7817037,-2.0,36.0,3.0,16.0,7.0,3.0,0.0,-1.0
1705334675.7817037,2.0,-4.0,-24.0,-19.0,9.0,3.0,2.0,-1.0
1705334675.7947187,-4.0,-4.0,10.0,0.0,-7.0,-7.0,-1.0,-1.0
1705334675.7947187,0.0,2.0,-26.0,-20.0,-5.0,-2.0,-4.0,0.0
1705334675.7965565,2.0,-1.0,12.0,3.0,-23.0,-7.0,-5.0,-2.0
1705334675.7965565,-1.0,-6.0,7.0,9.0,24.0,3.0,1.0,-1.0
1705334675.8191776,2.0,-3.0,-3.0,-1.0,-13.0,-3.0,0.0,-1.0
1705334675.8191776,-1.0,3.0,6.0,-1.0,14.0,1.0,-1.0,-2.0
1705334675.820225,-1.0,-19.0,0.0,11.0,7.0,3.0,0.0,0.0
1705334675.820225,-2.0,11.0,-5.0,5.0,-20.0,-6.0,-3.0,-1.0
1705334675.847136,0.0,13.0,6.0,-2.0,18.0,9.0,0.0,0.0
1705334675.847136,-4.0,-6.0,15.0,9.0,-11.0,-3.0,0.0,-1.0
1705334675.8490396,0.0,8.0,-21.0,-13.0,-8.0,1.0,-2.0,-4.0
1705334675.8490396,-3.0,-5.0,-7.0,-11.0,1.0,-5.0,-2.0,-1.0
1705334675.8543725,2.0,-3.0,6.0,0.0,-10.0,-2.0,-1.0,0.0
1705334675.8553956,1.0,13.0,-6.0,2.0,18.0,1.0,-1.0,-1.0
1705334675.86139,1.0,-14.0,0.0,0.0,-1.0,-1.0,1.0,1.0
1705334675.86139,-2.0,20.0,12.0,5.0,-5.0,0.0,1.0,0.0
1705334675.877468,-1.0,-3.0,-14.0,-4.0,-12.0,-5.0,-1.0,1.0
1705334675.877468,-1.0,3.0,-6.0,-15.0,-9.0,-3.0,-1.0,0.0
1705334675.8795252,2.0,-2.0,12.0,-7.0,-16.0,-2.0,0.0,0.0
1705334675.8795252,1.0,-4.0,7.0,6.0,32.0,8.0,1.0,-2.0
1705334675.9061503,-1.0,0.0,0.0,3.0,-7.0,-4.0,1.0,4.0
1705334675.9061503,-6.0,2.0,-7.0,4.0,5.0,-2.0,-2.0,-2.0
1705334675.9061503,0.0,-24.0,-7.0,-4.0,4.0,2.0,-1.0,-1.0
1705334675.9061503,2.0,3.0,4.0,4.0,-11.0,0.0,0.0,3.0
1705334675.9140255,-2.0,-13.0,9.0,7.0,10.0,2.0,-2.0,-3.0
1705334675.9150848,-1.0,-10.0,-22.0,-19.0,-34.0,-4.0,-3.0,-1.0
1705334675.9212806,-2.0,9.0,-4.0,-4.0,20.0,-4.0,-1.0,0.0
1705334675.9212806,0.0,6.0,6.0,0.0,8.0,2.0,-2.0,-1.0
1705334675.9377139,0.0,-3.0,-5.0,4.0,-5.0,-2.0,-2.0,-2.0
1705334675.9377139,-1.0,-10.0,6.0,9.0,-4.0,-3.0,-3.0,-3.0
1705334675.9395404,-2.0,8.0,9.0,5.0,7.0,1.0,1.0,-1.0
1705334675.9395404,-1.0,-18.0,-21.0,-18.0,-14.0,-9.0,-4.0,-3.0
1705334675.959897,-4.0,8.0,-2.0,-10.0,-8.0,-2.0,0.0,-2.0
1705334675.959897,0.0,-3.0,-1.0,6.0,5.0,4.0,0.0,1.0
1705334675.9615326,1.0,-2.0,5.0,5.0,3.0,-2.0,-2.0,-1.0
1705334675.9615326,-6.0,-5.0,1.0,-5.0,-4.0,1.0,-1.0,-1.0
1705334675.9755845,-3.0,2.0,5.0,-6.0,-9.0,-3.0,-3.0,-3.0
1705334675.9755845,1.0,4.0,6.0,-2.0,5.0,1.0,-1.0,-1.0
1705334675.9818995,0.0,-25.0,-11.0,-5.0,-12.0,-1.0,1.0,-1.0
1705334675.9818995,2.0,38.0,4.0,-4.0,-20.0,-1.0,2.0,0.0
1705334676.0177395,0.0,-5.0,-10.0,4.0,37.0,3.0,-2.0,-1.0
1705334676.0177395,-7.0,-4.0,10.0,8.0,-4.0,-3.0,-2.0,-1.0
1705334676.0177395,-3.0,5.0,2.0,0.0,-6.0,1.0,-2.0,-3.0
1705334676.0177395,-1.0,-26.0,-5.0,1.0,-2.0,1.0,-1.0,0.0
1705334676.0197577,-1.0,6.0,-5.0,-7.0,-4.0,1.0,1.0,0.0
1705334676.0197577,3.0,10.0,4.0,4.0,11.0,-3.0,-2.0,-2.0
1705334676.0217402,-2.0,-17.0,-8.0,-9.0,-12.0,-6.0,-3.0,-2.0
1705334676.0217402,4.0,-4.0,16.0,5.0,-11.0,-3.0,-1.0,1.0
1705334676.0341856,-3.0,13.0,-5.0,-8.0,-5.0,-1.0,-2.0,-1.0
1705334676.0341856,-1.0,-3.0,-7.0,-5.0,10.0,2.0,1.0,-1.0
1705334676.0412726,0.0,10.0,-8.0,-6.0,4.0,4.0,0.0,-1.0
1705334676.042197,-1.0,-8.0,8.0,6.0,8.0,1.0,-3.0,-2.0
1705334676.0575862,1.0,10.0,4.0,3.0,-3.0,-4.0,-2.0,-2.0
1705334676.058601,-3.0,1.0,-7.0,-10.0,-23.0,-4.0,-3.0,-2.0
1705334676.0590823,0.0,14.0,-4.0,4.0,17.0,1.0,0.0,3.0
1705334676.0590823,1.0,-12.0,17.0,14.0,8.0,1.0,0.0,1.0
1705334676.0746112,-4.0,-20.0,-1.0,6.0,-15.0,-2.0,2.0,-2.0
1705334676.0746112,-1.0,11.0,-22.0,-19.0,11.0,0.0,-1.0,1.0
1705334676.0746112,0.0,17.0,5.0,-4.0,-6.0,-3.0,-2.0,-2.0
1705334676.0746112,-3.0,-14.0,-6.0,-2.0,-6.0,-2.0,-3.0,-3.0
1705334676.094672,-1.0,-8.0,-4.0,-10.0,-7.0,-3.0,-4.0,-2.0
1705334676.094672,2.0,22.0,5.0,-2.0,-10.0,0.0,1.0,0.0
1705334676.094672,2.0,-10.0,4.0,1.0,7.0,2.0,-1.0,-1.0
1705334676.094672,2.0,9.0,5.0,4.0,7.0,1.0,0.0,1.0
1705334676.1421404,-3.0,-13.0,-3.0,3.0,-1.0,0.0,-4.0,0.0
1705334676.1421404,-2.0,3.0,-3.0,-4.0,-3.0,-6.0,-4.0,-3.0
1705334676.1421404,-2.0,-7.0,-7.0,-7.0,-29.0,-8.0,-1.0,-1.0
1705334676.1421404,-4.0,22.0,-11.0,3.0,38.0,6.0,1.0,-2.0
1705334676.1421404,3.0,-1.0,7.0,13.0,10.0,2.0,2.0,2.0
1705334676.1421404,-2.0,-18.0,9.0,9.0,0.0,-2.0,-1.0,0.0
1705334676.1421404,-2.0,19.0,-4.0,-8.0,-15.0,-6.0,-3.0,-2.0
1705334676.1421404,0.0,-8.0,1.0,-13.0,-12.0,-6.0,0.0,1.0
1705334676.1523821,3.0,4.0,-13.0,0.0,9.0,4.0,-1.0,0.0
1705334676.1523821,-1.0,3.0,-1.0,-1.0,-1.0,-1.0,-1.0,0.0
1705334676.1622028,-3.0,23.0,5.0,2.0,-5.0,1.0,-1.0,-2.0
1705334676.1622028,-3.0,-1.0,-4.0,-6.0,-6.0,-1.0,-1.0,-1.0
1705334676.1921437,-4.0,14.0,2.0,-9.0,3.0,0.0,0.0,0.0
1705334676.1921437,4.0,-19.0,6.0,10.0,-8.0,-1.0,1.0,0.0
1705334676.1921437,-1.0,22.0,-10.0,-8.0,-8.0,-4.0,-3.0,-1.0
1705334676.1921437,-6.0,0.0,-3.0,2.0,15.0,1.0,-1.0,-2.0
1705334676.1921437,0.0,-3.0,5.0,-3.0,-21.0,-6.0,-2.0,-2.0
1705334676.1921437,-4.0,30.0,3.0,-5.0,13.0,0.0,1.0,-3.0
1705334676.1921437,-1.0,-14.0,-2.0,10.0,16.0,5.0,-1.0,-1.0
1705334676.1921437,4.0,3.0,-4.0,-4.0,-27.0,-5.0,-2.0,0.0
1705334676.2121615,-1.0,-11.0,-5.0,6.0,2.0,0.0,1.0,-1.0
1705334676.2121615,-2.0,-1.0,10.0,-12.0,1.0,3.0,-3.0,-2.0
1705334676.232145,0.0,-13.0,-5.0,-6.0,4.0,-3.0,-2.0,0.0
1705334676.232145,0.0,-3.0,-2.0,-4.0,-5.0,-4.0,-2.0,-1.0
1705334676.232145,-3.0,-5.0,-3.0,2.0,-3.0,-1.0,-1.0,-2.0
1705334676.232145,-1.0,11.0,-8.0,7.0,3.0,-1.0,0.0,-1.0
1705334676.232145,0.0,-8.0,3.0,1.0,5.0,2.0,1.0,-1.0
1705334676.232145,-5.0,1.0,2.0,-4.0,-18.0,-4.0,-1.0,-1.0
1705334676.2523875,2.0,-2.0,-4.0,-1.0,2.0,-4.0,-1.0,-2.0
1705334676.2523875,1.0,17.0,2.0,6.0,16.0,4.0,1.0,0.0
1705334676.2523875,0.0,-8.0,1.0,-1.0,-18.0,-2.0,0.0,-2.0
1705334676.2523875,0.0,-9.0,-8.0,4.0,27.0,0.0,0.0,-1.0
1705334676.2725942,-3.0,-3.0,1.0,-8.0,-26.0,-1.0,-1.0,-1.0
1705334676.2725942,-2.0,5.0,-1.0,1.0,4.0,-1.0,-1.0,-2.0
1705334676.2924025,3.0,0.0,5.0,0.0,7.0,-1.0,-1.0,1.0
1705334676.2924025,-3.0,15.0,-14.0,-1.0,-13.0,0.0,-3.0,-1.0
1705334676.2924025,2.0,-10.0,-1.0,-5.0,12.0,-1.0,-1.0,2.0
1705334676.2924025,-3.0,-13.0,-4.0,7.0,-10.0,-2.0,-3.0,0.0
1705334676.2924025,0.0,-4.0,5.0,-5.0,-4.0,-4.0,0.0,0.0
1705334676.2924025,0.0,-21.0,1.0,2.0,-2.0,0.0,-1.0,-2.0
1705334676.3228636,1.0,-5.0,-4.0,-10.0,-2.0,-1.0,-4.0,1.0
1705334676.3228636,-2.0,-10.0,-1.0,-3.0,-5.0,-2.0,-4.0,-2.0
1705334676.3228636,0.0,-15.0,-1.0,8.0,11.0,-1.0,0.0,0.0
1705334676.3228636,4.0,-5.0,3.0,7.0,1.0,4.0,0.0,1.0
1705334676.3323748,-8.0,30.0,-6.0,4.0,7.0,1.0,-1.0,-5.0
1705334676.3323748,2.0,-4.0,4.0,-4.0,-16.0,-5.0,1.0,0.0
1705334676.342383,-5.0,-6.0,-3.0,-10.0,-15.0,-4.0,-3.0,-3.0
1705334676.342383,-2.0,-5.0,-2.0,1.0,19.0,3.0,-1.0,-1.0
1705334676.352433,1.0,-38.0,-9.0,-8.0,-14.0,-4.0,-1.0,0.0
1705334676.352433,3.0,12.0,2.0,4.0,10.0,1.0,1.0,-1.0
1705334676.352433,-11.0,-2.0,-7.0,1.0,5.0,2.0,-1.0,-3.0
1705334676.352433,1.0,-3.0,7.0,3.0,-10.0,2.0,1.0,1.0
1705334676.3727777,-3.0,-6.0,4.0,3.0,2.0,-3.0,1.0,-2.0
1705334676.3727777,-2.0,-16.0,-2.0,6.0,-4.0,-2.0,1.0,-2.0
1705334676.3823845,2.0,8.0,1.0,-6.0,3.0,1.0,0.0,0.0
1705334676.3823845,-2.0,7.0,-5.0,-6.0,-11.0,-2.0,-3.0,-2.0
1705334676.3923845,-1.0,15.0,4.0,2.0,15.0,-1.0,-3.0,-1.0
1705334676.3923845,0.0,-2.0,-8.0,-3.0,-12.0,-6.0,-1.0,0.0
1705334676.4023864,-2.0,-5.0,0.0,7.0,8.0,4.0,0.0,0.0
1705334676.4023864,1.0,-8.0,5.0,-6.0,-16.0,-1.0,0.0,-1.0
1705334676.412417,1.0,2.0,-7.0,-2.0,19.0,0.0,0.0,-2.0
1705334676.412417,1.0,4.0,7.0,0.0,-6.0,-3.0,0.0,-1.0
1705334676.412417,0.0,-11.0,-5.0,-5.0,-11.0,-8.0,-3.0,-1.0
1705334676.412417,-1.0,10.0,5.0,-9.0,-16.0,-2.0,-2.0,-1.0
1705334676.4326873,-1.0,-4.0,-6.0,-2.0,5.0,6.0,0.0,-2.0
1705334676.4326873,0.0,-2.0,3.0,3.0,10.0,5.0,0.0,-1.0
1705334676.4326873,1.0,0.0,-14.0,-1.0,7.0,0.0,0.0,-1.0
1705334676.4326873,2.0,-5.0,-5.0,2.0,-1.0,-3.0,1.0,-3.0
1705334676.4526951,-2.0,8.0,5.0,-4.0,-13.0,-3.0,-1.0,-2.0
1705334676.4526951,-3.0,3.0,-1.0,-10.0,-13.0,-3.0,-1.0,-2.0
1705334676.4627016,2.0,6.0,3.0,8.0,18.0,2.0,0.0,0.0
1705334676.4627016,0.0,-11.0,-3.0,-1.0,-4.0,-3.0,-3.0,-3.0
1705334676.472701,2.0,16.0,11.0,8.0,2.0,1.0,1.0,0.0
1705334676.472701,-2.0,10.0,-18.0,-4.0,-2.0,-2.0,0.0,-1.0
1705334676.472701,-3.0,2.0,7.0,-4.0,-7.0,-4.0,-3.0,-2.0
1705334676.472701,-3.0,-9.0,-10.0,-2.0,-2.0,-2.0,-1.0,-1.0
1705334676.5001445,1.0,27.0,1.0,1.0,15.0,-1.0,-2.0,-3.0
1705334676.5001445,1.0,-13.0,-2.0,-4.0,-11.0,-6.0,-4.0,-1.0
1705334676.5021422,-1.0,1.0,5.0,0.0,-3.0,2.0,0.0,-2.0
1705334676.5021422,-3.0,-3.0,-1.0,-1.0,2.0,-3.0,-1.0,-1.0
1705334676.5186536,2.0,-18.0,8.0,7.0,1.0,6.0,1.0,1.0
1705334676.5186536,-2.0,11.0,-19.0,-2.0,6.0,-1.0,-1.0,-2.0
1705334676.5226717,0.0,4.0,-9.0,-7.0,-6.0,-2.0,0.0,-2.0
1705334676.5226717,-3.0,-3.0,5.0,-8.0,-16.0,-2.0,-1.0,-2.0
1705334676.533187,-4.0,-5.0,-4.0,-5.0,12.0,-5.0,-3.0,-2.0
1705334676.533187,-2.0,1.0,3.0,3.0,-1.0,-4.0,-3.0,0.0
1705334676.54351,0.0,3.0,1.0,4.0,-6.0,0.0,0.0,1.0
1705334676.54351,1.0,0.0,0.0,-2.0,-13.0,-1.0,1.0,1.0
1705334676.5535464,-4.0,11.0,-8.0,-5.0,8.0,-2.0,-1.0,-1.0
1705334676.5535464,-3.0,-3.0,2.0,1.0,5.0,0.0,-1.0,0.0
1705334676.5535464,1.0,-5.0,6.0,7.0,0.0,1.0,0.0,0.0
1705334676.5535464,1.0,1.0,-12.0,-1.0,7.0,0.0,0.0,2.0
1705334676.573194,0.0,-15.0,-3.0,-10.0,-24.0,-5.0,-2.0,-2.0
1705334676.573194,-3.0,18.0,-3.0,-5.0,1.0,1.0,-3.0,0.0
1705334676.583239,0.0,9.0,6.0,-4.0,-4.0,-3.0,0.0,-1.0
1705334676.583239,-2.0,-15.0,2.0,7.0,23.0,2.0,0.0,-2.0
1705334676.5935564,2.0,-4.0,-3.0,4.0,-14.0,1.0,1.0,1.0
1705334676.5935564,-1.0,-1.0,1.0,2.0,7.0,2.0,0.0,-2.0
1705334676.6038635,-4.0,9.0,2.0,-2.0,-13.0,-6.0,-2.0,-2.0
1705334676.6038635,-1.0,9.0,0.0,-6.0,-9.0,-5.0,-2.0,-2.0
1705334676.6139126,-4.0,-10.0,-12.0,-10.0,9.0,-2.0,0.0,0.0
1705334676.6139126,2.0,-2.0,4.0,5.0,3.0,2.0,-1.0,0.0
1705334676.6235812,-4.0,5.0,3.0,3.0,4.0,1.0,-1.0,-1.0
1705334676.6235812,0.0,12.0,9.0,7.0,-4.0,-4.0,-2.0,-1.0
1705334676.6431112,-2.0,11.0,-22.0,-14.0,-20.0,-5.0,-2.0,-2.0
1705334676.6431112,-2.0,-5.0,0.0,-12.0,2.0,5.0,0.0,-3.0
1705334676.6431112,2.0,-14.0,-1.0,6.0,13.0,2.0,-1.0,-1.0
1705334676.6431112,-1.0,6.0,7.0,6.0,3.0,0.0,0.0,2.0
1705334676.6531549,1.0,8.0,11.0,8.0,-6.0,-3.0,0.0,0.0
1705334676.6531549,-2.0,-10.0,-5.0,-4.0,-7.0,-5.0,-2.0,1.0
1705334676.6633532,-2.0,-4.0,-10.0,-7.0,-12.0,-4.0,-2.0,-1.0
1705334676.6633532,-2.0,1.0,2.0,-8.0,-2.0,-3.0,1.0,-1.0
1705334676.673422,1.0,11.0,10.0,8.0,19.0,-1.0,-2.0,-2.0
1705334676.673422,2.0,-12.0,-5.0,1.0,-2.0,3.0,1.0,-1.0
1705334676.673422,-5.0,6.0,-5.0,-3.0,3.0,0.0,-1.0,-2.0
1705334676.673422,0.0,-5.0,-3.0,3.0,-4.0,0.0,0.0,-2.0
1705334676.6931076,0.0,-2.0,-3.0,-8.0,-16.0,-2.0,-1.0,-1.0
1705334676.6931076,-2.0,-6.0,2.0,4.0,5.0,-5.0,-1.0,0.0
1705334676.7031057,-2.0,5.0,1.0,1.0,6.0,-1.0,-2.0,-3.0
1705334676.7031057,4.0,-1.0,-4.0,3.0,1.0,0.0,0.0,0.0
1705334676.7133532,0.0,-24.0,8.0,5.0,10.0,4.0,-1.0,-2.0
1705334676.7133532,-1.0,-5.0,-5.0,2.0,-8.0,-2.0,-1.0,-1.0
1705334676.7232969,3.0,13.0,-4.0,-10.0,-9.0,-3.0,-1.0,-1.0
1705334676.7232969,-3.0,9.0,6.0,4.0,9.0,0.0,-1.0,-2.0
1705334676.7333896,0.0,-1.0,-2.0,-2.0,-20.0,-3.0,-3.0,0.0
1705334676.7333896,0.0,10.0,2.0,-6.0,9.0,-2.0,-1.0,0.0
1705334676.7333896,0.0,-10.0,-5.0,-3.0,-2.0,0.0,-2.0,-1.0
1705334676.7333896,0.0,0.0,-2.0,6.0,9.0,4.0,2.0,-2.0
1705334676.7631109,-1.0,-8.0,3.0,2.0,-11.0,-5.0,0.0,0.0
1705334676.7631109,-1.0,26.0,7.0,-11.0,-29.0,-6.0,-3.0,-1.0
1705334676.7831109,-4.0,-6.0,-3.0,-10.0,29.0,4.0,1.0,0.0
1705334676.7831109,-6.0,-6.0,-17.0,3.0,5.0,-2.0,-3.0,-2.0
1705334676.7831109,-5.0,-10.0,6.0,3.0,-10.0,-3.0,-1.0,0.0
1705334676.7831109,1.0,-35.0,3.0,3.0,1.0,-1.0,0.0,0.0
1705334676.7831109,0.0,54.0,4.0,-1.0,-17.0,-3.0,-1.0,1.0
1705334676.7831109,-2.0,-15.0,-15.0,-11.0,-1.0,2.0,-2.0,-3.0
1705334676.7931051,-2.0,11.0,3.0,5.0,12.0,0.0,-1.0,0.0
1705334676.7931051,-2.0,6.0,11.0,1.0,-1.0,2.0,-1.0,-2.0
1705334676.7931051,2.0,-26.0,-1.0,6.0,-7.0,-1.0,0.0,1.0
1705334676.7931051,0.0,3.0,0.0,-10.0,-7.0,-1.0,0.0,0.0
1705334676.8231106,0.0,-1.0,-10.0,-5.0,10.0,-2.0,0.0,0.0
1705334676.8231106,0.0,7.0,0.0,7.0,7.0,-3.0,1.0,-1.0
1705334676.8231106,-2.0,-8.0,-9.0,2.0,-11.0,-1.0,-2.0,-3.0
1705334676.8231106,-2.0,2.0,-1.0,-5.0,11.0,-1.0,-3.0,-1.0
1705334676.8431082,-1.0,-3.0,1.0,0.0,-10.0,2.0,-2.0,0.0
1705334676.8431082,-2.0,14.0,0.0,1.0,1.0,0.0,0.0,0.0
1705334676.8531048,-3.0,-6.0,-6.0,-7.0,-15.0,-6.0,-1.0,-1.0
1705334676.8531048,0.0,12.0,-1.0,-8.0,5.0,-3.0,-3.0,-3.0
1705334676.8531048,0.0,-6.0,-2.0,2.0,6.0,4.0,0.0,0.0
1705334676.8531048,0.0,3.0,3.0,4.0,-4.0,2.0,-3.0,-2.0
1705334676.8531048,2.0,-10.0,5.0,8.0,3.0,2.0,2.0,0.0
1705334676.8531048,0.0,2.0,-3.0,-3.0,-12.0,-3.0,-2.0,0.0
1705334676.8731105,-4.0,-3.0,-4.0,2.0,6.0,-1.0,-2.0,-1.0
1705334676.8831165,-1.0,21.0,-8.0,1.0,-1.0,-3.0,-3.0,-3.0
1705334676.903107,0.0,-15.0,3.0,-6.0,12.0,-2.0,-2.0,-2.0
1705334676.903107,0.0,-2.0,10.0,-4.0,-17.0,-2.0,-1.0,-1.0
1705334676.903107,1.0,2.0,4.0,5.0,11.0,3.0,4.0,-1.0
1705334676.903107,-4.0,-8.0,-5.0,4.0,-7.0,1.0,0.0,-1.0
1705334676.903107,-3.0,31.0,-11.0,-9.0,-6.0,-3.0,-2.0,-3.0
1705334676.903107,1.0,-2.0,-4.0,-3.0,0.0,-1.0,0.0,0.0
1705334676.913288,3.0,-6.0,-7.0,-13.0,-15.0,-2.0,-3.0,-2.0
1705334676.913288,-2.0,-5.0,2.0,-8.0,7.0,3.0,-1.0,0.0
1705334676.913288,2.0,-16.0,6.0,10.0,18.0,6.0,2.0,2.0
1705334676.913288,0.0,-3.0,4.0,6.0,-5.0,1.0,0.0,-1.0
1705334676.9431098,-2.0,-3.0,-5.0,1.0,-8.0,-5.0,-3.0,-3.0
1705334676.9431098,1.0,-4.0,-10.0,-12.0,-10.0,-5.0,-1.0,-1.0
1705334676.9431098,-2.0,1.0,2.0,0.0,-3.0,-2.0,-4.0,-2.0
1705334676.9431098,0.0,-8.0,4.0,3.0,4.0,-3.0,-1.0,-1.0
1705334676.9531107,-4.0,9.0,-2.0,-6.0,-14.0,-3.0,-2.0,-1.0
1705334676.9531107,0.0,5.0,1.0,5.0,23.0,1.0,-1.0,-2.0
1705334676.9731054,-1.0,-9.0,0.0,9.0,6.0,3.0,-1.0,0.0
1705334676.9731054,2.0,0.0,2.0,6.0,-10.0,-2.0,-1.0,-1.0
1705334676.9731054,-6.0,-2.0,-6.0,-6.0,2.0,1.0,-2.0,-2.0
1705334676.9731054,0.0,3.0,-4.0,-15.0,-15.0,-5.0,-2.0,-1.0
1705334676.9731054,1.0,7.0,-6.0,-10.0,-20.0,-4.0,-2.0,0.0
1705334676.9731054,0.0,0.0,-4.0,1.0,24.0,1.0,-1.0,0.0
1705334677.0031075,4.0,6.0,0.0,7.0,3.0,1.0,-3.0,-1.0
1705334677.0031075,-8.0,-24.0,2.0,12.0,-1.0,0.0,-1.0,0.0
1705334677.0031075,-1.0,-9.0,2.0,-1.0,-1.0,-3.0,-2.0,-3.0
1705334677.0031075,-1.0,7.0,1.0,-6.0,-11.0,-4.0,-2.0,-1.0
1705334677.0231056,-2.0,7.0,2.0,-5.0,-1.0,-1.0,-1.0,1.0
1705334677.0231056,1.0,3.0,-5.0,-5.0,-21.0,-2.0,1.0,0.0
1705334677.0231056,-3.0,0.0,-7.0,-5.0,25.0,-1.0,-1.0,0.0
1705334677.0231056,-2.0,-11.0,-1.0,11.0,-2.0,3.0,1.0,-1.0
1705334677.0406237,2.0,3.0,9.0,3.0,3.0,-4.0,0.0,0.0
1705334677.0406237,1.0,7.0,-1.0,-3.0,1.0,-1.0,-2.0,-2.0
1705334677.0416214,1.0,-5.0,3.0,-1.0,-17.0,-3.0,-1.0,1.0
1705334677.042655,-3.0,-11.0,-8.0,-7.0,4.0,-4.0,-1.0,-2.0
1705334677.077371,-2.0,18.0,-3.0,-3.0,-2.0,-4.0,-3.0,-2.0
1705334677.077371,2.0,-4.0,7.0,4.0,-18.0,0.0,1.0,0.0
1705334677.077371,0.0,20.0,-8.0,3.0,28.0,4.0,0.0,-1.0
1705334677.077371,-4.0,-3.0,4.0,10.0,10.0,2.0,0.0,-2.0
1705334677.077371,1.0,-8.0,1.0,-7.0,-14.0,-5.0,-3.0,-1.0
1705334677.077371,-1.0,2.0,8.0,-1.0,1.0,-2.0,-2.0,-1.0
1705334677.077371,-2.0,10.0,-14.0,-3.0,-12.0,2.0,-1.0,0.0
1705334677.077371,-3.0,9.0,-3.0,-13.0,-21.0,-4.0,-3.0,0.0
1705334677.0977948,-2.0,-2.0,5.0,-2.0,25.0,0.0,0.0,-2.0
1705334677.0977948,0.0,14.0,2.0,-5.0,-5.0,-3.0,-4.0,-3.0
1705334677.0977948,1.0,-16.0,-4.0,-2.0,3.0,6.0,-1.0,-1.0
1705334677.0977948,-2.0,0.0,3.0,10.0,1.0,1.0,1.0,-2.0
1705334677.1273685,1.0,10.0,-6.0,1.0,-11.0,-4.0,0.0,0.0
1705334677.1273685,-2.0,6.0,-7.0,-1.0,13.0,-4.0,0.0,-1.0
1705334677.1273685,1.0,-1.0,6.0,-5.0,-24.0,-9.0,-1.0,-1.0
1705334677.1273685,-2.0,9.0,-1.0,-10.0,5.0,1.0,1.0,-3.0
1705334677.1273685,-2.0,-14.0,5.0,-2.0,-11.0,3.0,-1.0,0.0
1705334677.137423,0.0,12.0,-16.0,5.0,31.0,2.0,-1.0,-1.0
1705334677.1442492,-4.0,-9.0,1.0,0.0,-27.0,-2.0,0.0,-2.0
1705334677.1442492,1.0,-6.0,16.0,4.0,11.0,1.0,0.0,-1.0
1705334677.1545577,-1.0,-9.0,-19.0,-1.0,-9.0,-3.0,-3.0,-1.0
1705334677.1545577,-4.0,20.0,-1.0,-9.0,-10.0,-4.0,-2.0,-4.0
1705334677.1545577,-1.0,-6.0,6.0,1.0,6.0,2.0,-1.0,-2.0
1705334677.1545577,1.0,1.0,2.0,3.0,3.0,3.0,-1.0,0.0
1705334677.204366,1.0,-2.0,12.0,8.0,6.0,-1.0,-1.0,2.0
1705334677.204366,-2.0,-1.0,-7.0,-3.0,-8.0,-3.0,-2.0,0.0
1705334677.204366,-1.0,7.0,-2.0,-5.0,-3.0,-8.0,-4.0,-1.0
1705334677.204366,0.0,-2.0,-10.0,-3.0,-2.0,1.0,-2.0,-3.0
1705334677.204366,-10.0,-9.0,-3.0,-6.0,-1.0,-1.0,-1.0,-3.0
1705334677.204366,1.0,19.0,-1.0,-7.0,-2.0,0.0,1.0,0.0
1705334677.204366,-3.0,5.0,6.0,4.0,7.0,0.0,0.0,-1.0
1705334677.204366,-4.0,-5.0,-5.0,1.0,-3.0,-2.0,0.0,2.0
1705334677.2143648,-1.0,4.0,0.0,-7.0,-22.0,-3.0,-2.0,-2.0
1705334677.2143648,-1.0,-12.0,1.0,1.0,19.0,-1.0,-1.0,-1.0
1705334677.2143648,2.0,1.0,-9.0,-3.0,-5.0,2.0,0.0,0.0
1705334677.2143648,0.0,10.0,-4.0,1.0,12.0,-4.0,-2.0,0.0
1705334677.2446218,1.0,-1.0,4.0,8.0,3.0,3.0,0.0,-1.0
1705334677.2446218,-2.0,-6.0,-4.0,-4.0,-4.0,1.0,-1.0,-1.0
1705334677.2546332,-1.0,-7.0,14.0,-3.0,-11.0,-3.0,-3.0,-2.0
1705334677.2546332,-1.0,-9.0,-10.0,1.0,-10.0,-3.0,-1.0,-1.0
1705334677.2546332,-1.0,4.0,-3.0,-16.0,4.0,-1.0,-2.0,0.0
1705334677.2546332,3.0,11.0,1.0,5.0,-6.0,-1.0,-1.0,-1.0
1705334677.2646294,-1.0,-6.0,-8.0,0.0,13.0,3.0,-1.0,-2.0
1705334677.2646294,1.0,-8.0,5.0,2.0,-7.0,0.0,-1.0,0.0
1705334677.2750902,1.0,-7.0,-1.0,6.0,-3.0,1.0,1.0,-1.0
1705334677.2750902,-2.0,-7.0,1.0,-3.0,2.0,2.0,1.0,0.0
1705334677.2750902,-3.0,-2.0,-11.0,3.0,8.0,0.0,-1.0,1.0
1705334677.2750902,0.0,0.0,5.0,4.0,5.0,1.0,-1.0,0.0
1705334677.3046303,2.0,7.0,0.0,-5.0,-7.0,-3.0,-3.0,-1.0
1705334677.3046303,-1.0,-15.0,-1.0,-3.0,-13.0,-7.0,-2.0,-2.0
1705334677.3146338,-1.0,-1.0,4.0,1.0,1.0,0.0,1.0,-1.0
1705334677.3146338,-1.0,-2.0,-9.0,-12.0,-11.0,-3.0,-2.0,-3.0
1705334677.3146338,2.0,5.0,-4.0,-1.0,3.0,-7.0,0.0,0.0
1705334677.3146338,-5.0,-5.0,-2.0,-7.0,-8.0,2.0,-1.0,-2.0
1705334677.3248327,0.0,6.0,6.0,6.0,8.0,1.0,-1.0,-1.0
1705334677.3248327,1.0,-9.0,-1.0,3.0,4.0,3.0,0.0,0.0
1705334677.3450315,1.0,-20.0,-5.0,4.0,2.0,1.0,-1.0,-1.0
1705334677.3450315,-1.0,7.0,-4.0,-7.0,-2.0,-4.0,-1.0,-4.0
1705334677.3450315,-1.0,-3.0,1.0,-4.0,1.0,-2.0,-1.0,0.0
1705334677.3450315,1.0,10.0,2.0,-2.0,-13.0,-3.0,-2.0,1.0
1705334677.3650415,0.0,8.0,2.0,1.0,-11.0,1.0,-1.0,-1.0
1705334677.3650415,0.0,-5.0,-5.0,5.0,25.0,4.0,0.0,0.0
1705334677.3650415,2.0,4.0,-3.0,10.0,1.0,1.0,1.0,0.0
1705334677.3650415,-1.0,-18.0,0.0,-4.0,-2.0,-1.0,-2.0,-2.0
1705334677.3750796,-5.0,28.0,0.0,-6.0,-7.0,-6.0,-3.0,-4.0
1705334677.3750796,3.0,-9.0,-7.0,-3.0,-10.0,-1.0,-1.0,0.0
1705334677.3850412,-10.0,27.0,-5.0,-7.0,-8.0,-2.0,0.0,-3.0
1705334677.3850412,3.0,-8.0,1.0,-5.0,6.0,1.0,-1.0,1.0
1705334677.4053764,-2.0,-31.0,1.0,-1.0,-1.0,-1.0,-2.0,-2.0
1705334677.4053764,-2.0,4.0,0.0,-1.0,-3.0,-3.0,-3.0,-1.0
1705334677.4053764,-1.0,-8.0,-1.0,2.0,2.0,-4.0,-1.0,-3.0
1705334677.4053764,1.0,-4.0,-2.0,-1.0,-9.0,-3.0,-4.0,-2.0
1705334677.4150429,-2.0,15.0,-4.0,2.0,13.0,5.0,-1.0,-1.0
1705334677.4150429,0.0,-3.0,10.0,9.0,6.0,-1.0,-3.0,-2.0
1705334677.4150429,0.0,-12.0,4.0,-1.0,-15.0,-3.0,-4.0,-1.0
1705334677.4150429,-2.0,1.0,-22.0,-15.0,-18.0,-2.0,2.0,-2.0
1705334677.435401,-2.0,0.0,5.0,5.0,37.0,3.0,1.0,-1.0
1705334677.435401,-2.0,-9.0,-7.0,6.0,3.0,-1.0,0.0,-2.0
1705334677.4449131,2.0,3.0,2.0,1.0,-6.0,0.0,-1.0,1.0
1705334677.4449131,-2.0,13.0,8.0,-4.0,-11.0,-5.0,-2.0,-2.0
1705334677.4553862,0.0,-17.0,-1.0,2.0,-3.0,3.0,1.0,-2.0
1705334677.4553862,-2.0,-6.0,-9.0,1.0,-4.0,0.0,0.0,-1.0
1705334677.4553862,-6.0,2.0,-1.0,-13.0,-11.0,-6.0,-1.0,-1.0
1705334677.4553862,-1.0,15.0,-1.0,-9.0,5.0,0.0,0.0,-1.0
1705334677.4749553,2.0,7.0,1.0,2.0,8.0,0.0,-1.0,2.0
1705334677.4749553,1.0,11.0,6.0,5.0,1.0,2.0,0.0,0.0
1705334677.4749553,3.0,-10.0,-6.0,5.0,1.0,-2.0,0.0,-2.0
1705334677.4849298,-4.0,-21.0,-4.0,0.0,-8.0,-7.0,-4.0,-1.0
1705334677.4953837,0.0,30.0,7.0,-6.0,-27.0,-6.0,-2.0,-2.0
1705334677.4953837,-4.0,7.0,-10.0,-6.0,10.0,4.0,-2.0,-1.0
1705334677.5049298,0.0,-5.0,8.0,3.0,18.0,3.0,-1.0,-2.0
1705334677.5049298,-2.0,-2.0,-6.0,7.0,6.0,-1.0,0.0,0.0
1705334677.5149217,0.0,-31.0,-7.0,-6.0,-2.0,-1.0,-1.0,-2.0
1705334677.5149217,3.0,3.0,7.0,-1.0,-16.0,-6.0,-1.0,-1.0
1705334677.5149217,-4.0,7.0,-2.0,-7.0,-8.0,-5.0,-1.0,-1.0
1705334677.5149217,0.0,2.0,3.0,-1.0,3.0,2.0,-2.0,-1.0
1705334677.535268,-1.0,3.0,0.0,4.0,-4.0,-4.0,1.0,-2.0
1705334677.535268,-3.0,6.0,1.0,-3.0,1.0,2.0,-1.0,-2.0
1705334677.5449266,1.0,1.0,1.0,-1.0,8.0,2.0,1.0,-1.0
1705334677.5449266,-1.0,-2.0,2.0,4.0,9.0,1.0,-1.0,-1.0
1705334677.5552683,0.0,1.0,0.0,-9.0,-12.0,-4.0,-3.0,-1.0
1705334677.5552683,-2.0,-2.0,-5.0,-16.0,-33.0,-7.0,-2.0,1.0
1705334677.5656898,0.0,-6.0,-3.0,1.0,17.0,3.0,1.0,1.0
1705334677.5656898,-2.0,-2.0,-4.0,9.0,20.0,1.0,-3.0,-3.0
1705334677.5899208,-1.0,-8.0,1.0,9.0,1.0,1.0,0.0,0.0
1705334677.5899208,-2.0,-4.0,0.0,-1.0,-3.0,-2.0,-2.0,-3.0
1705334677.5899208,2.0,12.0,-6.0,-9.0,-18.0,-4.0,0.0,-1.0
1705334677.5899208,-2.0,4.0,0.0,-8.0,-6.0,-2.0,1.0,-1.0
1705334677.6001904,1.0,12.0,7.0,5.0,11.0,0.0,-2.0,0.0
1705334677.6001904,3.0,-7.0,-2.0,-5.0,-5.0,-1.0,-3.0,0.0
1705334677.6001904,-9.0,-5.0,2.0,4.0,-5.0,1.0,-1.0,-2.0
1705334677.6001904,0.0,6.0,-11.0,-7.0,7.0,3.0,0.0,-1.0
1705334677.6202912,-7.0,-3.0,-15.0,-6.0,-11.0,-2.0,0.0,-3.0
1705334677.6202912,2.0,-2.0,4.0,-1.0,-10.0,-4.0,-2.0,-2.0
1705334677.6202912,2.0,8.0,1.0,-2.0,14.0,1.0,-1.0,-2.0
1705334677.6202912,-1.0,-16.0,11.0,9.0,0.0,-2.0,-1.0,0.0
1705334677.6399267,0.0,-12.0,-6.0,-3.0,-21.0,2.0,-2.0,-2.0
1705334677.6399267,-3.0,14.0,-5.0,5.0,24.0,-1.0,0.0,-2.0
1705334677.6399267,1.0,-10.0,-5.0,-4.0,-13.0,-1.0,-1.0,1.0
1705334677.6399267,-3.0,0.0,-1.0,-13.0,-17.0,-4.0,-2.0,-1.0
1705334677.660362,2.0,3.0,8.0,-5.0,-3.0,-1.0,-2.0,0.0
1705334677.660362,-2.0,6.0,-1.0,8.0,12.0,4.0,1.0,0.0
1705334677.660362,3.0,1.0,2.0,8.0,3.0,-5.0,-2.0,1.0
1705334677.660362,-2.0,2.0,-4.0,1.0,-2.0,1.0,0.0,-1.0
1705334677.6799238,-4.0,4.0,-2.0,-2.0,0.0,-3.0,-2.0,-2.0
1705334677.6799238,-2.0,-9.0,0.0,-4.0,-6.0,0.0,-2.0,-1.0
1705334677.6799238,1.0,2.0,-4.0,-8.0,-3.0,1.0,3.0,0.0
1705334677.6799238,-1.0,-1.0,-3.0,-1.0,-9.0,-2.0,-2.0,-1.0
1705334677.6999288,-1.0,-12.0,-3.0,4.0,6.0,-3.0,-2.0,0.0
1705334677.6999288,0.0,11.0,3.0,-7.0,-27.0,-1.0,-2.0,-1.0
1705334677.6999288,3.0,-20.0,2.0,1.0,45.0,3.0,0.0,0.0
1705334677.6999288,-6.0,15.0,-3.0,13.0,1.0,0.0,-2.0,-2.0
1705334677.7202816,0.0,23.0,-12.0,-6.0,-11.0,-5.0,-2.0,-2.0
1705334677.7202816,0.0,-2.0,5.0,-5.0,1.0,1.0,1.0,-1.0
1705334677.7202816,-2.0,-4.0,-2.0,0.0,-19.0,-4.0,-4.0,-3.0
1705334677.7202816,3.0,-8.0,4.0,-11.0,0.0,0.0,1.0,1.0
1705334677.749924,0.0,20.0,2.0,8.0,16.0,3.0,0.0,1.0
1705334677.749924,0.0,2.0,-3.0,2.0,-5.0,-6.0,-2.0,-2.0
1705334677.749924,-3.0,16.0,-5.0,-11.0,-18.0,-6.0,0.0,-1.0
1705334677.749924,3.0,-18.0,9.0,2.0,2.0,5.0,-2.0,-2.0
1705334677.749924,-3.0,-15.0,-7.0,13.0,20.0,5.0,1.0,-1.0
1705334677.749924,-1.0,-1.0,20.0,3.0,9.0,3.0,0.0,-1.0
1705334677.7599227,-4.0,-1.0,-23.0,-9.0,-6.0,-3.0,-3.0,-3.0
1705334677.7599227,1.0,-2.0,-14.0,-26.0,-55.0,-14.0,-1.0,-1.0
1705334677.7803922,2.0,1.0,6.0,-10.0,27.0,0.0,0.0,2.0
1705334677.7803922,-1.0,1.0,-2.0,15.0,10.0,4.0,0.0,2.0
1705334677.7899282,-11.0,-9.0,16.0,13.0,4.0,2.0,-3.0,-1.0
1705334677.7899282,0.0,-2.0,-3.0,1.0,0.0,-2.0,-4.0,-3.0
1705334677.7999237,-1.0,-1.0,0.0,-4.0,-16.0,-5.0,-3.0,-2.0
1705334677.7999237,-2.0,-7.0,-2.0,1.0,-3.0,-5.0,1.0,-1.0
1705334677.7999237,1.0,1.0,-7.0,-6.0,-4.0,1.0,-1.0,-1.0
1705334677.7999237,-8.0,-5.0,9.0,1.0,11.0,1.0,1.0,-1.0
1705334677.8102922,-3.0,14.0,8.0,0.0,-3.0,-1.0,-2.0,2.0
1705334677.8102922,1.0,-6.0,-15.0,-10.0,-17.0,-5.0,-1.0,-1.0
1705334677.819925,-1.0,-12.0,-24.0,-17.0,-3.0,0.0,0.0,1.0
1705334677.819925,0.0,-5.0,9.0,7.0,17.0,4.0,-1.0,-1.0
1705334677.840184,-1.0,-8.0,1.0,11.0,11.0,2.0,0.0,-1.0
1705334677.840184,0.0,6.0,3.0,1.0,0.0,-1.0,0.0,0.0
1705334677.8520577,3.0,25.0,8.0,-7.0,-32.0,-7.0,-3.0,-1.0
1705334677.8520577,-2.0,-21.0,-10.0,5.0,34.0,1.0,-1.0,-1.0
1705334677.8603952,-4.0,-1.0,-10.0,-12.0,-21.0,0.0,-2.0,-4.0
1705334677.8603952,3.0,-5.0,2.0,5.0,3.0,-1.0,1.0,1.0
1705334677.8603952,1.0,-8.0,1.0,5.0,5.0,-2.0,-4.0,-1.0
1705334677.8603952,2.0,8.0,4.0,2.0,-6.0,-2.0,-2.0,1.0
1705334677.8705015,1.0,-7.0,-10.0,-10.0,-11.0,0.0,0.0,0.0
1705334677.8705015,-2.0,-3.0,-7.0,2.0,22.0,0.0,-4.0,-3.0
1705334677.8803382,1.0,2.0,11.0,14.0,-6.0,-2.0,-1.0,-2.0
1705334677.8803382,0.0,2.0,-7.0,-9.0,-6.0,-5.0,-4.0,-1.0
1705334677.9002962,-4.0,-21.0,-2.0,-11.0,-25.0,-4.0,1.0,-1.0
1705334677.9002962,-3.0,14.0,-2.0,-12.0,-6.0,-5.0,-3.0,-2.0
1705334677.9002962,-2.0,-4.0,4.0,15.0,33.0,5.0,2.0,-1.0
1705334677.9002962,3.0,2.0,0.0,6.0,-5.0,4.0,1.0,0.0
1705334677.9207032,-1.0,1.0,-12.0,-3.0,0.0,-1.0,-2.0,-2.0
1705334677.9207032,1.0,-10.0,-3.0,-6.0,-8.0,-3.0,-1.0,0.0
1705334677.9207032,-2.0,-1.0,2.0,-2.0,-13.0,-5.0,-4.0,-2.0
1705334677.9207032,-1.0,12.0,2.0,-4.0,-1.0,-1.0,0.0,-1.0
1705334677.9306211,1.0,-4.0,-3.0,2.0,9.0,4.0,0.0,1.0
1705334677.9306211,-2.0,-1.0,3.0,-4.0,-14.0,-4.0,-2.0,-3.0
1705334677.9404914,-2.0,7.0,7.0,1.0,10.0,0.0,0.0,-1.0
1705334677.9404914,-1.0,-6.0,-4.0,8.0,4.0,2.0,-2.0,-1.0
1705334677.9602966,2.0,3.0,9.0,-7.0,3.0,1.0,-2.0,-1.0
1705334677.9602966,-3.0,4.0,-16.0,2.0,4.0,3.0,-2.0,0.0
1705334677.9602966,-9.0,-9.0,-2.0,5.0,-2.0,-2.0,0.0,-1.0
1705334677.9602966,-1.0,5.0,-2.0,-10.0,-35.0,-7.0,-2.0,-3.0
1705334677.980698,0.0,0.0,5.0,14.0,44.0,2.0,0.0,-2.0
1705334677.980698,2.0,-14.0,1.0,4.0,-7.0,-1.0,-3.0,0.0
1705334677.980698,3.0,21.0,-3.0,-12.0,-4.0,0.0,-1.0,-2.0
1705334677.980698,-6.0,0.0,-10.0,-9.0,-9.0,-6.0,-1.0,-1.0
1705334677.9906363,-1.0,5.0,2.0,-4.0,-11.0,-3.0,-1.0,-3.0
1705334677.9906363,-2.0,-1.0,-3.0,-7.0,2.0,0.0,1.0,-2.0
1705334678.000585,0.0,-6.0,-2.0,1.0,-3.0,3.0,0.0,0.0
1705334678.000585,-1.0,-3.0,4.0,0.0,2.0,-1.0,1.0,-1.0
1705334678.020298,0.0,-2.0,0.0,-6.0,-13.0,-7.0,-1.0,0.0
1705334678.020298,-3.0,8.0,2.0,7.0,20.0,6.0,-1.0,-2.0
1705334678.0302958,1.0,-14.0,2.0,4.0,-1.0,2.0,0.0,1.0
1705334678.0302958,-4.0,11.0,-6.0,-3.0,4.0,0.0,-2.0,-1.0
1705334678.040524,0.0,-5.0,2.0,-1.0,-26.0,-2.0,-3.0,-3.0
1705334678.040524,-3.0,-3.0,-1.0,6.0,18.0,-2.0,-2.0,-2.0
1705334678.040524,-4.0,15.0,-2.0,-8.0,-8.0,-3.0,-2.0,0.0
1705334678.040524,-1.0,-12.0,-1.0,1.0,14.0,0.0,-1.0,-2.0
1705334678.050533,1.0,-8.0,0.0,-1.0,-17.0,0.0,-2.0,-2.0
1705334678.050533,0.0,27.0,1.0,-1.0,1.0,1.0,0.0,1.0
1705334678.0603402,2.0,-3.0,-2.0,-1.0,1.0,1.0,0.0,-1.0
1705334678.0603402,0.0,5.0,11.0,-1.0,-2.0,-6.0,-1.0,-2.0
1705334678.08058,-1.0,5.0,0.0,8.0,11.0,2.0,-1.0,0.0
1705334678.08058,-4.0,-2.0,-10.0,-14.0,-21.0,-2.0,-1.0,-1.0
1705334678.08058,-1.0,-2.0,-10.0,-3.0,8.0,-3.0,-3.0,-3.0
1705334678.08058,2.0,-15.0,2.0,9.0,8.0,6.0,-1.0,1.0
1705334678.1173997,1.0,-1.0,3.0,2.0,3.0,-2.0,0.0,0.0
1705334678.1173997,0.0,25.0,10.0,3.0,-16.0,-5.0,-1.0,-2.0
1705334678.1173997,-1.0,-5.0,-11.0,-2.0,2.0,-3.0,-2.0,-2.0
1705334678.1173997,-1.0,-6.0,-1.0,-12.0,-3.0,-3.0,-3.0,-1.0
1705334678.118571,-4.0,-4.0,5.0,7.0,8.0,4.0,1.0,-2.0
1705334678.118571,0.0,-3.0,-8.0,-1.0,3.0,5.0,2.0,1.0
1705334678.1226518,-1.0,2.0,5.0,2.0,-11.0,-2.0,0.0,0.0
1705334678.1226518,2.0,1.0,3.0,11.0,4.0,2.0,3.0,0.0
1705334678.1428978,-2.0,-8.0,-11.0,-11.0,-5.0,-8.0,-3.0,-1.0
1705334678.1428978,0.0,23.0,1.0,-10.0,-9.0,-6.0,-3.0,-1.0
1705334678.1428978,-9.0,-6.0,-3.0,-1.0,2.0,0.0,-2.0,-2.0
1705334678.1428978,1.0,0.0,0.0,3.0,1.0,1.0,1.0,2.0
1705334678.1628435,-2.0,-6.0,4.0,9.0,2.0,5.0,2.0,-1.0
1705334678.1628435,-3.0,-5.0,-15.0,-1.0,10.0,-1.0,1.0,-3.0
1705334678.1628435,2.0,6.0,16.0,-1.0,-18.0,-4.0,1.0,-1.0
1705334678.1628435,-3.0,-5.0,-6.0,2.0,5.0,-3.0,-1.0,1.0
1705334678.1726823,-4.0,2.0,9.0,5.0,9.0,4.0,0.0,0.0
1705334678.1726823,3.0,-10.0,-7.0,-8.0,-8.0,-2.0,-2.0,-2.0
1705334678.21076,2.0,-3.0,-1.0,-6.0,-8.0,-4.0,-1.0,0.0
1705334678.21076,-3.0,-7.0,-15.0,-11.0,-8.0,-6.0,-3.0,-3.0
1705334678.21076,0.0,15.0,18.0,4.0,1.0,1.0,-2.0,-2.0
1705334678.21076,1.0,-18.0,-10.0,1.0,-3.0,-3.0,-2.0,1.0
1705334678.21076,3.0,3.0,-4.0,-12.0,8.0,4.0,2.0,0.0
1705334678.21076,-1.0,-47.0,4.0,13.0,0.0,1.0,1.0,-1.0
1705334678.2210312,-3.0,22.0,-6.0,-8.0,-5.0,-6.0,-3.0,-1.0
1705334678.2210312,0.0,-11.0,8.0,1.0,-5.0,-2.0,-2.0,-1.0
1705334678.2210312,0.0,-15.0,-3.0,-4.0,-12.0,-2.0,1.0,-1.0
1705334678.2210312,4.0,3.0,-4.0,-9.0,-5.0,-3.0,-2.0,-2.0
1705334678.2310188,-3.0,-12.0,-8.0,3.0,26.0,0.0,-2.0,-2.0
1705334678.2310188,-3.0,-2.0,6.0,4.0,-5.0,0.0,3.0,1.0
1705334678.2607627,0.0,0.0,4.0,7.0,-2.0,-4.0,-1.0,-2.0
1705334678.2607627,0.0,22.0,-4.0,-1.0,-2.0,4.0,0.0,-2.0
1705334678.2607627,1.0,-8.0,-2.0,-7.0,-17.0,-5.0,-1.0,-1.0
1705334678.2607627,-1.0,6.0,0.0,-5.0,6.0,-1.0,-3.0,-1.0
1705334678.2607627,-1.0,-6.0,-2.0,-3.0,3.0,0.0,-1.0,-1.0
1705334678.2607627,-2.0,4.0,6.0,7.0,2.0,-2.0,0.0,-3.0
1705334678.2810965,0.0,1.0,-4.0,5.0,1.0,-1.0,-4.0,0.0
1705334678.2810965,-8.0,-8.0,5.0,0.0,-7.0,-2.0,-1.0,-2.0
1705334678.2810965,0.0,-2.0,-22.0,-15.0,-1.0,-1.0,-4.0,0.0
1705334678.2810965,-1.0,6.0,0.0,-2.0,4.0,-1.0,-1.0,0.0
1705334678.2910194,-1.0,-5.0,-8.0,-11.0,-12.0,-3.0,-1.0,1.0
1705334678.2910194,3.0,-1.0,11.0,5.0,9.0,1.0,1.0,-1.0
1705334678.3009777,0.0,-6.0,-13.0,4.0,-2.0,-2.0,0.0,0.0
1705334678.3009777,-3.0,8.0,5.0,-4.0,10.0,-3.0,0.0,1.0
1705334678.331088,-2.0,-26.0,-7.0,0.0,-10.0,-5.0,-4.0,0.0
1705334678.331088,0.0,-6.0,4.0,-7.0,-15.0,-3.0,1.0,-1.0
1705334678.331088,-4.0,10.0,2.0,1.0,1.0,0.0,-1.0,-4.0
1705334678.331088,1.0,-11.0,-7.0,0.0,9.0,2.0,1.0,0.0
1705334678.3411222,3.0,9.0,7.0,2.0,-4.0,-1.0,1.0,1.0
1705334678.3411222,-3.0,12.0,-15.0,-5.0,-3.0,-5.0,-3.0,-2.0
1705334678.3411222,2.0,-6.0,7.0,-1.0,-3.0,-1.0,-2.0,-1.0
1705334678.3411222,-4.0,-1.0,-6.0,-2.0,-4.0,-1.0,-1.0,-1.0
1705334678.361089,0.0,-3.0,-10.0,-8.0,-2.0,0.0,2.0,-1.0
1705334678.361089,2.0,-1.0,3.0,3.0,3.0,0.0,-2.0,-1.0
1705334678.361089,1.0,-6.0,1.0,-1.0,-17.0,-4.0,-1.0,0.0
1705334678.361089,-4.0,17.0,10.0,1.0,21.0,-1.0,0.0,-2.0
1705334678.3815162,-1.0,-29.0,-10.0,-2.0,-22.0,-4.0,-4.0,-1.0
1705334678.3815162,2.0,1.0,-7.0,1.0,24.0,3.0,0.0,-2.0
1705334678.3815162,0.0,-9.0,8.0,4.0,-5.0,-2.0,1.0,1.0
1705334678.3815162,2.0,-4.0,-2.0,-9.0,-25.0,-3.0,-4.0,-2.0
1705334678.4015968,-2.0,10.0,-3.0,3.0,15.0,1.0,1.0,1.0
1705334678.4015968,-2.0,7.0,6.0,5.0,-4.0,-2.0,0.0,-2.0
1705334678.4015968,0.0,-3.0,-13.0,0.0,7.0,0.0,-1.0,-2.0
1705334678.4015968,0.0,11.0,5.0,-9.0,-15.0,-6.0,0.0,0.0
1705334678.411649,0.0,27.0,15.0,1.0,6.0,-1.0,-3.0,-3.0
1705334678.411649,-2.0,3.0,-1.0,3.0,-2.0,-1.0,-3.0,-1.0
1705334678.4313533,-1.0,5.0,3.0,7.0,10.0,1.0,1.0,1.0
1705334678.4313533,-1.0,-13.0,-4.0,2.0,-8.0,-2.0,-1.0,1.0
1705334678.4416294,1.0,-22.0,-2.0,-12.0,-15.0,-5.0,0.0,0.0
1705334678.4416294,-2.0,-10.0,2.0,-3.0,16.0,0.0,-3.0,-4.0
1705334678.4416294,1.0,14.0,4.0,4.0,2.0,0.0,-1.0,0.0
1705334678.4416294,-4.0,5.0,-2.0,1.0,1.0,-1.0,-2.0,-4.0
1705334678.461426,0.0,2.0,-4.0,7.0,-4.0,0.0,0.0,0.0
1705334678.461426,0.0,3.0,-8.0,-10.0,0.0,1.0,-2.0,2.0
1705334678.4813569,0.0,-17.0,-4.0,-4.0,-17.0,-5.0,-1.0,-2.0
1705334678.4813569,-1.0,12.0,-1.0,-1.0,2.0,-1.0,-1.0,-1.0
1705334678.4813569,-1.0,6.0,-4.0,-3.0,5.0,-1.0,2.0,-2.0
1705334678.4813569,-1.0,-5.0,-1.0,2.0,-5.0,2.0,1.0,-1.0
1705334678.4813569,1.0,0.0,10.0,0.0,3.0,-2.0,-3.0,-2.0
1705334678.4813569,-4.0,19.0,-6.0,-6.0,-11.0,-5.0,-3.0,-2.0
1705334678.5017269,-5.0,-12.0,-11.0,-7.0,-3.0,0.0,-1.0,0.0
1705334678.5017269,2.0,-20.0,-4.0,2.0,0.0,-2.0,1.0,1.0
1705334678.5017269,-4.0,-8.0,-2.0,-4.0,6.0,3.0,0.0,-1.0
1705334678.5017269,1.0,-14.0,5.0,4.0,4.0,-2.0,0.0,-2.0
1705334678.5213563,-1.0,-5.0,2.0,-10.0,5.0,2.0,-1.0,-1.0
1705334678.5213563,0.0,14.0,-1.0,7.0,-1.0,0.0,0.0,-2.0
1705334678.5213563,-5.0,15.0,-12.0,0.0,-3.0,-3.0,-1.0,1.0
1705334678.5213563,-2.0,-4.0,-10.0,1.0,6.0,0.0,1.0,-2.0
1705334678.541813,1.0,6.0,27.0,7.0,4.0,1.0,0.0,-3.0
1705334678.541813,2.0,-1.0,-17.0,-11.0,-6.0,-1.0,-3.0,-1.0
1705334678.541813,-12.0,7.0,4.0,-6.0,-13.0,-7.0,-3.0,-3.0
1705334678.541813,3.0,-10.0,-10.0,-7.0,-3.0,5.0,1.0,-1.0
1705334678.5617673,-3.0,3.0,-6.0,3.0,4.0,-2.0,-1.0,-1.0
1705334678.5617673,-1.0,-13.0,18.0,8.0,-5.0,2.0,3.0,0.0
1705334678.5617673,3.0,21.0,-7.0,1.0,3.0,-1.0,-1.0,-2.0
1705334678.5617673,0.0,-24.0,-11.0,-6.0,-4.0,-2.0,-1.0,0.0
1705334678.581354,-1.0,5.0,15.0,-1.0,0.0,-1.0,0.0,-2.0
1705334678.581354,-3.0,6.0,4.0,-4.0,-23.0,-4.0,-4.0,-2.0
1705334678.581354,-2.0,-20.0,-8.0,-9.0,27.0,-2.0,0.0,0.0
1705334678.581354,1.0,1.0,5.0,8.0,-9.0,1.0,-1.0,0.0
1705334678.6018097,5.0,-1.0,-5.0,3.0,12.0,2.0,2.0,-1.0
1705334678.6018097,-6.0,-3.0,-13.0,4.0,-6.0,-3.0,-1.0,-1.0
1705334678.6018097,-8.0,3.0,14.0,6.0,-4.0,0.0,0.0,0.0
1705334678.6018097,-2.0,-10.0,-5.0,-7.0,1.0,0.0,-2.0,-1.0
1705334678.6226861,-1.0,8.0,-6.0,-8.0,-4.0,-2.0,-2.0,0.0
1705334678.6226861,2.0,5.0,-5.0,-9.0,3.0,2.0,-1.0,0.0
1705334678.6246934,6.0,0.0,6.0,11.0,7.0,2.0,1.0,0.0
1705334678.6246934,-3.0,-14.0,4.0,4.0,-6.0,-3.0,2.0,2.0
1705334678.6451924,-10.0,1.0,-9.0,-3.0,-6.0,-4.0,-5.0,-4.0
1705334678.6451924,3.0,8.0,5.0,-1.0,3.0,-1.0,-1.0,-1.0
1705334678.646556,-2.0,-20.0,-4.0,1.0,-6.0,-3.0,-2.0,-2.0
1705334678.646556,-4.0,23.0,2.0,-2.0,2.0,0.0,-3.0,-6.0
1705334678.6660175,1.0,1.0,-13.0,-15.0,-28.0,-6.0,-3.0,-1.0
1705334678.6660175,-1.0,-6.0,6.0,1.0,22.0,-3.0,-1.0,-1.0
1705334678.6660175,0.0,-3.0,-1.0,2.0,-17.0,2.0,-2.0,0.0
1705334678.6660175,-1.0,-9.0,-3.0,1.0,25.0,3.0,1.0,-1.0
1705334678.675563,0.0,-9.0,-1.0,3.0,2.0,1.0,-1.0,-2.0
1705334678.675563,1.0,9.0,10.0,-3.0,-14.0,-4.0,-1.0,0.0
1705334678.6920998,2.0,-7.0,-8.0,-5.0,-7.0,-6.0,1.0,-1.0
1705334678.6920998,0.0,10.0,5.0,-6.0,-12.0,-2.0,-3.0,-1.0
1705334678.7024438,0.0,12.0,-14.0,6.0,4.0,3.0,1.0,0.0
1705334678.7024438,-4.0,0.0,0.0,-8.0,-2.0,0.0,0.0,-1.0
1705334678.7024438,5.0,1.0,14.0,5.0,9.0,2.0,-1.0,2.0
1705334678.7024438,-7.0,34.0,14.0,-3.0,-3.0,-3.0,-2.0,-2.0
1705334678.7227387,-4.0,-9.0,-15.0,-4.0,4.0,-1.0,-2.0,-2.0
1705334678.7227387,-3.0,-5.0,-10.0,-10.0,-25.0,-4.0,-2.0,-1.0
1705334678.7227387,-1.0,20.0,0.0,-4.0,-12.0,-4.0,-2.0,-2.0
1705334678.7227387,6.0,-34.0,-10.0,14.0,37.0,6.0,1.0,-1.0
1705334678.7624598,-1.0,4.0,7.0,10.0,-5.0,1.0,1.0,-1.0
1705334678.7624598,0.0,12.0,0.0,7.0,7.0,0.0,0.0,-1.0
1705334678.7624598,-2.0,1.0,-5.0,-10.0,-13.0,-1.0,0.0,-2.0
1705334678.7624598,5.0,0.0,5.0,-5.0,-19.0,-5.0,0.0,3.0
1705334678.7624598,1.0,-13.0,-3.0,-2.0,6.0,0.0,1.0,1.0
1705334678.7624598,-5.0,7.0,-1.0,-8.0,-5.0,-3.0,-4.0,-4.0
1705334678.7624598,0.0,7.0,-1.0,-1.0,3.0,0.0,-1.0,-1.0
1705334678.7624598,-2.0,-6.0,9.0,5.0,2.0,1.0,-2.0,-2.0
1705334678.782915,0.0,-5.0,-5.0,-1.0,2.0,0.0,0.0,-2.0
1705334678.782915,2.0,2.0,-3.0,2.0,-1.0,0.0,2.0,0.0
1705334678.782915,-3.0,6.0,8.0,4.0,4.0,1.0,-2.0,-2.0
1705334678.782915,-15.0,-10.0,-17.0,-9.0,-1.0,-6.0,-3.0,-5.0
1705334678.8021328,2.0,9.0,3.0,-9.0,-9.0,-4.0,-2.0,2.0
1705334678.8021328,3.0,10.0,4.0,-2.0,-7.0,-3.0,-1.0,1.0
1705334678.812132,2.0,2.0,4.0,7.0,36.0,4.0,1.0,-1.0
1705334678.812132,3.0,-9.0,-6.0,-4.0,-19.0,1.0,1.0,0.0
1705334678.822155,-3.0,-2.0,-3.0,12.0,16.0,5.0,1.0,-1.0
1705334678.822155,-2.0,6.0,9.0,3.0,-8.0,-1.0,1.0,-2.0
1705334678.822155,-7.0,12.0,-1.0,-2.0,-14.0,-7.0,-3.0,-1.0
1705334678.822155,-1.0,6.0,9.0,-8.0,-4.0,-2.0,-2.0,0.0
1705334678.8423865,-1.0,-5.0,-17.0,-8.0,-5.0,-7.0,-3.0,-3.0
1705334678.8423865,0.0,-25.0,-4.0,1.0,9.0,10.0,0.0,1.0
1705334678.8423865,-1.0,4.0,-11.0,-9.0,-6.0,1.0,-1.0,-1.0
1705334678.8423865,-3.0,-2.0,-5.0,5.0,-5.0,-4.0,-2.0,-1.0
1705334678.8721347,2.0,6.0,24.0,4.0,3.0,-2.0,-3.0,0.0
1705334678.8721347,-3.0,-7.0,-9.0,0.0,3.0,-3.0,-1.0,-1.0
1705334678.8721347,2.0,8.0,2.0,0.0,4.0,0.0,0.0,0.0
1705334678.8721347,-3.0,-9.0,-12.0,-4.0,-9.0,-1.0,0.0,-1.0
1705334678.8824286,-1.0,5.0,-6.0,-3.0,-17.0,-2.0,1.0,-1.0
1705334678.8824286,-1.0,10.0,5.0,-3.0,14.0,-5.0,-2.0,-3.0
1705334678.8824286,-1.0,-2.0,-7.0,-2.0,14.0,-1.0,-2.0,0.0
1705334678.8824286,3.0,-21.0,13.0,12.0,-8.0,-1.0,-1.0,1.0
1705334678.9121764,-9.0,20.0,-5.0,-7.0,0.0,-2.0,-2.0,-2.0
1705334678.9121764,-1.0,-4.0,-7.0,-6.0,-11.0,-3.0,-2.0,0.0
1705334678.9121764,1.0,-2.0,-6.0,-7.0,-12.0,0.0,0.0,-2.0
1705334678.9121764,5.0,2.0,5.0,-1.0,8.0,-2.0,-2.0,0.0
1705334678.9221325,-3.0,-6.0,5.0,5.0,-1.0,-3.0,-2.0,-1.0
1705334678.9221325,-4.0,-12.0,-7.0,0.0,-1.0,-1.0,-3.0,-4.0
1705334678.9221325,0.0,17.0,4.0,3.0,3.0,3.0,0.0,0.0
1705334678.9221325,-2.0,-12.0,1.0,-15.0,-7.0,-2.0,1.0,0.0
1705334678.9424167,-1.0,-6.0,-5.0,-8.0,-14.0,-4.0,-3.0,-2.0
1705334678.9424167,-2.0,0.0,-3.0,11.0,19.0,0.0,-2.0,1.0
1705334678.9424167,-1.0,-4.0,-4.0,7.0,1.0,0.0,0.0,-1.0
1705334678.9424167,1.0,6.0,-1.0,-6.0,-24.0,-2.0,-2.0,0.0
1705334678.9621413,4.0,13.0,-2.0,-11.0,5.0,-3.0,-1.0,0.0
1705334678.9621413,-5.0,3.0,-1.0,6.0,16.0,4.0,-1.0,-3.0
1705334678.9821327,0.0,1.0,2.0,3.0,-14.0,-1.0,-2.0,-1.0
1705334678.9821327,3.0,-4.0,-4.0,-3.0,6.0,-1.0,0.0,0.0
1705334678.9821327,-2.0,-7.0,7.0,1.0,-7.0,-1.0,-2.0,1.0
1705334678.9821327,-7.0,14.0,-10.0,-8.0,-10.0,-2.0,-1.0,-2.0
1705334678.9821327,-1.0,2.0,-2.0,-8.0,2.0,-2.0,-2.0,0.0
1705334678.9821327,-2.0,9.0,-4.0,0.0,0.0,-2.0,0.0,-2.0
1705334679.0024953,3.0,-1.0,3.0,5.0,-1.0,1.0,0.0,-2.0
1705334679.0024953,3.0,15.0,1.0,0.0,6.0,1.0,0.0,1.0
1705334679.0024953,-6.0,-18.0,-2.0,1.0,-5.0,-1.0,0.0,-3.0
1705334679.0024953,-1.0,13.0,4.0,6.0,-9.0,-4.0,0.0,-1.0
1705334679.022551,0.0,-5.0,-4.0,7.0,4.0,-2.0,-3.0,-2.0
1705334679.022551,-2.0,-15.0,-5.0,-9.0,2.0,-5.0,-2.0,-1.0
1705334679.022551,-1.0,0.0,-8.0,-9.0,-7.0,1.0,-1.0,1.0
1705334679.022551,0.0,-2.0,3.0,2.0,5.0,3.0,-1.0,1.0
1705334679.0421321,0.0,-1.0,2.0,6.0,1.0,2.0,0.0,-3.0
1705334679.0421321,1.0,9.0,2.0,0.0,-12.0,-2.0,-2.0,-1.0
1705334679.0421321,1.0,-4.0,-3.0,-6.0,-5.0,-5.0,-2.0,-3.0
1705334679.0421321,-6.0,0.0,1.0,1.0,13.0,2.0,-1.0,-1.0
1705334679.062466,0.0,15.0,1.0,-4.0,-4.0,-1.0,-2.0,0.0
1705334679.062466,0.0,-11.0,-3.0,-5.0,-10.0,0.0,1.0,-1.0
1705334679.062466,0.0,-2.0,-4.0,-4.0,-2.0,-5.0,-2.0,-2.0
1705334679.062466,-1.0,7.0,-6.0,1.0,11.0,0.0,0.0,-1.0
1705334679.0921319,-3.0,-6.0,1.0,-1.0,6.0,1.0,-1.0,0.0
1705334679.0921319,2.0,11.0,8.0,6.0,-5.0,2.0,0.0,0.0
1705334679.0921319,-4.0,8.0,-7.0,0.0,-13.0,-3.0,-1.0,0.0
1705334679.0921319,2.0,-4.0,0.0,-2.0,20.0,-4.0,-2.0,-2.0
1705334679.1021376,-1.0,12.0,-7.0,-2.0,-6.0,-4.0,-2.0,0.0
1705334679.1021376,-3.0,5.0,1.0,0.0,-1.0,2.0,-1.0,-1.0
1705334679.1021376,-3.0,-9.0,6.0,6.0,-1.0,2.0,-1.0,0.0
1705334679.1021376,0.0,-2.0,-10.0,3.0,-9.0,-2.0,-1.0,0.0
1705334679.1221707,3.0,-2.0,-7.0,-7.0,6.0,0.0,2.0,1.0
1705334679.1221707,0.0,5.0,9.0,-1.0,-4.0,0.0,0.0,-2.0
1705334679.1221707,-1.0,-10.0,-1.0,-11.0,-11.0,-6.0,-4.0,-2.0
1705334679.1221707,0.0,-15.0,6.0,-1.0,0.0,-1.0,-4.0,-2.0
1705334679.1525588,-10.0,11.0,-18.0,-1.0,4.0,0.0,0.0,-1.0
1705334679.1525588,0.0,-8.0,-3.0,2.0,-4.0,0.0,0.0,-1.0
1705334679.1525588,1.0,-10.0,2.0,3.0,11.0,4.0,0.0,1.0
1705334679.1525588,5.0,-5.0,1.0,-6.0,-11.0,-3.0,-2.0,-3.0
1705334679.161362,4.0,-1.0,11.0,1.0,-8.0,-7.0,-3.0,-2.0
1705334679.161362,-5.0,12.0,-15.0,-11.0,-23.0,-1.0,0.0,-1.0
1705334679.1697206,2.0,5.0,-10.0,-2.0,46.0,4.0,-1.0,0.0
1705334679.1697206,-3.0,1.0,4.0,8.0,-8.0,-2.0,1.0,0.0
1705334679.1820097,-5.0,-20.0,17.0,-3.0,-2.0,0.0,-4.0,-5.0
1705334679.1820097,-1.0,-1.0,-4.0,5.0,4.0,1.0,-2.0,-2.0
1705334679.1820097,-1.0,-1.0,3.0,-9.0,-17.0,-4.0,0.0,0.0
1705334679.1820097,-3.0,14.0,-14.0,3.0,-2.0,-2.0,-1.0,-2.0
1705334679.2020621,-1.0,-6.0,2.0,-9.0,-10.0,-4.0,-1.0,0.0
1705334679.2020621,3.0,-5.0,6.0,-1.0,11.0,-3.0,-1.0,-1.0
1705334679.2020621,-1.0,9.0,-4.0,2.0,-7.0,4.0,0.0,-1.0
1705334679.2020621,-3.0,3.0,0.0,0.0,14.0,4.0,0.0,0.0
1705334679.2220228,0.0,-3.0,-2.0,3.0,-4.0,1.0,0.0,-1.0
1705334679.2220228,2.0,-7.0,0.0,1.0,3.0,-3.0,1.0,-1.0
1705334679.2220228,-2.0,8.0,3.0,-4.0,0.0,1.0,0.0,-1.0
1705334679.2220228,-3.0,6.0,7.0,-8.0,-12.0,-6.0,1.0,-1.0
1705334679.2422206,5.0,-43.0,-21.0,-4.0,10.0,0.0,-1.0,-1.0
1705334679.2422206,-4.0,10.0,1.0,5.0,8.0,1.0,-1.0,-1.0
1705334679.2422206,-5.0,7.0,13.0,14.0,5.0,0.0,-2.0,-3.0
1705334679.2422206,1.0,-14.0,-12.0,-8.0,-8.0,0.0,-1.0,0.0
1705334679.271957,2.0,2.0,-6.0,-4.0,-12.0,-4.0,0.0,3.0
1705334679.271957,1.0,-5.0,8.0,-2.0,6.0,-3.0,-2.0,0.0
1705334679.271957,-8.0,-2.0,0.0,4.0,1.0,-2.0,-1.0,-1.0
1705334679.271957,2.0,-4.0,3.0,3.0,-8.0,-2.0,-2.0,-2.0
1705334679.282018,-5.0,-1.0,-4.0,-2.0,6.0,3.0,0.0,-2.0
1705334679.282018,-4.0,-3.0,3.0,-3.0,-7.0,-1.0,-1.0,0.0
1705334679.282018,3.0,-18.0,-23.0,-4.0,-1.0,4.0,1.0,1.0
1705334679.282018,-1.0,3.0,7.0,-2.0,6.0,1.0,0.0,-1.0
1705334679.302031,4.0,-4.0,-2.0,2.0,-1.0,1.0,0.0,-2.0
1705334679.302031,1.0,-8.0,7.0,-6.0,-35.0,-8.0,-3.0,-1.0
1705334679.302031,2.0,13.0,4.0,0.0,38.0,1.0,0.0,-3.0
1705334679.302031,-3.0,-15.0,-9.0,2.0,-5.0,-2.0,-2.0,0.0
1705334679.331956,-4.0,-11.0,9.0,9.0,-6.0,2.0,1.0,-2.0
1705334679.331956,-1.0,9.0,-11.0,-4.0,9.0,2.0,-1.0,0.0
1705334679.331956,1.0,14.0,7.0,-10.0,-23.0,-9.0,-2.0,0.0
1705334679.331956,-3.0,2.0,1.0,1.0,-9.0,-4.0,-4.0,0.0
1705334679.331956,-4.0,8.0,3.0,-1.0,14.0,1.0,0.0,-2.0
1705334679.342011,1.0,6.0,0.0,2.0,-3.0,1.0,-2.0,-1.0
1705334679.342011,3.0,-11.0,-11.0,1.0,-4.0,2.0,1.0,2.0
1705334679.342011,-8.0,-5.0,3.0,1.0,15.0,4.0,2.0,-2.0
1705334679.361984,-1.0,-30.0,5.0,1.0,-8.0,-2.0,0.0,-1.0
1705334679.361984,-3.0,18.0,-13.0,-4.0,0.0,-5.0,-3.0,-1.0
1705334679.361984,1.0,6.0,-3.0,-4.0,-12.0,-2.0,-1.0,-1.0
1705334679.361984,-2.0,-3.0,4.0,-13.0,-29.0,-5.0,-4.0,-3.0
1705334679.38288,2.0,16.0,-6.0,-3.0,19.0,1.0,0.0,1.0
1705334679.38288,-4.0,-14.0,9.0,13.0,24.0,5.0,-1.0,-3.0
1705334679.38288,1.0,-28.0,3.0,5.0,-16.0,-1.0,-2.0,-4.0
1705334679.38288,-6.0,9.0,-5.0,4.0,13.0,3.0,3.0,9.0
1705334679.3927605,-1.0,10.0,0.0,-4.0,-13.0,-2.0,-2.0,-4.0
1705334679.3927605,2.0,7.0,-3.0,0.0,6.0,-2.0,1.0,2.0
1705334679.402663,-3.0,-25.0,-22.0,-11.0,-8.0,-3.0,-1.0,-3.0
1705334679.402663,7.0,9.0,5.0,-10.0,-9.0,-4.0,-1.0,-1.0
1705334679.4222226,0.0,13.0,2.0,1.0,-1.0,-1.0,-4.0,-1.0
1705334679.4222226,-6.0,11.0,2.0,-3.0,0.0,-1.0,-1.0,-4.0
1705334679.4222226,-6.0,10.0,2.0,2.0,2.0,1.0,-2.0,0.0
1705334679.4222226,0.0,-6.0,1.0,1.0,3.0,-1.0,-2.0,-2.0
1705334679.4422245,1.0,6.0,3.0,8.0,4.0,4.0,1.0,3.0
1705334679.4422245,7.0,-1.0,-26.0,-7.0,-22.0,-6.0,-2.0,-2.0
1705334679.4422245,-3.0,17.0,16.0,6.0,31.0,3.0,-1.0,-1.0
1705334679.4422245,3.0,-12.0,-10.0,1.0,7.0,0.0,0.0,0.0
1705334679.462633,-6.0,4.0,6.0,-4.0,-7.0,-3.0,-4.0,-1.0
1705334679.462633,-5.0,4.0,-2.0,-3.0,-5.0,-2.0,-2.0,-3.0
1705334679.4722269,-1.0,15.0,-4.0,-5.0,-23.0,-5.0,-1.0,1.0
1705334679.4722269,2.0,-5.0,5.0,6.0,15.0,3.0,1.0,-2.0
1705334679.4822228,9.0,13.0,-7.0,1.0,3.0,0.0,0.0,-1.0
1705334679.4822228,-7.0,-15.0,-6.0,-4.0,-6.0,-2.0,1.0,0.0
1705334679.4822228,-10.0,7.0,8.0,-8.0,-7.0,-2.0,-7.0,-5.0
1705334679.4822228,4.0,-17.0,14.0,4.0,0.0,-2.0,0.0,-3.0
1705334679.502641,12.0,8.0,0.0,5.0,-2.0,1.0,0.0,0.0
1705334679.502641,-6.0,2.0,13.0,-5.0,4.0,1.0,0.0,2.0
1705334679.502641,2.0,-16.0,-24.0,2.0,0.0,0.0,0.0,-3.0
1705334679.502641,2.0,4.0,-13.0,-6.0,-7.0,-2.0,-2.0,-1.0
1705334679.5229402,-10.0,10.0,1.0,-7.0,-7.0,-3.0,0.0,-1.0
1705334679.5229402,4.0,-16.0,1.0,-3.0,-7.0,-2.0,1.0,0.0
1705334679.5229402,-5.0,-7.0,-1.0,-1.0,25.0,1.0,0.0,0.0
1705334679.5229402,-2.0,7.0,-5.0,3.0,-7.0,2.0,1.0,-1.0
1705334679.5425072,1.0,11.0,5.0,4.0,7.0,1.0,-1.0,-2.0
1705334679.5425072,0.0,-2.0,7.0,6.0,-7.0,-1.0,0.0,-3.0
1705334679.5425072,1.0,-8.0,8.0,-3.0,-9.0,-2.0,0.0,2.0
1705334679.5425072,1.0,-1.0,1.0,-11.0,-6.0,-6.0,-1.0,0.0
1705334679.5629323,-4.0,-6.0,-11.0,-5.0,-6.0,-1.0,-2.0,-2.0
1705334679.5629323,-7.0,-5.0,-2.0,1.0,9.0,2.0,-1.0,-1.0
1705334679.5629323,5.0,26.0,18.0,12.0,8.0,3.0,3.0,-1.0
1705334679.5629323,-4.0,-4.0,-22.0,-8.0,-8.0,-8.0,-7.0,-4.0
1705334679.5924728,-1.0,-19.0,-11.0,-8.0,-8.0,-2.0,0.0,1.0
1705334679.5924728,-4.0,-31.0,-10.0,1.0,3.0,0.0,-1.0,-4.0
1705334679.5924728,-4.0,21.0,3.0,-5.0,-13.0,-4.0,-1.0,-2.0
1705334679.5924728,-1.0,26.0,-2.0,8.0,5.0,3.0,1.0,-1.0
1705334679.6128263,0.0,-43.0,12.0,-3.0,-14.0,-5.0,-1.0,0.0
1705334679.6128263,3.0,58.0,0.0,-4.0,35.0,3.0,-1.0,-1.0
1705334679.6128263,2.0,-43.0,6.0,11.0,-14.0,-3.0,-2.0,0.0
1705334679.6128263,-8.0,0.0,-12.0,-13.0,-20.0,-4.0,0.0,-2.0
1705334679.6225376,-4.0,10.0,-29.0,-14.0,-10.0,-5.0,0.0,-1.0
1705334679.6225376,7.0,15.0,33.0,7.0,15.0,4.0,-1.0,0.0
1705334679.6225376,3.0,-9.0,-3.0,10.0,7.0,2.0,-2.0,0.0
1705334679.6225376,1.0,7.0,-4.0,-2.0,-4.0,-3.0,-2.0,-3.0
1705334679.6428092,0.0,-10.0,0.0,4.0,5.0,4.0,-1.0,-1.0
1705334679.6524782,-8.0,-20.0,-10.0,-18.0,-20.0,-5.0,-1.0,0.0
1705334679.6724772,1.0,10.0,4.0,-3.0,-3.0,-2.0,-1.0,0.0
1705334679.6724772,-4.0,-25.0,4.0,6.0,7.0,6.0,2.0,0.0
1705334679.6724772,-6.0,41.0,19.0,2.0,3.0,-4.0,-3.0,-5.0
1705334679.6724772,-4.0,-7.0,-21.0,-8.0,-7.0,-6.0,-3.0,-2.0
1705334679.6724772,-1.0,7.0,4.0,-3.0,-9.0,-2.0,-1.0,-3.0
1705334679.6724772,-4.0,-21.0,-3.0,5.0,11.0,-3.0,-4.0,-4.0
1705334679.687716,1.0,-23.0,2.0,-1.0,6.0,5.0,3.0,-1.0
1705334679.6887836,4.0,53.0,4.0,5.0,-17.0,2.0,2.0,2.0
1705334679.6897774,0.0,-15.0,1.0,5.0,28.0,1.0,-1.0,1.0
1705334679.6897774,3.0,-2.0,5.0,7.0,2.0,3.0,-1.0,0.0
1705334679.7131107,-4.0,-14.0,-22.0,-9.0,-4.0,-6.0,-4.0,0.0
1705334679.7131107,-2.0,-19.0,1.0,-7.0,-18.0,-7.0,-4.0,-2.0
1705334679.7131107,0.0,-7.0,-6.0,-9.0,-16.0,-5.0,0.0,1.0
1705334679.7131107,-3.0,13.0,16.0,-2.0,8.0,-1.0,1.0,-1.0
1705334679.723441,-1.0,-4.0,-2.0,0.0,8.0,3.0,-2.0,-2.0
1705334679.723441,3.0,-14.0,-14.0,10.0,2.0,0.0,1.0,2.0
1705334679.723441,-1.0,4.0,-4.0,-6.0,-15.0,-6.0,-2.0,-1.0
1705334679.723441,-7.0,-2.0,11.0,3.0,-6.0,2.0,-1.0,-1.0
1705334679.7438912,-5.0,10.0,-2.0,2.0,12.0,-2.0,-2.0,-3.0
1705334679.7438912,1.0,6.0,-11.0,-3.0,6.0,0.0,0.0,0.0
1705334679.7438912,-1.0,-7.0,8.0,-11.0,-7.0,-3.0,0.0,-1.0
1705334679.7438912,3.0,-1.0,-2.0,-14.0,-23.0,-7.0,-2.0,1.0
1705334679.7634976,-4.0,21.0,-2.0,4.0,12.0,-2.0,-2.0,-1.0
1705334679.7634976,-3.0,-23.0,1.0,8.0,5.0,3.0,1.0,-2.0
1705334679.7634976,2.0,-29.0,-11.0,3.0,11.0,0.0,1.0,0.0
1705334679.7634976,-2.0,50.0,-13.0,-11.0,-11.0,-2.0,-2.0,-1.0
1705334679.7835004,1.0,-15.0,21.0,6.0,-4.0,0.0,0.0,1.0
1705334679.7835004,0.0,12.0,-1.0,-5.0,-2.0,-6.0,-5.0,-4.0
1705334679.7835004,2.0,-4.0,1.0,-6.0,-7.0,0.0,0.0,-1.0
1705334679.7835004,0.0,-26.0,-6.0,2.0,8.0,0.0,1.0,-2.0
1705334679.8034976,2.0,7.0,-5.0,4.0,0.0,-1.0,-1.0,0.0
1705334679.8034976,1.0,0.0,5.0,-2.0,-15.0,-6.0,-1.0,-2.0
1705334679.8034976,-4.0,-15.0,-12.0,-7.0,-9.0,-2.0,-2.0,-2.0
1705334679.8034976,-1.0,9.0,6.0,3.0,28.0,4.0,0.0,-1.0
1705334679.823452,-2.0,1.0,-4.0,1.0,1.0,-2.0,0.0,1.0
1705334679.823452,3.0,-21.0,-1.0,-7.0,-30.0,-3.0,0.0,0.0
1705334679.823452,2.0,38.0,7.0,20.0,24.0,3.0,-1.0,-2.0
1705334679.823452,-2.0,-16.0,5.0,1.0,2.0,1.0,-2.0,-2.0
1705334679.843469,2.0,-8.0,-3.0,-8.0,-11.0,-5.0,0.0,0.0
1705334679.843469,1.0,18.0,2.0,-6.0,3.0,1.0,-2.0,1.0
1705334679.843469,-9.0,2.0,-9.0,-5.0,-14.0,-4.0,-1.0,-3.0
1705334679.843469,4.0,-6.0,6.0,12.0,7.0,5.0,1.0,-1.0
1705334679.8730571,-4.0,9.0,-11.0,-4.0,1.0,1.0,-3.0,-1.0
1705334679.8730571,-2.0,4.0,7.0,0.0,1.0,-4.0,-1.0,-1.0
1705334679.8730571,-4.0,12.0,6.0,-1.0,-10.0,-5.0,-2.0,0.0
1705334679.8730571,-5.0,-27.0,-16.0,-10.0,-13.0,-4.0,-3.0,-3.0
1705334679.8832846,0.0,33.0,7.0,1.0,4.0,3.0,0.0,-1.0
1705334679.8832846,3.0,-10.0,-2.0,8.0,24.0,5.0,3.0,1.0
1705334679.8832846,4.0,8.0,-6.0,1.0,6.0,3.0,0.0,0.0
1705334679.8832846,-4.0,-12.0,-7.0,-15.0,-18.0,-6.0,-3.0,0.0
1705334679.9033933,-9.0,-34.0,-11.0,-10.0,-36.0,-11.0,-3.0,-2.0
1705334679.9033933,-1.0,37.0,-1.0,2.0,26.0,3.0,-3.0,-2.0
1705334679.9033933,-1.0,1.0,4.0,2.0,0.0,2.0,-2.0,1.0
1705334679.9033933,3.0,2.0,10.0,7.0,9.0,-1.0,2.0,1.0
1705334679.9330618,-1.0,1.0,4.0,3.0,-8.0,1.0,0.0,-1.0
1705334679.9330618,-3.0,-6.0,3.0,2.0,-2.0,-2.0,1.0,-2.0
1705334679.9330618,7.0,-25.0,-19.0,-11.0,-6.0,-4.0,-1.0,1.0
1705334679.9330618,0.0,45.0,-21.0,-16.0,-11.0,-3.0,-3.0,-4.0
1705334679.9430583,3.0,23.0,11.0,-12.0,-7.0,-6.0,-2.0,-1.0
1705334679.9430583,-10.0,-2.0,8.0,3.0,30.0,5.0,-2.0,-3.0
1705334679.9430583,-3.0,4.0,-3.0,5.0,-3.0,1.0,0.0,-1.0
1705334679.9430583,5.0,-22.0,3.0,16.0,0.0,0.0,2.0,1.0
1705334679.9631166,5.0,-6.0,1.0,1.0,-17.0,2.0,3.0,1.0
1705334679.9631166,-3.0,-4.0,-20.0,-6.0,14.0,-2.0,-2.0,-2.0
1705334679.9830608,0.0,6.0,22.0,-3.0,-7.0,-2.0,0.0,-2.0
1705334679.9830608,-8.0,-15.0,-17.0,0.0,2.0,-1.0,-1.0,-1.0
1705334679.9830608,-5.0,43.0,10.0,-1.0,1.0,-2.0,-3.0,-3.0
1705334679.9830608,5.0,-19.0,-7.0,0.0,-17.0,-2.0,-4.0,0.0
1705334679.9830608,-1.0,6.0,-7.0,-11.0,-17.0,-7.0,-3.0,-4.0
1705334679.9830608,3.0,-18.0,-17.0,-7.0,13.0,1.0,1.0,-3.0
1705334680.0033472,-5.0,-27.0,13.0,1.0,14.0,4.0,-1.0,6.0
1705334680.0033472,4.0,6.0,10.0,4.0,-14.0,-5.0,0.0,16.0
1705334680.0033472,-4.0,-14.0,2.0,7.0,18.0,2.0,3.0,-5.0
1705334680.0033472,-1.0,27.0,7.0,3.0,-1.0,0.0,-4.0,-8.0
1705334680.0230653,-7.0,-19.0,-20.0,-3.0,1.0,-2.0,-1.0,-10.0
1705334680.0230653,-1.0,8.0,0.0,4.0,-5.0,-2.0,-2.0,-6.0
1705334680.0430622,-2.0,-5.0,-3.0,0.0,-2.0,0.0,-2.0,2.0
1705334680.0430622,3.0,-5.0,9.0,-10.0,-12.0,-6.0,-3.0,-2.0
1705334680.0430622,4.0,12.0,6.0,12.0,18.0,2.0,0.0,1.0
1705334680.0430622,-9.0,-13.0,-18.0,-15.0,-18.0,-2.0,-1.0,-5.0
1705334680.0430622,1.0,5.0,-10.0,-3.0,-5.0,-3.0,0.0,2.0
1705334680.0430622,-11.0,3.0,-4.0,-1.0,20.0,1.0,-2.0,-2.0
1705334680.0634942,2.0,-16.0,14.0,5.0,1.0,-4.0,-2.0,-1.0
1705334680.0634942,5.0,22.0,7.0,2.0,-11.0,-3.0,0.0,2.0
1705334680.0634942,1.0,0.0,-7.0,-9.0,-6.0,0.0,-2.0,-1.0
1705334680.0634942,0.0,2.0,3.0,-4.0,-21.0,-2.0,0.0,5.0
1705334680.0831058,-1.0,-3.0,-8.0,-4.0,-9.0,-4.0,0.0,-2.0
1705334680.0831058,-3.0,-15.0,-3.0,0.0,28.0,9.0,1.0,-5.0
1705334680.093066,-2.0,-22.0,-10.0,8.0,10.0,0.0,1.0,0.0
1705334680.093066,2.0,34.0,24.0,10.0,-6.0,1.0,-1.0,-1.0
1705334680.1030574,1.0,7.0,-8.0,-7.0,-6.0,-2.0,-2.0,0.0
1705334680.1030574,1.0,13.0,7.0,-6.0,-14.0,-6.0,-3.0,-4.0
1705334680.1030574,-7.0,3.0,0.0,-8.0,-11.0,-3.0,-3.0,-1.0
1705334680.1030574,-2.0,-17.0,12.0,11.0,13.0,1.0,1.0,2.0
1705334680.1233904,0.0,-28.0,-24.0,-10.0,14.0,1.0,0.0,0.0
1705334680.1233904,2.0,2.0,5.0,1.0,-7.0,-3.0,-2.0,-2.0
1705334680.1233904,2.0,-5.0,0.0,5.0,-1.0,-2.0,-1.0,0.0
1705334680.1233904,-2.0,-12.0,-2.0,-4.0,-9.0,-3.0,-2.0,-1.0
1705334680.1432564,2.0,1.0,8.0,11.0,2.0,4.0,2.0,2.0
1705334680.1432564,0.0,-7.0,-2.0,-6.0,-4.0,0.0,1.0,-1.0
1705334680.153064,-3.0,22.0,2.0,-17.0,16.0,-4.0,-4.0,-3.0
1705334680.153064,-4.0,-15.0,-1.0,8.0,-1.0,-1.0,-4.0,0.0
1705334680.1830566,-1.0,-37.0,-1.0,4.0,-4.0,0.0,-2.0,-1.0
1705334680.1830566,0.0,-8.0,-7.0,5.0,-5.0,5.0,3.0,1.0
1705334680.1830566,1.0,-1.0,-4.0,1.0,-9.0,1.0,2.0,-1.0
1705334680.1830566,3.0,-12.0,-14.0,3.0,16.0,1.0,1.0,3.0
1705334680.1830566,-3.0,20.0,7.0,-12.0,-10.0,-5.0,-3.0,-2.0
1705334680.1830566,0.0,17.0,-11.0,-17.0,-11.0,-8.0,-3.0,-3.0
1705334680.1930723,-6.0,5.0,-1.0,-4.0,-19.0,-6.0,-4.0,-3.0
1705334680.1930723,2.0,-3.0,4.0,4.0,28.0,2.0,-1.0,1.0
1705334680.203096,1.0,-9.0,5.0,11.0,-7.0,6.0,4.0,1.0
1705334680.203096,3.0,-6.0,1.0,13.0,20.0,5.0,0.0,1.0
1705334680.2130666,-8.0,19.0,0.0,-9.0,-9.0,0.0,-2.0,-1.0
1705334680.2130666,-2.0,-5.0,-8.0,-15.0,-20.0,-10.0,-4.0,-4.0
1705334680.2279725,-4.0,-11.0,-18.0,-6.0,-10.0,-5.0,-2.0,-3.0
1705334680.2279725,-2.0,-6.0,7.0,0.0,0.0,-1.0,-2.0,-1.0
1705334680.2292428,6.0,2.0,13.0,-1.0,12.0,4.0,2.0,2.0
1705334680.2292428,-1.0,-17.0,-11.0,7.0,-14.0,1.0,1.0,1.0
1705334680.2479434,-2.0,32.0,11.0,1.0,21.0,0.0,0.0,-2.0
1705334680.2479434,-6.0,-7.0,-13.0,12.0,-1.0,-3.0,-3.0,0.0
1705334680.2479434,-2.0,-2.0,-7.0,0.0,-5.0,-4.0,-3.0,-4.0
1705334680.2479434,5.0,3.0,4.0,-10.0,-13.0,-7.0,0.0,-2.0
1705334680.2577014,-2.0,12.0,-6.0,-3.0,-2.0,-1.0,-3.0,-4.0
1705334680.2577014,-5.0,-14.0,1.0,4.0,16.0,2.0,-1.0,0.0
1705334680.2676997,0.0,5.0,0.0,-1.0,-7.0,-1.0,-2.0,-2.0
1705334680.2676997,3.0,2.0,9.0,-10.0,-19.0,-5.0,1.0,0.0
1705334680.2878578,5.0,-31.0,-4.0,4.0,14.0,0.0,0.0,0.0
1705334680.2878578,6.0,-14.0,7.0,-1.0,-8.0,0.0,0.0,-1.0
1705334680.2878578,-6.0,-2.0,-19.0,5.0,17.0,0.0,1.0,-2.0
1705334680.2878578,-3.0,46.0,15.0,-8.0,-10.0,-1.0,-3.0,-2.0
1705334680.3078618,1.0,-11.0,-10.0,-6.0,-13.0,-7.0,-3.0,1.0
1705334680.3078618,1.0,-15.0,-2.0,-7.0,1.0,-2.0,-1.0,-1.0
1705334680.3078618,1.0,5.0,5.0,5.0,-5.0,5.0,2.0,1.0
1705334680.3078618,-2.0,-8.0,9.0,15.0,18.0,3.0,2.0,0.0
1705334680.3376997,-4.0,17.0,-9.0,-2.0,4.0,2.0,-2.0,-1.0
1705334680.3376997,1.0,4.0,-9.0,-10.0,-16.0,-6.0,-1.0,0.0
1705334680.3376997,-2.0,4.0,4.0,-1.0,-1.0,-4.0,-1.0,-3.0
1705334680.3376997,-5.0,-12.0,1.0,-1.0,12.0,0.0,-2.0,-3.0
1705334680.3477964,3.0,-29.0,5.0,-5.0,-4.0,-2.0,0.0,0.0
1705334680.3477964,-4.0,15.0,-4.0,1.0,-11.0,-3.0,-1.0,-1.0
1705334680.3477964,1.0,4.0,0.0,2.0,1.0,-1.0,1.0,0.0
1705334680.3477964,0.0,2.0,8.0,-13.0,-19.0,-6.0,-3.0,-1.0
1705334680.3678944,-1.0,-13.0,-16.0,6.0,32.0,5.0,0.0,-2.0
1705334680.3678944,0.0,18.0,-1.0,-7.0,-16.0,-3.0,-2.0,0.0
1705334680.3678944,1.0,-1.0,5.0,1.0,-7.0,-3.0,-1.0,-1.0
1705334680.3678944,-12.0,8.0,-18.0,1.0,8.0,3.0,-2.0,-2.0
1705334680.3877,0.0,6.0,15.0,2.0,-6.0,0.0,-2.0,1.0
1705334680.3877,-1.0,14.0,-9.0,1.0,2.0,-1.0,-1.0,-1.0
1705334680.3877,3.0,-26.0,5.0,-6.0,-1.0,0.0,-1.0,0.0
1705334680.3877,3.0,-11.0,-5.0,-3.0,-9.0,-2.0,0.0,0.0
1705334680.4078863,-8.0,1.0,0.0,-1.0,-1.0,-3.0,-2.0,-3.0
1705334680.4078863,-5.0,-1.0,6.0,7.0,11.0,4.0,0.0,-2.0
1705334680.4078863,1.0,-10.0,-3.0,5.0,5.0,-2.0,-2.0,0.0
1705334680.4078863,5.0,5.0,-6.0,2.0,-11.0,-5.0,-2.0,-2.0
1705334680.4277005,-5.0,14.0,-1.0,-11.0,-34.0,-3.0,-1.0,-2.0
1705334680.4277005,-7.0,1.0,12.0,-3.0,26.0,2.0,-1.0,-2.0
1705334680.4277005,0.0,0.0,-1.0,6.0,2.0,3.0,0.0,1.0
1705334680.4277005,1.0,-3.0,7.0,3.0,13.0,3.0,-3.0,0.0
1705334680.4481559,2.0,-2.0,-10.0,-5.0,-12.0,-4.0,-2.0,-1.0
1705334680.4481559,-2.0,-3.0,-5.0,-1.0,-10.0,-4.0,0.0,-3.0
1705334680.4481559,-1.0,17.0,-6.0,-5.0,-3.0,-2.0,0.0,-1.0
1705334680.4481559,2.0,-16.0,-9.0,-1.0,4.0,2.0,3.0,-1.0
1705334680.4679542,-6.0,20.0,7.0,2.0,2.0,-1.0,-2.0,-4.0
1705334680.4679542,0.0,-8.0,-18.0,-26.0,-32.0,-2.0,-3.0,-2.0
1705334680.4679542,-8.0,4.0,2.0,4.0,33.0,2.0,-3.0,0.0
1705334680.4679542,3.0,-15.0,2.0,6.0,-3.0,-1.0,-2.0,1.0
1705334680.4876993,2.0,6.0,6.0,1.0,0.0,0.0,1.0,1.0
1705334680.4876993,-2.0,9.0,7.0,6.0,-1.0,0.0,0.0,-1.0
1705334680.4876993,3.0,-15.0,-4.0,1.0,-13.0,0.0,2.0,-2.0
1705334680.4876993,-4.0,-4.0,-17.0,-11.0,-3.0,-2.0,0.0,-2.0
1705334680.5081563,-3.0,1.0,13.0,-2.0,-9.0,-2.0,-1.0,0.0
1705334680.5081563,1.0,-26.0,5.0,10.0,25.0,-1.0,-1.0,1.0
1705334680.5081563,-1.0,6.0,-11.0,-5.0,-10.0,0.0,-1.0,0.0
1705334680.5081563,-3.0,-5.0,-2.0,-3.0,2.0,-3.0,-2.0,-1.0
1705334680.5280063,1.0,-4.0,-4.0,1.0,-1.0,-2.0,-3.0,-2.0
1705334680.5280063,-1.0,6.0,-2.0,-4.0,-13.0,-4.0,-2.0,-3.0
1705334680.5280063,-3.0,-9.0,1.0,-6.0,-5.0,-1.0,-2.0,-1.0
1705334680.5280063,1.0,-9.0,-3.0,11.0,22.0,6.0,3.0,1.0
1705334680.547701,-2.0,5.0,-4.0,0.0,-6.0,-1.0,1.0,0.0
1705334680.547701,-3.0,-6.0,3.0,0.0,5.0,-1.0,1.0,-1.0
1705334680.547701,-5.0,2.0,5.0,-2.0,-12.0,-6.0,-3.0,-1.0
1705334680.547701,0.0,2.0,-15.0,-19.0,-21.0,-8.0,-4.0,-2.0
1705334680.5679977,3.0,-9.0,4.0,2.0,18.0,-2.0,0.0,2.0
1705334680.5679977,1.0,18.0,1.0,6.0,2.0,5.0,1.0,-1.0
1705334680.5679977,-1.0,-5.0,3.0,7.0,7.0,3.0,0.0,0.0
1705334680.5679977,-2.0,14.0,5.0,3.0,-4.0,1.0,-1.0,-2.0
1705334680.5877059,0.0,-9.0,2.0,-3.0,-18.0,-4.0,-2.0,-2.0
1705334680.5877059,-1.0,4.0,5.0,5.0,21.0,2.0,0.0,-1.0
1705334680.5977006,-2.0,0.0,-17.0,-10.0,-8.0,-4.0,-1.0,0.0
1705334680.5977006,-5.0,1.0,0.0,-4.0,-9.0,-3.0,1.0,-2.0
1705334680.6076996,2.0,-6.0,2.0,4.0,15.0,4.0,0.0,0.0
1705334680.6076996,-1.0,-1.0,-1.0,0.0,-15.0,-4.0,-3.0,-2.0
1705334680.6076996,-3.0,9.0,5.0,-1.0,-17.0,-3.0,-1.0,-3.0
1705334680.6076996,0.0,-1.0,-2.0,0.0,27.0,2.0,-2.0,-1.0
1705334680.6281679,0.0,4.0,-6.0,-7.0,-9.0,-2.0,-1.0,-1.0
1705334680.6281679,-9.0,-10.0,4.0,-3.0,-5.0,-1.0,1.0,-1.0
1705334680.6281679,3.0,-2.0,5.0,6.0,4.0,-2.0,0.0,1.0
1705334680.6281679,-4.0,-1.0,1.0,1.0,-7.0,-1.0,-2.0,0.0
1705334680.6477003,1.0,1.0,-6.0,-1.0,3.0,1.0,-1.0,0.0
1705334680.6477003,2.0,5.0,0.0,7.0,1.0,-3.0,-1.0,-1.0
1705334680.6477003,-3.0,-10.0,-16.0,-19.0,-1.0,-2.0,-2.0,-2.0
1705334680.6477003,-3.0,8.0,0.0,4.0,15.0,1.0,0.0,1.0
1705334680.6680398,1.0,-15.0,6.0,3.0,-4.0,-1.0,-2.0,-1.0
1705334680.6680398,1.0,18.0,-10.0,-7.0,-15.0,-5.0,-1.0,-1.0
1705334680.6680398,-1.0,-2.0,4.0,-1.0,-3.0,1.0,1.0,1.0
1705334680.6680398,2.0,0.0,6.0,13.0,1.0,-5.0,-1.0,0.0
1705334680.6880496,-1.0,-4.0,-11.0,-18.0,-22.0,-5.0,-3.0,-3.0
1705334680.6880496,-2.0,11.0,2.0,2.0,22.0,0.0,-2.0,-1.0
1705334680.6880496,0.0,-5.0,3.0,3.0,6.0,4.0,2.0,-2.0
1705334680.6880496,0.0,6.0,3.0,-7.0,-10.0,0.0,-2.0,-1.0
1705334680.707705,1.0,-35.0,-6.0,11.0,5.0,0.0,0.0,-1.0
1705334680.707705,2.0,-4.0,3.0,-11.0,-25.0,-4.0,-3.0,-1.0
1705334680.7179878,-2.0,9.0,-8.0,1.0,11.0,-2.0,-2.0,-1.0
1705334680.7179878,0.0,-3.0,-1.0,-6.0,0.0,1.0,0.0,-1.0
1705334680.727863,-1.0,10.0,4.0,6.0,13.0,2.0,1.0,0.0
1705334680.727863,1.0,-1.0,-1.0,-7.0,-9.0,-5.0,-3.0,1.0
1705334680.727863,0.0,-2.0,10.0,6.0,10.0,2.0,-2.0,0.0
1705334680.727863,-1.0,-4.0,-11.0,-3.0,-19.0,-3.0,-2.0,-1.0
1705334680.7587268,-1.0,6.0,-2.0,-14.0,-9.0,-1.0,0.0,0.0
1705334680.7587268,1.0,-9.0,0.0,1.0,24.0,2.0,2.0,0.0
1705334680.7587268,-4.0,-4.0,-2.0,5.0,-10.0,-4.0,-1.0,-1.0
1705334680.7587268,-3.0,2.0,11.0,2.0,1.0,4.0,-2.0,-2.0
1705334680.7672803,-2.0,1.0,-6.0,5.0,17.0,3.0,-1.0,-1.0
1705334680.7672803,0.0,-3.0,-5.0,-7.0,-27.0,-5.0,-1.0,0.0
1705334680.7705657,-2.0,-3.0,3.0,-1.0,-2.0,-3.0,0.0,0.0
1705334680.7705657,-2.0,-3.0,-4.0,-6.0,9.0,0.0,1.0,-1.0
1705334680.780568,-2.0,5.0,-2.0,7.0,10.0,3.0,0.0,0.0
1705334680.780568,1.0,-10.0,7.0,7.0,-10.0,-2.0,-3.0,0.0
1705334680.7906053,1.0,13.0,3.0,-3.0,-4.0,-4.0,-3.0,-1.0
1705334680.7906053,-1.0,-28.0,-3.0,-2.0,-9.0,-3.0,-2.0,-2.0
1705334680.8114336,-7.0,16.0,-6.0,-13.0,-25.0,-9.0,-2.0,-2.0
1705334680.8114336,-12.0,-6.0,-12.0,-10.0,24.0,5.0,1.0,-3.0
1705334680.8114336,1.0,-11.0,0.0,6.0,8.0,3.0,0.0,0.0
1705334680.8114336,1.0,-15.0,7.0,9.0,-3.0,-1.0,-1.0,0.0
1705334680.8310592,-5.0,27.0,-3.0,-5.0,-2.0,-2.0,-2.0,-3.0
1705334680.8310592,3.0,9.0,6.0,-4.0,-15.0,-4.0,-4.0,-1.0
1705334680.8310592,-1.0,-7.0,-7.0,-10.0,-16.0,-4.0,-3.0,-3.0
1705334680.8310592,-2.0,4.0,-13.0,-5.0,22.0,2.0,1.0,-2.0
1705334680.8485103,5.0,-18.0,9.0,10.0,11.0,2.0,-2.0,-1.0
1705334680.8485103,-10.0,-2.0,-2.0,-5.0,-17.0,-5.0,-4.0,-1.0
1705334680.8485103,0.0,2.0,5.0,-4.0,-11.0,-6.0,-1.0,-1.0
1705334680.8485103,-2.0,-4.0,-15.0,-9.0,-5.0,2.0,0.0,-2.0
1705334680.8684914,-2.0,0.0,-3.0,5.0,13.0,2.0,1.0,-2.0
1705334680.8684914,6.0,-6.0,-5.0,1.0,-15.0,-2.0,0.0,-1.0
1705334680.8684914,-1.0,-6.0,1.0,-5.0,21.0,-1.0,-1.0,-1.0
1705334680.8684914,0.0,9.0,10.0,4.0,-14.0,-3.0,0.0,0.0
1705334680.8982217,-2.0,7.0,3.0,3.0,6.0,1.0,-1.0,-1.0
1705334680.8982217,-1.0,1.0,1.0,17.0,10.0,4.0,0.0,0.0
1705334680.8982217,-2.0,8.0,-17.0,-9.0,-12.0,-3.0,-2.0,2.0
1705334680.8982217,-12.0,2.0,5.0,-9.0,-16.0,-3.0,-3.0,-1.0
1705334680.9082508,-2.0,3.0,-1.0,-3.0,13.0,-2.0,-2.0,-1.0
1705334680.9082508,2.0,-9.0,-4.0,-1.0,0.0,0.0,1.0,1.0
1705334680.9082508,2.0,7.0,9.0,4.0,-2.0,1.0,-1.0,0.0
1705334680.9082508,4.0,16.0,-4.0,-4.0,-2.0,-2.0,1.0,0.0
1705334680.9282222,-6.0,-6.0,-5.0,-4.0,-10.0,0.0,0.0,-1.0
1705334680.9282222,1.0,14.0,25.0,-4.0,-4.0,-2.0,-2.0,-2.0
1705334680.9282222,2.0,-3.0,-12.0,7.0,29.0,0.0,0.0,-2.0
1705334680.9282222,1.0,-21.0,-3.0,-2.0,-20.0,-4.0,-4.0,0.0
1705334680.9382212,-3.0,1.0,-2.0,-3.0,-3.0,-2.0,-2.0,-4.0
1705334680.9382212,-1.0,24.0,-8.0,-4.0,4.0,5.0,1.0,0.0
1705334680.9484997,-5.0,-17.0,4.0,8.0,1.0,3.0,0.0,0.0
1705334680.9484997,-2.0,21.0,0.0,-1.0,1.0,-5.0,-2.0,-3.0
1705334680.9686317,1.0,-6.0,-5.0,-4.0,-7.0,-3.0,0.0,0.0
1705334680.9686317,-2.0,0.0,-5.0,-8.0,-13.0,-5.0,-1.0,-2.0
1705334680.9686317,1.0,6.0,7.0,3.0,12.0,2.0,-1.0,-1.0
1705334680.9686317,1.0,-19.0,-2.0,-1.0,3.0,-2.0,-2.0,0.0
1705334680.9882224,3.0,7.0,0.0,-1.0,-12.0,-4.0,1.0,-2.0
1705334680.9882224,-4.0,10.0,-1.0,7.0,9.0,1.0,-3.0,-4.0
1705334680.9982553,-12.0,-6.0,-5.0,-11.0,-32.0,-3.0,-2.0,-2.0
1705334680.9982553,0.0,14.0,-11.0,-2.0,34.0,3.0,1.0,-3.0
1705334680.9982553,1.0,-10.0,17.0,-6.0,-18.0,-6.0,-3.0,0.0
1705334680.9982553,5.0,-5.0,-15.0,4.0,3.0,-3.0,0.0,2.0
1705334681.008408,1.0,-8.0,8.0,3.0,0.0,1.0,0.0,-3.0
1705334681.008408,0.0,-1.0,5.0,5.0,-2.0,-2.0,-3.0,-1.0
1705334681.028376,-4.0,-7.0,-3.0,-2.0,1.0,-2.0,-3.0,-2.0
1705334681.028376,-6.0,6.0,3.0,-3.0,0.0,0.0,-1.0,-1.0
1705334681.028376,2.0,10.0,-16.0,-25.0,-17.0,-4.0,-1.0,0.0
1705334681.028376,0.0,-14.0,5.0,7.0,-2.0,3.0,0.0,0.0
1705334681.0482242,5.0,-9.0,7.0,12.0,25.0,4.0,2.0,2.0
1705334681.0482242,1.0,-14.0,-9.0,-1.0,-6.0,4.0,0.0,1.0
1705334681.0482242,0.0,18.0,6.0,0.0,2.0,-4.0,-1.0,-1.0
1705334681.0482242,-6.0,-11.0,-4.0,-7.0,1.0,-1.0,-1.0,-4.0
1705334681.0686326,-3.0,-8.0,-1.0,-8.0,-17.0,-5.0,-3.0,-1.0
1705334681.0686326,-1.0,-6.0,-1.0,1.0,12.0,-1.0,-1.0,-1.0
1705334681.0686326,6.0,-3.0,2.0,6.0,-10.0,2.0,0.0,0.0
1705334681.0686326,4.0,8.0,-1.0,1.0,-1.0,-4.0,-1.0,0.0
1705334681.0884275,-10.0,-39.0,-2.0,2.0,6.0,2.0,0.0,-2.0
1705334681.0884275,-1.0,6.0,1.0,-8.0,-10.0,-3.0,-2.0,-2.0
1705334681.0884275,-3.0,-1.0,0.0,-4.0,-12.0,-7.0,-3.0,-3.0
1705334681.0884275,1.0,3.0,0.0,-3.0,0.0,-1.0,-2.0,-1.0
1705334681.1084137,1.0,2.0,-8.0,-5.0,-16.0,1.0,-2.0,-1.0
1705334681.1084137,3.0,3.0,7.0,8.0,36.0,5.0,-1.0,3.0
1705334681.1084137,-1.0,-8.0,13.0,18.0,5.0,5.0,1.0,-1.0
1705334681.1084137,-3.0,-2.0,-15.0,-15.0,-37.0,-7.0,-1.0,0.0
1705334681.1285048,-2.0,5.0,-5.0,-7.0,25.0,0.0,-2.0,-2.0
1705334681.1285048,1.0,-3.0,-1.0,3.0,-11.0,-2.0,-1.0,-1.0
1705334681.1285048,-2.0,7.0,3.0,6.0,10.0,-1.0,-1.0,-4.0
1705334681.1285048,0.0,0.0,9.0,5.0,-7.0,0.0,-3.0,0.0
1705334681.1483603,2.0,-16.0,-2.0,-3.0,-7.0,-3.0,1.0,-1.0
1705334681.1483603,3.0,-5.0,0.0,-8.0,-12.0,-4.0,-3.0,-1.0
1705334681.1483603,0.0,3.0,-6.0,-6.0,-6.0,-3.0,-2.0,0.0
1705334681.1483603,-14.0,-25.0,8.0,8.0,28.0,11.0,2.0,-4.0
1705334681.1682253,3.0,19.0,-16.0,5.0,10.0,2.0,0.0,-1.0
1705334681.1682253,-1.0,19.0,3.0,4.0,1.0,-1.0,-2.0,-2.0
1705334681.1682253,1.0,1.0,5.0,-11.0,-18.0,-5.0,-2.0,-1.0
1705334681.1682253,2.0,1.0,-3.0,-17.0,-23.0,-10.0,0.0,0.0
1705334681.1886313,-5.0,7.0,1.0,1.0,27.0,2.0,-1.0,-3.0
1705334681.1886313,0.0,-29.0,-4.0,-6.0,-10.0,2.0,1.0,0.0
1705334681.1886313,3.0,-1.0,-8.0,11.0,11.0,4.0,1.0,1.0
1705334681.1886313,-3.0,7.0,6.0,4.0,2.0,0.0,0.0,-2.0
1705334681.208222,-2.0,-33.0,-3.0,-3.0,-8.0,-4.0,-2.0,-1.0
1705334681.208222,-3.0,0.0,-9.0,-13.0,-19.0,-8.0,-2.0,-2.0
1705334681.208222,-3.0,-5.0,0.0,-9.0,-14.0,-6.0,-2.0,-3.0
1705334681.208222,4.0,-4.0,-9.0,6.0,28.0,7.0,0.0,2.0
1705334681.2284122,1.0,6.0,4.0,3.0,-10.0,0.0,-2.0,0.0
1705334681.2284122,-2.0,0.0,-1.0,5.0,8.0,2.0,-1.0,0.0
1705334681.2284122,0.0,-1.0,-13.0,-6.0,-4.0,-2.0,0.0,1.0
1705334681.2284122,2.0,-2.0,12.0,8.0,11.0,-1.0,-1.0,0.0
1705334681.2484915,-3.0,4.0,7.0,-6.0,-19.0,-3.0,-3.0,-1.0
1705334681.2484915,0.0,18.0,0.0,-1.0,0.0,-3.0,-3.0,0.0
1705334681.2484915,-1.0,-5.0,1.0,-7.0,2.0,1.0,1.0,-1.0
1705334681.2484915,2.0,8.0,-7.0,-1.0,-15.0,-6.0,-1.0,-2.0
1705334681.2699933,5.0,-7.0,-14.0,3.0,13.0,2.0,0.0,2.0
1705334681.2699933,-1.0,-12.0,10.0,1.0,-1.0,-3.0,0.0,-1.0
1705334681.2699933,-4.0,3.0,-7.0,7.0,3.0,-2.0,-2.0,-3.0
1705334681.2699933,1.0,8.0,-5.0,-8.0,1.0,0.0,-3.0,0.0
1705334681.3079007,-2.0,3.0,5.0,-4.0,-19.0,-5.0,0.0,-2.0
1705334681.3079007,-2.0,-10.0,-18.0,1.0,-4.0,0.0,1.0,-1.0
1705334681.3079007,-4.0,-5.0,2.0,-8.0,-7.0,0.0,-3.0,-1.0
1705334681.3079007,0.0,-4.0,0.0,7.0,26.0,-1.0,-1.0,-1.0
1705334681.3296537,-1.0,13.0,7.0,0.0,-15.0,-5.0,-2.0,1.0
1705334681.3296537,-3.0,-2.0,7.0,2.0,3.0,2.0,0.0,-1.0
1705334681.3296537,0.0,-13.0,5.0,8.0,10.0,3.0,-1.0,0.0
1705334681.3296537,-4.0,-15.0,-9.0,-8.0,-21.0,-5.0,-2.0,-2.0
1705334681.3296537,-4.0,7.0,-4.0,-3.0,7.0,-2.0,-4.0,-4.0
1705334681.3296537,0.0,6.0,-4.0,-6.0,1.0,-2.0,-2.0,-1.0
1705334681.3296537,4.0,-15.0,1.0,2.0,-2.0,-5.0,-1.0,-1.0
1705334681.3296537,-1.0,-7.0,3.0,3.0,-1.0,2.0,0.0,0.0
1705334681.349467,-12.0,-16.0,2.0,1.0,-3.0,-3.0,-1.0,-2.0
1705334681.349467,6.0,11.0,1.0,-10.0,-14.0,-2.0,0.0,1.0
1705334681.349467,-1.0,3.0,-7.0,-7.0,20.0,2.0,-1.0,0.0
1705334681.349467,-2.0,18.0,-1.0,-12.0,-15.0,-2.0,0.0,-2.0
1705334681.3693063,5.0,-12.0,5.0,1.0,-14.0,-1.0,-2.0,1.0
1705334681.3693063,-3.0,-16.0,3.0,19.0,34.0,4.0,1.0,0.0
1705334681.3693063,-5.0,-4.0,-8.0,1.0,-8.0,-2.0,-2.0,-1.0
1705334681.3693063,3.0,1.0,1.0,-2.0,-10.0,-5.0,-1.0,1.0
1705334681.3890424,0.0,24.0,9.0,-6.0,-14.0,-1.0,1.0,-4.0
1705334681.3890424,-4.0,-1.0,-12.0,-5.0,-3.0,-1.0,-1.0,0.0
1705334681.3890424,2.0,-2.0,-10.0,-4.0,9.0,2.0,-2.0,0.0
1705334681.3890424,-6.0,10.0,1.0,-2.0,0.0,-3.0,-4.0,-2.0
1705334681.409304,0.0,-15.0,-11.0,-1.0,7.0,2.0,-4.0,-2.0
1705334681.409304,2.0,-2.0,3.0,-6.0,-8.0,-4.0,-1.0,-1.0
1705334681.409304,-9.0,13.0,-7.0,3.0,-7.0,-3.0,0.0,-3.0
1705334681.409304,-2.0,-24.0,4.0,-3.0,-13.0,-1.0,0.0,-2.0
1705334681.4293556,4.0,26.0,10.0,0.0,5.0,-3.0,-2.0,0.0
1705334681.4293556,2.0,-15.0,6.0,10.0,21.0,2.0,0.0,0.0
1705334681.4293556,-2.0,-9.0,-4.0,-1.0,-4.0,2.0,-2.0,-1.0
1705334681.4293556,-1.0,-5.0,-10.0,1.0,4.0,-1.0,-2.0,1.0
1705334681.4493887,-1.0,-14.0,-5.0,4.0,6.0,1.0,-1.0,0.0
1705334681.4493887,-6.0,6.0,1.0,-2.0,-20.0,-5.0,-2.0,-1.0
1705334681.4493887,-2.0,14.0,0.0,1.0,5.0,-3.0,-1.0,-1.0
1705334681.4493887,0.0,4.0,0.0,-5.0,1.0,2.0,-1.0,-2.0
1705334681.4690435,1.0,-7.0,2.0,0.0,8.0,2.0,0.0,-1.0
1705334681.4690435,-2.0,9.0,12.0,3.0,-2.0,-2.0,-2.0,-3.0
1705334681.4690435,1.0,-6.0,-6.0,-2.0,-9.0,-3.0,-1.0,-2.0
1705334681.4690435,1.0,28.0,-5.0,-9.0,2.0,0.0,-2.0,-2.0
1705334681.4890418,-3.0,-14.0,-8.0,-6.0,-4.0,-4.0,-1.0,-2.0
1705334681.4890418,-1.0,-17.0,2.0,3.0,7.0,2.0,-1.0,-2.0
1705334681.4890418,0.0,41.0,9.0,-11.0,-28.0,-4.0,-3.0,-1.0
1705334681.4890418,1.0,-3.0,3.0,15.0,31.0,2.0,-2.0,-1.0
1705334681.5094109,0.0,-16.0,-12.0,-1.0,14.0,3.0,-1.0,-1.0
1705334681.5094109,-2.0,-3.0,-1.0,-1.0,-15.0,-3.0,-1.0,-1.0
1705334681.5094109,0.0,-7.0,10.0,4.0,3.0,-2.0,-1.0,-1.0
1705334681.5094109,-3.0,-8.0,-11.0,-11.0,-14.0,-3.0,-2.0,0.0
1705334681.5290446,1.0,3.0,7.0,-7.0,-4.0,-2.0,-1.0,2.0
1705334681.5290446,0.0,-7.0,-11.0,-1.0,2.0,-2.0,-1.0,-2.0
1705334681.5290446,-3.0,6.0,0.0,-1.0,-3.0,-2.0,-2.0,-2.0
1705334681.5290446,6.0,-20.0,7.0,4.0,-7.0,-2.0,2.0,1.0
1705334681.5494545,-5.0,27.0,-6.0,-3.0,6.0,-2.0,-1.0,-3.0
1705334681.5494545,-5.0,-3.0,-4.0,-2.0,-3.0,-2.0,-2.0,-3.0
1705334681.5494545,2.0,-1.0,-5.0,-2.0,11.0,2.0,2.0,2.0
1705334681.5494545,-1.0,-1.0,5.0,10.0,2.0,6.0,1.0,1.0
1705334681.5690665,-4.0,-24.0,4.0,-5.0,-16.0,-8.0,-3.0,-2.0
1705334681.5690665,-1.0,17.0,-8.0,-21.0,-18.0,-2.0,-2.0,-1.0
1705334681.5690665,1.0,-10.0,-1.0,10.0,39.0,3.0,1.0,1.0
1705334681.5690665,-1.0,0.0,3.0,5.0,-14.0,-6.0,-2.0,0.0
1705334681.589473,-6.0,17.0,-4.0,11.0,7.0,5.0,1.0,1.0
1705334681.589473,1.0,-1.0,-1.0,-14.0,-11.0,-6.0,-3.0,0.0
1705334681.589473,0.0,-6.0,-1.0,-8.0,-2.0,0.0,-4.0,-1.0
1705334681.589473,-1.0,-4.0,-3.0,0.0,1.0,0.0,-1.0,-2.0
1705334681.6090431,3.0,-2.0,4.0,2.0,-6.0,-1.0,0.0,1.0
1705334681.6090431,-6.0,-11.0,0.0,6.0,1.0,-3.0,-1.0,-1.0
1705334681.6090431,-5.0,17.0,-2.0,-8.0,-7.0,-5.0,0.0,-2.0
1705334681.6090431,1.0,-3.0,4.0,-2.0,9.0,3.0,-1.0,-1.0
1705334681.6293173,1.0,-19.0,-7.0,3.0,5.0,3.0,0.0,0.0
1705334681.6293173,3.0,6.0,7.0,8.0,-3.0,1.0,-2.0,0.0
1705334681.6293173,0.0,-18.0,-9.0,0.0,-6.0,-3.0,-1.0,-1.0
1705334681.6293173,-4.0,-22.0,11.0,3.0,12.0,-5.0,-5.0,-4.0
1705334681.6496186,1.0,21.0,-13.0,-10.0,-14.0,-5.0,-1.0,1.0
1705334681.6496186,2.0,-1.0,-4.0,-7.0,1.0,1.0,1.0,1.0
1705334681.6496186,0.0,-25.0,4.0,2.0,-11.0,-1.0,-2.0,0.0
1705334681.6496186,-5.0,14.0,-4.0,-4.0,-11.0,-4.0,0.0,-2.0
1705334681.6696882,-10.0,-26.0,5.0,1.0,14.0,3.0,0.0,-3.0
1705334681.6696882,2.0,4.0,-14.0,-8.0,-6.0,-4.0,0.0,3.0
1705334681.6696882,5.0,-8.0,-2.0,0.0,5.0,0.0,-2.0,2.0
1705334681.6696882,2.0,0.0,-1.0,-5.0,1.0,3.0,1.0,-2.0
1705334681.6893475,0.0,-7.0,0.0,7.0,-1.0,-2.0,0.0,-2.0
1705334681.6893475,-3.0,14.0,2.0,-2.0,-5.0,-1.0,-4.0,-3.0
1705334681.6893475,-1.0,-19.0,0.0,-11.0,-34.0,-5.0,-1.0,-3.0
1705334681.6893475,-1.0,-7.0,-6.0,5.0,33.0,-1.0,3.0,1.0
1705334681.7193198,1.0,-11.0,-1.0,5.0,-3.0,-3.0,-3.0,0.0
1705334681.7193198,-4.0,11.0,1.0,3.0,4.0,1.0,0.0,-3.0
1705334681.7193198,0.0,6.0,-3.0,-2.0,9.0,1.0,-1.0,-2.0
1705334681.7193198,1.0,-1.0,0.0,-5.0,-22.0,-4.0,-1.0,-1.0
1705334681.7293487,0.0,2.0,6.0,-7.0,-4.0,-3.0,2.0,1.0
1705334681.7293487,2.0,-11.0,-8.0,1.0,8.0,-2.0,-2.0,-1.0
1705334681.7293487,0.0,-8.0,-1.0,-8.0,-1.0,-2.0,-2.0,-1.0
1705334681.7293487,-1.0,5.0,-2.0,1.0,-3.0,0.0,-1.0,-1.0
1705334681.74959,-5.0,0.0,5.0,4.0,4.0,1.0,-2.0,1.0
1705334681.74959,-6.0,-11.0,9.0,7.0,-2.0,-2.0,0.0,-1.0
1705334681.74959,-7.0,21.0,-13.0,-2.0,3.0,2.0,-1.0,-2.0
1705334681.74959,3.0,1.0,-12.0,-9.0,-25.0,-5.0,-1.0,1.0
1705334681.7697442,4.0,10.0,-2.0,-4.0,34.0,1.0,-2.0,-1.0
1705334681.7697442,-3.0,-16.0,9.0,7.0,9.0,1.0,0.0,-2.0
1705334681.7697442,-1.0,-18.0,8.0,3.0,-16.0,-3.0,-2.0,-2.0
1705334681.7697442,0.0,-1.0,-7.0,-3.0,-4.0,0.0,-3.0,0.0
1705334681.7893126,2.0,7.0,-5.0,-6.0,-24.0,-4.0,0.0,-2.0
1705334681.7893126,-1.0,1.0,-1.0,-6.0,8.0,-1.0,-1.0,-1.0
1705334681.7893126,-2.0,-10.0,6.0,10.0,22.0,3.0,-1.0,-3.0
1705334681.7893126,-5.0,3.0,-2.0,-2.0,-15.0,-3.0,-1.0,-2.0
1705334681.8091724,2.0,-2.0,-1.0,-3.0,-6.0,-1.0,1.0,-2.0
1705334681.8091724,-2.0,-4.0,-8.0,-4.0,7.0,-3.0,-3.0,-1.0
1705334681.8102612,-2.0,1.0,-1.0,-9.0,-9.0,-6.0,-1.0,1.0
1705334681.8102612,-2.0,0.0,-4.0,-4.0,-2.0,-1.0,0.0,-2.0
1705334681.8303697,1.0,4.0,7.0,4.0,-2.0,0.0,-2.0,0.0
1705334681.8303697,1.0,-4.0,-12.0,5.0,27.0,7.0,2.0,-1.0
1705334681.8303697,3.0,9.0,4.0,2.0,-12.0,-3.0,-1.0,1.0
1705334681.8303697,-1.0,10.0,2.0,2.0,-6.0,-3.0,-2.0,-1.0
1705334681.8501382,-5.0,-10.0,-8.0,-23.0,-29.0,-9.0,-4.0,-2.0
1705334681.8501382,1.0,19.0,5.0,-3.0,1.0,2.0,0.0,-1.0
1705334681.8501382,-3.0,8.0,0.0,10.0,21.0,4.0,1.0,-2.0
1705334681.8501382,2.0,-12.0,3.0,4.0,5.0,2.0,0.0,2.0
1705334681.8604417,0.0,1.0,-5.0,1.0,-8.0,-2.0,1.0,0.0
1705334681.8604417,-1.0,16.0,-1.0,-4.0,-11.0,-7.0,-3.0,-2.0
1705334681.8701499,-5.0,1.0,-4.0,-6.0,-4.0,-4.0,-2.0,-2.0
1705334681.8701499,-1.0,1.0,10.0,10.0,15.0,2.0,1.0,-1.0
1705334681.890474,-2.0,-10.0,-5.0,-4.0,-24.0,-2.0,-2.0,1.0
1705334681.890474,0.0,-8.0,6.0,3.0,24.0,0.0,0.0,-2.0
1705334681.890474,0.0,20.0,-11.0,-6.0,-14.0,1.0,-1.0,0.0
1705334681.890474,0.0,-4.0,-2.0,1.0,8.0,-1.0,-1.0,0.0
1705334681.9109397,5.0,6.0,8.0,7.0,4.0,1.0,-1.0,-2.0
1705334681.9109397,-5.0,-11.0,-4.0,-8.0,-26.0,-6.0,0.0,-1.0
1705334681.9109397,-2.0,-9.0,-5.0,4.0,1.0,0.0,0.0,-2.0
1705334681.9109397,-1.0,-8.0,-3.0,-10.0,-4.0,-4.0,-2.0,-2.0
1705334681.9208493,2.0,7.0,1.0,-1.0,12.0,6.0,0.0,0.0
1705334681.9208493,1.0,3.0,-1.0,12.0,-3.0,1.0,0.0,-1.0
1705334681.9404812,-1.0,3.0,-8.0,-6.0,4.0,-1.0,-1.0,2.0
1705334681.9404812,-3.0,0.0,-2.0,-4.0,-6.0,-5.0,-4.0,-3.0
1705334681.9507425,-4.0,10.0,-3.0,-5.0,-4.0,-6.0,-1.0,-1.0
1705334681.9507425,2.0,10.0,6.0,-10.0,-32.0,-4.0,-1.0,-1.0
1705334681.9507425,-4.0,-8.0,-2.0,4.0,27.0,2.0,0.0,-2.0
1705334681.9507425,2.0,4.0,-1.0,4.0,9.0,1.0,1.0,-1.0
1705334681.970818,-1.0,1.0,0.0,9.0,8.0,3.0,-1.0,-2.0
1705334681.970818,-2.0,5.0,-2.0,-1.0,-4.0,3.0,-2.0,-1.0
1705334681.970818,4.0,4.0,2.0,2.0,-1.0,-2.0,-2.0,1.0
1705334681.970818,-2.0,10.0,-4.0,-10.0,-15.0,-6.0,-3.0,-2.0
1705334681.9807527,-19.0,-1.0,2.0,-6.0,-5.0,-6.0,-2.0,-5.0
1705334681.9807527,-2.0,6.0,-5.0,-4.0,-1.0,0.0,-2.0,-3.0
1705334681.9906352,3.0,13.0,5.0,-4.0,-7.0,-1.0,-1.0,1.0
1705334681.9906352,-1.0,2.0,4.0,10.0,16.0,4.0,1.0,-1.0
1705334682.0304806,3.0,-19.0,-15.0,-6.0,-1.0,-2.0,-1.0,0.0
1705334682.0304806,1.0,18.0,6.0,6.0,-3.0,-3.0,-1.0,-2.0
1705334682.0304806,-10.0,5.0,2.0,2.0,-1.0,-3.0,-1.0,-2.0
1705334682.0304806,-5.0,-7.0,-6.0,-8.0,-18.0,-1.0,-2.0,-3.0
1705334682.0304806,3.0,12.0,11.0,9.0,18.0,-1.0,-1.0,-1.0
1705334682.0304806,-1.0,-23.0,-20.0,-10.0,-9.0,2.0,-1.0,-2.0
1705334682.0304806,5.0,14.0,5.0,-4.0,10.0,1.0,0.0,-1.0
1705334682.0304806,-2.0,-3.0,-1.0,10.0,8.0,2.0,0.0,0.0
1705334682.040735,-1.0,3.0,3.0,0.0,-5.0,-1.0,-1.0,-2.0
1705334682.040735,-3.0,-15.0,7.0,3.0,8.0,1.0,0.0,0.0
1705334682.0604832,-2.0,-8.0,-2.0,-10.0,-21.0,-6.0,-2.0,-2.0
1705334682.0604832,-1.0,7.0,0.0,-5.0,-4.0,-2.0,-1.0,-2.0
1705334682.0704823,3.0,-9.0,-6.0,4.0,12.0,2.0,2.0,0.0
1705334682.0704823,-1.0,-6.0,-6.0,0.0,-5.0,-1.0,-1.0,-1.0
1705334682.0704823,-8.0,12.0,-1.0,-6.0,-2.0,-2.0,-2.0,-4.0
1705334682.0704823,-1.0,-1.0,1.0,-8.0,-7.0,-3.0,-1.0,1.0
1705334682.0908298,4.0,7.0,-5.0,-3.0,-12.0,-3.0,-1.0,-1.0
1705334682.0908298,2.0,-5.0,3.0,6.0,27.0,5.0,1.0,1.0
1705334682.0908298,1.0,-17.0,10.0,9.0,-4.0,-1.0,-3.0,0.0
1705334682.0908298,1.0,1.0,-3.0,0.0,-7.0,0.0,-1.0,0.0
1705334682.1104856,-3.0,7.0,-7.0,-7.0,-2.0,4.0,-1.0,-2.0
1705334682.1104856,-8.0,-8.0,-3.0,-4.0,3.0,-4.0,-1.0,-4.0
1705334682.1104856,3.0,-2.0,-3.0,14.0,13.0,1.0,0.0,-2.0
1705334682.1104856,-2.0,8.0,4.0,-4.0,-5.0,-1.0,-3.0,1.0
1705334682.1309395,5.0,-4.0,-7.0,-4.0,-7.0,-3.0,-1.0,1.0
1705334682.1309395,-3.0,-6.0,-5.0,-8.0,-13.0,-5.0,-4.0,0.0
1705334682.1309395,0.0,1.0,-8.0,-10.0,-5.0,-3.0,-2.0,-4.0
1705334682.1309395,2.0,-3.0,0.0,-2.0,-4.0,-3.0,-1.0,-1.0
1705334682.150937,-11.0,2.0,4.0,2.0,10.0,4.0,0.0,-1.0
1705334682.150937,-3.0,7.0,-1.0,7.0,-2.0,-2.0,-1.0,-1.0
1705334682.150937,1.0,-10.0,1.0,-1.0,-4.0,-2.0,-1.0,0.0
1705334682.150937,-1.0,-1.0,0.0,-6.0,-6.0,-1.0,-2.0,-2.0
1705334682.160444,0.0,0.0,-7.0,0.0,23.0,2.0,1.0,-3.0
1705334682.160444,1.0,-3.0,6.0,4.0,-5.0,1.0,-1.0,-2.0
1705334682.170486,-1.0,3.0,7.0,4.0,4.0,0.0,-1.0,1.0
1705334682.170486,1.0,6.0,-4.0,-1.0,-20.0,-3.0,-1.0,-1.0
1705334682.200454,-2.0,11.0,3.0,-8.0,13.0,-6.0,-4.0,-2.0
1705334682.200454,-1.0,1.0,-2.0,2.0,-5.0,-3.0,-1.0,-3.0
1705334682.200454,-1.0,-2.0,-4.0,0.0,-14.0,-1.0,1.0,-1.0
1705334682.200454,-2.0,3.0,-1.0,2.0,16.0,3.0,2.0,-1.0
1705334682.2104542,1.0,1.0,-5.0,-1.0,-9.0,0.0,0.0,2.0
1705334682.2104542,2.0,6.0,0.0,-10.0,-16.0,-7.0,-4.0,1.0
1705334682.2104542,-4.0,6.0,-3.0,-11.0,2.0,-1.0,-3.0,-1.0
1705334682.2104542,-4.0,0.0,-11.0,2.0,7.0,1.0,0.0,0.0
1705334682.2204864,-1.0,1.0,4.0,2.0,-25.0,-4.0,-1.0,0.0
1705334682.2204864,3.0,-1.0,-8.0,-1.0,33.0,5.0,1.0,-1.0
1705334682.2307873,-3.0,0.0,-1.0,4.0,-11.0,-2.0,0.0,-1.0
1705334682.2307873,2.0,15.0,2.0,-1.0,4.0,0.0,-1.0,-2.0
1705334682.2508552,0.0,0.0,3.0,3.0,-6.0,-2.0,-1.0,-1.0
1705334682.2508552,1.0,3.0,3.0,-3.0,-12.0,-3.0,1.0,1.0
1705334682.2508552,1.0,12.0,0.0,1.0,2.0,2.0,0.0,-1.0
1705334682.2508552,-7.0,-16.0,1.0,1.0,-18.0,-3.0,-1.0,-3.0
1705334682.2811143,-2.0,5.0,-16.0,-6.0,16.0,-2.0,-4.0,-1.0
1705334682.2811143,0.0,-3.0,5.0,0.0,-3.0,1.0,-1.0,1.0
1705334682.2811143,1.0,-5.0,-4.0,-1.0,7.0,1.0,-2.0,-2.0
1705334682.2811143,-3.0,2.0,-1.0,-9.0,-15.0,-4.0,-3.0,-3.0
1705334682.2910209,2.0,1.0,2.0,3.0,2.0,2.0,-2.0,-1.0
1705334682.2910209,-4.0,0.0,6.0,6.0,4.0,1.0,1.0,-1.0
1705334682.2910209,2.0,-4.0,-7.0,-7.0,-6.0,-4.0,-2.0,0.0
1705334682.2910209,-2.0,3.0,0.0,-1.0,2.0,-1.0,-3.0,-2.0
1705334682.3207028,8.0,-3.0,4.0,-2.0,-7.0,-3.0,0.0,0.0
1705334682.3207028,-13.0,17.0,-5.0,-2.0,12.0,0.0,-2.0,-2.0
1705334682.3207028,-9.0,-5.0,6.0,4.0,-8.0,-2.0,-1.0,-2.0
1705334682.3207028,2.0,2.0,-5.0,7.0,12.0,4.0,0.0,1.0
1705334682.3517098,-2.0,1.0,-5.0,-7.0,-20.0,-2.0,-1.0,-2.0
1705334682.3517098,7.0,4.0,8.0,-5.0,-2.0,-6.0,-2.0,0.0
1705334682.3517098,-2.0,-4.0,5.0,-4.0,6.0,0.0,-2.0,-3.0
1705334682.3517098,0.0,10.0,0.0,1.0,1.0,0.0,0.0,0.0
1705334682.3517098,-1.0,-6.0,-4.0,2.0,3.0,2.0,-1.0,-1.0
1705334682.3517098,0.0,-14.0,-5.0,0.0,-6.0,1.0,-1.0,-1.0
1705334682.3517098,-2.0,2.0,8.0,2.0,-8.0,-4.0,-2.0,-1.0
1705334682.3517098,0.0,3.0,-11.0,-9.0,2.0,-3.0,-2.0,-3.0
1705334682.3713827,-1.0,-18.0,-1.0,-11.0,2.0,2.0,0.0,-2.0
1705334682.3713827,-4.0,-8.0,-7.0,14.0,13.0,0.0,-2.0,-2.0
1705334682.3713827,4.0,-1.0,1.0,-9.0,-13.0,-2.0,3.0,-1.0
1705334682.3713827,5.0,5.0,1.0,6.0,6.0,-3.0,0.0,-1.0
1705334682.3911,-14.0,9.0,5.0,-1.0,-9.0,-5.0,-2.0,-3.0
1705334682.3911,-2.0,-7.0,-4.0,-6.0,-4.0,3.0,-1.0,-2.0
1705334682.3911,3.0,-3.0,-1.0,6.0,7.0,3.0,0.0,2.0
1705334682.3911,-2.0,-5.0,2.0,-5.0,-11.0,-4.0,-3.0,1.0
1705334682.41139,0.0,13.0,-1.0,0.0,12.0,-2.0,-1.0,1.0
1705334682.41139,0.0,0.0,1.0,3.0,-4.0,1.0,0.0,-2.0
1705334682.41139,-2.0,11.0,-6.0,-4.0,6.0,1.0,0.0,-1.0
1705334682.41139,0.0,0.0,2.0,-1.0,-14.0,-3.0,-1.0,-1.0
1705334682.431353,0.0,-12.0,-1.0,-4.0,11.0,-1.0,-2.0,-1.0
1705334682.431353,2.0,2.0,-3.0,-3.0,3.0,-2.0,0.0,0.0
1705334682.431353,-2.0,-9.0,-5.0,-4.0,-17.0,-2.0,0.0,-1.0
1705334682.431353,-2.0,2.0,1.0,-12.0,9.0,0.0,-2.0,-1.0
1705334682.4510972,0.0,0.0,5.0,12.0,-13.0,-2.0,0.0,0.0
1705334682.4510972,3.0,1.0,2.0,2.0,13.0,1.0,-1.0,-1.0
1705334682.4510972,-3.0,-6.0,-5.0,7.0,4.0,-3.0,-1.0,0.0
1705334682.4510972,-4.0,-3.0,-8.0,-17.0,-26.0,-2.0,-2.0,-1.0
1705334682.4714992,-3.0,6.0,-2.0,2.0,24.0,0.0,0.0,1.0
1705334682.4714992,1.0,-10.0,4.0,-2.0,-12.0,-1.0,0.0,0.0
1705334682.4714992,2.0,11.0,-3.0,6.0,1.0,-1.0,-3.0,-2.0
1705334682.4714992,0.0,-6.0,0.0,1.0,1.0,0.0,2.0,-2.0
1705334682.491453,0.0,-6.0,5.0,-5.0,-12.0,-1.0,-2.0,-3.0
1705334682.491453,-6.0,-2.0,-16.0,-6.0,-4.0,-4.0,-2.0,-1.0
1705334682.491453,-2.0,-2.0,2.0,-9.0,-1.0,0.0,-2.0,-3.0
1705334682.491453,-3.0,-1.0,-4.0,5.0,-5.0,-3.0,-3.0,0.0
1705334682.5114968,1.0,2.0,2.0,7.0,22.0,1.0,-3.0,-3.0
1705334682.5114968,1.0,4.0,5.0,3.0,-11.0,-2.0,-2.0,0.0
1705334682.5114968,-1.0,0.0,-2.0,-13.0,-12.0,-1.0,0.0,-1.0
1705334682.5114968,0.0,-7.0,1.0,10.0,24.0,5.0,2.0,-1.0
1705334682.5311337,0.0,-2.0,0.0,2.0,-8.0,-2.0,1.0,-2.0
1705334682.5311337,1.0,3.0,-4.0,-7.0,-10.0,-3.0,-2.0,0.0
1705334682.5311337,-2.0,10.0,-6.0,-3.0,-2.0,-2.0,-1.0,0.0
1705334682.5311337,-1.0,-3.0,0.0,-14.0,-14.0,-3.0,-2.0,0.0
1705334682.5611053,-2.0,-6.0,-4.0,5.0,24.0,3.0,-1.0,1.0
1705334682.5611053,-1.0,7.0,2.0,6.0,-3.0,0.0,-1.0,-1.0
1705334682.5611053,2.0,2.0,-1.0,2.0,1.0,-1.0,-1.0,-1.0
1705334682.5611053,0.0,-3.0,-4.0,3.0,10.0,-2.0,0.0,0.0
1705334682.5711334,4.0,1.0,1.0,-13.0,-38.0,-9.0,-1.0,1.0
1705334682.5711334,-2.0,14.0,3.0,-14.0,-5.0,-5.0,-3.0,-3.0
1705334682.5711334,-6.0,-2.0,2.0,11.0,26.0,5.0,-1.0,-1.0
1705334682.5711334,3.0,-4.0,3.0,13.0,9.0,2.0,-1.0,1.0
1705334682.5914485,-3.0,-1.0,-4.0,-9.0,-16.0,-5.0,-3.0,-4.0
1705334682.5914485,0.0,7.0,-2.0,1.0,12.0,3.0,1.0,-2.0
1705334682.5914485,0.0,-6.0,-5.0,-5.0,-12.0,-2.0,-1.0,-1.0
1705334682.5914485,-4.0,6.0,2.0,11.0,17.0,3.0,-1.0,-2.0
1705334682.6114576,1.0,-14.0,-3.0,7.0,-15.0,0.0,0.0,1.0
1705334682.6114576,-2.0,10.0,-3.0,-10.0,-8.0,-5.0,-3.0,-1.0
1705334682.6114576,1.0,-3.0,2.0,-5.0,7.0,-2.0,-1.0,0.0
1705334682.6114576,-6.0,-7.0,0.0,2.0,-2.0,0.0,-1.0,-3.0
1705334682.6310995,-3.0,7.0,0.0,-12.0,-4.0,-2.0,0.0,-2.0
1705334682.6310995,-2.0,7.0,-1.0,1.0,-20.0,1.0,-1.0,1.0
1705334682.6310995,6.0,0.0,1.0,12.0,32.0,2.0,0.0,2.0
1705334682.6310995,2.0,-2.0,-3.0,2.0,-2.0,-1.0,-1.0,1.0
1705334682.6515207,2.0,12.0,4.0,6.0,-6.0,2.0,-1.0,-1.0
1705334682.6515207,-2.0,2.0,-2.0,-9.0,-14.0,-2.0,0.0,-2.0
1705334682.6515207,-12.0,-1.0,-16.0,-25.0,-34.0,-9.0,-3.0,-6.0
1705334682.6515207,1.0,10.0,8.0,-1.0,25.0,-1.0,-1.0,-2.0
1705334682.6711,-1.0,4.0,0.0,4.0,16.0,5.0,0.0,-1.0
1705334682.6711,2.0,5.0,8.0,8.0,-1.0,0.0,1.0,-1.0
1705334682.6711,2.0,-3.0,-3.0,5.0,-7.0,-4.0,-2.0,1.0
1705334682.6711,-3.0,7.0,-6.0,-7.0,-8.0,-2.0,0.0,-1.0
1705334682.6913884,-3.0,-1.0,-9.0,-3.0,-10.0,-4.0,-3.0,0.0
1705334682.6913884,-1.0,12.0,-4.0,1.0,9.0,0.0,0.0,1.0
1705334682.6913884,1.0,14.0,3.0,-2.0,-16.0,0.0,-3.0,-2.0
1705334682.6913884,-2.0,-8.0,0.0,9.0,20.0,-1.0,-1.0,0.0
1705334682.7113693,-1.0,10.0,3.0,-2.0,-13.0,-1.0,-3.0,0.0
1705334682.7113693,1.0,-3.0,-10.0,-6.0,7.0,5.0,1.0,2.0
1705334682.7113693,2.0,-7.0,6.0,9.0,4.0,2.0,2.0,1.0
1705334682.7113693,-1.0,2.0,-9.0,-5.0,-10.0,-1.0,0.0,-1.0
1705334682.7510958,-1.0,11.0,20.0,-8.0,-22.0,-7.0,-4.0,-1.0
1705334682.7510958,-6.0,0.0,-14.0,-2.0,23.0,-3.0,-4.0,-2.0
1705334682.7510958,0.0,1.0,1.0,2.0,3.0,0.0,-2.0,0.0
1705334682.7510958,1.0,-1.0,-10.0,-3.0,-10.0,0.0,2.0,1.0
1705334682.7510958,1.0,3.0,13.0,11.0,7.0,0.0,3.0,-1.0
1705334682.7510958,-1.0,2.0,2.0,-4.0,-3.0,1.0,-2.0,-3.0
1705334682.7510958,3.0,1.0,9.0,6.0,11.0,3.0,1.0,1.0
1705334682.7510958,-2.0,11.0,-6.0,-3.0,-5.0,-2.0,-3.0,-2.0
1705334682.7810977,-13.0,10.0,-20.0,-8.0,-11.0,-8.0,-4.0,-4.0
1705334682.7810977,-1.0,-5.0,4.0,-3.0,-7.0,-1.0,-3.0,-3.0
1705334682.7810977,0.0,6.0,-2.0,-1.0,3.0,-1.0,2.0,1.0
1705334682.7810977,-1.0,1.0,17.0,-4.0,0.0,-1.0,-3.0,-2.0
1705334682.7911272,3.0,3.0,5.0,9.0,12.0,2.0,-1.0,-1.0
1705334682.7911272,-4.0,-7.0,-24.0,9.0,4.0,0.0,1.0,-4.0
1705334682.7911272,-4.0,0.0,3.0,-8.0,-3.0,-2.0,-2.0,-1.0
1705334682.7911272,-2.0,7.0,24.0,-6.0,-19.0,-6.0,-2.0,-3.0
1705334682.8114762,1.0,4.0,-21.0,-2.0,9.0,2.0,-1.0,-2.0
1705334682.8114762,7.0,-15.0,-7.0,2.0,-10.0,1.0,1.0,-1.0
1705334682.8114762,-1.0,9.0,15.0,3.0,12.0,-3.0,-3.0,-2.0
1705334682.8114762,-2.0,8.0,21.0,-5.0,-10.0,-4.0,-4.0,-2.0
1705334682.8410978,-3.0,-5.0,-10.0,-5.0,5.0,3.0,1.0,-1.0
1705334682.8410978,-5.0,-16.0,-8.0,1.0,2.0,1.0,0.0,0.0
1705334682.8410978,3.0,-1.0,-1.0,7.0,0.0,1.0,1.0,-1.0
1705334682.8410978,0.0,-4.0,-1.0,1.0,-3.0,-1.0,-2.0,0.0
1705334682.851317,-1.0,4.0,12.0,-3.0,1.0,-5.0,-1.0,-2.0
1705334682.851317,1.0,-8.0,5.0,-10.0,-19.0,-4.0,-4.0,-3.0
1705334682.851317,0.0,2.0,-3.0,-7.0,4.0,-2.0,-3.0,-3.0
1705334682.851317,-4.0,-12.0,-14.0,7.0,12.0,-4.0,-6.0,-3.0
1705334682.8753984,2.0,-18.0,-1.0,1.0,-6.0,4.0,4.0,-16.0
1705334682.8753984,0.0,4.0,10.0,-1.0,-1.0,3.0,6.0,18.0
1705334682.8753984,-11.0,-2.0,4.0,-1.0,0.0,-3.0,-7.0,-27.0
1705334682.8753984,-1.0,10.0,-14.0,2.0,-2.0,2.0,2.0,-2.0
1705334682.9150865,3.0,-2.0,-12.0,-8.0,-22.0,-4.0,-2.0,3.0
1705334682.9150865,2.0,-4.0,13.0,8.0,33.0,-2.0,1.0,-5.0
1705334682.9150865,-10.0,2.0,-42.0,-12.0,-9.0,-1.0,-5.0,-3.0
1705334682.9150865,5.0,-3.0,-29.0,-7.0,-4.0,2.0,-1.0,0.0
1705334682.9150865,5.0,8.0,45.0,5.0,0.0,-2.0,-3.0,-11.0
1705334682.9150865,1.0,-14.0,8.0,-6.0,-9.0,-8.0,-1.0,29.0
1705334682.9150865,-13.0,0.0,6.0,-2.0,-8.0,-3.0,1.0,-1.0
1705334682.9150865,-6.0,-9.0,-11.0,4.0,12.0,1.0,-1.0,1.0
1705334682.935088,0.0,9.0,-12.0,-4.0,-4.0,2.0,0.0,-2.0
1705334682.935088,-2.0,-9.0,16.0,5.0,0.0,5.0,0.0,-5.0
1705334682.935088,4.0,5.0,-8.0,-4.0,6.0,2.0,0.0,3.0
1705334682.935088,-1.0,-5.0,-1.0,-1.0,1.0,-4.0,-1.0,0.0
1705334682.9550855,3.0,-1.0,12.0,9.0,8.0,2.0,2.0,6.0
1705334682.9550855,-4.0,4.0,-22.0,-4.0,-5.0,-3.0,-4.0,-10.0
1705334682.9550855,-9.0,25.0,-4.0,-8.0,-39.0,-5.0,-3.0,-9.0
1705334682.9550855,1.0,-1.0,5.0,0.0,29.0,-6.0,-2.0,14.0
1705334682.9651177,-1.0,-13.0,-11.0,-3.0,5.0,10.0,7.0,6.0
1705334682.9651177,-1.0,-3.0,9.0,3.0,2.0,3.0,-2.0,-3.0
1705334682.9753199,9.0,-12.0,-7.0,10.0,1.0,-3.0,0.0,1.0
1705334682.9753199,1.0,6.0,-2.0,-9.0,-17.0,-5.0,1.0,9.0
1705334682.9915044,-9.0,0.0,15.0,-1.0,4.0,-3.0,-7.0,-10.0
1705334682.9915044,-1.0,11.0,-54.0,-12.0,-7.0,6.0,1.0,-1.0
1705334682.9915044,0.0,-8.0,3.0,3.0,2.0,0.0,2.0,4.0
1705334682.9915044,6.0,-2.0,5.0,0.0,-17.0,1.0,0.0,8.0
1705334683.021341,-4.0,8.0,-14.0,-4.0,18.0,-9.0,-4.0,0.0
1705334683.021341,1.0,15.0,23.0,2.0,-6.0,-6.0,-2.0,-8.0
1705334683.021341,5.0,-10.0,-22.0,-2.0,-18.0,-3.0,-1.0,-3.0
1705334683.021341,-3.0,-20.0,5.0,3.0,26.0,9.0,2.0,1.0
1705334683.0314147,-2.0,1.0,25.0,9.0,-10.0,-1.0,0.0,2.0
1705334683.0314147,-1.0,14.0,12.0,-5.0,-4.0,-7.0,-7.0,-9.0
1705334683.0314147,-3.0,5.0,-22.0,-4.0,2.0,-2.0,-1.0,10.0
1705334683.0314147,2.0,1.0,-3.0,-2.0,-14.0,0.0,1.0,-12.0
1705334683.051701,2.0,2.0,-22.0,-2.0,0.0,-6.0,-1.0,4.0
1705334683.051701,-14.0,-5.0,1.0,-7.0,-1.0,-5.0,-7.0,-14.0
1705334683.051701,3.0,-1.0,10.0,2.0,14.0,5.0,4.0,4.0
1705334683.051701,-8.0,-4.0,-8.0,-3.0,-14.0,-2.0,-2.0,-30.0
1705334683.0913427,2.0,6.0,5.0,6.0,12.0,7.0,2.0,18.0
1705334683.0913427,1.0,7.0,21.0,7.0,-7.0,-6.0,0.0,13.0
1705334683.0913427,4.0,-13.0,8.0,-9.0,-3.0,0.0,0.0,-2.0
1705334683.0913427,-13.0,7.0,-24.0,-7.0,-6.0,-5.0,-5.0,-12.0
1705334683.0913427,0.0,3.0,-9.0,-9.0,-2.0,-3.0,-6.0,-1.0
1705334683.0913427,2.0,-1.0,13.0,0.0,-11.0,1.0,1.0,-7.0
1705334683.0913427,-1.0,-9.0,18.0,18.0,43.0,6.0,2.0,4.0
1705334683.0913427,6.0,0.0,19.0,8.0,-12.0,-1.0,-2.0,3.0
1705334683.1215718,-3.0,3.0,-14.0,-6.0,-13.0,-6.0,-5.0,-4.0
1705334683.1215718,-5.0,-17.0,-16.0,-11.0,-9.0,1.0,0.0,-2.0
1705334683.1215718,1.0,10.0,16.0,4.0,4.0,1.0,-1.0,-3.0
1705334683.1215718,-7.0,-12.0,-27.0,-10.0,-4.0,-2.0,-4.0,3.0
1705334683.1313481,-5.0,-14.0,-7.0,0.0,3.0,-1.0,-2.0,-4.0
1705334683.1313481,10.0,4.0,8.0,11.0,9.0,5.0,4.0,-8.0
1705334683.1313481,7.0,25.0,-11.0,-7.0,-9.0,-7.0,-1.0,14.0
1705334683.1313481,-1.0,0.0,17.0,-5.0,-5.0,1.0,-3.0,-13.0
1705334683.1613433,-3.0,-12.0,25.0,-2.0,-7.0,-1.0,0.0,-2.0
1705334683.1613433,-4.0,-2.0,-33.0,0.0,10.0,1.0,-2.0,-9.0
1705334683.1613433,0.0,-8.0,-19.0,-1.0,-6.0,2.0,-1.0,6.0
1705334683.1613433,3.0,8.0,12.0,14.0,10.0,4.0,6.0,6.0
1705334683.171429,-3.0,20.0,2.0,-3.0,1.0,-10.0,-5.0,-5.0
1705334683.171429,0.0,-3.0,30.0,-11.0,-10.0,-14.0,-8.0,15.0
1705334683.171429,-17.0,1.0,24.0,-4.0,-13.0,22.0,-9.0,-24.0
1705334683.171429,1.0,9.0,-1.0,-8.0,-20.0,-11.0,12.0,-4.0
1705334683.1913764,-2.0,-6.0,-42.0,6.0,34.0,4.0,-1.0,-2.0
1705334683.1913764,11.0,3.0,8.0,6.0,2.0,3.0,2.0,12.0
1705334683.1913764,8.0,-1.0,10.0,3.0,6.0,-8.0,-1.0,13.0
1705334683.1913764,-5.0,-12.0,-19.0,-10.0,-5.0,0.0,-10.0,-4.0
1705334683.2113936,0.0,5.0,4.0,9.0,-16.0,-3.0,4.0,-2.0
1705334683.2113936,-7.0,8.0,-26.0,-19.0,-6.0,-4.0,-1.0,-10.0
1705334683.2113936,0.0,-18.0,12.0,1.0,12.0,5.0,1.0,-3.0
1705334683.2113936,7.0,-1.0,-5.0,12.0,6.0,0.0,-2.0,2.0
1705334683.2315738,1.0,5.0,-12.0,-6.0,1.0,-1.0,0.0,-1.0
1705334683.2315738,-8.0,-18.0,16.0,6.0,-2.0,-2.0,-2.0,-3.0
1705334683.2315738,-1.0,21.0,63.0,16.0,-14.0,-9.0,-3.0,-5.0
1705334683.2315738,5.0,23.0,-57.0,-22.0,-4.0,-4.0,-2.0,6.0
1705334683.2516572,-7.0,15.0,-6.0,-27.0,-33.0,-3.0,-4.0,2.0
1705334683.2516572,-9.0,-7.0,56.0,22.0,50.0,14.0,2.0,-2.0
1705334683.2516572,2.0,-11.0,-28.0,16.0,6.0,1.0,1.0,0.0
1705334683.2516572,-7.0,-11.0,-57.0,-14.0,-2.0,-1.0,-3.0,-10.0
1705334683.2717092,0.0,-2.0,17.0,-22.0,-28.0,-17.0,-6.0,4.0
1705334683.2717092,4.0,7.0,-32.0,-10.0,-11.0,2.0,4.0,-3.0
1705334683.2717092,-1.0,-11.0,-3.0,2.0,13.0,1.0,8.0,-1.0
1705334683.2812195,3.0,-5.0,36.0,20.0,6.0,3.0,1.0,0.0
1705334683.2912288,9.0,-2.0,-32.0,-9.0,-1.0,1.0,-2.0,-3.0
1705334683.2912288,-9.0,12.0,31.0,-10.0,-12.0,-17.0,-12.0,-5.0
1705334683.2912288,2.0,9.0,20.0,12.0,0.0,-9.0,-3.0,-2.0
1705334683.2912288,0.0,4.0,0.0,4.0,-3.0,6.0,0.0,5.0
1705334683.3112366,2.0,-18.0,1.0,11.0,1.0,2.0,0.0,-1.0
1705334683.3112366,-6.0,-5.0,-37.0,-12.0,8.0,1.0,-2.0,-3.0
1705334683.3112366,-5.0,-4.0,-16.0,-9.0,2.0,2.0,2.0,-4.0
1705334683.3112366,-1.0,4.0,59.0,9.0,-14.0,-8.0,-1.0,1.0
1705334683.3314931,5.0,-3.0,-33.0,-17.0,16.0,4.0,-1.0,1.0
1705334683.3314931,2.0,2.0,-5.0,11.0,-10.0,3.0,-12.0,-1.0
1705334683.3412352,-7.0,3.0,-56.0,-14.0,-5.0,-10.0,6.0,-2.0
1705334683.3412352,-5.0,-10.0,19.0,12.0,33.0,13.0,7.0,4.0
1705334683.3612297,-1.0,5.0,70.0,27.0,-11.0,-16.0,-24.0,-10.0
1705334683.3612297,1.0,21.0,0.0,-7.0,-15.0,2.0,-6.0,4.0
1705334683.3612297,-1.0,-5.0,-16.0,-12.0,-5.0,2.0,30.0,20.0
1705334683.3612297,-3.0,2.0,-27.0,-11.0,-2.0,-3.0,-4.0,-5.0
1705334683.3715732,-5.0,-2.0,-7.0,-2.0,5.0,8.0,12.0,-1.0
1705334683.3715732,2.0,9.0,6.0,8.0,-2.0,-11.0,-13.0,-3.0
1705334683.3715732,-5.0,-2.0,15.0,-1.0,-5.0,-7.0,-23.0,-6.0
1705334683.3715732,1.0,17.0,-10.0,-7.0,-8.0,0.0,4.0,1.0
1705334683.4000046,4.0,-19.0,-2.0,11.0,6.0,5.0,-3.0,0.0
1705334683.4000046,-7.0,23.0,27.0,-2.0,0.0,-1.0,3.0,-17.0
1705334683.4009147,-4.0,2.0,-98.0,-29.0,-11.0,-10.0,-11.0,11.0
1705334683.4009147,-12.0,1.0,40.0,-11.0,-16.0,-3.0,-2.0,-2.0
1705334683.414244,2.0,-28.0,-13.0,13.0,30.0,10.0,3.0,0.0
1705334683.414244,23.0,12.0,21.0,-8.0,2.0,6.0,13.0,10.0
1705334683.4150624,-19.0,1.0,14.0,-16.0,-24.0,-8.0,-5.0,-20.0
1705334683.4150624,-9.0,14.0,5.0,22.0,5.0,-3.0,-7.0,-2.0
1705334683.4281473,-14.0,-22.0,1.0,34.0,23.0,8.0,6.0,2.0
1705334683.4281473,15.0,-18.0,-33.0,38.0,36.0,9.0,8.0,4.0
1705334683.4378178,11.0,-7.0,27.0,21.0,0.0,-2.0,-7.0,1.0
1705334683.4378178,5.0,13.0,-9.0,-5.0,-15.0,-7.0,-8.0,-2.0
1705334683.4578156,-3.0,20.0,9.0,-35.0,-27.0,-4.0,5.0,1.0
1705334683.4578156,1.0,11.0,-10.0,-14.0,-18.0,-7.0,4.0,2.0
1705334683.4578156,-22.0,10.0,26.0,0.0,4.0,2.0,-3.0,-6.0
1705334683.4578156,15.0,-11.0,27.0,2.0,8.0,2.0,-2.0,5.0
1705334683.4678519,13.0,12.0,18.0,1.0,-8.0,-4.0,-3.0,4.0
1705334683.4678519,-28.0,-5.0,-23.0,-11.0,-2.0,-2.0,-4.0,-11.0
1705334683.4678519,8.0,-8.0,-55.0,-22.0,-8.0,-5.0,0.0,-2.0
1705334683.4678519,0.0,6.0,33.0,-7.0,14.0,17.0,14.0,-3.0
1705334683.487992,-9.0,-1.0,-25.0,-10.0,-6.0,1.0,4.0,-2.0
1705334683.487992,-11.0,-1.0,16.0,-3.0,-8.0,-4.0,-6.0,0.0
1705334683.4978154,19.0,7.0,25.0,11.0,0.0,5.0,3.0,3.0
1705334683.4978154,46.0,0.0,-14.0,3.0,15.0,-8.0,-6.0,2.0
1705334683.5182412,-4.0,-1.0,10.0,4.0,8.0,3.0,-6.0,-2.0
1705334683.5182412,-9.0,-15.0,-10.0,-11.0,-6.0,-4.0,0.0,1.0
1705334683.5182412,-14.0,-2.0,-7.0,9.0,-4.0,1.0,5.0,-4.0
1705334683.5182412,3.0,-3.0,-3.0,2.0,5.0,2.0,0.0,5.0
1705334683.538282,2.0,7.0,57.0,10.0,-17.0,-4.0,-4.0,-1.0
1705334683.538282,-12.0,-20.0,-38.0,-28.0,-8.0,-5.0,-4.0,-3.0
1705334683.538282,14.0,-8.0,7.0,-9.0,3.0,0.0,-3.0,0.0
1705334683.538282,-12.0,23.0,-25.0,4.0,-11.0,-7.0,-7.0,-3.0
1705334683.557816,-8.0,-15.0,-58.0,-15.0,16.0,2.0,3.0,-2.0
1705334683.557816,-2.0,-9.0,10.0,17.0,-2.0,-1.0,5.0,0.0
1705334683.557816,5.0,-4.0,32.0,-7.0,9.0,2.0,-6.0,-3.0
1705334683.557816,-2.0,-6.0,-33.0,-15.0,-16.0,-1.0,4.0,1.0
1705334683.578161,-2.0,30.0,35.0,3.0,8.0,-10.0,-4.0,-4.0
1705334683.578161,17.0,-8.0,36.0,13.0,-5.0,-2.0,-3.0,3.0
1705334683.578161,-26.0,-6.0,-26.0,-11.0,18.0,2.0,-6.0,-6.0
1705334683.578161,-11.0,-15.0,-1.0,-12.0,-17.0,-4.0,-2.0,-6.0
1705334683.588097,19.0,-9.0,-28.0,-12.0,-9.0,1.0,4.0,4.0
1705334683.588097,8.0,15.0,0.0,-19.0,-17.0,-4.0,0.0,6.0
1705334683.588097,-12.0,21.0,17.0,18.0,4.0,-1.0,-1.0,-6.0
1705334683.588097,-13.0,-10.0,16.0,12.0,11.0,4.0,1.0,-4.0
1705334683.6278164,-9.0,-7.0,-24.0,-7.0,2.0,3.0,0.0,-3.0
1705334683.6278164,7.0,-13.0,5.0,6.0,18.0,3.0,2.0,3.0
1705334683.6278164,10.0,36.0,10.0,-32.0,-27.0,-7.0,-6.0,-5.0
1705334683.6278164,-3.0,-13.0,-11.0,48.0,26.0,0.0,-1.0,1.0
1705334683.63785,-7.0,-1.0,32.0,12.0,-14.0,-8.0,-7.0,-1.0
1705334683.63785,-2.0,-11.0,-16.0,15.0,-15.0,-4.0,-4.0,-4.0
1705334683.63785,3.0,1.0,-25.0,-10.0,31.0,2.0,3.0,4.0
1705334683.63785,1.0,-2.0,8.0,-21.0,-18.0,-2.0,-2.0,-5.0
1705334683.6482165,-5.0,1.0,-31.0,2.0,-12.0,1.0,2.0,-4.0
1705334683.6482165,-3.0,1.0,-8.0,-15.0,3.0,-2.0,-2.0,-3.0
1705334683.6482165,9.0,0.0,38.0,6.0,-19.0,-5.0,-4.0,0.0
1705334683.6482165,-3.0,-5.0,17.0,-3.0,6.0,-6.0,-3.0,1.0
1705334683.6778152,-4.0,14.0,3.0,-1.0,7.0,1.0,0.0,-2.0
1705334683.6778152,-2.0,-1.0,-36.0,-8.0,-17.0,-4.0,-2.0,-3.0
1705334683.6778152,-1.0,-4.0,-10.0,6.0,7.0,4.0,0.0,-1.0
1705334683.6778152,9.0,-2.0,28.0,12.0,6.0,2.0,-2.0,2.0
1705334683.6978827,9.0,17.0,-34.0,-14.0,-7.0,-4.0,-1.0,0.0
1705334683.6978827,-31.0,-15.0,24.0,15.0,4.0,-2.0,-3.0,-6.0
1705334683.6978827,1.0,-4.0,14.0,3.0,-3.0,-2.0,1.0,-2.0
1705334683.6978827,-13.0,14.0,-2.0,-23.0,-14.0,-7.0,-3.0,-2.0
1705334683.7078445,8.0,-11.0,-14.0,-13.0,3.0,4.0,-2.0,-1.0
1705334683.7078445,13.0,11.0,-3.0,7.0,-27.0,3.0,2.0,3.0
1705334683.7078445,-7.0,0.0,-12.0,10.0,47.0,6.0,2.0,-1.0
1705334683.7078445,-3.0,2.0,-10.0,-13.0,-17.0,-3.0,-3.0,-1.0
1705334683.7284403,2.0,9.0,4.0,9.0,-2.0,-3.0,1.0,1.0
1705334683.7381935,-7.0,13.0,11.0,9.0,-3.0,0.0,-4.0,-6.0
1705334683.7381935,1.0,-4.0,-6.0,-13.0,-12.0,-3.0,0.0,2.0
1705334683.7381935,-4.0,8.0,15.0,3.0,-6.0,-6.0,-3.0,-2.0
1705334683.7583792,-7.0,-6.0,-41.0,-39.0,-13.0,-5.0,-2.0,-1.0
1705334683.7583792,5.0,5.0,-4.0,3.0,10.0,4.0,-1.0,-1.0
1705334683.7583792,7.0,-19.0,0.0,5.0,5.0,2.0,0.0,2.0
1705334683.7583792,-11.0,-6.0,-4.0,1.0,8.0,-6.0,-3.0,-1.0
1705334683.7881932,-16.0,-11.0,13.0,16.0,-6.0,1.0,-3.0,-3.0
1705334683.7881932,0.0,-3.0,6.0,-3.0,10.0,0.0,2.0,1.0
1705334683.7881932,6.0,5.0,2.0,-6.0,-39.0,-5.0,-1.0,0.0
1705334683.7881932,11.0,8.0,-7.0,5.0,21.0,-1.0,1.0,0.0
1705334683.7981858,-5.0,-12.0,9.0,-7.0,-3.0,-2.0,-2.0,-1.0
1705334683.7981858,1.0,-5.0,-30.0,-16.0,5.0,-4.0,-2.0,-2.0
1705334683.7981858,-5.0,-2.0,2.0,9.0,-8.0,5.0,1.0,-1.0
1705334683.7981858,-6.0,-1.0,-11.0,-15.0,-22.0,0.0,0.0,-2.0
1705334683.8185372,7.0,3.0,13.0,18.0,27.0,2.0,-1.0,0.0
1705334683.8185372,0.0,2.0,-7.0,-1.0,-7.0,-5.0,-1.0,2.0
1705334683.8185372,-4.0,5.0,13.0,6.0,2.0,-3.0,-3.0,-2.0
1705334683.8185372,-2.0,-4.0,6.0,-4.0,11.0,7.0,2.0,0.0
1705334683.8285298,-4.0,-2.0,-18.0,-1.0,2.0,0.0,-3.0,0.0
1705334683.8285298,6.0,-3.0,1.0,-21.0,-5.0,-2.0,3.0,2.0
1705334683.8285298,9.0,3.0,2.0,0.0,-14.0,-4.0,-3.0,0.0
1705334683.8285298,0.0,1.0,9.0,-1.0,-19.0,-5.0,-1.0,0.0
1705334683.8581865,-13.0,0.0,16.0,20.0,31.0,5.0,2.0,-4.0
1705334683.8581865,-2.0,-17.0,-24.0,-5.0,7.0,-3.0,-4.0,-3.0
1705334683.8581865,1.0,6.0,17.0,-4.0,-17.0,-1.0,0.0,0.0
1705334683.8581865,3.0,-3.0,-10.0,-7.0,7.0,2.0,-3.0,0.0
1705334683.8784742,3.0,-8.0,3.0,13.0,-33.0,-7.0,-1.0,0.0
1705334683.8784742,1.0,4.0,7.0,4.0,17.0,2.0,3.0,1.0
1705334683.8784742,-1.0,-10.0,-24.0,-23.0,9.0,4.0,1.0,-1.0
1705334683.8784742,-9.0,13.0,3.0,3.0,2.0,-1.0,-1.0,-3.0
1705334683.8883564,2.0,-11.0,3.0,-10.0,-9.0,-2.0,-1.0,-1.0
1705334683.8883564,-2.0,7.0,-1.0,12.0,-11.0,-5.0,-3.0,0.0
1705334683.8983955,-4.0,-9.0,-11.0,9.0,6.0,-3.0,-1.0,-1.0
1705334683.8983955,0.0,-11.0,3.0,-4.0,-8.0,-4.0,0.0,1.0
1705334683.9181924,12.0,5.0,-9.0,-18.0,-11.0,0.0,-1.0,1.0
1705334683.9181924,4.0,-5.0,17.0,5.0,29.0,5.0,2.0,-1.0
1705334683.9181924,-5.0,4.0,34.0,8.0,-6.0,-1.0,-1.0,-1.0
1705334683.9181924,-7.0,-5.0,-49.0,-2.0,-8.0,-4.0,-3.0,-2.0
1705334683.950296,-1.0,3.0,-9.0,0.0,-6.0,-4.0,-1.0,0.0
1705334683.950296,-8.0,27.0,-2.0,-6.0,-9.0,4.0,0.0,-4.0
1705334683.950296,5.0,-1.0,32.0,9.0,4.0,-4.0,-4.0,0.0
1705334683.950296,-6.0,2.0,2.0,9.0,9.0,2.0,-2.0,-2.0
1705334683.950296,-1.0,-3.0,-8.0,-12.0,-5.0,-1.0,-5.0,-6.0
1705334683.950296,1.0,-8.0,13.0,-1.0,-22.0,-10.0,-2.0,-1.0
1705334683.9605136,-5.0,4.0,-26.0,-4.0,29.0,5.0,2.0,0.0
1705334683.9605136,-1.0,-7.0,8.0,-5.0,5.0,8.0,0.0,-1.0
1705334683.9802995,-2.0,1.0,10.0,10.0,4.0,-1.0,0.0,-1.0
1705334683.9802995,7.0,-1.0,-23.0,-20.0,-21.0,-10.0,-4.0,2.0
1705334683.9802995,6.0,-1.0,-10.0,6.0,-9.0,-4.0,-4.0,-4.0
1705334683.9802995,-3.0,-16.0,9.0,14.0,17.0,-1.0,-1.0,1.0
1705334683.9989507,-10.0,2.0,16.0,-8.0,-12.0,0.0,0.0,-2.0
1705334683.9989507,-2.0,12.0,2.0,7.0,16.0,1.0,-1.0,-2.0
1705334683.9989507,-5.0,-11.0,-24.0,-14.0,-14.0,-3.0,-2.0,-3.0
1705334683.9989507,3.0,0.0,-1.0,-9.0,-6.0,-1.0,0.0,0.0
1705334684.0089636,-1.0,4.0,-4.0,3.0,3.0,1.0,1.0,1.0
1705334684.0089636,-4.0,-7.0,22.0,6.0,0.0,3.0,1.0,-1.0
1705334684.018964,-4.0,2.0,-15.0,0.0,-6.0,-7.0,-3.0,-2.0
1705334684.018964,2.0,2.0,6.0,-3.0,2.0,0.0,0.0,-1.0
1705334684.029292,0.0,3.0,13.0,8.0,-4.0,-1.0,0.0,0.0
1705334684.029292,1.0,-13.0,-3.0,-3.0,4.0,0.0,-1.0,-2.0
1705334684.029292,0.0,0.0,-31.0,-8.0,-4.0,4.0,1.0,1.0
1705334684.029292,-3.0,11.0,-1.0,-4.0,10.0,-3.0,1.0,-1.0
1705334684.059176,2.0,2.0,28.0,17.0,9.0,1.0,0.0,0.0
1705334684.059176,4.0,8.0,-17.0,0.0,14.0,7.0,2.0,5.0
1705334684.059176,0.0,0.0,15.0,-3.0,-14.0,-5.0,-2.0,-3.0
1705334684.059176,-2.0,2.0,-10.0,-11.0,-18.0,-6.0,-4.0,1.0
1705334684.0689633,1.0,27.0,2.0,7.0,13.0,-2.0,-5.0,-3.0
1705334684.0689633,-9.0,-8.0,-7.0,-3.0,8.0,5.0,1.0,-4.0
1705334684.0792696,-7.0,-8.0,-13.0,3.0,-1.0,1.0,2.0,1.0
1705334684.0792696,8.0,0.0,5.0,2.0,-5.0,-4.0,1.0,-1.0
1705334684.0892262,3.0,10.0,5.0,-14.0,-11.0,-2.0,-8.0,-4.0
1705334684.0892262,-3.0,-15.0,-15.0,8.0,-5.0,4.0,0.0,-1.0
1705334684.0892262,-4.0,-4.0,-4.0,-3.0,19.0,2.0,1.0,1.0
1705334684.0892262,5.0,8.0,-24.0,-4.0,1.0,3.0,-2.0,-3.0
1705334684.119151,2.0,-12.0,17.0,9.0,4.0,-7.0,0.0,3.0
1705334684.119151,0.0,7.0,-2.0,-3.0,-27.0,-9.0,-6.0,-4.0
1705334684.119151,-7.0,14.0,-3.0,-2.0,11.0,2.0,0.0,-3.0
1705334684.119151,-2.0,0.0,4.0,1.0,0.0,1.0,1.0,2.0
1705334684.1289654,-2.0,4.0,2.0,-10.0,-8.0,-2.0,1.0,-1.0
1705334684.1289654,-10.0,6.0,-27.0,-11.0,-5.0,-3.0,-2.0,-1.0
1705334684.1391797,0.0,5.0,7.0,3.0,-9.0,-1.0,-1.0,-1.0
1705334684.1391797,-2.0,12.0,6.0,-6.0,-1.0,-2.0,-1.0,-4.0
1705334684.1493242,3.0,-15.0,-16.0,1.0,23.0,7.0,3.0,2.0
1705334684.1493242,4.0,0.0,19.0,14.0,-4.0,-1.0,0.0,1.0
1705334684.1493242,3.0,13.0,10.0,-14.0,-4.0,-4.0,-2.0,0.0
1705334684.1493242,-8.0,2.0,-15.0,-6.0,-9.0,-3.0,-4.0,-5.0
1705334684.1792474,-2.0,-6.0,-19.0,1.0,-7.0,-6.0,0.0,-1.0
1705334684.1792474,1.0,7.0,-14.0,3.0,6.0,2.0,1.0,0.0
1705334684.1792474,-6.0,-14.0,3.0,-2.0,5.0,1.0,0.0,-1.0
1705334684.1792474,-2.0,-10.0,6.0,-13.0,-7.0,-3.0,-2.0,-1.0
1705334684.1993303,-4.0,26.0,-29.0,-1.0,6.0,4.0,0.0,-2.0
1705334684.1993303,2.0,-13.0,10.0,4.0,-7.0,-4.0,-4.0,-1.0
1705334684.1993303,8.0,4.0,-8.0,-15.0,-9.0,-4.0,-1.0,1.0
1705334684.1993303,1.0,5.0,-7.0,2.0,13.0,1.0,0.0,0.0
1705334684.209325,-12.0,-15.0,8.0,13.0,5.0,-4.0,-3.0,-3.0
1705334684.209325,4.0,8.0,26.0,-4.0,-5.0,1.0,1.0,1.0
1705334684.209325,4.0,7.0,5.0,8.0,-8.0,-1.0,-3.0,1.0
1705334684.209325,-2.0,10.0,-7.0,0.0,0.0,3.0,1.0,-2.0
1705334684.2389672,2.0,2.0,-10.0,-12.0,13.0,3.0,1.0,0.0
1705334684.2389672,0.0,4.0,4.0,-2.0,-7.0,-7.0,-1.0,-2.0
1705334684.248963,-6.0,-1.0,-2.0,-9.0,-14.0,-7.0,-2.0,-4.0
1705334684.248963,0.0,0.0,2.0,-1.0,-5.0,6.0,0.0,0.0
1705334684.258998,1.0,-2.0,0.0,5.0,-8.0,-2.0,-1.0,-1.0
1705334684.258998,-2.0,-6.0,-2.0,7.0,32.0,8.0,3.0,3.0
1705334684.258998,-2.0,0.0,2.0,2.0,-3.0,-4.0,-2.0,-3.0
1705334684.258998,-3.0,1.0,6.0,0.0,-12.0,-9.0,-7.0,-4.0
1705334684.2693212,-6.0,-8.0,-1.0,-7.0,-4.0,0.0,-1.0,-3.0
1705334684.2693212,2.0,4.0,5.0,-3.0,-8.0,-4.0,-1.0,-2.0
1705334684.2693212,4.0,-3.0,-1.0,1.0,6.0,2.0,2.0,0.0
1705334684.2693212,-2.0,-7.0,4.0,12.0,6.0,3.0,1.0,-1.0
1705334684.2989964,-1.0,0.0,26.0,-7.0,-7.0,0.0,2.0,0.0
1705334684.2989964,6.0,-11.0,-66.0,-8.0,-3.0,-2.0,-3.0,-2.0
1705334684.2989964,-8.0,24.0,3.0,-1.0,11.0,0.0,-1.0,-2.0
1705334684.2989964,-2.0,-7.0,12.0,4.0,-13.0,-6.0,-4.0,-4.0
1705334684.3193028,-4.0,12.0,9.0,3.0,4.0,-3.0,-2.0,-2.0
1705334684.3193028,1.0,-14.0,0.0,-3.0,9.0,5.0,2.0,2.0
1705334684.3193028,4.0,3.0,3.0,9.0,-2.0,3.0,1.0,1.0
1705334684.3193028,-5.0,-6.0,-8.0,-7.0,5.0,2.0,2.0,0.0
1705334684.3292062,-1.0,-21.0,-36.0,-16.0,-13.0,-8.0,-3.0,0.0
1705334684.3292062,-9.0,7.0,17.0,-9.0,-16.0,-3.0,-2.0,0.0
1705334684.3292062,0.0,-10.0,-9.0,10.0,3.0,0.0,0.0,-1.0
1705334684.3389738,1.0,11.0,16.0,0.0,8.0,3.0,2.0,3.0
1705334684.3591032,15.0,-1.0,4.0,-2.0,6.0,5.0,-3.0,3.0
1705334684.3591032,-19.0,10.0,-10.0,10.0,8.0,1.0,1.0,-4.0
1705334684.3591032,0.0,-16.0,21.0,1.0,-3.0,0.0,0.0,-1.0
1705334684.3591032,0.0,0.0,-7.0,-1.0,-9.0,-7.0,-3.0,-2.0
1705334684.3789647,-3.0,1.0,-5.0,-8.0,-1.0,2.0,2.0,-2.0
1705334684.3789647,4.0,2.0,6.0,-6.0,-1.0,-3.0,-2.0,0.0
1705334684.3789647,7.0,28.0,9.0,7.0,-2.0,1.0,-2.0,1.0
1705334684.3789647,4.0,-2.0,-28.0,-1.0,1.0,-2.0,-1.0,-1.0
1705334684.3889966,-16.0,-23.0,-12.0,-7.0,-8.0,-10.0,-6.0,-5.0
1705334684.3889966,1.0,6.0,31.0,5.0,-1.0,1.0,-3.0,-2.0
1705334684.3889966,-5.0,-14.0,-8.0,1.0,-17.0,1.0,-1.0,-2.0
1705334684.3889966,1.0,-5.0,-3.0,-9.0,25.0,0.0,-1.0,0.0
1705334684.4189634,2.0,14.0,6.0,1.0,-27.0,-4.0,-3.0,-1.0
1705334684.4189634,0.0,-4.0,1.0,-5.0,5.0,-1.0,-1.0,0.0
1705334684.4189634,3.0,-23.0,-12.0,10.0,21.0,-2.0,-1.0,0.0
1705334684.4189634,1.0,26.0,17.0,-1.0,-10.0,2.0,1.0,1.0
1705334684.4394,6.0,-12.0,7.0,15.0,16.0,6.0,3.0,-1.0
1705334684.4394,3.0,14.0,0.0,-3.0,-12.0,-2.0,-1.0,1.0
1705334684.4394,-6.0,20.0,-4.0,-10.0,-10.0,-7.0,-3.0,-4.0
1705334684.4394,-11.0,-12.0,-7.0,-6.0,-10.0,-10.0,-5.0,-6.0
1705334684.4492626,-2.0,-4.0,10.0,-1.0,-9.0,2.0,1.0,-2.0
1705334684.4492626,-2.0,1.0,-4.0,15.0,13.0,4.0,0.0,-1.0
1705334684.4492626,2.0,-18.0,-8.0,-9.0,8.0,4.0,0.0,-1.0
1705334684.4492626,3.0,5.0,4.0,-2.0,-1.0,0.0,0.0,2.0
1705334684.4792378,1.0,7.0,-8.0,-2.0,-6.0,-4.0,-3.0,-1.0
1705334684.4792378,0.0,1.0,3.0,-13.0,-25.0,-7.0,-2.0,-3.0
1705334684.4802399,-5.0,1.0,-3.0,0.0,27.0,3.0,0.0,-1.0
1705334684.4802399,-5.0,-18.0,10.0,-3.0,-8.0,0.0,-1.0,-2.0
1705334684.4937892,7.0,10.0,-18.0,-1.0,-4.0,2.0,1.0,0.0
1705334684.5034428,7.0,7.0,6.0,-1.0,5.0,-3.0,-4.0,1.0
1705334684.5034428,-5.0,0.0,-1.0,-4.0,-34.0,-9.0,-2.0,-2.0
1705334684.5034428,8.0,-8.0,1.0,12.0,31.0,8.0,2.0,-1.0
1705334684.513437,-13.0,-1.0,0.0,12.0,10.0,1.0,-1.0,0.0
1705334684.513437,2.0,-4.0,5.0,-19.0,-9.0,-6.0,-2.0,-2.0
1705334684.513437,-1.0,11.0,-13.0,-2.0,-6.0,3.0,-3.0,-2.0
1705334684.513437,2.0,-3.0,15.0,-11.0,-11.0,-2.0,-2.0,1.0
1705334684.5339,1.0,3.0,-7.0,9.0,4.0,-2.0,2.0,0.0
