1705334539.5569372,1.0,-1.0,0.0,14.0,-4.0,2.0,1.0,1.0
1705334539.5569372,-6.0,7.0,4.0,-16.0,6.0,0.0,-2.0,-3.0
1705334539.5569372,1.0,3.0,-3.0,1.0,-2.0,-1.0,0.0,-1.0
1705334539.5569372,-2.0,-7.0,-6.0,-16.0,-6.0,-4.0,-4.0,-2.0
1705334539.5769432,1.0,9.0,-2.0,-3.0,-4.0,0.0,-5.0,-2.0
1705334539.5769432,-2.0,5.0,8.0,-2.0,-5.0,-3.0,-5.0,-3.0
1705334539.5769432,3.0,-11.0,-17.0,7.0,-2.0,2.0,2.0,-1.0
1705334539.5769432,-1.0,-10.0,9.0,6.0,13.0,1.0,-2.0,-2.0
1705334539.5968587,-1.0,2.0,15.0,14.0,1.0,-5.0,-2.0,-2.0
1705334539.5968587,-1.0,-3.0,-14.0,-1.0,-4.0,-4.0,-3.0,1.0
1705334539.5968587,-1.0,7.0,6.0,-14.0,-9.0,-7.0,-4.0,1.0
1705334539.5968587,-1.0,4.0,-2.0,-7.0,-7.0,2.0,2.0,-3.0
1705334539.616859,-4.0,-4.0,-3.0,-2.0,5.0,2.0,0.0,-3.0
1705334539.616859,2.0,-20.0,28.0,2.0,0.0,4.0,5.0,1.0
1705334539.616859,-4.0,30.0,-39.0,-2.0,-2.0,-3.0,-2.0,-1.0
1705334539.616859,-2.0,-2.0,-27.0,-6.0,-2.0,-3.0,-1.0,-2.0
1705334539.6368644,-3.0,1.0,16.0,-9.0,-2.0,-2.0,-3.0,0.0
1705334539.6368644,3.0,-5.0,3.0,2.0,-2.0,-1.0,0.0,-1.0
1705334539.6368644,3.0,-9.0,8.0,8.0,4.0,5.0,1.0,1.0
1705334539.6368644,-2.0,7.0,21.0,13.0,2.0,1.0,0.0,0.0
1705334539.6468263,-4.0,3.0,3.0,0.0,0.0,0.0,0.0,-3.0
1705334539.6468263,-3.0,5.0,-39.0,-17.0,-5.0,-5.0,-3.0,-2.0
1705334539.6468263,-1.0,-4.0,18.0,-1.0,-1.0,-5.0,-2.0,1.0
1705334539.6468263,-2.0,8.0,-8.0,-14.0,-6.0,0.0,-2.0,-3.0
1705334539.677189,2.0,-1.0,6.0,12.0,3.0,4.0,3.0,-1.0
1705334539.677189,-3.0,13.0,10.0,22.0,2.0,1.0,1.0,-1.0
1705334539.677189,-1.0,-12.0,-12.0,-16.0,-1.0,-2.0,0.0,0.0
1705334539.677189,-1.0,-1.0,-9.0,-7.0,-4.0,-3.0,-2.0,0.0
1705334539.7068255,-1.0,3.0,-1.0,-5.0,-6.0,-2.0,-1.0,-2.0
1705334539.7068255,1.0,-3.0,-4.0,-11.0,-1.0,-2.0,-3.0,-3.0
1705334539.7068255,-2.0,-1.0,-2.0,-13.0,-7.0,0.0,-3.0,-3.0
1705334539.7068255,0.0,-2.0,10.0,14.0,5.0,1.0,2.0,0.0
1705334539.7068255,3.0,0.0,-1.0,5.0,2.0,-2.0,0.0,-1.0
1705334539.7068255,-2.0,6.0,-11.0,-3.0,-3.0,1.0,1.0,-1.0
1705334539.7068255,2.0,-6.0,23.0,3.0,-1.0,0.0,1.0,-1.0
1705334539.7068255,0.0,-5.0,-15.0,-11.0,-6.0,-1.0,0.0,0.0
1705334539.737166,-2.0,5.0,-11.0,-14.0,-5.0,-4.0,-2.0,0.0
1705334539.7468338,-1.0,-4.0,6.0,9.0,4.0,-1.0,-2.0,0.0
1705334539.7468338,2.0,6.0,-1.0,13.0,0.0,0.0,1.0,1.0
1705334539.7468338,-5.0,-6.0,-7.0,-18.0,-7.0,-4.0,-4.0,-5.0
1705334539.7591867,-1.0,0.0,-5.0,5.0,11.0,4.0,-2.0,-1.0
1705334539.7591867,-1.0,2.0,-1.0,-4.0,0.0,0.0,0.0,0.0
1705334539.7591867,0.0,0.0,8.0,7.0,1.0,1.0,0.0,1.0
1705334539.7591867,4.0,4.0,7.0,7.0,-3.0,-2.0,0.0,1.0
1705334539.7891853,0.0,2.0,-4.0,-12.0,-8.0,-4.0,-2.0,-1.0
1705334539.7891853,-1.0,2.0,-6.0,-1.0,0.0,5.0,0.0,-1.0
1705334539.7912972,-3.0,-7.0,0.0,4.0,2.0,0.0,-3.0,-1.0
1705334539.7912972,3.0,-8.0,-2.0,-1.0,0.0,-2.0,-2.0,0.0
1705334539.7974021,3.0,-4.0,-11.0,-3.0,-2.0,-3.0,-1.0,0.0
1705334539.7974021,-12.0,0.0,6.0,9.0,1.0,-3.0,-2.0,-5.0
1705334539.7974021,-11.0,-1.0,-3.0,-7.0,-1.0,-2.0,2.0,0.0
1705334539.7974021,-3.0,-3.0,-6.0,-3.0,-3.0,-4.0,-4.0,-3.0
1705334539.8184571,1.0,-2.0,6.0,1.0,-2.0,0.0,-1.0,2.0
1705334539.8184571,4.0,-3.0,-3.0,3.0,-1.0,-3.0,-5.0,-1.0
1705334539.8184571,2.0,2.0,1.0,-1.0,2.0,0.0,-4.0,-2.0
1705334539.8184571,1.0,-12.0,20.0,7.0,3.0,1.0,2.0,-2.0
1705334539.828671,-3.0,19.0,17.0,4.0,2.0,4.0,3.0,-1.0
1705334539.828671,5.0,-8.0,-67.0,-14.0,-5.0,-7.0,-2.0,0.0
1705334539.8474164,-4.0,0.0,-28.0,-11.0,-6.0,-2.0,-3.0,-1.0
1705334539.8474164,-2.0,-14.0,9.0,1.0,-3.0,-3.0,-3.0,0.0
1705334539.8574202,4.0,-1.0,13.0,8.0,1.0,7.0,2.0,4.0
1705334539.8574202,5.0,-3.0,41.0,9.0,1.0,7.0,10.0,1.0
1705334539.8574202,-2.0,-19.0,26.0,-1.0,-3.0,-6.0,-8.0,-4.0
1705334539.8574202,-3.0,10.0,-26.0,-14.0,-3.0,-5.0,-4.0,-2.0
1705334539.8774176,-4.0,1.0,-2.0,-4.0,-4.0,-1.0,6.0,-1.0
1705334539.8774176,-3.0,0.0,-17.0,-1.0,-3.0,-3.0,-1.0,4.0
1705334539.8774176,3.0,-5.0,-12.0,2.0,1.0,2.0,4.0,1.0
1705334539.8774176,-2.0,5.0,19.0,-3.0,-2.0,-1.0,-2.0,-3.0
1705334539.8878043,-12.0,-18.0,-30.0,-7.0,-1.0,-4.0,-6.0,-8.0
1705334539.8878043,1.0,3.0,21.0,13.0,4.0,1.0,-1.0,0.0
1705334539.8977807,2.0,-6.0,2.0,-9.0,0.0,1.0,-2.0,-2.0
1705334539.8977807,1.0,9.0,19.0,16.0,3.0,0.0,1.0,-1.0
1705334539.917745,1.0,-45.0,-12.0,-13.0,-5.0,-3.0,-4.0,-3.0
1705334539.917745,-2.0,29.0,1.0,1.0,-9.0,-2.0,-3.0,-4.0
1705334539.917745,5.0,-15.0,2.0,-10.0,2.0,-3.0,-1.0,0.0
1705334539.917745,-7.0,-25.0,-19.0,18.0,14.0,8.0,4.0,0.0
1705334539.937778,0.0,38.0,-2.0,-13.0,-8.0,-7.0,-5.0,-2.0
1705334539.937778,-3.0,-38.0,9.0,-3.0,1.0,-1.0,-3.0,0.0
1705334539.937778,-7.0,20.0,9.0,3.0,-4.0,1.0,0.0,-3.0
1705334539.937778,11.0,-7.0,4.0,1.0,-6.0,1.0,2.0,2.0
1705334539.9481497,-1.0,21.0,-12.0,1.0,0.0,0.0,-2.0,3.0
1705334539.9481497,-4.0,-34.0,-1.0,-5.0,-2.0,-5.0,-5.0,-3.0
1705334539.957774,-1.0,35.0,11.0,23.0,0.0,0.0,1.0,0.0
1705334539.957774,-13.0,-11.0,-8.0,-17.0,-3.0,-1.0,1.0,-1.0
1705334539.9777448,12.0,-19.0,-10.0,-21.0,-3.0,0.0,-2.0,-1.0
1705334539.9777448,-19.0,17.0,-15.0,-12.0,-1.0,-2.0,0.0,-4.0
1705334539.9777448,3.0,-1.0,0.0,8.0,3.0,1.0,1.0,-1.0
1705334539.9777448,-5.0,2.0,4.0,9.0,-1.0,-4.0,-1.0,0.0
1705334539.9981086,11.0,9.0,34.0,7.0,5.0,3.0,-1.0,0.0
1705334539.9981086,-2.0,-21.0,-23.0,-4.0,-2.0,0.0,0.0,-4.0
1705334539.9981086,2.0,-3.0,-25.0,-4.0,-1.0,-5.0,-5.0,-4.0
1705334539.9981086,-10.0,52.0,12.0,4.0,-1.0,-3.0,-2.0,-12.0
1705334540.0079978,6.0,-28.0,-6.0,2.0,-3.0,-2.0,0.0,2.0
1705334540.0079978,2.0,29.0,29.0,6.0,5.0,6.0,1.0,-1.0
1705334540.027917,-2.0,-49.0,-41.0,-12.0,-5.0,-1.0,-2.0,-1.0
1705334540.027917,-7.0,39.0,8.0,-9.0,-4.0,0.0,-1.0,-4.0
1705334540.057745,-16.0,11.0,-20.0,6.0,0.0,-1.0,-4.0,20.0
1705334540.057745,-1.0,-21.0,-13.0,-14.0,-8.0,-13.0,-9.0,-8.0
1705334540.057745,2.0,14.0,10.0,-4.0,4.0,4.0,3.0,4.0
1705334540.057745,10.0,-1.0,7.0,-2.0,0.0,1.0,2.0,-7.0
1705334540.057745,-6.0,-11.0,9.0,7.0,-2.0,0.0,3.0,-4.0
1705334540.057745,3.0,38.0,13.0,11.0,8.0,8.0,6.0,11.0
1705334540.057745,0.0,0.0,21.0,-4.0,-3.0,-2.0,1.0,-6.0
1705334540.057745,-1.0,-20.0,-22.0,3.0,-3.0,-4.0,-4.0,6.0
1705334540.0681539,3.0,0.0,19.0,8.0,7.0,4.0,2.0,-2.0
1705334540.0681539,10.0,-7.0,-54.0,-24.0,-8.0,-6.0,-3.0,0.0
1705334540.0777597,-3.0,4.0,2.0,-7.0,-3.0,-3.0,-2.0,-2.0
1705334540.0777597,4.0,6.0,8.0,-19.0,-8.0,-3.0,-3.0,1.0
1705334540.0977457,-5.0,-3.0,-22.0,1.0,-5.0,-6.0,-5.0,-9.0
1705334540.0977457,-2.0,3.0,38.0,16.0,15.0,6.0,3.0,-7.0
1705334540.0977457,-2.0,-28.0,89.0,29.0,5.0,0.0,-2.0,3.0
1705334540.0977457,9.0,60.0,-57.0,14.0,-1.0,4.0,4.0,6.0
1705334540.127777,-10.0,-36.0,-42.0,-42.0,-11.0,-8.0,-7.0,-8.0
1705334540.127777,-4.0,-5.0,7.0,-7.0,-4.0,-3.0,-4.0,2.0
1705334540.127777,3.0,2.0,-27.0,-14.0,-1.0,3.0,3.0,1.0
1705334540.127777,4.0,-27.0,47.0,14.0,6.0,3.0,2.0,2.0
1705334540.1381834,-4.0,13.0,7.0,20.0,-3.0,1.0,-1.0,-7.0
1705334540.1381834,2.0,12.0,26.0,2.0,-2.0,0.0,-1.0,1.0
1705334540.1381834,-8.0,-24.0,-32.0,-9.0,-4.0,-4.0,-5.0,-2.0
1705334540.1381834,5.0,27.0,4.0,-7.0,-6.0,-5.0,-5.0,1.0
1705334540.1655176,-4.0,20.0,10.0,0.0,3.0,1.0,3.0,-7.0
1705334540.1655176,5.0,-10.0,1.0,3.0,-1.0,0.0,1.0,9.0
1705334540.1655176,2.0,-8.0,-23.0,-6.0,-1.0,6.0,4.0,-8.0
1705334540.1655176,-5.0,-18.0,0.0,-8.0,-1.0,4.0,2.0,-2.0
1705334540.1818745,1.0,-6.0,31.0,12.0,2.0,0.0,-1.0,1.0
1705334540.1818745,2.0,25.0,-1.0,-1.0,-7.0,-6.0,-5.0,-5.0
1705334540.1828732,5.0,1.0,-11.0,-8.0,-2.0,-5.0,-4.0,1.0
1705334540.1828732,-9.0,10.0,2.0,-4.0,-1.0,-1.0,-2.0,0.0
1705334540.207598,-4.0,0.0,-26.0,-1.0,0.0,-1.0,2.0,-5.0
1705334540.2086098,-3.0,-11.0,-10.0,0.0,-3.0,1.0,-2.0,-1.0
1705334540.2086098,0.0,11.0,-10.0,1.0,0.0,-2.0,-2.0,-1.0
1705334540.2086098,2.0,-30.0,1.0,-9.0,-2.0,-5.0,-3.0,-4.0
1705334540.2175982,3.0,-8.0,-6.0,10.0,-2.0,3.0,3.0,1.0
1705334540.2175982,0.0,-62.0,-11.0,-3.0,0.0,2.0,3.0,-1.0
1705334540.2175982,-3.0,69.0,24.0,-12.0,-2.0,-3.0,-4.0,-7.0
1705334540.2175982,-2.0,-31.0,-31.0,-17.0,-11.0,-11.0,-10.0,6.0
1705334540.2415543,2.0,-11.0,0.0,-4.0,0.0,-1.0,-3.0,-2.0
1705334540.2415543,-5.0,-3.0,3.0,5.0,-2.0,-3.0,0.0,1.0
1705334540.2415543,16.0,-22.0,-15.0,8.0,5.0,2.0,-2.0,2.0
1705334540.2415543,-8.0,-18.0,1.0,-2.0,1.0,-1.0,2.0,-8.0
1705334540.2708132,2.0,16.0,-4.0,-8.0,-2.0,-1.0,-1.0,2.0
1705334540.2708132,-3.0,-6.0,-29.0,-5.0,-1.0,-3.0,-4.0,-1.0
1705334540.2708132,-4.0,-2.0,-3.0,-1.0,3.0,5.0,1.0,3.0
1705334540.2708132,0.0,3.0,29.0,12.0,1.0,-6.0,-4.0,-2.0
1705334540.2775743,1.0,-18.0,2.0,2.0,1.0,1.0,0.0,-2.0
1705334540.2775743,2.0,-14.0,14.0,1.0,-1.0,-1.0,-2.0,0.0
1705334540.2775743,-8.0,12.0,-5.0,-2.0,-3.0,-9.0,8.0,-1.0
1705334540.2775743,2.0,-1.0,-5.0,2.0,5.0,16.0,-4.0,0.0
1705334540.3004398,-11.0,11.0,7.0,-10.0,-7.0,-6.0,8.0,3.0
1705334540.3004398,-4.0,1.0,-10.0,-2.0,6.0,2.0,-2.0,-5.0
1705334540.301231,1.0,-11.0,-13.0,-2.0,-8.0,-21.0,-9.0,-4.0
1705334540.301231,-8.0,-16.0,2.0,3.0,3.0,20.0,12.0,-2.0
1705334540.3232784,2.0,-8.0,23.0,6.0,-1.0,-2.0,3.0,5.0
1705334540.3232784,-4.0,18.0,11.0,0.0,-1.0,1.0,-3.0,-6.0
1705334540.3232784,2.0,49.0,-5.0,-9.0,-2.0,1.0,2.0,2.0
1705334540.3242924,-7.0,-46.0,-49.0,-19.0,-7.0,-19.0,-13.0,3.0
1705334540.3373406,-6.0,-32.0,-12.0,-5.0,0.0,2.0,-8.0,-6.0
1705334540.3373406,4.0,18.0,42.0,16.0,-1.0,1.0,2.0,1.0
1705334540.3382316,-13.0,-21.0,1.0,14.0,7.0,4.0,-2.0,1.0
1705334540.3382316,-21.0,50.0,8.0,-3.0,-7.0,-8.0,-5.0,-6.0
1705334540.367647,9.0,64.0,-3.0,-8.0,-2.0,0.0,-4.0,-7.0
1705334540.367647,-9.0,-16.0,-4.0,-4.0,-2.0,-7.0,-2.0,0.0
1705334540.367647,7.0,-12.0,-10.0,-1.0,0.0,5.0,6.0,6.0
1705334540.367647,14.0,-11.0,1.0,10.0,6.0,4.0,5.0,4.0
1705334540.377682,-7.0,-20.0,4.0,-7.0,-1.0,-3.0,-5.0,-3.0
1705334540.377682,4.0,32.0,4.0,10.0,-4.0,-2.0,3.0,-3.0
1705334540.377682,-14.0,-21.0,12.0,28.0,3.0,4.0,-7.0,-7.0
1705334540.377682,6.0,18.0,-16.0,-39.0,3.0,-2.0,-2.0,0.0
1705334540.3980196,1.0,-11.0,29.0,-10.0,-2.0,-9.0,-8.0,0.0
1705334540.3980196,-1.0,4.0,4.0,8.0,0.0,2.0,2.0,-2.0
1705334540.3980196,4.0,-15.0,-18.0,-24.0,-12.0,-2.0,-2.0,0.0
1705334540.3980196,-5.0,-27.0,13.0,40.0,5.0,3.0,1.0,-1.0
1705334540.4179423,-5.0,1.0,-27.0,-37.0,-8.0,0.0,-1.0,-3.0
1705334540.4179423,2.0,2.0,19.0,17.0,-1.0,-4.0,3.0,5.0
1705334540.4179423,-5.0,-42.0,-4.0,7.0,3.0,4.0,3.0,-1.0
1705334540.4179423,4.0,20.0,-6.0,-29.0,-8.0,-9.0,-9.0,-3.0
1705334540.4379869,-3.0,-44.0,-7.0,13.0,0.0,-1.0,-2.0,2.0
1705334540.4379869,9.0,11.0,6.0,-19.0,-2.0,-3.0,-6.0,-1.0
1705334540.4379869,-16.0,25.0,-4.0,6.0,3.0,0.0,-1.0,-7.0
1705334540.4379869,4.0,-29.0,11.0,9.0,5.0,6.0,8.0,2.0
1705334540.4576468,-9.0,9.0,-4.0,11.0,6.0,2.0,-2.0,-3.0
1705334540.4576468,0.0,-32.0,-28.0,-9.0,-8.0,-3.0,-2.0,0.0
1705334540.4576468,9.0,8.0,31.0,-2.0,-3.0,1.0,6.0,5.0
1705334540.4576468,0.0,-4.0,3.0,-4.0,1.0,0.0,-7.0,-3.0
1705334540.477831,-3.0,20.0,8.0,18.0,0.0,-3.0,-1.0,2.0
1705334540.477831,-13.0,-17.0,-51.0,-15.0,-3.0,-4.0,-7.0,-10.0
1705334540.477831,-3.0,4.0,19.0,-2.0,-1.0,0.0,-1.0,6.0
1705334540.477831,36.0,-9.0,6.0,12.0,2.0,5.0,11.0,5.0
1705334540.4979875,-17.0,98.0,-6.0,-8.0,-9.0,-12.0,-9.0,-9.0
1705334540.4979875,-5.0,-22.0,7.0,-8.0,1.0,1.0,-3.0,-2.0
1705334540.4979875,-6.0,-4.0,-10.0,-5.0,2.0,-2.0,-3.0,-1.0
1705334540.4979875,-5.0,-19.0,80.0,23.0,4.0,1.0,4.0,1.0
1705334540.517648,9.0,-23.0,-65.0,-1.0,1.0,5.0,2.0,0.0
1705334540.517648,-4.0,23.0,-26.0,-16.0,-8.0,-3.0,-3.0,-2.0
1705334540.517648,-1.0,6.0,4.0,-14.0,-4.0,-14.0,-6.0,1.0
1705334540.517648,-15.0,24.0,5.0,0.0,-1.0,10.0,0.0,-14.0
1705334540.5476465,12.0,-18.0,32.0,26.0,11.0,12.0,9.0,3.0
1705334540.5476465,-4.0,-11.0,-16.0,-16.0,-2.0,-24.0,-15.0,-1.0
1705334540.5476465,12.0,-10.0,-4.0,1.0,-6.0,-7.0,-16.0,0.0
1705334540.5476465,-2.0,-1.0,-1.0,-4.0,-1.0,12.0,5.0,0.0
1705334540.5576513,-6.0,2.0,9.0,0.0,-2.0,0.0,2.0,-2.0
1705334540.5576513,7.0,-29.0,4.0,10.0,4.0,13.0,10.0,4.0
1705334540.5576513,1.0,2.0,-3.0,-5.0,-3.0,-18.0,-4.0,-4.0
1705334540.5576513,-4.0,-4.0,-29.0,-8.0,-5.0,-11.0,-7.0,1.0
1705334540.5776472,6.0,-25.0,7.0,-2.0,1.0,7.0,0.0,0.0
1705334540.5776472,1.0,7.0,8.0,5.0,0.0,-3.0,2.0,0.0
1705334540.5776472,-3.0,13.0,10.0,4.0,0.0,6.0,2.0,-2.0
1705334540.5776472,-5.0,7.0,-20.0,-10.0,-9.0,-7.0,-3.0,0.0
1705334540.5976486,3.0,1.0,-10.0,2.0,1.0,-1.0,3.0,2.0
1705334540.5976486,-2.0,1.0,42.0,7.0,9.0,0.0,-1.0,-3.0
1705334540.5976486,0.0,-9.0,-46.0,13.0,-1.0,5.0,2.0,-1.0
1705334540.5976486,-2.0,-24.0,-46.0,-22.0,-6.0,-6.0,-3.0,-3.0
1705334540.6179173,2.0,0.0,2.0,-10.0,-10.0,-15.0,-7.0,-1.0
1705334540.6179173,-5.0,7.0,2.0,11.0,-11.0,3.0,1.0,-2.0
1705334540.6179173,0.0,-11.0,20.0,-3.0,3.0,9.0,6.0,-3.0
1705334540.6179173,4.0,-22.0,-36.0,-23.0,30.0,2.0,5.0,4.0
1705334540.6376493,3.0,-2.0,37.0,21.0,2.0,3.0,0.0,-1.0
1705334540.6376493,-5.0,18.0,-3.0,-8.0,-10.0,-6.0,-7.0,-4.0
1705334540.6376493,2.0,18.0,-4.0,9.0,-6.0,-1.0,1.0,0.0
1705334540.6376493,5.0,1.0,-8.0,-8.0,-18.0,-8.0,-4.0,-2.0
1705334540.6576507,-5.0,-20.0,26.0,6.0,13.0,4.0,1.0,0.0
1705334540.6576507,6.0,18.0,-8.0,6.0,5.0,6.0,5.0,3.0
1705334540.6576507,-5.0,-2.0,-4.0,-6.0,-6.0,-4.0,-3.0,-3.0
1705334540.6576507,2.0,30.0,0.0,10.0,-3.0,-1.0,-1.0,2.0
1705334540.6776483,0.0,13.0,-20.0,-17.0,-4.0,2.0,0.0,-2.0
1705334540.6776483,-5.0,-11.0,0.0,-9.0,-6.0,-2.0,1.0,-3.0
1705334540.6776483,1.0,4.0,5.0,-1.0,7.0,2.0,-3.0,-4.0
1705334540.6776483,-11.0,-5.0,-4.0,3.0,-2.0,-4.0,-6.0,-7.0
1705334540.697075,4.0,-11.0,4.0,2.0,-3.0,0.0,6.0,4.0
1705334540.697075,-9.0,-13.0,-5.0,-11.0,-9.0,-8.0,-7.0,-13.0
1705334540.6978233,1.0,-37.0,-24.0,-18.0,-3.0,2.0,1.0,9.0
1705334540.6978233,-18.0,-2.0,15.0,9.0,-6.0,-9.0,-8.0,-14.0
1705334540.721598,3.0,22.0,4.0,0.0,-4.0,-8.0,-7.0,4.0
1705334540.721598,-28.0,-2.0,3.0,-5.0,1.0,-14.0,-14.0,-25.0
1705334540.721598,23.0,14.0,-35.0,-6.0,2.0,17.0,11.0,19.0
1705334540.721598,1.0,10.0,2.0,3.0,-6.0,-1.0,1.0,0.0
1705334540.7428405,-6.0,16.0,0.0,-3.0,-2.0,-2.0,-7.0,-4.0
1705334540.7428405,4.0,-19.0,-2.0,3.0,7.0,15.0,9.0,2.0
1705334540.743871,-2.0,17.0,17.0,13.0,0.0,-10.0,-3.0,-1.0
1705334540.743871,-2.0,-7.0,-5.0,-6.0,-2.0,-6.0,-2.0,1.0
1705334540.763533,0.0,-18.0,-7.0,-12.0,-4.0,-2.0,-4.0,-3.0
1705334540.763533,6.0,26.0,-21.0,-1.0,-1.0,-2.0,2.0,7.0
1705334540.7645638,-3.0,-19.0,40.0,5.0,3.0,3.0,1.0,-6.0
1705334540.7645638,7.0,22.0,0.0,6.0,-1.0,6.0,5.0,9.0
1705334540.780984,-4.0,-18.0,-21.0,-10.0,-4.0,-4.0,-2.0,-6.0
1705334540.780984,9.0,-21.0,29.0,14.0,10.0,5.0,4.0,6.0
1705334540.780984,-2.0,53.0,-21.0,-9.0,-5.0,-1.0,1.0,0.0
1705334540.7819421,3.0,5.0,8.0,6.0,-4.0,-5.0,-5.0,-5.0
1705334540.8039038,2.0,-5.0,30.0,12.0,1.0,3.0,1.0,3.0
1705334540.8039038,2.0,-1.0,-33.0,-14.0,0.0,2.0,2.0,4.0
1705334540.8039038,-3.0,-19.0,-28.0,-17.0,-3.0,-6.0,-6.0,-7.0
1705334540.8039038,-2.0,-9.0,-4.0,-5.0,-2.0,-2.0,0.0,-1.0
1705334540.83288,5.0,8.0,0.0,7.0,0.0,0.0,0.0,3.0
1705334540.83388,10.0,0.0,16.0,12.0,3.0,7.0,4.0,6.0
1705334540.834879,-24.0,-28.0,-2.0,11.0,3.0,-2.0,-3.0,-9.0
1705334540.834879,6.0,25.0,63.0,1.0,8.0,7.0,6.0,1.0
1705334540.8408952,-13.0,-19.0,-41.0,-17.0,-5.0,-3.0,-1.0,40.0
1705334540.841885,-4.0,-6.0,-10.0,-11.0,-5.0,-3.0,-3.0,-16.0
1705334540.841885,7.0,-8.0,12.0,3.0,-3.0,-3.0,-3.0,-9.0
1705334540.841885,-5.0,-1.0,-1.0,7.0,-1.0,0.0,0.0,12.0
1705334540.8630488,7.0,-6.0,25.0,2.0,6.0,5.0,2.0,-3.0
1705334540.864089,-7.0,9.0,11.0,16.0,5.0,7.0,2.0,14.0
1705334540.864089,15.0,44.0,7.0,-15.0,-8.0,-10.0,-4.0,9.0
1705334540.864089,-7.0,-10.0,-21.0,7.0,1.0,-7.0,-4.0,-16.0
1705334540.8949525,3.0,2.0,-4.0,-7.0,1.0,11.0,8.0,-2.0
1705334540.8949525,-12.0,-15.0,-6.0,1.0,-2.0,-1.0,-3.0,9.0
1705334540.895951,10.0,-36.0,10.0,2.0,4.0,7.0,-6.0,-24.0
1705334540.895951,8.0,1.0,-3.0,-2.0,-3.0,-1.0,1.0,2.0
1705334540.9004073,2.0,-7.0,13.0,10.0,-3.0,-9.0,-8.0,-10.0
1705334540.9014258,1.0,2.0,-19.0,-5.0,0.0,3.0,4.0,6.0
1705334540.9014258,-8.0,-13.0,-25.0,-12.0,-7.0,-8.0,-6.0,5.0
1705334540.9014258,-2.0,-6.0,6.0,9.0,-6.0,-3.0,-5.0,0.0
1705334540.9232285,-7.0,5.0,-8.0,-8.0,-2.0,1.0,1.0,-13.0
1705334540.9232285,10.0,5.0,48.0,12.0,7.0,5.0,1.0,-1.0
1705334540.9252272,-4.0,-7.0,-8.0,-9.0,0.0,-2.0,0.0,-3.0
1705334540.9252272,-2.0,-21.0,-20.0,-1.0,1.0,-1.0,-4.0,-1.0
1705334540.947255,-5.0,10.0,-6.0,6.0,3.0,-2.0,-4.0,-8.0
1705334540.947255,4.0,4.0,-8.0,-6.0,-4.0,-4.0,-3.0,-3.0
1705334540.947255,-5.0,4.0,20.0,-2.0,-11.0,-5.0,0.0,-2.0
1705334540.947255,-3.0,9.0,-2.0,-7.0,-8.0,-3.0,-1.0,2.0
1705334540.9607058,-4.0,-11.0,-26.0,-5.0,10.0,1.0,2.0,-2.0
1705334540.9607058,4.0,-2.0,9.0,0.0,-2.0,-4.0,-4.0,-2.0
1705334540.9616935,-4.0,-4.0,2.0,10.0,3.0,0.0,-2.0,-1.0
1705334540.9616935,1.0,15.0,14.0,-6.0,-7.0,-2.0,-3.0,0.0
1705334541.004199,-1.0,-4.0,-13.0,-8.0,-7.0,-5.0,-4.0,-7.0
1705334541.004199,5.0,-3.0,-16.0,-7.0,4.0,2.0,1.0,-1.0
1705334541.004199,-5.0,10.0,9.0,-3.0,-6.0,3.0,3.0,0.0
1705334541.004199,-1.0,8.0,23.0,15.0,3.0,0.0,-3.0,0.0
1705334541.004199,-2.0,3.0,-23.0,-5.0,-1.0,-8.0,-6.0,-3.0
1705334541.004199,-3.0,-21.0,-11.0,-11.0,12.0,4.0,3.0,0.0
1705334541.004199,-3.0,0.0,-4.0,-2.0,-5.0,0.0,1.0,2.0
1705334541.004199,-5.0,-12.0,-51.0,-26.0,-4.0,-6.0,-5.0,-6.0
1705334541.0201604,2.0,-1.0,24.0,28.0,3.0,1.0,-1.0,-4.0
1705334541.0201604,1.0,14.0,-8.0,-6.0,-10.0,-4.0,0.0,-3.0
1705334541.0270915,-3.0,5.0,45.0,16.0,1.0,-1.0,-1.0,-3.0
1705334541.0270915,3.0,-1.0,7.0,2.0,1.0,2.0,1.0,0.0
1705334541.0428371,1.0,-6.0,-9.0,-12.0,-11.0,-3.0,1.0,-2.0
1705334541.0428371,0.0,6.0,-21.0,-6.0,-1.0,-2.0,2.0,2.0
1705334541.0438411,-6.0,-2.0,-7.0,-5.0,5.0,0.0,-2.0,-3.0
1705334541.0438411,4.0,-9.0,7.0,2.0,-1.0,0.0,1.0,3.0
1705334541.0588467,-5.0,4.0,5.0,0.0,0.0,-1.0,-4.0,-3.0
1705334541.0588467,2.0,-12.0,-2.0,-8.0,-6.0,-5.0,-7.0,-7.0
1705334541.0655148,-11.0,-6.0,-4.0,3.0,3.0,2.0,6.0,-1.0
1705334541.0655148,-5.0,-37.0,-20.0,-11.0,-3.0,-5.0,-4.0,-7.0
1705334541.0788429,11.0,2.0,5.0,2.0,4.0,8.0,8.0,11.0
1705334541.0795596,-26.0,-1.0,1.0,6.0,-7.0,-27.0,-24.0,-23.0
1705334541.0875187,6.0,1.0,-19.0,-5.0,-3.0,11.0,4.0,5.0
1705334541.0875187,2.0,4.0,0.0,1.0,5.0,7.0,7.0,-16.0
1705334541.1079657,0.0,-7.0,4.0,-3.0,-1.0,16.0,4.0,16.0
1705334541.1079657,5.0,-5.0,18.0,11.0,2.0,1.0,3.0,-25.0
1705334541.1089654,18.0,2.0,-22.0,-7.0,-3.0,-15.0,-11.0,-6.0
1705334541.1089654,-6.0,12.0,2.0,-1.0,1.0,-1.0,-5.0,-3.0
1705334541.125626,-11.0,11.0,-6.0,-5.0,-5.0,-4.0,1.0,-7.0
1705334541.125626,2.0,9.0,4.0,-4.0,-10.0,0.0,4.0,9.0
1705334541.1272664,-7.0,1.0,17.0,2.0,5.0,-2.0,-2.0,-3.0
1705334541.1272664,5.0,-4.0,-3.0,-2.0,-10.0,0.0,1.0,7.0
1705334541.139288,-5.0,-1.0,-8.0,-3.0,0.0,-13.0,-10.0,-7.0
1705334541.139288,2.0,0.0,-2.0,-6.0,2.0,9.0,5.0,10.0
1705334541.1475523,-2.0,-6.0,8.0,5.0,7.0,1.0,1.0,0.0
1705334541.1475523,-1.0,-2.0,11.0,16.0,2.0,0.0,0.0,10.0
1705334541.168559,-5.0,-4.0,0.0,-7.0,-7.0,-2.0,-3.0,-11.0
1705334541.168559,1.0,9.0,4.0,-2.0,-1.0,1.0,2.0,3.0
1705334541.168559,7.0,-11.0,6.0,17.0,1.0,-1.0,-2.0,2.0
1705334541.168559,0.0,13.0,-12.0,-3.0,2.0,-2.0,-1.0,-3.0
1705334541.1854818,-5.0,-7.0,-14.0,-25.0,-6.0,-7.0,-4.0,-6.0
1705334541.1854818,7.0,26.0,3.0,3.0,-1.0,0.0,2.0,8.0
1705334541.1875257,-6.0,-14.0,5.0,5.0,0.0,-1.0,0.0,-1.0
1705334541.1875257,-4.0,11.0,-15.0,7.0,5.0,-1.0,-2.0,0.0
1705334541.200491,5.0,2.0,16.0,7.0,1.0,-2.0,-1.0,-2.0
1705334541.200491,0.0,1.0,-6.0,5.0,-1.0,3.0,0.0,4.0
1705334541.2083445,-5.0,-31.0,-14.0,-13.0,0.0,1.0,1.0,-1.0
1705334541.2083445,2.0,50.0,4.0,-19.0,-7.0,-3.0,-2.0,0.0
1705334541.2309744,0.0,-6.0,8.0,1.0,1.0,-1.0,-2.0,-1.0
1705334541.2309744,2.0,-4.0,-5.0,0.0,0.0,-3.0,-5.0,1.0
1705334541.2309744,-14.0,1.0,-9.0,11.0,1.0,3.0,2.0,-3.0
1705334541.2309744,-2.0,-14.0,24.0,9.0,5.0,4.0,4.0,1.0
1705334541.2462685,-1.0,-2.0,-11.0,3.0,-3.0,-3.0,-1.0,-5.0
1705334541.2462685,6.0,-10.0,6.0,2.0,0.0,-1.0,0.0,5.0
1705334541.247218,-5.0,-5.0,-3.0,-2.0,-1.0,0.0,0.0,-2.0
1705334541.247218,-14.0,16.0,-16.0,-18.0,-4.0,-5.0,-3.0,-4.0
1705334541.259115,2.0,-12.0,-16.0,2.0,-3.0,-2.0,1.0,-2.0
1705334541.2601378,-5.0,-16.0,-7.0,4.0,-3.0,-3.0,-2.0,-1.0
1705334541.2868416,3.0,21.0,22.0,-10.0,1.0,2.0,0.0,8.0
1705334541.2868416,24.0,7.0,-10.0,1.0,0.0,-1.0,-2.0,-1.0
1705334541.2868416,-8.0,-2.0,29.0,10.0,-1.0,-4.0,-4.0,-20.0
1705334541.2868416,7.0,-13.0,-2.0,-2.0,-3.0,-2.0,-3.0,33.0
1705334541.2868416,5.0,-24.0,9.0,0.0,-2.0,1.0,1.0,-6.0
1705334541.2868416,-10.0,-62.0,-27.0,2.0,5.0,4.0,1.0,0.0
1705334541.3065844,-1.0,53.0,1.0,-5.0,-1.0,-2.0,-1.0,4.0
1705334541.3065844,-4.0,6.0,-8.0,-9.0,0.0,-3.0,0.0,-8.0
1705334541.308578,3.0,5.0,3.0,5.0,4.0,2.0,-1.0,1.0
1705334541.308578,2.0,-13.0,23.0,14.0,4.0,0.0,0.0,5.0
1705334541.3200197,0.0,-27.0,20.0,0.0,-3.0,1.0,-1.0,0.0
1705334541.3200197,-13.0,-2.0,-82.0,-21.0,-11.0,-11.0,-6.0,-10.0
1705334541.346821,-3.0,7.0,10.0,-4.0,-7.0,-3.0,-3.0,0.0
1705334541.346821,-2.0,-6.0,0.0,-3.0,1.0,0.0,0.0,-5.0
1705334541.346821,7.0,5.0,11.0,6.0,5.0,3.0,2.0,5.0
1705334541.346821,-1.0,0.0,34.0,12.0,4.0,3.0,3.0,-8.0
1705334541.346821,-2.0,13.0,6.0,-6.0,-4.0,-1.0,1.0,3.0
1705334541.346821,-4.0,3.0,-86.0,-22.0,-9.0,-11.0,-11.0,-4.0
1705334541.3652084,2.0,2.0,-7.0,4.0,4.0,1.0,-2.0,1.0
1705334541.3652084,8.0,-17.0,10.0,1.0,3.0,-3.0,-2.0,3.0
1705334541.3670998,-8.0,3.0,-2.0,4.0,-3.0,2.0,1.0,-5.0
1705334541.3670998,0.0,14.0,51.0,13.0,1.0,5.0,4.0,-5.0
1705334541.379713,3.0,-8.0,-36.0,-14.0,-5.0,1.0,1.0,1.0
1705334541.380487,-12.0,-5.0,-29.0,-21.0,-7.0,-6.0,-8.0,-15.0
1705334541.391485,1.0,-4.0,-12.0,-1.0,1.0,-13.0,-16.0,6.0
1705334541.391485,-10.0,-29.0,28.0,4.0,3.0,14.0,14.0,4.0
1705334541.4032438,25.0,48.0,27.0,8.0,-2.0,-3.0,-2.0,4.0
1705334541.4038515,-18.0,-3.0,11.0,7.0,1.0,4.0,1.0,-8.0
1705334541.4045587,-1.0,3.0,-9.0,7.0,-3.0,-3.0,-1.0,-4.0
1705334541.4045587,-3.0,-8.0,-25.0,-14.0,-5.0,-9.0,-9.0,-1.0
1705334541.427552,-11.0,-35.0,6.0,-8.0,0.0,-5.0,-3.0,-1.0
1705334541.427552,1.0,5.0,17.0,6.0,1.0,5.0,3.0,-2.0
1705334541.427552,2.0,17.0,-6.0,19.0,-3.0,-3.0,-1.0,-2.0
1705334541.427552,-3.0,-3.0,-8.0,-5.0,3.0,-1.0,-3.0,-3.0
1705334541.439563,-6.0,-9.0,-1.0,-8.0,-7.0,2.0,1.0,-4.0
1705334541.439563,5.0,11.0,8.0,-10.0,3.0,-3.0,-4.0,0.0
1705334541.4465554,-2.0,-6.0,5.0,14.0,-4.0,-1.0,0.0,-1.0
1705334541.4465554,6.0,13.0,5.0,-5.0,-9.0,-1.0,0.0,2.0
1705334541.4628534,-3.0,-5.0,-13.0,9.0,17.0,4.0,4.0,-1.0
1705334541.4628534,-2.0,5.0,21.0,19.0,-2.0,0.0,0.0,0.0
1705334541.464658,1.0,-7.0,-1.0,-1.0,0.0,-2.0,2.0,1.0
1705334541.464658,2.0,7.0,-11.0,-26.0,-9.0,-2.0,-1.0,1.0
1705334541.4856532,-1.0,-3.0,-20.0,-37.0,-7.0,-5.0,-6.0,-1.0
1705334541.4856532,2.0,-31.0,5.0,15.0,4.0,3.0,4.0,0.0
1705334541.4866157,1.0,6.0,8.0,-2.0,8.0,5.0,3.0,0.0
1705334541.4866157,-2.0,6.0,-4.0,10.0,-3.0,-5.0,-4.0,-1.0
1705334541.498913,-6.0,-1.0,-1.0,-12.0,-8.0,-3.0,-5.0,-2.0
1705334541.498913,3.0,4.0,-3.0,7.0,-3.0,3.0,1.0,0.0
1705334541.5097058,-3.0,0.0,-1.0,-11.0,1.0,1.0,2.0,-3.0
1705334541.5097058,6.0,-7.0,3.0,4.0,3.0,-2.0,-3.0,0.0
1705334541.523694,-2.0,1.0,22.0,21.0,2.0,0.0,-1.0,0.0
1705334541.523694,-1.0,2.0,-13.0,-11.0,-1.0,1.0,0.0,-4.0
1705334541.5246644,0.0,4.0,-13.0,-11.0,-1.0,-2.0,-4.0,0.0
1705334541.5246644,-3.0,1.0,-9.0,-4.0,-1.0,0.0,-1.0,0.0
1705334541.5460043,-5.0,5.0,-12.0,-6.0,-8.0,0.0,1.0,-1.0
1705334541.5460043,0.0,11.0,62.0,14.0,2.0,2.0,3.0,0.0
1705334541.5470052,1.0,-26.0,-17.0,-2.0,10.0,0.0,-2.0,-4.0
1705334541.5470052,-7.0,-38.0,-71.0,-30.0,-11.0,-10.0,-7.0,-4.0
1705334541.560034,2.0,16.0,28.0,10.0,0.0,-2.0,-2.0,2.0
1705334541.560034,-1.0,17.0,-10.0,-4.0,-4.0,0.0,-3.0,0.0
1705334541.560034,-2.0,37.0,4.0,-10.0,-10.0,-1.0,1.0,-1.0
1705334541.560034,-2.0,-10.0,29.0,22.0,8.0,5.0,4.0,3.0
1705334541.5800543,-2.0,-14.0,-28.0,1.0,0.0,-2.0,-2.0,-1.0
1705334541.5800543,0.0,-8.0,-8.0,-9.0,-4.0,-4.0,-3.0,0.0
1705334541.5800543,0.0,-14.0,2.0,-5.0,-2.0,0.0,0.0,-2.0
1705334541.5800543,1.0,10.0,15.0,3.0,0.0,0.0,1.0,-1.0
1705334541.6000655,-2.0,-2.0,-3.0,1.0,-1.0,-2.0,-1.0,-3.0
1705334541.6000655,1.0,11.0,0.0,-3.0,0.0,-3.0,0.0,0.0
1705334541.6000655,-2.0,3.0,-8.0,-8.0,-3.0,-1.0,-4.0,-3.0
1705334541.6000655,-4.0,12.0,15.0,0.0,2.0,0.0,-1.0,-1.0
1705334541.6103728,0.0,-9.0,-2.0,3.0,-1.0,0.0,0.0,2.0
1705334541.6200726,-1.0,-3.0,-6.0,-5.0,-1.0,0.0,-1.0,-2.0
1705334541.6200726,-1.0,1.0,-12.0,-8.0,-2.0,-2.0,0.0,0.0
1705334541.6200726,-5.0,7.0,14.0,10.0,0.0,-3.0,1.0,-4.0
1705334541.6404474,1.0,-7.0,3.0,4.0,0.0,3.0,1.0,-1.0
1705334541.6404474,-1.0,9.0,-2.0,-3.0,-3.0,-3.0,-2.0,0.0
1705334541.6404474,-2.0,-12.0,-12.0,-13.0,-7.0,-5.0,-8.0,-3.0
1705334541.6404474,7.0,6.0,19.0,5.0,4.0,2.0,0.0,1.0
1705334541.6600673,-3.0,10.0,4.0,24.0,7.0,2.0,-1.0,-1.0
1705334541.6600673,-1.0,-1.0,28.0,-1.0,0.0,-1.0,-1.0,1.0
1705334541.6600673,1.0,1.0,-28.0,-6.0,-4.0,0.0,-1.0,-1.0
1705334541.6600673,-7.0,-8.0,-12.0,-37.0,-6.0,-7.0,-6.0,-5.0
1705334541.6800714,6.0,0.0,0.0,4.0,-1.0,2.0,2.0,1.0
1705334541.6800714,-2.0,17.0,-5.0,5.0,0.0,-2.0,0.0,-2.0
1705334541.6800714,-1.0,-2.0,20.0,15.0,2.0,4.0,3.0,1.0
1705334541.6800714,4.0,14.0,14.0,11.0,0.0,2.0,0.0,0.0
1705334541.7000759,-4.0,-1.0,-2.0,-7.0,-7.0,-3.0,-2.0,-4.0
1705334541.7000759,-1.0,-6.0,-5.0,-3.0,-2.0,2.0,0.0,-2.0
1705334541.7000759,3.0,-15.0,-2.0,3.0,1.0,2.0,2.0,3.0
1705334541.7000759,-4.0,6.0,-15.0,-13.0,-5.0,-1.0,-3.0,0.0
1705334541.7300649,-4.0,-10.0,5.0,-6.0,-1.0,-2.0,-4.0,-5.0
1705334541.7300649,-1.0,-20.0,-15.0,-2.0,0.0,0.0,-2.0,-2.0
1705334541.7300649,0.0,1.0,2.0,1.0,-1.0,0.0,0.0,-1.0
1705334541.7300649,0.0,-10.0,5.0,9.0,0.0,-2.0,0.0,-2.0
1705334541.7300649,7.0,33.0,12.0,-4.0,-4.0,-4.0,-4.0,0.0
1705334541.7300649,-13.0,-8.0,-16.0,-7.0,-3.0,-1.0,-2.0,-5.0
1705334541.740351,-9.0,-27.0,-12.0,-4.0,-1.0,-2.0,-2.0,-6.0
1705334541.740351,1.0,0.0,29.0,16.0,0.0,-2.0,0.0,1.0
1705334541.760486,-9.0,-45.0,-40.0,-9.0,1.0,2.0,2.0,-3.0
1705334541.760486,10.0,29.0,12.0,0.0,1.0,1.0,2.0,3.0
1705334541.760486,5.0,-44.0,39.0,8.0,0.0,-2.0,0.0,4.0
1705334541.760486,-10.0,23.0,-43.0,-7.0,-5.0,-5.0,-4.0,-10.0
1705334541.780065,-13.0,39.0,-6.0,-12.0,-6.0,-3.0,-1.0,-2.0
1705334541.780065,2.0,-9.0,-3.0,-3.0,1.0,1.0,-4.0,-1.0
1705334541.780065,1.0,-16.0,-5.0,9.0,2.0,2.0,1.0,2.0
1705334541.780065,3.0,-5.0,41.0,14.0,1.0,4.0,2.0,1.0
1705334541.7900915,3.0,5.0,6.0,-6.0,-5.0,0.0,0.0,1.0
1705334541.800074,5.0,-39.0,-5.0,-5.0,-2.0,0.0,1.0,0.0
1705334541.800074,-6.0,79.0,24.0,5.0,4.0,3.0,2.0,-1.0
1705334541.800074,0.0,6.0,-20.0,-4.0,-2.0,-6.0,-3.0,-2.0
1705334541.8200676,-2.0,-18.0,-10.0,-3.0,-2.0,-3.0,0.0,0.0
1705334541.8200676,1.0,-14.0,-5.0,-4.0,-2.0,0.0,-1.0,0.0
1705334541.8200676,-5.0,-43.0,6.0,5.0,-1.0,-3.0,-4.0,-2.0
1705334541.8200676,2.0,11.0,-27.0,-10.0,-7.0,-5.0,-4.0,-1.0
1705334541.8403957,0.0,3.0,11.0,1.0,-1.0,-1.0,-2.0,-3.0
1705334541.8403957,3.0,-6.0,-4.0,6.0,3.0,3.0,1.0,1.0
1705334541.8403957,-2.0,42.0,-2.0,-14.0,-6.0,-4.0,-4.0,-4.0
1705334541.8403957,-4.0,0.0,4.0,2.0,1.0,-1.0,-1.0,0.0
1705334541.8503828,1.0,-48.0,-19.0,-1.0,0.0,-4.0,-2.0,-2.0
1705334541.860074,-5.0,-23.0,5.0,10.0,-1.0,3.0,1.0,-1.0
1705334541.860074,1.0,66.0,-11.0,-19.0,-3.0,-5.0,-5.0,-3.0
1705334541.860074,-4.0,13.0,12.0,5.0,-1.0,-2.0,-3.0,1.0
1705334541.8892763,9.0,13.0,5.0,-7.0,-1.0,-2.0,-3.0,0.0
1705334541.8892763,-2.0,-3.0,5.0,2.0,-2.0,-1.0,-1.0,0.0
1705334541.8892763,-1.0,-28.0,-16.0,-7.0,-5.0,-5.0,-3.0,0.0
1705334541.8892763,4.0,-17.0,0.0,4.0,0.0,2.0,4.0,4.0
1705334541.9063091,-1.0,-12.0,2.0,13.0,6.0,4.0,6.0,0.0
1705334541.9063091,2.0,14.0,7.0,-4.0,3.0,-1.0,-1.0,0.0
1705334541.9063091,-1.0,-9.0,-23.0,-5.0,-3.0,-1.0,0.0,-2.0
1705334541.9063091,3.0,-21.0,1.0,3.0,1.0,-1.0,0.0,-1.0
1705334541.9167173,-8.0,19.0,3.0,4.0,0.0,0.0,-1.0,-2.0
1705334541.9167173,-3.0,34.0,10.0,-12.0,-11.0,-4.0,-3.0,-2.0
1705334541.92664,3.0,-10.0,5.0,-12.0,0.0,2.0,2.0,1.0
1705334541.92664,-7.0,-22.0,-7.0,11.0,9.0,1.0,0.0,-1.0
1705334541.9463112,-1.0,3.0,10.0,16.0,3.0,-1.0,-2.0,1.0
1705334541.9463112,-2.0,-14.0,-71.0,-12.0,-4.0,-2.0,-4.0,-2.0
1705334541.9463112,5.0,19.0,20.0,-13.0,-8.0,-4.0,-3.0,-1.0
1705334541.9463112,2.0,-11.0,-3.0,-20.0,-5.0,2.0,1.0,1.0
1705334541.956636,-5.0,-6.0,23.0,5.0,-3.0,-3.0,-6.0,-5.0
1705334541.9663134,6.0,42.0,17.0,9.0,6.0,-2.0,-2.0,-1.0
1705334541.9663134,-1.0,-20.0,-17.0,7.0,-1.0,1.0,3.0,-1.0
1705334541.9663134,0.0,-19.0,14.0,2.0,2.0,1.0,1.0,-2.0
1705334541.9766872,0.0,18.0,-15.0,-4.0,0.0,0.0,-1.0,0.0
1705334541.9766872,-4.0,-9.0,-3.0,-6.0,-4.0,-3.0,-1.0,0.0
1705334541.986651,-4.0,15.0,8.0,-1.0,0.0,-2.0,-2.0,-1.0
1705334541.986651,0.0,2.0,12.0,7.0,1.0,1.0,0.0,-1.0
1705334542.0063124,0.0,-13.0,-24.0,-6.0,-3.0,-1.0,0.0,-1.0
1705334542.0063124,-3.0,-10.0,29.0,0.0,-3.0,-6.0,-2.0,-4.0
1705334542.0063124,-4.0,-17.0,-14.0,0.0,-1.0,-2.0,-2.0,-1.0
1705334542.0063124,-1.0,42.0,-3.0,-5.0,-4.0,-1.0,-4.0,1.0
1705334542.016624,0.0,-19.0,-3.0,-1.0,0.0,-1.0,-2.0,-3.0
1705334542.016624,-2.0,-1.0,17.0,-6.0,-2.0,-2.0,-3.0,-1.0
1705334542.026316,5.0,-2.0,13.0,10.0,0.0,0.0,1.0,0.0
1705334542.026316,0.0,-28.0,5.0,4.0,1.0,2.0,0.0,-2.0
1705334542.0463138,2.0,29.0,-4.0,-8.0,-3.0,-1.0,0.0,1.0
1705334542.0463138,-2.0,-6.0,-5.0,5.0,1.0,-4.0,0.0,-1.0
1705334542.0463138,-1.0,7.0,-4.0,6.0,-2.0,-3.0,0.0,0.0
1705334542.0463138,-2.0,-3.0,-3.0,-6.0,-5.0,1.0,-4.0,-4.0
1705334542.0563462,0.0,-4.0,5.0,-7.0,1.0,-2.0,-1.0,1.0
1705334542.0563462,0.0,-11.0,-17.0,-9.0,-1.0,-2.0,-2.0,-2.0
1705334542.0563462,-5.0,-20.0,-1.0,6.0,1.0,-1.0,-1.0,-3.0
1705334542.0563462,-5.0,18.0,7.0,5.0,0.0,-1.0,1.0,-2.0
1705334542.076732,2.0,1.0,-14.0,-1.0,-3.0,-1.0,1.0,1.0
1705334542.0863168,-1.0,-15.0,-4.0,-4.0,-2.0,1.0,2.0,1.0
1705334542.0863168,-4.0,58.0,14.0,4.0,-3.0,-2.0,-4.0,-2.0
1705334542.0863168,3.0,-3.0,26.0,2.0,-1.0,-1.0,-1.0,1.0
1705334542.1066487,3.0,-36.0,-7.0,-5.0,0.0,-1.0,0.0,-1.0
1705334542.1066487,-5.0,33.0,-19.0,-4.0,0.0,-1.0,0.0,-2.0
1705334542.1066487,-1.0,-3.0,-2.0,0.0,-2.0,-1.0,-2.0,-2.0
1705334542.1066487,0.0,4.0,0.0,-3.0,-6.0,-1.0,0.0,0.0
1705334542.1263118,-2.0,-9.0,20.0,8.0,1.0,0.0,-3.0,-1.0
1705334542.1263118,-4.0,-30.0,-39.0,-10.0,1.0,0.0,0.0,-1.0
1705334542.1263118,-5.0,17.0,4.0,-16.0,-3.0,-2.0,-3.0,-5.0
1705334542.1263118,-1.0,-13.0,25.0,12.0,1.0,-5.0,-6.0,-3.0
1705334542.1365855,1.0,23.0,-5.0,0.0,-3.0,-1.0,0.0,-1.0
1705334542.1365855,-3.0,-24.0,5.0,8.0,-1.0,0.0,-1.0,-1.0
1705334542.1463137,3.0,-14.0,-22.0,-5.0,-1.0,-1.0,0.0,1.0
1705334542.1463137,-2.0,6.0,-19.0,-9.0,-2.0,0.0,0.0,-1.0
1705334542.1663105,2.0,-27.0,-6.0,-2.0,-2.0,-3.0,0.0,0.0
1705334542.1663105,-8.0,28.0,21.0,3.0,-3.0,-2.0,-3.0,-1.0
1705334542.1663105,-2.0,-28.0,-19.0,-9.0,-1.0,0.0,0.0,-1.0
1705334542.1663105,-2.0,-10.0,-5.0,0.0,0.0,-1.0,-1.0,0.0
1705334542.1763103,0.0,1.0,6.0,-5.0,-2.0,-2.0,-2.0,-1.0
1705334542.1763103,1.0,-17.0,-8.0,-3.0,-3.0,1.0,-1.0,-2.0
1705334542.1866446,5.0,22.0,59.0,24.0,8.0,4.0,1.0,3.0
1705334542.1866446,2.0,0.0,-63.0,-5.0,0.0,1.0,1.0,-1.0
1705334542.1966953,-7.0,-9.0,-31.0,-21.0,-6.0,-6.0,-2.0,0.0
1705334542.206315,6.0,-15.0,10.0,2.0,-3.0,-1.0,-1.0,1.0
1705334542.206315,5.0,5.0,15.0,5.0,-1.0,4.0,0.0,-5.0
1705334542.206315,-13.0,8.0,8.0,-1.0,1.0,-2.0,-3.0,-5.0
1705334542.2263155,3.0,1.0,5.0,4.0,1.0,-3.0,-2.0,34.0
1705334542.2263155,0.0,1.0,-15.0,-4.0,-2.0,-2.0,-4.0,-35.0
1705334542.2263155,-6.0,-30.0,-6.0,1.0,-2.0,-3.0,-2.0,0.0
1705334542.2263155,4.0,-4.0,-6.0,-4.0,-2.0,-2.0,0.0,2.0
1705334542.2363455,-7.0,-20.0,-7.0,-6.0,-3.0,4.0,3.0,-1.0
1705334542.2363455,-2.0,9.0,19.0,4.0,3.0,2.0,3.0,8.0
1705334542.2466424,-2.0,-15.0,-11.0,-3.0,-5.0,-10.0,-8.0,-2.0
1705334542.2466424,3.0,-1.0,7.0,1.0,0.0,1.0,0.0,-4.0
1705334542.2566864,-7.0,0.0,-16.0,0.0,-1.0,0.0,-1.0,-11.0
1705334542.2566864,5.0,26.0,15.0,2.0,-2.0,-2.0,1.0,6.0
1705334542.2663145,-7.0,-23.0,-33.0,-12.0,-4.0,2.0,0.0,-8.0
1705334542.2663145,-3.0,-15.0,11.0,-5.0,-5.0,0.0,0.0,4.0
1705334542.2866836,3.0,15.0,30.0,18.0,8.0,0.0,0.0,-10.0
1705334542.2866836,-6.0,-4.0,-19.0,-1.0,8.0,1.0,-3.0,2.0
1705334542.2866836,3.0,0.0,-21.0,-15.0,-4.0,-2.0,-1.0,6.0
1705334542.2866836,7.0,-18.0,-13.0,-10.0,7.0,6.0,3.0,3.0
1705334542.2963135,1.0,23.0,62.0,6.0,-2.0,-2.0,-2.0,-4.0
1705334542.2963135,-2.0,1.0,-4.0,10.0,-9.0,-10.0,-6.0,0.0
1705334542.3065815,-5.0,6.0,24.0,-8.0,-1.0,-3.0,-1.0,-3.0
1705334542.3065815,2.0,-4.0,-52.0,7.0,5.0,2.0,-2.0,-2.0
1705334542.3166585,0.0,19.0,11.0,-19.0,-10.0,4.0,2.0,-6.0
1705334542.3166585,-5.0,-10.0,-25.0,-14.0,1.0,-5.0,-1.0,3.0
1705334542.3263109,1.0,-15.0,-1.0,27.0,12.0,4.0,3.0,1.0
1705334542.3263109,0.0,10.0,54.0,5.0,-9.0,-5.0,-1.0,-2.0
1705334542.3463104,-9.0,-8.0,3.0,17.0,-8.0,-13.0,-11.0,-4.0
1705334542.3463104,-1.0,5.0,23.0,-3.0,-6.0,-5.0,-6.0,0.0
1705334542.3463104,4.0,-4.0,-22.0,-4.0,-1.0,3.0,0.0,3.0
1705334542.3463104,-1.0,-1.0,-3.0,-11.0,4.0,3.0,5.0,2.0
1705334542.3566785,-4.0,-22.0,-18.0,-7.0,2.0,3.0,0.0,-3.0
1705334542.3566785,-2.0,-15.0,-4.0,-9.0,-6.0,-2.0,-1.0,0.0
1705334542.3666186,-1.0,-7.0,-3.0,-1.0,-1.0,-4.0,-2.0,-3.0
1705334542.3666186,-4.0,-5.0,1.0,-4.0,-1.0,1.0,-2.0,-1.0
1705334542.3766496,0.0,14.0,-6.0,-3.0,-1.0,-4.0,0.0,-3.0
1705334542.3863177,0.0,3.0,-7.0,-2.0,0.0,1.0,2.0,2.0
1705334542.3863177,-3.0,-1.0,-2.0,-6.0,-1.0,0.0,0.0,0.0
1705334542.3863177,-3.0,6.0,8.0,5.0,-6.0,-6.0,-3.0,-2.0
1705334542.4082947,0.0,-5.0,-10.0,5.0,5.0,1.0,-1.0,-2.0
1705334542.4082947,0.0,-9.0,6.0,0.0,4.0,2.0,0.0,0.0
1705334542.4093428,-3.0,-7.0,2.0,2.0,0.0,0.0,1.0,-1.0
1705334542.4102914,-1.0,2.0,5.0,-2.0,-7.0,-6.0,-5.0,-3.0
1705334542.4224873,1.0,3.0,-22.0,-11.0,-3.0,1.0,-1.0,-1.0
1705334542.4224873,-1.0,1.0,5.0,7.0,7.0,1.0,1.0,1.0
1705334542.4310784,-4.0,-1.0,6.0,-3.0,-2.0,-1.0,-2.0,-1.0
1705334542.4310784,-1.0,-2.0,-5.0,1.0,0.0,-1.0,-2.0,-2.0
1705334542.4491162,1.0,-13.0,-1.0,-1.0,1.0,1.0,1.0,-1.0
1705334542.4491162,1.0,5.0,-5.0,0.0,-4.0,1.0,3.0,1.0
1705334542.4491162,-3.0,-4.0,-9.0,-6.0,-5.0,-3.0,-3.0,-4.0
1705334542.4491162,-2.0,-3.0,8.0,0.0,2.0,-3.0,-4.0,-1.0
1705334542.4691544,-3.0,1.0,-11.0,4.0,-1.0,1.0,2.0,-2.0
1705334542.4691544,1.0,-3.0,18.0,-5.0,1.0,0.0,-3.0,-2.0
1705334542.4691544,-1.0,-4.0,-14.0,-1.0,3.0,4.0,4.0,1.0
1705334542.4691544,0.0,1.0,20.0,4.0,-3.0,-6.0,-4.0,-2.0
1705334542.4791212,-2.0,5.0,-13.0,1.0,-2.0,-5.0,-6.0,1.0
1705334542.4791212,-1.0,4.0,-14.0,-6.0,-3.0,-1.0,-1.0,-1.0
1705334542.4891891,-2.0,10.0,3.0,-2.0,-2.0,-1.0,-1.0,-3.0
1705334542.4891891,2.0,-13.0,2.0,0.0,-1.0,0.0,0.0,-1.0
1705334542.5062737,-2.0,16.0,-2.0,-3.0,-2.0,-1.0,0.0,-2.0
1705334542.5062737,0.0,-9.0,2.0,3.0,-1.0,-2.0,0.0,-2.0
1705334542.5062737,-1.0,3.0,12.0,-6.0,-2.0,-3.0,-1.0,0.0
1705334542.5062737,1.0,-17.0,-6.0,5.0,3.0,4.0,2.0,-1.0
1705334542.5262725,-1.0,-28.0,-4.0,0.0,0.0,-1.0,-1.0,-1.0
1705334542.5262725,1.0,30.0,-6.0,-1.0,-3.0,-2.0,-1.0,-2.0
1705334542.5262725,-11.0,-16.0,1.0,3.0,-2.0,-5.0,-2.0,-2.0
1705334542.5262725,-1.0,20.0,-8.0,-7.0,-5.0,-8.0,-4.0,-1.0
1705334542.5365367,1.0,-36.0,-6.0,-7.0,1.0,1.0,-1.0,-3.0
1705334542.5365367,-4.0,-2.0,-3.0,8.0,1.0,3.0,1.0,0.0
1705334542.5465674,3.0,-4.0,14.0,-12.0,-1.0,1.0,2.0,0.0
1705334542.5465674,-4.0,-2.0,12.0,6.0,2.0,-3.0,-4.0,-2.0
1705334542.5562735,2.0,5.0,-10.0,-6.0,-2.0,0.0,-1.0,0.0
1705334542.5562735,-4.0,-13.0,5.0,-1.0,-2.0,-2.0,0.0,0.0
1705334542.5662699,2.0,-7.0,2.0,7.0,0.0,-2.0,-1.0,-2.0
1705334542.5662699,-1.0,13.0,-2.0,-6.0,-1.0,2.0,1.0,1.0
1705334542.5866892,0.0,2.0,12.0,2.0,1.0,0.0,0.0,-2.0
1705334542.5866892,-2.0,-9.0,7.0,1.0,1.0,-1.0,1.0,1.0
1705334542.5866892,-5.0,-32.0,-15.0,9.0,0.0,4.0,2.0,0.0
1705334542.5866892,-4.0,52.0,2.0,-5.0,-2.0,-5.0,-4.0,-2.0
1705334542.596561,-1.0,-12.0,3.0,-1.0,-3.0,-4.0,-5.0,0.0
1705334542.596561,1.0,-4.0,1.0,13.0,5.0,0.0,0.0,0.0
1705334542.606571,7.0,-14.0,0.0,-6.0,0.0,1.0,-2.0,0.0
1705334542.606571,-13.0,-30.0,2.0,1.0,1.0,4.0,6.0,0.0
1705334542.6166158,-8.0,47.0,-28.0,-11.0,-5.0,-4.0,-3.0,-3.0
1705334542.6166158,2.0,-11.0,4.0,-6.0,-6.0,-5.0,-5.0,0.0
1705334542.6266284,0.0,7.0,-10.0,4.0,-1.0,-1.0,-1.0,1.0
1705334542.6266284,5.0,-25.0,3.0,5.0,3.0,2.0,-1.0,-1.0
1705334542.646902,0.0,-6.0,30.0,3.0,2.0,0.0,1.0,-2.0
1705334542.646902,-3.0,0.0,3.0,-1.0,0.0,0.0,-2.0,-1.0
1705334542.646902,0.0,7.0,-24.0,-5.0,-3.0,-3.0,-3.0,-1.0
1705334542.646902,-9.0,-15.0,-16.0,-11.0,-7.0,-8.0,-6.0,-5.0
1705334542.6666276,0.0,-42.0,-7.0,0.0,1.0,4.0,2.0,1.0
1705334542.6666276,-15.0,30.0,0.0,-4.0,-8.0,-15.0,-13.0,-7.0
1705334542.6666276,-4.0,20.0,7.0,1.0,-1.0,-11.0,-9.0,-7.0
1705334542.6666276,12.0,-27.0,-13.0,-3.0,0.0,20.0,9.0,23.0
1705334542.6768932,-30.0,24.0,35.0,3.0,-2.0,-10.0,-10.0,-16.0
1705334542.6866355,14.0,-17.0,-3.0,-2.0,-2.0,17.0,10.0,-10.0
1705334542.6866355,4.0,14.0,-3.0,0.0,-3.0,-17.0,-14.0,0.0
1705334542.6866355,-6.0,-10.0,-31.0,1.0,4.0,0.0,-3.0,-21.0
1705334542.7069302,1.0,10.0,38.0,6.0,1.0,3.0,8.0,12.0
1705334542.7069302,-4.0,5.0,-77.0,-16.0,-7.0,-11.0,-12.0,5.0
1705334542.7069302,-11.0,11.0,-19.0,-9.0,0.0,-3.0,-1.0,-18.0
1705334542.7069302,15.0,3.0,5.0,6.0,1.0,-1.0,2.0,15.0
1705334542.7366269,-9.0,7.0,35.0,3.0,-1.0,0.0,-2.0,-5.0
1705334542.7366269,-1.0,-29.0,-36.0,0.0,1.0,-5.0,-3.0,-15.0
1705334542.7366269,-4.0,48.0,19.0,1.0,-3.0,4.0,4.0,6.0
1705334542.7366269,-3.0,-19.0,-4.0,-5.0,-3.0,-2.0,-1.0,-1.0
1705334542.7366269,5.0,-12.0,-16.0,-3.0,-2.0,-2.0,-1.0,-1.0
1705334542.7366269,-4.0,3.0,30.0,3.0,-1.0,3.0,4.0,5.0
1705334542.7466354,4.0,-12.0,-16.0,0.0,0.0,6.0,4.0,7.0
1705334542.7466354,-3.0,17.0,16.0,-16.0,-10.0,-9.0,-7.0,-1.0
1705334542.7669628,3.0,0.0,-19.0,7.0,0.0,-2.0,-1.0,-6.0
1705334542.7669628,4.0,-21.0,4.0,17.0,11.0,3.0,4.0,7.0
1705334542.7669628,0.0,-18.0,5.0,3.0,5.0,6.0,1.0,2.0
1705334542.7669628,-3.0,14.0,11.0,8.0,-2.0,-5.0,0.0,-11.0
1705334542.7866292,6.0,-11.0,-27.0,-14.0,-5.0,1.0,0.0,4.0
1705334542.7866292,-2.0,1.0,-1.0,-35.0,-6.0,-1.0,1.0,4.0
1705334542.7866292,0.0,-5.0,8.0,0.0,-6.0,0.0,2.0,0.0
1705334542.7866292,-4.0,1.0,5.0,14.0,1.0,-6.0,-4.0,-2.0
1705334542.796639,6.0,-10.0,-14.0,9.0,6.0,1.0,-1.0,0.0
1705334542.796639,-2.0,5.0,41.0,8.0,-8.0,-5.0,-3.0,-1.0
1705334542.8066308,0.0,-8.0,-48.0,-13.0,-5.0,-1.0,0.0,-5.0
1705334542.8066308,1.0,-6.0,-20.0,-14.0,-3.0,-1.0,0.0,-1.0
1705334542.8270895,2.0,0.0,-6.0,6.0,10.0,2.0,-2.0,2.0
1705334542.8270895,0.0,1.0,7.0,-15.0,-3.0,1.0,2.0,-5.0
1705334542.8270895,-1.0,-20.0,-5.0,-14.0,-8.0,-3.0,-2.0,2.0
1705334542.8270895,-4.0,4.0,1.0,6.0,-6.0,-2.0,-1.0,-3.0
1705334542.837004,-1.0,3.0,0.0,-5.0,0.0,-1.0,-2.0,-2.0
1705334542.837004,0.0,3.0,9.0,10.0,3.0,2.0,1.0,1.0
1705334542.846644,1.0,-4.0,16.0,12.0,2.0,2.0,1.0,1.0
1705334542.846644,-2.0,0.0,-14.0,7.0,3.0,1.0,-1.0,-1.0
1705334542.8566284,3.0,-5.0,2.0,-5.0,-3.0,-5.0,-1.0,-2.0
1705334542.8566284,-1.0,4.0,4.0,4.0,-3.0,1.0,0.0,0.0
1705334542.8666296,-2.0,-2.0,7.0,-2.0,0.0,1.0,-2.0,0.0
1705334542.8666296,0.0,2.0,1.0,-8.0,-4.0,-2.0,1.0,-3.0
1705334542.8870444,0.0,-6.0,-5.0,-1.0,-3.0,0.0,0.0,0.0
1705334542.8870444,0.0,-4.0,-3.0,6.0,1.0,-1.0,-1.0,2.0
1705334542.8870444,-1.0,-1.0,8.0,-1.0,0.0,-2.0,1.0,0.0
1705334542.8870444,0.0,-2.0,-3.0,-1.0,0.0,0.0,-3.0,-2.0
1705334542.8966303,2.0,1.0,-11.0,-2.0,-4.0,0.0,2.0,1.0
1705334542.8966303,-1.0,-1.0,19.0,5.0,-5.0,-2.0,0.0,0.0
1705334542.908891,-3.0,-2.0,4.0,1.0,9.0,2.0,0.0,-4.0
1705334542.908891,1.0,-13.0,-1.0,-19.0,3.0,3.0,1.0,1.0
1705334542.9173732,1.0,6.0,26.0,3.0,-8.0,-7.0,-6.0,-2.0
1705334542.9173732,-1.0,1.0,-20.0,0.0,5.0,1.0,1.0,-2.0
1705334542.9272847,-2.0,-5.0,-29.0,-10.0,-10.0,-8.0,-4.0,-2.0
1705334542.9272847,-2.0,-1.0,-1.0,7.0,-5.0,-4.0,-2.0,0.0
1705334542.9488351,-2.0,-1.0,4.0,1.0,3.0,-1.0,0.0,0.0
1705334542.9488351,-2.0,2.0,13.0,-2.0,-2.0,-1.0,-1.0,-2.0
1705334542.9488351,1.0,4.0,13.0,5.0,0.0,1.0,2.0,0.0
1705334542.9488351,-1.0,-1.0,-12.0,2.0,-1.0,-5.0,-3.0,-2.0
1705334542.9688385,0.0,-1.0,3.0,-3.0,-2.0,0.0,1.0,0.0
1705334542.9688385,0.0,-2.0,-8.0,-1.0,2.0,0.0,-2.0,-1.0
1705334542.9718132,-3.0,-11.0,-17.0,-2.0,-3.0,-2.0,-1.0,-1.0
1705334542.972815,0.0,0.0,39.0,8.0,1.0,-4.0,-3.0,-2.0
1705334542.9856315,-1.0,7.0,40.0,2.0,0.0,2.0,2.0,2.0
1705334542.986655,-2.0,2.0,-48.0,-21.0,-3.0,-2.0,-5.0,-3.0
1705334542.9876494,1.0,3.0,4.0,-1.0,-4.0,-21.0,-19.0,-5.0
1705334542.9876494,5.0,24.0,9.0,1.0,-2.0,1.0,7.0,-4.0
1705334543.0275505,-5.0,-6.0,8.0,8.0,5.0,36.0,14.0,31.0
1705334543.0275505,-14.0,-7.0,6.0,2.0,3.0,9.0,3.0,-16.0
1705334543.0275505,5.0,-2.0,11.0,-1.0,-2.0,-4.0,6.0,15.0
1705334543.0275505,-4.0,-7.0,-8.0,-1.0,-2.0,-6.0,-4.0,-3.0
1705334543.0275505,-5.0,-7.0,-32.0,-7.0,-6.0,-17.0,-8.0,-8.0
1705334543.0275505,2.0,-3.0,8.0,-3.0,-1.0,-5.0,1.0,6.0
1705334543.0375614,-10.0,-2.0,-23.0,-9.0,-5.0,1.0,0.0,-5.0
1705334543.0375614,1.0,19.0,22.0,19.0,-9.0,-3.0,-5.0,-2.0
1705334543.0375614,-1.0,-7.0,-16.0,-1.0,5.0,-3.0,-1.0,-7.0
1705334543.0375614,1.0,-9.0,18.0,14.0,11.0,5.0,1.0,4.0
1705334543.047563,1.0,-17.0,-48.0,-8.0,2.0,-3.0,-2.0,-8.0
1705334543.047563,-3.0,-19.0,-25.0,-26.0,-12.0,-2.0,-5.0,2.0
1705334543.067593,-5.0,14.0,-4.0,2.0,-2.0,-3.0,-2.0,-7.0
1705334543.067593,2.0,-1.0,10.0,-4.0,-5.0,-6.0,-6.0,-1.0
1705334543.067593,2.0,9.0,37.0,16.0,4.0,7.0,4.0,3.0
1705334543.067593,-3.0,-4.0,-9.0,0.0,1.0,3.0,6.0,1.0
1705334543.0879374,3.0,-5.0,-10.0,6.0,3.0,-5.0,-3.0,-4.0
1705334543.0879374,2.0,6.0,-1.0,-16.0,-8.0,-10.0,-4.0,1.0
1705334543.0879374,-2.0,-17.0,9.0,-7.0,-3.0,4.0,0.0,-2.0
1705334543.0879374,-3.0,-6.0,-8.0,2.0,3.0,1.0,-1.0,-1.0
1705334543.0979457,2.0,1.0,-2.0,-12.0,-4.0,-6.0,-4.0,-5.0
1705334543.0979457,2.0,4.0,6.0,12.0,4.0,1.0,0.0,0.0
1705334543.0979457,-3.0,-3.0,2.0,-2.0,-2.0,0.0,-2.0,-4.0
1705334543.0979457,0.0,-3.0,-11.0,-6.0,1.0,-3.0,0.0,0.0
1705334543.1279595,-1.0,-5.0,-6.0,-6.0,-2.0,-3.0,-2.0,-2.0
1705334543.1279595,1.0,-1.0,-9.0,1.0,-2.0,1.0,0.0,0.0
1705334543.1279595,-3.0,10.0,14.0,8.0,3.0,4.0,0.0,0.0
1705334543.1279595,2.0,-1.0,12.0,3.0,4.0,-1.0,0.0,0.0
1705334543.147596,2.0,-6.0,-9.0,-3.0,-5.0,-3.0,-1.0,-1.0
1705334543.147596,-3.0,2.0,-9.0,-4.0,-4.0,-1.0,-3.0,-1.0
1705334543.147596,-1.0,9.0,13.0,1.0,-3.0,1.0,1.0,-3.0
1705334543.147596,-2.0,5.0,7.0,16.0,6.0,4.0,-1.0,3.0
1705334543.15793,-3.0,1.0,-20.0,-13.0,-5.0,-2.0,-1.0,-4.0
1705334543.15793,-2.0,-7.0,12.0,-4.0,-2.0,-4.0,-4.0,-1.0
1705334543.177557,4.0,-6.0,5.0,5.0,5.0,3.0,0.0,2.0
1705334543.177557,2.0,3.0,15.0,-5.0,-1.0,-1.0,-1.0,2.0
1705334543.1878686,-1.0,7.0,-11.0,4.0,-4.0,-5.0,-2.0,-3.0
1705334543.1878686,1.0,-7.0,-18.0,-3.0,-5.0,-1.0,-2.0,-2.0
1705334543.1878686,0.0,17.0,13.0,-3.0,-1.0,1.0,3.0,0.0
1705334543.1878686,-3.0,-13.0,-12.0,-1.0,-3.0,1.0,-1.0,-2.0
1705334543.2079067,0.0,2.0,12.0,-4.0,3.0,-1.0,0.0,-2.0
1705334543.2079067,-1.0,-7.0,1.0,10.0,0.0,-3.0,1.0,0.0
1705334543.2175622,1.0,5.0,29.0,-1.0,-1.0,-2.0,0.0,-2.0
1705334543.2175622,-2.0,-6.0,-57.0,-5.0,1.0,-6.0,0.0,-2.0
1705334543.2175622,0.0,-5.0,-7.0,-10.0,-5.0,-6.0,-6.0,-3.0
1705334543.2175622,-2.0,6.0,-37.0,-20.0,-9.0,-10.0,-11.0,-2.0
1705334543.227714,0.0,-2.0,18.0,20.0,3.0,0.0,14.0,1.0
1705334543.227714,2.0,2.0,21.0,-3.0,10.0,42.0,19.0,-1.0
1705334543.2575574,-5.0,-41.0,-15.0,-17.0,-8.0,-12.0,-4.0,4.0
1705334543.2575574,-9.0,-16.0,20.0,13.0,1.0,-25.0,-7.0,-18.0
1705334543.2575574,-10.0,10.0,-33.0,-8.0,3.0,32.0,7.0,0.0
1705334543.2575574,4.0,19.0,8.0,-9.0,-10.0,-22.0,-8.0,-6.0
1705334543.2675562,-6.0,-10.0,-7.0,4.0,3.0,13.0,1.0,9.0
1705334543.2675562,-12.0,-16.0,15.0,3.0,2.0,-2.0,5.0,-14.0
1705334543.2675562,17.0,-11.0,15.0,11.0,1.0,-4.0,0.0,5.0
1705334543.2675562,9.0,22.0,3.0,-1.0,-2.0,-9.0,-4.0,15.0
1705334543.2779677,-22.0,8.0,0.0,1.0,-4.0,-5.0,1.0,-20.0
1705334543.2779677,4.0,9.0,9.0,1.0,3.0,5.0,4.0,14.0
1705334543.2975566,-7.0,-13.0,-17.0,-21.0,-10.0,-21.0,-17.0,-1.0
1705334543.2975566,-1.0,-31.0,-19.0,-3.0,-1.0,4.0,-3.0,2.0
1705334543.3078613,15.0,4.0,13.0,17.0,6.0,-2.0,0.0,1.0
1705334543.3078613,-5.0,17.0,31.0,1.0,-8.0,5.0,-1.0,2.0
1705334543.3078613,-3.0,-17.0,-58.0,-19.0,-11.0,-9.0,-6.0,-4.0
1705334543.3078613,-6.0,-10.0,8.0,-12.0,1.0,-5.0,0.0,-7.0
1705334543.3575563,6.0,-5.0,15.0,-6.0,6.0,5.0,5.0,1.0
1705334543.3575563,9.0,1.0,1.0,15.0,11.0,11.0,3.0,5.0
1705334543.3575563,0.0,8.0,7.0,0.0,-3.0,-7.0,-4.0,-3.0
1705334543.3575563,-4.0,-9.0,-10.0,1.0,-4.0,-5.0,-4.0,-1.0
1705334543.3575563,-2.0,7.0,26.0,9.0,-2.0,0.0,-1.0,0.0
1705334543.3575563,-3.0,5.0,-6.0,-4.0,-3.0,2.0,0.0,1.0
1705334543.3575563,-1.0,-1.0,5.0,-3.0,-2.0,-6.0,-5.0,-4.0
1705334543.3575563,-3.0,-11.0,-10.0,3.0,-1.0,-10.0,-9.0,-5.0
1705334543.36785,5.0,-14.0,-35.0,-10.0,4.0,26.0,15.0,3.0
1705334543.36785,-1.0,5.0,11.0,-5.0,-5.0,-5.0,-3.0,-8.0
1705334543.36785,-3.0,4.0,28.0,14.0,4.0,2.0,-1.0,-1.0
1705334543.36785,-4.0,1.0,6.0,-1.0,-1.0,-5.0,-2.0,1.0
1705334543.3877828,-2.0,2.0,-9.0,-3.0,-6.0,-12.0,-8.0,-8.0
1705334543.3877828,-3.0,-15.0,-29.0,-11.0,-5.0,3.0,-2.0,2.0
1705334543.3877828,0.0,6.0,11.0,4.0,5.0,2.0,1.0,0.0
1705334543.3877828,2.0,16.0,64.0,14.0,-2.0,0.0,-1.0,1.0
1705334543.4175575,0.0,-4.0,-47.0,3.0,9.0,-4.0,-3.0,1.0
1705334543.4175575,3.0,-15.0,-65.0,-15.0,-3.0,3.0,1.0,2.0
1705334543.4175575,-5.0,-5.0,25.0,-8.0,-1.0,-6.0,-3.0,-3.0
1705334543.4175575,-1.0,-4.0,2.0,-2.0,-7.0,-4.0,-5.0,-6.0
1705334543.427951,3.0,5.0,28.0,0.0,-6.0,1.0,0.0,1.0
1705334543.427951,2.0,6.0,22.0,14.0,7.0,5.0,4.0,1.0
1705334543.427951,-5.0,16.0,-25.0,-6.0,0.0,2.0,0.0,-2.0
1705334543.427951,-3.0,-17.0,-2.0,-5.0,-2.0,-2.0,-2.0,-5.0
1705334543.4475574,-2.0,51.0,39.0,1.0,-12.0,-14.0,-10.0,-1.0
1705334543.4475574,-2.0,-12.0,-20.0,-5.0,1.0,-1.0,0.0,0.0
1705334543.4475574,-10.0,-3.0,1.0,-2.0,-4.0,-6.0,-3.0,5.0
1705334543.4475574,26.0,-58.0,-45.0,-6.0,5.0,21.0,-4.0,-11.0
1705334543.4575925,1.0,34.0,7.0,3.0,-1.0,-14.0,-1.0,6.0
1705334543.4575925,-12.0,7.0,28.0,-1.0,-1.0,-4.0,4.0,-18.0
1705334543.4724622,4.0,-14.0,-29.0,-1.0,1.0,8.0,7.0,-2.0
1705334543.4734733,-1.0,4.0,3.0,0.0,2.0,-7.0,-5.0,3.0
1705334543.4884207,1.0,0.0,27.0,3.0,-4.0,-3.0,-4.0,-3.0
1705334543.4884207,6.0,15.0,9.0,-1.0,-6.0,-19.0,-6.0,2.0
1705334543.4884207,-7.0,-10.0,-32.0,-5.0,-3.0,-7.0,-4.0,1.0
1705334543.4884207,-14.0,5.0,-22.0,-10.0,-1.0,4.0,5.0,-7.0
1705334543.5084548,1.0,-16.0,-16.0,-5.0,-2.0,-3.0,-1.0,0.0
1705334543.5084548,-2.0,5.0,34.0,8.0,-2.0,7.0,-1.0,5.0
1705334543.5084548,9.0,-4.0,22.0,8.0,3.0,4.0,1.0,-4.0
1705334543.5084548,-4.0,13.0,-5.0,1.0,-6.0,-8.0,-1.0,4.0
1705334543.5188284,-6.0,-6.0,-3.0,11.0,0.0,5.0,1.0,-4.0
1705334543.5188284,2.0,-17.0,-12.0,-18.0,8.0,8.0,1.0,2.0
1705334543.5287945,6.0,-18.0,-1.0,-13.0,-5.0,0.0,-2.0,1.0
1705334543.5287945,-2.0,14.0,14.0,9.0,1.0,-10.0,-1.0,-1.0
1705334543.5482516,-6.0,-19.0,20.0,20.0,0.0,3.0,1.0,-2.0
1705334543.5482516,-1.0,-7.0,-93.0,-48.0,-15.0,-1.0,-3.0,-1.0
1705334543.5482516,-2.0,6.0,29.0,5.0,-4.0,-8.0,-4.0,-3.0
1705334543.5482516,-7.0,7.0,26.0,-19.0,-2.0,-1.0,3.0,1.0
1705334543.5682642,-1.0,-6.0,-42.0,-10.0,-4.0,0.0,-3.0,-2.0
1705334543.5682642,3.0,5.0,15.0,21.0,3.0,3.0,0.0,4.0
1705334543.5682642,1.0,-17.0,-8.0,6.0,2.0,3.0,0.0,-3.0
1705334543.5682642,-5.0,12.0,8.0,12.0,2.0,0.0,1.0,-1.0
1705334543.5786011,2.0,-24.0,-4.0,-10.0,-1.0,-1.0,0.0,-1.0
1705334543.5786011,-5.0,19.0,1.0,-5.0,-2.0,-5.0,-4.0,0.0
1705334543.588591,-6.0,-9.0,-2.0,-3.0,0.0,-3.0,0.0,-2.0
1705334543.588591,8.0,-2.0,18.0,15.0,1.0,2.0,1.0,5.0
1705334543.608315,-8.0,-25.0,-32.0,-4.0,4.0,1.0,-2.0,-9.0
1705334543.608315,5.0,5.0,5.0,0.0,-1.0,0.0,-2.0,0.0
1705334543.608315,-5.0,-17.0,6.0,-10.0,-6.0,-3.0,-4.0,0.0
1705334543.608315,-2.0,-5.0,-20.0,9.0,3.0,2.0,2.0,1.0
1705334543.628453,4.0,-12.0,47.0,4.0,1.0,1.0,4.0,10.0
1705334543.628453,-7.0,27.0,-67.0,-21.0,-8.0,-11.0,-9.0,-10.0
1705334543.628453,-13.0,-24.0,5.0,3.0,2.0,1.0,-2.0,-8.0
1705334543.628453,-3.0,4.0,-15.0,-8.0,-4.0,-6.0,-4.0,0.0
1705334543.648264,3.0,-3.0,36.0,5.0,0.0,2.0,0.0,-1.0
1705334543.648264,5.0,-56.0,53.0,39.0,9.0,7.0,5.0,6.0
1705334543.648264,2.0,58.0,3.0,-7.0,-3.0,-5.0,-2.0,1.0
1705334543.648264,-11.0,-11.0,-65.0,-32.0,-9.0,-8.0,-5.0,-6.0
1705334543.6782663,-1.0,4.0,4.0,0.0,0.0,-1.0,-1.0,2.0
1705334543.6782663,2.0,-1.0,46.0,4.0,-2.0,-5.0,-1.0,-4.0
1705334543.6782663,1.0,-2.0,-1.0,13.0,3.0,6.0,4.0,-4.0
1705334543.6782663,-2.0,-11.0,29.0,6.0,-2.0,-9.0,-6.0,-4.0
1705334543.6883752,2.0,6.0,-29.0,-16.0,1.0,13.0,4.0,33.0
1705334543.6883752,-2.0,-6.0,-13.0,-4.0,-1.0,-3.0,-3.0,-5.0
1705334543.6883752,0.0,-13.0,-12.0,1.0,1.0,1.0,-1.0,3.0
1705334543.6883752,-2.0,-19.0,-25.0,-22.0,-1.0,-5.0,-1.0,0.0
1705334543.6986256,5.0,-2.0,4.0,8.0,3.0,-2.0,-2.0,-4.0
1705334543.6986256,-28.0,18.0,19.0,8.0,-4.0,-4.0,-4.0,-20.0
1705334543.708589,1.0,-7.0,28.0,10.0,-1.0,-2.0,0.0,-1.0
1705334543.708589,1.0,14.0,2.0,-1.0,0.0,3.0,3.0,5.0
1705334543.728265,-5.0,11.0,-23.0,-27.0,-16.0,-11.0,-4.0,-5.0
1705334543.728265,5.0,-18.0,-2.0,5.0,0.0,6.0,2.0,9.0
1705334543.728265,5.0,9.0,-8.0,9.0,19.0,4.0,4.0,-4.0
1705334543.728265,-1.0,-23.0,-1.0,6.0,7.0,3.0,1.0,-1.0
1705334543.7484057,9.0,-5.0,-18.0,0.0,2.0,1.0,0.0,-6.0
1705334543.7484057,-1.0,19.0,28.0,2.0,-5.0,-5.0,-2.0,-2.0
1705334543.7484057,-9.0,-7.0,-40.0,-23.0,-14.0,-6.0,-7.0,-2.0
1705334543.7484057,-8.0,4.0,21.0,3.0,-1.0,-1.0,-1.0,0.0
1705334543.7584548,6.0,5.0,-3.0,-4.0,0.0,-3.0,-1.0,-8.0
1705334543.7584548,6.0,-5.0,-10.0,1.0,0.0,0.0,0.0,5.0
1705334543.7684717,1.0,-10.0,6.0,7.0,1.0,0.0,2.0,1.0
1705334543.7684717,2.0,6.0,0.0,2.0,1.0,4.0,1.0,0.0
1705334543.7982662,-6.0,8.0,7.0,-2.0,-3.0,-3.0,-1.0,-9.0
1705334543.7982662,-3.0,-2.0,-16.0,3.0,0.0,-4.0,-3.0,0.0
1705334543.7982662,1.0,-6.0,-2.0,-9.0,-5.0,-3.0,-3.0,-2.0
1705334543.7982662,-7.0,9.0,-5.0,-3.0,0.0,-2.0,1.0,-3.0
1705334543.8082922,-3.0,-1.0,-4.0,-4.0,0.0,-1.0,-1.0,-5.0
1705334543.8082922,9.0,3.0,6.0,3.0,1.0,5.0,3.0,8.0
1705334543.8082922,-1.0,15.0,3.0,-4.0,-2.0,-2.0,1.0,2.0
1705334543.8082922,8.0,-4.0,1.0,-1.0,1.0,-1.0,-1.0,6.0
1705334543.8184648,-9.0,-1.0,11.0,11.0,3.0,-1.0,-3.0,-12.0
1705334543.8184648,-4.0,-3.0,-13.0,-7.0,2.0,1.0,0.0,0.0
1705334543.8285067,0.0,4.0,-6.0,-2.0,-5.0,-4.0,-4.0,-5.0
1705334543.8285067,10.0,4.0,26.0,-2.0,-4.0,2.0,2.0,3.0
1705334543.858265,-20.0,-17.0,-23.0,-7.0,-3.0,-6.0,-5.0,-9.0
1705334543.858265,-2.0,5.0,1.0,7.0,3.0,-1.0,-1.0,0.0
1705334543.858265,-2.0,-8.0,-4.0,-7.0,-6.0,-2.0,-2.0,3.0
1705334543.858265,-1.0,7.0,-2.0,7.0,-1.0,1.0,-3.0,-5.0
1705334543.868608,0.0,13.0,17.0,2.0,1.0,2.0,0.0,0.0
1705334543.868608,0.0,0.0,2.0,-10.0,-2.0,-2.0,-1.0,-3.0
1705334543.868608,2.0,-12.0,-5.0,2.0,-1.0,-2.0,-1.0,2.0
1705334543.868608,0.0,-2.0,12.0,7.0,1.0,-3.0,-5.0,-3.0
1705334543.8786166,-4.0,7.0,0.0,3.0,-4.0,1.0,1.0,-1.0
1705334543.8786166,6.0,-4.0,-7.0,-10.0,-5.0,-5.0,-3.0,2.0
1705334543.8882668,-2.0,-6.0,7.0,-2.0,2.0,12.0,4.0,-1.0
1705334543.8982632,-4.0,19.0,19.0,6.0,-3.0,-2.0,-2.0,-5.0
1705334543.8982632,5.0,-12.0,-30.0,1.0,2.0,1.0,0.0,4.0
1705334543.8982632,-4.0,-9.0,-12.0,-1.0,-2.0,-4.0,-2.0,1.0
1705334543.9082685,-4.0,12.0,22.0,3.0,1.0,-6.0,-5.0,-2.0
1705334543.9082685,1.0,-6.0,-4.0,-3.0,-4.0,6.0,7.0,-2.0
1705334543.92867,0.0,2.0,-5.0,1.0,-1.0,-4.0,-4.0,-1.0
1705334543.92867,3.0,2.0,11.0,1.0,0.0,0.0,1.0,3.0
1705334543.92867,-1.0,0.0,-19.0,-11.0,-7.0,-4.0,-2.0,-2.0
1705334543.92867,-4.0,-12.0,-15.0,-15.0,-2.0,2.0,2.0,-2.0
1705334543.9582636,-1.0,0.0,43.0,12.0,9.0,-4.0,-1.0,0.0
1705334543.9582636,2.0,-22.0,-5.0,15.0,8.0,4.0,2.0,1.0
1705334543.9582636,1.0,34.0,35.0,12.0,-1.0,-4.0,2.0,1.0
1705334543.9582636,-3.0,-7.0,-34.0,1.0,-1.0,-6.0,-4.0,-2.0
1705334543.9683163,2.0,-10.0,-8.0,-19.0,-10.0,-4.0,-3.0,1.0
1705334543.9683163,-9.0,3.0,9.0,-9.0,-6.0,-1.0,-3.0,-3.0
1705334543.9683163,3.0,-6.0,-7.0,1.0,-1.0,1.0,2.0,-3.0
1705334543.9683163,0.0,-4.0,0.0,-1.0,2.0,2.0,1.0,-1.0
1705334543.9885044,-3.0,1.0,16.0,6.0,2.0,1.0,0.0,-2.0
1705334543.9885044,-4.0,-5.0,-14.0,-4.0,-7.0,-6.0,-4.0,-3.0
1705334543.9885044,1.0,-3.0,1.0,2.0,2.0,-1.0,-1.0,-1.0
1705334543.9885044,0.0,10.0,1.0,2.0,-4.0,-2.0,0.0,0.0
1705334544.0182555,-1.0,-7.0,-13.0,-6.0,-3.0,-2.0,-1.0,-2.0
1705334544.0182555,3.0,4.0,5.0,-1.0,3.0,4.0,1.0,1.0
1705334544.0182555,-1.0,-5.0,-10.0,2.0,-3.0,-5.0,-4.0,-1.0
1705334544.0182555,-2.0,-7.0,-1.0,-12.0,-2.0,1.0,0.0,-2.0
1705334544.0282676,-1.0,-8.0,-2.0,8.0,4.0,0.0,-3.0,0.0
1705334544.0282676,0.0,-1.0,-1.0,-8.0,3.0,3.0,1.0,0.0
1705334544.0297387,1.0,-2.0,-13.0,2.0,-2.0,1.0,-2.0,-1.0
1705334544.0297387,-4.0,-8.0,-2.0,5.0,4.0,-5.0,-5.0,-2.0
1705334544.0480752,5.0,3.0,8.0,1.0,-9.0,1.0,3.0,1.0
1705334544.0480752,3.0,-4.0,2.0,0.0,-4.0,0.0,-3.0,0.0
1705334544.0480752,-15.0,6.0,4.0,3.0,-1.0,0.0,-1.0,-1.0
1705334544.0480752,-6.0,-7.0,-11.0,-1.0,-5.0,-6.0,-4.0,-4.0
1705334544.0776234,-3.0,5.0,-3.0,-10.0,-2.0,-2.0,-1.0,-2.0
1705334544.0776234,4.0,0.0,-1.0,-2.0,-2.0,0.0,0.0,-1.0
1705334544.0776234,4.0,-6.0,-28.0,-10.0,0.0,0.0,1.0,-1.0
1705334544.0776234,-1.0,5.0,46.0,5.0,0.0,2.0,1.0,0.0
1705334544.087625,1.0,-18.0,12.0,9.0,-1.0,-3.0,-3.0,0.0
1705334544.087625,-2.0,23.0,-11.0,-6.0,1.0,2.0,-1.0,-2.0
1705334544.087625,-1.0,-13.0,-31.0,-10.0,-5.0,-5.0,-4.0,0.0
1705334544.087625,0.0,-6.0,-3.0,4.0,2.0,0.0,3.0,2.0
1705334544.1079407,-2.0,0.0,-19.0,-5.0,-1.0,1.0,-2.0,1.0
1705334544.1079407,-5.0,-9.0,17.0,2.0,-1.0,-1.0,1.0,-2.0
1705334544.1079407,2.0,1.0,13.0,7.0,4.0,3.0,2.0,0.0
1705334544.1079407,5.0,2.0,-10.0,6.0,-4.0,-3.0,0.0,0.0
1705334544.1279776,-6.0,2.0,19.0,-16.0,-7.0,-7.0,-5.0,-5.0
1705334544.1279776,-6.0,-2.0,-8.0,-7.0,0.0,-1.0,1.0,-2.0
1705334544.1279776,0.0,-6.0,-1.0,5.0,7.0,2.0,-1.0,1.0
1705334544.1279776,2.0,-5.0,9.0,13.0,4.0,1.0,-1.0,0.0
1705334544.1476252,2.0,15.0,-6.0,1.0,-5.0,5.0,5.0,0.0
1705334544.1476252,-2.0,4.0,-3.0,-4.0,-5.0,-4.0,-1.0,-2.0
1705334544.1476252,1.0,-10.0,1.0,-20.0,-2.0,-2.0,-2.0,-2.0
1705334544.1476252,-1.0,0.0,10.0,3.0,2.0,-5.0,-3.0,-1.0
1705334544.1678517,0.0,-6.0,-21.0,-1.0,3.0,1.0,-2.0,1.0
1705334544.1678517,0.0,2.0,6.0,3.0,-1.0,0.0,-2.0,-1.0
1705334544.1678517,-3.0,-4.0,3.0,-2.0,-3.0,-4.0,-1.0,-2.0
1705334544.1678517,-2.0,-6.0,-1.0,-8.0,-5.0,-1.0,-3.0,-3.0
1705334544.1876225,-2.0,1.0,3.0,1.0,-1.0,-6.0,-2.0,-1.0
1705334544.1876225,-3.0,-4.0,-21.0,2.0,-1.0,-3.0,-3.0,-1.0
1705334544.1876225,4.0,20.0,10.0,14.0,0.0,-1.0,-1.0,0.0
1705334544.1876225,-8.0,-26.0,-12.0,-13.0,-4.0,-4.0,-1.0,-2.0
1705334544.2076254,-8.0,-15.0,-7.0,-19.0,0.0,3.0,1.0,-2.0
1705334544.2076254,3.0,12.0,3.0,3.0,3.0,-1.0,0.0,-1.0
1705334544.2076254,-20.0,-17.0,-7.0,16.0,-2.0,-3.0,1.0,-4.0
1705334544.2076254,7.0,5.0,35.0,9.0,1.0,-4.0,-13.0,-7.0
1705334544.2279327,2.0,-5.0,-2.0,-4.0,-4.0,-2.0,-3.0,-1.0
1705334544.2279327,2.0,-8.0,-51.0,-22.0,-4.0,-6.0,-3.0,-2.0
1705334544.2279327,3.0,-2.0,-14.0,-10.0,-3.0,-4.0,-7.0,2.0
1705334544.2279327,3.0,2.0,-1.0,6.0,-3.0,-7.0,-1.0,3.0
1705334544.2479787,-1.0,8.0,-2.0,8.0,1.0,9.0,3.0,-2.0
1705334544.2479787,0.0,1.0,62.0,13.0,5.0,3.0,3.0,-1.0
1705334544.2479787,3.0,-5.0,-33.0,-4.0,1.0,-16.0,-1.0,-1.0
1705334544.2479787,-10.0,-7.0,-19.0,-12.0,-1.0,5.0,2.0,-1.0
1705334544.2676256,10.0,6.0,10.0,4.0,5.0,12.0,5.0,4.0
1705334544.2676256,0.0,-5.0,1.0,0.0,-7.0,-5.0,3.0,-3.0
1705334544.2676256,-5.0,-5.0,26.0,-4.0,-7.0,-2.0,-9.0,-1.0
1705334544.2676256,-16.0,-14.0,-23.0,-10.0,-3.0,-18.0,-7.0,7.0
1705334544.287864,36.0,65.0,4.0,1.0,-2.0,-26.0,-8.0,1.0
1705334544.287864,10.0,-23.0,23.0,8.0,6.0,51.0,18.0,-3.0
1705334544.287864,-10.0,17.0,19.0,0.0,-1.0,6.0,0.0,-3.0
1705334544.287864,11.0,14.0,1.0,2.0,3.0,4.0,5.0,-9.0
1705334544.3078585,-20.0,1.0,-39.0,-10.0,-9.0,-12.0,-11.0,-11.0
1705334544.3078585,-15.0,-12.0,-6.0,0.0,-6.0,-28.0,-18.0,0.0
1705334544.3078585,10.0,-10.0,19.0,2.0,1.0,-1.0,2.0,2.0
1705334544.3078585,-6.0,-6.0,-29.0,-17.0,-8.0,2.0,-5.0,-5.0
1705334544.3276284,-12.0,-57.0,-9.0,10.0,-1.0,2.0,6.0,3.0
1705334544.3276284,5.0,24.0,12.0,-8.0,5.0,-6.0,-6.0,2.0
1705334544.3276284,-7.0,-29.0,-64.0,-11.0,2.0,2.0,-2.0,-6.0
1705334544.3276284,-4.0,-2.0,32.0,1.0,-5.0,1.0,-1.0,0.0
1705334544.357624,5.0,-35.0,1.0,-17.0,0.0,-1.0,-1.0,1.0
1705334544.357624,-4.0,-17.0,-5.0,6.0,7.0,0.0,2.0,4.0
1705334544.357624,1.0,16.0,30.0,6.0,-9.0,3.0,2.0,-3.0
1705334544.357624,7.0,10.0,-1.0,10.0,11.0,2.0,3.0,3.0
1705334544.3678498,-5.0,10.0,-12.0,8.0,-5.0,-2.0,-4.0,-3.0
1705334544.3678498,-4.0,2.0,1.0,-12.0,-7.0,-5.0,-5.0,-3.0
1705334544.3678498,-3.0,-18.0,0.0,15.0,21.0,3.0,0.0,2.0
1705334544.3678498,0.0,8.0,-22.0,-15.0,-6.0,-12.0,-6.0,-2.0
1705334544.3876278,-6.0,-4.0,7.0,-13.0,-5.0,19.0,5.0,0.0
1705334544.3876278,-3.0,14.0,-12.0,-9.0,-10.0,-3.0,2.0,-1.0
1705334544.3876278,9.0,19.0,9.0,4.0,-4.0,1.0,5.0,-2.0
1705334544.3876278,-7.0,1.0,3.0,4.0,1.0,-9.0,-1.0,7.0
1705334544.4076235,0.0,5.0,16.0,7.0,2.0,-4.0,-8.0,-17.0
1705334544.4076235,-4.0,16.0,-3.0,12.0,7.0,31.0,16.0,18.0
1705334544.4076235,2.0,-13.0,-9.0,-15.0,-6.0,-17.0,-3.0,-14.0
1705334544.4076235,-24.0,4.0,5.0,1.0,1.0,1.0,3.0,-11.0
1705334544.427974,36.0,-2.0,5.0,1.0,4.0,28.0,15.0,29.0
1705334544.427974,15.0,-2.0,4.0,10.0,5.0,-3.0,-2.0,-4.0
1705334544.427974,6.0,11.0,28.0,3.0,-2.0,2.0,-3.0,4.0
1705334544.427974,-2.0,6.0,14.0,4.0,0.0,-4.0,-8.0,-5.0
1705334544.4476285,-9.0,-7.0,-28.0,-8.0,-7.0,-20.0,-7.0,4.0
1705334544.4476285,-2.0,16.0,-20.0,-1.0,-2.0,-9.0,-6.0,5.0
1705334544.4476285,6.0,-10.0,-5.0,-6.0,-3.0,4.0,0.0,-18.0
1705334544.4476285,10.0,6.0,-2.0,2.0,-1.0,0.0,4.0,0.0
1705334544.4776268,-13.0,-4.0,5.0,-1.0,-2.0,-4.0,-6.0,-1.0
1705334544.4776268,11.0,-63.0,6.0,1.0,-1.0,-6.0,-6.0,0.0
1705334544.4776268,-15.0,76.0,-12.0,-11.0,-5.0,-10.0,-1.0,3.0
1705334544.4776268,0.0,-25.0,-8.0,-5.0,-3.0,8.0,-1.0,0.0
1705334544.4879723,1.0,-3.0,21.0,13.0,7.0,0.0,6.0,0.0
1705334544.4879723,-1.0,-14.0,30.0,3.0,-3.0,-9.0,-2.0,-6.0
1705334544.4879723,1.0,-13.0,-38.0,-4.0,-3.0,6.0,1.0,4.0
1705334544.4879723,-1.0,-24.0,-24.0,-16.0,-7.0,0.0,-3.0,-4.0
1705334544.4980087,-12.0,14.0,-9.0,21.0,3.0,-9.0,-7.0,-2.0
1705334544.5076318,-6.0,-4.0,15.0,-30.0,-3.0,-4.0,-4.0,-5.0
1705334544.5076318,3.0,-20.0,-5.0,-9.0,14.0,10.0,4.0,6.0
1705334544.5076318,5.0,-6.0,-24.0,8.0,-2.0,-1.0,0.0,2.0
1705334544.5302331,-7.0,8.0,8.0,8.0,-3.0,-4.0,-5.0,-10.0
1705334544.5302331,-11.0,4.0,-5.0,18.0,-3.0,-5.0,-4.0,-3.0
1705334544.5319989,3.0,-8.0,6.0,-21.0,-12.0,-4.0,1.0,3.0
1705334544.5319989,8.0,11.0,-2.0,-13.0,-3.0,3.0,-1.0,0.0
1705334544.553835,-6.0,-14.0,13.0,12.0,3.0,1.0,-2.0,-5.0
1705334544.553835,-1.0,15.0,-18.0,-7.0,-3.0,-3.0,1.0,-4.0
1705334544.553835,-2.0,-9.0,16.0,10.0,-3.0,-2.0,-4.0,1.0
1705334544.553835,0.0,11.0,-3.0,-10.0,-3.0,-1.0,-1.0,-2.0
1705334544.5638354,-5.0,2.0,-12.0,-18.0,-5.0,0.0,0.0,-3.0
1705334544.5638354,-4.0,5.0,-10.0,0.0,-1.0,-4.0,-1.0,-3.0
1705334544.5738342,-1.0,-11.0,5.0,8.0,0.0,-2.0,-2.0,0.0
1705334544.5738342,1.0,-2.0,13.0,13.0,-1.0,0.0,2.0,2.0
1705334544.5838337,-3.0,5.0,-1.0,-3.0,2.0,-3.0,0.0,-2.0
1705334544.5838337,-1.0,-3.0,-19.0,-11.0,-3.0,-1.0,-1.0,-3.0
1705334544.5838337,-1.0,-9.0,4.0,4.0,0.0,1.0,-2.0,0.0
1705334544.5838337,1.0,1.0,8.0,3.0,-3.0,-1.0,-1.0,-2.0
1705334544.6138365,-1.0,-2.0,0.0,-4.0,1.0,-1.0,3.0,-1.0
1705334544.6138365,-2.0,-7.0,-10.0,-1.0,-5.0,-7.0,-6.0,-2.0
1705334544.6138365,1.0,-2.0,-12.0,-1.0,-3.0,2.0,1.0,1.0
1705334544.6138365,-1.0,2.0,28.0,18.0,5.0,5.0,7.0,1.0
1705334544.6238406,-2.0,-10.0,-25.0,-3.0,-2.0,-9.0,-6.0,-5.0
1705334544.6238406,-4.0,9.0,4.0,-3.0,-2.0,-4.0,-4.0,-1.0
1705334544.6338694,1.0,-1.0,5.0,-2.0,9.0,5.0,0.0,2.0
1705334544.6338694,-3.0,1.0,-15.0,-11.0,-4.0,-1.0,-1.0,0.0
1705334544.6441257,3.0,-5.0,13.0,16.0,0.0,0.0,-2.0,1.0
1705334544.6441257,0.0,2.0,33.0,17.0,-1.0,2.0,2.0,-1.0
1705334544.6441257,-4.0,-7.0,-64.0,-25.0,-9.0,-3.0,-3.0,-3.0
1705334544.6441257,-8.0,-7.0,19.0,3.0,0.0,1.0,-3.0,-2.0
1705334544.6641455,-1.0,10.0,-2.0,-16.0,-3.0,-8.0,0.0,-1.0
1705334544.6738377,1.0,2.0,0.0,2.0,0.0,2.0,1.0,1.0
1705334544.6738377,2.0,-12.0,28.0,8.0,0.0,-1.0,-3.0,-1.0
1705334544.6738377,6.0,9.0,-4.0,2.0,6.0,17.0,3.0,0.0
1705334544.6841757,-7.0,3.0,0.0,-3.0,-3.0,-5.0,-1.0,-2.0
1705334544.6841757,0.0,-4.0,-20.0,1.0,0.0,-2.0,-2.0,-2.0
1705334544.6940467,-3.0,-2.0,12.0,3.0,-2.0,-4.0,-2.0,-1.0
1705334544.6940467,3.0,-16.0,-9.0,-3.0,-2.0,-9.0,-5.0,1.0
1705334544.7038345,0.0,-20.0,12.0,7.0,4.0,8.0,0.0,-1.0
1705334544.7038345,-1.0,24.0,-6.0,-10.0,-4.0,-11.0,-4.0,1.0
1705334544.7138355,0.0,36.0,1.0,-5.0,-6.0,4.0,2.0,1.0
1705334544.7138355,0.0,4.0,8.0,5.0,2.0,2.0,-5.0,3.0
1705334544.733834,7.0,-56.0,-1.0,-6.0,0.0,4.0,7.0,-1.0
1705334544.733834,3.0,13.0,-46.0,-5.0,0.0,4.0,-6.0,6.0
1705334544.733834,-20.0,0.0,11.0,4.0,-2.0,-5.0,-4.0,-10.0
1705334544.733834,-24.0,1.0,-9.0,-9.0,-6.0,-14.0,-5.0,-8.0
1705334544.743868,10.0,5.0,15.0,11.0,4.0,-4.0,0.0,-2.0
1705334544.743868,2.0,-28.0,2.0,2.0,1.0,-3.0,-5.0,-1.0
1705334544.7542653,8.0,-4.0,25.0,5.0,4.0,26.0,11.0,5.0
1705334544.7542653,-3.0,-8.0,-36.0,-15.0,-5.0,-9.0,-6.0,-3.0
1705334544.7642684,-6.0,-9.0,-17.0,-12.0,-7.0,-7.0,-2.0,-1.0
1705334544.7642684,3.0,13.0,36.0,18.0,11.0,57.0,19.0,-1.0
1705334544.774208,-4.0,0.0,-32.0,3.0,-4.0,-20.0,-9.0,-1.0
1705334544.774208,1.0,-29.0,-29.0,-22.0,0.0,20.0,3.0,-2.0
1705334544.7938342,-6.0,-10.0,-19.0,-6.0,3.0,-18.0,1.0,-1.0
1705334544.7938342,7.0,43.0,19.0,-7.0,-10.0,-17.0,1.0,3.0
1705334544.7938342,10.0,-7.0,14.0,5.0,9.0,21.0,15.0,4.0
1705334544.7938342,8.0,-11.0,44.0,10.0,-7.0,-5.0,4.0,3.0
1705334544.8040736,1.0,13.0,-22.0,-3.0,-6.0,-2.0,0.0,2.0
1705334544.8040736,-14.0,9.0,37.0,2.0,1.0,1.0,2.0,-3.0
1705334544.8141365,6.0,-6.0,15.0,12.0,1.0,-9.0,-6.0,2.0
1705334544.8141365,3.0,24.0,-26.0,3.0,3.0,-15.0,-8.0,-2.0
1705334544.8241513,-8.0,-7.0,17.0,-4.0,2.0,11.0,-3.0,1.0
1705334544.8241513,8.0,-18.0,3.0,0.0,2.0,-10.0,-4.0,0.0
1705334544.8340788,-4.0,6.0,16.0,-1.0,-6.0,-5.0,-4.0,-1.0
1705334544.8340788,-4.0,-6.0,-7.0,7.0,4.0,6.0,6.0,-1.0
1705334544.8738325,-3.0,-22.0,12.0,11.0,-1.0,0.0,-5.0,-3.0
1705334544.8738325,-4.0,30.0,-38.0,-20.0,-7.0,-11.0,-11.0,-6.0
1705334544.8738325,2.0,-11.0,-4.0,-14.0,-7.0,-11.0,-5.0,0.0
1705334544.8738325,5.0,0.0,9.0,4.0,-3.0,-1.0,0.0,1.0
1705334544.8838391,-5.0,39.0,24.0,-5.0,-2.0,7.0,1.0,-4.0
1705334544.8838391,-1.0,-33.0,-55.0,-5.0,-4.0,-9.0,0.0,-1.0
1705334544.8838391,-1.0,3.0,-10.0,6.0,7.0,4.0,0.0,2.0
1705334544.8838391,-3.0,-11.0,14.0,2.0,2.0,-6.0,-2.0,1.0
1705334544.8838391,1.0,5.0,-13.0,-1.0,1.0,5.0,1.0,-1.0
1705334544.8838391,-1.0,-11.0,4.0,-2.0,1.0,-5.0,1.0,-1.0
1705334544.8941329,-3.0,3.0,-7.0,-4.0,-8.0,-8.0,-7.0,-4.0
1705334544.8941329,1.0,3.0,-7.0,5.0,2.0,8.0,1.0,-1.0
1705334544.9138377,4.0,-14.0,1.0,-7.0,-1.0,-3.0,-2.0,0.0
1705334544.9138377,-8.0,27.0,-5.0,-6.0,-4.0,-6.0,-3.0,-2.0
1705334544.9138377,-2.0,-2.0,5.0,0.0,-5.0,-5.0,-2.0,-3.0
1705334544.9138377,-1.0,-7.0,-16.0,-6.0,4.0,1.0,1.0,0.0
1705334544.9338357,-1.0,18.0,52.0,18.0,5.0,5.0,-2.0,-1.0
1705334544.9338357,-1.0,-27.0,-39.0,-5.0,-3.0,-4.0,0.0,-2.0
1705334544.9338357,-1.0,-18.0,29.0,8.0,-4.0,-10.0,-18.0,-2.0
1705334544.9338357,7.0,17.0,-5.0,-17.0,-2.0,7.0,0.0,4.0
1705334544.9441767,-1.0,7.0,32.0,-1.0,-5.0,0.0,-5.0,0.0
1705334544.9441767,-13.0,-44.0,15.0,19.0,2.0,5.0,2.0,-5.0
1705334544.953838,-3.0,-6.0,-9.0,-11.0,-2.0,-3.0,2.0,-2.0
1705334544.953838,3.0,-2.0,-10.0,-5.0,-5.0,-4.0,-1.0,0.0
1705334544.9638348,2.0,-2.0,-34.0,-14.0,-4.0,-5.0,-3.0,3.0
1705334544.9638348,-5.0,-9.0,23.0,6.0,2.0,0.0,-1.0,-5.0
1705334544.9738328,-18.0,0.0,14.0,7.0,1.0,-1.0,0.0,-10.0
1705334544.9738328,-3.0,-35.0,-11.0,0.0,-1.0,-2.0,-5.0,-2.0
1705334544.9942913,0.0,21.0,-23.0,-6.0,1.0,0.0,3.0,-6.0
1705334544.9942913,4.0,1.0,3.0,-2.0,-1.0,-3.0,0.0,1.0
1705334544.9942913,-12.0,-32.0,-14.0,-5.0,-2.0,0.0,2.0,3.0
1705334544.9942913,1.0,51.0,13.0,0.0,-1.0,-4.0,-3.0,-2.0
1705334545.0042498,-7.0,20.0,-13.0,-5.0,-4.0,-4.0,-3.0,-1.0
1705334545.0042498,0.0,-16.0,-7.0,-1.0,1.0,-2.0,-3.0,0.0
1705334545.0042498,3.0,-6.0,-8.0,-4.0,0.0,1.0,2.0,1.0
1705334545.0042498,-4.0,-14.0,5.0,7.0,0.0,-10.0,-6.0,-1.0
1705334545.0238705,1.0,-14.0,-3.0,4.0,-1.0,-2.0,-3.0,2.0
1705334545.0338397,-2.0,7.0,23.0,10.0,2.0,6.0,-8.0,-4.0
1705334545.0338397,1.0,1.0,-45.0,-24.0,-6.0,-7.0,-1.0,-1.0
1705334545.0338397,-1.0,0.0,-11.0,-2.0,-3.0,-9.0,5.0,-3.0
1705334545.054076,7.0,0.0,7.0,-2.0,-1.0,20.0,8.0,5.0
1705334545.054076,-3.0,-20.0,6.0,1.0,-3.0,-15.0,1.0,8.0
1705334545.0642915,10.0,41.0,29.0,7.0,-2.0,-7.0,-3.0,-2.0
1705334545.0642915,-13.0,-5.0,0.0,3.0,1.0,6.0,-1.0,-9.0
1705334545.0692985,0.0,-7.0,-77.0,-24.0,-5.0,-16.0,-2.0,-4.0
1705334545.0692985,-6.0,0.0,9.0,0.0,1.0,-8.0,6.0,1.0
1705334545.0823054,19.0,-11.0,13.0,9.0,8.0,31.0,14.0,-1.0
1705334545.0823054,-10.0,-11.0,13.0,-5.0,-7.0,-17.0,-8.0,-13.0
1705334545.086414,-12.0,45.0,39.0,12.0,-3.0,-1.0,-2.0,-2.0
1705334545.086414,25.0,15.0,-5.0,3.0,3.0,11.0,2.0,-2.0
1705334545.0944262,1.0,-28.0,8.0,-2.0,2.0,-13.0,-4.0,-1.0
1705334545.0944262,-11.0,48.0,-61.0,-12.0,-7.0,-1.0,-6.0,-8.0
1705334545.1144474,-4.0,-34.0,1.0,-2.0,-2.0,2.0,-2.0,-3.0
1705334545.1144474,-4.0,3.0,-9.0,-9.0,-7.0,-8.0,-5.0,-1.0
1705334545.1144474,2.0,0.0,-3.0,4.0,0.0,2.0,1.0,4.0
1705334545.1144474,8.0,-21.0,15.0,0.0,9.0,10.0,5.0,8.0
1705334545.124449,-2.0,-11.0,-5.0,1.0,1.0,-10.0,-7.0,0.0
1705334545.124449,-3.0,3.0,-6.0,8.0,1.0,1.0,-1.0,-2.0
1705334545.1444414,1.0,2.0,1.0,-4.0,5.0,2.0,1.0,2.0
1705334545.1444414,3.0,2.0,23.0,22.0,-1.0,5.0,0.0,1.0
1705334545.1444414,-3.0,8.0,-23.0,-36.0,-5.0,-5.0,-4.0,-8.0
1705334545.1444414,-5.0,-23.0,-2.0,-22.0,-6.0,-2.0,-6.0,-1.0
1705334545.1544435,-3.0,7.0,-6.0,-10.0,-14.0,-6.0,-5.0,-3.0
1705334545.1544435,1.0,1.0,12.0,10.0,-4.0,-4.0,0.0,2.0
1705334545.174441,6.0,-13.0,17.0,29.0,10.0,7.0,3.0,3.0
1705334545.174441,-3.0,-3.0,-13.0,-4.0,-2.0,2.0,-1.0,-2.0
1705334545.174441,-4.0,11.0,1.0,27.0,0.0,-5.0,-3.0,2.0
1705334545.174441,2.0,-5.0,-3.0,-11.0,-3.0,0.0,0.0,3.0
1705334545.18444,0.0,-8.0,-18.0,-31.0,-10.0,0.0,0.0,-2.0
1705334545.18444,-5.0,0.0,0.0,5.0,2.0,0.0,0.0,-3.0
1705334545.1944425,-4.0,1.0,-10.0,-22.0,1.0,0.0,-2.0,-2.0
1705334545.1944425,3.0,-12.0,18.0,-2.0,-4.0,-1.0,-1.0,1.0
1705334545.2048402,0.0,4.0,9.0,35.0,-2.0,-2.0,0.0,-3.0
1705334545.2048402,-4.0,5.0,4.0,-11.0,10.0,-1.0,0.0,-2.0
1705334545.2144434,0.0,-15.0,-19.0,-9.0,1.0,1.0,-2.0,2.0
1705334545.2144434,2.0,-16.0,2.0,7.0,7.0,0.0,0.0,-1.0
1705334545.2344425,1.0,1.0,-1.0,-11.0,-7.0,-3.0,-3.0,-1.0
1705334545.2344425,-2.0,3.0,-4.0,12.0,-9.0,-4.0,-1.0,-3.0
1705334545.2344425,-4.0,0.0,3.0,14.0,9.0,5.0,-2.0,-5.0
1705334545.2344425,0.0,-10.0,6.0,-10.0,5.0,1.0,0.0,3.0
1705334545.2444408,-3.0,0.0,-23.0,2.0,-1.0,-7.0,-2.0,0.0
1705334545.2444408,4.0,5.0,-11.0,3.0,-3.0,0.0,-1.0,1.0
1705334545.2546937,-4.0,11.0,18.0,-5.0,-10.0,-6.0,-3.0,-2.0
1705334545.2546937,-3.0,-2.0,9.0,-9.0,-8.0,-4.0,-4.0,-5.0
1705334545.264726,0.0,-8.0,-6.0,-3.0,1.0,0.0,-1.0,1.0
1705334545.264726,-2.0,-2.0,10.0,-7.0,-2.0,1.0,0.0,0.0
1705334545.274446,2.0,-1.0,-9.0,-1.0,-2.0,-4.0,-1.0,0.0
1705334545.274446,-1.0,1.0,4.0,6.0,-1.0,-1.0,0.0,0.0
1705334545.2944477,-1.0,-17.0,7.0,-3.0,0.0,-2.0,-3.0,2.0
1705334545.2944477,1.0,11.0,-3.0,-7.0,-1.0,-2.0,0.0,0.0
1705334545.30444,-4.0,5.0,-20.0,-2.0,-3.0,-3.0,0.0,-2.0
1705334545.30444,2.0,-3.0,2.0,2.0,-2.0,-2.0,2.0,-3.0
1705334545.30444,4.0,9.0,-3.0,-4.0,-2.0,-1.0,-2.0,4.0
1705334545.30444,-5.0,-5.0,2.0,2.0,4.0,5.0,0.0,3.0
1705334545.314674,-16.0,-14.0,6.0,3.0,0.0,-1.0,-2.0,-4.0
1705334545.314674,3.0,-2.0,-12.0,-6.0,-3.0,-7.0,-6.0,1.0
1705334545.324447,-5.0,5.0,2.0,-1.0,2.0,3.0,5.0,-5.0
1705334545.324447,5.0,-8.0,16.0,3.0,-3.0,-2.0,-1.0,4.0
1705334545.3344433,2.0,10.0,7.0,1.0,1.0,-4.0,0.0,-4.0
1705334545.3344433,-10.0,-12.0,-22.0,-1.0,-1.0,4.0,1.0,-6.0
1705334545.3547034,-1.0,5.0,13.0,3.0,-1.0,-6.0,-4.0,-2.0
1705334545.3547034,-3.0,-2.0,0.0,-11.0,-3.0,-5.0,-6.0,-7.0
1705334545.3547034,-1.0,0.0,20.0,10.0,-3.0,3.0,2.0,2.0
1705334545.3547034,0.0,1.0,6.0,-4.0,0.0,0.0,1.0,-4.0
1705334545.3647377,0.0,0.0,16.0,17.0,11.0,2.0,-1.0,-3.0
1705334545.3647377,0.0,-7.0,-12.0,-5.0,-5.0,-1.0,2.0,0.0
1705334545.3747087,-7.0,-3.0,-58.0,-37.0,-17.0,-10.0,-17.0,-6.0
1705334545.3747087,4.0,3.0,32.0,4.0,2.0,2.0,-3.0,5.0
1705334545.4044404,-2.0,-4.0,-9.0,7.0,-2.0,-2.0,0.0,1.0
1705334545.4044404,0.0,-5.0,24.0,-1.0,3.0,-1.0,-2.0,-2.0
1705334545.4044404,5.0,-1.0,11.0,14.0,2.0,-3.0,-1.0,-1.0
1705334545.4044404,2.0,0.0,-17.0,-6.0,-7.0,-7.0,1.0,5.0
1705334545.4144387,-8.0,-3.0,14.0,-5.0,-1.0,22.0,5.0,-1.0
1705334545.4144387,1.0,-8.0,-6.0,-3.0,0.0,4.0,2.0,0.0
1705334545.4144387,2.0,-11.0,-15.0,-5.0,-2.0,-6.0,-2.0,1.0
1705334545.4144387,10.0,39.0,7.0,-3.0,-2.0,-8.0,-3.0,6.0
1705334545.4248261,-13.0,10.0,1.0,-1.0,-1.0,-10.0,-2.0,-14.0
1705334545.4248261,0.0,0.0,-5.0,1.0,1.0,1.0,3.0,2.0
1705334545.4348385,6.0,-1.0,8.0,1.0,3.0,3.0,3.0,5.0
1705334545.4348385,-3.0,-7.0,1.0,2.0,1.0,0.0,-1.0,0.0
1705334545.4448686,21.0,-22.0,-3.0,1.0,-2.0,-7.0,-3.0,3.0
1705334545.4448686,0.0,-8.0,-2.0,4.0,-1.0,2.0,-1.0,-2.0
1705334545.4544437,-4.0,21.0,11.0,2.0,1.0,-4.0,-1.0,-1.0
1705334545.4544437,-1.0,-8.0,4.0,4.0,2.0,2.0,1.0,-3.0
1705334545.4744675,-6.0,-14.0,-24.0,-8.0,-5.0,0.0,-1.0,0.0
1705334545.4744675,-9.0,8.0,-16.0,-19.0,-10.0,-8.0,-8.0,-4.0
1705334545.4744675,4.0,-10.0,17.0,26.0,0.0,5.0,3.0,-1.0
1705334545.4744675,-6.0,-9.0,-9.0,-13.0,8.0,7.0,3.0,-4.0
1705334545.4847848,0.0,-10.0,4.0,-3.0,6.0,0.0,-1.0,1.0
1705334545.4847848,2.0,-20.0,-11.0,-8.0,-3.0,-5.0,-4.0,-4.0
1705334545.4948027,-1.0,25.0,1.0,-7.0,-6.0,-1.0,0.0,2.0
1705334545.4948027,-4.0,0.0,-3.0,4.0,-8.0,1.0,-1.0,-3.0
1705334545.504822,-1.0,8.0,-10.0,-2.0,-4.0,-2.0,0.0,-2.0
1705334545.504822,1.0,7.0,28.0,14.0,5.0,1.0,2.0,1.0
1705334545.5144408,-1.0,-13.0,-18.0,10.0,2.0,-2.0,-1.0,-2.0
1705334545.5144408,-2.0,-7.0,-12.0,-19.0,-4.0,-4.0,-4.0,-1.0
1705334545.534442,0.0,5.0,-3.0,-10.0,-4.0,-3.0,-6.0,-4.0
1705334545.534442,-3.0,5.0,-9.0,-12.0,-4.0,1.0,-1.0,-1.0
1705334545.5444438,-1.0,-2.0,16.0,-2.0,3.0,1.0,1.0,-1.0
1705334545.5444438,2.0,-11.0,3.0,14.0,1.0,1.0,-1.0,-1.0
1705334545.5444438,-4.0,-6.0,26.0,0.0,1.0,-1.0,1.0,0.0
1705334545.5444438,1.0,4.0,-32.0,7.0,1.0,1.0,-1.0,3.0
1705334545.5544732,-5.0,-18.0,-4.0,-6.0,-4.0,-3.0,-3.0,-1.0
1705334545.5544732,-3.0,5.0,4.0,-2.0,-1.0,-1.0,0.0,1.0
1705334545.57444,-2.0,10.0,7.0,2.0,-4.0,-4.0,-1.0,-1.0
1705334545.57444,1.0,3.0,19.0,12.0,0.0,-2.0,-1.0,-2.0
1705334545.57444,6.0,-6.0,-6.0,-2.0,5.0,6.0,5.0,4.0
1705334545.57444,-4.0,11.0,-6.0,-13.0,-10.0,-12.0,-10.0,-5.0
1705334545.5950794,-2.0,-5.0,-10.0,0.0,0.0,1.0,-2.0,-1.0
1705334545.5950794,-1.0,0.0,8.0,0.0,-1.0,-2.0,-2.0,-3.0
1705334545.5950794,3.0,4.0,-12.0,-9.0,-3.0,-2.0,1.0,1.0
1705334545.5950794,-5.0,1.0,9.0,6.0,1.0,1.0,0.0,-7.0
1705334545.6053162,1.0,-8.0,13.0,6.0,2.0,-4.0,0.0,1.0
1705334545.6053162,-2.0,-7.0,7.0,3.0,-1.0,3.0,2.0,-1.0
1705334545.6153286,0.0,-1.0,-11.0,-4.0,-3.0,-1.0,1.0,0.0
1705334545.6192338,1.0,5.0,6.0,-1.0,-2.0,-1.0,2.0,1.0
1705334545.645951,-3.0,-19.0,-13.0,-6.0,0.0,0.0,1.0,-1.0
1705334545.645951,-1.0,-9.0,-5.0,-1.0,0.0,-6.0,-11.0,-4.0
1705334545.645951,-4.0,0.0,-6.0,-9.0,-5.0,1.0,-1.0,-1.0
1705334545.645951,-2.0,-2.0,-9.0,-2.0,-2.0,2.0,2.0,0.0
1705334545.645951,-3.0,0.0,-7.0,5.0,4.0,-1.0,0.0,-1.0
1705334545.645951,-1.0,-6.0,-21.0,-10.0,5.0,-3.0,2.0,0.0
1705334545.6559477,1.0,-2.0,26.0,9.0,2.0,-1.0,-2.0,-3.0
1705334545.6559477,-6.0,-19.0,12.0,6.0,-2.0,-1.0,-2.0,-2.0
1705334545.6662962,5.0,19.0,17.0,-1.0,-8.0,-4.0,-2.0,-2.0
1705334545.6662962,-4.0,-9.0,-15.0,-3.0,-4.0,0.0,-2.0,-4.0
1705334545.6762388,-7.0,-10.0,9.0,-1.0,4.0,3.0,2.0,-1.0
1705334545.6762388,-4.0,-30.0,-47.0,-12.0,0.0,-1.0,1.0,1.0
1705334545.6952136,-3.0,-9.0,3.0,-3.0,-2.0,-1.0,-2.0,-1.0
1705334545.6952136,-4.0,22.0,39.0,8.0,1.0,0.0,2.0,-2.0
1705334545.6952136,2.0,-12.0,-41.0,-4.0,-3.0,-4.0,-2.0,-2.0
1705334545.6952136,-3.0,38.0,-20.0,-8.0,-3.0,-4.0,-5.0,0.0
1705334545.7155533,-2.0,-57.0,-1.0,1.0,3.0,2.0,2.0,0.0
1705334545.7155533,1.0,30.0,-1.0,1.0,-1.0,1.0,0.0,-4.0
1705334545.7155533,-3.0,9.0,19.0,-1.0,-1.0,-5.0,-6.0,0.0
1705334545.7155533,6.0,-25.0,2.0,0.0,-1.0,4.0,0.0,1.0
1705334545.7257762,2.0,11.0,-18.0,-6.0,-3.0,-2.0,-2.0,-1.0
1705334545.7257762,-6.0,-32.0,3.0,-1.0,-1.0,-2.0,-1.0,-1.0
1705334545.735729,0.0,2.0,4.0,2.0,1.0,5.0,1.0,0.0
1705334545.735729,0.0,13.0,-1.0,-1.0,0.0,-1.0,-4.0,0.0
1705334545.7654903,5.0,-2.0,3.0,-2.0,-1.0,-1.0,-5.0,2.0
1705334545.7654903,0.0,1.0,-2.0,3.0,-2.0,4.0,7.0,1.0
1705334545.7654903,5.0,34.0,-4.0,-5.0,1.0,-2.0,-1.0,1.0
1705334545.7654903,1.0,2.0,8.0,6.0,-6.0,-4.0,-2.0,-1.0
1705334545.7754877,-3.0,15.0,7.0,5.0,-1.0,0.0,-3.0,-3.0
1705334545.7754877,-2.0,-3.0,-15.0,4.0,3.0,-1.0,-4.0,-1.0
1705334545.7754877,1.0,-12.0,-21.0,-29.0,-7.0,-6.0,-3.0,-3.0
1705334545.7754877,1.0,-11.0,20.0,13.0,6.0,3.0,2.0,-1.0
1705334545.785752,-5.0,13.0,-8.0,-8.0,-4.0,0.0,-3.0,-2.0
1705334545.785752,-1.0,-1.0,-10.0,1.0,-2.0,-2.0,0.0,1.0
1705334545.8153553,-1.0,-15.0,34.0,5.0,-6.0,-3.0,-1.0,-1.0
1705334545.8153553,1.0,3.0,-19.0,6.0,1.0,-3.0,-1.0,1.0
1705334545.8153553,-4.0,3.0,-7.0,-9.0,0.0,-1.0,0.0,-3.0
1705334545.8153553,1.0,-3.0,-1.0,-3.0,1.0,0.0,-3.0,0.0
1705334545.8153553,-3.0,-11.0,-2.0,2.0,-1.0,1.0,2.0,-1.0
1705334545.8153553,1.0,7.0,2.0,-10.0,-2.0,0.0,1.0,0.0
1705334545.8356116,-2.0,8.0,0.0,4.0,-1.0,-1.0,2.0,0.0
1705334545.8356116,3.0,0.0,29.0,-3.0,-1.0,-3.0,-4.0,-2.0
1705334545.8356116,0.0,-10.0,-14.0,-1.0,-1.0,-2.0,-3.0,-2.0
1705334545.8356116,-5.0,-2.0,7.0,10.0,-2.0,0.0,0.0,-3.0
1705334545.855628,0.0,1.0,0.0,-6.0,-1.0,-3.0,1.0,-1.0
1705334545.855628,-1.0,-1.0,-25.0,-7.0,4.0,1.0,0.0,0.0
1705334545.855628,-1.0,-4.0,-3.0,8.0,0.0,-1.0,-2.0,-1.0
1705334545.855628,3.0,-5.0,1.0,-7.0,0.0,0.0,-1.0,0.0
1705334545.875352,0.0,1.0,-8.0,10.0,-2.0,2.0,0.0,0.0
1705334545.875352,0.0,-8.0,12.0,-24.0,-2.0,-1.0,-1.0,-1.0
1705334545.875352,-4.0,2.0,12.0,15.0,2.0,-3.0,-5.0,-4.0
1705334545.875352,1.0,1.0,9.0,4.0,0.0,-1.0,0.0,0.0
1705334545.8954158,4.0,4.0,-10.0,0.0,-2.0,-5.0,-2.0,1.0
1705334545.8954158,0.0,7.0,-15.0,0.0,-6.0,-3.0,-3.0,0.0
1705334545.8954158,3.0,-2.0,-11.0,-12.0,4.0,9.0,7.0,1.0
1705334545.8954158,-3.0,-4.0,3.0,1.0,2.0,3.0,1.0,-3.0
1705334545.9154315,-3.0,-2.0,-15.0,-1.0,1.0,2.0,-1.0,-1.0
1705334545.9154315,-5.0,-11.0,-1.0,-4.0,-6.0,-9.0,-3.0,-3.0
1705334545.9154315,4.0,-2.0,-7.0,-3.0,-3.0,1.0,-2.0,1.0
1705334545.9154315,-1.0,-7.0,13.0,0.0,-4.0,-3.0,0.0,-2.0
1705334545.925464,0.0,8.0,-23.0,-10.0,-4.0,0.0,-8.0,-2.0
1705334545.925464,-3.0,-3.0,-9.0,-2.0,-3.0,-18.0,-7.0,-2.0
1705334545.935434,-7.0,-9.0,33.0,15.0,-5.0,2.0,-2.0,-5.0
1705334545.935434,1.0,-14.0,-8.0,-5.0,0.0,7.0,3.0,-1.0
1705334545.9555404,-2.0,-23.0,-5.0,-8.0,-6.0,-3.0,1.0,-2.0
1705334545.9555404,-3.0,-1.0,-15.0,26.0,0.0,6.0,3.0,0.0
1705334545.9555404,-4.0,9.0,3.0,-30.0,7.0,-9.0,-6.0,-3.0
1705334545.9555404,-1.0,-10.0,6.0,3.0,1.0,-6.0,-3.0,1.0
1705334545.9954338,0.0,-10.0,-3.0,-7.0,-2.0,-2.0,-3.0,0.0
1705334545.9954338,2.0,-4.0,6.0,-8.0,-7.0,-2.0,-4.0,2.0
1705334545.9954338,-1.0,1.0,-2.0,13.0,3.0,6.0,5.0,2.0
1705334545.9954338,1.0,1.0,-15.0,5.0,5.0,3.0,1.0,-2.0
1705334545.9954338,-3.0,-22.0,13.0,-2.0,1.0,-1.0,0.0,-3.0
1705334545.9954338,-1.0,18.0,-1.0,0.0,-3.0,1.0,0.0,-2.0
1705334545.9954338,4.0,1.0,5.0,-1.0,-4.0,-3.0,-1.0,0.0
1705334545.9954338,-3.0,2.0,20.0,-6.0,-4.0,-3.0,-4.0,-1.0
1705334546.0155745,2.0,-10.0,-21.0,4.0,0.0,-2.0,0.0,0.0
1705334546.0155745,-7.0,-27.0,-5.0,-2.0,6.0,7.0,5.0,-1.0
1705334546.0155745,4.0,52.0,11.0,2.0,0.0,-2.0,0.0,-1.0
1705334546.0155745,-1.0,-11.0,-6.0,-4.0,-2.0,-6.0,-2.0,0.0
1705334546.0454283,-4.0,12.0,-1.0,-3.0,-10.0,-17.0,-2.0,-2.0
1705334546.0454283,5.0,-27.0,9.0,6.0,6.0,5.0,-3.0,-2.0
1705334546.0454283,-5.0,-36.0,-10.0,1.0,2.0,5.0,1.0,0.0
1705334546.0454283,1.0,20.0,-7.0,0.0,-4.0,-19.0,-9.0,-2.0
1705334546.0454283,1.0,11.0,10.0,-2.0,4.0,36.0,12.0,1.0
1705334546.0454283,-1.0,6.0,-3.0,-5.0,-2.0,-11.0,-5.0,-3.0
1705334546.0556688,1.0,-25.0,12.0,5.0,-3.0,-4.0,1.0,6.0
1705334546.0556688,-17.0,-2.0,-8.0,-2.0,-1.0,-14.0,-10.0,-9.0
1705334546.0755007,-8.0,-15.0,-10.0,-7.0,-4.0,-14.0,-21.0,-15.0
1705334546.0755007,-6.0,37.0,8.0,2.0,6.0,70.0,23.0,2.0
1705334546.0755007,2.0,-2.0,-11.0,0.0,3.0,5.0,-8.0,-3.0
1705334546.0755007,4.0,-27.0,-10.0,-8.0,0.0,-3.0,10.0,7.0
1705334546.0954301,0.0,3.0,36.0,14.0,3.0,-8.0,-5.0,1.0
1705334546.0954301,-6.0,-12.0,19.0,-1.0,-11.0,-23.0,-19.0,-12.0
1705334546.0954301,-10.0,9.0,-95.0,-14.0,1.0,-3.0,-2.0,-3.0
1705334546.0954301,3.0,-6.0,16.0,4.0,1.0,13.0,5.0,-2.0
1705334546.1054642,5.0,15.0,47.0,10.0,4.0,1.0,8.0,4.0
1705334546.1054642,6.0,-10.0,-72.0,-11.0,-3.0,-11.0,1.0,5.0
1705334546.1156585,-2.0,-5.0,25.0,0.0,-1.0,2.0,4.0,0.0
1705334546.1156585,10.0,-9.0,13.0,3.0,-5.0,-7.0,-8.0,-3.0
1705334546.1354945,1.0,2.0,-15.0,-3.0,2.0,5.0,3.0,0.0
1705334546.1365643,2.0,17.0,24.0,4.0,-1.0,-9.0,-4.0,2.0
1705334546.1375654,-5.0,0.0,4.0,-1.0,-5.0,-12.0,-5.0,-6.0
1705334546.1375654,-2.0,0.0,-28.0,-7.0,-2.0,10.0,-3.0,1.0
1705334546.1523244,-2.0,-16.0,17.0,5.0,2.0,15.0,5.0,-2.0
1705334546.1523244,10.0,13.0,18.0,0.0,0.0,-5.0,2.0,5.0
1705334546.1523244,7.0,2.0,9.0,5.0,-1.0,-4.0,-2.0,1.0
1705334546.1523244,-7.0,24.0,39.0,5.0,2.0,1.0,1.0,-3.0
1705334546.1723251,-12.0,46.0,-85.0,-9.0,-3.0,-12.0,-5.0,1.0
1705334546.1723251,-7.0,-21.0,-4.0,-10.0,-2.0,-5.0,-7.0,-9.0
1705334546.1723251,-2.0,13.0,12.0,-5.0,-3.0,0.0,0.0,0.0
1705334546.1723251,0.0,-25.0,13.0,-3.0,-2.0,-6.0,-17.0,-2.0
1705334546.1927342,11.0,-4.0,11.0,6.0,7.0,5.0,8.0,8.0
1705334546.1927342,-8.0,5.0,7.0,8.0,2.0,-2.0,3.0,-7.0
1705334546.1927342,4.0,-36.0,-21.0,-10.0,-7.0,1.0,3.0,0.0
1705334546.1927342,-3.0,37.0,-48.0,-3.0,-7.0,0.0,0.0,0.0
1705334546.2224028,-6.0,-2.0,35.0,2.0,-5.0,-11.0,-7.0,-5.0
1705334546.2224028,6.0,-5.0,-5.0,2.0,-1.0,-7.0,-2.0,6.0
1705334546.2224028,-6.0,-7.0,9.0,2.0,3.0,1.0,3.0,-1.0
1705334546.2224028,-2.0,-4.0,-6.0,-3.0,-5.0,-1.0,6.0,-1.0
1705334546.23241,8.0,-2.0,-11.0,-11.0,-8.0,0.0,-2.0,0.0
1705334546.23241,-10.0,-3.0,8.0,-4.0,2.0,-5.0,-3.0,-2.0
1705334546.23241,-3.0,-14.0,-4.0,7.0,2.0,0.0,-4.0,-2.0
1705334546.23241,0.0,1.0,0.0,7.0,2.0,6.0,4.0,1.0
1705334546.2524042,-1.0,-5.0,0.0,-7.0,0.0,-2.0,0.0,1.0
1705334546.2524042,-1.0,-5.0,-6.0,13.0,-2.0,-3.0,-1.0,2.0
1705334546.2524042,-3.0,8.0,6.0,-4.0,-5.0,-3.0,0.0,-4.0
1705334546.2524042,0.0,-1.0,-14.0,-21.0,-10.0,-1.0,-2.0,-1.0
1705334546.2728624,0.0,-7.0,9.0,-13.0,-7.0,-2.0,-1.0,-3.0
1705334546.2728624,0.0,9.0,5.0,34.0,-7.0,2.0,3.0,-2.0
1705334546.2728624,-7.0,-15.0,-8.0,-15.0,14.0,-2.0,-2.0,-2.0
1705334546.2728624,7.0,-19.0,6.0,8.0,7.0,3.0,2.0,3.0
1705334546.2924075,-3.0,4.0,-7.0,-14.0,-2.0,-2.0,-1.0,-2.0
1705334546.2924075,0.0,10.0,-8.0,-14.0,-5.0,-1.0,-3.0,1.0
1705334546.2924075,1.0,13.0,28.0,31.0,-9.0,-2.0,-2.0,-3.0
1705334546.2924075,-3.0,-3.0,-3.0,-6.0,1.0,-1.0,2.0,-2.0
1705334546.3124044,-4.0,-7.0,-25.0,-23.0,-3.0,0.0,-1.0,-1.0
1705334546.3124044,1.0,-5.0,0.0,0.0,2.0,-1.0,-1.0,1.0
1705334546.3124044,-1.0,-5.0,1.0,-2.0,-4.0,-1.0,-1.0,-2.0
1705334546.3124044,-2.0,-1.0,5.0,-1.0,2.0,1.0,4.0,-1.0
1705334546.3327522,1.0,0.0,8.0,21.0,-1.0,-4.0,-1.0,0.0
1705334546.3327522,2.0,3.0,-3.0,-9.0,-1.0,-1.0,1.0,-1.0
1705334546.3327522,-1.0,3.0,-6.0,-7.0,-3.0,3.0,0.0,0.0
1705334546.3327522,-3.0,1.0,38.0,7.0,-2.0,-2.0,-1.0,0.0
1705334546.3524098,-1.0,-18.0,-69.0,-5.0,-1.0,-2.0,0.0,-2.0
1705334546.3524098,4.0,-5.0,-22.0,-13.0,2.0,-3.0,-1.0,2.0
1705334546.3524098,-2.0,6.0,74.0,5.0,-3.0,-5.0,-6.0,-3.0
1705334546.3524098,-4.0,-4.0,-55.0,3.0,-2.0,-2.0,-2.0,-1.0
1705334546.3824046,-2.0,0.0,32.0,3.0,-2.0,-3.0,-3.0,-1.0
1705334546.3824046,-3.0,-2.0,-21.0,-13.0,-3.0,-3.0,-5.0,-2.0
1705334546.3824046,3.0,-1.0,-6.0,3.0,2.0,7.0,7.0,3.0
1705334546.3824046,3.0,2.0,53.0,9.0,4.0,1.0,3.0,0.0
1705334546.3924522,-3.0,-6.0,-68.0,-13.0,-7.0,-8.0,-7.0,-3.0
1705334546.3924522,-3.0,-15.0,-7.0,-21.0,-5.0,1.0,-1.0,0.0
1705334546.3924522,6.0,-1.0,25.0,10.0,7.0,-5.0,-6.0,2.0
1705334546.3924522,4.0,17.0,17.0,8.0,1.0,12.0,3.0,-1.0
1705334546.412432,1.0,5.0,20.0,11.0,4.0,2.0,2.0,3.0
1705334546.412432,0.0,8.0,15.0,-1.0,-4.0,2.0,2.0,-2.0
1705334546.412432,-4.0,13.0,-37.0,-7.0,-5.0,-5.0,-3.0,-3.0
1705334546.412432,0.0,-6.0,-9.0,-12.0,-4.0,-5.0,-13.0,1.0
1705334546.4424033,0.0,-3.0,16.0,2.0,2.0,2.0,2.0,0.0
1705334546.4424033,-2.0,-8.0,6.0,5.0,0.0,-9.0,-4.0,-6.0
1705334546.4424033,4.0,-10.0,31.0,-3.0,-6.0,-17.0,-14.0,-2.0
1705334546.4424033,-17.0,48.0,-43.0,3.0,5.0,32.0,23.0,-5.0
1705334546.4524078,6.0,0.0,-43.0,-3.0,-6.0,-8.0,0.0,-4.0
1705334546.4524078,-10.0,4.0,-1.0,-11.0,-7.0,-47.0,-15.0,-7.0
1705334546.4524078,1.0,-9.0,41.0,3.0,9.0,70.0,24.0,-15.0
1705334546.4524078,5.0,-54.0,6.0,-4.0,-6.0,-26.0,-7.0,30.0
1705334546.472404,4.0,-15.0,43.0,13.0,1.0,13.0,-3.0,-1.0
1705334546.472404,2.0,67.0,-25.0,-8.0,3.0,26.0,8.0,-20.0
1705334546.472404,19.0,-3.0,-29.0,-8.0,-9.0,-38.0,-29.0,-12.0
1705334546.472404,16.0,2.0,20.0,3.0,3.0,17.0,44.0,18.0
1705334546.492842,-23.0,-26.0,4.0,9.0,2.0,10.0,9.0,-13.0
1705334546.492842,2.0,-28.0,-7.0,-5.0,-5.0,-16.0,-4.0,6.0
1705334546.492842,-10.0,7.0,-26.0,-7.0,-3.0,-1.0,0.0,14.0
1705334546.492842,-2.0,26.0,-9.0,-13.0,-7.0,-10.0,-25.0,-15.0
1705334546.5128615,-2.0,1.0,-34.0,-14.0,-4.0,-23.0,-11.0,2.0
1705334546.5128615,3.0,-17.0,-15.0,15.0,1.0,15.0,6.0,6.0
1705334546.5128615,-7.0,-11.0,8.0,-9.0,-3.0,-6.0,-5.0,2.0
1705334546.5128615,-3.0,-19.0,-11.0,-9.0,-5.0,-6.0,-9.0,-11.0
1705334546.532405,3.0,14.0,58.0,23.0,2.0,2.0,6.0,1.0
1705334546.532405,-5.0,-26.0,-11.0,7.0,4.0,1.0,-8.0,2.0
1705334546.532405,1.0,-12.0,-22.0,17.0,9.0,6.0,10.0,6.0
1705334546.532405,-4.0,7.0,-22.0,-21.0,-5.0,-11.0,-6.0,-6.0
1705334546.5528424,0.0,3.0,8.0,-34.0,-4.0,4.0,-1.0,5.0
1705334546.5528424,1.0,-4.0,29.0,27.0,-2.0,7.0,2.0,2.0
1705334546.5528424,-5.0,-6.0,-17.0,-7.0,-8.0,-10.0,0.0,0.0
1705334546.5528424,-3.0,-8.0,-3.0,-14.0,0.0,-4.0,-3.0,-6.0
1705334546.572848,0.0,9.0,22.0,15.0,-5.0,-4.0,-8.0,-2.0
1705334546.572848,1.0,-7.0,11.0,-5.0,2.0,4.0,4.0,2.0
1705334546.572848,-2.0,6.0,-23.0,-11.0,-5.0,-4.0,1.0,-1.0
1705334546.572848,-7.0,-2.0,23.0,19.0,1.0,-3.0,-8.0,-5.0
1705334546.592405,-3.0,1.0,4.0,-1.0,3.0,0.0,1.0,1.0
1705334546.592405,3.0,-2.0,13.0,13.0,-1.0,-4.0,0.0,2.0
1705334546.592405,-3.0,8.0,-11.0,1.0,-2.0,1.0,0.0,0.0
1705334546.592405,1.0,-19.0,-7.0,-8.0,-3.0,-2.0,-3.0,-4.0
1705334546.612832,-2.0,-8.0,2.0,2.0,3.0,-2.0,-3.0,0.0
1705334546.612832,-2.0,5.0,-1.0,-14.0,-2.0,3.0,-1.0,0.0
1705334546.622407,-5.0,1.0,-9.0,-11.0,-1.0,-5.0,-4.0,0.0
1705334546.622407,-3.0,-5.0,0.0,1.0,-6.0,-4.0,-4.0,-4.0
1705334546.6424038,0.0,2.0,-2.0,4.0,-1.0,1.0,4.0,0.0
1705334546.6424038,-1.0,-15.0,3.0,1.0,6.0,0.0,-4.0,-2.0
1705334546.6424038,1.0,8.0,21.0,16.0,8.0,5.0,4.0,0.0
1705334546.6424038,-1.0,-11.0,-19.0,1.0,-2.0,-5.0,-1.0,-1.0
1705334546.6524086,-3.0,-5.0,-6.0,-12.0,-8.0,-5.0,-5.0,-2.0
1705334546.6524086,-1.0,-4.0,-5.0,-14.0,-1.0,1.0,2.0,2.0
1705334546.660119,-1.0,-2.0,0.0,-3.0,-2.0,-3.0,2.0,1.0
1705334546.660119,-1.0,5.0,6.0,18.0,3.0,2.0,-2.0,-1.0
1705334546.675545,1.0,2.0,1.0,-11.0,-4.0,-2.0,-2.0,2.0
1705334546.675545,-1.0,-11.0,-7.0,-9.0,-3.0,0.0,2.0,1.0
1705334546.6771405,-7.0,-1.0,-15.0,5.0,-2.0,-2.0,-2.0,-2.0
1705334546.6771405,-1.0,1.0,9.0,-2.0,0.0,-2.0,-1.0,-1.0
1705334546.6947877,4.0,-3.0,-2.0,-5.0,-2.0,1.0,2.0,3.0
1705334546.6947877,-5.0,-8.0,-21.0,-2.0,-1.0,2.0,-1.0,-1.0
1705334546.6947877,0.0,-6.0,14.0,3.0,-4.0,-5.0,-2.0,-2.0
1705334546.6947877,4.0,1.0,-3.0,1.0,-1.0,1.0,0.0,-1.0
1705334546.7048194,-17.0,1.0,6.0,7.0,4.0,-3.0,-3.0,-8.0
1705334546.7048194,1.0,-25.0,17.0,0.0,-5.0,-3.0,1.0,2.0
1705334546.7128344,-3.0,16.0,-8.0,-9.0,-4.0,-4.0,-1.0,-2.0
1705334546.7128344,-1.0,-5.0,-52.0,-9.0,3.0,2.0,-1.0,1.0
1705334546.7332962,6.0,-5.0,15.0,6.0,2.0,0.0,-2.0,-1.0
1705334546.7332962,-3.0,0.0,7.0,-5.0,-4.0,-5.0,-5.0,-1.0
1705334546.7332962,-2.0,-2.0,-1.0,-5.0,-5.0,-1.0,-1.0,-1.0
1705334546.7332962,-2.0,-6.0,17.0,3.0,-2.0,-1.0,-1.0,-2.0
1705334546.762842,5.0,7.0,14.0,24.0,4.0,4.0,3.0,3.0
1705334546.762842,-2.0,-2.0,-41.0,-22.0,3.0,2.0,-1.0,-1.0
1705334546.762842,-1.0,11.0,4.0,-4.0,-1.0,-2.0,-4.0,-2.0
1705334546.762842,0.0,-9.0,0.0,-2.0,0.0,-1.0,-3.0,0.0
1705334546.7732208,-1.0,5.0,17.0,18.0,2.0,-1.0,-1.0,-1.0
1705334546.7732208,1.0,14.0,-7.0,-8.0,-3.0,-2.0,-1.0,-2.0
1705334546.7732208,-1.0,-15.0,-14.0,-11.0,-4.0,-4.0,0.0,1.0
1705334546.7828503,0.0,1.0,30.0,5.0,-1.0,-1.0,-1.0,-2.0
1705334546.792981,-1.0,1.0,-14.0,2.0,-1.0,0.0,-1.0,0.0
1705334546.792981,-4.0,-2.0,-30.0,3.0,0.0,-2.0,-1.0,-1.0
1705334546.792981,-7.0,-11.0,-26.0,-8.0,-4.0,0.0,-1.0,-5.0
1705334546.792981,1.0,14.0,-5.0,-7.0,-2.0,-3.0,-2.0,5.0
1705334546.8127475,-6.0,-5.0,17.0,-2.0,-3.0,-5.0,-5.0,-6.0
1705334546.8127475,10.0,7.0,19.0,2.0,-2.0,0.0,-1.0,1.0
1705334546.8327568,-2.0,-8.0,-8.0,-2.0,-2.0,1.0,0.0,-2.0
1705334546.8327568,-2.0,-15.0,8.0,10.0,3.0,0.0,4.0,10.0
1705334546.8327568,-10.0,14.0,-11.0,-10.0,-3.0,-2.0,-1.0,-8.0
1705334546.8327568,-3.0,0.0,9.0,0.0,1.0,0.0,-2.0,-3.0
1705334546.8427622,1.0,4.0,-1.0,4.0,3.0,0.0,2.0,0.0
1705334546.8427622,0.0,-2.0,14.0,1.0,-1.0,-3.0,-4.0,0.0
1705334546.8528323,1.0,-12.0,-19.0,-9.0,-1.0,1.0,3.0,3.0
1705334546.8528323,-2.0,2.0,18.0,7.0,0.0,1.0,-1.0,1.0
1705334546.8528323,3.0,-1.0,24.0,9.0,2.0,1.0,1.0,0.0
1705334546.8528323,-9.0,-15.0,-89.0,-19.0,-13.0,-5.0,-2.0,-7.0
1705334546.8727586,-4.0,4.0,4.0,-13.0,-1.0,-2.0,-2.0,0.0
1705334546.8727586,0.0,-4.0,-1.0,15.0,14.0,2.0,-1.0,-1.0
1705334546.8727586,-1.0,5.0,19.0,-4.0,-8.0,-5.0,-4.0,1.0
1705334546.8727586,6.0,2.0,32.0,25.0,5.0,3.0,1.0,-2.0
1705334546.89318,2.0,-15.0,-17.0,-1.0,-3.0,-2.0,-4.0,-2.0
1705334546.89318,-4.0,-7.0,21.0,1.0,-11.0,-7.0,-3.0,-2.0
1705334546.89318,-1.0,4.0,-16.0,-12.0,7.0,2.0,0.0,1.0
1705334546.89318,-3.0,1.0,-8.0,-11.0,-7.0,-2.0,-2.0,-5.0
1705334546.9227588,9.0,8.0,5.0,-1.0,-3.0,0.0,-1.0,1.0
1705334546.9227588,-5.0,-9.0,16.0,4.0,1.0,2.0,2.0,-3.0
1705334546.9227588,-3.0,-17.0,-19.0,-1.0,-3.0,-2.0,-1.0,-1.0
1705334546.9227588,1.0,-3.0,17.0,2.0,0.0,1.0,-2.0,-3.0
1705334546.932807,5.0,-2.0,1.0,-4.0,2.0,3.0,1.0,2.0
1705334546.932807,-6.0,-4.0,-5.0,-3.0,-4.0,-4.0,-5.0,-8.0
1705334546.932807,2.0,-9.0,-1.0,-1.0,-3.0,-1.0,-1.0,3.0
1705334546.932807,0.0,-9.0,11.0,-1.0,3.0,-1.0,2.0,-3.0
1705334546.9531085,-2.0,26.0,-20.0,-2.0,0.0,-6.0,-3.0,1.0
1705334546.9531085,6.0,-4.0,-4.0,-6.0,-3.0,0.0,1.0,1.0
1705334546.9627628,-12.0,12.0,-5.0,1.0,-2.0,-2.0,-3.0,-5.0
1705334546.9627628,2.0,-1.0,15.0,-5.0,-4.0,-5.0,-4.0,2.0
1705334546.9727616,-3.0,-21.0,17.0,0.0,-10.0,-2.0,-1.0,-2.0
1705334546.9727616,-1.0,-4.0,-16.0,-10.0,2.0,2.0,1.0,2.0
1705334546.9927561,2.0,8.0,-2.0,13.0,14.0,1.0,2.0,1.0
1705334546.9927561,-6.0,-12.0,0.0,6.0,1.0,-5.0,-4.0,-3.0
1705334546.9927561,-1.0,-3.0,0.0,-6.0,-4.0,0.0,0.0,-1.0
1705334546.9927561,-2.0,2.0,25.0,5.0,-10.0,-5.0,-2.0,-2.0
1705334546.9927561,2.0,-2.0,-17.0,-2.0,-2.0,3.0,-2.0,0.0
1705334546.9927561,-2.0,4.0,9.0,2.0,1.0,0.0,-1.0,-2.0
1705334547.0130122,0.0,-4.0,8.0,-3.0,0.0,-2.0,1.0,0.0
1705334547.0130122,-1.0,1.0,-24.0,-12.0,-4.0,1.0,0.0,0.0
1705334547.0130122,-1.0,-1.0,10.0,1.0,-2.0,-1.0,0.0,-2.0
1705334547.0130122,5.0,5.0,5.0,-5.0,0.0,-1.0,0.0,5.0
1705334547.0328832,-26.0,-5.0,0.0,2.0,0.0,-2.0,-3.0,-7.0
1705334547.0328832,0.0,4.0,4.0,4.0,1.0,-1.0,-1.0,-16.0
1705334547.052762,-3.0,-1.0,1.0,-2.0,-3.0,-8.0,-6.0,1.0
1705334547.052762,-8.0,4.0,5.0,1.0,1.0,-3.0,2.0,0.0
1705334547.052762,24.0,-18.0,-11.0,0.0,2.0,4.0,-1.0,17.0
1705334547.052762,-1.0,7.0,-2.0,-3.0,-2.0,-4.0,-3.0,0.0
1705334547.052762,-1.0,-11.0,8.0,1.0,-2.0,6.0,3.0,-6.0
1705334547.052762,-2.0,5.0,-4.0,-4.0,-5.0,-9.0,-4.0,-7.0
1705334547.0731068,0.0,1.0,-14.0,-6.0,1.0,2.0,2.0,-2.0
1705334547.0731068,1.0,0.0,45.0,16.0,4.0,-1.0,-2.0,7.0
1705334547.0827637,3.0,-16.0,-39.0,2.0,-2.0,-4.0,-1.0,-7.0
1705334547.0827637,-2.0,11.0,-18.0,-17.0,-4.0,-8.0,-6.0,1.0
1705334547.1028008,-2.0,-1.0,7.0,5.0,-4.0,-6.0,-4.0,-5.0
1705334547.1028008,2.0,1.0,-8.0,-5.0,-2.0,3.0,0.0,1.0
1705334547.1028008,-2.0,-7.0,11.0,2.0,-1.0,0.0,2.0,1.0
1705334547.1028008,5.0,-10.0,-15.0,-9.0,2.0,8.0,2.0,4.0
1705334547.1128175,-10.0,-8.0,29.0,9.0,3.0,1.0,-1.0,-11.0
1705334547.1128175,-1.0,3.0,-31.0,-5.0,-3.0,-2.0,0.0,-7.0
1705334547.1128175,-3.0,19.0,13.0,3.0,-2.0,-2.0,-3.0,2.0
1705334547.1128175,0.0,-2.0,-17.0,-3.0,-3.0,-2.0,-3.0,4.0
1705334547.1331515,6.0,-4.0,20.0,0.0,2.0,2.0,3.0,-1.0
1705334547.1331515,-1.0,-7.0,-2.0,4.0,2.0,-2.0,2.0,6.0
1705334547.1331515,-4.0,-1.0,-17.0,-12.0,-9.0,-6.0,-3.0,-5.0
1705334547.1428225,1.0,2.0,24.0,15.0,0.0,2.0,-1.0,-2.0
1705334547.152817,2.0,-9.0,-43.0,-17.0,0.0,0.0,1.0,6.0
1705334547.152817,-7.0,3.0,11.0,2.0,2.0,4.0,-2.0,-7.0
1705334547.1628442,4.0,-2.0,1.0,-3.0,-1.0,0.0,1.0,4.0
1705334547.1628442,-5.0,0.0,0.0,0.0,-4.0,-1.0,-1.0,-9.0
1705334547.1731257,3.0,0.0,11.0,6.0,-2.0,-3.0,0.0,3.0
1705334547.1731257,1.0,-19.0,-22.0,-5.0,-2.0,-3.0,-2.0,4.0
1705334547.1731257,-1.0,11.0,8.0,-6.0,-4.0,-5.0,0.0,-1.0
1705334547.1731257,2.0,3.0,-1.0,0.0,-1.0,6.0,3.0,0.0
1705334547.1942098,-2.0,5.0,0.0,4.0,-1.0,-2.0,-3.0,-3.0
1705334547.1942098,6.0,3.0,11.0,1.0,0.0,2.0,2.0,6.0
1705334547.1942098,-1.0,-13.0,3.0,3.0,1.0,1.0,0.0,-3.0
1705334547.1942098,-4.0,-2.0,5.0,2.0,1.0,0.0,0.0,-2.0
1705334547.2144108,0.0,9.0,-24.0,-6.0,-3.0,-4.0,-1.0,-1.0
1705334547.2144108,-2.0,5.0,0.0,-5.0,-2.0,-1.0,-2.0,-3.0
1705334547.2229967,1.0,-7.0,-6.0,-3.0,-3.0,0.0,-2.0,2.0
1705334547.2229967,-7.0,2.0,-2.0,-5.0,-1.0,-1.0,0.0,-2.0
1705334547.2344506,3.0,-5.0,13.0,5.0,-1.0,-4.0,-3.0,0.0
1705334547.2344506,-4.0,-1.0,-17.0,-3.0,-1.0,-1.0,0.0,0.0
1705334547.2344506,-1.0,-8.0,15.0,-2.0,0.0,-1.0,-2.0,-2.0
1705334547.2344506,1.0,-6.0,-10.0,-6.0,-2.0,1.0,-2.0,-4.0
1705334547.2548163,0.0,-2.0,1.0,-3.0,1.0,1.0,-1.0,-1.0
1705334547.2548163,0.0,10.0,27.0,13.0,2.0,-3.0,-2.0,-1.0
1705334547.2548163,3.0,-1.0,27.0,11.0,2.0,1.0,-1.0,0.0
1705334547.2548163,-10.0,-9.0,-77.0,-28.0,-8.0,-9.0,-6.0,-4.0
1705334547.274454,-4.0,4.0,24.0,3.0,-3.0,-5.0,-3.0,-4.0
1705334547.274454,0.0,7.0,-6.0,0.0,2.0,1.0,2.0,0.0
1705334547.2844493,1.0,-7.0,7.0,-17.0,-2.0,2.0,1.0,-1.0
1705334547.2844493,2.0,-6.0,30.0,16.0,3.0,3.0,3.0,2.0
1705334547.2947044,1.0,9.0,-31.0,3.0,2.0,0.0,-3.0,-2.0
1705334547.2947044,-5.0,3.0,1.0,-13.0,-8.0,-7.0,-3.0,-4.0
1705334547.2947044,-2.0,3.0,-12.0,4.0,1.0,-3.0,-2.0,2.0
1705334547.2947044,-1.0,-13.0,0.0,-5.0,0.0,1.0,2.0,-1.0
1705334547.3229718,0.0,-3.0,10.0,-1.0,-4.0,2.0,-1.0,-1.0
1705334547.3229718,-1.0,7.0,-7.0,1.0,-1.0,-2.0,-2.0,0.0
1705334547.3229718,-3.0,0.0,0.0,-1.0,1.0,0.0,-1.0,-1.0
1705334547.3229718,0.0,5.0,39.0,7.0,-1.0,-3.0,-2.0,-2.0
1705334547.3332608,2.0,-29.0,-24.0,2.0,1.0,2.0,1.0,4.0
1705334547.3332608,-5.0,-1.0,-15.0,-8.0,-4.0,-4.0,-3.0,-6.0
1705334547.3429854,-3.0,6.0,9.0,-16.0,-8.0,-7.0,-1.0,-1.0
1705334547.3429854,-1.0,19.0,-25.0,0.0,2.0,-1.0,0.0,-1.0
1705334547.3529873,0.0,1.0,20.0,9.0,3.0,2.0,1.0,-3.0
1705334547.3529873,7.0,-1.0,5.0,3.0,-1.0,1.0,5.0,8.0
1705334547.3529873,4.0,-18.0,-49.0,-24.0,-10.0,-3.0,-5.0,-3.0
1705334547.3529873,-16.0,3.0,33.0,3.0,-2.0,-1.0,-4.0,-5.0
1705334547.3829842,-1.0,-8.0,-11.0,-5.0,2.0,-3.0,-2.0,-2.0
1705334547.3829842,-2.0,-2.0,3.0,6.0,1.0,-1.0,-2.0,-1.0
1705334547.3829842,-1.0,0.0,13.0,12.0,4.0,2.0,-2.0,-1.0
1705334547.3829842,5.0,-6.0,-7.0,-4.0,-4.0,-3.0,-1.0,2.0
1705334547.3930163,-3.0,6.0,-11.0,-9.0,-11.0,1.0,2.0,-3.0
1705334547.3930163,-3.0,-6.0,17.0,8.0,3.0,-1.0,-3.0,-2.0
1705334547.4029834,-1.0,-9.0,-2.0,4.0,9.0,2.0,-2.0,2.0
1705334547.4029834,1.0,-11.0,-19.0,-2.0,0.0,1.0,0.0,-1.0
1705334547.413391,-3.0,-2.0,14.0,-3.0,-1.0,-4.0,-2.0,-1.0
1705334547.413391,4.0,31.0,8.0,-2.0,-8.0,-5.0,-2.0,-1.0
1705334547.413391,-3.0,0.0,-3.0,6.0,-2.0,-2.0,-3.0,-3.0
1705334547.413391,-1.0,-4.0,-4.0,-6.0,1.0,2.0,0.0,-1.0
1705334547.4330218,2.0,0.0,-3.0,-8.0,-4.0,-2.0,-2.0,0.0
1705334547.4330218,-3.0,-13.0,-11.0,-4.0,-1.0,-1.0,-1.0,-2.0
1705334547.4330218,-3.0,-2.0,15.0,8.0,3.0,0.0,1.0,-1.0
1705334547.4330218,3.0,-2.0,0.0,2.0,1.0,-1.0,-1.0,0.0
1705334547.4530272,-2.0,4.0,-3.0,-7.0,-2.0,-4.0,-3.0,-3.0
1705334547.4530272,-3.0,-21.0,0.0,-4.0,-1.0,-1.0,-2.0,-1.0
1705334547.4630237,0.0,15.0,0.0,1.0,-2.0,1.0,0.0,0.0
1705334547.4630237,3.0,-10.0,4.0,2.0,-3.0,0.0,0.0,1.0
1705334547.4830213,-2.0,4.0,-10.0,-5.0,0.0,-1.0,-1.0,-2.0
1705334547.4830213,-2.0,-5.0,49.0,17.0,2.0,-1.0,0.0,-2.0
1705334547.4830213,0.0,4.0,-13.0,-2.0,-4.0,-2.0,-2.0,1.0
1705334547.4830213,-2.0,-7.0,-43.0,-9.0,-3.0,-2.0,-2.0,-2.0
1705334547.493268,-1.0,-6.0,-13.0,-1.0,3.0,1.0,0.0,-2.0
1705334547.493268,-3.0,-7.0,-32.0,-12.0,-2.0,0.0,-2.0,-1.0
1705334547.493268,2.0,1.0,35.0,8.0,-1.0,-2.0,0.0,-1.0
1705334547.5030327,5.0,-3.0,13.0,-1.0,-3.0,-2.0,-1.0,-1.0
1705334547.5133276,-1.0,0.0,-5.0,3.0,1.0,-3.0,-3.0,-1.0
1705334547.5133276,3.0,-2.0,-1.0,-6.0,0.0,2.0,1.0,-2.0
1705334547.5230272,-9.0,-6.0,-28.0,-11.0,-7.0,-2.0,-1.0,-6.0
1705334547.5230272,-1.0,-2.0,14.0,-4.0,-3.0,-6.0,-4.0,-2.0
1705334547.5530257,3.0,-3.0,-5.0,17.0,0.0,1.0,2.0,1.0
1705334547.5530257,2.0,-2.0,14.0,0.0,4.0,0.0,0.0,0.0
1705334547.5530257,0.0,-6.0,-20.0,1.0,-3.0,-1.0,0.0,3.0
1705334547.5530257,0.0,2.0,14.0,-9.0,-2.0,-2.0,-1.0,-2.0
1705334547.5530257,0.0,0.0,6.0,3.0,3.0,-1.0,-2.0,-2.0
1705334547.5530257,-2.0,-1.0,-15.0,1.0,-2.0,-2.0,-4.0,-3.0
1705334547.5530257,1.0,0.0,4.0,-2.0,-2.0,-3.0,-1.0,0.0
1705334547.5530257,-3.0,-2.0,7.0,1.0,-1.0,1.0,-1.0,0.0
1705334547.5730746,0.0,-2.0,4.0,-4.0,-5.0,-4.0,-2.0,-2.0
1705334547.5730746,-2.0,17.0,-8.0,-5.0,-2.0,0.0,-1.0,1.0
1705334547.5830271,0.0,-9.0,-2.0,-2.0,2.0,0.0,-2.0,-1.0
1705334547.5830271,0.0,15.0,12.0,5.0,1.0,0.0,0.0,-1.0
1705334547.6030214,-5.0,-15.0,-2.0,-1.0,3.0,-1.0,-3.0,-1.0
1705334547.6030214,0.0,-7.0,8.0,6.0,-1.0,1.0,-1.0,-1.0
1705334547.6030214,1.0,2.0,-10.0,-10.0,0.0,-1.0,-1.0,-1.0
1705334547.6030214,-3.0,-6.0,1.0,-4.0,-2.0,0.0,-1.0,1.0
1705334547.6132517,-3.0,2.0,0.0,0.0,-1.0,-1.0,-2.0,-1.0
1705334547.6132517,-3.0,-5.0,-10.0,-6.0,-4.0,-2.0,-1.0,-1.0
1705334547.6132517,2.0,7.0,26.0,16.0,3.0,1.0,2.0,0.0
1705334547.6230316,1.0,1.0,-2.0,-7.0,0.0,1.0,1.0,-1.0
1705334547.6333435,1.0,-10.0,15.0,2.0,0.0,1.0,0.0,-1.0
1705334547.6333435,-1.0,27.0,-4.0,-8.0,-3.0,-2.0,-1.0,-1.0
1705334547.6430273,-2.0,-5.0,-22.0,-1.0,1.0,1.0,-3.0,-1.0
1705334547.6430273,-5.0,-8.0,-4.0,-3.0,-4.0,-1.0,0.0,-3.0
1705334547.6730223,-2.0,0.0,0.0,-5.0,-5.0,-3.0,-2.0,0.0
1705334547.6730223,1.0,-19.0,-2.0,7.0,7.0,0.0,-2.0,-1.0
1705334547.6730223,5.0,-12.0,16.0,6.0,1.0,1.0,3.0,0.0
1705334547.6730223,3.0,20.0,-3.0,2.0,0.0,-2.0,-3.0,0.0
1705334547.6730223,-1.0,12.0,-13.0,-6.0,-5.0,-2.0,-1.0,-4.0
1705334547.6730223,-3.0,-4.0,12.0,-1.0,-4.0,-2.0,-2.0,-3.0
1705334547.6730223,-12.0,-9.0,-25.0,-12.0,-5.0,-3.0,-1.0,0.0
1705334547.6730223,3.0,-18.0,-31.0,-15.0,-4.0,-3.0,-2.0,-1.0
1705334547.6930265,3.0,10.0,6.0,-2.0,1.0,3.0,1.0,0.0
1705334547.6930265,-5.0,2.0,3.0,9.0,3.0,-1.0,-2.0,-1.0
1705334547.713023,2.0,0.0,37.0,20.0,1.0,-3.0,-1.0,-1.0
1705334547.7134635,-1.0,-1.0,0.0,-1.0,-3.0,-1.0,-3.0,-1.0
1705334547.7176929,2.0,-6.0,-13.0,-18.0,-2.0,-3.0,-1.0,-1.0
1705334547.7176929,-3.0,-6.0,-5.0,1.0,0.0,-1.0,0.0,0.0
1705334547.7193608,3.0,3.0,-6.0,-1.0,0.0,-2.0,0.0,-1.0
1705334547.7193608,-7.0,-11.0,-9.0,1.0,2.0,0.0,0.0,-2.0
1705334547.7340658,-3.0,-25.0,-5.0,-1.0,-3.0,-4.0,-2.0,-1.0
1705334547.7340658,3.0,19.0,6.0,-5.0,-6.0,-3.0,0.0,-2.0
1705334547.744394,-2.0,-18.0,-8.0,-8.0,-3.0,2.0,2.0,0.0
1705334547.744394,0.0,26.0,12.0,13.0,4.0,0.0,-1.0,-3.0
1705334547.7640657,0.0,-9.0,-6.0,1.0,0.0,-1.0,-1.0,3.0
1705334547.7640657,-1.0,-23.0,-16.0,-11.0,-5.0,3.0,3.0,0.0
1705334547.7640657,-1.0,7.0,9.0,-8.0,-3.0,-3.0,-5.0,-3.0
1705334547.7640657,0.0,-8.0,6.0,2.0,-3.0,-4.0,-1.0,0.0
1705334547.774226,-4.0,-4.0,-1.0,10.0,4.0,1.0,0.0,-1.0
1705334547.774226,-2.0,0.0,-11.0,2.0,3.0,0.0,-2.0,0.0
1705334547.774226,2.0,5.0,-5.0,-10.0,-5.0,-3.0,-4.0,-1.0
1705334547.774226,-4.0,-7.0,7.0,4.0,-3.0,0.0,-2.0,-2.0
1705334547.7943535,-3.0,11.0,-6.0,-8.0,-6.0,-5.0,-1.0,-1.0
1705334547.7943535,3.0,-7.0,-6.0,-8.0,-3.0,-1.0,-2.0,-1.0
1705334547.7943535,-6.0,0.0,-4.0,-4.0,1.0,-1.0,1.0,-2.0
1705334547.7943535,-3.0,-6.0,1.0,5.0,-2.0,-3.0,-3.0,-1.0
1705334547.823191,-2.0,16.0,38.0,7.0,-3.0,-3.0,-5.0,-3.0
1705334547.823191,-1.0,-19.0,-10.0,-4.0,1.0,4.0,0.0,-3.0
1705334547.823191,-1.0,-1.0,-36.0,-3.0,-2.0,-1.0,-1.0,-2.0
1705334547.823191,1.0,-2.0,12.0,9.0,0.0,0.0,0.0,0.0
1705334547.8332362,1.0,-3.0,8.0,-14.0,-2.0,-1.0,0.0,0.0
1705334547.8332362,0.0,3.0,14.0,9.0,-1.0,-5.0,-4.0,-1.0
1705334547.8434348,0.0,-4.0,4.0,-2.0,2.0,1.0,0.0,-1.0
1705334547.8434348,1.0,-12.0,-19.0,-2.0,2.0,-1.0,-1.0,1.0
1705334547.853483,2.0,6.0,10.0,2.0,-5.0,-3.0,-4.0,-3.0
1705334547.853483,-3.0,-10.0,-10.0,-6.0,-3.0,-4.0,-4.0,-2.0
1705334547.853483,1.0,9.0,6.0,-2.0,-1.0,-1.0,2.0,1.0
1705334547.853483,1.0,-7.0,15.0,0.0,5.0,-2.0,0.0,0.0
1705334547.8932045,-5.0,4.0,-8.0,8.0,0.0,-2.0,-2.0,-1.0
1705334547.8932045,-4.0,-7.0,-17.0,5.0,-6.0,1.0,0.0,0.0
1705334547.8932045,1.0,0.0,0.0,-15.0,-1.0,-1.0,-5.0,0.0
1705334547.8932045,-1.0,-11.0,-8.0,-16.0,0.0,-2.0,-4.0,0.0
1705334547.8932045,0.0,-1.0,-15.0,-4.0,-1.0,0.0,2.0,-2.0
1705334547.8932045,2.0,8.0,10.0,-3.0,-3.0,-4.0,-3.0,0.0
1705334547.9032369,1.0,2.0,17.0,5.0,-4.0,-4.0,-4.0,0.0
1705334547.9032369,-2.0,-2.0,-9.0,0.0,-5.0,1.0,1.0,-2.0
1705334547.9135826,1.0,-1.0,-6.0,5.0,5.0,3.0,0.0,0.0
1705334547.9135826,-1.0,0.0,4.0,-3.0,0.0,-2.0,0.0,-1.0
1705334547.9135826,-1.0,-9.0,1.0,-1.0,0.0,-4.0,-2.0,-1.0
1705334547.9135826,-1.0,2.0,2.0,-1.0,1.0,-2.0,0.0,-1.0
1705334547.9331005,-1.0,-1.0,-6.0,-4.0,-6.0,-2.0,-2.0,-1.0
1705334547.9331005,-4.0,7.0,12.0,1.0,-3.0,1.0,0.0,-1.0
1705334547.9431055,-2.0,4.0,-2.0,-4.0,-1.0,-1.0,-1.0,-1.0
1705334547.9431055,-1.0,-12.0,-32.0,-5.0,2.0,-5.0,-4.0,-2.0
1705334547.9531062,0.0,-7.0,-2.0,3.0,3.0,7.0,1.0,0.0
1705334547.9531062,0.0,12.0,5.0,-5.0,-5.0,-2.0,-2.0,-2.0
1705334547.9633389,-4.0,0.0,2.0,5.0,-3.0,-1.0,-1.0,-2.0
1705334547.9633389,-1.0,-6.0,27.0,16.0,3.0,0.0,-1.0,1.0
1705334547.973404,-3.0,14.0,-19.0,-10.0,-3.0,-4.0,-3.0,-2.0
1705334547.973404,0.0,-2.0,-4.0,-16.0,-3.0,-2.0,-1.0,0.0
1705334547.973404,1.0,-8.0,9.0,7.0,2.0,-1.0,-1.0,0.0
1705334547.973404,-2.0,-3.0,3.0,-5.0,-2.0,-2.0,-1.0,-2.0
1705334548.0031002,-1.0,-6.0,10.0,6.0,2.0,0.0,0.0,-1.0
1705334548.0031002,4.0,6.0,4.0,1.0,-2.0,-2.0,-1.0,1.0
1705334548.0031002,7.0,-19.0,-16.0,-2.0,0.0,-1.0,-1.0,0.0
1705334548.0031002,-1.0,1.0,0.0,2.0,-3.0,2.0,4.0,-1.0
1705334548.0133026,-9.0,-10.0,-5.0,3.0,3.0,-2.0,-1.0,1.0
1705334548.0133026,-5.0,3.0,21.0,-12.0,-2.0,-5.0,-3.0,-3.0
1705334548.0233254,-2.0,-4.0,-5.0,-3.0,-2.0,-1.0,0.0,-2.0
1705334548.0233254,3.0,1.0,4.0,3.0,0.0,-4.0,-7.0,-2.0
1705334548.033358,1.0,0.0,1.0,0.0,-3.0,-1.0,3.0,0.0
1705334548.033358,1.0,-2.0,17.0,10.0,5.0,3.0,2.0,-1.0
1705334548.033358,0.0,-7.0,22.0,16.0,-2.0,-3.0,0.0,0.0
1705334548.033358,-10.0,15.0,-55.0,-25.0,-8.0,-2.0,-7.0,-5.0
1705334548.0731003,-1.0,-3.0,-17.0,-16.0,-1.0,-2.0,-1.0,1.0
1705334548.0731003,-1.0,-9.0,-5.0,2.0,3.0,-2.0,-2.0,-1.0
1705334548.0731003,1.0,2.0,41.0,16.0,5.0,4.0,0.0,1.0
1705334548.0731003,3.0,0.0,17.0,8.0,0.0,-3.0,1.0,1.0
1705334548.0731003,-4.0,-4.0,-47.0,-8.0,-7.0,-5.0,-5.0,-5.0
1705334548.0731003,-3.0,-9.0,-1.0,-13.0,-2.0,2.0,-2.0,-3.0
1705334548.0830991,0.0,6.0,-23.0,-3.0,-2.0,0.0,0.0,0.0
1705334548.0830991,3.0,-3.0,24.0,5.0,-1.0,-2.0,1.0,1.0
1705334548.0931027,2.0,-10.0,14.0,6.0,1.0,1.0,-2.0,-1.0
1705334548.0931027,-1.0,-12.0,-5.0,0.0,-3.0,1.0,0.0,0.0
1705334548.0931027,-7.0,40.0,-13.0,-12.0,-4.0,-6.0,-4.0,-5.0
1705334548.0931027,1.0,-1.0,15.0,14.0,2.0,1.0,1.0,0.0
1705334548.1231844,0.0,-46.0,7.0,6.0,2.0,2.0,-1.0,0.0
1705334548.1231844,2.0,57.0,-17.0,-4.0,-4.0,-7.0,-6.0,-4.0
1705334548.1231844,1.0,-10.0,18.0,-6.0,-5.0,1.0,-1.0,2.0
1705334548.1231844,-2.0,-11.0,-30.0,-18.0,-3.0,1.0,-1.0,-2.0
1705334548.133363,2.0,15.0,34.0,-1.0,3.0,-2.0,0.0,0.0
1705334548.133363,0.0,-35.0,-30.0,1.0,1.0,0.0,-2.0,-1.0
1705334548.1432536,-3.0,-24.0,-2.0,-1.0,-2.0,-1.0,-1.0,-1.0
1705334548.1432536,2.0,15.0,39.0,20.0,4.0,3.0,6.0,-1.0
1705334548.1631007,1.0,-22.0,-14.0,-5.0,-3.0,-2.0,0.0,-1.0
1705334548.1631007,-5.0,27.0,-24.0,-14.0,-7.0,-6.0,-3.0,-1.0
1705334548.1631007,4.0,-6.0,-10.0,-1.0,3.0,1.0,0.0,0.0
1705334548.1631007,-18.0,0.0,21.0,-7.0,-6.0,-15.0,-9.0,-7.0
1705334548.1832595,0.0,-2.0,14.0,3.0,1.0,8.0,7.0,5.0
1705334548.1832595,12.0,-14.0,-6.0,6.0,2.0,9.0,10.0,3.0
1705334548.1832595,-17.0,5.0,-14.0,1.0,-3.0,-30.0,-14.0,-24.0
1705334548.1832595,6.0,-24.0,-14.0,0.0,11.0,57.0,27.0,2.0
1705334548.193398,-7.0,19.0,-9.0,-4.0,4.0,19.0,-1.0,29.0
1705334548.193398,-18.0,-36.0,-13.0,-2.0,-3.0,-27.0,-82.0,-69.0
1705334548.203102,11.0,81.0,49.0,14.0,8.0,30.0,94.0,-13.0
1705334548.203102,13.0,10.0,43.0,5.0,-3.0,-25.0,-2.0,28.0
1705334548.2130997,29.0,7.0,-72.0,-6.0,-5.0,0.0,10.0,-5.0
1705334548.2130997,-20.0,7.0,-49.0,-23.0,-8.0,1.0,7.0,2.0
1705334548.2130997,-6.0,-25.0,-10.0,4.0,1.0,-5.0,-38.0,1.0
1705334548.2130997,-3.0,-7.0,-26.0,-7.0,-7.0,-18.0,-24.0,-19.0
1705334548.2437837,-4.0,4.0,37.0,-2.0,-2.0,0.0,1.0,-1.0
1705334548.2437837,6.0,-2.0,49.0,22.0,3.0,1.0,1.0,13.0
1705334548.2447877,-5.0,-2.0,-41.0,-14.0,-10.0,-9.0,-15.0,-4.0
1705334548.2447877,-3.0,-19.0,13.0,-5.0,3.0,9.0,13.0,17.0
1705334548.2568169,-2.0,1.0,1.0,8.0,-6.0,-10.0,-19.0,-14.0
1705334548.2568169,-3.0,-1.0,-11.0,3.0,0.0,-3.0,16.0,4.0
1705334548.2649565,1.0,4.0,18.0,-32.0,-13.0,6.0,-2.0,18.0
1705334548.2649565,10.0,7.0,-10.0,6.0,15.0,5.0,1.0,0.0
1705334548.276773,-8.0,-14.0,-5.0,19.0,12.0,-6.0,-10.0,-13.0
1705334548.276773,-3.0,-7.0,1.0,-12.0,3.0,1.0,11.0,7.0
1705334548.276773,4.0,-16.0,-6.0,24.0,3.0,4.0,-5.0,5.0
1705334548.276773,-4.0,15.0,-15.0,-1.0,-14.0,-10.0,-16.0,-11.0
1705334548.2972257,-4.0,10.0,-3.0,-17.0,-10.0,-14.0,-3.0,-9.0
1705334548.2972257,5.0,-3.0,19.0,-1.0,-3.0,6.0,16.0,17.0
1705334548.2972257,-2.0,-8.0,-16.0,-10.0,2.0,3.0,-11.0,3.0
1705334548.2972257,-7.0,0.0,-8.0,2.0,-2.0,-6.0,-2.0,-9.0
1705334548.3167727,-5.0,12.0,20.0,1.0,-1.0,-5.0,0.0,2.0
1705334548.3167727,5.0,4.0,8.0,11.0,2.0,4.0,4.0,8.0
1705334548.3167727,-1.0,-11.0,-22.0,-23.0,-3.0,-3.0,-9.0,-4.0
1705334548.3167727,-1.0,-3.0,-6.0,-7.0,-6.0,-7.0,-1.0,-3.0
1705334548.3371894,-2.0,4.0,10.0,2.0,-2.0,0.0,1.0,-1.0
1705334548.3371894,2.0,-4.0,-5.0,-7.0,-1.0,-1.0,0.0,0.0
1705334548.3371894,-1.0,-11.0,1.0,11.0,5.0,-3.0,-4.0,-3.0
1705334548.3371894,-4.0,8.0,1.0,9.0,2.0,2.0,0.0,0.0
1705334548.363488,-4.0,-9.0,-15.0,-23.0,-6.0,-2.0,-4.0,-2.0
1705334548.363488,-1.0,-3.0,3.0,10.0,4.0,-1.0,2.0,-1.0
1705334548.363488,-5.0,-5.0,4.0,5.0,0.0,0.0,-2.0,3.0
1705334548.363488,4.0,4.0,-5.0,-6.0,-4.0,0.0,1.0,0.0
1705334548.3834834,-2.0,10.0,13.0,3.0,-1.0,-3.0,-2.0,-3.0
1705334548.3834834,3.0,0.0,14.0,6.0,0.0,3.0,1.0,2.0
1705334548.3834834,1.0,3.0,7.0,1.0,-1.0,2.0,0.0,2.0
1705334548.3834834,-5.0,8.0,-3.0,-6.0,0.0,-1.0,-5.0,-2.0
1705334548.3938358,-1.0,7.0,-4.0,1.0,0.0,-2.0,-11.0,-2.0
1705334548.3938358,12.0,-4.0,24.0,7.0,-1.0,-3.0,3.0,0.0
1705334548.3938358,-15.0,-9.0,8.0,8.0,-1.0,0.0,-2.0,2.0
1705334548.3938358,-16.0,-8.0,-36.0,-21.0,-16.0,-31.0,-18.0,3.0
1705334548.4238575,11.0,3.0,-6.0,5.0,8.0,55.0,27.0,-30.0
1705334548.4238575,30.0,29.0,5.0,-1.0,-2.0,-20.0,-7.0,93.0
1705334548.4238575,-22.0,-22.0,-1.0,1.0,0.0,4.0,4.0,-59.0
1705334548.4238575,-6.0,-1.0,5.0,-1.0,1.0,15.0,-13.0,-55.0
1705334548.4533868,-8.0,-29.0,-8.0,-9.0,-5.0,-14.0,16.0,17.0
1705334548.4533868,-5.0,5.0,-20.0,-9.0,-2.0,7.0,0.0,-11.0
1705334548.4533868,4.0,3.0,17.0,4.0,0.0,4.0,11.0,18.0
1705334548.4533868,11.0,-8.0,3.0,8.0,1.0,-4.0,7.0,13.0
1705334548.4533868,-13.0,-6.0,6.0,-3.0,-1.0,-23.0,-16.0,-15.0
1705334548.4533868,-1.0,-16.0,-19.0,-3.0,-2.0,14.0,6.0,-22.0
1705334548.4533868,0.0,7.0,-13.0,-8.0,-4.0,-18.0,-11.0,19.0
1705334548.4533868,-5.0,-15.0,70.0,13.0,5.0,11.0,2.0,-7.0
1705334548.4833856,16.0,48.0,-40.0,1.0,0.0,-2.0,-3.0,12.0
1705334548.4833856,-16.0,-37.0,-12.0,-19.0,-14.0,-17.0,-7.0,-12.0
1705334548.4833856,-2.0,-18.0,-72.0,-24.0,-11.0,0.0,-9.0,-4.0
1705334548.4833856,5.0,-4.0,30.0,8.0,8.0,5.0,6.0,10.0
1705334548.5033824,6.0,-13.0,38.0,6.0,11.0,6.0,1.0,5.0
1705334548.5033824,-3.0,10.0,24.0,38.0,10.0,7.0,6.0,-7.0
1705334548.5033824,3.0,-1.0,4.0,-13.0,2.0,1.0,-3.0,-6.0
1705334548.5033824,3.0,2.0,-17.0,-9.0,-7.0,0.0,4.0,3.0
1705334548.5137377,-10.0,-4.0,-10.0,-6.0,-10.0,-14.0,-7.0,4.0
1705334548.5137377,-8.0,10.0,-5.0,-5.0,0.0,4.0,-2.0,-19.0
1705334548.5137377,5.0,-3.0,21.0,19.0,3.0,0.0,-3.0,6.0
1705334548.5137377,-1.0,-2.0,-9.0,0.0,-1.0,-7.0,2.0,8.0
1705334548.5433834,-7.0,-6.0,-1.0,-11.0,-6.0,-6.0,-7.0,-4.0
1705334548.5433834,-3.0,-9.0,-11.0,-6.0,-4.0,-4.0,-3.0,-9.0
1705334548.5433834,9.0,5.0,11.0,1.0,1.0,5.0,4.0,3.0
1705334548.5433834,0.0,-2.0,-21.0,-12.0,0.0,0.0,0.0,3.0
1705334548.5536623,-5.0,0.0,6.0,20.0,-4.0,-2.0,-4.0,-6.0
1705334548.5536623,-1.0,0.0,-6.0,-17.0,0.0,3.0,2.0,-5.0
1705334548.5636697,1.0,-3.0,-6.0,1.0,-1.0,-7.0,-3.0,4.0
1705334548.5636697,-3.0,-9.0,-18.0,-4.0,-5.0,-2.0,-2.0,-5.0
1705334548.5737522,3.0,-10.0,5.0,2.0,-2.0,-1.0,-1.0,3.0
1705334548.5737522,-7.0,-15.0,10.0,11.0,3.0,0.0,1.0,-5.0
1705334548.5836427,1.0,13.0,2.0,-3.0,-2.0,-3.0,-4.0,-1.0
1705334548.5836427,-2.0,0.0,-6.0,0.0,2.0,0.0,-2.0,2.0
1705334548.603383,0.0,-3.0,7.0,5.0,1.0,-2.0,0.0,0.0
1705334548.603383,-1.0,6.0,-4.0,1.0,0.0,2.0,0.0,-3.0
1705334548.603383,2.0,5.0,-14.0,-9.0,-5.0,-2.0,-2.0,-2.0
1705334548.603383,0.0,-5.0,11.0,0.0,0.0,3.0,1.0,1.0
1705334548.6135645,-1.0,-19.0,0.0,-1.0,-4.0,-7.0,-5.0,-1.0
1705334548.6135645,-6.0,4.0,-8.0,-1.0,0.0,2.0,-1.0,-6.0
1705334548.6236265,2.0,0.0,-12.0,-14.0,-3.0,-2.0,0.0,3.0
1705334548.6236265,1.0,6.0,-1.0,-4.0,-4.0,-4.0,-2.0,-1.0
1705334548.6336415,-3.0,0.0,3.0,-6.0,-2.0,0.0,0.0,-1.0
1705334548.6336415,1.0,2.0,2.0,1.0,-1.0,-1.0,0.0,-2.0
1705334548.6336415,-4.0,-4.0,3.0,8.0,0.0,3.0,0.0,-2.0
1705334548.6336415,-2.0,3.0,-1.0,-1.0,-2.0,-2.0,-1.0,1.0
1705334548.6633837,-1.0,0.0,0.0,-6.0,-1.0,-1.0,0.0,-1.0
1705334548.6633837,0.0,-2.0,-7.0,-1.0,0.0,-3.0,-1.0,0.0
1705334548.6633837,-2.0,3.0,4.0,4.0,5.0,-2.0,-3.0,1.0
1705334548.6633837,0.0,-3.0,-12.0,0.0,1.0,1.0,-1.0,0.0
1705334548.683451,-2.0,6.0,5.0,-1.0,-2.0,0.0,-1.0,-2.0
1705334548.683451,-2.0,-4.0,3.0,-5.0,-2.0,-2.0,-1.0,-2.0
1705334548.683451,0.0,-6.0,3.0,1.0,-1.0,0.0,0.0,-1.0
1705334548.683451,0.0,-1.0,-6.0,0.0,-2.0,-4.0,1.0,-1.0
1705334548.6935227,1.0,10.0,11.0,-1.0,-1.0,-2.0,-2.0,0.0
1705334548.6935227,1.0,0.0,20.0,1.0,0.0,3.0,1.0,-2.0
1705334548.6935227,-3.0,-10.0,-64.0,-14.0,-2.0,-1.0,-4.0,-2.0
1705334548.6935227,-2.0,2.0,-8.0,8.0,2.0,-3.0,-2.0,1.0
1705334548.7233891,1.0,5.0,-10.0,-7.0,1.0,1.0,4.0,0.0
1705334548.7233891,-4.0,-16.0,25.0,4.0,0.0,-3.0,-1.0,-1.0
1705334548.7233891,-4.0,16.0,23.0,6.0,-4.0,-4.0,-3.0,-1.0
1705334548.7233891,-1.0,-2.0,-11.0,-3.0,-4.0,-1.0,-2.0,-1.0
1705334548.7533834,-5.0,-22.0,-8.0,-1.0,0.0,-1.0,-1.0,-2.0
1705334548.7533834,0.0,37.0,-13.0,-5.0,-2.0,-1.0,0.0,-1.0
1705334548.7533834,2.0,11.0,13.0,18.0,0.0,1.0,0.0,1.0
1705334548.7533834,-3.0,-5.0,-8.0,-12.0,0.0,2.0,2.0,-1.0
1705334548.7533834,0.0,-23.0,4.0,-22.0,-7.0,-5.0,-5.0,-1.0
1705334548.7533834,0.0,4.0,-9.0,2.0,-1.0,-2.0,-1.0,-2.0
1705334548.7533834,-3.0,-7.0,7.0,1.0,2.0,-1.0,0.0,-1.0
1705334548.7533834,0.0,5.0,2.0,10.0,0.0,-3.0,-2.0,0.0
1705334548.7833066,-1.0,2.0,9.0,10.0,1.0,1.0,-1.0,-1.0
1705334548.7833066,0.0,-7.0,-14.0,-5.0,-1.0,-1.0,-3.0,0.0
1705334548.7843606,-2.0,-7.0,5.0,-3.0,-6.0,-4.0,-1.0,1.0
1705334548.7843606,-1.0,-3.0,-11.0,-2.0,-2.0,0.0,-1.0,-3.0
1705334548.8008187,-2.0,0.0,-6.0,-2.0,-1.0,-4.0,-3.0,-1.0
1705334548.8008187,0.0,-9.0,-1.0,-1.0,-1.0,0.0,-2.0,1.0
1705334548.8008187,0.0,11.0,0.0,-7.0,0.0,1.0,1.0,-1.0
1705334548.8008187,-4.0,-20.0,18.0,5.0,-2.0,0.0,-1.0,-3.0
1705334548.8111904,-2.0,19.0,-8.0,-3.0,-2.0,-2.0,-1.0,-1.0
1705334548.8111904,-2.0,2.0,-1.0,1.0,-1.0,-3.0,0.0,-1.0
1705334548.8208656,1.0,-12.0,-1.0,0.0,0.0,4.0,2.0,0.0
1705334548.8208656,1.0,-7.0,-4.0,-10.0,-1.0,-1.0,-3.0,-2.0
1705334548.8409252,-1.0,-6.0,20.0,11.0,-3.0,-2.0,-4.0,-2.0
1705334548.8409252,1.0,3.0,4.0,3.0,4.0,3.0,-4.0,-1.0
1705334548.8409252,-2.0,-11.0,-11.0,-4.0,0.0,-1.0,0.0,-1.0
1705334548.8409252,-4.0,0.0,-28.0,-11.0,-3.0,-3.0,-1.0,-1.0
1705334548.8612807,3.0,25.0,16.0,3.0,-2.0,-3.0,-2.0,0.0
1705334548.8612807,0.0,-13.0,7.0,1.0,-5.0,-3.0,-2.0,-2.0
1705334548.8612807,0.0,-3.0,13.0,-2.0,-2.0,1.0,-1.0,-1.0
1705334548.8612807,-1.0,2.0,8.0,2.0,1.0,2.0,-1.0,-2.0
1705334548.8712175,-2.0,-9.0,-19.0,-3.0,0.0,-1.0,-1.0,-2.0
1705334548.8712175,-3.0,2.0,-2.0,0.0,1.0,1.0,0.0,-1.0
1705334548.8912296,0.0,-3.0,-1.0,-8.0,-5.0,-3.0,-1.0,-2.0
1705334548.8912296,2.0,6.0,0.0,-1.0,-2.0,-1.0,0.0,1.0
1705334548.9015455,-2.0,-2.0,-1.0,7.0,5.0,2.0,-1.0,-2.0
1705334548.9015455,0.0,0.0,-4.0,-1.0,1.0,0.0,0.0,-1.0
1705334548.9015455,-2.0,-9.0,-8.0,1.0,-1.0,-4.0,-3.0,-2.0
1705334548.9015455,1.0,5.0,8.0,5.0,-1.0,-3.0,-1.0,-1.0
1705334548.921618,-1.0,-3.0,-8.0,-11.0,-4.0,-2.0,-1.0,-1.0
1705334548.921618,-2.0,-1.0,-5.0,-9.0,-9.0,-7.0,-4.0,-4.0
1705334548.921618,-2.0,-1.0,5.0,2.0,2.0,2.0,0.0,-2.0
1705334548.921618,0.0,-9.0,-1.0,-7.0,4.0,0.0,-1.0,0.0
1705334548.93123,-4.0,-7.0,-6.0,7.0,0.0,-2.0,-2.0,-2.0
1705334548.93123,0.0,-3.0,-6.0,-4.0,-4.0,-4.0,0.0,-1.0
1705334548.9413342,1.0,-4.0,12.0,5.0,-4.0,-1.0,2.0,1.0
1705334548.9413342,-3.0,1.0,-1.0,-1.0,-5.0,-6.0,-1.0,-3.0
1705334548.9616268,4.0,-5.0,-16.0,-3.0,5.0,3.0,2.0,0.0
1705334548.9616268,-9.0,-10.0,1.0,-2.0,-1.0,-2.0,-3.0,-2.0
1705334548.9616268,0.0,0.0,-9.0,-1.0,1.0,0.0,0.0,0.0
1705334548.9616268,0.0,-3.0,20.0,6.0,0.0,-3.0,0.0,-1.0
1705334548.9816842,0.0,2.0,-2.0,-8.0,-4.0,3.0,0.0,-1.0
1705334548.9816842,1.0,-6.0,-5.0,-1.0,2.0,1.0,0.0,0.0
1705334548.9816842,-1.0,-3.0,-5.0,2.0,3.0,-1.0,-1.0,0.0
1705334548.9816842,-2.0,-1.0,-11.0,-5.0,-2.0,1.0,-1.0,0.0
1705334549.0017354,-2.0,1.0,16.0,-1.0,-4.0,-3.0,1.0,-2.0
1705334549.0017354,-1.0,-4.0,-28.0,-1.0,1.0,0.0,-1.0,-2.0
1705334549.0116324,-1.0,-2.0,6.0,-7.0,-6.0,-8.0,-5.0,-1.0
1705334549.0116324,2.0,2.0,-9.0,4.0,5.0,8.0,2.0,3.0
1705334549.0116324,-2.0,0.0,3.0,3.0,2.0,-2.0,-4.0,-2.0
1705334549.0116324,-2.0,-4.0,-9.0,-2.0,-1.0,0.0,-1.0,-1.0
1705334549.02192,-1.0,-2.0,1.0,-4.0,-2.0,-3.0,1.0,-2.0
1705334549.02192,-1.0,10.0,4.0,-5.0,-8.0,-1.0,-2.0,-1.0
1705334549.0317779,-1.0,-5.0,6.0,6.0,-2.0,-1.0,0.0,-2.0
1705334549.0317779,2.0,-9.0,3.0,2.0,7.0,2.0,2.0,0.0
1705334549.0317779,1.0,-4.0,0.0,2.0,4.0,1.0,-2.0,1.0
1705334549.0317779,-1.0,-5.0,6.0,3.0,-4.0,-6.0,-3.0,-2.0
1705334549.051635,-1.0,-10.0,-7.0,-3.0,-6.0,-4.0,0.0,-1.0
1705334549.051635,2.0,10.0,2.0,-5.0,-4.0,0.0,-3.0,-1.0
1705334549.051635,-10.0,-10.0,-1.0,0.0,0.0,0.0,-1.0,0.0
1705334549.051635,1.0,-1.0,8.0,9.0,2.0,2.0,5.0,-1.0
1705334549.0718825,-1.0,-3.0,-18.0,-8.0,-2.0,-1.0,-1.0,0.0
1705334549.0718825,0.0,-3.0,15.0,-11.0,-4.0,-3.0,-4.0,0.0
1705334549.0817695,0.0,-3.0,9.0,-2.0,-5.0,-6.0,-6.0,-2.0
1705334549.0817695,-2.0,9.0,-32.0,-6.0,-4.0,-5.0,-2.0,0.0
1705334549.0919302,-2.0,4.0,-9.0,0.0,-2.0,-1.0,-2.0,-2.0
1705334549.0919302,-1.0,-3.0,-1.0,1.0,-2.0,0.0,1.0,-1.0
1705334549.0919302,2.0,1.0,6.0,2.0,-3.0,0.0,0.0,-1.0
1705334549.0919302,-1.0,-3.0,9.0,-4.0,-5.0,0.0,-2.0,-2.0
1705334549.1219487,-1.0,-10.0,-4.0,5.0,10.0,-1.0,-3.0,-3.0
1705334549.1219487,0.0,-26.0,-11.0,5.0,5.0,1.0,1.0,1.0
1705334549.1219487,1.0,26.0,4.0,-1.0,-5.0,-4.0,0.0,0.0
1705334549.1219487,-6.0,1.0,0.0,9.0,2.0,0.0,-2.0,-3.0
1705334549.131982,-2.0,-4.0,16.0,-7.0,-7.0,-4.0,-2.0,1.0
1705334549.131982,-6.0,-9.0,-28.0,-13.0,-4.0,-4.0,-1.0,-2.0
1705334549.1419992,-1.0,-21.0,-10.0,3.0,-1.0,-2.0,-1.0,-3.0
1705334549.1419992,1.0,8.0,5.0,0.0,1.0,0.0,-1.0,0.0
1705334549.1619487,4.0,2.0,2.0,-5.0,0.0,-1.0,2.0,1.0
1705334549.1619487,-4.0,1.0,25.0,-7.0,-6.0,-7.0,-3.0,-1.0
1705334549.1619487,7.0,13.0,11.0,-2.0,1.0,1.0,1.0,3.0
1705334549.1619487,-3.0,-3.0,-76.0,-10.0,-1.0,-1.0,-2.0,-2.0
1705334549.1719503,-4.0,-11.0,11.0,9.0,0.0,-1.0,-2.0,-4.0
1705334549.1719503,2.0,-3.0,3.0,9.0,-1.0,1.0,2.0,2.0
1705334549.1719503,-6.0,28.0,-14.0,-7.0,-5.0,-6.0,-7.0,-18.0
1705334549.1719503,16.0,-52.0,15.0,1.0,3.0,2.0,0.0,10.0
1705334549.1921566,-10.0,18.0,20.0,12.0,0.0,-4.0,-1.0,-9.0
1705334549.1921566,41.0,24.0,-19.0,-13.0,-10.0,-23.0,-15.0,-12.0
1705334549.2019491,-12.0,-29.0,4.0,-7.0,-1.0,-4.0,3.0,18.0
1705334549.2019491,8.0,-26.0,-62.0,-10.0,5.0,20.0,18.0,2.0
1705334549.2122765,13.0,-24.0,-42.0,-16.0,-5.0,2.0,-9.0,-53.0
1705334549.2122765,7.0,0.0,46.0,13.0,1.0,6.0,-12.0,33.0
1705334549.2122765,-21.0,0.0,6.0,7.0,5.0,19.0,22.0,5.0
1705334549.2122765,10.0,17.0,42.0,6.0,-2.0,-18.0,-14.0,-9.0
1705334549.231947,-3.0,-2.0,-18.0,-12.0,-2.0,-8.0,17.0,20.0
1705334549.231947,8.0,13.0,-33.0,-3.0,0.0,-1.0,1.0,-1.0
1705334549.231947,4.0,4.0,33.0,7.0,-6.0,-4.0,-12.0,-1.0
1705334549.231947,-16.0,-9.0,31.0,4.0,-3.0,-5.0,-10.0,1.0
1705334549.252296,1.0,3.0,-13.0,7.0,4.0,10.0,0.0,5.0
1705334549.252296,-14.0,13.0,29.0,7.0,5.0,4.0,0.0,-11.0
1705334549.261952,2.0,-11.0,-62.0,-14.0,-9.0,2.0,5.0,-4.0
1705334549.261952,-4.0,3.0,-28.0,-6.0,-8.0,-9.0,-6.0,-9.0
1705334549.2919478,-4.0,-22.0,2.0,-22.0,7.0,-2.0,-9.0,10.0
1705334549.2919478,-8.0,1.0,26.0,22.0,-2.0,5.0,13.0,-2.0
1705334549.2919478,1.0,-5.0,18.0,10.0,5.0,-5.0,-8.0,-6.0
1705334549.2919478,-4.0,2.0,5.0,3.0,4.0,1.0,-2.0,0.0
1705334549.2919478,5.0,6.0,-3.0,0.0,-9.0,-2.0,1.0,12.0
1705334549.2919478,-8.0,-14.0,-22.0,-24.0,-3.0,1.0,5.0,-1.0
1705334549.2919478,5.0,0.0,5.0,3.0,-3.0,-2.0,-3.0,-4.0
1705334549.2919478,-7.0,2.0,-6.0,-6.0,-4.0,-4.0,-7.0,-10.0
1705334549.314977,-4.0,3.0,8.0,6.0,-1.0,0.0,3.0,5.0
1705334549.314977,-6.0,-6.0,16.0,10.0,0.0,-1.0,-1.0,-5.0
1705334549.3218288,3.0,-8.0,-13.0,-1.0,1.0,-4.0,-4.0,-2.0
1705334549.3218288,-2.0,-1.0,0.0,-26.0,-4.0,-3.0,1.0,3.0
1705334549.3424764,-1.0,3.0,11.0,-1.0,-2.0,-1.0,-3.0,-2.0
1705334549.3424764,-6.0,-1.0,-10.0,2.0,-2.0,-1.0,0.0,0.0
1705334549.3424764,2.0,-8.0,-4.0,3.0,5.0,2.0,-1.0,2.0
1705334549.3424764,-4.0,1.0,14.0,9.0,-1.0,-2.0,-1.0,-2.0
1705334549.3424764,-1.0,5.0,3.0,-1.0,-5.0,-2.0,-2.0,-2.0
1705334549.3424764,-4.0,-10.0,-9.0,0.0,-1.0,-2.0,-1.0,-3.0
1705334549.35251,1.0,-14.0,-16.0,-2.0,3.0,2.0,-2.0,-1.0
1705334549.35251,0.0,6.0,15.0,0.0,-1.0,2.0,-1.0,-1.0
1705334549.3723316,-2.0,3.0,-4.0,3.0,-5.0,-6.0,-2.0,1.0
1705334549.3723316,-5.0,-7.0,2.0,1.0,7.0,4.0,2.0,-2.0
1705334549.3823335,1.0,-8.0,2.0,0.0,3.0,0.0,-2.0,0.0
1705334549.3823335,-1.0,4.0,1.0,-6.0,-3.0,-1.0,1.0,1.0
1705334549.4023278,0.0,0.0,3.0,5.0,-1.0,1.0,-1.0,1.0
1705334549.4023278,-5.0,1.0,15.0,4.0,-7.0,-8.0,-4.0,-4.0
1705334549.4023278,0.0,-3.0,-12.0,-12.0,-9.0,-9.0,-6.0,-5.0
1705334549.4023278,-2.0,-9.0,6.0,0.0,1.0,3.0,4.0,0.0
1705334549.4127028,-1.0,-1.0,13.0,-2.0,5.0,1.0,-1.0,-1.0
1705334549.4127028,-2.0,-7.0,-13.0,-12.0,0.0,-1.0,-1.0,-2.0
1705334549.4223309,1.0,4.0,-17.0,-4.0,-6.0,-4.0,-2.0,0.0
1705334549.4223309,-2.0,0.0,3.0,6.0,-3.0,-3.0,-2.0,0.0
1705334549.4326007,-3.0,-7.0,-5.0,-5.0,-5.0,-3.0,-3.0,-3.0
1705334549.4326007,-1.0,4.0,7.0,6.0,1.0,1.0,1.0,1.0
1705334549.442329,-2.0,0.0,2.0,-3.0,4.0,1.0,0.0,-1.0
1705334549.442329,1.0,-1.0,-1.0,0.0,-1.0,0.0,1.0,1.0
1705334549.462595,1.0,0.0,6.0,0.0,-2.0,0.0,0.0,1.0
1705334549.462595,-3.0,-4.0,-13.0,-3.0,0.0,-2.0,-2.0,-4.0
1705334549.462595,0.0,-3.0,11.0,6.0,-1.0,1.0,-2.0,-1.0
1705334549.462595,-1.0,4.0,-3.0,-2.0,2.0,-1.0,-1.0,-1.0
1705334549.4725795,0.0,0.0,-5.0,-2.0,-3.0,-3.0,-2.0,2.0
1705334549.4725795,-2.0,-3.0,-11.0,-19.0,-6.0,-5.0,-4.0,-3.0
1705334549.4823344,1.0,2.0,14.0,10.0,7.0,7.0,5.0,1.0
1705334549.4823344,0.0,-1.0,9.0,2.0,1.0,1.0,0.0,1.0
1705334549.492336,-3.0,3.0,-15.0,-10.0,0.0,0.0,-5.0,-4.0
1705334549.492336,-1.0,-6.0,-5.0,4.0,0.0,1.0,-1.0,-2.0
1705334549.5123317,-2.0,5.0,11.0,-5.0,-1.0,2.0,-2.0,-1.0
1705334549.5123317,-1.0,1.0,-16.0,5.0,-3.0,-6.0,-2.0,-2.0
1705334549.5223281,-4.0,-6.0,6.0,7.0,3.0,1.0,0.0,2.0
1705334549.5223281,0.0,-1.0,-10.0,5.0,-2.0,0.0,-1.0,-1.0
1705334549.5223281,1.0,0.0,-5.0,-6.0,-3.0,-3.0,-2.0,-2.0
1705334549.5223281,0.0,-1.0,8.0,-7.0,-3.0,-2.0,-1.0,0.0
1705334549.5327013,4.0,-1.0,-10.0,0.0,0.0,2.0,2.0,0.0
1705334549.5327013,-1.0,-1.0,22.0,4.0,2.0,0.0,0.0,-1.0
1705334549.5423307,-5.0,-10.0,-60.0,-13.0,-7.0,-8.0,-4.0,-2.0
1705334549.5423307,-3.0,-8.0,23.0,-9.0,0.0,3.0,0.0,2.0
1705334549.5523314,-5.0,-5.0,-22.0,2.0,-3.0,-8.0,-9.0,-9.0
1705334549.5523314,6.0,9.0,-17.0,-1.0,2.0,3.0,3.0,10.0
1705334549.5623295,-6.0,-8.0,-5.0,1.0,-2.0,-7.0,-5.0,12.0
1705334549.5623295,-16.0,2.0,11.0,0.0,-1.0,-26.0,-1.0,-17.0
1705334549.5723624,13.0,-7.0,10.0,2.0,1.0,18.0,4.0,27.0
1705334549.5723624,1.0,-19.0,-3.0,-1.0,-7.0,-38.0,-7.0,-17.0
1705334549.5826788,-5.0,15.0,16.0,-5.0,-3.0,28.0,17.0,1.0
1705334549.5826788,10.0,-10.0,-12.0,2.0,3.0,-6.0,-13.0,-8.0
1705334549.5927093,3.0,19.0,5.0,-2.0,-5.0,-20.0,1.0,19.0
1705334549.5927093,8.0,5.0,2.0,0.0,1.0,7.0,4.0,12.0
1705334549.6023302,-21.0,-8.0,12.0,-4.0,-5.0,-13.0,-3.0,-13.0
1705334549.6023302,-1.0,-2.0,-3.0,3.0,-1.0,-9.0,-5.0,1.0
1705334549.6123292,-2.0,-14.0,-12.0,-3.0,0.0,7.0,2.0,-16.0
1705334549.6123292,0.0,22.0,8.0,-6.0,-6.0,-7.0,-13.0,-1.0
1705334549.622332,11.0,-2.0,24.0,6.0,2.0,-9.0,-3.0,2.0
1705334549.622332,-8.0,-8.0,-41.0,-7.0,-8.0,11.0,0.0,-4.0
1705334549.6327543,-1.0,8.0,39.0,13.0,-4.0,-5.0,-1.0,-5.0
1705334549.6327543,-15.0,-33.0,-36.0,0.0,15.0,10.0,6.0,-2.0
1705334549.642685,10.0,-29.0,-52.0,-10.0,1.0,-5.0,-2.0,-1.0
1705334549.642685,6.0,5.0,23.0,17.0,-1.0,11.0,6.0,8.0
1705334549.6527202,-7.0,3.0,-2.0,-16.0,-7.0,0.0,-1.0,-7.0
1705334549.6527202,-1.0,6.0,15.0,-10.0,-5.0,2.0,-2.0,-3.0
1705334549.6527202,-2.0,-1.0,3.0,10.0,5.0,4.0,-1.0,-8.0
1705334549.6623325,7.0,1.0,-2.0,-1.0,-1.0,-3.0,-1.0,7.0
1705334549.6723282,-3.0,0.0,-7.0,1.0,-3.0,-8.0,-2.0,-4.0
1705334549.6723282,-3.0,-4.0,3.0,-11.0,-3.0,8.0,0.0,-4.0
1705334549.6723282,4.0,1.0,10.0,-5.0,0.0,-5.0,-4.0,1.0
1705334549.6723282,-3.0,-2.0,1.0,-1.0,-1.0,4.0,5.0,3.0
1705334549.6927285,-3.0,1.0,6.0,7.0,4.0,-1.0,0.0,-6.0
1705334549.6927285,-4.0,-1.0,-4.0,4.0,0.0,3.0,1.0,-7.0
1705334549.7026746,-2.0,-4.0,4.0,1.0,-4.0,-3.0,-4.0,38.0
1705334549.7026746,2.0,4.0,0.0,-2.0,0.0,0.0,-2.0,7.0
1705334549.7125719,8.0,-15.0,-4.0,-2.0,4.0,2.0,-1.0,-22.0
1705334549.7125719,1.0,-13.0,-5.0,-1.0,-2.0,-1.0,-1.0,5.0
1705334549.7125719,0.0,9.0,4.0,-1.0,-4.0,-3.0,1.0,-7.0
1705334549.7125719,-4.0,4.0,10.0,2.0,1.0,3.0,1.0,8.0
1705334549.7323282,-2.0,-12.0,-3.0,6.0,1.0,-1.0,-2.0,-11.0
1705334549.7323282,-5.0,0.0,2.0,-3.0,-2.0,2.0,-2.0,16.0
1705334549.7424824,2.0,5.0,16.0,3.0,0.0,1.0,1.0,-9.0
1705334549.7424824,-3.0,-5.0,-14.0,-15.0,-4.0,-4.0,-4.0,-5.0
1705334549.7527456,-2.0,-1.0,9.0,0.0,-1.0,-4.0,-3.0,-6.0
1705334549.7527456,0.0,1.0,8.0,5.0,-5.0,-2.0,0.0,-5.0
1705334549.7623317,0.0,-1.0,-26.0,-1.0,7.0,5.0,1.0,-3.0
1705334549.7623317,0.0,-4.0,18.0,0.0,5.0,0.0,0.0,-8.0
1705334549.7823353,-4.0,7.0,-1.0,3.0,-2.0,-1.0,-1.0,11.0
1705334549.7823353,-3.0,-4.0,18.0,12.0,2.0,0.0,0.0,1.0
1705334549.7823353,0.0,-23.0,-14.0,-12.0,-3.0,-5.0,-3.0,-7.0
1705334549.7823353,-3.0,-1.0,-14.0,4.0,0.0,-1.0,-1.0,-3.0
1705334549.7923367,-3.0,1.0,-5.0,-7.0,-2.0,0.0,2.0,3.0
1705334549.7923367,2.0,5.0,-2.0,0.0,-6.0,0.0,0.0,-4.0
1705334549.8023982,-1.0,1.0,5.0,-4.0,-3.0,-1.0,1.0,-10.0
1705334549.8023982,-2.0,-9.0,-2.0,-4.0,-2.0,-2.0,-1.0,-2.0
1705334549.8123968,-3.0,-4.0,-4.0,-6.0,0.0,-2.0,-2.0,3.0
1705334549.8123968,0.0,-3.0,-3.0,-1.0,-1.0,1.0,0.0,-5.0
1705334549.8223636,-2.0,3.0,14.0,5.0,-1.0,-2.0,-2.0,-2.0
1705334549.8223636,-1.0,-6.0,-9.0,-2.0,-2.0,-2.0,-3.0,-1.0
1705334549.8499107,-1.0,-5.0,2.0,-2.0,1.0,-1.0,-1.0,2.0
1705334549.8499107,-2.0,-2.0,-12.0,-2.0,2.0,-1.0,0.0,-4.0
1705334549.8499107,-1.0,-5.0,9.0,2.0,-2.0,-2.0,1.0,-2.0
1705334549.8499107,3.0,3.0,20.0,8.0,3.0,1.0,1.0,1.0
1705334549.8538806,-2.0,-12.0,-33.0,-3.0,-3.0,-1.0,0.0,-1.0
1705334549.8538806,0.0,2.0,5.0,-11.0,-3.0,-2.0,-1.0,-2.0
1705334549.862481,-3.0,6.0,24.0,-3.0,-2.0,-2.0,-4.0,-2.0
1705334549.8634486,1.0,-11.0,-9.0,0.0,1.0,1.0,4.0,-1.0
1705334549.872617,-1.0,-5.0,11.0,0.0,-1.0,-2.0,-2.0,1.0
1705334549.872617,-3.0,-4.0,-10.0,1.0,-1.0,-2.0,0.0,-4.0
1705334549.8828177,2.0,2.0,-3.0,-2.0,-3.0,-1.0,-1.0,4.0
1705334549.8828177,1.0,1.0,16.0,-3.0,-1.0,-2.0,0.0,-1.0
1705334549.9026256,-2.0,-4.0,-7.0,0.0,2.0,-3.0,-3.0,-1.0
1705334549.9026256,0.0,-7.0,-13.0,-1.0,-2.0,-2.0,-2.0,-1.0
1705334549.9026256,-1.0,8.0,3.0,0.0,2.0,-1.0,-3.0,-5.0
1705334549.9026256,-3.0,-5.0,-1.0,1.0,-4.0,-3.0,-4.0,-2.0
1705334549.9126544,-3.0,5.0,7.0,0.0,-2.0,1.0,0.0,2.0
1705334549.9126544,0.0,-6.0,-3.0,-1.0,-1.0,-1.0,-1.0,-4.0
1705334549.9228444,-2.0,2.0,-12.0,-5.0,1.0,0.0,2.0,-1.0
1705334549.9228444,-1.0,-10.0,4.0,-2.0,-2.0,-1.0,-1.0,1.0
1705334549.942939,-3.0,16.0,7.0,1.0,-3.0,-6.0,-3.0,-4.0
1705334549.942939,0.0,-5.0,-5.0,-3.0,5.0,1.0,-1.0,2.0
1705334549.942939,1.0,3.0,-7.0,-1.0,1.0,3.0,0.0,-2.0
1705334549.942939,-1.0,1.0,-4.0,0.0,-3.0,-2.0,0.0,0.0
1705334549.9629748,-1.0,-9.0,-3.0,-2.0,-1.0,-2.0,-2.0,-1.0
1705334549.9629748,-2.0,-4.0,-2.0,-4.0,-6.0,-5.0,-1.0,-2.0
1705334549.9629748,0.0,-10.0,1.0,2.0,1.0,3.0,4.0,2.0
1705334549.9629748,0.0,8.0,-3.0,-1.0,0.0,2.0,0.0,-2.0
1705334549.9826255,-1.0,4.0,19.0,-1.0,0.0,-1.0,-1.0,0.0
1705334549.9826255,-2.0,-1.0,-5.0,-3.0,-3.0,-2.0,-4.0,1.0
