1705334381.3838043,-2.0,5.0,0.0,0.0,2.0,-1.0,3.0,-3.0
1705334381.3838043,-1.0,2.0,-2.0,0.0,-1.0,1.0,3.0,-1.0
1705334381.3838043,-3.0,4.0,0.0,1.0,0.0,2.0,3.0,-2.0
1705334381.3838043,-3.0,3.0,-2.0,2.0,0.0,2.0,2.0,-2.0
1705334381.3938518,-1.0,2.0,-1.0,2.0,0.0,1.0,1.0,-2.0
1705334381.3938518,-1.0,5.0,-1.0,0.0,-1.0,-1.0,0.0,0.0
1705334381.4041247,-1.0,2.0,-2.0,-1.0,0.0,1.0,-3.0,-4.0
1705334381.4041247,-3.0,1.0,0.0,-2.0,-1.0,1.0,-3.0,1.0
1705334381.4141695,0.0,-1.0,0.0,1.0,0.0,2.0,-6.0,-2.0
1705334381.4141695,-2.0,1.0,0.0,1.0,-1.0,0.0,-4.0,-3.0
1705334381.4141695,0.0,0.0,-1.0,0.0,-2.0,3.0,-6.0,-1.0
1705334381.4141695,-1.0,1.0,-1.0,-1.0,-1.0,0.0,-4.0,-2.0
1705334381.456502,-2.0,3.0,-1.0,-1.0,0.0,3.0,-3.0,-1.0
1705334381.456502,-1.0,2.0,-1.0,2.0,1.0,2.0,-2.0,0.0
1705334381.456502,-3.0,2.0,-1.0,1.0,-1.0,2.0,-1.0,-1.0
1705334381.456502,-2.0,1.0,0.0,-1.0,-1.0,1.0,0.0,0.0
1705334381.456502,-1.0,-1.0,-1.0,-1.0,0.0,1.0,0.0,0.0
1705334381.456502,0.0,-1.0,-1.0,-1.0,-1.0,-1.0,-2.0,-2.0
1705334381.4665468,0.0,-4.0,-1.0,-2.0,-1.0,-5.0,-3.0,0.0
1705334381.4665468,1.0,-6.0,1.0,-2.0,-2.0,-4.0,-3.0,-1.0
1705334381.4768515,0.0,-3.0,0.0,-4.0,-3.0,-6.0,-3.0,1.0
1705334381.4768515,-1.0,-3.0,1.0,-4.0,-1.0,-2.0,-2.0,0.0
1705334381.4768515,0.0,-5.0,-2.0,-1.0,0.0,-4.0,0.0,0.0
1705334381.4768515,0.0,-1.0,0.0,-3.0,0.0,-1.0,0.0,-1.0
1705334381.513951,1.0,-4.0,-1.0,-4.0,-2.0,-2.0,0.0,-2.0
1705334381.513951,-3.0,-4.0,-1.0,-4.0,-1.0,-5.0,-1.0,-3.0
1705334381.513951,2.0,-6.0,0.0,-3.0,-1.0,-4.0,0.0,-1.0
1705334381.513951,-1.0,-4.0,-2.0,-2.0,-2.0,-4.0,-1.0,0.0
1705334381.5239449,-2.0,-6.0,-3.0,-3.0,-1.0,-2.0,-2.0,-1.0
1705334381.5239449,3.0,-9.0,-2.0,-4.0,-1.0,-3.0,-2.0,0.0
1705334381.5239449,-1.0,-8.0,-2.0,-4.0,0.0,-4.0,-4.0,-1.0
1705334381.5239449,1.0,-11.0,1.0,-5.0,-2.0,-4.0,-4.0,0.0
1705334381.5343928,2.0,-6.0,1.0,-4.0,-3.0,-5.0,-4.0,1.0
1705334381.5343928,2.0,-5.0,-1.0,-6.0,-3.0,-4.0,-5.0,3.0
1705334381.5343928,-1.0,-6.0,-1.0,-6.0,-1.0,-2.0,-3.0,0.0
1705334381.5343928,1.0,-8.0,-1.0,-3.0,0.0,-3.0,-3.0,-1.0
1705334381.554705,-1.0,-6.0,0.0,-3.0,-4.0,-4.0,-2.0,0.0
1705334381.554705,2.0,-10.0,-2.0,-5.0,-1.0,-5.0,-3.0,0.0
1705334381.5644207,0.0,-11.0,0.0,-4.0,-2.0,-6.0,-4.0,-3.0
1705334381.5644207,1.0,-7.0,-2.0,-3.0,-3.0,-4.0,-3.0,-1.0
1705334381.5744193,0.0,-5.0,-3.0,-5.0,-3.0,-2.0,-2.0,0.0
1705334381.5744193,-1.0,10.0,-1.0,-4.0,-1.0,0.0,1.0,0.0
1705334381.584453,-6.0,7.0,-1.0,3.0,4.0,7.0,3.0,-3.0
1705334381.584453,-3.0,8.0,-2.0,1.0,-1.0,2.0,2.0,-2.0
1705334381.5943623,-3.0,9.0,-2.0,2.0,-1.0,0.0,3.0,-2.0
1705334381.5943623,-3.0,5.0,0.0,3.0,-1.0,3.0,3.0,-1.0
1705334381.6043737,-5.0,5.0,3.0,2.0,0.0,4.0,0.0,-3.0
1705334381.6043737,-2.0,-1.0,-1.0,2.0,-1.0,3.0,1.0,-2.0
1705334381.6144054,-2.0,-2.0,-1.0,2.0,-1.0,0.0,1.0,-2.0
1705334381.6144054,-3.0,-1.0,-1.0,4.0,0.0,0.0,0.0,0.0
1705334381.6243756,0.0,-3.0,-3.0,1.0,-3.0,-2.0,-1.0,1.0
1705334381.6243756,0.0,0.0,-2.0,-1.0,-2.0,-1.0,-2.0,-1.0
1705334381.6347978,0.0,-5.0,-2.0,1.0,1.0,-3.0,-2.0,-3.0
1705334381.6347978,0.0,-6.0,0.0,1.0,0.0,-5.0,-4.0,-2.0
1705334381.6447687,1.0,-7.0,-3.0,-2.0,-3.0,-4.0,-2.0,0.0
1705334381.6447687,1.0,-2.0,-2.0,-2.0,-2.0,-2.0,-4.0,0.0
1705334381.6547775,-1.0,0.0,0.0,1.0,-1.0,0.0,-2.0,0.0
1705334381.6547775,-1.0,-3.0,0.0,1.0,-1.0,-1.0,0.0,1.0
1705334381.6643715,2.0,-1.0,-1.0,-2.0,-3.0,-2.0,-3.0,0.0
1705334381.6643715,-1.0,-2.0,-1.0,-3.0,0.0,-2.0,0.0,-1.0
1705334381.6743994,-1.0,-1.0,0.0,1.0,-1.0,-1.0,0.0,-2.0
1705334381.6743994,-2.0,-3.0,-3.0,0.0,1.0,2.0,-2.0,-2.0
1705334381.6843753,1.0,-6.0,-2.0,-2.0,-3.0,-5.0,-1.0,-1.0
1705334381.6843753,0.0,-4.0,-2.0,-1.0,-2.0,-2.0,-1.0,-1.0
1705334381.6947172,-2.0,2.0,0.0,1.0,2.0,-2.0,-3.0,-4.0
1705334381.6947172,0.0,-3.0,-1.0,-1.0,-2.0,-3.0,-2.0,-1.0
1705334381.7047172,0.0,-1.0,-3.0,-1.0,-2.0,-1.0,0.0,0.0
1705334381.7047172,-1.0,0.0,-1.0,-1.0,-1.0,-2.0,-3.0,-2.0
1705334381.7147443,-3.0,-6.0,1.0,2.0,0.0,2.0,0.0,-2.0
1705334381.7147443,-4.0,2.0,0.0,-1.0,-2.0,-1.0,-2.0,0.0
1705334381.7243733,1.0,1.0,-1.0,0.0,0.0,-3.0,-1.0,1.0
1705334381.7243733,-3.0,0.0,1.0,2.0,0.0,1.0,-1.0,-2.0
1705334381.7443757,-1.0,4.0,-2.0,-3.0,-2.0,1.0,0.0,0.0
1705334381.7443757,-3.0,3.0,2.0,2.0,1.0,1.0,1.0,-3.0
1705334381.7443757,0.0,-3.0,-1.0,0.0,0.0,1.0,-1.0,0.0
1705334381.7443757,-1.0,2.0,-1.0,-1.0,0.0,1.0,0.0,-3.0
1705334381.7546556,-2.0,4.0,0.0,0.0,0.0,1.0,1.0,0.0
1705334381.7546556,-3.0,5.0,-1.0,0.0,0.0,2.0,3.0,-2.0
1705334381.7646415,-4.0,8.0,-1.0,3.0,-1.0,2.0,3.0,-2.0
1705334381.7646415,-2.0,2.0,-2.0,3.0,0.0,0.0,0.0,-1.0
1705334381.7847075,0.0,-4.0,0.0,1.0,-2.0,-2.0,-1.0,0.0
1705334381.7847075,-1.0,-5.0,-3.0,-1.0,-1.0,-1.0,-3.0,-1.0
1705334381.7847075,1.0,0.0,-1.0,-2.0,-2.0,-1.0,-1.0,0.0
1705334381.7847075,1.0,-4.0,-2.0,-3.0,-3.0,-2.0,-2.0,-1.0
1705334381.7946157,0.0,-1.0,-1.0,-2.0,-1.0,-1.0,-2.0,2.0
1705334381.7946157,0.0,-2.0,-1.0,-1.0,-2.0,-1.0,0.0,-1.0
1705334381.8043735,-2.0,-3.0,-1.0,-2.0,-1.0,-2.0,-1.0,-2.0
1705334381.8043735,1.0,3.0,2.0,-2.0,1.0,-2.0,1.0,1.0
1705334381.8143723,-1.0,-2.0,-2.0,-2.0,-1.0,-3.0,0.0,-2.0
1705334381.8143723,-1.0,-3.0,-1.0,-3.0,-2.0,0.0,-1.0,-2.0
1705334381.8243697,-1.0,-3.0,-2.0,-1.0,-1.0,-3.0,-1.0,-1.0
1705334381.8243697,-2.0,-3.0,0.0,-2.0,-2.0,-1.0,-2.0,-2.0
1705334381.8343709,-1.0,2.0,-3.0,-5.0,-3.0,-2.0,0.0,-1.0
1705334381.8343709,0.0,0.0,0.0,0.0,1.0,0.0,1.0,-2.0
1705334381.8547337,-1.0,-8.0,0.0,-4.0,-1.0,-3.0,-2.0,0.0
1705334381.8547337,-1.0,-5.0,-1.0,-1.0,0.0,-5.0,-4.0,1.0
1705334381.8547337,1.0,-6.0,-2.0,-3.0,-3.0,-4.0,-3.0,-1.0
1705334381.8547337,1.0,-5.0,0.0,-5.0,-4.0,-3.0,-4.0,-1.0
1705334381.8643742,-1.0,-1.0,0.0,-3.0,0.0,0.0,-3.0,1.0
1705334381.8643742,-1.0,2.0,0.0,-4.0,-3.0,-1.0,-2.0,0.0
1705334381.8844266,0.0,-2.0,-2.0,-2.0,-2.0,0.0,-3.0,-2.0
1705334381.8844266,0.0,0.0,-2.0,-1.0,1.0,-2.0,-2.0,1.0
1705334381.8844266,-1.0,4.0,-1.0,-1.0,-1.0,2.0,-2.0,-1.0
1705334381.8844266,-2.0,3.0,-1.0,0.0,-1.0,0.0,1.0,-2.0
1705334381.8943706,-2.0,1.0,-2.0,-1.0,1.0,1.0,1.0,-1.0
1705334381.8943706,-1.0,-3.0,-2.0,-1.0,-3.0,1.0,-1.0,-2.0
1705334381.9047103,0.0,1.0,-2.0,-1.0,-1.0,1.0,0.0,-4.0
1705334381.9047103,-1.0,-3.0,-3.0,2.0,-1.0,1.0,0.0,2.0
1705334381.9147615,-1.0,0.0,-2.0,2.0,-1.0,2.0,-1.0,-1.0
1705334381.9147615,-2.0,4.0,-2.0,0.0,-1.0,-2.0,0.0,-1.0
1705334381.9243748,-2.0,4.0,-2.0,0.0,0.0,3.0,1.0,0.0
1705334381.9243748,-1.0,2.0,-3.0,0.0,0.0,0.0,1.0,-2.0
1705334381.9443696,-1.0,0.0,-1.0,0.0,0.0,0.0,0.0,-1.0
1705334381.9443696,0.0,-2.0,-3.0,1.0,1.0,1.0,1.0,-2.0
1705334381.9443696,-1.0,1.0,0.0,1.0,0.0,1.0,0.0,-1.0
1705334381.9443696,-1.0,-3.0,2.0,-1.0,0.0,0.0,0.0,-1.0
1705334381.9604757,-2.0,-1.0,-1.0,-1.0,-1.0,-3.0,1.0,-1.0
1705334381.9604757,-2.0,-1.0,-2.0,1.0,-2.0,-1.0,-1.0,0.0
1705334381.9667332,-1.0,0.0,-1.0,-2.0,-1.0,-2.0,0.0,-1.0
1705334381.9674897,-2.0,-4.0,-2.0,-1.0,-1.0,1.0,-2.0,0.0
1705334381.9794805,-1.0,-4.0,-1.0,0.0,-1.0,-2.0,-3.0,-4.0
1705334381.9794805,-1.0,1.0,-1.0,-1.0,-1.0,-1.0,1.0,0.0
1705334381.9794805,-3.0,-3.0,0.0,0.0,-1.0,-2.0,-1.0,-1.0
1705334381.9794805,-2.0,0.0,-1.0,-1.0,-1.0,-1.0,1.0,-1.0
1705334381.9994814,-1.0,1.0,-1.0,-1.0,-1.0,1.0,-1.0,0.0
1705334381.9994814,0.0,0.0,0.0,0.0,-2.0,-3.0,-1.0,-1.0
1705334381.9994814,-1.0,0.0,-2.0,0.0,-1.0,-2.0,1.0,-2.0
1705334381.9994814,-1.0,0.0,-1.0,0.0,-1.0,0.0,-1.0,-1.0
1705334382.0196607,-2.0,-2.0,0.0,0.0,-1.0,-1.0,-1.0,-1.0
1705334382.0196607,0.0,0.0,-1.0,-3.0,0.0,-1.0,1.0,-3.0
1705334382.0196607,0.0,-5.0,-2.0,-2.0,-2.0,-1.0,-3.0,-1.0
1705334382.0196607,0.0,-7.0,-1.0,-2.0,-3.0,-2.0,-1.0,-1.0
1705334382.03986,1.0,-3.0,0.0,-2.0,-1.0,-4.0,-4.0,0.0
1705334382.03986,0.0,-4.0,0.0,-3.0,-1.0,-4.0,-3.0,-1.0
1705334382.03986,0.0,-5.0,0.0,-3.0,-2.0,-3.0,-3.0,0.0
1705334382.03986,-1.0,-2.0,-2.0,-1.0,0.0,-2.0,-3.0,-3.0
1705334382.0594819,2.0,-4.0,-1.0,-5.0,-3.0,-2.0,-2.0,-1.0
1705334382.0594819,0.0,-3.0,0.0,-3.0,1.0,-3.0,-2.0,-1.0
1705334382.0594819,1.0,-3.0,-2.0,-3.0,-2.0,-3.0,0.0,0.0
1705334382.0594819,0.0,-6.0,1.0,-4.0,1.0,-4.0,-2.0,-1.0
1705334382.0796993,-1.0,-4.0,-1.0,-3.0,-2.0,-3.0,-2.0,0.0
1705334382.0796993,-2.0,-1.0,-2.0,-1.0,-3.0,-2.0,0.0,0.0
1705334382.0796993,-1.0,-2.0,-2.0,-2.0,0.0,0.0,-3.0,0.0
1705334382.0796993,0.0,0.0,-2.0,-3.0,-3.0,-1.0,0.0,0.0
1705334382.0999377,-1.0,3.0,-2.0,-2.0,0.0,-1.0,0.0,-2.0
1705334382.0999377,0.0,-3.0,-1.0,-1.0,-2.0,-2.0,-2.0,-2.0
1705334382.0999377,0.0,-2.0,0.0,0.0,-2.0,-1.0,-2.0,0.0
1705334382.0999377,-2.0,-1.0,-2.0,0.0,0.0,-1.0,1.0,0.0
1705334382.1194818,-1.0,3.0,-3.0,-1.0,-3.0,0.0,0.0,-1.0
1705334382.1194818,0.0,-2.0,-1.0,-1.0,0.0,-1.0,0.0,-2.0
1705334382.1298742,0.0,-2.0,1.0,0.0,0.0,0.0,1.0,-2.0
1705334382.1298742,-2.0,1.0,-2.0,-1.0,-2.0,-1.0,-2.0,-2.0
1705334382.1397488,-2.0,0.0,-1.0,-1.0,0.0,1.0,0.0,0.0
1705334382.1397488,-3.0,2.0,-2.0,-1.0,-1.0,2.0,0.0,-1.0
1705334382.1397488,-3.0,1.0,-2.0,1.0,0.0,-1.0,0.0,-3.0
1705334382.1397488,-3.0,-1.0,-1.0,0.0,-1.0,0.0,-1.0,-1.0
1705334382.1594815,-2.0,-1.0,0.0,2.0,1.0,0.0,0.0,-1.0
1705334382.1594815,2.0,0.0,-1.0,-1.0,-3.0,-3.0,-3.0,2.0
1705334382.1694813,-3.0,-2.0,-1.0,0.0,0.0,-2.0,0.0,-1.0
1705334382.1694813,-1.0,-3.0,-2.0,-1.0,-1.0,-2.0,-1.0,-1.0
1705334382.179727,0.0,-6.0,-3.0,-1.0,-1.0,-3.0,-3.0,-1.0
1705334382.179727,1.0,-4.0,1.0,-2.0,-1.0,-1.0,-2.0,-1.0
1705334382.1894913,0.0,-3.0,0.0,-3.0,-2.0,-1.0,0.0,1.0
1705334382.1894913,0.0,1.0,0.0,-1.0,0.0,-2.0,0.0,-1.0
1705334382.1995654,0.0,-1.0,0.0,-1.0,-1.0,-1.0,-1.0,-1.0
1705334382.1995654,0.0,0.0,-2.0,-4.0,0.0,-1.0,1.0,-1.0
1705334382.209486,-3.0,0.0,-1.0,0.0,-1.0,-1.0,-2.0,1.0
1705334382.209486,0.0,-4.0,-1.0,-3.0,-4.0,-3.0,-4.0,-1.0
1705334382.229483,0.0,-8.0,-1.0,-2.0,-3.0,-4.0,-2.0,-1.0
1705334382.229483,-1.0,-9.0,-2.0,-2.0,-1.0,-4.0,-2.0,-1.0
1705334382.229483,-1.0,-6.0,3.0,-1.0,-1.0,0.0,-2.0,-1.0
1705334382.229483,1.0,-6.0,0.0,1.0,-2.0,-3.0,-2.0,-1.0
1705334382.239514,0.0,-7.0,-1.0,-4.0,-2.0,-2.0,-4.0,1.0
1705334382.239514,0.0,-12.0,-1.0,-2.0,-1.0,-5.0,-5.0,1.0
1705334382.239514,-1.0,-2.0,-2.0,-4.0,-1.0,-5.0,-5.0,-1.0
1705334382.239514,-1.0,-3.0,-1.0,-4.0,-2.0,-2.0,-4.0,-2.0
1705334382.2598286,0.0,-5.0,-2.0,-2.0,1.0,-4.0,-4.0,-2.0
1705334382.2598286,-3.0,-1.0,0.0,-2.0,-2.0,-4.0,-2.0,0.0
1705334382.2598286,1.0,3.0,0.0,-1.0,-2.0,0.0,-1.0,-2.0
1705334382.2598286,-2.0,6.0,0.0,1.0,-1.0,4.0,2.0,0.0
1705334382.279483,-2.0,6.0,-2.0,0.0,-2.0,3.0,2.0,-1.0
1705334382.279483,-3.0,6.0,-3.0,1.0,1.0,6.0,4.0,-3.0
1705334382.279483,-3.0,6.0,-2.0,1.0,0.0,5.0,6.0,-2.0
1705334382.279483,-3.0,7.0,-2.0,2.0,-1.0,3.0,4.0,-2.0
1705334382.299802,-3.0,6.0,-1.0,5.0,1.0,3.0,3.0,-3.0
1705334382.299802,0.0,1.0,-1.0,4.0,0.0,2.0,3.0,-2.0
1705334382.299802,0.0,0.0,-2.0,2.0,-2.0,-1.0,-1.0,-1.0
1705334382.299802,0.0,-8.0,-4.0,-1.0,0.0,-2.0,0.0,-1.0
1705334382.3196287,-4.0,-1.0,3.0,2.0,-1.0,-2.0,-2.0,-2.0
1705334382.3196287,0.0,-3.0,-1.0,0.0,0.0,-2.0,-5.0,-1.0
1705334382.3294868,1.0,-6.0,-2.0,-1.0,-1.0,-2.0,-2.0,0.0
1705334382.3294868,0.0,-7.0,-1.0,1.0,-1.0,-3.0,-5.0,0.0
1705334382.3394904,2.0,-6.0,-1.0,-2.0,-1.0,-2.0,-4.0,0.0
1705334382.3394904,1.0,-3.0,-1.0,-1.0,-3.0,-2.0,-3.0,0.0
1705334382.3494842,-1.0,-1.0,-2.0,-1.0,-2.0,-1.0,0.0,0.0
1705334382.3494842,-1.0,3.0,0.0,-2.0,-1.0,-1.0,-1.0,-1.0
1705334382.3694878,-6.0,8.0,0.0,-1.0,0.0,1.0,1.0,0.0
1705334382.3694878,-3.0,3.0,-1.0,0.0,1.0,0.0,0.0,-1.0
1705334382.3794844,-1.0,-1.0,-1.0,-1.0,1.0,0.0,-3.0,-1.0
1705334382.3794844,-4.0,-1.0,-2.0,0.0,-1.0,-1.0,-1.0,0.0
1705334382.3794844,0.0,-8.0,-2.0,-1.0,-1.0,-2.0,-3.0,-1.0
1705334382.3794844,-1.0,0.0,-1.0,0.0,-2.0,1.0,-1.0,-1.0
1705334382.3794844,-1.0,-1.0,-1.0,-2.0,1.0,0.0,-1.0,0.0
1705334382.3794844,0.0,2.0,1.0,0.0,-1.0,2.0,-2.0,-2.0
1705334382.409482,-1.0,-3.0,-1.0,0.0,-3.0,-1.0,-1.0,-3.0
1705334382.409482,-3.0,1.0,-1.0,0.0,-2.0,-1.0,-1.0,-2.0
1705334382.409482,-1.0,-2.0,-2.0,0.0,-2.0,-1.0,0.0,-1.0
1705334382.409482,1.0,1.0,-2.0,0.0,0.0,-1.0,1.0,-3.0
1705334382.4196901,-1.0,-1.0,-1.0,-3.0,-1.0,0.0,0.0,-1.0
1705334382.4196901,-2.0,-2.0,0.0,0.0,-1.0,-3.0,0.0,-1.0
1705334382.4196901,-1.0,-4.0,-1.0,1.0,-1.0,-3.0,0.0,-2.0
1705334382.4196901,1.0,-7.0,-2.0,-3.0,-1.0,-4.0,0.0,1.0
1705334382.439483,1.0,-2.0,-2.0,-2.0,-3.0,-1.0,-2.0,-1.0
1705334382.439483,-2.0,-2.0,0.0,-3.0,-1.0,-3.0,-2.0,1.0
1705334382.4494805,0.0,-2.0,0.0,-1.0,-1.0,0.0,-1.0,1.0
1705334382.4494805,0.0,-4.0,0.0,-1.0,-1.0,-1.0,-2.0,0.0
1705334382.4597363,-1.0,-1.0,-2.0,-3.0,-1.0,-1.0,-1.0,1.0
1705334382.4597363,-3.0,1.0,0.0,-1.0,-1.0,0.0,0.0,-1.0
1705334382.4597363,-1.0,-3.0,-1.0,-3.0,-2.0,0.0,-1.0,-1.0
1705334382.4597363,-1.0,3.0,0.0,-2.0,-1.0,1.0,-2.0,0.0
1705334382.4861126,-1.0,-3.0,0.0,-1.0,-1.0,-2.0,0.0,-1.0
1705334382.4871347,1.0,-4.0,-1.0,-1.0,-2.0,-2.0,0.0,-3.0
1705334382.4881284,-1.0,-5.0,1.0,-1.0,0.0,-2.0,-2.0,-2.0
1705334382.4881284,-1.0,-4.0,-2.0,-2.0,-1.0,-2.0,-2.0,0.0
1705334382.4998372,0.0,-1.0,-2.0,-1.0,1.0,0.0,-1.0,-4.0
1705334382.4998372,0.0,3.0,-1.0,-1.0,0.0,0.0,0.0,-1.0
1705334382.5195735,-1.0,1.0,-3.0,-2.0,0.0,-2.0,1.0,-3.0
1705334382.5195735,-3.0,0.0,-1.0,-1.0,0.0,-2.0,0.0,-2.0
1705334382.5195735,-1.0,1.0,-2.0,0.0,-2.0,0.0,2.0,0.0
1705334382.5195735,1.0,1.0,-1.0,-1.0,0.0,-1.0,0.0,-3.0
1705334382.5195735,0.0,1.0,-3.0,-1.0,1.0,-2.0,-1.0,-3.0
1705334382.5195735,-2.0,2.0,0.0,0.0,0.0,0.0,1.0,-2.0
1705334382.5399656,-1.0,2.0,1.0,0.0,-1.0,0.0,3.0,-2.0
1705334382.5399656,-2.0,-5.0,-3.0,-1.0,0.0,-2.0,-1.0,0.0
1705334382.5399656,-3.0,-3.0,0.0,1.0,-1.0,0.0,1.0,-1.0
1705334382.5399656,-1.0,-1.0,-1.0,-2.0,0.0,-3.0,1.0,-1.0
1705334382.559988,0.0,-6.0,-1.0,0.0,0.0,-2.0,-1.0,-1.0
1705334382.559988,0.0,0.0,-1.0,-1.0,-2.0,-1.0,-1.0,-1.0
1705334382.5799837,0.0,-3.0,-3.0,-1.0,-3.0,-2.0,-2.0,-2.0
1705334382.5799837,-1.0,-7.0,-2.0,0.0,-2.0,-2.0,-2.0,0.0
1705334382.5799837,1.0,-5.0,0.0,-3.0,-2.0,-4.0,-4.0,1.0
1705334382.5799837,0.0,-3.0,0.0,-3.0,-1.0,0.0,-3.0,1.0
1705334382.5799837,0.0,-1.0,-1.0,-4.0,0.0,-3.0,-3.0,0.0
1705334382.5799837,-1.0,-3.0,0.0,-1.0,-1.0,-2.0,-3.0,-1.0
1705334382.600429,0.0,-1.0,-1.0,-2.0,-1.0,-1.0,-2.0,0.0
1705334382.600429,-1.0,-3.0,-2.0,-1.0,0.0,-4.0,-3.0,-1.0
1705334382.600429,-2.0,-3.0,-1.0,-1.0,-1.0,0.0,-1.0,-2.0
1705334382.600429,0.0,-2.0,-2.0,-1.0,-3.0,-1.0,-3.0,-1.0
1705334382.6198492,-2.0,2.0,-2.0,-1.0,0.0,0.0,-1.0,-1.0
1705334382.6198492,-1.0,-1.0,0.0,-2.0,-2.0,1.0,-2.0,-2.0
1705334382.629863,1.0,1.0,-2.0,-1.0,-3.0,0.0,0.0,1.0
1705334382.629863,-2.0,-3.0,-1.0,-2.0,-2.0,-1.0,0.0,0.0
1705334382.6401167,-3.0,-9.0,-1.0,0.0,-2.0,-2.0,-3.0,0.0
1705334382.6401167,0.0,-1.0,-1.0,-1.0,-1.0,0.0,-1.0,0.0
1705334382.6401167,0.0,-3.0,-1.0,-3.0,-2.0,-2.0,-2.0,-1.0
1705334382.6401167,0.0,-3.0,-1.0,-3.0,-1.0,-2.0,-4.0,1.0
1705334382.6602526,-1.0,0.0,-1.0,-2.0,0.0,-1.0,-1.0,1.0
1705334382.6602526,0.0,-7.0,-1.0,-2.0,1.0,-2.0,1.0,-3.0
1705334382.6698616,-2.0,-7.0,-1.0,-2.0,-1.0,-3.0,-2.0,-1.0
1705334382.6698616,1.0,-2.0,-1.0,-2.0,-3.0,-1.0,-2.0,0.0
1705334382.6698616,1.0,-4.0,-2.0,-3.0,-2.0,-2.0,-3.0,1.0
1705334382.6698616,-3.0,-2.0,-3.0,-3.0,-4.0,-2.0,-2.0,1.0
1705334382.6798618,-2.0,0.0,-1.0,-1.0,-2.0,0.0,-1.0,0.0
1705334382.6798618,-1.0,-2.0,-1.0,1.0,-2.0,-1.0,-1.0,0.0
1705334382.700319,0.0,-2.0,0.0,0.0,-1.0,-2.0,-2.0,-1.0
1705334382.700319,1.0,1.0,-1.0,1.0,0.0,1.0,-1.0,-1.0
1705334382.709863,0.0,-3.0,0.0,-3.0,0.0,-1.0,0.0,-2.0
1705334382.709863,-2.0,-1.0,-2.0,-2.0,-2.0,1.0,0.0,-2.0
1705334382.7203155,-2.0,2.0,1.0,-2.0,-2.0,-2.0,-2.0,-3.0
1705334382.7203155,-1.0,-2.0,-1.0,-1.0,0.0,-3.0,-1.0,-1.0
1705334382.7298636,0.0,2.0,-1.0,-1.0,-1.0,0.0,-3.0,1.0
1705334382.7298636,-2.0,1.0,-2.0,-1.0,0.0,-1.0,-1.0,-1.0
1705334382.7298636,0.0,1.0,-1.0,0.0,-1.0,-1.0,0.0,1.0
1705334382.7298636,-3.0,0.0,-1.0,-1.0,-3.0,1.0,-2.0,-2.0
1705334382.7398608,0.0,-1.0,-2.0,0.0,-1.0,-3.0,0.0,-1.0
1705334382.7398608,-1.0,1.0,-1.0,0.0,0.0,0.0,0.0,-3.0
1705334382.7603147,-3.0,-1.0,0.0,1.0,0.0,2.0,0.0,-1.0
1705334382.7603147,-3.0,1.0,-1.0,0.0,-1.0,0.0,-1.0,0.0
1705334382.7702599,-1.0,4.0,-2.0,1.0,0.0,3.0,1.0,-1.0
1705334382.7702599,0.0,2.0,0.0,0.0,0.0,1.0,1.0,-1.0
1705334382.7801445,-3.0,2.0,-1.0,0.0,0.0,1.0,2.0,-2.0
1705334382.7801445,-1.0,0.0,-1.0,-1.0,-2.0,1.0,1.0,-2.0
1705334382.7801445,-3.0,0.0,-1.0,0.0,-1.0,1.0,1.0,-1.0
1705334382.7801445,-2.0,0.0,1.0,2.0,0.0,-1.0,-1.0,-1.0
1705334382.8000271,0.0,2.0,-2.0,0.0,-1.0,3.0,3.0,-3.0
1705334382.8000271,0.0,-1.0,0.0,2.0,0.0,-1.0,4.0,1.0
1705334382.8099673,0.0,1.0,0.0,1.0,-1.0,-2.0,1.0,-3.0
1705334382.8099673,-1.0,0.0,0.0,1.0,0.0,1.0,4.0,-1.0
1705334382.8199942,-1.0,0.0,-1.0,-1.0,-1.0,-3.0,0.0,-1.0
1705334382.8199942,-3.0,-1.0,-1.0,0.0,-1.0,0.0,2.0,-2.0
1705334382.8299735,-1.0,-1.0,1.0,1.0,-2.0,-1.0,0.0,-1.0
1705334382.8299735,-1.0,0.0,-2.0,0.0,-1.0,-3.0,0.0,-1.0
1705334382.8499103,0.0,-1.0,-2.0,0.0,-1.0,0.0,-1.0,-1.0
1705334382.8499103,-2.0,-1.0,-1.0,-2.0,1.0,-1.0,0.0,-2.0
1705334382.8499103,0.0,-1.0,-2.0,-2.0,1.0,-1.0,-1.0,0.0
1705334382.8499103,0.0,-2.0,-3.0,-2.0,0.0,-1.0,-3.0,-3.0
1705334382.8602266,0.0,-2.0,-1.0,0.0,-1.0,-1.0,-3.0,0.0
1705334382.8602266,0.0,-4.0,-2.0,-1.0,-2.0,-2.0,-4.0,-1.0
1705334382.8702662,-2.0,0.0,-3.0,-1.0,1.0,-3.0,-3.0,0.0
1705334382.8702662,-2.0,-3.0,0.0,-1.0,-1.0,0.0,-4.0,-1.0
1705334382.8805633,0.0,-6.0,-3.0,-2.0,0.0,-1.0,-2.0,-1.0
1705334382.8805633,0.0,0.0,-1.0,-2.0,-1.0,-2.0,-4.0,0.0
1705334382.8805633,0.0,-2.0,0.0,-2.0,-1.0,0.0,-4.0,-1.0
1705334382.8805633,1.0,-7.0,-2.0,-3.0,-1.0,-1.0,-3.0,-1.0
1705334382.910582,-1.0,1.0,-1.0,-1.0,-1.0,0.0,-4.0,1.0
1705334382.910582,-1.0,-1.0,-2.0,-3.0,-1.0,0.0,-4.0,-3.0
1705334382.910582,-2.0,-4.0,-2.0,-1.0,-3.0,-2.0,-2.0,-1.0
1705334382.910582,-1.0,-1.0,1.0,-2.0,0.0,-1.0,-3.0,-1.0
1705334382.9208612,-1.0,-4.0,-1.0,-2.0,-2.0,-2.0,-2.0,-1.0
1705334382.9208612,-1.0,-4.0,-2.0,-2.0,-2.0,-2.0,-6.0,0.0
1705334382.9299161,-2.0,-3.0,0.0,-3.0,-1.0,-2.0,-2.0,1.0
1705334382.9299161,1.0,-2.0,-2.0,0.0,-1.0,-1.0,0.0,-1.0
1705334382.9402707,-1.0,-4.0,-2.0,-3.0,-1.0,-2.0,-3.0,-2.0
1705334382.9402707,-1.0,1.0,-1.0,-2.0,-1.0,-1.0,0.0,-1.0
1705334382.9499369,0.0,-1.0,-3.0,-2.0,-2.0,-1.0,-1.0,-1.0
1705334382.9499369,-2.0,-1.0,0.0,-3.0,-3.0,1.0,0.0,-1.0
1705334382.9799294,-2.0,2.0,-3.0,-2.0,-2.0,0.0,-1.0,-2.0
1705334382.9799294,-2.0,1.0,-1.0,1.0,-2.0,-1.0,-1.0,0.0
1705334382.9799294,0.0,0.0,-1.0,-1.0,0.0,0.0,-1.0,-2.0
1705334382.9799294,-1.0,1.0,-2.0,-1.0,-1.0,-1.0,0.0,-3.0
1705334382.9799294,-1.0,-3.0,-2.0,-1.0,-1.0,0.0,1.0,-2.0
1705334382.9799294,-2.0,-2.0,1.0,0.0,-2.0,0.0,-1.0,-1.0
1705334382.9900215,-2.0,4.0,-1.0,0.0,0.0,1.0,1.0,0.0
1705334382.9900215,0.0,4.0,0.0,-1.0,-1.0,-1.0,2.0,-2.0
1705334383.000396,-3.0,-2.0,0.0,3.0,4.0,2.0,-1.0,-1.0
1705334383.000396,0.0,1.0,-1.0,0.0,-1.0,-3.0,1.0,-2.0
1705334383.0116189,0.0,-4.0,-2.0,-1.0,-2.0,-1.0,-1.0,-1.0
1705334383.0116189,0.0,-1.0,-1.0,-2.0,-1.0,-3.0,-4.0,2.0
1705334383.0301843,0.0,1.0,0.0,-1.0,-1.0,-1.0,-1.0,-1.0
1705334383.0301843,1.0,-1.0,-1.0,-2.0,0.0,0.0,1.0,-1.0
1705334383.0301843,0.0,-3.0,0.0,-1.0,-2.0,-2.0,1.0,-3.0
1705334383.0301843,-2.0,-1.0,-1.0,-3.0,-1.0,-1.0,-2.0,0.0
1705334383.048478,1.0,1.0,-2.0,0.0,-1.0,-1.0,-2.0,-1.0
1705334383.0495005,0.0,-5.0,0.0,-1.0,-1.0,-2.0,-2.0,0.0
1705334383.0504947,0.0,-2.0,1.0,-2.0,-1.0,-1.0,-1.0,-2.0
1705334383.0504947,1.0,-1.0,-1.0,-2.0,-1.0,-3.0,-2.0,0.0
1705334383.061675,-1.0,-5.0,-1.0,-1.0,0.0,-3.0,-2.0,-1.0
1705334383.061675,-2.0,-2.0,-3.0,-1.0,0.0,0.0,-2.0,-3.0
1705334383.081749,1.0,-2.0,-1.0,-2.0,-3.0,-3.0,-1.0,0.0
1705334383.081749,-2.0,-6.0,0.0,-2.0,-2.0,0.0,-3.0,-2.0
1705334383.081749,1.0,4.0,-1.0,-5.0,-3.0,-1.0,0.0,1.0
1705334383.081749,-3.0,2.0,1.0,0.0,1.0,0.0,0.0,-3.0
1705334383.081749,-3.0,1.0,-1.0,0.0,-1.0,-2.0,0.0,1.0
1705334383.081749,1.0,-5.0,-3.0,-2.0,0.0,-2.0,0.0,0.0
1705334383.1020727,-2.0,-17.0,-2.0,-1.0,-1.0,-6.0,-5.0,-1.0
1705334383.1020727,4.0,-14.0,-1.0,-4.0,-3.0,-7.0,-5.0,0.0
1705334383.1020727,1.0,-6.0,-2.0,-4.0,0.0,-4.0,-4.0,0.0
1705334383.1020727,-1.0,-4.0,0.0,0.0,0.0,-1.0,0.0,-2.0
1705334383.1302605,-1.0,-4.0,3.0,-4.0,-2.0,-3.0,-2.0,0.0
1705334383.1302605,0.0,-1.0,-2.0,-4.0,-2.0,-1.0,-1.0,-1.0
1705334383.1302605,-1.0,1.0,-2.0,-5.0,-2.0,0.0,-2.0,0.0
1705334383.1302605,0.0,-1.0,0.0,0.0,0.0,-1.0,-1.0,-2.0
1705334383.1403039,0.0,2.0,-2.0,-4.0,-2.0,-3.0,1.0,0.0
1705334383.1403039,-3.0,-1.0,-1.0,-1.0,0.0,0.0,0.0,-1.0
1705334383.1403039,3.0,-1.0,-1.0,-3.0,-3.0,-4.0,0.0,-2.0
1705334383.1403039,-1.0,-2.0,0.0,1.0,0.0,-1.0,-2.0,-1.0
1705334383.1606708,0.0,-3.0,1.0,-1.0,-3.0,-1.0,-2.0,-1.0
1705334383.1606708,0.0,-3.0,-1.0,-3.0,-2.0,-3.0,-1.0,2.0
1705334383.1702724,-2.0,-5.0,1.0,2.0,0.0,0.0,-4.0,-1.0
1705334383.1702724,2.0,0.0,-1.0,-1.0,-3.0,-1.0,0.0,2.0
1705334383.180271,-3.0,-8.0,-2.0,-2.0,-1.0,-2.0,-2.0,-1.0
1705334383.180271,0.0,-3.0,0.0,1.0,-2.0,-2.0,-2.0,0.0
1705334383.19027,-1.0,-3.0,-2.0,-1.0,1.0,-3.0,-2.0,-2.0
1705334383.19027,-3.0,0.0,-1.0,-2.0,-2.0,-1.0,-2.0,-1.0
1705334383.2005286,-1.0,7.0,0.0,1.0,1.0,2.0,-1.0,-2.0
1705334383.2005286,-2.0,9.0,-1.0,-1.0,-1.0,3.0,1.0,-1.0
1705334383.2005286,-6.0,7.0,0.0,1.0,1.0,4.0,3.0,-3.0
1705334383.2005286,-3.0,4.0,0.0,1.0,0.0,2.0,2.0,0.0
1705334383.220564,-1.0,8.0,-3.0,3.0,0.0,3.0,2.0,-1.0
1705334383.220564,-3.0,-3.0,0.0,4.0,1.0,0.0,0.0,-4.0
1705334383.230277,0.0,0.0,-3.0,3.0,0.0,0.0,1.0,-2.0
1705334383.230277,-1.0,5.0,-1.0,2.0,-1.0,1.0,-1.0,-1.0
1705334383.260274,-2.0,0.0,-1.0,1.0,0.0,-1.0,-1.0,-1.0
1705334383.260274,0.0,1.0,-3.0,1.0,0.0,0.0,-1.0,0.0
1705334383.260274,-6.0,-31.0,-9.0,-3.0,-3.0,-4.0,-4.0,-4.0
1705334383.260274,3.0,0.0,2.0,2.0,-1.0,-2.0,-1.0,-1.0
1705334383.260274,0.0,-2.0,0.0,2.0,-2.0,0.0,-1.0,-1.0
1705334383.260274,-4.0,-7.0,-1.0,0.0,1.0,-2.0,-2.0,-2.0
1705334383.260274,-2.0,-12.0,-1.0,1.0,-1.0,-4.0,-4.0,1.0
1705334383.260274,-3.0,-10.0,-1.0,-1.0,-1.0,-1.0,-4.0,-2.0
1705334383.280526,0.0,-2.0,-1.0,-3.0,-2.0,-7.0,-3.0,2.0
1705334383.280526,4.0,-4.0,-1.0,-7.0,-5.0,-4.0,-2.0,1.0
1705334383.2902725,5.0,16.0,1.0,-3.0,-1.0,-1.0,-1.0,1.0
1705334383.2902725,-1.0,-5.0,-3.0,-5.0,-2.0,-3.0,-1.0,0.0
1705334383.3006296,-1.0,-6.0,1.0,-1.0,-2.0,-4.0,-2.0,-2.0
1705334383.3006296,-2.0,7.0,-2.0,-2.0,-2.0,-3.0,-2.0,-1.0
1705334383.3102725,2.0,1.0,-1.0,-2.0,-1.0,1.0,-2.0,0.0
1705334383.3102725,-1.0,1.0,-1.0,-4.0,-3.0,-3.0,1.0,-1.0
1705334383.3202705,-2.0,-4.0,-3.0,-4.0,1.0,0.0,-2.0,-2.0
1705334383.3202705,-1.0,-6.0,-1.0,-1.0,0.0,-2.0,0.0,0.0
1705334383.3202705,1.0,4.0,1.0,-2.0,-2.0,-1.0,0.0,-1.0
1705334383.3202705,0.0,-1.0,-2.0,0.0,0.0,-1.0,-1.0,0.0
1705334383.34058,-1.0,-1.0,0.0,-1.0,0.0,-3.0,-2.0,0.0
1705334383.34058,-1.0,3.0,-1.0,-2.0,-2.0,0.0,-2.0,-1.0
1705334383.3502715,0.0,3.0,-1.0,-1.0,-1.0,0.0,0.0,-1.0
1705334383.3502715,1.0,3.0,1.0,1.0,-1.0,0.0,1.0,-2.0
1705334383.3602707,-2.0,4.0,-1.0,0.0,-1.0,2.0,2.0,2.0
1705334383.3602707,-4.0,4.0,1.0,2.0,-1.0,2.0,2.0,-5.0
1705334383.3702703,0.0,1.0,0.0,-2.0,0.0,-1.0,1.0,0.0
1705334383.3702703,-4.0,-11.0,-3.0,2.0,1.0,0.0,0.0,-3.0
1705334383.3806727,-2.0,6.0,-1.0,-1.0,-2.0,-1.0,-1.0,-3.0
1705334383.3806727,0.0,2.0,-1.0,1.0,0.0,1.0,-1.0,-2.0
1705334383.390619,-2.0,5.0,1.0,2.0,-1.0,0.0,2.0,-2.0
1705334383.390619,-2.0,12.0,2.0,2.0,2.0,2.0,2.0,-1.0
1705334383.4005256,-3.0,2.0,0.0,3.0,0.0,5.0,2.0,-2.0
1705334383.4005256,-3.0,11.0,-2.0,2.0,-1.0,0.0,1.0,0.0
1705334383.4102714,-4.0,-1.0,-1.0,3.0,0.0,0.0,0.0,-2.0
1705334383.4102714,1.0,-2.0,-1.0,-1.0,-1.0,-3.0,-1.0,1.0
1705334383.420271,-2.0,-3.0,-1.0,3.0,-1.0,0.0,0.0,-3.0
1705334383.420271,-1.0,2.0,1.0,0.0,0.0,0.0,0.0,-1.0
1705334383.430276,-2.0,-4.0,-2.0,2.0,0.0,0.0,0.0,-2.0
1705334383.430276,-1.0,2.0,-2.0,-1.0,-2.0,-2.0,-1.0,-1.0
1705334383.4402738,-1.0,7.0,-1.0,0.0,0.0,1.0,-2.0,-1.0
1705334383.4402738,-3.0,1.0,-1.0,0.0,0.0,2.0,-3.0,0.0
1705334383.4402738,-3.0,8.0,0.0,1.0,-1.0,3.0,-1.0,-1.0
1705334383.4402738,-2.0,2.0,-1.0,0.0,-1.0,2.0,0.0,-3.0
1705334383.4702713,-1.0,-1.0,-1.0,-1.0,0.0,1.0,1.0,-3.0
1705334383.4702713,2.0,-8.0,-5.0,0.0,-2.0,-1.0,0.0,0.0
1705334383.4702713,0.0,-7.0,-3.0,-1.0,-2.0,-3.0,-2.0,-1.0
1705334383.4702713,-2.0,-7.0,-1.0,-1.0,-2.0,-3.0,-3.0,0.0
1705334383.4803143,-1.0,-7.0,0.0,-4.0,-1.0,-5.0,-3.0,0.0
1705334383.4803143,3.0,-10.0,-2.0,-4.0,0.0,-5.0,-2.0,0.0
1705334383.4903982,0.0,-2.0,4.0,-3.0,-3.0,-1.0,-1.0,-1.0
1705334383.4903982,1.0,-3.0,-2.0,-4.0,-3.0,0.0,0.0,0.0
1705334383.5006747,0.0,-1.0,1.0,-1.0,0.0,-1.0,1.0,-1.0
1705334383.5006747,-1.0,-1.0,1.0,-2.0,-1.0,1.0,0.0,-2.0
1705334383.5102746,-1.0,3.0,-1.0,-4.0,-2.0,-1.0,-1.0,-1.0
1705334383.5102746,-3.0,3.0,0.0,0.0,1.0,0.0,-2.0,-3.0
1705334383.5203042,-1.0,2.0,-1.0,0.0,-1.0,0.0,0.0,1.0
1705334383.5203042,-1.0,-3.0,-2.0,-3.0,-2.0,1.0,1.0,-3.0
1705334383.530276,0.0,-4.0,-2.0,-1.0,0.0,-2.0,-2.0,-1.0
1705334383.530276,-1.0,-4.0,-1.0,-3.0,-1.0,1.0,-3.0,-2.0
1705334383.542427,-1.0,-5.0,-2.0,-1.0,-2.0,-1.0,-3.0,-2.0
1705334383.542427,-2.0,-4.0,-2.0,-1.0,-1.0,-4.0,-3.0,-2.0
1705334383.5514545,-3.0,2.0,0.0,-3.0,-2.0,-3.0,-4.0,0.0
1705334383.5514545,-1.0,-1.0,-1.0,-3.0,-1.0,-4.0,-4.0,-1.0
1705334383.561603,3.0,-7.0,-3.0,-4.0,-2.0,-3.0,-6.0,1.0
1705334383.561603,0.0,-3.0,0.0,-4.0,0.0,-2.0,-4.0,0.0
1705334383.581604,1.0,0.0,-1.0,-5.0,-1.0,-2.0,-4.0,0.0
1705334383.581604,1.0,-5.0,-1.0,-4.0,-1.0,-3.0,-3.0,0.0
1705334383.581604,1.0,-6.0,-1.0,-4.0,-1.0,-3.0,-5.0,-2.0
1705334383.581604,-4.0,-21.0,-5.0,-5.0,-2.0,-2.0,-4.0,-1.0
1705334383.581604,2.0,-2.0,0.0,1.0,1.0,-2.0,-1.0,-1.0
1705334383.581604,-3.0,-1.0,-1.0,-1.0,-4.0,-2.0,-2.0,-2.0
1705334383.6019976,1.0,-2.0,-1.0,0.0,-1.0,-2.0,1.0,-1.0
1705334383.6019976,0.0,-5.0,-2.0,-2.0,-2.0,-2.0,0.0,-1.0
1705334383.6019976,-1.0,-4.0,-1.0,-2.0,-3.0,-3.0,2.0,-2.0
1705334383.6019976,-3.0,-2.0,1.0,-1.0,-1.0,-2.0,0.0,-2.0
1705334383.6216938,-2.0,-6.0,-4.0,-3.0,-2.0,-3.0,1.0,-2.0
1705334383.6216938,1.0,0.0,1.0,-1.0,-1.0,-2.0,1.0,-2.0
1705334383.6316001,0.0,-5.0,-2.0,-3.0,1.0,-1.0,0.0,-1.0
1705334383.6316001,1.0,1.0,-1.0,-2.0,0.0,-4.0,1.0,-1.0
1705334383.6406384,0.0,-7.0,-4.0,-5.0,-3.0,-3.0,1.0,-1.0
1705334383.6406384,1.0,0.0,1.0,-2.0,-1.0,-1.0,1.0,-3.0
1705334383.6406384,1.0,-3.0,-2.0,-5.0,-2.0,-4.0,0.0,-2.0
1705334383.6406384,1.0,-8.0,-3.0,-5.0,0.0,0.0,-2.0,-1.0
1705334383.6611137,1.0,14.0,5.0,1.0,-1.0,0.0,0.0,-3.0
1705334383.6611137,-1.0,4.0,-4.0,-2.0,-1.0,3.0,0.0,1.0
1705334383.670666,0.0,3.0,0.0,-2.0,-1.0,1.0,0.0,-1.0
1705334383.670666,-4.0,2.0,-1.0,-1.0,1.0,3.0,-2.0,1.0
1705334383.6806605,-2.0,-3.0,0.0,2.0,0.0,0.0,-3.0,-1.0
1705334383.6806605,0.0,3.0,-1.0,1.0,-1.0,0.0,-2.0,-1.0
1705334383.6906958,-3.0,0.0,0.0,0.0,-1.0,0.0,-3.0,-2.0
1705334383.6906958,0.0,-4.0,-1.0,1.0,-1.0,-2.0,-2.0,-2.0
1705334383.7006884,-2.0,-2.0,-1.0,-3.0,-2.0,1.0,-4.0,0.0
1705334383.7006884,-3.0,-4.0,1.0,0.0,0.0,-3.0,-6.0,-2.0
1705334383.710663,0.0,-6.0,-2.0,1.0,1.0,-3.0,-5.0,1.0
1705334383.710663,-1.0,-3.0,0.0,-1.0,-1.0,-1.0,-4.0,0.0
1705334383.7211163,-2.0,-1.0,-2.0,-3.0,-1.0,0.0,-1.0,-2.0
1705334383.7211163,1.0,7.0,3.0,0.0,-1.0,-3.0,0.0,-1.0
1705334383.7306652,-2.0,3.0,1.0,-1.0,-1.0,0.0,-2.0,-2.0
1705334383.7306652,0.0,-11.0,-2.0,0.0,-2.0,-2.0,-1.0,-1.0
1705334383.7406597,2.0,22.0,6.0,4.0,1.0,1.0,0.0,-1.0
1705334383.7406597,0.0,-2.0,0.0,-1.0,0.0,-1.0,0.0,1.0
1705334383.7510557,0.0,-3.0,-2.0,0.0,-2.0,0.0,0.0,-1.0
1705334383.7510557,-2.0,-2.0,-4.0,1.0,-1.0,-1.0,1.0,-2.0
1705334383.7609363,-1.0,-13.0,-4.0,-1.0,-1.0,-4.0,-1.0,-2.0
1705334383.7609363,-2.0,-6.0,-2.0,1.0,-1.0,-2.0,0.0,-1.0
1705334383.7609363,1.0,5.0,1.0,0.0,0.0,-2.0,1.0,0.0
1705334383.7706673,0.0,0.0,0.0,2.0,1.0,-1.0,-1.0,-2.0
1705334383.7906637,1.0,-19.0,-5.0,-1.0,-2.0,-2.0,-2.0,0.0
1705334383.7906637,-8.0,8.0,5.0,2.0,1.0,3.0,0.0,-3.0
1705334383.7906637,-2.0,-8.0,-3.0,-1.0,-1.0,0.0,-1.0,-1.0
1705334383.7906637,-1.0,1.0,-2.0,0.0,-1.0,-1.0,1.0,-2.0
1705334383.8006592,0.0,-5.0,-2.0,0.0,-1.0,-2.0,-1.0,-1.0
1705334383.8006592,0.0,-6.0,-4.0,-2.0,-1.0,-2.0,-1.0,-2.0
1705334383.8106601,-6.0,-2.0,-1.0,-1.0,-1.0,2.0,2.0,0.0
1705334383.8106601,-2.0,2.0,0.0,0.0,-1.0,-1.0,0.0,0.0
1705334383.821067,-1.0,4.0,0.0,-2.0,-1.0,0.0,-1.0,-1.0
1705334383.821067,-1.0,3.0,-1.0,-2.0,-1.0,-2.0,0.0,0.0
1705334383.821067,-1.0,1.0,-2.0,-1.0,-1.0,-1.0,0.0,-1.0
1705334383.8306668,4.0,1.0,-2.0,-2.0,-3.0,0.0,1.0,1.0
1705334383.8507154,-3.0,-18.0,-3.0,-1.0,-2.0,-2.0,-2.0,-2.0
1705334383.8507154,0.0,-5.0,-1.0,2.0,-1.0,-2.0,-2.0,-2.0
1705334383.8507154,0.0,-4.0,-2.0,-1.0,-1.0,-5.0,-1.0,-1.0
1705334383.8507154,-5.0,-13.0,-3.0,0.0,0.0,-2.0,-3.0,-4.0
1705334383.8606606,-1.0,-4.0,0.0,0.0,-1.0,0.0,0.0,0.0
1705334383.8606606,2.0,2.0,-1.0,-1.0,-2.0,0.0,0.0,-2.0
1705334383.8709197,1.0,0.0,-3.0,0.0,-3.0,-3.0,-2.0,-2.0
1705334383.8806736,-4.0,-4.0,-1.0,-1.0,0.0,-1.0,-2.0,-5.0
1705334383.8806736,2.0,38.0,7.0,2.0,1.0,0.0,0.0,0.0
1705334383.8806736,-1.0,-1.0,-2.0,-2.0,-1.0,0.0,-2.0,0.0
1705334383.890664,-1.0,-3.0,1.0,0.0,1.0,-1.0,-2.0,-2.0
1705334383.890664,-1.0,0.0,1.0,-1.0,-1.0,2.0,-2.0,-3.0
1705334383.9206634,-2.0,-11.0,-3.0,-1.0,0.0,-1.0,-1.0,-2.0
1705334383.9206634,1.0,-2.0,-3.0,-3.0,0.0,0.0,1.0,1.0
1705334383.9206634,-2.0,-10.0,-1.0,3.0,0.0,1.0,-2.0,-3.0
1705334383.9206634,1.0,4.0,2.0,0.0,-1.0,-2.0,-1.0,1.0
1705334383.9206634,-3.0,-9.0,-3.0,-1.0,-2.0,-1.0,-3.0,-2.0
1705334383.9206634,8.0,4.0,0.0,-2.0,-4.0,-2.0,0.0,2.0
1705334383.93087,-3.0,-6.0,1.0,-1.0,0.0,0.0,-2.0,-1.0
1705334383.93087,2.0,0.0,-2.0,-2.0,-1.0,1.0,2.0,1.0
1705334383.9410038,-1.0,-3.0,-3.0,-4.0,-1.0,-1.0,-1.0,-2.0
1705334383.9410038,-3.0,-5.0,-2.0,1.0,-1.0,0.0,-2.0,-1.0
1705334383.9410038,-1.0,-4.0,-2.0,-2.0,0.0,-1.0,-1.0,-1.0
1705334383.9410038,-3.0,6.0,0.0,-1.0,0.0,-1.0,-1.0,-1.0
1705334383.9706633,0.0,2.0,-1.0,0.0,-3.0,0.0,0.0,0.0
1705334383.9706633,-2.0,0.0,-1.0,-1.0,-1.0,-1.0,0.0,-2.0
1705334383.9706633,1.0,3.0,-2.0,-1.0,-2.0,0.0,0.0,-1.0
1705334383.9706633,-2.0,0.0,-2.0,-2.0,0.0,1.0,-2.0,-1.0
1705334383.9806921,0.0,-8.0,-3.0,-3.0,-2.0,-3.0,0.0,-1.0
1705334383.9806921,-3.0,0.0,-1.0,0.0,-1.0,-2.0,0.0,-2.0
1705334383.990947,-1.0,-1.0,-2.0,-2.0,-2.0,-1.0,0.0,0.0
1705334383.990947,0.0,-2.0,-1.0,-1.0,-2.0,-1.0,-1.0,-2.0
1705334384.000958,-3.0,9.0,2.0,0.0,-1.0,1.0,1.0,-1.0
1705334384.000958,-1.0,-3.0,1.0,-2.0,-1.0,-1.0,-1.0,-2.0
1705334384.0106657,1.0,4.0,0.0,-1.0,0.0,0.0,-2.0,-1.0
1705334384.0106657,-1.0,-10.0,-1.0,-2.0,-3.0,-2.0,-1.0,1.0
1705334384.030669,-1.0,-3.0,-2.0,2.0,0.0,-2.0,-1.0,-2.0
1705334384.040667,-2.0,-3.0,-1.0,0.0,-1.0,-1.0,-2.0,-1.0
1705334384.0506608,-1.0,1.0,0.0,-2.0,-3.0,-1.0,1.0,0.0
1705334384.0506608,0.0,4.0,-3.0,-2.0,0.0,-1.0,-1.0,-1.0
1705334384.0506608,-2.0,-5.0,-1.0,-4.0,0.0,-1.0,-2.0,0.0
1705334384.0506608,0.0,0.0,-1.0,-2.0,-1.0,-1.0,-1.0,-2.0
1705334384.0506608,0.0,2.0,-1.0,0.0,-2.0,0.0,-2.0,-1.0
1705334384.0506608,-1.0,5.0,1.0,1.0,-2.0,-2.0,-1.0,-1.0
1705334384.0606937,1.0,-9.0,0.0,-1.0,-1.0,-2.0,-2.0,-1.0
1705334384.0606937,-1.0,-4.0,-1.0,-2.0,-2.0,0.0,0.0,-3.0
1705334384.0606937,-1.0,-3.0,0.0,1.0,-1.0,-5.0,-1.0,-1.0
1705334384.0606937,0.0,0.0,-2.0,-1.0,-3.0,-1.0,-1.0,-1.0
1705334384.095655,0.0,0.0,-2.0,-1.0,-2.0,-2.0,-1.0,0.0
1705334384.095655,-1.0,-7.0,-1.0,-3.0,-2.0,-2.0,-1.0,0.0
1705334384.095655,-3.0,-3.0,0.0,1.0,0.0,1.0,-2.0,-3.0
1705334384.095655,1.0,0.0,0.0,-3.0,0.0,-2.0,0.0,1.0
1705334384.095655,-1.0,0.0,0.0,-1.0,-1.0,-2.0,-3.0,-3.0
1705334384.095655,0.0,0.0,-2.0,-1.0,-2.0,-2.0,0.0,1.0
1705334384.116109,0.0,4.0,-1.0,-3.0,-2.0,-2.0,-1.0,0.0
1705334384.116109,-2.0,0.0,-1.0,-1.0,-2.0,-2.0,0.0,-2.0
1705334384.1263177,-2.0,-5.0,0.0,-2.0,-2.0,-1.0,-1.0,0.0
1705334384.1263177,-1.0,0.0,0.0,-1.0,2.0,-1.0,-2.0,1.0
1705334384.1263177,0.0,-4.0,-2.0,0.0,-1.0,0.0,0.0,0.0
1705334384.1263177,-1.0,-2.0,0.0,0.0,-1.0,-1.0,-3.0,-1.0
1705334384.1461673,-1.0,1.0,-1.0,-3.0,-1.0,-2.0,-2.0,-1.0
1705334384.1461673,-1.0,-3.0,-1.0,1.0,-1.0,-3.0,-3.0,-1.0
1705334384.1461673,-2.0,-4.0,-1.0,-1.0,-2.0,-2.0,-1.0,-1.0
1705334384.1461673,-1.0,-1.0,-1.0,-1.0,0.0,-1.0,-1.0,-1.0
1705334384.1564963,-1.0,0.0,-1.0,-2.0,-2.0,-5.0,-1.0,1.0
1705334384.1564963,-2.0,-3.0,-2.0,-1.0,1.0,0.0,-3.0,-2.0
1705334384.1663585,-1.0,-1.0,-1.0,-2.0,-2.0,-1.0,-1.0,-1.0
1705334384.1663585,1.0,-2.0,0.0,-2.0,-2.0,-2.0,-2.0,-1.0
1705334384.1865065,-1.0,-7.0,-3.0,0.0,-1.0,-2.0,-2.0,0.0
1705334384.1865065,-2.0,1.0,-1.0,-2.0,-1.0,0.0,1.0,0.0
1705334384.1865065,-3.0,1.0,-1.0,-1.0,0.0,0.0,0.0,0.0
1705334384.1865065,-3.0,2.0,-2.0,-2.0,-1.0,0.0,0.0,-2.0
1705334384.2065384,-1.0,0.0,0.0,1.0,-1.0,0.0,0.0,-1.0
1705334384.2065384,-2.0,3.0,0.0,2.0,0.0,1.0,0.0,-1.0
1705334384.2065384,0.0,3.0,-1.0,0.0,1.0,-1.0,0.0,0.0
1705334384.2065384,0.0,1.0,-1.0,0.0,-2.0,0.0,0.0,-1.0
1705334384.226135,-2.0,3.0,-3.0,0.0,-1.0,1.0,2.0,-1.0
1705334384.226135,-1.0,1.0,-1.0,0.0,-3.0,0.0,1.0,-1.0
1705334384.226135,-1.0,-1.0,-2.0,0.0,-1.0,0.0,-3.0,-1.0
1705334384.226135,-2.0,0.0,1.0,0.0,0.0,1.0,-1.0,-3.0
1705334384.24656,-1.0,-2.0,-2.0,0.0,0.0,-1.0,-1.0,-1.0
1705334384.24656,0.0,-1.0,1.0,0.0,-1.0,-2.0,-1.0,-1.0
1705334384.24656,-3.0,-2.0,-2.0,0.0,0.0,-1.0,1.0,-2.0
1705334384.24656,-1.0,0.0,-1.0,0.0,-2.0,-1.0,1.0,-1.0
1705334384.2761335,-1.0,1.0,0.0,1.0,0.0,0.0,-1.0,-1.0
1705334384.2761335,-1.0,-1.0,-2.0,-1.0,-1.0,-1.0,-1.0,1.0
1705334384.2761335,0.0,-4.0,0.0,1.0,-1.0,-1.0,-2.0,-4.0
1705334384.2761335,-1.0,-3.0,-3.0,-1.0,-1.0,-3.0,0.0,1.0
1705334384.2761335,0.0,-5.0,-1.0,-1.0,-2.0,-1.0,-2.0,-1.0
1705334384.2761335,0.0,-10.0,-2.0,-4.0,0.0,-3.0,-2.0,-1.0
1705334384.296133,1.0,-13.0,-1.0,-5.0,-2.0,-6.0,-4.0,-1.0
1705334384.296133,2.0,-20.0,0.0,-4.0,-3.0,-8.0,-6.0,-1.0
1705334384.3064768,2.0,20.0,-2.0,-5.0,-2.0,0.0,-2.0,-2.0
1705334384.3064768,-3.0,30.0,-2.0,0.0,1.0,7.0,6.0,-2.0
1705334384.3064768,-3.0,19.0,-2.0,4.0,1.0,8.0,7.0,-3.0
1705334384.3064768,-3.0,10.0,-1.0,4.0,3.0,5.0,6.0,-2.0
1705334384.3265111,-2.0,-12.0,-1.0,3.0,-2.0,1.0,0.0,0.0
1705334384.3265111,0.0,-14.0,1.0,2.0,-1.0,-6.0,-3.0,0.0
1705334384.3265111,3.0,-1.0,0.0,-1.0,-2.0,-4.0,-3.0,0.0
1705334384.3265111,1.0,-10.0,1.0,0.0,-1.0,-2.0,-6.0,-1.0
1705334384.346445,2.0,-7.0,-1.0,-4.0,-3.0,-3.0,-3.0,0.0
1705334384.346445,0.0,-4.0,-1.0,-4.0,-3.0,-2.0,-2.0,0.0
1705334384.346445,-2.0,-6.0,0.0,-3.0,-1.0,-1.0,-2.0,0.0
1705334384.346445,0.0,-4.0,-1.0,-2.0,0.0,-3.0,-1.0,1.0
1705334384.3664913,-2.0,0.0,-1.0,-2.0,-1.0,-1.0,-1.0,-2.0
1705334384.3664913,0.0,-5.0,2.0,-1.0,-1.0,-3.0,-1.0,0.0
1705334384.3664913,-1.0,-5.0,-4.0,-5.0,-2.0,-3.0,-2.0,-2.0
1705334384.3664913,-2.0,2.0,-4.0,-3.0,-1.0,-2.0,-3.0,0.0
1705334384.386132,-1.0,-6.0,1.0,-3.0,0.0,-2.0,-1.0,-3.0
1705334384.386132,-1.0,-6.0,-2.0,0.0,-1.0,-2.0,-2.0,-2.0
1705334384.386132,1.0,-5.0,0.0,-3.0,-2.0,-1.0,-1.0,-1.0
1705334384.386132,-2.0,-1.0,0.0,-2.0,0.0,-1.0,0.0,-1.0
1705334384.396169,-3.0,-4.0,-1.0,-1.0,-1.0,-3.0,-1.0,-2.0
1705334384.396169,1.0,0.0,-2.0,-3.0,-3.0,-1.0,-3.0,-2.0
1705334384.416134,-2.0,0.0,0.0,0.0,-3.0,-1.0,-2.0,0.0
1705334384.416134,0.0,1.0,0.0,-2.0,-3.0,0.0,-1.0,0.0
1705334384.4264908,-1.0,-3.0,1.0,0.0,-1.0,-2.0,-1.0,0.0
1705334384.4264908,1.0,-1.0,-3.0,-4.0,-2.0,-1.0,-1.0,0.0
1705334384.4264908,-1.0,-1.0,-1.0,0.0,-1.0,-1.0,0.0,-1.0
1705334384.4264908,0.0,-2.0,-3.0,-1.0,0.0,-3.0,0.0,0.0
1705334384.4465525,-2.0,2.0,-1.0,-2.0,-1.0,1.0,-1.0,-2.0
1705334384.4465525,-1.0,-3.0,-3.0,0.0,0.0,-2.0,-1.0,-1.0
1705334384.4465525,-2.0,0.0,0.0,-2.0,-1.0,-1.0,-1.0,0.0
1705334384.4465525,-3.0,5.0,-1.0,-1.0,-2.0,2.0,0.0,-1.0
1705334384.4661329,0.0,3.0,-1.0,-1.0,-1.0,0.0,0.0,0.0
1705334384.4661329,-4.0,-1.0,-1.0,0.0,1.0,-1.0,0.0,-3.0
1705334384.4661329,1.0,0.0,1.0,1.0,-1.0,-1.0,-2.0,-1.0
1705334384.4661329,1.0,0.0,-1.0,0.0,-1.0,-1.0,0.0,1.0
1705334384.4865408,-1.0,-6.0,-3.0,1.0,0.0,0.0,-2.0,-2.0
1705334384.4865408,-1.0,2.0,-1.0,-1.0,0.0,-2.0,-4.0,-1.0
1705334384.4865408,-2.0,-4.0,-2.0,-1.0,-1.0,-2.0,-2.0,-1.0
1705334384.4865408,-1.0,-5.0,1.0,-1.0,-1.0,0.0,-2.0,-1.0
1705334384.5065513,0.0,-2.0,-3.0,-1.0,-1.0,-2.0,-2.0,1.0
1705334384.5065513,0.0,-7.0,0.0,-2.0,0.0,-1.0,0.0,-1.0
1705334384.5065513,-2.0,-3.0,-2.0,-2.0,0.0,1.0,-2.0,1.0
1705334384.5065513,1.0,-2.0,-2.0,-2.0,-2.0,-2.0,-1.0,-2.0
1705334384.5161335,0.0,-2.0,-2.0,-4.0,0.0,-2.0,-1.0,-1.0
1705334384.5161335,-2.0,-1.0,-2.0,-2.0,-2.0,1.0,-2.0,0.0
1705334384.5261607,-1.0,-3.0,1.0,0.0,0.0,-2.0,0.0,-1.0
1705334384.5261607,-2.0,-1.0,-3.0,-2.0,0.0,-2.0,-2.0,-1.0
1705334384.546137,-4.0,-3.0,2.0,-1.0,-1.0,0.0,-1.0,-1.0
1705334384.546137,-2.0,-1.0,-1.0,-1.0,0.0,-1.0,-1.0,-3.0
1705334384.546137,1.0,-1.0,-3.0,-1.0,-2.0,0.0,-1.0,-1.0
1705334384.546137,0.0,-2.0,-1.0,0.0,-2.0,0.0,1.0,-2.0
1705334384.5663767,-3.0,1.0,-2.0,1.0,-1.0,-1.0,0.0,-2.0
1705334384.5663767,-3.0,-2.0,-1.0,-1.0,-1.0,1.0,-2.0,1.0
1705334384.576137,-2.0,0.0,-2.0,0.0,-1.0,-1.0,-1.0,-2.0
1705334384.576137,-2.0,1.0,-1.0,0.0,-1.0,-1.0,-3.0,0.0
1705334384.586134,0.0,-1.0,-1.0,0.0,-2.0,-2.0,0.0,0.0
1705334384.586134,0.0,-2.0,-2.0,1.0,-1.0,-1.0,0.0,-2.0
1705334384.586134,-1.0,2.0,0.0,-1.0,-1.0,-1.0,-1.0,0.0
1705334384.586134,1.0,-3.0,-2.0,-2.0,-2.0,-1.0,0.0,-2.0
1705334384.6079185,-2.0,-1.0,-1.0,-2.0,-1.0,-2.0,0.0,-1.0
1705334384.6079185,2.0,-6.0,-1.0,-1.0,-2.0,-2.0,-1.0,-1.0
1705334384.6145952,-2.0,-5.0,-2.0,-2.0,0.0,-3.0,0.0,0.0
1705334384.6145952,-2.0,0.0,1.0,-1.0,1.0,0.0,-1.0,-1.0
1705334384.62713,0.0,-3.0,0.0,-2.0,-1.0,-1.0,-4.0,-1.0
1705334384.62713,-2.0,-3.0,0.0,0.0,-2.0,-3.0,0.0,-2.0
1705334384.62713,-1.0,-4.0,-3.0,-3.0,-1.0,-1.0,-1.0,-1.0
1705334384.62713,-1.0,-4.0,1.0,0.0,1.0,-1.0,-4.0,-1.0
1705334384.6371317,-1.0,0.0,-1.0,0.0,0.0,-1.0,0.0,1.0
1705334384.6371317,-1.0,1.0,0.0,-2.0,0.0,-1.0,1.0,-2.0
1705334384.6471598,-1.0,2.0,2.0,0.0,-1.0,-2.0,-1.0,-1.0
1705334384.6471598,-1.0,2.0,-2.0,-4.0,-1.0,-2.0,0.0,-1.0
1705334384.6669261,-4.0,-2.0,18.0,3.0,-2.0,0.0,-2.0,-4.0
1705334384.6669261,0.0,-3.0,-16.0,-1.0,-1.0,-1.0,0.0,-1.0
1705334384.6669261,-1.0,-1.0,-1.0,-3.0,-4.0,-1.0,-2.0,-2.0
1705334384.6669261,-2.0,2.0,-1.0,-2.0,-2.0,0.0,0.0,2.0
1705334384.6867032,0.0,-1.0,20.0,2.0,-2.0,0.0,0.0,1.0
1705334384.6867032,-2.0,-4.0,4.0,2.0,1.0,0.0,0.0,-2.0
1705334384.696511,-2.0,-1.0,-64.0,-11.0,-4.0,-2.0,-2.0,-1.0
1705334384.696511,-2.0,-1.0,-1.0,0.0,-1.0,-2.0,-1.0,-1.0
1705334384.716977,0.0,-3.0,-4.0,-1.0,1.0,0.0,-1.0,-3.0
1705334384.716977,1.0,1.0,14.0,0.0,-2.0,-1.0,0.0,1.0
1705334384.716977,1.0,-3.0,14.0,2.0,-1.0,-2.0,1.0,-1.0
1705334384.716977,1.0,-4.0,-2.0,-1.0,-2.0,-3.0,0.0,-2.0
1705334384.726853,1.0,1.0,-11.0,-4.0,-3.0,-1.0,0.0,-1.0
1705334384.726853,-2.0,0.0,1.0,-1.0,1.0,-4.0,-2.0,-2.0
1705334384.726853,-4.0,-1.0,8.0,0.0,0.0,1.0,-1.0,-3.0
1705334384.726853,0.0,-2.0,1.0,0.0,-1.0,-1.0,-1.0,-2.0
1705334384.7469633,0.0,2.0,-2.0,-1.0,0.0,2.0,0.0,1.0
1705334384.7469633,-1.0,0.0,-5.0,-3.0,-3.0,0.0,-2.0,0.0
1705334384.7469633,1.0,-1.0,7.0,1.0,0.0,1.0,-3.0,0.0
1705334384.7469633,0.0,-1.0,1.0,-2.0,-2.0,-1.0,-1.0,-1.0
1705334384.766847,0.0,-3.0,-8.0,-3.0,-1.0,-3.0,0.0,-2.0
1705334384.766847,0.0,-2.0,2.0,0.0,-2.0,-2.0,-2.0,0.0
1705334384.766847,0.0,1.0,-3.0,1.0,0.0,-1.0,0.0,0.0
1705334384.766847,-2.0,-2.0,-6.0,-2.0,-1.0,-1.0,-2.0,0.0
1705334384.786843,-2.0,-5.0,-10.0,-3.0,-1.0,-3.0,-1.0,-1.0
1705334384.786843,-1.0,2.0,2.0,-2.0,-2.0,0.0,-1.0,0.0
1705334384.7969177,1.0,-2.0,13.0,3.0,0.0,-2.0,1.0,-1.0
1705334384.7969177,-3.0,-2.0,0.0,2.0,0.0,0.0,-1.0,0.0
1705334384.8168426,-2.0,3.0,-7.0,-5.0,-2.0,-1.0,-1.0,-2.0
1705334384.8168426,1.0,-3.0,0.0,-1.0,-1.0,-1.0,-1.0,-1.0
1705334384.8168426,0.0,-1.0,2.0,-1.0,-1.0,-2.0,-1.0,0.0
1705334384.8168426,0.0,0.0,-2.0,-1.0,-2.0,0.0,0.0,0.0
1705334384.8268442,0.0,-2.0,-2.0,3.0,1.0,-2.0,-2.0,-1.0
1705334384.8268442,-3.0,0.0,-4.0,-1.0,-1.0,-1.0,-3.0,-4.0
1705334384.8268442,0.0,0.0,-1.0,-2.0,-2.0,-1.0,-2.0,1.0
1705334384.8268442,-4.0,1.0,2.0,0.0,-1.0,-2.0,-1.0,-4.0
1705334384.8473015,-1.0,-1.0,33.0,6.0,0.0,0.0,0.0,-1.0
1705334384.8473015,1.0,-3.0,1.0,0.0,-1.0,1.0,1.0,0.0
1705334384.8473015,-4.0,-7.0,-66.0,-16.0,-6.0,-6.0,-4.0,1.0
1705334384.8473015,-3.0,-5.0,-20.0,-4.0,-3.0,-1.0,-1.0,0.0
1705334384.8668249,2.0,0.0,-5.0,-3.0,-3.0,0.0,-2.0,0.0
1705334384.8668249,-3.0,4.0,20.0,3.0,1.0,0.0,-2.0,-1.0
1705334384.8668249,1.0,-3.0,30.0,5.0,0.0,1.0,-1.0,1.0
1705334384.8668249,0.0,-2.0,-2.0,-1.0,-1.0,0.0,-2.0,-2.0
1705334384.8871877,-2.0,-5.0,-11.0,-1.0,1.0,-2.0,-3.0,0.0
1705334384.8871877,-2.0,-2.0,0.0,0.0,0.0,-1.0,-2.0,1.0
1705334384.8871877,-1.0,3.0,2.0,3.0,1.0,2.0,2.0,-3.0
1705334384.8871877,1.0,-2.0,-2.0,-2.0,-1.0,-2.0,-4.0,-1.0
1705334384.9068263,-2.0,-3.0,0.0,0.0,1.0,-1.0,0.0,-2.0
1705334384.9068263,0.0,1.0,-10.0,-3.0,-3.0,-2.0,-1.0,-2.0
1705334384.916828,-3.0,-1.0,7.0,1.0,0.0,-1.0,1.0,-1.0
1705334384.916828,-2.0,1.0,7.0,0.0,-1.0,1.0,0.0,0.0
1705334384.9268498,-2.0,-1.0,-6.0,-2.0,-1.0,1.0,-1.0,-2.0
1705334384.9268498,-3.0,-2.0,-11.0,-2.0,-1.0,0.0,-3.0,0.0
1705334384.9268498,1.0,-2.0,6.0,0.0,-3.0,-1.0,-3.0,-3.0
1705334384.9268498,0.0,0.0,4.0,0.0,0.0,-1.0,0.0,1.0
1705334384.9472818,0.0,2.0,-6.0,-3.0,-2.0,-2.0,0.0,1.0
1705334384.9472818,-1.0,-7.0,-9.0,-3.0,-1.0,-2.0,1.0,-1.0
1705334384.9472818,-4.0,-1.0,11.0,2.0,-1.0,1.0,-1.0,2.0
1705334384.9472818,-1.0,-2.0,4.0,1.0,-1.0,-2.0,0.0,-1.0
1705334384.967135,-1.0,-1.0,13.0,3.0,-3.0,0.0,-1.0,1.0
1705334384.967135,-2.0,-3.0,-43.0,-6.0,-2.0,-1.0,-1.0,-2.0
1705334384.9773014,0.0,1.0,2.0,-3.0,-2.0,-2.0,-2.0,-1.0
1705334384.9773014,0.0,-1.0,10.0,-2.0,-1.0,-1.0,-1.0,-1.0
1705334384.9873474,1.0,-3.0,-16.0,-4.0,-2.0,-1.0,-1.0,-1.0
1705334384.9873474,0.0,6.0,27.0,3.0,-1.0,-1.0,0.0,1.0
1705334384.9873474,-5.0,0.0,-7.0,3.0,1.0,2.0,0.0,-4.0
1705334384.9873474,-1.0,1.0,-17.0,-4.0,-4.0,-2.0,-3.0,0.0
1705334385.0074315,-2.0,1.0,2.0,-2.0,-3.0,1.0,0.0,-2.0
1705334385.0074315,-3.0,-3.0,4.0,1.0,0.0,0.0,0.0,-1.0
1705334385.0074315,0.0,1.0,9.0,2.0,1.0,0.0,1.0,-1.0
1705334385.0074315,-3.0,-2.0,22.0,4.0,4.0,-2.0,1.0,-2.0
1705334385.0471377,-1.0,-2.0,-14.0,-2.0,-1.0,-2.0,-2.0,1.0
1705334385.0471377,-1.0,-6.0,-3.0,-3.0,-2.0,-1.0,-1.0,-1.0
1705334385.0471377,2.0,-1.0,8.0,-2.0,-1.0,-1.0,-1.0,-1.0
1705334385.0471377,0.0,-4.0,-8.0,-2.0,-2.0,-1.0,-1.0,-2.0
1705334385.0471377,1.0,1.0,-1.0,-5.0,-2.0,-6.0,-2.0,-2.0
1705334385.0471377,0.0,1.0,0.0,-3.0,0.0,-3.0,-3.0,0.0
1705334385.0573375,-2.0,-3.0,1.0,-4.0,-2.0,-2.0,-2.0,-1.0
1705334385.0573375,0.0,-1.0,1.0,-1.0,-1.0,1.0,-2.0,0.0
1705334385.0672457,-1.0,-3.0,-8.0,-4.0,-2.0,0.0,-1.0,0.0
1705334385.0672457,-1.0,-3.0,1.0,1.0,-2.0,-1.0,0.0,-3.0
1705334385.0672457,-1.0,-3.0,4.0,1.0,-2.0,-1.0,0.0,-1.0
1705334385.0672457,0.0,-2.0,-6.0,-2.0,0.0,0.0,-2.0,1.0
1705334385.0971344,-1.0,-4.0,3.0,1.0,-1.0,-1.0,-2.0,-1.0
1705334385.0971344,3.0,-6.0,10.0,-6.0,-2.0,-1.0,-2.0,-1.0
1705334385.0971344,1.0,1.0,1.0,-3.0,-1.0,-3.0,-1.0,-1.0
1705334385.0971344,-3.0,0.0,-5.0,0.0,-1.0,-2.0,-2.0,-1.0
1705334385.1073802,-5.0,-8.0,-5.0,-4.0,-1.0,-2.0,-1.0,-2.0
1705334385.1073802,1.0,-2.0,14.0,2.0,-2.0,0.0,-1.0,-1.0
1705334385.1073802,1.0,-3.0,1.0,0.0,-2.0,-2.0,-1.0,-1.0
1705334385.1073802,-2.0,-4.0,-20.0,-6.0,-1.0,-2.0,-1.0,-2.0
1705334385.1338458,0.0,4.0,17.0,1.0,0.0,2.0,0.0,-1.0
1705334385.1338458,-3.0,5.0,-7.0,1.0,1.0,5.0,2.0,0.0
1705334385.1358554,-3.0,0.0,-22.0,-6.0,-1.0,0.0,1.0,0.0
1705334385.1358554,-1.0,-2.0,6.0,0.0,-1.0,0.0,0.0,-4.0
1705334385.1594331,-3.0,3.0,7.0,3.0,1.0,2.0,0.0,-1.0
1705334385.1594331,0.0,2.0,-12.0,-4.0,-1.0,0.0,0.0,-1.0
1705334385.1594331,-4.0,8.0,9.0,2.0,0.0,0.0,0.0,0.0
1705334385.1594331,-1.0,0.0,-3.0,1.0,-1.0,1.0,0.0,2.0
1705334385.1696985,0.0,-5.0,-1.0,0.0,-2.0,-1.0,-3.0,0.0
1705334385.1696985,-2.0,-2.0,6.0,3.0,-1.0,-3.0,-3.0,1.0
1705334385.1696985,0.0,-8.0,-4.0,0.0,0.0,-2.0,-4.0,0.0
1705334385.1696985,0.0,-7.0,0.0,-3.0,0.0,-3.0,-2.0,-1.0
1705334385.1994374,1.0,-5.0,0.0,-1.0,-1.0,-3.0,-2.0,-1.0
1705334385.1994374,0.0,-8.0,-5.0,-2.0,0.0,-5.0,-3.0,0.0
1705334385.1994374,0.0,-8.0,2.0,-4.0,-3.0,-3.0,-2.0,-2.0
1705334385.1994374,-2.0,-8.0,-19.0,-9.0,-4.0,-5.0,-4.0,0.0
1705334385.1994374,-1.0,-3.0,-5.0,-3.0,-1.0,-3.0,-2.0,0.0
1705334385.1994374,-2.0,2.0,-4.0,-3.0,-1.0,-2.0,-2.0,0.0
1705334385.209464,-1.0,3.0,0.0,1.0,0.0,-1.0,-2.0,-3.0
1705334385.209464,0.0,4.0,16.0,1.0,0.0,1.0,0.0,0.0
1705334385.2297308,-1.0,3.0,-16.0,-2.0,0.0,1.0,1.0,-1.0
1705334385.2297308,-1.0,5.0,-4.0,0.0,0.0,1.0,0.0,-1.0
1705334385.2297308,0.0,3.0,10.0,1.0,1.0,4.0,3.0,-1.0
1705334385.2297308,-3.0,7.0,-11.0,1.0,0.0,3.0,4.0,-1.0
1705334385.2674775,-4.0,5.0,1.0,1.0,-2.0,2.0,0.0,-4.0
1705334385.2674775,-3.0,6.0,1.0,3.0,-1.0,3.0,0.0,-4.0
1705334385.2674775,-2.0,5.0,9.0,6.0,-2.0,4.0,0.0,-3.0
1705334385.2674775,-1.0,5.0,17.0,4.0,-1.0,4.0,2.0,0.0
1705334385.2674775,-3.0,-4.0,-43.0,-5.0,-2.0,-1.0,-1.0,0.0
1705334385.2674775,-3.0,3.0,-7.0,-1.0,0.0,2.0,0.0,-1.0
1705334385.2674775,-2.0,3.0,-9.0,-1.0,-1.0,-1.0,-1.0,-1.0
1705334385.2674775,-4.0,3.0,9.0,5.0,0.0,2.0,0.0,-4.0
1705334385.2877626,-1.0,0.0,16.0,2.0,0.0,1.0,0.0,0.0
1705334385.2877626,-1.0,-5.0,-1.0,0.0,-1.0,-1.0,-1.0,-1.0
1705334385.2877626,-1.0,-8.0,-6.0,-3.0,-2.0,-4.0,-3.0,0.0
1705334385.2877626,2.0,-6.0,1.0,0.0,-1.0,-4.0,-3.0,1.0
1705334385.3174772,0.0,-5.0,2.0,0.0,0.0,-2.0,-3.0,0.0
1705334385.3174772,3.0,-11.0,-4.0,-3.0,-2.0,-6.0,-2.0,1.0
1705334385.3174772,0.0,-10.0,-3.0,-3.0,0.0,-3.0,-1.0,0.0
1705334385.3174772,1.0,-7.0,-3.0,-3.0,0.0,-4.0,-4.0,-1.0
1705334385.3274784,-2.0,0.0,1.0,-2.0,-1.0,-5.0,-4.0,-2.0
1705334385.3274784,1.0,-2.0,-1.0,-4.0,-2.0,-2.0,-1.0,0.0
1705334385.3274784,0.0,-3.0,-1.0,-4.0,-4.0,-3.0,-2.0,-1.0
1705334385.3274784,1.0,-5.0,-3.0,-4.0,-1.0,-2.0,-4.0,-2.0
1705334385.3477988,-1.0,-2.0,2.0,-3.0,1.0,-1.0,1.0,-1.0
1705334385.3477988,-2.0,-2.0,5.0,-2.0,0.0,-4.0,-3.0,0.0
1705334385.3477988,0.0,-5.0,-4.0,-3.0,-1.0,-4.0,-1.0,2.0
1705334385.3477988,0.0,-2.0,-3.0,-4.0,-1.0,-3.0,-2.0,0.0
1705334385.367586,2.0,-1.0,3.0,-2.0,-2.0,-1.0,-1.0,0.0
1705334385.367586,-1.0,-4.0,-1.0,-1.0,-2.0,-3.0,0.0,-3.0
1705334385.367586,-1.0,-3.0,2.0,-2.0,0.0,0.0,-2.0,-1.0
1705334385.367586,-2.0,-2.0,6.0,-2.0,-2.0,0.0,0.0,0.0
1705334385.3877366,-1.0,-7.0,-13.0,-1.0,-3.0,-1.0,0.0,1.0
1705334385.3877366,-1.0,-4.0,0.0,-3.0,-2.0,-1.0,-1.0,-1.0
1705334385.3973212,2.0,1.0,-4.0,-3.0,1.0,-2.0,-2.0,-1.0
1705334385.3973212,-2.0,-3.0,-1.0,0.0,0.0,-1.0,-1.0,-1.0
1705334385.407323,1.0,-2.0,9.0,-2.0,-1.0,0.0,-1.0,-2.0
1705334385.407323,-2.0,-2.0,4.0,0.0,-1.0,-3.0,-3.0,-1.0
1705334385.4173212,1.0,-5.0,-5.0,0.0,0.0,-3.0,-2.0,-1.0
1705334385.4173212,-1.0,-5.0,-8.0,-6.0,-3.0,-1.0,-3.0,-1.0
1705334385.4273272,-3.0,-1.0,0.0,-1.0,-1.0,0.0,-1.0,0.0
1705334385.4273272,-1.0,-2.0,-2.0,-1.0,0.0,1.0,-2.0,-1.0
1705334385.4273272,-3.0,0.0,6.0,0.0,-1.0,0.0,-2.0,-3.0
1705334385.4273272,-3.0,0.0,-1.0,1.0,-1.0,-2.0,-2.0,-2.0
1705334385.4473813,-1.0,1.0,-1.0,-1.0,0.0,0.0,1.0,-1.0
1705334385.4473813,-3.0,-2.0,1.0,1.0,0.0,0.0,-1.0,-1.0
1705334385.457604,-3.0,-1.0,1.0,0.0,0.0,0.0,2.0,-3.0
1705334385.457604,0.0,4.0,8.0,0.0,-1.0,-2.0,0.0,-1.0
1705334385.467396,0.0,-6.0,-16.0,1.0,-1.0,0.0,0.0,-2.0
1705334385.467396,-3.0,-2.0,-15.0,-3.0,-1.0,-1.0,-2.0,-2.0
1705334385.4773247,-3.0,0.0,-29.0,-3.0,-1.0,-1.0,0.0,1.0
1705334385.4773247,1.0,-2.0,3.0,-3.0,-1.0,-1.0,1.0,1.0
1705334385.4873214,-2.0,3.0,33.0,5.0,0.0,1.0,0.0,-2.0
1705334385.4873214,1.0,-3.0,-12.0,3.0,1.0,1.0,1.0,-2.0
1705334385.4873214,-2.0,-2.0,-11.0,-6.0,-2.0,0.0,-2.0,-1.0
1705334385.4873214,-1.0,-3.0,-3.0,0.0,0.0,0.0,1.0,0.0
1705334385.5073736,-1.0,0.0,3.0,-1.0,-2.0,-1.0,-1.0,-1.0
1705334385.5073736,-1.0,2.0,11.0,1.0,-1.0,2.0,1.0,-2.0
1705334385.5073736,-3.0,4.0,7.0,4.0,1.0,2.0,-1.0,0.0
1705334385.5073736,-2.0,2.0,-2.0,-1.0,-2.0,1.0,-1.0,-2.0
1705334385.5273256,0.0,-1.0,22.0,4.0,0.0,-1.0,-1.0,-2.0
1705334385.5273256,-1.0,-2.0,-11.0,0.0,-3.0,0.0,1.0,-1.0
1705334385.5373197,-1.0,-2.0,-10.0,-3.0,-4.0,-2.0,1.0,-2.0
1705334385.5373197,-2.0,-6.0,-26.0,-2.0,-1.0,-2.0,1.0,-1.0
1705334385.5476122,-1.0,0.0,-1.0,-2.0,-2.0,-3.0,-2.0,-1.0
1705334385.5476122,1.0,1.0,17.0,0.0,-2.0,-1.0,-3.0,0.0
1705334385.5476122,0.0,-1.0,17.0,3.0,0.0,-1.0,-1.0,0.0
1705334385.5476122,0.0,-3.0,-4.0,0.0,0.0,-1.0,-2.0,0.0
1705334385.5673895,-3.0,-1.0,-14.0,-5.0,-3.0,-2.0,-2.0,-4.0
1705334385.5673895,0.0,0.0,-4.0,-4.0,-1.0,-1.0,-1.0,0.0
1705334385.5673895,-1.0,-2.0,8.0,-1.0,0.0,0.0,-2.0,0.0
1705334385.5673895,-2.0,1.0,9.0,-1.0,0.0,-1.0,-2.0,-3.0
1705334385.5873196,0.0,1.0,16.0,2.0,-1.0,-1.0,-2.0,1.0
1705334385.5873196,-2.0,-1.0,-18.0,0.0,-1.0,-1.0,0.0,-1.0
1705334385.597325,1.0,-7.0,-17.0,-12.0,-6.0,-4.0,-2.0,-1.0
1705334385.597325,2.0,-1.0,4.0,-4.0,0.0,0.0,0.0,0.0
1705334385.6076243,0.0,0.0,-11.0,-2.0,0.0,1.0,-1.0,0.0
1705334385.6076243,2.0,4.0,47.0,6.0,0.0,-2.0,-1.0,0.0
1705334385.6076243,1.0,-5.0,4.0,3.0,2.0,2.0,0.0,-8.0
1705334385.6076243,-4.0,-5.0,-60.0,-9.0,-5.0,-4.0,-1.0,17.0
1705334385.6276124,0.0,-1.0,5.0,-5.0,-4.0,-4.0,-5.0,-13.0
1705334385.6276124,-1.0,-4.0,-1.0,-4.0,-1.0,-1.0,1.0,0.0
1705334385.6373265,-2.0,2.0,12.0,11.0,1.0,0.0,1.0,-6.0
1705334385.6373265,-2.0,-1.0,36.0,4.0,-1.0,1.0,-3.0,-13.0
1705334385.6588705,-2.0,2.0,-23.0,0.0,2.0,2.0,6.0,11.0
1705334385.6588705,-3.0,-5.0,-51.0,-13.0,-4.0,-5.0,-6.0,20.0
1705334385.6588705,-1.0,0.0,14.0,-6.0,-3.0,-3.0,-2.0,-13.0
1705334385.6588705,0.0,3.0,14.0,7.0,-2.0,1.0,0.0,-3.0
1705334385.6692364,0.0,3.0,12.0,3.0,-1.0,1.0,1.0,-7.0
1705334385.6692364,-1.0,4.0,23.0,7.0,2.0,2.0,4.0,-1.0
1705334385.6692364,-3.0,1.0,10.0,-1.0,-3.0,-3.0,-2.0,8.0
1705334385.6692364,-2.0,-3.0,-56.0,-9.0,-1.0,-4.0,-2.0,-2.0
1705334385.7027817,-2.0,0.0,-6.0,-1.0,0.0,-2.0,-3.0,4.0
1705334385.7027817,-1.0,-2.0,-1.0,-1.0,1.0,-1.0,1.0,-8.0
1705334385.7027817,1.0,3.0,20.0,8.0,2.0,0.0,1.0,3.0
1705334385.7027817,1.0,5.0,25.0,7.0,0.0,-3.0,-1.0,-3.0
1705334385.7060866,-3.0,-7.0,-1.0,-5.0,-5.0,-7.0,-3.0,4.0
1705334385.7060866,-8.0,-22.0,-90.0,-25.0,-11.0,-3.0,-8.0,-30.0
1705334385.716323,3.0,-3.0,-16.0,-7.0,0.0,1.0,2.0,22.0
1705334385.716323,-2.0,-9.0,-24.0,-8.0,1.0,3.0,1.0,1.0
1705334385.7363868,0.0,5.0,18.0,9.0,2.0,-2.0,-3.0,-5.0
1705334385.7363868,5.0,10.0,86.0,20.0,4.0,3.0,2.0,-2.0
1705334385.7363868,-3.0,4.0,-22.0,-3.0,0.0,1.0,2.0,-5.0
1705334385.7363868,-3.0,-6.0,-17.0,-2.0,0.0,0.0,1.0,1.0
1705334385.7560945,-2.0,-6.0,-1.0,-12.0,0.0,2.0,2.0,-4.0
1705334385.7560945,-3.0,1.0,1.0,10.0,0.0,-4.0,-2.0,-1.0
1705334385.766092,1.0,3.0,27.0,4.0,-1.0,-4.0,-6.0,-11.0
1705334385.766092,1.0,3.0,38.0,7.0,-1.0,2.0,-2.0,21.0
1705334385.7760897,-3.0,-10.0,-45.0,-7.0,2.0,-1.0,-1.0,-6.0
1705334385.7760897,-2.0,1.0,-20.0,-1.0,1.0,4.0,1.0,2.0
1705334385.7760897,-2.0,5.0,10.0,-3.0,-3.0,-1.0,0.0,1.0
1705334385.7760897,-1.0,11.0,37.0,11.0,-2.0,-5.0,-2.0,-5.0
1705334385.786104,-2.0,0.0,-6.0,5.0,0.0,1.0,-2.0,-9.0
1705334385.786104,2.0,-16.0,14.0,-18.0,0.0,1.0,5.0,17.0
1705334385.786104,10.0,-8.0,-30.0,-2.0,-4.0,-6.0,-4.0,-7.0
1705334385.786104,-1.0,7.0,31.0,-14.0,-3.0,-2.0,0.0,-8.0
1705334385.8160877,0.0,-3.0,8.0,-1.0,-4.0,-5.0,-3.0,3.0
1705334385.8160877,0.0,1.0,-19.0,-3.0,-1.0,-1.0,-4.0,-16.0
1705334385.8160877,-4.0,-3.0,14.0,7.0,-1.0,1.0,1.0,-3.0
1705334385.8160877,5.0,-11.0,-13.0,3.0,3.0,1.0,0.0,9.0
1705334385.826422,0.0,-3.0,57.0,12.0,3.0,2.0,0.0,-8.0
1705334385.826422,-8.0,16.0,-2.0,-27.0,-9.0,-9.0,-6.0,0.0
1705334385.8363738,8.0,-13.0,-15.0,-3.0,-4.0,-2.0,-2.0,14.0
1705334385.8363738,-2.0,-2.0,12.0,-7.0,-4.0,-3.0,-4.0,-5.0
1705334385.846446,-5.0,0.0,-1.0,4.0,2.0,0.0,-1.0,-3.0
1705334385.846446,1.0,-5.0,54.0,12.0,0.0,1.0,1.0,0.0
1705334385.846446,-4.0,9.0,-72.0,-11.0,0.0,2.0,0.0,2.0
1705334385.846446,1.0,-3.0,33.0,23.0,3.0,3.0,2.0,-8.0
1705334385.8760881,-2.0,-7.0,23.0,1.0,-3.0,-2.0,0.0,5.0
1705334385.8760881,3.0,13.0,-51.0,-12.0,-5.0,-6.0,-3.0,3.0
1705334385.8760881,-7.0,3.0,3.0,-3.0,0.0,-1.0,-2.0,-3.0
1705334385.8760881,2.0,-2.0,11.0,2.0,1.0,2.0,2.0,-3.0
1705334385.88649,1.0,-12.0,-4.0,2.0,-1.0,0.0,0.0,2.0
1705334385.88649,0.0,15.0,-18.0,15.0,1.0,0.0,-2.0,0.0
1705334385.896457,-5.0,-15.0,23.0,-10.0,0.0,-4.0,-3.0,-5.0
1705334385.896457,-6.0,-6.0,10.0,-1.0,-5.0,-5.0,-5.0,-5.0
1705334385.9164903,-1.0,-5.0,-87.0,-16.0,0.0,3.0,0.0,-4.0
1705334385.9164903,4.0,-5.0,-6.0,-6.0,-1.0,-1.0,1.0,17.0
1705334385.926089,-1.0,3.0,33.0,11.0,-2.0,-3.0,-5.0,-11.0
1705334385.926089,-2.0,-5.0,19.0,2.0,-2.0,-2.0,-1.0,10.0
1705334385.926089,1.0,-11.0,-52.0,-20.0,-5.0,-5.0,-3.0,-1.0
1705334385.9360898,0.0,-11.0,-31.0,23.0,12.0,9.0,3.0,-8.0
1705334385.9360898,-6.0,-7.0,68.0,-8.0,-2.0,-4.0,2.0,-14.0
1705334385.9360898,-1.0,21.0,-52.0,-35.0,-7.0,-10.0,-13.0,23.0
1705334385.946473,-4.0,-3.0,-42.0,1.0,-5.0,-4.0,-1.0,-6.0
1705334385.946473,-3.0,-21.0,-44.0,-25.0,-12.0,-14.0,-8.0,-5.0
1705334385.9562874,3.0,9.0,84.0,45.0,12.0,11.0,4.0,-1.0
1705334385.9562874,-4.0,-17.0,-110.0,-33.0,-2.0,-2.0,4.0,-12.0
1705334385.9760902,6.0,2.0,112.0,12.0,-1.0,-3.0,-3.0,6.0
1705334385.9760902,0.0,-9.0,59.0,20.0,4.0,-1.0,0.0,2.0
1705334385.9760902,-9.0,-4.0,-84.0,-60.0,-16.0,-14.0,-7.0,3.0
1705334385.9760902,-7.0,-6.0,19.0,-18.0,-11.0,-11.0,-8.0,-10.0
1705334385.9962308,0.0,-24.0,-77.0,-12.0,2.0,1.0,2.0,6.0
1705334385.9962308,1.0,4.0,49.0,11.0,9.0,13.0,8.0,-8.0
1705334385.9962308,0.0,0.0,19.0,24.0,2.0,2.0,2.0,9.0
1705334385.9962308,1.0,0.0,29.0,1.0,3.0,4.0,6.0,-7.0
1705334386.0064774,-3.0,29.0,25.0,-14.0,-6.0,-8.0,1.0,-5.0
1705334386.0064774,-3.0,-9.0,-13.0,16.0,-2.0,0.0,1.0,1.0
1705334386.016147,1.0,5.0,-97.0,-9.0,8.0,12.0,12.0,2.0
1705334386.016147,0.0,-30.0,-52.0,23.0,11.0,10.0,11.0,-5.0
1705334386.0360882,-10.0,28.0,44.0,-40.0,-30.0,-35.0,-19.0,-2.0
1705334386.0360882,5.0,24.0,62.0,-3.0,-5.0,-5.0,-3.0,3.0
1705334386.0360882,-10.0,-50.0,-74.0,-23.0,-7.0,-3.0,-3.0,-1.0
1705334386.0360882,-1.0,9.0,27.0,2.0,4.0,4.0,5.0,-7.0
1705334386.0561318,-4.0,-3.0,22.0,-39.0,-10.0,-1.0,-3.0,-2.0
1705334386.0561318,-2.0,9.0,72.0,20.0,4.0,0.0,-4.0,-4.0
1705334386.0561318,9.0,-7.0,-64.0,-2.0,2.0,7.0,0.0,-2.0
1705334386.0561318,3.0,-23.0,-13.0,42.0,19.0,16.0,5.0,2.0
1705334386.066439,-9.0,-6.0,-31.0,-7.0,-11.0,-10.0,-12.0,-5.0
1705334386.066439,-8.0,82.0,-10.0,-45.0,-25.0,-32.0,-31.0,-9.0
1705334386.0763996,3.0,-9.0,-34.0,29.0,15.0,10.0,1.0,8.0
1705334386.0763996,-2.0,3.0,45.0,-32.0,-6.0,-2.0,-2.0,-1.0
1705334386.0960906,14.0,9.0,35.0,58.0,23.0,22.0,16.0,6.0
1705334386.0960906,-24.0,-90.0,-103.0,-56.0,-18.0,-11.0,-4.0,-6.0
1705334386.0960906,-3.0,33.0,127.0,22.0,-6.0,-4.0,-2.0,-5.0
1705334386.0960906,-4.0,22.0,9.0,2.0,-3.0,-1.0,0.0,-4.0
1705334386.1161594,2.0,12.0,23.0,27.0,15.0,21.0,13.0,1.0
1705334386.1161594,3.0,-3.0,7.0,28.0,9.0,15.0,13.0,1.0
1705334386.1161594,-2.0,16.0,23.0,-13.0,-4.0,1.0,-1.0,-1.0
1705334386.1161594,-7.0,-7.0,1.0,-9.0,-18.0,-17.0,-12.0,-5.0
1705334386.136403,6.0,12.0,44.0,37.0,17.0,17.0,7.0,7.0
1705334386.136403,3.0,-4.0,34.0,26.0,13.0,11.0,5.0,2.0
1705334386.136403,-2.0,-1.0,-69.0,-41.0,-9.0,-4.0,-8.0,-3.0
1705334386.136403,-3.0,-9.0,26.0,28.0,-8.0,-13.0,-13.0,-2.0
1705334386.1660903,-2.0,-8.0,19.0,7.0,1.0,-5.0,-7.0,0.0
1705334386.1660903,7.0,9.0,88.0,8.0,4.0,6.0,-3.0,0.0
1705334386.1660903,-15.0,-14.0,-4.0,0.0,-8.0,-12.0,-11.0,-6.0
1705334386.1660903,1.0,3.0,-80.0,2.0,-4.0,-4.0,-5.0,-3.0
1705334386.176088,1.0,-20.0,43.0,9.0,3.0,4.0,0.0,-1.0
1705334386.176088,-2.0,0.0,-81.0,-5.0,11.0,10.0,10.0,2.0
1705334386.176088,4.0,27.0,17.0,3.0,-2.0,2.0,3.0,1.0
1705334386.176088,-3.0,-7.0,62.0,39.0,8.0,5.0,6.0,-13.0
1705334386.1893728,-1.0,6.0,-18.0,-47.0,-14.0,-11.0,-5.0,-3.0
1705334386.1893728,4.0,-16.0,-37.0,-9.0,-4.0,-6.0,-1.0,1.0
1705334386.202225,-1.0,-10.0,62.0,35.0,12.0,9.0,8.0,1.0
1705334386.202225,-8.0,12.0,22.0,-11.0,-7.0,-2.0,-1.0,-3.0
1705334386.2086687,7.0,19.0,-97.0,-15.0,-1.0,0.0,4.0,2.0
1705334386.2086687,-8.0,-41.0,62.0,-19.0,-7.0,-5.0,0.0,-2.0
1705334386.2086687,-6.0,-13.0,-109.0,-21.0,-9.0,-4.0,1.0,-2.0
1705334386.2086687,-4.0,40.0,33.0,-5.0,1.0,2.0,1.0,0.0
1705334386.2293947,-2.0,1.0,53.0,42.0,-4.0,-10.0,-5.0,-4.0
1705334386.2293947,8.0,12.0,-38.0,-2.0,7.0,6.0,2.0,5.0
1705334386.2293947,-1.0,-50.0,-56.0,21.0,7.0,-2.0,4.0,1.0
1705334386.2293947,4.0,-10.0,-22.0,-75.0,-10.0,-9.0,-4.0,0.0
1705334386.249298,-4.0,-37.0,28.0,18.0,-9.0,-14.0,-11.0,0.0
1705334386.249298,4.0,0.0,-13.0,-37.0,-5.0,-1.0,-2.0,-1.0
1705334386.2590804,1.0,-9.0,77.0,12.0,2.0,0.0,-6.0,-2.0
1705334386.2590804,7.0,5.0,80.0,28.0,3.0,-8.0,-8.0,5.0
1705334386.2691092,3.0,-14.0,-128.0,-77.0,-13.0,-11.0,-6.0,2.0
1705334386.2691092,0.0,-17.0,67.0,23.0,-3.0,-6.0,-8.0,0.0
1705334386.2691092,7.0,4.0,52.0,10.0,1.0,0.0,-1.0,3.0
1705334386.2691092,-1.0,-4.0,-70.0,-45.0,-14.0,-3.0,-2.0,0.0
1705334386.296509,1.0,10.0,40.0,26.0,12.0,-1.0,1.0,-1.0
1705334386.296509,-5.0,3.0,-37.0,0.0,2.0,5.0,2.0,-1.0
1705334386.296509,3.0,5.0,59.0,-10.0,-5.0,-2.0,-1.0,-3.0
1705334386.296509,-5.0,0.0,-30.0,7.0,-3.0,-10.0,-8.0,-3.0
1705334386.306638,4.0,-6.0,-44.0,5.0,8.0,11.0,8.0,2.0
1705334386.306638,-5.0,-26.0,-27.0,-18.0,-5.0,-12.0,-6.0,-3.0
1705334386.3163943,-2.0,25.0,48.0,-21.0,-12.0,-15.0,-12.0,-3.0
1705334386.3163943,4.0,-45.0,20.0,20.0,4.0,6.0,3.0,4.0
1705334386.3264203,-5.0,-1.0,24.0,7.0,1.0,8.0,2.0,-1.0
1705334386.3264203,-10.0,-21.0,95.0,0.0,-16.0,-12.0,-7.0,-4.0
1705334386.3264203,1.0,17.0,17.0,1.0,3.0,1.0,-1.0,0.0
1705334386.3264203,-2.0,-2.0,7.0,17.0,6.0,5.0,3.0,0.0
1705334386.3563938,-4.0,38.0,-35.0,-26.0,7.0,11.0,5.0,-3.0
1705334386.3563938,2.0,44.0,-26.0,20.0,6.0,8.0,6.0,-3.0
1705334386.3563938,-7.0,-9.0,22.0,-1.0,3.0,1.0,3.0,1.0
1705334386.3563938,-2.0,-2.0,-74.0,4.0,5.0,12.0,9.0,-5.0
1705334386.3666053,-7.0,-37.0,76.0,7.0,-10.0,-5.0,-3.0,-16.0
1705334386.3666053,3.0,-26.0,-22.0,-5.0,-10.0,-14.0,-16.0,-14.0
1705334386.3763952,-2.0,-42.0,-50.0,-12.0,-1.0,4.0,6.0,6.0
1705334386.3763952,-1.0,-47.0,-8.0,5.0,2.0,7.0,3.0,-12.0
1705334386.386425,8.0,-32.0,-7.0,12.0,4.0,-1.0,5.0,33.0
1705334386.386425,-9.0,-24.0,-32.0,-1.0,1.0,3.0,3.0,-10.0
1705334386.3965797,3.0,0.0,47.0,17.0,-6.0,-13.0,-11.0,-5.0
1705334386.3965797,-3.0,45.0,-16.0,2.0,7.0,0.0,-1.0,2.0
1705334386.416398,-12.0,49.0,43.0,3.0,-4.0,-2.0,-4.0,-5.0
1705334386.416398,-3.0,38.0,4.0,-5.0,3.0,7.0,7.0,6.0
1705334386.4264019,4.0,55.0,-61.0,16.0,7.0,2.0,5.0,-1.0
1705334386.4264019,-6.0,16.0,46.0,-8.0,-2.0,2.0,0.0,3.0
1705334386.4363937,0.0,-20.0,-7.0,19.0,-4.0,-9.0,-9.0,-7.0
1705334386.4363937,-1.0,-17.0,13.0,-5.0,-2.0,3.0,-7.0,2.0
1705334386.4363937,5.0,-7.0,-1.0,-6.0,0.0,-1.0,9.0,-1.0
1705334386.4363937,5.0,-54.0,-22.0,1.0,6.0,7.0,6.0,5.0
1705334386.446427,-13.0,-47.0,28.0,-1.0,-14.0,-17.0,-7.0,-9.0
1705334386.446427,6.0,24.0,-9.0,10.0,0.0,-1.0,-1.0,-17.0
1705334386.456723,4.0,-2.0,-11.0,-7.0,-8.0,-28.0,-65.0,35.0
1705334386.456723,-14.0,49.0,-9.0,-22.0,-9.0,-11.0,31.0,1.0
1705334386.46674,-2.0,41.0,-22.0,-1.0,7.0,38.0,30.0,-1.0
1705334386.4762514,-9.0,22.0,-17.0,-3.0,-4.0,-2.0,-39.0,-3.0
1705334386.4762514,-10.0,39.0,24.0,-1.0,5.0,54.0,96.0,-7.0
1705334386.4762514,17.0,38.0,27.0,19.0,4.0,-15.0,-9.0,2.0
1705334386.4862628,5.0,-16.0,-37.0,-26.0,-7.0,-23.0,-11.0,26.0
1705334386.4862628,7.0,26.0,26.0,23.0,7.0,10.0,-3.0,10.0
1705334386.4965348,-9.0,-42.0,-33.0,-9.0,-3.0,-21.0,-50.0,-54.0
1705334386.4965348,0.0,-40.0,-11.0,-8.0,-9.0,-1.0,6.0,33.0
1705334386.5066454,5.0,11.0,-4.0,5.0,5.0,-3.0,-4.0,21.0
1705334386.5066454,3.0,-39.0,6.0,1.0,0.0,-9.0,8.0,-12.0
1705334386.5165741,-14.0,6.0,-11.0,-6.0,-9.0,-14.0,-90.0,-34.0
1705334386.5165741,4.0,12.0,17.0,6.0,5.0,21.0,-11.0,-11.0
1705334386.5362656,5.0,15.0,17.0,7.0,1.0,-11.0,7.0,25.0
1705334386.5362656,12.0,58.0,-2.0,-13.0,-7.0,27.0,75.0,-10.0
1705334386.5362656,1.0,43.0,13.0,-1.0,3.0,13.0,62.0,29.0
1705334386.5362656,5.0,26.0,-7.0,-13.0,-13.0,-63.0,-55.0,10.0
1705334386.5566041,-31.0,80.0,-11.0,-11.0,-2.0,0.0,-60.0,-73.0
1705334386.5566041,9.0,114.0,-6.0,10.0,13.0,70.0,53.0,-9.0
1705334386.5566041,-11.0,-30.0,-6.0,-7.0,-6.0,-50.0,24.0,73.0
1705334386.5566041,21.0,-98.0,-2.0,-2.0,0.0,39.0,-2.0,3.0
1705334386.566608,7.0,-94.0,-1.0,3.0,1.0,0.0,-71.0,-81.0
1705334386.566608,-16.0,-64.0,-14.0,-1.0,-7.0,-36.0,-23.0,-63.0
1705334386.5791593,20.0,-6.0,-8.0,-3.0,0.0,29.0,62.0,55.0
1705334386.5791593,-33.0,12.0,3.0,-4.0,9.0,26.0,12.0,4.0
1705334386.5875974,15.0,-26.0,-22.0,-14.0,-23.0,-96.0,-29.0,20.0
1705334386.5875974,-26.0,-25.0,-1.0,3.0,15.0,95.0,13.0,16.0
1705334386.597568,50.0,-15.0,7.0,12.0,-1.0,4.0,1.0,44.0
1705334386.597568,21.0,0.0,21.0,7.0,-9.0,-69.0,-16.0,5.0
1705334386.6179724,3.0,-12.0,-10.0,-8.0,7.0,97.0,60.0,-14.0
1705334386.6179724,-22.0,-29.0,-7.0,3.0,-3.0,-56.0,-22.0,22.0
1705334386.6179724,-41.0,4.0,-15.0,-21.0,-15.0,-9.0,-18.0,-52.0
1705334386.6179724,-8.0,9.0,-12.0,-10.0,-3.0,-2.0,-9.0,-29.0
1705334386.6279755,18.0,7.0,-2.0,-3.0,6.0,34.0,4.0,30.0
1705334386.6279755,47.0,-13.0,-4.0,-2.0,-13.0,-61.0,-19.0,-23.0
1705334386.6378136,-22.0,5.0,7.0,-1.0,-4.0,-22.0,-28.0,-46.0
1705334386.6378136,5.0,26.0,-2.0,0.0,7.0,44.0,11.0,21.0
1705334386.657561,-31.0,-5.0,18.0,20.0,-2.0,-50.0,-7.0,-19.0
1705334386.657561,-5.0,-3.0,-16.0,-13.0,5.0,29.0,-54.0,60.0
1705334386.657561,9.0,-7.0,3.0,-6.0,-8.0,-13.0,61.0,-19.0
1705334386.657561,-5.0,14.0,-6.0,-1.0,4.0,20.0,4.0,-40.0
1705334386.6780102,-10.0,-3.0,11.0,12.0,7.0,10.0,26.0,21.0
1705334386.6780102,-42.0,-5.0,8.0,6.0,2.0,7.0,-25.0,-88.0
1705334386.6780102,-7.0,8.0,-9.0,-11.0,-19.0,-74.0,-102.0,70.0
1705334386.6780102,-1.0,9.0,4.0,-1.0,-1.0,36.0,34.0,-21.0
1705334386.6875622,-11.0,1.0,5.0,-2.0,14.0,32.0,26.0,-28.0
1705334386.6875622,26.0,-15.0,-12.0,-10.0,-9.0,-32.0,3.0,15.0
1705334386.6978254,-24.0,-4.0,-4.0,0.0,1.0,-2.0,-7.0,-49.0
1705334386.6978254,9.0,-14.0,14.0,10.0,2.0,-27.0,-8.0,-23.0
1705334386.7075596,-14.0,-18.0,-8.0,-3.0,-12.0,-9.0,7.0,73.0
1705334386.7075596,-18.0,-7.0,-3.0,0.0,1.0,-21.0,-12.0,-61.0
1705334386.7175615,-6.0,2.0,4.0,6.0,5.0,15.0,6.0,33.0
1705334386.7175615,14.0,5.0,5.0,-4.0,-1.0,9.0,3.0,2.0
1705334386.7385478,50.0,-4.0,-13.0,-11.0,-2.0,-8.0,20.0,-13.0
1705334386.7385478,8.0,5.0,-5.0,-6.0,-9.0,-22.0,-6.0,-8.0
1705334386.739559,-8.0,4.0,5.0,7.0,9.0,28.0,23.0,45.0
1705334386.7405639,20.0,-5.0,1.0,6.0,-3.0,-39.0,-33.0,-52.0
1705334386.7518802,-27.0,-8.0,-6.0,-3.0,3.0,27.0,8.0,110.0
1705334386.752565,13.0,-20.0,4.0,3.0,-6.0,-11.0,17.0,-12.0
1705334386.7581124,35.0,-4.0,3.0,4.0,8.0,12.0,3.0,-44.0
1705334386.7581124,-25.0,9.0,-1.0,-6.0,-16.0,-31.0,-35.0,4.0
1705334386.7781603,-12.0,2.0,-8.0,1.0,5.0,17.0,-9.0,-44.0
1705334386.7781603,-2.0,-6.0,2.0,6.0,4.0,-16.0,21.0,52.0
1705334386.7781603,-43.0,-30.0,0.0,-2.0,5.0,38.0,9.0,-95.0
1705334386.7781603,23.0,-2.0,-10.0,-3.0,5.0,23.0,24.0,53.0
1705334386.7981174,-14.0,39.0,-4.0,-3.0,-14.0,-68.0,-51.0,-60.0
1705334386.7981174,42.0,7.0,9.0,3.0,-3.0,0.0,22.0,113.0
1705334386.7981174,-10.0,40.0,-2.0,-2.0,3.0,4.0,-20.0,-53.0
1705334386.7981174,-36.0,65.0,9.0,5.0,9.0,44.0,44.0,-46.0
1705334386.8082523,14.0,6.0,-5.0,-6.0,-12.0,-36.0,6.0,42.0
1705334386.8082523,-27.0,-34.0,1.0,1.0,-7.0,-30.0,-49.0,42.0
1705334386.8182902,7.0,-40.0,-12.0,-10.0,-7.0,28.0,14.0,-60.0
1705334386.8182902,9.0,-37.0,-12.0,-7.0,-4.0,-4.0,1.0,-1.0
1705334386.8381271,10.0,-29.0,5.0,-2.0,0.0,22.0,30.0,4.0
1705334386.8381271,-43.0,52.0,-1.0,-10.0,-11.0,-18.0,-27.0,-81.0
1705334386.8381271,75.0,5.0,5.0,11.0,14.0,47.0,26.0,127.0
1705334386.8381271,-10.0,-3.0,1.0,4.0,-5.0,-35.0,-20.0,-20.0
1705334386.8584113,-8.0,-16.0,-11.0,-5.0,-3.0,7.0,-12.0,-69.0
1705334386.8584113,29.0,34.0,-7.0,-6.0,-7.0,-3.0,18.0,26.0
1705334386.8584113,-23.0,31.0,5.0,-2.0,0.0,-17.0,-30.0,-41.0
1705334386.8584113,-29.0,-4.0,0.0,2.0,1.0,2.0,3.0,32.0
1705334386.8881276,45.0,14.0,7.0,-2.0,0.0,13.0,14.0,61.0
1705334386.8881276,-11.0,-2.0,2.0,10.0,7.0,31.0,19.0,-1.0
1705334386.8881276,-28.0,-20.0,-12.0,-3.0,-4.0,-31.0,-1.0,-80.0
1705334386.8881276,3.0,-35.0,3.0,2.0,1.0,-6.0,-33.0,4.0
1705334386.8881276,22.0,-34.0,1.0,-4.0,-8.0,-11.0,-6.0,26.0
1705334386.8881276,2.0,93.0,8.0,-7.0,-7.0,-4.0,5.0,-4.0
1705334386.898126,-8.0,-21.0,-1.0,-2.0,-3.0,-17.0,6.0,-3.0
1705334386.898126,23.0,-23.0,-1.0,-1.0,1.0,21.0,31.0,76.0
1705334386.918546,-27.0,-1.0,-12.0,-4.0,2.0,-18.0,-23.0,-33.0
1705334386.918546,9.0,-50.0,8.0,4.0,9.0,8.0,6.0,2.0
1705334386.918546,1.0,-30.0,-3.0,-6.0,-12.0,-42.0,-16.0,11.0
1705334386.918546,-43.0,55.0,1.0,-2.0,-4.0,-2.0,22.0,-9.0
1705334386.9281285,0.0,-27.0,-3.0,1.0,3.0,6.0,0.0,44.0
1705334386.9281285,28.0,-84.0,-3.0,8.0,12.0,21.0,8.0,32.0
1705334386.938162,-18.0,10.0,7.0,-1.0,-6.0,-19.0,-21.0,-7.0
1705334386.938162,-2.0,-11.0,-10.0,-5.0,-4.0,-10.0,-3.0,-14.0
1705334386.9485078,-22.0,30.0,4.0,-3.0,-2.0,10.0,15.0,-34.0
1705334386.9485078,-19.0,-19.0,-11.0,-6.0,-5.0,-16.0,-19.0,-49.0
1705334386.9581282,-2.0,-10.0,5.0,4.0,3.0,19.0,10.0,12.0
1705334386.9581282,26.0,-39.0,-10.0,-2.0,-6.0,-11.0,-9.0,-2.0
1705334386.9785066,-9.0,22.0,0.0,0.0,2.0,3.0,-6.0,-4.0
1705334386.9785066,-15.0,1.0,0.0,-3.0,-2.0,0.0,16.0,45.0
1705334386.9785066,7.0,3.0,3.0,1.0,3.0,9.0,2.0,-32.0
1705334386.9785066,6.0,-9.0,2.0,2.0,0.0,-1.0,1.0,-3.0
1705334386.9981282,-26.0,8.0,6.0,-5.0,-4.0,-12.0,-22.0,3.0
1705334386.9981282,9.0,-17.0,-11.0,-3.0,0.0,-6.0,-9.0,-17.0
1705334386.9981282,-21.0,-45.0,0.0,6.0,7.0,19.0,0.0,12.0
1705334386.9981282,-19.0,72.0,6.0,-6.0,-3.0,-10.0,-10.0,-5.0
1705334387.008362,10.0,-34.0,6.0,1.0,-5.0,-11.0,2.0,-22.0
1705334387.008362,11.0,22.0,-7.0,8.0,1.0,7.0,4.0,7.0
1705334387.0181322,13.0,27.0,5.0,-12.0,-17.0,-6.0,5.0,16.0
1705334387.0181322,2.0,-28.0,-9.0,-17.0,-8.0,-6.0,-3.0,4.0
1705334387.048129,-9.0,38.0,-3.0,10.0,25.0,16.0,2.0,-15.0
1705334387.048129,-7.0,-22.0,-1.0,-2.0,0.0,6.0,5.0,2.0
1705334387.048129,19.0,31.0,3.0,-11.0,-12.0,-14.0,-8.0,18.0
1705334387.048129,0.0,32.0,26.0,48.0,2.0,7.0,-1.0,-1.0
1705334387.048129,-2.0,-37.0,-17.0,-39.0,4.0,4.0,9.0,-10.0
1705334387.048129,1.0,-32.0,-13.0,4.0,3.0,2.0,3.0,9.0
1705334387.0581274,5.0,-21.0,-19.0,4.0,0.0,-5.0,-11.0,1.0
1705334387.0581274,-3.0,17.0,18.0,3.0,-21.0,-10.0,-9.0,-4.0
1705334387.078128,-5.0,-12.0,-12.0,-4.0,-4.0,-4.0,1.0,-11.0
1705334387.078128,-1.0,-32.0,10.0,0.0,23.0,7.0,-3.0,0.0
1705334387.078128,5.0,-26.0,-18.0,9.0,5.0,-1.0,1.0,10.0
1705334387.078128,-3.0,-2.0,-3.0,23.0,-16.0,0.0,0.0,-3.0
1705334387.098128,5.0,91.0,9.0,-38.0,-3.0,3.0,4.0,-2.0
1705334387.098128,-14.0,10.0,12.0,-32.0,9.0,-7.0,-7.0,-7.0
1705334387.098128,9.0,74.0,-5.0,-1.0,-17.0,3.0,3.0,3.0
1705334387.098128,12.0,6.0,-71.0,-30.0,5.0,-5.0,0.0,9.0
1705334387.108436,1.0,-16.0,34.0,43.0,9.0,-3.0,-6.0,-7.0
1705334387.108436,-8.0,30.0,0.0,44.0,-18.0,0.0,-1.0,-5.0
1705334387.1181343,9.0,2.0,28.0,-47.0,10.0,5.0,4.0,1.0
1705334387.1181343,13.0,-21.0,53.0,22.0,15.0,11.0,6.0,10.0
1705334387.1281345,-4.0,-31.0,-85.0,8.0,-9.0,-8.0,0.0,-5.0
1705334387.1281345,-6.0,-20.0,22.0,-90.0,-27.0,-5.0,0.0,-3.0
1705334387.1281345,-8.0,1.0,-24.0,4.0,22.0,-5.0,-8.0,0.0
1705334387.1281345,0.0,-47.0,-10.0,-18.0,0.0,-10.0,-11.0,1.0
1705334387.158127,-4.0,6.0,3.0,18.0,-8.0,-6.0,-5.0,-2.0
1705334387.158127,2.0,15.0,25.0,61.0,-7.0,0.0,0.0,3.0
1705334387.158127,-2.0,39.0,0.0,28.0,-19.0,13.0,11.0,-1.0
1705334387.158127,-6.0,-2.0,-7.0,-23.0,12.0,4.0,3.0,-8.0
1705334387.1683252,15.0,-27.0,24.0,-50.0,14.0,7.0,2.0,2.0
1705334387.1683252,-20.0,-18.0,-9.0,-13.0,-3.0,-10.0,-3.0,3.0
1705334387.1881313,3.0,17.0,22.0,31.0,-18.0,-16.0,-5.0,2.0
1705334387.1881313,-2.0,-9.0,-28.0,-14.0,14.0,13.0,9.0,0.0
1705334387.1881313,-14.0,-24.0,-33.0,7.0,-27.0,-17.0,-11.0,-10.0
1705334387.1881313,38.0,22.0,66.0,2.0,8.0,1.0,-9.0,2.0
1705334387.1981325,19.0,-8.0,11.0,-2.0,-3.0,-6.0,-3.0,21.0
1705334387.1981325,-77.0,-22.0,-74.0,23.0,2.0,-5.0,-1.0,-9.0
1705334387.2381275,0.0,41.0,33.0,3.0,-9.0,10.0,13.0,-6.0
1705334387.2381275,-26.0,12.0,-18.0,-24.0,-14.0,-7.0,-1.0,-12.0
1705334387.2381275,1.0,23.0,78.0,41.0,19.0,7.0,0.0,-6.0
1705334387.2381275,34.0,28.0,15.0,-11.0,0.0,-3.0,-5.0,2.0
1705334387.2381275,-11.0,16.0,-6.0,-14.0,3.0,7.0,5.0,6.0
1705334387.2381275,0.0,-7.0,-56.0,23.0,4.0,4.0,1.0,-2.0
1705334387.2381275,-20.0,-29.0,-23.0,-37.0,-23.0,1.0,1.0,-9.0
1705334387.2381275,9.0,-95.0,28.0,-34.0,12.0,0.0,-1.0,1.0
1705334387.2638786,20.0,-9.0,-78.0,38.0,12.0,-9.0,-5.0,0.0
1705334387.2638786,0.0,12.0,61.0,4.0,-2.0,2.0,2.0,0.0
1705334387.2648776,23.0,44.0,4.0,-7.0,2.0,-3.0,0.0,7.0
1705334387.2648776,-19.0,-41.0,-45.0,-1.0,5.0,-11.0,-11.0,-5.0
1705334387.2859688,-49.0,8.0,3.0,-21.0,-20.0,0.0,-3.0,-8.0
1705334387.2859688,28.0,30.0,-7.0,37.0,-6.0,0.0,2.0,4.0
1705334387.2859688,-4.0,-40.0,20.0,-7.0,-13.0,0.0,5.0,6.0
1705334387.2859688,13.0,3.0,64.0,-1.0,4.0,-5.0,-5.0,-6.0
1705334387.2859688,20.0,0.0,25.0,29.0,20.0,17.0,10.0,2.0
1705334387.2859688,2.0,-57.0,-47.0,-1.0,7.0,-3.0,0.0,22.0
1705334387.2963126,-3.0,-37.0,-11.0,-42.0,-17.0,-18.0,-5.0,-9.0
1705334387.2963126,10.0,85.0,30.0,25.0,-52.0,-4.0,4.0,-1.0
1705334387.3063285,-24.0,-60.0,-84.0,-15.0,48.0,8.0,-5.0,-13.0
1705334387.3063285,13.0,49.0,60.0,-25.0,-19.0,0.0,1.0,-3.0
1705334387.3259387,-7.0,-1.0,-66.0,35.0,44.0,9.0,0.0,4.0
1705334387.3259387,-4.0,24.0,36.0,38.0,8.0,-6.0,-5.0,-3.0
1705334387.3363335,13.0,50.0,15.0,-23.0,-51.0,-9.0,-3.0,-1.0
1705334387.3363335,-12.0,9.0,-34.0,-32.0,-6.0,6.0,0.0,-8.0
1705334387.3363335,19.0,-8.0,25.0,39.0,22.0,8.0,1.0,3.0
1705334387.3363335,-13.0,16.0,-12.0,-31.0,-19.0,-5.0,-7.0,-7.0
1705334387.3563263,-27.0,-9.0,29.0,37.0,6.0,-7.0,-2.0,-1.0
1705334387.3563263,45.0,-27.0,-12.0,-2.0,-22.0,-8.0,-5.0,5.0
1705334387.3563263,-23.0,-37.0,36.0,-50.0,1.0,1.0,8.0,11.0
1705334387.3563263,-64.0,-73.0,-4.0,18.0,20.0,1.0,-1.0,-12.0
1705334387.3662355,34.0,-11.0,31.0,-15.0,-20.0,-8.0,-3.0,5.0
1705334387.3662355,-10.0,7.0,-31.0,-18.0,10.0,0.0,4.0,-1.0
1705334387.385938,24.0,11.0,-30.0,4.0,-7.0,5.0,-3.0,-8.0
1705334387.385938,23.0,15.0,42.0,11.0,-1.0,0.0,-2.0,9.0
1705334387.3963063,-28.0,-20.0,-42.0,-36.0,-11.0,-4.0,-4.0,-4.0
1705334387.3963063,-21.0,26.0,-10.0,22.0,8.0,0.0,-3.0,-12.0
1705334387.3963063,7.0,28.0,-3.0,11.0,11.0,7.0,2.0,-3.0
1705334387.3963063,56.0,50.0,-26.0,-17.0,-3.0,-8.0,-2.0,15.0
1705334387.4059372,-24.0,21.0,27.0,-6.0,-17.0,-7.0,-1.0,-7.0
1705334387.4059372,8.0,10.0,5.0,33.0,16.0,6.0,3.0,-4.0
1705334387.4159937,-14.0,-26.0,-15.0,-3.0,4.0,-5.0,-5.0,-2.0
1705334387.4159937,9.0,8.0,-8.0,-56.0,-25.0,-7.0,-4.0,-6.0
1705334387.4262645,72.0,19.0,33.0,11.0,-11.0,4.0,3.0,9.0
1705334387.4262645,-53.0,-40.0,-3.0,65.0,45.0,4.0,4.0,-3.0
1705334387.4359887,-26.0,-31.0,-8.0,0.0,4.0,0.0,-6.0,-11.0
1705334387.4359887,1.0,15.0,-35.0,21.0,6.0,-4.0,-6.0,-3.0
1705334387.455939,13.0,-15.0,41.0,8.0,-4.0,6.0,2.0,9.0
1705334387.455939,6.0,-6.0,-23.0,-58.0,-12.0,0.0,14.0,-1.0
1705334387.455939,43.0,-17.0,-3.0,4.0,-8.0,1.0,-10.0,11.0
1705334387.455939,-16.0,-21.0,-6.0,-7.0,1.0,-6.0,-11.0,-1.0
1705334387.4660654,11.0,7.0,1.0,2.0,-3.0,-5.0,-2.0,-8.0
1705334387.4660654,-50.0,-12.0,-5.0,-12.0,-11.0,-6.0,-2.0,-16.0
1705334387.4761953,-13.0,12.0,-15.0,-7.0,4.0,9.0,12.0,3.0
1705334387.4761953,12.0,14.0,4.0,2.0,1.0,5.0,6.0,1.0
1705334387.4959388,3.0,11.0,10.0,13.0,9.0,-1.0,-7.0,0.0
1705334387.4959388,-6.0,-16.0,12.0,-64.0,-27.0,-14.0,-9.0,0.0
1705334387.4959388,-30.0,29.0,-9.0,-45.0,-40.0,-1.0,-2.0,-22.0
1705334387.4959388,57.0,-49.0,-5.0,92.0,77.0,18.0,3.0,13.0
1705334387.516355,12.0,-38.0,-11.0,7.0,-7.0,-21.0,-5.0,2.0
1705334387.516355,7.0,-42.0,-35.0,11.0,3.0,-4.0,-7.0,-8.0
1705334387.516355,8.0,27.0,44.0,-56.0,-23.0,-6.0,-2.0,0.0
1705334387.516355,4.0,20.0,6.0,-14.0,-5.0,5.0,-4.0,-13.0
1705334387.5365176,-34.0,15.0,3.0,-4.0,4.0,4.0,-2.0,-1.0
1705334387.5365176,-14.0,-34.0,-43.0,17.0,-1.0,-18.0,-14.0,4.0
1705334387.5463812,-16.0,-1.0,-5.0,-25.0,-26.0,-9.0,-7.0,-16.0
1705334387.5463812,44.0,42.0,22.0,1.0,-6.0,14.0,20.0,9.0
1705334387.5563743,-75.0,26.0,20.0,5.0,7.0,2.0,-14.0,-6.0
1705334387.5563743,47.0,-7.0,8.0,-18.0,-4.0,-8.0,1.0,1.0
1705334387.5563743,-31.0,-17.0,-26.0,24.0,11.0,-22.0,-17.0,-14.0
1705334387.5563743,-25.0,-6.0,13.0,-16.0,-2.0,39.0,-2.0,-8.0
1705334387.5766315,55.0,17.0,3.0,5.0,4.0,-8.0,22.0,12.0
1705334387.5766315,-8.0,24.0,7.0,5.0,2.0,4.0,-7.0,-2.0
1705334387.5766315,40.0,-19.0,-9.0,33.0,27.0,39.0,7.0,17.0
1705334387.5766315,-71.0,-29.0,-24.0,-59.0,-35.0,-32.0,-6.0,-19.0
1705334387.5965967,-4.0,29.0,6.0,-63.0,-16.0,9.0,5.0,5.0
1705334387.5965967,10.0,-12.0,23.0,112.0,41.0,4.0,1.0,6.0
1705334387.5965967,12.0,-5.0,-25.0,49.0,24.0,-20.0,-8.0,-1.0
1705334387.6063762,-12.0,22.0,3.0,-24.0,-19.0,-5.0,-7.0,-1.0
1705334387.6263723,8.0,-4.0,10.0,6.0,5.0,-5.0,-1.0,2.0
1705334387.6263723,21.0,11.0,-20.0,-24.0,-30.0,-12.0,-9.0,-6.0
1705334387.6263723,28.0,29.0,-23.0,-21.0,3.0,9.0,-2.0,4.0
1705334387.6263723,-60.0,-26.0,-5.0,2.0,2.0,-3.0,-2.0,-16.0
1705334387.6365898,34.0,-10.0,-5.0,-6.0,-6.0,-3.0,17.0,21.0
1705334387.6365898,-21.0,-39.0,9.0,-22.0,-6.0,0.0,-8.0,-6.0
1705334387.6365898,-12.0,-2.0,10.0,4.0,-8.0,-4.0,-4.0,-19.0
1705334387.6365898,51.0,37.0,-5.0,1.0,0.0,0.0,48.0,27.0
1705334387.656377,-33.0,-8.0,-3.0,13.0,6.0,3.0,-34.0,-29.0
1705334387.656377,-11.0,27.0,4.0,-7.0,-2.0,5.0,-4.0,17.0
1705334387.656377,69.0,0.0,3.0,0.0,5.0,-5.0,-12.0,2.0
1705334387.656377,-10.0,-8.0,2.0,-9.0,-10.0,-13.0,0.0,8.0
1705334387.676805,-26.0,-11.0,-4.0,7.0,4.0,8.0,12.0,0.0
1705334387.676805,32.0,46.0,-2.0,-1.0,4.0,13.0,23.0,1.0
1705334387.676805,-90.0,8.0,-5.0,-93.0,-20.0,-14.0,-13.0,-3.0
1705334387.676805,42.0,-41.0,1.0,82.0,9.0,-3.0,-6.0,7.0
1705334387.6967795,11.0,-30.0,-7.0,11.0,9.0,1.0,-2.0,-11.0
1705334387.6967795,-1.0,-29.0,-2.0,-24.0,2.0,1.0,-9.0,-4.0
1705334387.6967795,25.0,17.0,10.0,21.0,8.0,5.0,15.0,12.0
1705334387.6967795,-47.0,6.0,0.0,-34.0,-14.0,-8.0,-11.0,-12.0
1705334387.726373,-1.0,-10.0,-8.0,-5.0,-4.0,-6.0,-8.0,-1.0
1705334387.726373,4.0,25.0,4.0,2.0,-5.0,-36.0,-46.0,-2.0
1705334387.726373,-19.0,-23.0,-3.0,5.0,-4.0,34.0,80.0,5.0
1705334387.726373,19.0,-25.0,-1.0,-12.0,2.0,9.0,-3.0,3.0
1705334387.726373,-23.0,-28.0,-5.0,15.0,2.0,-9.0,-17.0,-8.0
1705334387.726373,2.0,-2.0,2.0,-20.0,2.0,28.0,33.0,5.0
1705334387.736399,-5.0,4.0,0.0,13.0,-7.0,-26.0,-34.0,-4.0
1705334387.736399,-2.0,-2.0,-3.0,-9.0,-3.0,-11.0,-8.0,-10.0
1705334387.7567813,17.0,12.0,4.0,5.0,3.0,-19.0,-12.0,-5.0
1705334387.7567813,-10.0,6.0,-1.0,-6.0,-7.0,7.0,-11.0,-3.0
1705334387.7567813,-14.0,-10.0,-7.0,8.0,-2.0,-5.0,11.0,10.0
1705334387.7567813,4.0,7.0,1.0,1.0,3.0,19.0,17.0,-2.0
1705334387.7807524,4.0,5.0,0.0,-3.0,0.0,-4.0,-5.0,5.0
1705334387.7807524,-6.0,4.0,-3.0,-4.0,-2.0,-4.0,2.0,-8.0
1705334387.782306,6.0,-10.0,3.0,17.0,-2.0,-34.0,-20.0,-7.0
1705334387.782306,0.0,2.0,36.0,-8.0,-7.0,-23.0,-32.0,-3.0
1705334387.7948477,7.0,-3.0,-41.0,5.0,10.0,48.0,-1.0,-3.0
1705334387.7948477,-13.0,0.0,-16.0,-13.0,16.0,56.0,57.0,-3.0
1705334387.803863,-4.0,-24.0,0.0,5.0,-1.0,-24.0,-18.0,-32.0
1705334387.803863,12.0,-1.0,50.0,1.0,-7.0,-18.0,-7.0,-7.0
1705334387.817018,-4.0,-17.0,-10.0,5.0,1.0,-3.0,-28.0,-7.0
1705334387.817018,-10.0,17.0,-58.0,-12.0,-12.0,-37.0,-5.0,-48.0
1705334387.817018,4.0,6.0,-28.0,-2.0,5.0,28.0,30.0,81.0
1705334387.817018,-4.0,3.0,66.0,13.0,9.0,11.0,-4.0,-33.0
1705334387.8371248,15.0,0.0,10.0,23.0,-5.0,-45.0,-3.0,15.0
1705334387.8371248,-5.0,-22.0,-88.0,-39.0,-6.0,40.0,-9.0,27.0
1705334387.8371248,-38.0,-6.0,-16.0,-33.0,-11.0,-21.0,-22.0,-54.0
1705334387.8371248,-2.0,-7.0,-3.0,-12.0,-3.0,17.0,0.0,21.0
1705334387.8573244,6.0,3.0,58.0,3.0,1.0,-5.0,16.0,-1.0
1705334387.8573244,1.0,7.0,37.0,30.0,2.0,-22.0,-19.0,-10.0
1705334387.8573244,12.0,-13.0,2.0,12.0,2.0,5.0,-26.0,14.0
1705334387.8573244,-26.0,11.0,12.0,1.0,1.0,-20.0,16.0,16.0
1705334387.877014,-3.0,7.0,16.0,16.0,7.0,36.0,27.0,-20.0
1705334387.877014,6.0,9.0,22.0,-5.0,-6.0,-17.0,1.0,-8.0
1705334387.877014,0.0,0.0,-27.0,-27.0,-6.0,23.0,-1.0,12.0
1705334387.877014,-2.0,-5.0,-55.0,-1.0,10.0,31.0,13.0,-4.0
1705334387.897488,-2.0,7.0,64.0,13.0,-2.0,-32.0,-25.0,-30.0
1705334387.897488,20.0,-27.0,33.0,41.0,18.0,24.0,26.0,13.0
1705334387.897488,-1.0,-13.0,-74.0,-29.0,-10.0,-14.0,5.0,-7.0
1705334387.897488,4.0,-6.0,-77.0,-31.0,-17.0,-24.0,-25.0,30.0
1705334387.9078941,-1.0,5.0,7.0,-28.0,-10.0,-5.0,3.0,0.0
1705334387.9078941,5.0,19.0,73.0,1.0,-3.0,1.0,-27.0,-2.0
1705334387.9174047,4.0,10.0,45.0,47.0,12.0,4.0,12.0,2.0
1705334387.9174047,0.0,-1.0,-3.0,4.0,4.0,7.0,7.0,-1.0
1705334387.9374175,-8.0,2.0,-1.0,-2.0,-2.0,15.0,7.0,3.0
1705334387.9374175,-1.0,4.0,-1.0,13.0,0.0,-17.0,-6.0,-9.0
1705334387.9374175,0.0,-10.0,-23.0,9.0,5.0,4.0,13.0,25.0
1705334387.9374175,13.0,-14.0,-76.0,-7.0,-5.0,-1.0,2.0,19.0
1705334387.9577255,-7.0,1.0,-35.0,-50.0,-16.0,-10.0,-23.0,-37.0
1705334387.9577255,-16.0,9.0,45.0,-20.0,-16.0,-23.0,-7.0,17.0
1705334387.9577255,3.0,13.0,35.0,19.0,5.0,-1.0,8.0,-4.0
1705334387.9577255,-4.0,-1.0,67.0,27.0,7.0,11.0,5.0,-51.0
1705334387.967636,6.0,-20.0,-59.0,9.0,11.0,34.0,18.0,36.0
1705334387.967636,-21.0,-16.0,-65.0,-35.0,-8.0,-14.0,-9.0,-5.0
1705334387.977604,-11.0,2.0,35.0,11.0,3.0,3.0,-11.0,-34.0
1705334387.977604,4.0,-1.0,52.0,12.0,2.0,-4.0,-6.0,11.0
1705334388.0195851,4.0,-4.0,-53.0,-1.0,-3.0,1.0,13.0,7.0
1705334388.0195851,-4.0,-10.0,3.0,-4.0,-1.0,2.0,1.0,5.0
1705334388.0195851,3.0,-7.0,-17.0,-7.0,-4.0,-2.0,-4.0,-2.0
1705334388.0195851,-2.0,13.0,21.0,-8.0,-6.0,-14.0,-14.0,-8.0
1705334388.0195851,1.0,6.0,40.0,8.0,0.0,-4.0,4.0,6.0
1705334388.0195851,7.0,12.0,-48.0,14.0,4.0,6.0,9.0,12.0
1705334388.0195851,2.0,17.0,-12.0,-18.0,-5.0,-6.0,-7.0,4.0
1705334388.0195851,-3.0,-6.0,-15.0,-10.0,-7.0,-12.0,-4.0,-7.0
1705334388.0280488,-1.0,8.0,37.0,1.0,-1.0,1.0,1.0,-11.0
1705334388.0280488,0.0,-14.0,-2.0,3.0,-2.0,-9.0,1.0,-2.0
1705334388.0493522,7.0,-6.0,20.0,14.0,2.0,-2.0,-4.0,-25.0
1705334388.0493522,-18.0,-11.0,10.0,-6.0,1.0,11.0,7.0,14.0
1705334388.061412,1.0,-6.0,-64.0,-22.0,-5.0,-14.0,0.0,23.0
1705334388.061412,-5.0,5.0,21.0,-6.0,-4.0,-10.0,-8.0,-28.0
1705334388.061412,15.0,-1.0,29.0,2.0,1.0,1.0,-7.0,7.0
1705334388.061412,9.0,-1.0,12.0,6.0,-1.0,-3.0,0.0,-2.0
1705334388.080213,-5.0,-8.0,14.0,11.0,0.0,0.0,2.0,-1.0
1705334388.080213,-2.0,-2.0,-24.0,1.0,2.0,3.0,-3.0,-3.0
1705334388.080213,-8.0,-7.0,-19.0,2.0,1.0,-1.0,3.0,8.0
1705334388.080213,5.0,-6.0,36.0,0.0,0.0,2.0,-3.0,16.0
1705334388.0901217,-5.0,11.0,6.0,-6.0,-5.0,-8.0,-2.0,2.0
1705334388.0901217,0.0,4.0,-27.0,4.0,1.0,0.0,-4.0,-1.0
1705334388.0999925,-3.0,-6.0,0.0,-5.0,-1.0,3.0,-2.0,-18.0
1705334388.0999925,3.0,4.0,-51.0,-15.0,0.0,1.0,3.0,2.0
1705334388.1097488,-5.0,-9.0,23.0,5.0,1.0,5.0,2.0,-15.0
1705334388.1097488,17.0,5.0,49.0,8.0,0.0,1.0,2.0,22.0
1705334388.1197512,-13.0,-19.0,-48.0,-5.0,-6.0,-11.0,-2.0,-1.0
1705334388.1197512,-12.0,-3.0,-15.0,-6.0,1.0,5.0,-5.0,-12.0
1705334388.140158,-3.0,6.0,6.0,6.0,4.0,16.0,15.0,4.0
1705334388.140158,15.0,-20.0,8.0,-2.0,-3.0,-5.0,-6.0,-3.0
1705334388.140158,-8.0,14.0,34.0,3.0,-6.0,-13.0,-9.0,-12.0
1705334388.140158,-2.0,17.0,-32.0,-12.0,-5.0,-12.0,-10.0,-9.0
1705334388.150149,-2.0,-13.0,-14.0,1.0,1.0,-2.0,0.0,-6.0
1705334388.150149,-4.0,8.0,28.0,13.0,0.0,-6.0,-4.0,16.0
1705334388.159793,5.0,0.0,36.0,-9.0,4.0,35.0,11.0,-8.0
1705334388.169803,1.0,-8.0,-43.0,-8.0,-2.0,-16.0,-6.0,0.0
1705334388.169803,6.0,2.0,26.0,9.0,0.0,4.0,0.0,28.0
1705334388.169803,-14.0,-17.0,-17.0,-9.0,0.0,-1.0,1.0,-30.0
1705334388.1800225,4.0,4.0,36.0,10.0,-3.0,-9.0,-8.0,0.0
1705334388.1800225,-7.0,14.0,19.0,12.0,-1.0,8.0,2.0,-17.0
1705334388.2001853,12.0,-8.0,-56.0,-22.0,-6.0,-12.0,-6.0,3.0
1705334388.2001853,-1.0,-17.0,0.0,0.0,0.0,6.0,4.0,12.0
1705334388.2001853,-9.0,31.0,-19.0,1.0,2.0,0.0,0.0,-5.0
1705334388.2001853,-1.0,-14.0,0.0,3.0,4.0,8.0,5.0,-2.0
1705334388.2105756,-8.0,2.0,1.0,5.0,-2.0,-6.0,-5.0,-16.0
1705334388.2105756,15.0,6.0,11.0,1.0,-3.0,2.0,3.0,10.0
1705334388.2202177,12.0,-14.0,-3.0,-3.0,-3.0,-12.0,-4.0,9.0
1705334388.2202177,-30.0,-4.0,-2.0,4.0,5.0,27.0,7.0,9.0
1705334388.2302475,3.0,-12.0,4.0,-5.0,-1.0,-4.0,-2.0,-15.0
1705334388.2302475,-21.0,8.0,-46.0,-18.0,-5.0,-1.0,-1.0,-5.0
1705334388.240216,6.0,-4.0,16.0,0.0,0.0,-5.0,-3.0,8.0
1705334388.240216,10.0,-2.0,7.0,9.0,-1.0,-5.0,-4.0,3.0
1705334388.2603965,3.0,6.0,-18.0,-3.0,-1.0,1.0,1.0,5.0
1705334388.2603965,5.0,-4.0,9.0,-5.0,1.0,-9.0,-5.0,4.0
1705334388.2603965,5.0,-14.0,-32.0,7.0,5.0,24.0,5.0,3.0
1705334388.2603965,-2.0,-14.0,-3.0,-4.0,-2.0,-15.0,-6.0,-21.0
1705334388.2705822,13.0,12.0,6.0,-1.0,-3.0,-2.0,-2.0,17.0
1705334388.2705822,-12.0,-2.0,-9.0,-7.0,-3.0,3.0,5.0,3.0
1705334388.2802162,-19.0,-2.0,10.0,-3.0,-6.0,-10.0,-6.0,-11.0
1705334388.2802162,10.0,7.0,-15.0,-1.0,-6.0,-3.0,-3.0,-3.0
1705334388.2897556,-3.0,-10.0,-10.0,-4.0,3.0,0.0,1.0,-1.0
1705334388.2897556,-7.0,6.0,12.0,2.0,-1.0,-2.0,-4.0,-5.0
1705334388.2997878,-1.0,0.0,1.0,2.0,1.0,-2.0,0.0,1.0
1705334388.2997878,0.0,-20.0,-6.0,-5.0,-3.0,-3.0,-2.0,-2.0
1705334388.3214948,-7.0,3.0,1.0,-1.0,-2.0,-1.0,1.0,2.0
1705334388.3214948,9.0,4.0,2.0,1.0,3.0,5.0,1.0,4.0
1705334388.3224905,-1.0,0.0,3.0,-3.0,-3.0,5.0,-2.0,0.0
1705334388.3224905,4.0,15.0,0.0,1.0,-1.0,-8.0,-5.0,0.0
1705334388.3396952,-4.0,-6.0,1.0,2.0,-2.0,-4.0,-8.0,-3.0
1705334388.3396952,-2.0,-4.0,9.0,2.0,-1.0,3.0,6.0,-6.0
1705334388.3396952,4.0,-2.0,6.0,6.0,3.0,13.0,15.0,4.0
1705334388.3396952,1.0,5.0,-12.0,-2.0,-1.0,-5.0,-14.0,1.0
1705334388.3497002,-5.0,-18.0,22.0,-7.0,-6.0,-8.0,-5.0,-6.0
1705334388.3497002,-15.0,0.0,4.0,6.0,8.0,-3.0,3.0,-2.0
1705334388.3597567,-9.0,5.0,-30.0,-9.0,-5.0,-3.0,-1.0,-2.0
1705334388.3597567,-6.0,-6.0,-11.0,-6.0,-5.0,-7.0,2.0,1.0
1705334388.3798668,1.0,10.0,2.0,0.0,1.0,13.0,8.0,1.0
1705334388.3798668,11.0,2.0,21.0,3.0,-1.0,-6.0,-4.0,2.0
1705334388.3798668,6.0,-14.0,11.0,1.0,2.0,-1.0,-2.0,-2.0
1705334388.3798668,-5.0,2.0,12.0,-1.0,-2.0,-4.0,-1.0,-3.0
1705334388.3896966,-5.0,0.0,19.0,4.0,-2.0,8.0,-4.0,0.0
1705334388.3896966,4.0,2.0,16.0,8.0,7.0,24.0,10.0,-3.0
1705334388.3997262,-7.0,-4.0,-65.0,-11.0,0.0,-11.0,-2.0,-3.0
1705334388.3997262,-1.0,-6.0,-15.0,-20.0,-13.0,-16.0,0.0,-2.0
1705334388.4101024,-2.0,24.0,6.0,3.0,5.0,1.0,-4.0,-3.0
1705334388.4101024,-12.0,2.0,27.0,0.0,-8.0,-6.0,-4.0,0.0
1705334388.4200213,7.0,-8.0,15.0,6.0,0.0,-12.0,-3.0,3.0
1705334388.4200213,5.0,-2.0,-6.0,2.0,3.0,16.0,5.0,-2.0
1705334388.4398358,-3.0,-33.0,-2.0,0.0,3.0,4.0,9.0,2.0
1705334388.4398358,-3.0,10.0,-20.0,1.0,0.0,2.0,-2.0,-1.0
1705334388.4398358,0.0,0.0,12.0,1.0,-2.0,-6.0,-6.0,-7.0
1705334388.4398358,-7.0,-6.0,4.0,0.0,-4.0,-10.0,-7.0,2.0
1705334388.4600105,6.0,5.0,13.0,8.0,8.0,-2.0,5.0,1.0
1705334388.4600105,2.0,-21.0,-50.0,-3.0,0.0,-9.0,-3.0,1.0
1705334388.4600105,-9.0,-8.0,-21.0,-19.0,-11.0,2.0,-3.0,-5.0
1705334388.4600105,5.0,8.0,29.0,4.0,5.0,5.0,3.0,3.0
1705334388.4702575,-1.0,-7.0,-24.0,1.0,-3.0,-7.0,-5.0,-5.0
1705334388.4702575,0.0,-8.0,13.0,-5.0,-8.0,-22.0,-18.0,-5.0
1705334388.4800348,-2.0,0.0,4.0,-3.0,0.0,6.0,10.0,2.0
1705334388.4800348,-3.0,-10.0,-10.0,-2.0,1.0,-4.0,0.0,-11.0
1705334388.5100298,0.0,7.0,36.0,3.0,1.0,3.0,0.0,12.0
1705334388.5100298,7.0,0.0,-5.0,7.0,-1.0,-5.0,-3.0,-2.0
1705334388.5200284,0.0,10.0,-11.0,4.0,1.0,-8.0,-6.0,8.0
1705334388.5200284,-5.0,3.0,0.0,-12.0,-1.0,16.0,4.0,2.0
1705334388.5200284,-1.0,6.0,-11.0,-3.0,-4.0,-18.0,-4.0,-7.0
1705334388.5200284,0.0,-6.0,31.0,-2.0,1.0,-1.0,6.0,13.0
1705334388.5200284,0.0,10.0,11.0,2.0,-1.0,-7.0,-12.0,1.0
1705334388.5200284,11.0,2.0,41.0,5.0,-1.0,-4.0,0.0,-8.0
1705334388.530034,-9.0,-3.0,-59.0,-8.0,-3.0,0.0,0.0,37.0
1705334388.530034,1.0,-18.0,-55.0,-18.0,-7.0,-9.0,-13.0,-14.0
1705334388.5400343,-4.0,9.0,7.0,1.0,3.0,4.0,16.0,7.0
1705334388.5400343,-2.0,4.0,30.0,2.0,1.0,-3.0,0.0,-1.0
1705334388.5600283,-2.0,5.0,59.0,13.0,1.0,9.0,-7.0,-6.0
1705334388.5600283,1.0,1.0,19.0,13.0,4.0,21.0,14.0,5.0
1705334388.5600283,-5.0,-11.0,-30.0,1.0,-1.0,-12.0,-9.0,-10.0
1705334388.5600283,-3.0,-11.0,-44.0,-15.0,-3.0,3.0,0.0,-13.0
1705334388.5800314,9.0,-8.0,39.0,0.0,-3.0,-5.0,-1.0,25.0
1705334388.5800314,-20.0,-9.0,15.0,-2.0,-1.0,-1.0,1.0,-9.0
1705334388.5800314,3.0,1.0,36.0,9.0,-4.0,-1.0,-5.0,-14.0
1705334388.5800314,1.0,0.0,-4.0,19.0,2.0,-20.0,-4.0,0.0
1705334388.5900297,2.0,11.0,-81.0,-22.0,2.0,25.0,10.0,-6.0
1705334388.5900297,-4.0,9.0,6.0,-9.0,-9.0,-11.0,-10.0,-26.0
1705334388.60037,-1.0,4.0,-60.0,-21.0,0.0,-8.0,-3.0,12.0
1705334388.60037,0.0,9.0,25.0,-7.0,-3.0,11.0,6.0,5.0
1705334388.620078,-5.0,-5.0,-1.0,4.0,0.0,-2.0,1.0,-19.0
1705334388.620078,9.0,20.0,29.0,3.0,1.0,3.0,2.0,8.0
1705334388.620078,-4.0,1.0,54.0,15.0,-3.0,5.0,1.0,-9.0
1705334388.620078,-2.0,-10.0,-46.0,8.0,1.0,-4.0,-2.0,5.0
1705334388.640348,-4.0,-16.0,-22.0,-3.0,-1.0,-4.0,-2.0,-12.0
1705334388.640348,1.0,-14.0,-23.0,-6.0,-2.0,3.0,-2.0,5.0
1705334388.640348,2.0,-13.0,0.0,-4.0,-4.0,-6.0,-1.0,0.0
1705334388.640348,-2.0,-3.0,-14.0,-4.0,4.0,11.0,3.0,3.0
1705334388.6503005,-6.0,-7.0,12.0,0.0,-5.0,-6.0,-2.0,-6.0
1705334388.6503005,2.0,5.0,3.0,0.0,-2.0,3.0,0.0,-3.0
1705334388.6600347,-7.0,2.0,11.0,1.0,5.0,2.0,-1.0,-2.0
1705334388.6600347,-4.0,4.0,1.0,6.0,-2.0,-4.0,-5.0,3.0
1705334388.690034,8.0,1.0,-8.0,0.0,2.0,4.0,3.0,-10.0
1705334388.690034,-5.0,0.0,-16.0,2.0,4.0,-5.0,-1.0,5.0
1705334388.690034,-1.0,-9.0,11.0,-2.0,0.0,4.0,-1.0,-1.0
1705334388.690034,0.0,-7.0,0.0,-3.0,-3.0,-6.0,-4.0,2.0
1705334388.7002518,-1.0,1.0,-1.0,-3.0,-9.0,-11.0,-6.0,-6.0
1705334388.7002518,4.0,0.0,-3.0,-2.0,-7.0,-7.0,-7.0,0.0
1705334388.7002518,0.0,-5.0,1.0,-3.0,-1.0,-7.0,-1.0,2.0
1705334388.7002518,-2.0,4.0,-2.0,-3.0,2.0,40.0,14.0,0.0
1705334388.730027,0.0,5.0,-2.0,0.0,6.0,19.0,14.0,-2.0
1705334388.730027,0.0,-9.0,1.0,-2.0,0.0,-3.0,-10.0,3.0
1705334388.730027,-2.0,-8.0,2.0,0.0,-1.0,5.0,0.0,-4.0
1705334388.730027,-1.0,-4.0,-9.0,-6.0,-5.0,-24.0,-14.0,-3.0
1705334388.7402961,-1.0,0.0,2.0,-4.0,-3.0,-2.0,2.0,-4.0
1705334388.7402961,-1.0,-5.0,-1.0,0.0,2.0,6.0,8.0,2.0
1705334388.7402961,0.0,-7.0,1.0,-1.0,-2.0,0.0,-3.0,1.0
1705334388.7402961,0.0,-4.0,-1.0,-2.0,-2.0,-9.0,-9.0,-1.0
1705334388.7603836,-3.0,-3.0,-1.0,-3.0,-2.0,-4.0,4.0,-3.0
1705334388.7603836,0.0,-3.0,-6.0,-6.0,-2.0,-8.0,-2.0,-3.0
1705334388.7603836,1.0,3.0,3.0,-1.0,-1.0,7.0,-1.0,2.0
1705334388.7603836,-2.0,-3.0,2.0,0.0,3.0,-8.0,-5.0,1.0
1705334388.7702894,-3.0,-2.0,-5.0,-1.0,-6.0,-15.0,-9.0,-2.0
1705334388.7702894,0.0,3.0,-6.0,0.0,3.0,15.0,1.0,0.0
1705334388.8000336,-1.0,3.0,3.0,-2.0,-6.0,-14.0,-3.0,-1.0
1705334388.8000336,0.0,2.0,0.0,0.0,0.0,24.0,14.0,4.0
1705334388.8100262,-2.0,2.0,-2.0,-1.0,2.0,0.0,-4.0,-6.0
1705334388.8100262,-4.0,4.0,-3.0,1.0,2.0,-5.0,0.0,-2.0
1705334388.8100262,4.0,2.0,4.0,4.0,3.0,0.0,-4.0,1.0
1705334388.8100262,-1.0,0.0,-3.0,0.0,-3.0,-13.0,-23.0,-5.0
1705334388.8202944,-3.0,-3.0,-2.0,-2.0,-6.0,-11.0,10.0,-1.0
1705334388.8202944,-4.0,-7.0,-1.0,1.0,-2.0,-4.0,-1.0,-5.0
1705334388.8202944,-4.0,-3.0,0.0,1.0,2.0,14.0,2.0,-5.0
1705334388.8202944,3.0,-4.0,-3.0,0.0,-3.0,-26.0,-22.0,5.0
1705334388.8543818,2.0,-3.0,0.0,2.0,3.0,15.0,18.0,-9.0
1705334388.8543818,-4.0,-6.0,-2.0,-3.0,-6.0,-8.0,-9.0,9.0
1705334388.8543818,3.0,4.0,-2.0,-1.0,-2.0,3.0,17.0,-3.0
1705334388.8543818,-2.0,-2.0,-2.0,-4.0,-4.0,-9.0,-15.0,-1.0
1705334388.8611133,-1.0,-5.0,2.0,0.0,-3.0,-15.0,-18.0,-10.0
1705334388.8611133,3.0,3.0,1.0,5.0,8.0,25.0,12.0,2.0
1705334388.8623466,-1.0,-3.0,0.0,0.0,-2.0,-29.0,1.0,12.0
1705334388.8623466,-2.0,6.0,-1.0,-1.0,4.0,30.0,29.0,1.0
1705334388.8829713,-2.0,-5.0,-5.0,-4.0,-7.0,4.0,-26.0,-9.0
1705334388.8829713,1.0,-7.0,0.0,-5.0,-7.0,-14.0,-3.0,0.0
1705334388.8928962,1.0,-10.0,1.0,-1.0,1.0,-1.0,-12.0,-3.0
1705334388.8928962,-3.0,3.0,1.0,-3.0,-2.0,-9.0,-4.0,-5.0
1705334388.8928962,-2.0,5.0,-3.0,-1.0,5.0,14.0,29.0,10.0
1705334388.8928962,-2.0,-5.0,-2.0,-4.0,-4.0,-5.0,-6.0,-1.0
1705334388.9033027,-4.0,1.0,-1.0,-3.0,-1.0,0.0,2.0,-9.0
1705334388.9033027,0.0,-1.0,-1.0,0.0,1.0,0.0,11.0,2.0
1705334388.9210804,1.0,-1.0,0.0,-1.0,-3.0,-12.0,-14.0,2.0
1705334388.9210804,0.0,4.0,-2.0,-3.0,-5.0,-2.0,-3.0,-7.0
1705334388.9210804,-2.0,1.0,0.0,-2.0,0.0,4.0,3.0,5.0
1705334388.9210804,-1.0,-2.0,-2.0,0.0,-3.0,-11.0,-4.0,-3.0
1705334388.940653,-1.0,1.0,0.0,0.0,2.0,-9.0,-13.0,1.0
1705334388.940653,2.0,-4.0,-1.0,2.0,3.0,2.0,8.0,1.0
1705334388.940653,-1.0,-3.0,0.0,-1.0,-3.0,1.0,-8.0,-3.0
1705334388.940653,-3.0,-2.0,0.0,-2.0,-3.0,-4.0,0.0,-3.0
1705334388.950689,-2.0,0.0,-1.0,-3.0,-7.0,-29.0,-20.0,-5.0
1705334388.950689,0.0,2.0,-2.0,-1.0,7.0,39.0,22.0,-3.0
1705334388.961026,-3.0,4.0,0.0,3.0,9.0,23.0,5.0,18.0
1705334388.961026,2.0,-8.0,-5.0,-3.0,-3.0,-3.0,-8.0,-4.0
1705334388.9809718,1.0,-1.0,0.0,1.0,-5.0,-16.0,-7.0,4.0
1705334388.9809718,1.0,5.0,0.0,-1.0,-5.0,-7.0,-6.0,3.0
1705334388.9809718,3.0,0.0,-2.0,1.0,0.0,8.0,5.0,-7.0
1705334388.9809718,-1.0,7.0,0.0,1.0,5.0,8.0,15.0,6.0
1705334389.0010762,1.0,-4.0,-1.0,-1.0,-1.0,-3.0,-12.0,2.0
1705334389.0010762,-2.0,2.0,-2.0,-3.0,-4.0,-9.0,-7.0,-7.0
1705334389.0010762,4.0,2.0,-3.0,-3.0,-5.0,1.0,-2.0,5.0
1705334389.0010762,-2.0,2.0,1.0,3.0,0.0,-2.0,-6.0,-10.0
1705334389.0205956,-5.0,-7.0,1.0,2.0,6.0,13.0,16.0,28.0
1705334389.0205956,-1.0,1.0,-4.0,2.0,3.0,-7.0,-1.0,-8.0
1705334389.0205956,-4.0,-5.0,0.0,2.0,-3.0,-4.0,-1.0,-4.0
1705334389.0205956,-5.0,-4.0,-2.0,-5.0,-9.0,2.0,-5.0,-10.0
1705334389.0406477,-1.0,-1.0,-1.0,-4.0,-1.0,4.0,1.0,-2.0
1705334389.0406477,-2.0,-2.0,4.0,1.0,0.0,-1.0,0.0,4.0
1705334389.0406477,-2.0,-8.0,-7.0,2.0,-1.0,-12.0,-9.0,-6.0
1705334389.0406477,-1.0,-2.0,-2.0,-2.0,-2.0,-6.0,-3.0,3.0
1705334389.0606334,1.0,1.0,-6.0,-7.0,-3.0,-12.0,-8.0,-8.0
1705334389.0606334,2.0,2.0,19.0,3.0,2.0,10.0,8.0,2.0
1705334389.071,0.0,-5.0,-16.0,-2.0,3.0,7.0,1.0,-7.0
1705334389.071,-2.0,2.0,12.0,-4.0,-4.0,-6.0,1.0,3.0
1705334389.071,0.0,-7.0,-9.0,-5.0,-6.0,-3.0,-1.0,-5.0
1705334389.071,-1.0,0.0,1.0,-7.0,-7.0,-24.0,-13.0,-4.0
1705334389.080938,-2.0,2.0,6.0,0.0,-3.0,7.0,0.0,-5.0
1705334389.080938,0.0,-5.0,10.0,5.0,4.0,10.0,8.0,22.0
1705334389.101062,0.0,-9.0,-1.0,3.0,2.0,1.0,-4.0,-16.0
1705334389.101062,1.0,-2.0,-7.0,-2.0,-3.0,-2.0,-1.0,5.0
1705334389.101062,-2.0,-3.0,3.0,-1.0,-1.0,12.0,1.0,-14.0
1705334389.101062,-2.0,-7.0,-17.0,-4.0,0.0,-5.0,-1.0,10.0
1705334389.1210082,-1.0,7.0,14.0,-2.0,-4.0,4.0,2.0,-7.0
1705334389.1210082,-2.0,1.0,-8.0,-3.0,-8.0,-6.0,-6.0,0.0
1705334389.1210082,-3.0,2.0,8.0,6.0,3.0,-1.0,1.0,-3.0
1705334389.1210082,-1.0,-3.0,-12.0,4.0,6.0,3.0,-1.0,-8.0
1705334389.131042,-3.0,1.0,-13.0,3.0,5.0,3.0,-1.0,3.0
1705334389.131042,-3.0,-4.0,12.0,-13.0,-3.0,-1.0,0.0,-3.0
1705334389.1413846,-2.0,4.0,-15.0,-9.0,-7.0,-14.0,-9.0,0.0
1705334389.1413846,-1.0,-8.0,6.0,7.0,12.0,7.0,6.0,-6.0
1705334389.1610084,0.0,-1.0,6.0,8.0,-1.0,1.0,0.0,3.0
1705334389.1610084,0.0,-3.0,0.0,-1.0,-7.0,-11.0,-5.0,-4.0
1705334389.1610084,-2.0,-9.0,10.0,-3.0,-8.0,-2.0,-1.0,0.0
1705334389.1610084,0.0,-5.0,-2.0,-5.0,-7.0,-15.0,-8.0,-7.0
1705334389.181276,1.0,-5.0,-7.0,-4.0,-1.0,-3.0,3.0,-16.0
1705334389.181276,-1.0,-3.0,-5.0,-1.0,1.0,8.0,3.0,14.0
1705334389.181276,0.0,-2.0,-4.0,-2.0,0.0,-6.0,0.0,0.0
1705334389.181276,-3.0,4.0,-3.0,2.0,-1.0,7.0,2.0,-4.0
1705334389.2012815,0.0,-8.0,2.0,-3.0,-1.0,-10.0,-5.0,0.0
1705334389.2012815,-1.0,-9.0,-9.0,-4.0,-3.0,-2.0,0.0,-8.0
1705334389.2012815,2.0,-17.0,17.0,-1.0,-2.0,-13.0,-6.0,3.0
1705334389.2012815,1.0,-11.0,-29.0,-6.0,-8.0,-8.0,-5.0,-2.0
1705334389.2212775,0.0,6.0,19.0,6.0,4.0,2.0,-8.0,1.0
1705334389.2212775,-2.0,6.0,-13.0,3.0,10.0,25.0,18.0,1.0
1705334389.2212775,4.0,0.0,8.0,-1.0,1.0,-2.0,1.0,0.0
1705334389.2212775,-1.0,4.0,1.0,-1.0,-2.0,-4.0,1.0,-6.0
1705334389.2610054,-3.0,9.0,-29.0,-6.0,-9.0,-3.0,-5.0,-10.0
1705334389.2610054,-1.0,6.0,10.0,6.0,-1.0,-11.0,-12.0,-5.0
1705334389.2610054,-4.0,-1.0,-5.0,-4.0,-5.0,3.0,3.0,2.0
1705334389.2610054,0.0,3.0,-5.0,-22.0,2.0,9.0,5.0,-3.0
1705334389.2610054,0.0,-1.0,-1.0,-1.0,2.0,2.0,1.0,5.0
1705334389.2610054,1.0,3.0,12.0,0.0,-1.0,-2.0,-1.0,-1.0
1705334389.2610054,-3.0,10.0,6.0,8.0,-2.0,-5.0,-1.0,-5.0
1705334389.2610054,-2.0,14.0,11.0,7.0,-5.0,-3.0,-2.0,-4.0
1705334389.2713983,-2.0,2.0,-7.0,3.0,2.0,9.0,9.0,3.0
1705334389.2713983,-2.0,7.0,3.0,-4.0,-2.0,-5.0,-6.0,-10.0
1705334389.2910063,-3.0,-7.0,-15.0,0.0,0.0,0.0,-1.0,11.0
1705334389.2910063,-2.0,-1.0,5.0,4.0,0.0,2.0,2.0,-2.0
1705334389.3014123,-2.0,-4.0,2.0,-4.0,-1.0,5.0,2.0,1.0
1705334389.3014123,-2.0,-11.0,18.0,12.0,-3.0,-5.0,0.0,-1.0
1705334389.3014123,-1.0,-8.0,-14.0,2.0,0.0,3.0,-2.0,-4.0
1705334389.3014123,1.0,-21.0,5.0,-2.0,3.0,1.0,2.0,2.0
1705334389.3214521,-3.0,-10.0,-21.0,0.0,-1.0,-1.0,1.0,2.0
1705334389.3214521,-2.0,-4.0,11.0,-1.0,-6.0,-10.0,-9.0,-3.0
1705334389.3214521,1.0,6.0,20.0,-3.0,1.0,-3.0,-2.0,-2.0
1705334389.3214521,-1.0,0.0,-14.0,-8.0,-4.0,-5.0,-4.0,0.0
1705334389.3510056,2.0,-1.0,-4.0,-5.0,-2.0,4.0,3.0,5.0
1705334389.3510056,-3.0,-6.0,-37.0,-2.0,1.0,-2.0,-2.0,2.0
1705334389.3510056,-1.0,32.0,25.0,3.0,0.0,1.0,-3.0,13.0
1705334389.3510056,0.0,4.0,3.0,5.0,1.0,-2.0,-5.0,-1.0
1705334389.361245,-3.0,1.0,17.0,-4.0,-3.0,-4.0,2.0,0.0
1705334389.361245,0.0,2.0,-5.0,-4.0,0.0,-3.0,-3.0,-4.0
1705334389.361245,1.0,-2.0,-2.0,1.0,1.0,0.0,-2.0,-5.0
1705334389.361245,1.0,1.0,16.0,5.0,0.0,-3.0,-2.0,8.0
1705334389.382642,-2.0,-4.0,-16.0,-5.0,0.0,-3.0,1.0,-3.0
1705334389.382642,1.0,-2.0,2.0,-1.0,3.0,3.0,3.0,3.0
1705334389.382642,1.0,-22.0,7.0,-4.0,-4.0,-4.0,1.0,-6.0
1705334389.382642,-11.0,22.0,0.0,-8.0,-6.0,-7.0,-3.0,-6.0
1705334389.407078,4.0,-17.0,16.0,9.0,7.0,9.0,3.0,2.0
1705334389.407078,-3.0,-14.0,-35.0,-7.0,-2.0,-1.0,-2.0,0.0
1705334389.407078,-2.0,-9.0,-35.0,-7.0,0.0,-3.0,-2.0,-3.0
1705334389.407078,2.0,-10.0,51.0,9.0,-2.0,-2.0,0.0,-23.0
1705334389.4223292,2.0,-14.0,-16.0,-2.0,-1.0,1.0,-3.0,24.0
1705334389.4223292,-6.0,6.0,-32.0,-14.0,-7.0,-8.0,-9.0,-39.0
1705334389.4223292,0.0,-8.0,-3.0,-11.0,-3.0,-2.0,-1.0,22.0
1705334389.4223292,2.0,-10.0,11.0,12.0,1.0,-1.0,1.0,-6.0
1705334389.4423308,1.0,16.0,43.0,15.0,2.0,-1.0,-2.0,-7.0
1705334389.4423308,1.0,-11.0,-12.0,-8.0,4.0,0.0,-1.0,9.0
1705334389.4423308,-5.0,-7.0,-60.0,-21.0,-5.0,-7.0,-5.0,-11.0
1705334389.4423308,2.0,0.0,-10.0,-11.0,-3.0,-3.0,-1.0,2.0
1705334389.4523287,-1.0,-11.0,13.0,2.0,-1.0,-5.0,-2.0,-2.0
1705334389.4523287,2.0,6.0,16.0,9.0,0.0,-3.0,-3.0,10.0
1705334389.4625037,-2.0,-6.0,9.0,-1.0,-2.0,-3.0,-2.0,-11.0
1705334389.4625037,0.0,-10.0,-15.0,-3.0,-3.0,-1.0,-3.0,6.0
1705334389.482583,1.0,-14.0,-20.0,-8.0,0.0,-2.0,-2.0,-9.0
1705334389.482583,-2.0,20.0,38.0,-10.0,-5.0,-5.0,-2.0,22.0
1705334389.482583,2.0,11.0,8.0,6.0,0.0,-2.0,-4.0,-3.0
1705334389.482583,-3.0,-27.0,-37.0,-12.0,-4.0,-3.0,-3.0,0.0
1705334389.502382,-4.0,9.0,-13.0,2.0,-3.0,0.0,-1.0,-6.0
1705334389.502382,1.0,-6.0,10.0,-2.0,3.0,7.0,5.0,3.0
1705334389.502382,-4.0,-3.0,34.0,7.0,-3.0,-2.0,-3.0,-6.0
1705334389.502382,0.0,8.0,15.0,2.0,-2.0,-2.0,-4.0,4.0
1705334389.5314054,-4.0,-13.0,-23.0,-13.0,-5.0,-4.0,-2.0,-6.0
1705334389.5314054,2.0,7.0,44.0,16.0,3.0,1.0,3.0,1.0
1705334389.5314054,0.0,-7.0,-23.0,-3.0,0.0,2.0,1.0,-4.0
1705334389.5314054,-1.0,0.0,2.0,0.0,-2.0,-1.0,0.0,-3.0
1705334389.5417864,0.0,-15.0,-4.0,-4.0,-2.0,1.0,-1.0,2.0
1705334389.5417864,-1.0,15.0,-13.0,5.0,3.0,1.0,-1.0,-7.0
1705334389.5417864,-1.0,-1.0,-8.0,4.0,-3.0,-3.0,1.0,7.0
1705334389.5417864,0.0,-4.0,-9.0,-11.0,-2.0,-2.0,-1.0,-1.0
1705334389.5614054,1.0,2.0,20.0,1.0,-2.0,0.0,-2.0,0.0
1705334389.5614054,-2.0,-29.0,-65.0,-17.0,-6.0,-3.0,-4.0,-2.0
1705334389.5614054,-2.0,8.0,-51.0,0.0,1.0,0.0,0.0,-5.0
1705334389.5614054,1.0,6.0,26.0,4.0,1.0,0.0,1.0,4.0
1705334389.5717704,-2.0,-6.0,6.0,4.0,0.0,1.0,1.0,-2.0
1705334389.5717704,-3.0,-4.0,-5.0,7.0,-1.0,-4.0,-1.0,-4.0
1705334389.581698,-3.0,-1.0,7.0,-5.0,-4.0,-1.0,-3.0,-3.0
1705334389.581698,0.0,12.0,-24.0,-15.0,-3.0,-1.0,0.0,0.0
1705334389.6017652,-3.0,-20.0,10.0,-9.0,-4.0,-1.0,-2.0,-3.0
1705334389.6017652,2.0,2.0,5.0,9.0,1.0,1.0,1.0,-2.0
1705334389.6017652,-7.0,3.0,37.0,19.0,3.0,5.0,4.0,-3.0
1705334389.6017652,-4.0,30.0,45.0,22.0,1.0,-2.0,-3.0,-8.0
1705334389.621663,1.0,19.0,-28.0,-15.0,-4.0,-7.0,-5.0,13.0
1705334389.621663,0.0,-22.0,-9.0,-3.0,-2.0,-3.0,-1.0,-1.0
1705334389.631406,7.0,7.0,3.0,8.0,5.0,6.0,4.0,-1.0
1705334389.631406,-7.0,-10.0,-35.0,-6.0,-2.0,2.0,1.0,-4.0
1705334389.631406,-4.0,25.0,-6.0,3.0,-2.0,-1.0,-1.0,-11.0
1705334389.631406,0.0,0.0,9.0,-6.0,-1.0,1.0,2.0,3.0
1705334389.6416004,-2.0,-19.0,2.0,0.0,-1.0,-3.0,0.0,-2.0
1705334389.6416004,0.0,-19.0,-19.0,0.0,1.0,-2.0,0.0,-2.0
1705334389.6617568,1.0,-18.0,-7.0,2.0,0.0,0.0,0.0,-3.0
1705334389.6617568,0.0,31.0,16.0,2.0,0.0,0.0,0.0,-3.0
1705334389.6714177,-7.0,-19.0,-57.0,-7.0,-1.0,0.0,1.0,-2.0
1705334389.6714177,3.0,24.0,46.0,-15.0,-3.0,-2.0,-1.0,1.0
1705334389.6814077,-3.0,-15.0,12.0,10.0,-1.0,-3.0,-3.0,-3.0
1705334389.6814077,-4.0,-14.0,20.0,8.0,3.0,1.0,-2.0,-4.0
1705334389.6814077,0.0,11.0,-37.0,-7.0,-3.0,-5.0,-1.0,0.0
1705334389.6814077,-5.0,-9.0,-38.0,-1.0,-4.0,0.0,-2.0,-3.0
1705334389.6914532,1.0,-4.0,11.0,-9.0,0.0,1.0,2.0,-2.0
1705334389.6914532,4.0,19.0,33.0,5.0,0.0,0.0,-1.0,0.0
1705334389.701583,-3.0,-6.0,-1.0,-14.0,-1.0,-3.0,-4.0,-3.0
1705334389.701583,-1.0,-22.0,-15.0,-3.0,-3.0,1.0,-1.0,2.0
1705334389.7214367,4.0,20.0,-23.0,-1.0,-3.0,0.0,-2.0,-3.0
1705334389.7214367,-3.0,-11.0,3.0,4.0,3.0,-1.0,-1.0,-1.0
1705334389.7314153,4.0,10.0,23.0,-1.0,-1.0,-4.0,-4.0,0.0
1705334389.7314153,-2.0,-14.0,25.0,7.0,1.0,2.0,0.0,-1.0
1705334389.7414062,-1.0,-3.0,18.0,11.0,1.0,0.0,-1.0,-2.0
1705334389.7414062,-1.0,1.0,-43.0,-6.0,-2.0,2.0,2.0,0.0
1705334389.7414062,1.0,20.0,14.0,-15.0,-3.0,-3.0,-3.0,-1.0
1705334389.7414062,1.0,4.0,34.0,12.0,2.0,0.0,0.0,-2.0
1705334389.751762,-6.0,-10.0,-42.0,-9.0,-4.0,-1.0,1.0,-2.0
1705334389.751762,-10.0,-11.0,-22.0,-6.0,-2.0,-2.0,-4.0,-2.0
1705334389.7616827,-1.0,-10.0,45.0,17.0,3.0,2.0,2.0,0.0
1705334389.7616827,0.0,-6.0,-42.0,-6.0,-1.0,0.0,0.0,1.0
1705334389.7814054,-6.0,-5.0,3.0,-5.0,1.0,1.0,0.0,-14.0
1705334389.7814054,0.0,23.0,1.0,-5.0,-5.0,-4.0,-2.0,-4.0
1705334389.7814054,0.0,-8.0,14.0,9.0,-1.0,1.0,2.0,-14.0
1705334389.7814054,0.0,-31.0,-25.0,5.0,2.0,-2.0,-5.0,5.0
1705334389.801825,1.0,60.0,-12.0,-8.0,-2.0,5.0,2.0,-3.0
1705334389.801825,0.0,-15.0,-6.0,1.0,0.0,1.0,1.0,-2.0
1705334389.801825,-1.0,6.0,7.0,-1.0,-2.0,-2.0,0.0,0.0
1705334389.801825,0.0,-18.0,-31.0,1.0,-1.0,-3.0,-2.0,-6.0
1705334389.8117678,5.0,-34.0,46.0,8.0,1.0,-3.0,-2.0,6.0
1705334389.8117678,-5.0,-15.0,-14.0,-11.0,-4.0,-8.0,-6.0,-2.0
1705334389.8216841,2.0,-4.0,-6.0,-5.0,-4.0,-6.0,-5.0,3.0
1705334389.8216841,-1.0,-5.0,1.0,-5.0,1.0,-3.0,-1.0,-1.0
1705334389.8414087,2.0,20.0,-19.0,-5.0,-2.0,-2.0,0.0,5.0
1705334389.8414087,1.0,-2.0,51.0,15.0,-2.0,0.0,-1.0,0.0
1705334389.8414087,-1.0,-13.0,-12.0,-1.0,1.0,1.0,-2.0,1.0
1705334389.8414087,0.0,9.0,-2.0,-12.0,-3.0,1.0,4.0,15.0
1705334389.8616343,-1.0,-8.0,14.0,3.0,-1.0,-3.0,-2.0,-3.0
1705334389.8616343,-4.0,-10.0,-12.0,-6.0,3.0,2.0,1.0,-3.0
1705334389.8616343,-4.0,15.0,26.0,1.0,-4.0,-4.0,-2.0,0.0
1705334389.8616343,1.0,12.0,2.0,4.0,-2.0,-2.0,-4.0,12.0
1705334389.8716447,0.0,-5.0,-25.0,0.0,-1.0,-5.0,-4.0,-2.0
1705334389.8716447,-5.0,-35.0,40.0,10.0,3.0,5.0,1.0,-4.0
1705334389.8815858,-2.0,25.0,-6.0,-20.0,-5.0,-4.0,-3.0,4.0
1705334389.8815858,-3.0,-2.0,-24.0,-7.0,-2.0,-1.0,1.0,-11.0
1705334389.9068093,1.0,-11.0,30.0,13.0,2.0,0.0,2.0,2.0
1705334389.9068093,3.0,-27.0,-46.0,-9.0,-6.0,-4.0,-3.0,2.0
1705334389.9068093,-5.0,36.0,16.0,-10.0,-3.0,-1.0,-1.0,-4.0
1705334389.9068093,4.0,-14.0,18.0,14.0,0.0,-1.0,1.0,3.0
1705334389.9218903,-7.0,2.0,-17.0,2.0,-1.0,-2.0,-5.0,-9.0
1705334389.9218903,6.0,28.0,26.0,-4.0,2.0,3.0,4.0,9.0
1705334389.9218903,-1.0,-24.0,-53.0,-10.0,-2.0,0.0,-1.0,-20.0
1705334389.9218903,-3.0,12.0,29.0,-9.0,-8.0,-4.0,-4.0,-14.0
1705334389.9421732,-3.0,-6.0,41.0,5.0,5.0,-2.0,-1.0,5.0
1705334389.9421732,2.0,-34.0,-29.0,3.0,1.0,-3.0,-4.0,-12.0
1705334389.9421732,-3.0,-20.0,-35.0,-3.0,-1.0,-2.0,-2.0,8.0
1705334389.9421732,5.0,18.0,14.0,12.0,-1.0,4.0,2.0,1.0
1705334389.9621851,-2.0,-1.0,-14.0,-6.0,1.0,3.0,2.0,-7.0
1705334389.9621851,-5.0,8.0,48.0,-8.0,-2.0,1.0,1.0,-1.0
1705334389.9621851,-11.0,14.0,19.0,8.0,-2.0,-5.0,-4.0,8.0
1705334389.9621851,-8.0,-2.0,-45.0,-1.0,-1.0,-2.0,2.0,-3.0
1705334389.9918878,2.0,-1.0,3.0,-13.0,-4.0,-1.0,-5.0,4.0
1705334389.9918878,14.0,-21.0,-51.0,-4.0,0.0,1.0,-1.0,7.0
1705334389.9918878,2.0,-16.0,39.0,18.0,6.0,10.0,6.0,0.0
1705334389.9918878,-2.0,15.0,28.0,11.0,-2.0,-4.0,-4.0,-2.0
1705334389.9918878,0.0,21.0,-20.0,-20.0,-1.0,-1.0,1.0,5.0
1705334389.9918878,16.0,19.0,-27.0,-1.0,-4.0,-2.0,-1.0,-2.0
1705334390.0019155,-5.0,-61.0,2.0,-2.0,-6.0,-5.0,-5.0,-4.0
1705334390.0019155,2.0,7.0,5.0,3.0,1.0,1.0,3.0,-1.0
1705334390.0214534,-12.0,-32.0,-41.0,-6.0,1.0,2.0,-1.0,-5.0
1705334390.0214534,-3.0,5.0,23.0,4.0,-3.0,-1.0,0.0,2.0
1705334390.0214534,2.0,17.0,-9.0,6.0,-1.0,2.0,0.0,-1.0
1705334390.0214534,1.0,10.0,-35.0,-20.0,-6.0,-3.0,-2.0,-3.0
1705334390.0418465,-1.0,61.0,59.0,21.0,4.0,1.0,1.0,1.0
1705334390.0418465,3.0,44.0,10.0,-11.0,-6.0,-11.0,-8.0,-2.0
1705334390.0418465,-3.0,8.0,-11.0,6.0,-1.0,-4.0,-4.0,-13.0
1705334390.0418465,9.0,-10.0,-30.0,-4.0,2.0,5.0,2.0,2.0
1705334390.0618463,4.0,-20.0,12.0,10.0,-2.0,5.0,6.0,15.0
1705334390.0618463,-1.0,8.0,73.0,18.0,1.0,3.0,3.0,7.0
1705334390.0618463,7.0,-9.0,-54.0,-21.0,-5.0,-5.0,-2.0,24.0
1705334390.0618463,-31.0,-18.0,-52.0,-39.0,-8.0,-10.0,-12.0,-43.0
1705334390.081461,-32.0,31.0,25.0,-5.0,-3.0,-3.0,0.0,20.0
1705334390.081461,2.0,-24.0,-23.0,10.0,2.0,-2.0,-3.0,-11.0
1705334390.081461,11.0,11.0,50.0,0.0,-2.0,0.0,-4.0,-43.0
1705334390.081461,17.0,42.0,23.0,11.0,6.0,3.0,13.0,50.0
1705334390.101755,2.0,-32.0,-37.0,-7.0,-3.0,2.0,-15.0,-49.0
1705334390.101755,13.0,6.0,9.0,1.0,1.0,1.0,4.0,-2.0
1705334390.101755,-4.0,-10.0,-15.0,-2.0,3.0,3.0,2.0,10.0
1705334390.101755,-12.0,3.0,26.0,17.0,3.0,1.0,-2.0,-11.0
1705334390.141462,2.0,-90.0,-28.0,-19.0,-9.0,-10.0,-4.0,1.0
1705334390.141462,-12.0,14.0,-51.0,-16.0,-5.0,-3.0,-2.0,9.0
1705334390.141462,3.0,44.0,26.0,17.0,-2.0,-4.0,-1.0,-1.0
1705334390.141462,18.0,-8.0,14.0,-8.0,9.0,9.0,6.0,7.0
1705334390.141462,-18.0,-8.0,8.0,-8.0,5.0,-9.0,-8.0,1.0
1705334390.141462,-9.0,-20.0,-47.0,-3.0,-4.0,-6.0,-7.0,-8.0
1705334390.141462,-6.0,1.0,-11.0,-10.0,-1.0,-2.0,-1.0,4.0
1705334390.141462,11.0,34.0,45.0,23.0,-1.0,-1.0,0.0,-1.0
1705334390.1615312,8.0,-22.0,-21.0,-2.0,-1.0,6.0,5.0,1.0
1705334390.1615312,8.0,0.0,-21.0,-9.0,-1.0,1.0,0.0,-4.0
1705334390.1615312,-4.0,-5.0,8.0,11.0,5.0,4.0,2.0,5.0
1705334390.1615312,-15.0,-7.0,-21.0,-5.0,-1.0,-2.0,-3.0,-5.0
1705334390.1814597,5.0,54.0,30.0,-7.0,-4.0,-5.0,-3.0,-10.0
1705334390.1814597,-10.0,-43.0,3.0,5.0,-4.0,-2.0,-2.0,8.0
1705334390.1814597,1.0,24.0,14.0,4.0,1.0,0.0,0.0,7.0
1705334390.1814597,27.0,-41.0,12.0,-1.0,-2.0,0.0,-5.0,-10.0
1705334390.201875,-8.0,-1.0,-58.0,-2.0,-2.0,-3.0,1.0,-3.0
1705334390.201875,-9.0,-11.0,-2.0,-1.0,1.0,1.0,1.0,-5.0
1705334390.201875,5.0,-25.0,1.0,-2.0,-2.0,2.0,1.0,4.0
1705334390.201875,-3.0,-10.0,-19.0,-16.0,-4.0,-4.0,-3.0,-2.0
1705334390.221698,5.0,7.0,18.0,9.0,1.0,2.0,5.0,22.0
1705334390.221698,-10.0,7.0,23.0,8.0,-1.0,-5.0,-10.0,-12.0
1705334390.221698,-27.0,-102.0,-63.0,-17.0,0.0,-1.0,-3.0,-12.0
1705334390.221698,-10.0,10.0,45.0,-2.0,-8.0,-9.0,-6.0,-3.0
1705334390.2416587,12.0,-15.0,1.0,4.0,-4.0,-8.0,-4.0,5.0
1705334390.2416587,-13.0,-45.0,-26.0,-3.0,2.0,1.0,2.0,-1.0
1705334390.2416587,3.0,-4.0,2.0,5.0,2.0,0.0,-1.0,-3.0
1705334390.2416587,1.0,-15.0,-14.0,5.0,3.0,-2.0,-2.0,-2.0
1705334390.26185,-4.0,48.0,10.0,7.0,1.0,4.0,4.0,3.0
1705334390.26185,-9.0,6.0,12.0,-6.0,-1.0,2.0,0.0,-1.0
1705334390.26185,-10.0,-17.0,10.0,0.0,-3.0,-2.0,-2.0,-8.0
1705334390.26185,-4.0,11.0,-12.0,0.0,1.0,3.0,1.0,2.0
1705334390.2816753,12.0,-6.0,20.0,6.0,-1.0,-2.0,-1.0,-6.0
1705334390.2816753,12.0,-3.0,-12.0,-11.0,0.0,2.0,6.0,9.0
1705334390.2816753,-6.0,43.0,13.0,-2.0,-3.0,-2.0,-5.0,-3.0
1705334390.2816753,-34.0,-40.0,-17.0,-8.0,-2.0,-2.0,-2.0,-2.0
1705334390.3014958,-6.0,-12.0,0.0,4.0,1.0,-4.0,-4.0,-6.0
1705334390.3014958,3.0,6.0,15.0,1.0,-3.0,-1.0,-2.0,-1.0
1705334390.3014958,12.0,2.0,0.0,7.0,-2.0,0.0,3.0,3.0
1705334390.3014958,-6.0,50.0,-1.0,15.0,-6.0,0.0,1.0,-2.0
1705334390.3218079,12.0,-6.0,-28.0,-50.0,0.0,-1.0,-3.0,0.0
1705334390.3218079,-11.0,-22.0,6.0,8.0,6.0,4.0,1.0,4.0
1705334390.3218079,11.0,8.0,52.0,0.0,-1.0,-5.0,-4.0,-7.0
1705334390.3218079,-4.0,-52.0,-9.0,13.0,-4.0,-6.0,-4.0,-5.0
1705334390.341676,16.0,-25.0,8.0,14.0,-5.0,4.0,4.0,2.0
1705334390.341676,-3.0,101.0,-4.0,5.0,1.0,10.0,20.0,9.0
1705334390.341676,34.0,24.0,-4.0,-12.0,10.0,-2.0,-18.0,-5.0
1705334390.341676,-44.0,-49.0,-6.0,-22.0,-6.0,-21.0,-21.0,-26.0
1705334390.3615067,-39.0,-6.0,0.0,-2.0,2.0,-4.0,-4.0,-6.0
1705334390.3615067,5.0,-36.0,-18.0,-7.0,-5.0,-3.0,0.0,-4.0
1705334390.3615067,8.0,42.0,-86.0,-22.0,-6.0,5.0,14.0,8.0
1705334390.3615067,10.0,27.0,51.0,-22.0,-9.0,-4.0,-2.0,4.0
1705334390.381874,7.0,-57.0,63.0,37.0,-15.0,-5.0,-3.0,-3.0
1705334390.381874,-2.0,49.0,-40.0,-31.0,-1.0,-2.0,0.0,-4.0
1705334390.381874,2.0,-46.0,20.0,67.0,21.0,8.0,5.0,10.0
1705334390.381874,3.0,-22.0,-16.0,-26.0,17.0,3.0,-2.0,2.0
1705334390.4014654,-10.0,12.0,-8.0,10.0,-6.0,-12.0,-8.0,-4.0
1705334390.4014654,3.0,4.0,30.0,-6.0,-9.0,-2.0,-7.0,-2.0
1705334390.4014654,-9.0,-51.0,-40.0,-29.0,-15.0,5.0,4.0,0.0
1705334390.4014654,15.0,65.0,37.0,24.0,6.0,15.0,13.0,4.0
1705334390.4218273,-1.0,60.0,13.0,39.0,1.0,-6.0,-3.0,-7.0
1705334390.4218273,-26.0,-39.0,-10.0,-26.0,-15.0,-10.0,-11.0,-6.0
1705334390.4218273,-8.0,23.0,7.0,-5.0,7.0,-5.0,-5.0,-2.0
1705334390.4218273,-11.0,-86.0,-86.0,4.0,9.0,6.0,0.0,1.0
1705334390.4428823,3.0,69.0,-6.0,-35.0,-2.0,-2.0,1.0,4.0
1705334390.4428823,14.0,10.0,67.0,67.0,-7.0,-10.0,-8.0,-3.0
1705334390.4428823,-12.0,-44.0,-1.0,-40.0,-8.0,-3.0,4.0,-3.0
1705334390.4428823,-8.0,6.0,8.0,-19.0,-10.0,1.0,0.0,3.0
1705334390.4656494,-7.0,-40.0,-69.0,-26.0,3.0,3.0,-1.0,-5.0
1705334390.4656494,-6.0,16.0,-60.0,-17.0,4.0,-4.0,-4.0,-6.0
1705334390.4656494,7.0,-5.0,39.0,8.0,-1.0,3.0,6.0,8.0
1705334390.4656494,24.0,60.0,32.0,17.0,-5.0,-4.0,0.0,4.0
1705334390.4861307,-2.0,-29.0,-15.0,-5.0,1.0,5.0,0.0,-2.0
1705334390.4861307,5.0,-2.0,35.0,3.0,1.0,3.0,0.0,0.0
1705334390.4861307,-3.0,-20.0,-20.0,10.0,4.0,3.0,3.0,2.0
1705334390.4861307,9.0,5.0,-2.0,6.0,1.0,-1.0,1.0,0.0
1705334390.4964108,14.0,7.0,23.0,-26.0,-9.0,-1.0,4.0,12.0
1705334390.4964108,13.0,-26.0,-1.0,19.0,4.0,-2.0,-12.0,-16.0
1705334390.4964108,-84.0,-21.0,-30.0,-9.0,5.0,-11.0,-10.0,-15.0
1705334390.4964108,-9.0,23.0,-17.0,-8.0,-10.0,-7.0,-3.0,-4.0
1705334390.516142,11.0,10.0,29.0,23.0,-4.0,3.0,4.0,2.0
1705334390.516142,12.0,-3.0,-23.0,-10.0,12.0,9.0,11.0,11.0
1705334390.516142,31.0,25.0,15.0,-17.0,-9.0,-5.0,-6.0,7.0
1705334390.516142,-4.0,-26.0,16.0,16.0,2.0,0.0,-4.0,-1.0
1705334390.5465572,-6.0,43.0,-20.0,-1.0,2.0,-2.0,-10.0,-4.0
1705334390.5465572,-7.0,-1.0,-5.0,4.0,-3.0,4.0,6.0,-2.0
1705334390.5465572,3.0,6.0,44.0,-3.0,-10.0,-5.0,-3.0,-3.0
1705334390.5465572,2.0,-57.0,-29.0,-7.0,1.0,-5.0,0.0,4.0
1705334390.5564215,4.0,13.0,19.0,2.0,0.0,6.0,5.0,2.0
1705334390.5564215,-19.0,46.0,-8.0,-14.0,-1.0,-7.0,-3.0,-6.0
1705334390.5564215,-1.0,-6.0,-11.0,0.0,-2.0,2.0,5.0,-7.0
1705334390.5564215,18.0,22.0,25.0,45.0,11.0,-4.0,-13.0,3.0
1705334390.5861416,17.0,-28.0,-22.0,-12.0,3.0,0.0,-1.0,2.0
1705334390.5861416,-18.0,17.0,27.0,9.0,4.0,-1.0,-2.0,0.0
1705334390.5861416,6.0,-28.0,-11.0,-20.0,-5.0,4.0,5.0,3.0
1705334390.5861416,10.0,38.0,10.0,-15.0,-3.0,3.0,4.0,-1.0
1705334390.606413,-2.0,-51.0,-12.0,1.0,1.0,-2.0,-1.0,-2.0
1705334390.606413,-9.0,18.0,-11.0,-10.0,-9.0,-6.0,-1.0,-2.0
1705334390.606413,11.0,4.0,5.0,21.0,1.0,-1.0,-10.0,0.0
1705334390.606413,-13.0,-52.0,-4.0,-7.0,-12.0,-2.0,5.0,-1.0
1705334390.636142,5.0,-4.0,13.0,-9.0,-4.0,-1.0,3.0,2.0
1705334390.636142,0.0,-90.0,-15.0,10.0,13.0,1.0,-4.0,-8.0
1705334390.636142,-29.0,98.0,-10.0,3.0,-5.0,-12.0,-19.0,-18.0
1705334390.636142,5.0,-16.0,30.0,-2.0,4.0,2.0,3.0,1.0
1705334390.636142,-7.0,-1.0,-14.0,5.0,-2.0,-1.0,3.0,1.0
1705334390.636142,0.0,24.0,0.0,-12.0,-13.0,-9.0,-1.0,2.0
1705334390.6461418,20.0,-22.0,10.0,16.0,4.0,1.0,1.0,8.0
1705334390.6461418,0.0,2.0,-15.0,-24.0,3.0,4.0,0.0,3.0
1705334390.6665535,-8.0,-9.0,5.0,34.0,-5.0,-2.0,0.0,-7.0
1705334390.6665535,-3.0,-24.0,-11.0,0.0,-2.0,1.0,-2.0,-1.0
1705334390.6665535,16.0,4.0,-2.0,-24.0,9.0,1.0,2.0,3.0
1705334390.6665535,-3.0,13.0,0.0,2.0,-29.0,-2.0,0.0,2.0
1705334390.6861432,-13.0,-9.0,-12.0,-4.0,33.0,6.0,18.0,1.0
1705334390.6861432,1.0,-51.0,5.0,3.0,-4.0,-4.0,-12.0,-3.0
1705334390.6861432,-11.0,89.0,6.0,-46.0,-33.0,-16.0,-13.0,-9.0
1705334390.6861432,5.0,1.0,1.0,59.0,5.0,0.0,-1.0,-4.0
1705334390.7061462,16.0,-49.0,-29.0,-22.0,28.0,3.0,-8.0,0.0
1705334390.7061462,9.0,7.0,-5.0,16.0,6.0,6.0,10.0,8.0
1705334390.7061462,4.0,-10.0,23.0,16.0,13.0,1.0,5.0,4.0
1705334390.7061462,-12.0,17.0,14.0,-21.0,-20.0,-7.0,-2.0,-4.0
1705334390.7264469,-20.0,9.0,-12.0,2.0,-16.0,-3.0,-4.0,-5.0
1705334390.7264469,13.0,-14.0,3.0,-16.0,2.0,1.0,-1.0,0.0
1705334390.7264469,9.0,-23.0,4.0,0.0,-10.0,2.0,2.0,4.0
1705334390.7264469,-14.0,-3.0,-28.0,-6.0,-5.0,-4.0,3.0,-3.0
1705334390.7561417,14.0,17.0,-5.0,-20.0,0.0,-2.0,2.0,6.0
1705334390.7561417,-18.0,0.0,-24.0,-24.0,-6.0,-6.0,-10.0,-5.0
1705334390.7561417,-16.0,-57.0,28.0,29.0,23.0,7.0,2.0,-10.0
1705334390.7561417,15.0,10.0,34.0,19.0,6.0,0.0,0.0,-1.0
1705334390.7561417,-18.0,12.0,-14.0,-33.0,-16.0,-3.0,0.0,-5.0
1705334390.7561417,14.0,38.0,18.0,1.0,-6.0,1.0,-3.0,4.0
1705334390.7661426,0.0,-18.0,-22.0,17.0,21.0,-1.0,0.0,5.0
1705334390.7661426,17.0,-13.0,-12.0,-12.0,-3.0,1.0,2.0,0.0
1705334390.7864943,-5.0,-18.0,9.0,-12.0,-17.0,-9.0,-2.0,0.0
1705334390.7864943,-12.0,20.0,15.0,5.0,-6.0,2.0,3.0,-5.0
1705334390.7864943,-5.0,-25.0,-21.0,1.0,18.0,11.0,3.0,1.0
1705334390.7864943,1.0,-27.0,-8.0,-41.0,-1.0,-3.0,1.0,1.0
1705334390.806141,11.0,61.0,25.0,44.0,-4.0,-1.0,-9.0,-4.0
1705334390.806141,5.0,1.0,5.0,5.0,11.0,1.0,6.0,5.0
1705334390.806141,-3.0,24.0,-4.0,9.0,-11.0,-7.0,-4.0,-3.0
1705334390.806141,-12.0,-45.0,-27.0,-6.0,4.0,-1.0,-3.0,-2.0
1705334390.8162866,-11.0,45.0,-6.0,-11.0,-20.0,-5.0,-6.0,-6.0
1705334390.8162866,0.0,14.0,33.0,-3.0,-5.0,-3.0,-1.0,-2.0
1705334390.8261433,1.0,25.0,-1.0,-24.0,-18.0,2.0,5.0,2.0
1705334390.8261433,2.0,5.0,-10.0,15.0,13.0,1.0,-2.0,-1.0
1705334390.8461423,-4.0,-5.0,13.0,13.0,-5.0,-1.0,-5.0,-3.0
1705334390.8461423,0.0,5.0,-15.0,19.0,2.0,-4.0,2.0,-1.0
1705334390.8461423,1.0,-3.0,0.0,-44.0,-13.0,-3.0,-6.0,-1.0
1705334390.8461423,-16.0,-3.0,4.0,9.0,0.0,3.0,1.0,-2.0
1705334390.8665757,6.0,-57.0,-4.0,10.0,29.0,1.0,-5.0,-3.0
1705334390.8665757,14.0,15.0,-8.0,-21.0,-8.0,2.0,3.0,9.0
1705334390.8665757,-7.0,-16.0,0.0,29.0,4.0,-5.0,-1.0,-1.0
1705334390.8665757,-3.0,25.0,9.0,17.0,7.0,-5.0,-7.0,-3.0
1705334390.8764656,0.0,5.0,-3.0,-30.0,-22.0,-6.0,-3.0,-3.0
1705334390.8764656,0.0,-28.0,4.0,4.0,-11.0,2.0,2.0,-1.0
1705334390.8861456,0.0,48.0,7.0,-1.0,7.0,0.0,2.0,1.0
1705334390.8861456,5.0,34.0,0.0,-4.0,-2.0,1.0,-2.0,1.0
1705334390.9061437,10.0,27.0,11.0,5.0,7.0,4.0,2.0,3.0
1705334390.9061437,-17.0,4.0,-46.0,-38.0,-17.0,-7.0,-6.0,-5.0
1705334390.9061437,-1.0,10.0,53.0,38.0,-18.0,-6.0,0.0,-2.0
1705334390.9061437,3.0,-50.0,-10.0,-37.0,10.0,8.0,6.0,1.0
1705334390.9161696,-1.0,38.0,10.0,46.0,16.0,-13.0,-13.0,-2.0
1705334390.9161696,2.0,-50.0,-19.0,-15.0,-3.0,-3.0,-9.0,-1.0
1705334390.9161696,-2.0,20.0,-28.0,-4.0,7.0,2.0,1.0,1.0
1705334390.9161696,-2.0,-53.0,11.0,-14.0,-8.0,3.0,3.0,-3.0
1705334390.9364731,-9.0,-21.0,36.0,21.0,7.0,11.0,3.0,-4.0
1705334390.9364731,8.0,22.0,1.0,27.0,15.0,1.0,-3.0,1.0
1705334390.9461436,7.0,-20.0,-5.0,18.0,-16.0,-3.0,-1.0,2.0
1705334390.9461436,-11.0,55.0,3.0,-31.0,-22.0,-10.0,-2.0,-2.0
1705334390.97414,-10.0,-37.0,-32.0,-25.0,-12.0,3.0,3.0,-1.0
1705334390.97414,-9.0,36.0,24.0,26.0,29.0,4.0,3.0,-2.0
1705334390.97414,10.0,-8.0,-38.0,-24.0,2.0,-7.0,-3.0,1.0
1705334390.97414,7.0,-55.0,-2.0,14.0,4.0,-4.0,-6.0,0.0
1705334390.9821448,-12.0,103.0,-22.0,-20.0,-11.0,-6.0,-4.0,-4.0
1705334390.9821448,-9.0,-44.0,-6.0,-32.0,-23.0,-4.0,0.0,1.0
1705334390.9874434,6.0,20.0,11.0,0.0,-5.0,8.0,5.0,-2.0
1705334390.9874434,17.0,-29.0,11.0,49.0,32.0,4.0,1.0,2.0
1705334391.0274942,-20.0,-64.0,-9.0,-15.0,7.0,2.0,-6.0,-7.0
1705334391.0274942,4.0,32.0,5.0,-10.0,-6.0,-1.0,1.0,-5.0
1705334391.0274942,-10.0,17.0,-8.0,-7.0,-23.0,-8.0,-2.0,-3.0
1705334391.0274942,5.0,5.0,-1.0,-1.0,-5.0,0.0,-2.0,0.0
1705334391.0274942,21.0,-59.0,4.0,-19.0,6.0,-3.0,-4.0,7.0
1705334391.0274942,5.0,-9.0,-15.0,6.0,10.0,-5.0,-3.0,-1.0
1705334391.0274942,-1.0,-6.0,1.0,-3.0,-1.0,-1.0,-1.0,0.0
1705334391.0274942,-14.0,-22.0,-26.0,-13.0,-4.0,-1.0,1.0,-3.0
1705334391.0367339,5.0,100.0,17.0,-4.0,-21.0,5.0,5.0,-4.0
1705334391.0367339,-2.0,-26.0,11.0,21.0,12.0,1.0,1.0,-1.0
1705334391.0570667,17.0,-12.0,-4.0,22.0,4.0,5.0,2.0,1.0
1705334391.0570667,-25.0,70.0,-12.0,-3.0,-7.0,0.0,4.0,-4.0
1705334391.0570667,4.0,-59.0,-12.0,-27.0,25.0,9.0,4.0,2.0
1705334391.0570667,3.0,6.0,11.0,37.0,-8.0,-1.0,2.0,-2.0
1705334391.0668178,2.0,0.0,8.0,-45.0,-7.0,-7.0,-5.0,-1.0
1705334391.0668178,-1.0,20.0,-23.0,6.0,-4.0,-1.0,-2.0,6.0
1705334391.0867474,7.0,-30.0,1.0,3.0,-32.0,-7.0,-2.0,0.0
1705334391.0867474,-21.0,28.0,4.0,5.0,30.0,14.0,9.0,-4.0
1705334391.0867474,-13.0,-50.0,-1.0,13.0,2.0,-3.0,-6.0,-6.0
1705334391.0867474,4.0,72.0,-10.0,-30.0,-17.0,-8.0,-8.0,-6.0
1705334391.0969677,2.0,-36.0,-2.0,22.0,10.0,-10.0,-4.0,4.0
1705334391.0969677,9.0,-19.0,2.0,1.0,-8.0,-1.0,-2.0,3.0
1705334391.1069093,-5.0,-11.0,10.0,18.0,-7.0,6.0,2.0,1.0
1705334391.1069093,1.0,-22.0,-22.0,-6.0,34.0,5.0,-2.0,-1.0
1705334391.1167517,0.0,21.0,13.0,32.0,-5.0,-4.0,2.0,-2.0
1705334391.1167517,-4.0,6.0,19.0,23.0,-18.0,-12.0,-7.0,-3.0
1705334391.1167517,-4.0,3.0,-22.0,-35.0,-12.0,2.0,5.0,2.0
1705334391.1267512,2.0,30.0,16.0,16.0,18.0,5.0,3.0,2.0
1705334391.1468508,9.0,0.0,-7.0,17.0,19.0,-1.0,-5.0,-1.0
1705334391.1468508,-16.0,1.0,-8.0,-6.0,-62.0,-12.0,-3.0,-6.0
1705334391.1468508,-18.0,-63.0,-10.0,-3.0,53.0,-5.0,-8.0,-3.0
1705334391.1468508,7.0,1.0,3.0,-47.0,-34.0,0.0,-1.0,4.0
1705334391.157104,-11.0,23.0,-20.0,8.0,-9.0,3.0,2.0,-3.0
1705334391.157104,-3.0,-46.0,55.0,22.0,46.0,6.0,-1.0,-1.0
1705334391.1671255,27.0,15.0,-11.0,17.0,-27.0,1.0,7.0,6.0
1705334391.1671255,-19.0,-15.0,-53.0,-30.0,3.0,-9.0,-15.0,-10.0
1705334391.1772237,-1.0,-8.0,34.0,-9.0,-12.0,-4.0,2.0,1.0
1705334391.1772237,7.0,68.0,7.0,-16.0,-36.0,1.0,2.0,0.0
1705334391.1772237,2.0,-31.0,20.0,-2.0,11.0,17.0,10.0,2.0
1705334391.1772237,-13.0,21.0,2.0,49.0,42.0,0.0,1.0,-5.0
1705334391.2072687,2.0,7.0,-16.0,-14.0,-24.0,-15.0,-5.0,-1.0
1705334391.2072687,-2.0,15.0,0.0,-40.0,-16.0,-8.0,-3.0,-2.0
1705334391.2072687,9.0,-33.0,15.0,53.0,48.0,8.0,5.0,5.0
1705334391.2072687,13.0,25.0,-39.0,-50.0,-14.0,1.0,1.0,4.0
1705334391.2175364,-20.0,-25.0,-24.0,-52.0,-20.0,1.0,-3.0,-7.0
1705334391.2175364,0.0,-10.0,-14.0,59.0,56.0,0.0,-2.0,-2.0
1705334391.2272801,-1.0,26.0,20.0,-13.0,-9.0,-1.0,-6.0,1.0
1705334391.2272801,0.0,-7.0,27.0,20.0,-11.0,-4.0,-2.0,-2.0
1705334391.247142,-5.0,-17.0,-26.0,5.0,-13.0,-4.0,-2.0,2.0
1705334391.247142,19.0,-17.0,10.0,-46.0,-18.0,6.0,3.0,1.0
1705334391.247142,-33.0,81.0,3.0,-15.0,-20.0,-14.0,-8.0,-13.0
1705334391.247142,-4.0,-13.0,-6.0,8.0,-10.0,-13.0,-4.0,-5.0
1705334391.2672489,3.0,22.0,6.0,-26.0,11.0,20.0,11.0,1.0
1705334391.2672489,-2.0,-22.0,-37.0,-4.0,2.0,1.0,-2.0,1.0
1705334391.2672489,12.0,-33.0,-4.0,5.0,20.0,1.0,2.0,1.0
1705334391.2672489,-12.0,51.0,31.0,11.0,-10.0,2.0,-1.0,-3.0
1705334391.2868342,0.0,-10.0,15.0,13.0,-8.0,-5.0,-2.0,-1.0
1705334391.2868342,2.0,-29.0,-23.0,-29.0,5.0,0.0,0.0,-1.0
1705334391.2868342,3.0,-10.0,-33.0,-1.0,-2.0,-6.0,-2.0,1.0
1705334391.2868342,-5.0,-9.0,16.0,-5.0,-5.0,-5.0,-2.0,-1.0
1705334391.296797,1.0,15.0,7.0,25.0,-12.0,-7.0,-7.0,-3.0
1705334391.296797,-3.0,18.0,-9.0,-23.0,-14.0,-3.0,-4.0,0.0
1705334391.296797,0.0,14.0,16.0,-14.0,11.0,12.0,4.0,2.0
1705334391.296797,-4.0,-24.0,-10.0,15.0,-3.0,10.0,1.0,-1.0
1705334391.3270743,17.0,23.0,-8.0,-5.0,6.0,5.0,-4.0,-2.0
1705334391.3270743,-10.0,34.0,-15.0,-19.0,-12.0,-14.0,-9.0,-8.0
1705334391.3270743,-16.0,8.0,-10.0,-3.0,-33.0,-14.0,-9.0,-10.0
1705334391.3270743,9.0,-13.0,10.0,-15.0,-1.0,6.0,3.0,1.0
1705334391.3468034,-1.0,-42.0,0.0,15.0,13.0,-3.0,6.0,3.0
1705334391.3468034,13.0,9.0,31.0,4.0,4.0,12.0,11.0,5.0
1705334391.3468034,-11.0,54.0,-44.0,29.0,21.0,-14.0,-5.0,-6.0
1705334391.3468034,1.0,-40.0,20.0,3.0,9.0,-11.0,-4.0,1.0
1705334391.366802,-14.0,20.0,-21.0,-1.0,-7.0,-15.0,-7.0,-5.0
1705334391.366802,-1.0,-50.0,-49.0,-19.0,2.0,2.0,1.0,3.0
1705334391.366802,3.0,-19.0,56.0,11.0,-24.0,2.0,1.0,-2.0
1705334391.366802,8.0,63.0,56.0,-6.0,-59.0,2.0,4.0,-1.0
1705334391.3871505,1.0,-95.0,-33.0,-3.0,51.0,10.0,1.0,2.0
1705334391.3871505,-18.0,13.0,0.0,22.0,37.0,-9.0,-12.0,0.0
1705334391.3871505,-6.0,-8.0,-27.0,6.0,-4.0,1.0,-2.0,-2.0
1705334391.3871505,1.0,1.0,-17.0,-1.0,-11.0,-13.0,-2.0,0.0
1705334391.406804,-2.0,23.0,22.0,-9.0,-41.0,-4.0,2.0,-4.0
1705334391.406804,2.0,-15.0,-3.0,2.0,17.0,15.0,7.0,1.0
1705334391.406804,3.0,5.0,-10.0,-24.0,-21.0,-7.0,-4.0,0.0
1705334391.406804,3.0,-21.0,2.0,9.0,13.0,1.0,1.0,-1.0
1705334391.4367967,0.0,16.0,-3.0,-14.0,-14.0,-13.0,-2.0,0.0
1705334391.4367967,-3.0,-37.0,-4.0,-2.0,3.0,5.0,-1.0,-2.0
1705334391.4367967,-9.0,3.0,21.0,-8.0,2.0,0.0,0.0,-1.0
1705334391.4367967,0.0,1.0,2.0,24.0,6.0,3.0,4.0,-6.0
1705334391.44716,-1.0,8.0,17.0,-3.0,5.0,-11.0,-7.0,10.0
1705334391.44716,4.0,-20.0,-28.0,-15.0,-8.0,-3.0,-2.0,9.0
1705334391.44716,6.0,-42.0,2.0,-6.0,2.0,10.0,5.0,1.0
1705334391.44716,2.0,-20.0,-44.0,14.0,32.0,6.0,5.0,6.0
1705334391.466799,-4.0,22.0,47.0,18.0,19.0,2.0,3.0,-13.0
1705334391.466799,-6.0,19.0,27.0,-16.0,-42.0,-22.0,-9.0,-8.0
1705334391.466799,3.0,24.0,4.0,-22.0,-13.0,-5.0,-2.0,5.0
1705334391.466799,2.0,-26.0,15.0,26.0,25.0,-2.0,-1.0,-2.0
1705334391.4771802,0.0,-16.0,-34.0,-4.0,-4.0,8.0,0.0,1.0
1705334391.4771802,1.0,-2.0,-13.0,12.0,7.0,-3.0,4.0,-2.0
1705334391.4771802,8.0,-9.0,13.0,-9.0,-1.0,5.0,0.0,0.0
1705334391.4771802,-12.0,73.0,-22.0,-17.0,-13.0,-11.0,-5.0,-3.0
1705334391.508,0.0,1.0,7.0,12.0,14.0,4.0,-1.0,-14.0
1705334391.508,-2.0,21.0,2.0,2.0,0.0,8.0,3.0,20.0
1705334391.508,-2.0,19.0,31.0,24.0,3.0,-1.0,0.0,-13.0
1705334391.508,0.0,-24.0,-14.0,-20.0,-6.0,-1.0,-5.0,3.0
1705334391.5303893,-1.0,-6.0,-49.0,-16.0,-14.0,1.0,-4.0,3.0
1705334391.5303893,1.0,33.0,5.0,-5.0,8.0,-2.0,0.0,-5.0
1705334391.5303893,-1.0,10.0,-17.0,-15.0,-1.0,-1.0,1.0,1.0
1705334391.5303893,2.0,-20.0,6.0,13.0,6.0,5.0,2.0,4.0
1705334391.5407166,-2.0,9.0,18.0,28.0,16.0,6.0,7.0,0.0
1705334391.5407166,-3.0,10.0,-6.0,-22.0,-16.0,-15.0,-5.0,-11.0
1705334391.5407166,-4.0,0.0,-36.0,-9.0,-8.0,-7.0,-1.0,4.0
1705334391.5407166,3.0,-21.0,50.0,-4.0,-23.0,-3.0,-5.0,-6.0
1705334391.5677435,6.0,37.0,26.0,22.0,26.0,6.0,3.0,5.0
1705334391.5677435,-5.0,-18.0,-6.0,7.0,-21.0,-12.0,-5.0,-6.0
1705334391.5677435,-7.0,-12.0,-27.0,-25.0,-4.0,-1.0,-8.0,-4.0
1705334391.5677435,-3.0,-17.0,-36.0,-34.0,-19.0,-4.0,-3.0,2.0
1705334391.5876167,3.0,-23.0,17.0,3.0,-3.0,5.0,0.0,-14.0
1705334391.5876167,6.0,12.0,6.0,1.0,13.0,13.0,11.0,38.0
1705334391.5876167,1.0,71.0,-4.0,13.0,-1.0,-3.0,-1.0,-10.0
1705334391.5876167,-9.0,-45.0,1.0,-3.0,-1.0,-2.0,-4.0,-13.0
1705334391.5979629,-1.0,-17.0,18.0,-19.0,-14.0,-8.0,-7.0,4.0
1705334391.5979629,-1.0,18.0,9.0,-2.0,2.0,-2.0,-3.0,-17.0
1705334391.5979629,2.0,-20.0,-2.0,5.0,12.0,4.0,0.0,5.0
1705334391.5979629,3.0,20.0,-17.0,23.0,7.0,6.0,4.0,11.0
1705334391.6280224,-2.0,3.0,22.0,19.0,16.0,2.0,0.0,-6.0
1705334391.6280224,-4.0,4.0,15.0,9.0,-8.0,-4.0,-6.0,-13.0
1705334391.6280224,1.0,-39.0,26.0,0.0,2.0,-4.0,-2.0,-6.0
1705334391.6280224,2.0,61.0,-52.0,-15.0,-7.0,-3.0,-1.0,15.0
1705334391.6577072,-11.0,-14.0,-32.0,-10.0,-12.0,2.0,-1.0,-25.0
1705334391.6577072,-2.0,-22.0,-45.0,10.0,17.0,10.0,2.0,-8.0
1705334391.6577072,0.0,-1.0,30.0,-6.0,-9.0,-7.0,-4.0,11.0
1705334391.6577072,1.0,-29.0,70.0,-13.0,12.0,6.0,-1.0,-7.0
1705334391.6577072,-1.0,39.0,-2.0,2.0,-13.0,-8.0,-4.0,10.0
1705334391.6577072,-4.0,-20.0,6.0,8.0,10.0,3.0,-4.0,-9.0
1705334391.6577072,3.0,-12.0,-46.0,11.0,-25.0,0.0,10.0,8.0
1705334391.6577072,-5.0,30.0,0.0,15.0,28.0,-5.0,-6.0,-34.0
1705334391.6878905,-4.0,-22.0,-15.0,-31.0,-9.0,0.0,-3.0,40.0
1705334391.6878905,3.0,-23.0,3.0,-11.0,-5.0,-6.0,-6.0,-22.0
1705334391.6878905,-3.0,7.0,11.0,2.0,-3.0,-4.0,1.0,12.0
1705334391.6878905,2.0,2.0,4.0,12.0,1.0,10.0,-5.0,11.0
1705334391.7177014,6.0,-14.0,6.0,20.0,18.0,23.0,13.0,-32.0
1705334391.7177014,-7.0,-63.0,3.0,-18.0,-20.0,-12.0,-5.0,-7.0
1705334391.7177014,-3.0,22.0,11.0,-10.0,0.0,-1.0,-2.0,1.0
1705334391.7177014,-6.0,-14.0,5.0,8.0,-17.0,-21.0,-5.0,7.0
1705334391.7177014,0.0,13.0,-8.0,-11.0,-5.0,-3.0,-10.0,0.0
1705334391.7177014,7.0,-10.0,-10.0,6.0,-2.0,7.0,3.0,17.0
1705334391.7177014,1.0,-20.0,2.0,4.0,21.0,4.0,-6.0,-15.0
1705334391.7177014,2.0,-20.0,-10.0,3.0,1.0,0.0,-1.0,8.0
1705334391.757699,-28.0,29.0,-8.0,-18.0,-15.0,-13.0,-11.0,-12.0
1705334391.757699,9.0,9.0,24.0,14.0,-18.0,-3.0,8.0,-7.0
1705334391.757699,-1.0,-30.0,-11.0,10.0,35.0,2.0,-3.0,17.0
