1705334829.0722315,-12.0,-16.0,-34.0,7.0,6.0,8.0,10.0,-7.0
1705334829.0722315,10.0,31.0,45.0,10.0,-7.0,-12.0,6.0,-15.0
1705334829.0722315,0.0,8.0,-17.0,-23.0,-1.0,25.0,9.0,38.0
1705334829.0722315,8.0,-17.0,16.0,-3.0,0.0,-12.0,-7.0,-7.0
1705334829.1020293,17.0,4.0,47.0,19.0,4.0,3.0,-1.0,6.0
1705334829.1020293,-3.0,-4.0,-3.0,8.0,-1.0,-6.0,-5.0,7.0
1705334829.1020293,-7.0,40.0,31.0,-6.0,-3.0,-14.0,-5.0,-4.0
1705334829.1020293,2.0,-19.0,-24.0,-4.0,-2.0,-6.0,-1.0,-1.0
1705334829.1120555,9.0,13.0,14.0,4.0,-6.0,-13.0,-11.0,-5.0
1705334829.1120555,5.0,15.0,-5.0,0.0,7.0,13.0,-5.0,16.0
1705334829.1320338,8.0,-26.0,-7.0,4.0,7.0,35.0,36.0,11.0
1705334829.1320338,-8.0,19.0,19.0,-5.0,-5.0,-14.0,4.0,-8.0
1705334829.1320338,-1.0,-26.0,-22.0,-4.0,-2.0,3.0,-4.0,-8.0
1705334829.1320338,-1.0,23.0,14.0,12.0,6.0,5.0,-5.0,-1.0
1705334829.1320338,3.0,4.0,4.0,-3.0,-4.0,-13.0,-9.0,-17.0
1705334829.1320338,-18.0,27.0,-12.0,2.0,-4.0,-7.0,-1.0,-4.0
1705334829.1748657,-10.0,-28.0,-9.0,-6.0,-2.0,-16.0,-17.0,0.0
1705334829.1748657,-4.0,-14.0,-21.0,1.0,1.0,15.0,6.0,0.0
1705334829.1748657,7.0,5.0,20.0,-12.0,-4.0,-9.0,-5.0,-9.0
1705334829.1748657,23.0,34.0,4.0,3.0,0.0,-3.0,-3.0,7.0
1705334829.1748657,-14.0,-21.0,2.0,7.0,3.0,3.0,9.0,13.0
1705334829.1748657,0.0,-6.0,9.0,2.0,3.0,31.0,18.0,-3.0
1705334829.1748657,-10.0,-13.0,-8.0,-6.0,-4.0,-25.0,-12.0,-17.0
1705334829.1748657,0.0,7.0,-6.0,-11.0,-4.0,-5.0,-12.0,-1.0
1705334829.1952417,4.0,6.0,-29.0,0.0,-3.0,-1.0,-6.0,2.0
1705334829.1952417,5.0,-1.0,1.0,3.0,-3.0,-10.0,8.0,-5.0
1705334829.1952417,-22.0,24.0,-4.0,5.0,-2.0,-18.0,-3.0,-5.0
1705334829.1952417,-3.0,4.0,15.0,5.0,2.0,22.0,1.0,-1.0
1705334829.2225716,19.0,-9.0,-19.0,-1.0,4.0,7.0,22.0,-3.0
1705334829.2225716,-10.0,-17.0,-19.0,-21.0,-10.0,-2.0,1.0,8.0
1705334829.2225716,-2.0,13.0,4.0,-10.0,-7.0,-22.0,-18.0,-16.0
1705334829.2225716,0.0,3.0,10.0,-1.0,0.0,-11.0,1.0,-5.0
1705334829.243041,-15.0,19.0,10.0,4.0,1.0,7.0,-18.0,-3.0
1705334829.243041,26.0,-4.0,12.0,9.0,0.0,-4.0,12.0,6.0
1705334829.243041,-16.0,-29.0,-2.0,0.0,-4.0,8.0,1.0,-2.0
1705334829.243041,-3.0,37.0,24.0,-13.0,-7.0,-7.0,-11.0,-18.0
1705334829.252973,-14.0,46.0,-73.0,-5.0,-4.0,-10.0,2.0,5.0
1705334829.252973,-11.0,-1.0,26.0,6.0,0.0,-4.0,-12.0,-5.0
1705334829.252973,8.0,-25.0,-6.0,2.0,0.0,-1.0,-2.0,0.0
1705334829.252973,0.0,26.0,-39.0,2.0,0.0,6.0,8.0,-1.0
1705334829.2925801,-8.0,-12.0,-5.0,-9.0,-5.0,-5.0,-2.0,-7.0
1705334829.2925801,13.0,7.0,69.0,-5.0,-5.0,-6.0,-13.0,-2.0
1705334829.2925801,-37.0,57.0,-77.0,-16.0,-13.0,-5.0,-1.0,-8.0
1705334829.2925801,14.0,7.0,-25.0,-14.0,21.0,8.0,1.0,5.0
1705334829.3029683,8.0,-56.0,25.0,15.0,4.0,6.0,4.0,2.0
1705334829.3029683,-9.0,52.0,2.0,27.0,-4.0,-4.0,-8.0,-11.0
1705334829.3029683,9.0,-48.0,36.0,7.0,6.0,5.0,0.0,6.0
1705334829.3029683,2.0,-8.0,-3.0,3.0,-13.0,-5.0,4.0,31.0
1705334829.3129892,-16.0,-14.0,-50.0,-23.0,5.0,5.0,0.0,-44.0
1705334829.3129892,-13.0,-13.0,-15.0,-21.0,-4.0,-5.0,-8.0,-22.0
1705334829.3129892,6.0,2.0,48.0,17.0,1.0,-2.0,1.0,14.0
1705334829.3129892,5.0,-18.0,-15.0,13.0,-1.0,-4.0,-2.0,-22.0
1705334829.3425639,9.0,21.0,16.0,20.0,0.0,-5.0,-12.0,-16.0
1705334829.3425639,-6.0,-2.0,-44.0,-28.0,6.0,12.0,10.0,17.0
1705334829.3425639,-4.0,12.0,8.0,8.0,0.0,19.0,15.0,-44.0
1705334829.3425639,12.0,-39.0,6.0,-10.0,-5.0,0.0,-17.0,-3.0
1705334829.3729281,1.0,-9.0,80.0,19.0,2.0,-10.0,-15.0,16.0
1705334829.3729281,-5.0,9.0,-8.0,11.0,9.0,33.0,23.0,7.0
1705334829.3729281,37.0,11.0,-11.0,14.0,2.0,-25.0,-11.0,44.0
1705334829.3729281,-21.0,-24.0,-22.0,-28.0,-7.0,7.0,-1.0,-24.0
1705334829.3729281,2.0,9.0,11.0,-8.0,-9.0,-25.0,-17.0,-18.0
1705334829.3729281,-4.0,-25.0,-15.0,-6.0,-3.0,-6.0,2.0,26.0
1705334829.3729281,-48.0,-2.0,-2.0,-9.0,4.0,16.0,0.0,6.0
1705334829.3729281,44.0,6.0,11.0,21.0,-1.0,-3.0,4.0,-1.0
1705334829.4028718,-15.0,-9.0,1.0,-2.0,0.0,-10.0,10.0,-13.0
1705334829.4028718,-4.0,33.0,-15.0,-2.0,1.0,3.0,6.0,16.0
1705334829.4028718,21.0,-12.0,-3.0,-8.0,-9.0,-17.0,-13.0,-22.0
1705334829.4028718,-27.0,14.0,5.0,-4.0,-4.0,-16.0,-9.0,-12.0
1705334829.422945,-6.0,1.0,23.0,-4.0,-2.0,4.0,3.0,23.0
1705334829.422945,-9.0,-20.0,0.0,1.0,-2.0,-10.0,-19.0,-22.0
1705334829.422945,-10.0,-37.0,27.0,4.0,9.0,17.0,10.0,-26.0
1705334829.422945,-3.0,-17.0,-53.0,-9.0,-1.0,2.0,-3.0,10.0
1705334829.4332683,19.0,11.0,29.0,-5.0,-3.0,3.0,9.0,24.0
1705334829.4332683,-6.0,-23.0,-9.0,14.0,-1.0,0.0,-3.0,-17.0
1705334829.4332683,-2.0,33.0,17.0,-10.0,-5.0,-8.0,-5.0,-1.0
1705334829.4332683,-13.0,-7.0,8.0,5.0,6.0,6.0,18.0,10.0
1705334829.4529865,13.0,27.0,-38.0,-15.0,-8.0,6.0,-8.0,16.0
1705334829.4529865,-2.0,-40.0,8.0,-6.0,-4.0,-11.0,-4.0,-19.0
1705334829.4529865,7.0,0.0,-21.0,2.0,7.0,7.0,5.0,6.0
1705334829.4529865,-12.0,3.0,15.0,-8.0,-9.0,-11.0,-3.0,9.0
1705334829.4832351,4.0,8.0,-5.0,0.0,4.0,8.0,6.0,-2.0
1705334829.4832351,0.0,19.0,-6.0,1.0,-1.0,-7.0,-22.0,-5.0
1705334829.4832351,1.0,33.0,13.0,0.0,-6.0,-1.0,-2.0,8.0
1705334829.4832351,-4.0,-10.0,30.0,-7.0,-3.0,-1.0,7.0,0.0
1705334829.4932723,-1.0,-7.0,-17.0,11.0,-5.0,3.0,-7.0,-8.0
1705334829.4932723,-16.0,6.0,-36.0,-18.0,-19.0,-13.0,-5.0,-1.0
1705334829.5029545,9.0,-32.0,-7.0,-4.0,12.0,2.0,3.0,3.0
1705334829.5029545,3.0,11.0,-5.0,-22.0,-7.0,0.0,-2.0,3.0
1705334829.5129526,0.0,24.0,29.0,-18.0,7.0,6.0,4.0,7.0
1705334829.5129526,20.0,7.0,14.0,12.0,-13.0,-3.0,-2.0,-7.0
1705334829.522958,-4.0,7.0,-26.0,-8.0,-3.0,-1.0,-4.0,-4.0
1705334829.522958,0.0,1.0,5.0,32.0,7.0,0.0,0.0,7.0
1705334829.5429552,-3.0,-2.0,-21.0,-26.0,0.0,4.0,10.0,1.0
1705334829.5429552,7.0,-16.0,7.0,6.0,1.0,-2.0,-1.0,0.0
1705334829.5429552,-1.0,12.0,1.0,36.0,-6.0,-3.0,-4.0,0.0
1705334829.5429552,-7.0,-12.0,-15.0,-54.0,11.0,1.0,0.0,-1.0
1705334829.552953,-4.0,-47.0,-11.0,26.0,5.0,-3.0,2.0,7.0
1705334829.552953,1.0,15.0,-23.0,-22.0,-2.0,1.0,-1.0,0.0
1705334829.552953,0.0,-5.0,23.0,9.0,-3.0,0.0,-1.0,2.0
1705334829.552953,0.0,1.0,3.0,32.0,-4.0,0.0,-4.0,13.0
1705334829.5829582,-4.0,23.0,-13.0,-4.0,-3.0,2.0,-1.0,3.0
1705334829.5829582,7.0,5.0,17.0,13.0,7.0,-1.0,3.0,12.0
1705334829.5829582,-4.0,3.0,-13.0,-18.0,-3.0,-2.0,-3.0,17.0
1705334829.5829582,3.0,21.0,6.0,7.0,-1.0,3.0,1.0,-16.0
1705334829.6029608,-5.0,9.0,-8.0,-7.0,-2.0,1.0,-6.0,-1.0
1705334829.6029608,-4.0,2.0,15.0,9.0,1.0,-6.0,-26.0,4.0
1705334829.6029608,2.0,-2.0,-17.0,-8.0,1.0,6.0,68.0,1.0
1705334829.6029608,0.0,5.0,-5.0,-12.0,-3.0,-1.0,-10.0,0.0
1705334829.6229534,-1.0,0.0,10.0,14.0,-3.0,-3.0,-4.0,-20.0
1705334829.6229534,-2.0,-9.0,1.0,0.0,6.0,-2.0,-12.0,-31.0
1705334829.6229534,-5.0,-2.0,-9.0,-14.0,-2.0,-5.0,-22.0,-8.0
1705334829.6229534,-3.0,4.0,0.0,6.0,-1.0,2.0,4.0,-12.0
1705334829.6329527,8.0,-10.0,4.0,0.0,-1.0,0.0,2.0,22.0
1705334829.6329527,-5.0,-4.0,-4.0,-2.0,0.0,-2.0,3.0,4.0
1705334829.6329527,3.0,3.0,-5.0,-10.0,-2.0,-6.0,-20.0,-15.0
1705334829.6429613,10.0,-1.0,2.0,7.0,-6.0,-3.0,11.0,17.0
1705334829.6630018,-17.0,8.0,-8.0,-5.0,-4.0,-1.0,-8.0,-7.0
1705334829.6630018,2.0,15.0,-2.0,-7.0,1.0,-3.0,3.0,-3.0
1705334829.6630018,-6.0,7.0,-3.0,-4.0,-5.0,-5.0,-6.0,-5.0
1705334829.6630018,-8.0,7.0,-7.0,5.0,3.0,4.0,-1.0,-9.0
1705334829.6749258,8.0,-7.0,-4.0,-4.0,-1.0,5.0,12.0,10.0
1705334829.6749258,-9.0,-1.0,8.0,2.0,1.0,0.0,3.0,-1.0
1705334829.6849298,12.0,2.0,2.0,-3.0,0.0,-5.0,-13.0,-14.0
1705334829.6849298,-3.0,15.0,-6.0,-2.0,-5.0,1.0,0.0,4.0
1705334829.7023337,-7.0,-4.0,0.0,-6.0,-4.0,-4.0,2.0,-6.0
1705334829.7023337,13.0,-10.0,7.0,5.0,0.0,1.0,8.0,17.0
1705334829.7023337,-6.0,-10.0,1.0,2.0,-1.0,-2.0,-9.0,-3.0
1705334829.7023337,10.0,-16.0,5.0,2.0,0.0,-2.0,-2.0,6.0
1705334829.7248862,14.0,-15.0,-2.0,-4.0,1.0,3.0,5.0,-5.0
1705334829.7248862,14.0,-18.0,-3.0,1.0,2.0,-1.0,-3.0,-27.0
1705334829.7248862,7.0,-12.0,-1.0,-4.0,0.0,0.0,-2.0,45.0
1705334829.7258804,-9.0,-14.0,-4.0,1.0,-1.0,-2.0,3.0,-30.0
1705334829.7384157,-17.0,-6.0,-7.0,-5.0,-3.0,-2.0,-3.0,-3.0
1705334829.7384157,-17.0,-8.0,0.0,-3.0,-2.0,-2.0,3.0,9.0
1705334829.7393968,-5.0,3.0,-7.0,-4.0,-1.0,2.0,0.0,-11.0
1705334829.7393968,-7.0,13.0,3.0,1.0,0.0,1.0,-3.0,13.0
1705334829.7612462,-2.0,10.0,1.0,3.0,1.0,-3.0,-6.0,-32.0
1705334829.762003,-4.0,8.0,14.0,12.0,0.0,3.0,5.0,8.0
1705334829.762003,1.0,10.0,-15.0,-17.0,-3.0,-2.0,-2.0,-1.0
1705334829.762003,-4.0,16.0,-2.0,-1.0,-1.0,-1.0,-2.0,5.0
1705334829.7845209,7.0,3.0,-14.0,-11.0,-2.0,-1.0,0.0,5.0
1705334829.7845209,-11.0,-13.0,27.0,1.0,-1.0,-3.0,-4.0,-30.0
1705334829.7853577,2.0,0.0,6.0,12.0,0.0,-5.0,-11.0,0.0
1705334829.7853577,16.0,-6.0,4.0,7.0,-2.0,-13.0,-12.0,27.0
1705334829.799204,0.0,5.0,-6.0,0.0,-1.0,10.0,18.0,7.0
1705334829.799885,-3.0,0.0,-20.0,-9.0,-2.0,-2.0,-3.0,14.0
1705334829.799885,4.0,-3.0,-11.0,-6.0,3.0,8.0,4.0,-40.0
1705334829.799885,-27.0,-5.0,-12.0,-6.0,1.0,12.0,7.0,-5.0
1705334829.8220673,8.0,-8.0,18.0,9.0,-1.0,-9.0,1.0,4.0
1705334829.8220673,7.0,-1.0,13.0,0.0,2.0,0.0,-9.0,10.0
1705334829.8220673,-26.0,-12.0,2.0,8.0,-5.0,-10.0,5.0,-11.0
1705334829.8220673,-21.0,5.0,-19.0,2.0,-1.0,-6.0,-34.0,-59.0
1705334829.8469038,27.0,-13.0,-20.0,-5.0,3.0,7.0,41.0,29.0
1705334829.8469038,5.0,8.0,-33.0,-13.0,-3.0,5.0,-11.0,48.0
1705334829.8469038,5.0,-2.0,20.0,-3.0,-1.0,1.0,18.0,-20.0
1705334829.8469038,-18.0,-17.0,17.0,9.0,-2.0,-3.0,-10.0,33.0
1705334829.859166,-19.0,22.0,-10.0,-5.0,-3.0,-24.0,-37.0,-73.0
1705334829.859166,-2.0,13.0,-38.0,7.0,-2.0,-5.0,11.0,37.0
1705334829.8669407,45.0,-28.0,5.0,-1.0,1.0,26.0,-3.0,6.0
1705334829.8669407,-13.0,3.0,11.0,-6.0,-1.0,4.0,-3.0,11.0
1705334829.8819492,13.0,-13.0,-13.0,-18.0,-2.0,7.0,40.0,30.0
1705334829.8819492,-2.0,-9.0,21.0,8.0,-1.0,-18.0,-24.0,-27.0
1705334829.8819492,-22.0,7.0,-19.0,-9.0,-5.0,-17.0,-27.0,8.0
1705334829.8819492,25.0,-19.0,-3.0,-3.0,-1.0,4.0,46.0,9.0
1705334829.9010546,-3.0,2.0,-26.0,-1.0,1.0,-2.0,-31.0,-1.0
1705334829.9010546,-9.0,-21.0,3.0,-17.0,-1.0,-4.0,0.0,-18.0
1705334829.9010546,-5.0,16.0,29.0,21.0,0.0,2.0,2.0,14.0
1705334829.9010546,-10.0,57.0,36.0,11.0,-3.0,-11.0,-30.0,-10.0
1705334829.9113803,-11.0,-32.0,4.0,-12.0,-6.0,0.0,-3.0,-4.0
1705334829.9113803,-1.0,15.0,-21.0,-13.0,-4.0,6.0,8.0,1.0
1705334829.921055,23.0,-20.0,1.0,-1.0,3.0,0.0,-9.0,-12.0
1705334829.921055,9.0,-4.0,-40.0,-11.0,-2.0,-2.0,7.0,-2.0
1705334829.9410546,-3.0,7.0,23.0,11.0,-3.0,-6.0,-6.0,24.0
1705334829.9410546,5.0,-23.0,10.0,-8.0,2.0,3.0,9.0,-7.0
1705334829.9410546,-14.0,-2.0,11.0,-4.0,-2.0,1.0,2.0,9.0
1705334829.9410546,-3.0,13.0,-3.0,-4.0,1.0,-4.0,1.0,-28.0
1705334829.961454,-5.0,1.0,2.0,0.0,-3.0,3.0,0.0,6.0
1705334829.961454,11.0,-6.0,-1.0,-4.0,-6.0,-4.0,-2.0,-4.0
1705334829.961454,-10.0,0.0,-10.0,-10.0,-4.0,0.0,0.0,2.0
1705334829.961454,0.0,-20.0,-5.0,18.0,6.0,0.0,-1.0,-6.0
1705334829.9713862,-1.0,7.0,12.0,16.0,4.0,1.0,-13.0,-1.0
1705334829.9713862,-1.0,7.0,5.0,-6.0,-3.0,1.0,9.0,-4.0
1705334829.9813557,-4.0,3.0,-2.0,-4.0,1.0,-3.0,3.0,7.0
1705334829.9813557,15.0,2.0,2.0,-1.0,-6.0,-1.0,-5.0,5.0
1705334830.001057,-6.0,1.0,-25.0,-18.0,0.0,-4.0,-6.0,-10.0
1705334830.001057,0.0,19.0,13.0,10.0,-8.0,-3.0,-4.0,-6.0
1705334830.001057,-5.0,4.0,-3.0,-10.0,-10.0,-2.0,-1.0,-3.0
1705334830.001057,9.0,-28.0,4.0,7.0,12.0,3.0,2.0,4.0
1705334830.0212786,-4.0,-6.0,11.0,24.0,2.0,0.0,2.0,1.0
1705334830.0212786,-2.0,21.0,5.0,8.0,4.0,1.0,1.0,-9.0
1705334830.0212786,-3.0,-7.0,-19.0,-21.0,-10.0,-3.0,-4.0,2.0
1705334830.0212786,4.0,-8.0,4.0,-5.0,-1.0,1.0,5.0,5.0
1705334830.031058,-4.0,8.0,7.0,1.0,-1.0,-1.0,0.0,-1.0
1705334830.031058,-6.0,10.0,-6.0,4.0,0.0,0.0,0.0,-7.0
1705334830.041252,0.0,54.0,2.0,9.0,1.0,-1.0,2.0,-1.0
1705334830.041252,-3.0,-18.0,-14.0,-11.0,9.0,2.0,3.0,0.0
1705334830.0710564,-1.0,1.0,2.0,-2.0,0.0,1.0,-6.0,-3.0
1705334830.0710564,4.0,1.0,4.0,2.0,-4.0,1.0,0.0,-1.0
1705334830.0710564,-3.0,-6.0,-1.0,19.0,6.0,-3.0,1.0,2.0
1705334830.0710564,-1.0,1.0,2.0,-2.0,-7.0,-2.0,1.0,-4.0
1705334830.0810885,-1.0,-5.0,17.0,6.0,1.0,0.0,-2.0,-1.0
1705334830.0810885,-1.0,-2.0,-34.0,1.0,1.0,-1.0,0.0,-3.0
1705334830.0810885,-2.0,-16.0,-4.0,-4.0,-1.0,-3.0,-1.0,6.0
1705334830.0810885,-4.0,-7.0,0.0,-8.0,-3.0,-1.0,-3.0,-12.0
1705334830.091087,1.0,1.0,10.0,1.0,-3.0,0.0,-1.0,1.0
1705334830.091087,-3.0,-1.0,1.0,-4.0,2.0,-1.0,0.0,-2.0
1705334830.1010933,-2.0,3.0,-2.0,12.0,1.0,0.0,-2.0,-1.0
1705334830.1010933,1.0,0.0,-8.0,-15.0,-7.0,0.0,-1.0,4.0
1705334830.121055,-2.0,12.0,1.0,-6.0,0.0,-1.0,-1.0,-2.0
1705334830.121055,-2.0,-11.0,17.0,14.0,2.0,1.0,-2.0,0.0
1705334830.121055,-1.0,3.0,-9.0,9.0,3.0,-1.0,-1.0,-4.0
1705334830.121055,-6.0,3.0,-16.0,-31.0,-11.0,-9.0,-3.0,13.0
1705334830.1414692,-6.0,-2.0,-6.0,-1.0,-1.0,-1.0,-2.0,-1.0
1705334830.1414692,5.0,-16.0,-2.0,-1.0,3.0,16.0,12.0,6.0
1705334830.1414692,-1.0,-3.0,10.0,5.0,2.0,-6.0,-10.0,-20.0
1705334830.1414692,4.0,-7.0,7.0,9.0,-1.0,-1.0,-1.0,-3.0
1705334830.1613677,0.0,5.0,1.0,5.0,3.0,-5.0,-7.0,-8.0
1705334830.1613677,1.0,1.0,14.0,3.0,-1.0,4.0,5.0,7.0
1705334830.1613677,2.0,-2.0,-11.0,-8.0,-2.0,4.0,5.0,24.0
1705334830.1613677,-12.0,6.0,-26.0,-16.0,-5.0,-6.0,-5.0,-18.0
1705334830.1810563,1.0,4.0,4.0,-4.0,-4.0,-5.0,-4.0,5.0
1705334830.1810563,0.0,-12.0,7.0,2.0,1.0,-7.0,-1.0,8.0
1705334830.1910539,8.0,0.0,-9.0,-4.0,0.0,-2.0,0.0,0.0
1705334830.1910539,-6.0,7.0,11.0,11.0,0.0,5.0,5.0,-13.0
1705334830.204985,-6.0,1.0,-1.0,0.0,-2.0,4.0,4.0,-6.0
1705334830.204985,-10.0,31.0,-5.0,-5.0,2.0,1.0,-2.0,-27.0
1705334830.2056906,-1.0,-16.0,16.0,-3.0,-4.0,-7.0,-6.0,20.0
1705334830.2056906,4.0,-16.0,5.0,8.0,-2.0,-4.0,-6.0,30.0
1705334830.2275512,2.0,-7.0,5.0,2.0,-1.0,0.0,5.0,-17.0
1705334830.2275512,-1.0,-8.0,-34.0,-13.0,-3.0,-5.0,-5.0,-1.0
1705334830.2275512,-6.0,0.0,-4.0,-23.0,-4.0,1.0,0.0,-7.0
1705334830.2275512,3.0,12.0,24.0,10.0,-2.0,-1.0,-1.0,-11.0
1705334830.2465942,2.0,-10.0,0.0,5.0,3.0,-1.0,-3.0,10.0
1705334830.2465942,-3.0,-3.0,1.0,4.0,0.0,5.0,5.0,5.0
1705334830.2465942,-4.0,-4.0,-16.0,-1.0,4.0,-1.0,0.0,-15.0
1705334830.2465942,3.0,-6.0,-18.0,-1.0,-1.0,1.0,0.0,32.0
1705334830.2649846,-6.0,8.0,6.0,2.0,-4.0,0.0,-1.0,-14.0
1705334830.2660477,6.0,-15.0,-11.0,-7.0,-1.0,-8.0,-9.0,-39.0
1705334830.2660477,-5.0,-3.0,12.0,0.0,1.0,0.0,2.0,-21.0
1705334830.2660477,4.0,-1.0,-43.0,-3.0,1.0,3.0,5.0,41.0
1705334830.308531,4.0,-7.0,41.0,-3.0,-3.0,-8.0,-12.0,-27.0
1705334830.308531,-4.0,9.0,58.0,9.0,-10.0,-11.0,-12.0,9.0
1705334830.308531,-1.0,2.0,-5.0,-1.0,-4.0,-4.0,-15.0,-7.0
1705334830.308531,9.0,-6.0,-21.0,5.0,5.0,6.0,29.0,6.0
1705334830.308531,-8.0,-25.0,-53.0,-4.0,2.0,9.0,1.0,-29.0
1705334830.308531,6.0,-17.0,-4.0,-12.0,0.0,-12.0,-49.0,-47.0
1705334830.308531,-11.0,0.0,5.0,12.0,2.0,15.0,54.0,-52.0
1705334830.308531,1.0,-23.0,-2.0,-4.0,-2.0,-2.0,-21.0,44.0
1705334830.3249938,-10.0,2.0,41.0,-7.0,-4.0,-4.0,13.0,26.0
1705334830.3249938,5.0,40.0,33.0,4.0,-6.0,-11.0,-4.0,29.0
1705334830.3259995,-4.0,0.0,-23.0,-4.0,-3.0,-7.0,-22.0,-30.0
1705334830.3259995,2.0,-1.0,-3.0,10.0,7.0,8.0,7.0,-14.0
1705334830.3571928,-5.0,-9.0,-55.0,-20.0,-2.0,2.0,-1.0,4.0
1705334830.3571928,-11.0,-22.0,-4.0,12.0,3.0,4.0,0.0,-4.0
1705334830.3571928,0.0,39.0,-18.0,-12.0,-3.0,-6.0,-13.0,21.0
1705334830.3571928,-6.0,4.0,29.0,-17.0,-6.0,-3.0,11.0,-30.0
1705334830.3613486,7.0,-37.0,2.0,4.0,-5.0,-8.0,-16.0,8.0
1705334830.3613486,4.0,33.0,-18.0,-12.0,-2.0,0.0,12.0,24.0
1705334830.3623285,-2.0,6.0,16.0,16.0,6.0,5.0,-1.0,2.0
1705334830.3623285,-8.0,-38.0,13.0,10.0,-3.0,-4.0,-6.0,-11.0
1705334830.3848922,7.0,63.0,-7.0,-1.0,-4.0,-6.0,-23.0,17.0
1705334830.3848922,-5.0,-36.0,-34.0,-10.0,2.0,1.0,25.0,0.0
1705334830.3858464,13.0,-9.0,-2.0,-3.0,-2.0,5.0,10.0,22.0
1705334830.3858464,6.0,13.0,12.0,-4.0,0.0,-7.0,-17.0,-13.0
1705334830.407899,-2.0,3.0,13.0,8.0,1.0,4.0,3.0,-4.0
1705334830.407899,8.0,-7.0,-14.0,5.0,1.0,-1.0,4.0,14.0
1705334830.4089005,-6.0,-11.0,4.0,-7.0,-4.0,-15.0,-16.0,4.0
1705334830.4089005,-3.0,23.0,2.0,2.0,2.0,14.0,7.0,-14.0
1705334830.4218223,0.0,6.0,-20.0,0.0,-2.0,5.0,24.0,6.0
1705334830.4228928,-3.0,2.0,16.0,1.0,-5.0,-5.0,-8.0,-6.0
1705334830.4228928,7.0,-25.0,12.0,16.0,18.0,1.0,9.0,16.0
1705334830.4228928,-7.0,-20.0,-42.0,-6.0,-8.0,-21.0,-25.0,-18.0
1705334830.4451096,-5.0,33.0,1.0,1.0,1.0,1.0,-5.0,5.0
1705334830.4451096,-4.0,-27.0,-2.0,-5.0,-3.0,6.0,7.0,1.0
1705334830.4451096,-4.0,8.0,13.0,6.0,-2.0,-3.0,-8.0,0.0
1705334830.4451096,7.0,-10.0,10.0,-15.0,-6.0,-2.0,4.0,2.0
1705334830.4680367,-2.0,-10.0,6.0,-1.0,-12.0,-2.0,-2.0,-1.0
1705334830.4680367,-4.0,-14.0,-7.0,5.0,9.0,2.0,3.0,4.0
1705334830.4680367,3.0,-27.0,-3.0,-5.0,2.0,2.0,-5.0,0.0
1705334830.4680367,11.0,33.0,22.0,7.0,12.0,2.0,4.0,2.0
1705334830.4814887,5.0,-8.0,2.0,3.0,-7.0,-7.0,1.0,-3.0
1705334830.4814887,-14.0,-3.0,1.0,-9.0,-11.0,-3.0,-6.0,1.0
1705334830.4823155,1.0,-16.0,-5.0,11.0,10.0,3.0,3.0,7.0
1705334830.4823155,-8.0,19.0,10.0,-4.0,-3.0,0.0,4.0,-7.0
1705334830.5047114,1.0,4.0,-17.0,-5.0,-2.0,-6.0,-6.0,0.0
1705334830.5047114,5.0,24.0,8.0,12.0,3.0,1.0,2.0,-8.0
1705334830.5054781,-3.0,-6.0,-10.0,-21.0,-10.0,0.0,-10.0,0.0
1705334830.5054781,-2.0,-9.0,13.0,8.0,0.0,0.0,1.0,-9.0
1705334830.52748,1.0,-27.0,-22.0,-8.0,4.0,3.0,1.0,8.0
1705334830.52748,-8.0,8.0,-3.0,-9.0,-5.0,-3.0,-1.0,-4.0
1705334830.52748,-1.0,-2.0,-16.0,-8.0,-10.0,-5.0,2.0,2.0
1705334830.52748,-1.0,-4.0,22.0,-4.0,-8.0,-3.0,-8.0,-6.0
1705334830.5411215,1.0,-16.0,10.0,19.0,22.0,3.0,-1.0,-2.0
1705334830.5411215,2.0,-7.0,-27.0,-9.0,5.0,4.0,6.0,6.0
1705334830.5421228,-3.0,-32.0,-3.0,7.0,-3.0,-4.0,-5.0,-2.0
1705334830.5421228,1.0,-9.0,0.0,11.0,-4.0,-3.0,-2.0,2.0
1705334830.5649347,0.0,21.0,17.0,-7.0,-12.0,1.0,3.0,0.0
1705334830.5649347,-6.0,-4.0,-11.0,-11.0,6.0,0.0,0.0,-3.0
1705334830.5649347,-1.0,15.0,5.0,16.0,-5.0,-1.0,-4.0,5.0
1705334830.5659404,-14.0,-28.0,-11.0,-18.0,3.0,2.0,3.0,-6.0
1705334830.5874724,-11.0,52.0,-8.0,-2.0,3.0,-4.0,-3.0,-5.0
1705334830.5874724,4.0,-21.0,12.0,8.0,-3.0,-3.0,-3.0,1.0
1705334830.5874724,2.0,8.0,5.0,-3.0,-4.0,0.0,6.0,1.0
1705334830.5874724,2.0,9.0,-6.0,6.0,-1.0,-1.0,-1.0,-3.0
1705334830.6015718,3.0,-9.0,13.0,0.0,3.0,4.0,-1.0,2.0
1705334830.6015718,3.0,0.0,13.0,-3.0,-3.0,2.0,2.0,1.0
1705334830.6023276,-11.0,32.0,-1.0,-14.0,-8.0,-3.0,-1.0,-2.0
1705334830.6023276,-4.0,-19.0,-12.0,2.0,1.0,-1.0,-1.0,-3.0
1705334830.6242304,2.0,-40.0,-13.0,-1.0,2.0,2.0,-2.0,0.0
1705334830.6242304,5.0,10.0,-10.0,5.0,4.0,2.0,0.0,-1.0
1705334830.625221,-3.0,6.0,11.0,-7.0,-6.0,-1.0,-1.0,-2.0
1705334830.625221,0.0,0.0,1.0,-8.0,-2.0,-1.0,1.0,-1.0
1705334830.6474378,0.0,1.0,-1.0,9.0,-6.0,-3.0,-1.0,-1.0
1705334830.6474378,-7.0,-6.0,-11.0,-14.0,-5.0,-3.0,-4.0,-4.0
1705334830.6474378,3.0,9.0,1.0,-18.0,-4.0,0.0,-3.0,4.0
1705334830.6474378,-9.0,-9.0,-14.0,11.0,2.0,-1.0,0.0,-1.0
1705334830.661889,-1.0,-6.0,4.0,4.0,2.0,0.0,-1.0,3.0
1705334830.661889,2.0,12.0,17.0,1.0,-5.0,0.0,1.0,-6.0
1705334830.661889,0.0,4.0,-9.0,-8.0,-2.0,-1.0,-3.0,-2.0
1705334830.661889,-2.0,7.0,12.0,6.0,1.0,1.0,-2.0,-1.0
1705334830.6838953,4.0,-2.0,-11.0,-12.0,-3.0,0.0,1.0,-3.0
1705334830.6838953,1.0,-5.0,-1.0,11.0,1.0,1.0,-1.0,5.0
1705334830.6846642,3.0,-7.0,2.0,-13.0,0.0,2.0,1.0,0.0
1705334830.6846642,0.0,8.0,10.0,22.0,11.0,4.0,2.0,-3.0
1705334830.7097113,-13.0,38.0,-8.0,-10.0,-12.0,-10.0,-6.0,-1.0
1705334830.7097113,0.0,-36.0,-10.0,6.0,1.0,-4.0,-8.0,-8.0
1705334830.7097113,4.0,44.0,14.0,12.0,1.0,0.0,-1.0,0.0
1705334830.7097113,-2.0,-9.0,-22.0,-19.0,-4.0,-4.0,-3.0,-1.0
1705334830.7224028,0.0,-27.0,7.0,-13.0,0.0,0.0,2.0,2.0
1705334830.7224028,0.0,9.0,12.0,6.0,-5.0,-2.0,1.0,-2.0
1705334830.7224028,15.0,15.0,-5.0,1.0,-1.0,0.0,-2.0,4.0
1705334830.7224028,4.0,36.0,2.0,-1.0,-1.0,0.0,-2.0,0.0
1705334830.747342,-5.0,-12.0,6.0,6.0,2.0,-1.0,0.0,-1.0
1705334830.747342,-3.0,-4.0,-6.0,-4.0,0.0,0.0,-1.0,-2.0
1705334830.747342,-3.0,-29.0,0.0,7.0,4.0,-1.0,1.0,-14.0
1705334830.747342,3.0,3.0,5.0,-7.0,-7.0,-3.0,-4.0,16.0
1705334830.7670057,1.0,-2.0,-7.0,-11.0,0.0,-2.0,1.0,0.0
1705334830.7670057,2.0,22.0,-2.0,-3.0,-1.0,-2.0,-7.0,12.0
1705334830.7680013,-9.0,-12.0,-6.0,2.0,2.0,2.0,-1.0,13.0
1705334830.7680013,8.0,2.0,-1.0,-3.0,-2.0,-3.0,7.0,5.0
1705334830.7872016,-13.0,-3.0,4.0,6.0,0.0,0.0,-5.0,-20.0
1705334830.7872016,-4.0,1.0,-1.0,-4.0,-2.0,1.0,1.0,7.0
1705334830.7892025,-7.0,-6.0,-9.0,-2.0,0.0,-1.0,-3.0,-3.0
1705334830.7892025,-2.0,-3.0,1.0,-3.0,-2.0,0.0,-2.0,-1.0
1705334830.80515,5.0,-6.0,-1.0,3.0,-2.0,-3.0,-2.0,9.0
1705334830.80515,-3.0,-5.0,-9.0,-6.0,-1.0,-3.0,-4.0,-12.0
1705334830.80515,-3.0,-12.0,1.0,2.0,1.0,4.0,8.0,0.0
1705334830.80515,-1.0,4.0,7.0,6.0,-3.0,-2.0,-2.0,-16.0
1705334830.827427,4.0,-17.0,-9.0,-1.0,-4.0,-4.0,-1.0,19.0
1705334830.827427,-4.0,4.0,-2.0,-13.0,0.0,0.0,-4.0,-6.0
1705334830.827427,1.0,-5.0,-13.0,-5.0,-3.0,-14.0,-23.0,0.0
1705334830.827427,-6.0,-6.0,7.0,0.0,-2.0,8.0,16.0,-4.0
1705334830.8480923,4.0,-13.0,-1.0,3.0,4.0,3.0,-11.0,-12.0
1705334830.8480923,6.0,8.0,2.0,2.0,1.0,4.0,17.0,33.0
1705334830.8488646,-2.0,4.0,15.0,3.0,-2.0,-5.0,-2.0,-16.0
1705334830.8488646,-11.0,13.0,-10.0,3.0,-1.0,-11.0,-23.0,-20.0
1705334830.8649654,3.0,-11.0,5.0,3.0,2.0,9.0,4.0,-39.0
1705334830.8649654,-5.0,-26.0,-8.0,-6.0,-2.0,8.0,20.0,14.0
1705334830.8649654,0.0,-5.0,9.0,10.0,4.0,16.0,9.0,6.0
1705334830.8649654,-3.0,-11.0,-18.0,-9.0,-2.0,-14.0,-1.0,33.0
1705334830.887403,2.0,-3.0,-31.0,-28.0,-7.0,-10.0,-21.0,3.0
1705334830.887403,11.0,6.0,21.0,-12.0,2.0,-2.0,1.0,9.0
1705334830.887403,-17.0,-21.0,-20.0,-8.0,-9.0,-15.0,-9.0,-31.0
1705334830.8884645,5.0,-3.0,17.0,21.0,-1.0,-2.0,-8.0,-21.0
1705334830.9082227,-4.0,-5.0,1.0,4.0,-4.0,-9.0,6.0,8.0
1705334830.9082227,-3.0,-8.0,-12.0,-7.0,-2.0,1.0,4.0,-9.0
1705334830.908854,-8.0,1.0,6.0,2.0,9.0,22.0,8.0,-13.0
1705334830.908854,14.0,-11.0,-8.0,-10.0,-3.0,-4.0,1.0,40.0
1705334830.9242988,13.0,21.0,27.0,19.0,5.0,-11.0,-5.0,-19.0
1705334830.9242988,-27.0,10.0,-6.0,14.0,-1.0,-7.0,-4.0,-11.0
1705334830.9252992,8.0,-5.0,4.0,-13.0,-2.0,8.0,1.0,-26.0
1705334830.9252992,10.0,-17.0,-37.0,-20.0,-2.0,-10.0,2.0,-6.0
1705334830.9473104,-19.0,1.0,26.0,8.0,5.0,29.0,14.0,39.0
1705334830.9473104,14.0,1.0,-2.0,3.0,-1.0,-14.0,-40.0,-28.0
1705334830.9482455,3.0,10.0,4.0,15.0,2.0,4.0,44.0,5.0
1705334830.9482455,24.0,22.0,32.0,-17.0,1.0,5.0,-3.0,-5.0
1705334830.9694357,-15.0,6.0,-22.0,-8.0,-6.0,-11.0,1.0,7.0
1705334830.9694357,16.0,9.0,-31.0,-5.0,0.0,2.0,-24.0,5.0
1705334830.9704998,-7.0,-41.0,50.0,19.0,2.0,-5.0,1.0,24.0
1705334830.9704998,-2.0,28.0,10.0,15.0,-3.0,-2.0,-2.0,-19.0
1705334830.9842145,-13.0,10.0,8.0,-5.0,-2.0,-3.0,7.0,4.0
1705334830.9842145,-9.0,-14.0,-18.0,-10.0,-6.0,0.0,-10.0,-33.0
1705334830.9842145,20.0,19.0,-39.0,-3.0,-3.0,-10.0,-3.0,24.0
1705334830.9842145,-25.0,-31.0,6.0,12.0,5.0,4.0,1.0,-11.0
1705334831.0194712,7.0,-1.0,13.0,-8.0,-10.0,0.0,-4.0,-3.0
1705334831.0194712,1.0,4.0,11.0,-5.0,2.0,-3.0,12.0,2.0
1705334831.0194712,-5.0,-23.0,-41.0,0.0,6.0,-4.0,-6.0,11.0
1705334831.0194712,-3.0,6.0,-9.0,-13.0,-9.0,3.0,-5.0,0.0
1705334831.0207179,-2.0,9.0,-32.0,-18.0,-8.0,-7.0,-6.0,-9.0
1705334831.0207179,3.0,17.0,46.0,9.0,-2.0,3.0,10.0,2.0
1705334831.029067,0.0,11.0,14.0,-2.0,2.0,-3.0,-4.0,2.0
1705334831.029067,-20.0,-14.0,-38.0,5.0,2.0,-2.0,-10.0,-7.0
1705334831.0439901,4.0,6.0,21.0,22.0,-15.0,-5.0,2.0,-6.0
1705334831.0439901,-7.0,41.0,12.0,-28.0,12.0,3.0,10.0,6.0
1705334831.0447395,-4.0,-15.0,-18.0,-2.0,-4.0,-5.0,-16.0,0.0
1705334831.0447395,0.0,-2.0,14.0,-3.0,8.0,2.0,2.0,0.0
1705334831.072887,4.0,-20.0,3.0,18.0,10.0,5.0,5.0,2.0
1705334831.072887,-2.0,1.0,-10.0,14.0,-6.0,-1.0,0.0,1.0
1705334831.072887,-19.0,12.0,0.0,-16.0,-11.0,-7.0,-7.0,-6.0
1705334831.072887,4.0,14.0,-1.0,-16.0,-8.0,1.0,1.0,-3.0
1705334831.072887,2.0,-1.0,8.0,1.0,6.0,2.0,1.0,-2.0
1705334831.072887,-2.0,-21.0,-10.0,14.0,6.0,-1.0,-1.0,-3.0
1705334831.0832334,7.0,31.0,0.0,-8.0,-2.0,-3.0,-5.0,2.0
1705334831.0832334,5.0,-5.0,5.0,-17.0,-8.0,4.0,6.0,2.0
1705334831.1037836,-15.0,-20.0,-7.0,12.0,12.0,0.0,-4.0,-3.0
1705334831.1037836,-1.0,0.0,-1.0,-5.0,-4.0,-2.0,1.0,-3.0
1705334831.1037836,4.0,11.0,-13.0,22.0,-2.0,1.0,-1.0,2.0
1705334831.1037836,12.0,-17.0,18.0,-11.0,-1.0,2.0,2.0,2.0
1705334831.133328,-2.0,44.0,-8.0,-14.0,-1.0,-4.0,-3.0,-2.0
1705334831.133328,-4.0,-30.0,2.0,1.0,2.0,0.0,0.0,0.0
1705334831.133328,-19.0,-16.0,0.0,-10.0,-9.0,-5.0,-6.0,-5.0
1705334831.133328,-3.0,6.0,2.0,11.0,0.0,-3.0,-2.0,0.0
1705334831.1436532,23.0,-33.0,-4.0,3.0,1.0,1.0,2.0,5.0
1705334831.1436532,-3.0,67.0,0.0,9.0,-5.0,0.0,-2.0,-2.0
1705334831.1436532,-12.0,-43.0,-12.0,6.0,-2.0,-6.0,-7.0,-5.0
1705334831.1436532,-7.0,-16.0,3.0,4.0,3.0,0.0,2.0,-2.0
1705334831.1637728,5.0,-2.0,-11.0,-18.0,1.0,-1.0,-1.0,5.0
1705334831.1637728,-2.0,-10.0,12.0,-16.0,-10.0,-2.0,-3.0,-2.0
1705334831.1637728,5.0,8.0,-30.0,-1.0,4.0,0.0,-1.0,1.0
1705334831.1637728,-8.0,13.0,0.0,10.0,-2.0,-3.0,-4.0,-3.0
1705334831.193327,1.0,5.0,8.0,-4.0,-2.0,1.0,3.0,-2.0
1705334831.193327,0.0,-33.0,1.0,9.0,0.0,1.0,-1.0,-2.0
1705334831.193327,6.0,24.0,18.0,-5.0,0.0,1.0,2.0,0.0
1705334831.193327,-6.0,-10.0,-9.0,10.0,2.0,1.0,1.0,-12.0
1705334831.20361,-2.0,-6.0,-4.0,-6.0,-3.0,-3.0,-5.0,27.0
1705334831.20361,1.0,-6.0,-2.0,7.0,-2.0,-3.0,1.0,-15.0
1705334831.20361,2.0,12.0,6.0,-28.0,-6.0,-4.0,0.0,16.0
1705334831.20361,-2.0,8.0,-9.0,-1.0,1.0,-3.0,-7.0,32.0
1705334831.2234056,-3.0,-7.0,1.0,-8.0,-2.0,-2.0,-1.0,-20.0
1705334831.2234056,-2.0,-5.0,-9.0,1.0,1.0,4.0,3.0,1.0
1705334831.2234056,6.0,-5.0,0.0,-1.0,0.0,3.0,3.0,-6.0
1705334831.2234056,-6.0,7.0,12.0,2.0,-1.0,-4.0,-3.0,-1.0
1705334831.243328,-4.0,-13.0,-7.0,2.0,0.0,2.0,-5.0,-3.0
1705334831.243328,-6.0,14.0,-3.0,3.0,-4.0,-5.0,-3.0,2.0
1705334831.243328,5.0,-1.0,5.0,0.0,2.0,1.0,-1.0,-8.0
1705334831.243328,-3.0,4.0,3.0,-1.0,0.0,2.0,-1.0,-3.0
1705334831.2697918,1.0,1.0,-4.0,6.0,1.0,-1.0,5.0,-12.0
1705334831.2704585,2.0,-11.0,-17.0,-2.0,-2.0,-7.0,-2.0,-16.0
1705334831.2704585,-13.0,-3.0,-2.0,-2.0,0.0,-5.0,-29.0,10.0
1705334831.2704585,20.0,0.0,0.0,-6.0,1.0,14.0,26.0,44.0
1705334831.2841177,0.0,-20.0,19.0,7.0,-1.0,-7.0,-14.0,-84.0
1705334831.2841177,9.0,-51.0,-1.0,-3.0,-3.0,0.0,7.0,8.0
1705334831.2851672,-11.0,40.0,-10.0,19.0,6.0,7.0,0.0,-19.0
1705334831.2851672,-10.0,17.0,-11.0,-2.0,-3.0,-9.0,-8.0,-15.0
1705334831.3098729,-2.0,-8.0,40.0,-10.0,-5.0,-2.0,-7.0,38.0
1705334831.3098729,2.0,-4.0,13.0,0.0,-3.0,-9.0,-1.0,-14.0
1705334831.3098729,11.0,3.0,-1.0,-8.0,-3.0,-4.0,1.0,-7.0
1705334831.3098729,-2.0,3.0,-48.0,-4.0,1.0,7.0,2.0,-31.0
1705334831.3299863,4.0,18.0,-6.0,5.0,2.0,1.0,-8.0,59.0
1705334831.3299863,2.0,-2.0,16.0,9.0,1.0,1.0,-4.0,7.0
1705334831.3299863,-24.0,-4.0,25.0,9.0,-4.0,-5.0,10.0,19.0
1705334831.3299863,-1.0,-7.0,-71.0,-19.0,-1.0,2.0,18.0,-20.0
1705334831.3403044,9.0,10.0,21.0,3.0,0.0,-1.0,-10.0,8.0
1705334831.3403044,0.0,8.0,37.0,13.0,-2.0,0.0,6.0,7.0
1705334831.3403044,-2.0,-11.0,-1.0,-10.0,-4.0,6.0,-6.0,-10.0
1705334831.3403044,-8.0,0.0,23.0,4.0,-5.0,-14.0,-15.0,48.0
1705334831.3698735,-2.0,-9.0,-18.0,4.0,0.0,-16.0,-8.0,-1.0
1705334831.3698735,5.0,-2.0,-4.0,-5.0,5.0,16.0,9.0,-1.0
1705334831.3698735,12.0,-42.0,-79.0,-36.0,-2.0,15.0,31.0,-31.0
1705334831.3698735,4.0,-2.0,23.0,10.0,-3.0,-4.0,-15.0,27.0
1705334831.390106,3.0,60.0,-24.0,-1.0,0.0,-2.0,10.0,-5.0
1705334831.390106,-1.0,17.0,4.0,-16.0,-1.0,-13.0,-26.0,-18.0
1705334831.390106,-5.0,-22.0,23.0,-1.0,0.0,-8.0,-1.0,4.0
1705334831.390106,12.0,-20.0,33.0,23.0,0.0,2.0,1.0,-35.0
1705334831.4002016,-17.0,-34.0,-21.0,-6.0,0.0,-2.0,-6.0,5.0
1705334831.4002016,4.0,13.0,-1.0,3.0,-2.0,3.0,-2.0,-1.0
1705334831.4002016,0.0,15.0,-8.0,-1.0,-2.0,0.0,7.0,9.0
1705334831.4002016,-1.0,1.0,9.0,-3.0,-4.0,-5.0,-10.0,-5.0
1705334831.4302206,-11.0,0.0,-2.0,-4.0,-2.0,3.0,5.0,-19.0
1705334831.4302206,-7.0,-9.0,-31.0,4.0,6.0,7.0,3.0,12.0
1705334831.4302206,12.0,1.0,18.0,2.0,-1.0,-5.0,1.0,7.0
1705334831.4302206,-7.0,8.0,17.0,1.0,-1.0,-5.0,-4.0,-27.0
1705334831.4502206,-1.0,9.0,9.0,-1.0,-6.0,8.0,5.0,40.0
1705334831.4502206,-1.0,-15.0,-29.0,0.0,-9.0,-1.0,-2.0,-34.0
1705334831.4502206,3.0,11.0,13.0,-14.0,8.0,3.0,-5.0,2.0
1705334831.4502206,-2.0,-14.0,-5.0,-17.0,-3.0,-1.0,-1.0,-7.0
1705334831.4605255,-5.0,-2.0,5.0,-11.0,2.0,-1.0,2.0,-15.0
1705334831.4700315,-2.0,-15.0,-14.0,9.0,6.0,-8.0,-1.0,13.0
1705334831.4700315,0.0,-5.0,-4.0,10.0,-7.0,-7.0,-7.0,12.0
1705334831.4700315,-7.0,-11.0,-25.0,-2.0,4.0,6.0,-4.0,-11.0
1705334831.4802637,7.0,18.0,1.0,-6.0,2.0,2.0,5.0,-6.0
1705334831.4802637,-5.0,-1.0,12.0,0.0,-9.0,-2.0,1.0,20.0
1705334831.4802637,2.0,32.0,23.0,1.0,1.0,-4.0,-7.0,-13.0
1705334831.4802637,-6.0,-15.0,-11.0,-16.0,-4.0,-2.0,1.0,4.0
1705334831.5100448,3.0,-17.0,5.0,10.0,0.0,-1.0,3.0,-9.0
1705334831.5100448,-4.0,-6.0,-4.0,0.0,3.0,1.0,-2.0,0.0
1705334831.5100448,4.0,8.0,11.0,3.0,0.0,2.0,-1.0,-15.0
1705334831.5100448,9.0,8.0,5.0,-4.0,1.0,0.0,-1.0,19.0
1705334831.540039,-13.0,7.0,5.0,9.0,-2.0,-3.0,0.0,-9.0
1705334831.540039,-1.0,0.0,-5.0,-11.0,-12.0,-5.0,-2.0,4.0
1705334831.540039,-6.0,-13.0,-11.0,-14.0,-4.0,-4.0,-6.0,-2.0
1705334831.540039,0.0,4.0,11.0,14.0,4.0,2.0,-1.0,-2.0
1705334831.540039,1.0,-10.0,-16.0,6.0,13.0,3.0,-2.0,-10.0
1705334831.540039,-2.0,-7.0,4.0,-8.0,1.0,2.0,3.0,5.0
1705334831.540039,2.0,-2.0,4.0,12.0,-12.0,-4.0,-3.0,4.0
1705334831.540039,-8.0,-16.0,-7.0,-6.0,0.0,-3.0,-6.0,-12.0
1705334831.5699484,2.0,-25.0,19.0,-12.0,3.0,1.0,1.0,2.0
1705334831.5699484,-9.0,2.0,-20.0,1.0,-2.0,-5.0,-3.0,-3.0
1705334831.5699484,-3.0,-27.0,-20.0,5.0,0.0,-4.0,-5.0,5.0
1705334831.5699484,-7.0,19.0,-11.0,-23.0,-12.0,-2.0,-1.0,-4.0
1705334831.579957,2.0,-14.0,-18.0,-6.0,-6.0,-1.0,1.0,-7.0
1705334831.579957,9.0,18.0,25.0,1.0,3.0,-2.0,1.0,5.0
1705334831.5902863,3.0,7.0,14.0,6.0,1.0,2.0,-1.0,1.0
1705334831.5902863,3.0,6.0,18.0,15.0,3.0,-1.0,1.0,-1.0
1705334831.6002724,-3.0,-22.0,-16.0,-2.0,-5.0,-1.0,-3.0,-15.0
1705334831.6002724,-4.0,11.0,-14.0,-12.0,-1.0,-3.0,-3.0,3.0
1705334831.6002724,-2.0,-6.0,5.0,7.0,4.0,-1.0,0.0,3.0
1705334831.6002724,-2.0,9.0,7.0,1.0,1.0,-3.0,-1.0,-7.0
1705334831.6299574,0.0,17.0,0.0,6.0,-4.0,-1.0,-2.0,-28.0
1705334831.6299574,-3.0,-20.0,10.0,11.0,1.0,2.0,-2.0,2.0
1705334831.6299574,0.0,5.0,-17.0,-10.0,-2.0,-4.0,1.0,7.0
1705334831.6299574,-4.0,-6.0,-15.0,-10.0,-1.0,1.0,-8.0,-27.0
1705334831.6402788,3.0,11.0,4.0,-1.0,-4.0,2.0,8.0,28.0
1705334831.6402788,0.0,0.0,19.0,-15.0,-5.0,-4.0,-1.0,-2.0
1705334831.650309,-3.0,-11.0,8.0,20.0,4.0,-2.0,-3.0,12.0
1705334831.650309,0.0,6.0,3.0,12.0,1.0,-3.0,-2.0,-21.0
1705334831.660328,-1.0,-1.0,-13.0,-7.0,-3.0,0.0,-2.0,17.0
1705334831.660328,5.0,8.0,-13.0,3.0,2.0,3.0,1.0,-25.0
1705334831.660328,-15.0,3.0,-7.0,1.0,1.0,2.0,1.0,-11.0
1705334831.660328,14.0,5.0,-9.0,-6.0,-6.0,-4.0,-10.0,75.0
1705334831.6900015,-10.0,5.0,-2.0,-13.0,-2.0,-2.0,-11.0,-11.0
1705334831.6900015,12.0,-13.0,27.0,8.0,0.0,-5.0,12.0,47.0
1705334831.6900015,6.0,-14.0,18.0,-1.0,-1.0,-3.0,-14.0,-112.0
1705334831.6900015,6.0,-26.0,-40.0,-14.0,0.0,12.0,18.0,-16.0
1705334831.7003882,-9.0,72.0,11.0,2.0,3.0,-2.0,-9.0,15.0
1705334831.7003882,-13.0,-6.0,10.0,-7.0,-3.0,12.0,8.0,-16.0
1705334831.7103696,19.0,-8.0,2.0,0.0,-1.0,-7.0,2.0,46.0
1705334831.7103696,15.0,-11.0,36.0,30.0,3.0,-1.0,-2.0,33.0
1705334831.7203825,6.0,21.0,-28.0,1.0,-5.0,-5.0,-4.0,-29.0
1705334831.7203825,-28.0,8.0,-41.0,-32.0,-7.0,-18.0,-22.0,-4.0
1705334831.730306,-26.0,13.0,14.0,-3.0,1.0,2.0,1.0,-29.0
1705334831.730306,4.0,-8.0,14.0,-1.0,0.0,8.0,4.0,10.0
1705334831.7500017,14.0,-48.0,-22.0,-3.0,3.0,39.0,38.0,23.0
1705334831.7500017,7.0,7.0,30.0,27.0,4.0,-1.0,2.0,22.0
1705334831.7500017,4.0,-20.0,-16.0,-18.0,-7.0,-4.0,25.0,0.0
1705334831.7500017,-11.0,26.0,1.0,-1.0,1.0,-10.0,-32.0,-7.0
1705334831.7602317,2.0,-31.0,-8.0,4.0,-4.0,-9.0,19.0,4.0
1705334831.7602317,1.0,19.0,-13.0,-13.0,-3.0,-2.0,-20.0,-14.0
1705334831.770006,-5.0,-6.0,7.0,-17.0,-6.0,1.0,-8.0,10.0
1705334831.770006,-12.0,22.0,8.0,17.0,-2.0,-5.0,-1.0,-23.0
1705334831.7802641,3.0,-5.0,9.0,12.0,7.0,-1.0,-10.0,-2.0
1705334831.7802641,9.0,-40.0,-3.0,0.0,17.0,6.0,9.0,-5.0
1705334831.7802641,-6.0,2.0,-29.0,14.0,1.0,-3.0,-4.0,24.0
1705334831.7900534,-16.0,23.0,1.0,-5.0,-12.0,-4.0,0.0,-9.0
1705334831.8221836,-1.0,15.0,-1.0,-29.0,-12.0,-12.0,-7.0,-8.0
1705334831.8221836,-2.0,6.0,-4.0,-11.0,-9.0,-2.0,2.0,0.0
1705334831.8221836,11.0,-4.0,-2.0,-4.0,17.0,8.0,-2.0,16.0
1705334831.8221836,-4.0,-30.0,6.0,19.0,2.0,0.0,4.0,-8.0
1705334831.8221836,-5.0,10.0,6.0,-1.0,-1.0,-3.0,-3.0,-9.0
1705334831.8221836,-1.0,5.0,-3.0,-5.0,-6.0,-2.0,-3.0,-6.0
1705334831.8321857,3.0,1.0,3.0,-3.0,-9.0,-1.0,-7.0,5.0
1705334831.8321857,-1.0,-11.0,4.0,7.0,9.0,2.0,6.0,-9.0
1705334831.8521874,-1.0,7.0,6.0,-1.0,-5.0,-6.0,-7.0,1.0
1705334831.8521874,-2.0,-2.0,-12.0,3.0,3.0,3.0,3.0,-2.0
1705334831.8521874,2.0,-9.0,-1.0,1.0,-4.0,-2.0,-1.0,5.0
1705334831.8521874,-8.0,12.0,-6.0,-4.0,-8.0,-4.0,1.0,-5.0
1705334831.8622134,-4.0,-9.0,3.0,-20.0,0.0,-3.0,-5.0,-2.0
1705334831.8622134,2.0,-24.0,-2.0,-6.0,1.0,2.0,-3.0,-1.0
1705334831.8622134,0.0,0.0,3.0,5.0,1.0,-1.0,-2.0,1.0
1705334831.8622134,-4.0,8.0,-26.0,9.0,-2.0,-4.0,2.0,-3.0
1705334831.8808906,1.0,-17.0,-2.0,-8.0,3.0,-4.0,-6.0,-1.0
1705334831.8808906,0.0,3.0,-6.0,0.0,-4.0,-2.0,-2.0,-3.0
1705334831.8913918,4.0,-4.0,29.0,-1.0,-4.0,-2.0,-4.0,4.0
1705334831.8913918,-10.0,37.0,-3.0,-9.0,-1.0,0.0,1.0,-4.0
1705334831.9017591,-6.0,-19.0,5.0,14.0,-9.0,-3.0,-2.0,-2.0
1705334831.9017591,-1.0,-10.0,-16.0,5.0,1.0,-1.0,-3.0,-1.0
1705334831.9017591,3.0,9.0,-8.0,-3.0,0.0,-2.0,-1.0,3.0
1705334831.9017591,3.0,-12.0,15.0,-7.0,-3.0,0.0,-1.0,0.0
1705334831.9214036,-5.0,-20.0,-8.0,-9.0,-6.0,-3.0,-7.0,-5.0
1705334831.9214036,3.0,16.0,46.0,22.0,0.0,4.0,2.0,-2.0
1705334831.9314096,-8.0,2.0,-51.0,-8.0,2.0,-3.0,-4.0,0.0
1705334831.9314096,1.0,-29.0,-21.0,-22.0,-5.0,-5.0,-3.0,-5.0
1705334831.9417257,-2.0,-20.0,13.0,8.0,0.0,-1.0,-4.0,-2.0
1705334831.9417257,-5.0,20.0,5.0,7.0,-8.0,-3.0,1.0,-2.0
1705334831.951531,-6.0,-2.0,1.0,-16.0,-6.0,1.0,0.0,-1.0
1705334831.951531,1.0,11.0,30.0,21.0,5.0,-2.0,-2.0,-1.0
1705334831.9714038,10.0,-67.0,-13.0,-10.0,7.0,1.0,-1.0,1.0
1705334831.9714038,-7.0,49.0,2.0,17.0,-7.0,-1.0,0.0,-3.0
1705334831.9714038,-5.0,-11.0,11.0,3.0,4.0,-2.0,0.0,5.0
1705334831.9714038,-16.0,-14.0,-21.0,-18.0,-4.0,1.0,-2.0,-7.0
1705334831.9811614,-2.0,3.0,4.0,-1.0,-2.0,-3.0,-2.0,-2.0
1705334831.9911797,9.0,-15.0,-11.0,-8.0,-2.0,-2.0,-4.0,-7.0
1705334831.9911797,2.0,0.0,6.0,8.0,2.0,-2.0,-2.0,-8.0
1705334831.9911797,7.0,-4.0,0.0,-8.0,-1.0,3.0,4.0,13.0
1705334832.0014603,-8.0,13.0,5.0,13.0,2.0,-2.0,-5.0,-41.0
1705334832.0014603,-10.0,-21.0,-16.0,-17.0,2.0,-1.0,0.0,10.0
1705334832.0114417,4.0,17.0,-4.0,12.0,-2.0,1.0,3.0,18.0
1705334832.0114417,-2.0,-12.0,7.0,-2.0,1.0,-4.0,-5.0,-13.0
1705334832.041173,9.0,19.0,0.0,2.0,1.0,1.0,6.0,16.0
1705334832.041173,-13.0,7.0,-14.0,-7.0,0.0,-1.0,-2.0,-15.0
1705334832.041173,6.0,-5.0,5.0,-2.0,-5.0,-2.0,-2.0,10.0
1705334832.041173,4.0,-1.0,4.0,-4.0,-1.0,4.0,-2.0,-13.0
1705334832.041173,-10.0,14.0,-5.0,5.0,-1.0,-2.0,4.0,9.0
1705334832.041173,16.0,-13.0,-1.0,-1.0,-2.0,-3.0,-2.0,-3.0
1705334832.051198,-13.0,4.0,0.0,3.0,-1.0,-1.0,-4.0,-7.0
1705334832.051198,3.0,-3.0,-7.0,-4.0,3.0,6.0,7.0,1.0
1705334832.0615401,-7.0,14.0,3.0,4.0,-5.0,-9.0,-15.0,-5.0
1705334832.0615401,4.0,-20.0,-12.0,0.0,2.0,11.0,14.0,1.0
1705334832.0711741,-7.0,-2.0,2.0,-1.0,-4.0,-13.0,-4.0,-4.0
1705334832.0711741,7.0,0.0,-1.0,-6.0,0.0,-15.0,0.0,-4.0
1705334832.081172,7.0,6.0,-8.0,-6.0,1.0,41.0,-4.0,3.0
1705334832.081172,4.0,-5.0,-16.0,1.0,2.0,-10.0,0.0,-1.0
1705334832.081172,9.0,-11.0,0.0,-15.0,-2.0,11.0,2.0,0.0
1705334832.081172,1.0,-2.0,29.0,5.0,-5.0,-12.0,2.0,10.0
1705334832.1015542,-8.0,8.0,0.0,8.0,0.0,-14.0,-3.0,-6.0
1705334832.1015542,-6.0,5.0,-15.0,-4.0,-1.0,-4.0,2.0,6.0
1705334832.1111748,-2.0,-2.0,-8.0,-9.0,-2.0,0.0,-10.0,-10.0
1705334832.1111748,6.0,-12.0,-8.0,5.0,1.0,-2.0,-9.0,-21.0
1705334832.1311734,13.0,10.0,14.0,2.0,2.0,13.0,11.0,20.0
1705334832.1311734,-15.0,-6.0,-4.0,-3.0,-2.0,2.0,-1.0,4.0
1705334832.1311734,5.0,-6.0,-6.0,-1.0,1.0,-4.0,3.0,1.0
1705334832.1311734,1.0,0.0,11.0,1.0,0.0,-1.0,-1.0,3.0
1705334832.1412065,3.0,-24.0,-3.0,8.0,1.0,-10.0,-1.0,-1.0
1705334832.1412065,-8.0,11.0,-10.0,-9.0,-4.0,2.0,-3.0,-3.0
1705334832.1412065,-1.0,-7.0,9.0,-1.0,-3.0,-10.0,-6.0,-2.0
1705334832.1412065,-3.0,5.0,-8.0,-4.0,-1.0,9.0,0.0,8.0
1705334832.1615822,-1.0,5.0,-23.0,1.0,-1.0,-2.0,2.0,-15.0
1705334832.1615822,2.0,-15.0,15.0,2.0,-1.0,-11.0,-8.0,11.0
1705334832.1711743,0.0,-1.0,-12.0,-8.0,1.0,19.0,13.0,-15.0
1705334832.1711743,-2.0,1.0,0.0,-2.0,-3.0,-5.0,-4.0,0.0
1705334832.1911728,-13.0,2.0,9.0,3.0,-2.0,-10.0,-4.0,3.0
1705334832.1911728,1.0,-3.0,-1.0,-7.0,-5.0,-13.0,-7.0,-7.0
1705334832.1911728,0.0,15.0,3.0,19.0,4.0,11.0,-2.0,0.0
1705334832.1911728,1.0,21.0,7.0,-10.0,-8.0,5.0,5.0,6.0
1705334832.2012064,-1.0,-5.0,-21.0,-8.0,8.0,-4.0,3.0,-2.0
1705334832.2012064,7.0,52.0,9.0,-9.0,0.0,1.0,-4.0,1.0
1705334832.2012064,-7.0,-17.0,-8.0,7.0,0.0,-11.0,-6.0,-1.0
1705334832.2012064,2.0,-41.0,9.0,2.0,-1.0,0.0,-2.0,2.0
1705334832.2214308,-10.0,29.0,6.0,-3.0,-12.0,-12.0,-7.0,-2.0
1705334832.2311802,2.0,-3.0,8.0,8.0,0.0,4.0,1.0,-3.0
1705334832.2311802,-2.0,0.0,-50.0,-10.0,-5.0,-1.0,4.0,7.0
1705334832.2311802,-13.0,41.0,1.0,-21.0,-11.0,-6.0,-8.0,-7.0
1705334832.2711723,-4.0,-23.0,3.0,12.0,4.0,-5.0,-1.0,-2.0
1705334832.2711723,0.0,-29.0,14.0,11.0,5.0,4.0,0.0,1.0
1705334832.2711723,2.0,27.0,21.0,6.0,-4.0,-4.0,-4.0,-3.0
1705334832.2711723,-5.0,-20.0,-20.0,-4.0,0.0,0.0,0.0,4.0
1705334832.2711723,3.0,6.0,2.0,-5.0,1.0,-2.0,-3.0,1.0
1705334832.2711723,-1.0,0.0,-4.0,-8.0,-5.0,-2.0,0.0,-5.0
1705334832.2711723,-1.0,-10.0,11.0,12.0,0.0,-4.0,-4.0,-1.0
1705334832.2711723,-3.0,0.0,-11.0,6.0,4.0,9.0,2.0,-3.0
1705334832.2812061,-1.0,1.0,5.0,5.0,-3.0,0.0,3.0,2.0
1705334832.2812061,-1.0,-1.0,-5.0,-8.0,-2.0,-11.0,-4.0,-3.0
1705334832.2911851,12.0,15.0,12.0,-6.0,1.0,23.0,3.0,1.0
1705334832.2911851,-16.0,-11.0,-14.0,0.0,0.0,-10.0,-6.0,-3.0
1705334832.3115013,-2.0,-4.0,1.0,-3.0,-4.0,-8.0,-6.0,-4.0
1705334832.3115013,-9.0,-18.0,-34.0,-17.0,-3.0,1.0,3.0,-6.0
1705334832.3115013,3.0,-1.0,4.0,-4.0,1.0,-13.0,-3.0,15.0
1705334832.3115013,8.0,-23.0,47.0,17.0,2.0,3.0,-7.0,7.0
1705334832.326901,9.0,81.0,0.0,10.0,-2.0,-2.0,4.0,6.0
1705334832.326901,-5.0,-4.0,-26.0,-6.0,-4.0,-3.0,-12.0,-1.0
1705334832.333842,-22.0,-49.0,-28.0,-6.0,-1.0,4.0,6.0,-16.0
1705334832.333842,13.0,13.0,-6.0,-10.0,1.0,-2.0,1.0,2.0
1705334832.3499377,-11.0,-8.0,-1.0,-11.0,-5.0,-14.0,-14.0,-1.0
1705334832.3499377,2.0,-10.0,23.0,15.0,4.0,8.0,15.0,-7.0
1705334832.3508303,2.0,8.0,26.0,-5.0,-2.0,-3.0,0.0,3.0
1705334832.3508303,25.0,0.0,-16.0,-7.0,0.0,-3.0,-1.0,14.0
1705334832.3669636,-2.0,-4.0,-9.0,-4.0,-3.0,-8.0,-6.0,0.0
1705334832.3669636,-19.0,-12.0,-3.0,8.0,1.0,7.0,1.0,-3.0
1705334832.3669636,9.0,-2.0,-6.0,-1.0,-1.0,6.0,-1.0,-2.0
1705334832.3669636,-3.0,13.0,16.0,4.0,2.0,4.0,3.0,0.0
1705334832.3869858,1.0,-25.0,6.0,1.0,-2.0,1.0,3.0,-11.0
1705334832.3869858,11.0,-2.0,2.0,3.0,0.0,-10.0,-7.0,28.0
1705334832.3869858,-13.0,0.0,6.0,2.0,-2.0,-5.0,-5.0,-7.0
1705334832.3869858,-5.0,-20.0,-20.0,-1.0,0.0,1.0,-1.0,-7.0
1705334832.4069338,8.0,-1.0,0.0,-9.0,0.0,1.0,2.0,2.0
1705334832.4069338,-14.0,-9.0,-20.0,-3.0,-5.0,-7.0,-7.0,-26.0
1705334832.4069338,-5.0,-14.0,-5.0,5.0,2.0,0.0,1.0,-2.0
1705334832.4069338,2.0,13.0,-7.0,-6.0,-3.0,-9.0,-2.0,20.0
1705334832.4272172,-6.0,-39.0,4.0,-2.0,-1.0,2.0,-11.0,-7.0
1705334832.4272172,15.0,-9.0,19.0,5.0,1.0,21.0,21.0,10.0
1705334832.4272172,7.0,-17.0,2.0,4.0,3.0,-7.0,-6.0,-23.0
1705334832.4272172,-5.0,28.0,2.0,3.0,-2.0,-11.0,-5.0,-13.0
1705334832.4469934,-9.0,-1.0,-6.0,1.0,1.0,11.0,2.0,3.0
1705334832.4469934,1.0,11.0,4.0,0.0,0.0,0.0,0.0,0.0
1705334832.4469934,-3.0,-4.0,0.0,-1.0,-1.0,-12.0,-5.0,1.0
1705334832.4469934,-7.0,-10.0,-9.0,-1.0,-2.0,8.0,1.0,-7.0
1705334832.4669304,10.0,11.0,0.0,-5.0,-1.0,-4.0,1.0,-4.0
1705334832.4669304,-6.0,8.0,-2.0,-4.0,-3.0,1.0,-8.0,23.0
1705334832.4669304,-4.0,4.0,-3.0,1.0,0.0,-2.0,6.0,-1.0
1705334832.4669304,-4.0,16.0,0.0,-3.0,-3.0,-11.0,-10.0,0.0
1705334832.4873495,-4.0,-5.0,8.0,2.0,1.0,10.0,10.0,4.0
1705334832.4873495,3.0,-23.0,0.0,-4.0,-4.0,-7.0,-8.0,-10.0
1705334832.4873495,-15.0,22.0,-4.0,-4.0,-2.0,-16.0,9.0,4.0
1705334832.4873495,-3.0,-7.0,-3.0,2.0,1.0,13.0,-9.0,-4.0
1705334832.506997,9.0,-17.0,-7.0,3.0,1.0,-3.0,1.0,5.0
1705334832.506997,3.0,18.0,14.0,3.0,3.0,16.0,4.0,-9.0
1705334832.506997,-6.0,3.0,-3.0,-10.0,-7.0,-5.0,-1.0,1.0
1705334832.506997,-1.0,-10.0,-13.0,-3.0,-3.0,-12.0,-7.0,-10.0
1705334832.5269303,-4.0,-4.0,-3.0,-3.0,-3.0,-2.0,1.0,2.0
1705334832.5269303,7.0,-15.0,25.0,8.0,4.0,-3.0,-5.0,-1.0
1705334832.5269303,5.0,-3.0,-3.0,-2.0,-2.0,-1.0,-11.0,10.0
1705334832.5269303,-35.0,27.0,-14.0,-9.0,-3.0,8.0,14.0,-22.0
1705334832.5473459,5.0,-23.0,-8.0,10.0,5.0,-2.0,-3.0,1.0
1705334832.5473459,0.0,-20.0,-4.0,-11.0,-2.0,-5.0,-1.0,-6.0
1705334832.5473459,14.0,-2.0,-3.0,8.0,-2.0,1.0,-2.0,6.0
1705334832.5473459,5.0,-18.0,21.0,12.0,3.0,-3.0,-1.0,5.0
1705334832.5669324,-3.0,19.0,33.0,-11.0,-4.0,-3.0,3.0,2.0
1705334832.5669324,1.0,-2.0,-25.0,-2.0,-4.0,-3.0,-2.0,-7.0
1705334832.5669324,6.0,10.0,-17.0,-3.0,9.0,16.0,9.0,5.0
1705334832.5669324,3.0,45.0,-17.0,-10.0,1.0,1.0,4.0,0.0
1705334832.5869305,4.0,14.0,49.0,31.0,-2.0,-3.0,-8.0,4.0
1705334832.5869305,-11.0,6.0,-46.0,-29.0,-3.0,-3.0,-3.0,-3.0
1705334832.5869305,2.0,7.0,16.0,-2.0,-3.0,-1.0,-1.0,1.0
1705334832.5869305,-3.0,-39.0,-6.0,5.0,2.0,1.0,2.0,-3.0
1705334832.6071908,-10.0,-7.0,-3.0,0.0,-4.0,-3.0,-6.0,-2.0
1705334832.6071908,-10.0,27.0,17.0,7.0,-1.0,-6.0,-2.0,9.0
1705334832.6071908,8.0,3.0,-9.0,7.0,0.0,-4.0,-4.0,-6.0
1705334832.6071908,4.0,-33.0,-14.0,-4.0,5.0,9.0,8.0,-3.0
1705334832.617125,5.0,7.0,-29.0,-17.0,-1.0,5.0,9.0,-1.0
1705334832.617125,-8.0,22.0,12.0,4.0,-6.0,-12.0,-10.0,-10.0
1705334832.6269407,-3.0,-4.0,13.0,3.0,1.0,7.0,8.0,12.0
1705334832.6269407,-3.0,-11.0,15.0,-2.0,-3.0,-26.0,-17.0,5.0
1705334832.6470914,0.0,-5.0,-17.0,-10.0,4.0,61.0,31.0,-6.0
1705334832.6470914,9.0,1.0,-9.0,0.0,-1.0,-10.0,-4.0,-17.0
1705334832.6470914,0.0,19.0,-4.0,-12.0,-11.0,-14.0,-12.0,7.0
1705334832.6470914,6.0,-3.0,0.0,0.0,-5.0,-31.0,-11.0,1.0
1705334832.6672451,0.0,20.0,-10.0,-6.0,-5.0,-8.0,4.0,-4.0
1705334832.6672451,-21.0,0.0,3.0,3.0,-2.0,-16.0,-4.0,-15.0
1705334832.6672451,6.0,6.0,13.0,8.0,3.0,17.0,18.0,-1.0
1705334832.6672451,-5.0,-22.0,1.0,-3.0,1.0,8.0,8.0,2.0
1705334832.686955,4.0,13.0,-9.0,1.0,6.0,-3.0,-10.0,1.0
1705334832.686955,25.0,13.0,22.0,11.0,6.0,12.0,12.0,-9.0
1705334832.686955,-6.0,-12.0,-1.0,2.0,-8.0,-24.0,-18.0,-8.0
1705334832.686955,-3.0,23.0,-1.0,-21.0,-7.0,-2.0,-2.0,-3.0
1705334832.7072458,-7.0,-6.0,25.0,-7.0,3.0,-17.0,-13.0,-4.0
1705334832.7072458,3.0,15.0,-73.0,-10.0,-3.0,-4.0,-8.0,17.0
1705334832.7072458,-6.0,14.0,15.0,-1.0,-6.0,0.0,-4.0,-7.0
1705334832.7072458,3.0,-29.0,4.0,2.0,-3.0,10.0,3.0,-3.0
1705334832.7269747,1.0,-23.0,13.0,7.0,-8.0,-13.0,-8.0,-2.0
1705334832.7269747,3.0,-9.0,31.0,6.0,6.0,6.0,3.0,8.0
1705334832.7269747,-14.0,13.0,-71.0,-18.0,0.0,0.0,-5.0,-7.0
1705334832.7269747,-1.0,-26.0,27.0,3.0,-1.0,12.0,8.0,5.0
1705334832.7669663,-4.0,6.0,-5.0,-12.0,-10.0,-12.0,-8.0,-29.0
1705334832.7669663,-7.0,27.0,-39.0,-2.0,-10.0,-7.0,-6.0,44.0
1705334832.7669663,5.0,-24.0,3.0,-29.0,-4.0,4.0,3.0,-14.0
1705334832.7669663,0.0,-4.0,8.0,16.0,5.0,3.0,-3.0,34.0
1705334832.7669663,-2.0,4.0,15.0,-2.0,2.0,-4.0,-3.0,-22.0
1705334832.7669663,8.0,-21.0,30.0,-10.0,-3.0,3.0,0.0,-15.0
1705334832.7669663,17.0,37.0,57.0,45.0,11.0,1.0,0.0,15.0
1705334832.7669663,1.0,7.0,-29.0,1.0,-1.0,3.0,3.0,-4.0
1705334832.7869709,-12.0,0.0,-31.0,-14.0,-4.0,-8.0,12.0,2.0
1705334832.7869709,8.0,-1.0,-29.0,13.0,1.0,5.0,-19.0,-7.0
1705334832.7869709,-13.0,-34.0,31.0,-31.0,-2.0,1.0,3.0,2.0
1705334832.7869709,6.0,-17.0,-25.0,4.0,-1.0,-6.0,-6.0,-4.0
1705334832.8069668,20.0,42.0,17.0,10.0,3.0,-7.0,-4.0,17.0
1705334832.8069668,-5.0,-25.0,-16.0,-8.0,3.0,25.0,18.0,-61.0
1705334832.8069668,-2.0,-25.0,-13.0,3.0,1.0,2.0,-6.0,35.0
1705334832.8069668,-20.0,8.0,19.0,6.0,-1.0,-2.0,-4.0,-2.0
1705334832.8272374,-6.0,-28.0,-10.0,3.0,-2.0,2.0,0.0,14.0
1705334832.8272374,7.0,-6.0,3.0,-12.0,-5.0,-23.0,-2.0,-20.0
1705334832.8272374,-42.0,8.0,-10.0,-3.0,-2.0,2.0,-14.0,-20.0
1705334832.8272374,6.0,-7.0,-10.0,-4.0,1.0,3.0,8.0,-6.0
1705334832.84724,8.0,2.0,-6.0,6.0,2.0,8.0,10.0,10.0
1705334832.84724,-13.0,-32.0,10.0,-2.0,-1.0,0.0,9.0,17.0
1705334832.84724,7.0,-15.0,6.0,5.0,1.0,-2.0,-3.0,-9.0
1705334832.84724,-4.0,40.0,-14.0,-7.0,-5.0,-12.0,0.0,-5.0
1705334832.8879113,-13.0,-13.0,-8.0,4.0,3.0,17.0,7.0,-5.0
1705334832.8879113,5.0,26.0,31.0,9.0,0.0,-3.0,-6.0,17.0
1705334832.8879113,12.0,-9.0,-7.0,-13.0,-5.0,-11.0,2.0,-2.0
1705334832.8879113,-10.0,-26.0,5.0,4.0,-5.0,-2.0,-6.0,-12.0
1705334832.8879113,-10.0,-5.0,-35.0,-19.0,-10.0,-13.0,-13.0,-1.0
1705334832.8879113,-10.0,0.0,-16.0,6.0,10.0,5.0,0.0,-1.0
1705334832.8879113,3.0,-7.0,-5.0,-5.0,1.0,-1.0,-2.0,-13.0
1705334832.8879113,8.0,6.0,10.0,3.0,0.0,4.0,4.0,-1.0
1705334832.9172978,-7.0,-37.0,-2.0,-5.0,-2.0,-5.0,-8.0,-4.0
1705334832.9172978,-8.0,25.0,20.0,3.0,-3.0,-3.0,0.0,12.0
1705334832.9172978,2.0,49.0,-8.0,11.0,-6.0,-2.0,-4.0,-4.0
1705334832.9172978,6.0,-39.0,-4.0,-18.0,2.0,0.0,-1.0,-1.0
1705334832.9172978,1.0,44.0,-13.0,4.0,3.0,-1.0,-1.0,4.0
1705334832.9172978,-2.0,3.0,16.0,-8.0,-5.0,-4.0,-14.0,0.0
1705334832.9276252,-1.0,-19.0,21.0,13.0,1.0,2.0,5.0,2.0
1705334832.9276252,2.0,7.0,-13.0,4.0,2.0,9.0,6.0,-4.0
1705334832.9473066,-4.0,-6.0,36.0,6.0,4.0,-4.0,-4.0,-11.0
1705334832.9473066,-16.0,1.0,-64.0,-7.0,-1.0,-11.0,-6.0,5.0
1705334832.9473066,-8.0,-21.0,-2.0,10.0,2.0,1.0,-2.0,-6.0
1705334832.9473066,1.0,6.0,51.0,21.0,-2.0,0.0,-3.0,3.0
1705334832.977304,-4.0,-20.0,-36.0,-35.0,-10.0,-11.0,-9.0,-1.0
1705334832.977304,16.0,-3.0,-5.0,-5.0,4.0,7.0,3.0,7.0
1705334832.977304,-1.0,-1.0,0.0,-13.0,-5.0,-3.0,0.0,-3.0
1705334832.977304,-11.0,-2.0,8.0,6.0,6.0,1.0,3.0,-15.0
1705334832.977304,-25.0,25.0,-28.0,21.0,1.0,2.0,-1.0,-6.0
1705334832.977304,22.0,-13.0,41.0,-13.0,-8.0,-2.0,4.0,11.0
1705334832.987374,2.0,-8.0,-39.0,-12.0,-6.0,-11.0,0.0,-18.0
1705334832.987374,-3.0,12.0,-5.0,7.0,7.0,34.0,27.0,0.0
1705334833.0076387,34.0,12.0,3.0,-15.0,-6.0,-36.0,-16.0,-3.0
1705334833.0076387,-16.0,-11.0,-6.0,9.0,-2.0,-5.0,-1.0,31.0
1705334833.0076387,12.0,9.0,32.0,8.0,7.0,5.0,-4.0,-57.0
1705334833.017158,-5.0,14.0,4.0,2.0,-9.0,-2.0,7.0,2.0
1705334833.0471725,-7.0,-23.0,-18.0,-7.0,-3.0,-6.0,8.0,-1.0
1705334833.0471725,11.0,9.0,-5.0,-6.0,3.0,-1.0,-43.0,-19.0
1705334833.0471725,5.0,14.0,15.0,0.0,-3.0,-19.0,4.0,59.0
1705334833.0471725,-5.0,-10.0,-31.0,-7.0,-1.0,7.0,-2.0,-10.0
1705334833.0471725,10.0,-3.0,13.0,15.0,8.0,22.0,8.0,2.0
1705334833.0471725,6.0,-18.0,18.0,4.0,-4.0,-6.0,9.0,4.0
1705334833.0471725,-18.0,24.0,-21.0,-20.0,-10.0,10.0,-11.0,-4.0
1705334833.0471725,7.0,-32.0,29.0,19.0,6.0,-7.0,-13.0,-6.0
1705334833.0675545,-9.0,-35.0,-23.0,-24.0,-3.0,-4.0,-9.0,8.0
1705334833.0675545,8.0,10.0,25.0,19.0,-5.0,-7.0,-4.0,-7.0
1705334833.0675545,-2.0,-12.0,4.0,1.0,12.0,12.0,10.0,4.0
1705334833.0675545,-9.0,35.0,-57.0,-20.0,-9.0,-14.0,-2.0,2.0
1705334833.097172,6.0,-16.0,25.0,2.0,-4.0,2.0,-3.0,2.0
1705334833.097172,-21.0,-5.0,-8.0,2.0,0.0,0.0,7.0,-10.0
1705334833.097172,11.0,-12.0,18.0,-6.0,0.0,5.0,8.0,6.0
1705334833.097172,26.0,-42.0,7.0,-9.0,-3.0,-7.0,-10.0,9.0
1705334833.1074169,-21.0,67.0,9.0,-16.0,-6.0,0.0,-8.0,-6.0
1705334833.1074169,-6.0,-25.0,-52.0,-21.0,-7.0,6.0,12.0,-6.0
1705334833.1171763,-2.0,9.0,-5.0,43.0,4.0,-4.0,-3.0,0.0
1705334833.1171763,4.0,-22.0,-12.0,-22.0,-10.0,-12.0,-12.0,0.0
1705334833.127179,-11.0,-31.0,-5.0,-1.0,2.0,8.0,5.0,-9.0
1705334833.127179,-8.0,-11.0,20.0,-19.0,0.0,2.0,6.0,3.0
1705334833.127179,3.0,-5.0,-6.0,3.0,-1.0,-5.0,-2.0,0.0
1705334833.127179,-5.0,16.0,-6.0,3.0,-3.0,-2.0,-5.0,-4.0
1705334833.1471722,9.0,-24.0,4.0,13.0,0.0,6.0,9.0,12.0
1705334833.1471722,-5.0,52.0,26.0,-2.0,-3.0,-2.0,-5.0,-5.0
1705334833.1471722,-4.0,-40.0,-24.0,-22.0,1.0,-5.0,3.0,12.0
1705334833.1471722,-2.0,37.0,14.0,7.0,-1.0,0.0,-7.0,-1.0
1705334833.1675825,14.0,-16.0,7.0,19.0,2.0,-12.0,-14.0,-12.0
1705334833.1675825,-29.0,-27.0,-18.0,9.0,8.0,14.0,-1.0,-4.0
1705334833.1675825,10.0,1.0,0.0,-2.0,-7.0,-7.0,-9.0,-8.0
1705334833.1675825,19.0,35.0,34.0,-5.0,-4.0,-32.0,-14.0,11.0
1705334833.1872172,-21.0,-11.0,-23.0,9.0,10.0,47.0,22.0,-2.0
1705334833.1872172,10.0,-35.0,-15.0,-9.0,-2.0,10.0,13.0,10.0
1705334833.1971712,-24.0,12.0,2.0,7.0,-1.0,1.0,1.0,-15.0
1705334833.1971712,-5.0,36.0,24.0,-4.0,-7.0,-20.0,-13.0,3.0
1705334833.207221,-5.0,-29.0,-11.0,-1.0,-2.0,-27.0,-14.0,0.0
1705334833.207221,5.0,17.0,27.0,11.0,0.0,1.0,6.0,4.0
1705334833.207221,8.0,-8.0,-5.0,-7.0,-1.0,4.0,-6.0,12.0
1705334833.207221,-2.0,-6.0,-4.0,3.0,7.0,9.0,16.0,20.0
1705334833.2274437,12.0,12.0,-10.0,11.0,-1.0,-2.0,-12.0,0.0
1705334833.2274437,-22.0,12.0,0.0,1.0,3.0,2.0,8.0,-26.0
1705334833.2371764,11.0,-8.0,2.0,-20.0,-9.0,-5.0,8.0,19.0
1705334833.2371764,-4.0,-14.0,-25.0,0.0,5.0,32.0,-7.0,7.0
1705334833.2472374,-5.0,-3.0,-3.0,-9.0,-2.0,0.0,11.0,-11.0
1705334833.2472374,6.0,-1.0,20.0,9.0,-3.0,-11.0,-6.0,6.0
1705334833.2671733,-9.0,21.0,4.0,0.0,-7.0,-20.0,-20.0,-12.0
1705334833.2671733,-9.0,-6.0,-2.0,-11.0,1.0,-6.0,5.0,-9.0
1705334833.2671733,3.0,-15.0,-11.0,-3.0,-1.0,11.0,-1.0,2.0
1705334833.2671733,-7.0,-24.0,2.0,9.0,4.0,4.0,0.0,3.0
1705334833.2671733,-9.0,19.0,6.0,10.0,4.0,1.0,7.0,-2.0
1705334833.2671733,-2.0,-31.0,-12.0,-10.0,-8.0,-5.0,-3.0,-15.0
1705334833.2874258,1.0,2.0,19.0,7.0,3.0,-17.0,-5.0,18.0
1705334833.2874258,15.0,33.0,28.0,0.0,-6.0,-15.0,-13.0,-5.0
1705334833.2971766,10.0,-24.0,-54.0,-4.0,4.0,35.0,20.0,3.0
1705334833.2971766,-7.0,-26.0,0.0,-10.0,-1.0,-1.0,3.0,2.0
1705334833.3171701,5.0,17.0,8.0,3.0,-3.0,-5.0,-3.0,-7.0
1705334833.3171701,18.0,-36.0,-1.0,-12.0,0.0,4.0,6.0,-1.0
1705334833.3171701,-19.0,59.0,2.0,19.0,-2.0,-7.0,-10.0,-8.0
1705334833.3171701,4.0,11.0,39.0,13.0,-4.0,-3.0,-8.0,-3.0
1705334833.3272347,-6.0,15.0,22.0,-2.0,-5.0,-5.0,-5.0,-2.0
1705334833.3272347,4.0,3.0,-24.0,-6.0,-1.0,-3.0,-2.0,-5.0
1705334833.3272347,24.0,43.0,-2.0,-11.0,4.0,6.0,6.0,17.0
1705334833.3272347,-5.0,-3.0,-23.0,14.0,10.0,9.0,2.0,-7.0
1705334833.3474944,5.0,37.0,11.0,-3.0,-7.0,-28.0,-5.0,-23.0
1705334833.3474944,-1.0,8.0,43.0,-1.0,-1.0,24.0,13.0,3.0
1705334833.3474944,-27.0,-47.0,-11.0,3.0,2.0,-8.0,-6.0,-26.0
1705334833.3474944,-17.0,-1.0,-22.0,-8.0,-8.0,-2.0,-3.0,-2.0
1705334833.3671708,21.0,-17.0,20.0,32.0,-3.0,-2.0,5.0,-15.0
1705334833.3671708,-10.0,68.0,-16.0,-33.0,-11.0,-27.0,-25.0,6.0
1705334833.3671708,-4.0,1.0,1.0,-7.0,-5.0,-3.0,8.0,-8.0
1705334833.377184,2.0,-35.0,-10.0,-4.0,3.0,9.0,-6.0,-16.0
1705334833.3927693,7.0,-27.0,-22.0,-14.0,3.0,-1.0,-2.0,45.0
1705334833.3927693,-3.0,-1.0,-19.0,-6.0,-4.0,3.0,9.0,-8.0
1705334833.394838,-13.0,-25.0,32.0,12.0,-1.0,9.0,-4.0,-12.0
1705334833.394838,17.0,35.0,6.0,7.0,4.0,1.0,-7.0,-5.0
1705334833.4147031,-17.0,-6.0,-1.0,7.0,5.0,12.0,8.0,5.0
1705334833.4147031,10.0,-50.0,20.0,12.0,5.0,-13.0,-3.0,-17.0
1705334833.4147031,-3.0,5.0,-43.0,-17.0,-6.0,-12.0,-14.0,15.0
1705334833.4147031,0.0,1.0,9.0,-8.0,-7.0,-8.0,-4.0,1.0
1705334833.4345305,-7.0,32.0,5.0,-8.0,-5.0,-3.0,-6.0,-5.0
1705334833.4345305,4.0,-38.0,-15.0,4.0,5.0,15.0,10.0,0.0
1705334833.4345305,8.0,13.0,4.0,7.0,2.0,-12.0,-6.0,-15.0
1705334833.4345305,-6.0,-8.0,15.0,20.0,-4.0,6.0,2.0,3.0
1705334833.4446335,0.0,16.0,-10.0,-30.0,-7.0,-6.0,-3.0,4.0
1705334833.4446335,-1.0,6.0,-27.0,3.0,5.0,-13.0,-12.0,-4.0
1705334833.4446335,-9.0,-27.0,41.0,8.0,-2.0,15.0,7.0,8.0
1705334833.4446335,10.0,-1.0,-36.0,-18.0,2.0,-4.0,-1.0,4.0
1705334833.4747539,-3.0,1.0,-2.0,-8.0,-5.0,-7.0,-19.0,-6.0
1705334833.4747539,-1.0,-17.0,-15.0,4.0,-1.0,20.0,21.0,6.0
1705334833.4747539,3.0,22.0,15.0,-2.0,-1.0,-6.0,-1.0,2.0
1705334833.4747539,-5.0,3.0,3.0,6.0,-7.0,-9.0,1.0,-7.0
1705334833.4845288,-14.0,13.0,-3.0,-16.0,-1.0,-1.0,-4.0,-8.0
1705334833.4845288,8.0,-3.0,11.0,16.0,1.0,-6.0,-7.0,4.0
1705334833.4948971,-4.0,-7.0,-21.0,-12.0,0.0,1.0,0.0,-2.0
1705334833.4948971,-9.0,6.0,-42.0,-12.0,-6.0,0.0,11.0,-3.0
1705334833.504991,9.0,12.0,20.0,3.0,-6.0,0.0,-4.0,3.0
1705334833.504991,5.0,15.0,-38.0,7.0,0.0,-1.0,-5.0,-4.0
1705334833.504991,-20.0,0.0,36.0,-3.0,5.0,6.0,5.0,1.0
1705334833.504991,-14.0,-23.0,-9.0,-1.0,4.0,-1.0,-4.0,-2.0
1705334833.5348449,26.0,42.0,4.0,1.0,4.0,8.0,9.0,7.0
1705334833.5348449,-6.0,-1.0,42.0,12.0,-6.0,-11.0,-12.0,-15.0
1705334833.5348449,11.0,-5.0,-31.0,-9.0,-5.0,-3.0,3.0,-5.0
1705334833.5348449,8.0,12.0,12.0,-4.0,-4.0,-10.0,-7.0,6.0
1705334833.5548534,-2.0,-21.0,-45.0,-16.0,-4.0,8.0,5.0,-1.0
1705334833.5548534,-12.0,-28.0,8.0,12.0,7.0,17.0,17.0,26.0
1705334833.5548534,1.0,80.0,-14.0,-13.0,-7.0,-22.0,-19.0,-8.0
1705334833.5548534,-9.0,-8.0,3.0,-12.0,-5.0,-29.0,-19.0,3.0
1705334833.5650935,-1.0,-38.0,2.0,9.0,9.0,72.0,63.0,-4.0
1705334833.5650935,2.0,-7.0,28.0,4.0,-6.0,-14.0,-13.0,-25.0
1705334833.574858,20.0,6.0,-11.0,0.0,1.0,4.0,-2.0,9.0
1705334833.574858,-25.0,-3.0,-10.0,3.0,-2.0,-11.0,-7.0,8.0
1705334833.6048522,-20.0,5.0,-7.0,-1.0,-2.0,-25.0,-23.0,-28.0
1705334833.6048522,-15.0,40.0,4.0,-5.0,-1.0,4.0,2.0,3.0
1705334833.6048522,-2.0,-34.0,19.0,13.0,-1.0,-7.0,-6.0,1.0
1705334833.6048522,19.0,40.0,8.0,-8.0,-2.0,8.0,16.0,-17.0
1705334833.6048522,10.0,-33.0,3.0,4.0,-3.0,-7.0,-16.0,8.0
1705334833.6048522,-20.0,-16.0,-68.0,-20.0,2.0,2.0,2.0,2.0
1705334833.6152647,6.0,-8.0,-21.0,2.0,-14.0,-16.0,-9.0,-11.0
1705334833.6152647,8.0,25.0,24.0,-5.0,6.0,20.0,13.0,6.0
1705334833.6252584,-12.0,-23.0,3.0,24.0,8.0,-7.0,-1.0,5.0
1705334833.6252584,1.0,18.0,-4.0,-15.0,-8.0,-17.0,-12.0,-1.0
1705334833.6252584,0.0,-46.0,3.0,4.0,1.0,5.0,4.0,-3.0
1705334833.6252584,9.0,6.0,-6.0,9.0,2.0,20.0,10.0,0.0
1705334833.6451106,-13.0,8.0,-25.0,-7.0,-10.0,-17.0,-13.0,-2.0
1705334833.6551085,-4.0,6.0,37.0,2.0,-3.0,-15.0,-16.0,-5.0
1705334833.6551085,3.0,-34.0,15.0,0.0,-2.0,3.0,2.0,14.0
1705334833.6551085,-10.0,-29.0,-1.0,6.0,1.0,12.0,18.0,-15.0
1705334833.6653366,-3.0,1.0,6.0,-1.0,1.0,2.0,-3.0,-7.0
1705334833.6653366,4.0,3.0,-25.0,-4.0,-2.0,6.0,9.0,5.0
1705334833.6753461,-5.0,-1.0,-6.0,-27.0,1.0,7.0,1.0,1.0
1705334833.6753461,3.0,-33.0,-6.0,10.0,-3.0,-14.0,-16.0,3.0
1705334833.6852787,0.0,17.0,37.0,19.0,14.0,-3.0,-3.0,-4.0
1705334833.6852787,-9.0,17.0,-28.0,-12.0,-12.0,-4.0,-2.0,1.0
1705334833.7051115,6.0,-8.0,16.0,12.0,3.0,3.0,0.0,0.0
1705334833.7051115,9.0,-9.0,-21.0,-22.0,-4.0,-3.0,-2.0,-5.0
1705334833.7051115,-2.0,6.0,-2.0,-5.0,-3.0,0.0,10.0,-2.0
1705334833.7051115,4.0,32.0,-15.0,4.0,1.0,-1.0,-12.0,31.0
1705334833.71512,4.0,-4.0,23.0,-9.0,6.0,1.0,3.0,2.0
1705334833.71512,3.0,-9.0,2.0,7.0,1.0,2.0,-1.0,-3.0
1705334833.7254345,-12.0,2.0,9.0,-14.0,-10.0,-19.0,-22.0,-22.0
1705334833.7254345,23.0,3.0,6.0,-2.0,7.0,33.0,19.0,15.0
1705334833.7354734,-13.0,3.0,7.0,18.0,-1.0,-1.0,-6.0,-5.0
1705334833.7354734,-11.0,-3.0,8.0,2.0,-1.0,11.0,19.0,1.0
1705334833.7551093,-3.0,-57.0,-23.0,4.0,3.0,7.0,-5.0,-7.0
1705334833.7551093,1.0,31.0,1.0,-19.0,-7.0,-20.0,-7.0,-14.0
1705334833.7551093,-17.0,-27.0,6.0,-4.0,-2.0,-5.0,-5.0,-9.0
1705334833.7551093,2.0,2.0,17.0,11.0,3.0,-7.0,-8.0,0.0
1705334833.7751634,-6.0,2.0,-3.0,-18.0,-6.0,-13.0,-17.0,-5.0
1705334833.7751634,6.0,-21.0,20.0,18.0,2.0,5.0,4.0,33.0
1705334833.7751634,11.0,5.0,-19.0,-1.0,-2.0,-1.0,3.0,5.0
1705334833.7751634,-28.0,24.0,-40.0,-16.0,-7.0,-8.0,3.0,3.0
1705334833.7854674,-5.0,-6.0,3.0,5.0,0.0,0.0,1.0,16.0
1705334833.7854674,7.0,-17.0,13.0,3.0,1.0,-1.0,-15.0,-13.0
1705334833.7953825,3.0,17.0,12.0,-3.0,-2.0,2.0,9.0,16.0
1705334833.7953825,19.0,-10.0,-6.0,2.0,-4.0,-17.0,-15.0,-2.0
1705334833.8151088,5.0,7.0,-13.0,3.0,2.0,48.0,44.0,10.0
1705334833.8151088,-11.0,-16.0,0.0,-3.0,1.0,-7.0,1.0,-7.0
1705334833.8151088,-3.0,10.0,-9.0,-4.0,2.0,0.0,12.0,19.0
1705334833.8151088,1.0,-4.0,-4.0,-1.0,1.0,-9.0,-18.0,1.0
1705334833.8351092,14.0,17.0,7.0,1.0,-4.0,-17.0,-12.0,1.0
1705334833.8351092,-8.0,7.0,0.0,-11.0,-4.0,-8.0,-3.0,-20.0
1705334833.8351092,5.0,-40.0,-8.0,4.0,1.0,3.0,11.0,12.0
1705334833.8351092,-9.0,38.0,22.0,-8.0,-8.0,-3.0,-14.0,0.0
1705334833.845457,12.0,2.0,31.0,6.0,7.0,-8.0,-4.0,-10.0
1705334833.845457,-12.0,25.0,18.0,20.0,0.0,12.0,4.0,14.0
1705334833.855458,-14.0,-9.0,-44.0,-9.0,2.0,-5.0,-11.0,-14.0
1705334833.855458,-2.0,-13.0,33.0,14.0,-2.0,3.0,3.0,-6.0
1705334833.8751073,-4.0,-60.0,-34.0,-30.0,-5.0,-5.0,-2.0,-8.0
1705334833.8751073,17.0,25.0,30.0,-3.0,0.0,-9.0,-1.0,-6.0
1705334833.8751073,-12.0,-4.0,-11.0,19.0,-1.0,1.0,-7.0,-9.0
1705334833.8751073,7.0,78.0,21.0,-12.0,-5.0,9.0,13.0,3.0
1705334833.8951101,4.0,13.0,16.0,-3.0,4.0,-6.0,-1.0,14.0
1705334833.8951101,1.0,-18.0,-4.0,20.0,7.0,-4.0,-2.0,-6.0
1705334833.8951101,-1.0,-51.0,-11.0,8.0,1.0,3.0,2.0,1.0
1705334833.8951101,0.0,-14.0,23.0,-6.0,1.0,1.0,-3.0,-4.0
1705334833.9086905,-15.0,-13.0,-57.0,-19.0,1.0,-5.0,-3.0,0.0
1705334833.9097178,17.0,-27.0,32.0,0.0,17.0,6.0,4.0,-2.0
1705334833.9179192,2.0,73.0,-19.0,7.0,-6.0,-4.0,-11.0,-18.0
1705334833.9179192,5.0,5.0,14.0,26.0,16.0,5.0,6.0,1.0
1705334833.9329169,-4.0,11.0,43.0,21.0,-6.0,2.0,4.0,11.0
1705334833.9329169,-20.0,-49.0,-72.0,-25.0,-6.0,-6.0,-4.0,-15.0
1705334833.9339166,-5.0,-27.0,12.0,-34.0,-14.0,-6.0,-7.0,-4.0
1705334833.9339166,39.0,3.0,36.0,39.0,7.0,9.0,4.0,10.0
1705334833.9556868,-24.0,9.0,-76.0,-12.0,-6.0,-4.0,-4.0,0.0
1705334833.9556868,-15.0,31.0,15.0,-13.0,-8.0,-5.0,-6.0,-2.0
1705334833.9556868,1.0,38.0,38.0,20.0,-21.0,-5.0,0.0,-30.0
1705334833.9556868,-2.0,-77.0,-93.0,-31.0,28.0,0.0,-4.0,12.0
1705334833.9657197,36.0,19.0,100.0,19.0,2.0,5.0,10.0,8.0
1705334833.9657197,-17.0,29.0,-26.0,25.0,12.0,-9.0,-5.0,-11.0
1705334833.9757032,-11.0,75.0,-11.0,-11.0,-11.0,-24.0,-30.0,12.0
1705334833.9757032,-10.0,-21.0,4.0,5.0,-11.0,1.0,5.0,-27.0
1705334833.9857414,14.0,-27.0,-16.0,11.0,8.0,20.0,24.0,36.0
1705334833.9857414,16.0,-1.0,32.0,-14.0,-12.0,36.0,53.0,-6.0
1705334833.9857414,11.0,-16.0,29.0,-1.0,8.0,3.0,0.0,46.0
1705334833.9857414,8.0,2.0,-15.0,-10.0,-8.0,-21.0,-10.0,-28.0
1705334834.0061092,-15.0,32.0,0.0,-7.0,-6.0,-12.0,-17.0,4.0
1705334834.0061092,4.0,9.0,1.0,-7.0,-16.0,-15.0,1.0,-14.0
1705334834.0161216,-12.0,-4.0,-27.0,-1.0,8.0,-1.0,-9.0,-30.0
1705334834.0161216,-2.0,-2.0,-21.0,-18.0,5.0,1.0,-4.0,25.0
1705334834.0361204,-13.0,23.0,4.0,7.0,-3.0,-12.0,-25.0,6.0
1705334834.0361204,3.0,-16.0,-8.0,3.0,-3.0,-8.0,-13.0,12.0
1705334834.0361204,14.0,-9.0,-6.0,-2.0,6.0,16.0,32.0,-16.0
1705334834.0361204,-29.0,-14.0,-6.0,0.0,-8.0,-9.0,-16.0,49.0
1705334834.0456624,-1.0,-13.0,-8.0,-8.0,2.0,30.0,21.0,-21.0
1705334834.0456624,3.0,-14.0,-2.0,-1.0,-8.0,-15.0,-8.0,6.0
1705334834.0456624,2.0,8.0,43.0,4.0,1.0,-8.0,-12.0,-9.0
1705334834.0456624,-1.0,15.0,10.0,3.0,-5.0,9.0,11.0,11.0
1705334834.0756886,10.0,-5.0,-17.0,6.0,-5.0,-12.0,-8.0,-18.0
1705334834.0756886,-1.0,-17.0,-17.0,-9.0,1.0,1.0,0.0,9.0
1705334834.0756886,-10.0,17.0,13.0,-6.0,-4.0,-15.0,-15.0,-27.0
1705334834.0756886,-1.0,-13.0,-71.0,-13.0,-5.0,2.0,1.0,8.0
1705334834.1056821,-1.0,-11.0,3.0,-2.0,-2.0,2.0,1.0,-45.0
1705334834.1056821,2.0,-10.0,20.0,5.0,-1.0,-12.0,-15.0,36.0
1705334834.1056821,17.0,-9.0,-15.0,-6.0,-1.0,5.0,17.0,25.0
1705334834.1056821,-26.0,-12.0,25.0,-1.0,-4.0,-9.0,4.0,-28.0
1705334834.1056821,15.0,10.0,-51.0,-28.0,-9.0,-6.0,10.0,18.0
1705334834.1056821,-33.0,2.0,14.0,8.0,-3.0,6.0,-29.0,-21.0
1705334834.1056821,3.0,-32.0,-9.0,2.0,3.0,2.0,8.0,6.0
1705334834.1056821,-10.0,-4.0,38.0,14.0,5.0,3.0,6.0,0.0
1705334834.12613,-6.0,1.0,-6.0,-6.0,-5.0,-13.0,-8.0,4.0
1705334834.12613,5.0,-4.0,-46.0,-13.0,-2.0,-13.0,-4.0,-21.0
1705334834.1356866,-8.0,-2.0,11.0,-5.0,-4.0,-7.0,-16.0,0.0
1705334834.1356866,-7.0,-20.0,-2.0,3.0,-8.0,1.0,-8.0,-18.0
1705334834.1560957,-7.0,-4.0,29.0,34.0,2.0,-7.0,-7.0,-8.0
1705334834.1560957,7.0,10.0,2.0,-6.0,1.0,6.0,4.0,1.0
1705334834.1560957,14.0,1.0,-10.0,-4.0,9.0,13.0,6.0,2.0
1705334834.1560957,-9.0,-23.0,-6.0,-7.0,10.0,6.0,6.0,-6.0
1705334834.1656857,-3.0,-11.0,4.0,9.0,-7.0,-16.0,-13.0,0.0
1705334834.1656857,-3.0,35.0,-36.0,5.0,-1.0,0.0,4.0,-3.0
1705334834.176032,-5.0,9.0,-5.0,-22.0,-2.0,7.0,6.0,-1.0
1705334834.176032,16.0,-22.0,36.0,-2.0,-12.0,0.0,-4.0,-11.0
1705334834.1860626,-5.0,15.0,15.0,36.0,6.0,-3.0,-6.0,4.0
1705334834.1860626,-9.0,3.0,24.0,-43.0,15.0,3.0,-3.0,-7.0
1705334834.1956878,7.0,-24.0,-72.0,-11.0,-5.0,-1.0,-3.0,0.0
1705334834.1956878,3.0,20.0,34.0,-21.0,-15.0,-5.0,-1.0,0.0
1705334834.2160704,4.0,18.0,-69.0,-8.0,2.0,7.0,3.0,-3.0
1705334834.2256868,-4.0,-20.0,65.0,26.0,18.0,12.0,9.0,0.0
1705334834.2256868,-11.0,-15.0,-1.0,16.0,-17.0,-10.0,-5.0,-2.0
1705334834.2256868,9.0,-11.0,10.0,20.0,16.0,-2.0,-5.0,-2.0
1705334834.2256868,-8.0,-14.0,5.0,-33.0,-14.0,-7.0,-5.0,-3.0
1705334834.2256868,7.0,5.0,-5.0,12.0,-6.0,-2.0,0.0,-4.0
1705334834.2360594,-8.0,17.0,-36.0,-16.0,1.0,1.0,-2.0,1.0
1705334834.2360594,4.0,5.0,-72.0,-22.0,-7.0,2.0,1.0,-4.0
1705334834.2459612,4.0,-2.0,54.0,29.0,6.0,5.0,2.0,-8.0
1705334834.2459612,-18.0,3.0,7.0,7.0,-2.0,-8.0,7.0,8.0
1705334834.255976,26.0,10.0,52.0,6.0,-5.0,-7.0,-18.0,-22.0
1705334834.255976,4.0,12.0,-32.0,-9.0,-4.0,13.0,18.0,6.0
1705334834.2763104,5.0,8.0,-3.0,-21.0,3.0,-41.0,-15.0,15.0
1705334834.2763104,5.0,8.0,-15.0,-4.0,-10.0,16.0,-18.0,-13.0
1705334834.2763104,-7.0,-25.0,15.0,19.0,15.0,36.0,56.0,37.0
1705334834.2763104,33.0,15.0,-10.0,2.0,4.0,1.0,-22.0,-36.0
1705334834.286332,18.0,10.0,-8.0,-18.0,-5.0,-1.0,0.0,11.0
1705334834.286332,-22.0,-9.0,2.0,12.0,-8.0,-33.0,-21.0,-33.0
1705334834.2962856,8.0,22.0,-2.0,-6.0,-2.0,-18.0,-26.0,-5.0
1705334834.2962856,-43.0,-18.0,4.0,5.0,7.0,8.0,44.0,42.0
1705334834.3063383,-33.0,-2.0,12.0,3.0,-2.0,2.0,-29.0,-54.0
1705334834.3063383,33.0,-50.0,10.0,4.0,2.0,23.0,23.0,15.0
1705334834.3159778,-19.0,40.0,-31.0,-11.0,-1.0,-8.0,-17.0,6.0
1705334834.3159778,-15.0,-32.0,1.0,-4.0,-3.0,-10.0,-11.0,-4.0
1705334834.3361955,8.0,15.0,-1.0,-4.0,-6.0,-14.0,-7.0,5.0
1705334834.3361955,4.0,2.0,-18.0,-8.0,-5.0,-7.0,-13.0,1.0
1705334834.3361955,-16.0,-21.0,18.0,4.0,4.0,16.0,12.0,-25.0
1705334834.3361955,19.0,3.0,26.0,12.0,-7.0,-18.0,-8.0,40.0
1705334834.3462067,-23.0,50.0,-42.0,-22.0,-7.0,2.0,2.0,-8.0
1705334834.3462067,16.0,-2.0,-42.0,-8.0,0.0,4.0,0.0,-4.0
1705334834.356163,-2.0,67.0,58.0,-6.0,-7.0,-12.0,-1.0,1.0
1705334834.356163,5.0,-15.0,-28.0,2.0,1.0,6.0,-1.0,-14.0
1705334834.3662176,13.0,-55.0,-5.0,5.0,4.0,17.0,6.0,15.0
1705334834.3759787,-24.0,109.0,-15.0,-14.0,-7.0,-15.0,-4.0,-4.0
1705334834.3759787,16.0,8.0,77.0,23.0,6.0,-9.0,-5.0,0.0
1705334834.3759787,-19.0,-7.0,-21.0,-6.0,-3.0,-8.0,-15.0,-12.0
1705334834.4059756,-7.0,-6.0,8.0,10.0,4.0,13.0,-3.0,-8.0
1705334834.4059756,-5.0,-23.0,-17.0,-22.0,-4.0,-3.0,8.0,15.0
1705334834.4059756,15.0,-46.0,-47.0,-11.0,-8.0,-11.0,-15.0,-26.0
1705334834.4059756,5.0,-22.0,30.0,6.0,9.0,30.0,18.0,-17.0
1705334834.4059756,4.0,-3.0,-28.0,-2.0,-4.0,-10.0,-28.0,-5.0
1705334834.4059756,-49.0,-11.0,8.0,14.0,1.0,9.0,36.0,-22.0
1705334834.4160051,-2.0,-15.0,-9.0,-9.0,2.0,14.0,12.0,39.0
1705334834.4160051,15.0,-3.0,24.0,-1.0,-4.0,-15.0,-8.0,9.0
1705334834.4259715,25.0,30.0,4.0,-5.0,-7.0,-12.0,7.0,-8.0
1705334834.4259715,-17.0,-15.0,8.0,8.0,-1.0,-18.0,-31.0,9.0
1705334834.4365547,5.0,-8.0,-24.0,1.0,1.0,-16.0,-28.0,4.0
1705334834.4365547,7.0,26.0,-28.0,-5.0,-1.0,21.0,44.0,-19.0
1705334834.4571748,-5.0,-35.0,19.0,-18.0,2.0,20.0,18.0,41.0
1705334834.4571748,10.0,-8.0,21.0,14.0,-1.0,-14.0,-15.0,-28.0
1705334834.4611742,3.0,17.0,2.0,9.0,-2.0,10.0,12.0,26.0
1705334834.4611742,-8.0,-2.0,-9.0,-11.0,-8.0,-17.0,-21.0,-39.0
1705334834.4697893,-3.0,5.0,-10.0,-8.0,-1.0,-2.0,1.0,1.0
1705334834.4697893,11.0,22.0,-66.0,-14.0,-4.0,-1.0,-2.0,18.0
1705334834.4697893,4.0,-55.0,70.0,21.0,3.0,-11.0,-4.0,-17.0
1705334834.4697893,-20.0,59.0,-42.0,6.0,-1.0,-8.0,-18.0,-6.0
1705334834.4897916,-2.0,17.0,31.0,-7.0,-2.0,12.0,20.0,24.0
1705334834.4897916,1.0,-34.0,-7.0,0.0,-6.0,-6.0,-8.0,-9.0
1705334834.4897916,9.0,-18.0,32.0,13.0,12.0,11.0,13.0,-10.0
1705334834.4897916,18.0,-13.0,79.0,12.0,1.0,1.0,-1.0,15.0
1705334834.5102339,-8.0,-1.0,-40.0,7.0,-4.0,-10.0,-4.0,-20.0
1705334834.5102339,22.0,37.0,-36.0,-6.0,-2.0,15.0,7.0,11.0
1705334834.5102339,-16.0,20.0,-1.0,-16.0,3.0,9.0,-10.0,-3.0
1705334834.5102339,-11.0,-11.0,27.0,10.0,-1.0,1.0,20.0,5.0
1705334834.5302715,-10.0,-13.0,-17.0,-24.0,-3.0,-27.0,-24.0,-11.0
1705334834.5302715,24.0,-33.0,51.0,13.0,8.0,8.0,8.0,16.0
1705334834.5399737,-18.0,50.0,-27.0,-23.0,-14.0,15.0,20.0,-8.0
1705334834.5399737,-14.0,-7.0,-16.0,6.0,3.0,-17.0,-27.0,-2.0
1705334834.556496,2.0,36.0,31.0,5.0,-1.0,-6.0,13.0,-3.0
1705334834.556496,7.0,-24.0,13.0,-1.0,-1.0,7.0,-6.0,4.0
1705334834.556496,-1.0,-3.0,-21.0,7.0,-2.0,-2.0,4.0,-8.0
1705334834.556496,21.0,33.0,93.0,22.0,14.0,7.0,2.0,18.0
1705334834.5767913,-14.0,-12.0,-75.0,-23.0,-6.0,2.0,7.0,-6.0
1705334834.5767913,-10.0,-16.0,25.0,-30.0,-10.0,-5.0,-3.0,0.0
1705334834.5767913,-2.0,-6.0,-18.0,1.0,-2.0,-1.0,5.0,0.0
1705334834.5767913,11.0,-50.0,-41.0,-2.0,-5.0,-10.0,-14.0,-2.0
1705334834.6064942,-13.0,17.0,51.0,37.0,13.0,16.0,9.0,-7.0
1705334834.6064942,-8.0,45.0,-10.0,-22.0,-2.0,0.0,3.0,-7.0
1705334834.6064942,-8.0,-9.0,-52.0,-8.0,-11.0,-20.0,-12.0,2.0
1705334834.6064942,-8.0,3.0,-11.0,20.0,-7.0,6.0,0.0,-11.0
1705334834.6064942,25.0,-35.0,51.0,1.0,8.0,1.0,-3.0,-4.0
1705334834.6064942,-16.0,-24.0,-7.0,-13.0,-8.0,1.0,3.0,-1.0
1705334834.6164954,-9.0,-22.0,-8.0,-8.0,2.0,-13.0,-14.0,18.0
1705334834.6164954,11.0,-10.0,-31.0,-15.0,-12.0,12.0,-18.0,-9.0
1705334834.6369429,24.0,-5.0,-12.0,13.0,-1.0,2.0,14.0,32.0
1705334834.6369429,18.0,19.0,16.0,17.0,8.0,-10.0,-6.0,2.0
1705334834.6369429,-22.0,-20.0,3.0,14.0,7.0,19.0,24.0,-1.0
1705334834.6369429,12.0,12.0,-22.0,-35.0,-2.0,2.0,6.0,44.0
1705334834.6467226,-60.0,-25.0,-9.0,-8.0,0.0,-5.0,-6.0,-48.0
1705334834.6467226,13.0,34.0,40.0,21.0,-6.0,0.0,-3.0,-20.0
1705334834.6567357,17.0,-32.0,-2.0,22.0,1.0,-15.0,-20.0,-19.0
1705334834.6567357,-21.0,56.0,53.0,4.0,1.0,-9.0,9.0,12.0
1705334834.66677,-7.0,-59.0,-92.0,-33.0,-18.0,-8.0,-23.0,37.0
1705334834.66677,-6.0,13.0,-13.0,-4.0,3.0,-6.0,12.0,-7.0
1705334834.6767402,-3.0,3.0,0.0,7.0,-2.0,7.0,2.0,-2.0
1705334834.6767402,-12.0,10.0,19.0,-9.0,-1.0,0.0,-5.0,-15.0
1705334834.6970735,18.0,6.0,56.0,-3.0,0.0,2.0,8.0,-31.0
1705334834.6970735,-23.0,-27.0,-68.0,3.0,-5.0,-10.0,-15.0,6.0
1705334834.6970735,7.0,-21.0,2.0,-6.0,1.0,-3.0,-7.0,-3.0
1705334834.6970735,7.0,-29.0,-4.0,-1.0,3.0,-1.0,0.0,3.0
1705334834.7267358,-1.0,12.0,12.0,5.0,-5.0,-3.0,-7.0,0.0
1705334834.7267358,5.0,-2.0,4.0,11.0,-3.0,24.0,15.0,1.0
1705334834.7267358,4.0,-5.0,-28.0,-33.0,0.0,-6.0,4.0,-9.0
1705334834.7267358,5.0,-24.0,3.0,10.0,2.0,-13.0,-14.0,-10.0
1705334834.7267358,3.0,-50.0,16.0,26.0,5.0,7.0,3.0,12.0
1705334834.7267358,-4.0,2.0,-11.0,-18.0,1.0,-7.0,3.0,-4.0
1705334834.7367337,-15.0,-16.0,-39.0,-11.0,-12.0,-5.0,-22.0,1.0
1705334834.7367337,4.0,-14.0,6.0,-11.0,-7.0,-3.0,1.0,-7.0
1705334834.75719,-2.0,-4.0,21.0,19.0,8.0,7.0,11.0,1.0
1705334834.75719,9.0,27.0,8.0,27.0,1.0,8.0,-5.0,2.0
1705334834.75719,-5.0,11.0,34.0,-18.0,6.0,3.0,11.0,3.0
1705334834.75719,-21.0,23.0,-84.0,-13.0,-3.0,-8.0,-11.0,-9.0
1705334834.7767353,15.0,-4.0,62.0,29.0,-11.0,-5.0,-5.0,2.0
1705334834.7767353,4.0,-2.0,-40.0,-47.0,3.0,-9.0,-2.0,-2.0
1705334834.7767353,4.0,29.0,34.0,-1.0,-4.0,0.0,2.0,3.0
1705334834.7767353,-2.0,-13.0,55.0,8.0,-15.0,-3.0,0.0,-5.0
1705334834.7871203,-8.0,-31.0,-71.0,21.0,50.0,12.0,5.0,-9.0
1705334834.7871203,18.0,11.0,48.0,53.0,17.0,-1.0,-5.0,38.0
1705334834.796737,4.0,-26.0,-27.0,16.0,-9.0,-2.0,-1.0,-3.0
1705334834.796737,-17.0,33.0,-4.0,-25.0,-3.0,2.0,-2.0,-4.0
1705334834.8171475,-7.0,16.0,1.0,-43.0,-24.0,-6.0,-1.0,-11.0
1705334834.8171475,-16.0,-40.0,25.0,14.0,-4.0,-12.0,-16.0,8.0
1705334834.8171475,31.0,5.0,-1.0,-17.0,4.0,1.0,-11.0,15.0
1705334834.8171475,20.0,-21.0,-36.0,8.0,-3.0,11.0,6.0,51.0
1705334834.8269036,-24.0,35.0,43.0,-1.0,-3.0,10.0,15.0,-15.0
1705334834.8269036,9.0,-16.0,-11.0,-13.0,5.0,24.0,36.0,9.0
1705334834.8369887,-4.0,-8.0,37.0,14.0,-2.0,-14.0,-4.0,0.0
1705334834.8369887,-35.0,23.0,-42.0,-6.0,-2.0,-15.0,-40.0,-24.0
1705334834.8467467,36.0,-16.0,2.0,-1.0,-2.0,-6.0,14.0,-1.0
1705334834.8467467,-5.0,59.0,-29.0,-25.0,-15.0,-27.0,-7.0,27.0
1705334834.8567343,-28.0,-4.0,5.0,-1.0,-7.0,-2.0,-7.0,-56.0
1705334834.8567343,29.0,-23.0,-32.0,2.0,11.0,25.0,45.0,12.0
1705334834.8770409,-9.0,52.0,25.0,-10.0,1.0,2.0,-19.0,0.0
1705334834.8770409,0.0,-38.0,10.0,15.0,-4.0,-13.0,-17.0,-23.0
1705334834.8770409,2.0,50.0,-51.0,-7.0,0.0,14.0,16.0,3.0
1705334834.8770409,-8.0,-91.0,18.0,-4.0,1.0,-18.0,-22.0,-5.0
1705334834.906734,-25.0,25.0,-49.0,-6.0,-10.0,-8.0,-6.0,4.0
1705334834.906734,7.0,-16.0,-7.0,4.0,4.0,4.0,4.0,-26.0
1705334834.906734,-8.0,3.0,6.0,-24.0,-11.0,3.0,2.0,12.0
1705334834.906734,-5.0,-18.0,14.0,42.0,5.0,-8.0,-4.0,-17.0
1705334834.906734,24.0,-12.0,5.0,-8.0,2.0,0.0,2.0,18.0
1705334834.906734,-32.0,-4.0,-17.0,-11.0,-1.0,7.0,-18.0,-13.0
1705334834.9167402,-7.0,-2.0,33.0,0.0,-18.0,-7.0,2.0,3.0
1705334834.9167402,2.0,10.0,-38.0,16.0,30.0,6.0,6.0,-13.0
1705334834.9467382,12.0,-37.0,-94.0,-37.0,-13.0,-8.0,-6.0,6.0
1705334834.9467382,-11.0,24.0,-33.0,-3.0,-2.0,4.0,4.0,-7.0
1705334834.9467382,-4.0,20.0,50.0,15.0,-5.0,-5.0,-1.0,-3.0
1705334834.9467382,2.0,4.0,73.0,-1.0,-22.0,-11.0,-6.0,-8.0
1705334834.9570014,-12.0,-3.0,34.0,-9.0,-1.0,-2.0,-7.0,27.0
1705334834.9570014,9.0,-7.0,-13.0,-23.0,-15.0,-12.0,-6.0,-11.0
1705334834.9570014,-11.0,-12.0,-30.0,15.0,17.0,10.0,4.0,-15.0
1705334834.9570014,22.0,5.0,62.0,9.0,1.0,1.0,4.0,-15.0
1705334834.975137,8.0,2.0,-54.0,21.0,12.0,2.0,4.0,18.0
1705334834.975137,9.0,6.0,6.0,-13.0,-10.0,3.0,-2.0,15.0
1705334834.9761043,1.0,6.0,0.0,-37.0,-6.0,-36.0,-34.0,-2.0
1705334834.9761043,-13.0,31.0,4.0,15.0,7.0,17.0,-4.0,-40.0
1705334834.996063,4.0,5.0,47.0,2.0,-3.0,21.0,13.0,-29.0
1705334834.996063,1.0,-3.0,-5.0,20.0,11.0,-4.0,-11.0,6.0
1705334834.996063,9.0,-49.0,-14.0,-1.0,9.0,36.0,96.0,61.0
1705334834.996063,35.0,18.0,-21.0,-37.0,-11.0,-51.0,-51.0,5.0
1705334835.0161211,-39.0,43.0,2.0,4.0,-4.0,25.0,22.0,3.0
1705334835.0161211,-19.0,-24.0,3.0,10.0,7.0,2.0,-45.0,-18.0
1705334835.0161211,7.0,33.0,11.0,5.0,4.0,4.0,35.0,-23.0
1705334835.0161211,26.0,-3.0,-11.0,-20.0,-9.0,5.0,42.0,48.0
1705334835.0260825,33.0,14.0,46.0,25.0,5.0,0.0,-3.0,-4.0
1705334835.0260825,-33.0,-31.0,-7.0,-7.0,1.0,2.0,-7.0,-9.0
1705334835.0360951,-22.0,20.0,1.0,4.0,-4.0,-15.0,-41.0,-2.0
1705334835.0360951,-8.0,-3.0,3.0,-1.0,-6.0,2.0,11.0,2.0
1705334835.0564353,-21.0,30.0,-33.0,-10.0,-5.0,-26.0,-41.0,-22.0
1705334835.0564353,0.0,6.0,34.0,-5.0,-2.0,3.0,13.0,7.0
1705334835.0564353,18.0,-17.0,-10.0,3.0,-2.0,0.0,-13.0,7.0
1705334835.0564353,8.0,45.0,0.0,-20.0,-7.0,7.0,6.0,1.0
1705334835.0765007,-6.0,-45.0,-3.0,10.0,0.0,-1.0,-6.0,1.0
1705334835.0765007,11.0,-53.0,20.0,14.0,28.0,9.0,18.0,-8.0
1705334835.0765007,4.0,75.0,50.0,27.0,-19.0,-12.0,-11.0,-9.0
1705334835.0765007,-20.0,-58.0,2.0,-14.0,17.0,-1.0,-8.0,-6.0
1705334835.0863996,4.0,2.0,-4.0,-20.0,-11.0,-6.0,3.0,3.0
1705334835.0863996,12.0,54.0,-19.0,34.0,-29.0,3.0,12.0,1.0
1705334835.106097,1.0,-78.0,-38.0,-11.0,51.0,3.0,-15.0,-5.0
1705334835.106097,-34.0,63.0,42.0,-15.0,-47.0,-16.0,-11.0,-5.0
1705334835.1162627,-1.0,-37.0,51.0,20.0,33.0,1.0,-1.0,2.0
1705334835.1162627,19.0,-31.0,-50.0,30.0,8.0,-2.0,6.0,1.0
1705334835.1162627,1.0,-3.0,-37.0,14.0,-6.0,10.0,1.0,4.0
1705334835.1162627,-17.0,41.0,-43.0,-51.0,3.0,2.0,3.0,-5.0
1705334835.1363335,5.0,-2.0,15.0,-26.0,-23.0,-5.0,-2.0,-3.0
1705334835.1363335,12.0,19.0,32.0,-9.0,-2.0,3.0,5.0,1.0
1705334835.1363335,-5.0,-1.0,15.0,2.0,-5.0,0.0,1.0,4.0
1705334835.1363335,-5.0,1.0,-44.0,7.0,-4.0,-1.0,-5.0,-6.0
1705334835.1463096,-2.0,13.0,5.0,-4.0,-8.0,-13.0,-16.0,-4.0
1705334835.1463096,13.0,14.0,22.0,-22.0,-4.0,-35.0,-15.0,3.0
1705334835.1760921,-5.0,9.0,7.0,6.0,-2.0,38.0,7.0,-7.0
1705334835.1760921,9.0,-44.0,38.0,31.0,18.0,16.0,28.0,3.0
1705334835.1760921,-2.0,3.0,-50.0,-11.0,-3.0,-11.0,-4.0,21.0
1705334835.1760921,-2.0,17.0,10.0,-28.0,-11.0,-7.0,-5.0,19.0
1705334835.1760921,0.0,-32.0,3.0,7.0,-1.0,-30.0,-24.0,23.0
1705334835.1760921,-4.0,2.0,7.0,12.0,3.0,-1.0,-13.0,-11.0
1705334835.1964812,-20.0,13.0,-22.0,3.0,1.0,4.0,10.0,-1.0
1705334835.1964812,25.0,-18.0,7.0,-8.0,-4.0,-17.0,-9.0,9.0
1705334835.1964812,7.0,17.0,-4.0,-7.0,-1.0,27.0,1.0,17.0
1705334835.1964812,-27.0,-29.0,-1.0,6.0,8.0,1.0,7.0,-26.0
1705334835.2062628,7.0,25.0,-2.0,8.0,-4.0,-12.0,-24.0,3.0
1705334835.2062628,-32.0,19.0,3.0,-9.0,0.0,18.0,39.0,-30.0
1705334835.2260928,16.0,-11.0,-22.0,-3.0,8.0,28.0,27.0,15.0
1705334835.2260928,19.0,-19.0,-19.0,19.0,4.0,3.0,19.0,-17.0
1705334835.2364497,0.0,3.0,20.0,-12.0,-8.0,-20.0,-16.0,4.0
1705334835.2364497,-18.0,46.0,-23.0,-5.0,-5.0,-4.0,0.0,-10.0
1705334835.2364497,0.0,1.0,-28.0,-19.0,-4.0,-18.0,-29.0,-5.0
1705334835.2364497,-14.0,2.0,16.0,5.0,0.0,3.0,-6.0,4.0
1705334835.2564785,15.0,-13.0,5.0,6.0,-2.0,-10.0,-1.0,-26.0
1705334835.2564785,8.0,-18.0,-17.0,-10.0,0.0,11.0,0.0,4.0
1705334835.2564785,1.0,-3.0,52.0,19.0,-3.0,-9.0,-4.0,-12.0
1705334835.2564785,-17.0,-17.0,-35.0,-15.0,-7.0,-8.0,-13.0,11.0
1705334835.2660956,5.0,4.0,36.0,27.0,3.0,10.0,12.0,-5.0
1705334835.2660956,-12.0,2.0,-46.0,-17.0,-11.0,4.0,-5.0,1.0
1705334835.2760928,-3.0,-22.0,-32.0,12.0,7.0,-11.0,-6.0,-20.0
1705334835.2760928,5.0,-28.0,24.0,-16.0,-1.0,-8.0,-6.0,15.0
1705334835.296269,4.0,-4.0,-52.0,6.0,6.0,3.0,-2.0,-1.0
1705334835.296269,-10.0,-17.0,26.0,-9.0,4.0,20.0,18.0,-1.0
1705334835.296269,-1.0,17.0,25.0,13.0,-9.0,-10.0,-1.0,-4.0
1705334835.296269,5.0,25.0,-2.0,-12.0,-8.0,-1.0,-10.0,10.0
1705334835.3163838,12.0,-29.0,7.0,9.0,-3.0,5.0,8.0,-6.0
1705334835.3163838,-5.0,25.0,22.0,10.0,5.0,-1.0,-3.0,-4.0
1705334835.3163838,-12.0,-46.0,-76.0,-48.0,-10.0,-10.0,-3.0,-7.0
1705334835.3163838,0.0,55.0,-9.0,8.0,1.0,-2.0,-6.0,-2.0
1705334835.346092,10.0,-20.0,30.0,12.0,2.0,5.0,7.0,-1.0
1705334835.346092,-5.0,-53.0,40.0,14.0,7.0,-1.0,-1.0,4.0
1705334835.346092,-3.0,48.0,22.0,-22.0,-10.0,-7.0,-9.0,-29.0
1705334835.346092,-6.0,-10.0,-45.0,3.0,3.0,6.0,6.0,46.0
1705334835.3563268,15.0,0.0,18.0,0.0,-6.0,-7.0,-3.0,56.0
1705334835.3563268,13.0,40.0,-42.0,-7.0,2.0,10.0,-2.0,-26.0
1705334835.3563268,-2.0,-14.0,22.0,-10.0,2.0,-4.0,2.0,6.0
1705334835.3563268,-17.0,-19.0,43.0,21.0,-5.0,-14.0,-11.0,-31.0
1705334835.376376,-4.0,17.0,-11.0,-18.0,-1.0,-10.0,-13.0,23.0
1705334835.376376,-20.0,-16.0,32.0,27.0,-7.0,-48.0,-49.0,-20.0
1705334835.376376,12.0,2.0,-24.0,-4.0,6.0,66.0,51.0,-18.0
1705334835.376376,16.0,-39.0,-10.0,4.0,6.0,8.0,-7.0,41.0
1705334835.3960948,-14.0,3.0,-5.0,-13.0,-3.0,6.0,15.0,-11.0
1705334835.3960948,9.0,-1.0,-37.0,-32.0,-9.0,-24.0,-17.0,-7.0
1705334835.3960948,-8.0,-3.0,13.0,5.0,-2.0,-32.0,-24.0,-8.0
1705334835.3960948,5.0,-31.0,-9.0,13.0,-2.0,4.0,-3.0,-6.0
1705334835.416448,3.0,51.0,6.0,-20.0,-9.0,-4.0,-2.0,-3.0
1705334835.416448,-15.0,-50.0,-12.0,2.0,-3.0,1.0,-4.0,-21.0
1705334835.416448,-11.0,-4.0,-3.0,-2.0,-6.0,-13.0,-16.0,3.0
1705334835.416448,9.0,7.0,38.0,9.0,-3.0,11.0,14.0,-6.0
1705334835.4360945,-6.0,-39.0,-33.0,-9.0,10.0,2.0,3.0,-11.0
1705334835.4360945,14.0,20.0,-23.0,7.0,8.0,14.0,18.0,12.0
1705334835.4360945,1.0,-7.0,37.0,25.0,7.0,-3.0,2.0,14.0
1705334835.4360945,-8.0,24.0,-40.0,-17.0,-10.0,-8.0,0.0,-18.0
1705334835.446434,-15.0,-39.0,-22.0,-26.0,-12.0,-8.0,-14.0,-18.0
1705334835.446434,-1.0,-2.0,32.0,1.0,-3.0,10.0,14.0,6.0
1705334835.4562082,-3.0,-7.0,-32.0,10.0,5.0,-8.0,-6.0,-1.0
1705334835.4562082,-4.0,17.0,-33.0,-20.0,-6.0,-13.0,-8.0,0.0
1705334835.476453,-2.0,-2.0,-2.0,-16.0,-9.0,19.0,16.0,-11.0
1705334835.476453,4.0,-15.0,-19.0,33.0,17.0,24.0,16.0,3.0
1705334835.476453,-2.0,45.0,22.0,-53.0,-6.0,-6.0,-2.0,7.0
1705334835.476453,-14.0,6.0,53.0,3.0,-5.0,-15.0,-10.0,-13.0
1705334835.4994648,-1.0,-43.0,-58.0,-3.0,12.0,0.0,-3.0,-6.0
1705334835.4994648,13.0,22.0,58.0,-2.0,-19.0,-6.0,-5.0,6.0
1705334835.5013728,7.0,-6.0,15.0,-50.0,-24.0,-17.0,-8.0,0.0
1705334835.5013728,11.0,0.0,-43.0,34.0,8.0,7.0,1.0,10.0
1705334835.5138412,-10.0,24.0,20.0,-11.0,-3.0,-1.0,0.0,-10.0
1705334835.5138412,11.0,-1.0,-36.0,7.0,9.0,10.0,10.0,17.0
1705334835.5188763,-1.0,-41.0,-35.0,10.0,9.0,7.0,8.0,-1.0
1705334835.5188763,-15.0,73.0,35.0,-39.0,-25.0,-9.0,-9.0,-26.0
1705334835.5292056,4.0,-74.0,42.0,7.0,3.0,1.0,7.0,-26.0
1705334835.5292056,26.0,-47.0,37.0,15.0,1.0,-11.0,-9.0,72.0
1705334835.5388873,-22.0,72.0,-32.0,-7.0,-6.0,-20.0,-30.0,-8.0
1705334835.5388873,-23.0,-34.0,0.0,9.0,16.0,27.0,19.0,-9.0
1705334835.5588758,8.0,-18.0,6.0,42.0,10.0,42.0,44.0,-9.0
1705334835.5588758,7.0,25.0,47.0,-27.0,-6.0,-12.0,7.0,-29.0
1705334835.5588758,-8.0,59.0,15.0,13.0,-6.0,5.0,-6.0,-4.0
1705334835.5588758,19.0,-45.0,-39.0,-2.0,6.0,-11.0,-8.0,33.0
1705334835.5688837,-38.0,44.0,-28.0,-18.0,-15.0,-21.0,-20.0,0.0
1705334835.5688837,-24.0,-46.0,-9.0,-4.0,-6.0,-7.0,-6.0,-18.0
1705334835.5765262,40.0,-24.0,-5.0,18.0,5.0,-4.0,2.0,7.0
1705334835.5765262,1.0,-23.0,23.0,6.0,1.0,-6.0,-24.0,-20.0
1705334835.5968854,16.0,71.0,18.0,6.0,-2.0,-18.0,-31.0,32.0
1705334835.5968854,-10.0,13.0,-22.0,-12.0,4.0,58.0,68.0,-3.0
1705334835.5968854,-18.0,-17.0,-15.0,10.0,1.0,-8.0,10.0,-11.0
1705334835.5968854,46.0,-3.0,-23.0,-18.0,-1.0,6.0,-11.0,14.0
1705334835.6265724,-16.0,-20.0,19.0,11.0,3.0,8.0,0.0,-9.0
1705334835.6265724,1.0,19.0,-7.0,-5.0,-3.0,-25.0,-24.0,16.0
1705334835.6265724,-5.0,13.0,6.0,3.0,-6.0,0.0,13.0,-9.0
1705334835.6265724,-6.0,-16.0,1.0,7.0,0.0,-2.0,-9.0,-18.0
1705334835.6265724,1.0,-12.0,-25.0,-7.0,4.0,5.0,1.0,4.0
1705334835.6265724,-11.0,30.0,28.0,-5.0,-10.0,-22.0,-11.0,-6.0
1705334835.636845,-2.0,-31.0,-5.0,8.0,5.0,15.0,7.0,-5.0
1705334835.636845,-7.0,-4.0,-19.0,13.0,1.0,-16.0,-8.0,-7.0
1705334835.6565864,-5.0,-44.0,8.0,-3.0,8.0,14.0,9.0,11.0
1705334835.6565864,2.0,21.0,-10.0,-4.0,-6.0,5.0,3.0,-20.0
1705334835.6565864,-16.0,9.0,7.0,-4.0,7.0,-16.0,-19.0,6.0
1705334835.6565864,22.0,39.0,72.0,27.0,5.0,3.0,14.0,11.0
1705334835.6769092,-22.0,22.0,-52.0,-18.0,-16.0,-7.0,-5.0,-12.0
1705334835.6769092,-6.0,-36.0,-25.0,-20.0,-11.0,-13.0,-16.0,7.0
1705334835.6769092,13.0,-60.0,12.0,5.0,-12.0,-5.0,1.0,7.0
1705334835.6769092,-12.0,14.0,-2.0,9.0,8.0,17.0,11.0,-9.0
1705334835.6869264,17.0,25.0,1.0,-8.0,-4.0,-5.0,3.0,1.0
1705334835.6869264,-28.0,18.0,-68.0,-30.0,-6.0,-11.0,-17.0,-12.0
1705334835.697145,-8.0,-29.0,-16.0,-11.0,-5.0,-3.0,-3.0,-5.0
1705334835.697145,3.0,-51.0,50.0,-1.0,-10.0,2.0,16.0,3.0
1705334835.7369442,12.0,-24.0,38.0,31.0,8.0,-3.0,-5.0,-20.0
1705334835.7369442,21.0,-14.0,2.0,15.0,12.0,3.0,-6.0,36.0
1705334835.7369442,-12.0,-9.0,-27.0,6.0,3.0,6.0,5.0,-7.0
1705334835.7369442,-8.0,75.0,-28.0,-30.0,4.0,4.0,6.0,1.0
1705334835.7369442,1.0,-56.0,-4.0,-4.0,-8.0,-37.0,-31.0,-9.0
1705334835.7369442,-6.0,98.0,40.0,24.0,7.0,37.0,38.0,-18.0
1705334835.7369442,-4.0,-50.0,-9.0,18.0,3.0,17.0,11.0,9.0
1705334835.7369442,-2.0,52.0,-8.0,-27.0,-15.0,-11.0,-19.0,-15.0
1705334835.7471368,-10.0,24.0,-25.0,2.0,-19.0,-15.0,0.0,-1.0
1705334835.7471368,7.0,-61.0,3.0,-19.0,34.0,-1.0,0.0,15.0
1705334835.7570102,15.0,-11.0,21.0,15.0,6.0,-1.0,4.0,-13.0
1705334835.7570102,21.0,-93.0,17.0,11.0,-1.0,3.0,-2.0,-8.0
1705334835.7869442,-37.0,84.0,33.0,-3.0,-4.0,0.0,-25.0,-15.0
1705334835.7869442,3.0,28.0,-60.0,11.0,-10.0,-10.0,-8.0,-5.0
1705334835.7869442,-31.0,20.0,-1.0,-21.0,-19.0,-7.0,-3.0,-4.0
1705334835.7869442,0.0,-35.0,-32.0,-31.0,3.0,-8.0,-3.0,3.0
1705334835.7972713,40.0,39.0,59.0,20.0,14.0,19.0,27.0,23.0
1705334835.7972713,-8.0,-26.0,-2.0,6.0,-6.0,-3.0,-5.0,-7.0
1705334835.7972713,-14.0,24.0,-7.0,-6.0,-8.0,-16.0,-13.0,5.0
1705334835.7972713,1.0,-18.0,-49.0,-10.0,-12.0,2.0,9.0,9.0
1705334835.8072717,6.0,-21.0,34.0,21.0,20.0,12.0,8.0,2.0
1705334835.8072717,-2.0,5.0,26.0,1.0,-9.0,-3.0,-6.0,-10.0
1705334835.826944,16.0,-21.0,-15.0,-21.0,1.0,-7.0,0.0,7.0
1705334835.826944,-4.0,-19.0,-13.0,-1.0,-2.0,1.0,7.0,7.0
1705334835.836946,3.0,8.0,-3.0,12.0,-4.0,3.0,20.0,13.0
1705334835.836946,-6.0,-14.0,8.0,2.0,-2.0,-11.0,-23.0,-39.0
1705334835.836946,8.0,-13.0,27.0,8.0,-3.0,-2.0,-13.0,-1.0
1705334835.836946,-5.0,53.0,12.0,-8.0,-5.0,-13.0,0.0,5.0
1705334835.8573456,-2.0,-48.0,-21.0,-15.0,-1.0,-4.0,0.0,2.0
1705334835.8573456,-9.0,-33.0,0.0,19.0,10.0,14.0,-34.0,3.0
1705334835.8573456,11.0,43.0,17.0,1.0,8.0,27.0,67.0,4.0
1705334835.8573456,-19.0,-26.0,-17.0,5.0,3.0,-7.0,-1.0,0.0
1705334835.8869438,13.0,-19.0,20.0,1.0,-7.0,0.0,-2.0,-9.0
1705334835.8869438,-1.0,50.0,8.0,-5.0,-15.0,-34.0,-48.0,-1.0
1705334835.8869438,-7.0,-14.0,-2.0,-15.0,3.0,16.0,14.0,20.0
1705334835.8869438,-4.0,6.0,-10.0,2.0,4.0,-3.0,15.0,-8.0
1705334835.897163,-5.0,0.0,24.0,11.0,3.0,0.0,-62.0,3.0
1705334835.897163,9.0,-27.0,17.0,10.0,5.0,9.0,71.0,41.0
1705334835.897163,14.0,0.0,-22.0,-8.0,6.0,-9.0,-39.0,36.0
1705334835.897163,-12.0,20.0,62.0,18.0,-3.0,23.0,30.0,-40.0
1705334835.9170525,-2.0,11.0,7.0,1.0,-13.0,-32.0,-73.0,-17.0
1705334835.9170525,18.0,6.0,-20.0,-6.0,8.0,44.0,42.0,-2.0
1705334835.9170525,1.0,51.0,10.0,-1.0,-4.0,-4.0,7.0,10.0
1705334835.9170525,3.0,-51.0,-43.0,-11.0,6.0,-2.0,-46.0,-7.0
1705334835.9469445,-32.0,56.0,-18.0,-14.0,1.0,-7.0,-31.0,-21.0
1705334835.9469445,12.0,-28.0,6.0,11.0,0.0,-3.0,52.0,30.0
1705334835.9469445,25.0,22.0,-25.0,-2.0,-11.0,-6.0,45.0,-6.0
1705334835.9469445,-35.0,40.0,5.0,-24.0,-14.0,-3.0,6.0,-14.0
1705334835.9569645,19.0,8.0,6.0,14.0,3.0,2.0,-6.0,-4.0
1705334835.9569645,-30.0,67.0,-67.0,-28.0,-12.0,-19.0,-21.0,-24.0
1705334835.9569645,13.0,-109.0,39.0,14.0,20.0,5.0,-27.0,-9.0
1705334835.9569645,9.0,-53.0,-86.0,-11.0,-9.0,-9.0,1.0,39.0
1705334835.977349,38.0,-119.0,66.0,14.0,22.0,31.0,40.0,26.0
1705334835.977349,-24.0,88.0,-26.0,-39.0,-19.0,-15.0,-26.0,-33.0
1705334835.977349,-30.0,-35.0,-47.0,-25.0,-33.0,-22.0,-26.0,-33.0
1705334835.977349,3.0,-64.0,60.0,17.0,12.0,3.0,-8.0,14.0
1705334836.0069435,-18.0,35.0,-14.0,-39.0,-21.0,-7.0,27.0,-4.0
1705334836.0069435,-10.0,-24.0,-23.0,2.0,1.0,-8.0,-18.0,-2.0
1705334836.0069435,-6.0,-21.0,-3.0,37.0,12.0,0.0,-9.0,-6.0
1705334836.0069435,0.0,33.0,0.0,19.0,-15.0,0.0,-8.0,-3.0
1705334836.0169482,3.0,-106.0,-18.0,-30.0,36.0,17.0,38.0,8.0
1705334836.0169482,28.0,-14.0,30.0,23.0,2.0,0.0,-2.0,2.0
1705334836.0169482,-52.0,81.0,-42.0,-26.0,22.0,-11.0,-22.0,-16.0
1705334836.0169482,0.0,-79.0,-26.0,60.0,20.0,-4.0,0.0,7.0
1705334836.0400522,8.0,-43.0,13.0,13.0,-32.0,-17.0,8.0,3.0
1705334836.041074,-5.0,-16.0,-11.0,-37.0,-27.0,-11.0,-20.0,-11.0
1705334836.0420685,12.0,70.0,29.0,1.0,-15.0,6.0,-11.0,-2.0
1705334836.0420685,7.0,123.0,11.0,-13.0,8.0,9.0,12.0,0.0
1705334836.0818896,-25.0,127.0,-64.0,-12.0,5.0,-4.0,-6.0,-34.0
1705334836.0818896,11.0,49.0,47.0,7.0,-1.0,-3.0,17.0,35.0
1705334836.0818896,0.0,-112.0,-1.0,2.0,-11.0,-5.0,-9.0,-13.0
1705334836.0818896,-11.0,-110.0,7.0,-1.0,8.0,7.0,-3.0,-27.0
1705334836.0818896,0.0,-78.0,-39.0,-16.0,-8.0,4.0,2.0,-15.0
1705334836.0818896,-18.0,-74.0,16.0,19.0,9.0,14.0,-9.0,-13.0
1705334836.0818896,3.0,-6.0,-12.0,9.0,-4.0,-8.0,6.0,40.0
1705334836.0818896,4.0,23.0,22.0,-2.0,8.0,9.0,51.0,-1.0
1705334836.0920699,6.0,-1.0,-1.0,10.0,-4.0,2.0,1.0,-30.0
1705334836.0920699,27.0,-22.0,9.0,-3.0,-5.0,-24.0,-32.0,76.0
1705334836.0920699,2.0,27.0,-10.0,9.0,10.0,15.0,9.0,-54.0
1705334836.0920699,-41.0,5.0,4.0,-10.0,-4.0,4.0,-5.0,-5.0
1705334836.1220956,-8.0,13.0,-13.0,3.0,-7.0,-22.0,-5.0,3.0
1705334836.1220956,22.0,-13.0,21.0,13.0,10.0,36.0,20.0,-14.0
1705334836.1220956,-1.0,-2.0,1.0,-6.0,-3.0,-20.0,-24.0,24.0
1705334836.1220956,21.0,11.0,6.0,-7.0,-9.0,-19.0,-7.0,30.0
1705334836.1324072,-5.0,10.0,1.0,8.0,3.0,15.0,6.0,-12.0
1705334836.1324072,-14.0,-18.0,-7.0,-6.0,0.0,-14.0,-10.0,-21.0
1705334836.1424432,11.0,-1.0,15.0,3.0,1.0,4.0,1.0,7.0
1705334836.1424432,-8.0,-91.0,-12.0,-6.0,1.0,4.0,0.0,-3.0
1705334836.1524675,-3.0,-66.0,-16.0,-4.0,-2.0,-8.0,3.0,31.0
1705334836.1524675,-3.0,-49.0,8.0,-12.0,-8.0,-9.0,-14.0,-19.0
1705334836.162399,4.0,56.0,17.0,12.0,5.0,11.0,12.0,-1.0
1705334836.162399,12.0,59.0,3.0,-6.0,-3.0,-13.0,-28.0,-2.0
1705334836.182095,13.0,25.0,-15.0,-13.0,-6.0,-1.0,19.0,10.0
1705334836.182095,-16.0,7.0,-1.0,-12.0,-6.0,-1.0,-2.0,-16.0
1705334836.182095,-3.0,-17.0,-7.0,-7.0,-3.0,-6.0,-1.0,-11.0
1705334836.182095,13.0,11.0,3.0,-2.0,-9.0,-7.0,-21.0,9.0
1705334836.1921432,0.0,2.0,3.0,-8.0,-4.0,0.0,-1.0,11.0
1705334836.1921432,1.0,14.0,13.0,16.0,10.0,10.0,11.0,-8.0
1705334836.2120986,-2.0,-3.0,5.0,20.0,7.0,-1.0,-1.0,2.0
1705334836.2120986,-4.0,35.0,-9.0,-5.0,9.0,3.0,-4.0,-5.0
1705334836.2120986,-15.0,35.0,-10.0,-6.0,-5.0,1.0,4.0,4.0
1705334836.2120986,3.0,-11.0,-13.0,-16.0,-11.0,-9.0,0.0,-6.0
1705334836.2220988,21.0,21.0,18.0,-3.0,-10.0,-5.0,-8.0,-4.0
1705334836.2220988,19.0,-18.0,-23.0,-8.0,-8.0,3.0,4.0,-13.0
1705334836.242094,15.0,-8.0,14.0,11.0,1.0,4.0,6.0,-7.0
1705334836.242094,0.0,-11.0,-7.0,11.0,5.0,-6.0,3.0,45.0
1705334836.242094,9.0,18.0,-10.0,-6.0,2.0,25.0,6.0,-20.0
1705334836.242094,-7.0,30.0,9.0,5.0,0.0,4.0,5.0,-15.0
1705334836.2523901,-22.0,-23.0,0.0,-1.0,2.0,0.0,-5.0,-8.0
1705334836.2523901,-29.0,-63.0,26.0,16.0,4.0,4.0,3.0,10.0
1705334836.2621794,-64.0,17.0,-6.0,-18.0,4.0,-8.0,-3.0,6.0
1705334836.2621794,-18.0,6.0,-10.0,-4.0,-7.0,-12.0,-11.0,-20.0
1705334836.2720942,-11.0,28.0,-10.0,2.0,-4.0,-3.0,-5.0,-5.0
1705334836.2720942,6.0,34.0,3.0,0.0,1.0,-2.0,-1.0,-16.0
1705334836.2720942,4.0,-36.0,8.0,2.0,-5.0,-9.0,-2.0,12.0
1705334836.2720942,5.0,-21.0,-14.0,-5.0,-2.0,-37.0,-17.0,1.0
1705334836.3022304,15.0,-7.0,-15.0,-14.0,-12.0,1.0,11.0,19.0
1705334836.3022304,21.0,19.0,4.0,1.0,7.0,26.0,-5.0,-18.0
1705334836.3022304,-15.0,-20.0,5.0,6.0,1.0,3.0,16.0,-27.0
1705334836.3022304,-17.0,-14.0,-12.0,-6.0,-1.0,-2.0,26.0,18.0
1705334836.3124232,8.0,-21.0,7.0,-1.0,-3.0,-6.0,-10.0,-10.0
1705334836.3124232,10.0,-16.0,-3.0,2.0,-3.0,-17.0,-8.0,-3.0
1705334836.3221412,9.0,-10.0,4.0,-13.0,-12.0,-5.0,-10.0,0.0
1705334836.3221412,8.0,21.0,18.0,-9.0,-2.0,0.0,-8.0,-2.0
1705334836.3420937,-13.0,-16.0,-17.0,22.0,11.0,-7.0,-2.0,7.0
1705334836.3420937,-6.0,-10.0,-47.0,-11.0,6.0,4.0,-1.0,-11.0
1705334836.3420937,-8.0,5.0,29.0,9.0,1.0,0.0,-3.0,-16.0
1705334836.3420937,3.0,8.0,33.0,14.0,-11.0,-1.0,-8.0,17.0
1705334836.3624437,-7.0,-11.0,-30.0,-22.0,-8.0,3.0,-6.0,-5.0
1705334836.3624437,2.0,2.0,0.0,1.0,-3.0,1.0,12.0,32.0
1705334836.3624437,13.0,-2.0,-65.0,-4.0,3.0,10.0,15.0,7.0
1705334836.3624437,8.0,-15.0,-10.0,-11.0,-1.0,7.0,-2.0,-1.0
1705334836.3724697,-14.0,4.0,32.0,0.0,-1.0,1.0,-2.0,-7.0
1705334836.3724697,-9.0,-3.0,-5.0,2.0,0.0,-12.0,-5.0,-6.0
1705334836.3821576,-7.0,-7.0,-17.0,-5.0,-4.0,-18.0,-21.0,-2.0
1705334836.3821576,11.0,-12.0,-1.0,5.0,10.0,31.0,28.0,14.0
1705334836.3920944,9.0,13.0,0.0,4.0,2.0,4.0,-4.0,-1.0
1705334836.3920944,-12.0,0.0,3.0,-9.0,-7.0,-24.0,-19.0,-21.0
1705334836.3920944,12.0,-17.0,25.0,0.0,1.0,29.0,2.0,15.0
1705334836.3920944,-6.0,-1.0,-15.0,2.0,4.0,4.0,0.0,-23.0
1705334836.4224932,-5.0,-29.0,-8.0,-4.0,-3.0,-2.0,5.0,8.0
1705334836.4224932,-1.0,23.0,14.0,-16.0,-1.0,7.0,-7.0,-15.0
1705334836.4224932,-3.0,24.0,12.0,5.0,-7.0,-21.0,-5.0,-13.0
1705334836.4224932,0.0,-27.0,-50.0,-10.0,1.0,-3.0,-7.0,9.0
1705334836.43246,-1.0,-3.0,56.0,7.0,0.0,-3.0,5.0,-31.0
1705334836.43246,9.0,12.0,-15.0,8.0,-11.0,-15.0,-9.0,21.0
1705334836.4421568,16.0,-32.0,0.0,-3.0,3.0,-4.0,-14.0,1.0
1705334836.4421568,-14.0,60.0,43.0,12.0,3.0,16.0,13.0,2.0
1705334836.4521372,-24.0,14.0,-45.0,-9.0,4.0,0.0,5.0,-3.0
1705334836.4521372,-1.0,-11.0,-1.0,1.0,4.0,7.0,6.0,-23.0
1705334836.4521372,4.0,-3.0,6.0,4.0,-1.0,-8.0,-7.0,4.0
1705334836.4521372,5.0,-10.0,-2.0,-3.0,-1.0,-5.0,-4.0,14.0
1705334836.4824324,-8.0,-6.0,4.0,1.0,-2.0,-10.0,-18.0,-10.0
1705334836.4824324,8.0,14.0,14.0,5.0,3.0,8.0,9.0,-2.0
1705334836.4921958,5.0,-3.0,-12.0,-9.0,-2.0,11.0,34.0,5.0
1705334836.4921958,9.0,-25.0,24.0,1.0,-2.0,4.0,-8.0,-20.0
1705334836.5121474,-11.0,6.0,-31.0,7.0,-9.0,-5.0,3.0,6.0
1705334836.5121474,-9.0,-7.0,-27.0,-3.0,8.0,-8.0,-3.0,-10.0
1705334836.5121474,9.0,35.0,31.0,-25.0,2.0,-7.0,-12.0,3.0
1705334836.5121474,-3.0,-28.0,-11.0,17.0,5.0,-2.0,-5.0,4.0
1705334836.5121474,10.0,-2.0,-5.0,8.0,-2.0,-3.0,-4.0,11.0
1705334836.5121474,-10.0,37.0,17.0,29.0,-20.0,0.0,4.0,-5.0
1705334836.5121474,-8.0,-30.0,-22.0,-22.0,14.0,6.0,2.0,-2.0
1705334836.5121474,-1.0,4.0,4.0,-30.0,-11.0,-8.0,-13.0,0.0
1705334836.5423608,18.0,27.0,19.0,-24.0,-11.0,5.0,10.0,9.0
1705334836.5423608,-22.0,-54.0,-39.0,9.0,25.0,9.0,3.0,-10.0
1705334836.5423608,1.0,-7.0,34.0,35.0,1.0,-6.0,-3.0,5.0
1705334836.5423608,3.0,-2.0,15.0,37.0,-2.0,-12.0,-9.0,1.0
1705334836.5636003,8.0,-15.0,21.0,-13.0,-1.0,-1.0,-3.0,7.0
1705334836.5636003,-5.0,9.0,12.0,1.0,-16.0,5.0,3.0,-3.0
1705334836.5647287,-8.0,-30.0,-58.0,12.0,14.0,1.0,0.0,-2.0
1705334836.5647287,-1.0,-8.0,-36.0,-21.0,0.0,2.0,0.0,-1.0
1705334836.5797598,1.0,10.0,29.0,-14.0,-5.0,0.0,-1.0,-1.0
1705334836.5797598,-2.0,-21.0,40.0,-9.0,-9.0,-13.0,-10.0,-5.0
1705334836.5815232,9.0,-1.0,-1.0,18.0,-2.0,-2.0,-4.0,-3.0
1705334836.5815232,-14.0,24.0,-29.0,-8.0,-3.0,-4.0,-3.0,-21.0
1705334836.5948582,16.0,29.0,1.0,5.0,10.0,11.0,8.0,31.0
1705334836.5948582,9.0,-11.0,21.0,-11.0,-9.0,-15.0,-16.0,-13.0
1705334836.5948582,0.0,-15.0,-11.0,-1.0,-6.0,-17.0,-15.0,17.0
1705334836.5948582,1.0,-16.0,2.0,-6.0,4.0,23.0,26.0,-11.0
1705334836.6146035,-8.0,21.0,10.0,11.0,9.0,13.0,4.0,-35.0
1705334836.6146035,-1.0,2.0,-9.0,-4.0,10.0,22.0,5.0,6.0
1705334836.624816,14.0,26.0,10.0,10.0,-5.0,12.0,6.0,14.0
1705334836.624816,6.0,6.0,-12.0,-11.0,-9.0,-35.0,-37.0,16.0
1705334836.635022,-39.0,-57.0,11.0,5.0,3.0,11.0,44.0,8.0
1705334836.635022,-1.0,8.0,14.0,3.0,2.0,5.0,10.0,-11.0
1705334836.635022,-3.0,-22.0,-1.0,-6.0,-4.0,-3.0,-23.0,3.0
1705334836.635022,-19.0,-8.0,-7.0,-4.0,-1.0,-10.0,-1.0,11.0
1705334836.6646154,-7.0,53.0,-22.0,-1.0,-6.0,-14.0,-28.0,8.0
1705334836.6646154,14.0,6.0,-12.0,-7.0,-5.0,-10.0,-13.0,8.0
1705334836.6747892,-3.0,9.0,21.0,-8.0,-2.0,3.0,9.0,-17.0
1705334836.6747892,1.0,-6.0,-14.0,2.0,2.0,0.0,-3.0,3.0
1705334836.682804,7.0,-32.0,10.0,7.0,-1.0,-9.0,-8.0,10.0
1705334836.682804,-11.0,-11.0,-1.0,-12.0,-5.0,-1.0,7.0,-13.0
1705334836.682804,9.0,38.0,40.0,9.0,-7.0,-4.0,-2.0,9.0
1705334836.682804,-10.0,-30.0,-48.0,-4.0,-2.0,6.0,8.0,-7.0
1705334836.6928546,-10.0,13.0,-6.0,21.0,8.0,2.0,-2.0,-7.0
1705334836.6928546,12.0,-38.0,-30.0,-29.0,15.0,4.0,-1.0,12.0
1705334836.6928546,1.0,34.0,14.0,-17.0,-1.0,-2.0,7.0,-6.0
1705334836.6928546,-7.0,22.0,-21.0,33.0,4.0,-3.0,-5.0,-2.0
1705334836.7228758,2.0,0.0,42.0,-11.0,-9.0,-8.0,-9.0,-8.0
1705334836.7228758,8.0,1.0,10.0,-4.0,-10.0,-6.0,-1.0,7.0
1705334836.7228758,-21.0,-9.0,13.0,13.0,-1.0,0.0,3.0,-3.0
1705334836.7228758,5.0,3.0,18.0,-10.0,3.0,2.0,2.0,-12.0
1705334836.732814,9.0,-7.0,-40.0,7.0,8.0,25.0,29.0,8.0
1705334836.732814,-13.0,2.0,2.0,5.0,-6.0,2.0,-5.0,14.0
1705334836.742901,7.0,-8.0,-21.0,-6.0,0.0,6.0,16.0,-7.0
1705334836.742901,-8.0,-2.0,16.0,-13.0,-6.0,-11.0,-22.0,-3.0
1705334836.76311,36.0,-11.0,-5.0,1.0,0.0,4.0,4.0,-2.0
1705334836.76311,-12.0,7.0,-5.0,-3.0,1.0,-6.0,-6.0,2.0
1705334836.76311,2.0,-10.0,-2.0,-14.0,-7.0,3.0,3.0,-1.0
1705334836.76311,-24.0,-25.0,5.0,16.0,0.0,-5.0,0.0,-24.0
1705334836.7928188,1.0,-33.0,3.0,-9.0,8.0,-13.0,-16.0,23.0
1705334836.7928188,3.0,42.0,-7.0,7.0,0.0,14.0,5.0,-15.0
1705334836.7928188,-7.0,-31.0,-12.0,-7.0,-6.0,-13.0,-11.0,16.0
1705334836.7928188,15.0,-8.0,32.0,11.0,2.0,9.0,14.0,-16.0
1705334836.7928188,-3.0,23.0,-64.0,-15.0,-9.0,-11.0,-21.0,-15.0
1705334836.7928188,-5.0,-13.0,41.0,-4.0,0.0,1.0,10.0,10.0
1705334836.803048,-5.0,-16.0,12.0,3.0,-6.0,-21.0,-7.0,-31.0
1705334836.803048,3.0,16.0,28.0,-5.0,-10.0,-39.0,-26.0,11.0
1705334836.8130748,-10.0,-3.0,4.0,6.0,7.0,77.0,54.0,-13.0
1705334836.8130748,3.0,-20.0,-31.0,16.0,7.0,-20.0,10.0,6.0
1705334836.8130748,23.0,26.0,-8.0,-22.0,-2.0,13.0,-3.0,1.0
1705334836.8130748,3.0,-44.0,42.0,-24.0,-8.0,-10.0,-4.0,9.0
1705334836.8428905,-22.0,62.0,-39.0,-7.0,-12.0,-33.0,-43.0,-9.0
1705334836.8428905,-10.0,0.0,-17.0,8.0,0.0,-2.0,-8.0,-10.0
1705334836.8428905,-8.0,-14.0,-19.0,-9.0,5.0,0.0,-2.0,-5.0
1705334836.8428905,17.0,19.0,-37.0,8.0,-1.0,2.0,19.0,16.0
1705334836.8728135,-8.0,-14.0,24.0,-14.0,-3.0,-8.0,-3.0,1.0
1705334836.8728135,-1.0,-22.0,22.0,2.0,-3.0,7.0,2.0,-5.0
1705334836.8728135,6.0,-9.0,-23.0,9.0,-2.0,-17.0,-19.0,-3.0
1705334836.8728135,7.0,-21.0,-2.0,-13.0,-2.0,18.0,3.0,5.0
1705334836.8728135,-14.0,25.0,21.0,-1.0,-3.0,-5.0,0.0,2.0
1705334836.8728135,24.0,-12.0,-31.0,1.0,-1.0,-1.0,-1.0,-6.0
1705334836.8728135,-14.0,26.0,2.0,12.0,4.0,-2.0,-5.0,1.0
1705334836.8728135,7.0,17.0,-9.0,7.0,8.0,18.0,14.0,-6.0
1705334836.902845,18.0,-16.0,37.0,-5.0,-4.0,-9.0,0.0,42.0
1705334836.902845,-3.0,-3.0,-15.0,-5.0,-2.0,-15.0,-13.0,-1.0
1705334836.902845,20.0,18.0,26.0,9.0,-2.0,8.0,4.0,26.0
1705334836.902845,-15.0,-16.0,-23.0,-11.0,2.0,14.0,1.0,-26.0
1705334836.9230947,-4.0,-15.0,-27.0,1.0,-4.0,-18.0,-2.0,-7.0
1705334836.9230947,-10.0,5.0,11.0,-9.0,-1.0,-11.0,-18.0,-8.0
1705334836.9230947,-15.0,17.0,-23.0,2.0,-7.0,-32.0,-14.0,11.0
1705334836.9230947,28.0,-1.0,-3.0,1.0,8.0,59.0,50.0,5.0
1705334836.9330957,-18.0,-36.0,33.0,13.0,7.0,9.0,0.0,-14.0
1705334836.9330957,10.0,-18.0,25.0,5.0,-9.0,-2.0,17.0,-15.0
1705334836.9330957,2.0,11.0,20.0,17.0,3.0,-12.0,-40.0,6.0
1705334836.9330957,-42.0,20.0,-13.0,-9.0,-6.0,-21.0,-9.0,19.0
1705334836.9628603,35.0,-14.0,1.0,-21.0,-3.0,-16.0,-20.0,10.0
1705334836.9628603,-13.0,12.0,-11.0,4.0,3.0,21.0,13.0,-67.0
1705334836.9628603,-20.0,-26.0,-23.0,-9.0,-5.0,-3.0,-17.0,14.0
1705334836.9628603,37.0,14.0,7.0,17.0,2.0,-28.0,-49.0,10.0
1705334836.983143,-4.0,15.0,-8.0,8.0,-2.0,10.0,5.0,-5.0
1705334836.983143,-16.0,-8.0,-13.0,-24.0,2.0,35.0,41.0,29.0
1705334836.983143,-13.0,-11.0,11.0,-10.0,2.0,26.0,40.0,-39.0
1705334836.983143,-21.0,-10.0,2.0,-3.0,-3.0,-11.0,-62.0,-20.0
1705334836.9930985,15.0,-2.0,-9.0,1.0,-4.0,-35.0,15.0,-11.0
1705334836.9930985,16.0,-5.0,31.0,18.0,4.0,1.0,-10.0,66.0
1705334837.0128174,-2.0,-21.0,3.0,-5.0,-2.0,15.0,38.0,-9.0
1705334837.0128174,-22.0,2.0,0.0,-11.0,-18.0,-4.0,14.0,15.0
1705334837.0128174,-6.0,12.0,-23.0,-1.0,-14.0,-21.0,-51.0,-21.0
1705334837.0128174,-7.0,26.0,13.0,7.0,9.0,-3.0,-8.0,10.0
1705334837.022847,11.0,38.0,-34.0,-15.0,4.0,-4.0,-5.0,-11.0
1705334837.022847,14.0,-86.0,88.0,-40.0,-15.0,-9.0,-7.0,-3.0
1705334837.0428674,-14.0,89.0,7.0,59.0,-13.0,1.0,-6.0,-11.0
1705334837.0428674,-34.0,22.0,-29.0,-64.0,-24.0,-10.0,2.0,-6.0
1705334837.0428674,11.0,-80.0,-81.0,-41.0,23.0,10.0,1.0,6.0
1705334837.0428674,20.0,38.0,65.0,8.0,-12.0,3.0,5.0,-11.0
1705334837.0529263,-13.0,-58.0,-102.0,-40.0,8.0,12.0,19.0,8.0
1705334837.0529263,16.0,-22.0,50.0,15.0,36.0,4.0,2.0,4.0
1705334837.0728452,-3.0,56.0,43.0,22.0,-11.0,-12.0,-8.0,-13.0
1705334837.0728452,-4.0,-39.0,-112.0,6.0,3.0,-3.0,12.0,26.0
1705334837.0828602,-2.0,-33.0,40.0,-13.0,-5.0,12.0,10.0,13.0
1705334837.0828602,-6.0,12.0,7.0,20.0,-7.0,-6.0,-14.0,-20.0
1705334837.0828602,18.0,-26.0,24.0,-6.0,-6.0,-2.0,2.0,6.0
1705334837.0828602,-11.0,35.0,9.0,10.0,0.0,4.0,15.0,-9.0
1705334837.105402,-11.0,-23.0,-36.0,-7.0,-10.0,-8.0,-20.0,-2.0
1705334837.105402,21.0,-18.0,-28.0,-8.0,-3.0,-4.0,8.0,-15.0
1705334837.106407,-23.0,-9.0,13.0,10.0,-5.0,-1.0,-2.0,8.0
1705334837.106407,-15.0,3.0,6.0,8.0,-3.0,-3.0,-4.0,-21.0
1705334837.1172082,3.0,11.0,-17.0,-2.0,9.0,-1.0,0.0,-11.0
1705334837.1172082,-5.0,4.0,5.0,-1.0,3.0,-5.0,-14.0,-2.0
1705334837.1272345,-1.0,63.0,-2.0,9.0,-12.0,-8.0,-43.0,-8.0
1705334837.1272345,-4.0,114.0,-32.0,-8.0,3.0,2.0,47.0,5.0
1705334837.137524,9.0,65.0,25.0,-12.0,5.0,-20.0,-20.0,0.0
1705334837.137524,9.0,127.0,8.0,16.0,1.0,68.0,27.0,-3.0
1705334837.137524,-14.0,47.0,-3.0,2.0,-2.0,10.0,41.0,20.0
1705334837.137524,-7.0,-72.0,-18.0,-10.0,4.0,-10.0,-43.0,-14.0
1705334837.1580436,8.0,-98.0,26.0,8.0,3.0,-3.0,12.0,-4.0
1705334837.1580436,3.0,-113.0,-12.0,8.0,-9.0,-26.0,-3.0,21.0
1705334837.1580436,-1.0,-56.0,-6.0,2.0,0.0,13.0,-3.0,-9.0
1705334837.1580436,7.0,4.0,34.0,8.0,12.0,5.0,11.0,17.0
1705334837.177651,-9.0,-37.0,7.0,17.0,3.0,4.0,2.0,-19.0
1705334837.177651,2.0,-1.0,-19.0,-14.0,-12.0,-23.0,-26.0,-6.0
1705334837.187633,-14.0,11.0,5.0,-3.0,-3.0,1.0,3.0,-3.0
1705334837.187633,13.0,8.0,-6.0,15.0,2.0,-2.0,2.0,13.0
1705334837.1976295,-17.0,-10.0,-8.0,-14.0,-6.0,-2.0,-5.0,-10.0
1705334837.1976295,2.0,18.0,-5.0,7.0,-1.0,-5.0,-9.0,-4.0
1705334837.1976295,16.0,-5.0,14.0,-35.0,-13.0,-7.0,5.0,15.0
1705334837.1976295,-18.0,-13.0,-17.0,11.0,6.0,4.0,3.0,-19.0
1705334837.2180097,18.0,18.0,12.0,-9.0,4.0,10.0,3.0,2.0
1705334837.2180097,0.0,2.0,19.0,26.0,10.0,-9.0,-1.0,1.0
1705334837.2180097,6.0,-19.0,-26.0,-1.0,-2.0,-4.0,-1.0,-8.0
1705334837.2180097,12.0,11.0,-2.0,-5.0,-11.0,-2.0,-7.0,7.0
1705334837.2380242,19.0,28.0,41.0,3.0,3.0,7.0,4.0,14.0
1705334837.2380242,-5.0,-5.0,3.0,-21.0,-13.0,-15.0,-11.0,9.0
1705334837.2480214,0.0,-39.0,18.0,14.0,3.0,1.0,-2.0,-45.0
1705334837.2480214,-12.0,-14.0,-3.0,-4.0,4.0,7.0,3.0,30.0
1705334837.2583437,-14.0,-22.0,-42.0,-7.0,0.0,-1.0,6.0,-18.0
1705334837.2583437,-20.0,-7.0,-2.0,1.0,-3.0,-8.0,-6.0,28.0
1705334837.2583437,6.0,27.0,14.0,10.0,4.0,-1.0,-12.0,25.0
1705334837.2583437,-12.0,26.0,-6.0,3.0,3.0,10.0,35.0,-10.0
1705334837.2784266,3.0,-8.0,15.0,7.0,2.0,3.0,-2.0,26.0
1705334837.2784266,-4.0,-14.0,-3.0,-8.0,-5.0,-14.0,-12.0,-37.0
1705334837.2784266,1.0,-12.0,-5.0,0.0,-4.0,-20.0,-35.0,-27.0
1705334837.2784266,11.0,-6.0,-3.0,-5.0,0.0,-14.0,5.0,10.0
1705334837.2975314,7.0,-5.0,3.0,1.0,3.0,67.0,55.0,20.0
1705334837.2975314,8.0,6.0,-17.0,1.0,2.0,-14.0,10.0,-7.0
1705334837.307543,5.0,-1.0,-8.0,5.0,4.0,10.0,5.0,16.0
1705334837.307543,0.0,0.0,-5.0,-8.0,-6.0,-23.0,-34.0,-20.0
1705334837.3179731,2.0,6.0,0.0,-5.0,-4.0,-15.0,-9.0,-7.0
1705334837.3179731,6.0,14.0,8.0,4.0,-8.0,-2.0,3.0,-1.0
1705334837.3179731,-10.0,-5.0,-7.0,9.0,3.0,8.0,4.0,-7.0
1705334837.3179731,4.0,15.0,-5.0,-7.0,-3.0,-15.0,-17.0,1.0
1705334837.3379793,-5.0,-5.0,-12.0,2.0,-2.0,-11.0,-31.0,-32.0
1705334837.3379793,16.0,-12.0,38.0,5.0,3.0,13.0,35.0,10.0
1705334837.3379793,-9.0,2.0,-21.0,-3.0,-9.0,-5.0,-4.0,-7.0
1705334837.3379793,-10.0,-9.0,11.0,-17.0,-8.0,6.0,3.0,24.0
1705334837.357573,5.0,15.0,0.0,15.0,-4.0,-19.0,-10.0,3.0
1705334837.357573,-9.0,4.0,-11.0,-11.0,-4.0,-1.0,-13.0,-14.0
1705334837.3675447,3.0,16.0,-22.0,-8.0,4.0,-2.0,8.0,-1.0
1705334837.3675447,12.0,7.0,-7.0,2.0,4.0,3.0,1.0,9.0
1705334837.3775444,-3.0,23.0,12.0,-2.0,-3.0,-6.0,-5.0,-3.0
1705334837.3775444,1.0,21.0,-27.0,0.0,-5.0,-32.0,-23.0,-3.0
1705334837.3775444,-8.0,5.0,4.0,1.0,6.0,54.0,27.0,11.0
1705334837.3775444,-2.0,-22.0,20.0,-4.0,-3.0,13.0,4.0,-18.0
1705334837.4075422,-7.0,-36.0,12.0,18.0,8.0,-8.0,2.0,3.0
1705334837.4075422,-9.0,-25.0,-2.0,-6.0,-3.0,2.0,7.0,1.0
1705334837.4075422,-1.0,-10.0,-5.0,0.0,0.0,-23.0,-9.0,-5.0
1705334837.4075422,-14.0,-9.0,-28.0,-8.0,-3.0,0.0,-11.0,-8.0
1705334837.417755,4.0,-15.0,20.0,0.0,-5.0,-10.0,-5.0,6.0
1705334837.417755,5.0,14.0,-8.0,-3.0,-5.0,2.0,-10.0,-2.0
1705334837.4275398,-2.0,10.0,19.0,-1.0,4.0,14.0,14.0,5.0
1705334837.4275398,2.0,-1.0,-23.0,10.0,18.0,1.0,0.0,-13.0
1705334837.437957,4.0,7.0,5.0,-8.0,-1.0,-5.0,7.0,9.0
1705334837.437957,2.0,3.0,-11.0,-6.0,-8.0,1.0,-10.0,-2.0
1705334837.437957,-3.0,-4.0,27.0,-4.0,-14.0,-16.0,-3.0,1.0
1705334837.437957,12.0,-7.0,15.0,11.0,-3.0,1.0,-2.0,-2.0
1705334837.45754,1.0,-3.0,-18.0,15.0,2.0,-5.0,-4.0,6.0
1705334837.45754,-21.0,-5.0,-20.0,-30.0,4.0,5.0,-1.0,-5.0
1705334837.45754,-5.0,-10.0,38.0,17.0,8.0,0.0,0.0,-4.0
1705334837.45754,-2.0,-9.0,-10.0,-6.0,-11.0,-23.0,-13.0,16.0
1705334837.477973,-5.0,17.0,2.0,-16.0,-9.0,-19.0,-16.0,-19.0
1705334837.477973,2.0,-13.0,9.0,10.0,3.0,26.0,8.0,-10.0
1705334837.4875424,-9.0,-23.0,-16.0,-7.0,-1.0,12.0,19.0,-4.0
1705334837.4875424,19.0,-11.0,27.0,8.0,4.0,-1.0,-2.0,2.0
1705334837.507539,-6.0,32.0,-36.0,-13.0,-8.0,0.0,0.0,3.0
1705334837.507539,-31.0,-14.0,0.0,-13.0,-6.0,-18.0,-17.0,-23.0
1705334837.507539,2.0,-8.0,-43.0,-3.0,0.0,-8.0,0.0,-9.0
1705334837.507539,-38.0,14.0,45.0,1.0,-3.0,-3.0,3.0,-8.0
1705334837.5178185,20.0,2.0,-2.0,7.0,3.0,8.0,1.0,-13.0
1705334837.5178185,5.0,10.0,-3.0,-2.0,0.0,-3.0,-3.0,5.0
1705334837.527761,3.0,-22.0,2.0,-3.0,-1.0,-7.0,-4.0,16.0
1705334837.527761,-25.0,-1.0,24.0,11.0,-5.0,-8.0,-6.0,-1.0
1705334837.5377977,0.0,-10.0,19.0,11.0,-1.0,13.0,10.0,-21.0
1705334837.5377977,-15.0,-11.0,13.0,19.0,9.0,14.0,4.0,21.0
1705334837.547541,35.0,-30.0,-10.0,-6.0,-4.0,-12.0,6.0,8.0
1705334837.547541,25.0,24.0,-83.0,-26.0,-6.0,5.0,-10.0,2.0
1705334837.5675387,-29.0,-31.0,33.0,1.0,3.0,0.0,-4.0,2.0
1705334837.5675387,48.0,4.0,-16.0,4.0,-1.0,3.0,2.0,2.0
1705334837.5675387,-17.0,1.0,6.0,-2.0,-3.0,-17.0,-18.0,-13.0
1705334837.5675387,16.0,-2.0,4.0,0.0,-1.0,15.0,23.0,18.0
1705334837.5778208,-2.0,-1.0,-22.0,-20.0,-2.0,-2.0,-8.0,4.0
1705334837.5778208,-4.0,11.0,20.0,13.0,-1.0,-9.0,0.0,-2.0
1705334837.5778208,-5.0,17.0,-9.0,2.0,-2.0,-11.0,-9.0,8.0
1705334837.587549,-12.0,-7.0,-30.0,-23.0,-10.0,1.0,-1.0,-21.0
1705334837.597884,-4.0,-7.0,-26.0,-1.0,2.0,1.0,-3.0,7.0
1705334837.597884,12.0,-12.0,43.0,3.0,4.0,3.0,2.0,12.0
1705334837.6075444,-16.0,12.0,29.0,22.0,8.0,-2.0,-4.0,7.0
1705334837.6075444,-9.0,-5.0,7.0,-12.0,-1.0,7.0,3.0,-15.0
1705334837.6388476,4.0,-6.0,-4.0,7.0,-4.0,-6.0,1.0,7.0
1705334837.6388476,-9.0,-8.0,-38.0,7.0,-6.0,-2.0,1.0,-1.0
1705334837.6388476,1.0,-18.0,36.0,7.0,7.0,5.0,3.0,-5.0
1705334837.6388476,6.0,4.0,-1.0,-8.0,0.0,0.0,2.0,-1.0
1705334837.6448514,-8.0,20.0,-15.0,-16.0,-5.0,-9.0,-8.0,6.0
1705334837.6448514,3.0,9.0,-2.0,-13.0,-9.0,-7.0,-8.0,-6.0
1705334837.6469097,-4.0,13.0,-10.0,1.0,-2.0,-1.0,9.0,-11.0
1705334837.6469097,7.0,-17.0,7.0,15.0,3.0,-5.0,-14.0,4.0
1705334837.650065,-10.0,-26.0,19.0,10.0,4.0,18.0,12.0,-33.0
1705334837.650065,-1.0,34.0,-22.0,1.0,-4.0,-4.0,3.0,3.0
1705334837.6602402,-6.0,-16.0,-9.0,-10.0,-5.0,-2.0,-11.0,-4.0
1705334837.6602402,1.0,2.0,4.0,-8.0,4.0,-5.0,1.0,-7.0
1705334837.6900666,-20.0,28.0,-31.0,7.0,-6.0,-1.0,0.0,7.0
1705334837.6900666,10.0,-15.0,-33.0,-5.0,4.0,1.0,-1.0,-4.0
1705334837.698074,-17.0,32.0,-3.0,-63.0,-18.0,-35.0,-20.0,29.0
1705334837.698074,-24.0,-10.0,52.0,38.0,6.0,20.0,9.0,-27.0
1705334837.698074,-16.0,-2.0,4.0,2.0,-2.0,-14.0,-14.0,26.0
1705334837.698074,20.0,-37.0,-21.0,10.0,-1.0,-12.0,3.0,3.0
1705334837.698074,-13.0,14.0,-18.0,13.0,2.0,24.0,9.0,-80.0
1705334837.698074,13.0,0.0,-30.0,-13.0,-3.0,-13.0,15.0,48.0
1705334837.7180834,1.0,4.0,18.0,-7.0,2.0,11.0,5.0,5.0
1705334837.7180834,-25.0,-12.0,13.0,-3.0,3.0,4.0,-7.0,-12.0
1705334837.7280812,26.0,4.0,-2.0,1.0,-8.0,-16.0,11.0,30.0
1705334837.7280812,-19.0,-1.0,-1.0,7.0,0.0,3.0,-14.0,-28.0
1705334837.7382529,20.0,-12.0,-16.0,-13.0,4.0,-4.0,-1.0,8.0
1705334837.7382529,-24.0,-19.0,-3.0,-10.0,-1.0,-8.0,4.0,2.0
1705334837.7382529,-6.0,26.0,12.0,-3.0,-5.0,5.0,-11.0,-10.0
1705334837.7382529,2.0,-6.0,-19.0,-6.0,-4.0,-3.0,-6.0,-6.0
1705334837.7583535,4.0,-33.0,-1.0,-5.0,-4.0,-8.0,-3.0,5.0
1705334837.7583535,-12.0,34.0,22.0,15.0,-3.0,5.0,-9.0,-13.0
1705334837.7583535,5.0,-11.0,-8.0,-26.0,-7.0,-2.0,-4.0,7.0
1705334837.7583535,12.0,-31.0,19.0,15.0,4.0,4.0,11.0,10.0
1705334837.7880874,-2.0,12.0,20.0,-13.0,6.0,-5.0,-11.0,-17.0
1705334837.7880874,0.0,-23.0,-25.0,-13.0,-6.0,2.0,8.0,6.0
1705334837.798083,-1.0,-42.0,10.0,28.0,7.0,2.0,-2.0,7.0
1705334837.798083,8.0,5.0,-44.0,-12.0,-7.0,-3.0,-7.0,0.0
1705334837.80808,4.0,50.0,42.0,13.0,-3.0,2.0,3.0,-7.0
1705334837.80808,6.0,-7.0,7.0,-12.0,-3.0,-1.0,1.0,2.0
1705334837.80808,4.0,33.0,23.0,7.0,3.0,4.0,1.0,9.0
1705334837.80808,9.0,-20.0,-22.0,-4.0,-2.0,-3.0,-2.0,-4.0
1705334837.8281267,-17.0,22.0,-27.0,10.0,3.0,-1.0,2.0,-6.0
1705334837.8281267,19.0,12.0,23.0,8.0,5.0,6.0,1.0,-9.0
1705334837.8281267,1.0,-18.0,-9.0,-12.0,-4.0,2.0,0.0,9.0
1705334837.8281267,-15.0,11.0,9.0,-3.0,-4.0,-6.0,2.0,-10.0
1705334837.8381577,16.0,30.0,-7.0,-11.0,-7.0,-15.0,-23.0,8.0
1705334837.8481598,6.0,-17.0,30.0,9.0,1.0,3.0,8.0,5.0
1705334837.8481598,-17.0,-20.0,-52.0,-2.0,7.0,22.0,13.0,-28.0
1705334837.8481598,0.0,18.0,40.0,13.0,6.0,6.0,9.0,-5.0
1705334837.8681822,-12.0,-34.0,13.0,16.0,-4.0,-8.0,2.0,-15.0
1705334837.8681822,11.0,23.0,-19.0,-7.0,-4.0,-13.0,-19.0,3.0
1705334837.8681822,21.0,-15.0,0.0,2.0,-1.0,2.0,8.0,54.0
1705334837.8681822,-31.0,6.0,-6.0,-10.0,0.0,6.0,-11.0,6.0
1705334837.87838,18.0,-10.0,-6.0,3.0,4.0,10.0,19.0,-55.0
1705334837.87838,-1.0,-18.0,16.0,0.0,-4.0,-1.0,-21.0,-15.0
1705334837.87838,10.0,25.0,21.0,1.0,-2.0,-2.0,9.0,-15.0
1705334837.87838,13.0,25.0,2.0,14.0,-1.0,-10.0,-13.0,4.0
1705334837.9181554,-7.0,-15.0,-17.0,-30.0,-1.0,28.0,15.0,22.0
1705334837.9181554,-5.0,-13.0,-12.0,-8.0,-1.0,-4.0,39.0,7.0
1705334837.9181554,12.0,20.0,5.0,14.0,4.0,15.0,1.0,-18.0
1705334837.9181554,-12.0,-13.0,-10.0,13.0,-3.0,-6.0,-23.0,-29.0
1705334837.9181554,-5.0,16.0,-14.0,-9.0,-3.0,-9.0,5.0,12.0
1705334837.9181554,2.0,8.0,7.0,4.0,-8.0,-7.0,-12.0,-1.0
1705334837.9283524,-3.0,-14.0,-3.0,-31.0,-11.0,-17.0,-2.0,5.0
1705334837.9283524,2.0,-21.0,-28.0,9.0,21.0,-1.0,-10.0,-3.0
1705334837.9384325,-17.0,-10.0,-5.0,-13.0,-13.0,-2.0,-7.0,5.0
1705334837.9384325,-26.0,53.0,-4.0,-12.0,-1.0,-4.0,-8.0,2.0
1705334837.9384325,4.0,-7.0,29.0,47.0,-1.0,-7.0,-10.0,6.0
1705334837.9384325,5.0,-10.0,6.0,-29.0,1.0,9.0,9.0,1.0
1705334837.958156,14.0,-4.0,-34.0,1.0,-6.0,-1.0,-6.0,9.0
1705334837.958156,-6.0,5.0,20.0,-11.0,-16.0,2.0,6.0,3.0
1705334837.9681628,-22.0,26.0,2.0,6.0,0.0,-1.0,-7.0,-4.0
1705334837.9681628,38.0,10.0,-11.0,-45.0,0.0,-2.0,10.0,2.0
1705334837.9784267,-2.0,41.0,3.0,44.0,-18.0,-8.0,2.0,1.0
1705334837.9784267,-7.0,-14.0,14.0,-26.0,32.0,3.0,-11.0,-5.0
1705334837.9883974,2.0,-54.0,-17.0,-25.0,-14.0,-7.0,-5.0,7.0
1705334837.9883974,-11.0,6.0,29.0,34.0,1.0,-4.0,6.0,14.0
1705334837.9984155,8.0,-48.0,-36.0,-20.0,-5.0,-2.0,-4.0,8.0
1705334837.9984155,-5.0,23.0,-17.0,16.0,0.0,8.0,4.0,-9.0
1705334837.9984155,-5.0,1.0,4.0,5.0,1.0,-10.0,-5.0,2.0
1705334837.9984155,2.0,-2.0,21.0,-5.0,-11.0,-12.0,-8.0,-12.0
1705334838.0281546,4.0,2.0,37.0,6.0,6.0,39.0,22.0,33.0
1705334838.0281546,3.0,14.0,-16.0,6.0,3.0,2.0,8.0,-3.0
1705334838.0281546,14.0,-32.0,-53.0,-26.0,2.0,-29.0,-2.0,6.0
1705334838.0281546,-22.0,-1.0,16.0,6.0,-7.0,17.0,9.0,-26.0
1705334838.0383596,-9.0,19.0,9.0,0.0,1.0,-16.0,-1.0,16.0
1705334838.0383596,-2.0,-30.0,-2.0,6.0,4.0,26.0,10.0,1.0
1705334838.048462,32.0,9.0,-24.0,-4.0,0.0,-13.0,-16.0,1.0
1705334838.048462,-4.0,13.0,7.0,3.0,-8.0,-7.0,-16.0,-8.0
1705334838.0585032,-6.0,-26.0,29.0,13.0,9.0,-7.0,-5.0,-26.0
1705334838.0585032,-10.0,-20.0,-82.0,-21.0,-6.0,-7.0,2.0,-3.0
1705334838.0585032,8.0,-2.0,39.0,3.0,-7.0,-10.0,-15.0,10.0
1705334838.0585032,1.0,-7.0,-5.0,-4.0,-8.0,-17.0,1.0,13.0
1705334838.078156,-8.0,0.0,33.0,2.0,5.0,7.0,-11.0,-25.0
1705334838.078156,-3.0,-5.0,8.0,18.0,4.0,12.0,8.0,42.0
1705334838.0881608,-28.0,-35.0,-33.0,13.0,8.0,4.0,23.0,-11.0
1705334838.0881608,12.0,11.0,6.0,-17.0,-4.0,23.0,8.0,21.0
1705334838.0985367,0.0,-22.0,14.0,-3.0,4.0,-10.0,-13.0,-23.0
1705334838.0985367,-2.0,-2.0,22.0,11.0,-4.0,-26.0,-16.0,-26.0
1705334838.1085036,-5.0,-14.0,33.0,10.0,9.0,24.0,18.0,6.0
1705334838.1085036,1.0,13.0,-19.0,-3.0,-3.0,-14.0,-3.0,1.0
1705334838.1185062,-4.0,13.0,-17.0,-11.0,-6.0,-17.0,-11.0,8.0
1705334838.1185062,24.0,-15.0,25.0,-2.0,-3.0,5.0,-4.0,0.0
1705334838.1185062,-7.0,5.0,2.0,4.0,2.0,6.0,-5.0,-3.0
1705334838.1185062,0.0,54.0,-14.0,-9.0,-14.0,-5.0,-3.0,-7.0
1705334838.1481562,13.0,8.0,12.0,10.0,7.0,1.0,0.0,3.0
1705334838.1481562,-18.0,-6.0,-15.0,-1.0,1.0,-6.0,-8.0,0.0
1705334838.1481562,-3.0,-1.0,5.0,-1.0,11.0,-7.0,-13.0,-8.0
1705334838.1481562,-3.0,-17.0,21.0,9.0,-4.0,-1.0,-20.0,-4.0
1705334838.1611083,19.0,-20.0,-54.0,-2.0,7.0,36.0,38.0,13.0
1705334838.1611083,-6.0,-8.0,17.0,-14.0,-5.0,-4.0,5.0,2.0
1705334838.170115,-3.0,11.0,-20.0,1.0,-6.0,-5.0,-14.0,-7.0
1705334838.170115,-21.0,19.0,-18.0,-27.0,-9.0,-16.0,-9.0,-4.0
1705334838.1833615,-5.0,4.0,13.0,5.0,-3.0,-19.0,-11.0,-3.0
1705334838.1833615,5.0,-22.0,-11.0,5.0,-1.0,3.0,-1.0,-3.0
1705334838.1833615,14.0,40.0,26.0,-11.0,-5.0,12.0,7.0,-1.0
1705334838.1833615,-21.0,-15.0,-21.0,3.0,1.0,-4.0,6.0,-10.0
1705334838.2033665,-10.0,-19.0,-5.0,-1.0,-1.0,-10.0,-11.0,-14.0
1705334838.2033665,12.0,13.0,-29.0,-1.0,0.0,1.0,8.0,13.0
1705334838.2033665,4.0,-2.0,-7.0,-2.0,-6.0,12.0,3.0,7.0
1705334838.2033665,14.0,-6.0,-5.0,-5.0,6.0,14.0,21.0,-3.0
1705334838.213682,-41.0,-2.0,23.0,2.0,-1.0,-16.0,-19.0,-47.0
1705334838.213682,14.0,17.0,13.0,5.0,-2.0,-9.0,-28.0,29.0
1705334838.2236466,-18.0,3.0,4.0,7.0,-1.0,-2.0,9.0,-16.0
1705334838.2236466,39.0,-31.0,18.0,16.0,6.0,6.0,-12.0,20.0
1705334838.2433977,-8.0,14.0,-14.0,-21.0,3.0,22.0,17.0,9.0
1705334838.2433977,-23.0,18.0,-11.0,-17.0,-9.0,-4.0,-11.0,-60.0
1705334838.2433977,-2.0,-9.0,3.0,2.0,-1.0,3.0,-7.0,48.0
1705334838.2433977,6.0,-5.0,49.0,17.0,9.0,17.0,58.0,16.0
1705334838.2637973,-34.0,-1.0,-21.0,2.0,-2.0,-13.0,-8.0,-4.0
1705334838.2637973,23.0,-7.0,-14.0,-7.0,-3.0,6.0,9.0,-22.0
1705334838.2637973,-16.0,-13.0,14.0,20.0,4.0,-14.0,-29.0,34.0
1705334838.2637973,6.0,-43.0,-37.0,-20.0,-8.0,-10.0,-8.0,18.0
1705334838.2737389,45.0,35.0,29.0,-1.0,1.0,4.0,24.0,15.0
1705334838.2737389,-47.0,0.0,5.0,4.0,-6.0,-2.0,-4.0,-15.0
1705334838.283703,-10.0,23.0,-5.0,3.0,10.0,10.0,7.0,-18.0
1705334838.283703,-5.0,-29.0,-22.0,-3.0,-7.0,-14.0,-13.0,1.0
1705334838.303363,3.0,6.0,-30.0,6.0,-7.0,1.0,-4.0,9.0
1705334838.303363,-1.0,19.0,24.0,2.0,26.0,-3.0,-11.0,15.0
1705334838.303363,9.0,9.0,-2.0,-47.0,-15.0,-4.0,-2.0,-26.0
1705334838.303363,-12.0,-9.0,-8.0,15.0,-5.0,1.0,-1.0,-6.0
1705334838.3233702,25.0,-17.0,8.0,-3.0,-3.0,-6.0,-8.0,1.0
1705334838.3233702,-13.0,-1.0,5.0,33.0,-3.0,0.0,8.0,7.0
1705334838.3233702,-18.0,4.0,-22.0,-25.0,-5.0,3.0,-1.0,-14.0
1705334838.3233702,5.0,15.0,6.0,-1.0,8.0,6.0,7.0,-4.0
1705334838.3533669,0.0,-40.0,-20.0,11.0,6.0,-4.0,-4.0,7.0
1705334838.3533669,10.0,18.0,1.0,8.0,12.0,3.0,1.0,4.0
1705334838.3533669,7.0,-1.0,12.0,-5.0,8.0,-1.0,7.0,-10.0
1705334838.3533669,-8.0,13.0,6.0,14.0,-11.0,-11.0,-27.0,-3.0
1705334838.3636408,11.0,-9.0,-9.0,-21.0,9.0,-24.0,-15.0,4.0
1705334838.3636408,-2.0,-26.0,-6.0,-2.0,-20.0,13.0,7.0,1.0
1705334838.3636408,10.0,31.0,59.0,36.0,3.0,11.0,12.0,-15.0
1705334838.3636408,-22.0,-4.0,14.0,-3.0,6.0,37.0,25.0,-2.0
1705334838.383809,-10.0,12.0,-81.0,-18.0,-10.0,-8.0,-4.0,24.0
1705334838.383809,-11.0,-22.0,17.0,-21.0,-5.0,-25.0,-12.0,3.0
1705334838.383809,-11.0,-30.0,-21.0,7.0,-10.0,-2.0,1.0,-15.0
1705334838.383809,30.0,33.0,18.0,-2.0,11.0,1.0,10.0,0.0
1705334838.4033635,-22.0,-35.0,14.0,-2.0,-1.0,-6.0,-12.0,14.0
1705334838.4033635,9.0,-14.0,11.0,0.0,-3.0,-2.0,5.0,-9.0
1705334838.4033635,-4.0,28.0,-13.0,0.0,0.0,14.0,14.0,-18.0
1705334838.4033635,15.0,-38.0,18.0,14.0,9.0,-14.0,-21.0,11.0
1705334838.423701,-25.0,38.0,2.0,-7.0,-7.0,11.0,16.0,-44.0
1705334838.423701,-9.0,-24.0,-44.0,-13.0,-7.0,-29.0,-18.0,-1.0
1705334838.423701,16.0,-2.0,-2.0,3.0,-2.0,21.0,6.0,34.0
1705334838.423701,-20.0,-2.0,11.0,-10.0,-6.0,-18.0,-5.0,-41.0
1705334838.4436712,30.0,3.0,20.0,5.0,-1.0,42.0,-5.0,4.0
1705334838.4436712,13.0,-24.0,-15.0,-4.0,2.0,2.0,32.0,4.0
1705334838.4436712,-2.0,8.0,-30.0,-7.0,5.0,-2.0,8.0,-8.0
1705334838.4436712,-4.0,5.0,38.0,7.0,-9.0,-19.0,-14.0,20.0
1705334838.4833622,3.0,-14.0,-6.0,7.0,-4.0,-19.0,-20.0,-9.0
1705334838.4833622,-3.0,31.0,0.0,11.0,2.0,10.0,-12.0,-7.0
1705334838.4833622,-15.0,-23.0,-21.0,-29.0,-19.0,-31.0,-31.0,-2.0
1705334838.4833622,-2.0,-4.0,-40.0,-5.0,1.0,14.0,21.0,8.0
1705334838.4833622,2.0,-2.0,54.0,11.0,7.0,0.0,-4.0,-12.0
1705334838.4833622,7.0,31.0,15.0,-7.0,-3.0,8.0,1.0,6.0
1705334838.4833622,-6.0,4.0,2.0,2.0,-12.0,-17.0,-3.0,-2.0
1705334838.4833622,-5.0,-8.0,-22.0,18.0,20.0,-9.0,-3.0,-10.0
1705334838.503656,-7.0,12.0,-24.0,-9.0,3.0,7.0,5.0,2.0
1705334838.503656,10.0,-3.0,-9.0,26.0,0.0,3.0,6.0,5.0
1705334838.503656,4.0,-8.0,30.0,5.0,11.0,8.0,1.0,7.0
1705334838.503656,-4.0,23.0,-26.0,-48.0,-8.0,0.0,-4.0,-10.0
1705334838.5236647,24.0,-51.0,3.0,-2.0,-20.0,-11.0,1.0,12.0
1705334838.5236647,-10.0,53.0,17.0,-8.0,8.0,-2.0,-6.0,0.0
1705334838.5236647,5.0,-4.0,-7.0,54.0,37.0,7.0,2.0,-4.0
1705334838.5236647,-3.0,-3.0,16.0,30.0,-6.0,-1.0,-6.0,-2.0
1705334838.5437171,3.0,22.0,16.0,-34.0,-3.0,-9.0,-1.0,3.0
1705334838.5437171,-3.0,5.0,-34.0,-47.0,-17.0,2.0,-5.0,0.0
1705334838.5437171,7.0,-21.0,7.0,-5.0,-1.0,4.0,1.0,-12.0
1705334838.5437171,-11.0,-9.0,-9.0,-37.0,-4.0,-1.0,-3.0,2.0
1705334838.5636644,0.0,10.0,53.0,47.0,1.0,-3.0,0.0,-10.0
1705334838.5636644,2.0,-3.0,-19.0,27.0,6.0,3.0,3.0,0.0
1705334838.5736632,-17.0,5.0,-16.0,-4.0,6.0,-5.0,-10.0,-56.0
1705334838.5736632,9.0,-15.0,-27.0,-47.0,-24.0,-9.0,-4.0,2.0
1705334838.5736632,26.0,-9.0,-24.0,16.0,1.0,-4.0,-1.0,64.0
1705334838.5736632,-8.0,2.0,54.0,9.0,6.0,-7.0,-23.0,-9.0
1705334838.5840182,-8.0,-4.0,-47.0,-16.0,-11.0,-18.0,-29.0,-26.0
1705334838.5840182,-28.0,-40.0,10.0,-16.0,1.0,63.0,51.0,11.0
1705334838.6039872,-16.0,-7.0,-7.0,-16.0,-1.0,-15.0,-18.0,-28.0
1705334838.6039872,27.0,-5.0,-22.0,12.0,2.0,5.0,40.0,45.0
1705334838.6039872,14.0,26.0,17.0,3.0,-8.0,-33.0,-56.0,20.0
1705334838.6039872,-22.0,14.0,26.0,20.0,-3.0,-5.0,-21.0,-19.0
1705334838.6339967,-48.0,-12.0,-27.0,-3.0,10.0,0.0,-5.0,-31.0
1705334838.6339967,28.0,-9.0,-3.0,-6.0,4.0,32.0,27.0,3.0
1705334838.6339967,0.0,-57.0,4.0,-1.0,-5.0,11.0,7.0,17.0
1705334838.6339967,27.0,88.0,35.0,6.0,-5.0,-33.0,-9.0,-19.0
1705334838.6339967,11.0,-18.0,-25.0,-2.0,6.0,29.0,33.0,33.0
1705334838.6339967,-46.0,-17.0,-1.0,-13.0,-16.0,-41.0,-61.0,-64.0
1705334838.6441977,-13.0,-58.0,-5.0,-8.0,-4.0,13.0,37.0,3.0
1705334838.6441977,-2.0,41.0,-11.0,7.0,5.0,-16.0,-13.0,6.0
1705334838.664293,-21.0,-14.0,-4.0,-2.0,-8.0,-15.0,-4.0,5.0
1705334838.664293,28.0,4.0,55.0,5.0,0.0,11.0,3.0,18.0
1705334838.664293,-4.0,50.0,-33.0,-23.0,-7.0,-5.0,-17.0,3.0
1705334838.664293,7.0,-50.0,-6.0,31.0,10.0,7.0,19.0,11.0
1705334838.7039514,-10.0,71.0,21.0,-22.0,-29.0,-9.0,-3.0,-18.0
1705334838.7039514,-15.0,-63.0,-45.0,18.0,9.0,9.0,10.0,-7.0
1705334838.7039514,-4.0,31.0,41.0,-60.0,-20.0,1.0,7.0,8.0
1705334838.7039514,0.0,-55.0,13.0,31.0,12.0,-14.0,-19.0,10.0
1705334838.7039514,42.0,-24.0,50.0,49.0,15.0,14.0,8.0,4.0
1705334838.7039514,-6.0,43.0,-3.0,-36.0,-18.0,-11.0,-7.0,0.0
1705334838.7039514,-12.0,5.0,-55.0,14.0,2.0,-6.0,7.0,7.0
1705334838.7039514,6.0,-9.0,-6.0,-20.0,-4.0,5.0,1.0,0.0
1705334838.72431,8.0,-16.0,8.0,31.0,5.0,-3.0,-4.0,-13.0
1705334838.72431,-9.0,7.0,9.0,-17.0,-4.0,-5.0,-4.0,0.0
1705334838.72431,-1.0,8.0,3.0,11.0,-13.0,8.0,15.0,3.0
1705334838.72431,-3.0,-7.0,-46.0,-14.0,26.0,7.0,-5.0,-5.0
1705334838.7539573,-13.0,17.0,14.0,-9.0,-13.0,-11.0,-4.0,-7.0
1705334838.7539573,8.0,6.0,17.0,22.0,0.0,-10.0,-10.0,4.0
1705334838.7539573,-2.0,41.0,-39.0,-28.0,-9.0,-6.0,-3.0,-2.0
1705334838.7539573,-16.0,-46.0,5.0,18.0,-10.0,-4.0,0.0,-8.0
1705334838.7642937,-14.0,-15.0,-1.0,-26.0,10.0,9.0,2.0,-18.0
1705334838.7642937,12.0,-10.0,-21.0,-7.0,-5.0,-9.0,1.0,71.0
1705334838.7642937,-3.0,-21.0,39.0,26.0,8.0,8.0,12.0,-22.0
1705334838.7642937,23.0,4.0,-1.0,7.0,8.0,23.0,15.0,13.0
1705334838.7842035,5.0,-20.0,-12.0,-7.0,3.0,-8.0,-21.0,26.0
1705334838.7842035,-59.0,13.0,10.0,-2.0,0.0,3.0,-4.0,-60.0
1705334838.7939594,-30.0,2.0,-13.0,9.0,4.0,-16.0,-10.0,-12.0
1705334838.7939594,-22.0,9.0,-21.0,-16.0,-11.0,-16.0,-17.0,-27.0
1705334838.8039951,32.0,-33.0,19.0,-1.0,1.0,7.0,15.0,32.0
1705334838.8039951,36.0,-28.0,1.0,5.0,-3.0,-19.0,-23.0,-13.0
1705334838.8039951,0.0,-5.0,24.0,4.0,4.0,-13.0,-2.0,36.0
1705334838.8039951,38.0,48.0,-12.0,-7.0,-5.0,25.0,31.0,-21.0
1705334838.8243372,-21.0,-13.0,-9.0,-14.0,-4.0,38.0,34.0,8.0
1705334838.8243372,-14.0,10.0,-11.0,3.0,2.0,-10.0,-4.0,-18.0
1705334838.8243372,-6.0,5.0,16.0,6.0,0.0,-14.0,-1.0,-7.0
1705334838.8243372,-11.0,-30.0,-29.0,-20.0,-18.0,-30.0,-49.0,-15.0
1705334838.8441253,9.0,29.0,-34.0,-4.0,11.0,19.0,20.0,21.0
1705334838.8441253,23.0,-8.0,23.0,9.0,3.0,13.0,10.0,19.0
1705334838.8539598,-3.0,-17.0,-9.0,1.0,-1.0,0.0,1.0,-12.0
1705334838.8539598,-2.0,61.0,-20.0,-14.0,-8.0,-20.0,-10.0,10.0
1705334838.8642328,-12.0,-18.0,-12.0,-12.0,-3.0,-9.0,-11.0,-16.0
1705334838.8642328,-23.0,-5.0,14.0,-3.0,-4.0,0.0,-1.0,-6.0
1705334838.8642328,21.0,1.0,-26.0,-20.0,-8.0,-2.0,1.0,-5.0
1705334838.8642328,-2.0,-11.0,22.0,30.0,1.0,20.0,10.0,11.0
1705334838.8946779,7.0,19.0,24.0,-2.0,8.0,-9.0,-6.0,-5.0
1705334838.8946779,-5.0,-7.0,1.0,-6.0,5.0,2.0,6.0,-7.0
1705334838.8946779,6.0,-4.0,-55.0,31.0,5.0,-5.0,-13.0,5.0
1705334838.8946779,1.0,-21.0,-5.0,-53.0,-2.0,1.0,1.0,15.0
1705334838.904196,-10.0,37.0,8.0,-18.0,-25.0,-14.0,-7.0,-24.0
1705334838.904196,-2.0,-47.0,-12.0,26.0,15.0,-2.0,2.0,0.0
1705334838.9142115,8.0,9.0,29.0,-1.0,2.0,13.0,7.0,7.0
1705334838.9142115,3.0,-58.0,11.0,46.0,0.0,2.0,4.0,-4.0
1705334838.9242113,-20.0,23.0,-80.0,-31.0,-1.0,-27.0,-18.0,-19.0
1705334838.9242113,1.0,0.0,-2.0,-31.0,-12.0,-3.0,-3.0,1.0
1705334838.9242113,21.0,-22.0,-16.0,7.0,6.0,15.0,10.0,11.0
1705334838.9242113,-21.0,43.0,38.0,7.0,7.0,-3.0,-5.0,-6.0
1705334838.9445636,12.0,22.0,19.0,44.0,-4.0,-5.0,-3.0,-2.0
1705334838.9445636,0.0,-4.0,11.0,-24.0,-11.0,-3.0,-4.0,3.0
1705334838.9445636,1.0,33.0,14.0,-8.0,-6.0,4.0,0.0,-5.0
1705334838.9445636,4.0,-1.0,-23.0,19.0,10.0,-1.0,4.0,7.0
1705334838.9642057,-10.0,15.0,33.0,15.0,4.0,-1.0,-3.0,-9.0
1705334838.9642057,-3.0,27.0,-11.0,-10.0,-10.0,-1.0,0.0,-2.0
1705334838.9642057,0.0,-35.0,-17.0,-53.0,-14.0,-2.0,0.0,-1.0
1705334838.9642057,-2.0,9.0,-1.0,1.0,10.0,0.0,-3.0,-9.0
1705334838.9845278,2.0,17.0,-2.0,48.0,9.0,-3.0,-8.0,22.0
1705334838.9845278,-1.0,-14.0,3.0,0.0,3.0,3.0,12.0,-3.0
1705334838.9845278,-1.0,11.0,61.0,15.0,5.0,-19.0,-35.0,-20.0
1705334838.9845278,-5.0,1.0,-13.0,-16.0,-13.0,-1.0,-2.0,25.0
1705334839.0045848,23.0,-19.0,-6.0,-2.0,3.0,19.0,-15.0,2.0
1705334839.0045848,13.0,-1.0,-9.0,9.0,4.0,40.0,25.0,-2.0
1705334839.0045848,-43.0,-23.0,-18.0,-4.0,-5.0,-2.0,74.0,-35.0
1705334839.0045848,11.0,8.0,-28.0,-24.0,-4.0,-19.0,-32.0,-11.0
1705334839.024206,-36.0,-7.0,12.0,-2.0,-3.0,-25.0,-6.0,28.0
1705334839.024206,17.0,32.0,-6.0,-1.0,0.0,-2.0,-51.0,-29.0
1705334839.024206,1.0,13.0,-6.0,-1.0,3.0,21.0,25.0,6.0
1705334839.024206,-43.0,-27.0,27.0,21.0,-4.0,-18.0,26.0,19.0
1705334839.0446181,6.0,-29.0,-5.0,-18.0,-7.0,0.0,-31.0,-26.0
1705334839.0446181,-32.0,26.0,-10.0,-1.0,2.0,17.0,23.0,-5.0
1705334839.0446181,26.0,-73.0,14.0,22.0,12.0,2.0,-16.0,47.0
1705334839.0446181,7.0,58.0,24.0,3.0,-4.0,-1.0,-20.0,-22.0
1705334839.0645654,-4.0,-55.0,-52.0,-25.0,-5.0,-9.0,26.0,-25.0
1705334839.0645654,-5.0,-43.0,-49.0,1.0,2.0,-12.0,-21.0,-15.0
1705334839.0742102,1.0,41.0,38.0,5.0,-4.0,-11.0,-27.0,13.0
1705334839.0742102,21.0,23.0,-14.0,-6.0,-2.0,-1.0,1.0,-17.0
1705334839.0842059,-46.0,-8.0,-46.0,-25.0,-8.0,-3.0,-7.0,-12.0
1705334839.0842059,21.0,3.0,25.0,13.0,3.0,5.0,12.0,-10.0
1705334839.0842059,30.0,-39.0,21.0,18.0,2.0,-8.0,-1.0,15.0
1705334839.0842059,-50.0,44.0,27.0,-5.0,-7.0,13.0,-3.0,-27.0
1705334839.1046162,12.0,-4.0,13.0,-9.0,1.0,1.0,15.0,2.0
1705334839.1046162,-19.0,43.0,-17.0,-6.0,-13.0,-14.0,5.0,-12.0
1705334839.1046162,16.0,59.0,65.0,-7.0,-5.0,0.0,-14.0,3.0
1705334839.1046162,2.0,-75.0,-90.0,20.0,-2.0,-3.0,0.0,12.0
1705334839.1242256,8.0,-21.0,23.0,-27.0,11.0,1.0,-6.0,-14.0
1705334839.1242256,11.0,30.0,15.0,18.0,-14.0,-11.0,3.0,35.0
1705334839.1242256,-10.0,-9.0,22.0,-25.0,-3.0,11.0,5.0,-6.0
1705334839.1242256,14.0,-78.0,-16.0,15.0,51.0,3.0,-3.0,2.0
1705334839.1442115,12.0,37.0,-19.0,12.0,-16.0,0.0,8.0,0.0
1705334839.1442115,4.0,-11.0,-13.0,-24.0,-17.0,-13.0,-3.0,15.0
1705334839.1442115,-18.0,20.0,-26.0,-1.0,1.0,10.0,-5.0,-9.0
1705334839.1442115,7.0,-11.0,13.0,-26.0,-13.0,4.0,6.0,-1.0
1705334839.1644545,15.0,-12.0,35.0,30.0,16.0,-6.0,-16.0,-15.0
1705334839.1644545,-2.0,-17.0,18.0,-6.0,-6.0,-7.0,-4.0,4.0
1705334839.174293,-3.0,5.0,-50.0,5.0,-13.0,1.0,-4.0,-10.0
1705334839.174293,-12.0,28.0,17.0,15.0,-1.0,-2.0,5.0,14.0
1705334839.1844952,16.0,-29.0,36.0,-3.0,-2.0,-2.0,7.0,8.0
1705334839.1844952,-3.0,58.0,-14.0,-12.0,4.0,16.0,12.0,1.0
1705334839.1844952,-10.0,13.0,-9.0,-3.0,2.0,-2.0,2.0,-11.0
1705334839.1844952,12.0,-14.0,-3.0,-2.0,-3.0,-4.0,-15.0,-6.0
1705334839.21517,-16.0,-3.0,12.0,-10.0,-11.0,-13.0,3.0,37.0
1705334839.21517,30.0,52.0,3.0,4.0,4.0,-21.0,-14.0,9.0
1705334839.21517,13.0,-4.0,-25.0,1.0,8.0,1.0,-1.0,-24.0
1705334839.21517,7.0,-47.0,26.0,-5.0,-2.0,16.0,-8.0,52.0
1705334839.225406,-2.0,27.0,-46.0,-4.0,-11.0,-2.0,-17.0,-50.0
1705334839.225406,-9.0,-45.0,-1.0,-5.0,9.0,23.0,17.0,1.0
1705334839.225406,-9.0,5.0,7.0,5.0,2.0,-24.0,4.0,0.0
