1705080361.8291242,-70.0,-48.0,-11.0,-19.0,-11.0,-9.0,-13.0,-28.0
1705080361.8291242,57.0,113.0,78.0,18.0,8.0,4.0,1.0,12.0
1705080361.8291242,-47.0,-96.0,-42.0,-5.0,2.0,0.0,2.0,-16.0
1705080361.8291242,-12.0,-2.0,-29.0,-23.0,-16.0,-10.0,-12.0,-14.0
1705080361.839126,-35.0,-70.0,-100.0,-24.0,-9.0,-9.0,-7.0,-11.0
1705080361.839126,-2.0,88.0,5.0,-10.0,-7.0,3.0,1.0,2.0
1705080361.8491173,47.0,77.0,65.0,25.0,3.0,7.0,7.0,12.0
1705080361.8491173,-57.0,-28.0,5.0,-1.0,0.0,-2.0,-4.0,-12.0
1705080361.858923,16.0,-60.0,-17.0,-5.0,-4.0,-3.0,-1.0,4.0
1705080361.858923,13.0,63.0,-5.0,-7.0,-8.0,-6.0,-7.0,-7.0
1705080361.858923,-13.0,-49.0,54.0,25.0,10.0,4.0,6.0,8.0
1705080361.858923,7.0,-87.0,-10.0,20.0,13.0,10.0,9.0,18.0
1705080361.889141,-34.0,-67.0,-40.0,-9.0,0.0,-5.0,-7.0,-21.0
1705080361.889141,20.0,13.0,3.0,6.0,2.0,5.0,10.0,26.0
1705080361.889141,-23.0,-64.0,-65.0,-39.0,-16.0,-14.0,-14.0,-19.0
1705080361.889141,3.0,-51.0,12.0,-6.0,-7.0,-3.0,-1.0,3.0
1705080361.899155,14.0,-58.0,6.0,25.0,12.0,7.0,10.0,-4.0
1705080361.899155,8.0,68.0,28.0,-1.0,-4.0,-3.0,-5.0,-5.0
1705080361.918933,56.0,6.0,-4.0,-1.0,2.0,2.0,0.0,6.0
1705080361.918933,-45.0,31.0,-3.0,-14.0,-13.0,-9.0,-12.0,-21.0
1705080361.918933,6.0,71.0,17.0,0.0,2.0,1.0,1.0,11.0
1705080361.918933,9.0,3.0,31.0,4.0,-1.0,-1.0,1.0,0.0
1705080361.9289865,-2.0,21.0,-49.0,-14.0,-5.0,-2.0,-2.0,-4.0
1705080361.9289865,1.0,-29.0,77.0,12.0,-1.0,-2.0,2.0,2.0
1705080361.9589221,-8.0,7.0,7.0,8.0,3.0,-3.0,-2.0,3.0
1705080361.9589221,10.0,1.0,-67.0,-7.0,-3.0,0.0,3.0,1.0
1705080361.9589221,-11.0,-18.0,28.0,22.0,13.0,8.0,6.0,4.0
1705080361.9589221,-5.0,-47.0,-103.0,-26.0,-8.0,-3.0,-1.0,-4.0
1705080361.9589221,10.0,44.0,51.0,3.0,-2.0,0.0,0.0,6.0
1705080361.9589221,-27.0,-128.0,-57.0,-17.0,-9.0,-3.0,-3.0,-4.0
1705080361.9689727,12.0,23.0,4.0,8.0,3.0,0.0,1.0,7.0
1705080361.9689727,19.0,46.0,12.0,9.0,4.0,3.0,2.0,2.0
1705080361.9793293,12.0,19.0,5.0,2.0,2.0,1.0,0.0,4.0
1705080361.9793293,-11.0,-58.0,-38.0,-12.0,-4.0,-3.0,-3.0,-10.0
1705080361.9793293,-9.0,-9.0,22.0,-3.0,1.0,1.0,4.0,10.0
1705080361.9793293,-11.0,-47.0,-2.0,-16.0,-10.0,-9.0,-11.0,-23.0
1705080362.0093043,1.0,39.0,54.0,6.0,1.0,3.0,3.0,9.0
1705080362.0093043,-17.0,-3.0,-6.0,2.0,0.0,-3.0,-7.0,-14.0
1705080362.0093043,-2.0,33.0,5.0,20.0,8.0,2.0,0.0,-4.0
1705080362.0093043,-18.0,-45.0,-34.0,-10.0,-2.0,0.0,-4.0,-6.0
1705080362.0193665,-6.0,-75.0,-17.0,7.0,3.0,1.0,4.0,4.0
1705080362.0193665,-18.0,31.0,-41.0,-27.0,-17.0,-14.0,-13.0,-19.0
1705080362.0292478,-2.0,-24.0,-19.0,-15.0,-11.0,-7.0,-6.0,-7.0
1705080362.0292478,18.0,47.0,54.0,21.0,10.0,7.0,5.0,10.0
1705080362.0489826,-14.0,22.0,-53.0,-10.0,-5.0,-5.0,-10.0,-19.0
1705080362.0489826,16.0,16.0,71.0,22.0,10.0,10.0,11.0,20.0
1705080362.0489826,9.0,23.0,-21.0,-8.0,-3.0,0.0,0.0,6.0
1705080362.0489826,13.0,13.0,-12.0,-1.0,0.0,-1.0,-2.0,-8.0
1705080362.06937,-10.0,21.0,1.0,-6.0,-2.0,-2.0,-3.0,-3.0
1705080362.06937,-5.0,15.0,14.0,6.0,0.0,-7.0,1.0,2.0
1705080362.06937,-6.0,4.0,26.0,2.0,0.0,9.0,2.0,9.0
1705080362.06937,3.0,22.0,-11.0,-4.0,-3.0,-8.0,-5.0,-13.0
1705080362.079359,-7.0,-48.0,-27.0,-5.0,-2.0,-4.0,-1.0,-1.0
1705080362.079359,1.0,-8.0,7.0,6.0,7.0,1.0,-1.0,0.0
1705080362.0893383,0.0,-39.0,7.0,-4.0,-3.0,3.0,1.0,-2.0
1705080362.0893383,-14.0,-18.0,3.0,3.0,1.0,1.0,2.0,5.0
1705080362.1089828,4.0,41.0,0.0,2.0,-5.0,-7.0,-2.0,-2.0
1705080362.1089828,-7.0,-11.0,5.0,-7.0,-1.0,-2.0,-1.0,-2.0
1705080362.1089828,-3.0,-13.0,6.0,-4.0,-4.0,-3.0,-4.0,-3.0
1705080362.1089828,11.0,54.0,28.0,18.0,9.0,4.0,9.0,13.0
1705080362.12935,-5.0,5.0,-24.0,-14.0,11.0,-9.0,-5.0,-11.0
1705080362.12935,8.0,10.0,33.0,14.0,-1.0,10.0,6.0,14.0
1705080362.12935,5.0,-22.0,-28.0,-2.0,-2.0,1.0,-2.0,-2.0
1705080362.12935,-3.0,4.0,8.0,0.0,-4.0,-3.0,-2.0,3.0
1705080362.1393712,-4.0,11.0,-8.0,-7.0,-9.0,3.0,-1.0,3.0
1705080362.1393712,-1.0,1.0,13.0,5.0,-3.0,-5.0,1.0,1.0
1705080362.1489851,2.0,33.0,15.0,0.0,13.0,11.0,-3.0,-11.0
1705080362.1489851,11.0,-35.0,-7.0,-4.0,-11.0,-9.0,0.0,4.0
1705080362.1590178,-1.0,-1.0,3.0,2.0,0.0,6.0,3.0,9.0
1705080362.1590178,2.0,-22.0,-23.0,-7.0,4.0,2.0,-1.0,-8.0
1705080362.169298,-4.0,-35.0,9.0,5.0,-4.0,-1.0,6.0,5.0
1705080362.169298,-5.0,-2.0,-32.0,-8.0,-41.0,-18.0,-5.0,0.0
1705080362.188985,5.0,11.0,5.0,-6.0,39.0,-4.0,-7.0,-1.0
1705080362.188985,-8.0,-20.0,-8.0,6.0,22.0,34.0,11.0,0.0
1705080362.1989877,7.0,30.0,1.0,-8.0,-2.0,-17.0,-5.0,2.0
1705080362.1989877,10.0,14.0,19.0,7.0,9.0,11.0,2.0,2.0
1705080362.1989877,0.0,-14.0,-20.0,-11.0,-20.0,-11.0,-2.0,-13.0
1705080362.1989877,1.0,3.0,0.0,-2.0,-16.0,-14.0,-5.0,-7.0
1705080362.2089832,3.0,5.0,7.0,1.0,9.0,2.0,7.0,5.0
1705080362.2089832,-21.0,-9.0,-7.0,-6.0,-4.0,3.0,-8.0,-6.0
1705080362.2190187,4.0,14.0,11.0,4.0,-4.0,3.0,2.0,-7.0
1705080362.2190187,-16.0,6.0,20.0,3.0,-3.0,-7.0,-3.0,1.0
1705080362.2291722,17.0,16.0,-19.0,-7.0,-11.0,-6.0,-5.0,-14.0
1705080362.2291722,-13.0,-4.0,-5.0,-5.0,5.0,2.0,0.0,6.0
1705080362.2492783,-10.0,4.0,1.0,2.0,-3.0,-2.0,-5.0,-18.0
1705080362.2492783,-23.0,6.0,13.0,3.0,1.0,2.0,4.0,13.0
1705080362.2492783,19.0,15.0,15.0,7.0,-5.0,-5.0,-4.0,8.0
1705080362.2492783,-30.0,-12.0,-9.0,-3.0,25.0,-2.0,-16.0,-68.0
1705080362.2889872,-1.0,5.0,0.0,-2.0,-16.0,-1.0,5.0,15.0
1705080362.2889872,7.0,-29.0,-13.0,-4.0,9.0,-8.0,-6.0,-18.0
1705080362.2889872,-20.0,-1.0,1.0,1.0,-14.0,1.0,7.0,30.0
1705080362.2889872,2.0,7.0,2.0,0.0,19.0,-6.0,3.0,15.0
1705080362.2889872,7.0,2.0,12.0,6.0,4.0,15.0,-15.0,-49.0
1705080362.2889872,-12.0,-17.0,-17.0,-6.0,-5.0,-11.0,-12.0,-32.0
1705080362.2889872,-2.0,15.0,6.0,-4.0,-22.0,-9.0,3.0,11.0
1705080362.2889872,20.0,8.0,7.0,1.0,17.0,13.0,11.0,20.0
1705080362.309262,-2.0,2.0,6.0,7.0,9.0,11.0,15.0,40.0
1705080362.309262,35.0,12.0,3.0,6.0,-1.0,3.0,0.0,19.0
1705080362.309262,-50.0,-19.0,7.0,-1.0,3.0,1.0,-4.0,-31.0
1705080362.309262,-17.0,21.0,-3.0,-7.0,-15.0,-2.0,-3.0,5.0
1705080362.3475263,14.0,-4.0,-9.0,-3.0,-2.0,-2.0,5.0,23.0
1705080362.3475263,6.0,6.0,5.0,4.0,-3.0,3.0,8.0,30.0
1705080362.3485281,2.0,-2.0,-3.0,-2.0,6.0,-1.0,-6.0,-21.0
1705080362.3485281,-16.0,-9.0,6.0,1.0,-6.0,-7.0,-19.0,-50.0
1705080362.3485281,7.0,-3.0,9.0,4.0,-3.0,-6.0,-4.0,15.0
1705080362.3485281,7.0,9.0,-4.0,-5.0,-5.0,-10.0,-4.0,-18.0
1705080362.3515694,-11.0,2.0,3.0,3.0,-2.0,12.0,24.0,39.0
1705080362.3515694,6.0,-16.0,-10.0,-1.0,7.0,-4.0,-1.0,18.0
1705080362.361832,-16.0,-3.0,-8.0,-6.0,-22.0,-12.0,-12.0,1.0
1705080362.361832,8.0,2.0,6.0,1.0,5.0,0.0,-6.0,-7.0
1705080362.3716183,-1.0,-3.0,-3.0,-8.0,-21.0,-41.0,-28.0,-63.0
1705080362.3716183,-10.0,-9.0,-2.0,-1.0,12.0,24.0,1.0,-9.0
1705080362.3917935,-11.0,-5.0,-5.0,-4.0,-2.0,-8.0,2.0,16.0
1705080362.3917935,9.0,3.0,2.0,-2.0,-5.0,0.0,6.0,30.0
1705080362.3917935,11.0,4.0,0.0,-3.0,-10.0,-12.0,5.0,13.0
1705080362.3917935,-9.0,0.0,3.0,9.0,11.0,11.0,7.0,9.0
1705080362.401869,2.0,-5.0,-10.0,-9.0,-1.0,0.0,3.0,3.0
1705080362.401869,-11.0,5.0,-3.0,-8.0,-8.0,15.0,2.0,-18.0
1705080362.4118433,37.0,-6.0,-6.0,15.0,27.0,30.0,-4.0,-16.0
1705080362.4118433,-35.0,-11.0,-4.0,-2.0,-5.0,13.0,24.0,5.0
1705080362.421866,9.0,4.0,8.0,15.0,11.0,-14.0,-4.0,12.0
1705080362.421866,-27.0,-14.0,-6.0,-6.0,-12.0,-57.0,-33.0,-50.0
1705080362.4315813,7.0,12.0,7.0,-10.0,-14.0,-29.0,-9.0,36.0
1705080362.4315813,4.0,2.0,2.0,-18.0,-40.0,-50.0,-35.0,-54.0
1705080362.4515758,15.0,-1.0,-6.0,12.0,27.0,72.0,27.0,4.0
1705080362.4515758,-65.0,-16.0,-5.0,-20.0,-27.0,-29.0,-10.0,-7.0
1705080362.4515758,1.0,-1.0,-5.0,-11.0,-17.0,-55.0,-18.0,-10.0
1705080362.4515758,-19.0,-4.0,0.0,1.0,-14.0,0.0,11.0,39.0
1705080362.4615767,0.0,-2.0,0.0,-1.0,20.0,14.0,-1.0,-24.0
1705080362.4615767,21.0,4.0,1.0,16.0,42.0,63.0,13.0,24.0
1705080362.471853,2.0,-2.0,6.0,6.0,16.0,28.0,9.0,-6.0
1705080362.471853,20.0,2.0,-4.0,-1.0,-9.0,0.0,-1.0,19.0
1705080362.4818492,12.0,-4.0,5.0,3.0,-4.0,-11.0,-1.0,0.0
1705080362.4818492,15.0,1.0,-11.0,1.0,-4.0,0.0,3.0,10.0
1705080362.4915764,-9.0,-3.0,-3.0,-7.0,-2.0,6.0,-2.0,-1.0
1705080362.4915764,36.0,11.0,14.0,11.0,6.0,-10.0,-3.0,-3.0
1705080362.5116723,-34.0,-2.0,-6.0,-7.0,-30.0,8.0,-8.0,-17.0
1705080362.5116723,40.0,24.0,9.0,-6.0,-4.0,-8.0,4.0,10.0
1705080362.5116723,-28.0,3.0,-6.0,-9.0,4.0,6.0,8.0,14.0
1705080362.5116723,9.0,-19.0,-13.0,4.0,-3.0,5.0,-3.0,9.0
1705080362.5218716,-19.0,0.0,-1.0,-5.0,11.0,-11.0,-13.0,-26.0
1705080362.5218716,33.0,3.0,12.0,5.0,-26.0,15.0,4.0,-14.0
1705080362.5318525,-4.0,6.0,-7.0,2.0,37.0,-9.0,-1.0,-12.0
1705080362.5318525,-21.0,-25.0,-10.0,-9.0,-19.0,-11.0,4.0,22.0
1705080362.5715744,-33.0,-24.0,-16.0,-13.0,3.0,-11.0,-8.0,1.0
1705080362.5715744,22.0,-23.0,-3.0,7.0,8.0,-2.0,3.0,15.0
1705080362.5715744,0.0,27.0,11.0,6.0,-21.0,15.0,2.0,10.0
1705080362.5715744,39.0,21.0,6.0,7.0,47.0,30.0,9.0,9.0
1705080362.5715744,28.0,17.0,3.0,-4.0,-15.0,-32.0,-11.0,-2.0
1705080362.5715744,-2.0,3.0,0.0,-6.0,-11.0,-3.0,4.0,-6.0
1705080362.5715744,-7.0,-7.0,-1.0,2.0,0.0,-1.0,0.0,4.0
1705080362.5715744,5.0,6.0,-3.0,-11.0,-10.0,-12.0,-1.0,-2.0
1705080362.5816,-37.0,-26.0,-7.0,-3.0,-24.0,3.0,-4.0,-19.0
1705080362.5816,-6.0,-9.0,-10.0,10.0,26.0,15.0,6.0,12.0
1705080362.5918918,-16.0,-21.0,-6.0,-10.0,12.0,-15.0,-7.0,-10.0
1705080362.5918918,69.0,56.0,13.0,-2.0,-2.0,-6.0,2.0,9.0
1705080362.6015744,-50.0,-17.0,1.0,-2.0,-4.0,-9.0,-1.0,-7.0
1705080362.6015744,-18.0,-17.0,3.0,-8.0,-19.0,-12.0,-8.0,-9.0
1705080362.6015744,-65.0,-76.0,-13.0,16.0,11.0,14.0,-4.0,-21.0
1705080362.6015744,17.0,10.0,15.0,9.0,-4.0,9.0,1.0,6.0
1705080362.6320782,24.0,41.0,-12.0,-6.0,-11.0,-9.0,2.0,7.0
1705080362.6320782,2.0,48.0,4.0,-6.0,-9.0,-12.0,-5.0,0.0
1705080362.6320782,-4.0,-41.0,-8.0,-6.0,-16.0,2.0,0.0,-8.0
1705080362.6320782,-3.0,6.0,7.0,6.0,29.0,11.0,-4.0,2.0
1705080362.6424885,48.0,-9.0,4.0,7.0,2.0,5.0,9.0,15.0
1705080362.6424885,-15.0,-6.0,-4.0,-4.0,4.0,-6.0,-4.0,-3.0
1705080362.6520777,25.0,25.0,3.0,-7.0,-7.0,1.0,0.0,7.0
1705080362.6520777,43.0,35.0,9.0,5.0,-17.0,-10.0,1.0,-4.0
1705080362.6620767,-65.0,-50.0,-23.0,0.0,7.0,-3.0,-1.0,-9.0
1705080362.6620767,-30.0,-30.0,-18.0,-5.0,-4.0,0.0,-9.0,-14.0
1705080362.6620767,57.0,39.0,22.0,6.0,3.0,12.0,4.0,15.0
1705080362.6620767,-72.0,-65.0,-31.0,-9.0,-7.0,-4.0,-6.0,-17.0
1705080362.6920903,2.0,9.0,18.0,-7.0,2.0,-1.0,0.0,-4.0
1705080362.6920903,27.0,33.0,6.0,12.0,7.0,5.0,6.0,11.0
1705080362.6920903,7.0,-10.0,0.0,9.0,4.0,5.0,0.0,2.0
1705080362.6920903,4.0,67.0,40.0,14.0,1.0,-3.0,2.0,2.0
1705080362.7020757,-13.0,31.0,-30.0,-13.0,-5.0,-6.0,-6.0,-14.0
1705080362.7020757,-12.0,-22.0,17.0,-4.0,15.0,-7.0,-3.0,1.0
1705080362.7120748,29.0,61.0,-5.0,-10.0,6.0,7.0,0.0,2.0
1705080362.7120748,3.0,-11.0,-11.0,-4.0,-13.0,-17.0,-2.0,-1.0
1705080362.7220826,-11.0,-71.0,-9.0,6.0,19.0,15.0,-6.0,-3.0
1705080362.7220826,18.0,59.0,28.0,9.0,-2.0,-4.0,2.0,9.0
1705080362.7220826,-3.0,27.0,-17.0,-7.0,3.0,3.0,-1.0,-6.0
1705080362.7220826,-3.0,36.0,24.0,4.0,-1.0,-3.0,1.0,9.0
1705080362.7520764,-9.0,-75.0,-32.0,-20.0,-26.0,-20.0,-10.0,-12.0
1705080362.7520764,-6.0,-51.0,2.0,-5.0,-5.0,-3.0,3.0,1.0
1705080362.7520764,30.0,78.0,30.0,7.0,0.0,3.0,-1.0,4.0
1705080362.7520764,-51.0,-113.0,-17.0,-6.0,-7.0,-7.0,-7.0,-18.0
1705080362.7624722,-8.0,70.0,-23.0,-2.0,-5.0,-3.0,-2.0,-3.0
1705080362.7624722,13.0,-8.0,-6.0,8.0,12.0,14.0,3.0,8.0
1705080362.772078,-24.0,31.0,-5.0,-18.0,-18.0,-6.0,-3.0,-14.0
1705080362.772078,11.0,9.0,-5.0,-5.0,-3.0,1.0,-3.0,1.0
1705080362.7820787,42.0,1.0,29.0,17.0,14.0,0.0,0.0,1.0
1705080362.7820787,-41.0,-74.0,-25.0,-5.0,-1.0,-3.0,-6.0,-13.0
1705080362.7820787,-2.0,0.0,6.0,6.0,-3.0,-2.0,-3.0,0.0
1705080362.7820787,1.0,-11.0,-11.0,-3.0,4.0,4.0,2.0,5.0
1705080362.8121183,17.0,-65.0,8.0,-10.0,-11.0,4.0,5.0,10.0
1705080362.8121183,17.0,126.0,25.0,-6.0,-5.0,-14.0,-1.0,-4.0
1705080362.8121183,-3.0,-64.0,0.0,10.0,-3.0,5.0,8.0,1.0
1705080362.8121183,-43.0,-72.0,-31.0,-1.0,23.0,8.0,-6.0,-11.0
1705080362.832078,19.0,43.0,27.0,10.0,2.0,-2.0,-20.0,2.0
1705080362.832078,19.0,57.0,-11.0,0.0,-6.0,4.0,3.0,6.0
1705080362.832078,3.0,-104.0,-37.0,-14.0,-4.0,-1.0,2.0,1.0
1705080362.832078,-27.0,39.0,11.0,-3.0,-10.0,-9.0,-7.0,-8.0
1705080362.8421097,35.0,-30.0,-36.0,3.0,1.0,0.0,15.0,14.0
1705080362.8421097,15.0,-57.0,-18.0,-16.0,-4.0,-4.0,-10.0,-14.0
1705080362.8421097,12.0,8.0,52.0,18.0,-1.0,-8.0,-8.0,6.0
1705080362.8421097,-18.0,-14.0,-52.0,-12.0,5.0,1.0,-11.0,-4.0
1705080362.8712444,-24.0,60.0,28.0,9.0,-5.0,-16.0,-12.0,-12.0
1705080362.8712444,17.0,-2.0,-12.0,3.0,7.0,4.0,7.0,8.0
1705080362.8733847,-11.0,-9.0,-10.0,-2.0,7.0,3.0,5.0,-5.0
1705080362.8733847,8.0,-1.0,21.0,1.0,-5.0,1.0,3.0,5.0
1705080362.884547,20.0,56.0,42.0,0.0,-7.0,2.0,9.0,7.0
1705080362.884547,-21.0,-85.0,-55.0,-2.0,20.0,0.0,-9.0,-12.0
1705080362.894549,59.0,109.0,24.0,-9.0,-9.0,-3.0,1.0,13.0
1705080362.894549,-59.0,-54.0,-25.0,-5.0,-14.0,-5.0,-1.0,-16.0
1705080362.904911,89.0,10.0,16.0,3.0,15.0,14.0,12.0,21.0
1705080362.904911,-107.0,-13.0,-1.0,-11.0,-19.0,-6.0,-3.0,-22.0
1705080362.9149268,-37.0,-56.0,-20.0,0.0,5.0,3.0,-7.0,-12.0
1705080362.9149268,30.0,22.0,8.0,3.0,-6.0,0.0,4.0,12.0
1705080362.9249413,9.0,-12.0,4.0,8.0,7.0,17.0,4.0,-3.0
1705080362.9249413,7.0,-17.0,14.0,12.0,8.0,14.0,12.0,5.0
1705080362.9249413,-11.0,10.0,-1.0,-7.0,-2.0,-16.0,-12.0,5.0
1705080362.9249413,114.0,34.0,-3.0,-22.0,-25.0,-26.0,-16.0,0.0
1705080362.9445515,-106.0,-13.0,-2.0,10.0,-4.0,-16.0,-7.0,-13.0
1705080362.9445515,62.0,20.0,-5.0,-17.0,-14.0,0.0,0.0,2.0
1705080362.9445515,-23.0,-6.0,5.0,17.0,21.0,10.0,1.0,-5.0
1705080362.9445515,-35.0,-10.0,-1.0,-1.0,8.0,18.0,9.0,2.0
1705080362.9649775,104.0,105.0,45.0,4.0,5.0,6.0,10.0,25.0
1705080362.9649775,-76.0,-105.0,-55.0,-7.0,-7.0,-12.0,-15.0,-24.0
1705080362.9649775,6.0,39.0,-21.0,-20.0,-2.0,4.0,6.0,3.0
1705080362.9649775,20.0,1.0,16.0,4.0,5.0,2.0,0.0,0.0
1705080362.9846106,-75.0,-20.0,-10.0,-4.0,0.0,-2.0,-7.0,-25.0
1705080362.9846106,-4.0,61.0,36.0,12.0,-2.0,0.0,5.0,16.0
1705080362.9945483,9.0,17.0,-3.0,0.0,-10.0,-2.0,0.0,-1.0
1705080362.9945483,8.0,-18.0,-4.0,-2.0,3.0,-2.0,3.0,7.0
1705080363.0045855,4.0,-7.0,-15.0,-16.0,-16.0,-16.0,-5.0,-11.0
1705080363.0045855,20.0,-17.0,-3.0,-7.0,3.0,7.0,-4.0,-3.0
1705080363.0145507,6.0,-49.0,7.0,9.0,-5.0,-3.0,0.0,7.0
1705080363.0145507,-23.0,4.0,-17.0,-7.0,-3.0,-8.0,-6.0,-13.0
1705080363.0249274,-56.0,-40.0,-35.0,-14.0,-3.0,8.0,-10.0,-18.0
1705080363.0249274,5.0,21.0,13.0,5.0,-1.0,-6.0,-2.0,5.0
1705080363.0348582,15.0,-1.0,7.0,0.0,0.0,-1.0,-1.0,3.0
1705080363.0348582,5.0,95.0,11.0,-3.0,-5.0,-9.0,1.0,0.0
1705080363.0545497,11.0,-21.0,-17.0,-7.0,-12.0,-9.0,2.0,5.0
1705080363.0545497,-14.0,-3.0,5.0,6.0,15.0,3.0,-1.0,0.0
1705080363.0545497,-21.0,-6.0,-8.0,3.0,19.0,-1.0,-6.0,-9.0
1705080363.0545497,17.0,-1.0,10.0,2.0,-3.0,-6.0,5.0,12.0
1705080363.064748,-13.0,-8.0,-11.0,-10.0,5.0,15.0,-2.0,-4.0
1705080363.064748,10.0,26.0,21.0,15.0,7.0,11.0,3.0,2.0
1705080363.0745516,8.0,-14.0,-9.0,-4.0,-9.0,-8.0,1.0,0.0
1705080363.0745516,-19.0,-30.0,-10.0,-3.0,1.0,1.0,0.0,-3.0
1705080363.084983,4.0,4.0,5.0,10.0,9.0,5.0,23.0,17.0
1705080363.084983,14.0,-2.0,-6.0,-12.0,-6.0,14.0,33.0,59.0
1705080363.094923,-18.0,-15.0,-11.0,-1.0,2.0,37.0,-10.0,-18.0
1705080363.094923,-9.0,-10.0,-3.0,-6.0,-22.0,-74.0,-77.0,-85.0
1705080363.104601,-7.0,8.0,3.0,1.0,-6.0,-32.0,-30.0,-4.0
1705080363.104601,-8.0,16.0,14.0,11.0,-2.0,-14.0,-7.0,-10.0
1705080363.104601,28.0,1.0,-7.0,-5.0,-2.0,15.0,30.0,42.0
1705080363.104601,1.0,-2.0,3.0,2.0,10.0,36.0,39.0,36.0
1705080363.1245492,6.0,6.0,-1.0,-6.0,-4.0,8.0,-1.0,20.0
1705080363.1245492,39.0,29.0,53.0,11.0,1.0,-5.0,-4.0,-13.0
1705080363.1345532,-68.0,-54.0,-64.0,-17.0,-3.0,-10.0,-12.0,-39.0
1705080363.1345532,18.0,-3.0,8.0,4.0,6.0,16.0,14.0,12.0
1705080363.1549683,11.0,11.0,9.0,-1.0,-5.0,-9.0,30.0,62.0
1705080363.1549683,37.0,21.0,7.0,-1.0,-15.0,8.0,1.0,66.0
1705080363.1549683,-48.0,-1.0,18.0,6.0,8.0,-17.0,-58.0,-107.0
1705080363.1549683,-27.0,-8.0,1.0,1.0,-7.0,-15.0,-18.0,11.0
1705080363.1845484,-2.0,-8.0,-13.0,1.0,7.0,10.0,6.0,2.0
1705080363.1845484,-21.0,-9.0,-15.0,-10.0,-3.0,2.0,4.0,14.0
1705080363.1845484,16.0,6.0,8.0,-1.0,-10.0,-39.0,13.0,35.0
1705080363.1845484,-5.0,-6.0,-9.0,-1.0,0.0,14.0,12.0,-1.0
1705080363.1845484,5.0,8.0,14.0,2.0,5.0,11.0,12.0,11.0
1705080363.1845484,6.0,0.0,-15.0,-5.0,-5.0,-8.0,-5.0,-9.0
1705080363.194551,-22.0,0.0,2.0,-2.0,-5.0,-8.0,-17.0,-37.0
1705080363.194551,-16.0,0.0,6.0,4.0,10.0,18.0,18.0,-5.0
1705080363.2049298,-18.0,-10.0,-1.0,2.0,3.0,22.0,-8.0,-38.0
1705080363.2049298,10.0,-4.0,-15.0,-5.0,11.0,40.0,54.0,15.0
1705080363.2049298,91.0,36.0,10.0,3.0,4.0,7.0,17.0,58.0
1705080363.2049298,-51.0,-48.0,-15.0,-27.0,-46.0,-93.0,-98.0,-66.0
1705080363.2248404,-3.0,-1.0,-3.0,9.0,-14.0,-48.0,-48.0,-77.0
1705080363.2248404,-1.0,-6.0,-5.0,3.0,-5.0,-13.0,-19.0,-23.0
1705080363.2248404,25.0,17.0,9.0,9.0,12.0,48.0,50.0,51.0
1705080363.2248404,26.0,15.0,2.0,3.0,22.0,56.0,60.0,70.0
1705080363.2545497,4.0,-6.0,-9.0,-16.0,-6.0,-6.0,-3.0,-1.0
1705080363.2545497,-26.0,-5.0,-2.0,-5.0,-2.0,-9.0,-10.0,-23.0
1705080363.2545497,-26.0,-15.0,0.0,7.0,1.0,0.0,10.0,10.0
1705080363.2545497,19.0,9.0,2.0,7.0,9.0,14.0,11.0,15.0
1705080363.2649446,-14.0,-13.0,0.0,2.0,0.0,-5.0,-6.0,-1.0
1705080363.2649446,-11.0,2.0,-4.0,-2.0,1.0,-10.0,-17.0,-64.0
1705080363.2745492,-14.0,-2.0,0.0,-8.0,-13.0,-13.0,-12.0,-4.0
1705080363.2745492,1.0,4.0,2.0,4.0,5.0,4.0,-3.0,-8.0
1705080363.28459,37.0,19.0,11.0,11.0,21.0,51.0,47.0,89.0
1705080363.28459,27.0,5.0,2.0,4.0,32.0,30.0,45.0,77.0
1705080363.28459,-32.0,-8.0,-11.0,-28.0,-53.0,-101.0,-104.0,-105.0
1705080363.28459,-11.0,-13.0,13.0,11.0,-8.0,17.0,0.0,2.0
1705080363.3145494,1.0,4.0,-16.0,4.0,3.0,8.0,-1.0,6.0
1705080363.3145494,26.0,3.0,3.0,-2.0,-1.0,10.0,0.0,28.0
1705080363.3145494,-3.0,-4.0,-3.0,7.0,20.0,38.0,27.0,-9.0
1705080363.3145494,35.0,18.0,-8.0,-4.0,4.0,-2.0,8.0,13.0
1705080363.324907,-19.0,-17.0,-1.0,-6.0,-7.0,-14.0,-6.0,-23.0
1705080363.324907,-38.0,-18.0,-14.0,-3.0,-6.0,-9.0,-17.0,-22.0
1705080363.3345509,22.0,10.0,4.0,2.0,2.0,7.0,14.0,28.0
1705080363.3345509,28.0,4.0,-6.0,-11.0,-7.0,-3.0,-2.0,-6.0
1705080363.3448157,-12.0,-1.0,2.0,-7.0,1.0,-1.0,1.0,-7.0
1705080363.3448157,7.0,3.0,-1.0,0.0,-9.0,-17.0,-20.0,-20.0
1705080363.3448157,-7.0,-7.0,2.0,1.0,-1.0,3.0,4.0,14.0
1705080363.3448157,9.0,4.0,0.0,0.0,7.0,8.0,9.0,5.0
1705080363.3745503,28.0,-4.0,-5.0,-13.0,-7.0,-4.0,-4.0,-4.0
1705080363.3745503,-12.0,-10.0,2.0,13.0,-4.0,-18.0,-18.0,-24.0
1705080363.3745503,-8.0,-5.0,-5.0,1.0,4.0,10.0,10.0,18.0
1705080363.3745503,9.0,5.0,-10.0,0.0,4.0,11.0,7.0,10.0
1705080363.3849335,-2.0,27.0,47.0,17.0,0.0,-7.0,-5.0,-15.0
1705080363.3849335,-23.0,-27.0,-21.0,-12.0,-13.0,-14.0,-18.0,-22.0
1705080363.4023962,5.0,0.0,15.0,13.0,7.0,13.0,10.0,17.0
1705080363.4023962,-38.0,-17.0,-18.0,0.0,2.0,-2.0,-2.0,-8.0
1705080363.412399,31.0,11.0,-19.0,-8.0,1.0,-3.0,-2.0,-1.0
1705080363.412399,3.0,1.0,50.0,16.0,-3.0,-5.0,-5.0,-9.0
1705080363.4133978,1.0,10.0,-9.0,-9.0,-2.0,5.0,7.0,16.0
1705080363.4133978,2.0,1.0,2.0,-12.0,-5.0,-4.0,-2.0,-5.0
1705080363.4278011,-6.0,-7.0,-17.0,-12.0,-9.0,-6.0,-3.0,-3.0
1705080363.4278011,6.0,2.0,-11.0,-10.0,-3.0,-1.0,-3.0,-2.0
1705080363.4374938,2.0,-2.0,2.0,6.0,2.0,1.0,2.0,6.0
1705080363.4374938,-4.0,3.0,7.0,5.0,1.0,3.0,2.0,-2.0
1705080363.4474814,20.0,-2.0,0.0,0.0,1.0,1.0,0.0,7.0
1705080363.4474814,-59.0,-15.0,-18.0,0.0,0.0,-5.0,-6.0,-20.0
1705080363.4474814,12.0,-1.0,-2.0,-3.0,-4.0,-2.0,-4.0,-1.0
1705080363.4474814,10.0,15.0,-5.0,-6.0,1.0,2.0,4.0,4.0
1705080363.4674852,-21.0,-2.0,11.0,6.0,-4.0,-3.0,-4.0,-7.0
1705080363.4674852,30.0,14.0,-17.0,-16.0,-7.0,-3.0,-4.0,2.0
1705080363.4674852,-2.0,17.0,35.0,29.0,12.0,9.0,8.0,9.0
1705080363.4674852,-21.0,-88.0,-27.0,6.0,3.0,2.0,-3.0,-7.0
1705080363.4878063,-16.0,33.0,-34.0,-24.0,-9.0,-6.0,-7.0,-15.0
1705080363.4878063,4.0,1.0,3.0,-4.0,-3.0,-2.0,-1.0,2.0
1705080363.497489,-1.0,-9.0,2.0,-10.0,-4.0,-1.0,-1.0,3.0
1705080363.497489,12.0,21.0,18.0,3.0,3.0,2.0,3.0,6.0
1705080363.5074806,-5.0,-1.0,17.0,14.0,6.0,-1.0,2.0,5.0
1705080363.5074806,-6.0,-64.0,-33.0,-15.0,-8.0,-5.0,-5.0,-5.0
1705080363.5074806,0.0,26.0,-15.0,-12.0,-5.0,0.0,-2.0,-1.0
1705080363.5074806,-6.0,31.0,4.0,-1.0,-4.0,-4.0,-1.0,-4.0
1705080363.528004,24.0,54.0,42.0,17.0,5.0,1.0,2.0,10.0
1705080363.528004,-7.0,-22.0,-6.0,5.0,1.0,1.0,-2.0,-3.0
1705080363.528004,-27.0,-37.0,-23.0,-14.0,-9.0,-8.0,-6.0,-7.0
1705080363.528004,-19.0,-46.0,-21.0,-6.0,-6.0,-5.0,-7.0,-12.0
1705080363.5479717,-37.0,-73.0,-4.0,-6.0,0.0,1.0,-1.0,-11.0
1705080363.5479717,54.0,90.0,23.0,-1.0,2.0,5.0,5.0,8.0
1705080363.5479717,-18.0,-46.0,-8.0,-3.0,-3.0,-2.0,-3.0,-5.0
1705080363.5479717,11.0,31.0,32.0,11.0,4.0,1.0,3.0,4.0
1705080363.5676465,0.0,-42.0,-24.0,-3.0,-3.0,-3.0,0.0,0.0
1705080363.5676465,-7.0,23.0,3.0,-1.0,-3.0,-1.0,0.0,3.0
1705080363.5776763,-7.0,-14.0,-33.0,-17.0,-8.0,-5.0,-5.0,-2.0
1705080363.5776763,15.0,42.0,20.0,8.0,2.0,3.0,0.0,4.0
1705080363.588001,-1.0,2.0,0.0,5.0,2.0,1.0,-1.0,3.0
1705080363.588001,-10.0,0.0,14.0,5.0,-1.0,-2.0,-1.0,4.0
1705080363.588001,-5.0,-7.0,-16.0,2.0,1.0,2.0,5.0,4.0
1705080363.588001,30.0,25.0,3.0,5.0,0.0,0.0,3.0,6.0
1705080363.6079955,-14.0,10.0,-29.0,-16.0,-5.0,-1.0,-1.0,1.0
1705080363.6079955,-58.0,45.0,11.0,5.0,0.0,-1.0,-4.0,-19.0
1705080363.6176426,15.0,-69.0,5.0,5.0,2.0,-1.0,0.0,2.0
1705080363.6176426,-17.0,-3.0,-13.0,-5.0,-1.0,-2.0,-6.0,-8.0
1705080363.6276407,7.0,-62.0,-28.0,-13.0,-7.0,-2.0,-2.0,3.0
1705080363.6276407,35.0,48.0,15.0,-8.0,-5.0,-2.0,0.0,3.0
1705080363.6276407,-9.0,-30.0,4.0,-1.0,1.0,1.0,1.0,-7.0
1705080363.6276407,-7.0,-17.0,-8.0,2.0,1.0,0.0,2.0,0.0
1705080363.648067,-6.0,17.0,19.0,0.0,-2.0,-1.0,0.0,0.0
1705080363.648067,20.0,-21.0,-4.0,5.0,3.0,1.0,6.0,12.0
1705080363.648067,15.0,39.0,20.0,6.0,1.0,0.0,-1.0,0.0
1705080363.648067,1.0,-16.0,-11.0,-9.0,-4.0,-2.0,-2.0,3.0
1705080363.6676426,12.0,3.0,5.0,2.0,2.0,0.0,-1.0,-5.0
1705080363.6676426,-14.0,-5.0,-1.0,-1.0,-1.0,-4.0,-4.0,-3.0
1705080363.6676426,5.0,20.0,-3.0,-3.0,-1.0,-1.0,0.0,13.0
1705080363.6676426,-5.0,0.0,-3.0,-2.0,0.0,-2.0,-4.0,1.0
1705080363.6880713,53.0,39.0,27.0,-1.0,-1.0,1.0,1.0,11.0
1705080363.6880713,42.0,-36.0,-12.0,4.0,2.0,2.0,0.0,2.0
1705080363.6880713,-44.0,41.0,-6.0,-5.0,-5.0,-2.0,-6.0,-16.0
1705080363.6880713,7.0,18.0,17.0,0.0,-2.0,1.0,1.0,2.0
1705080363.708086,-20.0,-10.0,0.0,5.0,1.0,-1.0,-3.0,-17.0
1705080363.708086,9.0,-22.0,-3.0,-8.0,-2.0,-3.0,-1.0,5.0
1705080363.708086,2.0,11.0,4.0,-1.0,-1.0,-1.0,5.0,6.0
1705080363.708086,-5.0,2.0,0.0,-3.0,-2.0,-1.0,-2.0,1.0
1705080363.7276418,3.0,12.0,1.0,-1.0,-1.0,0.0,0.0,-4.0
1705080363.7276418,-15.0,-14.0,-5.0,-2.0,-2.0,-4.0,-5.0,21.0
1705080363.7276418,-25.0,27.0,7.0,6.0,1.0,-1.0,-7.0,-43.0
1705080363.7276418,20.0,-44.0,-27.0,-10.0,-3.0,0.0,2.0,-4.0
1705080363.748007,-10.0,-6.0,7.0,-1.0,-2.0,-2.0,0.0,3.0
1705080363.748007,-6.0,1.0,-9.0,4.0,4.0,7.0,15.0,17.0
1705080363.748007,-16.0,-13.0,7.0,5.0,4.0,5.0,2.0,11.0
1705080363.748007,-4.0,4.0,6.0,0.0,-4.0,0.0,-34.0,-47.0
1705080363.7680724,-18.0,1.0,-12.0,-6.0,-9.0,-22.0,-11.0,-6.0
1705080363.7680724,24.0,4.0,0.0,-3.0,-4.0,-3.0,1.0,-15.0
1705080363.7680724,8.0,7.0,6.0,-2.0,0.0,1.0,8.0,24.0
1705080363.7680724,-18.0,0.0,2.0,3.0,5.0,11.0,12.0,6.0
1705080363.7876434,-9.0,-6.0,-10.0,0.0,0.0,5.0,-1.0,-2.0
1705080363.7876434,-9.0,0.0,5.0,0.0,-3.0,-3.0,-4.0,-10.0
1705080363.7876434,12.0,-13.0,-5.0,1.0,0.0,1.0,3.0,12.0
1705080363.7876434,-16.0,1.0,-1.0,0.0,-1.0,-6.0,0.0,-5.0
1705080363.807699,13.0,8.0,-3.0,0.0,1.0,1.0,1.0,6.0
1705080363.807699,-21.0,-13.0,-3.0,-2.0,-2.0,-4.0,-6.0,-18.0
1705080363.807699,23.0,4.0,0.0,-3.0,-4.0,0.0,-4.0,-3.0
1705080363.807699,-7.0,-2.0,6.0,4.0,-2.0,-4.0,7.0,18.0
1705080363.8376424,47.0,19.0,6.0,6.0,4.0,3.0,-1.0,-33.0
1705080363.8376424,-57.0,-15.0,-10.0,-7.0,-6.0,-3.0,-13.0,-22.0
1705080363.8376424,-2.0,4.0,5.0,-1.0,0.0,-3.0,0.0,5.0
1705080363.8376424,-11.0,-15.0,-7.0,1.0,2.0,-2.0,1.0,10.0
1705080363.8579597,13.0,39.0,20.0,8.0,3.0,1.0,-6.0,-20.0
1705080363.8579597,31.0,5.0,-10.0,-4.0,0.0,2.0,3.0,-7.0
1705080363.8579597,-2.0,-20.0,-18.0,-11.0,-4.0,-4.0,-10.0,-16.0
1705080363.8579597,6.0,14.0,11.0,0.0,1.0,6.0,8.0,16.0
1705080363.867906,-26.0,-33.0,-7.0,-3.0,-4.0,-1.0,2.0,21.0
1705080363.867906,11.0,6.0,9.0,0.0,-7.0,-17.0,-9.0,-13.0
1705080363.8776476,16.0,3.0,5.0,3.0,0.0,-1.0,-1.0,-4.0
1705080363.8776476,-10.0,-13.0,-18.0,-11.0,-3.0,-2.0,-2.0,-8.0
1705080363.9076462,39.0,25.0,16.0,6.0,7.0,9.0,6.0,20.0
1705080363.9076462,-66.0,-43.0,-13.0,-1.0,3.0,4.0,3.0,-16.0
1705080363.9076462,-25.0,-50.0,-22.0,-9.0,-7.0,-8.0,-20.0,-16.0
1705080363.9076462,-6.0,-17.0,8.0,2.0,-1.0,-4.0,2.0,-1.0
1705080363.9076462,-17.0,26.0,11.0,1.0,0.0,1.0,-9.0,-10.0
1705080363.9076462,13.0,0.0,-11.0,1.0,1.0,2.0,4.0,22.0
1705080363.9076462,15.0,17.0,8.0,5.0,0.0,1.0,-2.0,9.0
1705080363.9076462,-24.0,-16.0,-15.0,-7.0,-5.0,-5.0,-2.0,-19.0
1705080363.9286666,-10.0,20.0,7.0,-2.0,-4.0,-5.0,3.0,10.0
1705080363.9286666,-2.0,-36.0,-3.0,0.0,2.0,6.0,2.0,7.0
1705080363.9361653,-22.0,23.0,9.0,2.0,-1.0,-2.0,0.0,12.0
1705080363.9361653,9.0,-6.0,6.0,4.0,2.0,-1.0,0.0,16.0
1705080363.9500556,48.0,40.0,-7.0,-6.0,-3.0,4.0,12.0,11.0
1705080363.9500556,1.0,10.0,7.0,1.0,2.0,1.0,-4.0,4.0
1705080363.9500556,-23.0,-3.0,-3.0,0.0,0.0,0.0,0.0,-6.0
1705080363.9500556,11.0,45.0,28.0,5.0,1.0,-3.0,-2.0,14.0
1705080363.9704254,-56.0,-54.0,-46.0,-7.0,-4.0,-2.0,-3.0,-10.0
1705080363.9704254,3.0,37.0,1.0,-4.0,-2.0,1.0,0.0,-8.0
1705080363.9704254,50.0,54.0,15.0,6.0,1.0,-2.0,0.0,8.0
1705080363.9704254,-19.0,-18.0,-14.0,-5.0,-3.0,-3.0,-5.0,-18.0
1705080363.9803722,18.0,-9.0,9.0,2.0,0.0,0.0,-1.0,11.0
1705080363.9803722,16.0,1.0,-1.0,-2.0,-4.0,-2.0,1.0,-3.0
1705080364.0000584,-22.0,42.0,8.0,-3.0,0.0,0.0,6.0,-4.0
1705080364.0000584,24.0,-32.0,-3.0,4.0,3.0,2.0,5.0,22.0
1705080364.010279,14.0,-10.0,-11.0,-4.0,-2.0,-1.0,-5.0,-14.0
1705080364.010279,-10.0,-21.0,3.0,0.0,-1.0,-3.0,1.0,7.0
1705080364.010279,20.0,81.0,23.0,2.0,0.0,1.0,-2.0,-3.0
1705080364.010279,26.0,-85.0,-40.0,-5.0,0.0,0.0,-12.0,-36.0
1705080364.0303714,-26.0,-16.0,4.0,-3.0,-4.0,-3.0,0.0,2.0
1705080364.0303714,36.0,67.0,22.0,10.0,4.0,4.0,0.0,15.0
1705080364.0303714,-31.0,-63.0,-24.0,-12.0,-7.0,-7.0,-11.0,-28.0
1705080364.0303714,-18.0,22.0,9.0,-2.0,-4.0,-2.0,5.0,4.0
1705080364.0403605,-13.0,-5.0,-1.0,0.0,3.0,0.0,-5.0,2.0
1705080364.0403605,52.0,4.0,8.0,5.0,2.0,2.0,1.0,13.0
1705080364.0600567,-49.0,-24.0,7.0,-2.0,-4.0,-3.0,1.0,1.0
1705080364.0600567,-6.0,38.0,7.0,1.0,0.0,1.0,1.0,3.0
1705080364.0704453,-38.0,-27.0,-5.0,-6.0,-4.0,-6.0,-7.0,-10.0
1705080364.0704453,0.0,16.0,-2.0,-2.0,-2.0,-2.0,1.0,14.0
1705080364.0704453,-4.0,-46.0,-20.0,-2.0,1.0,0.0,0.0,-11.0
1705080364.0704453,-5.0,37.0,-2.0,-6.0,-3.0,-4.0,-4.0,1.0
1705080364.0904996,46.0,-8.0,-10.0,-5.0,-1.0,1.0,4.0,6.0
1705080364.0904996,-7.0,1.0,6.0,5.0,2.0,1.0,5.0,8.0
1705080364.0904996,44.0,16.0,-10.0,-8.0,-3.0,-1.0,-9.0,-7.0
1705080364.0904996,23.0,-4.0,8.0,5.0,2.0,0.0,6.0,5.0
1705080364.1004145,-50.0,-19.0,5.0,3.0,0.0,0.0,0.0,-4.0
1705080364.1004145,-28.0,-45.0,-32.0,-11.0,-7.0,-7.0,-10.0,-11.0
1705080364.1200612,-4.0,18.0,-9.0,-8.0,-3.0,-3.0,1.0,4.0
1705080364.1200612,-21.0,43.0,0.0,-5.0,-3.0,-2.0,-3.0,-7.0
1705080364.1300917,-7.0,-5.0,0.0,-2.0,-2.0,-3.0,-1.0,0.0
1705080364.1300917,19.0,13.0,18.0,1.0,1.0,1.0,-3.0,0.0
1705080364.1400607,2.0,-21.0,8.0,11.0,3.0,0.0,3.0,-9.0
1705080364.1400607,38.0,-8.0,-1.0,4.0,1.0,4.0,9.0,21.0
1705080364.1504755,-1.0,-6.0,-6.0,-5.0,-6.0,-4.0,-5.0,4.0
1705080364.1504755,7.0,1.0,-15.0,0.0,3.0,2.0,3.0,-8.0
1705080364.1504755,13.0,-46.0,-13.0,-6.0,-3.0,0.0,5.0,23.0
1705080364.1504755,-15.0,9.0,2.0,2.0,1.0,-1.0,-2.0,-9.0
1705080364.170432,-43.0,82.0,31.0,7.0,1.0,1.0,2.0,-2.0
1705080364.170432,59.0,-66.0,-32.0,-18.0,-7.0,-4.0,-3.0,27.0
1705080364.170432,-55.0,-4.0,-4.0,-1.0,-2.0,-6.0,-9.0,-5.0
1705080364.170432,-19.0,9.0,7.0,-1.0,-1.0,-4.0,-6.0,-7.0
1705080364.1900573,23.0,-11.0,8.0,4.0,2.0,1.0,0.0,-11.0
1705080364.1900573,-16.0,7.0,1.0,2.0,0.0,-2.0,-5.0,-15.0
1705080364.1900573,-66.0,5.0,-5.0,-8.0,-3.0,-2.0,-2.0,-14.0
1705080364.1900573,53.0,-22.0,20.0,8.0,4.0,0.0,1.0,30.0
1705080364.2104974,-16.0,-3.0,-16.0,-2.0,-4.0,-5.0,-6.0,-7.0
1705080364.2104974,-32.0,20.0,8.0,-2.0,-2.0,-2.0,-3.0,-11.0
1705080364.220449,-3.0,-12.0,3.0,7.0,1.0,0.0,2.0,-3.0
1705080364.220449,-44.0,53.0,-2.0,-8.0,-4.0,-6.0,-10.0,-22.0
1705080364.2400577,41.0,-12.0,6.0,-3.0,1.0,1.0,-3.0,2.0
1705080364.2400577,-32.0,12.0,1.0,-3.0,2.0,5.0,12.0,4.0
1705080364.2400577,63.0,-42.0,-26.0,-4.0,-2.0,2.0,2.0,17.0
1705080364.2400577,-43.0,-14.0,5.0,-3.0,-6.0,-14.0,-25.0,-30.0
1705080364.2503347,-4.0,0.0,-3.0,1.0,-5.0,-7.0,-6.0,-5.0
1705080364.2503347,-19.0,-5.0,-7.0,-4.0,-2.0,0.0,-4.0,-20.0
1705080364.2503347,13.0,6.0,15.0,6.0,3.0,5.0,11.0,22.0
1705080364.2503347,-9.0,-9.0,-11.0,-5.0,-2.0,4.0,7.0,6.0
1705080364.2700732,-15.0,-16.0,-7.0,-3.0,0.0,-2.0,-4.0,-9.0
1705080364.2700732,-22.0,-16.0,3.0,2.0,-1.0,-2.0,-3.0,-12.0
1705080364.2800615,32.0,24.0,13.0,5.0,2.0,0.0,2.0,7.0
1705080364.2800615,9.0,-16.0,-10.0,-4.0,-3.0,2.0,1.0,-1.0
1705080364.3000932,9.0,-5.0,-8.0,-1.0,0.0,4.0,10.0,4.0
1705080364.3000932,-15.0,0.0,3.0,-1.0,-2.0,-3.0,-4.0,8.0
1705080364.3000932,10.0,22.0,12.0,2.0,1.0,2.0,-14.0,-28.0
1705080364.3000932,8.0,27.0,8.0,-1.0,-4.0,-12.0,-6.0,-6.0
1705080364.3104343,-8.0,-7.0,2.0,-1.0,1.0,2.0,3.0,8.0
1705080364.3104343,2.0,-5.0,-9.0,-5.0,-3.0,-1.0,2.0,-13.0
1705080364.3104343,-64.0,-23.0,-10.0,-4.0,-2.0,2.0,2.0,16.0
1705080364.3104343,95.0,9.0,4.0,5.0,8.0,14.0,19.0,26.0
1705080364.3301294,-93.0,-30.0,-15.0,-5.0,-3.0,-3.0,-7.0,-16.0
1705080364.3301294,-2.0,9.0,6.0,1.0,-4.0,-6.0,-7.0,-10.0
1705080364.340058,9.0,14.0,5.0,0.0,-2.0,-2.0,5.0,13.0
1705080364.340058,-12.0,-20.0,-6.0,-1.0,1.0,14.0,5.0,-8.0
1705080364.350347,24.0,6.0,-4.0,0.0,8.0,9.0,-5.0,13.0
1705080364.350347,-7.0,-2.0,0.0,-4.0,-10.0,-30.0,-8.0,-2.0
1705080364.350347,39.0,7.0,-1.0,-2.0,-10.0,-10.0,-6.0,-5.0
1705080364.350347,-10.0,0.0,1.0,-1.0,-4.0,-4.0,0.0,-1.0
1705080364.370059,8.0,-20.0,-5.0,-1.0,0.0,3.0,3.0,3.0
1705080364.370059,-6.0,7.0,2.0,1.0,8.0,13.0,0.0,3.0
1705080364.370059,19.0,-7.0,-5.0,-1.0,2.0,0.0,3.0,-3.0
1705080364.370059,-37.0,-16.0,-7.0,-3.0,-1.0,-7.0,-6.0,-4.0
1705080364.3900585,7.0,7.0,2.0,-1.0,-3.0,-3.0,0.0,1.0
1705080364.3900585,17.0,4.0,1.0,-1.0,-2.0,3.0,-1.0,13.0
1705080364.4000578,-37.0,-14.0,-7.0,-2.0,-2.0,-6.0,-6.0,-20.0
1705080364.4000578,8.0,-2.0,0.0,0.0,0.0,3.0,4.0,7.0
1705080364.410387,-25.0,1.0,-4.0,-2.0,-2.0,-6.0,-6.0,-24.0
1705080364.410387,19.0,-9.0,-4.0,-3.0,-5.0,-3.0,0.0,5.0
1705080364.410387,43.0,18.0,4.0,0.0,0.0,1.0,5.0,17.0
1705080364.410387,-34.0,-11.0,-5.0,2.0,1.0,-2.0,-6.0,-9.0
1705080364.4304073,50.0,3.0,-1.0,-1.0,0.0,2.0,10.0,31.0
1705080364.4304073,-4.0,5.0,3.0,0.0,-1.0,-1.0,2.0,10.0
1705080364.4304073,-5.0,-2.0,2.0,1.0,1.0,-1.0,-5.0,-36.0
1705080364.4304073,-3.0,-12.0,-5.0,-2.0,1.0,1.0,-8.0,-36.0
1705080364.454173,-11.0,3.0,-3.0,-2.0,0.0,2.0,-1.0,4.0
1705080364.454173,6.0,-1.0,-1.0,1.0,2.0,10.0,4.0,6.0
1705080364.4581695,14.0,6.0,4.0,-3.0,-3.0,0.0,0.0,4.0
1705080364.4581695,-7.0,-6.0,2.0,-4.0,-9.0,-19.0,-4.0,10.0
1705080364.4769335,10.0,6.0,-2.0,-1.0,-8.0,-4.0,-5.0,-18.0
1705080364.4779558,-35.0,-25.0,-2.0,-1.0,6.0,2.0,1.0,1.0
1705080364.4789493,25.0,14.0,1.0,3.0,-1.0,5.0,2.0,-7.0
1705080364.4789493,-20.0,8.0,-3.0,-3.0,-3.0,0.0,-2.0,-3.0
1705080364.4827907,-9.0,-23.0,-12.0,-3.0,2.0,-2.0,-4.0,-8.0
1705080364.4827907,-29.0,23.0,-6.0,-6.0,-6.0,-8.0,-7.0,-7.0
1705080364.4928463,31.0,-11.0,-4.0,1.0,16.0,2.0,12.0,27.0
1705080364.4928463,14.0,15.0,5.0,-2.0,-8.0,-4.0,-3.0,3.0
1705080364.5127845,9.0,-13.0,4.0,0.0,-2.0,-4.0,-2.0,-15.0
1705080364.5127845,0.0,12.0,7.0,2.0,3.0,6.0,-1.0,-23.0
1705080364.5127845,-17.0,-14.0,-5.0,-2.0,-2.0,-17.0,-4.0,-1.0
1705080364.5127845,-14.0,-16.0,-4.0,-3.0,-6.0,2.0,-6.0,7.0
1705080364.5330985,13.0,48.0,7.0,2.0,5.0,7.0,2.0,14.0
1705080364.5330985,-7.0,-17.0,-19.0,-8.0,-6.0,-2.0,-9.0,-9.0
1705080364.5330985,-13.0,3.0,1.0,-5.0,-1.0,-5.0,0.0,-22.0
1705080364.5330985,-6.0,-14.0,20.0,6.0,2.0,-2.0,1.0,14.0
1705080364.5427866,-11.0,-8.0,-23.0,-7.0,-5.0,-9.0,-4.0,-1.0
1705080364.5427866,29.0,11.0,5.0,2.0,0.0,-2.0,-3.0,-1.0
1705080364.5530276,-20.0,-8.0,-1.0,-2.0,2.0,5.0,2.0,9.0
1705080364.5530276,0.0,-1.0,-2.0,1.0,9.0,3.0,3.0,-21.0
1705080364.572889,39.0,-6.0,22.0,7.0,-7.0,-3.0,-45.0,-7.0
1705080364.572889,-10.0,17.0,-18.0,-5.0,1.0,-4.0,38.0,1.0
1705080364.572889,-35.0,-27.0,-13.0,-9.0,-7.0,10.0,24.0,-7.0
1705080364.572889,3.0,13.0,-2.0,-1.0,-1.0,3.0,-1.0,-2.0
1705080364.5927866,-20.0,-14.0,5.0,0.0,-13.0,-10.0,6.0,10.0
1705080364.5927866,3.0,-20.0,7.0,3.0,2.0,0.0,-18.0,-2.0
1705080364.5927866,19.0,17.0,7.0,5.0,2.0,0.0,-9.0,-9.0
1705080364.5927866,13.0,10.0,-9.0,-4.0,4.0,-9.0,8.0,3.0
1705080364.6030874,-6.0,8.0,-2.0,-2.0,4.0,5.0,-9.0,-6.0
1705080364.6030874,10.0,-17.0,4.0,1.0,-2.0,1.0,-13.0,8.0
1705080364.6133366,11.0,14.0,-5.0,0.0,-1.0,0.0,10.0,17.0
1705080364.6133366,1.0,-15.0,-4.0,-2.0,-1.0,-1.0,-10.0,-3.0
1705080364.643109,-9.0,7.0,3.0,-3.0,0.0,-3.0,14.0,23.0
1705080364.643109,1.0,-24.0,10.0,3.0,-1.0,-3.0,-6.0,-8.0
1705080364.643109,-17.0,-25.0,-2.0,-1.0,-1.0,-1.0,-6.0,2.0
1705080364.643109,-17.0,24.0,-7.0,-6.0,-4.0,-1.0,-4.0,8.0
1705080364.6534796,-16.0,10.0,-4.0,-3.0,0.0,-3.0,6.0,16.0
1705080364.6534796,25.0,-2.0,2.0,0.0,-3.0,0.0,8.0,-18.0
1705080364.6534796,-14.0,-6.0,1.0,3.0,4.0,0.0,-12.0,-13.0
1705080364.6534796,-11.0,-1.0,1.0,0.0,-9.0,-2.0,0.0,-1.0
1705080364.6731067,-2.0,22.0,11.0,0.0,3.0,3.0,7.0,0.0
1705080364.6731067,-29.0,-48.0,-21.0,-7.0,-6.0,-8.0,-12.0,-4.0
1705080364.6731067,9.0,11.0,-7.0,-4.0,2.0,-1.0,-7.0,-8.0
1705080364.6731067,18.0,-16.0,2.0,1.0,4.0,5.0,-1.0,-4.0
1705080364.6935353,2.0,-17.0,-4.0,1.0,-1.0,-8.0,9.0,-12.0
1705080364.6935353,2.0,29.0,13.0,4.0,-4.0,2.0,-6.0,11.0
1705080364.6935353,5.0,14.0,4.0,3.0,-1.0,-2.0,-9.0,-6.0
1705080364.6935353,-21.0,-21.0,-13.0,-9.0,-1.0,-3.0,-2.0,5.0
1705080364.7135377,-2.0,7.0,3.0,3.0,4.0,2.0,2.0,-13.0
1705080364.7135377,-4.0,14.0,12.0,4.0,2.0,0.0,8.0,7.0
1705080364.7135377,-23.0,-83.0,-38.0,-14.0,-9.0,-10.0,-21.0,-7.0
1705080364.7135377,6.0,36.0,3.0,2.0,-1.0,5.0,7.0,8.0
1705080364.7331069,-17.0,-10.0,-5.0,-1.0,-2.0,2.0,-3.0,-13.0
1705080364.7331069,21.0,-13.0,0.0,1.0,2.0,0.0,-2.0,-14.0
1705080364.7331069,0.0,-27.0,-1.0,3.0,0.0,2.0,3.0,7.0
1705080364.7331069,21.0,58.0,17.0,7.0,1.0,0.0,9.0,6.0
1705080364.7531743,-28.0,-102.0,-45.0,-15.0,-2.0,9.0,10.0,-7.0
1705080364.7531743,1.0,8.0,13.0,4.0,4.0,5.0,-7.0,1.0
1705080364.7531743,20.0,56.0,5.0,-13.0,-17.0,-38.0,-33.0,-11.0
1705080364.7531743,-17.0,-10.0,-5.0,5.0,-8.0,-10.0,-10.0,-15.0
1705080364.7734323,11.0,11.0,17.0,11.0,2.0,0.0,5.0,7.0
1705080364.7734323,-5.0,30.0,-9.0,-7.0,3.0,11.0,5.0,4.0
1705080364.7734323,5.0,0.0,7.0,7.0,5.0,17.0,11.0,18.0
1705080364.7734323,8.0,0.0,2.0,-5.0,0.0,-2.0,-3.0,-4.0
1705080364.793107,-2.0,22.0,0.0,-3.0,-4.0,-4.0,-6.0,-7.0
1705080364.793107,3.0,-8.0,-5.0,0.0,1.0,1.0,4.0,4.0
1705080364.793107,-13.0,17.0,13.0,3.0,2.0,0.0,1.0,0.0
1705080364.793107,13.0,-37.0,-14.0,-4.0,-4.0,-1.0,3.0,-3.0
1705080364.8134286,-28.0,2.0,-1.0,-7.0,-3.0,-1.0,-4.0,-6.0
1705080364.8134286,9.0,45.0,1.0,-7.0,-5.0,-8.0,-6.0,1.0
1705080364.8134286,-14.0,9.0,0.0,5.0,1.0,5.0,3.0,-5.0
1705080364.8134286,7.0,-22.0,-3.0,-3.0,-1.0,2.0,1.0,1.0
1705080364.8334382,15.0,13.0,7.0,0.0,2.0,4.0,8.0,6.0
1705080364.8334382,-1.0,-12.0,-10.0,-5.0,-4.0,2.0,2.0,25.0
1705080364.8334382,-5.0,10.0,12.0,2.0,-4.0,1.0,-21.0,-22.0
1705080364.8334382,8.0,-17.0,-1.0,1.0,-2.0,-21.0,-13.0,-31.0
1705080364.8631082,28.0,10.0,-2.0,-4.0,-1.0,1.0,4.0,12.0
1705080364.8631082,-40.0,-12.0,-2.0,3.0,5.0,22.0,14.0,1.0
1705080364.8631082,11.0,-6.0,-3.0,-5.0,-3.0,-20.0,-2.0,12.0
1705080364.8631082,-15.0,-6.0,-3.0,-1.0,-6.0,-14.0,-15.0,-3.0
1705080364.873141,2.0,-1.0,-2.0,-4.0,-6.0,-10.0,-9.0,-8.0
1705080364.873141,-1.0,5.0,2.0,-2.0,-2.0,-1.0,-1.0,-4.0
1705080364.873141,24.0,6.0,1.0,5.0,11.0,26.0,18.0,16.0
1705080364.873141,-29.0,1.0,0.0,0.0,0.0,4.0,0.0,-1.0
1705080364.8931093,-9.0,-4.0,-7.0,-4.0,-5.0,-6.0,-3.0,-7.0
1705080364.8931093,6.0,-6.0,-7.0,-4.0,-1.0,3.0,-2.0,-6.0
1705080364.8931093,7.0,8.0,13.0,10.0,2.0,0.0,3.0,2.0
1705080364.8931093,16.0,9.0,4.0,5.0,3.0,3.0,5.0,-2.0
1705080364.903106,16.0,-23.0,1.0,-1.0,0.0,7.0,1.0,15.0
1705080364.903106,-13.0,0.0,-8.0,-3.0,-4.0,-14.0,-9.0,-2.0
1705080364.9134612,1.0,19.0,-9.0,-14.0,-8.0,-5.0,0.0,3.0
1705080364.9134612,-9.0,-10.0,6.0,2.0,4.0,8.0,6.0,13.0
1705080364.9334195,-3.0,6.0,1.0,5.0,3.0,2.0,-5.0,-9.0
1705080364.9334195,-8.0,-22.0,3.0,-4.0,-5.0,-12.0,-8.0,-5.0
1705080364.9334195,29.0,23.0,8.0,5.0,-2.0,-1.0,2.0,2.0
1705080364.9334195,-2.0,-7.0,-13.0,-4.0,3.0,12.0,6.0,10.0
1705080364.9531066,0.0,6.0,3.0,-3.0,-3.0,-6.0,-7.0,-6.0
1705080364.9531066,4.0,-20.0,9.0,2.0,-1.0,-6.0,-2.0,-6.0
1705080364.9531066,-10.0,28.0,-6.0,-4.0,0.0,4.0,5.0,16.0
1705080364.9531066,1.0,-6.0,4.0,-3.0,-3.0,-1.0,-4.0,0.0
1705080364.96314,-28.0,-11.0,-10.0,0.0,0.0,-4.0,-4.0,-2.0
1705080364.96314,28.0,-8.0,0.0,3.0,2.0,-1.0,-1.0,-3.0
1705080364.9733438,-14.0,-2.0,2.0,-2.0,-2.0,2.0,1.0,-5.0
1705080364.9733438,-4.0,2.0,-1.0,-4.0,-1.0,-3.0,-4.0,-7.0
1705080364.9946158,-6.0,3.0,3.0,1.0,-2.0,-2.0,-4.0,-2.0
1705080364.9946158,-23.0,2.0,5.0,-2.0,-2.0,-2.0,-3.0,-7.0
1705080365.0004923,-13.0,-41.0,-12.0,-1.0,1.0,-2.0,0.0,-1.0
1705080365.0015197,12.0,33.0,2.0,-2.0,-3.0,0.0,0.0,0.0
1705080365.025884,-6.0,-17.0,-1.0,0.0,1.0,-1.0,0.0,-7.0
1705080365.025884,0.0,46.0,1.0,-4.0,0.0,-2.0,-5.0,-8.0
1705080365.025884,-5.0,-10.0,-3.0,-4.0,-1.0,0.0,0.0,-3.0
1705080365.025884,-14.0,-20.0,-2.0,0.0,-1.0,0.0,2.0,0.0
1705080365.025884,-2.0,27.0,8.0,1.0,-2.0,-3.0,-2.0,0.0
1705080365.025884,-4.0,-2.0,3.0,7.0,1.0,-1.0,-1.0,1.0
1705080365.0359058,-15.0,-29.0,-9.0,-2.0,-1.0,-1.0,-1.0,-4.0
1705080365.0359058,17.0,-12.0,0.0,-1.0,1.0,1.0,1.0,12.0
1705080365.046203,-6.0,19.0,-8.0,-2.0,-3.0,-3.0,-2.0,0.0
1705080365.046203,25.0,-3.0,-4.0,-4.0,-3.0,-4.0,-5.0,-10.0
1705080365.0562048,4.0,21.0,13.0,4.0,0.0,2.0,1.0,-2.0
1705080365.0562048,-22.0,-40.0,-7.0,-3.0,1.0,2.0,-2.0,-14.0
1705080365.0762386,15.0,7.0,-1.0,-4.0,-2.0,-2.0,0.0,7.0
1705080365.0762386,-8.0,38.0,-5.0,-3.0,-5.0,-3.0,-2.0,0.0
1705080365.0762386,2.0,-4.0,-3.0,-1.0,0.0,2.0,1.0,-2.0
1705080365.0762386,14.0,36.0,18.0,2.0,-2.0,-1.0,-1.0,4.0
1705080365.0965397,-8.0,-52.0,-27.0,-2.0,-1.0,1.0,-3.0,-2.0
1705080365.0965397,15.0,27.0,5.0,3.0,0.0,1.0,0.0,-1.0
1705080365.0965397,-4.0,-14.0,-3.0,-5.0,-4.0,-2.0,0.0,5.0
1705080365.0965397,-13.0,19.0,-4.0,0.0,-1.0,-1.0,-4.0,-16.0
1705080365.1065142,-5.0,-54.0,-3.0,0.0,0.0,-1.0,-3.0,-15.0
1705080365.1065142,5.0,-9.0,-3.0,-4.0,-3.0,-4.0,-3.0,-2.0
1705080365.1164546,-20.0,12.0,-7.0,-2.0,0.0,-2.0,-3.0,-8.0
1705080365.1164546,5.0,30.0,10.0,-1.0,-3.0,-1.0,1.0,8.0
1705080365.1462421,11.0,35.0,14.0,4.0,0.0,1.0,1.0,5.0
1705080365.1462421,-39.0,-105.0,-35.0,-1.0,-3.0,-4.0,-6.0,-19.0
1705080365.1462421,-19.0,3.0,1.0,-11.0,-6.0,-3.0,-4.0,-3.0
1705080365.1462421,-33.0,32.0,-2.0,0.0,-1.0,0.0,-3.0,6.0
1705080365.156277,-12.0,-43.0,16.0,7.0,2.0,-3.0,-2.0,-6.0
1705080365.156277,-9.0,59.0,1.0,-5.0,-4.0,-2.0,1.0,12.0
1705080365.156277,-5.0,17.0,-4.0,1.0,0.0,-1.0,-1.0,-2.0
1705080365.156277,-4.0,-48.0,-8.0,-1.0,-1.0,-1.0,0.0,-2.0
1705080365.1666343,-5.0,47.0,6.0,-1.0,-3.0,-3.0,-4.0,5.0
1705080365.1666343,1.0,-43.0,-6.0,-1.0,-1.0,-2.0,1.0,7.0
1705080365.1862383,20.0,-15.0,6.0,2.0,3.0,2.0,3.0,3.0
1705080365.1862383,3.0,-50.0,-17.0,-3.0,-1.0,-1.0,1.0,1.0
1705080365.196626,-41.0,34.0,-2.0,-7.0,-5.0,-7.0,-9.0,-18.0
1705080365.196626,48.0,36.0,19.0,7.0,4.0,2.0,9.0,22.0
1705080365.196626,18.0,-4.0,-1.0,-2.0,-2.0,-2.0,-6.0,-1.0
1705080365.196626,-1.0,0.0,-16.0,-4.0,1.0,0.0,2.0,13.0
1705080365.2162628,-5.0,1.0,4.0,0.0,-1.0,1.0,1.0,-5.0
1705080365.2162628,-16.0,-7.0,-1.0,-5.0,-4.0,-3.0,0.0,14.0
1705080365.2162628,67.0,-32.0,6.0,5.0,3.0,4.0,4.0,-17.0
1705080365.2162628,20.0,42.0,-3.0,0.0,0.0,0.0,0.0,8.0
1705080365.2262442,-3.0,-32.0,-15.0,-2.0,1.0,-2.0,-7.0,-6.0
1705080365.2262442,-21.0,56.0,21.0,-2.0,-5.0,-3.0,-2.0,19.0
1705080365.2362394,86.0,-10.0,-14.0,6.0,6.0,7.0,9.0,4.0
1705080365.2362394,-14.0,-19.0,-2.0,-4.0,-5.0,-1.0,3.0,10.0
1705080365.2565048,69.0,-12.0,1.0,6.0,6.0,5.0,6.0,13.0
1705080365.2565048,19.0,-45.0,-28.0,-6.0,2.0,2.0,1.0,3.0
1705080365.2565048,-52.0,34.0,6.0,-7.0,-7.0,-7.0,-7.0,-4.0
1705080365.2565048,3.0,-14.0,4.0,1.0,-1.0,-1.0,3.0,-4.0
1705080365.2762468,-15.0,22.0,8.0,-4.0,-6.0,-2.0,2.0,-8.0
1705080365.2762468,-29.0,-24.0,-10.0,0.0,0.0,-3.0,-6.0,-19.0
1705080365.286245,-18.0,3.0,3.0,-2.0,-1.0,-2.0,1.0,6.0
1705080365.286245,-4.0,17.0,-2.0,-2.0,0.0,-1.0,-2.0,4.0
1705080365.306237,48.0,16.0,-3.0,0.0,2.0,3.0,2.0,2.0
1705080365.306237,-28.0,-22.0,2.0,-5.0,-5.0,-5.0,-6.0,-14.0
1705080365.306237,-56.0,-2.0,8.0,7.0,0.0,-3.0,-7.0,-19.0
1705080365.306237,5.0,-15.0,2.0,-3.0,-3.0,-4.0,-4.0,10.0
1705080365.3166184,45.0,68.0,21.0,8.0,4.0,5.0,2.0,-8.0
1705080365.3166184,-42.0,-33.0,-16.0,-9.0,-5.0,-3.0,-6.0,1.0
1705080365.3166184,15.0,17.0,5.0,2.0,0.0,2.0,2.0,-9.0
1705080365.3166184,2.0,-2.0,10.0,5.0,4.0,1.0,-3.0,-15.0
1705080365.336278,-19.0,-7.0,-17.0,-10.0,-6.0,-5.0,-8.0,-6.0
1705080365.336278,31.0,21.0,7.0,3.0,1.0,1.0,0.0,-19.0
1705080365.336278,-44.0,-22.0,2.0,0.0,-3.0,-3.0,-3.0,-21.0
1705080365.336278,-10.0,21.0,5.0,1.0,0.0,0.0,-4.0,-12.0
1705080365.3662639,-23.0,-32.0,-11.0,-5.0,-2.0,-1.0,1.0,25.0
1705080365.3662639,-39.0,15.0,12.0,6.0,2.0,-1.0,-7.0,-17.0
1705080365.3662639,9.0,-23.0,-22.0,-7.0,-2.0,1.0,0.0,23.0
1705080365.3662639,25.0,54.0,9.0,-3.0,-4.0,-2.0,-3.0,-15.0
1705080365.3762393,-41.0,-7.0,-11.0,1.0,0.0,0.0,-8.0,-50.0
1705080365.3762393,-54.0,-18.0,1.0,-5.0,-3.0,-3.0,1.0,3.0
1705080365.3762393,-1.0,6.0,2.0,1.0,1.0,-1.0,-3.0,-3.0
1705080365.3762393,10.0,-5.0,2.0,2.0,1.0,1.0,-1.0,0.0
1705080365.3962402,-16.0,-5.0,2.0,-2.0,-2.0,-3.0,5.0,17.0
1705080365.3962402,33.0,0.0,-10.0,0.0,2.0,0.0,0.0,-7.0
1705080365.3962402,-1.0,-4.0,3.0,-3.0,-2.0,-3.0,1.0,5.0
1705080365.3962402,-18.0,6.0,-8.0,-6.0,-3.0,-5.0,-3.0,5.0
1705080365.4165907,80.0,-13.0,-2.0,-2.0,0.0,2.0,3.0,-4.0
1705080365.4165907,43.0,10.0,6.0,9.0,7.0,6.0,-1.0,-18.0
1705080365.4165907,-8.0,8.0,-3.0,-4.0,-4.0,-1.0,-1.0,13.0
1705080365.4165907,2.0,7.0,-5.0,0.0,-3.0,-2.0,2.0,0.0
1705080365.4362388,-14.0,-5.0,2.0,1.0,1.0,-1.0,3.0,5.0
1705080365.4362388,6.0,-14.0,-3.0,-3.0,-1.0,-1.0,2.0,8.0
1705080365.4362388,72.0,7.0,-3.0,0.0,2.0,0.0,2.0,-4.0
1705080365.4362388,-12.0,-25.0,-7.0,2.0,0.0,-2.0,-8.0,-29.0
1705080365.4565947,-25.0,-9.0,0.0,-1.0,-3.0,-3.0,0.0,10.0
1705080365.4565947,8.0,26.0,8.0,2.0,-3.0,0.0,4.0,18.0
1705080365.4565947,-26.0,-20.0,-12.0,-9.0,-4.0,0.0,0.0,7.0
1705080365.4565947,-13.0,-26.0,-3.0,-1.0,-1.0,-2.0,-3.0,-2.0
1705080365.4862373,6.0,-3.0,-5.0,0.0,0.0,-3.0,-1.0,10.0
1705080365.4862373,2.0,-3.0,-4.0,-2.0,-1.0,-1.0,-1.0,-3.0
1705080365.4862373,-27.0,9.0,1.0,-3.0,-3.0,-4.0,-3.0,-1.0
1705080365.4862373,4.0,-14.0,0.0,-2.0,0.0,5.0,8.0,4.0
1705080365.4862373,-29.0,0.0,4.0,3.0,0.0,3.0,7.0,24.0
1705080365.4962392,8.0,0.0,-6.0,-4.0,-5.0,-8.0,-11.0,25.0
1705080365.4962392,-3.0,8.0,3.0,4.0,0.0,-7.0,-19.0,-56.0
1705080365.4962392,-2.0,-19.0,-15.0,-7.0,-2.0,-3.0,3.0,16.0
1705080365.525743,27.0,5.0,4.0,-1.0,-2.0,-1.0,2.0,-19.0
1705080365.525743,-8.0,-2.0,1.0,-2.0,-2.0,3.0,10.0,19.0
1705080365.525743,-3.0,3.0,0.0,0.0,-2.0,-1.0,-3.0,-2.0
1705080365.525743,-27.0,-1.0,1.0,0.0,-1.0,0.0,-5.0,4.0
1705080365.5321622,3.0,2.0,-1.0,-1.0,0.0,-1.0,-3.0,-1.0
1705080365.5321622,-19.0,-4.0,-1.0,-1.0,0.0,-2.0,0.0,-10.0
1705080365.5321622,8.0,3.0,0.0,-2.0,-2.0,2.0,5.0,7.0
1705080365.5321622,-21.0,-3.0,7.0,1.0,1.0,0.0,3.0,0.0
1705080365.5522761,-43.0,-8.0,-4.0,-3.0,2.0,18.0,11.0,28.0
1705080365.5522761,4.0,-3.0,2.0,-1.0,1.0,13.0,-7.0,9.0
1705080365.5522761,-56.0,-13.0,-9.0,-7.0,-18.0,-70.0,-44.0,-43.0
1705080365.5522761,-8.0,-4.0,-7.0,1.0,-3.0,-3.0,-1.0,6.0
1705080365.5726306,4.0,3.0,1.0,-2.0,-1.0,-2.0,2.0,21.0
1705080365.5726306,22.0,5.0,2.0,0.0,3.0,16.0,11.0,-28.0
1705080365.5726306,6.0,1.0,-3.0,-1.0,6.0,27.0,21.0,25.0
1705080365.5726306,14.0,-3.0,0.0,-2.0,1.0,4.0,4.0,11.0
1705080365.5923102,-2.0,-2.0,-5.0,-3.0,-4.0,-2.0,-13.0,-6.0
1705080365.5923102,-11.0,-1.0,2.0,-1.0,-7.0,-27.0,-7.0,-17.0
1705080365.6022823,-1.0,-6.0,-3.0,-2.0,-1.0,7.0,7.0,14.0
1705080365.6022823,0.0,3.0,3.0,2.0,4.0,-1.0,0.0,-10.0
1705080365.6125388,75.0,7.0,1.0,5.0,8.0,8.0,1.0,0.0
1705080365.6125388,-15.0,0.0,3.0,1.0,-1.0,-4.0,-5.0,-8.0
1705080365.6125388,42.0,5.0,0.0,-3.0,-4.0,6.0,5.0,20.0
1705080365.6125388,15.0,-4.0,-4.0,-4.0,-5.0,-8.0,-3.0,-6.0
1705080365.6422796,-23.0,-2.0,-1.0,-5.0,-9.0,-12.0,-4.0,-1.0
1705080365.6422796,-4.0,3.0,-1.0,3.0,1.0,-5.0,-6.0,-7.0
1705080365.6422796,2.0,3.0,11.0,8.0,7.0,9.0,4.0,3.0
1705080365.6422796,-11.0,-5.0,-6.0,1.0,1.0,12.0,2.0,10.0
1705080365.6523254,5.0,-3.0,-3.0,-3.0,-2.0,-5.0,-2.0,-13.0
1705080365.6523254,-17.0,-4.0,-3.0,-6.0,-10.0,-14.0,-8.0,-15.0
1705080365.662283,3.0,-2.0,0.0,-1.0,0.0,10.0,6.0,14.0
1705080365.662283,5.0,2.0,0.0,-2.0,1.0,-3.0,-3.0,-2.0
1705080365.6722858,-16.0,-4.0,0.0,2.0,0.0,-5.0,5.0,16.0
1705080365.6722858,28.0,4.0,-1.0,1.0,2.0,6.0,7.0,19.0
1705080365.6722858,-17.0,0.0,-2.0,-2.0,-1.0,1.0,1.0,-3.0
1705080365.6722858,4.0,-6.0,-2.0,-2.0,-3.0,-7.0,-4.0,-10.0
1705080365.6922789,-11.0,-1.0,0.0,-4.0,-2.0,-4.0,-2.0,0.0
1705080365.6922789,-6.0,-17.0,-3.0,0.0,2.0,7.0,1.0,-3.0
1705080365.6922789,1.0,4.0,1.0,-4.0,-3.0,-3.0,0.0,1.0
1705080365.6922789,9.0,21.0,0.0,-1.0,-3.0,-3.0,-3.0,-2.0
1705080365.7126725,-20.0,-19.0,-8.0,-7.0,-4.0,-4.0,-6.0,-6.0
1705080365.7126725,0.0,1.0,4.0,1.0,-5.0,6.0,0.0,-5.0
1705080365.7126725,-11.0,-5.0,-2.0,1.0,-7.0,-2.0,-2.0,-1.0
1705080365.7126725,3.0,2.0,5.0,5.0,30.0,16.0,0.0,-4.0
1705080365.7322767,0.0,8.0,1.0,0.0,-11.0,-14.0,-3.0,-13.0
1705080365.7322767,14.0,4.0,-1.0,0.0,-9.0,-6.0,-1.0,0.0
1705080365.7322767,-12.0,-8.0,-6.0,-3.0,11.0,8.0,-2.0,0.0
1705080365.7322767,-39.0,-7.0,3.0,1.0,-7.0,-3.0,0.0,-13.0
1705080365.7526896,9.0,14.0,3.0,3.0,9.0,4.0,-6.0,3.0
1705080365.7526896,4.0,-3.0,2.0,-3.0,0.0,2.0,17.0,6.0
1705080365.7526896,-64.0,-27.0,-16.0,-7.0,-24.0,-14.0,-16.0,-21.0
1705080365.7526896,-4.0,-7.0,-5.0,-3.0,-2.0,-8.0,-6.0,-10.0
1705080365.7726545,-21.0,1.0,1.0,-1.0,-4.0,-7.0,-4.0,-8.0
1705080365.7726545,1.0,7.0,2.0,0.0,-1.0,2.0,2.0,4.0
1705080365.7726545,5.0,11.0,4.0,1.0,3.0,6.0,5.0,7.0
1705080365.7726545,13.0,-16.0,-5.0,-2.0,-1.0,1.0,-1.0,-2.0
1705080365.8023114,-7.0,-5.0,-3.0,-4.0,-8.0,-5.0,-3.0,-12.0
1705080365.8023114,-2.0,-4.0,3.0,1.0,3.0,0.0,-3.0,0.0
1705080365.8023114,13.0,3.0,3.0,0.0,7.0,2.0,2.0,5.0
1705080365.8023114,7.0,2.0,-6.0,-4.0,-11.0,-9.0,-3.0,1.0
1705080365.81267,2.0,-3.0,0.0,0.0,2.0,5.0,-1.0,-7.0
1705080365.81267,-12.0,-5.0,-1.0,2.0,3.0,0.0,-4.0,-5.0
1705080365.81267,-4.0,1.0,5.0,0.0,3.0,-5.0,-4.0,-15.0
1705080365.81267,9.0,12.0,5.0,0.0,-5.0,0.0,4.0,1.0
1705080365.832664,-15.0,-23.0,2.0,2.0,1.0,0.0,-3.0,-7.0
1705080365.832664,26.0,24.0,-8.0,-7.0,1.0,-3.0,-5.0,-12.0
1705080365.832664,-2.0,-27.0,-3.0,-1.0,-3.0,-2.0,3.0,7.0
1705080365.832664,0.0,4.0,-1.0,-1.0,-4.0,0.0,-1.0,-1.0
1705080365.8526192,15.0,1.0,-1.0,-2.0,0.0,1.0,0.0,0.0
1705080365.8526192,2.0,10.0,5.0,1.0,0.0,-1.0,-3.0,-6.0
1705080365.8526192,0.0,-15.0,-4.0,-1.0,2.0,1.0,2.0,4.0
1705080365.8526192,-6.0,-4.0,-6.0,-6.0,-8.0,-4.0,-6.0,-4.0
1705080365.8823097,-20.0,8.0,-2.0,-1.0,0.0,0.0,0.0,8.0
1705080365.8823097,-10.0,-23.0,-19.0,-8.0,-2.0,0.0,-1.0,4.0
1705080365.8823097,23.0,62.0,22.0,10.0,4.0,2.0,4.0,7.0
1705080365.8823097,-2.0,-1.0,-13.0,-7.0,-3.0,-3.0,-2.0,-5.0
1705080365.8926532,1.0,28.0,11.0,5.0,1.0,0.0,0.0,-5.0
1705080365.8926532,1.0,-5.0,-10.0,-3.0,0.0,0.0,-1.0,1.0
1705080365.8926532,-23.0,-87.0,-16.0,-5.0,1.0,2.0,-2.0,-12.0
1705080365.8926532,4.0,-3.0,14.0,5.0,-3.0,1.0,6.0,16.0
1705080365.9122767,1.0,-12.0,-10.0,-4.0,-2.0,-1.0,0.0,-3.0
1705080365.9122767,6.0,-3.0,3.0,2.0,0.0,-4.0,-3.0,11.0
1705080365.9122767,-5.0,7.0,-10.0,-5.0,-2.0,-1.0,-2.0,0.0
1705080365.9122767,0.0,-15.0,8.0,6.0,1.0,1.0,-1.0,1.0
1705080365.9325693,-60.0,-49.0,-16.0,-9.0,-5.0,-4.0,-4.0,2.0
1705080365.9325693,19.0,11.0,7.0,3.0,2.0,2.0,1.0,1.0
1705080365.9325693,1.0,6.0,2.0,-1.0,-1.0,-7.0,-7.0,10.0
1705080365.9325693,4.0,8.0,3.0,-1.0,-2.0,-1.0,-3.0,-19.0
1705080365.9622772,1.0,8.0,0.0,-3.0,-1.0,-2.0,-3.0,-7.0
1705080365.9622772,-11.0,2.0,-1.0,-1.0,-2.0,0.0,-1.0,1.0
1705080365.9622772,4.0,1.0,4.0,1.0,0.0,1.0,6.0,0.0
1705080365.9622772,-5.0,9.0,1.0,-1.0,0.0,-2.0,-7.0,4.0
1705080365.972313,8.0,0.0,0.0,1.0,1.0,2.0,2.0,-1.0
1705080365.972313,-9.0,-8.0,0.0,-2.0,-1.0,2.0,5.0,-1.0
1705080365.972313,4.0,12.0,-3.0,-1.0,0.0,0.0,2.0,9.0
1705080365.972313,5.0,0.0,2.0,1.0,0.0,1.0,6.0,17.0
1705080365.9927008,28.0,12.0,-1.0,1.0,1.0,5.0,8.0,9.0
1705080365.9927008,-15.0,-18.0,-2.0,-2.0,-3.0,-3.0,-15.0,-13.0
1705080365.9927008,23.0,10.0,-4.0,-3.0,-4.0,-15.0,-6.0,8.0
1705080365.9927008,1.0,0.0,-5.0,-2.0,0.0,1.0,-7.0,-40.0
1705080366.022276,-3.0,-4.0,0.0,-3.0,0.0,-1.0,2.0,20.0
1705080366.022276,37.0,15.0,5.0,-1.0,-1.0,-8.0,0.0,-8.0
1705080366.022276,-28.0,8.0,-1.0,-2.0,-2.0,7.0,-1.0,-12.0
1705080366.022276,1.0,-7.0,-6.0,-1.0,6.0,19.0,14.0,8.0
1705080366.0322764,25.0,4.0,7.0,1.0,0.0,7.0,7.0,2.0
1705080366.0322764,-74.0,-20.0,-12.0,-3.0,-10.0,-41.0,-20.0,-30.0
1705080366.0322764,11.0,8.0,-2.0,-4.0,-6.0,-1.0,-1.0,1.0
1705080366.0322764,11.0,0.0,-5.0,0.0,1.0,1.0,3.0,9.0
1705080366.0583684,-28.0,-7.0,3.0,5.0,7.0,15.0,-2.0,-11.0
1705080366.0583684,2.0,4.0,4.0,4.0,3.0,21.0,5.0,0.0
1705080366.059394,11.0,0.0,-1.0,-3.0,-7.0,-25.0,-7.0,-3.0
1705080366.059394,-12.0,-4.0,-2.0,-6.0,-7.0,-10.0,-11.0,-18.0
1705080366.07489,33.0,10.0,-6.0,-2.0,-2.0,3.0,-2.0,-9.0
1705080366.07489,-3.0,-3.0,-1.0,1.0,8.0,16.0,12.0,20.0
1705080366.0848873,7.0,-4.0,-4.0,0.0,2.0,-2.0,-4.0,7.0
1705080366.0848873,8.0,1.0,2.0,-1.0,-8.0,-22.0,-2.0,3.0
1705080366.0952425,4.0,3.0,1.0,0.0,0.0,-6.0,-3.0,1.0
1705080366.0952425,0.0,-2.0,0.0,-2.0,0.0,2.0,0.0,6.0
1705080366.0952425,2.0,3.0,-2.0,-3.0,2.0,12.0,5.0,-4.0
1705080366.0952425,-7.0,-4.0,0.0,-2.0,-2.0,-6.0,-5.0,2.0
1705080366.11522,-13.0,-3.0,-4.0,-1.0,-2.0,-5.0,-6.0,-13.0
1705080366.11522,-8.0,-2.0,-1.0,-1.0,1.0,1.0,3.0,2.0
1705080366.11522,1.0,2.0,-3.0,1.0,2.0,8.0,7.0,15.0
1705080366.11522,3.0,-1.0,8.0,6.0,1.0,-1.0,-10.0,-17.0
1705080366.1351883,12.0,3.0,4.0,-1.0,-2.0,-6.0,1.0,4.0
1705080366.1351883,4.0,-1.0,-9.0,-7.0,-5.0,-4.0,0.0,20.0
1705080366.1351883,18.0,1.0,2.0,1.0,0.0,0.0,0.0,2.0
1705080366.1351883,0.0,-6.0,-6.0,-5.0,-1.0,0.0,0.0,0.0
1705080366.1548872,5.0,1.0,-1.0,-3.0,-3.0,-5.0,-3.0,1.0
1705080366.1548872,3.0,2.0,1.0,1.0,0.0,-3.0,-1.0,-2.0
1705080366.1548872,-10.0,-5.0,-3.0,0.0,1.0,4.0,-2.0,-9.0
1705080366.1548872,-13.0,-5.0,-7.0,-3.0,-3.0,1.0,2.0,3.0
1705080366.1749701,-17.0,7.0,0.0,-3.0,-2.0,-6.0,-4.0,-11.0
1705080366.1749701,11.0,2.0,7.0,2.0,-1.0,0.0,-1.0,-1.0
1705080366.1749701,0.0,-14.0,2.0,3.0,2.0,3.0,2.0,-1.0
1705080366.1749701,10.0,12.0,6.0,2.0,0.0,2.0,0.0,-4.0
1705080366.1948884,-2.0,-10.0,-1.0,-1.0,-5.0,-6.0,-6.0,-4.0
1705080366.1948884,-3.0,9.0,-6.0,-5.0,-2.0,-2.0,-4.0,-8.0
1705080366.1948884,-12.0,5.0,2.0,1.0,1.0,1.0,-2.0,-9.0
1705080366.1948884,-6.0,-8.0,0.0,1.0,2.0,0.0,0.0,9.0
1705080366.2152584,1.0,5.0,0.0,0.0,0.0,-1.0,3.0,0.0
1705080366.2152584,0.0,0.0,2.0,-1.0,-2.0,-1.0,-1.0,-3.0
1705080366.2152584,-3.0,5.0,2.0,1.0,2.0,0.0,-1.0,0.0
1705080366.2152584,-13.0,-20.0,-15.0,-7.0,-3.0,-2.0,-3.0,2.0
1705080366.2350025,6.0,4.0,3.0,0.0,-3.0,-3.0,-3.0,-2.0
1705080366.2350025,1.0,1.0,7.0,4.0,2.0,2.0,1.0,3.0
1705080366.2350025,-17.0,-21.0,-11.0,-7.0,-5.0,-5.0,-5.0,-14.0
1705080366.2350025,13.0,9.0,5.0,2.0,-1.0,0.0,2.0,10.0
1705080366.254923,12.0,-2.0,0.0,4.0,3.0,-1.0,-4.0,-5.0
1705080366.254923,8.0,-28.0,5.0,1.0,0.0,1.0,0.0,8.0
1705080366.254923,8.0,34.0,-7.0,-2.0,-2.0,0.0,0.0,0.0
1705080366.254923,11.0,0.0,-1.0,0.0,1.0,2.0,4.0,0.0
1705080366.2752087,-13.0,-15.0,1.0,0.0,-1.0,0.0,0.0,0.0
1705080366.2752087,-12.0,-8.0,-14.0,-6.0,-5.0,-4.0,-2.0,-9.0
1705080366.2752087,3.0,15.0,7.0,1.0,-1.0,0.0,0.0,-1.0
1705080366.2752087,-3.0,-4.0,-6.0,-2.0,-2.0,-1.0,-3.0,-1.0
1705080366.2952256,-4.0,40.0,1.0,0.0,-2.0,-1.0,0.0,4.0
1705080366.2952256,-2.0,-39.0,-2.0,0.0,0.0,-1.0,-3.0,-4.0
1705080366.2952256,2.0,32.0,-2.0,-5.0,-2.0,-2.0,-2.0,-6.0
1705080366.2952256,-3.0,-14.0,10.0,2.0,0.0,-1.0,0.0,-1.0
1705080366.3248878,6.0,32.0,3.0,0.0,0.0,0.0,-1.0,1.0
1705080366.3248878,1.0,-1.0,8.0,3.0,-1.0,2.0,1.0,4.0
1705080366.3248878,-24.0,-82.0,-29.0,-9.0,-6.0,-5.0,-4.0,-8.0
1705080366.3248878,14.0,17.0,5.0,2.0,2.0,2.0,3.0,3.0
1705080366.3352122,4.0,23.0,8.0,2.0,0.0,1.0,1.0,1.0
1705080366.3352122,-8.0,-3.0,-11.0,-7.0,-4.0,-1.0,-2.0,-6.0
1705080366.3352122,8.0,25.0,22.0,5.0,1.0,1.0,1.0,7.0
1705080366.3352122,-10.0,-89.0,-12.0,1.0,1.0,-1.0,0.0,3.0
1705080366.354889,0.0,18.0,-32.0,-14.0,-2.0,-2.0,-2.0,-11.0
1705080366.354889,2.0,3.0,8.0,4.0,1.0,2.0,2.0,-2.0
1705080366.354889,-17.0,-4.0,3.0,0.0,-2.0,-2.0,-4.0,-9.0
1705080366.354889,14.0,22.0,-1.0,0.0,0.0,-1.0,2.0,0.0
1705080366.375257,-20.0,-34.0,-10.0,-5.0,-6.0,-6.0,-9.0,-9.0
1705080366.375257,8.0,12.0,1.0,0.0,-2.0,-2.0,-2.0,0.0
1705080366.375257,4.0,-24.0,-6.0,1.0,-1.0,0.0,1.0,-3.0
1705080366.375257,-8.0,23.0,4.0,2.0,-2.0,0.0,-1.0,-1.0
1705080366.395221,-9.0,-37.0,-4.0,-2.0,-3.0,-2.0,0.0,-1.0
1705080366.395221,19.0,36.0,5.0,-3.0,-4.0,-4.0,-5.0,-1.0
1705080366.395221,-15.0,-4.0,13.0,5.0,2.0,0.0,-2.0,2.0
1705080366.395221,-6.0,33.0,-5.0,-8.0,-4.0,-1.0,-4.0,-3.0
1705080366.4148877,5.0,-9.0,5.0,3.0,2.0,2.0,3.0,6.0
1705080366.4148877,-10.0,-24.0,-2.0,1.0,2.0,1.0,3.0,1.0
1705080366.4148877,-7.0,9.0,-5.0,-7.0,-3.0,-3.0,-3.0,1.0
1705080366.4148877,0.0,15.0,3.0,-1.0,-2.0,-4.0,-6.0,-4.0
1705080366.4352584,22.0,-8.0,2.0,0.0,0.0,0.0,0.0,-8.0
1705080366.4352584,-1.0,-5.0,4.0,3.0,1.0,1.0,0.0,-1.0
1705080366.4352584,11.0,7.0,-5.0,-3.0,-3.0,1.0,3.0,-2.0
1705080366.4352584,-18.0,-5.0,-4.0,4.0,1.0,-3.0,-4.0,-4.0
1705080366.4552424,-7.0,-16.0,-6.0,-2.0,-2.0,-2.0,1.0,7.0
1705080366.4552424,-1.0,7.0,-7.0,-2.0,-1.0,-4.0,-7.0,-12.0
1705080366.4552424,-9.0,4.0,1.0,-5.0,-1.0,-2.0,-6.0,-9.0
1705080366.4552424,-4.0,-6.0,4.0,0.0,-1.0,1.0,-2.0,-9.0
1705080366.4748876,-6.0,-17.0,-7.0,-3.0,-1.0,3.0,6.0,5.0
1705080366.4748876,1.0,26.0,16.0,2.0,1.0,-1.0,-3.0,2.0
1705080366.4748876,10.0,-3.0,-3.0,-2.0,-3.0,1.0,2.0,1.0
1705080366.4748876,-2.0,-8.0,-1.0,-1.0,-3.0,-2.0,1.0,18.0
1705080366.495246,-1.0,6.0,-3.0,-1.0,-2.0,-1.0,-12.0,-37.0
1705080366.495246,-6.0,11.0,-9.0,-6.0,-3.0,-4.0,-8.0,-27.0
1705080366.495246,16.0,-2.0,4.0,2.0,-1.0,4.0,10.0,15.0
1705080366.495246,0.0,3.0,4.0,0.0,0.0,2.0,6.0,32.0
1705080366.5149431,-26.0,-9.0,-1.0,-1.0,-2.0,-1.0,-10.0,-31.0
1705080366.5149431,-2.0,-1.0,-1.0,0.0,-1.0,0.0,6.0,18.0
1705080366.5149431,-9.0,-5.0,0.0,3.0,2.0,1.0,-2.0,-3.0
1705080366.5149431,9.0,10.0,-5.0,-6.0,-2.0,-2.0,1.0,-3.0
1705080366.5351048,-17.0,-9.0,-3.0,-3.0,-1.0,-3.0,5.0,18.0
1705080366.5351048,1.0,0.0,-3.0,-1.0,-2.0,-2.0,1.0,8.0
1705080366.5351048,2.0,-6.0,0.0,0.0,2.0,13.0,6.0,10.0
1705080366.5351048,1.0,6.0,-2.0,-7.0,-3.0,-5.0,1.0,-16.0
1705080366.5551562,-1.0,-10.0,2.0,8.0,2.0,-3.0,-10.0,37.0
1705080366.5551562,-12.0,-14.0,-1.0,0.0,-2.0,-8.0,-24.0,-90.0
1705080366.5551562,4.0,20.0,-3.0,-6.0,-7.0,-10.0,-2.0,-10.0
1705080366.5551562,7.0,1.0,-2.0,-2.0,0.0,5.0,1.0,7.0
1705080366.5823374,-2.0,-4.0,-1.0,-2.0,-1.0,7.0,13.0,9.0
1705080366.5823374,8.0,1.0,0.0,0.0,3.0,14.0,15.0,56.0
1705080366.5823374,-10.0,-5.0,-6.0,0.0,-1.0,-15.0,-10.0,-8.0
1705080366.5823374,-17.0,-3.0,3.0,-1.0,-7.0,-8.0,-12.0,-34.0
1705080366.5976367,9.0,-1.0,-3.0,-6.0,-5.0,-4.0,1.0,3.0
1705080366.5976367,-4.0,-7.0,-7.0,1.0,4.0,13.0,10.0,30.0
1705080366.5976367,13.0,5.0,5.0,4.0,10.0,23.0,10.0,8.0
1705080366.5976367,-13.0,0.0,0.0,2.0,2.0,-4.0,-8.0,-12.0
1705080366.6176422,0.0,-5.0,-1.0,-3.0,-11.0,-37.0,-15.0,-6.0
1705080366.6176422,4.0,4.0,2.0,-1.0,-3.0,3.0,0.0,-7.0
1705080366.6176422,2.0,-3.0,-3.0,-1.0,1.0,-2.0,2.0,2.0
1705080366.6176422,-5.0,-2.0,6.0,0.0,-2.0,4.0,-4.0,-25.0
1705080366.6476324,-2.0,16.0,9.0,5.0,4.0,14.0,1.0,-6.0
1705080366.6476324,-11.0,-20.0,-16.0,-7.0,-3.0,-12.0,-6.0,-1.0
1705080366.6476324,-20.0,-5.0,4.0,-3.0,-1.0,-1.0,-2.0,-2.0
1705080366.6476324,9.0,0.0,0.0,1.0,2.0,7.0,7.0,27.0
1705080366.657639,8.0,2.0,-1.0,5.0,4.0,1.0,2.0,-1.0
1705080366.657639,1.0,4.0,1.0,-4.0,-9.0,-11.0,-4.0,5.0
1705080366.657639,-9.0,-1.0,0.0,1.0,-4.0,-3.0,-2.0,6.0
1705080366.657639,-5.0,-20.0,-11.0,-10.0,-5.0,-9.0,-5.0,-8.0
1705080366.677995,11.0,11.0,7.0,0.0,1.0,4.0,3.0,8.0
1705080366.677995,-3.0,10.0,-3.0,4.0,4.0,6.0,1.0,-7.0
1705080366.677995,2.0,-6.0,4.0,-1.0,-3.0,-7.0,-7.0,-1.0
1705080366.677995,18.0,17.0,6.0,1.0,0.0,-3.0,1.0,2.0
1705080366.697638,-14.0,-13.0,-7.0,-4.0,-2.0,1.0,-3.0,-11.0
1705080366.697638,-15.0,-14.0,-5.0,-6.0,-3.0,-2.0,-1.0,2.0
1705080366.697638,4.0,0.0,-5.0,-4.0,-4.0,-7.0,-5.0,-12.0
1705080366.697638,-3.0,-14.0,1.0,4.0,3.0,1.0,2.0,2.0
1705080366.7180524,27.0,12.0,4.0,2.0,5.0,6.0,-1.0,-13.0
1705080366.7180524,3.0,-15.0,5.0,-1.0,1.0,-5.0,-2.0,-2.0
1705080366.7180524,-3.0,3.0,-4.0,-1.0,-1.0,-3.0,-3.0,1.0
1705080366.7180524,-9.0,-16.0,-14.0,-4.0,-1.0,3.0,-2.0,3.0
1705080366.7380095,-8.0,8.0,1.0,-2.0,-1.0,1.0,-1.0,1.0
1705080366.7380095,6.0,5.0,3.0,0.0,0.0,-4.0,-1.0,-2.0
1705080366.7380095,6.0,-2.0,3.0,2.0,2.0,2.0,2.0,0.0
1705080366.7380095,4.0,-5.0,-8.0,-4.0,-4.0,-4.0,-1.0,6.0
1705080366.7576363,7.0,2.0,4.0,0.0,-5.0,-3.0,-3.0,4.0
1705080366.7576363,-12.0,-26.0,3.0,-1.0,0.0,-2.0,1.0,-2.0
1705080366.7576363,18.0,27.0,-9.0,-2.0,0.0,0.0,0.0,5.0
1705080366.7576363,-42.0,-27.0,-5.0,-1.0,-2.0,-2.0,-1.0,-8.0
1705080366.7776902,-15.0,0.0,1.0,-3.0,-1.0,-4.0,-5.0,-4.0
1705080366.7776902,15.0,13.0,1.0,1.0,-2.0,-1.0,0.0,7.0
1705080366.7776902,8.0,-12.0,4.0,0.0,-1.0,1.0,-1.0,2.0
1705080366.7776902,3.0,30.0,-2.0,-3.0,-1.0,-4.0,-5.0,-10.0
1705080366.798013,-8.0,-16.0,-2.0,1.0,2.0,2.0,0.0,-5.0
1705080366.798013,-6.0,12.0,-4.0,-4.0,-4.0,-3.0,-3.0,-7.0
1705080366.798013,-9.0,-10.0,4.0,2.0,-1.0,-3.0,-5.0,-4.0
1705080366.798013,11.0,1.0,3.0,2.0,-1.0,0.0,0.0,4.0
1705080366.817633,-6.0,-3.0,-2.0,-2.0,-1.0,0.0,1.0,5.0
1705080366.817633,7.0,18.0,2.0,1.0,-2.0,-2.0,-2.0,-2.0
1705080366.817633,-12.0,-21.0,-11.0,-3.0,-2.0,-2.0,-2.0,-3.0
1705080366.817633,-4.0,5.0,3.0,0.0,2.0,0.0,0.0,4.0
1705080366.8381057,24.0,-12.0,3.0,2.0,-1.0,0.0,2.0,0.0
1705080366.8381057,2.0,24.0,-8.0,-4.0,-1.0,0.0,1.0,1.0
1705080366.8381057,-27.0,-32.0,-7.0,-4.0,-3.0,-3.0,-3.0,-7.0
1705080366.8381057,3.0,3.0,2.0,-2.0,-1.0,-1.0,1.0,-1.0
1705080366.8581161,-1.0,8.0,0.0,-2.0,-1.0,-2.0,2.0,7.0
1705080366.8581161,8.0,-25.0,6.0,1.0,1.0,1.0,5.0,13.0
1705080366.8581161,1.0,28.0,9.0,8.0,1.0,-2.0,-8.0,-30.0
1705080366.8581161,-5.0,9.0,2.0,3.0,0.0,-2.0,-1.0,-12.0
1705080366.868115,4.0,4.0,8.0,4.0,0.0,-1.0,3.0,5.0
1705080366.868115,-11.0,-33.0,-27.0,-10.0,-3.0,0.0,-1.0,-6.0
1705080366.8783545,20.0,2.0,18.0,2.0,2.0,3.0,6.0,17.0
1705080366.8783545,-16.0,-3.0,-19.0,-6.0,-4.0,-3.0,-5.0,-11.0
1705080366.8984275,22.0,2.0,1.0,-3.0,-3.0,1.0,3.0,-5.0
1705080366.8984275,-22.0,-26.0,5.0,2.0,-2.0,0.0,-4.0,0.0
1705080366.8984275,-1.0,7.0,-4.0,-3.0,-2.0,-4.0,-2.0,0.0
1705080366.8984275,11.0,8.0,12.0,5.0,-1.0,-3.0,-1.0,3.0
1705080366.938116,-10.0,-5.0,-1.0,1.0,1.0,-1.0,-3.0,3.0
1705080366.938116,56.0,19.0,3.0,2.0,-1.0,0.0,-1.0,3.0
1705080366.938116,2.0,17.0,5.0,0.0,0.0,1.0,1.0,1.0
1705080366.938116,-3.0,-27.0,-4.0,-1.0,0.0,0.0,-4.0,2.0
1705080366.938116,-18.0,-8.0,-15.0,-8.0,-3.0,-1.0,9.0,1.0
1705080366.938116,-9.0,16.0,4.0,0.0,-1.0,-1.0,-3.0,-4.0
1705080366.938116,5.0,7.0,-2.0,0.0,-1.0,7.0,16.0,19.0
1705080366.938116,24.0,16.0,0.0,2.0,0.0,5.0,10.0,47.0
1705080366.9585187,-8.0,-70.0,3.0,5.0,-1.0,-9.0,-29.0,-51.0
1705080366.9585187,-37.0,88.0,-15.0,-13.0,-8.0,-13.0,-18.0,-44.0
1705080366.9585187,0.0,-40.0,-10.0,-3.0,-4.0,-4.0,-3.0,11.0
1705080366.9585187,-18.0,-9.0,2.0,-4.0,-1.0,2.0,9.0,-3.0
1705080366.9781156,4.0,11.0,-1.0,-1.0,-1.0,6.0,15.0,40.0
1705080366.9781156,-4.0,-16.0,2.0,2.0,2.0,0.0,1.0,6.0
1705080366.9781156,2.0,4.0,1.0,-1.0,-1.0,-8.0,-13.0,-16.0
1705080366.9781156,-8.0,-6.0,-7.0,-4.0,-3.0,-2.0,-2.0,-10.0
1705080366.998371,-3.0,17.0,1.0,1.0,-1.0,0.0,-3.0,-1.0
1705080366.998371,-2.0,-6.0,2.0,1.0,-3.0,1.0,3.0,4.0
1705080366.998371,5.0,-5.0,-7.0,-4.0,-2.0,0.0,5.0,11.0
1705080366.998371,15.0,0.0,5.0,3.0,3.0,8.0,19.0,29.0
1705080367.018186,19.0,20.0,-2.0,-5.0,2.0,9.0,-5.0,46.0
1705080367.018186,-28.0,-36.0,1.0,7.0,-4.0,-16.0,-25.0,-86.0
1705080367.018186,-16.0,-1.0,-4.0,-3.0,-3.0,-10.0,3.0,46.0
1705080367.018186,19.0,6.0,-8.0,-6.0,-7.0,-9.0,-17.0,-96.0
1705080367.0381167,-5.0,6.0,-5.0,-1.0,3.0,18.0,66.0,112.0
1705080367.0381167,46.0,3.0,3.0,2.0,10.0,31.0,-10.0,46.0
1705080367.0381167,-81.0,-21.0,-13.0,-12.0,-17.0,-36.0,-73.0,-32.0
1705080367.0381167,18.0,10.0,6.0,3.0,-8.0,-26.0,-6.0,64.0
1705080367.0585475,3.0,20.0,-2.0,-4.0,-3.0,-7.0,-8.0,24.0
1705080367.0585475,-29.0,-16.0,-4.0,1.0,3.0,9.0,43.0,52.0
1705080367.0585475,15.0,-10.0,-1.0,1.0,5.0,22.0,17.0,-9.0
1705080367.0585475,-5.0,11.0,0.0,-1.0,1.0,6.0,-1.0,7.0
1705080367.078298,0.0,2.0,3.0,1.0,-3.0,-6.0,-5.0,-44.0
1705080367.078298,16.0,12.0,6.0,-1.0,-1.0,0.0,2.0,0.0
1705080367.078298,-11.0,-3.0,-2.0,1.0,6.0,6.0,3.0,-36.0
1705080367.078298,-6.0,-4.0,0.0,-1.0,3.0,13.0,0.0,4.0
1705080367.1010447,-9.0,-1.0,-2.0,-5.0,-11.0,-53.0,-30.0,-56.0
1705080367.1010447,6.0,-18.0,-1.0,0.0,3.0,10.0,5.0,79.0
1705080367.1020434,11.0,11.0,-2.0,2.0,9.0,31.0,33.0,-38.0
1705080367.1020434,-3.0,-7.0,-5.0,-7.0,-3.0,-29.0,-27.0,53.0
1705080367.123655,-66.0,-15.0,-14.0,-7.0,-14.0,-22.0,-65.0,-126.0
1705080367.123655,24.0,20.0,21.0,-3.0,-7.0,-1.0,17.0,82.0
1705080367.123655,12.0,2.0,5.0,6.0,1.0,-17.0,28.0,116.0
1705080367.123655,27.0,22.0,9.0,10.0,7.0,29.0,-24.0,-93.0
1705080367.1304562,-83.0,-46.0,-23.0,-14.0,-10.0,-17.0,-12.0,-20.0
1705080367.1304562,-15.0,-16.0,-14.0,-4.0,-3.0,-7.0,-8.0,-16.0
1705080367.1304562,19.0,14.0,6.0,2.0,5.0,26.0,18.0,41.0
1705080367.1304562,19.0,8.0,3.0,0.0,7.0,8.0,28.0,28.0
1705080367.160512,19.0,13.0,5.0,2.0,0.0,-6.0,-16.0,-22.0
1705080367.160512,-4.0,3.0,3.0,1.0,0.0,-3.0,1.0,-33.0
1705080367.160512,17.0,-2.0,3.0,1.0,-2.0,-2.0,7.0,32.0
1705080367.160512,-5.0,-3.0,-2.0,1.0,5.0,12.0,14.0,17.0
1705080367.1807697,10.0,-11.0,-3.0,1.0,2.0,12.0,-11.0,-61.0
1705080367.1807697,-55.0,-17.0,-4.0,-2.0,-10.0,-22.0,-12.0,-32.0
1705080367.1807697,18.0,11.0,-1.0,-4.0,-10.0,2.0,-19.0,-41.0
1705080367.1807697,-2.0,-13.0,-7.0,-7.0,5.0,-45.0,-7.0,22.0
1705080367.1905212,-4.0,-12.0,-8.0,-1.0,7.0,31.0,33.0,71.0
1705080367.1905212,18.0,18.0,10.0,-3.0,-8.0,-19.0,-15.0,-20.0
1705080367.1905212,-7.0,-3.0,-6.0,-2.0,-13.0,-41.0,-19.0,-18.0
1705080367.1905212,-4.0,1.0,2.0,4.0,0.0,31.0,5.0,-17.0
1705080367.22085,28.0,14.0,4.0,0.0,3.0,-28.0,10.0,26.0
1705080367.22085,-3.0,-8.0,-12.0,-2.0,7.0,12.0,-4.0,-21.0
1705080367.22085,-1.0,3.0,1.0,-3.0,1.0,3.0,3.0,0.0
1705080367.22085,-13.0,-13.0,15.0,3.0,-1.0,6.0,0.0,13.0
1705080367.2405217,12.0,9.0,0.0,0.0,5.0,8.0,6.0,4.0
1705080367.2405217,20.0,13.0,-47.0,-28.0,-9.0,-1.0,10.0,47.0
1705080367.2405217,25.0,-11.0,60.0,30.0,16.0,15.0,-7.0,-49.0
1705080367.2405217,-26.0,-7.0,-4.0,4.0,-11.0,-21.0,-13.0,-6.0
1705080367.2605228,-10.0,-7.0,-5.0,-1.0,-5.0,7.0,4.0,27.0
1705080367.2605228,8.0,3.0,-7.0,-1.0,0.0,-3.0,1.0,2.0
1705080367.2605228,3.0,9.0,-28.0,-18.0,-6.0,14.0,5.0,12.0
1705080367.2605228,-12.0,-8.0,-2.0,-6.0,-7.0,-6.0,-5.0,-24.0
1705080367.2809105,18.0,11.0,14.0,7.0,4.0,6.0,4.0,9.0
1705080367.2809105,-1.0,-5.0,6.0,0.0,0.0,0.0,3.0,11.0
1705080367.2809105,-8.0,-1.0,-15.0,-6.0,-3.0,-5.0,-8.0,-1.0
1705080367.2809105,-16.0,-7.0,-3.0,-4.0,-6.0,-6.0,-7.0,-42.0
1705080367.301051,17.0,8.0,1.0,0.0,0.0,6.0,7.0,33.0
1705080367.301051,-10.0,-9.0,5.0,7.0,1.0,5.0,-3.0,-35.0
1705080367.301051,-10.0,-3.0,-1.0,-3.0,-1.0,-4.0,-2.0,-1.0
1705080367.301051,3.0,0.0,-11.0,-3.0,-2.0,1.0,1.0,7.0
1705080367.3209317,9.0,8.0,4.0,-3.0,-1.0,3.0,4.0,0.0
1705080367.3209317,-1.0,-3.0,10.0,5.0,-2.0,-8.0,-6.0,-11.0
1705080367.3209317,-4.0,-2.0,-10.0,-3.0,0.0,-7.0,-3.0,-6.0
1705080367.3209317,0.0,-7.0,-18.0,-4.0,4.0,27.0,15.0,22.0
1705080367.3410544,-6.0,1.0,15.0,3.0,1.0,0.0,-13.0,-22.0
1705080367.3410544,6.0,-2.0,3.0,-1.0,-7.0,-26.0,-6.0,11.0
1705080367.3410544,-10.0,-2.0,-5.0,3.0,-3.0,-17.0,-1.0,-10.0
1705080367.3410544,2.0,2.0,-3.0,-3.0,-4.0,-3.0,-2.0,20.0
1705080367.3610692,-1.0,-3.0,-6.0,4.0,4.0,18.0,7.0,13.0
1705080367.3610692,-7.0,0.0,-9.0,-1.0,1.0,5.0,-2.0,-9.0
1705080367.3610692,-8.0,-10.0,-4.0,-6.0,0.0,3.0,0.0,5.0
1705080367.3610692,4.0,4.0,7.0,3.0,5.0,0.0,0.0,4.0
1705080367.3809328,-4.0,-1.0,-3.0,2.0,-2.0,-6.0,-1.0,-12.0
1705080367.3809328,2.0,5.0,9.0,1.0,3.0,6.0,1.0,-1.0
1705080367.3809328,-2.0,-2.0,-6.0,-2.0,-1.0,-3.0,-2.0,1.0
1705080367.3809328,-13.0,-4.0,6.0,1.0,-5.0,-4.0,-2.0,-2.0
1705080367.4010339,-9.0,-5.0,-7.0,-8.0,-4.0,-3.0,2.0,7.0
1705080367.4010339,0.0,1.0,2.0,4.0,1.0,3.0,-2.0,-11.0
1705080367.4010339,0.0,-5.0,-1.0,-2.0,-2.0,3.0,0.0,1.0
1705080367.4010339,2.0,2.0,-1.0,2.0,3.0,1.0,-3.0,-6.0
1705080367.421115,0.0,-2.0,-3.0,-5.0,-4.0,-3.0,2.0,2.0
1705080367.421115,-8.0,-9.0,0.0,-1.0,-5.0,-7.0,-6.0,-9.0
1705080367.421115,12.0,9.0,4.0,0.0,1.0,-2.0,1.0,10.0
1705080367.421115,-4.0,-6.0,0.0,-4.0,-3.0,-7.0,0.0,-1.0
1705080367.4509356,5.0,-1.0,-8.0,5.0,5.0,10.0,0.0,-2.0
1705080367.4509356,2.0,0.0,6.0,4.0,2.0,1.0,4.0,12.0
1705080367.4609277,-5.0,0.0,0.0,-4.0,-6.0,-4.0,-7.0,-7.0
1705080367.4609277,3.0,0.0,-1.0,-1.0,-1.0,-2.0,-1.0,-5.0
1705080367.4609277,12.0,6.0,-1.0,-4.0,-1.0,-1.0,2.0,5.0
1705080367.4609277,-2.0,-7.0,-7.0,3.0,5.0,4.0,1.0,-2.0
1705080367.4609277,-3.0,0.0,-5.0,-6.0,-1.0,0.0,-4.0,-9.0
1705080367.4609277,-3.0,-5.0,-4.0,-1.0,1.0,1.0,2.0,3.0
1705080367.4809303,1.0,7.0,-2.0,-5.0,-3.0,-8.0,-1.0,3.0
1705080367.4809303,9.0,6.0,8.0,4.0,0.0,6.0,-5.0,-10.0
1705080367.4809303,10.0,10.0,7.0,2.0,-1.0,-17.0,0.0,16.0
1705080367.4809303,-7.0,-7.0,7.0,6.0,-1.0,-2.0,-2.0,-3.0
1705080367.490991,-7.0,-2.0,-5.0,-5.0,-5.0,-4.0,-5.0,-6.0
1705080367.490991,3.0,8.0,8.0,1.0,3.0,4.0,2.0,-2.0
1705080367.490991,3.0,6.0,6.0,4.0,5.0,6.0,2.0,-3.0
1705080367.490991,6.0,3.0,-7.0,-6.0,-5.0,-5.0,-3.0,2.0
1705080367.5211413,-6.0,-3.0,6.0,1.0,2.0,-2.0,-1.0,-3.0
1705080367.5211413,-13.0,-10.0,-4.0,1.0,-1.0,0.0,-3.0,-2.0
1705080367.5211413,10.0,-5.0,-7.0,-2.0,1.0,5.0,9.0,5.0
1705080367.5211413,1.0,1.0,-2.0,-4.0,-3.0,-5.0,-5.0,-2.0
1705080367.5512764,5.0,2.0,5.0,-1.0,-2.0,2.0,2.0,6.0
1705080367.5512764,0.0,1.0,2.0,1.0,2.0,2.0,1.0,-3.0
1705080367.5512764,-7.0,-3.0,-2.0,-1.0,-2.0,-3.0,-6.0,0.0
1705080367.5512764,-1.0,-2.0,-3.0,-6.0,-6.0,-7.0,1.0,-3.0
1705080367.5512764,5.0,-1.0,1.0,2.0,1.0,1.0,0.0,0.0
1705080367.5512764,-2.0,-3.0,-5.0,-4.0,-1.0,-2.0,0.0,-1.0
1705080367.5512764,-19.0,-10.0,-4.0,-1.0,1.0,3.0,-4.0,-7.0
1705080367.5512764,-1.0,1.0,-2.0,-3.0,-1.0,-1.0,-9.0,-8.0
1705080367.5811265,-23.0,-15.0,-8.0,-1.0,1.0,-2.0,-1.0,-6.0
1705080367.5811265,-4.0,-8.0,-2.0,-1.0,0.0,0.0,3.0,3.0
1705080367.5811265,3.0,0.0,-5.0,-5.0,-2.0,4.0,-1.0,1.0
1705080367.5811265,1.0,2.0,2.0,4.0,1.0,-5.0,-1.0,-10.0
1705080367.600928,26.0,17.0,11.0,6.0,3.0,2.0,4.0,10.0
1705080367.600928,16.0,5.0,-4.0,-8.0,-5.0,-3.0,-6.0,0.0
1705080367.600928,11.0,5.0,-3.0,-5.0,-5.0,-2.0,4.0,6.0
1705080367.600928,-26.0,-28.0,-8.0,1.0,2.0,2.0,-12.0,-9.0
1705080367.61093,7.0,2.0,-3.0,-6.0,-7.0,-6.0,15.0,0.0
1705080367.61093,5.0,4.0,2.0,1.0,3.0,3.0,12.0,3.0
1705080367.6209295,-17.0,-24.0,-7.0,-4.0,-5.0,-6.0,-25.0,-16.0
1705080367.6209295,12.0,10.0,4.0,-2.0,-2.0,-2.0,-1.0,4.0
1705080367.641179,-9.0,1.0,-7.0,-4.0,-1.0,-2.0,-3.0,-11.0
1705080367.641179,-3.0,-8.0,-1.0,-1.0,-1.0,-3.0,0.0,2.0
1705080367.641179,5.0,10.0,7.0,0.0,1.0,3.0,3.0,1.0
1705080367.641179,3.0,-1.0,4.0,2.0,2.0,1.0,2.0,3.0
1705080367.6635153,-5.0,-19.0,1.0,0.0,-1.0,-1.0,-6.0,2.0
1705080367.6635153,-4.0,13.0,-4.0,-1.0,-1.0,1.0,6.0,1.0
1705080367.6635153,-4.0,14.0,-1.0,1.0,0.0,-3.0,-1.0,5.0
1705080367.6635153,6.0,-14.0,0.0,-5.0,-2.0,-1.0,5.0,4.0
1705080367.6737506,1.0,-37.0,-1.0,0.0,1.0,1.0,-6.0,-1.0
1705080367.6737506,-4.0,34.0,-10.0,-4.0,-3.0,-1.0,5.0,-1.0
1705080367.6837873,-21.0,-50.0,-11.0,-4.0,-1.0,0.0,-2.0,-11.0
1705080367.6837873,-5.0,13.0,-2.0,-3.0,-3.0,-4.0,-3.0,-2.0
1705080367.7135122,15.0,27.0,21.0,8.0,2.0,3.0,5.0,11.0
1705080367.7135122,-11.0,-30.0,-4.0,0.0,-2.0,-5.0,-4.0,-5.0
1705080367.7135122,16.0,49.0,24.0,10.0,3.0,-2.0,-13.0,-4.0
1705080367.7135122,3.0,-9.0,-3.0,2.0,0.0,1.0,6.0,3.0
1705080367.7235131,-12.0,0.0,-19.0,-9.0,-12.0,-5.0,-7.0,-7.0
1705080367.7235131,4.0,22.0,3.0,-5.0,15.0,1.0,-13.0,2.0
1705080367.7235131,-7.0,-12.0,5.0,2.0,-2.0,3.0,25.0,-4.0
1705080367.7235131,-5.0,-34.0,-12.0,-3.0,-3.0,1.0,0.0,-1.0
1705080367.7337515,19.0,18.0,10.0,6.0,3.0,1.0,-3.0,3.0
1705080367.7337515,5.0,38.0,1.0,-3.0,-24.0,-7.0,-2.0,1.0
1705080367.743781,-26.0,-35.0,-11.0,-3.0,5.0,-1.0,-8.0,-5.0
1705080367.743781,19.0,28.0,18.0,7.0,13.0,4.0,2.0,4.0
1705080367.7735116,-13.0,-18.0,-6.0,-3.0,-4.0,-2.0,-1.0,-2.0
1705080367.7735116,26.0,34.0,3.0,-3.0,-69.0,-10.0,-1.0,0.0
1705080367.7735116,4.0,-34.0,1.0,-5.0,48.0,-4.0,-2.0,6.0
1705080367.7735116,-69.0,-65.0,-28.0,-7.0,17.0,13.0,-5.0,-18.0
1705080367.7835126,-3.0,-11.0,-6.0,-1.0,6.0,1.0,-3.0,-2.0
1705080367.7835126,6.0,12.0,13.0,10.0,-16.0,-4.0,2.0,4.0
1705080367.7835126,35.0,76.0,8.0,-6.0,-14.0,-13.0,-3.0,4.0
1705080367.7835126,27.0,23.0,8.0,7.0,-16.0,-2.0,7.0,11.0
1705080367.793856,-43.0,-40.0,-17.0,-14.0,30.0,-13.0,-12.0,-15.0
1705080367.793856,8.0,-20.0,-1.0,3.0,17.0,7.0,-2.0,-5.0
1705080367.8038812,-24.0,-27.0,-14.0,-8.0,-26.0,-1.0,5.0,-2.0
1705080367.8038812,17.0,24.0,6.0,-4.0,6.0,-12.0,-3.0,-3.0
1705080367.8235126,3.0,25.0,-5.0,-2.0,-25.0,3.0,-1.0,-1.0
1705080367.8235126,-31.0,-51.0,-11.0,-11.0,-1.0,-13.0,-9.0,-10.0
1705080367.8235126,13.0,-2.0,7.0,4.0,17.0,6.0,-1.0,3.0
1705080367.8235126,14.0,33.0,8.0,6.0,-12.0,3.0,6.0,7.0
1705080367.8437748,-17.0,-6.0,-17.0,-2.0,-9.0,-3.0,0.0,-6.0
1705080367.8437748,45.0,45.0,28.0,11.0,28.0,9.0,5.0,8.0
1705080367.8437748,-25.0,-4.0,-30.0,-14.0,-38.0,-13.0,-3.0,-3.0
1705080367.8437748,-23.0,-26.0,20.0,9.0,12.0,9.0,-3.0,-7.0
1705080367.853876,-30.0,1.0,-12.0,-2.0,-18.0,-12.0,-3.0,-9.0
1705080367.853876,0.0,9.0,6.0,9.0,84.0,33.0,4.0,1.0
1705080367.863514,9.0,5.0,-8.0,-9.0,-28.0,-7.0,1.0,0.0
1705080367.863514,33.0,23.0,-1.0,-11.0,-3.0,0.0,4.0,9.0
1705080367.8735454,18.0,34.0,4.0,1.0,-14.0,-6.0,-3.0,2.0
1705080367.8735454,-20.0,-50.0,-9.0,-5.0,-7.0,-3.0,-3.0,-4.0
1705080367.8735454,2.0,41.0,6.0,0.0,-4.0,1.0,-2.0,-7.0
1705080367.8735454,14.0,70.0,1.0,0.0,-11.0,-9.0,1.0,2.0
1705080367.9036765,-35.0,-84.0,-8.0,-5.0,-2.0,2.0,-7.0,-10.0
1705080367.9036765,23.0,13.0,38.0,20.0,15.0,-1.0,4.0,15.0
1705080367.9036765,-33.0,-10.0,-19.0,4.0,2.0,-2.0,-6.0,-17.0
1705080367.9036765,-34.0,-117.0,-35.0,-15.0,-12.0,-11.0,-6.0,-13.0
1705080367.9235134,65.0,127.0,30.0,6.0,-10.0,4.0,7.0,16.0
1705080367.9235134,-47.0,-113.0,-40.0,-18.0,-10.0,-13.0,-8.0,-12.0
1705080367.9235134,7.0,52.0,32.0,3.0,10.0,5.0,1.0,0.0
1705080367.9235134,-10.0,29.0,-28.0,-5.0,1.0,4.0,0.0,-2.0
1705080367.9335456,33.0,23.0,31.0,11.0,-4.0,3.0,3.0,12.0
1705080367.9335456,-30.0,-38.0,-33.0,-6.0,-12.0,-5.0,0.0,-8.0
1705080367.9335456,11.0,-31.0,15.0,1.0,13.0,8.0,-2.0,-1.0
1705080367.9335456,-6.0,26.0,7.0,-1.0,-26.0,-14.0,-2.0,1.0
1705080367.9636848,4.0,-54.0,-11.0,0.0,37.0,7.0,1.0,3.0
1705080367.9636848,3.0,-27.0,-1.0,-1.0,-16.0,-8.0,-3.0,-3.0
1705080367.9636848,18.0,-1.0,-2.0,4.0,2.0,2.0,5.0,11.0
1705080367.9636848,-5.0,25.0,8.0,-3.0,-2.0,0.0,0.0,-3.0
1705080368.003514,-8.0,-89.0,-22.0,-9.0,-7.0,-5.0,-4.0,-7.0
1705080368.003514,2.0,42.0,2.0,-6.0,-6.0,-1.0,-2.0,-3.0
1705080368.003514,8.0,-28.0,7.0,14.0,7.0,4.0,2.0,2.0
1705080368.003514,20.0,-14.0,-4.0,6.0,4.0,0.0,1.0,10.0
1705080368.003514,-5.0,41.0,-2.0,-1.0,-2.0,-1.0,-1.0,-2.0
1705080368.003514,-8.0,11.0,-4.0,-7.0,-3.0,0.0,-3.0,-6.0
1705080368.003514,23.0,11.0,7.0,-1.0,-5.0,1.0,2.0,8.0
1705080368.003514,10.0,42.0,11.0,-3.0,-1.0,-4.0,-2.0,-4.0
1705080368.0236828,-58.0,-61.0,-25.0,-9.0,0.0,-1.0,-3.0,-15.0
1705080368.0236828,-1.0,21.0,-4.0,-2.0,-4.0,0.0,-1.0,1.0
1705080368.0236828,6.0,-15.0,-5.0,-5.0,-8.0,-4.0,-2.0,-3.0
1705080368.0236828,11.0,15.0,24.0,13.0,11.0,4.0,1.0,10.0
1705080368.0435102,-34.0,-47.0,-19.0,-4.0,-2.0,-1.0,-4.0,-7.0
1705080368.0435102,18.0,5.0,1.0,0.0,0.0,0.0,-2.0,-3.0
1705080368.0435102,-8.0,-3.0,-10.0,4.0,1.0,0.0,1.0,3.0
1705080368.0435102,-37.0,-45.0,-26.0,-17.0,-6.0,-10.0,-5.0,-12.0
1705080368.0538752,48.0,40.0,35.0,22.0,7.0,7.0,4.0,13.0
1705080368.0538752,-16.0,18.0,2.0,-4.0,-7.0,-4.0,-7.0,-8.0
1705080368.0538752,0.0,5.0,-21.0,-7.0,-3.0,-4.0,-3.0,-6.0
1705080368.0538752,8.0,-19.0,-6.0,-10.0,-5.0,0.0,1.0,1.0
1705080368.0835123,-1.0,5.0,7.0,-4.0,1.0,-2.0,-3.0,-1.0
1705080368.0835123,-7.0,10.0,-3.0,5.0,4.0,2.0,4.0,0.0
1705080368.0835123,0.0,-32.0,10.0,2.0,-1.0,0.0,-2.0,-1.0
1705080368.0835123,-5.0,54.0,-5.0,-5.0,-3.0,-1.0,-1.0,-3.0
1705080368.1038592,18.0,-56.0,-13.0,-6.0,-3.0,-2.0,0.0,1.0
1705080368.1038592,9.0,20.0,-2.0,1.0,-1.0,1.0,1.0,4.0
1705080368.1038592,-33.0,-12.0,-4.0,-3.0,-1.0,-4.0,-3.0,-10.0
1705080368.1038592,30.0,5.0,12.0,5.0,3.0,-1.0,2.0,3.0
1705080368.1135135,-19.0,0.0,-7.0,-2.0,-1.0,0.0,-5.0,-8.0
1705080368.1135135,10.0,16.0,20.0,2.0,-5.0,-1.0,-1.0,0.0
1705080368.1135135,-6.0,-6.0,-19.0,-1.0,0.0,0.0,-2.0,-4.0
1705080368.1135135,7.0,-16.0,13.0,5.0,4.0,1.0,1.0,5.0
1705080368.143758,-3.0,37.0,-1.0,-2.0,-1.0,-1.0,0.0,-1.0
1705080368.143758,-3.0,-24.0,-1.0,-6.0,-7.0,-4.0,-1.0,0.0
1705080368.143758,-7.0,-7.0,-8.0,2.0,3.0,4.0,1.0,3.0
1705080368.143758,-8.0,-8.0,2.0,1.0,2.0,0.0,-3.0,-4.0
1705080368.1669037,3.0,5.0,5.0,-3.0,-1.0,-1.0,1.0,1.0
1705080368.1679254,-4.0,10.0,-4.0,1.0,0.0,-1.0,-1.0,-1.0
1705080368.1679254,14.0,14.0,6.0,0.0,-2.0,0.0,0.0,5.0
1705080368.1679254,-26.0,-40.0,-16.0,-6.0,-2.0,0.0,-2.0,-7.0
1705080368.1810203,3.0,18.0,11.0,-2.0,-1.0,0.0,-1.0,0.0
1705080368.1820412,-4.0,-18.0,-2.0,1.0,0.0,-1.0,-1.0,-2.0
1705080368.1820412,1.0,21.0,-1.0,-5.0,-4.0,-1.0,-1.0,1.0
1705080368.1820412,8.0,-13.0,-1.0,7.0,2.0,1.0,-1.0,2.0
1705080368.196283,-8.0,33.0,0.0,-3.0,-2.0,-2.0,-3.0,-4.0
1705080368.196283,-3.0,25.0,1.0,0.0,0.0,0.0,-2.0,-3.0
1705080368.196283,-9.0,-43.0,-10.0,-4.0,-3.0,-1.0,-4.0,-3.0
1705080368.196283,-23.0,-1.0,-2.0,-2.0,-2.0,-2.0,-4.0,-9.0
1705080368.2262807,14.0,17.0,5.0,1.0,2.0,2.0,0.0,3.0
1705080368.2262807,2.0,5.0,5.0,-2.0,-1.0,-2.0,-1.0,-1.0
1705080368.2262807,-19.0,-18.0,-5.0,2.0,0.0,0.0,0.0,-2.0
1705080368.2262807,4.0,16.0,2.0,0.0,1.0,0.0,-1.0,2.0
1705080368.2365375,-4.0,-15.0,12.0,0.0,1.0,1.0,1.0,0.0
1705080368.2365375,-8.0,-25.0,-24.0,-9.0,-5.0,-2.0,-4.0,-3.0
1705080368.2365375,12.0,14.0,16.0,8.0,2.0,1.0,0.0,-1.0
1705080368.2365375,-3.0,-18.0,-10.0,-5.0,-1.0,-1.0,-1.0,-1.0
1705080368.266281,12.0,13.0,1.0,-1.0,-2.0,-2.0,-1.0,-2.0
1705080368.266281,-13.0,-4.0,-5.0,-6.0,-5.0,-3.0,-1.0,-2.0
1705080368.266281,-3.0,-2.0,-7.0,-2.0,-1.0,-2.0,-1.0,-3.0
1705080368.266281,5.0,9.0,10.0,5.0,0.0,1.0,0.0,-1.0
1705080368.28661,-12.0,5.0,-10.0,-9.0,-3.0,-3.0,-4.0,-3.0
1705080368.28661,13.0,1.0,3.0,1.0,0.0,-1.0,0.0,2.0
1705080368.28661,0.0,4.0,4.0,-3.0,-2.0,-1.0,-3.0,-2.0
1705080368.28661,-5.0,-8.0,-4.0,0.0,-1.0,2.0,-2.0,0.0
1705080368.2965825,12.0,4.0,-5.0,-4.0,-3.0,-2.0,0.0,2.0
1705080368.2965825,0.0,2.0,19.0,16.0,8.0,3.0,3.0,3.0
1705080368.2965825,-13.0,-34.0,-36.0,-13.0,-3.0,-3.0,0.0,-2.0
1705080368.2965825,18.0,39.0,13.0,-2.0,0.0,-2.0,-1.0,-3.0
1705080368.326281,-10.0,-22.0,-3.0,-5.0,-2.0,-1.0,0.0,0.0
1705080368.326281,1.0,0.0,1.0,-2.0,-1.0,-1.0,-4.0,0.0
1705080368.326281,18.0,26.0,9.0,11.0,3.0,1.0,1.0,6.0
1705080368.326281,-36.0,-24.0,-11.0,-3.0,-3.0,-2.0,-3.0,-7.0
1705080368.346591,12.0,9.0,-5.0,0.0,0.0,-1.0,1.0,-1.0
1705080368.346591,-14.0,-5.0,-1.0,-4.0,-1.0,-1.0,-1.0,-2.0
1705080368.346591,-1.0,3.0,8.0,-5.0,-4.0,-2.0,-3.0,-1.0
1705080368.346591,6.0,-10.0,-9.0,-3.0,-3.0,-2.0,2.0,3.0
1705080368.356571,1.0,11.0,9.0,8.0,5.0,4.0,1.0,2.0
1705080368.356571,15.0,-4.0,-4.0,-2.0,-1.0,-1.0,0.0,0.0
1705080368.356571,-18.0,-11.0,-4.0,-1.0,1.0,-2.0,-2.0,-5.0
1705080368.356571,-10.0,0.0,1.0,0.0,-1.0,-1.0,0.0,-2.0
1705080368.396284,9.0,3.0,-7.0,-3.0,-2.0,-1.0,-1.0,-1.0
1705080368.396284,2.0,-1.0,1.0,-4.0,-5.0,-1.0,0.0,0.0
1705080368.396284,-1.0,4.0,3.0,0.0,2.0,0.0,0.0,-2.0
1705080368.396284,9.0,5.0,3.0,1.0,2.0,0.0,-3.0,0.0
1705080368.406626,-9.0,-7.0,-3.0,1.0,1.0,0.0,-3.0,-1.0
1705080368.406626,-8.0,-18.0,-12.0,-7.0,-3.0,-3.0,-1.0,-2.0
1705080368.406626,14.0,30.0,20.0,-6.0,-5.0,-2.0,2.0,2.0
1705080368.406626,-21.0,-65.0,-26.0,-4.0,-1.0,-3.0,-1.0,-3.0
1705080368.4166992,-5.0,0.0,-3.0,-2.0,-3.0,-4.0,-4.0,-5.0
1705080368.4166992,-1.0,-3.0,0.0,3.0,0.0,2.0,-1.0,-1.0
1705080368.4166992,-2.0,7.0,-1.0,-3.0,-2.0,-1.0,-1.0,-4.0
1705080368.4166992,15.0,12.0,3.0,1.0,1.0,2.0,1.0,5.0
1705080368.436285,-5.0,-10.0,0.0,4.0,3.0,2.0,0.0,0.0
1705080368.436285,-2.0,-23.0,-14.0,-5.0,2.0,0.0,-1.0,1.0
1705080368.4462829,-2.0,7.0,1.0,-7.0,-4.0,-5.0,-3.0,-4.0
1705080368.4462829,29.0,-7.0,1.0,-2.0,-2.0,0.0,0.0,3.0
1705080368.4666848,-39.0,6.0,-22.0,1.0,-1.0,-2.0,-3.0,-8.0
1705080368.4666848,-3.0,6.0,3.0,-2.0,-2.0,-3.0,-3.0,-4.0
1705080368.4666848,3.0,5.0,0.0,2.0,0.0,-1.0,0.0,1.0
1705080368.4666848,1.0,10.0,2.0,-6.0,-2.0,-6.0,-4.0,-3.0
1705080368.4766366,13.0,-5.0,11.0,-1.0,-2.0,-2.0,0.0,1.0
1705080368.4766366,-2.0,3.0,-4.0,0.0,1.0,1.0,-1.0,1.0
1705080368.4766366,-4.0,-12.0,-7.0,-1.0,0.0,1.0,-1.0,0.0
1705080368.4766366,-1.0,14.0,9.0,2.0,-1.0,0.0,0.0,-2.0
1705080368.4966931,12.0,0.0,4.0,6.0,3.0,1.0,2.0,3.0
1705080368.4966931,-19.0,0.0,-8.0,-4.0,-3.0,-3.0,-2.0,-5.0
1705080368.5062823,7.0,-9.0,-2.0,-6.0,-2.0,-1.0,-2.0,1.0
1705080368.5062823,-9.0,-2.0,0.0,2.0,0.0,0.0,-1.0,-1.0
1705080368.5266898,8.0,4.0,0.0,0.0,2.0,1.0,2.0,1.0
1705080368.5266898,-3.0,0.0,3.0,-3.0,-4.0,-4.0,-1.0,-3.0
1705080368.5266898,-6.0,-19.0,-10.0,-2.0,0.0,-2.0,-1.0,-3.0
1705080368.5266898,5.0,11.0,-1.0,-5.0,-3.0,-3.0,0.0,-1.0
1705080368.546281,3.0,10.0,6.0,4.0,0.0,0.0,-1.0,0.0
1705080368.546281,-11.0,-19.0,-2.0,-1.0,-1.0,0.0,-1.0,-1.0
1705080368.546281,-8.0,10.0,4.0,7.0,0.0,-1.0,-1.0,-5.0
1705080368.546281,1.0,5.0,-6.0,-4.0,3.0,2.0,0.0,3.0
1705080368.5565436,11.0,-19.0,17.0,8.0,2.0,-1.0,0.0,0.0
1705080368.5565436,-4.0,4.0,-5.0,-2.0,-1.0,-1.0,0.0,-1.0
1705080368.5565436,-5.0,16.0,-7.0,-6.0,-3.0,-4.0,-2.0,-4.0
1705080368.5565436,4.0,1.0,2.0,-2.0,0.0,-1.0,1.0,0.0
1705080368.5866148,-11.0,-8.0,-3.0,0.0,0.0,0.0,-1.0,-4.0
1705080368.5866148,7.0,6.0,-3.0,-3.0,-3.0,-2.0,-1.0,-3.0
1705080368.5866148,2.0,3.0,-2.0,-2.0,-2.0,-1.0,-1.0,0.0
1705080368.5866148,-2.0,2.0,4.0,3.0,2.0,1.0,-2.0,0.0
1705080368.596539,-9.0,-1.0,-2.0,-2.0,0.0,-1.0,0.0,0.0
1705080368.596539,3.0,2.0,0.0,-2.0,-2.0,-2.0,-2.0,-2.0
1705080368.6062813,1.0,-8.0,-5.0,-2.0,-2.0,0.0,-2.0,-1.0
1705080368.6062813,1.0,-4.0,0.0,-1.0,-3.0,-2.0,1.0,2.0
1705080368.6162803,-6.0,17.0,-1.0,-3.0,-3.0,0.0,-2.0,-5.0
1705080368.6162803,-1.0,3.0,5.0,0.0,-2.0,-1.0,-3.0,-4.0
1705080368.6162803,1.0,-9.0,-3.0,-2.0,0.0,1.0,0.0,2.0
1705080368.6162803,-2.0,-27.0,4.0,5.0,1.0,2.0,0.0,1.0
1705080368.6467178,-10.0,16.0,-10.0,-6.0,-6.0,-3.0,-2.0,-4.0
1705080368.6467178,6.0,4.0,-4.0,-1.0,0.0,-1.0,-3.0,2.0
1705080368.6467178,3.0,12.0,10.0,5.0,4.0,-1.0,0.0,-1.0
1705080368.6467178,-17.0,-31.0,-5.0,-2.0,-5.0,-5.0,-3.0,-8.0
1705080368.6566808,-4.0,-21.0,-17.0,-8.0,-2.0,-1.0,1.0,1.0
1705080368.6566808,3.0,5.0,-5.0,-3.0,-2.0,-1.0,-1.0,1.0
1705080368.6662827,5.0,-6.0,8.0,5.0,2.0,3.0,1.0,1.0
1705080368.6662827,1.0,23.0,8.0,1.0,-1.0,-3.0,-1.0,1.0
1705080368.6762803,1.0,-22.0,-1.0,-2.0,-3.0,-3.0,-2.0,2.0
1705080368.6762803,-6.0,0.0,-11.0,-4.0,-4.0,-4.0,0.0,-4.0
1705080368.6762803,2.0,2.0,-1.0,-1.0,0.0,-1.0,-1.0,3.0
1705080368.6762803,-10.0,3.0,-2.0,-2.0,-1.0,0.0,-1.0,-3.0
1705080368.7070036,5.0,-5.0,1.0,-6.0,-2.0,-1.0,-2.0,1.0
1705080368.7070036,-4.0,-2.0,-1.0,4.0,3.0,1.0,-1.0,-3.0
1705080368.7080019,8.0,16.0,8.0,-3.0,-2.0,-2.0,-2.0,0.0
1705080368.7080019,-15.0,-21.0,-4.0,2.0,2.0,0.0,-1.0,-3.0
1705080368.7323022,-2.0,10.0,-19.0,-7.0,-5.0,-5.0,-2.0,-4.0
1705080368.7323022,-2.0,-12.0,5.0,3.0,0.0,1.0,0.0,1.0
1705080368.7323022,19.0,10.0,9.0,-4.0,-2.0,0.0,-1.0,2.0
1705080368.7323022,-5.0,-17.0,-9.0,4.0,1.0,-1.0,-2.0,0.0
1705080368.7424738,-1.0,-3.0,-7.0,-2.0,-1.0,-2.0,-2.0,-3.0
1705080368.7424738,0.0,-6.0,-5.0,-4.0,-2.0,-2.0,-1.0,0.0
1705080368.7424738,-1.0,1.0,-3.0,-3.0,-3.0,-1.0,-1.0,-2.0
1705080368.7424738,-3.0,5.0,-4.0,-8.0,-4.0,-2.0,-2.0,-4.0
1705080368.7722993,7.0,10.0,14.0,11.0,4.0,2.0,1.0,3.0
1705080368.7722993,11.0,17.0,9.0,10.0,5.0,1.0,1.0,2.0
1705080368.7722993,-17.0,3.0,-10.0,-6.0,-6.0,-3.0,-3.0,-4.0
1705080368.7722993,10.0,12.0,3.0,-3.0,-2.0,-1.0,1.0,0.0
1705080368.7722993,-11.0,-3.0,9.0,4.0,1.0,1.0,1.0,0.0
1705080368.7722993,6.0,-15.0,-21.0,-6.0,-1.0,-1.0,1.0,1.0
1705080368.7826333,-11.0,-2.0,-5.0,-2.0,-3.0,-2.0,-2.0,-2.0
1705080368.7826333,1.0,1.0,2.0,2.0,-4.0,-1.0,-1.0,-1.0
1705080368.8027167,5.0,13.0,-3.0,-4.0,-2.0,-1.0,2.0,2.0
1705080368.8027167,1.0,-13.0,11.0,2.0,0.0,0.0,0.0,-1.0
1705080368.8027167,-18.0,-17.0,-7.0,2.0,0.0,-2.0,-2.0,-3.0
1705080368.8027167,0.0,15.0,-7.0,-7.0,-4.0,-3.0,-1.0,-1.0
1705080368.8223016,10.0,-2.0,0.0,-5.0,-1.0,-3.0,-3.0,1.0
1705080368.8223016,-9.0,-2.0,0.0,3.0,1.0,-1.0,-1.0,-2.0
1705080368.8223016,-7.0,-16.0,1.0,8.0,3.0,0.0,-2.0,-3.0
1705080368.8223016,-10.0,6.0,1.0,0.0,-2.0,0.0,0.0,1.0
1705080368.8323338,9.0,-4.0,5.0,-1.0,-2.0,-1.0,0.0,2.0
1705080368.8323338,8.0,-11.0,-8.0,-5.0,-2.0,0.0,0.0,2.0
1705080368.852716,-18.0,17.0,10.0,-3.0,-2.0,-1.0,-1.0,-4.0
1705080368.852716,-2.0,-11.0,-4.0,1.0,2.0,0.0,-3.0,-6.0
1705080368.8626027,-14.0,-23.0,-17.0,-8.0,-4.0,-2.0,-2.0,-3.0
1705080368.8626027,10.0,28.0,10.0,-1.0,-2.0,-1.0,-1.0,-1.0
1705080368.8626027,18.0,-10.0,0.0,0.0,1.0,0.0,0.0,4.0
1705080368.8626027,-1.0,20.0,-1.0,-2.0,1.0,-2.0,-1.0,0.0
1705080368.8823323,-12.0,8.0,13.0,5.0,3.0,3.0,-3.0,-4.0
1705080368.8823323,0.0,-6.0,10.0,2.0,1.0,0.0,-1.0,1.0
1705080368.8823323,8.0,13.0,5.0,1.0,0.0,-2.0,0.0,4.0
1705080368.8823323,-3.0,-6.0,-22.0,-9.0,-4.0,-4.0,-4.0,-4.0
1705080368.902624,8.0,-5.0,-4.0,-3.0,-4.0,0.0,-1.0,-2.0
1705080368.902624,-6.0,-2.0,4.0,2.0,1.0,0.0,1.0,0.0
1705080368.902624,-3.0,-6.0,-4.0,0.0,-1.0,-2.0,1.0,-2.0
1705080368.902624,6.0,4.0,10.0,-2.0,-2.0,-3.0,1.0,1.0
1705080368.922465,14.0,12.0,2.0,8.0,4.0,1.0,1.0,0.0
1705080368.922465,-17.0,-16.0,-16.0,-12.0,-5.0,-5.0,-3.0,-5.0
1705080368.922465,22.0,11.0,3.0,2.0,-1.0,1.0,2.0,5.0
1705080368.922465,-14.0,-2.0,3.0,3.0,0.0,-1.0,-3.0,-7.0
1705080368.9423015,0.0,-10.0,-6.0,-3.0,0.0,5.0,12.0,7.0
1705080368.9423015,-15.0,6.0,8.0,0.0,-1.0,2.0,-1.0,8.0
1705080368.9423015,4.0,-13.0,-2.0,-7.0,-6.0,-8.0,-17.0,-18.0
1705080368.9423015,8.0,-3.0,-2.0,0.0,-1.0,-4.0,-3.0,-12.0
1705080368.9627333,-4.0,-28.0,-2.0,2.0,1.0,-2.0,0.0,12.0
1705080368.9627333,16.0,40.0,18.0,4.0,2.0,3.0,7.0,10.0
1705080368.9627333,-15.0,17.0,-18.0,-13.0,-8.0,-6.0,-6.0,-22.0
1705080368.9627333,3.0,-9.0,3.0,-3.0,1.0,2.0,-9.0,-22.0
1705080368.9824996,-8.0,11.0,8.0,3.0,-6.0,-10.0,-3.0,-1.0
1705080368.9824996,-2.0,-24.0,-10.0,7.0,10.0,6.0,1.0,4.0
1705080368.9824996,-3.0,-17.0,-11.0,-3.0,-1.0,1.0,7.0,18.0
1705080368.9824996,17.0,17.0,-2.0,-7.0,-6.0,-3.0,5.0,8.0
1705080369.0025225,-28.0,15.0,5.0,-2.0,-2.0,0.0,-2.0,-8.0
1705080369.0025225,21.0,0.0,10.0,6.0,4.0,3.0,4.0,7.0
1705080369.0025225,2.0,-3.0,8.0,9.0,6.0,7.0,12.0,14.0
1705080369.0025225,-23.0,-28.0,-24.0,-5.0,-5.0,-2.0,-8.0,2.0
1705080369.022627,-12.0,-12.0,-5.0,-11.0,1.0,-8.0,-18.0,-49.0
1705080369.022627,-13.0,-8.0,-8.0,-4.0,-8.0,-3.0,-1.0,4.0
1705080369.022627,-12.0,-16.0,-4.0,7.0,13.0,20.0,20.0,17.0
1705080369.022627,25.0,13.0,8.0,1.0,-3.0,24.0,12.0,20.0
1705080369.0523047,4.0,0.0,9.0,2.0,5.0,12.0,-13.0,-3.0
1705080369.0523047,7.0,3.0,-2.0,-11.0,-16.0,-44.0,-32.0,-26.0
1705080369.0523047,17.0,9.0,-1.0,-5.0,-12.0,-35.0,-30.0,-11.0
1705080369.0523047,-36.0,-14.0,6.0,3.0,4.0,-7.0,8.0,23.0
1705080369.0822978,28.0,10.0,-8.0,-4.0,-5.0,6.0,3.0,-8.0
1705080369.0822978,-23.0,-9.0,-7.0,-6.0,1.0,14.0,0.0,-18.0
1705080369.0822978,14.0,1.0,6.0,3.0,3.0,15.0,19.0,45.0
1705080369.0822978,5.0,6.0,0.0,2.0,6.0,12.0,2.0,-17.0
1705080369.0822978,7.0,3.0,4.0,1.0,-1.0,-2.0,9.0,30.0
1705080369.0822978,-2.0,1.0,1.0,1.0,-12.0,1.0,2.0,-10.0
1705080369.0822978,-12.0,-19.0,-8.0,0.0,12.0,5.0,2.0,-35.0
1705080369.0822978,-22.0,-1.0,-5.0,-3.0,8.0,3.0,4.0,34.0
1705080369.1023312,40.0,10.0,-1.0,-6.0,-3.0,-42.0,-17.0,-31.0
1705080369.1023312,-24.0,-7.0,-2.0,-1.0,-8.0,9.0,-2.0,-1.0
1705080369.1023312,-15.0,-8.0,-4.0,-7.0,-15.0,-34.0,-18.0,-23.0
1705080369.1023312,30.0,9.0,9.0,5.0,-1.0,-10.0,6.0,26.0
1705080369.132729,-2.0,-4.0,-12.0,-7.0,-8.0,12.0,13.0,36.0
1705080369.132729,25.0,-1.0,2.0,3.0,13.0,14.0,12.0,23.0
1705080369.132729,-9.0,3.0,1.0,0.0,2.0,12.0,-5.0,-43.0
1705080369.132729,-47.0,1.0,8.0,17.0,2.0,-10.0,-38.0,-80.0
1705080369.1426828,-15.0,-33.0,-18.0,-7.0,-13.0,-11.0,1.0,25.0
1705080369.1426828,-25.0,4.0,-22.0,-12.0,4.0,-23.0,14.0,6.0
1705080369.1426828,42.0,11.0,12.0,-10.0,-6.0,1.0,-3.0,-3.0
1705080369.1426828,-46.0,-5.0,0.0,-1.0,-7.0,-19.0,-21.0,-4.0
1705080369.162299,-43.0,-6.0,13.0,6.0,-12.0,10.0,3.0,-9.0
1705080369.162299,9.0,5.0,0.0,9.0,28.0,12.0,4.0,6.0
1705080369.162299,35.0,0.0,6.0,7.0,-9.0,33.0,17.0,28.0
1705080369.162299,-4.0,-8.0,-15.0,-11.0,4.0,-10.0,2.0,-7.0
1705080369.182645,-8.0,-11.0,-6.0,-4.0,-7.0,4.0,-4.0,7.0
1705080369.182645,-1.0,-6.0,-2.0,-8.0,-2.0,-1.0,-7.0,-32.0
1705080369.182645,-20.0,-1.0,-3.0,0.0,-5.0,2.0,-9.0,5.0
1705080369.182645,61.0,14.0,11.0,8.0,-3.0,10.0,11.0,24.0
1705080369.2337432,-23.0,-5.0,-1.0,0.0,4.0,0.0,4.0,-1.0
1705080369.2337432,15.0,2.0,-6.0,0.0,-10.0,-5.0,-4.0,-1.0
1705080369.2337432,-35.0,-14.0,-5.0,-1.0,8.0,-12.0,-10.0,-18.0
1705080369.2337432,7.0,-20.0,-10.0,-12.0,-9.0,10.0,6.0,-6.0
1705080369.2337432,10.0,19.0,-2.0,-1.0,18.0,-23.0,0.0,7.0
1705080369.2337432,28.0,43.0,34.0,15.0,-3.0,-6.0,-7.0,-11.0
1705080369.2337432,-32.0,-24.0,-19.0,-6.0,-6.0,0.0,-5.0,-4.0
1705080369.2337432,-4.0,-12.0,-18.0,-12.0,-15.0,-16.0,5.0,12.0
1705080369.245002,1.0,-6.0,-7.0,-6.0,21.0,17.0,2.0,1.0
1705080369.245002,4.0,-1.0,1.0,-2.0,-5.0,14.0,-9.0,-7.0
1705080369.245002,10.0,36.0,19.0,15.0,10.0,1.0,6.0,15.0
1705080369.245002,0.0,-12.0,1.0,-5.0,2.0,-26.0,-4.0,-2.0
1705080369.2650425,6.0,5.0,0.0,-2.0,-7.0,7.0,-3.0,4.0
1705080369.2650425,2.0,-4.0,-12.0,-8.0,2.0,-20.0,5.0,9.0
1705080369.2650425,-16.0,-13.0,-4.0,-4.0,4.0,1.0,-13.0,-65.0
1705080369.2650425,16.0,4.0,5.0,7.0,2.0,-3.0,13.0,44.0
1705080369.2750044,-5.0,-7.0,0.0,3.0,-6.0,14.0,-4.0,-70.0
1705080369.2750044,-13.0,5.0,1.0,-3.0,-22.0,-25.0,-14.0,12.0
1705080369.2750044,-34.0,-59.0,-32.0,-12.0,-2.0,-14.0,-1.0,8.0
1705080369.2750044,17.0,28.0,9.0,-1.0,-3.0,27.0,2.0,1.0
1705080369.3054085,87.0,101.0,53.0,27.0,24.0,-7.0,16.0,39.0
1705080369.3054085,-46.0,-56.0,-33.0,0.0,-16.0,12.0,12.0,-1.0
1705080369.3054085,-24.0,-4.0,-32.0,-20.0,-3.0,-7.0,-12.0,-14.0
1705080369.3054085,6.0,31.0,1.0,-6.0,12.0,14.0,2.0,-6.0
1705080369.325004,-44.0,-46.0,-16.0,-7.0,-11.0,4.0,-5.0,-4.0
1705080369.325004,49.0,43.0,31.0,10.0,4.0,16.0,5.0,-5.0
1705080369.325004,8.0,9.0,14.0,5.0,-4.0,-11.0,2.0,30.0
1705080369.325004,-7.0,-13.0,-6.0,-2.0,-8.0,2.0,-2.0,-13.0
1705080369.3450086,12.0,12.0,5.0,1.0,-6.0,-1.0,-5.0,-5.0
1705080369.3450086,-15.0,-24.0,-5.0,-1.0,8.0,0.0,-4.0,3.0
1705080369.3450086,3.0,-9.0,-7.0,-4.0,-5.0,-2.0,4.0,8.0
1705080369.3450086,17.0,19.0,15.0,5.0,6.0,2.0,-1.0,-4.0
1705080369.3650079,-8.0,-38.0,-10.0,0.0,5.0,-23.0,1.0,0.0
1705080369.3650079,-45.0,-51.0,-22.0,-9.0,-2.0,-5.0,-7.0,-16.0
1705080369.3650079,16.0,26.0,9.0,-4.0,-5.0,-7.0,-1.0,10.0
1705080369.3650079,-3.0,-5.0,4.0,-8.0,-12.0,-5.0,-5.0,-11.0
1705080369.3850057,16.0,20.0,-7.0,5.0,1.0,4.0,-2.0,11.0
1705080369.3850057,-6.0,-7.0,21.0,6.0,7.0,6.0,3.0,10.0
1705080369.3850057,3.0,5.0,0.0,-2.0,-5.0,-9.0,-1.0,-7.0
1705080369.3850057,22.0,32.0,8.0,10.0,7.0,-2.0,1.0,-3.0
1705080369.3950045,-47.0,-60.0,-21.0,-16.0,-14.0,-2.0,-5.0,-10.0
1705080369.3950045,12.0,-3.0,-11.0,-11.0,-5.0,-7.0,-5.0,-1.0
1705080369.3950045,25.0,22.0,9.0,4.0,1.0,11.0,5.0,12.0
1705080369.3950045,8.0,-6.0,-2.0,-3.0,-3.0,2.0,-2.0,-4.0
1705080369.4253612,6.0,30.0,12.0,11.0,9.0,7.0,2.0,-1.0
1705080369.4253612,-3.0,9.0,0.0,3.0,0.0,1.0,-1.0,-2.0
1705080369.4253612,2.0,-15.0,1.0,-2.0,-3.0,-1.0,2.0,3.0
1705080369.4253612,-5.0,-12.0,-8.0,-9.0,-4.0,-6.0,-1.0,-4.0
1705080369.4450037,1.0,17.0,-2.0,0.0,-3.0,-2.0,-2.0,-1.0
1705080369.4450037,21.0,-5.0,1.0,1.0,2.0,-1.0,0.0,11.0
1705080369.4450037,2.0,-1.0,-2.0,9.0,7.0,10.0,1.0,-4.0
1705080369.4450037,-3.0,-7.0,0.0,-2.0,1.0,-2.0,-1.0,0.0
1705080369.4553237,-2.0,5.0,5.0,-2.0,-2.0,5.0,2.0,5.0
1705080369.4553237,0.0,5.0,-6.0,-4.0,-3.0,-1.0,-4.0,-2.0
1705080369.4553237,16.0,24.0,12.0,2.0,4.0,6.0,6.0,11.0
1705080369.4553237,-21.0,-25.0,-2.0,7.0,0.0,1.0,2.0,-4.0
1705080369.4853964,-7.0,-12.0,-5.0,-7.0,-8.0,-8.0,-7.0,-8.0
1705080369.4853964,-3.0,4.0,-9.0,-3.0,-2.0,3.0,0.0,-5.0
1705080369.495008,-6.0,1.0,5.0,2.0,-1.0,-3.0,0.0,0.0
1705080369.495008,-5.0,5.0,1.0,-1.0,2.0,-1.0,-3.0,-6.0
1705080369.5050037,-5.0,-20.0,-11.0,-5.0,-6.0,-3.0,-3.0,1.0
1705080369.5050037,-2.0,-6.0,-8.0,-4.0,0.0,-1.0,0.0,-2.0
1705080369.5050037,-6.0,-3.0,7.0,1.0,-2.0,-4.0,-3.0,-2.0
1705080369.5050037,2.0,11.0,3.0,-1.0,-3.0,-4.0,4.0,4.0
1705080369.5153227,4.0,-21.0,-8.0,-5.0,-3.0,-2.0,-2.0,1.0
1705080369.5153227,-4.0,11.0,5.0,-2.0,-1.0,0.0,-2.0,-5.0
1705080369.5253463,-6.0,-13.0,-9.0,-5.0,-1.0,-1.0,-4.0,-5.0
1705080369.5253463,6.0,1.0,-1.0,2.0,2.0,3.0,1.0,6.0
1705080369.5450044,-5.0,10.0,-2.0,-6.0,-4.0,-4.0,-3.0,-6.0
1705080369.5450044,-6.0,-9.0,-1.0,3.0,-1.0,-2.0,0.0,-3.0
1705080369.5450044,14.0,27.0,7.0,1.0,1.0,0.0,3.0,6.0
1705080369.5450044,-8.0,-9.0,-2.0,4.0,0.0,-5.0,-3.0,-5.0
1705080369.5652406,-6.0,23.0,-1.0,-6.0,-4.0,-1.0,-4.0,-2.0
1705080369.5652406,0.0,4.0,-18.0,-2.0,-1.0,-1.0,-1.0,-5.0
1705080369.5652406,-4.0,45.0,4.0,-6.0,-2.0,-2.0,-2.0,-1.0
1705080369.5652406,-6.0,-19.0,2.0,3.0,2.0,4.0,2.0,1.0
1705080369.5752082,-7.0,-49.0,-22.0,-7.0,-6.0,-7.0,-5.0,-6.0
1705080369.5752082,7.0,14.0,12.0,1.0,1.0,1.0,0.0,5.0
1705080369.5851738,-1.0,-12.0,1.0,8.0,3.0,0.0,0.0,6.0
1705080369.5851738,-14.0,23.0,-11.0,-10.0,-7.0,-4.0,-8.0,-11.0
1705080369.6050043,8.0,24.0,13.0,5.0,7.0,4.0,2.0,1.0
1705080369.6050043,-3.0,-5.0,-2.0,-4.0,-3.0,-3.0,-2.0,-3.0
1705080369.6050043,-3.0,-30.0,-8.0,0.0,0.0,0.0,1.0,2.0
1705080369.6050043,1.0,-35.0,2.0,3.0,-1.0,-1.0,0.0,-1.0
1705080369.625208,5.0,38.0,10.0,-1.0,-3.0,-1.0,1.0,-1.0
1705080369.625208,-5.0,-48.0,-10.0,-2.0,2.0,3.0,0.0,3.0
1705080369.625208,-20.0,10.0,-19.0,-9.0,-5.0,-4.0,-8.0,-13.0
1705080369.625208,10.0,1.0,1.0,5.0,1.0,-1.0,1.0,4.0
1705080369.6352088,6.0,-15.0,-4.0,1.0,2.0,0.0,0.0,1.0
1705080369.6352088,14.0,37.0,20.0,4.0,0.0,1.0,4.0,6.0
1705080369.6451705,0.0,26.0,16.0,7.0,1.0,-1.0,2.0,1.0
1705080369.6451705,-26.0,-46.0,-27.0,-14.0,-6.0,-3.0,-6.0,-10.0
1705080369.665282,-8.0,-1.0,-11.0,-7.0,-4.0,-1.0,-3.0,-11.0
1705080369.665282,8.0,10.0,14.0,-1.0,-9.0,-2.0,4.0,6.0
1705080369.665282,-13.0,-54.0,-9.0,1.0,24.0,13.0,-4.0,-5.0
1705080369.665282,7.0,37.0,5.0,3.0,2.0,2.0,1.0,1.0
1705080369.6950064,5.0,22.0,35.0,15.0,6.0,4.0,1.0,5.0
1705080369.6950064,-13.0,-22.0,-39.0,-13.0,-7.0,-3.0,-7.0,-10.0
1705080369.6950064,3.0,-3.0,-6.0,-5.0,-15.0,-8.0,0.0,-1.0
1705080369.6950064,4.0,-12.0,7.0,2.0,-1.0,1.0,1.0,-1.0
1705080369.6950064,7.0,-9.0,-7.0,-4.0,3.0,2.0,-1.0,7.0
1705080369.6950064,-10.0,7.0,11.0,6.0,3.0,-1.0,-3.0,-7.0
1705080369.7051744,2.0,5.0,17.0,2.0,-2.0,-2.0,1.0,6.0
1705080369.7051744,1.0,-17.0,-6.0,2.0,0.0,-4.0,-6.0,-8.0
1705080369.7250037,-6.0,14.0,-20.0,-15.0,-12.0,-8.0,-6.0,-8.0
1705080369.7250037,-5.0,15.0,9.0,-3.0,0.0,1.0,0.0,3.0
1705080369.7250037,5.0,2.0,-1.0,4.0,1.0,-1.0,0.0,3.0
1705080369.7250037,-2.0,2.0,9.0,-1.0,-4.0,-2.0,-1.0,2.0
1705080369.7453642,-16.0,5.0,6.0,4.0,1.0,0.0,-2.0,-8.0
1705080369.7453642,-16.0,-2.0,-3.0,0.0,2.0,-3.0,-5.0,-4.0
1705080369.7453642,8.0,-6.0,-11.0,-1.0,1.0,3.0,4.0,2.0
1705080369.7453642,-6.0,5.0,-6.0,-7.0,-5.0,-4.0,-3.0,-5.0
1705080369.762611,5.0,15.0,8.0,-3.0,-3.0,0.0,2.0,6.0
1705080369.762611,-2.0,-21.0,-3.0,-3.0,0.0,-1.0,-2.0,-4.0
1705080369.7754722,29.0,49.0,37.0,14.0,4.0,1.0,7.0,12.0
1705080369.7754722,-6.0,-23.0,-29.0,-1.0,2.0,1.0,-2.0,0.0
1705080369.7777143,-4.0,-41.0,-19.0,-1.0,3.0,5.0,4.0,0.0
1705080369.7777143,1.0,2.0,11.0,1.0,1.0,1.0,1.0,-3.0
1705080369.7777143,-15.0,4.0,-15.0,-13.0,-9.0,-10.0,-8.0,-16.0
1705080369.7877312,8.0,14.0,10.0,3.0,1.0,1.0,-4.0,-1.0
1705080369.8083553,-1.0,19.0,8.0,1.0,-1.0,-1.0,-1.0,-2.0
1705080369.8083553,8.0,-14.0,-15.0,0.0,3.0,0.0,1.0,-4.0
1705080369.8083553,-7.0,-16.0,-3.0,-4.0,-7.0,-3.0,-3.0,4.0
1705080369.8083553,-18.0,5.0,-7.0,-9.0,-7.0,-6.0,-3.0,-5.0
1705080369.8480344,-8.0,-32.0,-14.0,-2.0,0.0,-2.0,-2.0,-2.0
1705080369.8480344,7.0,33.0,11.0,0.0,-1.0,-4.0,-3.0,-2.0
1705080369.8480344,-2.0,-10.0,-8.0,-1.0,-1.0,0.0,3.0,2.0
1705080369.8480344,0.0,5.0,1.0,-2.0,1.0,0.0,0.0,1.0
1705080369.8480344,-4.0,-10.0,2.0,1.0,-1.0,-2.0,0.0,-2.0
1705080369.8480344,7.0,19.0,8.0,4.0,4.0,2.0,0.0,6.0
1705080369.8480344,-9.0,-7.0,-7.0,-9.0,-5.0,-2.0,-2.0,-6.0
1705080369.8480344,0.0,-20.0,-27.0,-4.0,-3.0,-3.0,-1.0,-2.0
1705080369.868233,-1.0,10.0,6.0,-3.0,-4.0,-1.0,-3.0,-5.0
1705080369.868233,-9.0,-16.0,-9.0,-3.0,-4.0,-2.0,-1.0,1.0
1705080369.868233,21.0,40.0,28.0,5.0,-2.0,-3.0,-1.0,-4.0
1705080369.868233,-8.0,-9.0,6.0,3.0,2.0,1.0,2.0,-4.0
1705080369.8880663,11.0,19.0,15.0,2.0,0.0,-2.0,1.0,5.0
1705080369.8880663,-4.0,-27.0,-19.0,-6.0,-5.0,-1.0,-2.0,0.0
1705080369.8880663,0.0,-12.0,6.0,2.0,0.0,-2.0,-3.0,-2.0
1705080369.8880663,-1.0,21.0,9.0,-2.0,-2.0,-2.0,-4.0,-1.0
1705080369.898403,-15.0,-26.0,-19.0,-5.0,-3.0,0.0,-3.0,-10.0
1705080369.898403,-1.0,7.0,11.0,2.0,-1.0,0.0,0.0,0.0
1705080369.898403,-12.0,-17.0,-18.0,-8.0,-5.0,-2.0,-1.0,-2.0
1705080369.898403,14.0,14.0,11.0,3.0,0.0,2.0,3.0,5.0
1705080369.928224,2.0,1.0,-1.0,-1.0,1.0,-2.0,-3.0,-3.0
1705080369.928224,3.0,-12.0,-11.0,-4.0,-1.0,-3.0,-2.0,-2.0
1705080369.928224,-12.0,-25.0,-14.0,-2.0,-1.0,-2.0,-5.0,-6.0
1705080369.928224,7.0,3.0,4.0,1.0,2.0,-2.0,0.0,8.0
1705080369.9484103,-4.0,1.0,0.0,-4.0,-4.0,-1.0,-1.0,0.0
1705080369.9484103,-2.0,12.0,-3.0,-5.0,-3.0,-3.0,2.0,-3.0
1705080369.9484103,3.0,-10.0,-6.0,-1.0,1.0,-2.0,-1.0,6.0
1705080369.9484103,-8.0,1.0,-1.0,-7.0,-7.0,-3.0,-4.0,-6.0
1705080369.9583404,9.0,8.0,4.0,4.0,3.0,4.0,2.0,5.0
1705080369.9583404,-3.0,5.0,12.0,3.0,1.0,2.0,1.0,3.0
1705080369.9583404,-7.0,-15.0,-11.0,-2.0,-2.0,-1.0,-3.0,-10.0
1705080369.9583404,1.0,-3.0,-5.0,-5.0,-3.0,-5.0,-4.0,-7.0
1705080369.988254,6.0,-1.0,-1.0,5.0,4.0,3.0,3.0,3.0
1705080369.988254,4.0,-1.0,-2.0,1.0,1.0,-2.0,-1.0,0.0
1705080369.988254,-6.0,13.0,3.0,-3.0,0.0,0.0,-4.0,2.0
1705080369.988254,10.0,9.0,-3.0,-1.0,1.0,1.0,2.0,2.0
1705080370.00828,7.0,-15.0,-6.0,0.0,0.0,3.0,7.0,19.0
1705080370.00828,-13.0,-4.0,-3.0,-3.0,-4.0,-5.0,-13.0,-52.0
1705080370.00828,-5.0,-6.0,-3.0,-2.0,-4.0,-7.0,-4.0,23.0
1705080370.00828,-4.0,-3.0,3.0,1.0,1.0,3.0,-10.0,-34.0
1705080370.0181532,-14.0,-3.0,-7.0,-7.0,-6.0,-20.0,-2.0,14.0
1705080370.0181532,5.0,0.0,0.0,-3.0,-6.0,-3.0,5.0,16.0
1705080370.0181532,2.0,-7.0,-3.0,3.0,8.0,7.0,4.0,0.0
1705080370.0181532,3.0,0.0,1.0,2.0,0.0,3.0,6.0,15.0
1705080370.0481157,6.0,11.0,6.0,-1.0,2.0,-5.0,-2.0,0.0
1705080370.0481157,3.0,-4.0,-11.0,2.0,1.0,2.0,2.0,6.0
1705080370.0481157,-4.0,-1.0,9.0,-2.0,-18.0,-8.0,1.0,-2.0
1705080370.0481157,26.0,14.0,6.0,5.0,15.0,9.0,7.0,14.0
1705080370.0680346,2.0,-1.0,-2.0,2.0,3.0,13.0,2.0,-13.0
1705080370.0680346,-2.0,-4.0,0.0,-1.0,2.0,0.0,-4.0,19.0
1705080370.0680346,-11.0,-2.0,-6.0,-7.0,-10.0,-39.0,-11.0,-30.0
1705080370.0680346,4.0,-7.0,3.0,1.0,-2.0,1.0,-1.0,-9.0
1705080370.0782585,4.0,5.0,6.0,4.0,-44.0,-11.0,-7.0,-10.0
1705080370.0782585,-23.0,-10.0,-6.0,-5.0,47.0,5.0,-8.0,-17.0
1705080370.0782585,-3.0,-2.0,-1.0,-4.0,-21.0,12.0,1.0,-9.0
1705080370.0782585,-14.0,-1.0,-1.0,-6.0,8.0,-2.0,-6.0,6.0
1705080370.1082227,2.0,1.0,-1.0,1.0,6.0,-5.0,2.0,-4.0
1705080370.1082227,11.0,8.0,4.0,0.0,-18.0,-2.0,3.0,17.0
1705080370.1082227,1.0,-2.0,-3.0,0.0,0.0,-5.0,1.0,-1.0
1705080370.1082227,-9.0,-6.0,-5.0,-5.0,-10.0,-2.0,1.0,1.0
1705080370.1284046,-3.0,1.0,3.0,-3.0,3.0,12.0,3.0,4.0
1705080370.1284046,-9.0,-2.0,-3.0,0.0,-9.0,2.0,-2.0,-5.0
1705080370.1284046,5.0,-4.0,-4.0,4.0,20.0,6.0,2.0,0.0
1705080370.1284046,5.0,2.0,4.0,4.0,-6.0,-1.0,1.0,8.0
1705080370.1384146,4.0,2.0,-2.0,1.0,7.0,1.0,0.0,0.0
1705080370.1384146,-1.0,-3.0,2.0,-4.0,0.0,-13.0,0.0,-13.0
1705080370.1384146,-6.0,-5.0,-1.0,-2.0,-13.0,6.0,2.0,5.0
1705080370.1384146,-23.0,-4.0,-4.0,-5.0,7.0,-4.0,-3.0,3.0
1705080370.168064,0.0,-21.0,-2.0,-1.0,-1.0,2.0,-2.0,10.0
1705080370.168064,27.0,29.0,5.0,2.0,14.0,3.0,-4.0,-10.0
1705080370.168064,-11.0,-29.0,-18.0,-2.0,-17.0,-2.0,-1.0,-7.0
1705080370.168064,-30.0,29.0,1.0,-1.0,17.0,-8.0,-6.0,-6.0
1705080370.1882706,41.0,-33.0,3.0,3.0,15.0,2.0,4.0,5.0
1705080370.1882706,-37.0,27.0,-4.0,-2.0,-26.0,5.0,4.0,11.0
1705080370.1882706,-9.0,-15.0,-3.0,-9.0,7.0,-3.0,-8.0,-17.0
1705080370.1882706,11.0,6.0,7.0,1.0,-9.0,-5.0,0.0,3.0
1705080370.198337,17.0,34.0,0.0,-1.0,-27.0,-5.0,2.0,4.0
1705080370.198337,1.0,-12.0,4.0,10.0,32.0,17.0,9.0,10.0
1705080370.198337,17.0,23.0,7.0,3.0,5.0,2.0,-11.0,5.0
1705080370.198337,-7.0,-28.0,-12.0,-8.0,-8.0,3.0,-1.0,-10.0
1705080370.2280664,-6.0,14.0,3.0,-1.0,-21.0,-4.0,-2.0,-6.0
1705080370.2280664,21.0,-16.0,-4.0,-6.0,-16.0,-7.0,3.0,5.0
1705080370.2280664,-26.0,8.0,1.0,3.0,12.0,2.0,3.0,1.0
1705080370.2280664,-6.0,-25.0,-5.0,-5.0,-24.0,-6.0,-4.0,-4.0
1705080370.2484581,-14.0,16.0,-4.0,-3.0,19.0,3.0,-3.0,-10.0
1705080370.2484581,-15.0,-24.0,-3.0,-2.0,-5.0,1.0,-4.0,-6.0
1705080370.2484581,37.0,48.0,16.0,2.0,7.0,0.0,2.0,12.0
1705080370.2484581,2.0,-12.0,2.0,8.0,1.0,6.0,1.0,-2.0
1705080370.2584162,-15.0,-14.0,-10.0,-6.0,-28.0,-16.0,0.0,-9.0
1705080370.2584162,-18.0,3.0,-8.0,-14.0,27.0,4.0,-14.0,-11.0
1705080370.2584162,18.0,10.0,5.0,6.0,-16.0,2.0,7.0,10.0
1705080370.2584162,-34.0,-34.0,-14.0,-6.0,1.0,-9.0,-3.0,-8.0
1705080370.2889867,-45.0,-38.0,-10.0,-1.0,13.0,17.0,2.0,-9.0
1705080370.2889867,25.0,10.0,19.0,7.0,-11.0,-8.0,0.0,7.0
1705080370.2899673,5.0,-9.0,-22.0,-14.0,-3.0,-2.0,-1.0,-4.0
1705080370.2899673,-9.0,19.0,14.0,12.0,9.0,8.0,-2.0,-2.0
1705080370.310709,4.0,33.0,-2.0,-2.0,-15.0,-17.0,-1.0,2.0
1705080370.310709,-8.0,-27.0,-5.0,1.0,12.0,2.0,-2.0,-4.0
1705080370.310709,-3.0,-18.0,1.0,0.0,13.0,9.0,3.0,5.0
1705080370.310709,26.0,-8.0,0.0,-5.0,-11.0,-8.0,-5.0,3.0
1705080370.321056,-24.0,0.0,-4.0,-6.0,12.0,1.0,0.0,-10.0
1705080370.321056,5.0,37.0,3.0,4.0,-21.0,-8.0,-8.0,-5.0
1705080370.321056,24.0,7.0,3.0,-3.0,2.0,4.0,3.0,5.0
1705080370.321056,-5.0,-16.0,-4.0,1.0,1.0,-2.0,2.0,-2.0
1705080370.3407218,-12.0,-10.0,1.0,-4.0,15.0,6.0,-12.0,-4.0
1705080370.3407218,8.0,-7.0,3.0,2.0,9.0,-6.0,2.0,3.0
1705080370.3407218,6.0,-6.0,-4.0,6.0,4.0,7.0,-1.0,-2.0
1705080370.3407218,-10.0,-24.0,-23.0,-12.0,-14.0,-6.0,-3.0,-5.0
1705080370.3707154,28.0,26.0,9.0,-1.0,-2.0,-1.0,0.0,7.0
1705080370.3707154,-26.0,-44.0,-5.0,1.0,2.0,-8.0,4.0,-1.0
1705080370.3707154,-27.0,-11.0,-2.0,-4.0,-24.0,-6.0,-7.0,-13.0
1705080370.3707154,25.0,61.0,7.0,4.0,29.0,11.0,-1.0,8.0
1705080370.390711,-16.0,-56.0,-9.0,0.0,2.0,-3.0,-5.0,-4.0
1705080370.390711,21.0,63.0,3.0,-4.0,-15.0,1.0,2.0,3.0
1705080370.390711,-20.0,-37.0,-15.0,-6.0,-10.0,-11.0,0.0,-4.0
1705080370.390711,-3.0,16.0,11.0,1.0,-1.0,6.0,0.0,1.0
1705080370.4010525,19.0,24.0,-2.0,-1.0,4.0,-10.0,0.0,1.0
1705080370.4010525,-13.0,-25.0,13.0,11.0,6.0,17.0,5.0,4.0
1705080370.4010525,-2.0,-25.0,-11.0,-5.0,12.0,2.0,-3.0,-1.0
1705080370.4010525,17.0,89.0,26.0,2.0,-12.0,-10.0,0.0,0.0
1705080370.4311438,-11.0,-85.0,-29.0,-7.0,8.0,1.0,-9.0,-5.0
1705080370.4311438,-10.0,28.0,-5.0,-4.0,-22.0,-10.0,1.0,-4.0
1705080370.4311438,10.0,21.0,10.0,5.0,4.0,1.0,2.0,2.0
1705080370.4311438,-4.0,-48.0,-27.0,-7.0,0.0,-3.0,-1.0,-3.0
1705080370.4511535,22.0,57.0,32.0,8.0,-2.0,2.0,3.0,6.0
1705080370.4511535,14.0,-7.0,0.0,0.0,1.0,-1.0,-1.0,2.0
1705080370.4511535,-19.0,-51.0,-4.0,-2.0,-13.0,-3.0,-1.0,-2.0
1705080370.4511535,2.0,2.0,0.0,1.0,25.0,-7.0,0.0,0.0
1705080370.46156,-11.0,-39.0,-6.0,0.0,13.0,2.0,-1.0,0.0
1705080370.46156,5.0,-4.0,-2.0,-3.0,-11.0,-1.0,-3.0,-3.0
1705080370.46156,9.0,18.0,10.0,8.0,6.0,4.0,3.0,7.0
1705080370.46156,-6.0,24.0,-12.0,-9.0,-5.0,6.0,0.0,-3.0
1705080370.4915154,-26.0,-63.0,-32.0,-6.0,-5.0,-6.0,0.0,-8.0
1705080370.4915154,22.0,29.0,27.0,-5.0,-5.0,-8.0,-6.0,-4.0
1705080370.4915154,-51.0,-37.0,-14.0,3.0,1.0,1.0,-1.0,-2.0
1705080370.4915154,-4.0,-23.0,1.0,-4.0,-11.0,-8.0,-2.0,-3.0
1705080370.511154,13.0,39.0,10.0,6.0,2.0,3.0,1.0,2.0
1705080370.511154,-9.0,-28.0,-29.0,-9.0,-5.0,-5.0,-6.0,-5.0
1705080370.5211587,11.0,37.0,19.0,2.0,-8.0,0.0,2.0,5.0
1705080370.5211587,0.0,43.0,31.0,6.0,-2.0,-2.0,-2.0,-3.0
1705080370.5211587,16.0,41.0,28.0,14.0,11.0,2.0,1.0,6.0
1705080370.5211587,-16.0,-47.0,-65.0,-29.0,-15.0,-3.0,-9.0,-14.0
1705080370.5211587,47.0,82.0,57.0,25.0,16.0,6.0,7.0,11.0
1705080370.5211587,19.0,-71.0,-75.0,-14.0,-4.0,3.0,8.0,8.0
1705080370.561156,-77.0,-81.0,-51.0,-15.0,-19.0,-15.0,-12.0,-20.0
1705080370.561156,15.0,66.0,53.0,2.0,-3.0,8.0,-4.0,-2.0
1705080370.561156,15.0,-23.0,16.0,2.0,20.0,6.0,4.0,3.0
1705080370.561156,-10.0,15.0,4.0,13.0,-7.0,-4.0,-2.0,-1.0
1705080370.561156,9.0,15.0,5.0,-13.0,-4.0,-1.0,-2.0,-5.0
1705080370.561156,3.0,-21.0,-9.0,5.0,-8.0,-4.0,5.0,6.0
1705080370.57119,-9.0,14.0,-18.0,2.0,3.0,-1.0,-4.0,-5.0
1705080370.57119,3.0,-16.0,13.0,-1.0,-13.0,2.0,1.0,6.0
1705080370.5814426,30.0,38.0,19.0,1.0,8.0,5.0,3.0,-1.0
1705080370.5814426,-2.0,20.0,24.0,10.0,1.0,-2.0,3.0,13.0
1705080370.5814426,-9.0,-6.0,-34.0,-20.0,-8.0,-8.0,-15.0,-15.0
1705080370.5814426,-1.0,-10.0,22.0,8.0,-3.0,-4.0,-2.0,-1.0
1705080370.6111557,-7.0,18.0,21.0,7.0,5.0,3.0,-3.0,3.0
1705080370.6111557,-13.0,-9.0,5.0,4.0,4.0,-4.0,5.0,-1.0
1705080370.6111557,-23.0,-49.0,-35.0,-17.0,-6.0,-2.0,4.0,0.0
1705080370.6111557,3.0,29.0,22.0,12.0,3.0,2.0,-1.0,-1.0
1705080370.6215074,6.0,4.0,16.0,-4.0,-15.0,-2.0,1.0,3.0
1705080370.6215074,9.0,7.0,-5.0,13.0,26.0,3.0,2.0,-1.0
1705080370.631548,-3.0,2.0,-1.0,-2.0,-1.0,-5.0,-4.0,-4.0
1705080370.631548,-5.0,9.0,0.0,-9.0,-8.0,-6.0,-1.0,-4.0
1705080370.641554,18.0,10.0,30.0,4.0,3.0,3.0,3.0,3.0
1705080370.641554,1.0,-20.0,-21.0,-2.0,-6.0,-2.0,-4.0,0.0
1705080370.641554,2.0,6.0,-4.0,-6.0,1.0,-5.0,-7.0,-5.0
1705080370.641554,1.0,-8.0,1.0,-2.0,-3.0,3.0,-2.0,-1.0
1705080370.6711586,-1.0,7.0,6.0,12.0,13.0,-3.0,-3.0,-2.0
1705080370.6711586,9.0,-4.0,-15.0,-8.0,-11.0,-4.0,-2.0,-8.0
1705080370.6711586,28.0,12.0,2.0,-6.0,-2.0,-2.0,2.0,-2.0
1705080370.6711586,8.0,-12.0,15.0,6.0,5.0,1.0,3.0,3.0
1705080370.6811874,1.0,19.0,10.0,-4.0,-6.0,0.0,0.0,3.0
1705080370.6811874,0.0,-7.0,-21.0,0.0,-2.0,0.0,-4.0,-4.0
1705080370.6915414,-14.0,-4.0,13.0,4.0,3.0,-3.0,0.0,0.0
1705080370.6915414,-7.0,-7.0,-12.0,-10.0,-2.0,-4.0,-4.0,-7.0
1705080370.701556,33.0,14.0,9.0,4.0,4.0,7.0,4.0,10.0
1705080370.701556,-19.0,-11.0,2.0,7.0,7.0,-2.0,6.0,6.0
1705080370.701556,-7.0,4.0,5.0,0.0,0.0,8.0,3.0,-3.0
1705080370.701556,0.0,-12.0,-33.0,-14.0,-2.0,-6.0,-11.0,-6.0
1705080370.7311556,0.0,9.0,-5.0,-6.0,-7.0,3.0,-3.0,0.0
1705080370.7311556,-23.0,3.0,31.0,4.0,-3.0,-7.0,1.0,5.0
1705080370.7311556,-13.0,-20.0,-21.0,-1.0,-2.0,-5.0,-5.0,-5.0
1705080370.7311556,26.0,4.0,10.0,1.0,1.0,7.0,6.0,7.0
1705080370.741209,-64.0,-19.0,-25.0,-9.0,0.0,-5.0,2.0,-12.0
1705080370.741209,16.0,-2.0,1.0,-2.0,1.0,0.0,-5.0,-2.0
1705080370.7514937,-20.0,-5.0,-37.0,-8.0,-6.0,-5.0,-6.0,-4.0
1705080370.7514937,-14.0,-14.0,9.0,-1.0,-4.0,1.0,-3.0,-5.0
1705080370.7615607,18.0,4.0,-4.0,2.0,-2.0,1.0,1.0,2.0
1705080370.7615607,-3.0,-13.0,-15.0,-8.0,-4.0,3.0,5.0,2.0
1705080370.7615607,1.0,9.0,15.0,1.0,5.0,4.0,7.0,8.0
1705080370.7615607,19.0,-6.0,0.0,-2.0,-2.0,1.0,11.0,22.0
1705080370.791576,-2.0,4.0,-6.0,5.0,1.0,-8.0,-26.0,-11.0
1705080370.791576,10.0,-1.0,-7.0,-5.0,-8.0,-4.0,-15.0,-53.0
1705080370.791576,10.0,0.0,9.0,-1.0,-4.0,3.0,-2.0,2.0
1705080370.791576,-19.0,1.0,-5.0,1.0,-3.0,-10.0,3.0,-5.0
1705080370.814312,18.0,3.0,-2.0,-1.0,0.0,3.0,10.0,17.0
1705080370.814312,-20.0,-7.0,1.0,0.0,2.0,1.0,-2.0,8.0
1705080370.814312,9.0,12.0,-1.0,-1.0,-14.0,-8.0,-1.0,-8.0
1705080370.814312,-3.0,-5.0,-9.0,-9.0,5.0,1.0,-1.0,1.0
1705080370.8293505,-1.0,0.0,-6.0,-2.0,4.0,14.0,15.0,27.0
1705080370.8293505,30.0,2.0,0.0,-3.0,-2.0,-2.0,-2.0,26.0
1705080370.8298025,-44.0,2.0,5.0,1.0,-9.0,-13.0,-19.0,-67.0
1705080370.8298025,-16.0,-2.0,-1.0,-10.0,-5.0,-7.0,-8.0,-18.0
1705080370.8433266,-32.0,-15.0,-7.0,3.0,-3.0,-13.0,-6.0,-12.0
1705080370.8433266,25.0,6.0,3.0,0.0,5.0,11.0,19.0,20.0
1705080370.8533266,39.0,8.0,11.0,1.0,7.0,18.0,17.0,34.0
1705080370.8533266,-14.0,-1.0,-6.0,4.0,2.0,8.0,-16.0,6.0
1705080370.8736327,-8.0,-3.0,-1.0,-4.0,-15.0,-58.0,-28.0,-35.0
1705080370.8736327,-6.0,-2.0,-7.0,-1.0,-2.0,5.0,6.0,11.0
1705080370.8736327,-23.0,-5.0,1.0,5.0,3.0,-8.0,0.0,2.0
1705080370.8736327,20.0,3.0,1.0,2.0,-2.0,9.0,7.0,9.0
1705080370.883618,17.0,3.0,-4.0,3.0,9.0,17.0,15.0,25.0
1705080370.883618,7.0,16.0,6.0,2.0,-3.0,1.0,0.0,-18.0
1705080370.9133265,-23.0,-10.0,-1.0,-8.0,-7.0,-23.0,-14.0,-12.0
1705080370.9133265,-11.0,-31.0,-10.0,-2.0,-7.0,-15.0,3.0,5.0
1705080370.9133265,0.0,7.0,-5.0,-7.0,-5.0,15.0,9.0,43.0
1705080370.9133265,13.0,6.0,-1.0,-2.0,1.0,6.0,4.0,-3.0
1705080370.9133265,23.0,19.0,11.0,7.0,10.0,10.0,-3.0,-2.0
1705080370.9133265,-12.0,21.0,0.0,-2.0,-11.0,-17.0,-26.0,-80.0
1705080370.9337697,-3.0,-14.0,-10.0,-8.0,2.0,1.0,-6.0,-14.0
1705080370.9337697,-3.0,-9.0,-1.0,0.0,2.0,1.0,17.0,60.0
1705080370.9337697,20.0,3.0,-3.0,0.0,1.0,1.0,-6.0,-14.0
1705080370.9337697,-3.0,4.0,9.0,9.0,6.0,3.0,13.0,44.0
1705080370.943739,6.0,-11.0,-10.0,-8.0,-9.0,0.0,-15.0,-41.0
1705080370.943739,-30.0,-20.0,2.0,-2.0,-6.0,-13.0,-17.0,-32.0
1705080370.9533296,9.0,14.0,-7.0,-2.0,-5.0,-3.0,10.0,33.0
1705080370.9533296,28.0,10.0,1.0,-2.0,7.0,-23.0,7.0,2.0
1705080370.9633653,-40.0,-25.0,-8.0,3.0,11.0,17.0,16.0,16.0
1705080370.9633653,10.0,5.0,4.0,-1.0,2.0,14.0,3.0,20.0
1705080370.973328,-13.0,-18.0,0.0,-1.0,-8.0,13.0,-18.0,-53.0
1705080370.973328,-19.0,19.0,-3.0,-2.0,3.0,-34.0,-6.0,-11.0
1705080370.9936137,44.0,21.0,6.0,2.0,-3.0,30.0,29.0,59.0
1705080370.9936137,-5.0,-6.0,-5.0,-2.0,2.0,45.0,-8.0,22.0
1705080370.9936137,-43.0,-13.0,-1.0,-7.0,-17.0,-88.0,-51.0,-69.0
1705080370.9936137,4.0,14.0,8.0,4.0,0.0,28.0,-15.0,-13.0
1705080371.0036564,-11.0,-22.0,-17.0,-9.0,-11.0,-51.0,-4.0,0.0
1705080371.0036564,-4.0,-2.0,2.0,-2.0,4.0,65.0,12.0,28.0
1705080371.0133276,16.0,0.0,0.0,0.0,14.0,-5.0,16.0,21.0
1705080371.0133276,-5.0,-7.0,1.0,1.0,0.0,-13.0,-1.0,6.0
1705080371.0236669,8.0,13.0,5.0,5.0,2.0,-10.0,-8.0,-33.0
1705080371.0236669,1.0,3.0,-4.0,-1.0,0.0,-10.0,5.0,6.0
1705080371.0333283,9.0,-4.0,-2.0,-1.0,2.0,2.0,12.0,47.0
1705080371.0333283,1.0,-14.0,-2.0,2.0,6.0,27.0,5.0,-43.0
1705080371.0533378,-18.0,-1.0,-4.0,-7.0,-11.0,22.0,0.0,16.0
1705080371.0533378,-13.0,-3.0,-5.0,-8.0,-3.0,-75.0,-31.0,-54.0
1705080371.0533378,1.0,2.0,-2.0,-2.0,-9.0,11.0,2.0,25.0
1705080371.0533378,-5.0,-5.0,-1.0,0.0,-2.0,15.0,9.0,24.0
1705080371.0737107,5.0,5.0,-3.0,-1.0,6.0,21.0,-5.0,-9.0
1705080371.0737107,6.0,1.0,-1.0,3.0,0.0,12.0,1.0,-7.0
1705080371.0737107,-21.0,-9.0,-2.0,-1.0,2.0,9.0,5.0,-25.0
1705080371.0737107,18.0,-2.0,-7.0,-6.0,-1.0,19.0,15.0,49.0
1705080371.0837033,-19.0,1.0,4.0,4.0,-6.0,-23.0,-20.0,-54.0
1705080371.0837033,3.0,6.0,1.0,-2.0,-6.0,-17.0,-7.0,-10.0
1705080371.0933292,13.0,1.0,-1.0,0.0,4.0,20.0,12.0,33.0
1705080371.0933292,-5.0,-7.0,1.0,1.0,1.0,-6.0,-2.0,-17.0
1705080371.1133294,-9.0,2.0,1.0,0.0,0.0,6.0,-2.0,7.0
1705080371.1133294,7.0,0.0,2.0,1.0,-2.0,-13.0,-2.0,-11.0
1705080371.1133294,-3.0,0.0,-1.0,2.0,7.0,17.0,2.0,1.0
1705080371.1133294,-33.0,-10.0,-8.0,-4.0,-2.0,0.0,-8.0,-4.0
1705080371.1333268,26.0,9.0,-1.0,-2.0,1.0,-5.0,4.0,9.0
1705080371.1333268,-13.0,-6.0,-4.0,-3.0,-4.0,-4.0,-5.0,-20.0
1705080371.1333268,-31.0,-17.0,-6.0,-6.0,-5.0,2.0,5.0,26.0
1705080371.1333268,4.0,3.0,3.0,0.0,-7.0,-19.0,-17.0,6.0
1705080371.1537728,-12.0,-2.0,1.0,-5.0,-4.0,3.0,-8.0,-81.0
1705080371.1537728,16.0,1.0,-1.0,-2.0,-3.0,-27.0,7.0,16.0
1705080371.1537728,-32.0,-7.0,-6.0,-2.0,2.0,11.0,-1.0,-8.0
1705080371.1537728,-42.0,-2.0,3.0,4.0,5.0,12.0,4.0,1.0
1705080371.1733296,16.0,4.0,-1.0,0.0,1.0,-13.0,-8.0,12.0
1705080371.1733296,6.0,7.0,0.0,-1.0,-5.0,-8.0,-4.0,-3.0
1705080371.1733296,7.0,4.0,1.0,-1.0,1.0,1.0,-3.0,-8.0
1705080371.1733296,-18.0,-7.0,-3.0,-4.0,-3.0,5.0,5.0,4.0
1705080371.1833298,-21.0,-14.0,-3.0,-2.0,1.0,4.0,2.0,9.0
1705080371.1833298,-41.0,-8.0,-3.0,0.0,-3.0,-5.0,-4.0,-28.0
1705080371.1935818,23.0,5.0,1.0,1.0,1.0,4.0,9.0,23.0
1705080371.1935818,25.0,4.0,-1.0,0.0,0.0,-1.0,-15.0,-22.0
1705080371.2133317,8.0,7.0,0.0,-2.0,0.0,3.0,-1.0,-1.0
1705080371.2133317,-25.0,-9.0,-3.0,-1.0,-3.0,-4.0,-3.0,-2.0
1705080371.2133317,38.0,8.0,3.0,2.0,0.0,9.0,7.0,14.0
1705080371.2133317,-20.0,-12.0,-4.0,-3.0,-7.0,12.0,-5.0,8.0
1705080371.2433298,-2.0,2.0,-1.0,3.0,6.0,23.0,1.0,-43.0
1705080371.2433298,-18.0,-8.0,-4.0,-6.0,-6.0,-13.0,-5.0,-9.0
1705080371.2433298,24.0,9.0,-1.0,-3.0,-4.0,-9.0,-10.0,-13.0
1705080371.2433298,12.0,0.0,2.0,-1.0,-3.0,0.0,2.0,2.0
1705080371.2433298,36.0,7.0,-4.0,-2.0,-2.0,-5.0,3.0,45.0
1705080371.2433298,28.0,12.0,6.0,5.0,5.0,11.0,7.0,16.0
1705080371.2533607,-4.0,-31.0,-13.0,-5.0,-4.0,3.0,-4.0,-22.0
1705080371.2533607,15.0,9.0,0.0,-2.0,0.0,-7.0,6.0,29.0
1705080371.2637198,-39.0,-9.0,-1.0,-1.0,1.0,5.0,1.0,10.0
1705080371.2637198,49.0,1.0,2.0,4.0,11.0,-1.0,17.0,48.0
1705080371.2733288,8.0,14.0,5.0,-1.0,1.0,7.0,3.0,-49.0
1705080371.2733288,-26.0,-15.0,-5.0,-6.0,-7.0,-10.0,-6.0,-18.0
1705080371.2933595,36.0,18.0,5.0,2.0,-1.0,-50.0,-8.0,22.0
1705080371.2933595,-44.0,-6.0,-4.0,-3.0,-7.0,1.0,-5.0,-19.0
1705080371.2933595,-1.0,-2.0,-1.0,2.0,2.0,3.0,4.0,42.0
1705080371.2933595,44.0,30.0,13.0,10.0,9.0,9.0,6.0,-1.0
1705080371.3037326,-24.0,-37.0,-8.0,-4.0,-5.0,14.0,7.0,-27.0
1705080371.3037326,-39.0,-16.0,-9.0,-4.0,-2.0,-2.0,-30.0,-16.0
1705080371.3136446,5.0,7.0,4.0,0.0,-5.0,-15.0,9.0,17.0
1705080371.3136446,-60.0,-10.0,-7.0,-6.0,-3.0,-4.0,-6.0,-71.0
1705080371.3237073,29.0,21.0,3.0,-2.0,-5.0,-3.0,-1.0,26.0
1705080371.3237073,-2.0,1.0,4.0,3.0,0.0,0.0,4.0,-5.0
1705080371.3333282,-5.0,2.0,0.0,0.0,-3.0,1.0,-4.0,10.0
1705080371.3333282,11.0,5.0,-1.0,0.0,0.0,0.0,-1.0,8.0
1705080371.3541713,-35.0,-13.0,-6.0,-3.0,-2.0,-2.0,2.0,5.0
1705080371.3541713,9.0,0.0,1.0,3.0,2.0,17.0,-4.0,-25.0
1705080371.3552113,-24.0,-1.0,-3.0,-3.0,-4.0,-13.0,-9.0,-9.0
1705080371.3552113,17.0,-5.0,-2.0,-1.0,1.0,-5.0,4.0,21.0
1705080371.367466,19.0,1.0,-3.0,-5.0,-4.0,-2.0,-2.0,-3.0
1705080371.367466,-6.0,-1.0,-1.0,0.0,0.0,5.0,-4.0,-17.0
1705080371.376471,36.0,7.0,1.0,4.0,1.0,-3.0,-3.0,-3.0
1705080371.376471,-5.0,-7.0,-1.0,0.0,1.0,-4.0,-3.0,-1.0
1705080371.3964703,-29.0,-3.0,-1.0,-1.0,2.0,5.0,-2.0,0.0
1705080371.3964703,33.0,4.0,-4.0,-3.0,-11.0,0.0,1.0,33.0
1705080371.3964703,-50.0,-4.0,3.0,3.0,1.0,4.0,6.0,-22.0
1705080371.3964703,18.0,-2.0,-3.0,-4.0,4.0,-14.0,-9.0,26.0
1705080371.4068615,26.0,7.0,0.0,1.0,3.0,11.0,7.0,27.0
1705080371.4068615,-18.0,-1.0,6.0,1.0,-9.0,-21.0,-5.0,-57.0
1705080371.4068615,-14.0,2.0,-1.0,-5.0,-6.0,12.0,-2.0,2.0
1705080371.4068615,16.0,-6.0,-2.0,-1.0,-6.0,4.0,0.0,12.0
1705080371.4269657,-10.0,15.0,7.0,1.0,1.0,-4.0,4.0,14.0
1705080371.4269657,24.0,-7.0,-2.0,2.0,6.0,1.0,-3.0,7.0
1705080371.4369798,-18.0,-10.0,-6.0,-3.0,2.0,2.0,-1.0,-16.0
1705080371.4369798,10.0,2.0,0.0,0.0,-1.0,-1.0,0.0,-5.0
1705080371.4569755,-5.0,4.0,1.0,1.0,0.0,4.0,-1.0,-7.0
1705080371.4569755,18.0,5.0,-1.0,-3.0,5.0,1.0,1.0,0.0
1705080371.4569755,-6.0,-5.0,-1.0,-2.0,-4.0,-4.0,1.0,6.0
1705080371.4569755,-4.0,-3.0,0.0,-2.0,-1.0,-4.0,-1.0,3.0
1705080371.4671946,7.0,-4.0,0.0,1.0,0.0,-3.0,-2.0,-9.0
1705080371.4671946,-5.0,2.0,-3.0,-4.0,1.0,0.0,2.0,3.0
1705080371.4671946,8.0,-3.0,-2.0,-1.0,1.0,-6.0,-4.0,8.0
1705080371.4671946,-9.0,-1.0,0.0,1.0,1.0,2.0,5.0,5.0
1705080371.4869804,20.0,1.0,-2.0,1.0,2.0,-17.0,-1.0,-16.0
1705080371.4869804,-14.0,-3.0,-3.0,-2.0,-5.0,-7.0,-3.0,1.0
1705080371.4969897,5.0,2.0,0.0,1.0,-1.0,-1.0,0.0,4.0
1705080371.4969897,6.0,-2.0,-6.0,-5.0,-1.0,0.0,0.0,-7.0
1705080371.5269754,12.0,4.0,3.0,-4.0,-1.0,2.0,-4.0,-5.0
1705080371.5269754,-44.0,-3.0,16.0,6.0,3.0,-2.0,-2.0,1.0
1705080371.5269754,0.0,-9.0,-12.0,1.0,2.0,-5.0,-3.0,8.0
1705080371.5269754,-15.0,-11.0,-8.0,-3.0,-2.0,2.0,3.0,-1.0
1705080371.5269754,13.0,10.0,-12.0,-6.0,-5.0,-3.0,-10.0,-23.0
1705080371.5269754,-16.0,1.0,7.0,-3.0,-2.0,-3.0,1.0,3.0
1705080371.5269754,22.0,-1.0,19.0,12.0,6.0,4.0,-4.0,-6.0
1705080371.5269754,-4.0,-1.0,-2.0,0.0,-4.0,-1.0,-2.0,1.0
1705080371.5472524,-12.0,-7.0,-6.0,-1.0,0.0,2.0,1.0,3.0
1705080371.5472524,14.0,-2.0,-27.0,-17.0,-9.0,-3.0,4.0,5.0
1705080371.5569816,-7.0,11.0,-6.0,-21.0,-11.0,-9.0,-9.0,-7.0
1705080371.5569816,5.0,-13.0,16.0,26.0,14.0,7.0,4.0,2.0
1705080371.5869756,-6.0,1.0,4.0,9.0,7.0,6.0,1.0,3.0
1705080371.5869756,18.0,1.0,1.0,4.0,4.0,2.0,0.0,0.0
1705080371.5869756,-5.0,-5.0,-12.0,-7.0,-2.0,-2.0,0.0,8.0
1705080371.5869756,8.0,1.0,-10.0,-18.0,-12.0,-4.0,-3.0,-3.0
1705080371.5869756,21.0,3.0,2.0,-5.0,-8.0,-1.0,-3.0,3.0
1705080371.5869756,-31.0,10.0,-7.0,-2.0,1.0,0.0,-2.0,-6.0
1705080371.5869756,17.0,-24.0,3.0,3.0,5.0,4.0,3.0,0.0
1705080371.5869756,-27.0,3.0,1.0,-2.0,-2.0,-1.0,0.0,-5.0
1705080371.6069815,-45.0,-11.0,3.0,2.0,1.0,1.0,-3.0,-7.0
1705080371.6069815,25.0,4.0,-6.0,-5.0,-7.0,-7.0,0.0,9.0
1705080371.626976,-7.0,3.0,-6.0,-6.0,-4.0,-5.0,-4.0,0.0
1705080371.626976,1.0,-5.0,4.0,-3.0,0.0,0.0,-1.0,-1.0
1705080371.626976,5.0,-5.0,1.0,-3.0,-3.0,-3.0,-2.0,5.0
1705080371.626976,-1.0,19.0,11.0,-7.0,1.0,0.0,-1.0,0.0
1705080371.6371636,7.0,-3.0,23.0,29.0,12.0,8.0,7.0,5.0
1705080371.6371636,-19.0,-22.0,-25.0,1.0,1.0,-1.0,-2.0,-2.0
1705080371.6472213,-2.0,-4.0,-5.0,-8.0,-6.0,-4.0,-5.0,-10.0
1705080371.6472213,30.0,0.0,-10.0,-9.0,-7.0,-5.0,-2.0,3.0
1705080371.6472213,-22.0,8.0,-1.0,-3.0,0.0,0.0,0.0,-5.0
1705080371.6472213,86.0,26.0,14.0,2.0,1.0,4.0,3.0,12.0
1705080371.6669836,-75.0,-26.0,-8.0,1.0,0.0,-2.0,-3.0,-10.0
1705080371.6669836,-5.0,-9.0,-3.0,-3.0,-3.0,1.0,2.0,-1.0
1705080371.6869812,25.0,7.0,-4.0,-8.0,-7.0,-2.0,-1.0,5.0
1705080371.6869812,0.0,4.0,0.0,-3.0,0.0,-4.0,-1.0,-4.0
1705080371.6869812,10.0,12.0,24.0,12.0,5.0,0.0,-1.0,0.0
1705080371.6869812,-9.0,-16.0,-11.0,0.0,1.0,-1.0,-1.0,-3.0
1705080371.6970117,-9.0,-2.0,8.0,1.0,1.0,0.0,-2.0,1.0
1705080371.6970117,29.0,10.0,0.0,7.0,5.0,3.0,2.0,4.0
1705080371.7072425,-63.0,-16.0,-12.0,-5.0,-6.0,-5.0,-4.0,-12.0
1705080371.7072425,7.0,-4.0,-8.0,-12.0,-10.0,-5.0,-5.0,1.0
1705080371.7072425,10.0,9.0,-3.0,2.0,10.0,-1.0,-1.0,-1.0
1705080371.7072425,-9.0,-2.0,3.0,-1.0,-2.0,0.0,-1.0,-8.0
1705080371.736979,32.0,7.0,1.0,2.0,3.0,2.0,2.0,7.0
1705080371.736979,2.0,1.0,6.0,7.0,1.0,3.0,1.0,-1.0
1705080371.736979,-16.0,-6.0,-16.0,-16.0,-10.0,-5.0,-4.0,-4.0
1705080371.736979,-19.0,-7.0,-2.0,-8.0,-8.0,-6.0,-7.0,-9.0
1705080371.7472117,21.0,1.0,-5.0,-6.0,-2.0,0.0,0.0,5.0
1705080371.7472117,3.0,0.0,6.0,7.0,4.0,3.0,1.0,2.0
1705080371.7769804,8.0,4.0,-3.0,2.0,-1.0,1.0,-1.0,-1.0
1705080371.7769804,-1.0,3.0,7.0,3.0,1.0,0.0,1.0,5.0
1705080371.7769804,32.0,5.0,-7.0,-3.0,-4.0,-1.0,0.0,4.0
1705080371.7769804,-42.0,-7.0,10.0,3.0,2.0,1.0,-1.0,-4.0
1705080371.7769804,5.0,1.0,-11.0,-4.0,-2.0,-3.0,3.0,6.0
1705080371.7769804,-4.0,-3.0,-3.0,-5.0,-4.0,-2.0,-5.0,-9.0
1705080371.79699,4.0,-1.0,-6.0,-3.0,-2.0,-1.0,-1.0,-2.0
1705080371.79699,6.0,2.0,0.0,2.0,2.0,1.0,-1.0,-10.0
1705080371.79699,-2.0,4.0,6.0,3.0,0.0,1.0,0.0,4.0
1705080371.79699,-19.0,-4.0,-8.0,-5.0,-5.0,-3.0,-3.0,-3.0
1705080371.8072891,-4.0,0.0,2.0,0.0,1.0,0.0,1.0,-2.0
1705080371.8072891,9.0,-1.0,2.0,2.0,2.0,0.0,0.0,1.0
1705080371.8173282,-5.0,-3.0,-8.0,-6.0,-9.0,-1.0,-2.0,-4.0
1705080371.8173282,-3.0,4.0,0.0,-8.0,-4.0,-2.0,0.0,2.0
1705080371.8273525,-13.0,-3.0,9.0,19.0,12.0,6.0,3.0,-2.0
1705080371.8273525,-7.0,-4.0,-7.0,-5.0,-3.0,-2.0,-2.0,0.0
1705080371.836978,27.0,-1.0,-6.0,-7.0,-6.0,-3.0,-1.0,4.0
1705080371.836978,-43.0,-10.0,1.0,2.0,0.0,-3.0,-4.0,-12.0
1705080371.856981,11.0,2.0,-6.0,-9.0,-7.0,-2.0,-1.0,-2.0
1705080371.856981,-1.0,0.0,4.0,6.0,3.0,1.0,1.0,-1.0
1705080371.856981,0.0,0.0,3.0,2.0,1.0,0.0,-1.0,-1.0
1705080371.856981,13.0,4.0,-3.0,-5.0,-4.0,-3.0,0.0,3.0
1705080371.8715405,2.0,-1.0,-6.0,-4.0,-4.0,0.0,-2.0,-1.0
1705080371.8715405,-6.0,-2.0,1.0,3.0,1.0,2.0,-1.0,-2.0
1705080371.8785422,6.0,3.0,7.0,4.0,5.0,0.0,0.0,-1.0
1705080371.8785422,-8.0,-3.0,-3.0,0.0,-2.0,-1.0,-3.0,1.0
1705080371.8926578,0.0,-1.0,-1.0,-5.0,-3.0,-3.0,-6.0,-4.0
1705080371.8926578,10.0,-2.0,-11.0,-7.0,-4.0,-1.0,5.0,5.0
1705080371.9026582,-11.0,-12.0,-1.0,-5.0,-2.0,-2.0,-3.0,-3.0
1705080371.9026582,-2.0,-4.0,0.0,0.0,0.0,0.0,-2.0,0.0
1705080371.9126582,18.0,35.0,19.0,7.0,3.0,0.0,0.0,5.0
1705080371.9126582,-18.0,-43.0,-26.0,-8.0,-4.0,-2.0,-5.0,0.0
1705080371.9126582,-18.0,-3.0,-9.0,-9.0,-6.0,-4.0,-3.0,-7.0
1705080371.9126582,-13.0,-26.0,-1.0,8.0,6.0,2.0,2.0,-5.0
1705080371.9229457,15.0,14.0,9.0,5.0,2.0,1.0,1.0,3.0
1705080371.9229457,8.0,13.0,11.0,6.0,4.0,0.0,0.0,-1.0
1705080371.9329536,-1.0,-5.0,-4.0,-1.0,-3.0,-3.0,0.0,-1.0
1705080371.9329536,13.0,9.0,-3.0,-12.0,-9.0,-5.0,-2.0,2.0
1705080371.9528117,-4.0,-9.0,2.0,2.0,1.0,1.0,-3.0,2.0
1705080371.9528117,-5.0,40.0,-1.0,2.0,1.0,2.0,12.0,-8.0
1705080371.9528117,-7.0,-4.0,-8.0,-5.0,-8.0,-9.0,-21.0,-15.0
1705080371.9528117,16.0,20.0,11.0,1.0,2.0,2.0,4.0,6.0
1705080371.9726565,15.0,4.0,5.0,5.0,2.0,2.0,-2.0,4.0
1705080371.9726565,10.0,-7.0,-9.0,-10.0,-5.0,-5.0,-6.0,5.0
1705080371.9726565,-42.0,4.0,9.0,5.0,4.0,1.0,4.0,-5.0
1705080371.9726565,-22.0,-31.0,-23.0,-11.0,-5.0,-8.0,-10.0,-17.0
1705080371.9828088,5.0,-21.0,9.0,0.0,-2.0,-1.0,-8.0,2.0
1705080371.9828088,33.0,24.0,-9.0,-6.0,-3.0,-1.0,3.0,6.0
1705080371.9928346,4.0,-32.0,16.0,9.0,3.0,5.0,14.0,13.0
1705080371.9928346,-6.0,74.0,29.0,-1.0,-3.0,-1.0,-2.0,4.0
1705080372.013053,-57.0,-81.0,-94.0,-26.0,-8.0,-4.0,-4.0,-19.0
1705080372.013053,-18.0,22.0,13.0,12.0,6.0,4.0,-7.0,-6.0
1705080372.0329452,23.0,57.0,13.0,3.0,2.0,1.0,-2.0,1.0
1705080372.0329452,14.0,-1.0,11.0,6.0,2.0,3.0,7.0,12.0
1705080372.0329452,14.0,17.0,23.0,4.0,3.0,0.0,5.0,7.0
1705080372.0329452,11.0,-3.0,1.0,-13.0,-9.0,-5.0,-3.0,-1.0
1705080372.0329452,-7.0,-24.0,-18.0,3.0,3.0,-2.0,-5.0,-10.0
1705080372.0329452,16.0,6.0,-4.0,-1.0,-5.0,-2.0,0.0,-3.0
1705080372.0430367,6.0,1.0,8.0,2.0,1.0,-2.0,0.0,4.0
1705080372.0430367,-29.0,-38.0,5.0,9.0,3.0,0.0,1.0,3.0
1705080372.0532572,-19.0,12.0,18.0,-2.0,1.0,0.0,3.0,-1.0
1705080372.0532572,-3.0,6.0,-11.0,-5.0,-5.0,-4.0,-8.0,-6.0
1705080372.072974,14.0,19.0,-6.0,-16.0,-9.0,-8.0,-1.0,-3.0
1705080372.072974,22.0,7.0,-2.0,-7.0,-3.0,-2.0,1.0,8.0
1705080372.072974,-5.0,-5.0,27.0,9.0,4.0,4.0,1.0,3.0
1705080372.072974,-4.0,-10.0,-15.0,6.0,7.0,6.0,8.0,0.0
1705080372.0933325,-6.0,16.0,18.0,9.0,1.0,4.0,11.0,-1.0
1705080372.0933325,-13.0,-24.0,-24.0,-4.0,-2.0,-6.0,-14.0,-1.0
1705080372.0933325,-1.0,-9.0,-11.0,-10.0,-7.0,-15.0,-6.0,-3.0
1705080372.0933325,-6.0,19.0,14.0,0.0,10.0,40.0,31.0,11.0
1705080372.1029458,9.0,12.0,18.0,8.0,6.0,16.0,-14.0,-18.0
1705080372.1029458,-3.0,-25.0,4.0,-15.0,-27.0,-70.0,-39.0,-14.0
1705080372.1132612,-6.0,22.0,-15.0,-1.0,-8.0,-46.0,-33.0,-15.0
1705080372.1132612,9.0,-11.0,-7.0,5.0,-1.0,-16.0,-3.0,3.0
1705080372.1329749,-7.0,-11.0,-5.0,-8.0,3.0,21.0,24.0,20.0
1705080372.1329749,9.0,11.0,8.0,5.0,7.0,35.0,16.0,-7.0
1705080372.1329749,6.0,15.0,4.0,-5.0,0.0,16.0,3.0,-10.0
1705080372.1329749,11.0,3.0,3.0,0.0,1.0,0.0,-1.0,6.0
1705080372.1532912,-42.0,-9.0,-9.0,-6.0,0.0,-5.0,0.0,-5.0
1705080372.1532912,2.0,11.0,17.0,10.0,7.0,6.0,4.0,6.0
1705080372.1532912,9.0,-14.0,-19.0,-7.0,-3.0,4.0,8.0,15.0
1705080372.1532912,-3.0,-16.0,-15.0,-17.0,-5.0,-4.0,-6.0,-7.0
1705080372.1632464,-3.0,-3.0,13.0,10.0,-6.0,-15.0,-14.0,-18.0
