1705081107.2071483,-1.0,0.0,8.0,9.0,8.0,2.0,1.0,-2.0
1705081107.2071483,-1.0,0.0,-2.0,8.0,5.0,6.0,1.0,2.0
1705081107.2071483,3.0,-1.0,2.0,-3.0,-3.0,-2.0,-2.0,0.0
1705081107.2071483,5.0,6.0,-1.0,14.0,7.0,0.0,3.0,3.0
1705081107.2269723,1.0,-9.0,-11.0,-12.0,-6.0,-4.0,-5.0,2.0
1705081107.2269723,0.0,0.0,-5.0,-12.0,-4.0,-2.0,-1.0,-2.0
1705081107.2269723,2.0,7.0,14.0,8.0,9.0,11.0,5.0,3.0
1705081107.2269723,-5.0,2.0,-2.0,-5.0,-7.0,0.0,1.0,-3.0
1705081107.2470126,-3.0,-4.0,-10.0,-12.0,9.0,0.0,-2.0,-4.0
1705081107.2470126,-2.0,-3.0,8.0,26.0,23.0,16.0,1.0,2.0
1705081107.2470126,-3.0,-4.0,-11.0,-10.0,-8.0,-6.0,-1.0,-1.0
1705081107.2470126,-5.0,-8.0,-4.0,-6.0,-5.0,1.0,-1.0,-4.0
1705081107.2869346,-1.0,-2.0,0.0,2.0,5.0,2.0,0.0,1.0
1705081107.2869346,0.0,1.0,2.0,-3.0,-5.0,-3.0,-2.0,-2.0
1705081107.2869346,-2.0,3.0,-1.0,5.0,1.0,-2.0,0.0,0.0
1705081107.2869346,-11.0,-6.0,-4.0,-4.0,-8.0,-2.0,-2.0,-7.0
1705081107.2869346,0.0,-3.0,-5.0,-7.0,-8.0,-6.0,-1.0,0.0
1705081107.2869346,-5.0,-5.0,-1.0,-6.0,-20.0,-10.0,-3.0,-3.0
1705081107.2869346,2.0,-1.0,-3.0,-5.0,10.0,3.0,-4.0,2.0
1705081107.2869346,-2.0,0.0,3.0,2.0,4.0,1.0,-1.0,-2.0
1705081107.3069358,-2.0,-1.0,-2.0,0.0,0.0,-1.0,0.0,0.0
1705081107.3069358,0.0,0.0,0.0,-1.0,-1.0,-4.0,-5.0,-3.0
1705081107.3069358,-2.0,-1.0,-4.0,-6.0,-8.0,-3.0,4.0,-1.0
1705081107.3069358,-3.0,0.0,2.0,-2.0,2.0,-6.0,-9.0,0.0
1705081107.3277407,1.0,1.0,0.0,2.0,-4.0,1.0,0.0,0.0
1705081107.3277407,-3.0,-5.0,-6.0,-8.0,-3.0,1.0,9.0,1.0
1705081107.3277407,0.0,0.0,2.0,1.0,-6.0,-4.0,-5.0,-7.0
1705081107.3277407,-2.0,2.0,3.0,3.0,5.0,1.0,-3.0,-2.0
1705081107.3376625,2.0,-1.0,-2.0,-1.0,-7.0,-3.0,0.0,-1.0
1705081107.3376625,-4.0,-3.0,-3.0,-4.0,-3.0,-4.0,-4.0,-2.0
1705081107.3673363,1.0,3.0,1.0,-1.0,1.0,0.0,2.0,-1.0
1705081107.3673363,0.0,-3.0,1.0,3.0,-2.0,0.0,-1.0,0.0
1705081107.3673363,-4.0,-2.0,0.0,-2.0,-3.0,-1.0,-1.0,-1.0
1705081107.3673363,1.0,0.0,-2.0,-2.0,2.0,-2.0,-4.0,1.0
1705081107.3673363,1.0,1.0,0.0,1.0,1.0,2.0,-2.0,1.0
1705081107.3673363,0.0,3.0,1.0,0.0,-3.0,-1.0,0.0,-2.0
1705081107.3879366,-1.0,-4.0,-3.0,-2.0,-2.0,-3.0,-1.0,2.0
1705081107.3879366,-2.0,1.0,-1.0,0.0,2.0,-2.0,4.0,-3.0
1705081107.3879366,-1.0,-2.0,-1.0,1.0,-4.0,-2.0,-2.0,-1.0
1705081107.3879366,1.0,-1.0,0.0,-2.0,1.0,-1.0,2.0,-1.0
1705081107.3978806,1.0,1.0,-2.0,-1.0,0.0,1.0,1.0,-1.0
1705081107.3978806,-2.0,-4.0,-4.0,-1.0,-2.0,-2.0,-5.0,-4.0
1705081107.4076467,1.0,2.0,3.0,-1.0,0.0,-3.0,-2.0,2.0
1705081107.4076467,-1.0,0.0,-2.0,-2.0,1.0,1.0,0.0,-2.0
1705081107.4376342,-1.0,-1.0,0.0,0.0,-1.0,-1.0,1.0,-1.0
1705081107.4376342,-2.0,-4.0,-1.0,-3.0,-3.0,-1.0,-4.0,-2.0
1705081107.4376342,-2.0,-1.0,0.0,-1.0,-1.0,1.0,-3.0,-2.0
1705081107.4376342,-1.0,-1.0,1.0,-1.0,0.0,-3.0,0.0,-2.0
1705081107.4526656,-2.0,-3.0,-2.0,-1.0,-2.0,-1.0,-2.0,-1.0
1705081107.4526656,-2.0,2.0,0.0,-3.0,-1.0,-1.0,0.0,0.0
1705081107.4536812,-1.0,0.0,-1.0,0.0,-1.0,-1.0,-1.0,0.0
1705081107.4536812,-1.0,-2.0,-2.0,-1.0,-2.0,0.0,-1.0,-1.0
1705081107.465768,-1.0,0.0,-3.0,-1.0,-1.0,-2.0,0.0,-1.0
1705081107.465768,1.0,-1.0,-1.0,0.0,-2.0,0.0,2.0,0.0
1705081107.4700887,1.0,-2.0,0.0,-1.0,-1.0,1.0,0.0,0.0
1705081107.4700887,-3.0,-1.0,-1.0,-1.0,-1.0,-2.0,-1.0,-2.0
1705081107.4901044,2.0,0.0,1.0,-2.0,1.0,-1.0,-2.0,-2.0
1705081107.4901044,-1.0,-1.0,0.0,-1.0,0.0,-1.0,-3.0,0.0
1705081107.4901044,0.0,-1.0,-5.0,-2.0,0.0,-4.0,-1.0,-1.0
1705081107.4901044,-2.0,-2.0,-4.0,-3.0,-3.0,-2.0,-1.0,-1.0
1705081107.5100908,0.0,-3.0,-3.0,-3.0,-3.0,-2.0,-2.0,-1.0
1705081107.5100908,0.0,2.0,2.0,0.0,1.0,0.0,-2.0,1.0
1705081107.5100908,1.0,2.0,3.0,5.0,0.0,-1.0,1.0,0.0
1705081107.5100908,-1.0,-4.0,1.0,3.0,2.0,0.0,-2.0,1.0
1705081107.5300877,-1.0,2.0,-2.0,-2.0,-2.0,0.0,-3.0,-1.0
1705081107.5300877,-1.0,-2.0,-2.0,-4.0,-3.0,-2.0,-3.0,-1.0
1705081107.5300877,-2.0,1.0,-3.0,-5.0,-4.0,-4.0,-2.0,-1.0
1705081107.5300877,-2.0,-3.0,0.0,-1.0,-1.0,-2.0,-1.0,-2.0
1705081107.5501633,-1.0,-2.0,-1.0,-2.0,-1.0,-2.0,1.0,-2.0
1705081107.5501633,-2.0,-2.0,-5.0,-3.0,-5.0,-1.0,-2.0,-3.0
1705081107.5501633,-1.0,-3.0,0.0,0.0,1.0,0.0,-1.0,1.0
1705081107.5501633,-1.0,2.0,6.0,6.0,1.0,0.0,-1.0,0.0
1705081107.5707726,-2.0,-1.0,1.0,2.0,-1.0,2.0,0.0,-2.0
1705081107.5707726,-2.0,-3.0,-3.0,-3.0,-2.0,-2.0,-1.0,-1.0
1705081107.5707726,1.0,2.0,-25.0,-23.0,-9.0,-4.0,-1.0,1.0
1705081107.5707726,-5.0,-8.0,26.0,27.0,8.0,3.0,1.0,0.0
1705081107.6004853,0.0,7.0,2.0,-7.0,-1.0,-3.0,-1.0,-1.0
1705081107.6004853,0.0,-1.0,0.0,16.0,5.0,3.0,1.0,2.0
1705081107.610478,5.0,4.0,16.0,6.0,4.0,4.0,3.0,1.0
1705081107.610478,-12.0,-1.0,-4.0,-10.0,-4.0,-2.0,-1.0,-2.0
1705081107.610478,0.0,-8.0,-14.0,-5.0,-3.0,-2.0,-2.0,-4.0
1705081107.610478,-10.0,-1.0,-1.0,-4.0,-4.0,-4.0,-3.0,-4.0
1705081107.610478,-2.0,-5.0,-5.0,-6.0,-5.0,-4.0,-2.0,-3.0
1705081107.610478,5.0,5.0,-11.0,-8.0,-3.0,-2.0,1.0,1.0
1705081107.6404839,-1.0,-1.0,6.0,1.0,0.0,0.0,-2.0,0.0
1705081107.6404839,4.0,3.0,8.0,-2.0,0.0,-1.0,-1.0,1.0
1705081107.6404839,5.0,7.0,12.0,13.0,2.0,-1.0,1.0,0.0
1705081107.6404839,-17.0,-9.0,-12.0,-5.0,-3.0,-2.0,-3.0,-6.0
1705081107.6604795,-3.0,-10.0,5.0,2.0,3.0,1.0,2.0,1.0
1705081107.6604795,7.0,3.0,-4.0,3.0,1.0,-1.0,0.0,1.0
1705081107.6604795,-4.0,-5.0,-7.0,-5.0,-5.0,-1.0,-1.0,0.0
1705081107.6604795,8.0,0.0,-6.0,-8.0,-4.0,-4.0,-2.0,0.0
1705081107.6704838,-1.0,4.0,1.0,6.0,3.0,1.0,0.0,0.0
1705081107.6704838,0.0,1.0,2.0,1.0,3.0,2.0,1.0,-2.0
1705081107.6704838,1.0,-4.0,1.0,3.0,1.0,1.0,-1.0,-2.0
1705081107.6704838,2.0,6.0,-10.0,-11.0,-6.0,-4.0,-4.0,-2.0
1705081107.6904798,-2.0,-15.0,-5.0,-4.0,-4.0,-3.0,-3.0,-1.0
1705081107.6904798,1.0,7.0,-3.0,-7.0,-3.0,-1.0,-3.0,-1.0
1705081107.6904798,-6.0,5.0,3.0,0.0,-3.0,0.0,-2.0,-4.0
1705081107.6904798,8.0,17.0,13.0,11.0,3.0,4.0,2.0,1.0
1705081107.7005131,-13.0,-37.0,-3.0,5.0,1.0,0.0,-1.0,-2.0
1705081107.7005131,3.0,-4.0,-12.0,-5.0,-3.0,-2.0,-2.0,0.0
1705081107.7108023,-2.0,-7.0,-7.0,-9.0,-2.0,-4.0,1.0,-2.0
1705081107.7108023,1.0,-2.0,8.0,-6.0,-2.0,-1.0,0.0,2.0
1705081107.7304807,2.0,16.0,10.0,10.0,1.0,1.0,0.0,0.0
1705081107.7304807,1.0,-13.0,-6.0,-8.0,-2.0,-2.0,-3.0,-4.0
1705081107.7304807,-5.0,-5.0,-9.0,0.0,-1.0,0.0,-2.0,-1.0
1705081107.7304807,3.0,-7.0,-3.0,-2.0,-1.0,1.0,0.0,0.0
1705081107.7604775,3.0,38.0,3.0,-5.0,-5.0,-2.0,-4.0,-1.0
1705081107.7604775,2.0,-2.0,-1.0,-3.0,-3.0,-1.0,1.0,3.0
1705081107.7604775,-2.0,5.0,0.0,-1.0,0.0,-1.0,-3.0,-4.0
1705081107.7604775,-5.0,-21.0,-7.0,1.0,1.0,0.0,-2.0,-5.0
1705081107.7604775,2.0,-11.0,-1.0,-3.0,-2.0,-1.0,-1.0,1.0
1705081107.7604775,-1.0,21.0,6.0,2.0,0.0,0.0,0.0,1.0
1705081107.7708127,14.0,4.0,-1.0,0.0,1.0,0.0,1.0,3.0
1705081107.7708127,-15.0,0.0,-1.0,3.0,1.0,-1.0,2.0,0.0
1705081107.79048,-9.0,-21.0,-15.0,-6.0,-3.0,-2.0,-3.0,-5.0
1705081107.79048,1.0,2.0,2.0,-1.0,-2.0,-1.0,-2.0,-2.0
1705081107.79048,1.0,-5.0,-2.0,1.0,0.0,-2.0,-1.0,1.0
1705081107.79048,4.0,6.0,-6.0,-5.0,-4.0,-3.0,-2.0,-2.0
1705081107.810482,4.0,8.0,0.0,-4.0,-1.0,-2.0,1.0,4.0
1705081107.810482,2.0,-2.0,11.0,18.0,4.0,0.0,0.0,-3.0
1705081107.810482,-26.0,-12.0,3.0,2.0,0.0,0.0,-4.0,-8.0
1705081107.810482,0.0,0.0,-7.0,-4.0,-2.0,0.0,-2.0,-1.0
1705081107.8308184,-3.0,7.0,-1.0,-1.0,-1.0,-1.0,-2.0,-1.0
1705081107.8308184,1.0,-5.0,-8.0,-7.0,-4.0,-2.0,0.0,2.0
1705081107.8308184,4.0,12.0,9.0,-5.0,-3.0,-2.0,-2.0,1.0
1705081107.8308184,25.0,-5.0,9.0,9.0,2.0,2.0,2.0,5.0
1705081107.8504803,-57.0,-7.0,-16.0,-7.0,-4.0,-4.0,-5.0,-17.0
1705081107.8504803,-5.0,-6.0,-4.0,-5.0,-2.0,-1.0,-2.0,-2.0
1705081107.8504803,-1.0,-5.0,6.0,4.0,-1.0,1.0,0.0,1.0
1705081107.8504803,0.0,-4.0,-9.0,-11.0,-3.0,-1.0,-3.0,1.0
1705081107.8804772,21.0,3.0,5.0,0.0,-1.0,-1.0,0.0,4.0
1705081107.8804772,-6.0,-2.0,0.0,0.0,0.0,-1.0,-2.0,-3.0
1705081107.8804772,0.0,1.0,1.0,0.0,-1.0,-2.0,0.0,1.0
1705081107.8804772,4.0,0.0,-3.0,-2.0,-2.0,-2.0,-3.0,-1.0
1705081107.8804772,8.0,4.0,-3.0,1.0,0.0,-2.0,0.0,-2.0
1705081107.8804772,-7.0,-2.0,-4.0,-3.0,0.0,-3.0,1.0,0.0
1705081107.8906305,5.0,-10.0,4.0,4.0,2.0,0.0,1.0,1.0
1705081107.8906305,-9.0,6.0,-10.0,-5.0,-3.0,0.0,-2.0,-3.0
1705081107.9107559,4.0,4.0,-6.0,-1.0,-2.0,1.0,-2.0,0.0
1705081107.9107559,4.0,-11.0,10.0,1.0,-1.0,0.0,-2.0,0.0
1705081107.9107559,-5.0,-1.0,-2.0,1.0,-2.0,-1.0,-1.0,-3.0
1705081107.9107559,-6.0,0.0,-2.0,0.0,-1.0,-1.0,-2.0,-3.0
1705081107.94048,6.0,4.0,1.0,-3.0,-1.0,0.0,0.0,3.0
1705081107.94048,1.0,-1.0,0.0,-3.0,-1.0,0.0,-2.0,-1.0
1705081107.94048,2.0,-2.0,-6.0,0.0,-1.0,-1.0,-2.0,-2.0
1705081107.94048,-6.0,-9.0,-5.0,-1.0,0.0,-3.0,0.0,-3.0
1705081107.94048,9.0,0.0,0.0,-3.0,0.0,0.0,-1.0,3.0
1705081107.94048,-8.0,-13.0,2.0,-1.0,0.0,-1.0,-1.0,-3.0
1705081107.950479,-4.0,10.0,-3.0,-2.0,-1.0,0.0,-1.0,0.0
1705081107.950479,2.0,-2.0,1.0,-2.0,-1.0,0.0,1.0,0.0
1705081107.9704845,3.0,4.0,7.0,3.0,0.0,0.0,-1.0,-1.0
1705081107.9704845,-4.0,-2.0,-2.0,-3.0,-1.0,-1.0,-2.0,-2.0
1705081107.9721491,0.0,-4.0,-5.0,-2.0,-2.0,-1.0,-3.0,1.0
1705081107.9721491,1.0,1.0,0.0,-3.0,-2.0,-1.0,-1.0,0.0
1705081107.9946046,8.0,-1.0,4.0,1.0,-1.0,0.0,-2.0,-1.0
1705081107.9946046,-11.0,2.0,-1.0,-1.0,0.0,1.0,-2.0,-1.0
1705081107.9946046,2.0,6.0,-4.0,0.0,1.0,-3.0,-1.0,-1.0
1705081107.9946046,-11.0,-4.0,1.0,0.0,-1.0,-3.0,-1.0,-5.0
1705081108.0031128,-4.0,-12.0,-1.0,-1.0,-2.0,0.0,-1.0,-2.0
1705081108.0031128,2.0,6.0,-2.0,0.0,-2.0,0.0,-1.0,-1.0
1705081108.0135114,1.0,4.0,4.0,0.0,-1.0,0.0,0.0,2.0
1705081108.0135114,1.0,-3.0,-3.0,0.0,-2.0,0.0,-1.0,-1.0
1705081108.0431128,-15.0,-11.0,1.0,0.0,-2.0,-2.0,-4.0,-4.0
1705081108.0431128,0.0,0.0,-4.0,1.0,-1.0,0.0,0.0,0.0
1705081108.0431128,-2.0,-2.0,2.0,-1.0,0.0,-2.0,-1.0,-2.0
1705081108.0431128,3.0,3.0,2.0,0.0,-1.0,0.0,1.0,-2.0
1705081108.053118,5.0,4.0,-3.0,-4.0,-2.0,-2.0,-1.0,0.0
1705081108.053118,-2.0,-1.0,-4.0,-1.0,1.0,-1.0,-2.0,-1.0
1705081108.053118,-1.0,-4.0,-3.0,-3.0,-2.0,-1.0,-2.0,-3.0
1705081108.053118,6.0,4.0,3.0,1.0,0.0,0.0,-3.0,0.0
1705081108.0634115,-12.0,-2.0,-2.0,0.0,1.0,-1.0,1.0,-2.0
1705081108.0634115,-3.0,2.0,-2.0,-4.0,-3.0,-4.0,-2.0,-3.0
1705081108.0734074,-3.0,-14.0,-9.0,-2.0,1.0,-1.0,0.0,-2.0
1705081108.0734074,1.0,4.0,4.0,0.0,-1.0,0.0,0.0,-2.0
1705081108.0834157,8.0,-6.0,0.0,0.0,-1.0,-2.0,1.0,3.0
1705081108.0834157,5.0,2.0,-3.0,-1.0,0.0,-2.0,0.0,1.0
1705081108.1131122,6.0,-3.0,1.0,0.0,0.0,-2.0,0.0,1.0
1705081108.1131122,-13.0,-5.0,-4.0,-3.0,0.0,-1.0,-3.0,-2.0
1705081108.1131122,2.0,15.0,-2.0,-2.0,-3.0,-2.0,0.0,-1.0
1705081108.1131122,5.0,0.0,5.0,1.0,1.0,0.0,0.0,1.0
1705081108.1131122,-24.0,-10.0,-5.0,-4.0,-3.0,0.0,-4.0,-4.0
1705081108.1131122,5.0,2.0,1.0,-1.0,-2.0,1.0,0.0,1.0
1705081108.1331282,-15.0,-9.0,-5.0,-2.0,-3.0,-3.0,-2.0,-3.0
1705081108.1331282,2.0,4.0,-2.0,-1.0,-1.0,-1.0,-1.0,-1.0
1705081108.1331282,4.0,6.0,7.0,6.0,5.0,2.0,1.0,2.0
1705081108.1331282,-2.0,0.0,0.0,2.0,0.0,-1.0,0.0,-1.0
1705081108.1431117,11.0,-1.0,0.0,-1.0,-1.0,1.0,-2.0,5.0
1705081108.1431117,10.0,-11.0,-5.0,-6.0,-3.0,-2.0,-2.0,-2.0
1705081108.1431117,-10.0,14.0,-10.0,-9.0,-7.0,-3.0,-4.0,-5.0
1705081108.1431117,-4.0,-18.0,0.0,1.0,1.0,-1.0,-1.0,-1.0
1705081108.1731145,17.0,17.0,8.0,5.0,3.0,1.0,3.0,5.0
1705081108.1731145,-14.0,-10.0,-2.0,0.0,0.0,-2.0,0.0,-3.0
1705081108.1731145,10.0,1.0,2.0,0.0,-2.0,0.0,-1.0,-2.0
1705081108.1731145,-7.0,-10.0,-5.0,-5.0,-4.0,-6.0,-5.0,-2.0
1705081108.1933641,2.0,17.0,5.0,4.0,3.0,1.0,0.0,-1.0
1705081108.1933641,-5.0,-15.0,-6.0,-1.0,-1.0,0.0,-1.0,1.0
1705081108.1933641,0.0,3.0,-1.0,-2.0,-2.0,-1.0,-1.0,-1.0
1705081108.1933641,-7.0,8.0,2.0,-2.0,-1.0,0.0,-1.0,-6.0
1705081108.2034006,0.0,-5.0,-10.0,-8.0,-4.0,-4.0,-1.0,1.0
1705081108.2034006,-12.0,-18.0,0.0,2.0,0.0,0.0,-1.0,-7.0
1705081108.2131124,24.0,1.0,-4.0,1.0,0.0,0.0,2.0,5.0
1705081108.2131124,-5.0,-3.0,5.0,3.0,2.0,0.0,0.0,6.0
1705081108.2331145,-14.0,0.0,2.0,0.0,0.0,0.0,-1.0,-6.0
1705081108.2331145,-6.0,2.0,-5.0,-6.0,-3.0,-1.0,-2.0,-1.0
1705081108.2331145,-15.0,-14.0,3.0,-1.0,-1.0,-3.0,-2.0,-2.0
1705081108.2331145,25.0,9.0,-6.0,-4.0,0.0,-3.0,1.0,2.0
1705081108.253507,-7.0,-21.0,13.0,6.0,1.0,0.0,-1.0,-4.0
1705081108.253507,-3.0,22.0,-1.0,1.0,-1.0,-3.0,1.0,2.0
1705081108.253507,-6.0,-22.0,-2.0,-2.0,-3.0,-2.0,-2.0,-5.0
1705081108.253507,5.0,-7.0,3.0,3.0,2.0,1.0,1.0,4.0
1705081108.2631114,0.0,66.0,-4.0,-6.0,-3.0,-3.0,-2.0,-2.0
1705081108.2631114,7.0,-3.0,-8.0,2.0,0.0,0.0,-2.0,0.0
1705081108.2731454,16.0,0.0,7.0,4.0,3.0,2.0,-1.0,4.0
1705081108.2731454,-20.0,-13.0,-6.0,-5.0,-5.0,-3.0,-3.0,-6.0
1705081108.2931142,-2.0,-40.0,3.0,1.0,1.0,0.0,2.0,0.0
1705081108.2931142,-4.0,29.0,6.0,0.0,0.0,0.0,1.0,-1.0
1705081108.2931142,0.0,17.0,-7.0,-9.0,-3.0,-2.0,-3.0,-2.0
1705081108.2931142,1.0,-1.0,-1.0,4.0,1.0,0.0,0.0,1.0
1705081108.3131123,7.0,-3.0,7.0,-19.0,-8.0,-4.0,-2.0,-1.0
1705081108.3131123,-8.0,-13.0,-5.0,26.0,9.0,5.0,1.0,-3.0
1705081108.3131123,3.0,-12.0,4.0,-1.0,-2.0,-1.0,1.0,3.0
1705081108.3131123,-17.0,-23.0,-15.0,-13.0,-8.0,-7.0,-7.0,-11.0
1705081108.323385,-2.0,17.0,1.0,-1.0,2.0,0.0,-1.0,-2.0
1705081108.323385,6.0,4.0,-8.0,-7.0,0.0,-1.0,-1.0,-1.0
1705081108.3333814,-5.0,-14.0,5.0,2.0,-1.0,-2.0,1.0,1.0
1705081108.3333814,6.0,19.0,-4.0,1.0,1.0,-1.0,2.0,3.0
1705081108.3531175,3.0,-20.0,-4.0,3.0,-2.0,-3.0,-3.0,-4.0
1705081108.3531175,-18.0,-9.0,-1.0,-7.0,-4.0,-2.0,-1.0,-2.0
1705081108.3531175,4.0,15.0,1.0,4.0,2.0,-1.0,1.0,2.0
1705081108.3531175,-6.0,2.0,0.0,-8.0,-7.0,-2.0,-2.0,-2.0
1705081108.3831248,3.0,-1.0,-5.0,2.0,3.0,1.0,-1.0,1.0
1705081108.3831248,-9.0,-36.0,1.0,-14.0,-6.0,-5.0,-3.0,-6.0
1705081108.403111,-11.0,11.0,-14.0,-9.0,-5.0,-3.0,-2.0,-3.0
1705081108.403111,9.0,21.0,11.0,15.0,7.0,2.0,-3.0,-1.0
1705081108.403111,-4.0,-30.0,8.0,16.0,8.0,6.0,3.0,2.0
1705081108.403111,12.0,27.0,5.0,0.0,-2.0,1.0,-2.0,0.0
1705081108.403111,-9.0,-5.0,-32.0,-12.0,-5.0,-5.0,-4.0,-5.0
1705081108.403111,-2.0,0.0,20.0,-5.0,-4.0,-4.0,-1.0,-2.0
1705081108.4131143,-3.0,-18.0,-19.0,-2.0,-1.0,-1.0,-1.0,1.0
1705081108.4131143,12.0,8.0,5.0,-4.0,-5.0,-1.0,-1.0,2.0
1705081108.4131143,-4.0,1.0,1.0,4.0,1.0,3.0,-1.0,-4.0
1705081108.4131143,5.0,8.0,-1.0,10.0,3.0,4.0,3.0,3.0
1705081108.4334774,4.0,5.0,-4.0,-5.0,-3.0,-3.0,-1.0,-1.0
1705081108.4334774,1.0,6.0,10.0,-2.0,0.0,-2.0,-1.0,-2.0
1705081108.4334774,1.0,-3.0,-2.0,3.0,3.0,3.0,-1.0,-2.0
1705081108.4334774,-1.0,-11.0,-11.0,-6.0,-2.0,-5.0,-1.0,-2.0
1705081108.4431136,-3.0,11.0,-2.0,0.0,-8.0,-4.0,-1.0,-1.0
1705081108.4431136,-2.0,-7.0,-16.0,-8.0,-2.0,0.0,-3.0,-4.0
1705081108.4533463,0.0,-17.0,9.0,0.0,1.0,-1.0,-1.0,-1.0
1705081108.4533463,0.0,2.0,3.0,-5.0,-4.0,-1.0,-1.0,0.0
1705081108.4731169,6.0,9.0,-2.0,-9.0,-4.0,-3.0,-5.0,-4.0
1705081108.4731169,0.0,2.0,-7.0,6.0,3.0,0.0,4.0,3.0
1705081108.4731169,-4.0,-3.0,18.0,7.0,3.0,-1.0,-2.0,-1.0
1705081108.4731169,-4.0,-15.0,-5.0,-3.0,1.0,1.0,0.0,-2.0
1705081108.5089822,2.0,9.0,10.0,6.0,2.0,1.0,1.0,-1.0
1705081108.5099814,-2.0,-6.0,-1.0,-13.0,-7.0,-5.0,-4.0,-1.0
1705081108.5099814,-5.0,1.0,-11.0,-2.0,-4.0,-1.0,-3.0,-3.0
1705081108.5099814,-2.0,0.0,12.0,6.0,1.0,0.0,0.0,-2.0
1705081108.5099814,0.0,-13.0,0.0,0.0,2.0,2.0,-1.0,1.0
1705081108.5099814,-3.0,-2.0,-2.0,8.0,2.0,0.0,-1.0,-2.0
1705081108.5167434,-4.0,14.0,-6.0,-6.0,0.0,-6.0,0.0,-1.0
1705081108.517796,12.0,-18.0,-2.0,-4.0,-3.0,-2.0,-3.0,1.0
1705081108.5392966,-16.0,-18.0,-19.0,-7.0,-5.0,-5.0,-6.0,-5.0
1705081108.5392966,4.0,33.0,13.0,6.0,3.0,3.0,2.0,2.0
1705081108.5392966,1.0,-17.0,7.0,-6.0,-5.0,-1.0,-3.0,-1.0
1705081108.5392966,-5.0,11.0,-19.0,-5.0,-2.0,-1.0,-2.0,-6.0
1705081108.5496008,0.0,1.0,15.0,13.0,6.0,5.0,3.0,2.0
1705081108.5496008,2.0,-3.0,4.0,-2.0,-4.0,-2.0,-2.0,-2.0
1705081108.5496008,1.0,-2.0,-4.0,-4.0,-3.0,-2.0,0.0,-2.0
1705081108.5496008,-2.0,-4.0,1.0,0.0,-3.0,0.0,0.0,1.0
1705081108.5696266,1.0,3.0,-22.0,-11.0,-9.0,-4.0,-3.0,-2.0
1705081108.5696266,-8.0,-5.0,9.0,15.0,9.0,5.0,0.0,1.0
1705081108.5696266,0.0,24.0,6.0,4.0,-1.0,-1.0,-2.0,-2.0
1705081108.5696266,-4.0,-29.0,-8.0,-2.0,-3.0,-1.0,-2.0,-2.0
1705081108.5892797,-3.0,-14.0,-11.0,-10.0,-2.0,-1.0,0.0,1.0
1705081108.5892797,11.0,60.0,9.0,-2.0,-1.0,-2.0,-1.0,-2.0
1705081108.5892797,-1.0,-7.0,8.0,0.0,-4.0,-1.0,1.0,1.0
1705081108.5892797,-3.0,10.0,1.0,6.0,5.0,1.0,1.0,2.0
1705081108.6093452,-1.0,-12.0,4.0,3.0,5.0,4.0,1.0,-1.0
1705081108.6093452,-2.0,-15.0,-1.0,-6.0,-4.0,-4.0,-2.0,1.0
1705081108.6093452,0.0,-3.0,-9.0,-3.0,-2.0,0.0,1.0,-2.0
1705081108.6093452,-4.0,14.0,-2.0,-11.0,-7.0,-6.0,-2.0,-4.0
1705081108.629421,-4.0,-13.0,-12.0,-6.0,-5.0,-4.0,-4.0,-3.0
1705081108.629421,-5.0,-21.0,6.0,4.0,2.0,2.0,-1.0,-2.0
1705081108.629421,0.0,-2.0,-12.0,0.0,2.0,0.0,-1.0,1.0
1705081108.629421,1.0,-1.0,15.0,2.0,2.0,3.0,1.0,2.0
1705081108.6694367,-1.0,12.0,0.0,1.0,-3.0,-3.0,-2.0,-2.0
1705081108.6694367,0.0,1.0,-11.0,-13.0,-8.0,-4.0,-2.0,-4.0
1705081108.6694367,1.0,12.0,10.0,6.0,3.0,-2.0,-4.0,-4.0
1705081108.6694367,-3.0,1.0,-15.0,-2.0,3.0,2.0,-1.0,-1.0
1705081108.6694367,-3.0,-9.0,13.0,-2.0,-2.0,-1.0,0.0,0.0
1705081108.6694367,-7.0,-22.0,-10.0,8.0,1.0,-2.0,-2.0,-3.0
1705081108.6694367,3.0,8.0,-4.0,-6.0,-5.0,-1.0,2.0,2.0
1705081108.6694367,-1.0,-5.0,-21.0,-10.0,-7.0,-5.0,-4.0,-3.0
1705081108.6898093,2.0,20.0,8.0,7.0,5.0,0.0,0.0,-1.0
1705081108.6898093,-5.0,-20.0,-13.0,-10.0,-3.0,-1.0,-1.0,-1.0
1705081108.6898093,-1.0,8.0,15.0,2.0,-1.0,-2.0,-1.0,1.0
1705081108.6898093,0.0,-6.0,-5.0,1.0,-1.0,-1.0,-1.0,1.0
1705081108.70944,-1.0,3.0,-2.0,2.0,-2.0,-2.0,-1.0,-1.0
1705081108.70944,-4.0,-21.0,-3.0,-7.0,-9.0,-5.0,-3.0,-2.0
1705081108.70944,0.0,-5.0,4.0,2.0,4.0,1.0,-1.0,0.0
1705081108.70944,-7.0,3.0,5.0,-3.0,-3.0,-1.0,-4.0,-4.0
1705081108.7296607,1.0,11.0,-1.0,2.0,1.0,-2.0,-2.0,1.0
1705081108.7296607,2.0,-8.0,7.0,0.0,2.0,3.0,0.0,1.0
1705081108.7296607,-4.0,-10.0,-3.0,4.0,-1.0,-3.0,-1.0,-2.0
1705081108.7296607,2.0,14.0,-3.0,2.0,1.0,1.0,2.0,1.0
1705081108.7594402,0.0,4.0,-5.0,-9.0,-6.0,-2.0,-2.0,-3.0
1705081108.7594402,-3.0,-24.0,-6.0,-3.0,-2.0,-2.0,-1.0,0.0
1705081108.7594402,0.0,-1.0,-10.0,-4.0,-1.0,3.0,-1.0,0.0
1705081108.7594402,0.0,-3.0,4.0,0.0,-1.0,-3.0,0.0,-1.0
1705081108.7694826,2.0,8.0,4.0,-3.0,-1.0,-2.0,-2.0,-3.0
1705081108.7694826,-2.0,1.0,-5.0,-1.0,2.0,0.0,-1.0,-2.0
1705081108.7694826,-5.0,-15.0,-11.0,0.0,-1.0,0.0,-3.0,-1.0
1705081108.7694826,1.0,-7.0,-3.0,-3.0,-1.0,1.0,-2.0,-1.0
1705081108.7898152,0.0,-13.0,9.0,6.0,1.0,2.0,-1.0,1.0
1705081108.7898152,-5.0,1.0,-5.0,1.0,0.0,-1.0,-1.0,0.0
1705081108.7898152,3.0,-12.0,2.0,-3.0,1.0,2.0,0.0,3.0
1705081108.7898152,-11.0,30.0,18.0,8.0,3.0,1.0,-1.0,-3.0
1705081108.8194504,1.0,-6.0,-9.0,-4.0,-2.0,-2.0,-3.0,-4.0
1705081108.8194504,1.0,0.0,3.0,-5.0,-5.0,-6.0,0.0,0.0
1705081108.8194504,-5.0,-19.0,-1.0,-5.0,-5.0,-1.0,0.0,-4.0
1705081108.8194504,4.0,-3.0,-5.0,2.0,2.0,1.0,2.0,2.0
1705081108.8296046,-3.0,0.0,15.0,5.0,0.0,0.0,0.0,2.0
1705081108.8296046,5.0,14.0,-9.0,-1.0,1.0,-1.0,-2.0,-1.0
1705081108.8296046,-6.0,1.0,-8.0,-10.0,-4.0,-4.0,-4.0,-2.0
1705081108.8296046,2.0,-12.0,-2.0,-3.0,-5.0,-3.0,-1.0,-1.0
1705081108.8497124,-3.0,0.0,-1.0,0.0,-1.0,1.0,0.0,-2.0
1705081108.8497124,1.0,2.0,-10.0,-2.0,-3.0,0.0,1.0,-1.0
1705081108.8497124,0.0,-4.0,4.0,-8.0,-5.0,-4.0,-1.0,-2.0
1705081108.8497124,5.0,8.0,1.0,13.0,8.0,4.0,3.0,3.0
1705081108.8894932,4.0,20.0,11.0,3.0,1.0,0.0,0.0,2.0
1705081108.8894932,1.0,13.0,-4.0,-8.0,-4.0,-3.0,-3.0,-5.0
1705081108.8894932,0.0,-5.0,-6.0,-4.0,-3.0,-2.0,-1.0,-1.0
1705081108.8894932,-1.0,1.0,6.0,-1.0,0.0,-1.0,-3.0,0.0
1705081108.8894932,-9.0,-24.0,-3.0,-10.0,-7.0,-3.0,-3.0,-4.0
1705081108.8894932,-3.0,-7.0,-1.0,6.0,4.0,1.0,-1.0,-1.0
1705081108.8894932,1.0,23.0,20.0,16.0,9.0,5.0,0.0,-1.0
1705081108.8894932,5.0,6.0,3.0,-5.0,-5.0,-4.0,-3.0,-1.0
1705081108.909703,3.0,-15.0,-7.0,-1.0,-2.0,0.0,2.0,2.0
1705081108.909703,-2.0,13.0,-9.0,-15.0,-6.0,-4.0,-2.0,-2.0
1705081108.909703,-5.0,-8.0,7.0,11.0,2.0,0.0,-3.0,-2.0
1705081108.909703,1.0,-8.0,-6.0,-7.0,-4.0,-3.0,0.0,1.0
1705081108.9295623,10.0,4.0,-3.0,1.0,0.0,-3.0,-1.0,-5.0
1705081108.9295623,0.0,-12.0,2.0,5.0,0.0,-1.0,1.0,3.0
1705081108.9295623,2.0,7.0,-5.0,-3.0,-1.0,-2.0,1.0,-1.0
1705081108.9295623,0.0,9.0,4.0,-1.0,-3.0,-1.0,-4.0,-3.0
1705081108.949847,-3.0,-21.0,-14.0,-2.0,0.0,-1.0,-2.0,-3.0
1705081108.949847,0.0,8.0,4.0,-1.0,-2.0,-2.0,-3.0,0.0
1705081108.949847,-1.0,-1.0,-6.0,0.0,0.0,-1.0,0.0,0.0
1705081108.949847,-1.0,-1.0,0.0,-1.0,1.0,1.0,0.0,1.0
1705081108.9702554,-1.0,-4.0,-22.0,-9.0,-3.0,-2.0,-1.0,1.0
1705081108.9702554,-17.0,3.0,11.0,2.0,2.0,0.0,-1.0,-2.0
1705081108.9702554,0.0,-1.0,-2.0,3.0,1.0,-1.0,-5.0,-5.0
1705081108.9702554,1.0,-10.0,-17.0,-9.0,-4.0,-3.0,-1.0,-1.0
1705081108.9898443,-8.0,18.0,11.0,3.0,2.0,0.0,-1.0,-4.0
1705081108.9898443,8.0,-11.0,1.0,-3.0,-1.0,1.0,2.0,4.0
1705081108.9898443,-1.0,14.0,6.0,7.0,1.0,0.0,0.0,3.0
1705081108.9898443,4.0,-3.0,7.0,6.0,1.0,1.0,-1.0,-2.0
1705081109.0102417,-15.0,-18.0,-17.0,-7.0,-5.0,-4.0,-4.0,-6.0
1705081109.0102417,-2.0,6.0,-4.0,-2.0,-1.0,-1.0,-2.0,-4.0
1705081109.0102417,1.0,-8.0,-8.0,-11.0,-2.0,-2.0,1.0,0.0
1705081109.0102417,1.0,-4.0,6.0,3.0,-2.0,-2.0,-2.0,-1.0
1705081109.033842,-9.0,1.0,3.0,1.0,2.0,2.0,-1.0,3.0
1705081109.0346537,5.0,-10.0,6.0,9.0,2.0,0.0,1.0,1.0
1705081109.0346537,5.0,14.0,3.0,0.0,0.0,-1.0,-1.0,-2.0
1705081109.0346537,-8.0,-4.0,-24.0,-11.0,-6.0,-4.0,-2.0,-3.0
1705081109.0517821,4.0,7.0,9.0,5.0,0.0,1.0,0.0,-1.0
1705081109.0517821,26.0,8.0,12.0,-2.0,-3.0,-2.0,1.0,10.0
1705081109.0517821,-75.0,-35.0,-12.0,-12.0,-5.0,-6.0,-8.0,-21.0
1705081109.0517821,5.0,17.0,9.0,10.0,5.0,1.0,3.0,-1.0
1705081109.072142,8.0,0.0,13.0,7.0,4.0,1.0,2.0,0.0
1705081109.072142,8.0,4.0,-18.0,1.0,1.0,0.0,-2.0,-1.0
1705081109.072142,12.0,-1.0,9.0,-5.0,-5.0,-2.0,0.0,8.0
1705081109.072142,18.0,10.0,5.0,3.0,2.0,2.0,-1.0,0.0
1705081109.092433,-24.0,-2.0,-10.0,-2.0,-1.0,-1.0,-2.0,-5.0
1705081109.092433,1.0,-19.0,-3.0,-8.0,-6.0,-4.0,-2.0,-4.0
1705081109.092433,11.0,8.0,1.0,0.0,0.0,1.0,2.0,3.0
1705081109.092433,-6.0,7.0,3.0,0.0,-2.0,-1.0,-1.0,2.0
1705081109.1221416,10.0,-4.0,-16.0,-11.0,-7.0,-4.0,-1.0,0.0
1705081109.1221416,-9.0,0.0,-5.0,-6.0,-4.0,-2.0,-3.0,-6.0
1705081109.1221416,1.0,3.0,9.0,4.0,3.0,1.0,3.0,2.0
1705081109.1221416,-10.0,-13.0,5.0,10.0,4.0,2.0,-1.0,-1.0
1705081109.132141,19.0,2.0,-3.0,-8.0,-2.0,-3.0,-2.0,3.0
1705081109.132141,9.0,1.0,-4.0,-4.0,-3.0,-2.0,-1.0,4.0
1705081109.132141,-25.0,-2.0,-4.0,2.0,-2.0,0.0,-2.0,4.0
1705081109.132141,9.0,2.0,13.0,-1.0,4.0,0.0,-3.0,-13.0
1705081109.1521423,-19.0,-3.0,-5.0,0.0,-4.0,-3.0,-3.0,-17.0
1705081109.1521423,4.0,5.0,3.0,3.0,1.0,-1.0,-1.0,2.0
1705081109.1521423,23.0,5.0,6.0,10.0,8.0,4.0,5.0,9.0
1705081109.1521423,-5.0,14.0,-7.0,-11.0,-6.0,-3.0,-2.0,7.0
1705081109.172576,10.0,-18.0,-12.0,-7.0,-4.0,-1.0,-3.0,-2.0
1705081109.172576,-15.0,-7.0,6.0,7.0,4.0,2.0,-1.0,-5.0
1705081109.172576,11.0,-2.0,-5.0,-7.0,-5.0,-3.0,2.0,4.0
1705081109.172576,-14.0,-19.0,-7.0,-5.0,-3.0,-4.0,-1.0,1.0
1705081109.1825256,47.0,25.0,6.0,2.0,1.0,-1.0,2.0,5.0
1705081109.1825256,-55.0,-3.0,-1.0,-3.0,-3.0,-3.0,-2.0,-10.0
1705081109.192141,-7.0,-11.0,2.0,-2.0,-1.0,-1.0,-2.0,-3.0
1705081109.192141,-7.0,-20.0,-24.0,-10.0,-2.0,-1.0,-2.0,-9.0
1705081109.212138,4.0,11.0,10.0,1.0,1.0,0.0,-4.0,0.0
1705081109.212138,10.0,-10.0,-5.0,4.0,6.0,5.0,3.0,5.0
1705081109.2221398,10.0,8.0,10.0,6.0,-1.0,-1.0,-2.0,-6.0
1705081109.2221398,4.0,4.0,-9.0,-10.0,-5.0,-2.0,-2.0,-1.0
1705081109.2325637,-13.0,0.0,7.0,-9.0,-5.0,-2.0,2.0,11.0
1705081109.2325637,-21.0,-10.0,4.0,10.0,-2.0,-5.0,-6.0,-14.0
1705081109.2325637,10.0,7.0,-2.0,1.0,3.0,0.0,-1.0,-3.0
1705081109.2325637,5.0,0.0,4.0,9.0,2.0,0.0,2.0,4.0
1705081109.2425263,-8.0,3.0,1.0,4.0,2.0,1.0,1.0,1.0
1705081109.2425263,0.0,-9.0,-5.0,-7.0,-5.0,-3.0,-3.0,-1.0
1705081109.2521408,3.0,-5.0,-13.0,-10.0,-8.0,-5.0,-3.0,-4.0
1705081109.2521408,9.0,5.0,2.0,0.0,-3.0,-4.0,-1.0,3.0
1705081109.2721386,-34.0,-9.0,3.0,-1.0,0.0,1.0,1.0,-1.0
1705081109.2721386,18.0,10.0,6.0,2.0,2.0,3.0,4.0,6.0
1705081109.2721386,-1.0,-15.0,-12.0,2.0,-1.0,0.0,-3.0,-12.0
1705081109.2721386,-18.0,-11.0,0.0,-7.0,-3.0,-3.0,-4.0,-3.0
1705081109.3024752,10.0,8.0,4.0,3.0,1.0,0.0,0.0,4.0
1705081109.3024752,-18.0,-13.0,-18.0,-7.0,-3.0,-2.0,-4.0,-6.0
1705081109.3024752,9.0,-2.0,7.0,-10.0,-6.0,-3.0,-3.0,4.0
1705081109.3024752,2.0,7.0,12.0,11.0,11.0,6.0,1.0,1.0
1705081109.3121448,4.0,-10.0,-25.0,-1.0,0.0,-2.0,-1.0,-2.0
1705081109.3121448,12.0,-1.0,15.0,6.0,-2.0,-3.0,0.0,4.0
1705081109.3121448,-4.0,24.0,-11.0,-7.0,-3.0,-4.0,-5.0,-7.0
1705081109.3121448,-2.0,-11.0,-10.0,-4.0,-2.0,-1.0,-4.0,-4.0
1705081109.3421392,-5.0,-4.0,4.0,1.0,-1.0,-1.0,-2.0,-4.0
1705081109.3421392,4.0,-2.0,-6.0,-4.0,0.0,0.0,0.0,1.0
1705081109.3421392,1.0,-3.0,2.0,-6.0,-5.0,-3.0,-2.0,0.0
1705081109.3421392,-2.0,0.0,1.0,7.0,0.0,0.0,3.0,0.0
1705081109.352185,-3.0,8.0,6.0,6.0,2.0,1.0,0.0,-3.0
1705081109.352185,-2.0,2.0,-5.0,-9.0,-6.0,-4.0,-3.0,-4.0
1705081109.352185,-4.0,-9.0,-1.0,-8.0,-3.0,-2.0,-1.0,2.0
1705081109.352185,-2.0,3.0,0.0,14.0,3.0,1.0,-1.0,-1.0
1705081109.3721423,9.0,0.0,1.0,-1.0,-1.0,-2.0,-1.0,-2.0
1705081109.3721423,-2.0,13.0,27.0,9.0,4.0,3.0,-1.0,2.0
1705081109.3721423,-5.0,-15.0,-21.0,-3.0,2.0,-2.0,-3.0,-5.0
1705081109.3721423,-25.0,-1.0,-4.0,-3.0,-5.0,-4.0,-3.0,-3.0
1705081109.3921394,17.0,1.0,-4.0,-2.0,3.0,0.0,-1.0,2.0
1705081109.3921394,5.0,1.0,-10.0,-3.0,-3.0,-4.0,-1.0,1.0
1705081109.3921394,-15.0,-1.0,-1.0,4.0,1.0,3.0,2.0,-1.0
1705081109.3921394,5.0,-12.0,-7.0,-10.0,-4.0,-4.0,0.0,-3.0
1705081109.4125748,0.0,-2.0,5.0,-1.0,-2.0,-1.0,1.0,-3.0
1705081109.4125748,-5.0,11.0,4.0,1.0,0.0,-8.0,-1.0,-3.0
1705081109.4125748,-4.0,-3.0,-8.0,-4.0,-3.0,-2.0,-1.0,1.0
1705081109.4125748,7.0,1.0,-1.0,-1.0,1.0,1.0,0.0,-1.0
1705081109.4321396,-9.0,3.0,9.0,-5.0,-4.0,-3.0,-3.0,0.0
1705081109.4321396,8.0,-11.0,4.0,1.0,1.0,2.0,1.0,1.0
1705081109.4321396,-3.0,4.0,-13.0,2.0,2.0,0.0,-3.0,-4.0
1705081109.4321396,1.0,6.0,10.0,-4.0,-2.0,-1.0,0.0,1.0
1705081109.4525669,-5.0,-20.0,-16.0,-2.0,-3.0,0.0,-1.0,0.0
1705081109.4525669,-1.0,-4.0,-24.0,-7.0,-1.0,0.0,-1.0,-2.0
1705081109.4525669,7.0,15.0,21.0,10.0,4.0,0.0,2.0,2.0
1705081109.4525669,-6.0,-33.0,-15.0,-9.0,-5.0,-1.0,-2.0,-1.0
1705081109.472574,-11.0,-6.0,3.0,-6.0,-4.0,-1.0,-3.0,-3.0
1705081109.472574,8.0,32.0,9.0,4.0,-1.0,1.0,0.0,1.0
1705081109.472574,-7.0,-47.0,-35.0,-11.0,-2.0,-3.0,0.0,-2.0
1705081109.472574,19.0,5.0,15.0,3.0,-1.0,0.0,1.0,7.0
1705081109.4921384,-25.0,14.0,11.0,3.0,1.0,-1.0,-6.0,-9.0
1705081109.4921384,-7.0,-6.0,2.0,4.0,3.0,2.0,1.0,1.0
1705081109.4921384,22.0,9.0,-3.0,-6.0,-5.0,-2.0,-1.0,2.0
1705081109.4921384,-9.0,1.0,4.0,-3.0,-9.0,-6.0,-5.0,-13.0
1705081109.5125487,4.0,-15.0,-4.0,3.0,2.0,-2.0,-1.0,1.0
1705081109.5125487,1.0,1.0,1.0,4.0,4.0,3.0,1.0,0.0
1705081109.5125487,12.0,13.0,-3.0,0.0,-2.0,0.0,-2.0,3.0
1705081109.5125487,7.0,2.0,14.0,-1.0,1.0,2.0,1.0,4.0
1705081109.5325553,-17.0,4.0,-14.0,-2.0,-2.0,-3.0,0.0,-4.0
1705081109.5325553,3.0,-7.0,-7.0,2.0,0.0,0.0,-1.0,-3.0
1705081109.5325553,-2.0,11.0,13.0,-1.0,0.0,-1.0,0.0,0.0
1705081109.5325553,-1.0,3.0,-16.0,-3.0,-4.0,-2.0,-2.0,0.0
1705081109.5521386,2.0,-14.0,10.0,4.0,3.0,2.0,-1.0,1.0
1705081109.5521386,-2.0,11.0,0.0,-3.0,-2.0,0.0,-2.0,-2.0
1705081109.5521386,-8.0,-7.0,16.0,-5.0,-6.0,-3.0,-2.0,-4.0
1705081109.5521386,-6.0,3.0,3.0,3.0,6.0,0.0,0.0,-2.0
1705081109.5825665,8.0,17.0,5.0,3.0,0.0,0.0,2.0,2.0
1705081109.5835392,5.0,-1.0,3.0,3.0,-2.0,-1.0,-1.0,0.0
1705081109.5835392,-9.0,0.0,1.0,-4.0,-3.0,-3.0,-1.0,-2.0
1705081109.5835392,-1.0,-1.0,-10.0,-6.0,-5.0,-2.0,-2.0,-4.0
1705081109.614873,1.0,8.0,8.0,2.0,1.0,0.0,0.0,-1.0
1705081109.614873,-8.0,-23.0,-3.0,-6.0,-4.0,-2.0,-4.0,-3.0
1705081109.614873,0.0,9.0,-5.0,4.0,0.0,-1.0,-2.0,0.0
1705081109.614873,-7.0,-12.0,1.0,-3.0,-4.0,-2.0,0.0,2.0
1705081109.614873,14.0,13.0,10.0,2.0,-1.0,1.0,-1.0,0.0
1705081109.614873,-2.0,0.0,-16.0,-4.0,-2.0,0.0,0.0,-2.0
1705081109.614873,1.0,25.0,8.0,5.0,0.0,0.0,-2.0,0.0
1705081109.614873,-10.0,-21.0,-25.0,-9.0,-4.0,-4.0,-5.0,-6.0
1705081109.634941,1.0,10.0,5.0,-1.0,-2.0,-3.0,-1.0,1.0
1705081109.634941,3.0,-2.0,5.0,-4.0,3.0,-1.0,0.0,2.0
1705081109.634941,-5.0,-4.0,6.0,10.0,6.0,5.0,3.0,-1.0
1705081109.634941,4.0,12.0,3.0,-2.0,-2.0,-1.0,-1.0,-3.0
1705081109.664875,-1.0,4.0,-5.0,-8.0,-7.0,-2.0,-1.0,-1.0
1705081109.664875,0.0,3.0,-3.0,-4.0,-1.0,-1.0,0.0,0.0
1705081109.664875,3.0,-4.0,10.0,4.0,2.0,0.0,0.0,1.0
1705081109.664875,0.0,0.0,2.0,6.0,3.0,0.0,-1.0,2.0
1705081109.664875,-5.0,6.0,-9.0,-7.0,-5.0,-5.0,-4.0,-3.0
1705081109.664875,-4.0,-25.0,-11.0,-5.0,-4.0,-3.0,-1.0,-5.0
1705081109.6749666,0.0,20.0,-2.0,-9.0,-3.0,-3.0,-3.0,0.0
1705081109.6749666,0.0,-10.0,-2.0,-1.0,1.0,2.0,-1.0,1.0
1705081109.6952293,0.0,-5.0,-2.0,5.0,4.0,3.0,1.0,0.0
1705081109.6952293,-1.0,2.0,12.0,0.0,-2.0,-2.0,0.0,-1.0
1705081109.6952293,-1.0,-18.0,-2.0,2.0,-1.0,0.0,2.0,0.0
1705081109.6952293,0.0,31.0,5.0,-6.0,-1.0,-3.0,-3.0,-4.0
1705081109.7152233,2.0,4.0,2.0,6.0,5.0,2.0,0.0,2.0
1705081109.7152233,-15.0,-21.0,-18.0,-9.0,-5.0,-3.0,-4.0,-7.0
1705081109.7152233,1.0,-2.0,-9.0,-8.0,-4.0,-1.0,0.0,-3.0
1705081109.7152233,-3.0,-15.0,17.0,8.0,-1.0,-1.0,0.0,1.0
1705081109.725432,-2.0,-14.0,-5.0,6.0,3.0,-1.0,0.0,1.0
1705081109.725432,12.0,37.0,23.0,7.0,-1.0,-1.0,-1.0,0.0
1705081109.7355847,-6.0,-5.0,-5.0,3.0,5.0,0.0,0.0,1.0
1705081109.7355847,-15.0,-6.0,-10.0,-7.0,-5.0,-5.0,-4.0,-7.0
1705081109.7454104,-10.0,-9.0,-7.0,-4.0,-3.0,-1.0,-2.0,-2.0
1705081109.7454104,2.0,-4.0,8.0,-2.0,-1.0,-1.0,3.0,4.0
1705081109.755225,9.0,-16.0,8.0,1.0,-2.0,-1.0,-2.0,-1.0
1705081109.755225,1.0,19.0,14.0,8.0,1.0,4.0,2.0,1.0
1705081109.7755253,-9.0,-70.0,-20.0,-9.0,-2.0,-1.0,0.0,-2.0
1705081109.7755253,-10.0,16.0,-12.0,-6.0,-5.0,-1.0,-3.0,-4.0
1705081109.7755253,-9.0,-11.0,4.0,6.0,4.0,1.0,1.0,1.0
1705081109.7755253,8.0,36.0,-9.0,1.0,-2.0,-2.0,-1.0,-1.0
1705081109.7952251,-2.0,26.0,-3.0,-9.0,-6.0,-4.0,-5.0,-6.0
1705081109.7952251,0.0,-28.0,-7.0,-1.0,1.0,2.0,0.0,5.0
1705081109.7952251,5.0,-18.0,-19.0,-9.0,-5.0,-2.0,-2.0,0.0
1705081109.7952251,-17.0,-15.0,11.0,6.0,4.0,2.0,-1.0,-3.0
1705081109.8152285,2.0,22.0,-3.0,2.0,-1.0,-2.0,0.0,1.0
1705081109.8152285,-14.0,-12.0,-10.0,-8.0,-6.0,-4.0,-5.0,-8.0
1705081109.8152285,-2.0,24.0,-1.0,3.0,3.0,0.0,-2.0,-3.0
1705081109.8152285,7.0,-13.0,-5.0,-3.0,-3.0,-2.0,0.0,3.0
1705081109.8352232,-1.0,-2.0,-8.0,-8.0,-6.0,-2.0,-5.0,-2.0
1705081109.8352232,5.0,-16.0,-5.0,-2.0,0.0,-2.0,-3.0,1.0
1705081109.8352232,-2.0,19.0,3.0,-6.0,-5.0,-2.0,-5.0,-4.0
1705081109.8352232,-1.0,-16.0,-8.0,-5.0,0.0,2.0,0.0,0.0
1705081109.8555632,-2.0,-3.0,-1.0,4.0,-1.0,-1.0,1.0,-1.0
1705081109.8555632,3.0,7.0,-2.0,-1.0,-2.0,-1.0,2.0,1.0
1705081109.8555632,8.0,-8.0,0.0,-6.0,-6.0,-4.0,1.0,1.0
1705081109.8555632,-13.0,-14.0,-14.0,-3.0,-2.0,-1.0,0.0,-1.0
1705081109.8752267,-9.0,-11.0,-12.0,-3.0,-1.0,2.0,-3.0,-8.0
1705081109.8752267,4.0,20.0,6.0,-1.0,2.0,1.0,1.0,1.0
1705081109.8752267,-1.0,-15.0,-19.0,-8.0,-4.0,-4.0,-1.0,-3.0
1705081109.8752267,9.0,15.0,8.0,-4.0,-2.0,-1.0,-2.0,-2.0
1705081109.895221,-5.0,-1.0,10.0,5.0,2.0,-1.0,1.0,2.0
1705081109.895221,-8.0,0.0,-4.0,9.0,3.0,3.0,2.0,-2.0
1705081109.895221,6.0,9.0,3.0,-5.0,-4.0,0.0,-2.0,-1.0
1705081109.895221,5.0,-17.0,-20.0,-4.0,-4.0,-3.0,0.0,3.0
1705081109.9156384,9.0,2.0,-4.0,-10.0,-6.0,-3.0,-1.0,2.0
1705081109.9156384,0.0,12.0,17.0,-1.0,1.0,-1.0,-1.0,0.0
1705081109.9156384,-40.0,-10.0,22.0,25.0,9.0,2.0,0.0,-6.0
1705081109.9156384,29.0,-3.0,-2.0,-2.0,0.0,0.0,0.0,7.0
1705081109.92553,-33.0,16.0,-2.0,-3.0,-3.0,0.0,-4.0,-9.0
1705081109.92553,4.0,-11.0,2.0,-5.0,-7.0,-3.0,-2.0,-4.0
1705081109.935225,5.0,-30.0,-20.0,-10.0,-4.0,-3.0,-1.0,3.0
1705081109.935225,-7.0,27.0,29.0,7.0,2.0,-3.0,-3.0,-3.0
1705081109.9555843,-3.0,-46.0,-23.0,-4.0,-1.0,-2.0,-2.0,2.0
1705081109.9555843,13.0,13.0,-4.0,-3.0,-1.0,-1.0,-1.0,0.0
1705081109.9555843,-6.0,2.0,5.0,-2.0,-5.0,-2.0,-2.0,0.0
1705081109.9555843,11.0,-1.0,1.0,4.0,2.0,-1.0,1.0,-2.0
1705081109.9756496,15.0,29.0,23.0,9.0,7.0,2.0,4.0,8.0
1705081109.9756496,-6.0,1.0,-7.0,0.0,-2.0,-3.0,-3.0,-4.0
1705081109.9756496,-3.0,-18.0,-6.0,-4.0,-3.0,-3.0,-2.0,-4.0
1705081109.9756496,-11.0,28.0,-8.0,-15.0,-8.0,-4.0,-1.0,-3.0
1705081109.9852257,4.0,3.0,10.0,6.0,1.0,0.0,1.0,1.0
1705081109.9852257,1.0,-10.0,1.0,6.0,4.0,0.0,0.0,1.0
1705081109.9852257,2.0,27.0,13.0,-2.0,1.0,-1.0,0.0,-2.0
1705081109.9852257,2.0,-12.0,-11.0,-2.0,-1.0,-1.0,1.0,1.0
1705081110.025227,-14.0,-4.0,9.0,-7.0,-6.0,-5.0,-2.0,-8.0
1705081110.025227,19.0,12.0,24.0,22.0,9.0,3.0,2.0,6.0
1705081110.025227,-10.0,11.0,3.0,-3.0,1.0,2.0,2.0,2.0
1705081110.025227,-20.0,-14.0,-19.0,-3.0,-2.0,0.0,-4.0,-6.0
1705081110.0355833,-13.0,-7.0,-7.0,-4.0,-3.0,0.0,-1.0,-3.0
1705081110.0355833,-14.0,-23.0,-14.0,-10.0,-4.0,-1.0,-2.0,-5.0
1705081110.0355833,13.0,18.0,8.0,4.0,1.0,2.0,2.0,2.0
1705081110.0355833,1.0,-19.0,9.0,6.0,4.0,1.0,1.0,4.0
1705081110.0455823,29.0,44.0,2.0,-2.0,-3.0,-3.0,-4.0,-1.0
1705081110.0552297,-15.0,-19.0,-6.0,-2.0,-3.0,-1.0,-1.0,-4.0
1705081110.0552297,2.0,-11.0,-15.0,-4.0,-2.0,-1.0,-1.0,-1.0
1705081110.0552297,16.0,12.0,0.0,-3.0,-2.0,0.0,2.0,2.0
1705081110.0755742,-12.0,-15.0,0.0,-9.0,-4.0,-5.0,-2.0,3.0
1705081110.0755742,-8.0,-19.0,-9.0,0.0,0.0,-2.0,-4.0,-6.0
1705081110.0755742,10.0,19.0,10.0,8.0,4.0,1.0,2.0,0.0
1705081110.0755742,0.0,-4.0,-2.0,-6.0,-5.0,-3.0,-3.0,1.0
1705081110.1001625,5.0,-2.0,-4.0,-2.0,-1.0,-1.0,-1.0,0.0
1705081110.1001625,-5.0,2.0,-8.0,-6.0,-4.0,-3.0,-3.0,-1.0
1705081110.1011763,-12.0,-6.0,-1.0,1.0,1.0,1.0,-3.0,1.0
1705081110.1011763,18.0,2.0,1.0,1.0,0.0,-1.0,0.0,-4.0
1705081110.114454,-4.0,-10.0,-11.0,-7.0,-6.0,-1.0,-2.0,-5.0
1705081110.114454,12.0,6.0,20.0,5.0,1.0,-1.0,-2.0,0.0
1705081110.114454,19.0,40.0,-2.0,3.0,2.0,-1.0,0.0,2.0
1705081110.114454,-39.0,-50.0,-16.0,-7.0,-2.0,-2.0,-4.0,-9.0
1705081110.1279075,-4.0,-14.0,-4.0,7.0,4.0,3.0,1.0,-6.0
1705081110.1279075,5.0,8.0,-5.0,-8.0,-5.0,-1.0,0.0,1.0
1705081110.1279075,3.0,4.0,14.0,3.0,-1.0,-1.0,0.0,3.0
1705081110.1279075,-3.0,-6.0,-4.0,2.0,2.0,2.0,-1.0,0.0
1705081110.1583178,14.0,-2.0,6.0,-2.0,-4.0,-2.0,1.0,6.0
1705081110.1583178,-7.0,5.0,-4.0,-3.0,-2.0,-1.0,-4.0,-3.0
1705081110.1583178,-4.0,-28.0,-13.0,-7.0,-5.0,-3.0,-3.0,-6.0
1705081110.1583178,-5.0,12.0,9.0,4.0,4.0,1.0,-1.0,0.0
1705081110.167922,16.0,1.0,9.0,3.0,1.0,-1.0,-1.0,2.0
1705081110.167922,16.0,31.0,-6.0,-3.0,-1.0,-2.0,2.0,4.0
1705081110.167922,-9.0,-27.0,-10.0,-2.0,0.0,0.0,-1.0,-10.0
1705081110.167922,-2.0,14.0,4.0,-4.0,-4.0,-3.0,-4.0,-5.0
1705081110.1881907,5.0,22.0,10.0,-4.0,-1.0,2.0,-1.0,0.0
1705081110.1881907,-1.0,-1.0,-5.0,2.0,1.0,1.0,0.0,-1.0
1705081110.1979263,-3.0,-3.0,-6.0,1.0,0.0,-1.0,-2.0,1.0
1705081110.1979263,11.0,-7.0,1.0,-3.0,0.0,-1.0,0.0,3.0
1705081110.2179189,-5.0,3.0,5.0,9.0,2.0,1.0,2.0,-1.0
1705081110.2179189,-9.0,-1.0,-8.0,-10.0,-7.0,-4.0,-5.0,-5.0
1705081110.2179189,-1.0,4.0,-9.0,-4.0,1.0,0.0,-1.0,-2.0
1705081110.2179189,-11.0,-5.0,28.0,11.0,1.0,2.0,2.0,-1.0
1705081110.2282581,3.0,-2.0,-13.0,-7.0,-2.0,-1.0,-2.0,2.0
1705081110.2282581,8.0,8.0,13.0,7.0,4.0,1.0,1.0,1.0
1705081110.2282581,-15.0,-35.0,-10.0,-6.0,-6.0,-3.0,-4.0,-7.0
1705081110.2282581,-2.0,-2.0,-8.0,-3.0,-2.0,-5.0,-1.0,-3.0
1705081110.2481847,-2.0,-4.0,7.0,8.0,5.0,2.0,0.0,3.0
1705081110.2481847,10.0,7.0,1.0,-3.0,-2.0,-2.0,-1.0,10.0
1705081110.2481847,-1.0,9.0,9.0,1.0,0.0,0.0,1.0,7.0
1705081110.2481847,-25.0,-15.0,-18.0,-10.0,-4.0,-2.0,-6.0,-11.0
1705081110.277919,-8.0,-4.0,-9.0,-9.0,-7.0,-6.0,-4.0,-7.0
1705081110.277919,-9.0,-16.0,-4.0,6.0,4.0,2.0,2.0,1.0
1705081110.277919,13.0,17.0,5.0,0.0,-1.0,0.0,-1.0,1.0
1705081110.277919,19.0,41.0,18.0,6.0,0.0,2.0,2.0,4.0
1705081110.28825,-5.0,-19.0,-31.0,-5.0,-2.0,-3.0,-1.0,-1.0
1705081110.28825,-5.0,4.0,8.0,-10.0,-7.0,0.0,0.0,-5.0
1705081110.28825,-1.0,-6.0,6.0,-8.0,-1.0,-3.0,-2.0,-1.0
1705081110.28825,-1.0,6.0,12.0,23.0,12.0,4.0,1.0,1.0
1705081110.3083081,11.0,-31.0,-7.0,-1.0,0.0,-2.0,-3.0,-1.0
1705081110.3083081,-30.0,-12.0,-28.0,-9.0,-4.0,-2.0,-4.0,-7.0
1705081110.3083081,4.0,27.0,4.0,-10.0,-6.0,-5.0,-2.0,1.0
1705081110.3083081,15.0,-7.0,-16.0,-15.0,-9.0,-5.0,-4.0,1.0
1705081110.3379183,6.0,5.0,10.0,-7.0,-5.0,-1.0,-1.0,-8.0
1705081110.3379183,-12.0,2.0,18.0,12.0,4.0,2.0,-1.0,-4.0
1705081110.3379183,5.0,-18.0,1.0,15.0,9.0,1.0,1.0,1.0
1705081110.3379183,-6.0,17.0,-1.0,0.0,0.0,0.0,0.0,0.0
1705081110.3479264,-4.0,-6.0,-5.0,-2.0,-1.0,0.0,-2.0,0.0
1705081110.3479264,11.0,9.0,-1.0,-6.0,-4.0,0.0,0.0,6.0
1705081110.3479264,-7.0,-11.0,-9.0,-6.0,-6.0,-4.0,-7.0,-22.0
1705081110.3479264,8.0,3.0,-2.0,-5.0,0.0,-4.0,-1.0,6.0
1705081110.3681977,-13.0,13.0,8.0,12.0,6.0,4.0,1.0,-1.0
1705081110.3779266,0.0,-11.0,8.0,3.0,1.0,-2.0,-3.0,-11.0
1705081110.3779266,6.0,3.0,5.0,1.0,1.0,0.0,2.0,7.0
1705081110.3779266,5.0,-19.0,-27.0,-10.0,-7.0,-5.0,-1.0,3.0
1705081110.4079227,-6.0,-19.0,13.0,-3.0,-2.0,0.0,-2.0,-1.0
1705081110.4079227,-2.0,31.0,8.0,8.0,2.0,2.0,1.0,2.0
1705081110.4079227,-9.0,-20.0,-19.0,3.0,1.0,2.0,1.0,2.0
1705081110.4079227,-7.0,-5.0,10.0,6.0,1.0,1.0,-1.0,2.0
1705081110.4079227,12.0,35.0,4.0,-3.0,-2.0,-2.0,1.0,6.0
1705081110.4079227,14.0,-19.0,-14.0,-6.0,-3.0,-3.0,-2.0,5.0
1705081110.4079227,-22.0,-75.0,-28.0,-16.0,-9.0,-5.0,-7.0,-7.0
1705081110.4079227,-21.0,-3.0,0.0,-1.0,-1.0,-1.0,-2.0,-6.0
1705081110.437921,2.0,4.0,-6.0,1.0,2.0,0.0,0.0,-1.0
1705081110.437921,7.0,1.0,13.0,4.0,0.0,-1.0,0.0,3.0
1705081110.437921,21.0,22.0,1.0,-1.0,7.0,-1.0,-1.0,2.0
1705081110.437921,4.0,-8.0,-10.0,-5.0,-9.0,-1.0,-1.0,-2.0
1705081110.4582877,-21.0,4.0,6.0,3.0,0.0,6.0,1.0,-2.0
1705081110.4582877,14.0,1.0,-7.0,-6.0,-7.0,-7.0,-4.0,2.0
1705081110.4582877,-39.0,4.0,5.0,7.0,0.0,-1.0,-3.0,-5.0
1705081110.4582877,20.0,8.0,8.0,3.0,4.0,-2.0,0.0,6.0
1705081110.4679213,-30.0,-38.0,-16.0,-8.0,-2.0,-5.0,-5.0,-16.0
1705081110.4679213,3.0,-19.0,-7.0,-6.0,-2.0,-1.0,0.0,1.0
1705081110.4679213,9.0,30.0,3.0,3.0,-2.0,1.0,1.0,7.0
1705081110.4679213,-9.0,6.0,13.0,9.0,4.0,1.0,0.0,2.0
1705081110.4979215,-30.0,-50.0,-44.0,-9.0,-6.0,-5.0,-5.0,-10.0
1705081110.4979215,-6.0,-10.0,-16.0,-14.0,-4.0,-4.0,-5.0,-11.0
1705081110.4979215,9.0,16.0,41.0,12.0,3.0,2.0,1.0,1.0
1705081110.4979215,-5.0,12.0,-7.0,-1.0,1.0,2.0,0.0,1.0
1705081110.518302,27.0,25.0,2.0,-3.0,-1.0,-1.0,2.0,7.0
1705081110.518302,-23.0,-29.0,-4.0,-8.0,-5.0,-2.0,-2.0,-4.0
1705081110.518302,27.0,1.0,-14.0,-6.0,-3.0,1.0,4.0,10.0
1705081110.518302,-23.0,13.0,15.0,8.0,4.0,2.0,-1.0,-2.0
1705081110.5282283,0.0,27.0,5.0,4.0,2.0,0.0,-7.0,-18.0
1705081110.5282283,-4.0,32.0,-8.0,1.0,0.0,-4.0,-7.0,-19.0
1705081110.5282283,3.0,-4.0,-2.0,-5.0,-5.0,-2.0,1.0,9.0
1705081110.5282283,-2.0,-30.0,-13.0,-11.0,-4.0,-2.0,1.0,-3.0
1705081110.5579224,4.0,21.0,9.0,-3.0,-4.0,-3.0,4.0,16.0
1705081110.5579224,-3.0,0.0,3.0,6.0,4.0,2.0,3.0,9.0
1705081110.5579224,-6.0,-1.0,-2.0,6.0,6.0,0.0,-1.0,-7.0
1705081110.5579224,5.0,-8.0,-6.0,-2.0,-4.0,-1.0,0.0,4.0
1705081110.5783505,13.0,7.0,4.0,-3.0,-4.0,0.0,1.0,-2.0
1705081110.5783505,7.0,3.0,-1.0,-4.0,-2.0,2.0,1.0,-1.0
1705081110.5783505,4.0,-12.0,-8.0,-2.0,8.0,0.0,-4.0,-2.0
1705081110.5783505,14.0,18.0,23.0,12.0,7.0,0.0,-1.0,-6.0
1705081110.5882475,-3.0,-15.0,2.0,6.0,2.0,-1.0,-2.0,1.0
1705081110.5882475,-25.0,-3.0,-6.0,-1.0,-3.0,1.0,-1.0,-2.0
1705081110.5982919,0.0,-5.0,-13.0,-8.0,-9.0,-2.0,-3.0,-5.0
1705081110.5982919,3.0,-13.0,-17.0,-17.0,-9.0,-5.0,-3.0,-6.0
1705081110.6259172,29.0,8.0,5.0,7.0,2.0,1.0,3.0,7.0
1705081110.6259172,24.0,7.0,10.0,6.0,1.0,-1.0,0.0,-1.0
1705081110.6259172,-6.0,16.0,2.0,-1.0,-3.0,-1.0,-1.0,-3.0
1705081110.6259172,-8.0,1.0,-4.0,-1.0,1.0,-4.0,-2.0,-4.0
1705081110.6395915,13.0,-11.0,-3.0,-6.0,-6.0,-1.0,1.0,7.0
1705081110.6395915,17.0,35.0,10.0,4.0,3.0,1.0,4.0,8.0
1705081110.6395915,-16.0,-16.0,-10.0,-10.0,-9.0,-4.0,-5.0,-10.0
1705081110.6395915,-4.0,-1.0,-5.0,2.0,5.0,2.0,-1.0,-5.0
1705081110.6520684,-9.0,13.0,9.0,7.0,5.0,-1.0,0.0,0.0
1705081110.6520684,6.0,-1.0,8.0,7.0,6.0,3.0,2.0,4.0
1705081110.6620677,-10.0,-14.0,4.0,-2.0,-4.0,-2.0,-2.0,3.0
1705081110.6620677,-7.0,-2.0,-11.0,-13.0,-8.0,1.0,-5.0,-2.0
1705081110.6721013,-9.0,-2.0,-10.0,-11.0,-9.0,-5.0,-4.0,-4.0
1705081110.6721013,-11.0,-52.0,-3.0,10.0,6.0,4.0,0.0,-1.0
1705081110.6721013,19.0,38.0,21.0,7.0,6.0,2.0,3.0,7.0
1705081110.6721013,5.0,4.0,-10.0,-2.0,0.0,-3.0,-1.0,1.0
1705081110.6923645,-15.0,-33.0,-10.0,-11.0,-8.0,-4.0,-5.0,-10.0
1705081110.6923645,2.0,5.0,-6.0,-13.0,-11.0,-5.0,-2.0,7.0
1705081110.6923645,-3.0,2.0,10.0,10.0,5.0,3.0,2.0,-4.0
1705081110.6923645,-18.0,-2.0,-1.0,2.0,-1.0,0.0,-2.0,-8.0
1705081110.7123392,-8.0,-7.0,2.0,0.0,3.0,1.0,1.0,1.0
1705081110.7123392,6.0,1.0,6.0,-1.0,1.0,-2.0,-2.0,-1.0
1705081110.7320676,1.0,-16.0,-9.0,3.0,-2.0,1.0,2.0,3.0
1705081110.7320676,20.0,36.0,16.0,7.0,1.0,0.0,2.0,3.0
1705081110.7320676,-1.0,8.0,-7.0,-3.0,-4.0,-3.0,-1.0,-1.0
1705081110.7320676,-26.0,-32.0,-16.0,-9.0,-6.0,-3.0,-1.0,-10.0
1705081110.7320676,4.0,8.0,10.0,-1.0,8.0,-3.0,2.0,5.0
1705081110.7320676,1.0,-1.0,6.0,0.0,-2.0,-2.0,-1.0,-1.0
1705081110.752469,3.0,-14.0,-4.0,8.0,8.0,2.0,0.0,3.0
1705081110.752469,-11.0,7.0,-4.0,-5.0,-4.0,0.0,-2.0,-1.0
1705081110.752469,3.0,-11.0,-10.0,-8.0,-6.0,-7.0,-3.0,-8.0
1705081110.752469,1.0,-36.0,-5.0,0.0,-1.0,0.0,0.0,-4.0
1705081110.7724457,-10.0,27.0,19.0,5.0,6.0,-4.0,-5.0,-10.0
1705081110.7724457,9.0,19.0,9.0,2.0,4.0,1.0,-1.0,2.0
1705081110.7920668,-26.0,-61.0,-23.0,-2.0,-2.0,1.0,-3.0,-3.0
1705081110.7920668,-7.0,1.0,-8.0,-10.0,-3.0,-2.0,-4.0,0.0
1705081110.7920668,15.0,1.0,6.0,-2.0,-4.0,0.0,1.0,8.0
1705081110.7920668,5.0,15.0,-3.0,5.0,5.0,1.0,3.0,0.0
1705081110.7920668,2.0,37.0,11.0,0.0,-4.0,-1.0,-1.0,-11.0
1705081110.7920668,14.0,-12.0,1.0,1.0,-4.0,-1.0,2.0,4.0
1705081110.8124712,-41.0,-19.0,-19.0,-10.0,-7.0,-2.0,-4.0,-9.0
1705081110.8124712,-20.0,-16.0,-4.0,-8.0,-4.0,-3.0,-2.0,-2.0
1705081110.8124712,32.0,9.0,5.0,3.0,2.0,3.0,1.0,6.0
1705081110.8124712,-29.0,4.0,4.0,-1.0,1.0,-1.0,2.0,10.0
1705081110.8324587,6.0,2.0,7.0,7.0,3.0,2.0,-2.0,-23.0
1705081110.8324587,-6.0,-19.0,0.0,3.0,-1.0,-3.0,-3.0,-5.0
1705081110.8420699,-13.0,-14.0,-8.0,-7.0,-3.0,-4.0,-2.0,0.0
1705081110.8420699,8.0,-2.0,2.0,-4.0,-4.0,-2.0,-2.0,2.0
1705081110.8520675,50.0,28.0,9.0,8.0,11.0,4.0,6.0,15.0
1705081110.8520675,-79.0,-10.0,-8.0,-5.0,-4.0,-1.0,-6.0,-16.0
1705081110.8520675,-2.0,15.0,1.0,-7.0,-7.0,-3.0,-2.0,0.0
1705081110.8520675,13.0,-14.0,-9.0,-5.0,-5.0,2.0,-1.0,5.0
1705081110.8920674,-19.0,-9.0,-4.0,-4.0,4.0,-3.0,-1.0,4.0
1705081110.8920674,28.0,15.0,24.0,11.0,8.0,-1.0,-1.0,0.0
1705081110.8920674,-16.0,-7.0,1.0,3.0,3.0,0.0,0.0,5.0
1705081110.8920674,-9.0,10.0,-3.0,4.0,-1.0,-1.0,-1.0,-8.0
1705081110.8920674,9.0,23.0,3.0,-1.0,-8.0,-1.0,-1.0,5.0
1705081110.8920674,16.0,-2.0,-16.0,-14.0,-11.0,-4.0,-2.0,1.0
1705081110.9020696,-16.0,-10.0,-1.0,-4.0,-5.0,-3.0,-2.0,-9.0
1705081110.9020696,-9.0,-2.0,-1.0,4.0,4.0,-2.0,-1.0,-6.0
1705081110.912487,2.0,-2.0,-1.0,-1.0,3.0,3.0,-1.0,-4.0
1705081110.912487,4.0,-6.0,-7.0,-5.0,-5.0,-1.0,-1.0,6.0
1705081110.912487,21.0,7.0,5.0,-2.0,-3.0,1.0,-2.0,0.0
1705081110.912487,-2.0,13.0,3.0,2.0,2.0,0.0,0.0,1.0
1705081110.9324725,4.0,-3.0,2.0,0.0,-4.0,0.0,0.0,1.0
1705081110.9324725,-13.0,-66.0,-27.0,-10.0,-10.0,-2.0,-4.0,-11.0
1705081110.9324725,-5.0,4.0,-5.0,-14.0,-5.0,-3.0,-3.0,-5.0
1705081110.9324725,7.0,12.0,0.0,-1.0,1.0,-1.0,-2.0,-6.0
1705081110.9624457,-1.0,0.0,8.0,6.0,3.0,1.0,3.0,10.0
1705081110.9624457,18.0,19.0,14.0,7.0,2.0,2.0,3.0,6.0
1705081110.9624457,1.0,-7.0,-16.0,-11.0,-10.0,-5.0,-4.0,-5.0
1705081110.9624457,-4.0,-23.0,-26.0,-12.0,-8.0,-6.0,-4.0,1.0
1705081110.9724073,3.0,31.0,53.0,28.0,8.0,4.0,1.0,-2.0
1705081110.9724073,-5.0,1.0,-11.0,2.0,4.0,-1.0,-1.0,-1.0
1705081110.9724073,-18.0,-15.0,-4.0,9.0,1.0,0.0,-1.0,-1.0
1705081110.9724073,2.0,4.0,-12.0,-5.0,0.0,0.0,-1.0,-4.0
1705081110.992108,13.0,-3.0,-5.0,-5.0,-5.0,-4.0,-2.0,4.0
1705081110.992108,-2.0,-1.0,-8.0,-4.0,-1.0,-1.0,-2.0,-3.0
1705081110.992108,2.0,13.0,8.0,1.0,1.0,-1.0,0.0,-1.0
1705081110.992108,5.0,2.0,6.0,-1.0,-1.0,1.0,3.0,-1.0
1705081111.0220685,-21.0,-35.0,-17.0,-8.0,-7.0,-4.0,-3.0,-5.0
1705081111.0220685,3.0,3.0,11.0,3.0,2.0,1.0,1.0,1.0
1705081111.0220685,14.0,22.0,7.0,1.0,-7.0,1.0,1.0,7.0
1705081111.0220685,-14.0,-14.0,6.0,8.0,8.0,0.0,1.0,3.0
1705081111.0321014,3.0,-19.0,-26.0,-13.0,-6.0,-4.0,-4.0,-4.0
1705081111.0321014,-17.0,18.0,12.0,4.0,0.0,-1.0,-3.0,-9.0
1705081111.0321014,9.0,-18.0,-11.0,-5.0,-3.0,-1.0,-1.0,-2.0
1705081111.0321014,-15.0,8.0,6.0,-4.0,-2.0,-3.0,-2.0,-4.0
1705081111.052068,1.0,4.0,0.0,0.0,1.0,2.0,-2.0,3.0
1705081111.052068,6.0,15.0,9.0,8.0,4.0,2.0,0.0,7.0
1705081111.052068,8.0,-7.0,-15.0,0.0,5.0,0.0,0.0,0.0
1705081111.052068,3.0,-5.0,-6.0,-2.0,-1.0,-2.0,-4.0,-5.0
1705081111.0823667,1.0,9.0,-8.0,-7.0,-4.0,-3.0,-3.0,-1.0
1705081111.0823667,16.0,-5.0,-3.0,-3.0,-2.0,2.0,0.0,-2.0
1705081111.0823667,-1.0,8.0,8.0,4.0,0.0,-1.0,3.0,0.0
1705081111.0823667,5.0,-36.0,-7.0,2.0,-2.0,-1.0,-2.0,1.0
1705081111.0923603,-1.0,-4.0,-17.0,-10.0,-6.0,-2.0,-1.0,-2.0
1705081111.0923603,10.0,1.0,1.0,-8.0,-10.0,-2.0,1.0,1.0
1705081111.0923603,-41.0,3.0,7.0,13.0,14.0,2.0,0.0,-9.0
1705081111.0923603,8.0,21.0,4.0,-1.0,-3.0,-1.0,2.0,3.0
1705081111.1320662,1.0,-5.0,-14.0,-12.0,-8.0,-8.0,-9.0,-6.0
1705081111.1320662,10.0,0.0,-7.0,-2.0,6.0,-1.0,-1.0,-1.0
1705081111.1320662,0.0,-12.0,-1.0,-3.0,-5.0,-1.0,-2.0,1.0
1705081111.1320662,-5.0,17.0,14.0,4.0,-2.0,0.0,0.0,1.0
1705081111.1423454,-26.0,6.0,0.0,7.0,4.0,1.0,2.0,-1.0
1705081111.1423454,-8.0,-1.0,-4.0,1.0,-1.0,-2.0,-1.0,-1.0
1705081111.1423454,-2.0,4.0,-4.0,-3.0,-4.0,-1.0,-1.0,-4.0
1705081111.1423454,-14.0,-7.0,-5.0,-5.0,-6.0,3.0,-1.0,5.0
1705081111.1573153,12.0,19.0,10.0,-1.0,-2.0,-2.0,1.0,0.0
1705081111.1573153,-6.0,-12.0,-16.0,-3.0,-1.0,-2.0,1.0,3.0
1705081111.1573153,9.0,-5.0,4.0,3.0,2.0,-1.0,-3.0,-6.0
1705081111.1573153,1.0,-7.0,-7.0,-3.0,-5.0,-1.0,-1.0,-5.0
1705081111.1804101,0.0,-23.0,2.0,-3.0,-1.0,-2.0,-1.0,2.0
1705081111.1804101,20.0,18.0,1.0,0.0,-5.0,-4.0,-1.0,2.0
1705081111.1804101,-23.0,-8.0,1.0,4.0,-2.0,-5.0,-4.0,-1.0
1705081111.1804101,9.0,6.0,-1.0,2.0,3.0,-3.0,-1.0,-2.0
1705081111.2036712,-5.0,-9.0,7.0,3.0,2.0,0.0,0.0,-2.0
1705081111.2036712,3.0,-8.0,-3.0,0.0,3.0,-1.0,0.0,2.0
1705081111.2036712,14.0,5.0,-11.0,-10.0,-7.0,-2.0,0.0,1.0
1705081111.2036712,-1.0,20.0,4.0,-5.0,-2.0,-2.0,-4.0,-8.0
1705081111.2138934,7.0,11.0,5.0,-1.0,1.0,1.0,1.0,3.0
1705081111.2138934,-22.0,2.0,4.0,1.0,-1.0,3.0,-1.0,-7.0
1705081111.2138934,2.0,0.0,0.0,-6.0,-6.0,3.0,0.0,2.0
1705081111.2138934,-1.0,0.0,-1.0,4.0,9.0,0.0,2.0,2.0
1705081111.2336707,-7.0,-5.0,3.0,-2.0,-2.0,0.0,-2.0,-1.0
1705081111.2336707,12.0,0.0,1.0,0.0,0.0,1.0,0.0,-6.0
1705081111.2336707,4.0,3.0,1.0,0.0,1.0,-1.0,1.0,7.0
1705081111.2336707,4.0,13.0,4.0,1.0,2.0,1.0,1.0,3.0
1705081111.254139,-20.0,-19.0,-13.0,-1.0,1.0,2.0,0.0,-9.0
1705081111.254139,-2.0,13.0,3.0,-2.0,1.0,0.0,0.0,17.0
1705081111.254139,-13.0,-4.0,16.0,5.0,4.0,-2.0,-8.0,-31.0
1705081111.254139,-2.0,-5.0,-12.0,-13.0,-11.0,-5.0,-7.0,-14.0
1705081111.2841718,3.0,-1.0,-8.0,-1.0,-2.0,-4.0,-2.0,4.0
1705081111.2841718,2.0,3.0,15.0,2.0,-1.0,-3.0,-2.0,-2.0
1705081111.2841718,9.0,1.0,-10.0,-5.0,-7.0,0.0,6.0,24.0
1705081111.2841718,2.0,-12.0,5.0,11.0,14.0,3.0,1.0,4.0
1705081111.2945688,-9.0,-1.0,-2.0,1.0,-1.0,0.0,-1.0,2.0
1705081111.2945688,6.0,-2.0,-6.0,-4.0,-3.0,-2.0,2.0,6.0
1705081111.2945688,5.0,-1.0,-6.0,-7.0,-6.0,-3.0,-5.0,-21.0
1705081111.2945688,-16.0,-17.0,3.0,-10.0,-7.0,-2.0,-3.0,-1.0
1705081111.3145154,2.0,6.0,1.0,6.0,0.0,-1.0,1.0,0.0
1705081111.3145154,0.0,-4.0,1.0,-3.0,-1.0,-2.0,-2.0,-3.0
1705081111.3145154,2.0,7.0,-1.0,2.0,3.0,0.0,-1.0,6.0
1705081111.3145154,-3.0,-6.0,-6.0,-4.0,-4.0,-2.0,0.0,-4.0
1705081111.3441715,12.0,-2.0,1.0,0.0,3.0,0.0,1.0,4.0
1705081111.3441715,2.0,6.0,5.0,7.0,1.0,-2.0,-2.0,-2.0
1705081111.3441715,-7.0,-3.0,-1.0,0.0,1.0,0.0,0.0,-2.0
1705081111.3441715,3.0,-2.0,-4.0,-1.0,-4.0,-2.0,-1.0,4.0
1705081111.3546224,-3.0,-2.0,-4.0,-5.0,-4.0,0.0,0.0,-5.0
1705081111.3546224,0.0,1.0,0.0,3.0,4.0,2.0,0.0,-3.0
1705081111.3546224,-6.0,-12.0,-1.0,-3.0,0.0,-1.0,-2.0,-4.0
1705081111.3546224,-7.0,-16.0,-18.0,-12.0,-10.0,-7.0,-5.0,-2.0
1705081111.374652,6.0,2.0,1.0,-5.0,-1.0,-4.0,0.0,-4.0
1705081111.374652,-14.0,-3.0,-3.0,-6.0,-3.0,0.0,-3.0,-6.0
1705081111.374652,0.0,-2.0,3.0,5.0,1.0,-1.0,2.0,8.0
1705081111.374652,1.0,-2.0,7.0,5.0,3.0,2.0,-1.0,-3.0
1705081111.394669,2.0,-2.0,-2.0,2.0,3.0,-2.0,-1.0,-3.0
1705081111.394669,6.0,15.0,8.0,5.0,4.0,1.0,4.0,7.0
1705081111.394669,-7.0,7.0,-8.0,-5.0,-2.0,-3.0,-3.0,0.0
1705081111.394669,-1.0,-3.0,-4.0,-1.0,-2.0,0.0,0.0,-3.0
1705081111.4150674,-1.0,4.0,-1.0,-6.0,-6.0,-2.0,-5.0,-3.0
1705081111.4150674,0.0,4.0,-1.0,0.0,1.0,0.0,-2.0,-1.0
1705081111.4150674,2.0,-3.0,0.0,-9.0,-9.0,-2.0,0.0,1.0
1705081111.4150674,4.0,14.0,12.0,7.0,14.0,0.0,0.0,-4.0
1705081111.4350455,-8.0,6.0,9.0,4.0,3.0,1.0,1.0,7.0
1705081111.4350455,-9.0,-36.0,-31.0,-11.0,-5.0,-3.0,-2.0,-5.0
1705081111.4350455,0.0,14.0,2.0,-6.0,-4.0,-2.0,-2.0,-6.0
1705081111.4350455,-1.0,0.0,7.0,-4.0,-4.0,-2.0,-2.0,-4.0
1705081111.4646327,6.0,-3.0,-2.0,6.0,0.0,2.0,-1.0,0.0
1705081111.4646327,9.0,60.0,19.0,4.0,5.0,2.0,1.0,1.0
1705081111.4646327,-16.0,-75.0,-32.0,-1.0,-3.0,-5.0,-7.0,-9.0
1705081111.4646327,0.0,9.0,-7.0,-7.0,-5.0,-1.0,2.0,1.0
1705081111.475019,-6.0,15.0,-5.0,-7.0,-2.0,-3.0,0.0,-7.0
1705081111.475019,-3.0,-21.0,0.0,2.0,-2.0,-1.0,-1.0,-3.0
1705081111.475019,3.0,10.0,13.0,6.0,4.0,4.0,5.0,10.0
1705081111.475019,7.0,32.0,11.0,6.0,9.0,-4.0,-1.0,-1.0
1705081111.5046325,-1.0,-10.0,-14.0,-9.0,-8.0,-5.0,-5.0,-4.0
1705081111.5046325,-9.0,19.0,3.0,-6.0,-2.0,-1.0,-1.0,-5.0
1705081111.5046325,2.0,18.0,5.0,2.0,4.0,0.0,1.0,2.0
1705081111.5046325,-3.0,-11.0,-2.0,2.0,-4.0,-1.0,-3.0,0.0
1705081111.5149753,3.0,-17.0,-3.0,1.0,1.0,2.0,2.0,4.0
1705081111.5149753,6.0,-10.0,-6.0,-4.0,-2.0,-3.0,-2.0,1.0
1705081111.5246897,-4.0,5.0,7.0,2.0,-3.0,1.0,-3.0,-1.0
1705081111.5246897,-5.0,-14.0,-6.0,-4.0,-6.0,1.0,-1.0,-5.0
1705081111.535061,1.0,13.0,-2.0,-2.0,-1.0,-1.0,0.0,-3.0
1705081111.535061,-5.0,-34.0,9.0,4.0,1.0,1.0,1.0,1.0
1705081111.535061,1.0,-8.0,-4.0,6.0,3.0,1.0,-3.0,-8.0
1705081111.535061,1.0,-2.0,-2.0,-5.0,-6.0,-1.0,0.0,1.0
1705081111.5646362,-3.0,-3.0,2.0,-4.0,-1.0,-3.0,-2.0,1.0
1705081111.5646362,-11.0,-14.0,-3.0,-1.0,0.0,-1.0,-4.0,-2.0
1705081111.5646362,-7.0,13.0,3.0,-1.0,2.0,-3.0,1.0,0.0
1705081111.5646362,14.0,-4.0,3.0,-9.0,-7.0,-5.0,-3.0,-2.0
1705081111.5749586,-5.0,-2.0,3.0,4.0,-1.0,1.0,-1.0,-3.0
1705081111.5749586,-1.0,7.0,-6.0,-4.0,-4.0,-2.0,-2.0,-4.0
1705081111.5846345,3.0,28.0,14.0,1.0,-1.0,-2.0,-1.0,2.0
1705081111.5846345,-5.0,-34.0,-22.0,3.0,3.0,3.0,1.0,3.0
1705081111.5947905,-3.0,-8.0,-8.0,0.0,1.0,-3.0,-2.0,2.0
1705081111.5947905,5.0,11.0,12.0,6.0,-2.0,-2.0,0.0,-1.0
1705081111.5947905,-4.0,-13.0,-23.0,-8.0,-3.0,-3.0,0.0,-1.0
1705081111.5947905,1.0,0.0,6.0,-1.0,-2.0,-3.0,-1.0,1.0
1705081111.6246333,-3.0,4.0,6.0,1.0,1.0,1.0,-2.0,-5.0
1705081111.6246333,2.0,-7.0,-17.0,-5.0,-5.0,-2.0,0.0,1.0
1705081111.6246333,-6.0,-20.0,-5.0,-8.0,-5.0,-4.0,-2.0,-3.0
1705081111.6246333,0.0,26.0,6.0,5.0,4.0,2.0,2.0,-1.0
1705081111.6347792,2.0,5.0,7.0,5.0,-1.0,2.0,-2.0,2.0
1705081111.6347792,-2.0,0.0,-5.0,-9.0,-4.0,-3.0,-2.0,-2.0
1705081111.6446867,9.0,9.0,11.0,8.0,5.0,1.0,1.0,4.0
1705081111.6446867,-3.0,-7.0,0.0,0.0,0.0,0.0,0.0,-1.0
1705081111.6550686,-3.0,-2.0,-6.0,-4.0,-3.0,-2.0,-3.0,-2.0
1705081111.6550686,-2.0,-4.0,-19.0,-11.0,-3.0,-3.0,-2.0,-1.0
1705081111.6550686,-1.0,3.0,4.0,-10.0,-6.0,-4.0,-2.0,-1.0
1705081111.6550686,-3.0,0.0,13.0,16.0,7.0,4.0,1.0,1.0
1705081111.6888418,2.0,-3.0,-3.0,-2.0,1.0,0.0,0.0,-1.0
1705081111.6888418,-3.0,4.0,6.0,-1.0,0.0,-1.0,-3.0,-5.0
1705081111.6888418,4.0,11.0,1.0,-3.0,-2.0,-4.0,-1.0,0.0
1705081111.6888418,-14.0,-20.0,-32.0,-21.0,-13.0,-8.0,-5.0,-6.0
1705081111.6964405,3.0,6.0,20.0,11.0,4.0,3.0,1.0,-1.0
1705081111.6964405,-3.0,-3.0,3.0,4.0,1.0,-2.0,-1.0,-1.0
1705081111.6995075,5.0,7.0,7.0,6.0,1.0,2.0,-1.0,1.0
1705081111.6995075,-16.0,-3.0,0.0,-1.0,1.0,-1.0,-3.0,-3.0
1705081111.7195451,1.0,4.0,-3.0,-9.0,-8.0,-6.0,-2.0,-1.0
1705081111.7195451,1.0,-14.0,-6.0,0.0,2.0,0.0,-2.0,-1.0
1705081111.7195451,-2.0,11.0,2.0,0.0,-1.0,-1.0,0.0,1.0
1705081111.7195451,7.0,-7.0,-5.0,-1.0,-3.0,-3.0,-1.0,-1.0
1705081111.7395093,-7.0,-17.0,-24.0,-9.0,-3.0,-2.0,-1.0,-2.0
1705081111.7395093,0.0,2.0,23.0,14.0,2.0,1.0,-1.0,-2.0
1705081111.7395093,4.0,3.0,-10.0,-2.0,0.0,0.0,0.0,0.0
1705081111.7395093,-1.0,-7.0,-10.0,-6.0,-4.0,-3.0,-1.0,0.0
1705081111.749867,2.0,1.0,3.0,3.0,2.0,0.0,-1.0,-2.0
1705081111.749867,1.0,-4.0,-6.0,-5.0,-2.0,-2.0,-2.0,0.0
1705081111.7598171,-1.0,-3.0,-1.0,4.0,2.0,2.0,-1.0,-2.0
1705081111.7598171,-2.0,-1.0,1.0,5.0,1.0,0.0,1.0,1.0
1705081111.7795382,-4.0,-2.0,-2.0,-6.0,-4.0,-4.0,-1.0,2.0
1705081111.7795382,-6.0,-9.0,-9.0,-4.0,-3.0,-2.0,-2.0,-1.0
1705081111.7795382,5.0,5.0,13.0,8.0,0.0,-1.0,-2.0,1.0
1705081111.7795382,-9.0,-13.0,-9.0,1.0,2.0,3.0,0.0,-3.0
1705081111.7997968,-14.0,8.0,9.0,-9.0,-5.0,-1.0,-3.0,-5.0
1705081111.7997968,4.0,-1.0,-2.0,4.0,1.0,2.0,2.0,0.0
1705081111.7997968,-6.0,1.0,4.0,7.0,6.0,1.0,1.0,-1.0
1705081111.7997968,17.0,0.0,-11.0,-7.0,-9.0,-3.0,-2.0,0.0
1705081111.8098476,-12.0,3.0,4.0,5.0,2.0,2.0,-1.0,-2.0
1705081111.8098476,3.0,5.0,-2.0,-4.0,-2.0,-3.0,0.0,-2.0
1705081111.8198009,-9.0,-6.0,2.0,-4.0,-3.0,-1.0,-2.0,-3.0
1705081111.8198009,6.0,4.0,5.0,-2.0,1.0,0.0,-1.0,0.0
1705081111.8395424,-7.0,-6.0,-3.0,1.0,2.0,0.0,1.0,0.0
1705081111.8395424,-19.0,-17.0,-10.0,-9.0,-6.0,-3.0,0.0,-3.0
1705081111.8395424,11.0,-4.0,1.0,-4.0,-2.0,-1.0,-2.0,0.0
1705081111.8395424,2.0,-5.0,-7.0,-5.0,-1.0,0.0,0.0,0.0
1705081111.8596954,3.0,6.0,10.0,4.0,-1.0,1.0,1.0,0.0
1705081111.8596954,13.0,6.0,-2.0,2.0,3.0,2.0,0.0,3.0
1705081111.8596954,-15.0,1.0,9.0,-1.0,-1.0,-2.0,-1.0,-5.0
1705081111.8596954,-5.0,-14.0,-3.0,1.0,2.0,-2.0,1.0,-2.0
1705081111.8697503,6.0,13.0,4.0,-2.0,-4.0,-2.0,-2.0,-2.0
1705081111.8697503,-12.0,1.0,0.0,-2.0,-3.0,-2.0,-1.0,-1.0
1705081111.8797076,0.0,-6.0,-17.0,-8.0,-2.0,-1.0,1.0,2.0
1705081111.8797076,7.0,10.0,18.0,3.0,-1.0,1.0,0.0,2.0
1705081111.9095085,2.0,-7.0,-5.0,6.0,4.0,3.0,1.0,-4.0
1705081111.9095085,-20.0,-14.0,-9.0,-6.0,-3.0,-2.0,-6.0,-9.0
1705081111.9095085,-6.0,0.0,-5.0,-2.0,-3.0,-2.0,-4.0,-2.0
1705081111.9095085,-4.0,-1.0,-1.0,-7.0,-4.0,-4.0,-3.0,0.0
1705081111.9198492,25.0,4.0,1.0,4.0,3.0,-1.0,0.0,5.0
1705081111.9198492,-11.0,-4.0,2.0,0.0,1.0,1.0,0.0,1.0
1705081111.9198492,7.0,8.0,5.0,5.0,1.0,-2.0,-1.0,-3.0
1705081111.9198492,-6.0,-23.0,-12.0,-4.0,-3.0,-5.0,-3.0,-4.0
1705081111.9399078,4.0,-1.0,-9.0,-7.0,-4.0,-3.0,-2.0,-2.0
1705081111.9399078,1.0,13.0,2.0,-3.0,-2.0,-2.0,-1.0,1.0
1705081111.9399078,3.0,0.0,1.0,3.0,1.0,1.0,1.0,2.0
1705081111.9399078,4.0,14.0,16.0,9.0,3.0,4.0,1.0,1.0
1705081111.95951,-6.0,-20.0,-17.0,-14.0,-5.0,-5.0,-1.0,-1.0
1705081111.95951,-5.0,-2.0,2.0,3.0,0.0,-2.0,-4.0,-4.0
1705081111.95951,4.0,-8.0,-15.0,-8.0,-2.0,-1.0,-2.0,-2.0
1705081111.95951,-2.0,7.0,6.0,4.0,3.0,1.0,-1.0,-3.0
1705081111.989508,-7.0,-1.0,4.0,-4.0,-4.0,-3.0,-3.0,-2.0
1705081111.989508,7.0,-4.0,1.0,4.0,-1.0,0.0,1.0,4.0
1705081111.989508,-1.0,-1.0,-10.0,-5.0,-2.0,-1.0,1.0,-1.0
1705081111.989508,1.0,15.0,22.0,5.0,4.0,2.0,0.0,1.0
1705081111.9998705,-18.0,-61.0,-23.0,0.0,-1.0,-2.0,-5.0,-7.0
1705081111.9998705,12.0,23.0,-6.0,-9.0,-7.0,-4.0,-4.0,-2.0
1705081111.9998705,-10.0,-24.0,-5.0,-9.0,-6.0,-3.0,-3.0,-3.0
1705081111.9998705,0.0,8.0,7.0,5.0,1.0,0.0,-1.0,-1.0
1705081112.009511,3.0,14.0,0.0,0.0,-1.0,1.0,0.0,1.0
1705081112.019509,3.0,-9.0,15.0,4.0,2.0,0.0,1.0,0.0
1705081112.019509,-1.0,-14.0,-15.0,-2.0,1.0,0.0,0.0,0.0
1705081112.019509,-1.0,10.0,-13.0,-12.0,-7.0,-4.0,-4.0,-1.0
1705081112.0399067,-1.0,12.0,1.0,-2.0,-1.0,-2.0,-4.0,-2.0
1705081112.0399067,-4.0,-14.0,1.0,9.0,4.0,2.0,-1.0,-4.0
1705081112.0399067,2.0,15.0,0.0,-7.0,-4.0,-2.0,-3.0,0.0
1705081112.0399067,-4.0,-16.0,-7.0,-5.0,-4.0,-2.0,-3.0,-2.0
1705081112.0599027,1.0,8.0,5.0,1.0,0.0,-1.0,1.0,1.0
1705081112.0599027,2.0,-5.0,-13.0,-11.0,-6.0,-4.0,-1.0,-2.0
1705081112.0599027,0.0,2.0,11.0,15.0,7.0,4.0,3.0,4.0
1705081112.0599027,4.0,-10.0,-5.0,3.0,1.0,-2.0,1.0,1.0
1705081112.0795505,-11.0,25.0,3.0,-3.0,-3.0,-2.0,-4.0,-4.0
1705081112.0795505,-1.0,2.0,-5.0,-6.0,-4.0,-3.0,-1.0,-1.0
1705081112.0795505,-6.0,-1.0,0.0,-5.0,-4.0,-1.0,-2.0,-5.0
1705081112.0795505,1.0,-2.0,-2.0,-1.0,-3.0,-1.0,3.0,-1.0
1705081112.0995114,10.0,18.0,18.0,12.0,7.0,2.0,0.0,2.0
1705081112.0995114,4.0,-2.0,7.0,9.0,4.0,3.0,0.0,3.0
1705081112.0995114,-2.0,4.0,-4.0,-5.0,-5.0,-2.0,-2.0,-4.0
1705081112.0995114,-3.0,1.0,-7.0,-7.0,-6.0,-2.0,-3.0,-3.0
1705081112.119509,2.0,-4.0,-1.0,-6.0,-4.0,-2.0,-1.0,0.0
1705081112.119509,-2.0,2.0,-1.0,-3.0,-2.0,-2.0,-1.0,-4.0
1705081112.119509,0.0,-5.0,8.0,1.0,2.0,-1.0,0.0,-1.0
1705081112.119509,0.0,2.0,5.0,10.0,5.0,2.0,1.0,1.0
1705081112.139602,-2.0,3.0,-10.0,-9.0,-5.0,-2.0,-3.0,-3.0
1705081112.139602,0.0,-1.0,-5.0,-1.0,-2.0,0.0,-1.0,-1.0
1705081112.139602,-2.0,0.0,0.0,-8.0,-7.0,-3.0,-3.0,-2.0
1705081112.139602,-1.0,1.0,6.0,-1.0,2.0,3.0,1.0,0.0
1705081112.1598527,-1.0,-12.0,-6.0,4.0,2.0,1.0,-1.0,-1.0
1705081112.1598527,2.0,2.0,-1.0,-2.0,0.0,0.0,-1.0,-1.0
1705081112.1598527,-1.0,-6.0,-7.0,-5.0,-4.0,-5.0,-1.0,-3.0
1705081112.1598527,-2.0,-2.0,-6.0,-4.0,0.0,2.0,-1.0,-2.0
1705081112.17951,1.0,-4.0,5.0,1.0,-4.0,-3.0,-2.0,-1.0
1705081112.17951,0.0,-1.0,1.0,-1.0,-3.0,-3.0,-1.0,0.0
1705081112.17951,-1.0,-4.0,-8.0,-4.0,-3.0,-1.0,-2.0,-1.0
1705081112.17951,-5.0,4.0,8.0,3.0,-1.0,-2.0,-3.0,-2.0
1705081112.1995854,3.0,3.0,6.0,4.0,3.0,4.0,2.0,3.0
1705081112.1995854,-3.0,-5.0,-4.0,-4.0,-3.0,-2.0,-3.0,-2.0
1705081112.1995854,2.0,11.0,-5.0,-1.0,-1.0,0.0,-1.0,0.0
1705081112.1995854,-2.0,-12.0,-6.0,-7.0,-4.0,-2.0,-2.0,-2.0
1705081112.2218518,-8.0,-6.0,1.0,1.0,-1.0,0.0,0.0,-3.0
1705081112.2218518,2.0,-6.0,-3.0,-3.0,-2.0,-2.0,2.0,-1.0
1705081112.2218518,-1.0,19.0,8.0,7.0,4.0,0.0,-1.0,1.0
1705081112.2218518,-3.0,-14.0,-13.0,-2.0,0.0,-1.0,-1.0,-2.0
1705081112.2422683,0.0,-7.0,0.0,-8.0,-2.0,-1.0,0.0,1.0
1705081112.2422683,1.0,7.0,4.0,6.0,3.0,2.0,-1.0,-1.0
1705081112.2422683,-3.0,-17.0,-5.0,-4.0,-8.0,-6.0,-2.0,-2.0
1705081112.2422683,-2.0,10.0,1.0,-4.0,-2.0,-4.0,-4.0,-4.0
1705081112.2525663,1.0,-6.0,-2.0,1.0,2.0,2.0,0.0,2.0
1705081112.2525663,-2.0,-3.0,-7.0,0.0,2.0,-2.0,-2.0,-1.0
1705081112.2525663,-1.0,-8.0,4.0,0.0,0.0,-1.0,0.0,1.0
1705081112.2525663,-1.0,12.0,6.0,1.0,-2.0,-2.0,-3.0,-2.0
1705081112.282271,1.0,-5.0,-10.0,-7.0,-5.0,-2.0,-1.0,-1.0
1705081112.282271,-2.0,1.0,2.0,0.0,-2.0,-2.0,-2.0,-2.0
1705081112.282271,-1.0,-3.0,-4.0,-5.0,0.0,-2.0,-1.0,-1.0
1705081112.282271,0.0,-5.0,-4.0,2.0,3.0,1.0,0.0,-1.0
1705081112.3025725,0.0,4.0,3.0,2.0,0.0,3.0,0.0,0.0
1705081112.3025725,-1.0,-9.0,-11.0,-4.0,-2.0,0.0,0.0,0.0
1705081112.3025725,1.0,8.0,0.0,3.0,2.0,0.0,-1.0,-1.0
1705081112.3025725,1.0,-2.0,0.0,1.0,-1.0,-1.0,1.0,0.0
1705081112.3122702,-7.0,-3.0,-7.0,-4.0,-3.0,-3.0,-3.0,-3.0
1705081112.3122702,-1.0,5.0,14.0,-2.0,-3.0,0.0,-1.0,0.0
1705081112.3122702,-1.0,0.0,-2.0,2.0,-1.0,-2.0,-1.0,1.0
1705081112.3122702,-2.0,4.0,-14.0,-11.0,-6.0,-3.0,-2.0,-2.0
1705081112.342268,-3.0,-3.0,9.0,14.0,7.0,1.0,1.0,-1.0
1705081112.342268,0.0,6.0,-8.0,-1.0,0.0,1.0,-1.0,-2.0
1705081112.342268,1.0,7.0,19.0,4.0,1.0,0.0,2.0,0.0
1705081112.342268,0.0,5.0,3.0,1.0,-3.0,-1.0,2.0,0.0
1705081112.3626616,-1.0,-8.0,-7.0,-11.0,-8.0,-5.0,-2.0,-1.0
1705081112.3626616,-2.0,0.0,-9.0,-4.0,-2.0,-1.0,-2.0,-1.0
1705081112.3626616,1.0,-1.0,2.0,4.0,4.0,2.0,-2.0,0.0
1705081112.3626616,1.0,-6.0,-2.0,0.0,-1.0,1.0,1.0,0.0
1705081112.3725917,-8.0,-3.0,-7.0,-10.0,-6.0,-5.0,-1.0,-3.0
1705081112.3725917,2.0,-3.0,4.0,0.0,-1.0,1.0,0.0,0.0
1705081112.3725917,-2.0,-1.0,-3.0,-2.0,1.0,2.0,-2.0,0.0
1705081112.3725917,-2.0,-5.0,2.0,-4.0,-7.0,0.0,-1.0,0.0
1705081112.402269,4.0,6.0,1.0,5.0,12.0,1.0,1.0,0.0
1705081112.402269,0.0,2.0,3.0,-1.0,0.0,-2.0,1.0,-1.0
1705081112.402269,-3.0,-15.0,-7.0,0.0,0.0,-1.0,0.0,-2.0
1705081112.402269,2.0,23.0,21.0,1.0,-1.0,0.0,0.0,0.0
1705081112.422529,-4.0,-18.0,-8.0,2.0,-1.0,0.0,1.0,-1.0
1705081112.422529,1.0,3.0,-3.0,-1.0,-1.0,-1.0,-2.0,1.0
1705081112.422529,-2.0,-6.0,-8.0,-4.0,-2.0,-2.0,-1.0,-2.0
1705081112.422529,-1.0,-1.0,-1.0,-1.0,0.0,-1.0,-2.0,-2.0
1705081112.4322727,2.0,11.0,5.0,0.0,1.0,3.0,0.0,0.0
1705081112.4322727,0.0,0.0,-3.0,-6.0,-3.0,-4.0,-2.0,-3.0
1705081112.4322727,0.0,3.0,1.0,2.0,1.0,2.0,0.0,-1.0
1705081112.4322727,-3.0,-9.0,-6.0,4.0,0.0,-3.0,-1.0,0.0
1705081112.4722698,0.0,9.0,-7.0,-4.0,-3.0,-2.0,-1.0,-3.0
1705081112.4722698,-3.0,-9.0,0.0,2.0,0.0,1.0,-2.0,2.0
1705081112.4722698,-1.0,-9.0,-12.0,-12.0,-7.0,-3.0,-2.0,-1.0
1705081112.4722698,-4.0,-2.0,-1.0,-3.0,1.0,-5.0,-3.0,-1.0
1705081112.482302,2.0,-4.0,5.0,1.0,-2.0,0.0,1.0,0.0
1705081112.482302,4.0,0.0,-2.0,2.0,0.0,-1.0,1.0,0.0
1705081112.482302,-6.0,-7.0,-10.0,-1.0,-2.0,-3.0,0.0,-2.0
1705081112.482302,-2.0,-10.0,-3.0,-5.0,-2.0,1.0,-1.0,-2.0
1705081112.4924774,2.0,3.0,0.0,-2.0,-1.0,-2.0,-1.0,1.0
1705081112.4924774,-3.0,-1.0,-10.0,-5.0,0.0,-1.0,0.0,-2.0
1705081112.5025818,4.0,6.0,10.0,4.0,0.0,0.0,1.0,0.0
1705081112.5025818,-2.0,10.0,15.0,2.0,2.0,0.0,-1.0,-3.0
1705081112.5222812,-1.0,-1.0,-5.0,-3.0,-7.0,-4.0,-3.0,-3.0
1705081112.5222812,-4.0,-9.0,-3.0,1.0,-1.0,-1.0,-3.0,0.0
1705081112.5222812,-2.0,1.0,7.0,6.0,2.0,1.0,-2.0,0.0
1705081112.5222812,-1.0,-1.0,-4.0,-2.0,-2.0,0.0,-1.0,0.0
1705081112.5525959,-1.0,-6.0,-7.0,-6.0,-2.0,-1.0,-3.0,-2.0
1705081112.5525959,-1.0,6.0,13.0,5.0,0.0,3.0,-2.0,-1.0
1705081112.5525959,-1.0,0.0,-13.0,-5.0,-1.0,-2.0,-4.0,-3.0
1705081112.5525959,-2.0,-3.0,-8.0,-3.0,-2.0,0.0,-2.0,-1.0
1705081112.562597,-2.0,1.0,7.0,5.0,-5.0,-2.0,-1.0,0.0
1705081112.562597,1.0,-1.0,-7.0,-3.0,6.0,-4.0,0.0,0.0
1705081112.562597,0.0,-1.0,-1.0,-2.0,-2.0,-2.0,-1.0,-1.0
1705081112.562597,2.0,6.0,0.0,-2.0,-1.0,-3.0,1.0,-2.0
1705081112.592268,-3.0,-29.0,-20.0,-11.0,-4.0,0.0,-1.0,0.0
1705081112.592268,-1.0,-1.0,4.0,-1.0,-2.0,0.0,0.0,-4.0
1705081112.592268,-1.0,-1.0,0.0,-2.0,0.0,0.0,-1.0,-3.0
1705081112.592268,0.0,-2.0,4.0,7.0,4.0,-1.0,-3.0,1.0
1705081112.6025724,2.0,7.0,6.0,2.0,1.0,0.0,-1.0,-1.0
1705081112.6025724,-2.0,-3.0,-5.0,-5.0,-3.0,-2.0,-1.0,1.0
1705081112.6025724,-2.0,-3.0,-3.0,1.0,0.0,1.0,-1.0,0.0
1705081112.6025724,-2.0,-4.0,3.0,5.0,-4.0,-1.0,-1.0,0.0
1705081112.6126058,0.0,11.0,2.0,0.0,1.0,-2.0,-1.0,-1.0
1705081112.6126058,-2.0,-3.0,-3.0,-3.0,-3.0,1.0,0.0,-1.0
1705081112.6322682,-1.0,1.0,2.0,-5.0,-3.0,-2.0,0.0,-1.0
1705081112.6322682,-1.0,-1.0,-3.0,-2.0,1.0,1.0,1.0,-1.0
1705081112.6425774,-1.0,0.0,4.0,-1.0,-1.0,1.0,-3.0,-1.0
1705081112.6425774,-3.0,-1.0,1.0,3.0,0.0,0.0,0.0,1.0
1705081112.6425774,-1.0,-1.0,1.0,-1.0,-4.0,-2.0,-1.0,0.0
1705081112.6425774,-1.0,-3.0,-4.0,0.0,3.0,0.0,2.0,0.0
1705081112.6626685,-1.0,-4.0,0.0,-4.0,-2.0,0.0,-1.0,-1.0
1705081112.6626685,-1.0,6.0,1.0,-3.0,-4.0,-3.0,-1.0,0.0
1705081112.6626685,-1.0,-8.0,-10.0,-6.0,-3.0,0.0,-2.0,-3.0
1705081112.6626685,-1.0,5.0,10.0,-1.0,-2.0,-2.0,-3.0,0.0
1705081112.6725876,-1.0,-3.0,-9.0,-1.0,3.0,-2.0,0.0,-3.0
1705081112.6725876,1.0,7.0,12.0,4.0,0.0,2.0,0.0,0.0
1705081112.6922686,0.0,5.0,4.0,2.0,-2.0,-1.0,0.0,-1.0
1705081112.6922686,4.0,1.0,-10.0,-7.0,-4.0,1.0,-2.0,-1.0
1705081112.7022808,-6.0,-6.0,1.0,-2.0,-7.0,-2.0,-1.0,-1.0
1705081112.7022808,-8.0,-2.0,-2.0,-3.0,-1.0,-1.0,-3.0,-3.0
1705081112.7022808,1.0,0.0,-1.0,3.0,2.0,1.0,0.0,1.0
1705081112.7022808,-2.0,2.0,-4.0,-5.0,1.0,1.0,0.0,0.0
1705081112.7226467,4.0,-9.0,2.0,7.0,-1.0,0.0,3.0,2.0
1705081112.7226467,2.0,19.0,3.0,-3.0,3.0,-6.0,-3.0,-4.0
1705081112.7226467,-15.0,-36.0,-8.0,-3.0,-1.0,1.0,-3.0,-4.0
1705081112.7226467,5.0,16.0,2.0,1.0,0.0,-1.0,-1.0,2.0
1705081112.7322702,-4.0,-8.0,0.0,-2.0,2.0,-1.0,-2.0,0.0
1705081112.7322702,0.0,-18.0,-9.0,-6.0,-4.0,-3.0,1.0,0.0
1705081112.746483,11.0,61.0,4.0,-2.0,-4.0,-3.0,1.0,1.0
1705081112.746483,-9.0,-41.0,-8.0,3.0,3.0,-1.0,-2.0,-4.0
1705081112.7616127,2.0,11.0,-3.0,2.0,2.0,0.0,0.0,-1.0
1705081112.7616127,-7.0,-10.0,-1.0,-2.0,-5.0,-1.0,0.0,-3.0
1705081112.7623918,6.0,25.0,13.0,-1.0,0.0,1.0,0.0,1.0
1705081112.7623918,1.0,-1.0,-15.0,-7.0,-7.0,-3.0,-2.0,-1.0
1705081112.775613,-5.0,-17.0,11.0,6.0,4.0,1.0,-4.0,-2.0
1705081112.775613,6.0,-8.0,-7.0,2.0,0.0,3.0,0.0,1.0
1705081112.78527,-10.0,-28.0,-9.0,-4.0,4.0,-2.0,-2.0,-3.0
1705081112.78527,-3.0,-24.0,1.0,4.0,0.0,-1.0,1.0,-2.0
1705081112.79526,-3.0,9.0,1.0,-6.0,-2.0,-4.0,-1.0,0.0
1705081112.79526,1.0,4.0,-2.0,-2.0,-1.0,-2.0,0.0,-2.0
1705081112.8054464,-4.0,-17.0,-1.0,3.0,-2.0,-1.0,1.0,1.0
1705081112.8054464,7.0,9.0,1.0,-4.0,0.0,2.0,0.0,1.0
1705081112.8155117,9.0,19.0,0.0,5.0,6.0,1.0,3.0,2.0
1705081112.8155117,-17.0,-23.0,-6.0,-7.0,-5.0,-4.0,-6.0,-5.0
1705081112.8155117,-5.0,-7.0,-8.0,1.0,2.0,1.0,0.0,0.0
1705081112.8155117,16.0,10.0,-3.0,-2.0,-2.0,-2.0,2.0,4.0
1705081112.8452642,-33.0,-16.0,-9.0,-10.0,-9.0,-5.0,-6.0,-14.0
1705081112.8452642,4.0,22.0,11.0,11.0,6.0,3.0,-1.0,-4.0
1705081112.8452642,-3.0,-3.0,1.0,-2.0,-5.0,-2.0,-3.0,-4.0
1705081112.8452642,-5.0,-10.0,-24.0,-10.0,1.0,-6.0,-4.0,0.0
1705081112.8752608,18.0,24.0,-6.0,-1.0,-3.0,-1.0,0.0,6.0
1705081112.8752608,-3.0,-28.0,5.0,10.0,1.0,2.0,3.0,2.0
1705081112.8752608,-2.0,-9.0,2.0,1.0,2.0,2.0,1.0,5.0
1705081112.8752608,17.0,19.0,17.0,11.0,0.0,3.0,1.0,2.0
1705081112.8752608,-16.0,-25.0,-16.0,-12.0,-4.0,-4.0,-3.0,-6.0
1705081112.8752608,-4.0,16.0,-15.0,-11.0,-5.0,-4.0,-5.0,-5.0
1705081112.8752608,-6.0,-11.0,-8.0,-8.0,-5.0,-3.0,-4.0,-4.0
1705081112.8752608,-8.0,-5.0,-1.0,3.0,1.0,2.0,-1.0,1.0
1705081112.9052637,39.0,6.0,12.0,3.0,5.0,1.0,3.0,8.0
1705081112.9052637,-24.0,-12.0,0.0,0.0,-2.0,-3.0,-2.0,-4.0
1705081112.9052637,-20.0,-1.0,-2.0,-2.0,-4.0,-2.0,0.0,-3.0
1705081112.9052637,-15.0,-11.0,-8.0,-8.0,-5.0,-5.0,-5.0,-10.0
1705081112.9252613,-4.0,0.0,1.0,1.0,-5.0,2.0,-2.0,1.0
1705081112.9252613,28.0,12.0,-26.0,-8.0,2.0,6.0,5.0,9.0
1705081112.9252613,22.0,26.0,18.0,6.0,-4.0,-7.0,-1.0,0.0
1705081112.9252613,-37.0,-24.0,6.0,1.0,0.0,0.0,-6.0,-16.0
1705081112.9355686,1.0,14.0,-16.0,-3.0,-5.0,-3.0,-3.0,-2.0
1705081112.9355686,8.0,-12.0,-7.0,-10.0,-5.0,1.0,1.0,7.0
1705081112.9355686,11.0,8.0,34.0,11.0,11.0,6.0,0.0,5.0
1705081112.9355686,11.0,10.0,1.0,7.0,-1.0,0.0,2.0,8.0
1705081112.9552686,-5.0,-7.0,1.0,-5.0,-7.0,-5.0,0.0,10.0
1705081112.9552686,5.0,-1.0,11.0,2.0,-3.0,-3.0,-5.0,-16.0
1705081112.9652586,-7.0,-18.0,-16.0,-3.0,4.0,1.0,-3.0,-13.0
1705081112.9652586,15.0,14.0,7.0,2.0,3.0,2.0,2.0,-1.0
1705081112.9855163,-4.0,-5.0,8.0,10.0,5.0,4.0,2.0,3.0
1705081112.9855163,-33.0,2.0,1.0,-2.0,-10.0,-3.0,0.0,6.0
1705081112.9855163,25.0,2.0,-12.0,-6.0,-2.0,-2.0,-4.0,2.0
1705081112.9855163,21.0,14.0,-6.0,-4.0,-3.0,-2.0,0.0,4.0
1705081112.9954941,-13.0,-20.0,-7.0,-2.0,0.0,1.0,0.0,2.0
1705081112.9954941,2.0,14.0,11.0,11.0,7.0,3.0,-2.0,2.0
1705081112.9954941,-11.0,2.0,-11.0,-10.0,-8.0,-3.0,-2.0,-3.0
1705081112.9954941,16.0,2.0,-5.0,-6.0,-4.0,-3.0,1.0,3.0
1705081113.0352602,4.0,11.0,10.0,6.0,2.0,-5.0,-2.0,-5.0
1705081113.0352602,8.0,-8.0,-2.0,4.0,6.0,-1.0,0.0,-1.0
1705081113.0352602,-24.0,-5.0,-11.0,1.0,-1.0,-1.0,-2.0,-3.0
1705081113.0352602,4.0,-4.0,10.0,0.0,1.0,2.0,1.0,-3.0
1705081113.0452955,-7.0,9.0,2.0,-5.0,-3.0,-2.0,-3.0,-6.0
1705081113.0452955,-2.0,-18.0,-13.0,-8.0,-3.0,-6.0,-2.0,-1.0
1705081113.0452955,12.0,3.0,-3.0,-2.0,-8.0,-2.0,-1.0,-4.0
1705081113.0452955,-21.0,-17.0,-10.0,-3.0,0.0,0.0,1.0,8.0
1705081113.0552614,2.0,-5.0,4.0,2.0,2.0,0.0,-6.0,-13.0
1705081113.0552614,-4.0,36.0,14.0,7.0,6.0,5.0,4.0,5.0
1705081113.0552614,34.0,-6.0,-16.0,-1.0,3.0,4.0,4.0,11.0
1705081113.0552614,-34.0,1.0,1.0,4.0,-2.0,-3.0,-3.0,-7.0
1705081113.0752606,8.0,-9.0,-9.0,-8.0,-1.0,-2.0,2.0,16.0
1705081113.0752606,1.0,-19.0,3.0,-9.0,-6.0,-4.0,-3.0,-11.0
1705081113.0852585,-17.0,-11.0,-1.0,5.0,2.0,-1.0,-2.0,-3.0
1705081113.0852585,-14.0,-15.0,-10.0,-4.0,-2.0,-2.0,0.0,6.0
1705081113.1056595,12.0,3.0,-12.0,-8.0,-2.0,-2.0,-3.0,-1.0
1705081113.1056595,-7.0,14.0,-22.0,-11.0,-4.0,-1.0,-2.0,-4.0
1705081113.1056595,0.0,-20.0,8.0,1.0,0.0,-1.0,0.0,1.0
1705081113.1056595,15.0,30.0,17.0,2.0,1.0,-3.0,-1.0,5.0
1705081113.1156278,-16.0,-11.0,9.0,3.0,-1.0,-4.0,-3.0,-8.0
1705081113.1156278,12.0,-19.0,-7.0,1.0,-1.0,1.0,1.0,2.0
1705081113.1156278,-1.0,25.0,-4.0,-7.0,0.0,-4.0,-3.0,-2.0
1705081113.1156278,-1.0,4.0,10.0,0.0,-4.0,0.0,1.0,3.0
1705081113.1352608,-36.0,-3.0,-2.0,-3.0,-2.0,2.0,-2.0,-8.0
1705081113.1352608,18.0,-8.0,-1.0,5.0,1.0,-8.0,-6.0,-17.0
1705081113.1452582,-11.0,59.0,18.0,6.0,3.0,5.0,1.0,-6.0
1705081113.1452582,6.0,16.0,-13.0,-11.0,-6.0,-6.0,-7.0,-7.0
1705081113.1656506,5.0,1.0,-17.0,-16.0,-9.0,-3.0,0.0,-1.0
1705081113.1656506,-4.0,-8.0,-10.0,-9.0,-4.0,2.0,5.0,7.0
1705081113.1656506,-24.0,3.0,12.0,11.0,8.0,-1.0,-4.0,-3.0
1705081113.1656506,24.0,56.0,27.0,11.0,5.0,2.0,2.0,5.0
1705081113.185259,-17.0,-53.0,-25.0,0.0,-1.0,-3.0,-4.0,-8.0
1705081113.185259,-30.0,26.0,16.0,-9.0,-18.0,-3.0,-4.0,-5.0
1705081113.185259,9.0,-51.0,-29.0,-12.0,-1.0,0.0,1.0,0.0
1705081113.185259,-2.0,11.0,14.0,5.0,1.0,3.0,0.0,2.0
1705081113.205311,9.0,-18.0,6.0,12.0,5.0,3.0,2.0,4.0
1705081113.205311,13.0,-3.0,22.0,8.0,2.0,0.0,1.0,7.0
1705081113.205311,-5.0,-21.0,-30.0,-11.0,-8.0,-4.0,0.0,3.0
1705081113.205311,-21.0,-41.0,-27.0,-17.0,-8.0,-5.0,-7.0,-13.0
1705081113.2252624,4.0,32.0,13.0,2.0,1.0,2.0,3.0,0.0
1705081113.2252624,7.0,-9.0,0.0,6.0,8.0,1.0,-1.0,-2.0
1705081113.2252624,8.0,13.0,27.0,4.0,-3.0,1.0,0.0,0.0
1705081113.2252624,10.0,7.0,-4.0,9.0,4.0,3.0,0.0,1.0
1705081113.2452586,3.0,15.0,-7.0,-3.0,-3.0,-2.0,-1.0,-2.0
1705081113.2452586,5.0,-12.0,-1.0,-4.0,-3.0,-3.0,-1.0,11.0
1705081113.2452586,-25.0,-6.0,4.0,4.0,1.0,-2.0,-1.0,-10.0
1705081113.2452586,-3.0,-5.0,-13.0,-8.0,-2.0,-1.0,0.0,0.0
1705081113.2652597,17.0,9.0,38.0,7.0,0.0,0.0,0.0,-2.0
1705081113.2652597,-32.0,8.0,-4.0,-2.0,0.0,0.0,-1.0,-5.0
1705081113.2652597,15.0,20.0,-7.0,-8.0,-15.0,-5.0,-4.0,-3.0
1705081113.2652597,-17.0,-13.0,8.0,6.0,8.0,2.0,1.0,-5.0
1705081113.2875473,16.0,8.0,-4.0,0.0,0.0,4.0,1.0,3.0
1705081113.2875473,4.0,-2.0,-7.0,4.0,8.0,-2.0,0.0,-2.0
1705081113.2875473,-17.0,-38.0,-22.0,-10.0,-5.0,-1.0,0.0,6.0
1705081113.2875473,12.0,26.0,17.0,4.0,2.0,-1.0,-1.0,-11.0
1705081113.3080046,20.0,6.0,-12.0,-10.0,-6.0,-5.0,-3.0,8.0
1705081113.3080046,-30.0,-43.0,-21.0,-13.0,-11.0,-4.0,-8.0,-17.0
1705081113.3080046,-1.0,-1.0,4.0,0.0,3.0,0.0,-1.0,2.0
1705081113.3080046,3.0,-9.0,-10.0,-1.0,-7.0,-2.0,-1.0,2.0
1705081113.318276,-1.0,21.0,14.0,7.0,9.0,1.0,2.0,3.0
1705081113.318276,26.0,1.0,5.0,1.0,2.0,1.0,1.0,-4.0
1705081113.318276,6.0,-2.0,-8.0,-6.0,-4.0,-3.0,-1.0,-2.0
1705081113.318276,-4.0,-26.0,2.0,-5.0,-5.0,-1.0,0.0,-5.0
1705081113.348097,-20.0,-14.0,-14.0,-2.0,-5.0,-2.0,-4.0,-6.0
1705081113.348097,-1.0,4.0,9.0,2.0,-4.0,0.0,-1.0,6.0
1705081113.348097,13.0,2.0,4.0,3.0,7.0,4.0,5.0,6.0
1705081113.348097,21.0,17.0,10.0,5.0,2.0,1.0,1.0,-9.0
1705081113.378092,-54.0,-10.0,-12.0,-6.0,-6.0,-4.0,-1.0,-8.0
1705081113.378092,11.0,2.0,4.0,-4.0,2.0,-3.0,-3.0,4.0
1705081113.378092,4.0,-45.0,-24.0,-3.0,-2.0,-4.0,-4.0,1.0
1705081113.378092,-25.0,-35.0,-12.0,-4.0,-1.0,2.0,0.0,0.0
1705081113.378092,6.0,8.0,13.0,5.0,5.0,3.0,1.0,-7.0
1705081113.378092,10.0,18.0,3.0,-1.0,1.0,0.0,2.0,6.0
1705081113.378092,8.0,20.0,2.0,1.0,-9.0,-1.0,1.0,-10.0
1705081113.378092,-17.0,-18.0,-15.0,-2.0,-1.0,-5.0,-5.0,-7.0
1705081113.4080913,2.0,-7.0,-16.0,-6.0,-5.0,-4.0,-5.0,-3.0
1705081113.4080913,0.0,-1.0,2.0,-1.0,-7.0,-1.0,-1.0,3.0
1705081113.4080913,3.0,41.0,12.0,3.0,4.0,1.0,-1.0,2.0
1705081113.4080913,4.0,5.0,-2.0,-2.0,-5.0,-2.0,-1.0,3.0
1705081113.4284325,4.0,20.0,11.0,-1.0,-2.0,-3.0,-1.0,1.0
1705081113.4284325,-6.0,-3.0,-8.0,2.0,6.0,-1.0,-3.0,-5.0
1705081113.4284325,-4.0,-5.0,0.0,-3.0,1.0,-2.0,-2.0,-4.0
1705081113.4284325,9.0,18.0,7.0,1.0,0.0,0.0,0.0,4.0
1705081113.438487,0.0,23.0,4.0,-1.0,1.0,-4.0,2.0,4.0
1705081113.438487,-8.0,-22.0,-13.0,-13.0,-17.0,-6.0,-1.0,-2.0
1705081113.438487,1.0,1.0,5.0,6.0,7.0,0.0,-5.0,-5.0
1705081113.438487,-6.0,-16.0,-9.0,-3.0,-3.0,-2.0,0.0,-12.0
1705081113.4680912,38.0,10.0,17.0,3.0,3.0,6.0,6.0,12.0
1705081113.4680912,-47.0,6.0,-9.0,2.0,-4.0,-3.0,-1.0,-13.0
1705081113.4680912,-8.0,-3.0,5.0,0.0,3.0,-2.0,-2.0,-3.0
1705081113.4680912,-15.0,5.0,-3.0,-8.0,-8.0,-4.0,-6.0,-1.0
1705081113.4781244,11.0,20.0,6.0,0.0,0.0,2.0,-1.0,0.0
1705081113.4781244,11.0,-13.0,3.0,13.0,7.0,2.0,-1.0,1.0
1705081113.4884813,-3.0,10.0,3.0,3.0,2.0,-1.0,0.0,6.0
1705081113.4884813,5.0,-11.0,-16.0,-7.0,0.0,-1.0,-1.0,2.0
1705081113.4985034,-16.0,0.0,12.0,-2.0,-1.0,-3.0,-3.0,-2.0
1705081113.4985034,43.0,21.0,7.0,-5.0,2.0,1.0,2.0,9.0
1705081113.4985034,-5.0,-13.0,0.0,-4.0,-7.0,-4.0,-2.0,-5.0
1705081113.4985034,-13.0,-8.0,5.0,3.0,1.0,-1.0,-1.0,-11.0
1705081113.5280912,-5.0,-19.0,-10.0,1.0,3.0,-3.0,-3.0,-3.0
1705081113.5280912,22.0,26.0,11.0,10.0,6.0,4.0,3.0,6.0
1705081113.5280912,-1.0,-1.0,1.0,-3.0,-2.0,-2.0,1.0,2.0
1705081113.5280912,-8.0,-2.0,-6.0,-5.0,-2.0,-1.0,-3.0,-1.0
1705081113.5381267,-10.0,-20.0,-7.0,-3.0,-3.0,-1.0,-6.0,-7.0
1705081113.5381267,-2.0,10.0,4.0,-5.0,-4.0,-3.0,-1.0,4.0
1705081113.5484905,-2.0,4.0,-1.0,-2.0,-4.0,-1.0,-1.0,3.0
1705081113.5484905,1.0,-4.0,5.0,5.0,5.0,2.0,1.0,5.0
1705081113.5584924,-10.0,-9.0,-5.0,6.0,0.0,-1.0,-3.0,-18.0
1705081113.5584924,-5.0,-19.0,-8.0,-4.0,-1.0,0.0,-1.0,-3.0
1705081113.5584924,3.0,-8.0,-11.0,-15.0,-14.0,-4.0,-3.0,-3.0
1705081113.5584924,-19.0,-38.0,2.0,5.0,8.0,-2.0,0.0,-2.0
1705081113.588096,59.0,31.0,19.0,16.0,16.0,8.0,9.0,23.0
1705081113.588096,-26.0,-4.0,-2.0,3.0,3.0,-3.0,-3.0,-12.0
1705081113.588096,-48.0,-26.0,3.0,2.0,3.0,1.0,-2.0,-8.0
1705081113.588096,14.0,23.0,0.0,-6.0,-4.0,-4.0,-1.0,8.0
1705081113.5983975,-22.0,-12.0,-19.0,-10.0,-8.0,-3.0,-2.0,3.0
1705081113.5983975,22.0,-3.0,9.0,0.0,-1.0,1.0,-1.0,-2.0
1705081113.6083324,2.0,4.0,6.0,6.0,-1.0,2.0,3.0,10.0
1705081113.6083324,0.0,0.0,-8.0,1.0,-4.0,-3.0,1.0,1.0
1705081113.6183972,-2.0,-5.0,-1.0,-6.0,-3.0,1.0,-2.0,1.0
1705081113.6183972,21.0,14.0,-15.0,-9.0,-3.0,-2.0,0.0,5.0
1705081113.6183972,-1.0,-17.0,-2.0,0.0,0.0,-2.0,-3.0,-12.0
1705081113.6183972,3.0,-4.0,8.0,2.0,-5.0,2.0,-1.0,-2.0
1705081113.6480937,-10.0,-15.0,-5.0,-3.0,-4.0,-2.0,1.0,-5.0
1705081113.6480937,-4.0,7.0,5.0,5.0,3.0,0.0,-1.0,0.0
1705081113.6480937,10.0,-3.0,-10.0,-13.0,-5.0,-2.0,-2.0,2.0
1705081113.6480937,-5.0,10.0,2.0,10.0,5.0,0.0,-3.0,-8.0
1705081113.6684122,3.0,-9.0,-10.0,-3.0,2.0,-1.0,-2.0,2.0
1705081113.6684122,-7.0,1.0,-9.0,-4.0,-4.0,-2.0,0.0,4.0
1705081113.6684122,22.0,16.0,7.0,4.0,3.0,0.0,2.0,6.0
1705081113.6684122,30.0,-3.0,-15.0,-14.0,-8.0,-2.0,1.0,14.0
1705081113.6783626,-4.0,4.0,4.0,-2.0,2.0,-1.0,-1.0,-5.0
1705081113.6783626,-7.0,-5.0,16.0,7.0,6.0,-1.0,2.0,-8.0
1705081113.7080908,0.0,-25.0,-20.0,-9.0,-6.0,-3.0,-4.0,-4.0
1705081113.7080908,0.0,-11.0,6.0,3.0,3.0,2.0,2.0,1.0
1705081113.7080908,-4.0,21.0,8.0,1.0,-5.0,-2.0,1.0,13.0
1705081113.7080908,69.0,8.0,-13.0,-8.0,-4.0,-1.0,1.0,10.0
1705081113.7080908,-16.0,12.0,-3.0,-3.0,-3.0,-3.0,-1.0,-4.0
1705081113.7080908,0.0,-3.0,10.0,-2.0,-9.0,1.0,-2.0,-9.0
1705081113.7181194,-24.0,-7.0,-5.0,-1.0,0.0,1.0,-1.0,-3.0
1705081113.7181194,-23.0,5.0,6.0,8.0,7.0,2.0,-1.0,2.0
1705081113.7285588,13.0,-5.0,4.0,2.0,-1.0,0.0,1.0,2.0
1705081113.7285588,15.0,8.0,-8.0,-3.0,-3.0,-4.0,1.0,4.0
1705081113.738613,7.0,-12.0,-12.0,-3.0,-6.0,-2.0,0.0,-2.0
1705081113.738613,-9.0,-4.0,-8.0,-14.0,-9.0,-4.0,-4.0,-11.0
1705081113.738613,-20.0,3.0,17.0,10.0,1.0,4.0,1.0,0.0
1705081113.738613,-45.0,3.0,3.0,6.0,6.0,2.0,-4.0,-13.0
1705081113.7586231,7.0,-2.0,-7.0,-8.0,-7.0,-3.0,-2.0,-7.0
1705081113.7586231,-13.0,-6.0,0.0,1.0,3.0,-5.0,-1.0,0.0
1705081113.7586231,17.0,15.0,5.0,1.0,-3.0,-4.0,0.0,3.0
1705081113.7586231,-13.0,-6.0,-3.0,-6.0,7.0,-1.0,0.0,0.0
1705081113.7886252,0.0,-12.0,0.0,5.0,12.0,1.0,-3.0,1.0
1705081113.7886252,-12.0,6.0,4.0,1.0,-16.0,-1.0,-3.0,2.0
1705081113.7886252,12.0,3.0,1.0,0.0,0.0,1.0,0.0,-3.0
1705081113.7886252,3.0,-13.0,-8.0,-6.0,-3.0,-6.0,2.0,14.0
1705081113.8071399,1.0,2.0,-3.0,-3.0,-9.0,2.0,0.0,-15.0
1705081113.8071399,-13.0,-9.0,-1.0,8.0,6.0,-5.0,3.0,1.0
1705081113.8071399,-10.0,-3.0,3.0,2.0,5.0,3.0,-4.0,0.0
1705081113.8071399,3.0,-1.0,-7.0,-4.0,-9.0,-1.0,0.0,-6.0
1705081113.8275568,19.0,0.0,0.0,-7.0,0.0,-1.0,-3.0,5.0
1705081113.8275568,-35.0,-21.0,-6.0,-6.0,-4.0,-3.0,-6.0,-12.0
1705081113.8275568,-30.0,-16.0,-8.0,-2.0,8.0,-9.0,-6.0,-11.0
1705081113.8286176,21.0,1.0,13.0,12.0,7.0,4.0,3.0,9.0
1705081113.842484,-21.0,19.0,-10.0,-8.0,-7.0,-5.0,-2.0,8.0
1705081113.842484,17.0,12.0,12.0,1.0,1.0,-2.0,-3.0,-27.0
1705081113.842484,-5.0,2.0,-14.0,-4.0,-4.0,-3.0,1.0,7.0
1705081113.842484,12.0,9.0,-1.0,-3.0,-2.0,-2.0,-5.0,-10.0
1705081113.862056,4.0,-17.0,-8.0,-3.0,-4.0,-3.0,-1.0,-4.0
1705081113.862056,-39.0,-3.0,-10.0,-4.0,3.0,5.0,2.0,9.0
1705081113.862056,21.0,11.0,6.0,1.0,-1.0,0.0,2.0,-4.0
1705081113.862056,-7.0,-5.0,-8.0,-5.0,-6.0,-2.0,-2.0,-5.0
1705081113.8824883,11.0,9.0,16.0,2.0,-5.0,-1.0,0.0,-2.0
1705081113.8824883,0.0,18.0,-13.0,-6.0,-3.0,2.0,-1.0,3.0
1705081113.8824883,-21.0,0.0,8.0,2.0,13.0,2.0,-1.0,-3.0
1705081113.8824883,0.0,11.0,7.0,5.0,2.0,1.0,3.0,6.0
1705081113.9024842,-5.0,-19.0,-8.0,-5.0,-7.0,-6.0,-1.0,-3.0
1705081113.9024842,-6.0,-7.0,3.0,1.0,-4.0,1.0,-2.0,6.0
1705081113.9024842,39.0,3.0,-3.0,0.0,-3.0,0.0,-1.0,3.0
1705081113.9024842,-58.0,-18.0,-3.0,1.0,0.0,-1.0,-3.0,-7.0
1705081113.922055,33.0,20.0,5.0,1.0,3.0,-2.0,-5.0,-14.0
1705081113.922055,-12.0,-22.0,2.0,-1.0,1.0,-3.0,1.0,0.0
1705081113.9324398,-10.0,10.0,-2.0,-4.0,-5.0,-1.0,1.0,-5.0
1705081113.9324398,34.0,9.0,-4.0,-6.0,4.0,1.0,3.0,14.0
1705081113.9424677,-18.0,-14.0,-5.0,3.0,1.0,1.0,-3.0,-7.0
1705081113.9424677,13.0,8.0,7.0,-4.0,0.0,-3.0,-3.0,3.0
1705081113.9424677,-13.0,1.0,-1.0,2.0,-5.0,-4.0,-4.0,-6.0
1705081113.9424677,1.0,-2.0,4.0,1.0,0.0,0.0,-2.0,-1.0
1705081113.9627829,-13.0,-4.0,-9.0,-5.0,-11.0,-2.0,-2.0,4.0
1705081113.9627829,22.0,9.0,0.0,-5.0,-3.0,-1.0,-2.0,0.0
1705081113.9627829,-9.0,-10.0,1.0,3.0,2.0,1.0,-1.0,0.0
1705081113.9627829,2.0,1.0,-3.0,-3.0,1.0,-4.0,-1.0,-5.0
1705081113.9824798,-10.0,2.0,0.0,3.0,-4.0,-1.0,-1.0,-1.0
1705081113.9824798,-16.0,-3.0,-3.0,1.0,2.0,3.0,-1.0,-5.0
1705081113.99248,38.0,-8.0,-4.0,-9.0,-12.0,-2.0,4.0,14.0
1705081113.99248,-18.0,-3.0,-6.0,-2.0,5.0,-5.0,-1.0,2.0
1705081114.0028212,3.0,6.0,3.0,3.0,-1.0,9.0,0.0,-1.0
1705081114.0028212,5.0,-12.0,-5.0,4.0,2.0,-3.0,0.0,9.0
1705081114.0028212,-4.0,3.0,-4.0,-4.0,-4.0,-1.0,-1.0,-4.0
1705081114.0028212,-10.0,-7.0,-1.0,-7.0,-3.0,1.0,0.0,-5.0
1705081114.0224798,-20.0,-2.0,5.0,2.0,10.0,-5.0,1.0,3.0
1705081114.0224798,34.0,5.0,-1.0,-6.0,-6.0,1.0,-3.0,1.0
1705081114.0224798,-2.0,24.0,4.0,11.0,16.0,2.0,2.0,3.0
1705081114.0224798,-8.0,-20.0,-12.0,-6.0,-8.0,-6.0,-8.0,-10.0
1705081114.0426903,-5.0,3.0,2.0,4.0,4.0,-1.0,-1.0,-2.0
1705081114.0426903,11.0,-9.0,9.0,1.0,0.0,2.0,1.0,4.0
1705081114.052484,34.0,1.0,-26.0,-7.0,-9.0,-1.0,-1.0,3.0
1705081114.052484,-32.0,-2.0,19.0,3.0,2.0,1.0,-2.0,-13.0
1705081114.0627477,10.0,-13.0,-8.0,1.0,4.0,-3.0,-1.0,-4.0
1705081114.0627477,-8.0,23.0,5.0,2.0,0.0,-1.0,1.0,-2.0
1705081114.0627477,2.0,3.0,6.0,-1.0,-1.0,-2.0,-4.0,-6.0
1705081114.0627477,34.0,26.0,2.0,2.0,-2.0,0.0,-1.0,4.0
1705081114.0827212,-47.0,-54.0,-29.0,-8.0,-4.0,-8.0,-5.0,-12.0
1705081114.0827212,2.0,4.0,11.0,9.0,9.0,3.0,6.0,5.0
1705081114.0827212,-24.0,-11.0,8.0,3.0,1.0,1.0,-2.0,-2.0
1705081114.0924904,7.0,2.0,-3.0,-6.0,-8.0,-5.0,-5.0,-1.0
1705081114.11248,17.0,20.0,2.0,-10.0,-6.0,0.0,1.0,-11.0
1705081114.11248,9.0,-11.0,7.0,13.0,7.0,2.0,-1.0,9.0
1705081114.11248,-43.0,-5.0,7.0,7.0,5.0,0.0,-3.0,-12.0
1705081114.11248,9.0,1.0,-3.0,1.0,0.0,1.0,-1.0,-17.0
1705081114.122676,19.0,11.0,6.0,-1.0,-1.0,1.0,-2.0,6.0
1705081114.122676,-6.0,-28.0,-29.0,-17.0,-7.0,-5.0,-5.0,-9.0
1705081114.122676,0.0,3.0,5.0,-2.0,-1.0,-1.0,2.0,4.0
1705081114.122676,16.0,6.0,-2.0,4.0,0.0,2.0,4.0,11.0
1705081114.1524806,-5.0,-2.0,7.0,-4.0,-11.0,-1.0,1.0,2.0
1705081114.1524806,-2.0,9.0,-4.0,-5.0,-2.0,0.0,0.0,-1.0
1705081114.1524806,0.0,-1.0,8.0,2.0,4.0,1.0,0.0,0.0
1705081114.1524806,1.0,-5.0,-7.0,4.0,5.0,2.0,-1.0,6.0
1705081114.1625683,-4.0,4.0,0.0,0.0,0.0,0.0,0.0,6.0
1705081114.1625683,-10.0,-6.0,-4.0,-4.0,-1.0,-6.0,-6.0,-10.0
1705081114.1724823,0.0,-9.0,-16.0,-13.0,1.0,-6.0,-1.0,1.0
1705081114.1724823,-13.0,-7.0,5.0,7.0,-6.0,-6.0,-2.0,-6.0
1705081114.1824834,8.0,7.0,12.0,4.0,3.0,14.0,3.0,6.0
1705081114.1824834,-9.0,-1.0,-6.0,-1.0,5.0,-2.0,-3.0,-4.0
1705081114.1824834,3.0,-8.0,-9.0,-6.0,12.0,-15.0,-3.0,-8.0
1705081114.1824834,31.0,16.0,4.0,-2.0,-23.0,-16.0,3.0,8.0
1705081114.2024844,10.0,1.0,6.0,0.0,4.0,-4.0,-4.0,-6.0
1705081114.2024844,-5.0,5.0,0.0,-2.0,-9.0,-3.0,-2.0,-2.0
1705081114.2024844,-10.0,-4.0,-7.0,-3.0,-1.0,7.0,-3.0,1.0
1705081114.2024844,30.0,-13.0,-5.0,-1.0,19.0,5.0,2.0,2.0
1705081114.2228498,-18.0,4.0,6.0,11.0,5.0,-2.0,3.0,0.0
1705081114.2228498,-11.0,4.0,-4.0,-5.0,-3.0,1.0,-4.0,-1.0
1705081114.2324827,8.0,2.0,-5.0,-8.0,-8.0,-1.0,-1.0,3.0
1705081114.2324827,-45.0,-5.0,-9.0,-12.0,-7.0,-1.0,-4.0,6.0
1705081114.252479,3.0,5.0,8.0,3.0,-2.0,0.0,-4.0,0.0
1705081114.252479,-4.0,-8.0,-18.0,-1.0,1.0,-2.0,-1.0,-3.0
1705081114.252479,-72.0,-29.0,-4.0,-4.0,-11.0,-1.0,-4.0,-14.0
1705081114.252479,23.0,0.0,-15.0,-8.0,-6.0,2.0,-4.0,-5.0
1705081114.2628157,-21.0,3.0,0.0,0.0,7.0,1.0,3.0,9.0
1705081114.2628157,18.0,0.0,18.0,1.0,-2.0,-3.0,-5.0,-21.0
1705081114.2628157,7.0,-1.0,-12.0,-3.0,-8.0,1.0,5.0,25.0
1705081114.2628157,-38.0,-3.0,7.0,0.0,1.0,5.0,1.0,-38.0
1705081114.2827866,-38.0,-38.0,-19.0,-9.0,4.0,-8.0,-5.0,-7.0
1705081114.2827866,20.0,22.0,11.0,1.0,-6.0,-1.0,0.0,0.0
1705081114.292833,23.0,10.0,7.0,2.0,-3.0,2.0,-2.0,-8.0
1705081114.292833,-3.0,-7.0,0.0,-3.0,3.0,-4.0,-3.0,8.0
1705081114.312481,14.0,17.0,5.0,5.0,2.0,3.0,3.0,4.0
1705081114.312481,4.0,8.0,-10.0,-1.0,-1.0,3.0,2.0,11.0
1705081114.312481,19.0,-2.0,9.0,-1.0,-1.0,0.0,-1.0,0.0
1705081114.312481,0.0,2.0,-2.0,9.0,2.0,0.0,-2.0,-3.0
1705081114.3226805,7.0,-11.0,-13.0,-8.0,-10.0,-2.0,1.0,-5.0
1705081114.3226805,-3.0,-9.0,4.0,1.0,2.0,0.0,2.0,9.0
1705081114.332484,33.0,20.0,9.0,-1.0,-7.0,-2.0,-1.0,8.0
1705081114.332484,-15.0,-18.0,-8.0,0.0,1.0,2.0,-4.0,-3.0
1705081114.3434987,-17.0,-5.0,2.0,3.0,-1.0,-1.0,-1.0,-6.0
1705081114.3445709,0.0,-7.0,0.0,-3.0,-8.0,-2.0,1.0,2.0
1705081114.3540866,-2.0,3.0,1.0,5.0,4.0,2.0,-2.0,-5.0
1705081114.3540866,9.0,1.0,-1.0,-6.0,-2.0,-2.0,-1.0,5.0
1705081114.3647366,-12.0,2.0,0.0,0.0,3.0,-4.0,-5.0,-6.0
1705081114.3647366,4.0,2.0,1.0,3.0,-6.0,0.0,0.0,-10.0
1705081114.3647366,-10.0,-8.0,-1.0,0.0,9.0,13.0,1.0,-4.0
1705081114.3647366,2.0,4.0,1.0,0.0,-1.0,9.0,-1.0,6.0
1705081114.3850315,10.0,1.0,-4.0,-13.0,-41.0,-4.0,-12.0,-2.0
1705081114.3850315,-28.0,-4.0,-3.0,2.0,6.0,-4.0,-1.0,-1.0
1705081114.3850315,1.0,0.0,6.0,0.0,-4.0,-7.0,-2.0,-5.0
1705081114.3850315,-10.0,-9.0,-3.0,1.0,13.0,4.0,1.0,0.0
1705081114.3950071,12.0,2.0,3.0,3.0,21.0,3.0,3.0,-2.0
1705081114.3950071,-28.0,13.0,-3.0,-9.0,-4.0,-5.0,-5.0,-13.0
1705081114.4247363,28.0,4.0,3.0,9.0,0.0,5.0,6.0,18.0
1705081114.4247363,-4.0,-9.0,2.0,-1.0,0.0,-4.0,-5.0,-30.0
1705081114.4247363,40.0,15.0,33.0,13.0,3.0,0.0,3.0,3.0
1705081114.4247363,-21.0,36.0,-7.0,-11.0,-8.0,-4.0,-3.0,-9.0
1705081114.4247363,-13.0,-35.0,-22.0,-5.0,1.0,-4.0,-4.0,-7.0
1705081114.4247363,14.0,17.0,3.0,5.0,-4.0,-1.0,1.0,17.0
1705081114.4450533,-17.0,-12.0,0.0,-4.0,-3.0,-3.0,-2.0,10.0
1705081114.4450533,-12.0,-25.0,6.0,1.0,3.0,1.0,-2.0,-15.0
1705081114.4450533,8.0,15.0,-1.0,-11.0,-8.0,-4.0,-5.0,-10.0
1705081114.4450533,-16.0,5.0,3.0,1.0,0.0,-5.0,-5.0,-9.0
1705081114.454978,21.0,-4.0,-7.0,3.0,2.0,2.0,4.0,10.0
1705081114.454978,-12.0,0.0,-2.0,-2.0,3.0,1.0,-5.0,-3.0
1705081114.4847388,-12.0,1.0,-2.0,-5.0,-6.0,-3.0,2.0,16.0
1705081114.4847388,-62.0,-48.0,-7.0,-3.0,-10.0,-4.0,-8.0,-25.0
1705081114.4948971,36.0,14.0,-8.0,-3.0,3.0,-3.0,-1.0,9.0
1705081114.4948971,38.0,7.0,5.0,11.0,13.0,1.0,3.0,28.0
1705081114.4948971,-8.0,4.0,5.0,4.0,1.0,-1.0,-3.0,-25.0
1705081114.4948971,36.0,24.0,12.0,1.0,-2.0,1.0,4.0,9.0
1705081114.5051398,-3.0,-12.0,-26.0,-11.0,-7.0,-1.0,-2.0,-12.0
1705081114.5051398,-11.0,-29.0,-2.0,1.0,-2.0,-4.0,-1.0,6.0
1705081114.5051398,-2.0,10.0,17.0,15.0,9.0,7.0,0.0,5.0
1705081114.5051398,23.0,12.0,-2.0,2.0,4.0,1.0,8.0,40.0
1705081114.5150402,-11.0,-1.0,-3.0,-3.0,-1.0,-3.0,-2.0,-13.0
1705081114.5150402,26.0,-1.0,-7.0,-4.0,-5.0,2.0,0.0,-1.0
1705081114.5347369,-10.0,-3.0,-5.0,-6.0,-4.0,-7.0,-2.0,-4.0
1705081114.5347369,4.0,19.0,-8.0,-9.0,-12.0,0.0,0.0,-1.0
1705081114.5447383,0.0,8.0,7.0,-1.0,4.0,-1.0,-4.0,-1.0
1705081114.5447383,6.0,-3.0,6.0,4.0,2.0,2.0,1.0,4.0
1705081114.5447383,-26.0,8.0,7.0,9.0,-2.0,-2.0,0.0,10.0
1705081114.5447383,23.0,-20.0,-20.0,-4.0,25.0,-5.0,-2.0,-3.0
1705081114.5751646,-6.0,2.0,-5.0,-7.0,-26.0,-9.0,-2.0,-3.0
1705081114.5751646,-7.0,-1.0,-5.0,-5.0,8.0,16.0,6.0,-3.0
1705081114.5751646,-9.0,-17.0,-3.0,-8.0,-28.0,-7.0,-5.0,-4.0
1705081114.5751646,16.0,14.0,11.0,2.0,-5.0,-1.0,0.0,-10.0
1705081114.5751646,-22.0,-16.0,-7.0,-2.0,7.0,-8.0,0.0,3.0
1705081114.5751646,-5.0,-12.0,-1.0,3.0,-1.0,-2.0,-2.0,0.0
1705081114.5947387,17.0,38.0,2.0,-4.0,8.0,2.0,-1.0,-1.0
1705081114.5947387,14.0,-11.0,3.0,1.0,1.0,2.0,2.0,1.0
1705081114.6049576,-54.0,0.0,-5.0,2.0,7.0,5.0,1.0,-4.0
1705081114.6049576,9.0,19.0,12.0,3.0,0.0,-2.0,-4.0,-13.0
1705081114.6049576,45.0,-2.0,-19.0,-5.0,6.0,3.0,-7.0,-50.0
1705081114.6049576,-77.0,-7.0,6.0,1.0,-8.0,-8.0,-9.0,-11.0
1705081114.6250474,18.0,12.0,7.0,0.0,2.0,3.0,-1.0,3.0
1705081114.6250474,-3.0,-29.0,-22.0,-13.0,-11.0,-4.0,-5.0,-14.0
1705081114.6250474,-3.0,-11.0,3.0,1.0,-1.0,-5.0,1.0,16.0
1705081114.6250474,4.0,13.0,21.0,15.0,6.0,7.0,5.0,17.0
1705081114.6547358,6.0,8.0,2.0,2.0,1.0,12.0,-4.0,-11.0
1705081114.6547358,-7.0,-8.0,3.0,3.0,-4.0,-36.0,-3.0,11.0
1705081114.6547358,-17.0,-28.0,-20.0,-16.0,-22.0,-8.0,-5.0,-3.0
1705081114.6547358,5.0,7.0,-6.0,-3.0,-2.0,8.0,-1.0,7.0
1705081114.66474,5.0,10.0,16.0,13.0,12.0,-10.0,14.0,12.0
1705081114.66474,19.0,12.0,7.0,5.0,2.0,5.0,1.0,2.0
1705081114.66474,3.0,7.0,2.0,0.0,10.0,1.0,5.0,9.0
1705081114.66474,-3.0,-18.0,-17.0,-16.0,-9.0,-16.0,-5.0,-18.0
1705081114.6851747,15.0,-6.0,8.0,8.0,-4.0,9.0,-4.0,3.0
1705081114.6851747,0.0,-17.0,-47.0,-19.0,-9.0,5.0,2.0,4.0
1705081114.6851747,-10.0,-28.0,17.0,6.0,7.0,-5.0,0.0,-1.0
1705081114.6851747,-11.0,-7.0,-25.0,-10.0,34.0,4.0,-4.0,2.0
1705081114.69474,12.0,25.0,21.0,25.0,23.0,-2.0,-2.0,-5.0
1705081114.69474,-9.0,-19.0,-11.0,7.0,2.0,2.0,1.0,1.0
1705081114.7047734,-15.0,-6.0,14.0,9.0,16.0,10.0,5.0,7.0
1705081114.7047734,12.0,14.0,-26.0,-7.0,5.0,-5.0,-1.0,-2.0
1705081114.7251666,0.0,-17.0,0.0,-6.0,-3.0,-3.0,-1.0,-3.0
1705081114.7251666,0.0,21.0,12.0,4.0,6.0,-3.0,-4.0,0.0
1705081114.7251666,5.0,9.0,-11.0,-9.0,-9.0,-3.0,-4.0,1.0
1705081114.7251666,10.0,-11.0,11.0,0.0,-21.0,0.0,-1.0,0.0
1705081114.744921,-4.0,-9.0,-19.0,-15.0,-9.0,-5.0,-5.0,-9.0
1705081114.744921,-33.0,15.0,3.0,-4.0,-6.0,4.0,-4.0,-2.0
1705081114.7547395,10.0,-14.0,1.0,0.0,-4.0,1.0,-1.0,1.0
1705081114.7547395,-9.0,-4.0,9.0,2.0,-8.0,-2.0,2.0,-1.0
1705081114.7650065,-39.0,-16.0,-18.0,-14.0,-9.0,-3.0,-5.0,-10.0
1705081114.7650065,20.0,0.0,2.0,-8.0,-2.0,-2.0,0.0,8.0
1705081114.7650065,-9.0,-24.0,-1.0,-1.0,1.0,-3.0,-3.0,-2.0
1705081114.7650065,11.0,6.0,7.0,4.0,-4.0,-2.0,1.0,-5.0
1705081114.785066,0.0,-5.0,-12.0,-8.0,-5.0,-2.0,0.0,-3.0
1705081114.785066,3.0,9.0,19.0,9.0,-1.0,4.0,1.0,1.0
1705081114.785066,4.0,28.0,0.0,3.0,0.0,0.0,2.0,10.0
1705081114.785066,12.0,-14.0,-8.0,-8.0,-10.0,-1.0,0.0,-4.0
1705081114.8050978,-8.0,-3.0,0.0,-8.0,-3.0,-3.0,-4.0,2.0
1705081114.8050978,4.0,8.0,7.0,7.0,2.0,5.0,1.0,-1.0
1705081114.8050978,-6.0,-1.0,-4.0,5.0,16.0,0.0,0.0,1.0
1705081114.8050978,7.0,-8.0,1.0,0.0,-7.0,-4.0,-2.0,4.0
1705081114.8347366,6.0,-2.0,-10.0,-4.0,-1.0,1.0,-1.0,-1.0
1705081114.8347366,-3.0,-2.0,-4.0,-3.0,2.0,0.0,-1.0,-1.0
1705081114.8347366,9.0,24.0,20.0,7.0,-9.0,-1.0,-1.0,1.0
1705081114.8347366,8.0,-3.0,-19.0,-1.0,-4.0,-1.0,2.0,2.0
1705081114.855422,1.0,-2.0,-11.0,-8.0,-3.0,-5.0,-3.0,-4.0
1705081114.855422,-4.0,-13.0,3.0,5.0,0.0,1.0,-1.0,-5.0
1705081114.8564203,23.0,19.0,0.0,-12.0,-4.0,0.0,0.0,2.0
1705081114.8564203,-8.0,0.0,7.0,6.0,-2.0,1.0,-3.0,4.0
1705081114.86935,-23.0,-8.0,-9.0,-5.0,-8.0,-2.0,-1.0,-5.0
1705081114.86935,1.0,-6.0,-4.0,-7.0,-5.0,-4.0,-2.0,0.0
1705081114.871336,7.0,6.0,4.0,8.0,4.0,1.0,-2.0,-4.0
1705081114.871336,5.0,12.0,7.0,-8.0,-8.0,-1.0,1.0,6.0
1705081114.8901863,6.0,-6.0,-2.0,-6.0,-7.0,1.0,0.0,0.0
1705081114.8901863,-6.0,1.0,7.0,-3.0,1.0,-1.0,-5.0,-5.0
1705081114.8901863,-4.0,-3.0,-16.0,2.0,2.0,-3.0,-1.0,-2.0
1705081114.8901863,-13.0,2.0,13.0,-1.0,-6.0,-4.0,-2.0,-2.0
1705081114.8997552,3.0,-10.0,4.0,4.0,2.0,3.0,0.0,-2.0
1705081114.8997552,1.0,-3.0,-1.0,0.0,-6.0,-3.0,0.0,-1.0
1705081114.909933,-10.0,-1.0,7.0,8.0,1.0,4.0,0.0,-1.0
1705081114.909933,-6.0,-2.0,3.0,4.0,2.0,0.0,-1.0,-2.0
1705081114.9297583,10.0,13.0,0.0,-4.0,0.0,-3.0,-4.0,1.0
1705081114.9297583,-5.0,-2.0,-1.0,0.0,2.0,-2.0,2.0,0.0
1705081114.9297583,29.0,-1.0,-15.0,-15.0,-12.0,-4.0,-2.0,-3.0
1705081114.9297583,-28.0,-1.0,11.0,-2.0,5.0,-2.0,0.0,-5.0
1705081114.9501543,-15.0,-14.0,-19.0,0.0,-1.0,-2.0,-2.0,-5.0
1705081114.9501543,6.0,5.0,6.0,-2.0,-5.0,1.0,-1.0,2.0
1705081114.9501543,-14.0,-17.0,-16.0,-7.0,-8.0,-1.0,-1.0,0.0
1705081114.9501543,16.0,20.0,21.0,3.0,0.0,-2.0,-2.0,0.0
1705081114.9601395,6.0,-1.0,7.0,-2.0,-4.0,0.0,1.0,4.0
1705081114.9601395,-7.0,7.0,8.0,4.0,1.0,-3.0,-3.0,-4.0
1705081114.9701,4.0,2.0,5.0,1.0,2.0,-1.0,-1.0,2.0
1705081114.9701,-1.0,-11.0,-17.0,-7.0,-4.0,-1.0,-3.0,-1.0
1705081114.989751,-4.0,-5.0,6.0,9.0,4.0,-2.0,0.0,0.0
1705081114.989751,8.0,3.0,-3.0,-4.0,-4.0,-1.0,-2.0,-2.0
1705081114.989751,-13.0,-14.0,-4.0,-4.0,-4.0,-2.0,-5.0,-4.0
1705081114.989751,-7.0,1.0,1.0,-1.0,0.0,0.0,-4.0,-3.0
1705081115.010081,5.0,6.0,3.0,0.0,-2.0,-1.0,1.0,1.0
1705081115.010081,-1.0,-4.0,5.0,-6.0,-3.0,-3.0,-1.0,1.0
1705081115.010081,-7.0,-2.0,-13.0,0.0,-3.0,-2.0,-1.0,-2.0
1705081115.010081,-5.0,3.0,10.0,8.0,6.0,4.0,1.0,-1.0
1705081115.0397556,12.0,-2.0,-15.0,-7.0,-3.0,-2.0,-1.0,3.0
1705081115.0397556,-9.0,-6.0,4.0,-1.0,-8.0,-1.0,-2.0,-2.0
1705081115.0397556,-10.0,-3.0,-2.0,-6.0,6.0,-2.0,-1.0,-3.0
1705081115.0397556,3.0,2.0,-11.0,-5.0,-5.0,-1.0,0.0,-1.0
1705081115.049751,11.0,-4.0,-4.0,-4.0,-2.0,-3.0,-2.0,-1.0
1705081115.049751,-16.0,0.0,0.0,15.0,7.0,2.0,1.0,5.0
1705081115.049751,-1.0,-2.0,-6.0,-6.0,-4.0,-3.0,-3.0,-9.0
1705081115.049751,7.0,-4.0,-11.0,-4.0,-4.0,-2.0,0.0,0.0
1705081115.0701933,-16.0,-9.0,-9.0,-14.0,-7.0,-3.0,-4.0,-4.0
1705081115.0701933,6.0,5.0,-9.0,-3.0,1.0,2.0,3.0,1.0
1705081115.0701933,3.0,5.0,16.0,8.0,3.0,1.0,1.0,2.0
1705081115.0701933,-1.0,-10.0,-17.0,1.0,0.0,-1.0,-1.0,0.0
1705081115.0897527,8.0,16.0,26.0,12.0,5.0,0.0,2.0,4.0
1705081115.0897527,5.0,5.0,-2.0,-7.0,-2.0,-3.0,-1.0,-2.0
1705081115.0897527,-17.0,-4.0,-7.0,-3.0,-2.0,-1.0,0.0,-3.0
1705081115.0897527,1.0,-33.0,-7.0,-7.0,-6.0,-4.0,-5.0,-2.0
1705081115.1097558,-2.0,17.0,5.0,-1.0,-6.0,3.0,-1.0,0.0
1705081115.1097558,1.0,-4.0,-3.0,2.0,20.0,-1.0,-1.0,-2.0
1705081115.1097558,-3.0,0.0,5.0,1.0,2.0,0.0,-1.0,-1.0
1705081115.1097558,4.0,22.0,-4.0,-5.0,-5.0,1.0,2.0,1.0
1705081115.130063,-5.0,-33.0,-3.0,6.0,2.0,-1.0,-2.0,-2.0
1705081115.130063,-9.0,-13.0,-3.0,0.0,0.0,0.0,-3.0,-3.0
1705081115.130063,3.0,3.0,0.0,0.0,-1.0,-2.0,0.0,1.0
1705081115.130063,-9.0,-2.0,-1.0,-3.0,1.0,-1.0,-4.0,-3.0
1705081115.1598022,-6.0,1.0,-5.0,-6.0,-5.0,-3.0,-3.0,-4.0
1705081115.1598022,10.0,3.0,4.0,4.0,-2.0,0.0,1.0,-9.0
1705081115.1598022,9.0,16.0,3.0,3.0,1.0,-2.0,-1.0,1.0
1705081115.1598022,-2.0,13.0,-3.0,-2.0,-6.0,-1.0,-1.0,-1.0
1705081115.169899,0.0,-5.0,-4.0,-1.0,3.0,-1.0,2.0,0.0
1705081115.169899,-7.0,-9.0,12.0,-6.0,-8.0,-2.0,-2.0,-1.0
1705081115.169899,-1.0,-5.0,4.0,-1.0,11.0,1.0,-2.0,1.0
1705081115.169899,-11.0,-11.0,-5.0,-3.0,0.0,-4.0,-1.0,-7.0
1705081115.1902852,5.0,15.0,-6.0,1.0,-1.0,0.0,0.0,0.0
1705081115.1902852,-2.0,-1.0,-2.0,2.0,-3.0,-1.0,0.0,1.0
1705081115.1902852,-2.0,1.0,12.0,3.0,-4.0,2.0,2.0,1.0
1705081115.1902852,-5.0,-13.0,-5.0,-7.0,-2.0,-2.0,-1.0,-3.0
1705081115.210297,-2.0,5.0,7.0,4.0,6.0,1.0,3.0,0.0
1705081115.210297,-3.0,-5.0,-13.0,-7.0,-9.0,-4.0,-2.0,-2.0
1705081115.210297,-2.0,-9.0,-7.0,-6.0,-7.0,-3.0,-1.0,-1.0
1705081115.210297,2.0,5.0,13.0,11.0,6.0,3.0,1.0,3.0
1705081115.2303498,6.0,7.0,8.0,7.0,1.0,-2.0,0.0,2.0
1705081115.2303498,-3.0,-24.0,-12.0,-3.0,-5.0,0.0,-3.0,-2.0
1705081115.2303498,-10.0,1.0,-13.0,-7.0,-7.0,-4.0,-4.0,-3.0
1705081115.2303498,6.0,-11.0,-12.0,-7.0,1.0,-3.0,-1.0,-2.0
1705081115.2502978,-5.0,3.0,7.0,1.0,0.0,0.0,4.0,0.0
1705081115.2502978,30.0,41.0,12.0,7.0,4.0,3.0,2.0,3.0
1705081115.2502978,-47.0,-40.0,-10.0,-6.0,-6.0,-5.0,-7.0,-14.0
1705081115.2502978,-12.0,2.0,-9.0,-2.0,-2.0,0.0,-2.0,0.0
1705081115.260329,8.0,-4.0,1.0,-4.0,-10.0,-1.0,0.0,2.0
1705081115.260329,-10.0,8.0,-3.0,1.0,4.0,-1.0,-2.0,-7.0
1705081115.2706282,16.0,21.0,10.0,0.0,0.0,3.0,3.0,6.0
1705081115.2706282,4.0,6.0,1.0,3.0,1.0,-1.0,-1.0,1.0
1705081115.2905254,8.0,-11.0,-15.0,-9.0,-8.0,-4.0,-3.0,-1.0
1705081115.2905254,-19.0,7.0,8.0,0.0,-1.0,-1.0,-2.0,-1.0
1705081115.2905254,1.0,-25.0,5.0,6.0,5.0,2.0,0.0,1.0
1705081115.2905254,-11.0,-11.0,-2.0,2.0,4.0,3.0,0.0,-1.0
1705081115.3102963,4.0,6.0,7.0,10.0,9.0,2.0,0.0,1.0
1705081115.3102963,5.0,-10.0,-16.0,-11.0,-7.0,-4.0,0.0,2.0
1705081115.3102963,-9.0,-24.0,-20.0,-7.0,-5.0,-3.0,-2.0,-7.0
1705081115.3102963,-4.0,-24.0,-3.0,-3.0,-6.0,-4.0,-2.0,-1.0
1705081115.320296,-11.0,4.0,-6.0,0.0,2.0,-3.0,-2.0,-6.0
1705081115.320296,-1.0,-3.0,19.0,-4.0,-1.0,0.0,-1.0,-2.0
1705081115.330482,22.0,21.0,7.0,5.0,-2.0,-1.0,1.0,7.0
1705081115.330482,-12.0,11.0,5.0,-2.0,-1.0,0.0,1.0,0.0
1705081115.350542,-10.0,-17.0,-17.0,-9.0,-6.0,-4.0,-7.0,-8.0
1705081115.350542,-19.0,-9.0,1.0,0.0,8.0,-4.0,-4.0,-1.0
1705081115.350542,21.0,-4.0,-10.0,-2.0,2.0,2.0,1.0,5.0
1705081115.350542,-8.0,15.0,19.0,2.0,-4.0,-2.0,-2.0,-2.0
1705081115.3704371,-19.0,-3.0,2.0,-4.0,5.0,-1.0,-2.0,-4.0
1705081115.3704371,17.0,6.0,-6.0,-1.0,-4.0,2.0,-2.0,-1.0
1705081115.3704371,21.0,19.0,8.0,5.0,1.0,0.0,2.0,9.0
1705081115.3704371,10.0,-20.0,-13.0,-1.0,0.0,-2.0,-3.0,-13.0
1705081115.3802958,0.0,-11.0,-5.0,1.0,-3.0,-1.0,2.0,0.0
1705081115.3802958,-16.0,-9.0,-8.0,-8.0,-4.0,-2.0,-1.0,-4.0
1705081115.3956306,-15.0,5.0,3.0,1.0,1.0,-1.0,-3.0,-4.0
1705081115.3956306,8.0,-9.0,4.0,2.0,1.0,2.0,2.0,5.0
1705081115.4094794,-2.0,1.0,-7.0,-6.0,-2.0,-1.0,-4.0,0.0
1705081115.4104822,3.0,-16.0,3.0,4.0,-1.0,-1.0,1.0,1.0
1705081115.4123871,-11.0,-4.0,-3.0,1.0,1.0,-2.0,0.0,3.0
1705081115.4123871,17.0,14.0,-4.0,-5.0,-3.0,-2.0,0.0,-8.0
1705081115.4324186,2.0,-9.0,1.0,-1.0,1.0,1.0,-1.0,-3.0
1705081115.4324186,-18.0,-3.0,-13.0,-5.0,-6.0,-1.0,-2.0,-2.0
1705081115.4324186,-6.0,-10.0,-3.0,-7.0,-15.0,-3.0,-4.0,-5.0
1705081115.4324186,1.0,-9.0,-2.0,-4.0,3.0,-1.0,-2.0,3.0
1705081115.4424913,24.0,13.0,17.0,10.0,4.0,4.0,6.0,4.0
1705081115.4424913,14.0,-15.0,-11.0,-1.0,-2.0,-2.0,-4.0,-10.0
1705081115.452797,-14.0,4.0,1.0,-5.0,-6.0,-2.0,0.0,-7.0
1705081115.452797,-26.0,5.0,-10.0,-7.0,-5.0,-2.0,-3.0,-4.0
1705081115.4631653,7.0,1.0,2.0,-5.0,-2.0,-3.0,-2.0,1.0
1705081115.4631653,6.0,-2.0,-4.0,-1.0,-2.0,-1.0,1.0,6.0
1705081115.482824,15.0,12.0,5.0,0.0,2.0,1.0,-1.0,2.0
1705081115.482824,3.0,-8.0,5.0,-2.0,-3.0,-2.0,-3.0,2.0
1705081115.482824,-4.0,6.0,3.0,1.0,3.0,1.0,1.0,-2.0
1705081115.482824,4.0,19.0,17.0,7.0,3.0,2.0,1.0,4.0
1705081115.4928231,-5.0,17.0,-3.0,4.0,6.0,0.0,-1.0,-3.0
1705081115.4928231,0.0,1.0,3.0,1.0,1.0,-1.0,0.0,2.0
1705081115.5032332,-9.0,-21.0,-14.0,-9.0,-19.0,-4.0,-4.0,-2.0
1705081115.5032332,1.0,3.0,-7.0,-11.0,3.0,0.0,-5.0,0.0
1705081115.5136182,-8.0,-7.0,-4.0,0.0,2.0,0.0,-1.0,-5.0
1705081115.5136182,4.0,15.0,9.0,6.0,2.0,2.0,1.0,6.0
1705081115.5235176,32.0,11.0,5.0,2.0,0.0,1.0,2.0,-1.0
1705081115.5235176,-48.0,-13.0,-10.0,-2.0,-2.0,0.0,0.0,-7.0
1705081115.5235176,5.0,12.0,0.0,-10.0,-4.0,-5.0,-2.0,-4.0
1705081115.5235176,17.0,52.0,7.0,-2.0,-3.0,-1.0,-1.0,0.0
1705081115.5434446,-18.0,-29.0,2.0,7.0,6.0,0.0,-1.0,-2.0
1705081115.5532734,13.0,2.0,-1.0,2.0,-3.0,0.0,-1.0,1.0
1705081115.5532734,-5.0,-5.0,-2.0,0.0,0.0,-1.0,-3.0,-2.0
1705081115.5532734,-4.0,1.0,-5.0,-5.0,-3.0,-4.0,-3.0,0.0
1705081115.5632708,12.0,45.0,18.0,3.0,2.0,0.0,1.0,9.0
1705081115.5632708,-16.0,-34.0,-7.0,-2.0,-4.0,-2.0,-1.0,-5.0
1705081115.573269,8.0,6.0,0.0,-3.0,-5.0,-1.0,-3.0,-5.0
1705081115.573269,-5.0,-15.0,-5.0,-2.0,-1.0,-2.0,-1.0,-1.0
1705081115.5835037,-5.0,6.0,-1.0,-4.0,-2.0,-3.0,-1.0,1.0
1705081115.5835037,10.0,-2.0,6.0,4.0,5.0,1.0,3.0,3.0
1705081115.5835037,-4.0,0.0,4.0,0.0,-2.0,0.0,1.0,2.0
1705081115.5835037,0.0,5.0,-6.0,2.0,3.0,-4.0,-2.0,-3.0
1705081115.6032717,-2.0,-6.0,5.0,3.0,0.0,0.0,-2.0,0.0
1705081115.6032717,7.0,2.0,-9.0,0.0,-2.0,-3.0,-2.0,0.0
1705081115.613267,-24.0,-6.0,0.0,-5.0,-3.0,-1.0,-4.0,-2.0
1705081115.613267,15.0,0.0,3.0,2.0,-1.0,1.0,2.0,-2.0
1705081115.6234128,6.0,16.0,-24.0,-13.0,-5.0,-4.0,-2.0,-4.0
1705081115.6234128,-15.0,2.0,7.0,6.0,-1.0,1.0,0.0,-4.0
1705081115.6333563,6.0,-5.0,0.0,3.0,2.0,0.0,2.0,4.0
1705081115.6333563,-5.0,-7.0,-8.0,-3.0,-2.0,-3.0,-4.0,-1.0
1705081115.643273,-1.0,-2.0,0.0,0.0,3.0,2.0,-1.0,2.0
1705081115.643273,33.0,20.0,4.0,0.0,-1.0,-1.0,-1.0,-2.0
1705081115.643273,-31.0,-5.0,-6.0,-2.0,-9.0,-3.0,-4.0,-2.0
1705081115.643273,3.0,-16.0,-3.0,2.0,12.0,-2.0,-3.0,1.0
1705081115.6832693,-9.0,-13.0,-4.0,-3.0,-1.0,-1.0,-2.0,-4.0
1705081115.6832693,11.0,7.0,-1.0,-3.0,0.0,0.0,0.0,4.0
1705081115.6832693,12.0,-5.0,6.0,5.0,1.0,1.0,-1.0,0.0
1705081115.6832693,-16.0,-1.0,2.0,-2.0,-7.0,1.0,1.0,4.0
1705081115.6933365,-9.0,-8.0,-5.0,-3.0,-4.0,-5.0,-5.0,-7.0
1705081115.6933365,-3.0,-1.0,3.0,-4.0,-2.0,-2.0,-1.0,0.0
1705081115.6933365,2.0,-15.0,-21.0,-10.0,-4.0,-2.0,0.0,-2.0
1705081115.6933365,-3.0,-3.0,6.0,4.0,3.0,6.0,0.0,4.0
1705081115.7132678,15.0,16.0,9.0,3.0,4.0,1.0,-1.0,3.0
1705081115.7132678,-21.0,-5.0,-3.0,2.0,0.0,0.0,1.0,-11.0
1705081115.7132678,18.0,11.0,5.0,4.0,3.0,1.0,0.0,-1.0
1705081115.7132678,-23.0,-6.0,0.0,-6.0,-8.0,-3.0,-5.0,-5.0
1705081115.7332735,-10.0,-11.0,-14.0,-5.0,-4.0,-2.0,-1.0,-1.0
1705081115.7332735,3.0,15.0,4.0,-3.0,-1.0,-2.0,-1.0,-1.0
1705081115.7332735,-13.0,2.0,5.0,8.0,0.0,0.0,2.0,0.0
1705081115.7332735,14.0,-6.0,-2.0,-2.0,1.0,-1.0,0.0,-3.0
1705081115.753394,-19.0,1.0,6.0,3.0,-2.0,0.0,-1.0,-3.0
1705081115.753394,6.0,7.0,4.0,-6.0,-13.0,-3.0,-4.0,3.0
1705081115.753394,0.0,-4.0,-6.0,2.0,17.0,-1.0,0.0,0.0
1705081115.753394,6.0,-5.0,-5.0,-4.0,-1.0,-1.0,0.0,4.0
1705081115.7732701,0.0,9.0,3.0,0.0,-1.0,-1.0,0.0,-1.0
1705081115.7732701,0.0,-12.0,-3.0,-2.0,1.0,0.0,-2.0,1.0
1705081115.7732701,1.0,3.0,3.0,-4.0,-6.0,-2.0,0.0,4.0
1705081115.7732701,-13.0,-13.0,-17.0,-5.0,-6.0,-2.0,-5.0,-12.0
1705081115.783311,15.0,-1.0,0.0,-4.0,0.0,-3.0,-2.0,-7.0
1705081115.783311,-5.0,-7.0,-2.0,-2.0,1.0,-2.0,-2.0,3.0
1705081115.793314,0.0,2.0,0.0,-1.0,-2.0,2.0,-3.0,-4.0
1705081115.793314,1.0,4.0,4.0,4.0,2.0,2.0,1.0,-4.0
1705081115.8133044,-2.0,-8.0,-2.0,1.0,0.0,1.0,3.0,6.0
1705081115.8133044,-23.0,4.0,-1.0,-5.0,-2.0,-2.0,0.0,-6.0
1705081115.8133044,-6.0,-16.0,-8.0,-9.0,-7.0,-7.0,-2.0,-2.0
1705081115.8133044,1.0,9.0,5.0,-1.0,-4.0,-1.0,-1.0,1.0
1705081115.823269,1.0,10.0,-6.0,12.0,8.0,2.0,-2.0,-2.0
1705081115.823269,5.0,3.0,5.0,1.0,-2.0,-2.0,1.0,4.0
1705081115.8332722,-7.0,-10.0,-14.0,-11.0,-9.0,-3.0,0.0,-1.0
1705081115.8332722,9.0,3.0,-3.0,-5.0,3.0,-2.0,-1.0,-2.0
1705081115.8532746,-2.0,-2.0,8.0,3.0,-2.0,-1.0,-2.0,1.0
1705081115.8532746,20.0,-3.0,-8.0,0.0,1.0,-2.0,-2.0,6.0
1705081115.8532746,-25.0,-6.0,-3.0,0.0,-5.0,2.0,-2.0,-11.0
1705081115.8532746,20.0,-1.0,5.0,1.0,-3.0,-1.0,3.0,5.0
1705081115.883269,-32.0,-22.0,-8.0,-9.0,-8.0,-3.0,0.0,-1.0
1705081115.883269,1.0,-6.0,-11.0,-2.0,2.0,-2.0,0.0,1.0
1705081115.883269,11.0,9.0,9.0,4.0,2.0,3.0,-1.0,-3.0
1705081115.883269,16.0,-12.0,1.0,3.0,1.0,-2.0,-2.0,5.0
1705081115.883269,-27.0,8.0,5.0,-1.0,-1.0,-4.0,-3.0,-5.0
1705081115.883269,-5.0,2.0,3.0,-4.0,-5.0,-3.0,1.0,0.0
1705081115.8933015,5.0,-29.0,-10.0,-12.0,-12.0,-2.0,-1.0,-2.0
1705081115.8933015,-2.0,4.0,9.0,13.0,10.0,2.0,2.0,0.0
1705081115.9132733,22.0,9.0,-3.0,-2.0,-3.0,0.0,-1.0,1.0
1705081115.9132733,-6.0,-4.0,7.0,9.0,1.0,1.0,1.0,2.0
1705081115.9143856,-27.0,1.0,-1.0,-1.0,-1.0,0.0,-2.0,-3.0
1705081115.9153838,-12.0,-5.0,-9.0,-6.0,-5.0,-1.0,-2.0,4.0
1705081115.9450436,14.0,5.0,5.0,-4.0,-2.0,-5.0,-1.0,-8.0
1705081115.9450436,13.0,-6.0,-13.0,-3.0,0.0,-1.0,2.0,1.0
1705081115.9450436,15.0,7.0,9.0,5.0,4.0,0.0,0.0,0.0
1705081115.9450436,-14.0,10.0,3.0,3.0,-2.0,-2.0,-2.0,-2.0
1705081115.9450436,-12.0,-14.0,-14.0,-3.0,1.0,1.0,-1.0,7.0
1705081115.9450436,10.0,8.0,0.0,-3.0,-4.0,-3.0,-1.0,1.0
1705081115.955083,1.0,-7.0,5.0,4.0,5.0,0.0,0.0,-1.0
1705081115.955083,-7.0,-1.0,2.0,-2.0,-3.0,-2.0,-2.0,-1.0
1705081115.9651845,16.0,10.0,2.0,-3.0,-4.0,1.0,-2.0,-3.0
1705081115.9651845,-5.0,0.0,1.0,0.0,4.0,3.0,-2.0,-4.0
1705081115.9651845,0.0,2.0,-8.0,5.0,3.0,-3.0,-3.0,6.0
1705081115.975054,1.0,18.0,8.0,-3.0,-2.0,-1.0,0.0,-2.0
1705081116.005042,-10.0,-27.0,-12.0,-3.0,-3.0,-1.0,-1.0,-7.0
1705081116.005042,-5.0,-13.0,-12.0,-9.0,-5.0,-3.0,-5.0,3.0
1705081116.005042,16.0,16.0,2.0,-3.0,1.0,1.0,0.0,-19.0
1705081116.005042,5.0,7.0,1.0,-1.0,-1.0,0.0,1.0,3.0
1705081116.005042,14.0,5.0,-1.0,1.0,0.0,1.0,3.0,2.0
1705081116.005042,-53.0,-18.0,5.0,-1.0,-1.0,-4.0,-4.0,-12.0
1705081116.015445,-26.0,-5.0,5.0,-2.0,-2.0,0.0,0.0,6.0
1705081116.015445,13.0,9.0,-5.0,-4.0,-7.0,-5.0,-3.0,-9.0
1705081116.0251088,-8.0,-13.0,9.0,4.0,5.0,1.0,-1.0,-3.0
1705081116.0251088,14.0,4.0,-2.0,2.0,-2.0,0.0,1.0,2.0
1705081116.0251088,15.0,15.0,3.0,7.0,4.0,2.0,0.0,10.0
1705081116.0251088,-11.0,-12.0,-5.0,-3.0,-3.0,-1.0,-2.0,-8.0
1705081116.0551138,-2.0,2.0,-4.0,-7.0,-10.0,-4.0,-2.0,4.0
1705081116.0551138,8.0,10.0,3.0,2.0,1.0,-3.0,-2.0,-5.0
1705081116.0551138,1.0,-5.0,0.0,-4.0,-3.0,-2.0,-3.0,-3.0
1705081116.0551138,-6.0,-10.0,-8.0,-1.0,-4.0,2.0,-3.0,-2.0
1705081116.0653481,-2.0,1.0,4.0,4.0,-1.0,2.0,2.0,12.0
1705081116.0653481,7.0,3.0,0.0,-2.0,-5.0,-3.0,-4.0,-9.0
1705081116.0753038,3.0,-12.0,-10.0,-5.0,-1.0,-3.0,-4.0,0.0
1705081116.0753038,2.0,2.0,2.0,0.0,1.0,-1.0,-1.0,-3.0
1705081116.1050453,-3.0,-17.0,-13.0,-1.0,1.0,-2.0,0.0,-1.0
1705081116.1050453,-3.0,10.0,7.0,-2.0,0.0,1.0,0.0,-3.0
1705081116.1050453,4.0,-20.0,-4.0,-2.0,-2.0,-3.0,2.0,9.0
1705081116.1050453,-4.0,18.0,3.0,0.0,-5.0,-6.0,-5.0,-12.0
1705081116.1150439,-8.0,0.0,5.0,5.0,8.0,6.0,1.0,-1.0
1705081116.1150439,22.0,5.0,-8.0,-4.0,3.0,-1.0,1.0,4.0
1705081116.1150439,18.0,6.0,9.0,1.0,-9.0,0.0,-1.0,0.0
1705081116.1150439,-20.0,-19.0,-16.0,-5.0,2.0,-4.0,-1.0,-6.0
1705081116.1254497,3.0,15.0,-3.0,-1.0,3.0,-1.0,0.0,1.0
1705081116.1254497,-6.0,1.0,14.0,6.0,-2.0,2.0,-1.0,0.0
1705081116.1354043,-3.0,28.0,4.0,0.0,0.0,0.0,-2.0,-8.0
1705081116.1354043,-7.0,-29.0,0.0,-1.0,1.0,0.0,0.0,9.0
1705081116.1550434,19.0,10.0,-1.0,-3.0,0.0,-2.0,-2.0,-7.0
1705081116.1550434,-7.0,-13.0,-7.0,-1.0,-1.0,1.0,-1.0,2.0
1705081116.1550434,4.0,4.0,-1.0,-1.0,4.0,-4.0,-2.0,-4.0
1705081116.1550434,13.0,1.0,3.0,2.0,2.0,1.0,1.0,3.0
1705081116.1752727,10.0,3.0,3.0,-1.0,-4.0,-6.0,-2.0,-3.0
1705081116.1752727,-10.0,-16.0,-11.0,-6.0,-9.0,0.0,0.0,-1.0
1705081116.1752727,-7.0,-1.0,-4.0,-5.0,-1.0,-2.0,1.0,0.0
1705081116.1752727,3.0,6.0,13.0,5.0,-3.0,2.0,3.0,4.0
1705081116.185451,30.0,5.0,11.0,4.0,-2.0,-1.0,-1.0,7.0
1705081116.185451,-8.0,-29.0,-26.0,-2.0,1.0,-1.0,-1.0,-2.0
1705081116.1954432,-22.0,-3.0,-1.0,-1.0,-2.0,-2.0,-4.0,-6.0
1705081116.1954432,4.0,-1.0,-9.0,-8.0,-3.0,1.0,-1.0,-4.0
1705081116.2150428,12.0,6.0,12.0,3.0,1.0,1.0,1.0,-4.0
1705081116.2150428,3.0,5.0,1.0,3.0,5.0,-2.0,-1.0,5.0
1705081116.2150428,-16.0,-5.0,-5.0,1.0,-3.0,-1.0,-2.0,-3.0
1705081116.2150428,-11.0,-16.0,-12.0,-6.0,-5.0,-5.0,-5.0,-3.0
1705081116.2450478,-21.0,4.0,0.0,1.0,0.0,0.0,-2.0,-2.0
1705081116.2450478,20.0,11.0,4.0,3.0,1.0,0.0,3.0,5.0
1705081116.2450478,3.0,-5.0,1.0,-4.0,2.0,-2.0,-1.0,3.0
1705081116.2450478,7.0,-3.0,3.0,3.0,-5.0,1.0,1.0,-3.0
1705081116.2450478,-38.0,-5.0,-9.0,-2.0,0.0,-1.0,-2.0,-3.0
1705081116.2450478,6.0,2.0,0.0,-5.0,-1.0,-1.0,0.0,-1.0
1705081116.2553227,6.0,5.0,-3.0,-3.0,-4.0,-2.0,1.0,4.0
1705081116.2553227,12.0,0.0,4.0,5.0,4.0,1.0,-2.0,0.0
1705081116.2850504,-4.0,-2.0,-4.0,-2.0,-6.0,0.0,-2.0,-5.0
1705081116.2850504,-3.0,2.0,2.0,1.0,-5.0,-1.0,0.0,-1.0
1705081116.2850504,4.0,-3.0,1.0,-1.0,0.0,-2.0,0.0,-3.0
1705081116.2850504,-16.0,3.0,-10.0,-2.0,0.0,-3.0,-1.0,3.0
1705081116.2950573,17.0,0.0,1.0,1.0,3.0,0.0,1.0,-11.0
1705081116.2950573,-2.0,-12.0,0.0,-5.0,1.0,-2.0,-3.0,-1.0
1705081116.2950573,-7.0,-16.0,-9.0,-2.0,-14.0,-2.0,1.0,0.0
1705081116.2950573,-3.0,5.0,-4.0,-3.0,9.0,-4.0,-3.0,-1.0
1705081116.3054624,18.0,-6.0,2.0,4.0,6.0,2.0,3.0,-4.0
1705081116.3054624,-4.0,2.0,2.0,-2.0,-4.0,0.0,-4.0,-8.0
1705081116.315062,5.0,-6.0,1.0,4.0,1.0,-1.0,-2.0,0.0
1705081116.315062,-3.0,-16.0,2.0,-3.0,0.0,0.0,-1.0,1.0
1705081116.3250818,-24.0,-1.0,-4.0,-1.0,-1.0,-2.0,-3.0,2.0
1705081116.3250818,14.0,9.0,7.0,1.0,4.0,-1.0,1.0,1.0
1705081116.3250818,37.0,-2.0,0.0,3.0,5.0,0.0,2.0,18.0
1705081116.3350544,35.0,25.0,3.0,-6.0,-3.0,1.0,2.0,-1.0
1705081116.355049,-72.0,-62.0,-23.0,-11.0,-10.0,-10.0,-9.0,-5.0
1705081116.355049,5.0,10.0,1.0,6.0,2.0,1.0,0.0,7.0
1705081116.355049,11.0,-4.0,5.0,4.0,3.0,1.0,2.0,14.0
1705081116.355049,-29.0,0.0,-16.0,-8.0,-8.0,-5.0,-11.0,-24.0
1705081116.365259,4.0,-1.0,0.0,-14.0,0.0,-5.0,-3.0,2.0
1705081116.365259,-4.0,5.0,7.0,9.0,3.0,0.0,-1.0,-3.0
1705081116.3950462,3.0,27.0,20.0,10.0,7.0,5.0,1.0,-1.0
1705081116.3950462,-2.0,-5.0,-1.0,1.0,0.0,-1.0,3.0,8.0
1705081116.3950462,23.0,22.0,8.0,-5.0,-7.0,-1.0,1.0,4.0
1705081116.3950462,-20.0,-18.0,-19.0,-8.0,-5.0,-5.0,-5.0,-20.0
1705081116.3950462,-35.0,-3.0,-4.0,-8.0,-4.0,-3.0,-3.0,-13.0
1705081116.3950462,-2.0,-6.0,6.0,0.0,-2.0,2.0,0.0,3.0
1705081116.4150486,3.0,20.0,5.0,1.0,-2.0,-1.0,-1.0,0.0
1705081116.4150486,27.0,23.0,3.0,-4.0,-3.0,2.0,1.0,7.0
1705081116.4150486,11.0,-6.0,-4.0,2.0,1.0,2.0,1.0,5.0
1705081116.4150486,23.0,10.0,4.0,-2.0,-1.0,-4.0,3.0,10.0
1705081116.425277,-38.0,-38.0,-21.0,-4.0,4.0,-5.0,-8.0,-13.0
1705081116.425277,-18.0,-4.0,2.0,-4.0,-2.0,-4.0,-6.0,-9.0
1705081116.4549205,0.0,2.0,-2.0,2.0,4.0,-1.0,1.0,-3.0
1705081116.4549205,-1.0,3.0,1.0,5.0,3.0,-1.0,2.0,8.0
1705081116.4549205,47.0,23.0,10.0,2.0,-3.0,1.0,3.0,9.0
1705081116.4549205,-40.0,-11.0,-7.0,-8.0,-3.0,-2.0,-5.0,-20.0
1705081116.4549205,-17.0,-16.0,-13.0,-7.0,10.0,-3.0,-4.0,-13.0
1705081116.4549205,11.0,7.0,11.0,13.0,-7.0,3.0,3.0,6.0
1705081116.47504,-4.0,6.0,0.0,1.0,-2.0,4.0,2.0,7.0
1705081116.47504,-3.0,1.0,-9.0,-7.0,-6.0,-3.0,-4.0,-2.0
1705081116.4760537,-3.0,-12.0,-12.0,-16.0,-19.0,-8.0,-5.0,-3.0
1705081116.4760537,-7.0,-12.0,3.0,8.0,16.0,-3.0,2.0,-5.0
1705081116.4884927,-4.0,13.0,14.0,7.0,2.0,13.0,-1.0,0.0
1705081116.4884927,10.0,-5.0,-7.0,-2.0,-14.0,0.0,2.0,6.0
1705081116.4982383,2.0,-5.0,-4.0,-2.0,-1.0,1.0,-3.0,-4.0
1705081116.4982383,1.0,41.0,-11.0,-18.0,-17.0,-8.0,-4.0,0.0
1705081116.5186036,-15.0,-10.0,-1.0,-9.0,0.0,-10.0,-6.0,-11.0
1705081116.5186036,14.0,6.0,20.0,25.0,19.0,12.0,9.0,17.0
1705081116.5186036,-6.0,3.0,5.0,1.0,-7.0,-4.0,-2.0,-11.0
1705081116.5186036,-18.0,-30.0,-9.0,-2.0,2.0,-2.0,-2.0,3.0
1705081116.5285916,8.0,9.0,-7.0,-6.0,-4.0,-3.0,-1.0,1.0
1705081116.5285916,-7.0,-1.0,1.0,-4.0,-3.0,-5.0,-2.0,-1.0
1705081116.5285916,-20.0,8.0,-1.0,1.0,1.0,-2.0,-1.0,1.0
1705081116.5285916,20.0,-4.0,3.0,0.0,1.0,2.0,0.0,11.0
1705081116.548287,24.0,20.0,-1.0,4.0,0.0,0.0,-2.0,-7.0
1705081116.548287,-3.0,5.0,8.0,-3.0,-3.0,-3.0,-4.0,2.0
1705081116.548287,-2.0,-8.0,-6.0,-2.0,1.0,1.0,2.0,11.0
1705081116.548287,30.0,12.0,-10.0,1.0,1.0,3.0,2.0,-5.0
1705081116.5686316,-3.0,-41.0,-13.0,-2.0,-6.0,-3.0,-1.0,3.0
1705081116.5686316,-16.0,15.0,2.0,1.0,5.0,-3.0,-6.0,-31.0
1705081116.5686316,-51.0,-22.0,0.0,-2.0,-3.0,-2.0,-7.0,-15.0
1705081116.5686316,-22.0,-10.0,-2.0,-8.0,-5.0,-3.0,-4.0,-18.0
1705081116.5885422,1.0,5.0,7.0,2.0,-7.0,0.0,3.0,5.0
1705081116.5885422,15.0,3.0,3.0,5.0,9.0,1.0,3.0,8.0
1705081116.5885422,36.0,24.0,3.0,3.0,1.0,2.0,1.0,17.0
1705081116.5885422,26.0,-8.0,-6.0,2.0,1.0,2.0,-1.0,-3.0
1705081116.608238,-34.0,-10.0,6.0,-3.0,-4.0,-5.0,-4.0,-17.0
1705081116.608238,-22.0,-13.0,-11.0,-10.0,-10.0,-4.0,-2.0,1.0
1705081116.608238,-2.0,-7.0,-5.0,0.0,-5.0,-1.0,-2.0,-6.0
1705081116.608238,-7.0,-9.0,6.0,8.0,16.0,0.0,0.0,5.0
1705081116.628576,25.0,15.0,0.0,2.0,-1.0,-2.0,2.0,10.0
1705081116.628576,16.0,4.0,-1.0,-4.0,-3.0,0.0,2.0,13.0
1705081116.628576,1.0,-11.0,-2.0,0.0,0.0,-3.0,-6.0,-17.0
1705081116.628576,-19.0,-8.0,1.0,1.0,12.0,-3.0,-1.0,-2.0
1705081116.6486332,-7.0,0.0,-9.0,-8.0,-14.0,-1.0,-4.0,-3.0
1705081116.6486332,-9.0,-11.0,-1.0,-1.0,-5.0,-9.0,-2.0,-3.0
1705081116.6486332,9.0,5.0,-1.0,0.0,-1.0,4.0,1.0,6.0
1705081116.6486332,-15.0,-2.0,-2.0,-5.0,3.0,11.0,-1.0,-2.0
1705081116.6782434,-8.0,-5.0,-7.0,0.0,2.0,-8.0,1.0,-4.0
1705081116.6782434,14.0,-1.0,12.0,8.0,6.0,0.0,4.0,8.0
1705081116.6782434,10.0,10.0,-6.0,-3.0,-2.0,4.0,1.0,-4.0
1705081116.6782434,-18.0,-16.0,-11.0,-11.0,-17.0,-8.0,-5.0,-8.0
1705081116.688502,-3.0,-2.0,2.0,2.0,2.0,1.0,-1.0,0.0
1705081116.688502,-1.0,1.0,0.0,-5.0,-2.0,-1.0,-6.0,1.0
1705081116.688502,-9.0,-1.0,-4.0,5.0,6.0,0.0,3.0,1.0
1705081116.688502,-8.0,-13.0,15.0,-1.0,-2.0,1.0,-6.0,-12.0
1705081116.718251,-16.0,-2.0,-1.0,-3.0,-2.0,-2.0,-2.0,-3.0
1705081116.718251,5.0,-15.0,-16.0,-3.0,0.0,-2.0,0.0,1.0
1705081116.718251,-13.0,16.0,18.0,0.0,1.0,-2.0,-3.0,0.0
1705081116.718251,-1.0,3.0,-5.0,-3.0,-9.0,-4.0,-1.0,5.0
1705081116.738243,34.0,-7.0,5.0,7.0,6.0,0.0,3.0,4.0
1705081116.738243,-10.0,-14.0,-2.0,2.0,0.0,0.0,-2.0,-2.0
1705081116.738243,15.0,23.0,2.0,-6.0,-2.0,-3.0,-3.0,-13.0
1705081116.738243,23.0,-6.0,-22.0,3.0,-3.0,-1.0,1.0,-2.0
1705081116.7484174,-68.0,2.0,8.0,-4.0,0.0,-1.0,0.0,-8.0
1705081116.7484174,-8.0,-2.0,-23.0,-3.0,-6.0,-1.0,-6.0,-12.0
1705081116.758331,20.0,-5.0,9.0,1.0,-2.0,-4.0,2.0,7.0
1705081116.758331,-4.0,0.0,-15.0,-2.0,0.0,-4.0,-2.0,0.0
1705081116.7782397,44.0,9.0,26.0,11.0,9.0,4.0,4.0,17.0
1705081116.7782397,-25.0,-15.0,-7.0,-6.0,-4.0,-2.0,-6.0,-33.0
1705081116.7782397,17.0,-2.0,-3.0,-2.0,-6.0,-3.0,0.0,12.0
1705081116.7782397,-47.0,-10.0,-6.0,-9.0,-13.0,0.0,1.0,-2.0
1705081116.798245,56.0,4.0,-5.0,-1.0,0.0,0.0,2.0,20.0
1705081116.798245,-33.0,6.0,10.0,2.0,0.0,1.0,0.0,-17.0
1705081116.798245,14.0,-1.0,-3.0,3.0,-3.0,3.0,-6.0,-5.0
1705081116.798245,-9.0,-15.0,-3.0,-3.0,1.0,-3.0,-8.0,-21.0
1705081116.8084986,-14.0,-1.0,-3.0,2.0,-1.0,1.0,1.0,7.0
1705081116.8084986,17.0,5.0,3.0,-5.0,-1.0,-3.0,2.0,19.0
1705081116.8183372,-6.0,2.0,-4.0,1.0,0.0,-1.0,3.0,2.0
1705081116.8183372,5.0,10.0,12.0,2.0,5.0,2.0,1.0,9.0
1705081116.8285508,-18.0,-11.0,-16.0,-11.0,-22.0,-6.0,-4.0,-11.0
1705081116.8285508,21.0,4.0,-1.0,2.0,22.0,-5.0,4.0,5.0
1705081116.8382385,-14.0,-7.0,1.0,-1.0,-6.0,9.0,-6.0,-1.0
1705081116.8382385,2.0,10.0,10.0,6.0,8.0,-6.0,3.0,2.0
1705081116.848272,-2.0,-5.0,-2.0,1.0,-17.0,7.0,-10.0,-12.0
1705081116.8582444,6.0,4.0,2.0,0.0,-9.0,-5.0,3.0,8.0
1705081116.8582444,2.0,-3.0,-4.0,-4.0,5.0,-6.0,0.0,0.0
1705081116.8582444,0.0,3.0,0.0,-7.0,1.0,-2.0,0.0,1.0
1705081116.8784735,-16.0,-16.0,-8.0,-6.0,3.0,-8.0,0.0,-7.0
1705081116.8784735,13.0,13.0,-1.0,-3.0,1.0,3.0,-1.0,6.0
1705081116.8784735,-11.0,-9.0,7.0,2.0,2.0,-1.0,0.0,-6.0
1705081116.8784735,-1.0,-6.0,1.0,5.0,-1.0,-1.0,-3.0,-1.0
1705081116.8882387,-7.0,-42.0,-14.0,-5.0,1.0,-2.0,-1.0,-3.0
1705081116.8882387,32.0,7.0,33.0,5.0,0.0,5.0,-2.0,8.0
1705081116.8882387,-34.0,-1.0,-26.0,-9.0,-7.0,-4.0,-2.0,-6.0
1705081116.8882387,8.0,9.0,-22.0,-18.0,-17.0,-6.0,-4.0,-4.0
1705081116.9182436,-28.0,-30.0,14.0,26.0,14.0,4.0,1.0,-8.0
1705081116.9182436,8.0,-2.0,2.0,2.0,7.0,2.0,1.0,11.0
1705081116.9182436,2.0,3.0,3.0,0.0,-12.0,-3.0,1.0,15.0
1705081116.9182436,-13.0,6.0,-5.0,9.0,21.0,0.0,-5.0,-35.0
1705081116.9482381,0.0,43.0,-15.0,-25.0,-14.0,-1.0,7.0,17.0
1705081116.9482381,11.0,15.0,29.0,19.0,6.0,3.0,0.0,5.0
1705081116.9482381,3.0,-16.0,-20.0,-10.0,-11.0,-9.0,-18.0,-55.0
1705081116.9482381,-1.0,21.0,22.0,7.0,6.0,-1.0,3.0,12.0
1705081116.9482381,10.0,7.0,10.0,16.0,21.0,1.0,1.0,-2.0
1705081116.9482381,-12.0,-9.0,-10.0,-6.0,-4.0,-1.0,2.0,6.0
1705081116.9482381,3.0,2.0,-8.0,-13.0,-2.0,0.0,4.0,19.0
1705081116.9482381,0.0,-9.0,9.0,3.0,-17.0,-5.0,0.0,-3.0
1705081116.9686406,-1.0,-4.0,0.0,-1.0,4.0,1.0,-1.0,-8.0
1705081116.9686406,1.0,2.0,-12.0,-7.0,-6.0,2.0,2.0,5.0
1705081116.9788146,-9.0,-7.0,-1.0,2.0,3.0,3.0,-1.0,-1.0
1705081116.9788146,0.0,-9.0,-1.0,-6.0,-3.0,0.0,-1.0,3.0
1705081116.999282,7.0,7.0,-3.0,4.0,4.0,0.0,0.0,6.0
1705081116.999282,-8.0,-5.0,-14.0,-8.0,-4.0,-2.0,-4.0,-10.0
1705081117.0002813,3.0,5.0,1.0,5.0,3.0,2.0,1.0,-3.0
1705081117.0002813,-1.0,-8.0,-1.0,-7.0,-10.0,0.0,-1.0,7.0
1705081117.0108218,-2.0,17.0,-2.0,-5.0,-1.0,-6.0,-5.0,-6.0
1705081117.0108218,-9.0,-12.0,-6.0,-1.0,0.0,0.0,-1.0,-6.0
1705081117.0108218,3.0,4.0,10.0,-2.0,3.0,-2.0,3.0,2.0
1705081117.0108218,4.0,-9.0,-2.0,-9.0,-17.0,1.0,0.0,8.0
1705081117.031433,-3.0,0.0,-1.0,9.0,10.0,0.0,-3.0,-3.0
1705081117.031433,-3.0,-3.0,-4.0,-6.0,-9.0,-2.0,-2.0,-17.0
1705081117.031433,4.0,-7.0,-6.0,2.0,-2.0,-1.0,5.0,10.0
1705081117.031433,-3.0,-2.0,4.0,4.0,5.0,2.0,-1.0,-2.0
1705081117.0711634,1.0,8.0,0.0,-10.0,-7.0,0.0,-3.0,-4.0
1705081117.0711634,-3.0,4.0,-7.0,-4.0,-4.0,-4.0,0.0,4.0
1705081117.0711634,2.0,-18.0,0.0,5.0,3.0,1.0,2.0,2.0
1705081117.0711634,-3.0,18.0,16.0,1.0,2.0,-1.0,-3.0,-3.0
1705081117.0813873,2.0,13.0,-7.0,-5.0,-1.0,-1.0,-3.0,1.0
1705081117.0813873,0.0,-8.0,2.0,-3.0,-3.0,-1.0,-3.0,0.0
1705081117.0813873,-1.0,-8.0,4.0,6.0,5.0,0.0,3.0,12.0
1705081117.0813873,1.0,6.0,-1.0,3.0,2.0,1.0,1.0,5.0
1705081117.091469,0.0,-10.0,1.0,-4.0,2.0,-1.0,-5.0,-12.0
1705081117.091469,-2.0,-1.0,-20.0,-11.0,-5.0,-4.0,-2.0,-3.0
1705081117.091469,-1.0,12.0,5.0,-11.0,-6.0,-6.0,-10.0,-23.0
1705081117.091469,0.0,-4.0,7.0,9.0,6.0,0.0,-1.0,6.0
1705081117.1211643,-5.0,-16.0,1.0,3.0,-3.0,0.0,0.0,-1.0
1705081117.1211643,13.0,8.0,13.0,5.0,2.0,5.0,7.0,13.0
1705081117.1211643,-23.0,-67.0,-24.0,-8.0,3.0,-5.0,-2.0,-1.0
1705081117.1211643,-4.0,-8.0,-12.0,-3.0,-4.0,-1.0,1.0,-5.0
1705081117.1311955,3.0,12.0,-3.0,-4.0,0.0,0.0,1.0,-2.0
1705081117.1311955,-3.0,-8.0,3.0,0.0,-12.0,3.0,-3.0,-2.0
1705081117.1311955,11.0,8.0,12.0,9.0,10.0,3.0,1.0,5.0
1705081117.1311955,-3.0,8.0,-14.0,-10.0,-5.0,-4.0,-5.0,-4.0
1705081117.1711617,-9.0,12.0,12.0,-1.0,-3.0,-3.0,-1.0,-1.0
1705081117.1711617,-5.0,-13.0,-11.0,-5.0,-3.0,-4.0,-6.0,0.0
1705081117.1711617,9.0,26.0,6.0,-2.0,-5.0,-2.0,2.0,1.0
1705081117.1711617,-7.0,-26.0,1.0,0.0,-1.0,0.0,1.0,-1.0
1705081117.1711617,2.0,21.0,0.0,-8.0,-8.0,-2.0,-2.0,1.0
1705081117.1711617,-8.0,7.0,-7.0,-2.0,1.0,-5.0,-2.0,-7.0
1705081117.1815,-3.0,7.0,0.0,5.0,2.0,-1.0,-3.0,-3.0
1705081117.1815,12.0,50.0,27.0,2.0,5.0,2.0,3.0,8.0
1705081117.191556,11.0,-48.0,-31.0,-5.0,-4.0,-2.0,0.0,-3.0
1705081117.191556,-37.0,-17.0,-8.0,5.0,1.0,-1.0,-3.0,-9.0
1705081117.191556,16.0,12.0,5.0,-3.0,1.0,-1.0,-3.0,-1.0
1705081117.191556,8.0,-3.0,-4.0,4.0,-5.0,2.0,-2.0,2.0
1705081117.2211623,-22.0,5.0,-1.0,-7.0,6.0,-3.0,-4.0,-6.0
1705081117.2211623,-2.0,3.0,-7.0,-5.0,0.0,-2.0,0.0,-4.0
1705081117.2211623,-1.0,12.0,6.0,7.0,2.0,1.0,1.0,10.0
1705081117.2211623,-10.0,-19.0,-10.0,-4.0,-1.0,-1.0,-1.0,-6.0
1705081117.231228,5.0,5.0,6.0,5.0,-1.0,0.0,-1.0,2.0
1705081117.231228,-4.0,9.0,10.0,4.0,3.0,-3.0,-1.0,4.0
1705081117.2411678,-1.0,-3.0,4.0,-3.0,-2.0,-1.0,-3.0,-1.0
1705081117.2411678,9.0,-31.0,-21.0,-9.0,1.0,-5.0,-5.0,-5.0
1705081117.2514915,1.0,3.0,-4.0,-5.0,-7.0,-2.0,1.0,4.0
1705081117.2514915,7.0,14.0,16.0,2.0,6.0,5.0,5.0,3.0
1705081117.2514915,-22.0,-30.0,-4.0,8.0,1.0,1.0,-1.0,-9.0
1705081117.2514915,0.0,27.0,18.0,5.0,3.0,-1.0,0.0,-1.0
1705081117.291245,10.0,-4.0,-21.0,-6.0,-9.0,-3.0,1.0,1.0
1705081117.291245,8.0,-6.0,-12.0,-7.0,5.0,-6.0,-2.0,-6.0
1705081117.291245,-9.0,27.0,2.0,-6.0,-1.0,1.0,0.0,-4.0
1705081117.291245,-15.0,3.0,5.0,3.0,0.0,0.0,0.0,-2.0
1705081117.291245,-9.0,-31.0,-1.0,5.0,6.0,1.0,-5.0,-1.0
1705081117.291245,12.0,0.0,-7.0,-6.0,-5.0,-1.0,-1.0,0.0
1705081117.3012476,-8.0,0.0,-10.0,-6.0,-4.0,-4.0,-3.0,-10.0
1705081117.3012476,4.0,-1.0,2.0,0.0,0.0,0.0,2.0,-2.0
1705081117.3115914,17.0,23.0,17.0,5.0,2.0,0.0,2.0,4.0
1705081117.3115914,6.0,-5.0,-4.0,-3.0,-6.0,-2.0,-2.0,0.0
1705081117.3115914,-46.0,-5.0,-7.0,-4.0,-4.0,0.0,-1.0,-7.0
1705081117.3115914,1.0,-21.0,-5.0,0.0,-4.0,-1.0,-1.0,2.0
1705081117.3416116,-8.0,-5.0,-6.0,-8.0,-4.0,-2.0,-2.0,-3.0
1705081117.3416116,-4.0,6.0,39.0,20.0,9.0,4.0,2.0,1.0
1705081117.3416116,27.0,9.0,-14.0,-8.0,-6.0,-5.0,-3.0,1.0
1705081117.3416116,-12.0,-25.0,-35.0,-20.0,-5.0,-3.0,-4.0,1.0
1705081117.3416116,-5.0,23.0,51.0,24.0,20.0,2.0,1.0,-8.0
1705081117.3416116,-18.0,-17.0,-18.0,-5.0,-5.0,-2.0,-5.0,-9.0
1705081117.35187,12.0,-6.0,-4.0,-2.0,2.0,2.0,-1.0,4.0
1705081117.35187,2.0,-4.0,11.0,6.0,2.0,1.0,0.0,4.0
1705081117.3716106,-8.0,-19.0,-18.0,-10.0,-8.0,-6.0,-5.0,-5.0
1705081117.3716106,6.0,-23.0,-20.0,-8.0,-5.0,-2.0,-1.0,5.0
1705081117.3716106,-9.0,-9.0,0.0,-3.0,-2.0,-3.0,-5.0,-7.0
1705081117.3716106,12.0,-10.0,2.0,7.0,0.0,1.0,0.0,-3.0
1705081117.3916426,-38.0,-1.0,0.0,-5.0,-1.0,0.0,4.0,2.0
1705081117.3916426,5.0,3.0,-2.0,-4.0,-5.0,-1.0,-4.0,-7.0
1705081117.3916426,9.0,-17.0,-7.0,-5.0,5.0,-1.0,0.0,-1.0
1705081117.3916426,19.0,38.0,14.0,3.0,1.0,-1.0,-1.0,2.0
1705081117.4116135,11.0,0.0,-11.0,3.0,-3.0,1.0,1.0,2.0
1705081117.4116135,0.0,6.0,1.0,1.0,0.0,-1.0,-2.0,-5.0
1705081117.4116135,19.0,7.0,3.0,-2.0,-3.0,0.0,3.0,11.0
1705081117.4116135,-10.0,-3.0,4.0,1.0,0.0,-1.0,-1.0,-4.0
1705081117.4319437,6.0,-4.0,-2.0,-2.0,-1.0,-1.0,-1.0,-1.0
1705081117.4319437,-8.0,4.0,-4.0,-10.0,1.0,-2.0,-1.0,2.0
1705081117.4616072,3.0,4.0,9.0,5.0,5.0,1.0,-1.0,-2.0
1705081117.4616072,-7.0,-11.0,-4.0,6.0,0.0,-3.0,-2.0,-4.0
1705081117.4616072,4.0,0.0,-5.0,-4.0,-6.0,-1.0,-4.0,-1.0
1705081117.4616072,0.0,-7.0,-14.0,-6.0,-6.0,-1.0,-1.0,-2.0
1705081117.4616072,9.0,12.0,8.0,-4.0,-6.0,0.0,0.0,1.0
1705081117.4616072,-4.0,-14.0,-1.0,-2.0,5.0,2.0,-2.0,1.0
1705081117.4716105,9.0,2.0,3.0,6.0,-1.0,0.0,2.0,2.0
1705081117.4716105,8.0,14.0,6.0,3.0,2.0,-4.0,1.0,3.0
1705081117.4716105,2.0,-22.0,-5.0,1.0,-2.0,-2.0,-2.0,-4.0
1705081117.4716105,-29.0,2.0,-17.0,-11.0,-3.0,-7.0,-4.0,-4.0
1705081117.4920323,39.0,0.0,0.0,0.0,-3.0,1.0,0.0,-4.0
1705081117.4920323,-4.0,-11.0,-9.0,-8.0,-10.0,0.0,-5.0,-9.0
1705081117.4920323,-48.0,-5.0,-2.0,-6.0,-6.0,-4.0,-2.0,-4.0
1705081117.4920323,12.0,32.0,9.0,-1.0,7.0,1.0,1.0,3.0
1705081117.5176148,-3.0,-1.0,7.0,2.0,-6.0,-6.0,0.0,7.0
1705081117.5176148,4.0,12.0,5.0,9.0,0.0,0.0,3.0,2.0
1705081117.519515,23.0,9.0,5.0,2.0,0.0,5.0,2.0,5.0
1705081117.519515,11.0,-4.0,-12.0,-7.0,-5.0,-3.0,0.0,-2.0
1705081117.5307605,-18.0,-14.0,-8.0,-12.0,-16.0,-2.0,-1.0,0.0
1705081117.5307605,-9.0,4.0,4.0,0.0,10.0,2.0,-2.0,-2.0
1705081117.5441523,-4.0,-1.0,-3.0,7.0,7.0,0.0,3.0,2.0
1705081117.5441523,6.0,19.0,14.0,1.0,0.0,-1.0,1.0,-2.0
1705081117.5541544,4.0,-45.0,-15.0,-8.0,-2.0,-1.0,-5.0,-6.0
1705081117.5541544,4.0,7.0,-4.0,-4.0,-6.0,-5.0,0.0,0.0
1705081117.5541544,-3.0,-3.0,-6.0,-3.0,0.0,1.0,-1.0,1.0
1705081117.5541544,8.0,0.0,-4.0,-7.0,-8.0,0.0,-1.0,3.0
1705081117.574548,-24.0,7.0,3.0,2.0,3.0,0.0,-2.0,-3.0
1705081117.574548,3.0,-9.0,0.0,-3.0,1.0,2.0,-1.0,-3.0
1705081117.574548,3.0,2.0,7.0,11.0,2.0,-4.0,3.0,3.0
1705081117.574548,24.0,12.0,8.0,1.0,-7.0,-1.0,1.0,6.0
1705081117.5946598,-47.0,-34.0,-15.0,-7.0,2.0,-2.0,-6.0,-13.0
1705081117.5946598,-10.0,7.0,11.0,-7.0,-14.0,-1.0,0.0,-2.0
1705081117.5946598,1.0,-22.0,-22.0,-1.0,8.0,-1.0,-2.0,-4.0
1705081117.5946598,-3.0,9.0,20.0,9.0,6.0,9.0,3.0,-1.0
1705081117.6147072,15.0,19.0,7.0,7.0,8.0,0.0,3.0,0.0
1705081117.6147072,2.0,-7.0,-2.0,3.0,2.0,-3.0,0.0,6.0
1705081117.6147072,3.0,-10.0,-1.0,-6.0,-3.0,4.0,0.0,-7.0
1705081117.6147072,-16.0,-14.0,-13.0,-8.0,-16.0,-10.0,-3.0,-1.0
1705081117.6351023,16.0,8.0,-7.0,-6.0,3.0,2.0,-2.0,1.0
1705081117.6351023,0.0,2.0,9.0,6.0,0.0,1.0,0.0,2.0
1705081117.6351023,-26.0,18.0,11.0,2.0,0.0,-3.0,-3.0,3.0
1705081117.6351023,-15.0,-20.0,-9.0,0.0,3.0,5.0,0.0,-2.0
1705081117.6551032,17.0,11.0,2.0,-2.0,-5.0,-1.0,-2.0,0.0
1705081117.6551032,25.0,5.0,0.0,2.0,4.0,-3.0,2.0,2.0
1705081117.6551032,-28.0,-17.0,-14.0,-9.0,-7.0,-7.0,-4.0,-5.0
1705081117.6551032,-10.0,4.0,-1.0,-6.0,3.0,-3.0,-5.0,-11.0
1705081117.6747136,-2.0,22.0,14.0,8.0,3.0,1.0,0.0,1.0
1705081117.6747136,-10.0,-16.0,-8.0,-3.0,5.0,1.0,0.0,1.0
1705081117.6747136,21.0,15.0,6.0,3.0,-1.0,0.0,0.0,3.0
1705081117.6747136,-1.0,-10.0,-7.0,-4.0,-5.0,-1.0,0.0,5.0
