1705080762.66223,0.0,1.0,0.0,2.0,10.0,4.0,2.0,-1.0
1705080762.6722462,-2.0,-3.0,1.0,3.0,-1.0,-2.0,2.0,-1.0
1705080762.6722462,-1.0,-1.0,-4.0,-7.0,-4.0,-1.0,-9.0,-4.0
1705080762.6722462,-1.0,-2.0,1.0,-4.0,-6.0,-4.0,0.0,-1.0
1705080762.6722462,-3.0,-6.0,-2.0,0.0,0.0,1.0,2.0,-1.0
1705080762.6722462,1.0,1.0,-2.0,3.0,2.0,0.0,-5.0,-2.0
1705080762.6722462,-4.0,-3.0,-1.0,-2.0,3.0,3.0,2.0,-1.0
1705080762.6722462,4.0,7.0,-3.0,1.0,-1.0,1.0,-2.0,0.0
1705080762.692581,-4.0,-5.0,-1.0,-5.0,-7.0,-11.0,-1.0,0.0
1705080762.692581,-1.0,-1.0,0.0,-1.0,2.0,-1.0,2.0,0.0
1705080762.7024872,-1.0,1.0,0.0,4.0,-4.0,6.0,0.0,-2.0
1705080762.7024872,-2.0,-3.0,-3.0,-5.0,5.0,-4.0,-5.0,-1.0
1705080762.7222311,2.0,3.0,1.0,1.0,-8.0,-3.0,0.0,1.0
1705080762.7222311,1.0,0.0,-1.0,3.0,14.0,9.0,0.0,1.0
1705080762.7222311,1.0,0.0,5.0,3.0,-4.0,-15.0,0.0,0.0
1705080762.7222311,-1.0,-1.0,1.0,-2.0,-3.0,1.0,2.0,0.0
1705080762.732255,-2.0,-1.0,-7.0,-3.0,-3.0,1.0,-3.0,-2.0
1705080762.732255,-1.0,-2.0,3.0,-6.0,-5.0,-5.0,1.0,0.0
1705080762.732255,0.0,1.0,2.0,5.0,3.0,5.0,-2.0,0.0
1705080762.732255,-1.0,-1.0,4.0,4.0,0.0,-3.0,0.0,-1.0
1705080762.752551,2.0,1.0,2.0,0.0,3.0,0.0,-3.0,0.0
1705080762.752551,-1.0,0.0,-7.0,-6.0,-3.0,2.0,-1.0,-2.0
1705080762.752551,-2.0,-4.0,-4.0,-5.0,-2.0,1.0,1.0,-1.0
1705080762.752551,-4.0,-3.0,-3.0,-4.0,-4.0,-4.0,-3.0,-4.0
1705080762.7825267,-2.0,-1.0,-2.0,-5.0,0.0,7.0,4.0,-1.0
1705080762.7825267,-2.0,-1.0,3.0,7.0,2.0,-10.0,-7.0,0.0
1705080762.7825267,0.0,2.0,1.0,2.0,0.0,3.0,3.0,2.0
1705080762.7825267,2.0,0.0,-3.0,1.0,5.0,-4.0,-1.0,0.0
1705080762.8022292,0.0,1.0,3.0,1.0,1.0,1.0,2.0,-1.0
1705080762.8022292,-2.0,-2.0,-5.0,-7.0,-4.0,1.0,0.0,-2.0
1705080762.8022292,-1.0,0.0,3.0,1.0,-1.0,-5.0,-2.0,-1.0
1705080762.8022292,-2.0,-3.0,-4.0,-2.0,-8.0,-5.0,-4.0,-2.0
1705080762.8125668,0.0,-1.0,6.0,3.0,4.0,6.0,0.0,1.0
1705080762.8222551,-1.0,-4.0,-4.0,-1.0,4.0,0.0,0.0,-1.0
1705080762.8222551,-3.0,-1.0,-3.0,-8.0,-7.0,-2.0,-3.0,-2.0
1705080762.8222551,-1.0,-1.0,0.0,2.0,-1.0,1.0,0.0,-2.0
1705080762.8422306,-2.0,0.0,-1.0,0.0,-6.0,-6.0,-3.0,-1.0
1705080762.8422306,1.0,-1.0,-3.0,-5.0,-8.0,-5.0,-3.0,-2.0
1705080762.8422306,0.0,-1.0,-4.0,-3.0,6.0,3.0,-1.0,0.0
1705080762.8422306,2.0,-1.0,0.0,0.0,2.0,2.0,0.0,-1.0
1705080762.8525496,-2.0,-2.0,1.0,2.0,3.0,0.0,1.0,0.0
1705080762.8525496,1.0,-1.0,-2.0,2.0,-4.0,-4.0,0.0,1.0
1705080762.862547,0.0,-1.0,0.0,3.0,1.0,-3.0,-2.0,1.0
1705080762.862547,0.0,1.0,3.0,-2.0,2.0,1.0,0.0,-1.0
1705080762.8726027,0.0,-4.0,-6.0,-6.0,0.0,1.0,-4.0,-2.0
1705080762.8726027,-1.0,0.0,5.0,2.0,3.0,2.0,2.0,-1.0
1705080762.8822372,0.0,0.0,-7.0,-5.0,-5.0,-1.0,0.0,-1.0
1705080762.8822372,-2.0,-2.0,1.0,0.0,-3.0,-2.0,-4.0,1.0
1705080762.9024358,-2.0,-2.0,-4.0,-5.0,-2.0,-3.0,-2.0,-1.0
1705080762.9024358,-3.0,-1.0,0.0,-2.0,-1.0,2.0,4.0,1.0
1705080762.9024358,0.0,-1.0,-3.0,-2.0,-3.0,-15.0,-15.0,-4.0
1705080762.9024358,0.0,0.0,-1.0,-1.0,-3.0,3.0,0.0,-2.0
1705080762.9124563,-4.0,-5.0,-1.0,6.0,8.0,5.0,-4.0,-3.0
1705080762.9124563,2.0,-1.0,-1.0,2.0,-1.0,2.0,1.0,2.0
1705080762.922483,-2.0,-1.0,-3.0,1.0,-1.0,1.0,0.0,0.0
1705080762.922483,1.0,-2.0,2.0,-1.0,-1.0,-6.0,-2.0,0.0
1705080762.942247,0.0,-2.0,-2.0,-4.0,-5.0,-5.0,1.0,-1.0
1705080762.942247,1.0,0.0,-5.0,-1.0,-1.0,-1.0,-1.0,0.0
1705080762.942247,-1.0,-2.0,1.0,0.0,1.0,4.0,1.0,0.0
1705080762.942247,-4.0,-5.0,-6.0,-6.0,0.0,2.0,-5.0,-2.0
1705080762.9622352,0.0,-1.0,-2.0,1.0,0.0,-3.0,-3.0,1.0
1705080762.9622352,-4.0,-1.0,-2.0,-5.0,-3.0,-5.0,-4.0,-4.0
1705080762.9622352,0.0,2.0,0.0,-3.0,-2.0,-1.0,0.0,0.0
1705080762.9622352,-1.0,1.0,-1.0,2.0,2.0,0.0,4.0,-1.0
1705080762.972253,0.0,0.0,1.0,5.0,-1.0,-4.0,-7.0,-1.0
1705080762.972253,-2.0,-4.0,-8.0,-5.0,-5.0,-9.0,-9.0,-1.0
1705080762.982517,-2.0,0.0,3.0,0.0,-1.0,2.0,5.0,-2.0
1705080762.982517,-1.0,0.0,-2.0,0.0,0.0,1.0,0.0,-2.0
1705080763.0007756,0.0,3.0,0.0,-1.0,-1.0,0.0,6.0,1.0
1705080763.0007756,-5.0,-5.0,0.0,-2.0,-4.0,-4.0,-7.0,-3.0
1705080763.0015976,1.0,-1.0,-3.0,-3.0,1.0,2.0,-1.0,1.0
1705080763.0015976,-1.0,1.0,3.0,4.0,-3.0,-5.0,1.0,-1.0
1705080763.024897,2.0,1.0,-3.0,-5.0,7.0,-2.0,-3.0,-2.0
1705080763.024897,-1.0,0.0,2.0,0.0,2.0,2.0,2.0,0.0
1705080763.024897,-3.0,-3.0,-7.0,-9.0,-2.0,-4.0,-1.0,-1.0
1705080763.024897,2.0,-2.0,6.0,2.0,-11.0,-4.0,-1.0,-2.0
1705080763.0451255,-2.0,1.0,4.0,4.0,5.0,-1.0,-2.0,1.0
1705080763.0451255,-1.0,-2.0,-1.0,3.0,4.0,1.0,2.0,0.0
1705080763.0451255,-1.0,-1.0,-2.0,-2.0,-7.0,-8.0,-5.0,-3.0
1705080763.0451255,0.0,0.0,-7.0,-8.0,4.0,4.0,0.0,1.0
1705080763.0649307,0.0,-1.0,0.0,-5.0,-9.0,-3.0,-4.0,-3.0
1705080763.0649307,-3.0,-2.0,2.0,2.0,0.0,3.0,-1.0,-1.0
1705080763.0649307,0.0,-1.0,-2.0,3.0,3.0,2.0,0.0,1.0
1705080763.0649307,-2.0,-2.0,-1.0,-3.0,-4.0,-6.0,-4.0,-1.0
1705080763.0849001,0.0,-2.0,-3.0,-7.0,-5.0,0.0,-2.0,-2.0
1705080763.0849001,2.0,3.0,1.0,-1.0,1.0,-1.0,2.0,-1.0
1705080763.0849001,-3.0,-5.0,3.0,3.0,-2.0,-1.0,2.0,-2.0
1705080763.0849001,-1.0,-2.0,-3.0,-5.0,2.0,2.0,-1.0,-2.0
1705080763.0951695,-5.0,-1.0,-2.0,1.0,0.0,-3.0,0.0,-2.0
1705080763.0951695,3.0,5.0,5.0,2.0,-2.0,-1.0,-2.0,-1.0
1705080763.105061,-5.0,-7.0,-3.0,0.0,1.0,3.0,5.0,-1.0
1705080763.105061,-2.0,-2.0,-3.0,-4.0,-1.0,-8.0,-14.0,0.0
1705080763.1248958,-1.0,0.0,-1.0,-1.0,1.0,8.0,1.0,-1.0
1705080763.1248958,0.0,1.0,-2.0,0.0,0.0,1.0,2.0,0.0
1705080763.1248958,-1.0,0.0,3.0,-1.0,4.0,0.0,0.0,-1.0
1705080763.1248958,-2.0,-3.0,-6.0,0.0,0.0,-1.0,1.0,0.0
1705080763.1449006,-1.0,-1.0,-5.0,-6.0,-6.0,-6.0,-1.0,-4.0
1705080763.1449006,1.0,2.0,-1.0,0.0,1.0,6.0,1.0,2.0
1705080763.1449006,-1.0,-2.0,2.0,3.0,-5.0,-8.0,7.0,1.0
1705080763.1449006,-3.0,0.0,-1.0,-1.0,7.0,9.0,-10.0,-3.0
1705080763.1650572,-2.0,-4.0,0.0,3.0,-6.0,-16.0,-2.0,1.0
1705080763.1650572,-3.0,-5.0,-1.0,-3.0,3.0,6.0,4.0,-2.0
1705080763.1650572,2.0,2.0,1.0,-1.0,-1.0,-2.0,-7.0,0.0
1705080763.1650572,-2.0,-4.0,-6.0,-2.0,-5.0,-4.0,3.0,1.0
1705080763.1848958,0.0,-1.0,-2.0,-2.0,-3.0,-3.0,-1.0,-1.0
1705080763.1848958,-1.0,-2.0,0.0,0.0,0.0,-2.0,-4.0,-2.0
1705080763.1848958,2.0,2.0,-1.0,-1.0,2.0,3.0,1.0,-1.0
1705080763.1848958,1.0,3.0,-3.0,-4.0,-7.0,-4.0,1.0,-2.0
1705080763.204898,-4.0,-6.0,6.0,6.0,7.0,8.0,-3.0,-2.0
1705080763.204898,0.0,0.0,-2.0,-1.0,-4.0,-3.0,-2.0,0.0
1705080763.204898,-1.0,1.0,0.0,2.0,0.0,2.0,-1.0,-2.0
1705080763.204898,1.0,1.0,-1.0,-2.0,-2.0,-3.0,6.0,-1.0
1705080763.2251701,-3.0,-5.0,-2.0,-7.0,-9.0,-4.0,-11.0,-2.0
1705080763.2251701,-2.0,-1.0,-1.0,-5.0,2.0,-2.0,-5.0,-2.0
1705080763.2251701,-1.0,-2.0,-6.0,-6.0,-1.0,-1.0,-2.0,-1.0
1705080763.2251701,1.0,0.0,7.0,9.0,1.0,1.0,1.0,0.0
1705080763.2348962,2.0,4.0,-1.0,-1.0,0.0,5.0,7.0,0.0
1705080763.2348962,1.0,0.0,0.0,0.0,-4.0,-6.0,-3.0,1.0
1705080763.2348962,0.0,-2.0,-6.0,-8.0,-4.0,-4.0,-3.0,-1.0
1705080763.2348962,-2.0,-3.0,-3.0,-4.0,3.0,2.0,1.0,-1.0
1705080763.2648978,0.0,1.0,0.0,2.0,1.0,1.0,2.0,0.0
1705080763.2648978,-3.0,0.0,-4.0,-8.0,-5.0,-5.0,-3.0,-2.0
1705080763.2648978,0.0,0.0,2.0,5.0,1.0,0.0,1.0,-1.0
1705080763.2648978,-1.0,0.0,4.0,0.0,-1.0,-1.0,-1.0,-1.0
1705080763.2848973,-2.0,-1.0,-5.0,0.0,4.0,1.0,2.0,-1.0
1705080763.2848973,-1.0,-3.0,-3.0,-4.0,-4.0,-3.0,-2.0,-2.0
1705080763.2848973,0.0,2.0,4.0,3.0,-3.0,-1.0,-3.0,-1.0
1705080763.2848973,-4.0,-2.0,-6.0,-4.0,-2.0,-1.0,1.0,-3.0
1705080763.2952235,3.0,6.0,4.0,5.0,2.0,1.0,2.0,3.0
1705080763.2952235,-7.0,-12.0,-4.0,-1.0,0.0,2.0,-4.0,-3.0
1705080763.2952235,1.0,2.0,-3.0,-4.0,4.0,0.0,4.0,1.0
1705080763.2952235,-2.0,-2.0,0.0,2.0,3.0,1.0,-6.0,-1.0
1705080763.3248975,-1.0,-3.0,-6.0,-8.0,-6.0,-8.0,2.0,-3.0
1705080763.3248975,2.0,3.0,0.0,3.0,-4.0,3.0,-7.0,-1.0
1705080763.3248975,-2.0,-3.0,1.0,1.0,1.0,-1.0,-3.0,-2.0
1705080763.3248975,-1.0,-1.0,-1.0,-3.0,-10.0,-4.0,2.0,-1.0
1705080763.3449326,-1.0,1.0,-1.0,-1.0,11.0,5.0,1.0,-1.0
1705080763.3449326,1.0,0.0,2.0,-2.0,-5.0,0.0,4.0,0.0
1705080763.3449326,1.0,-3.0,-2.0,3.0,2.0,1.0,-1.0,-2.0
1705080763.3449326,0.0,1.0,-1.0,1.0,1.0,1.0,-2.0,0.0
1705080763.3552356,-3.0,-2.0,-1.0,-3.0,-10.0,-8.0,-3.0,-1.0
1705080763.3552356,0.0,1.0,-1.0,2.0,4.0,0.0,1.0,1.0
1705080763.3552356,-1.0,1.0,-3.0,-1.0,-3.0,0.0,-1.0,-1.0
1705080763.3552356,-1.0,-2.0,-4.0,-1.0,3.0,-2.0,-1.0,-1.0
1705080763.3848977,1.0,-3.0,2.0,2.0,-3.0,-1.0,-3.0,1.0
1705080763.3848977,-6.0,-7.0,-5.0,-7.0,-1.0,-1.0,3.0,-2.0
1705080763.3848977,-2.0,1.0,1.0,0.0,1.0,1.0,0.0,0.0
1705080763.3848977,-1.0,3.0,5.0,1.0,-2.0,-4.0,-1.0,-1.0
1705080763.4048948,1.0,1.0,-5.0,-3.0,0.0,1.0,1.0,-1.0
1705080763.4048948,4.0,2.0,5.0,4.0,-1.0,-1.0,-2.0,-1.0
1705080763.4048948,-7.0,-11.0,-6.0,-5.0,-9.0,-13.0,-14.0,-2.0
1705080763.4048948,-1.0,-3.0,-2.0,0.0,7.0,15.0,-2.0,-3.0
1705080763.4149313,-2.0,1.0,4.0,-1.0,2.0,-2.0,0.0,1.0
1705080763.4149313,1.0,3.0,-8.0,2.0,-16.0,-7.0,3.0,2.0
1705080763.4149313,-2.0,-5.0,1.0,1.0,15.0,6.0,0.0,-1.0
1705080763.4149313,0.0,1.0,0.0,-5.0,2.0,-4.0,1.0,1.0
1705080763.4448972,2.0,-1.0,0.0,4.0,-3.0,-1.0,-2.0,-3.0
1705080763.4448972,-1.0,-1.0,0.0,-4.0,2.0,2.0,1.0,-3.0
1705080763.4448972,-2.0,2.0,-5.0,-7.0,-9.0,-5.0,1.0,-2.0
1705080763.4448972,-1.0,0.0,-2.0,-1.0,-1.0,-2.0,-2.0,-1.0
1705080763.464896,-2.0,-7.0,-9.0,-2.0,-3.0,-1.0,-3.0,-1.0
1705080763.464896,-1.0,-3.0,3.0,-6.0,-3.0,-6.0,1.0,0.0
1705080763.464896,0.0,5.0,1.0,2.0,2.0,2.0,-3.0,-1.0
1705080763.464896,-1.0,-7.0,-1.0,1.0,3.0,-3.0,-1.0,-1.0
1705080763.4752312,-1.0,3.0,2.0,5.0,-1.0,-3.0,-2.0,0.0
1705080763.4752312,0.0,-3.0,-6.0,-1.0,4.0,-1.0,-4.0,-1.0
1705080763.4752312,-2.0,-1.0,0.0,-4.0,-2.0,-2.0,1.0,0.0
1705080763.4752312,-1.0,0.0,0.0,0.0,-3.0,-1.0,-3.0,0.0
1705080763.5048954,-2.0,-1.0,-3.0,-6.0,-7.0,-5.0,-4.0,-2.0
1705080763.5048954,-1.0,-2.0,-4.0,-1.0,5.0,6.0,0.0,0.0
1705080763.5048954,-1.0,2.0,3.0,0.0,-6.0,-3.0,0.0,-1.0
1705080763.5048954,-1.0,0.0,-4.0,-1.0,-4.0,1.0,0.0,-1.0
1705080763.524936,-2.0,-2.0,2.0,0.0,1.0,-2.0,1.0,0.0
1705080763.524936,0.0,2.0,-4.0,0.0,-7.0,-12.0,-2.0,-1.0
1705080763.524936,-2.0,-4.0,-1.0,-2.0,15.0,11.0,0.0,-3.0
1705080763.524936,0.0,0.0,2.0,2.0,-15.0,-4.0,1.0,-1.0
1705080763.5414224,-4.0,-5.0,-2.0,-3.0,7.0,-1.0,-3.0,-2.0
1705080763.5414224,-2.0,0.0,3.0,-2.0,4.0,1.0,0.0,0.0
1705080763.541839,0.0,-3.0,-4.0,-2.0,-9.0,-1.0,-1.0,1.0
1705080763.541839,-3.0,-2.0,0.0,-2.0,-1.0,-5.0,-1.0,-1.0
1705080763.5678375,2.0,5.0,-5.0,0.0,3.0,2.0,1.0,-1.0
1705080763.5678375,-2.0,-1.0,8.0,8.0,-2.0,-2.0,0.0,-3.0
1705080763.5678375,1.0,1.0,-6.0,-4.0,-5.0,-4.0,-2.0,1.0
1705080763.5678375,-1.0,-1.0,-4.0,-5.0,3.0,4.0,-1.0,-1.0
1705080763.5781548,-2.0,-1.0,-2.0,-3.0,-8.0,-3.0,1.0,0.0
1705080763.5781548,0.0,1.0,2.0,0.0,4.0,3.0,0.0,0.0
1705080763.5878458,-1.0,1.0,1.0,0.0,-3.0,-2.0,-2.0,-3.0
1705080763.5878458,-3.0,-3.0,-5.0,-4.0,-2.0,-4.0,0.0,-2.0
1705080763.5982223,-1.0,-2.0,-2.0,-3.0,-1.0,5.0,-1.0,0.0
1705080763.5982223,1.0,0.0,1.0,2.0,3.0,-2.0,1.0,0.0
1705080763.5982223,-1.0,-3.0,0.0,-1.0,1.0,0.0,3.0,0.0
1705080763.5982223,-4.0,-1.0,-1.0,-1.0,-5.0,-8.0,-11.0,-3.0
1705080763.628234,0.0,-2.0,-3.0,-4.0,-1.0,1.0,-2.0,-2.0
1705080763.628234,-1.0,-2.0,-3.0,-5.0,-2.0,1.0,1.0,0.0
1705080763.628234,2.0,5.0,6.0,5.0,-1.0,0.0,0.0,-1.0
1705080763.628234,0.0,1.0,4.0,-1.0,-1.0,-6.0,3.0,1.0
1705080763.6385803,-1.0,1.0,-4.0,2.0,6.0,17.0,2.0,-1.0
1705080763.6385803,-1.0,1.0,-2.0,1.0,-7.0,-12.0,-11.0,-2.0
1705080763.6385803,-4.0,-5.0,-2.0,-5.0,-3.0,-7.0,-1.0,-3.0
1705080763.6385803,-1.0,-2.0,-2.0,-7.0,-2.0,4.0,-1.0,-1.0
1705080763.6582665,-2.0,-2.0,7.0,3.0,2.0,-2.0,-3.0,-2.0
1705080763.6582665,1.0,3.0,2.0,3.0,11.0,6.0,3.0,0.0
1705080763.6582665,-3.0,-4.0,-4.0,3.0,-4.0,-7.0,-2.0,-1.0
1705080763.6582665,0.0,-1.0,-4.0,-2.0,0.0,-2.0,-2.0,-1.0
1705080763.6782687,-1.0,-3.0,-6.0,-5.0,-6.0,-3.0,-1.0,0.0
1705080763.6782687,-3.0,-5.0,-2.0,-6.0,-4.0,0.0,-1.0,-2.0
1705080763.6782687,-3.0,-2.0,3.0,1.0,1.0,1.0,2.0,1.0
1705080763.6782687,2.0,3.0,-3.0,-1.0,6.0,1.0,-4.0,0.0
1705080763.6984804,-1.0,1.0,4.0,6.0,-7.0,-13.0,-12.0,-2.0
1705080763.6984804,-1.0,-2.0,-1.0,-1.0,-2.0,1.0,0.0,-2.0
1705080763.7082415,-1.0,3.0,-3.0,-6.0,-4.0,2.0,-3.0,-2.0
1705080763.7082415,0.0,-4.0,0.0,2.0,-2.0,2.0,9.0,-2.0
1705080763.7185044,1.0,0.0,1.0,-5.0,-2.0,-2.0,-11.0,-1.0
1705080763.7185044,-2.0,-2.0,-7.0,-5.0,-2.0,-5.0,-3.0,-2.0
1705080763.7482326,1.0,1.0,3.0,7.0,4.0,5.0,1.0,1.0
1705080763.7482326,0.0,1.0,-1.0,1.0,0.0,-2.0,-4.0,-2.0
1705080763.7482326,-1.0,2.0,3.0,-1.0,-2.0,-3.0,3.0,-3.0
1705080763.7482326,-4.0,-6.0,-8.0,-3.0,-3.0,-3.0,-1.0,0.0
1705080763.7482326,1.0,4.0,-5.0,-6.0,-3.0,-2.0,2.0,2.0
1705080763.7482326,-2.0,-7.0,-4.0,0.0,2.0,-9.0,-7.0,-1.0
1705080763.7585647,-1.0,-1.0,-3.0,1.0,1.0,0.0,1.0,-1.0
1705080763.7585647,-1.0,0.0,5.0,-2.0,-2.0,0.0,-2.0,-2.0
1705080763.7585647,0.0,1.0,-5.0,-1.0,-1.0,1.0,1.0,-3.0
1705080763.7585647,-6.0,-4.0,-2.0,-5.0,-6.0,-6.0,-10.0,-3.0
1705080763.778594,0.0,-1.0,-2.0,-7.0,-2.0,-6.0,-9.0,-1.0
1705080763.778594,1.0,2.0,-1.0,3.0,-5.0,-2.0,2.0,0.0
1705080763.788235,2.0,-2.0,6.0,8.0,8.0,3.0,2.0,1.0
1705080763.788235,-3.0,-2.0,0.0,-1.0,-2.0,3.0,2.0,-1.0
1705080763.7982645,-1.0,-6.0,-2.0,-6.0,-3.0,-6.0,-5.0,-2.0
1705080763.7982645,1.0,-2.0,-7.0,-4.0,2.0,5.0,1.0,-1.0
1705080763.7982645,1.0,1.0,0.0,-1.0,-3.0,-9.0,-4.0,0.0
1705080763.7982645,1.0,4.0,10.0,11.0,8.0,11.0,7.0,0.0
1705080763.8185828,-3.0,-1.0,0.0,0.0,-6.0,-14.0,5.0,1.0
1705080763.8185828,-1.0,-2.0,-5.0,-3.0,2.0,8.0,-2.0,-1.0
1705080763.8185828,-3.0,-3.0,-2.0,-1.0,-2.0,5.0,1.0,-2.0
1705080763.8185828,-1.0,0.0,0.0,-2.0,-2.0,-10.0,-1.0,0.0
1705080763.838664,-2.0,-3.0,-2.0,-2.0,0.0,9.0,2.0,-2.0
1705080763.838664,-1.0,0.0,1.0,1.0,-3.0,-5.0,-1.0,-1.0
1705080763.8482347,-3.0,-5.0,-5.0,-4.0,-2.0,-1.0,-4.0,-2.0
1705080763.8482347,-3.0,-6.0,-2.0,-2.0,-2.0,4.0,7.0,0.0
1705080763.8582702,-1.0,1.0,3.0,3.0,1.0,-2.0,-9.0,-2.0
1705080763.8582702,-1.0,0.0,1.0,-1.0,1.0,-1.0,-3.0,-1.0
1705080763.8582702,-2.0,-2.0,1.0,-1.0,-3.0,-4.0,-4.0,-2.0
1705080763.8582702,3.0,3.0,1.0,0.0,0.0,3.0,3.0,1.0
1705080763.878583,0.0,0.0,-7.0,-6.0,-3.0,2.0,8.0,-1.0
1705080763.878583,-6.0,-6.0,-1.0,-4.0,-1.0,-10.0,-7.0,-2.0
1705080763.878583,-1.0,0.0,4.0,4.0,-5.0,-4.0,6.0,-1.0
1705080763.878583,-2.0,-4.0,-4.0,1.0,6.0,3.0,-11.0,-1.0
1705080763.8982358,0.0,1.0,-3.0,-2.0,2.0,2.0,2.0,0.0
1705080763.8982358,0.0,2.0,0.0,-2.0,-6.0,-2.0,-2.0,-1.0
1705080763.9086084,-3.0,-1.0,-8.0,-7.0,-1.0,-2.0,2.0,-3.0
1705080763.9086084,2.0,3.0,3.0,0.0,-2.0,-4.0,0.0,0.0
1705080763.9286141,0.0,-4.0,2.0,4.0,0.0,-4.0,2.0,2.0
1705080763.9286141,-3.0,0.0,-2.0,-2.0,2.0,14.0,-1.0,-1.0
1705080763.9286141,-1.0,-6.0,-7.0,-9.0,-8.0,-12.0,-7.0,-1.0
1705080763.9286141,-1.0,1.0,-6.0,0.0,-5.0,-2.0,0.0,-2.0
1705080763.9385254,1.0,1.0,7.0,5.0,9.0,7.0,-1.0,-1.0
1705080763.9385254,-1.0,3.0,2.0,1.0,0.0,1.0,4.0,-1.0
1705080763.9385254,1.0,-3.0,2.0,0.0,-2.0,3.0,-11.0,-1.0
1705080763.9482384,1.0,-1.0,-2.0,-3.0,-6.0,-4.0,3.0,-2.0
1705080763.9582338,-1.0,-2.0,0.0,-1.0,5.0,12.0,7.0,0.0
1705080763.9582338,-2.0,-1.0,-4.0,-3.0,-8.0,-17.0,-5.0,-3.0
1705080763.968281,-1.0,0.0,-4.0,1.0,2.0,5.0,4.0,-1.0
1705080763.968281,2.0,2.0,0.0,-2.0,0.0,-9.0,-10.0,-1.0
1705080763.9785006,0.0,-4.0,-3.0,1.0,-4.0,-1.0,1.0,-1.0
1705080763.9785006,2.0,1.0,-3.0,2.0,-5.0,-5.0,3.0,1.0
1705080763.9785006,1.0,2.0,4.0,3.0,16.0,9.0,-4.0,-2.0
1705080763.9785006,-4.0,-2.0,-1.0,-3.0,-1.0,3.0,5.0,0.0
1705080763.9985907,0.0,-1.0,-7.0,-4.0,-3.0,-8.0,-7.0,-2.0
1705080763.9985907,-1.0,0.0,1.0,4.0,2.0,0.0,0.0,1.0
1705080763.9985907,0.0,-1.0,1.0,-2.0,-5.0,-1.0,6.0,0.0
1705080763.9985907,-2.0,-1.0,-3.0,-1.0,-2.0,-9.0,-9.0,-3.0
1705080764.018233,-1.0,-1.0,-5.0,-7.0,-3.0,0.0,1.0,-3.0
1705080764.018233,1.0,-1.0,1.0,-1.0,0.0,1.0,-1.0,0.0
1705080764.0285656,0.0,-3.0,-2.0,-2.0,-2.0,0.0,0.0,0.0
1705080764.0285656,-3.0,-2.0,2.0,1.0,4.0,3.0,4.0,-1.0
1705080764.0386052,-2.0,-1.0,-2.0,-2.0,-9.0,-7.0,-3.0,-2.0
1705080764.0386052,-2.0,-1.0,-1.0,-3.0,2.0,4.0,-3.0,-1.0
1705080764.0386052,-2.0,-1.0,-3.0,-4.0,-7.0,-6.0,-3.0,0.0
1705080764.0386052,0.0,1.0,4.0,1.0,3.0,9.0,8.0,0.0
1705080764.0668795,-4.0,-2.0,-7.0,-3.0,-3.0,-16.0,-15.0,-4.0
1705080764.0668795,-2.0,0.0,3.0,0.0,5.0,7.0,1.0,-1.0
1705080764.0678804,0.0,0.0,2.0,4.0,-8.0,-4.0,-2.0,0.0
1705080764.0678804,0.0,-2.0,-2.0,-6.0,4.0,-1.0,-4.0,-1.0
1705080764.0908144,1.0,1.0,5.0,5.0,-2.0,-1.0,3.0,0.0
1705080764.0908144,-1.0,-1.0,-3.0,-5.0,1.0,0.0,2.0,-1.0
1705080764.0908144,-3.0,-1.0,-1.0,-3.0,-4.0,-8.0,-4.0,-3.0
1705080764.0908144,-1.0,-2.0,-5.0,-2.0,-5.0,-9.0,-2.0,0.0
1705080764.1008134,0.0,-1.0,1.0,0.0,-2.0,1.0,3.0,0.0
1705080764.1008134,0.0,-4.0,1.0,-3.0,-2.0,-4.0,-5.0,0.0
1705080764.1008134,-1.0,1.0,1.0,5.0,6.0,8.0,1.0,0.0
1705080764.1008134,-1.0,-1.0,1.0,3.0,5.0,3.0,0.0,0.0
1705080764.1210825,-1.0,3.0,2.0,0.0,-7.0,-5.0,1.0,0.0
1705080764.1210825,-3.0,-6.0,-4.0,-3.0,2.0,1.0,-1.0,-3.0
1705080764.1408207,-3.0,-3.0,-9.0,-7.0,-3.0,2.0,-3.0,-2.0
1705080764.1408207,1.0,4.0,-1.0,-1.0,-2.0,-1.0,0.0,-1.0
1705080764.150809,-1.0,2.0,2.0,7.0,5.0,8.0,-2.0,1.0
1705080764.150809,-1.0,-1.0,6.0,2.0,-1.0,-3.0,1.0,0.0
1705080764.150809,0.0,-1.0,-8.0,-6.0,-1.0,-2.0,-2.0,0.0
1705080764.150809,-3.0,-3.0,-1.0,-1.0,-3.0,-1.0,-1.0,-2.0
1705080764.1608458,0.0,0.0,-3.0,-6.0,-3.0,5.0,15.0,1.0
1705080764.1608458,-4.0,-2.0,-1.0,-1.0,-3.0,-9.0,-17.0,-3.0
1705080764.1608458,-1.0,1.0,3.0,3.0,4.0,-4.0,-6.0,0.0
1705080764.1608458,-1.0,-1.0,-3.0,-3.0,-6.0,3.0,-1.0,-3.0
1705080764.1811972,0.0,-2.0,-3.0,-3.0,0.0,1.0,-2.0,1.0
1705080764.1811972,0.0,1.0,1.0,3.0,-4.0,4.0,9.0,-1.0
1705080764.1811972,-2.0,-4.0,-4.0,-6.0,-2.0,-4.0,-2.0,-1.0
1705080764.1811972,-3.0,-2.0,-4.0,-4.0,-2.0,3.0,-2.0,-2.0
1705080764.200842,0.0,3.0,4.0,3.0,4.0,-2.0,-5.0,0.0
1705080764.200842,1.0,-2.0,-3.0,0.0,-7.0,-7.0,-1.0,0.0
1705080764.200842,-2.0,-1.0,-3.0,-1.0,4.0,8.0,1.0,0.0
1705080764.200842,3.0,2.0,-5.0,-7.0,-4.0,-15.0,1.0,0.0
1705080764.2211866,-3.0,-5.0,0.0,-3.0,4.0,10.0,-2.0,-2.0
1705080764.2211866,2.0,6.0,2.0,3.0,4.0,1.0,1.0,1.0
1705080764.2211866,1.0,0.0,-3.0,3.0,-4.0,-5.0,3.0,0.0
1705080764.2211866,-4.0,-4.0,-2.0,-1.0,1.0,8.0,1.0,0.0
1705080764.2408092,0.0,1.0,1.0,-3.0,-4.0,-11.0,-2.0,-2.0
1705080764.2408092,-4.0,-5.0,0.0,-4.0,-1.0,10.0,3.0,-2.0
1705080764.2408092,-2.0,-2.0,-3.0,-3.0,-8.0,-17.0,-17.0,-4.0
1705080764.2408092,0.0,-2.0,-2.0,3.0,5.0,4.0,4.0,1.0
1705080764.2608109,-1.0,-3.0,0.0,-3.0,-2.0,-1.0,-4.0,-3.0
1705080764.2608109,-1.0,1.0,-1.0,4.0,3.0,5.0,1.0,0.0
1705080764.2608109,-1.0,0.0,0.0,-2.0,1.0,0.0,5.0,0.0
1705080764.2608109,-1.0,0.0,-1.0,-5.0,-5.0,-1.0,0.0,1.0
1705080764.2908556,2.0,-2.0,-6.0,0.0,2.0,6.0,7.0,0.0
1705080764.2908556,-2.0,-1.0,-2.0,-4.0,-5.0,-13.0,-6.0,-1.0
1705080764.3008084,0.0,1.0,2.0,-1.0,4.0,2.0,6.0,1.0
1705080764.3008084,-5.0,-4.0,3.0,3.0,0.0,-1.0,-5.0,-2.0
1705080764.3008084,3.0,3.0,1.0,3.0,2.0,4.0,4.0,3.0
1705080764.3008084,-4.0,-6.0,-7.0,-3.0,0.0,0.0,-2.0,-2.0
1705080764.3008084,1.0,1.0,8.0,3.0,1.0,-2.0,0.0,-1.0
1705080764.3008084,0.0,-2.0,-1.0,-6.0,-4.0,-3.0,-3.0,-2.0
1705080764.3211496,-4.0,-3.0,-3.0,-3.0,-8.0,-33.0,-8.0,-2.0
1705080764.3211496,2.0,2.0,3.0,-1.0,3.0,8.0,3.0,-1.0
1705080764.3211496,-1.0,-1.0,-1.0,0.0,2.0,-4.0,-1.0,-1.0
1705080764.3211496,0.0,1.0,5.0,5.0,1.0,6.0,0.0,0.0
1705080764.3408225,0.0,1.0,1.0,2.0,-2.0,-2.0,-2.0,-2.0
1705080764.3408225,-2.0,-3.0,-6.0,-6.0,-3.0,-11.0,-14.0,-4.0
1705080764.3408225,-2.0,-3.0,-2.0,-3.0,-1.0,4.0,2.0,1.0
1705080764.3408225,1.0,2.0,3.0,6.0,1.0,-2.0,3.0,-1.0
1705080764.361158,-2.0,-1.0,0.0,-1.0,-1.0,-8.0,-5.0,-2.0
1705080764.361158,-3.0,-5.0,-6.0,-11.0,-6.0,2.0,7.0,-3.0
1705080764.361158,-2.0,1.0,1.0,2.0,-2.0,3.0,-2.0,0.0
1705080764.361158,0.0,0.0,2.0,5.0,1.0,0.0,0.0,0.0
1705080764.3811877,-3.0,-4.0,0.0,5.0,0.0,5.0,-2.0,-1.0
1705080764.3811877,-1.0,1.0,-3.0,-5.0,-4.0,-5.0,-7.0,-1.0
1705080764.3811877,0.0,-2.0,-2.0,-5.0,3.0,2.0,1.0,-1.0
1705080764.3811877,-1.0,-1.0,-4.0,2.0,5.0,4.0,-6.0,-2.0
1705080764.4011405,0.0,-1.0,0.0,-1.0,4.0,11.0,3.0,-1.0
1705080764.4011405,-3.0,-5.0,-4.0,1.0,-10.0,-16.0,-3.0,-2.0
1705080764.4011405,0.0,1.0,0.0,-2.0,-8.0,-4.0,-2.0,-3.0
1705080764.4011405,0.0,-2.0,-3.0,-3.0,4.0,-3.0,2.0,2.0
1705080764.4188828,0.0,0.0,-5.0,-7.0,-3.0,0.0,0.0,-3.0
1705080764.4188828,1.0,4.0,-2.0,-3.0,2.0,5.0,6.0,2.0
1705080764.4188828,2.0,3.0,-4.0,6.0,3.0,0.0,-6.0,2.0
1705080764.4188828,-1.0,-2.0,2.0,2.0,-1.0,-1.0,3.0,0.0
1705080764.4493356,-2.0,1.0,1.0,-1.0,-4.0,-4.0,-6.0,-2.0
1705080764.4493356,0.0,1.0,-4.0,0.0,1.0,10.0,8.0,-2.0
1705080764.4493356,-7.0,-13.0,-8.0,-6.0,-1.0,-8.0,-11.0,-3.0
1705080764.4493356,-1.0,2.0,2.0,-2.0,-1.0,3.0,-1.0,-3.0
1705080764.4688842,-2.0,-1.0,-1.0,0.0,-4.0,-2.0,-3.0,-1.0
1705080764.4688842,5.0,7.0,8.0,4.0,5.0,2.0,1.0,2.0
1705080764.4688842,-3.0,-4.0,-3.0,-5.0,-15.0,-3.0,1.0,-2.0
1705080764.4688842,0.0,0.0,-1.0,3.0,14.0,12.0,-1.0,-1.0
1705080764.479271,-9.0,-11.0,-5.0,-7.0,-12.0,-16.0,0.0,-1.0
1705080764.479271,-2.0,0.0,1.0,-2.0,-3.0,-4.0,-5.0,-3.0
1705080764.479271,1.0,3.0,1.0,0.0,8.0,5.0,0.0,0.0
1705080764.479271,1.0,2.0,1.0,3.0,-8.0,-24.0,-2.0,-1.0
1705080764.5088856,0.0,2.0,3.0,6.0,7.0,9.0,0.0,1.0
1705080764.5088856,0.0,1.0,-2.0,1.0,-3.0,-16.0,-4.0,-1.0
1705080764.5088856,-2.0,2.0,6.0,0.0,-3.0,1.0,2.0,-1.0
1705080764.5088856,-3.0,-6.0,-6.0,-8.0,-5.0,0.0,-1.0,-1.0
1705080764.5189123,-1.0,3.0,2.0,-1.0,6.0,3.0,0.0,0.0
1705080764.5189123,-2.0,-6.0,-3.0,-1.0,-5.0,1.0,-2.0,1.0
1705080764.5189123,-3.0,-3.0,-4.0,-9.0,-2.0,-1.0,-2.0,-2.0
1705080764.5189123,0.0,3.0,0.0,5.0,-1.0,-1.0,4.0,0.0
1705080764.5392349,0.0,1.0,1.0,0.0,0.0,-1.0,-7.0,0.0
1705080764.5392349,1.0,0.0,6.0,10.0,8.0,8.0,4.0,2.0
1705080764.5392349,0.0,0.0,-1.0,3.0,0.0,-4.0,4.0,0.0
1705080764.5392349,-1.0,-4.0,-9.0,-14.0,-10.0,-3.0,-3.0,-1.0
1705080764.5688832,-2.0,-3.0,-4.0,-4.0,-6.0,-4.0,0.0,-1.0
1705080764.5688832,0.0,-1.0,-1.0,5.0,15.0,12.0,3.0,-1.0
1705080764.5688832,-1.0,0.0,-1.0,1.0,-4.0,-11.0,0.0,-1.0
1705080764.5688832,1.0,2.0,4.0,4.0,1.0,6.0,-3.0,-2.0
1705080764.5789118,-1.0,-3.0,-4.0,-10.0,-11.0,-16.0,-3.0,-1.0
1705080764.5789118,-2.0,-2.0,-4.0,-4.0,-1.0,-4.0,-1.0,-3.0
1705080764.5789118,1.0,3.0,12.0,3.0,9.0,9.0,0.0,0.0
1705080764.5789118,0.0,-2.0,-4.0,7.0,7.0,3.0,2.0,-2.0
1705080764.5991838,0.0,-4.0,-7.0,-1.0,1.0,2.0,1.0,1.0
1705080764.5991838,0.0,-1.0,5.0,-1.0,-7.0,-1.0,-3.0,-1.0
1705080764.5991838,-1.0,-3.0,-9.0,-8.0,-3.0,-4.0,-1.0,-1.0
1705080764.5991838,-3.0,0.0,-3.0,-5.0,-8.0,-7.0,-5.0,-2.0
1705080764.6410303,-2.0,-5.0,-5.0,2.0,4.0,6.0,0.0,0.0
1705080764.6410303,-1.0,0.0,-3.0,0.0,-4.0,-7.0,-2.0,-2.0
1705080764.6410303,1.0,2.0,-3.0,-5.0,-1.0,2.0,-1.0,-1.0
1705080764.6410303,-3.0,1.0,3.0,7.0,3.0,3.0,4.0,0.0
1705080764.6410303,-1.0,-1.0,0.0,-3.0,-2.0,2.0,4.0,-1.0
1705080764.6410303,-1.0,-1.0,0.0,-2.0,5.0,0.0,-7.0,-5.0
1705080764.6410303,0.0,-2.0,-5.0,-3.0,-6.0,-6.0,-4.0,-2.0
1705080764.6410303,-1.0,-4.0,-8.0,-7.0,-4.0,-3.0,-4.0,0.0
1705080764.6614358,1.0,4.0,8.0,2.0,7.0,8.0,1.0,0.0
1705080764.6614358,-1.0,-3.0,-1.0,2.0,-4.0,-4.0,3.0,3.0
1705080764.6614358,-2.0,-1.0,-6.0,-5.0,-1.0,5.0,-2.0,-3.0
1705080764.6614358,1.0,0.0,1.0,0.0,-10.0,-7.0,3.0,0.0
1705080764.6910303,-1.0,1.0,0.0,6.0,10.0,5.0,-13.0,-4.0
1705080764.6910303,0.0,0.0,-3.0,-2.0,-2.0,-6.0,1.0,-2.0
1705080764.6910303,-2.0,-2.0,-1.0,0.0,-6.0,4.0,1.0,-3.0
1705080764.6910303,-2.0,-2.0,1.0,-3.0,3.0,1.0,-2.0,0.0
1705080764.7012708,-3.0,0.0,-2.0,-7.0,-6.0,-4.0,3.0,-2.0
1705080764.7012708,0.0,0.0,1.0,4.0,2.0,4.0,-3.0,2.0
1705080764.7113347,-2.0,-3.0,-5.0,-1.0,-1.0,-3.0,0.0,-1.0
1705080764.7113347,0.0,2.0,1.0,-3.0,-8.0,0.0,-4.0,-1.0
1705080764.7213278,-1.0,0.0,-5.0,-3.0,3.0,-5.0,-3.0,-1.0
1705080764.7213278,-4.0,-4.0,-1.0,-2.0,-2.0,1.0,0.0,-1.0
1705080764.7213278,2.0,2.0,1.0,-3.0,4.0,2.0,-1.0,-1.0
1705080764.7213278,-5.0,-7.0,-9.0,0.0,-5.0,-13.0,-2.0,-3.0
1705080764.75103,1.0,-1.0,0.0,-1.0,-3.0,6.0,2.0,2.0
1705080764.75103,-3.0,0.0,0.0,-3.0,-5.0,-5.0,0.0,-2.0
1705080764.75103,1.0,3.0,9.0,8.0,6.0,4.0,1.0,1.0
1705080764.75103,1.0,0.0,3.0,0.0,0.0,3.0,-3.0,-1.0
1705080764.7612805,-3.0,-6.0,-14.0,-3.0,-2.0,1.0,0.0,-3.0
1705080764.7612805,-2.0,-5.0,-8.0,-12.0,-11.0,0.0,1.0,-1.0
1705080764.7713447,-2.0,-1.0,2.0,5.0,7.0,-2.0,-1.0,-1.0
1705080764.7713447,-1.0,2.0,2.0,-3.0,2.0,2.0,-2.0,1.0
1705080764.7813554,1.0,1.0,5.0,5.0,3.0,3.0,3.0,1.0
1705080764.7813554,1.0,1.0,-1.0,-2.0,0.0,2.0,0.0,1.0
1705080764.7813554,-1.0,1.0,-6.0,-1.0,-1.0,1.0,-3.0,-1.0
1705080764.7813554,-1.0,-2.0,-1.0,-1.0,-4.0,-13.0,-1.0,-1.0
1705080764.8010304,-2.0,-2.0,-6.0,-6.0,-5.0,-2.0,-2.0,-2.0
1705080764.8010304,-1.0,0.0,2.0,-1.0,-5.0,-1.0,0.0,0.0
1705080764.8010304,-2.0,-1.0,-1.0,1.0,9.0,3.0,2.0,0.0
1705080764.8010304,-3.0,-4.0,1.0,-3.0,-9.0,-8.0,-3.0,-1.0
1705080764.8214846,-3.0,2.0,6.0,9.0,9.0,9.0,-2.0,0.0
1705080764.8214846,3.0,1.0,-7.0,0.0,3.0,-4.0,-8.0,-1.0
1705080764.8314378,-4.0,-5.0,1.0,1.0,-9.0,-2.0,-3.0,-3.0
1705080764.8314378,1.0,-2.0,-5.0,-15.0,-6.0,-12.0,-3.0,-2.0
1705080764.8414629,0.0,2.0,-1.0,-5.0,-3.0,-3.0,4.0,-1.0
1705080764.8414629,0.0,0.0,5.0,10.0,5.0,1.0,0.0,0.0
1705080764.8414629,0.0,-1.0,-1.0,-5.0,2.0,4.0,-1.0,0.0
1705080764.8414629,-4.0,-1.0,-6.0,-1.0,-1.0,3.0,-2.0,-5.0
1705080764.8710296,0.0,0.0,1.0,-7.0,-8.0,-8.0,0.0,-2.0
1705080764.8710296,-1.0,0.0,5.0,9.0,14.0,13.0,5.0,1.0
1705080764.8710296,0.0,2.0,9.0,9.0,-3.0,-8.0,0.0,0.0
1705080764.8710296,-2.0,-2.0,-4.0,-3.0,0.0,0.0,-1.0,-1.0
1705080764.8810346,-2.0,-2.0,-3.0,-4.0,-7.0,-10.0,-7.0,-1.0
1705080764.8810346,-2.0,-2.0,-2.0,-3.0,-5.0,3.0,3.0,-2.0
1705080764.8913105,2.0,2.0,2.0,1.0,2.0,4.0,-1.0,1.0
1705080764.8913105,-5.0,-4.0,-4.0,1.0,-2.0,6.0,1.0,-4.0
1705080764.9013264,0.0,0.0,-6.0,-3.0,-9.0,-3.0,3.0,0.0
1705080764.9013264,-1.0,0.0,3.0,1.0,4.0,-7.0,-8.0,-1.0
1705080764.9013264,-1.0,1.0,-1.0,-3.0,-4.0,-5.0,0.0,-1.0
1705080764.9013264,3.0,4.0,9.0,6.0,5.0,2.0,-10.0,-1.0
1705080764.9210303,-3.0,-5.0,-7.0,-5.0,-1.0,0.0,-1.0,-3.0
1705080764.9210303,-4.0,-6.0,-8.0,-14.0,-13.0,-4.0,3.0,-2.0
1705080764.931047,0.0,-1.0,-1.0,0.0,4.0,0.0,-7.0,-2.0
1705080764.931047,2.0,2.0,5.0,6.0,5.0,2.0,4.0,2.0
1705080764.94132,2.0,-1.0,0.0,2.0,-1.0,-1.0,-3.0,-2.0
1705080764.94132,-1.0,-2.0,-3.0,-4.0,-1.0,-1.0,-3.0,-3.0
1705080764.951256,-2.0,-5.0,-10.0,-9.0,-9.0,-12.0,-1.0,-3.0
1705080764.951256,0.0,-1.0,-3.0,-2.0,0.0,7.0,2.0,-1.0
1705080764.961328,2.0,3.0,15.0,14.0,3.0,0.0,-1.0,3.0
1705080764.961328,-2.0,-1.0,0.0,-2.0,2.0,-2.0,-3.0,-2.0
1705080764.9810321,-2.0,-3.0,-3.0,-6.0,-1.0,3.0,0.0,1.0
1705080764.9810321,-1.0,-2.0,-2.0,-3.0,-8.0,-2.0,-1.0,-3.0
1705080764.9810321,-1.0,0.0,-2.0,-2.0,6.0,-5.0,1.0,0.0
1705080764.9810321,-2.0,-4.0,-3.0,-2.0,5.0,13.0,-3.0,-1.0
1705080764.991031,-1.0,1.0,-3.0,-2.0,-10.0,-12.0,0.0,1.0
1705080764.991031,-2.0,1.0,4.0,2.0,5.0,3.0,-5.0,-2.0
1705080765.0110373,-2.0,0.0,6.0,5.0,4.0,4.0,9.0,-2.0
1705080765.0110373,0.0,1.0,-5.0,-1.0,-7.0,-16.0,-9.0,-1.0
1705080765.0110373,-2.0,-6.0,3.0,7.0,1.0,3.0,5.0,-1.0
1705080765.0110373,-1.0,-2.0,-8.0,-10.0,-5.0,-1.0,-11.0,-4.0
1705080765.03103,-1.0,-2.0,-7.0,-5.0,5.0,6.0,-2.0,-2.0
1705080765.03103,-2.0,-1.0,3.0,0.0,-8.0,-18.0,-1.0,-1.0
1705080765.03103,-1.0,2.0,1.0,2.0,5.0,-1.0,-1.0,-1.0
1705080765.03103,1.0,1.0,4.0,8.0,6.0,3.0,13.0,3.0
1705080765.0413017,-3.0,-3.0,-3.0,-3.0,-6.0,-7.0,-14.0,-4.0
1705080765.0413017,2.0,-3.0,-5.0,-9.0,-18.0,7.0,2.0,-1.0
1705080765.0510306,-4.0,-2.0,-3.0,-4.0,13.0,-13.0,-5.0,-1.0
1705080765.0510306,-2.0,-1.0,-1.0,-3.0,-2.0,2.0,3.0,-1.0
1705080765.0710297,1.0,2.0,1.0,2.0,1.0,2.0,-1.0,1.0
1705080765.0710297,-2.0,1.0,0.0,-3.0,-6.0,-1.0,1.0,0.0
1705080765.0710297,-4.0,-3.0,-1.0,0.0,-7.0,-3.0,-4.0,0.0
1705080765.0710297,-3.0,-2.0,-2.0,-5.0,2.0,0.0,-1.0,0.0
1705080765.08127,-2.0,-2.0,-3.0,-6.0,-3.0,-4.0,-2.0,-3.0
1705080765.08127,1.0,4.0,4.0,18.0,12.0,2.0,-1.0,2.0
1705080765.0913084,2.0,0.0,3.0,5.0,1.0,14.0,3.0,0.0
1705080765.0913084,-1.0,-6.0,-7.0,-6.0,-2.0,-5.0,-1.0,-1.0
1705080765.1013138,-4.0,-1.0,-3.0,-8.0,-9.0,-4.0,-2.0,-1.0
1705080765.1013138,-2.0,-2.0,-3.0,-5.0,2.0,0.0,-1.0,0.0
1705080765.1126425,0.0,2.0,6.0,6.0,6.0,7.0,5.0,-2.0
1705080765.1126425,0.0,0.0,-3.0,1.0,-7.0,0.0,-6.0,0.0
1705080765.1317923,-1.0,0.0,-5.0,-6.0,-5.0,-9.0,2.0,1.0
1705080765.132794,-4.0,-3.0,0.0,-5.0,5.0,8.0,2.0,-4.0
1705080765.1338336,-1.0,0.0,-4.0,0.0,-11.0,-13.0,-6.0,0.0
1705080765.1338336,0.0,-1.0,-2.0,4.0,6.0,11.0,1.0,-2.0
1705080765.1497657,3.0,1.0,2.0,2.0,16.0,2.0,-2.0,0.0
1705080765.1497657,-1.0,2.0,1.0,-1.0,2.0,1.0,6.0,0.0
1705080765.1497657,-2.0,-4.0,-6.0,-9.0,-8.0,-8.0,-19.0,-2.0
1705080765.1497657,-1.0,-2.0,-1.0,-6.0,-7.0,-2.0,1.0,-1.0
1705080765.1697721,3.0,2.0,0.0,4.0,-5.0,-5.0,-2.0,0.0
1705080765.1697721,-2.0,-2.0,-2.0,-3.0,-4.0,-16.0,-3.0,-2.0
1705080765.1697721,-10.0,-11.0,-8.0,-5.0,-2.0,4.0,6.0,-2.0
1705080765.1697721,2.0,0.0,0.0,3.0,0.0,-7.0,-7.0,2.0
1705080765.1903718,-3.0,-4.0,-1.0,0.0,1.0,14.0,1.0,-2.0
1705080765.1903718,4.0,5.0,4.0,-2.0,1.0,-6.0,-2.0,0.0
1705080765.1903718,-1.0,3.0,-3.0,-6.0,-4.0,-1.0,3.0,-4.0
1705080765.1903718,-4.0,0.0,-6.0,-3.0,2.0,-3.0,-4.0,-1.0
1705080765.210151,0.0,-1.0,5.0,7.0,3.0,3.0,8.0,-1.0
1705080765.210151,-2.0,-5.0,-5.0,-5.0,-2.0,0.0,-8.0,-3.0
1705080765.210151,3.0,3.0,1.0,6.0,4.0,4.0,1.0,1.0
1705080765.210151,0.0,4.0,11.0,10.0,5.0,3.0,5.0,1.0
1705080765.230152,-3.0,-4.0,-6.0,-2.0,-8.0,-9.0,-7.0,-2.0
1705080765.230152,-1.0,0.0,-3.0,-8.0,-7.0,-3.0,0.0,-1.0
1705080765.230152,0.0,-2.0,-4.0,-7.0,-2.0,0.0,2.0,-1.0
1705080765.230152,-1.0,-1.0,-1.0,-1.0,0.0,-2.0,4.0,-2.0
1705080765.250151,-4.0,-2.0,0.0,4.0,-1.0,-7.0,-12.0,-1.0
1705080765.250151,0.0,-1.0,-3.0,-1.0,1.0,5.0,0.0,-1.0
1705080765.250151,-1.0,-2.0,-2.0,-1.0,-1.0,0.0,-2.0,-1.0
1705080765.250151,-1.0,0.0,1.0,-1.0,-3.0,-4.0,1.0,-2.0
1705080765.2604215,-1.0,-1.0,0.0,-4.0,2.0,-1.0,-1.0,0.0
1705080765.2604215,-1.0,-4.0,-1.0,0.0,-1.0,-2.0,0.0,-1.0
1705080765.2701578,1.0,2.0,0.0,-3.0,-9.0,6.0,-2.0,-2.0
1705080765.2701578,-1.0,-4.0,-1.0,0.0,9.0,-4.0,-1.0,-1.0
1705080765.280392,3.0,4.0,1.0,-3.0,1.0,1.0,2.0,0.0
1705080765.2901533,-6.0,-11.0,-4.0,2.0,0.0,1.0,-3.0,-1.0
1705080765.2901533,0.0,0.0,4.0,3.0,-8.0,-2.0,9.0,1.0
1705080765.2901533,-1.0,-1.0,-1.0,-4.0,1.0,5.0,-6.0,-4.0
1705080765.3101506,-2.0,-1.0,-4.0,-3.0,-5.0,-4.0,-2.0,-2.0
1705080765.3101506,1.0,2.0,0.0,1.0,5.0,7.0,2.0,1.0
1705080765.3101506,-4.0,1.0,1.0,2.0,-10.0,-7.0,-3.0,0.0
1705080765.3101506,-2.0,-4.0,-4.0,-5.0,3.0,-2.0,2.0,-1.0
1705080765.3203914,-3.0,-2.0,-1.0,-2.0,-3.0,-2.0,0.0,-3.0
1705080765.3203914,1.0,-2.0,1.0,-2.0,-2.0,1.0,0.0,-2.0
1705080765.3303897,1.0,-3.0,-4.0,-5.0,1.0,-4.0,0.0,0.0
1705080765.3303897,-1.0,2.0,5.0,2.0,-4.0,-3.0,-1.0,-1.0
1705080765.3602004,-4.0,-3.0,4.0,8.0,1.0,3.0,-6.0,-3.0
1705080765.3602004,-2.0,2.0,0.0,2.0,1.0,-1.0,-1.0,-2.0
1705080765.3602004,-3.0,-3.0,-2.0,-4.0,1.0,0.0,-1.0,-2.0
1705080765.3602004,2.0,-1.0,-4.0,-7.0,3.0,-2.0,0.0,0.0
1705080765.3703206,2.0,0.0,-6.0,-6.0,-8.0,-4.0,2.0,-2.0
1705080765.3703206,1.0,-3.0,-7.0,2.0,-3.0,-5.0,-2.0,1.0
1705080765.3703206,1.0,0.0,4.0,2.0,8.0,7.0,-3.0,-2.0
1705080765.3703206,-4.0,-2.0,-3.0,-2.0,-8.0,-3.0,-2.0,-2.0
1705080765.380609,-2.0,-5.0,-6.0,-9.0,-3.0,3.0,-3.0,-1.0
1705080765.380609,-1.0,4.0,6.0,5.0,2.0,-4.0,-3.0,1.0
1705080765.3902683,0.0,-1.0,-1.0,2.0,10.0,2.0,1.0,0.0
1705080765.3902683,-3.0,1.0,2.0,4.0,-4.0,-8.0,-7.0,-1.0
1705080765.4102147,0.0,-3.0,-3.0,-2.0,-3.0,-1.0,1.0,-3.0
1705080765.4102147,0.0,-1.0,-1.0,3.0,2.0,3.0,2.0,0.0
1705080765.4102147,-1.0,1.0,0.0,2.0,-2.0,-2.0,-1.0,0.0
1705080765.4102147,-1.0,-1.0,-5.0,-8.0,-11.0,-3.0,0.0,-4.0
1705080765.4310162,-1.0,-2.0,-3.0,-10.0,4.0,3.0,-8.0,-2.0
1705080765.4310162,-5.0,-5.0,-2.0,-8.0,-6.0,-6.0,0.0,-3.0
1705080765.4310162,0.0,-1.0,-4.0,4.0,2.0,-1.0,-3.0,-3.0
1705080765.4310162,0.0,1.0,2.0,4.0,-4.0,-3.0,0.0,0.0
1705080765.4409707,0.0,-1.0,-7.0,0.0,-9.0,-2.0,3.0,0.0
1705080765.4409707,-4.0,-2.0,-5.0,-13.0,5.0,13.0,1.0,-1.0
1705080765.4509425,-1.0,3.0,8.0,8.0,4.0,0.0,6.0,2.0
1705080765.4509425,0.0,0.0,2.0,10.0,9.0,1.0,-21.0,-2.0
1705080765.470623,-3.0,-1.0,-1.0,1.0,-5.0,-4.0,3.0,-1.0
1705080765.470623,1.0,1.0,0.0,1.0,-3.0,-4.0,0.0,1.0
1705080765.470623,-1.0,-5.0,-11.0,-16.0,-6.0,-6.0,-4.0,-4.0
1705080765.470623,-2.0,-3.0,-4.0,-6.0,-7.0,4.0,10.0,-2.0
1705080765.4909022,-2.0,-1.0,2.0,-2.0,3.0,-10.0,0.0,0.0
1705080765.4909022,1.0,3.0,0.0,-4.0,-14.0,-9.0,-7.0,-2.0
1705080765.4909022,3.0,4.0,8.0,8.0,17.0,10.0,4.0,4.0
1705080765.4909022,-4.0,-8.0,2.0,9.0,5.0,4.0,3.0,0.0
1705080765.5009198,2.0,3.0,-2.0,-1.0,-4.0,-2.0,-4.0,-5.0
1705080765.5009198,-4.0,-5.0,-1.0,-1.0,5.0,2.0,3.0,-2.0
1705080765.5109243,0.0,-3.0,-8.0,-10.0,-13.0,-6.0,-5.0,-2.0
1705080765.5109243,0.0,1.0,-5.0,-10.0,-5.0,0.0,2.0,0.0
1705080765.5306196,-1.0,3.0,6.0,3.0,9.0,2.0,-1.0,1.0
1705080765.5306196,2.0,3.0,-2.0,-7.0,-7.0,-11.0,-4.0,1.0
1705080765.5306196,-1.0,5.0,12.0,20.0,12.0,8.0,0.0,-1.0
1705080765.5306196,3.0,4.0,5.0,12.0,9.0,1.0,4.0,2.0
1705080765.5508847,-2.0,-6.0,-5.0,-3.0,-2.0,6.0,-7.0,-3.0
1705080765.5508847,-1.0,-1.0,-2.0,-3.0,-2.0,-2.0,0.0,-1.0
1705080765.5508847,-4.0,-9.0,-21.0,-19.0,-12.0,0.0,-3.0,0.0
1705080765.5508847,-2.0,-2.0,-1.0,-6.0,-8.0,-25.0,-2.0,0.0
1705080765.560874,-2.0,-1.0,2.0,5.0,1.0,0.0,4.0,0.0
1705080765.560874,-2.0,-3.0,-1.0,-2.0,0.0,19.0,-2.0,-2.0
1705080765.5906181,-4.0,-3.0,-4.0,-9.0,-9.0,-19.0,-5.0,-4.0
1705080765.5906181,-1.0,-2.0,-9.0,-14.0,-7.0,3.0,-4.0,-1.0
1705080765.5906181,1.0,3.0,10.0,3.0,0.0,-5.0,3.0,2.0
1705080765.5906181,2.0,4.0,5.0,17.0,16.0,8.0,4.0,2.0
1705080765.5906181,-1.0,-2.0,-2.0,4.0,0.0,10.0,0.0,-1.0
1705080765.5906181,-2.0,0.0,-5.0,-7.0,-3.0,2.0,5.0,-4.0
1705080765.610722,0.0,-3.0,-6.0,-7.0,-6.0,-2.0,-2.0,2.0
1705080765.610722,1.0,1.0,-2.0,-1.0,-2.0,-3.0,2.0,1.0
1705080765.610722,-4.0,1.0,5.0,3.0,3.0,0.0,-3.0,-1.0
1705080765.610722,-4.0,-8.0,-8.0,-12.0,-4.0,-1.0,3.0,-2.0
1705080765.6207962,0.0,1.0,-10.0,-1.0,1.0,0.0,0.0,0.0
1705080765.6207962,-3.0,-2.0,5.0,0.0,-2.0,-4.0,3.0,-1.0
1705080765.6306183,-1.0,-2.0,-2.0,-3.0,-3.0,-3.0,0.0,-3.0
1705080765.6306183,-2.0,0.0,1.0,-3.0,-4.0,-1.0,-5.0,-2.0
1705080765.6498108,5.0,8.0,4.0,5.0,3.0,3.0,-1.0,3.0
1705080765.6498108,-10.0,-14.0,-6.0,2.0,-3.0,-4.0,-3.0,-2.0
1705080765.6508214,-1.0,-1.0,-3.0,-10.0,-7.0,-7.0,-2.0,-2.0
1705080765.6508214,0.0,1.0,-2.0,-2.0,-1.0,0.0,0.0,0.0
1705080765.6725175,-1.0,1.0,4.0,4.0,2.0,2.0,-1.0,-1.0
1705080765.6725175,3.0,3.0,-3.0,-2.0,-5.0,-9.0,-9.0,-1.0
1705080765.6725175,-3.0,-4.0,0.0,-7.0,-3.0,-1.0,2.0,-1.0
1705080765.6725175,0.0,1.0,8.0,11.0,8.0,5.0,-13.0,0.0
1705080765.6827772,-2.0,3.0,-2.0,3.0,-2.0,-10.0,-5.0,0.0
1705080765.6827772,1.0,-1.0,1.0,2.0,1.0,1.0,1.0,-1.0
1705080765.6928086,-2.0,-2.0,-5.0,-5.0,-5.0,-2.0,-2.0,-1.0
1705080765.6928086,1.0,1.0,-3.0,-7.0,-5.0,-4.0,0.0,0.0
1705080765.7027643,-5.0,-7.0,2.0,-7.0,-3.0,4.0,0.0,-2.0
1705080765.7027643,0.0,2.0,-1.0,6.0,3.0,-2.0,-3.0,1.0
1705080765.7027643,1.0,1.0,5.0,5.0,-1.0,-15.0,-3.0,0.0
1705080765.7027643,-1.0,0.0,-3.0,-6.0,1.0,9.0,2.0,0.0
1705080765.7225242,0.0,-2.0,-1.0,3.0,-1.0,-2.0,-1.0,0.0
1705080765.7225242,-2.0,-2.0,0.0,-5.0,-3.0,-1.0,0.0,-4.0
1705080765.7325175,-2.0,2.0,-1.0,2.0,1.0,-1.0,-3.0,0.0
1705080765.7325175,1.0,-2.0,4.0,1.0,-4.0,-2.0,0.0,3.0
1705080765.7428954,-3.0,-6.0,-10.0,-8.0,-3.0,-2.0,-5.0,-2.0
1705080765.7428954,1.0,2.0,-1.0,-2.0,-3.0,-4.0,-4.0,0.0
1705080765.75252,-1.0,0.0,-2.0,-3.0,-2.0,2.0,-1.0,-1.0
1705080765.75252,-13.0,-2.0,-4.0,-4.0,-1.0,-4.0,-2.0,-5.0
1705080765.762785,3.0,-2.0,0.0,5.0,3.0,6.0,4.0,1.0
1705080765.762785,2.0,2.0,3.0,3.0,1.0,-8.0,3.0,1.0
1705080765.762785,-1.0,-2.0,-2.0,-7.0,-4.0,2.0,-7.0,0.0
1705080765.762785,-2.0,-4.0,0.0,-1.0,-2.0,-5.0,1.0,-2.0
1705080765.78291,0.0,-3.0,0.0,1.0,0.0,5.0,10.0,-1.0
1705080765.78291,-3.0,0.0,-3.0,3.0,1.0,0.0,-4.0,0.0
1705080765.7925236,0.0,2.0,1.0,1.0,0.0,7.0,6.0,0.0
1705080765.7925236,4.0,2.0,-3.0,2.0,1.0,-4.0,-1.0,-2.0
1705080765.8025193,-4.0,-1.0,-2.0,-4.0,-1.0,1.0,0.0,-2.0
1705080765.8025193,0.0,-1.0,-3.0,-8.0,-3.0,1.0,4.0,-1.0
1705080765.8127422,0.0,-2.0,-2.0,2.0,0.0,0.0,1.0,-2.0
1705080765.8127422,-1.0,-3.0,-4.0,-2.0,-6.0,-2.0,-4.0,-2.0
1705080765.8227804,-1.0,-1.0,1.0,-3.0,-3.0,-4.0,2.0,-3.0
1705080765.8227804,-3.0,-4.0,0.0,0.0,0.0,0.0,-5.0,-2.0
1705080765.8326814,0.0,1.0,0.0,1.0,4.0,1.0,0.0,-1.0
1705080765.8326814,1.0,-1.0,2.0,4.0,0.0,-9.0,-2.0,0.0
1705080765.852524,-2.0,-3.0,-4.0,-10.0,-6.0,-4.0,-4.0,-3.0
1705080765.852524,-2.0,-4.0,-4.0,-2.0,-1.0,2.0,-3.0,-2.0
1705080765.852524,-3.0,-1.0,3.0,-1.0,-8.0,-16.0,-8.0,-2.0
1705080765.852524,3.0,0.0,0.0,3.0,8.0,18.0,10.0,0.0
1705080765.8725195,-3.0,3.0,4.0,5.0,5.0,6.0,-12.0,-1.0
1705080765.8725195,0.0,-2.0,-9.0,-5.0,-7.0,-19.0,2.0,1.0
1705080765.8725195,-3.0,-6.0,-10.0,-15.0,-5.0,0.0,-21.0,-6.0
1705080765.8725195,-1.0,-1.0,2.0,2.0,0.0,-3.0,3.0,-1.0
1705080765.8826816,-1.0,3.0,11.0,15.0,7.0,3.0,4.0,1.0
1705080765.8826816,1.0,1.0,1.0,0.0,3.0,7.0,5.0,-2.0
1705080765.8826816,0.0,-3.0,-5.0,-2.0,-3.0,-3.0,3.0,-2.0
1705080765.8826816,-2.0,-3.0,-4.0,-8.0,-7.0,-5.0,-10.0,-3.0
1705080765.912524,-4.0,-3.0,-5.0,-3.0,-3.0,-2.0,-3.0,-3.0
1705080765.912524,-2.0,0.0,3.0,0.0,-2.0,2.0,-1.0,-2.0
1705080765.912524,4.0,4.0,1.0,-1.0,-1.0,-8.0,4.0,1.0
1705080765.912524,-3.0,2.0,5.0,8.0,5.0,5.0,-3.0,1.0
1705080765.9325187,-5.0,-9.0,-5.0,-5.0,-3.0,-4.0,1.0,-3.0
1705080765.9325187,-3.0,-2.0,-7.0,-11.0,-7.0,-1.0,-1.0,-2.0
1705080765.9325187,-3.0,-1.0,5.0,3.0,0.0,2.0,-1.0,-1.0
1705080765.9325187,2.0,2.0,-3.0,3.0,3.0,1.0,0.0,0.0
1705080765.942845,0.0,-3.0,3.0,-3.0,-1.0,-3.0,0.0,0.0
1705080765.942845,1.0,2.0,4.0,10.0,2.0,4.0,0.0,-1.0
1705080765.9528167,-2.0,-6.0,-8.0,-5.0,-3.0,1.0,0.0,-1.0
1705080765.9528167,0.0,0.0,2.0,1.0,-1.0,1.0,-1.0,1.0
1705080765.9725213,-1.0,-3.0,-13.0,-7.0,-4.0,-5.0,0.0,-2.0
1705080765.9725213,0.0,0.0,7.0,-1.0,0.0,2.0,2.0,-2.0
1705080765.9725213,-1.0,2.0,0.0,1.0,0.0,-1.0,-4.0,-2.0
1705080765.9725213,-1.0,-1.0,6.0,4.0,-1.0,1.0,2.0,1.0
1705080765.9925213,-1.0,-2.0,-2.0,-4.0,-2.0,0.0,0.0,-1.0
1705080765.9925213,-1.0,0.0,-3.0,-4.0,0.0,-9.0,0.0,-1.0
1705080765.9925213,-1.0,-1.0,-4.0,0.0,-3.0,-3.0,-4.0,1.0
1705080765.9925213,-3.0,-6.0,-7.0,-10.0,-1.0,3.0,-1.0,-5.0
1705080766.0025518,0.0,4.0,2.0,1.0,0.0,-2.0,-3.0,-1.0
1705080766.0025518,-1.0,-1.0,3.0,9.0,2.0,-2.0,-7.0,1.0
1705080766.0025518,0.0,-1.0,1.0,2.0,6.0,12.0,5.0,-1.0
1705080766.0025518,-3.0,-1.0,-6.0,-8.0,-4.0,-3.0,-1.0,-3.0
1705080766.022521,-2.0,-4.0,-2.0,-5.0,-11.0,-8.0,0.0,-2.0
1705080766.022521,-1.0,0.0,-2.0,-3.0,4.0,6.0,-1.0,-1.0
1705080766.032518,1.0,4.0,7.0,8.0,-2.0,0.0,5.0,1.0
1705080766.032518,0.0,2.0,2.0,10.0,16.0,3.0,-9.0,-1.0
1705080766.052684,-1.0,2.0,-3.0,2.0,4.0,2.0,1.0,-1.0
1705080766.052684,-4.0,-8.0,-10.0,-16.0,-9.0,-8.0,-7.0,-4.0
1705080766.052684,-2.0,1.0,0.0,-8.0,-7.0,-6.0,0.0,-2.0
1705080766.052684,-1.0,-2.0,-2.0,-3.0,-5.0,1.0,2.0,-2.0
1705080766.0627427,1.0,-4.0,0.0,3.0,2.0,0.0,-1.0,2.0
1705080766.0627427,0.0,2.0,-1.0,-2.0,-1.0,0.0,-2.0,-3.0
1705080766.0627427,1.0,1.0,4.0,9.0,4.0,7.0,0.0,0.0
1705080766.0627427,-3.0,-7.0,-5.0,-6.0,-6.0,-2.0,2.0,-4.0
1705080766.1025183,-2.0,2.0,3.0,-3.0,-1.0,1.0,-1.0,-4.0
1705080766.1025183,-1.0,2.0,3.0,4.0,-3.0,-3.0,5.0,0.0
1705080766.1025183,-1.0,0.0,0.0,1.0,9.0,7.0,-12.0,-4.0
1705080766.1025183,1.0,0.0,-5.0,-6.0,-7.0,-7.0,-1.0,-1.0
1705080766.1225235,1.0,-2.0,3.0,-1.0,-3.0,-6.0,-3.0,-1.0
1705080766.1225235,-1.0,-3.0,-5.0,-5.0,-4.0,3.0,0.0,0.0
1705080766.1225235,-3.0,-3.0,0.0,-1.0,-1.0,2.0,11.0,-1.0
1705080766.1225235,0.0,3.0,5.0,5.0,-2.0,-6.0,-9.0,2.0
1705080766.1225235,-3.0,-3.0,-7.0,-5.0,1.0,-4.0,-4.0,-3.0
1705080766.1225235,-2.0,-3.0,-6.0,2.0,-2.0,0.0,-6.0,-3.0
1705080766.132711,0.0,0.0,1.0,0.0,7.0,4.0,4.0,-1.0
1705080766.132711,0.0,-1.0,-1.0,-1.0,-1.0,-4.0,1.0,1.0
1705080766.1625173,-4.0,-4.0,-1.0,-7.0,-14.0,-6.0,-2.0,-3.0
1705080766.1625173,1.0,3.0,3.0,0.0,7.0,-5.0,-4.0,0.0
1705080766.1625173,-2.0,-2.0,-2.0,1.0,-3.0,-3.0,0.0,-2.0
1705080766.1625173,-1.0,-2.0,-4.0,0.0,-1.0,5.0,11.0,-1.0
1705080766.1727662,0.0,0.0,0.0,-2.0,-7.0,2.0,-12.0,1.0
1705080766.1727662,-2.0,-5.0,0.0,-1.0,4.0,-7.0,-4.0,-4.0
1705080766.1727662,-1.0,-2.0,-6.0,-7.0,-1.0,2.0,-1.0,-1.0
1705080766.1727662,0.0,2.0,-2.0,0.0,1.0,-3.0,0.0,-2.0
1705080766.189022,-2.0,0.0,-2.0,3.0,0.0,2.0,3.0,0.0
1705080766.189022,-2.0,0.0,0.0,-2.0,-7.0,-2.0,-2.0,-1.0
1705080766.205092,0.0,-2.0,2.0,1.0,0.0,-4.0,1.0,3.0
1705080766.205092,-3.0,1.0,-2.0,0.0,-2.0,0.0,-1.0,-1.0
1705080766.205092,0.0,-2.0,-5.0,-7.0,-1.0,-3.0,0.0,-2.0
1705080766.205092,0.0,-1.0,1.0,-3.0,-8.0,-1.0,-1.0,-1.0
1705080766.205092,-2.0,1.0,2.0,1.0,7.0,2.0,0.0,1.0
1705080766.205092,3.0,2.0,4.0,1.0,4.0,8.0,2.0,-1.0
1705080766.2350948,-1.0,2.0,5.0,6.0,3.0,-12.0,-3.0,-1.0
1705080766.2350948,-4.0,-4.0,-3.0,-1.0,-4.0,-4.0,-1.0,-2.0
1705080766.2350948,4.0,2.0,-6.0,-9.0,-6.0,-2.0,5.0,0.0
1705080766.2350948,-3.0,-6.0,-9.0,-12.0,-8.0,-6.0,-14.0,-4.0
1705080766.2450972,-2.0,-4.0,8.0,5.0,6.0,6.0,5.0,-1.0
1705080766.2450972,-1.0,2.0,0.0,0.0,2.0,3.0,1.0,1.0
1705080766.255129,-6.0,-7.0,-7.0,-5.0,-4.0,-5.0,-4.0,-1.0
1705080766.255129,2.0,2.0,4.0,0.0,1.0,3.0,2.0,2.0
1705080766.265378,1.0,3.0,0.0,3.0,4.0,2.0,6.0,1.0
1705080766.265378,0.0,-3.0,-2.0,-1.0,-2.0,-2.0,-12.0,-2.0
1705080766.265378,-2.0,3.0,-2.0,-7.0,-4.0,-1.0,-2.0,-1.0
1705080766.265378,-4.0,-13.0,-1.0,3.0,0.0,-5.0,2.0,-1.0
1705080766.295098,-1.0,-1.0,-4.0,-2.0,-1.0,15.0,-4.0,1.0
1705080766.295098,1.0,0.0,1.0,1.0,0.0,-8.0,1.0,0.0
1705080766.295098,6.0,4.0,-1.0,2.0,0.0,0.0,1.0,3.0
1705080766.295098,-1.0,1.0,-1.0,-3.0,-4.0,-5.0,-5.0,-1.0
1705080766.325092,-3.0,-2.0,-6.0,-4.0,0.0,0.0,1.0,-3.0
1705080766.325092,1.0,0.0,-3.0,0.0,4.0,7.0,2.0,0.0
1705080766.325092,-5.0,0.0,0.0,1.0,-3.0,-2.0,-3.0,-1.0
1705080766.325092,4.0,3.0,-1.0,-1.0,1.0,6.0,6.0,1.0
1705080766.325092,-9.0,-11.0,-3.0,-5.0,-3.0,3.0,5.0,-5.0
1705080766.325092,-11.0,-11.0,-6.0,-5.0,-8.0,-17.0,-14.0,-4.0
1705080766.325092,3.0,3.0,0.0,2.0,-4.0,-9.0,-5.0,-3.0
1705080766.325092,-10.0,-12.0,-1.0,-1.0,-1.0,8.0,4.0,-1.0
1705080766.3551116,10.0,13.0,4.0,2.0,3.0,-4.0,0.0,3.0
1705080766.3551116,16.0,18.0,3.0,2.0,4.0,10.0,3.0,5.0
1705080766.3551116,-22.0,-26.0,-6.0,2.0,-1.0,-1.0,0.0,-7.0
1705080766.3551116,2.0,2.0,-4.0,-4.0,-4.0,-1.0,-2.0,-3.0
1705080766.3650935,-2.0,-4.0,-2.0,-2.0,-1.0,1.0,8.0,-2.0
1705080766.3650935,1.0,4.0,1.0,-4.0,-1.0,-2.0,-12.0,-1.0
1705080766.3754122,0.0,-5.0,-1.0,-2.0,-1.0,0.0,7.0,0.0
1705080766.3754122,1.0,4.0,3.0,9.0,3.0,4.0,-11.0,1.0
1705080766.385299,11.0,11.0,-1.0,-2.0,-2.0,-10.0,7.0,0.0
1705080766.385299,35.0,41.0,15.0,3.0,1.0,-2.0,14.0,10.0
1705080766.385299,-60.0,-80.0,-28.0,-19.0,-12.0,-13.0,-25.0,-21.0
1705080766.385299,-18.0,-17.0,-10.0,-9.0,-5.0,-8.0,-4.0,-8.0
1705080766.415094,-3.0,6.0,8.0,12.0,4.0,9.0,9.0,3.0
1705080766.415094,14.0,13.0,6.0,3.0,2.0,18.0,13.0,8.0
1705080766.415094,16.0,20.0,2.0,-4.0,-2.0,-18.0,-42.0,-7.0
1705080766.415094,8.0,8.0,-1.0,-8.0,-16.0,-7.0,-9.0,6.0
1705080766.4254348,-18.0,-23.0,-9.0,-9.0,-14.0,-10.0,-6.0,-12.0
1705080766.4254348,-12.0,-15.0,-4.0,0.0,17.0,7.0,23.0,2.0
1705080766.4354799,9.0,12.0,9.0,12.0,5.0,4.0,9.0,7.0
1705080766.4354799,14.0,13.0,6.0,5.0,10.0,8.0,5.0,2.0
1705080766.4455276,-6.0,-7.0,-3.0,-4.0,-9.0,-9.0,7.0,3.0
1705080766.4455276,-13.0,-22.0,-11.0,-10.0,-20.0,-9.0,-21.0,-5.0
1705080766.4455276,-2.0,3.0,4.0,-5.0,7.0,3.0,9.0,0.0
1705080766.4455276,4.0,12.0,-4.0,7.0,4.0,-6.0,-6.0,-1.0
1705080766.4750948,15.0,9.0,14.0,3.0,7.0,11.0,14.0,6.0
1705080766.4750948,-17.0,-12.0,-6.0,-1.0,-6.0,-3.0,-9.0,-8.0
1705080766.4750948,-5.0,-11.0,-8.0,-4.0,-4.0,0.0,5.0,-2.0
1705080766.4750948,4.0,4.0,2.0,1.0,-1.0,-3.0,9.0,-1.0
1705080766.4851444,-9.0,-15.0,-5.0,-2.0,1.0,1.0,-11.0,-2.0
1705080766.4851444,-3.0,-3.0,0.0,0.0,0.0,1.0,-2.0,-6.0
1705080766.4953222,17.0,24.0,9.0,3.0,-3.0,2.0,5.0,4.0
1705080766.4953222,-7.0,-8.0,3.0,-4.0,-3.0,-8.0,-7.0,-4.0
1705080766.5053177,-1.0,-4.0,-7.0,-3.0,1.0,0.0,-7.0,-3.0
1705080766.5053177,2.0,2.0,4.0,6.0,5.0,3.0,1.0,-2.0
1705080766.5053177,-3.0,-2.0,-4.0,3.0,1.0,0.0,0.0,-1.0
1705080766.5053177,-8.0,-9.0,-2.0,-3.0,0.0,0.0,4.0,-2.0
1705080766.5350933,9.0,14.0,0.0,-3.0,-5.0,-9.0,-13.0,0.0
1705080766.5350933,-17.0,-17.0,-5.0,-7.0,-6.0,-3.0,-1.0,-6.0
1705080766.5350933,-1.0,-10.0,-3.0,-2.0,0.0,5.0,9.0,3.0
1705080766.5350933,6.0,5.0,5.0,4.0,2.0,-4.0,1.0,0.0
1705080766.5454576,0.0,24.0,-1.0,6.0,4.0,4.0,-2.0,1.0
1705080766.5454576,-10.0,-8.0,-13.0,-14.0,-11.0,-15.0,-17.0,-8.0
1705080766.5554938,6.0,10.0,9.0,7.0,1.0,-2.0,-6.0,2.0
1705080766.5554938,-3.0,-3.0,-5.0,-7.0,-5.0,-2.0,2.0,-3.0
1705080766.5655038,2.0,2.0,1.0,-1.0,3.0,5.0,-9.0,-1.0
1705080766.5655038,-1.0,-12.0,-5.0,-1.0,-2.0,1.0,7.0,1.0
1705080766.5655038,6.0,26.0,-1.0,-2.0,-1.0,1.0,0.0,-1.0
1705080766.5655038,-3.0,-14.0,3.0,-2.0,-18.0,-20.0,-1.0,2.0
1705080766.5950956,-3.0,-12.0,-1.0,6.0,29.0,39.0,-2.0,-1.0
1705080766.5950956,-3.0,0.0,3.0,6.0,14.0,-11.0,0.0,-1.0
1705080766.5950956,5.0,3.0,-1.0,-3.0,-2.0,0.0,-1.0,1.0
1705080766.5950956,-6.0,1.0,0.0,1.0,-3.0,-3.0,6.0,1.0
1705080766.6051311,11.0,-7.0,-3.0,-6.0,-13.0,-12.0,3.0,2.0
1705080766.6051311,-14.0,-7.0,-4.0,-4.0,-2.0,6.0,-4.0,-4.0
1705080766.6154494,2.0,15.0,-1.0,-2.0,1.0,2.0,1.0,4.0
1705080766.6154494,0.0,2.0,-1.0,-5.0,1.0,0.0,-1.0,-10.0
1705080766.625468,-3.0,-2.0,4.0,6.0,-1.0,-6.0,-3.0,1.0
1705080766.625468,4.0,-7.0,-5.0,-2.0,-3.0,3.0,1.0,-2.0
1705080766.625468,4.0,0.0,6.0,5.0,-4.0,-6.0,3.0,1.0
1705080766.625468,2.0,1.0,7.0,5.0,9.0,9.0,2.0,5.0
1705080766.6550958,-2.0,14.0,-3.0,2.0,-6.0,-19.0,-16.0,-6.0
1705080766.6550958,-8.0,-20.0,-1.0,-2.0,-4.0,0.0,2.0,-6.0
1705080766.6550958,1.0,2.0,-9.0,-3.0,-2.0,4.0,7.0,-2.0
1705080766.6550958,0.0,-2.0,-1.0,-7.0,-1.0,-5.0,-14.0,-1.0
1705080766.6650963,1.0,3.0,7.0,5.0,4.0,4.0,2.0,2.0
1705080766.6650963,1.0,3.0,4.0,3.0,-3.0,-12.0,0.0,2.0
1705080766.6754935,2.0,-6.0,-3.0,-4.0,-5.0,0.0,3.0,0.0
1705080766.6754935,-3.0,1.0,-2.0,0.0,2.0,4.0,4.0,-1.0
1705080766.68552,-10.0,-19.0,-10.0,-12.0,-5.0,-8.0,-2.0,-4.0
1705080766.68552,-2.0,6.0,3.0,3.0,1.0,4.0,-1.0,0.0
1705080766.68552,6.0,5.0,2.0,1.0,4.0,4.0,3.0,-1.0
1705080766.68552,-6.0,-8.0,-9.0,-4.0,-4.0,-1.0,-1.0,-2.0
1705080766.714683,-6.0,7.0,-1.0,-6.0,-8.0,-7.0,-2.0,-3.0
1705080766.7157066,6.0,8.0,-3.0,-5.0,0.0,6.0,-1.0,1.0
1705080766.7167056,-6.0,-10.0,3.0,9.0,3.0,-12.0,-4.0,-1.0
1705080766.7167056,9.0,2.0,0.0,3.0,2.0,4.0,3.0,1.0
1705080766.7283602,-17.0,-15.0,-10.0,-11.0,-7.0,-6.0,-2.0,-2.0
1705080766.729391,6.0,12.0,-1.0,-3.0,0.0,4.0,1.0,-1.0
1705080766.7373781,4.0,2.0,1.0,5.0,1.0,4.0,0.0,1.0
1705080766.7373781,-14.0,-15.0,-3.0,0.0,-2.0,1.0,-4.0,-3.0
1705080766.7480965,10.0,7.0,-2.0,-1.0,-3.0,-4.0,-1.0,0.0
1705080766.7480965,-1.0,1.0,5.0,4.0,9.0,11.0,3.0,2.0
1705080766.7480965,-6.0,-5.0,-3.0,-4.0,-5.0,-2.0,1.0,-4.0
1705080766.7480965,7.0,6.0,-2.0,-3.0,-10.0,-7.0,-2.0,2.0
1705080766.7680917,-2.0,-1.0,0.0,-4.0,5.0,-2.0,-9.0,-3.0
1705080766.7680917,2.0,4.0,0.0,0.0,-3.0,5.0,4.0,5.0
1705080766.7680917,5.0,3.0,-1.0,-4.0,0.0,4.0,6.0,-6.0
1705080766.7680917,-7.0,-1.0,-7.0,-6.0,-1.0,-2.0,-12.0,-4.0
1705080766.788169,4.0,3.0,10.0,3.0,-3.0,-5.0,0.0,1.0
1705080766.788169,-1.0,-3.0,-4.0,6.0,-1.0,-1.0,2.0,-2.0
1705080766.788169,-3.0,-4.0,1.0,-1.0,-1.0,0.0,-3.0,3.0
1705080766.7980974,1.0,3.0,-1.0,2.0,-1.0,-2.0,1.0,-1.0
1705080766.8084538,-2.0,-4.0,-4.0,-3.0,-3.0,-1.0,-2.0,-3.0
1705080766.8084538,0.0,-3.0,3.0,0.0,-1.0,-4.0,-7.0,-1.0
1705080766.8084538,-2.0,0.0,-6.0,0.0,-4.0,0.0,-4.0,-1.0
1705080766.8084538,-1.0,-1.0,-1.0,-4.0,2.0,2.0,3.0,-1.0
1705080766.8280935,-1.0,-3.0,-1.0,-2.0,0.0,1.0,5.0,0.0
1705080766.8280935,-4.0,-7.0,3.0,-2.0,-4.0,-4.0,-3.0,-3.0
1705080766.8280935,1.0,8.0,8.0,6.0,4.0,0.0,-3.0,-1.0
1705080766.8280935,-1.0,-3.0,-3.0,3.0,4.0,3.0,4.0,-1.0
1705080766.8484256,-1.0,0.0,-5.0,-4.0,-3.0,-1.0,-1.0,-1.0
1705080766.8484256,-2.0,-6.0,-9.0,-10.0,-7.0,-3.0,5.0,-4.0
1705080766.8484256,-5.0,-10.0,-3.0,-12.0,-8.0,-11.0,-20.0,-4.0
1705080766.8484256,2.0,7.0,9.0,13.0,5.0,7.0,8.0,4.0
1705080766.868093,-3.0,1.0,0.0,5.0,3.0,2.0,-2.0,-1.0
1705080766.868093,0.0,3.0,-1.0,-2.0,-1.0,-2.0,-2.0,0.0
1705080766.868093,2.0,-12.0,3.0,-2.0,2.0,3.0,6.0,2.0
1705080766.868093,-6.0,-2.0,-5.0,-2.0,-2.0,-4.0,-4.0,-6.0
1705080766.8884203,0.0,0.0,-2.0,-6.0,-9.0,-4.0,-3.0,-1.0
1705080766.8884203,-1.0,2.0,-2.0,1.0,1.0,0.0,0.0,-2.0
1705080766.8884203,1.0,1.0,0.0,0.0,-2.0,3.0,4.0,1.0
1705080766.8884203,2.0,4.0,3.0,-1.0,2.0,-12.0,-8.0,1.0
1705080766.9082837,-1.0,-7.0,-3.0,1.0,1.0,6.0,4.0,1.0
1705080766.9082837,-3.0,-1.0,-1.0,-4.0,-3.0,-14.0,-2.0,-3.0
1705080766.9180982,-1.0,-2.0,-6.0,-6.0,-5.0,-3.0,-9.0,-5.0
1705080766.9180982,-3.0,-5.0,0.0,-4.0,-1.0,3.0,-1.0,-3.0
1705080766.9284108,-1.0,-1.0,-5.0,-4.0,-3.0,0.0,0.0,-1.0
1705080766.9284108,-1.0,0.0,4.0,-2.0,-4.0,-1.0,-10.0,-1.0
1705080766.948099,-3.0,-1.0,-1.0,3.0,3.0,-3.0,3.0,-4.0
1705080766.948099,-2.0,-1.0,-2.0,-1.0,1.0,2.0,3.0,-2.0
1705080766.9580917,1.0,-1.0,2.0,-2.0,2.0,-1.0,-3.0,0.0
1705080766.9580917,0.0,-1.0,-3.0,-1.0,-5.0,-4.0,-3.0,-2.0
1705080766.9580917,-2.0,2.0,-4.0,-2.0,3.0,5.0,4.0,0.0
1705080766.9580917,0.0,0.0,6.0,0.0,-4.0,3.0,1.0,-1.0
1705080766.9684675,1.0,-1.0,0.0,4.0,0.0,-5.0,1.0,1.0
1705080766.9684675,-1.0,0.0,-3.0,-5.0,-2.0,1.0,-3.0,-2.0
1705080766.9880927,-3.0,0.0,2.0,2.0,1.0,1.0,0.0,1.0
1705080766.9880927,0.0,-5.0,-7.0,-5.0,-5.0,1.0,5.0,2.0
1705080766.9880927,-6.0,-2.0,0.0,-5.0,-3.0,-8.0,-14.0,-4.0
1705080766.9880927,1.0,2.0,1.0,-1.0,1.0,2.0,-1.0,-2.0
1705080766.9880927,1.0,-2.0,5.0,6.0,0.0,0.0,2.0,2.0
1705080766.9880927,1.0,2.0,-6.0,-2.0,-1.0,-1.0,-2.0,0.0
1705080767.0085397,1.0,0.0,-3.0,-3.0,-3.0,-4.0,-8.0,-3.0
1705080767.0085397,-1.0,-4.0,0.0,-1.0,-2.0,1.0,1.0,0.0
1705080767.0085397,1.0,-1.0,-3.0,-3.0,-2.0,-1.0,-2.0,0.0
1705080767.0085397,1.0,-1.0,3.0,3.0,3.0,6.0,15.0,4.0
1705080767.0280943,-2.0,0.0,-1.0,-1.0,-4.0,-6.0,-7.0,-3.0
1705080767.0280943,2.0,3.0,3.0,6.0,5.0,2.0,4.0,2.0
1705080767.038094,-1.0,1.0,-8.0,-9.0,-6.0,-1.0,1.0,-2.0
1705080767.038094,-2.0,-2.0,1.0,2.0,3.0,6.0,1.0,0.0
1705080767.048548,1.0,-2.0,-1.0,-3.0,-6.0,2.0,4.0,-1.0
1705080767.048548,-2.0,-1.0,0.0,4.0,0.0,-2.0,0.0,0.0
1705080767.048548,0.0,0.0,0.0,1.0,2.0,0.0,2.0,-1.0
1705080767.048548,-2.0,1.0,-4.0,-7.0,-4.0,-4.0,-8.0,-2.0
1705080767.0685198,-3.0,-7.0,3.0,2.0,-1.0,-2.0,1.0,1.0
1705080767.0685198,-3.0,4.0,0.0,-6.0,0.0,0.0,-5.0,-2.0
1705080767.0685198,-2.0,-2.0,0.0,1.0,-1.0,-3.0,-1.0,0.0
1705080767.0685198,-3.0,-1.0,-1.0,-2.0,0.0,-6.0,-5.0,-4.0
1705080767.0880966,2.0,-1.0,1.0,4.0,2.0,2.0,1.0,0.0
1705080767.0880966,0.0,-3.0,-5.0,-1.0,-4.0,-2.0,3.0,1.0
1705080767.0980918,-2.0,-1.0,-4.0,-8.0,-4.0,-4.0,-4.0,-2.0
1705080767.0980918,-1.0,-1.0,5.0,8.0,3.0,2.0,-3.0,-1.0
1705080767.108479,-1.0,-2.0,-4.0,2.0,2.0,-2.0,1.0,0.0
1705080767.108479,-1.0,-5.0,-7.0,-6.0,-4.0,-5.0,0.0,-3.0
1705080767.1180925,-1.0,1.0,-5.0,-3.0,-6.0,-2.0,-1.0,-2.0
1705080767.1180925,3.0,2.0,9.0,5.0,1.0,5.0,8.0,2.0
1705080767.1284947,-4.0,-2.0,-1.0,-2.0,-4.0,-10.0,-16.0,-5.0
1705080767.1284947,-2.0,1.0,0.0,-2.0,-2.0,-1.0,1.0,0.0
1705080767.1284947,-4.0,-3.0,-6.0,-5.0,1.0,2.0,-3.0,-1.0
1705080767.1284947,0.0,4.0,-3.0,-8.0,-4.0,-6.0,-5.0,-2.0
1705080767.1580915,0.0,0.0,-1.0,2.0,-1.0,1.0,5.0,2.0
1705080767.1580915,0.0,-8.0,-1.0,1.0,1.0,1.0,-1.0,1.0
1705080767.1580915,1.0,7.0,6.0,4.0,-2.0,-3.0,4.0,0.0
1705080767.1580915,-1.0,-3.0,-4.0,-2.0,-3.0,-5.0,-17.0,-3.0
1705080767.1683686,-1.0,2.0,2.0,-2.0,-1.0,0.0,0.0,-2.0
1705080767.1683686,0.0,1.0,6.0,4.0,1.0,-3.0,-3.0,-1.0
1705080767.1782687,-5.0,-9.0,-10.0,1.0,2.0,0.0,1.0,0.0
1705080767.1782687,-3.0,-5.0,-1.0,-1.0,-3.0,-4.0,0.0,-1.0
1705080767.1884105,-3.0,-3.0,-9.0,-6.0,-2.0,1.0,4.0,-1.0
1705080767.1884105,-3.0,2.0,4.0,0.0,0.0,-2.0,-4.0,-3.0
1705080767.1884105,3.0,0.0,3.0,-2.0,-2.0,-4.0,-2.0,0.0
1705080767.1884105,-1.0,-2.0,-3.0,-2.0,-2.0,-2.0,-2.0,0.0
1705080767.2084007,1.0,-1.0,-1.0,0.0,3.0,7.0,5.0,1.0
1705080767.2084007,-2.0,-1.0,0.0,0.0,-2.0,-1.0,-3.0,-3.0
1705080767.228101,-6.0,-1.0,2.0,0.0,-3.0,-7.0,-10.0,-7.0
1705080767.228101,-3.0,-5.0,-6.0,-10.0,-6.0,-6.0,-13.0,-4.0
1705080767.2468362,2.0,3.0,3.0,1.0,1.0,3.0,6.0,2.0
1705080767.2468362,1.0,-1.0,-5.0,0.0,0.0,0.0,-4.0,2.0
1705080767.2468362,1.0,4.0,7.0,7.0,1.0,1.0,0.0,2.0
1705080767.2468362,-2.0,-2.0,-3.0,3.0,3.0,4.0,6.0,0.0
1705080767.2569506,-4.0,-5.0,-4.0,-4.0,-3.0,-5.0,-6.0,-2.0
1705080767.2569506,2.0,3.0,-5.0,-7.0,-6.0,-3.0,-1.0,-4.0
1705080767.2602537,-1.0,-10.0,-7.0,-3.0,-4.0,0.0,7.0,2.0
1705080767.2602537,0.0,-2.0,3.0,10.0,9.0,4.0,-1.0,0.0
1705080767.271101,3.0,3.0,5.0,3.0,7.0,6.0,1.0,1.0
1705080767.271101,1.0,-2.0,-6.0,-3.0,-1.0,1.0,2.0,-1.0
1705080767.271101,-2.0,0.0,-2.0,-4.0,-4.0,-4.0,0.0,-2.0
1705080767.271101,-1.0,0.0,-5.0,-10.0,-10.0,-9.0,-2.0,-1.0
1705080767.2914698,-2.0,0.0,1.0,1.0,0.0,4.0,7.0,-1.0
1705080767.2914698,9.0,0.0,-3.0,3.0,1.0,-7.0,-7.0,1.0
1705080767.2914698,-1.0,-2.0,0.0,-2.0,0.0,5.0,3.0,-3.0
1705080767.2914698,-6.0,0.0,1.0,-1.0,-1.0,-1.0,-1.0,-1.0
1705080767.3111045,1.0,-1.0,-4.0,-3.0,-3.0,-2.0,-1.0,-4.0
1705080767.3111045,-3.0,0.0,-1.0,-5.0,0.0,1.0,2.0,0.0
1705080767.3111045,0.0,0.0,6.0,7.0,4.0,1.0,0.0,1.0
1705080767.3111045,-3.0,2.0,-5.0,0.0,1.0,-1.0,2.0,1.0
1705080767.3313677,15.0,1.0,-2.0,-4.0,-1.0,2.0,1.0,-2.0
1705080767.3313677,-31.0,-7.0,5.0,5.0,3.0,0.0,5.0,-8.0
1705080767.3313677,2.0,-3.0,-3.0,-4.0,-4.0,-9.0,-9.0,0.0
1705080767.3313677,1.0,1.0,-4.0,-2.0,1.0,4.0,2.0,0.0
1705080767.3515272,-4.0,-3.0,-1.0,-1.0,-4.0,-9.0,-5.0,0.0
1705080767.3515272,3.0,3.0,2.0,0.0,-4.0,0.0,1.0,-1.0
1705080767.3515272,-3.0,-2.0,-2.0,-4.0,2.0,3.0,-2.0,-2.0
1705080767.3515272,1.0,0.0,0.0,-6.0,-5.0,-1.0,2.0,-3.0
1705080767.3715065,-3.0,-7.0,-7.0,-5.0,-2.0,-6.0,-7.0,2.0
1705080767.3715065,2.0,-1.0,3.0,2.0,-2.0,0.0,-2.0,1.0
1705080767.3715065,-6.0,4.0,4.0,5.0,2.0,2.0,2.0,-1.0
1705080767.3715065,7.0,-5.0,-4.0,3.0,-2.0,-7.0,-9.0,1.0
1705080767.3915195,-5.0,1.0,-5.0,-6.0,-3.0,-1.0,5.0,-1.0
1705080767.3915195,-1.0,-1.0,0.0,-2.0,-2.0,2.0,-3.0,0.0
1705080767.3915195,0.0,1.0,2.0,3.0,0.0,0.0,-2.0,-1.0
1705080767.3915195,-1.0,0.0,1.0,-2.0,-2.0,4.0,3.0,-2.0
1705080767.401831,-6.0,-1.0,0.0,-2.0,1.0,-9.0,-3.0,-1.0
1705080767.401831,2.0,0.0,-2.0,-4.0,1.0,1.0,-3.0,2.0
1705080767.4115205,-6.0,-2.0,-9.0,-5.0,-3.0,0.0,4.0,1.0
1705080767.4115205,-2.0,-3.0,2.0,-1.0,-5.0,-12.0,-3.0,-5.0
1705080767.4315336,-15.0,-1.0,2.0,1.0,-1.0,4.0,0.0,-1.0
1705080767.4315336,5.0,-1.0,-3.0,-3.0,0.0,-1.0,-1.0,-1.0
1705080767.4315336,-2.0,-3.0,0.0,-3.0,-4.0,1.0,6.0,0.0
1705080767.4315336,4.0,-1.0,0.0,-1.0,2.0,-2.0,-7.0,-1.0
1705080767.4517727,-1.0,1.0,2.0,5.0,-1.0,-2.0,-6.0,-2.0
1705080767.4517727,5.0,1.0,0.0,4.0,4.0,3.0,6.0,3.0
1705080767.4517727,6.0,-4.0,-4.0,-4.0,-4.0,-8.0,-12.0,0.0
1705080767.4517727,-10.0,-1.0,-1.0,-4.0,-5.0,-4.0,2.0,-4.0
1705080767.4615226,0.0,-2.0,-5.0,-2.0,-1.0,-2.0,-2.0,-2.0
1705080767.471524,-1.0,2.0,2.0,5.0,1.0,3.0,0.0,0.0
1705080767.4915185,3.0,3.0,6.0,2.0,-2.0,-3.0,-3.0,1.0
1705080767.4915185,-1.0,-2.0,0.0,-3.0,0.0,3.0,-1.0,2.0
1705080767.4915185,0.0,-4.0,-3.0,-4.0,1.0,2.0,-2.0,-2.0
1705080767.4915185,-2.0,-2.0,-3.0,-5.0,-5.0,-1.0,0.0,-1.0
1705080767.4915185,-1.0,0.0,-2.0,-4.0,-2.0,-3.0,-3.0,-1.0
1705080767.4915185,-3.0,-1.0,1.0,1.0,0.0,1.0,-1.0,-2.0
1705080767.5119085,0.0,2.0,2.0,1.0,0.0,4.0,1.0,-1.0
1705080767.5119085,-3.0,-3.0,-6.0,-5.0,-2.0,-2.0,0.0,0.0
1705080767.5119085,0.0,-2.0,-3.0,-3.0,1.0,-3.0,-3.0,-1.0
1705080767.5119085,-2.0,0.0,0.0,0.0,-1.0,-2.0,-22.0,-4.0
1705080767.5218508,1.0,1.0,3.0,3.0,0.0,0.0,3.0,0.0
1705080767.5218508,-2.0,-1.0,-2.0,-3.0,0.0,-4.0,0.0,-1.0
1705080767.5415196,-2.0,-1.0,-4.0,0.0,3.0,0.0,3.0,-3.0
1705080767.5415196,-1.0,-3.0,-1.0,-4.0,-6.0,1.0,5.0,1.0
1705080767.5517175,0.0,-1.0,-2.0,-3.0,0.0,-1.0,-2.0,0.0
1705080767.5517175,-2.0,2.0,6.0,10.0,2.0,0.0,-6.0,-3.0
1705080767.5517175,-1.0,-2.0,2.0,1.0,0.0,-2.0,-6.0,-2.0
1705080767.5517175,4.0,-2.0,-2.0,1.0,1.0,-1.0,1.0,-1.0
1705080767.5717995,-2.0,-3.0,-1.0,2.0,-3.0,-3.0,1.0,-1.0
1705080767.5717995,-3.0,1.0,-5.0,-8.0,-4.0,-3.0,2.0,-1.0
1705080767.5717995,1.0,-1.0,-2.0,-2.0,0.0,6.0,2.0,-2.0
1705080767.5717995,0.0,2.0,5.0,0.0,1.0,-4.0,-2.0,-2.0
1705080767.5817168,0.0,-1.0,-1.0,-2.0,-4.0,-6.0,-3.0,0.0
1705080767.591525,-2.0,-2.0,2.0,2.0,3.0,-2.0,-2.0,0.0
1705080767.6115184,-4.0,-1.0,-4.0,-1.0,-1.0,3.0,0.0,-1.0
1705080767.6115184,-4.0,-1.0,-6.0,-6.0,-3.0,1.0,3.0,-2.0
1705080767.6115184,4.0,0.0,-3.0,-3.0,0.0,4.0,10.0,0.0
1705080767.6115184,-2.0,-4.0,-2.0,-3.0,-5.0,-12.0,-23.0,-4.0
1705080767.6115184,-2.0,0.0,2.0,-5.0,-5.0,-2.0,-3.0,-2.0
1705080767.6115184,0.0,2.0,3.0,9.0,8.0,6.0,6.0,0.0
1705080767.631741,-1.0,0.0,2.0,6.0,4.0,4.0,-3.0,-1.0
1705080767.631741,-6.0,0.0,-2.0,-5.0,-4.0,-2.0,-1.0,-4.0
1705080767.631741,-3.0,-7.0,-7.0,-6.0,-7.0,-4.0,-1.0,0.0
1705080767.631741,-6.0,-2.0,-7.0,-8.0,-8.0,-1.0,1.0,-2.0
1705080767.641736,-6.0,-2.0,3.0,0.0,5.0,-1.0,3.0,0.0
1705080767.641736,2.0,3.0,5.0,10.0,6.0,2.0,0.0,0.0
1705080767.6715167,3.0,4.0,6.0,3.0,2.0,-4.0,-2.0,-2.0
1705080767.6715167,6.0,-2.0,-3.0,0.0,-1.0,11.0,6.0,2.0
1705080767.6715167,-2.0,-3.0,-6.0,-7.0,-8.0,-7.0,-7.0,-4.0
1705080767.6715167,2.0,-2.0,-7.0,-6.0,-2.0,0.0,1.0,0.0
1705080767.6715167,-4.0,0.0,3.0,5.0,2.0,0.0,1.0,-1.0
1705080767.6715167,-2.0,1.0,1.0,1.0,0.0,-4.0,1.0,1.0
1705080767.6919053,4.0,-1.0,0.0,-8.0,-6.0,-3.0,-1.0,-3.0
1705080767.6919053,-9.0,-7.0,0.0,1.0,0.0,-1.0,-2.0,1.0
1705080767.6919053,3.0,-1.0,-1.0,9.0,4.0,4.0,0.0,0.0
1705080767.6919053,-2.0,3.0,0.0,-3.0,-1.0,-2.0,1.0,-2.0
1705080767.7015185,0.0,0.0,0.0,3.0,-1.0,-2.0,-3.0,0.0
1705080767.7015185,4.0,1.0,2.0,-2.0,2.0,4.0,7.0,0.0
1705080767.7115493,-3.0,-6.0,-6.0,-5.0,-2.0,-3.0,-1.0,-2.0
1705080767.7115493,-4.0,-5.0,-4.0,-5.0,-4.0,-6.0,-6.0,-3.0
1705080767.7318985,-2.0,3.0,0.0,0.0,2.0,-4.0,1.0,-2.0
1705080767.7318985,3.0,2.0,-1.0,0.0,0.0,1.0,0.0,0.0
1705080767.7318985,-2.0,1.0,2.0,2.0,-1.0,4.0,3.0,0.0
1705080767.7318985,-2.0,-4.0,-6.0,-5.0,-5.0,-8.0,-6.0,-3.0
1705080767.7519155,0.0,0.0,-1.0,-4.0,-5.0,-6.0,-2.0,1.0
1705080767.7519155,1.0,-1.0,3.0,12.0,6.0,10.0,1.0,0.0
1705080767.762607,-1.0,1.0,-1.0,-1.0,-1.0,-2.0,-3.0,-2.0
1705080767.763617,1.0,-2.0,4.0,0.0,4.0,4.0,5.0,1.0
1705080767.7706919,0.0,-2.0,-4.0,-2.0,-1.0,-1.0,-6.0,0.0
1705080767.7706919,-4.0,-4.0,-6.0,-6.0,-7.0,-3.0,-3.0,-3.0
1705080767.783451,1.0,1.0,2.0,2.0,5.0,4.0,2.0,-1.0
1705080767.783451,-2.0,3.0,0.0,1.0,-6.0,-5.0,-2.0,0.0
1705080767.7972374,-2.0,3.0,-3.0,-1.0,1.0,-2.0,-3.0,-2.0
1705080767.7972374,2.0,-5.0,-2.0,1.0,-2.0,6.0,4.0,0.0
1705080767.7972374,-1.0,-3.0,-4.0,-3.0,-3.0,-6.0,-2.0,0.0
1705080767.7972374,-1.0,-2.0,-2.0,-2.0,0.0,1.0,-1.0,-3.0
1705080767.8170164,7.0,1.0,2.0,2.0,1.0,0.0,-1.0,0.0
1705080767.8170164,1.0,2.0,-2.0,-5.0,-1.0,1.0,-2.0,0.0
1705080767.8170164,-4.0,-1.0,-3.0,-3.0,-4.0,-2.0,1.0,-2.0
1705080767.8170164,-2.0,-4.0,-3.0,-1.0,-5.0,-3.0,-5.0,-1.0
1705080767.8369613,-2.0,-3.0,-6.0,-5.0,-1.0,5.0,3.0,2.0
1705080767.8369613,2.0,-1.0,9.0,4.0,-2.0,-10.0,-9.0,-1.0
1705080767.8369613,2.0,0.0,2.0,2.0,0.0,3.0,-3.0,1.0
1705080767.8369613,-3.0,0.0,2.0,2.0,3.0,0.0,2.0,1.0
1705080767.8471174,1.0,-3.0,-5.0,-5.0,-5.0,-4.0,-4.0,-3.0
1705080767.8471174,0.0,2.0,0.0,4.0,6.0,6.0,3.0,1.0
1705080767.8570144,-1.0,0.0,-1.0,2.0,2.0,1.0,3.0,1.0
1705080767.8570144,-1.0,-1.0,-3.0,-3.0,-3.0,-2.0,-8.0,-1.0
1705080767.8769677,-4.0,-5.0,1.0,-1.0,2.0,4.0,0.0,0.0
1705080767.8769677,-3.0,-2.0,-7.0,-11.0,-5.0,-9.0,-1.0,-2.0
1705080767.8769677,-1.0,-2.0,-1.0,-5.0,-7.0,-1.0,3.0,-2.0
1705080767.8769677,3.0,-1.0,3.0,2.0,1.0,-1.0,1.0,1.0
1705080767.8976293,-2.0,1.0,-1.0,-1.0,0.0,1.0,0.0,-2.0
1705080767.8976293,-2.0,-2.0,-1.0,-3.0,-5.0,-7.0,-3.0,-1.0
1705080767.8976293,2.0,-1.0,-2.0,-2.0,3.0,5.0,-4.0,1.0
1705080767.8976293,-2.0,0.0,-2.0,-3.0,-3.0,-6.0,-4.0,-1.0
1705080767.9073586,-3.0,-7.0,-5.0,-4.0,-2.0,-3.0,-4.0,-3.0
1705080767.9073586,-3.0,3.0,7.0,4.0,1.0,-1.0,2.0,0.0
1705080767.917558,1.0,-1.0,-2.0,-4.0,-5.0,-1.0,-4.0,-2.0
1705080767.917558,1.0,0.0,-3.0,1.0,-2.0,-5.0,2.0,-1.0
1705080767.9473531,-1.0,1.0,4.0,7.0,2.0,-2.0,-7.0,-1.0
1705080767.9473531,0.0,-6.0,-9.0,-4.0,1.0,5.0,6.0,-2.0
1705080767.9473531,-4.0,-3.0,-5.0,-7.0,-2.0,-9.0,-10.0,-3.0
1705080767.9473531,-4.0,0.0,0.0,-6.0,-3.0,1.0,-2.0,-2.0
1705080767.9573596,0.0,1.0,-1.0,1.0,2.0,3.0,2.0,1.0
1705080767.9573596,-1.0,-1.0,-2.0,0.0,-3.0,-4.0,-2.0,-2.0
1705080767.9573596,-3.0,1.0,4.0,0.0,2.0,2.0,-2.0,-1.0
1705080767.9573596,-2.0,1.0,-3.0,1.0,1.0,2.0,1.0,0.0
1705080767.967603,-3.0,-4.0,-3.0,-3.0,-6.0,-4.0,5.0,-1.0
1705080767.967603,-1.0,-1.0,-1.0,-4.0,-1.0,-5.0,-9.0,-2.0
1705080767.967603,-1.0,2.0,3.0,2.0,-1.0,-2.0,1.0,-1.0
1705080767.967603,4.0,-3.0,-3.0,-4.0,-3.0,-3.0,-4.0,-1.0
1705080767.9973578,-8.0,-1.0,1.0,3.0,0.0,-1.0,0.0,-1.0
1705080767.9973578,-4.0,1.0,5.0,6.0,5.0,5.0,1.0,0.0
1705080767.9973578,0.0,-1.0,-2.0,0.0,-3.0,-6.0,-2.0,-1.0
1705080767.9973578,-3.0,-2.0,-4.0,-1.0,0.0,0.0,-1.0,-1.0
1705080768.0177615,2.0,0.0,-1.0,0.0,-1.0,1.0,-1.0,-2.0
1705080768.0177615,1.0,-2.0,-2.0,-4.0,-5.0,-2.0,3.0,1.0
1705080768.0177615,-1.0,3.0,0.0,-5.0,-5.0,-3.0,-2.0,0.0
1705080768.0177615,-3.0,-4.0,-1.0,2.0,3.0,3.0,-1.0,-4.0
1705080768.027718,0.0,-1.0,-1.0,-1.0,0.0,0.0,1.0,-1.0
1705080768.027718,-2.0,-3.0,-7.0,-8.0,-6.0,-1.0,-2.0,-2.0
1705080768.0376399,6.0,-2.0,0.0,0.0,-2.0,-13.0,-7.0,1.0
1705080768.0376399,-3.0,-1.0,-3.0,-2.0,-1.0,1.0,4.0,-2.0
1705080768.0473557,-2.0,1.0,4.0,3.0,-1.0,-2.0,-5.0,-1.0
1705080768.0473557,-2.0,1.0,-3.0,-4.0,-1.0,1.0,1.0,-2.0
1705080768.057354,0.0,-3.0,-1.0,1.0,-2.0,10.0,2.0,-1.0
1705080768.057354,3.0,1.0,5.0,5.0,5.0,-4.0,-4.0,-1.0
1705080768.077755,-12.0,-7.0,-8.0,-5.0,-3.0,-2.0,-3.0,-1.0
1705080768.077755,2.0,5.0,6.0,7.0,2.0,-1.0,1.0,1.0
1705080768.077755,-2.0,-7.0,-6.0,-4.0,-2.0,-1.0,-3.0,-1.0
1705080768.077755,-2.0,-3.0,-2.0,-5.0,-5.0,-4.0,2.0,-1.0
1705080768.0973544,3.0,-1.0,-1.0,0.0,0.0,3.0,2.0,-1.0
1705080768.0973544,-3.0,-3.0,-5.0,-7.0,-5.0,-8.0,-11.0,-1.0
1705080768.0973544,-4.0,1.0,2.0,0.0,0.0,-1.0,2.0,-1.0
1705080768.0973544,1.0,1.0,1.0,5.0,1.0,3.0,1.0,-1.0
1705080768.1173599,1.0,2.0,2.0,-2.0,-2.0,-5.0,-1.0,1.0
1705080768.1173599,0.0,-1.0,0.0,0.0,-2.0,-3.0,-1.0,-1.0
1705080768.1173599,-1.0,-1.0,-3.0,1.0,1.0,3.0,3.0,0.0
1705080768.1173599,-2.0,-1.0,-2.0,-3.0,-4.0,-7.0,-7.0,-1.0
1705080768.1376553,3.0,1.0,2.0,-4.0,-1.0,4.0,6.0,-2.0
1705080768.1376553,3.0,0.0,-4.0,2.0,-3.0,-8.0,-9.0,-3.0
1705080768.1376553,-4.0,1.0,2.0,1.0,5.0,5.0,1.0,-2.0
1705080768.1376553,-2.0,-3.0,2.0,-1.0,-4.0,-3.0,2.0,-2.0
1705080768.1673553,-1.0,-3.0,-7.0,-4.0,0.0,-1.0,-2.0,-1.0
1705080768.1673553,0.0,-1.0,1.0,-1.0,-2.0,-1.0,4.0,-1.0
1705080768.1673553,-3.0,-1.0,-3.0,-8.0,-2.0,-2.0,0.0,-3.0
1705080768.1673553,0.0,2.0,-1.0,2.0,0.0,0.0,-3.0,-1.0
1705080768.177504,0.0,-2.0,8.0,8.0,0.0,-7.0,-9.0,0.0
1705080768.177504,-2.0,-5.0,-3.0,-5.0,-5.0,2.0,3.0,-3.0
1705080768.177504,0.0,3.0,1.0,2.0,4.0,0.0,-8.0,-3.0
1705080768.177504,-4.0,-6.0,-8.0,-7.0,-4.0,0.0,1.0,-1.0
1705080768.197689,0.0,2.0,3.0,2.0,1.0,-1.0,1.0,1.0
1705080768.197689,1.0,2.0,3.0,6.0,1.0,1.0,-1.0,1.0
1705080768.197689,-7.0,-3.0,-3.0,-1.0,-3.0,-15.0,1.0,-1.0
1705080768.197689,-2.0,1.0,0.0,-3.0,4.0,6.0,0.0,-1.0
1705080768.227353,0.0,-2.0,-1.0,-3.0,-8.0,-14.0,-2.0,-2.0
1705080768.227353,-1.0,-7.0,-7.0,-9.0,-3.0,-2.0,-1.0,-2.0
1705080768.227353,3.0,3.0,3.0,5.0,-1.0,6.0,7.0,0.0
1705080768.227353,0.0,-1.0,2.0,4.0,1.0,-6.0,-11.0,-2.0
1705080768.227353,-1.0,1.0,1.0,4.0,1.0,-1.0,-1.0,-1.0
1705080768.227353,-6.0,-9.0,-9.0,-7.0,1.0,8.0,9.0,-2.0
1705080768.237362,2.0,-4.0,-3.0,-6.0,-4.0,-2.0,-10.0,-1.0
1705080768.237362,0.0,0.0,2.0,-2.0,-3.0,-3.0,-5.0,-1.0
1705080768.2577817,0.0,0.0,-1.0,-2.0,-2.0,2.0,-1.0,-2.0
1705080768.2577817,0.0,2.0,-4.0,-6.0,-2.0,-3.0,-1.0,-3.0
1705080768.2577817,-1.0,-7.0,6.0,5.0,3.0,8.0,11.0,0.0
1705080768.2577817,2.0,10.0,3.0,9.0,-3.0,-5.0,-9.0,0.0
1705080768.277354,-2.0,0.0,-11.0,-7.0,3.0,1.0,-3.0,-2.0
1705080768.277354,-2.0,-2.0,-3.0,-3.0,-3.0,-2.0,-1.0,-1.0
1705080768.277354,-3.0,-4.0,-2.0,-2.0,-1.0,-1.0,-2.0,0.0
1705080768.277354,-3.0,-8.0,-5.0,-6.0,-2.0,0.0,5.0,-1.0
1705080768.2876964,1.0,-1.0,1.0,2.0,2.0,1.0,-4.0,0.0
1705080768.2876964,-3.0,0.0,-1.0,0.0,-5.0,-1.0,-2.0,-1.0
1705080768.298655,-2.0,3.0,-4.0,-4.0,0.0,1.0,-1.0,-3.0
1705080768.298655,2.0,2.0,2.0,5.0,1.0,-3.0,-3.0,0.0
1705080768.3199818,0.0,0.0,-4.0,-6.0,-3.0,2.0,-1.0,0.0
1705080768.3199818,-1.0,0.0,1.0,-1.0,1.0,-4.0,-1.0,-1.0
1705080768.3199818,-2.0,2.0,0.0,0.0,-2.0,-1.0,-2.0,-2.0
1705080768.3199818,2.0,-3.0,1.0,-1.0,0.0,2.0,4.0,1.0
1705080768.340025,-6.0,0.0,-6.0,-7.0,-3.0,1.0,0.0,-3.0
1705080768.340025,-2.0,1.0,1.0,-1.0,-3.0,-2.0,-3.0,-2.0
1705080768.340025,-2.0,-5.0,-1.0,1.0,2.0,2.0,-4.0,0.0
1705080768.340025,-4.0,-2.0,-2.0,0.0,1.0,1.0,0.0,-2.0
1705080768.350021,3.0,1.0,1.0,-1.0,-4.0,-7.0,0.0,0.0
1705080768.350021,-2.0,-1.0,-1.0,-5.0,2.0,6.0,-1.0,1.0
1705080768.350021,0.0,2.0,2.0,3.0,-2.0,-5.0,-1.0,-1.0
1705080768.350021,1.0,2.0,2.0,7.0,4.0,5.0,5.0,2.0
1705080768.3799834,-5.0,-1.0,-4.0,-6.0,-5.0,-5.0,-19.0,-8.0
1705080768.3799834,0.0,-5.0,-10.0,2.0,-2.0,-6.0,4.0,1.0
1705080768.3799834,-1.0,-3.0,-3.0,-6.0,-4.0,-1.0,-2.0,-2.0
1705080768.3799834,0.0,-1.0,1.0,-2.0,-1.0,-1.0,2.0,0.0
1705080768.3900287,2.0,5.0,4.0,7.0,5.0,8.0,4.0,0.0
1705080768.3900287,-1.0,-2.0,3.0,-1.0,1.0,-2.0,-2.0,-2.0
1705080768.40002,-1.0,0.0,-4.0,-2.0,-2.0,-1.0,4.0,-3.0
1705080768.40002,-2.0,-2.0,-4.0,-8.0,-5.0,-8.0,-8.0,-1.0
1705080768.4101746,-1.0,0.0,1.0,-2.0,1.0,5.0,3.0,0.0
1705080768.4101746,-2.0,0.0,3.0,4.0,0.0,-1.0,-4.0,0.0
1705080768.4101746,3.0,1.0,-3.0,-3.0,-2.0,-2.0,3.0,1.0
1705080768.4101746,-1.0,0.0,3.0,0.0,3.0,5.0,-6.0,-3.0
1705080768.4299843,4.0,-2.0,3.0,5.0,3.0,1.0,4.0,2.0
1705080768.4299843,0.0,-2.0,-4.0,-2.0,-2.0,-3.0,-2.0,-2.0
1705080768.4400074,-4.0,-2.0,-4.0,-3.0,-1.0,-4.0,-6.0,0.0
1705080768.4400074,-7.0,-4.0,-1.0,-3.0,-5.0,-2.0,2.0,-3.0
1705080768.4503934,4.0,1.0,-2.0,-2.0,0.0,2.0,-2.0,1.0
1705080768.4503934,2.0,2.0,11.0,9.0,1.0,-10.0,-2.0,0.0
1705080768.4603815,1.0,1.0,-3.0,-4.0,-5.0,-4.0,-5.0,-1.0
1705080768.4603815,-1.0,-3.0,-9.0,-7.0,-2.0,2.0,-1.0,-2.0
1705080768.470457,-2.0,-4.0,-2.0,2.0,-5.0,1.0,4.0,-1.0
1705080768.470457,1.0,3.0,2.0,1.0,7.0,2.0,1.0,-1.0
1705080768.470457,-3.0,-4.0,-3.0,-2.0,-4.0,-14.0,-24.0,-3.0
1705080768.470457,-4.0,3.0,6.0,7.0,7.0,9.0,3.0,-2.0
1705080768.5004957,0.0,-5.0,-7.0,-8.0,-7.0,-12.0,5.0,0.0
1705080768.5004957,-1.0,-3.0,0.0,-5.0,-3.0,-4.0,-7.0,-3.0
1705080768.5004957,0.0,1.0,-1.0,5.0,5.0,7.0,6.0,0.0
1705080768.5004957,-1.0,-2.0,0.0,-1.0,-1.0,0.0,0.0,-1.0
1705080768.5105193,-3.0,-3.0,0.0,-1.0,-2.0,3.0,0.0,-2.0
1705080768.5105193,-4.0,-3.0,-4.0,-3.0,-5.0,0.0,1.0,0.0
1705080768.5207222,3.0,-5.0,1.0,-2.0,-1.0,0.0,-1.0,4.0
1705080768.5207222,4.0,2.0,-3.0,-1.0,-2.0,-3.0,1.0,-7.0
1705080768.5307336,6.0,1.0,0.0,1.0,0.0,-2.0,3.0,1.0
1705080768.5307336,-11.0,-2.0,0.0,2.0,-2.0,0.0,0.0,-3.0
1705080768.5307336,-7.0,-1.0,1.0,-2.0,-6.0,-3.0,1.0,-2.0
1705080768.5307336,1.0,0.0,0.0,5.0,3.0,10.0,-1.0,2.0
1705080768.5604901,2.0,-2.0,-2.0,-4.0,0.0,-6.0,-2.0,1.0
1705080768.5604901,5.0,1.0,-2.0,-1.0,0.0,0.0,-12.0,-1.0
1705080768.5604901,-1.0,2.0,1.0,-2.0,-2.0,1.0,6.0,-2.0
1705080768.5604901,-1.0,-5.0,-2.0,-3.0,-7.0,-12.0,1.0,1.0
1705080768.570851,-8.0,-1.0,-2.0,-1.0,3.0,8.0,-1.0,-7.0
1705080768.570851,0.0,4.0,2.0,6.0,3.0,2.0,3.0,-2.0
1705080768.5805464,-2.0,-2.0,-7.0,-5.0,-2.0,0.0,0.0,0.0
1705080768.5805464,3.0,-9.0,0.0,0.0,-4.0,-4.0,-2.0,3.0
1705080768.5904953,-3.0,6.0,1.0,-2.0,-5.0,-11.0,-4.0,0.0
1705080768.5904953,-1.0,0.0,-6.0,-7.0,0.0,4.0,0.0,-3.0
1705080768.5904953,0.0,-6.0,-1.0,2.0,1.0,-4.0,-7.0,-4.0
1705080768.5904953,-1.0,-1.0,-4.0,-3.0,-1.0,-1.0,5.0,0.0
1705080768.6105218,-3.0,1.0,2.0,-1.0,-1.0,0.0,-3.0,0.0
1705080768.6105218,-1.0,-3.0,0.0,3.0,-2.0,-2.0,0.0,-2.0
1705080768.6205769,3.0,3.0,0.0,-3.0,6.0,3.0,0.0,0.0
1705080768.6205769,-3.0,1.0,2.0,0.0,-1.0,-3.0,-5.0,-2.0
1705080768.631044,-3.0,-3.0,1.0,2.0,0.0,-1.0,0.0,-1.0
1705080768.631044,1.0,5.0,1.0,0.0,-1.0,3.0,1.0,-2.0
1705080768.6413357,-4.0,-3.0,-4.0,-2.0,-5.0,-8.0,-7.0,-1.0
1705080768.6413357,-3.0,0.0,-5.0,-7.0,-6.0,-11.0,-11.0,0.0
1705080768.6513946,-1.0,-4.0,5.0,2.0,2.0,1.0,-1.0,-3.0
1705080768.6513946,4.0,-4.0,-1.0,-1.0,0.0,3.0,5.0,2.0
1705080768.6513946,-8.0,-8.0,-6.0,-7.0,-2.0,-1.0,1.0,-4.0
1705080768.6513946,2.0,6.0,4.0,3.0,2.0,1.0,2.0,0.0
1705080768.671089,0.0,-3.0,2.0,6.0,3.0,-2.0,-2.0,-1.0
1705080768.671089,-1.0,0.0,2.0,-3.0,-2.0,-6.0,-1.0,0.0
1705080768.68106,3.0,3.0,-3.0,-4.0,-4.0,-4.0,1.0,-3.0
1705080768.68106,-5.0,-13.0,-11.0,-14.0,-3.0,-1.0,-2.0,-2.0
1705080768.6913874,0.0,-3.0,2.0,2.0,1.0,3.0,0.0,2.0
1705080768.6913874,4.0,2.0,4.0,13.0,5.0,2.0,1.0,1.0
1705080768.7011259,-2.0,2.0,3.0,-1.0,-3.0,-3.0,0.0,-2.0
1705080768.7011259,-1.0,2.0,0.0,1.0,0.0,0.0,-2.0,3.0
1705080768.7210605,1.0,2.0,-1.0,-5.0,0.0,2.0,-2.0,-8.0
1705080768.7210605,-2.0,-9.0,-9.0,-7.0,-3.0,-1.0,-1.0,3.0
1705080768.7210605,-16.0,-2.0,4.0,6.0,-2.0,1.0,-5.0,-3.0
1705080768.7210605,0.0,1.0,2.0,0.0,0.0,5.0,3.0,0.0
1705080768.7310882,-1.0,-3.0,-3.0,-3.0,-9.0,-19.0,-1.0,1.0
1705080768.7310882,-3.0,-2.0,0.0,-2.0,5.0,6.0,3.0,-3.0
1705080768.7410605,4.0,2.0,0.0,-1.0,2.0,-3.0,-10.0,1.0
1705080768.7410605,0.0,-8.0,-3.0,1.0,2.0,3.0,7.0,-1.0
1705080768.7510598,-4.0,5.0,-3.0,-4.0,-5.0,-3.0,-10.0,-2.0
1705080768.7510598,-1.0,3.0,2.0,-3.0,-3.0,-3.0,1.0,-1.0
1705080768.7610586,6.0,-5.0,-1.0,4.0,1.0,5.0,6.0,2.0
1705080768.7610586,-4.0,1.0,-2.0,-5.0,-2.0,-13.0,-5.0,-3.0
1705080768.7810633,1.0,0.0,0.0,5.0,0.0,3.0,2.0,2.0
1705080768.7810633,-5.0,-4.0,-2.0,-6.0,-4.0,-4.0,-3.0,-1.0
1705080768.7910557,8.0,6.0,-1.0,0.0,3.0,5.0,2.0,3.0
1705080768.7910557,-5.0,2.0,0.0,-2.0,-4.0,0.0,1.0,-1.0
1705080768.801053,-4.0,-3.0,-3.0,0.0,0.0,1.0,0.0,0.0
1705080768.801053,0.0,6.0,3.0,2.0,-2.0,-2.0,1.0,1.0
1705080768.801053,8.0,-2.0,-3.0,-4.0,-4.0,-8.0,-1.0,-3.0
1705080768.801053,9.0,1.0,-4.0,-2.0,-5.0,0.0,1.0,-2.0
1705080768.8221474,-2.0,-3.0,-1.0,-3.0,2.0,2.0,-6.0,0.0
1705080768.8221474,-5.0,-4.0,-3.0,-1.0,0.0,2.0,-4.0,-7.0
1705080768.8231103,-1.0,1.0,4.0,6.0,1.0,-1.0,7.0,2.0
1705080768.8231103,4.0,4.0,-1.0,1.0,1.0,3.0,-1.0,-1.0
1705080768.8363283,-1.0,-1.0,-4.0,-5.0,-4.0,1.0,2.0,1.0
1705080768.8363283,0.0,0.0,0.0,1.0,-2.0,-1.0,2.0,0.0
1705080768.8383174,-2.0,-1.0,-1.0,0.0,-1.0,-3.0,-7.0,-1.0
1705080768.8383174,-1.0,-4.0,-1.0,3.0,1.0,2.0,4.0,1.0
1705080768.85281,3.0,4.0,-2.0,-4.0,0.0,1.0,-5.0,1.0
1705080768.85281,-11.0,-14.0,-8.0,-5.0,-2.0,-4.0,-3.0,-4.0
1705080768.85281,-3.0,-1.0,-1.0,-4.0,-1.0,-2.0,2.0,-1.0
1705080768.85281,-4.0,2.0,4.0,4.0,2.0,3.0,-1.0,1.0
1705080768.8731909,3.0,0.0,-5.0,-4.0,-1.0,-12.0,-2.0,-2.0
1705080768.8731909,1.0,0.0,-5.0,-3.0,-2.0,-4.0,-3.0,1.0
1705080768.8828077,-4.0,0.0,-4.0,-1.0,-2.0,3.0,1.0,-2.0
1705080768.8828077,0.0,4.0,7.0,8.0,3.0,-2.0,-4.0,0.0
1705080768.9028094,0.0,-1.0,-2.0,-1.0,0.0,3.0,5.0,-1.0
1705080768.9028094,1.0,-2.0,-2.0,-7.0,-5.0,-3.0,-6.0,-1.0
1705080768.9028094,-4.0,-4.0,-1.0,-2.0,-2.0,2.0,-3.0,-2.0
1705080768.9028094,-1.0,2.0,0.0,-1.0,-1.0,-1.0,-4.0,-1.0
1705080768.9131565,-5.0,-5.0,1.0,3.0,2.0,1.0,0.0,-3.0
1705080768.9131565,1.0,-1.0,0.0,-3.0,-2.0,-1.0,0.0,0.0
1705080768.9131565,-1.0,1.0,-2.0,-4.0,-2.0,-1.0,0.0,-1.0
1705080768.9131565,0.0,-1.0,-3.0,-4.0,-5.0,-1.0,-1.0,-2.0
1705080768.9415708,-5.0,-6.0,1.0,1.0,0.0,-4.0,-6.0,-3.0
1705080768.9415708,-1.0,7.0,1.0,-3.0,-4.0,-5.0,0.0,0.0
1705080768.9432213,1.0,-8.0,-5.0,0.0,0.0,4.0,1.0,-1.0
1705080768.9432213,3.0,1.0,2.0,-2.0,-1.0,-14.0,-1.0,0.0
1705080768.9558551,-21.0,-5.0,-4.0,-3.0,-2.0,1.0,-1.0,-3.0
1705080768.9558551,-1.0,-2.0,-1.0,-2.0,-1.0,1.0,-1.0,-1.0
1705080768.9625323,-2.0,3.0,-4.0,-4.0,-3.0,-3.0,1.0,-1.0
1705080768.9625323,-1.0,-2.0,1.0,4.0,4.0,5.0,0.0,-1.0
1705080768.9795694,5.0,-1.0,-2.0,1.0,-6.0,-1.0,-1.0,1.0
1705080768.9795694,2.0,0.0,5.0,3.0,6.0,2.0,1.0,-2.0
1705080768.9811463,-6.0,7.0,-1.0,2.0,-3.0,-2.0,4.0,-1.0
1705080768.9811463,4.0,-10.0,-7.0,-10.0,0.0,1.0,-10.0,-1.0
1705080769.0011895,2.0,-1.0,3.0,4.0,-3.0,-13.0,2.0,-1.0
1705080769.0021555,-2.0,-3.0,-6.0,-5.0,-1.0,4.0,-2.0,0.0
1705080769.003204,3.0,0.0,5.0,0.0,-2.0,-6.0,-2.0,0.0
1705080769.003204,-3.0,3.0,0.0,-2.0,-1.0,4.0,4.0,0.0
1705080769.0168278,-8.0,-2.0,0.0,3.0,3.0,7.0,4.0,0.0
1705080769.0168278,-1.0,1.0,0.0,3.0,1.0,-2.0,-3.0,-1.0
1705080769.0238352,0.0,-1.0,-1.0,-2.0,-1.0,-1.0,-2.0,-1.0
1705080769.0238352,-5.0,1.0,-5.0,-3.0,-4.0,1.0,1.0,0.0
1705080769.0358627,3.0,-5.0,-1.0,-3.0,-2.0,-5.0,-2.0,-4.0
1705080769.0358627,-3.0,1.0,-1.0,1.0,1.0,2.0,7.0,1.0
1705080769.0358627,-1.0,-1.0,0.0,-4.0,-1.0,6.0,-9.0,0.0
1705080769.0358627,-3.0,-3.0,-3.0,-5.0,-5.0,-5.0,1.0,-5.0
1705080769.0558622,0.0,2.0,-1.0,-1.0,2.0,6.0,-1.0,-1.0
1705080769.0558622,2.0,1.0,3.0,3.0,-1.0,0.0,1.0,-2.0
1705080769.0558622,0.0,-2.0,-3.0,1.0,-1.0,2.0,3.0,1.0
1705080769.0558622,-4.0,-1.0,3.0,5.0,1.0,4.0,-4.0,-1.0
1705080769.076211,5.0,1.0,-3.0,-3.0,-1.0,0.0,-1.0,1.0
1705080769.076211,1.0,-2.0,-3.0,-2.0,-4.0,-4.0,-3.0,-2.0
1705080769.076211,-2.0,-1.0,-1.0,-5.0,-2.0,-2.0,1.0,-3.0
1705080769.076211,-1.0,-1.0,1.0,-1.0,-2.0,-4.0,-1.0,-1.0
1705080769.0958612,-5.0,1.0,-1.0,1.0,2.0,3.0,1.0,-2.0
1705080769.0958612,9.0,10.0,-3.0,-3.0,-1.0,-2.0,0.0,1.0
1705080769.0958612,3.0,-19.0,-3.0,-1.0,-1.0,-4.0,-2.0,-2.0
1705080769.0958612,-52.0,-18.0,-8.0,-5.0,-2.0,-2.0,-2.0,-11.0
1705080769.1158617,35.0,14.0,5.0,-1.0,-1.0,3.0,1.0,8.0
1705080769.1158617,-32.0,-14.0,-4.0,0.0,-3.0,-1.0,-4.0,-6.0
1705080769.1158617,15.0,14.0,6.0,4.0,4.0,1.0,4.0,9.0
1705080769.1158617,-50.0,-16.0,-7.0,-3.0,-3.0,-4.0,-7.0,-16.0
1705080769.1358745,21.0,8.0,3.0,-3.0,0.0,2.0,-1.0,9.0
1705080769.1358745,-57.0,-15.0,-4.0,-2.0,-4.0,-5.0,-7.0,-15.0
1705080769.1358745,33.0,6.0,4.0,2.0,1.0,1.0,3.0,8.0
1705080769.1358745,-8.0,-2.0,-5.0,-3.0,0.0,-4.0,0.0,-3.0
1705080769.1558669,-3.0,3.0,-3.0,-4.0,-1.0,2.0,1.0,1.0
1705080769.1558669,24.0,5.0,2.0,-3.0,-1.0,-1.0,1.0,7.0
1705080769.1558669,-12.0,-5.0,-1.0,0.0,0.0,-2.0,-3.0,-5.0
1705080769.1558669,29.0,8.0,1.0,-1.0,-3.0,-2.0,3.0,7.0
1705080769.1761787,-4.0,-4.0,-2.0,-2.0,-3.0,-2.0,-1.0,-5.0
1705080769.1761787,-4.0,-4.0,1.0,0.0,0.0,-1.0,-2.0,1.0
1705080769.1761787,46.0,11.0,-1.0,3.0,2.0,-1.0,2.0,6.0
1705080769.1761787,-26.0,-8.0,0.0,1.0,0.0,-1.0,-2.0,-3.0
1705080769.1961043,26.0,11.0,-1.0,0.0,0.0,-1.0,-3.0,2.0
1705080769.1961043,-47.0,-4.0,2.0,0.0,-1.0,0.0,2.0,1.0
1705080769.1961043,-61.0,-13.0,-7.0,-4.0,-4.0,-5.0,-7.0,-21.0
1705080769.1961043,65.0,21.0,4.0,1.0,-1.0,1.0,3.0,15.0
1705080769.225889,-9.0,-20.0,-2.0,-6.0,-3.0,0.0,3.0,1.0
1705080769.225889,-27.0,-11.0,-5.0,-2.0,-2.0,-3.0,-8.0,-19.0
1705080769.225889,77.0,33.0,14.0,10.0,5.0,5.0,11.0,31.0
1705080769.225889,-109.0,-27.0,-14.0,-9.0,-4.0,-5.0,-13.0,-33.0
1705080769.2358625,-9.0,-13.0,-3.0,-1.0,-1.0,-3.0,-3.0,-5.0
1705080769.2358625,14.0,8.0,-1.0,-4.0,-1.0,-1.0,2.0,9.0
1705080769.2358625,5.0,-2.0,-3.0,-8.0,-6.0,-3.0,-3.0,-4.0
1705080769.2358625,24.0,4.0,5.0,8.0,4.0,4.0,2.0,6.0
1705080769.2523146,23.0,6.0,-1.0,3.0,-1.0,-1.0,3.0,5.0
1705080769.2523146,29.0,4.0,2.0,-2.0,0.0,0.0,0.0,2.0
1705080769.2624786,-14.0,3.0,-1.0,1.0,-2.0,-3.0,0.0,0.0
1705080769.2624786,-4.0,-5.0,-5.0,-6.0,-3.0,-4.0,-5.0,-3.0
1705080769.3001633,-33.0,-6.0,-2.0,0.0,1.0,0.0,0.0,-3.0
1705080769.3001633,75.0,26.0,9.0,8.0,2.0,2.0,6.0,24.0
1705080769.3001633,56.0,10.0,-7.0,-8.0,-5.0,-5.0,-5.0,-8.0
1705080769.3001633,-64.0,-45.0,-8.0,-2.0,-2.0,-3.0,-3.0,-29.0
1705080769.3021646,-60.0,-26.0,-9.0,-8.0,-6.0,-5.0,-18.0,-29.0
1705080769.3021646,28.0,6.0,3.0,0.0,0.0,-2.0,1.0,-1.0
1705080769.3031628,48.0,15.0,6.0,4.0,2.0,2.0,4.0,12.0
1705080769.3031628,1.0,-2.0,-3.0,-5.0,-4.0,-3.0,-2.0,-3.0
1705080769.3156416,39.0,15.0,1.0,-4.0,-1.0,-1.0,5.0,12.0
1705080769.3156416,-6.0,-7.0,-4.0,-1.0,-4.0,-4.0,-4.0,-5.0
1705080769.32624,-59.0,-13.0,8.0,8.0,7.0,7.0,1.0,-5.0
1705080769.32624,30.0,14.0,0.0,0.0,-2.0,-2.0,-3.0,8.0
1705080769.3392408,-6.0,3.0,-1.0,-2.0,-5.0,-2.0,1.0,1.0
1705080769.3392408,29.0,9.0,-12.0,-15.0,-7.0,-5.0,-2.0,5.0
1705080769.3402393,-9.0,-1.0,14.0,10.0,5.0,3.0,5.0,10.0
1705080769.3402393,32.0,8.0,6.0,10.0,5.0,5.0,5.0,10.0
1705080769.370035,-59.0,-21.0,-1.0,1.0,0.0,-4.0,-8.0,-25.0
1705080769.370035,27.0,-2.0,-8.0,-1.0,-5.0,-3.0,-1.0,-2.0
1705080769.3710306,-53.0,-13.0,-15.0,-13.0,-7.0,-6.0,-7.0,-19.0
1705080769.3710306,44.0,-1.0,-2.0,-2.0,-1.0,-2.0,0.0,9.0
1705080769.37532,29.0,9.0,7.0,6.0,3.0,2.0,1.0,8.0
1705080769.37532,43.0,14.0,8.0,4.0,3.0,6.0,5.0,11.0
1705080769.3861918,30.0,-4.0,-3.0,-2.0,0.0,4.0,0.0,-3.0
1705080769.3861918,-25.0,-5.0,-4.0,-6.0,-9.0,-12.0,-17.0,-12.0
1705080769.4035027,-8.0,-2.0,-3.0,-2.0,1.0,1.0,8.0,1.0
1705080769.4035027,55.0,21.0,6.0,0.0,0.0,1.0,2.0,22.0
1705080769.4035027,44.0,13.0,5.0,1.0,0.0,-5.0,-2.0,9.0
1705080769.4045026,-70.0,-26.0,-9.0,-6.0,-6.0,-2.0,-3.0,-28.0
1705080769.4217901,-24.0,-2.0,1.0,3.0,1.0,3.0,-1.0,-7.0
1705080769.4217901,29.0,-10.0,-1.0,4.0,2.0,1.0,2.0,-7.0
1705080769.422791,-39.0,-10.0,-6.0,-4.0,-3.0,0.0,-2.0,5.0
1705080769.422791,25.0,34.0,19.0,8.0,4.0,3.0,9.0,19.0
1705080769.4358046,22.0,-1.0,-11.0,-5.0,-2.0,-7.0,-7.0,-4.0
1705080769.4358046,5.0,-12.0,-8.0,-5.0,-1.0,1.0,-5.0,-9.0
1705080769.449125,-122.0,-36.0,-12.0,-5.0,-5.0,-4.0,-5.0,-21.0
1705080769.449125,46.0,8.0,-5.0,-7.0,-2.0,-1.0,-2.0,-2.0
1705080769.4595747,25.0,14.0,3.0,2.0,-2.0,0.0,2.0,12.0
1705080769.4595747,-98.0,-13.0,2.0,1.0,0.0,-2.0,-5.0,-10.0
1705080769.460572,11.0,-10.0,-3.0,2.0,-2.0,-2.0,-2.0,-3.0
1705080769.460572,54.0,30.0,6.0,6.0,3.0,5.0,10.0,23.0
1705080769.4826806,-36.0,-26.0,-5.0,-4.0,-5.0,-4.0,-10.0,-15.0
1705080769.4826806,-20.0,-8.0,-6.0,-7.0,-4.0,-2.0,-2.0,-7.0
1705080769.4834626,25.0,10.0,3.0,-3.0,-3.0,-4.0,-3.0,-4.0
1705080769.4834626,-6.0,-14.0,1.0,2.0,-1.0,1.0,2.0,3.0
1705080769.4954765,-8.0,0.0,5.0,4.0,3.0,3.0,9.0,23.0
1705080769.4954765,-84.0,-28.0,-11.0,-5.0,-4.0,-8.0,-13.0,-37.0
1705080769.5092428,-11.0,-7.0,-7.0,-4.0,-4.0,-2.0,-3.0,-5.0
1705080769.5092428,80.0,20.0,-3.0,-7.0,-4.0,-4.0,-1.0,13.0
1705080769.519147,-58.0,-1.0,4.0,2.0,2.0,3.0,2.0,-3.0
1705080769.5201664,78.0,22.0,6.0,4.0,3.0,4.0,11.0,33.0
1705080769.521165,43.0,24.0,2.0,-2.0,0.0,-3.0,1.0,9.0
1705080769.521165,1.0,-15.0,-8.0,-6.0,-3.0,-2.0,-1.0,-2.0
1705080769.5425491,23.0,-23.0,-8.0,0.0,-1.0,-2.0,-7.0,-22.0
1705080769.5425491,23.0,7.0,5.0,4.0,5.0,4.0,2.0,8.0
1705080769.5445428,7.0,10.0,0.0,0.0,-4.0,-1.0,2.0,1.0
1705080769.5445428,68.0,28.0,3.0,-1.0,-1.0,2.0,4.0,19.0
1705080769.565818,-25.0,-5.0,-7.0,-5.0,-1.0,-2.0,-1.0,1.0
1705080769.565818,-55.0,-35.0,-5.0,5.0,1.0,-1.0,-1.0,-19.0
1705080769.5668182,-15.0,-16.0,-4.0,-3.0,1.0,0.0,-6.0,-14.0
1705080769.5668182,42.0,6.0,-5.0,-9.0,-8.0,-4.0,-6.0,-5.0
1705080769.5798209,52.0,16.0,4.0,-6.0,-3.0,0.0,0.0,9.0
1705080769.5798209,90.0,39.0,17.0,15.0,9.0,7.0,15.0,37.0
1705080769.5809093,12.0,-25.0,-7.0,3.0,0.0,-1.0,-7.0,-20.0
1705080769.5809093,-62.0,-19.0,-3.0,-2.0,-1.0,-2.0,-5.0,-19.0
1705080769.6021879,104.0,21.0,0.0,-1.0,-2.0,-3.0,-3.0,14.0
1705080769.6021879,32.0,7.0,-6.0,-8.0,-6.0,-6.0,-7.0,-6.0
1705080769.6021879,29.0,8.0,0.0,-1.0,-2.0,1.0,4.0,7.0
1705080769.6021879,-26.0,8.0,8.0,-2.0,0.0,2.0,3.0,10.0
1705080769.6121843,94.0,36.0,5.0,5.0,2.0,1.0,5.0,16.0
1705080769.6121843,-92.0,-63.0,-20.0,-6.0,-6.0,-4.0,-8.0,-32.0
1705080769.625747,-58.0,-12.0,-4.0,-6.0,-4.0,-4.0,-6.0,-11.0
1705080769.625747,-54.0,-18.0,-10.0,2.0,0.0,-1.0,-7.0,-22.0
1705080769.6397529,8.0,11.0,5.0,-4.0,-4.0,-3.0,1.0,8.0
1705080769.6397529,-13.0,-1.0,0.0,-5.0,-3.0,-3.0,-5.0,-3.0
1705080769.646297,-39.0,3.0,-2.0,-1.0,-2.0,-5.0,-1.0,-3.0
1705080769.646297,10.0,2.0,8.0,9.0,7.0,3.0,6.0,12.0
1705080769.662843,-9.0,-4.0,2.0,1.0,1.0,-1.0,-3.0,-12.0
1705080769.662843,9.0,3.0,-4.0,1.0,1.0,1.0,1.0,3.0
1705080769.6638412,-31.0,-7.0,-1.0,-4.0,-3.0,0.0,-2.0,-3.0
1705080769.6638412,6.0,12.0,8.0,-1.0,-1.0,0.0,3.0,17.0
1705080769.6785371,-63.0,-21.0,-3.0,8.0,4.0,3.0,-5.0,-24.0
1705080769.6785371,25.0,14.0,-1.0,-8.0,-6.0,-5.0,-1.0,0.0
1705080769.6785371,100.0,60.0,9.0,4.0,2.0,3.0,9.0,29.0
1705080769.6785371,46.0,-7.0,-8.0,-5.0,0.0,2.0,0.0,-5.0
1705080769.6988356,56.0,6.0,-1.0,-4.0,-3.0,-4.0,0.0,7.0
1705080769.6988356,-32.0,6.0,3.0,-2.0,-4.0,-12.0,-18.0,-5.0
1705080769.6988356,-17.0,-12.0,2.0,2.0,1.0,3.0,2.0,-3.0
1705080769.6988356,-19.0,-11.0,-8.0,-5.0,-6.0,-2.0,-7.0,-9.0
1705080769.7185793,-6.0,3.0,-1.0,-6.0,0.0,11.0,13.0,-4.0
1705080769.7185793,36.0,1.0,-3.0,0.0,0.0,12.0,20.0,6.0
1705080769.7185793,2.0,-20.0,-11.0,-4.0,-16.0,-41.0,-47.0,-7.0
1705080769.7185793,-1.0,3.0,3.0,3.0,12.0,-2.0,3.0,-2.0
1705080769.7285364,-24.0,-24.0,-3.0,0.0,-3.0,-1.0,5.0,-4.0
1705080769.7285364,25.0,32.0,1.0,-6.0,-10.0,-13.0,-13.0,-1.0
1705080769.738537,-68.0,-24.0,-1.0,2.0,10.0,21.0,15.0,-8.0
1705080769.738537,0.0,3.0,2.0,2.0,-6.0,-2.0,-11.0,-1.0
1705080769.758711,-10.0,0.0,-2.0,-1.0,-5.0,-6.0,-8.0,0.0
1705080769.758711,-4.0,-5.0,4.0,1.0,4.0,7.0,9.0,0.0
1705080769.758711,29.0,4.0,3.0,8.0,3.0,7.0,7.0,6.0
1705080769.758711,-28.0,-10.0,-6.0,0.0,-1.0,-3.0,-4.0,-8.0
1705080769.7885406,-26.0,-12.0,-7.0,-10.0,-3.0,1.0,-3.0,-3.0
1705080769.7885406,13.0,-4.0,-5.0,-8.0,-6.0,-1.0,-1.0,-1.0
1705080769.7885406,-59.0,-24.0,1.0,1.0,6.0,5.0,-1.0,-18.0
1705080769.7885406,17.0,3.0,3.0,7.0,0.0,5.0,5.0,7.0
1705080769.7985818,12.0,7.0,-2.0,-1.0,-4.0,-4.0,1.0,3.0
1705080769.7985818,-36.0,-12.0,-2.0,-4.0,-11.0,-5.0,-13.0,-12.0
1705080769.7985818,38.0,4.0,-3.0,-9.0,14.0,-4.0,-1.0,7.0
1705080769.7985818,12.0,10.0,2.0,0.0,5.0,11.0,5.0,4.0
1705080769.8185403,-24.0,0.0,7.0,10.0,2.0,2.0,5.0,2.0
1705080769.8185403,-51.0,-17.0,-4.0,2.0,5.0,-8.0,-11.0,-16.0
1705080769.8185403,7.0,1.0,-2.0,-3.0,-12.0,-8.0,-16.0,-3.0
1705080769.8185403,-4.0,-2.0,-5.0,-4.0,-15.0,-18.0,-7.0,-1.0
1705080769.838538,-1.0,-5.0,-6.0,-8.0,7.0,4.0,1.0,-2.0
1705080769.838538,1.0,-4.0,0.0,0.0,1.0,5.0,11.0,4.0
1705080769.838538,4.0,1.0,2.0,-1.0,1.0,4.0,8.0,-1.0
1705080769.838538,1.0,-5.0,-8.0,-7.0,-7.0,-10.0,-10.0,-1.0
1705080769.8585446,-14.0,-1.0,-2.0,-6.0,-5.0,-12.0,-3.0,-8.0
1705080769.8585446,3.0,0.0,3.0,1.0,-17.0,6.0,4.0,2.0
1705080769.8585446,11.0,3.0,-2.0,7.0,25.0,2.0,2.0,1.0
1705080769.8585446,-8.0,-5.0,1.0,1.0,6.0,5.0,0.0,-3.0
1705080769.8786106,-5.0,-4.0,2.0,4.0,2.0,5.0,-2.0,-3.0
1705080769.8786106,-9.0,-2.0,-3.0,-2.0,11.0,3.0,-1.0,-2.0
1705080769.8786106,3.0,0.0,-9.0,-13.0,-23.0,-26.0,2.0,-1.0
1705080769.8786106,-4.0,-1.0,1.0,-3.0,-8.0,6.0,9.0,0.0
1705080769.9111605,-5.0,-1.0,7.0,12.0,7.0,1.0,-2.0,-4.0
1705080769.9111605,2.0,-1.0,0.0,1.0,8.0,4.0,-5.0,1.0
1705080769.9111605,-2.0,-4.0,-4.0,-7.0,-14.0,-3.0,-5.0,0.0
1705080769.9111605,-2.0,-2.0,-4.0,-7.0,6.0,0.0,-4.0,-4.0
1705080769.9184258,-1.0,-1.0,-2.0,-6.0,-15.0,-9.0,-2.0,-2.0
1705080769.9184258,0.0,2.0,7.0,5.0,3.0,-3.0,4.0,1.0
1705080769.9184258,3.0,3.0,0.0,5.0,7.0,19.0,2.0,1.0
1705080769.9284286,-8.0,-3.0,0.0,0.0,0.0,-4.0,3.0,-4.0
1705080769.9386508,-1.0,-3.0,-6.0,-1.0,3.0,-7.0,-5.0,2.0
1705080769.9386508,-2.0,-3.0,1.0,1.0,-4.0,8.0,-2.0,-2.0
1705080769.9684267,0.0,-1.0,-1.0,-1.0,-1.0,-11.0,7.0,0.0
1705080769.9684267,-2.0,-1.0,0.0,-3.0,7.0,12.0,-4.0,-4.0
1705080769.9684267,-3.0,-2.0,-1.0,-1.0,-13.0,-14.0,-3.0,0.0
1705080769.9684267,0.0,0.0,-1.0,-5.0,2.0,-4.0,-1.0,0.0
1705080769.9684267,-1.0,-5.0,-8.0,-6.0,-8.0,-1.0,2.0,-2.0
1705080769.9684267,-1.0,3.0,2.0,2.0,-11.0,-8.0,2.0,0.0
1705080769.978602,-2.0,-2.0,1.0,2.0,-3.0,5.0,-5.0,0.0
1705080769.978602,-1.0,-2.0,-3.0,-2.0,20.0,7.0,10.0,2.0
1705080769.978602,0.0,0.0,1.0,-2.0,-12.0,-12.0,-24.0,-4.0
1705080769.978602,0.0,0.0,1.0,7.0,11.0,6.0,4.0,2.0
1705080770.008421,-4.0,-2.0,-1.0,-5.0,-5.0,1.0,-2.0,-2.0
1705080770.008421,0.0,2.0,-2.0,-1.0,-13.0,-8.0,-1.0,-1.0
1705080770.008421,1.0,2.0,2.0,1.0,17.0,15.0,14.0,2.0
1705080770.008421,-2.0,-10.0,0.0,0.0,-6.0,-8.0,-17.0,-2.0
1705080770.01873,0.0,-3.0,-7.0,-5.0,-3.0,0.0,0.0,-3.0
1705080770.01873,-2.0,5.0,-4.0,-7.0,4.0,-2.0,-5.0,-1.0
1705080770.01873,2.0,2.0,-7.0,2.0,-1.0,9.0,8.0,2.0
1705080770.01873,1.0,5.0,9.0,-1.0,-6.0,-13.0,-1.0,0.0
1705080770.0387254,-4.0,-12.0,-2.0,-2.0,6.0,-2.0,-3.0,-3.0
1705080770.0387254,-1.0,-4.0,-4.0,0.0,-21.0,-2.0,-6.0,0.0
1705080770.0387254,-1.0,-4.0,0.0,-5.0,8.0,5.0,2.0,-1.0
1705080770.0387254,0.0,-7.0,-5.0,2.0,11.0,9.0,-3.0,-1.0
1705080770.0584204,-3.0,7.0,0.0,-6.0,6.0,0.0,0.0,-1.0
1705080770.0584204,-1.0,-8.0,0.0,3.0,-11.0,-15.0,-3.0,-1.0
1705080770.0584204,0.0,13.0,1.0,-2.0,-10.0,2.0,-3.0,-3.0
1705080770.0584204,-3.0,-12.0,-4.0,-4.0,1.0,3.0,11.0,-1.0
1705080770.078688,2.0,-3.0,5.0,4.0,-17.0,0.0,-5.0,2.0
1705080770.078688,0.0,6.0,-1.0,0.0,11.0,-5.0,-5.0,-3.0
1705080770.0884216,0.0,-3.0,-2.0,-3.0,5.0,5.0,3.0,0.0
1705080770.0884216,-1.0,5.0,-2.0,-2.0,-2.0,-3.0,4.0,0.0
1705080770.0986836,-3.0,4.0,-2.0,0.0,-2.0,-1.0,7.0,-1.0
1705080770.0986836,-3.0,-7.0,-4.0,0.0,-2.0,-1.0,-19.0,-3.0
1705080770.0986836,0.0,-2.0,2.0,-2.0,4.0,-10.0,-3.0,1.0
1705080770.0986836,-2.0,-3.0,-2.0,-3.0,-9.0,-1.0,5.0,-1.0
1705080770.1184201,-1.0,1.0,-7.0,-1.0,8.0,1.0,-6.0,-1.0
1705080770.1184201,0.0,0.0,7.0,1.0,-1.0,3.0,4.0,1.0
1705080770.1184201,-2.0,-1.0,4.0,4.0,-5.0,-3.0,1.0,-2.0
1705080770.1184201,-2.0,-2.0,-6.0,-2.0,3.0,6.0,-4.0,-3.0
1705080770.138763,4.0,3.0,0.0,2.0,1.0,-5.0,0.0,1.0
1705080770.138763,-5.0,-7.0,-6.0,-3.0,-5.0,0.0,0.0,-3.0
1705080770.138763,-2.0,-8.0,-5.0,-2.0,2.0,3.0,-2.0,-2.0
1705080770.138763,-3.0,1.0,4.0,-4.0,-10.0,-12.0,0.0,-2.0
1705080770.1587586,1.0,-4.0,-2.0,2.0,6.0,7.0,-6.0,-1.0
1705080770.1587586,4.0,16.0,4.0,0.0,-1.0,2.0,7.0,0.0
1705080770.1587586,-1.0,-2.0,-1.0,3.0,-5.0,1.0,-3.0,0.0
1705080770.1587586,0.0,2.0,0.0,3.0,6.0,1.0,-1.0,0.0
1705080770.1784208,-3.0,-19.0,-3.0,-5.0,-7.0,-7.0,2.0,1.0
1705080770.1784208,-1.0,1.0,-6.0,-4.0,7.0,6.0,-1.0,0.0
1705080770.1784208,2.0,6.0,1.0,1.0,-3.0,1.0,5.0,1.0
1705080770.1784208,0.0,2.0,0.0,0.0,1.0,1.0,-12.0,-1.0
1705080770.198589,1.0,5.0,3.0,-2.0,-1.0,2.0,0.0,-1.0
1705080770.198589,1.0,-6.0,0.0,0.0,-20.0,-9.0,4.0,0.0
1705080770.198589,-2.0,-6.0,-2.0,-1.0,17.0,8.0,-1.0,-2.0
1705080770.198589,0.0,6.0,0.0,-2.0,-2.0,-2.0,2.0,0.0
1705080770.2384226,-4.0,1.0,-3.0,-6.0,-4.0,3.0,-4.0,-5.0
1705080770.2384226,-3.0,-4.0,-2.0,1.0,2.0,-3.0,-1.0,-1.0
1705080770.2384226,-2.0,-3.0,2.0,3.0,-9.0,-3.0,-2.0,0.0
1705080770.2384226,0.0,-1.0,-2.0,0.0,3.0,-2.0,0.0,-1.0
1705080770.2384226,0.0,4.0,-3.0,1.0,3.0,-3.0,-4.0,1.0
1705080770.2384226,-2.0,-3.0,-6.0,-7.0,-7.0,-7.0,1.0,-3.0
1705080770.248449,-4.0,-2.0,0.0,-6.0,0.0,3.0,-2.0,-5.0
1705080770.248449,0.0,0.0,5.0,11.0,2.0,0.0,3.0,1.0
1705080770.2587142,-2.0,2.0,-5.0,-6.0,-3.0,-4.0,-2.0,1.0
1705080770.2587142,0.0,-4.0,0.0,-3.0,4.0,0.0,-1.0,0.0
1705080770.2587142,2.0,2.0,3.0,4.0,-4.0,-5.0,2.0,-1.0
1705080770.2587142,-4.0,-7.0,-6.0,-10.0,-4.0,-2.0,-6.0,-3.0
1705080770.2884219,0.0,2.0,-1.0,-1.0,-7.0,-4.0,2.0,-1.0
1705080770.2884219,-1.0,1.0,6.0,9.0,27.0,15.0,1.0,1.0
1705080770.2884219,-1.0,-7.0,1.0,-3.0,-24.0,-12.0,-4.0,0.0
1705080770.2884219,0.0,8.0,1.0,-3.0,11.0,1.0,3.0,-2.0
1705080770.2984219,-7.0,-13.0,-11.0,-7.0,0.0,-6.0,-3.0,-4.0
1705080770.2984219,-2.0,-5.0,-3.0,-4.0,-30.0,-10.0,-4.0,-2.0
1705080770.2984219,-2.0,7.0,2.0,4.0,28.0,13.0,0.0,-2.0
1705080770.2984219,0.0,-2.0,-1.0,3.0,-4.0,3.0,5.0,-3.0
1705080770.3186777,-1.0,0.0,0.0,-3.0,-4.0,-10.0,-17.0,-2.0
1705080770.3186777,0.0,1.0,-5.0,-6.0,2.0,-3.0,2.0,-1.0
1705080770.3186777,-1.0,0.0,-2.0,4.0,-7.0,-4.0,1.0,0.0
1705080770.3186777,1.0,-3.0,-4.0,-7.0,-11.0,-7.0,-1.0,0.0
1705080770.3484218,0.0,3.0,1.0,4.0,6.0,7.0,3.0,-2.0
1705080770.3484218,0.0,-3.0,4.0,3.0,4.0,0.0,-1.0,-2.0
1705080770.3484218,-2.0,-1.0,-3.0,-5.0,-6.0,-3.0,-3.0,-2.0
1705080770.3484218,-1.0,-3.0,1.0,0.0,1.0,1.0,-1.0,0.0
1705080770.3484218,-3.0,-2.0,0.0,-1.0,-4.0,2.0,0.0,0.0
1705080770.3484218,-2.0,11.0,-1.0,0.0,-3.0,-5.0,-4.0,0.0
1705080770.3584208,-1.0,-5.0,-7.0,1.0,6.0,8.0,6.0,1.0
1705080770.3584208,-1.0,1.0,-4.0,-4.0,-8.0,-5.0,-2.0,1.0
1705080770.378764,-1.0,-2.0,1.0,-1.0,8.0,0.0,2.0,3.0
1705080770.378764,0.0,2.0,-1.0,5.0,5.0,-2.0,-2.0,-1.0
1705080770.378764,-2.0,-4.0,-1.0,-3.0,-17.0,0.0,-1.0,-1.0
1705080770.378764,-3.0,2.0,-2.0,0.0,11.0,-4.0,-5.0,-1.0
1705080770.3986974,1.0,6.0,-1.0,-6.0,-10.0,-9.0,3.0,-2.0
1705080770.3986974,0.0,1.0,3.0,-2.0,11.0,5.0,-3.0,-1.0
1705080770.3986974,-1.0,-8.0,-8.0,-8.0,-9.0,5.0,3.0,-2.0
1705080770.3986974,-1.0,3.0,2.0,0.0,-9.0,-10.0,-15.0,-1.0
1705080770.4184227,-3.0,-6.0,5.0,3.0,4.0,6.0,3.0,-1.0
1705080770.4184227,-3.0,-5.0,-4.0,-1.0,-2.0,-3.0,2.0,-1.0
1705080770.4264915,-2.0,-2.0,-3.0,-7.0,-13.0,-14.0,-1.0,-1.0
1705080770.4264915,3.0,-1.0,2.0,2.0,5.0,6.0,4.0,3.0
1705080770.4421709,2.0,5.0,3.0,2.0,4.0,5.0,-1.0,-6.0
1705080770.4421709,-6.0,-14.0,0.0,-2.0,-5.0,-5.0,-1.0,-2.0
1705080770.443133,-3.0,3.0,-6.0,-1.0,2.0,-2.0,-6.0,-1.0
1705080770.443133,-1.0,-2.0,2.0,5.0,-1.0,4.0,5.0,-1.0
1705080770.4628472,-2.0,-2.0,-4.0,0.0,-2.0,-4.0,-4.0,2.0
1705080770.4628472,-2.0,3.0,-5.0,-5.0,1.0,0.0,-1.0,-5.0
1705080770.4628472,0.0,0.0,5.0,4.0,-1.0,-4.0,-3.0,-2.0
1705080770.4628472,-2.0,-10.0,-10.0,-8.0,-4.0,0.0,-2.0,0.0
1705080770.47311,0.0,3.0,2.0,-1.0,1.0,0.0,1.0,-2.0
1705080770.47311,-3.0,-4.0,-2.0,-2.0,-2.0,-5.0,-3.0,-3.0
1705080770.4830906,-2.0,0.0,0.0,-1.0,-4.0,0.0,-2.0,0.0
1705080770.4830906,-2.0,0.0,-3.0,-1.0,11.0,2.0,-1.0,-3.0
1705080770.4927516,-3.0,-1.0,2.0,1.0,-1.0,-1.0,2.0,-1.0
1705080770.502798,0.0,2.0,2.0,1.0,-4.0,-1.0,4.0,2.0
1705080770.502798,-2.0,0.0,1.0,-4.0,-4.0,-4.0,-8.0,-2.0
1705080770.502798,-1.0,-2.0,-3.0,-3.0,-6.0,-3.0,1.0,0.0
1705080770.5227766,-1.0,-1.0,-7.0,0.0,-4.0,-1.0,2.0,1.0
1705080770.5227766,1.0,0.0,-2.0,0.0,3.0,4.0,-2.0,0.0
1705080770.5227766,0.0,-1.0,2.0,2.0,0.0,0.0,2.0,2.0
1705080770.5227766,-1.0,-4.0,2.0,-9.0,3.0,0.0,-2.0,-1.0
1705080770.5329673,-4.0,-3.0,-2.0,-3.0,0.0,0.0,-2.0,-1.0
1705080770.5329673,0.0,4.0,3.0,6.0,1.0,2.0,0.0,1.0
1705080770.543071,-1.0,1.0,-3.0,1.0,5.0,1.0,0.0,-3.0
1705080770.543071,-3.0,-9.0,-1.0,-1.0,-8.0,-6.0,-1.0,-4.0
1705080770.5533385,2.0,3.0,-9.0,-5.0,-1.0,2.0,0.0,0.0
1705080770.5533385,-2.0,-4.0,-1.0,-6.0,-1.0,0.0,-1.0,2.0
1705080770.5630937,1.0,-4.0,4.0,6.0,-2.0,-9.0,-3.0,0.0
1705080770.5630937,0.0,5.0,-1.0,4.0,5.0,6.0,8.0,1.0
1705080770.5830886,-1.0,-5.0,-1.0,-1.0,-2.0,-4.0,-7.0,-3.0
1705080770.5830886,-2.0,0.0,-2.0,-4.0,-8.0,-2.0,3.0,0.0
1705080770.5830886,-1.0,-1.0,-8.0,-15.0,-17.0,-6.0,-12.0,3.0
1705080770.5830886,-2.0,-3.0,-7.0,-2.0,10.0,1.0,6.0,-7.0
1705080770.5931253,-2.0,4.0,17.0,11.0,3.0,-1.0,-9.0,-2.0
1705080770.5931253,0.0,-1.0,-3.0,-1.0,-3.0,1.0,2.0,-2.0
1705080770.6033947,-1.0,-1.0,-2.0,2.0,15.0,7.0,5.0,1.0
1705080770.6033947,-1.0,0.0,1.0,1.0,-10.0,-4.0,-1.0,2.0
1705080770.6134686,0.0,-1.0,-7.0,-8.0,-4.0,-3.0,0.0,-4.0
1705080770.6134686,-1.0,-3.0,1.0,5.0,-1.0,-3.0,-4.0,-3.0
1705080770.6230896,-1.0,4.0,6.0,3.0,8.0,4.0,1.0,-1.0
1705080770.6230896,-1.0,-4.0,-1.0,-2.0,-10.0,-13.0,-3.0,0.0
1705080770.643498,0.0,-6.0,-8.0,-5.0,7.0,10.0,0.0,0.0
1705080770.643498,-2.0,3.0,0.0,-3.0,2.0,1.0,-4.0,-1.0
1705080770.643498,0.0,0.0,1.0,-3.0,1.0,-1.0,0.0,0.0
1705080770.643498,-1.0,3.0,3.0,2.0,2.0,0.0,-3.0,0.0
1705080770.6535168,-1.0,2.0,1.0,-3.0,-15.0,-9.0,-1.0,-5.0
1705080770.6535168,0.0,0.0,-6.0,-6.0,5.0,-2.0,0.0,0.0
1705080770.6730893,-1.0,2.0,2.0,4.0,-12.0,-2.0,5.0,-2.0
1705080770.6730893,0.0,2.0,6.0,3.0,7.0,-1.0,-7.0,-1.0
1705080770.683088,1.0,-2.0,5.0,-2.0,-6.0,-4.0,-3.0,10.0
1705080770.683088,-1.0,0.0,-6.0,2.0,8.0,8.0,-4.0,-12.0
1705080770.683088,-6.0,-5.0,-7.0,-3.0,0.0,-11.0,-2.0,-7.0
1705080770.683088,-2.0,2.0,-1.0,-1.0,-7.0,3.0,-1.0,0.0
1705080770.7034276,1.0,-4.0,4.0,-1.0,-8.0,7.0,9.0,2.0
1705080770.7034276,-5.0,-8.0,-4.0,-1.0,6.0,-5.0,-4.0,-1.0
1705080770.7034276,1.0,2.0,-3.0,1.0,4.0,5.0,2.0,1.0
1705080770.7034276,-3.0,-8.0,-3.0,1.0,-16.0,-6.0,-1.0,3.0
1705080770.723443,-1.0,3.0,-2.0,-3.0,20.0,3.0,-2.0,-16.0
1705080770.723443,0.0,-10.0,1.0,-2.0,-8.0,-3.0,-1.0,4.0
1705080770.723443,-2.0,0.0,1.0,0.0,3.0,1.0,-1.0,-5.0
1705080770.723443,0.0,-4.0,-7.0,-3.0,2.0,2.0,2.0,1.0
1705080770.7530866,-1.0,-1.0,3.0,-2.0,-13.0,-8.0,-2.0,1.0
1705080770.7530866,0.0,-1.0,-2.0,-5.0,8.0,-3.0,-3.0,0.0
1705080770.7530866,0.0,4.0,-7.0,-1.0,1.0,0.0,-2.0,-4.0
1705080770.7530866,0.0,5.0,2.0,-3.0,-6.0,-2.0,-3.0,0.0
1705080770.7634788,-4.0,-9.0,-9.0,-1.0,-1.0,-4.0,1.0,0.0
1705080770.7634788,0.0,-2.0,5.0,1.0,-6.0,-2.0,0.0,0.0
1705080770.7634788,-1.0,1.0,1.0,0.0,-2.0,3.0,-3.0,0.0
1705080770.7634788,-1.0,1.0,1.0,1.0,1.0,-9.0,-3.0,-4.0
1705080770.7835228,-1.0,-1.0,-2.0,-1.0,2.0,3.0,-1.0,-2.0
1705080770.7835228,0.0,2.0,-1.0,5.0,3.0,0.0,1.0,4.0
1705080770.7835228,0.0,-4.0,-2.0,-7.0,-5.0,-3.0,-1.0,1.0
1705080770.7835228,-1.0,2.0,0.0,-1.0,-5.0,0.0,0.0,-3.0
1705080770.7930887,-2.0,-1.0,2.0,-1.0,4.0,0.0,-3.0,0.0
1705080770.7930887,0.0,2.0,4.0,8.0,-5.0,-7.0,1.0,0.0
1705080770.8030877,-2.0,-6.0,-4.0,-4.0,-4.0,2.0,-4.0,-2.0
1705080770.8030877,0.0,1.0,1.0,-2.0,4.0,6.0,-1.0,0.0
1705080770.8234246,-2.0,-4.0,-7.0,-2.0,-1.0,-3.0,4.0,-3.0
1705080770.8234246,-2.0,0.0,2.0,-1.0,-5.0,4.0,-8.0,-1.0
1705080770.8234246,-1.0,1.0,-3.0,-6.0,2.0,-3.0,2.0,-1.0
1705080770.8234246,-2.0,-6.0,-5.0,-4.0,-3.0,-1.0,-4.0,-2.0
1705080770.8435352,1.0,3.0,5.0,8.0,3.0,-1.0,-2.0,2.0
1705080770.8435352,-1.0,1.0,-5.0,-3.0,1.0,4.0,3.0,-1.0
1705080770.8530877,0.0,-5.0,2.0,3.0,-10.0,-3.0,-1.0,2.0
1705080770.8530877,-1.0,2.0,-5.0,-7.0,9.0,4.0,-2.0,0.0
1705080770.8632543,-2.0,-1.0,-2.0,-4.0,-5.0,-1.0,-1.0,-1.0
1705080770.8632543,-2.0,-3.0,-2.0,-3.0,2.0,5.0,-2.0,-5.0
1705080770.8632543,1.0,-1.0,4.0,5.0,-10.0,-7.0,-2.0,1.0
1705080770.8632543,1.0,-1.0,-2.0,-1.0,5.0,4.0,-1.0,-2.0
1705080770.883419,0.0,0.0,1.0,2.0,-9.0,-8.0,-1.0,0.0
1705080770.883419,-3.0,0.0,-2.0,-8.0,17.0,5.0,2.0,-1.0
1705080770.883419,1.0,-2.0,-2.0,-3.0,-3.0,-6.0,2.0,0.0
1705080770.883419,-4.0,-12.0,-8.0,-6.0,-9.0,-6.0,1.0,-3.0
1705080770.9130886,1.0,5.0,0.0,1.0,11.0,9.0,-2.0,1.0
1705080770.9130886,1.0,2.0,-1.0,2.0,-11.0,-8.0,-2.0,0.0
1705080770.9130886,0.0,-3.0,1.0,0.0,6.0,2.0,1.0,-1.0
1705080770.9130886,2.0,3.0,-1.0,1.0,-1.0,-3.0,3.0,1.0
1705080770.9130886,-3.0,-5.0,-6.0,-7.0,-7.0,0.0,-12.0,-2.0
1705080770.9130886,-1.0,-5.0,-6.0,-8.0,-4.0,4.0,2.0,-2.0
1705080770.923411,-1.0,3.0,5.0,3.0,6.0,-4.0,-2.0,-3.0
1705080770.923411,-1.0,-4.0,-1.0,4.0,4.0,12.0,1.0,-2.0
1705080770.9438753,0.0,1.0,-6.0,-1.0,-5.0,-7.0,-5.0,-1.0
1705080770.944875,2.0,2.0,1.0,0.0,0.0,-4.0,-2.0,0.0
1705080770.946294,-3.0,-8.0,-4.0,-2.0,1.0,-3.0,-3.0,0.0
1705080770.946294,2.0,2.0,5.0,3.0,-2.0,2.0,-1.0,3.0
1705080770.966226,-3.0,-3.0,-4.0,-4.0,1.0,5.0,5.0,-3.0
1705080770.9671245,-5.0,-2.0,-2.0,-3.0,-7.0,-7.0,-4.0,-5.0
1705080770.9678926,0.0,1.0,3.0,-4.0,-4.0,-1.0,0.0,0.0
1705080770.9678926,-3.0,2.0,-6.0,5.0,5.0,6.0,0.0,-2.0
1705080770.987926,3.0,2.0,12.0,14.0,8.0,-4.0,2.0,4.0
1705080770.987926,0.0,0.0,-2.0,-4.0,-4.0,-4.0,-1.0,-1.0
1705080770.987926,-2.0,-9.0,-8.0,-5.0,6.0,7.0,-3.0,1.0
1705080770.987926,-1.0,3.0,-1.0,-8.0,-7.0,-5.0,-3.0,-7.0
1705080770.9981863,-3.0,-3.0,-6.0,-7.0,-3.0,-3.0,-3.0,0.0
1705080770.9981863,-1.0,-2.0,-1.0,2.0,-4.0,-2.0,-2.0,0.0
1705080770.9981863,0.0,1.0,2.0,3.0,0.0,-3.0,0.0,1.0
1705080770.9981863,0.0,-3.0,0.0,-1.0,-3.0,-2.0,0.0,-1.0
1705080771.0178933,1.0,0.0,-1.0,-3.0,0.0,4.0,-3.0,-2.0
1705080771.0178933,-1.0,0.0,5.0,1.0,-2.0,3.0,2.0,1.0
1705080771.0280137,-1.0,-1.0,-1.0,5.0,2.0,0.0,0.0,-1.0
1705080771.0280137,0.0,2.0,3.0,5.0,0.0,5.0,2.0,1.0
1705080771.0381753,0.0,-5.0,-6.0,-7.0,-7.0,-4.0,1.0,-3.0
1705080771.0381753,-3.0,-2.0,-7.0,-8.0,-1.0,5.0,-3.0,-1.0
1705080771.0482283,-3.0,0.0,1.0,-8.0,-4.0,-5.0,-5.0,-2.0
1705080771.0482283,-1.0,1.0,-1.0,-3.0,0.0,-3.0,2.0,-1.0
1705080771.0679197,2.0,5.0,14.0,14.0,-4.0,-7.0,0.0,1.0
1705080771.0679197,-2.0,-13.0,-7.0,-2.0,-1.0,-4.0,-12.0,-2.0
1705080771.0679197,2.0,0.0,-6.0,-4.0,0.0,-2.0,-3.0,0.0
1705080771.0679197,-6.0,-2.0,-3.0,-10.0,-6.0,-5.0,-4.0,-12.0
1705080771.0782104,-1.0,-2.0,-5.0,-3.0,3.0,3.0,-1.0,-1.0
1705080771.0782104,1.0,2.0,5.0,5.0,-3.0,-4.0,4.0,-1.0
1705080771.0879307,0.0,0.0,-8.0,-3.0,1.0,2.0,1.0,1.0
1705080771.0879307,2.0,-1.0,6.0,5.0,0.0,1.0,-3.0,7.0
1705080771.0982244,-3.0,-1.0,-1.0,-1.0,0.0,1.0,2.0,-8.0
1705080771.0982244,-3.0,-1.0,1.0,1.0,-7.0,-3.0,-1.0,2.0
1705080771.1082554,-3.0,-2.0,-7.0,-3.0,10.0,2.0,0.0,-1.0
1705080771.1082554,-2.0,0.0,2.0,0.0,-3.0,-5.0,-5.0,-1.0
1705080771.1278934,-1.0,0.0,-2.0,3.0,4.0,9.0,2.0,3.0
1705080771.1278934,0.0,1.0,-1.0,-4.0,-6.0,-15.0,-3.0,0.0
1705080771.1278934,0.0,-3.0,2.0,1.0,-6.0,-1.0,1.0,-2.0
1705080771.1278934,-1.0,-2.0,1.0,1.0,0.0,-3.0,-1.0,-1.0
1705080771.1382458,-2.0,1.0,0.0,-5.0,-2.0,-2.0,0.0,1.0
1705080771.1382458,-1.0,0.0,-1.0,-8.0,-2.0,2.0,2.0,-4.0
1705080771.1482694,-1.0,-1.0,0.0,10.0,4.0,-1.0,0.0,1.0
1705080771.1482694,-1.0,-1.0,-2.0,-2.0,1.0,1.0,-2.0,0.0
1705080771.1584723,-1.0,-4.0,-3.0,-2.0,0.0,4.0,-3.0,1.0
1705080771.1584723,0.0,-1.0,2.0,3.0,-7.0,-7.0,3.0,-1.0
1705080771.1683166,-3.0,0.0,-1.0,-5.0,1.0,-1.0,-2.0,-4.0
1705080771.1683166,-1.0,-3.0,-4.0,-4.0,-4.0,-1.0,-3.0,0.0
1705080771.19831,-2.0,-1.0,-3.0,-2.0,-2.0,-9.0,0.0,-2.0
1705080771.19831,-1.0,2.0,2.0,4.0,8.0,11.0,-1.0,2.0
1705080771.19831,-1.0,-2.0,3.0,0.0,-4.0,-1.0,-5.0,-4.0
1705080771.19831,-5.0,-9.0,-8.0,-5.0,-3.0,-3.0,-3.0,-7.0
1705080771.19831,-2.0,0.0,1.0,0.0,2.0,-1.0,0.0,-4.0
1705080771.19831,-2.0,-3.0,-5.0,-3.0,0.0,4.0,1.0,-5.0
1705080771.2083738,1.0,3.0,5.0,2.0,-3.0,-12.0,1.0,8.0
1705080771.2083738,5.0,1.0,-3.0,1.0,6.0,8.0,4.0,4.0
1705080771.2187595,-2.0,-2.0,0.0,-6.0,-12.0,-18.0,-12.0,0.0
1705080771.2187595,-3.0,-1.0,-3.0,0.0,-1.0,-5.0,-11.0,-5.0
1705080771.2287023,-1.0,-3.0,-6.0,-5.0,-2.0,6.0,1.0,-5.0
1705080771.2287023,0.0,0.0,-1.0,-2.0,-1.0,-4.0,1.0,2.0
1705080771.2383249,3.0,2.0,0.0,2.0,3.0,5.0,5.0,5.0
1705080771.2383249,-2.0,1.0,1.0,-4.0,2.0,1.0,2.0,0.0
1705080771.2383249,-2.0,-2.0,-4.0,-1.0,0.0,1.0,-3.0,-2.0
1705080771.2383249,-1.0,0.0,0.0,-2.0,-5.0,-12.0,0.0,0.0
1705080771.2586098,0.0,0.0,0.0,-1.0,0.0,5.0,-1.0,3.0
1705080771.2586098,-3.0,-7.0,-5.0,-2.0,1.0,3.0,1.0,-8.0
1705080771.2683694,-2.0,-1.0,-5.0,-3.0,-6.0,-4.0,-2.0,-9.0
1705080771.2683694,2.0,2.0,2.0,1.0,0.0,6.0,1.0,1.0
1705080771.2786307,-1.0,1.0,2.0,0.0,-4.0,-7.0,2.0,2.0
1705080771.2786307,-1.0,1.0,0.0,4.0,10.0,8.0,-8.0,0.0
1705080771.2983286,2.0,1.0,4.0,0.0,-10.0,-10.0,3.0,2.0
1705080771.2983286,-1.0,2.0,-4.0,-5.0,-2.0,-7.0,0.0,-4.0
1705080771.2983286,-5.0,-6.0,-9.0,-5.0,3.0,5.0,-1.0,-4.0
1705080771.2983286,-2.0,-2.0,1.0,-1.0,0.0,-4.0,1.0,4.0
1705080771.3084357,-3.0,0.0,1.0,0.0,1.0,6.0,-3.0,-2.0
1705080771.3084357,-1.0,0.0,3.0,3.0,-1.0,-5.0,-3.0,0.0
1705080771.3186343,-2.0,-3.0,-2.0,-5.0,0.0,2.0,2.0,-3.0
1705080771.3186343,1.0,1.0,1.0,1.0,-5.0,-2.0,2.0,0.0
1705080771.328369,-3.0,-7.0,-5.0,-4.0,-2.0,-2.0,-1.0,3.0
1705080771.328369,-1.0,2.0,1.0,0.0,-1.0,-1.0,-1.0,-5.0
1705080771.3386664,-1.0,-2.0,-4.0,-1.0,1.0,3.0,-2.0,-5.0
1705080771.3386664,-1.0,-3.0,-4.0,-1.0,-1.0,-4.0,1.0,-1.0
1705080771.3583236,-2.0,2.0,0.0,2.0,-3.0,-5.0,-2.0,1.0
1705080771.3583236,-1.0,-1.0,-1.0,0.0,1.0,4.0,-3.0,-3.0
1705080771.3583236,-2.0,-2.0,-2.0,-2.0,-1.0,6.0,0.0,-2.0
1705080771.3583236,1.0,1.0,3.0,0.0,-1.0,-6.0,-3.0,5.0
1705080771.3583236,1.0,-2.0,-6.0,-4.0,2.0,7.0,3.0,-4.0
1705080771.3583236,-3.0,-6.0,-6.0,-6.0,-6.0,-4.0,3.0,-1.0
1705080771.378715,0.0,0.0,5.0,9.0,2.0,0.0,-8.0,4.0
1705080771.378715,1.0,0.0,-2.0,-6.0,7.0,-1.0,-2.0,-3.0
1705080771.388779,-4.0,-1.0,4.0,0.0,-1.0,1.0,0.0,-6.0
1705080771.388779,-2.0,0.0,-8.0,-1.0,-6.0,-2.0,-6.0,-6.0
1705080771.3989854,-1.0,0.0,-5.0,-3.0,-4.0,-8.0,3.0,2.0
1705080771.3989854,-1.0,0.0,4.0,4.0,0.0,2.0,2.0,5.0
1705080771.4187303,0.0,-1.0,4.0,3.0,-1.0,-4.0,3.0,-2.0
1705080771.4187303,0.0,-1.0,-1.0,-3.0,2.0,0.0,-5.0,-1.0
1705080771.4187303,-1.0,-1.0,-6.0,-6.0,-6.0,-9.0,2.0,1.0
1705080771.4187303,0.0,-1.0,-2.0,-1.0,-5.0,-1.0,-1.0,-8.0
1705080771.4187303,1.0,0.0,-1.0,-2.0,-1.0,1.0,-2.0,3.0
1705080771.4187303,-1.0,0.0,3.0,2.0,1.0,2.0,-1.0,1.0
1705080771.4395843,0.0,-1.0,-2.0,-3.0,1.0,1.0,-3.0,-3.0
1705080771.4395843,0.0,-3.0,-6.0,-6.0,-3.0,-4.0,1.0,0.0
1705080771.4395843,2.0,3.0,3.0,2.0,3.0,5.0,-2.0,0.0
1705080771.4395843,0.0,0.0,-1.0,4.0,2.0,-3.0,-1.0,2.0
1705080771.4591827,-2.0,-3.0,-2.0,0.0,-2.0,0.0,-2.0,-2.0
1705080771.4591827,-3.0,-1.0,-5.0,-5.0,-4.0,-2.0,0.0,-2.0
1705080771.469179,-1.0,-1.0,-1.0,-4.0,-2.0,-1.0,-3.0,-2.0
1705080771.469179,-2.0,-3.0,-2.0,-8.0,1.0,6.0,0.0,2.0
1705080771.4843743,1.0,5.0,6.0,5.0,0.0,-11.0,3.0,-2.0
1705080771.4843743,1.0,-5.0,-4.0,11.0,10.0,15.0,3.0,5.0
1705080771.4864104,0.0,0.0,-3.0,-4.0,0.0,-11.0,-7.0,-6.0
1705080771.4864104,-3.0,0.0,2.0,-1.0,-5.0,-12.0,6.0,-3.0
1705080771.5003119,-1.0,1.0,3.0,-3.0,1.0,3.0,-4.0,-1.0
1705080771.5003119,-1.0,0.0,-2.0,-6.0,-9.0,-10.0,2.0,0.0
1705080771.5003119,-2.0,-2.0,-5.0,-3.0,-1.0,-1.0,-1.0,2.0
1705080771.5003119,2.0,-2.0,-1.0,-2.0,-1.0,3.0,-1.0,0.0
1705080771.5203152,0.0,-1.0,-1.0,-3.0,-3.0,-4.0,2.0,-1.0
1705080771.5203152,-1.0,0.0,0.0,1.0,-3.0,-4.0,-4.0,-4.0
1705080771.5203152,-2.0,1.0,-6.0,4.0,-3.0,2.0,-1.0,0.0
1705080771.5203152,0.0,-3.0,2.0,3.0,7.0,-3.0,-3.0,-1.0
1705080771.5403666,-3.0,-4.0,-2.0,-2.0,2.0,7.0,-1.0,-1.0
1705080771.5403666,0.0,4.0,0.0,-6.0,-7.0,-5.0,2.0,3.0
1705080771.5403666,-4.0,-11.0,-8.0,-5.0,-3.0,1.0,-3.0,-7.0
1705080771.5403666,-3.0,1.0,1.0,1.0,-4.0,-2.0,-1.0,-1.0
1705080771.5607233,-2.0,-1.0,-2.0,0.0,1.0,1.0,-1.0,-2.0
1705080771.5607233,-2.0,-4.0,0.0,-3.0,1.0,4.0,0.0,-4.0
1705080771.5607233,-1.0,2.0,2.0,-5.0,-4.0,-7.0,1.0,2.0
1705080771.5607233,-1.0,-1.0,-2.0,-1.0,-4.0,-1.0,-2.0,1.0
1705080771.5804284,1.0,-3.0,-2.0,7.0,6.0,4.0,3.0,-1.0
1705080771.5804284,-3.0,1.0,-2.0,0.0,3.0,3.0,-2.0,-2.0
1705080771.5903661,-1.0,2.0,7.0,2.0,0.0,0.0,0.0,2.0
1705080771.5903661,0.0,-2.0,-6.0,-4.0,1.0,-2.0,-4.0,-1.0
1705080771.6006086,0.0,0.0,-1.0,-6.0,-8.0,-6.0,-3.0,-2.0
1705080771.6006086,-3.0,-1.0,1.0,0.0,-3.0,-3.0,-2.0,-1.0
1705080771.6006086,0.0,0.0,0.0,2.0,4.0,3.0,0.0,0.0
1705080771.6006086,-1.0,1.0,3.0,1.0,-3.0,-1.0,1.0,0.0
1705080771.630364,-1.0,0.0,-1.0,-1.0,-5.0,-1.0,-2.0,-1.0
1705080771.630364,0.0,-5.0,-6.0,-2.0,10.0,7.0,3.0,1.0
1705080771.630364,-3.0,0.0,-1.0,-6.0,-8.0,-4.0,-15.0,-1.0
1705080771.630364,0.0,1.0,5.0,6.0,3.0,1.0,-1.0,-6.0
1705080771.6407297,-2.0,0.0,-3.0,0.0,-1.0,6.0,1.0,-2.0
1705080771.6503742,-4.0,-4.0,-4.0,-3.0,-6.0,-6.0,-2.0,-3.0
1705080771.6503742,-2.0,0.0,-3.0,-5.0,-3.0,-3.0,-4.0,-2.0
1705080771.6503742,1.0,-5.0,-7.0,-2.0,-1.0,2.0,1.0,5.0
1705080771.660745,-1.0,-1.0,2.0,3.0,-3.0,-3.0,-2.0,-8.0
1705080771.660745,-3.0,-3.0,-3.0,-2.0,-9.0,2.0,-4.0,3.0
1705080771.660745,0.0,1.0,6.0,3.0,6.0,-2.0,3.0,1.0
1705080771.660745,-4.0,-3.0,-9.0,-8.0,-4.0,-2.0,-6.0,-5.0
1705080771.6803644,0.0,-1.0,-1.0,-4.0,1.0,-3.0,1.0,1.0
1705080771.6803644,2.0,2.0,4.0,5.0,-3.0,-7.0,1.0,0.0
1705080771.6803644,-1.0,-2.0,1.0,1.0,-2.0,-2.0,2.0,-3.0
1705080771.6803644,0.0,-1.0,-1.0,-3.0,2.0,13.0,2.0,1.0
1705080771.7006197,0.0,0.0,-6.0,-2.0,1.0,-10.0,-5.0,0.0
1705080771.7006197,-2.0,-2.0,-2.0,-3.0,-6.0,-7.0,-3.0,-4.0
1705080771.7103674,-1.0,-2.0,-2.0,4.0,2.0,5.0,1.0,-1.0
1705080771.7103674,-2.0,-3.0,1.0,-4.0,-2.0,-4.0,0.0,-2.0
1705080771.7206657,-3.0,-4.0,-5.0,-7.0,-3.0,-3.0,-2.0,1.0
1705080771.7206657,1.0,0.0,-6.0,3.0,3.0,0.0,-2.0,-8.0
1705080771.7206657,0.0,-4.0,-2.0,0.0,0.0,0.0,1.0,1.0
1705080771.7206657,-1.0,0.0,0.0,-2.0,-12.0,-5.0,-3.0,-1.0
1705080771.7403648,-1.0,-7.0,0.0,1.0,8.0,2.0,3.0,1.0
1705080771.7403648,-1.0,1.0,8.0,3.0,0.0,-1.0,-10.0,2.0
1705080771.7403648,0.0,0.0,-2.0,-3.0,-1.0,2.0,1.0,-3.0
1705080771.7403648,-2.0,2.0,-2.0,2.0,-1.0,-5.0,-1.0,-3.0
1705080771.760764,-3.0,-1.0,-1.0,-6.0,-5.0,-2.0,-1.0,0.0
1705080771.760764,-1.0,0.0,3.0,-7.0,1.0,1.0,1.0,2.0
1705080771.7703679,0.0,-2.0,-8.0,0.0,-3.0,-2.0,-2.0,-1.0
1705080771.7703679,1.0,0.0,10.0,10.0,7.0,6.0,-1.0,1.0
1705080771.7803702,-2.0,0.0,-1.0,3.0,-2.0,-6.0,0.0,-1.0
1705080771.7803702,-1.0,-2.0,-6.0,-1.0,0.0,2.0,0.0,0.0
1705080771.7903652,-4.0,-2.0,1.0,-4.0,0.0,1.0,0.0,0.0
1705080771.7903652,-2.0,0.0,-6.0,-7.0,-2.0,-6.0,0.0,-2.0
1705080771.8005526,0.0,-1.0,-1.0,0.0,0.0,7.0,-1.0,-1.0
1705080771.8005526,1.0,-2.0,0.0,-1.0,-1.0,-5.0,-1.0,-1.0
1705080771.8005526,-1.0,0.0,2.0,1.0,-2.0,-3.0,0.0,0.0
1705080771.8005526,0.0,0.0,-7.0,1.0,4.0,2.0,0.0,0.0
1705080771.83037,2.0,2.0,7.0,4.0,2.0,2.0,3.0,1.0
1705080771.83037,0.0,0.0,-7.0,1.0,-9.0,-8.0,-11.0,3.0
1705080771.83037,0.0,-1.0,0.0,0.0,4.0,-5.0,0.0,-9.0
1705080771.83037,-3.0,-1.0,1.0,0.0,-1.0,-6.0,-2.0,-3.0
1705080771.840617,2.0,1.0,-2.0,0.0,2.0,8.0,1.0,0.0
1705080771.840617,-1.0,-4.0,-5.0,-1.0,0.0,1.0,2.0,2.0
1705080771.8505414,1.0,-3.0,-3.0,-2.0,-4.0,1.0,0.0,1.0
1705080771.8505414,-3.0,-2.0,1.0,-8.0,-3.0,-4.0,-2.0,-3.0
1705080771.8606453,-4.0,-3.0,-4.0,-3.0,-1.0,-5.0,-4.0,-3.0
1705080771.8606453,-1.0,0.0,5.0,5.0,3.0,2.0,3.0,-2.0
1705080771.8703835,-3.0,-1.0,-1.0,-4.0,0.0,0.0,-1.0,0.0
1705080771.8703835,2.0,-1.0,-5.0,-6.0,-10.0,-6.0,-2.0,-2.0
1705080771.8803997,-1.0,-1.0,5.0,6.0,7.0,10.0,-3.0,-1.0
1705080771.8803997,1.0,1.0,5.0,6.0,1.0,2.0,5.0,0.0
1705080771.890368,-2.0,0.0,-3.0,-2.0,-4.0,-3.0,-1.0,-1.0
1705080771.890368,-3.0,-2.0,3.0,0.0,-2.0,-3.0,-7.0,0.0
1705080771.9003668,-2.0,2.0,-2.0,-3.0,-6.0,-1.0,-4.0,-3.0
1705080771.9003668,-2.0,-6.0,-5.0,-9.0,-5.0,-4.0,-2.0,-2.0
1705080771.910364,-2.0,-3.0,0.0,-2.0,1.0,2.0,1.0,0.0
1705080771.910364,0.0,0.0,0.0,3.0,2.0,2.0,2.0,-1.0
1705080771.9207122,2.0,1.0,2.0,5.0,1.0,-2.0,-1.0,2.0
1705080771.9207122,0.0,-1.0,-5.0,-4.0,-1.0,-2.0,0.0,-4.0
1705080771.9207122,0.0,-2.0,-4.0,-5.0,-6.0,-2.0,-3.0,0.0
1705080771.9207122,-2.0,-2.0,2.0,-2.0,-2.0,4.0,2.0,-1.0
1705080771.940434,-3.0,-4.0,-5.0,-2.0,0.0,-4.0,-4.0,0.0
1705080771.940434,-1.0,1.0,2.0,1.0,-2.0,-6.0,0.0,-2.0
1705080771.9503667,0.0,0.0,0.0,-1.0,1.0,6.0,-3.0,1.0
1705080771.9503667,-2.0,0.0,-2.0,-1.0,-2.0,-2.0,1.0,0.0
1705080771.9603665,-1.0,-1.0,-1.0,-2.0,-5.0,-5.0,2.0,-3.0
1705080771.9603665,-3.0,-3.0,-1.0,0.0,2.0,-2.0,-1.0,0.0
1705080771.9703877,-1.0,0.0,-2.0,-5.0,-2.0,2.0,-2.0,-4.0
1705080771.9703877,1.0,1.0,4.0,6.0,-2.0,-14.0,-1.0,3.0
1705080771.9807084,-2.0,-3.0,-1.0,-4.0,-1.0,-2.0,0.0,-1.0
1705080771.9807084,-3.0,-2.0,-1.0,-5.0,-5.0,-9.0,-13.0,-4.0
1705080771.9807084,0.0,-1.0,-6.0,-2.0,5.0,10.0,2.0,2.0
1705080771.9807084,0.0,2.0,6.0,3.0,0.0,2.0,0.0,-1.0
1705080772.0091825,-1.0,-2.0,-1.0,-3.0,-1.0,-2.0,0.0,-2.0
1705080772.0091825,-2.0,-2.0,-2.0,-2.0,-3.0,-3.0,1.0,-1.0
1705080772.0109487,-2.0,-2.0,-1.0,-3.0,-4.0,-11.0,-1.0,1.0
1705080772.0109487,-3.0,-3.0,2.0,2.0,4.0,0.0,-2.0,-1.0
1705080772.0290499,0.0,0.0,-2.0,-3.0,0.0,7.0,-3.0,-2.0
1705080772.0290499,0.0,-2.0,-5.0,0.0,-3.0,2.0,1.0,-1.0
1705080772.0300512,2.0,2.0,5.0,6.0,6.0,-2.0,-1.0,0.0
1705080772.0300512,-3.0,-3.0,-4.0,-4.0,2.0,3.0,3.0,-1.0
1705080772.0446026,-2.0,-1.0,2.0,-2.0,-3.0,-3.0,-5.0,0.0
1705080772.0446026,-1.0,-1.0,0.0,-7.0,-5.0,-10.0,0.0,-2.0
1705080772.0446026,0.0,-2.0,-4.0,3.0,-2.0,-5.0,-4.0,0.0
1705080772.0446026,0.0,-1.0,-4.0,-1.0,1.0,5.0,2.0,-2.0
1705080772.0648406,1.0,1.0,0.0,3.0,0.0,-3.0,2.0,0.0
1705080772.0648406,0.0,0.0,-3.0,-5.0,2.0,11.0,1.0,0.0
1705080772.0648406,-2.0,-3.0,-4.0,-7.0,-9.0,-31.0,-9.0,-4.0
1705080772.0648406,-1.0,-1.0,0.0,-4.0,-1.0,1.0,0.0,0.0
1705080772.094625,-2.0,0.0,-4.0,-1.0,-4.0,-5.0,-2.0,0.0
1705080772.094625,0.0,2.0,2.0,4.0,4.0,4.0,3.0,2.0
1705080772.094625,-2.0,-1.0,2.0,2.0,4.0,8.0,3.0,-2.0
1705080772.094625,-2.0,-1.0,-4.0,0.0,1.0,0.0,-3.0,-2.0
1705080772.1049216,-2.0,-1.0,-4.0,-2.0,-7.0,-11.0,-1.0,-1.0
1705080772.1049216,-1.0,2.0,5.0,5.0,9.0,8.0,-2.0,-1.0
1705080772.1049216,-2.0,-2.0,-1.0,-2.0,-4.0,2.0,4.0,0.0
1705080772.1049216,-1.0,-3.0,-7.0,-7.0,-3.0,0.0,-4.0,0.0
1705080772.134622,-1.0,-3.0,-1.0,-1.0,-3.0,-2.0,-1.0,-3.0
1705080772.134622,0.0,-2.0,-1.0,-2.0,-4.0,-6.0,-1.0,-1.0
1705080772.134622,-1.0,0.0,0.0,-4.0,-1.0,6.0,0.0,0.0
1705080772.134622,2.0,0.0,3.0,7.0,1.0,-2.0,2.0,0.0
1705080772.134622,0.0,0.0,4.0,5.0,5.0,2.0,-2.0,0.0
1705080772.134622,0.0,0.0,-3.0,-1.0,0.0,-1.0,-1.0,-1.0
1705080772.144899,-2.0,-2.0,-3.0,-1.0,-2.0,-3.0,-5.0,1.0
1705080772.144899,-3.0,-1.0,-4.0,-7.0,-4.0,1.0,3.0,-2.0
1705080772.164697,-1.0,-1.0,0.0,-3.0,0.0,4.0,3.0,-2.0
1705080772.164697,-2.0,1.0,1.0,6.0,2.0,2.0,-7.0,-2.0
1705080772.164697,0.0,0.0,5.0,4.0,1.0,1.0,1.0,0.0
1705080772.164697,-3.0,-8.0,-6.0,-9.0,-6.0,-5.0,-4.0,-3.0
1705080772.1846213,-2.0,0.0,-2.0,-2.0,-2.0,-1.0,1.0,-2.0
1705080772.1846213,0.0,0.0,0.0,0.0,0.0,2.0,6.0,0.0
1705080772.1846213,-3.0,-2.0,3.0,2.0,1.0,-4.0,-3.0,-2.0
1705080772.1846213,0.0,-1.0,-2.0,0.0,0.0,1.0,0.0,0.0
1705080772.194621,-2.0,-3.0,-3.0,-5.0,-7.0,-3.0,-5.0,-1.0
1705080772.194621,0.0,-2.0,-4.0,-2.0,1.0,-1.0,-1.0,0.0
1705080772.2046235,-2.0,0.0,-4.0,-1.0,0.0,2.0,-3.0,0.0
1705080772.2046235,2.0,1.0,7.0,8.0,2.0,-2.0,-2.0,0.0
1705080772.2247205,-2.0,-1.0,-1.0,-2.0,1.0,0.0,-2.0,-1.0
1705080772.2247205,-1.0,-1.0,-1.0,-2.0,-4.0,-2.0,-1.0,0.0
1705080772.2247205,-1.0,-1.0,-1.0,-2.0,-6.0,-5.0,-3.0,-3.0
1705080772.2247205,-1.0,-2.0,-8.0,-12.0,2.0,5.0,-1.0,-2.0
1705080772.2558935,0.0,-3.0,-2.0,-4.0,-4.0,-5.0,-1.0,1.0
1705080772.2558935,-2.0,0.0,7.0,5.0,4.0,3.0,0.0,-1.0
1705080772.2569284,3.0,-2.0,1.0,7.0,0.0,1.0,6.0,1.0
1705080772.2569284,-2.0,1.0,0.0,-3.0,1.0,8.0,-5.0,-1.0
1705080772.262986,-2.0,-6.0,-6.0,2.0,0.0,-15.0,-2.0,-2.0
1705080772.262986,0.0,-4.0,-5.0,-10.0,-8.0,-5.0,-1.0,-1.0
1705080772.2719429,-1.0,1.0,1.0,3.0,-1.0,2.0,-1.0,0.0
1705080772.2719429,1.0,0.0,-1.0,-1.0,-2.0,-3.0,-3.0,-2.0
1705080772.2869208,-1.0,-1.0,-1.0,-4.0,1.0,4.0,-1.0,-2.0
1705080772.2869208,-1.0,1.0,-1.0,1.0,0.0,1.0,1.0,-1.0
1705080772.2879236,-1.0,-2.0,1.0,1.0,1.0,0.0,-1.0,0.0
1705080772.2879236,-1.0,-1.0,-1.0,0.0,-4.0,-9.0,-2.0,1.0
1705080772.311504,-2.0,0.0,1.0,-3.0,2.0,7.0,-1.0,-3.0
1705080772.311504,-1.0,-2.0,-1.0,-1.0,0.0,-3.0,0.0,-1.0
1705080772.311504,-2.0,-1.0,-2.0,-4.0,-2.0,2.0,1.0,0.0
1705080772.311504,-1.0,0.0,-2.0,2.0,0.0,-2.0,0.0,-2.0
1705080772.322998,0.0,0.0,4.0,5.0,4.0,6.0,3.0,0.0
1705080772.322998,0.0,-2.0,-6.0,1.0,2.0,3.0,-2.0,0.0
1705080772.3321884,0.0,-1.0,0.0,-5.0,-4.0,1.0,-1.0,-3.0
1705080772.3321884,-2.0,-1.0,-5.0,-7.0,-2.0,-6.0,-1.0,-2.0
1705080772.3471777,1.0,0.0,1.0,-2.0,-5.0,-12.0,-3.0,0.0
1705080772.3471777,-3.0,0.0,0.0,1.0,-8.0,-2.0,2.0,-1.0
1705080772.3481765,-2.0,-1.0,-2.0,-5.0,3.0,4.0,0.0,-2.0
1705080772.3481765,1.0,2.0,-4.0,2.0,5.0,1.0,-4.0,0.0
1705080772.368931,0.0,-1.0,4.0,2.0,-2.0,-1.0,3.0,-1.0
1705080772.3699381,-2.0,-1.0,-2.0,-7.0,2.0,0.0,-2.0,-3.0
1705080772.371186,0.0,-1.0,4.0,5.0,0.0,-3.0,0.0,0.0
1705080772.371186,-3.0,-2.0,0.0,0.0,-4.0,-1.0,-3.0,-3.0
1705080772.3840716,-3.0,-4.0,-6.0,-9.0,-3.0,2.0,0.0,-2.0
1705080772.3840716,-2.0,-1.0,-3.0,-2.0,-5.0,-6.0,-6.0,-3.0
1705080772.3932538,0.0,1.0,4.0,4.0,2.0,1.0,1.0,0.0
1705080772.3932538,-1.0,-2.0,3.0,3.0,2.0,3.0,-1.0,0.0
1705080772.4068828,-2.0,-2.0,-6.0,-2.0,2.0,4.0,-3.0,-1.0
1705080772.4078352,-3.0,-2.0,2.0,-2.0,-6.0,-7.0,1.0,0.0
1705080772.4088778,0.0,0.0,-6.0,-4.0,4.0,4.0,-4.0,-3.0
1705080772.4088778,-1.0,-2.0,5.0,0.0,-2.0,5.0,7.0,0.0
1705080772.4259036,-1.0,0.0,-2.0,1.0,1.0,-1.0,-5.0,0.0
1705080772.4259036,1.0,-1.0,-1.0,-2.0,0.0,-4.0,1.0,-2.0
1705080772.4259036,-2.0,-1.0,-3.0,-3.0,-3.0,-3.0,-2.0,-1.0
1705080772.4259036,-1.0,-2.0,0.0,3.0,-4.0,6.0,2.0,2.0
1705080772.4359298,0.0,-2.0,-4.0,-4.0,-3.0,-2.0,-4.0,-2.0
1705080772.4359298,-1.0,1.0,4.0,5.0,3.0,-2.0,0.0,-1.0
1705080772.44609,-4.0,-2.0,-4.0,-2.0,0.0,-3.0,-8.0,-3.0
1705080772.44609,0.0,-1.0,-1.0,-3.0,-6.0,-7.0,-1.0,-2.0
1705080772.466319,0.0,2.0,-3.0,-4.0,1.0,10.0,0.0,-1.0
1705080772.466319,-2.0,-2.0,-1.0,-1.0,-2.0,-5.0,-2.0,-1.0
1705080772.466319,-2.0,-2.0,-10.0,-2.0,-3.0,-4.0,0.0,-1.0
1705080772.466319,-2.0,-2.0,2.0,3.0,3.0,-5.0,-3.0,1.0
1705080772.4862533,0.0,-2.0,0.0,1.0,-8.0,-2.0,-1.0,-1.0
1705080772.4862533,0.0,-2.0,-4.0,-10.0,7.0,5.0,-3.0,-2.0
1705080772.4862533,-2.0,-1.0,2.0,1.0,-2.0,-2.0,-1.0,-1.0
1705080772.4862533,-1.0,1.0,2.0,3.0,-4.0,0.0,-1.0,-2.0
1705080772.49629,-1.0,-1.0,0.0,0.0,-1.0,-8.0,0.0,0.0
1705080772.49629,-1.0,-4.0,-2.0,-3.0,-1.0,17.0,-2.0,-2.0
1705080772.5065663,-2.0,2.0,1.0,2.0,-7.0,-7.0,-1.0,-3.0
1705080772.5065663,0.0,1.0,-2.0,-8.0,2.0,-1.0,-3.0,-2.0
1705080772.5265539,-2.0,2.0,5.0,5.0,4.0,0.0,1.0,0.0
1705080772.5265539,1.0,1.0,4.0,10.0,0.0,-4.0,-1.0,1.0
1705080772.5265539,-1.0,-2.0,-2.0,0.0,6.0,12.0,1.0,1.0
1705080772.5265539,-2.0,-2.0,-4.0,-5.0,-10.0,-12.0,3.0,-1.0
1705080772.5497048,-2.0,-2.0,-6.0,-7.0,0.0,1.0,-8.0,-2.0
1705080772.5497048,-2.0,-1.0,-3.0,-2.0,-3.0,-7.0,0.0,0.0
1705080772.5506911,1.0,0.0,6.0,0.0,-1.0,6.0,1.0,-3.0
1705080772.5506911,-1.0,1.0,-5.0,5.0,11.0,3.0,-2.0,-1.0
1705080772.5637033,-1.0,-1.0,2.0,0.0,1.0,-7.0,2.0,0.0
1705080772.5637033,0.0,-3.0,-2.0,-5.0,-4.0,6.0,-3.0,-1.0
1705080772.5659938,1.0,-3.0,-9.0,-12.0,-8.0,-13.0,-2.0,-1.0
1705080772.5659938,-1.0,-2.0,2.0,-2.0,-5.0,-2.0,0.0,-3.0
1705080772.5959895,0.0,-1.0,0.0,5.0,1.0,7.0,-2.0,-2.0
1705080772.5959895,0.0,3.0,2.0,2.0,4.0,6.0,2.0,2.0
1705080772.5959895,-4.0,-4.0,-4.0,-6.0,-1.0,-6.0,-2.0,-2.0
1705080772.5959895,0.0,-1.0,0.0,-3.0,0.0,1.0,-1.0,-1.0
1705080772.606056,-2.0,-1.0,-4.0,1.0,-4.0,-8.0,-1.0,1.0
1705080772.606056,0.0,-3.0,-5.0,-2.0,-4.0,-4.0,-3.0,1.0
1705080772.606056,0.0,0.0,2.0,1.0,-1.0,3.0,2.0,-5.0
1705080772.606056,-1.0,-1.0,0.0,1.0,-1.0,0.0,-2.0,0.0
1705080772.6263173,-2.0,-1.0,1.0,1.0,-1.0,-2.0,-3.0,-4.0
1705080772.6263173,0.0,-1.0,0.0,-2.0,-6.0,-14.0,2.0,0.0
1705080772.6263173,-1.0,-2.0,-4.0,-6.0,3.0,8.0,-3.0,-1.0
1705080772.6263173,0.0,-1.0,0.0,2.0,-3.0,-10.0,-2.0,0.0
1705080772.6461067,0.0,0.0,1.0,2.0,2.0,10.0,-2.0,-1.0
1705080772.6461067,-1.0,2.0,1.0,-3.0,7.0,3.0,1.0,-1.0
1705080772.6461067,-2.0,-1.0,-2.0,0.0,-6.0,-11.0,-7.0,-1.0
1705080772.6461067,-2.0,-4.0,-1.0,-7.0,-7.0,-3.0,0.0,-2.0
1705080772.6660743,-2.0,-3.0,-2.0,-10.0,-3.0,-3.0,1.0,-1.0
1705080772.6660743,-2.0,0.0,-1.0,6.0,-6.0,-6.0,-4.0,-3.0
1705080772.6660743,1.0,2.0,9.0,11.0,4.0,1.0,6.0,1.0
1705080772.6660743,-1.0,-2.0,-6.0,-2.0,2.0,3.0,-6.0,-1.0
1705080772.6863422,-1.0,-1.0,-1.0,-2.0,0.0,-4.0,-2.0,-2.0
1705080772.6863422,-4.0,-2.0,-3.0,-6.0,-10.0,-1.0,-3.0,-2.0
1705080772.6960921,-1.0,-2.0,-6.0,-4.0,4.0,4.0,-1.0,0.0
1705080772.6960921,-1.0,-2.0,-4.0,-6.0,-3.0,0.0,1.0,0.0
1705080772.7061098,-2.0,0.0,-1.0,-4.0,5.0,12.0,4.0,-2.0
1705080772.7061098,-1.0,-2.0,2.0,3.0,-4.0,-17.0,-3.0,-1.0
1705080772.7061098,0.0,0.0,0.0,4.0,3.0,8.0,1.0,2.0
1705080772.7061098,0.0,2.0,3.0,1.0,-3.0,-8.0,-7.0,0.0
1705080772.7263734,-2.0,-3.0,-7.0,-5.0,-4.0,-2.0,0.0,-7.0
1705080772.7263734,-1.0,0.0,-5.0,-4.0,1.0,5.0,1.0,0.0
1705080772.7263734,0.0,-2.0,2.0,-2.0,-6.0,-11.0,-2.0,0.0
1705080772.7263734,0.0,0.0,3.0,5.0,7.0,11.0,2.0,-1.0
1705080772.7560763,1.0,-2.0,-1.0,1.0,-5.0,-11.0,-9.0,2.0
1705080772.7560763,-1.0,-3.0,-2.0,-2.0,0.0,4.0,-2.0,-5.0
1705080772.7560763,-3.0,0.0,-1.0,-3.0,0.0,-4.0,-2.0,0.0
1705080772.7560763,-3.0,-5.0,-3.0,-2.0,1.0,5.0,-2.0,-4.0
1705080772.7660723,0.0,-1.0,4.0,1.0,-2.0,-4.0,1.0,3.0
1705080772.7660723,0.0,-1.0,-1.0,-3.0,0.0,1.0,-2.0,-1.0
1705080772.7763004,-1.0,-2.0,-2.0,-2.0,1.0,-3.0,0.0,-1.0
1705080772.7763004,-1.0,1.0,-3.0,-1.0,-1.0,0.0,1.0,0.0
1705080772.7862835,-2.0,1.0,-3.0,-3.0,-2.0,0.0,0.0,-2.0
1705080772.7862835,-1.0,-3.0,4.0,1.0,0.0,5.0,2.0,1.0
1705080772.7862835,-2.0,0.0,-3.0,-1.0,-3.0,2.0,-11.0,-3.0
1705080772.7862835,-3.0,-1.0,1.0,0.0,0.0,-6.0,-1.0,0.0
1705080772.8160722,-2.0,-2.0,-3.0,0.0,0.0,4.0,2.0,1.0
1705080772.8160722,-1.0,-1.0,-2.0,-3.0,-3.0,-2.0,-1.0,-3.0
1705080772.8160722,-1.0,-1.0,1.0,4.0,4.0,7.0,5.0,2.0
1705080772.8160722,1.0,2.0,2.0,1.0,-2.0,-2.0,2.0,1.0
1705080772.8261476,-1.0,-1.0,-2.0,0.0,8.0,9.0,-6.0,1.0
1705080772.8261476,-2.0,-3.0,-7.0,-5.0,-6.0,-6.0,-2.0,0.0
1705080772.8261476,1.0,-2.0,-6.0,-7.0,-5.0,0.0,1.0,-2.0
1705080772.8261476,0.0,0.0,-2.0,-4.0,-5.0,-10.0,-4.0,-2.0
1705080772.846407,1.0,2.0,8.0,8.0,0.0,0.0,5.0,-1.0
1705080772.846407,-1.0,0.0,-9.0,2.0,4.0,1.0,-8.0,-2.0
1705080772.846407,0.0,0.0,3.0,2.0,-4.0,-3.0,0.0,-1.0
1705080772.846407,0.0,0.0,-2.0,-1.0,1.0,3.0,0.0,0.0
1705080772.8760786,-2.0,-3.0,-6.0,-8.0,-7.0,-6.0,1.0,-1.0
1705080772.8760786,1.0,0.0,1.0,1.0,-2.0,-4.0,1.0,-1.0
1705080772.8760786,-2.0,-1.0,3.0,6.0,4.0,8.0,-2.0,-2.0
1705080772.8760786,-2.0,0.0,-2.0,-1.0,-4.0,-12.0,2.0,-1.0
1705080772.886108,-2.0,-1.0,-2.0,-3.0,-1.0,-6.0,-6.0,-4.0
1705080772.886108,0.0,-2.0,-1.0,-4.0,0.0,-2.0,1.0,1.0
1705080772.8960748,0.0,-1.0,-6.0,-8.0,-4.0,2.0,0.0,-1.0
1705080772.8960748,0.0,-1.0,5.0,5.0,5.0,2.0,5.0,4.0
1705080772.9060755,-2.0,0.0,0.0,1.0,-2.0,9.0,1.0,-7.0
1705080772.9060755,-3.0,1.0,-1.0,2.0,-2.0,-9.0,-2.0,0.0
1705080772.9160743,-1.0,-2.0,2.0,-2.0,-3.0,1.0,3.0,0.0
1705080772.9160743,-2.0,-2.0,-5.0,0.0,2.0,-1.0,-7.0,-5.0
1705080772.9264483,1.0,-1.0,2.0,-1.0,-2.0,-3.0,0.0,2.0
1705080772.9264483,-1.0,-1.0,0.0,-4.0,-1.0,2.0,-2.0,-1.0
1705080772.9264483,-2.0,0.0,-5.0,-2.0,-4.0,-5.0,-1.0,-2.0
1705080772.9264483,-1.0,1.0,4.0,3.0,0.0,5.0,-3.0,1.0
1705080772.9464066,-1.0,-2.0,-2.0,-3.0,4.0,3.0,-4.0,0.0
1705080772.9464066,-1.0,-2.0,3.0,3.0,-4.0,0.0,6.0,0.0
1705080772.9464066,-3.0,-2.0,-5.0,-10.0,-6.0,-13.0,-5.0,-2.0
1705080772.9464066,2.0,2.0,1.0,4.0,1.0,6.0,-1.0,-2.0
1705080772.9760733,2.0,0.0,-2.0,3.0,-2.0,3.0,0.0,0.0
1705080772.9760733,-4.0,-2.0,-5.0,-8.0,1.0,3.0,-3.0,-3.0
1705080772.9760733,0.0,0.0,4.0,2.0,-7.0,-15.0,1.0,0.0
1705080772.9760733,-1.0,-5.0,-6.0,-5.0,-2.0,3.0,-3.0,-2.0
1705080772.9864538,-2.0,-1.0,0.0,0.0,1.0,0.0,4.0,1.0
1705080772.9864538,-2.0,0.0,1.0,3.0,2.0,5.0,-8.0,-2.0
1705080772.9864538,-1.0,-2.0,-6.0,-4.0,-2.0,-1.0,2.0,0.0
1705080772.9864538,-2.0,-3.0,-3.0,-6.0,-3.0,-2.0,0.0,-2.0
1705080773.0065088,-1.0,0.0,-1.0,3.0,-5.0,-10.0,-1.0,-1.0
1705080773.0065088,-3.0,0.0,2.0,0.0,1.0,0.0,1.0,-1.0
1705080773.0065088,-3.0,-1.0,-1.0,0.0,1.0,2.0,-1.0,-2.0
1705080773.0065088,0.0,-1.0,0.0,-2.0,4.0,1.0,-2.0,-1.0
1705080773.0260744,0.0,-1.0,-1.0,0.0,0.0,-1.0,-1.0,2.0
1705080773.0260744,0.0,-2.0,-2.0,0.0,-1.0,-2.0,-2.0,-4.0
1705080773.0260744,2.0,0.0,-1.0,0.0,2.0,-4.0,0.0,2.0
1705080773.0260744,-3.0,-3.0,2.0,0.0,-6.0,-1.0,0.0,-1.0
1705080773.0463593,-5.0,-3.0,0.0,-5.0,1.0,-3.0,-3.0,-2.0
1705080773.0463593,1.0,1.0,2.0,4.0,1.0,-2.0,1.0,0.0
1705080773.0463593,-1.0,-4.0,-7.0,-6.0,-4.0,-3.0,-5.0,0.0
1705080773.0463593,-2.0,1.0,-1.0,-3.0,1.0,3.0,-3.0,-2.0
1705080773.0667684,-1.0,-2.0,-4.0,-8.0,-6.0,-7.0,0.0,-1.0
1705080773.0667684,-2.0,0.0,-1.0,0.0,2.0,3.0,-3.0,1.0
1705080773.0738602,-1.0,2.0,5.0,8.0,5.0,8.0,7.0,0.0
1705080773.0738602,-2.0,-2.0,-9.0,-4.0,-7.0,-3.0,-12.0,-2.0
1705080773.097283,-2.0,-2.0,-1.0,-2.0,-2.0,-16.0,-4.0,0.0
1705080773.097283,0.0,3.0,2.0,-3.0,1.0,-2.0,1.0,0.0
1705080773.097283,0.0,-2.0,1.0,3.0,5.0,3.0,-2.0,0.0
1705080773.097283,-1.0,-4.0,-7.0,-5.0,0.0,3.0,3.0,1.0
1705080773.1085575,-2.0,0.0,1.0,-1.0,-8.0,0.0,-2.0,-1.0
1705080773.1085575,-3.0,-1.0,-1.0,0.0,3.0,-5.0,-2.0,-1.0
1705080773.1085575,-1.0,0.0,2.0,1.0,-2.0,-8.0,-2.0,-1.0
1705080773.1085575,0.0,-3.0,3.0,1.0,3.0,9.0,-1.0,-1.0
1705080773.1185336,-1.0,-3.0,-4.0,-3.0,-4.0,-6.0,0.0,-1.0
1705080773.1185336,-3.0,-3.0,-4.0,1.0,-5.0,1.0,2.0,-2.0
1705080773.128266,-2.0,0.0,-1.0,-6.0,1.0,3.0,-2.0,-2.0
1705080773.128266,-2.0,0.0,1.0,2.0,-1.0,-8.0,1.0,-1.0
1705080773.1482651,2.0,-2.0,1.0,2.0,-3.0,0.0,1.0,1.0
1705080773.1482651,-1.0,-1.0,-6.0,-8.0,-1.0,6.0,-3.0,-1.0
1705080773.1482651,-2.0,2.0,7.0,9.0,0.0,-12.0,-3.0,-1.0
1705080773.1482651,0.0,-1.0,-1.0,1.0,0.0,4.0,2.0,1.0
1705080773.1685476,-2.0,-1.0,-2.0,-4.0,-2.0,-1.0,-2.0,-2.0
1705080773.1685476,-2.0,-2.0,-2.0,-4.0,-2.0,0.0,-1.0,-1.0
1705080773.1685476,-3.0,-3.0,-7.0,-9.0,-4.0,4.0,-3.0,-4.0
1705080773.1685476,1.0,2.0,4.0,4.0,4.0,5.0,6.0,0.0
1705080773.1785324,1.0,0.0,6.0,6.0,-5.0,-13.0,-9.0,-2.0
1705080773.1785324,0.0,0.0,2.0,2.0,2.0,3.0,0.0,-1.0
1705080773.2082653,-1.0,-2.0,1.0,1.0,-1.0,3.0,-1.0,1.0
1705080773.2082653,-3.0,-3.0,-3.0,-5.0,-9.0,-17.0,2.0,-3.0
1705080773.2082653,-1.0,-2.0,-12.0,-7.0,-3.0,5.0,0.0,-1.0
1705080773.2082653,-1.0,-1.0,7.0,4.0,2.0,1.0,-1.0,-1.0
1705080773.2082653,1.0,1.0,4.0,10.0,4.0,0.0,-1.0,0.0
1705080773.2082653,-2.0,-2.0,-6.0,-7.0,-1.0,-1.0,1.0,0.0
1705080773.228656,-2.0,-3.0,-1.0,-2.0,-1.0,5.0,3.0,-2.0
1705080773.228656,1.0,-2.0,-3.0,-7.0,-7.0,-8.0,-2.0,0.0
1705080773.228656,0.0,-1.0,1.0,1.0,3.0,5.0,1.0,1.0
1705080773.228656,0.0,0.0,2.0,1.0,-6.0,-3.0,-4.0,-1.0
1705080773.2386453,-2.0,0.0,-6.0,-2.0,5.0,3.0,-1.0,-2.0
1705080773.2386453,1.0,-1.0,0.0,-2.0,2.0,1.0,1.0,-1.0
1705080773.2582672,-1.0,-3.0,-3.0,-2.0,-9.0,-6.0,-2.0,-2.0
1705080773.2582672,-1.0,2.0,5.0,2.0,10.0,14.0,-1.0,0.0
1705080773.2685354,-2.0,0.0,-6.0,-3.0,0.0,-10.0,-4.0,-3.0
1705080773.2685354,2.0,-1.0,0.0,1.0,-9.0,-3.0,-1.0,-1.0
