1705080593.4713416,-30.0,21.0,1.0,-1.0,-5.0,-4.0,-4.0,-3.0
1705080593.4813325,3.0,1.0,1.0,4.0,1.0,1.0,1.0,-4.0
1705080593.4813325,14.0,2.0,0.0,0.0,1.0,0.0,-3.0,2.0
1705080593.4813325,-8.0,-6.0,-3.0,-5.0,-3.0,-2.0,-2.0,-8.0
1705080593.5013275,11.0,-8.0,-2.0,0.0,0.0,0.0,1.0,4.0
1705080593.5013275,0.0,9.0,7.0,0.0,-1.0,-1.0,0.0,0.0
1705080593.5013275,-14.0,-4.0,-3.0,1.0,0.0,-1.0,-1.0,-5.0
1705080593.5013275,-1.0,-9.0,0.0,2.0,0.0,2.0,1.0,1.0
1705080593.5113692,1.0,-11.0,-4.0,-3.0,-1.0,-1.0,-2.0,-2.0
1705080593.5113692,-1.0,0.0,-4.0,-4.0,-2.0,-1.0,-2.0,3.0
1705080593.5113692,8.0,-5.0,3.0,-1.0,-1.0,-2.0,1.0,4.0
1705080593.5113692,10.0,8.0,-4.0,-3.0,-2.0,-4.0,-5.0,-3.0
1705080593.5413294,-16.0,-7.0,0.0,-2.0,-1.0,-1.0,-1.0,-5.0
1705080593.5413294,-4.0,-6.0,-3.0,0.0,-1.0,-2.0,-1.0,-3.0
1705080593.5413294,2.0,2.0,-3.0,-2.0,-2.0,-2.0,-2.0,0.0
1705080593.5413294,-5.0,-3.0,-2.0,-2.0,0.0,0.0,3.0,1.0
1705080593.5513296,10.0,18.0,3.0,4.0,3.0,1.0,0.0,-1.0
1705080593.5513296,-8.0,-15.0,-4.0,0.0,-1.0,-3.0,-3.0,-2.0
1705080593.5513296,30.0,23.0,3.0,-3.0,-1.0,0.0,-1.0,5.0
1705080593.5513296,-13.0,-54.0,-9.0,-2.0,-5.0,-3.0,-3.0,-3.0
1705080593.571439,-32.0,31.0,-6.0,-5.0,0.0,-2.0,-3.0,-9.0
1705080593.571439,4.0,15.0,6.0,-1.0,1.0,0.0,3.0,5.0
1705080593.5813346,-11.0,-15.0,-4.0,-2.0,-1.0,-1.0,-1.0,-5.0
1705080593.5813346,6.0,19.0,7.0,0.0,2.0,-1.0,-6.0,1.0
1705080593.6113267,19.0,-7.0,0.0,-2.0,-2.0,-1.0,1.0,8.0
1705080593.6113267,8.0,4.0,0.0,3.0,2.0,0.0,2.0,-1.0
1705080593.6113267,-18.0,-33.0,-20.0,-8.0,-4.0,-4.0,-4.0,-10.0
1705080593.6113267,4.0,21.0,3.0,-2.0,1.0,3.0,4.0,1.0
1705080593.6113267,-1.0,-17.0,-2.0,-2.0,-3.0,-6.0,-3.0,-1.0
1705080593.6113267,-7.0,12.0,3.0,-1.0,0.0,1.0,-1.0,1.0
1705080593.6113267,8.0,-5.0,2.0,0.0,-2.0,-1.0,-1.0,3.0
1705080593.6113267,-11.0,7.0,7.0,8.0,3.0,0.0,-1.0,-2.0
1705080593.63146,5.0,-7.0,-4.0,0.0,0.0,0.0,-1.0,1.0
1705080593.63146,-4.0,-11.0,-10.0,-4.0,-3.0,-2.0,-1.0,-3.0
1705080593.63146,0.0,11.0,7.0,1.0,-1.0,-1.0,-1.0,0.0
1705080593.63146,-8.0,5.0,-2.0,-2.0,-3.0,0.0,-3.0,-3.0
1705080593.6713297,24.0,-8.0,1.0,-2.0,-2.0,1.0,2.0,7.0
1705080593.6713297,-37.0,-37.0,1.0,0.0,-1.0,-2.0,-2.0,-7.0
1705080593.6713297,-12.0,-11.0,4.0,3.0,-1.0,-1.0,-2.0,-4.0
1705080593.6713297,0.0,42.0,-1.0,2.0,2.0,-1.0,3.0,4.0
1705080593.6713297,25.0,-23.0,-6.0,-4.0,-4.0,-4.0,-2.0,-5.0
1705080593.6713297,-13.0,4.0,3.0,-1.0,-1.0,-1.0,-1.0,-1.0
1705080593.6815324,13.0,14.0,3.0,1.0,0.0,0.0,2.0,6.0
1705080593.6815324,-19.0,-21.0,-6.0,-5.0,-4.0,-3.0,-4.0,-5.0
1705080593.691714,29.0,19.0,7.0,3.0,2.0,1.0,1.0,7.0
1705080593.691714,-10.0,-2.0,-8.0,-1.0,1.0,-1.0,-3.0,-6.0
1705080593.691714,-1.0,9.0,0.0,-2.0,0.0,0.0,1.0,1.0
1705080593.691714,26.0,2.0,1.0,-3.0,0.0,-1.0,-1.0,-1.0
1705080593.7213278,19.0,13.0,2.0,2.0,0.0,2.0,4.0,7.0
1705080593.7213278,-23.0,7.0,2.0,1.0,-2.0,-4.0,0.0,-1.0
1705080593.7213278,0.0,-35.0,-9.0,-2.0,-2.0,-1.0,-3.0,-7.0
1705080593.7213278,-8.0,-19.0,-4.0,-4.0,-3.0,-1.0,-3.0,-2.0
1705080593.7313652,-7.0,32.0,12.0,1.0,-1.0,1.0,1.0,-1.0
1705080593.7313652,21.0,-38.0,-5.0,-1.0,1.0,2.0,3.0,6.0
1705080593.7417257,-33.0,0.0,-4.0,-4.0,-3.0,0.0,-5.0,-6.0
1705080593.7417257,-12.0,32.0,9.0,-3.0,-2.0,-1.0,-3.0,-5.0
1705080593.7518778,-31.0,-24.0,-15.0,-7.0,-1.0,-3.0,-6.0,-6.0
1705080593.7518778,62.0,28.0,16.0,9.0,4.0,2.0,4.0,14.0
1705080593.7518778,0.0,-1.0,-3.0,3.0,3.0,1.0,2.0,2.0
1705080593.7518778,-62.0,-26.0,-7.0,-5.0,-5.0,-4.0,-6.0,-22.0
1705080593.781328,-10.0,-14.0,-5.0,-3.0,-3.0,-1.0,-2.0,-4.0
1705080593.781328,11.0,13.0,-2.0,-3.0,-3.0,-3.0,-1.0,4.0
1705080593.781328,22.0,21.0,5.0,-1.0,0.0,-2.0,1.0,3.0
1705080593.781328,-51.0,-2.0,2.0,3.0,0.0,0.0,1.0,4.0
1705080593.7913334,4.0,-13.0,-8.0,-3.0,-3.0,-3.0,-5.0,-14.0
1705080593.7913334,1.0,17.0,-6.0,-3.0,-2.0,0.0,-7.0,-7.0
1705080593.801333,25.0,16.0,5.0,1.0,-1.0,1.0,1.0,8.0
1705080593.801333,10.0,10.0,4.0,4.0,0.0,1.0,2.0,7.0
1705080593.808547,-48.0,-78.0,-3.0,3.0,0.0,-2.0,-3.0,-11.0
1705080593.808547,-23.0,-5.0,-17.0,-11.0,-6.0,-6.0,-2.0,-15.0
1705080593.8187318,-1.0,-20.0,-17.0,-8.0,-4.0,-7.0,-8.0,-11.0
1705080593.8187318,28.0,19.0,8.0,2.0,3.0,2.0,8.0,23.0
1705080593.8411987,6.0,-6.0,2.0,-1.0,-2.0,-2.0,-6.0,-15.0
1705080593.8411987,14.0,7.0,2.0,0.0,1.0,1.0,-1.0,11.0
1705080593.8421953,-25.0,9.0,6.0,1.0,0.0,1.0,2.0,-10.0
1705080593.8421953,-54.0,-72.0,-22.0,-5.0,-2.0,-4.0,-7.0,-19.0
1705080593.8544288,4.0,14.0,-3.0,-2.0,-1.0,-1.0,1.0,3.0
1705080593.8544288,26.0,21.0,10.0,3.0,0.0,2.0,3.0,10.0
1705080593.8617709,7.0,-2.0,-3.0,-4.0,-4.0,-3.0,-1.0,7.0
1705080593.8617709,28.0,9.0,-1.0,1.0,5.0,3.0,-3.0,-5.0
1705080593.8775394,-18.0,9.0,-2.0,-3.0,6.0,-13.0,3.0,4.0
1705080593.8775394,6.0,-2.0,0.0,-1.0,-3.0,12.0,0.0,-3.0
1705080593.879451,27.0,1.0,9.0,5.0,1.0,-1.0,1.0,9.0
1705080593.879451,16.0,-14.0,-25.0,-6.0,-1.0,-2.0,-2.0,-3.0
1705080593.9078934,4.0,-8.0,-4.0,-5.0,-6.0,-2.0,-2.0,-4.0
1705080593.9078934,-43.0,-14.0,-3.0,-2.0,-1.0,-4.0,-1.0,-6.0
1705080593.9088888,25.0,3.0,-4.0,-5.0,-2.0,-3.0,-7.0,-11.0
1705080593.9088888,37.0,11.0,11.0,0.0,-4.0,-1.0,2.0,8.0
1705080593.9138873,-17.0,37.0,4.0,2.0,0.0,2.0,-2.0,3.0
1705080593.9138873,6.0,-48.0,-13.0,-4.0,-3.0,-4.0,-3.0,-4.0
1705080593.9231753,-30.0,1.0,2.0,-2.0,-2.0,2.0,6.0,2.0
1705080593.9231753,25.0,11.0,4.0,1.0,0.0,-2.0,4.0,6.0
1705080593.9377954,-42.0,-5.0,-4.0,-2.0,-3.0,-1.0,-4.0,-1.0
1705080593.9377954,-2.0,12.0,5.0,0.0,1.0,-1.0,-3.0,0.0
1705080593.939792,0.0,7.0,-2.0,0.0,-6.0,-5.0,-3.0,13.0
1705080593.939792,14.0,-8.0,-1.0,-1.0,5.0,3.0,-4.0,-6.0
1705080593.9599028,79.0,38.0,13.0,5.0,1.0,3.0,10.0,29.0
1705080593.9599028,-83.0,-39.0,-11.0,-4.0,-6.0,-6.0,-8.0,-19.0
1705080593.9618719,26.0,4.0,-8.0,-4.0,3.0,-2.0,-7.0,-6.0
1705080593.9618719,10.0,16.0,-2.0,-2.0,-7.0,-3.0,-2.0,1.0
1705080593.9743373,19.0,5.0,6.0,4.0,0.0,0.0,-2.0,7.0
1705080593.9743373,4.0,8.0,2.0,0.0,5.0,4.0,1.0,3.0
1705080593.9813619,-5.0,-1.0,-3.0,0.0,-5.0,-11.0,1.0,-4.0
1705080593.9813619,-9.0,3.0,4.0,-1.0,-4.0,7.0,-1.0,1.0
1705080593.9977498,-11.0,-1.0,-5.0,-5.0,-3.0,0.0,-1.0,-5.0
1705080593.9977498,-5.0,-24.0,-4.0,-4.0,-4.0,-5.0,-1.0,-4.0
1705080593.9993653,-44.0,-17.0,-8.0,1.0,4.0,-1.0,-4.0,-16.0
1705080594.0003881,33.0,11.0,6.0,4.0,1.0,-3.0,3.0,4.0
1705080594.0210195,-21.0,-6.0,-5.0,-5.0,-2.0,0.0,-3.0,-8.0
1705080594.0210195,25.0,20.0,1.0,-3.0,-2.0,-1.0,0.0,5.0
1705080594.023015,29.0,9.0,8.0,-1.0,-2.0,3.0,3.0,6.0
1705080594.023015,-43.0,-15.0,-10.0,-1.0,-2.0,-6.0,-5.0,-6.0
1705080594.0343022,33.0,-4.0,-4.0,-1.0,0.0,2.0,-2.0,-3.0
1705080594.0343022,-12.0,0.0,2.0,0.0,-2.0,-3.0,-3.0,-3.0
1705080594.0443037,-9.0,9.0,1.0,-2.0,0.0,2.0,1.0,-1.0
1705080594.0443037,3.0,6.0,0.0,-2.0,-2.0,-3.0,-2.0,-2.0
1705080594.064296,-7.0,-10.0,-4.0,0.0,0.0,-1.0,2.0,-3.0
1705080594.064296,16.0,32.0,1.0,0.0,-5.0,-4.0,-1.0,-3.0
1705080594.064296,-1.0,5.0,6.0,1.0,-2.0,3.0,1.0,2.0
1705080594.064296,2.0,11.0,0.0,-4.0,-4.0,-4.0,0.0,-1.0
1705080594.0746782,-70.0,-27.0,-5.0,0.0,3.0,4.0,-3.0,-17.0
1705080594.0746782,31.0,21.0,2.0,-1.0,-8.0,-5.0,-2.0,2.0
1705080594.0746782,-23.0,-28.0,-11.0,-4.0,5.0,3.0,-2.0,-5.0
1705080594.0746782,-9.0,0.0,2.0,-4.0,-3.0,-5.0,-2.0,2.0
1705080594.0943568,26.0,20.0,5.0,5.0,3.0,0.0,3.0,8.0
1705080594.0943568,1.0,-10.0,-3.0,2.0,2.0,2.0,-1.0,-1.0
1705080594.0943568,-20.0,-4.0,-2.0,0.0,-2.0,-3.0,-1.0,-7.0
1705080594.0943568,19.0,4.0,-5.0,-4.0,0.0,0.0,0.0,6.0
1705080594.1142979,-10.0,-17.0,-5.0,-4.0,-5.0,-6.0,-3.0,-7.0
1705080594.1142979,-41.0,-8.0,3.0,-1.0,0.0,-1.0,-3.0,-9.0
1705080594.1142979,-4.0,2.0,1.0,-1.0,0.0,2.0,1.0,3.0
1705080594.1142979,5.0,1.0,3.0,1.0,0.0,-1.0,0.0,0.0
1705080594.1345582,4.0,6.0,0.0,1.0,0.0,0.0,-2.0,5.0
1705080594.1345582,6.0,-1.0,4.0,0.0,-1.0,-2.0,-1.0,1.0
1705080594.1345582,-2.0,2.0,1.0,0.0,-2.0,-3.0,-1.0,-2.0
1705080594.1345582,7.0,-7.0,-3.0,0.0,1.0,2.0,0.0,1.0
1705080594.1543245,-16.0,-1.0,-2.0,-2.0,-2.0,-2.0,-3.0,-7.0
1705080594.1543245,15.0,-7.0,-6.0,-1.0,1.0,2.0,2.0,4.0
1705080594.1543245,-7.0,-2.0,2.0,-1.0,0.0,-2.0,0.0,-3.0
1705080594.164311,11.0,-13.0,1.0,3.0,0.0,-2.0,0.0,0.0
1705080594.1843007,-8.0,7.0,1.0,-2.0,-1.0,-2.0,-1.0,-6.0
1705080594.1843007,15.0,6.0,-4.0,-3.0,0.0,-1.0,-1.0,1.0
1705080594.1843007,-17.0,-8.0,2.0,0.0,0.0,1.0,0.0,2.0
1705080594.1843007,-6.0,0.0,5.0,3.0,1.0,-1.0,-1.0,-3.0
1705080594.194331,-1.0,-6.0,-5.0,-5.0,0.0,-4.0,-1.0,2.0
1705080594.194331,25.0,3.0,-2.0,-2.0,2.0,8.0,-1.0,3.0
1705080594.194331,18.0,18.0,2.0,-1.0,-3.0,-5.0,-1.0,2.0
1705080594.194331,-28.0,-16.0,-8.0,-5.0,-4.0,-1.0,-2.0,-7.0
1705080594.2143476,8.0,16.0,3.0,-1.0,-4.0,-2.0,0.0,2.0
1705080594.2143476,8.0,-1.0,1.0,3.0,2.0,1.0,1.0,3.0
1705080594.2143476,-4.0,-11.0,-4.0,-1.0,1.0,1.0,-1.0,-2.0
1705080594.2143476,6.0,20.0,6.0,2.0,-1.0,0.0,0.0,4.0
1705080594.2342968,-9.0,-14.0,-7.0,-4.0,-2.0,1.0,-5.0,-6.0
1705080594.2342968,-33.0,-7.0,-5.0,-3.0,-2.0,-4.0,-3.0,-5.0
1705080594.2342968,5.0,2.0,-7.0,-2.0,-2.0,0.0,-1.0,-4.0
1705080594.2342968,-4.0,-6.0,-1.0,-1.0,0.0,-4.0,-1.0,-6.0
1705080594.254549,12.0,10.0,4.0,2.0,-1.0,0.0,1.0,6.0
1705080594.254549,13.0,-10.0,-6.0,-3.0,-1.0,-3.0,1.0,-1.0
1705080594.264382,-14.0,-7.0,5.0,1.0,-1.0,-1.0,-5.0,-8.0
1705080594.264382,-28.0,3.0,-6.0,-5.0,-4.0,-4.0,-4.0,-3.0
1705080594.2953985,-1.0,-7.0,-3.0,1.0,1.0,5.0,1.0,1.0
1705080594.2953985,10.0,1.0,0.0,0.0,0.0,-4.0,-1.0,-4.0
1705080594.2953985,2.0,1.0,2.0,-1.0,0.0,1.0,0.0,1.0
1705080594.2953985,13.0,6.0,-3.0,-2.0,-1.0,-2.0,0.0,2.0
1705080594.2974236,6.0,-3.0,6.0,0.0,-2.0,-4.0,0.0,1.0
1705080594.2974236,-1.0,9.0,3.0,0.0,-2.0,-5.0,-3.0,-1.0
1705080594.2993982,-32.0,7.0,-2.0,-2.0,-1.0,2.0,-3.0,-7.0
1705080594.2993982,17.0,-12.0,-1.0,3.0,-1.0,-4.0,1.0,-1.0
1705080594.320751,6.0,-2.0,-2.0,-2.0,-2.0,-4.0,3.0,0.0
1705080594.320751,1.0,-3.0,-2.0,-2.0,-2.0,2.0,0.0,0.0
1705080594.3217134,2.0,6.0,-4.0,-3.0,-2.0,-5.0,-2.0,4.0
1705080594.3217134,-1.0,-1.0,-3.0,-2.0,-1.0,0.0,-1.0,-3.0
1705080594.3341308,4.0,15.0,2.0,-1.0,2.0,1.0,-2.0,-2.0
1705080594.3341308,-7.0,-23.0,-9.0,-4.0,-5.0,-5.0,-3.0,-7.0
1705080594.3498118,39.0,-9.0,-5.0,1.0,-2.0,1.0,2.0,8.0
1705080594.3498118,-24.0,3.0,-1.0,0.0,-1.0,1.0,-1.0,-8.0
1705080594.3575826,6.0,1.0,2.0,2.0,-1.0,-1.0,-3.0,1.0
1705080594.3585844,-12.0,2.0,7.0,2.0,3.0,3.0,0.0,-2.0
1705080594.3596177,-3.0,-14.0,-15.0,-6.0,-1.0,-2.0,-2.0,5.0
1705080594.3596177,17.0,3.0,2.0,0.0,0.0,2.0,-2.0,-6.0
1705080594.3808658,-11.0,-10.0,-5.0,-1.0,-3.0,-1.0,-4.0,-3.0
1705080594.3808658,10.0,9.0,2.0,1.0,3.0,-2.0,0.0,5.0
1705080594.3826299,-5.0,-2.0,3.0,3.0,-3.0,1.0,-1.0,0.0
1705080594.3826299,12.0,-3.0,-3.0,-4.0,2.0,-2.0,0.0,0.0
1705080594.4008882,-17.0,-14.0,-4.0,-3.0,-6.0,-3.0,-4.0,-6.0
1705080594.4008882,1.0,11.0,7.0,6.0,3.0,-1.0,2.0,2.0
1705080594.4028895,-1.0,-18.0,-2.0,-3.0,-1.0,-2.0,-2.0,-4.0
1705080594.4028895,-2.0,10.0,-5.0,-3.0,-1.0,-3.0,-2.0,-2.0
1705080594.4172635,15.0,-7.0,1.0,0.0,4.0,2.0,2.0,5.0
1705080594.4172635,-14.0,-8.0,-3.0,-6.0,-5.0,-1.0,-3.0,-8.0
1705080594.4242496,7.0,4.0,5.0,-1.0,-1.0,-5.0,-1.0,0.0
1705080594.4242496,7.0,8.0,2.0,2.0,2.0,1.0,-2.0,5.0
1705080594.4401605,31.0,-16.0,-2.0,0.0,-1.0,0.0,1.0,-3.0
1705080594.4401605,-12.0,-2.0,-7.0,-2.0,-1.0,-2.0,-2.0,-3.0
1705080594.4421592,-9.0,7.0,2.0,-2.0,0.0,1.0,1.0,-2.0
1705080594.4421592,3.0,-6.0,-1.0,-2.0,-2.0,2.0,-2.0,2.0
1705080594.4625206,24.0,22.0,11.0,2.0,-3.0,-4.0,1.0,4.0
1705080594.4625206,-18.0,-7.0,-8.0,-4.0,7.0,2.0,-2.0,6.0
1705080594.4645143,11.0,10.0,3.0,2.0,1.0,-8.0,-2.0,-1.0
1705080594.4645143,1.0,-5.0,-2.0,-1.0,-9.0,-1.0,0.0,1.0
1705080594.4781835,-49.0,-1.0,-4.0,-3.0,-1.0,0.0,1.0,-6.0
1705080594.4781835,-4.0,-1.0,1.0,0.0,-5.0,-3.0,-3.0,-2.0
1705080594.480171,23.0,1.0,-4.0,-2.0,1.0,0.0,-1.0,0.0
1705080594.480171,-12.0,3.0,3.0,-1.0,-1.0,-6.0,-2.0,5.0
1705080594.506264,-9.0,0.0,-1.0,-3.0,0.0,1.0,-6.0,-3.0
1705080594.506264,-3.0,-9.0,-4.0,3.0,-1.0,1.0,0.0,0.0
1705080594.506264,-5.0,3.0,1.0,2.0,-1.0,2.0,-1.0,-1.0
1705080594.506264,4.0,-8.0,0.0,2.0,0.0,1.0,2.0,1.0
1705080594.5226223,13.0,3.0,-3.0,-1.0,6.0,2.0,2.0,-3.0
1705080594.5233312,-31.0,-6.0,-2.0,-3.0,0.0,1.0,-1.0,-10.0
1705080594.5238137,-7.0,-9.0,-4.0,0.0,-2.0,2.0,-1.0,-5.0
1705080594.5238137,-2.0,-7.0,-3.0,-3.0,-2.0,-6.0,0.0,8.0
1705080594.545454,9.0,7.0,-2.0,4.0,7.0,19.0,5.0,3.0
1705080594.545454,1.0,1.0,-4.0,-7.0,-22.0,-23.0,-16.0,-6.0
1705080594.5469773,-4.0,-1.0,-2.0,-5.0,-13.0,-24.0,-13.0,-11.0
1705080594.5469773,-10.0,-1.0,0.0,-3.0,-9.0,-6.0,-1.0,-4.0
1705080594.5569444,-4.0,1.0,-1.0,-2.0,2.0,9.0,0.0,2.0
1705080594.5569444,12.0,-3.0,0.0,3.0,9.0,13.0,9.0,4.0
1705080594.5569444,-15.0,7.0,3.0,4.0,6.0,10.0,4.0,9.0
1705080594.5569444,-25.0,-16.0,-5.0,-1.0,1.0,-2.0,-5.0,-13.0
1705080594.5772731,-5.0,-14.0,3.0,-2.0,-4.0,-7.0,0.0,4.0
1705080594.5772731,-14.0,-2.0,-18.0,-5.0,-2.0,1.0,-2.0,-5.0
1705080594.5772731,-14.0,26.0,3.0,-5.0,-6.0,-6.0,-4.0,-4.0
1705080594.5772731,13.0,-27.0,2.0,2.0,7.0,5.0,4.0,4.0
1705080594.5973806,-15.0,13.0,13.0,6.0,1.0,0.0,0.0,-1.0
1705080594.5973806,-16.0,-47.0,-7.0,-5.0,-6.0,-10.0,-8.0,-17.0
1705080594.5973806,7.0,38.0,12.0,6.0,2.0,6.0,4.0,4.0
1705080594.5973806,-8.0,-36.0,-36.0,-8.0,1.0,4.0,-5.0,-5.0
1705080594.61733,3.0,15.0,4.0,-5.0,-6.0,-8.0,-4.0,-2.0
1705080594.61733,20.0,4.0,15.0,6.0,2.0,2.0,3.0,10.0
1705080594.61733,4.0,-9.0,-6.0,-5.0,2.0,3.0,2.0,1.0
1705080594.61733,7.0,11.0,7.0,1.0,-5.0,-6.0,-4.0,-4.0
1705080594.6377077,-1.0,-3.0,-8.0,-3.0,0.0,-7.0,0.0,1.0
1705080594.6377077,2.0,14.0,-3.0,-6.0,-7.0,6.0,2.0,2.0
1705080594.6377077,24.0,-14.0,-3.0,-1.0,0.0,-3.0,-6.0,0.0
1705080594.6377077,-14.0,22.0,7.0,3.0,2.0,1.0,1.0,3.0
1705080594.657327,-32.0,-24.0,-5.0,1.0,-3.0,-9.0,-4.0,-5.0
1705080594.657327,-3.0,18.0,4.0,0.0,3.0,1.0,3.0,-3.0
1705080594.6673238,8.0,-6.0,-4.0,-4.0,-2.0,0.0,0.0,-2.0
1705080594.6673238,6.0,7.0,-1.0,-4.0,-3.0,-3.0,-2.0,-1.0
1705080594.6776989,16.0,0.0,-16.0,-8.0,-4.0,-2.0,-3.0,1.0
1705080594.6776989,-3.0,11.0,21.0,9.0,6.0,2.0,0.0,-5.0
1705080594.6776989,5.0,-12.0,-6.0,3.0,0.0,2.0,2.0,3.0
1705080594.6776989,-16.0,12.0,-6.0,-7.0,-2.0,-2.0,-4.0,-7.0
1705080594.6975315,18.0,2.0,-3.0,0.0,-1.0,1.0,2.0,6.0
1705080594.6975315,26.0,0.0,-7.0,-7.0,-1.0,-4.0,1.0,2.0
1705080594.7076986,-32.0,-21.0,-3.0,-5.0,-1.0,-2.0,-2.0,-10.0
1705080594.7076986,6.0,12.0,6.0,2.0,2.0,3.0,0.0,0.0
1705080594.7173266,1.0,-4.0,-5.0,-5.0,-5.0,-6.0,-4.0,-4.0
1705080594.7173266,17.0,15.0,4.0,2.0,2.0,-3.0,2.0,9.0
1705080594.7273266,-11.0,-1.0,6.0,5.0,2.0,2.0,0.0,-1.0
1705080594.7273266,2.0,-2.0,1.0,0.0,1.0,0.0,-1.0,-1.0
1705080594.737557,-1.0,-11.0,-6.0,0.0,-4.0,-1.0,0.0,0.0
1705080594.737557,-4.0,17.0,0.0,-3.0,-1.0,-1.0,-5.0,-4.0
1705080594.737557,6.0,-11.0,-8.0,-2.0,-2.0,3.0,1.0,-2.0
1705080594.737557,3.0,1.0,1.0,-2.0,-1.0,0.0,0.0,-3.0
1705080594.7576604,1.0,4.0,3.0,0.0,-1.0,-3.0,-1.0,-4.0
1705080594.7576604,4.0,-2.0,-5.0,0.0,0.0,-2.0,2.0,3.0
1705080594.7576604,4.0,-11.0,-5.0,-3.0,-2.0,0.0,-1.0,4.0
1705080594.7576604,-31.0,18.0,11.0,4.0,0.0,-3.0,-5.0,-12.0
1705080594.777331,-1.0,-8.0,-8.0,-2.0,-1.0,1.0,-3.0,-2.0
1705080594.777331,-4.0,1.0,-3.0,-3.0,-2.0,-2.0,0.0,0.0
1705080594.7973266,1.0,-16.0,1.0,2.0,2.0,1.0,1.0,6.0
1705080594.7973266,-2.0,-12.0,-6.0,-2.0,0.0,-3.0,-3.0,-9.0
1705080594.7973266,12.0,5.0,1.0,-1.0,0.0,-1.0,-2.0,3.0
1705080594.7973266,0.0,-5.0,-5.0,-3.0,-1.0,-1.0,1.0,-1.0
1705080594.7973266,-4.0,7.0,0.0,-3.0,-2.0,-3.0,-3.0,-2.0
1705080594.7973266,12.0,4.0,3.0,0.0,0.0,2.0,1.0,4.0
1705080594.817735,-37.0,-6.0,1.0,0.0,-1.0,-2.0,0.0,-5.0
1705080594.817735,8.0,-3.0,-2.0,1.0,-1.0,0.0,0.0,1.0
1705080594.817735,9.0,6.0,3.0,1.0,0.0,0.0,0.0,0.0
1705080594.817735,3.0,-5.0,-1.0,0.0,0.0,0.0,1.0,2.0
1705080594.8373249,-21.0,2.0,-3.0,-4.0,-3.0,-3.0,-2.0,-7.0
1705080594.8373249,8.0,-8.0,0.0,-1.0,-1.0,-1.0,0.0,0.0
1705080594.8473241,-29.0,-1.0,-2.0,-2.0,-2.0,-2.0,-5.0,-10.0
1705080594.8473241,16.0,5.0,-1.0,-3.0,0.0,-3.0,-4.0,0.0
1705080594.8575788,13.0,0.0,-2.0,-2.0,-1.0,-2.0,0.0,1.0
1705080594.8575788,-4.0,-2.0,0.0,0.0,0.0,0.0,0.0,-2.0
1705080594.8575788,1.0,5.0,3.0,-1.0,0.0,-1.0,0.0,-1.0
1705080594.8575788,5.0,-6.0,4.0,1.0,0.0,1.0,1.0,2.0
1705080594.877651,0.0,10.0,1.0,0.0,0.0,-2.0,-4.0,-3.0
1705080594.877651,-4.0,0.0,-4.0,-1.0,-2.0,-3.0,-2.0,1.0
1705080594.877651,5.0,-1.0,-2.0,-4.0,-1.0,-4.0,-3.0,-2.0
1705080594.877651,0.0,4.0,4.0,0.0,1.0,0.0,1.0,1.0
1705080594.9073274,-8.0,-15.0,-9.0,-2.0,-2.0,-2.0,0.0,-4.0
1705080594.9073274,5.0,0.0,-4.0,-2.0,-1.0,-2.0,-1.0,-3.0
1705080594.9073274,-1.0,-2.0,-4.0,0.0,0.0,0.0,0.0,-1.0
1705080594.9073274,8.0,0.0,4.0,0.0,0.0,-2.0,-1.0,2.0
1705080594.9176855,-6.0,-5.0,-2.0,3.0,-1.0,0.0,0.0,1.0
1705080594.9176855,0.0,1.0,1.0,1.0,-1.0,-2.0,-4.0,-2.0
1705080594.9176855,-5.0,3.0,-5.0,-3.0,-2.0,-3.0,-3.0,-2.0
1705080594.9176855,-5.0,-12.0,-7.0,-3.0,1.0,0.0,-1.0,1.0
1705080594.9377553,14.0,9.0,5.0,-1.0,-1.0,-2.0,-1.0,-1.0
1705080594.9377553,9.0,10.0,1.0,0.0,0.0,0.0,0.0,2.0
1705080594.9377553,2.0,-11.0,-1.0,1.0,0.0,1.0,0.0,-9.0
1705080594.9377553,-3.0,-2.0,-2.0,0.0,-2.0,1.0,-2.0,-2.0
1705080594.9473264,7.0,3.0,0.0,-4.0,0.0,-1.0,-1.0,0.0
1705080594.9473264,-4.0,-7.0,0.0,-2.0,-2.0,0.0,-1.0,-1.0
1705080594.9574423,9.0,4.0,1.0,0.0,-1.0,-3.0,1.0,4.0
1705080594.9574423,-5.0,4.0,-2.0,0.0,-1.0,-2.0,-1.0,-2.0
1705080594.977739,-3.0,-1.0,2.0,1.0,-1.0,-1.0,-3.0,-2.0
1705080594.977739,2.0,-3.0,0.0,-1.0,0.0,0.0,-1.0,1.0
1705080594.977739,-6.0,-1.0,-6.0,-2.0,-3.0,-2.0,-4.0,0.0
1705080594.977739,-1.0,8.0,0.0,-1.0,-4.0,-2.0,-3.0,1.0
1705080595.0032158,0.0,-5.0,3.0,-3.0,-4.0,-1.0,-2.0,-4.0
1705080595.0032158,-7.0,-2.0,0.0,2.0,1.0,-1.0,1.0,-1.0
1705080595.0043914,-5.0,-5.0,-4.0,-2.0,0.0,1.0,1.0,2.0
1705080595.0043914,2.0,6.0,-11.0,-5.0,-1.0,-2.0,1.0,2.0
1705080595.0164654,2.0,31.0,16.0,2.0,0.0,-3.0,-7.0,-7.0
1705080595.0164654,-1.0,-12.0,-7.0,0.0,1.0,0.0,-2.0,-3.0
1705080595.0236738,-16.0,-9.0,-2.0,-3.0,-2.0,0.0,0.0,-6.0
1705080595.0236738,13.0,0.0,0.0,0.0,-1.0,-1.0,0.0,0.0
1705080595.034107,0.0,-3.0,-5.0,-2.0,0.0,1.0,1.0,2.0
1705080595.034107,-4.0,1.0,0.0,-1.0,-1.0,-3.0,-2.0,0.0
1705080595.034107,16.0,12.0,5.0,3.0,1.0,-1.0,-2.0,1.0
1705080595.034107,-50.0,-20.0,-4.0,-2.0,-3.0,-1.0,-6.0,-8.0
1705080595.0536776,1.0,-8.0,-4.0,-2.0,-1.0,-2.0,-2.0,-7.0
1705080595.0536776,-10.0,1.0,-2.0,-3.0,-3.0,-2.0,-1.0,-3.0
1705080595.0636744,11.0,-1.0,-2.0,-2.0,-1.0,-1.0,0.0,2.0
1705080595.0636744,1.0,-5.0,1.0,0.0,-2.0,-1.0,-2.0,-1.0
1705080595.0740464,4.0,5.0,-2.0,-1.0,-3.0,-1.0,0.0,1.0
1705080595.0740464,-12.0,-9.0,-4.0,-2.0,-2.0,-2.0,-1.0,-2.0
1705080595.0844235,0.0,6.0,3.0,0.0,0.0,-1.0,0.0,-2.0
1705080595.0844235,-1.0,-7.0,-2.0,1.0,2.0,1.0,1.0,-1.0
1705080595.0944524,-2.0,-4.0,-2.0,-3.0,-1.0,-1.0,2.0,2.0
1705080595.0944524,8.0,-2.0,3.0,0.0,-1.0,0.0,-1.0,0.0
1705080595.0944524,-7.0,-4.0,-2.0,-4.0,-3.0,-2.0,-2.0,-1.0
1705080595.0944524,5.0,7.0,-5.0,-2.0,-3.0,-1.0,1.0,0.0
1705080595.1140783,6.0,-5.0,-1.0,-1.0,0.0,1.0,2.0,4.0
1705080595.1140783,-2.0,13.0,12.0,11.0,3.0,2.0,-2.0,-3.0
1705080595.1241226,-14.0,-26.0,-17.0,-3.0,-3.0,-1.0,-2.0,-1.0
1705080595.1241226,-3.0,-2.0,-1.0,-1.0,-1.0,0.0,-2.0,-1.0
1705080595.1344285,1.0,-13.0,-9.0,-4.0,-2.0,-1.0,-2.0,4.0
1705080595.1344285,-2.0,-3.0,-5.0,-10.0,-3.0,-2.0,-2.0,0.0
1705080595.144372,3.0,13.0,16.0,9.0,3.0,1.0,0.0,-1.0
1705080595.144372,3.0,4.0,-4.0,2.0,-2.0,-3.0,1.0,1.0
1705080595.1544342,0.0,-2.0,-1.0,0.0,0.0,0.0,-1.0,-3.0
1705080595.1544342,3.0,-8.0,-4.0,-3.0,-1.0,0.0,-3.0,-1.0
1705080595.1544342,0.0,0.0,-3.0,-4.0,-2.0,-2.0,-1.0,1.0
1705080595.1544342,1.0,2.0,2.0,-3.0,-1.0,-3.0,1.0,0.0
1705080595.1744454,1.0,-4.0,2.0,6.0,4.0,0.0,1.0,2.0
1705080595.1744454,-3.0,6.0,2.0,2.0,0.0,-1.0,-1.0,-2.0
1705080595.184086,5.0,3.0,-4.0,-1.0,-3.0,0.0,0.0,3.0
1705080595.184086,-1.0,-7.0,-2.0,-1.0,-3.0,-3.0,-4.0,-9.0
1705080595.1940763,10.0,-2.0,-4.0,-1.0,0.0,-1.0,-1.0,2.0
1705080595.1940763,-12.0,-8.0,2.0,2.0,0.0,1.0,0.0,-1.0
1705080595.2044227,3.0,2.0,-1.0,-1.0,1.0,1.0,-2.0,-2.0
1705080595.2044227,2.0,5.0,3.0,-3.0,0.0,-1.0,0.0,3.0
1705080595.2144558,11.0,5.0,-2.0,-3.0,-2.0,-1.0,-2.0,-1.0
1705080595.2144558,-1.0,-3.0,-8.0,-9.0,-4.0,-3.0,0.0,0.0
1705080595.2144558,-9.0,0.0,2.0,-3.0,-2.0,-1.0,0.0,-1.0
1705080595.2144558,4.0,2.0,-2.0,5.0,4.0,2.0,1.0,1.0
1705080595.2340777,-9.0,-1.0,-2.0,-8.0,-2.0,0.0,-1.0,-3.0
1705080595.2340777,-3.0,0.0,6.0,12.0,2.0,-1.0,-2.0,-4.0
1705080595.2441194,4.0,6.0,-12.0,-6.0,-3.0,-3.0,-2.0,-1.0
1705080595.2441194,-4.0,6.0,7.0,-6.0,-3.0,-1.0,-4.0,-2.0
1705080595.2544706,-2.0,0.0,4.0,9.0,0.0,0.0,1.0,2.0
1705080595.2544706,-6.0,3.0,-12.0,-9.0,-6.0,-2.0,0.0,-3.0
1705080595.2644346,-5.0,2.0,1.0,1.0,0.0,-2.0,1.0,-2.0
1705080595.2644346,17.0,1.0,0.0,-1.0,-1.0,0.0,1.0,3.0
1705080595.284078,0.0,-9.0,-9.0,-4.0,-3.0,-1.0,-3.0,-10.0
1705080595.284078,-1.0,4.0,8.0,-2.0,-2.0,0.0,-3.0,-2.0
1705080595.284078,2.0,-4.0,0.0,2.0,-1.0,1.0,-1.0,0.0
1705080595.284078,2.0,2.0,-2.0,-3.0,-1.0,-2.0,2.0,-1.0
1705080595.294293,-6.0,-4.0,0.0,-1.0,0.0,-2.0,-3.0,-1.0
1705080595.294293,9.0,-4.0,-6.0,-3.0,-1.0,-1.0,1.0,1.0
1705080595.3041384,-6.0,-2.0,3.0,2.0,0.0,-2.0,-2.0,-3.0
1705080595.3041384,0.0,-5.0,-1.0,0.0,0.0,-3.0,0.0,-1.0
1705080595.3143117,-1.0,6.0,1.0,1.0,-2.0,-1.0,0.0,-1.0
1705080595.3143117,-2.0,0.0,3.0,-1.0,-1.0,-2.0,-1.0,0.0
1705080595.3243158,4.0,-3.0,-11.0,-6.0,-3.0,0.0,-2.0,1.0
1705080595.3243158,-18.0,-16.0,-7.0,0.0,-2.0,0.0,-4.0,-7.0
1705080595.354078,-9.0,-8.0,0.0,-2.0,-2.0,-3.0,-2.0,-3.0
1705080595.354078,1.0,5.0,-7.0,-4.0,-3.0,-2.0,0.0,0.0
1705080595.354078,-3.0,-19.0,5.0,0.0,0.0,-4.0,-4.0,-4.0
1705080595.354078,24.0,26.0,5.0,3.0,0.0,1.0,1.0,4.0
1705080595.354078,-23.0,-9.0,-5.0,0.0,0.0,-3.0,-1.0,-1.0
1705080595.354078,2.0,-17.0,-4.0,0.0,0.0,1.0,0.0,-1.0
1705080595.3641143,0.0,8.0,-3.0,-3.0,-1.0,-5.0,0.0,-1.0
1705080595.3641143,-8.0,-9.0,1.0,-1.0,-2.0,4.0,-3.0,-2.0
1705080595.3844209,14.0,12.0,2.0,-1.0,-2.0,-1.0,-1.0,6.0
1705080595.3844209,-26.0,9.0,1.0,-3.0,-1.0,-3.0,-1.0,-5.0
1705080595.3844209,0.0,-13.0,0.0,0.0,-2.0,-5.0,-2.0,-3.0
1705080595.3844209,-9.0,-18.0,-2.0,-2.0,10.0,10.0,-2.0,-4.0
1705080595.404431,6.0,16.0,-1.0,-2.0,-13.0,-1.0,-1.0,2.0
1705080595.404431,9.0,3.0,1.0,1.0,1.0,2.0,-1.0,-1.0
1705080595.404431,-5.0,3.0,0.0,-1.0,-2.0,-3.0,1.0,0.0
1705080595.404431,2.0,3.0,-1.0,0.0,-4.0,-6.0,-1.0,1.0
1705080595.4148264,-10.0,-16.0,-15.0,-7.0,5.0,1.0,-4.0,-5.0
1705080595.4148264,2.0,2.0,0.0,1.0,-2.0,-4.0,-3.0,1.0
1705080595.4244804,-5.0,3.0,7.0,1.0,1.0,4.0,-2.0,0.0
1705080595.4244804,7.0,5.0,1.0,-2.0,-5.0,-6.0,-1.0,0.0
1705080595.4448588,29.0,-4.0,3.0,1.0,1.0,-1.0,1.0,7.0
1705080595.4448588,-39.0,-14.0,-7.0,-4.0,-4.0,-3.0,-2.0,-10.0
1705080595.4448588,25.0,13.0,1.0,2.0,0.0,0.0,0.0,1.0
1705080595.4448588,-24.0,0.0,-1.0,-4.0,1.0,-3.0,-2.0,-7.0
1705080595.4644334,14.0,-1.0,4.0,-2.0,0.0,-1.0,1.0,5.0
1705080595.4644334,15.0,12.0,1.0,4.0,4.0,3.0,-1.0,-1.0
1705080595.4644334,-3.0,-2.0,0.0,0.0,-1.0,0.0,-2.0,0.0
1705080595.4644334,0.0,1.0,-1.0,-2.0,-3.0,-1.0,0.0,3.0
1705080595.4747062,-2.0,-5.0,6.0,1.0,2.0,-1.0,-1.0,1.0
1705080595.4747062,-11.0,3.0,3.0,4.0,-1.0,-4.0,-3.0,-2.0
1705080595.4846587,-12.0,3.0,-3.0,-1.0,-2.0,-1.0,-1.0,-4.0
1705080595.4846587,4.0,-5.0,-1.0,0.0,-3.0,-4.0,0.0,1.0
1705080595.5260556,-8.0,-1.0,18.0,5.0,2.0,1.0,0.0,-2.0
1705080595.5260556,2.0,19.0,-16.0,-14.0,-5.0,-5.0,-3.0,-4.0
1705080595.5260556,4.0,7.0,2.0,0.0,-1.0,4.0,-2.0,-2.0
1705080595.5260556,8.0,-6.0,-3.0,-2.0,1.0,0.0,1.0,7.0
1705080595.5260556,-7.0,1.0,5.0,2.0,2.0,0.0,-1.0,-6.0
1705080595.5260556,52.0,8.0,13.0,5.0,-3.0,-3.0,5.0,20.0
1705080595.5260556,-49.0,-13.0,-6.0,-3.0,-2.0,-2.0,-2.0,-12.0
1705080595.5260556,-47.0,-20.0,-9.0,-4.0,-9.0,-10.0,-6.0,-15.0
1705080595.5430539,7.0,5.0,0.0,0.0,4.0,7.0,-2.0,0.0
1705080595.543767,10.0,10.0,2.0,-1.0,2.0,2.0,3.0,5.0
1705080595.543767,6.0,-9.0,-13.0,-6.0,3.0,-3.0,2.0,7.0
1705080595.543767,30.0,12.0,7.0,3.0,-9.0,-2.0,1.0,5.0
1705080595.5660038,-15.0,1.0,-4.0,2.0,1.0,-10.0,0.0,-4.0
1705080595.5660038,-8.0,-8.0,-3.0,-7.0,-7.0,8.0,-6.0,-5.0
1705080595.5660038,7.0,4.0,7.0,2.0,-2.0,0.0,-3.0,0.0
1705080595.5660038,-7.0,-8.0,-6.0,-4.0,0.0,-7.0,-2.0,-2.0
1705080595.576295,-1.0,5.0,-4.0,-2.0,-2.0,-2.0,-2.0,-1.0
1705080595.576295,-2.0,-10.0,3.0,6.0,3.0,-4.0,2.0,0.0
1705080595.5862725,3.0,0.0,0.0,-1.0,0.0,-5.0,-3.0,0.0
1705080595.5862725,0.0,-7.0,-3.0,-1.0,3.0,5.0,-1.0,-1.0
1705080595.5962734,3.0,1.0,-1.0,-3.0,-4.0,-6.0,-1.0,6.0
1705080595.5962734,5.0,-7.0,-6.0,-4.0,2.0,0.0,-3.0,-1.0
1705080595.6041613,24.0,41.0,14.0,5.0,2.0,6.0,0.0,4.0
1705080595.6041613,-33.0,-54.0,-30.0,-9.0,-1.0,-3.0,-8.0,-22.0
1705080595.632354,88.0,55.0,19.0,10.0,2.0,3.0,15.0,47.0
1705080595.632354,23.0,-67.0,-21.0,-8.0,-5.0,-7.0,-16.0,-45.0
1705080595.632354,73.0,42.0,13.0,-1.0,1.0,2.0,6.0,8.0
1705080595.632354,32.0,43.0,12.0,2.0,2.0,0.0,1.0,-1.0
1705080595.6391833,9.0,3.0,1.0,1.0,2.0,6.0,4.0,8.0
1705080595.6391833,-5.0,2.0,3.0,2.0,-1.0,-2.0,0.0,12.0
1705080595.6465816,-39.0,-35.0,-11.0,-3.0,2.0,-6.0,-7.0,-10.0
1705080595.6465816,14.0,19.0,10.0,6.0,1.0,-3.0,4.0,11.0
1705080595.676476,-51.0,-25.0,-14.0,-6.0,-9.0,0.0,-8.0,-21.0
1705080595.676476,-8.0,12.0,1.0,-2.0,-1.0,-3.0,1.0,8.0
1705080595.676476,-25.0,-24.0,-6.0,-5.0,-7.0,1.0,-3.0,-12.0
1705080595.676476,-10.0,5.0,-4.0,-6.0,-3.0,0.0,-1.0,6.0
1705080595.6853237,-11.0,-7.0,4.0,2.0,-2.0,-7.0,-8.0,-15.0
1705080595.6853237,-15.0,-11.0,0.0,4.0,3.0,1.0,2.0,-3.0
1705080595.6863441,9.0,0.0,-2.0,-2.0,-2.0,-1.0,1.0,6.0
1705080595.6863441,12.0,5.0,-2.0,-2.0,0.0,-2.0,-1.0,2.0
1705080595.6994936,-21.0,-21.0,-9.0,-15.0,-8.0,-6.0,-4.0,-13.0
1705080595.6994936,13.0,15.0,3.0,2.0,2.0,0.0,2.0,6.0
1705080595.7068863,-7.0,-13.0,-6.0,-3.0,-1.0,-2.0,-2.0,-3.0
1705080595.7068863,-1.0,5.0,3.0,2.0,-2.0,1.0,-2.0,5.0
1705080595.722303,-39.0,-29.0,-12.0,-8.0,-4.0,-4.0,-10.0,-17.0
1705080595.723264,15.0,21.0,1.0,-2.0,-1.0,1.0,3.0,4.0
1705080595.724353,-17.0,4.0,-2.0,-1.0,-2.0,-2.0,-5.0,-6.0
1705080595.724353,5.0,-2.0,2.0,3.0,3.0,1.0,2.0,-1.0
1705080595.7453666,9.0,-8.0,-8.0,-1.0,0.0,1.0,2.0,4.0
1705080595.7453666,-9.0,2.0,3.0,-1.0,-2.0,-1.0,2.0,4.0
1705080595.74737,-8.0,-11.0,-9.0,-1.0,-3.0,-2.0,0.0,-2.0
1705080595.74737,18.0,8.0,3.0,1.0,0.0,1.0,-2.0,2.0
1705080595.7558923,-8.0,-5.0,0.0,4.0,-1.0,-1.0,-1.0,-5.0
1705080595.7558923,-7.0,-4.0,-8.0,-4.0,-4.0,-3.0,-2.0,-2.0
1705080595.7662168,1.0,-17.0,-14.0,-7.0,-4.0,-1.0,1.0,-3.0
1705080595.7662168,-8.0,4.0,5.0,7.0,4.0,1.0,0.0,-3.0
1705080595.7762027,5.0,1.0,0.0,2.0,1.0,-1.0,-3.0,-3.0
1705080595.7762027,-8.0,-7.0,3.0,0.0,0.0,-3.0,-4.0,-3.0
1705080595.7762027,1.0,0.0,-2.0,-6.0,-4.0,-1.0,-3.0,2.0
1705080595.7762027,-2.0,27.0,21.0,-2.0,-1.0,-1.0,-3.0,-3.0
1705080595.8058794,27.0,-11.0,-23.0,1.0,-1.0,2.0,0.0,1.0
1705080595.8058794,-40.0,-3.0,-1.0,-1.0,0.0,0.0,-2.0,-6.0
1705080595.8058794,8.0,-6.0,8.0,-1.0,0.0,-1.0,-1.0,-3.0
1705080595.8058794,1.0,-12.0,-4.0,-2.0,-1.0,-1.0,-3.0,-2.0
1705080595.8159099,-1.0,7.0,-5.0,-7.0,-3.0,-3.0,0.0,1.0
1705080595.8159099,33.0,18.0,13.0,8.0,2.0,3.0,4.0,4.0
1705080595.8262436,-8.0,-4.0,-5.0,1.0,-1.0,-1.0,-3.0,-7.0
1705080595.8262436,-12.0,-14.0,-8.0,-5.0,-2.0,-2.0,-2.0,-5.0
1705080595.8361475,-2.0,7.0,3.0,-2.0,0.0,-1.0,2.0,2.0
1705080595.8361475,7.0,-11.0,-7.0,-3.0,-2.0,-4.0,0.0,0.0
1705080595.8459177,2.0,10.0,8.0,6.0,3.0,1.0,2.0,2.0
1705080595.8459177,16.0,-8.0,-3.0,0.0,-2.0,0.0,-3.0,1.0
1705080595.8659282,-26.0,4.0,4.0,0.0,0.0,-2.0,-4.0,-9.0
1705080595.8659282,-7.0,-18.0,-6.0,-5.0,-2.0,-1.0,-2.0,-1.0
1705080595.8659282,1.0,-3.0,-1.0,0.0,0.0,2.0,4.0,7.0
1705080595.8659282,-16.0,-8.0,-6.0,-4.0,-2.0,-4.0,-6.0,-6.0
1705080595.8762085,7.0,10.0,6.0,4.0,3.0,-1.0,-1.0,-1.0
1705080595.8762085,-6.0,1.0,4.0,-2.0,-2.0,-1.0,0.0,-1.0
1705080595.8863506,5.0,0.0,1.0,-1.0,1.0,-2.0,-1.0,5.0
1705080595.8863506,-1.0,-13.0,-11.0,-3.0,-3.0,-1.0,1.0,-2.0
1705080595.902578,-6.0,-4.0,2.0,3.0,-1.0,-2.0,-3.0,-5.0
1705080595.902578,10.0,16.0,6.0,1.0,-1.0,1.0,1.0,0.0
1705080595.9044216,-4.0,-16.0,-5.0,-1.0,-1.0,-3.0,-2.0,0.0
1705080595.9054224,6.0,15.0,0.0,-5.0,0.0,-2.0,0.0,-1.0
1705080595.9256604,10.0,-6.0,-2.0,-3.0,-5.0,-2.0,-1.0,-2.0
1705080595.9266555,-31.0,-5.0,-3.0,2.0,-1.0,-3.0,-4.0,-4.0
1705080595.9276457,-1.0,14.0,6.0,0.0,3.0,3.0,-2.0,-3.0
1705080595.9276457,-6.0,-20.0,-8.0,-2.0,-3.0,2.0,-3.0,-2.0
1705080595.9389455,-2.0,4.0,5.0,-2.0,-6.0,0.0,0.0,6.0
1705080595.9389455,9.0,-1.0,-5.0,-5.0,-1.0,-8.0,0.0,0.0
1705080595.9479709,-13.0,-23.0,-2.0,0.0,-1.0,5.0,-2.0,-2.0
1705080595.9479709,-6.0,-8.0,-2.0,1.0,1.0,-4.0,2.0,0.0
1705080595.9655933,8.0,17.0,0.0,-6.0,2.0,-2.0,-3.0,-4.0
1705080595.9655933,-3.0,-4.0,4.0,4.0,-7.0,1.0,-1.0,1.0
1705080595.9655933,20.0,31.0,7.0,-1.0,-4.0,3.0,-1.0,2.0
1705080595.9655933,-23.0,-24.0,-14.0,-3.0,-1.0,0.0,2.0,-2.0
1705080595.9860933,-20.0,-3.0,-4.0,-3.0,-6.0,-13.0,-2.0,-4.0
1705080595.9860933,40.0,6.0,-1.0,0.0,6.0,5.0,-2.0,3.0
1705080595.988098,7.0,1.0,6.0,3.0,-1.0,-5.0,-1.0,1.0
1705080595.988098,33.0,20.0,9.0,5.0,3.0,1.0,0.0,-2.0
1705080595.9990377,-13.0,0.0,-2.0,-1.0,4.0,4.0,1.0,-2.0
1705080595.9990377,-2.0,-21.0,-13.0,-8.0,-6.0,-5.0,-6.0,-3.0
1705080596.0080998,-1.0,-41.0,1.0,5.0,3.0,-1.0,3.0,7.0
1705080596.0080998,2.0,18.0,-9.0,-4.0,-4.0,-3.0,-5.0,-4.0
1705080596.0253904,6.0,6.0,-2.0,-1.0,4.0,2.0,0.0,-1.0
1705080596.0253904,-10.0,-35.0,-9.0,0.0,2.0,-5.0,0.0,0.0
1705080596.0253904,-12.0,12.0,2.0,-1.0,-6.0,25.0,2.0,1.0
1705080596.0253904,5.0,31.0,23.0,7.0,7.0,-3.0,6.0,11.0
1705080596.0458648,-25.0,-64.0,-32.0,-10.0,-13.0,19.0,7.0,-9.0
1705080596.0458648,-24.0,-13.0,-8.0,-2.0,-3.0,-21.0,-8.0,3.0
1705080596.046823,-19.0,-3.0,2.0,-2.0,-9.0,-11.0,-19.0,-15.0
1705080596.046823,-4.0,1.0,6.0,3.0,1.0,2.0,-1.0,-2.0
1705080596.0591626,42.0,34.0,17.0,8.0,8.0,4.0,5.0,25.0
1705080596.0591626,-9.0,5.0,1.0,-2.0,4.0,14.0,6.0,-4.0
1705080596.0681756,12.0,0.0,-11.0,-3.0,-3.0,-14.0,0.0,-11.0
1705080596.0681756,-6.0,-21.0,-1.0,-7.0,-8.0,-1.0,-6.0,0.0
1705080596.0836275,-22.0,2.0,1.0,2.0,3.0,-6.0,-4.0,-7.0
1705080596.0836275,3.0,11.0,10.0,4.0,0.0,4.0,1.0,4.0
1705080596.0836275,4.0,21.0,-2.0,-4.0,1.0,-2.0,0.0,4.0
1705080596.0836275,2.0,11.0,2.0,0.0,-5.0,-5.0,-2.0,-7.0
1705080596.098925,1.0,-20.0,-4.0,-1.0,-1.0,-6.0,-3.0,-3.0
1705080596.098925,-1.0,10.0,8.0,-1.0,-9.0,4.0,-3.0,-2.0
1705080596.098925,-6.0,-5.0,-4.0,-2.0,3.0,-8.0,2.0,5.0
1705080596.098925,-11.0,-34.0,-7.0,-3.0,4.0,14.0,-1.0,-7.0
1705080596.1288314,-4.0,2.0,1.0,-3.0,-3.0,-7.0,-6.0,-4.0
1705080596.1288314,6.0,36.0,5.0,-1.0,2.0,4.0,-2.0,-3.0
1705080596.1288314,12.0,5.0,-1.0,-1.0,-10.0,-16.0,1.0,0.0
1705080596.1288314,-2.0,-3.0,-12.0,-7.0,-9.0,-4.0,-1.0,-1.0
1705080596.1391866,11.0,31.0,18.0,7.0,4.0,4.0,0.0,3.0
1705080596.1391866,-4.0,-30.0,-15.0,-8.0,-4.0,0.0,-1.0,-4.0
1705080596.1391866,-4.0,11.0,-5.0,-2.0,5.0,0.0,1.0,-2.0
1705080596.1391866,-6.0,-3.0,0.0,-1.0,2.0,1.0,-4.0,-1.0
1705080596.159013,-3.0,-10.0,-12.0,-5.0,-9.0,-4.0,-1.0,-3.0
1705080596.159013,2.0,0.0,-12.0,-5.0,-1.0,-5.0,2.0,-1.0
1705080596.159013,-1.0,-6.0,8.0,2.0,-1.0,4.0,1.0,1.0
1705080596.159013,-6.0,12.0,12.0,-7.0,-6.0,-8.0,-5.0,-3.0
1705080596.1791542,8.0,-1.0,7.0,20.0,12.0,6.0,3.0,0.0
1705080596.1791542,4.0,-21.0,-4.0,-1.0,-1.0,-4.0,-4.0,-3.0
1705080596.1888318,-29.0,-6.0,-22.0,-10.0,-3.0,2.0,-3.0,-5.0
1705080596.1888318,9.0,16.0,2.0,-1.0,-4.0,-1.0,2.0,3.0
1705080596.209255,0.0,-2.0,-3.0,-18.0,-11.0,-9.0,-8.0,-2.0
1705080596.209255,-7.0,3.0,4.0,2.0,3.0,0.0,-3.0,-2.0
1705080596.209255,11.0,18.0,19.0,11.0,6.0,3.0,0.0,2.0
1705080596.209255,-1.0,-6.0,-4.0,2.0,5.0,-1.0,1.0,2.0
1705080596.219243,-3.0,-7.0,-2.0,-4.0,-9.0,-10.0,-5.0,-4.0
1705080596.219243,1.0,14.0,5.0,0.0,2.0,5.0,4.0,-4.0
1705080596.219243,1.0,-7.0,-5.0,-1.0,10.0,-4.0,-8.0,1.0
1705080596.219243,-6.0,8.0,3.0,5.0,-10.0,4.0,9.0,-4.0
1705080596.2490854,1.0,-26.0,-15.0,-9.0,-9.0,-6.0,0.0,-3.0
1705080596.2490854,2.0,2.0,3.0,-2.0,0.0,7.0,0.0,-1.0
1705080596.2490854,-5.0,-5.0,-7.0,-7.0,-9.0,-10.0,-12.0,-7.0
1705080596.2490854,0.0,0.0,1.0,8.0,-3.0,-7.0,-4.0,1.0
1705080596.259248,7.0,-10.0,0.0,0.0,12.0,14.0,2.0,-9.0
1705080596.259248,7.0,22.0,5.0,1.0,-3.0,-11.0,8.0,9.0
1705080596.259248,-7.0,-11.0,-2.0,-3.0,-5.0,1.0,6.0,-3.0
1705080596.259248,6.0,-7.0,-7.0,-7.0,5.0,-5.0,-3.0,1.0
1705080596.2792268,-7.0,23.0,7.0,1.0,-2.0,-3.0,-4.0,10.0
1705080596.2792268,-29.0,-42.0,-10.0,1.0,2.0,0.0,-8.0,-23.0
1705080596.2792268,15.0,4.0,6.0,2.0,9.0,6.0,7.0,3.0
1705080596.2792268,-5.0,-5.0,-8.0,-9.0,-13.0,2.0,-1.0,11.0
1705080596.298831,18.0,10.0,1.0,-3.0,-12.0,-11.0,-1.0,-6.0
1705080596.298831,-15.0,1.0,6.0,1.0,5.0,2.0,-24.0,5.0
1705080596.298831,15.0,-3.0,-3.0,5.0,-7.0,-27.0,1.0,2.0
1705080596.298831,-20.0,-8.0,-4.0,-2.0,13.0,20.0,6.0,8.0
1705080596.3192554,-11.0,-2.0,-7.0,-6.0,-13.0,1.0,13.0,0.0
1705080596.3192554,17.0,13.0,9.0,4.0,6.0,-2.0,3.0,-4.0
1705080596.3192554,-6.0,-7.0,-3.0,-5.0,-5.0,3.0,-2.0,-4.0
1705080596.3192554,1.0,-17.0,3.0,3.0,1.0,-8.0,3.0,4.0
1705080596.348831,4.0,-16.0,0.0,2.0,7.0,3.0,-16.0,-18.0
1705080596.348831,3.0,-1.0,-17.0,-3.0,-2.0,-3.0,4.0,1.0
1705080596.348831,1.0,8.0,4.0,4.0,1.0,2.0,2.0,25.0
1705080596.348831,28.0,2.0,5.0,4.0,2.0,12.0,17.0,-15.0
1705080596.3591168,-29.0,-6.0,4.0,-2.0,-3.0,-10.0,-21.0,-14.0
1705080596.3688378,-17.0,-46.0,-17.0,-15.0,-9.0,-9.0,1.0,-4.0
1705080596.3688378,7.0,17.0,6.0,4.0,-1.0,-1.0,-1.0,3.0
1705080596.3688378,-12.0,10.0,-7.0,3.0,8.0,23.0,-5.0,2.0
1705080596.3790934,13.0,13.0,2.0,0.0,-1.0,-2.0,13.0,-7.0
1705080596.3790934,-5.0,17.0,4.0,-5.0,-7.0,4.0,-17.0,-10.0
1705080596.38912,-7.0,-14.0,-6.0,-9.0,-11.0,-8.0,1.0,-5.0
1705080596.38912,4.0,-8.0,-1.0,0.0,2.0,-20.0,-6.0,0.0
1705080596.4188724,30.0,41.0,13.0,11.0,12.0,29.0,11.0,17.0
1705080596.4188724,-82.0,-28.0,-11.0,-3.0,-3.0,-4.0,1.0,-21.0
1705080596.4188724,4.0,4.0,-1.0,-4.0,-4.0,-9.0,-16.0,-2.0
1705080596.4188724,-21.0,-25.0,-10.0,-13.0,-15.0,-19.0,-5.0,-18.0
1705080596.4188724,4.0,-9.0,-15.0,-8.0,1.0,-5.0,-5.0,10.0
1705080596.4188724,38.0,66.0,29.0,17.0,4.0,5.0,7.0,16.0
1705080596.4289193,-13.0,-14.0,-17.0,-13.0,-4.0,4.0,0.0,-3.0
1705080596.4289193,9.0,13.0,-4.0,-9.0,-1.0,-7.0,-5.0,0.0
1705080596.4392192,-19.0,-16.0,12.0,6.0,2.0,-5.0,-3.0,-4.0
1705080596.4392192,36.0,8.0,6.0,9.0,6.0,9.0,6.0,15.0
1705080596.4492114,-4.0,0.0,-5.0,2.0,3.0,8.0,8.0,-7.0
1705080596.4492114,10.0,19.0,3.0,-5.0,-4.0,-7.0,-6.0,0.0
1705080596.4688873,-17.0,-30.0,-7.0,-4.0,1.0,8.0,0.0,-3.0
1705080596.4688873,13.0,14.0,7.0,8.0,0.0,-6.0,4.0,4.0
1705080596.4688873,3.0,1.0,0.0,3.0,4.0,7.0,1.0,0.0
1705080596.4688873,-24.0,-16.0,-17.0,-15.0,-9.0,-13.0,-10.0,-10.0
1705080596.4791007,7.0,6.0,0.0,-9.0,-2.0,4.0,-4.0,6.0
1705080596.4888926,1.0,-16.0,-12.0,-6.0,-6.0,-5.0,1.0,-2.0
1705080596.4888926,-6.0,9.0,14.0,-7.0,1.0,3.0,-1.0,-6.0
1705080596.4888926,8.0,-11.0,-2.0,19.0,8.0,7.0,-1.0,4.0
1705080596.4989123,-10.0,11.0,-12.0,-7.0,-4.0,-7.0,-2.0,-6.0
1705080596.4989123,13.0,8.0,18.0,0.0,0.0,-1.0,-1.0,1.0
1705080596.5088856,-9.0,-22.0,-1.0,9.0,5.0,6.0,2.0,-4.0
1705080596.5088856,10.0,25.0,13.0,-15.0,-8.0,-6.0,-1.0,2.0
1705080596.518992,-14.0,-14.0,-4.0,9.0,2.0,-6.0,-4.0,-7.0
1705080596.518992,-11.0,-8.0,-12.0,-2.0,-2.0,-2.0,0.0,3.0
1705080596.518992,6.0,6.0,0.0,-10.0,-5.0,-1.0,-1.0,2.0
1705080596.518992,-6.0,-3.0,7.0,8.0,1.0,-1.0,-1.0,2.0
1705080596.5393279,1.0,-2.0,-10.0,-5.0,-3.0,-6.0,0.0,1.0
1705080596.5393279,8.0,-2.0,-10.0,-11.0,-3.0,0.0,2.0,3.0
1705080596.5489287,-12.0,3.0,-3.0,4.0,-2.0,1.0,-3.0,-12.0
1705080596.5489287,14.0,-19.0,-12.0,-5.0,-1.0,0.0,-3.0,5.0
1705080596.5591218,3.0,9.0,10.0,0.0,0.0,1.0,2.0,4.0
1705080596.5591218,1.0,0.0,6.0,4.0,-2.0,0.0,1.0,1.0
1705080596.5788856,-7.0,-8.0,-8.0,-5.0,-2.0,0.0,0.0,-13.0
1705080596.5788856,-10.0,6.0,7.0,5.0,0.0,-2.0,0.0,5.0
1705080596.5788856,-19.0,1.0,4.0,2.0,-1.0,-9.0,-4.0,-6.0
1705080596.5788856,55.0,2.0,-7.0,-1.0,2.0,12.0,7.0,12.0
1705080596.5788856,-9.0,0.0,3.0,2.0,5.0,-7.0,0.0,3.0
1705080596.5788856,6.0,-2.0,0.0,4.0,-15.0,3.0,1.0,-3.0
1705080596.6082692,7.0,5.0,1.0,0.0,9.0,12.0,10.0,16.0
1705080596.6082692,-31.0,-4.0,-2.0,-6.0,-7.0,-8.0,-16.0,-5.0
1705080596.6102653,-38.0,-14.0,-9.0,-7.0,-5.0,-12.0,-11.0,-29.0
1705080596.6102653,3.0,-12.0,-3.0,3.0,2.0,-7.0,5.0,-2.0
1705080596.622061,-1.0,3.0,-8.0,-7.0,-8.0,11.0,0.0,5.0
1705080596.622061,15.0,4.0,8.0,5.0,9.0,0.0,4.0,3.0
1705080596.6420567,21.0,12.0,-2.0,1.0,-4.0,5.0,-4.0,10.0
1705080596.6420567,15.0,-16.0,0.0,1.0,2.0,-3.0,1.0,3.0
1705080596.6420567,-39.0,1.0,-6.0,-8.0,-6.0,-5.0,-5.0,-21.0
1705080596.6420567,3.0,4.0,2.0,0.0,7.0,-2.0,-2.0,-6.0
1705080596.6420567,6.0,-20.0,6.0,5.0,0.0,1.0,0.0,1.0
1705080596.6420567,24.0,20.0,5.0,-1.0,5.0,5.0,-1.0,3.0
1705080596.6624274,8.0,-3.0,-3.0,-4.0,-3.0,-9.0,-3.0,3.0
1705080596.6624274,-13.0,-8.0,-8.0,-3.0,-6.0,-2.0,-5.0,-10.0
1705080596.6624274,13.0,6.0,0.0,3.0,4.0,0.0,2.0,8.0
1705080596.6624274,-10.0,-4.0,-6.0,-6.0,-4.0,-2.0,-6.0,-2.0
1705080596.6723592,-1.0,-3.0,2.0,4.0,1.0,-3.0,-7.0,-3.0
1705080596.6820667,-10.0,2.0,3.0,2.0,-1.0,-5.0,1.0,-1.0
1705080596.6920571,1.0,-6.0,6.0,-3.0,-3.0,3.0,0.0,0.0
1705080596.6920571,-18.0,-4.0,-19.0,-6.0,0.0,2.0,-5.0,-9.0
1705080596.7022355,7.0,1.0,4.0,-1.0,-2.0,-7.0,-2.0,0.0
1705080596.7022355,1.0,-16.0,-19.0,-11.0,-4.0,-2.0,0.0,-2.0
1705080596.7022355,0.0,-13.0,7.0,3.0,3.0,1.0,1.0,1.0
1705080596.7022355,-8.0,25.0,6.0,1.0,-1.0,-2.0,-3.0,-9.0
1705080596.7223237,8.0,-19.0,-10.0,-1.0,-1.0,-5.0,2.0,1.0
1705080596.7223237,-6.0,3.0,1.0,-3.0,-5.0,-3.0,-1.0,-2.0
1705080596.7223237,-8.0,-12.0,-7.0,-1.0,-1.0,1.0,-1.0,1.0
1705080596.7223237,5.0,2.0,0.0,-1.0,-1.0,-2.0,-1.0,0.0
1705080596.7520568,-7.0,2.0,1.0,3.0,1.0,2.0,1.0,1.0
1705080596.7520568,10.0,2.0,6.0,2.0,-3.0,-2.0,-1.0,-1.0
1705080596.7520568,-11.0,4.0,-8.0,-1.0,-1.0,1.0,2.0,7.0
1705080596.7520568,-21.0,-12.0,0.0,-3.0,1.0,-2.0,-4.0,-10.0
1705080596.7622712,13.0,10.0,1.0,-1.0,-1.0,0.0,0.0,-1.0
1705080596.7622712,-25.0,-16.0,-7.0,-5.0,-4.0,-1.0,-1.0,-3.0
1705080596.7622712,20.0,10.0,4.0,-4.0,-1.0,-2.0,-4.0,-5.0
1705080596.7622712,13.0,6.0,-4.0,2.0,2.0,-1.0,-2.0,-6.0
1705080596.7823393,-34.0,-11.0,8.0,4.0,1.0,-2.0,-3.0,1.0
1705080596.7823393,-5.0,-7.0,-11.0,-6.0,-2.0,-3.0,-5.0,-6.0
1705080596.7823393,13.0,3.0,-1.0,-7.0,-4.0,-2.0,1.0,2.0
1705080596.7823393,-30.0,-4.0,5.0,4.0,4.0,-1.0,1.0,-5.0
1705080596.812055,34.0,1.0,4.0,1.0,0.0,-4.0,-3.0,-3.0
1705080596.812055,20.0,11.0,5.0,4.0,-1.0,2.0,2.0,8.0
1705080596.812055,-39.0,-2.0,-3.0,0.0,0.0,-1.0,-1.0,-8.0
1705080596.812055,23.0,5.0,0.0,-3.0,-2.0,-1.0,1.0,8.0
1705080596.822293,3.0,15.0,-7.0,-5.0,-5.0,-2.0,-1.0,3.0
1705080596.822293,-25.0,-2.0,-3.0,-6.0,-4.0,-1.0,2.0,1.0
1705080596.822293,34.0,-11.0,-8.0,-3.0,-3.0,-1.0,-2.0,-2.0
1705080596.822293,-21.0,8.0,15.0,12.0,6.0,3.0,2.0,2.0
1705080596.8423214,-14.0,-20.0,-12.0,-2.0,-1.0,-2.0,-3.0,-4.0
1705080596.8423214,14.0,-8.0,0.0,-1.0,-2.0,-2.0,-2.0,-8.0
1705080596.8423214,4.0,20.0,5.0,-1.0,-3.0,-2.0,-3.0,-8.0
1705080596.8423214,12.0,14.0,9.0,0.0,-1.0,0.0,2.0,9.0
1705080596.8620598,-73.0,-30.0,-9.0,-1.0,-1.0,-2.0,-5.0,-12.0
1705080596.8620598,27.0,3.0,4.0,11.0,7.0,2.0,-3.0,-5.0
1705080596.8620598,-27.0,0.0,-4.0,-2.0,-2.0,-3.0,1.0,1.0
1705080596.8620598,15.0,1.0,1.0,-2.0,0.0,-1.0,0.0,15.0
1705080596.8824356,32.0,5.0,-5.0,-7.0,-3.0,-5.0,-5.0,-10.0
1705080596.8824356,1.0,-12.0,-5.0,-7.0,-6.0,-5.0,-2.0,-2.0
1705080596.8824356,-11.0,-1.0,3.0,4.0,2.0,2.0,-2.0,-3.0
1705080596.8824356,10.0,-1.0,-3.0,-2.0,-2.0,0.0,-2.0,2.0
1705080596.902442,11.0,12.0,7.0,3.0,1.0,1.0,2.0,10.0
1705080596.902442,17.0,9.0,-4.0,2.0,1.0,-1.0,1.0,-5.0
1705080596.902442,-4.0,3.0,-3.0,-2.0,-2.0,0.0,1.0,-2.0
1705080596.902442,-6.0,-23.0,-15.0,-8.0,-6.0,-4.0,0.0,-5.0
1705080596.9120562,14.0,9.0,7.0,5.0,3.0,0.0,2.0,9.0
1705080596.9120562,-8.0,-2.0,1.0,1.0,3.0,1.0,0.0,-3.0
1705080596.922085,14.0,-19.0,-3.0,2.0,2.0,1.0,1.0,10.0
1705080596.922085,-21.0,-10.0,-16.0,-4.0,-1.0,-3.0,-5.0,-18.0
1705080596.9424646,4.0,13.0,1.0,-3.0,-2.0,-2.0,1.0,-4.0
1705080596.9424646,-11.0,-21.0,-5.0,-4.0,-2.0,-3.0,-3.0,2.0
1705080596.9424646,19.0,5.0,-2.0,-3.0,-1.0,-1.0,-1.0,4.0
1705080596.9424646,-38.0,-6.0,4.0,-1.0,-1.0,-1.0,-2.0,-17.0
1705080596.9620588,45.0,3.0,-4.0,-6.0,-2.0,0.0,-1.0,4.0
1705080596.9620588,-45.0,2.0,4.0,4.0,2.0,0.0,-1.0,-4.0
1705080596.9620588,13.0,1.0,1.0,2.0,-1.0,0.0,0.0,3.0
1705080596.9620588,11.0,-4.0,2.0,3.0,-1.0,0.0,0.0,3.0
1705080596.9820576,0.0,4.0,2.0,0.0,-2.0,-1.0,1.0,-3.0
1705080596.9820576,-10.0,0.0,-8.0,-6.0,-4.0,-5.0,-3.0,-4.0
1705080596.9820576,1.0,-4.0,3.0,2.0,-1.0,1.0,1.0,3.0
1705080596.9820576,3.0,-1.0,-6.0,-2.0,-1.0,0.0,-2.0,-6.0
1705080597.0024097,20.0,1.0,6.0,1.0,0.0,-1.0,-1.0,-3.0
1705080597.0024097,-42.0,-4.0,-4.0,-2.0,-2.0,-3.0,-3.0,-7.0
1705080597.0024097,1.0,-25.0,-7.0,-2.0,0.0,-2.0,-1.0,0.0
1705080597.0024097,16.0,1.0,-3.0,-3.0,-1.0,-1.0,3.0,8.0
1705080597.0220568,2.0,-3.0,-4.0,-2.0,0.0,-1.0,-2.0,2.0
1705080597.0220568,21.0,9.0,5.0,1.0,-2.0,0.0,-2.0,-11.0
1705080597.0220568,-16.0,4.0,-12.0,-4.0,-1.0,-3.0,-3.0,-7.0
1705080597.0220568,-13.0,-12.0,10.0,6.0,2.0,-2.0,-4.0,-4.0
1705080597.0420568,-8.0,-2.0,2.0,-3.0,-3.0,-1.0,1.0,-5.0
1705080597.0420568,12.0,0.0,-1.0,0.0,0.0,3.0,5.0,14.0
1705080597.0420568,-18.0,6.0,-1.0,-4.0,-2.0,-3.0,-2.0,-2.0
1705080597.0420568,2.0,-2.0,-6.0,-4.0,-4.0,-4.0,-5.0,-10.0
1705080597.0620565,-13.0,-5.0,1.0,4.0,1.0,1.0,1.0,2.0
1705080597.0620565,22.0,11.0,3.0,-2.0,-1.0,-2.0,0.0,6.0
1705080597.0720592,-24.0,2.0,3.0,-2.0,-2.0,-1.0,-1.0,-4.0
1705080597.0720592,10.0,4.0,-1.0,-3.0,-2.0,-2.0,-1.0,6.0
1705080597.0822597,-25.0,-4.0,0.0,2.0,2.0,1.0,-2.0,-5.0
1705080597.0822597,22.0,1.0,-6.0,-2.0,-2.0,-3.0,-5.0,-5.0
1705080597.0822597,1.0,10.0,6.0,2.0,1.0,2.0,2.0,3.0
1705080597.0822597,-19.0,-11.0,-3.0,-1.0,-1.0,-1.0,-1.0,-5.0
1705080597.1020615,12.0,-3.0,-5.0,-1.0,-1.0,-1.0,-1.0,2.0
1705080597.1020615,-23.0,5.0,1.0,-1.0,-1.0,1.0,-1.0,-5.0
1705080597.1020615,16.0,-1.0,-1.0,-2.0,1.0,0.0,2.0,8.0
1705080597.1020615,11.0,9.0,2.0,-2.0,-2.0,1.0,1.0,19.0
1705080597.126119,6.0,-8.0,-9.0,-4.0,-3.0,-3.0,-4.0,-27.0
1705080597.126119,-11.0,2.0,-1.0,1.0,0.0,-1.0,-4.0,-10.0
1705080597.1271164,-1.0,6.0,13.0,9.0,2.0,-1.0,-3.0,-17.0
1705080597.1271164,3.0,-2.0,2.0,5.0,2.0,0.0,0.0,7.0
1705080597.1481986,5.0,-3.0,-3.0,-4.0,-3.0,-1.0,2.0,21.0
1705080597.1481986,20.0,0.0,-4.0,-5.0,-2.0,-1.0,0.0,4.0
1705080597.1646206,-12.0,-8.0,-6.0,-6.0,-5.0,-4.0,-2.0,-2.0
1705080597.1646206,-18.0,-7.0,-5.0,-3.0,-2.0,-2.0,-2.0,1.0
1705080597.174636,-7.0,-1.0,-1.0,-2.0,-2.0,-1.0,-2.0,-6.0
1705080597.174636,-4.0,-2.0,1.0,0.0,-2.0,-1.0,-1.0,-2.0
1705080597.174636,17.0,10.0,3.0,0.0,1.0,-1.0,-1.0,3.0
1705080597.174636,0.0,4.0,0.0,-2.0,-2.0,-1.0,-2.0,-3.0
1705080597.1846395,14.0,10.0,-2.0,5.0,2.0,3.0,4.0,9.0
1705080597.1846395,-27.0,-40.0,0.0,2.0,1.0,0.0,0.0,-7.0
1705080597.1846395,31.0,11.0,-6.0,-5.0,-1.0,0.0,0.0,-2.0
1705080597.1846395,19.0,7.0,2.0,0.0,0.0,0.0,1.0,-5.0
1705080597.2050974,-30.0,-22.0,-14.0,-7.0,-4.0,-5.0,-4.0,-11.0
1705080597.2050974,26.0,23.0,9.0,7.0,3.0,2.0,3.0,14.0
1705080597.2050974,-9.0,-4.0,-5.0,1.0,-2.0,-2.0,-1.0,-4.0
1705080597.2050974,11.0,3.0,2.0,-1.0,0.0,1.0,1.0,-1.0
1705080597.2150319,14.0,10.0,2.0,-1.0,-4.0,-1.0,-1.0,3.0
1705080597.2150319,-5.0,-6.0,-4.0,-6.0,-2.0,-3.0,-1.0,2.0
1705080597.224641,-14.0,-7.0,0.0,0.0,-1.0,-4.0,-4.0,-8.0
1705080597.224641,12.0,4.0,-3.0,1.0,-1.0,5.0,1.0,0.0
1705080597.2446368,-17.0,-6.0,1.0,-2.0,0.0,-6.0,-4.0,-6.0
1705080597.2446368,26.0,3.0,-3.0,-2.0,-2.0,-1.0,-2.0,-1.0
1705080597.2446368,-24.0,-4.0,-3.0,-3.0,-2.0,0.0,-1.0,-1.0
1705080597.2446368,2.0,0.0,0.0,-1.0,-2.0,-3.0,-2.0,1.0
1705080597.265068,-3.0,-5.0,2.0,1.0,2.0,0.0,-1.0,-2.0
1705080597.265068,16.0,1.0,-1.0,1.0,0.0,-1.0,1.0,4.0
1705080597.265068,-17.0,8.0,-6.0,-6.0,-3.0,-2.0,-3.0,-5.0
1705080597.265068,9.0,-17.0,-16.0,-5.0,-4.0,-5.0,-4.0,-8.0
1705080597.2847128,3.0,13.0,12.0,5.0,2.0,0.0,0.0,0.0
1705080597.2847128,-20.0,-32.0,-12.0,-2.0,0.0,-1.0,0.0,4.0
1705080597.2946362,12.0,2.0,4.0,1.0,-1.0,0.0,3.0,10.0
1705080597.2946362,-43.0,-1.0,1.0,0.0,-2.0,0.0,-4.0,-24.0
1705080597.304984,7.0,6.0,2.0,0.0,-3.0,-1.0,-2.0,-11.0
1705080597.304984,-18.0,6.0,0.0,-1.0,-2.0,0.0,-2.0,-4.0
1705080597.304984,17.0,-3.0,-6.0,-1.0,0.0,1.0,0.0,5.0
1705080597.304984,-5.0,-6.0,1.0,-2.0,-1.0,-1.0,1.0,9.0
1705080597.3250663,7.0,4.0,-4.0,-6.0,-3.0,-2.0,-2.0,3.0
1705080597.3250663,-9.0,7.0,0.0,-5.0,-4.0,-3.0,-5.0,-7.0
1705080597.3250663,-7.0,-7.0,0.0,1.0,0.0,-1.0,-3.0,-3.0
1705080597.3250663,2.0,5.0,7.0,8.0,5.0,0.0,-2.0,-1.0
1705080597.354637,-9.0,-4.0,-1.0,1.0,1.0,-1.0,0.0,4.0
1705080597.354637,-3.0,0.0,-3.0,-4.0,-1.0,-2.0,0.0,-1.0
1705080597.354637,4.0,5.0,-1.0,-4.0,-2.0,-1.0,0.0,-2.0
1705080597.354637,-2.0,-12.0,-12.0,-5.0,-5.0,-2.0,-1.0,-3.0
1705080597.3650186,1.0,1.0,2.0,4.0,1.0,0.0,0.0,2.0
1705080597.3650186,-7.0,-4.0,-4.0,0.0,0.0,0.0,-5.0,-1.0
1705080597.3650186,2.0,2.0,0.0,-5.0,-3.0,-3.0,-5.0,-6.0
1705080597.3650186,-1.0,11.0,4.0,2.0,0.0,-1.0,1.0,1.0
1705080597.3846393,-7.0,-12.0,-3.0,1.0,1.0,2.0,1.0,1.0
1705080597.3846393,1.0,6.0,1.0,-2.0,-1.0,0.0,1.0,1.0
1705080597.3846393,30.0,1.0,3.0,1.0,0.0,1.0,0.0,7.0
1705080597.3846393,-61.0,-22.0,-8.0,-1.0,-2.0,-4.0,-6.0,-19.0
1705080597.4146373,13.0,2.0,0.0,-2.0,-2.0,-2.0,-1.0,-1.0
1705080597.4146373,-32.0,-8.0,1.0,-1.0,-1.0,-1.0,-1.0,-11.0
1705080597.4146373,2.0,2.0,-1.0,0.0,-1.0,0.0,-3.0,-1.0
1705080597.4146373,20.0,6.0,-3.0,-4.0,-2.0,0.0,1.0,4.0
1705080597.4248302,-1.0,7.0,5.0,4.0,2.0,2.0,0.0,-3.0
1705080597.4248302,3.0,0.0,0.0,-1.0,0.0,-2.0,-1.0,1.0
1705080597.4248302,-4.0,-6.0,-4.0,-2.0,0.0,-3.0,1.0,-2.0
1705080597.4248302,9.0,3.0,-1.0,-5.0,-2.0,0.0,-1.0,2.0
1705080597.4449766,-11.0,-6.0,1.0,-2.0,-2.0,-1.0,-4.0,-1.0
1705080597.4449766,12.0,3.0,-1.0,-1.0,-2.0,0.0,1.0,2.0
1705080597.4449766,-11.0,5.0,5.0,3.0,1.0,0.0,0.0,-2.0
1705080597.4449766,9.0,-9.0,-3.0,-2.0,0.0,0.0,-1.0,4.0
1705080597.4846377,-2.0,-5.0,0.0,-1.0,0.0,-1.0,0.0,2.0
1705080597.4846377,0.0,1.0,-5.0,-3.0,-2.0,-3.0,-4.0,-1.0
1705080597.4846377,-5.0,-10.0,2.0,2.0,2.0,-1.0,-3.0,-3.0
1705080597.4846377,2.0,7.0,2.0,1.0,0.0,-1.0,1.0,0.0
1705080597.4846377,-5.0,0.0,-4.0,-5.0,-4.0,-3.0,-1.0,-1.0
1705080597.4846377,2.0,0.0,-2.0,-3.0,-2.0,-3.0,-1.0,-2.0
1705080597.4846377,5.0,-1.0,1.0,-2.0,-2.0,-1.0,1.0,0.0
1705080597.4846377,-5.0,7.0,1.0,1.0,1.0,1.0,-1.0,1.0
1705080597.505047,-9.0,-2.0,-2.0,2.0,-1.0,1.0,-2.0,0.0
1705080597.505047,6.0,7.0,6.0,5.0,3.0,-1.0,1.0,-2.0
1705080597.514986,10.0,-9.0,-4.0,-2.0,-1.0,-3.0,-1.0,-2.0
1705080597.514986,2.0,-4.0,-6.0,-5.0,-2.0,-1.0,-2.0,0.0
1705080597.5346375,0.0,-4.0,-10.0,-5.0,-4.0,-4.0,-1.0,-2.0
1705080597.5346375,-4.0,10.0,1.0,-1.0,-2.0,-1.0,-2.0,2.0
1705080597.5346375,-9.0,-10.0,10.0,9.0,3.0,3.0,-1.0,-1.0
1705080597.5346375,7.0,-3.0,-1.0,0.0,-1.0,0.0,0.0,1.0
1705080597.5448916,-3.0,9.0,-1.0,-3.0,-1.0,-3.0,-1.0,0.0
1705080597.5448916,6.0,-7.0,-13.0,-7.0,-4.0,-2.0,-2.0,0.0
1705080597.5448916,-4.0,17.0,7.0,3.0,3.0,1.0,0.0,-2.0
1705080597.5448916,-1.0,-1.0,-2.0,-1.0,-3.0,-4.0,2.0,4.0
1705080597.564639,0.0,-18.0,-2.0,-3.0,-1.0,-1.0,-1.0,-1.0
1705080597.564639,1.0,4.0,-7.0,-8.0,-5.0,-2.0,-3.0,-1.0
1705080597.564639,-7.0,14.0,5.0,-2.0,-5.0,-2.0,-3.0,-5.0
1705080597.564639,-11.0,-16.0,6.0,12.0,7.0,5.0,1.0,4.0
1705080597.5849237,3.0,2.0,-3.0,-2.0,-1.0,-2.0,-2.0,-2.0
1705080597.5849237,6.0,3.0,-3.0,0.0,-2.0,-1.0,1.0,3.0
1705080597.595012,-10.0,-16.0,-7.0,-11.0,-7.0,-5.0,-3.0,-2.0
1705080597.595012,4.0,-18.0,1.0,-6.0,-4.0,-5.0,-1.0,-4.0
1705080597.6049607,-17.0,-1.0,-14.0,4.0,4.0,2.0,-1.0,-5.0
1705080597.6049607,-3.0,1.0,6.0,1.0,2.0,1.0,-1.0,0.0
1705080597.6049607,5.0,-9.0,-16.0,-7.0,-4.0,-3.0,-2.0,-3.0
1705080597.6049607,17.0,7.0,-1.0,-6.0,-4.0,-1.0,-1.0,-1.0
1705080597.6248899,0.0,0.0,9.0,2.0,1.0,-1.0,-1.0,-1.0
1705080597.6248899,11.0,-9.0,8.0,7.0,3.0,2.0,0.0,0.0
1705080597.6248899,0.0,3.0,-9.0,0.0,0.0,0.0,1.0,2.0
1705080597.6248899,-66.0,-15.0,2.0,-1.0,-1.0,-1.0,-5.0,-18.0
1705080597.6501067,4.0,-13.0,-4.0,-7.0,-4.0,-1.0,6.0,7.0
1705080597.6501067,-6.0,15.0,5.0,1.0,3.0,-1.0,-3.0,-9.0
1705080597.651976,6.0,1.0,-1.0,-2.0,-8.0,-3.0,2.0,2.0
1705080597.651976,27.0,12.0,-2.0,3.0,2.0,-4.0,3.0,7.0
1705080597.6649241,0.0,6.0,4.0,-1.0,-3.0,3.0,-5.0,2.0
1705080597.6649241,-12.0,-16.0,2.0,2.0,13.0,-5.0,-2.0,-3.0
1705080597.6706443,-3.0,-7.0,-11.0,-4.0,-7.0,14.0,1.0,5.0
1705080597.6706443,7.0,21.0,1.0,-3.0,-5.0,-2.0,1.0,-2.0
1705080597.6810367,5.0,-37.0,3.0,4.0,1.0,-8.0,6.0,-1.0
1705080597.6810367,13.0,20.0,9.0,1.0,-4.0,-9.0,-9.0,-2.0
1705080597.6810367,-22.0,-29.0,-15.0,-1.0,9.0,2.0,3.0,-6.0
1705080597.6810367,40.0,27.0,11.0,5.0,2.0,-3.0,-6.0,9.0
1705080597.7106454,-22.0,-4.0,-18.0,-12.0,-5.0,2.0,-3.0,-8.0
1705080597.7106454,-1.0,9.0,4.0,0.0,-4.0,0.0,4.0,-3.0
1705080597.7106454,2.0,-3.0,15.0,9.0,1.0,-3.0,-8.0,-3.0
1705080597.7106454,-21.0,-5.0,-1.0,-4.0,-4.0,2.0,10.0,-8.0
1705080597.7210677,5.0,-4.0,-13.0,-6.0,-1.0,-5.0,0.0,6.0
1705080597.7210677,-21.0,-9.0,2.0,-1.0,-1.0,5.0,1.0,-4.0
1705080597.731035,-7.0,31.0,0.0,0.0,-7.0,-3.0,-11.0,-2.0
1705080597.731035,21.0,-9.0,3.0,1.0,5.0,2.0,0.0,7.0
1705080597.7410529,46.0,32.0,7.0,4.0,5.0,5.0,-2.0,-3.0
1705080597.7410529,-38.0,-35.0,-11.0,-8.0,-7.0,-8.0,3.0,1.0
1705080597.7410529,7.0,5.0,-3.0,-4.0,-8.0,-9.0,-2.0,-3.0
1705080597.7410529,0.0,3.0,9.0,6.0,6.0,9.0,-4.0,-1.0
1705080597.7706466,-26.0,1.0,-2.0,-3.0,-5.0,2.0,-1.0,4.0
1705080597.7706466,10.0,-22.0,1.0,0.0,-2.0,-3.0,0.0,2.0
1705080597.7706466,-4.0,-23.0,-14.0,-7.0,3.0,-8.0,-6.0,-1.0
1705080597.7706466,34.0,18.0,2.0,-1.0,0.0,5.0,0.0,5.0
1705080597.7908134,-68.0,-18.0,-1.0,0.0,-4.0,-9.0,-1.0,-6.0
1705080597.7908134,20.0,5.0,1.0,-5.0,-7.0,-5.0,-7.0,7.0
1705080597.7908134,-9.0,20.0,14.0,5.0,6.0,1.0,1.0,-6.0
1705080597.7908134,-12.0,-43.0,-35.0,-2.0,0.0,-5.0,0.0,-5.0
1705080597.8006465,13.0,4.0,7.0,5.0,5.0,5.0,1.0,2.0
1705080597.8006465,22.0,-3.0,-9.0,-3.0,-5.0,-1.0,-5.0,-16.0
1705080597.8006465,-4.0,-12.0,2.0,-6.0,5.0,-10.0,4.0,3.0
1705080597.8006465,11.0,25.0,-3.0,-4.0,-18.0,0.0,5.0,11.0
1705080597.8306453,-44.0,9.0,2.0,-3.0,8.0,3.0,-20.0,20.0
1705080597.8306453,101.0,8.0,-14.0,4.0,-3.0,1.0,11.0,-8.0
1705080597.8306453,-15.0,0.0,0.0,-2.0,-2.0,3.0,5.0,5.0
1705080597.8306453,-30.0,-1.0,5.0,-3.0,4.0,-4.0,1.0,-7.0
1705080597.8409808,30.0,-3.0,15.0,2.0,5.0,1.0,9.0,12.0
1705080597.8409808,-29.0,30.0,2.0,10.0,2.0,5.0,-4.0,5.0
1705080597.8507318,-4.0,7.0,-6.0,1.0,3.0,6.0,-6.0,-10.0
1705080597.8507318,6.0,-6.0,-2.0,-1.0,1.0,0.0,0.0,1.0
1705080597.860655,9.0,6.0,5.0,-5.0,-7.0,-7.0,1.0,-13.0
1705080597.860655,-13.0,-1.0,2.0,-3.0,-3.0,-1.0,-2.0,4.0
1705080597.8706472,10.0,-7.0,-11.0,1.0,-4.0,-6.0,2.0,-5.0
1705080597.8706472,-22.0,4.0,9.0,3.0,1.0,-1.0,-8.0,-3.0
1705080597.8906484,16.0,-2.0,-8.0,0.0,-3.0,0.0,-3.0,-6.0
1705080597.8906484,-23.0,3.0,-8.0,-15.0,-1.0,-1.0,-3.0,-1.0
1705080597.8906484,0.0,-11.0,10.0,9.0,3.0,0.0,1.0,9.0
1705080597.8906484,5.0,8.0,19.0,4.0,1.0,-1.0,-4.0,-1.0
1705080597.9009745,6.0,-2.0,-21.0,-3.0,-2.0,-1.0,-1.0,-4.0
1705080597.9009745,-33.0,-41.0,-3.0,1.0,-1.0,-1.0,-3.0,-7.0
1705080597.9107244,-4.0,22.0,-8.0,-13.0,-5.0,-1.0,-5.0,-8.0
1705080597.9107244,-5.0,-6.0,-4.0,-8.0,-3.0,-5.0,-4.0,-1.0
1705080597.930644,40.0,6.0,19.0,1.0,-2.0,-1.0,-2.0,-13.0
1705080597.930644,12.0,12.0,-11.0,0.0,1.0,4.0,1.0,8.0
1705080597.930644,1.0,-26.0,-2.0,0.0,-6.0,-6.0,-3.0,-8.0
1705080597.930644,9.0,6.0,3.0,-9.0,-2.0,-3.0,-1.0,0.0
1705080597.950649,-21.0,20.0,5.0,8.0,1.0,2.0,2.0,7.0
1705080597.950649,11.0,11.0,-1.0,-8.0,-1.0,3.0,3.0,3.0
1705080597.950649,17.0,2.0,7.0,11.0,6.0,6.0,3.0,7.0
1705080597.950649,-18.0,-8.0,-14.0,-3.0,-3.0,-3.0,-5.0,-16.0
1705080597.9609582,8.0,-11.0,-13.0,-9.0,-9.0,-5.0,-5.0,-16.0
1705080597.9609582,-12.0,0.0,9.0,2.0,0.0,-2.0,-1.0,2.0
1705080597.9706872,-12.0,4.0,-2.0,-4.0,0.0,1.0,1.0,6.0
1705080597.9706872,-19.0,-8.0,-8.0,-5.0,-2.0,-4.0,-3.0,-5.0
1705080597.990648,1.0,-1.0,-2.0,-3.0,-1.0,0.0,-1.0,-3.0
1705080597.990648,-12.0,-3.0,-1.0,2.0,-1.0,0.0,-2.0,-1.0
1705080597.990648,-1.0,6.0,6.0,5.0,6.0,3.0,3.0,1.0
1705080597.990648,9.0,-5.0,-2.0,3.0,1.0,1.0,-3.0,3.0
1705080598.0106454,-5.0,1.0,-1.0,-3.0,-2.0,-7.0,0.0,-6.0
1705080598.0106454,-14.0,-7.0,-9.0,-7.0,-4.0,-4.0,-2.0,0.0
1705080598.0106454,4.0,3.0,-1.0,-6.0,-4.0,-3.0,-3.0,1.0
1705080598.0106454,2.0,2.0,5.0,6.0,2.0,1.0,0.0,-2.0
1705080598.0306435,-5.0,-6.0,-12.0,-7.0,-5.0,-1.0,-2.0,-3.0
1705080598.0306435,-4.0,-7.0,6.0,-1.0,-2.0,-1.0,-4.0,-2.0
1705080598.0306435,-1.0,-16.0,-3.0,3.0,-1.0,-1.0,-1.0,-2.0
1705080598.0306435,7.0,18.0,4.0,3.0,3.0,0.0,1.0,2.0
1705080598.0406523,-14.0,-15.0,-8.0,-1.0,-2.0,0.0,-2.0,-2.0
1705080598.0406523,5.0,5.0,1.0,1.0,0.0,-1.0,0.0,1.0
1705080598.0406523,-8.0,-7.0,-3.0,-4.0,-3.0,0.0,-2.0,4.0
1705080598.0406523,7.0,9.0,-1.0,-8.0,-4.0,-3.0,-4.0,-6.0
1705080598.0706487,-7.0,-20.0,-10.0,-2.0,-1.0,2.0,-2.0,-1.0
1705080598.0706487,-3.0,5.0,16.0,2.0,3.0,1.0,0.0,-1.0
1705080598.0706487,-5.0,5.0,9.0,15.0,7.0,3.0,0.0,0.0
1705080598.0706487,6.0,-5.0,-10.0,-1.0,-3.0,-1.0,0.0,2.0
1705080598.1006463,5.0,5.0,0.0,-2.0,-1.0,-3.0,-1.0,1.0
1705080598.1006463,-9.0,4.0,-5.0,-4.0,-4.0,-2.0,-2.0,-1.0
1705080598.1006463,9.0,-8.0,-5.0,-12.0,-8.0,-4.0,-2.0,-3.0
1705080598.1006463,-5.0,-3.0,-2.0,0.0,1.0,-2.0,-1.0,-3.0
1705080598.1006463,9.0,11.0,13.0,6.0,3.0,2.0,-1.0,0.0
1705080598.1006463,-9.0,-16.0,-6.0,1.0,-1.0,1.0,0.0,0.0
1705080598.1006463,-3.0,13.0,6.0,-1.0,-3.0,-2.0,-1.0,-1.0
1705080598.1006463,-3.0,-7.0,3.0,-1.0,-4.0,-3.0,-2.0,-8.0
1705080598.1306484,-5.0,-5.0,-6.0,-2.0,-2.0,-2.0,-1.0,0.0
1705080598.1306484,5.0,0.0,1.0,2.0,-1.0,-2.0,-2.0,-1.0
1705080598.1306484,-1.0,7.0,9.0,3.0,5.0,0.0,0.0,-1.0
1705080598.1306484,-3.0,-2.0,-5.0,-6.0,-3.0,-1.0,-2.0,-3.0
1705080598.150646,-4.0,-14.0,-5.0,6.0,0.0,1.0,0.0,-2.0
1705080598.150646,-2.0,-2.0,-9.0,-6.0,-2.0,-1.0,-2.0,-2.0
1705080598.150646,3.0,-2.0,-8.0,-7.0,-4.0,-2.0,0.0,-3.0
1705080598.150646,-4.0,-5.0,5.0,0.0,0.0,-1.0,-2.0,2.0
1705080598.1606793,4.0,11.0,8.0,2.0,1.0,1.0,-1.0,0.0
1705080598.1606793,-5.0,-10.0,2.0,3.0,0.0,-1.0,-4.0,-4.0
1705080598.1606793,-1.0,-2.0,2.0,-3.0,-4.0,-3.0,-2.0,-2.0
1705080598.1606793,-8.0,-9.0,-19.0,-5.0,-3.0,0.0,0.0,1.0
1705080598.1908925,-2.0,0.0,1.0,-5.0,-5.0,-3.0,-2.0,1.0
1705080598.1908925,-3.0,10.0,4.0,1.0,-2.0,-1.0,1.0,0.0
1705080598.2034354,7.0,0.0,-1.0,0.0,2.0,-1.0,-3.0,-2.0
1705080598.2034354,0.0,-4.0,0.0,1.0,-2.0,5.0,-1.0,-1.0
1705080598.2034354,12.0,6.0,5.0,1.0,-2.0,-4.0,0.0,-6.0
1705080598.2034354,-9.0,4.0,3.0,1.0,1.0,0.0,-2.0,-4.0
1705080598.2134387,-11.0,-14.0,-12.0,-5.0,-2.0,-4.0,-1.0,-4.0
1705080598.2134387,-2.0,4.0,6.0,1.0,0.0,1.0,-1.0,-2.0
1705080598.2238114,-3.0,0.0,0.0,5.0,5.0,4.0,-2.0,-1.0
1705080598.2238114,4.0,-7.0,-14.0,-5.0,-2.0,-4.0,0.0,-2.0
1705080598.2338192,-2.0,-8.0,-5.0,-5.0,-3.0,1.0,-1.0,0.0
1705080598.2338192,-3.0,-1.0,-5.0,-5.0,-4.0,-6.0,-2.0,0.0
1705080598.253435,11.0,5.0,7.0,3.0,3.0,0.0,1.0,7.0
1705080598.253435,47.0,-5.0,-5.0,-1.0,1.0,-2.0,0.0,7.0
1705080598.253435,-79.0,-15.0,-5.0,-3.0,-3.0,-4.0,-7.0,-16.0
1705080598.253435,3.0,6.0,3.0,-2.0,-1.0,0.0,1.0,1.0
1705080598.2734413,4.0,-5.0,-1.0,-7.0,-5.0,-3.0,-1.0,-3.0
1705080598.2734413,10.0,24.0,10.0,8.0,2.0,2.0,1.0,3.0
1705080598.2734413,22.0,13.0,0.0,0.0,6.0,-1.0,2.0,6.0
1705080598.2734413,7.0,2.0,1.0,1.0,-5.0,1.0,2.0,2.0
1705080598.2837331,-6.0,4.0,-5.0,-2.0,-8.0,-8.0,-1.0,-5.0
1705080598.2837331,-6.0,-8.0,-2.0,-4.0,-4.0,1.0,-1.0,-2.0
1705080598.2837331,7.0,3.0,-1.0,-1.0,14.0,-14.0,4.0,3.0
1705080598.2837331,-20.0,-17.0,-3.0,-3.0,-4.0,8.0,-11.0,-5.0
1705080598.323437,7.0,14.0,-2.0,-4.0,-14.0,7.0,0.0,2.0
1705080598.323437,-16.0,-8.0,0.0,-1.0,-1.0,-4.0,-1.0,-4.0
1705080598.323437,3.0,-7.0,-3.0,-4.0,-1.0,2.0,-4.0,-2.0
1705080598.323437,5.0,-2.0,-9.0,-6.0,2.0,-13.0,-7.0,-3.0
1705080598.323437,-2.0,3.0,13.0,11.0,10.0,1.0,3.0,3.0
1705080598.323437,-6.0,-1.0,2.0,1.0,-4.0,1.0,-2.0,-2.0
1705080598.3334339,3.0,5.0,-3.0,0.0,-2.0,7.0,4.0,3.0
1705080598.3334339,11.0,-17.0,1.0,-2.0,-2.0,-6.0,2.0,-1.0
1705080598.343852,-9.0,-6.0,-22.0,-16.0,-7.0,-6.0,-7.0,-9.0
1705080598.343852,-26.0,22.0,1.0,3.0,0.0,-6.0,1.0,9.0
1705080598.343852,-11.0,-26.0,-4.0,-1.0,-4.0,0.0,-4.0,-20.0
1705080598.343852,6.0,1.0,-1.0,0.0,0.0,3.0,3.0,2.0
1705080598.3634353,0.0,-3.0,4.0,-3.0,1.0,-2.0,-1.0,2.0
1705080598.3634353,3.0,-5.0,-3.0,-4.0,2.0,3.0,1.0,3.0
1705080598.373434,24.0,24.0,14.0,8.0,-3.0,1.0,0.0,7.0
1705080598.373434,-19.0,-11.0,-8.0,-1.0,1.0,-4.0,-3.0,-2.0
1705080598.3934405,-7.0,-4.0,-3.0,-1.0,-4.0,0.0,-3.0,-4.0
1705080598.3934405,9.0,3.0,-3.0,-5.0,0.0,-20.0,0.0,-1.0
1705080598.3934405,3.0,-5.0,-1.0,-6.0,-2.0,-4.0,-4.0,2.0
1705080598.3934405,0.0,5.0,10.0,8.0,12.0,13.0,9.0,0.0
1705080598.4037526,-3.0,1.0,1.0,-2.0,-7.0,30.0,-5.0,-3.0
1705080598.4037526,-12.0,-7.0,1.0,-3.0,-6.0,-14.0,0.0,-7.0
1705080598.4334347,11.0,0.0,-7.0,-5.0,-4.0,-5.0,-2.0,1.0
1705080598.4334347,-3.0,2.0,2.0,1.0,4.0,-11.0,1.0,7.0
1705080598.4334347,-5.0,-4.0,-3.0,2.0,9.0,-4.0,3.0,5.0
1705080598.4334347,32.0,8.0,3.0,2.0,1.0,7.0,-1.0,4.0
1705080598.4334347,-63.0,-19.0,-5.0,-1.0,-4.0,-2.0,-4.0,-14.0
1705080598.4334347,8.0,12.0,-8.0,-6.0,-4.0,-1.0,-2.0,1.0
1705080598.45344,-13.0,-1.0,13.0,6.0,0.0,-6.0,-3.0,-9.0
1705080598.45344,-27.0,-41.0,-18.0,-10.0,-7.0,2.0,-4.0,-6.0
1705080598.45344,61.0,26.0,-4.0,-4.0,-5.0,-5.0,1.0,9.0
1705080598.45344,-14.0,-6.0,5.0,-9.0,-5.0,2.0,-3.0,-3.0
1705080598.4934337,5.0,-1.0,17.0,25.0,12.0,-4.0,3.0,4.0
1705080598.4934337,-3.0,3.0,-3.0,5.0,7.0,5.0,1.0,-2.0
1705080598.4934337,3.0,-3.0,7.0,7.0,0.0,5.0,-2.0,-3.0
1705080598.4934337,-4.0,-13.0,-44.0,-24.0,-12.0,-5.0,-3.0,-5.0
1705080598.4934337,8.0,-6.0,-9.0,-14.0,-6.0,-7.0,1.0,3.0
1705080598.4934337,-1.0,1.0,4.0,-3.0,-2.0,3.0,-2.0,-3.0
1705080598.4934337,-3.0,-2.0,1.0,-1.0,-1.0,3.0,0.0,1.0
1705080598.4934337,0.0,7.0,13.0,8.0,0.0,-4.0,-3.0,-2.0
1705080598.5134373,-7.0,-3.0,-5.0,-5.0,-1.0,-4.0,0.0,2.0
1705080598.5134373,-8.0,-1.0,2.0,2.0,1.0,2.0,-5.0,0.0
1705080598.5134373,5.0,-6.0,-10.0,-6.0,-4.0,-1.0,0.0,-1.0
1705080598.5134373,-2.0,2.0,5.0,2.0,0.0,0.0,-1.0,-3.0
1705080598.523776,1.0,-13.0,-3.0,-2.0,1.0,-1.0,1.0,-1.0
1705080598.523776,5.0,24.0,11.0,4.0,2.0,2.0,1.0,-2.0
1705080598.5334353,-5.0,3.0,2.0,-1.0,-1.0,0.0,0.0,3.0
1705080598.5334353,2.0,-3.0,-6.0,-4.0,-5.0,-3.0,-3.0,-6.0
1705080598.5434701,14.0,10.0,-5.0,-8.0,0.0,-3.0,1.0,4.0
1705080598.5434701,-13.0,-29.0,11.0,7.0,0.0,1.0,-2.0,-6.0
1705080598.5434701,28.0,17.0,-1.0,9.0,5.0,1.0,1.0,5.0
1705080598.5434701,-32.0,-18.0,-7.0,0.0,-1.0,0.0,-1.0,-2.0
1705080598.5734377,3.0,6.0,-8.0,-10.0,-6.0,-7.0,-4.0,-4.0
1705080598.5734377,4.0,6.0,7.0,-1.0,0.0,0.0,1.0,2.0
1705080598.5734377,-2.0,8.0,-9.0,-4.0,-2.0,-1.0,0.0,1.0
1705080598.5734377,3.0,1.0,-7.0,-4.0,-4.0,-6.0,-4.0,-8.0
1705080598.5838475,-2.0,10.0,9.0,4.0,1.0,-1.0,-4.0,0.0
1705080598.5838475,-9.0,-11.0,-22.0,-11.0,-6.0,-1.0,-2.0,-5.0
1705080598.593436,2.0,-11.0,11.0,1.0,-1.0,0.0,0.0,2.0
1705080598.593436,7.0,11.0,16.0,12.0,6.0,2.0,-1.0,2.0
1705080598.6034718,-18.0,-6.0,-3.0,2.0,1.0,-3.0,-2.0,-1.0
1705080598.6034718,0.0,-7.0,-2.0,0.0,-3.0,-1.0,-1.0,-2.0
1705080598.6034718,-7.0,-1.0,-3.0,-7.0,-4.0,-1.0,-3.0,-3.0
1705080598.6034718,11.0,3.0,2.0,0.0,-1.0,0.0,0.0,1.0
1705080598.6334405,-7.0,-3.0,1.0,5.0,0.0,-1.0,0.0,0.0
1705080598.6334405,4.0,4.0,-2.0,-2.0,-1.0,-1.0,0.0,2.0
1705080598.6434395,-2.0,-5.0,-8.0,-6.0,-5.0,-4.0,-2.0,-8.0
1705080598.6434395,-5.0,1.0,2.0,-3.0,-3.0,-2.0,-1.0,1.0
1705080598.6534355,17.0,0.0,3.0,3.0,2.0,3.0,2.0,2.0
1705080598.6534355,-16.0,6.0,-2.0,1.0,0.0,2.0,-1.0,-6.0
1705080598.6534355,14.0,-5.0,-7.0,-3.0,-1.0,-1.0,-1.0,2.0
1705080598.6534355,-28.0,-2.0,0.0,0.0,-1.0,-1.0,-3.0,-6.0
1705080598.6634927,-13.0,-9.0,-9.0,-8.0,-6.0,-5.0,-1.0,-7.0
1705080598.6634927,5.0,0.0,-2.0,-4.0,-1.0,-1.0,0.0,3.0
1705080598.6634927,20.0,14.0,8.0,6.0,3.0,0.0,0.0,0.0
1705080598.6634927,-17.0,2.0,8.0,-1.0,-1.0,-1.0,-1.0,1.0
1705080598.683792,25.0,-16.0,-10.0,-7.0,-4.0,-4.0,-4.0,-2.0
1705080598.683792,-6.0,20.0,-4.0,3.0,2.0,0.0,-4.0,-10.0
1705080598.6934366,0.0,0.0,8.0,4.0,0.0,2.0,2.0,4.0
1705080598.6934366,3.0,-3.0,0.0,-1.0,-2.0,-4.0,-4.0,0.0
1705080598.706931,-27.0,3.0,-2.0,-3.0,-2.0,1.0,-3.0,-5.0
1705080598.706931,19.0,-1.0,1.0,-2.0,-1.0,-1.0,0.0,3.0
1705080598.7146616,4.0,2.0,0.0,-3.0,-1.0,0.0,1.0,7.0
1705080598.7146616,3.0,-1.0,-1.0,3.0,1.0,0.0,-1.0,-6.0
1705080598.7304988,-12.0,-7.0,-5.0,-3.0,-3.0,-1.0,-3.0,1.0
1705080598.7304988,-18.0,-9.0,-4.0,-4.0,0.0,-2.0,-3.0,-7.0
1705080598.7325087,-14.0,1.0,0.0,0.0,-1.0,1.0,4.0,1.0
1705080598.7325087,-6.0,-2.0,2.0,2.0,-1.0,0.0,2.0,0.0
1705080598.7464538,14.0,1.0,-3.0,0.0,1.0,2.0,2.0,3.0
1705080598.7464538,-9.0,5.0,-1.0,1.0,1.0,0.0,-5.0,-4.0
1705080598.7464538,-19.0,-15.0,-7.0,-9.0,-5.0,-4.0,-7.0,-6.0
1705080598.7464538,21.0,4.0,5.0,1.0,1.0,0.0,2.0,1.0
1705080598.7664838,21.0,0.0,0.0,9.0,5.0,2.0,3.0,7.0
1705080598.7664838,34.0,12.0,-2.0,-4.0,-4.0,-2.0,-2.0,2.0
1705080598.7764897,-96.0,-25.0,-8.0,-4.0,-3.0,-3.0,-11.0,-30.0
1705080598.7764897,35.0,-7.0,-4.0,1.0,2.0,2.0,2.0,0.0
1705080598.7867718,47.0,10.0,7.0,-2.0,-3.0,-3.0,1.0,2.0
1705080598.7867718,24.0,-50.0,-20.0,-8.0,-4.0,-4.0,-2.0,3.0
1705080598.7867718,-20.0,-7.0,6.0,2.0,0.0,-3.0,-3.0,-8.0
1705080598.7867718,7.0,18.0,-7.0,1.0,0.0,-2.0,-6.0,-7.0
1705080598.8067849,25.0,9.0,6.0,3.0,0.0,3.0,4.0,10.0
1705080598.8067849,23.0,13.0,-3.0,-2.0,-2.0,0.0,3.0,8.0
1705080598.8067849,10.0,26.0,11.0,1.0,1.0,0.0,-2.0,-4.0
1705080598.8067849,-24.0,-47.0,-9.0,-1.0,0.0,0.0,-3.0,-1.0
1705080598.8364546,0.0,26.0,9.0,3.0,2.0,-1.0,2.0,7.0
1705080598.8364546,42.0,6.0,-3.0,-2.0,-3.0,-2.0,1.0,5.0
1705080598.8364546,-80.0,-35.0,-8.0,-1.0,-3.0,-1.0,-6.0,-19.0
1705080598.8364546,95.0,49.0,10.0,-1.0,1.0,1.0,3.0,19.0
1705080598.84683,-73.0,-41.0,-16.0,-4.0,-1.0,-4.0,-10.0,-23.0
1705080598.84683,-24.0,15.0,8.0,2.0,2.0,3.0,2.0,6.0
1705080598.84683,59.0,-8.0,-2.0,-4.0,-3.0,-1.0,0.0,5.0
1705080598.84683,-29.0,-2.0,11.0,4.0,2.0,1.0,3.0,10.0
1705080598.8664556,-41.0,-41.0,-13.0,-9.0,-6.0,-5.0,-11.0,-13.0
1705080598.8664556,63.0,85.0,39.0,17.0,8.0,4.0,12.0,27.0
1705080598.8664556,-22.0,-80.0,-49.0,-17.0,-8.0,-10.0,-11.0,-23.0
1705080598.8664556,24.0,24.0,5.0,1.0,0.0,0.0,-1.0,2.0
1705080598.8867385,95.0,52.0,16.0,8.0,4.0,4.0,8.0,28.0
1705080598.8867385,-90.0,-46.0,-4.0,-6.0,-4.0,-3.0,-11.0,-37.0
1705080598.8867385,115.0,35.0,2.0,-3.0,-1.0,0.0,5.0,26.0
1705080598.8867385,-17.0,-11.0,4.0,3.0,0.0,0.0,-1.0,-1.0
1705080598.906788,-27.0,-10.0,-8.0,-1.0,-2.0,-2.0,-5.0,-14.0
1705080598.906788,10.0,8.0,7.0,3.0,2.0,2.0,4.0,3.0
1705080598.906788,-15.0,-13.0,-1.0,-2.0,-1.0,-3.0,0.0,0.0
1705080598.906788,-38.0,-21.0,-18.0,-9.0,-4.0,-6.0,-3.0,-10.0
1705080598.9264538,-22.0,-1.0,2.0,-3.0,-3.0,-2.0,-2.0,-5.0
1705080598.9264538,35.0,-8.0,2.0,0.0,1.0,-2.0,-1.0,8.0
1705080598.9264538,-40.0,-5.0,-3.0,0.0,-1.0,1.0,-2.0,-10.0
1705080598.9264538,-1.0,26.0,5.0,2.0,1.0,4.0,-3.0,-3.0
1705080598.9468055,-41.0,-11.0,-3.0,-6.0,-5.0,-11.0,-4.0,-9.0
1705080598.9468055,-17.0,-11.0,-2.0,-1.0,0.0,1.0,6.0,15.0
1705080598.9468055,-25.0,-27.0,-9.0,-4.0,-6.0,-2.0,-7.0,-21.0
1705080598.9468055,14.0,-2.0,3.0,-1.0,-2.0,2.0,2.0,11.0
1705080598.966879,18.0,2.0,-3.0,0.0,1.0,2.0,-2.0,-9.0
1705080598.966879,-4.0,6.0,-5.0,-2.0,0.0,1.0,-1.0,-10.0
1705080598.966879,36.0,23.0,14.0,8.0,6.0,1.0,4.0,16.0
1705080598.966879,-28.0,-19.0,-8.0,-2.0,-4.0,-2.0,0.0,-13.0
1705080598.986454,-1.0,-11.0,-12.0,-13.0,-6.0,1.0,-3.0,-6.0
1705080598.986454,18.0,-10.0,-1.0,4.0,-1.0,-1.0,-3.0,2.0
1705080598.986454,-26.0,28.0,18.0,15.0,8.0,5.0,7.0,10.0
1705080598.986454,10.0,-1.0,-2.0,0.0,-3.0,-6.0,-8.0,-16.0
1705080599.0066476,-9.0,-6.0,0.0,-1.0,0.0,-1.0,3.0,5.0
1705080599.0066476,-29.0,-15.0,-10.0,-7.0,-5.0,-4.0,-2.0,-9.0
1705080599.0066476,44.0,29.0,2.0,-6.0,-4.0,-3.0,-1.0,7.0
1705080599.0066476,-32.0,-9.0,-1.0,1.0,0.0,6.0,0.0,-2.0
1705080599.0264564,7.0,14.0,4.0,3.0,0.0,-3.0,-1.0,5.0
1705080599.0264564,-3.0,-14.0,-4.0,0.0,-3.0,-4.0,-4.0,-1.0
1705080599.0264564,-13.0,-20.0,-9.0,-6.0,2.0,4.0,-4.0,-3.0
1705080599.0264564,22.0,16.0,-3.0,-4.0,-3.0,-2.0,1.0,4.0
1705080599.0468655,-7.0,-12.0,0.0,0.0,-1.0,3.0,1.0,4.0
1705080599.0468655,-54.0,-32.0,-11.0,-8.0,-7.0,-6.0,-8.0,-23.0
1705080599.0468655,30.0,22.0,10.0,2.0,-1.0,-1.0,3.0,14.0
1705080599.0468655,-3.0,0.0,-1.0,0.0,1.0,0.0,1.0,2.0
1705080599.066779,41.0,12.0,8.0,11.0,6.0,5.0,4.0,-1.0
1705080599.066779,2.0,8.0,-6.0,-4.0,-6.0,-12.0,0.0,2.0
1705080599.066779,-21.0,-11.0,-10.0,-5.0,-3.0,-1.0,-5.0,2.0
1705080599.066779,-8.0,-6.0,-3.0,-5.0,-2.0,-2.0,-3.0,-2.0
1705080599.09649,-8.0,-11.0,-4.0,-5.0,-5.0,-6.0,-4.0,-4.0
1705080599.09649,-45.0,4.0,-2.0,3.0,3.0,6.0,-3.0,-11.0
1705080599.09649,-14.0,2.0,-4.0,-2.0,1.0,-1.0,2.0,3.0
1705080599.09649,6.0,-16.0,-5.0,-3.0,-6.0,-5.0,3.0,-10.0
1705080599.1068587,19.0,13.0,3.0,-2.0,2.0,7.0,-3.0,7.0
1705080599.1068587,6.0,0.0,1.0,3.0,16.0,16.0,7.0,5.0
1705080599.1068587,43.0,19.0,6.0,4.0,-5.0,-13.0,-1.0,12.0
1705080599.1068587,-26.0,-17.0,-1.0,-2.0,-19.0,-7.0,-14.0,-4.0
1705080599.126454,-27.0,-2.0,-5.0,-8.0,-1.0,-2.0,5.0,-12.0
1705080599.126454,18.0,0.0,-7.0,-10.0,-19.0,-9.0,0.0,2.0
1705080599.126454,-24.0,9.0,5.0,2.0,1.0,-17.0,-1.0,-9.0
1705080599.126454,3.0,4.0,4.0,5.0,7.0,-4.0,1.0,8.0
1705080599.1519368,-1.0,-8.0,0.0,3.0,-2.0,-6.0,-5.0,-6.0
1705080599.1519368,0.0,21.0,-10.0,2.0,5.0,5.0,-1.0,4.0
1705080599.1564527,23.0,-20.0,-10.0,-10.0,-4.0,3.0,2.0,2.0
1705080599.1564527,1.0,11.0,13.0,0.0,-2.0,-4.0,-2.0,-3.0
1705080599.1668518,-23.0,64.0,18.0,8.0,4.0,1.0,-2.0,3.0
1705080599.1668518,-46.0,-77.0,-39.0,2.0,3.0,3.0,1.0,-9.0
1705080599.1668518,0.0,42.0,8.0,-2.0,-3.0,1.0,-2.0,-3.0
1705080599.1668518,13.0,-40.0,-20.0,-8.0,4.0,2.0,2.0,4.0
1705080599.1865091,30.0,78.0,44.0,7.0,3.0,5.0,4.0,12.0
1705080599.1865091,-71.0,-43.0,-32.0,-14.0,-9.0,-11.0,-13.0,-22.0
1705080599.1964586,8.0,20.0,16.0,8.0,-2.0,5.0,0.0,-1.0
1705080599.1964586,-5.0,-15.0,-6.0,-6.0,-1.0,1.0,0.0,4.0
1705080599.2140365,9.0,0.0,-5.0,-3.0,-2.0,-6.0,0.0,2.0
1705080599.2140365,32.0,28.0,22.0,6.0,-1.0,-2.0,-1.0,3.0
1705080599.2140365,-2.0,-19.0,-9.0,-2.0,1.0,3.0,-2.0,2.0
1705080599.2140365,-30.0,19.0,6.0,-1.0,1.0,1.0,1.0,-4.0
1705080599.2326217,-7.0,-39.0,-18.0,-4.0,-3.0,-2.0,-1.0,-3.0
1705080599.2326217,26.0,16.0,11.0,-3.0,-2.0,1.0,-2.0,3.0
1705080599.2344534,-10.0,5.0,3.0,2.0,2.0,6.0,6.0,5.0
1705080599.2344534,52.0,7.0,5.0,5.0,1.0,-2.0,-1.0,4.0
1705080599.2622669,-62.0,-41.0,-22.0,-9.0,-6.0,-6.0,-7.0,-26.0
1705080599.2632716,6.0,-10.0,4.0,-3.0,0.0,-2.0,-3.0,4.0
1705080599.2642689,25.0,33.0,9.0,0.0,-1.0,3.0,0.0,-3.0
1705080599.2642689,4.0,3.0,-2.0,3.0,0.0,0.0,0.0,2.0
1705080599.2693906,4.0,-20.0,-13.0,-2.0,-3.0,-2.0,-2.0,1.0
1705080599.2693906,15.0,8.0,17.0,2.0,0.0,-1.0,3.0,6.0
1705080599.2693906,-1.0,-16.0,-20.0,-7.0,-3.0,-1.0,0.0,-1.0
1705080599.2693906,-11.0,11.0,4.0,2.0,0.0,-2.0,-6.0,-7.0
1705080599.289773,-3.0,-9.0,-6.0,4.0,1.0,3.0,1.0,0.0
1705080599.289773,13.0,-1.0,4.0,0.0,-2.0,0.0,-1.0,1.0
1705080599.289773,2.0,-3.0,-11.0,-8.0,-4.0,-2.0,-3.0,0.0
1705080599.289773,-11.0,-19.0,-2.0,-4.0,-3.0,0.0,2.0,-6.0
1705080599.3094106,18.0,6.0,1.0,3.0,1.0,0.0,0.0,0.0
1705080599.3094106,-10.0,16.0,6.0,0.0,-2.0,0.0,-1.0,6.0
1705080599.3193924,-2.0,-24.0,-8.0,-5.0,-4.0,-3.0,-5.0,-13.0
1705080599.3193924,10.0,15.0,-2.0,-2.0,0.0,0.0,-1.0,2.0
1705080599.32944,-1.0,-5.0,-2.0,-6.0,-6.0,-2.0,-1.0,3.0
1705080599.32944,9.0,-5.0,2.0,4.0,4.0,-1.0,-1.0,0.0
1705080599.32944,-9.0,-1.0,6.0,5.0,2.0,2.0,-2.0,0.0
1705080599.32944,-8.0,-7.0,-9.0,-3.0,-2.0,-1.0,-2.0,-2.0
1705080599.3496873,11.0,-13.0,-14.0,-12.0,-6.0,-3.0,-1.0,1.0
1705080599.3496873,-4.0,12.0,3.0,-6.0,-5.0,-3.0,-3.0,-7.0
1705080599.3496873,-4.0,-10.0,12.0,17.0,7.0,4.0,2.0,5.0
1705080599.3496873,4.0,22.0,3.0,3.0,0.0,-1.0,-4.0,-5.0
1705080599.3695648,-9.0,-34.0,-6.0,-2.0,-2.0,-2.0,-3.0,-4.0
1705080599.3695648,8.0,2.0,-8.0,-2.0,-1.0,-2.0,-1.0,3.0
1705080599.3893976,-3.0,0.0,8.0,-1.0,0.0,-3.0,-2.0,-1.0
1705080599.3893976,0.0,-2.0,-7.0,1.0,1.0,0.0,1.0,1.0
1705080599.3993914,-5.0,-5.0,-6.0,-7.0,-1.0,-2.0,-2.0,-2.0
1705080599.3993914,0.0,2.0,2.0,-3.0,-2.0,-3.0,-4.0,-3.0
1705080599.3993914,4.0,-3.0,-7.0,-8.0,-4.0,-2.0,0.0,0.0
1705080599.3993914,-6.0,-4.0,9.0,1.0,0.0,0.0,2.0,-1.0
1705080599.4096136,-3.0,5.0,5.0,11.0,2.0,1.0,2.0,0.0
1705080599.4096136,5.0,1.0,5.0,5.0,0.0,0.0,1.0,-1.0
1705080599.4096136,-5.0,2.0,-7.0,-5.0,-3.0,-1.0,-4.0,-1.0
1705080599.4096136,-1.0,-7.0,-16.0,-13.0,-8.0,-3.0,-4.0,-4.0
1705080599.4493923,-8.0,3.0,0.0,-5.0,1.0,-3.0,-2.0,1.0
1705080599.4493923,3.0,0.0,25.0,10.0,5.0,0.0,1.0,1.0
1705080599.4493923,0.0,6.0,-8.0,11.0,2.0,1.0,1.0,0.0
1705080599.4493923,-5.0,-10.0,1.0,-3.0,0.0,-2.0,-1.0,-3.0
1705080599.4493923,5.0,1.0,-1.0,1.0,2.0,2.0,0.0,3.0
1705080599.4493923,0.0,-4.0,-19.0,-6.0,-5.0,-1.0,0.0,-1.0
1705080599.4493923,-1.0,-10.0,0.0,-8.0,-3.0,-3.0,-1.0,-5.0
1705080599.4493923,-11.0,-1.0,5.0,8.0,3.0,1.0,0.0,1.0
1705080599.4694433,-6.0,1.0,-1.0,-3.0,-3.0,-1.0,-2.0,-2.0
1705080599.4694433,6.0,3.0,-1.0,-3.0,-1.0,0.0,-2.0,-2.0
1705080599.4694433,9.0,0.0,3.0,-1.0,-1.0,1.0,1.0,-2.0
1705080599.4694433,2.0,-2.0,-1.0,1.0,1.0,0.0,0.0,0.0
1705080599.4894202,3.0,9.0,7.0,4.0,0.0,1.0,-2.0,1.0
1705080599.4894202,-8.0,7.0,-4.0,0.0,-1.0,1.0,0.0,6.0
1705080599.4894202,-26.0,-26.0,-7.0,-4.0,-4.0,-3.0,-4.0,-13.0
1705080599.4894202,7.0,11.0,-2.0,-8.0,-6.0,-2.0,-3.0,-1.0
1705080599.5093987,0.0,8.0,13.0,10.0,6.0,1.0,0.0,-1.0
1705080599.5093987,2.0,2.0,2.0,0.0,0.0,-1.0,1.0,3.0
1705080599.5093987,6.0,5.0,-2.0,1.0,1.0,1.0,-1.0,-4.0
1705080599.5093987,-22.0,-21.0,-6.0,-3.0,-3.0,-3.0,-2.0,-2.0
1705080599.5294478,6.0,8.0,-1.0,-6.0,-2.0,2.0,0.0,0.0
1705080599.5294478,-14.0,-12.0,-13.0,-8.0,-2.0,-11.0,-7.0,-11.0
1705080599.539394,8.0,2.0,9.0,9.0,2.0,6.0,4.0,7.0
1705080599.539394,7.0,-1.0,-1.0,1.0,2.0,-10.0,1.0,2.0
1705080599.5493927,15.0,5.0,1.0,-3.0,-11.0,3.0,-5.0,-4.0
1705080599.5493927,-9.0,-28.0,-4.0,-4.0,-5.0,23.0,0.0,-7.0
1705080599.5493927,-9.0,5.0,-12.0,-12.0,1.0,-16.0,-3.0,-3.0
1705080599.5493927,3.0,-5.0,5.0,4.0,1.0,2.0,3.0,4.0
1705080599.5693944,1.0,12.0,1.0,3.0,5.0,-8.0,-2.0,2.0
1705080599.5693944,19.0,5.0,5.0,4.0,3.0,1.0,2.0,-5.0
1705080599.5693944,3.0,-1.0,0.0,-3.0,-2.0,-2.0,-2.0,-4.0
1705080599.5693944,3.0,11.0,-1.0,-1.0,0.0,0.0,1.0,-1.0
1705080599.589447,17.0,-7.0,9.0,0.0,-1.0,-4.0,1.0,1.0
1705080599.589447,34.0,9.0,-7.0,2.0,1.0,0.0,2.0,14.0
1705080599.589447,-82.0,-33.0,-17.0,-10.0,-5.0,-3.0,-14.0,-37.0
1705080599.589447,-4.0,-9.0,-13.0,-13.0,-2.0,-2.0,-4.0,-10.0
1705080599.6094267,18.0,-2.0,-2.0,2.0,-3.0,2.0,3.0,6.0
1705080599.6094267,14.0,4.0,26.0,7.0,0.0,-6.0,-3.0,-1.0
1705080599.6094267,36.0,42.0,19.0,13.0,3.0,1.0,4.0,19.0
1705080599.6094267,13.0,6.0,-5.0,-1.0,-2.0,1.0,-2.0,4.0
1705080599.6293948,-27.0,-13.0,-24.0,-13.0,-6.0,-4.0,-4.0,-10.0
1705080599.6293948,-2.0,-16.0,-8.0,-7.0,-5.0,-5.0,0.0,2.0
1705080599.6293948,6.0,-11.0,8.0,6.0,4.0,3.0,2.0,7.0
1705080599.6293948,-10.0,21.0,13.0,5.0,1.0,1.0,-3.0,-6.0
1705080599.6494477,-4.0,-21.0,-17.0,-3.0,1.0,-3.0,0.0,2.0
1705080599.6494477,-11.0,19.0,-3.0,-8.0,-2.0,-2.0,-2.0,-6.0
1705080599.6494477,2.0,6.0,4.0,-2.0,-12.0,-6.0,-2.0,2.0
1705080599.6494477,-1.0,-11.0,-6.0,-2.0,-4.0,-4.0,-2.0,-1.0
1705080599.6694243,-9.0,-5.0,-1.0,-4.0,-2.0,-6.0,-3.0,-2.0
1705080599.6694243,-10.0,0.0,7.0,1.0,3.0,0.0,1.0,-1.0
1705080599.6694243,4.0,20.0,9.0,15.0,9.0,6.0,5.0,-1.0
1705080599.6694243,9.0,6.0,10.0,8.0,8.0,3.0,1.0,3.0
1705080599.6893926,-6.0,23.0,6.0,-2.0,-5.0,-6.0,-3.0,-2.0
1705080599.6893926,-15.0,-26.0,-38.0,-36.0,-16.0,-9.0,-7.0,-6.0
1705080599.6893926,9.0,-3.0,15.0,15.0,6.0,2.0,2.0,5.0
1705080599.6893926,-1.0,57.0,39.0,14.0,2.0,-1.0,0.0,-5.0
1705080599.7093928,-10.0,-17.0,7.0,7.0,3.0,3.0,-1.0,-3.0
1705080599.7093928,-6.0,-2.0,-2.0,-7.0,-5.0,-2.0,0.0,6.0
1705080599.7093928,14.0,37.0,23.0,-12.0,-5.0,-4.0,-7.0,-7.0
1705080599.7093928,-3.0,-31.0,-33.0,4.0,4.0,7.0,3.0,2.0
1705080599.7298436,-14.0,-8.0,-1.0,-1.0,-2.0,1.0,-2.0,1.0
1705080599.7298436,-2.0,6.0,1.0,5.0,2.0,-2.0,-4.0,-3.0
1705080599.7298436,3.0,-7.0,2.0,-5.0,-3.0,1.0,-2.0,4.0
1705080599.7298436,-9.0,-15.0,-5.0,-5.0,-2.0,-3.0,-1.0,1.0
1705080599.7493951,8.0,6.0,-4.0,-3.0,-2.0,-4.0,2.0,-1.0
1705080599.7493951,-12.0,0.0,0.0,9.0,20.0,11.0,-4.0,-4.0
1705080599.7493951,-4.0,-16.0,-13.0,-3.0,-19.0,-28.0,-3.0,3.0
1705080599.7493951,-2.0,-7.0,-1.0,-4.0,1.0,4.0,-5.0,6.0
1705080599.7725654,-10.0,-12.0,-12.0,-5.0,-5.0,-4.0,1.0,-10.0
1705080599.7725654,2.0,6.0,10.0,6.0,-2.0,6.0,1.0,-6.0
1705080599.774375,29.0,-2.0,-13.0,-4.0,-5.0,0.0,3.0,11.0
1705080599.774375,-18.0,-21.0,-9.0,-7.0,8.0,-2.0,1.0,0.0
1705080599.7952695,11.0,22.0,8.0,-6.0,-16.0,-6.0,-1.0,1.0
1705080599.7952695,-37.0,-25.0,-10.0,-3.0,-2.0,-9.0,-5.0,-15.0
1705080599.7972767,-2.0,9.0,4.0,4.0,9.0,9.0,1.0,-4.0
1705080599.7972767,36.0,7.0,1.0,2.0,-4.0,0.0,-1.0,7.0
1705080599.8181276,8.0,2.0,-5.0,-3.0,4.0,4.0,-2.0,0.0
1705080599.8181276,-32.0,-5.0,0.0,2.0,-2.0,-3.0,1.0,-2.0
1705080599.8191414,11.0,-1.0,-9.0,-3.0,3.0,6.0,0.0,4.0
1705080599.8191414,0.0,-3.0,1.0,-2.0,-7.0,-3.0,3.0,-3.0
1705080599.833109,1.0,-1.0,6.0,5.0,7.0,1.0,-2.0,-1.0
1705080599.833109,12.0,-2.0,-7.0,-6.0,-7.0,-6.0,-3.0,2.0
1705080599.8341022,-10.0,-4.0,-13.0,-10.0,0.0,0.0,-4.0,-2.0
1705080599.8341022,-9.0,-11.0,11.0,5.0,-2.0,-1.0,0.0,-5.0
1705080599.8553436,-4.0,1.0,-8.0,-4.0,-1.0,1.0,0.0,0.0
1705080599.8553436,16.0,7.0,-1.0,3.0,0.0,-2.0,-3.0,-1.0
1705080599.8563437,-16.0,-12.0,-1.0,-1.0,3.0,3.0,2.0,-3.0
1705080599.8563437,3.0,-1.0,-2.0,-6.0,-5.0,-4.0,-5.0,-6.0
1705080599.868341,-3.0,-28.0,-2.0,-4.0,-1.0,-1.0,-1.0,0.0
1705080599.868341,7.0,14.0,6.0,2.0,-1.0,0.0,3.0,3.0
1705080599.8780217,13.0,13.0,-3.0,-3.0,2.0,3.0,0.0,-3.0
1705080599.8780217,-14.0,-5.0,1.0,-1.0,-2.0,-3.0,-6.0,-3.0
1705080599.892561,-2.0,-20.0,-11.0,-3.0,-1.0,-1.0,-2.0,-6.0
1705080599.892561,-7.0,11.0,7.0,1.0,-4.0,-3.0,0.0,-3.0
1705080599.894608,-5.0,-8.0,3.0,-1.0,-5.0,-2.0,-4.0,1.0
1705080599.894608,30.0,7.0,-16.0,-6.0,-2.0,1.0,4.0,5.0
1705080599.914941,-21.0,-1.0,7.0,3.0,5.0,2.0,-4.0,-4.0
1705080599.914941,4.0,3.0,3.0,3.0,2.0,0.0,1.0,2.0
1705080599.917115,2.0,-12.0,-7.0,-4.0,0.0,1.0,1.0,1.0
1705080599.917115,-10.0,5.0,4.0,0.0,-2.0,-4.0,0.0,-3.0
1705080599.9359674,12.0,3.0,-2.0,-1.0,2.0,2.0,3.0,3.0
1705080599.9359674,17.0,-3.0,-5.0,-2.0,-3.0,-7.0,-10.0,-4.0
1705080599.937682,11.0,-14.0,-4.0,-2.0,-1.0,-3.0,-3.0,-6.0
1705080599.937682,-26.0,5.0,-5.0,-6.0,-4.0,-1.0,-1.0,-10.0
1705080599.9526906,-8.0,-13.0,-5.0,1.0,2.0,3.0,4.0,0.0
1705080599.9526906,20.0,11.0,1.0,4.0,2.0,2.0,6.0,8.0
1705080599.953689,13.0,16.0,9.0,6.0,2.0,1.0,-7.0,8.0
1705080599.953689,-29.0,-18.0,-24.0,-14.0,-11.0,-3.0,10.0,-8.0
1705080599.975819,-2.0,-6.0,2.0,-2.0,-5.0,-9.0,-16.0,-12.0
1705080599.975819,-30.0,7.0,10.0,9.0,5.0,4.0,4.0,-3.0
1705080599.9769444,0.0,-6.0,-6.0,2.0,-2.0,0.0,5.0,3.0
1705080599.9769444,10.0,3.0,3.0,-3.0,1.0,3.0,-2.0,5.0
1705080599.9980626,0.0,0.0,2.0,-1.0,-2.0,-3.0,-2.0,2.0
1705080599.9980626,6.0,12.0,-10.0,-13.0,-4.0,0.0,-4.0,-5.0
1705080599.9980626,-12.0,-13.0,-10.0,-1.0,-1.0,-1.0,-1.0,-4.0
1705080599.9980626,12.0,2.0,7.0,1.0,0.0,-2.0,-1.0,4.0
1705080600.0128524,-2.0,3.0,-6.0,-1.0,2.0,2.0,1.0,-1.0
1705080600.013867,6.0,9.0,21.0,5.0,2.0,-2.0,-2.0,-1.0
1705080600.014863,-4.0,-9.0,-7.0,-2.0,2.0,2.0,3.0,-1.0
1705080600.014863,-29.0,-18.0,3.0,5.0,2.0,-2.0,-4.0,-5.0
1705080600.035918,26.0,-1.0,-6.0,-8.0,-4.0,-3.0,-4.0,1.0
1705080600.035918,16.0,0.0,-2.0,-2.0,-2.0,-1.0,3.0,6.0
1705080600.0379212,-34.0,4.0,3.0,-2.0,-2.0,-2.0,-2.0,-10.0
1705080600.0379212,2.0,4.0,1.0,1.0,0.0,-1.0,-4.0,-1.0
1705080600.0586586,-2.0,18.0,7.0,4.0,1.0,-1.0,2.0,2.0
1705080600.0586586,-2.0,-14.0,-8.0,-5.0,-3.0,0.0,1.0,-3.0
1705080600.0586586,-2.0,-4.0,-3.0,-5.0,-3.0,-4.0,-1.0,0.0
1705080600.0586586,10.0,4.0,3.0,1.0,3.0,0.0,-4.0,-2.0
1705080600.0733569,-4.0,4.0,1.0,0.0,0.0,0.0,0.0,1.0
1705080600.0733569,-5.0,-15.0,-10.0,-3.0,-3.0,-2.0,-1.0,-3.0
1705080600.0745308,-2.0,3.0,1.0,0.0,0.0,-1.0,-3.0,1.0
1705080600.0745308,13.0,11.0,14.0,7.0,4.0,3.0,0.0,4.0
1705080600.101407,-26.0,-10.0,-15.0,-7.0,-2.0,-2.0,-2.0,-7.0
1705080600.101407,-3.0,-6.0,-2.0,-1.0,0.0,-1.0,1.0,1.0
1705080600.101407,-8.0,-13.0,4.0,2.0,1.0,0.0,-2.0,-5.0
1705080600.101407,16.0,10.0,-3.0,-6.0,-5.0,-4.0,-4.0,-2.0
1705080600.1180842,0.0,-4.0,3.0,5.0,2.0,0.0,0.0,2.0
1705080600.1180842,9.0,3.0,0.0,0.0,0.0,-1.0,-2.0,0.0
1705080600.1200876,-19.0,-13.0,-6.0,-5.0,-3.0,-3.0,-1.0,-2.0
1705080600.1200876,13.0,0.0,1.0,-3.0,-4.0,-4.0,-1.0,-1.0
1705080600.1329987,4.0,5.0,4.0,5.0,2.0,2.0,2.0,1.0
1705080600.1329987,-12.0,-2.0,0.0,6.0,2.0,0.0,-1.0,-2.0
1705080600.1339984,2.0,3.0,-3.0,-4.0,-2.0,-1.0,-1.0,-8.0
1705080600.1339984,-13.0,-10.0,-7.0,-6.0,-4.0,-1.0,-6.0,-3.0
1705080600.162223,-1.0,3.0,1.0,0.0,-1.0,-1.0,-1.0,-1.0
1705080600.162223,8.0,-3.0,-10.0,-6.0,-3.0,-2.0,-2.0,3.0
1705080600.162223,-24.0,5.0,14.0,-4.0,-2.0,-2.0,-2.0,-5.0
1705080600.162223,-3.0,6.0,4.0,13.0,4.0,0.0,0.0,-2.0
1705080600.1775405,6.0,-23.0,-10.0,-4.0,-1.0,0.0,1.0,-4.0
1705080600.1775405,-37.0,0.0,-3.0,-3.0,-2.0,-2.0,-5.0,-8.0
1705080600.1795287,11.0,5.0,-10.0,-11.0,-6.0,-2.0,-2.0,3.0
1705080600.1795287,10.0,4.0,13.0,2.0,3.0,1.0,1.0,4.0
1705080600.1925719,-20.0,3.0,8.0,5.0,3.0,-1.0,-2.0,-4.0
1705080600.1925719,-7.0,-12.0,-5.0,-1.0,-1.0,1.0,1.0,0.0
1705080600.1943064,-9.0,-8.0,-15.0,-8.0,-7.0,-2.0,-2.0,-2.0
1705080600.1943064,-1.0,9.0,5.0,1.0,-2.0,0.0,-1.0,-2.0
1705080600.223344,11.0,-1.0,9.0,9.0,5.0,5.0,4.0,9.0
1705080600.223344,8.0,3.0,-6.0,-2.0,-1.0,-2.0,-2.0,1.0
1705080600.223344,2.0,-9.0,-5.0,-3.0,-1.0,-3.0,-1.0,-3.0
1705080600.223344,2.0,1.0,-8.0,-8.0,-5.0,-4.0,-5.0,-5.0
1705080600.2377186,-3.0,7.0,0.0,0.0,-1.0,-2.0,-4.0,-2.0
1705080600.2387183,5.0,8.0,10.0,3.0,1.0,2.0,0.0,-1.0
1705080600.240715,10.0,2.0,-1.0,1.0,2.0,-1.0,-1.0,4.0
1705080600.240715,-2.0,-9.0,-12.0,-8.0,-3.0,-1.0,-2.0,-1.0
1705080600.2531364,-6.0,3.0,13.0,2.0,-2.0,-4.0,-1.0,0.0
1705080600.2531364,14.0,6.0,-3.0,3.0,3.0,0.0,1.0,-3.0
1705080600.2541363,3.0,-4.0,-2.0,1.0,-1.0,-1.0,0.0,0.0
1705080600.2541363,-13.0,-7.0,-13.0,-10.0,-4.0,-1.0,-1.0,0.0
1705080600.2805789,3.0,4.0,-4.0,-5.0,-3.0,-1.0,-2.0,1.0
1705080600.2805789,1.0,0.0,22.0,11.0,1.0,0.0,1.0,1.0
1705080600.2805789,7.0,1.0,-1.0,1.0,0.0,-1.0,-6.0,-1.0
1705080600.2805789,-16.0,-13.0,-4.0,-3.0,0.0,-2.0,3.0,-3.0
1705080600.2971387,4.0,-1.0,-12.0,-8.0,-6.0,-1.0,-2.0,1.0
1705080600.2971387,5.0,11.0,1.0,-1.0,-1.0,-1.0,-1.0,-1.0
1705080600.2979155,-2.0,-10.0,-1.0,5.0,1.0,-1.0,-1.0,-3.0
1705080600.2979155,-1.0,1.0,3.0,5.0,1.0,0.0,-3.0,0.0
1705080600.3120246,-1.0,-1.0,-5.0,-4.0,-1.0,-2.0,-3.0,-4.0
1705080600.3120246,-2.0,-6.0,-4.0,-6.0,-1.0,-1.0,0.0,1.0
1705080600.3190794,-4.0,-4.0,-3.0,-5.0,-3.0,0.0,-2.0,0.0
1705080600.320023,-3.0,-3.0,3.0,4.0,1.0,1.0,1.0,-2.0
1705080600.3389525,-4.0,-8.0,-1.0,0.0,-3.0,-3.0,0.0,2.0
1705080600.3389525,13.0,14.0,-2.0,-3.0,-2.0,-1.0,-4.0,-3.0
1705080600.3389525,2.0,-6.0,1.0,1.0,-1.0,-1.0,3.0,3.0
1705080600.3389525,3.0,-15.0,-17.0,-11.0,-6.0,-4.0,-4.0,-6.0
1705080600.3570256,-12.0,-2.0,1.0,-2.0,0.0,0.0,0.0,-1.0
1705080600.3570256,-5.0,13.0,11.0,6.0,2.0,0.0,-5.0,-1.0
1705080600.3580816,5.0,15.0,1.0,2.0,2.0,1.0,-1.0,2.0
1705080600.3580816,4.0,-8.0,1.0,0.0,-1.0,2.0,0.0,0.0
1705080600.3711371,10.0,17.0,4.0,-3.0,-5.0,-6.0,1.0,0.0
1705080600.3711371,-7.0,-22.0,-15.0,-10.0,-7.0,-5.0,0.0,-1.0
1705080600.3887694,-3.0,2.0,2.0,0.0,-1.0,-3.0,-4.0,-2.0
1705080600.3887694,2.0,12.0,6.0,2.0,0.0,-6.0,4.0,1.0
1705080600.3947694,1.0,2.0,1.0,0.0,0.0,7.0,-3.0,-3.0
1705080600.3947694,-8.0,-6.0,3.0,0.0,-4.0,1.0,0.0,3.0
1705080600.3952572,-2.0,5.0,-3.0,-5.0,-5.0,-4.0,-4.0,-1.0
1705080600.3952572,-3.0,-2.0,-3.0,-3.0,0.0,5.0,-3.0,-1.0
1705080600.425329,12.0,37.0,17.0,4.0,0.0,-12.0,0.0,-2.0
1705080600.425329,-53.0,-104.0,-34.0,-5.0,-1.0,-5.0,-2.0,-10.0
1705080600.426348,-6.0,24.0,0.0,-5.0,-8.0,-3.0,-3.0,-9.0
1705080600.426348,0.0,18.0,2.0,4.0,17.0,10.0,6.0,0.0
1705080600.431399,18.0,2.0,0.0,2.0,-9.0,-3.0,3.0,9.0
1705080600.4323523,-10.0,-10.0,2.0,0.0,4.0,9.0,-5.0,-6.0
1705080600.440348,1.0,-2.0,1.0,0.0,-6.0,-6.0,4.0,4.0
1705080600.440348,-8.0,-1.0,-1.0,1.0,1.0,2.0,-2.0,1.0
1705080600.459248,13.0,14.0,2.0,1.0,-5.0,-18.0,6.0,2.0
1705080600.459248,7.0,7.0,-10.0,-4.0,3.0,6.0,-1.0,-2.0
1705080600.459248,0.0,3.0,4.0,7.0,-2.0,19.0,-1.0,-1.0
1705080600.459248,5.0,7.0,-5.0,-7.0,-3.0,-22.0,-24.0,-4.0
1705080600.47723,-13.0,-33.0,-3.0,-2.0,-6.0,4.0,2.0,4.0
1705080600.47723,5.0,33.0,-4.0,-6.0,-3.0,-21.0,-4.0,0.0
1705080600.47723,7.0,16.0,8.0,2.0,6.0,4.0,16.0,-1.0
1705080600.47723,31.0,-15.0,3.0,4.0,-2.0,4.0,4.0,7.0
1705080600.4913635,6.0,-1.0,-6.0,-3.0,9.0,5.0,1.0,6.0
1705080600.4913635,-19.0,-6.0,0.0,-2.0,-3.0,0.0,-4.0,-19.0
1705080600.5047626,-32.0,-39.0,-14.0,-5.0,6.0,3.0,-6.0,-9.0
1705080600.5047626,42.0,25.0,-6.0,-1.0,-6.0,2.0,6.0,16.0
1705080600.5158088,-19.0,-17.0,6.0,0.0,1.0,-3.0,-14.0,-19.0
1705080600.5158088,4.0,19.0,8.0,4.0,-1.0,8.0,3.0,1.0
1705080600.5167613,10.0,7.0,0.0,-8.0,-7.0,-6.0,-4.0,5.0
1705080600.5167613,-16.0,-14.0,1.0,2.0,-4.0,-14.0,-6.0,-14.0
1705080600.5372887,6.0,12.0,-6.0,-2.0,-2.0,4.0,1.0,7.0
1705080600.5372887,12.0,3.0,6.0,2.0,-3.0,-2.0,3.0,5.0
1705080600.5382867,-5.0,-16.0,-6.0,-3.0,5.0,-5.0,-6.0,-4.0
1705080600.5382867,-7.0,-2.0,1.0,-1.0,-5.0,5.0,5.0,6.0
1705080600.559916,0.0,-6.0,3.0,2.0,-5.0,4.0,0.0,-2.0
1705080600.559916,3.0,6.0,-8.0,-5.0,11.0,-12.0,-6.0,-2.0
1705080600.559916,5.0,6.0,-11.0,-6.0,-12.0,-3.0,-1.0,-1.0
1705080600.559916,-11.0,7.0,5.0,-2.0,-2.0,0.0,3.0,-4.0
1705080600.5748594,-9.0,1.0,1.0,-1.0,4.0,4.0,-5.0,-6.0
1705080600.5748594,8.0,2.0,7.0,3.0,2.0,-10.0,2.0,2.0
1705080600.5748594,-3.0,2.0,3.0,4.0,-1.0,1.0,-3.0,5.0
1705080600.5748594,-13.0,-15.0,-4.0,0.0,-5.0,-1.0,-3.0,-3.0
1705080600.597091,-6.0,5.0,-13.0,-8.0,-1.0,0.0,-1.0,-5.0
1705080600.597091,14.0,7.0,14.0,1.0,-3.0,3.0,4.0,9.0
1705080600.59817,1.0,-8.0,-6.0,3.0,6.0,-4.0,-1.0,0.0
1705080600.59817,-13.0,-12.0,-15.0,-2.0,0.0,2.0,-2.0,-7.0
1705080600.6131,-7.0,35.0,22.0,-1.0,2.0,3.0,-3.0,-1.0
1705080600.6131,-6.0,-38.0,-11.0,10.0,1.0,1.0,-3.0,-2.0
1705080600.6193385,13.0,32.0,16.0,3.0,-2.0,-3.0,2.0,4.0
1705080600.6193385,-26.0,-87.0,-34.0,-20.0,-9.0,-6.0,-6.0,-14.0
1705080600.634495,10.0,-5.0,0.0,-2.0,4.0,-1.0,3.0,5.0
1705080600.634495,6.0,-4.0,-6.0,7.0,0.0,6.0,4.0,7.0
1705080600.6354914,-2.0,-15.0,-15.0,-5.0,-1.0,-5.0,-4.0,-4.0
1705080600.6354914,3.0,15.0,8.0,1.0,2.0,1.0,2.0,5.0
1705080600.6570954,1.0,3.0,-9.0,-7.0,-3.0,-2.0,-3.0,-4.0
1705080600.6570954,-3.0,-3.0,12.0,-9.0,-9.0,0.0,-2.0,2.0
1705080600.6579776,-4.0,-21.0,-6.0,2.0,2.0,0.0,-2.0,-1.0
1705080600.6579776,-7.0,16.0,-1.0,-3.0,1.0,-1.0,0.0,5.0
1705080600.6714518,-2.0,-22.0,-10.0,0.0,-1.0,-1.0,-4.0,-9.0
1705080600.6714518,0.0,21.0,1.0,-2.0,-2.0,-2.0,0.0,-2.0
1705080600.6784708,3.0,7.0,7.0,0.0,0.0,-1.0,-1.0,-1.0
1705080600.6784708,-5.0,-2.0,0.0,-2.0,-3.0,-2.0,-1.0,-3.0
1705080600.694923,-5.0,15.0,8.0,8.0,3.0,0.0,-2.0,-1.0
1705080600.694923,5.0,10.0,-2.0,-3.0,-2.0,-1.0,-2.0,-1.0
1705080600.694923,1.0,-7.0,-5.0,-4.0,0.0,-1.0,-1.0,3.0
1705080600.694923,-1.0,8.0,9.0,-4.0,-4.0,1.0,1.0,-1.0
1705080600.7168834,-2.0,-10.0,9.0,11.0,3.0,1.0,1.0,-3.0
1705080600.7168834,4.0,-3.0,1.0,0.0,0.0,0.0,-1.0,-1.0
1705080600.7178605,-2.0,-3.0,-3.0,-1.0,-2.0,-5.0,1.0,-2.0
1705080600.7178605,3.0,11.0,-5.0,-4.0,-5.0,-3.0,-1.0,-1.0
1705080600.731785,-12.0,-17.0,-16.0,-10.0,-4.0,-4.0,-2.0,0.0
1705080600.731785,15.0,20.0,5.0,-2.0,-1.0,1.0,1.0,-2.0
1705080600.739239,-12.0,-14.0,4.0,4.0,3.0,3.0,6.0,3.0
1705080600.739239,-10.0,8.0,11.0,7.0,1.0,0.0,-4.0,-1.0
1705080600.754772,0.0,-12.0,-14.0,-10.0,-5.0,3.0,-2.0,1.0
1705080600.754772,10.0,12.0,-1.0,-2.0,-3.0,1.0,8.0,2.0
1705080600.754772,-9.0,-9.0,-1.0,-1.0,2.0,-3.0,-2.0,-4.0
1705080600.754772,-27.0,1.0,5.0,4.0,3.0,-3.0,-2.0,-11.0
1705080600.7769237,8.0,1.0,-4.0,-1.0,-8.0,-3.0,3.0,4.0
1705080600.7769237,6.0,6.0,0.0,-1.0,-1.0,9.0,-1.0,6.0
1705080600.7777035,7.0,-9.0,-1.0,0.0,11.0,-1.0,-8.0,-5.0
1705080600.7777035,3.0,7.0,3.0,3.0,-6.0,3.0,4.0,6.0
1705080600.7914536,25.0,-3.0,-6.0,-4.0,-6.0,-5.0,-3.0,-3.0
1705080600.7914536,-43.0,-20.0,-8.0,-5.0,0.0,-6.0,-4.0,-13.0
1705080600.8000622,2.0,15.0,6.0,1.0,-6.0,-9.0,0.0,3.0
1705080600.8000622,-9.0,9.0,3.0,1.0,5.0,3.0,0.0,2.0
1705080600.8150415,5.0,-3.0,2.0,-2.0,0.0,-2.0,1.0,-1.0
1705080600.8150415,-4.0,-7.0,-7.0,1.0,-4.0,-4.0,-3.0,0.0
1705080600.8150415,6.0,-6.0,1.0,3.0,3.0,8.0,2.0,-4.0
1705080600.8160074,7.0,8.0,1.0,0.0,-2.0,-4.0,-3.0,-3.0
1705080600.845387,-4.0,11.0,-6.0,0.0,0.0,-1.0,-2.0,-1.0
1705080600.845387,-4.0,-5.0,11.0,1.0,1.0,2.0,0.0,-1.0
1705080600.8463519,0.0,4.0,-8.0,-5.0,-6.0,-3.0,-2.0,1.0
1705080600.8463519,21.0,6.0,2.0,-1.0,-1.0,-1.0,0.0,3.0
1705080600.8508997,-14.0,-21.0,-17.0,-4.0,-2.0,-3.0,-2.0,-1.0
1705080600.8519013,-11.0,27.0,-3.0,-6.0,-4.0,-4.0,-4.0,-7.0
1705080600.8591154,-7.0,-3.0,-1.0,2.0,-3.0,-1.0,0.0,0.0
1705080600.8591154,14.0,3.0,16.0,4.0,3.0,0.0,1.0,0.0
1705080600.8744748,-8.0,7.0,6.0,-2.0,-1.0,-1.0,-4.0,-5.0
1705080600.8744748,6.0,-3.0,-10.0,-1.0,-2.0,-5.0,-2.0,0.0
1705080600.8754804,23.0,15.0,7.0,-2.0,-4.0,-1.0,1.0,8.0
1705080600.8754804,-39.0,-32.0,-18.0,-3.0,-2.0,3.0,6.0,-24.0
1705080600.8967128,0.0,-24.0,-5.0,-1.0,-2.0,-11.0,-13.0,0.0
1705080600.8967128,13.0,1.0,1.0,-2.0,0.0,1.0,-3.0,1.0
1705080600.8976784,-17.0,-2.0,3.0,-1.0,0.0,-1.0,-3.0,-10.0
1705080600.8976784,11.0,-5.0,1.0,0.0,1.0,1.0,1.0,4.0
1705080600.911814,-3.0,2.0,-6.0,2.0,3.0,5.0,10.0,0.0
1705080600.911814,9.0,-6.0,3.0,-4.0,-3.0,-3.0,-3.0,-1.0
1705080600.9194798,0.0,-5.0,-4.0,-4.0,-2.0,-2.0,-1.0,0.0
1705080600.9194798,6.0,16.0,-3.0,-3.0,-1.0,-2.0,-2.0,4.0
1705080600.9339426,-20.0,-15.0,4.0,-1.0,0.0,2.0,0.0,-6.0
1705080600.9339426,4.0,7.0,-3.0,-3.0,-2.0,-2.0,-1.0,5.0
1705080600.9339426,-16.0,-2.0,-1.0,2.0,-1.0,0.0,-1.0,-5.0
1705080600.9339426,6.0,2.0,-7.0,0.0,-1.0,-3.0,-3.0,-1.0
1705080600.9570196,9.0,4.0,3.0,-2.0,-1.0,-2.0,3.0,1.0
1705080600.9570196,-4.0,-8.0,-1.0,-2.0,-3.0,-2.0,-4.0,-2.0
1705080600.9570196,-7.0,-5.0,-3.0,-4.0,-5.0,-3.0,0.0,-3.0
1705080600.957993,10.0,-1.0,-2.0,-2.0,-3.0,-4.0,-5.0,2.0
1705080600.9777079,15.0,4.0,2.0,-1.0,-1.0,1.0,1.0,7.0
1705080600.9777079,-22.0,2.0,2.0,2.0,0.0,1.0,0.0,-12.0
1705080600.9777079,-33.0,-25.0,-6.0,-3.0,-4.0,-3.0,-2.0,-11.0
1705080600.9777079,12.0,11.0,5.0,0.0,1.0,-1.0,-2.0,6.0
1705080600.998049,-13.0,-9.0,-4.0,0.0,0.0,-1.0,0.0,-13.0
1705080600.9990387,11.0,1.0,-1.0,4.0,2.0,-1.0,0.0,4.0
1705080600.9990387,19.0,12.0,0.0,-2.0,0.0,0.0,-1.0,7.0
1705080600.9990387,39.0,10.0,5.0,3.0,0.0,1.0,3.0,5.0
1705080601.0172791,-73.0,-26.0,-3.0,-5.0,-6.0,-3.0,-6.0,-12.0
1705080601.0172791,3.0,-7.0,-7.0,-2.0,-1.0,-3.0,-2.0,-2.0
1705080601.0172791,13.0,11.0,2.0,-2.0,0.0,0.0,-1.0,-1.0
1705080601.0172791,-9.0,0.0,3.0,1.0,0.0,-2.0,-2.0,1.0
1705080601.037552,16.0,11.0,-7.0,1.0,1.0,1.0,-1.0,2.0
1705080601.037552,-3.0,-2.0,0.0,-3.0,-2.0,-2.0,-3.0,-1.0
1705080601.037552,0.0,0.0,-2.0,-1.0,1.0,-2.0,-2.0,1.0
1705080601.037552,-1.0,2.0,-2.0,-2.0,-2.0,-1.0,0.0,0.0
1705080601.0473368,25.0,4.0,5.0,0.0,0.0,-1.0,-1.0,3.0
1705080601.0473368,-30.0,-1.0,0.0,-3.0,-3.0,-4.0,-5.0,-9.0
1705080601.0473368,-27.0,-11.0,-3.0,0.0,-1.0,0.0,0.0,-3.0
1705080601.0473368,-14.0,0.0,-5.0,0.0,0.0,1.0,0.0,-1.0
1705080601.0772831,19.0,11.0,6.0,3.0,0.0,-1.0,-1.0,2.0
1705080601.0772831,28.0,0.0,-4.0,-5.0,-2.0,0.0,1.0,5.0
1705080601.0772831,10.0,-2.0,2.0,2.0,-2.0,-1.0,-1.0,1.0
1705080601.0772831,-18.0,-7.0,-2.0,-3.0,-4.0,-4.0,-4.0,-2.0
1705080601.0973592,-5.0,2.0,6.0,0.0,-1.0,1.0,1.0,4.0
1705080601.0973592,15.0,-2.0,-7.0,2.0,2.0,-2.0,0.0,7.0
1705080601.0973592,-1.0,6.0,1.0,-1.0,-1.0,-3.0,-3.0,1.0
1705080601.0973592,-5.0,-18.0,-9.0,-6.0,-3.0,-3.0,-3.0,-6.0
1705080601.1172829,0.0,11.0,-1.0,-3.0,0.0,1.0,0.0,-1.0
1705080601.1172829,0.0,-17.0,4.0,-1.0,0.0,1.0,3.0,3.0
1705080601.1172829,10.0,26.0,4.0,0.0,-2.0,0.0,-2.0,1.0
1705080601.1172829,-4.0,-7.0,-1.0,-1.0,-1.0,-1.0,-2.0,-3.0
1705080601.1373298,7.0,4.0,-1.0,-3.0,-1.0,-2.0,-1.0,2.0
1705080601.1373298,16.0,-2.0,-2.0,-4.0,-3.0,-3.0,-1.0,3.0
1705080601.1373298,-22.0,-23.0,2.0,3.0,0.0,-1.0,-4.0,-12.0
1705080601.1373298,20.0,19.0,5.0,3.0,2.0,0.0,3.0,9.0
1705080601.1572828,-26.0,-13.0,-11.0,-2.0,-2.0,-4.0,-4.0,-15.0
1705080601.1572828,-6.0,-3.0,-4.0,-2.0,0.0,2.0,1.0,-1.0
1705080601.1572828,30.0,10.0,3.0,4.0,4.0,1.0,2.0,4.0
1705080601.1572828,-6.0,-12.0,4.0,-2.0,-1.0,-1.0,-1.0,-5.0
1705080601.1746838,-9.0,-1.0,1.0,1.0,-1.0,0.0,-1.0,3.0
1705080601.1746838,3.0,2.0,-6.0,-2.0,-2.0,-1.0,-3.0,0.0
1705080601.17569,9.0,-2.0,-2.0,-2.0,-4.0,0.0,1.0,-1.0
1705080601.17569,23.0,-3.0,-1.0,0.0,-2.0,-1.0,-5.0,-12.0
1705080601.197256,4.0,1.0,4.0,1.0,1.0,1.0,3.0,7.0
1705080601.197256,-7.0,1.0,-7.0,-1.0,-2.0,-2.0,-5.0,-8.0
1705080601.2052593,-5.0,1.0,3.0,2.0,2.0,1.0,0.0,-2.0
1705080601.2052593,-14.0,-8.0,-4.0,-2.0,-2.0,-2.0,-2.0,-4.0
1705080601.2269533,-11.0,-6.0,-3.0,-2.0,-1.0,-2.0,-1.0,-3.0
1705080601.2269533,-4.0,14.0,6.0,1.0,-1.0,-1.0,2.0,3.0
1705080601.2269533,25.0,2.0,-7.0,-2.0,0.0,-2.0,0.0,4.0
1705080601.2269533,-21.0,-14.0,-4.0,0.0,-2.0,-4.0,-3.0,-6.0
1705080601.2351542,6.0,-5.0,-2.0,-4.0,-2.0,0.0,-2.0,-2.0
1705080601.2351542,-3.0,2.0,5.0,0.0,0.0,3.0,-1.0,0.0
1705080601.2351542,-15.0,-2.0,2.0,1.0,-2.0,-1.0,-1.0,-1.0
1705080601.2351542,9.0,8.0,-1.0,-1.0,-1.0,-1.0,0.0,4.0
1705080601.2565796,13.0,9.0,3.0,-1.0,-1.0,0.0,0.0,4.0
1705080601.2574215,-1.0,-24.0,-11.0,1.0,-1.0,-1.0,-1.0,-2.0
1705080601.2574215,-19.0,-7.0,-11.0,-6.0,-4.0,-3.0,-3.0,-6.0
1705080601.258422,-11.0,12.0,3.0,-1.0,-1.0,0.0,-1.0,-2.0
1705080601.2835734,-2.0,0.0,8.0,3.0,1.0,1.0,1.0,-2.0
1705080601.2835734,24.0,-1.0,3.0,1.0,1.0,1.0,2.0,-3.0
1705080601.2835734,-24.0,-4.0,-3.0,-2.0,-1.0,-2.0,-2.0,-5.0
1705080601.2835734,24.0,-4.0,-6.0,-3.0,-3.0,-3.0,-2.0,3.0
1705080601.2939093,3.0,2.0,-5.0,-5.0,-2.0,-1.0,0.0,2.0
1705080601.2939093,11.0,9.0,6.0,1.0,0.0,0.0,0.0,3.0
1705080601.2939093,-14.0,7.0,5.0,2.0,2.0,-1.0,3.0,7.0
1705080601.2939093,-12.0,-19.0,-6.0,-5.0,-2.0,-2.0,-4.0,-9.0
1705080601.3167117,-11.0,-8.0,-7.0,-2.0,-2.0,-3.0,-2.0,-4.0
1705080601.3167117,-10.0,12.0,1.0,0.0,-4.0,-3.0,1.0,-1.0
1705080601.3187315,27.0,14.0,2.0,0.0,-1.0,-1.0,-2.0,6.0
1705080601.3187315,-14.0,-3.0,1.0,3.0,-1.0,1.0,3.0,2.0
1705080601.348045,-25.0,-11.0,-2.0,2.0,-1.0,-1.0,-3.0,-9.0
1705080601.348045,-6.0,5.0,2.0,0.0,0.0,0.0,-1.0,-3.0
1705080601.348045,1.0,-12.0,-7.0,-1.0,-1.0,-1.0,0.0,-1.0
1705080601.348045,7.0,18.0,4.0,1.0,0.0,1.0,-1.0,2.0
1705080601.36307,6.0,-17.0,-7.0,-3.0,-2.0,-3.0,-2.0,0.0
1705080601.36307,-15.0,1.0,-2.0,0.0,-3.0,-1.0,-1.0,-2.0
1705080601.36307,11.0,2.0,1.0,-2.0,-3.0,-1.0,-2.0,1.0
1705080601.36307,-7.0,0.0,4.0,2.0,4.0,-1.0,0.0,-1.0
1705080601.3770728,8.0,12.0,2.0,-2.0,0.0,0.0,0.0,0.0
1705080601.3770728,4.0,-4.0,-4.0,-1.0,0.0,-1.0,1.0,1.0
1705080601.3780875,-26.0,-25.0,-5.0,-1.0,-1.0,-1.0,-3.0,-13.0
1705080601.3780875,-10.0,-5.0,0.0,0.0,0.0,0.0,0.0,1.0
1705080601.4011474,21.0,7.0,-4.0,-2.0,-3.0,-2.0,-2.0,1.0
1705080601.4011474,-23.0,-3.0,5.0,0.0,-3.0,-3.0,-5.0,-4.0
1705080601.4011474,26.0,-7.0,-4.0,0.0,-2.0,-1.0,-1.0,1.0
1705080601.4011474,11.0,7.0,-6.0,-2.0,-1.0,-4.0,-4.0,-3.0
1705080601.411259,-1.0,-5.0,0.0,-2.0,-1.0,-1.0,2.0,0.0
1705080601.411259,0.0,1.0,1.0,1.0,2.0,0.0,1.0,2.0
1705080601.411259,17.0,14.0,8.0,5.0,4.0,2.0,1.0,2.0
1705080601.411259,-1.0,6.0,-3.0,-1.0,-1.0,-1.0,0.0,-3.0
1705080601.431324,-8.0,-15.0,-2.0,-4.0,-2.0,-3.0,-2.0,2.0
1705080601.431324,-20.0,-11.0,-8.0,-6.0,-3.0,-4.0,-5.0,-11.0
1705080601.431324,-24.0,0.0,1.0,-2.0,-1.0,-1.0,1.0,4.0
1705080601.431324,-1.0,-15.0,-1.0,1.0,-2.0,-1.0,-1.0,3.0
1705080601.4611495,-6.0,17.0,-1.0,1.0,0.0,-2.0,-4.0,-3.0
1705080601.4611495,0.0,-5.0,-2.0,-2.0,0.0,-2.0,-1.0,-2.0
1705080601.4611495,0.0,-7.0,-1.0,-1.0,-1.0,0.0,0.0,-1.0
1705080601.4611495,-1.0,6.0,-1.0,-2.0,1.0,0.0,0.0,-1.0
1705080601.4830563,5.0,8.0,-4.0,-2.0,-3.0,-3.0,-1.0,-4.0
1705080601.4830563,4.0,-23.0,2.0,-1.0,-3.0,-5.0,0.0,4.0
1705080601.4840076,6.0,18.0,0.0,-2.0,-1.0,1.0,-2.0,-1.0
1705080601.4840076,-4.0,-1.0,-6.0,-3.0,-2.0,-1.0,0.0,1.0
1705080601.4969106,7.0,-5.0,-3.0,2.0,1.0,4.0,-2.0,-13.0
1705080601.4969106,-15.0,-20.0,-9.0,0.0,1.0,-1.0,-5.0,0.0
1705080601.4979217,-8.0,2.0,2.0,-4.0,-5.0,-2.0,2.0,-6.0
1705080601.4979217,-17.0,2.0,3.0,1.0,-2.0,0.0,1.0,-10.0
1705080601.5199223,6.0,-9.0,3.0,4.0,-1.0,7.0,3.0,5.0
1705080601.5199223,-10.0,14.0,-6.0,-3.0,-3.0,-7.0,-1.0,4.0
1705080601.520921,21.0,6.0,1.0,0.0,1.0,4.0,1.0,-5.0
1705080601.520921,-19.0,-15.0,3.0,0.0,1.0,-1.0,4.0,-1.0
1705080601.5342903,-2.0,9.0,-4.0,-4.0,-2.0,-8.0,-17.0,-2.0
1705080601.5342903,7.0,8.0,9.0,3.0,-4.0,0.0,3.0,4.0
1705080601.5352912,1.0,-2.0,-3.0,-3.0,1.0,1.0,-2.0,-1.0
1705080601.5352912,-13.0,-8.0,-3.0,-2.0,6.0,7.0,3.0,1.0
1705080601.5647516,-3.0,0.0,1.0,-1.0,-7.0,-25.0,0.0,0.0
1705080601.5647516,8.0,10.0,0.0,-2.0,-7.0,11.0,1.0,-3.0
1705080601.5657582,-7.0,-7.0,0.0,2.0,-1.0,-4.0,-3.0,-1.0
1705080601.5657582,14.0,7.0,-1.0,3.0,0.0,-2.0,-2.0,0.0
1705080601.579941,1.0,-5.0,-5.0,-2.0,7.0,6.0,2.0,-13.0
1705080601.579941,0.0,-3.0,-6.0,-9.0,-1.0,-4.0,-2.0,-1.0
1705080601.579941,-12.0,-1.0,0.0,3.0,-1.0,1.0,1.0,1.0
1705080601.579941,52.0,14.0,7.0,2.0,1.0,1.0,2.0,14.0
1705080601.5954428,-37.0,-5.0,3.0,3.0,1.0,1.0,-2.0,-5.0
1705080601.5964725,-26.0,-29.0,-11.0,-4.0,-2.0,-3.0,-2.0,-13.0
1705080601.5964725,25.0,12.0,6.0,-6.0,-2.0,1.0,0.0,3.0
1705080601.5964725,29.0,26.0,4.0,-1.0,-1.0,-2.0,3.0,26.0
1705080601.6166549,-72.0,-65.0,-14.0,7.0,1.0,1.0,-5.0,-23.0
1705080601.6166549,-1.0,12.0,1.0,-2.0,-1.0,1.0,-4.0,-12.0
1705080601.6176543,-18.0,18.0,-3.0,-5.0,-4.0,-8.0,-5.0,-9.0
1705080601.6176543,9.0,6.0,4.0,-1.0,-1.0,-2.0,0.0,8.0
1705080601.6393168,57.0,30.0,11.0,1.0,0.0,5.0,10.0,19.0
1705080601.6393168,6.0,38.0,11.0,3.0,1.0,-2.0,-4.0,1.0
1705080601.6402957,-8.0,-44.0,-11.0,-1.0,0.0,-2.0,-2.0,0.0
1705080601.6402957,-15.0,8.0,-4.0,-3.0,-2.0,-5.0,3.0,-11.0
1705080601.6532795,11.0,1.0,4.0,-2.0,-4.0,8.0,3.0,7.0
1705080601.654283,-2.0,-4.0,0.0,2.0,-5.0,-4.0,-7.0,-5.0
1705080601.662318,6.0,6.0,-4.0,-2.0,-5.0,-7.0,0.0,2.0
1705080601.662318,-9.0,-18.0,-3.0,-5.0,-9.0,-1.0,-7.0,-11.0
1705080601.6767044,-5.0,1.0,0.0,2.0,9.0,11.0,7.0,3.0
1705080601.6767044,12.0,-2.0,-3.0,0.0,1.0,-6.0,7.0,16.0
1705080601.677681,-1.0,4.0,-1.0,-1.0,-6.0,-2.0,-3.0,-4.0
1705080601.677681,-29.0,-23.0,-7.0,1.0,4.0,-2.0,-12.0,-21.0
1705080601.7002416,12.0,15.0,1.0,0.0,-1.0,-1.0,0.0,3.0
1705080601.7002416,22.0,18.0,1.0,-1.0,1.0,3.0,8.0,19.0
1705080601.7002416,-84.0,-44.0,-10.0,-2.0,-1.0,-5.0,-7.0,-26.0
1705080601.7002416,-6.0,4.0,-4.0,-7.0,-6.0,-2.0,-1.0,1.0
1705080601.7135687,24.0,9.0,2.0,-3.0,2.0,-4.0,-8.0,4.0
1705080601.7135687,5.0,-10.0,0.0,-1.0,-6.0,-6.0,0.0,-1.0
1705080601.7280254,17.0,4.0,4.0,8.0,11.0,9.0,6.0,13.0
1705080601.7280254,-4.0,3.0,0.0,2.0,12.0,-5.0,6.0,0.0
1705080601.7373254,2.0,4.0,-7.0,-8.0,-20.0,-24.0,-11.0,-1.0
1705080601.7373254,-13.0,-17.0,0.0,-3.0,-5.0,25.0,1.0,-11.0
1705080601.7373254,16.0,16.0,1.0,-2.0,-8.0,-4.0,4.0,5.0
1705080601.7373254,1.0,1.0,5.0,4.0,-2.0,4.0,-3.0,-5.0
1705080601.759396,9.0,11.0,-2.0,-3.0,4.0,2.0,4.0,2.0
1705080601.759396,-3.0,-23.0,-4.0,-1.0,6.0,-13.0,-2.0,-1.0
1705080601.7603018,-1.0,29.0,-5.0,-6.0,0.0,1.0,0.0,-3.0
1705080601.7603018,24.0,13.0,4.0,-6.0,-6.0,-2.0,-1.0,2.0
1705080601.7814322,-22.0,-41.0,-2.0,0.0,-3.0,-8.0,-2.0,-6.0
1705080601.7814322,-42.0,-25.0,-2.0,5.0,4.0,3.0,-9.0,-24.0
1705080601.7814322,10.0,24.0,1.0,-1.0,1.0,3.0,-2.0,2.0
1705080601.7814322,1.0,4.0,-7.0,-5.0,-5.0,-8.0,-5.0,-1.0
1705080601.797841,6.0,-15.0,-1.0,5.0,2.0,8.0,4.0,8.0
1705080601.797841,2.0,-6.0,-1.0,-8.0,-4.0,-3.0,-2.0,-3.0
1705080601.798887,33.0,11.0,-4.0,-1.0,0.0,-1.0,0.0,10.0
1705080601.798887,-31.0,8.0,-1.0,1.0,1.0,-1.0,-5.0,-9.0
1705080601.819847,1.0,-15.0,0.0,2.0,-2.0,8.0,6.0,0.0
1705080601.819847,14.0,25.0,6.0,1.0,11.0,1.0,-11.0,4.0
1705080601.819847,2.0,-16.0,-1.0,-3.0,-3.0,-5.0,-2.0,-2.0
1705080601.819847,-6.0,21.0,6.0,-1.0,-10.0,-15.0,1.0,7.0
1705080601.8415782,-14.0,-13.0,-23.0,-5.0,18.0,21.0,-5.0,-8.0
1705080601.8415782,-2.0,6.0,4.0,2.0,-21.0,-13.0,-2.0,7.0
1705080601.8415782,1.0,15.0,3.0,-3.0,2.0,7.0,0.0,-8.0
1705080601.8415782,-1.0,-63.0,-16.0,-3.0,-3.0,0.0,-2.0,-1.0
1705080601.8565679,-11.0,37.0,15.0,7.0,4.0,-9.0,-2.0,-6.0
1705080601.8575237,1.0,19.0,5.0,0.0,4.0,-7.0,0.0,-2.0
1705080601.8575237,8.0,-42.0,-23.0,-11.0,-6.0,-4.0,-7.0,-8.0
1705080601.8575237,6.0,2.0,8.0,0.0,0.0,0.0,1.0,4.0
1705080601.8791826,13.0,10.0,-2.0,3.0,0.0,-2.0,-1.0,7.0
1705080601.8791826,-10.0,4.0,11.0,4.0,1.0,5.0,2.0,0.0
1705080601.8800275,-42.0,-4.0,6.0,0.0,-6.0,-5.0,-2.0,-9.0
1705080601.8800275,-3.0,-34.0,-14.0,-10.0,-1.0,4.0,-3.0,-2.0
1705080601.89385,5.0,9.0,-4.0,-11.0,-9.0,-3.0,-3.0,-3.0
1705080601.89385,5.0,12.0,12.0,8.0,8.0,6.0,5.0,5.0
1705080601.9026859,7.0,-3.0,-7.0,-6.0,1.0,-4.0,-1.0,4.0
1705080601.9026859,-8.0,8.0,12.0,3.0,-3.0,-2.0,-7.0,-8.0
1705080601.9177098,-13.0,-7.0,-9.0,-17.0,-12.0,-7.0,-4.0,-5.0
1705080601.9177098,9.0,12.0,6.0,12.0,7.0,1.0,5.0,1.0
1705080601.9177098,6.0,7.0,10.0,14.0,5.0,1.0,3.0,5.0
1705080601.918693,-5.0,-7.0,-13.0,-9.0,-5.0,0.0,-5.0,-6.0
1705080601.9394305,11.0,17.0,20.0,3.0,-3.0,-1.0,2.0,4.0
1705080601.9394305,-1.0,-23.0,-21.0,-11.0,-3.0,-2.0,-1.0,-3.0
1705080601.940355,-1.0,-2.0,11.0,1.0,-1.0,0.0,-1.0,0.0
1705080601.940355,-4.0,-2.0,-3.0,5.0,0.0,3.0,0.0,-3.0
1705080601.9612632,-1.0,3.0,1.0,-5.0,-2.0,-4.0,-5.0,2.0
1705080601.9612632,19.0,-16.0,-15.0,-5.0,-1.0,-1.0,1.0,-6.0
1705080601.9619503,-8.0,5.0,-3.0,3.0,0.0,0.0,-3.0,1.0
1705080601.9619503,-7.0,4.0,4.0,4.0,2.0,1.0,1.0,-5.0
1705080601.9768624,12.0,-9.0,-16.0,-7.0,-4.0,-3.0,-4.0,-9.0
1705080601.9768624,-7.0,7.0,15.0,-1.0,0.0,0.0,0.0,-1.0
1705080601.9778583,15.0,-11.0,-22.0,0.0,0.0,-1.0,1.0,6.0
1705080601.9778583,4.0,9.0,14.0,-6.0,-2.0,-3.0,-1.0,1.0
1705080602.0057218,-9.0,-12.0,3.0,7.0,1.0,-3.0,-1.0,0.0
1705080602.0057218,-3.0,-14.0,-13.0,-9.0,-3.0,-1.0,-2.0,-5.0
1705080602.0057218,13.0,-3.0,8.0,-4.0,-3.0,-1.0,-4.0,-5.0
1705080602.0057218,3.0,-1.0,-9.0,3.0,4.0,3.0,-1.0,1.0
1705080602.0228224,-1.0,5.0,9.0,3.0,-1.0,1.0,2.0,2.0
1705080602.0228224,1.0,18.0,8.0,-1.0,-1.0,-1.0,1.0,-1.0
1705080602.023826,-10.0,-14.0,-16.0,-6.0,-2.0,-4.0,-2.0,-1.0
1705080602.023826,-2.0,0.0,1.0,2.0,-1.0,1.0,-1.0,0.0
1705080602.03722,3.0,-4.0,1.0,-2.0,-1.0,0.0,0.0,-4.0
1705080602.03722,-2.0,4.0,-9.0,-6.0,-1.0,-1.0,1.0,2.0
1705080602.0382328,-5.0,-3.0,10.0,0.0,-1.0,0.0,-4.0,-1.0
1705080602.0382328,7.0,11.0,-1.0,4.0,1.0,-1.0,1.0,0.0
1705080602.067989,-1.0,-9.0,0.0,7.0,2.0,2.0,2.0,2.0
1705080602.067989,-3.0,-1.0,-3.0,-4.0,-3.0,-3.0,0.0,-5.0
1705080602.067989,-4.0,6.0,4.0,-4.0,-3.0,-3.0,-1.0,-5.0
1705080602.067989,-6.0,-13.0,-13.0,-4.0,0.0,0.0,-1.0,-2.0
1705080602.0831568,-4.0,10.0,6.0,1.0,0.0,0.0,-1.0,2.0
1705080602.0831568,0.0,7.0,-3.0,3.0,2.0,1.0,0.0,2.0
1705080602.0831568,10.0,-9.0,-3.0,-1.0,-1.0,-3.0,1.0,0.0
1705080602.0831568,-20.0,-9.0,8.0,0.0,-1.0,0.0,-3.0,-3.0
1705080602.097375,-2.0,12.0,-6.0,-5.0,-4.0,-3.0,-2.0,-1.0
1705080602.097375,-4.0,-7.0,-14.0,-5.0,-3.0,-3.0,-4.0,-3.0
1705080602.097375,6.0,-12.0,-2.0,2.0,4.0,1.0,-1.0,-5.0
1705080602.097375,19.0,5.0,-2.0,-2.0,0.0,-1.0,2.0,4.0
1705080602.1240497,-18.0,-20.0,-9.0,-2.0,-5.0,-4.0,-4.0,-7.0
1705080602.1240497,-4.0,-22.0,-4.0,-3.0,-2.0,-1.0,-2.0,-2.0
1705080602.1240497,7.0,31.0,9.0,-3.0,-3.0,-3.0,-2.0,2.0
1705080602.1240497,-1.0,15.0,-2.0,-1.0,-2.0,0.0,-2.0,-2.0
1705080602.1429074,12.0,-15.0,-4.0,-4.0,-2.0,-1.0,2.0,2.0
1705080602.1429074,-35.0,-19.0,-2.0,3.0,1.0,1.0,-2.0,-7.0
1705080602.1429074,-3.0,-7.0,2.0,3.0,-1.0,0.0,1.0,3.0
1705080602.1429074,4.0,-10.0,-6.0,-2.0,-1.0,-1.0,-3.0,-3.0
1705080602.1569836,3.0,18.0,3.0,3.0,2.0,-3.0,-2.0,0.0
1705080602.1569836,10.0,0.0,-2.0,-2.0,0.0,0.0,-1.0,1.0
1705080602.157967,-9.0,0.0,-2.0,-1.0,1.0,0.0,0.0,4.0
1705080602.157967,-8.0,-6.0,2.0,0.0,-3.0,-3.0,-1.0,0.0
1705080602.2051845,-3.0,0.0,-4.0,-3.0,-2.0,-1.0,-1.0,-4.0
1705080602.2051845,8.0,1.0,1.0,1.0,-2.0,-3.0,0.0,0.0
1705080602.2051845,-8.0,-2.0,0.0,-1.0,-2.0,-2.0,-2.0,-2.0
1705080602.2051845,6.0,4.0,1.0,2.0,2.0,2.0,1.0,-6.0
1705080602.2061837,-5.0,-8.0,-5.0,-2.0,-2.0,-3.0,0.0,-1.0
1705080602.2061837,5.0,4.0,6.0,0.0,2.0,-1.0,-4.0,1.0
1705080602.2061837,6.0,-6.0,-2.0,1.0,1.0,-1.0,2.0,1.0
1705080602.2061837,-26.0,-21.0,-7.0,-3.0,-2.0,-3.0,-5.0,-17.0
1705080602.2172723,5.0,16.0,1.0,-4.0,-3.0,-1.0,-3.0,-2.0
1705080602.2172723,4.0,8.0,0.0,-2.0,-3.0,1.0,0.0,0.0
1705080602.2172723,11.0,11.0,2.0,2.0,-2.0,-1.0,0.0,6.0
1705080602.2182686,0.0,-29.0,-19.0,-6.0,-2.0,0.0,1.0,-2.0
1705080602.2395356,-14.0,-2.0,4.0,3.0,1.0,0.0,-3.0,-4.0
1705080602.2395356,-13.0,-8.0,-5.0,-5.0,-4.0,-2.0,-5.0,1.0
1705080602.240226,6.0,4.0,8.0,3.0,1.0,1.0,5.0,0.0
1705080602.240226,29.0,12.0,2.0,2.0,0.0,-1.0,3.0,10.0
1705080602.2627385,-26.0,-5.0,1.0,1.0,-2.0,-1.0,0.0,-4.0
1705080602.2627385,12.0,0.0,-6.0,-2.0,-3.0,0.0,-2.0,0.0
1705080602.263751,-14.0,-15.0,-3.0,0.0,0.0,-1.0,-3.0,1.0
1705080602.263751,3.0,10.0,4.0,1.0,1.0,1.0,-3.0,1.0
1705080602.2770402,6.0,-4.0,-1.0,1.0,-1.0,0.0,1.0,1.0
1705080602.2770402,9.0,5.0,7.0,5.0,3.0,2.0,2.0,3.0
1705080602.2770402,-19.0,-2.0,-7.0,-5.0,-2.0,-2.0,-2.0,-3.0
1705080602.2780707,-9.0,-6.0,-9.0,-9.0,-5.0,-3.0,0.0,-2.0
1705080602.300477,2.0,13.0,10.0,3.0,3.0,0.0,-1.0,1.0
1705080602.300477,-5.0,8.0,1.0,3.0,-2.0,1.0,-1.0,0.0
1705080602.3014727,11.0,-5.0,-5.0,-2.0,-2.0,2.0,-1.0,-1.0
1705080602.3014727,15.0,-2.0,10.0,6.0,2.0,0.0,0.0,4.0
1705080602.3233664,31.0,28.0,-18.0,-11.0,-5.0,-2.0,0.0,6.0
1705080602.3233664,-54.0,-43.0,-9.0,-6.0,-4.0,-3.0,-3.0,-24.0
1705080602.3243186,-11.0,-29.0,1.0,1.0,2.0,-5.0,-14.0,-9.0
1705080602.3243186,-7.0,-5.0,-8.0,-3.0,-1.0,-9.0,3.0,1.0
1705080602.3382337,29.0,-1.0,10.0,6.0,7.0,19.0,8.0,7.0
1705080602.3382337,15.0,25.0,5.0,0.0,-4.0,-17.0,-8.0,3.0
1705080602.3392293,-3.0,15.0,0.0,-6.0,-2.0,-4.0,0.0,-3.0
1705080602.3392293,-8.0,-20.0,-3.0,3.0,-8.0,-1.0,0.0,1.0
1705080602.3595533,-1.0,-8.0,-4.0,-3.0,2.0,-3.0,0.0,9.0
1705080602.3595533,12.0,-1.0,-1.0,1.0,0.0,-1.0,2.0,-6.0
1705080602.3595533,-10.0,-7.0,-2.0,0.0,-3.0,-8.0,-2.0,-3.0
1705080602.3595533,12.0,15.0,-1.0,-1.0,3.0,2.0,1.0,3.0
1705080602.3794532,24.0,3.0,1.0,-2.0,-7.0,-9.0,-3.0,8.0
1705080602.3794532,-62.0,-21.0,-7.0,1.0,0.0,5.0,-1.0,-6.0
1705080602.3794532,-21.0,-2.0,6.0,0.0,-2.0,-2.0,-1.0,-8.0
1705080602.3794532,-11.0,-3.0,-8.0,-3.0,1.0,4.0,0.0,-5.0
1705080602.3993952,-8.0,3.0,6.0,1.0,1.0,0.0,-2.0,-4.0
1705080602.3993952,36.0,10.0,2.0,-2.0,2.0,3.0,2.0,8.0
1705080602.3993952,2.0,6.0,-1.0,-2.0,-3.0,5.0,4.0,-7.0
1705080602.3993952,-10.0,1.0,0.0,-1.0,10.0,-1.0,6.0,-1.0
1705080602.420474,-18.0,-15.0,-5.0,-4.0,-13.0,-8.0,-18.0,-12.0
1705080602.420474,17.0,5.0,0.0,-4.0,5.0,-5.0,-10.0,2.0
1705080602.420474,-3.0,1.0,-3.0,-2.0,-10.0,-5.0,6.0,2.0
1705080602.420474,7.0,6.0,2.0,-1.0,5.0,1.0,0.0,1.0
1705080602.4426596,-5.0,-4.0,-3.0,-1.0,-5.0,-6.0,-1.0,-4.0
1705080602.4426596,1.0,-1.0,0.0,-1.0,2.0,17.0,1.0,3.0
1705080602.4434566,5.0,-1.0,-5.0,-4.0,-5.0,-8.0,-7.0,6.0
1705080602.4434566,11.0,6.0,2.0,-1.0,-1.0,1.0,-2.0,-7.0
1705080602.4493024,-12.0,-4.0,0.0,0.0,5.0,-2.0,3.0,-2.0
1705080602.4493024,22.0,1.0,1.0,5.0,-2.0,-4.0,1.0,3.0
1705080602.4493024,-23.0,-2.0,5.0,2.0,6.0,6.0,1.0,-1.0
1705080602.4493024,-8.0,7.0,-9.0,-1.0,-5.0,0.0,-2.0,0.0
1705080602.4802098,-16.0,5.0,2.0,0.0,0.0,-2.0,-2.0,-4.0
1705080602.4802098,30.0,-6.0,-4.0,-1.0,-2.0,0.0,2.0,1.0
1705080602.4812129,7.0,6.0,5.0,5.0,2.0,3.0,2.0,-2.0
1705080602.4812129,-24.0,6.0,9.0,-2.0,-6.0,-2.0,-8.0,-7.0
1705080602.510812,16.0,-9.0,-6.0,3.0,0.0,3.0,0.0,0.0
1705080602.510812,-42.0,-7.0,-11.0,-8.0,-1.0,-4.0,2.0,-4.0
1705080602.5138655,16.0,-5.0,-6.0,-9.0,-5.0,-6.0,-2.0,5.0
1705080602.5138655,-2.0,4.0,3.0,-3.0,-3.0,-1.0,-6.0,-4.0
1705080602.5271854,1.0,-5.0,12.0,15.0,10.0,6.0,5.0,7.0
1705080602.5271854,7.0,6.0,-1.0,-3.0,-6.0,-4.0,-2.0,-4.0
1705080602.5271854,-3.0,-11.0,-3.0,0.0,5.0,0.0,-4.0,-4.0
1705080602.5271854,-7.0,-16.0,-10.0,-9.0,-7.0,0.0,1.0,-1.0
1705080602.5392418,-1.0,-3.0,-1.0,-4.0,-1.0,4.0,1.0,-1.0
1705080602.5392418,4.0,4.0,3.0,-1.0,-2.0,-1.0,2.0,2.0
1705080602.540178,-8.0,4.0,-4.0,3.0,2.0,3.0,1.0,1.0
1705080602.540178,21.0,27.0,19.0,6.0,-2.0,-3.0,0.0,-4.0
1705080602.5616384,-8.0,-37.0,-9.0,-1.0,10.0,3.0,5.0,-2.0
1705080602.5626378,-14.0,-29.0,-17.0,-5.0,-16.0,-7.0,-9.0,-3.0
1705080602.5626378,14.0,34.0,4.0,-6.0,-8.0,-8.0,1.0,-3.0
1705080602.5626378,-15.0,1.0,-3.0,1.0,3.0,8.0,0.0,1.0
1705080602.5768397,-8.0,-32.0,1.0,-2.0,-3.0,-5.0,0.0,-2.0
1705080602.5768397,6.0,35.0,9.0,8.0,5.0,0.0,3.0,0.0
1705080602.577646,11.0,-1.0,-3.0,4.0,13.0,3.0,2.0,5.0
1705080602.577646,6.0,-10.0,2.0,0.0,-8.0,-5.0,-5.0,4.0
1705080602.5992486,-8.0,2.0,-13.0,-11.0,-8.0,-6.0,-4.0,-8.0
1705080602.6002517,-5.0,1.0,6.0,-1.0,0.0,0.0,0.0,-5.0
1705080602.6002517,6.0,0.0,2.0,3.0,-2.0,-1.0,-2.0,-1.0
1705080602.6002517,0.0,1.0,1.0,4.0,6.0,-2.0,0.0,5.0
1705080602.6218915,7.0,9.0,2.0,0.0,0.0,2.0,-1.0,3.0
1705080602.6218915,-7.0,-1.0,-11.0,-7.0,-4.0,-5.0,-5.0,-5.0
1705080602.622676,-1.0,1.0,3.0,0.0,-2.0,1.0,-4.0,-3.0
1705080602.622676,3.0,-12.0,-8.0,-1.0,-2.0,-3.0,-2.0,1.0
1705080602.643007,15.0,24.0,-12.0,-4.0,-6.0,-4.0,-3.0,3.0
1705080602.643007,-67.0,-26.0,4.0,2.0,4.0,0.0,-1.0,-2.0
1705080602.643007,18.0,-4.0,-6.0,-5.0,-3.0,0.0,-2.0,-8.0
1705080602.643007,-8.0,-5.0,2.0,-3.0,-3.0,2.0,-3.0,0.0
1705080602.659389,4.0,12.0,3.0,-2.0,0.0,-12.0,-4.0,2.0
1705080602.659389,35.0,23.0,8.0,3.0,2.0,4.0,5.0,11.0
1705080602.660156,-9.0,-20.0,-10.0,1.0,-1.0,2.0,1.0,7.0
1705080602.660156,-17.0,-8.0,1.0,-1.0,-1.0,-9.0,-7.0,-16.0
1705080602.6858885,-28.0,-6.0,-8.0,-5.0,-4.0,-2.0,-3.0,-6.0
1705080602.6858885,12.0,1.0,-3.0,-2.0,2.0,-2.0,-1.0,3.0
1705080602.6858885,-1.0,14.0,-3.0,3.0,0.0,1.0,2.0,3.0
1705080602.6858885,16.0,-13.0,9.0,5.0,1.0,-1.0,1.0,2.0
1705080602.6967611,-3.0,18.0,2.0,-2.0,-3.0,2.0,-1.0,-6.0
1705080602.6967611,16.0,3.0,-2.0,-10.0,-4.0,-2.0,-2.0,0.0
1705080602.7047882,2.0,-10.0,-2.0,-10.0,-4.0,1.0,-2.0,0.0
1705080602.7054543,28.0,50.0,16.0,31.0,15.0,4.0,5.0,15.0
1705080602.7193694,-18.0,-23.0,-7.0,-1.0,-3.0,-1.0,-5.0,-13.0
1705080602.7193694,30.0,15.0,-5.0,-1.0,-2.0,-2.0,0.0,-4.0
1705080602.720415,24.0,1.0,-2.0,-11.0,-6.0,-3.0,-2.0,3.0
1705080602.720415,-9.0,-6.0,-4.0,-14.0,-7.0,-4.0,-2.0,-3.0
1705080602.7424235,27.0,11.0,9.0,8.0,3.0,1.0,3.0,15.0
1705080602.7424235,-28.0,-9.0,-2.0,-4.0,0.0,-1.0,-4.0,-13.0
1705080602.7424235,-40.0,-12.0,-3.0,-1.0,-2.0,-1.0,-1.0,-6.0
1705080602.7424235,1.0,0.0,-4.0,-2.0,0.0,-1.0,0.0,-2.0
1705080602.7573729,37.0,8.0,-2.0,-2.0,-2.0,-1.0,-3.0,-3.0
1705080602.7573729,-9.0,-13.0,0.0,0.0,3.0,0.0,3.0,6.0
1705080602.7655027,-11.0,14.0,8.0,5.0,1.0,2.0,-1.0,-1.0
1705080602.7655027,4.0,-33.0,-11.0,-2.0,-4.0,-3.0,-2.0,-2.0
1705080602.77984,3.0,17.0,0.0,-4.0,-3.0,-1.0,-1.0,0.0
1705080602.77984,25.0,18.0,2.0,2.0,3.0,-1.0,3.0,11.0
1705080602.7808294,91.0,-21.0,-1.0,3.0,-1.0,-1.0,1.0,11.0
1705080602.7808294,-17.0,88.0,15.0,-3.0,-2.0,-3.0,-8.0,-24.0
1705080602.8033884,7.0,-37.0,-10.0,-3.0,-3.0,0.0,-3.0,-1.0
1705080602.8033884,34.0,-5.0,2.0,3.0,1.0,1.0,1.0,-8.0
1705080602.8033884,-16.0,17.0,-1.0,-3.0,-3.0,-9.0,-12.0,7.0
1705080602.8044684,16.0,-6.0,-4.0,-9.0,-1.0,-1.0,5.0,4.0
1705080602.816545,-17.0,-3.0,5.0,9.0,3.0,0.0,-3.0,-6.0
1705080602.816545,6.0,15.0,1.0,1.0,0.0,1.0,2.0,2.0
1705080602.8251262,-16.0,-19.0,-3.0,1.0,3.0,2.0,0.0,-1.0
1705080602.8251262,-26.0,-43.0,-18.0,-11.0,-6.0,-3.0,-3.0,-11.0
1705080602.845198,-24.0,4.0,1.0,0.0,-1.0,-6.0,1.0,-2.0
1705080602.845198,8.0,-12.0,-1.0,2.0,-2.0,14.0,2.0,-2.0
1705080602.845198,-11.0,5.0,-3.0,-3.0,0.0,8.0,-10.0,-8.0
1705080602.845198,5.0,-12.0,-7.0,-3.0,-12.0,-16.0,-2.0,3.0
1705080602.870277,8.0,11.0,4.0,0.0,2.0,2.0,2.0,5.0
1705080602.870277,-13.0,-2.0,0.0,-1.0,2.0,-9.0,-4.0,-2.0
1705080602.8709447,-10.0,-5.0,-4.0,-2.0,-9.0,-8.0,-6.0,-11.0
1705080602.8709447,20.0,5.0,-1.0,3.0,7.0,9.0,2.0,4.0
1705080602.8761141,3.0,-4.0,1.0,-3.0,-1.0,0.0,-2.0,-5.0
1705080602.8761141,-11.0,2.0,4.0,1.0,1.0,-4.0,-3.0,-11.0
1705080602.8849518,-18.0,-25.0,-20.0,-5.0,0.0,-3.0,-2.0,-14.0
1705080602.8849518,25.0,8.0,4.0,0.0,-2.0,3.0,4.0,18.0
1705080602.9000077,-21.0,-16.0,0.0,1.0,-1.0,-1.0,-3.0,-17.0
1705080602.9000077,11.0,0.0,3.0,0.0,-1.0,-1.0,-2.0,6.0
1705080602.900246,15.0,13.0,1.0,-1.0,1.0,2.0,5.0,3.0
1705080602.900246,-1.0,-5.0,-4.0,2.0,7.0,18.0,2.0,3.0
1705080602.9218674,0.0,1.0,-4.0,-6.0,-5.0,-8.0,-6.0,1.0
1705080602.9218674,4.0,-9.0,-3.0,-7.0,-13.0,-21.0,-10.0,-2.0
1705080602.9229136,-9.0,0.0,4.0,1.0,3.0,5.0,5.0,-3.0
1705080602.9229136,-5.0,-10.0,-5.0,0.0,14.0,-6.0,-2.0,3.0
1705080602.9365997,-5.0,6.0,-1.0,-9.0,-19.0,7.0,4.0,1.0
1705080602.9365997,-18.0,-12.0,-8.0,-6.0,-9.0,-17.0,-19.0,-6.0
1705080602.9447758,2.0,5.0,0.0,-3.0,-2.0,-6.0,3.0,0.0
1705080602.9447758,-2.0,0.0,0.0,-2.0,2.0,6.0,2.0,0.0
1705080602.9661145,0.0,-2.0,7.0,8.0,12.0,3.0,6.0,3.0
1705080602.9661145,5.0,-2.0,-3.0,0.0,3.0,3.0,4.0,3.0
1705080602.9661145,-14.0,-29.0,1.0,1.0,2.0,1.0,-3.0,-7.0
1705080602.9661145,-2.0,35.0,-18.0,-4.0,-4.0,-6.0,-3.0,1.0
1705080602.9824662,-10.0,-12.0,1.0,-6.0,-2.0,-7.0,-7.0,-5.0
1705080602.9824662,-5.0,-1.0,6.0,2.0,-2.0,3.0,2.0,0.0
1705080602.9824662,9.0,-3.0,-19.0,-4.0,0.0,2.0,0.0,-1.0
1705080602.9824662,-35.0,2.0,5.0,-1.0,-7.0,-3.0,-1.0,2.0
1705080603.0004365,29.0,6.0,-7.0,-1.0,-4.0,-2.0,-4.0,-1.0
1705080603.0004365,-4.0,7.0,-9.0,-7.0,2.0,11.0,3.0,-3.0
1705080603.0004365,-9.0,9.0,8.0,5.0,0.0,1.0,4.0,4.0
1705080603.0004365,6.0,-8.0,9.0,9.0,1.0,-2.0,-2.0,1.0
1705080603.0204375,3.0,6.0,-3.0,-1.0,-1.0,0.0,-3.0,2.0
1705080603.0204375,-5.0,0.0,-1.0,1.0,4.0,0.0,7.0,-2.0
1705080603.0204375,-3.0,6.0,-1.0,-5.0,-7.0,-15.0,-14.0,-5.0
1705080603.0204375,1.0,-16.0,-3.0,-5.0,-7.0,0.0,-1.0,-2.0
1705080603.043236,-9.0,-6.0,5.0,3.0,6.0,3.0,2.0,1.0
1705080603.043236,0.0,4.0,-8.0,1.0,0.0,2.0,-3.0,-5.0
1705080603.0442328,-2.0,5.0,-1.0,0.0,-1.0,4.0,4.0,4.0
1705080603.0442328,14.0,-42.0,-7.0,-5.0,-5.0,-1.0,-3.0,-3.0
1705080603.077269,-14.0,4.0,-4.0,-7.0,-3.0,-3.0,-2.0,-4.0
1705080603.077269,-2.0,-20.0,13.0,13.0,5.0,3.0,6.0,4.0
1705080603.077269,0.0,33.0,-2.0,-2.0,0.0,3.0,2.0,-3.0
1705080603.077269,2.0,0.0,-2.0,0.0,0.0,-2.0,-3.0,-3.0
1705080603.0793717,-3.0,5.0,9.0,-1.0,-1.0,-2.0,0.0,0.0
1705080603.0793717,-4.0,-2.0,-9.0,-6.0,-2.0,-2.0,0.0,3.0
1705080603.0801833,0.0,-12.0,8.0,5.0,3.0,3.0,2.0,-5.0
1705080603.0801833,8.0,5.0,-6.0,-4.0,-4.0,-3.0,0.0,-10.0
1705080603.0987716,-8.0,-11.0,-6.0,-3.0,-1.0,-2.0,0.0,0.0
1705080603.0987716,2.0,20.0,-2.0,0.0,1.0,1.0,-2.0,2.0
1705080603.0987716,1.0,-4.0,-1.0,1.0,1.0,-1.0,-2.0,-1.0
1705080603.0987716,-11.0,-6.0,-5.0,-3.0,-4.0,1.0,1.0,0.0
1705080603.1287751,-1.0,2.0,-4.0,-4.0,-4.0,-1.0,0.0,6.0
1705080603.1287751,1.0,-11.0,3.0,0.0,-2.0,-1.0,-2.0,-3.0
1705080603.1287751,-5.0,-10.0,0.0,-2.0,-3.0,-2.0,0.0,-2.0
1705080603.1287751,-9.0,17.0,7.0,-5.0,-1.0,-3.0,-4.0,-4.0
1705080603.1391416,4.0,15.0,7.0,5.0,2.0,-1.0,-1.0,1.0
1705080603.1391416,3.0,-6.0,-9.0,-5.0,-2.0,-1.0,0.0,-1.0
1705080603.1391416,3.0,-4.0,1.0,0.0,0.0,-2.0,-1.0,0.0
1705080603.1391416,-12.0,-21.0,-7.0,-3.0,0.0,-2.0,0.0,-6.0
1705080603.1620746,5.0,-5.0,2.0,-2.0,-3.0,-3.0,-4.0,-5.0
1705080603.1620746,-12.0,13.0,-2.0,-3.0,-2.0,-1.0,-3.0,-1.0
1705080603.1628432,7.0,-5.0,5.0,4.0,7.0,2.0,5.0,4.0
1705080603.1628432,-1.0,-2.0,1.0,4.0,3.0,9.0,3.0,3.0
1705080603.1835945,-5.0,-3.0,-7.0,-1.0,-5.0,-9.0,-8.0,-1.0
1705080603.1835945,-20.0,-17.0,-2.0,-2.0,-3.0,0.0,1.0,-8.0
1705080603.1835945,-6.0,-14.0,-9.0,-6.0,-2.0,0.0,1.0,2.0
1705080603.1835945,-10.0,-7.0,2.0,-2.0,-8.0,-3.0,-4.0,1.0
1705080603.19363,25.0,7.0,-2.0,1.0,9.0,15.0,6.0,9.0
1705080603.19363,-59.0,-2.0,0.0,-2.0,-4.0,-17.0,-10.0,-2.0
1705080603.19363,9.0,-39.0,2.0,4.0,1.0,1.0,0.0,1.0
1705080603.19363,3.0,51.0,-7.0,-9.0,-5.0,-7.0,-4.0,-3.0
1705080603.2135987,-6.0,-14.0,3.0,8.0,8.0,-1.0,0.0,-5.0
1705080603.2135987,22.0,11.0,1.0,0.0,3.0,6.0,3.0,4.0
1705080603.2135987,11.0,4.0,-1.0,-2.0,-4.0,-3.0,1.0,6.0
1705080603.2135987,-4.0,-18.0,-6.0,-6.0,-2.0,-5.0,-6.0,-2.0
1705080603.243608,-7.0,0.0,-6.0,-6.0,-6.0,-4.0,-5.0,-14.0
1705080603.243608,17.0,5.0,12.0,8.0,6.0,8.0,3.0,3.0
1705080603.243608,15.0,16.0,-2.0,3.0,0.0,-2.0,-3.0,-1.0
1705080603.243608,-29.0,-6.0,4.0,1.0,-1.0,-3.0,-3.0,-2.0
1705080603.2538834,-9.0,4.0,-9.0,-6.0,-3.0,-1.0,0.0,-2.0
1705080603.2538834,13.0,-9.0,-3.0,-8.0,-6.0,-2.0,-1.0,-2.0
1705080603.2538834,-4.0,22.0,6.0,4.0,-1.0,-1.0,-3.0,-6.0
1705080603.2538834,12.0,-12.0,5.0,6.0,0.0,3.0,2.0,3.0
1705080603.2738893,-4.0,-11.0,-8.0,-4.0,-4.0,-3.0,-1.0,-1.0
1705080603.2738893,5.0,11.0,-7.0,-4.0,-4.0,-1.0,-3.0,-1.0
1705080603.2836025,17.0,-10.0,-7.0,-3.0,-3.0,-1.0,-1.0,5.0
1705080603.2836025,-7.0,4.0,-1.0,-5.0,-4.0,-2.0,-1.0,-6.0
1705080603.3035967,-3.0,-9.0,-6.0,1.0,-2.0,0.0,-3.0,0.0
1705080603.3035967,22.0,14.0,11.0,2.0,-1.0,-1.0,1.0,3.0
1705080603.3035967,-5.0,-12.0,-10.0,-7.0,-4.0,0.0,-1.0,-3.0
1705080603.3035967,10.0,-10.0,1.0,4.0,0.0,-2.0,-3.0,3.0
1705080603.313814,-34.0,24.0,4.0,-7.0,-4.0,-1.0,0.0,-2.0
1705080603.313814,1.0,-15.0,0.0,1.0,1.0,0.0,-1.0,-6.0
1705080603.3238428,-8.0,13.0,2.0,-1.0,-1.0,-3.0,0.0,-10.0
1705080603.3238428,5.0,10.0,-6.0,1.0,-2.0,-1.0,0.0,-2.0
1705080603.333882,15.0,1.0,4.0,1.0,-2.0,-7.0,-14.0,-2.0
1705080603.333882,-1.0,-6.0,-2.0,-2.0,0.0,1.0,1.0,1.0
1705080603.3436027,3.0,16.0,8.0,3.0,1.0,-1.0,1.0,0.0
1705080603.3436027,15.0,0.0,6.0,2.0,3.0,2.0,5.0,9.0
1705080603.363597,-1.0,2.0,1.0,3.0,1.0,1.0,4.0,0.0
1705080603.363597,-20.0,-22.0,-14.0,-5.0,-2.0,-4.0,-5.0,-12.0
1705080603.363597,-16.0,-6.0,-3.0,-6.0,-4.0,-3.0,-6.0,-5.0
1705080603.363597,6.0,-2.0,-2.0,-3.0,-2.0,1.0,3.0,-1.0
1705080603.3739946,13.0,9.0,2.0,0.0,0.0,0.0,0.0,1.0
1705080603.3739946,10.0,-3.0,4.0,-5.0,-1.0,-1.0,-1.0,3.0
1705080603.3739946,-11.0,9.0,-4.0,-6.0,-2.0,1.0,-3.0,1.0
1705080603.3739946,0.0,-6.0,-1.0,-3.0,-2.0,-6.0,-3.0,-3.0
1705080603.3939886,8.0,2.0,0.0,-2.0,0.0,1.0,4.0,5.0
1705080603.3939886,-12.0,-8.0,-1.0,1.0,0.0,-1.0,0.0,-3.0
1705080603.3939886,0.0,21.0,2.0,-3.0,-2.0,-3.0,-3.0,1.0
1705080603.3939886,-8.0,-17.0,0.0,2.0,2.0,0.0,-2.0,-3.0
1705080603.4239838,-4.0,-14.0,-3.0,1.0,1.0,0.0,2.0,4.0
1705080603.4239838,-25.0,0.0,-2.0,-1.0,-1.0,-1.0,-1.0,-7.0
1705080603.4239838,0.0,-11.0,5.0,-2.0,-1.0,-1.0,-1.0,-1.0
1705080603.4239838,11.0,8.0,-7.0,0.0,0.0,1.0,0.0,4.0
1705080603.4339688,-6.0,0.0,-4.0,-2.0,-1.0,-1.0,-1.0,1.0
1705080603.4339688,-29.0,-8.0,-2.0,-1.0,0.0,-2.0,-4.0,-5.0
1705080603.4339688,-4.0,-6.0,0.0,-4.0,-3.0,-1.0,0.0,-2.0
1705080603.4339688,-2.0,4.0,6.0,0.0,-1.0,-3.0,-2.0,0.0
1705080603.4536011,-4.0,-6.0,-4.0,-4.0,-2.0,1.0,-1.0,-4.0
1705080603.4536011,19.0,8.0,-5.0,-2.0,-1.0,-2.0,1.0,3.0
1705080603.4536011,-6.0,-3.0,2.0,1.0,0.0,0.0,-2.0,1.0
1705080603.4536011,15.0,0.0,2.0,1.0,-2.0,0.0,0.0,4.0
1705080603.4862933,-18.0,-8.0,0.0,-1.0,-2.0,0.0,0.0,-3.0
1705080603.4862933,1.0,-7.0,-6.0,-5.0,-3.0,-1.0,-3.0,-6.0
1705080603.4862933,-3.0,-5.0,-2.0,-1.0,-1.0,-3.0,-1.0,0.0
1705080603.4872892,-29.0,-18.0,-9.0,-5.0,-3.0,0.0,-5.0,-9.0
1705080603.49863,15.0,9.0,2.0,1.0,-1.0,-1.0,0.0,1.0
1705080603.49863,12.0,9.0,4.0,7.0,3.0,2.0,5.0,2.0
1705080603.49863,0.0,1.0,1.0,5.0,0.0,0.0,-1.0,0.0
1705080603.49863,4.0,-5.0,0.0,2.0,-1.0,-2.0,-3.0,-1.0
1705080603.528626,-4.0,0.0,-2.0,0.0,-3.0,-2.0,-1.0,-3.0
1705080603.528626,7.0,-3.0,-4.0,-2.0,-2.0,-1.0,-2.0,4.0
1705080603.528626,-4.0,2.0,0.0,4.0,0.0,0.0,-1.0,-1.0
1705080603.528626,-1.0,-2.0,1.0,-2.0,-1.0,-1.0,-2.0,0.0
1705080603.538971,-4.0,5.0,10.0,-1.0,-1.0,-1.0,-1.0,-3.0
1705080603.538971,18.0,-1.0,-12.0,-1.0,-2.0,-2.0,-1.0,6.0
1705080603.538971,-6.0,8.0,3.0,-4.0,-3.0,-4.0,1.0,1.0
1705080603.538971,-15.0,2.0,2.0,-1.0,-1.0,0.0,-2.0,-4.0
1705080603.559,6.0,2.0,-2.0,1.0,0.0,1.0,0.0,0.0
1705080603.559,0.0,1.0,3.0,-1.0,-2.0,-1.0,-2.0,-1.0
1705080603.559,7.0,2.0,2.0,2.0,2.0,1.0,0.0,1.0
1705080603.559,10.0,3.0,3.0,1.0,2.0,-1.0,-1.0,2.0
1705080603.5786252,-16.0,1.0,-4.0,1.0,-1.0,0.0,-2.0,-1.0
1705080603.5786252,6.0,-1.0,1.0,1.0,1.0,2.0,0.0,0.0
1705080603.5786252,3.0,-7.0,-6.0,0.0,-1.0,1.0,6.0,-1.0
1705080603.5786252,-10.0,-4.0,-2.0,-2.0,-2.0,-5.0,-16.0,-6.0
1705080603.599046,-1.0,-9.0,-5.0,-3.0,0.0,-2.0,1.0,-1.0
1705080603.599046,23.0,7.0,-2.0,-5.0,-1.0,-3.0,-2.0,1.0
1705080603.599046,-32.0,-18.0,-2.0,-3.0,0.0,-2.0,-3.0,-7.0
1705080603.599046,5.0,-8.0,-6.0,-2.0,0.0,1.0,4.0,-5.0
1705080603.6187942,4.0,-3.0,1.0,-1.0,-2.0,0.0,-2.0,0.0
1705080603.6187942,7.0,17.0,4.0,1.0,-3.0,0.0,-3.0,0.0
1705080603.6286266,3.0,4.0,-1.0,1.0,-2.0,1.0,-1.0,-2.0
1705080603.6286266,-9.0,10.0,-4.0,-4.0,-4.0,-3.0,0.0,-2.0
1705080603.6386614,-6.0,-9.0,0.0,0.0,-1.0,-2.0,-3.0,-5.0
1705080603.6386614,-4.0,-6.0,6.0,2.0,0.0,0.0,1.0,-1.0
1705080603.6386614,11.0,16.0,1.0,0.0,1.0,-1.0,-1.0,1.0
1705080603.6386614,6.0,-7.0,-5.0,0.0,-1.0,2.0,1.0,-1.0
1705080603.6655588,-15.0,-7.0,-3.0,-3.0,1.0,0.0,-2.0,0.0
1705080603.6655588,-5.0,4.0,-1.0,-2.0,-2.0,-1.0,1.0,1.0
1705080603.6658869,7.0,6.0,0.0,-5.0,-2.0,-5.0,-3.0,2.0
1705080603.6658869,-16.0,-9.0,3.0,-1.0,0.0,-2.0,-2.0,1.0
1705080603.6857388,-13.0,-6.0,-3.0,-2.0,1.0,1.0,2.0,-1.0
1705080603.6857388,5.0,-1.0,1.0,-1.0,0.0,1.0,-2.0,0.0
1705080603.6869004,0.0,-6.0,-6.0,-2.0,-1.0,0.0,-2.0,-2.0
1705080603.6869004,2.0,-15.0,1.0,-1.0,1.0,1.0,4.0,1.0
1705080603.698025,11.0,7.0,0.0,-2.0,-1.0,-1.0,-4.0,-1.0
1705080603.698025,-15.0,-4.0,1.0,-2.0,-2.0,-3.0,-1.0,0.0
1705080603.698025,5.0,-1.0,-1.0,0.0,-2.0,-1.0,-3.0,-2.0
1705080603.698025,9.0,2.0,1.0,-4.0,-3.0,-1.0,0.0,-1.0
1705080603.7183335,-7.0,3.0,-4.0,1.0,-2.0,-2.0,0.0,-2.0
1705080603.7183335,-1.0,-8.0,-8.0,-3.0,-1.0,0.0,-3.0,-2.0
1705080603.7183335,-2.0,-3.0,-1.0,-4.0,-2.0,0.0,-3.0,0.0
1705080603.7183335,-7.0,-5.0,2.0,1.0,-1.0,2.0,-2.0,0.0
1705080603.7380283,29.0,16.0,5.0,3.0,3.0,2.0,2.0,6.0
1705080603.7380283,-37.0,-31.0,-5.0,-1.0,0.0,-2.0,-3.0,-7.0
1705080603.7380283,-12.0,-3.0,-6.0,-2.0,-1.0,-2.0,-1.0,6.0
1705080603.7380283,-9.0,-12.0,-6.0,-6.0,-1.0,-2.0,-3.0,-11.0
1705080603.7582812,3.0,3.0,-1.0,-1.0,-3.0,0.0,3.0,4.0
1705080603.7582812,3.0,9.0,4.0,-1.0,2.0,-1.0,0.0,0.0
1705080603.7582812,0.0,-8.0,3.0,2.0,1.0,1.0,2.0,2.0
1705080603.7582812,19.0,28.0,2.0,-4.0,-3.0,-3.0,-4.0,3.0
1705080603.778187,-19.0,-26.0,-16.0,-5.0,3.0,4.0,6.0,-4.0
1705080603.778187,-20.0,-11.0,-1.0,2.0,-3.0,-4.0,-5.0,-4.0
1705080603.7880309,2.0,-7.0,-3.0,-2.0,-6.0,2.0,0.0,-5.0
1705080603.7880309,24.0,24.0,15.0,8.0,2.0,0.0,5.0,6.0
1705080603.808026,-18.0,-31.0,-11.0,-6.0,-5.0,-5.0,-6.0,-9.0
1705080603.808026,13.0,2.0,1.0,0.0,2.0,2.0,0.0,1.0
1705080603.808026,-2.0,14.0,-2.0,-3.0,1.0,-1.0,5.0,-3.0
1705080603.808026,-12.0,-4.0,-3.0,0.0,-3.0,-2.0,-3.0,1.0
1705080603.8182583,11.0,12.0,3.0,-3.0,-1.0,1.0,0.0,4.0
1705080603.8182583,-3.0,-9.0,-1.0,0.0,-2.0,1.0,4.0,0.0
1705080603.8182583,-6.0,-20.0,0.0,1.0,-1.0,-2.0,-4.0,-2.0
1705080603.8182583,3.0,15.0,5.0,0.0,1.0,1.0,0.0,0.0
1705080603.8382895,-1.0,-10.0,-10.0,-2.0,-2.0,-4.0,-3.0,-2.0
1705080603.8382895,6.0,-5.0,0.0,1.0,0.0,3.0,0.0,0.0
1705080603.8382895,0.0,2.0,-10.0,-8.0,-5.0,-5.0,-6.0,-5.0
1705080603.8382895,-5.0,-29.0,4.0,3.0,2.0,0.0,0.0,4.0
1705080603.878028,-5.0,6.0,-1.0,-1.0,0.0,-1.0,-2.0,-7.0
1705080603.878028,32.0,36.0,3.0,-5.0,-2.0,-2.0,-1.0,-3.0
1705080603.878028,26.0,-3.0,5.0,6.0,4.0,3.0,2.0,4.0
1705080603.878028,-38.0,-5.0,-2.0,-1.0,-2.0,-1.0,3.0,-7.0
1705080603.878028,-19.0,-26.0,11.0,7.0,0.0,-2.0,-4.0,0.0
1705080603.878028,-11.0,5.0,-18.0,-9.0,-3.0,-3.0,-5.0,-4.0
1705080603.878028,3.0,12.0,1.0,-5.0,3.0,-2.0,-3.0,-2.0
1705080603.878028,22.0,6.0,-6.0,-2.0,-3.0,-4.0,-1.0,1.0
1705080603.9180257,16.0,17.0,11.0,2.0,-3.0,-6.0,-7.0,1.0
1705080603.9180257,-8.0,6.0,4.0,-1.0,3.0,-3.0,0.0,0.0
1705080603.9180257,-1.0,-7.0,-3.0,0.0,-2.0,1.0,0.0,-2.0
1705080603.9180257,-5.0,-2.0,-7.0,-5.0,-4.0,-2.0,-11.0,-4.0
1705080603.92803,-1.0,3.0,1.0,-2.0,-3.0,-2.0,-3.0,-2.0
1705080603.92803,1.0,-9.0,2.0,3.0,4.0,2.0,4.0,3.0
1705080603.92803,-12.0,-4.0,-8.0,-4.0,-7.0,-8.0,-14.0,-4.0
1705080603.92803,6.0,-1.0,0.0,0.0,0.0,12.0,12.0,-2.0
1705080603.938289,11.0,4.0,-3.0,-2.0,-6.0,-8.0,-8.0,-1.0
1705080603.938289,4.0,-1.0,2.0,0.0,-2.0,3.0,-1.0,0.0
1705080603.938289,-1.0,3.0,4.0,0.0,-1.0,-6.0,2.0,1.0
1705080603.938289,18.0,4.0,-1.0,2.0,3.0,-1.0,-2.0,2.0
1705080603.9680297,-14.0,-8.0,-9.0,-5.0,0.0,3.0,1.0,-3.0
1705080603.9680297,-11.0,-16.0,-7.0,-3.0,-3.0,-9.0,-4.0,-7.0
1705080603.9780252,-19.0,2.0,2.0,-1.0,2.0,8.0,3.0,-2.0
