1705080908.7391946,-1.0,-2.0,5.0,-3.0,-2.0,-1.0,-1.0,-1.0
1705080908.7495763,0.0,1.0,5.0,2.0,-2.0,-3.0,0.0,1.0
1705080908.7495763,0.0,-2.0,-7.0,0.0,2.0,2.0,3.0,1.0
1705080908.7495763,-4.0,-4.0,-7.0,-7.0,3.0,7.0,-4.0,-2.0
1705080908.761795,0.0,3.0,3.0,-2.0,-4.0,-3.0,-1.0,-3.0
1705080908.7625787,-2.0,2.0,-6.0,-4.0,0.0,1.0,1.0,-3.0
1705080908.7706304,2.0,-2.0,1.0,3.0,-1.0,-1.0,5.0,1.0
1705080908.7706304,0.0,2.0,24.0,17.0,8.0,0.0,3.0,0.0
1705080908.781715,0.0,-2.0,5.0,-2.0,-2.0,1.0,1.0,2.0
1705080908.781715,-2.0,-4.0,-8.0,-6.0,-5.0,-4.0,-2.0,1.0
1705080908.781715,0.0,2.0,0.0,1.0,-2.0,-4.0,-2.0,-2.0
1705080908.781715,-5.0,-10.0,-6.0,-9.0,-6.0,-3.0,-1.0,-4.0
1705080908.8020942,-2.0,-6.0,-8.0,-1.0,-1.0,-1.0,-3.0,-4.0
1705080908.8020942,3.0,3.0,7.0,4.0,1.0,-1.0,1.0,1.0
1705080908.8020942,0.0,-3.0,-6.0,-3.0,-2.0,0.0,-1.0,-2.0
1705080908.8020942,0.0,1.0,-2.0,-1.0,-2.0,-1.0,0.0,1.0
1705080908.8217185,0.0,3.0,3.0,1.0,1.0,-1.0,-1.0,1.0
1705080908.8217185,-4.0,-3.0,-19.0,-15.0,-4.0,-1.0,-3.0,5.0
1705080908.8217185,-4.0,3.0,23.0,22.0,9.0,6.0,0.0,-13.0
1705080908.8217185,6.0,-1.0,-13.0,-7.0,-5.0,-2.0,1.0,6.0
1705080908.8517172,-5.0,-4.0,-4.0,-1.0,-2.0,-2.0,-5.0,-3.0
1705080908.8517172,-9.0,-3.0,-3.0,-2.0,-2.0,1.0,-4.0,1.0
1705080908.8517172,6.0,2.0,0.0,-5.0,-2.0,0.0,0.0,0.0
1705080908.8517172,6.0,1.0,-1.0,-3.0,-1.0,-2.0,-2.0,-5.0
1705080908.8717542,7.0,0.0,4.0,4.0,3.0,0.0,0.0,2.0
1705080908.8717542,3.0,-2.0,4.0,2.0,-1.0,-3.0,0.0,5.0
1705080908.8717542,-2.0,-1.0,-4.0,-5.0,-4.0,-1.0,-3.0,2.0
1705080908.8717542,0.0,2.0,0.0,0.0,0.0,3.0,4.0,3.0
1705080908.8820183,-3.0,-3.0,-29.0,-15.0,-7.0,-2.0,-1.0,-6.0
1705080908.8820183,-3.0,-1.0,29.0,13.0,2.0,0.0,-3.0,-7.0
1705080908.8820183,1.0,0.0,-6.0,4.0,2.0,0.0,0.0,4.0
1705080908.8820183,1.0,1.0,-7.0,-3.0,0.0,0.0,-1.0,-2.0
1705080908.9117167,-3.0,-1.0,0.0,-1.0,0.0,3.0,4.0,0.0
1705080908.9117167,1.0,-4.0,-10.0,-3.0,0.0,-1.0,0.0,-2.0
1705080908.9117167,-7.0,2.0,4.0,-5.0,0.0,-3.0,-4.0,-2.0
1705080908.9117167,-7.0,0.0,-4.0,-4.0,-2.0,-3.0,-1.0,-1.0
1705080908.9220705,0.0,-9.0,1.0,-2.0,1.0,0.0,0.0,0.0
1705080908.9220705,2.0,1.0,-12.0,-5.0,-2.0,0.0,-1.0,-2.0
1705080908.9220705,0.0,5.0,35.0,3.0,0.0,0.0,0.0,1.0
1705080908.9220705,2.0,-5.0,-14.0,-4.0,-2.0,-5.0,-3.0,0.0
1705080908.9417298,-20.0,-5.0,6.0,-1.0,-2.0,-3.0,-5.0,-4.0
1705080908.9417298,1.0,-4.0,-6.0,-3.0,-2.0,1.0,0.0,-4.0
1705080908.9517493,-5.0,-7.0,-14.0,-8.0,-3.0,-1.0,-1.0,-2.0
1705080908.9517493,-4.0,-1.0,-1.0,0.0,-1.0,-2.0,-3.0,-2.0
1705080908.9620142,5.0,7.0,13.0,8.0,4.0,3.0,-1.0,0.0
1705080908.9620142,2.0,-4.0,-6.0,-4.0,-2.0,1.0,-1.0,0.0
1705080908.9620142,1.0,-4.0,-9.0,-5.0,-4.0,-3.0,-2.0,0.0
1705080908.9620142,0.0,5.0,0.0,-1.0,-3.0,-1.0,-1.0,-2.0
1705080908.9820395,10.0,1.0,-4.0,-1.0,0.0,-1.0,-1.0,2.0
1705080908.9820395,-25.0,-4.0,5.0,4.0,2.0,0.0,0.0,0.0
1705080908.9820395,4.0,-1.0,-12.0,-7.0,-2.0,-2.0,0.0,-2.0
1705080908.9820395,-4.0,-5.0,-2.0,-6.0,-6.0,-5.0,-5.0,-4.0
1705080909.0217242,1.0,3.0,6.0,5.0,2.0,1.0,1.0,2.0
1705080909.0217242,3.0,1.0,-2.0,2.0,-2.0,-3.0,-2.0,1.0
1705080909.0217242,-3.0,-2.0,-1.0,0.0,-2.0,-3.0,0.0,-2.0
1705080909.0217242,-3.0,-2.0,-4.0,-3.0,-2.0,-4.0,0.0,-2.0
1705080909.0217242,-2.0,-1.0,-1.0,-2.0,3.0,0.0,0.0,0.0
1705080909.0217242,0.0,0.0,1.0,-3.0,-5.0,3.0,-4.0,-4.0
1705080909.0217242,-35.0,-9.0,-5.0,-3.0,-4.0,-4.0,1.0,12.0
1705080909.0217242,13.0,-1.0,0.0,-2.0,1.0,-1.0,0.0,0.0
1705080909.0422318,-23.0,-8.0,-3.0,-5.0,-5.0,-6.0,-4.0,-1.0
1705080909.0422318,20.0,4.0,-3.0,0.0,1.0,-1.0,2.0,7.0
1705080909.0422318,24.0,13.0,13.0,6.0,4.0,1.0,4.0,13.0
1705080909.0422318,-36.0,-13.0,-5.0,-2.0,-5.0,-3.0,-4.0,-5.0
1705080909.0722437,-7.0,-5.0,-17.0,-7.0,-3.0,-3.0,-4.0,-5.0
1705080909.0722437,-16.0,2.0,16.0,4.0,2.0,-3.0,-3.0,-17.0
1705080909.0722437,7.0,8.0,22.0,8.0,1.0,2.0,-2.0,-5.0
1705080909.0722437,21.0,10.0,5.0,3.0,3.0,1.0,4.0,6.0
1705080909.0826025,12.0,1.0,-2.0,2.0,-1.0,1.0,2.0,6.0
1705080909.0826025,0.0,-1.0,-7.0,-4.0,-1.0,-3.0,-2.0,-2.0
1705080909.0826025,6.0,-3.0,-8.0,-5.0,-1.0,-2.0,-1.0,1.0
1705080909.0826025,12.0,3.0,5.0,4.0,1.0,3.0,0.0,-6.0
1705080909.1122434,-30.0,-2.0,0.0,-3.0,-3.0,-3.0,-6.0,-23.0
1705080909.1122434,6.0,-2.0,-3.0,-2.0,-1.0,1.0,2.0,5.0
1705080909.1122434,-15.0,-4.0,-4.0,-2.0,-3.0,-2.0,-2.0,-9.0
1705080909.1122434,-6.0,-3.0,-4.0,-4.0,-4.0,0.0,1.0,8.0
1705080909.1225846,3.0,-3.0,4.0,-2.0,-2.0,0.0,-2.0,4.0
1705080909.1225846,2.0,5.0,6.0,2.0,2.0,-2.0,-4.0,-28.0
1705080909.1225846,2.0,-6.0,-14.0,4.0,4.0,2.0,-1.0,-1.0
1705080909.1225846,-6.0,-1.0,0.0,0.0,-1.0,-1.0,-3.0,-1.0
1705080909.1426144,20.0,3.0,5.0,1.0,0.0,6.0,7.0,12.0
1705080909.1426144,-5.0,-2.0,-3.0,-3.0,-6.0,-16.0,-3.0,14.0
1705080909.1426144,17.0,-1.0,-3.0,-6.0,0.0,6.0,-4.0,3.0
1705080909.1426144,14.0,5.0,1.0,-2.0,0.0,-2.0,-8.0,-30.0
1705080909.1625159,-2.0,-1.0,-7.0,-6.0,-8.0,-3.0,-3.0,-3.0
1705080909.1625159,-1.0,-4.0,7.0,5.0,4.0,2.0,2.0,3.0
1705080909.1625159,-3.0,5.0,-1.0,1.0,-1.0,-4.0,4.0,13.0
1705080909.1625159,71.0,10.0,1.0,6.0,2.0,4.0,10.0,27.0
1705080909.1922438,-83.0,-29.0,-1.0,0.0,1.0,-1.0,-5.0,-30.0
1705080909.1922438,-3.0,-6.0,-15.0,-9.0,-5.0,-3.0,-5.0,1.0
1705080909.1922438,-16.0,1.0,14.0,-5.0,-7.0,-7.0,-11.0,-22.0
1705080909.1922438,4.0,7.0,-2.0,8.0,5.0,5.0,1.0,2.0
1705080909.2024653,25.0,6.0,-2.0,1.0,1.0,-2.0,3.0,8.0
1705080909.2024653,14.0,1.0,-2.0,1.0,2.0,7.0,6.0,17.0
1705080909.2024653,13.0,-1.0,-5.0,-8.0,-2.0,2.0,2.0,0.0
1705080909.2024653,-32.0,-11.0,-13.0,-17.0,-9.0,-8.0,-6.0,-1.0
1705080909.242247,14.0,11.0,21.0,15.0,3.0,2.0,1.0,-1.0
1705080909.242247,-12.0,-3.0,0.0,2.0,5.0,2.0,1.0,6.0
1705080909.242247,9.0,1.0,-4.0,0.0,3.0,5.0,5.0,14.0
1705080909.242247,-55.0,-10.0,-4.0,-2.0,-3.0,-2.0,-2.0,-43.0
1705080909.2523465,4.0,-5.0,-9.0,-7.0,-6.0,3.0,-3.0,5.0
1705080909.2523465,-7.0,1.0,1.0,-6.0,-7.0,-9.0,-13.0,-13.0
1705080909.2523465,-3.0,-3.0,-4.0,4.0,1.0,-3.0,-2.0,-10.0
1705080909.2523465,-9.0,-3.0,6.0,0.0,6.0,-3.0,5.0,19.0
1705080909.2624176,2.0,6.0,0.0,1.0,-5.0,6.0,2.0,6.0
1705080909.2624176,5.0,-3.0,-4.0,-3.0,0.0,3.0,-1.0,-8.0
1705080909.2624176,-17.0,-7.0,-12.0,-9.0,-10.0,-5.0,-3.0,1.0
1705080909.2624176,-12.0,-5.0,-4.0,2.0,3.0,0.0,-1.0,-1.0
1705080909.3028445,50.0,13.0,23.0,4.0,4.0,-4.0,4.0,1.0
1705080909.3028445,-1.0,-4.0,1.0,7.0,-1.0,-2.0,3.0,4.0
1705080909.3028445,-4.0,-7.0,-8.0,-6.0,-2.0,-5.0,-5.0,-9.0
1705080909.3028445,11.0,2.0,-1.0,-4.0,-6.0,0.0,-1.0,14.0
1705080909.3112373,7.0,0.0,-15.0,-11.0,-4.0,-6.0,-3.0,-5.0
1705080909.3112373,-17.0,-14.0,-10.0,-6.0,-5.0,-1.0,-2.0,-5.0
1705080909.3112373,-9.0,17.0,23.0,18.0,7.0,6.0,2.0,-7.0
1705080909.3112373,23.0,-1.0,1.0,2.0,-1.0,0.0,2.0,10.0
1705080909.325233,0.0,-2.0,-4.0,0.0,1.0,-5.0,-2.0,9.0
1705080909.325233,13.0,1.0,-7.0,-7.0,-1.0,5.0,5.0,-1.0
1705080909.325233,-6.0,-7.0,-11.0,-4.0,1.0,-5.0,-6.0,-7.0
1705080909.325233,-16.0,-1.0,7.0,5.0,1.0,-5.0,-12.0,-34.0
1705080909.3452713,2.0,1.0,0.0,3.0,0.0,1.0,1.0,-4.0
1705080909.3452713,15.0,6.0,1.0,0.0,-1.0,3.0,3.0,5.0
1705080909.3452713,3.0,-5.0,-7.0,-7.0,-5.0,-2.0,0.0,1.0
1705080909.3452713,-6.0,2.0,2.0,-3.0,-2.0,-1.0,-2.0,4.0
1705080909.365492,-3.0,-1.0,-4.0,-2.0,2.0,-2.0,-1.0,2.0
1705080909.365492,-9.0,3.0,3.0,2.0,2.0,0.0,-1.0,0.0
1705080909.365492,8.0,-8.0,-7.0,0.0,-5.0,0.0,-2.0,-8.0
1705080909.365492,-4.0,-8.0,4.0,-5.0,-5.0,-1.0,0.0,0.0
1705080909.3852918,-6.0,-3.0,-4.0,-2.0,-1.0,-5.0,-1.0,5.0
1705080909.3852918,2.0,2.0,-1.0,2.0,5.0,-3.0,0.0,0.0
1705080909.3852918,-1.0,-1.0,3.0,0.0,-2.0,-3.0,0.0,8.0
1705080909.3852918,1.0,-1.0,-12.0,-6.0,-4.0,-1.0,-1.0,11.0
1705080909.4152868,-2.0,-3.0,10.0,0.0,-3.0,-3.0,-5.0,-15.0
1705080909.4152868,-3.0,-1.0,-12.0,-1.0,-2.0,1.0,0.0,2.0
1705080909.4152868,4.0,6.0,2.0,4.0,1.0,2.0,1.0,-4.0
1705080909.4152868,-3.0,1.0,15.0,5.0,0.0,0.0,-1.0,7.0
1705080909.4256918,-4.0,-4.0,-7.0,-3.0,0.0,-1.0,0.0,3.0
1705080909.4256918,-17.0,-4.0,-6.0,-6.0,-5.0,-4.0,-5.0,-7.0
1705080909.4256918,14.0,-2.0,1.0,-2.0,-2.0,-1.0,0.0,1.0
1705080909.4256918,-11.0,-4.0,-9.0,-5.0,-2.0,-2.0,-4.0,-11.0
1705080909.4453351,0.0,-4.0,-3.0,-3.0,-6.0,-2.0,-4.0,-1.0
1705080909.4453351,-6.0,-1.0,4.0,3.0,4.0,-1.0,-3.0,-5.0
1705080909.4453351,-3.0,0.0,2.0,3.0,4.0,1.0,1.0,4.0
1705080909.4453351,1.0,3.0,2.0,2.0,-5.0,-3.0,0.0,-2.0
1705080909.4655123,-4.0,-4.0,-8.0,-3.0,4.0,2.0,-3.0,-4.0
1705080909.4655123,4.0,3.0,-1.0,-4.0,-5.0,-4.0,0.0,2.0
1705080909.4655123,-9.0,-9.0,-7.0,-6.0,-4.0,-3.0,-5.0,-5.0
1705080909.4655123,1.0,-1.0,-10.0,-7.0,-2.0,-1.0,-1.0,-2.0
1705080909.4856188,0.0,1.0,2.0,2.0,3.0,0.0,3.0,3.0
1705080909.4856188,10.0,5.0,7.0,3.0,-2.0,-2.0,3.0,1.0
1705080909.4856188,6.0,-1.0,-4.0,-3.0,-1.0,7.0,-6.0,-17.0
1705080909.4856188,-17.0,-6.0,-8.0,-5.0,-4.0,-1.0,-4.0,4.0
1705080909.5052927,3.0,3.0,6.0,4.0,2.0,0.0,-2.0,-3.0
1705080909.5052927,3.0,0.0,3.0,-1.0,0.0,0.0,1.0,0.0
1705080909.5052927,-21.0,-3.0,-3.0,-2.0,-4.0,-6.0,-1.0,5.0
1705080909.5052927,21.0,3.0,2.0,1.0,2.0,1.0,4.0,10.0
1705080909.5253348,0.0,0.0,-3.0,-4.0,-2.0,0.0,-2.0,-2.0
1705080909.5253348,3.0,-1.0,-7.0,-5.0,-1.0,-1.0,1.0,2.0
1705080909.5253348,-6.0,0.0,12.0,4.0,-2.0,-4.0,0.0,-1.0
1705080909.5253348,-2.0,-4.0,-4.0,1.0,0.0,-1.0,0.0,-2.0
1705080909.5456,-1.0,-2.0,-6.0,0.0,-2.0,-3.0,-2.0,1.0
1705080909.5456,-4.0,-1.0,-1.0,1.0,-2.0,0.0,-1.0,-2.0
1705080909.5456,7.0,-2.0,-6.0,-4.0,1.0,-2.0,-1.0,-2.0
1705080909.5456,-1.0,0.0,-6.0,-1.0,3.0,0.0,1.0,2.0
1705080909.5656192,4.0,1.0,12.0,1.0,-1.0,-1.0,0.0,8.0
1705080909.5656192,-10.0,-4.0,-1.0,-1.0,-1.0,0.0,1.0,-4.0
1705080909.5656192,0.0,0.0,1.0,1.0,-1.0,-1.0,1.0,1.0
1705080909.5656192,-10.0,-1.0,-2.0,-1.0,-2.0,-1.0,-2.0,-10.0
1705080909.585927,-3.0,-1.0,-9.0,-4.0,-2.0,0.0,1.0,-2.0
1705080909.585927,0.0,-6.0,-4.0,-7.0,-4.0,-3.0,-7.0,-11.0
1705080909.585927,-2.0,0.0,7.0,3.0,2.0,-2.0,0.0,0.0
1705080909.585927,14.0,0.0,2.0,3.0,0.0,1.0,2.0,-4.0
1705080909.6059241,-2.0,-3.0,-9.0,1.0,-1.0,0.0,-1.0,-1.0
1705080909.6059241,4.0,7.0,7.0,-3.0,-1.0,1.0,-2.0,-6.0
1705080909.6059241,-7.0,-4.0,-10.0,-2.0,0.0,-2.0,-4.0,-6.0
1705080909.6059241,-6.0,1.0,4.0,-1.0,0.0,-1.0,-1.0,0.0
1705080909.6256192,0.0,-2.0,-10.0,-1.0,-1.0,-3.0,-4.0,-10.0
1705080909.6256192,3.0,-1.0,7.0,3.0,0.0,0.0,1.0,3.0
1705080909.6256192,-1.0,1.0,-2.0,-4.0,-1.0,-2.0,0.0,4.0
1705080909.6256192,-2.0,0.0,-3.0,-3.0,0.0,-1.0,-1.0,3.0
1705080909.6460624,-5.0,-4.0,-2.0,-4.0,-3.0,-2.0,0.0,-5.0
1705080909.6460624,-6.0,-3.0,-3.0,2.0,-1.0,0.0,-3.0,0.0
1705080909.6460624,0.0,-4.0,1.0,-3.0,-1.0,0.0,-1.0,-1.0
1705080909.6460624,-1.0,-1.0,0.0,-1.0,-1.0,0.0,-2.0,-1.0
1705080909.665974,-2.0,-2.0,3.0,1.0,-1.0,-1.0,-1.0,0.0
1705080909.665974,0.0,3.0,2.0,0.0,0.0,-2.0,-1.0,2.0
1705080909.665974,0.0,-7.0,4.0,2.0,-1.0,-2.0,-1.0,2.0
1705080909.665974,-1.0,-2.0,-10.0,-4.0,-2.0,-1.0,-3.0,0.0
1705080909.6856198,4.0,3.0,9.0,2.0,-1.0,0.0,0.0,1.0
1705080909.6856198,0.0,3.0,2.0,1.0,-2.0,0.0,-1.0,-2.0
1705080909.6856198,4.0,0.0,-9.0,-5.0,-3.0,-1.0,0.0,1.0
1705080909.6856198,-7.0,-3.0,9.0,-1.0,-4.0,-5.0,-1.0,-3.0
1705080909.7056215,0.0,2.0,3.0,2.0,-1.0,1.0,1.0,1.0
1705080909.7056215,-1.0,-4.0,-4.0,-4.0,2.0,2.0,-1.0,4.0
1705080909.7056215,-4.0,1.0,1.0,1.0,-3.0,-2.0,-1.0,-5.0
1705080909.7056215,-1.0,-2.0,-4.0,0.0,0.0,2.0,-1.0,-11.0
1705080909.7260475,0.0,3.0,2.0,1.0,-1.0,-1.0,1.0,2.0
1705080909.7260475,1.0,-5.0,-3.0,-1.0,-4.0,-5.0,0.0,-1.0
1705080909.7260475,-2.0,-1.0,-3.0,-2.0,-1.0,1.0,-1.0,3.0
1705080909.7260475,-1.0,0.0,-6.0,-5.0,-3.0,-4.0,-3.0,0.0
1705080909.7356186,-2.0,-1.0,-4.0,-5.0,-8.0,-3.0,-2.0,-2.0
1705080909.7356186,-2.0,-2.0,-5.0,-2.0,2.0,-1.0,-1.0,-1.0
1705080909.7456203,2.0,2.0,-7.0,-4.0,-1.0,-3.0,-1.0,2.0
1705080909.7456203,-4.0,-2.0,14.0,4.0,3.0,0.0,0.0,-1.0
1705080909.7660785,-1.0,0.0,2.0,1.0,1.0,2.0,0.0,3.0
1705080909.7660785,0.0,-1.0,1.0,2.0,-3.0,-1.0,-2.0,-2.0
1705080909.7660785,-1.0,-3.0,-8.0,-7.0,1.0,1.0,-4.0,-1.0
1705080909.7660785,-1.0,-2.0,-4.0,-3.0,-4.0,1.0,-3.0,-1.0
1705080909.7856207,0.0,-2.0,12.0,-1.0,1.0,0.0,-1.0,0.0
1705080909.7856207,1.0,-1.0,-5.0,2.0,-2.0,-1.0,0.0,-5.0
1705080909.7856207,-4.0,-4.0,-8.0,-2.0,-4.0,0.0,-1.0,-1.0
1705080909.7856207,-2.0,0.0,-4.0,-3.0,2.0,0.0,0.0,0.0
1705080909.813483,1.0,-2.0,-8.0,-6.0,-3.0,-3.0,-2.0,-1.0
1705080909.8142226,-1.0,-1.0,1.0,0.0,-1.0,0.0,0.0,0.0
1705080909.8142226,-3.0,-4.0,2.0,2.0,1.0,0.0,-1.0,0.0
1705080909.8142226,2.0,0.0,-4.0,-1.0,-3.0,-2.0,-2.0,-1.0
1705080909.828236,-3.0,0.0,-3.0,1.0,4.0,1.0,1.0,0.0
1705080909.828236,-3.0,-2.0,-1.0,-5.0,-6.0,-1.0,-2.0,-2.0
1705080909.828236,-8.0,2.0,3.0,-2.0,-1.0,3.0,0.0,3.0
1705080909.828236,2.0,2.0,2.0,-2.0,-1.0,-3.0,-2.0,-4.0
1705080909.8511474,1.0,4.0,-18.0,1.0,2.0,3.0,2.0,-1.0
1705080909.8511474,0.0,-4.0,12.0,0.0,2.0,-3.0,-1.0,1.0
1705080909.8511474,-2.0,0.0,0.0,-4.0,-3.0,-4.0,1.0,-4.0
1705080909.8511474,-15.0,-2.0,3.0,1.0,-2.0,-1.0,0.0,5.0
1705080909.8611515,-2.0,-3.0,-5.0,-4.0,-2.0,-5.0,-5.0,-3.0
1705080909.8611515,1.0,1.0,-10.0,-4.0,-2.0,-1.0,-2.0,5.0
1705080909.8711534,10.0,2.0,8.0,2.0,1.0,0.0,-1.0,1.0
1705080909.8711534,1.0,1.0,3.0,1.0,1.0,1.0,0.0,0.0
1705080909.881393,-2.0,-6.0,-2.0,-3.0,-3.0,-2.0,-1.0,-3.0
1705080909.881393,-6.0,9.0,5.0,-1.0,-1.0,0.0,2.0,9.0
1705080909.89135,-17.0,-11.0,-2.0,-1.0,-5.0,0.0,-3.0,-1.0
1705080909.89135,-6.0,-8.0,-9.0,-6.0,-4.0,-8.0,-9.0,-5.0
1705080909.9211457,-1.0,-2.0,-3.0,-4.0,-5.0,-2.0,-1.0,-3.0
1705080909.9211457,-4.0,-2.0,2.0,3.0,2.0,0.0,0.0,-3.0
1705080909.9211457,13.0,5.0,1.0,3.0,1.0,3.0,3.0,0.0
1705080909.9211457,11.0,2.0,-1.0,1.0,1.0,5.0,8.0,2.0
1705080909.9211457,-8.0,-4.0,-4.0,-4.0,-6.0,-21.0,-32.0,-2.0
1705080909.9211457,3.0,-1.0,1.0,0.0,-1.0,0.0,0.0,-2.0
1705080909.9311528,0.0,1.0,-2.0,-2.0,-3.0,-4.0,2.0,-3.0
1705080909.9311528,14.0,-2.0,-6.0,-3.0,0.0,2.0,-2.0,-5.0
1705080909.9413965,1.0,-2.0,4.0,-2.0,1.0,7.0,8.0,0.0
1705080909.9413965,0.0,-1.0,-2.0,-1.0,5.0,-3.0,-7.0,-4.0
1705080909.9611468,1.0,-3.0,-5.0,-10.0,-13.0,-4.0,0.0,-3.0
1705080909.9611468,-6.0,-2.0,-1.0,3.0,6.0,3.0,5.0,1.0
1705080909.9611468,1.0,3.0,9.0,4.0,1.0,-12.0,-26.0,-3.0
1705080909.9711607,1.0,-1.0,-7.0,2.0,0.0,4.0,3.0,-7.0
1705080909.9711607,-9.0,0.0,3.0,7.0,1.0,-2.0,1.0,-3.0
1705080909.9711607,12.0,-2.0,-5.0,-7.0,-8.0,-4.0,-4.0,0.0
1705080909.9911513,0.0,-1.0,-5.0,-4.0,2.0,6.0,8.0,8.0
1705080909.9911513,-4.0,-4.0,-4.0,-4.0,-7.0,-3.0,2.0,-1.0
1705080909.9911513,4.0,4.0,3.0,1.0,0.0,-4.0,-10.0,-21.0
1705080909.9911513,-4.0,-3.0,1.0,-3.0,-6.0,-4.0,5.0,-4.0
1705080910.021151,0.0,0.0,-10.0,0.0,8.0,11.0,5.0,-18.0
1705080910.021151,-9.0,4.0,14.0,3.0,-4.0,-4.0,-5.0,-10.0
1705080910.021151,2.0,2.0,-10.0,-6.0,-1.0,1.0,2.0,-4.0
1705080910.021151,-20.0,-2.0,9.0,5.0,6.0,0.0,0.0,8.0
1705080910.0311458,38.0,0.0,-21.0,-8.0,-1.0,3.0,11.0,13.0
1705080910.0311458,-4.0,-6.0,19.0,7.0,-1.0,0.0,2.0,9.0
1705080910.0311458,45.0,8.0,1.0,5.0,7.0,1.0,1.0,-31.0
1705080910.0311458,-5.0,-4.0,-6.0,0.0,0.0,3.0,0.0,9.0
1705080910.0612044,-18.0,-2.0,3.0,-4.0,-2.0,-5.0,3.0,-4.0
1705080910.0612044,16.0,3.0,-13.0,-2.0,3.0,1.0,-1.0,-3.0
1705080910.0612044,-8.0,-11.0,2.0,-2.0,-3.0,-2.0,1.0,18.0
1705080910.0612044,-2.0,4.0,0.0,0.0,-4.0,-2.0,-3.0,-11.0
1705080910.071148,-3.0,-1.0,6.0,1.0,0.0,3.0,5.0,5.0
1705080910.071148,-6.0,-1.0,-6.0,-3.0,-1.0,-1.0,-2.0,-5.0
1705080910.071148,-15.0,-8.0,0.0,-1.0,2.0,-2.0,-2.0,8.0
1705080910.071148,3.0,6.0,-13.0,-7.0,-5.0,-3.0,-2.0,-1.0
1705080910.0912282,-6.0,5.0,13.0,10.0,-3.0,-7.0,3.0,7.0
1705080910.0912282,1.0,-1.0,7.0,-5.0,-1.0,3.0,1.0,11.0
1705080910.0912282,-8.0,13.0,5.0,-2.0,-4.0,-5.0,-7.0,-4.0
1705080910.0912282,3.0,-4.0,-3.0,5.0,1.0,-2.0,-4.0,-3.0
1705080910.1114442,-2.0,-1.0,2.0,-2.0,1.0,0.0,2.0,-1.0
1705080910.1114442,0.0,-11.0,-16.0,-2.0,2.0,4.0,1.0,-2.0
1705080910.1114442,-11.0,-2.0,-5.0,-7.0,-1.0,-3.0,-5.0,-10.0
1705080910.1114442,4.0,4.0,5.0,-5.0,-4.0,-1.0,-3.0,-5.0
1705080910.1311483,-6.0,-2.0,-2.0,1.0,-4.0,0.0,2.0,-2.0
1705080910.1311483,1.0,0.0,-5.0,-1.0,0.0,-3.0,1.0,15.0
1705080910.1413367,-7.0,-7.0,-4.0,-3.0,-5.0,4.0,-3.0,-8.0
1705080910.1413367,1.0,0.0,0.0,-1.0,5.0,-3.0,-2.0,10.0
1705080910.151227,2.0,-7.0,-15.0,-7.0,-5.0,-1.0,0.0,-7.0
1705080910.151227,0.0,4.0,-4.0,1.0,1.0,-2.0,-1.0,4.0
1705080910.151227,-6.0,-7.0,-4.0,0.0,4.0,-1.0,1.0,11.0
1705080910.151227,-16.0,-8.0,15.0,2.0,-1.0,0.0,-2.0,-10.0
1705080910.1911473,-12.0,-2.0,-12.0,-5.0,-2.0,-1.0,0.0,2.0
1705080910.1911473,22.0,6.0,38.0,11.0,3.0,0.0,-5.0,-5.0
1705080910.1911473,-11.0,-3.0,3.0,3.0,1.0,1.0,4.0,9.0
1705080910.1911473,-1.0,3.0,-17.0,-11.0,-5.0,-5.0,-5.0,-5.0
1705080910.1911473,-7.0,-18.0,13.0,2.0,0.0,2.0,-3.0,-2.0
1705080910.1911473,-4.0,13.0,-7.0,-15.0,-8.0,-2.0,-3.0,-13.0
1705080910.1911473,-8.0,-6.0,-10.0,1.0,-3.0,-4.0,-7.0,-1.0
1705080910.1911473,8.0,3.0,13.0,13.0,4.0,2.0,3.0,3.0
1705080910.2113225,-13.0,5.0,1.0,-3.0,-2.0,-1.0,1.0,9.0
1705080910.2113225,7.0,-10.0,-10.0,-2.0,-1.0,-4.0,-2.0,-5.0
1705080910.2113225,1.0,-3.0,-1.0,-9.0,-4.0,-1.0,-2.0,2.0
1705080910.2113225,-6.0,-2.0,-7.0,-3.0,0.0,1.0,-2.0,-2.0
1705080910.2311478,1.0,7.0,12.0,9.0,2.0,2.0,3.0,2.0
1705080910.2311478,-8.0,-4.0,-5.0,-1.0,-2.0,-1.0,1.0,-3.0
1705080910.2311478,2.0,1.0,0.0,2.0,1.0,-1.0,-2.0,-4.0
1705080910.2311478,-1.0,-6.0,-7.0,-4.0,-5.0,-2.0,0.0,4.0
1705080910.2411816,25.0,2.0,1.0,-3.0,-4.0,-1.0,-3.0,-8.0
1705080910.2411816,-7.0,-6.0,-6.0,-3.0,-1.0,-1.0,-1.0,-3.0
1705080910.2513702,2.0,0.0,-3.0,-4.0,-1.0,2.0,2.0,3.0
1705080910.2513702,14.0,3.0,4.0,2.0,-1.0,-1.0,0.0,3.0
1705080910.2712169,-3.0,-4.0,-10.0,-9.0,-4.0,-2.0,-2.0,-5.0
1705080910.2712169,-9.0,3.0,-9.0,0.0,1.0,-1.0,-1.0,-4.0
1705080910.2712169,2.0,4.0,5.0,9.0,4.0,2.0,2.0,6.0
1705080910.2712169,-3.0,-1.0,-1.0,0.0,-2.0,-2.0,1.0,-3.0
1705080910.3111477,-6.0,-2.0,-4.0,-4.0,-4.0,-4.0,-2.0,-6.0
1705080910.3111477,-1.0,-9.0,-15.0,-12.0,-2.0,-2.0,-2.0,-1.0
1705080910.3111477,-4.0,0.0,13.0,9.0,6.0,-3.0,-3.0,3.0
1705080910.3111477,-1.0,3.0,7.0,12.0,6.0,5.0,0.0,2.0
1705080910.3111477,0.0,-1.0,-10.0,-4.0,-3.0,-1.0,-1.0,-2.0
1705080910.3111477,-5.0,-1.0,-5.0,-4.0,-6.0,-3.0,-2.0,-2.0
1705080910.3111477,5.0,2.0,-5.0,-9.0,-6.0,1.0,0.0,-3.0
1705080910.3111477,4.0,-5.0,-5.0,-6.0,-3.0,-1.0,-1.0,-5.0
1705080910.3319504,-1.0,1.0,6.0,3.0,2.0,-1.0,-2.0,0.0
1705080910.3319504,-4.0,0.0,-1.0,-4.0,-3.0,0.0,-2.0,-3.0
1705080910.333999,3.0,1.0,4.0,-1.0,-3.0,-1.0,0.0,3.0
1705080910.333999,-2.0,-2.0,-7.0,-6.0,-4.0,-2.0,0.0,-3.0
1705080910.3752904,-16.0,1.0,8.0,3.0,0.0,-1.0,-1.0,1.0
1705080910.3752904,14.0,1.0,1.0,1.0,1.0,-1.0,1.0,7.0
1705080910.3752904,-16.0,-2.0,-14.0,-10.0,-2.0,-1.0,-3.0,-2.0
1705080910.3752904,-9.0,1.0,31.0,16.0,5.0,2.0,1.0,-1.0
1705080910.3752904,-31.0,1.0,9.0,3.0,-3.0,-2.0,-4.0,-4.0
1705080910.3752904,-7.0,-5.0,-16.0,-2.0,0.0,-2.0,-3.0,-14.0
1705080910.3752904,9.0,5.0,21.0,4.0,4.0,1.0,0.0,0.0
1705080910.3752904,-6.0,-9.0,-19.0,-10.0,-8.0,-3.0,-3.0,2.0
1705080910.3856845,4.0,1.0,1.0,-1.0,0.0,-1.0,-2.0,-3.0
1705080910.3856845,-8.0,0.0,3.0,5.0,1.0,-1.0,1.0,2.0
1705080910.3856845,1.0,-4.0,-13.0,-6.0,-3.0,-1.0,0.0,2.0
1705080910.3856845,-16.0,0.0,-2.0,-4.0,-3.0,-4.0,-4.0,-9.0
1705080910.4155884,10.0,-4.0,-2.0,-1.0,1.0,2.0,0.0,7.0
1705080910.4155884,2.0,-4.0,-4.0,-4.0,-4.0,2.0,-1.0,2.0
1705080910.4155884,3.0,4.0,3.0,0.0,-1.0,0.0,1.0,1.0
1705080910.4155884,0.0,-1.0,3.0,4.0,3.0,0.0,-2.0,-2.0
1705080910.425521,-2.0,-7.0,-14.0,-1.0,0.0,-2.0,-1.0,-2.0
1705080910.425521,-3.0,-5.0,-4.0,-3.0,-3.0,-4.0,-3.0,-1.0
1705080910.4353874,-7.0,-9.0,1.0,-3.0,-3.0,-2.0,1.0,-6.0
1705080910.4353874,-1.0,2.0,4.0,-3.0,-2.0,-4.0,-2.0,-1.0
1705080910.4456687,9.0,9.0,-21.0,1.0,-4.0,-4.0,-1.0,-5.0
1705080910.4456687,1.0,-1.0,14.0,2.0,4.0,3.0,-1.0,0.0
1705080910.4456687,3.0,4.0,-7.0,5.0,2.0,0.0,-1.0,-1.0
1705080910.4456687,6.0,-8.0,-9.0,-5.0,-2.0,3.0,0.0,1.0
1705080910.475687,1.0,-2.0,5.0,-3.0,5.0,-4.0,-1.0,-11.0
1705080910.475687,-5.0,-2.0,-5.0,-8.0,-14.0,-3.0,-3.0,-3.0
1705080910.475687,-4.0,1.0,-5.0,-2.0,-3.0,-4.0,-1.0,6.0
1705080910.475687,0.0,5.0,2.0,0.0,1.0,4.0,-3.0,-12.0
1705080910.486049,12.0,-2.0,2.0,-1.0,-2.0,1.0,3.0,5.0
1705080910.486049,-3.0,0.0,-2.0,0.0,6.0,1.0,0.0,-4.0
1705080910.495689,-8.0,-3.0,2.0,0.0,0.0,-1.0,-3.0,-3.0
1705080910.495689,0.0,0.0,-6.0,-1.0,-2.0,-1.0,1.0,9.0
1705080910.5156858,-3.0,0.0,5.0,-4.0,0.0,-5.0,-6.0,-2.0
1705080910.5156858,0.0,-2.0,-8.0,-2.0,-1.0,-2.0,1.0,-4.0
1705080910.5156858,-11.0,-5.0,-6.0,2.0,-2.0,1.0,1.0,6.0
1705080910.5156858,7.0,0.0,-3.0,-2.0,-1.0,-2.0,2.0,6.0
1705080910.5259368,-4.0,-2.0,0.0,-1.0,-1.0,1.0,-2.0,-2.0
1705080910.5259368,9.0,3.0,3.0,2.0,0.0,-2.0,0.0,2.0
1705080910.5356932,-3.0,-3.0,-1.0,1.0,0.0,-2.0,-2.0,-4.0
1705080910.5356932,-3.0,0.0,-4.0,-3.0,-1.0,0.0,-3.0,-3.0
1705080910.5459576,6.0,-1.0,2.0,-1.0,-2.0,0.0,3.0,-2.0
1705080910.5459576,-5.0,-1.0,2.0,3.0,1.0,1.0,-2.0,-2.0
1705080910.555691,2.0,0.0,-6.0,-3.0,1.0,0.0,3.0,3.0
1705080910.555691,-6.0,-3.0,7.0,-1.0,-2.0,-3.0,-3.0,3.0
1705080910.566,2.0,1.0,-3.0,0.0,-3.0,0.0,0.0,0.0
1705080910.566,-6.0,-6.0,6.0,3.0,1.0,-3.0,-1.0,-1.0
1705080910.566,14.0,7.0,6.0,-2.0,-2.0,0.0,0.0,-13.0
1705080910.566,-1.0,-3.0,-8.0,-3.0,-2.0,-1.0,-3.0,-2.0
1705080910.595795,-10.0,-8.0,-1.0,-2.0,0.0,3.0,0.0,-1.0
1705080910.595795,1.0,5.0,-3.0,0.0,2.0,-1.0,0.0,2.0
1705080910.595795,2.0,-2.0,9.0,-3.0,-1.0,-1.0,-1.0,1.0
1705080910.595795,1.0,1.0,4.0,-1.0,-3.0,-1.0,1.0,0.0
1705080910.6061575,6.0,-1.0,2.0,0.0,-1.0,0.0,-2.0,3.0
1705080910.6061575,3.0,1.0,-8.0,-4.0,0.0,-1.0,-2.0,-10.0
1705080910.6158125,-2.0,0.0,-5.0,-1.0,-1.0,-4.0,-2.0,0.0
1705080910.6158125,-4.0,-2.0,-5.0,-3.0,-2.0,0.0,2.0,-4.0
1705080910.6257641,5.0,0.0,2.0,3.0,1.0,1.0,0.0,1.0
1705080910.6257641,-6.0,0.0,3.0,-1.0,-3.0,-4.0,-5.0,2.0
1705080910.6257641,8.0,-1.0,-7.0,0.0,-2.0,0.0,-1.0,4.0
1705080910.6257641,-4.0,-5.0,2.0,-2.0,1.0,-2.0,-2.0,-14.0
1705080910.6462212,-6.0,-3.0,0.0,-3.0,-4.0,-2.0,-1.0,-4.0
1705080910.6462212,-1.0,-1.0,2.0,4.0,2.0,1.0,-2.0,-5.0
1705080910.6462212,1.0,1.0,-9.0,-6.0,-2.0,0.0,1.0,2.0
1705080910.6462212,-2.0,5.0,8.0,2.0,1.0,-2.0,2.0,4.0
1705080910.6657717,-1.0,-3.0,1.0,3.0,0.0,0.0,-5.0,-13.0
1705080910.6657717,1.0,-5.0,4.0,0.0,-2.0,-1.0,1.0,2.0
1705080910.6757631,-2.0,2.0,-10.0,-4.0,-2.0,-2.0,-4.0,-3.0
1705080910.6757631,3.0,2.0,6.0,-1.0,0.0,-2.0,-2.0,4.0
1705080910.6857634,-4.0,3.0,2.0,-2.0,3.0,-1.0,1.0,4.0
1705080910.6857634,-3.0,0.0,1.0,-3.0,-4.0,-4.0,2.0,5.0
1705080910.696132,-4.0,-4.0,1.0,3.0,3.0,2.0,0.0,-2.0
1705080910.696132,1.0,-4.0,-14.0,-5.0,-2.0,-2.0,-2.0,8.0
1705080910.7065206,4.0,0.0,-8.0,-2.0,-4.0,-2.0,0.0,2.0
1705080910.7065206,-3.0,-3.0,-9.0,0.0,1.0,0.0,-2.0,-3.0
1705080910.7065206,-2.0,0.0,12.0,4.0,0.0,-2.0,-2.0,-2.0
1705080910.7065206,1.0,-4.0,-7.0,-1.0,-1.0,0.0,0.0,0.0
1705080910.72655,2.0,1.0,-7.0,-1.0,1.0,-1.0,-2.0,-8.0
1705080910.72655,6.0,1.0,-1.0,-1.0,-2.0,-1.0,0.0,7.0
1705080910.7361462,-2.0,-4.0,-6.0,-3.0,-2.0,-1.0,-1.0,-5.0
1705080910.7361462,1.0,0.0,-2.0,1.0,1.0,1.0,0.0,0.0
1705080910.7461455,-7.0,-1.0,6.0,-4.0,-4.0,-3.0,-2.0,2.0
1705080910.7461455,-6.0,-3.0,-3.0,-1.0,-2.0,-1.0,-1.0,-4.0
1705080910.7461455,-6.0,-3.0,4.0,1.0,0.0,1.0,0.0,-1.0
1705080910.7461455,12.0,0.0,-2.0,-2.0,-2.0,0.0,-1.0,-12.0
1705080910.7665462,-1.0,0.0,-3.0,-3.0,-4.0,-2.0,-1.0,3.0
1705080910.7665462,-2.0,-2.0,1.0,0.0,6.0,-1.0,-1.0,-1.0
1705080910.7665462,-2.0,1.0,2.0,1.0,-6.0,1.0,0.0,5.0
1705080910.7665462,-7.0,-3.0,-5.0,-3.0,-4.0,-1.0,-4.0,4.0
1705080910.7861452,8.0,0.0,2.0,2.0,1.0,1.0,1.0,0.0
1705080910.7861452,-1.0,-2.0,0.0,-1.0,0.0,2.0,0.0,-2.0
1705080910.7961748,-5.0,-3.0,-2.0,-5.0,1.0,-6.0,-4.0,-3.0
1705080910.7961748,-4.0,0.0,0.0,-3.0,-2.0,-7.0,-5.0,0.0
1705080910.8063912,0.0,-9.0,-6.0,-8.0,-4.0,-1.0,-1.0,5.0
1705080910.8063912,-1.0,-4.0,6.0,-5.0,-2.0,0.0,-4.0,1.0
1705080910.8063912,3.0,1.0,8.0,-2.0,1.0,0.0,0.0,-10.0
1705080910.8063912,3.0,0.0,-10.0,-5.0,-3.0,-1.0,2.0,7.0
1705080910.8264186,2.0,1.0,5.0,6.0,0.0,-2.0,-2.0,0.0
1705080910.8264186,-9.0,-2.0,-11.0,-2.0,-1.0,0.0,-2.0,-3.0
1705080910.8361561,0.0,-3.0,-9.0,-2.0,-1.0,0.0,-3.0,3.0
1705080910.8361561,-3.0,-2.0,4.0,5.0,-1.0,-2.0,-1.0,-4.0
1705080910.8461592,-3.0,0.0,-4.0,1.0,-1.0,0.0,-2.0,-4.0
1705080910.8461592,0.0,-1.0,0.0,0.0,-2.0,0.0,-1.0,-1.0
1705080910.866652,-7.0,-2.0,-2.0,-1.0,-2.0,0.0,-2.0,2.0
1705080910.866652,1.0,-1.0,-2.0,1.0,0.0,-1.0,0.0,-4.0
1705080910.8751647,-3.0,1.0,3.0,0.0,0.0,1.0,-1.0,2.0
1705080910.8751647,-10.0,2.0,-2.0,1.0,-2.0,-1.0,2.0,14.0
1705080910.8751647,2.0,-4.0,2.0,-1.0,-2.0,-2.0,-3.0,-14.0
1705080910.8751647,-1.0,2.0,0.0,0.0,1.0,-1.0,0.0,1.0
1705080910.894615,-6.0,-3.0,-2.0,-2.0,-1.0,-2.0,-2.0,-4.0
1705080910.894615,-1.0,1.0,-1.0,-2.0,-1.0,-1.0,-2.0,0.0
1705080910.8965936,10.0,0.0,2.0,-1.0,2.0,1.0,2.0,9.0
1705080910.8965936,2.0,-1.0,3.0,4.0,0.0,-1.0,0.0,3.0
1705080910.926592,1.0,0.0,-5.0,0.0,-1.0,-2.0,1.0,3.0
1705080910.926592,4.0,-2.0,9.0,1.0,0.0,-3.0,-2.0,-5.0
1705080910.926592,-4.0,0.0,-5.0,0.0,0.0,-2.0,0.0,5.0
1705080910.926592,-10.0,-4.0,-3.0,-1.0,-3.0,-1.0,-2.0,-6.0
1705080910.926592,-5.0,2.0,4.0,-1.0,3.0,3.0,-3.0,-3.0
1705080910.926592,4.0,-2.0,-6.0,-2.0,-1.0,-2.0,-2.0,-10.0
1705080910.926592,-7.0,1.0,7.0,2.0,1.0,1.0,0.0,2.0
1705080910.926592,-4.0,-5.0,5.0,-4.0,1.0,1.0,-2.0,-6.0
1705080910.9470422,1.0,2.0,0.0,-1.0,-1.0,-2.0,1.0,-2.0
1705080910.9470422,3.0,-3.0,-8.0,0.0,-2.0,0.0,0.0,0.0
1705080910.9470422,3.0,-4.0,-7.0,0.0,2.0,-2.0,-3.0,-5.0
1705080910.9470422,3.0,4.0,-1.0,-2.0,-2.0,0.0,-1.0,0.0
1705080910.9665911,0.0,0.0,-1.0,-2.0,0.0,-1.0,1.0,-1.0
1705080910.9665911,2.0,-1.0,1.0,-4.0,-1.0,-2.0,-1.0,-2.0
1705080910.9766226,11.0,0.0,-2.0,-2.0,-2.0,1.0,2.0,-9.0
1705080910.9766226,0.0,0.0,-6.0,-4.0,0.0,2.0,-3.0,0.0
1705080910.9868505,0.0,-6.0,-2.0,2.0,-3.0,-2.0,-3.0,2.0
1705080910.9868505,-4.0,0.0,1.0,0.0,-2.0,0.0,2.0,5.0
1705080910.9868505,0.0,0.0,-6.0,-3.0,-1.0,-1.0,-1.0,0.0
1705080910.9868505,-1.0,-1.0,-1.0,-1.0,-1.0,-1.0,2.0,1.0
1705080911.0068367,13.0,0.0,-3.0,1.0,0.0,1.0,2.0,-1.0
1705080911.0068367,-2.0,-3.0,3.0,-3.0,1.0,-1.0,-2.0,3.0
1705080911.0165966,-10.0,0.0,-2.0,0.0,-3.0,-3.0,-2.0,2.0
1705080911.0165966,1.0,-1.0,-1.0,-1.0,-2.0,0.0,0.0,-4.0
1705080911.0369668,-9.0,-1.0,0.0,-2.0,-1.0,-1.0,-2.0,-1.0
1705080911.0369668,-5.0,5.0,-5.0,-4.0,-1.0,-3.0,-1.0,-3.0
1705080911.0485802,-2.0,-3.0,2.0,1.0,0.0,0.0,-1.0,-1.0
1705080911.0485802,-4.0,2.0,0.0,2.0,-2.0,-1.0,-1.0,-5.0
1705080911.057358,-6.0,1.0,-2.0,-2.0,-5.0,-1.0,-3.0,-2.0
1705080911.057358,0.0,1.0,1.0,1.0,-1.0,1.0,-2.0,-4.0
1705080911.057358,-5.0,-1.0,-3.0,-5.0,-3.0,-1.0,-4.0,-2.0
1705080911.057358,-8.0,-3.0,0.0,-2.0,-1.0,-1.0,-1.0,0.0
1705080911.084739,-11.0,-1.0,3.0,-2.0,-5.0,-1.0,0.0,-2.0
1705080911.084739,-5.0,-2.0,1.0,0.0,-1.0,2.0,1.0,4.0
1705080911.084739,-7.0,-8.0,-6.0,-1.0,-2.0,-1.0,-2.0,-1.0
1705080911.084739,-9.0,-3.0,-6.0,-2.0,-1.0,-1.0,-3.0,1.0
1705080911.0949435,-5.0,-4.0,5.0,-2.0,2.0,-3.0,-1.0,5.0
1705080911.0949435,16.0,1.0,0.0,-3.0,-1.0,-2.0,-1.0,-7.0
1705080911.0949435,0.0,3.0,-3.0,2.0,-2.0,-2.0,1.0,-6.0
1705080911.0949435,4.0,1.0,-4.0,-2.0,0.0,-1.0,-1.0,1.0
1705080911.1050246,-4.0,-5.0,0.0,0.0,0.0,-3.0,0.0,2.0
1705080911.1050246,-5.0,1.0,-4.0,-1.0,-3.0,-2.0,-2.0,-2.0
1705080911.114749,-1.0,-3.0,-3.0,-1.0,-2.0,-1.0,-1.0,5.0
1705080911.114749,4.0,0.0,-1.0,0.0,-1.0,-3.0,1.0,-12.0
1705080911.1347342,3.0,0.0,0.0,-3.0,0.0,-2.0,-1.0,-2.0
1705080911.1347342,1.0,0.0,2.0,0.0,-1.0,-2.0,-1.0,-3.0
1705080911.1347342,1.0,0.0,-5.0,-3.0,1.0,-1.0,-1.0,-2.0
1705080911.1347342,-11.0,-2.0,3.0,-1.0,-3.0,-3.0,-2.0,6.0
1705080911.1551204,6.0,3.0,-1.0,0.0,0.0,1.0,-1.0,-2.0
1705080911.1551204,-14.0,-7.0,-3.0,-1.0,-2.0,-2.0,0.0,3.0
1705080911.1551204,-2.0,-3.0,-4.0,-2.0,1.0,1.0,-2.0,6.0
1705080911.1551204,-1.0,-2.0,-2.0,-2.0,0.0,0.0,-3.0,-9.0
1705080911.165135,-1.0,-4.0,-6.0,1.0,0.0,0.0,-2.0,-1.0
1705080911.165135,2.0,1.0,-5.0,-1.0,-1.0,-3.0,-2.0,-7.0
1705080911.175169,0.0,1.0,3.0,-2.0,-4.0,-1.0,0.0,10.0
1705080911.175169,2.0,0.0,-2.0,2.0,-1.0,0.0,0.0,0.0
1705080911.195186,-5.0,-1.0,0.0,-3.0,-2.0,1.0,0.0,-2.0
1705080911.195186,-17.0,-3.0,-3.0,-1.0,-2.0,0.0,-2.0,4.0
1705080911.195186,2.0,2.0,-3.0,-2.0,0.0,-1.0,-2.0,0.0
1705080911.195186,6.0,-2.0,5.0,-2.0,-1.0,-2.0,-2.0,-6.0
1705080911.2154512,-5.0,0.0,-2.0,-2.0,-2.0,-2.0,-3.0,-5.0
1705080911.2154512,-3.0,1.0,-6.0,-3.0,-1.0,-1.0,-1.0,3.0
1705080911.2154512,0.0,3.0,10.0,-1.0,-2.0,-1.0,0.0,-5.0
1705080911.2154512,-1.0,-4.0,-1.0,4.0,0.0,-2.0,-1.0,5.0
1705080911.2255626,4.0,-3.0,-5.0,-2.0,0.0,-2.0,-1.0,0.0
1705080911.2255626,4.0,0.0,-2.0,2.0,-1.0,0.0,0.0,-2.0
1705080911.245188,-7.0,0.0,5.0,-3.0,-2.0,-1.0,-2.0,-11.0
1705080911.245188,-7.0,1.0,-5.0,-5.0,0.0,-1.0,0.0,4.0
1705080911.245188,-1.0,-4.0,1.0,5.0,1.0,-2.0,0.0,-2.0
1705080911.245188,1.0,-3.0,3.0,-1.0,-2.0,0.0,-1.0,-2.0
1705080911.2551868,1.0,-5.0,-5.0,-3.0,-1.0,-2.0,2.0,-1.0
1705080911.2551868,-5.0,0.0,-1.0,-2.0,-1.0,0.0,-1.0,0.0
1705080911.2751837,1.0,1.0,-3.0,-4.0,-2.0,0.0,-2.0,-4.0
1705080911.2751837,3.0,-2.0,-3.0,-2.0,-1.0,-2.0,0.0,-3.0
1705080911.2751837,-11.0,-4.0,-3.0,2.0,0.0,-3.0,-5.0,-5.0
1705080911.2751837,3.0,3.0,8.0,0.0,0.0,-1.0,0.0,-3.0
1705080911.2852232,-5.0,-3.0,-10.0,-1.0,-1.0,-2.0,0.0,8.0
1705080911.2852232,7.0,-2.0,4.0,0.0,0.0,-2.0,-3.0,-2.0
1705080911.3051867,1.0,2.0,5.0,2.0,-1.0,-2.0,-1.0,3.0
1705080911.3051867,3.0,-1.0,-6.0,-2.0,-1.0,-1.0,0.0,0.0
1705080911.3051867,3.0,0.0,-3.0,-4.0,-2.0,-2.0,0.0,2.0
1705080911.3051867,-5.0,-1.0,5.0,-1.0,-1.0,1.0,-2.0,-2.0
1705080911.3151867,2.0,-2.0,-3.0,-1.0,1.0,0.0,0.0,-2.0
1705080911.3151867,-2.0,1.0,-4.0,-1.0,-1.0,-2.0,-4.0,-10.0
1705080911.3351853,-9.0,-1.0,3.0,2.0,-1.0,0.0,-2.0,-1.0
1705080911.3351853,-6.0,0.0,-4.0,0.0,-1.0,-1.0,0.0,0.0
1705080911.3351853,0.0,0.0,1.0,0.0,-2.0,0.0,-2.0,-4.0
1705080911.3351853,-2.0,-2.0,-7.0,-1.0,-2.0,0.0,1.0,6.0
1705080911.3451862,8.0,2.0,6.0,1.0,0.0,-1.0,-1.0,-3.0
1705080911.3451862,13.0,-3.0,-6.0,4.0,1.0,0.0,2.0,-4.0
1705080911.3551898,3.0,-2.0,-4.0,1.0,-2.0,-3.0,-1.0,4.0
1705080911.3551898,3.0,-3.0,-1.0,3.0,-1.0,-2.0,-3.0,-3.0
1705080911.375187,6.0,1.0,1.0,1.0,-2.0,-2.0,-4.0,0.0
1705080911.375187,6.0,-4.0,-4.0,-3.0,-3.0,0.0,-1.0,0.0
1705080911.375187,6.0,-2.0,-1.0,0.0,-1.0,1.0,1.0,1.0
1705080911.375187,1.0,-2.0,1.0,-5.0,-2.0,0.0,-1.0,-9.0
1705080911.3959618,-4.0,-2.0,-1.0,-4.0,-1.0,-1.0,-2.0,-6.0
1705080911.3959618,-18.0,-2.0,-6.0,-5.0,0.0,-3.0,-4.0,2.0
1705080911.3959618,-4.0,-2.0,1.0,-5.0,-2.0,0.0,0.0,0.0
1705080911.3959618,-5.0,-2.0,7.0,-1.0,1.0,-1.0,2.0,3.0
1705080911.405966,-3.0,-2.0,-5.0,-5.0,-1.0,0.0,-1.0,-6.0
1705080911.405966,-6.0,1.0,0.0,-2.0,-1.0,-1.0,-1.0,3.0
1705080911.4159646,-13.0,-2.0,-4.0,-3.0,-1.0,-2.0,-3.0,-11.0
1705080911.4159646,3.0,-2.0,1.0,-2.0,0.0,0.0,-1.0,2.0
1705080911.4333875,-3.0,-4.0,-3.0,-2.0,-3.0,-2.0,-2.0,1.0
1705080911.4333875,5.0,2.0,5.0,1.0,-1.0,0.0,-1.0,-2.0
1705080911.435404,1.0,2.0,1.0,1.0,-1.0,-1.0,2.0,1.0
1705080911.435404,1.0,-2.0,-7.0,-1.0,-2.0,1.0,1.0,2.0
1705080911.456008,-2.0,-3.0,2.0,0.0,-1.0,-1.0,-1.0,-4.0
1705080911.456008,-4.0,0.0,3.0,2.0,1.0,0.0,-1.0,-3.0
1705080911.456008,-6.0,3.0,9.0,0.0,0.0,-2.0,-1.0,0.0
1705080911.456008,-3.0,-5.0,-6.0,-2.0,0.0,0.0,-1.0,4.0
1705080911.4760036,1.0,2.0,-5.0,-2.0,-1.0,-1.0,1.0,-3.0
1705080911.4760036,0.0,-3.0,-5.0,-8.0,-3.0,-1.0,-1.0,0.0
1705080911.4760036,-2.0,0.0,6.0,8.0,3.0,2.0,1.0,-1.0
1705080911.4760036,1.0,-2.0,-1.0,-2.0,-2.0,-1.0,-3.0,-2.0
1705080911.4861898,-5.0,4.0,19.0,3.0,1.0,1.0,1.0,0.0
1705080911.4861898,3.0,-1.0,-3.0,-3.0,-2.0,-1.0,-1.0,1.0
1705080911.4861898,7.0,-1.0,-10.0,-6.0,-4.0,-1.0,-5.0,-5.0
1705080911.4861898,-3.0,0.0,-5.0,1.0,-1.0,-1.0,-2.0,-3.0
1705080911.5160756,-1.0,-5.0,4.0,0.0,-1.0,0.0,-2.0,3.0
1705080911.5160756,-1.0,3.0,8.0,3.0,-1.0,1.0,0.0,-2.0
1705080911.5160756,-8.0,-4.0,-5.0,-4.0,0.0,0.0,-2.0,0.0
1705080911.5160756,-4.0,-1.0,-3.0,2.0,0.0,-1.0,-2.0,-1.0
1705080911.5360045,-4.0,-2.0,-6.0,-4.0,-2.0,-2.0,-2.0,-2.0
1705080911.5360045,1.0,-3.0,-3.0,2.0,0.0,-3.0,1.0,-3.0
1705080911.5360045,-2.0,-1.0,-2.0,1.0,-2.0,-2.0,1.0,2.0
1705080911.5360045,2.0,1.0,-1.0,-2.0,-2.0,-2.0,1.0,0.0
1705080911.5460374,0.0,0.0,-4.0,-2.0,-1.0,0.0,1.0,2.0
1705080911.5460374,-2.0,-1.0,3.0,-2.0,-1.0,-2.0,-1.0,-1.0
1705080911.5460374,1.0,-5.0,8.0,4.0,0.0,-2.0,-1.0,-1.0
1705080911.5460374,2.0,-3.0,-13.0,-9.0,-4.0,-4.0,-1.0,0.0
1705080911.576139,-1.0,-3.0,12.0,4.0,-1.0,0.0,0.0,-1.0
1705080911.576139,-1.0,-2.0,-3.0,-1.0,0.0,0.0,0.0,-1.0
1705080911.576139,2.0,2.0,-7.0,-3.0,-3.0,0.0,0.0,1.0
1705080911.576139,3.0,2.0,-12.0,-4.0,-2.0,0.0,-1.0,-1.0
1705080911.5860045,-1.0,1.0,2.0,2.0,-1.0,0.0,-1.0,0.0
1705080911.5860045,1.0,0.0,-4.0,0.0,-1.0,-2.0,-1.0,-2.0
1705080911.5963376,-3.0,-7.0,-10.0,-5.0,0.0,-2.0,-2.0,0.0
1705080911.5963376,-6.0,-3.0,11.0,2.0,1.0,-2.0,-1.0,0.0
1705080911.6063886,-13.0,4.0,-11.0,-5.0,0.0,-1.0,-3.0,-6.0
1705080911.6063886,12.0,-1.0,-2.0,2.0,1.0,0.0,-1.0,0.0
1705080911.6063886,3.0,6.0,-20.0,-9.0,-5.0,0.0,-2.0,1.0
1705080911.6063886,0.0,-2.0,33.0,7.0,0.0,1.0,-1.0,-3.0
1705080911.6360466,-3.0,-3.0,-14.0,-2.0,-2.0,-1.0,-2.0,0.0
1705080911.6360466,-5.0,-6.0,-2.0,-1.0,-2.0,0.0,-1.0,-2.0
1705080911.6360466,2.0,11.0,4.0,0.0,0.0,-2.0,-1.0,6.0
1705080911.6360466,4.0,8.0,-6.0,-3.0,-1.0,3.0,-2.0,0.0
1705080911.646008,-1.0,-20.0,-10.0,-6.0,-4.0,-2.0,0.0,-1.0
1705080911.646008,1.0,22.0,4.0,0.0,-1.0,-2.0,-2.0,1.0
1705080911.6560047,-4.0,-16.0,0.0,-1.0,1.0,0.0,2.0,1.0
1705080911.6560047,4.0,3.0,-4.0,1.0,0.0,-2.0,0.0,2.0
1705080911.6663527,2.0,3.0,7.0,2.0,1.0,0.0,-2.0,-3.0
1705080911.6663527,1.0,2.0,-15.0,-4.0,-2.0,-2.0,1.0,2.0
1705080911.6663527,-2.0,-10.0,16.0,-3.0,-1.0,-3.0,-1.0,-3.0
1705080911.6663527,-2.0,13.0,-2.0,-2.0,-1.0,-1.0,-2.0,-3.0
1705080911.696003,8.0,-3.0,0.0,-4.0,3.0,0.0,2.0,-3.0
1705080911.696003,-6.0,-18.0,-3.0,2.0,1.0,1.0,-2.0,-1.0
1705080911.696003,-2.0,17.0,-1.0,0.0,1.0,3.0,0.0,-6.0
1705080911.696003,-9.0,-27.0,3.0,0.0,-1.0,1.0,2.0,-3.0
1705080911.726412,6.0,13.0,-1.0,-1.0,-3.0,1.0,1.0,6.0
1705080911.726412,-7.0,-19.0,-10.0,-4.0,-4.0,-2.0,1.0,-1.0
1705080911.7360086,2.0,10.0,-3.0,-2.0,-4.0,-1.0,-2.0,0.0
1705080911.7360086,-7.0,-12.0,-20.0,-4.0,-4.0,-5.0,-3.0,-4.0
1705080911.7360086,0.0,17.0,12.0,5.0,0.0,-2.0,-2.0,-1.0
1705080911.7360086,0.0,-1.0,8.0,0.0,0.0,-1.0,-1.0,-2.0
1705080911.7360086,-7.0,-21.0,-17.0,-1.0,-3.0,-4.0,-2.0,-1.0
1705080911.7360086,4.0,35.0,0.0,0.0,-1.0,-2.0,0.0,2.0
1705080911.7560034,2.0,2.0,3.0,2.0,0.0,1.0,0.0,1.0
1705080911.7560034,-5.0,-40.0,-5.0,-6.0,-2.0,0.0,-3.0,-10.0
1705080911.7560034,-6.0,3.0,-12.0,-6.0,-4.0,-4.0,-1.0,-3.0
1705080911.7560034,7.0,-1.0,-6.0,-7.0,-1.0,-2.0,-3.0,2.0
1705080911.7762887,6.0,5.0,-9.0,-3.0,0.0,0.0,1.0,4.0
1705080911.7762887,-5.0,45.0,54.0,26.0,5.0,3.0,1.0,1.0
1705080911.7762887,-2.0,-8.0,9.0,6.0,2.0,2.0,3.0,3.0
1705080911.7762887,0.0,-16.0,3.0,-6.0,-3.0,-3.0,-4.0,-7.0
1705080911.786092,-11.0,-26.0,-23.0,-8.0,-1.0,-4.0,-3.0,-1.0
1705080911.786092,6.0,23.0,-15.0,-4.0,0.0,-2.0,-1.0,2.0
1705080911.786092,3.0,9.0,14.0,6.0,0.0,1.0,0.0,1.0
1705080911.786092,0.0,-1.0,-13.0,-1.0,2.0,0.0,0.0,4.0
1705080911.816003,1.0,19.0,4.0,-4.0,-5.0,-1.0,-1.0,-2.0
1705080911.816003,4.0,10.0,6.0,4.0,5.0,2.0,0.0,1.0
1705080911.816003,-4.0,-30.0,-15.0,-4.0,-6.0,7.0,-1.0,-4.0
1705080911.816003,-2.0,13.0,8.0,0.0,0.0,-2.0,-2.0,-12.0
1705080911.8263366,-7.0,-23.0,-34.0,-10.0,-6.0,-3.0,-3.0,-4.0
1705080911.8263366,3.0,18.0,21.0,11.0,5.0,1.0,3.0,2.0
1705080911.8363662,14.0,35.0,-2.0,-1.0,3.0,-1.0,1.0,3.0
1705080911.8363662,-10.0,-63.0,-13.0,-4.0,-5.0,0.0,-3.0,0.0
1705080911.8560047,-13.0,22.0,11.0,5.0,2.0,-1.0,-3.0,-17.0
1705080911.8560047,-5.0,-38.0,-9.0,-6.0,-1.0,-1.0,-1.0,-1.0
1705080911.8560047,1.0,25.0,11.0,5.0,1.0,-2.0,-4.0,-5.0
1705080911.8560047,3.0,-6.0,-2.0,-3.0,-3.0,-3.0,1.0,5.0
1705080911.8762653,-2.0,-20.0,2.0,-8.0,-6.0,-4.0,-3.0,-1.0
1705080911.8762653,2.0,13.0,-19.0,-9.0,-4.0,-2.0,-2.0,2.0
1705080911.8762653,-9.0,2.0,-5.0,5.0,5.0,0.0,0.0,-4.0
1705080911.8762653,5.0,28.0,-7.0,3.0,-2.0,0.0,1.0,-4.0
1705080911.8964522,-3.0,0.0,2.0,12.0,4.0,1.0,1.0,-2.0
1705080911.8964522,-8.0,-37.0,-11.0,-6.0,-2.0,-1.0,-4.0,-2.0
1705080911.8964522,-1.0,-21.0,3.0,-6.0,-5.0,-4.0,-3.0,1.0
1705080911.8964522,-1.0,43.0,21.0,-7.0,-4.0,-3.0,-2.0,0.0
1705080911.9160805,4.0,-13.0,20.0,9.0,6.0,3.0,0.0,2.0
1705080911.9160805,0.0,-2.0,-4.0,2.0,1.0,-1.0,-2.0,-1.0
1705080911.9160805,0.0,1.0,-2.0,1.0,1.0,-1.0,-1.0,-4.0
1705080911.9160805,-2.0,-1.0,-4.0,-5.0,-2.0,-1.0,-1.0,2.0
1705080911.9369886,1.0,2.0,3.0,-5.0,-6.0,-5.0,0.0,0.0
1705080911.9369886,-3.0,3.0,-4.0,-12.0,-7.0,-4.0,-6.0,-5.0
1705080911.9379873,-1.0,-16.0,2.0,-5.0,-3.0,-3.0,1.0,1.0
1705080911.9379873,0.0,14.0,12.0,10.0,4.0,3.0,-1.0,-4.0
1705080911.9560254,-1.0,-6.0,0.0,4.0,2.0,2.0,-1.0,4.0
1705080911.9560254,-1.0,3.0,-6.0,-3.0,0.0,-3.0,2.0,0.0
1705080911.9560254,1.0,0.0,-10.0,-10.0,-4.0,-4.0,-6.0,-4.0
1705080911.9560254,-4.0,-14.0,0.0,-1.0,-3.0,-4.0,-11.0,-1.0
1705080911.9858334,10.0,2.0,-1.0,-1.0,0.0,1.0,5.0,4.0
1705080911.9858334,-2.0,5.0,0.0,-7.0,-3.0,-4.0,-5.0,-3.0
1705080911.9858334,0.0,-2.0,1.0,-1.0,-1.0,0.0,2.0,-1.0
1705080911.9858334,-2.0,-5.0,4.0,7.0,5.0,4.0,7.0,4.0
1705080911.9959514,-2.0,5.0,-3.0,-4.0,-4.0,-3.0,-4.0,-4.0
1705080911.9959514,0.0,0.0,-5.0,-4.0,-5.0,1.0,2.0,-2.0
1705080911.9959514,-1.0,0.0,-3.0,-1.0,0.0,-2.0,-4.0,-2.0
1705080911.9959514,-2.0,-9.0,0.0,5.0,4.0,2.0,-1.0,0.0
1705080912.016255,-11.0,0.0,-7.0,-4.0,-2.0,-1.0,-2.0,2.0
1705080912.016255,2.0,4.0,0.0,-2.0,-2.0,0.0,3.0,2.0
1705080912.016255,-3.0,-5.0,1.0,-1.0,1.0,-3.0,0.0,0.0
1705080912.016255,-2.0,1.0,-1.0,-1.0,-3.0,0.0,1.0,-1.0
1705080912.0262325,-2.0,6.0,-2.0,-1.0,1.0,-1.0,-2.0,0.0
1705080912.0262325,0.0,-2.0,5.0,1.0,-2.0,-1.0,-2.0,0.0
1705080912.0361884,1.0,-4.0,-9.0,-1.0,-1.0,-1.0,-2.0,1.0
1705080912.0361884,-3.0,-4.0,16.0,-1.0,-2.0,-2.0,1.0,0.0
1705080912.05597,1.0,-3.0,-7.0,-1.0,-1.0,-2.0,1.0,-3.0
1705080912.05597,-5.0,-5.0,-4.0,-3.0,-3.0,-4.0,-2.0,-2.0
1705080912.05597,12.0,7.0,0.0,0.0,-2.0,-1.0,2.0,1.0
1705080912.05597,-14.0,-10.0,-6.0,1.0,0.0,-1.0,-1.0,-4.0
1705080912.0858796,-2.0,-3.0,-1.0,0.0,-2.0,-1.0,-2.0,3.0
1705080912.0858796,11.0,1.0,0.0,0.0,0.0,-1.0,-2.0,-13.0
1705080912.0858796,-8.0,1.0,1.0,1.0,1.0,2.0,0.0,8.0
1705080912.0858796,2.0,-3.0,-5.0,-4.0,-3.0,1.0,-3.0,-1.0
1705080912.0858796,5.0,4.0,2.0,-1.0,-1.0,2.0,-1.0,1.0
1705080912.0858796,-10.0,-5.0,-8.0,-5.0,-4.0,-3.0,-8.0,-4.0
1705080912.0962055,-3.0,-8.0,3.0,3.0,0.0,-1.0,-2.0,1.0
1705080912.0962055,10.0,16.0,0.0,0.0,-1.0,1.0,3.0,-5.0
1705080912.1161435,-10.0,-13.0,-7.0,-3.0,-2.0,-2.0,-2.0,-3.0
1705080912.1161435,-2.0,-1.0,-1.0,0.0,0.0,1.0,3.0,4.0
1705080912.1161435,2.0,-1.0,1.0,1.0,1.0,0.0,-1.0,-4.0
1705080912.1161435,0.0,-7.0,-1.0,-1.0,-1.0,-1.0,-1.0,4.0
1705080912.145847,2.0,4.0,-2.0,-2.0,0.0,-1.0,0.0,0.0
1705080912.145847,-2.0,-1.0,-1.0,2.0,2.0,2.0,1.0,2.0
1705080912.145847,-2.0,4.0,3.0,2.0,-1.0,0.0,-1.0,-2.0
1705080912.145847,-4.0,-30.0,-6.0,1.0,-1.0,2.0,0.0,-4.0
1705080912.145847,-1.0,37.0,-5.0,-3.0,-5.0,-5.0,-6.0,-1.0
1705080912.145847,-4.0,-9.0,1.0,0.0,1.0,1.0,4.0,2.0
1705080912.1559594,1.0,1.0,2.0,-1.0,-1.0,0.0,2.0,0.0
1705080912.1559594,10.0,1.0,3.0,-1.0,0.0,-3.0,0.0,-9.0
1705080912.1762824,5.0,-7.0,6.0,0.0,0.0,1.0,1.0,0.0
1705080912.1762824,0.0,11.0,-8.0,-7.0,-3.0,-3.0,-3.0,1.0
1705080912.1762824,0.0,-1.0,-16.0,-3.0,0.0,1.0,1.0,2.0
1705080912.1762824,-5.0,-8.0,7.0,-1.0,-1.0,-3.0,1.0,18.0
1705080912.195849,1.0,-9.0,4.0,5.0,4.0,-3.0,-7.0,-32.0
1705080912.195849,7.0,3.0,9.0,4.0,3.0,3.0,6.0,12.0
1705080912.195849,-6.0,-4.0,-6.0,-3.0,-4.0,-3.0,2.0,-7.0
1705080912.195849,-2.0,-6.0,-12.0,-10.0,-1.0,-5.0,-3.0,6.0
1705080912.2059557,-7.0,4.0,-5.0,-4.0,-3.0,2.0,-3.0,-12.0
1705080912.2059557,-13.0,-14.0,3.0,1.0,-1.0,1.0,0.0,-2.0
1705080912.2162185,-11.0,-1.0,4.0,4.0,-1.0,-2.0,-1.0,2.0
1705080912.2162185,-4.0,-6.0,-5.0,2.0,3.0,1.0,2.0,1.0
1705080912.236144,6.0,6.0,0.0,-5.0,4.0,3.0,7.0,18.0
1705080912.236144,-9.0,-10.0,-8.0,-5.0,-8.0,-6.0,-6.0,-1.0
1705080912.236144,-5.0,-9.0,-32.0,-15.0,-7.0,-6.0,-11.0,-31.0
1705080912.236144,-1.0,4.0,35.0,14.0,0.0,-2.0,2.0,-4.0
1705080912.2559521,-21.0,-10.0,-4.0,-1.0,1.0,-1.0,-1.0,5.0
1705080912.2559521,7.0,16.0,11.0,9.0,3.0,4.0,5.0,7.0
1705080912.2559521,-1.0,-2.0,2.0,7.0,0.0,1.0,2.0,-3.0
1705080912.2559521,-14.0,2.0,-15.0,-10.0,-6.0,-5.0,-11.0,-41.0
1705080912.276099,-4.0,-4.0,0.0,-5.0,-5.0,-2.0,3.0,9.0
1705080912.276099,1.0,-1.0,-8.0,-3.0,0.0,-2.0,-6.0,-14.0
1705080912.276099,-6.0,1.0,18.0,10.0,4.0,3.0,2.0,-3.0
1705080912.276099,21.0,7.0,-6.0,-2.0,-2.0,-3.0,1.0,8.0
1705080912.296205,-4.0,-14.0,-1.0,-5.0,-5.0,0.0,-1.0,9.0
1705080912.296205,-10.0,1.0,-3.0,-1.0,1.0,2.0,-3.0,-9.0
1705080912.296205,10.0,12.0,14.0,4.0,3.0,-1.0,-2.0,5.0
1705080912.296205,-2.0,-6.0,-10.0,-7.0,6.0,6.0,2.0,10.0
1705080912.3261795,1.0,2.0,-6.0,2.0,-9.0,-7.0,-4.0,-2.0
1705080912.3261795,6.0,12.0,-8.0,1.0,1.0,0.0,0.0,0.0
1705080912.3261795,-2.0,-3.0,17.0,1.0,0.0,-2.0,3.0,13.0
1705080912.3261795,-3.0,1.0,-9.0,2.0,-1.0,2.0,0.0,14.0
1705080912.3261795,-2.0,-11.0,20.0,3.0,4.0,3.0,-2.0,-24.0
1705080912.3261795,-3.0,-5.0,-14.0,-5.0,0.0,-1.0,-3.0,-9.0
1705080912.3364613,-1.0,1.0,-11.0,-4.0,-4.0,-6.0,-4.0,10.0
1705080912.3364613,10.0,-1.0,-4.0,-2.0,3.0,3.0,4.0,14.0
1705080912.3565683,11.0,-6.0,1.0,-4.0,-5.0,-2.0,-3.0,-11.0
1705080912.3565683,1.0,-2.0,7.0,1.0,-1.0,-4.0,-3.0,11.0
1705080912.3565683,-2.0,-13.0,-8.0,-5.0,-4.0,-2.0,-1.0,4.0
1705080912.3565683,-4.0,17.0,0.0,-3.0,-4.0,-3.0,-1.0,-5.0
1705080912.3769448,-10.0,-20.0,-4.0,2.0,0.0,-1.0,2.0,10.0
1705080912.3769448,3.0,9.0,-3.0,-6.0,-2.0,-9.0,-4.0,-9.0
1705080912.3769448,18.0,-1.0,-2.0,-1.0,-1.0,0.0,-2.0,-12.0
1705080912.3769448,-12.0,-12.0,-4.0,-1.0,2.0,1.0,-3.0,-10.0
1705080912.3869877,-7.0,22.0,-7.0,-3.0,0.0,-2.0,0.0,6.0
1705080912.3869877,-3.0,-10.0,0.0,4.0,0.0,0.0,0.0,-1.0
1705080912.4069836,21.0,5.0,26.0,6.0,5.0,3.0,7.0,16.0
1705080912.4069836,-7.0,2.0,-14.0,-2.0,-6.0,-4.0,-4.0,-9.0
1705080912.4165685,11.0,-8.0,-4.0,1.0,1.0,1.0,0.0,0.0
1705080912.4165685,-11.0,-5.0,-8.0,-6.0,-5.0,-2.0,-6.0,-6.0
1705080912.4165685,-13.0,-2.0,-5.0,-3.0,-2.0,-3.0,-6.0,-16.0
1705080912.4165685,0.0,-1.0,6.0,3.0,3.0,3.0,0.0,6.0
1705080912.4365678,-5.0,-2.0,5.0,4.0,1.0,2.0,1.0,-10.0
1705080912.4365678,5.0,26.0,-2.0,-4.0,-6.0,-9.0,-1.0,-7.0
1705080912.4365678,-8.0,-7.0,-4.0,-4.0,2.0,-2.0,-3.0,2.0
1705080912.4465663,-9.0,-10.0,-2.0,-2.0,-2.0,1.0,0.0,1.0
1705080912.4465663,11.0,0.0,-2.0,-1.0,10.0,0.0,1.0,19.0
1705080912.4465663,-6.0,-6.0,8.0,1.0,-11.0,-6.0,-5.0,-15.0
1705080912.460461,-10.0,-19.0,-10.0,-2.0,-5.0,2.0,2.0,6.0
1705080912.4614718,5.0,12.0,0.0,-2.0,-7.0,-6.0,-2.0,6.0
1705080912.4757893,5.0,15.0,1.0,1.0,7.0,5.0,7.0,-1.0
1705080912.4757893,6.0,-7.0,0.0,0.0,11.0,9.0,3.0,17.0
1705080912.477838,-4.0,3.0,7.0,-1.0,0.0,-6.0,-9.0,-18.0
1705080912.477838,-1.0,-9.0,4.0,2.0,1.0,0.0,1.0,-4.0
1705080912.4985135,1.0,-1.0,-6.0,-1.0,-5.0,-4.0,-7.0,6.0
1705080912.4985135,-7.0,-14.0,3.0,-3.0,-2.0,-3.0,4.0,13.0
1705080912.4985135,-12.0,4.0,-8.0,0.0,-2.0,0.0,-4.0,4.0
1705080912.4985135,-4.0,-5.0,-1.0,0.0,0.0,0.0,-2.0,-15.0
1705080912.5085506,-3.0,7.0,1.0,-2.0,-5.0,-3.0,-3.0,-12.0
1705080912.5085506,-3.0,-6.0,-2.0,-3.0,-3.0,0.0,-1.0,-2.0
1705080912.518535,-5.0,0.0,3.0,1.0,-1.0,-2.0,0.0,9.0
1705080912.518535,7.0,17.0,6.0,1.0,-2.0,-4.0,0.0,-1.0
1705080912.5382524,-6.0,-15.0,-10.0,-6.0,-4.0,-3.0,-1.0,2.0
1705080912.5382524,-9.0,-6.0,-5.0,0.0,0.0,0.0,-2.0,6.0
1705080912.5382524,9.0,-2.0,3.0,2.0,3.0,5.0,-1.0,-8.0
1705080912.5382524,1.0,8.0,-8.0,-4.0,-5.0,-5.0,-2.0,-4.0
1705080912.5585368,11.0,5.0,0.0,-1.0,-3.0,-3.0,-3.0,-17.0
1705080912.5585368,10.0,-5.0,-1.0,-5.0,0.0,1.0,1.0,8.0
1705080912.5585368,-4.0,-1.0,-1.0,1.0,-1.0,-1.0,2.0,-4.0
1705080912.5585368,-5.0,-1.0,-2.0,0.0,1.0,1.0,1.0,4.0
1705080912.5685103,-7.0,-7.0,-2.0,-3.0,-3.0,0.0,-7.0,-9.0
1705080912.5685103,-5.0,1.0,-5.0,-3.0,-3.0,3.0,10.0,-14.0
1705080912.5784907,-1.0,1.0,5.0,-3.0,-2.0,-5.0,-2.0,10.0
1705080912.5784907,-4.0,-3.0,4.0,2.0,-2.0,0.0,-5.0,4.0
1705080912.598256,-21.0,-3.0,-1.0,0.0,-6.0,-5.0,-1.0,-2.0
1705080912.598256,8.0,9.0,2.0,2.0,7.0,3.0,1.0,4.0
1705080912.598256,-5.0,-2.0,-5.0,-4.0,-4.0,-5.0,-8.0,-6.0
1705080912.598256,-3.0,-9.0,-4.0,-4.0,-2.0,-3.0,0.0,5.0
1705080912.6184187,6.0,0.0,-1.0,0.0,0.0,1.0,3.0,12.0
1705080912.6184187,7.0,-4.0,-2.0,4.0,-1.0,-2.0,1.0,-8.0
1705080912.6184187,6.0,3.0,-3.0,-4.0,-3.0,3.0,1.0,-10.0
1705080912.6184187,3.0,4.0,3.0,1.0,3.0,-5.0,-4.0,-10.0
1705080912.6285684,0.0,-4.0,-10.0,-2.0,-4.0,0.0,1.0,4.0
1705080912.6285684,-6.0,-2.0,9.0,-1.0,-1.0,-1.0,-6.0,1.0
1705080912.6385858,-3.0,0.0,-4.0,0.0,1.0,-1.0,1.0,2.0
1705080912.6385858,-4.0,13.0,-7.0,-1.0,-3.0,0.0,1.0,1.0
1705080912.6482534,1.0,-6.0,12.0,2.0,0.0,0.0,0.0,-4.0
1705080912.6482534,-8.0,-6.0,-5.0,0.0,4.0,1.0,-2.0,-1.0
1705080912.6482534,12.0,5.0,-3.0,-1.0,2.0,-3.0,1.0,-13.0
1705080912.6482534,-16.0,-15.0,1.0,0.0,-1.0,5.0,6.0,-4.0
1705080912.6786458,-7.0,-4.0,-11.0,-7.0,-8.0,-12.0,-23.0,3.0
1705080912.6786458,6.0,9.0,11.0,1.0,-2.0,0.0,-3.0,-4.0
1705080912.6786458,1.0,3.0,1.0,1.0,4.0,-1.0,3.0,5.0
1705080912.6786458,5.0,3.0,-1.0,2.0,0.0,1.0,1.0,0.0
1705080912.688563,6.0,-3.0,2.0,1.0,0.0,-4.0,0.0,0.0
1705080912.688563,-4.0,-6.0,-18.0,-9.0,-4.0,1.0,-2.0,6.0
1705080912.69855,-1.0,3.0,4.0,5.0,-1.0,2.0,0.0,-1.0
1705080912.69855,2.0,-5.0,2.0,3.0,3.0,2.0,1.0,-1.0
1705080912.7082539,-15.0,-4.0,-2.0,-2.0,2.0,4.0,3.0,-14.0
1705080912.7082539,2.0,2.0,-3.0,-4.0,-8.0,-14.0,-17.0,-12.0
1705080912.7082539,-2.0,-6.0,-8.0,-4.0,-1.0,1.0,4.0,2.0
1705080912.7082539,-10.0,-9.0,-3.0,-2.0,-3.0,-1.0,-14.0,-8.0
1705080912.7385411,3.0,8.0,6.0,3.0,2.0,-2.0,7.0,-1.0
1705080912.7385411,-9.0,-3.0,5.0,2.0,-4.0,-1.0,2.0,4.0
1705080912.7385411,0.0,0.0,-5.0,-4.0,-1.0,0.0,-2.0,-8.0
1705080912.7385411,-7.0,-6.0,0.0,-2.0,-4.0,-4.0,-1.0,-12.0
1705080912.748326,0.0,-4.0,-3.0,-2.0,3.0,-1.0,4.0,2.0
1705080912.748326,-6.0,-5.0,-2.0,4.0,-1.0,2.0,1.0,-3.0
1705080912.7584884,6.0,3.0,3.0,0.0,-8.0,-3.0,-1.0,9.0
1705080912.7584884,11.0,6.0,-2.0,-5.0,3.0,2.0,2.0,10.0
1705080912.7782538,1.0,0.0,-1.0,0.0,5.0,3.0,2.0,-1.0
1705080912.7782538,3.0,-3.0,-8.0,-1.0,4.0,-3.0,0.0,0.0
1705080912.7782538,-7.0,-9.0,-8.0,-7.0,-2.0,0.0,-7.0,-23.0
1705080912.7782538,7.0,2.0,6.0,5.0,3.0,1.0,1.0,0.0
1705080912.7986307,0.0,5.0,-2.0,-4.0,-5.0,-2.0,-1.0,2.0
1705080912.7986307,0.0,3.0,8.0,0.0,-2.0,-2.0,1.0,-2.0
1705080912.7986307,-1.0,0.0,-10.0,-3.0,0.0,0.0,1.0,9.0
1705080912.7986307,-7.0,-3.0,0.0,-3.0,-3.0,-1.0,-3.0,-2.0
1705080912.8182533,13.0,0.0,1.0,1.0,1.0,3.0,4.0,-5.0
1705080912.8182533,9.0,4.0,-1.0,0.0,-5.0,-6.0,-12.0,1.0
1705080912.8182533,-3.0,-4.0,-1.0,-3.0,0.0,1.0,4.0,12.0
1705080912.8182533,1.0,-2.0,-1.0,-2.0,-3.0,-3.0,-1.0,9.0
1705080912.828455,-6.0,1.0,2.0,1.0,0.0,-1.0,4.0,-2.0
1705080912.828455,2.0,-3.0,-4.0,-1.0,0.0,0.0,2.0,-11.0
1705080912.8382576,5.0,-1.0,4.0,0.0,3.0,1.0,-6.0,-9.0
1705080912.8382576,-5.0,0.0,1.0,1.0,-5.0,-1.0,0.0,5.0
1705080912.8585224,1.0,-3.0,-5.0,-1.0,2.0,-2.0,1.0,5.0
1705080912.8585224,1.0,3.0,5.0,-1.0,-2.0,4.0,7.0,2.0
1705080912.8585224,-9.0,-8.0,-8.0,0.0,-1.0,-2.0,-1.0,5.0
1705080912.8585224,4.0,11.0,-7.0,-5.0,-1.0,0.0,-3.0,-17.0
1705080912.8882542,10.0,6.0,2.0,1.0,0.0,3.0,1.0,6.0
1705080912.8882542,-25.0,-21.0,-7.0,-1.0,0.0,-3.0,-5.0,-2.0
1705080912.8882542,8.0,2.0,3.0,0.0,1.0,0.0,-1.0,-2.0
1705080912.8882542,3.0,-4.0,-11.0,-6.0,-2.0,-1.0,0.0,-3.0
1705080912.8882542,2.0,5.0,1.0,0.0,-2.0,-4.0,-6.0,-2.0
1705080912.8882542,-6.0,-3.0,1.0,-1.0,-3.0,-2.0,-3.0,-2.0
1705080912.8882542,-3.0,2.0,2.0,0.0,-1.0,1.0,1.0,9.0
1705080912.8882542,-1.0,-4.0,2.0,-5.0,0.0,-1.0,3.0,0.0
1705080912.9182544,-7.0,-5.0,-12.0,-5.0,-4.0,-6.0,-7.0,6.0
1705080912.9182544,14.0,8.0,14.0,5.0,3.0,5.0,3.0,8.0
1705080912.9182544,-13.0,-4.0,-2.0,0.0,0.0,-4.0,-3.0,-6.0
1705080912.9182544,2.0,-3.0,-5.0,0.0,0.0,5.0,1.0,0.0
1705080912.9385233,-6.0,0.0,-1.0,-4.0,-1.0,1.0,-12.0,-14.0
1705080912.9385233,-2.0,-1.0,-11.0,-5.0,-4.0,-5.0,0.0,-4.0
1705080912.9385233,-7.0,7.0,16.0,3.0,-5.0,-4.0,0.0,-3.0
1705080912.9385233,7.0,1.0,-2.0,0.0,7.0,-2.0,-2.0,6.0
1705080912.9484706,-2.0,-5.0,3.0,-1.0,3.0,2.0,5.0,2.0
1705080912.9484706,0.0,1.0,-4.0,2.0,-3.0,4.0,-2.0,9.0
1705080912.9584312,-3.0,-1.0,-4.0,-2.0,-2.0,0.0,1.0,-18.0
1705080912.9584312,-8.0,-6.0,6.0,-2.0,-3.0,-7.0,-9.0,-1.0
1705080912.9978635,-3.0,1.0,1.0,2.0,0.0,0.0,2.0,4.0
1705080912.9978635,5.0,2.0,-2.0,0.0,3.0,-2.0,-1.0,5.0
1705080912.9978635,-3.0,-4.0,-6.0,-4.0,-2.0,1.0,-2.0,3.0
1705080912.9978635,0.0,0.0,-2.0,3.0,-3.0,-2.0,1.0,11.0
1705080913.0008996,-15.0,-6.0,-7.0,-5.0,2.0,-1.0,-6.0,-11.0
1705080913.0008996,0.0,1.0,-1.0,-5.0,-1.0,-1.0,-2.0,-17.0
1705080913.001864,-2.0,-7.0,-7.0,-2.0,0.0,0.0,0.0,4.0
1705080913.0028656,-7.0,-3.0,1.0,1.0,-1.0,-3.0,-1.0,-9.0
1705080913.01136,-19.0,-5.0,-1.0,-3.0,-3.0,-5.0,2.0,14.0
1705080913.01136,6.0,2.0,-3.0,-1.0,-8.0,-5.0,9.0,0.0
1705080913.021743,-6.0,-7.0,-4.0,0.0,13.0,2.0,-15.0,0.0
1705080913.021743,1.0,3.0,0.0,-1.0,-9.0,-5.0,7.0,0.0
1705080913.0413606,0.0,-1.0,0.0,0.0,-3.0,5.0,-5.0,2.0
1705080913.0413606,-4.0,-5.0,0.0,-2.0,2.0,-2.0,0.0,-2.0
1705080913.0413606,2.0,0.0,-2.0,-4.0,-9.0,-3.0,4.0,3.0
1705080913.0413606,-2.0,-5.0,3.0,2.0,2.0,-1.0,6.0,-1.0
1705080913.0613666,1.0,-2.0,-6.0,-1.0,-3.0,0.0,3.0,-2.0
1705080913.0613666,-6.0,-1.0,-2.0,-1.0,2.0,-1.0,-1.0,4.0
1705080913.0613666,16.0,3.0,-1.0,-1.0,-2.0,-1.0,-5.0,-13.0
1705080913.0613666,-4.0,0.0,1.0,2.0,-1.0,-2.0,-2.0,6.0
1705080913.07166,8.0,5.0,0.0,-1.0,-6.0,4.0,3.0,-14.0
1705080913.07166,-2.0,0.0,1.0,0.0,2.0,-4.0,-6.0,-5.0
1705080913.0816207,0.0,1.0,-4.0,-1.0,-2.0,-2.0,2.0,7.0
1705080913.0816207,-20.0,-13.0,1.0,-2.0,-1.0,-3.0,-4.0,-15.0
1705080913.111363,10.0,-2.0,2.0,0.0,0.0,3.0,-2.0,-1.0
1705080913.111363,-6.0,1.0,-1.0,-2.0,3.0,4.0,3.0,1.0
1705080913.111363,-10.0,2.0,-1.0,0.0,-3.0,-3.0,1.0,-2.0
1705080913.111363,11.0,2.0,-3.0,-1.0,2.0,-3.0,-4.0,3.0
1705080913.1213958,2.0,10.0,6.0,0.0,1.0,-5.0,0.0,3.0
1705080913.1213958,-5.0,-7.0,-3.0,-1.0,0.0,0.0,-4.0,-4.0
1705080913.1213958,-2.0,-2.0,-5.0,-2.0,-4.0,2.0,1.0,5.0
1705080913.1213958,7.0,1.0,-4.0,-5.0,-2.0,2.0,-6.0,-5.0
1705080913.13169,-7.0,-7.0,0.0,0.0,1.0,-4.0,2.0,-1.0
1705080913.13169,0.0,2.0,2.0,-4.0,-5.0,-2.0,-2.0,4.0
1705080913.141373,3.0,3.0,-4.0,1.0,-1.0,-1.0,2.0,-9.0
1705080913.141373,7.0,0.0,9.0,2.0,0.0,0.0,-2.0,2.0
1705080913.151396,2.0,-2.0,-3.0,1.0,0.0,0.0,1.0,-6.0
1705080913.151396,-1.0,1.0,-1.0,1.0,1.0,0.0,-12.0,-4.0
1705080913.151396,-1.0,-1.0,4.0,-1.0,-1.0,0.0,4.0,-12.0
1705080913.151396,4.0,-2.0,-6.0,-6.0,-3.0,0.0,-2.0,11.0
1705080913.181361,-7.0,1.0,3.0,-3.0,-7.0,-9.0,-4.0,-9.0
1705080913.181361,1.0,-4.0,-1.0,3.0,13.0,-2.0,3.0,-14.0
1705080913.181361,-4.0,-1.0,3.0,-1.0,-12.0,-5.0,-3.0,11.0
1705080913.181361,-16.0,-3.0,-6.0,-1.0,0.0,-1.0,-5.0,-10.0
1705080913.1917195,8.0,-3.0,-4.0,-3.0,-3.0,-3.0,0.0,-3.0
1705080913.1917195,-8.0,-5.0,-2.0,-2.0,-6.0,-4.0,-6.0,-4.0
1705080913.2013643,-12.0,-1.0,0.0,-1.0,5.0,0.0,-2.0,-12.0
1705080913.2013643,30.0,10.0,-3.0,-3.0,-1.0,-5.0,2.0,-6.0
1705080913.211395,-2.0,-6.0,-2.0,0.0,1.0,4.0,6.0,16.0
1705080913.211395,-1.0,-1.0,0.0,-3.0,-2.0,-5.0,-8.0,-4.0
1705080913.211395,-6.0,-8.0,2.0,0.0,-2.0,-4.0,0.0,0.0
1705080913.211395,-10.0,-2.0,0.0,-1.0,-2.0,2.0,4.0,7.0
1705080913.2413614,2.0,4.0,0.0,-1.0,2.0,-1.0,-11.0,-12.0
1705080913.2413614,9.0,-1.0,-4.0,1.0,-7.0,0.0,5.0,7.0
1705080913.2413614,-10.0,0.0,6.0,1.0,3.0,-1.0,2.0,4.0
1705080913.2413614,0.0,-1.0,-6.0,-3.0,0.0,-2.0,-3.0,-7.0
1705080913.2517116,4.0,9.0,21.0,4.0,0.0,-2.0,2.0,-7.0
1705080913.2517116,0.0,-8.0,-12.0,-3.0,-2.0,0.0,6.0,1.0
1705080913.261361,-2.0,-5.0,-6.0,-5.0,-3.0,-2.0,-2.0,3.0
1705080913.261361,-5.0,-14.0,-1.0,1.0,1.0,4.0,-1.0,-3.0
1705080913.2713594,1.0,20.0,-4.0,0.0,-3.0,-1.0,-2.0,4.0
1705080913.2713594,-2.0,0.0,5.0,-1.0,0.0,-3.0,6.0,5.0
1705080913.2713594,6.0,-4.0,2.0,-1.0,-6.0,-3.0,-9.0,1.0
1705080913.2813706,3.0,3.0,-2.0,-5.0,-1.0,-1.0,5.0,0.0
1705080913.321362,12.0,-10.0,-13.0,-3.0,-2.0,-8.0,-13.0,-5.0
1705080913.321362,-1.0,-6.0,11.0,3.0,-1.0,5.0,4.0,0.0
1705080913.321362,11.0,16.0,-7.0,1.0,1.0,-1.0,1.0,-4.0
1705080913.321362,-10.0,-4.0,2.0,2.0,1.0,3.0,5.0,-2.0
1705080913.321362,10.0,-3.0,-3.0,-1.0,3.0,2.0,7.0,5.0
1705080913.321362,-2.0,-1.0,-16.0,-7.0,-3.0,-1.0,-16.0,-7.0
1705080913.321362,1.0,-3.0,19.0,5.0,-2.0,-1.0,1.0,6.0
1705080913.321362,-6.0,0.0,2.0,0.0,-2.0,-1.0,-4.0,-1.0
1705080913.331395,-6.0,-7.0,-14.0,0.0,2.0,0.0,8.0,1.0
1705080913.331395,-2.0,2.0,4.0,1.0,0.0,-2.0,0.0,-7.0
1705080913.331395,0.0,-1.0,-5.0,0.0,3.0,2.0,0.0,13.0
1705080913.331395,1.0,-2.0,-3.0,-3.0,-3.0,-1.0,-2.0,7.0
1705080913.3613627,-9.0,1.0,-2.0,1.0,-1.0,0.0,-3.0,-4.0
1705080913.3613627,18.0,3.0,0.0,-2.0,-2.0,2.0,3.0,12.0
1705080913.3613627,-11.0,-8.0,-1.0,-4.0,0.0,-2.0,-4.0,-10.0
1705080913.3613627,-3.0,2.0,1.0,1.0,-2.0,-1.0,-1.0,1.0
1705080913.381397,-7.0,-16.0,5.0,2.0,0.0,-1.0,-2.0,0.0
1705080913.381397,-1.0,5.0,-10.0,-4.0,-1.0,1.0,-1.0,1.0
1705080913.381397,3.0,1.0,11.0,3.0,2.0,3.0,3.0,-4.0
1705080913.381397,6.0,3.0,-5.0,-1.0,-2.0,-1.0,-4.0,-11.0
1705080913.3913684,-1.0,-3.0,6.0,-2.0,-2.0,0.0,0.0,5.0
1705080913.3913684,-7.0,-1.0,2.0,6.0,2.0,-2.0,0.0,-8.0
1705080913.3913684,-4.0,-8.0,-14.0,-6.0,-3.0,-3.0,1.0,5.0
1705080913.3913684,-6.0,-11.0,-4.0,-2.0,-1.0,-1.0,2.0,-1.0
1705080913.421367,-2.0,3.0,-4.0,-5.0,-3.0,-1.0,-3.0,-1.0
1705080913.421367,1.0,2.0,3.0,-2.0,1.0,-1.0,3.0,4.0
1705080913.421367,-3.0,-4.0,0.0,-5.0,-2.0,-3.0,-3.0,-3.0
1705080913.421367,0.0,6.0,-7.0,0.0,2.0,0.0,-2.0,-9.0
1705080913.4317012,-3.0,-1.0,8.0,0.0,-2.0,0.0,-1.0,4.0
1705080913.4317012,-5.0,-8.0,-11.0,-3.0,-2.0,-4.0,-2.0,6.0
1705080913.4513657,4.0,-1.0,4.0,2.0,3.0,2.0,2.0,5.0
1705080913.4513657,0.0,15.0,-3.0,-5.0,-4.0,-4.0,-4.0,2.0
1705080913.4513657,-10.0,-12.0,-1.0,1.0,-3.0,-1.0,0.0,-8.0
1705080913.4513657,-8.0,5.0,5.0,0.0,-1.0,-1.0,-3.0,-1.0
1705080913.4513657,1.0,-6.0,-10.0,-3.0,-3.0,-1.0,-2.0,6.0
1705080913.4513657,2.0,1.0,3.0,3.0,1.0,1.0,-1.0,1.0
1705080913.4813626,-1.0,2.0,0.0,0.0,1.0,0.0,0.0,2.0
1705080913.4813626,-9.0,-11.0,-9.0,-4.0,-3.0,-2.0,-2.0,-1.0
1705080913.4813626,2.0,9.0,1.0,1.0,-1.0,-1.0,-2.0,-5.0
1705080913.4813626,-6.0,6.0,1.0,0.0,-2.0,-1.0,-1.0,-1.0
1705080913.4917865,1.0,-19.0,2.0,-1.0,-2.0,-5.0,-3.0,4.0
1705080913.4917865,-10.0,-19.0,-2.0,-2.0,0.0,4.0,1.0,-12.0
1705080913.5013604,3.0,4.0,-8.0,-4.0,-4.0,-4.0,-18.0,-6.0
1705080913.5013604,-1.0,-5.0,4.0,3.0,8.0,-8.0,1.0,1.0
1705080913.518851,2.0,12.0,1.0,-3.0,-12.0,12.0,-2.0,0.0
1705080913.5198724,8.0,8.0,7.0,2.0,-2.0,-3.0,-2.0,2.0
1705080913.5208676,-6.0,-6.0,-3.0,-1.0,-1.0,1.0,-1.0,-14.0
1705080913.5208676,-1.0,1.0,-2.0,-2.0,-2.0,-5.0,-2.0,-3.0
1705080913.5538788,1.0,2.0,-6.0,0.0,5.0,-5.0,0.0,-1.0
1705080913.5538788,-9.0,-2.0,2.0,-4.0,-2.0,1.0,-1.0,-4.0
1705080913.5538788,-3.0,-15.0,-14.0,-1.0,-1.0,-1.0,3.0,3.0
1705080913.5538788,3.0,9.0,4.0,-2.0,-2.0,0.0,0.0,0.0
1705080913.5538788,2.0,13.0,0.0,-2.0,1.0,-2.0,0.0,-4.0
1705080913.5538788,-11.0,-20.0,-5.0,-2.0,-3.0,0.0,-5.0,-5.0
1705080913.5638847,15.0,-5.0,14.0,6.0,4.0,-2.0,4.0,5.0
1705080913.5638847,1.0,-17.0,1.0,-2.0,-1.0,0.0,-3.0,-1.0
1705080913.5741732,-8.0,-23.0,-15.0,-3.0,-2.0,-1.0,0.0,0.0
1705080913.5741732,7.0,20.0,4.0,-1.0,-1.0,-3.0,-1.0,1.0
1705080913.5741732,-3.0,8.0,1.0,-1.0,1.0,1.0,2.0,-1.0
1705080913.5741732,-3.0,-17.0,0.0,1.0,0.0,10.0,9.0,0.0
1705080913.6038814,0.0,-28.0,2.0,0.0,-9.0,-19.0,-27.0,2.0
1705080913.6038814,4.0,21.0,4.0,4.0,15.0,-6.0,13.0,1.0
1705080913.6038814,1.0,8.0,-2.0,-1.0,-5.0,12.0,-17.0,-1.0
1705080913.6038814,8.0,5.0,-3.0,0.0,-6.0,1.0,-5.0,0.0
1705080913.613907,-1.0,5.0,1.0,-1.0,0.0,3.0,10.0,0.0
1705080913.613907,2.0,-3.0,2.0,1.0,-6.0,-3.0,-1.0,-1.0
1705080913.6238794,-2.0,2.0,2.0,0.0,0.0,-8.0,3.0,1.0
1705080913.6238794,-6.0,-7.0,-3.0,-1.0,3.0,1.0,1.0,-3.0
1705080913.6342487,-4.0,13.0,-1.0,2.0,0.0,0.0,2.0,-4.0
1705080913.6342487,6.0,-14.0,-6.0,0.0,-2.0,1.0,1.0,4.0
1705080913.6342487,-2.0,21.0,1.0,1.0,2.0,-1.0,6.0,-11.0
1705080913.6342487,-1.0,2.0,6.0,0.0,-4.0,0.0,-5.0,-2.0
1705080913.6538801,12.0,16.0,4.0,0.0,5.0,1.0,4.0,-1.0
1705080913.6538801,-4.0,-12.0,-14.0,-5.0,-4.0,-1.0,-5.0,0.0
1705080913.6538801,-4.0,-3.0,-2.0,-4.0,-2.0,-5.0,-1.0,5.0
1705080913.6538801,-2.0,-5.0,-8.0,-4.0,-2.0,-5.0,-3.0,-4.0
1705080913.6741128,-1.0,13.0,8.0,1.0,0.0,0.0,-2.0,0.0
1705080913.6741128,2.0,-1.0,0.0,-1.0,-1.0,3.0,1.0,-1.0
1705080913.6838856,-3.0,-3.0,-1.0,-1.0,-4.0,-4.0,2.0,4.0
1705080913.6838856,-7.0,5.0,-1.0,0.0,0.0,-1.0,0.0,-1.0
1705080913.6941733,-3.0,-9.0,-4.0,-3.0,0.0,2.0,4.0,1.0
1705080913.6941733,1.0,7.0,0.0,-2.0,-4.0,0.0,-5.0,-1.0
1705080913.6941733,-3.0,-6.0,-1.0,-1.0,-1.0,-2.0,1.0,1.0
1705080913.6941733,-1.0,3.0,0.0,-1.0,-1.0,-2.0,-4.0,-5.0
1705080913.7141626,-3.0,4.0,-1.0,0.0,-1.0,2.0,-1.0,-4.0
1705080913.7141626,-2.0,-9.0,-8.0,-3.0,-2.0,-2.0,-1.0,0.0
1705080913.7338834,-1.0,-10.0,4.0,-2.0,1.0,-2.0,-3.0,-6.0
1705080913.7438805,-11.0,-9.0,5.0,1.0,0.0,1.0,0.0,1.0
1705080913.7438805,-3.0,-4.0,-5.0,-3.0,-1.0,-1.0,0.0,1.0
1705080913.7438805,-3.0,18.0,14.0,-3.0,-4.0,-4.0,-8.0,-9.0
1705080913.7438805,-15.0,-3.0,-27.0,-7.0,0.0,-1.0,2.0,-2.0
1705080913.7438805,4.0,-4.0,8.0,-1.0,-2.0,-1.0,-2.0,6.0
1705080913.7638795,-1.0,-9.0,4.0,4.0,0.0,0.0,-2.0,-1.0
1705080913.7638795,4.0,1.0,5.0,-2.0,-2.0,2.0,0.0,4.0
1705080913.7638795,-4.0,-2.0,0.0,2.0,0.0,-2.0,-1.0,-4.0
1705080913.7638795,0.0,8.0,-7.0,-2.0,0.0,-3.0,-1.0,-5.0
1705080913.7741504,-3.0,1.0,-2.0,-3.0,-2.0,-2.0,-2.0,2.0
1705080913.7741504,15.0,0.0,-2.0,1.0,0.0,-1.0,0.0,-14.0
1705080913.7741504,3.0,8.0,-3.0,-4.0,-2.0,0.0,1.0,-2.0
1705080913.7741504,-2.0,-8.0,-5.0,-1.0,-2.0,-2.0,0.0,-1.0
1705080913.8038838,1.0,-4.0,-8.0,-5.0,-1.0,0.0,1.0,2.0
1705080913.8038838,-13.0,-4.0,14.0,7.0,1.0,-1.0,-3.0,-2.0
1705080913.8038838,1.0,1.0,-6.0,1.0,0.0,-2.0,-5.0,-8.0
1705080913.8038838,2.0,1.0,-1.0,-5.0,-2.0,-2.0,-3.0,-1.0
1705080913.833879,-6.0,-6.0,-4.0,-1.0,-3.0,-2.0,-1.0,0.0
1705080913.833879,0.0,3.0,-4.0,0.0,1.0,-1.0,1.0,4.0
1705080913.833879,-6.0,-13.0,6.0,2.0,0.0,-1.0,1.0,-1.0
1705080913.833879,2.0,7.0,-3.0,-1.0,-1.0,-2.0,-3.0,9.0
1705080913.8442283,6.0,-4.0,4.0,1.0,1.0,0.0,-1.0,-5.0
1705080913.8442283,-11.0,-18.0,-10.0,-4.0,-3.0,-2.0,-2.0,-2.0
1705080913.8442283,15.0,2.0,1.0,-2.0,0.0,1.0,3.0,10.0
1705080913.8442283,-9.0,3.0,-9.0,-3.0,-2.0,-1.0,2.0,-5.0
1705080913.864101,-6.0,-7.0,-4.0,-2.0,-2.0,-3.0,-2.0,-2.0
1705080913.864101,2.0,-9.0,0.0,4.0,-1.0,1.0,3.0,2.0
1705080913.864101,3.0,10.0,3.0,-3.0,-3.0,0.0,-1.0,1.0
1705080913.864101,-2.0,13.0,0.0,3.0,-1.0,-1.0,-2.0,-6.0
1705080913.8738813,1.0,-8.0,1.0,0.0,1.0,0.0,0.0,-4.0
1705080913.8738813,0.0,28.0,-3.0,-4.0,-3.0,-5.0,-2.0,-2.0
1705080913.884073,-6.0,-32.0,-9.0,-3.0,-3.0,-3.0,-2.0,-3.0
1705080913.884073,6.0,36.0,17.0,4.0,1.0,1.0,0.0,1.0
1705080913.8941526,-17.0,-33.0,-16.0,-2.0,0.0,-1.0,-3.0,-3.0
1705080913.8941526,2.0,-3.0,1.0,0.0,1.0,1.0,-3.0,4.0
1705080913.903885,1.0,14.0,2.0,-1.0,-2.0,-1.0,-1.0,1.0
1705080913.903885,-12.0,-14.0,-10.0,-4.0,-3.0,-1.0,-2.0,-5.0
1705080913.923883,4.0,26.0,5.0,-3.0,-1.0,-3.0,-1.0,0.0
1705080913.923883,-5.0,-9.0,-4.0,-3.0,0.0,-1.0,-2.0,-3.0
1705080913.923883,-1.0,2.0,3.0,-2.0,0.0,-1.0,0.0,0.0
1705080913.923883,-4.0,-17.0,-2.0,-1.0,-1.0,-2.0,0.0,2.0
1705080913.9438887,3.0,8.0,2.0,4.0,1.0,1.0,0.0,-6.0
1705080913.9438887,0.0,-3.0,-2.0,-1.0,1.0,0.0,1.0,0.0
1705080913.9438887,-1.0,3.0,1.0,-3.0,-1.0,0.0,-2.0,-1.0
1705080913.9538856,-1.0,-8.0,-7.0,-5.0,-2.0,-2.0,-1.0,-1.0
1705080913.97388,0.0,3.0,9.0,-1.0,-2.0,-1.0,-2.0,-3.0
1705080913.97388,-1.0,1.0,-1.0,3.0,-2.0,0.0,-1.0,-2.0
1705080913.97388,2.0,-1.0,2.0,-1.0,1.0,-2.0,2.0,1.0
1705080913.97388,2.0,-11.0,0.0,-1.0,-1.0,-1.0,-2.0,-1.0
1705080913.9838781,2.0,5.0,-1.0,-1.0,-2.0,-3.0,-1.0,-4.0
1705080913.9838781,-5.0,-3.0,14.0,1.0,0.0,-1.0,-4.0,-2.0
1705080913.9838781,-3.0,-2.0,-15.0,-3.0,-2.0,1.0,0.0,-4.0
1705080913.9838781,0.0,3.0,6.0,-2.0,-2.0,-1.0,0.0,0.0
1705080913.9940977,12.0,-12.0,-12.0,0.0,-1.0,-2.0,0.0,8.0
1705080913.9940977,-1.0,0.0,-16.0,-8.0,-1.0,-1.0,0.0,0.0
1705080914.003934,1.0,-3.0,18.0,9.0,2.0,-1.0,0.0,2.0
1705080914.003934,-9.0,-1.0,-6.0,-4.0,-2.0,-3.0,0.0,3.0
1705080914.0241692,0.0,9.0,-1.0,-2.0,0.0,2.0,0.0,3.0
1705080914.0241692,-2.0,-1.0,-5.0,-1.0,-2.0,1.0,-2.0,-3.0
1705080914.0241692,-14.0,-1.0,7.0,-2.0,-3.0,-1.0,-2.0,-2.0
1705080914.0241692,-4.0,-10.0,-5.0,0.0,-2.0,-3.0,-1.0,-1.0
1705080914.0631895,-5.0,2.0,0.0,-3.0,-4.0,-3.0,-4.0,-4.0
1705080914.0631895,1.0,-2.0,-10.0,0.0,-2.0,-1.0,-3.0,-9.0
1705080914.0631895,-10.0,4.0,8.0,-2.0,-1.0,-1.0,2.0,-2.0
1705080914.0631895,5.0,-5.0,0.0,0.0,0.0,0.0,-3.0,-2.0
1705080914.0657778,-2.0,0.0,-3.0,5.0,1.0,0.0,1.0,-1.0
1705080914.0657778,-1.0,4.0,-2.0,-3.0,-1.0,-1.0,1.0,2.0
1705080914.067416,2.0,-4.0,-3.0,1.0,2.0,1.0,-2.0,-4.0
1705080914.067416,5.0,3.0,2.0,-4.0,-1.0,-1.0,0.0,-5.0
1705080914.076863,2.0,-5.0,4.0,-4.0,-2.0,0.0,-1.0,4.0
1705080914.076863,0.0,-6.0,-11.0,1.0,0.0,-1.0,0.0,3.0
1705080914.076863,2.0,1.0,0.0,2.0,0.0,-1.0,-2.0,2.0
1705080914.076863,0.0,-4.0,4.0,0.0,0.0,-3.0,0.0,-2.0
1705080914.1068633,-18.0,4.0,-5.0,-5.0,-4.0,-3.0,-5.0,-4.0
1705080914.1068633,-2.0,-2.0,8.0,0.0,-1.0,0.0,1.0,4.0
1705080914.1068633,-1.0,-4.0,-14.0,-5.0,-1.0,-4.0,-2.0,-1.0
1705080914.1068633,12.0,6.0,3.0,1.0,0.0,1.0,0.0,3.0
1705080914.1172087,-4.0,-5.0,3.0,1.0,1.0,-1.0,-2.0,-4.0
1705080914.1172087,-4.0,-3.0,2.0,0.0,-1.0,0.0,-1.0,5.0
1705080914.1172087,1.0,-6.0,-3.0,-3.0,-2.0,-2.0,-3.0,-5.0
1705080914.1172087,-3.0,-1.0,-4.0,1.0,-1.0,1.0,-2.0,1.0
1705080914.1372154,2.0,0.0,1.0,1.0,1.0,0.0,0.0,-1.0
1705080914.1372154,-2.0,-3.0,3.0,-2.0,-3.0,0.0,-3.0,-2.0
1705080914.1372154,-9.0,0.0,-7.0,-3.0,-2.0,-4.0,-3.0,-3.0
1705080914.1372154,1.0,-3.0,-3.0,1.0,2.0,-1.0,1.0,-1.0
1705080914.15719,0.0,3.0,-7.0,-4.0,0.0,-1.0,0.0,1.0
1705080914.15719,-3.0,-1.0,-1.0,-3.0,-3.0,-2.0,1.0,0.0
1705080914.15719,0.0,-1.0,-2.0,-2.0,-1.0,-1.0,0.0,-1.0
1705080914.15719,-3.0,-1.0,-4.0,1.0,-1.0,-1.0,-4.0,-1.0
1705080914.1772232,2.0,-3.0,-5.0,-2.0,-1.0,-1.0,-1.0,-2.0
1705080914.1772232,-2.0,3.0,5.0,-3.0,1.0,0.0,1.0,-3.0
1705080914.1772232,1.0,-3.0,-4.0,-1.0,-2.0,-3.0,-3.0,-9.0
1705080914.1772232,1.0,3.0,-4.0,-2.0,-1.0,1.0,2.0,-2.0
1705080914.1976273,6.0,3.0,-5.0,0.0,-2.0,0.0,1.0,2.0
1705080914.1976273,-3.0,-2.0,3.0,0.0,0.0,-1.0,-1.0,-3.0
1705080914.1976273,3.0,2.0,-3.0,-4.0,-3.0,0.0,1.0,4.0
1705080914.1976273,-11.0,-11.0,5.0,5.0,2.0,1.0,-1.0,-6.0
1705080914.2172253,-8.0,0.0,-3.0,-1.0,-2.0,1.0,-3.0,-13.0
1705080914.2172253,2.0,-1.0,-5.0,-1.0,-1.0,-2.0,1.0,-2.0
1705080914.2172253,4.0,3.0,-3.0,0.0,1.0,0.0,-2.0,0.0
1705080914.2172253,1.0,3.0,-3.0,-2.0,-1.0,-3.0,-2.0,-2.0
1705080914.2376122,1.0,0.0,6.0,0.0,0.0,-1.0,-1.0,1.0
1705080914.2376122,0.0,-5.0,-3.0,-1.0,-1.0,-4.0,-2.0,-4.0
1705080914.2376122,4.0,2.0,-3.0,0.0,0.0,-1.0,0.0,0.0
1705080914.2376122,-2.0,-1.0,2.0,-2.0,-3.0,-1.0,-2.0,-4.0
1705080914.2576127,-13.0,-6.0,0.0,-2.0,-2.0,-1.0,-3.0,1.0
1705080914.2576127,6.0,2.0,1.0,-3.0,-3.0,-4.0,-3.0,4.0
1705080914.2576127,-4.0,-5.0,-2.0,-1.0,1.0,2.0,-1.0,0.0
1705080914.2576127,-1.0,1.0,-7.0,-3.0,-1.0,1.0,-1.0,0.0
1705080914.277298,0.0,1.0,5.0,0.0,0.0,-1.0,0.0,2.0
1705080914.277298,-4.0,5.0,-13.0,-2.0,-1.0,2.0,-2.0,-5.0
1705080914.277298,-1.0,-2.0,13.0,3.0,0.0,-3.0,-8.0,-1.0
1705080914.277298,0.0,-5.0,-11.0,-2.0,-3.0,-3.0,0.0,3.0
1705080914.2972991,7.0,4.0,5.0,-2.0,-1.0,-2.0,0.0,-1.0
1705080914.2972991,0.0,1.0,0.0,3.0,0.0,0.0,-1.0,3.0
1705080914.2972991,-7.0,-3.0,-7.0,-4.0,-3.0,-3.0,-4.0,-4.0
1705080914.2972991,2.0,-2.0,-5.0,0.0,-1.0,-1.0,-1.0,5.0
1705080914.3177147,-1.0,-3.0,-3.0,-1.0,-3.0,-1.0,-2.0,2.0
1705080914.3177147,-1.0,-2.0,2.0,0.0,-1.0,0.0,2.0,-1.0
1705080914.3177147,-6.0,-5.0,-2.0,1.0,0.0,-1.0,1.0,0.0
1705080914.3177147,-2.0,1.0,1.0,-3.0,-2.0,0.0,0.0,-3.0
1705080914.3476882,3.0,0.0,-1.0,0.0,-2.0,0.0,0.0,1.0
1705080914.3476882,0.0,-1.0,-1.0,0.0,0.0,-1.0,-1.0,2.0
1705080914.3476882,-8.0,0.0,7.0,-4.0,-2.0,-2.0,0.0,0.0
1705080914.3476882,1.0,-1.0,-5.0,0.0,0.0,-1.0,0.0,0.0
1705080914.3576925,12.0,1.0,3.0,2.0,1.0,1.0,2.0,0.0
1705080914.3576925,-2.0,-4.0,-2.0,-3.0,-2.0,-4.0,-2.0,0.0
1705080914.3576925,5.0,3.0,-9.0,-1.0,0.0,0.0,-1.0,2.0
1705080914.3576925,-3.0,5.0,13.0,1.0,0.0,-1.0,-2.0,-2.0
1705080914.3778722,-6.0,-4.0,-6.0,0.0,-2.0,-3.0,-3.0,-3.0
1705080914.3778722,-5.0,-7.0,2.0,-3.0,0.0,2.0,-3.0,2.0
1705080914.3778722,5.0,1.0,4.0,3.0,1.0,2.0,3.0,-3.0
1705080914.3778722,1.0,-2.0,-2.0,-1.0,-1.0,-3.0,-3.0,-5.0
1705080914.397738,-2.0,3.0,-6.0,-3.0,1.0,-4.0,-1.0,-1.0
1705080914.397738,0.0,-1.0,-1.0,-3.0,-1.0,0.0,-2.0,-10.0
1705080914.397738,0.0,-1.0,2.0,-1.0,-1.0,-1.0,-2.0,-4.0
1705080914.397738,0.0,1.0,-2.0,-2.0,0.0,-1.0,0.0,-2.0
1705080914.4179158,-3.0,-2.0,0.0,1.0,-2.0,0.0,-1.0,-11.0
1705080914.4179158,-1.0,-2.0,1.0,-1.0,-1.0,-2.0,-1.0,-1.0
1705080914.4179158,-2.0,-2.0,-1.0,0.0,-1.0,-1.0,-1.0,-2.0
1705080914.4179158,-3.0,1.0,-6.0,0.0,0.0,-1.0,-1.0,0.0
1705080914.4380267,-2.0,-2.0,8.0,-2.0,-2.0,-1.0,-2.0,2.0
1705080914.4380267,-9.0,-2.0,-1.0,0.0,-1.0,-2.0,-2.0,1.0
1705080914.4380267,8.0,1.0,4.0,0.0,-1.0,-2.0,0.0,1.0
1705080914.4380267,-2.0,-3.0,-12.0,-3.0,1.0,0.0,1.0,1.0
1705080914.4577625,-3.0,-6.0,7.0,1.0,-1.0,0.0,1.0,0.0
1705080914.4577625,-1.0,0.0,7.0,3.0,-2.0,0.0,-2.0,-3.0
1705080914.4577625,-5.0,8.0,-2.0,0.0,-3.0,-1.0,-1.0,-6.0
1705080914.4577625,0.0,3.0,1.0,-1.0,-2.0,-2.0,-2.0,-1.0
1705080914.4778187,-3.0,-10.0,-7.0,-4.0,-1.0,-2.0,-3.0,1.0
1705080914.4778187,-4.0,-3.0,0.0,0.0,-3.0,-3.0,-3.0,1.0
1705080914.4778187,8.0,-2.0,-2.0,1.0,1.0,2.0,1.0,4.0
1705080914.4778187,1.0,1.0,2.0,-2.0,-4.0,-1.0,-3.0,-2.0
1705080914.4977808,-1.0,1.0,-1.0,1.0,1.0,2.0,-1.0,-2.0
1705080914.4977808,0.0,1.0,-2.0,-2.0,-1.0,1.0,2.0,1.0
1705080914.4977808,-3.0,-3.0,-3.0,-2.0,-2.0,-5.0,-1.0,0.0
1705080914.4977808,-5.0,-7.0,1.0,0.0,-1.0,-2.0,-2.0,-2.0
1705080914.5177813,-1.0,-1.0,1.0,-1.0,0.0,-3.0,-2.0,4.0
1705080914.5177813,0.0,-1.0,0.0,0.0,2.0,2.0,-2.0,-2.0
1705080914.5177813,-2.0,-2.0,-2.0,-2.0,-3.0,1.0,0.0,1.0
1705080914.5177813,-3.0,-4.0,3.0,-1.0,1.0,-3.0,-2.0,0.0
1705080914.5378263,-1.0,0.0,-5.0,-4.0,-2.0,1.0,0.0,1.0
1705080914.5378263,-8.0,1.0,-5.0,-3.0,-1.0,-1.0,-3.0,-2.0
1705080914.5482216,-4.0,4.0,-2.0,-2.0,-2.0,-3.0,-2.0,-1.0
1705080914.5482216,0.0,-8.0,8.0,4.0,0.0,-1.0,1.0,2.0
1705080914.5581133,2.0,12.0,7.0,0.0,-1.0,-2.0,-2.0,0.0
1705080914.5581133,0.0,-3.0,-8.0,-3.0,-2.0,-2.0,-2.0,-3.0
1705080914.5581133,0.0,-8.0,-3.0,-3.0,-3.0,0.0,-1.0,-1.0
1705080914.5581133,2.0,4.0,0.0,1.0,1.0,1.0,0.0,0.0
1705080914.5838137,-4.0,-2.0,-6.0,-4.0,-3.0,-1.0,-2.0,-3.0
1705080914.5838137,6.0,3.0,5.0,-1.0,1.0,0.0,0.0,2.0
1705080914.5846505,-1.0,-2.0,-2.0,-2.0,-2.0,-3.0,-2.0,-2.0
1705080914.5846505,1.0,-3.0,-4.0,-2.0,0.0,1.0,0.0,3.0
1705080914.6044006,1.0,1.0,2.0,2.0,2.0,-2.0,0.0,-3.0
1705080914.6044006,0.0,0.0,0.0,-2.0,-2.0,-2.0,1.0,0.0
1705080914.6054003,-1.0,-3.0,-5.0,0.0,1.0,-1.0,-1.0,0.0
1705080914.6054003,-2.0,-3.0,4.0,0.0,-1.0,-2.0,-2.0,-2.0
1705080914.6200593,0.0,-4.0,-6.0,0.0,-1.0,-1.0,0.0,2.0
1705080914.6200593,2.0,-3.0,-1.0,-3.0,0.0,1.0,-2.0,-5.0
1705080914.6200593,-2.0,3.0,-4.0,0.0,1.0,1.0,-1.0,-2.0
1705080914.6200593,-1.0,-1.0,5.0,2.0,-2.0,0.0,-1.0,-5.0
1705080914.6401377,-1.0,0.0,-6.0,-2.0,-4.0,-2.0,-1.0,-2.0
1705080914.6401377,-13.0,-1.0,-3.0,0.0,-2.0,-3.0,-2.0,2.0
1705080914.6401377,5.0,-1.0,10.0,-1.0,-2.0,0.0,0.0,2.0
1705080914.6401377,-2.0,1.0,-5.0,-5.0,-2.0,-1.0,-1.0,1.0
1705080914.6701546,-3.0,-2.0,-5.0,-2.0,0.0,-2.0,-1.0,-2.0
1705080914.6701546,-3.0,1.0,1.0,2.0,-1.0,-2.0,-1.0,0.0
1705080914.6701546,-3.0,-8.0,-3.0,-2.0,2.0,3.0,0.0,0.0
1705080914.6701546,-3.0,-3.0,-5.0,-2.0,-2.0,-3.0,0.0,-4.0
1705080914.680479,-2.0,0.0,-2.0,-2.0,-3.0,-2.0,-1.0,-3.0
1705080914.680479,7.0,2.0,0.0,-2.0,1.0,-1.0,1.0,3.0
1705080914.680479,-4.0,-1.0,-1.0,0.0,-2.0,-3.0,-1.0,-3.0
1705080914.680479,2.0,-1.0,-18.0,-10.0,-4.0,-2.0,-1.0,-1.0
1705080914.700553,-6.0,-4.0,14.0,15.0,4.0,2.0,-1.0,-3.0
1705080914.700553,2.0,-4.0,4.0,2.0,-1.0,-2.0,-1.0,-3.0
1705080914.700553,-1.0,1.0,-4.0,0.0,1.0,1.0,-2.0,-1.0
1705080914.700553,-3.0,1.0,-5.0,-3.0,0.0,-1.0,-2.0,-3.0
1705080914.7201545,0.0,-4.0,-10.0,-8.0,-3.0,-4.0,-1.0,0.0
1705080914.7201545,0.0,-5.0,-2.0,-2.0,-3.0,-3.0,-2.0,-2.0
1705080914.7201545,-2.0,-7.0,5.0,3.0,0.0,-2.0,0.0,1.0
1705080914.7201545,0.0,5.0,-3.0,-4.0,-3.0,0.0,0.0,-1.0
1705080914.740189,-1.0,-1.0,4.0,2.0,0.0,0.0,-3.0,-1.0
1705080914.740189,2.0,-3.0,0.0,0.0,1.0,-1.0,2.0,-4.0
1705080914.740189,4.0,3.0,1.0,-4.0,-1.0,0.0,0.0,-3.0
1705080914.740189,-4.0,-5.0,-2.0,1.0,-1.0,1.0,-1.0,4.0
1705080914.760204,0.0,0.0,-4.0,-3.0,-1.0,0.0,-1.0,-4.0
1705080914.760204,0.0,-2.0,-8.0,-6.0,-2.0,-1.0,-2.0,-1.0
1705080914.760204,-3.0,3.0,1.0,-1.0,-1.0,-1.0,-2.0,1.0
1705080914.760204,1.0,6.0,12.0,7.0,1.0,2.0,1.0,-2.0
1705080914.7801547,-2.0,-3.0,6.0,-6.0,-2.0,-2.0,-3.0,1.0
1705080914.7801547,-3.0,-1.0,1.0,0.0,-1.0,-2.0,-1.0,-2.0
1705080914.7901547,-1.0,-6.0,-7.0,-3.0,-4.0,-3.0,-1.0,-1.0
1705080914.7901547,-3.0,6.0,1.0,4.0,1.0,-2.0,-2.0,-2.0
1705080914.8001883,-1.0,-18.0,-9.0,-11.0,-6.0,-1.0,-1.0,0.0
1705080914.8001883,10.0,44.0,-7.0,4.0,3.0,0.0,-3.0,-10.0
1705080914.8001883,4.0,-3.0,31.0,16.0,5.0,3.0,2.0,7.0
1705080914.8001883,-4.0,-14.0,-4.0,-2.0,-2.0,-3.0,-3.0,-1.0
1705080914.830155,0.0,3.0,-10.0,-7.0,-2.0,-4.0,1.0,-1.0
1705080914.830155,-4.0,-7.0,-1.0,-6.0,-4.0,-2.0,-2.0,1.0
1705080914.830155,-3.0,5.0,-9.0,1.0,1.0,-1.0,-1.0,-5.0
1705080914.830155,4.0,6.0,3.0,3.0,4.0,0.0,1.0,-2.0
1705080914.8401966,-5.0,-9.0,-1.0,-3.0,-1.0,-1.0,-3.0,-1.0
1705080914.8401966,-4.0,-7.0,11.0,-1.0,-1.0,-1.0,0.0,0.0
1705080914.8401966,-2.0,-1.0,-10.0,-9.0,-6.0,-4.0,-2.0,-5.0
1705080914.8401966,-3.0,-4.0,-4.0,-2.0,1.0,1.0,-2.0,0.0
1705080914.8601549,-1.0,7.0,1.0,4.0,3.0,1.0,0.0,-1.0
1705080914.8601549,-1.0,-22.0,5.0,1.0,0.0,2.0,1.0,0.0
1705080914.8601549,-16.0,-7.0,-23.0,-10.0,-7.0,-5.0,-3.0,-3.0
1705080914.8601549,0.0,-6.0,21.0,0.0,-4.0,-4.0,-2.0,-2.0
1705080914.8901546,0.0,2.0,-1.0,-1.0,0.0,-1.0,2.0,0.0
1705080914.8901546,-3.0,-15.0,-26.0,-13.0,-5.0,-2.0,-2.0,1.0
1705080914.8901546,0.0,24.0,19.0,10.0,6.0,3.0,1.0,1.0
1705080914.8901546,-4.0,-19.0,-19.0,-17.0,-7.0,-3.0,-2.0,-2.0
1705080914.9101915,2.0,21.0,6.0,12.0,6.0,2.0,-1.0,3.0
1705080914.9101915,2.0,1.0,11.0,7.0,2.0,1.0,2.0,2.0
1705080914.9101915,-3.0,-11.0,-11.0,-7.0,-2.0,-3.0,-4.0,-5.0
1705080914.9101915,8.0,-7.0,-38.0,-7.0,-4.0,-2.0,-1.0,4.0
1705080914.9201643,-1.0,20.0,22.0,-4.0,-3.0,-2.0,-3.0,-6.0
1705080914.9201643,-10.0,-2.0,9.0,-3.0,-3.0,-3.0,-3.0,-1.0
1705080914.9201643,2.0,-18.0,17.0,8.0,1.0,0.0,1.0,3.0
1705080914.9201643,3.0,-13.0,-15.0,-1.0,0.0,-1.0,-1.0,-2.0
1705080914.9501545,-11.0,2.0,-21.0,-8.0,-8.0,-7.0,-5.0,-8.0
1705080914.9501545,-7.0,-26.0,-30.0,-4.0,-1.0,1.0,-1.0,-3.0
1705080914.9501545,1.0,22.0,28.0,3.0,3.0,5.0,2.0,-3.0
1705080914.9501545,-2.0,-10.0,39.0,4.0,1.0,2.0,2.0,2.0
1705080914.960193,2.0,-10.0,-41.0,-12.0,-3.0,0.0,1.0,1.0
1705080914.960193,6.0,27.0,59.0,14.0,3.0,0.0,0.0,1.0
1705080914.960193,6.0,-8.0,-19.0,1.0,-1.0,-1.0,-1.0,3.0
1705080914.960193,-13.0,-13.0,-31.0,0.0,2.0,-4.0,-3.0,-7.0
1705080914.9702022,8.0,8.0,15.0,9.0,3.0,0.0,2.0,1.0
1705080914.9702022,0.0,3.0,-11.0,-5.0,-3.0,-2.0,-1.0,1.0
1705080914.9801939,-2.0,-9.0,-10.0,-7.0,-3.0,-1.0,-1.0,-1.0
1705080914.9801939,-2.0,14.0,15.0,-5.0,-5.0,0.0,2.0,-2.0
1705080915.000155,-5.0,-7.0,-3.0,3.0,0.0,2.0,4.0,3.0
1705080915.000155,5.0,-8.0,-4.0,-1.0,0.0,1.0,-2.0,2.0
1705080915.000155,4.0,4.0,-6.0,-2.0,-2.0,0.0,3.0,3.0
1705080915.000155,-3.0,10.0,-1.0,-2.0,-6.0,-5.0,-4.0,-1.0
1705080915.020194,-3.0,-11.0,0.0,-1.0,-1.0,5.0,12.0,3.0
1705080915.020194,1.0,4.0,-6.0,-1.0,-3.0,-7.0,-30.0,-6.0
1705080915.020194,-5.0,-4.0,-5.0,-4.0,-6.0,-8.0,-3.0,-4.0
1705080915.020194,-2.0,6.0,2.0,-1.0,-1.0,0.0,2.0,13.0
1705080915.0301876,1.0,-11.0,2.0,3.0,2.0,-2.0,6.0,-4.0
1705080915.0301876,1.0,8.0,3.0,3.0,4.0,8.0,4.0,4.0
1705080915.0501566,-4.0,-4.0,-11.0,-4.0,-1.0,-8.0,-6.0,-9.0
1705080915.0501566,-5.0,-1.0,4.0,3.0,-1.0,-1.0,-2.0,-1.0
1705080915.0601566,6.0,-2.0,1.0,-7.0,-4.0,-1.0,-5.0,-3.0
1705080915.0601566,-6.0,-3.0,-10.0,1.0,-2.0,-1.0,2.0,-4.0
1705080915.0601566,1.0,0.0,-2.0,2.0,2.0,1.0,-1.0,0.0
1705080915.0601566,3.0,7.0,3.0,1.0,1.0,4.0,4.0,-2.0
1705080915.0802011,-4.0,-6.0,-1.0,-3.0,-1.0,-4.0,-6.0,4.0
1705080915.0802011,-8.0,-3.0,-8.0,-6.0,-5.0,-3.0,3.0,-2.0
1705080915.0802011,5.0,1.0,0.0,-2.0,-4.0,-2.0,-3.0,-1.0
1705080915.0802011,2.0,-1.0,8.0,1.0,0.0,-3.0,-1.0,-2.0
1705080915.0901961,2.0,2.0,-3.0,0.0,-3.0,-1.0,-5.0,-1.0
1705080915.0901961,-5.0,-4.0,2.0,5.0,1.0,-1.0,1.0,-3.0
1705080915.107987,2.0,3.0,3.0,-4.0,-1.0,2.0,-1.0,4.0
1705080915.107987,-1.0,3.0,1.0,-5.0,-1.0,2.0,-4.0,-7.0
1705080915.1255832,-1.0,-8.0,-18.0,-10.0,-4.0,-7.0,-6.0,-4.0
1705080915.1255832,1.0,3.0,1.0,-5.0,-5.0,-3.0,3.0,-3.0
1705080915.1255832,-3.0,2.0,7.0,10.0,4.0,3.0,1.0,1.0
1705080915.1255832,5.0,6.0,8.0,12.0,7.0,4.0,2.0,-2.0
1705080915.1456242,5.0,0.0,2.0,5.0,2.0,0.0,-1.0,2.0
1705080915.1456242,1.0,-1.0,-8.0,-7.0,-5.0,-5.0,0.0,-1.0
1705080915.1456242,-3.0,-7.0,-12.0,-15.0,-10.0,-6.0,-3.0,-1.0
1705080915.1456242,-6.0,-2.0,-3.0,-4.0,0.0,-1.0,-3.0,-3.0
1705080915.1555846,-1.0,3.0,11.0,5.0,4.0,1.0,-1.0,-1.0
1705080915.1555846,1.0,-1.0,-3.0,0.0,-2.0,1.0,0.0,-2.0
1705080915.1655865,-5.0,-1.0,-1.0,0.0,2.0,1.0,-2.0,-3.0
1705080915.1655865,-2.0,0.0,-6.0,-3.0,-4.0,-5.0,-3.0,-2.0
1705080915.1756177,-4.0,-1.0,0.0,0.0,0.0,0.0,0.0,2.0
1705080915.1756177,17.0,2.0,-1.0,-1.0,0.0,-1.0,6.0,5.0
1705080915.1756177,0.0,-2.0,-6.0,-2.0,-1.0,0.0,-3.0,-16.0
1705080915.1756177,-1.0,1.0,-1.0,0.0,0.0,-1.0,-1.0,1.0
1705080915.205625,9.0,-1.0,-1.0,-1.0,-1.0,-2.0,-3.0,-4.0
1705080915.205625,-13.0,-3.0,1.0,1.0,1.0,-1.0,1.0,5.0
1705080915.205625,26.0,1.0,-4.0,-2.0,0.0,2.0,1.0,-11.0
1705080915.205625,7.0,1.0,3.0,1.0,-1.0,-2.0,-2.0,-1.0
1705080915.2155852,-36.0,-8.0,-6.0,-3.0,-3.0,-4.0,-6.0,-14.0
1705080915.2155852,4.0,-4.0,-6.0,-1.0,-1.0,-1.0,3.0,5.0
1705080915.2256238,-8.0,-3.0,3.0,-2.0,-3.0,0.0,0.0,4.0
1705080915.2256238,-2.0,5.0,-1.0,-2.0,-1.0,1.0,-2.0,-5.0
1705080915.2356262,-3.0,-6.0,-4.0,-1.0,-3.0,0.0,-2.0,4.0
1705080915.2356262,-17.0,2.0,-3.0,-1.0,2.0,-1.0,-5.0,-9.0
1705080915.2356262,-13.0,-8.0,-2.0,-2.0,1.0,-1.0,-3.0,2.0
1705080915.2356262,-4.0,1.0,-6.0,0.0,1.0,-2.0,-2.0,-1.0
1705080915.2656238,17.0,10.0,13.0,9.0,3.0,1.0,-2.0,-10.0
1705080915.2656238,-10.0,-9.0,4.0,-3.0,-3.0,0.0,-1.0,2.0
1705080915.2656238,3.0,0.0,-2.0,-3.0,0.0,1.0,2.0,6.0
1705080915.2656238,1.0,-5.0,-2.0,-1.0,-1.0,-3.0,-2.0,0.0
1705080915.2756183,-4.0,-1.0,-3.0,-4.0,-2.0,0.0,-3.0,-4.0
1705080915.2756183,17.0,2.0,-2.0,0.0,0.0,0.0,2.0,8.0
1705080915.285585,-5.0,0.0,-6.0,-3.0,0.0,-1.0,-2.0,-8.0
1705080915.285585,-6.0,-12.0,5.0,-5.0,-5.0,-3.0,-2.0,-1.0
1705080915.2955866,4.0,1.0,3.0,-1.0,4.0,0.0,0.0,-2.0
1705080915.2955866,-4.0,-1.0,-13.0,-5.0,-7.0,-6.0,-4.0,-8.0
1705080915.2955866,-14.0,-4.0,-8.0,-4.0,-6.0,-4.0,0.0,-3.0
1705080915.2955866,-3.0,-1.0,4.0,9.0,3.0,-1.0,1.0,-2.0
1705080915.3355844,1.0,-3.0,7.0,4.0,5.0,2.0,0.0,6.0
1705080915.3355844,1.0,9.0,-1.0,-1.0,-2.0,0.0,0.0,1.0
1705080915.3355844,25.0,6.0,-22.0,-13.0,-2.0,-2.0,-2.0,-7.0
1705080915.3355844,-11.0,-3.0,11.0,16.0,3.0,3.0,3.0,4.0
1705080915.3355844,8.0,-2.0,-7.0,-10.0,-6.0,-4.0,-5.0,-7.0
1705080915.3355844,-11.0,1.0,8.0,15.0,7.0,3.0,0.0,0.0
1705080915.3455882,11.0,3.0,-9.0,-3.0,-2.0,-2.0,2.0,2.0
1705080915.3455882,8.0,3.0,1.0,0.0,0.0,-1.0,1.0,7.0
1705080915.3556204,-5.0,-14.0,-11.0,-12.0,-11.0,-7.0,-2.0,-24.0
1705080915.3556204,-5.0,-2.0,-11.0,-9.0,-1.0,2.0,-4.0,13.0
1705080915.3556204,-8.0,7.0,6.0,-2.0,2.0,1.0,-8.0,-31.0
1705080915.3556204,7.0,0.0,-2.0,3.0,2.0,6.0,4.0,10.0
1705080915.3856258,2.0,10.0,12.0,9.0,3.0,-4.0,2.0,11.0
1705080915.3856258,-6.0,-15.0,-13.0,-4.0,-3.0,0.0,1.0,-5.0
1705080915.3856258,4.0,-9.0,11.0,2.0,-2.0,-3.0,0.0,9.0
1705080915.3856258,-8.0,-8.0,-12.0,-19.0,-9.0,-5.0,-5.0,-8.0
1705080915.3955853,-7.0,7.0,-4.0,-9.0,-5.0,-2.0,-3.0,3.0
1705080915.3955853,2.0,6.0,11.0,17.0,5.0,2.0,1.0,-5.0
1705080915.405623,3.0,4.0,27.0,17.0,6.0,1.0,0.0,19.0
1705080915.405623,1.0,3.0,-8.0,-6.0,-3.0,0.0,1.0,2.0
1705080915.4156258,4.0,-17.0,-31.0,-11.0,-4.0,-1.0,0.0,6.0
1705080915.4156258,-4.0,9.0,12.0,-6.0,-5.0,-3.0,0.0,-8.0
1705080915.4156258,-12.0,-15.0,-3.0,-1.0,1.0,2.0,0.0,-1.0
1705080915.4156258,-11.0,-13.0,2.0,0.0,2.0,0.0,-1.0,-11.0
1705080915.4455867,-3.0,14.0,4.0,3.0,0.0,-4.0,-7.0,14.0
1705080915.4455867,23.0,-7.0,-5.0,-5.0,2.0,2.0,-1.0,1.0
1705080915.4455867,-15.0,-2.0,-5.0,-4.0,-7.0,-14.0,-15.0,2.0
1705080915.4455867,1.0,4.0,1.0,-2.0,-2.0,0.0,1.0,-1.0
1705080915.455619,-10.0,-5.0,-2.0,3.0,-3.0,-6.0,2.0,-2.0
1705080915.455619,-1.0,-1.0,5.0,2.0,4.0,13.0,5.0,-2.0
1705080915.465585,8.0,2.0,3.0,0.0,-3.0,5.0,1.0,1.0
1705080915.465585,3.0,5.0,3.0,1.0,0.0,0.0,-1.0,-5.0
1705080915.4756215,-3.0,-4.0,4.0,1.0,-1.0,-1.0,-5.0,-1.0
1705080915.4756215,4.0,5.0,-1.0,-3.0,-2.0,-4.0,11.0,1.0
1705080915.4856186,-8.0,-6.0,-3.0,-1.0,2.0,2.0,-19.0,-3.0
1705080915.4856186,-1.0,6.0,-2.0,-3.0,-1.0,-3.0,3.0,-5.0
1705080915.5055864,3.0,2.0,4.0,-1.0,-6.0,-1.0,-1.0,-2.0
1705080915.5055864,-4.0,-2.0,-11.0,-11.0,-2.0,-8.0,-10.0,-12.0
1705080915.5055864,-11.0,-17.0,-9.0,7.0,2.0,1.0,6.0,6.0
1705080915.5055864,2.0,27.0,26.0,11.0,2.0,-2.0,-5.0,-3.0
1705080915.515625,2.0,-7.0,-2.0,-3.0,2.0,3.0,2.0,12.0
1705080915.515625,3.0,-2.0,-1.0,-2.0,-2.0,-3.0,-3.0,-6.0
1705080915.5256228,-5.0,-5.0,-10.0,-10.0,-5.0,-2.0,4.0,3.0
1705080915.5256228,-2.0,-12.0,-12.0,-6.0,1.0,-2.0,-3.0,-5.0
1705080915.5356276,-13.0,-2.0,1.0,2.0,0.0,-1.0,5.0,-3.0
1705080915.5356276,9.0,3.0,5.0,0.0,-2.0,0.0,1.0,15.0
1705080915.545624,-4.0,10.0,-3.0,-4.0,-2.0,-5.0,-6.0,3.0
1705080915.545624,-4.0,-6.0,-4.0,-3.0,-3.0,2.0,4.0,-8.0
1705080915.565586,-5.0,-3.0,1.0,1.0,3.0,-1.0,3.0,5.0
1705080915.565586,-8.0,-4.0,-9.0,-3.0,-5.0,-3.0,-11.0,-10.0
1705080915.565586,7.0,1.0,8.0,3.0,0.0,2.0,4.0,4.0
1705080915.565586,1.0,-4.0,-10.0,-8.0,-4.0,-2.0,-2.0,8.0
1705080915.575619,3.0,0.0,-5.0,2.0,1.0,4.0,3.0,-4.0
1705080915.575619,-5.0,-7.0,0.0,0.0,-1.0,-6.0,0.0,-5.0
1705080915.5856187,-5.0,-7.0,14.0,6.0,0.0,2.0,4.0,3.0
1705080915.5856187,3.0,-6.0,-9.0,-1.0,-5.0,0.0,1.0,2.0
1705080915.605597,11.0,3.0,9.0,1.0,5.0,5.0,-3.0,0.0
1705080915.605597,1.0,5.0,-6.0,-5.0,1.0,-7.0,-6.0,4.0
1705080915.605597,-10.0,0.0,-2.0,-5.0,-4.0,2.0,5.0,0.0
1705080915.605597,-7.0,-7.0,-6.0,-6.0,-6.0,-2.0,3.0,-15.0
1705080915.6255872,-1.0,5.0,5.0,1.0,-3.0,-2.0,-6.0,-10.0
1705080915.6255872,-9.0,-4.0,-2.0,0.0,-6.0,1.0,2.0,5.0
1705080915.6255872,-8.0,-7.0,-6.0,-1.0,3.0,-6.0,-13.0,-4.0
1705080915.6255872,8.0,3.0,1.0,0.0,7.0,4.0,-3.0,-7.0
1705080915.6391482,0.0,-2.0,-1.0,-1.0,-6.0,-4.0,7.0,6.0
1705080915.6391482,0.0,-1.0,4.0,1.0,8.0,10.0,10.0,-6.0
1705080915.6480966,8.0,16.0,-1.0,-3.0,-15.0,-16.0,-13.0,2.0
1705080915.6480966,-2.0,-4.0,1.0,-2.0,10.0,-1.0,-5.0,6.0
1705080915.6685975,-1.0,-8.0,-7.0,-3.0,0.0,2.0,2.0,-4.0
1705080915.6685975,-7.0,-5.0,-3.0,-3.0,-4.0,-11.0,-14.0,-6.0
1705080915.6685975,13.0,2.0,-5.0,1.0,-2.0,3.0,11.0,4.0
1705080915.6685975,-5.0,-3.0,0.0,-4.0,-3.0,-1.0,-3.0,-14.0
1705080915.678634,3.0,8.0,0.0,2.0,0.0,-2.0,-7.0,7.0
1705080915.678634,-4.0,-17.0,5.0,0.0,-3.0,-1.0,1.0,5.0
1705080915.678634,-7.0,17.0,6.0,-3.0,0.0,3.0,7.0,-8.0
1705080915.678634,-10.0,-8.0,-4.0,0.0,-4.0,-7.0,-3.0,25.0
1705080915.7085965,6.0,4.0,-5.0,-1.0,1.0,3.0,0.0,-5.0
1705080915.7085965,-9.0,-18.0,0.0,2.0,-1.0,-2.0,-2.0,-5.0
1705080915.7085965,-3.0,-5.0,-10.0,-4.0,0.0,-1.0,-4.0,-6.0
1705080915.7085965,0.0,7.0,-1.0,-2.0,-4.0,-2.0,2.0,-5.0
1705080915.7285986,-8.0,-8.0,-2.0,0.0,1.0,1.0,-3.0,-6.0
1705080915.7285986,4.0,7.0,0.0,-1.0,-3.0,-1.0,-3.0,1.0
1705080915.7285986,3.0,-3.0,2.0,-1.0,6.0,10.0,11.0,13.0
1705080915.7285986,5.0,-1.0,-4.0,0.0,-6.0,-9.0,-16.0,-7.0
1705080915.7386413,-2.0,-1.0,3.0,0.0,-1.0,4.0,11.0,-1.0
1705080915.7386413,12.0,10.0,-4.0,-4.0,-3.0,-12.0,-19.0,-16.0
1705080915.7386413,-6.0,-8.0,-11.0,-4.0,-2.0,3.0,7.0,5.0
1705080915.7386413,1.0,-2.0,18.0,6.0,1.0,2.0,3.0,-13.0
1705080915.7685966,9.0,-1.0,-9.0,-5.0,-4.0,-5.0,-5.0,1.0
1705080915.7685966,-9.0,-8.0,1.0,-1.0,3.0,5.0,16.0,8.0
1705080915.7685966,-6.0,-5.0,-5.0,-1.0,-4.0,-7.0,-13.0,-3.0
1705080915.7685966,5.0,8.0,-2.0,-1.0,1.0,-1.0,-3.0,4.0
1705080915.7886012,-1.0,0.0,-8.0,-5.0,-5.0,-2.0,-4.0,-8.0
1705080915.7886012,-2.0,-11.0,11.0,3.0,3.0,6.0,8.0,-8.0
1705080915.7886012,4.0,19.0,0.0,-2.0,-1.0,-1.0,-2.0,-3.0
1705080915.7886012,-2.0,-7.0,-10.0,-2.0,-3.0,-2.0,2.0,5.0
1705080915.798599,3.0,-1.0,2.0,3.0,4.0,2.0,2.0,0.0
1705080915.798599,-1.0,-2.0,-4.0,-5.0,-4.0,1.0,-5.0,-5.0
1705080915.798599,-5.0,-6.0,6.0,1.0,-2.0,-5.0,-4.0,5.0
1705080915.798599,16.0,2.0,0.0,0.0,-1.0,1.0,2.0,-28.0
1705080915.8285968,-1.0,-2.0,-4.0,-3.0,4.0,-2.0,-4.0,1.0
1705080915.8285968,-19.0,4.0,-2.0,0.0,-1.0,-5.0,-9.0,-20.0
1705080915.8285968,8.0,-4.0,1.0,4.0,4.0,-1.0,5.0,5.0
1705080915.8285968,-13.0,-2.0,-7.0,-6.0,-5.0,3.0,6.0,7.0
1705080915.848598,-3.0,-4.0,10.0,1.0,1.0,-4.0,-13.0,-6.0
1705080915.848598,-14.0,-2.0,1.0,-1.0,-2.0,0.0,3.0,3.0
1705080915.848598,-5.0,-3.0,-9.0,-2.0,-4.0,-4.0,-3.0,-24.0
1705080915.848598,-4.0,2.0,7.0,-1.0,3.0,-2.0,-3.0,3.0
1705080915.8586364,7.0,4.0,3.0,0.0,0.0,4.0,0.0,-6.0
1705080915.8586364,11.0,9.0,-5.0,-2.0,1.0,-1.0,0.0,13.0
1705080915.8586364,9.0,-2.0,7.0,4.0,3.0,0.0,0.0,-2.0
1705080915.8586364,-1.0,3.0,-10.0,-3.0,-1.0,-4.0,-3.0,-4.0
1705080915.8885975,6.0,-4.0,3.0,3.0,-7.0,2.0,14.0,8.0
1705080915.8885975,0.0,-2.0,-5.0,-5.0,5.0,-15.0,-19.0,-2.0
1705080915.8885975,-14.0,-6.0,1.0,0.0,-5.0,3.0,-6.0,6.0
1705080915.8885975,18.0,0.0,-7.0,-2.0,-2.0,1.0,-2.0,-9.0
1705080915.8985996,-18.0,-1.0,6.0,-2.0,-6.0,-2.0,-5.0,-14.0
1705080915.8985996,-4.0,-2.0,-7.0,-1.0,-1.0,4.0,7.0,8.0
1705080915.9086373,-2.0,-3.0,4.0,-2.0,1.0,-5.0,4.0,-3.0
1705080915.9086373,0.0,8.0,-1.0,1.0,2.0,0.0,-3.0,13.0
1705080915.9186478,10.0,0.0,-5.0,-2.0,1.0,2.0,3.0,-3.0
1705080915.9186478,-1.0,-11.0,-1.0,-2.0,-3.0,0.0,-3.0,-9.0
1705080915.9186478,-11.0,-16.0,-8.0,-2.0,1.0,-1.0,-6.0,-14.0
1705080915.9186478,-8.0,9.0,-1.0,-2.0,-3.0,1.0,0.0,-1.0
1705080915.9485993,-2.0,-2.0,3.0,-5.0,-1.0,-4.0,-2.0,8.0
1705080915.9485993,9.0,15.0,3.0,1.0,0.0,1.0,5.0,12.0
1705080915.9485993,0.0,3.0,4.0,0.0,-1.0,-1.0,-3.0,3.0
1705080915.9485993,-7.0,-13.0,1.0,2.0,-2.0,-3.0,-4.0,-15.0
1705080915.9585996,9.0,2.0,1.0,2.0,1.0,-1.0,-3.0,-2.0
1705080915.9585996,-2.0,11.0,-4.0,-2.0,-2.0,-1.0,-1.0,-4.0
1705080915.968641,18.0,-2.0,-3.0,1.0,2.0,4.0,2.0,-2.0
1705080915.968641,16.0,5.0,-2.0,-2.0,-3.0,1.0,13.0,15.0
1705080915.978642,-12.0,-1.0,-6.0,-3.0,0.0,-2.0,1.0,-2.0
1705080915.978642,5.0,-7.0,4.0,0.0,-4.0,-1.0,-2.0,2.0
1705080915.978642,-2.0,14.0,4.0,1.0,1.0,4.0,8.0,-6.0
1705080915.978642,-9.0,-9.0,-5.0,1.0,-3.0,-4.0,-5.0,4.0
1705080916.008597,-8.0,-1.0,-1.0,3.0,7.0,5.0,18.0,2.0
1705080916.008597,5.0,-7.0,-4.0,-3.0,1.0,-4.0,-23.0,-7.0
1705080916.008597,-3.0,3.0,-2.0,-3.0,-4.0,-2.0,1.0,12.0
1705080916.008597,-6.0,-8.0,-11.0,-8.0,-4.0,-1.0,-1.0,0.0
1705080916.0186,-26.0,6.0,20.0,8.0,-4.0,-6.0,-9.0,-12.0
1705080916.0186,-1.0,-8.0,-4.0,2.0,-1.0,0.0,8.0,0.0
1705080916.0285993,-4.0,-3.0,-2.0,-3.0,2.0,0.0,-1.0,9.0
1705080916.0285993,0.0,1.0,-3.0,2.0,0.0,4.0,1.0,-3.0
1705080916.0486317,1.0,-4.0,2.0,-8.0,-4.0,-2.0,-8.0,10.0
1705080916.0486317,1.0,4.0,7.0,4.0,3.0,2.0,3.0,-20.0
1705080916.0486317,0.0,-5.0,-4.0,1.0,-1.0,-1.0,0.0,-5.0
1705080916.0486317,-3.0,0.0,3.0,-2.0,2.0,-2.0,4.0,8.0
1705080916.0685978,4.0,-2.0,-12.0,-5.0,-3.0,-4.0,-10.0,7.0
1705080916.0685978,5.0,-2.0,5.0,-3.0,-2.0,1.0,6.0,7.0
1705080916.0685978,-14.0,4.0,2.0,0.0,2.0,-3.0,0.0,-1.0
1705080916.0685978,-22.0,-13.0,2.0,-1.0,-4.0,-4.0,-4.0,-16.0
1705080916.0785995,-4.0,-5.0,-5.0,0.0,-2.0,-1.0,-8.0,-4.0
1705080916.0785995,14.0,6.0,4.0,2.0,-2.0,0.0,0.0,4.0
1705080916.0886369,11.0,2.0,-1.0,2.0,0.0,0.0,4.0,-20.0
1705080916.0886369,-7.0,-3.0,1.0,-1.0,-1.0,-4.0,-8.0,4.0
1705080916.0986369,-1.0,-3.0,-7.0,-1.0,0.0,2.0,0.0,1.0
1705080916.0986369,2.0,-1.0,-6.0,-3.0,-6.0,-5.0,-14.0,-7.0
1705080916.0986369,-8.0,3.0,-4.0,-6.0,-5.0,-6.0,-11.0,-8.0
1705080916.0986369,2.0,7.0,5.0,1.0,3.0,1.0,6.0,9.0
1705080916.1285977,2.0,-8.0,-3.0,-2.0,0.0,-2.0,3.0,-4.0
1705080916.1285977,-7.0,-3.0,-5.0,-5.0,-4.0,-3.0,4.0,5.0
1705080916.1285977,0.0,-8.0,-7.0,4.0,6.0,3.0,5.0,5.0
1705080916.1285977,4.0,-1.0,0.0,-1.0,0.0,3.0,-6.0,7.0
1705080916.1386404,-3.0,3.0,-2.0,-2.0,-4.0,-2.0,-3.0,-9.0
1705080916.1386404,-19.0,-3.0,5.0,1.0,-1.0,2.0,1.0,-11.0
1705080916.1486363,-2.0,-5.0,-14.0,-9.0,-7.0,-4.0,-6.0,-7.0
1705080916.1486363,-29.0,0.0,7.0,1.0,-1.0,-1.0,-2.0,0.0
1705080916.1586397,5.0,3.0,2.0,1.0,1.0,-2.0,-3.0,-8.0
1705080916.1586397,-7.0,-4.0,2.0,-2.0,-2.0,1.0,4.0,-1.0
1705080916.1586397,-6.0,-2.0,-6.0,-3.0,-2.0,-2.0,0.0,15.0
1705080916.1586397,13.0,7.0,0.0,3.0,0.0,-2.0,-2.0,-4.0
1705080916.188198,-33.0,-10.0,-6.0,-5.0,0.0,0.0,-6.0,-3.0
1705080916.188198,3.0,0.0,-7.0,-3.0,-3.0,-6.0,-1.0,-7.0
1705080916.1901584,-12.0,-4.0,8.0,1.0,-2.0,-2.0,-6.0,1.0
1705080916.1901584,9.0,-1.0,-6.0,0.0,-1.0,0.0,-3.0,4.0
1705080916.2012608,5.0,-5.0,0.0,-2.0,-2.0,-1.0,10.0,3.0
1705080916.2012608,1.0,7.0,-4.0,2.0,0.0,4.0,11.0,6.0
1705080916.2112281,23.0,4.0,6.0,-1.0,1.0,0.0,-5.0,8.0
1705080916.2112281,-1.0,-9.0,-4.0,-4.0,-1.0,-3.0,1.0,-7.0
1705080916.221262,7.0,-2.0,-4.0,-1.0,-2.0,-7.0,-23.0,-2.0
1705080916.221262,-1.0,2.0,-4.0,-4.0,2.0,1.0,6.0,2.0
1705080916.221262,4.0,23.0,8.0,0.0,-4.0,-2.0,4.0,3.0
1705080916.221262,13.0,-1.0,2.0,2.0,12.0,3.0,2.0,-14.0
1705080916.2412298,2.0,-17.0,-10.0,-2.0,-9.0,1.0,5.0,2.0
1705080916.2412298,1.0,0.0,0.0,-4.0,-1.0,-3.0,-6.0,12.0
1705080916.2412298,-16.0,-6.0,-3.0,-1.0,-1.0,8.0,-4.0,-8.0
1705080916.2412298,0.0,0.0,-6.0,-3.0,-6.0,-5.0,-4.0,-2.0
1705080916.2612612,0.0,7.0,8.0,4.0,3.0,-1.0,2.0,7.0
1705080916.2612612,-10.0,1.0,1.0,2.0,-1.0,-1.0,-2.0,-12.0
1705080916.2712276,-4.0,-15.0,-2.0,-4.0,-4.0,-7.0,-4.0,-14.0
1705080916.2712276,-3.0,-7.0,-9.0,-6.0,-6.0,-13.0,-14.0,0.0
1705080916.2812314,0.0,1.0,-3.0,-4.0,4.0,6.0,-1.0,0.0
1705080916.2812314,2.0,-4.0,-3.0,-2.0,-2.0,-2.0,1.0,-2.0
1705080916.2812314,8.0,12.0,3.0,1.0,1.0,1.0,2.0,8.0
1705080916.2812314,-22.0,-6.0,5.0,1.0,-2.0,-1.0,-2.0,-15.0
1705080916.3013299,0.0,3.0,-3.0,-1.0,-3.0,-4.0,-2.0,-6.0
1705080916.3013299,1.0,-1.0,-1.0,1.0,10.0,7.0,12.0,9.0
1705080916.3013299,5.0,-4.0,-8.0,-6.0,-5.0,-6.0,-19.0,5.0
1705080916.3013299,7.0,-1.0,3.0,3.0,-3.0,-1.0,-2.0,9.0
1705080916.3213406,-7.0,-1.0,-3.0,-4.0,-4.0,-5.0,-9.0,-11.0
1705080916.3213406,-8.0,-3.0,-9.0,-5.0,-3.0,-1.0,2.0,6.0
1705080916.3312318,2.0,-2.0,2.0,4.0,6.0,2.0,9.0,-1.0
1705080916.3312318,0.0,0.0,5.0,-1.0,-9.0,-1.0,4.0,13.0
1705080916.3512285,-6.0,4.0,11.0,4.0,8.0,1.0,4.0,9.0
1705080916.3512285,4.0,0.0,-4.0,-2.0,-3.0,-2.0,-10.0,-7.0
1705080916.3512285,-3.0,-6.0,-2.0,1.0,0.0,-1.0,6.0,-2.0
1705080916.3512285,-2.0,-2.0,-3.0,-3.0,0.0,3.0,1.0,6.0
1705080916.3614693,10.0,2.0,-7.0,1.0,-4.0,-4.0,-2.0,-14.0
1705080916.3614693,-2.0,-2.0,4.0,0.0,-2.0,-2.0,-4.0,-7.0
1705080916.3614693,-7.0,1.0,10.0,3.0,-4.0,0.0,-5.0,-7.0
1705080916.3614693,-2.0,-3.0,-7.0,-2.0,6.0,4.0,3.0,1.0
1705080916.38123,25.0,4.0,-10.0,-6.0,-1.0,1.0,3.0,18.0
1705080916.38123,26.0,6.0,20.0,6.0,2.0,2.0,1.0,5.0
1705080916.3912292,19.0,1.0,-10.0,0.0,1.0,2.0,7.0,-2.0
1705080916.3912292,-27.0,-15.0,-7.0,-3.0,-5.0,-4.0,-6.0,-12.0
1705080916.401228,9.0,9.0,0.0,-1.0,-3.0,-6.0,-8.0,11.0
1705080916.401228,12.0,2.0,-9.0,-3.0,1.0,-5.0,-25.0,-9.0
1705080916.401228,-42.0,-16.0,10.0,0.0,-3.0,-1.0,3.0,-16.0
1705080916.401228,10.0,10.0,1.0,5.0,1.0,1.0,2.0,2.0
1705080916.421301,4.0,-9.0,3.0,-1.0,0.0,1.0,5.0,-12.0
1705080916.421301,-8.0,8.0,-8.0,-3.0,0.0,4.0,15.0,6.0
1705080916.421301,-1.0,-8.0,3.0,-2.0,-1.0,-3.0,-20.0,-3.0
1705080916.421301,3.0,-1.0,-5.0,-3.0,-3.0,-2.0,-3.0,0.0
1705080916.4415145,-24.0,9.0,-4.0,-4.0,-4.0,-1.0,-3.0,-6.0
1705080916.4415145,3.0,-4.0,2.0,9.0,3.0,-1.0,-1.0,3.0
1705080916.4512334,2.0,-7.0,-6.0,2.0,2.0,0.0,7.0,7.0
1705080916.4512334,-10.0,-1.0,0.0,-1.0,4.0,3.0,1.0,-12.0
1705080916.4712288,1.0,14.0,-3.0,-1.0,-2.0,0.0,6.0,1.0
1705080916.4712288,-4.0,0.0,-1.0,-8.0,-6.0,-7.0,-15.0,1.0
1705080916.4712288,1.0,-7.0,-2.0,-1.0,-1.0,3.0,4.0,-3.0
1705080916.4712288,16.0,4.0,1.0,-2.0,0.0,4.0,16.0,1.0
1705080916.4812624,-11.0,-17.0,3.0,2.0,-4.0,-8.0,-20.0,-8.0
1705080916.4812624,-7.0,-5.0,-2.0,-1.0,-2.0,-3.0,-1.0,6.0
1705080916.4912333,-8.0,11.0,-2.0,-4.0,5.0,17.0,-1.0,-9.0
1705080916.4912333,14.0,0.0,1.0,-3.0,-9.0,-7.0,6.0,14.0
1705080916.5212271,-12.0,-15.0,-3.0,0.0,-3.0,-9.0,-12.0,-6.0
1705080916.5212271,10.0,-1.0,0.0,0.0,-2.0,2.0,9.0,10.0
1705080916.5212271,-3.0,2.0,1.0,0.0,2.0,-5.0,-2.0,-2.0
1705080916.5212271,-6.0,1.0,-2.0,-1.0,4.0,9.0,0.0,3.0
1705080916.5212271,-2.0,1.0,5.0,2.0,-1.0,3.0,10.0,-10.0
1705080916.5212271,-11.0,-8.0,-2.0,-3.0,-4.0,-5.0,-5.0,4.0
1705080916.5212271,10.0,4.0,-1.0,-2.0,-1.0,-3.0,7.0,5.0
1705080916.5212271,5.0,-1.0,-4.0,-1.0,-1.0,0.0,-8.0,1.0
1705080916.5415804,8.0,-4.0,7.0,-4.0,1.0,-2.0,4.0,11.0
1705080916.5415804,-9.0,2.0,-15.0,-5.0,2.0,3.0,2.0,20.0
1705080916.5415804,-11.0,-7.0,-3.0,2.0,-4.0,-6.0,-6.0,-39.0
1705080916.5415804,6.0,4.0,7.0,8.0,1.0,-8.0,-8.0,-14.0
1705080916.5612288,-35.0,-7.0,-6.0,-4.0,-2.0,1.0,-1.0,3.0
1705080916.5612288,-1.0,-8.0,-11.0,-5.0,-5.0,1.0,2.0,6.0
1705080916.571227,3.0,3.0,-1.0,-5.0,-2.0,-1.0,-3.0,6.0
1705080916.571227,-5.0,-3.0,-9.0,-3.0,-3.0,-3.0,-3.0,0.0
1705080916.5814605,7.0,9.0,17.0,3.0,2.0,3.0,6.0,3.0
1705080916.5814605,0.0,-4.0,2.0,2.0,3.0,3.0,3.0,-19.0
1705080916.5814605,-19.0,-3.0,-8.0,-3.0,-6.0,-6.0,-6.0,0.0
1705080916.5814605,-2.0,2.0,7.0,-1.0,1.0,-1.0,-6.0,-22.0
1705080916.6012325,-1.0,-3.0,-7.0,-2.0,0.0,1.0,0.0,-10.0
1705080916.6012325,-11.0,0.0,6.0,0.0,-3.0,-2.0,-2.0,-6.0
1705080916.6012325,0.0,-6.0,-8.0,-2.0,1.0,-1.0,3.0,5.0
1705080916.6012325,-16.0,-9.0,-6.0,-4.0,-3.0,1.0,4.0,5.0
1705080916.631234,-3.0,0.0,-6.0,-2.0,-1.0,0.0,-6.0,-7.0
1705080916.631234,18.0,11.0,6.0,5.0,1.0,1.0,1.0,-4.0
1705080916.631234,-5.0,-6.0,-6.0,-5.0,-6.0,-6.0,0.0,-1.0
1705080916.631234,-7.0,0.0,5.0,0.0,-1.0,0.0,4.0,9.0
1705080916.641333,28.0,6.0,-5.0,1.0,-1.0,2.0,4.0,17.0
1705080916.641333,1.0,-1.0,6.0,0.0,-10.0,-9.0,-11.0,-6.0
1705080916.641333,-3.0,-17.0,-6.0,-5.0,7.0,7.0,10.0,5.0
1705080916.641333,-1.0,6.0,4.0,0.0,1.0,-1.0,-3.0,7.0
1705080916.6712284,11.0,10.0,-6.0,2.0,0.0,2.0,10.0,8.0
1705080916.6712284,-13.0,3.0,-17.0,-4.0,-1.0,-1.0,7.0,-7.0
1705080916.6712284,19.0,-3.0,16.0,5.0,-4.0,-6.0,3.0,22.0
1705080916.6712284,-10.0,-5.0,8.0,4.0,4.0,12.0,-3.0,-12.0
1705080916.691978,-8.0,-4.0,-4.0,-2.0,-7.0,-6.0,-5.0,-2.0
1705080916.691978,-5.0,-2.0,0.0,1.0,2.0,2.0,3.0,4.0
1705080916.694024,16.0,17.0,-1.0,-1.0,-2.0,1.0,7.0,-7.0
1705080916.694024,19.0,3.0,-3.0,-3.0,1.0,-2.0,-2.0,9.0
1705080916.7069826,2.0,0.0,2.0,-1.0,0.0,-2.0,-2.0,0.0
1705080916.7069826,-6.0,-12.0,4.0,1.0,-1.0,-1.0,-1.0,-8.0
1705080916.7089741,-5.0,-4.0,-2.0,-2.0,3.0,0.0,-3.0,-11.0
1705080916.7089741,-7.0,-5.0,-2.0,-1.0,-6.0,-1.0,4.0,-7.0
1705080916.7344942,-6.0,-7.0,-3.0,-2.0,2.0,1.0,-10.0,-5.0
1705080916.7344942,6.0,1.0,-2.0,-5.0,-1.0,-3.0,-7.0,1.0
1705080916.7344942,6.0,11.0,4.0,1.0,-4.0,-2.0,-3.0,-4.0
1705080916.7344942,-1.0,-1.0,-5.0,2.0,-5.0,-8.0,-7.0,2.0
1705080916.7444947,11.0,5.0,-3.0,-1.0,6.0,1.0,12.0,-8.0
1705080916.7444947,-6.0,-4.0,9.0,5.0,11.0,10.0,-1.0,-7.0
1705080916.7444947,-5.0,-3.0,-11.0,-4.0,-5.0,1.0,-10.0,-17.0
1705080916.7444947,1.0,3.0,15.0,-4.0,-2.0,-9.0,-1.0,-1.0
1705080916.7648196,-16.0,-10.0,-6.0,1.0,0.0,-2.0,-5.0,-14.0
1705080916.7648196,13.0,5.0,7.0,1.0,1.0,1.0,8.0,12.0
1705080916.7648196,-3.0,0.0,-4.0,-1.0,-2.0,-3.0,-3.0,17.0
1705080916.7648196,-3.0,-4.0,-13.0,-6.0,-4.0,-5.0,-8.0,-16.0
1705080916.8044958,3.0,-2.0,0.0,-5.0,-4.0,-1.0,-5.0,5.0
1705080916.8044958,-11.0,-1.0,-9.0,-2.0,-3.0,-6.0,-11.0,-19.0
1705080916.8044958,-23.0,-6.0,0.0,-1.0,0.0,0.0,6.0,16.0
1705080916.8044958,10.0,2.0,2.0,0.0,1.0,1.0,-3.0,3.0
1705080916.8044958,-4.0,-5.0,1.0,1.0,0.0,-1.0,-4.0,6.0
1705080916.8044958,15.0,-1.0,6.0,-1.0,-1.0,2.0,4.0,-4.0
1705080916.8044958,16.0,2.0,3.0,-1.0,-1.0,-1.0,0.0,8.0
1705080916.8044958,-2.0,-1.0,-9.0,-1.0,-1.0,-2.0,-2.0,-2.0
1705080916.8252096,-1.0,-4.0,-7.0,-3.0,0.0,1.0,2.0,4.0
1705080916.8252096,-12.0,-3.0,2.0,-1.0,-2.0,-3.0,0.0,3.0
1705080916.8252096,14.0,6.0,-3.0,1.0,-3.0,-2.0,-6.0,-6.0
1705080916.8252096,6.0,-2.0,2.0,-1.0,0.0,0.0,1.0,6.0
1705080916.8547711,1.0,-3.0,2.0,-1.0,-2.0,3.0,11.0,0.0
1705080916.8547711,-8.0,-4.0,-4.0,-1.0,10.0,3.0,8.0,4.0
1705080916.8547711,-11.0,-3.0,0.0,-4.0,-16.0,-13.0,-8.0,5.0
1705080916.8547711,-7.0,4.0,-9.0,-1.0,2.0,0.0,0.0,-14.0
1705080916.8650556,-3.0,3.0,2.0,1.0,-4.0,1.0,3.0,4.0
1705080916.8650556,-6.0,-6.0,3.0,-3.0,-10.0,-7.0,3.0,-6.0
1705080916.8650556,-12.0,-3.0,-4.0,2.0,11.0,11.0,-3.0,-10.0
1705080916.8650556,-7.0,-1.0,-5.0,-4.0,-3.0,-7.0,-1.0,6.0
1705080916.8850102,0.0,-3.0,1.0,0.0,1.0,-1.0,-3.0,-10.0
1705080916.8850102,25.0,4.0,-6.0,2.0,-1.0,-2.0,-5.0,15.0
1705080916.9047732,-18.0,-8.0,-9.0,-4.0,-3.0,-4.0,-4.0,-4.0
1705080916.9047732,-7.0,-10.0,10.0,-1.0,-4.0,1.0,-3.0,-4.0
1705080916.9047732,-14.0,15.0,6.0,4.0,2.0,-1.0,-6.0,4.0
1705080916.9047732,-14.0,-18.0,-15.0,-6.0,-4.0,-1.0,-5.0,-1.0
1705080916.91477,15.0,6.0,2.0,0.0,0.0,-3.0,-4.0,-9.0
1705080916.91477,1.0,-3.0,-7.0,-4.0,3.0,6.0,8.0,6.0
1705080916.9250677,23.0,-3.0,5.0,-4.0,-7.0,-5.0,-2.0,18.0
1705080916.9250677,-56.0,7.0,-18.0,-7.0,-6.0,-9.0,-23.0,-29.0
1705080916.9250677,5.0,-6.0,20.0,10.0,5.0,4.0,7.0,-1.0
1705080916.9250677,32.0,11.0,-2.0,2.0,0.0,0.0,-1.0,-1.0
1705080916.9449956,-60.0,-18.0,-2.0,-4.0,0.0,-2.0,-1.0,-22.0
1705080916.9449956,-2.0,-6.0,-4.0,-5.0,-3.0,1.0,2.0,10.0
1705080916.9647715,3.0,-1.0,-11.0,-7.0,-4.0,-4.0,-7.0,-18.0
1705080916.9647715,-9.0,6.0,1.0,-1.0,-2.0,-2.0,-2.0,1.0
1705080916.9647715,29.0,9.0,8.0,6.0,3.0,1.0,6.0,8.0
1705080916.9647715,-2.0,-2.0,0.0,1.0,0.0,4.0,6.0,5.0
1705080916.9647715,-27.0,-8.0,-6.0,-1.0,-3.0,-5.0,-6.0,-13.0
1705080916.9647715,17.0,9.0,2.0,1.0,2.0,0.0,4.0,9.0
1705080916.9951131,9.0,7.0,-10.0,-6.0,-2.0,-3.0,-2.0,-8.0
1705080916.9951131,4.0,-1.0,7.0,2.0,0.0,-2.0,-14.0,1.0
1705080916.9951131,7.0,0.0,0.0,-5.0,1.0,0.0,2.0,14.0
1705080916.9951131,-12.0,-3.0,-4.0,-2.0,0.0,-1.0,-3.0,-14.0
1705080917.0051033,5.0,-9.0,0.0,0.0,-2.0,-1.0,3.0,-14.0
1705080917.0051033,-6.0,3.0,6.0,1.0,-1.0,0.0,10.0,10.0
1705080917.0147717,3.0,2.0,-5.0,-4.0,-4.0,-7.0,-13.0,0.0
1705080917.0147717,6.0,-5.0,2.0,1.0,0.0,1.0,0.0,0.0
1705080917.0250554,-5.0,-6.0,-2.0,-1.0,-1.0,-1.0,-5.0,-4.0
1705080917.0250554,11.0,0.0,-1.0,1.0,1.0,4.0,12.0,11.0
1705080917.0250554,5.0,1.0,1.0,-3.0,-3.0,-4.0,-6.0,0.0
1705080917.0250554,-10.0,-4.0,-4.0,-2.0,1.0,2.0,0.0,2.0
1705080917.0451465,1.0,3.0,-3.0,-2.0,-4.0,-1.0,-3.0,0.0
1705080917.0451465,10.0,-1.0,1.0,3.0,5.0,0.0,-3.0,-5.0
1705080917.0451465,-7.0,15.0,-3.0,0.0,-7.0,-5.0,2.0,11.0
1705080917.0451465,-13.0,-11.0,-7.0,-2.0,-5.0,-5.0,-8.0,-12.0
1705080917.0647726,0.0,-2.0,-1.0,-1.0,3.0,2.0,1.0,7.0
1705080917.0647726,6.0,-3.0,1.0,-2.0,-12.0,-8.0,-1.0,-10.0
1705080917.0747707,4.0,1.0,-2.0,-2.0,5.0,1.0,-2.0,0.0
1705080917.0747707,0.0,2.0,3.0,1.0,-2.0,-2.0,4.0,5.0
1705080917.08503,-1.0,2.0,-6.0,-5.0,0.0,-1.0,-12.0,3.0
1705080917.08503,-9.0,-11.0,-2.0,-5.0,-1.0,-2.0,3.0,-19.0
1705080917.08503,13.0,0.0,8.0,3.0,-2.0,-4.0,2.0,6.0
1705080917.08503,-6.0,-1.0,5.0,-3.0,-8.0,-1.0,0.0,2.0
1705080917.1052074,8.0,-1.0,-17.0,0.0,6.0,1.0,2.0,3.0
1705080917.1052074,2.0,5.0,15.0,7.0,3.0,1.0,-4.0,4.0
1705080917.1052074,0.0,-4.0,-5.0,4.0,2.0,4.0,6.0,-13.0
1705080917.1052074,-6.0,-3.0,4.0,0.0,2.0,0.0,-2.0,5.0
1705080917.1247723,0.0,-2.0,-6.0,-2.0,0.0,-3.0,0.0,1.0
1705080917.1247723,28.0,1.0,-6.0,-2.0,0.0,-2.0,1.0,-8.0
1705080917.1247723,-4.0,-1.0,0.0,-1.0,4.0,10.0,9.0,0.0
1705080917.1247723,-6.0,-2.0,-3.0,1.0,1.0,-8.0,-25.0,-3.0
1705080917.1451147,-6.0,0.0,1.0,-1.0,-6.0,-4.0,2.0,-4.0
1705080917.1451147,-5.0,3.0,2.0,-2.0,-2.0,2.0,4.0,3.0
1705080917.1451147,-12.0,-3.0,5.0,4.0,3.0,3.0,-11.0,5.0
1705080917.1451147,-6.0,-7.0,-11.0,-5.0,-4.0,-12.0,-12.0,4.0
1705080917.165109,-7.0,-6.0,3.0,-2.0,-3.0,0.0,1.0,-6.0
1705080917.165109,-5.0,0.0,3.0,-1.0,2.0,1.0,-1.0,1.0
1705080917.165109,-5.0,0.0,-2.0,-2.0,-3.0,-1.0,10.0,1.0
1705080917.165109,-12.0,-3.0,-2.0,-4.0,-1.0,3.0,5.0,-5.0
1705080917.1947699,2.0,-3.0,-2.0,-5.0,-1.0,-3.0,-8.0,7.0
1705080917.1947699,-2.0,6.0,10.0,6.0,2.0,0.0,-2.0,0.0
1705080917.1947699,-9.0,-14.0,-2.0,-1.0,-5.0,-3.0,0.0,4.0
1705080917.1947699,24.0,7.0,0.0,1.0,5.0,2.0,0.0,-15.0
1705080917.2051737,8.0,-2.0,0.0,-1.0,-3.0,-1.0,2.0,-4.0
1705080917.2051737,3.0,-3.0,-6.0,-2.0,0.0,-1.0,-3.0,1.0
1705080917.2051737,-25.0,-4.0,-3.0,-4.0,-2.0,-4.0,-5.0,-5.0
1705080917.2051737,-8.0,-6.0,1.0,4.0,-3.0,-1.0,2.0,3.0
1705080917.235543,7.0,-1.0,-5.0,-5.0,-2.0,0.0,4.0,11.0
1705080917.235543,-1.0,-1.0,-3.0,1.0,3.0,0.0,-5.0,7.0
1705080917.235543,23.0,6.0,0.0,-1.0,-1.0,-1.0,-8.0,3.0
1705080917.235543,-3.0,-3.0,-11.0,-5.0,-2.0,4.0,5.0,2.0
1705080917.2455492,-3.0,8.0,21.0,7.0,0.0,-2.0,-4.0,-5.0
1705080917.2455492,-20.0,-3.0,-1.0,-4.0,-3.0,-2.0,-3.0,-17.0
1705080917.254268,8.0,0.0,-5.0,-2.0,-1.0,-1.0,4.0,0.0
1705080917.254268,12.0,6.0,8.0,3.0,2.0,3.0,7.0,5.0
1705080917.2673135,-20.0,4.0,-18.0,-8.0,-4.0,-1.0,-2.0,11.0
1705080917.2673135,2.0,6.0,9.0,2.0,0.0,-3.0,-3.0,0.0
1705080917.2770965,-6.0,-11.0,-5.0,0.0,0.0,1.0,2.0,-11.0
1705080917.2770965,-24.0,-7.0,-6.0,-6.0,-2.0,-3.0,-3.0,-3.0
1705080917.2874012,-7.0,-4.0,-1.0,-1.0,-2.0,-2.0,-3.0,-8.0
1705080917.2874012,12.0,1.0,-5.0,-3.0,-2.0,0.0,1.0,8.0
1705080917.2874012,10.0,7.0,-1.0,-5.0,-1.0,-2.0,1.0,3.0
1705080917.2874012,24.0,8.0,7.0,1.0,-1.0,1.0,4.0,6.0
1705080917.2976847,18.0,2.0,5.0,4.0,1.0,0.0,-3.0,-9.0
1705080917.2976847,-16.0,-14.0,-14.0,-8.0,-5.0,-1.0,-1.0,-4.0
1705080917.327424,-20.0,-10.0,-3.0,-5.0,-2.0,-2.0,1.0,-2.0
1705080917.327424,23.0,18.0,2.0,9.0,4.0,2.0,5.0,9.0
1705080917.3374178,-3.0,6.0,15.0,6.0,1.0,-1.0,-1.0,1.0
1705080917.3374178,-24.0,-10.0,-3.0,-7.0,-2.0,-1.0,-5.0,-20.0
1705080917.3374178,16.0,6.0,-10.0,-1.0,2.0,1.0,6.0,2.0
1705080917.3374178,-10.0,-4.0,-8.0,-6.0,-4.0,0.0,-1.0,9.0
1705080917.3474565,31.0,0.0,1.0,-4.0,-1.0,1.0,4.0,21.0
1705080917.3474565,-52.0,-8.0,2.0,5.0,-2.0,-2.0,-9.0,-29.0
1705080917.3474565,-9.0,-16.0,3.0,1.0,0.0,0.0,1.0,-2.0
1705080917.3474565,13.0,11.0,9.0,1.0,1.0,0.0,2.0,17.0
1705080917.357814,25.0,-9.0,-9.0,-3.0,-1.0,-2.0,-2.0,-6.0
1705080917.357814,13.0,7.0,-1.0,-3.0,-2.0,-1.0,1.0,13.0
1705080917.3676195,5.0,2.0,3.0,1.0,-1.0,1.0,1.0,0.0
1705080917.3676195,-6.0,-7.0,-4.0,0.0,0.0,0.0,-1.0,-7.0
1705080917.3876493,-18.0,-6.0,-5.0,-2.0,-2.0,-1.0,9.0,-3.0
1705080917.3876493,17.0,0.0,-2.0,-1.0,2.0,2.0,3.0,-6.0
1705080917.3876493,7.0,8.0,4.0,1.0,-2.0,-5.0,-18.0,-5.0
1705080917.3876493,-8.0,-6.0,-2.0,-2.0,-1.0,-4.0,1.0,-9.0
1705080917.4074197,-21.0,1.0,-1.0,1.0,-3.0,-1.0,6.0,-7.0
1705080917.4074197,14.0,0.0,-3.0,0.0,7.0,18.0,2.0,22.0
1705080917.4074197,1.0,4.0,2.0,0.0,0.0,1.0,-1.0,-16.0
1705080917.4074197,-17.0,-4.0,-4.0,-6.0,-4.0,-2.0,-6.0,-12.0
1705080917.4176698,-16.0,-9.0,-4.0,1.0,14.0,3.0,-5.0,-8.0
1705080917.4176698,1.0,1.0,-6.0,-4.0,-25.0,-20.0,0.0,6.0
1705080917.4276505,4.0,-1.0,-2.0,-1.0,-3.0,-7.0,-11.0,6.0
1705080917.4276505,-15.0,-14.0,-7.0,-3.0,-1.0,1.0,-3.0,-12.0
1705080917.447737,-6.0,22.0,-6.0,-5.0,-4.0,-3.0,-3.0,-7.0
1705080917.447737,8.0,5.0,10.0,4.0,3.0,0.0,-2.0,7.0
1705080917.447737,-4.0,-11.0,9.0,-3.0,-1.0,3.0,6.0,3.0
1705080917.447737,-4.0,-6.0,-4.0,1.0,-5.0,-3.0,1.0,-4.0
1705080917.4774199,12.0,-4.0,-2.0,-1.0,-1.0,0.0,-5.0,6.0
1705080917.4774199,-6.0,0.0,-5.0,-4.0,0.0,-2.0,-2.0,-13.0
1705080917.4774199,2.0,4.0,0.0,-3.0,-5.0,0.0,4.0,5.0
1705080917.4774199,-7.0,-2.0,4.0,2.0,1.0,1.0,-6.0,6.0
1705080917.4774199,-8.0,-6.0,0.0,-1.0,-2.0,0.0,-6.0,-25.0
1705080917.4774199,-1.0,4.0,-3.0,-1.0,0.0,0.0,-2.0,-11.0
1705080917.487594,21.0,3.0,1.0,3.0,-1.0,-6.0,-2.0,19.0
1705080917.487594,-1.0,1.0,0.0,-4.0,1.0,2.0,-1.0,-7.0
1705080917.5078025,-9.0,-7.0,-3.0,0.0,-1.0,-3.0,0.0,1.0
1705080917.5078025,19.0,1.0,0.0,1.0,0.0,2.0,9.0,8.0
1705080917.5174212,-19.0,-3.0,-3.0,0.0,3.0,1.0,0.0,0.0
1705080917.5174212,2.0,-3.0,-4.0,-4.0,-2.0,2.0,6.0,-22.0
1705080917.5274196,20.0,8.0,3.0,-3.0,-9.0,-9.0,-17.0,15.0
1705080917.5274196,-33.0,-23.0,-3.0,-3.0,-1.0,-3.0,4.0,-6.0
1705080917.5274196,-5.0,-1.0,-4.0,-1.0,2.0,1.0,4.0,-5.0
1705080917.5274196,-13.0,6.0,-3.0,-3.0,-4.0,-3.0,0.0,2.0
1705080917.537822,18.0,3.0,1.0,1.0,-1.0,-1.0,3.0,-7.0
1705080917.537822,11.0,-3.0,10.0,2.0,2.0,0.0,-6.0,2.0
1705080917.547421,-5.0,1.0,-2.0,0.0,-4.0,0.0,-2.0,-5.0
1705080917.547421,-9.0,-4.0,-7.0,-6.0,-5.0,-7.0,-8.0,-8.0
1705080917.5674212,-16.0,-2.0,-6.0,-2.0,-2.0,1.0,0.0,-5.0
1705080917.5674212,13.0,13.0,2.0,5.0,3.0,1.0,-3.0,16.0
1705080917.5674212,-15.0,-13.0,-5.0,-1.0,-2.0,0.0,0.0,-9.0
1705080917.5674212,8.0,2.0,5.0,1.0,0.0,1.0,1.0,-5.0
1705080917.5878663,-11.0,-8.0,-4.0,-5.0,-2.0,0.0,2.0,18.0
1705080917.5878663,-7.0,-5.0,-10.0,-6.0,0.0,-3.0,-5.0,-16.0
1705080917.5878663,23.0,3.0,-2.0,1.0,2.0,3.0,4.0,12.0
1705080917.5878663,3.0,2.0,10.0,0.0,-2.0,-4.0,-2.0,15.0
1705080917.6078706,-10.0,-2.0,-6.0,2.0,0.0,-1.0,-3.0,-13.0
1705080917.6078706,11.0,3.0,1.0,4.0,-1.0,-1.0,-3.0,-5.0
1705080917.6078706,2.0,9.0,1.0,-1.0,-1.0,0.0,-2.0,-4.0
1705080917.6078706,-5.0,-8.0,-7.0,-2.0,1.0,0.0,-4.0,-2.0
1705080917.6374557,-3.0,-6.0,-2.0,0.0,-4.0,-2.0,1.0,6.0
1705080917.6374557,1.0,2.0,-8.0,-1.0,-1.0,-2.0,-2.0,0.0
1705080917.6374557,0.0,5.0,8.0,2.0,-2.0,0.0,6.0,5.0
1705080917.6374557,6.0,2.0,-12.0,-2.0,0.0,-1.0,0.0,-3.0
1705080917.6477776,-11.0,-12.0,3.0,-4.0,-1.0,1.0,-2.0,-14.0
1705080917.6477776,31.0,1.0,-10.0,-1.0,-3.0,-2.0,6.0,19.0
1705080917.6477776,-6.0,0.0,-2.0,-3.0,3.0,1.0,0.0,-2.0
1705080917.6477776,39.0,19.0,0.0,0.0,0.0,3.0,6.0,14.0
1705080917.667856,-3.0,-1.0,0.0,-2.0,-1.0,0.0,4.0,6.0
1705080917.667856,-65.0,-14.0,2.0,1.0,1.0,-2.0,-5.0,-31.0
1705080917.667856,-20.0,-22.0,-10.0,-3.0,-1.0,-1.0,-4.0,-15.0
1705080917.667856,25.0,12.0,-11.0,-5.0,-3.0,-3.0,-1.0,3.0
1705080917.68746,35.0,20.0,22.0,8.0,5.0,1.0,6.0,16.0
1705080917.68746,-25.0,-10.0,4.0,-2.0,-1.0,-3.0,-2.0,5.0
1705080917.68746,27.0,6.0,-1.0,0.0,-2.0,-5.0,-6.0,5.0
1705080917.68746,-39.0,-16.0,-4.0,0.0,2.0,2.0,0.0,3.0
1705080917.7179155,23.0,16.0,-6.0,-4.0,-3.0,-1.0,-5.0,8.0
1705080917.7179155,-3.0,6.0,1.0,-1.0,0.0,-2.0,-2.0,4.0
1705080917.7179155,-39.0,-27.0,-5.0,-2.0,-4.0,-3.0,-6.0,-26.0
1705080917.7179155,18.0,13.0,12.0,0.0,-3.0,-3.0,4.0,1.0
1705080917.7374709,5.0,-2.0,-9.0,-1.0,0.0,0.0,3.0,7.0
1705080917.7374709,12.0,8.0,0.0,0.0,0.0,-2.0,-8.0,0.0
1705080917.7374709,25.0,16.0,-4.0,-1.0,-1.0,-1.0,0.0,10.0
1705080917.7374709,13.0,-1.0,4.0,2.0,0.0,1.0,0.0,-4.0
1705080917.7477314,-75.0,-32.0,-4.0,-1.0,1.0,2.0,4.0,-21.0
1705080917.7477314,12.0,4.0,-7.0,-6.0,-4.0,-11.0,-33.0,-11.0
1705080917.7477314,3.0,6.0,4.0,0.0,0.0,6.0,22.0,-14.0
1705080917.7477314,-16.0,-13.0,-3.0,1.0,-4.0,-6.0,-22.0,-5.0
1705080917.7788692,-6.0,-1.0,1.0,-5.0,-2.0,-4.0,-15.0,-6.0
1705080917.7788692,17.0,2.0,0.0,-1.0,2.0,3.0,12.0,3.0
1705080917.779881,-3.0,1.0,-3.0,-3.0,-7.0,-5.0,-5.0,12.0
1705080917.779881,-14.0,-7.0,3.0,3.0,5.0,7.0,7.0,-6.0
1705080917.7999794,16.0,3.0,0.0,1.0,-1.0,2.0,2.0,-14.0
1705080917.7999794,-9.0,-5.0,-5.0,-2.0,-3.0,0.0,0.0,20.0
1705080917.7999794,19.0,3.0,0.0,1.0,-1.0,-2.0,-1.0,-6.0
1705080917.7999794,5.0,0.0,2.0,-2.0,-1.0,-1.0,3.0,3.0
1705080917.7999794,-6.0,-14.0,-11.0,-2.0,-1.0,-4.0,-6.0,-12.0
1705080917.7999794,11.0,-6.0,1.0,1.0,0.0,1.0,7.0,3.0
1705080917.8101227,-7.0,18.0,5.0,5.0,3.0,3.0,-2.0,6.0
1705080917.8101227,0.0,-9.0,-2.0,-5.0,-2.0,-2.0,0.0,6.0
1705080917.8303933,-3.0,8.0,-6.0,-3.0,-3.0,-3.0,-4.0,-12.0
1705080917.8303933,4.0,3.0,1.0,0.0,-2.0,1.0,5.0,7.0
1705080917.8303933,8.0,-4.0,-7.0,-3.0,1.0,-1.0,-3.0,1.0
1705080917.8303933,-26.0,-9.0,1.0,1.0,0.0,-3.0,-5.0,-15.0
1705080917.8701398,-25.0,-4.0,0.0,0.0,-1.0,-2.0,-1.0,-2.0
1705080917.8701398,8.0,-2.0,0.0,-1.0,-2.0,2.0,4.0,-1.0
1705080917.8701398,-25.0,-8.0,-4.0,-3.0,-1.0,-3.0,-10.0,-8.0
1705080917.8701398,2.0,5.0,10.0,4.0,1.0,0.0,2.0,11.0
1705080917.8701398,12.0,-5.0,-2.0,0.0,0.0,1.0,0.0,-7.0
1705080917.8701398,8.0,13.0,-4.0,-3.0,-2.0,-3.0,-4.0,-5.0
1705080917.8701398,-11.0,-10.0,-9.0,-4.0,-1.0,2.0,4.0,5.0
1705080917.8701398,1.0,-5.0,5.0,2.0,1.0,5.0,4.0,-7.0
1705080917.8901675,1.0,-11.0,-3.0,-2.0,-6.0,-14.0,-30.0,13.0
1705080917.8901675,8.0,-10.0,2.0,-1.0,0.0,-4.0,-10.0,-25.0
1705080917.8901675,2.0,17.0,-2.0,-3.0,0.0,-2.0,-2.0,-1.0
1705080917.8901675,10.0,-6.0,-7.0,-4.0,-3.0,2.0,10.0,6.0
1705080917.9201708,-2.0,6.0,6.0,2.0,3.0,4.0,12.0,-12.0
1705080917.9201708,16.0,7.0,-4.0,0.0,-1.0,-1.0,-4.0,8.0
1705080917.9201708,-5.0,-7.0,8.0,-1.0,-2.0,-3.0,-4.0,13.0
1705080917.9201708,-29.0,-7.0,4.0,4.0,1.0,-1.0,-6.0,-33.0
1705080917.9201708,0.0,12.0,-4.0,-3.0,-3.0,0.0,6.0,10.0
1705080917.9201708,-20.0,0.0,-9.0,-6.0,-1.0,0.0,4.0,-7.0
1705080917.930418,12.0,4.0,1.0,1.0,0.0,2.0,0.0,2.0
1705080917.930418,2.0,3.0,-4.0,-4.0,-2.0,-1.0,-4.0,5.0
1705080917.9501944,-3.0,-16.0,1.0,-2.0,-2.0,-1.0,-3.0,-5.0
1705080917.9501944,-3.0,-2.0,2.0,5.0,0.0,2.0,6.0,2.0
1705080917.9501944,5.0,1.0,-1.0,0.0,4.0,-2.0,-5.0,6.0
1705080917.9501944,-10.0,-7.0,0.0,-1.0,-12.0,-6.0,-4.0,11.0
1705080917.9703538,10.0,-2.0,1.0,-3.0,1.0,2.0,0.0,4.0
1705080917.9703538,0.0,1.0,3.0,-3.0,2.0,3.0,6.0,4.0
1705080917.9703538,-5.0,-6.0,2.0,-2.0,-4.0,-1.0,0.0,-9.0
1705080917.9703538,-2.0,4.0,-14.0,-4.0,0.0,-2.0,-1.0,-4.0
1705080917.98065,-1.0,5.0,9.0,0.0,-1.0,-2.0,0.0,-6.0
1705080917.98065,-4.0,-1.0,-1.0,0.0,1.0,-1.0,1.0,9.0
1705080917.9905257,-6.0,-3.0,-1.0,0.0,-1.0,-3.0,-2.0,-16.0
1705080917.9905257,-2.0,2.0,-5.0,1.0,1.0,1.0,1.0,12.0
1705080918.010379,-4.0,0.0,-3.0,0.0,-3.0,0.0,1.0,3.0
1705080918.010379,-16.0,-3.0,2.0,-2.0,0.0,-2.0,-5.0,-4.0
1705080918.010379,-6.0,-6.0,1.0,-3.0,-2.0,-2.0,-2.0,-27.0
1705080918.010379,19.0,2.0,19.0,8.0,2.0,0.0,0.0,22.0
1705080918.030375,0.0,3.0,-2.0,3.0,2.0,1.0,1.0,2.0
1705080918.030375,-13.0,-10.0,-13.0,-8.0,-4.0,-2.0,1.0,-1.0
1705080918.030375,-18.0,1.0,-5.0,-3.0,-1.0,-1.0,-8.0,-6.0
1705080918.030375,-7.0,-9.0,-3.0,-4.0,0.0,-1.0,-4.0,-12.0
1705080918.040405,8.0,3.0,5.0,-2.0,2.0,-1.0,-1.0,4.0
1705080918.040405,9.0,-6.0,-6.0,-2.0,-2.0,1.0,3.0,5.0
1705080918.0608318,13.0,0.0,7.0,5.0,0.0,2.0,-3.0,7.0
1705080918.0608318,2.0,0.0,-4.0,-1.0,0.0,-3.0,-5.0,-14.0
1705080918.070373,-9.0,-14.0,-6.0,-3.0,2.0,0.0,2.0,-3.0
1705080918.070373,-5.0,-4.0,-8.0,-4.0,-8.0,-7.0,-2.0,-1.0
1705080918.070373,2.0,-10.0,14.0,4.0,4.0,2.0,0.0,-3.0
1705080918.070373,-5.0,21.0,-2.0,-2.0,-4.0,-1.0,-1.0,-4.0
1705080918.0903711,-1.0,-4.0,-3.0,-1.0,1.0,-2.0,2.0,5.0
1705080918.0903711,-2.0,2.0,3.0,0.0,0.0,2.0,-4.0,-11.0
1705080918.0903711,16.0,-4.0,-8.0,-3.0,-5.0,-5.0,0.0,22.0
1705080918.0903711,-18.0,0.0,-3.0,-1.0,0.0,-1.0,-1.0,1.0
1705080918.100613,49.0,7.0,2.0,1.0,-1.0,-1.0,-1.0,7.0
1705080918.100613,-20.0,-13.0,-3.0,-1.0,1.0,-3.0,-6.0,-21.0
1705080918.1106052,-3.0,-2.0,-2.0,1.0,0.0,-2.0,1.0,0.0
1705080918.1106052,-16.0,4.0,-8.0,-4.0,0.0,7.0,7.0,0.0
1705080918.1303785,-2.0,7.0,-9.0,-2.0,-7.0,-18.0,-16.0,5.0
1705080918.1303785,14.0,2.0,15.0,2.0,-1.0,1.0,0.0,10.0
1705080918.1303785,6.0,2.0,-7.0,-3.0,-2.0,0.0,-1.0,-6.0
1705080918.1303785,-1.0,-1.0,3.0,0.0,-2.0,-3.0,0.0,-7.0
1705080918.1504169,-1.0,-8.0,-5.0,2.0,2.0,5.0,9.0,-2.0
1705080918.1504169,9.0,5.0,-3.0,-1.0,3.0,-6.0,-16.0,5.0
1705080918.1504169,-24.0,-10.0,-5.0,-5.0,-3.0,7.0,-2.0,2.0
1705080918.1504169,8.0,2.0,-4.0,-6.0,-5.0,-7.0,-5.0,-10.0
1705080918.1606343,-17.0,0.0,-12.0,-8.0,-5.0,2.0,3.0,-16.0
1705080918.1606343,15.0,2.0,7.0,10.0,3.0,0.0,3.0,-1.0
1705080918.1707952,-7.0,0.0,-2.0,3.0,2.0,-3.0,-1.0,-3.0
1705080918.1707952,36.0,5.0,-7.0,-1.0,3.0,0.0,-3.0,-2.0
1705080918.1904633,-53.0,-12.0,3.0,2.0,-1.0,-1.0,-4.0,-10.0
1705080918.1904633,22.0,-6.0,-4.0,3.0,2.0,4.0,8.0,15.0
1705080918.1904633,10.0,9.0,-1.0,-3.0,1.0,-2.0,-2.0,-2.0
1705080918.1904633,28.0,2.0,-11.0,-5.0,-3.0,-4.0,-1.0,12.0
1705080918.2107587,11.0,13.0,32.0,5.0,0.0,0.0,0.0,10.0
1705080918.2107587,-67.0,-28.0,-7.0,-7.0,-5.0,-3.0,-7.0,-33.0
1705080918.2107587,-8.0,1.0,2.0,1.0,-2.0,0.0,2.0,1.0
1705080918.2107587,-15.0,-8.0,2.0,1.0,1.0,-1.0,-3.0,-1.0
1705080918.2207105,6.0,-2.0,-4.0,-4.0,-2.0,2.0,1.0,12.0
1705080918.2207105,26.0,13.0,0.0,-2.0,-1.0,0.0,3.0,1.0
1705080918.230709,31.0,9.0,-1.0,0.0,3.0,-1.0,4.0,-13.0
1705080918.230709,7.0,-2.0,3.0,-1.0,0.0,-2.0,0.0,17.0
1705080918.250737,-41.0,-11.0,-9.0,2.0,2.0,3.0,-2.0,-22.0
1705080918.250737,-1.0,0.0,6.0,1.0,-2.0,1.0,3.0,20.0
1705080918.250737,-13.0,-4.0,-8.0,-5.0,-3.0,-3.0,-7.0,-11.0
1705080918.250737,20.0,-6.0,12.0,5.0,2.0,2.0,-1.0,-7.0
1705080918.2710295,14.0,17.0,-12.0,-1.0,0.0,1.0,2.0,10.0
1705080918.2710295,-9.0,-1.0,2.0,-1.0,-1.0,0.0,2.0,-11.0
1705080918.2710295,-11.0,-9.0,-1.0,-2.0,0.0,-1.0,2.0,1.0
1705080918.2710295,13.0,-5.0,5.0,-1.0,0.0,-4.0,-10.0,5.0
1705080918.2872052,8.0,-10.0,-3.0,-1.0,-3.0,-2.0,-2.0,-1.0
1705080918.288233,-13.0,4.0,-10.0,-6.0,-1.0,0.0,-3.0,-5.0
1705080918.3159897,13.0,7.0,6.0,4.0,1.0,0.0,1.0,11.0
1705080918.3159897,-20.0,-5.0,-3.0,-1.0,-1.0,-1.0,1.0,-7.0
1705080918.3159897,-14.0,3.0,-4.0,-3.0,-3.0,-2.0,2.0,-1.0
1705080918.3159897,8.0,-4.0,-3.0,-4.0,-4.0,-5.0,-3.0,1.0
1705080918.3159897,-15.0,-5.0,0.0,-1.0,-4.0,0.0,-1.0,-10.0
1705080918.3159897,-12.0,-1.0,3.0,1.0,7.0,0.0,3.0,-15.0
1705080918.3260882,15.0,-2.0,-3.0,0.0,-3.0,4.0,2.0,0.0
1705080918.3260882,-5.0,0.0,-9.0,-5.0,-7.0,-6.0,-2.0,1.0
1705080918.3260882,-8.0,-5.0,3.0,3.0,0.0,-1.0,-5.0,3.0
1705080918.3260882,-1.0,-2.0,4.0,-1.0,-3.0,-3.0,1.0,4.0
1705080918.3460124,2.0,-1.0,-2.0,-5.0,1.0,-3.0,-7.0,2.0
1705080918.3460124,7.0,-11.0,1.0,0.0,-1.0,5.0,-4.0,-2.0
1705080918.3560436,-6.0,1.0,-3.0,-1.0,-4.0,1.0,1.0,4.0
1705080918.3560436,-3.0,1.0,-1.0,-3.0,-4.0,-9.0,-8.0,-2.0
1705080918.3663175,-3.0,1.0,6.0,4.0,3.0,0.0,11.0,4.0
1705080918.3663175,-11.0,-4.0,-1.0,0.0,-6.0,-8.0,-19.0,-2.0
1705080918.3663175,22.0,10.0,-2.0,-5.0,1.0,2.0,2.0,15.0
1705080918.3663175,-17.0,-7.0,-5.0,-2.0,-7.0,-11.0,-18.0,-5.0
1705080918.386429,2.0,-8.0,1.0,-1.0,1.0,4.0,3.0,-4.0
1705080918.386429,13.0,13.0,6.0,0.0,2.0,-5.0,1.0,-4.0
1705080918.386429,-12.0,-2.0,1.0,3.0,2.0,4.0,-1.0,1.0
1705080918.386429,-9.0,-4.0,-9.0,-2.0,-2.0,1.0,0.0,-12.0
1705080918.4060442,-9.0,-1.0,4.0,-4.0,-2.0,-1.0,-9.0,-12.0
1705080918.4060442,11.0,7.0,-2.0,1.0,3.0,5.0,5.0,-1.0
1705080918.4160426,-8.0,-1.0,6.0,1.0,-1.0,-5.0,-3.0,-5.0
1705080918.4160426,5.0,0.0,1.0,-1.0,-2.0,5.0,3.0,-12.0
1705080918.4264052,-5.0,2.0,-4.0,-1.0,-1.0,-9.0,-16.0,0.0
1705080918.4264052,4.0,2.0,-9.0,-2.0,3.0,4.0,7.0,9.0
1705080918.4264052,-2.0,-2.0,21.0,5.0,3.0,1.0,-1.0,-3.0
1705080918.4264052,-12.0,0.0,-10.0,-1.0,2.0,4.0,1.0,-10.0
1705080918.4462855,6.0,-1.0,-1.0,0.0,0.0,-2.0,0.0,-7.0
1705080918.4462855,24.0,14.0,7.0,4.0,2.0,3.0,4.0,9.0
1705080918.4462855,-64.0,-24.0,-30.0,-14.0,-7.0,-7.0,-4.0,-9.0
1705080918.4462855,28.0,11.0,6.0,5.0,1.0,3.0,5.0,2.0
1705080918.4663737,23.0,4.0,4.0,-4.0,-5.0,0.0,2.0,19.0
1705080918.4663737,-7.0,-5.0,-8.0,-2.0,0.0,0.0,2.0,-14.0
1705080918.4760458,-17.0,-12.0,1.0,-2.0,-4.0,-5.0,-6.0,-6.0
1705080918.4760458,-49.0,-33.0,-18.0,-7.0,-4.0,-3.0,-9.0,-28.0
1705080918.4860442,-42.0,-4.0,-7.0,-5.0,-3.0,-2.0,-2.0,-8.0
1705080918.4860442,20.0,-1.0,3.0,-6.0,-4.0,-1.0,1.0,18.0
1705080918.4860442,45.0,9.0,7.0,2.0,0.0,0.0,-2.0,5.0
1705080918.4860442,4.0,11.0,0.0,-2.0,0.0,-2.0,1.0,12.0
1705080918.5062828,44.0,14.0,6.0,1.0,1.0,5.0,8.0,33.0
1705080918.5062828,-28.0,-17.0,-5.0,7.0,2.0,1.0,1.0,-14.0
1705080918.5062828,35.0,15.0,3.0,1.0,-1.0,-3.0,1.0,10.0
1705080918.5062828,7.0,2.0,-10.0,-1.0,-2.0,-3.0,-4.0,7.0
1705080918.526368,6.0,-8.0,-1.0,-3.0,-1.0,1.0,-2.0,-18.0
1705080918.526368,-5.0,11.0,1.0,1.0,0.0,-2.0,-2.0,-5.0
1705080918.5361736,18.0,6.0,-2.0,0.0,2.0,1.0,5.0,12.0
1705080918.5361736,16.0,3.0,1.0,1.0,2.0,3.0,4.0,14.0
1705080918.5460439,-25.0,-8.0,-4.0,0.0,-2.0,-3.0,-5.0,-3.0
1705080918.5460439,-1.0,0.0,1.0,0.0,-1.0,-3.0,-4.0,-9.0
1705080918.5460439,-3.0,0.0,-2.0,-2.0,-3.0,-3.0,-2.0,-8.0
1705080918.5460439,-6.0,-9.0,5.0,0.0,0.0,-1.0,1.0,3.0
1705080918.5763233,8.0,-1.0,1.0,1.0,2.0,4.0,-2.0,-4.0
1705080918.5763233,-9.0,-6.0,3.0,-2.0,-3.0,-5.0,-3.0,4.0
1705080918.596045,-3.0,0.0,-6.0,-1.0,0.0,1.0,7.0,3.0
1705080918.596045,5.0,2.0,0.0,-3.0,-4.0,4.0,-4.0,0.0
1705080918.6060436,2.0,-3.0,-2.0,0.0,0.0,-5.0,-11.0,2.0
1705080918.6060436,-3.0,0.0,2.0,1.0,2.0,5.0,10.0,-4.0
1705080918.6060436,4.0,-4.0,-4.0,-6.0,-3.0,-18.0,-22.0,-11.0
1705080918.6060436,-8.0,-5.0,1.0,0.0,-2.0,-2.0,7.0,-2.0
1705080918.6060436,-9.0,-1.0,0.0,2.0,-1.0,-2.0,0.0,-7.0
1705080918.6060436,-6.0,-2.0,1.0,0.0,-1.0,1.0,-1.0,3.0
1705080918.6160543,2.0,-6.0,-1.0,0.0,2.0,5.0,5.0,3.0
1705080918.6160543,12.0,-4.0,0.0,-2.0,3.0,1.0,0.0,7.0
1705080918.6360433,-4.0,-2.0,-9.0,-2.0,0.0,0.0,0.0,6.0
1705080918.6360433,9.0,4.0,8.0,0.0,2.0,-1.0,-5.0,-7.0
1705080918.6360433,-28.0,-7.0,-5.0,-1.0,-2.0,-1.0,0.0,-7.0
1705080918.6360433,-6.0,18.0,-1.0,-3.0,-1.0,-1.0,-2.0,7.0
1705080918.646356,0.0,-5.0,2.0,-1.0,-3.0,-2.0,-2.0,-16.0
1705080918.646356,7.0,10.0,-3.0,-1.0,6.0,1.0,1.0,6.0
1705080918.6560493,-8.0,2.0,-3.0,-2.0,-7.0,1.0,1.0,2.0
1705080918.6560493,11.0,-5.0,2.0,-1.0,-4.0,-1.0,-8.0,0.0
1705080918.6663535,-30.0,-13.0,-3.0,-2.0,-2.0,-3.0,-4.0,-10.0
1705080918.6663535,-11.0,2.0,5.0,2.0,-4.0,-5.0,2.0,3.0
1705080918.6663535,0.0,-3.0,-1.0,-3.0,5.0,3.0,8.0,-13.0
1705080918.6663535,-14.0,-2.0,-2.0,-4.0,-7.0,-4.0,-22.0,9.0
1705080918.686411,-4.0,4.0,1.0,1.0,3.0,1.0,3.0,-8.0
1705080918.686411,5.0,-2.0,-2.0,-3.0,-6.0,-4.0,-9.0,-6.0
1705080918.686411,11.0,2.0,0.0,0.0,-3.0,0.0,6.0,12.0
1705080918.686411,-27.0,-5.0,1.0,2.0,3.0,5.0,7.0,-20.0
1705080918.7160423,11.0,8.0,-12.0,-6.0,-5.0,-5.0,-2.0,0.0
1705080918.7160423,-29.0,-21.0,-12.0,2.0,-2.0,-5.0,-6.0,-14.0
1705080918.7160423,-8.0,6.0,37.0,12.0,2.0,4.0,-1.0,5.0
1705080918.7160423,-10.0,-11.0,-12.0,-7.0,-1.0,-4.0,-2.0,-7.0
1705080918.7263837,6.0,-4.0,5.0,0.0,-2.0,-1.0,-1.0,-1.0
1705080918.7263837,9.0,9.0,-13.0,-4.0,1.0,2.0,8.0,20.0
1705080918.736378,30.0,8.0,-6.0,-6.0,-2.0,-2.0,-3.0,6.0
1705080918.736378,-14.0,-8.0,-5.0,6.0,2.0,-1.0,1.0,8.0
1705080918.7560434,11.0,-2.0,16.0,-4.0,-5.0,-2.0,-1.0,-4.0
1705080918.7560434,-9.0,-9.0,-14.0,-2.0,-3.0,0.0,-4.0,-3.0
1705080918.7560434,36.0,3.0,-4.0,1.0,1.0,1.0,-4.0,11.0
1705080918.7560434,9.0,17.0,10.0,-1.0,1.0,1.0,11.0,20.0
1705080918.7761729,11.0,-7.0,-34.0,-11.0,-5.0,-6.0,-6.0,-8.0
1705080918.7761729,-72.0,-30.0,16.0,5.0,2.0,-1.0,-9.0,-59.0
1705080918.7761729,-5.0,-4.0,-3.0,-4.0,-4.0,-4.0,-7.0,-16.0
1705080918.7761729,4.0,5.0,0.0,3.0,2.0,-1.0,4.0,-4.0
1705080918.786383,31.0,17.0,8.0,4.0,3.0,2.0,6.0,25.0
1705080918.786383,27.0,10.0,2.0,-5.0,-4.0,1.0,0.0,19.0
1705080918.7960453,-9.0,-10.0,-13.0,-3.0,0.0,-1.0,-2.0,-6.0
1705080918.7960453,-7.0,-7.0,1.0,-3.0,-1.0,1.0,1.0,-6.0
1705080918.8060427,-1.0,-1.0,4.0,3.0,0.0,-1.0,-1.0,-8.0
1705080918.8060427,24.0,9.0,1.0,-3.0,-3.0,-1.0,1.0,11.0
1705080918.8160481,-22.0,-7.0,-9.0,-4.0,-2.0,-1.0,1.0,-2.0
1705080918.8160481,12.0,4.0,1.0,0.0,-1.0,-2.0,-1.0,4.0
1705080918.8364692,-5.0,-4.0,6.0,4.0,3.0,0.0,-2.0,-6.0
1705080918.8364692,6.0,18.0,-8.0,-6.0,-1.0,-1.0,1.0,11.0
1705080918.8375812,-11.0,2.0,-6.0,-1.0,0.0,-4.0,-5.0,-12.0
1705080918.8375812,-1.0,-16.0,6.0,5.0,3.0,4.0,5.0,-6.0
1705080918.848976,-9.0,8.0,-5.0,-6.0,-3.0,-11.0,-8.0,1.0
1705080918.848976,3.0,-11.0,1.0,0.0,-3.0,7.0,2.0,7.0
1705080918.8587847,6.0,14.0,5.0,-3.0,-3.0,0.0,5.0,8.0
1705080918.8587847,3.0,0.0,7.0,4.0,1.0,-2.0,-2.0,-19.0
1705080918.8688192,-14.0,-20.0,-7.0,2.0,1.0,-3.0,-5.0,-8.0
1705080918.8688192,17.0,27.0,18.0,4.0,1.0,0.0,5.0,11.0
1705080918.8688192,-1.0,-9.0,-9.0,-4.0,-3.0,-2.0,-3.0,-3.0
1705080918.8688192,-8.0,-11.0,-7.0,-1.0,-1.0,0.0,3.0,3.0
1705080918.8892293,-9.0,3.0,6.0,-1.0,-1.0,4.0,3.0,1.0
1705080918.8892293,1.0,-6.0,-11.0,-4.0,-1.0,-5.0,-4.0,-13.0
1705080918.8892293,-8.0,-5.0,-1.0,0.0,0.0,1.0,1.0,-19.0
1705080918.8892293,-9.0,-2.0,-6.0,-9.0,-6.0,-1.0,-9.0,3.0
1705080918.908954,1.0,3.0,-1.0,-4.0,-4.0,-5.0,-4.0,14.0
1705080918.908954,-9.0,-4.0,-8.0,-3.0,-2.0,-5.0,-5.0,-9.0
1705080918.918788,2.0,-11.0,0.0,0.0,7.0,5.0,4.0,8.0
1705080918.918788,4.0,2.0,-7.0,-3.0,-11.0,-3.0,0.0,-2.0
1705080918.928824,-2.0,2.0,4.0,1.0,1.0,5.0,4.0,1.0
1705080918.928824,-2.0,-3.0,2.0,1.0,-1.0,6.0,5.0,-8.0
1705080918.93917,11.0,-2.0,-1.0,0.0,2.0,-10.0,-17.0,-2.0
1705080918.93917,3.0,6.0,1.0,0.0,2.0,2.0,2.0,-9.0
1705080918.9492128,-2.0,1.0,1.0,6.0,-6.0,-1.0,1.0,8.0
1705080918.9492128,11.0,-5.0,-2.0,-3.0,1.0,-7.0,-4.0,2.0
1705080918.9492128,2.0,3.0,-10.0,0.0,0.0,7.0,4.0,-3.0
1705080918.9492128,-6.0,5.0,20.0,-1.0,-2.0,-9.0,-7.0,0.0
1705080918.968939,-4.0,-6.0,-12.0,-3.0,-2.0,2.0,0.0,-6.0
1705080918.968939,-2.0,-5.0,-7.0,-3.0,0.0,-2.0,-2.0,-3.0
1705080918.9787886,-11.0,4.0,12.0,7.0,2.0,-4.0,-3.0,-1.0
1705080918.9787886,2.0,1.0,-3.0,-3.0,-1.0,4.0,0.0,3.0
1705080918.9888225,-12.0,-10.0,-6.0,-6.0,-7.0,-9.0,-2.0,-10.0
1705080918.9888225,2.0,-3.0,0.0,0.0,2.0,3.0,2.0,1.0
1705080918.9888225,-5.0,-4.0,-4.0,-2.0,-5.0,-8.0,-4.0,-10.0
1705080918.9888225,3.0,-2.0,-6.0,-1.0,-3.0,-3.0,1.0,3.0
1705080919.008968,-2.0,2.0,6.0,0.0,10.0,11.0,3.0,-9.0
1705080919.008968,0.0,2.0,-4.0,-6.0,-6.0,-4.0,-3.0,19.0
1705080919.028785,9.0,5.0,-2.0,-3.0,-3.0,0.0,-1.0,-4.0
1705080919.028785,0.0,-5.0,-5.0,0.0,3.0,-7.0,1.0,0.0
1705080919.028785,2.0,1.0,0.0,-2.0,-4.0,-5.0,-3.0,0.0
1705080919.028785,8.0,2.0,9.0,9.0,5.0,2.0,-4.0,-9.0
1705080919.028785,4.0,-7.0,-9.0,-2.0,-9.0,0.0,0.0,4.0
1705080919.028785,-6.0,1.0,-2.0,-2.0,1.0,-1.0,-3.0,-4.0
1705080919.0492163,7.0,-6.0,-5.0,-3.0,-3.0,3.0,2.0,3.0
1705080919.0492163,2.0,0.0,10.0,4.0,2.0,-3.0,-2.0,-2.0
1705080919.0492163,-3.0,-6.0,2.0,1.0,-1.0,-1.0,-1.0,5.0
1705080919.0492163,1.0,7.0,-4.0,-1.0,2.0,-1.0,0.0,1.0
1705080919.069234,4.0,2.0,-2.0,0.0,1.0,-4.0,-1.0,3.0
1705080919.069234,-35.0,-30.0,-10.0,-7.0,-3.0,-1.0,-5.0,-23.0
1705080919.069234,-17.0,8.0,-4.0,-5.0,-3.0,0.0,0.0,-1.0
1705080919.069234,-3.0,-1.0,-2.0,-4.0,3.0,0.0,-2.0,-3.0
1705080919.088785,13.0,7.0,4.0,3.0,2.0,1.0,1.0,6.0
1705080919.088785,11.0,4.0,-3.0,0.0,-1.0,2.0,4.0,12.0
1705080919.09879,4.0,-8.0,-1.0,2.0,-5.0,-4.0,2.0,3.0
1705080919.09879,-5.0,0.0,-1.0,-2.0,0.0,3.0,4.0,-2.0
1705080919.1091046,6.0,11.0,5.0,1.0,6.0,6.0,-5.0,-3.0
1705080919.1091046,1.0,-4.0,-3.0,2.0,-6.0,2.0,2.0,0.0
1705080919.1091046,-8.0,-6.0,-3.0,-5.0,1.0,-13.0,-21.0,-1.0
1705080919.1091046,19.0,5.0,-5.0,-1.0,-10.0,-2.0,0.0,1.0
1705080919.1587856,-8.0,-2.0,5.0,-2.0,-2.0,-1.0,6.0,-15.0
1705080919.1587856,-13.0,-6.0,-7.0,-1.0,2.0,1.0,0.0,1.0
1705080919.1587856,7.0,0.0,-3.0,0.0,2.0,2.0,5.0,13.0
1705080919.1587856,-1.0,0.0,0.0,1.0,1.0,-2.0,-5.0,4.0
1705080919.1587856,7.0,-2.0,-2.0,-1.0,1.0,4.0,1.0,5.0
1705080919.1587856,3.0,5.0,-4.0,-6.0,0.0,0.0,0.0,3.0
1705080919.1587856,-13.0,-15.0,1.0,4.0,-3.0,1.0,2.0,10.0
1705080919.1587856,-4.0,10.0,-10.0,-3.0,-1.0,-3.0,-5.0,-18.0
1705080919.1688182,-11.0,-6.0,7.0,2.0,-2.0,-2.0,-1.0,-4.0
1705080919.1688182,11.0,6.0,-4.0,0.0,-1.0,-2.0,-1.0,-8.0
1705080919.1688182,-4.0,-4.0,0.0,-5.0,-6.0,6.0,4.0,-4.0
1705080919.1688182,1.0,-6.0,1.0,-2.0,2.0,-1.0,-6.0,6.0
1705080919.1988177,-16.0,-5.0,2.0,-1.0,-3.0,-5.0,-1.0,-8.0
1705080919.1988177,-2.0,-3.0,2.0,1.0,-4.0,-5.0,0.0,-1.0
1705080919.1988177,3.0,5.0,-2.0,1.0,11.0,0.0,-1.0,1.0
1705080919.1988177,2.0,-6.0,-1.0,3.0,-7.0,10.0,4.0,-1.0
1705080919.2091696,11.0,5.0,-11.0,-1.0,-6.0,-5.0,0.0,5.0
1705080919.2187881,-5.0,9.0,11.0,-1.0,2.0,-1.0,-5.0,1.0
1705080919.2187881,3.0,3.0,1.0,2.0,-2.0,0.0,6.0,-4.0
1705080919.2187881,-1.0,-5.0,-3.0,-4.0,-4.0,-6.0,6.0,5.0
1705080919.2291615,-12.0,-3.0,-5.0,2.0,4.0,2.0,-14.0,1.0
1705080919.2291615,-4.0,4.0,4.0,-3.0,-6.0,-3.0,1.0,-2.0
1705080919.2291615,6.0,0.0,-10.0,-4.0,1.0,-1.0,0.0,-7.0
1705080919.2291615,0.0,-1.0,7.0,0.0,0.0,-1.0,-3.0,1.0
1705080919.2487845,-34.0,-15.0,-1.0,-5.0,-5.0,-3.0,2.0,-16.0
1705080919.2487845,-4.0,-2.0,-1.0,3.0,4.0,1.0,-2.0,3.0
1705080919.2487845,-3.0,2.0,-2.0,-4.0,-7.0,0.0,-1.0,-7.0
1705080919.2487845,11.0,-4.0,-8.0,-3.0,4.0,0.0,0.0,2.0
1705080919.2691765,10.0,5.0,0.0,-2.0,0.0,-1.0,5.0,5.0
1705080919.2691765,3.0,-5.0,-6.0,-2.0,1.0,-8.0,-1.0,3.0
1705080919.2787867,1.0,3.0,4.0,0.0,-1.0,6.0,2.0,10.0
1705080919.2787867,1.0,-1.0,-3.0,0.0,1.0,5.0,0.0,1.0
1705080919.289079,7.0,-2.0,-7.0,0.0,-2.0,-6.0,-7.0,-28.0
1705080919.289079,-4.0,1.0,0.0,-2.0,-1.0,0.0,0.0,7.0
