1701718876.7620432,-1.0,3.0,30.0,7.0,-12.0,-5.0,-4.0,-2.0
1701718876.7720459,1.0,1.0,-7.0,-3.0,7.0,2.0,1.0,1.0
1701718876.782045,-2.0,3.0,3.0,10.0,-13.0,-1.0,-3.0,0.0
1701718876.782045,-1.0,-8.0,-5.0,0.0,0.0,-2.0,-1.0,-1.0
1701718876.7920713,1.0,1.0,21.0,9.0,0.0,-1.0,-1.0,-1.0
1701718876.7920713,-2.0,-5.0,-4.0,2.0,-5.0,0.0,0.0,0.0
1701718876.8020456,-1.0,-1.0,-2.0,11.0,2.0,-1.0,-1.0,-2.0
1701718876.8020456,0.0,4.0,-8.0,-42.0,-25.0,-5.0,-1.0,-3.0
1701718876.8120453,1.0,2.0,0.0,24.0,34.0,6.0,4.0,3.0
1701718876.8120453,0.0,-2.0,20.0,25.0,13.0,1.0,0.0,-1.0
1701718876.8120453,-4.0,-7.0,-51.0,-46.0,-27.0,-14.0,-4.0,-4.0
1701718876.8120453,1.0,0.0,0.0,18.0,36.0,8.0,1.0,2.0
1701718876.8420439,-1.0,-3.0,-58.0,-38.0,-10.0,1.0,-2.0,-2.0
1701718876.8420439,0.0,1.0,19.0,9.0,-8.0,-2.0,1.0,1.0
1701718876.8420439,0.0,-1.0,24.0,10.0,-4.0,1.0,-1.0,-1.0
1701718876.8420439,-4.0,-2.0,1.0,10.0,14.0,-1.0,-3.0,-1.0
1701718876.8520691,0.0,3.0,50.0,28.0,4.0,2.0,1.0,0.0
1701718876.8520691,-1.0,-8.0,-84.0,-46.0,-1.0,1.0,0.0,-1.0
1701718876.8620458,-2.0,7.0,64.0,49.0,-4.0,-6.0,-4.0,-3.0
1701718876.8620458,-2.0,-1.0,-17.0,-22.0,-20.0,-4.0,-2.0,-1.0
1701718876.872113,0.0,4.0,64.0,4.0,20.0,2.0,0.0,0.0
1701718876.872113,-3.0,-13.0,-90.0,-23.0,-8.0,0.0,-2.0,-2.0
1701718876.8820462,-1.0,-6.0,-23.0,-11.0,11.0,-2.0,0.0,-2.0
1701718876.8820462,0.0,5.0,40.0,36.0,-10.0,3.0,-1.0,-1.0
1701718876.9043953,-1.0,4.0,-18.0,-12.0,-3.0,-4.0,0.0,-1.0
1701718876.9043953,0.0,-1.0,-23.0,-5.0,-3.0,-4.0,-3.0,-3.0
1701718876.9043953,-1.0,0.0,7.0,-52.0,3.0,3.0,2.0,0.0
1701718876.9043953,-2.0,-2.0,34.0,41.0,4.0,-6.0,-4.0,-4.0
1701718876.9141388,-3.0,-2.0,26.0,2.0,-13.0,-1.0,-2.0,-2.0
1701718876.9141388,-3.0,-2.0,0.0,7.0,9.0,-1.0,-4.0,-1.0
1701718876.9181736,1.0,0.0,11.0,19.0,2.0,2.0,5.0,1.0
1701718876.9181736,2.0,-1.0,-29.0,-40.0,-8.0,4.0,9.0,4.0
1701718876.928576,-3.0,-4.0,-22.0,22.0,20.0,-2.0,-4.0,-2.0
1701718876.928576,-4.0,-3.0,28.0,13.0,-17.0,-5.0,-15.0,-3.0
1701718876.938179,1.0,2.0,36.0,-1.0,13.0,7.0,16.0,2.0
1701718876.938179,-3.0,-1.0,-12.0,-14.0,-9.0,-8.0,-5.0,-1.0
1701718876.9783885,-1.0,-3.0,15.0,28.0,-7.0,-5.0,0.0,-2.0
1701718876.9783885,3.0,17.0,72.0,-2.0,-8.0,4.0,1.0,0.0
1701718876.9783885,-4.0,-20.0,-81.0,-3.0,-4.0,-3.0,-9.0,-3.0
1701718876.9783885,-2.0,-7.0,-104.0,-33.0,-9.0,-4.0,-4.0,-3.0
1701718876.988472,0.0,1.0,25.0,-19.0,-7.0,1.0,3.0,1.0
1701718876.988472,-1.0,0.0,-20.0,1.0,0.0,-4.0,-2.0,0.0
1701718877.0081735,2.0,10.0,14.0,0.0,-11.0,-3.0,-10.0,-2.0
1701718877.0081735,-2.0,-9.0,13.0,31.0,14.0,5.0,5.0,1.0
1701718877.0186012,0.0,-1.0,68.0,39.0,0.0,-4.0,-6.0,-2.0
1701718877.0186012,-2.0,0.0,-26.0,-69.0,-9.0,0.0,3.0,-1.0
1701718877.0186012,-3.0,-5.0,-20.0,9.0,-3.0,3.0,0.0,0.0
1701718877.0186012,1.0,2.0,28.0,13.0,21.0,1.0,-2.0,0.0
1701718877.0285804,-4.0,-6.0,-28.0,-24.0,-28.0,-8.0,-4.0,-2.0
1701718877.0285804,-3.0,-3.0,15.0,16.0,14.0,1.0,2.0,-1.0
1701718877.0285804,1.0,-1.0,-20.0,5.0,7.0,1.0,-2.0,-1.0
1701718877.0285804,-1.0,11.0,80.0,23.0,-6.0,-5.0,-5.0,-4.0
1701718877.048174,0.0,-8.0,-38.0,-23.0,-20.0,-5.0,-3.0,-2.0
1701718877.048174,0.0,-10.0,-26.0,28.0,-4.0,-1.0,4.0,-2.0
1701718877.048174,-5.0,0.0,16.0,-32.0,-3.0,-8.0,-12.0,-5.0
1701718877.048174,-2.0,1.0,-16.0,-7.0,-8.0,-2.0,0.0,1.0
1701718877.0686352,0.0,13.0,9.0,31.0,14.0,2.0,0.0,1.0
1701718877.0686352,-3.0,-12.0,-64.0,-40.0,-19.0,-3.0,-3.0,2.0
1701718877.0686352,-2.0,0.0,53.0,11.0,-2.0,-8.0,-2.0,-2.0
1701718877.0686352,-2.0,-10.0,-30.0,-4.0,-8.0,3.0,-3.0,-1.0
1701718877.0882306,-1.0,6.0,33.0,-22.0,-4.0,-1.0,-1.0,-1.0
1701718877.0882306,-1.0,9.0,16.0,37.0,12.0,0.0,-1.0,-1.0
1701718877.0882306,-2.0,-9.0,-7.0,-20.0,18.0,3.0,1.0,-3.0
1701718877.0882306,-2.0,-5.0,67.0,4.0,-12.0,-5.0,-2.0,-1.0
1701718877.0986292,1.0,0.0,-43.0,-20.0,-14.0,-3.0,-4.0,0.0
1701718877.0986292,-3.0,-7.0,55.0,69.0,-30.0,-5.0,-4.0,-4.0
1701718877.1281774,4.0,8.0,-111.0,-42.0,67.0,12.0,6.0,4.0
1701718877.1281774,-3.0,13.0,87.0,73.0,4.0,-3.0,-2.0,-6.0
1701718877.1281774,2.0,-17.0,-92.0,-38.0,10.0,7.0,4.0,3.0
1701718877.1281774,-6.0,-9.0,47.0,-34.0,-44.0,-7.0,-2.0,-3.0
1701718877.1281774,-2.0,-13.0,-17.0,51.0,51.0,9.0,1.0,1.0
1701718877.1281774,-4.0,-8.0,-27.0,3.0,-30.0,-6.0,-6.0,-2.0
1701718877.1481755,-2.0,1.0,-19.0,5.0,43.0,5.0,2.0,1.0
1701718877.1481755,5.0,13.0,25.0,-88.0,-21.0,-6.0,0.0,2.0
1701718877.1481755,-4.0,11.0,-7.0,30.0,19.0,3.0,0.0,-2.0
1701718877.1481755,2.0,18.0,-45.0,-34.0,-8.0,0.0,1.0,1.0
1701718877.158176,-11.0,-48.0,-40.0,17.0,-25.0,-9.0,-8.0,-8.0
1701718877.158176,4.0,-1.0,22.0,20.0,60.0,11.0,6.0,3.0
1701718877.1685345,-6.0,-14.0,-28.0,-60.0,-80.0,-15.0,-8.0,-5.0
1701718877.1685345,-1.0,16.0,74.0,103.0,59.0,7.0,1.0,0.0
1701718877.1781752,-1.0,16.0,-13.0,-29.0,-7.0,-3.0,-1.0,-4.0
1701718877.1781752,-2.0,1.0,52.0,-76.0,-57.0,-11.0,-6.0,-4.0
1701718877.1781752,1.0,-17.0,-56.0,-65.0,-3.0,0.0,-1.0,1.0
1701718877.1781752,2.0,19.0,90.0,56.0,24.0,-1.0,-3.0,-2.0
1701718877.1983156,0.0,-11.0,-61.0,-53.0,36.0,8.0,1.0,1.0
1701718877.1983156,-10.0,-18.0,-34.0,36.0,-25.0,-10.0,-7.0,-6.0
1701718877.1983156,3.0,7.0,74.0,-54.0,14.0,11.0,7.0,6.0
1701718877.1983156,-6.0,-5.0,-84.0,-99.0,-41.0,-16.0,-6.0,-5.0
1701718877.218172,6.0,5.0,1.0,127.0,74.0,24.0,9.0,7.0
1701718877.218172,-4.0,-3.0,-66.0,-76.0,-50.0,-10.0,-4.0,-3.0
1701718877.218172,6.0,7.0,76.0,68.0,-6.0,0.0,1.0,1.0
1701718877.218172,-7.0,-22.0,23.0,45.0,16.0,4.0,-2.0,-4.0
1701718877.2286043,-2.0,-16.0,59.0,9.0,-38.0,-2.0,-3.0,-1.0
1701718877.2286043,-2.0,-1.0,-49.0,-13.0,-108.0,-17.0,-11.0,-4.0
1701718877.2385,1.0,-9.0,-108.0,33.0,82.0,15.0,6.0,2.0
1701718877.2385,5.0,14.0,96.0,-60.0,-41.0,-3.0,1.0,3.0
1701718877.2586298,-1.0,7.0,65.0,53.0,-39.0,-13.0,-6.0,-5.0
1701718877.2586298,3.0,11.0,72.0,8.0,80.0,14.0,6.0,3.0
1701718877.2586298,2.0,3.0,33.0,-41.0,-71.0,-7.0,3.0,1.0
1701718877.2586298,-7.0,-20.0,-40.0,-20.0,7.0,-4.0,-5.0,-6.0
1701718877.2781742,6.0,15.0,21.0,-24.0,-50.0,2.0,3.0,3.0
1701718877.2781742,-8.0,-15.0,-48.0,12.0,17.0,-1.0,-5.0,-7.0
1701718877.2781742,4.0,20.0,55.0,17.0,1.0,2.0,3.0,2.0
1701718877.2781742,-1.0,-10.0,-127.0,-75.0,15.0,-3.0,0.0,-1.0
1701718877.2882214,-6.0,0.0,-32.0,-41.0,-22.0,-8.0,-5.0,-5.0
1701718877.2882214,-2.0,10.0,102.0,28.0,42.0,6.0,1.0,-2.0
1701718877.2981842,-5.0,6.0,49.0,40.0,-35.0,-6.0,-6.0,-4.0
1701718877.2981842,-5.0,-18.0,-70.0,-37.0,-38.0,-3.0,-1.0,-1.0
1701718877.318521,3.0,4.0,45.0,33.0,9.0,-6.0,-3.0,-2.0
1701718877.318521,1.0,2.0,-18.0,29.0,43.0,11.0,22.0,3.0
1701718877.318521,-7.0,-10.0,4.0,11.0,-17.0,-12.0,-15.0,-8.0
1701718877.318521,6.0,3.0,-3.0,10.0,10.0,4.0,4.0,8.0
1701718877.3481736,-1.0,6.0,-14.0,-55.0,15.0,-3.0,-7.0,-7.0
1701718877.3481736,4.0,7.0,-24.0,39.0,25.0,6.0,7.0,6.0
1701718877.3481736,-2.0,-7.0,12.0,-9.0,-20.0,-4.0,1.0,0.0
1701718877.3481736,-1.0,-8.0,-22.0,-5.0,-12.0,-9.0,-14.0,-5.0
1701718877.3785229,-4.0,-2.0,-10.0,-11.0,-4.0,2.0,9.0,3.0
1701718877.3785229,2.0,-1.0,2.0,-9.0,2.0,-7.0,-18.0,-1.0
1701718877.388181,-3.0,3.0,13.0,29.0,1.0,6.0,4.0,-3.0
1701718877.388181,3.0,-2.0,5.0,4.0,13.0,12.0,32.0,7.0
1701718877.3982074,-2.0,-1.0,-8.0,-36.0,-9.0,-6.0,-6.0,-3.0
1701718877.3982074,-1.0,-3.0,-23.0,18.0,17.0,-1.0,-5.0,-2.0
1701718877.3982074,-2.0,0.0,-15.0,-11.0,-14.0,-12.0,-31.0,-10.0
1701718877.3982074,0.0,5.0,26.0,15.0,13.0,-2.0,2.0,2.0
1701718877.4181788,-2.0,-10.0,-55.0,-17.0,-11.0,-2.0,-10.0,0.0
1701718877.4181788,-6.0,-1.0,11.0,-8.0,-4.0,-10.0,-12.0,-10.0
1701718877.4181788,5.0,-1.0,-10.0,13.0,-2.0,17.0,36.0,5.0
1701718877.4181788,-1.0,-1.0,-15.0,-12.0,-4.0,6.0,17.0,4.0
1701718877.4181788,7.0,2.0,69.0,21.0,-2.0,-5.0,5.0,1.0
1701718877.4181788,-12.0,-3.0,-15.0,2.0,3.0,-7.0,1.0,5.0
1701718877.4338706,-9.0,-5.0,-12.0,1.0,-2.0,-3.0,-15.0,0.0
1701718877.4338706,-1.0,-2.0,2.0,4.0,6.0,-12.0,-40.0,-14.0
1701718877.4399476,-4.0,1.0,-2.0,-12.0,-2.0,4.0,-13.0,-12.0
1701718877.44097,0.0,-7.0,-4.0,3.0,1.0,3.0,37.0,3.0
1701718877.44097,8.0,-1.0,4.0,-3.0,-3.0,-5.0,-5.0,0.0
1701718877.44097,-3.0,-4.0,2.0,3.0,-8.0,-3.0,-12.0,-3.0
1701718877.4710839,-9.0,-2.0,-7.0,-2.0,-2.0,-10.0,-11.0,-2.0
1701718877.4710839,11.0,1.0,-1.0,-2.0,1.0,1.0,-24.0,-15.0
1701718877.4710839,-5.0,-1.0,-4.0,3.0,-2.0,2.0,16.0,16.0
1701718877.4710839,4.0,0.0,-6.0,-2.0,1.0,3.0,15.0,-1.0
1701718877.4710839,1.0,8.0,9.0,-2.0,-3.0,-7.0,-10.0,-6.0
1701718877.4710839,-3.0,-6.0,-24.0,-1.0,9.0,9.0,12.0,3.0
1701718877.4814928,4.0,1.0,12.0,-5.0,-5.0,-15.0,-21.0,-15.0
1701718877.4814928,-9.0,-1.0,-3.0,1.0,-4.0,-1.0,-18.0,11.0
1701718877.4918737,-3.0,1.0,-2.0,-5.0,-2.0,6.0,31.0,5.0
1701718877.4918737,2.0,5.0,10.0,12.0,5.0,7.0,3.0,7.0
1701718877.4918737,-3.0,-2.0,-10.0,-1.0,-5.0,-9.0,-1.0,-5.0
1701718877.4918737,-1.0,-2.0,20.0,4.0,-4.0,0.0,-18.0,-7.0
1701718877.511505,-2.0,-5.0,-37.0,-11.0,2.0,-9.0,-2.0,-5.0
1701718877.511505,-2.0,3.0,5.0,1.0,4.0,5.0,-9.0,-1.0
1701718877.5217206,1.0,-4.0,-11.0,-3.0,-5.0,-8.0,-9.0,-7.0
1701718877.5217206,6.0,3.0,7.0,3.0,0.0,8.0,32.0,6.0
1701718877.5316844,-5.0,-9.0,2.0,0.0,4.0,6.0,1.0,7.0
1701718877.5316844,0.0,0.0,-1.0,-3.0,-3.0,-11.0,-3.0,-6.0
1701718877.541664,-13.0,1.0,-5.0,1.0,0.0,-5.0,-38.0,-3.0
1701718877.541664,13.0,-3.0,-10.0,-3.0,0.0,13.0,36.0,-4.0
1701718877.5615034,-7.0,3.0,8.0,4.0,-2.0,0.0,13.0,-5.0
1701718877.5615034,4.0,4.0,-2.0,1.0,-4.0,0.0,-3.0,10.0
1701718877.5615034,-5.0,-9.0,2.0,-1.0,-3.0,-11.0,-2.0,4.0
1701718877.5615034,-4.0,0.0,-9.0,-8.0,-1.0,-4.0,-15.0,-11.0
1701718877.5717943,5.0,-1.0,8.0,2.0,2.0,-5.0,-14.0,7.0
1701718877.5717943,-6.0,-1.0,2.0,-1.0,0.0,1.0,20.0,10.0
1701718877.581509,8.0,-1.0,-6.0,-5.0,-5.0,-1.0,-13.0,-12.0
1701718877.581509,-4.0,-2.0,-2.0,-1.0,-1.0,-2.0,5.0,3.0
1701718877.5917408,-11.0,2.0,2.0,1.0,0.0,-5.0,-27.0,-16.0
1701718877.5917408,-4.0,0.0,-1.0,-5.0,-7.0,-5.0,11.0,10.0
1701718877.6017787,0.0,-2.0,-2.0,1.0,3.0,5.0,4.0,0.0
1701718877.6017787,-6.0,-6.0,-9.0,-4.0,2.0,-6.0,-7.0,-4.0
1701718877.6315022,6.0,2.0,9.0,0.0,-4.0,1.0,6.0,21.0
1701718877.6315022,-1.0,-2.0,4.0,7.0,0.0,0.0,-1.0,-23.0
1701718877.6315022,-5.0,-2.0,-9.0,-3.0,-1.0,-8.0,-10.0,0.0
1701718877.6315022,-1.0,0.0,7.0,0.0,-2.0,7.0,1.0,-1.0
1701718877.6315022,-8.0,1.0,13.0,-1.0,-2.0,-5.0,10.0,-7.0
1701718877.6315022,3.0,-4.0,-12.0,-6.0,-4.0,1.0,-6.0,-10.0
1701718877.6416423,7.0,-1.0,-2.0,1.0,-1.0,-2.0,17.0,1.0
1701718877.6416423,7.0,-6.0,-3.0,-4.0,-5.0,-5.0,-21.0,-6.0
1701718877.6516292,-10.0,4.0,13.0,5.0,3.0,6.0,-3.0,-5.0
1701718877.6516292,-24.0,-5.0,1.0,-2.0,5.0,-7.0,-4.0,-8.0
1701718877.6915028,14.0,2.0,7.0,2.0,-3.0,10.0,15.0,2.0
1701718877.6915028,-5.0,7.0,-10.0,-3.0,-3.0,-4.0,-11.0,10.0
1701718877.6915028,11.0,7.0,-7.0,2.0,4.0,12.0,10.0,-18.0
1701718877.6915028,-1.0,-19.0,3.0,-1.0,-1.0,-4.0,-12.0,6.0
1701718877.6915028,-14.0,-8.0,-1.0,2.0,-3.0,-4.0,1.0,-12.0
1701718877.6915028,-1.0,-2.0,-9.0,-5.0,-6.0,-17.0,-29.0,-16.0
1701718877.6915028,-2.0,-2.0,-9.0,-4.0,-3.0,4.0,7.0,3.0
1701718877.6915028,-3.0,5.0,-2.0,-5.0,-2.0,-4.0,-22.0,-4.0
1701718877.7015295,1.0,3.0,4.0,-2.0,-2.0,2.0,16.0,-3.0
1701718877.7015295,8.0,0.0,-1.0,3.0,-1.0,5.0,1.0,-4.0
1701718877.7118814,3.0,3.0,-2.0,1.0,3.0,-6.0,-3.0,2.0
1701718877.7118814,6.0,-9.0,2.0,-1.0,-5.0,-4.0,-7.0,0.0
1701718877.7218974,-9.0,2.0,-3.0,-2.0,-2.0,-8.0,-6.0,-2.0
1701718877.7218974,12.0,-1.0,-3.0,-1.0,0.0,-3.0,-13.0,-5.0
1701718877.7415032,-7.0,-4.0,-5.0,-2.0,2.0,17.0,35.0,-10.0
1701718877.7415032,7.0,5.0,1.0,4.0,-2.0,-2.0,1.0,30.0
1701718877.7415032,0.0,4.0,-6.0,-4.0,3.0,2.0,8.0,15.0
1701718877.7415032,-19.0,-5.0,4.0,-2.0,1.0,-10.0,-5.0,0.0
1701718877.7519054,0.0,-10.0,-2.0,1.0,-4.0,-6.0,-23.0,-19.0
1701718877.7519054,20.0,4.0,-12.0,-9.0,-3.0,8.0,23.0,20.0
1701718877.7617798,-9.0,9.0,3.0,0.0,0.0,0.0,-6.0,-2.0
1701718877.7617798,-1.0,-3.0,2.0,5.0,1.0,1.0,2.0,-3.0
1701718877.7717357,-4.0,2.0,-4.0,-1.0,0.0,-5.0,3.0,7.0
1701718877.7717357,-2.0,-1.0,2.0,1.0,-2.0,-1.0,-4.0,-5.0
1701718877.7915044,4.0,-1.0,-5.0,1.0,1.0,0.0,-6.0,-4.0
1701718877.7915044,-8.0,5.0,2.0,0.0,-1.0,2.0,16.0,5.0
1701718877.7915044,-1.0,-1.0,5.0,1.0,-3.0,-4.0,-1.0,2.0
1701718877.7915044,0.0,1.0,5.0,3.0,-2.0,-6.0,-23.0,1.0
1701718877.7915044,8.0,-9.0,-10.0,-4.0,1.0,1.0,13.0,-6.0
1701718877.7915044,-12.0,-14.0,-3.0,-2.0,1.0,2.0,2.0,-4.0
1701718877.841507,0.0,-1.0,0.0,-3.0,-6.0,-14.0,-15.0,-4.0
1701718877.841507,-4.0,-1.0,-3.0,-5.0,1.0,1.0,1.0,-17.0
1701718877.8515024,-9.0,5.0,5.0,2.0,0.0,10.0,-2.0,-3.0
1701718877.8515024,-5.0,-7.0,-5.0,-4.0,-1.0,1.0,16.0,2.0
1701718877.8619606,-6.0,2.0,-4.0,-2.0,-4.0,-8.0,-5.0,7.0
1701718877.8619606,5.0,-7.0,-5.0,-4.0,-5.0,-13.0,-33.0,-16.0
1701718877.8619606,-6.0,1.0,4.0,4.0,0.0,9.0,16.0,1.0
1701718877.8619606,18.0,-4.0,0.0,1.0,1.0,7.0,2.0,2.0
1701718877.8817465,19.0,4.0,1.0,-4.0,3.0,-5.0,-11.0,-10.0
1701718877.8817465,-8.0,6.0,3.0,4.0,1.0,5.0,-2.0,3.0
1701718877.891503,5.0,-2.0,-7.0,-3.0,-6.0,-9.0,5.0,-2.0
1701718877.891503,12.0,9.0,-1.0,-6.0,-5.0,-7.0,-6.0,20.0
1701718877.891503,-22.0,-7.0,-6.0,2.0,0.0,-3.0,-17.0,-8.0
1701718877.891503,-2.0,-7.0,-2.0,-2.0,-3.0,2.0,15.0,-10.0
1701718877.891503,3.0,0.0,2.0,0.0,-4.0,-14.0,-33.0,0.0
1701718877.891503,3.0,2.0,4.0,3.0,4.0,7.0,5.0,20.0
1701718877.9215076,15.0,2.0,-7.0,-5.0,-6.0,-3.0,-14.0,-28.0
1701718877.9215076,-4.0,2.0,0.0,1.0,3.0,3.0,9.0,-6.0
1701718877.9215076,-13.0,-4.0,6.0,3.0,2.0,5.0,5.0,-2.0
1701718877.9215076,14.0,1.0,-7.0,-2.0,-3.0,-7.0,11.0,-22.0
1701718877.931825,-21.0,-8.0,2.0,-3.0,-1.0,9.0,26.0,20.0
1701718877.931825,-1.0,1.0,-2.0,3.0,-3.0,-4.0,-8.0,1.0
1701718877.931825,6.0,-4.0,-3.0,-4.0,-3.0,-4.0,-14.0,-4.0
1701718877.931825,12.0,3.0,-7.0,-6.0,-4.0,4.0,10.0,-4.0
1701718877.962929,10.0,12.0,6.0,5.0,2.0,-2.0,-6.0,2.0
1701718877.962929,5.0,-14.0,-3.0,-2.0,2.0,12.0,12.0,-27.0
1701718877.962929,-13.0,7.0,6.0,2.0,4.0,4.0,21.0,29.0
1701718877.962929,29.0,-8.0,-8.0,-1.0,-5.0,-19.0,-32.0,-18.0
1701718877.9728782,-8.0,-11.0,-1.0,-5.0,-3.0,-1.0,9.0,1.0
1701718877.973547,17.0,-2.0,1.0,0.0,-1.0,-7.0,16.0,7.0
1701718877.974534,42.0,-2.0,0.0,4.0,1.0,18.0,14.0,-6.0
1701718877.974534,-26.0,-1.0,-3.0,-3.0,3.0,0.0,-5.0,-16.0
1701718877.9800384,6.0,0.0,7.0,3.0,1.0,-6.0,9.0,47.0
1701718877.9800384,22.0,4.0,-18.0,-19.0,-6.0,-17.0,-34.0,-24.0
1701718877.9800384,-12.0,-11.0,12.0,-2.0,-7.0,2.0,8.0,33.0
1701718877.9800384,-44.0,-4.0,13.0,5.0,0.0,14.0,19.0,3.0
1701718877.9941502,78.0,7.0,-31.0,-8.0,-3.0,-14.0,-35.0,-14.0
1701718877.9941502,-85.0,-8.0,5.0,6.0,6.0,26.0,77.0,53.0
1701718877.9941502,41.0,4.0,0.0,1.0,-1.0,-30.0,-50.0,-6.0
1701718877.9941502,21.0,-25.0,-1.0,-17.0,-14.0,-3.0,13.0,-41.0
1701718878.0138965,38.0,36.0,19.0,9.0,14.0,35.0,22.0,24.0
1701718878.0138965,61.0,13.0,0.0,2.0,4.0,17.0,-11.0,70.0
1701718878.0240119,-30.0,-8.0,-12.0,-10.0,-9.0,-12.0,40.0,-70.0
1701718878.0240119,-18.0,9.0,12.0,8.0,7.0,-16.0,-9.0,-36.0
1701718878.0340533,-40.0,-5.0,-8.0,-7.0,-8.0,-7.0,-9.0,-60.0
1701718878.0340533,-10.0,11.0,21.0,16.0,6.0,-6.0,-8.0,-91.0
1701718878.0438647,-74.0,-25.0,-29.0,-23.0,-9.0,1.0,-17.0,62.0
1701718878.0438647,92.0,16.0,1.0,21.0,21.0,70.0,62.0,45.0
1701718878.0638587,-98.0,-37.0,-8.0,-4.0,-10.0,-39.0,6.0,-31.0
1701718878.0638587,85.0,1.0,4.0,-5.0,0.0,14.0,7.0,44.0
1701718878.0638587,-65.0,15.0,4.0,10.0,8.0,38.0,55.0,3.0
1701718878.0638587,-128.0,-11.0,-7.0,-2.0,-1.0,-2.0,7.0,-16.0
1701718878.0738556,58.0,-1.0,9.0,-7.0,-5.0,-8.0,-1.0,1.0
1701718878.0738556,-26.0,6.0,-17.0,4.0,-6.0,-20.0,-44.0,-40.0
1701718878.084062,21.0,17.0,13.0,13.0,4.0,-19.0,-26.0,7.0
1701718878.084062,-42.0,-17.0,-12.0,-9.0,0.0,13.0,14.0,31.0
1701718878.094204,-46.0,1.0,4.0,6.0,-2.0,15.0,7.0,11.0
1701718878.094204,-63.0,-5.0,20.0,0.0,-4.0,-13.0,-40.0,-8.0
1701718878.1038597,31.0,-7.0,-17.0,-9.0,-4.0,-15.0,-50.0,-57.0
1701718878.1038597,-13.0,15.0,6.0,4.0,0.0,-1.0,-11.0,8.0
1701718878.1138592,6.0,-8.0,-1.0,-10.0,-2.0,2.0,4.0,-2.0
1701718878.1138592,-2.0,-14.0,1.0,-9.0,-7.0,-8.0,21.0,13.0
1701718878.1138592,-6.0,-5.0,-17.0,0.0,4.0,9.0,-1.0,-5.0
1701718878.1138592,10.0,-2.0,6.0,-2.0,-10.0,-28.0,-27.0,2.0
1701718878.1341872,-7.0,-4.0,-2.0,2.0,1.0,4.0,-6.0,10.0
1701718878.1341872,9.0,3.0,-29.0,-13.0,-1.0,0.0,1.0,-11.0
1701718878.1442475,18.0,-6.0,11.0,1.0,0.0,3.0,11.0,2.0
1701718878.1442475,30.0,7.0,-3.0,-4.0,-7.0,-17.0,-31.0,-8.0
1701718878.1542656,22.0,4.0,1.0,12.0,-6.0,-2.0,2.0,17.0
1701718878.1542656,-15.0,-2.0,4.0,8.0,4.0,6.0,6.0,-11.0
1701718878.1640806,16.0,4.0,2.0,0.0,-6.0,-3.0,-3.0,-11.0
1701718878.1640806,11.0,-2.0,-6.0,-5.0,13.0,-5.0,-8.0,4.0
1701718878.1738586,-9.0,-6.0,-4.0,-3.0,3.0,2.0,-6.0,-4.0
1701718878.1738586,1.0,-3.0,-16.0,1.0,-7.0,-5.0,1.0,2.0
1701718878.1738586,2.0,2.0,4.0,-9.0,-6.0,-3.0,0.0,3.0
1701718878.1738586,8.0,0.0,2.0,4.0,-13.0,-8.0,-11.0,-2.0
1701718878.1941178,3.0,-6.0,-8.0,-9.0,-7.0,0.0,1.0,-1.0
1701718878.1941178,8.0,1.0,11.0,13.0,25.0,4.0,1.0,-7.0
1701718878.2041943,14.0,2.0,0.0,-5.0,-9.0,0.0,0.0,5.0
1701718878.2041943,-1.0,-1.0,6.0,4.0,-8.0,-10.0,-5.0,-7.0
1701718878.2142458,6.0,3.0,2.0,-14.0,3.0,4.0,-2.0,-3.0
1701718878.2142458,0.0,-2.0,4.0,7.0,-4.0,-4.0,-2.0,-2.0
1701718878.2238598,-2.0,-1.0,-1.0,-3.0,1.0,-4.0,-4.0,0.0
1701718878.2238598,-1.0,-1.0,2.0,-3.0,-9.0,-5.0,-6.0,-2.0
1701718878.2538562,-3.0,-1.0,-4.0,3.0,-5.0,-2.0,-2.0,1.0
1701718878.2538562,1.0,0.0,3.0,-9.0,-10.0,-3.0,-3.0,-2.0
1701718878.2538562,4.0,-4.0,7.0,19.0,11.0,-1.0,2.0,-3.0
1701718878.2538562,7.0,0.0,-23.0,-30.0,3.0,-5.0,-5.0,0.0
1701718878.2538562,3.0,2.0,0.0,15.0,-8.0,-2.0,-1.0,2.0
1701718878.2538562,-5.0,0.0,2.0,-14.0,8.0,3.0,3.0,-3.0
1701718878.264197,3.0,2.0,5.0,24.0,-8.0,0.0,-3.0,-2.0
1701718878.264197,1.0,2.0,6.0,-4.0,-26.0,-6.0,-5.0,-1.0
1701718878.2738576,-1.0,-6.0,-13.0,-20.0,25.0,7.0,4.0,2.0
1701718878.2738576,-1.0,-4.0,1.0,8.0,13.0,-2.0,-1.0,-2.0
1701718878.2838573,1.0,-1.0,6.0,-1.0,-8.0,-3.0,-3.0,-1.0
1701718878.2838573,2.0,0.0,-5.0,0.0,-9.0,-6.0,-1.0,-1.0
1701718878.294226,3.0,-1.0,19.0,25.0,9.0,10.0,4.0,1.0
1701718878.294226,-2.0,-2.0,-7.0,-15.0,-26.0,-10.0,-5.0,-5.0
1701718878.294226,2.0,0.0,0.0,-21.0,29.0,4.0,0.0,-1.0
1701718878.294226,-1.0,-5.0,-27.0,17.0,-3.0,1.0,1.0,0.0
1701718878.3141956,1.0,2.0,18.0,2.0,7.0,-1.0,-5.0,-3.0
1701718878.3141956,0.0,2.0,-6.0,-10.0,-11.0,0.0,0.0,-1.0
1701718878.3242402,-3.0,-4.0,-4.0,-5.0,-31.0,-8.0,-3.0,-4.0
1701718878.3242402,-1.0,1.0,24.0,-3.0,21.0,4.0,1.0,2.0
1701718878.3438566,-3.0,-5.0,-17.0,5.0,-2.0,-2.0,0.0,0.0
1701718878.3438566,0.0,0.0,10.0,4.0,-2.0,0.0,-2.0,0.0
1701718878.3438566,-2.0,-1.0,13.0,-5.0,-14.0,-4.0,-5.0,-2.0
1701718878.3438566,0.0,-1.0,-22.0,-22.0,-11.0,-9.0,-3.0,-2.0
1701718878.3542092,0.0,-2.0,6.0,16.0,5.0,5.0,0.0,1.0
1701718878.3542092,-3.0,-1.0,5.0,-7.0,-19.0,-8.0,-2.0,-2.0
1701718878.3542092,0.0,-4.0,-8.0,-5.0,34.0,5.0,2.0,0.0
1701718878.3542092,2.0,4.0,11.0,5.0,5.0,3.0,0.0,0.0
1701718878.3738594,-4.0,-6.0,-15.0,4.0,-9.0,-3.0,0.0,-2.0
1701718878.3738594,0.0,4.0,9.0,-20.0,-15.0,-6.0,-5.0,-2.0
1701718878.3842108,-1.0,-4.0,-23.0,-32.0,-10.0,-1.0,-3.0,-3.0
1701718878.3842108,-1.0,1.0,-7.0,18.0,31.0,9.0,2.0,0.0
1701718878.3938582,-1.0,-3.0,-11.0,-5.0,-21.0,-6.0,-4.0,-3.0
1701718878.4038563,-1.0,-4.0,-12.0,13.0,15.0,2.0,-2.0,-3.0
1701718878.4038563,0.0,2.0,20.0,10.0,8.0,2.0,1.0,-1.0
1701718878.4038563,-2.0,-2.0,9.0,0.0,15.0,-2.0,-1.0,-1.0
1701718878.4140925,-3.0,-6.0,6.0,-7.0,5.0,1.0,-2.0,-1.0
1701718878.4140925,-1.0,0.0,-18.0,13.0,-11.0,0.0,1.0,2.0
1701718878.4238636,-1.0,2.0,8.0,-12.0,-23.0,-5.0,-2.0,-1.0
1701718878.4238636,-2.0,-5.0,-9.0,2.0,10.0,-2.0,-2.0,-3.0
1701718878.434008,0.0,4.0,74.0,11.0,-13.0,-7.0,-2.0,-1.0
1701718878.434008,-1.0,-6.0,-54.0,-15.0,32.0,8.0,0.0,0.0
1701718878.45386,2.0,1.0,-2.0,7.0,-6.0,0.0,2.0,1.0
1701718878.45386,0.0,0.0,29.0,0.0,-15.0,-5.0,-4.0,-2.0
1701718878.463858,2.0,4.0,-21.0,24.0,15.0,-1.0,0.0,0.0
1701718878.463858,-4.0,-6.0,-9.0,-22.0,-7.0,2.0,1.0,-2.0
1701718878.463858,0.0,2.0,-6.0,14.0,19.0,2.0,0.0,-1.0
1701718878.463858,1.0,1.0,15.0,-14.0,-31.0,-6.0,-2.0,-2.0
1701718878.4742355,-2.0,-4.0,-26.0,-25.0,-20.0,-5.0,0.0,-1.0
1701718878.4742355,0.0,-3.0,29.0,4.0,7.0,-2.0,0.0,0.0
1701718878.4742355,-2.0,-3.0,-38.0,-2.0,16.0,1.0,-1.0,0.0
1701718878.4742355,0.0,-1.0,5.0,3.0,-4.0,4.0,1.0,0.0
1701718878.4962509,0.0,-1.0,-4.0,-8.0,-23.0,-7.0,-3.0,-1.0
1701718878.4962509,0.0,-1.0,10.0,8.0,21.0,2.0,-1.0,-2.0
1701718878.5072482,1.0,1.0,24.0,7.0,-1.0,-2.0,0.0,0.0
1701718878.5072482,-1.0,1.0,-10.0,-1.0,-5.0,-1.0,-3.0,-2.0
1701718878.5167713,-3.0,-5.0,-33.0,-3.0,8.0,-2.0,-1.0,-2.0
1701718878.5167713,1.0,6.0,36.0,-2.0,-14.0,-1.0,-1.0,0.0
1701718878.527172,-1.0,3.0,-5.0,-3.0,0.0,0.0,0.0,-1.0
1701718878.527172,-2.0,-5.0,-5.0,17.0,6.0,-3.0,0.0,-1.0
1701718878.5368261,-2.0,-4.0,0.0,-11.0,5.0,4.0,-2.0,-3.0
1701718878.5368261,-1.0,1.0,-4.0,4.0,-6.0,-7.0,-1.0,-2.0
1701718878.5368261,0.0,3.0,15.0,-15.0,9.0,3.0,2.0,0.0
1701718878.5368261,0.0,4.0,-27.0,-6.0,-5.0,0.0,-1.0,0.0
1701718878.587195,-3.0,-1.0,5.0,-19.0,-10.0,-4.0,-1.0,-2.0
1701718878.587195,-1.0,-2.0,1.0,10.0,-10.0,-1.0,0.0,-1.0
1701718878.587195,-1.0,-1.0,1.0,0.0,-7.0,0.0,-1.0,0.0
1701718878.587195,-2.0,-10.0,-15.0,-4.0,23.0,-1.0,-2.0,-3.0
1701718878.5971286,3.0,9.0,34.0,32.0,7.0,0.0,0.0,1.0
1701718878.5971286,-1.0,3.0,5.0,-7.0,8.0,-2.0,-3.0,-2.0
1701718878.5971286,0.0,-7.0,-20.0,-10.0,-20.0,-5.0,-3.0,-1.0
1701718878.5971286,-2.0,-2.0,-3.0,-1.0,-27.0,-2.0,-3.0,-5.0
1701718878.6167765,0.0,-2.0,-32.0,-30.0,12.0,4.0,-1.0,0.0
1701718878.6167765,0.0,1.0,2.0,16.0,-9.0,-1.0,2.0,-1.0
1701718878.6267726,-4.0,-10.0,-16.0,1.0,-7.0,1.0,-4.0,-2.0
1701718878.6267726,0.0,0.0,8.0,28.0,-5.0,-6.0,-1.0,1.0
1701718878.6369915,-3.0,0.0,6.0,-30.0,-3.0,-1.0,-4.0,-2.0
1701718878.6369915,3.0,9.0,18.0,1.0,-16.0,-4.0,1.0,0.0
1701718878.6369915,-2.0,-6.0,-19.0,-13.0,-5.0,-2.0,-2.0,-4.0
1701718878.6369915,0.0,0.0,-6.0,10.0,12.0,4.0,-1.0,-1.0
1701718878.6470084,-2.0,-4.0,-7.0,-13.0,-21.0,-4.0,1.0,-3.0
1701718878.6470084,-1.0,-3.0,23.0,1.0,17.0,-1.0,0.0,-1.0
1701718878.6567798,-2.0,-4.0,-31.0,4.0,7.0,2.0,-2.0,-1.0
1701718878.6567798,0.0,-5.0,-42.0,-49.0,-13.0,-2.0,-2.0,1.0
1701718878.666786,-2.0,4.0,65.0,33.0,-17.0,-5.0,-3.0,0.0
1701718878.666786,-5.0,-6.0,-5.0,-7.0,-12.0,-5.0,-1.0,-2.0
1701718878.6867754,2.0,3.0,11.0,6.0,27.0,10.0,1.0,2.0
1701718878.6867754,-2.0,-2.0,-1.0,-17.0,-1.0,-1.0,-1.0,0.0
1701718878.6867754,-2.0,-13.0,-54.0,-33.0,3.0,2.0,-2.0,0.0
1701718878.6867754,-3.0,-3.0,-11.0,30.0,-3.0,0.0,-3.0,-3.0
1701718878.6867754,-2.0,6.0,40.0,1.0,-23.0,-9.0,-3.0,-2.0
1701718878.6867754,-4.0,-8.0,-49.0,-5.0,3.0,1.0,-1.0,-3.0
1701718878.706957,-1.0,3.0,28.0,-10.0,-7.0,-6.0,-3.0,-3.0
1701718878.706957,-2.0,2.0,21.0,24.0,21.0,5.0,0.0,0.0
1701718878.706957,-4.0,-16.0,-9.0,4.0,-8.0,-3.0,-1.0,-2.0
1701718878.706957,-1.0,3.0,-7.0,-13.0,4.0,2.0,-2.0,-1.0
1701718878.726773,3.0,4.0,-21.0,17.0,16.0,1.0,2.0,1.0
1701718878.726773,-1.0,-8.0,52.0,14.0,0.0,0.0,2.0,0.0
1701718878.726773,-5.0,4.0,-35.0,49.0,24.0,2.0,-2.0,-2.0
1701718878.726773,-3.0,-5.0,31.0,-3.0,-4.0,-1.0,0.0,-1.0
1701718878.7471843,1.0,1.0,-12.0,-59.0,-17.0,-1.0,-1.0,0.0
1701718878.7471843,1.0,6.0,-18.0,14.0,-14.0,-1.0,-2.0,-2.0
1701718878.7471843,3.0,2.0,3.0,-14.0,-7.0,-5.0,0.0,1.0
1701718878.7471843,-4.0,-13.0,-41.0,29.0,13.0,0.0,-2.0,-4.0
1701718878.767199,-3.0,-5.0,-48.0,-8.0,20.0,0.0,0.0,0.0
1701718878.767199,-3.0,-6.0,22.0,45.0,-17.0,-4.0,-5.0,-2.0
1701718878.767199,-1.0,-2.0,28.0,-24.0,-1.0,3.0,3.0,0.0
1701718878.767199,0.0,13.0,21.0,-16.0,-14.0,-4.0,-2.0,-1.0
1701718878.7867734,-2.0,-10.0,11.0,12.0,17.0,4.0,2.0,-1.0
1701718878.7867734,-5.0,-10.0,-111.0,31.0,-8.0,-4.0,-3.0,-3.0
1701718878.7867734,3.0,6.0,74.0,-82.0,-14.0,-3.0,-1.0,2.0
1701718878.7867734,-4.0,0.0,-7.0,-5.0,-2.0,-3.0,-1.0,-1.0
1701718878.7867734,-1.0,-7.0,11.0,3.0,-9.0,0.0,-4.0,-1.0
1701718878.7867734,4.0,14.0,7.0,-16.0,34.0,3.0,2.0,1.0
1701718878.7967727,-6.0,-2.0,8.0,94.0,16.0,-2.0,-3.0,-4.0
1701718878.7967727,6.0,8.0,2.0,18.0,-5.0,3.0,2.0,2.0
1701718878.8171241,0.0,3.0,-16.0,-43.0,-34.0,-5.0,1.0,-1.0
1701718878.8171241,-5.0,-9.0,-26.0,-42.0,9.0,0.0,-2.0,-2.0
1701718878.8268743,4.0,10.0,74.0,7.0,-17.0,-6.0,1.0,2.0
1701718878.8268743,-4.0,-11.0,-53.0,-22.0,-10.0,-2.0,-2.0,-2.0
1701718878.8367739,-1.0,3.0,90.0,48.0,12.0,2.0,0.0,0.0
1701718878.8367739,2.0,5.0,-8.0,-7.0,-6.0,-1.0,-1.0,0.0
1701718878.8367739,-2.0,-3.0,-9.0,-38.0,-20.0,-3.0,-2.0,-1.0
1701718878.8367739,-5.0,-1.0,14.0,8.0,13.0,-2.0,-3.0,-3.0
1701718878.8567767,1.0,1.0,-38.0,37.0,14.0,-4.0,0.0,1.0
1701718878.8567767,-3.0,-9.0,-35.0,4.0,-2.0,8.0,2.0,-2.0
1701718878.8567767,0.0,0.0,-4.0,-6.0,1.0,-2.0,-3.0,-2.0
1701718878.8567767,-1.0,-2.0,24.0,-23.0,-7.0,-1.0,-1.0,1.0
1701718878.8770902,-3.0,-5.0,35.0,96.0,12.0,1.0,-1.0,-3.0
1701718878.8770902,1.0,5.0,-34.0,-92.0,-7.0,-6.0,-2.0,1.0
1701718878.8870773,-3.0,-4.0,-25.0,-28.0,-9.0,3.0,2.0,-1.0
1701718878.8870773,-1.0,2.0,30.0,-4.0,-9.0,-6.0,-4.0,-2.0
1701718878.9067724,2.0,6.0,-15.0,1.0,14.0,-1.0,0.0,0.0
1701718878.9067724,0.0,-8.0,26.0,13.0,-13.0,-4.0,-3.0,-4.0
1701718878.9067724,-2.0,-3.0,13.0,28.0,6.0,-1.0,-6.0,0.0
1701718878.9067724,2.0,4.0,25.0,12.0,5.0,-1.0,1.0,2.0
1701718878.916775,-2.0,-10.0,-38.0,-83.0,-5.0,-5.0,-11.0,-3.0
1701718878.916775,-2.0,1.0,20.0,5.0,-1.0,7.0,12.0,2.0
1701718878.916775,-1.0,-5.0,-44.0,12.0,0.0,-3.0,3.0,0.0
1701718878.916775,4.0,4.0,25.0,35.0,8.0,-7.0,-12.0,-5.0
1701718878.9369917,-9.0,-2.0,47.0,14.0,-7.0,-8.0,-57.0,-17.0
1701718878.9369917,0.0,-4.0,4.0,-48.0,-2.0,13.0,61.0,19.0
1701718878.9468424,4.0,3.0,-6.0,16.0,13.0,10.0,3.0,0.0
1701718878.9468424,-3.0,-4.0,-17.0,-2.0,-2.0,2.0,11.0,-4.0
1701718878.9667773,4.0,5.0,-3.0,-7.0,-8.0,-5.0,-6.0,13.0
1701718878.9667773,-11.0,-5.0,-4.0,-20.0,-6.0,-28.0,-69.0,-15.0
1701718878.9667773,-15.0,-2.0,20.0,44.0,0.0,4.0,18.0,-10.0
1701718878.9667773,22.0,-1.0,-52.0,-40.0,3.0,10.0,26.0,19.0
1701718878.9767752,20.0,3.0,-20.0,-16.0,-2.0,3.0,16.0,0.0
1701718878.9767752,-13.0,2.0,34.0,25.0,1.0,-2.0,9.0,0.0
1701718878.9767752,-1.0,-4.0,-23.0,-6.0,-7.0,-11.0,-28.0,-5.0
1701718878.9767752,-11.0,-1.0,5.0,7.0,-5.0,-9.0,-23.0,-15.0
1701718878.996992,-3.0,-4.0,-2.0,-10.0,6.0,12.0,36.0,-3.0
1701718878.996992,4.0,-2.0,-15.0,-7.0,-6.0,3.0,-19.0,2.0
1701718879.0068438,-12.0,0.0,-7.0,-8.0,2.0,-4.0,19.0,15.0
1701718879.0068438,-10.0,-1.0,9.0,6.0,2.0,5.0,2.0,-11.0
1701718879.0342429,-8.0,-2.0,2.0,-6.0,-2.0,-5.0,-4.0,0.0
1701718879.0342429,5.0,-1.0,25.0,17.0,-2.0,0.0,-2.0,-7.0
1701718879.0362515,17.0,-4.0,-45.0,-18.0,-4.0,-7.0,-18.0,-14.0
1701718879.0362515,1.0,4.0,24.0,11.0,3.0,-2.0,-6.0,10.0
1701718879.0362515,5.0,-2.0,-18.0,5.0,-3.0,4.0,25.0,5.0
1701718879.0362515,1.0,-3.0,3.0,-8.0,-3.0,-2.0,3.0,0.0
1701718879.0440767,-9.0,4.0,4.0,-4.0,-5.0,-5.0,3.0,-8.0
1701718879.045104,-5.0,-12.0,5.0,2.0,0.0,3.0,-27.0,0.0
1701718879.0596323,-16.0,-4.0,0.0,2.0,-2.0,5.0,23.0,-3.0
1701718879.0596323,4.0,9.0,0.0,0.0,1.0,-4.0,-9.0,-1.0
1701718879.0596323,-3.0,2.0,4.0,0.0,3.0,8.0,3.0,-2.0
1701718879.0596323,4.0,2.0,1.0,-10.0,-2.0,5.0,12.0,3.0
1701718879.0796282,3.0,-3.0,-36.0,0.0,-3.0,-9.0,-12.0,-1.0
1701718879.0796282,-1.0,-3.0,-12.0,-2.0,-3.0,2.0,-10.0,0.0
1701718879.089626,3.0,-2.0,-5.0,-2.0,2.0,-1.0,3.0,-4.0
1701718879.089626,-12.0,1.0,15.0,0.0,-1.0,-9.0,-15.0,-9.0
1701718879.1000612,-3.0,5.0,-2.0,7.0,-5.0,-2.0,-7.0,1.0
1701718879.1000612,-1.0,-6.0,12.0,4.0,2.0,-6.0,4.0,-2.0
1701718879.1000612,26.0,-5.0,-10.0,-11.0,-3.0,8.0,-19.0,-3.0
1701718879.1000612,-47.0,-5.0,21.0,-3.0,-6.0,0.0,15.0,21.0
1701718879.1196275,1.0,3.0,1.0,6.0,3.0,-5.0,-18.0,-12.0
1701718879.1196275,0.0,4.0,20.0,10.0,2.0,-3.0,4.0,0.0
1701718879.1196275,-3.0,-1.0,-30.0,-14.0,-4.0,-3.0,0.0,-3.0
1701718879.1196275,13.0,-11.0,-11.0,-3.0,-4.0,3.0,1.0,-3.0
1701718879.1399782,-8.0,0.0,-14.0,-5.0,-5.0,-8.0,-8.0,-15.0
1701718879.1399782,-15.0,2.0,3.0,0.0,-1.0,3.0,4.0,9.0
1701718879.149952,21.0,-3.0,8.0,-9.0,3.0,-1.0,2.0,3.0
1701718879.149952,6.0,-7.0,-25.0,15.0,-4.0,-8.0,3.0,1.0
1701718879.159785,-14.0,-3.0,-10.0,12.0,-4.0,-1.0,-14.0,-5.0
1701718879.159785,10.0,-2.0,-44.0,-12.0,2.0,4.0,2.0,-5.0
1701718879.159785,-12.0,2.0,2.0,2.0,-2.0,2.0,3.0,3.0
1701718879.159785,7.0,5.0,-8.0,-6.0,1.0,-5.0,-9.0,-5.0
1701718879.1896315,3.0,0.0,22.0,-3.0,0.0,2.0,8.0,5.0
1701718879.1896315,-13.0,-5.0,-3.0,0.0,-7.0,-6.0,-12.0,-14.0
1701718879.1896315,-4.0,2.0,-21.0,2.0,5.0,4.0,3.0,1.0
1701718879.1896315,10.0,3.0,24.0,-12.0,0.0,-8.0,19.0,5.0
1701718879.1996276,-2.0,-5.0,37.0,11.0,-3.0,10.0,0.0,5.0
1701718879.1996276,8.0,3.0,-12.0,-8.0,1.0,-2.0,2.0,2.0
1701718879.2099197,-17.0,-9.0,-12.0,-2.0,-5.0,-8.0,13.0,0.0
1701718879.2099197,6.0,2.0,1.0,4.0,2.0,0.0,-10.0,-9.0
1701718879.2196293,-11.0,-4.0,-56.0,-15.0,0.0,0.0,17.0,14.0
1701718879.2196293,8.0,-3.0,17.0,8.0,-1.0,-2.0,-11.0,-10.0
1701718879.2196293,-9.0,0.0,8.0,-6.0,-2.0,-4.0,0.0,-5.0
1701718879.2196293,7.0,6.0,18.0,10.0,1.0,1.0,-3.0,-8.0
1701718879.2396276,-9.0,-5.0,-17.0,-8.0,-1.0,-5.0,-6.0,13.0
1701718879.2396276,-2.0,1.0,9.0,-3.0,1.0,2.0,6.0,6.0
1701718879.2396276,-3.0,0.0,32.0,10.0,-4.0,-17.0,-29.0,-10.0
1701718879.2396276,-6.0,1.0,-27.0,4.0,-3.0,6.0,10.0,-2.0
1701718879.259975,8.0,-4.0,-19.0,-4.0,2.0,9.0,11.0,-10.0
1701718879.259975,3.0,-1.0,6.0,-6.0,-2.0,-2.0,1.0,-2.0
1701718879.2698867,6.0,-3.0,-44.0,-11.0,-4.0,-2.0,-10.0,7.0
1701718879.2698867,-2.0,3.0,33.0,13.0,2.0,-8.0,-6.0,-4.0
1701718879.2799585,-1.0,3.0,28.0,1.0,-1.0,4.0,-3.0,-4.0
1701718879.2799585,3.0,-5.0,-28.0,-6.0,3.0,1.0,0.0,2.0
1701718879.2799585,-5.0,-1.0,12.0,4.0,-5.0,-9.0,1.0,-2.0
1701718879.2799585,-9.0,2.0,14.0,-2.0,0.0,3.0,-14.0,-4.0
1701718879.3096282,5.0,4.0,-5.0,-2.0,-3.0,-4.0,4.0,-1.0
1701718879.3096282,13.0,-14.0,-18.0,-10.0,-3.0,10.0,27.0,4.0
1701718879.3096282,-7.0,5.0,22.0,6.0,0.0,2.0,-5.0,-3.0
1701718879.3096282,6.0,-4.0,-19.0,-8.0,1.0,-8.0,-16.0,-2.0
1701718879.3196614,0.0,0.0,22.0,5.0,0.0,0.0,-8.0,-4.0
1701718879.3196614,-1.0,-3.0,-36.0,-13.0,-3.0,0.0,15.0,5.0
1701718879.3300354,-17.0,-3.0,13.0,3.0,-1.0,1.0,5.0,0.0
1701718879.3300354,3.0,-1.0,-1.0,3.0,0.0,7.0,-4.0,0.0
1701718879.3599224,-8.0,-1.0,14.0,-2.0,-1.0,-1.0,-5.0,-9.0
1701718879.3599224,-7.0,-1.0,60.0,7.0,-3.0,-11.0,-12.0,-8.0
1701718879.3599224,6.0,-4.0,-20.0,-10.0,-1.0,8.0,10.0,7.0
1701718879.3599224,2.0,2.0,24.0,3.0,1.0,-10.0,-12.0,-1.0
1701718879.3799849,-5.0,2.0,17.0,7.0,0.0,-7.0,-20.0,-12.0
1701718879.3799849,-8.0,-2.0,0.0,4.0,0.0,6.0,9.0,-2.0
1701718879.3896325,7.0,1.0,24.0,0.0,0.0,5.0,36.0,14.0
1701718879.3896325,-2.0,-9.0,-12.0,-11.0,-2.0,2.0,6.0,2.0
1701718879.4196277,9.0,-5.0,-51.0,-8.0,-1.0,-2.0,5.0,0.0
1701718879.4196277,-13.0,2.0,19.0,7.0,-3.0,-8.0,-7.0,-9.0
1701718879.4196277,10.0,1.0,1.0,4.0,-1.0,-8.0,-35.0,-5.0
1701718879.4196277,-3.0,-4.0,-20.0,-4.0,0.0,27.0,65.0,10.0
1701718879.429677,4.0,4.0,8.0,-3.0,0.0,-3.0,0.0,5.0
1701718879.429677,8.0,-1.0,-32.0,-3.0,-4.0,-1.0,-17.0,-1.0
1701718879.429677,1.0,0.0,16.0,3.0,3.0,-5.0,-11.0,-2.0
1701718879.429677,-1.0,1.0,15.0,1.0,-2.0,-10.0,-10.0,-2.0
1701718879.4599743,7.0,1.0,27.0,9.0,0.0,1.0,-1.0,-1.0
1701718879.4599743,0.0,4.0,-12.0,-8.0,2.0,8.0,-6.0,-2.0
1701718879.4599743,-3.0,-4.0,-16.0,-4.0,0.0,-1.0,2.0,2.0
1701718879.4599743,-1.0,0.0,11.0,6.0,5.0,11.0,19.0,-6.0
1701718879.4896293,12.0,-6.0,-5.0,-7.0,2.0,-2.0,-4.0,11.0
1701718879.4896293,-14.0,-2.0,14.0,-3.0,-8.0,-20.0,-29.0,-17.0
1701718879.4896293,-8.0,-1.0,9.0,7.0,-1.0,17.0,37.0,3.0
1701718879.4896293,10.0,4.0,4.0,3.0,1.0,2.0,4.0,-1.0
1701718879.5196311,-19.0,-6.0,-6.0,-10.0,-4.0,0.0,19.0,1.0
1701718879.5196311,3.0,-1.0,-37.0,-8.0,-3.0,-1.0,-7.0,-1.0
1701718879.5196311,-1.0,-9.0,-17.0,-4.0,0.0,-4.0,-13.0,-10.0
1701718879.5196311,0.0,2.0,67.0,10.0,0.0,-5.0,-18.0,-1.0
1701718879.5406523,-12.0,-10.0,-35.0,-9.0,-8.0,-6.0,-9.0,-7.0
1701718879.54165,19.0,4.0,-35.0,-11.0,-4.0,-1.0,2.0,-3.0
1701718879.5426993,-15.0,1.0,-14.0,-1.0,2.0,0.0,5.0,3.0
1701718879.5426993,-8.0,1.0,10.0,2.0,1.0,1.0,-6.0,2.0
1701718879.5632994,-1.0,10.0,12.0,6.0,4.0,6.0,4.0,2.0
1701718879.5632994,-5.0,-4.0,10.0,-9.0,-5.0,-9.0,-19.0,-6.0
1701718879.5658846,5.0,-3.0,0.0,12.0,-1.0,3.0,4.0,5.0
1701718879.5658846,4.0,4.0,-31.0,-10.0,-4.0,-9.0,-6.0,-1.0
1701718879.605881,2.0,-5.0,-54.0,-8.0,-1.0,5.0,27.0,3.0
1701718879.605881,1.0,4.0,64.0,10.0,-2.0,-3.0,4.0,3.0
1701718879.605881,3.0,-1.0,-60.0,-12.0,-4.0,0.0,1.0,1.0
1701718879.605881,-4.0,-2.0,21.0,15.0,2.0,-5.0,-6.0,2.0
1701718879.615886,4.0,5.0,8.0,-1.0,2.0,-6.0,-13.0,-5.0
1701718879.615886,0.0,6.0,29.0,24.0,6.0,2.0,9.0,5.0
1701718879.615886,-10.0,-19.0,-42.0,-28.0,-15.0,-23.0,-46.0,-21.0
1701718879.615886,-2.0,-7.0,-36.0,-12.0,-6.0,1.0,6.0,0.0
1701718879.6458871,3.0,1.0,13.0,1.0,-3.0,0.0,4.0,0.0
1701718879.6458871,-7.0,8.0,60.0,10.0,2.0,5.0,16.0,4.0
1701718879.6458871,4.0,2.0,23.0,7.0,6.0,7.0,-5.0,2.0
1701718879.6458871,-5.0,-7.0,-76.0,-27.0,-10.0,-13.0,-16.0,-7.0
1701718879.6660407,-4.0,-8.0,-13.0,-1.0,-5.0,3.0,-15.0,0.0
1701718879.6660407,-4.0,3.0,38.0,8.0,2.0,0.0,1.0,2.0
1701718879.6660407,1.0,-2.0,-22.0,2.0,-1.0,-6.0,-22.0,-9.0
1701718879.6660407,-4.0,-11.0,-49.0,-20.0,-7.0,2.0,13.0,2.0
1701718879.696049,0.0,5.0,20.0,1.0,3.0,-9.0,-6.0,4.0
1701718879.696049,6.0,-1.0,9.0,9.0,1.0,8.0,-3.0,-3.0
1701718879.696049,-1.0,-3.0,-12.0,-6.0,3.0,-3.0,3.0,-5.0
1701718879.696049,2.0,6.0,25.0,14.0,6.0,4.0,-9.0,2.0
1701718879.715915,1.0,3.0,58.0,11.0,2.0,-1.0,8.0,2.0
1701718879.715915,-3.0,-4.0,-41.0,-17.0,-14.0,-6.0,3.0,2.0
1701718879.715915,-1.0,2.0,9.0,-10.0,-16.0,-3.0,5.0,1.0
1701718879.715915,-2.0,3.0,-7.0,11.0,19.0,-2.0,-15.0,-6.0
1701718879.73589,0.0,2.0,40.0,-5.0,2.0,-4.0,8.0,-2.0
1701718879.73589,2.0,2.0,-30.0,13.0,9.0,15.0,12.0,9.0
1701718879.7458816,-3.0,-2.0,68.0,0.0,-12.0,-1.0,-6.0,-8.0
1701718879.7458816,-6.0,-8.0,-9.0,-23.0,-37.0,-7.0,13.0,2.0
1701718879.7458816,2.0,-2.0,-20.0,5.0,24.0,-3.0,-7.0,-2.0
1701718879.7458816,-4.0,-4.0,-22.0,-6.0,3.0,-8.0,-6.0,-3.0
1701718879.7559192,2.0,11.0,33.0,6.0,2.0,-5.0,-5.0,0.0
1701718879.7559192,3.0,-1.0,-1.0,10.0,15.0,15.0,17.0,3.0
1701718879.7559192,1.0,-2.0,-19.0,-6.0,-14.0,-9.0,-5.0,-5.0
1701718879.7559192,-8.0,-3.0,-11.0,-7.0,-6.0,-3.0,-9.0,-9.0
1701718879.7559192,5.0,6.0,18.0,8.0,10.0,5.0,12.0,14.0
1701718879.7559192,-11.0,-7.0,9.0,-12.0,-14.0,-8.0,-9.0,-3.0
1701718879.7658837,1.0,1.0,-14.0,5.0,-4.0,3.0,1.0,0.0
1701718879.7658837,-3.0,-9.0,-19.0,0.0,5.0,-3.0,3.0,2.0
1701718879.7658837,2.0,8.0,33.0,7.0,-3.0,-1.0,6.0,-2.0
1701718879.7658837,2.0,0.0,2.0,3.0,2.0,-2.0,-5.0,-2.0
1701718879.7658837,-3.0,1.0,8.0,-2.0,-3.0,-3.0,-3.0,-4.0
1701718879.7658837,-2.0,-2.0,-15.0,-2.0,-1.0,-4.0,-10.0,-9.0
1701718879.7658837,-1.0,-6.0,-27.0,-6.0,1.0,7.0,3.0,6.0
1701718879.7658837,0.0,0.0,-2.0,-4.0,0.0,2.0,6.0,-1.0
1701718879.776161,-7.0,-2.0,12.0,1.0,-4.0,-9.0,-6.0,-6.0
1701718879.776161,8.0,1.0,3.0,-7.0,-6.0,3.0,-3.0,2.0
1701718879.776161,3.0,2.0,-11.0,-4.0,1.0,2.0,10.0,4.0
1701718879.776161,-1.0,-3.0,6.0,15.0,9.0,-8.0,-29.0,-10.0
1701718879.7861934,-1.0,-2.0,-6.0,-1.0,-3.0,3.0,9.0,0.0
1701718879.7861934,-4.0,-1.0,-2.0,-1.0,3.0,6.0,-10.0,-5.0
1701718879.7861934,-6.0,-7.0,-11.0,-7.0,-9.0,-10.0,0.0,0.0
1701718879.7861934,2.0,5.0,14.0,-1.0,-4.0,-4.0,-2.0,-4.0
1701718879.7861934,-1.0,-3.0,2.0,-3.0,-12.0,-6.0,-14.0,1.0
1701718879.7861934,-5.0,-10.0,-16.0,0.0,3.0,0.0,22.0,-6.0
1701718879.7861934,1.0,2.0,1.0,0.0,3.0,4.0,0.0,10.0
1701718879.7861934,0.0,-3.0,4.0,2.0,2.0,-4.0,-24.0,1.0
1701718879.7958853,2.0,4.0,-9.0,-3.0,3.0,4.0,-7.0,-4.0
1701718879.7958853,-3.0,6.0,6.0,1.0,1.0,2.0,2.0,2.0
1701718879.8158824,-1.0,-6.0,-9.0,1.0,0.0,-4.0,12.0,-5.0
1701718879.8158824,-2.0,6.0,3.0,1.0,-1.0,4.0,3.0,-2.0
1701718879.8158824,-3.0,-9.0,-12.0,-4.0,-1.0,-3.0,0.0,4.0
1701718879.8158824,-2.0,-1.0,0.0,-3.0,-2.0,-2.0,-1.0,3.0
1701718879.8158824,-3.0,1.0,1.0,3.0,4.0,-3.0,-2.0,-5.0
1701718879.8158824,2.0,1.0,0.0,-2.0,-4.0,1.0,2.0,1.0
1701718879.8359034,4.0,4.0,5.0,4.0,2.0,7.0,0.0,-2.0
1701718879.8359034,-1.0,-4.0,1.0,-5.0,0.0,-3.0,6.0,2.0
1701718879.845926,-4.0,-5.0,-7.0,7.0,-4.0,1.0,-5.0,-6.0
1701718879.845926,7.0,3.0,4.0,-1.0,2.0,-2.0,3.0,0.0
1701718879.8658824,7.0,-1.0,-3.0,-3.0,2.0,3.0,3.0,-2.0
1701718879.8658824,-17.0,-5.0,-14.0,-4.0,-1.0,-9.0,-11.0,3.0
1701718879.8658824,9.0,-3.0,-7.0,0.0,0.0,8.0,-6.0,-2.0
1701718879.8658824,-2.0,-5.0,-3.0,-1.0,2.0,-3.0,3.0,-3.0
1701718879.8858833,-2.0,0.0,-5.0,-4.0,-4.0,-4.0,-2.0,-3.0
1701718879.8858833,0.0,0.0,2.0,-2.0,-6.0,-7.0,-5.0,-4.0
1701718879.8858833,-4.0,-2.0,-2.0,1.0,-2.0,-3.0,-5.0,-3.0
1701718879.8858833,-1.0,-1.0,2.0,-2.0,0.0,4.0,7.0,0.0
1701718879.8959186,-1.0,-3.0,-5.0,-2.0,0.0,-10.0,-17.0,-5.0
1701718879.8959186,2.0,-2.0,0.0,-5.0,1.0,4.0,6.0,-1.0
1701718879.9059231,-3.0,0.0,-1.0,4.0,4.0,3.0,1.0,-1.0
1701718879.9059231,-7.0,2.0,-2.0,-7.0,-6.0,-4.0,-5.0,-3.0
1701718879.9158826,-5.0,-8.0,0.0,-2.0,-1.0,3.0,6.0,2.0
1701718879.9158826,2.0,1.0,-6.0,2.0,-5.0,-6.0,-4.0,2.0
1701718879.9258828,-4.0,-1.0,1.0,-4.0,2.0,4.0,-2.0,-2.0
1701718879.9258828,0.0,-8.0,-3.0,-2.0,5.0,-1.0,0.0,0.0
1701718879.9359267,-2.0,2.0,-1.0,-2.0,-2.0,3.0,2.0,0.0
1701718879.9359267,-1.0,-2.0,2.0,-1.0,-2.0,-11.0,-10.0,-5.0
1701718879.945923,1.0,-2.0,2.0,-4.0,-3.0,2.0,6.0,-1.0
1701718879.945923,6.0,2.0,-6.0,2.0,-4.0,8.0,5.0,3.0
1701718879.955882,-6.0,-7.0,-8.0,1.0,1.0,1.0,-1.0,-2.0
1701718879.955882,1.0,6.0,9.0,5.0,6.0,1.0,-4.0,1.0
1701718879.9658823,-2.0,-4.0,3.0,0.0,-2.0,-9.0,-6.0,0.0
1701718879.9658823,2.0,6.0,8.0,-2.0,0.0,-2.0,2.0,0.0
1701718879.9759247,0.0,-18.0,-9.0,0.0,-2.0,-1.0,-1.0,0.0
1701718879.9759247,-6.0,-3.0,-24.0,-9.0,-5.0,-3.0,-1.0,-3.0
1701718879.9859204,-4.0,3.0,0.0,2.0,3.0,4.0,-6.0,-6.0
1701718879.9859204,-2.0,15.0,6.0,-2.0,-3.0,-4.0,-6.0,-1.0
1701718879.995922,7.0,-4.0,11.0,5.0,-2.0,-2.0,7.0,2.0
1701718879.995922,4.0,7.0,-12.0,-6.0,-3.0,-2.0,0.0,-4.0
1701718880.005924,-4.0,-1.0,7.0,3.0,2.0,-5.0,0.0,5.0
1701718880.005924,0.0,-19.0,-9.0,-7.0,-2.0,-1.0,-1.0,-4.0
1701718880.0258818,-9.0,-1.0,-7.0,-6.0,-2.0,1.0,-2.0,-2.0
1701718880.0258818,9.0,5.0,15.0,10.0,-1.0,3.0,2.0,-1.0
1701718880.0258818,-10.0,-6.0,-10.0,-4.0,-4.0,-4.0,2.0,-3.0
1701718880.0258818,-1.0,-7.0,27.0,8.0,3.0,0.0,2.0,-1.0
1701718880.0359242,-2.0,40.0,10.0,-2.0,-6.0,-3.0,-5.0,-1.0
1701718880.0359242,-10.0,-57.0,-4.0,-14.0,-3.0,-4.0,3.0,1.0
1701718880.0458815,14.0,41.0,2.0,3.0,0.0,2.0,-1.0,0.0
1701718880.0458815,-4.0,-13.0,-58.0,-27.0,-1.0,-1.0,0.0,-1.0
1701718880.0558813,-9.0,-6.0,45.0,13.0,0.0,-5.0,-1.0,-5.0
1701718880.0558813,-2.0,14.0,12.0,34.0,2.0,4.0,-2.0,0.0
1701718880.0658858,4.0,1.0,2.0,9.0,2.0,-8.0,-5.0,-1.0
1701718880.0658858,-3.0,6.0,-8.0,-35.0,-6.0,3.0,7.0,0.0
1701718880.0902255,3.0,12.0,-16.0,5.0,5.0,0.0,2.0,3.0
1701718880.0902255,-8.0,-10.0,-37.0,-52.0,2.0,9.0,3.0,2.0
1701718880.0902255,-8.0,-24.0,50.0,19.0,-5.0,-13.0,-24.0,-6.0
1701718880.0902255,-5.0,4.0,-23.0,-4.0,-2.0,6.0,16.0,2.0
1701718880.0983772,-4.0,-6.0,4.0,5.0,-3.0,1.0,1.0,-2.0
1701718880.0983772,10.0,4.0,11.0,25.0,9.0,-2.0,2.0,4.0
1701718880.1083806,1.0,-4.0,-40.0,-15.0,0.0,3.0,3.0,4.0
1701718880.1083806,-6.0,5.0,17.0,-6.0,-7.0,-13.0,-12.0,-10.0
1701718880.1383808,8.0,-6.0,19.0,18.0,-3.0,-3.0,-3.0,8.0
1701718880.1383808,-4.0,-6.0,-6.0,-11.0,0.0,3.0,0.0,-1.0
1701718880.1383808,3.0,4.0,-18.0,-3.0,-2.0,-1.0,3.0,5.0
1701718880.1383808,5.0,0.0,-25.0,4.0,0.0,-2.0,-4.0,-7.0
1701718880.1383808,1.0,4.0,5.0,-11.0,1.0,2.0,5.0,-5.0
1701718880.1383808,0.0,12.0,73.0,23.0,1.0,-2.0,-3.0,-3.0
1701718880.1483808,-7.0,-10.0,-11.0,-11.0,2.0,2.0,3.0,-8.0
1701718880.1483808,-1.0,-7.0,4.0,17.0,0.0,-7.0,-1.0,10.0
1701718880.1583803,1.0,-4.0,-37.0,-17.0,-2.0,-1.0,-5.0,2.0
1701718880.1583803,-4.0,-2.0,-29.0,-27.0,-5.0,2.0,-10.0,-7.0
1701718880.168414,7.0,2.0,19.0,8.0,0.0,-1.0,-9.0,-7.0
1701718880.168414,0.0,10.0,16.0,36.0,6.0,1.0,-5.0,-4.0
1701718880.18838,9.0,-15.0,-1.0,-14.0,-3.0,-7.0,-2.0,2.0
1701718880.18838,0.0,14.0,11.0,-9.0,-8.0,-7.0,-3.0,-3.0
1701718880.18838,-2.0,3.0,-11.0,-16.0,-4.0,0.0,3.0,-2.0
1701718880.18838,-1.0,-1.0,19.0,6.0,1.0,-5.0,-1.0,1.0
1701718880.198418,-13.0,-5.0,-2.0,22.0,1.0,6.0,-4.0,-5.0
1701718880.198418,10.0,1.0,-6.0,3.0,7.0,1.0,9.0,7.0
1701718880.2084184,8.0,-9.0,-22.0,-9.0,-2.0,0.0,5.0,-1.0
1701718880.2084184,-3.0,1.0,14.0,3.0,-7.0,-8.0,-7.0,0.0
1701718880.2184114,-8.0,-4.0,-11.0,-9.0,0.0,1.0,1.0,1.0
1701718880.2184114,-1.0,2.0,5.0,2.0,0.0,1.0,1.0,-4.0
1701718880.2283797,-5.0,-1.0,2.0,1.0,1.0,0.0,0.0,1.0
1701718880.2283797,7.0,-1.0,13.0,7.0,-1.0,-1.0,-1.0,0.0
1701718880.248379,-4.0,-1.0,-20.0,-18.0,-4.0,-8.0,-4.0,-9.0
1701718880.248379,3.0,0.0,0.0,15.0,-3.0,2.0,-8.0,-16.0
1701718880.248379,-7.0,-8.0,6.0,5.0,4.0,-5.0,10.0,26.0
1701718880.248379,-5.0,-5.0,-15.0,-14.0,-4.0,7.0,-3.0,-8.0
1701718880.2584167,6.0,3.0,-4.0,-5.0,5.0,-2.0,-2.0,8.0
1701718880.2584167,-4.0,-4.0,13.0,13.0,1.0,1.0,2.0,1.0
1701718880.2684221,-2.0,6.0,-5.0,-8.0,-2.0,0.0,0.0,-11.0
1701718880.2684221,3.0,-8.0,-8.0,-4.0,-1.0,-5.0,-3.0,4.0
1701718880.288379,-9.0,2.0,-1.0,-4.0,-1.0,3.0,5.0,-9.0
1701718880.288379,4.0,-4.0,-17.0,-12.0,-2.0,-5.0,-2.0,-5.0
1701718880.288379,-5.0,-5.0,-2.0,0.0,-1.0,3.0,0.0,-5.0
1701718880.288379,-2.0,0.0,-5.0,-1.0,-2.0,-2.0,-16.0,-1.0
1701718880.3083792,8.0,7.0,21.0,14.0,2.0,-1.0,2.0,0.0
1701718880.3083792,-5.0,-6.0,-9.0,-5.0,-7.0,-5.0,-2.0,4.0
1701718880.3083792,0.0,4.0,-18.0,-13.0,-5.0,4.0,1.0,1.0
1701718880.3083792,-6.0,-6.0,18.0,12.0,11.0,1.0,3.0,-12.0
1701718880.318422,7.0,4.0,9.0,-6.0,-1.0,-1.0,3.0,16.0
1701718880.318422,4.0,-4.0,-32.0,-9.0,-1.0,-4.0,2.0,3.0
1701718880.3284173,-3.0,-1.0,46.0,11.0,-8.0,-11.0,-4.0,-7.0
1701718880.3284173,-4.0,-1.0,17.0,1.0,0.0,3.0,1.0,-5.0
1701718880.338381,1.0,0.0,-39.0,-7.0,2.0,3.0,11.0,3.0
1701718880.338381,-4.0,0.0,-8.0,0.0,-4.0,-2.0,-2.0,-1.0
1701718880.3486123,1.0,-2.0,-51.0,-4.0,-3.0,-6.0,-11.0,-3.0
1701718880.3486123,1.0,-3.0,11.0,-1.0,-6.0,-4.0,1.0,-2.0
1701718880.3586006,-7.0,-5.0,-8.0,-10.0,-1.0,11.0,9.0,2.0
1701718880.3586006,1.0,11.0,12.0,2.0,-1.0,-2.0,-1.0,8.0
1701718880.3783798,0.0,-9.0,-22.0,-5.0,3.0,5.0,5.0,-5.0
1701718880.3783798,2.0,2.0,7.0,6.0,0.0,-5.0,-1.0,2.0
1701718880.388381,0.0,-10.0,-40.0,-29.0,-5.0,-5.0,-12.0,-3.0
1701718880.388381,-6.0,3.0,71.0,38.0,4.0,1.0,9.0,-6.0
1701718880.388381,2.0,5.0,66.0,16.0,0.0,-7.0,-7.0,4.0
1701718880.388381,2.0,-7.0,-61.0,-19.0,-4.0,4.0,9.0,4.0
1701718880.3984349,-2.0,-2.0,9.0,-7.0,0.0,-1.0,-8.0,-12.0
1701718880.3984349,-10.0,-2.0,-13.0,-6.0,-1.0,-1.0,1.0,2.0
1701718880.4183786,-4.0,-11.0,33.0,-19.0,-2.0,4.0,1.0,-6.0
1701718880.4183786,5.0,11.0,18.0,10.0,2.0,0.0,5.0,5.0
1701718880.4183786,-4.0,2.0,29.0,58.0,-4.0,-2.0,-20.0,-13.0
1701718880.4183786,-1.0,-5.0,-23.0,-5.0,-1.0,-12.0,-17.0,1.0
1701718880.4286523,-1.0,3.0,-21.0,-9.0,0.0,3.0,-2.0,1.0
1701718880.4286523,-2.0,-1.0,-40.0,-26.0,0.0,7.0,7.0,1.0
1701718880.4386666,-2.0,-6.0,10.0,9.0,3.0,-6.0,5.0,4.0
1701718880.4386666,-5.0,1.0,0.0,-6.0,-4.0,0.0,-1.0,-11.0
1701718880.4483862,2.0,-1.0,-34.0,0.0,-5.0,-7.0,-9.0,2.0
1701718880.4483862,-6.0,-6.0,35.0,-8.0,-1.0,-3.0,3.0,6.0
1701718880.4584556,3.0,1.0,-10.0,-4.0,5.0,2.0,8.0,4.0
1701718880.4584556,1.0,-7.0,-48.0,-8.0,-4.0,0.0,-9.0,-4.0
1701718880.478381,-6.0,-7.0,-74.0,-43.0,-7.0,-8.0,7.0,-2.0
1701718880.478381,-7.0,0.0,17.0,59.0,1.0,4.0,-9.0,-6.0
1701718880.4883776,8.0,5.0,40.0,3.0,3.0,-4.0,-5.0,-12.0
1701718880.4883776,1.0,3.0,26.0,6.0,2.0,-1.0,11.0,9.0
1701718880.4883776,0.0,5.0,1.0,-11.0,-2.0,5.0,-4.0,-8.0
1701718880.4883776,-2.0,-4.0,-9.0,-1.0,-3.0,-7.0,-6.0,7.0
1701718880.4986634,1.0,-1.0,-6.0,3.0,-2.0,-1.0,-2.0,-9.0
1701718880.4986634,-3.0,-4.0,-10.0,-13.0,-4.0,6.0,20.0,-3.0
1701718880.5086207,4.0,5.0,24.0,27.0,6.0,-2.0,-46.0,-10.0
1701718880.5086207,-3.0,-4.0,5.0,-20.0,-4.0,-8.0,1.0,-6.0
1701718880.5184572,0.0,-3.0,-36.0,-16.0,-5.0,6.0,-3.0,22.0
1701718880.5184572,-1.0,-1.0,-2.0,-1.0,1.0,-9.0,-5.0,-7.0
1701718880.5383782,-2.0,-1.0,53.0,17.0,2.0,4.0,19.0,-1.0
1701718880.5383782,7.0,-5.0,-36.0,-27.0,-2.0,-2.0,-17.0,-5.0
1701718880.5383782,-5.0,-5.0,11.0,20.0,-2.0,-7.0,13.0,3.0
1701718880.5383782,1.0,-8.0,-15.0,-20.0,-8.0,7.0,-3.0,3.0
1701718880.548779,-14.0,-1.0,-21.0,6.0,1.0,-7.0,3.0,-2.0
1701718880.548779,5.0,3.0,21.0,4.0,0.0,0.0,-6.0,-1.0
1701718880.5587819,2.0,5.0,-2.0,-36.0,-5.0,-4.0,-2.0,4.0
1701718880.5587819,-4.0,2.0,-2.0,48.0,8.0,0.0,13.0,-3.0
1701718880.5683808,-3.0,-2.0,40.0,19.0,0.0,1.0,9.0,3.0
1701718880.5683808,-5.0,1.0,-10.0,-5.0,-4.0,-1.0,3.0,5.0
1701718880.5784125,2.0,-2.0,-18.0,-14.0,-5.0,-4.0,-6.0,-5.0
1701718880.5784125,1.0,2.0,-2.0,-5.0,-5.0,-9.0,-17.0,-2.0
1701718880.5888093,7.0,6.0,0.0,-15.0,-2.0,-1.0,-1.0,-1.0
1701718880.5888093,-3.0,2.0,28.0,11.0,2.0,7.0,24.0,-2.0
1701718880.5987973,-2.0,2.0,13.0,18.0,5.0,11.0,-17.0,-4.0
1701718880.5987973,0.0,-9.0,-57.0,-28.0,2.0,-6.0,-8.0,-2.0
1701718880.6130712,2.0,7.0,34.0,18.0,-1.0,-6.0,5.0,-4.0
1701718880.6130712,-2.0,-2.0,27.0,-5.0,-6.0,-7.0,-7.0,-1.0
1701718880.6415095,-12.0,-10.0,-7.0,2.0,-6.0,-15.0,-16.0,-24.0
1701718880.6415095,-2.0,9.0,63.0,7.0,2.0,6.0,5.0,11.0
1701718880.6515923,-6.0,-15.0,-70.0,-29.0,0.0,20.0,48.0,18.0
1701718880.6515923,2.0,6.0,-1.0,0.0,-1.0,-14.0,-16.0,-7.0
1701718880.6718485,0.0,-6.0,29.0,27.0,0.0,4.0,0.0,-7.0
1701718880.6718485,-5.0,0.0,-27.0,-29.0,-8.0,-9.0,-17.0,-4.0
1701718880.6718485,3.0,2.0,40.0,19.0,6.0,16.0,37.0,0.0
1701718880.6718485,-3.0,-7.0,-63.0,-19.0,-3.0,-7.0,-18.0,-6.0
1701718880.6818004,0.0,-2.0,-24.0,-24.0,0.0,4.0,16.0,7.0
1701718880.6818004,-2.0,4.0,83.0,38.0,-1.0,-8.0,-9.0,-13.0
1701718880.6818004,2.0,1.0,-9.0,-16.0,-4.0,-9.0,-17.0,-2.0
1701718880.6818004,-6.0,-15.0,-88.0,-32.0,-9.0,-5.0,-14.0,-12.0
1701718880.701536,1.0,1.0,-16.0,19.0,10.0,-4.0,-18.0,-1.0
1701718880.701536,4.0,-1.0,11.0,-12.0,-6.0,7.0,14.0,9.0
1701718880.701536,-2.0,2.0,22.0,0.0,3.0,-1.0,-9.0,0.0
1701718880.7115648,-6.0,-4.0,-51.0,-6.0,-2.0,3.0,6.0,-3.0
1701718880.7218573,9.0,11.0,-3.0,2.0,5.0,-1.0,-1.0,0.0
1701718880.7218573,-2.0,2.0,13.0,-10.0,-4.0,-5.0,-16.0,3.0
1701718880.7218573,2.0,-11.0,24.0,17.0,2.0,2.0,10.0,6.0
1701718880.7218573,5.0,3.0,36.0,-5.0,4.0,3.0,-6.0,0.0
1701718880.7318106,-3.0,-11.0,-70.0,-35.0,-14.0,0.0,-14.0,-13.0
1701718880.7318106,-4.0,11.0,57.0,41.0,11.0,9.0,23.0,2.0
1701718880.7415626,-1.0,14.0,80.0,8.0,-4.0,-14.0,-32.0,-13.0
1701718880.7415626,6.0,-13.0,-29.0,6.0,2.0,3.0,6.0,2.0
1701718880.7515113,-7.0,0.0,18.0,-14.0,-4.0,4.0,10.0,-2.0
1701718880.7515113,4.0,4.0,33.0,-1.0,4.0,-3.0,-5.0,22.0
1701718880.7615385,-9.0,-16.0,-81.0,-11.0,-7.0,-20.0,-23.0,-12.0
1701718880.7615385,8.0,16.0,99.0,61.0,14.0,21.0,15.0,-8.0
1701718880.7718267,-2.0,-3.0,12.0,-7.0,-2.0,-6.0,18.0,22.0
1701718880.7718267,-6.0,-6.0,-74.0,-31.0,-7.0,8.0,11.0,0.0
1701718880.7718267,27.0,-6.0,-55.0,-15.0,-3.0,4.0,25.0,-1.0
1701718880.7718267,-16.0,11.0,15.0,-8.0,-8.0,-7.0,-2.0,-15.0
1701718880.7818422,6.0,-1.0,47.0,3.0,-3.0,-13.0,-21.0,-3.0
1701718880.7918572,-13.0,-19.0,-80.0,-23.0,-7.0,-4.0,-3.0,-7.0
1701718880.8018525,3.0,7.0,53.0,33.0,6.0,2.0,-12.0,0.0
1701718880.8018525,1.0,0.0,10.0,-11.0,-1.0,-8.0,-24.0,7.0
1701718880.8120944,1.0,8.0,11.0,17.0,3.0,2.0,8.0,1.0
1701718880.8120944,-3.0,-9.0,-18.0,2.0,-7.0,-12.0,11.0,-3.0
1701718880.8120944,-9.0,-12.0,-51.0,-29.0,-11.0,5.0,3.0,-3.0
1701718880.8120944,-9.0,-7.0,40.0,-1.0,0.0,-7.0,3.0,-1.0
1701718880.842171,2.0,12.0,96.0,10.0,6.0,10.0,11.0,-1.0
1701718880.842171,0.0,2.0,79.0,20.0,-25.0,-19.0,-16.0,-1.0
1701718880.842171,-8.0,-2.0,-36.0,6.0,7.0,22.0,19.0,-8.0
1701718880.842171,-4.0,-7.0,9.0,-1.0,14.0,8.0,21.0,17.0
1701718880.8518605,-2.0,-5.0,-41.0,2.0,-6.0,-8.0,-22.0,-18.0
1701718880.8518605,7.0,11.0,-11.0,-7.0,8.0,6.0,25.0,8.0
1701718880.8718529,-1.0,-2.0,81.0,-8.0,-17.0,-22.0,-25.0,-9.0
1701718880.8718529,-3.0,-8.0,-73.0,2.0,-11.0,9.0,13.0,4.0
1701718880.8718529,0.0,3.0,35.0,-3.0,0.0,-6.0,-30.0,-1.0
1701718880.8718529,10.0,9.0,-70.0,2.0,29.0,26.0,27.0,4.0
1701718880.8718529,-3.0,2.0,-21.0,8.0,9.0,-3.0,-12.0,6.0
1701718880.8718529,3.0,3.0,22.0,-2.0,3.0,-6.0,0.0,3.0
1701718880.8921437,-10.0,-26.0,-121.0,-16.0,-12.0,-7.0,-17.0,-10.0
1701718880.8921437,5.0,3.0,31.0,-3.0,-8.0,9.0,9.0,-1.0
1701718880.8921437,-8.0,1.0,-26.0,6.0,14.0,-2.0,-7.0,-4.0
1701718880.8921437,4.0,2.0,31.0,7.0,10.0,-3.0,-41.0,4.0
1701718880.911859,-7.0,5.0,2.0,5.0,-6.0,3.0,47.0,6.0
1701718880.911859,-2.0,-6.0,-12.0,-6.0,-2.0,-7.0,-37.0,-7.0
1701718880.9318538,5.0,-11.0,-91.0,-13.0,-7.0,-5.0,17.0,9.0
1701718880.9318538,-5.0,5.0,40.0,-4.0,-17.0,7.0,35.0,-3.0
1701718880.9318538,-2.0,1.0,29.0,-2.0,9.0,8.0,16.0,13.0
1701718880.9318538,3.0,7.0,23.0,7.0,9.0,3.0,-9.0,0.0
1701718880.9318538,-3.0,1.0,7.0,13.0,2.0,-9.0,-10.0,3.0
1701718880.9318538,0.0,5.0,37.0,-3.0,-8.0,-9.0,-21.0,-5.0
1701718880.9522517,-3.0,-16.0,-78.0,-37.0,-13.0,-7.0,-20.0,-9.0
1701718880.9522517,-3.0,-15.0,-24.0,-5.0,0.0,6.0,19.0,-5.0
1701718880.9522517,-1.0,41.0,127.0,31.0,8.0,4.0,-11.0,0.0
1701718880.9522517,1.0,-38.0,-100.0,-33.0,-4.0,-6.0,1.0,-3.0
1701718880.962178,2.0,9.0,44.0,4.0,-12.0,-11.0,-14.0,0.0
1701718880.962178,-4.0,-11.0,-18.0,-8.0,1.0,3.0,0.0,4.0
1701718880.9818525,-3.0,4.0,22.0,1.0,5.0,1.0,-15.0,-13.0
1701718880.9818525,0.0,5.0,-15.0,5.0,-1.0,-18.0,-2.0,8.0
1701718880.992246,1.0,3.0,21.0,0.0,3.0,22.0,51.0,12.0
1701718880.992246,-3.0,-7.0,-25.0,-13.0,-7.0,-12.0,-40.0,-11.0
1701718880.992246,3.0,6.0,23.0,0.0,2.0,3.0,16.0,5.0
1701718880.992246,-10.0,-15.0,-48.0,-13.0,-10.0,-17.0,-29.0,-14.0
1701718881.0119112,5.0,0.0,-24.0,-4.0,-1.0,-6.0,-15.0,-5.0
1701718881.0119112,0.0,-1.0,23.0,3.0,-6.0,0.0,16.0,1.0
1701718881.0218525,-10.0,-18.0,-63.0,-17.0,-6.0,-2.0,7.0,0.0
1701718881.0218525,7.0,15.0,63.0,16.0,-2.0,-4.0,-7.0,-6.0
1701718881.0218525,-2.0,-9.0,-22.0,-12.0,-4.0,-9.0,-9.0,2.0
1701718881.0218525,0.0,2.0,20.0,5.0,5.0,4.0,0.0,-3.0
1701718881.0318644,-1.0,1.0,31.0,-11.0,-11.0,-9.0,-13.0,0.0
1701718881.0318644,-5.0,3.0,2.0,0.0,-3.0,9.0,23.0,3.0
1701718881.0522838,-6.0,-11.0,-6.0,16.0,3.0,-4.0,-12.0,-4.0
1701718881.0522838,6.0,-3.0,7.0,5.0,13.0,6.0,-9.0,-8.0
1701718881.0522838,5.0,-5.0,-2.0,-2.0,-7.0,2.0,13.0,9.0
1701718881.0522838,-6.0,6.0,-2.0,-11.0,-12.0,0.0,12.0,5.0
1701718881.0818527,2.0,16.0,15.0,10.0,6.0,0.0,-2.0,9.0
1701718881.0818527,-3.0,-3.0,11.0,-2.0,-3.0,-6.0,-4.0,-10.0
1701718881.0818527,-2.0,1.0,-20.0,-8.0,-2.0,0.0,-28.0,12.0
1701718881.0818527,13.0,-1.0,-29.0,8.0,8.0,17.0,30.0,-6.0
1701718881.0818527,-9.0,4.0,18.0,1.0,-1.0,-4.0,14.0,11.0
1701718881.0818527,-4.0,1.0,-4.0,-7.0,-6.0,-9.0,-30.0,-1.0
1701718881.091852,-3.0,-8.0,-37.0,-3.0,-3.0,3.0,3.0,-12.0
1701718881.091852,-1.0,11.0,20.0,2.0,1.0,-6.0,-6.0,2.0
1701718881.1121569,3.0,-6.0,14.0,1.0,4.0,4.0,13.0,-11.0
1701718881.1121569,-1.0,1.0,-26.0,7.0,-5.0,-2.0,-6.0,3.0
1701718881.1218529,-5.0,-13.0,-20.0,-15.0,-2.0,-6.0,-6.0,-12.0
1701718881.1218529,2.0,0.0,22.0,0.0,0.0,12.0,7.0,6.0
1701718881.1372552,-2.0,6.0,14.0,16.0,8.0,-4.0,2.0,-7.0
1701718881.1382024,-1.0,4.0,-3.0,14.0,19.0,-3.0,-5.0,5.0
1701718881.1481535,0.0,-8.0,-3.0,11.0,8.0,1.0,49.0,-26.0
1701718881.1481535,-5.0,4.0,7.0,-9.0,-1.0,-7.0,-23.0,6.0
1701718881.1511762,0.0,-5.0,-2.0,2.0,-10.0,-1.0,10.0,47.0
1701718881.1511762,7.0,9.0,16.0,0.0,-9.0,-8.0,-51.0,-2.0
1701718881.1600504,-7.0,-8.0,-22.0,-5.0,-1.0,5.0,-23.0,-11.0
1701718881.1600504,-2.0,-1.0,4.0,7.0,4.0,2.0,-11.0,-28.0
1701718881.164396,-6.0,-8.0,-12.0,-12.0,-6.0,-1.0,12.0,-27.0
1701718881.164396,-3.0,0.0,-6.0,-4.0,-8.0,-17.0,16.0,0.0
1701718881.1748295,3.0,8.0,9.0,1.0,-5.0,-4.0,-8.0,0.0
1701718881.1748295,-3.0,0.0,-5.0,3.0,-2.0,-2.0,19.0,1.0
1701718881.1847804,-8.0,-12.0,-8.0,-1.0,-3.0,7.0,-11.0,-8.0
1701718881.1847804,-5.0,-1.0,1.0,-6.0,3.0,6.0,3.0,-8.0
1701718881.1847804,0.0,-3.0,-7.0,-5.0,-2.0,-4.0,5.0,8.0
1701718881.1847804,-2.0,4.0,-18.0,-3.0,-2.0,-5.0,11.0,7.0
1701718881.2043962,-3.0,-12.0,4.0,-2.0,0.0,-1.0,5.0,11.0
1701718881.2043962,6.0,-4.0,-8.0,-2.0,-1.0,1.0,-5.0,-6.0
1701718881.2043962,-18.0,-4.0,-11.0,-8.0,-10.0,-2.0,4.0,-19.0
1701718881.2043962,-1.0,3.0,4.0,2.0,1.0,-1.0,-28.0,22.0
1701718881.224747,9.0,14.0,5.0,0.0,7.0,-3.0,2.0,-11.0
1701718881.224747,-1.0,-2.0,-10.0,-10.0,-7.0,-2.0,1.0,10.0
1701718881.2347322,10.0,22.0,12.0,7.0,1.0,3.0,13.0,11.0
1701718881.2347322,-1.0,-48.0,-4.0,3.0,0.0,6.0,21.0,-1.0
1701718881.2443986,-12.0,2.0,-11.0,-7.0,0.0,3.0,-27.0,-14.0
1701718881.2443986,-11.0,-5.0,0.0,-5.0,-4.0,-4.0,21.0,0.0
1701718881.2443986,3.0,13.0,-1.0,0.0,-3.0,0.0,-8.0,0.0
1701718881.2443986,-2.0,-17.0,-5.0,2.0,3.0,-4.0,4.0,-14.0
1701718881.2644017,9.0,8.0,7.0,1.0,-1.0,4.0,18.0,23.0
1701718881.2644017,-7.0,-8.0,-2.0,-3.0,0.0,-4.0,-20.0,-9.0
1701718881.2644017,11.0,2.0,5.0,-3.0,0.0,4.0,5.0,24.0
1701718881.2644017,-5.0,2.0,-3.0,-3.0,-1.0,3.0,2.0,-19.0
1701718881.284404,13.0,14.0,5.0,0.0,0.0,4.0,-21.0,-13.0
1701718881.284404,4.0,-12.0,-3.0,-5.0,-9.0,-10.0,0.0,2.0
1701718881.2946346,-10.0,-14.0,-4.0,-3.0,1.0,-4.0,-14.0,9.0
1701718881.2946346,-8.0,8.0,4.0,-2.0,-1.0,-1.0,-4.0,-8.0
1701718881.324395,1.0,-10.0,-7.0,-2.0,1.0,-5.0,21.0,-51.0
1701718881.324395,8.0,5.0,2.0,-1.0,-2.0,6.0,-40.0,47.0
1701718881.324395,8.0,-12.0,4.0,2.0,5.0,6.0,31.0,-22.0
1701718881.324395,4.0,10.0,-1.0,1.0,-1.0,-5.0,-16.0,67.0
1701718881.324395,-4.0,4.0,-3.0,3.0,2.0,-4.0,-15.0,-20.0
1701718881.324395,0.0,2.0,-2.0,-2.0,0.0,2.0,-1.0,-7.0
1701718881.324395,1.0,-17.0,-2.0,2.0,0.0,3.0,-7.0,-25.0
1701718881.324395,-2.0,19.0,2.0,2.0,2.0,-2.0,-4.0,-12.0
1701718881.344852,0.0,-6.0,-2.0,-7.0,-7.0,-1.0,2.0,2.0
1701718881.344852,2.0,-1.0,2.0,1.0,4.0,3.0,23.0,-7.0
1701718881.3548324,-5.0,-38.0,-10.0,-6.0,-7.0,-9.0,-28.0,12.0
1701718881.3548324,5.0,21.0,8.0,4.0,3.0,9.0,26.0,-19.0
1701718881.3647437,-4.0,-14.0,-6.0,0.0,4.0,-3.0,-18.0,29.0
1701718881.3647437,-2.0,-13.0,-2.0,2.0,-3.0,4.0,15.0,-18.0
1701718881.3647437,11.0,24.0,5.0,-4.0,-2.0,-10.0,-10.0,-18.0
1701718881.3647437,-6.0,-8.0,-3.0,-6.0,-9.0,0.0,-23.0,26.0
1701718881.3843966,6.0,-2.0,4.0,-2.0,0.0,2.0,11.0,-1.0
1701718881.3843966,-7.0,1.0,-8.0,-2.0,3.0,-1.0,-5.0,-13.0
1701718881.3843966,-3.0,-1.0,-4.0,3.0,-4.0,3.0,3.0,-12.0
1701718881.3843966,-5.0,-4.0,3.0,-1.0,2.0,-7.0,-3.0,8.0
1701718881.4043984,-4.0,3.0,-6.0,1.0,1.0,-3.0,-19.0,-6.0
1701718881.4043984,3.0,0.0,-1.0,-2.0,-3.0,-2.0,17.0,-2.0
1701718881.414398,-14.0,-13.0,-9.0,-7.0,-4.0,-4.0,-17.0,1.0
1701718881.414398,13.0,15.0,2.0,-1.0,-4.0,0.0,5.0,1.0
1701718881.4243953,8.0,6.0,6.0,7.0,-1.0,1.0,-1.0,10.0
1701718881.4243953,-6.0,8.0,3.0,3.0,4.0,0.0,5.0,-4.0
1701718881.4243953,5.0,14.0,-3.0,-1.0,0.0,1.0,0.0,10.0
1701718881.4243953,-6.0,-35.0,-3.0,-2.0,-6.0,-11.0,1.0,-28.0
1701718881.4443989,-7.0,8.0,-4.0,-5.0,-2.0,4.0,-12.0,18.0
1701718881.4443989,0.0,-11.0,-7.0,-6.0,2.0,-3.0,-2.0,-12.0
1701718881.4443989,-7.0,-2.0,11.0,7.0,-1.0,-3.0,-4.0,8.0
1701718881.4443989,2.0,12.0,-3.0,1.0,1.0,-2.0,-20.0,-16.0
1701718881.4648378,-9.0,-13.0,-3.0,-7.0,-3.0,-5.0,6.0,-5.0
1701718881.4648378,12.0,5.0,-2.0,1.0,-7.0,-3.0,6.0,-6.0
1701718881.4747365,-10.0,8.0,-22.0,-7.0,0.0,7.0,-10.0,-1.0
1701718881.4747365,7.0,-1.0,14.0,3.0,0.0,1.0,4.0,1.0
1701718881.494395,1.0,-4.0,-4.0,-4.0,2.0,-3.0,3.0,4.0
1701718881.494395,-8.0,-2.0,-4.0,2.0,0.0,4.0,5.0,-1.0
1701718881.494395,-8.0,7.0,-4.0,-4.0,-3.0,-12.0,3.0,8.0
1701718881.494395,2.0,-4.0,-10.0,0.0,-2.0,7.0,1.0,-16.0
1701718881.5043974,5.0,-22.0,-6.0,-6.0,-5.0,-4.0,-4.0,12.0
1701718881.5043974,-15.0,-21.0,-4.0,-8.0,-3.0,-4.0,-6.0,-4.0
1701718881.5043974,0.0,2.0,2.0,1.0,-1.0,-6.0,-2.0,-1.0
1701718881.5043974,-1.0,3.0,0.0,0.0,4.0,10.0,-1.0,3.0
1701718881.524399,-10.0,13.0,10.0,6.0,-2.0,-5.0,-3.0,-11.0
1701718881.524399,-7.0,-8.0,-17.0,-9.0,-4.0,-4.0,6.0,-3.0
1701718881.5343983,6.0,-4.0,15.0,5.0,3.0,7.0,12.0,17.0
1701718881.5343983,1.0,4.0,0.0,3.0,1.0,3.0,-5.0,-21.0
1701718881.5446613,-4.0,0.0,-3.0,-4.0,1.0,-2.0,-9.0,8.0
1701718881.5446613,15.0,8.0,4.0,1.0,-3.0,3.0,3.0,2.0
1701718881.5546699,-2.0,-10.0,2.0,2.0,2.0,-11.0,0.0,-3.0
1701718881.5546699,3.0,-1.0,3.0,6.0,1.0,6.0,10.0,15.0
1701718881.5644019,-3.0,7.0,15.0,6.0,-1.0,-5.0,1.0,-12.0
1701718881.5644019,-4.0,6.0,-9.0,-6.0,-4.0,-6.0,-6.0,0.0
1701718881.5644019,1.0,3.0,-9.0,-4.0,2.0,11.0,6.0,5.0
1701718881.5644019,-3.0,-6.0,-32.0,-15.0,-1.0,-6.0,-1.0,-2.0
1701718881.5844035,0.0,-12.0,30.0,5.0,-4.0,-3.0,-4.0,-17.0
1701718881.5844035,12.0,5.0,52.0,9.0,-4.0,-4.0,1.0,7.0
1701718881.604401,-2.0,7.0,-3.0,3.0,-1.0,-3.0,-15.0,7.0
1701718881.604401,-6.0,-20.0,-23.0,-13.0,-2.0,-1.0,19.0,1.0
1701718881.604401,6.0,7.0,0.0,1.0,-1.0,-3.0,-7.0,-9.0
1701718881.604401,4.0,6.0,-11.0,1.0,-1.0,-4.0,12.0,2.0
1701718881.614447,-6.0,-7.0,11.0,-5.0,-2.0,1.0,0.0,2.0
1701718881.614447,4.0,7.0,-5.0,-1.0,-3.0,-6.0,0.0,11.0
1701718881.6244016,-5.0,-6.0,-3.0,-2.0,-2.0,2.0,-7.0,-18.0
1701718881.6244016,-12.0,8.0,3.0,1.0,3.0,6.0,5.0,-6.0
1701718881.6344006,-4.0,1.0,-15.0,-5.0,5.0,2.0,7.0,5.0
1701718881.6344006,-4.0,0.0,-15.0,-10.0,-5.0,-8.0,-12.0,-4.0
1701718881.644397,1.0,-3.0,-2.0,-7.0,-6.0,-11.0,5.0,15.0
1701718881.644397,4.0,5.0,16.0,12.0,-2.0,1.0,-17.0,2.0
1701718881.6544287,-1.0,-5.0,-15.0,-7.0,5.0,12.0,24.0,-9.0
1701718881.6544287,-5.0,0.0,3.0,3.0,3.0,0.0,-4.0,0.0
1701718881.6643994,-2.0,-3.0,-2.0,-1.0,-3.0,-8.0,2.0,-2.0
1701718881.6643994,0.0,1.0,-7.0,6.0,-3.0,2.0,-5.0,0.0
1701718881.6766434,3.0,1.0,53.0,5.0,1.0,-11.0,-17.0,-1.0
1701718881.6766434,1.0,-3.0,-7.0,12.0,0.0,-1.0,1.0,-6.0
1701718881.6841567,-4.0,-1.0,17.0,-6.0,0.0,0.0,1.0,2.0
1701718881.6841567,-5.0,-4.0,-29.0,-22.0,-1.0,7.0,-6.0,-2.0
1701718881.6961627,2.0,-8.0,-40.0,-16.0,-5.0,-4.0,-2.0,7.0
1701718881.6961627,-7.0,0.0,100.0,38.0,-2.0,2.0,18.0,-2.0
1701718881.6972752,6.0,0.0,-59.0,-17.0,4.0,6.0,0.0,-11.0
1701718881.6972752,2.0,3.0,31.0,12.0,3.0,-1.0,-3.0,7.0
1701718881.707276,-7.0,-5.0,-32.0,-17.0,-10.0,-9.0,-10.0,4.0
1701718881.707276,2.0,2.0,3.0,-10.0,-2.0,-9.0,-9.0,-4.0
1701718881.7277343,-6.0,0.0,-10.0,6.0,-1.0,3.0,13.0,5.0
1701718881.7277343,-2.0,2.0,8.0,0.0,5.0,2.0,-4.0,-5.0
1701718881.7372794,5.0,-2.0,7.0,3.0,-1.0,4.0,-7.0,-7.0
1701718881.7372794,-5.0,0.0,-47.0,-11.0,-3.0,-5.0,-10.0,-2.0
1701718881.7372794,2.0,1.0,32.0,1.0,-1.0,3.0,1.0,13.0
1701718881.7372794,-9.0,-10.0,-40.0,4.0,-3.0,-4.0,11.0,-2.0
1701718881.7472951,-4.0,2.0,35.0,18.0,-2.0,-5.0,-10.0,-10.0
1701718881.7472951,-2.0,-4.0,-45.0,-20.0,-3.0,-3.0,-5.0,-1.0
1701718881.7672799,6.0,6.0,14.0,9.0,-1.0,-5.0,-2.0,-4.0
1701718881.7672799,-6.0,1.0,24.0,-15.0,4.0,-3.0,-2.0,4.0
1701718881.7672799,7.0,-5.0,9.0,3.0,-2.0,13.0,40.0,8.0
1701718881.7672799,-8.0,-1.0,11.0,12.0,-4.0,-3.0,-2.0,-5.0
1701718881.7874765,-1.0,1.0,20.0,-13.0,2.0,4.0,9.0,0.0
1701718881.7874765,-5.0,-11.0,-57.0,-2.0,-3.0,-11.0,-24.0,-13.0
1701718881.7974298,5.0,5.0,-10.0,0.0,-1.0,-1.0,-10.0,1.0
1701718881.7974298,-7.0,-9.0,-17.0,-12.0,4.0,3.0,6.0,1.0
1701718881.7974298,0.0,0.0,7.0,12.0,-3.0,1.0,-2.0,0.0
1701718881.7974298,-3.0,-2.0,4.0,-7.0,-1.0,-6.0,7.0,-1.0
1701718881.8076434,2.0,0.0,-27.0,-8.0,3.0,2.0,-7.0,0.0
1701718881.8076434,5.0,7.0,70.0,38.0,2.0,1.0,-5.0,9.0
1701718881.827279,-8.0,-13.0,-19.0,-1.0,0.0,-1.0,-6.0,-2.0
1701718881.827279,2.0,0.0,-3.0,-14.0,-8.0,-4.0,-1.0,-7.0
1701718881.827279,0.0,-2.0,-17.0,-11.0,0.0,1.0,10.0,-2.0
1701718881.827279,1.0,-1.0,-4.0,-1.0,3.0,-2.0,-4.0,6.0
1701718881.8472784,-7.0,-1.0,40.0,42.0,7.0,-5.0,-14.0,-9.0
1701718881.8472784,5.0,-2.0,-29.0,-24.0,0.0,8.0,21.0,17.0
1701718881.8472784,-1.0,-4.0,-1.0,12.0,-6.0,0.0,12.0,0.0
1701718881.8472784,-2.0,5.0,10.0,-1.0,4.0,-1.0,-8.0,-13.0
1701718881.8672798,4.0,0.0,-19.0,-27.0,-1.0,-6.0,7.0,1.0
1701718881.8672798,5.0,3.0,-2.0,20.0,4.0,14.0,15.0,9.0
1701718881.8672798,-10.0,-3.0,-31.0,-17.0,-3.0,-8.0,-14.0,-5.0
1701718881.8672798,-1.0,-7.0,21.0,5.0,-4.0,-4.0,-4.0,-2.0
1701718881.8872814,0.0,-7.0,-78.0,-31.0,-8.0,2.0,13.0,-2.0
1701718881.8872814,-19.0,-3.0,46.0,9.0,0.0,-11.0,-14.0,-1.0
1701718881.8872814,23.0,11.0,8.0,11.0,4.0,3.0,1.0,12.0
1701718881.8872814,-9.0,-8.0,-10.0,-9.0,-7.0,-2.0,-2.0,-14.0
1701718881.9272993,-1.0,0.0,-21.0,18.0,3.0,-1.0,23.0,9.0
1701718881.9272993,-1.0,-2.0,-4.0,-18.0,-4.0,-1.0,-6.0,-10.0
1701718881.9572768,-20.0,0.0,11.0,-6.0,-2.0,-4.0,-10.0,-7.0
1701718881.9572768,9.0,10.0,30.0,13.0,3.0,-11.0,-8.0,5.0
1701718881.9572768,1.0,8.0,14.0,-18.0,-4.0,17.0,23.0,6.0
1701718881.9572768,-2.0,-1.0,-44.0,-8.0,1.0,-11.0,-5.0,4.0
1701718881.9572768,-5.0,-3.0,27.0,7.0,1.0,17.0,6.0,-22.0
1701718881.9572768,4.0,0.0,-80.0,-25.0,-1.0,-9.0,-26.0,16.0
1701718881.967684,-13.0,-22.0,18.0,10.0,-4.0,-7.0,-15.0,-8.0
1701718881.967684,2.0,2.0,-21.0,-7.0,-1.0,-1.0,-7.0,-3.0
1701718881.967684,-3.0,-7.0,-30.0,-20.0,-4.0,-8.0,-19.0,-7.0
1701718881.967684,-5.0,-3.0,60.0,45.0,-12.0,0.0,5.0,-10.0
1701718881.987276,3.0,7.0,39.0,-24.0,-6.0,-5.0,-15.0,6.0
1701718881.987276,3.0,4.0,14.0,9.0,2.0,4.0,12.0,0.0
1701718881.987276,-2.0,-6.0,-65.0,-6.0,12.0,-9.0,-7.0,1.0
1701718881.987276,-2.0,2.0,-12.0,-1.0,2.0,9.0,23.0,-1.0
1701718882.00774,2.0,5.0,-13.0,-15.0,-11.0,-6.0,-14.0,-2.0
1701718882.00774,-3.0,-5.0,33.0,5.0,-8.0,-8.0,-13.0,-18.0
1701718882.00774,-1.0,0.0,34.0,16.0,5.0,4.0,21.0,15.0
1701718882.00774,2.0,-1.0,-21.0,-32.0,-9.0,0.0,-36.0,-12.0
1701718882.017716,-3.0,0.0,0.0,27.0,5.0,-5.0,12.0,6.0
1701718882.017716,3.0,10.0,-18.0,-4.0,-1.0,13.0,2.0,-7.0
1701718882.017716,-6.0,-16.0,54.0,-4.0,-5.0,-14.0,-19.0,-2.0
1701718882.017716,-7.0,-11.0,1.0,11.0,8.0,0.0,4.0,-5.0
1701718882.027617,-1.0,1.0,-22.0,-8.0,-2.0,-10.0,-12.0,-4.0
1701718882.027617,0.0,7.0,19.0,16.0,6.0,3.0,-4.0,4.0
1701718882.0472767,-4.0,-2.0,51.0,-1.0,-9.0,-1.0,-5.0,-5.0
1701718882.0472767,5.0,-3.0,-61.0,-24.0,-2.0,-4.0,0.0,0.0
1701718882.0576544,-11.0,2.0,-26.0,-4.0,6.0,17.0,10.0,5.0
1701718882.0576544,0.0,-6.0,-2.0,10.0,-1.0,-2.0,20.0,4.0
1701718882.0576544,1.0,14.0,78.0,27.0,1.0,-3.0,-9.0,-9.0
1701718882.0576544,-2.0,-13.0,-53.0,-7.0,-4.0,-8.0,9.0,2.0
1701718882.0673306,0.0,3.0,-6.0,3.0,-4.0,-4.0,-7.0,-7.0
1701718882.0673306,-1.0,-6.0,-27.0,-17.0,2.0,4.0,0.0,-11.0
1701718882.0872774,-2.0,0.0,29.0,-10.0,-8.0,-2.0,7.0,2.0
1701718882.0872774,-1.0,1.0,17.0,4.0,3.0,1.0,3.0,-2.0
1701718882.0972795,1.0,-1.0,-10.0,-2.0,7.0,-6.0,-8.0,-5.0
1701718882.0972795,-4.0,-3.0,16.0,7.0,-13.0,-14.0,-18.0,-6.0
1701718882.0972795,2.0,-3.0,-75.0,-16.0,0.0,15.0,34.0,10.0
1701718882.0972795,1.0,1.0,24.0,-3.0,-2.0,2.0,26.0,13.0
1701718882.1176233,2.0,-10.0,-25.0,-6.0,-5.0,-4.0,-1.0,-10.0
1701718882.1176233,-7.0,-1.0,90.0,14.0,-5.0,-12.0,-22.0,-4.0
1701718882.1176233,1.0,2.0,-35.0,3.0,-2.0,-4.0,-6.0,1.0
1701718882.1176233,-2.0,4.0,42.0,-5.0,-3.0,9.0,26.0,1.0
1701718882.1372855,4.0,-1.0,-37.0,-14.0,1.0,5.0,25.0,-2.0
1701718882.1372855,-6.0,4.0,31.0,1.0,-2.0,-2.0,-1.0,4.0
1701718882.1372855,-6.0,-14.0,-64.0,13.0,-14.0,-13.0,-17.0,3.0
1701718882.1372855,-3.0,3.0,20.0,-13.0,6.0,0.0,-34.0,-12.0
1701718882.1772764,1.0,2.0,50.0,23.0,4.0,0.0,-16.0,-7.0
1701718882.1772764,2.0,-20.0,-100.0,-25.0,-2.0,-6.0,3.0,2.0
1701718882.1772764,1.0,6.0,-16.0,-22.0,0.0,1.0,9.0,-1.0
1701718882.1772764,-3.0,-2.0,-4.0,9.0,-7.0,4.0,-14.0,-2.0
1701718882.1772764,-7.0,1.0,12.0,18.0,-9.0,-8.0,-10.0,-8.0
1701718882.1772764,2.0,-3.0,-36.0,-2.0,27.0,7.0,-21.0,5.0
1701718882.1772764,3.0,3.0,30.0,2.0,8.0,6.0,23.0,6.0
1701718882.1772764,0.0,-2.0,-30.0,-7.0,-8.0,-1.0,12.0,0.0
1701718882.2095654,4.0,11.0,36.0,-14.0,-14.0,-4.0,-3.0,3.0
1701718882.2095654,-11.0,-20.0,-18.0,14.0,-19.0,-12.0,-14.0,-26.0
1701718882.2138908,1.0,12.0,-22.0,-12.0,-1.0,1.0,-4.0,7.0
1701718882.2138908,-1.0,1.0,19.0,0.0,1.0,1.0,13.0,-5.0
1701718882.2165658,-1.0,-11.0,13.0,18.0,5.0,7.0,-22.0,-6.0
1701718882.2165658,2.0,8.0,31.0,-6.0,-5.0,2.0,14.0,0.0
1701718882.2240598,-3.0,-8.0,-17.0,-23.0,-3.0,-14.0,-33.0,-19.0
1701718882.2240598,1.0,7.0,35.0,16.0,3.0,-5.0,-7.0,5.0
1701718882.2400532,-2.0,-1.0,-18.0,-12.0,-7.0,-2.0,-6.0,0.0
1701718882.2400532,6.0,6.0,49.0,11.0,3.0,2.0,16.0,16.0
1701718882.2400532,1.0,-11.0,-68.0,-26.0,-1.0,1.0,3.0,-3.0
1701718882.2400532,-6.0,-9.0,2.0,-2.0,-4.0,-5.0,3.0,2.0
1701718882.2597222,-4.0,3.0,-30.0,4.0,5.0,-3.0,-7.0,1.0
1701718882.2597222,2.0,12.0,-4.0,-9.0,-5.0,6.0,10.0,2.0
1701718882.2597222,-1.0,2.0,103.0,32.0,3.0,-1.0,-11.0,5.0
1701718882.2597222,-3.0,-6.0,-87.0,-15.0,12.0,10.0,19.0,-1.0
1701718882.2700891,-2.0,-4.0,23.0,-3.0,-8.0,-2.0,2.0,-2.0
1701718882.2700891,5.0,14.0,28.0,14.0,17.0,0.0,-26.0,-13.0
1701718882.2796886,-8.0,-12.0,-40.0,-9.0,-6.0,-8.0,-26.0,-14.0
1701718882.2796886,10.0,8.0,30.0,15.0,4.0,17.0,22.0,9.0
1701718882.3001065,4.0,-1.0,-7.0,-19.0,3.0,8.0,-4.0,-4.0
1701718882.3001065,-3.0,-2.0,-36.0,-23.0,-15.0,-5.0,8.0,1.0
1701718882.3001065,8.0,21.0,116.0,64.0,-11.0,-3.0,10.0,3.0
1701718882.3001065,-13.0,-39.0,-86.0,-62.0,20.0,-7.0,-27.0,-13.0
1701718882.3197205,2.0,2.0,62.0,5.0,-1.0,-17.0,-39.0,-10.0
1701718882.3197205,1.0,-1.0,6.0,9.0,6.0,17.0,42.0,10.0
1701718882.3197205,-3.0,-12.0,-8.0,-35.0,-7.0,4.0,21.0,3.0
1701718882.3197205,-6.0,-2.0,-13.0,22.0,-23.0,-12.0,-8.0,2.0
1701718882.329983,-1.0,-7.0,-13.0,-5.0,3.0,-7.0,7.0,5.0
1701718882.329983,-10.0,-13.0,6.0,-2.0,-3.0,-9.0,-28.0,-3.0
1701718882.3398554,8.0,5.0,-84.0,10.0,2.0,16.0,20.0,5.0
1701718882.3398554,-4.0,12.0,75.0,-6.0,-3.0,0.0,-8.0,-1.0
1701718882.359979,1.0,-11.0,-107.0,-13.0,5.0,-5.0,30.0,15.0
1701718882.359979,4.0,-4.0,28.0,27.0,4.0,7.0,1.0,1.0
1701718882.359979,-6.0,-5.0,19.0,-14.0,6.0,-12.0,-29.0,-27.0
1701718882.359979,4.0,1.0,-45.0,-2.0,2.0,13.0,43.0,18.0
1701718882.3896868,-4.0,7.0,-16.0,10.0,-2.0,-6.0,-22.0,-2.0
1701718882.3896868,8.0,8.0,42.0,0.0,-1.0,10.0,1.0,5.0
1701718882.3896868,-12.0,-20.0,-38.0,-11.0,-8.0,-3.0,22.0,0.0
1701718882.3896868,-1.0,12.0,12.0,1.0,-8.0,-10.0,-23.0,-10.0
1701718882.4000423,2.0,-2.0,57.0,23.0,13.0,8.0,22.0,12.0
1701718882.4000423,3.0,5.0,-12.0,-14.0,4.0,-2.0,-12.0,-11.0
1701718882.4000423,-9.0,-16.0,-70.0,-25.0,2.0,-11.0,-48.0,-7.0
1701718882.4000423,0.0,-2.0,126.0,24.0,-14.0,-8.0,-8.0,-2.0
1701718882.4200745,3.0,4.0,-38.0,-20.0,-11.0,-5.0,-18.0,2.0
1701718882.4200745,-11.0,-23.0,-2.0,-18.0,-8.0,-2.0,0.0,-9.0
1701718882.4200745,3.0,14.0,47.0,26.0,5.0,9.0,-5.0,-1.0
1701718882.4200745,8.0,6.0,-4.0,14.0,12.0,20.0,60.0,17.0
1701718882.4396877,10.0,11.0,21.0,6.0,3.0,5.0,11.0,11.0
1701718882.4396877,-3.0,3.0,29.0,16.0,5.0,-17.0,-17.0,-5.0
1701718882.4396877,-3.0,-14.0,-26.0,-19.0,-15.0,1.0,4.0,0.0
1701718882.4396877,2.0,2.0,6.0,-2.0,-2.0,-9.0,-27.0,-10.0
1701718882.4497216,-14.0,-21.0,9.0,-9.0,0.0,3.0,8.0,-17.0
1701718882.4497216,6.0,9.0,-39.0,14.0,7.0,4.0,7.0,30.0
1701718882.460004,-2.0,4.0,9.0,3.0,2.0,3.0,18.0,6.0
1701718882.460004,3.0,16.0,43.0,15.0,-3.0,-10.0,-38.0,-22.0
1701718882.47969,-17.0,-28.0,-27.0,-8.0,0.0,-7.0,-13.0,-13.0
1701718882.47969,-5.0,-6.0,22.0,-34.0,-15.0,1.0,36.0,0.0
1701718882.47969,2.0,4.0,-58.0,15.0,32.0,3.0,-11.0,-1.0
1701718882.47969,-4.0,-17.0,-69.0,-11.0,-10.0,-12.0,-18.0,-5.0
1701718882.5001018,1.0,14.0,10.0,4.0,-11.0,-9.0,-27.0,-12.0
1701718882.5001018,2.0,-6.0,7.0,-6.0,-4.0,2.0,19.0,4.0
1701718882.5001018,-3.0,-4.0,-19.0,-6.0,-9.0,16.0,44.0,7.0
1701718882.5096936,-3.0,3.0,25.0,9.0,3.0,-4.0,-7.0,-7.0
1701718882.5096936,3.0,-18.0,-89.0,-28.0,-6.0,2.0,12.0,5.0
1701718882.5096936,-2.0,6.0,-15.0,7.0,0.0,-11.0,-9.0,-9.0
1701718882.5196884,7.0,6.0,111.0,15.0,-1.0,-12.0,-21.0,6.0
1701718882.5196884,4.0,7.0,69.0,12.0,5.0,0.0,-14.0,-6.0
1701718882.5396886,-4.0,-7.0,-73.0,-12.0,-4.0,-2.0,-18.0,-13.0
1701718882.5396886,-10.0,-8.0,-33.0,-28.0,-21.0,-12.0,-12.0,-11.0
1701718882.5396886,0.0,1.0,-7.0,24.0,5.0,2.0,-3.0,-1.0
1701718882.5396886,-5.0,1.0,-26.0,-21.0,-7.0,-3.0,23.0,2.0
1701718882.559974,12.0,9.0,77.0,20.0,4.0,6.0,9.0,25.0
1701718882.559974,7.0,33.0,93.0,23.0,0.0,4.0,7.0,5.0
1701718882.559974,-13.0,-32.0,-61.0,-44.0,-15.0,-15.0,-6.0,-13.0
1701718882.559974,-1.0,-4.0,-7.0,-6.0,20.0,13.0,-12.0,-1.0
1701718882.5699685,-5.0,-1.0,59.0,6.0,-7.0,2.0,34.0,-3.0
1701718882.5699685,0.0,3.0,-4.0,1.0,0.0,-3.0,-3.0,3.0
1701718882.5798573,11.0,25.0,30.0,15.0,2.0,-3.0,-14.0,6.0
1701718882.5798573,-2.0,-3.0,8.0,3.0,7.0,-3.0,-22.0,-4.0
1701718882.6096914,-3.0,1.0,27.0,-1.0,1.0,3.0,8.0,4.0
1701718882.6096914,1.0,-10.0,-66.0,1.0,1.0,5.0,36.0,9.0
1701718882.6096914,0.0,6.0,-4.0,3.0,-1.0,-2.0,5.0,12.0
1701718882.6096914,2.0,-1.0,-22.0,-14.0,-3.0,2.0,9.0,6.0
1701718882.6197133,4.0,14.0,30.0,14.0,7.0,6.0,5.0,-7.0
1701718882.6197133,-4.0,-11.0,-21.0,-13.0,-4.0,-6.0,-13.0,-8.0
1701718882.6197133,-4.0,-6.0,40.0,10.0,-2.0,2.0,40.0,5.0
1701718882.6197133,5.0,-8.0,-34.0,-7.0,-4.0,-12.0,-58.0,0.0
1701718882.6300874,-5.0,1.0,2.0,6.0,1.0,1.0,-13.0,0.0
1701718882.6300874,4.0,0.0,-8.0,8.0,5.0,-1.0,-29.0,-11.0
1701718882.6400478,-4.0,3.0,11.0,-10.0,2.0,2.0,-5.0,-16.0
1701718882.6400478,1.0,9.0,-13.0,-10.0,-12.0,6.0,36.0,1.0
1701718882.6597824,-2.0,-23.0,0.0,2.0,0.0,-8.0,12.0,13.0
1701718882.6597824,-7.0,-5.0,-18.0,-11.0,-4.0,-1.0,-10.0,-10.0
1701718882.6696885,-8.0,-7.0,-5.0,5.0,13.0,0.0,-18.0,-32.0
1701718882.6696885,2.0,3.0,-4.0,-1.0,-3.0,-5.0,-3.0,15.0
1701718882.679951,7.0,14.0,9.0,0.0,0.0,-7.0,-25.0,-14.0
1701718882.679951,-3.0,4.0,10.0,6.0,3.0,15.0,35.0,8.0
1701718882.679951,2.0,5.0,22.0,-1.0,-7.0,-4.0,-1.0,-8.0
1701718882.679951,-4.0,-23.0,-27.0,-7.0,-8.0,-2.0,-6.0,-12.0
1701718882.6899707,3.0,-1.0,-14.0,3.0,0.0,-2.0,4.0,1.0
1701718882.6899707,-2.0,-9.0,1.0,-7.0,-5.0,-4.0,-18.0,-1.0
1701718882.7196853,4.0,20.0,10.0,3.0,1.0,-7.0,-18.0,-9.0
1701718882.7196853,-6.0,-3.0,-8.0,-8.0,-8.0,-2.0,16.0,1.0
1701718882.7196853,-10.0,1.0,9.0,5.0,1.0,7.0,3.0,-3.0
1701718882.7196853,-6.0,-7.0,-9.0,-6.0,0.0,-8.0,-10.0,-11.0
1701718882.7196853,3.0,-8.0,1.0,1.0,-4.0,-9.0,-1.0,13.0
1701718882.7196853,2.0,0.0,-12.0,1.0,-3.0,-3.0,-7.0,-1.0
1701718882.7196853,-6.0,2.0,4.0,-3.0,-2.0,1.0,-10.0,-5.0
1701718882.7196853,6.0,1.0,-9.0,-1.0,1.0,3.0,4.0,5.0
1701718882.7354996,3.0,-2.0,0.0,2.0,-2.0,4.0,1.0,7.0
1701718882.7354996,-9.0,2.0,4.0,-3.0,-4.0,-3.0,4.0,-4.0
1701718882.7491548,1.0,9.0,10.0,2.0,0.0,3.0,7.0,-4.0
1701718882.7491548,-3.0,-23.0,-30.0,0.0,0.0,-1.0,-6.0,8.0
1701718882.7622113,1.0,-1.0,2.0,-11.0,-6.0,-1.0,-6.0,6.0
1701718882.7622113,-5.0,2.0,2.0,5.0,4.0,2.0,11.0,2.0
1701718882.764309,3.0,-1.0,-6.0,-5.0,-1.0,2.0,-7.0,-3.0
1701718882.764309,-2.0,3.0,6.0,12.0,3.0,-4.0,-4.0,-6.0
1701718882.7743134,-4.0,2.0,2.0,-2.0,1.0,7.0,0.0,0.0
1701718882.7743134,5.0,-4.0,-8.0,6.0,2.0,-4.0,17.0,5.0
1701718882.7843163,-1.0,-6.0,-3.0,-9.0,-7.0,-8.0,-14.0,15.0
1701718882.7843163,16.0,7.0,3.0,0.0,2.0,-2.0,-9.0,-10.0
1701718882.7945006,-1.0,-5.0,0.0,0.0,-4.0,0.0,-4.0,12.0
1701718882.7945006,-2.0,-2.0,-2.0,0.0,1.0,6.0,0.0,-6.0
1701718882.8046753,1.0,2.0,6.0,5.0,2.0,1.0,-3.0,4.0
1701718882.8046753,-1.0,-5.0,-1.0,2.0,0.0,4.0,-3.0,0.0
1701718882.8144214,3.0,-5.0,-4.0,-4.0,1.0,-4.0,-8.0,-6.0
1701718882.8244343,-1.0,-2.0,3.0,-4.0,-2.0,-1.0,-10.0,-10.0
1701718882.8347805,-4.0,-3.0,-12.0,-7.0,-4.0,-12.0,2.0,9.0
1701718882.8347805,-3.0,7.0,10.0,4.0,-1.0,9.0,9.0,0.0
1701718882.8347805,-6.0,2.0,-1.0,-3.0,3.0,-1.0,-2.0,-2.0
1701718882.8347805,-5.0,-10.0,-14.0,-1.0,-1.0,-5.0,-8.0,-4.0
1701718882.844799,-3.0,4.0,0.0,-5.0,-4.0,3.0,9.0,-20.0
1701718882.844799,-1.0,-4.0,-1.0,-5.0,-1.0,-10.0,-14.0,2.0
1701718882.8548698,-10.0,2.0,-4.0,1.0,-3.0,-3.0,4.0,-5.0
1701718882.8548698,4.0,5.0,1.0,-2.0,-2.0,7.0,8.0,21.0
1701718882.8644357,3.0,1.0,-1.0,7.0,5.0,4.0,9.0,-11.0
1701718882.8644357,2.0,7.0,1.0,-4.0,2.0,0.0,3.0,-2.0
1701718882.874433,-4.0,-15.0,-2.0,-2.0,-6.0,-4.0,-9.0,-8.0
1701718882.874433,2.0,-10.0,7.0,2.0,0.0,-2.0,4.0,-1.0
1701718882.8844814,-4.0,-2.0,8.0,-1.0,1.0,-3.0,-10.0,-6.0
1701718882.8844814,-8.0,-2.0,-12.0,-3.0,0.0,3.0,17.0,4.0
1701718882.8945298,5.0,3.0,10.0,4.0,-2.0,-6.0,-4.0,-1.0
1701718882.8945298,-1.0,4.0,22.0,4.0,-1.0,1.0,-2.0,-12.0
1701718882.9147894,0.0,-5.0,15.0,-6.0,3.0,3.0,-3.0,13.0
1701718882.9147894,-3.0,-6.0,-10.0,-4.0,-1.0,-8.0,-5.0,-2.0
1701718882.9147894,5.0,2.0,4.0,-10.0,-4.0,0.0,4.0,-1.0
1701718882.9147894,-4.0,2.0,20.0,17.0,-1.0,-5.0,-8.0,-6.0
1701718882.9444356,-1.0,4.0,1.0,2.0,1.0,3.0,6.0,2.0
1701718882.9444356,0.0,-3.0,-3.0,9.0,0.0,0.0,-4.0,-5.0
1701718882.9444356,-4.0,1.0,-10.0,-8.0,-7.0,-3.0,0.0,17.0
1701718882.9444356,-2.0,4.0,1.0,-14.0,-1.0,2.0,18.0,-7.0
1701718882.9444356,2.0,2.0,5.0,9.0,0.0,-1.0,12.0,4.0
1701718882.9444356,-4.0,-4.0,-7.0,-4.0,2.0,-2.0,-5.0,-5.0
1701718882.9546483,-1.0,1.0,-13.0,1.0,1.0,2.0,0.0,-2.0
1701718882.9546483,3.0,-4.0,-21.0,-6.0,0.0,-6.0,0.0,3.0
1701718882.974815,-4.0,3.0,-18.0,-7.0,-2.0,10.0,7.0,2.0
1701718882.974815,-2.0,-1.0,37.0,18.0,-2.0,-12.0,-22.0,-12.0
1701718882.974815,-10.0,4.0,-4.0,7.0,1.0,7.0,7.0,2.0
1701718882.974815,4.0,-10.0,-9.0,-7.0,-2.0,-3.0,-6.0,6.0
1701718882.994432,-4.0,-1.0,-5.0,-7.0,-6.0,-4.0,-8.0,-10.0
1701718882.994432,1.0,-2.0,-23.0,-14.0,-5.0,-2.0,-4.0,-5.0
1701718882.994432,1.0,1.0,-1.0,-8.0,1.0,0.0,-5.0,0.0
1701718882.994432,-7.0,-5.0,-29.0,-1.0,1.0,-2.0,-9.0,-10.0
1701718883.024435,6.0,-3.0,3.0,-13.0,-3.0,-1.0,1.0,4.0
1701718883.024435,-12.0,-3.0,-7.0,-2.0,-5.0,-1.0,3.0,-1.0
1701718883.0344343,5.0,2.0,24.0,18.0,1.0,-6.0,16.0,8.0
1701718883.0344343,-2.0,-1.0,-30.0,-11.0,-2.0,-2.0,10.0,1.0
1701718883.0547493,-2.0,6.0,40.0,21.0,5.0,3.0,-2.0,-4.0
1701718883.0547493,3.0,-4.0,-28.0,-33.0,-5.0,-2.0,1.0,9.0
1701718883.064731,3.0,-3.0,-4.0,-10.0,-3.0,0.0,-3.0,-4.0
1701718883.064731,1.0,4.0,-14.0,-8.0,4.0,5.0,-6.0,1.0
1701718883.064731,-2.0,4.0,73.0,38.0,-1.0,-1.0,-3.0,-5.0
1701718883.064731,-5.0,-5.0,-4.0,13.0,-1.0,0.0,13.0,-2.0
1701718883.064731,-2.0,-4.0,7.0,8.0,-4.0,-5.0,-6.0,-7.0
1701718883.064731,3.0,-2.0,-40.0,-34.0,-1.0,-4.0,-11.0,3.0
1701718883.064731,-7.0,-2.0,-33.0,10.0,-3.0,-5.0,-4.0,-10.0
1701718883.064731,-1.0,-6.0,-3.0,-25.0,-6.0,3.0,1.0,7.0
1701718883.0745811,0.0,1.0,10.0,16.0,-1.0,-3.0,-10.0,-4.0
1701718883.0745811,3.0,5.0,27.0,15.0,4.0,11.0,-18.0,-6.0
1701718883.0947719,0.0,0.0,-21.0,-8.0,-1.0,-10.0,-12.0,-3.0
1701718883.0947719,-2.0,-2.0,-24.0,-4.0,-3.0,8.0,-1.0,-13.0
1701718883.0947719,9.0,0.0,-12.0,-12.0,2.0,-4.0,-1.0,6.0
1701718883.0947719,-7.0,0.0,30.0,17.0,1.0,-2.0,-1.0,3.0
1701718883.1144357,0.0,-4.0,-68.0,-25.0,-7.0,-6.0,7.0,3.0
1701718883.1144357,2.0,4.0,8.0,-7.0,-1.0,8.0,2.0,-5.0
1701718883.1144357,-2.0,0.0,8.0,13.0,2.0,5.0,5.0,0.0
1701718883.1144357,-6.0,0.0,27.0,17.0,3.0,-7.0,-2.0,-8.0
1701718883.1244328,0.0,-11.0,-39.0,-19.0,-5.0,-1.0,-7.0,0.0
1701718883.1244328,0.0,2.0,-2.0,5.0,3.0,-4.0,18.0,4.0
1701718883.1345837,-5.0,-8.0,-3.0,-27.0,-5.0,0.0,-2.0,-4.0
1701718883.1345837,-2.0,3.0,30.0,8.0,-2.0,-4.0,14.0,3.0
1701718883.1547801,-5.0,-5.0,15.0,5.0,-3.0,-5.0,-2.0,-10.0
1701718883.1547801,3.0,9.0,72.0,14.0,0.0,1.0,-13.0,6.0
1701718883.1547801,-1.0,-19.0,-88.0,-28.0,0.0,-6.0,-6.0,-5.0
1701718883.1547801,-3.0,-8.0,-2.0,7.0,0.0,4.0,9.0,-2.0
1701718883.1844356,0.0,5.0,-8.0,-12.0,7.0,4.0,11.0,-3.0
1701718883.1844356,1.0,4.0,39.0,31.0,4.0,0.0,-1.0,-7.0
1701718883.1844356,7.0,10.0,25.0,-14.0,-5.0,-8.0,-5.0,7.0
1701718883.1844356,-2.0,5.0,25.0,5.0,0.0,6.0,3.0,0.0
1701718883.1844356,0.0,-7.0,-18.0,-7.0,-2.0,2.0,-9.0,-2.0
1701718883.1844356,4.0,3.0,1.0,0.0,4.0,-2.0,-3.0,0.0
1701718883.19477,-17.0,-16.0,-67.0,4.0,-7.0,-5.0,-11.0,-12.0
1701718883.19477,-1.0,1.0,30.0,-7.0,-2.0,-5.0,-16.0,2.0
1701718883.234893,3.0,2.0,33.0,4.0,1.0,2.0,-9.0,-2.0
1701718883.234893,-5.0,-4.0,-73.0,-23.0,-3.0,-11.0,18.0,2.0
1701718883.2447722,1.0,5.0,74.0,16.0,3.0,1.0,2.0,-7.0
1701718883.2447722,4.0,1.0,-48.0,-29.0,-4.0,5.0,8.0,7.0
1701718883.2605498,-4.0,2.0,46.0,28.0,0.0,-1.0,3.0,-15.0
1701718883.2611358,0.0,-5.0,-22.0,-18.0,-7.0,-2.0,-10.0,2.0
1701718883.2611358,-2.0,-5.0,-18.0,12.0,-1.0,-2.0,-4.0,-2.0
1701718883.2621474,-3.0,-4.0,-36.0,3.0,-2.0,-3.0,4.0,-2.0
1701718883.2784762,5.0,5.0,-28.0,-34.0,0.0,1.0,7.0,9.0
1701718883.2784762,-4.0,-4.0,15.0,28.0,2.0,1.0,-7.0,-6.0
1701718883.2784762,4.0,3.0,-17.0,-20.0,-5.0,-2.0,23.0,15.0
1701718883.2784762,-1.0,0.0,-6.0,15.0,1.0,5.0,-1.0,-1.0
1701718883.2784762,-5.0,-5.0,-58.0,-28.0,-7.0,0.0,9.0,5.0
1701718883.2784762,1.0,-1.0,5.0,-6.0,1.0,-8.0,26.0,12.0
1701718883.2784762,-3.0,-1.0,16.0,5.0,3.0,12.0,2.0,-13.0
1701718883.2784762,0.0,14.0,78.0,32.0,7.0,-10.0,-26.0,-3.0
1701718883.2888837,6.0,9.0,2.0,-2.0,0.0,2.0,-4.0,4.0
1701718883.2888837,-4.0,-10.0,-34.0,15.0,5.0,3.0,-6.0,-5.0
1701718883.2888837,8.0,9.0,21.0,9.0,2.0,-7.0,-15.0,-5.0
1701718883.2888837,1.0,-3.0,-52.0,-53.0,-14.0,-3.0,6.0,-1.0
1701718883.3085217,-2.0,-9.0,-15.0,-5.0,-1.0,2.0,1.0,2.0
1701718883.3085217,0.0,21.0,99.0,41.0,7.0,-2.0,-16.0,-9.0
1701718883.3184798,-6.0,-16.0,-64.0,-2.0,2.0,-1.0,1.0,6.0
1701718883.3184798,-3.0,-4.0,-23.0,-4.0,-5.0,3.0,6.0,0.0
1701718883.3488681,7.0,9.0,40.0,7.0,-2.0,-4.0,28.0,2.0
1701718883.3488681,1.0,-12.0,-90.0,-49.0,-4.0,5.0,-1.0,15.0
1701718883.35848,-7.0,5.0,40.0,37.0,-2.0,-11.0,-26.0,-18.0
1701718883.35848,-2.0,-4.0,8.0,-13.0,-4.0,-3.0,-2.0,-3.0
1701718883.378841,-4.0,-12.0,-4.0,-4.0,1.0,6.0,4.0,-7.0
1701718883.378841,10.0,16.0,6.0,11.0,-3.0,-4.0,-5.0,5.0
1701718883.378841,-6.0,-14.0,49.0,7.0,2.0,5.0,7.0,0.0
1701718883.378841,4.0,3.0,-15.0,-25.0,-4.0,-6.0,-19.0,-4.0
1701718883.3884795,-3.0,-1.0,25.0,16.0,2.0,1.0,-8.0,1.0
1701718883.3884795,0.0,5.0,12.0,12.0,-3.0,-2.0,-6.0,-3.0
1701718883.3884795,9.0,10.0,-48.0,-44.0,6.0,9.0,30.0,13.0
1701718883.3884795,-7.0,-5.0,101.0,55.0,3.0,-1.0,-15.0,-6.0
1701718883.4087725,-7.0,-3.0,38.0,19.0,-5.0,-6.0,-3.0,1.0
1701718883.4087725,-4.0,-21.0,-94.0,-42.0,-8.0,3.0,-2.0,-3.0
1701718883.4185238,6.0,12.0,22.0,10.0,-1.0,1.0,30.0,0.0
1701718883.4185238,-1.0,-5.0,12.0,5.0,-1.0,-5.0,6.0,5.0
1701718883.4286232,2.0,2.0,-42.0,-26.0,0.0,-9.0,-29.0,-2.0
1701718883.4286232,-1.0,-3.0,98.0,47.0,3.0,16.0,4.0,-10.0
1701718883.4384878,-3.0,7.0,-29.0,-7.0,-4.0,-5.0,-5.0,6.0
1701718883.4384878,-2.0,-17.0,-80.0,-29.0,-6.0,-5.0,-2.0,-11.0
1701718883.458478,-5.0,-7.0,-32.0,-21.0,-9.0,-6.0,-2.0,6.0
1701718883.458478,0.0,3.0,42.0,17.0,0.0,-6.0,5.0,-3.0
1701718883.458478,0.0,-1.0,-34.0,-15.0,-3.0,0.0,-18.0,-5.0
1701718883.458478,-4.0,6.0,118.0,33.0,-1.0,0.0,2.0,2.0
1701718883.458478,3.0,-7.0,-46.0,-10.0,-2.0,-6.0,-8.0,-8.0
1701718883.458478,-1.0,-11.0,-67.0,-21.0,-4.0,-6.0,5.0,0.0
1701718883.4688685,-1.0,-6.0,4.0,9.0,3.0,4.0,8.0,4.0
1701718883.4688685,2.0,7.0,-21.0,9.0,-3.0,-7.0,-14.0,2.0
1701718883.4789236,-2.0,2.0,1.0,-19.0,-4.0,4.0,14.0,1.0
1701718883.4789236,1.0,6.0,81.0,11.0,3.0,0.0,-4.0,-5.0
1701718883.4789236,3.0,-11.0,-65.0,-22.0,-1.0,-4.0,-6.0,2.0
1701718883.4789236,-7.0,1.0,33.0,20.0,-2.0,2.0,8.0,-9.0
1701718883.4984787,2.0,7.0,6.0,30.0,7.0,5.0,1.0,7.0
1701718883.4984787,-9.0,-12.0,-99.0,-37.0,-12.0,-10.0,2.0,4.0
1701718883.4984787,5.0,13.0,38.0,23.0,1.0,-4.0,-39.0,-14.0
1701718883.4984787,-1.0,-7.0,-3.0,-26.0,3.0,6.0,1.0,3.0
1701718883.5185354,4.0,11.0,12.0,19.0,4.0,-1.0,21.0,9.0
1701718883.5185354,-2.0,-4.0,30.0,-8.0,0.0,4.0,16.0,0.0
1701718883.5185354,-13.0,-20.0,-50.0,-16.0,-12.0,-1.0,10.0,-5.0
1701718883.5185354,1.0,3.0,-25.0,0.0,-2.0,-2.0,5.0,-1.0
1701718883.5485697,-1.0,3.0,27.0,-14.0,-1.0,-6.0,-17.0,-10.0
1701718883.5485697,1.0,-6.0,12.0,4.0,-2.0,-2.0,-11.0,3.0
1701718883.5485697,5.0,13.0,80.0,20.0,4.0,12.0,-1.0,5.0
1701718883.5485697,-1.0,-17.0,-112.0,-36.0,-11.0,-4.0,-1.0,1.0
1701718883.5589273,-2.0,1.0,15.0,15.0,4.0,-2.0,7.0,-5.0
1701718883.5589273,-8.0,-5.0,-12.0,-6.0,-6.0,-6.0,-28.0,-10.0
1701718883.5589273,-1.0,2.0,31.0,24.0,-3.0,-6.0,-10.0,-10.0
1701718883.5589273,-4.0,-2.0,1.0,-5.0,6.0,10.0,26.0,2.0
1701718883.5790305,-4.0,-5.0,-22.0,-9.0,-7.0,-13.0,-31.0,-21.0
1701718883.5790305,7.0,-7.0,-102.0,-23.0,0.0,4.0,7.0,8.0
1701718883.5790305,-5.0,3.0,53.0,10.0,1.0,-1.0,10.0,-14.0
1701718883.5790305,2.0,-6.0,-72.0,-19.0,2.0,3.0,-31.0,-5.0
1701718883.598572,-9.0,-10.0,-5.0,3.0,-5.0,0.0,-14.0,-1.0
1701718883.598572,-4.0,-2.0,-76.0,-25.0,2.0,0.0,5.0,4.0
1701718883.598572,-7.0,0.0,4.0,-14.0,-10.0,-13.0,-22.0,-6.0
1701718883.598572,3.0,10.0,27.0,3.0,-2.0,-6.0,-3.0,-3.0
1701718883.6188734,1.0,-5.0,19.0,14.0,6.0,3.0,-4.0,2.0
1701718883.6188734,8.0,17.0,-39.0,-5.0,5.0,6.0,1.0,7.0
1701718883.628576,-7.0,-22.0,-57.0,-14.0,-9.0,-7.0,5.0,-1.0
1701718883.628576,0.0,5.0,-14.0,-5.0,-3.0,-4.0,4.0,-1.0
1701718883.6385758,-2.0,-8.0,-57.0,-32.0,-3.0,5.0,-10.0,1.0
1701718883.6385758,-11.0,-7.0,92.0,47.0,-4.0,-7.0,-12.0,-4.0
1701718883.6385758,4.0,13.0,71.0,23.0,6.0,-2.0,-11.0,-3.0
1701718883.6385758,-1.0,-10.0,-71.0,-9.0,2.0,0.0,5.0,6.0
1701718883.6589239,1.0,2.0,2.0,-21.0,-6.0,7.0,29.0,6.0
1701718883.6589239,6.0,20.0,50.0,-4.0,3.0,-1.0,4.0,-4.0
1701718883.6589239,-11.0,-21.0,-33.0,21.0,-1.0,3.0,3.0,0.0
1701718883.6589239,-2.0,-2.0,-5.0,-10.0,-1.0,-14.0,-10.0,-8.0
1701718883.688572,3.0,-16.0,-28.0,11.0,-6.0,0.0,13.0,12.0
1701718883.688572,-9.0,4.0,19.0,-11.0,0.0,-4.0,-14.0,-13.0
1701718883.688572,9.0,6.0,19.0,-17.0,6.0,12.0,24.0,18.0
1701718883.688572,-1.0,2.0,-13.0,1.0,2.0,1.0,-4.0,-4.0
1701718883.698605,-1.0,0.0,28.0,8.0,-4.0,-4.0,-10.0,-10.0
1701718883.698605,-6.0,-17.0,-12.0,1.0,-5.0,-7.0,-22.0,-8.0
1701718883.7089758,8.0,10.0,6.0,0.0,6.0,11.0,11.0,10.0
1701718883.7089758,1.0,10.0,111.0,26.0,-1.0,-10.0,-4.0,0.0
1701718883.7285695,-8.0,-15.0,-82.0,-26.0,-4.0,1.0,19.0,6.0
1701718883.7285695,-6.0,-7.0,55.0,25.0,3.0,-9.0,-21.0,0.0
1701718883.7285695,5.0,9.0,65.0,-5.0,2.0,16.0,52.0,12.0
1701718883.7285695,-2.0,-6.0,-42.0,-12.0,0.0,2.0,-7.0,2.0
1701718883.7389195,5.0,31.0,127.0,41.0,3.0,1.0,4.0,-7.0
1701718883.7389195,0.0,-19.0,-47.0,-35.0,-5.0,-1.0,0.0,5.0
1701718883.7479327,-9.0,-23.0,-111.0,-39.0,-2.0,-11.0,-11.0,-5.0
1701718883.7479327,6.0,25.0,47.0,19.0,-15.0,-2.0,0.0,4.0
1701718883.7579844,-3.0,-4.0,74.0,15.0,17.0,3.0,11.0,-5.0
1701718883.7579844,6.0,10.0,-28.0,14.0,12.0,15.0,19.0,5.0
1701718883.7579844,4.0,24.0,106.0,7.0,-3.0,-7.0,-8.0,-2.0
1701718883.7579844,-8.0,-23.0,-66.0,-24.0,-18.0,-5.0,-10.0,-8.0
1701718883.7779546,-1.0,3.0,32.0,16.0,12.0,-5.0,-23.0,-2.0
1701718883.7779546,8.0,4.0,-4.0,6.0,4.0,7.0,18.0,14.0
1701718883.7779546,-2.0,1.0,4.0,6.0,-5.0,-11.0,-19.0,-5.0
1701718883.7779546,-2.0,2.0,31.0,5.0,-6.0,-1.0,1.0,0.0
1701718883.7989447,7.0,11.0,-24.0,-4.0,-4.0,11.0,32.0,9.0
1701718883.7989447,-8.0,-10.0,28.0,-2.0,5.0,-12.0,-6.0,-5.0
1701718883.8081012,-1.0,4.0,62.0,21.0,0.0,-3.0,-35.0,-20.0
1701718883.809046,2.0,0.0,-30.0,-18.0,1.0,0.0,-25.0,4.0
1701718883.8230476,-2.0,-13.0,-77.0,-4.0,-7.0,-3.0,-15.0,-10.0
1701718883.8230476,-8.0,-1.0,40.0,-12.0,-8.0,-5.0,4.0,5.0
1701718883.8240445,0.0,5.0,-28.0,2.0,1.0,8.0,15.0,4.0
1701718883.8240445,-2.0,-14.0,29.0,15.0,9.0,9.0,21.0,3.0
1701718883.8451931,6.0,35.0,78.0,9.0,-9.0,-7.0,-26.0,-5.0
1701718883.8461897,-9.0,-39.0,-22.0,-22.0,13.0,-7.0,-13.0,-17.0
1701718883.8472304,3.0,2.0,44.0,7.0,5.0,-3.0,6.0,7.0
1701718883.8472304,4.0,3.0,32.0,9.0,5.0,0.0,8.0,4.0
1701718883.8642097,-4.0,2.0,57.0,0.0,-16.0,-4.0,6.0,5.0
1701718883.8642097,2.0,8.0,-29.0,2.0,-12.0,-3.0,-2.0,-8.0
1701718883.8677878,-6.0,-13.0,-87.0,-13.0,1.0,-15.0,-32.0,-6.0
1701718883.8677878,-2.0,6.0,17.0,10.0,13.0,27.0,48.0,2.0
1701718883.8821018,-8.0,-21.0,-81.0,-18.0,-9.0,-11.0,-17.0,-9.0
1701718883.8831017,14.0,32.0,76.0,14.0,-3.0,18.0,42.0,21.0
1701718883.884099,-9.0,-31.0,-65.0,-18.0,-11.0,-12.0,-12.0,-7.0
1701718883.884099,-1.0,2.0,3.0,6.0,-6.0,-20.0,-40.0,-17.0
1701718883.9082453,-2.0,-1.0,6.0,0.0,4.0,7.0,-11.0,-7.0
1701718883.9082453,-3.0,9.0,23.0,14.0,4.0,1.0,18.0,5.0
1701718883.9082453,-5.0,-4.0,-63.0,-20.0,-2.0,13.0,29.0,0.0
1701718883.9082453,0.0,-9.0,32.0,6.0,0.0,-10.0,-17.0,0.0
1701718883.918884,3.0,0.0,-2.0,0.0,5.0,2.0,-7.0,4.0
1701718883.918884,0.0,-2.0,14.0,-10.0,-19.0,-5.0,-17.0,-17.0
1701718883.9342828,-3.0,3.0,1.0,14.0,16.0,3.0,2.0,2.0
1701718883.9342828,-9.0,-11.0,-33.0,-6.0,8.0,-4.0,1.0,-3.0
1701718883.9426248,0.0,-4.0,-47.0,-8.0,-4.0,-1.0,7.0,1.0
1701718883.9426248,1.0,20.0,70.0,5.0,-7.0,-2.0,3.0,0.0
1701718883.944298,2.0,-2.0,8.0,-3.0,-21.0,-3.0,-9.0,-2.0
1701718883.944298,5.0,8.0,47.0,2.0,10.0,6.0,8.0,0.0
1701718883.961536,-10.0,-16.0,-39.0,-2.0,3.0,-1.0,4.0,2.0
1701718883.961536,4.0,11.0,-4.0,-8.0,0.0,2.0,-7.0,1.0
1701718883.961536,-5.0,-24.0,12.0,1.0,-9.0,-9.0,-4.0,-10.0
1701718883.961536,-4.0,0.0,-22.0,1.0,-2.0,7.0,6.0,-5.0
1701718883.971861,5.0,6.0,56.0,3.0,2.0,8.0,22.0,22.0
1701718883.971861,1.0,-3.0,-41.0,4.0,-2.0,-11.0,-52.0,-20.0
1701718883.981689,7.0,-1.0,-15.0,-8.0,0.0,8.0,7.0,7.0
1701718883.981689,1.0,9.0,21.0,-3.0,-4.0,-5.0,6.0,-9.0
1701718884.0015366,-3.0,1.0,-8.0,-5.0,1.0,-8.0,-11.0,6.0
1701718884.0015366,2.0,-11.0,20.0,6.0,-6.0,7.0,-2.0,-13.0
1701718884.0015366,-11.0,8.0,-24.0,-5.0,19.0,-3.0,-32.0,-1.0
1701718884.0015366,9.0,-1.0,-22.0,-1.0,-1.0,0.0,-8.0,4.0
1701718884.0218186,1.0,-7.0,-4.0,-2.0,-10.0,-1.0,-4.0,-14.0
1701718884.0218186,2.0,-7.0,7.0,3.0,8.0,-7.0,-20.0,-6.0
1701718884.0218186,5.0,10.0,19.0,1.0,1.0,5.0,21.0,4.0
1701718884.0218186,-10.0,2.0,2.0,-4.0,0.0,3.0,29.0,0.0
1701718884.0515416,1.0,-10.0,-39.0,-6.0,-1.0,-5.0,-13.0,-2.0
1701718884.0515416,-2.0,2.0,-5.0,-3.0,-4.0,-1.0,8.0,3.0
1701718884.0715365,16.0,21.0,38.0,-2.0,-6.0,4.0,5.0,2.0
1701718884.0715365,-3.0,-41.0,-19.0,-9.0,-2.0,-2.0,5.0,5.0
1701718884.0715365,-5.0,2.0,4.0,12.0,0.0,4.0,-4.0,-11.0
1701718884.0715365,-4.0,10.0,-7.0,-6.0,-2.0,-2.0,9.0,3.0
1701718884.0715365,2.0,35.0,45.0,22.0,12.0,1.0,15.0,12.0
1701718884.0715365,4.0,-9.0,-48.0,-16.0,-8.0,-4.0,-13.0,-7.0
1701718884.0715365,-12.0,-35.0,11.0,-3.0,2.0,-13.0,-18.0,0.0
1701718884.0715365,-3.0,1.0,-17.0,1.0,-2.0,15.0,39.0,-1.0
1701718884.0715365,4.0,6.0,6.0,-5.0,-4.0,-2.0,31.0,3.0
1701718884.0715365,17.0,22.0,27.0,7.0,-3.0,-5.0,0.0,5.0
1701718884.0915556,-2.0,-9.0,-21.0,-2.0,3.0,-7.0,3.0,8.0
1701718884.0915556,-17.0,-26.0,-28.0,-4.0,-3.0,-4.0,-38.0,-6.0
1701718884.0915556,-9.0,-32.0,-14.0,-18.0,-8.0,-5.0,-3.0,-9.0
1701718884.0915556,1.0,9.0,-2.0,-7.0,-4.0,-4.0,1.0,-1.0
1701718884.1115372,7.0,26.0,-5.0,1.0,4.0,10.0,24.0,6.0
1701718884.1115372,11.0,3.0,28.0,12.0,7.0,4.0,11.0,6.0
1701718884.1215355,-9.0,-26.0,-2.0,6.0,-7.0,-4.0,-1.0,4.0
1701718884.1215355,-4.0,-11.0,-10.0,-9.0,-10.0,-4.0,-12.0,-6.0
1701718884.1315384,0.0,8.0,28.0,7.0,3.0,-3.0,-18.0,-4.0
1701718884.1315384,2.0,19.0,34.0,2.0,3.0,-5.0,2.0,0.0
1701718884.1315384,-8.0,-8.0,-48.0,-10.0,-7.0,-3.0,-24.0,-12.0
1701718884.1315384,3.0,10.0,43.0,19.0,4.0,2.0,-3.0,7.0
1701718884.1520362,6.0,2.0,-64.0,-27.0,-13.0,-3.0,-3.0,3.0
1701718884.1520362,4.0,-13.0,-4.0,-4.0,-1.0,0.0,44.0,12.0
1701718884.164785,-1.0,4.0,1.0,2.0,4.0,2.0,-18.0,-10.0
1701718884.164785,-5.0,-13.0,-29.0,-4.0,-4.0,-3.0,-4.0,1.0
1701718884.174648,-10.0,-1.0,31.0,3.0,0.0,0.0,-8.0,-7.0
1701718884.174648,-1.0,-21.0,-19.0,6.0,3.0,6.0,30.0,1.0
1701718884.1817007,-9.0,-10.0,-26.0,-21.0,-10.0,3.0,-19.0,-6.0
1701718884.1817007,-2.0,15.0,18.0,3.0,-1.0,7.0,16.0,2.0
1701718884.1977005,5.0,-2.0,-6.0,1.0,-2.0,-7.0,-14.0,-28.0
1701718884.1977005,-3.0,14.0,-3.0,-2.0,2.0,1.0,8.0,24.0
1701718884.1986992,16.0,26.0,35.0,5.0,-2.0,2.0,1.0,12.0
1701718884.1986992,-6.0,0.0,-26.0,-4.0,8.0,1.0,-8.0,-5.0
1701718884.2117026,-7.0,-5.0,16.0,5.0,-4.0,-6.0,-1.0,0.0
1701718884.2117026,-12.0,-5.0,-7.0,-14.0,-10.0,-7.0,-28.0,-24.0
1701718884.2236996,1.0,15.0,-1.0,5.0,8.0,5.0,0.0,-19.0
1701718884.2236996,-3.0,4.0,0.0,-3.0,-6.0,-5.0,15.0,-2.0
1701718884.2346995,2.0,5.0,14.0,-3.0,3.0,-2.0,-26.0,13.0
1701718884.2346995,-5.0,14.0,-11.0,1.0,-2.0,-1.0,-17.0,-12.0
1701718884.2416997,-11.0,10.0,-4.0,-2.0,-3.0,-4.0,2.0,0.0
1701718884.2416997,5.0,4.0,0.0,5.0,5.0,-8.0,-31.0,4.0
1701718884.2581196,-7.0,8.0,11.0,2.0,0.0,10.0,22.0,-51.0
1701718884.2581196,23.0,54.0,0.0,-3.0,-6.0,-11.0,-16.0,54.0
1701718884.2591307,-13.0,-13.0,0.0,-3.0,-5.0,-10.0,-10.0,-8.0
1701718884.2591307,-1.0,-28.0,7.0,6.0,1.0,4.0,23.0,-7.0
1701718884.271263,-23.0,-14.0,-23.0,-18.0,-12.0,-10.0,10.0,-41.0
1701718884.2721949,4.0,-1.0,-13.0,-10.0,1.0,15.0,-10.0,-5.0
1701718884.2851887,1.0,29.0,10.0,9.0,5.0,-1.0,13.0,56.0
1701718884.2851887,-11.0,-24.0,2.0,9.0,-2.0,2.0,-21.0,-69.0
1701718884.2949893,23.0,-17.0,3.0,5.0,3.0,-4.0,15.0,78.0
1701718884.2949893,-13.0,-30.0,-29.0,-13.0,-7.0,-14.0,-26.0,-31.0
1701718884.301148,3.0,10.0,-1.0,-16.0,-9.0,-2.0,-2.0,-17.0
1701718884.301148,3.0,-7.0,8.0,15.0,3.0,4.0,2.0,20.0
1701718884.3178265,-6.0,0.0,4.0,5.0,5.0,6.0,-1.0,-36.0
1701718884.3178265,-3.0,-11.0,-5.0,0.0,0.0,-6.0,17.0,1.0
1701718884.3194911,-2.0,-37.0,-9.0,-6.0,-3.0,-2.0,-35.0,15.0
1701718884.3194911,0.0,28.0,3.0,-7.0,-1.0,0.0,4.0,1.0
1701718884.3314905,15.0,4.0,-4.0,-2.0,-5.0,7.0,2.0,8.0
1701718884.3314905,-6.0,3.0,7.0,5.0,5.0,-3.0,0.0,22.0
1701718884.3416288,-4.0,-14.0,-10.0,-4.0,0.0,-2.0,5.0,-26.0
1701718884.3416288,-5.0,2.0,8.0,-4.0,-1.0,-2.0,-9.0,3.0
1701718884.3550205,2.0,1.0,-4.0,2.0,-3.0,0.0,6.0,17.0
1701718884.3550205,1.0,-12.0,3.0,-1.0,2.0,3.0,6.0,0.0
1701718884.361027,5.0,-6.0,6.0,1.0,1.0,0.0,14.0,-15.0
1701718884.3620338,-1.0,-4.0,-8.0,-8.0,-3.0,-7.0,-3.0,24.0
1701718884.3818514,0.0,8.0,-2.0,3.0,2.0,9.0,8.0,16.0
1701718884.3818514,-4.0,-8.0,-2.0,-3.0,-4.0,-4.0,-3.0,-19.0
1701718884.3878534,3.0,-8.0,5.0,5.0,2.0,0.0,7.0,1.0
1701718884.3878534,3.0,11.0,-3.0,1.0,3.0,2.0,0.0,3.0
1701718884.3908765,0.0,4.0,-5.0,-9.0,-3.0,-8.0,-1.0,4.0
1701718884.3908765,-4.0,-6.0,-12.0,1.0,-6.0,-1.0,-9.0,-12.0
1701718884.400379,2.0,-4.0,-2.0,-3.0,4.0,-3.0,7.0,0.0
1701718884.400379,-5.0,-1.0,12.0,3.0,-2.0,0.0,-2.0,2.0
1701718884.414407,-2.0,-16.0,5.0,5.0,-2.0,-5.0,-11.0,-4.0
1701718884.414407,-2.0,-24.0,7.0,13.0,3.0,2.0,-7.0,-2.0
1701718884.421449,9.0,-13.0,-5.0,-5.0,-2.0,-2.0,1.0,4.0
1701718884.421449,1.0,-7.0,-25.0,-15.0,-2.0,-3.0,-1.0,3.0
1701718884.444478,-2.0,-1.0,48.0,1.0,1.0,-2.0,-4.0,4.0
1701718884.445473,-3.0,3.0,-61.0,-23.0,-4.0,-4.0,27.0,-4.0
1701718884.4484708,6.0,10.0,19.0,11.0,-3.0,4.0,10.0,16.0
1701718884.4484708,1.0,25.0,90.0,61.0,2.0,-8.0,-11.0,-4.0
1701718884.4512155,-2.0,20.0,-45.0,-18.0,2.0,12.0,5.0,3.0
1701718884.4512155,1.0,16.0,28.0,6.0,4.0,-3.0,-1.0,-4.0
1701718884.4609575,-4.0,14.0,-32.0,-19.0,-5.0,-4.0,5.0,13.0
1701718884.4609575,1.0,5.0,-34.0,-19.0,-5.0,-9.0,-4.0,3.0
1701718884.4748867,-2.0,0.0,-10.0,-2.0,-1.0,6.0,12.0,2.0
1701718884.4748867,2.0,-5.0,6.0,-3.0,-4.0,-4.0,-12.0,-7.0
1701718884.48284,-6.0,-6.0,-13.0,-8.0,0.0,-6.0,-18.0,-15.0
1701718884.48284,-3.0,-4.0,-8.0,-4.0,-1.0,-3.0,-4.0,2.0
1701718884.5044727,-3.0,-4.0,14.0,12.0,-2.0,-4.0,-6.0,-14.0
1701718884.5044727,0.0,-10.0,-18.0,-8.0,-3.0,4.0,9.0,2.0
1701718884.517467,0.0,-7.0,15.0,11.0,-3.0,3.0,-1.0,-2.0
1701718884.517467,-4.0,-14.0,-4.0,-12.0,-1.0,6.0,6.0,0.0
1701718884.5184684,-2.0,-10.0,2.0,2.0,6.0,-4.0,9.0,-2.0
1701718884.5184684,4.0,2.0,18.0,16.0,7.0,3.0,2.0,-8.0
1701718884.5202522,-4.0,-5.0,8.0,15.0,0.0,0.0,-3.0,-2.0
1701718884.5202522,-4.0,-8.0,-59.0,-33.0,-5.0,-2.0,2.0,-4.0
1701718884.5349877,-1.0,4.0,42.0,1.0,-4.0,-2.0,-5.0,1.0
1701718884.5349877,-5.0,1.0,19.0,19.0,-2.0,-5.0,-8.0,-1.0
1701718884.541399,-2.0,-3.0,-23.0,-22.0,-6.0,-6.0,-7.0,-11.0
1701718884.541399,0.0,0.0,12.0,4.0,1.0,4.0,2.0,2.0
1701718884.5590541,-1.0,-7.0,-21.0,-13.0,-1.0,3.0,0.0,-3.0
1701718884.5600526,-2.0,2.0,33.0,14.0,-3.0,-6.0,-4.0,2.0
1701718884.5702944,6.0,3.0,-29.0,-11.0,2.0,4.0,-5.0,-11.0
1701718884.5702944,-2.0,1.0,17.0,1.0,-3.0,-2.0,9.0,4.0
1701718884.5713341,6.0,3.0,10.0,1.0,0.0,-15.0,-15.0,8.0
1701718884.5713341,-4.0,0.0,16.0,5.0,-1.0,7.0,-1.0,-5.0
1701718884.580438,-1.0,-1.0,12.0,4.0,6.0,9.0,17.0,1.0
1701718884.580438,2.0,4.0,-39.0,-17.0,-3.0,1.0,11.0,7.0
1701718884.5944524,-2.0,-1.0,17.0,-14.0,2.0,3.0,-1.0,-15.0
1701718884.5944524,-5.0,-11.0,-78.0,-22.0,-4.0,-5.0,-41.0,-6.0
1701718884.601626,-1.0,4.0,68.0,26.0,-1.0,-8.0,-7.0,2.0
1701718884.601626,2.0,-9.0,-47.0,-9.0,1.0,1.0,-3.0,1.0
1701718884.6252277,-5.0,0.0,24.0,19.0,-2.0,-4.0,-10.0,-4.0
1701718884.6252277,3.0,0.0,-35.0,-23.0,-1.0,3.0,16.0,3.0
1701718884.6272538,-5.0,-6.0,30.0,2.0,-4.0,-2.0,-2.0,-1.0
1701718884.6272538,3.0,-2.0,-1.0,13.0,3.0,-9.0,-9.0,-3.0
1701718884.6312973,0.0,1.0,-54.0,-12.0,-7.0,1.0,-4.0,1.0
1701718884.6312973,-1.0,-1.0,32.0,2.0,4.0,15.0,25.0,-5.0
1701718884.6400168,-1.0,-1.0,-41.0,12.0,-3.0,-2.0,6.0,19.0
1701718884.6400168,0.0,6.0,68.0,13.0,2.0,1.0,-2.0,-4.0
1701718884.6544073,-1.0,-4.0,-113.0,-23.0,-2.0,-7.0,4.0,6.0
1701718884.6544073,-3.0,-10.0,39.0,0.0,-4.0,2.0,-9.0,-10.0
1701718884.6616147,-2.0,6.0,21.0,0.0,6.0,3.0,-3.0,-3.0
1701718884.6616147,-6.0,-13.0,-80.0,-19.0,-4.0,-3.0,-6.0,-8.0
1701718884.6827157,-4.0,-2.0,56.0,16.0,-3.0,-2.0,0.0,-3.0
1701718884.6827157,-1.0,-11.0,2.0,-14.0,-7.0,-14.0,-44.0,-2.0
1701718884.6827157,-7.0,-6.0,-8.0,1.0,-2.0,-3.0,0.0,-5.0
1701718884.6827157,-2.0,10.0,38.0,12.0,3.0,3.0,-10.0,-6.0
1701718884.6912968,1.0,4.0,-34.0,-10.0,0.0,2.0,-1.0,0.0
1701718884.6923182,-2.0,-7.0,40.0,13.0,0.0,-8.0,8.0,4.0
1701718884.7011788,4.0,10.0,40.0,12.0,-1.0,2.0,-2.0,-7.0
1701718884.7011788,-2.0,-7.0,-67.0,-24.0,-6.0,-2.0,5.0,0.0
1701718884.7108307,0.0,-30.0,22.0,14.0,-1.0,2.0,-2.0,5.0
1701718884.7108307,0.0,12.0,-20.0,-19.0,0.0,-5.0,-2.0,8.0
1701718884.720828,-3.0,-14.0,-45.0,-5.0,4.0,4.0,16.0,-3.0
1701718884.720828,0.0,18.0,45.0,18.0,-2.0,2.0,-19.0,0.0
1701718884.7595594,-4.0,3.0,-11.0,-11.0,1.0,-6.0,4.0,-5.0
1701718884.7595594,1.0,-5.0,-56.0,-6.0,-4.0,-7.0,3.0,-5.0
1701718884.7699006,5.0,11.0,23.0,-6.0,-3.0,-3.0,-5.0,2.0
1701718884.7699006,-9.0,-24.0,-12.0,-2.0,-7.0,-4.0,-1.0,-7.0
1701718884.7829275,-4.0,16.0,106.0,20.0,5.0,8.0,24.0,8.0
1701718884.7829275,4.0,4.0,-5.0,-20.0,-1.0,-5.0,-5.0,2.0
1701718884.7838953,0.0,5.0,-44.0,-21.0,-2.0,-1.0,29.0,2.0
1701718884.7838953,-2.0,-12.0,-61.0,-40.0,-3.0,-2.0,3.0,1.0
1701718884.8037834,-1.0,12.0,105.0,58.0,4.0,-9.0,-24.0,-8.0
1701718884.8037834,2.0,-4.0,-34.0,6.0,3.0,5.0,4.0,4.0
1701718884.8047843,6.0,7.0,16.0,4.0,-3.0,6.0,3.0,0.0
1701718884.8047843,4.0,-10.0,-14.0,-13.0,7.0,10.0,25.0,9.0
1701718884.810955,4.0,0.0,-58.0,-5.0,-3.0,-2.0,3.0,-2.0
1701718884.810955,3.0,18.0,9.0,-9.0,0.0,8.0,9.0,1.0
1701718884.8198733,-4.0,-4.0,37.0,13.0,0.0,-6.0,-20.0,-7.0
1701718884.8198733,-2.0,-2.0,78.0,18.0,2.0,-3.0,-7.0,1.0
1701718884.838034,2.0,6.0,-25.0,-10.0,-1.0,1.0,-23.0,-9.0
1701718884.838034,-1.0,2.0,-27.0,-3.0,0.0,1.0,7.0,2.0
1701718884.838034,7.0,0.0,0.0,4.0,0.0,0.0,1.0,-2.0
1701718884.838034,-3.0,7.0,42.0,22.0,1.0,2.0,-3.0,-3.0
1701718884.8501737,1.0,-2.0,17.0,-1.0,3.0,-3.0,-12.0,-6.0
1701718884.8501737,-4.0,5.0,46.0,9.0,-6.0,-6.0,0.0,7.0
1701718884.8511274,-5.0,-6.0,-93.0,-48.0,-8.0,-7.0,-20.0,-10.0
1701718884.8511274,3.0,4.0,41.0,31.0,2.0,3.0,18.0,11.0
1701718884.865864,1.0,2.0,-20.0,-32.0,-3.0,1.0,11.0,5.0
1701718884.865864,-5.0,-6.0,38.0,32.0,-2.0,-4.0,-24.0,-11.0
1701718884.8714757,-3.0,2.0,82.0,32.0,5.0,-8.0,-5.0,-5.0
1701718884.8714757,-7.0,-14.0,-62.0,-45.0,-14.0,-5.0,-18.0,-1.0
1701718884.8886619,4.0,-10.0,-44.0,-45.0,-1.0,8.0,28.0,7.0
1701718884.8886619,-4.0,4.0,62.0,36.0,2.0,-1.0,23.0,6.0
1701718884.889692,1.0,12.0,19.0,22.0,3.0,0.0,-8.0,1.0
1701718884.889692,-6.0,-12.0,-112.0,-22.0,-4.0,-11.0,-34.0,-20.0
1701718884.8940084,2.0,0.0,83.0,25.0,4.0,9.0,14.0,15.0
1701718884.8940084,1.0,-6.0,29.0,-14.0,-2.0,-6.0,-3.0,-4.0
1701718884.929018,-4.0,-16.0,-95.0,-16.0,-5.0,-5.0,-33.0,-3.0
1701718884.929018,1.0,6.0,112.0,8.0,-2.0,10.0,37.0,-3.0
1701718884.929018,-2.0,-5.0,-72.0,-7.0,-4.0,-5.0,-12.0,-6.0
1701718884.929018,-3.0,7.0,69.0,18.0,6.0,2.0,-45.0,-20.0
1701718884.929018,6.0,-5.0,-35.0,-11.0,-3.0,-4.0,5.0,17.0
1701718884.929018,-3.0,-3.0,18.0,-12.0,-2.0,-11.0,-32.0,-6.0
1701718884.9436412,2.0,9.0,44.0,20.0,-3.0,1.0,14.0,1.0
1701718884.9436412,-10.0,-17.0,-113.0,-25.0,-10.0,-3.0,17.0,-1.0
1701718884.963639,3.0,-15.0,89.0,3.0,-6.0,0.0,-2.0,-15.0
1701718884.963639,-1.0,-7.0,-66.0,-30.0,0.0,0.0,-7.0,1.0
1701718884.963639,4.0,16.0,60.0,20.0,11.0,6.0,6.0,4.0
1701718884.963639,3.0,14.0,98.0,36.0,3.0,-6.0,-4.0,3.0
1701718884.963639,-10.0,-13.0,-87.0,-52.0,-9.0,-6.0,-8.0,-7.0
1701718884.963639,-3.0,7.0,-2.0,43.0,-1.0,-10.0,-17.0,-20.0
1701718884.9855492,11.0,1.0,-14.0,-14.0,1.0,9.0,-4.0,27.0
1701718884.9855492,12.0,20.0,50.0,45.0,13.0,19.0,54.0,9.0
1701718884.9875624,-14.0,-28.0,-82.0,-18.0,-8.0,-9.0,-36.0,4.0
1701718884.9875624,8.0,29.0,96.0,17.0,8.0,13.0,26.0,9.0
1701718885.0075607,-3.0,-5.0,19.0,-12.0,-2.0,-1.0,13.0,17.0
1701718885.0075607,0.0,-9.0,-113.0,-24.0,-3.0,-5.0,-33.0,-14.0
1701718885.0100474,8.0,13.0,75.0,17.0,3.0,3.0,30.0,12.0
1701718885.0100474,5.0,15.0,39.0,5.0,3.0,-2.0,-8.0,8.0
1701718885.0301394,-9.0,-13.0,11.0,3.0,-11.0,-19.0,-21.0,-17.0
1701718885.0311232,0.0,-6.0,74.0,-5.0,4.0,16.0,21.0,5.0
1701718885.0321233,8.0,22.0,54.0,19.0,11.0,10.0,12.0,-1.0
1701718885.0321233,-10.0,-34.0,-128.0,-41.0,-9.0,-11.0,-8.0,1.0
1701718885.0447314,-7.0,0.0,1.0,7.0,-3.0,-3.0,-5.0,-14.0
1701718885.045658,-1.0,-2.0,-8.0,-23.0,-1.0,-7.0,6.0,-10.0
1701718885.051613,-5.0,0.0,11.0,4.0,-2.0,-7.0,-35.0,-7.0
1701718885.051613,10.0,16.0,105.0,35.0,10.0,18.0,43.0,11.0
1701718885.0701065,-10.0,-20.0,-128.0,-53.0,-14.0,-3.0,-20.0,-13.0
1701718885.0701065,-3.0,3.0,61.0,26.0,1.0,-7.0,-26.0,-12.0
1701718885.0701065,4.0,-3.0,37.0,-17.0,0.0,6.0,13.0,15.0
1701718885.0701065,-5.0,11.0,44.0,22.0,-4.0,-25.0,-33.0,-6.0
1701718885.0903194,0.0,7.0,88.0,22.0,0.0,7.0,-26.0,-9.0
1701718885.0903194,-7.0,-32.0,-121.0,-84.0,-18.0,-6.0,13.0,9.0
1701718885.0921202,-12.0,-1.0,115.0,45.0,5.0,1.0,-6.0,-8.0
1701718885.0921202,7.0,-5.0,-37.0,-17.0,-3.0,-4.0,4.0,-17.0
1701718885.1046286,-1.0,-4.0,-39.0,3.0,-5.0,-22.0,-47.0,-6.0
1701718885.1046286,-9.0,-16.0,-58.0,-19.0,-12.0,-2.0,17.0,-3.0
1701718885.1136372,2.0,4.0,28.0,0.0,4.0,13.0,25.0,5.0
1701718885.1136372,-4.0,0.0,13.0,8.0,-3.0,-6.0,4.0,7.0
1701718885.1280427,4.0,16.0,7.0,11.0,8.0,12.0,16.0,-8.0
1701718885.1280427,-2.0,-15.0,-72.0,-10.0,-5.0,-22.0,-12.0,-1.0
1701718885.1298847,-2.0,-9.0,-32.0,-25.0,-12.0,5.0,31.0,-4.0
1701718885.1298847,-8.0,2.0,49.0,3.0,4.0,6.0,-2.0,5.0
1701718885.1435828,5.0,7.0,25.0,10.0,4.0,0.0,15.0,-11.0
1701718885.1435828,8.0,16.0,11.0,27.0,7.0,7.0,13.0,20.0
1701718885.1435828,-19.0,-30.0,-106.0,-27.0,-16.0,-13.0,-10.0,-15.0
1701718885.1435828,5.0,7.0,28.0,-6.0,2.0,2.0,-11.0,0.0
1701718885.1638234,-9.0,-17.0,-28.0,3.0,4.0,-3.0,0.0,-9.0
1701718885.1638234,13.0,17.0,99.0,15.0,15.0,24.0,21.0,23.0
1701718885.171819,5.0,28.0,40.0,19.0,0.0,-9.0,-12.0,-11.0
1701718885.171819,-13.0,-51.0,-71.0,-45.0,-23.0,-5.0,8.0,0.0
1701718885.1878064,-2.0,15.0,41.0,-4.0,7.0,1.0,9.0,3.0
1701718885.1878064,-19.0,-63.0,-87.0,-66.0,-20.0,-16.0,-32.0,-22.0
1701718885.1898224,1.0,12.0,72.0,15.0,4.0,-3.0,-21.0,3.0
1701718885.1898224,9.0,28.0,100.0,34.0,9.0,14.0,42.0,6.0
1701718885.2038188,1.0,-9.0,-28.0,-8.0,1.0,0.0,-2.0,8.0
1701718885.2038188,2.0,8.0,-38.0,-3.0,-1.0,4.0,11.0,8.0
1701718885.2038188,-5.0,-11.0,-5.0,-1.0,-5.0,-4.0,-5.0,-10.0
1701718885.2038188,12.0,24.0,75.0,42.0,11.0,0.0,-18.0,3.0
1701718885.223838,-15.0,-38.0,-12.0,-35.0,-17.0,-11.0,7.0,-11.0
1701718885.223838,3.0,17.0,22.0,25.0,4.0,22.0,39.0,9.0
1701718885.223838,2.0,2.0,49.0,1.0,13.0,2.0,2.0,5.0
1701718885.223838,9.0,26.0,31.0,24.0,3.0,-9.0,-32.0,-4.0
1701718885.2435966,-7.0,-20.0,-91.0,-11.0,-4.0,-15.0,-38.0,-11.0
1701718885.2435966,-6.0,-7.0,-25.0,-14.0,-14.0,-13.0,-19.0,-8.0
1701718885.2435966,3.0,11.0,-20.0,-9.0,-8.0,8.0,29.0,3.0
1701718885.2435966,-6.0,-18.0,-28.0,2.0,10.0,5.0,-5.0,-2.0
1701718885.270441,2.0,14.0,9.0,13.0,0.0,6.0,2.0,5.0
1701718885.270441,-4.0,5.0,-29.0,-12.0,4.0,-14.0,-26.0,-3.0
1701718885.2714324,1.0,-20.0,-91.0,-1.0,5.0,-1.0,-13.0,-7.0
1701718885.2714324,0.0,7.0,85.0,-7.0,-8.0,3.0,22.0,6.0
1701718885.2888217,-6.0,-15.0,-64.0,-17.0,-1.0,-4.0,8.0,2.0
1701718885.2888217,9.0,30.0,127.0,38.0,8.0,3.0,-5.0,-4.0
1701718885.2992282,0.0,3.0,-38.0,-3.0,1.0,-7.0,-1.0,5.0
1701718885.2992282,-10.0,-11.0,-41.0,-16.0,-11.0,-19.0,-37.0,-14.0
1701718885.307991,8.0,22.0,109.0,16.0,2.0,17.0,14.0,11.0
1701718885.307991,0.0,-1.0,-43.0,-1.0,-1.0,-3.0,14.0,2.0
1701718885.309957,-5.0,-3.0,-6.0,-1.0,-5.0,-7.0,-15.0,-3.0
1701718885.309957,1.0,-3.0,13.0,-6.0,-3.0,-4.0,-28.0,-10.0
1701718885.3304791,-3.0,1.0,-13.0,-2.0,-9.0,-3.0,25.0,0.0
1701718885.3304791,-7.0,-9.0,-66.0,-5.0,-2.0,-5.0,-31.0,-6.0
1701718885.3318713,-3.0,-5.0,14.0,-11.0,-7.0,-5.0,9.0,-5.0
1701718885.3318713,1.0,-9.0,-11.0,3.0,7.0,5.0,26.0,4.0
1701718885.348881,-6.0,2.0,42.0,-4.0,-9.0,-17.0,0.0,-12.0
1701718885.348881,3.0,6.0,90.0,16.0,7.0,-1.0,-21.0,-5.0
1701718885.3512034,-7.0,-21.0,-59.0,-15.0,-7.0,5.0,2.0,-4.0
1701718885.3512034,-3.0,-1.0,-17.0,-28.0,-14.0,8.0,43.0,-2.0
1701718885.367536,2.0,1.0,36.0,25.0,8.0,0.0,21.0,28.0
1701718885.367536,-2.0,2.0,15.0,1.0,7.0,-1.0,-29.0,-15.0
1701718885.369483,0.0,0.0,29.0,23.0,16.0,-5.0,-26.0,-2.0
1701718885.369483,-1.0,-1.0,-68.0,-7.0,-2.0,1.0,-1.0,-13.0
1701718885.3903792,-3.0,1.0,7.0,-9.0,-19.0,-6.0,14.0,1.0
1701718885.3903792,11.0,16.0,23.0,9.0,8.0,-2.0,9.0,17.0
1701718885.392164,-5.0,-10.0,28.0,-2.0,-2.0,-5.0,-36.0,-11.0
1701718885.392164,-3.0,-14.0,-27.0,-12.0,0.0,6.0,7.0,2.0
1701718885.4032593,-2.0,0.0,-13.0,3.0,1.0,16.0,24.0,-12.0
1701718885.4032593,-7.0,6.0,1.0,9.0,-5.0,-20.0,-33.0,6.0
1701718885.4116595,7.0,-1.0,6.0,-5.0,0.0,20.0,51.0,5.0
1701718885.4116595,-4.0,6.0,8.0,4.0,1.0,-7.0,0.0,2.0
1701718885.4278202,1.0,2.0,10.0,0.0,-5.0,-13.0,-59.0,4.0
1701718885.4285016,7.0,16.0,-28.0,-1.0,-1.0,5.0,21.0,-10.0
1701718885.429499,-7.0,-22.0,-3.0,-12.0,-11.0,-12.0,-37.0,-9.0
1701718885.429499,-1.0,7.0,-14.0,2.0,3.0,0.0,-18.0,1.0
1701718885.453088,-12.0,-35.0,-28.0,-11.0,1.0,3.0,-2.0,-33.0
1701718885.453088,-9.0,4.0,-9.0,-10.0,-8.0,-9.0,-19.0,14.0
1701718885.453088,6.0,5.0,18.0,10.0,4.0,6.0,3.0,12.0
1701718885.453088,4.0,5.0,-17.0,-4.0,-4.0,-10.0,4.0,5.0
1701718885.4640772,1.0,-9.0,-18.0,4.0,2.0,8.0,-2.0,-6.0
1701718885.4640772,-3.0,14.0,37.0,8.0,4.0,5.0,11.0,-7.0
1701718885.472796,4.0,-9.0,-3.0,9.0,7.0,2.0,12.0,5.0
1701718885.472796,-13.0,5.0,-16.0,-3.0,-5.0,0.0,-1.0,-3.0
1701718885.4897246,-2.0,12.0,10.0,0.0,4.0,-6.0,5.0,10.0
1701718885.4897246,-2.0,-35.0,-24.0,-16.0,-16.0,-5.0,4.0,-10.0
1701718885.4907324,-10.0,24.0,-6.0,2.0,1.0,0.0,-17.0,3.0
1701718885.4907324,12.0,3.0,-27.0,-8.0,0.0,4.0,23.0,5.0
1701718885.4938774,6.0,22.0,18.0,9.0,2.0,2.0,11.0,10.0
1701718885.4938774,1.0,-3.0,-1.0,-5.0,-1.0,5.0,-6.0,-7.0
1701718885.5027332,-16.0,-41.0,16.0,-2.0,-4.0,-11.0,-3.0,-10.0
1701718885.5027332,-25.0,-67.0,-14.0,-2.0,-6.0,-9.0,-13.0,-7.0
1701718885.5253072,1.0,6.0,-13.0,1.0,1.0,7.0,4.0,3.0
1701718885.5253072,13.0,24.0,8.0,1.0,1.0,0.0,6.0,-4.0
1701718885.5253072,14.0,8.0,-17.0,-4.0,-5.0,7.0,17.0,7.0
1701718885.5253072,2.0,2.0,9.0,-3.0,5.0,0.0,-4.0,6.0
1701718885.5405335,2.0,-52.0,-30.0,-5.0,2.0,-4.0,-19.0,-4.0
1701718885.5405335,-8.0,38.0,-15.0,-14.0,-9.0,1.0,5.0,-5.0
1701718885.5414793,11.0,-8.0,14.0,3.0,2.0,0.0,17.0,1.0
1701718885.5414793,-3.0,8.0,28.0,1.0,-5.0,-4.0,-18.0,0.0
1701718885.5650573,17.0,28.0,1.0,8.0,-4.0,-4.0,-16.0,3.0
1701718885.5660555,-12.0,-24.0,-39.0,-13.0,2.0,-1.0,-15.0,-11.0
1701718885.5740554,5.0,19.0,5.0,2.0,-1.0,-5.0,5.0,-1.0
1701718885.5740554,11.0,-1.0,-24.0,2.0,2.0,-4.0,-2.0,-3.0
1701718885.5769637,-4.0,3.0,-1.0,-9.0,0.0,3.0,-5.0,2.0
1701718885.5769637,-5.0,-46.0,1.0,6.0,-4.0,6.0,34.0,14.0
1701718885.5847101,-3.0,19.0,6.0,3.0,-4.0,-6.0,-13.0,4.0
1701718885.5847101,-3.0,-5.0,-13.0,-1.0,3.0,-6.0,-5.0,-13.0
1701718885.6012764,-2.0,24.0,1.0,-4.0,-2.0,0.0,2.0,-4.0
1701718885.6012764,-2.0,-8.0,9.0,4.0,2.0,-2.0,4.0,4.0
1701718885.6022458,-12.0,0.0,-9.0,-11.0,-5.0,0.0,-1.0,-2.0
1701718885.6022458,1.0,12.0,4.0,-10.0,-3.0,2.0,-14.0,-10.0
1701718885.6302571,-27.0,-11.0,1.0,-2.0,-1.0,-2.0,-4.0,0.0
1701718885.6302571,31.0,18.0,4.0,3.0,2.0,2.0,10.0,13.0
1701718885.6302571,9.0,-13.0,1.0,-4.0,-10.0,-8.0,9.0,-1.0
1701718885.6302571,-12.0,-41.0,-1.0,1.0,-1.0,1.0,-21.0,8.0
1701718885.6372352,6.0,7.0,-3.0,2.0,6.0,4.0,0.0,-7.0
1701718885.6372352,-2.0,9.0,4.0,2.0,-2.0,1.0,-4.0,2.0
1701718885.6440966,-1.0,8.0,0.0,0.0,0.0,-3.0,-6.0,-3.0
1701718885.6440966,11.0,24.0,1.0,6.0,-5.0,2.0,1.0,-11.0
1701718885.6601079,2.0,-9.0,-2.0,-8.0,-2.0,-1.0,18.0,17.0
1701718885.6601079,7.0,14.0,15.0,1.0,0.0,-10.0,-5.0,12.0
1701718885.6661367,-8.0,13.0,-8.0,-5.0,-5.0,-3.0,6.0,-24.0
1701718885.6669314,5.0,21.0,-3.0,5.0,4.0,4.0,17.0,36.0
1701718885.6779249,-2.0,-19.0,5.0,9.0,11.0,7.0,-5.0,-18.0
1701718885.6779249,-5.0,-17.0,2.0,0.0,4.0,-3.0,-5.0,-5.0
1701718885.6827908,-6.0,-15.0,1.0,4.0,4.0,6.0,4.0,3.0
1701718885.6827908,8.0,13.0,-12.0,-11.0,-7.0,-4.0,6.0,-11.0
1701718885.697803,-2.0,17.0,5.0,3.0,-7.0,-6.0,-9.0,0.0
1701718885.697803,-5.0,5.0,-2.0,-4.0,-3.0,-2.0,-3.0,-8.0
1701718885.705035,-5.0,5.0,6.0,5.0,6.0,5.0,7.0,0.0
1701718885.705035,-4.0,0.0,18.0,6.0,-1.0,0.0,12.0,13.0
1701718885.7206035,10.0,3.0,-2.0,-2.0,0.0,-5.0,-5.0,3.0
1701718885.7206035,-6.0,-30.0,-21.0,-6.0,-1.0,4.0,-3.0,-8.0
1701718885.7263858,-1.0,-4.0,-1.0,-14.0,-1.0,-1.0,-6.0,-4.0
1701718885.7263858,-5.0,-6.0,60.0,32.0,-4.0,-2.0,-3.0,-2.0
1701718885.7463799,3.0,0.0,-18.0,-21.0,-4.0,-1.0,-1.0,0.0
1701718885.7463799,-11.0,-6.0,50.0,16.0,-6.0,-7.0,-5.0,-11.0
1701718885.7463799,4.0,12.0,-14.0,-2.0,-3.0,-4.0,-34.0,0.0
1701718885.7463799,-3.0,4.0,-43.0,-21.0,4.0,7.0,2.0,-15.0
1701718885.7567155,-2.0,1.0,40.0,26.0,-6.0,-6.0,2.0,-3.0
1701718885.7567155,-4.0,-3.0,-15.0,-30.0,-7.0,-3.0,10.0,4.0
1701718885.7567155,2.0,13.0,-10.0,2.0,4.0,1.0,2.0,-10.0
1701718885.7567155,-4.0,-8.0,-25.0,-10.0,-2.0,2.0,-1.0,10.0
1701718885.7765439,3.0,6.0,22.0,2.0,-1.0,1.0,-2.0,-1.0
1701718885.7765439,-3.0,0.0,-5.0,1.0,1.0,-3.0,5.0,-4.0
1701718885.7865376,5.0,7.0,-6.0,15.0,-1.0,-2.0,4.0,5.0
1701718885.7865376,-6.0,9.0,8.0,10.0,3.0,3.0,4.0,-15.0
1701718885.806381,-4.0,-2.0,-90.0,-28.0,-5.0,-4.0,4.0,4.0
1701718885.806381,3.0,15.0,43.0,22.0,-3.0,0.0,-4.0,5.0
1701718885.806381,-2.0,5.0,-38.0,-30.0,1.0,-6.0,3.0,1.0
1701718885.806381,4.0,-2.0,31.0,13.0,-1.0,1.0,-1.0,-3.0
1701718885.8164828,-1.0,-2.0,34.0,-1.0,2.0,-2.0,-11.0,0.0
1701718885.8164828,0.0,-10.0,-21.0,-27.0,-2.0,-2.0,-2.0,-6.0
1701718885.8164828,-1.0,-3.0,2.0,8.0,-5.0,7.0,6.0,2.0
1701718885.8164828,3.0,0.0,-14.0,-3.0,2.0,-5.0,17.0,4.0
1701718885.8463798,-3.0,-6.0,-12.0,6.0,-3.0,2.0,-5.0,-4.0
1701718885.8463798,-6.0,-5.0,2.0,9.0,-1.0,-7.0,-33.0,-15.0
1701718885.8463798,-1.0,-11.0,-1.0,-7.0,-5.0,-3.0,28.0,8.0
1701718885.8463798,0.0,-6.0,-9.0,-2.0,2.0,4.0,0.0,11.0
1701718885.8564847,-7.0,-12.0,23.0,8.0,-3.0,-1.0,-4.0,-6.0
1701718885.8564847,1.0,-10.0,7.0,-11.0,-1.0,3.0,2.0,-2.0
1701718885.8564847,0.0,3.0,11.0,9.0,4.0,2.0,2.0,3.0
1701718885.8564847,-3.0,-8.0,-11.0,-20.0,-3.0,-1.0,-7.0,-9.0
1701718885.8768358,-2.0,0.0,-31.0,-15.0,-3.0,-7.0,-3.0,-7.0
1701718885.8768358,-2.0,1.0,13.0,43.0,3.0,-4.0,0.0,-1.0
1701718885.8768358,2.0,1.0,-29.0,-18.0,-15.0,0.0,-8.0,6.0
1701718885.8768358,-4.0,-2.0,51.0,20.0,6.0,6.0,19.0,0.0
1701718885.896823,2.0,1.0,18.0,-12.0,-1.0,0.0,-10.0,-15.0
1701718885.896823,-3.0,-1.0,0.0,-1.0,-3.0,2.0,8.0,6.0
1701718885.9074614,-1.0,-2.0,-35.0,-11.0,-2.0,-8.0,-21.0,-6.0
1701718885.9074614,-1.0,2.0,-6.0,-9.0,-5.0,-9.0,-10.0,-4.0
1701718885.927258,-2.0,-6.0,-17.0,4.0,3.0,5.0,7.0,1.0
1701718885.927258,-3.0,5.0,-15.0,6.0,3.0,5.0,25.0,3.0
1701718885.927258,0.0,-5.0,12.0,2.0,1.0,-5.0,-11.0,-5.0
1701718885.927258,-6.0,2.0,2.0,-15.0,-6.0,-1.0,1.0,5.0
1701718885.9372678,1.0,-1.0,-24.0,-1.0,-2.0,-1.0,-3.0,1.0
1701718885.9372678,-4.0,-1.0,44.0,-5.0,-4.0,-8.0,-6.0,-3.0
1701718885.9372678,-2.0,-3.0,-2.0,16.0,-3.0,3.0,9.0,4.0
1701718885.9372678,1.0,1.0,22.0,9.0,3.0,1.0,-6.0,-3.0
1701718885.9572604,-2.0,-3.0,-24.0,1.0,-1.0,-3.0,1.0,-4.0
1701718885.9572604,3.0,-4.0,-32.0,-30.0,3.0,8.0,15.0,7.0
1701718885.9572604,-8.0,2.0,31.0,4.0,-3.0,-9.0,-3.0,-2.0
1701718885.9572604,-1.0,-1.0,-14.0,9.0,-4.0,-7.0,-25.0,-14.0
1701718885.977979,2.0,1.0,-15.0,1.0,0.0,8.0,8.0,3.0
1701718885.977979,-2.0,-2.0,-16.0,6.0,4.0,4.0,-6.0,2.0
1701718885.977979,0.0,7.0,21.0,-2.0,4.0,-2.0,1.0,-3.0
1701718885.977979,-3.0,-15.0,-69.0,-36.0,-3.0,-5.0,2.0,5.0
1701718885.9976873,-3.0,3.0,44.0,22.0,-6.0,-15.0,-19.0,-4.0
1701718885.9976873,0.0,0.0,-23.0,1.0,4.0,15.0,4.0,-4.0
1701718885.9976873,0.0,-2.0,38.0,-3.0,0.0,2.0,10.0,7.0
1701718885.9976873,-2.0,6.0,0.0,10.0,0.0,-7.0,-24.0,-2.0
1701718886.0176876,8.0,-3.0,43.0,0.0,-4.0,6.0,1.0,-2.0
1701718886.0176876,-5.0,-12.0,-71.0,-19.0,-7.0,-20.0,-18.0,1.0
1701718886.0176876,-2.0,0.0,-32.0,-13.0,4.0,9.0,-3.0,-3.0
1701718886.0176876,4.0,4.0,35.0,14.0,-3.0,-6.0,2.0,-3.0
1701718886.070275,-5.0,-1.0,36.0,8.0,0.0,-4.0,-5.0,9.0
1701718886.070275,1.0,3.0,-36.0,-11.0,-1.0,9.0,22.0,8.0
1701718886.0712757,3.0,-10.0,-65.0,-2.0,3.0,-2.0,4.0,-1.0
1701718886.0712757,0.0,1.0,81.0,17.0,-2.0,0.0,6.0,0.0
1701718886.0881937,1.0,5.0,-52.0,11.0,5.0,-5.0,-4.0,-3.0
1701718886.0881937,-1.0,-9.0,-40.0,-43.0,-10.0,-6.0,-13.0,-6.0
1701718886.0891862,2.0,3.0,36.0,19.0,5.0,3.0,22.0,13.0
1701718886.0891862,2.0,0.0,-39.0,-10.0,0.0,2.0,-2.0,0.0
1701718886.102587,1.0,8.0,23.0,9.0,0.0,-7.0,0.0,6.0
1701718886.102587,-3.0,-3.0,43.0,6.0,1.0,11.0,2.0,-10.0
1701718886.1045997,-2.0,-10.0,-20.0,-12.0,-2.0,-3.0,-7.0,-12.0
1701718886.1045997,-4.0,-6.0,-31.0,9.0,0.0,2.0,8.0,10.0
1701718886.1170795,0.0,8.0,25.0,-17.0,2.0,2.0,26.0,6.0
1701718886.1170795,3.0,4.0,50.0,24.0,-4.0,-12.0,-36.0,-7.0
1701718886.130103,-7.0,-10.0,-73.0,-29.0,-6.0,-4.0,0.0,-9.0
1701718886.130103,1.0,-3.0,-10.0,-12.0,0.0,8.0,19.0,1.0
1701718886.130103,-8.0,-17.0,-53.0,-12.0,-7.0,-2.0,1.0,0.0
1701718886.130103,2.0,1.0,-38.0,-6.0,1.0,1.0,4.0,2.0
1701718886.130103,-2.0,9.0,73.0,56.0,2.0,-8.0,-10.0,-3.0
1701718886.130103,-2.0,2.0,-41.0,-18.0,-5.0,-11.0,-27.0,-9.0
1701718886.1398754,3.0,0.0,-9.0,-14.0,-3.0,5.0,8.0,0.0
1701718886.1398754,-5.0,1.0,0.0,7.0,3.0,-1.0,-8.0,-3.0
1701718886.1468713,3.0,-6.0,-54.0,-31.0,-3.0,-7.0,-1.0,17.0
1701718886.1468713,-9.0,1.0,-2.0,13.0,0.0,5.0,0.0,-4.0
1701718886.1628935,-5.0,-2.0,34.0,20.0,0.0,-3.0,-15.0,-9.0
1701718886.1628935,1.0,0.0,14.0,-4.0,-7.0,-3.0,17.0,2.0
1701718886.1638925,0.0,6.0,-12.0,2.0,-1.0,-2.0,8.0,-1.0
1701718886.1638925,-2.0,-29.0,-22.0,-20.0,-8.0,-7.0,-11.0,2.0
1701718886.178894,1.0,2.0,27.0,6.0,2.0,-1.0,-6.0,1.0
1701718886.178894,0.0,0.0,-24.0,-1.0,-1.0,3.0,1.0,-3.0
1701718886.1971838,0.0,9.0,37.0,10.0,-2.0,2.0,-4.0,0.0
1701718886.1971838,6.0,5.0,-24.0,-30.0,0.0,1.0,14.0,1.0
1701718886.199751,-2.0,-11.0,-26.0,-9.0,0.0,-1.0,-11.0,-7.0
1701718886.199751,-4.0,2.0,76.0,36.0,2.0,-12.0,-6.0,-9.0
1701718886.206732,3.0,9.0,52.0,0.0,-4.0,7.0,11.0,2.0
1701718886.206732,-14.0,-24.0,-91.0,-31.0,-11.0,-9.0,-12.0,-6.0
1701718886.2450337,1.0,-7.0,6.0,-6.0,1.0,3.0,-4.0,-2.0
1701718886.2450337,-2.0,-8.0,-11.0,-7.0,-1.0,1.0,7.0,6.0
1701718886.2630684,-2.0,2.0,127.0,79.0,11.0,10.0,6.0,-4.0
1701718886.2630684,-1.0,12.0,24.0,-20.0,-3.0,-4.0,4.0,-9.0
1701718886.2678668,0.0,5.0,-26.0,-4.0,-4.0,0.0,-6.0,16.0
1701718886.2678668,-11.0,-20.0,-100.0,-43.0,-10.0,-6.0,9.0,-21.0
1701718886.2695122,2.0,-7.0,50.0,-5.0,-1.0,-4.0,-4.0,-2.0
1701718886.2695122,3.0,9.0,31.0,27.0,2.0,4.0,-6.0,-5.0
1701718886.2815213,-6.0,6.0,76.0,21.0,-2.0,-17.0,-18.0,-17.0
1701718886.2815213,2.0,7.0,-53.0,-24.0,-3.0,6.0,-1.0,15.0
1701718886.293639,-3.0,-21.0,-125.0,-51.0,-6.0,2.0,-7.0,1.0
1701718886.293639,2.0,10.0,22.0,23.0,4.0,2.0,7.0,-2.0
1701718886.3057427,1.0,-5.0,22.0,-10.0,-1.0,2.0,7.0,1.0
1701718886.3057427,3.0,5.0,74.0,39.0,6.0,-10.0,-20.0,1.0
1701718886.3067079,-6.0,-8.0,-26.0,-34.0,-2.0,-1.0,-16.0,-14.0
1701718886.3067079,7.0,14.0,117.0,41.0,11.0,14.0,32.0,18.0
1701718886.319948,4.0,12.0,-34.0,-13.0,-6.0,4.0,21.0,2.0
1701718886.319948,-3.0,-30.0,-59.0,-17.0,-1.0,3.0,0.0,-1.0
1701718886.3264966,1.0,7.0,28.0,5.0,-3.0,-10.0,-9.0,-7.0
1701718886.3264966,0.0,-12.0,-57.0,-20.0,3.0,14.0,-3.0,-1.0
1701718886.3432727,0.0,-4.0,65.0,27.0,1.0,-18.0,-17.0,4.0
1701718886.3432727,3.0,18.0,73.0,3.0,2.0,12.0,25.0,-5.0
1701718886.3536613,-1.0,-10.0,-125.0,-33.0,-6.0,2.0,4.0,-3.0
1701718886.3536613,-3.0,1.0,45.0,29.0,-1.0,-11.0,-8.0,2.0
1701718886.3576717,-3.0,-3.0,-85.0,-23.0,-1.0,11.0,0.0,-1.0
1701718886.3576717,1.0,5.0,23.0,-18.0,0.0,-10.0,-18.0,-1.0
1701718886.359673,-4.0,-2.0,23.0,25.0,-2.0,-9.0,-30.0,-10.0
1701718886.359673,8.0,6.0,34.0,-2.0,-5.0,-4.0,25.0,7.0
1701718886.372274,-3.0,-7.0,-27.0,-13.0,-2.0,4.0,23.0,2.0
1701718886.372274,-1.0,4.0,-76.0,-10.0,7.0,-4.0,-42.0,-3.0
1701718886.372274,2.0,6.0,45.0,33.0,5.0,6.0,11.0,-2.0
1701718886.372274,6.0,-9.0,-59.0,-47.0,-6.0,-3.0,-9.0,17.0
1701718886.3863022,-5.0,0.0,70.0,36.0,8.0,14.0,26.0,-4.0
1701718886.3863022,4.0,8.0,17.0,11.0,3.0,-2.0,-12.0,6.0
1701718886.3953955,0.0,3.0,-21.0,-14.0,-3.0,0.0,8.0,5.0
1701718886.3953955,6.0,11.0,-46.0,-29.0,-1.0,-10.0,-29.0,-7.0
1701718886.4105585,-2.0,-18.0,27.0,3.0,-5.0,0.0,8.0,-4.0
1701718886.4105585,-2.0,-1.0,3.0,8.0,-2.0,0.0,13.0,3.0
1701718886.4115036,4.0,6.0,61.0,12.0,6.0,9.0,20.0,-5.0
1701718886.4115036,1.0,-2.0,46.0,11.0,4.0,0.0,9.0,6.0
1701718886.433024,6.0,1.0,-12.0,-29.0,-4.0,8.0,-6.0,2.0
1701718886.433024,-15.0,-29.0,72.0,11.0,-7.0,-6.0,-7.0,-13.0
1701718886.434421,12.0,21.0,80.0,4.0,-1.0,-5.0,0.0,12.0
1701718886.434421,-8.0,-10.0,-88.0,-1.0,-9.0,-5.0,-12.0,-13.0
1701718886.446428,-1.0,-1.0,-45.0,-25.0,-5.0,-18.0,-28.0,-5.0
1701718886.446428,0.0,4.0,34.0,19.0,-1.0,13.0,26.0,-1.0
1701718886.4576786,-6.0,0.0,-68.0,-14.0,0.0,-8.0,-27.0,-9.0
1701718886.4576786,-6.0,-5.0,64.0,8.0,-4.0,-7.0,-4.0,-5.0
1701718886.4707568,-3.0,1.0,-119.0,-19.0,0.0,-1.0,3.0,0.0
1701718886.4707568,6.0,1.0,21.0,5.0,-2.0,-5.0,-29.0,-3.0
1701718886.4727542,-4.0,-8.0,57.0,27.0,-6.0,-6.0,-7.0,1.0
1701718886.4727542,-6.0,-2.0,-15.0,-10.0,-2.0,-4.0,-12.0,-6.0
1701718886.493754,-3.0,-5.0,-44.0,-12.0,-2.0,-1.0,-5.0,1.0
1701718886.493754,2.0,7.0,62.0,7.0,1.0,-6.0,3.0,-5.0
1701718886.4947126,-2.0,8.0,-7.0,0.0,6.0,4.0,-3.0,3.0
1701718886.4947126,1.0,-3.0,-7.0,15.0,4.0,8.0,0.0,-14.0
1701718886.506745,-2.0,1.0,28.0,7.0,-3.0,-4.0,5.0,9.0
1701718886.506745,-2.0,-7.0,-44.0,-14.0,-6.0,0.0,30.0,0.0
1701718886.523306,0.0,-13.0,-53.0,-26.0,-12.0,-11.0,-37.0,-2.0
1701718886.523306,-4.0,15.0,60.0,13.0,-3.0,9.0,35.0,4.0
1701718886.530309,1.0,-12.0,-55.0,-4.0,8.0,-10.0,-41.0,-8.0
1701718886.530309,8.0,6.0,-29.0,6.0,5.0,10.0,28.0,8.0
1701718886.5313082,-3.0,3.0,54.0,8.0,2.0,10.0,2.0,4.0
1701718886.5313082,-8.0,-12.0,-33.0,-18.0,-12.0,-12.0,-15.0,-13.0
1701718886.5528526,2.0,15.0,105.0,16.0,5.0,0.0,5.0,-1.0
1701718886.5528526,10.0,39.0,10.0,11.0,7.0,1.0,-12.0,9.0
1701718886.5545392,-9.0,-42.0,-32.0,-30.0,-10.0,-1.0,14.0,-4.0
1701718886.5545392,-2.0,-5.0,-58.0,4.0,-1.0,-7.0,-21.0,-3.0
1701718886.566535,3.0,13.0,103.0,26.0,15.0,5.0,8.0,4.0
1701718886.566535,-8.0,-10.0,-57.0,-17.0,-12.0,-20.0,-25.0,-17.0
1701718886.578983,4.0,8.0,27.0,0.0,2.0,10.0,20.0,4.0
1701718886.578983,0.0,0.0,70.0,3.0,-3.0,-5.0,-17.0,-6.0
1701718886.5907671,-6.0,-7.0,-60.0,-9.0,-11.0,4.0,26.0,-5.0
1701718886.5907671,-2.0,6.0,49.0,0.0,3.0,2.0,-26.0,-9.0
1701718886.592744,-4.0,1.0,37.0,-3.0,-3.0,-6.0,-22.0,-10.0
1701718886.592744,-4.0,-11.0,-28.0,-1.0,1.0,5.0,11.0,4.0
1701718886.6124704,-3.0,2.0,-9.0,-2.0,0.0,0.0,-17.0,-11.0
1701718886.6134725,-4.0,-5.0,5.0,-1.0,-5.0,-6.0,16.0,5.0
1701718886.614467,0.0,6.0,3.0,6.0,0.0,-11.0,13.0,-2.0
1701718886.614467,4.0,13.0,96.0,18.0,7.0,19.0,4.0,4.0
1701718886.6271656,0.0,-2.0,-44.0,-6.0,4.0,1.0,8.0,-2.0
1701718886.6281395,0.0,-5.0,-26.0,5.0,0.0,-1.0,-2.0,-1.0
1701718886.6461296,-3.0,-15.0,-41.0,-8.0,-4.0,-4.0,-2.0,6.0
1701718886.6461296,3.0,6.0,-6.0,-3.0,-2.0,-2.0,29.0,5.0
1701718886.650122,-6.0,-6.0,16.0,-21.0,-18.0,-8.0,-52.0,-14.0
1701718886.650122,-6.0,-16.0,-21.0,1.0,-1.0,-16.0,-13.0,-3.0
1701718886.6522062,-6.0,-8.0,-39.0,4.0,6.0,7.0,10.0,-6.0
1701718886.6522062,11.0,14.0,19.0,8.0,15.0,7.0,9.0,3.0
1701718886.6817348,-4.0,9.0,20.0,-12.0,-10.0,-1.0,11.0,7.0
1701718886.6817348,2.0,-3.0,24.0,-2.0,-2.0,1.0,-3.0,0.0
1701718886.685735,-2.0,-1.0,-27.0,-11.0,3.0,-7.0,-21.0,-6.0
1701718886.685735,-4.0,-14.0,-33.0,-3.0,0.0,-6.0,-19.0,-6.0
1701718886.685735,1.0,-7.0,-9.0,1.0,6.0,5.0,6.0,-6.0
1701718886.685735,2.0,16.0,33.0,8.0,-9.0,8.0,20.0,5.0
1701718886.6947353,-2.0,-3.0,-24.0,-7.0,-1.0,-1.0,13.0,9.0
1701718886.6947353,3.0,0.0,-14.0,-5.0,-3.0,-2.0,-3.0,-4.0
1701718886.7099514,-3.0,16.0,19.0,7.0,3.0,1.0,16.0,8.0
1701718886.7108943,0.0,-8.0,-3.0,0.0,2.0,8.0,8.0,6.0
1701718886.7118924,2.0,11.0,17.0,4.0,-6.0,-13.0,-66.0,-10.0
1701718886.7118924,-3.0,3.0,-16.0,1.0,-1.0,8.0,50.0,-5.0
1701718886.7373211,9.0,39.0,49.0,11.0,6.0,-1.0,11.0,12.0
1701718886.7373211,-6.0,-50.0,-59.0,-17.0,-7.0,-5.0,-21.0,13.0
1701718886.7453241,4.0,20.0,7.0,3.0,-4.0,-2.0,14.0,-9.0
1701718886.7453241,-12.0,-35.0,-28.0,-4.0,-6.0,-7.0,-26.0,-6.0
1701718886.7453241,-3.0,-6.0,7.0,4.0,0.0,7.0,25.0,-28.0
1701718886.7453241,-1.0,23.0,-6.0,-2.0,2.0,-3.0,5.0,19.0
1701718886.7464094,10.0,3.0,7.0,5.0,6.0,4.0,-6.0,17.0
1701718886.7464094,-8.0,12.0,6.0,-5.0,-8.0,-7.0,-43.0,-12.0
1701718886.7615447,-8.0,-22.0,-35.0,-5.0,-1.0,-2.0,22.0,-18.0
1701718886.7625473,1.0,3.0,2.0,-1.0,-1.0,0.0,-9.0,18.0
1701718886.7687488,-6.0,2.0,15.0,4.0,0.0,8.0,54.0,-15.0
1701718886.7687488,2.0,5.0,2.0,-5.0,-5.0,-20.0,-79.0,49.0
1701718886.785441,-5.0,-21.0,-14.0,-3.0,-1.0,8.0,31.0,-20.0
1701718886.785441,2.0,18.0,7.0,-4.0,3.0,6.0,-8.0,12.0
1701718886.7919657,0.0,-17.0,0.0,5.0,1.0,-1.0,1.0,1.0
1701718886.7919657,0.0,3.0,10.0,1.0,2.0,20.0,34.0,-25.0
1701718886.8039594,-7.0,-2.0,-23.0,-9.0,-7.0,-37.0,-68.0,16.0
1701718886.8039594,15.0,15.0,19.0,13.0,1.0,-10.0,14.0,-69.0
1701718886.8072572,-19.0,-11.0,-12.0,-10.0,-10.0,5.0,7.0,0.0
1701718886.8072572,3.0,9.0,3.0,6.0,6.0,-9.0,-31.0,13.0
1701718886.8218825,7.0,-4.0,-2.0,2.0,2.0,15.0,16.0,17.0
1701718886.8218825,-7.0,6.0,-3.0,6.0,6.0,0.0,-12.0,8.0
1701718886.8286335,-3.0,-26.0,-7.0,0.0,-3.0,-2.0,1.0,6.0
1701718886.8286335,8.0,20.0,-11.0,1.0,5.0,7.0,28.0,-15.0
1701718886.844945,7.0,0.0,37.0,9.0,2.0,6.0,-5.0,21.0
1701718886.844945,2.0,0.0,2.0,-13.0,-7.0,-9.0,4.0,-49.0
1701718886.8469446,-8.0,-8.0,-24.0,2.0,3.0,8.0,10.0,64.0
1701718886.8469446,-6.0,-12.0,-9.0,-1.0,-2.0,-10.0,8.0,-46.0
1701718886.8674886,-1.0,0.0,2.0,-2.0,-7.0,3.0,-5.0,38.0
1701718886.8674886,8.0,10.0,20.0,8.0,6.0,1.0,23.0,-6.0
1701718886.8694897,6.0,9.0,-8.0,-1.0,0.0,-5.0,-14.0,-37.0
1701718886.8694897,-13.0,-12.0,-10.0,-7.0,-7.0,2.0,44.0,-3.0
1701718886.8823583,12.0,45.0,2.0,0.0,1.0,-1.0,-6.0,17.0
1701718886.8823583,-4.0,-64.0,-26.0,-18.0,-11.0,-9.0,-15.0,0.0
1701718886.8893926,-6.0,14.0,7.0,3.0,1.0,1.0,-13.0,-22.0
1701718886.8893926,-11.0,-63.0,3.0,2.0,0.0,-5.0,7.0,29.0
1701718886.9082112,-4.0,-2.0,-17.0,-1.0,-1.0,0.0,4.0,-22.0
1701718886.9082112,-3.0,14.0,11.0,-4.0,-2.0,6.0,5.0,35.0
1701718886.9082112,7.0,2.0,0.0,-6.0,-4.0,-4.0,3.0,-24.0
1701718886.9092104,2.0,5.0,-4.0,-3.0,-2.0,-5.0,-14.0,4.0
1701718886.9197698,-7.0,-17.0,-18.0,-3.0,-2.0,2.0,-10.0,-43.0
1701718886.9197698,-15.0,-2.0,-8.0,-3.0,6.0,4.0,-2.0,19.0
1701718886.925405,-2.0,-7.0,8.0,-10.0,-2.0,-5.0,-1.0,23.0
1701718886.925405,-5.0,22.0,1.0,4.0,-3.0,1.0,16.0,-9.0
1701718886.9357736,8.0,-13.0,-9.0,-3.0,-7.0,-7.0,17.0,19.0
1701718886.9357736,-3.0,-4.0,-13.0,4.0,1.0,14.0,-2.0,-56.0
1701718886.9457664,3.0,-2.0,9.0,1.0,2.0,-3.0,-1.0,54.0
1701718886.9457664,13.0,12.0,-1.0,-7.0,6.0,4.0,3.0,-9.0
1701718886.9654102,-14.0,-7.0,25.0,10.0,-7.0,-11.0,-2.0,-25.0
1701718886.9654102,1.0,-2.0,-12.0,7.0,-1.0,2.0,16.0,-7.0
1701718886.9654102,1.0,3.0,-7.0,-4.0,2.0,-3.0,-21.0,29.0
1701718886.9654102,6.0,2.0,-30.0,-18.0,-1.0,-3.0,6.0,14.0
1701718886.9754722,2.0,-8.0,-19.0,-14.0,-3.0,-1.0,-12.0,-7.0
1701718886.9754722,-12.0,-1.0,90.0,48.0,-3.0,-8.0,-8.0,2.0
1701718886.9856803,6.0,0.0,-10.0,-3.0,-8.0,1.0,5.0,-35.0
1701718886.9856803,-3.0,2.0,-26.0,-14.0,2.0,-3.0,-2.0,9.0
1701718886.9956436,-11.0,-2.0,-3.0,-5.0,3.0,1.0,-13.0,-11.0
1701718886.9956436,9.0,-6.0,-25.0,10.0,-6.0,-3.0,-6.0,13.0
1701718887.0054102,-4.0,22.0,3.0,-10.0,1.0,-3.0,18.0,-8.0
1701718887.0054102,3.0,12.0,16.0,2.0,0.0,2.0,8.0,10.0
1701718887.0254092,6.0,-16.0,-49.0,-10.0,-3.0,3.0,-5.0,-2.0
1701718887.0254092,0.0,11.0,-4.0,0.0,6.0,6.0,6.0,38.0
1701718887.0254092,12.0,19.0,78.0,15.0,-3.0,-7.0,6.0,-12.0
1701718887.0254092,-3.0,-17.0,-2.0,-1.0,-10.0,-1.0,-11.0,-4.0
1701718887.0356214,-8.0,2.0,16.0,5.0,2.0,3.0,15.0,4.0
1701718887.0356214,0.0,-4.0,-3.0,-9.0,1.0,-3.0,3.0,5.0
1701718887.04566,1.0,15.0,-24.0,-7.0,4.0,4.0,1.0,-13.0
1701718887.04566,-2.0,-5.0,42.0,59.0,6.0,2.0,-7.0,-4.0
1701718887.0554328,-7.0,-12.0,9.0,-22.0,-2.0,-8.0,-11.0,10.0
1701718887.0554328,3.0,10.0,-30.0,-47.0,-7.0,-3.0,-4.0,-3.0
1701718887.0656261,-7.0,-12.0,-50.0,-11.0,-5.0,-2.0,-7.0,-9.0
1701718887.0656261,-3.0,-7.0,0.0,-8.0,-4.0,0.0,-4.0,-8.0
