1701719543.572703,-4.0,-1.0,-14.0,3.0,1.0,-1.0,-1.0,0.0
1701719543.5827048,4.0,-2.0,7.0,6.0,-1.0,1.0,-5.0,-4.0
1701719543.5827048,-1.0,1.0,-16.0,-11.0,0.0,4.0,13.0,0.0
1701719543.5827048,-2.0,-6.0,10.0,-6.0,-3.0,0.0,-2.0,1.0
1701719543.5927393,-2.0,3.0,23.0,10.0,-2.0,-3.0,0.0,-5.0
1701719543.5927393,-1.0,0.0,-22.0,-4.0,-2.0,-5.0,-2.0,2.0
1701719543.60274,-1.0,1.0,1.0,7.0,0.0,-2.0,-5.0,-2.0
1701719543.60274,-1.0,-4.0,1.0,-5.0,-1.0,-1.0,0.0,0.0
1701719543.6127422,0.0,0.0,0.0,1.0,-2.0,-1.0,-1.0,0.0
1701719543.6127422,-3.0,-3.0,3.0,-5.0,1.0,-1.0,-1.0,-1.0
1701719543.6127422,-1.0,-2.0,2.0,2.0,0.0,-2.0,-3.0,-2.0
1701719543.6127422,-3.0,-6.0,-32.0,-18.0,-3.0,1.0,1.0,-2.0
1701719543.6527011,0.0,-1.0,22.0,8.0,-2.0,-1.0,-3.0,-1.0
1701719543.6527011,-2.0,-4.0,-45.0,-19.0,-3.0,-1.0,0.0,-1.0
1701719543.6527011,-2.0,1.0,2.0,7.0,0.0,1.0,-2.0,1.0
1701719543.6527011,-1.0,0.0,13.0,1.0,1.0,1.0,0.0,0.0
1701719543.6527011,-1.0,-5.0,-5.0,9.0,0.0,-3.0,-5.0,-1.0
1701719543.6527011,-2.0,-4.0,-2.0,-4.0,-3.0,-1.0,2.0,-1.0
1701719543.6629183,0.0,-2.0,2.0,1.0,0.0,0.0,-4.0,0.0
1701719543.6629183,1.0,3.0,-4.0,-1.0,2.0,0.0,2.0,-2.0
1701719543.6827023,-1.0,-2.0,2.0,4.0,2.0,0.0,4.0,-2.0
1701719543.6827023,-3.0,2.0,-10.0,-17.0,-2.0,-1.0,-2.0,-1.0
1701719543.6827023,-5.0,-3.0,32.0,22.0,-2.0,-3.0,-3.0,-3.0
1701719543.6827023,0.0,-2.0,-3.0,-6.0,-3.0,-6.0,-14.0,-3.0
1701719543.7027113,-4.0,-2.0,-1.0,-9.0,-2.0,4.0,15.0,0.0
1701719543.7027113,-4.0,2.0,13.0,18.0,2.0,0.0,3.0,-2.0
1701719543.7127059,0.0,-8.0,-48.0,-25.0,-5.0,1.0,-2.0,0.0
1701719543.7127059,1.0,2.0,10.0,3.0,1.0,-1.0,-1.0,-2.0
1701719543.7127059,-2.0,-1.0,1.0,-4.0,0.0,-3.0,-6.0,-4.0
1701719543.7127059,1.0,-10.0,4.0,2.0,1.0,-2.0,-2.0,4.0
1701719543.7229373,-1.0,0.0,22.0,1.0,-1.0,0.0,-1.0,1.0
1701719543.7229373,-3.0,-2.0,-8.0,0.0,-3.0,-2.0,-3.0,-1.0
1701719543.7427025,2.0,4.0,-8.0,-7.0,-1.0,0.0,-6.0,0.0
1701719543.7427025,-1.0,4.0,9.0,7.0,-1.0,0.0,0.0,-2.0
1701719543.7427025,-1.0,0.0,19.0,9.0,0.0,-4.0,-3.0,-1.0
1701719543.7427025,-2.0,-3.0,-4.0,-6.0,1.0,2.0,2.0,-1.0
1701719543.7527347,0.0,1.0,-21.0,-5.0,-2.0,1.0,-2.0,-1.0
1701719543.7527347,-2.0,2.0,-3.0,3.0,1.0,4.0,-2.0,-4.0
1701719543.7627053,-1.0,0.0,5.0,-5.0,-3.0,-2.0,-1.0,0.0
1701719543.7627053,-1.0,0.0,1.0,15.0,-1.0,0.0,1.0,-1.0
1701719543.773136,-1.0,-2.0,2.0,-6.0,-1.0,-4.0,-1.0,1.0
1701719543.773136,-2.0,-3.0,18.0,8.0,-3.0,-3.0,-4.0,-1.0
1701719543.7831142,-2.0,0.0,-9.0,-11.0,0.0,-3.0,-5.0,-2.0
1701719543.7831142,-2.0,2.0,2.0,0.0,-1.0,-1.0,2.0,-1.0
1701719543.8027034,1.0,-1.0,-7.0,0.0,1.0,1.0,-1.0,0.0
1701719543.8027034,0.0,0.0,12.0,2.0,1.0,-4.0,-1.0,-2.0
1701719543.8027034,-2.0,-9.0,-19.0,-13.0,-3.0,-1.0,1.0,-3.0
1701719543.8027034,-2.0,2.0,9.0,-1.0,-1.0,-2.0,0.0,-1.0
1701719543.8227103,-1.0,-1.0,6.0,3.0,-2.0,-1.0,-3.0,-1.0
1701719543.8227103,0.0,0.0,-15.0,-6.0,-4.0,-1.0,0.0,-1.0
1701719543.8227103,0.0,2.0,15.0,9.0,1.0,-2.0,-2.0,-2.0
1701719543.8227103,0.0,-1.0,-5.0,-3.0,0.0,1.0,-2.0,-1.0
1701719543.836593,-4.0,-3.0,9.0,-2.0,-1.0,-1.0,-2.0,-2.0
1701719543.836593,0.0,0.0,6.0,2.0,1.0,-2.0,-3.0,-2.0
1701719543.844954,-5.0,-20.0,-12.0,-2.0,1.0,1.0,2.0,-1.0
1701719543.844954,-1.0,0.0,6.0,-4.0,-1.0,-2.0,0.0,1.0
1701719543.8654191,0.0,-3.0,6.0,7.0,0.0,-1.0,1.0,-1.0
1701719543.8654191,-2.0,0.0,-2.0,-7.0,-1.0,0.0,-2.0,-2.0
1701719543.8654191,0.0,2.0,-4.0,2.0,0.0,0.0,-1.0,-1.0
1701719543.8654191,-3.0,-2.0,-2.0,-3.0,-1.0,0.0,-1.0,0.0
1701719543.8754463,0.0,2.0,21.0,3.0,-2.0,-1.0,-4.0,-1.0
1701719543.8754463,-1.0,-5.0,-19.0,-11.0,-1.0,0.0,0.0,-2.0
1701719543.8754463,2.0,0.0,9.0,3.0,-2.0,-2.0,-1.0,-1.0
1701719543.8754463,-3.0,2.0,17.0,8.0,0.0,2.0,0.0,0.0
1701719543.8954453,-1.0,1.0,-2.0,-2.0,0.0,1.0,-3.0,-1.0
1701719543.8954453,2.0,-1.0,-11.0,-5.0,-2.0,-2.0,1.0,-1.0
1701719543.9154232,1.0,4.0,21.0,-2.0,0.0,-1.0,-1.0,-1.0
1701719543.9154232,-1.0,-2.0,11.0,2.0,-1.0,-4.0,-5.0,-3.0
1701719543.9154232,1.0,-2.0,-23.0,-4.0,-2.0,-3.0,0.0,-3.0
1701719543.9154232,-4.0,-7.0,-9.0,-14.0,-2.0,0.0,-4.0,-1.0
1701719543.9254203,0.0,-2.0,-25.0,-1.0,0.0,0.0,2.0,0.0
1701719543.9254203,-4.0,-4.0,-5.0,-3.0,-1.0,1.0,3.0,0.0
1701719543.9359713,4.0,1.0,-1.0,-2.0,-1.0,0.0,10.0,-2.0
1701719543.9359713,-2.0,2.0,18.0,5.0,0.0,-3.0,-3.0,-2.0
1701719543.9359713,-2.0,4.0,0.0,1.0,-2.0,-2.0,-5.0,-3.0
1701719543.9359713,-3.0,-9.0,-12.0,-4.0,0.0,1.0,-2.0,-3.0
1701719543.9659846,-2.0,1.0,-2.0,-7.0,1.0,0.0,-5.0,0.0
1701719543.9659846,-4.0,-1.0,6.0,3.0,-1.0,-3.0,0.0,-2.0
1701719543.9659846,1.0,7.0,3.0,8.0,-1.0,-1.0,-4.0,-1.0
1701719543.9659846,4.0,2.0,5.0,-1.0,-1.0,-2.0,3.0,0.0
1701719543.976209,-2.0,3.0,-8.0,-1.0,-1.0,-1.0,-3.0,0.0
1701719543.976209,-2.0,0.0,-4.0,-5.0,-2.0,0.0,1.0,1.0
1701719543.9859896,-3.0,-2.0,-19.0,-10.0,-2.0,0.0,-2.0,-1.0
1701719543.9859896,-3.0,-1.0,-2.0,-1.0,-1.0,0.0,-1.0,-2.0
1701719543.996225,-3.0,-1.0,10.0,3.0,-2.0,-1.0,0.0,-1.0
1701719543.996225,7.0,0.0,5.0,2.0,1.0,0.0,-1.0,-2.0
1701719544.0159895,2.0,6.0,7.0,-2.0,-4.0,-2.0,3.0,0.0
1701719544.0159895,-2.0,-5.0,-29.0,-6.0,-2.0,-1.0,-2.0,-1.0
1701719544.0259833,-5.0,-7.0,-5.0,-10.0,-4.0,-4.0,-2.0,-2.0
1701719544.0259833,-2.0,-2.0,-4.0,0.0,-3.0,-1.0,-1.0,0.0
1701719544.0259833,-3.0,0.0,16.0,14.0,2.0,0.0,1.0,0.0
1701719544.0259833,1.0,2.0,-24.0,-6.0,1.0,-1.0,-2.0,1.0
1701719544.036224,-2.0,0.0,4.0,1.0,-2.0,-1.0,-4.0,0.0
1701719544.036224,-5.0,0.0,-5.0,0.0,0.0,1.0,-1.0,-4.0
1701719544.045989,1.0,-3.0,-2.0,-10.0,-3.0,1.0,6.0,0.0
1701719544.045989,-1.0,-1.0,8.0,1.0,-1.0,-2.0,-2.0,1.0
1701719544.0662546,-3.0,-1.0,8.0,-1.0,0.0,-1.0,-1.0,-3.0
1701719544.0662546,1.0,-1.0,7.0,-3.0,-2.0,-2.0,-2.0,4.0
1701719544.0662546,-2.0,-2.0,-8.0,4.0,-1.0,-2.0,-5.0,-3.0
1701719544.0662546,2.0,0.0,4.0,2.0,-1.0,-2.0,-2.0,-4.0
1701719544.0959876,-3.0,0.0,-5.0,-2.0,0.0,1.0,10.0,-1.0
1701719544.0959876,-1.0,0.0,7.0,1.0,-3.0,0.0,2.0,-1.0
1701719544.0959876,-2.0,0.0,-2.0,-2.0,0.0,-2.0,-1.0,-3.0
1701719544.0959876,-1.0,0.0,8.0,-1.0,0.0,-3.0,-4.0,0.0
1701719544.0959876,2.0,-1.0,-2.0,-4.0,-1.0,-4.0,-6.0,-2.0
1701719544.0959876,-1.0,0.0,3.0,4.0,-1.0,-1.0,0.0,-1.0
1701719544.1060283,0.0,-3.0,0.0,1.0,-1.0,0.0,-1.0,0.0
1701719544.1060283,-2.0,3.0,4.0,-1.0,-3.0,-3.0,0.0,-4.0
1701719544.116294,-2.0,-2.0,-12.0,-2.0,0.0,1.0,-1.0,0.0
1701719544.116294,-3.0,0.0,7.0,0.0,-1.0,-3.0,-1.0,-1.0
1701719544.116294,-2.0,-4.0,9.0,-6.0,1.0,-1.0,-3.0,0.0
1701719544.116294,-3.0,-5.0,-1.0,2.0,1.0,0.0,-1.0,0.0
1701719544.1559856,0.0,2.0,-4.0,1.0,-1.0,-2.0,-4.0,1.0
1701719544.1559856,-1.0,-3.0,17.0,2.0,-1.0,1.0,-1.0,0.0
1701719544.1559856,0.0,2.0,-20.0,-7.0,-1.0,-2.0,-1.0,-1.0
1701719544.1559856,-3.0,0.0,11.0,-4.0,-4.0,-1.0,2.0,0.0
1701719544.1559856,-2.0,-4.0,-41.0,-3.0,1.0,-1.0,-1.0,1.0
1701719544.1559856,0.0,-2.0,18.0,3.0,2.0,2.0,-1.0,-2.0
1701719544.1662962,0.0,1.0,5.0,4.0,-1.0,0.0,-2.0,0.0
1701719544.1662962,-1.0,-1.0,7.0,0.0,-3.0,1.0,1.0,0.0
1701719544.1821437,-1.0,-6.0,6.0,-2.0,-3.0,0.0,-4.0,0.0
1701719544.1821437,1.0,4.0,-18.0,-3.0,0.0,0.0,-3.0,-2.0
1701719544.1831489,-3.0,-3.0,-19.0,-3.0,1.0,-1.0,1.0,-1.0
1701719544.1831489,-1.0,1.0,19.0,5.0,-2.0,-2.0,-3.0,-2.0
1701719544.2045093,-1.0,-3.0,2.0,1.0,-1.0,-2.0,-1.0,-2.0
1701719544.2045093,-1.0,-2.0,-10.0,0.0,-1.0,-2.0,-1.0,-2.0
1701719544.2054791,-3.0,-3.0,-11.0,-5.0,-1.0,1.0,0.0,1.0
1701719544.2054791,-2.0,-7.0,-11.0,-3.0,-1.0,0.0,-2.0,0.0
1701719544.220003,0.0,4.0,2.0,0.0,-2.0,-2.0,-2.0,1.0
1701719544.220003,-2.0,-2.0,-12.0,-1.0,-1.0,-2.0,-1.0,-2.0
1701719544.2270062,-4.0,-11.0,8.0,2.0,-2.0,-1.0,-2.0,-2.0
1701719544.2270062,-2.0,-3.0,-9.0,-3.0,2.0,0.0,0.0,-2.0
1701719544.2446113,0.0,-3.0,11.0,2.0,1.0,0.0,0.0,-3.0
1701719544.2446113,-1.0,-1.0,-9.0,-2.0,-1.0,-1.0,1.0,-3.0
1701719544.2446113,0.0,0.0,1.0,0.0,-1.0,-2.0,-1.0,-1.0
1701719544.2446113,-1.0,1.0,4.0,0.0,0.0,-2.0,-1.0,0.0
1701719544.2646592,-2.0,-3.0,-10.0,-4.0,-4.0,-1.0,-3.0,0.0
1701719544.2646592,2.0,-2.0,-2.0,-3.0,1.0,-2.0,0.0,0.0
1701719544.2659254,-2.0,3.0,10.0,5.0,-1.0,-1.0,-2.0,-1.0
1701719544.2659254,-1.0,-2.0,7.0,-5.0,0.0,0.0,1.0,0.0
1701719544.2780082,-1.0,-1.0,-16.0,-2.0,-1.0,-1.0,-2.0,-2.0
1701719544.2780082,0.0,2.0,14.0,16.0,0.0,-2.0,-1.0,-1.0
1701719544.286926,-3.0,-3.0,12.0,-6.0,-3.0,-3.0,-1.0,-1.0
1701719544.286926,-6.0,-4.0,-27.0,-7.0,-2.0,-2.0,-1.0,-2.0
1701719544.3090868,1.0,2.0,0.0,-1.0,-1.0,-2.0,-1.0,-2.0
1701719544.3090868,-4.0,-2.0,-10.0,-9.0,-2.0,0.0,1.0,-1.0
1701719544.3109252,1.0,-1.0,3.0,2.0,0.0,-1.0,0.0,-1.0
1701719544.3109252,-3.0,1.0,-4.0,1.0,-2.0,-1.0,-1.0,0.0
1701719544.3238363,-1.0,-1.0,5.0,-2.0,2.0,-1.0,-1.0,-2.0
1701719544.3238363,-2.0,0.0,3.0,-1.0,0.0,1.0,-1.0,0.0
1701719544.3258965,-3.0,2.0,-2.0,-1.0,0.0,1.0,-1.0,-2.0
1701719544.3258965,2.0,-1.0,-9.0,-4.0,-2.0,-1.0,-1.0,-2.0
1701719544.3381548,-2.0,-1.0,2.0,5.0,-1.0,-1.0,-2.0,-2.0
1701719544.3381548,0.0,4.0,6.0,-2.0,-2.0,-1.0,1.0,0.0
1701719544.3471675,-1.0,1.0,-3.0,-4.0,-1.0,-1.0,-2.0,0.0
1701719544.3471675,-1.0,1.0,-4.0,0.0,0.0,-1.0,-3.0,0.0
1701719544.3618314,-1.0,-1.0,2.0,-5.0,0.0,0.0,-1.0,1.0
1701719544.3618314,-2.0,-2.0,12.0,1.0,-2.0,0.0,-1.0,0.0
1701719544.3638427,-2.0,-2.0,-24.0,-2.0,-1.0,-1.0,-1.0,-1.0
1701719544.3638427,1.0,0.0,13.0,2.0,0.0,-1.0,1.0,-1.0
1701719544.3819804,-2.0,-2.0,15.0,6.0,-1.0,-1.0,0.0,-1.0
1701719544.3819804,-2.0,-3.0,-12.0,-7.0,0.0,-2.0,-2.0,-1.0
1701719544.3819804,-2.0,1.0,-5.0,-2.0,0.0,0.0,-1.0,1.0
1701719544.3819804,-1.0,2.0,23.0,7.0,-1.0,0.0,-1.0,-1.0
1701719544.392332,-3.0,0.0,-23.0,-3.0,-1.0,-1.0,0.0,-1.0
1701719544.392332,9.0,-5.0,-15.0,-4.0,-2.0,-1.0,0.0,-2.0
1701719544.4019837,-10.0,0.0,5.0,-1.0,-2.0,-1.0,-1.0,-1.0
1701719544.4019837,1.0,0.0,-7.0,-6.0,-1.0,-1.0,-2.0,-2.0
1701719544.4119818,-1.0,0.0,14.0,3.0,1.0,-1.0,0.0,1.0
1701719544.4119818,-2.0,3.0,-4.0,-2.0,-2.0,-3.0,-1.0,-1.0
1701719544.4219813,3.0,3.0,6.0,4.0,-2.0,-1.0,-2.0,0.0
1701719544.4219813,-3.0,-1.0,-22.0,-6.0,-2.0,-1.0,2.0,-1.0
1701719544.4423952,-2.0,-3.0,1.0,2.0,-2.0,-1.0,-1.0,-1.0
1701719544.4423952,-3.0,-3.0,-6.0,-3.0,-1.0,-1.0,0.0,-1.0
1701719544.4423952,1.0,-4.0,6.0,-4.0,0.0,0.0,0.0,-2.0
1701719544.4423952,-1.0,-1.0,-6.0,0.0,-1.0,-2.0,-1.0,-1.0
1701719544.4520576,1.0,0.0,2.0,-3.0,-2.0,1.0,-1.0,-1.0
1701719544.4520576,-4.0,-1.0,-2.0,-1.0,0.0,-1.0,-3.0,1.0
1701719544.4719808,2.0,4.0,5.0,-2.0,1.0,-2.0,-1.0,-2.0
1701719544.4719808,1.0,-3.0,13.0,3.0,-1.0,0.0,-2.0,-1.0
1701719544.4820485,-1.0,-4.0,-11.0,-4.0,-1.0,-1.0,0.0,-1.0
1701719544.4820485,-2.0,-3.0,-7.0,-1.0,0.0,-1.0,-2.0,-1.0
1701719544.4820485,0.0,-2.0,-4.0,0.0,-1.0,0.0,-1.0,-1.0
1701719544.4820485,-1.0,-1.0,1.0,2.0,-1.0,-3.0,-1.0,-2.0
1701719544.5022619,0.0,0.0,8.0,0.0,-2.0,-1.0,0.0,-1.0
1701719544.5022619,-4.0,-1.0,-1.0,-2.0,-2.0,0.0,-2.0,-1.0
1701719544.5022619,0.0,-1.0,-5.0,-1.0,-1.0,1.0,-1.0,0.0
1701719544.5022619,-1.0,-1.0,-4.0,-4.0,-1.0,-1.0,-1.0,1.0
1701719544.5121787,5.0,2.0,11.0,-5.0,-1.0,-1.0,-1.0,0.0
1701719544.5121787,-9.0,-4.0,-12.0,2.0,-1.0,-1.0,0.0,-2.0
1701719544.5519795,3.0,-3.0,9.0,6.0,-2.0,-3.0,0.0,-2.0
1701719544.5519795,-2.0,2.0,-2.0,-1.0,-2.0,0.0,-1.0,0.0
1701719544.5519795,-1.0,3.0,1.0,3.0,0.0,-1.0,-2.0,-1.0
1701719544.5519795,3.0,2.0,-3.0,-9.0,-2.0,0.0,-1.0,-1.0
1701719544.5519795,-4.0,-2.0,-9.0,-4.0,1.0,-1.0,-1.0,0.0
1701719544.5519795,-3.0,0.0,1.0,0.0,0.0,-1.0,0.0,-2.0
1701719544.5622349,-2.0,0.0,-1.0,-2.0,-2.0,-3.0,-1.0,-2.0
1701719544.5622349,-2.0,-3.0,-4.0,-1.0,-1.0,-1.0,1.0,-1.0
1701719544.5622349,-2.0,-1.0,2.0,-2.0,-2.0,-1.0,-1.0,-1.0
1701719544.5622349,1.0,-1.0,-6.0,-2.0,-1.0,1.0,0.0,1.0
1701719544.5919833,-1.0,1.0,2.0,1.0,-1.0,1.0,-4.0,-2.0
1701719544.5919833,0.0,3.0,1.0,1.0,-2.0,-2.0,-1.0,-2.0
1701719544.5919833,0.0,-2.0,-2.0,-2.0,-2.0,-2.0,0.0,-1.0
1701719544.5919833,0.0,-4.0,-4.0,1.0,-1.0,-2.0,-1.0,-1.0
1701719544.601982,-1.0,0.0,-2.0,-5.0,-1.0,0.0,0.0,2.0
1701719544.601982,-1.0,-3.0,11.0,10.0,1.0,0.0,0.0,0.0
1701719544.601982,3.0,4.0,-8.0,-4.0,-2.0,-2.0,-1.0,-1.0
1701719544.601982,-2.0,-3.0,-8.0,-2.0,1.0,0.0,-3.0,-3.0
1701719544.621992,4.0,-4.0,10.0,-1.0,0.0,0.0,0.0,-1.0
1701719544.621992,-6.0,-3.0,0.0,-3.0,-1.0,-4.0,-1.0,-2.0
1701719544.621992,-3.0,-1.0,8.0,0.0,0.0,0.0,1.0,-1.0
1701719544.621992,-2.0,1.0,-12.0,-2.0,-1.0,-1.0,-1.0,-1.0
1701719544.6419818,-5.0,-8.0,8.0,3.0,0.0,0.0,0.0,-1.0
1701719544.6419818,1.0,-1.0,4.0,1.0,0.0,0.0,-3.0,-2.0
1701719544.6419818,1.0,2.0,-15.0,1.0,0.0,-2.0,-2.0,-1.0
1701719544.6419818,-1.0,-2.0,-23.0,-13.0,-3.0,-3.0,-2.0,-3.0
1701719544.6619813,-4.0,-2.0,-10.0,-2.0,0.0,-1.0,1.0,1.0
1701719544.6619813,-1.0,0.0,13.0,0.0,-2.0,-1.0,-1.0,0.0
1701719544.6619813,-4.0,-3.0,-4.0,-1.0,1.0,0.0,-1.0,0.0
1701719544.6619813,0.0,1.0,11.0,0.0,-1.0,-2.0,-1.0,-2.0
1701719544.69198,0.0,0.0,-4.0,1.0,0.0,-1.0,-1.0,0.0
1701719544.69198,-2.0,0.0,-9.0,-7.0,-2.0,-1.0,-1.0,-1.0
1701719544.69198,1.0,0.0,-1.0,0.0,-1.0,-1.0,-2.0,0.0
1701719544.69198,-1.0,0.0,19.0,13.0,0.0,0.0,-1.0,-1.0
1701719544.69198,-6.0,-1.0,13.0,1.0,-2.0,-1.0,-1.0,-2.0
1701719544.69198,0.0,-5.0,-11.0,-6.0,-3.0,-2.0,-1.0,-3.0
1701719544.7023246,2.0,-2.0,-3.0,-1.0,-1.0,0.0,-2.0,-1.0
1701719544.7023246,-9.0,0.0,9.0,7.0,0.0,-3.0,0.0,-3.0
1701719544.7216344,-1.0,0.0,-4.0,-6.0,-2.0,-1.0,-1.0,-2.0
1701719544.7216344,-1.0,-2.0,-17.0,0.0,0.0,1.0,-1.0,0.0
1701719544.723677,-1.0,1.0,26.0,0.0,-2.0,-2.0,-3.0,-2.0
1701719544.723677,1.0,6.0,-32.0,-10.0,-1.0,-1.0,-2.0,1.0
1701719544.7474024,0.0,1.0,-12.0,-4.0,0.0,-2.0,0.0,-1.0
1701719544.7484047,-3.0,-4.0,-1.0,-4.0,-1.0,-1.0,0.0,-1.0
1701719544.7484047,-4.0,-2.0,5.0,3.0,-1.0,-1.0,0.0,0.0
1701719544.7484047,1.0,-2.0,8.0,2.0,1.0,0.0,-1.0,1.0
1701719544.7586348,-1.0,-1.0,-4.0,-3.0,-3.0,-2.0,-1.0,-1.0
1701719544.7586348,2.0,3.0,2.0,1.0,1.0,-2.0,-1.0,0.0
1701719544.7675064,-1.0,-4.0,0.0,0.0,-2.0,0.0,0.0,-2.0
1701719544.7675064,-1.0,-4.0,-9.0,-4.0,-1.0,-1.0,0.0,0.0
1701719544.781852,-2.0,-1.0,-9.0,-2.0,-3.0,-1.0,0.0,-2.0
1701719544.7828496,-2.0,0.0,6.0,1.0,0.0,-1.0,-1.0,-1.0
1701719544.7858539,-1.0,-1.0,9.0,0.0,0.0,0.0,1.0,-2.0
1701719544.7858539,-3.0,-7.0,-7.0,-2.0,-2.0,0.0,-1.0,-1.0
1701719544.812544,-3.0,-2.0,3.0,3.0,1.0,-1.0,-2.0,0.0
1701719544.812544,-1.0,0.0,-2.0,2.0,1.0,-3.0,-2.0,0.0
1701719544.812544,2.0,0.0,-7.0,-10.0,-1.0,-1.0,-1.0,-1.0
1701719544.812544,-6.0,1.0,18.0,6.0,0.0,0.0,-1.0,1.0
1701719544.8179636,-3.0,2.0,8.0,7.0,-1.0,-2.0,-1.0,0.0
1701719544.8179636,4.0,-2.0,-38.0,-9.0,-1.0,0.0,0.0,0.0
1701719544.82698,-5.0,-4.0,26.0,3.0,-2.0,-2.0,-2.0,0.0
1701719544.82698,3.0,-2.0,-10.0,-7.0,0.0,0.0,-1.0,-2.0
1701719544.841479,-2.0,-2.0,8.0,2.0,0.0,-3.0,-2.0,0.0
1701719544.841479,3.0,7.0,4.0,2.0,-1.0,-2.0,-1.0,-2.0
1701719544.855595,1.0,-2.0,-20.0,-4.0,1.0,0.0,0.0,0.0
1701719544.855595,0.0,-3.0,-1.0,-4.0,0.0,-2.0,1.0,0.0
1701719544.8655531,-1.0,-5.0,3.0,0.0,-1.0,0.0,0.0,-1.0
1701719544.8655531,-2.0,-1.0,3.0,-2.0,-2.0,0.0,-1.0,-2.0
1701719544.8655531,-3.0,-2.0,-6.0,2.0,-2.0,0.0,0.0,0.0
1701719544.8655531,2.0,1.0,10.0,2.0,0.0,0.0,0.0,-1.0
1701719544.886776,-1.0,1.0,-13.0,-6.0,0.0,-1.0,-1.0,-1.0
1701719544.886776,-1.0,-3.0,11.0,1.0,0.0,-2.0,-2.0,-1.0
1701719544.888529,-1.0,-1.0,-5.0,-2.0,0.0,-2.0,-3.0,0.0
1701719544.888529,-4.0,-3.0,-6.0,-3.0,0.0,-1.0,-1.0,-2.0
1701719544.9017107,0.0,-1.0,-6.0,-3.0,-1.0,-1.0,-1.0,0.0
1701719544.9024897,-1.0,-2.0,-11.0,-3.0,0.0,0.0,-1.0,1.0
1701719544.911206,-2.0,1.0,15.0,2.0,-3.0,-3.0,-1.0,-3.0
1701719544.912206,-2.0,4.0,-1.0,-2.0,0.0,-2.0,-1.0,-3.0
1701719544.9245813,3.0,2.0,3.0,3.0,-2.0,-1.0,0.0,-2.0
1701719544.925603,-2.0,1.0,2.0,1.0,-2.0,-1.0,1.0,0.0
1701719544.9265985,0.0,-4.0,-44.0,-15.0,-1.0,-2.0,0.0,0.0
1701719544.9265985,1.0,-2.0,12.0,8.0,-1.0,-1.0,-2.0,-1.0
1701719544.9479067,-2.0,1.0,24.0,7.0,0.0,-1.0,-2.0,-1.0
1701719544.9479067,-5.0,-2.0,-8.0,-4.0,-1.0,-2.0,-3.0,-1.0
1701719544.9499018,0.0,-1.0,3.0,0.0,-1.0,0.0,-1.0,1.0
1701719544.9499018,0.0,-5.0,-9.0,-10.0,-3.0,-2.0,-4.0,1.0
1701719544.963898,-1.0,-1.0,-5.0,-2.0,0.0,-2.0,-2.0,-1.0
1701719544.963898,7.0,-1.0,21.0,-4.0,-1.0,0.0,1.0,-2.0
1701719544.963898,-3.0,-3.0,-10.0,-4.0,0.0,-1.0,-2.0,-1.0
1701719544.963898,-1.0,-2.0,4.0,-2.0,-1.0,-1.0,0.0,-2.0
1701719545.0027149,-3.0,1.0,-12.0,0.0,-1.0,-2.0,0.0,-3.0
1701719545.0027149,-1.0,1.0,7.0,3.0,-3.0,2.0,-1.0,1.0
1701719545.0027149,-1.0,-2.0,-11.0,-1.0,-1.0,1.0,0.0,-1.0
1701719545.0027149,-2.0,0.0,6.0,-2.0,-2.0,0.0,0.0,1.0
1701719545.006606,-3.0,-1.0,-2.0,-2.0,-1.0,-2.0,-2.0,-1.0
1701719545.006606,-2.0,0.0,-3.0,-1.0,-2.0,-1.0,-1.0,-1.0
1701719545.0085053,-2.0,1.0,1.0,2.0,0.0,0.0,-3.0,0.0
1701719545.0085053,0.0,2.0,-3.0,2.0,1.0,0.0,0.0,-3.0
1701719545.021515,5.0,-1.0,-5.0,-7.0,-3.0,0.0,-1.0,-1.0
1701719545.021515,-9.0,0.0,-5.0,0.0,-2.0,-3.0,-2.0,0.0
1701719545.031862,0.0,-1.0,6.0,3.0,0.0,-1.0,-3.0,-1.0
1701719545.031862,0.0,-2.0,3.0,-1.0,0.0,0.0,-1.0,0.0
1701719545.0445962,-2.0,-7.0,-10.0,-1.0,-3.0,-2.0,0.0,-3.0
1701719545.0445962,6.0,-1.0,-2.0,-1.0,-1.0,0.0,-2.0,-2.0
1701719545.0459788,0.0,-2.0,-1.0,1.0,1.0,0.0,0.0,-2.0
1701719545.0459788,0.0,-2.0,-11.0,-9.0,-2.0,0.0,-2.0,1.0
1701719545.0666533,-2.0,-2.0,14.0,12.0,1.0,1.0,-2.0,-1.0
1701719545.067477,-3.0,-3.0,4.0,2.0,0.0,-2.0,-1.0,-1.0
1701719545.075762,-1.0,1.0,4.0,2.0,-4.0,0.0,-2.0,-2.0
1701719545.075762,-1.0,0.0,-16.0,-14.0,-3.0,0.0,-1.0,-1.0
1701719545.0807738,-5.0,2.0,-15.0,-2.0,0.0,-1.0,1.0,1.0
1701719545.0807738,1.0,-1.0,16.0,1.0,0.0,0.0,-2.0,-1.0
1701719545.08805,1.0,-1.0,-9.0,3.0,0.0,-1.0,1.0,0.0
1701719545.08805,-1.0,-1.0,2.0,1.0,-1.0,0.0,-2.0,-1.0
1701719545.104743,-2.0,-2.0,-7.0,-8.0,-2.0,0.0,-1.0,0.0
1701719545.104743,-2.0,-2.0,1.0,2.0,-2.0,1.0,-1.0,-1.0
1701719545.105973,1.0,-4.0,2.0,-5.0,-2.0,0.0,-2.0,0.0
1701719545.105973,-2.0,0.0,1.0,3.0,0.0,-2.0,-2.0,-1.0
1701719545.127411,-1.0,-1.0,-8.0,-6.0,-2.0,-1.0,-2.0,-1.0
1701719545.127411,0.0,1.0,0.0,2.0,1.0,-1.0,-1.0,-1.0
1701719545.1354048,-2.0,1.0,3.0,-2.0,-1.0,-2.0,-2.0,0.0
1701719545.1354048,-2.0,0.0,0.0,2.0,-1.0,-2.0,1.0,-1.0
1701719545.1411314,1.0,-1.0,7.0,-1.0,-2.0,-2.0,1.0,-1.0
1701719545.1411314,-2.0,-3.0,-9.0,-6.0,0.0,-1.0,-1.0,0.0
1701719545.1483843,-1.0,-1.0,3.0,1.0,0.0,0.0,-1.0,-1.0
1701719545.1483843,0.0,-2.0,4.0,4.0,0.0,-1.0,0.0,-3.0
1701719545.1644416,1.0,-1.0,-12.0,-7.0,-3.0,0.0,-2.0,-1.0
1701719545.1644416,-4.0,-3.0,-5.0,-9.0,-3.0,-3.0,0.0,-2.0
1701719545.1654556,-4.0,2.0,17.0,12.0,-1.0,-1.0,-2.0,-2.0
1701719545.1654556,0.0,-2.0,-15.0,0.0,1.0,1.0,-2.0,1.0
1701719545.1872275,-2.0,-1.0,15.0,1.0,-1.0,1.0,0.0,-2.0
1701719545.1872275,-1.0,-4.0,-17.0,-3.0,-1.0,-1.0,-1.0,0.0
1701719545.1962469,1.0,-3.0,-6.0,-6.0,0.0,-1.0,0.0,-2.0
1701719545.1972234,-4.0,-7.0,7.0,2.0,-2.0,-2.0,0.0,-1.0
1701719545.2012467,1.0,1.0,-10.0,-6.0,-2.0,-3.0,-2.0,0.0
1701719545.2012467,7.0,0.0,2.0,0.0,-1.0,-1.0,0.0,1.0
1701719545.2078543,-2.0,0.0,1.0,3.0,-2.0,-2.0,-2.0,-2.0
1701719545.2078543,1.0,-1.0,5.0,1.0,-2.0,-2.0,-1.0,0.0
1701719545.2243059,0.0,0.0,-6.0,-5.0,1.0,-2.0,-1.0,-1.0
1701719545.2243059,-2.0,1.0,-1.0,3.0,-1.0,-2.0,-1.0,-1.0
1701719545.2260919,-1.0,-2.0,4.0,-2.0,0.0,-2.0,0.0,-1.0
1701719545.2260919,0.0,0.0,3.0,0.0,0.0,0.0,-2.0,-2.0
1701719545.2477148,-3.0,-3.0,-3.0,-1.0,-2.0,0.0,-1.0,-1.0
1701719545.2477148,-3.0,-1.0,-5.0,-4.0,-2.0,-1.0,-1.0,0.0
1701719545.2567081,-1.0,-5.0,-2.0,-5.0,-1.0,0.0,1.0,1.0
1701719545.2577083,-2.0,-1.0,-1.0,5.0,-1.0,-2.0,-1.0,0.0
1701719545.2611325,0.0,-1.0,-6.0,0.0,-1.0,-1.0,-1.0,-1.0
1701719545.2611325,0.0,0.0,-3.0,2.0,-1.0,-1.0,-1.0,-1.0
1701719545.2682571,-5.0,0.0,5.0,-3.0,-3.0,-2.0,-1.0,-1.0
1701719545.2682571,-4.0,3.0,7.0,-2.0,1.0,-1.0,1.0,-2.0
1701719545.2845721,-1.0,-1.0,-2.0,-3.0,-1.0,-1.0,-2.0,-2.0
1701719545.2845721,-1.0,-3.0,2.0,6.0,-1.0,-1.0,0.0,-1.0
1701719545.285874,1.0,-1.0,-5.0,-1.0,0.0,0.0,1.0,-1.0
1701719545.285874,0.0,-1.0,3.0,2.0,-2.0,-1.0,-1.0,0.0
1701719545.3066077,-2.0,-3.0,-18.0,-6.0,-3.0,-2.0,-1.0,1.0
1701719545.3066077,-2.0,-2.0,-5.0,-5.0,-1.0,1.0,-2.0,-1.0
1701719545.3082395,0.0,2.0,5.0,-1.0,-2.0,0.0,-1.0,0.0
1701719545.3082395,-2.0,2.0,7.0,1.0,0.0,-2.0,-1.0,-2.0
1701719545.321517,4.0,-1.0,1.0,-1.0,0.0,0.0,0.0,-1.0
1701719545.321517,-2.0,0.0,1.0,-1.0,-2.0,-1.0,-1.0,-1.0
1701719545.3278315,-1.0,-1.0,-14.0,-2.0,-1.0,-1.0,1.0,0.0
1701719545.3278315,-1.0,-3.0,-1.0,-1.0,-2.0,-1.0,-1.0,-1.0
1701719545.3445678,-3.0,-1.0,5.0,6.0,0.0,-1.0,-2.0,0.0
1701719545.3445678,0.0,0.0,10.0,-4.0,0.0,-1.0,-1.0,0.0
1701719545.3465655,1.0,-1.0,-13.0,-7.0,-2.0,-1.0,0.0,-1.0
1701719545.3465655,1.0,-1.0,-4.0,-9.0,-2.0,0.0,-1.0,0.0
1701719545.3666446,-2.0,0.0,18.0,8.0,0.0,2.0,-1.0,-1.0
1701719545.3666446,-1.0,-2.0,-2.0,8.0,0.0,-1.0,-2.0,-2.0
1701719545.3685215,-4.0,-2.0,-5.0,0.0,1.0,0.0,-1.0,-3.0
1701719545.3685215,0.0,-1.0,-18.0,-2.0,-1.0,0.0,-1.0,-1.0
1701719545.3810925,0.0,0.0,18.0,2.0,-1.0,-2.0,0.0,0.0
1701719545.3810925,-2.0,-2.0,-4.0,-4.0,-2.0,-2.0,-1.0,-1.0
1701719545.3889942,1.0,-1.0,-6.0,-4.0,-2.0,-2.0,1.0,-1.0
1701719545.3889942,-2.0,-2.0,-3.0,-1.0,-2.0,-2.0,-1.0,-2.0
1701719545.4105756,-1.0,0.0,-2.0,0.0,-3.0,-1.0,1.0,0.0
1701719545.4105756,0.0,1.0,-2.0,-3.0,0.0,-1.0,0.0,-3.0
1701719545.4145784,0.0,-2.0,-1.0,-2.0,-1.0,-2.0,-3.0,0.0
1701719545.4145784,0.0,-1.0,2.0,1.0,0.0,-1.0,-1.0,-1.0
1701719545.4270604,-1.0,-3.0,-7.0,-9.0,1.0,-2.0,-2.0,1.0
1701719545.4270604,-1.0,0.0,4.0,1.0,-2.0,-1.0,0.0,0.0
1701719545.4290597,0.0,0.0,-1.0,-1.0,0.0,-1.0,-2.0,0.0
1701719545.4290597,-2.0,0.0,9.0,3.0,-1.0,-2.0,-1.0,-2.0
1701719545.4402199,0.0,0.0,-3.0,-3.0,-2.0,0.0,-3.0,-1.0
1701719545.4402199,-2.0,-3.0,-6.0,-4.0,-2.0,0.0,-1.0,-1.0
1701719545.4558408,-1.0,-2.0,2.0,-1.0,-1.0,-2.0,-2.0,-2.0
1701719545.4558408,-1.0,0.0,0.0,-1.0,-2.0,-1.0,-1.0,0.0
1701719545.4639482,-1.0,-1.0,-2.0,1.0,-1.0,-1.0,0.0,-2.0
1701719545.4639482,1.0,0.0,1.0,-9.0,0.0,0.0,-2.0,-1.0
1701719545.4659252,-2.0,1.0,5.0,1.0,0.0,-2.0,-1.0,1.0
1701719545.4659252,-1.0,0.0,4.0,-2.0,-1.0,-1.0,-2.0,-1.0
1701719545.4866107,-1.0,-3.0,-12.0,0.0,0.0,-1.0,-1.0,-3.0
1701719545.4876602,-3.0,-2.0,-1.0,0.0,0.0,-1.0,-1.0,1.0
1701719545.4887042,0.0,-1.0,-4.0,0.0,-1.0,-1.0,0.0,-2.0
1701719545.4887042,0.0,-3.0,-4.0,-3.0,-3.0,-2.0,0.0,-1.0
1701719545.500583,-2.0,-2.0,0.0,2.0,1.0,-1.0,-3.0,-1.0
1701719545.500583,0.0,-1.0,0.0,5.0,-2.0,-2.0,0.0,-2.0
1701719545.509589,-3.0,-2.0,-2.0,-10.0,-1.0,0.0,0.0,0.0
1701719545.509589,-4.0,0.0,-4.0,-2.0,-2.0,-1.0,0.0,0.0
1701719545.5339022,-2.0,-1.0,-1.0,-2.0,-2.0,-2.0,-1.0,-1.0
1701719545.5339022,-1.0,-1.0,-5.0,0.0,-1.0,-1.0,-3.0,-2.0
1701719545.5339022,-3.0,-2.0,4.0,3.0,-1.0,-1.0,-2.0,0.0
1701719545.5339022,-1.0,-2.0,-10.0,-6.0,-2.0,-1.0,-2.0,0.0
1701719545.5480254,0.0,-1.0,2.0,6.0,2.0,0.0,1.0,0.0
1701719545.5480254,-2.0,0.0,-2.0,0.0,-1.0,-2.0,-1.0,-2.0
1701719545.5490687,0.0,0.0,-1.0,3.0,0.0,-1.0,0.0,-1.0
1701719545.5490687,1.0,-2.0,-3.0,-3.0,-1.0,0.0,-1.0,0.0
1701719545.5611386,-1.0,-2.0,-1.0,-4.0,-3.0,1.0,-1.0,1.0
1701719545.5611386,0.0,-1.0,-2.0,1.0,0.0,0.0,1.0,-1.0
1701719545.5773354,0.0,-1.0,-6.0,-3.0,-2.0,-2.0,-2.0,-4.0
1701719545.5773354,-2.0,-1.0,-1.0,2.0,1.0,-2.0,-1.0,-1.0
1701719545.5904825,0.0,-1.0,-1.0,-3.0,0.0,-2.0,1.0,-2.0
1701719545.5904825,-1.0,0.0,11.0,0.0,-1.0,1.0,0.0,1.0
1701719545.5904825,0.0,-2.0,-6.0,-1.0,-2.0,-2.0,-3.0,-1.0
1701719545.5904825,-1.0,-1.0,7.0,2.0,-1.0,0.0,-2.0,0.0
1701719545.600508,-2.0,-1.0,-2.0,-3.0,-4.0,-2.0,-3.0,-1.0
1701719545.600508,-2.0,-2.0,0.0,-3.0,0.0,-1.0,1.0,0.0
1701719545.600508,-2.0,-2.0,-6.0,-2.0,-3.0,-1.0,0.0,0.0
1701719545.600508,-1.0,1.0,1.0,0.0,0.0,0.0,0.0,-1.0
1701719545.620908,-1.0,-1.0,-7.0,-1.0,-1.0,-1.0,-1.0,0.0
1701719545.620908,-2.0,-2.0,2.0,-1.0,-1.0,-2.0,-1.0,-1.0
1701719545.620908,-1.0,-2.0,-3.0,0.0,0.0,1.0,-1.0,-1.0
1701719545.620908,1.0,-3.0,0.0,-1.0,0.0,-2.0,-1.0,-2.0
1701719545.6409106,-1.0,2.0,5.0,-1.0,-1.0,0.0,0.0,-1.0
1701719545.6409106,-2.0,-2.0,-3.0,0.0,-2.0,-1.0,-1.0,-1.0
1701719545.6409106,0.0,1.0,5.0,1.0,0.0,-1.0,-2.0,-1.0
1701719545.6409106,0.0,0.0,-1.0,-4.0,-2.0,-2.0,-1.0,-2.0
1701719545.6612022,-1.0,1.0,1.0,-1.0,0.0,-1.0,0.0,0.0
1701719545.6612022,-2.0,1.0,-1.0,-2.0,-1.0,-3.0,-1.0,2.0
1701719545.6612022,-1.0,-4.0,0.0,-3.0,-2.0,-1.0,-1.0,0.0
1701719545.6612022,-2.0,-1.0,2.0,0.0,0.0,-2.0,-2.0,-2.0
1701719545.6809084,-2.0,-2.0,2.0,-1.0,-3.0,-1.0,-1.0,-3.0
1701719545.6809084,0.0,-2.0,-3.0,-2.0,-1.0,-1.0,-1.0,-2.0
1701719545.6909065,-1.0,0.0,-3.0,0.0,-1.0,-1.0,0.0,0.0
1701719545.6909065,0.0,-1.0,-6.0,-1.0,0.0,0.0,-3.0,0.0
1701719545.7011213,1.0,-2.0,-2.0,-2.0,1.0,-2.0,-1.0,0.0
1701719545.7011213,-1.0,0.0,1.0,0.0,-1.0,-2.0,-1.0,-1.0
1701719545.7011213,-1.0,-1.0,-7.0,-4.0,-2.0,0.0,-2.0,-1.0
1701719545.7011213,-1.0,-1.0,5.0,1.0,-2.0,-1.0,-1.0,-2.0
1701719545.7212126,-3.0,-2.0,-2.0,-1.0,-2.0,-1.0,0.0,-1.0
1701719545.7212126,0.0,-1.0,-3.0,-2.0,-1.0,0.0,-2.0,0.0
1701719545.7212126,0.0,0.0,1.0,2.0,0.0,0.0,-2.0,0.0
1701719545.7212126,-1.0,-1.0,-13.0,-4.0,-2.0,-2.0,-2.0,1.0
1701719545.7409155,-1.0,0.0,-2.0,-2.0,-1.0,0.0,0.0,-3.0
1701719545.7409155,-2.0,-2.0,0.0,0.0,0.0,-2.0,-4.0,-2.0
1701719545.7709084,-2.0,-2.0,-2.0,-2.0,-3.0,-3.0,0.0,-1.0
1701719545.7709084,-1.0,-1.0,-1.0,-1.0,0.0,-1.0,-2.0,0.0
1701719545.7709084,-1.0,-1.0,-1.0,-3.0,0.0,-1.0,0.0,1.0
1701719545.7709084,-1.0,-4.0,0.0,0.0,-1.0,-1.0,0.0,-1.0
1701719545.7709084,-1.0,0.0,-2.0,-1.0,0.0,1.0,0.0,-2.0
1701719545.7709084,-1.0,-2.0,6.0,1.0,-1.0,-1.0,1.0,-3.0
1701719545.7812626,-3.0,-1.0,-5.0,-3.0,-1.0,-2.0,-1.0,-1.0
1701719545.7812626,0.0,0.0,-6.0,-2.0,-1.0,0.0,-4.0,0.0
1701719545.7909067,-3.0,-1.0,3.0,-1.0,0.0,0.0,-1.0,0.0
1701719545.7909067,-1.0,0.0,-4.0,-2.0,-1.0,0.0,0.0,-2.0
1701719545.8009093,-1.0,0.0,2.0,1.0,1.0,-1.0,0.0,-2.0
1701719545.8009093,-3.0,-2.0,2.0,0.0,-3.0,-1.0,0.0,-1.0
1701719545.8109071,0.0,-1.0,-1.0,2.0,-1.0,-1.0,0.0,-2.0
1701719545.8109071,0.0,-1.0,1.0,-1.0,0.0,0.0,-1.0,-2.0
1701719545.8211162,-2.0,-3.0,0.0,-1.0,-1.0,-2.0,-3.0,0.0
1701719545.8211162,-2.0,1.0,0.0,-1.0,-1.0,0.0,-2.0,-3.0
1701719545.8211162,-2.0,1.0,2.0,-1.0,-2.0,-3.0,-3.0,-2.0
1701719545.8211162,-2.0,1.0,-4.0,-3.0,-1.0,-1.0,1.0,0.0
1701719545.84115,0.0,-1.0,-3.0,0.0,-2.0,-1.0,-2.0,0.0
1701719545.84115,-2.0,-4.0,-3.0,-1.0,-2.0,-2.0,-1.0,-1.0
1701719545.84115,0.0,-2.0,2.0,-1.0,-1.0,-1.0,0.0,0.0
1701719545.84115,-1.0,-1.0,-2.0,0.0,-1.0,0.0,-1.0,-2.0
1701719545.8809078,-2.0,0.0,-2.0,-2.0,-1.0,1.0,-2.0,-1.0
1701719545.8809078,-1.0,0.0,-6.0,1.0,1.0,0.0,-1.0,-4.0
1701719545.8809078,0.0,-3.0,-6.0,-5.0,-2.0,-2.0,-1.0,-2.0
1701719545.8809078,-2.0,-3.0,8.0,1.0,-3.0,-3.0,-1.0,-1.0
1701719545.8809078,0.0,-1.0,-3.0,-1.0,-2.0,2.0,-2.0,0.0
1701719545.8809078,0.0,1.0,3.0,3.0,0.0,-1.0,-2.0,-1.0
1701719545.8809078,-1.0,0.0,3.0,-2.0,0.0,-2.0,-3.0,1.0
1701719545.8809078,0.0,-1.0,-8.0,-2.0,0.0,2.0,-2.0,1.0
1701719545.9011676,-1.0,-2.0,-3.0,-1.0,-2.0,-3.0,-2.0,0.0
1701719545.9011676,-2.0,-2.0,2.0,-1.0,0.0,2.0,-2.0,0.0
1701719545.9109159,-1.0,-1.0,-1.0,-1.0,-1.0,-1.0,-1.0,-2.0
1701719545.9109159,-1.0,0.0,2.0,-1.0,-1.0,-1.0,0.0,-2.0
1701719545.9211102,0.0,0.0,-3.0,0.0,-1.0,0.0,-1.0,-4.0
1701719545.9211102,1.0,0.0,1.0,-1.0,-1.0,-2.0,-1.0,-2.0
1701719545.9309113,-2.0,-1.0,3.0,1.0,0.0,-2.0,1.0,0.0
1701719545.9309113,1.0,-2.0,-4.0,0.0,-2.0,-1.0,0.0,-1.0
1701719545.9610832,-1.0,-1.0,1.0,0.0,-1.0,-1.0,0.0,0.0
1701719545.9610832,-1.0,-2.0,-5.0,-3.0,-3.0,-2.0,-1.0,0.0
1701719545.9610832,-1.0,-1.0,1.0,0.0,-1.0,0.0,0.0,-3.0
1701719545.9610832,-2.0,0.0,-7.0,-3.0,1.0,0.0,-1.0,0.0
1701719545.9670837,-1.0,-2.0,8.0,1.0,-1.0,-2.0,-2.0,-1.0
1701719545.9670837,0.0,0.0,0.0,0.0,0.0,-2.0,-1.0,-1.0
1701719545.9774454,0.0,1.0,2.0,0.0,-1.0,-1.0,-2.0,-1.0
1701719545.9774454,-1.0,-2.0,-5.0,-1.0,-2.0,-1.0,-2.0,-1.0
1701719545.9900305,-1.0,0.0,-4.0,-3.0,-2.0,-1.0,0.0,-4.0
1701719545.9900305,-2.0,-1.0,0.0,-2.0,-2.0,-1.0,-1.0,-2.0
1701719545.9900305,-2.0,-1.0,-8.0,0.0,-1.0,-1.0,-1.0,-3.0
1701719545.9900305,-2.0,0.0,-5.0,-3.0,0.0,-3.0,0.0,-2.0
1701719546.01033,0.0,-1.0,0.0,-2.0,0.0,0.0,-1.0,-1.0
1701719546.01033,-1.0,-1.0,7.0,0.0,-2.0,1.0,0.0,0.0
1701719546.01033,1.0,0.0,-1.0,-2.0,-1.0,0.0,0.0,-1.0
1701719546.01033,-1.0,1.0,1.0,-1.0,-1.0,-1.0,-2.0,1.0
1701719546.020292,-3.0,-1.0,-7.0,-1.0,0.0,0.0,-3.0,-1.0
1701719546.020292,-2.0,2.0,-6.0,-4.0,-1.0,0.0,0.0,1.0
1701719546.040032,-1.0,1.0,2.0,1.0,-2.0,1.0,-1.0,-2.0
1701719546.040032,-2.0,-2.0,6.0,0.0,-1.0,-2.0,0.0,-1.0
1701719546.050026,-2.0,0.0,-2.0,-4.0,-2.0,-3.0,-1.0,-2.0
1701719546.050026,0.0,-3.0,1.0,-1.0,-2.0,-1.0,-2.0,-1.0
1701719546.050026,0.0,-2.0,-6.0,-2.0,0.0,-1.0,-3.0,1.0
1701719546.050026,0.0,1.0,0.0,-4.0,0.0,-1.0,-1.0,-1.0
1701719546.060229,-1.0,-1.0,1.0,-2.0,0.0,-1.0,-1.0,1.0
1701719546.060229,-1.0,-1.0,5.0,0.0,1.0,-3.0,0.0,0.0
1701719546.070051,0.0,0.0,-10.0,-3.0,-2.0,-2.0,-2.0,-1.0
1701719546.070051,-2.0,-1.0,-1.0,0.0,-2.0,-1.0,-2.0,-2.0
1701719546.0900269,-2.0,-2.0,-2.0,-1.0,-1.0,-2.0,1.0,0.0
1701719546.0900269,-1.0,0.0,-1.0,-1.0,-1.0,0.0,0.0,-2.0
1701719546.0900269,-1.0,-1.0,4.0,-1.0,-1.0,0.0,0.0,0.0
1701719546.0900269,0.0,-1.0,-7.0,-3.0,-1.0,1.0,-2.0,0.0
1701719546.1000612,0.0,-1.0,1.0,0.0,-1.0,-1.0,-1.0,-1.0
1701719546.1000612,0.0,-2.0,-1.0,-4.0,0.0,-2.0,-2.0,-1.0
1701719546.1100295,0.0,-2.0,2.0,1.0,0.0,0.0,-3.0,-1.0
1701719546.1100295,-1.0,-2.0,-1.0,-1.0,-3.0,0.0,-1.0,0.0
1701719546.1203237,0.0,0.0,-4.0,-3.0,-1.0,-1.0,0.0,1.0
1701719546.1203237,0.0,-2.0,-5.0,-2.0,-1.0,0.0,1.0,0.0
1701719546.1300728,-2.0,-1.0,1.0,0.0,0.0,-1.0,1.0,1.0
1701719546.1300728,-2.0,-1.0,0.0,-1.0,-2.0,-1.0,-1.0,-1.0
1701719546.1400266,-1.0,0.0,2.0,1.0,0.0,0.0,-1.0,0.0
1701719546.1400266,-3.0,1.0,-1.0,-1.0,0.0,-2.0,0.0,-1.0
1701719546.1400266,-4.0,-3.0,1.0,0.0,-1.0,-1.0,1.0,0.0
1701719546.1400266,0.0,-2.0,-1.0,-2.0,0.0,-1.0,-1.0,0.0
1701719546.1600285,-1.0,1.0,7.0,4.0,0.0,0.0,0.0,-1.0
1701719546.1600285,-3.0,-1.0,-2.0,-1.0,0.0,1.0,1.0,-2.0
1701719546.170307,0.0,0.0,-6.0,-2.0,0.0,-1.0,-1.0,-1.0
1701719546.170307,-3.0,0.0,6.0,-3.0,0.0,-2.0,0.0,-3.0
1701719546.180449,-1.0,-1.0,-6.0,-3.0,-1.0,-2.0,-1.0,-1.0
1701719546.180449,0.0,-1.0,-2.0,-1.0,1.0,-1.0,-2.0,-1.0
1701719546.1900544,-2.0,-2.0,-5.0,1.0,0.0,-1.0,-2.0,-1.0
1701719546.1900544,-1.0,-3.0,2.0,0.0,0.0,-1.0,-2.0,-1.0
1701719546.200026,-1.0,-1.0,-3.0,-1.0,-1.0,-2.0,-1.0,-2.0
1701719546.200026,0.0,-1.0,-5.0,-2.0,-2.0,-4.0,-4.0,-2.0
1701719546.200026,1.0,0.0,0.0,-3.0,-3.0,-1.0,0.0,0.0
1701719546.200026,-1.0,0.0,-4.0,2.0,-2.0,0.0,0.0,0.0
1701719546.2300317,-2.0,-3.0,-4.0,-3.0,-2.0,0.0,1.0,-3.0
1701719546.2300317,-3.0,-4.0,-2.0,-3.0,-1.0,0.0,-1.0,-3.0
1701719546.2300317,-2.0,-2.0,-8.0,-4.0,1.0,-3.0,-2.0,-3.0
1701719546.2300317,-1.0,-2.0,2.0,0.0,-1.0,-4.0,0.0,-1.0
1701719546.250034,-1.0,0.0,-5.0,-2.0,-1.0,1.0,-3.0,-1.0
1701719546.250034,-1.0,0.0,-1.0,3.0,-2.0,-1.0,-2.0,0.0
1701719546.2700305,-1.0,-1.0,2.0,-1.0,-1.0,-2.0,-3.0,0.0
1701719546.2700305,-3.0,1.0,-6.0,0.0,-1.0,0.0,-2.0,-1.0
1701719546.2700305,-1.0,0.0,-2.0,-3.0,-1.0,-1.0,-2.0,0.0
1701719546.2700305,-1.0,0.0,-2.0,2.0,1.0,0.0,0.0,-1.0
1701719546.2700305,-2.0,-2.0,9.0,2.0,-1.0,-1.0,-1.0,-1.0
1701719546.2700305,-1.0,-2.0,-4.0,-3.0,0.0,0.0,-1.0,0.0
1701719546.2900286,-2.0,-5.0,2.0,1.0,-2.0,-1.0,0.0,0.0
1701719546.2900286,-1.0,-2.0,0.0,-2.0,-3.0,-1.0,-1.0,-1.0
1701719546.2900286,0.0,-3.0,-9.0,-5.0,-1.0,-1.0,-2.0,0.0
1701719546.2900286,-1.0,-4.0,1.0,-3.0,-2.0,-1.0,-2.0,1.0
1701719546.300431,-1.0,-3.0,0.0,-3.0,-1.0,0.0,-2.0,0.0
1701719546.300431,-1.0,1.0,1.0,-1.0,-2.0,-2.0,-2.0,1.0
1701719546.310078,-2.0,-1.0,-6.0,-1.0,0.0,-1.0,-2.0,-1.0
1701719546.310078,-2.0,0.0,12.0,1.0,-1.0,-4.0,-2.0,-1.0
1701719546.3200278,-3.0,0.0,2.0,1.0,-1.0,-2.0,-1.0,0.0
1701719546.3200278,-1.0,-1.0,-3.0,-3.0,-1.0,0.0,0.0,-1.0
1701719546.3200278,-3.0,0.0,5.0,-1.0,-2.0,1.0,-1.0,-1.0
1701719546.3200278,0.0,3.0,-4.0,0.0,-1.0,0.0,-3.0,-1.0
1701719546.3500276,-1.0,-2.0,-8.0,-1.0,1.0,0.0,-4.0,1.0
1701719546.3500276,-3.0,-2.0,-3.0,-3.0,0.0,-3.0,-1.0,0.0
1701719546.3500276,-3.0,0.0,-3.0,-2.0,-1.0,-2.0,0.0,-2.0
1701719546.3500276,0.0,-3.0,-6.0,-4.0,-2.0,0.0,1.0,-2.0
1701719546.370214,0.0,1.0,6.0,0.0,-4.0,-2.0,0.0,-3.0
1701719546.370214,-1.0,0.0,-3.0,-1.0,-1.0,0.0,0.0,-3.0
1701719546.370214,-1.0,1.0,2.0,0.0,-1.0,-1.0,0.0,-2.0
1701719546.370214,-1.0,1.0,3.0,-1.0,0.0,-3.0,-2.0,-2.0
1701719546.3805726,0.0,-2.0,3.0,-2.0,0.0,0.0,-4.0,-2.0
1701719546.3805726,1.0,-2.0,-1.0,-2.0,-1.0,-1.0,-4.0,-1.0
1701719546.3805726,0.0,-2.0,6.0,-2.0,-1.0,0.0,-1.0,-3.0
1701719546.3805726,-1.0,0.0,0.0,-2.0,2.0,0.0,-2.0,-2.0
1701719546.4007406,-2.0,-3.0,-5.0,-3.0,-2.0,0.0,-1.0,0.0
1701719546.4007406,-3.0,-2.0,-1.0,-3.0,-2.0,-1.0,0.0,-1.0
1701719546.410585,-3.0,-2.0,0.0,0.0,0.0,-1.0,-1.0,-2.0
1701719546.410585,-2.0,-3.0,-4.0,-2.0,-3.0,-2.0,0.0,0.0
1701719546.4205835,-2.0,1.0,-1.0,1.0,-2.0,-1.0,0.0,-2.0
1701719546.4205835,-2.0,-3.0,-2.0,0.0,-2.0,-1.0,-1.0,0.0
1701719546.4306161,0.0,1.0,0.0,-1.0,-2.0,-1.0,1.0,-3.0
1701719546.4306161,0.0,1.0,-8.0,-2.0,1.0,0.0,1.0,-1.0
1701719546.441031,0.0,0.0,-2.0,-1.0,0.0,-1.0,1.0,-2.0
1701719546.441031,-2.0,1.0,2.0,-1.0,-1.0,-2.0,3.0,-3.0
1701719546.441031,-1.0,-3.0,-3.0,-1.0,-5.0,-2.0,0.0,0.0
1701719546.441031,-1.0,0.0,-2.0,3.0,-2.0,1.0,1.0,-1.0
1701719546.4610362,0.0,-3.0,-1.0,-2.0,-1.0,-1.0,-4.0,-1.0
1701719546.4610362,2.0,-1.0,7.0,1.0,-1.0,0.0,-3.0,-2.0
1701719546.470586,1.0,-4.0,-2.0,-2.0,0.0,0.0,-3.0,1.0
1701719546.470586,2.0,0.0,2.0,-1.0,-2.0,-2.0,-2.0,-1.0
1701719546.4805844,2.0,-1.0,-4.0,0.0,0.0,-1.0,-3.0,-1.0
1701719546.4805844,1.0,0.0,-5.0,0.0,0.0,-1.0,-1.0,1.0
1701719546.4915917,0.0,1.0,0.0,1.0,-1.0,0.0,-2.0,-1.0
1701719546.4915917,-3.0,0.0,-1.0,0.0,-1.0,-2.0,-2.0,-1.0
1701719546.5069783,1.0,3.0,1.0,-1.0,-1.0,-3.0,-2.0,-1.0
1701719546.5069783,1.0,1.0,1.0,-2.0,-2.0,-1.0,-2.0,0.0
1701719546.5089855,-4.0,-3.0,2.0,1.0,-1.0,-2.0,-2.0,-2.0
1701719546.5089855,0.0,-1.0,-3.0,-2.0,-1.0,0.0,-2.0,0.0
1701719546.5431979,-1.0,-1.0,-6.0,-1.0,-1.0,-1.0,0.0,-1.0
1701719546.5431979,-1.0,-2.0,8.0,2.0,-1.0,-2.0,0.0,-1.0
1701719546.5431979,-3.0,-3.0,-1.0,0.0,-1.0,0.0,1.0,-2.0
1701719546.5431979,0.0,-3.0,-7.0,0.0,-1.0,0.0,-1.0,-2.0
1701719546.5431979,-3.0,-8.0,-2.0,-1.0,-2.0,-1.0,1.0,-2.0
1701719546.5431979,-3.0,-1.0,0.0,0.0,1.0,-1.0,-1.0,-4.0
1701719546.5431979,0.0,-1.0,-4.0,-1.0,1.0,0.0,-1.0,0.0
1701719546.5431979,-2.0,-1.0,7.0,1.0,-2.0,2.0,-1.0,-1.0
1701719546.5635924,0.0,-1.0,-3.0,-2.0,-1.0,-1.0,-2.0,1.0
1701719546.5635924,-1.0,-2.0,-4.0,-3.0,-2.0,-1.0,-1.0,-2.0
1701719546.5635924,-2.0,0.0,-2.0,-2.0,-2.0,-1.0,0.0,-1.0
1701719546.5635924,0.0,0.0,-1.0,-2.0,-1.0,-1.0,1.0,-3.0
1701719546.6036096,-3.0,1.0,-4.0,-2.0,0.0,0.0,0.0,0.0
1701719546.6036096,-2.0,-2.0,1.0,1.0,-1.0,0.0,1.0,-1.0
1701719546.6036096,-2.0,2.0,1.0,2.0,-2.0,-1.0,0.0,2.0
1701719546.6036096,-2.0,-4.0,-1.0,0.0,0.0,0.0,1.0,0.0
1701719546.6036096,-1.0,-3.0,4.0,-1.0,0.0,1.0,-2.0,0.0
1701719546.6036096,-2.0,-3.0,-9.0,-3.0,0.0,0.0,-2.0,-1.0
1701719546.6036096,-1.0,-2.0,-3.0,-3.0,-3.0,-1.0,-3.0,0.0
1701719546.6036096,-3.0,-1.0,-7.0,0.0,-2.0,-3.0,-2.0,-1.0
1701719546.624075,0.0,2.0,-2.0,-1.0,1.0,1.0,-2.0,-1.0
1701719546.624075,-2.0,3.0,6.0,-4.0,-2.0,1.0,-2.0,1.0
1701719546.624075,-2.0,1.0,3.0,1.0,0.0,-1.0,-2.0,-1.0
1701719546.624075,-1.0,1.0,-7.0,-2.0,-1.0,1.0,-3.0,-2.0
1701719546.653608,-3.0,0.0,3.0,0.0,-2.0,-2.0,-2.0,-4.0
1701719546.653608,0.0,-7.0,-7.0,2.0,-2.0,3.0,-2.0,-1.0
1701719546.653608,0.0,1.0,1.0,1.0,-1.0,3.0,-1.0,-2.0
1701719546.653608,-1.0,-3.0,-1.0,-1.0,0.0,2.0,-3.0,-2.0
1701719546.6636147,-2.0,-1.0,-4.0,0.0,-1.0,3.0,1.0,-1.0
1701719546.6636147,-3.0,0.0,-2.0,-3.0,-2.0,-3.0,-1.0,1.0
1701719546.6636147,0.0,-3.0,1.0,-2.0,0.0,-5.0,-1.0,-1.0
1701719546.6636147,-2.0,-3.0,2.0,1.0,1.0,-7.0,-1.0,-1.0
1701719546.683886,-2.0,0.0,2.0,0.0,0.0,-9.0,-1.0,-1.0
1701719546.683886,-1.0,0.0,-1.0,-1.0,1.0,-5.0,0.0,0.0
1701719546.683886,0.0,1.0,-6.0,-4.0,0.0,-5.0,-2.0,-2.0
1701719546.683886,-1.0,-1.0,1.0,-4.0,-1.0,-5.0,1.0,1.0
1701719546.7039187,-1.0,-2.0,1.0,-1.0,-1.0,-2.0,0.0,0.0
1701719546.7039187,1.0,0.0,-7.0,1.0,-2.0,-2.0,-2.0,-4.0
1701719546.7039187,-2.0,-3.0,-6.0,-1.0,-2.0,-1.0,-2.0,-1.0
1701719546.7039187,0.0,-1.0,13.0,0.0,-1.0,-1.0,-1.0,0.0
1701719546.7236094,-1.0,-4.0,1.0,-2.0,-2.0,-1.0,-2.0,-1.0
1701719546.7236094,-1.0,-1.0,-7.0,-1.0,-1.0,-1.0,-1.0,-1.0
1701719546.7236094,-2.0,-2.0,4.0,1.0,1.0,0.0,2.0,0.0
1701719546.7236094,-2.0,-3.0,-3.0,-1.0,-3.0,-1.0,0.0,-3.0
1701719546.7436576,0.0,0.0,-1.0,-2.0,-1.0,0.0,0.0,-2.0
1701719546.7436576,0.0,-1.0,1.0,-1.0,0.0,0.0,-2.0,-2.0
1701719546.7536092,1.0,0.0,0.0,-3.0,-1.0,0.0,-2.0,-3.0
1701719546.7536092,1.0,0.0,-4.0,-1.0,1.0,-2.0,-1.0,-2.0
1701719546.7639716,-1.0,1.0,-4.0,-1.0,0.0,-2.0,0.0,-3.0
1701719546.7639716,-3.0,-2.0,0.0,1.0,0.0,-1.0,-1.0,-1.0
1701719546.7639716,-2.0,-2.0,-1.0,1.0,-1.0,-2.0,-1.0,1.0
1701719546.7639716,-1.0,0.0,-1.0,-2.0,-2.0,0.0,-1.0,2.0
1701719546.7839992,-1.0,-1.0,8.0,-1.0,-1.0,-1.0,-2.0,0.0
1701719546.7839992,-1.0,1.0,1.0,-2.0,-1.0,0.0,0.0,0.0
1701719546.7936091,0.0,-1.0,2.0,-2.0,-1.0,0.0,0.0,0.0
1701719546.7936091,-3.0,-1.0,-1.0,-2.0,-3.0,-1.0,-2.0,-2.0
1701719546.8036366,-2.0,-1.0,-2.0,-2.0,-1.0,0.0,1.0,-2.0
1701719546.8036366,-2.0,-2.0,-1.0,-1.0,0.0,-2.0,0.0,-1.0
1701719546.8136122,-1.0,-3.0,-7.0,-1.0,-3.0,1.0,-1.0,-1.0
1701719546.8136122,2.0,-2.0,3.0,0.0,0.0,0.0,0.0,-2.0
1701719546.8237643,0.0,-1.0,1.0,-1.0,-1.0,0.0,-2.0,1.0
1701719546.8237643,1.0,0.0,1.0,0.0,1.0,-1.0,-3.0,1.0
1701719546.8237643,0.0,1.0,-6.0,0.0,0.0,-2.0,-4.0,-1.0
1701719546.8237643,-1.0,2.0,-5.0,-2.0,1.0,0.0,-3.0,0.0
1701719546.8439505,0.0,0.0,-3.0,-1.0,-2.0,0.0,1.0,-1.0
1701719546.8439505,-1.0,-2.0,-1.0,-3.0,-3.0,0.0,-1.0,-1.0
1701719546.853614,1.0,-2.0,-1.0,-2.0,0.0,-2.0,-1.0,-1.0
1701719546.853614,-1.0,-5.0,-3.0,-1.0,-3.0,0.0,-1.0,-1.0
1701719546.86368,0.0,-2.0,2.0,0.0,-1.0,-1.0,0.0,-3.0
1701719546.86368,-1.0,-1.0,-1.0,-2.0,-2.0,0.0,0.0,-2.0
1701719546.8836153,-3.0,0.0,0.0,-1.0,-1.0,0.0,0.0,-2.0
1701719546.8836153,-4.0,1.0,-6.0,-3.0,-2.0,-1.0,2.0,-2.0
1701719546.8936083,0.0,-2.0,1.0,2.0,-2.0,0.0,1.0,-1.0
1701719546.8936083,-3.0,0.0,-3.0,2.0,-2.0,-1.0,2.0,-2.0
1701719546.8936083,-2.0,0.0,-1.0,0.0,-3.0,-1.0,2.0,-2.0
1701719546.8936083,-1.0,0.0,-4.0,-3.0,0.0,0.0,-2.0,-1.0
1701719546.9038932,0.0,0.0,-4.0,-1.0,0.0,0.0,-4.0,1.0
1701719546.9038932,1.0,-1.0,-1.0,1.0,-1.0,-1.0,-2.0,-1.0
1701719546.913615,0.0,-1.0,1.0,-3.0,1.0,-1.0,-4.0,-2.0
1701719546.913615,-4.0,0.0,5.0,2.0,-1.0,-1.0,-5.0,-2.0
1701719546.9336104,0.0,1.0,-2.0,-2.0,-1.0,-1.0,-4.0,-1.0
1701719546.9336104,-1.0,-1.0,-6.0,-2.0,-1.0,-1.0,-3.0,1.0
1701719546.9336104,0.0,-2.0,9.0,-4.0,-1.0,-1.0,-2.0,1.0
1701719546.9336104,0.0,-3.0,-1.0,-1.0,-2.0,-1.0,-1.0,0.0
1701719546.9436433,-1.0,-3.0,0.0,1.0,-2.0,-3.0,-2.0,-2.0
1701719546.9436433,-1.0,-1.0,-2.0,-1.0,-1.0,-2.0,-2.0,1.0
1701719546.9436433,-2.0,-2.0,-4.0,-1.0,-1.0,-3.0,-1.0,0.0
1701719546.9436433,-1.0,0.0,0.0,-1.0,-1.0,1.0,-2.0,0.0
1701719546.9639828,-1.0,1.0,-2.0,-1.0,0.0,-2.0,0.0,-1.0
1701719546.9639828,-1.0,-1.0,1.0,0.0,-2.0,-2.0,0.0,-2.0
1701719546.973612,0.0,0.0,-4.0,2.0,-1.0,0.0,0.0,1.0
1701719546.973612,0.0,-2.0,-1.0,0.0,-2.0,-2.0,-2.0,0.0
1701719547.003608,-1.0,-3.0,-7.0,-2.0,-3.0,-1.0,-2.0,-2.0
1701719547.003608,-3.0,-2.0,-2.0,-2.0,-1.0,-2.0,0.0,-3.0
1701719547.003608,-2.0,1.0,-1.0,-2.0,-4.0,0.0,-2.0,1.0
1701719547.003608,-3.0,-1.0,-2.0,0.0,-3.0,-2.0,-1.0,2.0
1701719547.003608,-4.0,-1.0,-1.0,-2.0,-2.0,-1.0,0.0,-1.0
1701719547.003608,0.0,-1.0,-1.0,-1.0,0.0,-1.0,-2.0,0.0
1701719547.003608,-2.0,-2.0,-1.0,-1.0,-1.0,1.0,1.0,-1.0
1701719547.003608,-2.0,-1.0,-2.0,-3.0,-2.0,0.0,1.0,-3.0
1701719547.0327687,0.0,-2.0,2.0,1.0,1.0,-2.0,-3.0,-1.0
1701719547.0327687,1.0,-1.0,10.0,5.0,0.0,-2.0,-2.0,0.0
1701719547.0367532,1.0,0.0,-5.0,0.0,-1.0,-2.0,0.0,-2.0
1701719547.0367532,-1.0,1.0,11.0,-3.0,2.0,-2.0,-1.0,-1.0
1701719547.0557787,1.0,-2.0,4.0,-2.0,0.0,-1.0,-1.0,-3.0
1701719547.0557787,-3.0,-2.0,1.0,-3.0,-1.0,-1.0,0.0,-1.0
1701719547.0557787,-1.0,-1.0,0.0,-2.0,0.0,0.0,-1.0,-1.0
1701719547.0557787,0.0,2.0,-11.0,-1.0,-1.0,0.0,1.0,-2.0
1701719547.0658004,-4.0,-2.0,0.0,-1.0,0.0,0.0,-1.0,-4.0
1701719547.0658004,-3.0,-1.0,-8.0,-4.0,-2.0,-2.0,-2.0,-1.0
1701719547.0658004,-1.0,-1.0,-4.0,-2.0,-2.0,-3.0,-3.0,0.0
1701719547.0658004,0.0,-4.0,-14.0,-6.0,0.0,-2.0,0.0,-1.0
1701719547.086189,-1.0,-6.0,-7.0,-4.0,1.0,2.0,-1.0,4.0
1701719547.086189,2.0,8.0,16.0,1.0,3.0,-1.0,-1.0,-1.0
1701719547.0962012,-2.0,1.0,4.0,12.0,1.0,-1.0,-2.0,0.0
1701719547.0962012,1.0,1.0,3.0,2.0,-1.0,-1.0,-1.0,-1.0
1701719547.1061997,0.0,0.0,-8.0,-2.0,-2.0,-1.0,-1.0,0.0
1701719547.1061997,-2.0,-5.0,-15.0,-9.0,-3.0,-1.0,-2.0,0.0
1701719547.1061997,0.0,-1.0,-7.0,-7.0,-3.0,-1.0,-1.0,-1.0
1701719547.1061997,-1.0,4.0,2.0,-1.0,0.0,0.0,-1.0,1.0
1701719547.1266234,0.0,0.0,3.0,0.0,-1.0,-1.0,-1.0,-2.0
1701719547.1266234,0.0,-1.0,1.0,0.0,-2.0,0.0,-1.0,-1.0
1701719547.1266234,-2.0,-1.0,8.0,1.0,-1.0,0.0,-1.0,0.0
1701719547.1266234,-2.0,-5.0,-8.0,-3.0,-2.0,-1.0,-1.0,0.0
1701719547.1466277,-4.0,-2.0,-8.0,-2.0,-1.0,0.0,-1.0,-3.0
1701719547.1466277,-1.0,-3.0,-4.0,2.0,-2.0,0.0,1.0,-1.0
1701719547.1562057,-2.0,-1.0,1.0,1.0,-1.0,0.0,0.0,-3.0
1701719547.1562057,-1.0,-3.0,1.0,0.0,-2.0,-2.0,0.0,-1.0
1701719547.1662004,-4.0,1.0,1.0,1.0,0.0,-3.0,-1.0,1.0
1701719547.1662004,-1.0,-3.0,-3.0,1.0,0.0,-1.0,-2.0,0.0
1701719547.1662004,0.0,-2.0,-3.0,-6.0,-3.0,-1.0,0.0,0.0
1701719547.1662004,0.0,-1.0,2.0,1.0,-3.0,0.0,-1.0,1.0
1701719547.18655,0.0,-1.0,-1.0,-1.0,-3.0,-2.0,1.0,-1.0
1701719547.18655,1.0,0.0,-2.0,-1.0,-1.0,0.0,0.0,0.0
1701719547.18655,-1.0,0.0,2.0,-1.0,1.0,0.0,0.0,-1.0
1701719547.18655,-2.0,-1.0,-4.0,-1.0,1.0,-2.0,0.0,-3.0
1701719547.2162018,-1.0,1.0,3.0,3.0,1.0,-1.0,0.0,-2.0
1701719547.2162018,-5.0,-1.0,-1.0,1.0,-1.0,-1.0,0.0,0.0
1701719547.2162018,-1.0,-2.0,1.0,-2.0,-1.0,-2.0,3.0,-2.0
1701719547.2162018,-1.0,-1.0,-2.0,-1.0,0.0,-1.0,3.0,-2.0
1701719547.226255,-3.0,0.0,-1.0,-1.0,-2.0,0.0,0.0,-1.0
1701719547.226255,-3.0,-3.0,-1.0,-1.0,-1.0,-2.0,-3.0,1.0
1701719547.226255,0.0,-2.0,-3.0,0.0,-1.0,-1.0,-3.0,-2.0
1701719547.226255,-1.0,-2.0,-1.0,2.0,0.0,-2.0,-3.0,-2.0
1701719547.2471268,1.0,-1.0,1.0,-1.0,-2.0,-1.0,-3.0,-2.0
1701719547.2471268,1.0,0.0,0.0,-1.0,-2.0,1.0,-3.0,-3.0
1701719547.2471268,-1.0,-1.0,0.0,-2.0,0.0,-2.0,-3.0,0.0
1701719547.2471268,-1.0,0.0,-1.0,-4.0,-1.0,0.0,-2.0,1.0
1701719547.2666674,-2.0,-1.0,1.0,-5.0,-4.0,-1.0,-1.0,0.0
1701719547.2666674,-3.0,-1.0,1.0,-6.0,-3.0,-1.0,0.0,-3.0
1701719547.2666674,-1.0,-2.0,-2.0,-3.0,-3.0,1.0,-1.0,-2.0
1701719547.2666674,0.0,-3.0,0.0,0.0,-2.0,0.0,0.0,-2.0
1701719547.277046,0.0,0.0,-1.0,1.0,0.0,-1.0,-1.0,0.0
1701719547.277046,0.0,-1.0,-4.0,0.0,0.0,3.0,1.0,2.0
1701719547.2869594,-2.0,-2.0,-1.0,1.0,-2.0,1.0,0.0,0.0
1701719547.2869594,-1.0,0.0,2.0,2.0,0.0,-1.0,-1.0,0.0
1701719547.3070319,-1.0,0.0,-2.0,-1.0,-2.0,-3.0,-2.0,0.0
1701719547.3070319,0.0,-1.0,-4.0,-2.0,-1.0,-5.0,-1.0,-1.0
1701719547.3070319,-2.0,1.0,-4.0,0.0,0.0,-3.0,-1.0,-2.0
1701719547.3070319,-3.0,0.0,-3.0,0.0,-3.0,-3.0,-2.0,-3.0
1701719547.3266666,-1.0,-1.0,0.0,2.0,0.0,-1.0,-1.0,0.0
1701719547.3266666,-2.0,-3.0,1.0,0.0,-2.0,0.0,-2.0,0.0
1701719547.3266666,-1.0,-1.0,-1.0,-1.0,-1.0,-1.0,-2.0,-1.0
1701719547.3266666,0.0,3.0,0.0,0.0,0.0,-1.0,-1.0,-1.0
1701719547.3369226,-1.0,1.0,-1.0,-3.0,0.0,-1.0,0.0,-1.0
1701719547.3369226,0.0,0.0,-1.0,-1.0,-2.0,-1.0,0.0,-2.0
1701719547.3467243,0.0,-2.0,-1.0,-2.0,-1.0,-2.0,0.0,-2.0
1701719547.3467243,-2.0,-3.0,0.0,0.0,0.0,1.0,-2.0,-1.0
1701719547.3866677,1.0,1.0,-1.0,-1.0,0.0,-2.0,-2.0,-1.0
1701719547.3866677,-1.0,0.0,0.0,-1.0,-1.0,-2.0,-2.0,-1.0
1701719547.3866677,-3.0,-2.0,-3.0,-3.0,0.0,-4.0,-1.0,0.0
1701719547.3866677,0.0,-5.0,0.0,0.0,0.0,-1.0,0.0,0.0
1701719547.3866677,1.0,-5.0,-2.0,1.0,-2.0,-1.0,0.0,-2.0
1701719547.3866677,0.0,-1.0,-3.0,1.0,0.0,-1.0,2.0,-1.0
1701719547.3866677,0.0,1.0,0.0,0.0,0.0,-1.0,0.0,-2.0
1701719547.3866677,-2.0,2.0,-2.0,-2.0,-2.0,0.0,-1.0,1.0
1701719547.3969462,-2.0,-2.0,-2.0,-3.0,-2.0,0.0,0.0,1.0
1701719547.3969462,-1.0,-2.0,1.0,-1.0,-2.0,-1.0,1.0,0.0
1701719547.4166703,-2.0,-1.0,0.0,-1.0,-2.0,0.0,-2.0,1.0
1701719547.4166703,-2.0,0.0,-2.0,0.0,-2.0,0.0,-2.0,-1.0
1701719547.4366655,-1.0,0.0,-1.0,-2.0,-2.0,1.0,0.0,1.0
1701719547.4366655,-2.0,0.0,-2.0,-2.0,-2.0,-1.0,-2.0,-1.0
1701719547.4366655,-3.0,0.0,-3.0,-1.0,1.0,0.0,-1.0,-1.0
1701719547.4366655,-3.0,-3.0,-3.0,0.0,-1.0,-1.0,-1.0,-3.0
1701719547.4469419,-3.0,0.0,-3.0,2.0,0.0,-1.0,-2.0,-4.0
1701719547.4469419,-3.0,-3.0,-1.0,0.0,-3.0,-1.0,-2.0,-3.0
1701719547.4469419,-1.0,-3.0,0.0,0.0,-1.0,-1.0,0.0,-1.0
1701719547.4469419,-1.0,-3.0,0.0,-1.0,0.0,0.0,-2.0,1.0
1701719547.456918,1.0,-2.0,-1.0,-1.0,-1.0,-2.0,0.0,0.0
1701719547.4666843,0.0,0.0,0.0,-1.0,0.0,-2.0,-2.0,1.0
1701719547.4666843,1.0,1.0,0.0,0.0,-1.0,-2.0,-1.0,0.0
1701719547.4666843,0.0,-1.0,-3.0,-1.0,-2.0,-1.0,1.0,0.0
1701719547.4869807,-2.0,0.0,-1.0,-1.0,-4.0,1.0,-1.0,-3.0
1701719547.4869807,-2.0,-1.0,-2.0,-2.0,-2.0,-2.0,0.0,-2.0
1701719547.4869807,-1.0,0.0,-1.0,0.0,-1.0,-1.0,-1.0,-3.0
1701719547.4869807,-1.0,-1.0,-1.0,-1.0,0.0,-1.0,-1.0,0.0
1701719547.5166671,-1.0,-2.0,-1.0,-1.0,0.0,-2.0,-1.0,-1.0
1701719547.5166671,-2.0,0.0,0.0,-1.0,0.0,-1.0,-2.0,0.0
1701719547.5166671,0.0,0.0,0.0,0.0,-1.0,-3.0,-1.0,-1.0
1701719547.5166671,-1.0,-2.0,2.0,-2.0,1.0,-3.0,2.0,-2.0
1701719547.5166671,-2.0,1.0,-1.0,-2.0,1.0,-1.0,-1.0,1.0
1701719547.5166671,-2.0,-2.0,-2.0,0.0,1.0,-1.0,0.0,0.0
1701719547.5266929,-1.0,-2.0,-4.0,-2.0,-1.0,0.0,-3.0,0.0
1701719547.5266929,0.0,1.0,-1.0,-1.0,-1.0,-2.0,-1.0,0.0
1701719547.5617564,0.0,0.0,0.0,0.0,-3.0,0.0,-4.0,-3.0
1701719547.5617564,0.0,1.0,0.0,-1.0,-3.0,-1.0,-3.0,-1.0
1701719547.5617564,-1.0,0.0,-3.0,-2.0,-1.0,-1.0,-1.0,1.0
1701719547.5617564,-1.0,0.0,-4.0,-2.0,-3.0,0.0,-2.0,-1.0
1701719547.5720224,-2.0,-1.0,-4.0,-3.0,0.0,-1.0,1.0,-1.0
1701719547.5720224,2.0,-2.0,-3.0,-1.0,2.0,-2.0,2.0,-2.0
1701719547.5720224,-1.0,-1.0,1.0,0.0,-2.0,-1.0,1.0,-2.0
1701719547.5720224,-2.0,-1.0,2.0,-2.0,-2.0,-1.0,-1.0,0.0
1701719547.5818157,2.0,-2.0,0.0,-2.0,1.0,0.0,1.0,-2.0
1701719547.5818157,0.0,-2.0,0.0,-1.0,0.0,-2.0,-2.0,0.0
1701719547.591824,-1.0,-1.0,1.0,-1.0,-3.0,-1.0,1.0,0.0
1701719547.591824,-3.0,1.0,-2.0,0.0,0.0,-2.0,-2.0,-3.0
1701719547.601988,-3.0,-1.0,-1.0,0.0,-3.0,-2.0,-1.0,0.0
1701719547.601988,-3.0,-1.0,-1.0,-2.0,0.0,-2.0,-2.0,-2.0
1701719547.601988,-1.0,-3.0,-1.0,-3.0,1.0,-1.0,-3.0,0.0
1701719547.601988,1.0,-3.0,0.0,0.0,-1.0,0.0,-4.0,0.0
1701719547.6320598,0.0,0.0,-3.0,0.0,0.0,0.0,-3.0,-1.0
1701719547.6320598,0.0,1.0,-1.0,1.0,-2.0,0.0,0.0,-3.0
1701719547.6320598,-2.0,-1.0,-2.0,-2.0,-2.0,0.0,-2.0,-3.0
1701719547.6320598,-2.0,0.0,2.0,-3.0,-2.0,-1.0,0.0,-1.0
1701719547.6419532,0.0,0.0,-1.0,-3.0,-2.0,-1.0,0.0,0.0
1701719547.6419532,-2.0,-1.0,-3.0,-1.0,-1.0,-1.0,-2.0,-2.0
1701719547.6519685,-3.0,-3.0,-2.0,-1.0,1.0,-2.0,0.0,-1.0
1701719547.6519685,-1.0,-4.0,-2.0,0.0,0.0,-2.0,0.0,-1.0
1701719547.661965,-1.0,0.0,0.0,-4.0,-1.0,0.0,-3.0,0.0
1701719547.661965,2.0,1.0,1.0,-4.0,1.0,-1.0,-3.0,-1.0
1701719547.6722887,0.0,2.0,-1.0,-3.0,-2.0,0.0,1.0,-1.0
1701719547.6722887,-1.0,1.0,-3.0,-2.0,0.0,-1.0,0.0,-1.0
1701719547.6921456,-3.0,-1.0,-2.0,1.0,-3.0,-2.0,1.0,0.0
1701719547.6921456,-2.0,-2.0,0.0,1.0,-2.0,2.0,-1.0,1.0
1701719547.6921456,-4.0,-1.0,-2.0,1.0,-1.0,1.0,-3.0,-1.0
1701719547.6921456,-3.0,-1.0,-3.0,-1.0,-1.0,-1.0,-1.0,-2.0
1701719547.7119663,-2.0,0.0,1.0,0.0,1.0,-3.0,-2.0,-3.0
1701719547.7119663,-1.0,-1.0,0.0,-1.0,-1.0,-1.0,-2.0,-1.0
1701719547.7119663,0.0,1.0,1.0,-1.0,-3.0,-1.0,0.0,-1.0
1701719547.7119663,-1.0,0.0,-1.0,-1.0,0.0,1.0,-1.0,0.0
1701719547.7222545,-1.0,-5.0,0.0,-2.0,-1.0,-2.0,-2.0,-3.0
1701719547.7222545,-1.0,-2.0,-2.0,0.0,-2.0,-1.0,0.0,-2.0
1701719547.7322655,3.0,-4.0,-1.0,1.0,-1.0,-2.0,-1.0,-1.0
1701719547.7322655,2.0,0.0,-2.0,0.0,-2.0,-1.0,-1.0,-2.0
1701719547.7521386,-1.0,0.0,-3.0,-1.0,1.0,0.0,-1.0,-3.0
1701719547.7521386,-2.0,-1.0,1.0,-2.0,-1.0,-1.0,-2.0,-1.0
1701719547.7521386,-3.0,-1.0,-1.0,-3.0,-1.0,0.0,1.0,0.0
1701719547.7521386,0.0,1.0,-2.0,0.0,2.0,-1.0,0.0,0.0
1701719547.7719696,1.0,-3.0,-1.0,-2.0,-1.0,-1.0,-3.0,2.0
1701719547.7719696,-1.0,1.0,-3.0,1.0,0.0,0.0,-1.0,0.0
1701719547.7719696,-1.0,2.0,-5.0,-2.0,-3.0,-2.0,-2.0,-2.0
1701719547.7719696,-1.0,-1.0,1.0,-1.0,-3.0,-1.0,-2.0,-1.0
1701719547.7921963,-2.0,-1.0,-1.0,0.0,-3.0,-2.0,1.0,-2.0
1701719547.7921963,-3.0,-2.0,-1.0,0.0,-2.0,-1.0,0.0,-1.0
1701719547.7921963,-1.0,0.0,-1.0,1.0,0.0,-2.0,-2.0,-2.0
1701719547.7921963,-1.0,0.0,-1.0,-2.0,-1.0,-2.0,0.0,-2.0
1701719547.8119738,0.0,-1.0,-2.0,0.0,-1.0,-2.0,-1.0,2.0
1701719547.8119738,-2.0,-2.0,0.0,-1.0,0.0,-2.0,-2.0,0.0
1701719547.8119738,-3.0,-2.0,-1.0,-1.0,-1.0,0.0,-3.0,-2.0
1701719547.8119738,-3.0,-3.0,0.0,-2.0,-2.0,-2.0,-1.0,0.0
1701719547.841969,-1.0,-3.0,-3.0,-1.0,-1.0,0.0,1.0,0.0
1701719547.841969,0.0,-2.0,-2.0,0.0,-1.0,-2.0,0.0,-2.0
1701719547.841969,0.0,-2.0,-2.0,-1.0,-1.0,1.0,-1.0,-1.0
1701719547.841969,-1.0,-2.0,-2.0,-1.0,-2.0,-3.0,-1.0,-1.0
1701719547.841969,-3.0,1.0,-2.0,-1.0,0.0,-1.0,-3.0,-1.0
1701719547.841969,-1.0,1.0,-2.0,-1.0,-2.0,-1.0,0.0,0.0
1701719547.8519902,-1.0,1.0,-1.0,-1.0,1.0,-1.0,0.0,1.0
1701719547.8519902,2.0,2.0,-1.0,-1.0,-1.0,-1.0,0.0,0.0
1701719547.8719695,-2.0,-1.0,-2.0,-2.0,0.0,0.0,1.0,-1.0
1701719547.8719695,-1.0,-2.0,-1.0,-3.0,-2.0,0.0,-1.0,-3.0
1701719547.8719695,0.0,-2.0,-1.0,-1.0,-8.0,-2.0,0.0,-3.0
1701719547.8719695,-3.0,-2.0,-3.0,0.0,-7.0,0.0,-1.0,1.0
1701719547.8923247,0.0,0.0,-1.0,-1.0,-3.0,-1.0,-1.0,-1.0
1701719547.8923247,-2.0,-2.0,0.0,1.0,0.0,-1.0,-1.0,0.0
1701719547.8923247,1.0,-1.0,1.0,-1.0,2.0,0.0,-2.0,0.0
1701719547.8923247,1.0,-1.0,0.0,1.0,1.0,1.0,-1.0,-1.0
1701719547.9023352,0.0,-3.0,0.0,1.0,0.0,0.0,-2.0,-3.0
1701719547.9023352,-1.0,-1.0,-2.0,0.0,1.0,0.0,-1.0,-1.0
1701719547.9223332,-1.0,0.0,0.0,-1.0,2.0,-3.0,0.0,-1.0
1701719547.9223332,-2.0,0.0,-2.0,0.0,4.0,-2.0,-1.0,-2.0
1701719547.9323509,-1.0,-1.0,-1.0,-1.0,2.0,-2.0,1.0,0.0
1701719547.9323509,0.0,-2.0,-2.0,-1.0,0.0,0.0,1.0,1.0
1701719547.9323509,-2.0,-4.0,-1.0,0.0,2.0,-3.0,0.0,-2.0
1701719547.9323509,-2.0,-4.0,-2.0,-2.0,-3.0,-2.0,-3.0,-1.0
1701719547.952629,-3.0,-2.0,2.0,-1.0,0.0,-2.0,-3.0,-2.0
1701719547.952629,-1.0,0.0,0.0,-1.0,-2.0,-2.0,-2.0,-3.0
1701719547.952629,-1.0,2.0,-2.0,-1.0,2.0,0.0,-1.0,0.0
1701719547.952629,-1.0,2.0,-2.0,-2.0,0.0,0.0,-1.0,2.0
1701719547.9626386,0.0,0.0,0.0,-1.0,0.0,1.0,-2.0,1.0
1701719547.9626386,-2.0,-2.0,0.0,-2.0,-2.0,-2.0,0.0,-3.0
1701719547.9725883,0.0,-1.0,0.0,0.0,-1.0,-6.0,-1.0,0.0
1701719547.9725883,-2.0,-2.0,0.0,-1.0,1.0,-2.0,-1.0,-2.0
1701719547.9923508,1.0,-3.0,-3.0,0.0,-1.0,-1.0,-1.0,1.0
1701719547.9923508,0.0,-1.0,-1.0,0.0,0.0,2.0,-4.0,-2.0
1701719547.9923508,-2.0,-3.0,-2.0,-3.0,-1.0,3.0,-1.0,-3.0
1701719547.9923508,-1.0,0.0,-1.0,1.0,-1.0,-1.0,-1.0,-1.0
1701719548.0323439,-2.0,1.0,-1.0,-2.0,-3.0,-1.0,-2.0,0.0
1701719548.0323439,-2.0,0.0,-1.0,-1.0,-2.0,-1.0,-1.0,3.0
1701719548.0323439,-1.0,-2.0,-3.0,-1.0,-2.0,0.0,0.0,1.0
1701719548.0323439,2.0,-1.0,-1.0,0.0,1.0,1.0,-1.0,-1.0
1701719548.0323439,1.0,-1.0,1.0,0.0,1.0,1.0,1.0,-1.0
1701719548.0323439,0.0,0.0,1.0,-1.0,-1.0,-3.0,2.0,-1.0
1701719548.0323439,0.0,-2.0,0.0,-1.0,-1.0,-1.0,-1.0,0.0
1701719548.0323439,-3.0,-1.0,-2.0,-3.0,-1.0,-2.0,0.0,-3.0
1701719548.052345,-2.0,-1.0,-3.0,0.0,-3.0,-2.0,0.0,0.0
1701719548.052345,-1.0,-2.0,-3.0,1.0,-1.0,-1.0,-1.0,0.0
1701719548.052345,-2.0,-1.0,-3.0,-1.0,0.0,1.0,0.0,-1.0
1701719548.052345,0.0,-4.0,-3.0,-1.0,1.0,-1.0,-1.0,-2.0
1701719548.0744681,-1.0,0.0,-1.0,0.0,0.0,-1.0,-3.0,-2.0
1701719548.0744681,0.0,-2.0,-2.0,-1.0,-2.0,-2.0,-2.0,0.0
1701719548.0757785,-1.0,0.0,1.0,0.0,-1.0,0.0,-2.0,-1.0
1701719548.0757785,-1.0,-1.0,1.0,0.0,1.0,-1.0,0.0,-2.0
1701719548.0883656,-1.0,-1.0,0.0,-1.0,-2.0,0.0,-1.0,0.0
1701719548.0891201,-1.0,-1.0,0.0,-1.0,-4.0,-1.0,0.0,-1.0
1701719548.0948591,-2.0,-3.0,0.0,0.0,-3.0,1.0,0.0,0.0
1701719548.0948591,-1.0,-4.0,-2.0,-3.0,-1.0,-1.0,0.0,0.0
1701719548.1048598,0.0,0.0,-3.0,-5.0,1.0,-2.0,0.0,-1.0
1701719548.1048598,-1.0,0.0,-2.0,-3.0,-1.0,-1.0,0.0,-2.0
1701719548.1048598,0.0,-2.0,-2.0,-2.0,-1.0,-3.0,-1.0,-3.0
1701719548.1048598,1.0,-1.0,-1.0,0.0,-1.0,-3.0,-1.0,-2.0
1701719548.125324,0.0,-4.0,-1.0,0.0,-2.0,-1.0,0.0,-4.0
1701719548.125324,1.0,-1.0,1.0,-2.0,-1.0,-2.0,-2.0,-1.0
1701719548.1353364,-1.0,-3.0,-2.0,-2.0,0.0,1.0,1.0,-1.0
1701719548.1353364,-1.0,0.0,0.0,-2.0,-4.0,0.0,-3.0,0.0
1701719548.145731,-2.0,1.0,-1.0,3.0,-2.0,-2.0,0.0,-3.0
1701719548.145731,-3.0,-3.0,-2.0,-5.0,-1.0,-1.0,-2.0,-1.0
1701719548.155335,-4.0,-2.0,0.0,0.0,0.0,-2.0,-1.0,-2.0
1701719548.155335,-1.0,-1.0,-2.0,-2.0,-2.0,0.0,-3.0,1.0
1701719548.1654913,-1.0,-1.0,-3.0,1.0,1.0,0.0,-2.0,0.0
1701719548.1654913,-2.0,-2.0,-1.0,1.0,0.0,-1.0,-1.0,-1.0
1701719548.1654913,0.0,0.0,-2.0,-1.0,0.0,-1.0,-1.0,-3.0
1701719548.1654913,-1.0,-2.0,-1.0,-1.0,-1.0,0.0,0.0,0.0
1701719548.1853373,-1.0,-2.0,0.0,-3.0,-2.0,-1.0,-2.0,0.0
1701719548.1853373,0.0,-2.0,-2.0,2.0,0.0,1.0,-3.0,0.0
1701719548.1953437,-1.0,2.0,-1.0,-2.0,-2.0,1.0,-1.0,0.0
1701719548.1953437,-2.0,1.0,-1.0,0.0,1.0,-3.0,-1.0,-2.0
1701719548.2053373,-2.0,-2.0,0.0,-3.0,-1.0,-1.0,-2.0,0.0
1701719548.2053373,-3.0,-3.0,0.0,-1.0,1.0,-2.0,0.0,-3.0
1701719548.2153707,-4.0,-2.0,0.0,-1.0,-1.0,-3.0,0.0,-1.0
1701719548.2153707,-2.0,1.0,-1.0,-1.0,0.0,-2.0,1.0,-3.0
1701719548.225638,-1.0,0.0,-1.0,-2.0,0.0,0.0,-1.0,-2.0
1701719548.225638,0.0,0.0,-1.0,0.0,0.0,0.0,-3.0,-2.0
1701719548.225638,1.0,-1.0,0.0,0.0,-1.0,-1.0,-1.0,1.0
1701719548.225638,0.0,-2.0,-1.0,-1.0,0.0,0.0,0.0,0.0
1701719548.255339,-1.0,-2.0,-1.0,-1.0,-2.0,-1.0,0.0,1.0
1701719548.255339,-2.0,-2.0,-3.0,-1.0,-2.0,0.0,1.0,4.0
1701719548.255339,-4.0,1.0,-2.0,-1.0,1.0,0.0,-5.0,0.0
1701719548.255339,1.0,0.0,-2.0,-1.0,-2.0,-1.0,-3.0,-3.0
1701719548.285337,-2.0,1.0,0.0,-2.0,-2.0,-3.0,-1.0,-3.0
1701719548.285337,0.0,-1.0,-2.0,-1.0,-2.0,-2.0,0.0,1.0
1701719548.285337,0.0,-2.0,-2.0,1.0,-2.0,0.0,-2.0,-2.0
1701719548.285337,0.0,-3.0,0.0,0.0,0.0,0.0,-1.0,-1.0
1701719548.285337,-1.0,-3.0,-1.0,-1.0,-1.0,-2.0,-2.0,-2.0
1701719548.285337,-2.0,1.0,-1.0,-1.0,-2.0,-1.0,-3.0,-5.0
1701719548.285337,-2.0,0.0,-1.0,-2.0,1.0,0.0,-2.0,-1.0
1701719548.285337,-1.0,-1.0,-1.0,-1.0,-1.0,-2.0,0.0,-2.0
1701719548.3056483,0.0,-1.0,-2.0,-3.0,-1.0,0.0,3.0,1.0
1701719548.3056483,0.0,-2.0,-2.0,0.0,1.0,-1.0,1.0,-2.0
1701719548.315336,3.0,0.0,-2.0,0.0,-1.0,0.0,1.0,-2.0
1701719548.315336,-1.0,0.0,-2.0,0.0,-2.0,-2.0,0.0,1.0
1701719548.3253362,-2.0,1.0,-2.0,0.0,-1.0,-1.0,-2.0,-1.0
1701719548.3253362,-4.0,-3.0,-1.0,-2.0,-1.0,-1.0,-2.0,1.0
1701719548.335367,-2.0,-1.0,-2.0,-1.0,1.0,-2.0,-3.0,2.0
1701719548.335367,-2.0,-3.0,-2.0,0.0,-1.0,-1.0,0.0,0.0
1701719548.3557825,-1.0,-1.0,-2.0,-1.0,0.0,0.0,0.0,-1.0
1701719548.3557825,0.0,1.0,1.0,-2.0,-1.0,-2.0,0.0,-1.0
1701719548.3557825,-1.0,0.0,0.0,-2.0,-3.0,-1.0,-2.0,-2.0
1701719548.3557825,1.0,1.0,0.0,-1.0,-2.0,0.0,-1.0,-1.0
1701719548.365706,1.0,-1.0,0.0,-1.0,-1.0,-1.0,-1.0,-2.0
1701719548.365706,-1.0,-3.0,1.0,0.0,-2.0,0.0,0.0,-3.0
1701719548.3753736,-2.0,-2.0,0.0,-3.0,-4.0,0.0,0.0,-2.0
1701719548.3753736,-1.0,-3.0,-3.0,-2.0,-1.0,0.0,-1.0,-2.0
1701719548.3853354,-1.0,-1.0,-1.0,-3.0,-2.0,-3.0,-1.0,-1.0
1701719548.3853354,2.0,0.0,-1.0,0.0,0.0,-2.0,-4.0,-1.0
1701719548.3953612,1.0,-1.0,0.0,0.0,1.0,-4.0,0.0,1.0
1701719548.3953612,-3.0,-1.0,-2.0,-1.0,-1.0,-1.0,1.0,0.0
1701719548.4053378,0.0,-3.0,-1.0,-1.0,1.0,2.0,-1.0,0.0
1701719548.4053378,0.0,-1.0,-2.0,-1.0,-1.0,1.0,-1.0,0.0
1701719548.4053378,1.0,1.0,0.0,0.0,-1.0,-1.0,-2.0,-2.0
1701719548.4053378,0.0,1.0,0.0,-1.0,-2.0,-1.0,-3.0,-2.0
1701719548.425582,-1.0,1.0,-1.0,0.0,-3.0,-2.0,-2.0,-2.0
1701719548.4353414,-1.0,-1.0,-1.0,-1.0,-1.0,-1.0,-1.0,-4.0
1701719548.4353414,1.0,-2.0,-1.0,0.0,0.0,0.0,0.0,-2.0
1701719548.4353414,-1.0,0.0,-1.0,-2.0,1.0,-2.0,-1.0,0.0
1701719548.4453363,-1.0,-2.0,-1.0,-3.0,1.0,0.0,1.0,0.0
1701719548.4453363,-3.0,-1.0,-2.0,0.0,-2.0,-1.0,0.0,-4.0
1701719548.4556,-1.0,-2.0,-3.0,-2.0,-3.0,-1.0,1.0,-1.0
1701719548.4556,1.0,-1.0,-2.0,-2.0,-2.0,-1.0,-2.0,-1.0
1701719548.4656553,2.0,0.0,-1.0,0.0,0.0,-1.0,-2.0,-1.0
1701719548.4656553,-1.0,0.0,-1.0,-2.0,-1.0,-1.0,-3.0,-1.0
1701719548.4755962,-2.0,-2.0,-2.0,-1.0,0.0,-3.0,1.0,-2.0
1701719548.4755962,-3.0,1.0,1.0,0.0,-2.0,0.0,1.0,-1.0
1701719548.495339,-4.0,0.0,0.0,-2.0,-1.0,-2.0,-2.0,-1.0
1701719548.495339,1.0,-2.0,1.0,-2.0,0.0,0.0,-2.0,2.0
1701719548.495339,-3.0,-2.0,2.0,-3.0,-3.0,-1.0,-4.0,0.0
1701719548.495339,-2.0,-1.0,0.0,-2.0,0.0,-2.0,-3.0,0.0
1701719548.515337,-1.0,-2.0,-2.0,0.0,-2.0,0.0,0.0,-2.0
1701719548.515337,-2.0,-1.0,-3.0,-3.0,-1.0,-1.0,0.0,-1.0
1701719548.515337,-2.0,-2.0,-2.0,-2.0,-1.0,0.0,-2.0,-1.0
1701719548.515337,0.0,-2.0,-1.0,-2.0,-2.0,-1.0,-1.0,-1.0
1701719548.5256245,-2.0,0.0,-1.0,0.0,-1.0,1.0,-2.0,-1.0
1701719548.5256245,-2.0,0.0,-2.0,0.0,-1.0,-3.0,0.0,1.0
1701719548.5353363,0.0,1.0,-1.0,-1.0,-1.0,2.0,1.0,-1.0
1701719548.5353363,-1.0,1.0,-1.0,0.0,-2.0,0.0,0.0,-3.0
1701719548.5553346,-2.0,0.0,-3.0,-1.0,-2.0,-1.0,-2.0,-3.0
1701719548.5553346,-3.0,-1.0,-2.0,-1.0,-2.0,-1.0,-1.0,0.0
1701719548.5553346,-1.0,-1.0,-1.0,-1.0,-1.0,-2.0,-1.0,-3.0
1701719548.5553346,-1.0,-3.0,0.0,-1.0,-1.0,-2.0,-2.0,-1.0
1701719548.565601,0.0,0.0,-1.0,0.0,0.0,0.0,1.0,-1.0
1701719548.565601,-1.0,-2.0,-3.0,-1.0,0.0,-2.0,0.0,-1.0
1701719548.5756364,-3.0,-1.0,-1.0,5.0,-4.0,-1.0,-5.0,0.0
1701719548.5756364,0.0,-3.0,-1.0,-7.0,0.0,-1.0,-4.0,-3.0
1701719548.5856526,-1.0,0.0,-2.0,0.0,1.0,0.0,-2.0,-1.0
1701719548.5856526,2.0,-1.0,0.0,-3.0,0.0,-1.0,-2.0,1.0
1701719548.5955987,-1.0,0.0,-1.0,0.0,-1.0,-1.0,0.0,1.0
1701719548.5955987,0.0,1.0,0.0,1.0,-2.0,0.0,-1.0,0.0
1701719548.6274765,0.0,-3.0,-1.0,-3.0,-1.0,-1.0,-1.0,-1.0
1701719548.6274765,-2.0,-3.0,1.0,-1.0,-3.0,-1.0,0.0,-4.0
1701719548.6274765,-1.0,-1.0,-3.0,-3.0,-2.0,-2.0,-3.0,-1.0
1701719548.6274765,-2.0,0.0,0.0,1.0,0.0,0.0,-2.0,-1.0
1701719548.6274765,-2.0,-4.0,0.0,-2.0,-2.0,-2.0,-1.0,-1.0
1701719548.6274765,-2.0,-1.0,-2.0,0.0,-1.0,0.0,0.0,0.0
1701719548.6274765,-2.0,-1.0,1.0,-3.0,-1.0,-2.0,-1.0,-2.0
1701719548.6274765,-2.0,0.0,-2.0,0.0,0.0,-1.0,-2.0,1.0
1701719548.6477923,1.0,-2.0,-2.0,-2.0,-2.0,-1.0,-1.0,0.0
1701719548.6477923,0.0,-2.0,0.0,-1.0,-1.0,-1.0,0.0,0.0
1701719548.6574779,1.0,-1.0,0.0,-2.0,0.0,-1.0,0.0,0.0
1701719548.6574779,-1.0,0.0,-1.0,0.0,-1.0,0.0,1.0,-3.0
1701719548.667833,-3.0,1.0,0.0,0.0,0.0,-1.0,-2.0,-1.0
1701719548.667833,-1.0,1.0,-1.0,-1.0,-2.0,-2.0,-2.0,-3.0
1701719548.667833,-1.0,-1.0,-1.0,-2.0,-1.0,-1.0,0.0,-1.0
1701719548.667833,-2.0,-2.0,-2.0,0.0,-1.0,-3.0,0.0,-2.0
1701719548.6974766,-1.0,0.0,-1.0,0.0,0.0,-1.0,-1.0,-2.0
1701719548.6974766,-1.0,0.0,-2.0,-2.0,-2.0,0.0,-2.0,-2.0
1701719548.6974766,0.0,0.0,-3.0,0.0,-1.0,0.0,-2.0,-1.0
1701719548.6974766,1.0,-1.0,-1.0,-1.0,-1.0,0.0,0.0,0.0
1701719548.7077155,-1.0,-1.0,-1.0,-2.0,-1.0,-1.0,-1.0,0.0
1701719548.7077155,1.0,-2.0,-2.0,-2.0,-1.0,0.0,-2.0,1.0
1701719548.7174778,0.0,-2.0,-1.0,-1.0,-1.0,-1.0,-1.0,-1.0
1701719548.7174778,-2.0,-1.0,-1.0,0.0,-2.0,0.0,0.0,-1.0
1701719548.727608,-3.0,-2.0,-1.0,-2.0,-1.0,0.0,-1.0,0.0
1701719548.727608,-3.0,-2.0,0.0,-2.0,-1.0,1.0,0.0,0.0
1701719548.727608,-1.0,0.0,-1.0,-1.0,-1.0,-3.0,0.0,-1.0
1701719548.727608,-4.0,1.0,-2.0,-1.0,0.0,0.0,0.0,0.0
1701719548.757482,-1.0,2.0,-2.0,2.0,-1.0,1.0,-3.0,0.0
1701719548.757482,-1.0,1.0,-2.0,1.0,-2.0,-1.0,0.0,-1.0
1701719548.757482,1.0,-2.0,0.0,-1.0,0.0,-1.0,-2.0,-1.0
1701719548.757482,0.0,-1.0,0.0,-1.0,-3.0,-2.0,-1.0,-1.0
1701719548.767684,0.0,-2.0,0.0,-3.0,0.0,-2.0,-2.0,-2.0
1701719548.767684,0.0,-1.0,-1.0,-1.0,1.0,-1.0,0.0,-2.0
1701719548.7974756,0.0,-1.0,-2.0,-1.0,0.0,0.0,0.0,0.0
1701719548.7974756,-1.0,-1.0,-2.0,0.0,-1.0,-1.0,-4.0,-2.0
1701719548.7974756,0.0,-1.0,-1.0,1.0,-1.0,0.0,-1.0,-3.0
1701719548.7974756,-1.0,-2.0,-1.0,1.0,-2.0,0.0,-2.0,-1.0
1701719548.7974756,-1.0,0.0,0.0,-1.0,-1.0,-2.0,0.0,-2.0
1701719548.7974756,-1.0,-2.0,0.0,-1.0,-1.0,-1.0,-2.0,-1.0
1701719548.8174775,0.0,-1.0,-1.0,-1.0,-3.0,-2.0,1.0,0.0
1701719548.8174775,-2.0,-2.0,-2.0,0.0,1.0,-2.0,-1.0,1.0
1701719548.8174775,0.0,-1.0,-3.0,-1.0,-1.0,-2.0,-2.0,-1.0
1701719548.8174775,1.0,-1.0,-2.0,-1.0,-3.0,-1.0,0.0,-1.0
1701719548.8274868,2.0,0.0,-3.0,-1.0,-1.0,-1.0,-1.0,-2.0
1701719548.8274868,-1.0,1.0,0.0,-1.0,-1.0,0.0,1.0,-2.0
1701719548.8374763,-2.0,0.0,-2.0,-1.0,0.0,-1.0,-1.0,-1.0
1701719548.8374763,-2.0,-1.0,-1.0,0.0,-1.0,-2.0,-1.0,-1.0
1701719548.8475082,-3.0,-1.0,-1.0,-1.0,-2.0,-1.0,-1.0,-1.0
1701719548.8475082,-2.0,-2.0,0.0,-2.0,-3.0,-2.0,-3.0,-2.0
1701719548.8475082,-2.0,-3.0,0.0,0.0,0.0,1.0,-1.0,0.0
1701719548.8475082,0.0,-3.0,-1.0,-2.0,-2.0,1.0,-2.0,-3.0
1701719548.8774793,-1.0,-1.0,-1.0,0.0,-1.0,-1.0,-1.0,0.0
1701719548.8774793,-2.0,-1.0,1.0,-1.0,-1.0,-1.0,0.0,2.0
1701719548.8774793,-3.0,-1.0,-2.0,0.0,-2.0,-1.0,0.0,0.0
1701719548.8774793,-1.0,-2.0,-2.0,1.0,0.0,-2.0,2.0,0.0
1701719548.8874753,-2.0,-2.0,-3.0,-1.0,-1.0,0.0,-2.0,-1.0
1701719548.8874753,0.0,-1.0,-3.0,0.0,-2.0,-3.0,-2.0,-4.0
1701719548.8978653,-2.0,2.0,-1.0,-4.0,-1.0,0.0,-2.0,0.0
1701719548.8978653,0.0,-1.0,-1.0,-2.0,1.0,-2.0,-1.0,0.0
1701719548.9074814,-3.0,-2.0,-1.0,-3.0,0.0,-1.0,-1.0,-2.0
1701719548.9074814,-2.0,0.0,-1.0,-2.0,0.0,-2.0,-1.0,0.0
1701719548.9074814,-2.0,-3.0,-2.0,0.0,0.0,0.0,-1.0,-2.0
1701719548.9074814,-2.0,0.0,-1.0,0.0,-1.0,-1.0,-3.0,-2.0
1701719548.9278767,1.0,-1.0,0.0,0.0,-1.0,-2.0,0.0,-1.0
1701719548.937481,1.0,-2.0,0.0,0.0,-1.0,1.0,-3.0,1.0
1701719548.937481,-1.0,-1.0,1.0,-1.0,-2.0,0.0,-1.0,-2.0
1701719548.937481,-3.0,-1.0,0.0,0.0,0.0,-1.0,-2.0,-1.0
1701719548.947477,-3.0,-2.0,0.0,0.0,0.0,-1.0,0.0,-1.0
1701719548.947477,-2.0,-1.0,-3.0,0.0,0.0,-3.0,-1.0,-2.0
1701719548.957744,-1.0,1.0,-2.0,-2.0,-1.0,-1.0,-1.0,-2.0
1701719548.957744,0.0,1.0,-1.0,-3.0,0.0,0.0,0.0,-1.0
1701719548.9678621,-1.0,2.0,0.0,0.0,-2.0,-1.0,-1.0,-2.0
1701719548.9678621,0.0,-3.0,0.0,-2.0,0.0,0.0,0.0,-1.0
1701719548.9678621,0.0,-2.0,-2.0,-1.0,-2.0,-1.0,-2.0,1.0
1701719548.9678621,-1.0,-2.0,-3.0,-2.0,-1.0,-1.0,-1.0,-2.0
1701719548.9974816,-1.0,-1.0,-3.0,-1.0,-1.0,-1.0,-2.0,1.0
1701719548.9974816,-1.0,0.0,-2.0,-1.0,0.0,-1.0,0.0,0.0
1701719548.9974816,-1.0,-2.0,-1.0,-1.0,-1.0,-1.0,-2.0,-3.0
1701719548.9974816,-1.0,-1.0,-1.0,-1.0,1.0,0.0,-1.0,-1.0
1701719549.0074751,-2.0,-2.0,-1.0,-2.0,0.0,-2.0,-2.0,0.0
1701719549.0074751,-1.0,-2.0,-2.0,-1.0,1.0,0.0,-2.0,-2.0
1701719549.0178752,-1.0,-3.0,-1.0,-1.0,-1.0,0.0,1.0,-2.0
1701719549.0178752,-1.0,0.0,-1.0,0.0,-1.0,0.0,-2.0,0.0
1701719549.0279315,0.0,-2.0,0.0,0.0,0.0,-1.0,-1.0,-2.0
1701719549.0279315,-2.0,-1.0,0.0,-2.0,-2.0,-1.0,0.0,-1.0
1701719549.0279315,0.0,1.0,-1.0,-2.0,-2.0,-2.0,0.0,-2.0
1701719549.0279315,0.0,-2.0,-1.0,-1.0,-2.0,-2.0,-1.0,1.0
1701719549.0474763,-1.0,-1.0,0.0,1.0,-2.0,-1.0,-1.0,1.0
1701719549.0574782,-2.0,-1.0,1.0,-1.0,-1.0,-2.0,-1.0,-2.0
1701719549.0574782,-3.0,-1.0,-2.0,0.0,-2.0,-1.0,0.0,-2.0
1701719549.0574782,-1.0,0.0,-2.0,-2.0,0.0,0.0,-2.0,-4.0
1701719549.067816,0.0,1.0,-2.0,-4.0,-2.0,1.0,-3.0,-1.0
1701719549.067816,-1.0,0.0,-1.0,-2.0,0.0,-2.0,-1.0,-1.0
1701719549.077764,-3.0,-3.0,0.0,1.0,-2.0,0.0,0.0,0.0
1701719549.077764,0.0,-1.0,3.0,-2.0,-1.0,-2.0,-2.0,-1.0
1701719549.087808,-2.0,-2.0,-2.0,-1.0,1.0,0.0,-2.0,-1.0
1701719549.087808,-2.0,-1.0,-3.0,-2.0,-2.0,-2.0,0.0,-1.0
1701719549.087808,0.0,-1.0,-3.0,-2.0,0.0,-1.0,-3.0,0.0
1701719549.087808,0.0,1.0,-2.0,-2.0,-2.0,-1.0,2.0,2.0
1701719549.1320198,0.0,0.0,-2.0,0.0,-2.0,-2.0,0.0,-2.0
1701719549.1320198,-2.0,-2.0,0.0,0.0,-3.0,-2.0,-2.0,-2.0
1701719549.1320198,-4.0,-1.0,-2.0,-1.0,-1.0,-1.0,-2.0,-2.0
1701719549.1320198,-2.0,-2.0,0.0,-1.0,-1.0,-1.0,-1.0,-2.0
1701719549.1320198,-2.0,-3.0,0.0,1.0,-1.0,1.0,-1.0,-2.0
1701719549.1320198,0.0,-2.0,-1.0,0.0,-2.0,1.0,-1.0,0.0
1701719549.1399415,0.0,1.0,-1.0,-1.0,-3.0,-1.0,0.0,0.0
1701719549.1399415,1.0,2.0,-2.0,-1.0,-2.0,-2.0,0.0,-2.0
1701719549.1552532,-1.0,-1.0,-1.0,-2.0,-2.0,-1.0,-3.0,-1.0
1701719549.1552532,-1.0,-1.0,-2.0,0.0,0.0,0.0,-1.0,-1.0
1701719549.1562114,2.0,-1.0,-1.0,-1.0,0.0,-1.0,-1.0,-1.0
1701719549.1562114,1.0,-4.0,-2.0,-1.0,-1.0,-1.0,-1.0,-1.0
1701719549.1704175,-1.0,-2.0,0.0,0.0,-1.0,-3.0,1.0,-1.0
1701719549.1704175,-2.0,0.0,0.0,-1.0,-1.0,-1.0,-2.0,-2.0
1701719549.180516,-1.0,0.0,0.0,-1.0,0.0,-1.0,-2.0,1.0
1701719549.180516,-1.0,-3.0,-2.0,-1.0,1.0,0.0,-1.0,-1.0
1701719549.1904042,-1.0,-1.0,-2.0,1.0,-1.0,0.0,1.0,-1.0
1701719549.1904042,-1.0,-2.0,-2.0,1.0,-1.0,1.0,0.0,0.0
1701719549.1904042,1.0,0.0,-1.0,1.0,-2.0,-2.0,0.0,0.0
1701719549.1904042,-2.0,-2.0,-2.0,1.0,-1.0,-1.0,-1.0,-1.0
1701719549.210403,-1.0,-1.0,0.0,-2.0,-3.0,-4.0,-2.0,-1.0
1701719549.210403,-2.0,-1.0,-1.0,-4.0,-2.0,-1.0,0.0,0.0
1701719549.210403,-1.0,0.0,-1.0,-2.0,0.0,-1.0,-3.0,-1.0
1701719549.210403,0.0,2.0,-2.0,-1.0,-1.0,-2.0,-2.0,-3.0
1701719549.2304285,-1.0,1.0,-2.0,-2.0,0.0,-2.0,0.0,-2.0
1701719549.2304285,-2.0,-2.0,0.0,-1.0,-1.0,0.0,-2.0,-1.0
1701719549.2304285,-2.0,-2.0,1.0,-3.0,1.0,-2.0,-1.0,-3.0
1701719549.2304285,-1.0,-1.0,-3.0,-2.0,-1.0,-1.0,-1.0,0.0
1701719549.2507212,-3.0,-2.0,-2.0,0.0,2.0,0.0,0.0,-2.0
1701719549.2507212,0.0,0.0,-1.0,-2.0,-1.0,-1.0,-2.0,0.0
1701719549.2604585,-2.0,-1.0,-1.0,0.0,-2.0,-1.0,-2.0,1.0
1701719549.2604585,-1.0,0.0,-2.0,1.0,-3.0,1.0,0.0,0.0
1701719549.270407,-1.0,0.0,1.0,-1.0,-1.0,-2.0,-2.0,-1.0
1701719549.270407,-2.0,1.0,-1.0,0.0,1.0,-3.0,0.0,0.0
1701719549.270407,0.0,-2.0,-2.0,-2.0,0.0,-2.0,-1.0,-2.0
1701719549.270407,-3.0,0.0,0.0,-1.0,-1.0,-1.0,0.0,-2.0
1701719549.2904153,-1.0,-2.0,-1.0,-2.0,-2.0,-1.0,-2.0,0.0
1701719549.2904153,-2.0,0.0,-1.0,0.0,-1.0,1.0,-2.0,-1.0
1701719549.2904153,-2.0,0.0,0.0,0.0,0.0,1.0,-1.0,-1.0
1701719549.2904153,-1.0,-2.0,-2.0,-2.0,-3.0,0.0,-1.0,0.0
1701719549.3108215,-1.0,0.0,-2.0,-1.0,-1.0,-2.0,0.0,-1.0
1701719549.3108215,1.0,-1.0,-2.0,0.0,0.0,-2.0,0.0,-2.0
1701719549.3108215,-2.0,-2.0,-2.0,1.0,-1.0,0.0,0.0,-3.0
1701719549.3108215,-2.0,-3.0,-1.0,-1.0,-1.0,-1.0,-1.0,-2.0
1701719549.340511,0.0,0.0,-3.0,0.0,-1.0,2.0,-2.0,1.0
1701719549.340511,-3.0,-1.0,-1.0,-2.0,-1.0,-2.0,-1.0,-1.0
1701719549.340511,-1.0,-1.0,-2.0,-2.0,1.0,-1.0,-1.0,-1.0
1701719549.340511,0.0,-2.0,1.0,-1.0,-2.0,-3.0,-1.0,0.0
1701719549.3508205,-2.0,0.0,0.0,-3.0,-1.0,-1.0,-1.0,-2.0
1701719549.3508205,-2.0,0.0,0.0,-2.0,-1.0,-1.0,-1.0,-1.0
1701719549.3508205,0.0,0.0,-2.0,-1.0,-2.0,-1.0,-1.0,0.0
1701719549.3508205,-3.0,-1.0,-2.0,-1.0,1.0,-2.0,-2.0,1.0
1701719549.3707936,-1.0,0.0,0.0,-1.0,0.0,0.0,-1.0,-1.0
1701719549.3707936,0.0,-4.0,-2.0,-1.0,1.0,-1.0,-1.0,-2.0
1701719549.3707936,-1.0,-2.0,0.0,-3.0,-1.0,-1.0,-2.0,0.0
1701719549.3707936,-1.0,-1.0,-3.0,-2.0,-2.0,-3.0,-4.0,-1.0
1701719549.3904028,0.0,-1.0,1.0,-1.0,-1.0,-1.0,-1.0,0.0
1701719549.3904028,-2.0,0.0,0.0,-2.0,-2.0,-2.0,-1.0,-2.0
1701719549.3904028,-2.0,0.0,-3.0,0.0,-1.0,-1.0,1.0,-1.0
1701719549.3904028,-1.0,-1.0,-2.0,0.0,0.0,0.0,0.0,-4.0
1701719549.4107146,-3.0,-1.0,-1.0,0.0,0.0,-1.0,0.0,1.0
1701719549.4107146,0.0,-1.0,-2.0,-2.0,-1.0,-2.0,-1.0,-1.0
1701719549.4206715,-1.0,-2.0,-2.0,-1.0,-2.0,-1.0,-1.0,-2.0
1701719549.4206715,-2.0,-1.0,-2.0,-1.0,-1.0,-1.0,-3.0,-1.0
1701719549.4304712,-1.0,-2.0,-1.0,0.0,0.0,0.0,-1.0,-1.0
1701719549.4304712,-1.0,-2.0,0.0,-2.0,-1.0,-2.0,-2.0,-1.0
1701719549.450463,-1.0,-1.0,-2.0,-1.0,-1.0,-1.0,-3.0,-1.0
1701719549.450463,1.0,-2.0,0.0,-1.0,0.0,-1.0,-1.0,-2.0
1701719549.450463,0.0,0.0,0.0,0.0,-1.0,0.0,-1.0,-2.0
1701719549.450463,-2.0,0.0,-1.0,-1.0,0.0,-1.0,-2.0,-2.0
1701719549.450463,-1.0,0.0,-2.0,-1.0,0.0,-2.0,0.0,-2.0
1701719549.450463,0.0,0.0,0.0,2.0,-1.0,0.0,-1.0,1.0
1701719549.471039,-1.0,0.0,-2.0,-1.0,0.0,-2.0,-1.0,-1.0
1701719549.471039,-1.0,-4.0,-1.0,1.0,-1.0,-2.0,-2.0,0.0
1701719549.471039,-3.0,-3.0,0.0,0.0,-1.0,-1.0,-1.0,0.0
1701719549.471039,-1.0,0.0,-1.0,-3.0,-3.0,-1.0,-1.0,0.0
1701719549.5006175,-3.0,1.0,-1.0,-3.0,-3.0,-1.0,-1.0,-1.0
1701719549.5006175,-2.0,1.0,-1.0,-1.0,-4.0,-2.0,0.0,-2.0
1701719549.5006175,0.0,-1.0,0.0,-2.0,-2.0,-1.0,-1.0,-2.0
1701719549.5006175,-1.0,-1.0,-1.0,-2.0,-1.0,-3.0,1.0,0.0
1701719549.510881,-1.0,-1.0,-1.0,0.0,1.0,-3.0,0.0,0.0
1701719549.510881,0.0,0.0,-2.0,-2.0,0.0,0.0,0.0,-1.0
1701719549.510881,0.0,-1.0,-3.0,-1.0,-2.0,-1.0,1.0,0.0
1701719549.510881,-1.0,-1.0,-3.0,-1.0,-1.0,0.0,-1.0,-1.0
1701719549.5406268,-1.0,-1.0,-3.0,-2.0,0.0,-1.0,-1.0,-2.0
1701719549.5406268,-2.0,-1.0,-3.0,1.0,-1.0,-1.0,-2.0,-1.0
1701719549.5406268,-2.0,-2.0,-2.0,0.0,0.0,-2.0,-2.0,-2.0
1701719549.5406268,-1.0,-1.0,-1.0,-1.0,1.0,-1.0,-1.0,-1.0
1701719549.570623,-2.0,-3.0,-2.0,-1.0,-1.0,0.0,-2.0,-1.0
1701719549.570623,-1.0,-1.0,1.0,-2.0,-2.0,2.0,0.0,0.0
1701719549.570623,1.0,1.0,0.0,-1.0,-1.0,-2.0,-2.0,-2.0
1701719549.570623,-1.0,-1.0,0.0,-1.0,-1.0,-2.0,1.0,-2.0
1701719549.570623,0.0,0.0,-1.0,0.0,0.0,-3.0,0.0,0.0
1701719549.570623,-1.0,-1.0,0.0,-1.0,-1.0,-2.0,-1.0,-2.0
1701719549.570623,-2.0,0.0,-1.0,1.0,-4.0,0.0,-1.0,0.0
1701719549.570623,0.0,0.0,-1.0,-1.0,-2.0,-1.0,0.0,-2.0
1701719549.590953,1.0,-2.0,0.0,-1.0,0.0,-3.0,-1.0,-1.0
1701719549.590953,0.0,-2.0,-1.0,-2.0,0.0,0.0,-1.0,-2.0
1701719549.590953,0.0,0.0,-1.0,-1.0,0.0,-1.0,0.0,0.0
1701719549.590953,-2.0,1.0,1.0,-3.0,0.0,0.0,0.0,-1.0
1701719549.6306229,0.0,0.0,-2.0,-2.0,-2.0,-1.0,-1.0,-1.0
1701719549.6306229,0.0,-1.0,-2.0,-3.0,0.0,-2.0,-1.0,0.0
1701719549.6406174,-1.0,-1.0,0.0,-1.0,0.0,-2.0,0.0,-1.0
1701719549.6406174,-1.0,0.0,-1.0,0.0,-1.0,-1.0,-2.0,-1.0
1701719549.6406174,-2.0,-2.0,-3.0,-2.0,0.0,0.0,-2.0,-1.0
1701719549.6406174,0.0,-1.0,-3.0,0.0,-1.0,-1.0,0.0,-1.0
1701719549.6406174,-2.0,-2.0,-2.0,0.0,-1.0,0.0,0.0,-2.0
1701719549.6406174,-2.0,-1.0,-2.0,0.0,-2.0,0.0,-1.0,-2.0
1701719549.6510243,0.0,-1.0,-1.0,-2.0,0.0,0.0,0.0,-1.0
1701719549.6510243,-1.0,0.0,-2.0,-2.0,-1.0,-1.0,-2.0,1.0
1701719549.6510243,-2.0,-1.0,-2.0,-1.0,-1.0,-1.0,0.0,0.0
1701719549.6510243,-1.0,-2.0,-3.0,-1.0,-2.0,-1.0,0.0,-1.0
1701719549.6833723,1.0,-3.0,-2.0,-2.0,-1.0,-1.0,-2.0,-3.0
1701719549.6833723,-3.0,-2.0,0.0,-1.0,0.0,-2.0,-2.0,-2.0
1701719549.6833723,-1.0,-3.0,0.0,-1.0,-1.0,-2.0,-3.0,-3.0
1701719549.6833723,-1.0,0.0,0.0,-1.0,0.0,-1.0,-2.0,0.0
1701719549.693104,0.0,0.0,-1.0,-1.0,-2.0,-2.0,-1.0,-3.0
1701719549.693104,1.0,15.0,-1.0,-1.0,-2.0,1.0,-1.0,-1.0
1701719549.693104,0.0,8.0,-2.0,-2.0,-3.0,-3.0,-1.0,-1.0
1701719549.693104,-2.0,1.0,-2.0,1.0,-2.0,1.0,-3.0,-2.0
1701719549.713102,-1.0,-7.0,1.0,-2.0,0.0,0.0,-1.0,0.0
1701719549.713102,-3.0,-12.0,0.0,-1.0,-1.0,0.0,-1.0,1.0
1701719549.713102,-3.0,-9.0,-1.0,-1.0,1.0,1.0,-2.0,0.0
1701719549.713102,-1.0,-4.0,-2.0,1.0,1.0,-3.0,-1.0,-2.0
1701719549.733344,1.0,-3.0,-2.0,0.0,-2.0,0.0,0.0,-3.0
1701719549.733344,0.0,-5.0,-1.0,1.0,0.0,-2.0,-1.0,-1.0
1701719549.733344,0.0,-3.0,-1.0,-1.0,-1.0,0.0,-1.0,1.0
1701719549.733344,1.0,-3.0,-2.0,-3.0,-1.0,0.0,0.0,0.0
1701719549.7531083,-1.0,2.0,0.0,1.0,-2.0,-2.0,-2.0,-2.0
1701719549.7531083,-2.0,-1.0,0.0,1.0,-2.0,-3.0,-1.0,0.0
1701719549.7531083,-2.0,-1.0,-2.0,-1.0,0.0,-1.0,0.0,-1.0
1701719549.7531083,-2.0,-2.0,0.0,-1.0,0.0,-1.0,0.0,-1.0
1701719549.7731695,-2.0,3.0,-3.0,0.0,0.0,-1.0,1.0,1.0
1701719549.7731695,1.0,-2.0,-3.0,-1.0,-3.0,-1.0,-1.0,-1.0
1701719549.7731695,0.0,1.0,0.0,0.0,-2.0,0.0,0.0,-3.0
1701719549.7831914,1.0,-1.0,-1.0,-2.0,-1.0,-1.0,-2.0,-1.0
1701719549.8031895,-1.0,1.0,-1.0,-1.0,0.0,-2.0,-2.0,-1.0
1701719549.8031895,1.0,0.0,-1.0,0.0,-2.0,0.0,-1.0,-2.0
1701719549.8031895,1.0,-2.0,-1.0,0.0,0.0,-1.0,-1.0,-2.0
1701719549.8031895,-2.0,0.0,-2.0,0.0,-1.0,-1.0,0.0,-2.0
1701719549.8135595,-1.0,1.0,-1.0,-2.0,-3.0,-2.0,0.0,0.0
1701719549.8135595,-1.0,0.0,0.0,-1.0,0.0,-2.0,-3.0,-3.0
1701719549.8135595,-2.0,-1.0,0.0,-1.0,-2.0,-1.0,0.0,-1.0
1701719549.8135595,0.0,-1.0,0.0,-1.0,-1.0,0.0,-2.0,-1.0
1701719549.8331883,-1.0,-2.0,-1.0,-1.0,0.0,0.0,0.0,0.0
1701719549.8331883,-2.0,-1.0,-2.0,0.0,-1.0,-1.0,-3.0,-1.0
1701719549.8331883,-1.0,-1.0,-2.0,1.0,-2.0,-2.0,-4.0,0.0
1701719549.8331883,-1.0,1.0,-1.0,-1.0,0.0,0.0,-1.0,1.0
1701719549.8535624,-1.0,0.0,-1.0,0.0,0.0,0.0,-1.0,-2.0
1701719549.8535624,0.0,-2.0,-1.0,-2.0,-2.0,-1.0,-1.0,0.0
1701719549.8535624,-1.0,-1.0,-1.0,-2.0,-1.0,-1.0,-1.0,-2.0
1701719549.8535624,1.0,1.0,-1.0,-2.0,-1.0,-1.0,-1.0,-4.0
1701719549.8736188,-1.0,0.0,-3.0,-2.0,-1.0,-1.0,0.0,-1.0
1701719549.8736188,-1.0,1.0,-1.0,-1.0,0.0,-1.0,0.0,-1.0
1701719549.8736188,-1.0,-2.0,-2.0,0.0,0.0,-1.0,0.0,0.0
1701719549.8736188,-1.0,-3.0,0.0,-1.0,-2.0,-4.0,0.0,-1.0
1701719549.8932223,1.0,0.0,0.0,0.0,-1.0,1.0,-1.0,0.0
1701719549.8932223,-2.0,-2.0,-2.0,-2.0,0.0,-1.0,0.0,-1.0
1701719549.8932223,-1.0,-3.0,0.0,-1.0,-2.0,-2.0,-1.0,-2.0
1701719549.8932223,-1.0,-2.0,0.0,-1.0,-1.0,-1.0,-3.0,-3.0
1701719549.9135587,-2.0,-2.0,-1.0,-3.0,0.0,-2.0,-2.0,-1.0
1701719549.9135587,-1.0,0.0,0.0,1.0,-1.0,-1.0,-1.0,-2.0
1701719549.9135587,0.0,1.0,-1.0,-1.0,-2.0,-1.0,-2.0,0.0
1701719549.9135587,-2.0,-1.0,-1.0,-2.0,-2.0,-1.0,0.0,-1.0
1701719549.9332066,-1.0,-5.0,-1.0,-3.0,-1.0,-2.0,0.0,-1.0
1701719549.9332066,0.0,-2.0,-2.0,-1.0,-1.0,0.0,0.0,-4.0
1701719549.9332066,-1.0,-2.0,-2.0,-3.0,-1.0,0.0,-1.0,-1.0
1701719549.9332066,-2.0,0.0,0.0,0.0,-1.0,0.0,-1.0,1.0
1701719549.9533756,-1.0,-2.0,2.0,2.0,-2.0,1.0,-1.0,1.0
1701719549.9533756,-1.0,-1.0,-1.0,1.0,-3.0,-1.0,-2.0,-1.0
1701719549.9533756,-1.0,-1.0,-1.0,0.0,-2.0,-1.0,-1.0,-1.0
1701719549.9533756,0.0,0.0,-3.0,0.0,-2.0,-1.0,-1.0,0.0
1701719549.9732218,1.0,1.0,-3.0,-3.0,-2.0,-1.0,-1.0,0.0
1701719549.9732218,-2.0,0.0,-1.0,-2.0,0.0,-1.0,0.0,-1.0
1701719549.9732218,-1.0,1.0,-1.0,-1.0,1.0,-2.0,-1.0,-4.0
1701719549.9732218,-1.0,0.0,0.0,-1.0,1.0,-2.0,-1.0,-2.0
1701719549.9931903,-1.0,-3.0,0.0,1.0,-1.0,-2.0,-2.0,-1.0
1701719549.9931903,-1.0,-3.0,0.0,-2.0,-1.0,0.0,-1.0,0.0
1701719549.9931903,0.0,-2.0,-2.0,-3.0,-3.0,-2.0,-1.0,-2.0
1701719549.9931903,-1.0,-1.0,0.0,-1.0,-1.0,-2.0,-1.0,0.0
1701719550.0231874,-1.0,-1.0,-1.0,0.0,-3.0,0.0,-2.0,-1.0
1701719550.0231874,0.0,-2.0,-1.0,-2.0,-1.0,-3.0,-2.0,1.0
1701719550.0231874,0.0,0.0,0.0,0.0,-1.0,-1.0,0.0,0.0
1701719550.0231874,0.0,-2.0,-1.0,-1.0,0.0,-4.0,-1.0,-1.0
1701719550.0332384,-1.0,2.0,-2.0,-2.0,0.0,-2.0,0.0,-1.0
1701719550.0332384,-1.0,-3.0,-1.0,0.0,0.0,1.0,-1.0,-2.0
1701719550.0332384,-1.0,0.0,-1.0,-1.0,-1.0,-2.0,-1.0,-2.0
1701719550.0332384,-2.0,-1.0,-1.0,-2.0,-3.0,-1.0,-1.0,-1.0
1701719550.0634577,0.0,-1.0,0.0,-3.0,0.0,0.0,-1.0,-1.0
1701719550.0634577,-1.0,0.0,-1.0,-1.0,-1.0,0.0,0.0,1.0
1701719550.0634577,1.0,0.0,-1.0,1.0,2.0,-1.0,-1.0,-1.0
1701719550.0634577,0.0,0.0,-1.0,-3.0,-2.0,0.0,-1.0,0.0
1701719550.0931876,-3.0,-1.0,-3.0,1.0,-3.0,0.0,-2.0,-1.0
1701719550.0931876,-3.0,-2.0,-2.0,0.0,-2.0,-2.0,-2.0,-2.0
1701719550.0931876,-2.0,-3.0,1.0,-1.0,-1.0,-1.0,-1.0,1.0
1701719550.0931876,-2.0,-1.0,-2.0,1.0,-1.0,1.0,0.0,0.0
1701719550.0931876,-1.0,2.0,-1.0,0.0,-1.0,0.0,-2.0,-1.0
1701719550.0931876,0.0,-2.0,-1.0,-1.0,-1.0,-1.0,-2.0,-2.0
1701719550.0931876,-1.0,-4.0,-1.0,0.0,-2.0,0.0,-1.0,-1.0
1701719550.0931876,0.0,-1.0,0.0,-1.0,-1.0,0.0,0.0,-1.0
1701719550.1131895,-3.0,-1.0,-1.0,-2.0,-1.0,-2.0,0.0,-1.0
1701719550.1131895,-2.0,0.0,-1.0,0.0,-2.0,-1.0,-2.0,-1.0
1701719550.1131895,-1.0,0.0,-2.0,-2.0,0.0,-1.0,0.0,-1.0
1701719550.1131895,-1.0,0.0,0.0,-1.0,1.0,1.0,-1.0,0.0
1701719550.1334713,1.0,0.0,1.0,1.0,0.0,-2.0,-2.0,0.0
1701719550.1334713,-1.0,0.0,1.0,-3.0,-1.0,0.0,-3.0,-1.0
1701719550.1334713,-1.0,1.0,0.0,-2.0,-2.0,2.0,-3.0,-1.0
1701719550.1334713,-1.0,0.0,-1.0,-1.0,-2.0,-1.0,0.0,-4.0
1701719550.1535268,1.0,-2.0,0.0,-1.0,-1.0,-2.0,-3.0,-2.0
1701719550.1535268,0.0,-1.0,-2.0,-2.0,0.0,-1.0,0.0,-1.0
1701719550.1535268,0.0,-4.0,0.0,0.0,-2.0,0.0,0.0,-1.0
1701719550.1535268,0.0,-2.0,-1.0,-1.0,-2.0,0.0,0.0,-1.0
1701719550.1831872,-1.0,-1.0,-1.0,0.0,-2.0,-2.0,-1.0,-2.0
1701719550.1831872,0.0,0.0,-1.0,-1.0,0.0,-1.0,-1.0,0.0
1701719550.1831872,-1.0,2.0,-1.0,-2.0,-1.0,-2.0,-1.0,-1.0
1701719550.1831872,-1.0,0.0,-2.0,-1.0,-2.0,-2.0,-2.0,0.0
1701719550.195891,-3.0,-2.0,-2.0,-1.0,-1.0,-1.0,2.0,-2.0
1701719550.195891,-1.0,-3.0,-1.0,-1.0,-1.0,-1.0,1.0,-2.0
1701719550.1969833,1.0,0.0,0.0,0.0,-2.0,-1.0,-1.0,0.0
1701719550.1969833,-2.0,0.0,-2.0,-1.0,0.0,-1.0,-4.0,-1.0
1701719550.218833,0.0,-1.0,-2.0,0.0,0.0,0.0,-2.0,1.0
1701719550.219854,-1.0,0.0,0.0,0.0,-2.0,-2.0,-1.0,1.0
1701719550.219854,0.0,-1.0,-1.0,-1.0,0.0,-3.0,-2.0,-1.0
1701719550.219854,-1.0,-2.0,0.0,1.0,0.0,-2.0,-1.0,-2.0
1701719550.246137,-2.0,-2.0,0.0,-2.0,-1.0,-3.0,-1.0,0.0
1701719550.246137,-2.0,-1.0,0.0,0.0,-1.0,0.0,1.0,-1.0
1701719550.246137,-2.0,-2.0,-1.0,-1.0,-1.0,-1.0,0.0,-2.0
1701719550.246137,-2.0,0.0,0.0,-2.0,-2.0,-2.0,-2.0,-1.0
1701719550.2561374,-2.0,-1.0,1.0,0.0,0.0,0.0,-2.0,-2.0
1701719550.2561374,0.0,0.0,-3.0,-3.0,0.0,0.0,0.0,-3.0
1701719550.2561374,0.0,0.0,-1.0,0.0,-2.0,-2.0,-2.0,0.0
1701719550.2561374,1.0,-1.0,-2.0,0.0,-1.0,-1.0,0.0,-2.0
1701719550.276591,-1.0,-1.0,0.0,-2.0,-2.0,0.0,-1.0,-1.0
1701719550.276591,0.0,-2.0,-1.0,-1.0,-1.0,-1.0,-1.0,0.0
1701719550.276591,0.0,-1.0,-2.0,-1.0,-1.0,-1.0,1.0,-3.0
1701719550.276591,-1.0,-2.0,-2.0,-1.0,-1.0,-2.0,0.0,-1.0
1701719550.2961378,-1.0,-2.0,-1.0,0.0,-1.0,0.0,-2.0,1.0
1701719550.2961378,0.0,-1.0,0.0,-1.0,-1.0,-3.0,-1.0,0.0
1701719550.2961378,-3.0,-2.0,-2.0,-4.0,-1.0,0.0,-2.0,-1.0
1701719550.2961378,0.0,-1.0,-1.0,-3.0,-2.0,-2.0,0.0,-1.0
1701719550.3162918,-2.0,-2.0,-2.0,-1.0,0.0,-1.0,0.0,-2.0
1701719550.3162918,-1.0,-2.0,-1.0,0.0,0.0,-2.0,-1.0,-1.0
1701719550.3162918,-2.0,-1.0,1.0,1.0,0.0,-1.0,0.0,-1.0
1701719550.3162918,-1.0,0.0,-1.0,0.0,-1.0,-1.0,0.0,0.0
1701719550.3361385,-1.0,-2.0,0.0,-2.0,0.0,-2.0,0.0,0.0
1701719550.3361385,0.0,-1.0,-1.0,-2.0,-1.0,-1.0,-1.0,-2.0
1701719550.3361385,-1.0,-1.0,-1.0,-1.0,-3.0,-2.0,-1.0,0.0
1701719550.3361385,-1.0,0.0,0.0,0.0,-2.0,-1.0,-2.0,0.0
1701719550.3565934,0.0,0.0,-2.0,-1.0,-2.0,-1.0,0.0,-3.0
1701719550.3565934,-2.0,-2.0,-2.0,0.0,-2.0,-2.0,1.0,-1.0
1701719550.3565934,-2.0,-1.0,-2.0,-1.0,-1.0,0.0,-2.0,-3.0
1701719550.3565934,1.0,-4.0,0.0,-1.0,0.0,-1.0,-1.0,-1.0
1701719550.3762584,-1.0,0.0,-1.0,0.0,-1.0,-1.0,-3.0,-1.0
1701719550.3762584,-1.0,-1.0,-2.0,-1.0,0.0,-1.0,-2.0,-1.0
1701719550.3762584,0.0,0.0,-1.0,0.0,0.0,-1.0,-1.0,0.0
1701719550.3762584,-1.0,-1.0,1.0,-1.0,0.0,0.0,0.0,0.0
1701719550.3963833,-1.0,-2.0,-2.0,0.0,-2.0,-1.0,0.0,0.0
1701719550.3963833,-3.0,-2.0,-2.0,-3.0,-2.0,-2.0,-1.0,-3.0
1701719550.4061372,0.0,1.0,-1.0,0.0,0.0,-1.0,-1.0,-2.0
1701719550.4061372,-1.0,-1.0,-2.0,2.0,-2.0,1.0,-3.0,-3.0
1701719550.4165206,-2.0,-2.0,-3.0,1.0,-2.0,-1.0,-1.0,-1.0
1701719550.4165206,-2.0,-2.0,-1.0,0.0,-2.0,1.0,0.0,-2.0
1701719550.4165206,-2.0,-2.0,1.0,-3.0,-1.0,-1.0,-1.0,1.0
1701719550.4165206,-2.0,-1.0,0.0,-3.0,0.0,-1.0,0.0,0.0
1701719550.4365165,1.0,-2.0,0.0,-2.0,-1.0,-1.0,-1.0,2.0
1701719550.4365165,1.0,-2.0,1.0,-2.0,-2.0,0.0,-2.0,0.0
1701719550.4365165,0.0,-3.0,-2.0,-2.0,-1.0,-1.0,-2.0,0.0
1701719550.4365165,-1.0,0.0,-1.0,-2.0,-3.0,-2.0,-1.0,0.0
1701719550.456517,-2.0,1.0,-2.0,-2.0,-3.0,-3.0,-1.0,-1.0
1701719550.456517,-1.0,0.0,-2.0,-3.0,0.0,-2.0,-1.0,-1.0
1701719550.456517,-3.0,-2.0,-3.0,0.0,-1.0,-1.0,-1.0,-1.0
1701719550.456517,-1.0,-1.0,0.0,-2.0,0.0,-2.0,-1.0,0.0
1701719550.466547,-1.0,-2.0,0.0,-2.0,-1.0,-1.0,0.0,-1.0
1701719550.466547,-3.0,0.0,1.0,1.0,-2.0,-1.0,-1.0,-2.0
1701719550.4768903,-3.0,-2.0,-1.0,-1.0,-1.0,0.0,-1.0,-1.0
1701719550.4768903,0.0,-1.0,-3.0,-1.0,0.0,-1.0,-1.0,-2.0
1701719550.496518,-1.0,0.0,-1.0,-1.0,-1.0,0.0,0.0,-2.0
1701719550.496518,1.0,-1.0,1.0,-1.0,-1.0,-3.0,-2.0,0.0
1701719550.496518,0.0,-2.0,-1.0,-2.0,0.0,-2.0,-2.0,0.0
1701719550.496518,-1.0,-2.0,0.0,-1.0,-2.0,1.0,0.0,-1.0
1701719550.5165188,-1.0,0.0,0.0,0.0,0.0,-1.0,-2.0,-1.0
1701719550.5165188,0.0,-2.0,-1.0,0.0,-1.0,1.0,-2.0,-1.0
1701719550.5165188,-2.0,-1.0,0.0,0.0,-2.0,-2.0,-3.0,1.0
1701719550.5165188,-1.0,-1.0,-1.0,0.0,-1.0,-1.0,-2.0,0.0
1701719550.5368605,-1.0,-1.0,-1.0,-2.0,-1.0,-1.0,0.0,-2.0
1701719550.5368605,-2.0,-1.0,-1.0,-1.0,-1.0,-2.0,-1.0,-3.0
1701719550.5368605,0.0,0.0,-1.0,0.0,-2.0,-1.0,2.0,-2.0
1701719550.5368605,-2.0,-1.0,-2.0,-1.0,0.0,1.0,1.0,-1.0
1701719550.5468826,-1.0,-1.0,-3.0,0.0,-1.0,-1.0,0.0,-1.0
1701719550.5565236,-2.0,-1.0,-1.0,0.0,0.0,0.0,-2.0,0.0
1701719550.5565236,0.0,-1.0,-1.0,-3.0,0.0,0.0,0.0,1.0
1701719550.5565236,-2.0,-1.0,-2.0,0.0,0.0,-2.0,-2.0,-1.0
1701719550.5769117,-3.0,-2.0,-1.0,-1.0,-2.0,-1.0,0.0,0.0
1701719550.5769117,-2.0,-1.0,-1.0,-1.0,-2.0,-1.0,-2.0,-1.0
1701719550.5769117,5.0,1.0,-1.0,1.0,-1.0,0.0,-1.0,-1.0
1701719550.5769117,-4.0,-3.0,-3.0,-3.0,-1.0,0.0,-1.0,-1.0
1701719550.5969863,-1.0,0.0,-1.0,-1.0,-2.0,-1.0,0.0,-1.0
1701719550.5969863,0.0,-2.0,-3.0,0.0,1.0,-1.0,-1.0,-1.0
1701719550.5969863,-1.0,-2.0,0.0,-1.0,-2.0,-1.0,-3.0,-2.0
1701719550.5969863,1.0,-1.0,-1.0,0.0,-2.0,-3.0,-2.0,-3.0
1701719550.6165192,0.0,-2.0,0.0,-2.0,-1.0,0.0,-2.0,-2.0
1701719550.6165192,-3.0,0.0,-1.0,-2.0,-2.0,0.0,-2.0,1.0
1701719550.6165192,-3.0,-1.0,-1.0,0.0,0.0,0.0,0.0,0.0
1701719550.6165192,-1.0,-1.0,-1.0,-1.0,0.0,-1.0,-1.0,-2.0
1701719550.6367745,-1.0,-1.0,-2.0,-1.0,-1.0,-2.0,-1.0,-3.0
1701719550.6367745,0.0,-1.0,0.0,-2.0,0.0,0.0,0.0,-2.0
1701719550.6367745,-3.0,0.0,-2.0,-2.0,0.0,-3.0,0.0,-1.0
1701719550.6367745,0.0,1.0,-2.0,-1.0,-2.0,-2.0,-1.0,-1.0
1701719550.656776,1.0,-3.0,0.0,-1.0,-1.0,-1.0,1.0,-2.0
1701719550.656776,0.0,-1.0,-2.0,-1.0,-1.0,-2.0,-1.0,2.0
1701719550.656776,-2.0,-1.0,-1.0,-2.0,-1.0,0.0,0.0,0.0
1701719550.656776,-1.0,-1.0,2.0,-1.0,-3.0,-1.0,-1.0,1.0
1701719550.6865146,0.0,1.0,0.0,-1.0,-2.0,0.0,0.0,-2.0
1701719550.6865146,2.0,0.0,0.0,0.0,-1.0,-1.0,0.0,-2.0
1701719550.6865146,0.0,-3.0,-1.0,-1.0,-1.0,-3.0,-2.0,1.0
1701719550.6865146,-2.0,-1.0,-1.0,-1.0,1.0,-1.0,-1.0,0.0
1701719550.6968179,-1.0,0.0,-1.0,-1.0,0.0,0.0,-2.0,-1.0
1701719550.6968179,-1.0,-2.0,-1.0,-1.0,-2.0,-1.0,0.0,-1.0
1701719550.6968179,0.0,0.0,-1.0,2.0,-1.0,0.0,-2.0,-3.0
1701719550.6968179,1.0,-1.0,-2.0,-1.0,0.0,-1.0,1.0,-3.0
1701719550.7220938,-2.0,-1.0,-2.0,-1.0,-1.0,1.0,-3.0,0.0
1701719550.7220938,-1.0,-2.0,-1.0,-1.0,-1.0,-1.0,0.0,-1.0
1701719550.7220938,-1.0,-3.0,-1.0,-1.0,-1.0,-1.0,0.0,-3.0
1701719550.7220938,0.0,-2.0,-1.0,-2.0,-1.0,0.0,1.0,1.0
1701719550.7622154,-3.0,-1.0,0.0,-1.0,1.0,0.0,-1.0,-1.0
1701719550.7622154,-1.0,-1.0,0.0,-1.0,-2.0,-1.0,-2.0,-2.0
1701719550.7622154,-2.0,0.0,0.0,-2.0,-2.0,-2.0,0.0,-2.0
1701719550.7622154,-1.0,0.0,-2.0,-1.0,-1.0,-2.0,-2.0,-2.0
1701719550.7622154,-1.0,-1.0,-1.0,0.0,-1.0,-1.0,-1.0,-2.0
1701719550.7622154,-1.0,-2.0,0.0,1.0,-2.0,0.0,-1.0,0.0
1701719550.7622154,-1.0,-1.0,-2.0,-1.0,0.0,-1.0,0.0,-1.0
1701719550.7622154,-1.0,0.0,-1.0,-1.0,-2.0,-1.0,-3.0,-1.0
1701719550.772626,-1.0,-1.0,-2.0,-1.0,-1.0,-2.0,-1.0,0.0
1701719550.772626,-1.0,0.0,-3.0,-2.0,0.0,0.0,-1.0,0.0
1701719550.7822185,-1.0,-2.0,-1.0,-1.0,-2.0,0.0,-2.0,0.0
1701719550.7822185,0.0,0.0,0.0,2.0,2.0,0.0,-2.0,-1.0
1701719550.7922146,-2.0,0.0,0.0,-1.0,-1.0,-1.0,-1.0,-2.0
1701719550.7922146,-2.0,-2.0,-1.0,-1.0,0.0,0.0,-1.0,-2.0
1701719550.7922146,-2.0,0.0,-2.0,-1.0,-1.0,-2.0,-1.0,-3.0
1701719550.7922146,1.0,-2.0,-2.0,0.0,-2.0,-2.0,1.0,-1.0
1701719550.8126602,-1.0,-3.0,-3.0,-2.0,-1.0,-2.0,-1.0,0.0
1701719550.8126602,-1.0,-3.0,-1.0,-2.0,-1.0,-2.0,-1.0,-1.0
1701719550.8126602,0.0,-1.0,0.0,-1.0,-2.0,-2.0,-1.0,-1.0
1701719550.8126602,-2.0,-3.0,0.0,0.0,-1.0,0.0,-1.0,-2.0
1701719550.8326085,0.0,-1.0,-1.0,1.0,0.0,-1.0,-1.0,-1.0
1701719550.8326085,-2.0,-1.0,0.0,-1.0,0.0,1.0,1.0,-1.0
1701719550.8326085,0.0,0.0,-1.0,-1.0,0.0,0.0,-1.0,-1.0
1701719550.8422208,0.0,-1.0,1.0,-4.0,0.0,1.0,-1.0,-1.0
1701719550.8522148,0.0,0.0,1.0,-1.0,-3.0,-1.0,-1.0,1.0
1701719550.8522148,0.0,-1.0,1.0,0.0,0.0,0.0,-2.0,-2.0
1701719550.8522148,-1.0,-1.0,-1.0,0.0,-1.0,0.0,-2.0,-1.0
1701719550.8522148,-2.0,-1.0,-1.0,1.0,-3.0,-2.0,-1.0,0.0
1701719550.8722484,-1.0,-2.0,-1.0,0.0,-1.0,-2.0,-1.0,-2.0
1701719550.8722484,-3.0,-2.0,-1.0,0.0,-2.0,-1.0,-1.0,-1.0
1701719550.8825178,-1.0,0.0,-2.0,0.0,-1.0,0.0,0.0,0.0
1701719550.8825178,-1.0,-1.0,-2.0,-1.0,-1.0,0.0,0.0,1.0
1701719550.8925424,1.0,0.0,-2.0,0.0,0.0,0.0,0.0,-1.0
1701719550.8925424,0.0,-2.0,-1.0,0.0,-1.0,-2.0,0.0,-2.0
1701719550.90222,-1.0,-1.0,-2.0,-1.0,1.0,0.0,0.0,-1.0
1701719550.90222,-1.0,0.0,-1.0,-2.0,-3.0,1.0,0.0,0.0
1701719550.9122148,0.0,0.0,1.0,-1.0,0.0,-2.0,-2.0,-1.0
1701719550.9122148,-1.0,1.0,-1.0,-2.0,0.0,-2.0,0.0,1.0
1701719550.9122148,0.0,-3.0,-1.0,-1.0,-2.0,-2.0,-2.0,0.0
1701719550.9122148,0.0,-3.0,-1.0,-3.0,1.0,-3.0,-2.0,-2.0
1701719550.932667,-1.0,-2.0,-3.0,-2.0,0.0,-1.0,-2.0,-3.0
1701719550.932667,0.0,-2.0,0.0,-2.0,-1.0,-1.0,-1.0,0.0
1701719550.932667,-2.0,1.0,0.0,-2.0,-1.0,0.0,-1.0,0.0
1701719550.932667,-2.0,-1.0,-1.0,0.0,-1.0,0.0,-2.0,1.0
1701719550.9522164,-3.0,-1.0,0.0,-2.0,-3.0,-1.0,-1.0,-1.0
1701719550.9522164,0.0,0.0,-1.0,1.0,1.0,-1.0,1.0,0.0
1701719550.9522164,1.0,0.0,-2.0,0.0,-1.0,-1.0,-1.0,-4.0
1701719550.9522164,0.0,-1.0,-2.0,2.0,0.0,-2.0,-4.0,-3.0
1701719550.9725893,-1.0,-1.0,-1.0,-1.0,-2.0,-2.0,-1.0,0.0
1701719550.9725893,-2.0,-2.0,-2.0,-2.0,-1.0,-1.0,-2.0,-1.0
1701719550.9725893,-4.0,-3.0,-2.0,0.0,-2.0,0.0,-1.0,1.0
1701719550.9725893,-1.0,-1.0,1.0,-2.0,-1.0,1.0,0.0,1.0
1701719551.002218,-3.0,-1.0,0.0,-2.0,-2.0,-2.0,-2.0,0.0
1701719551.002218,0.0,0.0,-1.0,-1.0,-2.0,-1.0,-1.0,-1.0
1701719551.002218,2.0,0.0,0.0,-2.0,0.0,-1.0,0.0,-2.0
1701719551.002218,0.0,0.0,-3.0,0.0,-1.0,0.0,0.0,-1.0
1701719551.0122185,0.0,-2.0,-1.0,-1.0,0.0,0.0,-1.0,0.0
1701719551.0122185,-1.0,-1.0,0.0,0.0,-1.0,0.0,0.0,1.0
1701719551.0222173,-2.0,-1.0,-2.0,-1.0,-2.0,0.0,-2.0,0.0
1701719551.0222173,-1.0,0.0,-1.0,-1.0,-1.0,0.0,-2.0,0.0
1701719551.0322196,0.0,-3.0,-2.0,-1.0,0.0,-1.0,-1.0,1.0
1701719551.0322196,0.0,-2.0,-2.0,-1.0,-2.0,-1.0,-3.0,-2.0
1701719551.0423963,1.0,-1.0,-1.0,-1.0,-2.0,1.0,-2.0,-1.0
1701719551.0423963,-2.0,-1.0,0.0,-2.0,-1.0,-1.0,0.0,-1.0
1701719551.0526202,-1.0,-1.0,0.0,0.0,-1.0,0.0,0.0,-2.0
1701719551.0526202,-1.0,-2.0,-1.0,0.0,-2.0,-3.0,0.0,-3.0
1701719551.0526202,-1.0,-1.0,0.0,-2.0,0.0,-2.0,-3.0,-1.0
1701719551.0526202,0.0,-1.0,-2.0,-1.0,0.0,0.0,-2.0,-1.0
1701719551.072216,-1.0,-1.0,-1.0,-1.0,-2.0,-1.0,-1.0,-1.0
1701719551.072216,-1.0,-1.0,-3.0,-1.0,0.0,-1.0,-2.0,0.0
1701719551.082217,-1.0,-4.0,-2.0,0.0,-1.0,-1.0,2.0,-1.0
1701719551.082217,-2.0,-4.0,-1.0,-1.0,-2.0,-3.0,0.0,-3.0
1701719551.0925882,0.0,-1.0,1.0,0.0,0.0,0.0,0.0,1.0
1701719551.0925882,-3.0,2.0,-2.0,-2.0,-1.0,-1.0,-1.0,-3.0
1701719551.0925882,-2.0,0.0,-1.0,-2.0,-2.0,-2.0,-2.0,0.0
1701719551.0925882,-1.0,0.0,-1.0,-1.0,-1.0,-3.0,-3.0,-1.0
1701719551.1122186,-1.0,-1.0,-2.0,-1.0,0.0,1.0,-1.0,0.0
1701719551.1122186,-2.0,0.0,-1.0,-2.0,-1.0,1.0,-2.0,-2.0
1701719551.1222155,-1.0,-2.0,-2.0,-1.0,0.0,0.0,-1.0,-2.0
1701719551.1222155,-1.0,-1.0,-2.0,-1.0,-1.0,1.0,-1.0,-1.0
1701719551.1325681,1.0,-2.0,-1.0,-2.0,0.0,-1.0,-1.0,-1.0
1701719551.1325681,2.0,-1.0,0.0,-2.0,-2.0,-3.0,-2.0,0.0
1701719551.142219,-1.0,-1.0,-1.0,-1.0,-3.0,-1.0,0.0,-1.0
1701719551.142219,-1.0,1.0,0.0,-2.0,0.0,-2.0,0.0,-2.0
1701719551.1525867,-1.0,-2.0,-3.0,0.0,-2.0,-1.0,-2.0,-4.0
1701719551.1525867,-4.0,-2.0,-3.0,-1.0,-2.0,-1.0,-1.0,-2.0
1701719551.1625845,-3.0,0.0,0.0,0.0,1.0,-3.0,0.0,0.0
1701719551.1625845,-2.0,-1.0,-1.0,0.0,1.0,-3.0,-3.0,1.0
1701719551.1822155,-1.0,1.0,0.0,-2.0,0.0,-2.0,0.0,-1.0
1701719551.1822155,-2.0,-4.0,-3.0,-1.0,0.0,0.0,0.0,0.0
1701719551.1822155,0.0,-1.0,-1.0,-2.0,-2.0,-2.0,0.0,1.0
1701719551.1822155,0.0,0.0,0.0,-2.0,1.0,0.0,0.0,1.0
1701719551.2022202,0.0,1.0,-1.0,-1.0,-2.0,-1.0,-2.0,0.0
1701719551.2022202,0.0,0.0,-1.0,1.0,-1.0,-2.0,-2.0,-2.0
1701719551.2022202,-1.0,-1.0,0.0,0.0,0.0,2.0,-2.0,-2.0
1701719551.2022202,1.0,-2.0,-1.0,-1.0,-2.0,-1.0,-1.0,-2.0
1701719551.2122228,-1.0,0.0,-4.0,-2.0,-1.0,-1.0,0.0,-1.0
1701719551.2122228,1.0,-3.0,-2.0,0.0,-1.0,-1.0,1.0,0.0
1701719551.2225003,0.0,-1.0,-2.0,-2.0,0.0,1.0,-2.0,-2.0
1701719551.2225003,-2.0,-2.0,0.0,-1.0,0.0,-2.0,-1.0,-3.0
1701719551.2547476,-1.0,0.0,0.0,-2.0,0.0,1.0,-1.0,-1.0
1701719551.2547476,0.0,-1.0,-2.0,-2.0,-1.0,0.0,-2.0,-2.0
1701719551.2547476,-4.0,-3.0,-1.0,-2.0,-1.0,-3.0,-1.0,0.0
1701719551.2547476,-2.0,0.0,-2.0,-1.0,-1.0,-1.0,0.0,-1.0
1701719551.2612412,-2.0,-1.0,-1.0,0.0,-2.0,0.0,0.0,-3.0
1701719551.2612412,-2.0,0.0,2.0,0.0,0.0,-1.0,0.0,0.0
1701719551.2612412,1.0,-1.0,-2.0,-1.0,-1.0,-1.0,-2.0,-3.0
1701719551.2622573,0.0,-2.0,0.0,-1.0,-3.0,-1.0,-2.0,-1.0
1701719551.275073,-3.0,-1.0,-1.0,1.0,-3.0,-4.0,-1.0,0.0
1701719551.275073,0.0,-3.0,-1.0,-2.0,-2.0,-1.0,-1.0,0.0
1701719551.275073,0.0,-1.0,0.0,-1.0,-1.0,-1.0,-1.0,0.0
1701719551.275073,-2.0,-2.0,-4.0,-2.0,-1.0,-1.0,-1.0,0.0
1701719551.2950795,-1.0,0.0,0.0,-2.0,0.0,-1.0,-1.0,-2.0
1701719551.2950795,0.0,1.0,-2.0,-4.0,0.0,0.0,-2.0,-1.0
1701719551.2950795,-2.0,0.0,1.0,0.0,0.0,0.0,-2.0,-2.0
1701719551.2950795,-2.0,-2.0,0.0,1.0,-2.0,1.0,0.0,-1.0
1701719551.3154345,-1.0,-1.0,1.0,0.0,-1.0,-1.0,0.0,-1.0
1701719551.3154345,-1.0,-1.0,0.0,1.0,-2.0,-2.0,0.0,-1.0
1701719551.3154345,1.0,-1.0,0.0,-1.0,-1.0,0.0,-1.0,0.0
1701719551.3154345,-1.0,0.0,-1.0,1.0,-2.0,-1.0,-3.0,-2.0
1701719551.3354497,0.0,-1.0,-1.0,0.0,-1.0,-2.0,-1.0,-1.0
1701719551.3354497,0.0,1.0,-1.0,1.0,0.0,-2.0,-2.0,0.0
1701719551.3354497,-1.0,0.0,-3.0,0.0,-1.0,-1.0,-1.0,-1.0
1701719551.3354497,-1.0,0.0,0.0,-2.0,-2.0,0.0,-2.0,-2.0
1701719551.355075,-1.0,-2.0,-2.0,-1.0,-2.0,0.0,-1.0,1.0
1701719551.355075,-1.0,-1.0,-1.0,1.0,2.0,-1.0,0.0,-1.0
1701719551.355075,0.0,-2.0,-1.0,0.0,-2.0,-2.0,-1.0,-1.0
1701719551.355075,-1.0,-1.0,-1.0,1.0,-2.0,0.0,0.0,-1.0
1701719551.3753371,-1.0,-1.0,-1.0,-1.0,-1.0,0.0,0.0,-1.0
1701719551.3753371,-3.0,0.0,-1.0,0.0,-1.0,1.0,0.0,-4.0
1701719551.3753371,1.0,-1.0,0.0,-1.0,-1.0,-2.0,0.0,0.0
1701719551.3753371,-1.0,0.0,-2.0,-1.0,-1.0,1.0,0.0,-1.0
1701719551.3950796,-1.0,0.0,0.0,-1.0,0.0,-1.0,-2.0,-1.0
1701719551.3950796,-2.0,0.0,-1.0,-1.0,0.0,0.0,-1.0,2.0
1701719551.4150734,0.0,-1.0,-2.0,0.0,-1.0,-2.0,0.0,0.0
1701719551.4150734,-1.0,-1.0,0.0,-2.0,-2.0,-2.0,-2.0,-1.0
1701719551.4150734,-1.0,-1.0,-2.0,-2.0,-2.0,0.0,-1.0,-1.0
1701719551.4150734,-2.0,-5.0,-1.0,-2.0,-2.0,-2.0,-3.0,-1.0
1701719551.4150734,-1.0,-1.0,-1.0,-1.0,-1.0,-2.0,0.0,-1.0
1701719551.4150734,-1.0,-1.0,-2.0,-1.0,-1.0,-2.0,0.0,1.0
1701719551.4450836,-2.0,1.0,-1.0,-1.0,-1.0,-1.0,-1.0,-1.0
1701719551.4450836,0.0,0.0,0.0,-2.0,-2.0,-1.0,-2.0,-2.0
1701719551.4450836,-2.0,0.0,-1.0,-1.0,-1.0,-1.0,-1.0,-1.0
1701719551.4450836,-1.0,-2.0,-1.0,-1.0,-2.0,-1.0,-1.0,-1.0
1701719551.4550748,0.0,-2.0,0.0,-3.0,0.0,-2.0,-1.0,-3.0
1701719551.4550748,-1.0,-2.0,-1.0,0.0,0.0,0.0,-2.0,-1.0
1701719551.465075,1.0,0.0,-1.0,-1.0,-1.0,-3.0,-1.0,-1.0
1701719551.465075,0.0,-2.0,-1.0,0.0,-1.0,0.0,-1.0,-2.0
1701719551.4753706,0.0,-4.0,-2.0,1.0,-1.0,-2.0,-2.0,-2.0
1701719551.4753706,-1.0,-2.0,-3.0,-1.0,-1.0,-2.0,-1.0,-1.0
1701719551.4753706,-3.0,-2.0,0.0,-1.0,0.0,0.0,-2.0,-2.0
1701719551.4753706,-1.0,1.0,-1.0,-2.0,2.0,-2.0,0.0,1.0
1701719551.4953911,-1.0,0.0,-1.0,-2.0,-1.0,-1.0,0.0,1.0
1701719551.4953911,1.0,0.0,-2.0,-2.0,-3.0,-2.0,1.0,-1.0
1701719551.4953911,-2.0,-2.0,-1.0,-2.0,0.0,0.0,-1.0,-2.0
1701719551.4953911,-2.0,-1.0,1.0,-2.0,-1.0,-1.0,-1.0,-1.0
1701719551.5353885,-1.0,-2.0,0.0,-2.0,-1.0,0.0,-1.0,0.0
1701719551.5353885,0.0,1.0,-2.0,-1.0,1.0,-2.0,-1.0,0.0
1701719551.5353885,0.0,1.0,-1.0,-2.0,-1.0,0.0,0.0,1.0
1701719551.5353885,-1.0,-1.0,0.0,0.0,-2.0,0.0,-2.0,-1.0
1701719551.5353885,0.0,0.0,-2.0,0.0,1.0,-1.0,-2.0,1.0
1701719551.5353885,-4.0,0.0,-1.0,0.0,-3.0,-1.0,-2.0,0.0
1701719551.5353885,1.0,-1.0,-1.0,1.0,0.0,-1.0,-1.0,-3.0
1701719551.5353885,-2.0,-1.0,-2.0,1.0,1.0,-2.0,-1.0,-3.0
1701719551.5558214,0.0,0.0,-2.0,-1.0,-1.0,-1.0,0.0,0.0
1701719551.5558214,-2.0,-2.0,1.0,-1.0,0.0,-2.0,1.0,-1.0
1701719551.5558214,-3.0,-2.0,-1.0,1.0,-2.0,-3.0,-1.0,-1.0
1701719551.5558214,-2.0,-3.0,0.0,-2.0,-2.0,-2.0,-1.0,-1.0
1701719551.5853937,-1.0,-2.0,0.0,1.0,-2.0,0.0,-3.0,-1.0
1701719551.5853937,-1.0,-2.0,-1.0,-1.0,-1.0,2.0,-1.0,0.0
1701719551.5853937,-3.0,0.0,-1.0,-2.0,-1.0,-1.0,-1.0,-1.0
1701719551.5853937,1.0,-1.0,-2.0,-1.0,0.0,-1.0,-1.0,0.0
1701719551.5957115,-1.0,-3.0,-2.0,-1.0,0.0,0.0,0.0,-3.0
1701719551.5957115,1.0,-2.0,-2.0,-1.0,0.0,-1.0,0.0,-1.0
1701719551.5957115,-1.0,-1.0,-1.0,-2.0,0.0,-2.0,-1.0,1.0
1701719551.5957115,-1.0,-1.0,0.0,0.0,-2.0,-1.0,-1.0,-2.0
1701719551.615602,-2.0,-1.0,-2.0,-2.0,0.0,-2.0,-2.0,0.0
1701719551.615602,-3.0,-2.0,0.0,-1.0,-1.0,-1.0,1.0,-1.0
1701719551.615602,0.0,0.0,-2.0,1.0,-1.0,-1.0,-1.0,0.0
1701719551.615602,-1.0,0.0,-1.0,-1.0,-2.0,-1.0,0.0,-1.0
1701719551.6453881,-1.0,-1.0,0.0,-1.0,-1.0,-2.0,-2.0,-3.0
1701719551.6453881,-1.0,0.0,0.0,1.0,-2.0,-1.0,-3.0,-1.0
1701719551.6453881,-1.0,-2.0,-1.0,0.0,-2.0,-2.0,0.0,0.0
1701719551.6453881,0.0,-1.0,-2.0,-1.0,0.0,0.0,1.0,0.0
1701719551.6556275,-3.0,0.0,-1.0,0.0,-1.0,-1.0,2.0,-2.0
1701719551.6556275,-2.0,0.0,-2.0,0.0,0.0,0.0,-1.0,-1.0
1701719551.6556275,-1.0,-2.0,-1.0,-1.0,-1.0,0.0,-1.0,-4.0
1701719551.6556275,-2.0,-2.0,-1.0,-2.0,-1.0,-1.0,-2.0,1.0
1701719551.6756246,0.0,-3.0,-2.0,-2.0,-2.0,-1.0,-2.0,-1.0
1701719551.6756246,-1.0,0.0,-1.0,-1.0,-1.0,-1.0,-1.0,-1.0
1701719551.6756246,-2.0,0.0,-1.0,-1.0,-1.0,0.0,-4.0,-1.0
1701719551.6756246,-1.0,-1.0,-1.0,-1.0,0.0,0.0,0.0,-2.0
1701719551.6953878,-3.0,1.0,-1.0,-2.0,-1.0,-2.0,-1.0,-1.0
1701719551.6953878,-1.0,-1.0,0.0,-2.0,-1.0,-1.0,-1.0,-2.0
1701719551.7053905,0.0,-1.0,-1.0,-2.0,-2.0,-1.0,2.0,-2.0
1701719551.7053905,0.0,-1.0,-3.0,-1.0,-2.0,-2.0,-2.0,1.0
1701719551.7157226,-1.0,-3.0,0.0,-1.0,-2.0,0.0,-2.0,-2.0
1701719551.7157226,1.0,-2.0,-2.0,-2.0,-1.0,-2.0,-2.0,-1.0
1701719551.7157226,-1.0,0.0,-1.0,-1.0,-2.0,0.0,0.0,-1.0
1701719551.7157226,-3.0,0.0,-2.0,-1.0,0.0,-1.0,-1.0,-2.0
1701719551.73571,-1.0,0.0,0.0,0.0,-2.0,-1.0,-1.0,0.0
1701719551.73571,1.0,-3.0,-1.0,0.0,2.0,-1.0,-1.0,1.0
1701719551.73571,0.0,-1.0,-1.0,-3.0,-1.0,-1.0,-2.0,-1.0
1701719551.73571,1.0,-1.0,-1.0,-1.0,-1.0,-1.0,-2.0,-1.0
1701719551.765388,-2.0,1.0,0.0,-1.0,0.0,-1.0,-2.0,-2.0
1701719551.765388,0.0,0.0,-3.0,-1.0,-3.0,-1.0,1.0,-4.0
1701719551.765388,-2.0,-2.0,-2.0,0.0,-2.0,-2.0,0.0,-1.0
1701719551.765388,-2.0,-1.0,-2.0,-1.0,-2.0,0.0,-3.0,-2.0
1701719551.7784,-1.0,-4.0,1.0,0.0,-1.0,-3.0,-2.0,-1.0
1701719551.7784,1.0,-1.0,-1.0,-1.0,-2.0,0.0,-1.0,-1.0
1701719551.7793472,-1.0,-3.0,-2.0,-3.0,-2.0,-1.0,-1.0,0.0
1701719551.7793472,-1.0,-1.0,-1.0,-1.0,1.0,0.0,1.0,0.0
1701719551.807577,-1.0,1.0,-1.0,0.0,-1.0,0.0,-1.0,-1.0
1701719551.807577,0.0,1.0,-1.0,-1.0,0.0,-1.0,-1.0,-2.0
1701719551.807577,0.0,-1.0,0.0,-1.0,0.0,-1.0,0.0,-1.0
1701719551.807577,0.0,-2.0,-2.0,-1.0,-1.0,-1.0,0.0,-1.0
1701719551.8178523,0.0,-3.0,-2.0,-2.0,-1.0,-1.0,2.0,2.0
1701719551.8178523,-3.0,-2.0,-1.0,-1.0,-1.0,-1.0,0.0,-2.0
1701719551.8178523,-1.0,-2.0,-1.0,-1.0,-2.0,0.0,-1.0,-1.0
1701719551.8178523,-1.0,-1.0,0.0,0.0,-2.0,-1.0,-2.0,-1.0
1701719551.8377295,-1.0,-1.0,-1.0,0.0,-1.0,-1.0,-2.0,-1.0
1701719551.8377295,-2.0,0.0,-2.0,-1.0,-1.0,-1.0,-1.0,0.0
1701719551.8377295,-1.0,0.0,-1.0,0.0,1.0,-1.0,-2.0,0.0
1701719551.8377295,-2.0,0.0,0.0,-1.0,-1.0,-1.0,0.0,0.0
1701719551.8675804,-1.0,1.0,-2.0,0.0,0.0,-1.0,-1.0,1.0
1701719551.8675804,-3.0,0.0,0.0,-1.0,-1.0,-2.0,-1.0,0.0
1701719551.8675804,0.0,-1.0,-2.0,-1.0,0.0,-2.0,-1.0,-1.0
1701719551.8675804,0.0,-2.0,-2.0,-1.0,-2.0,0.0,-1.0,-2.0
1701719551.8778071,0.0,-3.0,-1.0,-1.0,-3.0,-2.0,-2.0,-2.0
1701719551.8778071,0.0,-1.0,0.0,-2.0,0.0,1.0,-1.0,0.0
1701719551.8778071,-1.0,-1.0,0.0,-1.0,0.0,-2.0,-1.0,1.0
1701719551.8778071,-1.0,0.0,0.0,-1.0,-1.0,-2.0,-2.0,-1.0
1701719551.8979204,0.0,1.0,-2.0,-1.0,-1.0,-4.0,-3.0,-1.0
1701719551.8979204,-1.0,0.0,-2.0,-1.0,0.0,0.0,-2.0,0.0
1701719551.8979204,-2.0,1.0,-2.0,-2.0,0.0,-1.0,-1.0,-3.0
1701719551.8979204,-1.0,-1.0,-1.0,-3.0,-3.0,-1.0,-2.0,-1.0
1701719551.9175837,-1.0,-2.0,-3.0,0.0,0.0,1.0,-1.0,0.0
1701719551.9175837,-1.0,-2.0,-1.0,1.0,-2.0,-2.0,-1.0,-1.0
1701719551.9275782,-2.0,0.0,-1.0,1.0,-2.0,-1.0,-1.0,1.0
1701719551.9275782,-1.0,-2.0,-1.0,0.0,1.0,-1.0,0.0,-3.0
1701719551.9379308,-2.0,-1.0,0.0,-2.0,1.0,-1.0,-1.0,0.0
1701719551.9379308,-1.0,0.0,-2.0,-1.0,0.0,-3.0,-3.0,-1.0
1701719551.9379308,1.0,-1.0,-1.0,0.0,-2.0,-1.0,0.0,0.0
1701719551.9379308,-3.0,-1.0,0.0,1.0,-1.0,-2.0,0.0,1.0
1701719551.9582417,-1.0,-5.0,-1.0,-1.0,-2.0,0.0,-2.0,-2.0
1701719551.9582417,-1.0,-2.0,-1.0,-2.0,-2.0,-1.0,-2.0,-3.0
1701719551.9582417,1.0,1.0,-2.0,-1.0,-1.0,0.0,-3.0,-2.0
1701719551.9582417,1.0,-1.0,-3.0,-1.0,-1.0,-1.0,0.0,-1.0
1701719551.9979484,1.0,0.0,-1.0,-1.0,-1.0,-2.0,1.0,-3.0
1701719551.9979484,-2.0,-1.0,-1.0,-1.0,-1.0,-1.0,-1.0,-1.0
1701719551.9979484,-2.0,-1.0,-1.0,-1.0,-2.0,-2.0,-3.0,-2.0
1701719551.9979484,-1.0,2.0,1.0,1.0,-1.0,-2.0,0.0,0.0
1701719551.9979484,-2.0,0.0,-2.0,-3.0,-1.0,-1.0,0.0,1.0
1701719551.9979484,-1.0,0.0,-1.0,-2.0,0.0,-2.0,1.0,0.0
1701719551.9979484,1.0,0.0,0.0,-2.0,1.0,-2.0,-1.0,-1.0
1701719551.9979484,-1.0,-2.0,-1.0,-1.0,-1.0,-2.0,-1.0,-2.0
1701719552.0179484,-2.0,-1.0,-1.0,-2.0,0.0,0.0,-1.0,-1.0
1701719552.0179484,-2.0,-3.0,-3.0,-1.0,0.0,0.0,-1.0,-1.0
1701719552.0179484,-2.0,-3.0,-2.0,-1.0,0.0,1.0,0.0,-1.0
1701719552.0179484,-1.0,-3.0,-3.0,-1.0,0.0,-1.0,-1.0,-2.0
1701719552.038213,-1.0,-1.0,0.0,0.0,-2.0,0.0,0.0,-2.0
1701719552.038213,0.0,-1.0,-1.0,-1.0,-2.0,0.0,-2.0,0.0
1701719552.038213,-1.0,0.0,-1.0,0.0,1.0,1.0,-1.0,-1.0
1701719552.038213,-1.0,-1.0,-2.0,-3.0,0.0,-2.0,-1.0,-3.0
1701719552.0582364,-2.0,0.0,0.0,-1.0,-3.0,-1.0,0.0,-2.0
1701719552.0582364,-1.0,-1.0,-2.0,-1.0,0.0,-1.0,1.0,-1.0
1701719552.0582364,0.0,0.0,0.0,-1.0,-2.0,-3.0,-1.0,-1.0
1701719552.0582364,0.0,-1.0,-1.0,-2.0,0.0,0.0,0.0,0.0
1701719552.0979466,1.0,0.0,-1.0,1.0,-1.0,0.0,-2.0,1.0
1701719552.0979466,0.0,0.0,0.0,-2.0,-1.0,-1.0,-1.0,-2.0
1701719552.0979466,-2.0,0.0,-1.0,-2.0,-1.0,-1.0,-2.0,1.0
1701719552.0979466,-2.0,1.0,-2.0,-2.0,-2.0,1.0,-2.0,-1.0
1701719552.0979466,-2.0,-1.0,-1.0,0.0,0.0,-2.0,0.0,-1.0
1701719552.0979466,1.0,-2.0,-1.0,-1.0,1.0,-2.0,-1.0,0.0
1701719552.0979466,0.0,-3.0,-1.0,-1.0,-3.0,-1.0,0.0,-2.0
1701719552.0979466,-2.0,1.0,-1.0,-2.0,0.0,-1.0,-2.0,0.0
1701719552.1181211,0.0,1.0,-1.0,-1.0,0.0,1.0,-1.0,-1.0
1701719552.1181211,-2.0,0.0,0.0,1.0,-2.0,0.0,0.0,-2.0
1701719552.1181211,-3.0,-1.0,0.0,-1.0,1.0,-1.0,-1.0,-1.0
1701719552.1181211,0.0,-2.0,-2.0,1.0,-1.0,-2.0,-1.0,-1.0
1701719552.147949,0.0,-1.0,-2.0,-2.0,0.0,0.0,-1.0,-2.0
1701719552.147949,-1.0,-2.0,-1.0,-2.0,-1.0,-1.0,0.0,-1.0
1701719552.147949,-2.0,-2.0,-1.0,-3.0,-3.0,-2.0,0.0,0.0
1701719552.147949,-1.0,-1.0,-1.0,-1.0,-1.0,0.0,-1.0,-1.0
1701719552.1579468,-3.0,-1.0,-1.0,-1.0,0.0,-2.0,-1.0,-1.0
1701719552.1579468,-3.0,0.0,0.0,1.0,0.0,-1.0,-1.0,-1.0
1701719552.1579468,-2.0,-1.0,-1.0,-1.0,-3.0,1.0,-2.0,-2.0
1701719552.1579468,-1.0,-1.0,0.0,-1.0,-1.0,0.0,-1.0,0.0
1701719552.178278,-2.0,-4.0,-2.0,-1.0,-1.0,-2.0,-3.0,-2.0
1701719552.178278,-2.0,-1.0,0.0,-1.0,0.0,-1.0,-2.0,0.0
1701719552.178278,-2.0,-3.0,-2.0,-1.0,0.0,-1.0,-1.0,-1.0
1701719552.178278,-2.0,-1.0,0.0,0.0,1.0,-2.0,-2.0,-1.0
1701719552.1979485,0.0,0.0,-2.0,-2.0,-2.0,0.0,0.0,-1.0
1701719552.1979485,-1.0,-2.0,0.0,-1.0,-1.0,-2.0,-1.0,-2.0
1701719552.1979485,1.0,0.0,-2.0,1.0,-1.0,0.0,-1.0,-1.0
1701719552.1979485,0.0,-1.0,-1.0,-1.0,-2.0,-1.0,-2.0,-1.0
1701719552.2180195,0.0,-1.0,-1.0,-1.0,-1.0,-1.0,-1.0,-2.0
1701719552.2180195,-2.0,-1.0,0.0,-3.0,-3.0,-1.0,0.0,-1.0
1701719552.2180195,-3.0,-1.0,-1.0,0.0,1.0,-1.0,1.0,0.0
1701719552.2180195,-2.0,-1.0,-3.0,-2.0,-2.0,0.0,-1.0,0.0
1701719552.2479465,-1.0,-2.0,-1.0,0.0,0.0,-1.0,-1.0,0.0
1701719552.2479465,-1.0,1.0,-1.0,0.0,-1.0,0.0,-1.0,0.0
1701719552.2479465,-1.0,0.0,-2.0,-1.0,-1.0,0.0,0.0,-1.0
1701719552.2479465,-2.0,0.0,0.0,-1.0,-2.0,-1.0,0.0,-3.0
1701719552.2580483,-2.0,0.0,2.0,-1.0,-1.0,0.0,-1.0,-2.0
1701719552.2580483,0.0,-3.0,0.0,-1.0,-1.0,1.0,-1.0,-1.0
1701719552.2682228,0.0,-3.0,-1.0,-1.0,-1.0,0.0,-2.0,-2.0
1701719552.2682228,-2.0,-2.0,-2.0,0.0,0.0,0.0,0.0,2.0
1701719552.2781434,-2.0,-1.0,-2.0,-1.0,-2.0,-1.0,-2.0,-1.0
1701719552.2781434,-2.0,1.0,-1.0,-2.0,1.0,-1.0,-1.0,0.0
1701719552.2781434,-2.0,2.0,-3.0,1.0,-2.0,-2.0,0.0,-1.0
1701719552.2781434,1.0,-2.0,-1.0,-1.0,-1.0,-2.0,-1.0,-3.0
1701719552.2982388,0.0,-2.0,-1.0,-1.0,-1.0,-2.0,-1.0,-3.0
1701719552.2982388,0.0,-2.0,-2.0,-1.0,-1.0,0.0,-1.0,-3.0
1701719552.2982388,-2.0,-1.0,0.0,-1.0,-2.0,-1.0,-1.0,-3.0
1701719552.2982388,-2.0,1.0,0.0,-2.0,0.0,-2.0,-1.0,-1.0
1701719552.3181863,-1.0,1.0,-1.0,-2.0,-1.0,-1.0,-1.0,1.0
1701719552.3181863,0.0,0.0,-2.0,-1.0,-2.0,-1.0,-2.0,-1.0
1701719552.3256516,0.0,0.0,0.0,-2.0,1.0,0.0,-1.0,-1.0
1701719552.3266635,0.0,-3.0,0.0,-1.0,-3.0,-1.0,-1.0,-2.0
1701719552.3405335,-2.0,1.0,-2.0,-1.0,-1.0,-1.0,1.0,0.0
1701719552.3405335,-1.0,-1.0,-3.0,-2.0,-1.0,-1.0,-3.0,-2.0
1701719552.3405335,-2.0,0.0,-1.0,-1.0,-3.0,0.0,-1.0,0.0
1701719552.3405335,-2.0,-2.0,-1.0,-2.0,-3.0,0.0,0.0,0.0
1701719552.360538,-1.0,-3.0,0.0,0.0,-1.0,-1.0,0.0,-1.0
1701719552.360538,-4.0,0.0,0.0,-1.0,-1.0,0.0,0.0,-1.0
1701719552.360538,-1.0,-1.0,-1.0,-1.0,0.0,-3.0,-2.0,-3.0
1701719552.360538,-1.0,0.0,-1.0,-1.0,-1.0,0.0,-2.0,-1.0
1701719552.3705356,0.0,-2.0,-1.0,-1.0,0.0,-1.0,-1.0,-3.0
1701719552.3705356,1.0,-2.0,-1.0,-1.0,-1.0,-4.0,0.0,-1.0
1701719552.3809533,-2.0,-1.0,0.0,-3.0,-1.0,-2.0,-2.0,-3.0
1701719552.3809533,-1.0,-2.0,-1.0,-1.0,0.0,-1.0,0.0,-1.0
1701719552.4012027,-1.0,-4.0,-2.0,-1.0,-1.0,1.0,0.0,1.0
1701719552.4012027,0.0,-1.0,-1.0,0.0,-1.0,-1.0,3.0,0.0
1701719552.4012027,-3.0,-1.0,-2.0,-1.0,-2.0,-1.0,-2.0,1.0
1701719552.4012027,1.0,-1.0,0.0,-3.0,1.0,-1.0,-2.0,-2.0
1701719552.421321,-1.0,0.0,-1.0,-2.0,-1.0,-1.0,-3.0,-2.0
1701719552.421321,-1.0,-1.0,-2.0,-1.0,-1.0,-1.0,-2.0,-3.0
1701719552.421321,-1.0,-2.0,-1.0,0.0,-1.0,-2.0,0.0,-1.0
1701719552.421321,-1.0,-1.0,-1.0,-1.0,-2.0,-2.0,-1.0,-1.0
1701719552.440966,0.0,-2.0,-1.0,0.0,0.0,-1.0,-2.0,-1.0
1701719552.440966,-1.0,-1.0,0.0,-1.0,-2.0,-2.0,-1.0,-1.0
1701719552.440966,-1.0,0.0,0.0,-1.0,0.0,2.0,-1.0,2.0
1701719552.440966,-1.0,-2.0,-2.0,1.0,-2.0,-1.0,-1.0,1.0
1701719552.4609652,-1.0,1.0,-3.0,-3.0,0.0,-1.0,0.0,-1.0
1701719552.4609652,-1.0,0.0,-1.0,-2.0,0.0,1.0,-2.0,-1.0
1701719552.4609652,0.0,-1.0,-1.0,-3.0,-1.0,-1.0,0.0,-1.0
1701719552.4609652,0.0,-1.0,1.0,-2.0,0.0,-1.0,-3.0,1.0
1701719552.48117,-2.0,-2.0,-1.0,-3.0,-2.0,-2.0,-2.0,-1.0
1701719552.48117,0.0,-1.0,0.0,0.0,-2.0,0.0,-3.0,0.0
1701719552.48117,-1.0,0.0,-2.0,0.0,-2.0,0.0,-2.0,-1.0
1701719552.48117,-2.0,0.0,-2.0,1.0,0.0,-1.0,0.0,-3.0
1701719552.501263,-2.0,-2.0,-1.0,0.0,-2.0,-1.0,-3.0,-1.0
1701719552.501263,-1.0,-3.0,-2.0,-2.0,-1.0,-1.0,-3.0,-2.0
1701719552.501263,1.0,-3.0,0.0,0.0,-1.0,-1.0,-2.0,-2.0
1701719552.501263,-3.0,0.0,-1.0,-1.0,-2.0,0.0,-1.0,0.0
1701719552.5209744,0.0,0.0,-1.0,0.0,0.0,-1.0,1.0,0.0
1701719552.5209744,0.0,1.0,-1.0,0.0,-1.0,-2.0,-1.0,0.0
1701719552.5209744,0.0,-2.0,0.0,-1.0,0.0,-1.0,0.0,1.0
1701719552.5209744,-1.0,1.0,-1.0,0.0,-1.0,0.0,-2.0,-2.0
1701719552.5409656,-1.0,-1.0,-2.0,-1.0,-1.0,-1.0,-1.0,-3.0
1701719552.5409656,-1.0,-2.0,-2.0,0.0,-2.0,0.0,0.0,-2.0
1701719552.5409656,-1.0,0.0,0.0,-1.0,0.0,-1.0,0.0,-1.0
1701719552.5409656,-2.0,-2.0,-2.0,-2.0,-2.0,-1.0,0.0,0.0
1701719552.5612302,-1.0,-1.0,0.0,-1.0,-1.0,0.0,-1.0,-1.0
1701719552.5612302,-2.0,0.0,0.0,-1.0,-2.0,-1.0,-3.0,-1.0
1701719552.5612302,-1.0,0.0,-1.0,1.0,-3.0,-2.0,-1.0,-1.0
1701719552.5612302,0.0,-2.0,0.0,-1.0,-1.0,-1.0,-1.0,-1.0
1701719552.5809734,-2.0,0.0,1.0,0.0,0.0,0.0,-2.0,1.0
1701719552.5809734,-1.0,-4.0,-1.0,-5.0,-1.0,-1.0,-2.0,-1.0
1701719552.5809734,0.0,-1.0,-1.0,-3.0,0.0,0.0,-2.0,-1.0
1701719552.5809734,-1.0,-1.0,-1.0,-2.0,0.0,0.0,0.0,0.0
1701719552.6010067,-1.0,-3.0,-1.0,-2.0,0.0,-2.0,0.0,-1.0
1701719552.6010067,-2.0,0.0,-1.0,-1.0,-1.0,-2.0,1.0,-1.0
1701719552.6010067,-2.0,-2.0,-2.0,0.0,-2.0,-1.0,0.0,0.0
1701719552.6010067,0.0,-2.0,-2.0,-3.0,0.0,-1.0,0.0,-2.0
1701719552.6213064,-1.0,1.0,-2.0,0.0,0.0,0.0,0.0,-1.0
1701719552.6213064,-2.0,-2.0,0.0,2.0,-1.0,-1.0,0.0,0.0
1701719552.6310759,-1.0,-3.0,-2.0,-2.0,-2.0,-3.0,0.0,-2.0
1701719552.6310759,0.0,-1.0,-1.0,0.0,-1.0,-2.0,0.0,0.0
1701719552.651019,-1.0,0.0,1.0,1.0,-2.0,-1.0,-2.0,0.0
1701719552.651019,-1.0,0.0,-3.0,-2.0,2.0,1.0,-2.0,-2.0
1701719552.651019,-2.0,-1.0,0.0,0.0,-1.0,0.0,-3.0,-2.0
1701719552.651019,-3.0,-2.0,-1.0,-1.0,0.0,-2.0,1.0,-3.0
1701719552.6613703,0.0,-1.0,0.0,-2.0,-4.0,-1.0,-1.0,0.0
1701719552.6613703,-1.0,-1.0,-2.0,1.0,0.0,-1.0,-1.0,-1.0
1701719552.6613703,2.0,-1.0,-3.0,-3.0,-1.0,1.0,0.0,-1.0
1701719552.6613703,-2.0,0.0,-2.0,-1.0,-3.0,-1.0,-4.0,-1.0
1701719552.681375,-2.0,-1.0,-1.0,-2.0,1.0,-3.0,-2.0,-1.0
1701719552.681375,-1.0,0.0,0.0,-1.0,0.0,-2.0,0.0,0.0
1701719552.6910195,-2.0,-1.0,-1.0,-1.0,1.0,0.0,-1.0,-2.0
1701719552.6910195,-2.0,0.0,-2.0,-1.0,-2.0,-1.0,-3.0,0.0
1701719552.7010798,0.0,0.0,-3.0,0.0,-2.0,-2.0,-2.0,-1.0
1701719552.7010798,-1.0,0.0,-1.0,-1.0,-1.0,-1.0,-1.0,-1.0
1701719552.7010798,-2.0,-1.0,-1.0,-1.0,-3.0,-3.0,-1.0,1.0
1701719552.7010798,-1.0,0.0,-1.0,1.0,1.0,-1.0,1.0,0.0
1701719552.721395,-3.0,-1.0,-1.0,0.0,0.0,2.0,-1.0,0.0
1701719552.721395,-1.0,-1.0,-2.0,-1.0,-2.0,-2.0,0.0,-1.0
1701719552.721395,-2.0,-1.0,-1.0,-1.0,-1.0,-2.0,0.0,-2.0
1701719552.721395,-1.0,-2.0,-1.0,-3.0,0.0,-2.0,-2.0,-2.0
1701719552.7414138,1.0,-3.0,-3.0,-1.0,0.0,-3.0,0.0,-3.0
1701719552.7414138,-1.0,-1.0,-1.0,-2.0,0.0,-1.0,-2.0,-2.0
1701719552.7510343,-4.0,-3.0,-2.0,-1.0,0.0,-1.0,-2.0,-1.0
1701719552.7510343,0.0,-1.0,-2.0,-2.0,-2.0,0.0,-2.0,-1.0
1701719552.7610826,-1.0,-1.0,-2.0,-2.0,-1.0,-2.0,-2.0,-1.0
1701719552.7610826,0.0,-1.0,-3.0,-1.0,-3.0,-2.0,-2.0,0.0
1701719552.7610826,0.0,0.0,0.0,-1.0,-1.0,-3.0,-2.0,-1.0
1701719552.7610826,-1.0,-2.0,-2.0,-2.0,-1.0,-1.0,1.0,-1.0
1701719552.7814276,-2.0,-1.0,0.0,-2.0,-1.0,0.0,2.0,-4.0
1701719552.7814276,-1.0,-1.0,-1.0,-2.0,0.0,-1.0,-1.0,-2.0
1701719552.7814276,-2.0,1.0,0.0,0.0,-1.0,-1.0,0.0,0.0
1701719552.7814276,-1.0,0.0,-2.0,0.0,-2.0,-1.0,-1.0,-1.0
1701719552.811047,-2.0,-1.0,-4.0,-2.0,-2.0,-1.0,-1.0,1.0
1701719552.811047,-1.0,2.0,-1.0,-1.0,1.0,0.0,1.0,0.0
1701719552.811047,1.0,-2.0,-2.0,0.0,0.0,0.0,-1.0,-1.0
1701719552.811047,-1.0,0.0,-2.0,-1.0,1.0,0.0,-1.0,0.0
1701719552.8212638,-1.0,-4.0,0.0,-2.0,-2.0,0.0,-2.0,0.0
1701719552.8212638,-1.0,-2.0,0.0,1.0,-1.0,0.0,-2.0,-2.0
1701719552.8212638,-1.0,0.0,-1.0,-1.0,-1.0,0.0,-2.0,0.0
1701719552.8212638,-1.0,0.0,-1.0,0.0,-1.0,-2.0,-2.0,-2.0
1701719552.844034,-1.0,1.0,-1.0,-1.0,-1.0,0.0,-1.0,0.0
1701719552.844034,-2.0,-2.0,-3.0,-3.0,-2.0,-1.0,1.0,-3.0
1701719552.844034,-1.0,-2.0,0.0,0.0,0.0,-2.0,-1.0,-1.0
1701719552.844034,-1.0,-3.0,1.0,-3.0,-2.0,-2.0,0.0,-3.0
1701719552.866581,-1.0,0.0,0.0,-1.0,1.0,-2.0,1.0,-2.0
1701719552.866581,0.0,-3.0,-1.0,0.0,-2.0,-1.0,-1.0,0.0
1701719552.8676338,1.0,-1.0,-2.0,-2.0,-1.0,-1.0,-1.0,0.0
1701719552.8676338,0.0,-1.0,-2.0,1.0,-2.0,-1.0,-2.0,0.0
1701719552.8735304,-1.0,-2.0,0.0,0.0,-1.0,-1.0,-1.0,1.0
1701719552.8735304,-1.0,0.0,1.0,1.0,-1.0,0.0,-1.0,-1.0
1701719552.8735304,-2.0,-1.0,0.0,0.0,-1.0,-2.0,0.0,-1.0
1701719552.8735304,0.0,0.0,1.0,-2.0,-2.0,-2.0,-1.0,0.0
1701719552.9038842,0.0,0.0,-1.0,-3.0,-2.0,1.0,1.0,-2.0
1701719552.9038842,-1.0,0.0,-1.0,-1.0,-3.0,-2.0,0.0,0.0
1701719552.9038842,-2.0,0.0,-1.0,-1.0,0.0,-1.0,0.0,-2.0
1701719552.9038842,-1.0,-3.0,0.0,-1.0,0.0,0.0,-4.0,-1.0
1701719552.9337611,2.0,0.0,-1.0,0.0,-1.0,-2.0,-5.0,-2.0
1701719552.9337611,0.0,-1.0,-1.0,-3.0,-1.0,1.0,-5.0,-2.0
1701719552.9337611,0.0,-1.0,-1.0,0.0,-1.0,-2.0,-3.0,-2.0
1701719552.9337611,-2.0,1.0,-3.0,0.0,1.0,-1.0,0.0,-1.0
1701719552.9437654,-1.0,1.0,-2.0,1.0,-2.0,-2.0,0.0,0.0
1701719552.9437654,-1.0,-1.0,-1.0,-2.0,-2.0,-1.0,0.0,0.0
1701719552.9437654,-1.0,-3.0,-1.0,-2.0,-2.0,0.0,1.0,-1.0
1701719552.9437654,1.0,-2.0,0.0,0.0,-1.0,-1.0,0.0,-1.0
1701719552.963979,-1.0,-3.0,-1.0,0.0,0.0,0.0,1.0,-3.0
1701719552.963979,-2.0,1.0,0.0,-1.0,1.0,-1.0,0.0,-1.0
1701719552.963979,-1.0,-1.0,-2.0,-2.0,1.0,-1.0,-1.0,0.0
1701719552.963979,-1.0,-1.0,0.0,-2.0,-1.0,-1.0,0.0,1.0
1701719552.9837613,0.0,0.0,-3.0,-1.0,-2.0,-2.0,-3.0,0.0
1701719552.9837613,-1.0,-1.0,-2.0,-1.0,-3.0,-3.0,-1.0,1.0
1701719552.9837613,-2.0,-2.0,-3.0,-1.0,-1.0,-1.0,-2.0,0.0
1701719552.9837613,0.0,-2.0,-2.0,-2.0,0.0,1.0,-1.0,1.0
1701719552.994067,-2.0,-3.0,0.0,-2.0,-1.0,-1.0,-2.0,0.0
1701719552.994067,0.0,-1.0,-1.0,-2.0,0.0,-1.0,0.0,-1.0
1701719552.994067,-1.0,0.0,-1.0,-1.0,-3.0,-1.0,0.0,-1.0
1701719552.994067,-2.0,0.0,-2.0,-1.0,-2.0,-2.0,-1.0,-2.0
1701719553.0238972,-2.0,-1.0,-1.0,-2.0,-1.0,0.0,0.0,-2.0
1701719553.0238972,0.0,-1.0,-1.0,0.0,-1.0,-1.0,0.0,-3.0
1701719553.0238972,-1.0,2.0,-1.0,-1.0,-2.0,0.0,0.0,-3.0
1701719553.0238972,-1.0,-2.0,-3.0,0.0,-3.0,-1.0,0.0,-2.0
1701719553.0437949,1.0,-2.0,-3.0,0.0,0.0,-3.0,-2.0,-1.0
1701719553.0437949,-2.0,-5.0,-1.0,0.0,2.0,-2.0,0.0,-2.0
1701719553.0437949,-2.0,0.0,0.0,-2.0,-1.0,-1.0,-2.0,0.0
1701719553.0437949,-2.0,0.0,0.0,-2.0,0.0,-1.0,-2.0,-1.0
1701719553.0541074,2.0,0.0,0.0,-1.0,0.0,1.0,-2.0,-1.0
1701719553.0541074,-8.0,-1.0,-1.0,-3.0,-1.0,0.0,-2.0,-3.0
1701719553.064064,-2.0,-3.0,-2.0,-1.0,2.0,-1.0,-1.0,-1.0
1701719553.064064,2.0,-1.0,1.0,-2.0,-2.0,0.0,-3.0,-1.0
1701719553.0837624,0.0,0.0,0.0,-1.0,-3.0,-2.0,1.0,-4.0
1701719553.0837624,-2.0,-1.0,0.0,-2.0,-3.0,-2.0,0.0,0.0
1701719553.0837624,3.0,-1.0,0.0,-2.0,-1.0,-1.0,1.0,-1.0
1701719553.0837624,3.0,-2.0,0.0,1.0,0.0,1.0,0.0,-4.0
1701719553.1037645,-12.0,-3.0,-5.0,-3.0,-1.0,-1.0,-3.0,-2.0
1701719553.1037645,1.0,1.0,-1.0,0.0,-1.0,-1.0,-2.0,5.0
1701719553.1037645,-7.0,-1.0,-2.0,-2.0,-2.0,-1.0,-3.0,-1.0
1701719553.1037645,-4.0,-1.0,-3.0,0.0,-1.0,-3.0,2.0,0.0
1701719553.114091,5.0,-2.0,-1.0,1.0,-2.0,0.0,-1.0,-5.0
1701719553.114091,-1.0,-2.0,-2.0,1.0,-1.0,-1.0,0.0,-3.0
1701719553.1240811,-5.0,-2.0,1.0,0.0,-1.0,0.0,-1.0,0.0
1701719553.1240811,0.0,-2.0,-1.0,-1.0,-2.0,0.0,-1.0,-2.0
1701719553.1437624,5.0,-1.0,-1.0,-2.0,-1.0,0.0,2.0,-5.0
1701719553.1437624,16.0,1.0,-2.0,-2.0,-3.0,0.0,-2.0,8.0
1701719553.1437624,-14.0,0.0,-1.0,0.0,-1.0,0.0,0.0,-1.0
1701719553.1437624,0.0,-1.0,-2.0,-1.0,-1.0,-1.0,-2.0,-1.0
1701719553.1641738,-14.0,-2.0,3.0,-2.0,-1.0,-1.0,-1.0,-3.0
1701719553.1641738,-7.0,0.0,-3.0,0.0,0.0,-1.0,-2.0,5.0
1701719553.1641738,4.0,-2.0,-1.0,-1.0,0.0,-1.0,-3.0,-1.0
1701719553.1641738,0.0,-1.0,-1.0,-3.0,0.0,-1.0,-2.0,-1.0
1701719553.174107,6.0,0.0,-1.0,2.0,0.0,-1.0,-2.0,2.0
1701719553.174107,-5.0,0.0,-1.0,-2.0,0.0,-1.0,2.0,-5.0
1701719553.1840534,-3.0,-1.0,-1.0,0.0,-2.0,-1.0,2.0,1.0
1701719553.1840534,-1.0,0.0,0.0,-1.0,-1.0,-3.0,0.0,0.0
1701719553.2037635,1.0,0.0,0.0,-2.0,0.0,0.0,-2.0,1.0
1701719553.2037635,-4.0,-3.0,-1.0,-3.0,-2.0,0.0,-1.0,-5.0
1701719553.2037635,3.0,-1.0,-4.0,-3.0,-1.0,-1.0,-1.0,-2.0
1701719553.2037635,-2.0,-2.0,-2.0,-2.0,-1.0,-1.0,-2.0,0.0
1701719553.2241845,-2.0,1.0,-1.0,0.0,-1.0,-1.0,1.0,2.0
1701719553.2241845,-1.0,-1.0,-2.0,-1.0,-1.0,-1.0,0.0,1.0
1701719553.2241845,5.0,1.0,-2.0,-1.0,0.0,-1.0,-2.0,0.0
1701719553.2241845,-6.0,-1.0,-2.0,-1.0,1.0,-2.0,-1.0,0.0
1701719553.234095,9.0,0.0,-1.0,0.0,-1.0,-1.0,-2.0,-1.0
1701719553.234095,-6.0,-1.0,0.0,-1.0,0.0,0.0,-1.0,3.0
1701719553.243766,5.0,-3.0,-1.0,-1.0,-1.0,0.0,-2.0,-3.0
1701719553.243766,-4.0,-1.0,-1.0,-1.0,-1.0,-2.0,-2.0,-6.0
1701719553.263826,-1.0,-2.0,-1.0,0.0,-1.0,-1.0,-3.0,8.0
1701719553.263826,3.0,-2.0,-2.0,-1.0,-2.0,-1.0,-1.0,-5.0
1701719553.263826,2.0,-1.0,-1.0,-3.0,-2.0,-2.0,-1.0,0.0
1701719553.263826,-3.0,-1.0,0.0,0.0,-2.0,0.0,-1.0,0.0
1701719553.2839725,-4.0,-1.0,-1.0,-2.0,-2.0,-1.0,1.0,-3.0
1701719553.2839725,4.0,-1.0,0.0,0.0,-2.0,-1.0,-1.0,-3.0
1701719553.2839725,-5.0,-1.0,-1.0,-1.0,-2.0,-1.0,1.0,-2.0
1701719553.2839725,0.0,-1.0,-1.0,-1.0,-1.0,1.0,-1.0,-2.0
1701719553.2939992,-1.0,0.0,-2.0,-1.0,-1.0,-1.0,-1.0,-2.0
1701719553.2939992,-2.0,0.0,0.0,0.0,1.0,-1.0,-1.0,-2.0
1701719553.303957,-2.0,-1.0,0.0,0.0,0.0,1.0,2.0,-1.0
1701719553.303957,-3.0,-3.0,0.0,-1.0,-1.0,-3.0,-1.0,1.0
1701719553.3237624,-3.0,-2.0,-1.0,-1.0,1.0,0.0,-3.0,-1.0
1701719553.3237624,-3.0,-2.0,-1.0,-2.0,-1.0,0.0,0.0,-2.0
1701719553.3237624,1.0,1.0,-2.0,-1.0,1.0,0.0,-1.0,1.0
1701719553.3237624,-9.0,-3.0,1.0,0.0,-2.0,0.0,0.0,-1.0
1701719553.34405,-6.0,-3.0,-2.0,-1.0,-2.0,-1.0,0.0,1.0
1701719553.34405,-3.0,-2.0,-2.0,2.0,-2.0,-1.0,0.0,-3.0
1701719553.34405,1.0,0.0,-1.0,0.0,0.0,0.0,-2.0,0.0
1701719553.34405,1.0,0.0,-2.0,-3.0,-2.0,0.0,-3.0,1.0
1701719553.391258,2.0,-2.0,-3.0,-3.0,-2.0,-1.0,-1.0,-3.0
1701719553.391258,-3.0,0.0,0.0,-2.0,-1.0,-2.0,-1.0,-1.0
1701719553.391258,0.0,0.0,-1.0,-1.0,1.0,-3.0,-1.0,-3.0
1701719553.391258,3.0,-1.0,-4.0,0.0,-1.0,-1.0,1.0,1.0
1701719553.391258,0.0,-1.0,-2.0,0.0,-1.0,-1.0,-3.0,1.0
1701719553.391258,0.0,0.0,-1.0,-2.0,0.0,0.0,-2.0,-2.0
1701719553.391258,-2.0,-3.0,-1.0,-1.0,1.0,0.0,0.0,-2.0
1701719553.391258,-1.0,0.0,-1.0,0.0,-2.0,1.0,-2.0,-1.0
1701719553.4061794,-3.0,-3.0,-1.0,-2.0,-1.0,-1.0,0.0,1.0
1701719553.4061794,0.0,-3.0,-2.0,1.0,-2.0,0.0,-3.0,-3.0
1701719553.4061794,-2.0,-1.0,-1.0,-1.0,-1.0,-3.0,-1.0,0.0
1701719553.4061794,0.0,-2.0,-1.0,-2.0,-1.0,0.0,-2.0,-2.0
1701719553.426209,-1.0,-1.0,-1.0,0.0,-1.0,-1.0,0.0,0.0
1701719553.426209,-6.0,-1.0,-2.0,-2.0,0.0,0.0,-2.0,0.0
1701719553.426209,0.0,-2.0,-3.0,-2.0,-1.0,0.0,-3.0,-4.0
1701719553.426209,1.0,0.0,-1.0,-1.0,0.0,0.0,0.0,-2.0
1701719553.4365807,-1.0,1.0,0.0,-1.0,-1.0,-2.0,-1.0,-2.0
1701719553.4365807,-1.0,-2.0,-1.0,-1.0,-1.0,-2.0,0.0,-2.0
1701719553.4365807,-2.0,-2.0,2.0,-1.0,-2.0,-1.0,0.0,0.0
1701719553.4365807,-1.0,1.0,-1.0,-3.0,1.0,-1.0,1.0,2.0
1701719553.4670637,-2.0,-2.0,0.0,-2.0,0.0,2.0,-1.0,0.0
1701719553.4670637,0.0,-1.0,-1.0,-1.0,0.0,-2.0,-1.0,1.0
1701719553.4670637,-2.0,-2.0,-2.0,0.0,-1.0,-1.0,-3.0,-1.0
1701719553.4670637,-1.0,-3.0,-1.0,-2.0,-1.0,-2.0,-2.0,-3.0
1701719553.4866316,-2.0,1.0,-2.0,0.0,0.0,-1.0,1.0,-1.0
1701719553.4866316,0.0,-1.0,-1.0,-1.0,-2.0,0.0,0.0,0.0
1701719553.4866316,1.0,0.0,-1.0,0.0,-1.0,0.0,1.0,0.0
1701719553.4866316,-4.0,0.0,-1.0,-1.0,1.0,-1.0,-1.0,-4.0
1701719553.4966643,2.0,0.0,-2.0,1.0,0.0,0.0,-1.0,-4.0
1701719553.4966643,2.0,-1.0,0.0,0.0,-1.0,-3.0,-3.0,1.0
1701719553.4966643,1.0,-2.0,-1.0,-2.0,-2.0,-2.0,-4.0,-2.0
1701719553.4966643,0.0,-1.0,0.0,-2.0,-2.0,-1.0,-4.0,0.0
1701719553.5268054,-3.0,-3.0,0.0,-2.0,-1.0,-2.0,-4.0,-1.0
1701719553.5268054,1.0,-2.0,0.0,-1.0,-2.0,0.0,-2.0,-2.0
1701719553.5268054,0.0,-2.0,-1.0,-1.0,-1.0,-1.0,-1.0,0.0
1701719553.5268054,0.0,-1.0,-2.0,1.0,-2.0,-2.0,2.0,3.0
1701719553.5566633,-1.0,-1.0,-3.0,1.0,-2.0,-2.0,2.0,0.0
1701719553.5566633,-1.0,0.0,-3.0,0.0,-1.0,0.0,1.0,-1.0
1701719553.5566633,-3.0,0.0,-2.0,1.0,1.0,-3.0,-1.0,-1.0
1701719553.5566633,1.0,-2.0,1.0,-2.0,-2.0,-2.0,-2.0,0.0
1701719553.5566633,-1.0,0.0,0.0,-2.0,-1.0,-1.0,-2.0,-2.0
1701719553.5566633,-6.0,-1.0,-2.0,-1.0,-2.0,-1.0,-2.0,-2.0
1701719553.5566633,12.0,-2.0,0.0,-1.0,-3.0,-1.0,-1.0,-1.0
1701719553.5566633,1.0,0.0,-2.0,-3.0,0.0,0.0,1.0,-2.0
1701719553.5869474,-9.0,-2.0,-3.0,-3.0,-2.0,-1.0,-1.0,-1.0
1701719553.5869474,9.0,-2.0,-1.0,1.0,0.0,-1.0,0.0,-3.0
1701719553.5869474,-2.0,-3.0,-1.0,0.0,-1.0,0.0,-2.0,-1.0
1701719553.5869474,0.0,-1.0,-1.0,1.0,-1.0,0.0,-2.0,-3.0
1701719553.6069043,-1.0,-1.0,-2.0,-1.0,-1.0,-1.0,0.0,-2.0
1701719553.6069043,-2.0,-1.0,0.0,-4.0,-1.0,0.0,-1.0,1.0
1701719553.6069043,-4.0,-2.0,0.0,-2.0,1.0,-1.0,-2.0,-1.0
1701719553.6069043,0.0,0.0,1.0,0.0,-3.0,-1.0,-1.0,2.0
1701719553.6169155,-1.0,0.0,-1.0,-1.0,-2.0,-2.0,0.0,-3.0
1701719553.6169155,-3.0,-1.0,-2.0,-1.0,0.0,-1.0,-3.0,-2.0
1701719553.6169155,-2.0,0.0,-1.0,1.0,-1.0,-3.0,1.0,0.0
1701719553.6169155,-2.0,0.0,-1.0,-1.0,-2.0,1.0,-3.0,0.0
1701719553.6467898,3.0,-1.0,-1.0,-1.0,0.0,0.0,-2.0,0.0
1701719553.6467898,-2.0,-1.0,0.0,-1.0,0.0,-2.0,-1.0,-1.0
1701719553.6566396,-4.0,0.0,0.0,-1.0,-2.0,-1.0,0.0,-3.0
1701719553.6566396,1.0,-1.0,-1.0,-2.0,1.0,-3.0,1.0,-3.0
1701719553.6666355,0.0,1.0,1.0,1.0,-3.0,0.0,0.0,-1.0
1701719553.6666355,0.0,0.0,-2.0,-1.0,0.0,0.0,-2.0,-2.0
1701719553.6666355,0.0,-1.0,-1.0,-1.0,-1.0,1.0,-2.0,2.0
1701719553.6666355,-2.0,-2.0,-1.0,-1.0,-2.0,-2.0,0.0,-3.0
1701719553.6766658,4.0,-1.0,1.0,-1.0,-1.0,-2.0,-2.0,0.0
1701719553.6766658,-2.0,-2.0,-3.0,-1.0,-1.0,-1.0,0.0,-2.0
1701719553.6766658,-2.0,-2.0,-1.0,-1.0,-2.0,0.0,-3.0,-1.0
1701719553.6766658,2.0,0.0,-2.0,0.0,-2.0,0.0,0.0,0.0
1701719553.7066696,-2.0,-2.0,-3.0,-1.0,1.0,-1.0,0.0,-1.0
1701719553.7066696,-1.0,1.0,0.0,-1.0,1.0,-2.0,-2.0,-2.0
1701719553.7066696,-2.0,0.0,-2.0,-2.0,-1.0,-2.0,-1.0,-2.0
1701719553.7066696,-2.0,-2.0,-1.0,-1.0,0.0,0.0,-4.0,0.0
1701719553.7268229,-2.0,-1.0,-1.0,-1.0,0.0,0.0,-3.0,0.0
1701719553.7268229,-1.0,-1.0,-1.0,0.0,-1.0,-1.0,1.0,1.0
1701719553.7268229,-2.0,0.0,-2.0,-3.0,0.0,-1.0,0.0,-1.0
1701719553.7268229,-2.0,-2.0,-1.0,-2.0,0.0,-1.0,-1.0,0.0
1701719553.7369673,0.0,0.0,-2.0,-1.0,-2.0,-1.0,-2.0,-5.0
1701719553.7369673,-2.0,-2.0,0.0,-1.0,-3.0,-1.0,-2.0,-1.0
1701719553.7369673,0.0,-1.0,-1.0,-1.0,-1.0,-1.0,-2.0,-1.0
1701719553.7369673,-5.0,-1.0,0.0,0.0,-1.0,-2.0,-2.0,-1.0
1701719553.7667844,3.0,-1.0,-2.0,-1.0,0.0,-2.0,-1.0,-2.0
1701719553.7667844,0.0,-2.0,-2.0,-1.0,0.0,-2.0,1.0,-1.0
1701719553.7667844,4.0,-2.0,-1.0,1.0,0.0,-1.0,-1.0,-1.0
1701719553.7667844,-10.0,-2.0,-2.0,-1.0,0.0,-1.0,0.0,0.0
1701719553.7868977,-4.0,-2.0,-2.0,-2.0,-2.0,-1.0,0.0,0.0
1701719553.7868977,-1.0,-1.0,-1.0,-1.0,0.0,-1.0,-1.0,0.0
1701719553.7868977,-2.0,0.0,0.0,-2.0,-2.0,-1.0,-1.0,1.0
1701719553.7868977,-1.0,1.0,-2.0,-3.0,0.0,0.0,-1.0,-3.0
1701719553.7969213,-2.0,0.0,-2.0,0.0,-3.0,-1.0,-3.0,-1.0
1701719553.7969213,-2.0,-2.0,-1.0,-1.0,-2.0,-3.0,0.0,-3.0
1701719553.7969213,0.0,-3.0,-1.0,-1.0,0.0,-2.0,0.0,-3.0
1701719553.7969213,2.0,-2.0,-1.0,0.0,-1.0,-1.0,1.0,-1.0
1701719553.8266325,-2.0,0.0,-2.0,-2.0,-3.0,-2.0,0.0,1.0
1701719553.8266325,-1.0,-3.0,-1.0,-3.0,1.0,-1.0,-1.0,0.0
1701719553.8266325,-4.0,-1.0,-1.0,1.0,-1.0,0.0,-1.0,-2.0
1701719553.8266325,0.0,1.0,-3.0,-2.0,-1.0,-3.0,-1.0,-1.0
1701719553.8469188,-2.0,-2.0,-1.0,-1.0,-2.0,0.0,1.0,-2.0
1701719553.8469188,-1.0,1.0,-2.0,-2.0,-2.0,-1.0,1.0,-1.0
1701719553.8469188,-3.0,1.0,-1.0,-2.0,-2.0,-2.0,-1.0,0.0
1701719553.8469188,0.0,-1.0,1.0,0.0,0.0,0.0,-1.0,-2.0
1701719553.8569162,0.0,-2.0,1.0,0.0,0.0,0.0,-3.0,-1.0
1701719553.8569162,-2.0,-1.0,0.0,-2.0,-2.0,-2.0,-1.0,-2.0
1701719553.8667,2.0,0.0,-1.0,-1.0,-3.0,0.0,-2.0,-2.0
1701719553.8667,2.0,-1.0,-2.0,0.0,-3.0,0.0,-2.0,-2.0
1701719553.9006655,0.0,0.0,-1.0,-2.0,-2.0,-2.0,-1.0,-2.0
1701719553.9006655,-1.0,-2.0,-1.0,0.0,-1.0,-1.0,-2.0,0.0
1701719553.9006655,-3.0,-2.0,-1.0,-2.0,-1.0,-1.0,-1.0,2.0
1701719553.9006655,7.0,-1.0,-2.0,-2.0,-2.0,0.0,-1.0,0.0
1701719553.909591,-6.0,-1.0,-2.0,0.0,0.0,0.0,0.0,-3.0
1701719553.9106126,-2.0,-1.0,-3.0,-2.0,-2.0,-1.0,0.0,0.0
1701719553.9106126,-4.0,-1.0,-2.0,-1.0,-1.0,-2.0,0.0,1.0
1701719553.9106126,-2.0,-1.0,2.0,-2.0,-1.0,-1.0,0.0,-2.0
1701719553.9323783,4.0,-1.0,1.0,-1.0,1.0,-1.0,-2.0,-3.0
1701719553.9323783,-2.0,1.0,-1.0,-3.0,-2.0,0.0,-2.0,-2.0
1701719553.9323783,-3.0,-4.0,-1.0,1.0,1.0,-1.0,-1.0,-2.0
1701719553.9323783,4.0,-3.0,0.0,0.0,-1.0,-1.0,-2.0,-1.0
1701719553.9427025,0.0,-1.0,1.0,-1.0,-2.0,0.0,0.0,0.0
1701719553.9427025,-3.0,-2.0,-2.0,0.0,-1.0,-2.0,-3.0,-1.0
1701719553.9427025,8.0,-1.0,0.0,0.0,-1.0,1.0,-1.0,-2.0
1701719553.9427025,-11.0,-1.0,-5.0,0.0,-2.0,-1.0,-2.0,-1.0
1701719553.9629915,3.0,-1.0,-1.0,0.0,-2.0,-1.0,-1.0,-1.0
1701719553.9629915,2.0,-2.0,1.0,0.0,-3.0,1.0,-1.0,-1.0
1701719553.9629915,-2.0,-1.0,0.0,0.0,-1.0,0.0,1.0,0.0
1701719553.9629915,-1.0,-1.0,0.0,-3.0,0.0,-1.0,1.0,-1.0
1701719554.0027223,3.0,-1.0,-2.0,-2.0,0.0,-1.0,-1.0,1.0
1701719554.0027223,-6.0,-4.0,-1.0,-3.0,-2.0,-2.0,0.0,1.0
1701719554.0027223,-2.0,-3.0,-2.0,0.0,0.0,-2.0,-3.0,-3.0
1701719554.0027223,-2.0,0.0,-3.0,1.0,-1.0,-1.0,-1.0,0.0
1701719554.0027223,-3.0,-1.0,2.0,-1.0,-1.0,-2.0,-1.0,-1.0
1701719554.0027223,2.0,0.0,-3.0,0.0,-1.0,-1.0,-1.0,-1.0
1701719554.0027223,-2.0,0.0,-9.0,-3.0,-1.0,1.0,0.0,-2.0
1701719554.0027223,1.0,-3.0,-5.0,-2.0,1.0,0.0,-3.0,-2.0
1701719554.023018,-5.0,-2.0,5.0,-1.0,-1.0,-1.0,-2.0,-2.0
1701719554.023018,-10.0,-1.0,5.0,6.0,-1.0,-3.0,-6.0,-4.0
1701719554.023018,1.0,0.0,1.0,-1.0,-1.0,-3.0,-6.0,-2.0
1701719554.023018,-2.0,-1.0,4.0,5.0,-1.0,0.0,-1.0,-1.0
1701719554.0527215,-2.0,-1.0,-8.0,-9.0,0.0,2.0,8.0,1.0
1701719554.0527215,-2.0,1.0,-3.0,2.0,0.0,2.0,2.0,2.0
1701719554.0527215,-5.0,-1.0,2.0,-5.0,0.0,-2.0,-1.0,-3.0
1701719554.0527215,0.0,0.0,-4.0,-5.0,0.0,-2.0,-4.0,-2.0
1701719554.0627189,1.0,-3.0,-1.0,-3.0,-2.0,-2.0,-4.0,0.0
1701719554.0627189,-2.0,-1.0,2.0,0.0,0.0,-2.0,0.0,-1.0
1701719554.0627189,0.0,1.0,1.0,3.0,0.0,-1.0,-5.0,-3.0
1701719554.0627189,1.0,0.0,1.0,3.0,-2.0,-1.0,3.0,6.0
1701719554.0827386,-2.0,0.0,-3.0,0.0,-2.0,-2.0,-6.0,-1.0
1701719554.0827386,4.0,0.0,-1.0,-1.0,-1.0,-1.0,0.0,-1.0
1701719554.0827386,-6.0,-1.0,-3.0,-2.0,0.0,0.0,0.0,0.0
1701719554.0827386,-2.0,-2.0,2.0,-4.0,-3.0,-1.0,0.0,-3.0
1701719554.1030948,-5.0,-1.0,-3.0,-1.0,0.0,-1.0,-1.0,-1.0
1701719554.1030948,2.0,0.0,-3.0,0.0,0.0,-2.0,-3.0,-2.0
1701719554.1030948,-4.0,0.0,2.0,-1.0,-2.0,-2.0,3.0,-3.0
