1701719228.1646423,-4.0,1.0,-27.0,-6.0,0.0,5.0,25.0,2.0
1701719228.1646423,1.0,-1.0,-4.0,-6.0,-3.0,-4.0,-8.0,-4.0
1701719228.1646423,-2.0,-2.0,17.0,6.0,1.0,-4.0,-8.0,-2.0
1701719228.1646423,1.0,0.0,-2.0,-1.0,-1.0,7.0,9.0,4.0
1701719228.1846292,-2.0,-4.0,-32.0,-16.0,-3.0,-4.0,-1.0,-6.0
1701719228.1846292,-1.0,-1.0,31.0,1.0,2.0,6.0,11.0,1.0
1701719228.1846292,2.0,0.0,-29.0,-3.0,-1.0,-1.0,1.0,2.0
1701719228.1846292,-2.0,4.0,6.0,1.0,-1.0,-2.0,12.0,-3.0
1701719228.2046664,-4.0,1.0,27.0,9.0,0.0,-5.0,14.0,7.0
1701719228.2046664,-1.0,0.0,-7.0,-6.0,-1.0,0.0,-6.0,0.0
1701719228.2046664,1.0,-2.0,2.0,5.0,3.0,0.0,17.0,6.0
1701719228.2046664,-3.0,-3.0,-4.0,-7.0,-5.0,-3.0,-25.0,-11.0
1701719228.2446284,0.0,-2.0,5.0,0.0,-1.0,-1.0,-5.0,2.0
1701719228.2446284,2.0,3.0,5.0,3.0,3.0,3.0,10.0,6.0
1701719228.2446284,0.0,1.0,22.0,0.0,-1.0,-6.0,0.0,-4.0
1701719228.2446284,-3.0,-1.0,-26.0,-4.0,-1.0,-1.0,-4.0,-4.0
1701719228.2446284,-2.0,-1.0,7.0,3.0,2.0,-1.0,-5.0,-2.0
1701719228.2446284,0.0,0.0,-1.0,-5.0,-5.0,2.0,12.0,-1.0
1701719228.2446284,-1.0,0.0,2.0,4.0,8.0,1.0,-7.0,0.0
1701719228.2546322,-3.0,-2.0,-1.0,-1.0,0.0,-1.0,4.0,0.0
1701719228.2746701,0.0,-2.0,-6.0,-5.0,-5.0,-3.0,-5.0,-7.0
1701719228.2746701,1.0,0.0,13.0,8.0,-2.0,-5.0,-11.0,-1.0
1701719228.2746701,-1.0,1.0,-4.0,-5.0,-6.0,7.0,27.0,2.0
1701719228.2746701,-1.0,-1.0,-6.0,-7.0,1.0,-4.0,3.0,4.0
1701719228.2847962,-1.0,0.0,16.0,2.0,-1.0,-1.0,-38.0,-12.0
1701719228.2847962,1.0,1.0,-3.0,1.0,0.0,3.0,6.0,4.0
1701719228.2847962,0.0,-2.0,-2.0,-3.0,-2.0,-5.0,1.0,0.0
1701719228.2847962,-2.0,-2.0,-4.0,1.0,1.0,-4.0,-8.0,-5.0
1701719228.3046267,-2.0,-5.0,-14.0,-10.0,-1.0,6.0,17.0,-2.0
1701719228.3046267,0.0,-3.0,-15.0,-7.0,-1.0,-3.0,-2.0,1.0
1701719228.3046267,2.0,1.0,15.0,9.0,-1.0,9.0,-9.0,-1.0
1701719228.3046267,2.0,1.0,8.0,2.0,3.0,-3.0,-4.0,-1.0
1701719228.3250813,0.0,0.0,5.0,-3.0,0.0,0.0,7.0,1.0
1701719228.3250813,-5.0,1.0,13.0,7.0,3.0,0.0,-8.0,-4.0
1701719228.3250813,-4.0,0.0,-12.0,-1.0,-2.0,2.0,10.0,2.0
1701719228.3250813,2.0,-6.0,-13.0,-6.0,-6.0,-8.0,-7.0,-3.0
1701719228.3446307,7.0,4.0,11.0,2.0,1.0,-3.0,3.0,0.0
1701719228.3446307,0.0,-7.0,-1.0,-4.0,-1.0,-1.0,-4.0,-2.0
1701719228.3446307,0.0,-2.0,-2.0,-5.0,-5.0,-9.0,-7.0,-2.0
1701719228.3446307,-1.0,-1.0,8.0,2.0,-2.0,4.0,1.0,-2.0
1701719228.3650463,-3.0,-2.0,-5.0,-4.0,-3.0,-2.0,-3.0,-2.0
1701719228.3650463,0.0,6.0,18.0,8.0,-2.0,0.0,2.0,-3.0
1701719228.3650463,0.0,2.0,10.0,5.0,1.0,-1.0,-7.0,3.0
1701719228.3650463,3.0,1.0,-6.0,-4.0,-2.0,-1.0,1.0,-1.0
1701719228.3846297,-4.0,-6.0,5.0,-2.0,-8.0,0.0,-7.0,-1.0
1701719228.3846297,-1.0,1.0,-5.0,5.0,-1.0,1.0,3.0,2.0
1701719228.3946283,-1.0,0.0,-14.0,8.0,5.0,3.0,1.0,0.0
1701719228.3946283,-2.0,-1.0,-1.0,-2.0,-2.0,-3.0,-4.0,-4.0
1701719228.4049904,-2.0,2.0,0.0,-14.0,-12.0,-5.0,0.0,1.0
1701719228.4049904,2.0,-2.0,0.0,9.0,18.0,0.0,-1.0,0.0
1701719228.4049904,-2.0,0.0,-3.0,-9.0,-7.0,-2.0,-7.0,-3.0
1701719228.4049904,-2.0,-3.0,1.0,3.0,4.0,2.0,16.0,2.0
1701719228.4250789,-4.0,-1.0,-6.0,-6.0,-5.0,-1.0,-3.0,-1.0
1701719228.4250789,0.0,-4.0,-2.0,-4.0,-5.0,-5.0,-6.0,-1.0
1701719228.4250789,0.0,-1.0,-2.0,1.0,-1.0,-2.0,-5.0,-1.0
1701719228.4250789,-1.0,2.0,-1.0,-5.0,-4.0,-2.0,1.0,-3.0
1701719228.4446306,-3.0,-1.0,-2.0,5.0,4.0,-1.0,-5.0,1.0
1701719228.4446306,2.0,0.0,2.0,-3.0,-6.0,0.0,1.0,-3.0
1701719228.4546278,-2.0,-6.0,-28.0,-4.0,1.0,-3.0,-8.0,0.0
1701719228.4546278,-5.0,-8.0,1.0,-19.0,-10.0,2.0,6.0,3.0
1701719228.4646282,-1.0,0.0,2.0,15.0,5.0,-2.0,0.0,-2.0
1701719228.4646282,1.0,-1.0,-5.0,-6.0,-7.0,-1.0,2.0,1.0
1701719228.4646282,-2.0,-1.0,17.0,-7.0,2.0,2.0,-6.0,-3.0
1701719228.4646282,-1.0,1.0,-2.0,14.0,7.0,0.0,-3.0,-5.0
1701719228.492607,-2.0,-2.0,-6.0,0.0,5.0,1.0,-5.0,1.0
1701719228.492607,0.0,-1.0,5.0,-4.0,0.0,3.0,6.0,2.0
1701719228.493502,-2.0,1.0,2.0,-6.0,-11.0,-5.0,4.0,-5.0
1701719228.493502,-1.0,0.0,-16.0,-6.0,-2.0,1.0,-4.0,0.0
1701719228.5065145,0.0,0.0,14.0,8.0,2.0,-2.0,1.0,-2.0
1701719228.5065145,-4.0,-1.0,-12.0,-7.0,-6.0,-8.0,-18.0,-5.0
1701719228.5176423,2.0,-2.0,-10.0,-1.0,0.0,4.0,23.0,-1.0
1701719228.5176423,0.0,1.0,21.0,6.0,4.0,2.0,1.0,8.0
1701719228.5279973,-1.0,0.0,-3.0,-5.0,-5.0,-15.0,-48.0,-20.0
1701719228.5279973,-3.0,0.0,3.0,3.0,5.0,22.0,65.0,15.0
1701719228.5279973,4.0,3.0,-10.0,-1.0,-3.0,-10.0,-22.0,-6.0
1701719228.5279973,-2.0,-6.0,-33.0,-10.0,-5.0,1.0,-2.0,-4.0
1701719228.5478811,0.0,0.0,-11.0,0.0,-1.0,-3.0,-11.0,1.0
1701719228.5478811,-3.0,1.0,10.0,-2.0,3.0,-6.0,-19.0,-9.0
1701719228.5478811,-1.0,2.0,35.0,9.0,1.0,5.0,3.0,1.0
1701719228.5478811,1.0,-2.0,3.0,-4.0,-4.0,-9.0,0.0,-1.0
1701719228.5676403,-6.0,-4.0,7.0,-6.0,-5.0,3.0,10.0,-1.0
1701719228.5676403,2.0,-1.0,-19.0,6.0,-2.0,-4.0,-9.0,5.0
1701719228.5776165,-1.0,2.0,22.0,4.0,0.0,0.0,5.0,4.0
1701719228.5776165,-2.0,1.0,16.0,-2.0,-4.0,-4.0,-19.0,-3.0
1701719228.5877047,3.0,-2.0,-33.0,2.0,4.0,9.0,20.0,2.0
1701719228.5877047,-3.0,1.0,12.0,-7.0,-5.0,-13.0,-2.0,-1.0
1701719228.5877047,-5.0,-13.0,-37.0,-10.0,-4.0,-6.0,-18.0,-3.0
1701719228.5877047,-2.0,0.0,20.0,1.0,-1.0,0.0,4.0,-4.0
1701719228.607791,0.0,0.0,16.0,1.0,0.0,0.0,-4.0,-3.0
1701719228.607791,4.0,4.0,1.0,1.0,-1.0,3.0,15.0,2.0
1701719228.627621,-6.0,0.0,2.0,3.0,3.0,-2.0,1.0,3.0
1701719228.627621,2.0,-1.0,-4.0,-1.0,-1.0,1.0,11.0,0.0
1701719228.6376476,2.0,-1.0,-6.0,-1.0,4.0,2.0,6.0,5.0
1701719228.6376476,-2.0,0.0,17.0,-5.0,1.0,-4.0,-19.0,-6.0
1701719228.6376476,-4.0,-4.0,-18.0,3.0,-4.0,1.0,1.0,0.0
1701719228.6376476,-3.0,0.0,-5.0,-4.0,0.0,1.0,1.0,-2.0
1701719228.6480396,-3.0,-1.0,14.0,5.0,0.0,1.0,-4.0,-4.0
1701719228.6480396,3.0,2.0,-11.0,-8.0,-7.0,-1.0,-5.0,4.0
1701719228.6480396,-2.0,0.0,3.0,8.0,2.0,0.0,3.0,-4.0
1701719228.6480396,1.0,6.0,20.0,-5.0,3.0,-1.0,-8.0,-1.0
1701719228.6679602,-3.0,-8.0,-39.0,-5.0,-4.0,-5.0,6.0,2.0
1701719228.6679602,-2.0,-4.0,-1.0,-3.0,5.0,0.0,-5.0,-5.0
1701719228.6776168,0.0,3.0,17.0,4.0,-7.0,-2.0,1.0,1.0
1701719228.6776168,1.0,-3.0,7.0,10.0,1.0,-1.0,-6.0,2.0
1701719228.6776168,-3.0,4.0,5.0,1.0,6.0,-2.0,3.0,0.0
1701719228.6776168,-3.0,-8.0,-27.0,-15.0,-5.0,-3.0,-1.0,-3.0
1701719228.6876926,1.0,-3.0,-1.0,1.0,-1.0,-10.0,-16.0,-3.0
1701719228.6876926,-2.0,-4.0,-4.0,-4.0,-4.0,3.0,-9.0,-10.0
1701719228.7084754,1.0,-1.0,11.0,0.0,-3.0,2.0,9.0,9.0
1701719228.7084754,-2.0,-1.0,-9.0,9.0,1.0,0.0,-6.0,-2.0
1701719228.7084754,1.0,2.0,9.0,-5.0,0.0,3.0,12.0,2.0
1701719228.7084754,-3.0,-5.0,-18.0,-4.0,-7.0,-9.0,-22.0,-9.0
1701719228.7281134,-4.0,-1.0,8.0,0.0,2.0,-1.0,7.0,-1.0
1701719228.7281134,0.0,-1.0,-2.0,1.0,-3.0,2.0,-2.0,-3.0
1701719228.7380567,1.0,3.0,8.0,-5.0,0.0,-3.0,-9.0,-5.0
1701719228.7380567,-4.0,-6.0,-13.0,1.0,-2.0,2.0,8.0,-3.0
1701719228.7380567,2.0,2.0,10.0,1.0,-3.0,-5.0,-9.0,3.0
1701719228.7380567,-4.0,-1.0,6.0,7.0,-3.0,-2.0,18.0,3.0
1701719228.754522,-3.0,-2.0,-2.0,-6.0,3.0,0.0,-34.0,-14.0
1701719228.754522,1.0,3.0,-15.0,-4.0,-1.0,-2.0,5.0,5.0
1701719228.7695222,-3.0,0.0,32.0,1.0,-3.0,0.0,2.0,-3.0
1701719228.7695222,-1.0,-4.0,-29.0,-3.0,-1.0,-4.0,-1.0,-6.0
1701719228.771525,-4.0,-4.0,-6.0,-9.0,-3.0,1.0,8.0,7.0
1701719228.771525,7.0,5.0,10.0,12.0,-4.0,-3.0,-4.0,0.0
1701719228.79226,-2.0,-3.0,14.0,-8.0,1.0,-3.0,-6.0,-2.0
1701719228.79226,-1.0,-6.0,-5.0,-5.0,0.0,-5.0,-15.0,-2.0
1701719228.7932618,-2.0,-1.0,-9.0,6.0,2.0,4.0,7.0,1.0
1701719228.7932618,0.0,6.0,16.0,4.0,4.0,1.0,6.0,1.0
1701719228.8075063,1.0,-2.0,-16.0,1.0,-3.0,4.0,13.0,1.0
1701719228.8075063,-2.0,-1.0,-13.0,-4.0,-2.0,-1.0,-4.0,-2.0
1701719228.814545,4.0,3.0,-1.0,-8.0,-5.0,-2.0,-1.0,-2.0
1701719228.814545,-7.0,-3.0,-4.0,0.0,0.0,-5.0,-4.0,-1.0
1701719228.8300068,3.0,0.0,-5.0,4.0,-5.0,-1.0,6.0,-1.0
1701719228.8300068,-4.0,-5.0,10.0,-5.0,2.0,1.0,-4.0,-1.0
1701719228.8310223,2.0,2.0,15.0,-2.0,-2.0,-3.0,1.0,0.0
1701719228.8310223,-4.0,-4.0,-30.0,-1.0,-11.0,-3.0,2.0,0.0
1701719228.8576512,-3.0,-4.0,-7.0,-17.0,0.0,-3.0,-6.0,-3.0
1701719228.8576512,2.0,-1.0,-8.0,7.0,0.0,0.0,-4.0,-1.0
1701719228.8576512,-2.0,-6.0,4.0,-3.0,14.0,2.0,4.0,0.0
1701719228.8576512,-3.0,5.0,6.0,-6.0,-6.0,-1.0,-4.0,-1.0
1701719228.8661318,0.0,-9.0,-18.0,4.0,0.0,3.0,-7.0,-1.0
1701719228.8661318,0.0,1.0,7.0,-1.0,0.0,-4.0,8.0,-1.0
1701719228.8750222,2.0,4.0,-8.0,3.0,-8.0,1.0,2.0,0.0
1701719228.8750222,-1.0,-8.0,4.0,2.0,2.0,-8.0,-8.0,1.0
1701719228.8904586,1.0,6.0,2.0,-3.0,-1.0,-4.0,-1.0,0.0
1701719228.8904586,1.0,0.0,-13.0,2.0,-1.0,5.0,-5.0,-3.0
1701719228.8914518,-4.0,-2.0,-10.0,-2.0,0.0,2.0,5.0,1.0
1701719228.8914518,-2.0,-3.0,-1.0,-6.0,0.0,-1.0,6.0,-5.0
1701719228.9121041,-3.0,0.0,-3.0,2.0,-5.0,-7.0,-13.0,-4.0
1701719228.9121041,1.0,5.0,19.0,9.0,2.0,4.0,19.0,2.0
1701719228.9140954,0.0,-2.0,-6.0,-6.0,-3.0,-1.0,1.0,-3.0
1701719228.9140954,-4.0,1.0,-10.0,2.0,-2.0,-2.0,-6.0,2.0
1701719228.926105,1.0,1.0,9.0,2.0,6.0,4.0,14.0,4.0
1701719228.926105,-1.0,-10.0,-24.0,-9.0,-4.0,-3.0,-8.0,-2.0
1701719228.9347172,-2.0,0.0,22.0,-5.0,-4.0,-2.0,10.0,3.0
1701719228.9347172,0.0,1.0,-10.0,2.0,5.0,9.0,3.0,0.0
1701719228.9504313,-3.0,-4.0,-15.0,-11.0,-5.0,-4.0,-11.0,-9.0
1701719228.9504313,0.0,5.0,20.0,4.0,-6.0,-3.0,4.0,7.0
1701719228.9504313,1.0,5.0,1.0,3.0,-2.0,1.0,-6.0,1.0
1701719228.9504313,-2.0,-8.0,-2.0,1.0,2.0,2.0,-9.0,-1.0
1701719228.970782,-2.0,6.0,-11.0,-7.0,-2.0,-1.0,0.0,-3.0
1701719228.970782,-3.0,-11.0,-2.0,-8.0,-3.0,-3.0,-1.0,-1.0
1701719228.970782,4.0,5.0,-2.0,-4.0,0.0,-3.0,-5.0,-2.0
1701719228.970782,0.0,0.0,25.0,-5.0,-3.0,-3.0,3.0,-4.0
1701719228.9808245,-1.0,-2.0,-8.0,2.0,-1.0,-2.0,1.0,1.0
1701719228.9808245,1.0,-1.0,21.0,8.0,-1.0,-3.0,-12.0,-3.0
1701719228.9907966,-3.0,-3.0,-5.0,1.0,-6.0,-1.0,5.0,0.0
1701719228.9907966,2.0,0.0,16.0,-4.0,-3.0,3.0,4.0,1.0
1701719229.0127087,-1.0,-2.0,-6.0,10.0,8.0,2.0,2.0,-1.0
1701719229.0127087,-2.0,-3.0,-8.0,-5.0,0.0,-1.0,-3.0,-1.0
1701719229.0127087,-1.0,-2.0,2.0,4.0,1.0,-1.0,-2.0,-3.0
1701719229.0127087,0.0,-1.0,-10.0,0.0,-2.0,-1.0,-2.0,-2.0
1701719229.0325882,2.0,-2.0,1.0,-6.0,-10.0,-2.0,4.0,2.0
1701719229.0325882,-2.0,6.0,2.0,5.0,10.0,0.0,-6.0,-2.0
1701719229.0339594,-3.0,-3.0,-8.0,-2.0,-4.0,0.0,0.0,-1.0
1701719229.0339594,0.0,1.0,0.0,0.0,-3.0,-2.0,19.0,6.0
1701719229.040717,-1.0,1.0,4.0,-7.0,-5.0,-6.0,-25.0,-13.0
1701719229.040717,-4.0,-1.0,6.0,6.0,-6.0,-3.0,-13.0,-3.0
1701719229.0511413,1.0,-3.0,-16.0,-18.0,-6.0,2.0,-11.0,-7.0
1701719229.0511413,-2.0,-4.0,-6.0,15.0,11.0,0.0,-8.0,0.0
1701719229.0711534,-1.0,-1.0,15.0,2.0,6.0,3.0,8.0,2.0
1701719229.0711534,0.0,2.0,-12.0,-7.0,-2.0,-5.0,-4.0,0.0
1701719229.0711534,0.0,0.0,19.0,7.0,-6.0,-4.0,7.0,0.0
1701719229.0711534,0.0,-2.0,-25.0,-13.0,-8.0,-3.0,-19.0,-7.0
1701719229.0915432,0.0,-1.0,18.0,4.0,-1.0,3.0,6.0,6.0
1701719229.0915432,0.0,-1.0,-13.0,-5.0,-4.0,-1.0,17.0,-6.0
1701719229.0915432,-3.0,-2.0,8.0,4.0,2.0,-4.0,-4.0,10.0
1701719229.0915432,0.0,-2.0,-8.0,-3.0,3.0,-2.0,-7.0,-3.0
1701719229.10159,0.0,2.0,-16.0,2.0,-3.0,-5.0,-6.0,2.0
1701719229.10159,-2.0,1.0,29.0,-8.0,-3.0,2.0,21.0,1.0
1701719229.111155,0.0,-5.0,-42.0,2.0,2.0,1.0,-8.0,-7.0
1701719229.111155,-4.0,-1.0,3.0,-1.0,1.0,1.0,5.0,-2.0
1701719229.1211538,-2.0,0.0,4.0,2.0,-4.0,-8.0,-32.0,4.0
1701719229.1211538,3.0,6.0,9.0,3.0,-1.0,7.0,16.0,3.0
1701719229.13118,-2.0,-5.0,-5.0,-7.0,0.0,-4.0,2.0,-4.0
1701719229.13118,0.0,0.0,-4.0,-3.0,-1.0,-1.0,12.0,6.0
1701719229.1514964,-1.0,-1.0,-13.0,-4.0,-4.0,0.0,-5.0,-2.0
1701719229.1514964,0.0,0.0,9.0,2.0,-2.0,1.0,2.0,0.0
1701719229.1514964,-3.0,0.0,11.0,4.0,3.0,-3.0,-4.0,2.0
1701719229.1514964,0.0,2.0,-1.0,-2.0,-2.0,-3.0,-11.0,-4.0
1701719229.1711965,-3.0,-1.0,-1.0,-1.0,1.0,-1.0,4.0,-2.0
1701719229.1711965,0.0,-2.0,3.0,1.0,-1.0,-1.0,-2.0,0.0
1701719229.1711965,-2.0,-1.0,-24.0,-5.0,-2.0,-1.0,-8.0,-2.0
1701719229.1711965,0.0,-2.0,15.0,2.0,-3.0,-5.0,-2.0,1.0
1701719229.1811903,-2.0,-2.0,-24.0,-5.0,0.0,-1.0,12.0,0.0
1701719229.1811903,-3.0,-3.0,-22.0,-7.0,0.0,1.0,-10.0,-2.0
1701719229.1911905,0.0,1.0,8.0,1.0,1.0,-2.0,-2.0,0.0
1701719229.1911905,-1.0,-2.0,-8.0,0.0,3.0,5.0,-5.0,0.0
1701719229.2115479,-3.0,-3.0,6.0,-1.0,-3.0,-3.0,14.0,0.0
1701719229.2115479,2.0,-1.0,-6.0,-2.0,-4.0,2.0,0.0,0.0
1701719229.2115479,0.0,-2.0,-4.0,0.0,1.0,-3.0,-2.0,-5.0
1701719229.2115479,1.0,0.0,9.0,3.0,-2.0,-4.0,6.0,8.0
1701719229.2311559,-5.0,1.0,7.0,1.0,2.0,3.0,-2.0,-2.0
1701719229.2311559,-2.0,-1.0,14.0,0.0,2.0,-5.0,-14.0,-4.0
1701719229.2311559,2.0,-4.0,-13.0,-4.0,-2.0,1.0,3.0,-1.0
1701719229.2311559,-5.0,2.0,17.0,4.0,-3.0,-5.0,-13.0,-5.0
1701719229.2411866,1.0,-1.0,-8.0,-2.0,-3.0,2.0,8.0,-5.0
1701719229.2411866,-7.0,0.0,22.0,1.0,-4.0,-12.0,-29.0,1.0
1701719229.2513797,6.0,1.0,13.0,1.0,3.0,4.0,16.0,5.0
1701719229.2513797,1.0,-6.0,-14.0,-1.0,-2.0,5.0,19.0,-3.0
1701719229.2715116,-1.0,-6.0,-51.0,-14.0,-3.0,-5.0,-8.0,-3.0
1701719229.2715116,-3.0,-1.0,-3.0,-2.0,-3.0,-8.0,-16.0,-7.0
1701719229.2715116,-1.0,0.0,-4.0,-2.0,-6.0,5.0,15.0,-3.0
1701719229.2715116,-4.0,2.0,21.0,-1.0,-3.0,-6.0,-6.0,12.0
1701719229.2946565,1.0,1.0,21.0,8.0,2.0,-2.0,-1.0,-1.0
1701719229.2946565,-2.0,-5.0,-25.0,-12.0,-3.0,2.0,-5.0,-3.0
1701719229.296525,3.0,1.0,15.0,8.0,1.0,-8.0,-9.0,-5.0
1701719229.296525,4.0,1.0,6.0,2.0,2.0,4.0,10.0,-4.0
1701719229.3098054,3.0,3.0,13.0,-4.0,-1.0,1.0,-9.0,4.0
1701719229.3098054,0.0,1.0,9.0,9.0,0.0,-5.0,2.0,1.0
1701719229.3107748,-7.0,-6.0,-7.0,-1.0,-3.0,-5.0,-22.0,-2.0
1701719229.3107748,0.0,-1.0,-12.0,-9.0,-2.0,8.0,28.0,-4.0
1701719229.3325381,0.0,2.0,30.0,5.0,0.0,2.0,-11.0,-3.0
1701719229.3325381,2.0,-1.0,0.0,-2.0,-1.0,1.0,17.0,2.0
1701719229.333579,-3.0,0.0,-15.0,-1.0,-1.0,0.0,-2.0,2.0
1701719229.333579,0.0,-5.0,-20.0,-11.0,-3.0,-12.0,-3.0,1.0
1701719229.3574038,-2.0,-1.0,-1.0,-2.0,-3.0,0.0,-32.0,-16.0
1701719229.3574038,0.0,-3.0,4.0,-1.0,-1.0,-2.0,5.0,-2.0
1701719229.3584046,-2.0,0.0,19.0,6.0,0.0,3.0,9.0,2.0
1701719229.3584046,0.0,1.0,-21.0,-8.0,-3.0,-1.0,-6.0,-1.0
1701719229.3693497,-3.0,1.0,8.0,1.0,-4.0,-2.0,12.0,2.0
1701719229.3693497,0.0,-1.0,-5.0,2.0,2.0,2.0,-1.0,3.0
1701719229.3837953,-2.0,4.0,11.0,-1.0,-2.0,-4.0,-16.0,-2.0
1701719229.3837953,-2.0,-11.0,0.0,1.0,1.0,-2.0,-8.0,-9.0
1701719229.3924508,-2.0,0.0,-6.0,-2.0,0.0,0.0,16.0,3.0
1701719229.3924508,1.0,-3.0,-18.0,-6.0,-1.0,1.0,-11.0,-3.0
1701719229.3940387,-4.0,-2.0,0.0,1.0,3.0,0.0,8.0,-2.0
1701719229.3940387,6.0,8.0,7.0,4.0,-5.0,2.0,1.0,8.0
1701719229.4184299,0.0,-4.0,-18.0,-9.0,-4.0,-11.0,4.0,3.0
1701719229.4184299,-3.0,1.0,7.0,7.0,2.0,3.0,-5.0,-3.0
1701719229.4184299,1.0,3.0,13.0,5.0,5.0,4.0,15.0,3.0
1701719229.4194298,-3.0,-3.0,-11.0,-7.0,-4.0,-1.0,-8.0,-2.0
1701719229.4302263,-1.0,-2.0,0.0,-2.0,-2.0,-6.0,4.0,-1.0
1701719229.4302263,1.0,-1.0,-11.0,-4.0,-3.0,8.0,14.0,1.0
1701719229.4388587,0.0,-3.0,-2.0,2.0,-3.0,5.0,9.0,0.0
1701719229.4388587,-2.0,2.0,9.0,4.0,3.0,-4.0,-19.0,-6.0
1701719229.4526954,0.0,-2.0,0.0,-4.0,-3.0,-1.0,7.0,4.0
1701719229.453732,-1.0,-1.0,-10.0,-12.0,-5.0,-5.0,-5.0,-7.0
1701719229.4646778,-3.0,-4.0,-21.0,3.0,1.0,1.0,0.0,1.0
1701719229.4646778,0.0,3.0,-5.0,-4.0,0.0,-1.0,11.0,-2.0
1701719229.474273,0.0,-2.0,-15.0,3.0,-1.0,-4.0,-15.0,-3.0
1701719229.4752831,-2.0,-6.0,-6.0,-8.0,-3.0,-5.0,14.0,3.0
1701719229.4765353,1.0,4.0,8.0,-3.0,-4.0,0.0,-6.0,0.0
1701719229.4765353,-1.0,0.0,-8.0,-6.0,-4.0,-3.0,-15.0,-2.0
1701719229.489504,-3.0,4.0,3.0,5.0,0.0,-1.0,6.0,0.0
1701719229.489504,-2.0,-5.0,0.0,-2.0,-3.0,-2.0,-6.0,-1.0
1701719229.496172,-1.0,-6.0,-29.0,-8.0,-2.0,-4.0,-6.0,-2.0
1701719229.496172,-1.0,8.0,21.0,10.0,0.0,-3.0,-1.0,-4.0
1701719229.5119517,2.0,0.0,-4.0,0.0,4.0,0.0,-3.0,-2.0
1701719229.5128965,-4.0,2.0,5.0,5.0,4.0,2.0,1.0,0.0
1701719229.5238917,-3.0,3.0,-4.0,-19.0,-10.0,-4.0,-4.0,-2.0
1701719229.5238917,0.0,-4.0,3.0,13.0,6.0,-3.0,-9.0,0.0
1701719229.5351539,-2.0,3.0,-3.0,-15.0,-8.0,5.0,18.0,-1.0
1701719229.5351539,3.0,7.0,13.0,11.0,5.0,-1.0,-4.0,1.0
1701719229.5363767,-2.0,-7.0,-6.0,-9.0,-5.0,-3.0,-2.0,-2.0
1701719229.5363767,-4.0,-3.0,-1.0,0.0,-1.0,-3.0,-1.0,-1.0
1701719229.5493908,-2.0,-2.0,3.0,4.0,-2.0,-1.0,2.0,1.0
1701719229.5493908,-1.0,-3.0,-2.0,-5.0,2.0,-1.0,-8.0,-2.0
1701719229.5563993,-1.0,3.0,6.0,-1.0,-7.0,-6.0,-9.0,-2.0
1701719229.5563993,1.0,0.0,-6.0,-4.0,2.0,6.0,17.0,1.0
1701719229.5731795,0.0,-3.0,5.0,6.0,3.0,-1.0,-7.0,-4.0
1701719229.5731795,-2.0,-1.0,1.0,-1.0,-3.0,2.0,4.0,0.0
1701719229.5841775,2.0,-2.0,1.0,3.0,2.0,-2.0,14.0,6.0
1701719229.5841775,0.0,-1.0,1.0,-9.0,-3.0,-2.0,0.0,-3.0
1701719229.595092,-1.0,-3.0,2.0,0.0,-1.0,2.0,11.0,2.0
1701719229.595092,1.0,0.0,2.0,-1.0,-7.0,-6.0,-14.0,-4.0
1701719229.5960915,-2.0,-4.0,-8.0,3.0,2.0,-2.0,7.0,1.0
1701719229.5960915,-1.0,-5.0,-3.0,4.0,4.0,3.0,-5.0,-2.0
1701719229.6090999,0.0,0.0,10.0,-2.0,-1.0,0.0,7.0,0.0
1701719229.6090999,2.0,-1.0,-14.0,-2.0,1.0,0.0,-20.0,-3.0
1701719229.6161127,-3.0,-1.0,9.0,1.0,-1.0,-3.0,-6.0,-3.0
1701719229.6161127,-4.0,-2.0,11.0,-6.0,-9.0,-9.0,2.0,-2.0
1701719229.6320798,4.0,-3.0,-14.0,6.0,2.0,6.0,20.0,4.0
1701719229.6320798,-2.0,2.0,23.0,-2.0,-2.0,-3.0,-10.0,-6.0
1701719229.634342,-8.0,-5.0,-11.0,-6.0,-2.0,-7.0,-10.0,-11.0
1701719229.634342,1.0,-2.0,5.0,-2.0,-1.0,3.0,-16.0,9.0
1701719229.6627693,-3.0,-2.0,-6.0,-3.0,0.0,1.0,24.0,2.0
1701719229.6647284,-2.0,0.0,7.0,4.0,2.0,-4.0,1.0,-1.0
1701719229.665728,1.0,0.0,-17.0,-3.0,-1.0,0.0,-22.0,-5.0
1701719229.665728,-1.0,0.0,12.0,8.0,-1.0,-4.0,-5.0,-5.0
1701719229.668752,1.0,-2.0,-19.0,-15.0,-1.0,4.0,-5.0,1.0
1701719229.668752,-1.0,-2.0,-13.0,3.0,0.0,-2.0,3.0,-2.0
1701719229.6802907,-1.0,-2.0,18.0,-1.0,-1.0,3.0,-2.0,0.0
1701719229.6802907,-3.0,-1.0,-39.0,-9.0,-3.0,-3.0,-3.0,-3.0
1701719229.6922922,-1.0,1.0,42.0,14.0,1.0,-3.0,-11.0,-2.0
1701719229.6922922,1.0,-4.0,-6.0,-1.0,0.0,-3.0,-1.0,-2.0
1701719229.6939156,1.0,0.0,-5.0,3.0,1.0,0.0,0.0,0.0
1701719229.6939156,2.0,0.0,14.0,1.0,1.0,4.0,11.0,0.0
1701719229.7150068,-2.0,0.0,-9.0,-2.0,-3.0,-7.0,-20.0,-4.0
1701719229.7150068,-2.0,-1.0,-3.0,-6.0,-2.0,0.0,9.0,2.0
1701719229.7169845,0.0,-2.0,9.0,5.0,2.0,1.0,11.0,0.0
1701719229.7169845,4.0,-3.0,-11.0,-8.0,-2.0,-4.0,-4.0,-4.0
1701719229.7287734,-8.0,-2.0,0.0,2.0,-2.0,-4.0,-15.0,-2.0
1701719229.7287734,0.0,-1.0,-5.0,3.0,-5.0,0.0,-2.0,2.0
1701719229.7397816,-1.0,2.0,8.0,-5.0,4.0,1.0,10.0,-2.0
1701719229.7407808,-3.0,-2.0,-9.0,1.0,-2.0,0.0,-13.0,0.0
1701719229.752105,5.0,0.0,-11.0,0.0,2.0,2.0,-4.0,-3.0
1701719229.752105,-8.0,-4.0,-2.0,-9.0,-4.0,-5.0,7.0,-2.0
1701719229.753955,-6.0,3.0,15.0,2.0,-4.0,-2.0,7.0,4.0
1701719229.753955,5.0,0.0,9.0,1.0,1.0,-2.0,-23.0,-5.0
1701719229.7823386,2.0,-2.0,-27.0,-4.0,-1.0,-1.0,0.0,1.0
1701719229.7823386,-1.0,-3.0,4.0,-3.0,-2.0,-2.0,0.0,1.0
1701719229.7843485,0.0,0.0,8.0,1.0,-2.0,-4.0,-10.0,-7.0
1701719229.7843485,-4.0,-4.0,2.0,-6.0,-1.0,1.0,9.0,5.0
1701719229.7885954,-2.0,2.0,16.0,3.0,-1.0,-1.0,-6.0,1.0
1701719229.7885954,2.0,3.0,12.0,8.0,3.0,6.0,24.0,6.0
1701719229.8008044,1.0,-2.0,-2.0,-4.0,-4.0,-2.0,-15.0,-7.0
1701719229.8008044,-3.0,-3.0,-10.0,-6.0,-3.0,-7.0,0.0,2.0
1701719229.8118396,-5.0,-5.0,-14.0,-6.0,-3.0,-3.0,0.0,-4.0
1701719229.8118396,-2.0,-1.0,-26.0,-3.0,1.0,1.0,-5.0,-3.0
1701719229.8187904,2.0,-2.0,9.0,2.0,1.0,1.0,-16.0,-2.0
1701719229.8187904,0.0,5.0,7.0,4.0,-1.0,13.0,43.0,5.0
1701719229.835284,-8.0,-3.0,-9.0,-5.0,-4.0,-6.0,8.0,1.0
1701719229.835284,-3.0,-2.0,-2.0,-1.0,1.0,0.0,-15.0,-5.0
1701719229.8364794,-1.0,0.0,-8.0,-1.0,-2.0,-2.0,12.0,4.0
1701719229.8364794,0.0,-4.0,-13.0,-9.0,-7.0,-6.0,-14.0,-7.0
1701719229.8525627,-1.0,-1.0,29.0,11.0,-1.0,-3.0,-1.0,0.0
1701719229.8525627,-1.0,0.0,0.0,-3.0,0.0,3.0,1.0,-1.0
1701719229.857564,8.0,-3.0,-32.0,-8.0,0.0,2.0,4.0,2.0
1701719229.857564,-3.0,2.0,11.0,6.0,-1.0,-5.0,-3.0,-2.0
1701719229.8725867,2.0,0.0,21.0,-3.0,-4.0,-4.0,-2.0,-1.0
1701719229.8725867,-3.0,-5.0,-23.0,-4.0,3.0,-2.0,-8.0,-2.0
1701719229.8735783,-1.0,0.0,-6.0,-6.0,-6.0,2.0,-1.0,3.0
1701719229.8735783,-5.0,-2.0,2.0,7.0,2.0,-3.0,-2.0,-11.0
1701719229.8951306,2.0,-2.0,-6.0,-8.0,-1.0,-4.0,-14.0,7.0
1701719229.8951306,3.0,-1.0,6.0,-3.0,-7.0,-3.0,1.0,0.0
1701719229.89625,-2.0,-2.0,5.0,7.0,4.0,-4.0,-7.0,-2.0
1701719229.89625,0.0,0.0,-11.0,1.0,-1.0,-6.0,18.0,5.0
1701719229.9131877,-2.0,0.0,11.0,-1.0,-2.0,9.0,0.0,-5.0
1701719229.9131877,3.0,2.0,-6.0,-2.0,0.0,-2.0,8.0,0.0
1701719229.9175253,-2.0,-3.0,10.0,-5.0,-3.0,-2.0,14.0,3.0
1701719229.9175253,-4.0,-5.0,0.0,-3.0,-2.0,-4.0,-6.0,-1.0
1701719229.9324574,3.0,-1.0,6.0,5.0,1.0,-2.0,-14.0,-7.0
1701719229.9324574,-1.0,-1.0,2.0,-3.0,-6.0,-2.0,-4.0,-1.0
1701719229.94093,-3.0,1.0,-12.0,5.0,1.0,-4.0,-9.0,-4.0
1701719229.94093,-3.0,-4.0,-21.0,-10.0,-2.0,-2.0,-4.0,-2.0
1701719229.956014,0.0,-2.0,15.0,5.0,3.0,2.0,8.0,-1.0
1701719229.956014,1.0,1.0,6.0,3.0,-2.0,0.0,-7.0,0.0
1701719229.9570162,0.0,-5.0,-21.0,-5.0,0.0,-8.0,-13.0,-3.0
1701719229.9590132,-8.0,-2.0,-15.0,-5.0,-1.0,6.0,7.0,-2.0
1701719229.9778895,0.0,-1.0,3.0,2.0,-3.0,-8.0,-1.0,2.0
1701719229.9778895,2.0,1.0,9.0,-5.0,-1.0,8.0,7.0,-1.0
1701719229.9778895,6.0,-3.0,-23.0,-4.0,-3.0,1.0,6.0,1.0
1701719229.9778895,-2.0,5.0,24.0,1.0,-2.0,-2.0,-11.0,0.0
1701719229.992964,-8.0,-5.0,-5.0,1.0,1.0,-2.0,-12.0,-8.0
1701719229.992964,0.0,3.0,1.0,6.0,-1.0,-1.0,6.0,0.0
1701719229.9939446,-2.0,2.0,8.0,0.0,2.0,-5.0,-6.0,-1.0
1701719229.9939446,4.0,-8.0,11.0,0.0,-1.0,1.0,-6.0,-3.0
1701719230.0145977,4.0,16.0,-8.0,-9.0,-6.0,-1.0,1.0,1.0
1701719230.0156085,-6.0,-16.0,-5.0,-1.0,3.0,-4.0,-6.0,-1.0
1701719230.0166068,-1.0,5.0,16.0,7.0,11.0,8.0,4.0,1.0
1701719230.0166068,1.0,-6.0,-5.0,3.0,-3.0,0.0,-1.0,-1.0
1701719230.0445387,3.0,9.0,0.0,4.0,5.0,-1.0,0.0,-1.0
1701719230.0445387,-3.0,-16.0,4.0,-4.0,-5.0,-4.0,3.0,-3.0
1701719230.045539,-1.0,-2.0,4.0,-3.0,-9.0,-2.0,-9.0,-2.0
1701719230.045539,3.0,0.0,-6.0,-10.0,-6.0,0.0,2.0,0.0
1701719230.052273,-5.0,-6.0,-5.0,6.0,10.0,3.0,5.0,0.0
1701719230.052273,2.0,8.0,-2.0,4.0,1.0,-3.0,-2.0,-1.0
1701719230.0541546,-3.0,-7.0,5.0,4.0,-2.0,-5.0,-12.0,-1.0
1701719230.0541546,0.0,-3.0,12.0,-12.0,-5.0,3.0,24.0,1.0
1701719230.084014,-1.0,-7.0,-12.0,-4.0,-1.0,1.0,-8.0,-2.0
1701719230.084014,1.0,10.0,3.0,10.0,-1.0,-3.0,2.0,2.0
1701719230.084014,-2.0,-9.0,-1.0,-5.0,1.0,1.0,0.0,-1.0
1701719230.084014,-1.0,-2.0,-9.0,-9.0,-2.0,-2.0,-12.0,-3.0
1701719230.0880435,-2.0,-8.0,-5.0,20.0,-13.0,-4.0,-2.0,0.0
1701719230.0880435,-4.0,0.0,-10.0,-27.0,-12.0,-4.0,-5.0,-5.0
1701719230.0970407,0.0,4.0,12.0,1.0,24.0,3.0,4.0,4.0
1701719230.0970407,4.0,2.0,-12.0,12.0,4.0,0.0,-6.0,-1.0
1701719230.1124237,-2.0,-6.0,-4.0,-10.0,-2.0,4.0,11.0,0.0
1701719230.1124237,-1.0,5.0,-2.0,4.0,-6.0,-3.0,-11.0,-1.0
1701719230.1141622,-1.0,2.0,0.0,-3.0,-15.0,-3.0,6.0,-3.0
1701719230.1141622,-2.0,2.0,2.0,-6.0,1.0,0.0,-5.0,-4.0
1701719230.138845,1.0,0.0,3.0,-2.0,3.0,-2.0,-5.0,0.0
1701719230.138845,2.0,1.0,-3.0,5.0,-2.0,-6.0,-16.0,-4.0
1701719230.138845,-2.0,-5.0,-30.0,-13.0,-3.0,13.0,18.0,-1.0
1701719230.138845,-2.0,-3.0,0.0,11.0,3.0,2.0,23.0,12.0
1701719230.1502807,-1.0,2.0,5.0,-5.0,-6.0,1.0,7.0,-3.0
1701719230.1502807,-1.0,-5.0,-14.0,-9.0,2.0,-8.0,-9.0,3.0
1701719230.1502807,1.0,1.0,15.0,9.0,0.0,2.0,-6.0,1.0
1701719230.1502807,-4.0,2.0,2.0,2.0,-5.0,-8.0,-18.0,-6.0
1701719230.170307,8.0,7.0,19.0,4.0,0.0,9.0,30.0,10.0
1701719230.170307,5.0,-6.0,-27.0,-7.0,5.0,7.0,10.0,2.0
1701719230.170307,-5.0,1.0,-14.0,-1.0,-4.0,0.0,-9.0,-3.0
1701719230.170307,-2.0,-10.0,-15.0,-12.0,-4.0,-6.0,-14.0,3.0
1701719230.1899297,-7.0,0.0,12.0,-7.0,0.0,-15.0,-33.0,-10.0
1701719230.1899297,-3.0,1.0,18.0,11.0,3.0,3.0,7.0,-7.0
1701719230.1899297,0.0,9.0,13.0,-1.0,-6.0,1.0,8.0,3.0
1701719230.1899297,1.0,1.0,19.0,9.0,4.0,1.0,1.0,-7.0
1701719230.2103007,-6.0,-12.0,-48.0,-14.0,-2.0,-3.0,-13.0,-6.0
1701719230.2103007,-1.0,1.0,14.0,4.0,2.0,2.0,20.0,7.0
1701719230.2103007,5.0,-1.0,-6.0,3.0,-5.0,-2.0,4.0,-4.0
1701719230.2103007,-2.0,2.0,28.0,-6.0,1.0,-1.0,6.0,-1.0
1701719230.2299962,0.0,1.0,-37.0,-6.0,0.0,3.0,1.0,1.0
1701719230.2299962,-4.0,0.0,24.0,3.0,0.0,-5.0,-11.0,-5.0
1701719230.2299962,1.0,2.0,-2.0,-4.0,-4.0,-4.0,0.0,1.0
1701719230.2299962,0.0,-13.0,19.0,4.0,-2.0,-1.0,-3.0,-2.0
1701719230.2599277,1.0,14.0,1.0,-3.0,-5.0,-4.0,-15.0,-4.0
1701719230.2599277,-1.0,-9.0,-8.0,3.0,4.0,3.0,-2.0,0.0
1701719230.2599277,-13.0,-22.0,9.0,-4.0,-8.0,-9.0,-5.0,-6.0
1701719230.2599277,0.0,3.0,-12.0,-1.0,0.0,0.0,-3.0,0.0
1701719230.2701626,-5.0,13.0,15.0,-1.0,2.0,-1.0,3.0,-2.0
1701719230.2701626,2.0,1.0,-2.0,-3.0,-4.0,1.0,4.0,1.0
1701719230.279989,0.0,7.0,13.0,1.0,-1.0,-1.0,1.0,-1.0
1701719230.279989,1.0,-3.0,-35.0,-6.0,-6.0,-9.0,-14.0,-4.0
1701719230.289929,-2.0,-12.0,-24.0,-5.0,1.0,2.0,0.0,0.0
1701719230.289929,2.0,8.0,13.0,5.0,12.0,-6.0,-9.0,-2.0
1701719230.2999318,0.0,-4.0,2.0,2.0,2.0,11.0,19.0,0.0
1701719230.2999318,0.0,-3.0,2.0,1.0,-3.0,0.0,-9.0,3.0
1701719230.3102746,2.0,3.0,4.0,-6.0,-9.0,5.0,5.0,1.0
1701719230.3102746,-2.0,-2.0,-8.0,5.0,5.0,-8.0,-3.0,-4.0
1701719230.3102746,2.0,2.0,19.0,12.0,6.0,-2.0,-1.0,1.0
1701719230.3102746,-2.0,-3.0,-20.0,-10.0,-5.0,1.0,-2.0,-3.0
1701719230.3301303,-2.0,-8.0,-20.0,0.0,4.0,-4.0,-2.0,-1.0
1701719230.3301303,1.0,-2.0,22.0,-2.0,-16.0,-3.0,-10.0,-2.0
1701719230.3301303,-2.0,4.0,-21.0,-8.0,-2.0,-5.0,0.0,-3.0
1701719230.3301303,1.0,3.0,6.0,5.0,2.0,2.0,1.0,-1.0
1701719230.3506284,-4.0,-10.0,20.0,-4.0,-5.0,-5.0,-7.0,-4.0
1701719230.3506284,0.0,0.0,-23.0,-1.0,2.0,3.0,1.0,2.0
1701719230.3506284,0.0,0.0,13.0,1.0,0.0,2.0,1.0,-2.0
1701719230.3506284,-3.0,-1.0,13.0,-6.0,-4.0,-11.0,-34.0,-6.0
1701719230.3702667,1.0,-6.0,9.0,2.0,3.0,14.0,35.0,0.0
1701719230.3702667,-2.0,2.0,10.0,-3.0,-5.0,-5.0,-5.0,0.0
1701719230.3702667,-2.0,-7.0,-24.0,-6.0,-1.0,8.0,23.0,2.0
1701719230.3702667,2.0,3.0,8.0,5.0,2.0,-3.0,-5.0,-2.0
1701719230.3906634,-7.0,2.0,-4.0,5.0,1.0,-4.0,-12.0,-3.0
1701719230.3906634,-3.0,-4.0,20.0,-5.0,-4.0,0.0,0.0,-2.0
1701719230.3906634,-1.0,-4.0,-56.0,-10.0,-7.0,-13.0,-34.0,-6.0
1701719230.3906634,-1.0,5.0,12.0,2.0,4.0,7.0,23.0,3.0
1701719230.4102669,0.0,-5.0,8.0,-1.0,-3.0,-6.0,1.0,3.0
1701719230.4102669,-4.0,2.0,8.0,0.0,0.0,7.0,5.0,1.0
1701719230.420263,-3.0,-3.0,-3.0,0.0,-1.0,-11.0,-18.0,-5.0
1701719230.420263,-2.0,4.0,8.0,8.0,2.0,2.0,19.0,0.0
1701719230.4305108,1.0,1.0,8.0,7.0,-1.0,-2.0,-2.0,4.0
1701719230.4305108,-4.0,-8.0,-28.0,-18.0,-3.0,2.0,0.0,-5.0
1701719230.4305108,-2.0,-3.0,-7.0,-6.0,-5.0,-10.0,-20.0,-6.0
1701719230.4305108,-1.0,1.0,-3.0,-2.0,-2.0,9.0,17.0,0.0
1701719230.4502702,-1.0,-5.0,0.0,6.0,6.0,-6.0,4.0,1.0
1701719230.4502702,0.0,1.0,-20.0,-7.0,-2.0,4.0,4.0,1.0
1701719230.4702687,1.0,0.0,7.0,-2.0,-5.0,-3.0,6.0,-2.0
1701719230.4702687,-2.0,2.0,-10.0,1.0,-3.0,-7.0,-15.0,-3.0
1701719230.4802654,2.0,-1.0,16.0,2.0,-1.0,2.0,-3.0,-6.0
1701719230.4802654,-6.0,-9.0,-13.0,2.0,-1.0,1.0,-1.0,4.0
1701719230.4802654,-3.0,3.0,19.0,3.0,5.0,-1.0,-3.0,0.0
1701719230.4802654,-1.0,-5.0,-12.0,1.0,0.0,1.0,9.0,-2.0
1701719230.490634,1.0,-2.0,-16.0,-11.0,-5.0,-4.0,-8.0,-1.0
1701719230.490634,2.0,2.0,2.0,-2.0,-7.0,-4.0,-5.0,-4.0
1701719230.490634,0.0,2.0,2.0,0.0,3.0,2.0,4.0,2.0
1701719230.490634,-2.0,1.0,12.0,15.0,-1.0,-1.0,-10.0,-2.0
1701719230.510719,0.0,1.0,-7.0,-14.0,-1.0,0.0,1.0,-3.0
1701719230.510719,-2.0,-3.0,-2.0,7.0,-3.0,-4.0,-7.0,-6.0
1701719230.5202656,0.0,0.0,33.0,-2.0,1.0,2.0,23.0,11.0
1701719230.5202656,7.0,11.0,-12.0,-9.0,0.0,-7.0,-12.0,-1.0
1701719230.5303118,-9.0,-17.0,-8.0,-1.0,-1.0,3.0,7.0,-1.0
1701719230.5303118,-1.0,4.0,7.0,12.0,4.0,-3.0,-8.0,-3.0
1701719230.5303118,-2.0,-2.0,8.0,-14.0,-8.0,-2.0,-5.0,-2.0
1701719230.5303118,-2.0,-1.0,2.0,13.0,1.0,2.0,-5.0,-6.0
1701719230.550268,2.0,2.0,-10.0,-17.0,-6.0,-9.0,-5.0,2.0
1701719230.550268,-1.0,-2.0,2.0,-5.0,-7.0,3.0,14.0,0.0
1701719230.550268,2.0,-8.0,-3.0,8.0,5.0,0.0,-1.0,0.0
1701719230.550268,-7.0,1.0,-6.0,-10.0,-4.0,1.0,-3.0,-5.0
1701719230.5706203,0.0,-4.0,-22.0,1.0,-3.0,-7.0,-10.0,-2.0
1701719230.5706203,-2.0,0.0,4.0,-2.0,-3.0,-1.0,-13.0,-6.0
1701719230.5902708,-1.0,4.0,-11.0,-1.0,-7.0,-3.0,-3.0,-2.0
1701719230.600268,1.0,-5.0,-1.0,-8.0,-4.0,-4.0,5.0,5.0
1701719230.600268,-3.0,3.0,11.0,9.0,-1.0,-5.0,-13.0,-6.0
1701719230.600268,4.0,1.0,9.0,0.0,4.0,2.0,12.0,11.0
1701719230.600268,-1.0,-2.0,-23.0,-3.0,0.0,0.0,-4.0,0.0
1701719230.600268,0.0,-2.0,17.0,2.0,3.0,4.0,-8.0,-3.0
1701719230.6154199,-1.0,1.0,7.0,2.0,-3.0,-8.0,-10.0,-1.0
1701719230.6154199,1.0,1.0,-6.0,-1.0,3.0,9.0,18.0,1.0
1701719230.6162207,0.0,3.0,1.0,-1.0,-4.0,-6.0,-14.0,-4.0
1701719230.6162207,-6.0,-4.0,-1.0,-1.0,-1.0,1.0,16.0,-1.0
1701719230.6370313,-1.0,-2.0,-3.0,-4.0,-2.0,4.0,12.0,0.0
1701719230.6379652,-1.0,-1.0,11.0,-5.0,0.0,0.0,-8.0,1.0
1701719230.638705,-2.0,-3.0,-5.0,1.0,-4.0,-3.0,-4.0,-4.0
1701719230.638705,2.0,-1.0,-10.0,4.0,-1.0,-3.0,-10.0,-1.0
1701719230.648736,-1.0,-1.0,-4.0,-6.0,-1.0,-3.0,-11.0,-3.0
1701719230.648736,-3.0,4.0,9.0,10.0,3.0,0.0,7.0,0.0
1701719230.6590855,2.0,-1.0,10.0,3.0,-3.0,-4.0,-3.0,-3.0
1701719230.6590855,-6.0,-24.0,-39.0,-19.0,-5.0,-4.0,-4.0,-1.0
1701719230.6691935,1.0,0.0,-15.0,2.0,1.0,6.0,3.0,-1.0
1701719230.6691935,-1.0,-3.0,-16.0,-1.0,1.0,-8.0,-5.0,-3.0
1701719230.6691935,-1.0,8.0,-4.0,4.0,-2.0,-1.0,-18.0,-4.0
1701719230.6691935,1.0,-3.0,15.0,-5.0,-1.0,6.0,35.0,1.0
1701719230.6892042,0.0,-3.0,19.0,2.0,-7.0,2.0,3.0,0.0
1701719230.6892042,0.0,0.0,-10.0,-2.0,2.0,-5.0,-3.0,-6.0
1701719230.6892042,-2.0,2.0,14.0,0.0,5.0,-2.0,-19.0,-3.0
1701719230.6992037,0.0,2.0,-2.0,3.0,-3.0,-2.0,11.0,-1.0
1701719230.709617,3.0,3.0,-2.0,-1.0,4.0,-1.0,-8.0,-1.0
1701719230.709617,-5.0,2.0,-10.0,-5.0,-8.0,-7.0,-16.0,-2.0
1701719230.719326,-1.0,-8.0,14.0,2.0,-1.0,9.0,27.0,0.0
1701719230.719326,-1.0,5.0,6.0,-6.0,-2.0,-3.0,-12.0,0.0
1701719230.7392826,-1.0,1.0,-11.0,2.0,6.0,2.0,16.0,1.0
1701719230.7392826,4.0,-3.0,5.0,0.0,-3.0,-2.0,-8.0,-1.0
1701719230.7492037,-5.0,-1.0,-11.0,3.0,2.0,-4.0,-2.0,-1.0
1701719230.7492037,-1.0,3.0,-16.0,-3.0,-1.0,-3.0,-8.0,0.0
1701719230.7492037,3.0,2.0,1.0,-14.0,-10.0,1.0,4.0,-3.0
1701719230.7492037,-6.0,-3.0,-7.0,17.0,20.0,-2.0,-4.0,-3.0
1701719230.7592046,0.0,-1.0,9.0,-3.0,-2.0,-2.0,-1.0,2.0
1701719230.7592046,0.0,2.0,-2.0,1.0,-1.0,1.0,-17.0,-4.0
1701719230.7696612,-2.0,-1.0,-8.0,1.0,-3.0,3.0,12.0,1.0
1701719230.7696612,2.0,0.0,-20.0,-12.0,-7.0,-4.0,4.0,-2.0
1701719230.7794425,0.0,-1.0,1.0,-5.0,-2.0,2.0,-8.0,-4.0
1701719230.7794425,-5.0,-3.0,-10.0,4.0,0.0,-2.0,-13.0,-6.0
1701719230.7992032,6.0,-1.0,9.0,1.0,2.0,6.0,8.0,6.0
1701719230.7992032,-1.0,-5.0,2.0,-4.0,-6.0,-7.0,-12.0,-3.0
1701719230.7992032,-6.0,-3.0,-37.0,-4.0,1.0,5.0,5.0,-1.0
1701719230.7992032,2.0,5.0,27.0,4.0,-1.0,2.0,10.0,-1.0
1701719230.8095794,-6.0,-6.0,-15.0,-6.0,-1.0,-5.0,-15.0,1.0
1701719230.8095794,2.0,2.0,14.0,7.0,0.0,-1.0,-2.0,0.0
1701719230.819227,4.0,-2.0,7.0,-8.0,-7.0,-4.0,13.0,1.0
1701719230.819227,-1.0,-3.0,-11.0,0.0,2.0,-4.0,-24.0,-2.0
1701719230.8396676,-5.0,0.0,6.0,2.0,-2.0,1.0,30.0,-1.0
1701719230.8396676,2.0,0.0,17.0,-7.0,-2.0,1.0,-2.0,1.0
1701719230.8396676,-2.0,0.0,-10.0,-4.0,-4.0,0.0,2.0,1.0
1701719230.8396676,-1.0,-3.0,-7.0,-1.0,-1.0,-2.0,-2.0,-1.0
1701719230.8496358,-1.0,-2.0,1.0,4.0,4.0,-4.0,-25.0,-4.0
1701719230.8496358,-3.0,2.0,8.0,-10.0,-9.0,-6.0,-5.0,-4.0
1701719230.8496358,-3.0,-4.0,15.0,9.0,4.0,0.0,3.0,-2.0
1701719230.8496358,-2.0,-12.0,-17.0,-2.0,6.0,5.0,4.0,3.0
1701719230.8692043,1.0,5.0,20.0,4.0,0.0,-5.0,-14.0,-5.0
1701719230.8692043,-3.0,-4.0,-26.0,-9.0,-2.0,3.0,13.0,-1.0
1701719230.8692043,-2.0,1.0,12.0,2.0,-1.0,5.0,-1.0,1.0
1701719230.8692043,3.0,9.0,-2.0,-1.0,1.0,-6.0,-9.0,0.0
1701719230.889662,-2.0,-7.0,25.0,4.0,-6.0,-5.0,10.0,0.0
1701719230.889662,2.0,-4.0,-32.0,-13.0,-6.0,-2.0,-14.0,-2.0
1701719230.8992052,-7.0,-2.0,7.0,2.0,4.0,4.0,14.0,1.0
1701719230.8992052,0.0,2.0,11.0,-3.0,1.0,-3.0,-7.0,-1.0
1701719230.909208,-3.0,0.0,-27.0,-1.0,1.0,1.0,3.0,5.0
1701719230.909208,11.0,1.0,27.0,7.0,-2.0,3.0,7.0,-1.0
1701719230.909208,1.0,-5.0,-16.0,-9.0,-4.0,-10.0,-13.0,1.0
1701719230.909208,1.0,4.0,18.0,7.0,-4.0,-1.0,-3.0,-1.0
1701719230.9296281,-5.0,1.0,12.0,3.0,2.0,-5.0,-7.0,-5.0
1701719230.9296281,-1.0,-3.0,0.0,2.0,0.0,0.0,0.0,1.0
1701719230.9296281,-1.0,2.0,12.0,2.0,4.0,3.0,4.0,-2.0
1701719230.9392066,-1.0,-6.0,-16.0,-9.0,-3.0,-2.0,9.0,0.0
1701719230.9496589,1.0,-5.0,-32.0,-7.0,-4.0,-2.0,-15.0,0.0
1701719230.9496589,-7.0,-1.0,7.0,5.0,0.0,3.0,6.0,-3.0
1701719230.9593015,2.0,-2.0,-3.0,-4.0,-3.0,-9.0,-12.0,-3.0
1701719230.9593015,-4.0,0.0,10.0,4.0,0.0,-5.0,1.0,-1.0
1701719230.9792027,2.0,-2.0,18.0,8.0,4.0,6.0,-2.0,4.0
1701719230.9792027,-7.0,-5.0,-41.0,-9.0,-1.0,-2.0,-9.0,-2.0
1701719230.9792027,5.0,6.0,24.0,6.0,-1.0,5.0,14.0,5.0
1701719230.9792027,-10.0,-10.0,-32.0,-2.0,3.0,6.0,9.0,-5.0
1701719230.989605,5.0,3.0,34.0,-4.0,-5.0,-8.0,-9.0,-4.0
1701719230.989605,-3.0,-2.0,16.0,5.0,-1.0,-3.0,2.0,-2.0
1701719230.9992063,0.0,-4.0,-31.0,-2.0,-2.0,-5.0,-21.0,-2.0
1701719230.9992063,-3.0,-1.0,1.0,0.0,-1.0,-1.0,0.0,0.0
1701719231.0096672,3.0,5.0,6.0,-2.0,0.0,3.0,6.0,-5.0
1701719231.0096672,-5.0,-6.0,-5.0,-7.0,-1.0,2.0,4.0,-1.0
1701719231.0193098,2.0,4.0,7.0,5.0,-3.0,-5.0,-2.0,-2.0
1701719231.0193098,-2.0,-1.0,-24.0,-8.0,-2.0,-3.0,5.0,-1.0
1701719231.0392041,-2.0,-1.0,-3.0,2.0,0.0,-3.0,-13.0,-2.0
1701719231.0392041,3.0,2.0,-3.0,-2.0,-2.0,0.0,1.0,4.0
1701719231.0392041,-3.0,-1.0,3.0,1.0,3.0,9.0,19.0,-2.0
1701719231.0392041,2.0,0.0,7.0,0.0,-6.0,-1.0,18.0,0.0
1701719231.0496047,-2.0,0.0,-12.0,-3.0,-2.0,-8.0,-16.0,0.0
1701719231.0496047,-1.0,2.0,11.0,-1.0,0.0,-2.0,-10.0,-2.0
1701719231.0592048,-3.0,-5.0,0.0,-3.0,-4.0,-5.0,-8.0,-1.0
1701719231.0592048,2.0,4.0,23.0,6.0,0.0,3.0,-2.0,-3.0
1701719231.0796418,0.0,-1.0,-16.0,-11.0,-4.0,-4.0,7.0,3.0
1701719231.0796418,-3.0,-4.0,8.0,3.0,0.0,5.0,9.0,-2.0
1701719231.0796418,-3.0,0.0,2.0,0.0,2.0,-6.0,-7.0,-1.0
1701719231.0796418,2.0,0.0,5.0,-2.0,2.0,-1.0,-3.0,5.0
1701719231.0892076,-4.0,3.0,15.0,3.0,-5.0,-5.0,2.0,-8.0
1701719231.0892076,0.0,-3.0,-35.0,-7.0,-1.0,-4.0,-15.0,-2.0
1701719231.0892076,0.0,-1.0,-5.0,-4.0,-2.0,6.0,9.0,0.0
1701719231.0892076,-1.0,-1.0,-2.0,-3.0,-3.0,-4.0,-12.0,-5.0
1701719231.109635,-1.0,0.0,2.0,2.0,3.0,7.0,17.0,4.0
1701719231.109635,-2.0,1.0,-1.0,0.0,1.0,-3.0,0.0,-2.0
1701719231.119206,-1.0,-1.0,-4.0,-3.0,-5.0,-5.0,-3.0,-3.0
1701719231.119206,2.0,0.0,5.0,0.0,0.0,-1.0,-6.0,-1.0
1701719231.1420548,0.0,-1.0,14.0,0.0,-2.0,2.0,-7.0,-5.0
1701719231.1420548,-5.0,0.0,-24.0,-3.0,0.0,2.0,2.0,1.0
1701719231.1420548,-2.0,-5.0,-22.0,-1.0,-3.0,-1.0,10.0,3.0
1701719231.1420548,-4.0,-6.0,13.0,-2.0,3.0,1.0,1.0,1.0
1701719231.1548834,7.0,2.0,16.0,2.0,-1.0,-3.0,-8.0,-6.0
1701719231.1548834,1.0,-3.0,-4.0,-2.0,0.0,0.0,2.0,5.0
1701719231.1548834,-1.0,0.0,-1.0,-1.0,-2.0,-2.0,-3.0,-1.0
1701719231.1548834,-3.0,3.0,-7.0,-6.0,-6.0,-5.0,-6.0,-1.0
1701719231.17518,-4.0,-5.0,-7.0,-7.0,-7.0,-2.0,-8.0,-2.0
1701719231.17518,0.0,2.0,9.0,9.0,2.0,-1.0,7.0,0.0
1701719231.17518,0.0,0.0,-2.0,0.0,7.0,5.0,-1.0,-1.0
1701719231.17518,1.0,-1.0,7.0,9.0,-2.0,0.0,13.0,0.0
1701719231.2048788,-4.0,-2.0,-23.0,-13.0,-2.0,-3.0,-8.0,2.0
1701719231.2048788,1.0,0.0,17.0,4.0,-4.0,1.0,27.0,3.0
1701719231.2048788,0.0,-1.0,-6.0,0.0,-4.0,-1.0,-10.0,-2.0
1701719231.2048788,1.0,3.0,10.0,0.0,2.0,-6.0,-8.0,-4.0
1701719231.2151928,-3.0,-10.0,-17.0,-5.0,-1.0,7.0,3.0,-2.0
1701719231.2151928,-1.0,-5.0,2.0,-2.0,-3.0,-7.0,-11.0,1.0
1701719231.2151928,0.0,-2.0,14.0,2.0,1.0,-2.0,-5.0,-1.0
1701719231.2151928,0.0,-1.0,-2.0,-2.0,-4.0,-2.0,-5.0,-3.0
1701719231.2352352,-3.0,-1.0,1.0,7.0,3.0,-1.0,8.0,-2.0
1701719231.2352352,-1.0,0.0,-12.0,-5.0,-2.0,-2.0,-7.0,-2.0
1701719231.2352352,1.0,-1.0,-19.0,-6.0,-4.0,2.0,9.0,1.0
1701719231.2352352,0.0,2.0,-5.0,-4.0,-6.0,-3.0,-12.0,-2.0
1701719231.2548802,-2.0,-3.0,-17.0,7.0,6.0,0.0,7.0,0.0
1701719231.2548802,0.0,0.0,20.0,3.0,1.0,0.0,-4.0,-3.0
1701719231.2548802,-2.0,0.0,1.0,-6.0,-2.0,-1.0,-3.0,-2.0
1701719231.2548802,-1.0,-2.0,-7.0,-6.0,-3.0,-2.0,5.0,1.0
1701719231.2649045,-1.0,2.0,-3.0,5.0,1.0,1.0,-6.0,1.0
1701719231.2748864,-1.0,1.0,18.0,7.0,2.0,0.0,-9.0,-3.0
1701719231.2748864,-1.0,-2.0,-2.0,-7.0,-2.0,-6.0,-11.0,-2.0
1701719231.2748864,-2.0,-4.0,-22.0,-8.0,-2.0,-1.0,14.0,-2.0
1701719231.2949352,0.0,2.0,2.0,1.0,-3.0,4.0,12.0,2.0
1701719231.2949352,-1.0,-1.0,4.0,-4.0,-1.0,-1.0,2.0,-1.0
1701719231.3048782,-3.0,0.0,11.0,1.0,-4.0,-5.0,-8.0,-3.0
1701719231.3048782,-2.0,1.0,11.0,5.0,4.0,-5.0,-9.0,-1.0
1701719231.3150802,-1.0,-1.0,1.0,-7.0,1.0,6.0,-3.0,-1.0
1701719231.3150802,-3.0,0.0,-4.0,3.0,-1.0,-2.0,7.0,0.0
1701719231.3150802,0.0,0.0,-1.0,7.0,5.0,-1.0,-1.0,-1.0
1701719231.3150802,1.0,4.0,22.0,0.0,-1.0,3.0,1.0,2.0
1701719231.3348825,-2.0,-4.0,7.0,5.0,0.0,-2.0,-6.0,-3.0
1701719231.3348825,-3.0,-11.0,-47.0,-22.0,-10.0,-4.0,-7.0,-4.0
1701719231.3348825,0.0,1.0,15.0,-3.0,-10.0,-4.0,1.0,-1.0
1701719231.3348825,-1.0,7.0,-19.0,8.0,5.0,2.0,0.0,-1.0
1701719231.3848763,-3.0,-21.0,18.0,9.0,13.0,-1.0,-2.0,0.0
1701719231.3848763,0.0,3.0,6.0,2.0,1.0,1.0,0.0,-3.0
1701719231.3848763,1.0,1.0,-3.0,-11.0,-2.0,-3.0,-5.0,0.0
1701719231.3848763,1.0,0.0,-1.0,0.0,-11.0,-2.0,-5.0,-1.0
1701719231.3848763,-3.0,2.0,-12.0,-6.0,-12.0,-6.0,-1.0,-2.0
1701719231.3848763,1.0,-2.0,10.0,3.0,6.0,-3.0,1.0,-3.0
1701719231.3848763,-1.0,-3.0,-10.0,1.0,-2.0,3.0,6.0,0.0
1701719231.3848763,-1.0,-4.0,14.0,-5.0,0.0,1.0,-5.0,-1.0
1701719231.3848763,-1.0,0.0,-35.0,-9.0,2.0,1.0,-5.0,0.0
1701719231.3948817,-1.0,0.0,-5.0,-3.0,-3.0,-2.0,8.0,-3.0
1701719231.3948817,1.0,3.0,14.0,3.0,1.0,0.0,8.0,2.0
1701719231.3948817,-2.0,-4.0,10.0,1.0,0.0,3.0,-5.0,-1.0
1701719231.4149468,-1.0,-3.0,-3.0,-5.0,-4.0,-7.0,-2.0,-3.0
1701719231.4149468,-2.0,3.0,0.0,4.0,-3.0,1.0,-10.0,-1.0
1701719231.4248788,-2.0,0.0,-11.0,-5.0,-3.0,-6.0,-11.0,-5.0
1701719231.4248788,1.0,-7.0,-22.0,-1.0,3.0,7.0,8.0,-2.0
1701719231.435057,-3.0,7.0,10.0,1.0,-1.0,-6.0,-4.0,0.0
1701719231.435057,-1.0,1.0,17.0,-1.0,0.0,6.0,6.0,4.0
1701719231.435057,-3.0,-5.0,-32.0,-6.0,-2.0,-5.0,-10.0,-1.0
1701719231.435057,1.0,-4.0,5.0,0.0,-4.0,-3.0,-4.0,-5.0
1701719231.4548824,-10.0,2.0,7.0,-6.0,2.0,1.0,0.0,-3.0
1701719231.4548824,10.0,0.0,1.0,0.0,0.0,-4.0,-11.0,4.0
1701719231.4548824,-4.0,1.0,21.0,6.0,0.0,-3.0,-15.0,-5.0
1701719231.4548824,-3.0,-1.0,-9.0,-1.0,1.0,0.0,9.0,3.0
1701719231.4750519,1.0,1.0,11.0,-4.0,-5.0,-3.0,0.0,-4.0
1701719231.4750519,-4.0,-2.0,4.0,9.0,0.0,-5.0,-11.0,-2.0
1701719231.4750519,-1.0,-4.0,-24.0,-6.0,1.0,5.0,-6.0,-2.0
1701719231.4750519,-1.0,-5.0,-8.0,-5.0,-3.0,2.0,17.0,6.0
1701719231.495123,2.0,5.0,5.0,2.0,-7.0,-1.0,1.0,-2.0
1701719231.495123,-2.0,-3.0,-26.0,2.0,2.0,-3.0,-1.0,-3.0
1701719231.495123,-3.0,-5.0,-19.0,-9.0,-4.0,-6.0,-10.0,-4.0
1701719231.495123,-3.0,1.0,10.0,1.0,3.0,-2.0,-3.0,-2.0
1701719231.5248775,5.0,-1.0,-11.0,-2.0,2.0,1.0,1.0,1.0
1701719231.5248775,-6.0,-2.0,30.0,6.0,1.0,-2.0,-5.0,-1.0
1701719231.5248775,-4.0,1.0,4.0,3.0,-4.0,0.0,7.0,0.0
1701719231.5248775,1.0,1.0,0.0,-16.0,-5.0,-2.0,-4.0,-1.0
1701719231.5348773,0.0,-4.0,-6.0,11.0,3.0,0.0,0.0,-1.0
1701719231.5348773,-1.0,-3.0,-5.0,-8.0,-6.0,-3.0,-5.0,-4.0
1701719231.5348773,0.0,1.0,9.0,4.0,6.0,7.0,21.0,3.0
1701719231.5348773,-3.0,-3.0,-7.0,2.0,-1.0,-9.0,-10.0,-3.0
1701719231.5552907,4.0,1.0,2.0,-2.0,-4.0,1.0,-1.0,0.0
1701719231.5552907,-3.0,-1.0,-2.0,-12.0,-6.0,0.0,4.0,-2.0
1701719231.5552907,0.0,-1.0,11.0,-4.0,-1.0,-4.0,1.0,-3.0
1701719231.5552907,1.0,6.0,15.0,9.0,-2.0,2.0,-7.0,3.0
1701719231.5651724,-3.0,-4.0,-92.0,-18.0,2.0,4.0,21.0,-1.0
1701719231.5651724,-5.0,-3.0,31.0,6.0,0.0,-3.0,3.0,-7.0
1701719231.5751245,-1.0,-4.0,-15.0,-2.0,-5.0,-5.0,-36.0,-7.0
1701719231.5848773,8.0,-1.0,4.0,4.0,4.0,1.0,1.0,-2.0
1701719231.5949125,-4.0,2.0,20.0,7.0,-2.0,-23.0,-58.0,-5.0
1701719231.5949125,-4.0,-4.0,-22.0,-11.0,-7.0,5.0,5.0,-5.0
1701719231.6048799,2.0,2.0,-12.0,3.0,7.0,3.0,23.0,7.0
1701719231.6048799,-6.0,-7.0,-7.0,-6.0,-1.0,0.0,-10.0,-4.0
1701719231.615196,0.0,-3.0,-1.0,0.0,-2.0,-1.0,5.0,-1.0
1701719231.615196,2.0,4.0,12.0,-8.0,-4.0,-13.0,-36.0,-3.0
1701719231.615196,-3.0,-1.0,23.0,3.0,-1.0,1.0,2.0,0.0
1701719231.615196,-4.0,3.0,23.0,7.0,-1.0,-2.0,4.0,3.0
1701719231.6251917,0.0,-5.0,6.0,-4.0,1.0,3.0,6.0,-1.0
1701719231.6251917,-1.0,1.0,-9.0,2.0,-2.0,1.0,7.0,0.0
1701719231.6351373,-1.0,-4.0,-3.0,-3.0,-2.0,0.0,2.0,2.0
1701719231.6448784,-1.0,2.0,-11.0,-1.0,2.0,0.0,-7.0,-2.0
1701719231.6548772,-1.0,0.0,38.0,4.0,-4.0,-3.0,3.0,-2.0
1701719231.6548772,3.0,4.0,-37.0,-3.0,0.0,1.0,-4.0,2.0
1701719231.6548772,0.0,-1.0,18.0,0.0,-3.0,-5.0,-4.0,-2.0
1701719231.6548772,-9.0,-12.0,-56.0,-7.0,2.0,9.0,15.0,3.0
1701719231.6796489,0.0,0.0,-38.0,-10.0,-4.0,-4.0,5.0,-2.0
1701719231.6796489,-1.0,0.0,16.0,5.0,7.0,2.0,19.0,5.0
1701719231.681493,-1.0,1.0,-7.0,1.0,-3.0,2.0,-11.0,-2.0
1701719231.681493,-1.0,1.0,-7.0,-3.0,-6.0,-9.0,-17.0,-2.0
1701719231.6880736,-2.0,-1.0,45.0,15.0,0.0,5.0,2.0,-1.0
1701719231.6880736,-2.0,-2.0,-5.0,-7.0,-2.0,0.0,11.0,-1.0
1701719231.6981754,-1.0,0.0,-10.0,2.0,2.0,-1.0,8.0,1.0
1701719231.6981754,-1.0,0.0,-10.0,-8.0,-5.0,-7.0,-7.0,-4.0
1701719231.718187,0.0,2.0,8.0,-3.0,-4.0,-1.0,-11.0,-1.0
1701719231.718187,1.0,1.0,9.0,4.0,2.0,0.0,-9.0,0.0
1701719231.718187,-3.0,3.0,9.0,0.0,-1.0,5.0,19.0,1.0
1701719231.718187,-2.0,-4.0,-10.0,0.0,0.0,-2.0,-3.0,-1.0
1701719231.738618,-3.0,1.0,3.0,-9.0,-3.0,-3.0,-14.0,-5.0
1701719231.738618,6.0,-1.0,28.0,3.0,-2.0,2.0,29.0,5.0
1701719231.738618,-12.0,-3.0,-6.0,2.0,8.0,5.0,-5.0,-3.0
1701719231.738618,-1.0,1.0,9.0,5.0,2.0,-4.0,-4.0,4.0
1701719231.7481942,2.0,1.0,17.0,-1.0,-6.0,-2.0,-10.0,4.0
1701719231.7481942,-1.0,-2.0,-32.0,-4.0,1.0,3.0,11.0,0.0
1701719231.758221,2.0,2.0,-4.0,2.0,-3.0,-15.0,-51.0,-15.0
1701719231.758221,-7.0,-8.0,-7.0,-2.0,-6.0,-9.0,-39.0,-12.0
1701719231.7685761,-1.0,-8.0,-2.0,-8.0,5.0,21.0,87.0,10.0
1701719231.7781887,-6.0,-4.0,-21.0,-13.0,-7.0,1.0,2.0,-4.0
1701719231.7781887,0.0,-1.0,-2.0,0.0,1.0,-6.0,-3.0,6.0
1701719231.7781887,-2.0,-3.0,0.0,-3.0,-1.0,-3.0,-13.0,-9.0
1701719231.7986314,0.0,2.0,-4.0,0.0,-2.0,-11.0,-50.0,-2.0
1701719231.7986314,-1.0,1.0,6.0,8.0,1.0,6.0,26.0,-3.0
1701719231.7986314,-2.0,-2.0,-4.0,-5.0,-3.0,2.0,27.0,4.0
1701719231.7986314,3.0,2.0,7.0,-1.0,-2.0,5.0,9.0,-3.0
1701719231.8081899,0.0,2.0,-15.0,-1.0,-1.0,-6.0,22.0,5.0
1701719231.8081899,-5.0,1.0,-16.0,-4.0,0.0,0.0,-21.0,-2.0
1701719231.8181846,1.0,0.0,6.0,1.0,1.0,-3.0,-14.0,-2.0
1701719231.8181846,2.0,2.0,6.0,9.0,-2.0,2.0,15.0,5.0
1701719231.8381908,-3.0,1.0,-3.0,-13.0,0.0,5.0,-1.0,-5.0
1701719231.8381908,-2.0,-10.0,-6.0,-3.0,-4.0,-11.0,-33.0,-4.0
1701719231.8381908,2.0,-1.0,17.0,-4.0,-1.0,1.0,11.0,0.0
1701719231.8381908,0.0,-2.0,-10.0,-4.0,-1.0,0.0,21.0,1.0
1701719231.8585286,-4.0,-3.0,-10.0,0.0,-1.0,-6.0,-19.0,-5.0
1701719231.8585286,2.0,6.0,40.0,-4.0,-4.0,-1.0,-2.0,0.0
1701719231.8585286,-3.0,-6.0,-42.0,2.0,5.0,4.0,-1.0,-2.0
1701719231.8585286,0.0,7.0,46.0,3.0,-1.0,-2.0,3.0,-1.0
1701719231.888187,-2.0,-12.0,-18.0,3.0,-2.0,-5.0,-12.0,-2.0
1701719231.888187,-2.0,-1.0,-3.0,0.0,0.0,-4.0,-3.0,1.0
1701719231.888187,-1.0,-1.0,1.0,-4.0,-8.0,-5.0,-6.0,-1.0
1701719231.888187,-1.0,2.0,23.0,-5.0,-1.0,1.0,12.0,2.0
1701719231.888187,-2.0,6.0,-7.0,10.0,-2.0,0.0,-23.0,-4.0
1701719231.888187,1.0,-8.0,-22.0,7.0,6.0,10.0,47.0,6.0
1701719231.8981845,2.0,-2.0,-17.0,-7.0,3.0,4.0,3.0,2.0
1701719231.8981845,1.0,1.0,-15.0,1.0,0.0,-2.0,0.0,0.0
1701719231.9183986,-2.0,0.0,15.0,-6.0,-4.0,-7.0,-12.0,-2.0
1701719231.9183986,-2.0,2.0,17.0,1.0,-3.0,-2.0,-24.0,-3.0
1701719231.9183986,-2.0,-1.0,0.0,1.0,-5.0,-10.0,-16.0,-5.0
1701719231.9183986,1.0,-1.0,-24.0,-6.0,2.0,10.0,27.0,1.0
1701719231.9285555,1.0,-1.0,37.0,3.0,-2.0,-1.0,-4.0,3.0
1701719231.9285555,-2.0,2.0,-40.0,-1.0,2.0,-2.0,-18.0,-5.0
1701719231.9482207,0.0,-5.0,-3.0,-9.0,-2.0,0.0,-2.0,-4.0
1701719231.9482207,-6.0,-7.0,-18.0,-3.0,-4.0,-7.0,-9.0,5.0
1701719231.9581907,1.0,3.0,6.0,-1.0,1.0,1.0,2.0,-2.0
1701719231.9581907,1.0,-4.0,5.0,1.0,-3.0,-9.0,-21.0,-2.0
1701719231.9581907,-3.0,7.0,40.0,2.0,1.0,9.0,15.0,2.0
1701719231.9581907,1.0,5.0,-10.0,-7.0,-5.0,-1.0,-4.0,-3.0
1701719231.9785352,-4.0,-2.0,-26.0,17.0,10.0,1.0,8.0,1.0
1701719231.9785352,-5.0,-4.0,10.0,-12.0,0.0,-2.0,-4.0,-2.0
1701719231.9785352,-1.0,-2.0,9.0,2.0,-1.0,0.0,2.0,0.0
1701719231.9785352,1.0,-1.0,16.0,7.0,1.0,-1.0,-7.0,-1.0
1701719231.9981916,0.0,0.0,-13.0,-10.0,-6.0,-1.0,-1.0,-3.0
1701719231.9981916,-2.0,-4.0,3.0,3.0,1.0,-4.0,3.0,-3.0
1701719231.9981916,0.0,3.0,9.0,1.0,0.0,0.0,2.0,1.0
1701719231.9981916,-3.0,-9.0,-1.0,2.0,3.0,-11.0,-27.0,-6.0
1701719232.0081954,-4.0,1.0,0.0,-5.0,-3.0,12.0,10.0,0.0
1701719232.0081954,-2.0,-5.0,-3.0,-1.0,-1.0,1.0,9.0,1.0
1701719232.0181913,0.0,-1.0,-10.0,-7.0,-5.0,-5.0,-1.0,-1.0
1701719232.0181913,-3.0,3.0,40.0,9.0,-2.0,-2.0,8.0,-3.0
1701719232.0381873,0.0,-5.0,-24.0,0.0,3.0,-14.0,-24.0,-1.0
1701719232.0381873,1.0,1.0,-5.0,-2.0,-4.0,6.0,-1.0,1.0
1701719232.0381873,1.0,4.0,5.0,2.0,1.0,3.0,6.0,-2.0
1701719232.0381873,1.0,-1.0,-4.0,-10.0,-6.0,-2.0,-5.0,2.0
1701719232.0582702,3.0,2.0,13.0,5.0,3.0,6.0,14.0,1.0
1701719232.0582702,-1.0,4.0,19.0,-9.0,-6.0,-5.0,-4.0,-1.0
1701719232.0582702,-1.0,-4.0,-35.0,-1.0,-2.0,-4.0,-8.0,-5.0
1701719232.0582702,0.0,-1.0,-2.0,19.0,23.0,9.0,6.0,1.0
1701719232.0781922,1.0,1.0,4.0,-28.0,-15.0,-1.0,4.0,-1.0
1701719232.0781922,1.0,-2.0,1.0,17.0,8.0,1.0,1.0,0.0
1701719232.0781922,-1.0,-5.0,10.0,-10.0,-9.0,-4.0,-1.0,0.0
1701719232.0781922,-2.0,1.0,-23.0,-1.0,-6.0,-5.0,-26.0,-6.0
1701719232.118186,0.0,-6.0,7.0,-4.0,1.0,1.0,26.0,4.0
1701719232.118186,0.0,-2.0,2.0,-3.0,0.0,-6.0,-16.0,-3.0
1701719232.118186,-1.0,-3.0,8.0,0.0,-2.0,7.0,24.0,2.0
1701719232.118186,5.0,2.0,1.0,2.0,-1.0,0.0,4.0,0.0
1701719232.118186,-7.0,-2.0,0.0,4.0,0.0,0.0,-3.0,-6.0
1701719232.118186,-1.0,0.0,-13.0,-4.0,-4.0,-4.0,-5.0,0.0
1701719232.118186,-3.0,-4.0,-5.0,-3.0,-2.0,-3.0,-7.0,0.0
1701719232.118186,-2.0,1.0,10.0,0.0,1.0,0.0,1.0,-1.0
1701719232.12859,-4.0,-2.0,8.0,2.0,2.0,-2.0,-11.0,-6.0
1701719232.12859,5.0,-3.0,-39.0,-1.0,-1.0,-6.0,-4.0,6.0
1701719232.13819,-4.0,1.0,18.0,0.0,-1.0,2.0,6.0,2.0
1701719232.13819,-3.0,-1.0,1.0,-11.0,-4.0,-3.0,-1.0,-2.0
1701719232.1586018,5.0,2.0,12.0,12.0,-2.0,-3.0,-11.0,-3.0
1701719232.1586018,-1.0,-3.0,18.0,0.0,2.0,3.0,11.0,-5.0
1701719232.1586018,-6.0,-6.0,-55.0,-10.0,-4.0,-5.0,-4.0,-2.0
1701719232.1586018,0.0,-6.0,-17.0,-17.0,-7.0,-1.0,9.0,2.0
1701719232.1782026,0.0,1.0,-12.0,7.0,3.0,-2.0,-1.0,-1.0
1701719232.1782026,-4.0,2.0,16.0,6.0,1.0,-1.0,-12.0,-3.0
1701719232.1782026,3.0,1.0,12.0,10.0,0.0,-1.0,-5.0,1.0
1701719232.1782026,0.0,-3.0,-10.0,-1.0,-1.0,1.0,-3.0,-2.0
1701719232.1964204,-3.0,-6.0,-3.0,-1.0,-7.0,-2.0,5.0,1.0
1701719232.1964204,3.0,4.0,-8.0,-19.0,-2.0,0.0,0.0,1.0
1701719232.2064023,-1.0,0.0,15.0,-3.0,0.0,-3.0,-1.0,0.0
1701719232.2064023,0.0,0.0,1.0,9.0,3.0,2.0,-3.0,-4.0
1701719232.2197118,4.0,-6.0,-3.0,7.0,1.0,-2.0,-2.0,3.0
1701719232.2204106,-8.0,-8.0,5.0,-2.0,-4.0,2.0,0.0,-3.0
1701719232.2206752,4.0,2.0,-28.0,-4.0,4.0,-2.0,-5.0,1.0
1701719232.2206752,-4.0,-9.0,14.0,-2.0,-2.0,-2.0,-8.0,-2.0
1701719232.241052,0.0,1.0,-5.0,6.0,3.0,6.0,7.0,-4.0
1701719232.241052,1.0,4.0,-15.0,-3.0,-2.0,-5.0,2.0,-2.0
1701719232.241052,2.0,-1.0,7.0,-10.0,0.0,6.0,9.0,1.0
1701719232.241052,-1.0,-1.0,2.0,8.0,0.0,-1.0,7.0,-1.0
1701719232.2510505,-2.0,2.0,9.0,7.0,5.0,-11.0,-18.0,-3.0
1701719232.2510505,1.0,0.0,-43.0,0.0,4.0,3.0,6.0,3.0
1701719232.2606723,-1.0,2.0,13.0,5.0,-3.0,1.0,-13.0,-1.0
1701719232.2606723,-2.0,1.0,4.0,-6.0,-5.0,-6.0,-4.0,-2.0
1701719232.2806723,-1.0,-1.0,2.0,-8.0,-4.0,4.0,6.0,1.0
1701719232.2806723,-2.0,6.0,10.0,3.0,-5.0,-5.0,-7.0,-1.0
1701719232.2806723,-2.0,-6.0,-12.0,-3.0,-2.0,-2.0,-4.0,-3.0
1701719232.2806723,-1.0,1.0,-22.0,2.0,-3.0,-3.0,-7.0,-7.0
1701719232.3007088,-9.0,-5.0,9.0,-10.0,-6.0,-11.0,-24.0,3.0
1701719232.3007088,18.0,1.0,16.0,5.0,6.0,22.0,64.0,-3.0
1701719232.3007088,-11.0,-8.0,-15.0,-1.0,-2.0,3.0,11.0,-1.0
1701719232.3007088,4.0,3.0,28.0,7.0,3.0,7.0,11.0,6.0
1701719232.3106701,-1.0,-1.0,-23.0,-10.0,-2.0,-12.0,-20.0,-5.0
1701719232.3106701,-4.0,4.0,-18.0,-11.0,-4.0,1.0,-23.0,-1.0
1701719232.3207045,0.0,-14.0,-25.0,-2.0,0.0,-4.0,3.0,-2.0
1701719232.3207045,0.0,4.0,-1.0,0.0,1.0,-2.0,-5.0,-1.0
1701719232.3310957,0.0,-4.0,-11.0,-8.0,0.0,9.0,19.0,4.0
1701719232.3406725,-3.0,-3.0,18.0,4.0,0.0,-7.0,-14.0,-2.0
1701719232.3406725,1.0,8.0,39.0,4.0,0.0,-5.0,-6.0,-6.0
1701719232.3406725,-3.0,-4.0,-4.0,-1.0,-6.0,-5.0,-10.0,0.0
1701719232.360716,2.0,-1.0,-20.0,6.0,4.0,3.0,12.0,0.0
1701719232.360716,-2.0,0.0,-9.0,-11.0,-3.0,-4.0,-7.0,-2.0
1701719232.37067,-2.0,2.0,20.0,2.0,-3.0,-5.0,-9.0,-2.0
1701719232.37067,0.0,2.0,3.0,-2.0,1.0,5.0,12.0,3.0
1701719232.37067,-1.0,-1.0,9.0,-4.0,-1.0,0.0,4.0,-3.0
1701719232.37067,-3.0,-4.0,6.0,3.0,-1.0,-2.0,-10.0,-1.0
1701719232.380926,0.0,0.0,2.0,8.0,1.0,-3.0,-2.0,0.0
1701719232.380926,-1.0,2.0,4.0,-8.0,-6.0,0.0,4.0,0.0
1701719232.4006753,0.0,-1.0,-5.0,1.0,4.0,0.0,1.0,-2.0
1701719232.4006753,-4.0,-1.0,0.0,-3.0,-1.0,-10.0,-22.0,-3.0
1701719232.4006753,1.0,0.0,10.0,-2.0,1.0,1.0,-1.0,1.0
1701719232.4006753,-2.0,-2.0,-2.0,-1.0,-1.0,4.0,3.0,-2.0
1701719232.4209146,-2.0,0.0,0.0,-1.0,0.0,-3.0,2.0,-2.0
1701719232.4209146,-1.0,-3.0,6.0,0.0,-2.0,3.0,2.0,3.0
1701719232.4209146,-1.0,2.0,-13.0,-4.0,-1.0,-4.0,-5.0,-3.0
1701719232.4209146,3.0,-4.0,-6.0,3.0,-3.0,-6.0,-6.0,-2.0
1701719232.4606726,-6.0,-3.0,3.0,-2.0,-5.0,-3.0,-4.0,-1.0
1701719232.4606726,-6.0,-5.0,20.0,12.0,1.0,-1.0,-3.0,-2.0
1701719232.4606726,-3.0,3.0,-25.0,-12.0,-3.0,2.0,4.0,-3.0
1701719232.4606726,-3.0,-3.0,-9.0,-7.0,-4.0,-4.0,-5.0,-1.0
1701719232.4606726,0.0,1.0,5.0,-6.0,-3.0,-3.0,-3.0,-2.0
1701719232.4606726,0.0,-3.0,0.0,1.0,-3.0,-2.0,12.0,2.0
1701719232.4606726,0.0,2.0,6.0,6.0,1.0,1.0,-8.0,0.0
1701719232.4606726,-5.0,-3.0,-6.0,-3.0,0.0,-1.0,9.0,-2.0
1701719232.4806707,0.0,1.0,-6.0,4.0,-3.0,-1.0,-20.0,-4.0
1701719232.4806707,1.0,1.0,-2.0,-9.0,0.0,5.0,12.0,4.0
1701719232.4806707,-1.0,-3.0,-8.0,5.0,1.0,1.0,21.0,1.0
1701719232.4806707,0.0,0.0,5.0,3.0,0.0,1.0,8.0,6.0
1701719232.4910533,-2.0,-2.0,9.0,-6.0,-2.0,-2.0,-16.0,-5.0
1701719232.4910533,-6.0,-4.0,-22.0,-1.0,-4.0,-6.0,-5.0,-9.0
1701719232.5009978,3.0,0.0,1.0,-6.0,-3.0,-6.0,-14.0,2.0
1701719232.5009978,-1.0,0.0,15.0,1.0,2.0,-5.0,-20.0,0.0
1701719232.5206728,-1.0,-3.0,-27.0,8.0,2.0,12.0,28.0,5.0
1701719232.5206728,-2.0,-4.0,-11.0,-5.0,1.0,-1.0,7.0,2.0
1701719232.5206728,-1.0,-2.0,4.0,-6.0,-2.0,-2.0,-6.0,-4.0
1701719232.5206728,-2.0,-4.0,-19.0,-6.0,-3.0,-4.0,-14.0,-4.0
1701719232.540766,-1.0,1.0,15.0,1.0,-2.0,-5.0,-1.0,-3.0
1701719232.540766,-1.0,-1.0,1.0,0.0,-1.0,-1.0,-2.0,-1.0
1701719232.55067,5.0,3.0,11.0,7.0,0.0,-3.0,-4.0,5.0
1701719232.55067,-6.0,-4.0,-26.0,-15.0,-5.0,2.0,-8.0,-12.0
1701719232.55067,-11.0,0.0,9.0,8.0,-1.0,-7.0,-14.0,-2.0
1701719232.55067,0.0,-2.0,0.0,2.0,-2.0,3.0,31.0,3.0
1701719232.5607004,-1.0,-3.0,10.0,1.0,1.0,0.0,-6.0,-4.0
1701719232.5607004,2.0,3.0,-5.0,-3.0,-2.0,-3.0,-1.0,11.0
1701719232.580674,0.0,-1.0,-5.0,-10.0,-3.0,-4.0,-8.0,-5.0
1701719232.580674,-2.0,-1.0,6.0,5.0,1.0,0.0,-15.0,2.0
1701719232.580674,-5.0,-8.0,-50.0,-5.0,-4.0,-7.0,6.0,-4.0
1701719232.580674,-1.0,-1.0,16.0,0.0,-4.0,-2.0,-9.0,-12.0
1701719232.6007173,3.0,0.0,1.0,-1.0,5.0,10.0,34.0,21.0
1701719232.6007173,0.0,1.0,12.0,1.0,0.0,-3.0,-7.0,0.0
1701719232.6007173,1.0,-1.0,10.0,1.0,-2.0,-5.0,-8.0,-3.0
1701719232.6007173,0.0,-2.0,7.0,0.0,0.0,3.0,22.0,2.0
1701719232.610958,1.0,-4.0,13.0,-2.0,-5.0,-3.0,-10.0,-4.0
1701719232.610958,0.0,-2.0,-15.0,-4.0,-1.0,-2.0,-6.0,-8.0
1701719232.6209543,0.0,1.0,8.0,2.0,-1.0,0.0,1.0,2.0
1701719232.6209543,-2.0,-1.0,-16.0,-1.0,2.0,1.0,-18.0,-12.0
1701719232.6406753,3.0,2.0,25.0,-1.0,-2.0,-4.0,0.0,4.0
1701719232.6406753,-2.0,-3.0,0.0,-7.0,-5.0,-1.0,-4.0,0.0
1701719232.6406753,-2.0,0.0,-4.0,-1.0,-2.0,2.0,1.0,-4.0
1701719232.6406753,-3.0,-2.0,2.0,-5.0,-1.0,-5.0,1.0,0.0
1701719232.6706703,0.0,-3.0,-12.0,0.0,2.0,5.0,20.0,0.0
1701719232.6706703,-4.0,-2.0,-7.0,-1.0,-1.0,0.0,-27.0,-6.0
1701719232.6706703,3.0,1.0,31.0,-1.0,-1.0,-1.0,19.0,5.0
1701719232.6706703,4.0,0.0,-32.0,-3.0,-3.0,0.0,-4.0,1.0
1701719232.6706703,-6.0,-1.0,-3.0,-4.0,-3.0,1.0,3.0,0.0
1701719232.6706703,-1.0,3.0,15.0,7.0,-2.0,-3.0,2.0,2.0
1701719232.6809516,-2.0,-6.0,-19.0,-5.0,0.0,0.0,3.0,-2.0
1701719232.6809516,-2.0,2.0,-8.0,-6.0,-2.0,0.0,9.0,3.0
1701719232.691008,3.0,1.0,-1.0,0.0,1.0,2.0,-9.0,-2.0
1701719232.691008,1.0,0.0,11.0,3.0,0.0,-6.0,-1.0,-2.0
1701719232.700672,-2.0,1.0,-1.0,0.0,1.0,2.0,-8.0,-3.0
1701719232.700672,-1.0,-4.0,-2.0,-1.0,-1.0,0.0,-4.0,-7.0
1701719232.7219293,0.0,-1.0,-3.0,-1.0,-2.0,-4.0,-3.0,6.0
1701719232.7219293,-2.0,-1.0,10.0,-5.0,-1.0,4.0,11.0,-2.0
1701719232.7239442,-1.0,-3.0,-10.0,-1.0,-3.0,-1.0,2.0,1.0
1701719232.7239442,-2.0,0.0,10.0,5.0,3.0,-2.0,8.0,3.0
1701719232.7360365,0.0,-4.0,-1.0,-1.0,0.0,0.0,-3.0,-7.0
1701719232.7369494,2.0,1.0,0.0,2.0,1.0,1.0,-5.0,2.0
1701719232.7443752,-3.0,2.0,4.0,-4.0,-5.0,-4.0,-16.0,-5.0
1701719232.7443752,-2.0,-11.0,-10.0,-7.0,-2.0,-1.0,8.0,3.0
1701719232.7533758,-2.0,0.0,-5.0,2.0,-2.0,-5.0,-11.0,-3.0
1701719232.7533758,0.0,3.0,-9.0,-6.0,-4.0,-3.0,-7.0,-2.0
1701719232.7533758,-1.0,-1.0,3.0,4.0,0.0,1.0,7.0,1.0
1701719232.7533758,-4.0,3.0,6.0,-1.0,-2.0,0.0,1.0,-1.0
1701719232.7835958,-2.0,-2.0,2.0,-1.0,-2.0,-3.0,-2.0,-3.0
1701719232.7835958,-1.0,-4.0,-10.0,-2.0,-1.0,-1.0,-6.0,-4.0
1701719232.7835958,2.0,6.0,12.0,2.0,2.0,3.0,4.0,2.0
1701719232.7835958,0.0,-7.0,-12.0,-1.0,1.0,-3.0,-4.0,1.0
1701719232.7936106,-3.0,0.0,-10.0,-5.0,-3.0,-1.0,13.0,-4.0
1701719232.7936106,0.0,0.0,-6.0,3.0,0.0,-5.0,3.0,0.0
1701719232.8036687,1.0,-1.0,13.0,4.0,3.0,1.0,-5.0,-1.0
1701719232.8036687,1.0,1.0,2.0,-2.0,-3.0,3.0,2.0,3.0
1701719232.8333774,2.0,-2.0,-11.0,6.0,1.0,1.0,7.0,-2.0
1701719232.8333774,-2.0,-1.0,-3.0,-4.0,-1.0,-3.0,-9.0,0.0
1701719232.8333774,-6.0,2.0,7.0,3.0,2.0,-7.0,-16.0,-1.0
1701719232.8333774,1.0,3.0,6.0,-1.0,0.0,11.0,16.0,0.0
1701719232.8433821,-1.0,0.0,2.0,-3.0,-2.0,-6.0,-11.0,-2.0
1701719232.8433821,2.0,0.0,5.0,0.0,-3.0,-4.0,3.0,-2.0
1701719232.8433821,-2.0,-4.0,-7.0,-8.0,-6.0,0.0,-1.0,-1.0
1701719232.8433821,-2.0,-2.0,25.0,9.0,-1.0,-2.0,4.0,-1.0
1701719232.8537138,2.0,-3.0,-22.0,-3.0,-1.0,0.0,-6.0,3.0
1701719232.8537138,-3.0,-10.0,-8.0,-4.0,1.0,-3.0,3.0,-3.0
1701719232.8733792,1.0,-3.0,-23.0,-8.0,-3.0,-6.0,-22.0,-6.0
1701719232.8733792,-2.0,3.0,15.0,4.0,2.0,0.0,5.0,0.0
1701719232.883384,2.0,2.0,9.0,1.0,1.0,4.0,15.0,-1.0
1701719232.883384,-2.0,1.0,3.0,2.0,-3.0,-7.0,-14.0,-1.0
1701719232.883384,-2.0,2.0,6.0,-6.0,-2.0,4.0,14.0,-2.0
1701719232.883384,0.0,-9.0,-23.0,-5.0,-3.0,-3.0,-4.0,-1.0
1701719232.8934116,-1.0,-1.0,5.0,2.0,1.0,-4.0,-9.0,-2.0
1701719232.8934116,-1.0,-3.0,-1.0,-9.0,-8.0,-4.0,-1.0,1.0
1701719232.9033992,-3.0,-1.0,4.0,10.0,-2.0,1.0,2.0,-2.0
1701719232.9033992,-1.0,2.0,-13.0,-5.0,3.0,-1.0,-1.0,0.0
1701719232.9137423,-4.0,2.0,15.0,-2.0,-8.0,-5.0,-8.0,-4.0
1701719232.9137423,-2.0,-1.0,-27.0,-7.0,3.0,2.0,-3.0,-3.0
1701719232.9237878,1.0,1.0,1.0,-2.0,0.0,1.0,9.0,5.0
1701719232.9237878,-6.0,0.0,5.0,-13.0,-11.0,-4.0,-8.0,-2.0
1701719232.943376,0.0,-8.0,2.0,21.0,7.0,3.0,-4.0,-3.0
1701719232.943376,1.0,5.0,-2.0,2.0,4.0,2.0,6.0,1.0
1701719232.943376,-2.0,-1.0,1.0,1.0,-1.0,1.0,-1.0,-1.0
1701719232.943376,4.0,0.0,-1.0,-15.0,-7.0,-6.0,-15.0,-3.0
1701719232.953771,-3.0,-1.0,-1.0,-7.0,-8.0,-1.0,8.0,1.0
1701719232.953771,-3.0,0.0,2.0,6.0,1.0,3.0,-7.0,-3.0
1701719232.9633796,0.0,-7.0,4.0,3.0,3.0,-1.0,15.0,5.0
1701719232.9633796,2.0,2.0,-1.0,2.0,0.0,1.0,11.0,3.0
1701719232.9837978,-2.0,0.0,7.0,-6.0,-5.0,1.0,9.0,5.0
1701719232.9837978,-1.0,-3.0,-5.0,-2.0,-1.0,2.0,-2.0,-5.0
1701719232.99338,-1.0,-1.0,7.0,-2.0,-1.0,-2.0,-21.0,-11.0
1701719232.99338,-1.0,7.0,9.0,5.0,0.0,-2.0,-3.0,2.0
1701719232.99338,-1.0,-5.0,-19.0,-1.0,4.0,-4.0,-12.0,-4.0
1701719232.99338,0.0,-1.0,0.0,-1.0,-4.0,1.0,7.0,3.0
1701719232.99338,-2.0,-1.0,-15.0,-5.0,-3.0,-7.0,-7.0,-3.0
1701719232.99338,-1.0,4.0,5.0,2.0,2.0,-4.0,-6.0,-3.0
1701719233.023383,-2.0,-9.0,-1.0,-1.0,4.0,1.0,8.0,3.0
1701719233.023383,1.0,6.0,19.0,6.0,3.0,1.0,-3.0,-2.0
1701719233.023383,-3.0,-3.0,11.0,0.0,-4.0,-1.0,-1.0,-1.0
1701719233.023383,1.0,-4.0,-20.0,3.0,2.0,5.0,3.0,-3.0
1701719233.043378,-3.0,6.0,-14.0,-10.0,-2.0,-5.0,-15.0,-8.0
1701719233.043378,-2.0,-1.0,13.0,7.0,-3.0,-1.0,-8.0,9.0
1701719233.043378,3.0,-6.0,-12.0,-5.0,0.0,-5.0,29.0,15.0
1701719233.043378,-8.0,3.0,11.0,5.0,3.0,11.0,19.0,-4.0
1701719233.053414,16.0,3.0,5.0,-4.0,-4.0,-8.0,-21.0,-7.0
1701719233.053414,-3.0,-8.0,-21.0,-6.0,-3.0,3.0,15.0,0.0
1701719233.053414,0.0,3.0,8.0,4.0,1.0,1.0,-16.0,-2.0
1701719233.053414,-4.0,-2.0,7.0,0.0,-3.0,-4.0,-14.0,-16.0
1701719233.0833828,-1.0,2.0,11.0,-5.0,-2.0,-4.0,18.0,15.0
1701719233.0833828,0.0,-6.0,-7.0,-2.0,-4.0,-8.0,-22.0,-6.0
1701719233.0833828,-1.0,-1.0,-19.0,-3.0,3.0,4.0,-2.0,4.0
1701719233.0833828,0.0,-8.0,-13.0,0.0,2.0,-2.0,14.0,-1.0
1701719233.1233764,1.0,4.0,-1.0,0.0,-2.0,-2.0,-15.0,-9.0
1701719233.1233764,-6.0,-1.0,13.0,1.0,1.0,-5.0,-3.0,-1.0
1701719233.1233764,-3.0,0.0,-4.0,-3.0,-3.0,-1.0,-1.0,-3.0
1701719233.1233764,4.0,-1.0,11.0,2.0,2.0,-3.0,-6.0,-1.0
1701719233.1233764,-2.0,-1.0,3.0,5.0,-3.0,-9.0,-12.0,-10.0
1701719233.1233764,2.0,5.0,9.0,1.0,2.0,6.0,10.0,7.0
1701719233.1233764,-2.0,-2.0,-11.0,-4.0,-1.0,7.0,-6.0,-2.0
1701719233.1233764,-1.0,-3.0,-9.0,-6.0,-5.0,-10.0,-6.0,5.0
1701719233.1433825,-6.0,-5.0,-24.0,-11.0,-4.0,-1.0,4.0,1.0
1701719233.1433825,-2.0,-4.0,19.0,0.0,-2.0,-6.0,-12.0,-13.0
1701719233.1433825,3.0,3.0,22.0,9.0,2.0,9.0,14.0,2.0
1701719233.1433825,1.0,0.0,6.0,0.0,-4.0,-4.0,3.0,5.0
1701719233.1637163,-4.0,0.0,-38.0,-18.0,-4.0,4.0,6.0,3.0
1701719233.1637163,0.0,-3.0,-3.0,-1.0,-1.0,-3.0,3.0,4.0
1701719233.1637163,0.0,2.0,-4.0,0.0,-3.0,-5.0,-5.0,-7.0
1701719233.1637163,1.0,-2.0,9.0,1.0,-6.0,1.0,-6.0,1.0
1701719233.1833787,-4.0,-1.0,13.0,6.0,8.0,2.0,-3.0,-8.0
1701719233.1833787,1.0,-4.0,-15.0,-3.0,-2.0,1.0,9.0,1.0
1701719233.1833787,0.0,1.0,-5.0,-8.0,3.0,-9.0,-8.0,-1.0
1701719233.1833787,-2.0,-1.0,17.0,8.0,-7.0,0.0,6.0,1.0
1701719233.1936352,-1.0,4.0,8.0,3.0,6.0,1.0,-9.0,-1.0
1701719233.2033827,1.0,3.0,-2.0,0.0,2.0,6.0,29.0,-1.0
1701719233.2133825,-2.0,-3.0,-10.0,-4.0,-3.0,2.0,0.0,-7.0
1701719233.2133825,-1.0,-3.0,-14.0,-8.0,-2.0,-6.0,-18.0,-4.0
1701719233.2233758,-4.0,-2.0,16.0,0.0,-6.0,-7.0,-3.0,5.0
1701719233.2233758,-1.0,2.0,5.0,4.0,1.0,7.0,-14.0,-1.0
1701719233.2233758,-5.0,-4.0,-4.0,-3.0,-3.0,-3.0,14.0,1.0
1701719233.2233758,-2.0,2.0,-12.0,0.0,4.0,-1.0,-5.0,-7.0
1701719233.2337584,0.0,-1.0,7.0,3.0,-2.0,-2.0,2.0,11.0
1701719233.2337584,-2.0,-5.0,-30.0,-10.0,-2.0,3.0,15.0,-2.0
1701719233.2437522,0.0,1.0,5.0,5.0,0.0,0.0,1.0,2.0
1701719233.2437522,3.0,-4.0,-9.0,-7.0,3.0,2.0,-14.0,-5.0
1701719233.269708,-1.0,0.0,27.0,7.0,-2.0,0.0,6.0,-1.0
1701719233.269708,-2.0,-3.0,3.0,-1.0,-5.0,-8.0,-22.0,-4.0
1701719233.271745,-1.0,0.0,14.0,5.0,1.0,-2.0,-5.0,-5.0
1701719233.271745,-2.0,-5.0,-16.0,5.0,1.0,-3.0,8.0,1.0
1701719233.2860293,-2.0,0.0,7.0,-14.0,1.0,5.0,-2.0,-4.0
1701719233.2860293,-1.0,0.0,-17.0,-5.0,-3.0,-1.0,7.0,2.0
1701719233.2860293,-3.0,-3.0,-7.0,0.0,0.0,-3.0,-12.0,-5.0
1701719233.2860293,-2.0,3.0,10.0,2.0,2.0,1.0,-4.0,3.0
1701719233.2962255,-1.0,-6.0,-29.0,-10.0,-5.0,-2.0,1.0,1.0
1701719233.2962255,-2.0,2.0,28.0,3.0,0.0,4.0,-4.0,-6.0
1701719233.3060746,1.0,-2.0,19.0,6.0,-1.0,-6.0,2.0,2.0
1701719233.3060746,0.0,0.0,4.0,-1.0,-2.0,1.0,16.0,4.0
1701719233.3263068,3.0,1.0,-8.0,-3.0,-1.0,2.0,3.0,-1.0
1701719233.3263068,-8.0,-1.0,-5.0,2.0,0.0,-6.0,4.0,0.0
1701719233.3263068,-7.0,5.0,-4.0,2.0,-2.0,-1.0,-17.0,-3.0
1701719233.3263068,2.0,0.0,3.0,-5.0,-1.0,0.0,-3.0,8.0
1701719233.3560312,-8.0,-15.0,-1.0,5.0,4.0,4.0,8.0,-8.0
1701719233.3560312,2.0,-3.0,-5.0,0.0,-1.0,-5.0,-11.0,-8.0
1701719233.3560312,-4.0,-1.0,0.0,-8.0,-4.0,-1.0,19.0,10.0
1701719233.3560312,-3.0,6.0,3.0,3.0,-6.0,-6.0,-13.0,0.0
1701719233.3560312,-2.0,-4.0,8.0,3.0,-3.0,2.0,-1.0,-3.0
1701719233.3560312,-1.0,-5.0,-53.0,-6.0,-1.0,-7.0,-15.0,-4.0
1701719233.3660793,0.0,0.0,-9.0,-11.0,-4.0,-5.0,-11.0,-3.0
1701719233.3660793,-5.0,-5.0,20.0,-1.0,0.0,8.0,23.0,-3.0
1701719233.3764665,4.0,6.0,-8.0,2.0,-4.0,-4.0,10.0,10.0
1701719233.3764665,0.0,-1.0,33.0,6.0,4.0,5.0,-6.0,-15.0
1701719233.3860307,3.0,3.0,7.0,10.0,-2.0,12.0,17.0,2.0
1701719233.3860307,1.0,-7.0,-39.0,-14.0,4.0,-7.0,-19.0,-4.0
1701719233.4060314,-3.0,-2.0,12.0,2.0,-2.0,-3.0,-6.0,-7.0
1701719233.4060314,2.0,8.0,26.0,8.0,-2.0,-3.0,0.0,4.0
1701719233.4060314,-10.0,-12.0,-30.0,-16.0,-4.0,-14.0,-23.0,-15.0
1701719233.4060314,4.0,2.0,27.0,6.0,0.0,6.0,1.0,8.0
1701719233.4163415,-2.0,3.0,-67.0,-18.0,-4.0,2.0,0.0,4.0
1701719233.4163415,-2.0,-2.0,17.0,7.0,-2.0,-3.0,5.0,1.0
1701719233.4260325,3.0,-11.0,-20.0,1.0,1.0,3.0,-3.0,-5.0
1701719233.4260325,-5.0,-2.0,-2.0,1.0,1.0,-5.0,9.0,1.0
1701719233.4363978,-2.0,2.0,4.0,-6.0,-2.0,-3.0,-3.0,-8.0
1701719233.4363978,-1.0,2.0,-4.0,-1.0,-2.0,0.0,7.0,12.0
1701719233.446031,-10.0,2.0,14.0,-1.0,-1.0,-4.0,-29.0,-26.0
1701719233.446031,0.0,-7.0,1.0,-1.0,-3.0,-2.0,-15.0,-7.0
1701719233.4560637,0.0,0.0,-4.0,3.0,1.0,5.0,23.0,12.0
1701719233.4660375,0.0,-1.0,-10.0,-6.0,-2.0,-5.0,-1.0,-4.0
1701719233.4660375,3.0,5.0,4.0,-2.0,-2.0,-1.0,-1.0,-2.0
1701719233.4660375,-5.0,-8.0,-4.0,2.0,1.0,-6.0,1.0,-2.0
1701719233.4763079,-4.0,1.0,11.0,0.0,-3.0,-1.0,-10.0,-9.0
1701719233.4763079,-3.0,-2.0,-1.0,-5.0,1.0,-3.0,-9.0,10.0
1701719233.4862082,4.0,5.0,-4.0,-1.0,1.0,6.0,22.0,10.0
1701719233.4960356,-2.0,0.0,-14.0,-6.0,-6.0,-7.0,-10.0,-5.0
1701719233.5060358,0.0,-2.0,43.0,17.0,0.0,-2.0,-6.0,-7.0
1701719233.5060358,-2.0,-5.0,-49.0,-21.0,-8.0,-6.0,-8.0,0.0
1701719233.5060358,2.0,3.0,5.0,2.0,2.0,8.0,8.0,8.0
1701719233.5060358,0.0,-3.0,0.0,-4.0,-6.0,-2.0,-3.0,-11.0
1701719233.5160677,-7.0,6.0,-6.0,8.0,4.0,-4.0,1.0,-4.0
1701719233.5160677,-4.0,-4.0,8.0,0.0,2.0,-1.0,-4.0,-5.0
1701719233.5260386,-2.0,-8.0,14.0,7.0,5.0,-3.0,-5.0,-1.0
1701719233.5260386,1.0,1.0,-14.0,-7.0,-7.0,-7.0,4.0,0.0
1701719233.5364456,-1.0,-4.0,-1.0,-6.0,-5.0,0.0,-9.0,-3.0
1701719233.5364456,0.0,2.0,16.0,-3.0,-4.0,-5.0,-17.0,-6.0
1701719233.5461295,-1.0,-1.0,-32.0,-8.0,-4.0,-2.0,10.0,3.0
1701719233.5461295,-3.0,6.0,45.0,14.0,4.0,3.0,-2.0,3.0
1701719233.556031,1.0,-7.0,-54.0,-20.0,-8.0,-4.0,6.0,-5.0
1701719233.556031,-2.0,-1.0,19.0,12.0,5.0,5.0,17.0,1.0
1701719233.556031,-3.0,-5.0,-2.0,-3.0,-2.0,0.0,-3.0,-3.0
1701719233.556031,4.0,3.0,-6.0,-8.0,1.0,-3.0,-11.0,1.0
1701719233.5764537,-10.0,-1.0,1.0,5.0,2.0,0.0,1.0,5.0
1701719233.5764537,5.0,-3.0,-5.0,-17.0,-7.0,-3.0,-10.0,-5.0
1701719233.5860362,-1.0,-2.0,27.0,2.0,2.0,-3.0,0.0,-4.0
1701719233.5860362,-2.0,1.0,-22.0,-3.0,-3.0,-1.0,0.0,1.0
1701719233.596053,0.0,-2.0,8.0,1.0,2.0,1.0,-5.0,-5.0
1701719233.596053,-1.0,1.0,6.0,6.0,3.0,2.0,5.0,1.0
1701719233.6060328,-6.0,-9.0,12.0,-3.0,-5.0,-4.0,0.0,4.0
1701719233.6060328,1.0,8.0,-7.0,6.0,5.0,0.0,-2.0,-1.0
1701719233.616391,1.0,-5.0,-1.0,-3.0,4.0,-6.0,-20.0,0.0
1701719233.616391,0.0,7.0,-15.0,-7.0,-2.0,3.0,26.0,1.0
1701719233.616391,0.0,-1.0,6.0,7.0,2.0,-3.0,0.0,0.0
1701719233.616391,-12.0,-8.0,19.0,-1.0,-1.0,2.0,-7.0,-6.0
1701719233.6363027,6.0,0.0,-14.0,5.0,-3.0,0.0,-3.0,-1.0
1701719233.6363027,-4.0,2.0,1.0,6.0,3.0,7.0,27.0,6.0
1701719233.6460319,1.0,1.0,-20.0,-13.0,2.0,-1.0,1.0,1.0
1701719233.6460319,-3.0,-2.0,21.0,9.0,-4.0,-5.0,0.0,0.0
1701719233.666078,2.0,1.0,3.0,-4.0,2.0,3.0,-1.0,0.0
1701719233.666078,2.0,-2.0,-6.0,7.0,-6.0,-8.0,-15.0,-3.0
1701719233.666078,-1.0,2.0,5.0,-7.0,-3.0,0.0,1.0,0.0
1701719233.666078,2.0,2.0,-16.0,-7.0,3.0,2.0,2.0,-2.0
1701719233.6762824,-2.0,0.0,8.0,-2.0,-4.0,0.0,-4.0,-4.0
1701719233.6762824,1.0,-5.0,6.0,-1.0,-3.0,-3.0,-1.0,7.0
1701719233.6762824,-1.0,1.0,-10.0,1.0,-2.0,-4.0,-8.0,-2.0
1701719233.6762824,0.0,0.0,-14.0,-2.0,-3.0,-6.0,-4.0,-2.0
1701719233.6964114,1.0,4.0,18.0,6.0,10.0,5.0,19.0,2.0
1701719233.6964114,-3.0,-7.0,5.0,0.0,1.0,-4.0,-23.0,-7.0
1701719233.7060328,-2.0,3.0,3.0,5.0,-2.0,3.0,1.0,-2.0
1701719233.7060328,4.0,-3.0,-15.0,-14.0,-3.0,6.0,23.0,8.0
1701719233.716035,-3.0,0.0,11.0,0.0,-7.0,-1.0,-19.0,-8.0
1701719233.716035,0.0,-2.0,-13.0,-7.0,-6.0,-8.0,17.0,8.0
1701719233.7260811,3.0,2.0,3.0,0.0,0.0,5.0,-4.0,4.0
1701719233.7260811,-4.0,-3.0,-9.0,1.0,0.0,-3.0,2.0,-8.0
1701719233.7363195,-3.0,0.0,6.0,1.0,-2.0,0.0,5.0,9.0
1701719233.7363195,7.0,0.0,4.0,-7.0,-4.0,-8.0,-27.0,-19.0
1701719233.746035,-5.0,-2.0,-9.0,-3.0,-2.0,-4.0,-5.0,-5.0
1701719233.746035,-1.0,2.0,-1.0,1.0,3.0,3.0,-11.0,-12.0
1701719233.756328,8.0,-6.0,-9.0,-1.0,1.0,-4.0,-2.0,15.0
1701719233.766038,-14.0,-1.0,27.0,0.0,-3.0,5.0,44.0,3.0
1701719233.766038,2.0,-2.0,-22.0,1.0,1.0,-3.0,-3.0,9.0
1701719233.766038,-3.0,-1.0,9.0,8.0,-2.0,-2.0,2.0,-12.0
1701719233.7988627,4.0,1.0,-3.0,-14.0,-3.0,-5.0,-2.0,5.0
1701719233.7988627,-1.0,0.0,-17.0,-7.0,0.0,0.0,-26.0,-3.0
1701719233.7988627,-1.0,0.0,34.0,7.0,-1.0,-2.0,3.0,-4.0
1701719233.7988627,-7.0,-4.0,-10.0,-4.0,2.0,4.0,-1.0,3.0
1701719233.8020453,7.0,-7.0,9.0,-3.0,2.0,4.0,13.0,-5.0
1701719233.8020453,0.0,2.0,3.0,4.0,2.0,3.0,-3.0,2.0
1701719233.8020453,1.0,6.0,9.0,0.0,-4.0,-4.0,-6.0,0.0
1701719233.8020453,1.0,-5.0,-10.0,-1.0,-2.0,-7.0,-16.0,1.0
1701719233.832049,-3.0,5.0,34.0,7.0,-4.0,-5.0,2.0,-2.0
1701719233.832049,-3.0,-7.0,-26.0,-7.0,0.0,1.0,-4.0,-5.0
1701719233.832049,0.0,-3.0,-20.0,-4.0,-2.0,0.0,1.0,2.0
1701719233.832049,1.0,-1.0,21.0,5.0,0.0,2.0,8.0,5.0
1701719233.832049,-5.0,2.0,-8.0,1.0,-3.0,1.0,-5.0,-9.0
1701719233.832049,0.0,-2.0,-18.0,-9.0,-3.0,-13.0,-28.0,-4.0
1701719233.842118,-3.0,-6.0,-4.0,5.0,3.0,9.0,21.0,-2.0
1701719233.842118,3.0,-1.0,-12.0,-9.0,-2.0,2.0,19.0,7.0
1701719233.8623674,-4.0,2.0,0.0,5.0,2.0,-2.0,1.0,-9.0
1701719233.8623674,2.0,1.0,4.0,3.0,-4.0,5.0,1.0,1.0
1701719233.8623674,4.0,0.0,15.0,-2.0,-4.0,-13.0,-16.0,0.0
1701719233.8623674,-6.0,-1.0,-5.0,-7.0,0.0,-2.0,-15.0,1.0
1701719233.8920527,9.0,-1.0,-4.0,-5.0,-1.0,-1.0,9.0,-1.0
1701719233.8920527,-2.0,-1.0,2.0,-4.0,-3.0,-2.0,-14.0,-11.0
1701719233.8920527,2.0,-2.0,3.0,5.0,-2.0,-1.0,-2.0,-2.0
1701719233.8920527,-1.0,1.0,2.0,4.0,-1.0,-5.0,-8.0,-5.0
1701719233.8920527,-4.0,-3.0,-11.0,-6.0,-3.0,-2.0,-5.0,-4.0
1701719233.8920527,-1.0,-2.0,9.0,1.0,0.0,1.0,6.0,4.0
1701719233.902304,-4.0,0.0,-17.0,-8.0,-2.0,0.0,-4.0,3.0
1701719233.902304,10.0,-1.0,4.0,2.0,-2.0,-2.0,2.0,-1.0
1701719233.9222999,-5.0,2.0,2.0,-4.0,-5.0,-5.0,-4.0,-3.0
1701719233.9222999,1.0,-1.0,-3.0,9.0,9.0,1.0,-7.0,-2.0
1701719233.9222999,-3.0,-2.0,-7.0,-7.0,0.0,-4.0,4.0,-3.0
1701719233.9222999,-3.0,-2.0,27.0,7.0,0.0,5.0,14.0,4.0
1701719233.9424148,-4.0,-1.0,-22.0,-3.0,0.0,-4.0,-5.0,-6.0
1701719233.9424148,2.0,-3.0,10.0,-3.0,-2.0,-1.0,8.0,-1.0
1701719233.9424148,-3.0,0.0,-6.0,-10.0,-2.0,-7.0,-21.0,-4.0
1701719233.9424148,1.0,1.0,2.0,8.0,3.0,3.0,7.0,2.0
1701719233.9620466,-1.0,-4.0,13.0,5.0,-1.0,2.0,-4.0,8.0
1701719233.9620466,1.0,3.0,5.0,0.0,2.0,1.0,4.0,3.0
1701719233.9620466,0.0,2.0,-10.0,-5.0,-2.0,-2.0,3.0,-1.0
1701719233.9620466,-2.0,-8.0,-8.0,-6.0,0.0,-1.0,-4.0,-2.0
1701719233.9824452,-9.0,1.0,-4.0,1.0,1.0,-2.0,-5.0,-3.0
1701719233.9824452,-1.0,-2.0,26.0,4.0,-2.0,-3.0,2.0,7.0
1701719233.9824452,0.0,-8.0,-42.0,-8.0,-3.0,-1.0,-4.0,-1.0
1701719233.9824452,-2.0,4.0,18.0,7.0,-1.0,3.0,2.0,-1.0
1701719234.002051,-2.0,-3.0,-21.0,-4.0,-3.0,-1.0,2.0,-4.0
1701719234.002051,-3.0,0.0,-2.0,-4.0,3.0,-1.0,6.0,1.0
1701719234.002051,-1.0,3.0,15.0,10.0,4.0,1.0,1.0,0.0
1701719234.002051,-3.0,-2.0,-8.0,-2.0,-2.0,-4.0,-13.0,0.0
1701719234.022063,0.0,-10.0,-15.0,-10.0,-6.0,-2.0,-1.0,-2.0
1701719234.022063,-2.0,5.0,9.0,3.0,0.0,0.0,2.0,1.0
1701719234.0320523,-3.0,-3.0,7.0,-1.0,1.0,4.0,8.0,-1.0
1701719234.0320523,-1.0,0.0,2.0,-3.0,-2.0,-8.0,-17.0,-2.0
1701719234.042055,1.0,3.0,-9.0,0.0,1.0,4.0,19.0,2.0
1701719234.042055,0.0,-3.0,-6.0,0.0,-2.0,-4.0,-7.0,-7.0
1701719234.0620472,3.0,-6.0,-8.0,-12.0,-2.0,-1.0,-1.0,0.0
1701719234.0620472,-8.0,-1.0,1.0,0.0,-4.0,0.0,-4.0,-6.0
1701719234.0721223,1.0,-2.0,-15.0,2.0,6.0,-3.0,-6.0,3.0
1701719234.0721223,-1.0,2.0,13.0,-2.0,-1.0,1.0,0.0,1.0
1701719234.0721223,-1.0,2.0,-3.0,4.0,0.0,0.0,-6.0,-2.0
1701719234.0721223,1.0,-3.0,6.0,-8.0,-6.0,-6.0,-8.0,-3.0
1701719234.082054,0.0,-2.0,-10.0,-4.0,-5.0,3.0,18.0,0.0
1701719234.082054,-2.0,-5.0,3.0,4.0,1.0,-1.0,4.0,-3.0
1701719234.082054,-3.0,-2.0,5.0,-4.0,-1.0,7.0,-6.0,-4.0
1701719234.082054,-3.0,3.0,-24.0,-4.0,-1.0,-6.0,4.0,6.0
1701719234.1020544,-3.0,-1.0,27.0,-1.0,-1.0,-11.0,-26.0,-5.0
1701719234.1020544,1.0,-2.0,-15.0,4.0,1.0,13.0,45.0,10.0
1701719234.1120713,-5.0,0.0,-6.0,1.0,-3.0,-3.0,-1.0,-4.0
1701719234.1120713,0.0,2.0,9.0,-5.0,-1.0,4.0,-8.0,0.0
1701719234.1221156,-4.0,-1.0,8.0,-7.0,-1.0,-5.0,4.0,-7.0
1701719234.1221156,3.0,-1.0,-7.0,2.0,-6.0,-13.0,-33.0,0.0
1701719234.1221156,2.0,2.0,8.0,2.0,1.0,9.0,35.0,6.0
1701719234.1221156,-7.0,0.0,-16.0,5.0,0.0,-1.0,-11.0,-1.0
1701719234.142518,4.0,2.0,12.0,0.0,0.0,7.0,12.0,21.0
1701719234.142518,2.0,1.0,-2.0,-7.0,-1.0,6.0,-6.0,-24.0
1701719234.142518,0.0,0.0,-1.0,-5.0,-3.0,-4.0,5.0,5.0
1701719234.142518,-1.0,-5.0,-33.0,-3.0,0.0,-5.0,-12.0,-4.0
1701719234.152889,-2.0,0.0,-20.0,9.0,1.0,-4.0,-11.0,-7.0
1701719234.152889,-3.0,0.0,9.0,-18.0,-4.0,0.0,-2.0,4.0
1701719234.1725287,2.0,-1.0,6.0,8.0,1.0,-2.0,-12.0,-4.0
1701719234.1725287,1.0,-3.0,-2.0,-9.0,-5.0,-3.0,7.0,-1.0
1701719234.1826801,0.0,3.0,0.0,1.0,0.0,0.0,-5.0,-4.0
1701719234.1826801,1.0,2.0,-13.0,3.0,2.0,0.0,-1.0,2.0
1701719234.1826801,-1.0,1.0,-2.0,-2.0,-6.0,-4.0,1.0,-2.0
1701719234.1826801,-2.0,-2.0,10.0,4.0,5.0,-6.0,-25.0,-6.0
1701719234.202911,-2.0,-5.0,-1.0,-2.0,-7.0,3.0,20.0,3.0
1701719234.202911,-8.0,-7.0,-6.0,4.0,5.0,-3.0,-17.0,-3.0
1701719234.202911,-2.0,4.0,8.0,-2.0,-3.0,5.0,31.0,-5.0
1701719234.202911,7.0,6.0,7.0,-4.0,-2.0,3.0,5.0,11.0
1701719234.2128203,1.0,-4.0,11.0,5.0,0.0,-5.0,-8.0,-6.0
1701719234.2128203,-4.0,3.0,-2.0,-7.0,-6.0,-9.0,-9.0,0.0
1701719234.2325284,-4.0,-11.0,4.0,8.0,7.0,-5.0,-30.0,-11.0
1701719234.2325284,1.0,3.0,1.0,-11.0,-8.0,-4.0,19.0,7.0
1701719234.2427719,-2.0,1.0,16.0,4.0,0.0,-1.0,-4.0,-2.0
1701719234.2427719,-1.0,-4.0,-9.0,0.0,-2.0,1.0,1.0,-2.0
1701719234.2427719,2.0,2.0,-1.0,2.0,2.0,-3.0,-11.0,1.0
1701719234.2427719,-1.0,-3.0,-12.0,-4.0,-4.0,-2.0,15.0,-2.0
1701719234.2628646,0.0,-1.0,9.0,-1.0,-1.0,-4.0,-17.0,-3.0
1701719234.2628646,-8.0,-4.0,-18.0,-7.0,-8.0,-9.0,-26.0,-3.0
1701719234.2725303,8.0,2.0,-1.0,0.0,2.0,11.0,34.0,12.0
1701719234.2725303,1.0,-4.0,2.0,0.0,6.0,5.0,12.0,1.0
1701719234.2725303,-4.0,-1.0,-9.0,-3.0,-4.0,0.0,2.0,-8.0
1701719234.2725303,3.0,2.0,-7.0,3.0,4.0,6.0,16.0,11.0
1701719234.2825313,-3.0,-2.0,27.0,-2.0,-5.0,-9.0,-30.0,6.0
1701719234.2825313,0.0,-8.0,-46.0,-9.0,-6.0,-5.0,2.0,0.0
1701719234.302531,-5.0,2.0,2.0,-4.0,1.0,0.0,-8.0,-13.0
1701719234.302531,-3.0,-6.0,11.0,-1.0,-5.0,-6.0,-15.0,-5.0
1701719234.302531,3.0,2.0,19.0,7.0,-1.0,-5.0,-6.0,-4.0
1701719234.302531,-1.0,0.0,0.0,5.0,0.0,7.0,11.0,-1.0
1701719234.3275194,2.0,-1.0,-4.0,-7.0,0.0,-2.0,-13.0,4.0
1701719234.3275194,0.0,1.0,-5.0,-9.0,-6.0,-4.0,-5.0,-4.0
1701719234.334817,-1.0,-8.0,-5.0,6.0,0.0,6.0,21.0,2.0
1701719234.334817,-1.0,-5.0,13.0,3.0,3.0,-4.0,2.0,-5.0
1701719234.334817,-1.0,2.0,-28.0,0.0,2.0,-4.0,-10.0,0.0
1701719234.334817,0.0,-1.0,23.0,-6.0,-6.0,-2.0,0.0,0.0
1701719234.3449998,-2.0,7.0,-8.0,-1.0,-7.0,-5.0,-19.0,-4.0
1701719234.3449998,2.0,0.0,14.0,0.0,-1.0,0.0,-4.0,-4.0
1701719234.365238,3.0,0.0,-1.0,7.0,-1.0,-4.0,-1.0,3.0
1701719234.365238,-3.0,-4.0,-3.0,-3.0,-1.0,-4.0,5.0,-2.0
1701719234.365238,-6.0,-5.0,-21.0,-3.0,-6.0,-5.0,-23.0,-4.0
1701719234.365238,-2.0,2.0,8.0,-3.0,1.0,-3.0,-8.0,-6.0
1701719234.38524,-1.0,-1.0,7.0,-1.0,-7.0,7.0,22.0,6.0
1701719234.38524,1.0,9.0,3.0,4.0,6.0,-2.0,3.0,0.0
1701719234.3952377,-6.0,-9.0,-24.0,-13.0,2.0,-2.0,-4.0,-3.0
1701719234.3952377,-3.0,-4.0,3.0,1.0,-3.0,-3.0,-4.0,-2.0
1701719234.3952377,0.0,1.0,13.0,-15.0,-8.0,-1.0,-3.0,0.0
1701719234.3952377,-4.0,-10.0,-18.0,21.0,-1.0,0.0,0.0,-1.0
1701719234.405237,0.0,0.0,13.0,0.0,3.0,-2.0,3.0,-1.0
1701719234.405237,-5.0,5.0,-6.0,-2.0,-7.0,2.0,-2.0,0.0
1701719234.4252393,-2.0,-4.0,1.0,-4.0,-1.0,-3.0,-2.0,-1.0
1701719234.4252393,4.0,5.0,-6.0,-3.0,-3.0,4.0,6.0,-4.0
1701719234.4252393,-1.0,8.0,12.0,-18.0,-1.0,-6.0,-11.0,-1.0
1701719234.4252393,-3.0,-18.0,-16.0,7.0,2.0,4.0,1.0,2.0
1701719234.4552383,0.0,6.0,10.0,3.0,0.0,-2.0,6.0,0.0
1701719234.4552383,-1.0,-1.0,-22.0,11.0,13.0,2.0,2.0,-6.0
1701719234.4552383,-1.0,-2.0,2.0,-1.0,-6.0,0.0,5.0,4.0
1701719234.4552383,1.0,2.0,9.0,1.0,4.0,1.0,-2.0,-2.0
1701719234.4652407,-3.0,-1.0,-6.0,-1.0,-2.0,-2.0,-5.0,-7.0
1701719234.4652407,2.0,-2.0,2.0,-7.0,-5.0,-5.0,-6.0,-2.0
1701719234.4652407,-5.0,6.0,-5.0,3.0,1.0,4.0,12.0,-1.0
1701719234.4652407,2.0,0.0,-5.0,-8.0,-7.0,-6.0,3.0,-5.0
1701719234.4852393,-7.0,-7.0,-5.0,4.0,-1.0,-3.0,-6.0,-2.0
1701719234.4852393,-2.0,-1.0,-22.0,1.0,5.0,-2.0,17.0,5.0
1701719234.4852393,1.0,-4.0,1.0,-4.0,-2.0,2.0,-2.0,0.0
1701719234.4852393,0.0,7.0,-4.0,5.0,3.0,1.0,-19.0,-5.0
1701719234.50527,-2.0,-3.0,-4.0,-5.0,-1.0,-4.0,-4.0,-4.0
1701719234.50527,-1.0,0.0,14.0,0.0,-3.0,-6.0,3.0,4.0
1701719234.50527,-1.0,-2.0,3.0,2.0,5.0,-4.0,-24.0,-7.0
1701719234.50527,-1.0,4.0,12.0,-7.0,1.0,0.0,11.0,-1.0
1701719234.5156393,0.0,-6.0,-5.0,3.0,-4.0,-4.0,-6.0,3.0
1701719234.5156393,1.0,-3.0,13.0,3.0,-2.0,8.0,12.0,2.0
1701719234.5256135,-2.0,-1.0,-18.0,2.0,2.0,0.0,-4.0,-4.0
1701719234.5256135,-1.0,-2.0,7.0,-11.0,-4.0,-5.0,-12.0,-4.0
1701719234.5452385,-1.0,-2.0,-7.0,2.0,-1.0,2.0,2.0,2.0
1701719234.5452385,-1.0,8.0,15.0,-1.0,2.0,-3.0,-13.0,0.0
1701719234.5452385,-1.0,-2.0,-9.0,-15.0,-6.0,1.0,22.0,0.0
1701719234.5452385,-11.0,-20.0,0.0,13.0,1.0,-1.0,-9.0,-6.0
1701719234.5652373,5.0,-3.0,0.0,4.0,2.0,-3.0,-5.0,2.0
1701719234.5652373,-3.0,1.0,15.0,0.0,-2.0,-1.0,-3.0,-4.0
1701719234.5652373,3.0,6.0,0.0,11.0,2.0,-5.0,-3.0,0.0
1701719234.5652373,2.0,4.0,4.0,-21.0,-8.0,3.0,8.0,3.0
1701719234.5752716,-1.0,7.0,-4.0,-5.0,-7.0,-1.0,-4.0,-1.0
1701719234.5752716,-2.0,-14.0,10.0,6.0,11.0,4.0,2.0,-1.0
1701719234.5856307,1.0,-1.0,4.0,9.0,3.0,-2.0,1.0,-2.0
1701719234.5856307,0.0,1.0,-13.0,0.0,-2.0,-1.0,0.0,2.0
1701719234.6052406,-2.0,-4.0,3.0,-4.0,-1.0,1.0,0.0,-4.0
1701719234.6052406,0.0,8.0,-15.0,-19.0,-5.0,-4.0,-3.0,0.0
1701719234.6052406,-5.0,-8.0,2.0,8.0,-7.0,-3.0,-3.0,0.0
1701719234.6052406,-1.0,-6.0,-7.0,6.0,12.0,0.0,-5.0,0.0
1701719234.6252863,-1.0,6.0,1.0,-1.0,-1.0,-2.0,1.0,-5.0
1701719234.6252863,-3.0,-8.0,-4.0,2.0,-2.0,0.0,-10.0,-1.0
1701719234.6252863,0.0,-2.0,-20.0,-8.0,-3.0,-5.0,-8.0,0.0
1701719234.6252863,4.0,6.0,9.0,6.0,-1.0,1.0,13.0,0.0
1701719234.635543,1.0,-3.0,15.0,-2.0,0.0,8.0,13.0,0.0
1701719234.635543,-4.0,0.0,-13.0,3.0,-5.0,-8.0,-1.0,4.0
1701719234.6455,-5.0,-4.0,10.0,-3.0,-2.0,-2.0,-8.0,-3.0
1701719234.6455,-5.0,4.0,-12.0,-9.0,-5.0,-10.0,-30.0,-10.0
1701719234.6752439,-1.0,-1.0,-13.0,4.0,5.0,-7.0,-5.0,1.0
1701719234.6752439,3.0,-2.0,-19.0,-5.0,-1.0,13.0,12.0,1.0
1701719234.6752439,-2.0,5.0,37.0,11.0,0.0,2.0,9.0,-1.0
1701719234.6752439,-2.0,-6.0,-25.0,-7.0,0.0,1.0,9.0,-1.0
1701719234.68528,-5.0,3.0,7.0,13.0,7.0,-8.0,-29.0,-6.0
1701719234.68528,1.0,-8.0,-24.0,-24.0,-7.0,-4.0,-8.0,8.0
1701719234.68528,2.0,2.0,6.0,0.0,-2.0,-10.0,-2.0,-3.0
1701719234.68528,9.0,7.0,-4.0,-8.0,-5.0,12.0,32.0,5.0
1701719234.6956577,-12.0,-5.0,5.0,-1.0,6.0,-3.0,-8.0,8.0
1701719234.6956577,-2.0,5.0,8.0,8.0,0.0,1.0,-9.0,-7.0
1701719234.7054172,-6.0,-6.0,-35.0,-17.0,0.0,7.0,12.0,2.0
1701719234.7054172,2.0,-1.0,15.0,11.0,-3.0,-9.0,-8.0,1.0
1701719234.725237,4.0,-4.0,-18.0,-5.0,0.0,10.0,34.0,-3.0
1701719234.725237,-4.0,2.0,32.0,5.0,-1.0,-1.0,-3.0,-8.0
1701719234.725237,2.0,-1.0,-5.0,-1.0,1.0,-1.0,-12.0,8.0
1701719234.725237,-5.0,-3.0,-24.0,-5.0,-3.0,0.0,-8.0,-1.0
1701719234.7456887,-2.0,0.0,-1.0,-8.0,-3.0,-5.0,-11.0,0.0
1701719234.7456887,-1.0,-2.0,-1.0,5.0,1.0,1.0,13.0,-3.0
1701719234.7456887,1.0,-3.0,11.0,1.0,-3.0,-5.0,-3.0,-4.0
1701719234.7456887,-2.0,0.0,8.0,3.0,5.0,5.0,7.0,2.0
1701719234.7556446,2.0,-3.0,-16.0,-6.0,-5.0,0.0,1.0,-4.0
1701719234.7556446,3.0,3.0,13.0,4.0,2.0,2.0,-1.0,1.0
1701719234.7652407,-4.0,-5.0,6.0,-2.0,-3.0,-4.0,-8.0,-6.0
1701719234.7652407,-2.0,-2.0,-17.0,-12.0,-7.0,-6.0,-1.0,-1.0
1701719234.7852383,-1.0,-3.0,7.0,13.0,4.0,3.0,6.0,4.0
1701719234.7852383,1.0,0.0,3.0,-2.0,1.0,-3.0,-8.0,-5.0
1701719234.7852383,-3.0,0.0,-11.0,-4.0,-6.0,1.0,4.0,-1.0
1701719234.7852383,-2.0,0.0,5.0,-4.0,-1.0,1.0,-4.0,0.0
1701719234.815238,2.0,-1.0,4.0,5.0,11.0,-2.0,-6.0,0.0
1701719234.815238,-2.0,0.0,-25.0,-9.0,-5.0,1.0,9.0,0.0
1701719234.815238,0.0,-1.0,10.0,2.0,-1.0,-6.0,-14.0,-4.0
1701719234.815238,1.0,2.0,11.0,6.0,-1.0,4.0,16.0,5.0
1701719234.815238,0.0,0.0,-3.0,-6.0,-3.0,-3.0,-10.0,-4.0
1701719234.815238,1.0,-1.0,-5.0,0.0,-3.0,-7.0,-15.0,-2.0
1701719234.8256123,-4.0,-1.0,-7.0,-1.0,0.0,-6.0,-17.0,-1.0
1701719234.8256123,1.0,1.0,5.0,0.0,0.0,3.0,8.0,-8.0
1701719234.848292,2.0,3.0,19.0,4.0,-2.0,2.0,12.0,7.0
1701719234.848292,0.0,-4.0,-10.0,-5.0,-2.0,-2.0,-21.0,-7.0
1701719234.848292,-4.0,-3.0,11.0,-4.0,-4.0,-5.0,-1.0,-4.0
1701719234.848292,-2.0,-1.0,0.0,2.0,-2.0,-9.0,-22.0,2.0
1701719234.8683522,-1.0,-3.0,-13.0,-11.0,-3.0,1.0,4.0,-12.0
1701719234.8683522,0.0,3.0,17.0,5.0,-4.0,-5.0,0.0,6.0
1701719234.8683522,3.0,1.0,-24.0,-2.0,4.0,6.0,4.0,-1.0
1701719234.8683522,3.0,-3.0,10.0,1.0,4.0,3.0,-4.0,0.0
1701719234.8886642,0.0,3.0,-1.0,-2.0,-3.0,0.0,5.0,8.0
1701719234.8886642,-5.0,-10.0,-31.0,-8.0,-6.0,-6.0,-8.0,-6.0
1701719234.8886642,-4.0,4.0,22.0,4.0,5.0,5.0,5.0,3.0
1701719234.8886642,0.0,0.0,-9.0,-7.0,-7.0,-2.0,2.0,-4.0
1701719234.8983552,-3.0,-8.0,-7.0,-16.0,-13.0,-5.0,-20.0,-1.0
1701719234.8983552,4.0,13.0,13.0,13.0,18.0,3.0,18.0,4.0
1701719234.8983552,-1.0,-4.0,-7.0,8.0,8.0,2.0,-5.0,-2.0
1701719234.8983552,-5.0,-1.0,16.0,3.0,0.0,0.0,5.0,-1.0
1701719234.9187546,1.0,3.0,0.0,5.0,-2.0,0.0,-8.0,-2.0
1701719234.9187546,-6.0,-8.0,-7.0,-6.0,-9.0,-4.0,1.0,3.0
1701719234.928695,1.0,-6.0,-4.0,-6.0,-6.0,-1.0,-4.0,-4.0
1701719234.928695,-1.0,8.0,0.0,9.0,1.0,-1.0,3.0,-2.0
1701719234.9483557,-3.0,-2.0,8.0,-3.0,-4.0,-3.0,-3.0,8.0
1701719234.9483557,0.0,0.0,-28.0,-4.0,0.0,-1.0,2.0,-3.0
1701719234.9483557,0.0,-4.0,9.0,-5.0,-2.0,8.0,33.0,6.0
1701719234.9483557,-2.0,-4.0,9.0,14.0,0.0,0.0,0.0,-3.0
1701719234.958578,-3.0,2.0,-7.0,-20.0,0.0,-1.0,3.0,-3.0
1701719234.958578,-8.0,-4.0,6.0,-3.0,-1.0,-1.0,-4.0,-2.0
1701719234.958578,-2.0,1.0,0.0,-5.0,-4.0,-2.0,-7.0,0.0
1701719234.958578,0.0,4.0,11.0,14.0,0.0,-5.0,-11.0,-3.0
1701719234.9789426,1.0,-5.0,1.0,7.0,1.0,1.0,3.0,-4.0
1701719234.9886026,1.0,1.0,2.0,-5.0,0.0,1.0,0.0,0.0
1701719234.9886026,1.0,1.0,9.0,6.0,-1.0,-4.0,-1.0,-2.0
1701719234.9886026,-3.0,-8.0,-3.0,-9.0,-1.0,-1.0,-12.0,-4.0
1701719235.0285966,-7.0,-2.0,-9.0,4.0,4.0,0.0,-2.0,-2.0
1701719235.0285966,1.0,-1.0,7.0,-1.0,-3.0,2.0,12.0,0.0
1701719235.0285966,-3.0,3.0,-3.0,-2.0,-2.0,2.0,8.0,-3.0
1701719235.0285966,2.0,1.0,-4.0,-5.0,-5.0,-1.0,-2.0,9.0
1701719235.0285966,2.0,1.0,-9.0,-2.0,-6.0,-6.0,-6.0,-2.0
1701719235.0285966,0.0,0.0,-2.0,9.0,11.0,2.0,-15.0,-3.0
1701719235.0285966,1.0,-1.0,-5.0,-8.0,-1.0,2.0,15.0,1.0
1701719235.0285966,-3.0,-7.0,-16.0,-2.0,-3.0,-6.0,-12.0,-2.0
1701719235.0388095,0.0,-1.0,6.0,-4.0,-3.0,5.0,13.0,-1.0
1701719235.0388095,0.0,1.0,13.0,2.0,-7.0,3.0,12.0,0.0
1701719235.0486012,7.0,0.0,-12.0,1.0,-5.0,-9.0,-21.0,-4.0
1701719235.0486012,-7.0,4.0,-7.0,-5.0,3.0,0.0,-3.0,1.0
1701719235.0785964,-7.0,-2.0,10.0,3.0,-1.0,0.0,-4.0,-1.0
1701719235.0785964,1.0,-5.0,-9.0,-10.0,-6.0,-9.0,-14.0,-16.0
1701719235.0785964,2.0,2.0,0.0,-1.0,1.0,0.0,1.0,2.0
1701719235.0785964,1.0,0.0,-1.0,-4.0,-2.0,7.0,12.0,1.0
1701719235.0785964,1.0,4.0,5.0,12.0,4.0,-5.0,-10.0,1.0
1701719235.0785964,-5.0,4.0,-8.0,-4.0,0.0,0.0,10.0,6.0
1701719235.0886283,-2.0,-11.0,-17.0,-10.0,1.0,4.0,11.0,1.0
1701719235.0886283,-1.0,0.0,13.0,5.0,-4.0,-8.0,-9.0,-6.0
1701719235.0988996,0.0,-3.0,-11.0,1.0,-1.0,-2.0,-4.0,-4.0
1701719235.1086006,0.0,-2.0,6.0,3.0,2.0,5.0,-1.0,3.0
1701719235.118602,-2.0,0.0,0.0,-6.0,-1.0,-4.0,-16.0,-3.0
1701719235.118602,-4.0,1.0,4.0,-9.0,-2.0,-2.0,12.0,2.0
1701719235.1285942,8.0,-4.0,-4.0,5.0,-1.0,-3.0,-6.0,-5.0
1701719235.1285942,0.0,-5.0,-1.0,-5.0,-5.0,-2.0,-6.0,0.0
1701719235.1285942,1.0,6.0,-22.0,6.0,-5.0,-1.0,0.0,0.0
1701719235.1285942,-3.0,-11.0,6.0,-3.0,-2.0,-6.0,-4.0,-3.0
1701719235.1388555,-2.0,5.0,17.0,-4.0,2.0,0.0,2.0,-2.0
1701719235.1388555,-3.0,-4.0,-12.0,-2.0,1.0,-1.0,0.0,-6.0
1701719235.1488535,3.0,-2.0,0.0,-1.0,0.0,5.0,10.0,8.0
1701719235.1488535,-2.0,5.0,-4.0,-3.0,0.0,3.0,-8.0,-1.0
1701719235.1587565,1.0,-2.0,25.0,20.0,1.0,-4.0,-10.0,-1.0
1701719235.1686027,-7.0,0.0,-11.0,-8.0,-1.0,4.0,12.0,-2.0
1701719235.1686027,-4.0,-1.0,4.0,-5.0,-1.0,-8.0,-15.0,3.0
1701719235.1686027,10.0,1.0,-3.0,0.0,-1.0,0.0,5.0,2.0
1701719235.1889095,-6.0,-1.0,-24.0,-12.0,-4.0,-7.0,-10.0,-6.0
1701719235.1889095,3.0,0.0,12.0,7.0,-3.0,1.0,-9.0,7.0
1701719235.1889095,-2.0,2.0,27.0,12.0,2.0,-1.0,-7.0,-8.0
1701719235.1889095,-1.0,-8.0,-81.0,-25.0,-2.0,-3.0,0.0,1.0
1701719235.2085948,-3.0,8.0,16.0,-2.0,-5.0,3.0,23.0,1.0
1701719235.2085948,4.0,-16.0,-8.0,3.0,-4.0,-11.0,-19.0,-7.0
1701719235.2085948,-2.0,0.0,-6.0,-5.0,-3.0,2.0,14.0,-2.0
1701719235.2085948,-5.0,0.0,27.0,7.0,0.0,-1.0,-18.0,1.0
1701719235.218947,3.0,-3.0,-35.0,-11.0,0.0,4.0,7.0,-4.0
1701719235.218947,4.0,10.0,-13.0,-1.0,-1.0,0.0,4.0,5.0
1701719235.2286143,-3.0,2.0,18.0,2.0,0.0,-1.0,-3.0,-1.0
1701719235.2286143,-1.0,-4.0,23.0,13.0,-1.0,-6.0,-19.0,-2.0
1701719235.249024,-1.0,-3.0,-23.0,-15.0,-4.0,3.0,13.0,0.0
1701719235.249024,0.0,-1.0,10.0,1.0,-3.0,-1.0,4.0,-2.0
1701719235.249024,-1.0,-3.0,-26.0,-6.0,-3.0,-6.0,-26.0,-6.0
1701719235.249024,0.0,5.0,5.0,0.0,5.0,12.0,39.0,4.0
1701719235.2589364,-2.0,-3.0,24.0,2.0,-3.0,-6.0,-13.0,-3.0
1701719235.2589364,-3.0,-1.0,-9.0,-6.0,0.0,1.0,1.0,2.0
1701719235.2689023,-1.0,-2.0,-3.0,4.0,1.0,1.0,4.0,-1.0
1701719235.2689023,-3.0,0.0,7.0,-4.0,-2.0,-1.0,6.0,-4.0
1701719235.278765,0.0,-1.0,3.0,6.0,2.0,0.0,-6.0,2.0
1701719235.278765,1.0,3.0,11.0,-3.0,-1.0,-1.0,3.0,-2.0
1701719235.2885962,0.0,-2.0,-7.0,-2.0,-6.0,-7.0,-6.0,-2.0
1701719235.2885962,-3.0,-1.0,11.0,1.0,1.0,-4.0,-9.0,1.0
1701719235.3088775,-2.0,-4.0,1.0,-3.0,0.0,5.0,9.0,-2.0
1701719235.3088775,-2.0,0.0,-11.0,-5.0,-2.0,-4.0,-2.0,3.0
1701719235.3088775,-7.0,-4.0,21.0,2.0,0.0,-4.0,2.0,0.0
1701719235.3088775,-1.0,2.0,3.0,-1.0,0.0,-1.0,2.0,-2.0
1701719235.328628,1.0,-2.0,1.0,0.0,0.0,-1.0,-9.0,0.0
1701719235.3386037,-4.0,0.0,-4.0,-4.0,-4.0,-5.0,-6.0,-2.0
1701719235.3585937,1.0,0.0,6.0,6.0,-2.0,-2.0,-5.0,-4.0
1701719235.3585937,0.0,-1.0,8.0,0.0,-4.0,-11.0,-23.0,-4.0
1701719235.3585937,-6.0,-3.0,-29.0,-8.0,0.0,14.0,35.0,3.0
1701719235.3585937,6.0,0.0,6.0,6.0,1.0,2.0,1.0,-9.0
1701719235.3585937,1.0,-3.0,-5.0,-2.0,0.0,-3.0,1.0,6.0
1701719235.3585937,-2.0,-2.0,-6.0,-1.0,0.0,2.0,7.0,1.0
1701719235.3704536,2.0,2.0,8.0,3.0,-1.0,-3.0,-11.0,0.0
1701719235.3704536,-5.0,-1.0,-2.0,-6.0,0.0,0.0,0.0,-4.0
1701719235.3714473,2.0,1.0,4.0,2.0,-3.0,-2.0,-6.0,-3.0
1701719235.3714473,-1.0,-3.0,-9.0,-5.0,-1.0,-2.0,-16.0,-2.0
1701719235.3846643,-3.0,-3.0,-15.0,-7.0,-2.0,-5.0,-13.0,-4.0
1701719235.3846643,5.0,2.0,28.0,12.0,-1.0,8.0,22.0,6.0
1701719235.3962555,-10.0,-5.0,-19.0,-3.0,-1.0,-12.0,-32.0,-7.0
1701719235.397256,6.0,5.0,5.0,4.0,5.0,22.0,72.0,9.0
1701719235.4106493,-4.0,-3.0,-5.0,0.0,-2.0,-8.0,-9.0,0.0
1701719235.4106493,-1.0,0.0,-9.0,-6.0,-3.0,-4.0,-2.0,1.0
1701719235.4106493,3.0,2.0,5.0,-1.0,0.0,1.0,3.0,0.0
1701719235.4106493,-4.0,-4.0,-10.0,-2.0,-5.0,-7.0,-19.0,-3.0
1701719235.430655,-1.0,4.0,15.0,3.0,0.0,-6.0,-22.0,-4.0
1701719235.430655,-7.0,-6.0,-10.0,-2.0,3.0,2.0,3.0,-2.0
1701719235.430655,2.0,-4.0,-3.0,-3.0,3.0,15.0,24.0,5.0
1701719235.430655,0.0,0.0,14.0,2.0,1.0,2.0,-3.0,-1.0
1701719235.440953,0.0,0.0,-10.0,1.0,-1.0,-4.0,-1.0,1.0
1701719235.440953,-5.0,1.0,-2.0,-3.0,-5.0,-10.0,-21.0,-3.0
1701719235.4507272,0.0,1.0,-8.0,-4.0,0.0,0.0,5.0,-3.0
1701719235.4507272,-3.0,-2.0,-10.0,-6.0,-3.0,-6.0,-13.0,-3.0
1701719235.4707463,1.0,1.0,15.0,3.0,-2.0,-1.0,-1.0,1.0
1701719235.4707463,0.0,2.0,3.0,-1.0,-1.0,-1.0,-4.0,-1.0
1701719235.4707463,-2.0,-2.0,-15.0,-3.0,1.0,-5.0,-16.0,-3.0
1701719235.4707463,3.0,0.0,-5.0,-1.0,-1.0,7.0,37.0,2.0
1701719235.490747,-4.0,-5.0,9.0,1.0,0.0,-3.0,0.0,-1.0
1701719235.490747,1.0,1.0,1.0,-1.0,-3.0,0.0,0.0,-1.0
1701719235.490747,1.0,-1.0,6.0,-4.0,-2.0,0.0,-2.0,0.0
1701719235.490747,1.0,-3.0,1.0,0.0,-4.0,-9.0,-23.0,-8.0
1701719235.5007472,0.0,-4.0,-17.0,-6.0,3.0,3.0,5.0,0.0
1701719235.5007472,-3.0,-2.0,5.0,-1.0,-2.0,-3.0,1.0,-1.0
1701719235.5107784,-1.0,0.0,9.0,3.0,-2.0,0.0,2.0,-1.0
1701719235.5107784,-3.0,-2.0,-6.0,-1.0,-4.0,-6.0,-11.0,-2.0
1701719235.5211093,-1.0,3.0,22.0,-3.0,-1.0,4.0,5.0,-3.0
1701719235.5211093,-3.0,0.0,-14.0,-1.0,-1.0,-1.0,-5.0,-2.0
1701719235.5211093,0.0,-4.0,3.0,2.0,-1.0,0.0,0.0,-1.0
1701719235.5211093,1.0,3.0,-13.0,-3.0,-1.0,-3.0,0.0,-1.0
1701719235.5410938,-2.0,-4.0,12.0,1.0,-1.0,-2.0,-6.0,1.0
1701719235.5410938,0.0,1.0,11.0,0.0,-1.0,-5.0,-6.0,-1.0
1701719235.5507479,-2.0,0.0,-8.0,-4.0,-4.0,0.0,4.0,-3.0
1701719235.5507479,-2.0,0.0,5.0,2.0,3.0,3.0,-9.0,0.0
1701719235.560745,0.0,1.0,-7.0,1.0,2.0,-3.0,1.0,-3.0
1701719235.560745,3.0,1.0,16.0,3.0,-4.0,-2.0,-5.0,0.0
1701719235.5707777,-6.0,-1.0,-42.0,-10.0,1.0,7.0,23.0,4.0
1701719235.5707777,-3.0,-5.0,-11.0,1.0,-2.0,-3.0,7.0,-3.0
1701719235.5810413,5.0,-1.0,-16.0,-3.0,-3.0,-3.0,-7.0,2.0
1701719235.5810413,-8.0,-3.0,-9.0,-5.0,-2.0,-2.0,-2.0,-6.0
1701719235.5810413,-1.0,2.0,21.0,1.0,-2.0,-2.0,-7.0,5.0
1701719235.5810413,2.0,-2.0,-11.0,-2.0,-2.0,-2.0,-13.0,-3.0
1701719235.601161,3.0,1.0,-13.0,-2.0,0.0,2.0,0.0,0.0
1701719235.6107488,0.0,-1.0,32.0,2.0,-2.0,-3.0,-13.0,0.0
1701719235.6107488,0.0,-1.0,-8.0,-4.0,-2.0,-1.0,5.0,-1.0
1701719235.6107488,-3.0,-2.0,-23.0,-9.0,-2.0,2.0,-6.0,-2.0
1701719235.620746,-3.0,-3.0,5.0,4.0,-1.0,1.0,2.0,-1.0
1701719235.620746,0.0,0.0,7.0,4.0,2.0,1.0,-8.0,-5.0
1701719235.6307774,-1.0,0.0,20.0,5.0,-1.0,-4.0,-3.0,2.0
1701719235.6307774,-1.0,-2.0,17.0,0.0,-1.0,-5.0,-4.0,-1.0
1701719235.6411195,-1.0,2.0,-7.0,-8.0,-4.0,5.0,6.0,1.0
1701719235.6411195,-3.0,-2.0,-27.0,-3.0,1.0,-2.0,4.0,0.0
1701719235.6411195,3.0,2.0,-6.0,-4.0,-2.0,-5.0,-12.0,-7.0
1701719235.6411195,-1.0,1.0,13.0,1.0,1.0,-4.0,-1.0,2.0
1701719235.6608026,-1.0,3.0,1.0,4.0,0.0,1.0,-5.0,-4.0
1701719235.6608026,5.0,-4.0,-3.0,-3.0,0.0,2.0,9.0,8.0
1701719235.6707442,0.0,-7.0,-15.0,-3.0,-4.0,-2.0,2.0,-4.0
1701719235.6707442,-6.0,0.0,-4.0,-2.0,-3.0,-6.0,-18.0,-2.0
1701719235.6810548,5.0,-2.0,-9.0,-4.0,-3.0,-7.0,-12.0,-1.0
1701719235.6810548,-1.0,3.0,13.0,4.0,2.0,5.0,16.0,-4.0
1701719235.7007446,0.0,-1.0,5.0,-2.0,-2.0,-4.0,-6.0,0.0
1701719235.7007446,0.0,-2.0,7.0,5.0,3.0,3.0,3.0,0.0
1701719235.7007446,-2.0,0.0,-12.0,-4.0,0.0,1.0,11.0,-1.0
1701719235.7007446,-1.0,-5.0,-21.0,-6.0,-5.0,-5.0,-7.0,0.0
1701719235.7007446,0.0,-4.0,1.0,1.0,-1.0,-1.0,-12.0,-4.0
1701719235.7007446,-3.0,1.0,-2.0,-2.0,0.0,9.0,22.0,-5.0
1701719235.7307463,0.0,1.0,19.0,4.0,-3.0,-7.0,6.0,7.0
1701719235.7307463,-2.0,-2.0,-12.0,-3.0,1.0,3.0,0.0,-2.0
1701719235.7307463,-6.0,-5.0,-6.0,-5.0,-1.0,-3.0,-17.0,-8.0
1701719235.7307463,4.0,1.0,4.0,0.0,-4.0,-10.0,-14.0,-4.0
1701719235.7409632,-4.0,0.0,16.0,3.0,-1.0,0.0,-9.0,2.0
1701719235.7409632,2.0,-5.0,-42.0,-9.0,-3.0,-3.0,-5.0,-7.0
1701719235.750996,2.0,2.0,11.0,6.0,1.0,5.0,0.0,1.0
1701719235.750996,-2.0,-5.0,3.0,-3.0,-1.0,4.0,21.0,-2.0
1701719235.761018,-4.0,-1.0,-13.0,1.0,-1.0,-4.0,-7.0,-4.0
1701719235.761018,1.0,5.0,21.0,2.0,-4.0,-8.0,-6.0,-1.0
1701719235.761018,-6.0,-7.0,-8.0,-3.0,2.0,2.0,7.0,-1.0
1701719235.761018,4.0,-1.0,6.0,2.0,-1.0,-2.0,-18.0,-2.0
1701719235.8007457,-7.0,-2.0,-3.0,-2.0,-1.0,6.0,30.0,1.0
1701719235.8007457,10.0,7.0,-10.0,-5.0,-1.0,1.0,-1.0,1.0
1701719235.8007457,-5.0,-1.0,-10.0,4.0,-2.0,-3.0,1.0,-8.0
1701719235.8007457,-4.0,-2.0,22.0,1.0,0.0,1.0,12.0,14.0
1701719235.8107781,3.0,-3.0,-22.0,-8.0,-3.0,-5.0,-3.0,-5.0
1701719235.8107781,-5.0,-4.0,36.0,3.0,1.0,4.0,14.0,2.0
1701719235.8107781,1.0,2.0,-19.0,-3.0,-3.0,-2.0,0.0,-4.0
1701719235.8107781,0.0,-2.0,-18.0,-2.0,0.0,-2.0,0.0,6.0
1701719235.8211036,-3.0,-1.0,-5.0,-6.0,0.0,-1.0,-18.0,-6.0
1701719235.8211036,0.0,-1.0,27.0,12.0,1.0,1.0,14.0,4.0
1701719235.8211036,0.0,1.0,6.0,-4.0,-4.0,-4.0,0.0,-2.0
1701719235.8211036,-2.0,-4.0,4.0,-3.0,-3.0,-4.0,12.0,8.0
1701719235.8407447,1.0,2.0,-7.0,-1.0,0.0,-2.0,-9.0,-4.0
1701719235.8407447,-3.0,-5.0,19.0,3.0,1.0,3.0,-7.0,0.0
1701719235.850743,-1.0,6.0,-26.0,-5.0,0.0,3.0,15.0,1.0
1701719235.850743,-2.0,-5.0,7.0,-3.0,-2.0,-2.0,0.0,-3.0
1701719235.8710809,-3.0,-7.0,7.0,-1.0,-5.0,-4.0,-4.0,0.0
1701719235.8710809,4.0,11.0,-7.0,-3.0,-6.0,-3.0,-2.0,-3.0
1701719235.8710809,-4.0,-11.0,-8.0,8.0,8.0,4.0,-3.0,-2.0
1701719235.8710809,2.0,5.0,-6.0,-1.0,1.0,-5.0,-11.0,-3.0
1701719235.881116,2.0,0.0,-16.0,-2.0,3.0,4.0,15.0,-1.0
1701719235.881116,0.0,-2.0,10.0,-7.0,-4.0,-4.0,-9.0,-1.0
1701719235.881116,0.0,3.0,4.0,0.0,-4.0,-10.0,-31.0,3.0
1701719235.881116,-1.0,2.0,-13.0,0.0,-4.0,15.0,45.0,0.0
1701719235.912889,-1.0,-6.0,15.0,4.0,0.0,2.0,-2.0,-3.0
1701719235.912889,-4.0,-4.0,-22.0,-6.0,2.0,-7.0,-12.0,-4.0
1701719235.912889,1.0,5.0,16.0,-5.0,-3.0,-6.0,-4.0,0.0
1701719235.912889,0.0,-3.0,-11.0,1.0,0.0,-1.0,-38.0,-5.0
1701719235.931919,-3.0,2.0,2.0,-3.0,-3.0,3.0,26.0,1.0
1701719235.931919,-6.0,-3.0,0.0,0.0,-2.0,-4.0,-4.0,-2.0
1701719235.9336934,-1.0,-4.0,7.0,0.0,0.0,0.0,5.0,-4.0
1701719235.9336934,0.0,-1.0,-10.0,-2.0,-2.0,-6.0,-18.0,-3.0
1701719235.9437354,0.0,2.0,0.0,-9.0,0.0,6.0,-1.0,-1.0
1701719235.9437354,1.0,-2.0,-9.0,2.0,2.0,-1.0,8.0,0.0
1701719235.9536955,-6.0,-4.0,21.0,-1.0,-1.0,1.0,9.0,2.0
1701719235.9536955,-1.0,-1.0,5.0,1.0,-1.0,-1.0,-1.0,-5.0
1701719235.9640613,-5.0,-3.0,-6.0,1.0,-3.0,-10.0,-21.0,-7.0
1701719235.9640613,3.0,3.0,14.0,1.0,-1.0,5.0,12.0,1.0
1701719235.9640613,13.0,7.0,7.0,-6.0,-1.0,3.0,22.0,4.0
1701719235.9640613,-2.0,-8.0,2.0,-1.0,3.0,-2.0,-6.0,-3.0
1701719235.9841301,5.0,3.0,-7.0,18.0,6.0,-2.0,-5.0,0.0
1701719235.9841301,-8.0,-1.0,7.0,-11.0,-2.0,-3.0,-9.0,-3.0
1701719235.9936953,2.0,0.0,-13.0,-7.0,-5.0,-1.0,3.0,1.0
1701719235.9936953,-1.0,0.0,-7.0,6.0,-1.0,-5.0,-9.0,-4.0
1701719236.003697,-2.0,-1.0,7.0,-14.0,-17.0,-6.0,-4.0,0.0
1701719236.003697,-2.0,-5.0,-31.0,-5.0,-12.0,1.0,-2.0,-2.0
1701719236.0136945,-4.0,-1.0,4.0,4.0,18.0,1.0,-7.0,2.0
1701719236.0136945,0.0,2.0,12.0,3.0,-4.0,-3.0,1.0,-3.0
1701719236.024061,-1.0,8.0,-8.0,-6.0,2.0,-1.0,-3.0,1.0
1701719236.024061,-4.0,-7.0,-2.0,-1.0,-9.0,0.0,-1.0,-1.0
1701719236.024061,-1.0,-4.0,-3.0,-3.0,-4.0,-5.0,-4.0,-1.0
1701719236.024061,-5.0,-2.0,-5.0,-1.0,1.0,-4.0,-13.0,-5.0
1701719236.053697,6.0,8.0,10.0,3.0,-1.0,1.0,1.0,2.0
1701719236.053697,-6.0,-16.0,-18.0,-3.0,5.0,4.0,7.0,3.0
1701719236.053697,2.0,9.0,3.0,-2.0,-6.0,0.0,-1.0,-1.0
1701719236.053697,-2.0,-11.0,1.0,3.0,8.0,1.0,-2.0,-2.0
1701719236.0637367,-3.0,-9.0,6.0,3.0,-3.0,-3.0,-8.0,-1.0
1701719236.0637367,1.0,2.0,0.0,-9.0,-5.0,0.0,7.0,-3.0
1701719236.0736964,-2.0,-8.0,3.0,11.0,11.0,1.0,0.0,-1.0
1701719236.0736964,-5.0,7.0,6.0,-11.0,-4.0,1.0,-1.0,-2.0
1701719236.0839179,-3.0,-6.0,-20.0,3.0,-4.0,-3.0,-3.0,-2.0
1701719236.0839179,-1.0,5.0,0.0,9.0,9.0,-2.0,-7.0,-1.0
1701719236.0839179,-4.0,-15.0,0.0,-3.0,-12.0,-1.0,2.0,-1.0
1701719236.0839179,4.0,5.0,3.0,-5.0,-2.0,-4.0,0.0,1.0
1701719236.1040401,-4.0,-5.0,6.0,-2.0,5.0,1.0,1.0,-1.0
1701719236.113702,1.0,5.0,-5.0,-3.0,-1.0,-9.0,-16.0,-4.0
1701719236.113702,-3.0,4.0,4.0,-2.0,-4.0,-1.0,1.0,-3.0
1701719236.113702,0.0,-1.0,-13.0,-3.0,-1.0,4.0,-3.0,1.0
1701719236.1237307,0.0,-4.0,16.0,2.0,4.0,1.0,-5.0,-5.0
1701719236.1237307,-4.0,-1.0,-6.0,0.0,-5.0,-11.0,-8.0,-2.0
1701719236.1536925,-1.0,2.0,15.0,6.0,1.0,13.0,9.0,5.0
1701719236.1536925,1.0,0.0,-8.0,-3.0,-3.0,1.0,6.0,3.0
1701719236.1536925,1.0,-2.0,-7.0,-6.0,-7.0,-5.0,0.0,-1.0
1701719236.1536925,-11.0,-3.0,9.0,-3.0,4.0,0.0,-8.0,-5.0
1701719236.1536925,11.0,2.0,3.0,10.0,4.0,-5.0,-17.0,-5.0
1701719236.1536925,-1.0,3.0,-24.0,-10.0,-4.0,-3.0,4.0,-3.0
1701719236.1639698,-3.0,-9.0,-9.0,-16.0,-1.0,-4.0,-15.0,2.0
1701719236.1639698,3.0,4.0,22.0,9.0,2.0,4.0,10.0,3.0
1701719236.1836956,-3.0,-3.0,5.0,-2.0,-6.0,-3.0,10.0,-2.0
1701719236.1836956,-3.0,5.0,-3.0,3.0,-1.0,-5.0,-4.0,-6.0
1701719236.1936927,3.0,1.0,12.0,-2.0,2.0,4.0,21.0,4.0
1701719236.1936927,2.0,-8.0,1.0,-1.0,1.0,-8.0,-18.0,-2.0
1701719236.1936927,-4.0,7.0,1.0,-5.0,-6.0,3.0,0.0,-2.0
1701719236.1936927,2.0,-1.0,11.0,6.0,1.0,-5.0,-11.0,-4.0
1701719236.2040906,-3.0,2.0,1.0,-1.0,-1.0,1.0,-2.0,-3.0
1701719236.2040906,2.0,-1.0,-4.0,-6.0,-3.0,4.0,3.0,-1.0
1701719236.2040906,-2.0,9.0,25.0,2.0,-2.0,-4.0,0.0,1.0
1701719236.2040906,-8.0,-24.0,-37.0,-1.0,-1.0,-7.0,-7.0,-7.0
1701719236.2240198,1.0,-3.0,-2.0,-2.0,-2.0,-1.0,-4.0,8.0
1701719236.2240198,2.0,6.0,0.0,11.0,0.0,5.0,7.0,3.0
1701719236.233695,6.0,-1.0,-23.0,-32.0,-6.0,-1.0,0.0,-2.0
1701719236.233695,-3.0,-5.0,20.0,14.0,-2.0,0.0,-4.0,1.0
1701719236.243694,-2.0,7.0,-5.0,-2.0,-1.0,-1.0,3.0,-2.0
1701719236.243694,2.0,2.0,-18.0,1.0,1.0,-3.0,-7.0,-3.0
1701719236.2537637,-5.0,0.0,8.0,6.0,-3.0,-6.0,7.0,0.0
1701719236.2537637,3.0,-3.0,-20.0,-18.0,-9.0,2.0,5.0,-2.0
1701719236.2638745,0.0,-4.0,-18.0,3.0,8.0,3.0,-1.0,0.0
1701719236.2638745,0.0,13.0,15.0,-2.0,-7.0,-6.0,-7.0,-5.0
1701719236.2638745,-1.0,-27.0,-10.0,3.0,1.0,-2.0,5.0,7.0
1701719236.2638745,0.0,5.0,12.0,-7.0,-1.0,1.0,-6.0,-5.0
1701719236.2840765,-3.0,-5.0,1.0,2.0,0.0,-4.0,-1.0,0.0
1701719236.2840765,-2.0,-1.0,-30.0,-12.0,-2.0,-3.0,-11.0,-11.0
1701719236.303698,0.0,0.0,6.0,11.0,4.0,2.0,9.0,2.0
1701719236.303698,1.0,4.0,-10.0,-9.0,-7.0,2.0,19.0,0.0
1701719236.303698,-4.0,-8.0,-4.0,-2.0,-3.0,-6.0,-9.0,-2.0
1701719236.303698,-1.0,-2.0,6.0,-6.0,2.0,5.0,-5.0,-4.0
1701719236.313721,-1.0,3.0,-14.0,15.0,9.0,-1.0,-13.0,-4.0
1701719236.313721,-1.0,-1.0,3.0,-4.0,-1.0,-2.0,-12.0,3.0
1701719236.3241446,-4.0,3.0,6.0,4.0,-5.0,-3.0,21.0,2.0
1701719236.3241446,0.0,-6.0,3.0,5.0,3.0,4.0,16.0,4.0
1701719236.3241446,-3.0,-6.0,-3.0,-10.0,-7.0,-5.0,-16.0,-4.0
1701719236.3241446,3.0,15.0,15.0,5.0,4.0,2.0,0.0,-2.0
1701719236.3440695,-11.0,-12.0,-23.0,-5.0,-6.0,3.0,13.0,0.0
1701719236.3536952,0.0,-9.0,-2.0,3.0,4.0,1.0,13.0,7.0
1701719236.3536952,-1.0,9.0,-25.0,-10.0,0.0,-5.0,-10.0,-2.0
1701719236.3536952,1.0,4.0,39.0,13.0,2.0,4.0,24.0,5.0
1701719236.3637278,-3.0,-18.0,-13.0,-11.0,-6.0,1.0,-14.0,-8.0
1701719236.3637278,1.0,1.0,1.0,9.0,3.0,-1.0,3.0,1.0
1701719236.3741403,0.0,13.0,-3.0,0.0,-3.0,-4.0,-12.0,-2.0
1701719236.3741403,0.0,-19.0,-1.0,-5.0,-8.0,-7.0,-11.0,-1.0
1701719236.3840692,2.0,9.0,19.0,8.0,2.0,-2.0,-8.0,-3.0
1701719236.3840692,0.0,9.0,-1.0,4.0,2.0,1.0,-2.0,0.0
1701719236.3840692,1.0,-19.0,-31.0,-10.0,2.0,-1.0,4.0,0.0
1701719236.3840692,-6.0,5.0,4.0,-4.0,0.0,0.0,-6.0,-1.0
1701719236.4036944,6.0,7.0,28.0,2.0,-12.0,0.0,-1.0,-1.0
1701719236.4036944,-7.0,-3.0,-7.0,7.0,11.0,-2.0,-1.0,2.0
1701719236.4136949,-4.0,-9.0,5.0,-13.0,-11.0,-3.0,0.0,-5.0
1701719236.4136949,-3.0,-5.0,-15.0,2.0,-2.0,-1.0,6.0,0.0
1701719236.4349082,-2.0,2.0,-7.0,0.0,4.0,-2.0,-33.0,-6.0
1701719236.4349082,2.0,4.0,4.0,-2.0,-4.0,4.0,35.0,5.0
1701719236.4349082,-2.0,3.0,-3.0,-2.0,-1.0,4.0,4.0,-1.0
1701719236.4349082,2.0,-5.0,2.0,-6.0,-6.0,-11.0,-7.0,3.0
1701719236.4498014,1.0,6.0,3.0,1.0,2.0,5.0,2.0,-3.0
1701719236.4498014,-3.0,-7.0,-2.0,-6.0,-4.0,-5.0,-24.0,-4.0
1701719236.4498014,-4.0,-1.0,3.0,6.0,-3.0,0.0,-3.0,-3.0
1701719236.4498014,-1.0,1.0,9.0,-1.0,6.0,1.0,-4.0,-3.0
1701719236.4662418,7.0,5.0,-10.0,0.0,0.0,-7.0,2.0,3.0
1701719236.4662418,-7.0,-5.0,6.0,-8.0,-6.0,-5.0,-26.0,-6.0
1701719236.4662418,5.0,-2.0,-5.0,3.0,-2.0,-1.0,27.0,3.0
1701719236.4662418,-1.0,8.0,25.0,16.0,6.0,-5.0,-51.0,-10.0
1701719236.4870207,-1.0,-1.0,-27.0,-16.0,2.0,12.0,26.0,12.0
1701719236.4870207,-1.0,-8.0,-2.0,-7.0,-6.0,-8.0,-10.0,-5.0
1701719236.4870207,-3.0,8.0,30.0,7.0,-1.0,-4.0,-8.0,-3.0
1701719236.4870207,-4.0,-3.0,-19.0,2.0,1.0,-1.0,0.0,7.0
1701719236.5070264,0.0,1.0,15.0,6.0,4.0,10.0,19.0,-2.0
1701719236.5070264,5.0,11.0,3.0,-14.0,-3.0,1.0,-5.0,-2.0
1701719236.5070264,-2.0,-8.0,-14.0,-7.0,-3.0,2.0,8.0,-1.0
1701719236.5070264,-4.0,-6.0,-18.0,-8.0,-5.0,-5.0,-1.0,-7.0
1701719236.5266352,0.0,-3.0,5.0,0.0,2.0,-1.0,8.0,2.0
1701719236.5266352,-1.0,2.0,-2.0,5.0,-1.0,0.0,3.0,2.0
1701719236.5266352,3.0,7.0,16.0,6.0,-1.0,-3.0,-11.0,-2.0
1701719236.5266352,-1.0,-15.0,-1.0,0.0,-5.0,4.0,7.0,0.0
1701719236.5470474,-6.0,6.0,-4.0,-1.0,0.0,-4.0,-15.0,-3.0
1701719236.5470474,-4.0,-16.0,4.0,2.0,-3.0,2.0,8.0,-3.0
1701719236.5470474,-2.0,6.0,5.0,-7.0,0.0,-1.0,-14.0,2.0
1701719236.5470474,0.0,0.0,-24.0,2.0,1.0,2.0,15.0,2.0
1701719236.5666375,-2.0,-2.0,8.0,5.0,1.0,-3.0,-10.0,-4.0
1701719236.5666375,2.0,3.0,15.0,3.0,0.0,-2.0,4.0,-2.0
1701719236.5666375,-3.0,5.0,10.0,-2.0,-2.0,2.0,-1.0,-2.0
1701719236.5666375,-2.0,-12.0,-21.0,-15.0,-15.0,-4.0,3.0,0.0
1701719236.5870924,-3.0,-1.0,-8.0,22.0,0.0,-7.0,-2.0,-3.0
1701719236.5870924,-1.0,3.0,-2.0,-13.0,2.0,3.0,-3.0,-4.0
1701719236.5870924,1.0,-14.0,-17.0,-10.0,0.0,-3.0,7.0,14.0
1701719236.5870924,1.0,9.0,6.0,-11.0,-2.0,11.0,14.0,2.0
1701719236.6068835,0.0,-4.0,8.0,-4.0,-10.0,-14.0,-64.0,-15.0
1701719236.6068835,-1.0,-5.0,-8.0,8.0,-3.0,13.0,52.0,5.0
1701719236.6068835,-3.0,5.0,-1.0,7.0,3.0,1.0,4.0,-2.0
1701719236.6068835,2.0,4.0,6.0,-5.0,-2.0,-4.0,0.0,1.0
1701719236.6269598,-1.0,-4.0,-1.0,-6.0,-5.0,-5.0,-7.0,-1.0
1701719236.6269598,-3.0,-2.0,-15.0,3.0,2.0,-2.0,-15.0,-3.0
1701719236.6269598,-2.0,-6.0,7.0,-2.0,-1.0,-4.0,-14.0,-4.0
1701719236.6269598,5.0,5.0,21.0,11.0,9.0,7.0,25.0,9.0
1701719236.6466694,-7.0,-1.0,3.0,6.0,1.0,0.0,-3.0,-8.0
1701719236.6466694,-1.0,-1.0,-10.0,-13.0,-5.0,-8.0,-15.0,4.0
1701719236.6466694,-2.0,-4.0,1.0,3.0,-7.0,0.0,1.0,-6.0
1701719236.6466694,-10.0,0.0,9.0,1.0,2.0,5.0,-1.0,-4.0
1701719236.6670578,7.0,-2.0,10.0,-11.0,1.0,3.0,9.0,2.0
1701719236.6670578,-2.0,-2.0,1.0,3.0,-4.0,-6.0,29.0,6.0
1701719236.6670578,-2.0,1.0,5.0,7.0,2.0,0.0,-14.0,-10.0
1701719236.6670578,1.0,0.0,-2.0,-9.0,-2.0,-5.0,7.0,13.0
1701719236.6866376,-2.0,-3.0,6.0,0.0,3.0,2.0,2.0,-2.0
1701719236.6866376,-3.0,-3.0,13.0,-1.0,-4.0,-2.0,-21.0,-4.0
1701719236.6866376,0.0,-3.0,-30.0,-10.0,0.0,-3.0,-10.0,-4.0
1701719236.6866376,2.0,1.0,6.0,9.0,-2.0,-7.0,-12.0,-5.0
1701719236.7169132,1.0,-3.0,-25.0,-15.0,-5.0,-5.0,10.0,4.0
1701719236.7169132,4.0,-2.0,-17.0,-1.0,-4.0,1.0,-4.0,-1.0
1701719236.7169132,-2.0,-1.0,6.0,2.0,8.0,-6.0,-13.0,-3.0
1701719236.7169132,-5.0,-1.0,6.0,-2.0,3.0,8.0,19.0,-6.0
1701719236.726955,3.0,-2.0,-6.0,-1.0,-4.0,-7.0,0.0,1.0
1701719236.726955,-8.0,-2.0,3.0,3.0,1.0,-3.0,-13.0,-3.0
1701719236.726955,1.0,16.0,14.0,13.0,-1.0,9.0,23.0,1.0
1701719236.726955,-2.0,-13.0,-8.0,-6.0,1.0,0.0,-29.0,-10.0
1701719236.7466364,-7.0,4.0,-1.0,1.0,-2.0,0.0,22.0,4.0
1701719236.7466364,11.0,-6.0,-11.0,-6.0,-3.0,-6.0,-5.0,0.0
1701719236.7466364,-1.0,-3.0,-1.0,-4.0,-4.0,-5.0,-7.0,-2.0
1701719236.7466364,0.0,5.0,-9.0,3.0,1.0,-6.0,-26.0,-10.0
1701719236.7670798,1.0,0.0,-2.0,-8.0,-3.0,9.0,36.0,10.0
1701719236.7670798,-3.0,-3.0,-14.0,-5.0,0.0,-2.0,-11.0,-2.0
1701719236.7670798,-2.0,-1.0,17.0,2.0,-1.0,0.0,4.0,0.0
1701719236.7670798,2.0,4.0,12.0,-3.0,-3.0,-7.0,-20.0,-5.0
1701719236.7868845,-2.0,-2.0,13.0,5.0,-2.0,-4.0,4.0,-9.0
1701719236.7868845,-4.0,-3.0,12.0,-5.0,-1.0,-1.0,2.0,1.0
1701719236.7868845,3.0,-6.0,-26.0,-3.0,4.0,15.0,15.0,8.0
1701719236.7868845,-2.0,4.0,9.0,4.0,-1.0,-3.0,11.0,-3.0
1701719236.8066356,-1.0,4.0,4.0,2.0,2.0,-4.0,-29.0,3.0
1701719236.8066356,-2.0,0.0,8.0,-2.0,-1.0,-7.0,-2.0,-5.0
1701719236.8066356,-3.0,0.0,-14.0,-9.0,-4.0,-4.0,-5.0,-2.0
1701719236.8066356,4.0,0.0,18.0,3.0,-2.0,-7.0,-20.0,-5.0
1701719236.8269777,-1.0,-10.0,-22.0,-4.0,-1.0,6.0,-1.0,-3.0
1701719236.8269777,-6.0,2.0,-13.0,3.0,0.0,1.0,3.0,-5.0
1701719236.8269777,10.0,-2.0,-18.0,-5.0,-2.0,0.0,5.0,5.0
1701719236.8269777,-3.0,-1.0,18.0,0.0,1.0,5.0,24.0,2.0
1701719236.8666396,-2.0,0.0,-1.0,-3.0,-3.0,1.0,-12.0,-3.0
1701719236.8666396,-1.0,-2.0,10.0,2.0,0.0,4.0,25.0,3.0
1701719236.8666396,-4.0,-5.0,-13.0,-8.0,-7.0,-10.0,-22.0,-11.0
1701719236.8666396,-1.0,-1.0,-27.0,2.0,4.0,9.0,11.0,6.0
1701719236.8666396,-1.0,3.0,13.0,0.0,2.0,-3.0,-8.0,-4.0
1701719236.8666396,3.0,-1.0,-9.0,0.0,-1.0,-1.0,-10.0,7.0
1701719236.8666396,-3.0,-5.0,4.0,-3.0,-8.0,-8.0,-8.0,-3.0
1701719236.8666396,3.0,0.0,-9.0,0.0,2.0,4.0,4.0,1.0
1701719236.8869421,-7.0,-2.0,0.0,-1.0,0.0,-6.0,-3.0,-6.0
1701719236.8869421,-1.0,-1.0,-15.0,5.0,-1.0,1.0,-9.0,-2.0
1701719236.8869421,0.0,1.0,0.0,-8.0,-1.0,3.0,22.0,5.0
1701719236.8869421,-3.0,-1.0,-4.0,-5.0,-6.0,-9.0,-20.0,-1.0
1701719236.9266396,-4.0,-1.0,11.0,3.0,3.0,7.0,25.0,3.0
1701719236.9266396,6.0,-1.0,-23.0,-3.0,2.0,-5.0,-29.0,-9.0
1701719236.9266396,-3.0,0.0,4.0,3.0,4.0,17.0,46.0,2.0
1701719236.9266396,4.0,-1.0,-6.0,-4.0,-4.0,-8.0,-9.0,1.0
1701719236.9266396,1.0,8.0,15.0,-4.0,-2.0,-2.0,-8.0,-2.0
1701719236.9266396,-6.0,-5.0,-4.0,-6.0,-4.0,-5.0,-10.0,-2.0
1701719236.9266396,-3.0,-7.0,-11.0,8.0,2.0,-3.0,-15.0,-2.0
1701719236.9266396,0.0,0.0,-11.0,-7.0,-3.0,-2.0,8.0,1.0
1701719236.97464,3.0,-2.0,0.0,4.0,-2.0,-5.0,-5.0,1.0
1701719236.9756396,-3.0,-1.0,23.0,5.0,5.0,9.0,12.0,-6.0
1701719236.9796352,-1.0,-1.0,-37.0,-8.0,1.0,-5.0,-14.0,6.0
1701719236.9796352,-6.0,3.0,-7.0,-2.0,-3.0,-2.0,5.0,-2.0
1701719236.980635,-1.0,-3.0,-7.0,-4.0,-6.0,-7.0,-20.0,-3.0
1701719236.980635,0.0,2.0,13.0,-3.0,-3.0,1.0,-31.0,-17.0
1701719236.980635,-2.0,0.0,19.0,3.0,-1.0,1.0,7.0,-1.0
1701719236.980635,2.0,0.0,-12.0,-4.0,1.0,-4.0,-5.0,-7.0
1701719236.9990892,-8.0,-12.0,-8.0,1.0,4.0,7.0,6.0,-2.0
1701719236.9990892,1.0,6.0,1.0,-3.0,-3.0,-8.0,3.0,2.0
1701719236.9990892,-2.0,-7.0,21.0,3.0,0.0,1.0,-9.0,-5.0
1701719236.9990892,-3.0,0.0,-20.0,1.0,0.0,1.0,-6.0,1.0
1701719237.0092597,0.0,0.0,-2.0,-6.0,-4.0,-4.0,-4.0,0.0
1701719237.0092597,2.0,-3.0,3.0,1.0,0.0,0.0,15.0,2.0
1701719237.0092597,-4.0,4.0,5.0,-2.0,-5.0,-4.0,-8.0,1.0
1701719237.0092597,-2.0,-3.0,-7.0,-6.0,-2.0,-1.0,6.0,1.0
1701719237.0294566,1.0,-6.0,-22.0,3.0,3.0,-1.0,-6.0,-1.0
1701719237.0294566,-2.0,2.0,1.0,12.0,2.0,3.0,8.0,3.0
1701719237.0294566,0.0,0.0,7.0,-7.0,-3.0,-2.0,-4.0,-6.0
1701719237.0294566,0.0,2.0,6.0,2.0,0.0,-1.0,-5.0,-4.0
1701719237.0494692,-8.0,-1.0,-6.0,-4.0,-2.0,-5.0,0.0,10.0
1701719237.0494692,0.0,-3.0,20.0,-2.0,-2.0,1.0,10.0,3.0
1701719237.0494692,1.0,-7.0,-21.0,-1.0,5.0,4.0,7.0,0.0
1701719237.0494692,-3.0,1.0,2.0,2.0,2.0,4.0,6.0,0.0
1701719237.0694692,2.0,6.0,16.0,-4.0,-4.0,-10.0,-21.0,-9.0
1701719237.0694692,0.0,0.0,-18.0,1.0,4.0,4.0,13.0,10.0
1701719237.0694692,-2.0,0.0,11.0,-3.0,-6.0,-9.0,-16.0,-7.0
1701719237.0694692,-1.0,0.0,2.0,-2.0,1.0,5.0,10.0,11.0
1701719237.089719,4.0,-3.0,-18.0,1.0,-2.0,3.0,-14.0,-10.0
1701719237.089719,-6.0,-3.0,-23.0,-13.0,-9.0,-8.0,1.0,-3.0
1701719237.089719,6.0,2.0,-2.0,1.0,2.0,-5.0,-3.0,9.0
1701719237.089719,-3.0,5.0,24.0,2.0,-1.0,2.0,2.0,-9.0
1701719237.109472,0.0,-11.0,-26.0,-6.0,-5.0,-9.0,-12.0,-3.0
1701719237.109472,1.0,-3.0,-18.0,-3.0,-3.0,8.0,9.0,3.0
1701719237.109472,0.0,4.0,19.0,9.0,0.0,0.0,4.0,-4.0
1701719237.109472,1.0,-3.0,36.0,0.0,-4.0,-6.0,-2.0,5.0
1701719237.1297197,-3.0,1.0,-34.0,-13.0,-1.0,4.0,16.0,-4.0
1701719237.1297197,2.0,0.0,18.0,1.0,-4.0,-5.0,-15.0,-7.0
1701719237.1297197,-2.0,-3.0,-27.0,-3.0,1.0,2.0,-2.0,-2.0
1701719237.1297197,-1.0,2.0,31.0,9.0,2.0,-1.0,5.0,-1.0
1701719237.169469,2.0,3.0,0.0,1.0,-2.0,0.0,7.0,0.0
1701719237.169469,-4.0,-4.0,-1.0,-8.0,-3.0,-6.0,-11.0,1.0
1701719237.169469,-3.0,6.0,14.0,4.0,3.0,-1.0,-9.0,-4.0
1701719237.169469,-3.0,-12.0,-27.0,-4.0,-2.0,0.0,4.0,-1.0
1701719237.169469,0.0,-5.0,7.0,-1.0,-3.0,-2.0,4.0,1.0
1701719237.169469,-1.0,4.0,15.0,3.0,-2.0,-1.0,-3.0,1.0
1701719237.169469,1.0,0.0,6.0,8.0,2.0,4.0,4.0,-4.0
1701719237.169469,0.0,-1.0,-25.0,-22.0,-7.0,-4.0,-8.0,1.0
1701719237.189469,2.0,1.0,5.0,7.0,7.0,1.0,5.0,3.0
1701719237.189469,-3.0,-2.0,9.0,1.0,3.0,-1.0,2.0,-5.0
1701719237.189469,-3.0,-3.0,-3.0,-6.0,-6.0,0.0,-1.0,-3.0
1701719237.189469,-3.0,-2.0,-5.0,5.0,-1.0,-2.0,-7.0,-3.0
1701719237.2097273,2.0,2.0,-7.0,-2.0,-5.0,3.0,6.0,0.0
1701719237.2097273,0.0,-1.0,-1.0,-3.0,-2.0,-1.0,-2.0,1.0
1701719237.2097273,-2.0,-4.0,-9.0,-2.0,0.0,-3.0,-1.0,3.0
1701719237.2097273,0.0,5.0,4.0,5.0,5.0,-1.0,-1.0,-3.0
1701719237.2294679,-2.0,-3.0,18.0,13.0,-6.0,-3.0,4.0,2.0
1701719237.2294679,-2.0,-1.0,-19.0,3.0,-1.0,1.0,-6.0,-6.0
1701719237.2294679,-3.0,-3.0,-12.0,-15.0,2.0,-4.0,-4.0,1.0
1701719237.2294679,3.0,-2.0,-6.0,-18.0,-8.0,0.0,1.0,-2.0
1701719237.249685,-8.0,3.0,15.0,7.0,2.0,0.0,0.0,-3.0
1701719237.249685,1.0,-3.0,2.0,8.0,-2.0,-4.0,-3.0,-1.0
1701719237.2594666,-6.0,-6.0,-5.0,-7.0,-5.0,-4.0,-8.0,-9.0
1701719237.2594666,5.0,1.0,7.0,3.0,0.0,2.0,-2.0,5.0
1701719237.2694979,3.0,0.0,3.0,2.0,1.0,2.0,2.0,0.0
1701719237.2694979,-5.0,0.0,-25.0,-12.0,-4.0,-12.0,-6.0,-3.0
1701719237.2694979,3.0,-3.0,-3.0,1.0,-2.0,1.0,12.0,4.0
1701719237.2694979,-2.0,-1.0,-5.0,5.0,-1.0,0.0,-21.0,-12.0
1701719237.2894673,2.0,-3.0,-5.0,2.0,1.0,5.0,-2.0,2.0
1701719237.2894673,-2.0,4.0,19.0,-11.0,2.0,3.0,4.0,0.0
1701719237.2894673,-1.0,1.0,-9.0,3.0,-1.0,-3.0,-4.0,-5.0
1701719237.2894673,-2.0,-6.0,7.0,1.0,-4.0,-2.0,2.0,1.0
1701719237.3094985,0.0,4.0,2.0,5.0,0.0,1.0,-3.0,-5.0
1701719237.3094985,0.0,-3.0,5.0,-1.0,-1.0,-4.0,-2.0,-2.0
1701719237.3094985,-2.0,0.0,4.0,-10.0,0.0,1.0,-7.0,2.0
1701719237.3094985,-3.0,-7.0,-13.0,-4.0,-2.0,-1.0,5.0,-8.0
1701719237.3299277,0.0,0.0,1.0,-11.0,2.0,-5.0,5.0,5.0
1701719237.3299277,-1.0,-1.0,-6.0,2.0,-1.0,0.0,-6.0,-6.0
1701719237.3299277,0.0,6.0,7.0,5.0,-5.0,2.0,5.0,-3.0
1701719237.3299277,-5.0,-10.0,-26.0,-2.0,-4.0,-6.0,-4.0,6.0
1701719237.3398368,-5.0,-1.0,3.0,0.0,0.0,2.0,-6.0,-8.0
1701719237.3398368,3.0,-5.0,0.0,2.0,4.0,2.0,3.0,5.0
1701719237.3494742,-6.0,12.0,8.0,5.0,-1.0,4.0,7.0,-2.0
1701719237.3494742,-1.0,-5.0,-3.0,1.0,-1.0,-5.0,-12.0,-2.0
1701719237.3694785,1.0,-2.0,0.0,-2.0,2.0,3.0,24.0,7.0
1701719237.3694785,5.0,-1.0,-10.0,-3.0,-2.0,-5.0,-10.0,0.0
1701719237.3694785,-8.0,-3.0,26.0,9.0,8.0,13.0,31.0,0.0
1701719237.3694785,0.0,0.0,-17.0,-2.0,0.0,-3.0,-5.0,2.0
1701719237.3899288,1.0,2.0,-17.0,5.0,-2.0,3.0,8.0,-1.0
1701719237.3899288,-4.0,1.0,32.0,-1.0,-1.0,0.0,6.0,-8.0
1701719237.3899288,2.0,-3.0,-23.0,-6.0,-4.0,-5.0,-2.0,8.0
1701719237.3899288,2.0,7.0,13.0,5.0,-1.0,0.0,-4.0,-9.0
1701719237.3994696,0.0,-8.0,-2.0,-11.0,-5.0,-13.0,-44.0,2.0
1701719237.4094684,1.0,5.0,0.0,6.0,2.0,8.0,35.0,2.0
1701719237.4094684,-3.0,-5.0,-15.0,-6.0,0.0,-6.0,-38.0,-20.0
1701719237.4094684,-4.0,2.0,-3.0,-1.0,2.0,17.0,48.0,4.0
1701719237.42947,-8.0,-9.0,-1.0,-10.0,-3.0,-7.0,-8.0,-8.0
1701719237.42947,-1.0,8.0,50.0,13.0,-4.0,-3.0,-11.0,0.0
1701719237.42947,1.0,-3.0,-25.0,-5.0,-2.0,-9.0,-5.0,4.0
1701719237.42947,1.0,-2.0,-5.0,3.0,1.0,3.0,3.0,3.0
1701719237.44992,-2.0,3.0,-11.0,-5.0,-1.0,2.0,0.0,-7.0
1701719237.44992,0.0,-1.0,-7.0,0.0,2.0,-5.0,-17.0,5.0
1701719237.44992,-3.0,-2.0,17.0,6.0,-3.0,0.0,6.0,1.0
1701719237.44992,10.0,-2.0,-14.0,-12.0,-8.0,-15.0,-36.0,-7.0
1701719237.4694686,0.0,4.0,22.0,4.0,-1.0,9.0,26.0,5.0
1701719237.4694686,-4.0,-8.0,-30.0,-3.0,0.0,2.0,2.0,-1.0
1701719237.4694686,0.0,4.0,18.0,5.0,-1.0,-5.0,-6.0,-4.0
1701719237.4694686,-5.0,-1.0,-12.0,-2.0,2.0,-2.0,-1.0,5.0
1701719237.489925,-2.0,-2.0,-8.0,-2.0,-3.0,-3.0,-8.0,-3.0
1701719237.489925,-2.0,-1.0,-8.0,-2.0,-4.0,-8.0,-26.0,-5.0
1701719237.489925,3.0,-3.0,-16.0,-6.0,2.0,10.0,36.0,6.0
1701719237.489925,-5.0,0.0,6.0,5.0,2.0,-2.0,1.0,-2.0
1701719237.5145986,4.0,0.0,11.0,1.0,-5.0,-4.0,0.0,-1.0
1701719237.5145986,-5.0,-3.0,-25.0,-8.0,-2.0,-1.0,14.0,2.0
1701719237.5145986,3.0,0.0,-1.0,-7.0,-8.0,-7.0,-15.0,3.0
1701719237.5156097,-5.0,0.0,27.0,7.0,3.0,4.0,1.0,-1.0
1701719237.5286703,0.0,2.0,-13.0,-3.0,5.0,1.0,-1.0,2.0
1701719237.5286703,1.0,-2.0,-7.0,-2.0,-1.0,-3.0,-2.0,-1.0
1701719237.5319006,-1.0,-1.0,16.0,-3.0,-2.0,4.0,-3.0,-3.0
1701719237.5319006,-2.0,-1.0,-15.0,-6.0,-6.0,-4.0,1.0,-1.0
1701719237.55202,-1.0,-2.0,10.0,0.0,0.0,-5.0,-2.0,-1.0
1701719237.55202,-2.0,0.0,6.0,3.0,1.0,3.0,1.0,-1.0
1701719237.55202,1.0,-1.0,-3.0,-3.0,1.0,-4.0,-8.0,-2.0
1701719237.55202,-5.0,-2.0,15.0,8.0,1.0,-1.0,-4.0,-4.0
1701719237.572336,-1.0,1.0,1.0,-2.0,0.0,-4.0,-12.0,0.0
1701719237.572336,0.0,-4.0,-25.0,-2.0,-1.0,6.0,5.0,0.0
1701719237.572336,0.0,-3.0,12.0,-3.0,-3.0,2.0,-5.0,-1.0
1701719237.572336,-2.0,-1.0,-2.0,-5.0,-2.0,-1.0,1.0,-6.0
1701719237.5923479,0.0,0.0,3.0,-5.0,2.0,0.0,-4.0,6.0
1701719237.5923479,-2.0,-2.0,1.0,13.0,1.0,0.0,-1.0,-2.0
1701719237.5923479,0.0,-2.0,-8.0,-6.0,-5.0,-7.0,-4.0,-2.0
1701719237.5923479,-1.0,-1.0,1.0,-6.0,-3.0,0.0,0.0,-2.0
1701719237.6123526,1.0,1.0,4.0,3.0,1.0,0.0,2.0,-2.0
1701719237.6123526,-4.0,-2.0,-3.0,-5.0,-1.0,-3.0,-9.0,-1.0
1701719237.6123526,-2.0,-2.0,5.0,8.0,1.0,-4.0,-2.0,-2.0
1701719237.6123526,-2.0,-1.0,-5.0,-9.0,-3.0,2.0,3.0,-2.0
1701719237.6523478,0.0,1.0,8.0,0.0,-5.0,-5.0,-4.0,-3.0
1701719237.6523478,0.0,-2.0,-17.0,-8.0,-2.0,4.0,17.0,2.0
1701719237.6523478,-2.0,-5.0,2.0,7.0,4.0,-2.0,-8.0,-3.0
1701719237.6523478,0.0,-1.0,-7.0,2.0,-2.0,-6.0,-1.0,-1.0
1701719237.6523478,-1.0,-4.0,-2.0,-2.0,0.0,4.0,4.0,2.0
1701719237.6523478,0.0,-2.0,7.0,-1.0,-2.0,0.0,-3.0,-2.0
1701719237.6523478,-2.0,2.0,-3.0,0.0,4.0,0.0,-3.0,-2.0
1701719237.6523478,-1.0,-1.0,-4.0,-1.0,0.0,-4.0,-10.0,-5.0
1701719237.6726646,-5.0,-4.0,8.0,1.0,-2.0,0.0,8.0,-2.0
1701719237.6726646,9.0,-1.0,-8.0,-3.0,1.0,-2.0,-3.0,6.0
1701719237.6726646,-2.0,1.0,5.0,-3.0,-2.0,2.0,2.0,1.0
1701719237.6726646,2.0,-4.0,-2.0,3.0,3.0,1.0,-4.0,-1.0
1701719237.7123466,-3.0,-2.0,-10.0,-1.0,-3.0,-5.0,-4.0,-7.0
1701719237.7123466,0.0,1.0,12.0,-2.0,-1.0,-1.0,-3.0,-3.0
1701719237.7123466,-4.0,1.0,-7.0,-2.0,-1.0,-4.0,0.0,-1.0
1701719237.7123466,-2.0,-7.0,3.0,0.0,-2.0,1.0,-2.0,0.0
1701719237.7123466,0.0,1.0,-6.0,-1.0,-3.0,0.0,-5.0,-3.0
1701719237.7123466,-1.0,-2.0,-5.0,-4.0,0.0,-1.0,4.0,-1.0
1701719237.7123466,1.0,4.0,7.0,0.0,-1.0,-1.0,-3.0,-2.0
1701719237.7123466,-4.0,-6.0,-3.0,1.0,-1.0,-5.0,0.0,1.0
1701719237.7223816,-1.0,-5.0,-5.0,-1.0,2.0,3.0,8.0,0.0
1701719237.732351,-3.0,3.0,11.0,-1.0,-2.0,-5.0,-15.0,1.0
1701719237.732351,0.0,-5.0,-4.0,0.0,-1.0,5.0,0.0,-1.0
1701719237.732351,-1.0,7.0,9.0,0.0,-3.0,-7.0,-11.0,-4.0
1701719237.752348,4.0,2.0,-20.0,-6.0,1.0,12.0,45.0,8.0
1701719237.752348,-3.0,-1.0,-5.0,2.0,0.0,-4.0,6.0,-3.0
1701719237.752348,0.0,-1.0,3.0,-2.0,-3.0,-2.0,-7.0,-2.0
1701719237.752348,-3.0,-2.0,-4.0,-1.0,2.0,2.0,1.0,-2.0
1701719237.7728071,5.0,-1.0,-32.0,-7.0,-3.0,-7.0,-19.0,-2.0
1701719237.7728071,-12.0,-4.0,13.0,-1.0,-1.0,-3.0,-4.0,-8.0
1701719237.7728071,-2.0,-3.0,-2.0,-3.0,-3.0,-2.0,6.0,9.0
1701719237.7728071,-1.0,3.0,16.0,3.0,0.0,-1.0,7.0,-1.0
1701719237.7923493,-4.0,-1.0,5.0,-1.0,1.0,-1.0,-26.0,-14.0
1701719237.7923493,3.0,-2.0,-6.0,-4.0,-5.0,-1.0,-1.0,0.0
1701719237.7923493,-1.0,-2.0,1.0,2.0,-1.0,-4.0,-9.0,-6.0
1701719237.7923493,-2.0,-3.0,-11.0,-4.0,-2.0,1.0,7.0,6.0
1701719237.8123484,0.0,-3.0,22.0,5.0,-1.0,-1.0,2.0,3.0
1701719237.8123484,-1.0,4.0,-10.0,-2.0,0.0,0.0,1.0,0.0
1701719237.8123484,0.0,-6.0,-4.0,-2.0,-2.0,-5.0,1.0,-1.0
1701719237.8123484,1.0,-2.0,-20.0,1.0,2.0,-3.0,-4.0,-1.0
1701719237.8328245,-1.0,0.0,1.0,-6.0,-4.0,2.0,9.0,0.0
1701719237.8328245,1.0,0.0,23.0,6.0,2.0,1.0,-1.0,-2.0
1701719237.8328245,-1.0,-1.0,0.0,-1.0,0.0,-3.0,1.0,0.0
1701719237.8328245,0.0,2.0,-6.0,4.0,0.0,2.0,-4.0,-1.0
1701719237.8427434,-2.0,-1.0,7.0,1.0,-4.0,-6.0,-13.0,0.0
1701719237.8427434,-1.0,-5.0,-33.0,-11.0,-2.0,2.0,-1.0,-1.0
1701719237.8523538,0.0,1.0,-6.0,-2.0,-1.0,0.0,1.0,-1.0
1701719237.8523538,0.0,-1.0,0.0,-2.0,-1.0,3.0,12.0,1.0
1701719237.8727534,-2.0,3.0,24.0,2.0,-4.0,-3.0,-1.0,-1.0
1701719237.8727534,-1.0,0.0,-4.0,3.0,-2.0,-4.0,-5.0,-3.0
1701719237.8727534,-2.0,-7.0,-24.0,-3.0,-2.0,-5.0,-7.0,-3.0
1701719237.8727534,2.0,0.0,1.0,-1.0,1.0,0.0,-5.0,-2.0
1701719237.8927972,-4.0,-4.0,3.0,-1.0,-2.0,0.0,-1.0,-2.0
1701719237.8927972,2.0,4.0,5.0,-2.0,-3.0,0.0,0.0,1.0
1701719237.8927972,0.0,0.0,1.0,-2.0,-1.0,-1.0,-3.0,-1.0
1701719237.8927972,-3.0,0.0,8.0,1.0,-3.0,-2.0,-3.0,0.0
1701719237.9027164,0.0,-2.0,-1.0,-1.0,2.0,-1.0,-1.0,1.0
1701719237.9123614,-1.0,-5.0,-9.0,-2.0,-1.0,-3.0,-6.0,0.0
1701719237.9123614,-2.0,1.0,4.0,-2.0,-2.0,-3.0,-1.0,-2.0
1701719237.9123614,2.0,0.0,8.0,3.0,-1.0,-1.0,-15.0,-3.0
1701719237.9326615,-1.0,0.0,-3.0,-8.0,-1.0,-1.0,11.0,0.0
1701719237.9326615,0.0,-3.0,7.0,3.0,0.0,3.0,7.0,2.0
1701719237.9326615,-1.0,-1.0,-4.0,-1.0,1.0,2.0,-4.0,-4.0
1701719237.9326615,-2.0,-7.0,-11.0,-11.0,-5.0,-5.0,-9.0,0.0
1701719237.9523814,-1.0,0.0,-1.0,6.0,1.0,-2.0,-4.0,-3.0
1701719237.9523814,-1.0,-1.0,2.0,5.0,-3.0,-1.0,5.0,-4.0
1701719237.9523814,1.0,0.0,0.0,-9.0,-2.0,1.0,-1.0,2.0
1701719237.9523814,-2.0,2.0,5.0,5.0,-1.0,1.0,1.0,-4.0
1701719237.9627366,-2.0,-4.0,-6.0,-4.0,2.0,1.0,-8.0,-1.0
1701719237.9723551,-2.0,-1.0,-3.0,0.0,3.0,0.0,0.0,-3.0
1701719237.9723551,1.0,0.0,-2.0,0.0,-2.0,-3.0,3.0,-1.0
1701719237.9723551,-2.0,1.0,22.0,4.0,-2.0,-5.0,-3.0,-2.0
1701719237.9927514,-1.0,-3.0,-19.0,-4.0,-2.0,-2.0,2.0,0.0
1701719237.9927514,-1.0,1.0,6.0,3.0,-1.0,-2.0,-4.0,0.0
1701719237.9927514,-1.0,-4.0,-19.0,-2.0,0.0,1.0,0.0,-5.0
1701719237.9927514,-1.0,-2.0,-1.0,-9.0,-5.0,-1.0,3.0,1.0
1701719238.0123491,0.0,0.0,29.0,9.0,1.0,-2.0,-3.0,-2.0
1701719238.0123491,-3.0,-1.0,0.0,-9.0,-5.0,-2.0,1.0,-1.0
1701719238.0123491,3.0,-2.0,-5.0,8.0,3.0,7.0,4.0,2.0
1701719238.0123491,0.0,0.0,-6.0,-2.0,0.0,-4.0,-3.0,2.0
1701719238.0308805,0.0,-1.0,2.0,-5.0,-1.0,-3.0,3.0,-1.0
1701719238.0308805,0.0,-3.0,-11.0,-4.0,2.0,4.0,-1.0,-1.0
1701719238.0321891,-2.0,0.0,13.0,1.0,-4.0,-4.0,1.0,-1.0
1701719238.0321891,1.0,-1.0,15.0,4.0,4.0,2.0,-6.0,-3.0
1701719238.0482984,-3.0,0.0,-10.0,1.0,-3.0,1.0,6.0,-1.0
1701719238.0482984,-1.0,-1.0,8.0,1.0,-3.0,-5.0,-7.0,2.0
1701719238.0482984,0.0,-1.0,-8.0,-3.0,-1.0,-1.0,2.0,-2.0
1701719238.0482984,-1.0,0.0,-9.0,1.0,0.0,-1.0,1.0,-3.0
1701719238.068668,-1.0,0.0,-5.0,3.0,1.0,-1.0,-5.0,0.0
1701719238.068668,-2.0,-3.0,-11.0,-2.0,0.0,-1.0,-8.0,0.0
1701719238.0783,-3.0,1.0,3.0,-2.0,0.0,2.0,16.0,-1.0
1701719238.0783,-1.0,-3.0,-7.0,-4.0,0.0,-1.0,1.0,1.0
1701719238.0882971,1.0,-2.0,-8.0,-1.0,-1.0,-2.0,0.0,-2.0
1701719238.0882971,2.0,1.0,3.0,-3.0,-2.0,-1.0,-7.0,-4.0
1701719238.0882971,-2.0,-2.0,5.0,-4.0,-4.0,-2.0,1.0,0.0
1701719238.0882971,0.0,-2.0,-10.0,-2.0,-3.0,-4.0,3.0,2.0
1701719238.109074,-1.0,0.0,-6.0,-1.0,0.0,0.0,-3.0,-2.0
1701719238.109074,-1.0,0.0,3.0,0.0,-1.0,1.0,-1.0,0.0
1701719238.109074,-1.0,-1.0,1.0,2.0,1.0,-1.0,-8.0,-2.0
1701719238.109074,-2.0,-1.0,-18.0,-3.0,1.0,4.0,10.0,0.0
1701719238.129135,-1.0,-3.0,28.0,4.0,-2.0,-4.0,-2.0,6.0
1701719238.129135,2.0,-1.0,-23.0,-6.0,-1.0,-1.0,-7.0,-7.0
1701719238.129135,-4.0,-5.0,-13.0,-5.0,-2.0,-1.0,-9.0,-5.0
1701719238.129135,0.0,-3.0,-13.0,-5.0,-2.0,0.0,5.0,5.0
1701719238.1487691,-1.0,3.0,6.0,5.0,-4.0,-3.0,-9.0,-2.0
1701719238.1487691,0.0,5.0,2.0,3.0,1.0,0.0,2.0,2.0
1701719238.1589994,-4.0,-3.0,18.0,-2.0,-1.0,-2.0,4.0,-3.0
1701719238.1589994,1.0,-4.0,-44.0,-14.0,0.0,3.0,3.0,4.0
1701719238.169032,-2.0,-3.0,-12.0,-4.0,-1.0,-2.0,-10.0,-13.0
1701719238.169032,-1.0,-3.0,42.0,15.0,-1.0,-2.0,-2.0,12.0
1701719238.169032,1.0,0.0,-39.0,-15.0,-3.0,-4.0,-9.0,-2.0
1701719238.169032,-3.0,-1.0,17.0,1.0,-2.0,-2.0,-3.0,-6.0
1701719238.1890354,-1.0,1.0,-5.0,2.0,-1.0,0.0,0.0,2.0
1701719238.1890354,-1.0,-3.0,8.0,-10.0,-2.0,1.0,10.0,-2.0
1701719238.198784,-1.0,-1.0,-12.0,2.0,-3.0,-3.0,-3.0,-2.0
1701719238.198784,-2.0,-2.0,22.0,4.0,-1.0,-5.0,-3.0,-3.0
1701719238.218769,0.0,0.0,-8.0,-2.0,-2.0,2.0,-1.0,4.0
1701719238.218769,-2.0,2.0,7.0,1.0,2.0,4.0,5.0,-1.0
1701719238.218769,0.0,4.0,15.0,8.0,3.0,-1.0,2.0,3.0
1701719238.218769,-2.0,-5.0,-5.0,-3.0,-3.0,-1.0,-2.0,-5.0
1701719238.2287674,-3.0,-10.0,-3.0,-3.0,-2.0,-3.0,-28.0,-14.0
1701719238.2287674,-2.0,2.0,8.0,-2.0,-2.0,-5.0,-6.0,-4.0
1701719238.2287674,-2.0,-2.0,-4.0,-1.0,-1.0,-3.0,4.0,0.0
1701719238.2287674,-1.0,5.0,25.0,-4.0,0.0,1.0,4.0,-1.0
1701719238.248768,-2.0,2.0,13.0,1.0,1.0,-3.0,7.0,0.0
1701719238.248768,0.0,-5.0,-14.0,0.0,-4.0,-1.0,-37.0,-14.0
1701719238.248768,-2.0,-6.0,-29.0,-32.0,-6.0,0.0,12.0,5.0
1701719238.248768,2.0,4.0,15.0,9.0,0.0,-1.0,-2.0,-3.0
1701719238.2689807,0.0,0.0,-5.0,-2.0,-1.0,3.0,7.0,2.0
1701719238.2689807,-3.0,1.0,-10.0,-1.0,1.0,-3.0,7.0,-3.0
1701719238.2689807,2.0,-3.0,16.0,15.0,-1.0,-3.0,-5.0,11.0
1701719238.2689807,-9.0,-1.0,3.0,2.0,-1.0,-1.0,-6.0,-4.0
1701719238.2887766,0.0,5.0,-11.0,-10.0,-3.0,-3.0,10.0,5.0
1701719238.2887766,-8.0,-30.0,-26.0,-4.0,-4.0,-3.0,-7.0,-7.0
1701719238.2887766,-2.0,4.0,15.0,0.0,5.0,4.0,-5.0,-2.0
1701719238.2887766,0.0,-3.0,-13.0,-5.0,0.0,1.0,11.0,3.0
1701719238.3187673,5.0,4.0,-2.0,-1.0,-1.0,0.0,-2.0,3.0
1701719238.3187673,-10.0,4.0,5.0,6.0,1.0,2.0,11.0,3.0
1701719238.3187673,3.0,3.0,13.0,1.0,-2.0,-1.0,4.0,-5.0
1701719238.3187673,1.0,-7.0,-17.0,6.0,-2.0,1.0,0.0,2.0
1701719238.3288016,0.0,6.0,-2.0,-9.0,0.0,-1.0,9.0,7.0
1701719238.3288016,1.0,0.0,0.0,-6.0,-5.0,-11.0,-30.0,-13.0
1701719238.339138,-5.0,-1.0,4.0,-3.0,-1.0,15.0,9.0,1.0
1701719238.339138,2.0,7.0,7.0,5.0,2.0,2.0,14.0,2.0
1701719238.3491464,-2.0,-3.0,-9.0,-7.0,-4.0,-7.0,-5.0,-4.0
1701719238.3491464,3.0,-2.0,-4.0,4.0,1.0,0.0,8.0,4.0
1701719238.3491464,-4.0,3.0,8.0,9.0,2.0,-5.0,-8.0,0.0
1701719238.3491464,3.0,1.0,-16.0,-3.0,-4.0,-1.0,-13.0,-5.0
1701719238.368768,-6.0,-10.0,5.0,-1.0,-2.0,-2.0,4.0,-3.0
1701719238.368768,1.0,2.0,-13.0,-8.0,3.0,3.0,7.0,6.0
1701719238.368768,0.0,-6.0,-5.0,1.0,-3.0,-7.0,-8.0,-6.0
1701719238.368768,-1.0,1.0,28.0,8.0,0.0,0.0,-9.0,-2.0
1701719238.3887696,0.0,-3.0,-32.0,1.0,-2.0,2.0,12.0,2.0
1701719238.3887696,-2.0,5.0,-3.0,-20.0,-2.0,-8.0,-15.0,-5.0
1701719238.3987687,0.0,1.0,-3.0,7.0,1.0,9.0,9.0,-1.0
1701719238.3987687,-3.0,-6.0,-7.0,-7.0,-2.0,-5.0,1.0,2.0
1701719238.4091363,-2.0,-1.0,38.0,9.0,3.0,-5.0,-11.0,-3.0
1701719238.4091363,3.0,2.0,-16.0,-1.0,-4.0,0.0,15.0,3.0
1701719238.4091363,1.0,0.0,2.0,1.0,1.0,-2.0,-7.0,-3.0
1701719238.4091363,-2.0,-1.0,14.0,-5.0,-5.0,-4.0,-6.0,-1.0
1701719238.428768,-2.0,-6.0,-14.0,-3.0,2.0,3.0,-29.0,-14.0
1701719238.428768,0.0,-4.0,-7.0,0.0,0.0,7.0,17.0,2.0
1701719238.428768,-2.0,-2.0,8.0,2.0,1.0,-11.0,-7.0,-1.0
1701719238.428768,-1.0,3.0,6.0,-1.0,-1.0,4.0,3.0,-1.0
1701719238.4490979,-2.0,-1.0,3.0,-1.0,-4.0,-2.0,2.0,1.0
1701719238.4490979,0.0,-1.0,-1.0,13.0,8.0,2.0,8.0,3.0
1701719238.4591389,-1.0,0.0,18.0,-7.0,-5.0,-6.0,-9.0,3.0
1701719238.4591389,-1.0,1.0,-11.0,-4.0,0.0,-1.0,-2.0,-3.0
1701719238.468783,-4.0,-5.0,-24.0,-8.0,-2.0,1.0,5.0,-2.0
1701719238.468783,-1.0,3.0,15.0,6.0,4.0,-3.0,1.0,1.0
1701719238.468783,-1.0,-3.0,-5.0,6.0,-2.0,-1.0,-2.0,-2.0
1701719238.468783,-1.0,1.0,6.0,-2.0,-3.0,-5.0,-3.0,-1.0
1701719238.4888008,-1.0,1.0,-5.0,-4.0,-3.0,-2.0,2.0,1.0
1701719238.4888008,2.0,2.0,10.0,-3.0,-6.0,0.0,2.0,-1.0
1701719238.4888008,-1.0,0.0,-9.0,2.0,2.0,1.0,0.0,-4.0
1701719238.4888008,-2.0,-6.0,-3.0,-1.0,-3.0,-3.0,-5.0,-3.0
1701719238.5091047,1.0,3.0,4.0,6.0,-2.0,2.0,0.0,0.0
1701719238.5091047,-1.0,-6.0,15.0,-4.0,-1.0,-1.0,0.0,-1.0
1701719238.5191326,-1.0,-2.0,-4.0,-2.0,1.0,-6.0,-3.0,-1.0
1701719238.5191326,-2.0,2.0,-12.0,2.0,2.0,1.0,-1.0,0.0
1701719238.5387673,-1.0,-4.0,5.0,1.0,0.0,-1.0,6.0,0.0
1701719238.5387673,-1.0,-3.0,-4.0,2.0,-4.0,-4.0,-5.0,-3.0
1701719238.549081,-1.0,-1.0,-5.0,-14.0,-6.0,-3.0,-1.0,0.0
1701719238.549081,1.0,1.0,1.0,0.0,3.0,3.0,1.0,0.0
1701719238.549081,1.0,-1.0,8.0,4.0,1.0,-1.0,-2.0,-1.0
1701719238.549081,-2.0,-2.0,-9.0,-8.0,-3.0,0.0,5.0,1.0
1701719238.549081,0.0,0.0,9.0,22.0,1.0,3.0,6.0,3.0
1701719238.549081,-2.0,1.0,-2.0,-28.0,-1.0,-3.0,-5.0,3.0
1701719238.571186,0.0,-7.0,-3.0,-3.0,-2.0,0.0,-17.0,-6.0
1701719238.571186,-5.0,-2.0,6.0,4.0,-3.0,-2.0,-2.0,0.0
1701719238.5792372,0.0,7.0,-12.0,0.0,-3.0,-1.0,1.0,0.0
1701719238.5792372,1.0,-7.0,-8.0,-1.0,-1.0,-1.0,-3.0,-2.0
1701719238.591029,-1.0,1.0,-7.0,-2.0,-4.0,0.0,7.0,1.0
1701719238.591029,0.0,5.0,2.0,1.0,4.0,0.0,4.0,4.0
1701719238.591029,-2.0,-9.0,15.0,6.0,-1.0,-2.0,-1.0,-2.0
1701719238.591029,-1.0,-6.0,-37.0,-4.0,-2.0,-3.0,0.0,0.0
1701719238.611391,-3.0,5.0,22.0,2.0,2.0,-1.0,1.0,-2.0
1701719238.611391,3.0,-7.0,-23.0,-4.0,-5.0,3.0,-1.0,-1.0
1701719238.611391,-4.0,-2.0,-13.0,-13.0,-4.0,-2.0,-11.0,-14.0
1701719238.611391,-1.0,-3.0,14.0,-2.0,-1.0,-1.0,-1.0,-2.0
1701719238.6318262,3.0,5.0,14.0,11.0,2.0,-4.0,-1.0,3.0
1701719238.6318262,4.0,13.0,-14.0,7.0,-2.0,1.0,-21.0,-8.0
1701719238.6318262,3.0,-7.0,-27.0,-27.0,-1.0,0.0,-6.0,-1.0
1701719238.6318262,-9.0,-2.0,8.0,10.0,-2.0,-2.0,4.0,0.0
1701719238.651403,-3.0,-3.0,-4.0,4.0,1.0,-1.0,-5.0,-3.0
1701719238.651403,3.0,2.0,-20.0,-13.0,-1.0,-3.0,1.0,7.0
1701719238.651403,0.0,4.0,11.0,4.0,0.0,3.0,12.0,4.0
1701719238.651403,-1.0,2.0,-7.0,17.0,-1.0,1.0,-15.0,-8.0
1701719238.6716845,1.0,1.0,-12.0,-1.0,-3.0,-6.0,3.0,5.0
