1701719089.1271176,-10.0,-2.0,-6.0,3.0,-1.0,-1.0,13.0,4.0
1701719089.1271176,8.0,-6.0,7.0,-3.0,-3.0,1.0,-5.0,-1.0
1701719089.1271176,-2.0,3.0,-4.0,0.0,-2.0,-2.0,-3.0,-3.0
1701719089.1271176,-8.0,-4.0,-22.0,5.0,1.0,-3.0,-6.0,-11.0
1701719089.1372335,1.0,5.0,-2.0,-6.0,-2.0,-2.0,-6.0,-2.0
1701719089.1372335,-2.0,4.0,-6.0,-1.0,-1.0,-1.0,-1.0,-6.0
1701719089.1472394,-2.0,-7.0,-7.0,-1.0,1.0,1.0,1.0,3.0
1701719089.1472394,4.0,-2.0,19.0,7.0,4.0,5.0,0.0,5.0
1701719089.1572323,1.0,5.0,-2.0,3.0,-3.0,-4.0,-4.0,-10.0
1701719089.1572323,-6.0,-2.0,-22.0,-3.0,1.0,-1.0,4.0,5.0
1701719089.167172,2.0,2.0,82.0,20.0,-1.0,-2.0,-3.0,-3.0
1701719089.167172,-4.0,-7.0,-70.0,-30.0,-8.0,-3.0,-2.0,0.0
1701719089.1871183,2.0,-5.0,6.0,4.0,0.0,1.0,-1.0,-1.0
1701719089.1871183,-3.0,9.0,26.0,11.0,0.0,-1.0,-3.0,0.0
1701719089.1871183,0.0,-7.0,-25.0,-8.0,-2.0,0.0,2.0,0.0
1701719089.1871183,-1.0,7.0,7.0,-14.0,-2.0,0.0,-3.0,-2.0
1701719089.197342,1.0,-12.0,-8.0,-3.0,-3.0,-1.0,0.0,2.0
1701719089.197342,-1.0,2.0,33.0,10.0,-2.0,-3.0,-3.0,-1.0
1701719089.2073317,-2.0,-1.0,-24.0,3.0,0.0,-1.0,1.0,-3.0
1701719089.2073317,0.0,-8.0,-8.0,-9.0,-1.0,0.0,2.0,3.0
1701719089.2173183,7.0,0.0,0.0,-4.0,-5.0,-3.0,-6.0,-2.0
1701719089.2173183,-8.0,-5.0,-12.0,-4.0,-3.0,-3.0,1.0,1.0
1701719089.2173183,-4.0,0.0,-14.0,-9.0,0.0,1.0,0.0,-1.0
1701719089.2271225,1.0,-3.0,11.0,4.0,-2.0,-1.0,4.0,-1.0
1701719089.2472115,-1.0,-4.0,-16.0,10.0,0.0,1.0,0.0,1.0
1701719089.2472115,0.0,-2.0,-12.0,-1.0,8.0,3.0,1.0,-1.0
1701719089.2472115,-1.0,2.0,0.0,-1.0,-2.0,-2.0,2.0,2.0
1701719089.2472115,0.0,1.0,8.0,-5.0,5.0,1.0,1.0,1.0
1701719089.2575164,-2.0,1.0,-10.0,-6.0,-2.0,0.0,-2.0,-1.0
1701719089.2575164,0.0,2.0,-1.0,-7.0,-8.0,-3.0,-4.0,-1.0
1701719089.2676435,3.0,0.0,-25.0,3.0,-2.0,-3.0,-1.0,0.0
1701719089.2676435,0.0,-3.0,9.0,-13.0,-13.0,-4.0,0.0,0.0
1701719089.2775228,-2.0,-1.0,2.0,20.0,26.0,7.0,1.0,-2.0
1701719089.2775228,-3.0,-2.0,-5.0,-3.0,6.0,3.0,0.0,0.0
1701719089.2775228,2.0,1.0,-14.0,3.0,-3.0,-1.0,1.0,0.0
1701719089.2775228,1.0,0.0,42.0,9.0,4.0,-1.0,1.0,-3.0
1701719089.307527,-1.0,3.0,4.0,-16.0,-13.0,-4.0,-1.0,0.0
1701719089.307527,0.0,-4.0,-4.0,7.0,-2.0,1.0,-1.0,-1.0
1701719089.307527,-1.0,-1.0,-2.0,-8.0,-2.0,0.0,0.0,-1.0
1701719089.307527,-1.0,2.0,7.0,5.0,-1.0,0.0,-2.0,0.0
1701719089.3472579,0.0,-3.0,-6.0,0.0,1.0,0.0,-1.0,-2.0
1701719089.3472579,1.0,-1.0,-5.0,-6.0,-2.0,1.0,0.0,-1.0
1701719089.3575838,-1.0,-3.0,-1.0,1.0,-5.0,0.0,-1.0,-1.0
1701719089.3575838,-1.0,2.0,-8.0,-5.0,0.0,0.0,1.0,2.0
1701719089.3575838,1.0,2.0,-6.0,-1.0,1.0,-1.0,-1.0,-1.0
1701719089.3575838,-1.0,-1.0,-3.0,-4.0,-4.0,-3.0,-1.0,-2.0
1701719089.3575838,0.0,0.0,7.0,-3.0,2.0,2.0,-3.0,0.0
1701719089.3575838,-1.0,1.0,-36.0,-11.0,1.0,1.0,0.0,0.0
1701719089.367659,-2.0,-1.0,2.0,9.0,-1.0,0.0,-1.0,0.0
1701719089.367659,-1.0,-1.0,1.0,-5.0,-3.0,-1.0,-1.0,-2.0
1701719089.367659,0.0,1.0,-9.0,-2.0,0.0,-3.0,1.0,-1.0
1701719089.367659,1.0,1.0,29.0,20.0,0.0,-1.0,0.0,1.0
1701719089.367659,-3.0,-2.0,-14.0,-15.0,-4.0,-3.0,-5.0,-1.0
1701719089.367659,2.0,0.0,-22.0,-6.0,0.0,1.0,6.0,-1.0
1701719089.3775868,-12.0,-3.0,27.0,14.0,3.0,1.0,-4.0,-1.0
1701719089.3775868,0.0,-1.0,-4.0,-3.0,-4.0,-2.0,5.0,-1.0
1701719089.397263,-3.0,-2.0,3.0,1.0,-5.0,-2.0,-2.0,0.0
1701719089.397263,-1.0,-2.0,3.0,-2.0,0.0,-3.0,-4.0,-2.0
1701719089.4072568,3.0,0.0,-15.0,-19.0,-2.0,-1.0,1.0,-3.0
1701719089.4072568,0.0,-3.0,12.0,7.0,1.0,0.0,-4.0,2.0
1701719089.4072568,-5.0,2.0,-1.0,-1.0,-1.0,-3.0,2.0,0.0
1701719089.4072568,-2.0,1.0,3.0,2.0,0.0,-2.0,-8.0,-4.0
1701719089.417258,-2.0,-3.0,-16.0,-11.0,-2.0,-3.0,1.0,-1.0
1701719089.417258,4.0,4.0,11.0,7.0,0.0,-1.0,-7.0,6.0
1701719089.4276724,1.0,-7.0,-8.0,-5.0,0.0,3.0,4.0,1.0
1701719089.4276724,0.0,-1.0,1.0,0.0,-2.0,0.0,3.0,2.0
1701719089.437615,1.0,4.0,7.0,2.0,-1.0,-2.0,-2.0,-4.0
1701719089.437615,2.0,-6.0,-6.0,-5.0,0.0,-2.0,-3.0,-4.0
1701719089.4573517,-8.0,-5.0,15.0,22.0,-4.0,-2.0,-9.0,-1.0
1701719089.4573517,1.0,-2.0,-10.0,-4.0,0.0,-3.0,-3.0,-1.0
1701719089.4573517,0.0,-2.0,6.0,-2.0,1.0,2.0,1.0,-1.0
1701719089.4573517,-1.0,1.0,0.0,8.0,-2.0,0.0,2.0,-3.0
1701719089.4672558,3.0,-5.0,-2.0,-17.0,-2.0,-4.0,-1.0,-4.0
1701719089.4672558,-2.0,-5.0,-14.0,-3.0,-1.0,1.0,-1.0,-2.0
1701719089.4775505,2.0,1.0,7.0,0.0,-2.0,-3.0,0.0,0.0
1701719089.4775505,-2.0,4.0,-12.0,-2.0,-1.0,0.0,2.0,-2.0
1701719089.487549,-1.0,-3.0,3.0,6.0,0.0,-3.0,0.0,-3.0
1701719089.487549,-5.0,-3.0,-22.0,-12.0,-3.0,-2.0,-1.0,0.0
1701719089.4974792,3.0,7.0,56.0,31.0,2.0,-4.0,-2.0,1.0
1701719089.4974792,-5.0,-4.0,-32.0,1.0,-4.0,-1.0,0.0,-4.0
1701719089.5172627,2.0,3.0,8.0,-8.0,-6.0,1.0,1.0,0.0
1701719089.5172627,-5.0,-3.0,13.0,-6.0,1.0,1.0,2.0,1.0
1701719089.5372572,6.0,-5.0,-24.0,9.0,0.0,-2.0,-1.0,-2.0
1701719089.5372572,1.0,4.0,55.0,18.0,-1.0,0.0,-2.0,-1.0
1701719089.5372572,-3.0,-1.0,-17.0,-29.0,-3.0,-1.0,-7.0,-1.0
1701719089.5372572,-1.0,2.0,12.0,15.0,-2.0,0.0,7.0,-1.0
1701719089.5372572,-5.0,-7.0,-31.0,-43.0,-8.0,1.0,2.0,-1.0
1701719089.5372572,-8.0,-2.0,6.0,12.0,1.0,-4.0,-3.0,-2.0
1701719089.547285,6.0,-2.0,-22.0,-14.0,-2.0,-4.0,-5.0,-4.0
1701719089.547285,4.0,-1.0,2.0,4.0,-4.0,-4.0,-16.0,1.0
1701719089.5572603,-5.0,-2.0,5.0,17.0,3.0,3.0,3.0,1.0
1701719089.5572603,3.0,-2.0,-21.0,-10.0,-1.0,1.0,7.0,1.0
1701719089.567259,-2.0,-5.0,18.0,11.0,0.0,0.0,6.0,-6.0
1701719089.567259,-5.0,-1.0,-14.0,-5.0,2.0,-3.0,-6.0,-4.0
1701719089.5772662,-9.0,-4.0,-6.0,-1.0,-1.0,-1.0,-3.0,-1.0
1701719089.5772662,-4.0,-3.0,-2.0,-8.0,0.0,-4.0,-1.0,-3.0
1701719089.5872588,-5.0,-2.0,-4.0,-4.0,1.0,-1.0,-9.0,-6.0
1701719089.5872588,-6.0,-1.0,3.0,1.0,-2.0,-1.0,1.0,-5.0
1701719089.5975883,7.0,-1.0,-5.0,-4.0,-3.0,-3.0,3.0,2.0
1701719089.5975883,-1.0,2.0,0.0,0.0,-2.0,-2.0,2.0,1.0
1701719089.6075945,3.0,-2.0,0.0,-8.0,-3.0,-1.0,-1.0,4.0
1701719089.6075945,-1.0,-3.0,1.0,9.0,3.0,3.0,3.0,2.0
1701719089.617303,-4.0,-4.0,-32.0,-31.0,-4.0,0.0,0.0,0.0
1701719089.617303,0.0,0.0,6.0,3.0,2.0,2.0,0.0,-3.0
1701719089.6366591,4.0,3.0,10.0,14.0,-2.0,0.0,3.0,0.0
1701719089.6366591,2.0,4.0,8.0,-10.0,-4.0,2.0,2.0,0.0
1701719089.6435134,1.0,-2.0,0.0,19.0,8.0,0.0,-2.0,2.0
1701719089.6435134,-3.0,-6.0,-9.0,-32.0,0.0,1.0,0.0,-3.0
1701719089.6601202,-1.0,3.0,7.0,6.0,-5.0,-2.0,1.0,0.0
1701719089.6601202,1.0,0.0,-1.0,6.0,-7.0,-3.0,-4.0,-2.0
1701719089.6601202,-1.0,-5.0,-37.0,-27.0,1.0,3.0,3.0,-1.0
1701719089.6601202,1.0,-3.0,36.0,3.0,-3.0,-2.0,-3.0,-1.0
1701719089.6705346,-1.0,4.0,-19.0,9.0,10.0,1.0,4.0,4.0
1701719089.6705346,-1.0,-2.0,11.0,-12.0,-3.0,-3.0,-1.0,-1.0
1701719089.6801233,0.0,-5.0,28.0,9.0,-2.0,-6.0,-9.0,-4.0
1701719089.6801233,3.0,-4.0,-39.0,-30.0,-2.0,0.0,-2.0,2.0
1701719089.6901197,-7.0,-1.0,15.0,9.0,0.0,0.0,2.0,0.0
1701719089.6901197,-2.0,-2.0,1.0,7.0,4.0,3.0,5.0,1.0
1701719089.700352,1.0,1.0,-28.0,-27.0,0.0,-2.0,-7.0,-9.0
1701719089.700352,-7.0,-1.0,10.0,15.0,-1.0,0.0,-2.0,2.0
1701719089.719327,6.0,1.0,-7.0,-5.0,-2.0,-4.0,-3.0,-8.0
1701719089.719327,0.0,-2.0,3.0,-10.0,3.0,-2.0,-3.0,5.0
1701719089.7203612,-2.0,4.0,29.0,13.0,-5.0,0.0,10.0,13.0
1701719089.7203612,-4.0,1.0,-21.0,3.0,-2.0,-6.0,-20.0,-28.0
1701719089.74378,-7.0,5.0,13.0,4.0,2.0,1.0,1.0,-3.0
1701719089.74378,0.0,-3.0,-15.0,-4.0,2.0,0.0,-3.0,5.0
1701719089.74378,1.0,5.0,0.0,5.0,-2.0,0.0,8.0,-4.0
1701719089.74378,-2.0,-5.0,10.0,14.0,0.0,0.0,-1.0,5.0
1701719089.755818,3.0,-5.0,-6.0,-12.0,-3.0,-3.0,-7.0,0.0
1701719089.755818,-3.0,-8.0,2.0,3.0,-1.0,2.0,11.0,-4.0
1701719089.7637737,6.0,7.0,-14.0,4.0,1.0,4.0,4.0,1.0
1701719089.7637737,3.0,2.0,-7.0,-4.0,-1.0,-5.0,-4.0,1.0
1701719089.7792673,-2.0,0.0,-5.0,3.0,-2.0,1.0,4.0,1.0
1701719089.7792673,-1.0,-1.0,7.0,-3.0,-1.0,-4.0,-1.0,-1.0
1701719089.7803097,-4.0,-2.0,-14.0,2.0,-3.0,-3.0,-7.0,-5.0
1701719089.7803097,-1.0,-2.0,2.0,4.0,0.0,-1.0,8.0,4.0
1701719089.8075304,1.0,-1.0,7.0,5.0,-2.0,-1.0,-8.0,-1.0
1701719089.8075304,-1.0,0.0,-14.0,-17.0,1.0,0.0,-5.0,-3.0
1701719089.8075304,-2.0,-1.0,23.0,14.0,-2.0,-1.0,1.0,-1.0
1701719089.8075304,-1.0,0.0,-3.0,-1.0,4.0,0.0,-1.0,1.0
1701719089.8245168,-1.0,-1.0,5.0,5.0,-2.0,-2.0,-2.0,-3.0
1701719089.8245168,0.0,0.0,-13.0,-5.0,-9.0,-1.0,-3.0,-3.0
1701719089.8245168,-4.0,-3.0,12.0,-6.0,2.0,-3.0,-5.0,-4.0
1701719089.8245168,-1.0,-4.0,3.0,10.0,-6.0,1.0,0.0,2.0
1701719089.8468854,1.0,-3.0,2.0,27.0,9.0,4.0,4.0,1.0
1701719089.8468854,0.0,-1.0,-9.0,-24.0,-14.0,-3.0,1.0,-1.0
1701719089.8488855,2.0,0.0,12.0,17.0,18.0,-1.0,-13.0,-1.0
1701719089.849885,-1.0,4.0,-17.0,-40.0,-13.0,-3.0,3.0,0.0
1701719089.8695917,0.0,-3.0,-27.0,-13.0,0.0,2.0,5.0,1.0
1701719089.8695917,-1.0,0.0,6.0,15.0,-4.0,-5.0,-7.0,-4.0
1701719089.8705611,-3.0,-4.0,-4.0,-12.0,-7.0,-4.0,-12.0,-5.0
1701719089.8705611,-2.0,-2.0,18.0,22.0,5.0,2.0,3.0,1.0
1701719089.8931205,-2.0,4.0,-8.0,-28.0,0.0,1.0,7.0,-1.0
1701719089.8931205,4.0,-2.0,8.0,11.0,4.0,-7.0,-24.0,2.0
1701719089.8941212,-1.0,0.0,-1.0,-10.0,-3.0,7.0,18.0,2.0
1701719089.8941212,-2.0,-1.0,2.0,17.0,5.0,2.0,7.0,-1.0
1701719089.9073532,-4.0,-4.0,-6.0,-9.0,-4.0,-4.0,-15.0,3.0
1701719089.9073532,0.0,4.0,25.0,2.0,1.0,-3.0,13.0,7.0
1701719089.9093459,3.0,-2.0,3.0,15.0,-2.0,-4.0,-5.0,4.0
1701719089.9093459,-1.0,-2.0,-33.0,-13.0,-1.0,-3.0,-10.0,0.0
1701719089.921762,0.0,-2.0,8.0,-5.0,-4.0,-1.0,-2.0,-2.0
1701719089.921762,-1.0,1.0,-14.0,0.0,3.0,2.0,10.0,-4.0
1701719089.921762,-2.0,-2.0,1.0,1.0,-3.0,-1.0,-4.0,0.0
1701719089.9227448,7.0,2.0,10.0,-5.0,0.0,2.0,13.0,-1.0
1701719089.9429674,-3.0,-4.0,-13.0,6.0,0.0,-2.0,3.0,1.0
1701719089.9429674,-1.0,3.0,-2.0,9.0,1.0,2.0,-4.0,-2.0
1701719089.9429674,-2.0,0.0,0.0,-1.0,-1.0,-3.0,-5.0,-2.0
1701719089.9429674,0.0,-3.0,-1.0,-11.0,-4.0,-4.0,-2.0,-1.0
1701719089.973018,0.0,-1.0,8.0,6.0,0.0,-1.0,-5.0,-2.0
1701719089.973018,1.0,6.0,4.0,6.0,4.0,2.0,2.0,-4.0
1701719089.973018,-5.0,-7.0,-6.0,-3.0,-4.0,-2.0,1.0,-5.0
1701719089.973018,10.0,0.0,5.0,-3.0,-1.0,-4.0,-9.0,0.0
1701719089.973018,-1.0,2.0,-11.0,-8.0,-3.0,0.0,-2.0,-4.0
1701719089.973018,-2.0,-1.0,4.0,5.0,0.0,3.0,8.0,0.0
1701719089.973018,-3.0,0.0,-3.0,-4.0,-1.0,-6.0,-7.0,-2.0
1701719089.983013,-4.0,-2.0,-4.0,1.0,-2.0,1.0,13.0,1.0
1701719090.0033362,3.0,-4.0,-17.0,-8.0,-2.0,-3.0,-1.0,0.0
1701719090.0033362,1.0,10.0,10.0,4.0,2.0,-2.0,-3.0,-3.0
1701719090.0033362,0.0,2.0,-17.0,-11.0,-4.0,-1.0,-2.0,-2.0
1701719090.0033362,-5.0,-3.0,10.0,3.0,-1.0,0.0,-4.0,-1.0
1701719090.0230715,2.0,7.0,-3.0,5.0,2.0,2.0,1.0,-3.0
1701719090.0230715,0.0,2.0,24.0,2.0,0.0,1.0,6.0,0.0
1701719090.0230715,-1.0,-3.0,-34.0,-4.0,-3.0,-3.0,-2.0,-2.0
1701719090.0230715,-1.0,-7.0,11.0,2.0,0.0,0.0,-4.0,-3.0
1701719090.0332954,1.0,-3.0,2.0,-4.0,-1.0,2.0,10.0,10.0
1701719090.0332954,-7.0,-4.0,11.0,10.0,3.0,-2.0,-3.0,-5.0
1701719090.043027,-2.0,-1.0,7.0,5.0,-4.0,-3.0,-10.0,-5.0
1701719090.043027,-1.0,0.0,-9.0,-14.0,1.0,-2.0,-4.0,-2.0
1701719090.0631132,-3.0,-3.0,10.0,16.0,-7.0,-5.0,-10.0,-3.0
1701719090.0631132,2.0,-9.0,-18.0,-34.0,0.0,1.0,8.0,3.0
1701719090.0631132,-2.0,-3.0,13.0,0.0,-5.0,1.0,9.0,0.0
1701719090.0631132,-4.0,-2.0,-11.0,13.0,3.0,0.0,-4.0,0.0
1701719090.0929615,0.0,-4.0,-3.0,-9.0,-5.0,-3.0,-1.0,-2.0
1701719090.0929615,-2.0,-7.0,-15.0,-6.0,-3.0,-1.0,-5.0,-2.0
1701719090.0929615,1.0,0.0,0.0,4.0,0.0,1.0,0.0,0.0
1701719090.0929615,-3.0,1.0,7.0,20.0,-6.0,-2.0,-2.0,-2.0
1701719090.0929615,-2.0,-4.0,-12.0,-15.0,11.0,1.0,4.0,-1.0
1701719090.0929615,0.0,-3.0,6.0,-14.0,1.0,-1.0,-2.0,-1.0
1701719090.103068,-1.0,1.0,-18.0,-1.0,0.0,-4.0,-3.0,0.0
1701719090.103068,-3.0,-5.0,1.0,-12.0,-9.0,-4.0,-5.0,0.0
1701719090.1235516,0.0,3.0,19.0,-8.0,-2.0,2.0,8.0,-1.0
1701719090.1235516,-1.0,-9.0,-29.0,37.0,-5.0,-5.0,-11.0,-5.0
1701719090.1235516,-12.0,2.0,3.0,-3.0,1.0,2.0,-1.0,1.0
1701719090.1235516,4.0,0.0,2.0,11.0,4.0,-3.0,3.0,0.0
1701719090.1432586,0.0,3.0,14.0,14.0,3.0,5.0,9.0,-6.0
1701719090.1432586,0.0,2.0,-18.0,-34.0,-1.0,-5.0,-13.0,5.0
1701719090.1432586,1.0,-2.0,13.0,14.0,1.0,1.0,2.0,1.0
1701719090.1432586,-2.0,-1.0,-19.0,-11.0,0.0,3.0,11.0,3.0
1701719090.160782,-2.0,-6.0,-4.0,-13.0,-1.0,-7.0,-10.0,-3.0
1701719090.160782,-3.0,-5.0,-3.0,8.0,-2.0,2.0,7.0,-4.0
1701719090.1683655,4.0,1.0,4.0,-5.0,-3.0,-7.0,-13.0,-3.0
1701719090.1683655,-2.0,7.0,-8.0,-8.0,4.0,4.0,-5.0,0.0
1701719090.1863093,3.0,-16.0,1.0,-1.0,-6.0,-4.0,-4.0,-2.0
1701719090.1863093,-7.0,-2.0,20.0,8.0,-2.0,-1.0,-16.0,-5.0
1701719090.1863093,1.0,-2.0,-23.0,-8.0,1.0,0.0,2.0,-3.0
1701719090.1863093,2.0,3.0,-2.0,-8.0,-1.0,1.0,8.0,-2.0
1701719090.2063084,1.0,9.0,41.0,11.0,-4.0,-5.0,-2.0,1.0
1701719090.2063084,-3.0,-4.0,-16.0,1.0,0.0,-1.0,-3.0,-3.0
1701719090.2063084,-1.0,-4.0,15.0,2.0,4.0,3.0,4.0,1.0
1701719090.2063084,-2.0,-9.0,-70.0,-17.0,-3.0,-4.0,-6.0,-2.0
1701719090.2164962,0.0,11.0,37.0,4.0,0.0,1.0,-4.0,1.0
1701719090.2164962,-8.0,-25.0,-50.0,-20.0,-8.0,-5.0,-3.0,-4.0
1701719090.2266657,1.0,-2.0,22.0,0.0,-1.0,1.0,6.0,-1.0
1701719090.2266657,1.0,5.0,38.0,29.0,1.0,0.0,-4.0,-1.0
1701719090.2463078,-4.0,-9.0,-94.0,-46.0,-2.0,-2.0,-2.0,0.0
1701719090.2463078,-2.0,4.0,57.0,38.0,4.0,0.0,1.0,-3.0
1701719090.2463078,1.0,6.0,1.0,-3.0,0.0,0.0,1.0,-1.0
1701719090.2463078,1.0,7.0,48.0,4.0,2.0,1.0,-3.0,-2.0
1701719090.2664838,-7.0,-15.0,-34.0,-5.0,5.0,-2.0,-3.0,-2.0
1701719090.2664838,3.0,4.0,-18.0,2.0,-3.0,0.0,5.0,2.0
1701719090.2664838,-3.0,-11.0,-43.0,-35.0,0.0,-3.0,-2.0,0.0
1701719090.2664838,1.0,17.0,63.0,5.0,-3.0,-2.0,-2.0,0.0
1701719090.2822313,-6.0,-23.0,-4.0,51.0,-1.0,-1.0,0.0,-3.0
1701719090.2822313,1.0,10.0,-43.0,-45.0,-3.0,0.0,3.0,0.0
1701719090.28323,3.0,20.0,66.0,19.0,2.0,1.0,1.0,1.0
1701719090.28323,-6.0,-34.0,-62.0,-5.0,-3.0,-2.0,-2.0,-5.0
1701719090.3172333,0.0,12.0,-6.0,-11.0,-5.0,-1.0,0.0,1.0
1701719090.3172333,2.0,5.0,-2.0,-12.0,1.0,2.0,0.0,1.0
1701719090.3172333,1.0,-2.0,60.0,7.0,-2.0,0.0,2.0,-1.0
1701719090.3172333,-1.0,12.0,-24.0,1.0,2.0,-1.0,-2.0,-2.0
1701719090.3272383,5.0,4.0,14.0,8.0,-2.0,0.0,-1.0,0.0
1701719090.3272383,-3.0,1.0,-18.0,7.0,-1.0,-3.0,-2.0,-1.0
1701719090.3272383,-2.0,-2.0,-10.0,-4.0,-4.0,-4.0,-3.0,0.0
1701719090.3272383,-2.0,-4.0,-6.0,-14.0,2.0,1.0,0.0,-3.0
1701719090.3412411,2.0,-3.0,-29.0,0.0,-5.0,-3.0,-5.0,3.0
1701719090.3412411,-13.0,7.0,47.0,6.0,-1.0,-1.0,-2.0,0.0
1701719090.3496184,11.0,3.0,-14.0,-3.0,-4.0,2.0,7.0,-4.0
1701719090.3496184,-2.0,-14.0,-18.0,3.0,-3.0,-3.0,-4.0,0.0
1701719090.368177,2.0,4.0,17.0,-7.0,0.0,0.0,8.0,14.0
1701719090.368177,-3.0,-7.0,18.0,1.0,-2.0,-1.0,-9.0,-30.0
1701719090.368177,-3.0,1.0,-7.0,3.0,-2.0,-2.0,-12.0,3.0
1701719090.368177,-3.0,8.0,9.0,12.0,0.0,0.0,5.0,1.0
1701719090.386837,-1.0,0.0,-4.0,-25.0,-2.0,1.0,-1.0,-3.0
1701719090.386837,-2.0,5.0,-17.0,5.0,3.0,-2.0,9.0,9.0
1701719090.389153,-3.0,-6.0,-7.0,5.0,-3.0,-3.0,-5.0,-3.0
1701719090.389153,-1.0,-4.0,10.0,-4.0,-3.0,-4.0,-7.0,-8.0
1701719090.4011953,-7.0,0.0,0.0,-4.0,-1.0,0.0,0.0,-1.0
1701719090.4011953,5.0,-2.0,13.0,13.0,0.0,0.0,-3.0,-1.0
1701719090.409186,-1.0,-4.0,-13.0,-8.0,0.0,1.0,6.0,0.0
1701719090.409186,-6.0,-5.0,6.0,-10.0,-2.0,-1.0,-3.0,2.0
1701719090.4242165,1.0,1.0,18.0,13.0,-1.0,-7.0,-10.0,-12.0
1701719090.4242165,6.0,0.0,10.0,1.0,-1.0,-1.0,-1.0,3.0
1701719090.4249892,-2.0,-6.0,-25.0,-12.0,-3.0,-3.0,0.0,0.0
1701719090.4249892,2.0,3.0,0.0,-6.0,0.0,1.0,1.0,3.0
1701719090.4469476,-6.0,-2.0,-1.0,8.0,1.0,2.0,-1.0,-3.0
1701719090.4469476,2.0,-2.0,5.0,6.0,1.0,1.0,1.0,4.0
1701719090.4469476,-5.0,-6.0,-27.0,-10.0,-3.0,-1.0,-1.0,-1.0
1701719090.4479852,-1.0,-3.0,9.0,21.0,-1.0,-1.0,-3.0,-1.0
1701719090.4802396,-1.0,2.0,-20.0,-41.0,-8.0,-3.0,-4.0,-5.0
1701719090.4802396,0.0,-4.0,-18.0,4.0,5.0,1.0,2.0,4.0
1701719090.4872415,-5.0,-3.0,8.0,5.0,-4.0,-6.0,-19.0,-5.0
1701719090.4872415,-1.0,1.0,1.0,-22.0,-7.0,-1.0,10.0,2.0
1701719090.4892406,1.0,0.0,-9.0,-12.0,-5.0,3.0,7.0,1.0
1701719090.4892406,0.0,0.0,22.0,30.0,1.0,-3.0,-2.0,1.0
1701719090.4892406,3.0,-6.0,-61.0,-59.0,-5.0,0.0,4.0,-4.0
1701719090.4892406,-7.0,3.0,56.0,48.0,1.0,-4.0,-12.0,3.0
1701719090.5152075,-2.0,4.0,6.0,-6.0,-1.0,-3.0,-10.0,-3.0
1701719090.5152075,0.0,-5.0,-10.0,12.0,-1.0,-1.0,-2.0,0.0
1701719090.5152075,1.0,2.0,-1.0,11.0,3.0,2.0,15.0,-1.0
1701719090.5152075,10.0,0.0,-20.0,-24.0,-1.0,-2.0,-5.0,-3.0
1701719090.5213568,1.0,0.0,3.0,1.0,0.0,0.0,1.0,1.0
1701719090.5213568,-3.0,-3.0,-9.0,-2.0,1.0,-1.0,-11.0,-19.0
1701719090.532352,-6.0,-3.0,11.0,10.0,-2.0,0.0,3.0,1.0
1701719090.532352,2.0,3.0,-3.0,-18.0,-1.0,1.0,-2.0,-15.0
1701719090.5443676,0.0,1.0,-6.0,26.0,4.0,-2.0,-7.0,-5.0
1701719090.5443676,5.0,-4.0,-11.0,-19.0,-3.0,-3.0,3.0,3.0
1701719090.5443676,-1.0,-1.0,16.0,2.0,1.0,2.0,3.0,2.0
1701719090.5443676,-10.0,-4.0,-27.0,6.0,1.0,3.0,5.0,2.0
1701719090.5671613,-1.0,3.0,20.0,-1.0,-2.0,2.0,-1.0,1.0
1701719090.5671613,-4.0,-7.0,-24.0,-16.0,-5.0,-12.0,-13.0,-5.0
1701719090.5671613,5.0,10.0,-6.0,-8.0,1.0,2.0,1.0,0.0
1701719090.5681775,-1.0,-4.0,1.0,8.0,2.0,-3.0,-4.0,1.0
1701719090.5812132,0.0,-3.0,12.0,8.0,0.0,1.0,4.0,0.0
1701719090.5812132,0.0,4.0,-2.0,-11.0,-4.0,3.0,8.0,4.0
1701719090.5936244,-6.0,-11.0,1.0,16.0,1.0,-2.0,-7.0,-1.0
1701719090.5936244,9.0,2.0,14.0,-17.0,-4.0,-2.0,-4.0,-2.0
1701719090.6046438,-4.0,-6.0,-14.0,2.0,-1.0,-2.0,7.0,0.0
1701719090.6046438,-4.0,3.0,27.0,-6.0,0.0,3.0,5.0,5.0
1701719090.6046438,-1.0,-5.0,-38.0,0.0,-1.0,-1.0,-5.0,-1.0
1701719090.6046438,-4.0,-3.0,19.0,-13.0,1.0,-1.0,-1.0,-2.0
1701719090.638005,0.0,0.0,25.0,27.0,-3.0,-6.0,-5.0,-2.0
1701719090.638005,3.0,2.0,-32.0,-15.0,-1.0,3.0,3.0,4.0
1701719090.638005,-3.0,-1.0,23.0,-17.0,-2.0,2.0,-2.0,-4.0
1701719090.638005,-1.0,1.0,-20.0,3.0,-6.0,-2.0,2.0,0.0
1701719090.649444,-4.0,2.0,24.0,43.0,2.0,-1.0,-7.0,-2.0
1701719090.649444,-2.0,-1.0,16.0,10.0,5.0,-1.0,-4.0,1.0
1701719090.649444,-1.0,0.0,3.0,1.0,1.0,-1.0,0.0,-3.0
1701719090.650464,-1.0,-4.0,-32.0,-15.0,-13.0,-4.0,-2.0,0.0
1701719090.6645527,-2.0,-3.0,-3.0,-19.0,-15.0,-2.0,0.0,-1.0
1701719090.6645527,2.0,-1.0,-13.0,-5.0,36.0,9.0,5.0,4.0
1701719090.6645527,-2.0,-2.0,16.0,14.0,0.0,-5.0,-4.0,0.0
1701719090.6645527,-2.0,-1.0,-9.0,1.0,-1.0,0.0,0.0,-1.0
1701719090.686957,1.0,-2.0,-13.0,-12.0,-1.0,-3.0,-2.0,-2.0
1701719090.6879451,-2.0,-3.0,6.0,0.0,-14.0,0.0,2.0,-1.0
1701719090.690927,0.0,2.0,6.0,6.0,10.0,-1.0,-1.0,0.0
1701719090.6919184,-1.0,-1.0,6.0,3.0,0.0,-2.0,0.0,0.0
1701719090.7089252,1.0,0.0,-15.0,-11.0,1.0,-1.0,1.0,0.0
1701719090.7099218,-2.0,-1.0,16.0,-9.0,-7.0,-4.0,-3.0,-3.0
1701719090.7099218,-1.0,-3.0,-10.0,0.0,-7.0,-3.0,-1.0,0.0
1701719090.7099218,-1.0,0.0,19.0,38.0,0.0,1.0,-1.0,1.0
1701719090.7249277,-3.0,1.0,-1.0,-53.0,-5.0,-1.0,2.0,-2.0
1701719090.7249277,-1.0,1.0,-6.0,6.0,-5.0,-4.0,-4.0,0.0
1701719090.7249277,-8.0,-2.0,-2.0,-2.0,-6.0,-2.0,1.0,-5.0
1701719090.7249277,-2.0,-3.0,11.0,18.0,7.0,2.0,2.0,-3.0
1701719090.762505,-2.0,0.0,-7.0,4.0,4.0,-2.0,-5.0,0.0
1701719090.762505,2.0,-2.0,-2.0,-1.0,-2.0,2.0,7.0,1.0
1701719090.762505,-6.0,1.0,-1.0,-5.0,-5.0,-2.0,-4.0,-5.0
1701719090.762505,-5.0,-2.0,-5.0,-5.0,3.0,0.0,-2.0,-2.0
1701719090.7695642,0.0,-1.0,8.0,8.0,4.0,-2.0,1.0,-1.0
1701719090.7695642,1.0,-1.0,4.0,-12.0,-10.0,-4.0,-5.0,6.0
1701719090.7695642,0.0,0.0,8.0,14.0,1.0,-1.0,-2.0,-12.0
1701719090.7695642,-5.0,-2.0,-5.0,-5.0,2.0,-1.0,-1.0,-2.0
1701719090.7846236,-4.0,-5.0,-51.0,-23.0,-4.0,-3.0,-6.0,-10.0
1701719090.7846236,-3.0,0.0,11.0,4.0,-4.0,1.0,3.0,0.0
1701719090.7846236,0.0,5.0,34.0,13.0,3.0,-1.0,9.0,4.0
1701719090.7846236,0.0,-1.0,-40.0,-23.0,-2.0,-4.0,-7.0,0.0
1701719090.8069465,2.0,-11.0,-21.0,4.0,1.0,2.0,10.0,2.0
1701719090.8069465,-5.0,-3.0,40.0,4.0,-6.0,-3.0,-4.0,-6.0
1701719090.8079503,-5.0,-4.0,-57.0,-24.0,0.0,0.0,-4.0,0.0
1701719090.8079503,-1.0,4.0,21.0,-1.0,0.0,0.0,-1.0,-1.0
1701719090.8309267,3.0,4.0,18.0,17.0,3.0,1.0,-3.0,3.0
1701719090.8309267,-2.0,7.0,10.0,-2.0,-2.0,-2.0,-2.0,-2.0
1701719090.8309267,2.0,-11.0,2.0,0.0,-5.0,-3.0,-2.0,2.0
1701719090.8309267,-2.0,-3.0,-18.0,-3.0,-2.0,-5.0,-2.0,2.0
1701719090.8442852,-2.0,3.0,10.0,1.0,1.0,3.0,-1.0,-2.0
1701719090.8442852,1.0,-1.0,16.0,4.0,-2.0,-1.0,0.0,0.0
1701719090.8452985,1.0,3.0,24.0,-3.0,-3.0,0.0,-4.0,1.0
1701719090.8452985,-1.0,-4.0,-30.0,5.0,3.0,-2.0,0.0,-2.0
1701719090.8672943,1.0,0.0,17.0,-7.0,1.0,1.0,1.0,0.0
1701719090.8672943,4.0,2.0,-35.0,-16.0,2.0,0.0,2.0,1.0
1701719090.8672943,0.0,-1.0,25.0,77.0,5.0,-3.0,-4.0,0.0
1701719090.8672943,-6.0,7.0,12.0,-26.0,-4.0,1.0,1.0,0.0
1701719090.8892548,-3.0,-14.0,-19.0,-1.0,0.0,-1.0,0.0,0.0
1701719090.8892548,-4.0,-6.0,-17.0,-20.0,-4.0,-2.0,-2.0,-2.0
1701719090.8902626,3.0,3.0,4.0,-12.0,-2.0,0.0,-1.0,-1.0
1701719090.8902626,0.0,0.0,-9.0,7.0,1.0,-1.0,-1.0,-1.0
1701719090.904621,-1.0,0.0,-5.0,6.0,-2.0,-3.0,-1.0,-2.0
1701719090.904621,-1.0,-2.0,-3.0,-16.0,-3.0,-1.0,-1.0,-2.0
1701719090.904621,-1.0,-1.0,-12.0,-19.0,-5.0,-1.0,-2.0,-1.0
1701719090.904621,3.0,1.0,19.0,19.0,0.0,-1.0,-1.0,-3.0
1701719090.9274693,-3.0,1.0,14.0,-1.0,0.0,-2.0,-2.0,1.0
1701719090.9274693,1.0,-6.0,-13.0,-3.0,-3.0,-3.0,-1.0,-1.0
1701719090.9274693,-2.0,2.0,21.0,9.0,2.0,2.0,0.0,1.0
1701719090.9274693,2.0,-2.0,-3.0,-15.0,-4.0,-1.0,0.0,-1.0
1701719090.9490783,-3.0,-2.0,10.0,5.0,-2.0,-2.0,-3.0,-3.0
1701719090.9490783,-3.0,-14.0,15.0,20.0,0.0,-1.0,0.0,-1.0
1701719090.9498239,-1.0,-6.0,-56.0,-45.0,-3.0,0.0,-1.0,0.0
1701719090.9498239,-2.0,4.0,24.0,12.0,-1.0,0.0,-3.0,-1.0
1701719090.964658,1.0,8.0,38.0,9.0,0.0,-1.0,1.0,0.0
1701719090.964658,0.0,5.0,-46.0,-8.0,-1.0,-2.0,-3.0,-1.0
1701719090.964658,-1.0,-3.0,10.0,-1.0,-2.0,0.0,0.0,1.0
1701719090.964658,7.0,-14.0,-20.0,-18.0,-2.0,-2.0,-2.0,-2.0
1701719090.9956036,-13.0,1.0,-7.0,-4.0,-3.0,-2.0,-5.0,-3.0
1701719090.9956036,7.0,4.0,6.0,5.0,-2.0,-2.0,-2.0,-4.0
1701719090.9965467,2.0,8.0,30.0,1.0,0.0,1.0,3.0,6.0
1701719090.9965467,0.0,-5.0,-18.0,8.0,2.0,0.0,-3.0,5.0
1701719091.0096128,3.0,-1.0,-19.0,-12.0,-3.0,-2.0,-2.0,-4.0
1701719091.0096128,-2.0,-1.0,15.0,5.0,4.0,3.0,-2.0,3.0
1701719091.0096128,-1.0,1.0,10.0,13.0,1.0,2.0,6.0,5.0
1701719091.0096128,1.0,0.0,15.0,-9.0,-3.0,-2.0,-11.0,-5.0
1701719091.0276833,-3.0,-4.0,-28.0,-6.0,-2.0,-6.0,-5.0,-1.0
1701719091.0276833,-6.0,2.0,0.0,3.0,1.0,3.0,11.0,-9.0
1701719091.0276833,3.0,-3.0,-6.0,6.0,-3.0,-9.0,-12.0,3.0
1701719091.0276833,-3.0,3.0,11.0,-6.0,0.0,1.0,2.0,3.0
1701719091.047078,-1.0,-1.0,-7.0,-4.0,0.0,-1.0,0.0,-3.0
1701719091.047078,-3.0,2.0,-2.0,0.0,-5.0,-2.0,-5.0,-3.0
1701719091.047078,-1.0,-4.0,-14.0,-13.0,0.0,3.0,3.0,-3.0
1701719091.047078,1.0,1.0,3.0,8.0,2.0,0.0,2.0,-1.0
1701719091.0697231,1.0,-5.0,-7.0,9.0,-2.0,-3.0,-2.0,0.0
1701719091.0697231,4.0,-1.0,-9.0,-13.0,-1.0,0.0,1.0,4.0
1701719091.0697231,-6.0,-7.0,-11.0,-6.0,-1.0,-3.0,-1.0,-4.0
1701719091.0697231,-3.0,1.0,0.0,-25.0,-2.0,0.0,-1.0,-2.0
1701719091.0867376,3.0,7.0,19.0,19.0,-11.0,1.0,3.0,1.0
1701719091.0867376,-4.0,-1.0,-26.0,-23.0,6.0,0.0,-1.0,-1.0
1701719091.0917375,-3.0,-4.0,27.0,66.0,4.0,-4.0,-5.0,-6.0
1701719091.0917375,-1.0,-2.0,-42.0,-27.0,-5.0,-3.0,2.0,0.0
1701719091.1070628,-1.0,-2.0,47.0,10.0,9.0,-1.0,-1.0,-3.0
1701719091.1070628,-2.0,-2.0,15.0,-2.0,-7.0,-5.0,-4.0,-1.0
1701719091.1070628,0.0,5.0,4.0,1.0,3.0,1.0,-1.0,-4.0
1701719091.1070628,0.0,0.0,29.0,39.0,-2.0,-1.0,0.0,-1.0
1701719091.1295278,-1.0,-2.0,-42.0,-23.0,0.0,3.0,1.0,1.0
1701719091.1295278,-2.0,-2.0,7.0,9.0,-2.0,0.0,-2.0,-1.0
1701719091.1295278,0.0,-1.0,0.0,-18.0,-1.0,0.0,1.0,-2.0
1701719091.1295278,-5.0,-6.0,-1.0,-7.0,-7.0,-4.0,-2.0,-1.0
1701719091.142689,0.0,-2.0,-16.0,-18.0,-3.0,-2.0,-5.0,-1.0
1701719091.142689,-3.0,0.0,4.0,15.0,2.0,-1.0,1.0,0.0
1701719091.142689,0.0,1.0,-5.0,-14.0,-5.0,-3.0,-3.0,-2.0
1701719091.142689,0.0,-1.0,6.0,8.0,1.0,-1.0,0.0,-2.0
1701719091.163076,-1.0,2.0,-10.0,-2.0,-1.0,1.0,-2.0,-1.0
1701719091.163076,-1.0,-4.0,0.0,6.0,1.0,-2.0,-3.0,-1.0
1701719091.163076,4.0,-1.0,-6.0,-4.0,-1.0,1.0,-2.0,-2.0
1701719091.163076,-2.0,2.0,-2.0,-5.0,0.0,-2.0,1.0,-1.0
1701719091.1928506,-1.0,-3.0,15.0,9.0,5.0,-1.0,2.0,-1.0
1701719091.1928506,-7.0,1.0,2.0,8.0,-3.0,-3.0,-4.0,-5.0
1701719091.1928506,-4.0,-4.0,-24.0,-24.0,-2.0,0.0,-1.0,-6.0
1701719091.1928506,7.0,8.0,1.0,2.0,1.0,1.0,-3.0,2.0
1701719091.2026925,2.0,0.0,-2.0,6.0,0.0,1.0,6.0,3.0
1701719091.2026925,-3.0,-4.0,-26.0,-15.0,-3.0,-1.0,-3.0,2.0
1701719091.2026925,-1.0,-1.0,-11.0,-5.0,-1.0,2.0,7.0,-3.0
1701719091.2026925,10.0,7.0,0.0,1.0,1.0,0.0,2.0,1.0
1701719091.22787,-8.0,-3.0,10.0,-5.0,-2.0,-3.0,-6.0,-2.0
1701719091.22787,4.0,-14.0,5.0,-2.0,-1.0,-4.0,-4.0,-2.0
1701719091.22787,-1.0,3.0,3.0,4.0,-4.0,-3.0,-2.0,1.0
1701719091.2289002,-5.0,-6.0,-23.0,0.0,-1.0,0.0,-1.0,-1.0
1701719091.2421033,3.0,-4.0,-5.0,-8.0,-2.0,-4.0,0.0,-1.0
1701719091.2421033,-2.0,1.0,10.0,10.0,-1.0,0.0,-1.0,-1.0
1701719091.2421033,-3.0,-3.0,12.0,-5.0,-7.0,-1.0,-4.0,-1.0
1701719091.2421033,-7.0,-4.0,-16.0,5.0,1.0,-1.0,-3.0,-3.0
1701719091.2720997,0.0,3.0,-9.0,-2.0,3.0,1.0,1.0,-2.0
1701719091.2720997,0.0,0.0,8.0,-3.0,-18.0,-2.0,1.0,-1.0
1701719091.2720997,1.0,-3.0,0.0,-9.0,17.0,0.0,-4.0,1.0
1701719091.2720997,-1.0,0.0,2.0,10.0,-2.0,1.0,2.0,-3.0
1701719091.2923028,-1.0,3.0,18.0,7.0,0.0,-1.0,-1.0,-1.0
1701719091.2923028,2.0,-1.0,-9.0,41.0,1.0,-1.0,0.0,3.0
1701719091.2923028,-5.0,4.0,15.0,-30.0,-12.0,-7.0,-5.0,-1.0
1701719091.2923028,-2.0,-8.0,-13.0,-47.0,-6.0,0.0,1.0,1.0
1701719091.3023922,1.0,-3.0,6.0,8.0,2.0,1.0,-1.0,0.0
1701719091.3023922,-1.0,0.0,-20.0,1.0,-6.0,-3.0,-1.0,-1.0
1701719091.3023922,1.0,1.0,-17.0,8.0,2.0,2.0,1.0,1.0
1701719091.3023922,-4.0,-2.0,19.0,5.0,0.0,-3.0,-2.0,-2.0
1701719091.3220987,-1.0,1.0,-4.0,-7.0,-3.0,-2.0,-2.0,-2.0
1701719091.3220987,1.0,0.0,-11.0,-10.0,7.0,0.0,-2.0,-2.0
1701719091.3220987,-2.0,-10.0,-7.0,8.0,4.0,-1.0,1.0,0.0
1701719091.3220987,1.0,-1.0,8.0,0.0,0.0,-1.0,-2.0,-1.0
1701719091.342154,-6.0,0.0,0.0,0.0,-6.0,-2.0,-2.0,0.0
1701719091.342154,7.0,0.0,-4.0,-13.0,5.0,-1.0,-6.0,-4.0
1701719091.342154,-3.0,3.0,16.0,14.0,1.0,2.0,2.0,0.0
1701719091.342154,-1.0,-4.0,4.0,1.0,-4.0,-1.0,0.0,0.0
1701719091.3720992,0.0,0.0,-23.0,-9.0,0.0,0.0,-1.0,-1.0
1701719091.3720992,-7.0,-5.0,19.0,-4.0,1.0,-3.0,-7.0,-1.0
1701719091.3720992,1.0,-2.0,-10.0,-8.0,-6.0,-1.0,7.0,-1.0
1701719091.3720992,-2.0,0.0,-8.0,5.0,2.0,0.0,-4.0,-7.0
1701719091.3824568,-1.0,1.0,27.0,6.0,0.0,-1.0,1.0,1.0
1701719091.3824568,-1.0,-6.0,-19.0,-14.0,2.0,1.0,2.0,2.0
1701719091.3920996,-1.0,1.0,7.0,3.0,-5.0,-3.0,-2.0,-3.0
1701719091.3920996,-5.0,1.0,-1.0,0.0,2.0,0.0,0.0,1.0
1701719091.4021006,1.0,-11.0,-23.0,-17.0,-3.0,-1.0,1.0,0.0
1701719091.4021006,1.0,9.0,25.0,19.0,-2.0,-1.0,-3.0,-3.0
1701719091.4021006,-1.0,-4.0,-18.0,-5.0,-3.0,1.0,-3.0,1.0
1701719091.4021006,-2.0,1.0,-11.0,-3.0,-1.0,0.0,-2.0,-2.0
1701719091.4221008,0.0,-6.0,5.0,-1.0,0.0,0.0,-4.0,-2.0
1701719091.4221008,-4.0,5.0,11.0,-2.0,-2.0,-1.0,2.0,0.0
1701719091.4221008,7.0,-2.0,-21.0,-8.0,-2.0,-2.0,-4.0,0.0
1701719091.4221008,5.0,-8.0,5.0,3.0,-1.0,-1.0,-1.0,-1.0
1701719091.4421349,-9.0,1.0,6.0,0.0,-8.0,-1.0,-1.0,-2.0
1701719091.4421349,-4.0,3.0,9.0,4.0,3.0,2.0,4.0,0.0
1701719091.4521003,-2.0,-2.0,-17.0,0.0,3.0,1.0,-1.0,-1.0
1701719091.4521003,-3.0,0.0,6.0,1.0,2.0,-4.0,-3.0,-3.0
1701719091.4620988,4.0,-3.0,-5.0,-5.0,-1.0,-2.0,1.0,-1.0
1701719091.4620988,0.0,7.0,3.0,-4.0,-2.0,-1.0,2.0,2.0
1701719091.4620988,-4.0,-2.0,-4.0,-8.0,-5.0,-2.0,-3.0,-3.0
1701719091.4620988,-1.0,-2.0,12.0,-5.0,0.0,2.0,1.0,-1.0
1701719091.4821029,-1.0,-4.0,32.0,24.0,-8.0,-2.0,-2.0,0.0
1701719091.4821029,0.0,-3.0,-11.0,-5.0,-3.0,0.0,-1.0,-3.0
1701719091.4821029,2.0,0.0,3.0,1.0,18.0,3.0,1.0,1.0
1701719091.4821029,-3.0,1.0,-4.0,-6.0,-12.0,-4.0,-1.0,2.0
1701719091.5021029,1.0,1.0,13.0,7.0,12.0,0.0,0.0,0.0
1701719091.5021029,-1.0,-1.0,-13.0,-4.0,-9.0,-1.0,-2.0,-2.0
1701719091.512102,-6.0,-4.0,0.0,-18.0,-9.0,-2.0,-2.0,-1.0
1701719091.512102,0.0,-1.0,-7.0,5.0,0.0,0.0,-1.0,-2.0
1701719091.5221386,3.0,3.0,-8.0,-4.0,-5.0,-3.0,-3.0,-1.0
1701719091.5221386,-1.0,-2.0,-4.0,2.0,3.0,-1.0,1.0,-1.0
1701719091.5321012,1.0,3.0,-25.0,-2.0,-2.0,-1.0,-2.0,-1.0
1701719091.5321012,-1.0,-2.0,3.0,-12.0,-3.0,-2.0,-2.0,0.0
1701719091.5421002,-1.0,-3.0,-12.0,14.0,1.0,1.0,0.0,-3.0
1701719091.5421002,-3.0,2.0,-1.0,-17.0,-1.0,-2.0,1.0,-2.0
1701719091.5421002,1.0,-2.0,33.0,9.0,-1.0,-1.0,-1.0,-1.0
1701719091.5421002,0.0,-6.0,-11.0,0.0,-2.0,-1.0,-1.0,-1.0
1701719091.5620997,2.0,-1.0,-22.0,-4.0,3.0,3.0,5.0,1.0
1701719091.5620997,1.0,-4.0,7.0,2.0,1.0,-1.0,0.0,-1.0
1701719091.5721004,-3.0,0.0,10.0,-6.0,1.0,-1.0,-1.0,-1.0
1701719091.5721004,1.0,0.0,-1.0,9.0,0.0,1.0,-2.0,-1.0
1701719091.5820992,2.0,6.0,4.0,-6.0,1.0,-2.0,-4.0,-2.0
1701719091.5820992,-2.0,-6.0,-1.0,-5.0,0.0,0.0,0.0,1.0
1701719091.5820992,-2.0,3.0,1.0,1.0,-7.0,-3.0,-2.0,0.0
1701719091.5820992,-3.0,-2.0,0.0,0.0,-1.0,1.0,1.0,-2.0
1701719091.6021,0.0,1.0,1.0,-2.0,0.0,-3.0,-1.0,-1.0
1701719091.6021,-1.0,-1.0,8.0,4.0,-2.0,-2.0,-2.0,-2.0
1701719091.6021,1.0,0.0,-53.0,-2.0,6.0,-1.0,-2.0,-2.0
1701719091.6021,1.0,2.0,-1.0,1.0,2.0,-1.0,-1.0,-1.0
1701719091.6221302,-2.0,5.0,5.0,-15.0,-6.0,-1.0,-2.0,-3.0
1701719091.6221302,1.0,-4.0,-3.0,4.0,3.0,3.0,0.0,-1.0
1701719091.6321003,-1.0,0.0,15.0,7.0,-2.0,-1.0,-1.0,0.0
1701719091.6321003,-3.0,0.0,-2.0,-1.0,-3.0,-2.0,1.0,1.0
1701719091.6421018,7.0,-1.0,-4.0,0.0,-1.0,-2.0,-1.0,0.0
1701719091.6421018,-12.0,-8.0,3.0,-6.0,-1.0,-1.0,-2.0,-2.0
1701719091.6421018,-2.0,-2.0,-7.0,6.0,-2.0,-2.0,0.0,-2.0
1701719091.6421018,0.0,-3.0,2.0,-5.0,-1.0,-2.0,0.0,-2.0
1701719091.6621013,-4.0,-3.0,5.0,0.0,-1.0,-1.0,-1.0,1.0
1701719091.6621013,2.0,-1.0,-10.0,-1.0,2.0,-2.0,-2.0,0.0
1701719091.6621013,0.0,-3.0,11.0,-1.0,-5.0,0.0,3.0,-1.0
1701719091.6621013,-1.0,6.0,-3.0,3.0,-2.0,1.0,-2.0,0.0
1701719091.6822133,-3.0,0.0,15.0,7.0,7.0,0.0,-3.0,-2.0
1701719091.6822133,-1.0,-4.0,-28.0,-20.0,-3.0,-3.0,-1.0,-1.0
1701719091.692103,0.0,-5.0,-3.0,4.0,-2.0,-1.0,-3.0,-1.0
1701719091.692103,1.0,-3.0,-8.0,-6.0,2.0,-2.0,0.0,1.0
1701719091.7121017,-2.0,0.0,15.0,5.0,-5.0,-1.0,0.0,-1.0
1701719091.7121017,4.0,4.0,16.0,11.0,1.0,-1.0,-3.0,-1.0
1701719091.7121017,-1.0,-2.0,5.0,0.0,-3.0,-1.0,-1.0,0.0
1701719091.7121017,-3.0,-1.0,-7.0,-9.0,2.0,-2.0,0.0,0.0
1701719091.7221334,-2.0,-1.0,-30.0,-9.0,-3.0,0.0,-1.0,-1.0
1701719091.7221334,0.0,-4.0,-13.0,-3.0,0.0,-3.0,-2.0,0.0
1701719091.7221334,-1.0,1.0,27.0,7.0,-2.0,-1.0,-3.0,-1.0
1701719091.7221334,3.0,-1.0,12.0,-13.0,0.0,1.0,0.0,-1.0
1701719091.7511773,-13.0,2.0,12.0,34.0,0.0,-3.0,-9.0,-3.0
1701719091.7511773,0.0,2.0,-11.0,-15.0,-2.0,0.0,8.0,-2.0
1701719091.763175,5.0,1.0,-19.0,-8.0,-1.0,-3.0,-5.0,-2.0
1701719091.763175,-6.0,-1.0,9.0,8.0,2.0,0.0,0.0,1.0
1701719091.7661781,0.0,-10.0,-24.0,-5.0,-1.0,0.0,2.0,0.0
1701719091.7661781,-1.0,2.0,26.0,8.0,1.0,2.0,0.0,-2.0
1701719091.7671812,0.0,2.0,-2.0,-1.0,-2.0,-1.0,-3.0,-2.0
1701719091.7671812,-2.0,-3.0,1.0,2.0,-2.0,-2.0,-1.0,-1.0
1701719091.784722,1.0,-1.0,-4.0,-2.0,-1.0,-1.0,-5.0,-1.0
1701719091.784722,-1.0,-1.0,5.0,3.0,0.0,-1.0,-3.0,-1.0
1701719091.784722,-4.0,-3.0,-10.0,-9.0,-2.0,0.0,0.0,0.0
1701719091.784722,-1.0,0.0,5.0,8.0,-1.0,-2.0,-3.0,-4.0
1701719091.8047647,-2.0,1.0,3.0,6.0,0.0,0.0,-3.0,-1.0
1701719091.8047647,2.0,1.0,-3.0,-8.0,-2.0,0.0,-1.0,2.0
1701719091.814404,-3.0,-3.0,1.0,-3.0,-1.0,0.0,8.0,3.0
1701719091.814404,-9.0,-4.0,-16.0,-6.0,-6.0,-4.0,-5.0,-19.0
1701719091.8244376,3.0,0.0,6.0,2.0,-1.0,1.0,2.0,4.0
1701719091.8244376,2.0,0.0,9.0,-9.0,-2.0,0.0,-5.0,-1.0
1701719091.8244376,-4.0,0.0,-2.0,9.0,2.0,0.0,2.0,3.0
1701719091.8244376,2.0,-1.0,-11.0,-2.0,-1.0,1.0,0.0,0.0
1701719091.8448656,-9.0,1.0,-14.0,-10.0,-1.0,-2.0,-1.0,-4.0
1701719091.8448656,5.0,-2.0,3.0,10.0,0.0,-2.0,0.0,-4.0
1701719091.8448656,0.0,-4.0,7.0,7.0,-1.0,-2.0,0.0,-4.0
1701719091.8448656,2.0,-3.0,-15.0,-9.0,-4.0,-6.0,-8.0,0.0
1701719091.8644009,-1.0,6.0,-1.0,-5.0,-2.0,-5.0,-11.0,0.0
1701719091.8644009,-3.0,-6.0,-27.0,-8.0,-3.0,0.0,3.0,-6.0
1701719091.8644009,-3.0,-8.0,-1.0,0.0,-1.0,-3.0,-4.0,-4.0
1701719091.8644009,1.0,7.0,12.0,3.0,1.0,4.0,17.0,10.0
1701719091.8848505,11.0,-8.0,-4.0,-8.0,-2.0,-4.0,-3.0,-1.0
1701719091.8848505,-4.0,6.0,11.0,6.0,-1.0,1.0,-1.0,-1.0
1701719091.8848505,2.0,0.0,-1.0,-3.0,1.0,1.0,1.0,0.0
1701719091.8848505,-2.0,0.0,-8.0,-1.0,-2.0,0.0,-3.0,-2.0
1701719091.9048536,2.0,2.0,0.0,-8.0,0.0,1.0,4.0,-1.0
1701719091.9048536,-1.0,-3.0,-1.0,9.0,2.0,-2.0,-2.0,-1.0
1701719091.9048536,-1.0,2.0,7.0,-3.0,-1.0,-2.0,-5.0,-2.0
1701719091.9048536,4.0,2.0,22.0,11.0,-1.0,-3.0,-4.0,2.0
1701719091.9244032,-2.0,-1.0,-30.0,-16.0,-2.0,0.0,2.0,-3.0
1701719091.9244032,-4.0,-2.0,-4.0,1.0,0.0,-1.0,1.0,-1.0
1701719091.9244032,0.0,3.0,-8.0,-4.0,-1.0,-3.0,-1.0,1.0
1701719091.9244032,-4.0,-18.0,-28.0,-6.0,-6.0,-6.0,-5.0,-2.0
1701719091.9444027,-2.0,-4.0,8.0,-1.0,4.0,2.0,1.0,-2.0
1701719091.9444027,-1.0,3.0,8.0,-2.0,1.0,1.0,1.0,-1.0
1701719091.9444027,0.0,2.0,9.0,10.0,-2.0,0.0,0.0,0.0
1701719091.9444027,-2.0,-5.0,14.0,-1.0,-1.0,-3.0,-7.0,-2.0
1701719091.964787,0.0,2.0,2.0,1.0,-2.0,-3.0,-2.0,0.0
1701719091.964787,1.0,-2.0,-13.0,-6.0,-2.0,-2.0,4.0,1.0
1701719091.964787,-4.0,-1.0,1.0,-8.0,-1.0,0.0,-3.0,-3.0
1701719091.964787,0.0,2.0,-11.0,-12.0,-3.0,2.0,3.0,1.0
1701719091.9844027,-2.0,-6.0,-10.0,-13.0,-12.0,-5.0,-4.0,-1.0
1701719091.9844027,-3.0,2.0,33.0,16.0,9.0,-1.0,-5.0,-1.0
1701719091.9944065,-1.0,-1.0,-1.0,-5.0,4.0,0.0,1.0,-3.0
1701719091.9944065,-1.0,5.0,9.0,15.0,-6.0,-5.0,-2.0,-2.0
1701719092.0045826,-4.0,-7.0,-14.0,-13.0,-8.0,-3.0,0.0,-3.0
1701719092.0045826,-1.0,-6.0,1.0,-19.0,-4.0,-3.0,-4.0,0.0
1701719092.0045826,2.0,-2.0,-3.0,0.0,7.0,6.0,4.0,2.0
1701719092.0045826,1.0,-2.0,-27.0,1.0,6.0,0.0,-1.0,1.0
1701719092.024435,-2.0,7.0,15.0,4.0,-8.0,-3.0,1.0,-2.0
1701719092.024435,-2.0,-1.0,-8.0,-31.0,-16.0,-5.0,-3.0,-1.0
1701719092.024435,-2.0,-3.0,-1.0,18.0,-4.0,-4.0,-4.0,0.0
1701719092.024435,2.0,7.0,33.0,7.0,8.0,3.0,0.0,1.0
1701719092.0544014,-1.0,-1.0,-11.0,-5.0,-3.0,3.0,3.0,0.0
1701719092.0544014,-2.0,-3.0,-14.0,8.0,3.0,-3.0,-3.0,-1.0
1701719092.0544014,-1.0,0.0,0.0,-12.0,0.0,0.0,-2.0,-3.0
1701719092.0544014,-1.0,2.0,2.0,0.0,-3.0,-1.0,-1.0,-2.0
1701719092.0644343,-3.0,-4.0,17.0,3.0,5.0,-1.0,-1.0,-3.0
1701719092.0644343,2.0,10.0,18.0,4.0,2.0,1.0,-1.0,-1.0
1701719092.0644343,-2.0,-23.0,-36.0,-2.0,-3.0,-3.0,-4.0,-1.0
1701719092.0644343,-1.0,1.0,-23.0,1.0,-3.0,1.0,-2.0,-3.0
1701719092.0844018,-1.0,3.0,11.0,8.0,11.0,2.0,-1.0,0.0
1701719092.0844018,0.0,8.0,-6.0,-6.0,-5.0,-1.0,-1.0,1.0
1701719092.0844018,-2.0,-5.0,-16.0,-7.0,-9.0,-5.0,-5.0,-2.0
1701719092.0844018,1.0,1.0,1.0,0.0,1.0,0.0,-1.0,-1.0
1701719092.104806,0.0,-5.0,-4.0,5.0,1.0,0.0,1.0,-2.0
1701719092.104806,-1.0,0.0,-4.0,-2.0,-1.0,0.0,1.0,0.0
1701719092.104806,-1.0,5.0,11.0,12.0,1.0,-1.0,-2.0,0.0
1701719092.104806,-2.0,-5.0,10.0,-13.0,1.0,-1.0,0.0,-1.0
1701719092.124798,0.0,4.0,3.0,8.0,0.0,-1.0,0.0,-1.0
1701719092.124798,-3.0,-13.0,5.0,3.0,0.0,-2.0,-2.0,-2.0
1701719092.124798,0.0,7.0,-7.0,-13.0,-3.0,-1.0,-2.0,0.0
1701719092.124798,-4.0,-5.0,7.0,-3.0,0.0,0.0,0.0,-2.0
1701719092.1544042,0.0,2.0,8.0,3.0,-1.0,-3.0,0.0,1.0
1701719092.1544042,-1.0,5.0,1.0,14.0,1.0,0.0,-1.0,0.0
1701719092.1544042,1.0,-4.0,-63.0,-28.0,-4.0,-4.0,-2.0,-1.0
1701719092.1544042,-3.0,7.0,34.0,13.0,2.0,0.0,0.0,-1.0
1701719092.1644032,5.0,-1.0,4.0,-13.0,0.0,-2.0,0.0,0.0
1701719092.1644032,-4.0,1.0,-10.0,3.0,-4.0,-3.0,-3.0,-3.0
1701719092.1644032,3.0,12.0,29.0,3.0,-1.0,0.0,1.0,-1.0
1701719092.1644032,-1.0,2.0,-14.0,-15.0,0.0,-1.0,0.0,-1.0
1701719092.1844363,-5.0,-8.0,25.0,24.0,1.0,0.0,-2.0,-4.0
1701719092.1844363,7.0,-1.0,-29.0,-18.0,-1.0,-1.0,0.0,1.0
1701719092.1844363,-1.0,6.0,37.0,24.0,5.0,1.0,-2.0,1.0
1701719092.1844363,-3.0,-13.0,-29.0,-2.0,-6.0,-2.0,3.0,-1.0
1701719092.2044015,-4.0,4.0,-40.0,-28.0,-3.0,-3.0,-2.0,-2.0
1701719092.2044015,-2.0,-3.0,-7.0,-4.0,-3.0,-1.0,-1.0,0.0
1701719092.2044015,0.0,2.0,53.0,10.0,-3.0,-3.0,-2.0,-1.0
1701719092.2044015,-1.0,-3.0,-8.0,-1.0,3.0,1.0,-2.0,1.0
1701719092.2246885,-1.0,4.0,-13.0,-1.0,-2.0,1.0,-1.0,-1.0
1701719092.2246885,-2.0,-12.0,-22.0,-17.0,-2.0,-1.0,-1.0,0.0
1701719092.2246885,-5.0,-1.0,8.0,0.0,0.0,1.0,-2.0,-4.0
1701719092.2246885,7.0,0.0,-28.0,-5.0,-1.0,-2.0,-1.0,1.0
1701719092.2446756,-1.0,4.0,30.0,17.0,2.0,0.0,0.0,0.0
1701719092.2446756,-5.0,-5.0,0.0,-14.0,-1.0,-1.0,-2.0,-2.0
1701719092.2446756,-2.0,-2.0,2.0,-7.0,0.0,-1.0,4.0,-1.0
1701719092.2446756,-1.0,3.0,45.0,13.0,-2.0,-5.0,-10.0,-5.0
1701719092.2826943,-1.0,-5.0,-43.0,-23.0,-3.0,5.0,5.0,2.0
1701719092.2826943,0.0,-7.0,-9.0,20.0,-1.0,-2.0,-11.0,6.0
1701719092.2826943,-1.0,1.0,-7.0,-4.0,3.0,2.0,28.0,-2.0
1701719092.2826943,-5.0,-1.0,12.0,1.0,-1.0,-3.0,-8.0,4.0
1701719092.2916949,-2.0,-7.0,-13.0,-4.0,2.0,3.0,12.0,9.0
1701719092.2916949,-1.0,1.0,27.0,20.0,1.0,0.0,0.0,5.0
1701719092.2996082,-10.0,-9.0,-22.0,-30.0,-7.0,-2.0,-10.0,1.0
1701719092.2996082,7.0,0.0,-2.0,4.0,-1.0,-1.0,0.0,-10.0
1701719092.3066056,9.0,5.0,14.0,-7.0,2.0,-5.0,-11.0,-2.0
1701719092.3066056,-2.0,0.0,2.0,17.0,0.0,-2.0,5.0,-2.0
1701719092.3076284,-15.0,-2.0,-7.0,-1.0,-1.0,1.0,5.0,-2.0
1701719092.3076284,-4.0,-1.0,-6.0,-7.0,-1.0,-4.0,1.0,0.0
1701719092.3276305,-5.0,-1.0,-4.0,-1.0,-2.0,0.0,-5.0,-5.0
1701719092.3276305,-5.0,-1.0,-7.0,-2.0,-1.0,-2.0,-1.0,-6.0
1701719092.3276305,16.0,-5.0,-9.0,1.0,-2.0,-3.0,-11.0,1.0
1701719092.3276305,1.0,8.0,15.0,9.0,3.0,4.0,2.0,4.0
1701719092.348055,1.0,-3.0,12.0,5.0,-1.0,-1.0,1.0,-2.0
1701719092.348055,-10.0,-1.0,12.0,-1.0,-4.0,-3.0,-1.0,-3.0
1701719092.348055,-11.0,-9.0,-25.0,-10.0,-5.0,-3.0,-6.0,0.0
1701719092.348055,-2.0,-4.0,-15.0,-10.0,3.0,2.0,3.0,0.0
1701719092.358026,-1.0,0.0,0.0,12.0,1.0,0.0,-5.0,-4.0
1701719092.358026,0.0,4.0,-4.0,2.0,-3.0,-1.0,0.0,-3.0
1701719092.377628,4.0,4.0,39.0,5.0,-6.0,0.0,-2.0,1.0
1701719092.377628,0.0,-8.0,-31.0,-25.0,-17.0,-8.0,-2.0,-1.0
1701719092.3879209,-2.0,0.0,-15.0,13.0,17.0,2.0,1.0,-1.0
1701719092.3879209,0.0,-3.0,1.0,8.0,-2.0,-3.0,-8.0,-2.0
1701719092.3879209,4.0,6.0,20.0,17.0,5.0,2.0,9.0,0.0
1701719092.3879209,-2.0,-3.0,21.0,-5.0,-8.0,-1.0,-1.0,-1.0
1701719092.4078357,-4.0,-2.0,0.0,-18.0,-6.0,1.0,1.0,-1.0
1701719092.4078357,4.0,3.0,16.0,12.0,10.0,1.0,1.0,-3.0
1701719092.4078357,1.0,-3.0,-17.0,1.0,-3.0,-3.0,-8.0,-3.0
1701719092.4078357,-3.0,1.0,15.0,4.0,6.0,1.0,1.0,0.0
1701719092.4179537,-2.0,-4.0,16.0,7.0,-10.0,-6.0,-4.0,-1.0
1701719092.4179537,2.0,2.0,-11.0,-2.0,0.0,3.0,1.0,-2.0
1701719092.4379709,-2.0,1.0,-3.0,-9.0,-1.0,-2.0,-4.0,-1.0
1701719092.4379709,-2.0,-2.0,9.0,19.0,4.0,1.0,1.0,-2.0
1701719092.4482915,-2.0,-3.0,-1.0,-6.0,-7.0,-3.0,-2.0,0.0
1701719092.4482915,-1.0,-5.0,-24.0,-18.0,-3.0,0.0,0.0,-3.0
1701719092.4482915,-1.0,-2.0,32.0,7.0,1.0,-3.0,-3.0,-1.0
1701719092.4482915,-2.0,-1.0,-31.0,1.0,1.0,-1.0,-2.0,0.0
1701719092.4680352,4.0,-3.0,3.0,2.0,1.0,-5.0,-10.0,-2.0
1701719092.4680352,-9.0,-4.0,3.0,-4.0,-1.0,1.0,6.0,0.0
1701719092.4680352,-3.0,-1.0,-15.0,-5.0,2.0,1.0,6.0,-3.0
1701719092.4680352,9.0,12.0,-10.0,-10.0,-1.0,-1.0,-3.0,-6.0
1701719092.477972,-5.0,-19.0,12.0,-1.0,-5.0,-5.0,-6.0,-8.0
1701719092.477972,-1.0,2.0,4.0,0.0,-3.0,-3.0,-7.0,-4.0
1701719092.488262,0.0,-3.0,-10.0,-5.0,2.0,-2.0,-2.0,1.0
1701719092.488262,-2.0,-1.0,-2.0,2.0,0.0,-1.0,-3.0,0.0
1701719092.5083816,1.0,18.0,28.0,1.0,-2.0,-1.0,6.0,-3.0
1701719092.5083816,0.0,2.0,-22.0,4.0,1.0,-1.0,-6.0,5.0
1701719092.5083816,-2.0,-9.0,-46.0,-20.0,-6.0,-3.0,-6.0,-5.0
1701719092.5083816,-10.0,-5.0,-8.0,-5.0,-2.0,-2.0,-3.0,-3.0
1701719092.5280316,-4.0,5.0,2.0,-4.0,2.0,1.0,-3.0,-1.0
1701719092.5280316,4.0,0.0,6.0,4.0,1.0,5.0,3.0,6.0
1701719092.5280316,3.0,10.0,18.0,10.0,2.0,3.0,5.0,3.0
1701719092.5280316,-6.0,-25.0,-32.0,-8.0,-4.0,-1.0,4.0,-3.0
1701719092.5379722,-2.0,-9.0,-29.0,-4.0,-2.0,1.0,-4.0,0.0
1701719092.5379722,0.0,2.0,5.0,-14.0,-6.0,-1.0,-1.0,-1.0
1701719092.5481412,-2.0,1.0,23.0,15.0,5.0,-1.0,-5.0,-2.0
1701719092.5481412,-2.0,-5.0,-1.0,-14.0,-3.0,-3.0,-2.0,1.0
1701719092.568263,-2.0,4.0,9.0,14.0,2.0,1.0,1.0,1.0
1701719092.568263,0.0,-8.0,-5.0,-10.0,-16.0,-4.0,2.0,-3.0
1701719092.568263,0.0,4.0,2.0,0.0,-4.0,-1.0,-2.0,1.0
1701719092.568263,0.0,0.0,7.0,10.0,8.0,0.0,1.0,1.0
1701719092.5880437,0.0,-1.0,-19.0,-12.0,-3.0,-2.0,1.0,1.0
1701719092.5880437,0.0,0.0,6.0,5.0,10.0,0.0,1.0,-2.0
1701719092.597977,0.0,7.0,23.0,-3.0,-13.0,-3.0,-1.0,-2.0
1701719092.597977,-1.0,-12.0,-18.0,-15.0,-5.0,3.0,3.0,1.0
1701719092.6179745,-6.0,-10.0,14.0,43.0,2.0,-3.0,-2.0,-3.0
1701719092.6179745,-3.0,-9.0,4.0,-41.0,-11.0,-7.0,-6.0,-6.0
1701719092.6179745,-1.0,7.0,-20.0,-15.0,-5.0,0.0,-2.0,-1.0
1701719092.6179745,1.0,5.0,13.0,6.0,8.0,3.0,2.0,1.0
1701719092.6280546,-1.0,-14.0,-21.0,-1.0,-2.0,-4.0,-1.0,1.0
1701719092.6280546,-1.0,-1.0,-21.0,9.0,0.0,-1.0,0.0,0.0
1701719092.6280546,0.0,6.0,12.0,3.0,0.0,-3.0,-2.0,0.0
1701719092.6280546,0.0,-3.0,7.0,11.0,2.0,2.0,-2.0,-1.0
1701719092.6480262,1.0,0.0,33.0,4.0,-3.0,-1.0,2.0,1.0
1701719092.6480262,-1.0,8.0,-15.0,-17.0,2.0,-1.0,-1.0,-1.0
1701719092.6480262,-3.0,-14.0,-29.0,8.0,2.0,1.0,-1.0,-1.0
1701719092.6480262,1.0,21.0,16.0,4.0,-2.0,-2.0,-1.0,2.0
1701719092.6679733,-1.0,8.0,32.0,-8.0,-3.0,-2.0,-1.0,0.0
1701719092.6679733,5.0,-8.0,-29.0,4.0,3.0,0.0,3.0,1.0
1701719092.6679733,0.0,6.0,2.0,1.0,5.0,-1.0,-3.0,0.0
1701719092.6679733,2.0,3.0,10.0,5.0,-3.0,0.0,0.0,2.0
1701719092.6881459,0.0,1.0,-28.0,-9.0,3.0,3.0,0.0,1.0
1701719092.6881459,0.0,6.0,78.0,24.0,1.0,-1.0,3.0,7.0
1701719092.6881459,-5.0,-20.0,-58.0,-23.0,-4.0,-5.0,-7.0,-11.0
1701719092.6881459,9.0,5.0,4.0,1.0,-3.0,-3.0,-2.0,1.0
1701719092.708005,-10.0,4.0,7.0,-21.0,-4.0,0.0,7.0,1.0
1701719092.708005,-6.0,-3.0,9.0,14.0,3.0,3.0,-7.0,-8.0
1701719092.708005,2.0,-4.0,12.0,10.0,2.0,-1.0,-9.0,-9.0
1701719092.708005,2.0,-4.0,6.0,-4.0,-5.0,-7.0,-18.0,5.0
1701719092.7283561,6.0,3.0,-28.0,-12.0,-2.0,6.0,34.0,2.0
1701719092.7283561,-2.0,-4.0,5.0,8.0,-1.0,1.0,9.0,11.0
1701719092.7283561,-4.0,0.0,-14.0,5.0,3.0,2.0,2.0,2.0
1701719092.7283561,-8.0,-3.0,-9.0,-10.0,-1.0,-3.0,-1.0,-10.0
1701719092.7483463,2.0,-1.0,-4.0,5.0,-4.0,-6.0,-18.0,-4.0
1701719092.7483463,-2.0,-1.0,-22.0,-11.0,-2.0,-4.0,0.0,0.0
1701719092.7483463,1.0,-1.0,16.0,-3.0,-2.0,-2.0,2.0,4.0
1701719092.7483463,-1.0,-1.0,7.0,12.0,2.0,3.0,-2.0,-1.0
1701719092.7679718,-1.0,-7.0,-23.0,-25.0,-26.0,-7.0,-5.0,2.0
1701719092.7679718,-2.0,-2.0,16.0,13.0,23.0,6.0,-4.0,-6.0
1701719092.7679718,-1.0,3.0,15.0,9.0,-8.0,-2.0,-2.0,1.0
1701719092.7679718,-6.0,-7.0,-22.0,-1.0,6.0,-1.0,4.0,-3.0
1701719092.7879765,-2.0,1.0,-4.0,-14.0,0.0,1.0,-3.0,-4.0
1701719092.7879765,0.0,1.0,21.0,14.0,-14.0,-7.0,-5.0,-6.0
1701719092.7879765,-1.0,-5.0,-42.0,5.0,-9.0,-7.0,-3.0,-2.0
1701719092.7879765,-3.0,-1.0,18.0,-27.0,-11.0,-2.0,1.0,0.0
1701719092.808827,1.0,-1.0,-38.0,-16.0,-9.0,-3.0,-6.0,-2.0
1701719092.808827,-1.0,-1.0,-5.0,2.0,4.0,-1.0,-4.0,-2.0
1701719092.8108242,-2.0,-2.0,-5.0,21.0,10.0,4.0,3.0,3.0
1701719092.8108242,-2.0,-3.0,8.0,15.0,-4.0,-1.0,2.0,-2.0
1701719092.8319383,-1.0,-2.0,-7.0,-45.0,-2.0,-3.0,-5.0,-1.0
1701719092.8319383,-2.0,1.0,4.0,-6.0,-2.0,-4.0,-5.0,-2.0
1701719092.832651,-1.0,1.0,8.0,-10.0,-1.0,-3.0,-11.0,-1.0
1701719092.832651,-1.0,-1.0,-3.0,17.0,3.0,3.0,7.0,-5.0
1701719092.8507366,-5.0,-2.0,8.0,13.0,10.0,3.0,17.0,4.0
1701719092.8507366,-10.0,-2.0,-11.0,1.0,-3.0,2.0,-5.0,-7.0
1701719092.8507366,3.0,-1.0,1.0,-5.0,0.0,4.0,10.0,3.0
1701719092.8507366,1.0,1.0,2.0,-3.0,1.0,1.0,1.0,5.0
1701719092.8606477,0.0,0.0,11.0,21.0,7.0,-2.0,-34.0,-6.0
1701719092.870289,2.0,1.0,-22.0,-12.0,-9.0,-5.0,12.0,7.0
1701719092.870289,5.0,-2.0,-10.0,-19.0,-1.0,-1.0,11.0,-2.0
1701719092.870289,-20.0,-3.0,0.0,-1.0,4.0,5.0,-3.0,-21.0
1701719092.8903189,2.0,-1.0,30.0,12.0,6.0,4.0,12.0,-2.0
1701719092.8903189,-1.0,3.0,19.0,0.0,-3.0,-3.0,-9.0,-5.0
1701719092.8903189,-4.0,-14.0,-31.0,-3.0,1.0,-1.0,-13.0,-2.0
1701719092.8903189,3.0,2.0,9.0,-2.0,-2.0,-3.0,0.0,3.0
1701719092.9106042,-7.0,-1.0,29.0,14.0,-3.0,-2.0,-6.0,-5.0
1701719092.9106042,10.0,-7.0,-38.0,-24.0,-4.0,-4.0,-13.0,-7.0
1701719092.9106042,-2.0,5.0,44.0,13.0,6.0,4.0,11.0,4.0
1701719092.9106042,4.0,-3.0,-10.0,0.0,-4.0,-2.0,-1.0,2.0
1701719092.9502864,3.0,12.0,4.0,12.0,2.0,-3.0,-4.0,0.0
1701719092.9502864,0.0,1.0,-13.0,-10.0,-4.0,1.0,5.0,2.0
1701719092.9502864,-4.0,-3.0,7.0,-22.0,-1.0,-1.0,-1.0,-2.0
1701719092.9502864,2.0,0.0,5.0,21.0,-3.0,-6.0,-3.0,3.0
1701719092.9502864,3.0,0.0,5.0,11.0,0.0,0.0,-2.0,-1.0
1701719092.9502864,-2.0,7.0,3.0,-4.0,1.0,0.0,5.0,0.0
1701719092.9502864,1.0,4.0,-10.0,-8.0,-4.0,-1.0,-3.0,-2.0
1701719092.9502864,-2.0,-5.0,-4.0,-14.0,-3.0,-4.0,-7.0,-1.0
1701719092.970588,-4.0,-5.0,-19.0,12.0,-1.0,-3.0,1.0,-3.0
1701719092.970588,-1.0,-10.0,-21.0,0.0,1.0,2.0,1.0,-1.0
1701719092.970588,-2.0,-3.0,15.0,-9.0,-8.0,-3.0,-3.0,-1.0
1701719092.970588,1.0,-5.0,-5.0,-7.0,3.0,-1.0,3.0,1.0
1701719093.0002856,1.0,0.0,-1.0,-7.0,1.0,-2.0,1.0,1.0
1701719093.0002856,0.0,8.0,-6.0,28.0,-1.0,-3.0,0.0,0.0
1701719093.0002856,-7.0,-25.0,4.0,-33.0,0.0,-4.0,-3.0,-4.0
1701719093.0002856,1.0,-1.0,-24.0,-19.0,-3.0,-1.0,1.0,1.0
1701719093.0106614,1.0,7.0,18.0,2.0,0.0,1.0,-1.0,0.0
1701719093.0106614,-2.0,-7.0,-1.0,10.0,-1.0,-2.0,-3.0,-2.0
1701719093.0106614,-1.0,11.0,2.0,11.0,3.0,0.0,3.0,1.0
1701719093.0106614,1.0,0.0,9.0,-15.0,-6.0,-1.0,-3.0,0.0
1701719093.0305877,-4.0,-16.0,-37.0,3.0,5.0,2.0,-2.0,0.0
1701719093.0305877,-2.0,10.0,17.0,11.0,0.0,-2.0,0.0,-1.0
1701719093.0305877,2.0,9.0,26.0,14.0,0.0,-1.0,-2.0,-3.0
1701719093.0305877,3.0,-5.0,6.0,4.0,2.0,1.0,1.0,4.0
1701719093.0502899,-11.0,3.0,5.0,0.0,-2.0,-1.0,-1.0,-3.0
1701719093.0502899,-2.0,-10.0,-35.0,-26.0,-1.0,1.0,1.0,2.0
1701719093.0502899,3.0,16.0,19.0,9.0,-2.0,-2.0,0.0,-1.0
1701719093.0502899,-4.0,-2.0,24.0,9.0,1.0,-1.0,-4.0,-4.0
1701719093.0707324,2.0,-4.0,14.0,5.0,-1.0,-3.0,1.0,0.0
1701719093.0707324,-1.0,-7.0,-20.0,-20.0,-4.0,-3.0,-6.0,-1.0
1701719093.0707324,2.0,-2.0,-10.0,8.0,3.0,3.0,3.0,-1.0
1701719093.0707324,-7.0,12.0,14.0,4.0,-2.0,-1.0,0.0,0.0
1701719093.0907261,0.0,-12.0,-37.0,-10.0,-2.0,-2.0,0.0,0.0
1701719093.0907261,-1.0,-4.0,46.0,1.0,-3.0,-2.0,-3.0,-3.0
1701719093.0907261,-4.0,-8.0,-23.0,0.0,1.0,-1.0,-2.0,-2.0
1701719093.0907261,8.0,4.0,-12.0,2.0,0.0,-2.0,-1.0,1.0
1701719093.1005075,0.0,3.0,2.0,-11.0,-2.0,2.0,5.0,6.0
1701719093.1102889,-2.0,3.0,11.0,4.0,0.0,0.0,-3.0,-8.0
1701719093.1102889,-4.0,0.0,14.0,7.0,1.0,-2.0,-2.0,0.0
1701719093.1102889,-5.0,-5.0,-20.0,-4.0,-1.0,-2.0,-3.0,-2.0
1701719093.1306262,0.0,3.0,-21.0,-7.0,-2.0,0.0,-4.0,0.0
1701719093.1306262,2.0,6.0,27.0,6.0,1.0,4.0,14.0,3.0
1701719093.1306262,-1.0,-15.0,-39.0,-4.0,-4.0,-3.0,-2.0,-1.0
1701719093.1306262,3.0,3.0,8.0,-4.0,-2.0,0.0,4.0,-3.0
1701719093.150287,-11.0,-3.0,5.0,-5.0,-1.0,-3.0,-10.0,-4.0
1701719093.150287,-6.0,0.0,9.0,4.0,0.0,-1.0,-5.0,-1.0
1701719093.150287,14.0,-4.0,2.0,5.0,1.0,-1.0,-2.0,-1.0
1701719093.150287,-11.0,-1.0,-25.0,-9.0,-2.0,0.0,1.0,4.0
1701719093.1603186,0.0,-3.0,-13.0,4.0,1.0,-1.0,1.0,-6.0
1701719093.1702907,-1.0,-3.0,15.0,-6.0,-3.0,-5.0,-3.0,-2.0
1701719093.1702907,-8.0,-7.0,-30.0,-10.0,-5.0,-4.0,-5.0,-2.0
1701719093.1702907,2.0,-4.0,1.0,4.0,0.0,-2.0,-3.0,-3.0
1701719093.1907265,3.0,1.0,-5.0,2.0,-2.0,-1.0,1.0,-2.0
1701719093.1907265,-2.0,-1.0,0.0,2.0,4.0,3.0,3.0,1.0
1701719093.1907265,-2.0,4.0,25.0,13.0,-2.0,-1.0,-1.0,-2.0
1701719093.1907265,-2.0,2.0,-40.0,-5.0,-3.0,-1.0,2.0,0.0
1701719093.2102895,-2.0,-3.0,-15.0,-25.0,5.0,-1.0,-6.0,-3.0
1701719093.2102895,1.0,-2.0,23.0,17.0,-5.0,1.0,-1.0,-2.0
1701719093.2102895,-2.0,9.0,32.0,11.0,3.0,-4.0,-12.0,-1.0
1701719093.2102895,0.0,-7.0,-33.0,-28.0,-4.0,2.0,7.0,1.0
1701719093.2302911,1.0,-2.0,5.0,24.0,0.0,-2.0,2.0,-3.0
1701719093.2302911,-2.0,-2.0,-2.0,-8.0,-5.0,-10.0,-19.0,3.0
1701719093.2302911,1.0,-2.0,-43.0,-61.0,-2.0,7.0,24.0,-8.0
1701719093.2302911,3.0,10.0,58.0,101.0,8.0,0.0,5.0,2.0
1701719093.2506244,3.0,-13.0,-25.0,-68.0,-9.0,-3.0,-15.0,-2.0
1701719093.2506244,-1.0,3.0,-9.0,4.0,-1.0,-1.0,-4.0,3.0
1701719093.2506244,0.0,-8.0,28.0,-2.0,-1.0,0.0,5.0,3.0
1701719093.2506244,0.0,4.0,-29.0,-28.0,-1.0,-4.0,-8.0,0.0
1701719093.2706249,2.0,5.0,15.0,12.0,2.0,3.0,12.0,-6.0
1701719093.2706249,0.0,-3.0,-13.0,1.0,-2.0,-3.0,-7.0,-4.0
1701719093.2706249,3.0,8.0,9.0,7.0,-2.0,-1.0,0.0,19.0
1701719093.2706249,-8.0,-9.0,0.0,-9.0,-1.0,-2.0,-12.0,-30.0
1701719093.3002868,-4.0,0.0,6.0,20.0,1.0,2.0,3.0,3.0
1701719093.3002868,2.0,1.0,8.0,-12.0,-1.0,0.0,0.0,-2.0
1701719093.3002868,-4.0,-3.0,-13.0,9.0,2.0,2.0,3.0,4.0
1701719093.3002868,-3.0,-7.0,-13.0,-6.0,-5.0,0.0,7.0,5.0
1701719093.3102882,-2.0,4.0,31.0,3.0,-2.0,-5.0,-6.0,-3.0
1701719093.3102882,8.0,-5.0,-36.0,-5.0,-1.0,-4.0,-5.0,-11.0
1701719093.3102882,-3.0,3.0,-2.0,9.0,1.0,-1.0,-4.0,0.0
1701719093.3102882,0.0,0.0,23.0,6.0,-2.0,-2.0,-8.0,2.0
1701719093.3351703,0.0,1.0,-2.0,-11.0,-1.0,4.0,6.0,1.0
1701719093.336193,-4.0,-1.0,-7.0,8.0,1.0,5.0,13.0,5.0
1701719093.336193,-5.0,-3.0,0.0,-1.0,-5.0,-4.0,-9.0,-5.0
1701719093.336193,2.0,0.0,0.0,-6.0,2.0,2.0,3.0,2.0
1701719093.3489325,0.0,1.0,-7.0,9.0,4.0,0.0,4.0,4.0
1701719093.349959,-1.0,-2.0,5.0,-4.0,2.0,-1.0,0.0,0.0
1701719093.356713,-4.0,-3.0,-13.0,-4.0,-5.0,-4.0,-8.0,-7.0
1701719093.356713,-3.0,3.0,22.0,3.0,-3.0,1.0,-3.0,-1.0
1701719093.36678,1.0,0.0,33.0,4.0,-6.0,-6.0,-5.0,-3.0
1701719093.36678,-2.0,-9.0,-32.0,-7.0,-2.0,2.0,1.0,-2.0
1701719093.376718,0.0,0.0,-3.0,-2.0,-2.0,0.0,2.0,-5.0
1701719093.376718,4.0,-3.0,9.0,11.0,0.0,-2.0,-2.0,4.0
1701719093.3967087,-1.0,-2.0,-10.0,-7.0,-1.0,-2.0,-5.0,-2.0
1701719093.3967087,-1.0,1.0,-38.0,-25.0,-1.0,0.0,0.0,-1.0
1701719093.3967087,-3.0,1.0,13.0,5.0,2.0,-3.0,-8.0,-4.0
1701719093.3967087,2.0,-3.0,13.0,8.0,0.0,2.0,14.0,0.0
1701719093.4070985,-10.0,-2.0,-26.0,2.0,-2.0,0.0,0.0,1.0
1701719093.4070985,-3.0,1.0,44.0,32.0,-1.0,0.0,2.0,-1.0
1701719093.4168847,0.0,0.0,-27.0,-23.0,0.0,-2.0,-9.0,-2.0
1701719093.4168847,-1.0,-2.0,-6.0,-4.0,-6.0,-1.0,4.0,-1.0
1701719093.4267335,1.0,-4.0,-2.0,-2.0,3.0,2.0,6.0,0.0
1701719093.4267335,-2.0,1.0,3.0,-6.0,-3.0,2.0,4.0,1.0
1701719093.4267335,-4.0,1.0,13.0,16.0,1.0,-1.0,-6.0,-1.0
1701719093.4267335,7.0,-2.0,3.0,-13.0,-3.0,-2.0,-4.0,0.0
1701719093.4469345,2.0,-8.0,-4.0,-2.0,-4.0,0.0,0.0,2.0
1701719093.4469345,-1.0,-5.0,-2.0,0.0,2.0,-1.0,-2.0,1.0
1701719093.4469345,-1.0,-1.0,0.0,1.0,-4.0,-1.0,-2.0,-4.0
1701719093.4469345,-5.0,1.0,12.0,-1.0,-1.0,-3.0,-3.0,0.0
1701719093.467076,1.0,0.0,-23.0,2.0,1.0,-2.0,-1.0,-3.0
1701719093.467076,0.0,4.0,21.0,-2.0,0.0,0.0,-7.0,-1.0
1701719093.4770672,-3.0,-6.0,-28.0,2.0,-3.0,0.0,7.0,0.0
1701719093.4770672,-5.0,-3.0,4.0,7.0,2.0,0.0,-1.0,1.0
1701719093.486805,0.0,-2.0,-9.0,-23.0,-3.0,-1.0,-2.0,-2.0
1701719093.486805,2.0,3.0,13.0,7.0,-2.0,-3.0,-3.0,-1.0
1701719093.486805,-6.0,2.0,-22.0,-11.0,-2.0,0.0,2.0,-3.0
1701719093.486805,2.0,-3.0,-7.0,0.0,-3.0,-3.0,-8.0,3.0
1701719093.5069091,2.0,2.0,15.0,32.0,1.0,1.0,6.0,0.0
1701719093.5069091,-2.0,-7.0,-5.0,-10.0,-1.0,0.0,2.0,-2.0
1701719093.5069091,1.0,-3.0,31.0,13.0,1.0,0.0,-1.0,0.0
1701719093.5069091,-2.0,-1.0,-30.0,-39.0,-3.0,-3.0,-5.0,-5.0
1701719093.5271406,-7.0,-2.0,-13.0,29.0,-2.0,-5.0,-7.0,-3.0
1701719093.5271406,-5.0,-3.0,16.0,-20.0,-1.0,4.0,13.0,2.0
1701719093.5370116,7.0,4.0,-20.0,-15.0,-2.0,-4.0,-6.0,-1.0
1701719093.5370116,-9.0,-2.0,9.0,9.0,2.0,3.0,7.0,0.0
1701719093.546709,-2.0,2.0,21.0,4.0,-3.0,-2.0,-5.0,-2.0
1701719093.546709,-2.0,4.0,3.0,2.0,1.0,-1.0,-1.0,-1.0
1701719093.546709,-1.0,-3.0,-13.0,-7.0,0.0,-3.0,-7.0,-1.0
1701719093.546709,7.0,1.0,24.0,17.0,-1.0,4.0,8.0,2.0
1701719093.5670142,-9.0,-4.0,-61.0,-50.0,-7.0,-9.0,-16.0,-9.0
1701719093.5670142,0.0,-2.0,-4.0,1.0,-1.0,3.0,5.0,5.0
1701719093.5767136,2.0,4.0,23.0,14.0,1.0,-2.0,-6.0,-2.0
1701719093.5767136,-4.0,-3.0,-20.0,-2.0,1.0,2.0,7.0,1.0
1701719093.596977,-2.0,-5.0,22.0,14.0,0.0,2.0,2.0,0.0
1701719093.596977,-1.0,-7.0,-33.0,-7.0,-3.0,-5.0,-12.0,-15.0
1701719093.596977,-2.0,-5.0,-1.0,3.0,1.0,1.0,6.0,5.0
1701719093.596977,-1.0,-1.0,12.0,-1.0,1.0,-4.0,1.0,12.0
1701719093.6067889,-8.0,5.0,-16.0,-3.0,-2.0,-2.0,-3.0,3.0
1701719093.6067889,-6.0,-8.0,-9.0,-2.0,-2.0,-1.0,-4.0,-3.0
1701719093.6067889,0.0,-2.0,16.0,3.0,-1.0,-1.0,-1.0,-2.0
1701719093.6067889,3.0,1.0,3.0,-6.0,-2.0,-3.0,-9.0,-8.0
1701719093.6367095,3.0,6.0,22.0,-1.0,0.0,2.0,7.0,5.0
1701719093.6367095,2.0,4.0,-3.0,8.0,1.0,-2.0,-4.0,-1.0
1701719093.6367095,-2.0,-3.0,-10.0,-5.0,-5.0,1.0,5.0,2.0
1701719093.6367095,-8.0,-8.0,-21.0,-11.0,0.0,-3.0,-6.0,-3.0
1701719093.656767,5.0,3.0,19.0,15.0,1.0,3.0,11.0,3.0
1701719093.656767,-2.0,2.0,-5.0,-6.0,0.0,0.0,-2.0,-3.0
1701719093.656767,0.0,1.0,26.0,14.0,2.0,3.0,4.0,4.0
1701719093.656767,-2.0,0.0,-15.0,-15.0,-5.0,-3.0,-5.0,-4.0
1701719093.6667097,3.0,-4.0,8.0,13.0,2.0,1.0,-3.0,-2.0
1701719093.6667097,0.0,0.0,-1.0,-6.0,3.0,-2.0,-1.0,1.0
1701719093.6667097,-3.0,-3.0,4.0,-7.0,-8.0,-2.0,-1.0,-5.0
1701719093.6667097,0.0,-1.0,-1.0,15.0,1.0,-4.0,-5.0,-4.0
1701719093.6867115,1.0,-3.0,1.0,10.0,-3.0,-4.0,0.0,-2.0
1701719093.6867115,1.0,1.0,16.0,-17.0,14.0,2.0,2.0,3.0
1701719093.6867115,0.0,2.0,-3.0,-15.0,-7.0,0.0,-1.0,-1.0
1701719093.6867115,-2.0,2.0,3.0,16.0,7.0,2.0,-2.0,-5.0
1701719093.7169578,-1.0,-5.0,-4.0,-27.0,3.0,-2.0,-5.0,-2.0
1701719093.7169578,-2.0,-2.0,-2.0,30.0,-12.0,-3.0,-2.0,0.0
1701719093.7169578,-2.0,-2.0,-3.0,-18.0,-1.0,-2.0,1.0,-3.0
1701719093.7169578,0.0,1.0,9.0,-18.0,-7.0,-4.0,-1.0,-1.0
1701719093.7267106,0.0,0.0,-12.0,-10.0,-4.0,-1.0,-1.0,0.0
1701719093.7267106,-1.0,-1.0,28.0,18.0,-3.0,-5.0,-2.0,-1.0
1701719093.7267106,-3.0,-3.0,-33.0,-6.0,-1.0,-3.0,0.0,-1.0
1701719093.7267106,4.0,0.0,-8.0,24.0,-1.0,-4.0,-16.0,-1.0
1701719093.7468748,-8.0,-10.0,-23.0,-19.0,-2.0,5.0,23.0,-1.0
1701719093.7468748,0.0,0.0,-1.0,-12.0,-4.0,-1.0,-8.0,-3.0
1701719093.7468748,-2.0,0.0,18.0,19.0,1.0,-1.0,-6.0,-2.0
1701719093.7468748,2.0,-1.0,-19.0,-12.0,3.0,6.0,13.0,-1.0
1701719093.7767394,-10.0,0.0,7.0,-1.0,-2.0,-4.0,-10.0,-6.0
1701719093.7767394,2.0,-2.0,16.0,6.0,-2.0,1.0,10.0,3.0
1701719093.7767394,-4.0,-7.0,-16.0,-4.0,-1.0,-6.0,-14.0,-8.0
1701719093.7767394,1.0,-3.0,-8.0,-9.0,-4.0,-1.0,-4.0,5.0
1701719093.7869744,1.0,9.0,25.0,2.0,0.0,0.0,0.0,-3.0
1701719093.7869744,-3.0,-5.0,-10.0,1.0,-5.0,-1.0,0.0,-3.0
1701719093.7869744,-1.0,-3.0,7.0,8.0,3.0,1.0,2.0,0.0
1701719093.7869744,-7.0,-11.0,-11.0,-17.0,-7.0,-6.0,-8.0,-7.0
1701719093.8068867,6.0,-2.0,10.0,12.0,1.0,1.0,-4.0,0.0
1701719093.8068867,-1.0,5.0,-5.0,-4.0,-2.0,-1.0,-1.0,2.0
1701719093.8068867,4.0,-3.0,14.0,0.0,7.0,3.0,0.0,1.0
1701719093.8068867,-4.0,3.0,-1.0,3.0,-1.0,-1.0,-1.0,-1.0
1701719093.8467128,-3.0,-9.0,-17.0,-5.0,-2.0,-2.0,-3.0,-1.0
1701719093.8467128,4.0,2.0,-2.0,0.0,-1.0,-1.0,-4.0,-1.0
1701719093.8467128,-3.0,7.0,19.0,17.0,1.0,0.0,1.0,1.0
1701719093.8467128,-5.0,-4.0,17.0,-2.0,-3.0,-1.0,2.0,-4.0
1701719093.8569553,4.0,6.0,-6.0,-8.0,1.0,1.0,-2.0,2.0
1701719093.8569553,-5.0,-2.0,-21.0,-3.0,2.0,0.0,-4.0,-2.0
1701719093.8569553,-1.0,0.0,5.0,21.0,2.0,0.0,6.0,-2.0
1701719093.8569553,-2.0,2.0,2.0,-32.0,-4.0,-1.0,-4.0,-1.0
1701719093.8750694,3.0,0.0,1.0,8.0,-3.0,-2.0,-4.0,0.0
1701719093.8760915,-2.0,-5.0,-28.0,-21.0,-1.0,-1.0,1.0,0.0
1701719093.8760915,7.0,2.0,7.0,44.0,1.0,-1.0,-4.0,-2.0
1701719093.8760915,-17.0,1.0,13.0,-26.0,1.0,0.0,0.0,-2.0
1701719093.8993242,-1.0,-3.0,-10.0,-10.0,-7.0,-3.0,-5.0,-2.0
1701719093.8993242,0.0,3.0,4.0,20.0,1.0,1.0,1.0,1.0
1701719093.8993242,1.0,-2.0,-13.0,-48.0,-3.0,0.0,0.0,-1.0
1701719093.8993242,0.0,-8.0,-21.0,25.0,-1.0,-1.0,-3.0,-5.0
1701719093.9093237,2.0,4.0,30.0,5.0,-1.0,-2.0,-1.0,6.0
1701719093.9093237,-2.0,3.0,-25.0,0.0,0.0,-1.0,-2.0,0.0
1701719093.9093237,-6.0,-5.0,16.0,-3.0,-4.0,-3.0,-9.0,-4.0
1701719093.9093237,6.0,1.0,-4.0,2.0,-2.0,-3.0,13.0,9.0
1701719093.9297655,-2.0,-2.0,0.0,5.0,2.0,4.0,1.0,-14.0
1701719093.9297655,-1.0,0.0,12.0,11.0,1.0,-3.0,-1.0,-9.0
1701719093.9297655,-4.0,-3.0,-24.0,-19.0,-3.0,-9.0,-13.0,16.0
1701719093.9297655,0.0,2.0,22.0,1.0,1.0,9.0,21.0,-15.0
1701719093.9497979,3.0,-4.0,-26.0,-2.0,-1.0,-2.0,0.0,12.0
1701719093.9497979,-8.0,1.0,21.0,11.0,4.0,8.0,12.0,12.0
1701719093.9497979,-8.0,-1.0,-6.0,-14.0,-6.0,-8.0,-12.0,-17.0
1701719093.9497979,2.0,1.0,15.0,27.0,-1.0,-13.0,-24.0,-10.0
1701719093.9700196,-2.0,-4.0,-57.0,-42.0,-3.0,-2.0,-9.0,1.0
1701719093.9700196,2.0,-4.0,8.0,-11.0,-4.0,0.0,3.0,-6.0
1701719093.9700196,-2.0,3.0,24.0,13.0,2.0,4.0,9.0,5.0
1701719093.9700196,1.0,1.0,-35.0,-6.0,-1.0,0.0,-1.0,-1.0
1701719094.009798,1.0,2.0,40.0,11.0,1.0,-2.0,5.0,-6.0
1701719094.009798,1.0,-6.0,-4.0,-11.0,-7.0,-5.0,-7.0,1.0
1701719094.009798,-2.0,2.0,-24.0,-14.0,-2.0,1.0,5.0,-13.0
1701719094.009798,-2.0,-11.0,21.0,13.0,5.0,3.0,-1.0,2.0
1701719094.009798,-3.0,-2.0,12.0,-8.0,-2.0,-2.0,-4.0,-1.0
1701719094.009798,1.0,-5.0,-12.0,4.0,-4.0,-4.0,-6.0,-1.0
1701719094.009798,4.0,6.0,31.0,-3.0,-3.0,1.0,9.0,8.0
1701719094.009798,-3.0,-3.0,-31.0,-16.0,-2.0,1.0,-6.0,1.0
1701719094.0305283,0.0,4.0,-1.0,2.0,-3.0,-2.0,-5.0,-3.0
1701719094.0305283,-4.0,-5.0,44.0,1.0,1.0,-3.0,-2.0,-2.0
1701719094.0305283,1.0,-4.0,-1.0,-3.0,-6.0,2.0,4.0,-3.0
1701719094.0305283,1.0,0.0,-5.0,-4.0,2.0,-2.0,-2.0,3.0
1701719094.0501237,0.0,-3.0,3.0,17.0,2.0,0.0,-1.0,1.0
1701719094.0501237,2.0,2.0,-18.0,-30.0,-12.0,-2.0,6.0,-1.0
1701719094.0501237,-3.0,-5.0,-11.0,5.0,-10.0,-3.0,-1.0,-1.0
1701719094.0501237,1.0,4.0,14.0,27.0,24.0,3.0,-1.0,3.0
1701719094.0705018,-2.0,-4.0,-5.0,-6.0,-5.0,-1.0,-3.0,0.0
1701719094.0705018,0.0,-1.0,-10.0,-4.0,-1.0,0.0,-5.0,-3.0
1701719094.0705018,1.0,-2.0,-5.0,-8.0,-4.0,0.0,2.0,0.0
1701719094.0705018,0.0,1.0,-12.0,-1.0,-13.0,-3.0,-2.0,3.0
1701719094.0905356,0.0,-2.0,17.0,13.0,5.0,-2.0,0.0,-5.0
1701719094.0905356,-3.0,-4.0,-20.0,-22.0,-5.0,-4.0,-6.0,-1.0
1701719094.0905356,-1.0,-1.0,11.0,28.0,-6.0,0.0,3.0,0.0
1701719094.0905356,0.0,4.0,15.0,-44.0,3.0,2.0,0.0,1.0
1701719094.1104703,-1.0,-2.0,-25.0,-1.0,13.0,4.0,0.0,-1.0
1701719094.1104703,-2.0,3.0,-3.0,16.0,-4.0,-3.0,-3.0,0.0
1701719094.1204948,1.0,-2.0,-21.0,-12.0,5.0,-3.0,-3.0,-5.0
1701719094.1204948,-4.0,-1.0,13.0,17.0,-9.0,-6.0,-9.0,1.0
1701719094.1308858,9.0,-1.0,12.0,5.0,-10.0,2.0,10.0,1.0
1701719094.1308858,-5.0,-2.0,-18.0,-15.0,8.0,-1.0,-4.0,-7.0
1701719094.1308858,-1.0,0.0,6.0,15.0,5.0,1.0,-1.0,4.0
1701719094.1308858,3.0,-2.0,-33.0,-9.0,-6.0,-1.0,-1.0,-10.0
1701719094.1509128,1.0,5.0,17.0,-5.0,-3.0,-4.0,-9.0,-3.0
1701719094.1509128,5.0,2.0,6.0,12.0,4.0,-1.0,0.0,2.0
1701719094.1509128,-1.0,-9.0,-6.0,-4.0,3.0,1.0,2.0,-5.0
1701719094.1509128,-2.0,7.0,1.0,-3.0,-4.0,-1.0,2.0,-4.0
1701719094.1804702,-6.0,-5.0,-7.0,1.0,-1.0,-2.0,-3.0,10.0
1701719094.1804702,-9.0,-2.0,21.0,5.0,0.0,2.0,-2.0,-6.0
1701719094.1804702,1.0,3.0,-39.0,-6.0,2.0,-2.0,-1.0,1.0
1701719094.1804702,0.0,0.0,14.0,-2.0,1.0,0.0,0.0,-1.0
1701719094.190751,-7.0,-14.0,-21.0,-1.0,-1.0,0.0,2.0,-8.0
1701719094.190751,-1.0,10.0,11.0,-5.0,-2.0,-4.0,-5.0,4.0
1701719094.190751,-4.0,-17.0,2.0,4.0,1.0,-3.0,-6.0,-1.0
1701719094.190751,0.0,-11.0,14.0,-20.0,-5.0,0.0,3.0,2.0
1701719094.2107248,3.0,8.0,-58.0,5.0,3.0,0.0,-2.0,-1.0
1701719094.2107248,4.0,10.0,15.0,-8.0,-1.0,3.0,3.0,0.0
1701719094.2204828,-2.0,-4.0,5.0,10.0,0.0,-1.0,-2.0,1.0
1701719094.2204828,0.0,-4.0,-9.0,0.0,-2.0,-2.0,-2.0,1.0
1701719094.240476,-3.0,5.0,14.0,-15.0,-2.0,-1.0,-1.0,0.0
1701719094.240476,1.0,-5.0,-8.0,-1.0,0.0,-2.0,2.0,-2.0
1701719094.240476,-1.0,2.0,-6.0,17.0,11.0,2.0,3.0,1.0
1701719094.240476,2.0,10.0,34.0,23.0,-5.0,-3.0,0.0,4.0
1701719094.2504694,-5.0,-11.0,-3.0,-49.0,-6.0,-1.0,1.0,-3.0
1701719094.2504694,3.0,3.0,-27.0,15.0,5.0,4.0,2.0,-1.0
1701719094.2504694,1.0,7.0,24.0,-15.0,-1.0,-3.0,-1.0,2.0
1701719094.2504694,-2.0,5.0,11.0,-8.0,1.0,1.0,2.0,2.0
1701719094.2705321,-1.0,-3.0,24.0,56.0,-1.0,0.0,-4.0,-2.0
1701719094.2705321,3.0,5.0,-43.0,-29.0,0.0,0.0,-1.0,-1.0
1701719094.280476,-11.0,-4.0,33.0,-1.0,-3.0,1.0,1.0,1.0
1701719094.280476,-8.0,-21.0,-70.0,-56.0,-12.0,-6.0,-4.0,-4.0
1701719094.2904937,0.0,6.0,79.0,-29.0,0.0,0.0,0.0,0.0
1701719094.2904937,-7.0,-14.0,41.0,63.0,-2.0,-6.0,-7.0,-3.0
1701719094.2904937,3.0,4.0,-60.0,-13.0,-2.0,1.0,1.0,0.0
1701719094.2904937,-5.0,0.0,-19.0,13.0,-2.0,-5.0,-3.0,-5.0
1701719094.3109174,1.0,-16.0,-12.0,-16.0,-3.0,2.0,1.0,1.0
1701719094.3109174,-4.0,-17.0,11.0,-7.0,-5.0,-4.0,-3.0,-1.0
1701719094.3109174,14.0,24.0,54.0,-4.0,3.0,2.0,2.0,3.0
1701719094.3109174,-1.0,-2.0,-11.0,10.0,0.0,2.0,-5.0,-13.0
1701719094.330691,-4.0,-3.0,-13.0,1.0,-2.0,-5.0,0.0,2.0
1701719094.330691,2.0,3.0,2.0,-3.0,0.0,-1.0,1.0,-6.0
1701719094.3404703,-2.0,6.0,12.0,0.0,-4.0,-4.0,4.0,11.0
1701719094.3404703,-1.0,-3.0,5.0,4.0,3.0,2.0,-10.0,-4.0
1701719094.3508494,2.0,5.0,-38.0,0.0,0.0,-1.0,2.0,-10.0
1701719094.3508494,-3.0,-3.0,-18.0,-6.0,0.0,2.0,2.0,-1.0
1701719094.360864,-3.0,-5.0,3.0,-7.0,-3.0,-2.0,5.0,13.0
1701719094.360864,1.0,0.0,6.0,11.0,3.0,3.0,-3.0,-8.0
1701719094.3708847,-1.0,4.0,7.0,8.0,-2.0,-3.0,0.0,4.0
1701719094.3708847,0.0,-5.0,-6.0,-7.0,-3.0,0.0,-1.0,4.0
1701719094.380472,0.0,-5.0,-8.0,-6.0,0.0,0.0,-1.0,-4.0
1701719094.380472,-1.0,-3.0,4.0,3.0,-5.0,-4.0,2.0,6.0
1701719094.3909135,1.0,4.0,5.0,10.0,3.0,3.0,9.0,0.0
1701719094.3909135,-2.0,1.0,17.0,-12.0,-1.0,0.0,-5.0,-1.0
1701719094.3997517,-1.0,-7.0,-26.0,-2.0,-2.0,-5.0,-11.0,-11.0
1701719094.3997517,0.0,0.0,15.0,6.0,1.0,-1.0,-5.0,1.0
1701719094.4148848,0.0,2.0,-3.0,-7.0,-9.0,-8.0,-8.0,-4.0
1701719094.4148848,-3.0,-1.0,-4.0,8.0,0.0,-2.0,-5.0,3.0
1701719094.415598,-2.0,-6.0,-9.0,-11.0,-1.0,3.0,7.0,-3.0
1701719094.415598,-2.0,-1.0,-29.0,-6.0,-5.0,2.0,6.0,5.0
1701719094.4327831,-3.0,-8.0,-15.0,-8.0,0.0,0.0,-1.0,1.0
1701719094.4327831,0.0,2.0,-4.0,-10.0,7.0,0.0,1.0,-1.0
1701719094.4327831,-1.0,-2.0,-21.0,-32.0,-6.0,-1.0,-3.0,-7.0
1701719094.4327831,0.0,10.0,95.0,60.0,6.0,-1.0,0.0,2.0
1701719094.443088,-1.0,-2.0,-22.0,-1.0,-6.0,-3.0,0.0,-5.0
1701719094.443088,-2.0,-3.0,2.0,3.0,-3.0,-2.0,-2.0,-1.0
1701719094.4627924,-2.0,8.0,-9.0,-4.0,1.0,0.0,-2.0,-4.0
1701719094.4627924,0.0,-12.0,-44.0,-45.0,-4.0,0.0,1.0,2.0
1701719094.473019,-2.0,8.0,20.0,15.0,1.0,1.0,-5.0,-1.0
1701719094.473019,-2.0,0.0,34.0,29.0,-2.0,-4.0,-1.0,0.0
1701719094.473019,0.0,-2.0,1.0,7.0,-1.0,-1.0,-3.0,-1.0
1701719094.473019,0.0,-1.0,-13.0,-16.0,0.0,-1.0,0.0,1.0
1701719094.4929285,-1.0,-2.0,-4.0,-6.0,-1.0,1.0,-1.0,-1.0
1701719094.4929285,-2.0,-4.0,-31.0,-23.0,-1.0,1.0,-1.0,0.0
1701719094.5027978,-1.0,0.0,13.0,3.0,-5.0,0.0,1.0,-2.0
1701719094.5027978,-2.0,-2.0,-10.0,4.0,0.0,-4.0,-1.0,-1.0
1701719094.5227923,-2.0,-2.0,-6.0,5.0,-1.0,-3.0,-2.0,-3.0
1701719094.5227923,0.0,-1.0,-28.0,-20.0,3.0,1.0,3.0,3.0
1701719094.5227923,-1.0,-3.0,12.0,20.0,-2.0,-1.0,-3.0,6.0
1701719094.5227923,0.0,3.0,11.0,-7.0,-2.0,0.0,1.0,-2.0
1701719094.5328274,-2.0,-2.0,-4.0,-5.0,-6.0,-5.0,-5.0,-2.0
1701719094.5328274,-1.0,-2.0,-10.0,4.0,6.0,1.0,1.0,-2.0
1701719094.5328274,-1.0,-4.0,2.0,-2.0,-4.0,-1.0,-5.0,-4.0
1701719094.5328274,-2.0,1.0,-8.0,0.0,-4.0,-2.0,0.0,2.0
1701719094.5527942,-1.0,-1.0,5.0,1.0,-6.0,2.0,-3.0,1.0
1701719094.5527942,1.0,-1.0,2.0,0.0,9.0,2.0,1.0,-1.0
1701719094.5527942,1.0,1.0,12.0,-1.0,9.0,-1.0,-2.0,-4.0
1701719094.5527942,-2.0,1.0,22.0,22.0,2.0,0.0,-2.0,-2.0
1701719094.5732236,-2.0,-3.0,14.0,-8.0,-5.0,-3.0,-4.0,-3.0
1701719094.5732236,0.0,-1.0,-3.0,-8.0,-16.0,-4.0,0.0,-2.0
1701719094.5732236,-1.0,-5.0,-8.0,-6.0,-3.0,-4.0,-3.0,-2.0
1701719094.5732236,1.0,0.0,-6.0,-3.0,1.0,1.0,2.0,-1.0
1701719094.593178,1.0,0.0,23.0,9.0,3.0,2.0,1.0,0.0
1701719094.593178,-1.0,-1.0,-32.0,-11.0,-2.0,0.0,1.0,-2.0
1701719094.593178,-1.0,-2.0,-3.0,7.0,-5.0,-4.0,-4.0,-3.0
1701719094.593178,-3.0,-2.0,0.0,-8.0,-9.0,-2.0,-1.0,-2.0
1701719094.612829,-1.0,3.0,6.0,9.0,15.0,2.0,0.0,1.0
1701719094.612829,-1.0,1.0,14.0,4.0,-5.0,-3.0,-2.0,0.0
1701719094.612829,-2.0,-3.0,-21.0,-2.0,-3.0,-1.0,-2.0,-2.0
1701719094.612829,2.0,-1.0,-9.0,-5.0,-3.0,-3.0,-2.0,1.0
1701719094.6331875,0.0,0.0,-2.0,3.0,-2.0,0.0,6.0,-2.0
1701719094.6331875,0.0,1.0,-1.0,-12.0,-3.0,-1.0,-1.0,0.0
1701719094.6331875,-2.0,-4.0,24.0,11.0,-4.0,-1.0,-1.0,-2.0
1701719094.6331875,-1.0,-2.0,3.0,-1.0,3.0,-1.0,-6.0,1.0
1701719094.6531854,-4.0,0.0,-9.0,-7.0,-2.0,-2.0,1.0,-2.0
1701719094.6531854,-1.0,3.0,7.0,-8.0,-2.0,0.0,0.0,-1.0
1701719094.6531854,-1.0,-5.0,11.0,10.0,1.0,1.0,2.0,-2.0
1701719094.6531854,0.0,2.0,2.0,-6.0,3.0,-1.0,-1.0,0.0
1701719094.6727946,-1.0,0.0,-24.0,4.0,-3.0,-5.0,-6.0,-1.0
1701719094.6727946,-2.0,-3.0,-22.0,-9.0,-5.0,-2.0,0.0,0.0
1701719094.6727946,0.0,-2.0,0.0,-1.0,-1.0,-2.0,-2.0,-1.0
1701719094.6727946,-2.0,-2.0,-2.0,-6.0,0.0,1.0,0.0,-1.0
1701719094.6930532,1.0,0.0,10.0,1.0,-1.0,-1.0,-3.0,0.0
1701719094.6930532,-2.0,-2.0,12.0,7.0,2.0,0.0,3.0,-2.0
1701719094.6930532,-2.0,0.0,-8.0,-5.0,-1.0,-4.0,-10.0,-4.0
1701719094.6930532,-2.0,-1.0,-6.0,0.0,-1.0,0.0,6.0,4.0
1701719094.7128758,3.0,-3.0,2.0,-7.0,-2.0,-1.0,0.0,-9.0
1701719094.7128758,-14.0,-3.0,15.0,4.0,-3.0,-1.0,-5.0,-1.0
1701719094.7128758,8.0,0.0,-9.0,-1.0,0.0,0.0,7.0,1.0
1701719094.7128758,-4.0,-2.0,-9.0,3.0,0.0,0.0,0.0,-3.0
1701719094.7329733,-3.0,2.0,-3.0,-6.0,0.0,-1.0,-4.0,2.0
1701719094.7329733,2.0,-1.0,14.0,11.0,-1.0,-4.0,-15.0,-7.0
1701719094.7329733,-1.0,3.0,0.0,-5.0,1.0,3.0,8.0,4.0
1701719094.7329733,0.0,1.0,1.0,2.0,-1.0,-1.0,6.0,-1.0
1701719094.7530901,0.0,2.0,0.0,-1.0,0.0,-3.0,-1.0,-2.0
1701719094.7530901,1.0,-1.0,6.0,-2.0,-1.0,0.0,-2.0,-1.0
1701719094.7530901,-1.0,-7.0,-22.0,-2.0,-1.0,-1.0,-4.0,-2.0
1701719094.7530901,-9.0,2.0,-3.0,-10.0,-4.0,-2.0,-1.0,-1.0
1701719094.7730722,-1.0,2.0,12.0,6.0,1.0,1.0,0.0,1.0
1701719094.7730722,2.0,-3.0,-7.0,-6.0,-3.0,-2.0,0.0,3.0
1701719094.7730722,-2.0,2.0,-4.0,5.0,2.0,0.0,0.0,-1.0
1701719094.7730722,5.0,-1.0,2.0,2.0,0.0,-1.0,0.0,1.0
1701719094.802794,-2.0,-7.0,-14.0,-15.0,-7.0,-2.0,-3.0,-3.0
1701719094.802794,0.0,2.0,27.0,15.0,-1.0,-2.0,2.0,-3.0
1701719094.802794,-2.0,-4.0,-7.0,-11.0,2.0,-2.0,-1.0,-1.0
1701719094.802794,0.0,-5.0,-10.0,31.0,-1.0,-1.0,-2.0,-5.0
1701719094.8128803,-4.0,-4.0,-3.0,-17.0,-2.0,-1.0,-4.0,0.0
1701719094.8128803,5.0,2.0,3.0,-12.0,4.0,2.0,4.0,2.0
1701719094.8128803,-1.0,3.0,9.0,11.0,-2.0,0.0,-4.0,0.0
1701719094.8128803,1.0,0.0,1.0,-11.0,-2.0,-1.0,4.0,-2.0
1701719094.832793,-1.0,-2.0,4.0,-2.0,-1.0,-1.0,0.0,-1.0
1701719094.832793,0.0,0.0,2.0,-27.0,-7.0,-2.0,0.0,-1.0
1701719094.832793,-4.0,0.0,-12.0,-4.0,2.0,-1.0,-3.0,-2.0
1701719094.832793,-1.0,0.0,4.0,-2.0,-2.0,-1.0,-13.0,0.0
1701719094.852927,1.0,-2.0,-9.0,23.0,2.0,4.0,10.0,3.0
1701719094.852927,2.0,0.0,-4.0,3.0,0.0,-3.0,-1.0,-1.0
1701719094.852927,-12.0,2.0,-10.0,-6.0,-1.0,2.0,7.0,8.0
1701719094.852927,7.0,-1.0,17.0,11.0,1.0,0.0,-1.0,2.0
1701719094.8730178,-2.0,4.0,-11.0,-13.0,4.0,2.0,1.0,-7.0
1701719094.8730178,2.0,6.0,19.0,6.0,0.0,-5.0,-7.0,1.0
1701719094.8730178,-1.0,-11.0,-28.0,-7.0,-5.0,-5.0,-15.0,-11.0
1701719094.8730178,-2.0,-2.0,-2.0,-2.0,2.0,0.0,3.0,8.0
1701719094.9127927,-1.0,-3.0,1.0,-1.0,-2.0,-2.0,-7.0,-9.0
1701719094.9127927,-1.0,-1.0,-14.0,8.0,-1.0,2.0,5.0,-1.0
1701719094.9127927,1.0,0.0,-7.0,-1.0,0.0,-1.0,-1.0,-2.0
1701719094.9127927,-3.0,-3.0,11.0,-18.0,-4.0,-3.0,0.0,-1.0
1701719094.9127927,0.0,-4.0,0.0,0.0,-2.0,0.0,-1.0,1.0
1701719094.9127927,-3.0,-2.0,-6.0,5.0,-2.0,-1.0,1.0,0.0
1701719094.9127927,0.0,-1.0,5.0,-4.0,-2.0,-2.0,-2.0,-3.0
1701719094.9127927,1.0,4.0,-5.0,-15.0,-2.0,-1.0,-4.0,-4.0
1701719094.9400556,-2.0,-1.0,42.0,10.0,-1.0,-2.0,2.0,0.0
1701719094.9400556,-3.0,-3.0,-11.0,21.0,-2.0,0.0,0.0,-2.0
1701719094.9411235,3.0,-1.0,-36.0,-51.0,1.0,3.0,2.0,3.0
1701719094.9411235,-4.0,2.0,42.0,69.0,10.0,0.0,-2.0,-8.0
1701719094.955441,-2.0,2.0,34.0,25.0,0.0,-5.0,-7.0,3.0
1701719094.955441,-1.0,-4.0,-22.0,-29.0,-5.0,0.0,-1.0,1.0
1701719094.955441,1.0,0.0,23.0,18.0,-1.0,-1.0,3.0,-1.0
1701719094.955441,1.0,-8.0,-41.0,-44.0,-7.0,-1.0,0.0,-3.0
1701719094.975809,-1.0,1.0,-1.0,12.0,1.0,-4.0,-11.0,-21.0
1701719094.975809,2.0,-1.0,2.0,11.0,0.0,0.0,5.0,19.0
1701719094.975809,-2.0,-1.0,9.0,0.0,-1.0,-1.0,-3.0,-15.0
1701719094.975809,-1.0,-3.0,-27.0,-15.0,-1.0,-3.0,-10.0,1.0
1701719094.9954417,-2.0,0.0,-9.0,-4.0,-4.0,0.0,2.0,4.0
1701719094.9954417,-1.0,-1.0,-7.0,-20.0,-4.0,-4.0,-5.0,-5.0
1701719094.9954417,-1.0,-9.0,-24.0,8.0,0.0,0.0,-2.0,0.0
1701719094.9954417,-1.0,5.0,13.0,5.0,-2.0,0.0,4.0,-1.0
1701719095.0054667,3.0,-5.0,-35.0,-15.0,-1.0,1.0,-1.0,2.0
1701719095.0054667,-2.0,-1.0,30.0,8.0,2.0,-2.0,-1.0,-4.0
1701719095.0157728,-11.0,4.0,18.0,6.0,-4.0,-5.0,-3.0,1.0
1701719095.0157728,4.0,-2.0,3.0,2.0,-1.0,-1.0,-6.0,-1.0
1701719095.0358949,-2.0,-5.0,-14.0,-2.0,0.0,1.0,13.0,6.0
1701719095.0358949,3.0,5.0,13.0,5.0,3.0,4.0,-2.0,-6.0
1701719095.0358949,0.0,-9.0,-25.0,-12.0,-4.0,-5.0,-7.0,10.0
1701719095.0358949,-3.0,-6.0,-29.0,-17.0,-2.0,0.0,7.0,-8.0
1701719095.055897,-2.0,5.0,8.0,3.0,-1.0,-5.0,-19.0,0.0
1701719095.055897,-7.0,3.0,5.0,5.0,-1.0,5.0,12.0,-2.0
1701719095.055897,0.0,8.0,13.0,0.0,1.0,1.0,4.0,-4.0
1701719095.055897,-1.0,-15.0,6.0,-11.0,-1.0,0.0,3.0,1.0
1701719095.0659292,4.0,2.0,2.0,9.0,0.0,0.0,-3.0,5.0
1701719095.0659292,-2.0,-3.0,-7.0,5.0,1.0,-6.0,-6.0,-6.0
1701719095.0761905,3.0,5.0,13.0,-2.0,-4.0,-4.0,-4.0,-1.0
1701719095.0761905,-3.0,3.0,-27.0,-8.0,-3.0,-2.0,-1.0,-1.0
1701719095.0962803,-1.0,0.0,12.0,13.0,4.0,2.0,1.0,-1.0
1701719095.0962803,-1.0,-8.0,-62.0,-36.0,-4.0,-1.0,-6.0,0.0
1701719095.0962803,-2.0,5.0,41.0,33.0,2.0,1.0,5.0,0.0
1701719095.0962803,1.0,5.0,-42.0,-10.0,-5.0,-3.0,-5.0,-2.0
1701719095.1158957,-3.0,-2.0,-12.0,-4.0,-3.0,-2.0,-1.0,0.0
1701719095.1158957,-1.0,-3.0,-1.0,-2.0,15.0,0.0,0.0,-3.0
1701719095.1158957,1.0,-3.0,1.0,-3.0,-12.0,-1.0,2.0,1.0
1701719095.1158957,-3.0,3.0,14.0,-4.0,11.0,-1.0,-3.0,-1.0
1701719095.125931,2.0,1.0,4.0,1.0,-5.0,-2.0,1.0,2.0
1701719095.125931,-1.0,-5.0,-1.0,25.0,-3.0,-1.0,2.0,-3.0
1701719095.136186,0.0,8.0,9.0,-9.0,1.0,1.0,0.0,-3.0
1701719095.136186,0.0,3.0,16.0,14.0,-5.0,-1.0,-2.0,3.0
1701719095.1562922,-3.0,-9.0,-29.0,-22.0,-5.0,-4.0,2.0,1.0
1701719095.1562922,-1.0,-8.0,31.0,-2.0,-4.0,-4.0,-6.0,-4.0
1701719095.1562922,-1.0,-8.0,-35.0,-18.0,-4.0,-2.0,-1.0,-4.0
1701719095.1562922,-5.0,2.0,29.0,18.0,0.0,0.0,3.0,3.0
1701719095.1858938,6.0,2.0,-11.0,-14.0,0.0,0.0,1.0,2.0
1701719095.1858938,8.0,7.0,-2.0,17.0,-3.0,-3.0,-2.0,1.0
1701719095.1858938,-4.0,-14.0,-51.0,-31.0,2.0,0.0,-1.0,-3.0
1701719095.1858938,-4.0,-10.0,-5.0,13.0,1.0,-2.0,6.0,-3.0
1701719095.1858938,3.0,1.0,35.0,12.0,2.0,0.0,-8.0,-16.0
1701719095.1858938,-1.0,-6.0,-39.0,-17.0,-4.0,-2.0,0.0,15.0
1701719095.196065,-1.0,-6.0,34.0,15.0,2.0,-2.0,2.0,-7.0
1701719095.196065,6.0,-1.0,-6.0,-12.0,0.0,-2.0,-11.0,3.0
1701719095.2160602,-1.0,0.0,8.0,-4.0,-3.0,-5.0,-5.0,2.0
1701719095.2160602,-1.0,7.0,-8.0,-8.0,-1.0,10.0,32.0,1.0
1701719095.235898,4.0,-1.0,23.0,-7.0,-1.0,0.0,-4.0,6.0
1701719095.235898,-3.0,-3.0,25.0,11.0,-1.0,0.0,11.0,-2.0
1701719095.235898,-13.0,-2.0,-61.0,-21.0,-4.0,-3.0,-2.0,8.0
1701719095.235898,-4.0,-1.0,30.0,-11.0,-4.0,-9.0,-23.0,-10.0
1701719095.235898,-3.0,3.0,9.0,28.0,5.0,3.0,10.0,10.0
1701719095.235898,1.0,3.0,-27.0,-20.0,-4.0,-1.0,2.0,3.0
1701719095.2459276,5.0,1.0,-30.0,-6.0,2.0,3.0,2.0,-5.0
1701719095.2459276,-10.0,-19.0,-2.0,21.0,-2.0,-1.0,2.0,4.0
1701719095.2561846,-1.0,1.0,-9.0,-9.0,-3.0,-6.0,-6.0,-2.0
1701719095.2561846,-6.0,-2.0,3.0,3.0,3.0,3.0,-6.0,-1.0
1701719095.2758958,3.0,3.0,-8.0,-11.0,1.0,1.0,1.0,0.0
1701719095.2758958,-4.0,-1.0,11.0,8.0,0.0,-1.0,-9.0,-8.0
1701719095.2858946,1.0,0.0,6.0,8.0,-2.0,-2.0,-4.0,-3.0
1701719095.2858946,-5.0,-8.0,-12.0,9.0,1.0,-1.0,-1.0,-7.0
1701719095.2961123,-5.0,-1.0,13.0,-1.0,-6.0,-2.0,0.0,1.0
1701719095.2961123,0.0,-2.0,8.0,-4.0,-3.0,-1.0,-2.0,-2.0
1701719095.2961123,-1.0,9.0,33.0,47.0,6.0,3.0,1.0,-1.0
1701719095.2961123,6.0,12.0,-29.0,-50.0,0.0,-1.0,-3.0,-2.0
1701719095.3061073,-5.0,-31.0,-22.0,-19.0,-9.0,-3.0,2.0,0.0
1701719095.3061073,2.0,7.0,33.0,34.0,2.0,1.0,-3.0,-2.0
1701719095.3160582,1.0,2.0,-60.0,-49.0,-3.0,-3.0,-4.0,-3.0
1701719095.3160582,-3.0,-2.0,-15.0,12.0,0.0,1.0,-3.0,-2.0
1701719095.3361006,-4.0,-2.0,50.0,46.0,3.0,-2.0,0.0,-2.0
1701719095.3361006,-3.0,-5.0,-51.0,-55.0,-4.0,-4.0,-1.0,-3.0
1701719095.3361006,0.0,-2.0,19.0,3.0,0.0,2.0,-1.0,-1.0
1701719095.3361006,-4.0,-3.0,2.0,-9.0,-4.0,-4.0,2.0,6.0
1701719095.3558943,5.0,9.0,-21.0,-11.0,-3.0,-3.0,-1.0,-4.0
1701719095.3558943,-2.0,6.0,24.0,9.0,4.0,1.0,-1.0,8.0
1701719095.3558943,-1.0,-4.0,-8.0,1.0,-1.0,2.0,2.0,1.0
1701719095.3558943,1.0,1.0,18.0,8.0,-1.0,3.0,-1.0,1.0
1701719095.3661795,-1.0,3.0,3.0,-4.0,2.0,1.0,11.0,11.0
1701719095.3661795,-3.0,2.0,-4.0,5.0,1.0,-4.0,-24.0,-18.0
1701719095.3761842,5.0,-3.0,-2.0,-6.0,-2.0,-5.0,13.0,6.0
1701719095.3761842,-2.0,1.0,12.0,8.0,-2.0,3.0,9.0,0.0
1701719095.3962176,-5.0,0.0,12.0,8.0,0.0,-1.0,-2.0,-3.0
1701719095.3962176,6.0,4.0,1.0,-9.0,-1.0,4.0,5.0,2.0
1701719095.3962176,-6.0,0.0,-1.0,-1.0,-1.0,-5.0,-21.0,-6.0
1701719095.3962176,3.0,5.0,7.0,7.0,-3.0,-4.0,-10.0,-6.0
1701719095.415898,-2.0,2.0,19.0,-3.0,1.0,-1.0,-2.0,-2.0
1701719095.415898,-3.0,-5.0,-19.0,-13.0,-3.0,-3.0,1.0,1.0
1701719095.415898,0.0,0.0,-7.0,8.0,-1.0,4.0,8.0,-2.0
1701719095.415898,1.0,0.0,-1.0,18.0,-4.0,0.0,3.0,2.0
1701719095.4259205,-3.0,-1.0,-36.0,-22.0,-4.0,-1.0,-4.0,-3.0
1701719095.4259205,0.0,-1.0,56.0,1.0,8.0,2.0,2.0,1.0
1701719095.4361856,-1.0,-1.0,17.0,29.0,1.0,-2.0,0.0,-1.0
1701719095.4361856,-1.0,-4.0,-23.0,-31.0,-2.0,-4.0,-13.0,-2.0
1701719095.4577749,1.0,-1.0,-40.0,-15.0,-5.0,3.0,8.0,2.0
1701719095.4577749,-1.0,-1.0,45.0,42.0,-1.0,-2.0,1.0,-6.0
1701719095.4597783,0.0,-7.0,-31.0,-25.0,-4.0,0.0,-5.0,-3.0
1701719095.4597783,-14.0,-1.0,71.0,25.0,-1.0,-7.0,-5.0,-6.0
1701719095.4811387,4.0,7.0,10.0,8.0,0.0,-2.0,-2.0,-10.0
1701719095.4811387,-2.0,-3.0,-48.0,-30.0,-5.0,3.0,2.0,0.0
1701719095.482139,-8.0,-9.0,-17.0,-4.0,3.0,0.0,11.0,7.0
1701719095.482139,17.0,0.0,-16.0,-14.0,-3.0,-4.0,-22.0,-31.0
1701719095.497937,-5.0,-7.0,10.0,-9.0,1.0,-2.0,-12.0,3.0
1701719095.497937,-2.0,1.0,-15.0,10.0,-3.0,-1.0,2.0,1.0
1701719095.5279276,0.0,-3.0,10.0,3.0,-3.0,3.0,7.0,-8.0
1701719095.5279276,0.0,19.0,-14.0,-13.0,2.0,0.0,3.0,13.0
1701719095.5279276,-4.0,-24.0,17.0,8.0,-1.0,0.0,0.0,-3.0
1701719095.5279276,3.0,0.0,-16.0,-1.0,1.0,-4.0,-5.0,-3.0
1701719095.5279276,4.0,0.0,3.0,-1.0,1.0,-1.0,-6.0,-1.0
1701719095.5279276,-4.0,0.0,20.0,-1.0,0.0,3.0,6.0,2.0
1701719095.5379305,2.0,15.0,26.0,8.0,1.0,-2.0,-4.0,0.0
1701719095.5379305,-4.0,0.0,-15.0,2.0,-1.0,3.0,5.0,10.0
1701719095.5379305,-2.0,-1.0,5.0,-1.0,2.0,0.0,-4.0,-2.0
1701719095.5379305,-4.0,-20.0,-38.0,-18.0,-9.0,-7.0,-4.0,0.0
1701719095.5579393,-3.0,7.0,7.0,5.0,3.0,-2.0,-5.0,-5.0
1701719095.5579393,0.0,-4.0,-18.0,-15.0,0.0,-1.0,1.0,-8.0
1701719095.5779269,1.0,9.0,20.0,10.0,0.0,0.0,2.0,5.0
1701719095.5779269,-3.0,-2.0,10.0,6.0,-1.0,0.0,0.0,-1.0
1701719095.5779269,-1.0,-5.0,-23.0,-3.0,2.0,0.0,2.0,6.0
1701719095.5779269,-1.0,1.0,22.0,-14.0,10.0,2.0,5.0,-1.0
1701719095.5779269,0.0,1.0,-21.0,-22.0,-3.0,-2.0,-7.0,-1.0
1701719095.5779269,-4.0,-2.0,17.0,36.0,-5.0,-4.0,5.0,3.0
1701719095.5982127,-1.0,2.0,7.0,-8.0,7.0,1.0,1.0,-2.0
1701719095.5982127,-2.0,-5.0,-4.0,-4.0,-6.0,-3.0,-3.0,-1.0
1701719095.5982127,0.0,-2.0,-4.0,-18.0,-4.0,-3.0,-6.0,-6.0
1701719095.5982127,1.0,-2.0,10.0,7.0,-4.0,-2.0,7.0,4.0
1701719095.6482453,-2.0,2.0,23.0,19.0,-5.0,-3.0,-11.0,-4.0
1701719095.6482453,2.0,2.0,-15.0,-3.0,-4.0,0.0,1.0,-4.0
1701719095.6482453,-2.0,-3.0,-19.0,-22.0,1.0,-3.0,-11.0,0.0
1701719095.6482453,-1.0,-3.0,-9.0,-16.0,-3.0,2.0,12.0,-1.0
1701719095.6482453,3.0,-1.0,15.0,9.0,-2.0,-1.0,-1.0,6.0
1701719095.6482453,-9.0,-4.0,-24.0,0.0,-1.0,-3.0,-5.0,1.0
1701719095.6482453,-3.0,6.0,11.0,9.0,-5.0,3.0,13.0,0.0
1701719095.6482453,-5.0,4.0,4.0,0.0,5.0,2.0,-5.0,-2.0
1701719095.6585953,-2.0,-3.0,18.0,10.0,1.0,-3.0,2.0,17.0
1701719095.6585953,1.0,0.0,-9.0,-4.0,-3.0,-1.0,-6.0,-18.0
1701719095.6585953,1.0,0.0,5.0,7.0,0.0,-1.0,-3.0,6.0
1701719095.6585953,-4.0,3.0,39.0,7.0,4.0,1.0,-2.0,-3.0
1701719095.6782453,2.0,-4.0,-63.0,-20.0,-2.0,3.0,9.0,3.0
1701719095.6782453,4.0,7.0,53.0,20.0,-6.0,-7.0,-4.0,-1.0
1701719095.6782453,-8.0,-11.0,-28.0,2.0,0.0,-3.0,-6.0,1.0
1701719095.6782453,6.0,1.0,-25.0,-1.0,2.0,2.0,1.0,1.0
1701719095.688427,-9.0,-4.0,-15.0,-29.0,-5.0,-3.0,-11.0,-13.0
1701719095.688427,4.0,-3.0,22.0,-1.0,-2.0,-1.0,7.0,10.0
1701719095.698251,0.0,4.0,7.0,12.0,-3.0,-3.0,-4.0,-5.0
1701719095.698251,1.0,7.0,-16.0,-5.0,-1.0,-1.0,-3.0,2.0
1701719095.7185864,0.0,11.0,17.0,5.0,1.0,2.0,4.0,-6.0
1701719095.7185864,-9.0,-13.0,-31.0,-8.0,1.0,0.0,-5.0,-2.0
1701719095.7185864,0.0,8.0,20.0,15.0,1.0,-2.0,7.0,0.0
1701719095.7185864,0.0,-9.0,-20.0,-6.0,-2.0,-3.0,-3.0,0.0
1701719095.758247,2.0,7.0,-4.0,5.0,2.0,3.0,2.0,1.0
1701719095.758247,-4.0,2.0,25.0,0.0,1.0,-1.0,-5.0,-3.0
1701719095.7682455,1.0,0.0,-6.0,25.0,4.0,0.0,-3.0,-3.0
1701719095.7682455,-4.0,-12.0,7.0,9.0,0.0,-1.0,-3.0,-3.0
1701719095.7682455,0.0,-10.0,-43.0,-62.0,-8.0,1.0,3.0,-3.0
1701719095.7682455,0.0,3.0,-10.0,-18.0,-6.0,-2.0,-5.0,0.0
1701719095.7682455,-2.0,-2.0,7.0,-6.0,2.0,1.0,7.0,-2.0
1701719095.7682455,0.0,0.0,-2.0,67.0,6.0,4.0,-2.0,-1.0
1701719095.778618,-1.0,1.0,20.0,-26.0,-7.0,-10.0,-15.0,-5.0
1701719095.778618,0.0,-15.0,-22.0,-9.0,1.0,0.0,-6.0,2.0
1701719095.778618,-2.0,0.0,0.0,8.0,-3.0,0.0,13.0,-5.0
1701719095.778618,2.0,-3.0,-15.0,-33.0,0.0,0.0,2.0,4.0
1701719095.7982435,-1.0,-1.0,21.0,25.0,0.0,-1.0,-2.0,-4.0
1701719095.7982435,1.0,18.0,0.0,-1.0,0.0,-6.0,-17.0,-1.0
1701719095.7982435,0.0,-3.0,4.0,8.0,-1.0,-3.0,-7.0,-5.0
1701719095.7982435,-3.0,-2.0,-26.0,-13.0,-2.0,-4.0,-4.0,-4.0
1701719095.808624,-1.0,-1.0,2.0,12.0,-2.0,4.0,8.0,-5.0
1701719095.808624,2.0,0.0,-2.0,-3.0,-2.0,1.0,7.0,3.0
1701719095.8182502,-2.0,-4.0,10.0,-3.0,-1.0,0.0,-1.0,1.0
1701719095.8182502,0.0,-2.0,-8.0,-15.0,-5.0,-4.0,-3.0,-4.0
1701719095.8386254,-1.0,1.0,15.0,17.0,2.0,0.0,-1.0,4.0
1701719095.8386254,0.0,-4.0,-36.0,-13.0,-7.0,-2.0,6.0,0.0
1701719095.8386254,-2.0,-3.0,6.0,0.0,-1.0,2.0,-3.0,-1.0
1701719095.8386254,-1.0,-1.0,-18.0,-33.0,-8.0,0.0,-3.0,0.0
1701719095.8582795,-2.0,-2.0,23.0,14.0,7.0,-2.0,-3.0,-2.0
1701719095.8582795,1.0,0.0,4.0,24.0,2.0,-1.0,6.0,1.0
1701719095.8582795,-1.0,1.0,-1.0,-22.0,-1.0,-3.0,-12.0,-3.0
1701719095.8582795,2.0,0.0,23.0,2.0,-1.0,2.0,-7.0,1.0
1701719095.8686175,0.0,0.0,10.0,56.0,3.0,0.0,15.0,2.0
1701719095.8686175,3.0,0.0,-31.0,-17.0,-4.0,-2.0,-1.0,-4.0
1701719095.8782475,-13.0,-7.0,-46.0,-107.0,-13.0,-7.0,-8.0,-3.0
1701719095.8782475,0.0,8.0,87.0,99.0,9.0,2.0,2.0,0.0
1701719095.9082468,-1.0,-9.0,-6.0,5.0,0.0,-5.0,-14.0,-5.0
1701719095.9082468,-3.0,-5.0,0.0,21.0,2.0,1.0,5.0,1.0
1701719095.9082468,3.0,3.0,16.0,20.0,1.0,2.0,-5.0,-5.0
1701719095.9082468,0.0,-1.0,-64.0,-76.0,-5.0,0.0,10.0,3.0
1701719095.9186714,-2.0,-9.0,-29.0,0.0,-4.0,-2.0,-2.0,2.0
1701719095.9186714,-6.0,-1.0,11.0,4.0,-2.0,-4.0,-7.0,-7.0
1701719095.9186714,4.0,-3.0,8.0,2.0,-3.0,1.0,11.0,2.0
1701719095.9186714,-1.0,3.0,-10.0,-6.0,0.0,-3.0,0.0,2.0
1701719095.9286208,2.0,5.0,30.0,-1.0,0.0,2.0,0.0,0.0
1701719095.9286208,-5.0,-13.0,-45.0,-18.0,-3.0,-2.0,-1.0,0.0
1701719095.9385798,2.0,21.0,40.0,17.0,4.0,1.0,-1.0,2.0
1701719095.9385798,-5.0,-16.0,-8.0,5.0,-1.0,-4.0,-1.0,0.0
1701719095.958246,-1.0,0.0,-15.0,-11.0,-1.0,3.0,8.0,1.0
1701719095.958246,0.0,1.0,21.0,-5.0,-4.0,2.0,-8.0,-4.0
1701719095.958246,4.0,8.0,29.0,25.0,2.0,-4.0,-3.0,0.0
1701719095.958246,1.0,-2.0,-34.0,-19.0,-2.0,-5.0,-8.0,-4.0
1701719095.9782534,-1.0,4.0,0.0,-17.0,-3.0,-1.0,5.0,2.0
1701719095.9782534,1.0,1.0,15.0,4.0,-11.0,-3.0,2.0,2.0
1701719095.9782534,-3.0,-11.0,0.0,11.0,4.0,-1.0,-3.0,-3.0
1701719095.9782534,-5.0,0.0,5.0,-3.0,4.0,2.0,-1.0,-3.0
1701719095.9966588,-5.0,-6.0,-10.0,-12.0,-12.0,-2.0,-1.0,-2.0
1701719095.9966588,-1.0,4.0,-9.0,57.0,10.0,0.0,1.0,1.0
1701719096.0204034,-2.0,-6.0,7.0,-63.0,-32.0,-6.0,-3.0,1.0
1701719096.0204034,4.0,10.0,21.0,6.0,60.0,13.0,6.0,2.0
1701719096.0204034,-5.0,-17.0,-28.0,-4.0,3.0,0.0,-2.0,-1.0
1701719096.0204034,-1.0,4.0,11.0,-2.0,-2.0,1.0,2.0,-1.0
1701719096.0204034,1.0,0.0,-20.0,31.0,-15.0,-6.0,-4.0,-1.0
1701719096.0204034,-3.0,-2.0,22.0,-17.0,-28.0,-8.0,-2.0,-2.0
1701719096.0406716,1.0,9.0,1.0,-3.0,14.0,3.0,-1.0,1.0
1701719096.0406716,1.0,2.0,15.0,-8.0,3.0,0.0,1.0,0.0
1701719096.0406716,0.0,-8.0,-58.0,-32.0,6.0,0.0,1.0,1.0
1701719096.0406716,-5.0,0.0,20.0,35.0,-12.0,-9.0,-5.0,-8.0
1701719096.0506823,0.0,8.0,-15.0,-5.0,-8.0,-1.0,-15.0,-8.0
1701719096.0506823,6.0,4.0,40.0,-8.0,-7.0,-2.0,-3.0,-4.0
1701719096.0804064,-7.0,-1.0,-43.0,1.0,8.0,3.0,-2.0,2.0
1701719096.0804064,-5.0,-14.0,-13.0,-14.0,-10.0,1.0,28.0,6.0
1701719096.0804064,2.0,1.0,17.0,10.0,-4.0,-13.0,-73.0,-33.0
1701719096.0804064,-7.0,-6.0,-23.0,-15.0,2.0,1.0,23.0,6.0
1701719096.0804064,2.0,2.0,23.0,11.0,6.0,-2.0,-10.0,-5.0
1701719096.0804064,-8.0,2.0,-14.0,0.0,-3.0,-3.0,-11.0,-9.0
1701719096.1006927,-6.0,-10.0,1.0,0.0,-1.0,1.0,28.0,13.0
1701719096.1006927,0.0,-18.0,-20.0,-16.0,0.0,-7.0,-22.0,-2.0
1701719096.1006927,0.0,4.0,20.0,13.0,0.0,-3.0,-6.0,-2.0
1701719096.1006927,1.0,0.0,1.0,-3.0,-7.0,-1.0,2.0,1.0
1701719096.110806,-2.0,2.0,20.0,-4.0,-2.0,-5.0,-3.0,3.0
1701719096.110806,9.0,-5.0,-30.0,-3.0,-2.0,1.0,3.0,0.0
1701719096.120407,-4.0,-6.0,-4.0,3.0,1.0,-2.0,4.0,-2.0
1701719096.120407,2.0,-1.0,5.0,-3.0,1.0,-1.0,-12.0,-1.0
1701719096.14045,-5.0,-2.0,7.0,4.0,-1.0,0.0,10.0,1.0
1701719096.14045,-5.0,5.0,10.0,-19.0,-5.0,0.0,1.0,0.0
1701719096.14045,1.0,3.0,8.0,13.0,9.0,5.0,9.0,4.0
1701719096.14045,3.0,-4.0,0.0,-16.0,-7.0,-4.0,-13.0,-3.0
1701719096.1608827,1.0,0.0,-16.0,3.0,-11.0,0.0,12.0,5.0
1701719096.1608827,-4.0,-4.0,3.0,-7.0,1.0,-4.0,2.0,1.0
1701719096.1608827,0.0,2.0,13.0,14.0,5.0,-3.0,-6.0,-4.0
1701719096.1608827,-3.0,-2.0,13.0,-3.0,7.0,5.0,4.0,1.0
1701719096.17103,2.0,3.0,-9.0,0.0,-1.0,-1.0,7.0,1.0
1701719096.17103,-2.0,3.0,-19.0,-25.0,-4.0,0.0,-3.0,-3.0
1701719096.1808786,0.0,-7.0,7.0,-29.0,-12.0,-2.0,-6.0,-1.0
1701719096.1808786,0.0,1.0,-1.0,13.0,-2.0,-1.0,-1.0,0.0
1701719096.1911764,-2.0,4.0,57.0,33.0,5.0,0.0,-1.0,0.0
1701719096.2009215,-1.0,5.0,18.0,19.0,13.0,4.0,5.0,-1.0
1701719096.2009215,-2.0,-3.0,-15.0,-8.0,0.0,0.0,4.0,1.0
1701719096.2009215,2.0,-4.0,-39.0,-23.0,-12.0,-3.0,2.0,1.0
1701719096.2212498,1.0,0.0,-26.0,-27.0,-2.0,-3.0,-7.0,-1.0
1701719096.2212498,-5.0,-3.0,22.0,-11.0,-3.0,-1.0,-6.0,-2.0
1701719096.2212498,2.0,-3.0,-15.0,19.0,1.0,0.0,2.0,0.0
1701719096.2212498,-10.0,-1.0,7.0,0.0,-4.0,-4.0,-6.0,-5.0
1701719096.2311902,-1.0,-1.0,-14.0,-10.0,0.0,0.0,4.0,2.0
1701719096.2311902,0.0,0.0,-13.0,0.0,-1.0,-2.0,-1.0,-2.0
1701719096.2411618,1.0,-4.0,-23.0,-2.0,0.0,-1.0,0.0,8.0
1701719096.2411618,-3.0,3.0,31.0,16.0,0.0,0.0,-1.0,-19.0
1701719096.2608783,-1.0,3.0,-15.0,-13.0,0.0,-2.0,-4.0,3.0
1701719096.2608783,-6.0,0.0,-7.0,-1.0,-3.0,0.0,4.0,-5.0
1701719096.2608783,-1.0,3.0,21.0,12.0,-2.0,-1.0,-4.0,6.0
1701719096.2608783,2.0,-5.0,-20.0,-6.0,1.0,2.0,-1.0,4.0
1701719096.281279,-6.0,-13.0,-14.0,-3.0,-1.0,-4.0,-6.0,-8.0
1701719096.281279,6.0,6.0,41.0,23.0,0.0,4.0,6.0,-5.0
1701719096.3012078,-3.0,-9.0,-48.0,-19.0,-3.0,0.0,4.0,-3.0
1701719096.3012078,4.0,-2.0,-12.0,-5.0,-1.0,-1.0,-1.0,4.0
1701719096.3012078,3.0,3.0,-5.0,-5.0,1.0,-3.0,-10.0,-2.0
1701719096.3012078,-6.0,7.0,3.0,9.0,-1.0,0.0,-1.0,1.0
1701719096.3012078,-2.0,-6.0,7.0,5.0,3.0,3.0,15.0,-2.0
1701719096.3012078,-3.0,-7.0,23.0,1.0,0.0,-1.0,0.0,1.0
1701719096.3112354,0.0,-4.0,-24.0,-9.0,-2.0,-1.0,-2.0,-2.0
1701719096.3112354,-6.0,2.0,-48.0,0.0,-2.0,-4.0,-9.0,-3.0
1701719096.3212097,1.0,-6.0,35.0,3.0,-1.0,0.0,-2.0,-1.0
1701719096.3212097,-3.0,1.0,-1.0,5.0,-2.0,-3.0,-3.0,-1.0
1701719096.3512063,2.0,8.0,-4.0,-16.0,-2.0,1.0,5.0,2.0
1701719096.3512063,-4.0,-12.0,36.0,12.0,-1.0,-1.0,-1.0,-3.0
1701719096.3612022,-2.0,10.0,2.0,9.0,0.0,-1.0,-6.0,-4.0
1701719096.3612022,6.0,-15.0,-21.0,-7.0,-3.0,-1.0,-1.0,1.0
1701719096.3612022,1.0,2.0,29.0,7.0,0.0,0.0,5.0,-2.0
1701719096.3612022,2.0,9.0,-7.0,0.0,-1.0,-1.0,-2.0,4.0
1701719096.3612022,-6.0,0.0,-28.0,-12.0,-4.0,-3.0,-5.0,-2.0
1701719096.3612022,0.0,-8.0,-4.0,-2.0,14.0,1.0,-2.0,2.0
1701719096.3715959,0.0,2.0,17.0,38.0,3.0,2.0,7.0,2.0
1701719096.3715959,2.0,5.0,45.0,-23.0,-7.0,-1.0,-4.0,-1.0
1701719096.3812048,-3.0,-4.0,-3.0,6.0,0.0,-2.0,-5.0,-1.0
1701719096.3812048,-4.0,2.0,-24.0,-10.0,-7.0,-2.0,-2.0,-2.0
1701719096.4012015,-1.0,-2.0,-5.0,-8.0,0.0,-1.0,2.0,-1.0
1701719096.4012015,3.0,-4.0,21.0,21.0,3.0,-1.0,0.0,0.0
1701719096.4012015,4.0,-5.0,-26.0,0.0,-3.0,-1.0,-4.0,-2.0
1701719096.4012015,-3.0,3.0,-13.0,3.0,-2.0,-2.0,1.0,1.0
1701719096.411435,-3.0,-18.0,9.0,4.0,-3.0,-4.0,-1.0,-2.0
1701719096.411435,-1.0,-1.0,-19.0,-33.0,-7.0,-4.0,-2.0,-1.0
1701719096.4214754,4.0,13.0,36.0,-5.0,1.0,0.0,1.0,-1.0
1701719096.4214754,1.0,1.0,1.0,8.0,-2.0,0.0,-1.0,-1.0
1701719096.4314818,2.0,15.0,24.0,9.0,2.0,0.0,2.0,0.0
1701719096.4412086,-6.0,-27.0,-49.0,-5.0,1.0,-1.0,0.0,-2.0
1701719096.4412086,0.0,-4.0,-16.0,3.0,0.0,-2.0,-4.0,1.0
1701719096.4412086,-8.0,11.0,18.0,-4.0,-2.0,-4.0,-8.0,-7.0
1701719096.46139,-7.0,-15.0,18.0,6.0,-3.0,2.0,13.0,6.0
1701719096.46139,4.0,-1.0,-15.0,1.0,-2.0,-3.0,-15.0,-12.0
1701719096.471208,-4.0,-3.0,17.0,-2.0,3.0,3.0,6.0,-9.0
1701719096.471208,1.0,-3.0,-20.0,-1.0,-5.0,-2.0,1.0,5.0
1701719096.4912074,2.0,11.0,25.0,-1.0,-4.0,-4.0,-10.0,-12.0
1701719096.4912074,-10.0,-2.0,-35.0,-3.0,1.0,-1.0,-1.0,11.0
1701719096.4912074,-5.0,-6.0,3.0,1.0,-1.0,-3.0,-4.0,-10.0
1701719096.4912074,-1.0,5.0,25.0,2.0,-1.0,0.0,-15.0,-22.0
1701719096.4912074,-3.0,-3.0,-31.0,-5.0,2.0,-3.0,3.0,5.0
1701719096.4912074,2.0,0.0,0.0,2.0,-1.0,0.0,13.0,8.0
1701719096.5012014,-3.0,0.0,10.0,7.0,-3.0,-3.0,0.0,2.0
1701719096.5012014,-1.0,1.0,6.0,1.0,-1.0,1.0,1.0,6.0
1701719096.5218835,-2.0,-2.0,-38.0,-33.0,-6.0,0.0,-3.0,-6.0
1701719096.5218835,0.0,2.0,8.0,10.0,2.0,0.0,-3.0,-3.0
1701719096.5238643,-1.0,0.0,4.0,1.0,0.0,1.0,-1.0,2.0
1701719096.5238643,1.0,-1.0,-7.0,3.0,1.0,-2.0,-7.0,-2.0
1701719096.5366564,-4.0,-2.0,0.0,-24.0,-3.0,2.0,9.0,0.0
1701719096.5366564,2.0,2.0,-8.0,25.0,3.0,2.0,-4.0,2.0
1701719096.5466907,-2.0,0.0,-2.0,-9.0,0.0,-2.0,10.0,-1.0
1701719096.5466907,0.0,-3.0,11.0,-16.0,-7.0,-2.0,3.0,2.0
1701719096.556959,-1.0,1.0,1.0,-15.0,-9.0,-2.0,-5.0,-1.0
1701719096.556959,1.0,8.0,8.0,5.0,6.0,1.0,-2.0,-1.0
1701719096.556959,2.0,-6.0,-55.0,-20.0,6.0,1.0,-10.0,-1.0
1701719096.556959,-3.0,5.0,72.0,57.0,-1.0,-12.0,-6.0,-6.0
1701719096.5766537,-9.0,-2.0,11.0,-2.0,-6.0,5.0,15.0,1.0
1701719096.5766537,-5.0,-3.0,9.0,-9.0,-3.0,0.0,1.0,-2.0
1701719096.5766537,9.0,-1.0,-4.0,7.0,-3.0,0.0,2.0,2.0
1701719096.5766537,0.0,-10.0,-43.0,-39.0,0.0,-3.0,-3.0,7.0
1701719096.5974824,3.0,-3.0,6.0,26.0,4.0,1.0,2.0,-3.0
1701719096.5974824,-3.0,5.0,4.0,4.0,-1.0,-4.0,-13.0,0.0
1701719096.6070812,-3.0,-7.0,0.0,-2.0,-4.0,0.0,-1.0,-22.0
1701719096.6070812,-3.0,5.0,-13.0,-10.0,-3.0,-4.0,-2.0,1.0
1701719096.61746,0.0,2.0,-3.0,4.0,-1.0,1.0,1.0,1.0
1701719096.61746,2.0,-3.0,-12.0,-8.0,-4.0,0.0,-1.0,-2.0
1701719096.61746,9.0,16.0,23.0,1.0,0.0,-2.0,-8.0,6.0
1701719096.6270905,1.0,2.0,7.0,2.0,-2.0,4.0,2.0,-3.0
1701719096.637079,0.0,-14.0,-10.0,1.0,2.0,-4.0,-7.0,-4.0
1701719096.637079,4.0,7.0,-13.0,-8.0,0.0,2.0,10.0,10.0
1701719096.637079,-5.0,-4.0,7.0,9.0,-5.0,-9.0,-21.0,-4.0
1701719096.637079,-2.0,5.0,42.0,10.0,2.0,6.0,11.0,1.0
1701719096.657488,-3.0,-4.0,-42.0,-20.0,-1.0,-2.0,-11.0,-1.0
1701719096.657488,-1.0,-6.0,10.0,2.0,-2.0,-1.0,4.0,-2.0
1701719096.657488,-4.0,3.0,28.0,6.0,-1.0,-2.0,9.0,9.0
1701719096.657488,0.0,-10.0,-32.0,-10.0,-6.0,0.0,-10.0,-3.0
1701719096.6770785,-5.0,-5.0,-9.0,-17.0,-3.0,-3.0,-4.0,-1.0
1701719096.6770785,0.0,2.0,28.0,8.0,0.0,-3.0,-2.0,-6.0
1701719096.6770785,-6.0,-5.0,-45.0,-7.0,-1.0,0.0,2.0,2.0
1701719096.6770785,0.0,2.0,13.0,2.0,0.0,-1.0,7.0,3.0
1701719096.6973665,2.0,1.0,-7.0,9.0,3.0,-2.0,-5.0,-2.0
1701719096.6973665,-4.0,-8.0,15.0,-5.0,-2.0,0.0,0.0,-4.0
1701719096.6973665,-2.0,2.0,10.0,0.0,1.0,0.0,1.0,3.0
1701719096.6973665,-1.0,-1.0,-3.0,6.0,-3.0,-1.0,2.0,-1.0
1701719096.7172854,0.0,-3.0,-22.0,-24.0,-4.0,-4.0,-6.0,-2.0
1701719096.7172854,-3.0,-2.0,-14.0,6.0,8.0,0.0,3.0,-5.0
1701719096.7270837,-5.0,-3.0,-5.0,-16.0,-6.0,-2.0,-6.0,0.0
1701719096.7270837,-3.0,2.0,15.0,15.0,1.0,2.0,2.0,0.0
1701719096.7570808,2.0,5.0,24.0,11.0,2.0,4.0,-3.0,1.0
1701719096.7570808,-1.0,-6.0,-24.0,-2.0,-5.0,-6.0,-12.0,-4.0
1701719096.7570808,-9.0,2.0,-12.0,-14.0,0.0,5.0,27.0,4.0
1701719096.7570808,0.0,-5.0,-30.0,-23.0,1.0,-2.0,-4.0,2.0
1701719096.7570808,1.0,5.0,16.0,17.0,2.0,-3.0,-3.0,1.0
1701719096.7570808,-1.0,-1.0,13.0,7.0,-6.0,-2.0,-6.0,-1.0
1701719096.7570808,-1.0,-5.0,16.0,-12.0,-6.0,-4.0,-16.0,-6.0
1701719096.7570808,-1.0,0.0,-15.0,7.0,2.0,6.0,20.0,-1.0
1701719096.7771318,-3.0,-6.0,-11.0,3.0,-1.0,-1.0,0.0,0.0
1701719096.7771318,0.0,0.0,-8.0,-9.0,-3.0,-1.0,2.0,-1.0
1701719096.787081,-1.0,-1.0,6.0,10.0,-2.0,-3.0,-12.0,0.0
1701719096.787081,-2.0,-1.0,4.0,-3.0,-1.0,-3.0,-1.0,-1.0
1701719096.8070776,2.0,2.0,-2.0,2.0,-2.0,-2.0,-2.0,-1.0
1701719096.8070776,-1.0,-5.0,-7.0,-11.0,-2.0,-3.0,-2.0,-1.0
1701719096.8070776,-1.0,-4.0,18.0,27.0,1.0,1.0,-1.0,0.0
1701719096.8070776,1.0,0.0,-31.0,-30.0,3.0,1.0,-1.0,0.0
1701719096.817285,-2.0,-2.0,-21.0,-3.0,-6.0,-5.0,0.0,-1.0
1701719096.817285,-1.0,4.0,19.0,-7.0,11.0,2.0,0.0,-1.0
1701719096.817285,-1.0,-1.0,27.0,21.0,1.0,-3.0,1.0,-2.0
1701719096.817285,1.0,2.0,-28.0,-4.0,-3.0,-1.0,-3.0,-1.0
1701719096.837302,-3.0,-3.0,13.0,10.0,-3.0,-1.0,-3.0,-1.0
1701719096.837302,-3.0,-1.0,-7.0,-2.0,-3.0,-1.0,2.0,-1.0
1701719096.847082,0.0,-1.0,-5.0,-5.0,1.0,1.0,2.0,-1.0
1701719096.847082,-1.0,1.0,19.0,-7.0,-2.0,-3.0,-5.0,-1.0
1701719096.867077,0.0,6.0,-14.0,-16.0,-2.0,1.0,-1.0,0.0
1701719096.867077,6.0,0.0,4.0,-10.0,-5.0,1.0,-1.0,-1.0
1701719096.867077,-18.0,-1.0,-8.0,10.0,3.0,-1.0,2.0,-2.0
1701719096.867077,-3.0,1.0,13.0,14.0,-1.0,-3.0,-7.0,0.0
1701719096.8772905,6.0,0.0,-4.0,3.0,-1.0,-1.0,1.0,0.0
1701719096.8772905,-1.0,-3.0,-13.0,6.0,-2.0,-1.0,-3.0,-2.0
1701719096.8772905,0.0,-1.0,-8.0,-36.0,-3.0,-2.0,-1.0,-2.0
1701719096.8772905,-1.0,-6.0,8.0,5.0,-3.0,-2.0,-6.0,-2.0
1701719096.9170785,-3.0,0.0,20.0,4.0,4.0,1.0,-1.0,0.0
1701719096.9170785,-2.0,-1.0,-10.0,10.0,-2.0,-1.0,1.0,-2.0
1701719096.9170785,3.0,-3.0,6.0,-6.0,-3.0,-3.0,1.0,-2.0
1701719096.9170785,-4.0,-6.0,-17.0,-2.0,-2.0,-2.0,-2.0,-3.0
1701719096.9170785,2.0,4.0,1.0,-33.0,-10.0,-3.0,-2.0,0.0
1701719096.9170785,-2.0,0.0,11.0,7.0,2.0,1.0,0.0,-3.0
1701719096.9170785,1.0,0.0,-12.0,38.0,1.0,-2.0,-3.0,0.0
1701719096.9170785,-1.0,-2.0,-10.0,-43.0,-1.0,-3.0,1.0,-2.0
1701719096.9371457,-2.0,-2.0,12.0,6.0,4.0,-1.0,2.0,0.0
1701719096.9371457,6.0,1.0,19.0,1.0,-6.0,-5.0,-5.0,-1.0
1701719096.9371457,-1.0,-4.0,-35.0,-7.0,0.0,0.0,0.0,-1.0
1701719096.9371457,-3.0,-2.0,21.0,3.0,-1.0,-1.0,0.0,1.0
1701719096.9770803,8.0,-7.0,9.0,18.0,1.0,0.0,-5.0,-4.0
1701719096.9770803,-1.0,1.0,0.0,-9.0,0.0,-2.0,5.0,-1.0
1701719096.9770803,1.0,-1.0,7.0,-6.0,-1.0,-1.0,-2.0,4.0
1701719096.9770803,-1.0,3.0,-25.0,7.0,-3.0,1.0,4.0,-16.0
1701719096.9770803,-2.0,0.0,15.0,-1.0,1.0,0.0,4.0,-1.0
1701719096.9770803,-4.0,-4.0,-6.0,7.0,-2.0,-4.0,-11.0,-6.0
1701719096.987082,1.0,8.0,15.0,-9.0,-1.0,0.0,-3.0,1.0
1701719096.987082,1.0,-6.0,5.0,-2.0,0.0,6.0,8.0,6.0
1701719096.9973545,-3.0,4.0,-10.0,14.0,3.0,-2.0,-7.0,-8.0
1701719096.9973545,-3.0,-1.0,-3.0,-4.0,-2.0,-5.0,-4.0,-7.0
1701719096.9973545,5.0,0.0,4.0,-6.0,-2.0,-3.0,-4.0,-3.0
1701719096.9973545,-6.0,5.0,11.0,14.0,3.0,-1.0,-3.0,3.0
1701719097.0385606,-2.0,-8.0,-26.0,-10.0,0.0,3.0,12.0,20.0
1701719097.0395932,5.0,2.0,3.0,-2.0,0.0,4.0,4.0,2.0
1701719097.0395932,1.0,-4.0,-12.0,-14.0,-3.0,-4.0,-6.0,-3.0
1701719097.0395932,2.0,0.0,12.0,8.0,-1.0,-3.0,2.0,-2.0
1701719097.0395932,-4.0,5.0,9.0,8.0,0.0,0.0,14.0,4.0
1701719097.0395932,-2.0,1.0,-7.0,-11.0,-1.0,0.0,3.0,2.0
1701719097.0470738,0.0,-5.0,7.0,8.0,0.0,-4.0,-2.0,-1.0
1701719097.0470738,-2.0,-4.0,-16.0,-1.0,-3.0,-2.0,-10.0,-4.0
1701719097.06283,-1.0,1.0,4.0,-4.0,0.0,2.0,-2.0,-6.0
1701719097.06283,0.0,0.0,0.0,1.0,0.0,5.0,16.0,5.0
1701719097.0641606,0.0,-3.0,-1.0,9.0,-2.0,0.0,-2.0,-5.0
1701719097.0641606,-1.0,0.0,3.0,-5.0,3.0,-2.0,-9.0,2.0
1701719097.0795994,-2.0,-3.0,-7.0,10.0,-1.0,-5.0,-11.0,-8.0
1701719097.0795994,-1.0,1.0,12.0,-23.0,-7.0,2.0,-2.0,1.0
1701719097.0795994,-3.0,2.0,25.0,7.0,2.0,2.0,0.0,3.0
1701719097.0795994,3.0,-2.0,-38.0,-17.0,-6.0,-4.0,-1.0,1.0
1701719097.099656,-1.0,3.0,13.0,17.0,1.0,1.0,-2.0,-2.0
1701719097.099656,-4.0,-7.0,-11.0,-2.0,-1.0,-3.0,-4.0,-4.0
1701719097.109657,1.0,2.0,4.0,3.0,1.0,2.0,1.0,-3.0
1701719097.109657,-2.0,0.0,0.0,10.0,-2.0,-3.0,-3.0,-2.0
1701719097.1197546,0.0,3.0,1.0,6.0,-1.0,0.0,-1.0,-8.0
1701719097.1197546,-2.0,3.0,-5.0,5.0,-1.0,-5.0,-13.0,3.0
1701719097.1296058,-1.0,-4.0,8.0,-9.0,-2.0,2.0,6.0,-1.0
1701719097.1296058,1.0,-3.0,-18.0,-15.0,-2.0,3.0,14.0,2.0
1701719097.1396017,-4.0,-3.0,0.0,3.0,-1.0,-4.0,-9.0,-3.0
1701719097.1396017,-3.0,-4.0,-12.0,-8.0,1.0,-2.0,-4.0,1.0
1701719097.1396017,-2.0,-4.0,-12.0,6.0,-3.0,-3.0,-2.0,-3.0
1701719097.1396017,2.0,5.0,20.0,-1.0,-1.0,2.0,3.0,3.0
1701719097.149625,0.0,-3.0,-18.0,-3.0,-1.0,-1.0,-2.0,0.0
1701719097.1596365,-2.0,-5.0,-10.0,-24.0,0.0,0.0,-2.0,-7.0
1701719097.1700616,3.0,1.0,-8.0,6.0,1.0,-1.0,-3.0,-2.0
1701719097.1700616,-11.0,-2.0,15.0,9.0,-3.0,0.0,-12.0,-5.0
1701719097.1799448,0.0,-3.0,-8.0,-18.0,-5.0,0.0,5.0,-2.0
1701719097.1799448,-2.0,1.0,-11.0,10.0,-1.0,0.0,0.0,0.0
1701719097.1799448,1.0,1.0,-15.0,-12.0,3.0,-1.0,1.0,1.0
1701719097.1799448,1.0,-1.0,15.0,-1.0,1.0,-3.0,-3.0,-1.0
1701719097.199598,-1.0,-4.0,-5.0,1.0,-2.0,0.0,-4.0,1.0
1701719097.199598,-3.0,2.0,10.0,11.0,-3.0,-3.0,-1.0,-2.0
1701719097.199598,-2.0,-3.0,0.0,-7.0,-10.0,0.0,-1.0,-1.0
1701719097.199598,1.0,0.0,-4.0,3.0,10.0,-2.0,0.0,0.0
1701719097.2197318,-3.0,-3.0,-3.0,-12.0,8.0,2.0,1.0,-3.0
1701719097.2197318,3.0,3.0,6.0,3.0,-3.0,-1.0,4.0,0.0
1701719097.2197318,-2.0,-10.0,-9.0,-10.0,-1.0,-3.0,-2.0,-3.0
1701719097.2197318,0.0,2.0,16.0,24.0,-5.0,-2.0,-2.0,-1.0
1701719097.2398586,-2.0,-3.0,-14.0,-11.0,-4.0,-4.0,-3.0,0.0
1701719097.2398586,-1.0,0.0,-8.0,-3.0,15.0,1.0,0.0,-2.0
1701719097.2597277,-1.0,0.0,17.0,2.0,-3.0,-2.0,0.0,0.0
1701719097.2597277,0.0,-1.0,7.0,8.0,-1.0,2.0,-1.0,0.0
1701719097.269725,-4.0,-3.0,-4.0,-15.0,-6.0,-5.0,-3.0,-2.0
1701719097.269725,-2.0,-2.0,-6.0,41.0,-8.0,-3.0,-1.0,-1.0
1701719097.269725,-2.0,3.0,-21.0,-69.0,-2.0,0.0,-2.0,1.0
1701719097.269725,2.0,-1.0,-3.0,-1.0,2.0,-2.0,2.0,0.0
1701719097.269725,-1.0,0.0,13.0,1.0,7.0,0.0,-2.0,-3.0
1701719097.269725,0.0,-3.0,-3.0,2.0,-3.0,0.0,0.0,1.0
1701719097.2897272,-1.0,0.0,4.0,15.0,-6.0,-2.0,0.0,-2.0
1701719097.2897272,-2.0,-2.0,-13.0,-9.0,-5.0,-4.0,-1.0,-1.0
1701719097.2997248,-2.0,0.0,7.0,3.0,-9.0,-4.0,-2.0,0.0
1701719097.2997248,-4.0,-3.0,-4.0,3.0,2.0,2.0,-1.0,-1.0
1701719097.2997248,-1.0,1.0,3.0,19.0,9.0,3.0,0.0,-1.0
1701719097.2997248,0.0,0.0,-7.0,-9.0,-2.0,-1.0,-2.0,-1.0
1701719097.3200269,-1.0,-1.0,-7.0,-6.0,-2.0,-3.0,-1.0,-2.0
1701719097.3200269,-1.0,-2.0,19.0,-1.0,-6.0,-2.0,-1.0,-1.0
1701719097.3200269,-3.0,0.0,-18.0,-10.0,-5.0,-1.0,0.0,-2.0
1701719097.3200269,1.0,-2.0,11.0,-3.0,1.0,-1.0,-2.0,-2.0
1701719097.3397312,-1.0,-2.0,-13.0,0.0,-2.0,-1.0,-5.0,-2.0
1701719097.3397312,0.0,-3.0,1.0,-2.0,0.0,1.0,4.0,1.0
1701719097.3497345,7.0,1.0,2.0,0.0,1.0,-4.0,3.0,-6.0
1701719097.3497345,-7.0,0.0,-14.0,3.0,-1.0,-1.0,-3.0,7.0
1701719097.369725,8.0,-1.0,36.0,1.0,0.0,0.0,2.0,-1.0
1701719097.369725,-1.0,-3.0,-17.0,-11.0,0.0,0.0,5.0,4.0
1701719097.369725,-3.0,3.0,2.0,13.0,0.0,-1.0,-5.0,0.0
1701719097.369725,5.0,3.0,0.0,-5.0,-4.0,-2.0,-7.0,-12.0
1701719097.379976,-2.0,3.0,22.0,6.0,-1.0,-1.0,9.0,-2.0
1701719097.379976,-2.0,-4.0,-41.0,-17.0,-3.0,-3.0,-9.0,-7.0
1701719097.379976,1.0,0.0,3.0,5.0,-2.0,1.0,2.0,6.0
1701719097.379976,-14.0,1.0,14.0,10.0,-4.0,-6.0,-7.0,0.0
1701719097.4097333,-3.0,-1.0,-13.0,-4.0,0.0,-1.0,-11.0,0.0
1701719097.4097333,1.0,-6.0,3.0,-5.0,-2.0,2.0,13.0,-4.0
1701719097.4097333,-3.0,0.0,21.0,15.0,0.0,0.0,-3.0,-2.0
1701719097.4097333,-2.0,-9.0,-66.0,-29.0,-5.0,-3.0,1.0,-2.0
1701719097.4397254,9.0,1.0,-1.0,4.0,-2.0,0.0,-5.0,2.0
1701719097.4397254,-6.0,4.0,3.0,-5.0,-2.0,-3.0,-5.0,0.0
1701719097.4397254,-2.0,0.0,17.0,8.0,-1.0,0.0,-2.0,-2.0
1701719097.4397254,2.0,0.0,19.0,2.0,-2.0,-1.0,0.0,0.0
1701719097.4397254,0.0,1.0,-7.0,-3.0,-2.0,-1.0,-2.0,-3.0
1701719097.4397254,-1.0,1.0,5.0,-2.0,-1.0,0.0,-5.0,0.0
1701719097.4397254,-2.0,-2.0,-32.0,-13.0,0.0,-1.0,2.0,2.0
1701719097.4397254,2.0,0.0,20.0,11.0,1.0,-1.0,0.0,-2.0
1701719097.4601657,-4.0,-3.0,2.0,13.0,4.0,0.0,2.0,-2.0
1701719097.4601657,2.0,-1.0,7.0,38.0,3.0,-2.0,-1.0,-5.0
1701719097.4697254,0.0,-3.0,8.0,-50.0,-6.0,-3.0,-4.0,5.0
1701719097.4697254,-1.0,-5.0,-11.0,-19.0,-2.0,4.0,5.0,-1.0
1701719097.4797525,-2.0,3.0,23.0,34.0,4.0,0.0,0.0,4.0
1701719097.4797525,2.0,1.0,0.0,-12.0,-5.0,-4.0,-4.0,1.0
1701719097.4797525,-1.0,1.0,-6.0,-15.0,-1.0,0.0,-3.0,-4.0
1701719097.4797525,-1.0,-12.0,4.0,-18.0,-5.0,-2.0,-1.0,-2.0
1701719097.5000627,-5.0,-4.0,-14.0,-37.0,-4.0,1.0,0.0,0.0
1701719097.5000627,4.0,1.0,21.0,30.0,2.0,-2.0,-7.0,-1.0
1701719097.5000627,-12.0,0.0,-9.0,-15.0,0.0,2.0,4.0,-6.0
1701719097.5000627,12.0,7.0,15.0,24.0,4.0,2.0,5.0,7.0
1701719097.529726,-4.0,0.0,-1.0,-7.0,1.0,1.0,-8.0,-4.0
1701719097.529726,-17.0,-4.0,11.0,-7.0,-1.0,-1.0,15.0,5.0
1701719097.529726,9.0,-1.0,-9.0,23.0,1.0,-3.0,-12.0,-9.0
1701719097.529726,3.0,3.0,-1.0,11.0,1.0,-2.0,-3.0,-6.0
1701719097.5397613,2.0,-9.0,-30.0,-13.0,-2.0,0.0,6.0,8.0
1701719097.5397613,-4.0,-3.0,11.0,-9.0,-2.0,-1.0,-13.0,-2.0
1701719097.5497322,-3.0,-4.0,-19.0,-2.0,-2.0,-2.0,0.0,-5.0
1701719097.5497322,-4.0,0.0,6.0,3.0,2.0,-4.0,-8.0,-4.0
1701719097.5600245,0.0,-6.0,-3.0,3.0,-4.0,-2.0,-1.0,-1.0
1701719097.5600245,-3.0,2.0,-24.0,-16.0,-1.0,2.0,1.0,-1.0
1701719097.5839884,4.0,-1.0,8.0,12.0,-2.0,-6.0,-3.0,1.0
1701719097.5839884,-3.0,-2.0,-7.0,-7.0,-2.0,3.0,-5.0,-3.0
1701719097.5981936,-2.0,1.0,15.0,2.0,-2.0,-2.0,3.0,4.0
1701719097.5981936,5.0,-2.0,-14.0,-11.0,-2.0,-1.0,0.0,-3.0
1701719097.5981936,-3.0,-1.0,11.0,15.0,1.0,1.0,-2.0,-1.0
1701719097.5981936,1.0,1.0,1.0,1.0,-5.0,-2.0,2.0,-1.0
1701719097.6022038,-2.0,-3.0,-24.0,-14.0,-3.0,-2.0,0.0,-5.0
1701719097.6022038,0.0,7.0,25.0,1.0,-2.0,-3.0,-4.0,-2.0
1701719097.6022038,-3.0,-4.0,-21.0,11.0,0.0,-2.0,-3.0,0.0
1701719097.6022038,0.0,3.0,7.0,-9.0,0.0,0.0,4.0,1.0
1701719097.6225574,0.0,4.0,7.0,7.0,0.0,-1.0,-2.0,-4.0
1701719097.6225574,-3.0,-7.0,-14.0,-5.0,-3.0,-2.0,-5.0,-1.0
1701719097.6225574,-4.0,1.0,6.0,1.0,-1.0,1.0,1.0,0.0
1701719097.6225574,-2.0,0.0,-9.0,-3.0,-3.0,-1.0,3.0,1.0
1701719097.6425676,-2.0,-2.0,-13.0,-7.0,3.0,0.0,-3.0,-2.0
1701719097.6425676,3.0,-3.0,2.0,-3.0,1.0,-1.0,-4.0,1.0
1701719097.6425676,-1.0,1.0,10.0,6.0,-7.0,0.0,8.0,1.0
1701719097.6425676,-1.0,-1.0,10.0,6.0,-2.0,-3.0,-5.0,0.0
1701719097.6625767,-1.0,0.0,-9.0,9.0,-1.0,-1.0,0.0,-2.0
1701719097.6625767,-2.0,-2.0,5.0,-21.0,-4.0,-2.0,-1.0,-3.0
1701719097.6625767,0.0,-1.0,9.0,39.0,18.0,2.0,1.0,2.0
1701719097.6625767,0.0,-1.0,-17.0,-9.0,3.0,-2.0,-3.0,-1.0
1701719097.712567,-2.0,0.0,12.0,-7.0,-21.0,-2.0,-1.0,-4.0
1701719097.712567,2.0,-1.0,-26.0,5.0,23.0,4.0,3.0,0.0
1701719097.712567,-1.0,-1.0,17.0,-15.0,-10.0,-4.0,-4.0,-3.0
1701719097.712567,-1.0,-3.0,-4.0,27.0,4.0,-2.0,2.0,-2.0
1701719097.712567,-1.0,1.0,15.0,12.0,-3.0,-3.0,-3.0,-3.0
1701719097.712567,-2.0,0.0,-7.0,-22.0,-11.0,1.0,1.0,0.0
1701719097.712567,0.0,1.0,-24.0,-8.0,-2.0,0.0,0.0,1.0
1701719097.712567,-4.0,-4.0,-1.0,-4.0,3.0,1.0,0.0,-1.0
1701719097.7225728,-1.0,-1.0,-6.0,-12.0,-3.0,-4.0,-2.0,-2.0
1701719097.7225728,-8.0,1.0,4.0,20.0,-2.0,-4.0,-4.0,-2.0
1701719097.7225728,-1.0,-5.0,1.0,-10.0,2.0,-2.0,-9.0,-4.0
1701719097.7225728,0.0,2.0,-4.0,-9.0,-9.0,0.0,12.0,3.0
1701719097.7525697,-3.0,1.0,-3.0,-6.0,3.0,-2.0,-3.0,1.0
1701719097.7525697,-1.0,2.0,7.0,-9.0,-4.0,-4.0,-11.0,-1.0
1701719097.7525697,11.0,-3.0,-4.0,-9.0,-4.0,0.0,4.0,-7.0
1701719097.7525697,4.0,6.0,5.0,7.0,1.0,0.0,-5.0,7.0
1701719097.7626026,1.0,-10.0,1.0,21.0,4.0,0.0,-1.0,-1.0
1701719097.7626026,-1.0,6.0,1.0,-14.0,-3.0,-2.0,-2.0,-4.0
1701719097.7626026,1.0,-11.0,12.0,3.0,-3.0,-3.0,0.0,-5.0
1701719097.7626026,-2.0,12.0,10.0,2.0,-1.0,0.0,-2.0,3.0
1701719097.7729535,3.0,-2.0,-64.0,-20.0,5.0,1.0,5.0,1.0
1701719097.7729535,-13.0,-13.0,9.0,2.0,-6.0,-3.0,-8.0,-3.0
1701719097.7825682,-7.0,11.0,9.0,4.0,-1.0,-2.0,-2.0,-1.0
1701719097.7825682,6.0,-19.0,4.0,-8.0,-1.0,-1.0,-1.0,-5.0
1701719097.8025696,-5.0,-2.0,4.0,-2.0,0.0,0.0,-4.0,-1.0
1701719097.8025696,3.0,6.0,3.0,2.0,-2.0,1.0,1.0,-4.0
1701719097.8025696,-4.0,-4.0,-27.0,-8.0,0.0,0.0,0.0,5.0
1701719097.8025696,-4.0,4.0,12.0,6.0,3.0,1.0,-1.0,-3.0
1701719097.82303,0.0,8.0,15.0,10.0,-2.0,-1.0,-2.0,-2.0
1701719097.82303,6.0,-5.0,-4.0,-7.0,-4.0,-2.0,1.0,-1.0
1701719097.82303,-3.0,5.0,-12.0,-15.0,-8.0,-2.0,2.0,1.0
1701719097.82303,-1.0,-4.0,-9.0,1.0,-4.0,-3.0,-5.0,-3.0
1701719097.8329349,-2.0,-4.0,14.0,7.0,5.0,1.0,1.0,-3.0
1701719097.8425756,1.0,-2.0,2.0,13.0,-1.0,-1.0,2.0,-1.0
1701719097.8425756,-2.0,3.0,8.0,-20.0,-2.0,0.0,-4.0,-1.0
1701719097.8425756,-6.0,-11.0,-13.0,-3.0,-8.0,-1.0,-1.0,-3.0
1701719097.8625696,-2.0,-1.0,-4.0,10.0,3.0,0.0,0.0,0.0
1701719097.8625696,1.0,4.0,2.0,-2.0,1.0,0.0,2.0,1.0
1701719097.8625696,5.0,-7.0,0.0,12.0,-3.0,-1.0,-1.0,0.0
1701719097.8625696,-9.0,-1.0,-35.0,9.0,6.0,0.0,-2.0,-2.0
1701719097.8828945,-4.0,1.0,28.0,-47.0,-2.0,-2.0,0.0,-2.0
1701719097.8828945,1.0,3.0,13.0,0.0,-9.0,-2.0,-1.0,-1.0
1701719097.8828945,2.0,-3.0,-6.0,-14.0,4.0,0.0,-2.0,0.0
1701719097.8828945,0.0,2.0,-4.0,-10.0,-2.0,-2.0,0.0,-1.0
1701719097.8928676,-4.0,1.0,-8.0,17.0,-2.0,-3.0,-3.0,-3.0
1701719097.8928676,-2.0,-6.0,-4.0,6.0,1.0,-4.0,1.0,-1.0
1701719097.9125679,-8.0,-2.0,5.0,12.0,1.0,-1.0,-2.0,-9.0
1701719097.9125679,7.0,-3.0,-13.0,-7.0,-3.0,-4.0,-2.0,9.0
1701719097.9227798,-4.0,-1.0,-2.0,-1.0,2.0,-1.0,-5.0,-3.0
1701719097.9227798,1.0,-4.0,3.0,4.0,3.0,2.0,4.0,0.0
1701719097.9227798,0.0,2.0,10.0,8.0,-2.0,-3.0,-1.0,1.0
1701719097.9227798,-4.0,-3.0,8.0,-4.0,0.0,1.0,-2.0,-3.0
1701719097.9426186,3.0,-3.0,1.0,6.0,-3.0,-1.0,-1.0,0.0
1701719097.9426186,1.0,3.0,-5.0,-9.0,-2.0,-1.0,-1.0,-1.0
1701719097.9426186,-5.0,-2.0,-11.0,3.0,1.0,1.0,0.0,2.0
1701719097.9426186,1.0,-3.0,-7.0,-8.0,-3.0,0.0,-1.0,-4.0
1701719097.9528244,-7.0,7.0,25.0,2.0,-1.0,-1.0,-2.0,0.0
1701719097.9528244,-2.0,-6.0,-12.0,7.0,1.0,0.0,0.0,-2.0
1701719097.9825683,-2.0,-1.0,-1.0,3.0,0.0,-2.0,-1.0,-2.0
1701719097.9825683,2.0,2.0,-4.0,-9.0,0.0,-1.0,0.0,-2.0
1701719097.9825683,3.0,-1.0,8.0,6.0,-3.0,-2.0,0.0,-2.0
1701719097.9825683,-2.0,-2.0,-13.0,-12.0,-4.0,-1.0,-1.0,0.0
1701719097.9825683,-1.0,0.0,6.0,10.0,-2.0,-1.0,-2.0,0.0
1701719097.9825683,-3.0,-2.0,5.0,4.0,0.0,0.0,-2.0,-1.0
1701719098.0029953,-2.0,-1.0,7.0,5.0,-2.0,1.0,-1.0,-1.0
1701719098.0029953,0.0,-2.0,-14.0,-10.0,4.0,1.0,0.0,-1.0
1701719098.0029953,-5.0,-14.0,-19.0,-11.0,-1.0,-2.0,-4.0,-1.0
1701719098.0029953,1.0,9.0,8.0,7.0,3.0,1.0,0.0,-3.0
1701719098.0129163,0.0,-4.0,-12.0,-4.0,-3.0,-3.0,-2.0,0.0
1701719098.0129163,2.0,7.0,18.0,1.0,-3.0,-1.0,-1.0,0.0
1701719098.0325668,-2.0,-1.0,-2.0,-1.0,-1.0,0.0,1.0,1.0
1701719098.0325668,-2.0,-6.0,-1.0,-1.0,-1.0,-1.0,-2.0,-2.0
1701719098.042763,-1.0,6.0,2.0,-4.0,-1.0,2.0,-2.0,-1.0
1701719098.042763,1.0,7.0,-3.0,2.0,0.0,-1.0,-1.0,-1.0
1701719098.042763,-1.0,-14.0,-19.0,-4.0,-1.0,-2.0,-1.0,-2.0
1701719098.042763,-2.0,10.0,5.0,-11.0,-10.0,-4.0,-1.0,-1.0
1701719098.062903,0.0,-8.0,-10.0,-10.0,5.0,1.0,2.0,0.0
1701719098.062903,-8.0,3.0,25.0,29.0,7.0,1.0,-4.0,-3.0
1701719098.062903,3.0,4.0,-15.0,-4.0,-2.0,1.0,0.0,0.0
1701719098.062903,6.0,-7.0,5.0,2.0,-3.0,-2.0,-1.0,1.0
1701719098.0825677,-4.0,7.0,-13.0,-13.0,-5.0,-3.0,1.0,-1.0
1701719098.0825677,-2.0,-8.0,-4.0,-8.0,-1.0,-1.0,-1.0,-1.0
1701719098.0825677,-1.0,8.0,21.0,5.0,0.0,1.0,-1.0,0.0
1701719098.0825677,-2.0,-5.0,13.0,-5.0,-4.0,-3.0,-4.0,-3.0
1701719098.1057463,6.0,8.0,10.0,19.0,6.0,2.0,-1.0,1.0
1701719098.1057463,0.0,-15.0,-50.0,-26.0,-2.0,-1.0,-1.0,-3.0
1701719098.1067443,-2.0,25.0,46.0,10.0,-2.0,-2.0,0.0,-1.0
1701719098.1067443,-8.0,-17.0,-32.0,-19.0,-2.0,-5.0,-4.0,-5.0
1701719098.1352015,4.0,13.0,36.0,21.0,7.0,1.0,2.0,2.0
1701719098.1352015,-3.0,-22.0,-23.0,3.0,-2.0,-2.0,-2.0,0.0
1701719098.1352015,-2.0,-4.0,-6.0,-10.0,-1.0,-2.0,-2.0,-2.0
1701719098.1352015,-3.0,-3.0,16.0,12.0,3.0,2.0,1.0,0.0
1701719098.1352015,-7.0,-3.0,-28.0,-25.0,-10.0,-3.0,-3.0,-3.0
1701719098.1352015,3.0,7.0,-3.0,-8.0,1.0,2.0,-1.0,-1.0
1701719098.1551974,-4.0,-24.0,-11.0,12.0,2.0,-1.0,-2.0,-1.0
1701719098.1551974,0.0,-3.0,16.0,4.0,-2.0,-1.0,-1.0,2.0
1701719098.165243,0.0,9.0,2.0,-10.0,-5.0,-3.0,-2.0,-1.0
1701719098.165243,1.0,-14.0,-9.0,2.0,-1.0,0.0,1.0,0.0
1701719098.165243,9.0,19.0,-18.0,-4.0,-1.0,2.0,1.0,2.0
1701719098.165243,-7.0,-14.0,19.0,-3.0,2.0,0.0,-1.0,-1.0
1701719098.1853735,1.0,-2.0,-8.0,-4.0,0.0,3.0,2.0,1.0
1701719098.1853735,-2.0,1.0,8.0,4.0,-2.0,-2.0,-1.0,-2.0
1701719098.1951983,-2.0,-1.0,23.0,13.0,0.0,-3.0,-1.0,-1.0
1701719098.1951983,3.0,6.0,0.0,6.0,3.0,2.0,1.0,1.0
1701719098.1951983,-1.0,-13.0,-15.0,-10.0,-4.0,-3.0,-2.0,-2.0
1701719098.1951983,-3.0,6.0,8.0,-2.0,-1.0,-4.0,-4.0,-3.0
1701719098.205325,-2.0,-1.0,3.0,-7.0,1.0,0.0,-1.0,0.0
1701719098.205325,-1.0,3.0,-26.0,-8.0,-3.0,-1.0,0.0,-2.0
1701719098.2252598,-1.0,-15.0,-1.0,5.0,2.0,-1.0,-1.0,-2.0
1701719098.2252598,0.0,19.0,42.0,8.0,0.0,-2.0,-1.0,-1.0
1701719098.2252598,0.0,6.0,-20.0,-9.0,-6.0,0.0,-2.0,1.0
1701719098.2252598,-1.0,10.0,4.0,-1.0,1.0,-1.0,-1.0,0.0
1701719098.245261,2.0,-4.0,-11.0,-3.0,0.0,2.0,0.0,-2.0
1701719098.245261,2.0,-1.0,16.0,9.0,1.0,1.0,2.0,0.0
1701719098.2552612,-1.0,-3.0,0.0,9.0,-4.0,-1.0,-1.0,0.0
1701719098.2552612,-1.0,11.0,-44.0,-13.0,-4.0,-2.0,0.0,-2.0
1701719098.2552612,-3.0,-19.0,-10.0,3.0,4.0,1.0,0.0,1.0
1701719098.2552612,0.0,16.0,2.0,-3.0,-1.0,-1.0,-1.0,0.0
1701719098.265638,-3.0,-16.0,-21.0,-10.0,0.0,-1.0,0.0,-1.0
1701719098.265638,-1.0,7.0,18.0,-1.0,-5.0,-2.0,-2.0,-2.0
1701719098.285271,-2.0,-7.0,-20.0,9.0,-2.0,-6.0,-2.0,-1.0
1701719098.285271,2.0,6.0,15.0,-5.0,-2.0,0.0,0.0,0.0
1701719098.285271,0.0,-2.0,4.0,5.0,2.0,-1.0,-3.0,-1.0
1701719098.285271,0.0,-10.0,-6.0,0.0,-3.0,-4.0,-2.0,-1.0
1701719098.305262,-4.0,1.0,-3.0,-16.0,-6.0,-2.0,-2.0,-1.0
1701719098.305262,-2.0,-4.0,8.0,1.0,-2.0,0.0,-2.0,-1.0
1701719098.3152592,-2.0,-6.0,-37.0,-6.0,-2.0,0.0,0.0,-2.0
1701719098.3152592,-2.0,-1.0,8.0,5.0,1.0,0.0,0.0,-3.0
1701719098.3152592,0.0,7.0,18.0,12.0,-5.0,-3.0,-2.0,-2.0
1701719098.3152592,-4.0,-43.0,-91.0,-34.0,-8.0,-3.0,-1.0,-1.0
1701719098.3256357,-3.0,7.0,41.0,15.0,2.0,1.0,-1.0,0.0
1701719098.3256357,0.0,1.0,3.0,-2.0,1.0,-2.0,-1.0,-1.0
1701719098.3453093,-1.0,5.0,-2.0,-3.0,-4.0,1.0,-2.0,-1.0
1701719098.3453093,-1.0,-2.0,-2.0,-2.0,-5.0,-3.0,-3.0,-2.0
1701719098.3453093,-1.0,-1.0,-6.0,-8.0,9.0,2.0,-1.0,-2.0
1701719098.3453093,-2.0,-3.0,20.0,12.0,-3.0,1.0,-1.0,-1.0
1701719098.365308,-2.0,-13.0,-33.0,-2.0,4.0,-2.0,0.0,-1.0
1701719098.365308,-2.0,-8.0,6.0,5.0,-4.0,-1.0,0.0,-1.0
1701719098.365308,-1.0,-11.0,-8.0,-18.0,-5.0,-2.0,-1.0,-1.0
1701719098.365308,0.0,12.0,25.0,16.0,5.0,2.0,0.0,0.0
1701719098.3855653,-1.0,-12.0,-3.0,-4.0,-5.0,-6.0,-1.0,0.0
1701719098.3855653,2.0,16.0,24.0,9.0,10.0,4.0,0.0,-1.0
1701719098.3855653,-1.0,-2.0,2.0,-12.0,-2.0,-3.0,0.0,1.0
1701719098.3855653,1.0,-3.0,-6.0,4.0,-1.0,0.0,0.0,1.0
1701719098.4055505,0.0,6.0,41.0,3.0,-1.0,-2.0,-2.0,1.0
1701719098.4055505,-1.0,12.0,-34.0,3.0,-2.0,-5.0,-5.0,-2.0
1701719098.4055505,1.0,4.0,4.0,-6.0,-3.0,0.0,1.0,0.0
1701719098.4055505,-6.0,-1.0,11.0,-1.0,-2.0,-2.0,-6.0,-3.0
1701719098.4252594,-2.0,5.0,-6.0,-17.0,-2.0,0.0,1.0,2.0
1701719098.4252594,3.0,-1.0,15.0,4.0,3.0,0.0,1.0,0.0
1701719098.4252594,3.0,5.0,6.0,0.0,-3.0,-4.0,-3.0,-3.0
1701719098.4252594,-4.0,-11.0,-26.0,-4.0,-1.0,-1.0,-3.0,-4.0
1701719098.44565,-9.0,-21.0,-12.0,7.0,-4.0,-4.0,-7.0,-10.0
1701719098.44565,7.0,5.0,-12.0,-18.0,-3.0,-2.0,-1.0,12.0
1701719098.44565,-3.0,-2.0,-8.0,8.0,-2.0,-4.0,2.0,3.0
1701719098.44565,2.0,1.0,1.0,-10.0,-2.0,-5.0,-3.0,5.0
1701719098.4556234,1.0,4.0,8.0,7.0,3.0,1.0,-4.0,-6.0
1701719098.4652631,-4.0,-2.0,-4.0,-1.0,-1.0,-1.0,1.0,-7.0
1701719098.4652631,-4.0,-5.0,-2.0,3.0,-1.0,-1.0,0.0,1.0
1701719098.4652631,-1.0,-4.0,-11.0,-11.0,2.0,1.0,1.0,-1.0
1701719098.4952648,0.0,4.0,-6.0,4.0,-2.0,0.0,-2.0,-2.0
1701719098.4952648,-2.0,-2.0,3.0,7.0,-1.0,0.0,-3.0,2.0
1701719098.4952648,1.0,3.0,14.0,-4.0,0.0,-1.0,-1.0,-3.0
1701719098.4952648,-2.0,-2.0,-19.0,-8.0,-7.0,-2.0,2.0,-2.0
1701719098.5055707,-1.0,2.0,-5.0,2.0,-1.0,0.0,0.0,3.0
1701719098.5055707,-3.0,-2.0,10.0,5.0,-2.0,0.0,0.0,-3.0
1701719098.5055707,-1.0,0.0,-2.0,8.0,2.0,0.0,-4.0,0.0
1701719098.5055707,-1.0,-4.0,-13.0,3.0,-4.0,-2.0,0.0,-3.0
1701719098.5252647,0.0,1.0,1.0,-36.0,-7.0,0.0,0.0,3.0
1701719098.5252647,-2.0,-2.0,15.0,-4.0,0.0,-1.0,1.0,-1.0
1701719098.5252647,-4.0,0.0,8.0,41.0,6.0,1.0,-1.0,-3.0
1701719098.5252647,1.0,6.0,12.0,-13.0,-3.0,-3.0,-1.0,2.0
1701719098.5552576,1.0,1.0,-8.0,3.0,-5.0,-4.0,-1.0,-1.0
1701719098.5552576,-2.0,-5.0,-9.0,-44.0,-10.0,-1.0,-4.0,-4.0
1701719098.5552576,0.0,-2.0,-20.0,-20.0,-5.0,-1.0,0.0,-1.0
1701719098.5552576,-1.0,-2.0,9.0,28.0,9.0,3.0,1.0,-3.0
1701719098.5656047,0.0,3.0,4.0,-15.0,-2.0,-1.0,-1.0,0.0
1701719098.5656047,-1.0,1.0,16.0,40.0,5.0,-3.0,0.0,-1.0
1701719098.5656047,4.0,-3.0,-49.0,-32.0,-2.0,-2.0,0.0,0.0
1701719098.5656047,-3.0,1.0,-17.0,4.0,2.0,-2.0,-2.0,0.0
1701719098.5852594,-1.0,1.0,13.0,2.0,5.0,-1.0,0.0,-1.0
1701719098.5852594,-8.0,1.0,4.0,3.0,-4.0,-3.0,-5.0,-4.0
1701719098.5852594,-7.0,1.0,14.0,2.0,-4.0,0.0,-6.0,0.0
1701719098.5852594,20.0,-1.0,-13.0,-5.0,1.0,3.0,0.0,-3.0
1701719098.6054153,-1.0,-3.0,-13.0,3.0,-3.0,-4.0,6.0,1.0
1701719098.6054153,-11.0,-8.0,2.0,-1.0,2.0,0.0,-7.0,-5.0
1701719098.6152627,1.0,-1.0,31.0,9.0,1.0,2.0,11.0,-2.0
1701719098.6152627,-7.0,-4.0,-30.0,-17.0,0.0,-3.0,-10.0,-2.0
1701719098.6301298,-3.0,-5.0,33.0,21.0,0.0,2.0,14.0,1.0
1701719098.6311946,4.0,-7.0,-28.0,-20.0,-2.0,-3.0,-3.0,-1.0
1701719098.632217,-7.0,-1.0,2.0,-11.0,-4.0,0.0,-3.0,-1.0
1701719098.632217,-6.0,-5.0,-3.0,0.0,-2.0,1.0,0.0,0.0
1701719098.66124,-1.0,-15.0,-25.0,14.0,2.0,-2.0,-7.0,0.0
1701719098.66124,2.0,18.0,20.0,6.0,3.0,1.0,1.0,2.0
1701719098.66124,-2.0,-19.0,-34.0,-7.0,-4.0,-3.0,-2.0,-3.0
1701719098.66124,-2.0,1.0,-4.0,-7.0,-3.0,-2.0,3.0,0.0
1701719098.66124,-3.0,3.0,28.0,9.0,-1.0,1.0,-4.0,-3.0
1701719098.66124,0.0,1.0,-2.0,0.0,1.0,2.0,0.0,-2.0
1701719098.66124,4.0,6.0,22.0,0.0,-5.0,0.0,-2.0,0.0
1701719098.66124,-2.0,-4.0,4.0,-1.0,0.0,-1.0,0.0,-1.0
1701719098.6815703,0.0,6.0,10.0,0.0,2.0,-1.0,-2.0,2.0
1701719098.6815703,3.0,0.0,9.0,7.0,-2.0,-1.0,1.0,-1.0
1701719098.69142,-1.0,-6.0,-30.0,4.0,4.0,0.0,-2.0,0.0
1701719098.69142,-3.0,7.0,40.0,6.0,-8.0,-4.0,-2.0,0.0
1701719098.7014482,1.0,7.0,6.0,-18.0,0.0,0.0,-3.0,-2.0
1701719098.7014482,-1.0,-9.0,-31.0,-8.0,5.0,0.0,-1.0,-2.0
1701719098.7112453,0.0,4.0,16.0,-3.0,-2.0,0.0,-1.0,-1.0
1701719098.7112453,-3.0,0.0,-22.0,9.0,2.0,-1.0,1.0,0.0
1701719098.731237,-3.0,-5.0,-24.0,-4.0,-3.0,-1.0,-4.0,-2.0
1701719098.731237,1.0,2.0,19.0,3.0,2.0,-2.0,1.0,-1.0
1701719098.731237,-1.0,-1.0,3.0,-15.0,-4.0,-3.0,-2.0,-3.0
1701719098.731237,-1.0,2.0,8.0,-1.0,-3.0,-2.0,0.0,-1.0
1701719098.7416184,0.0,-2.0,-2.0,-4.0,-7.0,0.0,-3.0,-1.0
1701719098.7416184,-1.0,-3.0,-6.0,3.0,-1.0,-1.0,-1.0,0.0
1701719098.7512407,-2.0,-2.0,0.0,12.0,2.0,0.0,-2.0,0.0
1701719098.7512407,0.0,-1.0,12.0,0.0,1.0,1.0,0.0,0.0
1701719098.7612405,0.0,0.0,-5.0,-4.0,-3.0,-4.0,0.0,-3.0
1701719098.7612405,3.0,1.0,4.0,14.0,0.0,-1.0,1.0,0.0
1701719098.7712657,-9.0,11.0,21.0,10.0,3.0,-1.0,0.0,0.0
1701719098.7712657,-2.0,-4.0,-8.0,-27.0,-5.0,-2.0,-2.0,-1.0
1701719098.781662,0.0,-2.0,-10.0,3.0,2.0,0.0,-1.0,0.0
1701719098.781662,-1.0,0.0,-4.0,-9.0,-5.0,-2.0,-1.0,1.0
1701719098.781662,2.0,-3.0,8.0,8.0,0.0,-2.0,-2.0,-1.0
1701719098.781662,-1.0,-4.0,-8.0,-4.0,2.0,2.0,2.0,0.0
1701719098.8112383,-1.0,8.0,23.0,10.0,4.0,0.0,-1.0,-1.0
1701719098.8112383,-1.0,-9.0,-32.0,-15.0,-2.0,1.0,-1.0,-1.0
1701719098.8112383,0.0,0.0,1.0,-20.0,-4.0,-3.0,-3.0,-2.0
1701719098.8112383,-1.0,-1.0,-12.0,11.0,2.0,-1.0,-1.0,0.0
1701719098.8215096,0.0,2.0,38.0,24.0,4.0,0.0,-2.0,-2.0
1701719098.8215096,-3.0,2.0,9.0,-2.0,-3.0,-2.0,1.0,-1.0
1701719098.831531,1.0,-1.0,-13.0,-4.0,-2.0,-1.0,0.0,-1.0
1701719098.831531,-1.0,2.0,-9.0,-16.0,-4.0,-1.0,0.0,-1.0
1701719098.8416023,-4.0,-7.0,-20.0,-4.0,-4.0,0.0,1.0,0.0
1701719098.8416023,-1.0,4.0,24.0,14.0,5.0,1.0,0.0,1.0
1701719098.8416023,1.0,5.0,-18.0,-9.0,-1.0,-1.0,-1.0,-1.0
1701719098.8416023,0.0,-2.0,18.0,2.0,1.0,0.0,0.0,0.0
1701719098.8618581,-1.0,-1.0,-34.0,-16.0,-1.0,-1.0,0.0,-1.0
1701719098.8618581,-4.0,-6.0,13.0,-4.0,-3.0,-3.0,-2.0,-3.0
1701719098.871626,2.0,0.0,4.0,5.0,-2.0,-3.0,-2.0,0.0
1701719098.871626,-2.0,8.0,15.0,8.0,-3.0,-3.0,-6.0,-1.0
1701719098.8916194,-1.0,2.0,-9.0,-4.0,1.0,4.0,6.0,1.0
1701719098.8916194,-1.0,3.0,20.0,-7.0,-1.0,1.0,0.0,-2.0
1701719098.8916194,-1.0,-9.0,-29.0,3.0,1.0,-1.0,1.0,-1.0
1701719098.8916194,0.0,-9.0,4.0,1.0,-3.0,-5.0,-4.0,-3.0
1701719098.901866,-11.0,0.0,0.0,-6.0,0.0,-4.0,-4.0,-1.0
1701719098.901866,-2.0,-1.0,-8.0,-5.0,-2.0,0.0,-1.0,0.0
1701719098.901866,-1.0,2.0,22.0,-1.0,-3.0,0.0,-2.0,-2.0
1701719098.901866,-1.0,-5.0,-20.0,2.0,-3.0,-1.0,0.0,-1.0
1701719098.941618,2.0,0.0,-12.0,-18.0,-1.0,-2.0,-1.0,1.0
1701719098.941618,-2.0,3.0,23.0,19.0,1.0,-1.0,1.0,-1.0
1701719098.941618,-3.0,-6.0,-8.0,-10.0,-5.0,-3.0,0.0,-1.0
1701719098.941618,2.0,-2.0,20.0,1.0,7.0,0.0,-2.0,0.0
1701719098.941618,1.0,0.0,-23.0,-4.0,1.0,1.0,-3.0,-1.0
1701719098.941618,-1.0,2.0,-1.0,3.0,-1.0,-3.0,-3.0,-1.0
1701719098.9519176,0.0,0.0,-10.0,-6.0,2.0,1.0,0.0,-1.0
1701719098.9519176,-3.0,-1.0,6.0,-3.0,-6.0,-3.0,0.0,-2.0
1701719098.961626,1.0,-1.0,-2.0,-5.0,-1.0,-2.0,-2.0,-1.0
1701719098.961626,0.0,-4.0,-9.0,18.0,-6.0,1.0,-3.0,0.0
1701719098.971623,0.0,0.0,2.0,-15.0,3.0,-2.0,-3.0,-2.0
1701719098.971623,-1.0,4.0,18.0,14.0,1.0,-1.0,-1.0,-2.0
1701719098.981623,-2.0,-13.0,-39.0,-21.0,-5.0,-2.0,-2.0,-3.0
1701719098.981623,-4.0,1.0,9.0,10.0,-4.0,-2.0,-2.0,-1.0
1701719098.99162,7.0,-6.0,1.0,12.0,-1.0,-1.0,-1.0,-3.0
1701719098.99162,0.0,-2.0,-7.0,-4.0,-1.0,0.0,-1.0,1.0
1701719099.0020654,1.0,0.0,0.0,-4.0,-2.0,-2.0,-1.0,-1.0
1701719099.0020654,-2.0,-3.0,-7.0,-5.0,4.0,0.0,0.0,-1.0
1701719099.0119998,-5.0,-5.0,-4.0,2.0,-3.0,-2.0,-1.0,-1.0
1701719099.0119998,-6.0,-3.0,9.0,3.0,-1.0,-1.0,-4.0,0.0
1701719099.0218294,0.0,-7.0,-28.0,2.0,0.0,0.0,5.0,1.0
1701719099.0218294,1.0,-5.0,-10.0,-7.0,-1.0,1.0,0.0,-2.0
1701719099.0218294,-5.0,5.0,21.0,6.0,3.0,2.0,0.0,0.0
1701719099.0218294,1.0,-2.0,-2.0,-6.0,-3.0,-1.0,-1.0,-2.0
1701719099.0416203,0.0,6.0,26.0,14.0,-2.0,0.0,-3.0,1.0
1701719099.0416203,1.0,0.0,-35.0,-26.0,2.0,-3.0,0.0,1.0
1701719099.051621,2.0,1.0,60.0,35.0,1.0,0.0,1.0,0.0
1701719099.051621,-3.0,-5.0,-43.0,-18.0,-2.0,-2.0,0.0,-1.0
1701719099.0620654,0.0,4.0,18.0,2.0,0.0,-2.0,-2.0,-3.0
1701719099.0620654,0.0,0.0,-6.0,-1.0,-1.0,0.0,1.0,-2.0
1701719099.0720417,-2.0,1.0,-22.0,-9.0,-2.0,-2.0,-2.0,0.0
1701719099.0720417,0.0,-1.0,5.0,0.0,0.0,0.0,2.0,1.0
1701719099.081817,-1.0,0.0,19.0,7.0,-3.0,-2.0,-1.0,-3.0
1701719099.081817,-1.0,-8.0,-13.0,-6.0,-3.0,0.0,0.0,-2.0
1701719099.0916214,0.0,0.0,-16.0,-9.0,0.0,-1.0,-3.0,-1.0
1701719099.0916214,-2.0,7.0,14.0,10.0,1.0,0.0,0.0,-1.0
1701719099.101653,1.0,0.0,-4.0,-3.0,-2.0,-2.0,-1.0,-1.0
1701719099.101653,-1.0,-3.0,-4.0,-2.0,-2.0,-2.0,-2.0,-1.0
1701719099.111771,1.0,3.0,12.0,7.0,-4.0,0.0,2.0,0.0
1701719099.111771,-2.0,0.0,0.0,-8.0,1.0,-2.0,0.0,-2.0
1701719099.1220534,5.0,-2.0,-7.0,10.0,-1.0,0.0,-4.0,-3.0
1701719099.1220534,-6.0,0.0,16.0,-10.0,0.0,-1.0,0.0,1.0
1701719099.1320257,-1.0,2.0,-2.0,1.0,-2.0,-2.0,-1.0,0.0
1701719099.1320257,-5.0,-4.0,-12.0,-9.0,-1.0,-1.0,-6.0,-1.0
1701719099.1418316,7.0,-5.0,3.0,2.0,2.0,2.0,5.0,0.0
1701719099.1418316,-7.0,-3.0,-11.0,-5.0,-2.0,-3.0,-2.0,-1.0
1701719099.1516194,-1.0,-2.0,14.0,5.0,1.0,-1.0,-1.0,-2.0
1701719099.1516194,-4.0,0.0,-23.0,-6.0,-4.0,-2.0,-2.0,-1.0
1701719099.1698945,-4.0,0.0,5.0,4.0,1.0,-1.0,-4.0,-1.0
1701719099.1698945,3.0,2.0,1.0,-6.0,-3.0,-1.0,-1.0,-1.0
1701719099.1716392,-3.0,-4.0,-14.0,2.0,-1.0,0.0,-1.0,-1.0
1701719099.1716392,1.0,0.0,-34.0,-4.0,-1.0,1.0,0.0,-2.0
1701719099.1840334,-3.0,8.0,32.0,-2.0,10.0,-1.0,-1.0,-1.0
1701719099.1840334,0.0,1.0,1.0,-1.0,-2.0,-1.0,-1.0,0.0
1701719099.1840334,-2.0,-1.0,-11.0,-6.0,-2.0,-3.0,-2.0,-1.0
1701719099.1840334,2.0,-2.0,1.0,0.0,0.0,0.0,0.0,-1.0
1701719099.2042544,-3.0,-10.0,-7.0,-2.0,-6.0,-2.0,-1.0,0.0
1701719099.2042544,-1.0,-7.0,-1.0,1.0,0.0,0.0,-2.0,-2.0
1701719099.2140357,0.0,2.0,-17.0,4.0,-2.0,-1.0,0.0,-1.0
1701719099.2140357,-1.0,-6.0,5.0,-9.0,-5.0,-3.0,1.0,-1.0
1701719099.2242157,-4.0,-2.0,4.0,3.0,0.0,-1.0,1.0,-1.0
1701719099.2242157,0.0,2.0,-21.0,-6.0,-1.0,-3.0,-5.0,-2.0
1701719099.2242157,1.0,2.0,2.0,-7.0,-1.0,0.0,4.0,-2.0
1701719099.2242157,0.0,-4.0,-8.0,2.0,1.0,0.0,-1.0,-1.0
1701719099.2443187,-3.0,-1.0,12.0,9.0,-3.0,-3.0,-3.0,-1.0
1701719099.2443187,1.0,1.0,-7.0,-1.0,0.0,-1.0,0.0,-1.0
1701719099.2443187,-1.0,-8.0,-13.0,-10.0,-2.0,-1.0,-2.0,-1.0
1701719099.2443187,2.0,5.0,46.0,15.0,2.0,2.0,-1.0,1.0
1701719099.2743146,-1.0,4.0,-25.0,-27.0,-5.0,-1.0,-4.0,-2.0
1701719099.2743146,1.0,0.0,3.0,7.0,0.0,1.0,-1.0,-1.0
1701719099.2743146,-2.0,-3.0,4.0,-2.0,-1.0,0.0,0.0,0.0
1701719099.2743146,-1.0,2.0,16.0,14.0,1.0,-1.0,2.0,-1.0
1701719099.284394,0.0,-2.0,-24.0,-2.0,1.0,2.0,-1.0,-1.0
1701719099.284394,-5.0,5.0,27.0,10.0,-2.0,-1.0,-1.0,1.0
1701719099.284394,4.0,-3.0,-14.0,-10.0,-3.0,-2.0,-2.0,-1.0
1701719099.284394,-1.0,3.0,11.0,-10.0,-5.0,-2.0,-3.0,-1.0
1701719099.304645,-1.0,-5.0,-23.0,5.0,2.0,-1.0,1.0,1.0
1701719099.3143194,3.0,-3.0,-20.0,1.0,1.0,-1.0,1.0,-1.0
1701719099.334318,-14.0,-2.0,22.0,3.0,-1.0,-1.0,-2.0,-1.0
1701719099.334318,3.0,0.0,-15.0,-7.0,-1.0,1.0,-1.0,-1.0
1701719099.334318,-3.0,0.0,15.0,-4.0,-3.0,-3.0,-3.0,0.0
1701719099.334318,1.0,-1.0,11.0,10.0,0.0,-2.0,-4.0,-1.0
1701719099.334318,1.0,1.0,5.0,-6.0,-2.0,-1.0,1.0,0.0
1701719099.334318,1.0,-3.0,-11.0,9.0,1.0,-1.0,0.0,1.0
1701719099.344355,-4.0,0.0,10.0,1.0,-3.0,-1.0,-2.0,-3.0
1701719099.344355,2.0,-4.0,-23.0,-18.0,-7.0,-3.0,-2.0,-2.0
1701719099.3543146,1.0,3.0,11.0,2.0,3.0,0.0,-4.0,0.0
1701719099.3543146,-5.0,-4.0,0.0,-3.0,-4.0,-2.0,-3.0,-3.0
1701719099.3645992,0.0,-1.0,-2.0,-1.0,1.0,-1.0,0.0,1.0
1701719099.3743172,-1.0,3.0,26.0,16.0,-1.0,-1.0,1.0,-2.0
1701719099.3743172,2.0,6.0,-21.0,-15.0,-1.0,0.0,-1.0,-2.0
1701719099.3743172,-1.0,-5.0,6.0,13.0,0.0,-1.0,0.0,-2.0
1701719099.3843484,0.0,-2.0,33.0,2.0,1.0,1.0,-2.0,-1.0
1701719099.3843484,2.0,7.0,14.0,-5.0,-1.0,-1.0,0.0,0.0
1701719099.3843484,-3.0,-7.0,-32.0,-1.0,-1.0,-1.0,-1.0,-1.0
1701719099.3843484,0.0,-8.0,-7.0,-4.0,-3.0,-1.0,-1.0,0.0
1701719099.4046702,-1.0,2.0,-11.0,-4.0,-2.0,0.0,-1.0,-2.0
1701719099.4046702,-3.0,-4.0,-20.0,-14.0,-1.0,-2.0,0.0,-3.0
1701719099.4046702,0.0,1.0,21.0,6.0,1.0,1.0,0.0,-1.0
1701719099.4046702,0.0,1.0,20.0,5.0,-2.0,-2.0,-1.0,0.0
1701719099.4243166,-1.0,2.0,-3.0,-7.0,-2.0,-3.0,-1.0,-2.0
1701719099.4243166,-3.0,-6.0,-11.0,4.0,-2.0,-2.0,0.0,-2.0
1701719099.4343157,-1.0,-1.0,-11.0,-1.0,-4.0,-3.0,-3.0,-1.0
1701719099.4343157,-3.0,1.0,-14.0,-13.0,-1.0,0.0,-3.0,-2.0
1701719099.4447615,-1.0,-8.0,-5.0,-1.0,0.0,0.0,1.0,-1.0
1701719099.4447615,0.0,1.0,8.0,3.0,-1.0,0.0,-1.0,0.0
1701719099.4543161,-2.0,0.0,9.0,7.0,-4.0,-1.0,-1.0,-2.0
1701719099.4543161,-2.0,-8.0,-27.0,-3.0,5.0,0.0,-1.0,-2.0
1701719099.4647624,0.0,6.0,8.0,-2.0,-3.0,-1.0,-2.0,1.0
1701719099.4647624,-1.0,-3.0,-3.0,-6.0,-1.0,-2.0,-1.0,-1.0
1701719099.4647624,1.0,-3.0,-30.0,-2.0,-7.0,0.0,-1.0,-2.0
1701719099.4647624,-1.0,4.0,6.0,-8.0,-4.0,-2.0,-2.0,-2.0
1701719099.4843159,-1.0,-1.0,9.0,25.0,1.0,-3.0,-4.0,-2.0
1701719099.4843159,2.0,-3.0,-27.0,-19.0,-7.0,0.0,0.0,0.0
1701719099.4943163,1.0,-3.0,7.0,-6.0,1.0,-1.0,0.0,1.0
1701719099.4943163,-2.0,0.0,8.0,-2.0,0.0,0.0,0.0,-3.0
1701719099.5043745,0.0,-4.0,11.0,-7.0,-1.0,-2.0,-2.0,-1.0
1701719099.5043745,1.0,-1.0,-1.0,7.0,-3.0,-4.0,-4.0,0.0
1701719099.5143156,-9.0,-5.0,-18.0,-2.0,0.0,-1.0,-6.0,-2.0
1701719099.5143156,-1.0,-2.0,-5.0,2.0,1.0,0.0,5.0,-3.0
1701719099.524686,0.0,1.0,7.0,-12.0,-3.0,-2.0,-2.0,-2.0
1701719099.524686,-7.0,-7.0,-4.0,-1.0,2.0,1.0,-1.0,-1.0
1701719099.524686,6.0,-2.0,1.0,-4.0,-1.0,-1.0,-1.0,-2.0
1701719099.524686,0.0,1.0,-4.0,0.0,0.0,-5.0,-6.0,3.0
1701719099.554317,-8.0,4.0,6.0,1.0,0.0,3.0,-1.0,-9.0
1701719099.554317,4.0,-5.0,-16.0,2.0,1.0,-1.0,2.0,12.0
1701719099.554317,0.0,0.0,27.0,10.0,-1.0,-2.0,2.0,-2.0
1701719099.554317,-3.0,3.0,3.0,-10.0,-3.0,1.0,0.0,-1.0
1701719099.5643482,0.0,2.0,-15.0,-3.0,-1.0,-5.0,-10.0,0.0
1701719099.5643482,-2.0,-2.0,7.0,3.0,0.0,2.0,4.0,-7.0
1701719099.5743203,-8.0,2.0,-2.0,2.0,0.0,0.0,6.0,4.0
1701719099.5743203,4.0,-1.0,1.0,0.0,-2.0,2.0,8.0,0.0
1701719099.584636,-2.0,-2.0,-9.0,2.0,1.0,-1.0,-1.0,-2.0
1701719099.584636,0.0,0.0,18.0,-7.0,0.0,-1.0,-7.0,-5.0
