1701718919.5300276,0.0,1.0,-1.0,0.0,0.0,-1.0,0.0,0.0
1701718919.5300276,-1.0,0.0,-2.0,-1.0,0.0,0.0,-1.0,1.0
1701718919.5300276,-2.0,-2.0,-1.0,-1.0,-3.0,-1.0,1.0,-1.0
1701718919.5300276,-2.0,-1.0,-1.0,1.0,1.0,-1.0,-1.0,-2.0
1701718919.540064,-1.0,-2.0,0.0,1.0,-2.0,-1.0,-2.0,-1.0
1701718919.540064,-1.0,-2.0,-1.0,-1.0,-1.0,0.0,-1.0,0.0
1701718919.5500267,-1.0,-1.0,0.0,0.0,0.0,-1.0,-1.0,-1.0
1701718919.5500267,0.0,-1.0,-1.0,-1.0,0.0,-2.0,-1.0,0.0
1701718919.5600255,5.0,-1.0,-3.0,-1.0,-1.0,-1.0,-1.0,-2.0
1701718919.5600255,-7.0,-3.0,-2.0,-1.0,-3.0,-1.0,-1.0,-1.0
1701718919.5700495,-1.0,1.0,-1.0,0.0,0.0,0.0,-1.0,-1.0
1701718919.5700495,-1.0,-2.0,0.0,-3.0,0.0,-1.0,-2.0,0.0
1701718919.5802689,-1.0,-2.0,-3.0,-2.0,-1.0,1.0,0.0,-1.0
1701718919.5802689,1.0,-2.0,0.0,-1.0,-2.0,-3.0,-2.0,-1.0
1701718919.5900626,-2.0,-1.0,-1.0,-2.0,-1.0,-1.0,-1.0,0.0
1701718919.5900626,1.0,2.0,0.0,-1.0,0.0,-1.0,0.0,-2.0
1701718919.6002593,-2.0,0.0,0.0,-2.0,-1.0,-3.0,-2.0,1.0
1701718919.6002593,0.0,-1.0,-2.0,4.0,-1.0,-3.0,0.0,-1.0
1701718919.610045,-4.0,-7.0,-1.0,-8.0,-14.0,-4.0,-3.0,-2.0
1701718919.610045,-1.0,-1.0,0.0,12.0,36.0,6.0,1.0,-1.0
1701718919.6200223,-2.0,-2.0,0.0,-3.0,-5.0,-3.0,1.0,0.0
1701718919.6200223,-1.0,0.0,1.0,14.0,7.0,1.0,-1.0,-1.0
1701718919.6302369,-1.0,-2.0,-5.0,-18.0,3.0,-1.0,0.0,-2.0
1701718919.6302369,-1.0,-1.0,-2.0,-7.0,-13.0,-3.0,-3.0,-2.0
1701718919.650027,-1.0,-1.0,0.0,-8.0,-9.0,-2.0,-2.0,-2.0
1701718919.650027,-2.0,-1.0,-2.0,1.0,-2.0,0.0,-2.0,-1.0
1701718919.650027,0.0,2.0,0.0,12.0,5.0,1.0,2.0,-1.0
1701718919.650027,0.0,-2.0,-2.0,-2.0,-1.0,0.0,-1.0,0.0
1701718919.6800225,0.0,-1.0,-1.0,2.0,4.0,-1.0,0.0,0.0
1701718919.6800225,1.0,0.0,-3.0,-11.0,-13.0,-5.0,-1.0,-1.0
1701718919.6800225,-1.0,1.0,-1.0,3.0,-2.0,0.0,0.0,1.0
1701718919.6800225,3.0,-1.0,0.0,-1.0,-3.0,-3.0,-1.0,0.0
1701718919.6902075,-8.0,1.0,2.0,2.0,-3.0,-1.0,0.0,-2.0
1701718919.6902075,-1.0,-5.0,-4.0,-4.0,1.0,-1.0,0.0,-1.0
1701718919.6902075,-1.0,0.0,-1.0,1.0,2.0,0.0,-1.0,-2.0
1701718919.6902075,0.0,-1.0,0.0,3.0,-6.0,-2.0,1.0,0.0
1701718919.7100265,-1.0,-1.0,0.0,-1.0,-1.0,-2.0,-3.0,-1.0
1701718919.7100265,0.0,-1.0,0.0,-3.0,2.0,0.0,-2.0,-2.0
1701718919.7100265,-1.0,0.0,-2.0,1.0,0.0,0.0,-2.0,0.0
1701718919.7100265,-1.0,-3.0,-4.0,-6.0,-8.0,-2.0,-2.0,1.0
1701718919.7321188,-1.0,-2.0,-2.0,0.0,1.0,0.0,0.0,-1.0
1701718919.7321188,1.0,-1.0,-2.0,-4.0,2.0,0.0,1.0,-1.0
1701718919.7321188,0.0,0.0,0.0,0.0,-2.0,-1.0,-2.0,-1.0
1701718919.7321188,-3.0,-3.0,-2.0,-1.0,-3.0,-2.0,-1.0,-2.0
1701718919.7432675,0.0,-1.0,-2.0,1.0,2.0,0.0,-1.0,0.0
1701718919.7432675,0.0,1.0,1.0,1.0,1.0,0.0,0.0,-1.0
1701718919.753685,-2.0,-1.0,0.0,0.0,-2.0,0.0,0.0,0.0
1701718919.753685,-2.0,-1.0,-2.0,-3.0,-1.0,0.0,0.0,-2.0
1701718919.763609,-1.0,-3.0,-2.0,1.0,-1.0,1.0,1.0,0.0
1701718919.763609,0.0,-2.0,0.0,-5.0,-5.0,-1.0,-1.0,-2.0
1701718919.7735221,-2.0,-2.0,-1.0,-2.0,-1.0,-3.0,-1.0,-1.0
1701718919.7735221,-3.0,-1.0,-1.0,-1.0,-3.0,0.0,-4.0,-1.0
1701718919.7832696,1.0,-2.0,-2.0,-1.0,-1.0,-1.0,-1.0,0.0
1701718919.7832696,-1.0,0.0,1.0,-1.0,1.0,0.0,-2.0,-1.0
1701718919.7832696,-1.0,0.0,-3.0,-1.0,0.0,-2.0,-2.0,0.0
1701718919.7832696,0.0,-1.0,0.0,0.0,-2.0,0.0,-2.0,0.0
1701718919.803648,0.0,1.0,-2.0,-3.0,-2.0,-2.0,-3.0,-1.0
1701718919.803648,-1.0,-1.0,-2.0,-2.0,-1.0,-2.0,-1.0,-3.0
1701718919.8136876,1.0,-2.0,1.0,1.0,-1.0,-1.0,-2.0,-2.0
1701718919.8136876,0.0,2.0,-2.0,-4.0,-2.0,-2.0,0.0,-1.0
1701718919.833269,-2.0,-1.0,-2.0,-3.0,0.0,-1.0,-1.0,-1.0
1701718919.833269,0.0,-1.0,-2.0,-3.0,-1.0,-1.0,1.0,-1.0
1701718919.833269,-3.0,-1.0,-1.0,0.0,-1.0,-1.0,-1.0,-1.0
1701718919.833269,-2.0,-2.0,0.0,0.0,-2.0,-1.0,0.0,-2.0
1701718919.8434935,-2.0,-1.0,-2.0,0.0,1.0,0.0,1.0,-2.0
1701718919.8434935,-3.0,-1.0,-2.0,1.0,-1.0,-1.0,-1.0,1.0
1701718919.8434935,-2.0,1.0,1.0,1.0,-1.0,0.0,0.0,0.0
1701718919.8434935,-2.0,-1.0,-2.0,-2.0,-2.0,-1.0,-1.0,-2.0
1701718919.8635514,0.0,-1.0,0.0,0.0,0.0,-2.0,-2.0,0.0
1701718919.8635514,-3.0,1.0,0.0,-1.0,-1.0,0.0,-3.0,-1.0
1701718919.8735895,-1.0,-1.0,-2.0,0.0,-2.0,0.0,-1.0,-1.0
1701718919.8735895,1.0,-1.0,0.0,-1.0,-1.0,0.0,-1.0,-1.0
1701718919.8932707,1.0,0.0,0.0,-1.0,0.0,0.0,-1.0,-1.0
1701718919.8932707,2.0,-1.0,0.0,1.0,1.0,1.0,0.0,-1.0
1701718919.8932707,-2.0,-1.0,-1.0,-1.0,1.0,-1.0,-2.0,0.0
1701718919.8932707,-3.0,-2.0,-1.0,-3.0,-3.0,-1.0,-2.0,-1.0
1701718919.9132745,-3.0,-3.0,0.0,-2.0,-2.0,-2.0,1.0,0.0
1701718919.9132745,0.0,-2.0,0.0,-2.0,-2.0,-1.0,-1.0,-1.0
1701718919.9132745,0.0,-1.0,-1.0,-2.0,-2.0,-1.0,0.0,-1.0
1701718919.9132745,-3.0,-4.0,-2.0,1.0,-1.0,-2.0,-1.0,0.0
1701718919.9235384,-1.0,0.0,-1.0,0.0,-2.0,-2.0,-3.0,-1.0
1701718919.9235384,-1.0,0.0,-1.0,-1.0,1.0,1.0,0.0,1.0
1701718919.9335659,1.0,-1.0,0.0,0.0,-1.0,-1.0,-1.0,-1.0
1701718919.9335659,-1.0,0.0,-2.0,0.0,-1.0,-3.0,-2.0,0.0
1701718919.9632711,-1.0,-2.0,0.0,-1.0,-1.0,-1.0,0.0,-3.0
1701718919.9632711,-2.0,0.0,0.0,1.0,0.0,-2.0,-2.0,-1.0
1701718919.9632711,-1.0,-2.0,0.0,-2.0,-1.0,-1.0,-1.0,-1.0
1701718919.9632711,-1.0,0.0,-1.0,-3.0,-1.0,-1.0,-1.0,-2.0
1701718919.9632711,-1.0,0.0,-1.0,-1.0,-1.0,0.0,-1.0,-1.0
1701718919.9732769,-1.0,0.0,-1.0,-1.0,-1.0,0.0,1.0,0.0
1701718919.9732769,-1.0,-2.0,-1.0,0.0,0.0,-2.0,-2.0,1.0
1701718919.9732769,0.0,-2.0,0.0,0.0,-2.0,-1.0,-2.0,-2.0
1701718919.9834356,1.0,1.0,-1.0,-2.0,-1.0,-2.0,-2.0,-1.0
1701718919.9834356,-1.0,0.0,-3.0,-3.0,-3.0,-2.0,-1.0,-1.0
1701718919.993275,-1.0,-1.0,-1.0,-1.0,-1.0,0.0,-1.0,-2.0
1701718919.993275,-1.0,-1.0,-1.0,-1.0,0.0,-2.0,1.0,-1.0
1701718920.0032728,1.0,-1.0,-1.0,0.0,-1.0,0.0,1.0,-2.0
1701718920.0032728,-3.0,-2.0,-3.0,-2.0,-2.0,-1.0,-2.0,-1.0
1701718920.0132709,-2.0,0.0,-2.0,-2.0,-2.0,-3.0,0.0,-1.0
1701718920.0132709,-2.0,0.0,0.0,-2.0,-2.0,-1.0,-1.0,0.0
1701718920.0235333,-1.0,-2.0,0.0,-1.0,-1.0,-2.0,-1.0,-2.0
1701718920.0235333,-1.0,1.0,0.0,-1.0,-2.0,-1.0,0.0,0.0
1701718920.0235333,0.0,1.0,1.0,-1.0,-1.0,0.0,-1.0,0.0
1701718920.0235333,0.0,0.0,-1.0,0.0,-1.0,-1.0,0.0,-1.0
1701718920.0435224,-1.0,-1.0,-2.0,-1.0,0.0,-1.0,-3.0,-1.0
1701718920.0435224,0.0,-1.0,-1.0,1.0,-2.0,0.0,-1.0,-2.0
1701718920.0632691,2.0,-1.0,-2.0,-2.0,-2.0,0.0,-2.0,0.0
1701718920.0632691,-6.0,-1.0,-2.0,-1.0,-1.0,-1.0,-1.0,0.0
1701718920.0632691,-1.0,-2.0,-2.0,-2.0,-2.0,0.0,-1.0,0.0
1701718920.0632691,1.0,-2.0,-2.0,-1.0,-2.0,-3.0,0.0,-1.0
1701718920.0733032,-3.0,-1.0,-2.0,-1.0,0.0,-1.0,-1.0,0.0
1701718920.0733032,0.0,0.0,-1.0,-1.0,-1.0,-2.0,-2.0,-1.0
1701718920.0836654,0.0,-1.0,1.0,0.0,1.0,-1.0,-1.0,-2.0
1701718920.0836654,-3.0,-2.0,1.0,-1.0,-1.0,0.0,-2.0,-2.0
1701718920.0836654,1.0,0.0,0.0,-1.0,-2.0,-1.0,-1.0,-2.0
1701718920.0836654,-3.0,-1.0,-1.0,-2.0,0.0,-2.0,-1.0,-1.0
1701718920.1032715,0.0,-1.0,-2.0,-1.0,1.0,-2.0,-1.0,0.0
1701718920.1032715,0.0,0.0,-1.0,-1.0,0.0,-2.0,-1.0,0.0
1701718920.1136725,-2.0,-2.0,-2.0,-2.0,-1.0,-1.0,-1.0,-1.0
1701718920.1136725,1.0,0.0,0.0,-1.0,-2.0,1.0,0.0,-2.0
1701718920.1310024,-1.0,0.0,-2.0,-2.0,-3.0,0.0,0.0,-2.0
1701718920.1310024,-2.0,-2.0,-1.0,-2.0,-2.0,-1.0,0.0,-2.0
1701718920.1370034,0.0,-1.0,-2.0,-1.0,-3.0,-1.0,-1.0,-1.0
1701718920.1370034,-2.0,-1.0,-2.0,0.0,-2.0,0.0,-1.0,0.0
1701718920.1519082,-2.0,-1.0,-2.0,1.0,-3.0,-3.0,0.0,-1.0
1701718920.1519082,-1.0,0.0,0.0,0.0,0.0,0.0,1.0,-1.0
1701718920.1526515,0.0,-2.0,-2.0,-1.0,1.0,-1.0,-1.0,-2.0
1701718920.1526515,0.0,-6.0,0.0,-1.0,-1.0,-1.0,-3.0,-1.0
1701718920.1666145,-1.0,-2.0,1.0,-1.0,-1.0,0.0,-2.0,0.0
1701718920.1666145,-1.0,-1.0,-1.0,-2.0,-2.0,-1.0,-2.0,-2.0
1701718920.179614,4.0,-1.0,0.0,-2.0,-2.0,0.0,0.0,-2.0
1701718920.179614,-5.0,1.0,0.0,-1.0,-1.0,-1.0,-2.0,0.0
1701718920.189123,-2.0,0.0,-1.0,-1.0,-1.0,-1.0,0.0,0.0
1701718920.189123,-1.0,-7.0,-2.0,-2.0,0.0,1.0,-3.0,-1.0
1701718920.1971297,-2.0,-1.0,0.0,-1.0,0.0,-1.0,0.0,1.0
1701718920.1971297,1.0,-2.0,-2.0,-2.0,1.0,1.0,0.0,0.0
1701718920.2119036,-1.0,-2.0,-1.0,-1.0,0.0,0.0,-1.0,-1.0
1701718920.2119036,-1.0,0.0,-1.0,-1.0,1.0,-1.0,-3.0,-2.0
1701718920.212812,-3.0,-2.0,-1.0,0.0,0.0,-1.0,0.0,-1.0
1701718920.212812,2.0,0.0,-2.0,0.0,-1.0,-1.0,0.0,-1.0
1701718920.2262037,-2.0,0.0,0.0,-1.0,-1.0,-1.0,-1.0,0.0
1701718920.2262037,1.0,2.0,-2.0,1.0,-1.0,-1.0,0.0,1.0
1701718920.2371974,-1.0,-1.0,-1.0,-3.0,-1.0,-2.0,-3.0,-1.0
1701718920.2371974,0.0,-1.0,-1.0,-1.0,-1.0,0.0,0.0,0.0
1701718920.2489831,0.0,-3.0,0.0,-1.0,-1.0,-1.0,-2.0,-1.0
1701718920.2489831,-4.0,-1.0,-3.0,-3.0,-2.0,-2.0,-1.0,-2.0
1701718920.2569628,-1.0,1.0,0.0,-1.0,1.0,1.0,0.0,-2.0
1701718920.2578273,-3.0,-2.0,-4.0,0.0,-2.0,-1.0,-2.0,-2.0
1701718920.2718859,-1.0,-2.0,-7.0,-1.0,0.0,-2.0,-2.0,-2.0
1701718920.2718859,-2.0,2.0,-5.0,-3.0,-1.0,-1.0,-2.0,-1.0
1701718920.2768862,-2.0,-8.0,2.0,1.0,0.0,-2.0,-1.0,-2.0
1701718920.277885,1.0,0.0,2.0,-1.0,-2.0,-4.0,1.0,-1.0
1701718920.286273,0.0,5.0,5.0,0.0,0.0,-1.0,-1.0,0.0
1701718920.286273,0.0,1.0,2.0,1.0,1.0,0.0,-1.0,0.0
1701718920.294095,-3.0,-8.0,-8.0,-2.0,-4.0,-1.0,-2.0,0.0
1701718920.294095,-3.0,-15.0,10.0,-2.0,-1.0,0.0,0.0,-1.0
1701718920.3094008,-1.0,-5.0,-14.0,-2.0,-2.0,-1.0,-1.0,-2.0
1701718920.3094008,-1.0,-2.0,3.0,2.0,2.0,-3.0,-1.0,0.0
1701718920.3094008,0.0,2.0,1.0,1.0,0.0,-1.0,-1.0,0.0
1701718920.3094008,-1.0,-2.0,-2.0,1.0,0.0,-1.0,-3.0,-2.0
1701718920.3294024,-2.0,-5.0,0.0,-6.0,-2.0,-1.0,-1.0,0.0
1701718920.3294024,-1.0,-1.0,-3.0,-3.0,-5.0,-1.0,-2.0,-2.0
1701718920.3294024,-2.0,0.0,0.0,2.0,-1.0,-2.0,0.0,-1.0
1701718920.3294024,2.0,3.0,7.0,-2.0,1.0,-1.0,-1.0,1.0
1701718920.3394017,-2.0,2.0,3.0,0.0,-1.0,0.0,0.0,0.0
1701718920.3394017,0.0,-1.0,-7.0,-3.0,0.0,0.0,-1.0,-1.0
1701718920.3496606,-2.0,2.0,-7.0,5.0,0.0,-2.0,-2.0,-1.0
1701718920.3496606,1.0,5.0,32.0,4.0,0.0,-1.0,-1.0,-2.0
1701718920.3695657,-2.0,-6.0,-56.0,-20.0,-3.0,-3.0,-1.0,-1.0
1701718920.3695657,0.0,-2.0,5.0,-2.0,0.0,-2.0,1.0,0.0
1701718920.3695657,0.0,1.0,-7.0,-3.0,-1.0,-1.0,-1.0,-2.0
1701718920.3695657,0.0,2.0,1.0,5.0,1.0,-1.0,-1.0,0.0
1701718920.3894022,-1.0,-1.0,15.0,3.0,0.0,0.0,0.0,-3.0
1701718920.3894022,0.0,1.0,-2.0,-2.0,-2.0,-2.0,-1.0,-1.0
1701718920.3894022,0.0,-1.0,-3.0,0.0,0.0,-2.0,-1.0,0.0
1701718920.3894022,-1.0,2.0,-11.0,-3.0,0.0,0.0,-1.0,0.0
1701718920.3994002,-1.0,3.0,12.0,2.0,-1.0,0.0,-2.0,1.0
1701718920.3994002,-2.0,-4.0,-3.0,-1.0,-2.0,-1.0,0.0,-1.0
1701718920.4097803,0.0,1.0,11.0,0.0,-2.0,-1.0,1.0,-1.0
1701718920.4097803,-1.0,-2.0,-12.0,-4.0,-1.0,-1.0,-2.0,0.0
1701718920.4294019,-1.0,1.0,7.0,3.0,-1.0,0.0,0.0,-2.0
1701718920.4294019,-1.0,-1.0,4.0,2.0,1.0,-1.0,-1.0,0.0
1701718920.4294019,0.0,1.0,-4.0,-3.0,-1.0,-1.0,-1.0,0.0
1701718920.4294019,-1.0,-2.0,-11.0,-4.0,-1.0,-1.0,0.0,0.0
1701718920.4494028,-2.0,0.0,2.0,2.0,-1.0,1.0,-1.0,0.0
1701718920.4494028,1.0,-2.0,-2.0,-1.0,-2.0,-1.0,-2.0,-1.0
1701718920.4494028,-2.0,1.0,2.0,-4.0,-1.0,-1.0,0.0,-1.0
1701718920.4494028,0.0,-1.0,-10.0,-4.0,-3.0,-1.0,-1.0,-1.0
1701718920.4594004,0.0,1.0,11.0,3.0,0.0,-2.0,-1.0,-2.0
1701718920.4594004,-3.0,-1.0,2.0,2.0,-2.0,0.0,-2.0,-1.0
1701718920.4696362,-1.0,-1.0,0.0,-2.0,-1.0,-1.0,0.0,-2.0
1701718920.4696362,-1.0,1.0,0.0,0.0,-1.0,-2.0,-2.0,-2.0
1701718920.4897072,0.0,-2.0,-1.0,-3.0,-2.0,-2.0,-3.0,0.0
1701718920.499406,0.0,-1.0,-4.0,-2.0,0.0,-1.0,-1.0,-1.0
1701718920.5094037,-3.0,0.0,-1.0,-1.0,0.0,-1.0,0.0,0.0
1701718920.5094037,-1.0,-1.0,-3.0,-2.0,-3.0,-1.0,-3.0,-1.0
1701718920.5194016,-1.0,-1.0,1.0,0.0,-1.0,0.0,-1.0,-2.0
1701718920.5194016,-1.0,-2.0,-1.0,-1.0,-1.0,0.0,-1.0,0.0
1701718920.5194016,-3.0,-3.0,1.0,0.0,0.0,1.0,-3.0,-2.0
1701718920.5194016,-1.0,-1.0,-3.0,-3.0,0.0,0.0,0.0,-3.0
1701718920.5194016,0.0,0.0,1.0,1.0,-1.0,-2.0,-1.0,-3.0
1701718920.5194016,-1.0,-1.0,-2.0,-1.0,-2.0,-1.0,-2.0,-1.0
1701718920.5294383,-2.0,-1.0,-3.0,-1.0,-2.0,-1.0,1.0,-1.0
1701718920.5294383,0.0,0.0,-3.0,0.0,0.0,-1.0,1.0,1.0
1701718920.539678,-2.0,-2.0,0.0,1.0,-1.0,-2.0,0.0,0.0
1701718920.539678,-2.0,-1.0,-1.0,-2.0,0.0,-1.0,0.0,0.0
1701718920.549441,1.0,-1.0,-3.0,-2.0,-2.0,-1.0,-2.0,-1.0
1701718920.549441,-1.0,-1.0,-3.0,-1.0,-1.0,-3.0,0.0,-1.0
1701718920.5694013,-2.0,-1.0,3.0,-1.0,0.0,-1.0,-2.0,2.0
1701718920.5694013,0.0,-3.0,-1.0,-1.0,-2.0,-1.0,-1.0,-1.0
1701718920.5694013,-1.0,-2.0,1.0,-1.0,-1.0,0.0,-1.0,-1.0
1701718920.5694013,0.0,0.0,-2.0,1.0,-2.0,-2.0,-1.0,0.0
1701718920.5794015,-1.0,0.0,1.0,0.0,0.0,-1.0,-1.0,-3.0
1701718920.5794015,2.0,-1.0,-2.0,0.0,-3.0,-2.0,-2.0,-2.0
1701718920.5896323,1.0,0.0,-2.0,-1.0,0.0,-2.0,0.0,-1.0
1701718920.5896323,-2.0,-1.0,-2.0,-1.0,0.0,-1.0,-2.0,-1.0
1701718920.609403,-1.0,-1.0,0.0,1.0,-1.0,1.0,1.0,1.0
1701718920.609403,-3.0,-1.0,-3.0,-2.0,-1.0,0.0,-2.0,0.0
1701718920.609403,-1.0,0.0,-2.0,-2.0,-2.0,-2.0,-1.0,-1.0
1701718920.609403,-1.0,-1.0,-1.0,-1.0,0.0,0.0,-3.0,-1.0
1701718920.6294012,-1.0,-2.0,-1.0,-1.0,0.0,-2.0,-1.0,-1.0
1701718920.6294012,-1.0,0.0,0.0,1.0,-1.0,-1.0,0.0,-1.0
1701718920.6294012,-2.0,-1.0,-1.0,0.0,-2.0,0.0,0.0,0.0
1701718920.6294012,-1.0,0.0,-2.0,-1.0,-3.0,1.0,0.0,0.0
1701718920.639408,1.0,0.0,-2.0,-2.0,0.0,-2.0,0.0,-1.0
1701718920.639408,-1.0,-2.0,-1.0,-2.0,0.0,-2.0,0.0,-2.0
1701718920.6494026,-3.0,0.0,1.0,-1.0,-2.0,-1.0,-1.0,1.0
1701718920.6494026,-2.0,-1.0,-1.0,1.0,-1.0,0.0,-1.0,-1.0
1701718920.669401,0.0,0.0,-2.0,-1.0,-1.0,0.0,-2.0,-1.0
1701718920.669401,-1.0,0.0,-1.0,-2.0,-1.0,-3.0,1.0,-2.0
1701718920.669401,-1.0,-2.0,-1.0,-3.0,-1.0,-1.0,-1.0,-1.0
1701718920.669401,-2.0,-2.0,-1.0,-1.0,-1.0,1.0,0.0,-2.0
1701718920.6897173,-1.0,-2.0,0.0,-2.0,0.0,-2.0,1.0,-1.0
1701718920.6897173,-2.0,1.0,-3.0,-1.0,-1.0,0.0,-1.0,-1.0
1701718920.6897173,1.0,-1.0,0.0,1.0,-2.0,-2.0,-2.0,0.0
1701718920.6897173,-3.0,-1.0,-2.0,-2.0,-1.0,-1.0,0.0,1.0
1701718920.6994057,-2.0,-2.0,-2.0,-3.0,-1.0,0.0,-1.0,-2.0
1701718920.6994057,0.0,-2.0,1.0,0.0,0.0,0.0,-1.0,-1.0
1701718920.7096386,0.0,-1.0,-2.0,-1.0,-1.0,-1.0,0.0,-2.0
1701718920.7096386,-2.0,0.0,-2.0,-1.0,1.0,-1.0,-2.0,-1.0
1701718920.7493992,-1.0,1.0,0.0,0.0,-3.0,1.0,1.0,0.0
1701718920.7493992,-1.0,1.0,-1.0,0.0,-1.0,-1.0,-2.0,-1.0
1701718920.7493992,-3.0,-1.0,-1.0,0.0,-1.0,0.0,-1.0,-1.0
1701718920.7493992,0.0,1.0,-2.0,0.0,-1.0,-1.0,-1.0,-2.0
1701718920.7493992,-2.0,-2.0,0.0,0.0,-1.0,-1.0,-2.0,-1.0
1701718920.7493992,-1.0,-1.0,-1.0,-2.0,-1.0,1.0,-2.0,0.0
1701718920.7596915,-2.0,-1.0,-1.0,-2.0,-1.0,0.0,-2.0,-1.0
1701718920.7596915,-1.0,0.0,-1.0,-1.0,0.0,0.0,-1.0,-1.0
1701718920.7596915,0.0,0.0,-2.0,0.0,0.0,-1.0,-1.0,-1.0
1701718920.7596915,-2.0,-1.0,-1.0,-1.0,-1.0,0.0,-2.0,0.0
1701718920.7696478,-1.0,-3.0,-1.0,-1.0,-1.0,-3.0,-1.0,-1.0
1701718920.7696478,-1.0,-2.0,-2.0,-2.0,-2.0,-2.0,-3.0,-1.0
1701718920.7896886,0.0,-1.0,-1.0,-2.0,-1.0,-1.0,-2.0,-2.0
1701718920.7896886,-2.0,-2.0,-1.0,-2.0,-1.0,-2.0,0.0,-1.0
1701718920.8086152,-1.0,-2.0,-1.0,0.0,-1.0,0.0,-1.0,-1.0
1701718920.8086152,-2.0,-2.0,0.0,-2.0,-3.0,-2.0,0.0,-3.0
1701718920.8186116,-2.0,-2.0,1.0,0.0,-2.0,-2.0,-1.0,-1.0
1701718920.8186116,-1.0,-1.0,-2.0,0.0,-1.0,0.0,0.0,-1.0
1701718920.8186116,-1.0,-2.0,-2.0,-2.0,1.0,-1.0,-2.0,2.0
1701718920.8186116,0.0,1.0,-1.0,-1.0,0.0,-1.0,-1.0,-1.0
1701718920.8186116,-1.0,-1.0,-2.0,1.0,0.0,-2.0,-1.0,-2.0
1701718920.8186116,0.0,0.0,0.0,-1.0,0.0,-1.0,-1.0,-2.0
1701718920.8289201,-2.0,-1.0,-1.0,0.0,-1.0,-1.0,-1.0,-2.0
1701718920.8289201,2.0,-2.0,-1.0,-1.0,0.0,-2.0,-2.0,0.0
1701718920.8589423,0.0,-2.0,-1.0,-2.0,-2.0,-2.0,-1.0,-1.0
1701718920.8589423,-1.0,-1.0,-1.0,1.0,-1.0,-3.0,-1.0,-1.0
1701718920.8589423,0.0,0.0,0.0,-3.0,-1.0,-1.0,0.0,-2.0
1701718920.8589423,-3.0,0.0,-1.0,0.0,-2.0,-2.0,-2.0,-1.0
1701718920.8689458,-1.0,-1.0,1.0,0.0,1.0,-1.0,-2.0,-1.0
1701718920.8689458,-2.0,-1.0,-2.0,-2.0,-1.0,0.0,0.0,-2.0
1701718920.879185,-1.0,0.0,-2.0,-2.0,0.0,-1.0,-3.0,-1.0
1701718920.879185,0.0,-1.0,-1.0,-1.0,1.0,-2.0,-2.0,0.0
1701718920.8889396,-1.0,0.0,-2.0,-2.0,-1.0,-1.0,-1.0,-2.0
1701718920.8889396,-1.0,-2.0,-2.0,-1.0,-2.0,-3.0,0.0,0.0
1701718920.8889396,0.0,-1.0,0.0,-1.0,-1.0,-1.0,0.0,0.0
1701718920.8889396,-2.0,-2.0,-2.0,0.0,-2.0,-2.0,0.0,0.0
1701718920.9091425,-2.0,0.0,-3.0,-2.0,-1.0,0.0,-1.0,-1.0
1701718920.9091425,0.0,0.0,0.0,1.0,-1.0,-1.0,0.0,-2.0
1701718920.9091425,1.0,-1.0,0.0,0.0,-1.0,-1.0,-2.0,-1.0
1701718920.9091425,-2.0,-1.0,-3.0,-1.0,-2.0,0.0,-1.0,-1.0
1701718920.9292455,-2.0,-2.0,0.0,0.0,-1.0,-1.0,-2.0,1.0
1701718920.9292455,0.0,-3.0,-1.0,-2.0,0.0,-1.0,-1.0,1.0
1701718920.9392767,1.0,-1.0,0.0,0.0,0.0,-1.0,-2.0,-1.0
1701718920.9392767,1.0,-2.0,0.0,-1.0,-1.0,-1.0,-3.0,-3.0
1701718920.9589393,1.0,-1.0,-1.0,-2.0,0.0,-1.0,-2.0,-1.0
1701718920.9589393,-1.0,-1.0,-3.0,-1.0,-1.0,-2.0,0.0,0.0
1701718920.9589393,-2.0,-1.0,1.0,-2.0,-1.0,-4.0,0.0,-1.0
1701718920.9589393,-2.0,-1.0,-1.0,-3.0,0.0,-2.0,-2.0,-1.0
1701718920.9690886,-1.0,-2.0,-2.0,-1.0,-1.0,1.0,-1.0,0.0
1701718920.9690886,-1.0,-2.0,1.0,-3.0,0.0,0.0,-2.0,-3.0
1701718920.9690886,-3.0,-1.0,-1.0,-1.0,-1.0,0.0,1.0,-2.0
1701718920.9690886,0.0,1.0,0.0,0.0,-2.0,-3.0,-1.0,-1.0
1701718920.9892724,-1.0,0.0,-2.0,0.0,1.0,-1.0,0.0,-2.0
1701718920.9892724,0.0,0.0,2.0,0.0,0.0,1.0,1.0,-1.0
1701718920.9992511,0.0,0.0,-2.0,1.0,-1.0,-3.0,0.0,-1.0
1701718920.9992511,0.0,-2.0,-1.0,-2.0,-2.0,1.0,-1.0,-1.0
1701718921.0189376,0.0,-2.0,-2.0,0.0,-3.0,-3.0,-2.0,0.0
1701718921.0189376,-2.0,-1.0,-1.0,-2.0,-2.0,0.0,-1.0,-1.0
1701718921.0189376,-2.0,-2.0,0.0,-2.0,-3.0,1.0,0.0,0.0
1701718921.0189376,-1.0,-3.0,1.0,-1.0,-1.0,0.0,-2.0,0.0
1701718921.0290077,-2.0,-1.0,-1.0,0.0,-3.0,0.0,-1.0,-1.0
1701718921.0290077,-1.0,0.0,-2.0,0.0,0.0,-1.0,0.0,-1.0
1701718921.0290077,-1.0,-1.0,-1.0,0.0,0.0,1.0,0.0,-1.0
1701718921.0290077,0.0,-1.0,-2.0,-1.0,0.0,-1.0,-1.0,-2.0
1701718921.0491576,1.0,1.0,-1.0,-1.0,0.0,0.0,-1.0,-1.0
1701718921.0491576,0.0,-1.0,-1.0,-1.0,-2.0,-1.0,-2.0,0.0
1701718921.0591915,0.0,-1.0,-3.0,-2.0,-1.0,-2.0,-2.0,0.0
1701718921.0591915,-1.0,1.0,-1.0,-2.0,0.0,0.0,0.0,-1.0
1701718921.0889387,-1.0,-1.0,-1.0,-2.0,-3.0,-4.0,0.0,-2.0
1701718921.0889387,-2.0,-2.0,-1.0,0.0,1.0,-2.0,-1.0,-1.0
1701718921.0889387,-1.0,-1.0,0.0,0.0,-3.0,-3.0,-3.0,0.0
1701718921.0889387,0.0,0.0,-1.0,0.0,-1.0,2.0,-1.0,-1.0
1701718921.0889387,-2.0,-1.0,-1.0,-1.0,0.0,-3.0,-1.0,-1.0
1701718921.0889387,-2.0,1.0,-2.0,-1.0,-3.0,-2.0,-1.0,-1.0
1701718921.0889387,-1.0,0.0,-2.0,-2.0,-1.0,1.0,-1.0,-1.0
1701718921.0889387,0.0,-2.0,-1.0,-1.0,-2.0,-1.0,0.0,0.0
1701718921.1090524,1.0,0.0,-3.0,-1.0,-2.0,0.0,0.0,0.0
1701718921.1090524,0.0,0.0,-3.0,-1.0,0.0,0.0,-1.0,0.0
1701718921.11894,-1.0,-2.0,-1.0,-2.0,-1.0,0.0,0.0,-2.0
1701718921.11894,-2.0,0.0,1.0,1.0,-3.0,-1.0,0.0,-2.0
1701718921.1292567,-1.0,-3.0,1.0,-2.0,0.0,0.0,-2.0,-1.0
1701718921.1292567,-1.0,-2.0,-2.0,-2.0,-1.0,-2.0,-2.0,-2.0
1701718921.1292567,-2.0,-1.0,0.0,-2.0,-2.0,-2.0,-1.0,-1.0
1701718921.1292567,-2.0,-1.0,0.0,-1.0,1.0,0.0,1.0,-2.0
1701718921.1491318,1.0,-1.0,-1.0,-1.0,-1.0,-1.0,-2.0,-2.0
1701718921.1491318,0.0,0.0,-2.0,-1.0,-1.0,-1.0,-1.0,-2.0
1701718921.1491318,-1.0,-1.0,-1.0,-1.0,-1.0,-2.0,-1.0,-1.0
1701718921.1491318,-2.0,-1.0,-2.0,-1.0,-1.0,-2.0,-1.0,1.0
1701718921.1692405,-1.0,-3.0,1.0,-1.0,1.0,-1.0,-1.0,0.0
1701718921.1692405,0.0,0.0,0.0,0.0,-1.0,-2.0,-2.0,-1.0
1701718921.1792827,-1.0,-1.0,-1.0,0.0,-2.0,-1.0,-1.0,-1.0
1701718921.1792827,-3.0,-1.0,-1.0,-2.0,-2.0,-2.0,-2.0,-1.0
1701718921.1989374,-3.0,1.0,-3.0,-2.0,-2.0,-2.0,1.0,-1.0
1701718921.1989374,-1.0,-1.0,1.0,0.0,-1.0,0.0,0.0,0.0
1701718921.1989374,0.0,0.0,0.0,0.0,0.0,-1.0,-2.0,-2.0
1701718921.1989374,0.0,-1.0,-1.0,-1.0,-1.0,-2.0,-1.0,0.0
1701718921.2091336,-1.0,0.0,0.0,-1.0,-1.0,-2.0,-1.0,0.0
1701718921.2091336,-1.0,-2.0,-2.0,-1.0,-3.0,0.0,0.0,0.0
1701718921.2091336,-2.0,-2.0,0.0,-1.0,0.0,0.0,0.0,-2.0
1701718921.2091336,-1.0,-1.0,-1.0,-2.0,-2.0,-2.0,0.0,0.0
1701718921.2291908,-1.0,-1.0,-2.0,0.0,0.0,-2.0,-2.0,0.0
1701718921.2291908,-1.0,-1.0,0.0,0.0,1.0,-1.0,0.0,0.0
1701718921.238939,-1.0,-2.0,-1.0,-1.0,-1.0,0.0,0.0,-2.0
1701718921.238939,0.0,0.0,-1.0,-2.0,-1.0,-2.0,0.0,-1.0
1701718921.2492514,0.0,-1.0,-1.0,-1.0,-1.0,-1.0,-2.0,-3.0
1701718921.2492514,-2.0,-2.0,0.0,0.0,0.0,-1.0,-2.0,-1.0
1701718921.2492514,0.0,-1.0,-2.0,-2.0,-1.0,-1.0,-2.0,-2.0
1701718921.2492514,-3.0,-2.0,-2.0,-1.0,-2.0,0.0,-1.0,-2.0
1701718921.2690392,-2.0,-2.0,-1.0,-1.0,-2.0,-2.0,0.0,2.0
1701718921.2690392,-1.0,-2.0,0.0,-3.0,-2.0,-2.0,0.0,-1.0
1701718921.2690392,0.0,0.0,-1.0,-1.0,-1.0,0.0,-1.0,0.0
1701718921.2690392,-1.0,0.0,-1.0,-1.0,1.0,-1.0,-1.0,-2.0
1701718921.2891667,1.0,0.0,0.0,0.0,1.0,-1.0,-1.0,-1.0
1701718921.2891667,0.0,-1.0,-2.0,-1.0,-1.0,-1.0,-2.0,-3.0
1701718921.3044014,-2.0,-2.0,-4.0,0.0,0.0,-1.0,-1.0,-1.0
1701718921.3044014,-1.0,-1.0,-1.0,-2.0,0.0,-1.0,-1.0,0.0
1701718921.314759,-1.0,-1.0,-2.0,0.0,-2.0,0.0,-1.0,-1.0
1701718921.314759,-1.0,0.0,-4.0,-1.0,-1.0,-1.0,-2.0,-3.0
1701718921.3157988,0.0,0.0,-1.0,-1.0,0.0,-3.0,-2.0,1.0
1701718921.3157988,-1.0,-1.0,-1.0,-1.0,0.0,-2.0,-2.0,-1.0
1701718921.3248525,-1.0,-1.0,-2.0,-2.0,-1.0,-1.0,0.0,0.0
1701718921.3248525,-1.0,-1.0,-2.0,-2.0,-2.0,-2.0,-1.0,0.0
1701718921.3349595,0.0,-1.0,-1.0,1.0,1.0,0.0,-1.0,0.0
1701718921.3349595,-2.0,-1.0,0.0,1.0,-1.0,1.0,-1.0,-3.0
1701718921.34485,-2.0,0.0,0.0,0.0,-1.0,-3.0,-1.0,0.0
1701718921.34485,-3.0,0.0,0.0,-1.0,-1.0,-1.0,-1.0,-1.0
1701718921.355054,0.0,-2.0,-1.0,-2.0,-1.0,-1.0,-1.0,0.0
1701718921.355054,0.0,-1.0,0.0,-1.0,0.0,-1.0,-1.0,-1.0
1701718921.3748548,-1.0,0.0,-1.0,0.0,-2.0,1.0,0.0,0.0
1701718921.3748548,0.0,-1.0,-1.0,0.0,-3.0,0.0,0.0,0.0
1701718921.3748548,-1.0,-2.0,1.0,-2.0,0.0,-2.0,-2.0,-3.0
1701718921.3748548,-3.0,0.0,-1.0,-1.0,-2.0,-2.0,-3.0,-2.0
1701718921.385054,0.0,2.0,0.0,0.0,0.0,0.0,-3.0,-2.0
1701718921.385054,-1.0,-2.0,-1.0,0.0,0.0,-2.0,-1.0,-1.0
1701718921.3949745,-1.0,-1.0,-1.0,-2.0,-1.0,0.0,-1.0,0.0
1701718921.3949745,-1.0,-4.0,-1.0,-1.0,-1.0,-2.0,-1.0,-1.0
1701718921.4048507,-2.0,-3.0,-3.0,-3.0,0.0,0.0,-1.0,-2.0
1701718921.4048507,-2.0,-4.0,-3.0,0.0,0.0,0.0,-2.0,-1.0
1701718921.4151938,1.0,3.0,1.0,-1.0,-3.0,-2.0,0.0,-1.0
1701718921.4151938,-1.0,2.0,1.0,0.0,-1.0,-1.0,-2.0,0.0
1701718921.4348514,-1.0,-2.0,-2.0,-2.0,-1.0,-3.0,0.0,-3.0
1701718921.4348514,0.0,0.0,-1.0,-3.0,-3.0,0.0,-2.0,-2.0
1701718921.4348514,0.0,-3.0,-4.0,-3.0,0.0,-2.0,-1.0,-1.0
1701718921.4348514,0.0,0.0,0.0,0.0,-1.0,-1.0,-1.0,1.0
1701718921.4451172,0.0,-1.0,-1.0,1.0,-1.0,0.0,-2.0,-2.0
1701718921.4451172,0.0,3.0,2.0,-1.0,0.0,-2.0,0.0,0.0
1701718921.4549813,-1.0,-1.0,1.0,0.0,-1.0,-1.0,-1.0,0.0
1701718921.4549813,1.0,2.0,2.0,-1.0,-3.0,0.0,0.0,-1.0
1701718921.4648502,-1.0,0.0,1.0,1.0,-2.0,-1.0,-1.0,-2.0
1701718921.4648502,-2.0,-1.0,-2.0,-1.0,0.0,-3.0,0.0,-2.0
1701718921.475193,0.0,2.0,2.0,1.0,-1.0,-2.0,-1.0,-2.0
1701718921.475193,-3.0,-4.0,-6.0,0.0,-1.0,0.0,-2.0,-2.0
1701718921.494982,-1.0,-1.0,3.0,-2.0,-2.0,0.0,-1.0,-1.0
1701718921.494982,-2.0,0.0,-4.0,-1.0,-2.0,0.0,-2.0,-2.0
1701718921.494982,-2.0,-3.0,2.0,-1.0,-1.0,-1.0,-1.0,-1.0
1701718921.494982,-1.0,1.0,-1.0,-1.0,0.0,-2.0,-1.0,-1.0
1701718921.5051415,-2.0,1.0,-1.0,-2.0,-1.0,0.0,1.0,-1.0
1701718921.5051415,-1.0,1.0,-2.0,0.0,-1.0,-1.0,-2.0,0.0
1701718921.5150993,-3.0,-1.0,-2.0,-1.0,-2.0,1.0,0.0,-1.0
1701718921.5150993,0.0,4.0,2.0,-2.0,-3.0,-1.0,0.0,0.0
1701718921.534853,0.0,-2.0,-2.0,-1.0,-1.0,-1.0,-2.0,0.0
1701718921.5448494,0.0,-2.0,-8.0,-1.0,1.0,1.0,-1.0,0.0
1701718921.5448494,-3.0,-4.0,-7.0,-2.0,-1.0,-3.0,-4.0,-1.0
1701718921.5448494,0.0,-3.0,-1.0,-2.0,-2.0,-4.0,-1.0,-1.0
1701718921.554857,-1.0,0.0,3.0,0.0,0.0,-2.0,-1.0,0.0
1701718921.554857,-1.0,-2.0,2.0,0.0,-2.0,-1.0,-1.0,0.0
1701718921.554857,-1.0,0.0,-4.0,0.0,-3.0,-1.0,0.0,-1.0
1701718921.554857,-1.0,-2.0,-3.0,-1.0,-1.0,-1.0,1.0,0.0
1701718921.5748518,-3.0,-3.0,-3.0,-1.0,-1.0,0.0,-1.0,0.0
1701718921.5748518,-1.0,-1.0,-2.0,-1.0,-2.0,-2.0,-1.0,-2.0
1701718921.5748518,-1.0,0.0,-1.0,0.0,-1.0,0.0,-2.0,-1.0
1701718921.5748518,-1.0,-2.0,0.0,-3.0,0.0,0.0,-1.0,-1.0
1701718921.58485,-1.0,-2.0,-2.0,-2.0,-1.0,0.0,0.0,-1.0
1701718921.58485,-2.0,-2.0,1.0,0.0,-2.0,0.0,-1.0,0.0
1701718921.595175,-1.0,0.0,1.0,-2.0,-2.0,-1.0,-1.0,0.0
1701718921.595175,0.0,-1.0,0.0,-1.0,-1.0,0.0,-1.0,0.0
1701718921.6149204,0.0,-2.0,-2.0,-2.0,0.0,-1.0,-3.0,-1.0
1701718921.6149204,-3.0,-1.0,0.0,-1.0,0.0,-1.0,-1.0,-1.0
1701718921.6149204,1.0,-1.0,-2.0,-1.0,-1.0,-3.0,-2.0,-2.0
1701718921.6149204,-2.0,-3.0,-4.0,-1.0,-1.0,0.0,-1.0,-1.0
1701718921.6248507,-1.0,-1.0,-3.0,-2.0,-1.0,0.0,-1.0,-2.0
1701718921.6248507,0.0,-1.0,0.0,-1.0,0.0,0.0,0.0,-1.0
1701718921.6348853,-2.0,1.0,-1.0,0.0,0.0,-3.0,3.0,-1.0
1701718921.6348853,0.0,-2.0,-3.0,-1.0,-2.0,-2.0,-1.0,-2.0
1701718921.644856,0.0,0.0,0.0,-1.0,-1.0,-2.0,-2.0,0.0
1701718921.644856,-1.0,0.0,-3.0,-2.0,-1.0,-3.0,-2.0,-2.0
1701718921.6550462,0.0,-1.0,-2.0,-1.0,-1.0,1.0,-1.0,0.0
1701718921.6550462,-2.0,0.0,-3.0,-1.0,0.0,-1.0,0.0,-1.0
1701718921.6748557,0.0,-1.0,0.0,0.0,0.0,1.0,1.0,-1.0
1701718921.6748557,1.0,-1.0,-2.0,-1.0,-2.0,0.0,-1.0,-1.0
1701718921.6748557,-2.0,0.0,0.0,-1.0,-2.0,1.0,-1.0,-1.0
1701718921.6748557,0.0,-2.0,-3.0,0.0,-2.0,-3.0,-2.0,-2.0
1701718921.704853,-3.0,-2.0,-2.0,-1.0,-3.0,-1.0,-2.0,-1.0
1701718921.704853,-1.0,-2.0,0.0,-1.0,-1.0,-1.0,2.0,-1.0
1701718921.704853,-1.0,-4.0,-1.0,-1.0,1.0,-1.0,-1.0,-1.0
1701718921.704853,-1.0,-1.0,0.0,-1.0,-1.0,0.0,-1.0,-1.0
1701718921.704853,0.0,-1.0,0.0,0.0,-2.0,-1.0,-1.0,-1.0
1701718921.704853,-1.0,-2.0,0.0,-1.0,-1.0,1.0,0.0,-1.0
1701718921.7150652,-1.0,0.0,-1.0,0.0,-3.0,-1.0,-1.0,0.0
1701718921.7150652,-2.0,-1.0,-1.0,0.0,-1.0,0.0,0.0,-2.0
1701718921.744849,1.0,0.0,-2.0,0.0,-2.0,-3.0,-1.0,0.0
1701718921.744849,0.0,-1.0,0.0,-1.0,0.0,-1.0,0.0,0.0
1701718921.744849,-2.0,0.0,-1.0,-2.0,1.0,0.0,-2.0,-1.0
1701718921.744849,-1.0,-3.0,-2.0,0.0,1.0,-1.0,-1.0,0.0
1701718921.744849,-2.0,-2.0,-1.0,0.0,-1.0,-2.0,-1.0,-2.0
1701718921.744849,-1.0,-2.0,0.0,-2.0,-1.0,-1.0,-2.0,-1.0
1701718921.7550452,0.0,-2.0,-2.0,0.0,-1.0,-1.0,0.0,0.0
1701718921.7550452,0.0,-1.0,-2.0,-1.0,-2.0,-1.0,0.0,-2.0
1701718921.7751598,-1.0,-2.0,0.0,-1.0,-1.0,-2.0,0.0,-2.0
1701718921.7751598,-1.0,0.0,-2.0,0.0,0.0,0.0,-1.0,-1.0
1701718921.7751598,0.0,-1.0,-1.0,-2.0,-1.0,-3.0,-1.0,0.0
1701718921.7751598,-2.0,0.0,-1.0,-3.0,0.0,-1.0,0.0,-1.0
1701718921.784928,-2.0,-1.0,-1.0,0.0,0.0,0.0,-1.0,0.0
1701718921.784928,-1.0,-1.0,-2.0,-1.0,-1.0,-1.0,-2.0,1.0
1701718921.8148503,0.0,-1.0,-1.0,0.0,0.0,1.0,-2.0,0.0
1701718921.8148503,0.0,0.0,1.0,-1.0,-2.0,-1.0,0.0,-1.0
1701718921.8148503,-2.0,-1.0,0.0,-4.0,-1.0,-1.0,-1.0,0.0
1701718921.8148503,-2.0,-3.0,-1.0,-2.0,-2.0,-1.0,-1.0,0.0
1701718921.8148503,-2.0,-1.0,-2.0,0.0,0.0,-3.0,-2.0,-3.0
1701718921.8148503,0.0,-1.0,-2.0,0.0,0.0,0.0,-1.0,-1.0
1701718921.8248522,-1.0,1.0,-2.0,-1.0,0.0,0.0,-2.0,0.0
1701718921.8248522,-1.0,-1.0,0.0,-1.0,-2.0,-2.0,-2.0,0.0
1701718921.839851,-2.0,-1.0,2.0,0.0,-2.0,0.0,0.0,0.0
1701718921.839851,-1.0,-1.0,-1.0,0.0,-1.0,-1.0,-1.0,-1.0
1701718921.8573418,0.0,-2.0,-2.0,-1.0,-1.0,0.0,2.0,0.0
1701718921.8573418,0.0,-2.0,-2.0,-1.0,-2.0,-2.0,-1.0,-2.0
1701718921.8573418,0.0,0.0,-3.0,-2.0,-2.0,-2.0,-2.0,-1.0
1701718921.8573418,-1.0,0.0,1.0,-1.0,-2.0,-1.0,-3.0,-1.0
1701718921.8773491,0.0,0.0,0.0,-1.0,0.0,0.0,-2.0,-1.0
1701718921.8773491,-3.0,0.0,0.0,1.0,-1.0,-4.0,-2.0,-1.0
1701718921.8773491,-1.0,-3.0,0.0,-1.0,-2.0,0.0,-1.0,-1.0
1701718921.8773491,-1.0,-2.0,-4.0,-2.0,-2.0,0.0,-1.0,-1.0
1701718921.88735,-3.0,-2.0,-1.0,0.0,-2.0,-1.0,-1.0,-1.0
1701718921.88735,0.0,-2.0,0.0,0.0,0.0,1.0,0.0,-4.0
1701718921.8973823,-2.0,-1.0,-1.0,-1.0,0.0,-1.0,-2.0,-2.0
1701718921.8973823,-1.0,-2.0,0.0,1.0,0.0,-2.0,1.0,1.0
1701718921.9173431,0.0,1.0,-1.0,2.0,0.0,0.0,-2.0,-2.0
1701718921.9173431,0.0,0.0,-1.0,-1.0,0.0,-1.0,1.0,0.0
1701718921.9173431,-2.0,0.0,-1.0,0.0,-1.0,-2.0,-2.0,0.0
1701718921.9173431,-2.0,-1.0,-1.0,0.0,-2.0,-2.0,-3.0,0.0
1701718921.9373472,1.0,0.0,-2.0,-2.0,0.0,-2.0,-2.0,-2.0
1701718921.9373472,-1.0,-1.0,0.0,-1.0,-1.0,0.0,0.0,-1.0
1701718921.9373472,-2.0,0.0,-3.0,-2.0,-3.0,-1.0,-1.0,0.0
1701718921.9373472,-1.0,-2.0,0.0,-1.0,-2.0,-1.0,-2.0,-3.0
1701718921.9474063,0.0,-1.0,-2.0,-3.0,-1.0,-2.0,0.0,-2.0
1701718921.9474063,-2.0,-1.0,-2.0,-2.0,-1.0,-3.0,-2.0,-2.0
1701718921.9574175,-1.0,0.0,0.0,-1.0,-1.0,1.0,0.0,1.0
1701718921.9574175,1.0,-1.0,-1.0,-1.0,1.0,-1.0,-1.0,-1.0
1701718921.967455,-3.0,-2.0,0.0,2.0,-1.0,-1.0,-3.0,0.0
1701718921.967455,0.0,-1.0,0.0,-1.0,-2.0,-1.0,-1.0,0.0
1701718921.97779,-1.0,0.0,0.0,-2.0,-2.0,-1.0,0.0,-4.0
1701718921.97779,0.0,-1.0,-2.0,0.0,-2.0,-1.0,0.0,-1.0
1701718921.9974203,1.0,-1.0,0.0,0.0,-2.0,-1.0,1.0,-1.0
1701718921.9974203,-1.0,-1.0,-2.0,0.0,-1.0,0.0,-1.0,0.0
1701718921.9974203,-1.0,-1.0,0.0,-1.0,-1.0,-1.0,-1.0,-2.0
1701718921.9974203,-1.0,-2.0,0.0,-1.0,0.0,0.0,0.0,-2.0
1701718922.0076659,-1.0,-1.0,-2.0,0.0,-1.0,0.0,-2.0,-2.0
1701718922.0076659,-2.0,-1.0,0.0,-1.0,-1.0,1.0,-1.0,-2.0
1701718922.0174181,0.0,-1.0,-2.0,-1.0,-2.0,-1.0,-2.0,-1.0
1701718922.0174181,-1.0,0.0,-2.0,-4.0,0.0,-2.0,-1.0,-1.0
1701718922.0274518,-2.0,-1.0,-1.0,-1.0,-3.0,-2.0,-2.0,-3.0
1701718922.0274518,-1.0,-2.0,-2.0,-1.0,0.0,0.0,-1.0,0.0
1701718922.037788,-2.0,0.0,-1.0,-1.0,-3.0,0.0,0.0,-1.0
1701718922.037788,-1.0,0.0,1.0,-1.0,0.0,-1.0,-4.0,-1.0
1701718922.0574236,0.0,0.0,1.0,-1.0,-1.0,-2.0,-3.0,-1.0
1701718922.0574236,2.0,2.0,-1.0,-2.0,-2.0,-1.0,0.0,0.0
1701718922.0574236,-2.0,-1.0,1.0,-1.0,1.0,-2.0,0.0,-1.0
1701718922.0574236,-3.0,-1.0,-1.0,0.0,-2.0,-1.0,-1.0,0.0
1701718922.0674186,0.0,-2.0,-3.0,-1.0,-2.0,-3.0,-1.0,0.0
1701718922.0674186,-1.0,0.0,-1.0,-1.0,-3.0,-1.0,0.0,0.0
1701718922.0774186,0.0,-2.0,-2.0,-1.0,-1.0,-1.0,-1.0,0.0
1701718922.0774186,0.0,0.0,-1.0,-2.0,-2.0,-1.0,-1.0,-2.0
1701718922.0876045,0.0,-1.0,-1.0,-2.0,0.0,-3.0,0.0,-1.0
1701718922.0876045,-1.0,-2.0,0.0,-2.0,-1.0,-1.0,-1.0,-2.0
1701718922.097422,-1.0,-1.0,0.0,2.0,2.0,1.0,0.0,-1.0
1701718922.097422,-3.0,-2.0,-1.0,0.0,-7.0,-2.0,0.0,-2.0
1701718922.1174176,-1.0,-2.0,-2.0,-2.0,0.0,-1.0,-1.0,-1.0
1701718922.1174176,-1.0,-1.0,0.0,1.0,5.0,2.0,-1.0,-3.0
1701718922.1174176,0.0,0.0,1.0,-2.0,1.0,2.0,0.0,-2.0
1701718922.1174176,0.0,0.0,-1.0,-1.0,3.0,2.0,1.0,0.0
1701718922.1274185,0.0,-2.0,-1.0,-2.0,-4.0,-3.0,-2.0,0.0
1701718922.1274185,-2.0,-2.0,-1.0,-3.0,-5.0,-5.0,-4.0,-2.0
1701718922.137421,0.0,-1.0,-2.0,0.0,-1.0,-2.0,-2.0,0.0
1701718922.137421,-2.0,-1.0,0.0,0.0,-1.0,-2.0,-1.0,-2.0
1701718922.1577268,-1.0,0.0,-2.0,-2.0,-2.0,0.0,-1.0,0.0
1701718922.1577268,-2.0,0.0,-1.0,-2.0,-1.0,-3.0,-1.0,-1.0
1701718922.1577268,-1.0,-2.0,-2.0,-1.0,-2.0,1.0,-1.0,-1.0
1701718922.1577268,-1.0,-1.0,-1.0,-1.0,-1.0,1.0,-3.0,-2.0
1701718922.177426,-3.0,0.0,-1.0,1.0,0.0,0.0,0.0,0.0
1701718922.177426,-2.0,-3.0,-2.0,0.0,-2.0,0.0,-1.0,-1.0
1701718922.177426,-1.0,0.0,-4.0,-1.0,-2.0,-4.0,-1.0,-1.0
1701718922.177426,-1.0,-3.0,-1.0,-1.0,-2.0,-2.0,-2.0,-1.0
1701718922.1874175,-1.0,0.0,0.0,0.0,1.0,0.0,0.0,0.0
1701718922.1874175,-1.0,-1.0,-2.0,-1.0,1.0,-2.0,1.0,0.0
1701718922.1976473,-1.0,-3.0,0.0,-1.0,-1.0,-1.0,-1.0,-1.0
1701718922.1976473,1.0,-1.0,0.0,-2.0,0.0,-2.0,-1.0,0.0
1701718922.2077107,-1.0,-1.0,-1.0,-3.0,-1.0,-2.0,0.0,-2.0
1701718922.2077107,-1.0,0.0,-2.0,0.0,-3.0,-3.0,-3.0,0.0
1701718922.2174249,-1.0,-1.0,-1.0,-3.0,-2.0,-2.0,-1.0,0.0
1701718922.2174249,-2.0,0.0,-2.0,-1.0,1.0,0.0,0.0,-2.0
1701718922.2374218,0.0,-2.0,1.0,-1.0,0.0,1.0,-1.0,-2.0
1701718922.2374218,-1.0,0.0,1.0,0.0,1.0,0.0,-1.0,0.0
1701718922.2374218,-1.0,-1.0,1.0,-1.0,-2.0,-2.0,0.0,0.0
1701718922.2374218,1.0,-2.0,1.0,0.0,-1.0,-1.0,-1.0,-2.0
1701718922.2574174,-2.0,-1.0,1.0,0.0,-1.0,0.0,2.0,-1.0
1701718922.2574174,0.0,-2.0,-1.0,0.0,-1.0,-1.0,-1.0,-2.0
1701718922.2574174,-2.0,-1.0,-2.0,-1.0,-1.0,-2.0,-2.0,-3.0
1701718922.2574174,-2.0,0.0,0.0,-1.0,1.0,1.0,-1.0,0.0
1701718922.2674177,-2.0,0.0,-1.0,0.0,-1.0,-1.0,-3.0,-2.0
1701718922.2674177,-1.0,0.0,0.0,0.0,-1.0,-1.0,1.0,-1.0
1701718922.2777781,1.0,-1.0,0.0,-2.0,-1.0,-2.0,0.0,0.0
1701718922.2777781,-1.0,0.0,0.0,1.0,0.0,-1.0,-2.0,0.0
1701718922.2875855,-1.0,-2.0,0.0,-4.0,-1.0,-2.0,-2.0,-1.0
1701718922.2974176,-2.0,0.0,-2.0,0.0,0.0,0.0,-2.0,-2.0
1701718922.2974176,-2.0,-1.0,0.0,-1.0,-1.0,-1.0,-2.0,-1.0
1701718922.2974176,-1.0,0.0,-2.0,-2.0,-2.0,0.0,0.0,-1.0
1701718922.3074517,-1.0,-1.0,1.0,-2.0,1.0,-1.0,0.0,0.0
1701718922.3074517,0.0,-1.0,-1.0,-1.0,0.0,0.0,1.0,0.0
1701718922.3178234,-2.0,-2.0,-1.0,0.0,-1.0,-3.0,-1.0,-2.0
1701718922.3178234,-1.0,-2.0,0.0,0.0,-1.0,1.0,-1.0,0.0
1701718922.3277922,-2.0,-3.0,-1.0,0.0,-2.0,-2.0,-1.0,-2.0
1701718922.3277922,-1.0,0.0,0.0,-4.0,-3.0,-2.0,-2.0,0.0
1701718922.3377798,0.0,-1.0,0.0,-1.0,0.0,0.0,-1.0,-1.0
1701718922.3377798,-2.0,1.0,1.0,0.0,-1.0,-2.0,0.0,1.0
1701718922.3574197,-1.0,0.0,-1.0,1.0,-2.0,1.0,-1.0,0.0
1701718922.3574197,-1.0,-2.0,-1.0,0.0,-1.0,-1.0,-1.0,0.0
1701718922.3574197,-1.0,-1.0,-1.0,-2.0,0.0,0.0,-3.0,-2.0
1701718922.3574197,-2.0,-1.0,-2.0,-2.0,-2.0,-3.0,-1.0,-2.0
1701718922.3713582,-1.0,-3.0,-2.0,0.0,-2.0,0.0,-1.0,0.0
1701718922.3713582,-1.0,-1.0,0.0,1.0,-1.0,0.0,0.0,1.0
1701718922.379862,1.0,1.0,-1.0,-1.0,0.0,0.0,0.0,0.0
1701718922.379862,0.0,-2.0,0.0,0.0,0.0,-1.0,0.0,-1.0
1701718922.390983,-1.0,-2.0,-1.0,-1.0,0.0,-1.0,-2.0,0.0
1701718922.390983,0.0,-2.0,-2.0,-2.0,-2.0,-2.0,-4.0,-1.0
1701718922.4009867,-1.0,-1.0,-3.0,1.0,-2.0,0.0,0.0,0.0
1701718922.4009867,-1.0,-1.0,-1.0,0.0,-1.0,-2.0,-1.0,-2.0
1701718922.4112942,-1.0,-1.0,-1.0,-1.0,0.0,-1.0,0.0,-1.0
1701718922.4112942,-2.0,0.0,1.0,0.0,0.0,0.0,0.0,-2.0
1701718922.4112942,-3.0,-1.0,0.0,-1.0,0.0,-3.0,-2.0,-2.0
1701718922.4112942,-1.0,-2.0,-1.0,-2.0,1.0,-1.0,-1.0,-1.0
1701718922.4310896,-1.0,0.0,-1.0,-1.0,-1.0,0.0,-1.0,0.0
1701718922.4310896,-3.0,0.0,-3.0,-2.0,-1.0,-1.0,-2.0,-1.0
1701718922.4310896,0.0,-1.0,1.0,0.0,-2.0,1.0,-1.0,-2.0
1701718922.4310896,-1.0,-1.0,0.0,1.0,0.0,0.0,-1.0,-1.0
1701718922.4514759,-1.0,0.0,0.0,-3.0,-2.0,-2.0,-1.0,0.0
1701718922.4514759,0.0,-2.0,-1.0,1.0,-1.0,-1.0,0.0,-2.0
1701718922.4613113,-1.0,0.0,-2.0,0.0,-3.0,-1.0,0.0,0.0
1701718922.4613113,0.0,-1.0,-3.0,-1.0,-3.0,-3.0,0.0,-1.0
1701718922.4810488,1.0,0.0,-2.0,-1.0,-2.0,-1.0,0.0,-2.0
1701718922.4810488,-1.0,0.0,-3.0,0.0,-1.0,-2.0,0.0,-3.0
1701718922.4810488,2.0,-2.0,-1.0,-1.0,1.0,-1.0,-2.0,0.0
1701718922.4810488,-2.0,-1.0,-2.0,1.0,-1.0,-2.0,0.0,-1.0
1701718922.4912677,-3.0,0.0,-3.0,-2.0,0.0,-2.0,-1.0,0.0
1701718922.4912677,-1.0,-1.0,-1.0,-2.0,-1.0,-1.0,-1.0,-1.0
1701718922.4912677,-2.0,-1.0,0.0,-2.0,1.0,-2.0,-2.0,-1.0
1701718922.4912677,0.0,0.0,-3.0,-2.0,-1.0,0.0,-2.0,-1.0
1701718922.5112724,0.0,-2.0,-1.0,0.0,-1.0,-2.0,-2.0,-1.0
1701718922.5112724,0.0,-1.0,0.0,-2.0,1.0,0.0,-1.0,-2.0
1701718922.521212,-2.0,0.0,-1.0,-1.0,-1.0,0.0,0.0,-3.0
1701718922.521212,-1.0,-2.0,-2.0,0.0,-2.0,-1.0,-1.0,1.0
1701718922.5410488,-1.0,0.0,0.0,0.0,0.0,-2.0,-1.0,-4.0
1701718922.5410488,-1.0,-2.0,-3.0,-1.0,-2.0,0.0,-2.0,0.0
1701718922.5410488,-1.0,0.0,-1.0,-2.0,-3.0,-3.0,-1.0,1.0
1701718922.5410488,-3.0,0.0,-1.0,-1.0,-2.0,-1.0,-1.0,-1.0
1701718922.5510838,-1.0,-1.0,-2.0,-2.0,-2.0,-1.0,-2.0,-1.0
1701718922.5510838,-2.0,-2.0,-1.0,0.0,-3.0,-3.0,-1.0,-1.0
1701718922.5510838,-1.0,-4.0,0.0,-1.0,0.0,-1.0,-1.0,-1.0
1701718922.5510838,-1.0,0.0,0.0,-2.0,-1.0,-2.0,-3.0,-2.0
1701718922.571348,-1.0,0.0,-2.0,0.0,-1.0,-1.0,0.0,-1.0
1701718922.571348,-1.0,1.0,-1.0,0.0,-2.0,-1.0,-2.0,-1.0
1701718922.5812325,-1.0,-2.0,-1.0,-1.0,0.0,1.0,-2.0,0.0
1701718922.5812325,0.0,-2.0,0.0,-1.0,-1.0,0.0,-1.0,0.0
1701718922.6010532,-1.0,0.0,0.0,0.0,0.0,-1.0,-1.0,-1.0
1701718922.6010532,-2.0,0.0,1.0,-1.0,-1.0,-2.0,0.0,-2.0
1701718922.6010532,-1.0,-2.0,-2.0,0.0,-1.0,-1.0,0.0,0.0
1701718922.6010532,-2.0,-1.0,-3.0,-2.0,1.0,-1.0,-2.0,-1.0
1701718922.6110811,-2.0,1.0,-2.0,-1.0,-1.0,-1.0,1.0,-1.0
1701718922.6110811,-1.0,-5.0,-2.0,1.0,-1.0,-3.0,-1.0,-2.0
1701718922.6110811,-1.0,0.0,-1.0,-2.0,-1.0,-1.0,-1.0,-1.0
1701718922.6110811,-2.0,-1.0,-2.0,-1.0,-1.0,-1.0,0.0,0.0
1701718922.6310487,-1.0,0.0,-1.0,0.0,-3.0,0.0,-1.0,-2.0
1701718922.6310487,-1.0,-1.0,0.0,-2.0,-1.0,0.0,-1.0,-1.0
1701718922.6410813,-2.0,2.0,1.0,0.0,0.0,0.0,1.0,-1.0
1701718922.6410813,0.0,-1.0,-1.0,-2.0,-2.0,-2.0,-1.0,1.0
1701718922.6513467,-1.0,-1.0,0.0,1.0,1.0,2.0,-1.0,-1.0
1701718922.6513467,-1.0,-1.0,-4.0,-1.0,-2.0,0.0,0.0,-2.0
1701718922.6613877,0.0,4.0,4.0,-1.0,0.0,-1.0,-1.0,-1.0
1701718922.6613877,-1.0,1.0,-2.0,0.0,-2.0,0.0,0.0,-2.0
1701718922.6714194,0.0,-5.0,4.0,-3.0,-2.0,-1.0,0.0,2.0
1701718922.6714194,0.0,-3.0,-8.0,1.0,-1.0,-3.0,-1.0,-2.0
1701718922.6714194,-3.0,-1.0,-1.0,0.0,-3.0,-2.0,-1.0,-1.0
1701718922.6714194,-2.0,-3.0,-8.0,-2.0,-2.0,0.0,-2.0,-2.0
1701718922.6910496,-1.0,2.0,0.0,-1.0,-2.0,-2.0,-1.0,-1.0
1701718922.6910496,-2.0,-1.0,2.0,-1.0,-1.0,0.0,0.0,1.0
1701718922.7010937,-1.0,-1.0,-2.0,-2.0,-1.0,-2.0,-2.0,-2.0
1701718922.7010937,-2.0,-1.0,0.0,-1.0,0.0,-1.0,1.0,0.0
1701718922.7114553,0.0,-1.0,-3.0,-2.0,-1.0,-1.0,-2.0,-1.0
1701718922.7114553,-2.0,-1.0,-2.0,-2.0,-1.0,-1.0,-1.0,0.0
1701718922.721391,-1.0,0.0,-3.0,1.0,-1.0,-1.0,-1.0,0.0
1701718922.721391,-3.0,-1.0,1.0,-1.0,-3.0,0.0,-1.0,-2.0
1701718922.7314136,1.0,-2.0,-3.0,0.0,1.0,-2.0,-2.0,-2.0
1701718922.7314136,-1.0,1.0,1.0,0.0,-1.0,-1.0,-3.0,0.0
1701718922.7314136,1.0,-3.0,-3.0,-1.0,-2.0,1.0,1.0,0.0
1701718922.7314136,1.0,-1.0,0.0,1.0,-2.0,-3.0,0.0,-2.0
1701718922.7510526,-2.0,-2.0,-7.0,0.0,0.0,-2.0,-3.0,-2.0
1701718922.7510526,0.0,2.0,5.0,-2.0,-2.0,-2.0,-1.0,0.0
1701718922.7610807,-1.0,-3.0,-1.0,-3.0,0.0,0.0,-2.0,-2.0
1701718922.7610807,0.0,-2.0,0.0,-1.0,-1.0,-2.0,-2.0,0.0
1701718922.7714353,0.0,-2.0,0.0,0.0,0.0,-2.0,-3.0,-2.0
1701718922.7714353,-1.0,-2.0,-2.0,-1.0,0.0,-2.0,-2.0,-1.0
1701718922.7813926,-3.0,-2.0,-3.0,-1.0,-2.0,-1.0,-2.0,0.0
1701718922.7813926,-1.0,-1.0,0.0,-1.0,-1.0,-1.0,-1.0,-1.0
1701718922.7913024,-2.0,-2.0,0.0,-2.0,1.0,0.0,0.0,-1.0
1701718922.7913024,-1.0,-2.0,-2.0,-1.0,-1.0,1.0,-1.0,-2.0
1701718922.7913024,0.0,-2.0,-1.0,0.0,-2.0,-1.0,0.0,0.0
1701718922.7913024,0.0,1.0,0.0,0.0,-1.0,-1.0,-2.0,0.0
1701718922.8110478,-1.0,0.0,-3.0,0.0,-3.0,-1.0,0.0,0.0
1701718922.8110478,-1.0,-2.0,0.0,-1.0,0.0,-3.0,-2.0,0.0
1701718922.821401,-1.0,-1.0,-3.0,-2.0,0.0,-1.0,0.0,-2.0
1701718922.821401,1.0,1.0,-2.0,-1.0,-1.0,0.0,0.0,-1.0
1701718922.831052,-2.0,0.0,0.0,-1.0,-2.0,-1.0,0.0,-2.0
1701718922.831052,-4.0,1.0,-1.0,0.0,0.0,-1.0,1.0,0.0
1701718922.8410494,0.0,-1.0,-2.0,-2.0,-1.0,-2.0,0.0,-2.0
1701718922.8410494,-1.0,-1.0,-1.0,-1.0,-1.0,0.0,-1.0,0.0
1701718922.8610473,0.0,-2.0,-1.0,0.0,-2.0,-2.0,-2.0,0.0
1701718922.8610473,0.0,0.0,-1.0,-1.0,-2.0,0.0,1.0,1.0
1701718922.8610473,-1.0,-1.0,-2.0,0.0,-2.0,-2.0,-1.0,-2.0
1701718922.8610473,0.0,0.0,1.0,-2.0,-1.0,-2.0,-1.0,-2.0
1701718922.8712866,-1.0,0.0,-1.0,0.0,0.0,-1.0,0.0,1.0
1701718922.8712866,0.0,-3.0,-1.0,-1.0,-2.0,0.0,-1.0,-1.0
1701718922.8812962,1.0,-3.0,-2.0,-2.0,-1.0,-1.0,0.0,-1.0
1701718922.8812962,-1.0,-1.0,-1.0,-1.0,-1.0,-1.0,-2.0,-1.0
1701718922.8913357,-3.0,-1.0,-1.0,-2.0,-2.0,-1.0,-2.0,-2.0
1701718922.8913357,1.0,-1.0,-1.0,-1.0,-1.0,-1.0,0.0,-1.0
1701718922.9041364,-3.0,1.0,1.0,-1.0,-1.0,0.0,-2.0,-1.0
1701718922.9049604,-1.0,-1.0,-1.0,0.0,0.0,-2.0,0.0,0.0
1701718922.923056,0.0,-1.0,0.0,-2.0,-1.0,-2.0,-1.0,-1.0
1701718922.923056,0.0,-1.0,-1.0,-2.0,-1.0,1.0,-1.0,-1.0
1701718922.923056,-2.0,-2.0,-1.0,-2.0,-2.0,-2.0,-1.0,-2.0
1701718922.923056,-1.0,-3.0,-1.0,0.0,1.0,-1.0,0.0,-1.0
1701718922.9332485,0.0,1.0,-1.0,-1.0,-1.0,-1.0,-1.0,0.0
1701718922.9332485,-1.0,-2.0,-2.0,-2.0,-1.0,-2.0,-1.0,-1.0
1701718922.9431179,-2.0,-1.0,-1.0,0.0,-1.0,0.0,-1.0,-1.0
1701718922.9431179,-2.0,-1.0,0.0,0.0,-1.0,2.0,-1.0,0.0
1701718922.953357,-1.0,-2.0,-3.0,-2.0,-1.0,0.0,-2.0,-2.0
1701718922.953357,-2.0,-1.0,-1.0,-2.0,0.0,-1.0,-1.0,-2.0
1701718922.9633124,2.0,0.0,-2.0,0.0,0.0,-2.0,-2.0,0.0
1701718922.9633124,-1.0,-2.0,-2.0,-1.0,-2.0,-2.0,-1.0,-2.0
1701718922.9930584,-2.0,-3.0,-1.0,0.0,0.0,2.0,0.0,0.0
1701718922.9930584,-2.0,1.0,-1.0,-3.0,-1.0,0.0,0.0,-1.0
1701718922.9930584,-1.0,-2.0,-2.0,-1.0,0.0,-2.0,-1.0,-2.0
1701718922.9930584,1.0,-1.0,0.0,-1.0,-1.0,-2.0,0.0,-1.0
1701718922.9930584,-1.0,-1.0,1.0,-2.0,-1.0,0.0,-1.0,-2.0
1701718922.9930584,-2.0,0.0,-2.0,-1.0,-1.0,1.0,-2.0,-2.0
1701718922.9930584,-2.0,0.0,0.0,-3.0,0.0,-1.0,1.0,-1.0
1701718922.9930584,-1.0,0.0,-1.0,-2.0,-1.0,-1.0,-2.0,-1.0
1701718923.0130591,-1.0,-2.0,-1.0,-2.0,-1.0,-1.0,-2.0,-3.0
1701718923.0130591,-2.0,-1.0,-1.0,-1.0,-2.0,-3.0,0.0,-1.0
1701718923.0230594,-1.0,-1.0,-1.0,-2.0,-1.0,0.0,0.0,-2.0
1701718923.0230594,-1.0,-1.0,-1.0,-1.0,1.0,-1.0,-2.0,-1.0
1701718923.033068,-2.0,-1.0,0.0,1.0,-2.0,-2.0,-1.0,-1.0
1701718923.033068,-1.0,-1.0,1.0,1.0,0.0,-1.0,-1.0,-1.0
1701718923.033068,1.0,-2.0,-1.0,-5.0,-1.0,-1.0,-1.0,-1.0
1701718923.033068,0.0,-1.0,1.0,0.0,-2.0,-1.0,-1.0,0.0
1701718923.053443,-1.0,-1.0,0.0,-1.0,-2.0,0.0,1.0,1.0
1701718923.053443,0.0,-3.0,-1.0,0.0,0.0,1.0,-2.0,-1.0
1701718923.053443,-1.0,-1.0,-1.0,1.0,-1.0,0.0,-1.0,-2.0
1701718923.053443,0.0,-2.0,-2.0,-2.0,0.0,2.0,-3.0,-1.0
1701718923.0730636,1.0,0.0,-1.0,0.0,-1.0,-3.0,-1.0,-3.0
1701718923.0730636,0.0,0.0,1.0,1.0,0.0,-2.0,-2.0,-1.0
1701718923.0830603,-2.0,-1.0,-2.0,0.0,-1.0,0.0,-3.0,0.0
1701718923.0830603,-3.0,0.0,-2.0,-1.0,0.0,-1.0,0.0,-1.0
1701718923.0930612,-1.0,-1.0,-2.0,-1.0,-1.0,0.0,-2.0,0.0
1701718923.0930612,1.0,0.0,0.0,-2.0,-1.0,-1.0,0.0,-1.0
1701718923.0930612,-1.0,2.0,1.0,1.0,-1.0,-2.0,-1.0,0.0
1701718923.0930612,0.0,-1.0,0.0,-1.0,0.0,-3.0,-1.0,1.0
1701718923.1130915,0.0,-2.0,-2.0,-1.0,-1.0,1.0,-1.0,0.0
1701718923.1130915,-2.0,-3.0,-2.0,-2.0,0.0,-1.0,-1.0,0.0
1701718923.1130915,-2.0,-1.0,-1.0,1.0,-1.0,-2.0,-1.0,-1.0
1701718923.1130915,0.0,-1.0,-2.0,0.0,-2.0,1.0,-1.0,-1.0
1701718923.1331248,-3.0,-2.0,0.0,-2.0,0.0,-2.0,0.0,-2.0
1701718923.1331248,1.0,-2.0,-1.0,0.0,-2.0,-1.0,-2.0,-1.0
1701718923.1431358,-2.0,0.0,1.0,0.0,-1.0,-1.0,-1.0,-2.0
1701718923.1431358,-2.0,0.0,-1.0,0.0,-1.0,0.0,-1.0,-1.0
1701718923.1535025,0.0,-1.0,-2.0,-2.0,-1.0,-2.0,-1.0,-1.0
1701718923.1535025,-3.0,-2.0,-1.0,-2.0,-1.0,-1.0,0.0,0.0
1701718923.1535025,1.0,0.0,-1.0,-1.0,1.0,-1.0,0.0,1.0
1701718923.1535025,-1.0,-2.0,0.0,-2.0,-2.0,-4.0,-1.0,-3.0
1701718923.1735315,-2.0,1.0,0.0,0.0,0.0,1.0,0.0,-2.0
1701718923.1735315,0.0,0.0,-3.0,-1.0,-2.0,-1.0,-1.0,-2.0
1701718923.1735315,0.0,-1.0,0.0,-1.0,0.0,0.0,-2.0,0.0
1701718923.1735315,-1.0,-2.0,0.0,-1.0,-1.0,-1.0,-1.0,-1.0
1701718923.193137,0.0,-1.0,-2.0,-1.0,-2.0,-1.0,-2.0,-1.0
1701718923.193137,-1.0,-2.0,1.0,0.0,-1.0,1.0,-2.0,0.0
1701718923.2031693,-1.0,-1.0,-2.0,1.0,1.0,-1.0,-2.0,-1.0
1701718923.2031693,-1.0,-1.0,0.0,-1.0,-1.0,0.0,0.0,0.0
1701718923.213431,-2.0,-2.0,-2.0,-2.0,-1.0,-3.0,-2.0,0.0
1701718923.213431,-1.0,-1.0,0.0,-1.0,-2.0,-1.0,-1.0,0.0
1701718923.213431,0.0,-3.0,-1.0,-1.0,-3.0,-2.0,-2.0,0.0
1701718923.213431,-2.0,-1.0,-1.0,-1.0,-1.0,-1.0,-1.0,-2.0
1701718923.2334356,-1.0,1.0,-1.0,0.0,0.0,-1.0,1.0,-1.0
1701718923.2334356,-1.0,-1.0,-2.0,-2.0,0.0,-3.0,0.0,-1.0
1701718923.2431421,-1.0,-2.0,-1.0,-2.0,0.0,0.0,0.0,-1.0
1701718923.2431421,0.0,-1.0,-1.0,-3.0,-1.0,-1.0,-1.0,-2.0
1701718923.2631342,-1.0,-2.0,-1.0,0.0,-1.0,-2.0,-1.0,-2.0
1701718923.2631342,0.0,0.0,0.0,-1.0,-2.0,-1.0,0.0,-1.0
1701718923.2631342,-1.0,-3.0,0.0,-3.0,-2.0,-1.0,1.0,-3.0
1701718923.2631342,-1.0,-1.0,-2.0,-1.0,-1.0,-1.0,-1.0,0.0
1701718923.2735393,-1.0,-1.0,0.0,-4.0,-1.0,-1.0,-2.0,-1.0
1701718923.2735393,-2.0,0.0,-2.0,-1.0,-1.0,-1.0,0.0,0.0
1701718923.2735393,-1.0,0.0,-2.0,-2.0,-2.0,0.0,-3.0,-1.0
1701718923.2735393,-2.0,-1.0,-2.0,0.0,-2.0,0.0,-1.0,1.0
1701718923.2933335,-1.0,-2.0,0.0,0.0,0.0,-2.0,-2.0,-1.0
1701718923.2933335,-2.0,-1.0,0.0,-1.0,0.0,-1.0,-2.0,-1.0
1701718923.303139,-1.0,-1.0,-1.0,0.0,-2.0,-1.0,-1.0,0.0
1701718923.303139,0.0,-2.0,-1.0,-1.0,-3.0,-1.0,-1.0,-1.0
1701718923.3131926,-1.0,-1.0,-2.0,-2.0,-2.0,-1.0,-1.0,-1.0
1701718923.3131926,-2.0,-1.0,-1.0,-2.0,-1.0,-1.0,-1.0,-1.0
1701718923.3234427,-1.0,-2.0,0.0,1.0,2.0,1.0,3.0,0.0
1701718923.3234427,-2.0,1.0,0.0,-2.0,0.0,-1.0,0.0,-1.0
1701718923.33344,-2.0,1.0,-1.0,-2.0,-2.0,-1.0,0.0,-2.0
1701718923.33344,-2.0,-1.0,-2.0,-1.0,-1.0,-2.0,-2.0,0.0
1701718923.3431425,-3.0,0.0,-1.0,-1.0,-2.0,-1.0,-2.0,0.0
1701718923.3431425,-2.0,-2.0,-1.0,-1.0,0.0,-2.0,0.0,-1.0
1701718923.3533697,1.0,-1.0,1.0,-1.0,-2.0,0.0,-1.0,0.0
1701718923.3533697,-1.0,-1.0,-3.0,-1.0,0.0,0.0,1.0,-1.0
1701718923.383135,-2.0,-1.0,-1.0,0.0,-1.0,-1.0,-2.0,-3.0
1701718923.383135,0.0,-1.0,-1.0,1.0,0.0,-2.0,0.0,-1.0
1701718923.383135,-2.0,-2.0,0.0,-1.0,-2.0,-1.0,0.0,-2.0
1701718923.383135,0.0,-2.0,-2.0,-2.0,-2.0,0.0,-1.0,-1.0
1701718923.383135,0.0,-3.0,-3.0,-2.0,-4.0,-5.0,-3.0,-2.0
1701718923.383135,1.0,-3.0,0.0,1.0,0.0,0.0,-1.0,-1.0
1701718923.3935447,-2.0,-2.0,-1.0,2.0,1.0,1.0,2.0,0.0
1701718923.3935447,0.0,0.0,-1.0,0.0,1.0,0.0,0.0,0.0
1701718923.4031725,-1.0,-1.0,-3.0,-3.0,-2.0,-1.0,0.0,-1.0
1701718923.4031725,-1.0,0.0,-2.0,-3.0,-2.0,-2.0,-2.0,-1.0
1701718923.4134293,-1.0,-1.0,-3.0,-1.0,-3.0,-1.0,-2.0,-1.0
1701718923.4134293,-1.0,0.0,0.0,0.0,0.0,-1.0,-1.0,-2.0
1701718923.4231372,0.0,-1.0,0.0,-2.0,-1.0,-1.0,-1.0,-2.0
1701718923.4231372,-2.0,-1.0,-1.0,-1.0,-1.0,-1.0,1.0,1.0
1701718923.4365075,-1.0,-2.0,-2.0,0.0,-1.0,-1.0,-1.0,1.0
1701718923.4372122,-2.0,0.0,-1.0,-1.0,-4.0,-2.0,-3.0,-1.0
1701718923.444899,-2.0,0.0,-1.0,0.0,1.0,-1.0,1.0,0.0
1701718923.444899,-2.0,-3.0,-2.0,0.0,-1.0,0.0,-1.0,-1.0
1701718923.4562314,-2.0,-1.0,0.0,-2.0,-3.0,-1.0,1.0,0.0
1701718923.4562314,-1.0,-2.0,0.0,-1.0,0.0,-1.0,-1.0,-3.0
1701718923.4662356,-2.0,0.0,-2.0,-1.0,-2.0,-3.0,0.0,-1.0
1701718923.4662356,0.0,-1.0,-2.0,-3.0,-2.0,1.0,-2.0,-1.0
1701718923.4762337,-3.0,-1.0,0.0,-1.0,0.0,-2.0,-2.0,-1.0
1701718923.4762337,-2.0,-1.0,-2.0,-1.0,0.0,-1.0,0.0,0.0
1701718923.4762337,0.0,0.0,0.0,-1.0,0.0,0.0,0.0,0.0
1701718923.4762337,0.0,-1.0,-3.0,0.0,-2.0,-3.0,0.0,-2.0
1701718923.506239,-2.0,-1.0,0.0,-2.0,-1.0,-1.0,-2.0,-1.0
1701718923.506239,0.0,-2.0,-1.0,-1.0,-2.0,0.0,-1.0,-2.0
1701718923.506239,-1.0,-2.0,1.0,0.0,-1.0,-1.0,-2.0,1.0
1701718923.506239,-2.0,1.0,-2.0,-2.0,1.0,-2.0,-1.0,0.0
1701718923.5165625,0.0,-1.0,-4.0,-1.0,0.0,-3.0,0.0,-1.0
1701718923.5165625,0.0,-3.0,0.0,-1.0,0.0,-1.0,-1.0,-1.0
1701718923.5265312,-1.0,-1.0,-2.0,-1.0,-1.0,1.0,-2.0,-2.0
1701718923.5265312,-2.0,-3.0,0.0,-1.0,-3.0,0.0,-1.0,-1.0
1701718923.5265312,-2.0,0.0,0.0,2.0,-1.0,-1.0,-2.0,-1.0
1701718923.5265312,0.0,-1.0,-3.0,-2.0,0.0,-1.0,0.0,0.0
1701718923.5364742,0.0,0.0,-1.0,-1.0,-1.0,-1.0,0.0,0.0
1701718923.5364742,0.0,-1.0,0.0,-1.0,-1.0,-2.0,-1.0,-2.0
1701718923.556243,1.0,-1.0,-1.0,0.0,-1.0,0.0,-2.0,-3.0
1701718923.556243,-3.0,-1.0,0.0,0.0,-1.0,0.0,-2.0,-1.0
1701718923.5762336,1.0,-2.0,-1.0,0.0,0.0,-1.0,-1.0,-2.0
1701718923.5762336,-3.0,0.0,0.0,-1.0,-1.0,-1.0,-1.0,-1.0
1701718923.5762336,-1.0,-1.0,-2.0,-2.0,-1.0,0.0,-1.0,-1.0
1701718923.5762336,0.0,-1.0,-2.0,0.0,-1.0,-3.0,0.0,-2.0
1701718923.596234,0.0,0.0,1.0,-3.0,-2.0,-1.0,0.0,-2.0
1701718923.596234,0.0,-2.0,0.0,1.0,-1.0,-1.0,-2.0,0.0
1701718923.596234,0.0,0.0,-1.0,-2.0,-2.0,-2.0,0.0,-2.0
1701718923.596234,0.0,-1.0,-1.0,-2.0,-1.0,-1.0,-1.0,1.0
1701718923.596234,-1.0,-3.0,-2.0,-2.0,1.0,-3.0,-1.0,-4.0
1701718923.596234,1.0,1.0,-1.0,0.0,0.0,0.0,0.0,-1.0
1701718923.6166856,0.0,-2.0,0.0,-3.0,0.0,-2.0,-1.0,-1.0
1701718923.6166856,0.0,-1.0,-1.0,-2.0,-1.0,0.0,-3.0,-1.0
1701718923.6166856,-1.0,-2.0,-2.0,-2.0,0.0,0.0,-2.0,-1.0
1701718923.6166856,0.0,-1.0,-2.0,0.0,-1.0,-2.0,-2.0,-2.0
1701718923.6362364,-2.0,0.0,-1.0,-1.0,-1.0,0.0,-2.0,-1.0
1701718923.6362364,-2.0,1.0,-1.0,2.0,-1.0,-1.0,0.0,-2.0
1701718923.646268,-1.0,-2.0,0.0,-1.0,-1.0,0.0,-1.0,0.0
1701718923.646268,-2.0,0.0,-1.0,-2.0,-2.0,-1.0,-1.0,-1.0
1701718923.646268,-3.0,-2.0,1.0,1.0,0.0,0.0,-2.0,0.0
1701718923.646268,-2.0,-5.0,-2.0,-2.0,-1.0,-1.0,-1.0,-1.0
1701718923.6662383,-1.0,-1.0,-2.0,-1.0,1.0,-2.0,0.0,0.0
1701718923.6662383,-1.0,-2.0,-2.0,-2.0,-2.0,-2.0,1.0,0.0
1701718923.6862388,1.0,0.0,0.0,-2.0,-1.0,-2.0,0.0,-2.0
1701718923.6862388,-2.0,0.0,1.0,-1.0,0.0,1.0,-1.0,-1.0
1701718923.6862388,-1.0,-4.0,-1.0,0.0,-1.0,0.0,-2.0,0.0
1701718923.6862388,0.0,0.0,-1.0,-3.0,-1.0,-1.0,-2.0,-1.0
1701718923.6965609,-2.0,-1.0,-2.0,-1.0,0.0,0.0,-1.0,-1.0
1701718923.6965609,-2.0,-2.0,0.0,-1.0,0.0,-2.0,0.0,0.0
1701718923.7262363,1.0,1.0,0.0,0.0,-1.0,0.0,-1.0,-1.0
1701718923.7262363,-1.0,0.0,-3.0,-1.0,-1.0,0.0,-2.0,-1.0
1701718923.7262363,-1.0,-3.0,-3.0,-1.0,-1.0,0.0,0.0,0.0
1701718923.7262363,-1.0,-1.0,-1.0,-1.0,-2.0,-2.0,-1.0,-1.0
1701718923.7262363,-2.0,-2.0,-3.0,0.0,-2.0,-4.0,0.0,-1.0
1701718923.7262363,-1.0,3.0,3.0,-2.0,-1.0,-1.0,-2.0,-2.0
1701718923.7364714,-1.0,-1.0,-3.0,0.0,-1.0,-1.0,0.0,-2.0
1701718923.7364714,-2.0,-2.0,-4.0,0.0,-2.0,-1.0,0.0,-4.0
1701718923.7462382,0.0,0.0,0.0,-2.0,-1.0,0.0,-2.0,-1.0
1701718923.7462382,0.0,3.0,17.0,1.0,0.0,-1.0,0.0,-2.0
1701718923.7662337,-3.0,-9.0,-14.0,-4.0,-3.0,-6.0,-2.0,-2.0
1701718923.7662337,-2.0,-1.0,-9.0,-9.0,-6.0,-2.0,0.0,0.0
1701718923.7762394,-1.0,8.0,1.0,4.0,6.0,0.0,0.0,-2.0
1701718923.7762394,-2.0,-6.0,-5.0,0.0,0.0,-1.0,0.0,0.0
1701718923.7762394,-2.0,2.0,4.0,0.0,1.0,-1.0,0.0,-1.0
1701718923.7762394,-2.0,5.0,14.0,-3.0,-4.0,0.0,-1.0,-1.0
1701718923.7762394,-2.0,-9.0,-12.0,-3.0,-11.0,-3.0,-2.0,-1.0
1701718923.7762394,-2.0,6.0,5.0,-2.0,1.0,1.0,0.0,-2.0
1701718923.796603,-1.0,-3.0,3.0,6.0,9.0,2.0,2.0,1.0
1701718923.796603,-3.0,-6.0,-10.0,-1.0,-1.0,-2.0,0.0,-1.0
1701718923.8062387,-2.0,-2.0,8.0,-5.0,-3.0,-1.0,0.0,0.0
1701718923.8062387,1.0,5.0,-1.0,-1.0,0.0,-1.0,0.0,-1.0
1701718923.826234,2.0,9.0,2.0,-3.0,-7.0,-2.0,-1.0,-2.0
1701718923.826234,-1.0,-5.0,-4.0,-2.0,0.0,0.0,-1.0,-1.0
1701718923.826234,-4.0,-1.0,-3.0,-2.0,-1.0,0.0,0.0,-2.0
1701718923.826234,-2.0,-8.0,-7.0,-1.0,-2.0,-1.0,-2.0,-1.0
1701718923.8362677,-2.0,-2.0,-3.0,-4.0,-2.0,-1.0,-3.0,-1.0
1701718923.8362677,3.0,2.0,3.0,1.0,2.0,-1.0,-1.0,0.0
1701718923.8362677,0.0,0.0,0.0,-1.0,-1.0,0.0,-1.0,0.0
1701718923.8362677,-2.0,-2.0,-1.0,1.0,-2.0,0.0,-2.0,-1.0
1701718923.8564026,-1.0,0.0,-2.0,-3.0,-2.0,1.0,-2.0,0.0
1701718923.8564026,-2.0,-3.0,-1.0,0.0,-2.0,-1.0,0.0,-2.0
1701718923.8662355,0.0,1.0,2.0,-1.0,-1.0,1.0,-2.0,-1.0
1701718923.8662355,0.0,-4.0,-1.0,-2.0,-1.0,-1.0,1.0,-1.0
1701718923.8766408,0.0,-3.0,-3.0,0.0,-1.0,-2.0,-3.0,-1.0
1701718923.8766408,-1.0,-2.0,-2.0,1.0,-1.0,-2.0,-2.0,-1.0
1701718923.8866534,-1.0,-1.0,2.0,1.0,2.0,-1.0,0.0,-2.0
1701718923.8866534,-1.0,-3.0,-3.0,-1.0,0.0,-1.0,-2.0,-1.0
1701718923.8966684,-1.0,-1.0,2.0,-1.0,-3.0,-2.0,0.0,-1.0
1701718923.8966684,-1.0,-2.0,-2.0,0.0,0.0,-1.0,0.0,-1.0
1701718923.8966684,0.0,0.0,1.0,-1.0,0.0,-1.0,-2.0,-1.0
1701718923.8966684,0.0,-1.0,-5.0,-1.0,-3.0,-1.0,-1.0,-1.0
1701718923.9162915,0.0,0.0,0.0,-1.0,-1.0,0.0,-1.0,-2.0
1701718923.9162915,-2.0,-5.0,-1.0,0.0,2.0,0.0,-2.0,-1.0
1701718923.926234,-2.0,-2.0,-4.0,-2.0,0.0,-2.0,-1.0,0.0
1701718923.926234,-2.0,3.0,0.0,0.0,-1.0,-2.0,1.0,0.0
1701718923.9365096,-2.0,-11.0,-1.0,-3.0,-3.0,-2.0,-3.0,-1.0
1701718923.9365096,0.0,2.0,0.0,0.0,-2.0,-1.0,-2.0,-1.0
1701718923.9465444,0.0,3.0,-2.0,-1.0,0.0,1.0,1.0,1.0
1701718923.9465444,-1.0,-1.0,-2.0,-2.0,0.0,-1.0,-2.0,-2.0
1701718923.9629452,-2.0,2.0,-1.0,0.0,-2.0,0.0,0.0,-2.0
1701718923.9629452,2.0,1.0,1.0,0.0,0.0,-1.0,-1.0,1.0
1701718923.9749367,0.0,-4.0,-1.0,-1.0,-1.0,-1.0,-2.0,-2.0
1701718923.9749367,-1.0,-1.0,-5.0,-1.0,-1.0,-2.0,-1.0,0.0
1701718923.9799378,0.0,0.0,-2.0,-1.0,-4.0,-2.0,0.0,-1.0
1701718923.9799378,-1.0,0.0,-1.0,-2.0,-1.0,-1.0,0.0,-2.0
1701718923.985453,-2.0,-2.0,-1.0,0.0,0.0,-2.0,-2.0,-3.0
1701718923.985453,-1.0,-4.0,-3.0,0.0,-2.0,-3.0,0.0,-2.0
1701718923.9991822,-1.0,-3.0,-1.0,-3.0,-1.0,-1.0,-1.0,-2.0
1701718923.9991822,1.0,2.0,-1.0,-2.0,0.0,-1.0,-1.0,-1.0
1701718923.9991822,1.0,-1.0,0.0,0.0,-1.0,-1.0,-1.0,-1.0
1701718923.9991822,-2.0,-4.0,-2.0,-1.0,-2.0,-1.0,-2.0,-3.0
1701718924.0195084,-2.0,0.0,-1.0,-1.0,0.0,0.0,0.0,1.0
1701718924.0195084,-2.0,0.0,-2.0,-1.0,-2.0,-1.0,-2.0,0.0
1701718924.0291584,-1.0,-2.0,-4.0,-1.0,-1.0,1.0,-2.0,0.0
1701718924.0291584,-1.0,0.0,-1.0,0.0,-2.0,-1.0,-1.0,-1.0
1701718924.0291584,0.0,1.0,0.0,0.0,0.0,0.0,0.0,-1.0
1701718924.0291584,0.0,0.0,-1.0,0.0,-2.0,-2.0,-1.0,-2.0
1701718924.049099,-1.0,-1.0,-2.0,-2.0,-1.0,-1.0,1.0,-1.0
1701718924.049099,-1.0,2.0,0.0,-1.0,-1.0,-1.0,-1.0,-1.0
1701718924.059169,-1.0,-4.0,-6.0,0.0,-1.0,-3.0,-2.0,-1.0
1701718924.059169,-1.0,3.0,4.0,0.0,-1.0,-1.0,0.0,0.0
1701718924.059169,-1.0,1.0,-3.0,0.0,-1.0,-1.0,-1.0,0.0
1701718924.059169,-1.0,-5.0,-1.0,-3.0,0.0,-1.0,0.0,1.0
1701718924.0793269,1.0,1.0,-2.0,0.0,-1.0,-2.0,-2.0,0.0
1701718924.0793269,1.0,-1.0,1.0,0.0,0.0,-2.0,-1.0,0.0
1701718924.0891001,-1.0,-1.0,1.0,0.0,-2.0,-1.0,-1.0,-2.0
1701718924.0891001,0.0,1.0,-2.0,-2.0,0.0,-2.0,-1.0,-2.0
1701718924.0891001,0.0,-1.0,-1.0,-2.0,0.0,-1.0,1.0,1.0
1701718924.0891001,-3.0,-2.0,-1.0,-1.0,-2.0,-1.0,1.0,-2.0
1701718924.0994132,0.0,1.0,3.0,0.0,-2.0,-1.0,-2.0,-2.0
1701718924.0994132,-2.0,1.0,-3.0,-1.0,-2.0,-1.0,-1.0,-2.0
1701718924.1195064,-1.0,1.0,1.0,-1.0,0.0,-2.0,1.0,0.0
1701718924.1195064,0.0,4.0,-1.0,-2.0,0.0,0.0,0.0,-1.0
1701718924.1195064,0.0,0.0,-2.0,-1.0,0.0,-1.0,1.0,0.0
1701718924.1195064,-1.0,-1.0,-3.0,-2.0,-3.0,-1.0,-1.0,0.0
1701718924.1397462,-1.0,0.0,0.0,-2.0,-2.0,-1.0,-2.0,-1.0
1701718924.1397462,-2.0,-2.0,-2.0,-2.0,-2.0,-2.0,0.0,0.0
1701718924.1498861,-2.0,-3.0,-2.0,0.0,-2.0,-2.0,0.0,-2.0
1701718924.1498861,0.0,-3.0,-2.0,1.0,1.0,-1.0,-3.0,-3.0
1701718924.159509,-2.0,-2.0,-1.0,1.0,0.0,1.0,-2.0,-1.0
1701718924.159509,-1.0,5.0,-1.0,-1.0,-3.0,0.0,0.0,-1.0
1701718924.169533,0.0,0.0,-1.0,-1.0,0.0,-2.0,-1.0,1.0
1701718924.169533,-2.0,-2.0,-2.0,-3.0,-3.0,-1.0,0.0,1.0
1701718924.1795082,-1.0,-5.0,-1.0,-1.0,-1.0,-1.0,1.0,-1.0
1701718924.1795082,-2.0,-7.0,-1.0,-1.0,1.0,-2.0,-1.0,-2.0
1701718924.1795082,-3.0,-16.0,-1.0,-1.0,0.0,-2.0,0.0,-1.0
1701718924.1795082,0.0,-2.0,-1.0,1.0,1.0,-1.0,0.0,0.0
1701718924.1995072,0.0,3.0,-1.0,-4.0,-2.0,-2.0,0.0,0.0
1701718924.1995072,-2.0,-1.0,-1.0,0.0,-1.0,-1.0,-1.0,-1.0
1701718924.2095065,-5.0,-3.0,1.0,-2.0,0.0,0.0,-1.0,0.0
1701718924.2095065,-1.0,-4.0,-2.0,0.0,-2.0,-1.0,-1.0,-2.0
1701718924.2095065,-2.0,3.0,-1.0,-2.0,1.0,-1.0,-3.0,-1.0
1701718924.2095065,1.0,11.0,12.0,2.0,2.0,2.0,1.0,1.0
1701718924.2198782,-1.0,2.0,-4.0,-5.0,-1.0,0.0,0.0,-2.0
1701718924.2198782,0.0,0.0,1.0,-1.0,-1.0,-1.0,-1.0,-1.0
1701718924.2395065,-2.0,10.0,1.0,0.0,0.0,-1.0,0.0,-2.0
1701718924.2395065,-1.0,-5.0,-4.0,0.0,-2.0,-2.0,-2.0,-2.0
1701718924.249506,1.0,-1.0,-2.0,0.0,-1.0,-3.0,-2.0,0.0
1701718924.249506,1.0,0.0,7.0,0.0,0.0,1.0,0.0,-2.0
1701718924.2595406,-5.0,-24.0,-3.0,0.0,-2.0,0.0,-1.0,2.0
1701718924.2595406,-1.0,-2.0,-1.0,-1.0,-1.0,0.0,-3.0,-2.0
1701718924.2699528,1.0,3.0,2.0,1.0,0.0,0.0,-1.0,-2.0
1701718924.2699528,-1.0,0.0,-2.0,0.0,0.0,-1.0,0.0,0.0
1701718924.2699528,1.0,-1.0,-1.0,0.0,0.0,-3.0,0.0,-2.0
1701718924.2699528,-2.0,-6.0,-4.0,-2.0,-1.0,-2.0,-3.0,-2.0
1701718924.2899477,-1.0,2.0,-1.0,-1.0,-2.0,-1.0,5.0,-4.0
1701718924.2899477,0.0,-5.0,-3.0,-2.0,-2.0,-2.0,-10.0,-17.0
1701718924.2995074,1.0,2.0,-2.0,0.0,-1.0,-1.0,-1.0,-2.0
1701718924.2995074,0.0,-1.0,-5.0,-2.0,-2.0,-2.0,1.0,1.0
1701718924.3095086,-4.0,-2.0,-1.0,-1.0,-2.0,-1.0,-2.0,-6.0
1701718924.3095086,7.0,0.0,-2.0,0.0,-1.0,-2.0,1.0,2.0
1701718924.319505,-3.0,3.0,1.0,0.0,-2.0,1.0,3.0,8.0
1701718924.319505,-1.0,-1.0,-2.0,-3.0,-1.0,-4.0,-14.0,-26.0
1701718924.3295457,-1.0,2.0,0.0,-2.0,0.0,0.0,-4.0,1.0
1701718924.3295457,-1.0,-1.0,-2.0,-2.0,-1.0,-2.0,-3.0,8.0
1701718924.3295457,0.0,0.0,2.0,-2.0,-1.0,0.0,-2.0,-1.0
1701718924.3295457,0.0,-4.0,-2.0,-1.0,-3.0,1.0,5.0,7.0
1701718924.339752,-1.0,-1.0,-3.0,-1.0,1.0,-2.0,-4.0,1.0
1701718924.339752,3.0,0.0,-2.0,-1.0,-1.0,2.0,-17.0,-3.0
1701718924.3595102,-7.0,-1.0,-2.0,-2.0,-1.0,-1.0,7.0,-2.0
1701718924.3595102,-2.0,-1.0,-2.0,-1.0,1.0,-3.0,-4.0,-5.0
1701718924.36951,2.0,0.0,0.0,0.0,-1.0,4.0,-4.0,-1.0
1701718924.36951,-4.0,0.0,-1.0,-3.0,-3.0,-1.0,19.0,3.0
1701718924.3895075,3.0,-1.0,-2.0,-1.0,-2.0,-1.0,-2.0,14.0
1701718924.3895075,-2.0,-3.0,-2.0,0.0,-2.0,-2.0,-8.0,-16.0
1701718924.3895075,-2.0,0.0,-2.0,0.0,-1.0,-2.0,-4.0,-5.0
1701718924.3895075,-4.0,-1.0,-2.0,-1.0,0.0,-2.0,-9.0,-9.0
1701718924.3895075,0.0,-1.0,-1.0,0.0,-2.0,-2.0,-5.0,6.0
1701718924.3895075,-5.0,0.0,-1.0,-1.0,-2.0,-2.0,4.0,4.0
1701718924.3996394,5.0,-4.0,-1.0,-3.0,-2.0,-1.0,3.0,-4.0
1701718924.3996394,-3.0,-1.0,0.0,-1.0,-1.0,0.0,0.0,-1.0
1701718924.4195068,0.0,0.0,0.0,-1.0,0.0,0.0,0.0,-11.0
1701718924.4195068,-2.0,1.0,-2.0,-1.0,-1.0,1.0,0.0,7.0
1701718924.4295073,-3.0,0.0,-3.0,-2.0,-2.0,-2.0,-1.0,0.0
1701718924.4295073,-1.0,1.0,0.0,1.0,1.0,-2.0,8.0,5.0
1701718924.439538,1.0,2.0,0.0,-2.0,-1.0,0.0,-4.0,-8.0
1701718924.439538,-4.0,-3.0,-1.0,0.0,1.0,-1.0,1.0,5.0
1701718924.4498186,1.0,0.0,-1.0,0.0,-2.0,-3.0,1.0,5.0
1701718924.4498186,-3.0,-2.0,-2.0,-2.0,-2.0,-1.0,-2.0,-2.0
1701718924.4498186,-1.0,-3.0,-2.0,0.0,0.0,1.0,-1.0,-6.0
1701718924.4498186,-1.0,-1.0,-1.0,-2.0,-2.0,-1.0,2.0,3.0
1701718924.4597502,-2.0,0.0,1.0,-1.0,-1.0,-2.0,1.0,0.0
1701718924.4597502,-1.0,0.0,-2.0,0.0,-2.0,-1.0,0.0,1.0
1701718924.4795113,-1.0,-2.0,-1.0,0.0,1.0,-2.0,-3.0,-2.0
1701718924.4795113,1.0,-1.0,0.0,1.0,-2.0,0.0,1.0,3.0
1701718924.4795113,-2.0,-1.0,-1.0,-2.0,-1.0,1.0,-2.0,1.0
1701718924.4795113,0.0,-2.0,-1.0,-1.0,0.0,-2.0,-2.0,1.0
1701718924.5214858,-1.0,-1.0,-1.0,-2.0,-2.0,0.0,0.0,-2.0
1701718924.5214858,0.0,-1.0,0.0,-3.0,-2.0,-1.0,0.0,1.0
1701718924.5214858,0.0,0.0,-1.0,1.0,0.0,0.0,-1.0,-8.0
1701718924.5214858,-2.0,0.0,-2.0,-1.0,-1.0,-1.0,0.0,0.0
1701718924.5214858,-1.0,0.0,0.0,0.0,0.0,-2.0,-1.0,-3.0
1701718924.5214858,1.0,-1.0,0.0,-2.0,0.0,-2.0,-4.0,3.0
1701718924.5214858,-3.0,-2.0,-1.0,0.0,0.0,0.0,3.0,5.0
1701718924.5214858,-2.0,-2.0,-1.0,-2.0,-1.0,-2.0,0.0,1.0
1701718924.5414884,-1.0,0.0,-2.0,-1.0,-3.0,-3.0,2.0,-1.0
1701718924.5414884,0.0,-2.0,-2.0,-2.0,-2.0,-2.0,-2.0,-3.0
1701718924.5414884,0.0,-2.0,-2.0,-2.0,-1.0,-2.0,2.0,5.0
1701718924.5414884,-1.0,0.0,0.0,-1.0,-1.0,-1.0,-1.0,-2.0
1701718924.5616338,-2.0,-2.0,-1.0,-2.0,-2.0,-3.0,-6.0,1.0
1701718924.5616338,-2.0,-1.0,-2.0,-1.0,-2.0,2.0,3.0,0.0
1701718924.5616338,-1.0,0.0,0.0,0.0,-1.0,0.0,-3.0,-2.0
1701718924.5616338,-2.0,-2.0,0.0,0.0,-1.0,-1.0,1.0,0.0
1701718924.5715353,1.0,0.0,0.0,0.0,-1.0,-2.0,-4.0,-5.0
1701718924.5715353,1.0,-3.0,3.0,1.0,1.0,-1.0,1.0,0.0
1701718924.5817795,-1.0,-1.0,-1.0,-1.0,-2.0,0.0,-1.0,-2.0
1701718924.5817795,0.0,-3.0,-4.0,-2.0,-1.0,-1.0,0.0,0.0
1701718924.61149,0.0,-1.0,-2.0,-2.0,-1.0,-1.0,1.0,-1.0
1701718924.61149,0.0,-1.0,0.0,-1.0,-1.0,-1.0,0.0,-3.0
1701718924.61149,-3.0,0.0,-6.0,-3.0,-1.0,-1.0,1.0,0.0
1701718924.61149,-2.0,0.0,0.0,-2.0,-2.0,-3.0,-1.0,9.0
1701718924.6214938,-3.0,-1.0,-3.0,-1.0,-2.0,-1.0,-3.0,4.0
1701718924.6214938,-2.0,-1.0,-5.0,-1.0,0.0,2.0,3.0,6.0
1701718924.6214938,-1.0,-1.0,1.0,1.0,0.0,0.0,1.0,-4.0
1701718924.6214938,-1.0,-1.0,0.0,0.0,0.0,0.0,1.0,3.0
1701718924.6315367,0.0,-2.0,-1.0,-2.0,-1.0,-2.0,0.0,2.0
1701718924.6315367,2.0,-1.0,-1.0,-1.0,-1.0,-1.0,-6.0,0.0
1701718924.641929,-9.0,-1.0,-1.0,-1.0,-1.0,-3.0,-3.0,-11.0
1701718924.641929,-1.0,-2.0,1.0,-1.0,-1.0,1.0,6.0,4.0
1701718924.6615472,-1.0,1.0,1.0,1.0,0.0,0.0,1.0,-1.0
1701718924.6615472,-2.0,-2.0,-4.0,-1.0,0.0,-1.0,0.0,-2.0
1701718924.6615472,-2.0,-1.0,0.0,-1.0,-1.0,-3.0,-7.0,1.0
1701718924.6615472,2.0,-1.0,-1.0,-3.0,-1.0,0.0,5.0,-10.0
1701718924.6818414,-2.0,-2.0,-2.0,-1.0,0.0,-1.0,-1.0,-2.0
1701718924.691554,0.0,-1.0,-1.0,-3.0,-2.0,-4.0,-5.0,-7.0
1701718924.691554,0.0,-2.0,-1.0,-1.0,0.0,0.0,1.0,1.0
1701718924.691554,-2.0,0.0,-2.0,1.0,1.0,-1.0,-3.0,-3.0
1701718924.7215471,-1.0,-2.0,-2.0,0.0,1.0,0.0,-1.0,-4.0
1701718924.7215471,-2.0,0.0,-1.0,0.0,-1.0,0.0,-1.0,5.0
1701718924.7215471,1.0,0.0,1.0,0.0,-3.0,-1.0,-2.0,2.0
1701718924.7215471,-1.0,-1.0,-2.0,-1.0,-1.0,-2.0,-6.0,-5.0
1701718924.7215471,0.0,0.0,1.0,0.0,-1.0,1.0,1.0,10.0
1701718924.7215471,-2.0,-2.0,0.0,-1.0,-1.0,-3.0,-3.0,-4.0
1701718924.7215471,1.0,-1.0,-2.0,-1.0,-1.0,-1.0,-1.0,1.0
1701718924.7215471,0.0,0.0,0.0,-1.0,-1.0,-2.0,-3.0,-2.0
1701718924.7416782,-2.0,0.0,-2.0,-2.0,0.0,-2.0,-1.0,-1.0
1701718924.7416782,-2.0,-1.0,-1.0,1.0,0.0,0.0,0.0,-1.0
1701718924.7515523,0.0,-2.0,-1.0,-1.0,-1.0,0.0,1.0,3.0
1701718924.7515523,-2.0,0.0,1.0,-1.0,-1.0,-1.0,-2.0,-7.0
1701718924.791548,0.0,-2.0,-2.0,-2.0,-2.0,-1.0,-3.0,-3.0
1701718924.791548,-4.0,1.0,-1.0,-2.0,-4.0,-1.0,2.0,-2.0
1701718924.791548,1.0,0.0,1.0,-1.0,0.0,-1.0,1.0,-3.0
1701718924.791548,-1.0,-2.0,-2.0,-2.0,0.0,-1.0,-4.0,-1.0
1701718924.791548,5.0,1.0,-1.0,0.0,-2.0,1.0,-2.0,-5.0
1701718924.791548,-7.0,-1.0,-1.0,-1.0,0.0,-1.0,2.0,1.0
1701718924.791548,-2.0,-1.0,0.0,-2.0,-1.0,-1.0,-3.0,-1.0
1701718924.791548,-2.0,-1.0,-3.0,-2.0,-1.0,0.0,0.0,0.0
1701718924.801621,-1.0,-2.0,-1.0,0.0,-1.0,-2.0,-1.0,-3.0
1701718924.801621,1.0,-1.0,0.0,-1.0,0.0,-1.0,0.0,-2.0
1701718924.8115492,0.0,-1.0,0.0,-2.0,0.0,-1.0,-2.0,0.0
1701718924.8115492,-1.0,-1.0,0.0,0.0,-1.0,-1.0,-1.0,0.0
1701718924.8219824,-2.0,2.0,-3.0,0.0,-1.0,-1.0,-1.0,-2.0
1701718924.8219824,0.0,-2.0,-2.0,-1.0,-2.0,-2.0,0.0,0.0
1701718924.8219824,1.0,1.0,-1.0,0.0,0.0,-2.0,-1.0,-2.0
1701718924.8219824,0.0,0.0,0.0,-1.0,-3.0,-1.0,-2.0,-2.0
1701718924.831548,-1.0,-2.0,0.0,-1.0,-1.0,0.0,-3.0,-4.0
1701718924.831548,0.0,0.0,0.0,0.0,0.0,-1.0,-2.0,-1.0
1701718924.8415813,-1.0,-2.0,-1.0,-1.0,-1.0,-1.0,-1.0,0.0
1701718924.8415813,-4.0,-1.0,-2.0,-2.0,-1.0,-1.0,-2.0,-2.0
1701718924.8616626,-1.0,0.0,0.0,-2.0,-1.0,-2.0,0.0,-1.0
1701718924.8616626,2.0,2.0,1.0,-1.0,-1.0,0.0,0.0,-1.0
1701718924.8815558,0.0,1.0,-2.0,-2.0,-2.0,0.0,-2.0,-2.0
1701718924.8815558,-2.0,-1.0,-1.0,-1.0,0.0,-4.0,-1.0,-1.0
1701718924.9015522,0.0,1.0,-4.0,-1.0,1.0,-2.0,-1.0,-3.0
1701718924.9015522,-1.0,4.0,2.0,-2.0,-2.0,-2.0,0.0,0.0
1701718924.9015522,0.0,-1.0,-5.0,-2.0,0.0,0.0,-2.0,-1.0
1701718924.9015522,0.0,-6.0,-1.0,-1.0,-2.0,-2.0,-1.0,0.0
1701718924.9015522,1.0,7.0,1.0,0.0,0.0,-1.0,0.0,-2.0
1701718924.9015522,0.0,-4.0,-1.0,-1.0,1.0,0.0,-1.0,-1.0
1701718924.9015522,-3.0,-1.0,1.0,1.0,-1.0,-2.0,-1.0,0.0
1701718924.9015522,0.0,-1.0,-2.0,0.0,2.0,1.0,-1.0,-1.0
1701718924.9217198,0.0,-4.0,-1.0,-1.0,-2.0,-1.0,-1.0,0.0
1701718924.9217198,-7.0,-7.0,-3.0,0.0,0.0,-2.0,0.0,-1.0
1701718924.9217198,-1.0,3.0,0.0,0.0,-1.0,-2.0,-1.0,-1.0
1701718924.9217198,0.0,-3.0,-2.0,0.0,0.0,0.0,-1.0,-3.0
1701718924.9415467,-4.0,-1.0,1.0,-1.0,-3.0,-2.0,-1.0,-2.0
1701718924.9415467,2.0,6.0,-1.0,0.0,0.0,-2.0,-2.0,-2.0
1701718924.9415467,0.0,4.0,-3.0,-2.0,-2.0,0.0,0.0,2.0
1701718924.9415467,-1.0,1.0,-1.0,0.0,-1.0,0.0,0.0,-1.0
1701718924.9519105,-1.0,-26.0,-5.0,-2.0,0.0,0.0,0.0,-1.0
1701718924.9519105,-1.0,10.0,6.0,0.0,0.0,1.0,0.0,-2.0
1701718924.9619007,-1.0,-2.0,-3.0,-1.0,-2.0,-2.0,-1.0,-1.0
1701718924.9619007,1.0,-3.0,0.0,0.0,1.0,0.0,0.0,0.0
1701718924.981549,-8.0,-1.0,2.0,-2.0,-1.0,-1.0,-1.0,-2.0
1701718924.981549,1.0,-3.0,0.0,-2.0,-2.0,-1.0,0.0,-3.0
1701718924.9915466,-2.0,3.0,-2.0,-2.0,0.0,-1.0,-1.0,-2.0
1701718924.9915466,1.0,10.0,4.0,-2.0,-2.0,-2.0,0.0,-1.0
1701718925.0019398,3.0,7.0,-4.0,-1.0,-3.0,-3.0,-1.0,1.0
1701718925.0019398,1.0,12.0,3.0,-1.0,-1.0,-1.0,-1.0,-2.0
1701718925.0019398,-1.0,3.0,4.0,1.0,-1.0,0.0,-1.0,-1.0
1701718925.0019398,-2.0,-9.0,-4.0,-1.0,0.0,-2.0,-2.0,-2.0
1701718925.011932,-4.0,-3.0,-8.0,-2.0,1.0,-1.0,0.0,-2.0
1701718925.011932,2.0,2.0,-5.0,0.0,-1.0,-1.0,0.0,0.0
1701718925.0273852,0.0,-4.0,-3.0,0.0,-1.0,0.0,-1.0,-3.0
1701718925.0273852,2.0,5.0,6.0,0.0,-1.0,0.0,1.0,3.0
1701718925.041159,-1.0,-5.0,-7.0,-1.0,-1.0,0.0,-3.0,-4.0
1701718925.041159,-1.0,-7.0,4.0,-1.0,0.0,-1.0,-2.0,-1.0
1701718925.0519555,-1.0,-5.0,0.0,-3.0,-2.0,-1.0,-1.0,-1.0
1701718925.0519555,-5.0,-12.0,-14.0,-4.0,-3.0,-1.0,-2.0,-2.0
1701718925.0646405,2.0,4.0,2.0,-1.0,1.0,-3.0,-1.0,0.0
1701718925.0646405,-3.0,-14.0,-6.0,-2.0,-2.0,-1.0,-2.0,0.0
1701718925.0646405,-2.0,-3.0,2.0,-1.0,1.0,0.0,-1.0,0.0
1701718925.0646405,-1.0,-1.0,-1.0,-3.0,-1.0,-1.0,-1.0,0.0
1701718925.0750434,-1.0,2.0,2.0,-1.0,1.0,0.0,-2.0,-2.0
1701718925.0750434,-1.0,-7.0,0.0,-1.0,-3.0,0.0,0.0,-1.0
1701718925.0849109,0.0,-8.0,-4.0,-3.0,-4.0,-2.0,-2.0,-3.0
1701718925.0849109,-3.0,0.0,-2.0,0.0,-2.0,0.0,-1.0,-2.0
1701718925.0946503,-1.0,-10.0,-2.0,0.0,3.0,2.0,0.0,0.0
1701718925.0946503,1.0,1.0,-5.0,-2.0,-2.0,-3.0,-1.0,2.0
1701718925.1050148,-1.0,1.0,0.0,0.0,-1.0,-1.0,-1.0,1.0
1701718925.1050148,0.0,15.0,5.0,-1.0,-1.0,-1.0,0.0,-1.0
1701718925.1249588,1.0,-7.0,1.0,1.0,-3.0,-1.0,0.0,-2.0
1701718925.1249588,-1.0,-4.0,-4.0,-4.0,-2.0,-1.0,-1.0,-4.0
1701718925.1249588,0.0,0.0,-1.0,-3.0,0.0,-1.0,0.0,1.0
1701718925.1249588,-1.0,-4.0,1.0,0.0,0.0,-1.0,-3.0,-2.0
1701718925.1350229,-2.0,2.0,-1.0,-3.0,-1.0,-1.0,0.0,1.0
1701718925.1350229,0.0,-3.0,-4.0,-1.0,0.0,-1.0,-2.0,-2.0
1701718925.1449142,0.0,-2.0,1.0,-3.0,-1.0,-1.0,-1.0,-2.0
1701718925.1449142,-2.0,0.0,-1.0,-2.0,-1.0,0.0,-1.0,-1.0
1701718925.1646504,-1.0,1.0,0.0,-1.0,0.0,-1.0,-2.0,-2.0
1701718925.1646504,-3.0,-3.0,-1.0,0.0,0.0,-1.0,0.0,0.0
1701718925.1646504,0.0,-4.0,0.0,0.0,-1.0,-1.0,-1.0,-1.0
1701718925.1646504,-1.0,-3.0,-2.0,-1.0,-1.0,-3.0,-1.0,-1.0
1701718925.1850748,0.0,7.0,1.0,0.0,-3.0,-1.0,-1.0,-2.0
1701718925.1850748,0.0,-3.0,0.0,0.0,-1.0,-1.0,-2.0,-1.0
1701718925.1850748,-3.0,-5.0,-3.0,1.0,-1.0,-2.0,-1.0,-1.0
1701718925.1850748,-1.0,-2.0,-1.0,-1.0,-2.0,-1.0,-1.0,-1.0
1701718925.1950607,-2.0,-1.0,-1.0,-1.0,-2.0,-1.0,-3.0,-2.0
1701718925.1950607,-1.0,-2.0,-2.0,-1.0,-1.0,-1.0,-1.0,0.0
1701718925.2049053,0.0,-3.0,-1.0,0.0,-1.0,0.0,-1.0,-1.0
1701718925.2049053,-1.0,-4.0,-1.0,1.0,1.0,0.0,-2.0,-2.0
1701718925.2246535,0.0,0.0,1.0,-1.0,-1.0,-1.0,-1.0,-1.0
1701718925.2246535,-2.0,0.0,0.0,-2.0,0.0,-1.0,-1.0,-1.0
1701718925.2246535,-3.0,2.0,1.0,0.0,-1.0,-1.0,1.0,-2.0
1701718925.2246535,-1.0,-2.0,-1.0,1.0,-1.0,0.0,-2.0,0.0
1701718925.2449844,-1.0,-1.0,0.0,-1.0,0.0,-1.0,0.0,-1.0
1701718925.2449844,-2.0,-4.0,-1.0,1.0,2.0,-1.0,-2.0,0.0
1701718925.2449844,-2.0,-2.0,-1.0,-1.0,1.0,-1.0,0.0,0.0
1701718925.2449844,-2.0,-1.0,-1.0,-2.0,-1.0,0.0,-1.0,0.0
1701718925.2549717,0.0,-1.0,0.0,-1.0,-1.0,-2.0,0.0,1.0
1701718925.2549717,0.0,-1.0,-2.0,-2.0,0.0,-1.0,-1.0,0.0
1701718925.2746542,-2.0,-1.0,0.0,-1.0,-2.0,-1.0,-1.0,0.0
1701718925.2746542,-1.0,-1.0,-1.0,0.0,-3.0,-2.0,-2.0,-1.0
1701718925.2946494,-1.0,0.0,-1.0,0.0,0.0,-3.0,-1.0,0.0
1701718925.2946494,-2.0,-2.0,-1.0,-1.0,-2.0,-2.0,-1.0,-1.0
1701718925.2946494,-1.0,-3.0,-1.0,-1.0,-1.0,-1.0,0.0,-1.0
1701718925.2946494,-1.0,0.0,-1.0,0.0,-1.0,-2.0,-1.0,1.0
1701718925.3046994,-1.0,0.0,1.0,-2.0,-1.0,2.0,-2.0,0.0
1701718925.3046994,-1.0,-2.0,-2.0,-2.0,-1.0,0.0,0.0,-1.0
1701718925.3146515,-2.0,-3.0,-1.0,-1.0,-1.0,-2.0,-1.0,-2.0
1701718925.3146515,0.0,-3.0,-2.0,-3.0,-2.0,0.0,-2.0,-1.0
1701718925.3146515,-1.0,-1.0,-1.0,-1.0,-2.0,-2.0,-1.0,-1.0
1701718925.3146515,-1.0,1.0,-1.0,-1.0,0.0,-1.0,-2.0,0.0
1701718925.324686,1.0,0.0,-1.0,0.0,-1.0,-1.0,-1.0,-2.0
1701718925.324686,1.0,0.0,-2.0,1.0,0.0,-1.0,-1.0,-1.0
1701718925.3350794,0.0,2.0,-2.0,-1.0,-1.0,-1.0,-2.0,-1.0
1701718925.3350794,-1.0,-1.0,-2.0,-1.0,-1.0,-2.0,-1.0,-1.0
1701718925.3450184,0.0,-1.0,-1.0,-2.0,0.0,-1.0,-2.0,0.0
1701718925.3450184,-1.0,-3.0,-1.0,0.0,0.0,-1.0,0.0,-1.0
1701718925.3650997,0.0,-2.0,0.0,0.0,-2.0,-1.0,1.0,-3.0
1701718925.3650997,0.0,-2.0,-2.0,0.0,-1.0,1.0,-2.0,-1.0
1701718925.3650997,0.0,0.0,-2.0,-1.0,-1.0,0.0,0.0,-1.0
1701718925.3650997,0.0,0.0,-2.0,-2.0,0.0,0.0,0.0,-1.0
1701718925.374654,0.0,-1.0,-2.0,-1.0,0.0,0.0,-2.0,0.0
1701718925.374654,-2.0,-1.0,-1.0,-2.0,-2.0,-2.0,-1.0,-1.0
1701718925.3846843,1.0,-1.0,-2.0,-1.0,1.0,0.0,-3.0,-2.0
1701718925.3846843,0.0,0.0,0.0,-2.0,0.0,-3.0,-1.0,-2.0
1701718925.3949578,-1.0,-1.0,-1.0,-1.0,-2.0,-1.0,-1.0,-1.0
1701718925.3949578,-3.0,0.0,-1.0,-2.0,-1.0,0.0,-1.0,-2.0
1701718925.404909,-4.0,-1.0,-3.0,-1.0,-1.0,-2.0,-2.0,-1.0
1701718925.404909,0.0,-2.0,-1.0,-3.0,-1.0,1.0,2.0,-1.0
1701718925.424919,0.0,-1.0,-1.0,0.0,-1.0,-2.0,-2.0,-1.0
1701718925.424919,1.0,-1.0,-1.0,0.0,-2.0,-1.0,0.0,1.0
1701718925.424919,0.0,0.0,-2.0,-1.0,-1.0,1.0,1.0,0.0
1701718925.424919,-2.0,0.0,-1.0,-1.0,-1.0,-2.0,-1.0,-1.0
1701718925.4349005,0.0,-2.0,-2.0,-1.0,-3.0,-2.0,1.0,-1.0
1701718925.4349005,-1.0,-2.0,-1.0,1.0,-1.0,0.0,-1.0,-1.0
1701718925.454653,-2.0,-2.0,-2.0,-1.0,-2.0,-3.0,-2.0,0.0
1701718925.454653,-2.0,-2.0,-2.0,1.0,-1.0,0.0,-2.0,-2.0
1701718925.454653,-1.0,0.0,0.0,-1.0,-2.0,0.0,-1.0,0.0
1701718925.454653,0.0,-3.0,1.0,-2.0,-1.0,-2.0,-1.0,-2.0
1701718925.4646838,-1.0,-1.0,-2.0,-2.0,-1.0,0.0,0.0,-2.0
1701718925.4646838,-2.0,-2.0,-2.0,-1.0,-1.0,-2.0,1.0,-2.0
1701718925.4849381,0.0,-1.0,0.0,-1.0,-1.0,-3.0,1.0,-1.0
1701718925.4849381,-1.0,1.0,-1.0,-1.0,-1.0,-1.0,0.0,-1.0
1701718925.4849381,-2.0,0.0,-1.0,-1.0,-2.0,-3.0,-2.0,-1.0
1701718925.4849381,-1.0,0.0,1.0,-1.0,-1.0,-1.0,-1.0,1.0
1701718925.4946532,-1.0,0.0,-2.0,-1.0,1.0,-1.0,-1.0,-1.0
1701718925.4946532,1.0,0.0,-1.0,0.0,-2.0,0.0,-1.0,1.0
1701718925.5046766,0.0,-1.0,-1.0,0.0,0.0,0.0,0.0,-1.0
1701718925.5046766,-1.0,0.0,0.0,0.0,-1.0,0.0,0.0,-1.0
1701718925.5150714,-1.0,-2.0,-1.0,-2.0,0.0,0.0,0.0,-2.0
1701718925.5150714,-2.0,-1.0,0.0,0.0,-1.0,-1.0,0.0,-2.0
1701718925.5250132,-1.0,-1.0,0.0,-1.0,-3.0,-1.0,-1.0,-1.0
1701718925.5250132,0.0,1.0,0.0,-2.0,0.0,-3.0,-2.0,-1.0
1701718925.5533016,-2.0,-1.0,0.0,-1.0,-2.0,-1.0,-1.0,-2.0
1701718925.5533016,-2.0,0.0,-1.0,-1.0,-1.0,-2.0,-2.0,-2.0
1701718925.5533016,-2.0,-2.0,-1.0,-2.0,-1.0,0.0,-1.0,-2.0
1701718925.5533016,1.0,-1.0,-1.0,-2.0,-1.0,-2.0,-3.0,-2.0
1701718925.559361,0.0,-2.0,-2.0,-1.0,0.0,-2.0,0.0,0.0
1701718925.559361,-1.0,0.0,-1.0,-1.0,-3.0,-1.0,0.0,0.0
1701718925.5673976,-1.0,0.0,-1.0,-2.0,0.0,0.0,-2.0,0.0
1701718925.5673976,-4.0,-1.0,-1.0,-1.0,-2.0,-1.0,-1.0,-3.0
1701718925.5807142,-1.0,1.0,-1.0,0.0,-1.0,1.0,-1.0,-2.0
1701718925.5807142,0.0,-3.0,1.0,-1.0,-1.0,-1.0,-1.0,-1.0
1701718925.5807142,-1.0,1.0,0.0,-1.0,0.0,-2.0,-1.0,-1.0
1701718925.5807142,-1.0,-1.0,-2.0,-1.0,-1.0,-2.0,0.0,-1.0
1701718925.600714,-1.0,0.0,2.0,0.0,-1.0,-2.0,-1.0,1.0
1701718925.600714,-1.0,-1.0,-5.0,0.0,-1.0,0.0,-2.0,-3.0
1701718925.6107476,0.0,-2.0,-2.0,0.0,0.0,1.0,-2.0,-1.0
1701718925.6107476,-1.0,-1.0,0.0,-2.0,-2.0,-1.0,0.0,-2.0
1701718925.621182,-1.0,-2.0,-1.0,-2.0,-2.0,-2.0,-1.0,-1.0
1701718925.621182,0.0,0.0,0.0,-3.0,0.0,-2.0,-1.0,1.0
1701718925.621182,0.0,0.0,0.0,0.0,-2.0,-1.0,-2.0,-1.0
1701718925.621182,-2.0,-3.0,-1.0,0.0,-1.0,0.0,-1.0,-1.0
1701718925.641176,0.0,-2.0,-1.0,-1.0,0.0,-1.0,-1.0,0.0
1701718925.641176,0.0,-2.0,0.0,-1.0,0.0,-2.0,-1.0,-2.0
1701718925.6507154,0.0,-2.0,-2.0,-1.0,-3.0,-2.0,0.0,-1.0
1701718925.6507154,0.0,0.0,-2.0,0.0,-1.0,-2.0,-1.0,-1.0
1701718925.6607513,0.0,-1.0,-2.0,-2.0,-2.0,-1.0,-2.0,0.0
1701718925.6607513,-2.0,-1.0,-2.0,-1.0,-1.0,0.0,0.0,-1.0
1701718925.6708786,-2.0,-2.0,0.0,0.0,0.0,-2.0,-1.0,-1.0
1701718925.6708786,2.0,-2.0,0.0,0.0,-1.0,-2.0,0.0,0.0
1701718925.6811695,-3.0,-2.0,-1.0,-2.0,-2.0,-2.0,0.0,-2.0
1701718925.6811695,-3.0,0.0,-2.0,-1.0,-1.0,-1.0,-1.0,0.0
1701718925.6811695,-1.0,-2.0,0.0,-1.0,-1.0,-1.0,-2.0,-1.0
1701718925.6811695,0.0,0.0,-1.0,-2.0,1.0,0.0,-1.0,1.0
1701718925.7011712,0.0,-1.0,-1.0,-2.0,0.0,0.0,-3.0,0.0
1701718925.7011712,0.0,-1.0,-1.0,-2.0,-2.0,-2.0,0.0,0.0
1701718925.710765,0.0,-1.0,-1.0,-2.0,-1.0,-2.0,0.0,0.0
1701718925.710765,-2.0,0.0,0.0,-1.0,-1.0,-3.0,-1.0,0.0
1701718925.7207646,-1.0,-2.0,-1.0,-1.0,1.0,0.0,-1.0,-2.0
1701718925.7207646,0.0,-2.0,0.0,-1.0,-1.0,-1.0,-1.0,-2.0
1701718925.7308657,-1.0,0.0,0.0,-2.0,1.0,-1.0,0.0,-2.0
1701718925.7308657,0.0,0.0,-1.0,-1.0,-1.0,0.0,-2.0,-1.0
1701718925.741035,-1.0,0.0,-2.0,-2.0,0.0,-1.0,-1.0,-2.0
1701718925.741035,0.0,-1.0,0.0,-1.0,0.0,0.0,0.0,-1.0
1701718925.7507684,-2.0,-2.0,0.0,-2.0,-1.0,0.0,-1.0,-1.0
1701718925.7507684,-1.0,0.0,0.0,1.0,-1.0,0.0,-2.0,-2.0
1701718925.7609558,-2.0,0.0,-2.0,-2.0,-1.0,-3.0,1.0,0.0
1701718925.7609558,-2.0,0.0,-3.0,1.0,-1.0,1.0,-1.0,-1.0
1701718925.780762,-1.0,-2.0,-2.0,0.0,-1.0,0.0,-1.0,0.0
1701718925.780762,0.0,-1.0,-2.0,0.0,1.0,1.0,0.0,0.0
1701718925.780762,-2.0,-2.0,0.0,0.0,-1.0,-4.0,-2.0,-2.0
1701718925.780762,0.0,-2.0,-2.0,0.0,-2.0,0.0,-2.0,-2.0
1701718925.7909899,0.0,-2.0,-2.0,-1.0,-1.0,-1.0,0.0,-1.0
1701718925.7909899,-1.0,-1.0,0.0,0.0,-2.0,-1.0,-2.0,-1.0
1701718925.8010607,0.0,-3.0,-2.0,-3.0,0.0,0.0,0.0,-2.0
1701718925.8010607,-2.0,0.0,-1.0,-2.0,-2.0,-3.0,-3.0,-2.0
1701718925.8107684,0.0,-1.0,-1.0,-1.0,-1.0,0.0,-1.0,0.0
1701718925.8107684,-1.0,0.0,0.0,-3.0,0.0,0.0,-3.0,-1.0
1701718925.8208258,1.0,0.0,0.0,-2.0,-1.0,-1.0,-2.0,-2.0
1701718925.8208258,0.0,0.0,0.0,-1.0,-1.0,-4.0,-1.0,0.0
1701718925.8308456,-1.0,-1.0,-2.0,-1.0,-1.0,-2.0,-1.0,0.0
1701718925.8308456,-1.0,-1.0,-1.0,0.0,-1.0,-2.0,-1.0,-1.0
1701718925.8408804,-2.0,1.0,-1.0,0.0,-3.0,-1.0,-1.0,0.0
1701718925.8408804,-2.0,-2.0,-1.0,-1.0,0.0,1.0,1.0,-1.0
1701718925.851214,-1.0,-1.0,0.0,-2.0,-2.0,-1.0,-2.0,0.0
1701718925.851214,0.0,-1.0,-1.0,-1.0,-2.0,-1.0,0.0,0.0
1701718925.8612404,-2.0,-1.0,-1.0,0.0,0.0,3.0,-2.0,-1.0
1701718925.8612404,-1.0,-1.0,1.0,-1.0,0.0,-2.0,-1.0,-1.0
1701718925.8612404,0.0,0.0,-1.0,-2.0,-1.0,-1.0,0.0,-2.0
1701718925.8612404,-3.0,-1.0,-1.0,-1.0,-1.0,0.0,-1.0,-1.0
1701718925.8808446,-1.0,-1.0,0.0,-2.0,-3.0,0.0,0.0,-2.0
1701718925.8808446,1.0,0.0,-1.0,-1.0,-2.0,-1.0,-2.0,1.0
1701718925.8908424,-2.0,-2.0,-3.0,-1.0,0.0,-1.0,-2.0,0.0
1701718925.8908424,-1.0,-2.0,-2.0,-2.0,-1.0,0.0,0.0,-1.0
1701718925.9010687,-1.0,-1.0,-2.0,0.0,0.0,0.0,-1.0,-3.0
1701718925.9010687,-1.0,-3.0,-2.0,-1.0,-1.0,-1.0,0.0,-2.0
1701718925.9108503,0.0,1.0,-1.0,0.0,-3.0,0.0,-1.0,-1.0
1701718925.9108503,-1.0,-1.0,-2.0,-2.0,-1.0,-2.0,0.0,-2.0
1701718925.920852,-1.0,-1.0,-1.0,-1.0,1.0,-2.0,0.0,-1.0
1701718925.920852,-1.0,-2.0,0.0,-1.0,-2.0,0.0,0.0,0.0
1701718925.920852,-1.0,-1.0,0.0,0.0,-1.0,1.0,0.0,-2.0
1701718925.920852,-1.0,-1.0,-1.0,0.0,-1.0,-1.0,-2.0,0.0
1701718925.950844,-2.0,0.0,-1.0,-1.0,-2.0,-1.0,-1.0,0.0
1701718925.950844,-1.0,-1.0,-1.0,1.0,0.0,-1.0,-1.0,0.0
1701718925.960842,-3.0,0.0,-2.0,-2.0,-2.0,-1.0,-1.0,-1.0
1701718925.960842,-1.0,0.0,-1.0,-1.0,-2.0,0.0,-1.0,-2.0
1701718925.960842,0.0,-2.0,-3.0,-1.0,-1.0,-3.0,-1.0,0.0
1701718925.960842,-2.0,1.0,-2.0,-1.0,0.0,0.0,-1.0,-1.0
1701718925.9712067,-3.0,0.0,-1.0,-1.0,-1.0,-1.0,0.0,-1.0
1701718925.9712067,-1.0,-2.0,0.0,-1.0,-1.0,0.0,-1.0,1.0
1701718925.9908428,-1.0,-2.0,0.0,0.0,-1.0,0.0,-1.0,0.0
1701718925.9908428,0.0,-1.0,-2.0,-1.0,0.0,-1.0,0.0,0.0
1701718925.9908428,-1.0,-2.0,-1.0,-1.0,0.0,0.0,-3.0,-1.0
1701718925.9908428,0.0,0.0,-2.0,-1.0,-1.0,-2.0,-3.0,0.0
1701718926.000876,-1.0,-1.0,1.0,-1.0,0.0,-3.0,0.0,-1.0
1701718926.000876,-2.0,0.0,-3.0,-1.0,-1.0,-2.0,0.0,-1.0
1701718926.0108457,0.0,1.0,-1.0,-1.0,0.0,-2.0,-1.0,-2.0
1701718926.0108457,-4.0,0.0,-4.0,-1.0,0.0,0.0,-1.0,0.0
1701718926.0212696,-1.0,0.0,-1.0,-1.0,-3.0,0.0,1.0,-1.0
1701718926.0212696,-3.0,-1.0,1.0,0.0,-1.0,-3.0,-1.0,-1.0
1701718926.0312092,0.0,-2.0,0.0,-1.0,-3.0,-1.0,-2.0,-1.0
1701718926.0312092,0.0,-4.0,-2.0,-2.0,0.0,-1.0,1.0,0.0
1701718926.041265,-1.0,0.0,-2.0,0.0,-3.0,-1.0,0.0,-1.0
1701718926.041265,0.0,-2.0,-2.0,-2.0,0.0,-4.0,-1.0,-2.0
1701718926.041265,-2.0,-1.0,-2.0,0.0,0.0,-2.0,0.0,0.0
1701718926.041265,0.0,0.0,0.0,0.0,-2.0,-1.0,0.0,0.0
1701718926.0611033,-1.0,-2.0,-2.0,-1.0,0.0,0.0,-2.0,-1.0
1701718926.0611033,1.0,-2.0,-1.0,0.0,-1.0,1.0,0.0,0.0
1701718926.0852475,-1.0,0.0,0.0,-1.0,-1.0,0.0,-2.0,-1.0
1701718926.0852475,-1.0,-1.0,0.0,0.0,-2.0,-2.0,-1.0,-2.0
1701718926.0862474,0.0,0.0,-1.0,-1.0,-2.0,-1.0,-3.0,-1.0
1701718926.0862474,0.0,-2.0,-1.0,-3.0,-2.0,-1.0,-1.0,-1.0
1701718926.0912626,0.0,-1.0,1.0,-2.0,0.0,-1.0,0.0,-1.0
1701718926.0912626,-2.0,-1.0,-2.0,-2.0,0.0,-1.0,-1.0,-1.0
1701718926.103595,0.0,-1.0,-1.0,-2.0,-2.0,-1.0,-2.0,-2.0
1701718926.103595,-1.0,0.0,-1.0,-1.0,-2.0,-1.0,0.0,-1.0
1701718926.123592,-1.0,-1.0,-2.0,-1.0,-1.0,-2.0,0.0,-2.0
1701718926.123592,-1.0,-6.0,-1.0,-2.0,-1.0,-2.0,0.0,-2.0
1701718926.1336021,0.0,-1.0,-1.0,-1.0,0.0,0.0,-2.0,1.0
1701718926.1336021,-2.0,0.0,-1.0,-2.0,0.0,-1.0,-2.0,-1.0
1701718926.1336021,0.0,1.0,0.0,1.0,1.0,-1.0,-1.0,-1.0
1701718926.1336021,-1.0,-1.0,0.0,-1.0,-1.0,-1.0,-1.0,-2.0
1701718926.143864,-3.0,-3.0,-1.0,-1.0,0.0,1.0,0.0,-1.0
1701718926.143864,-2.0,0.0,-2.0,0.0,-1.0,-2.0,0.0,-2.0
1701718926.143864,-5.0,-20.0,-3.0,-1.0,-1.0,2.0,0.0,-1.0
1701718926.143864,0.0,3.0,-1.0,0.0,-2.0,-3.0,-2.0,-2.0
1701718926.1735892,0.0,1.0,-3.0,-1.0,-1.0,-2.0,-2.0,-1.0
1701718926.1735892,-1.0,1.0,0.0,0.0,-1.0,0.0,-3.0,0.0
1701718926.1735892,0.0,-1.0,1.0,0.0,0.0,-1.0,-2.0,-1.0
1701718926.1735892,-1.0,-4.0,-4.0,-5.0,-2.0,-1.0,0.0,1.0
1701718926.1735892,1.0,11.0,6.0,0.0,-1.0,-2.0,-1.0,0.0
1701718926.1735892,2.0,6.0,-9.0,-1.0,0.0,-1.0,0.0,-1.0
1701718926.1835933,-3.0,0.0,4.0,-2.0,-2.0,1.0,1.0,1.0
1701718926.1835933,0.0,8.0,7.0,0.0,-1.0,0.0,-2.0,-3.0
1701718926.2044652,-4.0,0.0,-14.0,-3.0,-3.0,-2.0,-3.0,6.0
1701718926.2044652,-2.0,-15.0,2.0,-4.0,-3.0,-2.0,0.0,-12.0
1701718926.2044652,-1.0,14.0,2.0,-1.0,-2.0,-2.0,-4.0,-3.0
1701718926.2044652,3.0,12.0,0.0,2.0,0.0,0.0,-1.0,1.0
1701718926.224072,-2.0,-21.0,-5.0,1.0,-1.0,0.0,1.0,-1.0
1701718926.224072,-8.0,-5.0,-2.0,0.0,0.0,0.0,-3.0,-1.0
1701718926.234125,-6.0,-31.0,11.0,0.0,-2.0,0.0,0.0,1.0
1701718926.234125,-1.0,30.0,12.0,-2.0,1.0,0.0,1.0,-3.0
1701718926.234125,-3.0,-31.0,2.0,3.0,1.0,2.0,1.0,-1.0
1701718926.234125,0.0,4.0,3.0,0.0,-1.0,1.0,0.0,4.0
1701718926.2443395,3.0,6.0,-6.0,-1.0,1.0,-2.0,-3.0,-1.0
1701718926.2443395,-2.0,-8.0,-1.0,1.0,-1.0,-2.0,-2.0,1.0
1701718926.264463,-1.0,3.0,3.0,-2.0,-1.0,-2.0,0.0,-2.0
1701718926.264463,-2.0,-4.0,-9.0,-3.0,-2.0,-2.0,-2.0,0.0
1701718926.264463,0.0,4.0,0.0,0.0,0.0,0.0,0.0,-2.0
1701718926.264463,-3.0,-26.0,-15.0,-1.0,-1.0,-2.0,-1.0,-3.0
1701718926.2840333,0.0,11.0,1.0,-1.0,0.0,-2.0,-1.0,-3.0
1701718926.2840333,-3.0,-1.0,-1.0,0.0,-1.0,-1.0,-2.0,-2.0
1701718926.2840333,0.0,6.0,-6.0,-4.0,-4.0,-2.0,-3.0,0.0
1701718926.2840333,-4.0,-8.0,-1.0,-1.0,0.0,-1.0,0.0,-2.0
1701718926.2943468,0.0,4.0,-2.0,-3.0,-2.0,-1.0,-1.0,-3.0
1701718926.2943468,1.0,8.0,7.0,0.0,-1.0,0.0,-1.0,1.0
1701718926.3043253,-1.0,-2.0,-5.0,0.0,0.0,-1.0,-1.0,-2.0
1701718926.3043253,-1.0,-2.0,-2.0,1.0,-1.0,0.0,-1.0,-2.0
1701718926.324312,-1.0,7.0,4.0,-1.0,0.0,0.0,-3.0,-1.0
1701718926.324312,3.0,-2.0,-3.0,-1.0,-1.0,-1.0,-1.0,1.0
1701718926.324312,0.0,3.0,-2.0,-1.0,-2.0,-3.0,-1.0,-1.0
1701718926.324312,0.0,-5.0,-7.0,0.0,-2.0,0.0,-2.0,-1.0
1701718926.3440697,0.0,21.0,0.0,-4.0,-2.0,-2.0,-2.0,-2.0
1701718926.3440697,-1.0,11.0,3.0,-1.0,-2.0,0.0,0.0,-1.0
1701718926.3440697,-1.0,2.0,-3.0,-1.0,-1.0,-1.0,1.0,-2.0
1701718926.3440697,-1.0,-5.0,2.0,-3.0,-1.0,-2.0,0.0,1.0
1701718926.3543913,-1.0,-9.0,-2.0,1.0,0.0,0.0,1.0,-1.0
1701718926.3543913,-2.0,-6.0,-2.0,-1.0,0.0,-2.0,-1.0,1.0
1701718926.364323,1.0,5.0,-2.0,0.0,-1.0,-1.0,0.0,-1.0
1701718926.364323,-4.0,-1.0,-2.0,1.0,-1.0,0.0,0.0,-1.0
1701718926.3844385,-2.0,-4.0,-2.0,0.0,-1.0,-1.0,-1.0,-2.0
1701718926.3844385,0.0,0.0,0.0,-2.0,-2.0,-3.0,-2.0,-2.0
1701718926.3940358,-1.0,-4.0,-2.0,-3.0,-1.0,-1.0,-1.0,0.0
1701718926.3940358,0.0,0.0,0.0,-2.0,-2.0,-1.0,-2.0,-1.0
1701718926.4042995,0.0,-6.0,-2.0,0.0,-1.0,-1.0,1.0,-1.0
1701718926.4042995,-1.0,-3.0,-1.0,1.0,-1.0,0.0,-2.0,1.0
1701718926.4141486,-1.0,-4.0,-4.0,0.0,-1.0,-2.0,-2.0,-2.0
1701718926.4141486,0.0,-1.0,0.0,0.0,-1.0,-1.0,0.0,-1.0
1701718926.4141486,0.0,-1.0,-1.0,-1.0,0.0,0.0,-1.0,-2.0
1701718926.4141486,-3.0,-9.0,-1.0,-2.0,0.0,-1.0,-1.0,-1.0
1701718926.4243143,1.0,1.0,-3.0,0.0,0.0,-1.0,-2.0,-1.0
1701718926.4243143,-1.0,-3.0,-1.0,0.0,-1.0,-2.0,-3.0,-1.0
1701718926.4440343,-2.0,-2.0,1.0,0.0,-1.0,0.0,0.0,-1.0
1701718926.4440343,-2.0,-6.0,1.0,1.0,-1.0,-1.0,1.0,-1.0
1701718926.4440343,0.0,-2.0,-1.0,-3.0,-3.0,-1.0,-1.0,-1.0
1701718926.4440343,0.0,-3.0,-1.0,-1.0,-2.0,-2.0,-1.0,-2.0
1701718926.4643586,0.0,2.0,-2.0,-1.0,-2.0,-2.0,-1.0,0.0
1701718926.4643586,-1.0,-5.0,-4.0,-1.0,-1.0,-2.0,-2.0,-2.0
1701718926.4740798,0.0,4.0,-1.0,-2.0,0.0,-1.0,0.0,0.0
1701718926.4740798,0.0,1.0,0.0,-2.0,-2.0,-1.0,-2.0,1.0
1701718926.4740798,0.0,0.0,-4.0,-2.0,-1.0,-1.0,-1.0,0.0
1701718926.4740798,0.0,-3.0,-3.0,-1.0,-1.0,0.0,0.0,-1.0
1701718926.484311,-1.0,-4.0,0.0,-1.0,-1.0,1.0,-3.0,-1.0
1701718926.484311,-1.0,-4.0,-2.0,-1.0,-2.0,-2.0,-1.0,-1.0
1701718926.5040343,-2.0,-1.0,-2.0,-2.0,-2.0,-1.0,-1.0,-1.0
1701718926.5040343,0.0,5.0,0.0,-2.0,-2.0,0.0,1.0,0.0
1701718926.5040343,-2.0,-1.0,-1.0,0.0,-1.0,-1.0,1.0,0.0
1701718926.5040343,0.0,-3.0,1.0,-2.0,-1.0,0.0,0.0,0.0
1701718926.5244553,0.0,-4.0,1.0,-2.0,-2.0,-1.0,-2.0,-1.0
1701718926.5244553,-1.0,2.0,0.0,-1.0,0.0,0.0,-1.0,0.0
1701718926.5341299,-1.0,1.0,-2.0,0.0,-2.0,-1.0,0.0,-1.0
1701718926.5341299,-1.0,1.0,-2.0,0.0,-1.0,-1.0,0.0,-1.0
1701718926.5440347,0.0,-2.0,-2.0,-1.0,0.0,-1.0,-1.0,0.0
1701718926.5440347,-1.0,-1.0,-1.0,0.0,-1.0,0.0,-2.0,-1.0
1701718926.5440347,-1.0,-2.0,-1.0,0.0,-1.0,0.0,-1.0,-1.0
1701718926.5440347,0.0,-1.0,-1.0,-2.0,-1.0,-2.0,-2.0,-2.0
1701718926.5640774,0.0,0.0,-1.0,-2.0,-1.0,-1.0,-1.0,-2.0
1701718926.5640774,-1.0,3.0,-1.0,-2.0,-3.0,-2.0,-2.0,-2.0
1701718926.574036,-3.0,-2.0,0.0,-1.0,-1.0,-1.0,0.0,0.0
1701718926.574036,-2.0,-1.0,-2.0,-2.0,1.0,-1.0,-2.0,-1.0
1701718926.5843353,0.0,0.0,1.0,-2.0,-1.0,-3.0,0.0,-2.0
1701718926.5843353,0.0,-1.0,-1.0,0.0,-2.0,-2.0,0.0,-2.0
1701718926.5941303,0.0,-1.0,-1.0,-1.0,-3.0,-2.0,-3.0,-2.0
1701718926.5941303,1.0,-3.0,-1.0,0.0,-2.0,0.0,1.0,0.0
1701718926.6139345,0.0,-1.0,-2.0,-1.0,0.0,-2.0,0.0,-1.0
1701718926.6139345,-1.0,0.0,0.0,-1.0,-1.0,0.0,1.0,-1.0
1701718926.6159525,0.0,-1.0,-1.0,-2.0,-1.0,-3.0,-1.0,-1.0
1701718926.6159525,-1.0,-1.0,-1.0,-1.0,-2.0,0.0,-1.0,-3.0
1701718926.632937,0.0,0.0,0.0,0.0,1.0,0.0,-2.0,-2.0
1701718926.6339583,-2.0,1.0,-1.0,-1.0,0.0,0.0,-1.0,-1.0
1701718926.634953,0.0,0.0,-1.0,-2.0,0.0,1.0,0.0,-1.0
1701718926.634953,-2.0,-3.0,1.0,-2.0,0.0,-1.0,-2.0,-1.0
1701718926.6467843,-1.0,-1.0,0.0,-1.0,-2.0,-1.0,-1.0,0.0
1701718926.6467843,0.0,-1.0,-1.0,-1.0,-1.0,-1.0,-1.0,-1.0
1701718926.6467843,-1.0,0.0,0.0,-1.0,-1.0,-1.0,-1.0,-2.0
1701718926.6467843,-2.0,0.0,-1.0,-2.0,-2.0,-1.0,-1.0,1.0
1701718926.6667824,-1.0,-1.0,-1.0,-1.0,0.0,1.0,-2.0,-1.0
1701718926.6667824,0.0,0.0,-1.0,-1.0,-2.0,0.0,-1.0,-1.0
1701718926.6667824,-2.0,-2.0,1.0,0.0,-3.0,0.0,0.0,-2.0
1701718926.6667824,-1.0,0.0,-2.0,0.0,0.0,-2.0,-2.0,-1.0
1701718926.696438,-2.0,0.0,-1.0,-1.0,-2.0,-1.0,0.0,-1.0
1701718926.696438,-1.0,-2.0,-1.0,-2.0,0.0,-1.0,-1.0,-1.0
1701718926.696438,0.0,0.0,-2.0,-2.0,-1.0,-1.0,0.0,0.0
1701718926.696438,-1.0,-1.0,-2.0,-2.0,-1.0,-1.0,0.0,0.0
1701718926.706465,0.0,-2.0,-1.0,1.0,-1.0,1.0,0.0,-1.0
1701718926.706465,0.0,-2.0,-2.0,0.0,-1.0,-2.0,0.0,-2.0
1701718926.706465,-1.0,-1.0,-1.0,0.0,-1.0,0.0,0.0,-1.0
1701718926.706465,-2.0,0.0,0.0,0.0,0.0,-1.0,-1.0,-1.0
1701718926.7364357,1.0,-2.0,-2.0,-1.0,-2.0,-2.0,-2.0,-1.0
1701718926.7364357,-1.0,0.0,0.0,-2.0,-1.0,-1.0,-1.0,-1.0
1701718926.7364357,0.0,-2.0,-1.0,-1.0,1.0,0.0,-2.0,-1.0
1701718926.7364357,0.0,-2.0,-1.0,0.0,-1.0,-1.0,1.0,-1.0
1701718926.7364357,-3.0,-2.0,-3.0,-2.0,-1.0,1.0,0.0,-2.0
1701718926.7364357,-1.0,1.0,0.0,0.0,-1.0,0.0,-2.0,-1.0
1701718926.7468133,-1.0,0.0,0.0,-2.0,0.0,-2.0,0.0,-1.0
1701718926.7468133,1.0,0.0,1.0,0.0,-1.0,-1.0,0.0,-1.0
1701718926.766479,-2.0,0.0,1.0,0.0,0.0,-1.0,-1.0,-1.0
1701718926.766479,0.0,-1.0,-1.0,-2.0,0.0,-1.0,-1.0,0.0
1701718926.7764366,-1.0,0.0,-1.0,1.0,0.0,0.0,-1.0,1.0
1701718926.7764366,-1.0,-1.0,1.0,-1.0,2.0,0.0,0.0,-1.0
1701718926.7868335,-1.0,-2.0,0.0,0.0,-1.0,-2.0,-1.0,-1.0
1701718926.7868335,-1.0,-2.0,-1.0,-2.0,-1.0,-1.0,-1.0,0.0
1701718926.7868335,-2.0,-2.0,-2.0,-1.0,1.0,-1.0,0.0,0.0
1701718926.7868335,-1.0,-2.0,-3.0,-1.0,-2.0,-2.0,-2.0,0.0
1701718926.7968183,-1.0,0.0,-1.0,-2.0,-1.0,0.0,-1.0,-1.0
1701718926.7968183,0.0,-1.0,-2.0,0.0,0.0,-2.0,-2.0,-1.0
1701718926.8067896,1.0,-1.0,-1.0,-1.0,0.0,0.0,-1.0,-1.0
1701718926.8067896,-1.0,0.0,-1.0,-3.0,0.0,0.0,-1.0,0.0
1701718926.8264484,0.0,-1.0,-1.0,-1.0,-3.0,-2.0,-2.0,0.0
1701718926.8264484,-2.0,-2.0,0.0,-1.0,-2.0,0.0,0.0,-2.0
1701718926.8364365,1.0,0.0,-1.0,-1.0,-1.0,-1.0,-2.0,-1.0
1701718926.8364365,-1.0,-3.0,-2.0,-1.0,-2.0,0.0,-1.0,-1.0
1701718926.846703,-2.0,-1.0,-2.0,-2.0,0.0,-1.0,0.0,-2.0
1701718926.846703,-1.0,-1.0,-2.0,0.0,0.0,-1.0,1.0,-1.0
1701718926.846703,0.0,-2.0,-2.0,-2.0,-2.0,-3.0,-1.0,-1.0
1701718926.846703,-3.0,-2.0,-2.0,-2.0,-1.0,0.0,-2.0,-1.0
1701718926.856444,0.0,0.0,0.0,0.0,-1.0,-2.0,0.0,-1.0
1701718926.856444,0.0,-2.0,-2.0,-1.0,-1.0,-2.0,0.0,-2.0
1701718926.8666782,-2.0,-2.0,-2.0,0.0,-2.0,-1.0,1.0,-2.0
1701718926.8666782,-1.0,-1.0,-2.0,-1.0,-2.0,0.0,1.0,0.0
1701718926.8864455,-2.0,0.0,0.0,-1.0,-1.0,0.0,0.0,-1.0
1701718926.8864455,-2.0,0.0,1.0,-1.0,-1.0,-2.0,-1.0,-1.0
1701718926.9064374,-1.0,-2.0,0.0,-1.0,-3.0,-3.0,-2.0,-1.0
1701718926.9064374,-1.0,-1.0,-2.0,1.0,-1.0,-1.0,-1.0,0.0
1701718926.9064374,-2.0,-1.0,-1.0,-1.0,-1.0,-2.0,-2.0,0.0
1701718926.9064374,0.0,-1.0,-1.0,0.0,0.0,1.0,-1.0,1.0
1701718926.9064374,0.0,-2.0,-1.0,0.0,-1.0,0.0,-1.0,-2.0
1701718926.9064374,-2.0,0.0,0.0,-1.0,-2.0,-2.0,-1.0,-3.0
1701718926.9167855,1.0,0.0,-1.0,0.0,0.0,-1.0,0.0,-1.0
1701718926.9167855,-2.0,0.0,-2.0,-2.0,-2.0,1.0,-2.0,-4.0
1701718926.9267287,0.0,0.0,-1.0,0.0,0.0,1.0,0.0,1.0
1701718926.9267287,-1.0,-1.0,-1.0,1.0,1.0,-1.0,-1.0,-2.0
1701718926.9464386,-1.0,-3.0,-1.0,0.0,-2.0,-1.0,-2.0,0.0
1701718926.9464386,1.0,0.0,-1.0,0.0,-1.0,0.0,-2.0,-2.0
1701718926.9564385,-2.0,-1.0,-1.0,-1.0,-3.0,-3.0,-1.0,-2.0
1701718926.9564385,0.0,0.0,-1.0,0.0,0.0,0.0,-1.0,0.0
1701718926.9666576,-3.0,-1.0,0.0,0.0,0.0,0.0,0.0,-1.0
1701718926.9666576,-2.0,-2.0,-2.0,-2.0,-2.0,0.0,-1.0,-1.0
1701718926.9666576,-2.0,-2.0,-2.0,-2.0,-3.0,-2.0,-3.0,0.0
1701718926.9666576,0.0,-2.0,-1.0,-1.0,-1.0,-2.0,-2.0,-2.0
1701718926.9766455,0.0,-1.0,-1.0,0.0,-1.0,-1.0,1.0,-1.0
1701718926.9766455,0.0,0.0,-3.0,-2.0,-1.0,-1.0,-1.0,0.0
1701718927.0164366,-1.0,-1.0,-1.0,-1.0,1.0,1.0,1.0,-2.0
1701718927.0164366,0.0,1.0,-1.0,0.0,-2.0,-2.0,-2.0,-1.0
1701718927.0164366,0.0,-1.0,-1.0,-2.0,-1.0,-2.0,-1.0,1.0
1701718927.0164366,-2.0,-1.0,1.0,-1.0,1.0,0.0,-1.0,-1.0
1701718927.0164366,-1.0,-2.0,-1.0,-1.0,-1.0,0.0,-3.0,-1.0
1701718927.0164366,-1.0,0.0,-1.0,-2.0,-1.0,-3.0,-1.0,-1.0
1701718927.0264626,1.0,-2.0,0.0,-1.0,0.0,-1.0,-1.0,0.0
1701718927.0264626,2.0,-1.0,-2.0,-1.0,-1.0,-3.0,0.0,-1.0
1701718927.0264626,-3.0,0.0,0.0,0.0,-1.0,0.0,-1.0,-1.0
1701718927.0264626,0.0,-1.0,-2.0,0.0,-1.0,-1.0,-2.0,-2.0
1701718927.0366187,-1.0,-1.0,-2.0,-1.0,-2.0,0.0,-1.0,-1.0
1701718927.0366187,-2.0,0.0,0.0,-2.0,-1.0,-1.0,-2.0,0.0
1701718927.0467124,-2.0,1.0,-1.0,-1.0,-1.0,-1.0,1.0,-1.0
1701718927.0467124,-1.0,0.0,-1.0,-2.0,1.0,1.0,0.0,-1.0
1701718927.066469,0.0,0.0,-1.0,-2.0,-2.0,0.0,-2.0,-3.0
1701718927.066469,-2.0,-1.0,0.0,1.0,0.0,-2.0,-1.0,0.0
1701718927.066469,-2.0,-1.0,-1.0,0.0,-2.0,-2.0,-2.0,0.0
1701718927.066469,-1.0,-2.0,-1.0,-1.0,-1.0,0.0,-2.0,1.0
1701718927.0868928,-1.0,-3.0,-1.0,-1.0,-1.0,0.0,0.0,-1.0
1701718927.0868928,0.0,-2.0,-1.0,-1.0,-1.0,0.0,-1.0,-2.0
1701718927.0868928,-2.0,0.0,-1.0,-1.0,-1.0,-1.0,-2.0,0.0
1701718927.0868928,-1.0,-1.0,-2.0,-1.0,-2.0,1.0,-2.0,0.0
1701718927.0968163,-2.0,0.0,-2.0,-1.0,-1.0,-2.0,-3.0,-1.0
1701718927.0968163,-2.0,-2.0,-1.0,0.0,-2.0,-2.0,0.0,-1.0
1701718927.1164398,0.0,-1.0,1.0,-2.0,-2.0,-1.0,1.0,0.0
1701718927.1164398,-1.0,-2.0,0.0,-2.0,-2.0,-1.0,0.0,-3.0
1701718927.1264703,0.0,-3.0,0.0,-1.0,-1.0,-2.0,-1.0,-2.0
1701718927.1264703,-2.0,-3.0,-3.0,-1.0,-1.0,-1.0,-2.0,-1.0
1701718927.1264703,0.0,-2.0,-2.0,-1.0,-1.0,-3.0,0.0,-2.0
1701718927.1264703,-2.0,-2.0,-1.0,0.0,-3.0,-2.0,-2.0,-2.0
1701718927.1511488,-1.0,0.0,-1.0,0.0,0.0,-1.0,0.0,-1.0
1701718927.1511488,-1.0,0.0,0.0,-2.0,0.0,-3.0,1.0,-1.0
1701718927.1521623,-1.0,-3.0,-1.0,0.0,0.0,0.0,-1.0,-1.0
1701718927.1521623,0.0,-2.0,0.0,0.0,-3.0,-1.0,-1.0,-1.0
1701718927.164176,-1.0,1.0,-2.0,-3.0,-1.0,-1.0,-2.0,-1.0
1701718927.164176,1.0,-2.0,-1.0,-1.0,-2.0,0.0,-2.0,-1.0
1701718927.1691678,-1.0,-1.0,-2.0,-1.0,-2.0,-1.0,-2.0,-1.0
1701718927.1691678,-1.0,-1.0,-1.0,-3.0,0.0,-3.0,-1.0,1.0
1701718927.179169,-1.0,0.0,0.0,-1.0,1.0,2.0,-2.0,1.0
1701718927.179169,0.0,0.0,-1.0,1.0,-1.0,-1.0,-1.0,0.0
1701718927.1894846,-1.0,-2.0,-2.0,0.0,-1.0,-1.0,-1.0,0.0
1701718927.1894846,-2.0,0.0,-2.0,-1.0,-2.0,-1.0,0.0,-1.0
1701718927.2095876,-2.0,0.0,-2.0,0.0,-1.0,-3.0,-2.0,-1.0
1701718927.2095876,-1.0,-1.0,-2.0,-3.0,-1.0,-1.0,-1.0,0.0
1701718927.2095876,1.0,1.0,-1.0,-3.0,-1.0,0.0,0.0,-2.0
1701718927.2095876,-2.0,0.0,-1.0,0.0,0.0,-1.0,-1.0,-1.0
1701718927.2192118,0.0,2.0,-1.0,-1.0,-1.0,-1.0,0.0,-1.0
1701718927.2192118,0.0,-1.0,-3.0,0.0,0.0,-1.0,-1.0,-2.0
1701718927.2292552,0.0,-2.0,-1.0,0.0,1.0,0.0,-1.0,1.0
1701718927.2292552,-1.0,-2.0,-1.0,-1.0,-2.0,0.0,1.0,-2.0
1701718927.2396362,-2.0,-4.0,-2.0,-1.0,-1.0,-1.0,0.0,-3.0
1701718927.2396362,-1.0,-2.0,-1.0,1.0,0.0,-1.0,-1.0,-1.0
1701718927.249559,0.0,0.0,-1.0,0.0,-2.0,-2.0,-3.0,-1.0
1701718927.249559,-3.0,-10.0,0.0,-2.0,-1.0,-1.0,0.0,-1.0
1701718927.270136,-1.0,-2.0,-1.0,-1.0,-3.0,0.0,-2.0,-1.0
1701718927.270136,-3.0,0.0,-1.0,-3.0,-2.0,-2.0,0.0,1.0
1701718927.270136,-2.0,2.0,-1.0,-1.0,0.0,-1.0,-1.0,0.0
1701718927.270136,0.0,-1.0,-1.0,0.0,-1.0,-2.0,-1.0,-1.0
1701718927.2896674,0.0,-1.0,1.0,-2.0,-1.0,-1.0,1.0,-1.0
1701718927.2896674,-1.0,-1.0,1.0,0.0,-1.0,-1.0,0.0,2.0
1701718927.2896674,-1.0,2.0,2.0,-3.0,0.0,-2.0,-1.0,-2.0
1701718927.2896674,-1.0,1.0,-1.0,1.0,0.0,0.0,-2.0,-3.0
1701718927.3000925,-1.0,-2.0,-1.0,0.0,-1.0,-2.0,-3.0,-1.0
1701718927.3000925,-1.0,-2.0,-3.0,-1.0,-1.0,0.0,0.0,-1.0
1701718927.3100204,-1.0,-3.0,-2.0,-1.0,-1.0,-1.0,0.0,0.0
1701718927.3100204,0.0,1.0,-1.0,-2.0,1.0,-1.0,-2.0,-4.0
1701718927.330136,-1.0,-2.0,-2.0,0.0,1.0,-1.0,0.0,-2.0
1701718927.330136,-1.0,-1.0,1.0,0.0,-1.0,0.0,0.0,-3.0
1701718927.330136,-2.0,-1.0,-2.0,-1.0,-1.0,-1.0,-2.0,-1.0
1701718927.330136,-3.0,-2.0,0.0,-1.0,-3.0,-2.0,-1.0,-1.0
1701718927.3396704,-1.0,-2.0,-2.0,-1.0,-1.0,-1.0,0.0,-1.0
1701718927.3396704,0.0,1.0,-5.0,-3.0,0.0,-1.0,-2.0,-2.0
1701718927.3496683,-1.0,-2.0,0.0,0.0,-2.0,-1.0,0.0,-2.0
1701718927.3496683,0.0,1.0,2.0,0.0,0.0,0.0,-1.0,1.0
1701718927.3599458,-1.0,6.0,-2.0,-1.0,-2.0,-1.0,0.0,-1.0
1701718927.3599458,-2.0,-4.0,-1.0,0.0,-2.0,-2.0,-1.0,-3.0
1701718927.369883,2.0,4.0,-1.0,-1.0,-1.0,1.0,0.0,-1.0
1701718927.369883,1.0,10.0,2.0,0.0,-1.0,-1.0,1.0,0.0
1701718927.38986,-2.0,-6.0,3.0,-4.0,-3.0,-4.0,-2.0,0.0
1701718927.38986,-2.0,3.0,8.0,-1.0,0.0,0.0,-2.0,0.0
1701718927.38986,-2.0,-1.0,-3.0,-2.0,0.0,-1.0,-3.0,-1.0
1701718927.38986,-3.0,-8.0,-14.0,0.0,-3.0,-1.0,-1.0,-2.0
1701718927.3999207,1.0,9.0,-10.0,-6.0,-4.0,0.0,0.0,-1.0
1701718927.3999207,0.0,2.0,7.0,2.0,0.0,0.0,-1.0,-2.0
1701718927.43967,2.0,8.0,1.0,-4.0,-1.0,-4.0,-2.0,-1.0
1701718927.43967,1.0,-3.0,5.0,0.0,-1.0,-1.0,0.0,1.0
1701718927.43967,-1.0,0.0,0.0,1.0,3.0,-1.0,-2.0,0.0
1701718927.43967,-2.0,-2.0,-5.0,-3.0,-3.0,-1.0,-1.0,-2.0
1701718927.43967,-1.0,-5.0,1.0,-1.0,-3.0,0.0,1.0,-4.0
1701718927.43967,0.0,0.0,1.0,-1.0,-2.0,0.0,0.0,0.0
1701718927.4496677,-1.0,-3.0,1.0,-2.0,-2.0,0.0,-1.0,0.0
1701718927.4496677,-2.0,-7.0,-6.0,-2.0,-10.0,-3.0,-2.0,-2.0
1701718927.4496677,-1.0,-5.0,-1.0,-10.0,0.0,0.0,-1.0,-1.0
1701718927.4496677,0.0,-2.0,-5.0,6.0,6.0,1.0,-1.0,0.0
1701718927.4600425,-1.0,-8.0,-2.0,2.0,2.0,0.0,-1.0,-2.0
1701718927.4600425,-1.0,2.0,1.0,2.0,2.0,0.0,0.0,0.0
1701718927.470073,-2.0,-3.0,1.0,0.0,-7.0,-2.0,0.0,0.0
1701718927.470073,0.0,0.0,1.0,-7.0,-5.0,-2.0,-3.0,-2.0
1701718927.4799964,-1.0,0.0,1.0,1.0,-1.0,-1.0,-1.0,-3.0
1701718927.4799964,-1.0,-2.0,-2.0,-4.0,-4.0,-1.0,-1.0,-2.0
1701718927.4899502,-2.0,-3.0,-1.0,1.0,-1.0,-2.0,-2.0,1.0
1701718927.4899502,-4.0,-3.0,-2.0,-1.0,2.0,-1.0,-2.0,-1.0
1701718927.5096684,0.0,0.0,1.0,1.0,-1.0,-2.0,-2.0,0.0
1701718927.5096684,2.0,-2.0,-1.0,-2.0,0.0,0.0,-1.0,-1.0
1701718927.5096684,-2.0,-4.0,-4.0,1.0,2.0,-1.0,0.0,-2.0
1701718927.5096684,-1.0,0.0,0.0,0.0,-1.0,-1.0,-1.0,-2.0
1701718927.530129,-1.0,-2.0,1.0,-2.0,-3.0,-1.0,-1.0,-2.0
1701718927.530129,-2.0,2.0,0.0,0.0,0.0,-1.0,-3.0,1.0
1701718927.530129,-1.0,-1.0,-2.0,2.0,1.0,1.0,0.0,-1.0
1701718927.530129,-1.0,1.0,0.0,-3.0,-2.0,-1.0,-1.0,-1.0
1701718927.5400572,-1.0,-3.0,-1.0,-1.0,-1.0,-2.0,1.0,1.0
1701718927.5400572,0.0,-2.0,-3.0,0.0,1.0,0.0,-1.0,0.0
1701718927.5500047,0.0,0.0,-2.0,0.0,0.0,-1.0,-1.0,-2.0
1701718927.5500047,-1.0,0.0,0.0,-2.0,-4.0,-2.0,-1.0,-3.0
1701718927.569668,-1.0,-2.0,-1.0,1.0,0.0,-1.0,-2.0,-2.0
1701718927.569668,1.0,0.0,0.0,0.0,-2.0,-1.0,-2.0,0.0
1701718927.569668,0.0,-1.0,-1.0,-1.0,-2.0,0.0,-1.0,-1.0
1701718927.569668,-1.0,-1.0,-1.0,-3.0,1.0,0.0,-2.0,-2.0
1701718927.590137,-1.0,0.0,0.0,-2.0,1.0,0.0,-1.0,-1.0
1701718927.590137,-1.0,-1.0,-2.0,0.0,1.0,-2.0,0.0,-2.0
1701718927.590137,-1.0,-2.0,-2.0,0.0,0.0,-2.0,-1.0,-2.0
1701718927.590137,-2.0,-1.0,-3.0,-1.0,-1.0,-1.0,0.0,-1.0
1701718927.6000621,0.0,0.0,-1.0,1.0,-3.0,0.0,-2.0,0.0
1701718927.6000621,-2.0,-2.0,-2.0,-2.0,0.0,0.0,-1.0,0.0
1701718927.6096706,-2.0,-1.0,-2.0,0.0,-1.0,0.0,-1.0,0.0
1701718927.6096706,0.0,0.0,-1.0,-1.0,0.0,-3.0,-2.0,-1.0
1701718927.629893,-2.0,-2.0,-1.0,-1.0,-2.0,-1.0,-1.0,-3.0
1701718927.629893,0.0,-1.0,-1.0,0.0,0.0,-3.0,-2.0,-3.0
1701718927.629893,0.0,-2.0,0.0,-1.0,-1.0,-2.0,-2.0,-1.0
1701718927.629893,0.0,-2.0,0.0,-1.0,-2.0,-2.0,0.0,-1.0
1701718927.6501212,-2.0,-3.0,-1.0,-2.0,-1.0,-1.0,-1.0,0.0
1701718927.6501212,-1.0,-1.0,-2.0,-1.0,-1.0,-1.0,-1.0,0.0
1701718927.6501212,-2.0,-1.0,-3.0,0.0,1.0,-1.0,-2.0,-2.0
1701718927.6501212,0.0,-3.0,-1.0,-1.0,-2.0,-2.0,-3.0,-1.0
1701718927.6672268,-1.0,-3.0,-2.0,-1.0,0.0,-1.0,-1.0,0.0
1701718927.6672268,1.0,-1.0,0.0,-2.0,-3.0,0.0,1.0,-2.0
1701718927.676512,-1.0,-1.0,0.0,-1.0,-2.0,-2.0,0.0,-2.0
1701718927.676512,-3.0,-1.0,-1.0,-1.0,0.0,0.0,-1.0,0.0
1701718927.6851294,0.0,0.0,-2.0,0.0,-1.0,-2.0,-1.0,-1.0
1701718927.6851294,-3.0,-2.0,-2.0,-1.0,1.0,0.0,-1.0,0.0
1701718927.6951644,-1.0,-1.0,0.0,-1.0,-1.0,-3.0,-1.0,-1.0
1701718927.6951644,-3.0,-2.0,-1.0,-1.0,0.0,-1.0,1.0,-3.0
1701718927.7055273,0.0,-1.0,0.0,-1.0,-2.0,-3.0,-1.0,-1.0
1701718927.7055273,0.0,-1.0,0.0,-1.0,0.0,-2.0,0.0,0.0
1701718927.7055273,-1.0,-2.0,-2.0,-1.0,-1.0,-1.0,-1.0,0.0
1701718927.7055273,0.0,-1.0,-1.0,0.0,-1.0,0.0,0.0,-1.0
1701718927.7251337,0.0,1.0,-1.0,-3.0,-2.0,-1.0,-2.0,-2.0
1701718927.7251337,-2.0,-1.0,-1.0,-1.0,-1.0,-1.0,-1.0,-1.0
1701718927.735132,-1.0,0.0,-1.0,-1.0,-1.0,1.0,-2.0,-1.0
1701718927.735132,-1.0,-2.0,-1.0,-2.0,0.0,-1.0,-1.0,0.0
1701718927.745501,-1.0,-1.0,-2.0,0.0,-1.0,0.0,-1.0,-1.0
1701718927.745501,0.0,-1.0,0.0,-2.0,-1.0,-1.0,0.0,-1.0
1701718927.7554967,-1.0,-1.0,-2.0,0.0,-1.0,-1.0,-1.0,-1.0
1701718927.7554967,-1.0,-1.0,0.0,-1.0,-1.0,-2.0,-1.0,0.0
1701718927.7655678,1.0,-1.0,-1.0,-1.0,0.0,-1.0,1.0,-1.0
1701718927.7655678,-1.0,0.0,-1.0,-1.0,-1.0,0.0,-3.0,-2.0
1701718927.7655678,-1.0,-1.0,0.0,-2.0,0.0,-1.0,-1.0,1.0
1701718927.7655678,-1.0,-1.0,-1.0,-1.0,-3.0,-2.0,-2.0,0.0
1701718927.7851336,-1.0,-3.0,-1.0,-1.0,1.0,-2.0,0.0,0.0
1701718927.7851336,-2.0,-1.0,0.0,-1.0,-1.0,-1.0,-1.0,-1.0
1701718927.7951312,-2.0,-1.0,-1.0,-2.0,-2.0,0.0,-1.0,0.0
1701718927.7951312,-1.0,-2.0,-1.0,1.0,-1.0,-1.0,-1.0,-1.0
1701718927.805366,-3.0,-1.0,-2.0,0.0,-1.0,-1.0,-1.0,0.0
1701718927.805366,-2.0,0.0,-2.0,0.0,0.0,0.0,-1.0,-2.0
1701718927.815138,0.0,-2.0,-1.0,-1.0,-2.0,1.0,-1.0,0.0
1701718927.815138,0.0,1.0,-1.0,-1.0,-1.0,-2.0,-2.0,-2.0
1701718927.825402,-3.0,-3.0,-2.0,-1.0,-2.0,-1.0,-1.0,-1.0
1701718927.825402,-1.0,-2.0,1.0,-1.0,-1.0,-1.0,0.0,0.0
1701718927.845133,-1.0,-1.0,-1.0,1.0,-1.0,-1.0,-1.0,-2.0
1701718927.845133,0.0,-1.0,-1.0,-1.0,-2.0,0.0,-1.0,0.0
1701718927.8551316,1.0,1.0,1.0,-1.0,0.0,-1.0,-1.0,-3.0
1701718927.8551316,0.0,-1.0,-2.0,-1.0,-1.0,-1.0,-1.0,-2.0
1701718927.8551316,-2.0,-2.0,-2.0,0.0,0.0,-1.0,0.0,-1.0
1701718927.8551316,-3.0,-3.0,-1.0,-1.0,0.0,0.0,-2.0,0.0
1701718927.8654163,-1.0,-1.0,-2.0,-2.0,-2.0,0.0,-1.0,-1.0
1701718927.8654163,-2.0,0.0,-1.0,0.0,-2.0,-1.0,-1.0,-1.0
1701718927.8754046,-1.0,0.0,1.0,-1.0,-1.0,0.0,-1.0,-2.0
1701718927.8754046,-3.0,-3.0,-2.0,-1.0,-1.0,-1.0,-1.0,-3.0
1701718927.8951354,-1.0,0.0,0.0,0.0,-1.0,-2.0,-2.0,-1.0
1701718927.8951354,0.0,-1.0,-3.0,-2.0,-3.0,-1.0,0.0,-1.0
1701718927.9151309,0.0,0.0,-1.0,-2.0,0.0,-2.0,-3.0,-1.0
1701718927.9151309,-1.0,-1.0,-1.0,0.0,1.0,-1.0,0.0,-2.0
1701718927.9151309,-2.0,0.0,-1.0,-2.0,-1.0,1.0,0.0,-2.0
1701718927.9151309,-1.0,0.0,-2.0,-1.0,-1.0,-2.0,0.0,-2.0
1701718927.9151309,-1.0,-2.0,-1.0,-1.0,-3.0,1.0,-1.0,-1.0
1701718927.9151309,0.0,0.0,-2.0,-2.0,-2.0,0.0,1.0,-1.0
1701718927.9253752,-2.0,0.0,-1.0,1.0,-1.0,-1.0,-2.0,-2.0
1701718927.9253752,1.0,-2.0,0.0,0.0,-2.0,1.0,-1.0,-1.0
1701718927.9354205,0.0,-1.0,-1.0,0.0,0.0,1.0,1.0,-2.0
1701718927.9354205,0.0,-1.0,-1.0,-1.0,-2.0,-2.0,-1.0,-2.0
1701718927.9551346,1.0,-1.0,-1.0,-2.0,-1.0,-1.0,0.0,0.0
1701718927.9551346,0.0,0.0,-1.0,0.0,0.0,-2.0,-3.0,0.0
1701718927.9651318,0.0,1.0,-2.0,1.0,-2.0,-2.0,-1.0,-1.0
1701718927.9651318,0.0,-1.0,-2.0,-6.0,-1.0,-1.0,0.0,-2.0
1701718927.9651318,-3.0,-3.0,-1.0,0.0,0.0,1.0,-1.0,-4.0
1701718927.9651318,-2.0,-1.0,0.0,0.0,-2.0,-1.0,-2.0,-2.0
1701718927.9751308,0.0,1.0,0.0,-2.0,-1.0,-3.0,-1.0,-3.0
1701718927.9751308,-2.0,0.0,0.0,0.0,-1.0,0.0,-1.0,-1.0
1701718927.98552,1.0,-1.0,-2.0,0.0,-1.0,-1.0,-1.0,-1.0
1701718927.98552,-1.0,-3.0,-3.0,-2.0,0.0,-2.0,-2.0,1.0
1701718927.9951315,-2.0,-3.0,-1.0,0.0,-1.0,-1.0,1.0,0.0
1701718927.9951315,-1.0,-3.0,-2.0,0.0,-1.0,0.0,-1.0,-1.0
1701718928.0151327,0.0,0.0,0.0,-1.0,-1.0,0.0,1.0,0.0
1701718928.0151327,-1.0,-2.0,0.0,-1.0,0.0,-3.0,-1.0,-1.0
1701718928.0151327,0.0,-1.0,-2.0,-4.0,-2.0,-2.0,-1.0,-2.0
1701718928.0151327,-1.0,-1.0,-2.0,-2.0,-1.0,0.0,-1.0,0.0
1701718928.0251317,-2.0,-1.0,-1.0,-1.0,-1.0,-1.0,-1.0,-1.0
1701718928.0251317,0.0,0.0,-1.0,-2.0,-3.0,-1.0,0.0,-3.0
1701718928.035133,1.0,-2.0,0.0,-2.0,0.0,-1.0,-2.0,-1.0
1701718928.035133,-2.0,-1.0,-3.0,-1.0,0.0,-1.0,-2.0,-1.0
1701718928.045582,-1.0,-2.0,-1.0,-2.0,-1.0,-3.0,-2.0,2.0
1701718928.045582,-2.0,-1.0,-2.0,-1.0,0.0,-2.0,-2.0,0.0
1701718928.055505,-2.0,-1.0,0.0,0.0,0.0,0.0,-3.0,0.0
1701718928.055505,0.0,-1.0,-2.0,1.0,-1.0,-1.0,-2.0,0.0
1701718928.0751877,0.0,-1.0,-2.0,-2.0,-2.0,-1.0,-3.0,-1.0
1701718928.0751877,0.0,-2.0,-2.0,-3.0,0.0,-1.0,-1.0,-2.0
1701718928.0751877,0.0,0.0,-3.0,0.0,0.0,0.0,1.0,-1.0
1701718928.0751877,-1.0,-1.0,1.0,0.0,-1.0,-2.0,-1.0,2.0
1701718928.0853083,-1.0,0.0,0.0,0.0,-2.0,-2.0,-1.0,-3.0
1701718928.0853083,0.0,0.0,-1.0,-1.0,-1.0,-2.0,-1.0,-2.0
1701718928.0952013,-2.0,0.0,-1.0,-2.0,-2.0,-1.0,-2.0,-3.0
1701718928.0952013,0.0,-1.0,0.0,-1.0,-1.0,-1.0,0.0,-2.0
1701718928.1056406,-1.0,-1.0,0.0,-2.0,1.0,-2.0,-1.0,-1.0
1701718928.1056406,0.0,-2.0,0.0,-1.0,0.0,1.0,-1.0,0.0
1701718928.115201,0.0,0.0,-2.0,1.0,-1.0,-2.0,-2.0,-2.0
1701718928.115201,-2.0,0.0,-1.0,0.0,-1.0,-1.0,-1.0,0.0
1701718928.1251998,0.0,-1.0,0.0,0.0,-2.0,-2.0,-1.0,0.0
1701718928.1251998,-1.0,1.0,-2.0,-1.0,-4.0,0.0,-1.0,0.0
1701718928.1251998,-2.0,-1.0,-1.0,-2.0,-1.0,-2.0,0.0,0.0
1701718928.1251998,-1.0,-1.0,1.0,-1.0,0.0,0.0,-2.0,-1.0
1701718928.1456437,-1.0,-3.0,0.0,-2.0,0.0,-1.0,0.0,-1.0
1701718928.1456437,-2.0,-1.0,-1.0,-1.0,-1.0,-2.0,-2.0,0.0
1701718928.1556578,0.0,-2.0,-1.0,-1.0,-2.0,-1.0,-1.0,0.0
1701718928.1556578,-1.0,-1.0,0.0,0.0,-1.0,-1.0,-1.0,-2.0
1701718928.1659272,-2.0,-1.0,0.0,-1.0,0.0,-2.0,1.0,-1.0
1701718928.1659272,-2.0,-1.0,-1.0,0.0,0.0,-2.0,1.0,-1.0
1701718928.175696,-1.0,0.0,-1.0,0.0,1.0,-1.0,-1.0,0.0
1701718928.175696,-1.0,1.0,-2.0,-2.0,-3.0,0.0,-1.0,-1.0
1701718928.1856558,-2.0,-1.0,0.0,-1.0,-2.0,1.0,-3.0,-1.0
1701718928.1856558,-1.0,0.0,0.0,0.0,-1.0,-2.0,0.0,-1.0
1701718928.1856558,0.0,-1.0,-2.0,-2.0,-1.0,-1.0,0.0,-1.0
1701718928.1856558,-2.0,-1.0,-2.0,0.0,-1.0,-2.0,-1.0,1.0
1701718928.206723,-1.0,0.0,-1.0,0.0,0.0,-1.0,-1.0,0.0
1701718928.206723,-1.0,-2.0,-1.0,-1.0,-1.0,0.0,-4.0,-1.0
1701718928.2157335,-3.0,-1.0,-1.0,-1.0,1.0,-1.0,0.0,0.0
1701718928.2157335,0.0,0.0,-2.0,-2.0,1.0,-1.0,0.0,-1.0
1701718928.2287483,0.0,0.0,-2.0,-2.0,-1.0,0.0,-1.0,-1.0
1701718928.2287483,-2.0,-1.0,0.0,1.0,-1.0,0.0,0.0,-1.0
1701718928.2287483,0.0,-1.0,0.0,-1.0,-1.0,0.0,-1.0,-2.0
1701718928.2287483,-1.0,-2.0,-2.0,-1.0,-2.0,-1.0,-1.0,-1.0
1701718928.2483363,-1.0,0.0,-1.0,-1.0,0.0,-3.0,0.0,-1.0
1701718928.2483363,0.0,0.0,-2.0,-1.0,0.0,-2.0,1.0,-1.0
1701718928.2483363,-1.0,0.0,0.0,-2.0,-1.0,-1.0,-3.0,-1.0
1701718928.2483363,-1.0,-1.0,0.0,1.0,-2.0,-1.0,-1.0,-1.0
1701718928.2586803,0.0,-3.0,-1.0,0.0,0.0,0.0,-3.0,0.0
1701718928.2586803,-1.0,0.0,-2.0,-2.0,-1.0,0.0,-2.0,-1.0
1701718928.2686322,-2.0,-1.0,-2.0,-1.0,-3.0,0.0,-1.0,-1.0
1701718928.2686322,0.0,-1.0,-1.0,-1.0,0.0,-2.0,0.0,-2.0
1701718928.2883024,-1.0,-1.0,-1.0,-1.0,-1.0,-1.0,0.0,-1.0
1701718928.2883024,-1.0,-2.0,-1.0,-2.0,0.0,-1.0,-1.0,0.0
1701718928.2883024,-1.0,-1.0,-2.0,0.0,-2.0,-1.0,0.0,-1.0
1701718928.2883024,1.0,-1.0,-2.0,-2.0,-2.0,-1.0,-2.0,0.0
1701718928.308601,0.0,1.0,-1.0,0.0,1.0,0.0,0.0,-1.0
1701718928.308601,0.0,-1.0,-2.0,-2.0,0.0,-2.0,0.0,-1.0
1701718928.3185859,-1.0,-1.0,-1.0,-1.0,-1.0,0.0,-1.0,-1.0
1701718928.3185859,-1.0,-1.0,-1.0,0.0,0.0,1.0,-2.0,-3.0
1701718928.3185859,-1.0,0.0,-1.0,-2.0,-1.0,-1.0,-1.0,-2.0
1701718928.3185859,-2.0,-3.0,-1.0,-2.0,-2.0,1.0,0.0,-1.0
1701718928.3284607,-2.0,-2.0,-1.0,-1.0,0.0,-2.0,0.0,-2.0
1701718928.3284607,-1.0,-1.0,-1.0,0.0,-2.0,-2.0,-1.0,0.0
1701718928.368299,-1.0,-2.0,-1.0,-2.0,-2.0,0.0,-2.0,-1.0
1701718928.368299,-2.0,-3.0,0.0,-1.0,-1.0,0.0,-2.0,-1.0
1701718928.368299,-1.0,-1.0,-1.0,-3.0,0.0,0.0,1.0,0.0
1701718928.368299,-1.0,-2.0,-1.0,-1.0,0.0,-2.0,-1.0,-2.0
1701718928.368299,1.0,-2.0,-1.0,0.0,0.0,-2.0,-2.0,-2.0
1701718928.368299,-1.0,0.0,-1.0,1.0,-2.0,0.0,-2.0,-1.0
1701718928.3787036,-1.0,-1.0,-2.0,-1.0,-1.0,-1.0,-3.0,-2.0
1701718928.3787036,-1.0,-1.0,0.0,-2.0,-1.0,-3.0,0.0,0.0
1701718928.3787036,0.0,-1.0,-2.0,-2.0,0.0,0.0,1.0,0.0
1701718928.3787036,1.0,-1.0,-2.0,-1.0,-1.0,-2.0,-2.0,-2.0
1701718928.3886433,-1.0,-1.0,-1.0,1.0,0.0,-1.0,-2.0,0.0
1701718928.3886433,-3.0,0.0,-1.0,-1.0,-1.0,1.0,-2.0,-1.0
1701718928.4083018,-3.0,1.0,0.0,0.0,-3.0,-3.0,-2.0,-2.0
1701718928.4083018,-2.0,-1.0,-3.0,0.0,-1.0,-1.0,-1.0,0.0
1701718928.4083018,0.0,0.0,0.0,0.0,-2.0,-2.0,0.0,-1.0
1701718928.4083018,-1.0,-3.0,0.0,-2.0,-1.0,0.0,-1.0,0.0
1701718928.4285862,-2.0,-1.0,0.0,0.0,-2.0,-2.0,-1.0,-1.0
1701718928.4285862,0.0,4.0,-1.0,-1.0,0.0,-1.0,-3.0,-2.0
1701718928.4385853,0.0,-5.0,-4.0,-3.0,0.0,-1.0,-3.0,-2.0
1701718928.4385853,0.0,3.0,0.0,-2.0,-1.0,-1.0,-2.0,-1.0
1701718928.46836,0.0,-1.0,-1.0,-3.0,-2.0,0.0,0.0,0.0
1701718928.46836,-1.0,-3.0,-3.0,-2.0,-1.0,-1.0,-1.0,-3.0
1701718928.46836,-1.0,0.0,3.0,-3.0,-1.0,-2.0,-1.0,0.0
1701718928.46836,-1.0,-5.0,-3.0,0.0,-1.0,-1.0,-1.0,1.0
1701718928.46836,-2.0,0.0,0.0,0.0,0.0,0.0,-2.0,-2.0
1701718928.46836,-1.0,-1.0,0.0,-2.0,-1.0,0.0,0.0,1.0
1701718928.46836,0.0,-5.0,-1.0,1.0,-1.0,-1.0,0.0,-1.0
1701718928.46836,-1.0,-2.0,3.0,0.0,0.0,0.0,0.0,-1.0
1701718928.4888356,1.0,3.0,1.0,1.0,0.0,-1.0,-1.0,-1.0
1701718928.4888356,-1.0,-6.0,0.0,-1.0,-2.0,0.0,1.0,0.0
1701718928.4987085,-2.0,5.0,-7.0,0.0,-1.0,-1.0,-1.0,-2.0
1701718928.4987085,2.0,9.0,6.0,-1.0,0.0,-2.0,-1.0,-2.0
1701718928.5083745,-1.0,-17.0,-6.0,-1.0,2.0,-1.0,-2.0,-2.0
1701718928.5083745,0.0,-2.0,1.0,1.0,2.0,-2.0,-1.0,-2.0
1701718928.5083745,-2.0,-1.0,1.0,-4.0,-1.0,-2.0,-1.0,-2.0
1701718928.5083745,1.0,10.0,1.0,-2.0,0.0,0.0,0.0,-2.0
1701718928.528798,-1.0,0.0,10.0,-2.0,-1.0,-2.0,-2.0,-1.0
1701718928.528798,-1.0,-6.0,-17.0,-3.0,-3.0,-3.0,-1.0,0.0
1701718928.528798,0.0,-1.0,-2.0,-1.0,-3.0,-1.0,-1.0,1.0
1701718928.528798,-3.0,-6.0,0.0,-1.0,-3.0,0.0,-1.0,-2.0
1701718928.5488327,-1.0,3.0,-1.0,-1.0,-2.0,-1.0,-1.0,-2.0
1701718928.5488327,-3.0,-4.0,3.0,-2.0,-3.0,-2.0,-2.0,-2.0
1701718928.5589075,-1.0,-1.0,-1.0,-2.0,-1.0,0.0,-1.0,-2.0
1701718928.5589075,-1.0,-5.0,-4.0,0.0,1.0,-3.0,-1.0,-3.0
1701718928.5888448,0.0,5.0,-1.0,-1.0,-1.0,0.0,-1.0,-1.0
1701718928.5888448,0.0,6.0,5.0,0.0,-1.0,0.0,0.0,0.0
1701718928.5888448,-1.0,-1.0,-3.0,1.0,-2.0,-1.0,-1.0,-1.0
1701718928.5888448,-1.0,-4.0,-4.0,-2.0,-1.0,-1.0,-1.0,0.0
1701718928.5888448,-1.0,-1.0,-4.0,-2.0,-3.0,-3.0,0.0,-1.0
1701718928.5888448,-1.0,0.0,0.0,-2.0,-2.0,-2.0,-2.0,-2.0
1701718928.5888448,0.0,-1.0,2.0,0.0,1.0,1.0,-1.0,-1.0
1701718928.5888448,0.0,-3.0,-1.0,0.0,-2.0,-1.0,-2.0,-1.0
1701718928.6092274,-1.0,-2.0,-2.0,-3.0,-3.0,-1.0,0.0,1.0
1701718928.6092274,-1.0,-1.0,-1.0,-1.0,-2.0,-1.0,2.0,-2.0
1701718928.6191144,-2.0,-1.0,0.0,0.0,0.0,-1.0,0.0,0.0
1701718928.6191144,-3.0,-2.0,-2.0,-1.0,-3.0,0.0,-2.0,-1.0
1701718928.6388443,-2.0,-1.0,-5.0,-1.0,-1.0,-1.0,0.0,-2.0
1701718928.6388443,-1.0,-1.0,-1.0,-1.0,-1.0,0.0,0.0,0.0
1701718928.6388443,-2.0,-2.0,2.0,1.0,-1.0,-2.0,-1.0,-1.0
1701718928.6388443,-1.0,-2.0,-1.0,-2.0,0.0,1.0,0.0,-2.0
1701718928.6491098,-2.0,-2.0,-3.0,0.0,-2.0,0.0,-1.0,-1.0
1701718928.6491098,-1.0,0.0,-1.0,1.0,-1.0,-1.0,-1.0,1.0
1701718928.6491098,-2.0,-1.0,-1.0,-2.0,-2.0,-2.0,-1.0,0.0
1701718928.6491098,0.0,-2.0,-2.0,-1.0,0.0,-3.0,1.0,-2.0
1701718928.669001,-1.0,-2.0,-1.0,0.0,-2.0,-1.0,-1.0,0.0
1701718928.669001,-1.0,-1.0,2.0,-2.0,0.0,-2.0,-3.0,-1.0
1701718928.688894,-1.0,0.0,-1.0,-2.0,0.0,-2.0,0.0,0.0
1701718928.688894,-1.0,-1.0,-2.0,-1.0,-2.0,0.0,2.0,-1.0
1701718928.688894,-1.0,-1.0,-1.0,-1.0,0.0,-1.0,-1.0,0.0
1701718928.688894,-1.0,0.0,0.0,0.0,-1.0,-1.0,-1.0,-2.0
1701718928.688894,0.0,-1.0,0.0,-1.0,0.0,1.0,0.0,-1.0
1701718928.688894,-1.0,-1.0,-1.0,-1.0,0.0,-2.0,-1.0,-1.0
1701718928.7091227,1.0,1.0,-1.0,1.0,-2.0,-2.0,-1.0,-3.0
1701718928.7091227,0.0,0.0,1.0,0.0,-3.0,0.0,0.0,1.0
1701718928.7091227,0.0,0.0,1.0,-1.0,-1.0,0.0,-3.0,-3.0
1701718928.7091227,-1.0,-1.0,-1.0,-1.0,-2.0,-2.0,-1.0,0.0
1701718928.732584,-3.0,-1.0,-3.0,-1.0,-1.0,-2.0,-1.0,0.0
1701718928.732584,-2.0,-1.0,-2.0,0.0,-1.0,-1.0,1.0,-2.0
1701718928.743542,0.0,0.0,-2.0,-1.0,-1.0,0.0,0.0,0.0
1701718928.743542,-2.0,0.0,-2.0,0.0,0.0,-2.0,-2.0,-2.0
1701718928.751022,0.0,1.0,-1.0,-1.0,-1.0,-1.0,0.0,0.0
1701718928.751022,-2.0,2.0,-1.0,1.0,0.0,-1.0,-1.0,-1.0
1701718928.751022,0.0,-1.0,-1.0,0.0,-2.0,0.0,-2.0,-2.0
1701718928.751022,0.0,-1.0,-1.0,0.0,-3.0,0.0,-1.0,0.0
1701718928.7710755,-2.0,-1.0,0.0,-1.0,-1.0,-1.0,0.0,-1.0
1701718928.7710755,0.0,-1.0,-1.0,-2.0,-1.0,-1.0,1.0,0.0
1701718928.7810223,0.0,-3.0,-1.0,0.0,0.0,0.0,-2.0,0.0
1701718928.7810223,-3.0,-2.0,-2.0,-1.0,-1.0,-1.0,0.0,-1.0
1701718928.7911885,-2.0,0.0,0.0,-1.0,-1.0,-2.0,-1.0,-2.0
1701718928.7911885,-1.0,1.0,-1.0,-1.0,0.0,-2.0,-3.0,-1.0
1701718928.8110213,-2.0,1.0,-2.0,-1.0,-2.0,-2.0,-1.0,-1.0
1701718928.8110213,-1.0,0.0,-2.0,-1.0,1.0,-1.0,0.0,-1.0
1701718928.8110213,-1.0,0.0,-2.0,-1.0,-1.0,-1.0,-1.0,0.0
1701718928.8110213,0.0,-1.0,-1.0,0.0,0.0,0.0,-1.0,-2.0
1701718928.8110213,0.0,-2.0,-2.0,-1.0,-1.0,-1.0,0.0,-1.0
1701718928.8110213,0.0,-2.0,-2.0,-1.0,-1.0,-2.0,-2.0,-2.0
1701718928.821196,-1.0,-1.0,-2.0,-2.0,-2.0,-1.0,-1.0,-2.0
1701718928.821196,-1.0,-2.0,-1.0,0.0,-1.0,1.0,-1.0,-1.0
1701718928.8311977,-1.0,-1.0,-1.0,-2.0,1.0,-1.0,-1.0,1.0
1701718928.8311977,-2.0,-1.0,0.0,-1.0,-1.0,0.0,-1.0,-1.0
1701718928.851182,0.0,-1.0,-1.0,0.0,0.0,0.0,-2.0,0.0
1701718928.851182,-1.0,-2.0,-1.0,0.0,-1.0,-1.0,-2.0,-2.0
1701718928.8710496,1.0,-1.0,0.0,0.0,0.0,-2.0,0.0,-1.0
1701718928.8710496,-1.0,-1.0,-3.0,-1.0,-2.0,-1.0,0.0,0.0
1701718928.8710496,0.0,-2.0,-1.0,-2.0,-1.0,0.0,-2.0,-2.0
1701718928.8710496,1.0,-1.0,-1.0,-2.0,-2.0,-2.0,-1.0,0.0
1701718928.8710496,-2.0,-1.0,-2.0,-2.0,-2.0,-1.0,0.0,0.0
1701718928.8710496,1.0,-1.0,1.0,-1.0,-1.0,-2.0,-1.0,1.0
1701718928.8810184,-2.0,-2.0,0.0,-1.0,-2.0,-2.0,-1.0,-3.0
1701718928.8810184,-1.0,0.0,-2.0,0.0,0.0,0.0,-2.0,-1.0
1701718928.901027,-2.0,-3.0,-1.0,-1.0,-1.0,0.0,-1.0,-2.0
1701718928.901027,-1.0,-2.0,0.0,-1.0,1.0,0.0,-3.0,-3.0
1701718928.9110196,-2.0,-1.0,-1.0,-1.0,0.0,-1.0,-1.0,0.0
1701718928.9110196,-1.0,-1.0,0.0,-1.0,0.0,-2.0,-2.0,-2.0
1701718928.9110196,0.0,1.0,-1.0,0.0,-2.0,-1.0,-1.0,-1.0
1701718928.9110196,-2.0,-1.0,-2.0,0.0,-2.0,-2.0,0.0,0.0
1701718928.9313934,1.0,-1.0,-2.0,-2.0,-1.0,0.0,-2.0,-2.0
1701718928.9313934,0.0,-2.0,1.0,0.0,0.0,-1.0,0.0,0.0
1701718928.9313934,-2.0,0.0,-2.0,-2.0,-1.0,-2.0,-1.0,-2.0
1701718928.9313934,0.0,1.0,1.0,0.0,-1.0,0.0,-1.0,0.0
1701718928.9413567,-1.0,-2.0,-1.0,0.0,-1.0,-1.0,-1.0,-1.0
1701718928.9413567,-2.0,-2.0,-1.0,-2.0,-1.0,-2.0,0.0,0.0
1701718928.971019,-1.0,0.0,0.0,-1.0,-2.0,0.0,0.0,-2.0
1701718928.971019,-1.0,0.0,-1.0,-1.0,-1.0,-1.0,-1.0,0.0
1701718928.971019,-3.0,1.0,-1.0,-1.0,-2.0,-1.0,1.0,-1.0
1701718928.971019,0.0,-1.0,-1.0,-1.0,-1.0,0.0,-1.0,-2.0
1701718928.971019,-1.0,-1.0,-1.0,0.0,-1.0,-1.0,-2.0,-2.0
1701718928.971019,-2.0,-1.0,-1.0,-1.0,-2.0,0.0,-1.0,-1.0
1701718928.991483,-1.0,-1.0,0.0,-1.0,-1.0,-1.0,-2.0,-1.0
1701718928.991483,-3.0,-1.0,-2.0,-2.0,-2.0,-1.0,-1.0,-2.0
1701718928.991483,0.0,-1.0,-2.0,-1.0,-1.0,-1.0,-1.0,0.0
1701718928.991483,-1.0,-1.0,-2.0,-2.0,0.0,-1.0,-1.0,-1.0
1701718929.0018075,-1.0,-1.0,-2.0,-1.0,-1.0,-1.0,-1.0,-1.0
1701718929.0018075,-1.0,-1.0,-1.0,0.0,-1.0,1.0,-2.0,0.0
1701718929.0215354,0.0,-2.0,0.0,1.0,0.0,0.0,0.0,-1.0
1701718929.0215354,-1.0,-1.0,-1.0,1.0,-1.0,-1.0,-1.0,-3.0
1701718929.0316606,-2.0,0.0,-2.0,-3.0,0.0,0.0,0.0,-1.0
1701718929.0316606,-1.0,0.0,-1.0,-1.0,-1.0,-2.0,1.0,1.0
1701718929.0316606,0.0,-2.0,-1.0,0.0,0.0,-1.0,-1.0,-1.0
1701718929.0316606,2.0,-2.0,-1.0,-1.0,-1.0,-2.0,-2.0,0.0
1701718929.0520043,-1.0,-2.0,0.0,0.0,-1.0,-1.0,-2.0,-2.0
1701718929.0520043,-2.0,-1.0,0.0,-2.0,-1.0,-2.0,-1.0,0.0
1701718929.0520043,-1.0,-2.0,-2.0,-1.0,-3.0,-1.0,-2.0,-2.0
1701718929.0520043,-2.0,-1.0,-2.0,-2.0,-1.0,0.0,-1.0,-2.0
1701718929.0619223,1.0,-1.0,-1.0,-2.0,0.0,-1.0,-1.0,-1.0
1701718929.0619223,1.0,0.0,-1.0,-1.0,-1.0,-1.0,-1.0,-2.0
1701718929.0717127,-1.0,-1.0,0.0,1.0,0.0,0.0,0.0,0.0
1701718929.0717127,0.0,-1.0,-2.0,-2.0,-1.0,-1.0,-2.0,-1.0
1701718929.091657,-1.0,-2.0,0.0,1.0,-1.0,0.0,-1.0,-1.0
1701718929.091657,-2.0,-1.0,-2.0,-1.0,-1.0,0.0,-1.0,-1.0
1701718929.091657,1.0,0.0,-1.0,-1.0,-3.0,-1.0,-1.0,0.0
1701718929.091657,-1.0,1.0,-1.0,-1.0,0.0,-2.0,-1.0,0.0
1701718929.1116538,-1.0,0.0,0.0,1.0,-1.0,0.0,0.0,-2.0
1701718929.1116538,0.0,-1.0,-1.0,1.0,-1.0,-1.0,-1.0,-1.0
1701718929.1116538,-1.0,-1.0,-2.0,0.0,0.0,-1.0,0.0,-3.0
1701718929.1116538,-1.0,0.0,-2.0,1.0,0.0,-1.0,0.0,-2.0
1701718929.121944,-2.0,1.0,-1.0,-2.0,-2.0,-2.0,-1.0,-1.0
1701718929.121944,-2.0,0.0,1.0,-1.0,-1.0,0.0,-2.0,-1.0
1701718929.1416748,-2.0,-2.0,-2.0,-1.0,-1.0,0.0,-2.0,0.0
1701718929.1416748,0.0,-1.0,0.0,-2.0,-1.0,-3.0,-2.0,0.0
1701718929.151708,0.0,-2.0,-2.0,-2.0,0.0,-1.0,-1.0,0.0
1701718929.151708,0.0,0.0,-3.0,-1.0,-1.0,-2.0,-1.0,-2.0
1701718929.151708,-2.0,0.0,0.0,-2.0,-1.0,-1.0,-1.0,-1.0
1701718929.151708,-2.0,-2.0,-1.0,-1.0,0.0,1.0,-1.0,0.0
1701718929.1720238,2.0,-2.0,-2.0,0.0,-2.0,-1.0,0.0,0.0
1701718929.1720238,-1.0,-2.0,-2.0,-2.0,0.0,-2.0,0.0,0.0
1701718929.1720238,-1.0,-2.0,-1.0,-3.0,0.0,-1.0,-1.0,-2.0
1701718929.1720238,-1.0,-3.0,-2.0,0.0,-1.0,0.0,-1.0,-2.0
1701718929.1819313,-1.0,-2.0,0.0,-2.0,0.0,0.0,-2.0,-1.0
1701718929.1819313,-1.0,0.0,-1.0,-1.0,-1.0,0.0,-1.0,0.0
1701718929.2116761,-2.0,0.0,-1.0,-1.0,-1.0,-1.0,-1.0,-2.0
1701718929.2116761,-2.0,-1.0,-2.0,0.0,-1.0,-2.0,0.0,-1.0
1701718929.2116761,-2.0,-2.0,-3.0,-2.0,0.0,-1.0,-1.0,-2.0
1701718929.2116761,-2.0,0.0,-1.0,-2.0,-1.0,-1.0,0.0,-2.0
1701718929.2116761,0.0,-2.0,0.0,0.0,-2.0,0.0,-2.0,0.0
1701718929.2116761,-2.0,-1.0,-1.0,-1.0,-2.0,-1.0,-2.0,0.0
1701718929.231968,-1.0,-2.0,-1.0,-1.0,0.0,-2.0,-1.0,-1.0
1701718929.231968,-1.0,-1.0,0.0,-2.0,1.0,-1.0,-1.0,0.0
1701718929.231968,-2.0,-2.0,-1.0,-2.0,-1.0,-1.0,-2.0,0.0
1701718929.231968,0.0,-1.0,0.0,0.0,-1.0,-1.0,-1.0,0.0
1701718929.2674675,-1.0,1.0,0.0,-1.0,0.0,-2.0,0.0,-2.0
1701718929.2674675,-1.0,0.0,-2.0,-1.0,-2.0,-1.0,-4.0,0.0
1701718929.2674675,2.0,0.0,0.0,-2.0,0.0,-1.0,-1.0,1.0
1701718929.2674675,0.0,-2.0,0.0,-2.0,-1.0,0.0,-3.0,-2.0
1701718929.272097,-2.0,0.0,-2.0,-1.0,-1.0,-2.0,0.0,-2.0
1701718929.272097,-1.0,-3.0,-2.0,-1.0,-2.0,-1.0,-2.0,-2.0
1701718929.2791095,-2.0,-2.0,-1.0,-1.0,-2.0,-1.0,-1.0,-1.0
1701718929.2791095,-1.0,-1.0,0.0,-2.0,-1.0,0.0,-1.0,-1.0
1701718929.3036888,-1.0,0.0,-1.0,0.0,-1.0,-1.0,-2.0,1.0
1701718929.3036888,0.0,-2.0,-1.0,-1.0,0.0,-1.0,1.0,-2.0
1701718929.3036888,-1.0,0.0,-2.0,-1.0,-1.0,-1.0,0.0,1.0
1701718929.3036888,-2.0,-2.0,1.0,-3.0,-1.0,-3.0,-1.0,1.0
1701718929.3036888,-1.0,0.0,-1.0,0.0,-2.0,-1.0,-2.0,-2.0
1701718929.3036888,-1.0,-1.0,-1.0,-2.0,-2.0,-1.0,-1.0,-1.0
1701718929.3138893,-2.0,0.0,-2.0,1.0,-3.0,-1.0,-2.0,-2.0
1701718929.3138893,-1.0,0.0,-2.0,-1.0,0.0,-2.0,0.0,-2.0
1701718929.3240058,-2.0,-2.0,-2.0,-1.0,1.0,0.0,-1.0,0.0
1701718929.3240058,-2.0,0.0,-1.0,0.0,2.0,1.0,2.0,0.0
1701718929.3336968,0.0,0.0,0.0,-2.0,-2.0,-1.0,1.0,0.0
1701718929.3336968,-2.0,-2.0,-1.0,0.0,-1.0,0.0,-1.0,0.0
1701718929.3636892,-1.0,-1.0,0.0,-2.0,0.0,-1.0,-2.0,0.0
1701718929.3636892,-2.0,-2.0,-1.0,0.0,-1.0,-3.0,-1.0,-2.0
1701718929.3636892,-2.0,-2.0,-3.0,-1.0,0.0,-2.0,-2.0,-2.0
1701718929.3636892,-2.0,0.0,-2.0,-2.0,-2.0,-2.0,-2.0,-1.0
1701718929.3636892,0.0,-1.0,0.0,-1.0,-1.0,-2.0,-1.0,-2.0
1701718929.3636892,-1.0,-1.0,-2.0,-2.0,-1.0,0.0,0.0,-1.0
1701718929.3740757,1.0,-1.0,-1.0,-1.0,0.0,-1.0,-1.0,-1.0
1701718929.3740757,0.0,-2.0,1.0,0.0,0.0,0.0,-1.0,-1.0
1701718929.384101,-1.0,-3.0,-1.0,0.0,-1.0,1.0,1.0,-1.0
1701718929.384101,0.0,-1.0,-1.0,0.0,-1.0,0.0,-4.0,1.0
1701718929.3939917,-1.0,0.0,0.0,-1.0,0.0,-1.0,0.0,-1.0
1701718929.3939917,-1.0,-2.0,-2.0,-2.0,0.0,-1.0,-1.0,-3.0
1701718929.413953,-1.0,0.0,-2.0,-1.0,-1.0,-3.0,-2.0,-1.0
1701718929.413953,-1.0,-2.0,0.0,-2.0,0.0,0.0,0.0,-1.0
1701718929.4236917,-1.0,-1.0,0.0,1.0,1.0,-1.0,-2.0,-2.0
1701718929.4236917,-1.0,0.0,-1.0,1.0,-1.0,0.0,0.0,0.0
1701718929.4339213,-2.0,0.0,1.0,-1.0,-1.0,-2.0,-2.0,-2.0
1701718929.4339213,-1.0,-1.0,-2.0,-2.0,-2.0,-2.0,-1.0,-1.0
1701718929.4339213,-1.0,-1.0,-1.0,0.0,0.0,-1.0,-2.0,-2.0
1701718929.4339213,0.0,0.0,-2.0,-2.0,0.0,-2.0,-2.0,-2.0
1701718929.4439554,-1.0,-1.0,-2.0,0.0,0.0,-1.0,-1.0,-2.0
1701718929.4439554,-1.0,0.0,0.0,-1.0,-2.0,-1.0,-4.0,0.0
1701718929.453696,-1.0,-1.0,0.0,-1.0,0.0,-1.0,-1.0,-1.0
1701718929.453696,-1.0,0.0,-3.0,0.0,-2.0,0.0,-1.0,-1.0
1701718929.4836938,-2.0,-1.0,-1.0,-2.0,-3.0,1.0,-1.0,-2.0
1701718929.4836938,-1.0,-2.0,-1.0,-1.0,-1.0,-1.0,-1.0,-1.0
1701718929.4836938,-3.0,0.0,-2.0,-2.0,-1.0,-1.0,1.0,-1.0
1701718929.4836938,-3.0,0.0,0.0,0.0,-1.0,-1.0,-1.0,0.0
1701718929.493689,0.0,-2.0,0.0,0.0,0.0,-1.0,-4.0,-2.0
1701718929.493689,0.0,-1.0,-3.0,0.0,-1.0,0.0,-3.0,0.0
1701718929.493689,-1.0,-1.0,-2.0,-2.0,-1.0,-1.0,-1.0,-1.0
1701718929.493689,0.0,-1.0,0.0,-1.0,-3.0,-1.0,-2.0,-2.0
1701718929.5038712,-2.0,0.0,-2.0,-1.0,-1.0,1.0,-1.0,1.0
1701718929.5137007,-1.0,-2.0,0.0,0.0,-2.0,1.0,-1.0,-2.0
1701718929.5137007,-1.0,0.0,-1.0,-2.0,-1.0,-1.0,-1.0,0.0
1701718929.5137007,0.0,0.0,-1.0,-2.0,-1.0,-2.0,-1.0,-1.0
1701718929.5341024,0.0,-1.0,1.0,-1.0,1.0,-2.0,-2.0,1.0
1701718929.5341024,-1.0,3.0,3.0,0.0,-1.0,-1.0,1.0,-1.0
1701718929.5341024,-2.0,-1.0,-2.0,-1.0,-2.0,-1.0,-1.0,0.0
1701718929.5341024,-1.0,0.0,-3.0,-1.0,-1.0,-1.0,-1.0,-2.0
1701718929.5641458,-2.0,-2.0,-2.0,0.0,-1.0,-1.0,-2.0,-1.0
1701718929.5641458,-2.0,-2.0,-2.0,0.0,-1.0,-2.0,-1.0,-3.0
1701718929.5641458,1.0,-2.0,-2.0,-2.0,-2.0,-2.0,-1.0,0.0
1701718929.5641458,0.0,-2.0,0.0,1.0,0.0,0.0,-2.0,-1.0
1701718929.5641458,-1.0,-1.0,-2.0,-2.0,-1.0,-1.0,0.0,-3.0
1701718929.5641458,-1.0,1.0,0.0,-2.0,-1.0,0.0,-2.0,0.0
1701718929.5836892,-1.0,-3.0,-1.0,-1.0,-1.0,0.0,-2.0,0.0
1701718929.5836892,-3.0,-2.0,0.0,-1.0,-1.0,-1.0,-1.0,0.0
1701718929.5941005,0.0,-1.0,-1.0,-1.0,0.0,0.0,0.0,0.0
1701718929.5941005,-2.0,3.0,0.0,0.0,0.0,0.0,0.0,-1.0
1701718929.5941005,0.0,-1.0,-2.0,-2.0,-1.0,-2.0,-1.0,-2.0
1701718929.5941005,0.0,-2.0,-2.0,-1.0,-2.0,-2.0,1.0,-1.0
1701718929.6141486,0.0,-5.0,1.0,-1.0,-1.0,-1.0,0.0,-1.0
1701718929.6141486,-2.0,4.0,-4.0,0.0,0.0,-2.0,-1.0,-2.0
1701718929.6141486,1.0,10.0,2.0,-1.0,0.0,-1.0,-1.0,-1.0
1701718929.6141486,0.0,3.0,1.0,-1.0,0.0,-1.0,0.0,1.0
1701718929.6240563,-1.0,-4.0,-1.0,-2.0,-2.0,-3.0,-1.0,0.0
1701718929.6240563,-1.0,-7.0,-2.0,-1.0,-1.0,-1.0,0.0,-1.0
1701718929.6339297,-3.0,-2.0,-1.0,0.0,0.0,-1.0,-1.0,-1.0
1701718929.6339297,2.0,-2.0,-1.0,-1.0,0.0,-2.0,-1.0,-2.0
1701718929.6536899,0.0,3.0,-3.0,0.0,-2.0,-2.0,0.0,-1.0
1701718929.6536899,1.0,-2.0,1.0,-1.0,0.0,-1.0,-1.0,0.0
1701718929.6536899,-1.0,-5.0,-1.0,-2.0,-3.0,-1.0,-1.0,-3.0
1701718929.6536899,-1.0,0.0,0.0,-2.0,-2.0,0.0,-1.0,-2.0
1701718929.6739845,0.0,1.0,-1.0,-1.0,0.0,-1.0,-2.0,-3.0
1701718929.6739845,-2.0,-2.0,-1.0,0.0,-1.0,-3.0,-2.0,-2.0
1701718929.6739845,-3.0,-12.0,-17.0,-2.0,-2.0,-1.0,-1.0,-2.0
1701718929.6739845,-3.0,7.0,12.0,0.0,-1.0,-3.0,-2.0,-1.0
1701718929.6839662,1.0,10.0,-10.0,-5.0,-2.0,-1.0,-1.0,1.0
1701718929.6839662,-2.0,-21.0,-1.0,-3.0,-2.0,-1.0,0.0,-2.0
1701718929.7136898,0.0,10.0,1.0,-8.0,-12.0,-3.0,-2.0,-1.0
1701718929.7136898,4.0,-2.0,-4.0,5.0,4.0,2.0,3.0,1.0
1701718929.7136898,-6.0,-6.0,-15.0,-6.0,-1.0,-2.0,-3.0,-5.0
1701718929.7136898,1.0,10.0,-6.0,0.0,-4.0,-1.0,-2.0,0.0
1701718929.7136898,0.0,-5.0,7.0,6.0,23.0,3.0,0.0,-1.0
1701718929.7136898,0.0,-1.0,9.0,-4.0,-8.0,-1.0,0.0,1.0
1701718929.734037,-2.0,-15.0,2.0,-1.0,-6.0,-2.0,-1.0,0.0
1701718929.734037,-1.0,-7.0,-23.0,4.0,3.0,-1.0,1.0,-3.0
1701718929.734037,-2.0,-5.0,-9.0,-11.0,-18.0,-2.0,-2.0,-1.0
1701718929.734037,-3.0,4.0,11.0,17.0,24.0,2.0,-1.0,-3.0
1701718929.7439706,0.0,-3.0,16.0,2.0,2.0,2.0,0.0,0.0
1701718929.7439706,-2.0,4.0,0.0,-7.0,-4.0,-1.0,0.0,0.0
1701718929.763691,1.0,7.0,7.0,5.0,-1.0,-1.0,1.0,1.0
1701718929.763691,-2.0,-9.0,-21.0,-10.0,-9.0,-4.0,-3.0,-2.0
1701718929.7736914,-2.0,1.0,5.0,0.0,-2.0,-4.0,-3.0,-3.0
1701718929.7736914,1.0,-1.0,5.0,2.0,0.0,0.0,-1.0,1.0
1701718929.7736914,-3.0,-7.0,-9.0,-3.0,-3.0,-2.0,-2.0,-2.0
1701718929.7736914,-2.0,-6.0,0.0,-5.0,-6.0,-1.0,-2.0,0.0
1701718929.7976723,0.0,4.0,1.0,3.0,2.0,-1.0,-1.0,-2.0
1701718929.7976723,-2.0,2.0,4.0,-4.0,-4.0,-2.0,-2.0,0.0
1701718929.7986612,-2.0,-1.0,3.0,1.0,4.0,-1.0,0.0,1.0
1701718929.7986612,-1.0,1.0,-2.0,-2.0,-3.0,0.0,-3.0,-1.0
1701718929.8115277,1.0,2.0,-6.0,2.0,0.0,-1.0,-2.0,1.0
1701718929.8115277,-1.0,-2.0,2.0,-3.0,0.0,-1.0,-1.0,-3.0
1701718929.8162692,-1.0,0.0,6.0,2.0,-1.0,0.0,0.0,0.0
1701718929.8162692,0.0,-3.0,-4.0,0.0,-2.0,-1.0,-1.0,-2.0
1701718929.8262856,-3.0,-1.0,-5.0,-3.0,-1.0,1.0,-1.0,1.0
1701718929.8262856,-2.0,-1.0,2.0,-1.0,0.0,-1.0,-2.0,0.0
1701718929.8362753,0.0,-2.0,0.0,4.0,-1.0,0.0,-1.0,-1.0
1701718929.8362753,-1.0,2.0,-5.0,-5.0,-2.0,-2.0,-1.0,-2.0
1701718929.856272,-1.0,-4.0,-3.0,1.0,-2.0,-1.0,-1.0,-1.0
1701718929.856272,0.0,-1.0,2.0,-1.0,-1.0,-2.0,0.0,-2.0
1701718929.8662717,-1.0,1.0,3.0,-2.0,1.0,-2.0,-1.0,-1.0
1701718929.8662717,-2.0,-2.0,-10.0,2.0,-3.0,0.0,-1.0,-1.0
1701718929.8662717,0.0,0.0,2.0,-2.0,-1.0,0.0,1.0,-1.0
1701718929.8662717,0.0,1.0,0.0,-9.0,-1.0,-1.0,-2.0,-1.0
1701718929.8762734,-1.0,1.0,-4.0,-3.0,-2.0,-2.0,-2.0,-1.0
1701718929.8762734,-1.0,-8.0,-6.0,-5.0,-2.0,-1.0,-2.0,-1.0
1701718929.886273,0.0,0.0,4.0,5.0,-2.0,-1.0,-1.0,-1.0
1701718929.886273,0.0,0.0,-3.0,3.0,0.0,1.0,1.0,0.0
1701718929.8962743,0.0,-1.0,2.0,-1.0,0.0,-1.0,-1.0,-1.0
1701718929.8962743,-3.0,0.0,-2.0,4.0,-1.0,-1.0,-1.0,-1.0
1701718929.916273,-2.0,-2.0,-8.0,-2.0,0.0,-1.0,0.0,1.0
1701718929.916273,0.0,-1.0,3.0,-3.0,1.0,-2.0,-1.0,-2.0
1701718929.916273,-2.0,-2.0,0.0,5.0,0.0,-1.0,1.0,-2.0
1701718929.916273,0.0,2.0,2.0,-8.0,-2.0,-2.0,-1.0,-2.0
1701718929.9262738,1.0,1.0,2.0,1.0,-2.0,-1.0,-1.0,-1.0
1701718929.9262738,0.0,-2.0,-2.0,-2.0,-1.0,1.0,0.0,-1.0
1701718929.9362736,0.0,-1.0,-1.0,-4.0,-1.0,-1.0,-1.0,0.0
1701718929.9362736,-1.0,1.0,4.0,11.0,-1.0,-4.0,-1.0,-1.0
1701718929.9462786,-2.0,-1.0,-3.0,-3.0,-2.0,0.0,-2.0,-1.0
1701718929.9462786,-2.0,0.0,1.0,1.0,-3.0,-2.0,-1.0,0.0
1701718929.9562721,-1.0,-2.0,-3.0,-1.0,-1.0,1.0,-1.0,-2.0
1701718929.9562721,0.0,-1.0,-2.0,-5.0,0.0,0.0,0.0,-1.0
1701718929.9762728,0.0,-1.0,0.0,-2.0,0.0,1.0,-2.0,0.0
1701718929.9762728,0.0,-1.0,0.0,2.0,-2.0,-1.0,-1.0,1.0
1701718929.9762728,-1.0,-1.0,0.0,-3.0,-1.0,-2.0,-2.0,-3.0
1701718929.9762728,-1.0,-3.0,-2.0,-3.0,-2.0,-1.0,-1.0,0.0
1701718929.9862714,0.0,1.0,-2.0,0.0,-1.0,-2.0,0.0,-1.0
1701718929.9862714,0.0,-1.0,-3.0,-1.0,-2.0,-1.0,0.0,-2.0
1701718929.9962738,0.0,-1.0,-1.0,0.0,-2.0,-1.0,-1.0,1.0
1701718929.9962738,-1.0,0.0,1.0,-2.0,-2.0,0.0,-1.0,-1.0
1701718930.006272,-1.0,-1.0,-2.0,-1.0,-1.0,-2.0,0.0,-2.0
1701718930.006272,-2.0,-1.0,2.0,-1.0,0.0,-2.0,-2.0,0.0
1701718930.016271,0.0,4.0,-1.0,0.0,0.0,0.0,0.0,0.0
1701718930.016271,-2.0,-1.0,-2.0,-2.0,-1.0,-1.0,0.0,0.0
1701718930.036271,0.0,1.0,-3.0,-2.0,0.0,-1.0,-1.0,1.0
1701718930.036271,0.0,-1.0,-1.0,0.0,-2.0,-1.0,-2.0,-1.0
1701718930.036271,-1.0,-3.0,-1.0,-1.0,-2.0,1.0,-2.0,1.0
1701718930.036271,-1.0,0.0,-2.0,-3.0,1.0,-1.0,-1.0,0.0
1701718930.0462725,-1.0,-1.0,-2.0,-1.0,-1.0,-2.0,-1.0,0.0
