1701719398.7308016,-5.0,-14.0,-40.0,-17.0,7.0,-8.0,-19.0,0.0
1701719398.7308016,-1.0,7.0,56.0,19.0,-13.0,-8.0,-12.0,-4.0
1701719398.7408013,1.0,-5.0,-30.0,-31.0,-16.0,0.0,-7.0,-6.0
1701719398.7408013,-3.0,-6.0,-34.0,44.0,30.0,2.0,7.0,4.0
1701719398.7508023,7.0,7.0,41.0,11.0,-9.0,-7.0,-13.0,-3.0
1701719398.7508023,-3.0,-2.0,-15.0,-12.0,-13.0,-4.0,-6.0,-5.0
1701719398.7508023,1.0,-2.0,25.0,4.0,-4.0,1.0,10.0,-4.0
1701719398.7508023,0.0,-5.0,-16.0,-68.0,-23.0,1.0,25.0,9.0
1701719398.7708206,-2.0,-5.0,-19.0,-3.0,-3.0,-6.0,1.0,2.0
1701719398.7708206,1.0,16.0,-40.0,11.0,44.0,3.0,2.0,-6.0
1701719398.780804,2.0,-9.0,33.0,27.0,-10.0,0.0,0.0,1.0
1701719398.780804,-5.0,-8.0,-7.0,-3.0,-3.0,1.0,5.0,-12.0
1701719398.790803,-4.0,-7.0,27.0,18.0,-6.0,-10.0,-12.0,1.0
1701719398.790803,2.0,5.0,19.0,-7.0,-23.0,-2.0,-27.0,-17.0
1701719398.8010094,-3.0,-4.0,-10.0,-9.0,2.0,0.0,-9.0,-8.0
1701719398.8010094,8.0,8.0,30.0,28.0,13.0,2.0,15.0,-9.0
1701719398.8108022,-4.0,-3.0,-57.0,-38.0,-18.0,-10.0,-44.0,2.0
1701719398.8108022,2.0,-1.0,-8.0,-4.0,-10.0,-2.0,15.0,0.0
1701719398.8108022,-2.0,-41.0,62.0,20.0,12.0,8.0,26.0,8.0
1701719398.8108022,-4.0,-13.0,3.0,-2.0,-19.0,-13.0,-59.0,-6.0
1701719398.8310006,-6.0,-8.0,-57.0,-32.0,10.0,2.0,11.0,-7.0
1701719398.8310006,7.0,-3.0,-4.0,7.0,6.0,3.0,14.0,14.0
1701719398.8408034,-5.0,25.0,0.0,-26.0,-14.0,-1.0,11.0,6.0
1701719398.8408034,-3.0,-4.0,10.0,10.0,7.0,2.0,15.0,3.0
1701719398.8512132,-6.0,-7.0,12.0,14.0,1.0,-2.0,-24.0,-15.0
1701719398.8512132,-6.0,-5.0,3.0,-3.0,-10.0,-12.0,-28.0,-3.0
1701719398.8608036,6.0,16.0,14.0,8.0,10.0,0.0,18.0,4.0
1701719398.8608036,-4.0,-1.0,-36.0,-10.0,-9.0,0.0,-6.0,2.0
1701719398.8708012,1.0,11.0,42.0,9.0,9.0,2.0,7.0,-5.0
1701719398.8708012,-6.0,-1.0,-33.0,-19.0,-11.0,3.0,9.0,-5.0
1701719398.8708012,0.0,-15.0,42.0,7.0,-12.0,-16.0,-17.0,4.0
1701719398.8708012,-5.0,-2.0,-48.0,21.0,16.0,12.0,-14.0,4.0
1701719398.890849,8.0,-8.0,24.0,12.0,5.0,3.0,23.0,4.0
1701719398.890849,-7.0,2.0,59.0,11.0,0.0,1.0,17.0,9.0
1701719398.9010887,-4.0,2.0,-107.0,-31.0,-14.0,-17.0,-47.0,-18.0
1701719398.9010887,0.0,-3.0,-32.0,-22.0,20.0,16.0,25.0,-4.0
1701719398.9208336,-1.0,-9.0,21.0,-4.0,-12.0,1.0,9.0,-12.0
1701719398.9208336,0.0,21.0,22.0,5.0,2.0,8.0,12.0,10.0
1701719398.9208336,1.0,-10.0,-10.0,10.0,-8.0,11.0,-5.0,-2.0
1701719398.9208336,-10.0,-8.0,-30.0,3.0,-13.0,-24.0,-30.0,-16.0
1701719398.931169,9.0,17.0,23.0,-13.0,3.0,-5.0,-27.0,-8.0
1701719398.931169,-4.0,-14.0,-2.0,-2.0,7.0,7.0,13.0,-33.0
1701719398.931169,4.0,4.0,-20.0,5.0,1.0,-7.0,36.0,35.0
1701719398.931169,-7.0,-29.0,-16.0,-7.0,-10.0,0.0,-17.0,11.0
1701719398.9512277,1.0,-5.0,17.0,2.0,0.0,9.0,25.0,13.0
1701719398.9512277,3.0,0.0,-11.0,-2.0,0.0,-12.0,-32.0,-9.0
1701719398.9608047,-4.0,-14.0,0.0,7.0,-16.0,5.0,6.0,-13.0
1701719398.9608047,2.0,33.0,82.0,34.0,56.0,4.0,7.0,9.0
1701719398.980832,1.0,-8.0,-46.0,-12.0,-10.0,-9.0,-8.0,-2.0
1701719398.980832,-9.0,-7.0,11.0,2.0,-18.0,1.0,4.0,3.0
1701719398.980832,-5.0,35.0,46.0,-12.0,-3.0,-3.0,-8.0,-10.0
1701719398.980832,4.0,14.0,-4.0,-21.0,-8.0,-2.0,10.0,4.0
1701719398.9911752,-1.0,16.0,97.0,25.0,8.0,4.0,-7.0,-2.0
1701719398.9911752,4.0,9.0,-12.0,17.0,1.0,-3.0,2.0,5.0
1701719398.9911752,-9.0,-46.0,-30.0,-33.0,-7.0,0.0,-3.0,-5.0
1701719398.9911752,1.0,3.0,20.0,5.0,-24.0,-5.0,0.0,-2.0
1701719399.011224,1.0,8.0,-13.0,28.0,20.0,0.0,13.0,0.0
1701719399.011224,-4.0,-33.0,-46.0,-36.0,-8.0,-8.0,-42.0,0.0
1701719399.0208044,7.0,21.0,0.0,13.0,9.0,4.0,-3.0,-5.0
1701719399.0208044,4.0,-4.0,-16.0,-15.0,-10.0,0.0,11.0,4.0
1701719399.0508327,-1.0,2.0,30.0,16.0,-5.0,3.0,12.0,7.0
1701719399.0508327,-4.0,-26.0,46.0,-9.0,-6.0,-3.0,0.0,3.0
1701719399.0508327,2.0,5.0,-52.0,3.0,7.0,3.0,-5.0,-9.0
1701719399.0508327,0.0,-5.0,50.0,10.0,5.0,1.0,9.0,6.0
1701719399.0608037,-3.0,0.0,-63.0,-6.0,1.0,-5.0,-16.0,1.0
1701719399.0608037,4.0,14.0,36.0,7.0,2.0,10.0,31.0,6.0
1701719399.0608037,-1.0,-6.0,-32.0,-8.0,18.0,-7.0,-6.0,-1.0
1701719399.0608037,-2.0,2.0,21.0,1.0,-14.0,5.0,17.0,-17.0
1701719399.0709968,-7.0,-5.0,-7.0,-2.0,-6.0,0.0,-24.0,-1.0
1701719399.0709968,5.0,7.0,13.0,-2.0,3.0,-10.0,-19.0,-15.0
1701719399.0808086,-8.0,-18.0,12.0,4.0,-4.0,10.0,9.0,16.0
1701719399.0808086,-7.0,8.0,-43.0,-17.0,-16.0,-14.0,-38.0,28.0
1701719399.1008322,-1.0,1.0,-30.0,-3.0,-4.0,-14.0,-15.0,-13.0
1701719399.1008322,-6.0,-22.0,11.0,4.0,17.0,6.0,-13.0,-9.0
1701719399.1008322,6.0,22.0,-17.0,-7.0,-6.0,-6.0,-11.0,-37.0
1701719399.1008322,-21.0,-22.0,-14.0,-1.0,-5.0,-10.0,-13.0,9.0
1701719399.11118,2.0,5.0,20.0,-15.0,-23.0,-1.0,9.0,13.0
1701719399.11118,4.0,16.0,-21.0,-10.0,-14.0,-2.0,2.0,-3.0
1701719399.121109,-4.0,3.0,21.0,40.0,70.0,14.0,8.0,-8.0
1701719399.121109,6.0,8.0,19.0,14.0,4.0,3.0,18.0,-2.0
1701719399.1445518,1.0,-4.0,-12.0,-20.0,-21.0,-5.0,7.0,11.0
1701719399.1445518,-2.0,3.0,-20.0,-15.0,-14.0,-3.0,11.0,-4.0
1701719399.1445518,0.0,-17.0,6.0,-2.0,-3.0,-1.0,-3.0,2.0
1701719399.1445518,4.0,3.0,32.0,2.0,-14.0,4.0,5.0,-7.0
1701719399.1629283,-6.0,8.0,72.0,30.0,21.0,3.0,-3.0,-6.0
1701719399.1629283,-1.0,-4.0,-118.0,-52.0,-15.0,-10.0,-8.0,4.0
1701719399.1659238,-4.0,-4.0,56.0,25.0,-5.0,0.0,-3.0,7.0
1701719399.1659238,-1.0,-16.0,-11.0,-22.0,-1.0,-3.0,-3.0,-5.0
1701719399.1738918,-1.0,-4.0,11.0,6.0,-12.0,-3.0,-2.0,-8.0
1701719399.1738918,-4.0,-3.0,60.0,11.0,17.0,-1.0,14.0,5.0
1701719399.1738918,2.0,3.0,-12.0,-31.0,-6.0,-2.0,-20.0,11.0
1701719399.1738918,2.0,1.0,-28.0,3.0,-1.0,-7.0,-3.0,-21.0
1701719399.203892,-1.0,1.0,18.0,-13.0,1.0,5.0,22.0,3.0
1701719399.203892,0.0,3.0,8.0,22.0,-3.0,7.0,27.0,2.0
1701719399.203892,-1.0,18.0,-2.0,-2.0,-12.0,-2.0,-19.0,14.0
1701719399.203892,6.0,2.0,-29.0,6.0,8.0,-9.0,-13.0,-7.0
1701719399.2140625,-3.0,6.0,-11.0,-1.0,8.0,10.0,-9.0,-12.0
1701719399.2140625,-5.0,-2.0,6.0,4.0,9.0,-5.0,-5.0,-1.0
1701719399.22395,7.0,-2.0,-1.0,-6.0,-6.0,-2.0,16.0,-8.0
1701719399.22395,-3.0,-2.0,-19.0,-10.0,-8.0,-9.0,-18.0,11.0
1701719399.234164,0.0,-20.0,-20.0,6.0,4.0,-5.0,-5.0,1.0
1701719399.234164,-5.0,-15.0,18.0,-25.0,-20.0,-2.0,-6.0,5.0
1701719399.2439573,-1.0,-15.0,-24.0,36.0,12.0,5.0,22.0,-3.0
1701719399.2439573,5.0,1.0,22.0,-6.0,-11.0,0.0,2.0,0.0
1701719399.2738926,-7.0,0.0,-28.0,-51.0,14.0,-4.0,-6.0,-8.0
1701719399.2738926,-3.0,-12.0,-7.0,16.0,-4.0,-4.0,-25.0,-6.0
1701719399.2738926,0.0,7.0,20.0,-11.0,-11.0,-1.0,6.0,4.0
1701719399.2738926,-1.0,-10.0,-42.0,-1.0,-7.0,-6.0,4.0,18.0
1701719399.2738926,5.0,9.0,2.0,11.0,-4.0,-5.0,-19.0,-4.0
1701719399.2738926,8.0,20.0,-8.0,13.0,21.0,15.0,39.0,8.0
1701719399.2838933,-14.0,0.0,24.0,-13.0,-13.0,-2.0,-15.0,-3.0
1701719399.2838933,-6.0,-11.0,50.0,4.0,-2.0,15.0,11.0,-30.0
1701719399.294283,5.0,2.0,-116.0,-37.0,-5.0,-11.0,16.0,23.0
1701719399.294283,-16.0,0.0,35.0,5.0,-19.0,-9.0,-13.0,-3.0
1701719399.294283,9.0,-1.0,16.0,0.0,11.0,0.0,-12.0,-6.0
1701719399.294283,-5.0,-9.0,28.0,10.0,12.0,4.0,11.0,4.0
1701719399.3146462,-3.0,-9.0,3.0,0.0,-11.0,-2.0,-2.0,-20.0
1701719399.3146462,9.0,1.0,-42.0,2.0,-3.0,7.0,11.0,6.0
1701719399.3146462,6.0,21.0,19.0,-26.0,-20.0,0.0,46.0,14.0
1701719399.3146462,4.0,-2.0,-31.0,-13.0,-8.0,-5.0,-8.0,-6.0
1701719399.3417075,1.0,3.0,61.0,32.0,22.0,8.0,1.0,9.0
1701719399.3417075,-4.0,2.0,-55.0,10.0,-7.0,-9.0,-27.0,-2.0
1701719399.3437076,-4.0,-4.0,-19.0,-25.0,-7.0,-2.0,-6.0,-1.0
1701719399.3437076,5.0,15.0,92.0,27.0,22.0,0.0,-1.0,1.0
1701719399.3568895,-10.0,4.0,-61.0,-7.0,-21.0,-9.0,-7.0,-10.0
1701719399.3568895,1.0,8.0,15.0,-23.0,14.0,-7.0,1.0,5.0
1701719399.3698897,-1.0,2.0,-13.0,29.0,11.0,12.0,13.0,-4.0
1701719399.3698897,-1.0,-19.0,-46.0,-15.0,-11.0,-13.0,-25.0,-4.0
1701719399.3798108,4.0,20.0,60.0,-9.0,-10.0,15.0,31.0,8.0
1701719399.3798108,-8.0,-39.0,-32.0,16.0,13.0,3.0,11.0,-3.0
1701719399.3808134,-1.0,3.0,30.0,-16.0,-11.0,-18.0,-53.0,-19.0
1701719399.3808134,-7.0,-1.0,-2.0,6.0,0.0,3.0,7.0,13.0
1701719399.402898,3.0,3.0,26.0,16.0,1.0,12.0,42.0,7.0
1701719399.402898,1.0,-1.0,-31.0,5.0,-10.0,-7.0,-3.0,-3.0
1701719399.4038646,1.0,-10.0,54.0,-38.0,-12.0,1.0,0.0,-5.0
1701719399.4038646,-1.0,-7.0,-27.0,10.0,34.0,3.0,-2.0,-2.0
1701719399.4156835,-2.0,-12.0,14.0,3.0,-3.0,-12.0,-23.0,-9.0
1701719399.4156835,4.0,12.0,12.0,4.0,7.0,3.0,-13.0,3.0
1701719399.4267852,0.0,3.0,-35.0,-14.0,-33.0,-6.0,-3.0,-16.0
1701719399.4267852,4.0,20.0,47.0,-4.0,-3.0,6.0,44.0,18.0
1701719399.439792,-3.0,-6.0,9.0,-18.0,-2.0,0.0,-38.0,-7.0
1701719399.439792,0.0,-3.0,-22.0,20.0,21.0,-8.0,-17.0,-1.0
1701719399.4406703,-8.0,4.0,-8.0,21.0,0.0,-11.0,-11.0,9.0
1701719399.4406703,3.0,8.0,4.0,-13.0,-5.0,14.0,16.0,-8.0
1701719399.4623616,23.0,7.0,69.0,14.0,7.0,-1.0,11.0,-10.0
1701719399.4623616,-4.0,-3.0,-53.0,-17.0,-9.0,4.0,12.0,-5.0
1701719399.463362,0.0,-30.0,-57.0,-17.0,-4.0,-14.0,-25.0,34.0
1701719399.463362,-21.0,1.0,-2.0,9.0,4.0,5.0,45.0,-15.0
1701719399.4753613,-7.0,-7.0,-4.0,4.0,-4.0,-8.0,-70.0,4.0
1701719399.4753613,-8.0,-9.0,25.0,2.0,2.0,7.0,16.0,2.0
1701719399.4900029,-6.0,20.0,-3.0,6.0,-11.0,11.0,23.0,-13.0
1701719399.4900029,-6.0,-12.0,-24.0,-23.0,23.0,-2.0,-14.0,0.0
1701719399.5008657,-7.0,-13.0,-32.0,-8.0,-3.0,-5.0,6.0,-8.0
1701719399.5008657,-5.0,-1.0,35.0,6.0,-2.0,-3.0,-2.0,-5.0
1701719399.5018613,3.0,5.0,20.0,9.0,13.0,3.0,5.0,-4.0
1701719399.5018613,-4.0,-10.0,-55.0,-13.0,-25.0,-5.0,-23.0,-10.0
1701719399.5227237,-3.0,-18.0,-4.0,-14.0,-20.0,-4.0,4.0,5.0
1701719399.5227237,8.0,8.0,38.0,41.0,32.0,5.0,-7.0,4.0
1701719399.5333996,-3.0,-25.0,13.0,14.0,7.0,-1.0,10.0,3.0
1701719399.5333996,8.0,28.0,25.0,7.0,-10.0,-3.0,-12.0,-4.0
1701719399.5333996,-7.0,-22.0,-47.0,-8.0,8.0,1.0,13.0,-2.0
1701719399.5333996,-2.0,-9.0,-13.0,-4.0,-13.0,-11.0,-11.0,-3.0
1701719399.5436301,5.0,3.0,10.0,4.0,0.0,-2.0,-4.0,-1.0
1701719399.5436301,8.0,-9.0,-1.0,9.0,-2.0,-6.0,-7.0,0.0
1701719399.5537276,-4.0,-1.0,22.0,-4.0,-9.0,0.0,-2.0,-2.0
1701719399.5537276,3.0,-1.0,-50.0,-10.0,20.0,3.0,0.0,1.0
1701719399.5537276,-7.0,0.0,43.0,9.0,-4.0,-5.0,-1.0,-9.0
1701719399.5537276,3.0,5.0,-2.0,-10.0,-1.0,-11.0,-21.0,-1.0
1701719399.573754,-3.0,7.0,-34.0,5.0,-6.0,13.0,11.0,1.0
1701719399.573754,-3.0,-7.0,-44.0,-21.0,-25.0,-4.0,-11.0,-5.0
1701719399.5933983,-1.0,5.0,64.0,21.0,17.0,6.0,32.0,3.0
1701719399.5933983,0.0,6.0,-25.0,19.0,-5.0,-8.0,-32.0,-4.0
1701719399.5933983,-7.0,-7.0,-14.0,-35.0,2.0,-10.0,-57.0,-18.0
1701719399.5933983,5.0,10.0,6.0,10.0,-3.0,25.0,90.0,28.0
1701719399.6036499,6.0,6.0,-21.0,-10.0,8.0,-1.0,-27.0,-17.0
1701719399.6134033,-4.0,-8.0,-5.0,4.0,-10.0,-3.0,14.0,1.0
1701719399.6134033,-3.0,2.0,-17.0,15.0,9.0,-15.0,-44.0,-2.0
1701719399.6134033,-4.0,7.0,42.0,-11.0,-7.0,-4.0,-52.0,-28.0
1701719399.6134033,-4.0,-3.0,-35.0,-1.0,-7.0,0.0,-6.0,14.0
1701719399.6134033,4.0,9.0,-6.0,-3.0,4.0,3.0,-7.0,3.0
1701719399.6337388,-1.0,-4.0,-8.0,0.0,1.0,8.0,50.0,3.0
1701719399.6434062,2.0,-8.0,5.0,-9.0,-13.0,-12.0,-8.0,-8.0
1701719399.6533983,10.0,12.0,35.0,-13.0,1.0,0.0,14.0,18.0
1701719399.6533983,-17.0,-12.0,-46.0,5.0,10.0,-1.0,-33.0,-23.0
1701719399.6533983,-3.0,5.0,-68.0,12.0,6.0,2.0,30.0,-4.0
1701719399.6533983,-3.0,8.0,19.0,16.0,-3.0,2.0,4.0,3.0
1701719399.6635017,1.0,-4.0,-45.0,-3.0,-11.0,-17.0,-7.0,13.0
1701719399.6635017,5.0,10.0,66.0,-65.0,-30.0,-6.0,6.0,-27.0
1701719399.6798966,1.0,12.0,-24.0,28.0,15.0,3.0,13.0,38.0
1701719399.6798966,-9.0,-19.0,39.0,1.0,3.0,-5.0,-11.0,-26.0
1701719399.680907,-4.0,-21.0,-20.0,17.0,5.0,5.0,-7.0,-11.0
1701719399.680907,-2.0,-9.0,6.0,-16.0,-14.0,-3.0,3.0,5.0
1701719399.7025847,-8.0,-6.0,20.0,6.0,-20.0,-4.0,4.0,-20.0
1701719399.7025847,8.0,10.0,8.0,7.0,18.0,9.0,9.0,17.0
1701719399.707756,-5.0,-1.0,-2.0,1.0,-5.0,0.0,-14.0,-18.0
1701719399.707756,3.0,2.0,0.0,10.0,5.0,7.0,41.0,21.0
1701719399.707756,1.0,-8.0,42.0,3.0,-4.0,-8.0,-25.0,-13.0
1701719399.707756,-2.0,-1.0,-19.0,-28.0,-24.0,-5.0,-8.0,6.0
1701719399.7178624,-1.0,6.0,82.0,22.0,32.0,0.0,-9.0,-7.0
1701719399.7178624,-3.0,-5.0,-32.0,8.0,3.0,9.0,12.0,2.0
1701719399.7381332,1.0,10.0,-18.0,-27.0,-8.0,-4.0,1.0,-1.0
1701719399.7381332,0.0,10.0,50.0,18.0,-1.0,-5.0,-21.0,1.0
1701719399.7381332,0.0,0.0,-51.0,7.0,2.0,6.0,21.0,-2.0
1701719399.7381332,-2.0,-7.0,33.0,-10.0,1.0,-11.0,-23.0,-5.0
1701719399.7679212,0.0,-1.0,3.0,4.0,2.0,4.0,-2.0,10.0
1701719399.7679212,1.0,0.0,65.0,-22.0,-5.0,3.0,34.0,4.0
1701719399.7679212,-2.0,6.0,-20.0,-3.0,-4.0,0.0,15.0,-11.0
1701719399.7679212,-2.0,1.0,13.0,22.0,10.0,16.0,15.0,22.0
1701719399.7679212,7.0,-18.0,-49.0,-19.0,-10.0,-17.0,7.0,2.0
1701719399.7679212,3.0,5.0,-19.0,2.0,6.0,-6.0,-20.0,-1.0
1701719399.7780797,2.0,2.0,-7.0,6.0,-1.0,-3.0,-14.0,-13.0
1701719399.7780797,-10.0,-2.0,-56.0,-4.0,-13.0,-26.0,-62.0,3.0
1701719399.7979124,0.0,1.0,63.0,15.0,11.0,18.0,11.0,-8.0
1701719399.7979124,1.0,8.0,-23.0,-2.0,-6.0,-11.0,-19.0,-12.0
1701719399.7979124,-12.0,-15.0,-18.0,-20.0,-6.0,-1.0,-4.0,-16.0
1701719399.7979124,11.0,32.0,10.0,15.0,8.0,-4.0,-3.0,15.0
1701719399.827882,0.0,-8.0,18.0,-2.0,-3.0,7.0,12.0,3.0
1701719399.827882,-4.0,3.0,-17.0,-1.0,-6.0,-13.0,5.0,7.0
1701719399.827882,4.0,25.0,4.0,-16.0,5.0,-6.0,-21.0,-3.0
1701719399.827882,-16.0,-68.0,-6.0,-22.0,-14.0,1.0,0.0,-23.0
1701719399.8381343,6.0,26.0,74.0,42.0,-5.0,1.0,11.0,1.0
1701719399.8381343,-5.0,-16.0,61.0,-2.0,8.0,7.0,1.0,-5.0
1701719399.8381343,-6.0,-5.0,-27.0,-3.0,14.0,7.0,13.0,-11.0
1701719399.8381343,-4.0,18.0,-11.0,2.0,1.0,-1.0,14.0,27.0
1701719399.8583453,2.0,4.0,4.0,-14.0,4.0,-7.0,-14.0,-12.0
1701719399.8583453,-5.0,-3.0,-69.0,-19.0,-27.0,-14.0,-3.0,-1.0
1701719399.8583453,8.0,2.0,34.0,23.0,-10.0,7.0,2.0,18.0
1701719399.8583453,11.0,4.0,-10.0,-12.0,1.0,-2.0,7.0,-12.0
1701719399.8827226,-1.0,7.0,33.0,20.0,14.0,8.0,1.0,-10.0
1701719399.8827226,5.0,-5.0,-61.0,-82.0,-37.0,0.0,14.0,7.0
1701719399.8827226,-5.0,-11.0,26.0,18.0,-5.0,-2.0,-5.0,3.0
1701719399.8827226,4.0,6.0,-14.0,23.0,20.0,13.0,20.0,4.0
1701719399.9039953,-6.0,-5.0,0.0,6.0,-10.0,-8.0,-15.0,-2.0
1701719399.9039953,-4.0,-2.0,60.0,25.0,9.0,4.0,6.0,-6.0
1701719399.9039953,-6.0,-1.0,-107.0,-25.0,-13.0,-6.0,9.0,4.0
1701719399.9039953,3.0,-6.0,42.0,0.0,-15.0,-5.0,-63.0,-15.0
1701719399.9272819,-9.0,-2.0,-38.0,-17.0,16.0,3.0,-11.0,-10.0
1701719399.9272819,4.0,3.0,14.0,12.0,-5.0,-7.0,-16.0,19.0
1701719399.9272819,3.0,-10.0,-22.0,-12.0,-1.0,-1.0,-3.0,6.0
1701719399.9272819,0.0,10.0,-6.0,12.0,8.0,3.0,15.0,-7.0
1701719399.947867,-8.0,-4.0,12.0,-18.0,-10.0,-10.0,-9.0,-11.0
1701719399.947867,-2.0,-5.0,8.0,14.0,20.0,-1.0,-16.0,6.0
1701719399.947867,3.0,25.0,46.0,7.0,1.0,9.0,36.0,10.0
1701719399.947867,-1.0,-29.0,-40.0,-16.0,-3.0,8.0,42.0,-12.0
1701719399.9642458,-4.0,3.0,36.0,-1.0,-3.0,-5.0,-7.0,13.0
1701719399.9642458,-2.0,8.0,-20.0,3.0,2.0,-4.0,-5.0,1.0
1701719399.9642458,-3.0,-11.0,24.0,-10.0,1.0,-2.0,2.0,0.0
1701719399.9642458,1.0,4.0,12.0,5.0,-9.0,-1.0,-24.0,1.0
1701719399.987435,4.0,-3.0,-5.0,-24.0,-5.0,2.0,22.0,0.0
1701719399.987435,-7.0,-6.0,-8.0,19.0,16.0,5.0,-9.0,-18.0
1701719399.987435,-11.0,-11.0,-9.0,-15.0,-11.0,-14.0,-17.0,6.0
1701719399.987435,2.0,9.0,6.0,7.0,-9.0,-7.0,-3.0,-2.0
1701719400.0025294,4.0,3.0,5.0,-10.0,-2.0,3.0,-14.0,-4.0
1701719400.0025294,-5.0,-20.0,-22.0,-5.0,12.0,-5.0,1.0,-4.0
1701719400.003485,11.0,16.0,5.0,-2.0,2.0,17.0,29.0,9.0
1701719400.003485,-4.0,-25.0,-2.0,2.0,-6.0,8.0,32.0,-10.0
1701719400.0241718,-9.0,-11.0,4.0,-9.0,-6.0,-18.0,-10.0,11.0
1701719400.0241718,1.0,15.0,-24.0,-3.0,-2.0,9.0,12.0,-18.0
1701719400.0241718,6.0,15.0,2.0,-8.0,-13.0,-6.0,-16.0,18.0
1701719400.0241718,5.0,-5.0,36.0,9.0,9.0,-9.0,-14.0,-4.0
1701719400.0468786,-7.0,-35.0,-119.0,-21.0,-7.0,-1.0,-5.0,-3.0
1701719400.0468786,2.0,25.0,25.0,21.0,22.0,6.0,-5.0,-6.0
1701719400.0478961,2.0,24.0,30.0,0.0,-7.0,-2.0,6.0,-1.0
1701719400.0478961,2.0,1.0,-4.0,-16.0,-15.0,-3.0,-12.0,7.0
1701719400.0617955,-18.0,-13.0,4.0,8.0,6.0,-4.0,3.0,-7.0
1701719400.0617955,6.0,12.0,31.0,-41.0,18.0,5.0,9.0,8.0
1701719400.0617955,-3.0,-24.0,7.0,26.0,9.0,2.0,-12.0,-7.0
1701719400.0627882,-13.0,8.0,31.0,23.0,14.0,-1.0,0.0,-4.0
1701719400.0839949,5.0,12.0,-4.0,-10.0,-3.0,-5.0,2.0,-1.0
1701719400.0839949,7.0,13.0,30.0,53.0,19.0,9.0,-2.0,0.0
1701719400.0850117,-9.0,-8.0,-25.0,-25.0,-9.0,-10.0,-10.0,2.0
1701719400.0850117,1.0,2.0,-36.0,-15.0,-1.0,0.0,7.0,1.0
1701719400.1116965,6.0,-2.0,24.0,8.0,2.0,4.0,26.0,9.0
1701719400.1116965,-5.0,-30.0,-10.0,-14.0,-16.0,-4.0,6.0,3.0
1701719400.1116965,0.0,-8.0,-14.0,5.0,0.0,-5.0,-16.0,-8.0
1701719400.1116965,-6.0,-8.0,-22.0,-10.0,-4.0,-10.0,-9.0,-1.0
1701719400.1214867,9.0,28.0,44.0,26.0,6.0,17.0,-13.0,1.0
1701719400.1214867,-6.0,0.0,-18.0,-8.0,-18.0,-10.0,-20.0,-35.0
1701719400.1224988,-6.0,-10.0,-12.0,2.0,2.0,12.0,12.0,33.0
1701719400.1224988,2.0,14.0,35.0,-2.0,-1.0,-5.0,12.0,-6.0
1701719400.1441886,4.0,7.0,-22.0,-6.0,3.0,14.0,62.0,-1.0
1701719400.1441886,0.0,-1.0,18.0,7.0,-5.0,-4.0,-15.0,10.0
1701719400.1441886,-12.0,-24.0,-67.0,-22.0,-10.0,-24.0,-45.0,-20.0
1701719400.1441886,-5.0,8.0,22.0,13.0,1.0,7.0,21.0,8.0
1701719400.1633608,-2.0,-11.0,-5.0,-2.0,-4.0,-10.0,-34.0,-9.0
1701719400.1633608,2.0,-11.0,56.0,-27.0,-14.0,6.0,22.0,10.0
1701719400.1663616,0.0,-5.0,-6.0,40.0,-8.0,-1.0,4.0,-14.0
1701719400.1663616,-4.0,-11.0,-103.0,-24.0,-4.0,-3.0,-16.0,-2.0
1701719400.18093,1.0,-2.0,96.0,-5.0,37.0,3.0,6.0,8.0
1701719400.18093,-3.0,-9.0,-73.0,10.0,-1.0,-5.0,-10.0,6.0
1701719400.1819372,8.0,-15.0,76.0,-5.0,2.0,1.0,-2.0,-1.0
1701719400.1819372,3.0,-11.0,-7.0,-37.0,-42.0,-3.0,-6.0,-2.0
1701719400.20792,-2.0,-5.0,-13.0,58.0,46.0,3.0,-4.0,-2.0
1701719400.20792,-3.0,11.0,-36.0,0.0,-4.0,-3.0,-2.0,-2.0
1701719400.20792,1.0,29.0,50.0,-20.0,-6.0,5.0,1.0,-10.0
1701719400.20792,-4.0,16.0,8.0,42.0,8.0,-8.0,6.0,0.0
1701719400.226083,-1.0,25.0,-22.0,-32.0,-24.0,-3.0,-1.0,-1.0
1701719400.226083,-7.0,16.0,28.0,8.0,-5.0,-4.0,-4.0,-18.0
1701719400.2268386,0.0,2.0,-13.0,11.0,12.0,5.0,13.0,13.0
1701719400.2268386,4.0,3.0,11.0,-19.0,-4.0,3.0,-1.0,3.0
1701719400.2409995,-3.0,-3.0,-23.0,5.0,-15.0,-8.0,-16.0,1.0
1701719400.2409995,4.0,4.0,17.0,14.0,10.0,-1.0,-6.0,-1.0
1701719400.242153,-1.0,-15.0,-86.0,-22.0,3.0,-13.0,-30.0,-21.0
1701719400.242153,-9.0,-3.0,34.0,3.0,6.0,2.0,-4.0,-1.0
1701719400.2638044,7.0,1.0,0.0,13.0,0.0,25.0,73.0,12.0
1701719400.2638044,15.0,-23.0,-31.0,-19.0,-9.0,-8.0,-37.0,3.0
1701719400.264578,-10.0,-4.0,10.0,-2.0,-4.0,7.0,46.0,-9.0
1701719400.264578,-5.0,-1.0,29.0,6.0,7.0,-12.0,-23.0,-3.0
1701719400.2865572,-5.0,-11.0,-43.0,-1.0,-13.0,-10.0,-32.0,-2.0
1701719400.2865572,-4.0,-17.0,14.0,-9.0,-10.0,3.0,38.0,8.0
1701719400.2886412,5.0,2.0,9.0,4.0,4.0,-6.0,-46.0,-7.0
1701719400.2886412,5.0,-9.0,-50.0,-4.0,3.0,-7.0,-17.0,-11.0
1701719400.3019483,-3.0,13.0,32.0,-5.0,-14.0,6.0,6.0,11.0
1701719400.3019483,-4.0,-4.0,-17.0,-6.0,4.0,-1.0,25.0,5.0
1701719400.3019483,-2.0,7.0,43.0,11.0,2.0,-8.0,-29.0,-9.0
1701719400.3019483,-1.0,7.0,-13.0,0.0,5.0,5.0,21.0,6.0
1701719400.3298097,-5.0,-12.0,-9.0,-15.0,-7.0,-7.0,-23.0,-14.0
1701719400.3298097,0.0,6.0,14.0,11.0,-1.0,5.0,-16.0,14.0
1701719400.3298097,-6.0,-12.0,13.0,-1.0,-2.0,4.0,47.0,-6.0
1701719400.3298097,2.0,6.0,-4.0,-1.0,-4.0,0.0,-10.0,5.0
1701719400.346615,-5.0,-8.0,-23.0,-4.0,-1.0,-12.0,-27.0,-19.0
1701719400.3476362,16.0,1.0,-12.0,-1.0,-1.0,-2.0,-13.0,5.0
1701719400.3476362,-16.0,11.0,11.0,-3.0,-6.0,1.0,-2.0,-6.0
1701719400.3476362,1.0,-7.0,-14.0,0.0,-2.0,3.0,11.0,6.0
1701719400.3611734,4.0,7.0,6.0,-4.0,9.0,-2.0,-7.0,12.0
1701719400.3611734,-16.0,-9.0,-1.0,-7.0,-10.0,-2.0,-8.0,-14.0
1701719400.3621128,9.0,7.0,-8.0,2.0,-9.0,-1.0,-24.0,2.0
1701719400.3621128,1.0,-5.0,-17.0,-13.0,-1.0,1.0,-1.0,-11.0
1701719400.3840077,7.0,-8.0,42.0,7.0,-2.0,0.0,15.0,6.0
1701719400.3840077,-8.0,-14.0,23.0,23.0,3.0,-7.0,-4.0,5.0
1701719400.3840077,0.0,-13.0,9.0,-4.0,-1.0,-1.0,-7.0,-3.0
1701719400.3840077,-5.0,-1.0,19.0,-4.0,-5.0,4.0,-2.0,-2.0
1701719400.4067574,4.0,15.0,-21.0,1.0,-5.0,-8.0,-29.0,-9.0
1701719400.4067574,2.0,21.0,-13.0,-10.0,-1.0,6.0,21.0,11.0
1701719400.4067574,-8.0,-7.0,11.0,-14.0,-13.0,-5.0,6.0,-5.0
1701719400.4067574,0.0,7.0,2.0,15.0,17.0,6.0,10.0,6.0
1701719400.4217613,2.0,5.0,1.0,-2.0,-3.0,-4.0,-4.0,6.0
1701719400.4217613,-1.0,3.0,-3.0,4.0,-9.0,-1.0,-3.0,-10.0
1701719400.4229093,-2.0,-1.0,-9.0,0.0,5.0,3.0,10.0,12.0
1701719400.4229093,-2.0,-12.0,58.0,17.0,-8.0,-11.0,-12.0,-4.0
1701719400.445651,-4.0,-15.0,-68.0,-36.0,-4.0,2.0,-2.0,-11.0
1701719400.445651,-8.0,-19.0,22.0,6.0,-1.0,-2.0,-6.0,1.0
1701719400.4466481,-1.0,-10.0,-21.0,-19.0,-2.0,-4.0,-5.0,-4.0
1701719400.4466481,-1.0,8.0,28.0,-6.0,5.0,9.0,21.0,6.0
1701719400.459106,-1.0,-8.0,-42.0,12.0,-9.0,-6.0,23.0,5.0
1701719400.459106,1.0,-14.0,62.0,33.0,15.0,5.0,-9.0,-7.0
1701719400.466182,0.0,2.0,-81.0,-34.0,-6.0,-8.0,-10.0,-1.0
1701719400.466182,0.0,-5.0,26.0,-5.0,-2.0,-1.0,-11.0,-8.0
1701719400.482419,-1.0,8.0,15.0,-2.0,4.0,-2.0,-17.0,-5.0
1701719400.482419,-2.0,19.0,-35.0,-3.0,3.0,-5.0,-11.0,8.0
1701719400.4854157,11.0,0.0,64.0,39.0,6.0,2.0,-7.0,7.0
1701719400.4854157,-4.0,10.0,-17.0,-25.0,-8.0,1.0,2.0,0.0
1701719400.5036302,-6.0,-7.0,33.0,8.0,3.0,-3.0,3.0,-4.0
1701719400.5036302,0.0,2.0,3.0,-2.0,-6.0,-9.0,-21.0,-17.0
1701719400.504874,-4.0,-16.0,-13.0,-6.0,20.0,8.0,15.0,-1.0
1701719400.504874,1.0,17.0,31.0,-5.0,-5.0,-3.0,-33.0,-8.0
1701719400.517958,-1.0,1.0,-48.0,-8.0,-9.0,-3.0,-2.0,-3.0
1701719400.517958,-2.0,4.0,24.0,16.0,-9.0,-4.0,16.0,5.0
1701719400.526129,1.0,-1.0,-42.0,8.0,24.0,2.0,-7.0,-19.0
1701719400.526129,2.0,5.0,29.0,12.0,5.0,6.0,21.0,19.0
1701719400.5464976,-2.0,-8.0,1.0,-2.0,-4.0,-3.0,-12.0,-21.0
1701719400.5474977,-5.0,-5.0,-6.0,-1.0,-8.0,-5.0,-33.0,8.0
1701719400.5474977,8.0,31.0,30.0,2.0,-10.0,5.0,71.0,3.0
1701719400.5474977,2.0,-4.0,-62.0,-12.0,16.0,7.0,-12.0,9.0
1701719400.573775,-9.0,-4.0,14.0,8.0,-2.0,-18.0,-37.0,-6.0
1701719400.573775,2.0,-3.0,-29.0,-24.0,-9.0,-8.0,-1.0,3.0
1701719400.573775,5.0,21.0,20.0,6.0,-8.0,5.0,5.0,12.0
1701719400.573775,0.0,0.0,-10.0,-5.0,-15.0,-3.0,14.0,-4.0
1701719400.5782964,-12.0,-13.0,20.0,9.0,6.0,17.0,21.0,10.0
1701719400.5793228,-2.0,0.0,-11.0,-13.0,-3.0,2.0,13.0,-11.0
1701719400.5866392,-13.0,-11.0,18.0,-14.0,-6.0,-11.0,-24.0,-5.0
1701719400.5866392,2.0,-2.0,-4.0,26.0,7.0,0.0,-1.0,-7.0
1701719400.610108,3.0,4.0,19.0,7.0,11.0,0.0,-1.0,5.0
1701719400.610108,-3.0,-8.0,-37.0,-16.0,6.0,-3.0,3.0,-7.0
1701719400.610108,0.0,4.0,28.0,11.0,-7.0,2.0,-10.0,2.0
1701719400.610108,-1.0,-12.0,-48.0,-13.0,0.0,-1.0,13.0,-2.0
1701719400.6247766,1.0,-20.0,-15.0,12.0,-13.0,-3.0,5.0,2.0
1701719400.6247766,-4.0,19.0,-4.0,-10.0,9.0,8.0,12.0,0.0
1701719400.6247766,-2.0,-7.0,-6.0,12.0,-13.0,-10.0,-18.0,-1.0
1701719400.625761,-5.0,7.0,43.0,2.0,2.0,-4.0,-12.0,-6.0
1701719400.6392026,1.0,-9.0,-8.0,-16.0,11.0,5.0,16.0,-2.0
1701719400.6392026,6.0,13.0,-11.0,28.0,-3.0,-1.0,-11.0,5.0
1701719400.645813,-1.0,0.0,-5.0,-35.0,-10.0,9.0,15.0,5.0
1701719400.645813,-7.0,-42.0,67.0,-8.0,-2.0,-9.0,13.0,-8.0
1701719400.6663046,0.0,1.0,-52.0,-41.0,-26.0,1.0,19.0,3.0
1701719400.6663046,2.0,-3.0,72.0,39.0,37.0,10.0,1.0,-3.0
1701719400.667306,-4.0,-9.0,-7.0,0.0,2.0,-9.0,-45.0,-4.0
1701719400.668305,6.0,-2.0,-37.0,9.0,3.0,11.0,49.0,4.0
1701719400.684026,6.0,18.0,29.0,-16.0,-4.0,4.0,13.0,5.0
1701719400.684026,-8.0,-19.0,-33.0,-64.0,-21.0,-7.0,10.0,-7.0
1701719400.684026,4.0,0.0,24.0,39.0,0.0,-1.0,-25.0,-5.0
1701719400.684026,-4.0,-4.0,-17.0,-27.0,9.0,-4.0,-11.0,2.0
1701719400.6980858,0.0,13.0,-31.0,5.0,-2.0,-3.0,-5.0,4.0
1701719400.6980858,1.0,-18.0,15.0,-3.0,-14.0,2.0,15.0,0.0
1701719400.705865,-3.0,15.0,4.0,7.0,21.0,3.0,5.0,-10.0
1701719400.705865,11.0,9.0,23.0,21.0,-6.0,3.0,12.0,14.0
1701719400.7231414,-4.0,-11.0,-7.0,-7.0,-6.0,-6.0,-21.0,-7.0
1701719400.7231414,1.0,9.0,-36.0,18.0,-2.0,-1.0,-5.0,-1.0
1701719400.7241545,-6.0,-17.0,3.0,-12.0,0.0,2.0,15.0,-34.0
1701719400.7241545,2.0,-5.0,-18.0,-6.0,-11.0,-9.0,-28.0,19.0
1701719400.7395697,4.0,26.0,76.0,22.0,8.0,-3.0,-5.0,15.0
1701719400.7395697,8.0,2.0,-53.0,-11.0,4.0,-8.0,7.0,2.0
1701719400.7395697,5.0,-25.0,4.0,4.0,-15.0,2.0,-1.0,-16.0
1701719400.7395697,-13.0,18.0,-22.0,-15.0,8.0,5.0,22.0,-3.0
1701719400.7666652,3.0,-10.0,31.0,36.0,28.0,8.0,-21.0,7.0
1701719400.7666652,-7.0,-6.0,-86.0,-36.0,1.0,-13.0,-1.0,-2.0
1701719400.7686715,-2.0,8.0,-15.0,-7.0,-8.0,-2.0,6.0,8.0
1701719400.7697005,6.0,4.0,23.0,14.0,-2.0,4.0,14.0,0.0
1701719400.7924309,3.0,9.0,11.0,-12.0,-18.0,0.0,19.0,4.0
1701719400.7924309,-4.0,-10.0,8.0,22.0,11.0,4.0,-24.0,-5.0
1701719400.7924309,-1.0,2.0,-5.0,-6.0,1.0,-6.0,-16.0,0.0
1701719400.7924309,-4.0,-15.0,-9.0,4.0,-3.0,-6.0,-13.0,9.0
1701719400.8024776,-3.0,6.0,-20.0,-2.0,-1.0,9.0,24.0,0.0
1701719400.8024776,3.0,10.0,49.0,6.0,-14.0,-2.0,-5.0,-16.0
1701719400.8024776,-4.0,-8.0,-54.0,-23.0,11.0,-1.0,6.0,18.0
1701719400.8024776,-6.0,-5.0,9.0,29.0,4.0,-3.0,-20.0,-17.0
1701719400.822432,-3.0,-14.0,-15.0,-4.0,4.0,-2.0,-18.0,-11.0
1701719400.822432,1.0,4.0,-26.0,-9.0,-10.0,11.0,31.0,9.0
1701719400.822432,-4.0,-2.0,43.0,12.0,-11.0,-3.0,-2.0,5.0
1701719400.822432,-3.0,-17.0,-75.0,-27.0,7.0,-7.0,-21.0,-8.0
1701719400.8327942,-4.0,9.0,85.0,32.0,28.0,-7.0,-4.0,-7.0
1701719400.8327942,-5.0,-17.0,-4.0,-9.0,-12.0,-2.0,-14.0,-9.0
1701719400.8327942,1.0,4.0,-13.0,4.0,6.0,11.0,-9.0,14.0
1701719400.8424993,-1.0,10.0,-11.0,7.0,-3.0,-1.0,0.0,-10.0
1701719400.862943,2.0,-2.0,9.0,-7.0,1.0,-5.0,3.0,5.0
1701719400.862943,-7.0,-11.0,-45.0,-24.0,-20.0,-2.0,14.0,-4.0
1701719400.862943,3.0,1.0,-2.0,33.0,20.0,0.0,-5.0,9.0
1701719400.862943,4.0,10.0,36.0,30.0,-7.0,-8.0,-18.0,-14.0
1701719400.8829522,-5.0,-1.0,-22.0,-50.0,-12.0,-13.0,-31.0,2.0
1701719400.8829522,-3.0,7.0,49.0,26.0,9.0,15.0,29.0,-15.0
1701719400.8829522,2.0,-8.0,-50.0,-40.0,-20.0,-1.0,38.0,15.0
1701719400.8829522,-5.0,4.0,19.0,-9.0,-7.0,-3.0,-39.0,0.0
1701719400.8929875,6.0,0.0,-12.0,28.0,1.0,-6.0,0.0,-5.0
1701719400.8929875,-7.0,1.0,-26.0,-11.0,-7.0,-10.0,-16.0,-15.0
1701719400.8929875,-7.0,-2.0,6.0,2.0,-1.0,-8.0,-51.0,-19.0
1701719400.8929875,6.0,6.0,-19.0,-12.0,1.0,1.0,37.0,20.0
1701719400.9233673,-9.0,-22.0,-13.0,4.0,-7.0,2.0,11.0,-2.0
1701719400.9233673,-5.0,-2.0,13.0,-6.0,5.0,-2.0,-43.0,-7.0
1701719400.9233673,3.0,21.0,-9.0,-2.0,-3.0,-7.0,20.0,-2.0
1701719400.9233673,1.0,-22.0,23.0,7.0,1.0,8.0,8.0,1.0
1701719400.9429524,0.0,-25.0,-32.0,-4.0,-14.0,-9.0,-19.0,-12.0
1701719400.9429524,4.0,18.0,26.0,-19.0,10.0,-3.0,14.0,22.0
1701719400.9429524,5.0,-14.0,-2.0,5.0,6.0,1.0,18.0,13.0
1701719400.9429524,-3.0,35.0,26.0,-21.0,-26.0,-10.0,-16.0,-18.0
1701719400.9532905,-1.0,8.0,-16.0,5.0,-3.0,8.0,27.0,5.0
1701719400.9532905,4.0,-4.0,-5.0,26.0,16.0,4.0,-11.0,-3.0
1701719400.9532905,-1.0,-3.0,-17.0,-19.0,16.0,1.0,-3.0,-5.0
1701719400.9532905,-12.0,-27.0,18.0,-11.0,-11.0,-4.0,1.0,0.0
1701719400.9833462,-3.0,-9.0,-54.0,-32.0,-28.0,-2.0,-3.0,-7.0
1701719400.9833462,-5.0,-11.0,35.0,-5.0,0.0,-7.0,-2.0,1.0
1701719400.9833462,0.0,6.0,65.0,-5.0,-12.0,-2.0,2.0,-11.0
1701719400.9833462,3.0,-14.0,10.0,23.0,29.0,8.0,5.0,2.0
1701719401.0029535,-7.0,10.0,7.0,21.0,26.0,3.0,-2.0,-6.0
1701719401.0029535,-3.0,10.0,-6.0,26.0,1.0,-3.0,-3.0,7.0
1701719401.0029535,6.0,15.0,54.0,-32.0,-17.0,1.0,8.0,2.0
1701719401.0029535,-1.0,-8.0,-29.0,9.0,35.0,2.0,-1.0,-7.0
1701719401.0132813,-2.0,1.0,-3.0,-15.0,-20.0,-7.0,-7.0,-4.0
1701719401.0132813,4.0,-3.0,13.0,-15.0,-11.0,1.0,4.0,12.0
1701719401.0132813,-1.0,-1.0,-18.0,9.0,-3.0,5.0,5.0,-6.0
1701719401.0132813,-2.0,17.0,14.0,8.0,-10.0,-4.0,-8.0,-1.0
1701719401.0429854,5.0,-1.0,17.0,8.0,5.0,3.0,1.0,3.0
1701719401.0429854,0.0,-3.0,-60.0,-9.0,-6.0,4.0,13.0,2.0
1701719401.052953,-7.0,-11.0,-55.0,6.0,2.0,-2.0,10.0,-1.0
1701719401.052953,-1.0,0.0,20.0,-12.0,-10.0,-1.0,-33.0,-9.0
1701719401.0631936,1.0,9.0,1.0,7.0,11.0,4.0,33.0,7.0
1701719401.0631936,1.0,0.0,78.0,12.0,-4.0,0.0,-6.0,-4.0
1701719401.0631936,-3.0,-2.0,-46.0,13.0,-5.0,0.0,-1.0,6.0
1701719401.0631936,3.0,8.0,38.0,-20.0,2.0,-1.0,21.0,-7.0
1701719401.073193,-9.0,-23.0,-25.0,-22.0,3.0,-10.0,-32.0,-1.0
1701719401.073193,2.0,4.0,49.0,-2.0,-4.0,-5.0,-20.0,-24.0
1701719401.0829597,-4.0,8.0,35.0,17.0,3.0,20.0,36.0,27.0
1701719401.0829597,0.0,11.0,-18.0,4.0,-13.0,-3.0,-9.0,-5.0
1701719401.1230083,-3.0,-19.0,20.0,0.0,-6.0,12.0,41.0,0.0
1701719401.1230083,-1.0,0.0,-4.0,-2.0,4.0,-10.0,19.0,11.0
1701719401.1230083,5.0,8.0,2.0,-4.0,-3.0,-5.0,-16.0,-6.0
1701719401.1230083,-5.0,-6.0,-20.0,-6.0,-10.0,-6.0,-9.0,3.0
1701719401.1230083,4.0,0.0,28.0,11.0,13.0,-3.0,-50.0,-18.0
1701719401.1230083,-4.0,-15.0,-71.0,-14.0,-4.0,2.0,0.0,-1.0
1701719401.1230083,-2.0,15.0,57.0,17.0,-11.0,-5.0,13.0,6.0
1701719401.1230083,-1.0,10.0,6.0,1.0,1.0,4.0,6.0,-2.0
1701719401.133332,-2.0,12.0,-30.0,13.0,16.0,-1.0,-2.0,-3.0
1701719401.133332,-4.0,-16.0,-20.0,-31.0,12.0,5.0,7.0,0.0
1701719401.133332,-3.0,-10.0,20.0,19.0,9.0,-15.0,-18.0,-1.0
1701719401.133332,-3.0,-11.0,-45.0,-14.0,-14.0,-10.0,-45.0,-25.0
1701719401.163009,-4.0,4.0,-7.0,-10.0,-19.0,4.0,8.0,10.0
1701719401.163009,1.0,2.0,37.0,3.0,-2.0,11.0,2.0,9.0
1701719401.163009,-1.0,-5.0,-29.0,-15.0,-1.0,-2.0,22.0,-3.0
1701719401.163009,1.0,0.0,-15.0,5.0,5.0,3.0,11.0,22.0
1701719401.1834414,-5.0,3.0,38.0,5.0,-5.0,5.0,5.0,-16.0
1701719401.1834414,-4.0,10.0,21.0,0.0,-3.0,-7.0,-13.0,-15.0
1701719401.1834414,-3.0,-16.0,-45.0,-18.0,-7.0,-3.0,-4.0,2.0
1701719401.1834414,1.0,4.0,2.0,0.0,-8.0,-11.0,-18.0,-3.0
1701719401.1933665,-1.0,-29.0,70.0,39.0,9.0,-4.0,-9.0,3.0
1701719401.1933665,-5.0,10.0,-58.0,-24.0,2.0,0.0,-3.0,-1.0
1701719401.1933665,-3.0,-4.0,-44.0,-26.0,-11.0,-6.0,-17.0,-13.0
1701719401.1933665,-5.0,-20.0,54.0,14.0,5.0,5.0,21.0,5.0
1701719401.2233856,6.0,48.0,33.0,2.0,-15.0,0.0,12.0,4.0
1701719401.2233856,0.0,-21.0,-2.0,16.0,12.0,1.0,0.0,-2.0
1701719401.2233856,-2.0,-18.0,-55.0,15.0,0.0,1.0,-19.0,-7.0
1701719401.2233856,0.0,-15.0,-85.0,-64.0,-11.0,-5.0,16.0,7.0
1701719401.2434146,-2.0,0.0,18.0,-6.0,-19.0,-4.0,-7.0,-4.0
1701719401.2434146,4.0,6.0,59.0,17.0,20.0,3.0,0.0,5.0
1701719401.2434146,-1.0,9.0,54.0,-3.0,-21.0,-5.0,0.0,-4.0
1701719401.2434146,1.0,0.0,-56.0,0.0,11.0,7.0,4.0,-2.0
1701719401.2533255,-6.0,6.0,-4.0,31.0,6.0,-3.0,-9.0,1.0
1701719401.2533255,-1.0,-9.0,-32.0,-16.0,-11.0,-4.0,10.0,3.0
1701719401.2533255,-1.0,4.0,46.0,2.0,20.0,5.0,-7.0,-6.0
1701719401.2533255,-1.0,-6.0,-27.0,-15.0,-9.0,-3.0,4.0,-3.0
1701719401.2837162,1.0,-1.0,48.0,-3.0,4.0,-3.0,-2.0,8.0
1701719401.2837162,2.0,1.0,-51.0,2.0,0.0,1.0,32.0,10.0
1701719401.2847347,0.0,5.0,23.0,20.0,8.0,-10.0,-34.0,-3.0
1701719401.2847347,-4.0,-7.0,24.0,3.0,-4.0,2.0,-16.0,-4.0
1701719401.2987018,-1.0,-4.0,-73.0,-30.0,0.0,0.0,-5.0,-4.0
1701719401.2987018,2.0,20.0,70.0,24.0,-11.0,-5.0,3.0,-1.0
1701719401.2987018,5.0,1.0,-54.0,-9.0,6.0,12.0,56.0,1.0
1701719401.2987018,0.0,-1.0,-30.0,-2.0,-2.0,-12.0,-6.0,11.0
1701719401.3185592,-13.0,-1.0,-15.0,-14.0,-5.0,-1.0,9.0,-2.0
1701719401.3185592,4.0,9.0,45.0,11.0,-2.0,3.0,-37.0,-3.0
1701719401.3185592,-5.0,-6.0,-57.0,-10.0,0.0,-7.0,-32.0,0.0
1701719401.3185592,3.0,15.0,120.0,30.0,7.0,2.0,4.0,-3.0
1701719401.3387434,-4.0,-16.0,-107.0,-40.0,-1.0,-7.0,-17.0,-7.0
1701719401.3387434,4.0,12.0,72.0,7.0,-18.0,-8.0,-9.0,-3.0
1701719401.3387434,-11.0,-35.0,-68.0,9.0,10.0,3.0,-4.0,-14.0
1701719401.3387434,-3.0,9.0,17.0,12.0,-3.0,5.0,30.0,4.0
1701719401.3587937,7.0,7.0,-44.0,-39.0,0.0,3.0,20.0,7.0
1701719401.3587937,-7.0,-11.0,15.0,18.0,-14.0,-5.0,-4.0,-5.0
1701719401.3587937,6.0,10.0,28.0,-5.0,23.0,2.0,-1.0,3.0
1701719401.3587937,-4.0,-9.0,35.0,-5.0,-17.0,-4.0,-14.0,-24.0
1701719401.378575,1.0,11.0,41.0,-5.0,-29.0,-7.0,-1.0,4.0
1701719401.378575,4.0,-9.0,38.0,49.0,33.0,3.0,0.0,8.0
1701719401.388791,-2.0,-2.0,-67.0,-43.0,-13.0,-3.0,-3.0,-4.0
1701719401.388791,-4.0,-2.0,-4.0,-2.0,10.0,4.0,6.0,-2.0
1701719401.398399,1.0,-26.0,-35.0,-36.0,-20.0,-4.0,1.0,-7.0
1701719401.398399,-4.0,21.0,63.0,4.0,-13.0,-3.0,-6.0,-4.0
1701719401.398399,-6.0,-5.0,18.0,28.0,4.0,-4.0,-4.0,0.0
1701719401.398399,2.0,-21.0,56.0,21.0,24.0,4.0,5.0,-1.0
1701719401.4583948,1.0,18.0,2.0,-1.0,-10.0,-3.0,-3.0,-2.0
1701719401.4583948,-2.0,-4.0,-128.0,-60.0,-13.0,-4.0,-7.0,-4.0
1701719401.4583948,-4.0,-11.0,28.0,12.0,0.0,1.0,57.0,15.0
1701719401.4583948,6.0,23.0,35.0,6.0,-6.0,-2.0,-46.0,-7.0
1701719401.4583948,4.0,-1.0,-33.0,23.0,17.0,5.0,12.0,0.0
1701719401.4583948,-15.0,-28.0,-36.0,-31.0,1.0,-3.0,-20.0,-10.0
1701719401.4583948,1.0,3.0,62.0,-13.0,-10.0,-14.0,-8.0,2.0
1701719401.4583948,2.0,13.0,-29.0,0.0,-4.0,15.0,25.0,12.0
1701719401.4583948,3.0,11.0,80.0,35.0,13.0,-2.0,-1.0,2.0
1701719401.4583948,-3.0,6.0,-3.0,-3.0,2.0,2.0,26.0,-6.0
1701719401.4583948,-1.0,2.0,-39.0,0.0,-11.0,-4.0,-58.0,-13.0
1701719401.4583948,-3.0,-8.0,-9.0,10.0,4.0,-1.0,-11.0,-7.0
1701719401.4787102,0.0,-27.0,18.0,-3.0,6.0,1.0,-4.0,-1.0
1701719401.4787102,8.0,24.0,-51.0,-16.0,1.0,4.0,14.0,11.0
1701719401.4787102,-3.0,-14.0,-20.0,-19.0,-8.0,-10.0,-28.0,-11.0
1701719401.4787102,-6.0,0.0,19.0,27.0,15.0,-1.0,10.0,-2.0
1701719401.4984436,4.0,13.0,-25.0,-7.0,-1.0,5.0,-1.0,0.0
1701719401.4984436,0.0,-17.0,12.0,-3.0,-2.0,-6.0,-23.0,-26.0
1701719401.5085614,-4.0,-1.0,13.0,-1.0,-5.0,3.0,14.0,9.0
1701719401.5085614,4.0,-12.0,-9.0,-18.0,0.0,3.0,3.0,5.0
1701719401.5188994,-3.0,0.0,-6.0,14.0,1.0,-5.0,-5.0,0.0
1701719401.5188994,-3.0,-6.0,-17.0,-12.0,-8.0,2.0,4.0,-5.0
1701719401.5188994,1.0,1.0,33.0,37.0,12.0,-7.0,0.0,6.0
1701719401.5188994,2.0,-38.0,-9.0,-25.0,-18.0,6.0,9.0,11.0
1701719401.5388768,-10.0,-2.0,-9.0,-1.0,6.0,-7.0,-23.0,-7.0
1701719401.5388768,-5.0,-9.0,-11.0,11.0,1.0,-1.0,1.0,1.0
1701719401.5388768,-1.0,24.0,32.0,10.0,-8.0,1.0,-18.0,-24.0
1701719401.5388768,-1.0,-28.0,-41.0,-39.0,-15.0,-7.0,30.0,-7.0
1701719401.5584888,-1.0,15.0,35.0,20.0,32.0,-3.0,6.0,29.0
1701719401.5584888,6.0,2.0,-3.0,7.0,-4.0,1.0,2.0,-12.0
1701719401.568728,-7.0,-17.0,-10.0,-16.0,-9.0,-3.0,22.0,8.0
1701719401.568728,-1.0,18.0,-53.0,-7.0,-10.0,-8.0,-26.0,-11.0
1701719401.5787745,7.0,-1.0,109.0,7.0,-24.0,3.0,-11.0,-15.0
1701719401.5787745,-6.0,-19.0,-100.0,-13.0,25.0,4.0,6.0,8.0
1701719401.5787745,-2.0,2.0,25.0,-4.0,-1.0,-2.0,-15.0,-7.0
1701719401.5787745,0.0,19.0,27.0,18.0,2.0,-3.0,-3.0,-5.0
1701719401.5987551,-1.0,-1.0,13.0,1.0,-12.0,-1.0,7.0,0.0
1701719401.5987551,-5.0,-7.0,-19.0,-7.0,3.0,-1.0,-3.0,7.0
1701719401.6084645,5.0,2.0,1.0,5.0,0.0,9.0,2.0,0.0
1701719401.6084645,-4.0,11.0,-9.0,0.0,2.0,-6.0,-1.0,3.0
1701719401.6284661,2.0,10.0,-7.0,16.0,23.0,5.0,2.0,-4.0
1701719401.6284661,-7.0,-27.0,50.0,-12.0,-20.0,-8.0,-30.0,-5.0
1701719401.6284661,2.0,-1.0,-38.0,-14.0,2.0,12.0,39.0,10.0
1701719401.6284661,-1.0,15.0,35.0,-17.0,-3.0,-15.0,-5.0,1.0
1701719401.63856,-1.0,-3.0,-32.0,-23.0,-14.0,-3.0,-34.0,-12.0
1701719401.63856,9.0,28.0,39.0,21.0,8.0,2.0,22.0,6.0
1701719401.63856,0.0,-2.0,70.0,-11.0,1.0,-1.0,1.0,-7.0
1701719401.63856,-9.0,1.0,-14.0,39.0,-3.0,-10.0,-24.0,9.0
1701719401.658458,4.0,-14.0,-42.0,-29.0,-2.0,-2.0,20.0,5.0
1701719401.658458,0.0,28.0,20.0,25.0,-4.0,-3.0,-44.0,-22.0
1701719401.658458,6.0,6.0,-10.0,-26.0,-5.0,12.0,56.0,20.0
1701719401.658458,1.0,0.0,-12.0,0.0,1.0,2.0,20.0,2.0
1701719401.6788511,2.0,-1.0,-1.0,7.0,-2.0,-10.0,-45.0,-29.0
1701719401.6788511,-15.0,-30.0,-7.0,-1.0,-6.0,8.0,-4.0,14.0
1701719401.688876,2.0,5.0,-14.0,10.0,0.0,-2.0,-9.0,0.0
1701719401.688876,4.0,13.0,13.0,-12.0,2.0,7.0,9.0,-5.0
1701719401.6989412,-2.0,11.0,-11.0,-4.0,-3.0,-3.0,8.0,1.0
1701719401.6989412,3.0,-1.0,2.0,-9.0,-16.0,-10.0,2.0,6.0
1701719401.709173,1.0,-4.0,24.0,14.0,9.0,0.0,-10.0,-9.0
1701719401.709173,-7.0,2.0,-11.0,34.0,-1.0,-3.0,-10.0,4.0
1701719401.7189531,-6.0,-19.0,-83.0,-60.0,-6.0,-5.0,-3.0,-9.0
1701719401.7189531,2.0,-1.0,43.0,-5.0,-19.0,-3.0,-1.0,-1.0
1701719401.7189531,-1.0,0.0,-45.0,-8.0,16.0,1.0,-5.0,8.0
1701719401.7189531,2.0,14.0,-11.0,-5.0,-6.0,0.0,5.0,-12.0
1701719401.7492816,5.0,11.0,14.0,16.0,-2.0,3.0,0.0,7.0
1701719401.7492816,-5.0,-40.0,37.0,-17.0,-2.0,-2.0,7.0,1.0
1701719401.7492816,0.0,0.0,26.0,20.0,10.0,0.0,-5.0,-3.0
1701719401.7492816,0.0,0.0,-11.0,-5.0,10.0,2.0,-3.0,-3.0
1701719401.7593272,-7.0,-25.0,-46.0,-2.0,-12.0,5.0,10.0,3.0
1701719401.7593272,8.0,26.0,86.0,27.0,14.0,4.0,14.0,13.0
1701719401.7593272,-5.0,-6.0,9.0,-4.0,-9.0,-9.0,-24.0,-10.0
1701719401.7593272,-4.0,-21.0,-86.0,-36.0,2.0,3.0,2.0,-3.0
1701719401.7789521,-1.0,7.0,27.0,20.0,8.0,0.0,15.0,9.0
1701719401.7789521,-1.0,11.0,-47.0,12.0,1.0,0.0,21.0,6.0
1701719401.7789521,-3.0,-24.0,-39.0,-16.0,-10.0,-3.0,-7.0,-14.0
1701719401.7789521,4.0,20.0,13.0,15.0,-4.0,-1.0,-6.0,6.0
1701719401.8098285,-10.0,1.0,24.0,-5.0,4.0,-1.0,1.0,9.0
1701719401.8098285,6.0,-3.0,-29.0,2.0,-1.0,-6.0,4.0,6.0
1701719401.8098285,-4.0,11.0,19.0,3.0,0.0,8.0,3.0,-25.0
1701719401.8098285,1.0,-8.0,8.0,-6.0,7.0,5.0,42.0,32.0
1701719401.8314,-2.0,-10.0,-10.0,3.0,-9.0,-7.0,-28.0,-2.0
1701719401.8314,20.0,11.0,11.0,6.0,7.0,11.0,-35.0,-14.0
1701719401.8314,-19.0,33.0,48.0,21.0,-1.0,-8.0,-16.0,7.0
1701719401.8314,1.0,-45.0,-73.0,-39.0,-15.0,-1.0,4.0,-13.0
1701719401.8412957,-4.0,0.0,31.0,17.0,-3.0,-9.0,-8.0,-14.0
1701719401.8412957,10.0,5.0,-15.0,-9.0,4.0,-7.0,1.0,16.0
1701719401.8412957,2.0,-2.0,24.0,6.0,-9.0,-1.0,-6.0,-10.0
1701719401.8412957,-6.0,-1.0,45.0,9.0,12.0,3.0,-18.0,-9.0
1701719401.861712,0.0,4.0,-19.0,3.0,2.0,3.0,17.0,6.0
1701719401.861712,-13.0,-14.0,-17.0,-20.0,-13.0,0.0,0.0,-13.0
1701719401.861712,8.0,1.0,12.0,-3.0,2.0,0.0,6.0,7.0
1701719401.861712,-5.0,13.0,5.0,20.0,-10.0,-10.0,-13.0,4.0
1701719401.8812969,-1.0,-13.0,-34.0,-20.0,1.0,-4.0,-17.0,-3.0
1701719401.8812969,-9.0,-4.0,1.0,-19.0,-10.0,-3.0,4.0,-10.0
1701719401.8812969,-2.0,-15.0,-1.0,5.0,-1.0,16.0,40.0,15.0
1701719401.8812969,1.0,0.0,5.0,17.0,1.0,-16.0,8.0,-10.0
1701719401.9016187,1.0,-3.0,0.0,-4.0,5.0,21.0,-46.0,-6.0
1701719401.9016187,-3.0,5.0,-14.0,9.0,1.0,-13.0,-24.0,1.0
1701719401.9016187,7.0,9.0,-40.0,-17.0,-5.0,-13.0,-25.0,3.0
1701719401.9016187,-4.0,-11.0,31.0,22.0,-18.0,-1.0,-6.0,-11.0
1701719401.9213054,-2.0,-3.0,-66.0,23.0,28.0,-3.0,16.0,-1.0
1701719401.9213054,-7.0,-15.0,6.0,-89.0,-5.0,0.0,6.0,2.0
1701719401.9313006,7.0,-2.0,54.0,30.0,-11.0,1.0,-10.0,1.0
1701719401.9313006,5.0,48.0,78.0,-47.0,11.0,4.0,-2.0,-2.0
1701719401.9612958,-13.0,-31.0,-43.0,13.0,-30.0,-10.0,12.0,-3.0
1701719401.9612958,-2.0,-2.0,-23.0,19.0,-3.0,6.0,9.0,1.0
1701719401.9612958,-4.0,-16.0,-56.0,11.0,9.0,-4.0,-4.0,-4.0
1701719401.9612958,2.0,8.0,25.0,2.0,-19.0,-2.0,-11.0,1.0
1701719401.9612958,2.0,13.0,56.0,30.0,14.0,5.0,30.0,7.0
1701719401.9612958,-3.0,0.0,-16.0,-40.0,11.0,0.0,-44.0,-19.0
1701719401.9612958,-1.0,1.0,3.0,-22.0,-18.0,-5.0,-10.0,4.0
1701719401.9612958,-3.0,-3.0,-15.0,34.0,-15.0,-3.0,-1.0,2.0
1701719401.9817183,1.0,2.0,-8.0,-37.0,25.0,7.0,4.0,0.0
1701719401.9817183,2.0,11.0,36.0,35.0,-4.0,-2.0,10.0,-11.0
1701719401.9817183,3.0,0.0,-7.0,4.0,12.0,-4.0,-12.0,-1.0
1701719401.9817183,-2.0,-3.0,-24.0,-2.0,-1.0,5.0,-10.0,14.0
1701719402.0012968,1.0,7.0,50.0,-8.0,-23.0,-3.0,12.0,-5.0
1701719402.0012968,5.0,15.0,-2.0,39.0,66.0,5.0,12.0,6.0
1701719402.0012968,-13.0,-26.0,-23.0,-28.0,-12.0,-5.0,-26.0,-23.0
1701719402.0012968,2.0,-11.0,-37.0,-10.0,12.0,6.0,7.0,9.0
1701719402.0215986,2.0,8.0,73.0,10.0,-24.0,-6.0,8.0,5.0
1701719402.0215986,-9.0,0.0,38.0,11.0,-17.0,-3.0,-10.0,-8.0
1701719402.0215986,-4.0,-15.0,-17.0,1.0,4.0,-2.0,16.0,9.0
1701719402.0215986,3.0,3.0,21.0,3.0,10.0,-15.0,-26.0,-14.0
1701719402.0612974,-6.0,-26.0,-49.0,-16.0,-3.0,-3.0,-5.0,0.0
1701719402.0612974,5.0,18.0,9.0,16.0,-7.0,13.0,56.0,14.0
1701719402.0612974,4.0,3.0,9.0,-7.0,5.0,9.0,24.0,9.0
1701719402.0612974,-6.0,-13.0,-32.0,-13.0,-7.0,-4.0,-25.0,-10.0
1701719402.0612974,8.0,18.0,-1.0,5.0,8.0,1.0,1.0,-11.0
1701719402.0612974,-6.0,-37.0,-21.0,-5.0,-6.0,1.0,3.0,-6.0
1701719402.0612974,-10.0,-7.0,25.0,-12.0,-22.0,-19.0,-9.0,19.0
1701719402.0612974,-8.0,18.0,5.0,9.0,22.0,1.0,-20.0,-13.0
1701719402.0816956,10.0,8.0,3.0,2.0,4.0,0.0,0.0,0.0
1701719402.0816956,-6.0,-8.0,-13.0,4.0,-17.0,-4.0,-6.0,-13.0
1701719402.0816956,2.0,10.0,-23.0,-10.0,1.0,-2.0,3.0,12.0
1701719402.0816956,-17.0,-29.0,-49.0,-19.0,-2.0,1.0,6.0,-8.0
1701719402.111296,-9.0,17.0,34.0,10.0,1.0,-11.0,-23.0,-11.0
1701719402.111296,19.0,16.0,-39.0,5.0,9.0,6.0,3.0,6.0
1701719402.111296,-4.0,-14.0,34.0,9.0,-9.0,7.0,14.0,1.0
1701719402.111296,3.0,7.0,-21.0,-22.0,1.0,3.0,11.0,1.0
1701719402.121574,-7.0,5.0,20.0,11.0,-7.0,1.0,7.0,3.0
1701719402.121574,-10.0,-37.0,-47.0,-10.0,-12.0,-17.0,-29.0,5.0
1701719402.121574,2.0,14.0,19.0,-6.0,-5.0,1.0,16.0,-7.0
1701719402.121574,4.0,0.0,-5.0,4.0,6.0,4.0,10.0,0.0
1701719402.1416316,-3.0,-4.0,40.0,24.0,-3.0,5.0,4.0,-2.0
1701719402.1416316,-3.0,15.0,-24.0,3.0,27.0,-1.0,-5.0,6.0
1701719402.1416316,5.0,10.0,9.0,-2.0,21.0,1.0,-12.0,-6.0
1701719402.1416316,-2.0,-14.0,59.0,-17.0,-15.0,-2.0,8.0,-2.0
1701719402.1812973,5.0,23.0,56.0,14.0,1.0,1.0,6.0,5.0
1701719402.1812973,-3.0,13.0,-50.0,-19.0,-25.0,-10.0,-3.0,1.0
1701719402.1812973,-4.0,-4.0,34.0,6.0,-1.0,-4.0,-7.0,-10.0
1701719402.1812973,-3.0,-11.0,-92.0,-26.0,-6.0,-7.0,2.0,-2.0
1701719402.1812973,4.0,2.0,26.0,-17.0,3.0,-8.0,-5.0,0.0
1701719402.1812973,-8.0,-9.0,38.0,5.0,-6.0,2.0,-21.0,-2.0
1701719402.1912942,7.0,11.0,14.0,20.0,3.0,6.0,8.0,1.0
1701719402.1912942,0.0,4.0,-10.0,-1.0,-5.0,0.0,-14.0,-3.0
1701719402.2017305,1.0,-7.0,-6.0,-3.0,4.0,2.0,6.0,0.0
1701719402.2017305,-8.0,-11.0,-45.0,1.0,-8.0,-14.0,-29.0,-9.0
1701719402.2017305,6.0,-1.0,-6.0,4.0,7.0,10.0,24.0,13.0
1701719402.2017305,-4.0,1.0,11.0,-7.0,-2.0,-8.0,-1.0,1.0
1701719402.2215583,-5.0,-12.0,-38.0,-16.0,-6.0,1.0,27.0,8.0
1701719402.2215583,1.0,5.0,15.0,15.0,5.0,3.0,10.0,10.0
1701719402.2215583,-2.0,-2.0,-27.0,-7.0,-5.0,-16.0,-34.0,-14.0
1701719402.2215583,4.0,8.0,71.0,38.0,9.0,4.0,-23.0,-14.0
1701719402.2412956,-3.0,-12.0,-78.0,-39.0,-4.0,19.0,50.0,7.0
1701719402.2412956,-1.0,8.0,66.0,-23.0,-27.0,-9.0,12.0,8.0
1701719402.2412956,1.0,-7.0,36.0,48.0,17.0,0.0,-10.0,5.0
1701719402.2412956,4.0,1.0,-14.0,-14.0,11.0,1.0,18.0,-12.0
1701719402.261753,-1.0,-22.0,-7.0,-4.0,6.0,-3.0,-30.0,-1.0
1701719402.261753,9.0,24.0,-12.0,-7.0,-6.0,8.0,-2.0,1.0
1701719402.261753,0.0,-1.0,16.0,-28.0,-29.0,-3.0,3.0,-7.0
1701719402.261753,1.0,4.0,70.0,88.0,44.0,6.0,4.0,9.0
1701719402.2813299,-2.0,-11.0,-77.0,1.0,-14.0,-12.0,-21.0,-13.0
1701719402.2813299,-9.0,-28.0,-58.0,-42.0,-29.0,-2.0,16.0,1.0
1701719402.2813299,-2.0,-3.0,-24.0,-13.0,13.0,0.0,-3.0,-2.0
1701719402.2813299,1.0,-1.0,23.0,-10.0,-11.0,-3.0,-2.0,1.0
1701719402.3015313,7.0,17.0,116.0,6.0,34.0,4.0,3.0,9.0
1701719402.3015313,-3.0,-34.0,-55.0,12.0,16.0,1.0,12.0,-2.0
1701719402.3116038,2.0,29.0,38.0,-44.0,-35.0,-7.0,-16.0,-5.0
1701719402.3116038,-6.0,-27.0,-1.0,28.0,9.0,5.0,12.0,2.0
1701719402.3264887,1.0,6.0,-16.0,-25.0,-12.0,0.0,0.0,2.0
1701719402.3264887,-8.0,-3.0,52.0,45.0,9.0,-4.0,-5.0,2.0
1701719402.3264887,1.0,1.0,-35.0,-9.0,4.0,2.0,10.0,-4.0
1701719402.3264887,3.0,19.0,17.0,-16.0,-19.0,-7.0,3.0,1.0
1701719402.3491473,-2.0,4.0,-21.0,-20.0,-11.0,-10.0,-3.0,0.0
1701719402.3491473,2.0,-10.0,0.0,1.0,0.0,2.0,7.0,-12.0
1701719402.3491473,-3.0,-13.0,-29.0,11.0,10.0,4.0,0.0,18.0
1701719402.3491473,1.0,7.0,19.0,-17.0,-9.0,0.0,4.0,1.0
1701719402.3542533,-8.0,-10.0,-6.0,12.0,-12.0,-6.0,-16.0,-9.0
1701719402.3542533,5.0,0.0,20.0,-1.0,10.0,-9.0,-1.0,-6.0
1701719402.3645701,-5.0,5.0,-18.0,-4.0,2.0,1.0,-23.0,-10.0
1701719402.3645701,2.0,-3.0,8.0,-8.0,-4.0,19.0,31.0,3.0
1701719402.38458,-1.0,3.0,-1.0,8.0,2.0,-6.0,-45.0,-2.0
1701719402.38458,3.0,21.0,12.0,9.0,6.0,7.0,26.0,5.0
1701719402.38458,-5.0,-13.0,10.0,-3.0,3.0,-8.0,1.0,-2.0
1701719402.38458,-1.0,-10.0,-59.0,-7.0,-5.0,-6.0,11.0,2.0
1701719402.404936,-7.0,11.0,10.0,1.0,-5.0,-2.0,-56.0,-9.0
1701719402.404936,-8.0,-35.0,28.0,-4.0,-5.0,-5.0,-20.0,-13.0
1701719402.404936,-6.0,-2.0,-5.0,3.0,-14.0,-3.0,1.0,9.0
1701719402.404936,5.0,33.0,23.0,-3.0,10.0,2.0,3.0,-9.0
1701719402.4149642,2.0,5.0,32.0,3.0,3.0,0.0,21.0,3.0
1701719402.4149642,0.0,-6.0,-24.0,13.0,10.0,1.0,-5.0,-9.0
1701719402.4248893,6.0,23.0,-14.0,-15.0,-11.0,-5.0,6.0,2.0
1701719402.4248893,-13.0,-16.0,-7.0,-11.0,-10.0,8.0,0.0,1.0
1701719402.4448252,-6.0,-15.0,-22.0,-4.0,-15.0,-16.0,27.0,9.0
1701719402.4448252,6.0,39.0,64.0,10.0,-3.0,1.0,-30.0,-18.0
1701719402.4448252,-3.0,-15.0,-13.0,25.0,7.0,-7.0,0.0,7.0
1701719402.4448252,2.0,2.0,-9.0,-21.0,-2.0,7.0,-14.0,10.0
1701719402.4648309,3.0,-1.0,8.0,12.0,13.0,5.0,32.0,-1.0
1701719402.4648309,-2.0,0.0,-11.0,-21.0,-2.0,10.0,36.0,7.0
1701719402.4648309,-1.0,-8.0,-7.0,16.0,5.0,8.0,20.0,-9.0
1701719402.4648309,-2.0,1.0,20.0,-6.0,-15.0,-14.0,-25.0,-2.0
1701719402.4748576,-1.0,-6.0,-29.0,-5.0,-3.0,10.0,25.0,-2.0
1701719402.4748576,-1.0,7.0,-26.0,1.0,3.0,-3.0,-8.0,6.0
1701719402.4845893,1.0,3.0,77.0,11.0,-1.0,1.0,-4.0,-7.0
1701719402.4845893,-4.0,-14.0,-20.0,-12.0,-2.0,-8.0,-10.0,1.0
1701719402.5045862,0.0,-4.0,-22.0,-21.0,-7.0,-2.0,-10.0,-8.0
1701719402.5045862,-6.0,-2.0,73.0,16.0,3.0,-2.0,-8.0,5.0
1701719402.5045862,-1.0,-5.0,-65.0,-16.0,1.0,0.0,-14.0,-4.0
1701719402.5045862,-3.0,-17.0,-11.0,-3.0,-1.0,-4.0,11.0,-3.0
1701719402.5249987,-1.0,-3.0,65.0,27.0,-2.0,0.0,2.0,1.0
1701719402.5249987,-3.0,-3.0,-67.0,-31.0,2.0,-4.0,-29.0,-2.0
1701719402.5249987,-1.0,-3.0,-24.0,3.0,12.0,-3.0,-7.0,-6.0
1701719402.5249987,-4.0,0.0,39.0,27.0,-14.0,-7.0,-5.0,-1.0
1701719402.534583,-3.0,-17.0,-4.0,7.0,21.0,4.0,-5.0,-3.0
1701719402.534583,1.0,10.0,9.0,9.0,-22.0,-3.0,5.0,3.0
1701719402.5447702,-2.0,-13.0,34.0,-50.0,0.0,-7.0,-6.0,-7.0
1701719402.5447702,0.0,10.0,-42.0,-9.0,14.0,-3.0,-9.0,-10.0
1701719402.5646138,0.0,-16.0,-36.0,0.0,-3.0,6.0,2.0,12.0
1701719402.5646138,4.0,-1.0,22.0,-24.0,-13.0,-1.0,-3.0,2.0
1701719402.5646138,-10.0,-15.0,-37.0,56.0,13.0,-2.0,-1.0,-4.0
1701719402.5646138,-1.0,-5.0,-30.0,-15.0,-4.0,-2.0,3.0,-3.0
1701719402.5850298,7.0,1.0,-29.0,-22.0,-8.0,1.0,-4.0,0.0
1701719402.5850298,0.0,20.0,50.0,46.0,18.0,8.0,15.0,2.0
1701719402.5850298,-10.0,-18.0,-25.0,-41.0,-19.0,-3.0,6.0,-4.0
1701719402.5850298,2.0,-8.0,-52.0,20.0,14.0,0.0,1.0,2.0
1701719402.5949655,-7.0,9.0,-1.0,4.0,-10.0,-5.0,-2.0,-26.0
1701719402.5949655,5.0,-7.0,8.0,3.0,3.0,2.0,51.0,36.0
1701719402.6048982,2.0,9.0,27.0,-14.0,-3.0,3.0,-22.0,-7.0
1701719402.6048982,-5.0,-7.0,11.0,-4.0,-16.0,-7.0,1.0,5.0
1701719402.6246154,-3.0,-21.0,-1.0,-12.0,-6.0,-8.0,-24.0,-12.0
1701719402.6246154,5.0,12.0,-19.0,14.0,-5.0,10.0,10.0,-8.0
1701719402.6246154,-12.0,-24.0,-21.0,1.0,11.0,-6.0,-14.0,-6.0
1701719402.6246154,7.0,26.0,41.0,3.0,0.0,-4.0,11.0,6.0
1701719402.6450338,-10.0,-6.0,-24.0,7.0,12.0,1.0,2.0,-4.0
1701719402.6450338,-15.0,-4.0,8.0,-9.0,-3.0,-4.0,-7.0,-5.0
1701719402.6450338,9.0,6.0,-34.0,-14.0,-3.0,-2.0,-18.0,-3.0
1701719402.6450338,-2.0,-2.0,1.0,13.0,10.0,2.0,-9.0,-3.0
1701719402.6649868,4.0,16.0,26.0,-19.0,-15.0,-3.0,3.0,3.0
1701719402.6649868,-3.0,-2.0,4.0,-6.0,15.0,-5.0,-21.0,-8.0
1701719402.6745815,-2.0,-3.0,72.0,26.0,-3.0,-10.0,-3.0,2.0
1701719402.6745815,-1.0,-11.0,-84.0,-31.0,-2.0,17.0,35.0,1.0
1701719402.684614,2.0,9.0,54.0,2.0,6.0,4.0,20.0,10.0
1701719402.684614,1.0,-1.0,-30.0,11.0,-10.0,-3.0,4.0,-3.0
1701719402.684614,6.0,15.0,22.0,-9.0,-3.0,-5.0,-18.0,2.0
1701719402.684614,-9.0,-19.0,46.0,2.0,-4.0,-8.0,-21.0,-4.0
1701719402.7045913,-5.0,-2.0,-2.0,-4.0,-5.0,-5.0,-12.0,-2.0
1701719402.7045913,0.0,-4.0,-9.0,13.0,31.0,3.0,-8.0,-1.0
1701719402.7045913,3.0,12.0,-20.0,1.0,-10.0,1.0,12.0,0.0
1701719402.7045913,-1.0,-6.0,-11.0,-12.0,-8.0,-2.0,-7.0,2.0
1701719402.7345808,0.0,-9.0,-65.0,9.0,-11.0,-3.0,4.0,2.0
1701719402.7345808,-6.0,-8.0,2.0,-74.0,-49.0,-9.0,5.0,-4.0
1701719402.7345808,6.0,11.0,43.0,0.0,31.0,10.0,-12.0,0.0
1701719402.7345808,-2.0,-12.0,-35.0,-8.0,-5.0,-3.0,-14.0,-5.0
1701719402.7447429,-8.0,-15.0,4.0,35.0,8.0,-1.0,3.0,-6.0
1701719402.7447429,-3.0,-9.0,-1.0,-36.0,-22.0,-5.0,1.0,5.0
1701719402.7447429,2.0,10.0,10.0,4.0,-2.0,5.0,2.0,-4.0
1701719402.7447429,-4.0,-18.0,-45.0,-7.0,-8.0,-8.0,-2.0,-3.0
1701719402.764961,2.0,0.0,57.0,-5.0,5.0,-9.0,-36.0,-6.0
1701719402.764961,-2.0,-4.0,-26.0,6.0,3.0,-2.0,4.0,-1.0
1701719402.764961,-2.0,-16.0,-107.0,-5.0,-9.0,2.0,11.0,12.0
1701719402.764961,2.0,10.0,38.0,18.0,14.0,6.0,19.0,4.0
1701719402.7845814,-2.0,32.0,20.0,4.0,-7.0,-7.0,-29.0,-17.0
1701719402.7845814,-5.0,-38.0,-9.0,15.0,11.0,2.0,11.0,14.0
1701719402.7845814,4.0,21.0,-11.0,-3.0,3.0,11.0,34.0,-14.0
1701719402.7845814,3.0,17.0,3.0,2.0,-8.0,-5.0,7.0,15.0
1701719402.8050323,5.0,-29.0,21.0,9.0,2.0,1.0,2.0,7.0
1701719402.8050323,-4.0,23.0,-75.0,-7.0,-2.0,-4.0,-15.0,-15.0
1701719402.8050323,-6.0,-8.0,-2.0,-5.0,-12.0,-4.0,0.0,-2.0
1701719402.8050323,0.0,-2.0,64.0,7.0,8.0,3.0,-1.0,-4.0
1701719402.825034,2.0,8.0,-37.0,-4.0,1.0,0.0,-1.0,-7.0
1701719402.825034,-2.0,7.0,9.0,-8.0,2.0,-7.0,-39.0,1.0
1701719402.825034,-2.0,-15.0,25.0,-5.0,-7.0,4.0,27.0,6.0
1701719402.825034,1.0,8.0,-13.0,-5.0,-15.0,-2.0,-19.0,-10.0
1701719402.844581,5.0,16.0,-4.0,4.0,9.0,-11.0,-20.0,3.0
1701719402.844581,0.0,6.0,0.0,-3.0,-5.0,19.0,50.0,3.0
1701719402.844581,2.0,3.0,12.0,5.0,-4.0,-2.0,3.0,12.0
1701719402.844581,-1.0,-2.0,17.0,22.0,28.0,-2.0,-19.0,-12.0
1701719402.8669627,-7.0,-3.0,30.0,-4.0,2.0,7.0,1.0,23.0
1701719402.8669627,1.0,4.0,13.0,27.0,5.0,-5.0,41.0,-2.0
1701719402.8669627,-2.0,-16.0,-21.0,-2.0,-2.0,-7.0,-60.0,-14.0
1701719402.8679097,0.0,8.0,-3.0,-2.0,4.0,0.0,10.0,2.0
1701719402.8969398,5.0,-11.0,0.0,-3.0,-5.0,-4.0,4.0,-1.0
1701719402.8969398,-9.0,17.0,35.0,1.0,-3.0,-6.0,-36.0,-4.0
1701719402.8969398,1.0,-21.0,-14.0,9.0,-23.0,-4.0,14.0,8.0
1701719402.8969398,-2.0,27.0,12.0,6.0,22.0,-3.0,-13.0,-8.0
1701719402.9069655,-4.0,10.0,-75.0,-37.0,-20.0,-4.0,7.0,-4.0
1701719402.9069655,11.0,4.0,-16.0,23.0,13.0,3.0,6.0,1.0
1701719402.9069655,-3.0,35.0,81.0,22.0,10.0,4.0,8.0,-5.0
1701719402.9069655,-6.0,-27.0,-42.0,-22.0,-36.0,-9.0,-14.0,-2.0
1701719402.926941,-2.0,29.0,28.0,-6.0,0.0,8.0,23.0,3.0
1701719402.926941,-2.0,-12.0,-30.0,-28.0,-8.0,-3.0,-17.0,-5.0
1701719402.926941,-6.0,8.0,36.0,40.0,13.0,-7.0,-12.0,-5.0
1701719402.926941,-4.0,-10.0,-30.0,3.0,2.0,3.0,10.0,1.0
1701719402.9473202,1.0,16.0,27.0,4.0,-2.0,3.0,9.0,2.0
1701719402.9473202,4.0,-1.0,-10.0,-3.0,-18.0,-7.0,-13.0,-6.0
1701719402.9473202,-3.0,-13.0,49.0,16.0,34.0,9.0,5.0,0.0
1701719402.9473202,-3.0,-8.0,-31.0,-31.0,-14.0,-3.0,7.0,2.0
1701719402.9669812,-2.0,-6.0,75.0,57.0,10.0,0.0,-2.0,-3.0
1701719402.9669812,-1.0,-29.0,-30.0,-46.0,-4.0,-5.0,14.0,5.0
1701719402.9669812,1.0,13.0,-10.0,-30.0,-11.0,-2.0,10.0,-1.0
1701719402.9669812,-3.0,-42.0,54.0,35.0,7.0,8.0,10.0,2.0
1701719402.986941,0.0,-22.0,-95.0,-26.0,-14.0,-13.0,-26.0,-5.0
1701719402.986941,0.0,10.0,23.0,33.0,13.0,5.0,-16.0,-3.0
1701719402.986941,0.0,-6.0,46.0,7.0,-3.0,-2.0,7.0,9.0
1701719402.986941,0.0,0.0,-86.0,-34.0,-28.0,4.0,42.0,5.0
1701719403.0069418,3.0,8.0,46.0,10.0,33.0,8.0,-9.0,-5.0
1701719403.0069418,0.0,-13.0,26.0,11.0,5.0,-8.0,-17.0,-1.0
1701719403.0069418,-3.0,-7.0,-102.0,-17.0,0.0,-1.0,-4.0,-9.0
1701719403.0069418,-4.0,-3.0,45.0,15.0,-1.0,1.0,5.0,4.0
1701719403.0269895,-9.0,-20.0,-34.0,-51.0,-45.0,-7.0,-1.0,-5.0
1701719403.0269895,7.0,19.0,25.0,33.0,53.0,2.0,-21.0,-4.0
1701719403.0269895,2.0,-14.0,-17.0,9.0,3.0,-8.0,-34.0,-2.0
1701719403.0269895,-1.0,18.0,-4.0,-3.0,1.0,-1.0,-4.0,-31.0
1701719403.04694,3.0,7.0,-4.0,-4.0,-1.0,17.0,42.0,33.0
1701719403.04694,8.0,10.0,39.0,-11.0,-24.0,-1.0,5.0,2.0
1701719403.04694,-15.0,1.0,2.0,-20.0,-24.0,-11.0,-13.0,8.0
1701719403.04694,-1.0,-3.0,25.0,14.0,18.0,-8.0,-23.0,-14.0
1701719403.0669398,-4.0,3.0,-18.0,9.0,12.0,1.0,12.0,-19.0
1701719403.0669398,9.0,26.0,20.0,17.0,-10.0,4.0,8.0,10.0
1701719403.0669398,-2.0,-12.0,-23.0,-17.0,21.0,4.0,20.0,15.0
1701719403.0669398,2.0,16.0,28.0,3.0,-15.0,-5.0,-12.0,5.0
1701719403.087237,-2.0,5.0,4.0,-13.0,-5.0,-2.0,11.0,-2.0
1701719403.087237,-5.0,-6.0,-32.0,-30.0,-10.0,6.0,-2.0,0.0
1701719403.097158,3.0,7.0,53.0,44.0,5.0,2.0,12.0,-12.0
1701719403.097158,-6.0,-6.0,-6.0,-29.0,-12.0,-7.0,-20.0,3.0
1701719403.106945,6.0,1.0,17.0,35.0,32.0,7.0,4.0,5.0
1701719403.106945,-2.0,-6.0,0.0,-30.0,-15.0,-6.0,-3.0,-6.0
1701719403.106945,-4.0,0.0,18.0,5.0,-6.0,-3.0,-4.0,-6.0
1701719403.106945,0.0,-2.0,-55.0,-11.0,-6.0,-1.0,6.0,6.0
1701719403.1269388,2.0,-2.0,63.0,-1.0,-10.0,0.0,-11.0,-2.0
1701719403.1269388,-11.0,-21.0,51.0,15.0,-1.0,0.0,8.0,-5.0
1701719403.1269388,7.0,15.0,-44.0,-38.0,-10.0,-3.0,-13.0,-4.0
1701719403.1269388,-1.0,-3.0,59.0,17.0,0.0,1.0,9.0,10.0
1701719403.1473525,-4.0,3.0,-61.0,18.0,-6.0,-8.0,-7.0,-5.0
1701719403.1473525,-4.0,-8.0,22.0,-5.0,20.0,0.0,5.0,-2.0
1701719403.1473525,-1.0,-8.0,-74.0,-18.0,-10.0,0.0,-22.0,-8.0
1701719403.1473525,1.0,3.0,20.0,-14.0,-1.0,-7.0,-4.0,-2.0
1701719403.157266,0.0,-4.0,-44.0,1.0,3.0,-4.0,-27.0,2.0
1701719403.1669507,-4.0,2.0,35.0,8.0,-6.0,2.0,-9.0,-6.0
1701719403.1669507,-3.0,-2.0,-4.0,-12.0,-9.0,1.0,21.0,-3.0
1701719403.1669507,0.0,-7.0,23.0,24.0,17.0,2.0,-28.0,-10.0
1701719403.187092,1.0,20.0,2.0,-16.0,-9.0,-1.0,8.0,-3.0
1701719403.187092,-5.0,-20.0,-17.0,7.0,0.0,-6.0,-20.0,-2.0
1701719403.187092,0.0,-15.0,-1.0,-3.0,2.0,0.0,4.0,1.0
1701719403.187092,3.0,15.0,-26.0,-3.0,-6.0,5.0,1.0,1.0
1701719403.2172325,-5.0,7.0,27.0,1.0,9.0,0.0,13.0,-4.0
1701719403.2172325,4.0,-18.0,-24.0,-22.0,-9.0,-3.0,-13.0,-17.0
1701719403.2172325,-9.0,1.0,22.0,13.0,-1.0,-2.0,-1.0,8.0
1701719403.2172325,7.0,-13.0,-6.0,-4.0,-1.0,-4.0,0.0,2.0
1701719403.2269464,-2.0,-33.0,-31.0,-21.0,-24.0,-8.0,-11.0,16.0
1701719403.2269464,2.0,34.0,-8.0,22.0,37.0,13.0,24.0,-8.0
1701719403.2269464,-3.0,-6.0,6.0,-15.0,-9.0,-2.0,9.0,1.0
1701719403.2269464,10.0,-6.0,43.0,-3.0,10.0,-1.0,-22.0,5.0
1701719403.2469418,3.0,7.0,16.0,8.0,-22.0,-9.0,-1.0,-9.0
1701719403.2469418,-20.0,-27.0,-44.0,11.0,-6.0,-6.0,-16.0,11.0
1701719403.2469418,8.0,18.0,55.0,31.0,14.0,5.0,18.0,-4.0
1701719403.2469418,5.0,15.0,-41.0,8.0,-2.0,-5.0,10.0,-10.0
1701719403.2671933,-9.0,-23.0,-49.0,-37.0,10.0,0.0,-23.0,9.0
1701719403.2671933,0.0,-17.0,6.0,-7.0,-20.0,1.0,18.0,7.0
1701719403.2671933,2.0,20.0,-25.0,-21.0,-5.0,8.0,-7.0,-1.0
1701719403.2671933,-7.0,-21.0,-2.0,-2.0,-18.0,-6.0,1.0,-1.0
1701719403.277142,4.0,5.0,21.0,11.0,20.0,-1.0,-4.0,-8.0
1701719403.286952,2.0,13.0,26.0,16.0,3.0,-8.0,-5.0,-6.0
1701719403.3069394,2.0,-3.0,-61.0,-32.0,-3.0,0.0,-4.0,2.0
1701719403.3069394,-2.0,18.0,9.0,-3.0,-15.0,-1.0,-2.0,0.0
1701719403.3069394,-9.0,-41.0,-11.0,-4.0,-23.0,-7.0,7.0,-12.0
1701719403.3069394,-2.0,-3.0,-2.0,-2.0,37.0,4.0,-1.0,4.0
1701719403.3069394,3.0,0.0,72.0,17.0,2.0,2.0,6.0,-2.0
1701719403.3069394,-7.0,-1.0,-97.0,-18.0,-6.0,0.0,-2.0,-2.0
1701719403.33721,3.0,24.0,48.0,10.0,2.0,1.0,4.0,2.0
1701719403.33721,-1.0,9.0,6.0,-19.0,-22.0,-3.0,9.0,1.0
1701719403.33721,3.0,8.0,22.0,36.0,5.0,0.0,-15.0,-2.0
1701719403.33721,-5.0,9.0,20.0,37.0,7.0,-3.0,0.0,-2.0
1701719403.3569462,-5.0,-8.0,-84.0,-19.0,3.0,-3.0,-4.0,-7.0
1701719403.3569462,4.0,-4.0,-6.0,-32.0,-14.0,-9.0,-8.0,3.0
1701719403.366939,2.0,9.0,57.0,23.0,2.0,13.0,10.0,-14.0
1701719403.366939,-1.0,6.0,-6.0,24.0,6.0,17.0,25.0,9.0
1701719403.366939,6.0,19.0,30.0,0.0,13.0,3.0,15.0,12.0
1701719403.366939,-1.0,4.0,-30.0,4.0,-9.0,-7.0,15.0,-2.0
1701719403.366939,-4.0,-10.0,-30.0,-26.0,1.0,-15.0,-34.0,-5.0
1701719403.366939,-3.0,-10.0,-3.0,-6.0,-7.0,-4.0,-6.0,-4.0
1701719403.392703,0.0,4.0,50.0,5.0,-3.0,6.0,-1.0,-2.0
1701719403.392703,-3.0,-9.0,-31.0,-15.0,-5.0,2.0,53.0,5.0
1701719403.3966458,-5.0,-3.0,-20.0,6.0,2.0,-4.0,-24.0,0.0
1701719403.3966458,-3.0,1.0,27.0,0.0,17.0,3.0,0.0,-7.0
1701719403.4038231,-1.0,-3.0,-31.0,-4.0,-13.0,-3.0,14.0,-4.0
1701719403.4038231,-9.0,-8.0,11.0,-13.0,-11.0,-2.0,-36.0,2.0
1701719403.4139736,-2.0,4.0,46.0,52.0,-3.0,-1.0,35.0,26.0
1701719403.4139736,0.0,0.0,-5.0,-47.0,-16.0,-12.0,-17.0,1.0
1701719403.424073,4.0,1.0,-11.0,5.0,26.0,1.0,-25.0,-11.0
1701719403.424073,2.0,15.0,34.0,29.0,4.0,2.0,1.0,-6.0
1701719403.424073,-11.0,-14.0,22.0,-44.0,-23.0,-12.0,-10.0,-1.0
1701719403.424073,-6.0,-11.0,-47.0,9.0,15.0,-1.0,0.0,5.0
1701719403.4440942,6.0,27.0,31.0,18.0,29.0,14.0,-4.0,13.0
1701719403.4440942,7.0,1.0,16.0,27.0,-4.0,-4.0,-9.0,-17.0
1701719403.4538286,-4.0,-45.0,-60.0,-21.0,1.0,0.0,21.0,2.0
1701719403.4638712,-3.0,11.0,44.0,-20.0,-17.0,-2.0,3.0,-2.0
1701719403.4738264,-2.0,14.0,-15.0,-23.0,-12.0,-5.0,7.0,-11.0
1701719403.4738264,-5.0,-15.0,-21.0,28.0,46.0,9.0,-16.0,-2.0
1701719403.4738264,3.0,2.0,-68.0,-11.0,-18.0,-3.0,10.0,-2.0
1701719403.4738264,-5.0,-29.0,39.0,9.0,20.0,4.0,-3.0,-5.0
1701719403.4940631,-4.0,-14.0,-64.0,-25.0,-14.0,-3.0,-4.0,0.0
1701719403.4940631,-5.0,9.0,87.0,26.0,0.0,-1.0,-5.0,-1.0
1701719403.4940631,2.0,25.0,14.0,-6.0,-2.0,-3.0,-5.0,-8.0
1701719403.4940631,1.0,-7.0,-14.0,10.0,4.0,2.0,0.0,2.0
1701719403.5040133,-6.0,-14.0,26.0,-32.0,-16.0,-8.0,6.0,1.0
1701719403.5040133,1.0,11.0,72.0,22.0,6.0,1.0,-7.0,-2.0
1701719403.513828,1.0,-11.0,-91.0,-20.0,1.0,1.0,1.0,-6.0
1701719403.513828,0.0,7.0,25.0,16.0,-8.0,-6.0,-9.0,0.0
1701719403.5238326,-3.0,-15.0,5.0,11.0,4.0,0.0,13.0,7.0
1701719403.5238326,-3.0,-5.0,-22.0,-12.0,-21.0,-4.0,-51.0,-12.0
1701719403.5338607,-2.0,11.0,59.0,15.0,14.0,-4.0,-22.0,-9.0
1701719403.5338607,1.0,0.0,23.0,-15.0,-1.0,-1.0,13.0,3.0
1701719403.544227,-3.0,2.0,-31.0,27.0,-1.0,9.0,28.0,4.0
1701719403.544227,3.0,7.0,-19.0,-18.0,-3.0,-3.0,-6.0,-3.0
1701719403.544227,-8.0,3.0,-22.0,5.0,3.0,1.0,-15.0,-10.0
1701719403.544227,7.0,4.0,-65.0,-7.0,-5.0,-11.0,-15.0,10.0
1701719403.5638258,-5.0,-24.0,21.0,0.0,-10.0,-4.0,-8.0,-9.0
1701719403.5638258,4.0,6.0,10.0,-24.0,-8.0,-1.0,4.0,-1.0
1701719403.5638258,6.0,3.0,6.0,34.0,5.0,1.0,-5.0,-5.0
1701719403.5638258,1.0,8.0,51.0,-30.0,-4.0,14.0,7.0,7.0
1701719403.5943162,4.0,-8.0,7.0,13.0,6.0,-2.0,4.0,2.0
1701719403.5943162,0.0,-1.0,-53.0,0.0,-4.0,0.0,33.0,21.0
1701719403.5943162,-4.0,-1.0,-3.0,-16.0,2.0,-11.0,12.0,-22.0
1701719403.5943162,1.0,9.0,43.0,18.0,4.0,10.0,8.0,8.0
1701719403.604744,-3.0,-6.0,-30.0,-3.0,-1.0,-1.0,11.0,1.0
1701719403.604744,3.0,-3.0,11.0,-1.0,-11.0,-10.0,-20.0,3.0
1701719403.604744,-4.0,1.0,-12.0,-5.0,-9.0,2.0,27.0,-1.0
1701719403.604744,-6.0,-3.0,-13.0,-26.0,-5.0,0.0,-4.0,-17.0
1701719403.6243286,-8.0,-26.0,32.0,22.0,10.0,-8.0,23.0,6.0
1701719403.6243286,2.0,9.0,15.0,-8.0,9.0,1.0,-35.0,-1.0
1701719403.6243286,3.0,-6.0,32.0,-7.0,11.0,0.0,-23.0,-15.0
1701719403.6243286,6.0,7.0,-30.0,-14.0,-36.0,-3.0,18.0,13.0
1701719403.654777,3.0,19.0,-40.0,11.0,18.0,2.0,-25.0,-22.0
1701719403.654777,-15.0,-55.0,-21.0,-5.0,-11.0,-5.0,3.0,4.0
1701719403.654777,-8.0,8.0,7.0,-3.0,-9.0,1.0,12.0,5.0
1701719403.654777,0.0,4.0,32.0,-26.0,-4.0,-2.0,-3.0,-7.0
1701719403.6643338,0.0,-13.0,-28.0,28.0,14.0,3.0,3.0,6.0
1701719403.6643338,5.0,-11.0,-12.0,-13.0,-9.0,1.0,18.0,6.0
1701719403.6643338,4.0,3.0,10.0,11.0,6.0,5.0,2.0,3.0
1701719403.6643338,-3.0,-12.0,25.0,11.0,4.0,-5.0,-3.0,-8.0
1701719403.6943278,1.0,10.0,-41.0,-37.0,-20.0,-9.0,-29.0,0.0
1701719403.6943278,-2.0,-4.0,-6.0,-15.0,-4.0,4.0,9.0,-8.0
1701719403.6943278,-7.0,-2.0,-3.0,-7.0,6.0,1.0,-20.0,10.0
1701719403.6943278,-4.0,-1.0,20.0,22.0,6.0,-1.0,-2.0,-5.0
1701719403.714626,4.0,1.0,41.0,25.0,16.0,2.0,-12.0,0.0
1701719403.714626,4.0,21.0,-23.0,-20.0,0.0,2.0,17.0,-3.0
1701719403.714626,0.0,-3.0,-39.0,-18.0,-13.0,-3.0,1.0,5.0
1701719403.714626,2.0,11.0,70.0,36.0,11.0,-9.0,-28.0,-6.0
1701719403.72433,-9.0,-13.0,-64.0,-33.0,-20.0,-3.0,-16.0,-1.0
1701719403.72433,5.0,10.0,7.0,18.0,-5.0,14.0,58.0,12.0
1701719403.72433,3.0,-3.0,-27.0,-19.0,12.0,1.0,-35.0,-5.0
1701719403.72433,-3.0,-10.0,-29.0,-24.0,4.0,-2.0,18.0,6.0
1701719403.7447507,-3.0,7.0,74.0,44.0,-3.0,-8.0,-20.0,-16.0
1701719403.7447507,-6.0,-1.0,-20.0,-50.0,-5.0,-7.0,5.0,5.0
1701719403.7447507,4.0,2.0,45.0,32.0,-8.0,-3.0,10.0,7.0
1701719403.7447507,-6.0,-14.0,-56.0,-17.0,-1.0,-5.0,-24.0,-12.0
1701719403.7747784,6.0,15.0,127.0,8.0,-4.0,-3.0,24.0,8.0
1701719403.7747784,-2.0,-13.0,-80.0,8.0,1.0,1.0,-2.0,-6.0
1701719403.7747784,-5.0,-14.0,-39.0,-25.0,-7.0,0.0,0.0,1.0
1701719403.7747784,1.0,8.0,-2.0,20.0,6.0,0.0,16.0,0.0
1701719403.7843328,1.0,22.0,81.0,1.0,-5.0,4.0,5.0,-13.0
1701719403.7843328,-3.0,9.0,-20.0,-7.0,-4.0,2.0,6.0,14.0
1701719403.7843328,0.0,-7.0,-4.0,1.0,-3.0,2.0,10.0,3.0
1701719403.7843328,0.0,9.0,-38.0,4.0,1.0,3.0,31.0,-1.0
1701719403.804612,-6.0,-2.0,48.0,-22.0,-9.0,-9.0,-31.0,-11.0
1701719403.804612,-8.0,-5.0,-41.0,-4.0,-10.0,-10.0,-18.0,7.0
1701719403.804612,0.0,-16.0,-8.0,10.0,-19.0,-1.0,-5.0,-11.0
1701719403.804612,-3.0,7.0,9.0,16.0,35.0,6.0,4.0,10.0
1701719403.8345947,-4.0,-13.0,-21.0,-1.0,-5.0,1.0,1.0,-8.0
1701719403.8345947,4.0,-8.0,-9.0,4.0,-22.0,-8.0,-28.0,-23.0
1701719403.8345947,-4.0,4.0,88.0,18.0,22.0,-2.0,30.0,14.0
1701719403.8345947,2.0,-28.0,-59.0,-6.0,0.0,2.0,-35.0,-6.0
1701719403.8643274,4.0,-1.0,-99.0,-5.0,-12.0,-1.0,-9.0,5.0
1701719403.8643274,-2.0,-2.0,111.0,26.0,30.0,5.0,-5.0,-5.0
1701719403.8643274,5.0,1.0,-34.0,13.0,7.0,3.0,14.0,1.0
1701719403.8643274,-2.0,8.0,79.0,-1.0,-30.0,-5.0,-6.0,-4.0
1701719403.8643274,-5.0,-8.0,-94.0,-62.0,-13.0,-4.0,3.0,3.0
1701719403.8643274,3.0,8.0,-9.0,40.0,32.0,4.0,2.0,-2.0
1701719403.8643274,0.0,0.0,29.0,-25.0,20.0,2.0,-3.0,-2.0
1701719403.8643274,1.0,7.0,46.0,-14.0,-6.0,-5.0,-4.0,0.0
1701719403.894774,4.0,3.0,12.0,8.0,4.0,8.0,8.0,7.0
1701719403.894774,-6.0,2.0,-28.0,-11.0,-27.0,-12.0,11.0,-7.0
1701719403.894774,-4.0,-3.0,11.0,4.0,9.0,-2.0,-37.0,-11.0
1701719403.894774,1.0,2.0,-21.0,14.0,-1.0,5.0,24.0,7.0
1701719403.9043314,0.0,-5.0,45.0,-15.0,-9.0,-7.0,6.0,17.0
1701719403.9043314,4.0,7.0,-18.0,5.0,5.0,1.0,-16.0,-7.0
1701719403.9043314,-1.0,17.0,12.0,6.0,-7.0,-3.0,17.0,-7.0
1701719403.9043314,-8.0,-9.0,-36.0,-14.0,-7.0,-1.0,-31.0,0.0
1701719403.932016,1.0,-1.0,27.0,12.0,9.0,3.0,-14.0,-8.0
1701719403.9330866,4.0,16.0,19.0,9.0,10.0,1.0,-4.0,3.0
1701719403.9330866,1.0,9.0,2.0,-18.0,-11.0,5.0,46.0,2.0
1701719403.9330866,1.0,-3.0,-20.0,-3.0,-5.0,-10.0,-38.0,-22.0
1701719403.9660969,-8.0,1.0,28.0,11.0,3.0,-8.0,-9.0,14.0
1701719403.9660969,0.0,9.0,11.0,-7.0,-2.0,-1.0,-26.0,-12.0
1701719403.9660969,6.0,-3.0,0.0,-17.0,-20.0,-4.0,4.0,2.0
1701719403.9660969,1.0,23.0,13.0,15.0,-6.0,1.0,12.0,-3.0
1701719403.9660969,-2.0,-23.0,-24.0,13.0,33.0,11.0,12.0,-2.0
1701719403.9660969,-2.0,23.0,54.0,-6.0,-3.0,2.0,1.0,-8.0
1701719403.9660969,-10.0,-22.0,25.0,-2.0,-1.0,-1.0,5.0,17.0
1701719403.9660969,-5.0,1.0,-2.0,-5.0,-17.0,-7.0,2.0,2.0
1701719403.986356,13.0,21.0,-2.0,19.0,-2.0,3.0,19.0,-5.0
1701719403.986356,-10.0,-17.0,5.0,4.0,-2.0,-11.0,-52.0,-10.0
1701719403.9960957,-1.0,14.0,-13.0,0.0,2.0,-15.0,-65.0,-32.0
1701719403.9960957,-1.0,-18.0,2.0,-2.0,-4.0,21.0,61.0,22.0
1701719404.0261276,-2.0,8.0,-24.0,-17.0,-13.0,-3.0,-18.0,22.0
1701719404.0261276,8.0,-19.0,-5.0,-2.0,-6.0,-7.0,-3.0,1.0
1701719404.0261276,5.0,16.0,28.0,13.0,-3.0,1.0,7.0,2.0
1701719404.0261276,-2.0,0.0,-41.0,-17.0,11.0,-11.0,-37.0,-17.0
1701719404.0261276,-6.0,9.0,6.0,-8.0,-7.0,3.0,23.0,-19.0
1701719404.0261276,-7.0,-14.0,-14.0,-6.0,1.0,-4.0,14.0,16.0
1701719404.0261276,4.0,0.0,2.0,-13.0,-32.0,-16.0,-38.0,-6.0
1701719404.0261276,-6.0,-1.0,-24.0,-7.0,22.0,4.0,12.0,2.0
1701719404.0465472,6.0,0.0,11.0,4.0,1.0,3.0,8.0,-1.0
1701719404.0465472,0.0,10.0,-18.0,-6.0,-7.0,1.0,1.0,-4.0
1701719404.0465472,-4.0,-7.0,-57.0,3.0,-22.0,3.0,15.0,5.0
1701719404.0465472,-1.0,0.0,16.0,17.0,11.0,1.0,4.0,1.0
1701719404.0765562,0.0,13.0,18.0,-34.0,-36.0,-9.0,-12.0,-4.0
1701719404.0765562,6.0,19.0,89.0,38.0,49.0,7.0,2.0,-2.0
1701719404.0765562,-11.0,-48.0,-102.0,-42.0,-14.0,1.0,9.0,4.0
1701719404.0765562,7.0,13.0,89.0,24.0,-9.0,0.0,-2.0,2.0
1701719404.086825,-5.0,-6.0,-47.0,32.0,4.0,-7.0,-17.0,-10.0
1701719404.086825,2.0,-1.0,11.0,-58.0,-22.0,-2.0,15.0,-2.0
1701719404.086825,-6.0,-25.0,27.0,20.0,25.0,9.0,16.0,11.0
1701719404.086825,5.0,-1.0,-11.0,-4.0,1.0,-5.0,-3.0,2.0
1701719404.1068008,-5.0,-20.0,-19.0,-11.0,3.0,-7.0,-8.0,-5.0
1701719404.1068008,-4.0,2.0,-9.0,2.0,-16.0,4.0,9.0,-18.0
1701719404.1068008,-1.0,11.0,-12.0,6.0,14.0,-2.0,22.0,31.0
1701719404.1068008,-2.0,-5.0,-5.0,0.0,-4.0,-4.0,-45.0,-7.0
1701719404.146558,3.0,-4.0,-5.0,-15.0,-9.0,-4.0,5.0,-4.0
1701719404.146558,-5.0,0.0,-35.0,1.0,2.0,-10.0,-29.0,3.0
1701719404.146558,-6.0,13.0,38.0,-4.0,6.0,24.0,66.0,3.0
1701719404.146558,-1.0,-8.0,-34.0,-1.0,-3.0,5.0,29.0,1.0
1701719404.146558,1.0,2.0,13.0,9.0,11.0,4.0,8.0,1.0
1701719404.146558,-4.0,-7.0,-17.0,5.0,-1.0,-3.0,-2.0,-9.0
1701719404.146558,-4.0,3.0,-13.0,-1.0,-4.0,-18.0,-49.0,-11.0
1701719404.146558,0.0,5.0,17.0,-2.0,-1.0,2.0,5.0,6.0
1701719404.1668131,-2.0,5.0,-5.0,10.0,10.0,7.0,4.0,-8.0
1701719404.1668131,1.0,-1.0,78.0,22.0,1.0,-3.0,-16.0,3.0
1701719404.1668131,-2.0,-3.0,-53.0,-31.0,-13.0,-3.0,14.0,0.0
1701719404.1668131,-6.0,-17.0,-80.0,-23.0,-8.0,-6.0,-7.0,-6.0
1701719404.1865923,1.0,-4.0,4.0,-48.0,-9.0,-3.0,-11.0,3.0
1701719404.1865923,-4.0,13.0,78.0,75.0,34.0,5.0,16.0,2.0
1701719404.1865923,10.0,11.0,57.0,6.0,41.0,2.0,-18.0,-4.0
1701719404.1965635,-8.0,-28.0,-39.0,-51.0,-13.0,-9.0,-7.0,-6.0
1701719404.2068906,-1.0,-3.0,-16.0,-13.0,-24.0,-3.0,9.0,0.0
1701719404.2068906,1.0,-5.0,1.0,3.0,-20.0,3.0,3.0,6.0
1701719404.2166345,2.0,32.0,56.0,-6.0,-4.0,-3.0,-13.0,-7.0
1701719404.2166345,-9.0,-9.0,-42.0,20.0,3.0,-4.0,5.0,-1.0
1701719404.2267425,-1.0,2.0,-11.0,28.0,24.0,0.0,1.0,3.0
1701719404.2267425,3.0,-13.0,-69.0,-29.0,-14.0,0.0,0.0,-1.0
1701719404.2267425,-3.0,2.0,8.0,16.0,-1.0,-5.0,-18.0,-4.0
1701719404.2267425,4.0,2.0,11.0,-14.0,-2.0,2.0,4.0,4.0
1701719404.2565606,-5.0,-8.0,-6.0,5.0,-1.0,-6.0,-13.0,-6.0
1701719404.2565606,0.0,4.0,-23.0,1.0,2.0,5.0,19.0,1.0
1701719404.2565606,3.0,-5.0,-31.0,-14.0,-9.0,-4.0,1.0,0.0
1701719404.2565606,-7.0,5.0,44.0,9.0,-3.0,-13.0,-51.0,-14.0
1701719404.266913,3.0,4.0,45.0,22.0,13.0,15.0,47.0,7.0
1701719404.266913,-2.0,-16.0,-71.0,-39.0,-8.0,-5.0,-24.0,-19.0
1701719404.2767155,-1.0,3.0,9.0,6.0,-9.0,-1.0,1.0,14.0
1701719404.2767155,19.0,5.0,27.0,16.0,7.0,-1.0,4.0,1.0
1701719404.2868721,-22.0,0.0,-6.0,-3.0,0.0,-22.0,-65.0,-18.0
1701719404.2868721,0.0,2.0,7.0,-13.0,-10.0,4.0,34.0,11.0
1701719404.2868721,2.0,0.0,-13.0,7.0,3.0,8.0,33.0,9.0
1701719404.2868721,0.0,8.0,9.0,11.0,7.0,0.0,-7.0,-8.0
1701719404.3065915,-1.0,-8.0,-5.0,-10.0,-3.0,4.0,-1.0,-3.0
1701719404.3065915,-3.0,9.0,3.0,-7.0,-7.0,-5.0,-17.0,3.0
1701719404.3065915,0.0,-7.0,-13.0,3.0,-1.0,-8.0,-6.0,-17.0
1701719404.3065915,0.0,-3.0,-2.0,-4.0,1.0,16.0,39.0,16.0
1701719404.326807,5.0,7.0,38.0,15.0,-1.0,0.0,7.0,2.0
1701719404.326807,-2.0,3.0,-76.0,-27.0,-2.0,-5.0,-21.0,-6.0
1701719404.3365986,1.0,-3.0,21.0,15.0,0.0,-1.0,-13.0,1.0
1701719404.3365986,-1.0,5.0,11.0,-3.0,-1.0,-7.0,-8.0,-9.0
1701719404.3467853,-5.0,-7.0,-9.0,3.0,-2.0,4.0,-1.0,-1.0
1701719404.3467853,0.0,-7.0,2.0,-5.0,0.0,-4.0,6.0,4.0
1701719404.3467853,4.0,8.0,-51.0,-6.0,-4.0,5.0,4.0,-5.0
1701719404.3467853,-8.0,-4.0,-7.0,-1.0,-1.0,-2.0,5.0,7.0
1701719404.3665957,1.0,10.0,25.0,11.0,3.0,-4.0,-23.0,-3.0
1701719404.3665957,-6.0,-19.0,-26.0,-36.0,-11.0,2.0,15.0,-2.0
1701719404.3665957,1.0,-9.0,21.0,16.0,20.0,3.0,-11.0,-3.0
1701719404.3665957,-5.0,-1.0,24.0,9.0,1.0,6.0,16.0,-1.0
1701719404.3869944,1.0,-4.0,-33.0,-4.0,-1.0,-7.0,5.0,5.0
1701719404.3869944,-2.0,5.0,29.0,17.0,-4.0,-9.0,-30.0,-7.0
1701719404.3965595,-2.0,3.0,28.0,3.0,-4.0,3.0,11.0,-1.0
1701719404.3965595,1.0,-10.0,-26.0,-8.0,-2.0,1.0,-1.0,1.0
1701719404.4065595,0.0,-9.0,-55.0,-18.0,-5.0,6.0,21.0,0.0
1701719404.4065595,-1.0,-8.0,15.0,17.0,10.0,1.0,-3.0,0.0
1701719404.4065595,0.0,-5.0,16.0,-15.0,-30.0,-13.0,-21.0,-4.0
1701719404.4065595,-2.0,2.0,-48.0,4.0,17.0,0.0,-8.0,1.0
1701719404.426559,6.0,6.0,24.0,-1.0,0.0,-1.0,-4.0,1.0
1701719404.426559,-8.0,-24.0,14.0,-1.0,2.0,1.0,10.0,-1.0
1701719404.426559,-5.0,-6.0,-51.0,7.0,10.0,1.0,-9.0,-1.0
1701719404.426559,3.0,4.0,40.0,2.0,-5.0,-4.0,0.0,-5.0
1701719404.447777,-2.0,1.0,14.0,-8.0,-10.0,-6.0,8.0,-7.0
1701719404.4487898,-2.0,4.0,6.0,9.0,2.0,5.0,-1.0,0.0
1701719404.456441,3.0,4.0,14.0,-14.0,-14.0,-1.0,0.0,10.0
1701719404.456441,1.0,7.0,11.0,3.0,2.0,-4.0,4.0,-1.0
1701719404.4685237,-4.0,-12.0,56.0,-2.0,0.0,-9.0,-41.0,-22.0
1701719404.4685237,0.0,-3.0,-34.0,-2.0,8.0,8.0,46.0,7.0
1701719404.4685237,-3.0,-7.0,-30.0,0.0,3.0,0.0,-21.0,-14.0
1701719404.4685237,1.0,1.0,-13.0,-2.0,-5.0,-1.0,5.0,7.0
1701719404.4888916,3.0,5.0,21.0,2.0,-7.0,0.0,19.0,1.0
1701719404.4888916,-2.0,-7.0,-11.0,1.0,1.0,4.0,1.0,-2.0
1701719404.4888916,-3.0,3.0,-3.0,0.0,-3.0,-5.0,-10.0,-6.0
1701719404.4888916,0.0,7.0,22.0,2.0,5.0,-4.0,-17.0,-5.0
1701719404.5085602,-3.0,-5.0,-45.0,-5.0,-2.0,-3.0,-5.0,-2.0
1701719404.5085602,4.0,21.0,26.0,12.0,-2.0,-4.0,-4.0,-1.0
1701719404.5085602,-4.0,-14.0,-71.0,-22.0,2.0,0.0,4.0,5.0
1701719404.5085602,-3.0,6.0,19.0,9.0,-11.0,-7.0,-11.0,-4.0
1701719404.5389287,2.0,3.0,46.0,-1.0,-1.0,7.0,15.0,7.0
1701719404.5389287,1.0,5.0,-6.0,-2.0,-2.0,-3.0,-10.0,-10.0
1701719404.5389287,-1.0,2.0,43.0,11.0,-2.0,-6.0,-15.0,-9.0
1701719404.5389287,0.0,2.0,13.0,-13.0,-12.0,-7.0,3.0,17.0
1701719404.5489378,-2.0,-1.0,-11.0,5.0,9.0,22.0,9.0,-17.0
1701719404.5489378,-5.0,-5.0,4.0,0.0,-3.0,-7.0,-12.0,11.0
1701719404.5489378,12.0,9.0,14.0,-1.0,-6.0,-10.0,-15.0,-1.0
1701719404.5489378,0.0,-9.0,-6.0,-1.0,2.0,-3.0,-2.0,1.0
1701719404.5685267,3.0,5.0,-23.0,5.0,8.0,2.0,-2.0,3.0
1701719404.5685267,3.0,2.0,19.0,-3.0,-4.0,-3.0,1.0,-4.0
1701719404.5785284,-11.0,-12.0,-10.0,-4.0,1.0,5.0,18.0,-6.0
1701719404.5785284,1.0,-11.0,-11.0,-3.0,-6.0,9.0,-11.0,-5.0
1701719404.5886467,-6.0,11.0,15.0,3.0,-3.0,-5.0,4.0,8.0
1701719404.5886467,3.0,-11.0,-13.0,10.0,21.0,1.0,-3.0,-4.0
1701719404.5886467,0.0,2.0,-12.0,2.0,-1.0,-3.0,-1.0,5.0
1701719404.5886467,-2.0,6.0,4.0,1.0,3.0,-6.0,-17.0,-21.0
1701719404.6088274,-2.0,-11.0,-49.0,-18.0,-18.0,-6.0,8.0,8.0
1701719404.6088274,2.0,3.0,-52.0,-15.0,-6.0,9.0,25.0,14.0
1701719404.6088274,-4.0,-6.0,-3.0,8.0,1.0,1.0,-10.0,-9.0
1701719404.6088274,-3.0,-2.0,-9.0,-11.0,-3.0,-2.0,20.0,-2.0
1701719404.6485283,-1.0,10.0,21.0,4.0,3.0,-10.0,-43.0,-11.0
1701719404.6485283,6.0,3.0,60.0,11.0,-1.0,-4.0,3.0,0.0
1701719404.6485283,-7.0,-21.0,-72.0,-19.0,2.0,13.0,44.0,18.0
1701719404.6485283,2.0,-9.0,-1.0,3.0,-5.0,-3.0,-12.0,-7.0
1701719404.6485283,0.0,7.0,34.0,8.0,5.0,-4.0,1.0,11.0
1701719404.6485283,-7.0,5.0,-32.0,-10.0,-6.0,-5.0,-12.0,-10.0
1701719404.6485283,2.0,11.0,92.0,11.0,4.0,1.0,4.0,-7.0
1701719404.6485283,0.0,12.0,-45.0,1.0,-4.0,-3.0,-6.0,1.0
1701719404.6689873,4.0,-14.0,-32.0,9.0,2.0,4.0,8.0,8.0
1701719404.6689873,-3.0,7.0,36.0,-16.0,-19.0,-2.0,0.0,-5.0
1701719404.6689873,0.0,2.0,-56.0,-5.0,11.0,-4.0,-12.0,-2.0
1701719404.6689873,-6.0,3.0,27.0,7.0,-6.0,0.0,11.0,-4.0
1701719404.688527,-3.0,-3.0,-3.0,6.0,19.0,4.0,4.0,11.0
1701719404.688527,-5.0,-16.0,84.0,33.0,-8.0,-8.0,-7.0,-1.0
1701719404.6985357,-2.0,7.0,-12.0,-43.0,-11.0,-5.0,-39.0,-8.0
1701719404.6985357,1.0,5.0,96.0,31.0,4.0,2.0,38.0,2.0
1701719404.7088525,-3.0,-17.0,-95.0,-18.0,-9.0,10.0,45.0,7.0
1701719404.7088525,1.0,10.0,32.0,-28.0,2.0,-2.0,14.0,-3.0
1701719404.7088525,0.0,10.0,30.0,39.0,9.0,3.0,-1.0,1.0
1701719404.7088525,-1.0,-7.0,17.0,-7.0,-1.0,-7.0,-32.0,0.0
1701719404.7289302,-2.0,4.0,27.0,-5.0,-6.0,-4.0,-15.0,-7.0
1701719404.7289302,-1.0,-7.0,-93.0,-3.0,2.0,-2.0,-9.0,4.0
1701719404.7289302,1.0,-4.0,26.0,-21.0,-14.0,-8.0,1.0,-7.0
1701719404.7289302,-5.0,-2.0,-27.0,14.0,-1.0,1.0,4.0,-1.0
1701719404.7689462,3.0,9.0,-39.0,-1.0,11.0,-3.0,-8.0,-1.0
1701719404.7689462,-3.0,-7.0,21.0,0.0,10.0,8.0,-8.0,-2.0
1701719404.7689462,-3.0,-7.0,-9.0,-1.0,4.0,-3.0,-12.0,-3.0
1701719404.7689462,1.0,0.0,37.0,0.0,-10.0,0.0,18.0,5.0
1701719404.7689462,-1.0,1.0,-81.0,-43.0,-13.0,-4.0,-17.0,-7.0
1701719404.7689462,-2.0,-19.0,3.0,6.0,-10.0,-3.0,-3.0,-1.0
1701719404.7689462,0.0,3.0,14.0,24.0,9.0,11.0,16.0,-27.0
1701719404.7689462,0.0,-7.0,-26.0,-13.0,18.0,2.0,18.0,13.0
1701719404.788957,3.0,-19.0,30.0,6.0,-5.0,-11.0,-28.0,14.0
1701719404.788957,-7.0,3.0,5.0,7.0,-4.0,-3.0,38.0,3.0
1701719404.788957,2.0,-6.0,14.0,-6.0,-9.0,-9.0,-24.0,-14.0
1701719404.788957,-11.0,-5.0,-9.0,-7.0,4.0,2.0,-44.0,-5.0
1701719404.818948,4.0,-7.0,10.0,-11.0,-12.0,-12.0,4.0,-10.0
1701719404.818948,3.0,-5.0,-6.0,23.0,30.0,27.0,37.0,10.0
1701719404.818948,-7.0,13.0,6.0,-8.0,-14.0,-3.0,25.0,-1.0
1701719404.818948,-1.0,6.0,-8.0,-4.0,4.0,-1.0,-9.0,-5.0
1701719404.8292935,-1.0,-1.0,21.0,-20.0,-8.0,-2.0,1.0,9.0
1701719404.8292935,0.0,10.0,1.0,10.0,-12.0,-12.0,-20.0,-10.0
1701719404.8292935,0.0,12.0,43.0,1.0,11.0,1.0,-1.0,1.0
1701719404.8292935,-1.0,-1.0,-82.0,-20.0,-6.0,-5.0,-3.0,-6.0
1701719404.8489516,-2.0,12.0,48.0,13.0,-6.0,-1.0,0.0,-6.0
1701719404.8489516,-6.0,-13.0,-110.0,-46.0,-12.0,-8.0,-15.0,-7.0
1701719404.8489516,1.0,-3.0,54.0,32.0,6.0,-2.0,-11.0,7.0
1701719404.8489516,0.0,-4.0,7.0,-2.0,-9.0,-9.0,8.0,-1.0
1701719404.8692665,-3.0,-1.0,27.0,0.0,1.0,13.0,25.0,-5.0
1701719404.8692665,6.0,9.0,4.0,-4.0,-1.0,9.0,8.0,11.0
1701719404.8692665,4.0,-10.0,-34.0,-2.0,-4.0,13.0,27.0,13.0
1701719404.8692665,-4.0,-2.0,10.0,-3.0,1.0,1.0,13.0,2.0
1701719404.8892598,-3.0,-4.0,1.0,20.0,7.0,-8.0,-26.0,-5.0
1701719404.8892598,1.0,6.0,17.0,0.0,-7.0,-14.0,-19.0,-1.0
1701719404.8892598,-6.0,-10.0,-9.0,-27.0,-20.0,-11.0,-11.0,1.0
1701719404.8892598,3.0,0.0,9.0,39.0,21.0,7.0,-5.0,-4.0
1701719404.9189482,-1.0,-4.0,-20.0,-40.0,-4.0,4.0,8.0,-2.0
1701719404.9189482,-1.0,7.0,37.0,6.0,-3.0,-5.0,-16.0,-3.0
1701719404.9189482,0.0,-4.0,-42.0,-14.0,1.0,-3.0,-20.0,3.0
1701719404.9189482,-5.0,-21.0,-6.0,1.0,-15.0,-21.0,-26.0,-10.0
1701719404.9291804,-8.0,8.0,17.0,9.0,-1.0,8.0,-5.0,-5.0
1701719404.9291804,8.0,7.0,6.0,3.0,2.0,2.0,-22.0,6.0
1701719404.9291804,-5.0,1.0,-22.0,0.0,4.0,1.0,24.0,-6.0
1701719404.9291804,3.0,-2.0,17.0,-8.0,1.0,3.0,-39.0,-15.0
1701719404.9491243,2.0,30.0,24.0,11.0,5.0,-5.0,0.0,15.0
1701719404.9491243,-12.0,-28.0,-15.0,-3.0,-4.0,-5.0,4.0,-8.0
1701719404.9491243,0.0,-6.0,-34.0,7.0,-1.0,-3.0,0.0,0.0
1701719404.9491243,0.0,11.0,-30.0,-24.0,-3.0,7.0,-1.0,-6.0
1701719404.9810114,-5.0,-21.0,17.0,16.0,-9.0,-5.0,5.0,-6.0
1701719404.9810114,-5.0,-32.0,35.0,-5.0,10.0,9.0,8.0,-2.0
1701719404.9810114,1.0,15.0,7.0,-9.0,-11.0,-5.0,0.0,6.0
1701719404.9820101,2.0,5.0,19.0,19.0,23.0,2.0,21.0,9.0
1701719404.9972508,-10.0,3.0,-1.0,3.0,-13.0,-8.0,-4.0,-4.0
1701719404.9972508,9.0,21.0,-5.0,-5.0,-9.0,-5.0,3.0,3.0
1701719404.9972508,-18.0,-41.0,-103.0,-13.0,-7.0,2.0,-10.0,-4.0
1701719404.9972508,6.0,31.0,84.0,21.0,17.0,10.0,14.0,6.0
1701719405.0115433,5.0,0.0,41.0,28.0,11.0,4.0,10.0,-2.0
1701719405.0115433,-3.0,1.0,-27.0,-39.0,-13.0,-11.0,-22.0,-9.0
1701719405.0115433,8.0,28.0,51.0,7.0,13.0,5.0,8.0,8.0
1701719405.0115433,-4.0,-7.0,1.0,-7.0,-17.0,-4.0,4.0,-3.0
1701719405.0319362,0.0,-8.0,22.0,18.0,18.0,0.0,-2.0,-2.0
1701719405.0319362,-1.0,12.0,37.0,17.0,-7.0,-3.0,-1.0,-3.0
1701719405.0319362,0.0,-11.0,-36.0,-18.0,-8.0,-1.0,1.0,2.0
1701719405.0319362,-4.0,-4.0,14.0,9.0,-6.0,-2.0,15.0,5.0
1701719405.0519862,0.0,-15.0,-54.0,-27.0,11.0,0.0,-4.0,-5.0
1701719405.0519862,0.0,2.0,-17.0,-3.0,-1.0,0.0,0.0,1.0
1701719405.0519862,-3.0,-6.0,71.0,32.0,2.0,-4.0,-10.0,-9.0
1701719405.0519862,-2.0,-16.0,-49.0,-5.0,-5.0,-5.0,16.0,14.0
1701719405.071637,-8.0,-1.0,-32.0,-8.0,-15.0,-7.0,-27.0,-25.0
1701719405.071637,1.0,-1.0,-25.0,-11.0,5.0,8.0,39.0,30.0
1701719405.071637,1.0,0.0,44.0,10.0,0.0,-4.0,-15.0,-5.0
1701719405.071637,0.0,-1.0,-18.0,-20.0,-12.0,2.0,6.0,-4.0
1701719405.0915456,6.0,16.0,-16.0,3.0,4.0,-5.0,-11.0,-1.0
1701719405.0915456,-5.0,2.0,14.0,2.0,-3.0,-17.0,-52.0,-22.0
1701719405.0915456,-4.0,-3.0,4.0,3.0,6.0,13.0,37.0,9.0
1701719405.0915456,2.0,-2.0,-12.0,-3.0,-1.0,2.0,27.0,12.0
1701719405.1118202,-3.0,-27.0,4.0,6.0,-17.0,1.0,8.0,2.0
1701719405.1118202,6.0,29.0,-27.0,-12.0,18.0,3.0,-12.0,-2.0
1701719405.1118202,-1.0,-5.0,29.0,25.0,17.0,-6.0,-17.0,1.0
1701719405.1118202,-5.0,0.0,-25.0,-21.0,1.0,4.0,-13.0,-16.0
1701719405.1315444,0.0,-6.0,28.0,9.0,-3.0,1.0,6.0,-5.0
1701719405.1315444,0.0,-2.0,-23.0,-18.0,-24.0,-4.0,20.0,22.0
1701719405.1315444,2.0,7.0,-11.0,17.0,-3.0,1.0,-3.0,-4.0
1701719405.1315444,-3.0,-2.0,-10.0,-24.0,14.0,2.0,-11.0,-5.0
1701719405.1515415,-4.0,-16.0,5.0,-3.0,-4.0,-11.0,-18.0,-7.0
1701719405.1515415,1.0,-1.0,17.0,4.0,-4.0,4.0,12.0,-4.0
1701719405.1515415,6.0,0.0,0.0,-22.0,-3.0,10.0,21.0,16.0
1701719405.1515415,0.0,3.0,-26.0,13.0,-13.0,-2.0,5.0,-1.0
1701719405.1718106,-2.0,2.0,13.0,10.0,1.0,3.0,5.0,8.0
1701719405.1718106,-6.0,4.0,-10.0,-8.0,-1.0,-9.0,-23.0,-24.0
1701719405.1718106,-6.0,-9.0,-1.0,-1.0,-7.0,-16.0,-15.0,6.0
1701719405.1718106,4.0,-1.0,12.0,-1.0,-4.0,6.0,1.0,0.0
1701719405.1915467,1.0,10.0,-1.0,1.0,8.0,0.0,17.0,-2.0
1701719405.1915467,-7.0,-5.0,-51.0,7.0,3.0,14.0,33.0,7.0
1701719405.2115443,-2.0,5.0,27.0,-2.0,-6.0,-7.0,-13.0,-12.0
1701719405.2115443,-3.0,-3.0,0.0,-7.0,5.0,-3.0,-11.0,-4.0
1701719405.2115443,-2.0,8.0,-11.0,11.0,-5.0,-1.0,-13.0,-1.0
1701719405.2115443,5.0,9.0,36.0,-4.0,8.0,-1.0,-4.0,1.0
1701719405.2115443,1.0,-10.0,-87.0,-16.0,-3.0,-5.0,-1.0,-9.0
1701719405.2115443,-10.0,-32.0,12.0,-7.0,-7.0,-4.0,-10.0,0.0
1701719405.2317822,-2.0,8.0,-26.0,-19.0,-10.0,2.0,6.0,-6.0
1701719405.2317822,0.0,-8.0,60.0,16.0,2.0,-2.0,-1.0,19.0
1701719405.2415447,1.0,1.0,-6.0,0.0,8.0,-6.0,-35.0,-17.0
1701719405.2415447,3.0,10.0,-1.0,7.0,1.0,4.0,22.0,3.0
1701719405.2515423,4.0,-3.0,5.0,7.0,1.0,8.0,35.0,9.0
1701719405.2515423,-7.0,-6.0,41.0,-2.0,-6.0,-10.0,-43.0,-13.0
1701719405.2515423,-2.0,2.0,-27.0,-27.0,-10.0,-4.0,3.0,8.0
1701719405.2515423,-2.0,-5.0,-6.0,-1.0,-4.0,-9.0,-9.0,-2.0
1701719405.2718892,-2.0,3.0,14.0,4.0,6.0,4.0,-11.0,-8.0
1701719405.2718892,1.0,-13.0,-3.0,6.0,-1.0,1.0,-4.0,-11.0
1701719405.2718892,-6.0,-4.0,28.0,-3.0,-8.0,-3.0,24.0,13.0
1701719405.2718892,1.0,5.0,-11.0,19.0,-12.0,-10.0,-67.0,-13.0
1701719405.2918627,10.0,1.0,-21.0,-13.0,7.0,-5.0,9.0,9.0
1701719405.2918627,2.0,-4.0,24.0,17.0,-8.0,2.0,-3.0,4.0
1701719405.3015413,-2.0,-7.0,-17.0,-12.0,6.0,-2.0,-10.0,-1.0
1701719405.3015413,-2.0,-5.0,4.0,-8.0,-1.0,-11.0,-16.0,-14.0
1701719405.3115408,-3.0,2.0,9.0,-8.0,7.0,26.0,68.0,15.0
1701719405.3115408,-4.0,11.0,1.0,9.0,0.0,-2.0,9.0,5.0
1701719405.3115408,5.0,6.0,53.0,17.0,1.0,4.0,-19.0,-6.0
1701719405.3115408,-2.0,0.0,-68.0,-30.0,-22.0,-8.0,-6.0,-1.0
1701719405.331542,-6.0,-2.0,18.0,-15.0,-6.0,-13.0,-34.0,-5.0
1701719405.331542,0.0,-14.0,-18.0,17.0,19.0,11.0,24.0,-5.0
1701719405.331542,-8.0,-12.0,3.0,-3.0,-17.0,-3.0,13.0,-3.0
1701719405.331542,6.0,4.0,24.0,8.0,2.0,3.0,2.0,9.0
1701719405.3518395,-8.0,-10.0,-33.0,-11.0,5.0,-4.0,-26.0,-8.0
1701719405.3518395,4.0,12.0,33.0,22.0,17.0,1.0,11.0,-2.0
1701719405.3615437,-3.0,-4.0,-82.0,-49.0,-18.0,-9.0,-11.0,-6.0
1701719405.3615437,0.0,0.0,12.0,12.0,6.0,10.0,15.0,0.0
1701719405.3615437,-3.0,-16.0,-31.0,-13.0,-11.0,-5.0,2.0,1.0
1701719405.3615437,-6.0,7.0,-1.0,-21.0,-18.0,-5.0,-15.0,-9.0
1701719405.3715694,-5.0,10.0,31.0,24.0,10.0,1.0,2.0,-7.0
1701719405.3715694,3.0,9.0,35.0,4.0,14.0,2.0,16.0,11.0
1701719405.3919902,7.0,3.0,-25.0,12.0,-3.0,-5.0,-2.0,-2.0
1701719405.3919902,-4.0,-5.0,-24.0,-15.0,-3.0,-4.0,5.0,-3.0
1701719405.3919902,5.0,10.0,0.0,5.0,1.0,-10.0,-23.0,4.0
1701719405.3919902,-9.0,-8.0,17.0,-9.0,-9.0,6.0,25.0,5.0
1701719405.411542,1.0,6.0,72.0,31.0,12.0,-8.0,-63.0,-12.0
1701719405.411542,1.0,-9.0,-78.0,-17.0,-6.0,13.0,40.0,-2.0
1701719405.411542,-1.0,-1.0,-3.0,5.0,-2.0,5.0,52.0,4.0
1701719405.411542,-6.0,-4.0,31.0,8.0,3.0,-12.0,-54.0,-7.0
1701719405.4315443,2.0,1.0,1.0,-14.0,-6.0,3.0,36.0,11.0
1701719405.4315443,1.0,1.0,6.0,6.0,0.0,-3.0,-9.0,2.0
1701719405.4415417,0.0,-6.0,-32.0,10.0,9.0,10.0,11.0,-5.0
1701719405.4415417,0.0,2.0,31.0,-4.0,3.0,3.0,5.0,-1.0
1701719405.4519286,-5.0,-4.0,-58.0,-16.0,-6.0,-13.0,-6.0,-5.0
1701719405.4519286,-5.0,-5.0,38.0,7.0,-3.0,-6.0,-35.0,-7.0
1701719405.4519286,2.0,-5.0,8.0,-2.0,5.0,7.0,6.0,5.0
1701719405.4519286,4.0,7.0,-7.0,5.0,-2.0,-4.0,9.0,-1.0
1701719405.4715426,0.0,9.0,2.0,11.0,-10.0,5.0,0.0,1.0
1701719405.4715426,-7.0,3.0,-20.0,-10.0,-2.0,-4.0,-5.0,-7.0
1701719405.4715426,5.0,7.0,61.0,10.0,16.0,2.0,-2.0,4.0
1701719405.4715426,-8.0,-3.0,-26.0,-6.0,-4.0,6.0,14.0,-4.0
1701719405.491904,2.0,-8.0,1.0,2.0,0.0,-1.0,-9.0,-3.0
1701719405.491904,-3.0,-4.0,17.0,-20.0,-25.0,-8.0,-6.0,-5.0
1701719405.5021815,-1.0,4.0,22.0,43.0,8.0,1.0,-5.0,-4.0
1701719405.5021815,1.0,-11.0,-40.0,-30.0,1.0,3.0,3.0,4.0
1701719405.5148382,-5.0,1.0,38.0,8.0,-6.0,-2.0,6.0,-7.0
1701719405.515861,2.0,-5.0,-42.0,-4.0,2.0,-2.0,-5.0,-1.0
1701719405.5168545,2.0,1.0,4.0,-14.0,-8.0,-2.0,-5.0,4.0
1701719405.5168545,-8.0,-11.0,-3.0,6.0,-2.0,1.0,8.0,-7.0
1701719405.5442524,4.0,-1.0,13.0,29.0,2.0,1.0,2.0,3.0
1701719405.5442524,1.0,-7.0,-66.0,-13.0,7.0,-3.0,-2.0,2.0
1701719405.5442524,-6.0,-1.0,25.0,-10.0,-4.0,-1.0,-6.0,-3.0
1701719405.5442524,15.0,10.0,-55.0,3.0,-7.0,-1.0,3.0,3.0
1701719405.554276,-8.0,15.0,49.0,-8.0,7.0,5.0,-1.0,-2.0
1701719405.554276,2.0,14.0,-36.0,7.0,4.0,-2.0,-5.0,-5.0
1701719405.554276,-3.0,-13.0,37.0,20.0,3.0,3.0,11.0,2.0
1701719405.554276,0.0,5.0,27.0,3.0,-3.0,-2.0,-15.0,1.0
1701719405.5742989,-2.0,-10.0,-31.0,-32.0,-2.0,1.0,31.0,2.0
1701719405.5742989,-1.0,-6.0,6.0,2.0,3.0,-9.0,-33.0,-6.0
1701719405.5742989,1.0,-1.0,-11.0,-29.0,-12.0,3.0,18.0,-6.0
1701719405.5742989,-1.0,13.0,20.0,10.0,9.0,5.0,8.0,6.0
1701719405.5944867,-1.0,-23.0,-20.0,13.0,1.0,-9.0,-20.0,-5.0
1701719405.5944867,-3.0,8.0,40.0,6.0,3.0,7.0,2.0,19.0
1701719405.5944867,-2.0,-4.0,-18.0,-5.0,0.0,6.0,24.0,-6.0
1701719405.5944867,5.0,-1.0,46.0,16.0,3.0,-1.0,10.0,-22.0
1701719405.6346147,0.0,4.0,-33.0,-19.0,0.0,-1.0,-4.0,24.0
1701719405.6346147,-10.0,-6.0,7.0,-10.0,-8.0,-14.0,-21.0,-29.0
1701719405.6346147,3.0,15.0,-9.0,-3.0,-1.0,-11.0,-16.0,-7.0
1701719405.6346147,-4.0,0.0,24.0,2.0,-2.0,12.0,-7.0,2.0
1701719405.6346147,4.0,1.0,11.0,-6.0,3.0,-5.0,-26.0,-1.0
1701719405.6346147,7.0,-1.0,41.0,19.0,4.0,8.0,24.0,6.0
1701719405.6446145,-7.0,2.0,-40.0,-6.0,-7.0,-5.0,-7.0,16.0
1701719405.6446145,-8.0,-12.0,-51.0,-13.0,-4.0,-7.0,2.0,-22.0
1701719405.6548915,-2.0,-2.0,6.0,-9.0,1.0,3.0,-10.0,6.0
1701719405.6548915,-1.0,-14.0,1.0,19.0,7.0,2.0,-8.0,-1.0
1701719405.6548915,-3.0,-2.0,48.0,-3.0,-19.0,-3.0,-15.0,-1.0
1701719405.6548915,6.0,0.0,-27.0,-4.0,4.0,-7.0,5.0,6.0
1701719405.674826,-2.0,2.0,13.0,-1.0,6.0,3.0,2.0,-14.0
1701719405.674826,-5.0,7.0,18.0,-2.0,-5.0,1.0,10.0,5.0
1701719405.674826,1.0,-3.0,-45.0,-21.0,-3.0,-8.0,-23.0,-12.0
1701719405.674826,-5.0,5.0,22.0,13.0,-4.0,-5.0,-14.0,-7.0
1701719405.7046208,2.0,-7.0,-9.0,-7.0,-5.0,12.0,50.0,17.0
1701719405.7046208,-5.0,6.0,4.0,-14.0,-12.0,-10.0,-7.0,-9.0
1701719405.7046208,12.0,16.0,-4.0,5.0,5.0,-6.0,-12.0,3.0
1701719405.7046208,-14.0,-20.0,0.0,4.0,12.0,15.0,18.0,6.0
1701719405.7146158,0.0,15.0,4.0,-3.0,-5.0,-13.0,-54.0,-19.0
1701719405.7146158,2.0,-8.0,-20.0,5.0,6.0,9.0,60.0,29.0
1701719405.7146158,-3.0,-3.0,22.0,-6.0,-13.0,-6.0,-11.0,-4.0
1701719405.7146158,-2.0,1.0,-26.0,20.0,10.0,-4.0,-8.0,2.0
1701719405.7350605,-4.0,-2.0,-52.0,-8.0,12.0,3.0,-1.0,-9.0
1701719405.7350605,3.0,-2.0,-19.0,-3.0,-14.0,-4.0,-3.0,-4.0
1701719405.7350605,-3.0,7.0,37.0,7.0,17.0,3.0,-7.0,-1.0
1701719405.7350605,-3.0,-36.0,-19.0,-12.0,-12.0,0.0,10.0,4.0
1701719405.7546163,-5.0,-5.0,-11.0,4.0,-8.0,-5.0,8.0,-2.0
1701719405.7546163,4.0,-5.0,7.0,-25.0,-3.0,0.0,-10.0,-4.0
1701719405.7546163,0.0,1.0,-61.0,25.0,5.0,4.0,9.0,0.0
1701719405.7546163,-1.0,10.0,5.0,-21.0,-3.0,-7.0,-19.0,-3.0
1701719405.7749841,-1.0,-10.0,44.0,34.0,18.0,0.0,12.0,3.0
1701719405.7749841,-2.0,-6.0,-32.0,-47.0,-6.0,-15.0,-32.0,-18.0
1701719405.7749841,-1.0,-6.0,0.0,4.0,3.0,21.0,6.0,15.0
1701719405.7749841,4.0,2.0,22.0,-25.0,-9.0,6.0,42.0,7.0
1701719405.7949898,3.0,21.0,12.0,40.0,-2.0,-4.0,-12.0,-4.0
1701719405.7949898,2.0,-4.0,0.0,-28.0,-4.0,4.0,6.0,-1.0
1701719405.7949898,-4.0,-11.0,0.0,-30.0,-1.0,-4.0,-10.0,-8.0
1701719405.7949898,0.0,4.0,-7.0,7.0,-1.0,-9.0,-20.0,-3.0
1701719405.8146167,-2.0,7.0,40.0,-15.0,-10.0,7.0,-4.0,0.0
1701719405.8146167,-4.0,-14.0,20.0,32.0,6.0,-1.0,22.0,1.0
1701719405.8146167,-6.0,3.0,-13.0,8.0,-2.0,-4.0,33.0,1.0
1701719405.8146167,-3.0,-2.0,8.0,-12.0,-2.0,6.0,-26.0,0.0
1701719405.8350682,-2.0,2.0,1.0,-2.0,-5.0,-7.0,-13.0,-7.0
1701719405.8350682,-3.0,4.0,-29.0,11.0,5.0,5.0,-15.0,10.0
1701719405.8446178,9.0,-20.0,39.0,3.0,6.0,12.0,40.0,7.0
1701719405.8446178,7.0,41.0,48.0,10.0,0.0,-14.0,-11.0,-6.0
1701719405.854618,-21.0,-75.0,-80.0,-26.0,-13.0,-7.0,-7.0,-17.0
1701719405.854618,2.0,29.0,32.0,14.0,1.0,-1.0,1.0,17.0
1701719405.854618,0.0,1.0,-17.0,-17.0,-16.0,-11.0,-26.0,-15.0
1701719405.854618,0.0,3.0,-14.0,24.0,5.0,0.0,-1.0,10.0
1701719405.8646507,8.0,20.0,36.0,37.0,11.0,6.0,13.0,-3.0
1701719405.8746297,-3.0,-9.0,-21.0,-21.0,12.0,3.0,15.0,-6.0
1701719405.8746297,-16.0,-10.0,50.0,15.0,0.0,0.0,-14.0,-7.0
1701719405.8746297,0.0,-6.0,-21.0,-24.0,-9.0,-3.0,3.0,-4.0
1701719405.8950043,4.0,31.0,109.0,17.0,0.0,-1.0,-6.0,8.0
1701719405.8950043,0.0,-7.0,-72.0,17.0,1.0,-2.0,-10.0,-5.0
1701719405.8950043,3.0,12.0,0.0,3.0,-5.0,-3.0,-10.0,0.0
1701719405.8950043,-4.0,-16.0,8.0,-7.0,-7.0,-1.0,1.0,-9.0
1701719405.9149036,-1.0,-5.0,-22.0,-29.0,-14.0,-1.0,12.0,11.0
1701719405.9149036,-2.0,4.0,49.0,0.0,2.0,2.0,-7.0,-2.0
1701719405.9149036,-2.0,-2.0,-27.0,30.0,28.0,0.0,-6.0,-15.0
1701719405.9149036,-4.0,0.0,-29.0,-9.0,-1.0,-2.0,2.0,6.0
1701719405.924619,-1.0,-8.0,-35.0,-14.0,-7.0,-5.0,16.0,-6.0
1701719405.924619,2.0,5.0,62.0,-3.0,-11.0,-4.0,-17.0,9.0
1701719405.9446156,-2.0,-14.0,-71.0,-11.0,-10.0,-8.0,-21.0,4.0
1701719405.9446156,-1.0,-2.0,28.0,13.0,4.0,1.0,-4.0,-24.0
1701719405.9548533,-5.0,2.0,1.0,-19.0,-8.0,-15.0,-42.0,-1.0
1701719405.9548533,-9.0,-27.0,-2.0,10.0,-6.0,-4.0,28.0,3.0
1701719405.9548533,6.0,17.0,42.0,6.0,5.0,8.0,-10.0,-1.0
1701719405.9548533,-2.0,-25.0,18.0,-8.0,0.0,1.0,13.0,20.0
1701719405.9946158,1.0,-5.0,-75.0,-14.0,3.0,11.0,16.0,-11.0
1701719405.9946158,-5.0,-1.0,-7.0,9.0,1.0,-10.0,-5.0,-17.0
1701719405.9946158,0.0,0.0,-1.0,-9.0,-4.0,5.0,1.0,3.0
1701719405.9946158,-5.0,-10.0,22.0,8.0,-8.0,-16.0,-23.0,-6.0
1701719405.9946158,-1.0,-3.0,-89.0,-28.0,-4.0,-6.0,-6.0,20.0
1701719405.9946158,4.0,-2.0,-15.0,10.0,9.0,7.0,1.0,0.0
1701719405.9946158,-3.0,6.0,34.0,-2.0,-10.0,-3.0,15.0,0.0
1701719405.9946158,1.0,15.0,-45.0,6.0,12.0,6.0,-3.0,1.0
1701719406.0150688,-3.0,-5.0,29.0,4.0,1.0,-1.0,5.0,-1.0
1701719406.0150688,-13.0,-2.0,-43.0,-12.0,-10.0,0.0,-10.0,-3.0
1701719406.0150688,0.0,2.0,41.0,-12.0,-6.0,-3.0,3.0,-2.0
1701719406.0150688,0.0,5.0,-28.0,-6.0,-12.0,-3.0,7.0,3.0
1701719406.043189,2.0,-3.0,7.0,11.0,5.0,3.0,-4.0,-2.0
1701719406.043189,4.0,-1.0,20.0,-1.0,2.0,2.0,8.0,-3.0
1701719406.043189,0.0,9.0,7.0,3.0,-5.0,-21.0,-32.0,-4.0
1701719406.043189,-12.0,-6.0,-5.0,-12.0,-11.0,-7.0,-36.0,-8.0
1701719406.0533032,4.0,1.0,53.0,20.0,14.0,42.0,98.0,21.0
1701719406.0533032,0.0,-3.0,-27.0,-17.0,-6.0,2.0,2.0,-8.0
1701719406.061555,3.0,-1.0,11.0,1.0,5.0,-5.0,16.0,7.0
1701719406.061555,-7.0,-9.0,-18.0,1.0,2.0,-10.0,-15.0,-10.0
1701719406.0773628,3.0,8.0,49.0,7.0,-3.0,-13.0,-16.0,12.0
1701719406.0773628,10.0,13.0,-31.0,15.0,2.0,1.0,-22.0,2.0
1701719406.0773628,-7.0,-1.0,18.0,-18.0,-16.0,-3.0,-7.0,-7.0
1701719406.0773628,1.0,6.0,-45.0,-42.0,-4.0,0.0,5.0,1.0
1701719406.0973608,0.0,10.0,-2.0,27.0,28.0,1.0,-7.0,-11.0
1701719406.0973608,-4.0,8.0,10.0,-6.0,-5.0,-4.0,5.0,-2.0
1701719406.0973608,4.0,0.0,-24.0,-4.0,3.0,2.0,-1.0,7.0
1701719406.0973608,-3.0,9.0,21.0,-1.0,-21.0,2.0,19.0,2.0
1701719406.107829,-5.0,5.0,10.0,-6.0,-13.0,-8.0,-27.0,-11.0
1701719406.107829,2.0,9.0,-33.0,5.0,23.0,2.0,-11.0,-1.0
1701719406.118194,-4.0,-8.0,64.0,-2.0,-3.0,4.0,2.0,-5.0
1701719406.118194,7.0,6.0,20.0,20.0,2.0,4.0,27.0,-3.0
1701719406.1281953,1.0,-6.0,-20.0,-12.0,-5.0,-2.0,2.0,8.0
1701719406.1281953,-12.0,-10.0,36.0,4.0,-3.0,-8.0,-27.0,-6.0
1701719406.1378436,-6.0,-16.0,-49.0,-35.0,7.0,4.0,11.0,-1.0
1701719406.1378436,10.0,8.0,4.0,12.0,15.0,7.0,7.0,17.0
1701719406.1580956,-4.0,-13.0,5.0,-4.0,0.0,-7.0,-12.0,-16.0
1701719406.1580956,2.0,4.0,64.0,10.0,-29.0,-3.0,3.0,-4.0
1701719406.1580956,0.0,10.0,-3.0,15.0,19.0,8.0,7.0,-1.0
1701719406.1580956,-4.0,-16.0,3.0,-2.0,10.0,2.0,-4.0,4.0
1701719406.1680498,8.0,14.0,6.0,-11.0,-17.0,-8.0,-1.0,-1.0
1701719406.1680498,-2.0,-26.0,-27.0,-20.0,5.0,2.0,0.0,0.0
1701719406.1780632,0.0,8.0,8.0,18.0,5.0,4.0,6.0,1.0
1701719406.1780632,4.0,11.0,35.0,18.0,-3.0,0.0,-4.0,7.0
1701719406.1978478,-12.0,-28.0,-65.0,-21.0,-1.0,-3.0,-37.0,-22.0
1701719406.1978478,-4.0,9.0,36.0,3.0,-2.0,0.0,6.0,-1.0
1701719406.217844,-2.0,-9.0,-23.0,-1.0,-2.0,-7.0,7.0,12.0
1701719406.217844,2.0,17.0,22.0,1.0,0.0,2.0,2.0,-9.0
1701719406.217844,1.0,12.0,13.0,3.0,0.0,8.0,31.0,11.0
1701719406.217844,-1.0,-14.0,27.0,7.0,-3.0,-15.0,-38.0,-12.0
1701719406.217844,-3.0,-8.0,-47.0,-5.0,-5.0,-3.0,14.0,-17.0
1701719406.217844,-1.0,-3.0,-4.0,1.0,4.0,10.0,4.0,8.0
1701719406.2278395,1.0,-2.0,45.0,4.0,-4.0,0.0,6.0,-2.0
1701719406.2278395,-1.0,-1.0,-57.0,-8.0,5.0,6.0,17.0,6.0
1701719406.2380238,-1.0,5.0,9.0,11.0,-6.0,-12.0,-12.0,1.0
1701719406.2380238,-6.0,-14.0,-4.0,-16.0,-5.0,-8.0,-4.0,-18.0
1701719406.2478418,3.0,-5.0,-28.0,2.0,4.0,0.0,9.0,10.0
1701719406.2478418,5.0,16.0,14.0,9.0,-3.0,-2.0,16.0,0.0
1701719406.2578442,-6.0,-22.0,-36.0,-12.0,-8.0,-5.0,-20.0,-4.0
1701719406.2578442,-5.0,-5.0,7.0,2.0,6.0,-1.0,-29.0,-11.0
1701719406.2781482,-3.0,1.0,-15.0,-4.0,8.0,5.0,23.0,4.0
1701719406.2781482,10.0,6.0,13.0,4.0,-10.0,2.0,6.0,16.0
1701719406.2781482,-4.0,-10.0,-23.0,-18.0,-14.0,-2.0,-6.0,-4.0
1701719406.2781482,1.0,8.0,3.0,-3.0,12.0,-5.0,-5.0,-7.0
1701719406.2878447,-9.0,-31.0,-7.0,1.0,8.0,0.0,-13.0,-4.0
1701719406.2878447,-14.0,16.0,-11.0,2.0,1.0,-6.0,-10.0,-1.0
1701719406.2979174,6.0,12.0,29.0,3.0,-7.0,8.0,-9.0,-3.0
1701719406.2979174,1.0,-9.0,-54.0,-7.0,-9.0,-2.0,28.0,10.0
1701719406.317841,6.0,-16.0,-11.0,-11.0,-13.0,4.0,7.0,2.0
1701719406.317841,-1.0,-20.0,-22.0,7.0,2.0,2.0,18.0,-5.0
1701719406.317841,-1.0,8.0,-44.0,7.0,5.0,-5.0,-25.0,2.0
1701719406.317841,2.0,21.0,24.0,0.0,8.0,0.0,9.0,-2.0
1701719406.3381371,6.0,24.0,-11.0,11.0,-6.0,-6.0,-15.0,-2.0
1701719406.3381371,-3.0,1.0,93.0,21.0,6.0,-2.0,-9.0,-5.0
1701719406.3381371,1.0,5.0,35.0,-14.0,-10.0,3.0,12.0,2.0
1701719406.3381371,2.0,-14.0,-44.0,8.0,9.0,0.0,-9.0,3.0
1701719406.348095,-5.0,20.0,-5.0,-18.0,-9.0,-8.0,-10.0,-7.0
1701719406.348095,-6.0,-34.0,-55.0,-7.0,3.0,3.0,-2.0,-3.0
1701719406.3678448,3.0,11.0,10.0,6.0,4.0,0.0,1.0,3.0
1701719406.3678448,-2.0,1.0,26.0,6.0,-7.0,1.0,4.0,0.0
1701719406.3878417,-2.0,-4.0,19.0,2.0,-1.0,-3.0,-11.0,-3.0
1701719406.3878417,1.0,17.0,30.0,4.0,1.0,0.0,4.0,-5.0
1701719406.3878417,2.0,10.0,-81.0,-10.0,6.0,3.0,4.0,1.0
1701719406.3878417,-1.0,-5.0,-61.0,-13.0,-12.0,-2.0,-4.0,2.0
1701719406.397871,-5.0,-10.0,-50.0,-2.0,-5.0,-6.0,-7.0,-6.0
1701719406.397871,1.0,-9.0,11.0,-16.0,7.0,3.0,11.0,-4.0
1701719406.397871,3.0,-6.0,-9.0,-5.0,-11.0,-2.0,-4.0,8.0
1701719406.397871,4.0,6.0,95.0,47.0,15.0,-2.0,23.0,2.0
1701719406.4082046,-3.0,1.0,-8.0,-5.0,0.0,-5.0,-29.0,-7.0
1701719406.4082046,-4.0,-6.0,-86.0,-30.0,-8.0,0.0,-19.0,-8.0
1701719406.4278407,1.0,-1.0,19.0,10.0,15.0,17.0,48.0,9.0
1701719406.4278407,-5.0,-8.0,0.0,-4.0,-6.0,-5.0,-14.0,-5.0
1701719406.4278407,2.0,8.0,59.0,1.0,3.0,11.0,55.0,12.0
1701719406.4278407,-2.0,-1.0,-25.0,-1.0,-2.0,-5.0,-43.0,-23.0
1701719406.4378948,-5.0,-10.0,37.0,8.0,-1.0,-9.0,-4.0,27.0
1701719406.4378948,1.0,-1.0,-27.0,-17.0,-8.0,9.0,20.0,5.0
1701719406.4580228,-2.0,-2.0,3.0,-2.0,-1.0,-2.0,-4.0,-5.0
1701719406.4580228,-1.0,10.0,22.0,-5.0,-14.0,-3.0,3.0,1.0
1701719406.4580228,3.0,-12.0,14.0,52.0,11.0,0.0,-20.0,-15.0
1701719406.4580228,-7.0,-1.0,-13.0,-32.0,-10.0,-7.0,-13.0,1.0
1701719406.4779112,-5.0,-8.0,-68.0,4.0,37.0,-1.0,-22.0,-3.0
1701719406.4779112,4.0,10.0,28.0,12.0,-7.0,2.0,26.0,4.0
1701719406.4779112,-10.0,-17.0,40.0,-12.0,-26.0,-10.0,-19.0,-13.0
1701719406.4779112,1.0,1.0,32.0,-44.0,-13.0,-2.0,-7.0,3.0
1701719406.4880757,3.0,8.0,-35.0,50.0,17.0,7.0,9.0,3.0
1701719406.4880757,-5.0,-16.0,90.0,-11.0,19.0,-7.0,-10.0,0.0
1701719406.4978476,-2.0,-7.0,-68.0,-28.0,-8.0,-4.0,10.0,-2.0
1701719406.4978476,-1.0,6.0,-11.0,-7.0,-33.0,-8.0,-9.0,-8.0
1701719406.5181603,1.0,-23.0,83.0,4.0,6.0,-2.0,-8.0,-15.0
1701719406.5181603,4.0,22.0,-11.0,2.0,-2.0,3.0,10.0,19.0
1701719406.5181603,-6.0,2.0,-23.0,11.0,14.0,-2.0,-7.0,-10.0
1701719406.5181603,-11.0,-28.0,3.0,-21.0,-11.0,-3.0,0.0,-7.0
1701719406.5582376,3.0,16.0,28.0,-3.0,-16.0,-3.0,11.0,-1.0
1701719406.5582376,0.0,-5.0,-5.0,12.0,5.0,5.0,-7.0,1.0
1701719406.5582376,3.0,20.0,72.0,1.0,4.0,3.0,-1.0,-16.0
1701719406.5582376,-5.0,-7.0,-65.0,-1.0,7.0,3.0,28.0,14.0
1701719406.5589242,0.0,10.0,32.0,6.0,-9.0,-11.0,-73.0,-11.0
1701719406.5589242,-4.0,11.0,-79.0,-21.0,1.0,-1.0,6.0,-10.0
1701719406.562963,1.0,7.0,22.0,-6.0,-3.0,-1.0,-2.0,8.0
1701719406.562963,1.0,-2.0,-17.0,24.0,16.0,-1.0,-16.0,-15.0
1701719406.5798159,-1.0,1.0,-23.0,-13.0,-5.0,0.0,8.0,5.0
1701719406.5798159,-3.0,-3.0,7.0,1.0,-4.0,1.0,24.0,9.0
1701719406.581831,-4.0,-4.0,-28.0,-6.0,-4.0,-12.0,-24.0,-9.0
1701719406.581831,2.0,10.0,29.0,13.0,4.0,6.0,-10.0,-18.0
1701719406.6035216,4.0,-12.0,-14.0,-15.0,-6.0,15.0,45.0,22.0
1701719406.6035216,2.0,10.0,8.0,9.0,0.0,0.0,-9.0,-4.0
1701719406.6035216,-5.0,-9.0,25.0,-3.0,-5.0,-4.0,25.0,7.0
1701719406.6035216,-5.0,-4.0,-4.0,7.0,9.0,-7.0,-5.0,-15.0
1701719406.6137938,-1.0,-1.0,-8.0,-18.0,-7.0,-7.0,-10.0,5.0
1701719406.6137938,-8.0,-21.0,20.0,7.0,0.0,2.0,0.0,-16.0
1701719406.6235275,7.0,-11.0,-23.0,-45.0,-22.0,-8.0,-12.0,4.0
1701719406.6235275,-8.0,-3.0,-48.0,-5.0,5.0,-3.0,-26.0,3.0
1701719406.6338563,-6.0,20.0,22.0,31.0,30.0,-1.0,3.0,-11.0
1701719406.6338563,-6.0,-11.0,37.0,5.0,-9.0,4.0,11.0,17.0
1701719406.6338563,-4.0,-5.0,2.0,7.0,9.0,-2.0,-23.0,-9.0
1701719406.6338563,5.0,9.0,27.0,-9.0,-15.0,-8.0,-1.0,6.0
1701719406.6835234,-7.0,-21.0,-38.0,-34.0,-20.0,-6.0,11.0,-6.0
1701719406.6835234,-4.0,-2.0,-7.0,14.0,3.0,0.0,-1.0,6.0
1701719406.6835234,1.0,4.0,-37.0,-7.0,-2.0,0.0,-3.0,-3.0
1701719406.6835234,4.0,-9.0,23.0,14.0,6.0,7.0,4.0,4.0
1701719406.6835234,-3.0,4.0,15.0,4.0,-3.0,-11.0,-37.0,-8.0
1701719406.6835234,2.0,-1.0,12.0,-9.0,-3.0,8.0,31.0,0.0
1701719406.6835234,1.0,3.0,11.0,13.0,4.0,17.0,46.0,7.0
1701719406.6835234,0.0,0.0,-26.0,2.0,11.0,5.0,11.0,4.0
1701719406.693522,-4.0,-5.0,-79.0,-19.0,-16.0,-8.0,-8.0,-1.0
1701719406.693522,1.0,-10.0,-26.0,-5.0,-14.0,-12.0,-34.0,-6.0
1701719406.7035224,-5.0,-8.0,-6.0,3.0,19.0,-1.0,-4.0,-2.0
1701719406.7035224,-5.0,-10.0,48.0,26.0,8.0,-1.0,-12.0,-3.0
1701719406.7139404,1.0,9.0,18.0,-27.0,-17.0,-4.0,2.0,-2.0
1701719406.7139404,9.0,20.0,45.0,7.0,3.0,1.0,2.0,0.0
1701719406.7236726,-9.0,-28.0,-104.0,4.0,2.0,-2.0,-10.0,-4.0
1701719406.7236726,3.0,10.0,91.0,5.0,3.0,-2.0,3.0,6.0
1701719406.7338858,-4.0,-29.0,-79.0,10.0,-6.0,-4.0,-7.0,-4.0
1701719406.7338858,-2.0,-3.0,77.0,-1.0,10.0,0.0,3.0,-2.0
1701719406.7435238,-5.0,-17.0,-44.0,-11.0,-3.0,0.0,2.0,-3.0
1701719406.7435238,1.0,5.0,-7.0,-19.0,-13.0,-4.0,-1.0,4.0
1701719406.7535255,-1.0,-2.0,86.0,25.0,-6.0,-1.0,4.0,-1.0
1701719406.7535255,1.0,-1.0,-41.0,10.0,17.0,2.0,-2.0,-2.0
1701719406.7535255,8.0,18.0,97.0,19.0,31.0,10.0,25.0,5.0
1701719406.7535255,-8.0,-22.0,-79.0,-38.0,-18.0,-8.0,-14.0,-7.0
1701719406.7739289,-1.0,-1.0,-15.0,-7.0,6.0,5.0,9.0,4.0
1701719406.7739289,-2.0,-3.0,0.0,3.0,-15.0,-9.0,-10.0,-3.0
1701719406.7836804,6.0,30.0,16.0,0.0,-8.0,2.0,1.0,5.0
1701719406.7836804,-11.0,-15.0,-46.0,-12.0,-3.0,-5.0,-14.0,-11.0
1701719406.7938995,7.0,10.0,35.0,10.0,8.0,5.0,-4.0,-9.0
1701719406.7938995,-8.0,-10.0,3.0,-7.0,-9.0,-1.0,1.0,2.0
1701719406.8035238,-15.0,-14.0,-13.0,-16.0,-26.0,-7.0,7.0,-18.0
1701719406.8035238,1.0,-6.0,12.0,34.0,13.0,2.0,10.0,30.0
1701719406.8235261,1.0,-5.0,-31.0,-20.0,6.0,2.0,-5.0,-16.0
1701719406.8235261,3.0,18.0,11.0,0.0,-2.0,-2.0,3.0,-1.0
1701719406.8235261,15.0,8.0,36.0,3.0,0.0,2.0,-8.0,-10.0
1701719406.8235261,-34.0,-25.0,-28.0,-14.0,-28.0,-22.0,-22.0,16.0
1701719406.8335576,0.0,-2.0,33.0,6.0,25.0,6.0,9.0,-6.0
1701719406.8335576,8.0,10.0,-8.0,20.0,15.0,-1.0,-8.0,1.0
1701719406.843705,-4.0,-16.0,-53.0,-23.0,-10.0,2.0,26.0,7.0
1701719406.843705,14.0,28.0,28.0,4.0,2.0,2.0,-5.0,-16.0
1701719406.8539658,-9.0,-19.0,19.0,-8.0,-17.0,-15.0,-31.0,2.0
1701719406.8539658,-6.0,-9.0,-49.0,-20.0,-14.0,-1.0,-5.0,-3.0
1701719406.8635242,0.0,1.0,24.0,12.0,5.0,7.0,-6.0,4.0
1701719406.8635242,8.0,8.0,9.0,11.0,12.0,12.0,30.0,2.0
1701719406.8835216,-5.0,2.0,-10.0,-3.0,-13.0,-5.0,10.0,2.0
1701719406.8835216,3.0,-1.0,3.0,10.0,-2.0,-4.0,-4.0,-4.0
1701719406.8835216,-4.0,2.0,18.0,-13.0,12.0,-2.0,-7.0,6.0
1701719406.8835216,2.0,-1.0,42.0,19.0,3.0,0.0,4.0,-7.0
1701719406.8938303,0.0,3.0,-26.0,-24.0,-15.0,-4.0,-10.0,-3.0
1701719406.8938303,-5.0,1.0,4.0,32.0,-4.0,3.0,4.0,-9.0
1701719406.9035902,0.0,7.0,10.0,-32.0,-1.0,-1.0,-10.0,4.0
1701719406.9035902,3.0,0.0,-83.0,2.0,3.0,4.0,21.0,0.0
1701719406.9136682,-2.0,9.0,75.0,13.0,0.0,-5.0,-15.0,-7.0
1701719406.9136682,-5.0,-6.0,-100.0,-61.0,-12.0,-20.0,-38.0,-5.0
1701719406.923525,-5.0,0.0,105.0,56.0,-4.0,8.0,21.0,2.0
1701719406.923525,10.0,7.0,-17.0,-31.0,-6.0,4.0,-7.0,-1.0
1701719406.9335232,-1.0,16.0,11.0,8.0,5.0,2.0,20.0,6.0
1701719406.9335232,0.0,-14.0,-44.0,4.0,-5.0,4.0,1.0,2.0
1701719406.9335232,2.0,9.0,9.0,-6.0,7.0,-8.0,-23.0,-16.0
1701719406.9335232,-3.0,-6.0,-71.0,-13.0,4.0,-2.0,-38.0,-6.0
1701719406.9535222,3.0,10.0,32.0,12.0,3.0,5.0,13.0,11.0
1701719406.9535222,-5.0,-9.0,-18.0,-22.0,-7.0,-2.0,12.0,-1.0
1701719406.9635243,1.0,3.0,-5.0,19.0,-1.0,-8.0,-34.0,-12.0
1701719406.9635243,3.0,8.0,61.0,10.0,2.0,9.0,0.0,-8.0
1701719406.9735239,-5.0,-11.0,-16.0,-12.0,-11.0,-6.0,-9.0,4.0
1701719406.9735239,5.0,9.0,33.0,6.0,10.0,4.0,18.0,1.0
1701719406.983524,4.0,-19.0,-38.0,-2.0,-8.0,-8.0,-1.0,2.0
1701719406.983524,0.0,-14.0,15.0,-2.0,1.0,-4.0,-16.0,6.0
1701719406.9935236,0.0,-1.0,6.0,9.0,3.0,10.0,37.0,7.0
1701719406.9935236,-5.0,-6.0,-25.0,-7.0,0.0,1.0,-29.0,-12.0
1701719406.9935236,3.0,18.0,-72.0,-16.0,7.0,-1.0,-4.0,8.0
1701719406.9935236,4.0,8.0,102.0,33.0,-2.0,-5.0,-1.0,-16.0
1701719407.013523,-2.0,-12.0,-123.0,-46.0,-5.0,-2.0,1.0,-4.0
1701719407.013523,5.0,28.0,65.0,-9.0,-21.0,-1.0,15.0,24.0
1701719407.0235264,-8.0,-29.0,32.0,48.0,35.0,0.0,-2.0,-8.0
1701719407.0235264,-10.0,-5.0,-44.0,-15.0,7.0,-3.0,6.0,-5.0
1701719407.0335255,-3.0,-5.0,27.0,11.0,-5.0,-4.0,-47.0,-3.0
1701719407.0335255,-1.0,5.0,39.0,16.0,7.0,-7.0,-13.0,-18.0
1701719407.043523,5.0,8.0,0.0,-32.0,-15.0,9.0,21.0,16.0
1701719407.043523,-8.0,4.0,17.0,0.0,-7.0,-5.0,20.0,-11.0
1701719407.0535972,-2.0,-1.0,-21.0,0.0,-5.0,0.0,17.0,8.0
1701719407.0535972,6.0,-13.0,-2.0,-6.0,3.0,0.0,-24.0,7.0
1701719407.0535972,-5.0,11.0,35.0,-13.0,-15.0,-3.0,3.0,-22.0
1701719407.0535972,-2.0,-8.0,-71.0,-3.0,9.0,-6.0,28.0,33.0
1701719407.0736485,8.0,6.0,23.0,-12.0,-15.0,-1.0,1.0,-8.0
1701719407.0736485,0.0,0.0,4.0,20.0,16.0,4.0,-50.0,-16.0
1701719407.0984414,-5.0,-15.0,-21.0,-4.0,-15.0,-6.0,7.0,6.0
1701719407.0984414,5.0,22.0,38.0,27.0,37.0,14.0,28.0,4.0
1701719407.101441,-6.0,-28.0,-39.0,-22.0,-1.0,-1.0,1.0,-1.0
1701719407.101441,6.0,15.0,15.0,-4.0,-4.0,1.0,22.0,8.0
1701719407.104468,1.0,4.0,-43.0,9.0,9.0,0.0,-11.0,0.0
1701719407.104468,0.0,0.0,-12.0,-10.0,-20.0,-6.0,-19.0,-9.0
1701719407.1163337,3.0,7.0,31.0,15.0,1.0,2.0,2.0,2.0
1701719407.1163337,-4.0,-9.0,30.0,0.0,17.0,-1.0,8.0,-6.0
1701719407.1163337,-3.0,0.0,-4.0,-3.0,-14.0,-8.0,-12.0,0.0
1701719407.1163337,0.0,-9.0,42.0,1.0,-2.0,2.0,-1.0,0.0
1701719407.1367204,-4.0,-1.0,-53.0,-5.0,-4.0,-2.0,-8.0,-5.0
1701719407.1367204,-2.0,15.0,-10.0,0.0,-6.0,-4.0,10.0,-2.0
1701719407.1367204,-5.0,14.0,-14.0,-32.0,-4.0,-2.0,4.0,5.0
1701719407.1367204,4.0,-12.0,35.0,18.0,-6.0,0.0,-6.0,2.0
1701719407.1563349,2.0,14.0,43.0,1.0,-2.0,-2.0,-2.0,-5.0
1701719407.1563349,-5.0,-2.0,-28.0,8.0,-1.0,-1.0,8.0,1.0
1701719407.1563349,-3.0,-22.0,-17.0,33.0,8.0,-2.0,14.0,-1.0
1701719407.1563349,3.0,11.0,-87.0,-72.0,-9.0,-4.0,-70.0,-12.0
1701719407.1766331,0.0,9.0,46.0,21.0,11.0,8.0,10.0,1.0
1701719407.1766331,-3.0,-19.0,-15.0,3.0,-3.0,-1.0,13.0,3.0
1701719407.1766331,-1.0,3.0,21.0,-3.0,-10.0,-4.0,3.0,3.0
1701719407.1766331,-1.0,-16.0,-44.0,1.0,-7.0,-3.0,-24.0,-11.0
1701719407.1963358,2.0,9.0,30.0,7.0,4.0,-12.0,-12.0,3.0
1701719407.1963358,2.0,-10.0,9.0,3.0,9.0,27.0,63.0,8.0
1701719407.2063327,-7.0,-1.0,10.0,2.0,-5.0,-8.0,20.0,-6.0
1701719407.2063327,1.0,2.0,25.0,3.0,-5.0,5.0,34.0,14.0
1701719407.2063327,0.0,3.0,-11.0,-1.0,0.0,-9.0,-32.0,-9.0
1701719407.2063327,-4.0,-5.0,9.0,5.0,-3.0,0.0,2.0,10.0
1701719407.2166092,-2.0,10.0,10.0,-8.0,3.0,3.0,-27.0,2.0
1701719407.2166092,-3.0,-4.0,-15.0,-12.0,-23.0,-11.0,32.0,9.0
1701719407.2367969,6.0,-3.0,1.0,17.0,35.0,6.0,-7.0,-3.0
1701719407.2367969,-7.0,-3.0,-48.0,-12.0,-15.0,-17.0,-12.0,-22.0
1701719407.2367969,9.0,9.0,32.0,4.0,23.0,9.0,-25.0,2.0
1701719407.2367969,-2.0,6.0,115.0,-13.0,-31.0,0.0,7.0,-11.0
1701719407.2567773,1.0,-16.0,-86.0,-3.0,21.0,-1.0,14.0,18.0
1701719407.2567773,-10.0,-26.0,64.0,-13.0,-18.0,-13.0,-32.0,-17.0
1701719407.2663352,5.0,7.0,39.0,24.0,11.0,6.0,13.0,27.0
1701719407.2663352,2.0,18.0,-13.0,-4.0,8.0,4.0,-7.0,-11.0
1701719407.2663352,1.0,8.0,34.0,3.0,-13.0,2.0,17.0,-10.0
1701719407.2663352,-2.0,-7.0,-58.0,-22.0,1.0,2.0,16.0,2.0
1701719407.2765024,-1.0,-1.0,-3.0,4.0,-12.0,-6.0,0.0,-5.0
1701719407.2765024,-4.0,-28.0,8.0,6.0,4.0,-4.0,-13.0,1.0
1701719407.2966807,-6.0,7.0,-10.0,14.0,-19.0,-5.0,-4.0,-5.0
1701719407.2966807,5.0,4.0,-41.0,-27.0,25.0,6.0,-7.0,9.0
1701719407.2966807,-1.0,5.0,31.0,28.0,1.0,-4.0,-13.0,-8.0
1701719407.2966807,-4.0,-17.0,-59.0,-14.0,11.0,-5.0,-4.0,-3.0
1701719407.3166823,2.0,2.0,70.0,24.0,-3.0,18.0,49.0,8.0
1701719407.3166823,2.0,3.0,-4.0,-24.0,-9.0,-6.0,-7.0,0.0
1701719407.3363376,-3.0,-6.0,-53.0,-3.0,-2.0,-3.0,-6.0,-7.0
1701719407.3363376,-3.0,-5.0,16.0,16.0,3.0,-3.0,-7.0,-4.0
1701719407.3463333,0.0,3.0,-39.0,-27.0,-11.0,-8.0,-24.0,0.0
1701719407.3463333,5.0,13.0,28.0,18.0,-3.0,1.0,9.0,5.0
1701719407.3463333,-5.0,-9.0,32.0,-25.0,-8.0,-2.0,-8.0,-12.0
1701719407.3463333,2.0,-3.0,-11.0,24.0,3.0,1.0,5.0,3.0
1701719407.3566165,-2.0,-4.0,-30.0,-31.0,-11.0,-3.0,-37.0,-10.0
1701719407.3566165,1.0,0.0,3.0,30.0,15.0,-4.0,-12.0,-6.0
1701719407.3566165,-1.0,6.0,20.0,14.0,-19.0,-4.0,-16.0,1.0
1701719407.3566165,1.0,10.0,3.0,-53.0,16.0,12.0,30.0,3.0
1701719407.3764122,3.0,-3.0,65.0,11.0,5.0,0.0,-2.0,1.0
1701719407.3764122,-14.0,-39.0,-62.0,-17.0,-12.0,-7.0,5.0,-1.0
1701719407.3764122,-1.0,18.0,1.0,12.0,3.0,-3.0,-10.0,2.0
1701719407.3764122,4.0,27.0,-4.0,23.0,-6.0,-5.0,2.0,-4.0
1701719407.4064293,-7.0,-45.0,59.0,1.0,6.0,6.0,12.0,3.0
1701719407.4064293,0.0,2.0,35.0,-5.0,-1.0,-8.0,-16.0,-7.0
1701719407.4064293,5.0,-2.0,-8.0,-13.0,-2.0,16.0,59.0,24.0
1701719407.4064293,-1.0,-8.0,-14.0,11.0,0.0,0.0,-39.0,-21.0
1701719407.416645,-6.0,18.0,5.0,-7.0,-1.0,0.0,29.0,3.0
1701719407.416645,1.0,16.0,-27.0,8.0,2.0,-3.0,-4.0,22.0
1701719407.416645,-7.0,-3.0,18.0,-20.0,-6.0,-5.0,-9.0,-23.0
1701719407.416645,-3.0,-23.0,-56.0,-27.0,-20.0,-14.0,-26.0,0.0
1701719407.4464126,5.0,13.0,26.0,18.0,18.0,-6.0,-28.0,0.0
1701719407.4464126,2.0,13.0,22.0,4.0,-4.0,5.0,16.0,-9.0
1701719407.4464126,-11.0,-10.0,-26.0,-6.0,6.0,13.0,-3.0,-20.0
1701719407.4464126,1.0,14.0,22.0,-9.0,-12.0,-4.0,11.0,13.0
1701719407.456515,2.0,-15.0,-42.0,11.0,9.0,-7.0,-5.0,-19.0
1701719407.456515,5.0,32.0,38.0,-1.0,4.0,-8.0,-4.0,17.0
1701719407.4664736,3.0,-35.0,-32.0,1.0,-1.0,-6.0,-15.0,-2.0
1701719407.4664736,-16.0,-8.0,22.0,11.0,6.0,11.0,14.0,-13.0
1701719407.476749,-5.0,-17.0,-36.0,-6.0,-1.0,-4.0,6.0,13.0
1701719407.476749,2.0,7.0,-1.0,16.0,4.0,10.0,-4.0,-6.0
1701719407.476749,-2.0,11.0,-18.0,-16.0,-7.0,-12.0,-29.0,-10.0
1701719407.476749,4.0,-18.0,28.0,14.0,-9.0,0.0,0.0,-1.0
1701719407.4964125,0.0,12.0,11.0,44.0,2.0,0.0,2.0,-2.0
1701719407.4964125,-12.0,-19.0,14.0,-32.0,2.0,0.0,2.0,-4.0
1701719407.506412,8.0,17.0,2.0,-3.0,4.0,0.0,-1.0,5.0
1701719407.506412,-3.0,-8.0,-21.0,6.0,11.0,0.0,15.0,5.0
1701719407.5168414,1.0,9.0,-41.0,-47.0,-31.0,-3.0,-4.0,3.0
1701719407.5168414,0.0,-16.0,-77.0,12.0,-3.0,0.0,3.0,-2.0
1701719407.5168414,-2.0,-14.0,-5.0,-20.0,-1.0,-1.0,-8.0,2.0
1701719407.5168414,3.0,17.0,14.0,17.0,6.0,2.0,18.0,2.0
1701719407.53725,-5.0,-10.0,-5.0,7.0,-6.0,-2.0,-10.0,-6.0
1701719407.53725,0.0,12.0,27.0,1.0,0.0,7.0,2.0,0.0
1701719407.53725,-9.0,-9.0,23.0,-3.0,-1.0,-1.0,8.0,0.0
1701719407.53725,-3.0,-8.0,-52.0,-3.0,-7.0,-8.0,-20.0,2.0
1701719407.5568516,-4.0,-7.0,-73.0,-12.0,2.0,2.0,27.0,-1.0
1701719407.5568516,-2.0,0.0,33.0,41.0,2.0,-8.0,-5.0,2.0
1701719407.5568516,5.0,16.0,-22.0,-37.0,-7.0,9.0,11.0,0.0
1701719407.5568516,5.0,1.0,89.0,11.0,9.0,3.0,9.0,7.0
1701719407.5772147,-3.0,1.0,-84.0,-31.0,-8.0,-1.0,10.0,2.0
1701719407.5772147,-4.0,0.0,102.0,9.0,0.0,-5.0,-43.0,-11.0
1701719407.5772147,0.0,-1.0,-37.0,4.0,-17.0,-10.0,-10.0,-8.0
1701719407.5772147,-1.0,1.0,-1.0,3.0,18.0,1.0,24.0,13.0
1701719407.5968525,-6.0,-16.0,32.0,7.0,13.0,2.0,-12.0,-3.0
1701719407.5968525,2.0,-5.0,-5.0,5.0,-2.0,-6.0,-7.0,-11.0
1701719407.5968525,-4.0,-18.0,-37.0,0.0,1.0,2.0,7.0,7.0
1701719407.5968525,0.0,3.0,8.0,-11.0,-7.0,5.0,1.0,-1.0
1701719407.6221182,1.0,5.0,36.0,9.0,-5.0,-3.0,8.0,-2.0
1701719407.6221182,-1.0,-5.0,-12.0,-15.0,-2.0,6.0,37.0,1.0
1701719407.6236308,-4.0,0.0,-23.0,-1.0,-2.0,-7.0,-24.0,7.0
1701719407.6236308,0.0,18.0,-15.0,13.0,3.0,1.0,0.0,-5.0
1701719407.644859,3.0,12.0,11.0,-11.0,-20.0,-7.0,-9.0,-17.0
1701719407.644859,0.0,-16.0,-32.0,7.0,11.0,-1.0,-8.0,-11.0
1701719407.64608,-4.0,4.0,69.0,6.0,7.0,-13.0,4.0,-1.0
1701719407.64608,12.0,8.0,-10.0,22.0,0.0,-1.0,-26.0,-7.0
1701719407.6588101,-8.0,-3.0,29.0,-15.0,-1.0,0.0,16.0,-5.0
1701719407.6588101,-7.0,15.0,-58.0,-38.0,-18.0,-1.0,-30.0,8.0
1701719407.6588101,5.0,4.0,3.0,30.0,26.0,9.0,23.0,-6.0
1701719407.6588101,-8.0,-25.0,-34.0,-6.0,-3.0,-3.0,-4.0,-3.0
1701719407.679196,5.0,9.0,15.0,-16.0,-17.0,-2.0,-29.0,-10.0
1701719407.679196,6.0,8.0,30.0,20.0,-9.0,2.0,20.0,3.0
1701719407.679196,-6.0,-5.0,-21.0,-24.0,-11.0,-4.0,-2.0,7.0
1701719407.679196,7.0,38.0,18.0,-8.0,-2.0,-3.0,-8.0,-2.0
1701719407.6991897,2.0,-8.0,2.0,10.0,5.0,0.0,-1.0,9.0
1701719407.6991897,-9.0,-8.0,-35.0,-24.0,-6.0,-1.0,6.0,-2.0
1701719407.6991897,7.0,9.0,49.0,23.0,-5.0,3.0,-1.0,-1.0
1701719407.6991897,-4.0,-6.0,2.0,-22.0,-8.0,-7.0,-2.0,-7.0
1701719407.7188108,2.0,2.0,16.0,19.0,20.0,3.0,2.0,6.0
1701719407.7188108,-7.0,-8.0,-14.0,-12.0,3.0,-1.0,0.0,-2.0
1701719407.7188108,3.0,-4.0,9.0,10.0,-7.0,-3.0,-6.0,-5.0
1701719407.7188108,-8.0,-14.0,-9.0,7.0,2.0,0.0,-2.0,-4.0
1701719407.7391207,-6.0,-5.0,-27.0,-10.0,-2.0,-5.0,-16.0,5.0
1701719407.7391207,4.0,-6.0,-15.0,-13.0,0.0,8.0,4.0,-1.0
1701719407.7391207,-5.0,0.0,-21.0,-6.0,2.0,3.0,24.0,-6.0
1701719407.7391207,4.0,-21.0,-51.0,-36.0,-7.0,-9.0,-46.0,-3.0
1701719407.75904,0.0,24.0,52.0,12.0,-4.0,-8.0,-6.0,4.0
1701719407.75904,2.0,-29.0,-37.0,6.0,-1.0,-3.0,-4.0,2.0
1701719407.75904,2.0,12.0,38.0,24.0,3.0,9.0,25.0,7.0
1701719407.75904,-3.0,-3.0,-5.0,-18.0,7.0,4.0,3.0,-4.0
1701719407.7888143,2.0,-1.0,33.0,-12.0,-1.0,-4.0,-7.0,-3.0
1701719407.7888143,-4.0,-1.0,-7.0,-13.0,-4.0,-11.0,-14.0,-9.0
1701719407.7888143,3.0,-6.0,-25.0,6.0,2.0,-2.0,29.0,14.0
1701719407.7888143,-5.0,-6.0,21.0,12.0,1.0,-2.0,-25.0,-9.0
1701719407.798841,-3.0,-3.0,18.0,6.0,1.0,7.0,24.0,10.0
1701719407.798841,1.0,2.0,22.0,4.0,3.0,1.0,-26.0,-21.0
1701719407.798841,-3.0,-4.0,6.0,-3.0,-2.0,-8.0,-9.0,5.0
1701719407.798841,-2.0,7.0,-31.0,1.0,-5.0,-5.0,27.0,12.0
1701719407.818813,-3.0,1.0,-33.0,-8.0,1.0,-5.0,-12.0,-9.0
1701719407.818813,7.0,14.0,2.0,5.0,-4.0,11.0,31.0,-2.0
1701719407.818813,1.0,7.0,-8.0,-28.0,-2.0,-5.0,-42.0,11.0
1701719407.818813,4.0,7.0,60.0,16.0,6.0,6.0,18.0,0.0
1701719407.83897,-7.0,-13.0,-30.0,16.0,1.0,1.0,8.0,-5.0
1701719407.83897,-5.0,-8.0,47.0,7.0,-2.0,1.0,5.0,10.0
1701719407.83897,7.0,9.0,-6.0,-17.0,15.0,-7.0,-32.0,-13.0
1701719407.83897,3.0,0.0,26.0,7.0,-12.0,-1.0,7.0,-8.0
1701719407.8591142,-8.0,-18.0,-16.0,8.0,23.0,4.0,27.0,9.0
1701719407.8591142,-1.0,15.0,3.0,-1.0,-14.0,-9.0,-35.0,1.0
1701719407.8591142,-7.0,-26.0,16.0,10.0,-1.0,2.0,1.0,-19.0
1701719407.8591142,-9.0,18.0,-78.0,-27.0,-26.0,-9.0,-2.0,21.0
1701719407.8790429,-3.0,4.0,-19.0,14.0,12.0,15.0,-1.0,-3.0
1701719407.8790429,0.0,-19.0,26.0,6.0,27.0,0.0,12.0,5.0
1701719407.8790429,-5.0,-13.0,-15.0,-10.0,-16.0,-5.0,-19.0,-11.0
1701719407.8790429,5.0,5.0,4.0,25.0,14.0,5.0,11.0,1.0
1701719407.9088104,-3.0,6.0,32.0,-24.0,-20.0,-5.0,-10.0,-10.0
1701719407.9088104,3.0,19.0,-26.0,8.0,3.0,-5.0,2.0,15.0
1701719407.9088104,1.0,5.0,38.0,7.0,3.0,-2.0,8.0,10.0
1701719407.9088104,-7.0,-15.0,-42.0,-5.0,-8.0,-5.0,-19.0,-9.0
1701719407.9188097,1.0,-7.0,-8.0,-9.0,-2.0,1.0,2.0,-2.0
1701719407.9188097,-5.0,0.0,-9.0,-19.0,-3.0,-1.0,-6.0,-3.0
1701719407.9188097,1.0,-10.0,-8.0,-29.0,-1.0,9.0,33.0,-1.0
1701719407.9188097,1.0,6.0,46.0,6.0,12.0,2.0,0.0,2.0
1701719407.9388099,1.0,-4.0,-16.0,12.0,-11.0,-9.0,-12.0,5.0
1701719407.9388099,2.0,-4.0,48.0,-10.0,-2.0,-2.0,2.0,-14.0
1701719407.9388099,-4.0,-2.0,-73.0,-5.0,-44.0,-9.0,-13.0,-3.0
1701719407.9388099,-2.0,-4.0,47.0,20.0,42.0,6.0,0.0,5.0
1701719407.9588134,-1.0,2.0,7.0,7.0,6.0,-2.0,-5.0,-9.0
1701719407.9588134,-4.0,-9.0,-5.0,7.0,-19.0,-7.0,3.0,-1.0
1701719407.9588134,-3.0,7.0,31.0,-24.0,-5.0,1.0,-2.0,1.0
1701719407.9588134,1.0,1.0,42.0,11.0,9.0,0.0,10.0,-3.0
1701719407.9788156,-3.0,-6.0,-47.0,11.0,6.0,-5.0,-23.0,-11.0
1701719407.9788156,0.0,-2.0,-39.0,-11.0,-4.0,4.0,1.0,5.0
1701719407.9788156,-5.0,-6.0,14.0,-10.0,0.0,-7.0,2.0,1.0
1701719407.9788156,-3.0,-19.0,9.0,5.0,-5.0,-4.0,-25.0,-14.0
1701719408.008811,-3.0,-13.0,0.0,-31.0,-8.0,2.0,3.0,1.0
1701719408.008811,0.0,1.0,10.0,8.0,3.0,-3.0,1.0,7.0
1701719408.008811,0.0,-4.0,-22.0,15.0,8.0,4.0,8.0,-3.0
1701719408.008811,4.0,-4.0,6.0,3.0,-4.0,6.0,54.0,5.0
1701719408.008811,0.0,16.0,78.0,19.0,-7.0,-5.0,-24.0,3.0
1701719408.008811,-6.0,-36.0,-99.0,-23.0,-1.0,3.0,6.0,-18.0
1701719408.0188408,7.0,-5.0,46.0,20.0,14.0,4.0,6.0,24.0
1701719408.0188408,2.0,0.0,-20.0,-1.0,-4.0,-2.0,15.0,13.0
1701719408.0391138,8.0,12.0,39.0,-6.0,-9.0,-5.0,-13.0,-8.0
1701719408.0391138,-2.0,-7.0,-5.0,-2.0,2.0,-1.0,-8.0,-10.0
1701719408.0391138,-4.0,17.0,32.0,26.0,9.0,0.0,4.0,-8.0
1701719408.0391138,-2.0,-9.0,-21.0,-3.0,5.0,5.0,-4.0,-5.0
1701719408.0588138,4.0,1.0,-75.0,-34.0,-2.0,1.0,-11.0,3.0
1701719408.0588138,-6.0,-8.0,34.0,26.0,-5.0,-9.0,-12.0,-8.0
1701719408.0588138,-1.0,14.0,-55.0,-39.0,-12.0,-5.0,-8.0,-5.0
1701719408.0588138,-4.0,-9.0,16.0,35.0,9.0,0.0,-5.0,-1.0
1701719408.0788126,-4.0,7.0,8.0,16.0,16.0,1.0,13.0,0.0
1701719408.0788126,6.0,21.0,72.0,-4.0,1.0,1.0,8.0,10.0
1701719408.0892353,-2.0,1.0,2.0,23.0,17.0,1.0,-18.0,-8.0
1701719408.0892353,0.0,5.0,-69.0,-44.0,-19.0,-5.0,-11.0,-4.0
1701719408.0988133,0.0,-15.0,25.0,-1.0,-21.0,-1.0,7.0,1.0
1701719408.0988133,1.0,8.0,-48.0,1.0,-11.0,-5.0,-1.0,2.0
1701719408.10881,-3.0,-9.0,62.0,40.0,18.0,2.0,4.0,-1.0
1701719408.10881,-4.0,11.0,38.0,-22.0,-7.0,-7.0,-17.0,-8.0
1701719408.119106,2.0,2.0,-30.0,-23.0,-11.0,3.0,14.0,5.0
1701719408.119106,-2.0,4.0,-29.0,8.0,1.0,-2.0,-5.0,-7.0
1701719408.119106,-2.0,-5.0,-27.0,-14.0,-15.0,-8.0,-2.0,2.0
1701719408.119106,-5.0,-7.0,21.0,8.0,-3.0,-1.0,-15.0,-10.0
1701719408.138812,3.0,17.0,13.0,3.0,0.0,0.0,-12.0,-12.0
1701719408.138812,-2.0,-2.0,-18.0,-12.0,-2.0,-5.0,-4.0,12.0
1701719408.138812,-1.0,-10.0,-27.0,-2.0,-2.0,-1.0,9.0,-5.0
1701719408.138812,-5.0,7.0,-11.0,1.0,-8.0,-9.0,-6.0,4.0
1701719408.1684246,0.0,-3.0,-14.0,-4.0,1.0,-4.0,0.0,-10.0
1701719408.1684246,2.0,23.0,29.0,0.0,7.0,10.0,2.0,7.0
1701719408.1694236,4.0,-15.0,4.0,7.0,5.0,21.0,26.0,0.0
1701719408.1694236,3.0,13.0,29.0,4.0,1.0,-5.0,3.0,5.0
1701719408.1819959,-2.0,14.0,6.0,5.0,4.0,-4.0,-11.0,-4.0
1701719408.1819959,-4.0,9.0,-53.0,-25.0,-4.0,-10.0,3.0,-13.0
1701719408.1819959,-1.0,-6.0,17.0,12.0,-12.0,-4.0,-14.0,-11.0
1701719408.1819959,6.0,14.0,26.0,-15.0,8.0,10.0,-19.0,-40.0
1701719408.1922328,-6.0,-25.0,14.0,3.0,-11.0,-7.0,32.0,55.0
1701719408.1922328,1.0,-2.0,28.0,0.0,-12.0,-6.0,-12.0,-8.0
1701719408.201998,-5.0,-8.0,-41.0,-5.0,14.0,-1.0,-19.0,-3.0
1701719408.201998,-1.0,-12.0,-31.0,-22.0,-11.0,-3.0,5.0,-11.0
1701719408.2219963,-4.0,2.0,10.0,6.0,5.0,-3.0,2.0,-11.0
1701719408.2219963,-5.0,-7.0,14.0,-13.0,-19.0,-13.0,-64.0,-1.0
1701719408.2219963,-4.0,7.0,-15.0,-14.0,-7.0,15.0,55.0,11.0
1701719408.2219963,0.0,6.0,-1.0,9.0,5.0,5.0,26.0,13.0
1701719408.2422528,-2.0,-20.0,-14.0,-11.0,-10.0,-4.0,-16.0,-14.0
1701719408.2422528,4.0,1.0,10.0,3.0,4.0,-3.0,10.0,4.0
1701719408.2422528,-4.0,-8.0,-5.0,-2.0,-5.0,-16.0,-37.0,-12.0
1701719408.2422528,3.0,-10.0,-26.0,-12.0,-3.0,0.0,-11.0,6.0
1701719408.2522423,5.0,17.0,33.0,25.0,12.0,14.0,26.0,1.0
1701719408.2522423,-6.0,-23.0,-5.0,-16.0,-9.0,-11.0,-10.0,-5.0
1701719408.261998,-2.0,15.0,-13.0,6.0,-8.0,-4.0,-7.0,0.0
1701719408.261998,-12.0,-24.0,8.0,-9.0,28.0,2.0,9.0,5.0
1701719408.281993,1.0,-11.0,55.0,-14.0,-5.0,-4.0,-14.0,-5.0
1701719408.281993,3.0,0.0,2.0,29.0,33.0,17.0,27.0,4.0
1701719408.2919896,6.0,12.0,1.0,-24.0,-27.0,-2.0,-3.0,3.0
1701719408.2919896,-7.0,-12.0,46.0,10.0,-15.0,-7.0,-3.0,1.0
1701719408.302343,-1.0,0.0,-33.0,9.0,-13.0,-4.0,-11.0,-5.0
1701719408.302343,8.0,26.0,65.0,9.0,16.0,10.0,23.0,9.0
1701719408.302343,-8.0,-48.0,-74.0,-39.0,-25.0,-9.0,-9.0,-9.0
1701719408.302343,-2.0,1.0,-1.0,49.0,38.0,-1.0,-14.0,1.0
1701719408.3120518,0.0,11.0,-14.0,-19.0,-5.0,-4.0,1.0,-5.0
1701719408.3120518,3.0,-9.0,-3.0,-11.0,-21.0,-3.0,11.0,2.0
1701719408.3219926,8.0,17.0,0.0,-10.0,5.0,-1.0,-11.0,-2.0
1701719408.3219926,3.0,7.0,3.0,7.0,-16.0,0.0,-1.0,-1.0
1701719408.3422132,-6.0,-7.0,0.0,-15.0,10.0,4.0,7.0,-28.0
1701719408.3422132,-4.0,-3.0,-9.0,-2.0,-3.0,-7.0,-22.0,30.0
1701719408.3422132,1.0,1.0,13.0,14.0,17.0,-2.0,7.0,-1.0
1701719408.3422132,-3.0,5.0,-33.0,-13.0,-20.0,-15.0,-32.0,-6.0
1701719408.381991,1.0,2.0,-5.0,4.0,0.0,-6.0,-70.0,-31.0
1701719408.381991,1.0,-12.0,-4.0,17.0,11.0,30.0,105.0,24.0
1701719408.381991,6.0,17.0,9.0,21.0,20.0,29.0,66.0,13.0
1701719408.381991,-1.0,2.0,-3.0,6.0,-3.0,10.0,62.0,23.0
1701719408.381991,5.0,-4.0,-46.0,-8.0,-3.0,-6.0,-10.0,18.0
1701719408.381991,-5.0,-2.0,26.0,-12.0,3.0,-10.0,-36.0,-29.0
1701719408.381991,-4.0,5.0,52.0,39.0,1.0,-4.0,-20.0,5.0
1701719408.381991,-1.0,-8.0,-18.0,-62.0,-17.0,-10.0,-5.0,-14.0
1701719408.4020362,-7.0,-12.0,40.0,6.0,-1.0,9.0,21.0,3.0
1701719408.4020362,2.0,5.0,-27.0,49.0,-31.0,-3.0,1.0,4.0
1701719408.4020362,-8.0,-10.0,15.0,-23.0,34.0,-4.0,-17.0,-15.0
1701719408.4020362,2.0,-2.0,13.0,-39.0,15.0,-3.0,-28.0,-2.0
1701719408.4222066,2.0,15.0,57.0,26.0,-8.0,-7.0,5.0,8.0
1701719408.4222066,-8.0,-17.0,-57.0,-38.0,-9.0,0.0,-8.0,-9.0
1701719408.4222066,-4.0,-2.0,41.0,20.0,-8.0,-7.0,-15.0,-1.0
1701719408.4222066,-1.0,-10.0,-32.0,-17.0,-37.0,-7.0,-13.0,-3.0
1701719408.451992,2.0,-6.0,-104.0,-14.0,38.0,6.0,22.0,16.0
1701719408.451992,4.0,18.0,31.0,24.0,18.0,3.0,6.0,-8.0
1701719408.451992,-4.0,-4.0,-5.0,-10.0,-12.0,-11.0,-22.0,-4.0
1701719408.451992,0.0,0.0,-8.0,-4.0,-12.0,3.0,7.0,8.0
1701719408.451992,1.0,-8.0,6.0,-7.0,-8.0,0.0,6.0,-1.0
1701719408.451992,-4.0,0.0,-15.0,10.0,10.0,-4.0,-17.0,-10.0
1701719408.4619899,2.0,6.0,-17.0,-10.0,0.0,-5.0,-11.0,-2.0
1701719408.4619899,1.0,17.0,-5.0,9.0,6.0,-7.0,-29.0,-4.0
1701719408.4824166,-6.0,-4.0,-6.0,-6.0,-14.0,-1.0,15.0,5.0
1701719408.4824166,-5.0,-9.0,1.0,-7.0,11.0,16.0,18.0,5.0
1701719408.4824166,-1.0,-5.0,-8.0,-9.0,-7.0,-6.0,-12.0,1.0
1701719408.4824166,2.0,3.0,19.0,22.0,-5.0,-6.0,-2.0,-8.0
1701719408.5019913,5.0,-6.0,-42.0,2.0,4.0,3.0,31.0,-5.0
1701719408.5019913,-9.0,-1.0,15.0,-20.0,-5.0,-12.0,-30.0,20.0
1701719408.5019913,-4.0,0.0,-8.0,-5.0,-2.0,6.0,-9.0,-17.0
1701719408.5019913,0.0,5.0,-3.0,17.0,-1.0,1.0,20.0,13.0
1701719408.5219927,-6.0,-2.0,10.0,5.0,1.0,10.0,-12.0,-15.0
1701719408.5219927,1.0,3.0,10.0,-5.0,6.0,8.0,84.0,4.0
1701719408.5219927,10.0,5.0,5.0,3.0,-6.0,-7.0,-62.0,10.0
1701719408.5219927,5.0,-1.0,-3.0,14.0,9.0,-2.0,-5.0,-15.0
1701719408.542186,-7.0,-5.0,21.0,1.0,-3.0,-1.0,-27.0,2.0
1701719408.542186,14.0,8.0,-23.0,-11.0,-7.0,-4.0,4.0,-8.0
1701719408.5519927,-5.0,-23.0,-18.0,-12.0,-1.0,-8.0,-5.0,-2.0
1701719408.5519927,-29.0,-10.0,15.0,6.0,-1.0,8.0,1.0,0.0
1701719408.562225,4.0,1.0,-6.0,-2.0,-3.0,-9.0,21.0,7.0
1701719408.562225,-8.0,0.0,2.0,14.0,-2.0,3.0,-23.0,-8.0
1701719408.562225,9.0,4.0,-16.0,-7.0,1.0,4.0,35.0,10.0
1701719408.562225,6.0,-4.0,5.0,-2.0,1.0,-7.0,-20.0,1.0
1701719408.5722148,-4.0,6.0,43.0,13.0,0.0,1.0,-11.0,-4.0
1701719408.5820026,-12.0,-13.0,-59.0,-23.0,-5.0,-13.0,-36.0,-15.0
1701719408.5820026,-7.0,-5.0,14.0,5.0,-2.0,-5.0,-7.0,-10.0
1701719408.5820026,5.0,10.0,0.0,10.0,3.0,16.0,31.0,0.0
1701719408.6219914,-7.0,-4.0,-3.0,-15.0,-4.0,-9.0,-2.0,8.0
1701719408.6219914,5.0,-6.0,-10.0,8.0,-4.0,-6.0,-17.0,-3.0
1701719408.6219914,1.0,15.0,22.0,1.0,1.0,3.0,16.0,0.0
1701719408.6219914,-5.0,-10.0,-5.0,-22.0,-25.0,-11.0,-9.0,-1.0
1701719408.6219914,4.0,9.0,26.0,42.0,34.0,4.0,0.0,0.0
1701719408.6219914,2.0,-8.0,21.0,6.0,6.0,2.0,-13.0,-6.0
1701719408.6219914,-7.0,-8.0,-69.0,-42.0,-24.0,-5.0,10.0,3.0
1701719408.6219914,3.0,15.0,12.0,23.0,30.0,2.0,3.0,-1.0
1701719408.6321735,4.0,1.0,8.0,-12.0,-16.0,1.0,3.0,-2.0
1701719408.6321735,4.0,2.0,28.0,4.0,-1.0,0.0,-5.0,-2.0
1701719408.6420026,-6.0,-1.0,2.0,-5.0,-6.0,-7.0,-5.0,0.0
1701719408.6420026,10.0,-9.0,-18.0,1.0,-2.0,1.0,-1.0,1.0
1701719408.6719952,0.0,-9.0,-19.0,-9.0,0.0,7.0,3.0,8.0
1701719408.6719952,1.0,18.0,3.0,11.0,2.0,-6.0,-17.0,-14.0
1701719408.6719952,-2.0,-2.0,22.0,10.0,13.0,10.0,40.0,7.0
1701719408.6719952,1.0,3.0,-3.0,-6.0,-10.0,-14.0,-41.0,30.0
1701719408.6869156,-5.0,-4.0,-7.0,7.0,8.0,9.0,35.0,-9.0
1701719408.6869156,-4.0,-14.0,2.0,-17.0,-8.0,-6.0,6.0,5.0
1701719408.6889315,2.0,2.0,84.0,29.0,-7.0,-2.0,1.0,-15.0
1701719408.6889315,-13.0,-22.0,-84.0,-43.0,4.0,0.0,0.0,-17.0
1701719408.7009335,1.0,-11.0,-9.0,2.0,1.0,-8.0,-14.0,10.0
1701719408.7009335,4.0,22.0,43.0,0.0,-7.0,-4.0,-10.0,-6.0
1701719408.7101038,0.0,3.0,1.0,-9.0,-2.0,-2.0,-6.0,1.0
1701719408.7101038,-4.0,-17.0,33.0,12.0,-5.0,2.0,37.0,6.0
1701719408.7347677,-11.0,7.0,-36.0,-14.0,-8.0,-6.0,-37.0,-21.0
1701719408.7347677,8.0,-7.0,14.0,-4.0,5.0,2.0,-5.0,18.0
1701719408.7347677,-1.0,7.0,-18.0,9.0,0.0,-9.0,-38.0,-19.0
1701719408.7347677,7.0,-3.0,-1.0,-1.0,-9.0,8.0,10.0,4.0
1701719408.7449553,-3.0,1.0,-13.0,-15.0,-4.0,-8.0,10.0,-22.0
1701719408.7449553,-11.0,1.0,-18.0,1.0,-2.0,-3.0,7.0,13.0
1701719408.7449553,-5.0,-2.0,23.0,-9.0,-6.0,0.0,-1.0,0.0
1701719408.7449553,-4.0,4.0,-25.0,7.0,10.0,-3.0,-14.0,-12.0
1701719408.7549908,6.0,4.0,-39.0,-5.0,-6.0,-4.0,-12.0,-5.0
1701719408.7549908,-9.0,-17.0,11.0,4.0,3.0,7.0,-2.0,-9.0
1701719408.784764,3.0,-4.0,52.0,11.0,-3.0,1.0,31.0,11.0
1701719408.784764,0.0,-5.0,19.0,-37.0,-15.0,-3.0,-3.0,-10.0
1701719408.784764,-2.0,-3.0,47.0,9.0,23.0,2.0,9.0,11.0
1701719408.784764,-3.0,0.0,54.0,20.0,6.0,-7.0,-21.0,-7.0
1701719408.784764,0.0,0.0,-50.0,2.0,5.0,-1.0,-5.0,-5.0
1701719408.784764,2.0,12.0,67.0,43.0,-1.0,13.0,7.0,8.0
1701719408.8051298,3.0,13.0,-55.0,-66.0,-17.0,-9.0,-28.0,0.0
1701719408.8051298,-6.0,-7.0,43.0,-8.0,-8.0,-2.0,2.0,-13.0
1701719408.8051298,-1.0,-2.0,43.0,28.0,3.0,-8.0,1.0,-3.0
1701719408.8051298,0.0,-2.0,-62.0,-11.0,-11.0,-9.0,-23.0,-9.0
1701719408.8150063,-6.0,-7.0,35.0,28.0,-1.0,7.0,27.0,17.0
1701719408.8150063,10.0,-1.0,-50.0,-5.0,5.0,0.0,-8.0,-6.0
1701719408.8250563,-5.0,6.0,-46.0,-7.0,0.0,0.0,11.0,-3.0
1701719408.8250563,-1.0,-5.0,53.0,29.0,3.0,-5.0,-7.0,-8.0
1701719408.8347692,-3.0,-16.0,1.0,-13.0,-2.0,2.0,7.0,3.0
1701719408.8347692,-4.0,2.0,-7.0,-3.0,1.0,2.0,10.0,8.0
1701719408.8447657,5.0,-7.0,-34.0,-28.0,-22.0,-6.0,-19.0,-2.0
1701719408.8447657,-2.0,0.0,18.0,33.0,37.0,7.0,21.0,14.0
1701719408.865222,6.0,-36.0,29.0,-4.0,-5.0,4.0,1.0,2.0
1701719408.865222,-5.0,-14.0,-14.0,1.0,1.0,-9.0,-24.0,-12.0
1701719408.865222,-4.0,2.0,16.0,-7.0,4.0,8.0,46.0,5.0
1701719408.865222,5.0,-5.0,-18.0,-18.0,-16.0,-4.0,1.0,14.0
1701719408.8756294,-6.0,9.0,25.0,13.0,-17.0,-7.0,-23.0,6.0
1701719408.8756294,5.0,-1.0,-25.0,-1.0,11.0,0.0,-4.0,-1.0
1701719408.8852358,-6.0,-9.0,6.0,4.0,-8.0,0.0,2.0,-6.0
1701719408.8852358,6.0,-15.0,-61.0,-10.0,24.0,5.0,25.0,4.0
1701719408.9052374,-3.0,13.0,0.0,15.0,-1.0,-2.0,-15.0,-5.0
1701719408.9052374,-12.0,7.0,13.0,-14.0,-19.0,-7.0,-5.0,1.0
1701719408.9052374,1.0,3.0,-19.0,-5.0,3.0,2.0,-28.0,-16.0
1701719408.9052374,5.0,30.0,13.0,-25.0,-44.0,-12.0,-1.0,18.0
1701719408.9255698,9.0,19.0,28.0,36.0,52.0,8.0,16.0,10.0
