1701798822.3744202,3.0,4.0,6.0,-3.0,0.0,-1.0,-6.0,-2.0
1701798822.3744202,1.0,10.0,10.0,-1.0,3.0,2.0,1.0,-2.0
1701798822.3744202,-1.0,-6.0,-11.0,2.0,-1.0,-2.0,1.0,2.0
1701798822.3744202,-3.0,-7.0,-12.0,-7.0,-3.0,-4.0,-2.0,-2.0
1701798822.3944058,5.0,2.0,0.0,-2.0,-3.0,0.0,4.0,4.0
1701798822.3944058,-10.0,3.0,4.0,1.0,0.0,1.0,3.0,-3.0
1701798822.3944058,2.0,-3.0,-1.0,-7.0,-4.0,-3.0,-2.0,0.0
1701798822.3944058,4.0,8.0,3.0,4.0,3.0,0.0,-1.0,4.0
1701798822.404497,-2.0,-8.0,-1.0,5.0,3.0,1.0,-2.0,-6.0
1701798822.404497,-3.0,-1.0,-4.0,-9.0,-5.0,0.0,-1.0,-3.0
1701798822.404497,0.0,-2.0,-7.0,-2.0,-4.0,-1.0,0.0,2.0
1701798822.404497,3.0,1.0,3.0,0.0,2.0,-1.0,-1.0,1.0
1701798822.4344196,-1.0,4.0,-2.0,1.0,-3.0,-3.0,0.0,1.0
1701798822.4344196,-2.0,1.0,-4.0,-2.0,-2.0,-4.0,-3.0,-9.0
1701798822.4344196,-6.0,-3.0,-2.0,-1.0,-2.0,-4.0,-3.0,9.0
1701798822.4344196,0.0,-1.0,14.0,-3.0,-3.0,0.0,-3.0,-2.0
1701798822.4444892,-7.0,-4.0,-11.0,-5.0,0.0,0.0,1.0,-3.0
1701798822.4444892,0.0,-1.0,0.0,7.0,2.0,1.0,0.0,0.0
1701798822.4444892,0.0,1.0,-7.0,-9.0,-6.0,-5.0,-6.0,-3.0
1701798822.4444892,0.0,-1.0,-1.0,4.0,5.0,5.0,6.0,5.0
1701798822.4694955,-1.0,-1.0,17.0,3.0,2.0,-3.0,-1.0,0.0
1701798822.4694955,1.0,-5.0,-15.0,-12.0,-5.0,-3.0,-4.0,-1.0
1701798822.4704425,0.0,3.0,10.0,2.0,0.0,-3.0,-2.0,-4.0
1701798822.4704425,-3.0,0.0,4.0,2.0,-5.0,-4.0,-3.0,-3.0
1701798822.4907293,-2.0,4.0,24.0,2.0,3.0,6.0,3.0,1.0
1701798822.4907293,-3.0,-7.0,-11.0,-6.0,-5.0,-7.0,-5.0,-3.0
1701798822.4907293,-1.0,9.0,38.0,15.0,8.0,11.0,12.0,5.0
1701798822.4907293,-2.0,-17.0,-71.0,-24.0,-10.0,-12.0,-15.0,-5.0
1701798822.5009298,1.0,4.0,28.0,7.0,2.0,2.0,1.0,1.0
1701798822.5009298,0.0,5.0,22.0,15.0,1.0,4.0,2.0,0.0
1701798822.5009298,1.0,2.0,17.0,15.0,5.0,3.0,-5.0,-4.0
1701798822.5009298,-5.0,-10.0,-1.0,-32.0,-12.0,-6.0,4.0,-1.0
1701798822.5306268,3.0,-9.0,-42.0,-5.0,-7.0,-8.0,-5.0,1.0
1701798822.5306268,3.0,-2.0,-22.0,-6.0,-2.0,-3.0,-5.0,1.0
1701798822.5306268,-2.0,-8.0,0.0,-8.0,-13.0,-8.0,-6.0,-5.0
1701798822.5306268,-1.0,3.0,42.0,32.0,8.0,6.0,1.0,0.0
1701798822.5506582,-2.0,3.0,-39.0,-7.0,6.0,10.0,5.0,1.0
1701798822.5506582,-3.0,-6.0,15.0,-7.0,2.0,4.0,1.0,-3.0
1701798822.5506582,6.0,5.0,7.0,7.0,4.0,0.0,-1.0,1.0
1701798822.5506582,0.0,1.0,-10.0,-11.0,-4.0,-5.0,0.0,-1.0
1701798822.5608523,-1.0,0.0,29.0,7.0,-10.0,-10.0,-6.0,-3.0
1701798822.5608523,4.0,9.0,21.0,13.0,5.0,3.0,1.0,3.0
1701798822.5608523,-2.0,-1.0,-9.0,-11.0,1.0,2.0,1.0,0.0
1701798822.5608523,4.0,4.0,16.0,12.0,4.0,3.0,1.0,-1.0
1701798822.5909197,-7.0,-16.0,-89.0,-22.0,-12.0,-8.0,-5.0,-6.0
1701798822.5909197,0.0,-6.0,-20.0,-2.0,-2.0,-3.0,1.0,1.0
1701798822.5909197,-2.0,-1.0,1.0,8.0,-1.0,-7.0,-4.0,-2.0
1701798822.5909197,-5.0,-6.0,-15.0,-10.0,-1.0,1.0,1.0,-1.0
1701798822.611318,0.0,5.0,31.0,7.0,5.0,4.0,1.0,-3.0
1701798822.611318,-2.0,-2.0,-17.0,-9.0,-1.0,-3.0,-13.0,-5.0
1701798822.611318,-2.0,-2.0,-4.0,-2.0,-4.0,1.0,8.0,4.0
1701798822.611318,4.0,6.0,3.0,9.0,6.0,6.0,6.0,3.0
1701798822.6212213,-4.0,0.0,8.0,-4.0,-1.0,0.0,2.0,0.0
1701798822.6212213,-4.0,-6.0,1.0,11.0,1.0,-2.0,1.0,0.0
1701798822.6212213,-1.0,1.0,-6.0,-12.0,1.0,-2.0,-5.0,-3.0
1701798822.6212213,-1.0,1.0,-9.0,-3.0,-6.0,-6.0,-7.0,-3.0
1701798822.6509218,-1.0,-3.0,23.0,14.0,5.0,2.0,-1.0,3.0
1701798822.6509218,-3.0,-1.0,4.0,-8.0,-4.0,-3.0,1.0,3.0
1701798822.6509218,-2.0,0.0,-17.0,-26.0,-12.0,-9.0,-4.0,-7.0
1701798822.6509218,-3.0,-4.0,7.0,14.0,3.0,5.0,0.0,-2.0
1701798822.6713102,3.0,-1.0,-13.0,-21.0,-3.0,2.0,-1.0,-1.0
1701798822.6713102,-2.0,-3.0,6.0,27.0,10.0,2.0,2.0,-1.0
1701798822.6713102,3.0,0.0,-3.0,-4.0,-4.0,-3.0,-2.0,0.0
1701798822.6713102,0.0,0.0,-7.0,-21.0,-10.0,-7.0,-4.0,0.0
1701798822.6812646,2.0,12.0,41.0,12.0,-1.0,-5.0,-4.0,-1.0
1701798822.6812646,-6.0,-6.0,-14.0,-6.0,3.0,4.0,4.0,-2.0
1701798822.6812646,-4.0,-10.0,-17.0,1.0,4.0,4.0,2.0,0.0
1701798822.6812646,1.0,1.0,3.0,6.0,-1.0,-2.0,-3.0,-3.0
1701798822.701222,0.0,-1.0,-1.0,5.0,-2.0,-3.0,0.0,2.0
1701798822.701222,-2.0,4.0,-3.0,-18.0,-4.0,-1.0,1.0,-1.0
1701798822.701222,-2.0,-8.0,-6.0,5.0,2.0,1.0,-3.0,-3.0
1701798822.701222,-1.0,2.0,-2.0,3.0,-1.0,-1.0,-2.0,1.0
1701798822.7309232,-2.0,-3.0,-8.0,-7.0,-5.0,-6.0,-2.0,0.0
1701798822.7309232,0.0,-1.0,7.0,-4.0,-6.0,-4.0,-5.0,-2.0
1701798822.7309232,-2.0,0.0,-7.0,3.0,1.0,0.0,-1.0,-1.0
1701798822.7309232,0.0,-1.0,2.0,6.0,4.0,5.0,2.0,-1.0
1701798822.750921,1.0,-1.0,-13.0,-1.0,1.0,1.0,2.0,-1.0
1701798822.750921,-3.0,3.0,3.0,1.0,-2.0,0.0,-1.0,-2.0
1701798822.750921,6.0,5.0,13.0,-7.0,-3.0,-2.0,0.0,-1.0
1701798822.750921,-5.0,-9.0,-22.0,0.0,2.0,2.0,2.0,0.0
1701798822.769149,-1.0,-1.0,1.0,1.0,-2.0,-5.0,-3.0,0.0
1701798822.769149,-1.0,-7.0,-13.0,-2.0,-1.0,-2.0,0.0,-3.0
1701798822.769149,1.0,2.0,2.0,1.0,0.0,2.0,2.0,-2.0
1701798822.769149,-2.0,5.0,11.0,-1.0,0.0,-3.0,-2.0,3.0
1701798822.7908356,2.0,-2.0,-5.0,-1.0,-1.0,0.0,1.0,-3.0
1701798822.7908356,0.0,0.0,6.0,-2.0,-4.0,-3.0,-4.0,-2.0
1701798822.7908356,-1.0,-1.0,-7.0,0.0,0.0,1.0,-5.0,-8.0
1701798822.7908356,3.0,7.0,8.0,-4.0,-1.0,1.0,3.0,7.0
1701798822.8107502,-5.0,1.0,10.0,-1.0,-7.0,-5.0,-2.0,-3.0
1701798822.8107502,-2.0,-13.0,-15.0,-7.0,-1.0,-4.0,-5.0,-3.0
1701798822.8107502,-5.0,-7.0,-16.0,6.0,4.0,4.0,6.0,3.0
1701798822.8107502,2.0,-2.0,1.0,-16.0,-24.0,-18.0,-14.0,6.0
1701798822.8207836,6.0,2.0,30.0,5.0,-1.0,3.0,-4.0,0.0
1701798822.8207836,-2.0,-7.0,-18.0,11.0,17.0,6.0,2.0,-3.0
1701798822.8207836,-3.0,4.0,18.0,9.0,6.0,2.0,0.0,0.0
1701798822.8207836,-3.0,-6.0,-29.0,-2.0,5.0,2.0,3.0,-7.0
1701798822.851454,-3.0,1.0,-28.0,-21.0,-19.0,-15.0,-5.0,1.0
1701798822.851454,4.0,0.0,3.0,-12.0,-10.0,-2.0,2.0,3.0
1701798822.851454,1.0,2.0,19.0,10.0,9.0,7.0,3.0,-1.0
1701798822.851454,-1.0,0.0,-10.0,-23.0,-8.0,-1.0,2.0,-3.0
1701798822.8612876,-6.0,-10.0,21.0,16.0,3.0,-1.0,-5.0,-3.0
1701798822.8612876,-3.0,0.0,-7.0,-1.0,-1.0,-5.0,-2.0,-4.0
1701798822.8710854,1.0,5.0,-8.0,-8.0,-4.0,-7.0,-5.0,1.0
1701798822.8710854,2.0,1.0,4.0,-6.0,-1.0,2.0,0.0,0.0
1701798822.8811224,0.0,-3.0,-19.0,10.0,11.0,11.0,5.0,-1.0
1701798822.8811224,0.0,-4.0,-15.0,-13.0,2.0,2.0,0.0,-1.0
1701798822.8811224,-4.0,-2.0,-25.0,-13.0,-12.0,-4.0,-2.0,2.0
1701798822.8811224,-2.0,-8.0,31.0,31.0,0.0,-10.0,-10.0,-8.0
1701798822.9210885,5.0,12.0,7.0,-23.0,7.0,7.0,7.0,2.0
1701798822.9210885,-1.0,5.0,49.0,17.0,-4.0,3.0,2.0,0.0
1701798822.9310884,-12.0,-13.0,18.0,24.0,-9.0,-13.0,-8.0,-7.0
1701798822.9310884,1.0,4.0,1.0,12.0,11.0,12.0,3.0,0.0
1701798822.9410844,-3.0,0.0,-11.0,-2.0,-3.0,-6.0,-3.0,-2.0
1701798822.9410844,8.0,11.0,-12.0,-25.0,-3.0,5.0,5.0,9.0
1701798822.9410844,4.0,0.0,22.0,-4.0,3.0,4.0,1.0,3.0
1701798822.9410844,-6.0,-3.0,-3.0,5.0,-2.0,-5.0,-3.0,-5.0
1701798822.9513972,-2.0,-5.0,-5.0,-7.0,-7.0,-6.0,-5.0,-2.0
1701798822.9513972,0.0,2.0,9.0,-5.0,-5.0,-6.0,-4.0,-3.0
1701798822.9513972,-3.0,-6.0,-19.0,-6.0,1.0,0.0,-2.0,-3.0
1701798822.9513972,0.0,-1.0,-3.0,4.0,3.0,4.0,3.0,2.0
1701798822.9810839,6.0,-1.0,-11.0,3.0,6.0,7.0,8.0,19.0
1701798822.9810839,-11.0,0.0,-11.0,-3.0,-4.0,0.0,3.0,-9.0
1701798822.9810839,-3.0,-3.0,4.0,3.0,0.0,-2.0,-9.0,-8.0
1701798822.9810839,-3.0,1.0,-7.0,-11.0,5.0,0.0,-8.0,-10.0
1701798822.9810839,-5.0,-4.0,6.0,6.0,6.0,-3.0,-5.0,-6.0
1701798822.9810839,0.0,-1.0,9.0,1.0,-10.0,-4.0,0.0,11.0
1701798822.991245,2.0,-1.0,-10.0,-12.0,-4.0,-3.0,6.0,8.0
1701798822.991245,-1.0,-1.0,0.0,-4.0,-2.0,-1.0,-2.0,-7.0
1701798823.001283,0.0,-4.0,-4.0,-7.0,-5.0,-4.0,-6.0,-6.0
1701798823.001283,0.0,2.0,-2.0,4.0,2.0,2.0,1.0,-2.0
1701798823.001283,-1.0,-1.0,-7.0,-3.0,0.0,1.0,0.0,4.0
1701798823.001283,-2.0,-7.0,-10.0,-1.0,-2.0,-4.0,-5.0,0.0
1701798823.0410984,-2.0,2.0,7.0,6.0,-3.0,-1.0,1.0,-2.0
1701798823.0410984,-2.0,10.0,6.0,5.0,5.0,1.0,-3.0,-9.0
1701798823.051085,2.0,-8.0,-4.0,-3.0,2.0,5.0,4.0,4.0
1701798823.051085,-2.0,-2.0,-1.0,1.0,1.0,-1.0,2.0,1.0
1701798823.0611386,-3.0,-3.0,-4.0,-3.0,-5.0,-3.0,-2.0,0.0
1701798823.0611386,1.0,-2.0,5.0,-3.0,-6.0,-4.0,-2.0,2.0
1701798823.0611386,-2.0,2.0,-11.0,-3.0,-1.0,-1.0,0.0,-4.0
1701798823.0611386,-1.0,0.0,3.0,-1.0,-1.0,-1.0,1.0,2.0
1701798823.0611386,-3.0,-5.0,-4.0,-5.0,-2.0,-2.0,-1.0,-8.0
1701798823.0611386,-1.0,3.0,4.0,5.0,0.0,-1.0,-1.0,2.0
1701798823.0611386,-1.0,2.0,3.0,-3.0,-4.0,-5.0,-4.0,-5.0
1701798823.0611386,0.0,-1.0,0.0,-5.0,-8.0,-9.0,-6.0,-1.0
1701798823.0918217,-2.0,-1.0,-9.0,-1.0,7.0,8.0,7.0,1.0
1701798823.0918217,2.0,-7.0,0.0,8.0,6.0,5.0,-2.0,-2.0
1701798823.0918217,-1.0,0.0,3.0,-1.0,2.0,1.0,1.0,0.0
1701798823.0918217,0.0,1.0,-4.0,2.0,2.0,-3.0,-1.0,0.0
1701798823.1114984,-3.0,-4.0,-5.0,0.0,-6.0,-4.0,-2.0,-3.0
1701798823.1114984,1.0,-6.0,-14.0,-2.0,0.0,1.0,-1.0,-1.0
1701798823.1114984,2.0,5.0,18.0,-1.0,0.0,-2.0,-1.0,-2.0
1701798823.1114984,0.0,3.0,-3.0,-5.0,-3.0,-1.0,0.0,1.0
1701798823.1216755,-2.0,-5.0,-2.0,-1.0,-1.0,-2.0,-3.0,-1.0
1701798823.1216755,0.0,-4.0,-8.0,-3.0,-4.0,-3.0,-1.0,-1.0
1701798823.1216755,2.0,1.0,-5.0,-2.0,-7.0,-3.0,-4.0,1.0
1701798823.1216755,-2.0,0.0,3.0,-2.0,7.0,6.0,4.0,-1.0
1701798823.1614995,-2.0,0.0,4.0,2.0,-1.0,0.0,-2.0,-2.0
1701798823.1614995,-1.0,1.0,4.0,-3.0,-4.0,-6.0,-1.0,-1.0
1701798823.1614995,-1.0,0.0,-8.0,-4.0,-4.0,-3.0,0.0,-1.0
1701798823.1614995,0.0,1.0,6.0,-4.0,-8.0,-3.0,0.0,0.0
1701798823.1614995,-1.0,6.0,-6.0,2.0,15.0,2.0,-1.0,-2.0
1701798823.1614995,-4.0,-16.0,-5.0,3.0,4.0,0.0,-4.0,-1.0
1701798823.1717885,0.0,-4.0,-5.0,0.0,3.0,2.0,1.0,-2.0
1701798823.1717885,-2.0,-4.0,-3.0,-21.0,-24.0,-6.0,0.0,0.0
1701798823.1818542,0.0,-2.0,2.0,25.0,26.0,4.0,1.0,1.0
1701798823.1818542,2.0,22.0,30.0,16.0,19.0,3.0,2.0,1.0
1701798823.1818542,-5.0,-26.0,-48.0,-3.0,4.0,-2.0,-2.0,-4.0
1701798823.1818542,0.0,0.0,17.0,1.0,-7.0,-4.0,-5.0,-3.0
1701798823.2114985,-1.0,-4.0,-15.0,-31.0,-30.0,-13.0,-4.0,-4.0
1701798823.2114985,0.0,-1.0,-7.0,12.0,10.0,5.0,-1.0,-3.0
1701798823.2114985,1.0,7.0,15.0,5.0,-2.0,1.0,2.0,2.0
1701798823.2114985,0.0,0.0,-10.0,4.0,12.0,5.0,2.0,-1.0
1701798823.231881,-2.0,-5.0,3.0,-10.0,-10.0,-6.0,-3.0,-1.0
1701798823.231881,1.0,-1.0,0.0,-12.0,-11.0,-7.0,-3.0,-1.0
1701798823.231881,-2.0,3.0,1.0,-4.0,-6.0,-2.0,-1.0,-2.0
1701798823.231881,-2.0,-3.0,-5.0,4.0,-2.0,-5.0,-3.0,1.0
1701798823.2417965,-1.0,3.0,2.0,-1.0,7.0,0.0,2.0,1.0
1701798823.2417965,-1.0,-4.0,1.0,3.0,2.0,6.0,5.0,2.0
1701798823.2417965,0.0,4.0,0.0,-5.0,-6.0,-2.0,0.0,-2.0
1701798823.2417965,0.0,1.0,3.0,6.0,4.0,0.0,-3.0,-1.0
1701798823.2715037,-1.0,-4.0,0.0,-6.0,-8.0,-3.0,-2.0,-1.0
1701798823.2715037,-1.0,-2.0,-24.0,-9.0,-7.0,-4.0,-2.0,-2.0
1701798823.2715037,-1.0,-1.0,14.0,7.0,5.0,1.0,0.0,-2.0
1701798823.2715037,-1.0,-3.0,-7.0,-1.0,9.0,3.0,3.0,0.0
1701798823.2958646,1.0,0.0,5.0,4.0,-5.0,-2.0,-2.0,0.0
1701798823.2958646,-1.0,-4.0,-2.0,-3.0,-10.0,-4.0,-3.0,-2.0
1701798823.2958646,-2.0,3.0,9.0,-2.0,1.0,-1.0,-3.0,-1.0
1701798823.2968612,-1.0,0.0,-7.0,1.0,0.0,2.0,0.0,1.0
1701798823.309863,1.0,10.0,16.0,9.0,6.0,4.0,1.0,-1.0
1701798823.309863,-6.0,-10.0,-12.0,-12.0,-10.0,-5.0,-3.0,-2.0
1701798823.3108625,-1.0,-6.0,-1.0,4.0,-1.0,-4.0,-3.0,-1.0
1701798823.3108625,0.0,2.0,-7.0,-11.0,1.0,0.0,-1.0,-2.0
1701798823.343242,-1.0,1.0,-3.0,12.0,1.0,2.0,0.0,-2.0
1701798823.343242,1.0,1.0,20.0,4.0,0.0,-2.0,-1.0,0.0
1701798823.343242,0.0,3.0,-8.0,-4.0,1.0,0.0,-1.0,1.0
1701798823.343242,-4.0,-8.0,1.0,0.0,1.0,0.0,-1.0,-2.0
1701798823.3535087,-2.0,2.0,0.0,-5.0,-2.0,1.0,1.0,-2.0
1701798823.3535087,2.0,10.0,0.0,-5.0,0.0,-2.0,-1.0,-1.0
1701798823.3535087,-1.0,-4.0,4.0,-5.0,-4.0,-2.0,-1.0,0.0
1701798823.3535087,-1.0,-4.0,-9.0,14.0,2.0,0.0,-2.0,0.0
1701798823.3732424,-1.0,-4.0,2.0,-10.0,-1.0,-3.0,-2.0,0.0
1701798823.3732424,1.0,4.0,3.0,-7.0,-2.0,-2.0,-2.0,0.0
1701798823.3732424,0.0,4.0,1.0,1.0,1.0,-2.0,-4.0,-3.0
1701798823.3732424,-2.0,-3.0,-13.0,-3.0,-4.0,-1.0,-1.0,-1.0
1701798823.3832936,-2.0,-5.0,-13.0,-10.0,-3.0,-2.0,-2.0,0.0
1701798823.3832936,-1.0,-3.0,-11.0,-6.0,-1.0,3.0,2.0,1.0
1701798823.3932421,2.0,9.0,19.0,7.0,2.0,4.0,2.0,1.0
1701798823.3932421,0.0,-2.0,3.0,-15.0,-2.0,-2.0,-1.0,-2.0
1701798823.413632,-4.0,-13.0,-13.0,11.0,-10.0,-5.0,-3.0,-5.0
1701798823.413632,-2.0,-2.0,-10.0,-8.0,-1.0,-2.0,-1.0,-2.0
1701798823.413632,0.0,6.0,6.0,2.0,0.0,0.0,1.0,0.0
1701798823.413632,0.0,-1.0,3.0,5.0,4.0,0.0,2.0,0.0
1701798823.4332423,-1.0,0.0,20.0,4.0,-4.0,-6.0,-3.0,-3.0
1701798823.4332423,0.0,2.0,12.0,2.0,-9.0,-5.0,-2.0,-2.0
1701798823.4332423,-3.0,4.0,-11.0,-4.0,-2.0,-2.0,-1.0,-2.0
1701798823.4332423,3.0,6.0,11.0,-3.0,4.0,7.0,4.0,1.0
1701798823.4532506,-3.0,-4.0,-1.0,3.0,1.0,2.0,0.0,-1.0
1701798823.4532506,-2.0,-8.0,5.0,5.0,9.0,0.0,-2.0,-1.0
1701798823.4532506,-2.0,-6.0,-15.0,0.0,-2.0,-5.0,-3.0,-3.0
1701798823.4532506,-2.0,-1.0,-4.0,-2.0,-4.0,-7.0,-4.0,-2.0
1701798823.4732475,3.0,10.0,16.0,8.0,1.0,1.0,0.0,0.0
1701798823.4732475,-4.0,-7.0,-11.0,0.0,-7.0,-4.0,-2.0,-2.0
1701798823.4732475,0.0,-1.0,2.0,-3.0,0.0,2.0,-1.0,1.0
1701798823.4732475,0.0,4.0,-20.0,-3.0,2.0,0.0,-1.0,1.0
1701798823.493244,1.0,4.0,-8.0,2.0,3.0,-2.0,0.0,0.0
1701798823.493244,-3.0,-3.0,5.0,0.0,-3.0,-1.0,-3.0,-2.0
1701798823.493244,-1.0,-6.0,-8.0,0.0,1.0,0.0,-1.0,-2.0
1701798823.493244,-2.0,4.0,27.0,5.0,-5.0,-5.0,-2.0,-3.0
1701798823.5132456,0.0,-1.0,-22.0,-8.0,-1.0,-1.0,0.0,0.0
1701798823.5132456,-1.0,8.0,29.0,-6.0,-11.0,-4.0,-2.0,1.0
1701798823.5132456,-4.0,-14.0,-56.0,-3.0,1.0,2.0,-2.0,-1.0
1701798823.5132456,3.0,3.0,15.0,6.0,14.0,7.0,1.0,0.0
1701798823.5336132,1.0,-5.0,-8.0,-9.0,-5.0,-2.0,0.0,2.0
1701798823.5336132,0.0,10.0,4.0,3.0,1.0,2.0,5.0,7.0
1701798823.5336132,-6.0,-12.0,-1.0,-7.0,-11.0,-6.0,-3.0,-13.0
1701798823.5336132,-1.0,1.0,-1.0,-2.0,-9.0,-7.0,-11.0,-11.0
1701798823.5532818,-2.0,-12.0,-1.0,-6.0,4.0,-2.0,-3.0,3.0
1701798823.5532818,1.0,-1.0,-14.0,7.0,4.0,2.0,-2.0,-1.0
1701798823.5532818,1.0,0.0,5.0,-1.0,1.0,0.0,0.0,2.0
1701798823.5532818,0.0,2.0,4.0,-4.0,-10.0,-1.0,3.0,2.0
1701798823.5636265,-2.0,0.0,5.0,-9.0,-8.0,0.0,-2.0,-2.0
1701798823.5636265,-4.0,-10.0,-19.0,-4.0,-2.0,2.0,0.0,0.0
1701798823.5636265,2.0,7.0,16.0,5.0,5.0,4.0,1.0,4.0
1701798823.573335,-2.0,-18.0,-13.0,-4.0,-13.0,-6.0,-1.0,-3.0
1701798823.5932806,-2.0,14.0,31.0,-1.0,-8.0,-7.0,-4.0,-1.0
1701798823.5932806,-4.0,-14.0,-51.0,-13.0,-7.0,-5.0,-2.0,-5.0
1701798823.5932806,2.0,6.0,10.0,11.0,19.0,7.0,1.0,0.0
1701798823.5932806,-3.0,-4.0,8.0,12.0,-2.0,-3.0,0.0,1.0
1701798823.6035554,-4.0,-8.0,-20.0,-11.0,-4.0,0.0,0.0,-2.0
1701798823.6035554,0.0,3.0,38.0,3.0,-2.0,-1.0,0.0,-4.0
1701798823.6035554,-1.0,1.0,-18.0,-7.0,-8.0,-7.0,-4.0,-2.0
1701798823.6035554,-3.0,-4.0,-43.0,-9.0,0.0,-2.0,-1.0,2.0
1701798823.6236327,1.0,-2.0,-13.0,-3.0,-1.0,-1.0,0.0,-2.0
1701798823.6236327,-2.0,2.0,20.0,-8.0,-9.0,-7.0,-6.0,-5.0
1701798823.6236327,-3.0,-17.0,-32.0,10.0,18.0,10.0,3.0,3.0
1701798823.6333184,1.0,7.0,31.0,15.0,4.0,2.0,1.0,2.0
1701798823.6532834,-3.0,-2.0,-9.0,-17.0,0.0,0.0,-1.0,-2.0
1701798823.6532834,0.0,9.0,48.0,18.0,5.0,0.0,-1.0,0.0
1701798823.6532834,1.0,-1.0,-24.0,-17.0,-15.0,-8.0,-4.0,-2.0
1701798823.6532834,-4.0,-12.0,1.0,3.0,6.0,3.0,0.0,-1.0
1701798823.6633055,0.0,7.0,-7.0,5.0,5.0,4.0,1.0,-3.0
1701798823.6633055,2.0,4.0,-8.0,-7.0,-3.0,-3.0,0.0,1.0
1701798823.6633055,-2.0,-2.0,-3.0,1.0,-6.0,-4.0,0.0,-2.0
1701798823.6633055,-1.0,4.0,-11.0,-19.0,-2.0,-1.0,-1.0,-2.0
1701798823.6836138,0.0,-1.0,7.0,4.0,5.0,-1.0,-1.0,-1.0
1701798823.6836138,3.0,16.0,33.0,9.0,4.0,2.0,-2.0,-2.0
1701798823.6836138,-6.0,-17.0,-14.0,-5.0,-6.0,-3.0,-1.0,0.0
1701798823.6836138,-2.0,-2.0,15.0,0.0,0.0,-1.0,-3.0,-3.0
1701798823.7132814,-2.0,0.0,-6.0,5.0,0.0,0.0,-1.0,0.0
1701798823.7233331,-1.0,0.0,-19.0,-7.0,5.0,-1.0,-1.0,0.0
1701798823.7233331,4.0,14.0,56.0,8.0,0.0,0.0,0.0,0.0
1701798823.7233331,-4.0,-9.0,-34.0,-2.0,-10.0,-3.0,-3.0,-2.0
1701798823.7233331,-1.0,-9.0,0.0,-1.0,-2.0,-3.0,0.0,-1.0
1701798823.7233331,-3.0,5.0,-49.0,-2.0,1.0,-1.0,-1.0,-3.0
1701798823.7233331,1.0,16.0,27.0,-11.0,-6.0,-3.0,-2.0,-2.0
1701798823.7233331,0.0,-1.0,25.0,1.0,3.0,1.0,-2.0,-1.0
1701798823.7632859,0.0,-1.0,0.0,8.0,-3.0,0.0,-1.0,0.0
1701798823.7632859,1.0,-9.0,-6.0,-1.0,6.0,2.0,2.0,-2.0
1701798823.7732832,0.0,-1.0,-12.0,-9.0,-4.0,-3.0,-2.0,-1.0
1701798823.7732832,0.0,6.0,-8.0,7.0,0.0,-2.0,-1.0,0.0
1701798823.7832818,-5.0,-1.0,21.0,6.0,-2.0,-2.0,-4.0,-2.0
1701798823.7832818,-1.0,-4.0,-18.0,-17.0,-5.0,0.0,1.0,-2.0
1701798823.7832818,-3.0,9.0,26.0,11.0,-4.0,-4.0,0.0,-4.0
1701798823.7832818,1.0,-11.0,3.0,-1.0,3.0,2.0,1.0,-1.0
1701798823.7832818,0.0,-1.0,0.0,-2.0,0.0,2.0,0.0,-2.0
1701798823.7832818,-2.0,-8.0,-3.0,4.0,0.0,0.0,1.0,0.0
1701798823.7832818,-3.0,-1.0,-12.0,-2.0,-1.0,0.0,0.0,0.0
1701798823.7832818,-1.0,4.0,17.0,-6.0,1.0,0.0,1.0,-1.0
1701798823.8201485,1.0,-19.0,-31.0,1.0,-2.0,-1.0,0.0,-1.0
1701798823.8211477,-3.0,4.0,10.0,3.0,5.0,0.0,-1.0,0.0
1701798823.8251462,-4.0,-7.0,10.0,-1.0,1.0,0.0,-1.0,2.0
1701798823.8251462,0.0,7.0,29.0,6.0,-1.0,-2.0,-1.0,1.0
1701798823.8348339,0.0,3.0,-51.0,-10.0,-1.0,1.0,1.0,-1.0
1701798823.8348339,-2.0,-6.0,-2.0,2.0,0.0,-1.0,-1.0,-2.0
1701798823.835835,-1.0,-2.0,-3.0,-9.0,-2.0,-2.0,-1.0,0.0
1701798823.835835,-1.0,2.0,9.0,0.0,1.0,-2.0,0.0,-2.0
1701798823.8463712,1.0,1.0,-9.0,5.0,2.0,0.0,1.0,-2.0
1701798823.8463712,-3.0,-28.0,12.0,-4.0,-5.0,-1.0,-2.0,-2.0
1701798823.8566577,-3.0,6.0,23.0,4.0,-4.0,-2.0,0.0,-2.0
1701798823.8566577,0.0,-8.0,-35.0,-9.0,-3.0,-2.0,-1.0,1.0
1701798823.8664317,-2.0,3.0,22.0,10.0,2.0,1.0,0.0,0.0
1701798823.8664317,-1.0,-3.0,5.0,-1.0,-1.0,0.0,-1.0,-1.0
1701798823.876373,0.0,-11.0,-16.0,-2.0,3.0,2.0,0.0,-2.0
1701798823.876373,-2.0,-6.0,9.0,9.0,2.0,1.0,0.0,0.0
1701798823.886371,-4.0,11.0,-6.0,-22.0,-5.0,-3.0,-3.0,-1.0
1701798823.886371,0.0,0.0,1.0,4.0,-2.0,-1.0,-3.0,-1.0
1701798823.886371,-1.0,2.0,34.0,3.0,-1.0,-2.0,0.0,-1.0
1701798823.886371,-7.0,-8.0,-61.0,-9.0,-2.0,-1.0,1.0,-4.0
1701798823.9067562,-2.0,11.0,10.0,5.0,0.0,2.0,1.0,1.0
1701798823.9067562,-6.0,-24.0,-22.0,4.0,-1.0,-1.0,0.0,-1.0
1701798823.9163744,5.0,5.0,8.0,-11.0,-5.0,-3.0,-2.0,-1.0
1701798823.9163744,-7.0,-9.0,-13.0,2.0,-1.0,-2.0,-2.0,-4.0
1701798823.9263744,14.0,16.0,31.0,5.0,2.0,-2.0,0.0,4.0
1701798823.9263744,13.0,11.0,-9.0,-6.0,-2.0,0.0,-1.0,4.0
1701798823.9263744,-40.0,-21.0,4.0,3.0,3.0,2.0,1.0,-5.0
1701798823.9263744,7.0,-2.0,-13.0,2.0,1.0,0.0,2.0,4.0
1701798823.9467156,-5.0,-11.0,-27.0,-12.0,-9.0,-11.0,-16.0,-12.0
1701798823.9467156,-28.0,-62.0,-9.0,-6.0,-4.0,-4.0,-7.0,-5.0
1701798823.9467156,13.0,64.0,-18.0,-1.0,0.0,-1.0,-1.0,1.0
1701798823.9467156,-28.0,-107.0,27.0,0.0,-1.0,0.0,-1.0,-2.0
1701798823.966738,0.0,22.0,-5.0,3.0,1.0,1.0,2.0,3.0
1701798823.966738,30.0,63.0,-25.0,-1.0,0.0,1.0,1.0,1.0
1701798823.9763725,-17.0,-18.0,-14.0,-5.0,0.0,0.0,-2.0,-5.0
1701798823.9763725,0.0,37.0,12.0,-3.0,-3.0,-1.0,-5.0,-3.0
1701798823.9863708,7.0,-6.0,-2.0,1.0,1.0,1.0,1.0,2.0
1701798823.9863708,-2.0,-5.0,3.0,-3.0,1.0,0.0,0.0,-2.0
1701798823.9863708,9.0,29.0,3.0,4.0,-2.0,0.0,1.0,2.0
1701798823.9863708,8.0,30.0,-10.0,-4.0,-1.0,-2.0,1.0,-1.0
1701798824.0066931,-2.0,-25.0,25.0,2.0,0.0,2.0,2.0,-3.0
1701798824.0066931,-7.0,23.0,5.0,1.0,-1.0,0.0,0.0,-1.0
1701798824.0066931,6.0,-10.0,-6.0,-9.0,-3.0,-2.0,-1.0,0.0
1701798824.0066931,10.0,7.0,3.0,1.0,-1.0,-2.0,-1.0,0.0
1701798824.0266967,-13.0,-12.0,14.0,-6.0,-1.0,-4.0,-2.0,-4.0
1701798824.0266967,-3.0,0.0,-26.0,7.0,0.0,1.0,1.0,0.0
1701798824.0363746,7.0,-23.0,-54.0,-5.0,-4.0,-3.0,-2.0,4.0
1701798824.0363746,-3.0,-10.0,10.0,0.0,0.0,0.0,-2.0,-3.0
1701798824.0463738,2.0,23.0,-5.0,-3.0,-3.0,-4.0,-1.0,-3.0
1701798824.0463738,-10.0,-19.0,12.0,2.0,-1.0,0.0,-5.0,-4.0
1701798824.0463738,7.0,-14.0,20.0,3.0,-2.0,-1.0,-1.0,2.0
1701798824.0463738,-4.0,28.0,-3.0,-3.0,-1.0,1.0,-1.0,0.0
1701798824.066617,-5.0,-11.0,-2.0,4.0,2.0,1.0,2.0,2.0
1701798824.066617,0.0,-7.0,-7.0,-7.0,-3.0,-5.0,1.0,-2.0
1701798824.0765445,-6.0,-15.0,-1.0,0.0,-1.0,0.0,-2.0,-5.0
1701798824.0765445,6.0,13.0,-2.0,-1.0,1.0,1.0,2.0,2.0
1701798824.086559,2.0,0.0,-7.0,0.0,-1.0,1.0,-1.0,-1.0
1701798824.086559,-4.0,0.0,7.0,0.0,-3.0,-3.0,-2.0,-1.0
1701798824.0963764,7.0,16.0,35.0,-2.0,-1.0,0.0,-1.0,1.0
1701798824.0963764,3.0,4.0,-3.0,6.0,2.0,-2.0,-3.0,0.0
1701798824.1263714,-2.0,1.0,15.0,1.0,-1.0,0.0,3.0,1.0
1701798824.1263714,0.0,11.0,3.0,-4.0,-2.0,-3.0,-2.0,0.0
1701798824.1263714,0.0,-4.0,-36.0,0.0,0.0,-1.0,-2.0,-3.0
1701798824.1263714,2.0,15.0,18.0,-6.0,-1.0,-4.0,-2.0,-1.0
1701798824.1263714,-6.0,-6.0,3.0,-1.0,-1.0,-2.0,-1.0,-2.0
1701798824.1263714,2.0,-2.0,24.0,6.0,2.0,1.0,1.0,0.0
1701798824.1263714,-1.0,2.0,-1.0,-9.0,-5.0,-2.0,-1.0,-1.0
1701798824.1263714,1.0,3.0,-9.0,3.0,-1.0,-2.0,-2.0,-2.0
1701798824.1467617,1.0,1.0,-15.0,-3.0,1.0,0.0,-2.0,-3.0
1701798824.1467617,-1.0,4.0,-5.0,-2.0,0.0,-2.0,-1.0,-2.0
1701798824.156374,-3.0,-1.0,-3.0,2.0,0.0,-3.0,-3.0,-1.0
1701798824.156374,-2.0,0.0,-8.0,-4.0,-6.0,-1.0,-1.0,-1.0
1701798824.166371,0.0,-11.0,0.0,-3.0,-2.0,1.0,-2.0,-2.0
1701798824.166371,1.0,11.0,0.0,-1.0,-3.0,-1.0,-2.0,-2.0
1701798824.166371,-3.0,-18.0,-16.0,-1.0,-2.0,-1.0,1.0,-3.0
1701798824.166371,2.0,9.0,15.0,0.0,-2.0,-1.0,0.0,-2.0
1701798824.1866143,0.0,-6.0,1.0,1.0,1.0,-1.0,-1.0,-2.0
1701798824.1866143,1.0,-11.0,-18.0,1.0,1.0,-1.0,-2.0,1.0
1701798824.1963782,-1.0,1.0,21.0,1.0,1.0,-2.0,-1.0,-1.0
1701798824.1963782,-1.0,3.0,8.0,-5.0,-1.0,0.0,-1.0,-3.0
1701798824.2363703,-4.0,-15.0,-28.0,0.0,-4.0,-3.0,-1.0,-2.0
1701798824.2363703,-1.0,-8.0,-40.0,-2.0,6.0,4.0,0.0,-2.0
1701798824.2363703,1.0,-9.0,-2.0,-1.0,-3.0,-3.0,-2.0,-2.0
1701798824.2363703,0.0,-2.0,-7.0,2.0,4.0,0.0,-2.0,-1.0
1701798824.2363703,-1.0,2.0,7.0,-1.0,-6.0,-5.0,-1.0,-1.0
1701798824.2363703,0.0,9.0,-3.0,-6.0,-11.0,-4.0,0.0,-1.0
1701798824.2363703,-1.0,-1.0,-8.0,5.0,9.0,2.0,1.0,1.0
1701798824.2363703,-3.0,-7.0,-7.0,1.0,0.0,0.0,0.0,-1.0
1701798824.246601,-1.0,3.0,8.0,1.0,1.0,-1.0,-2.0,-1.0
1701798824.246601,0.0,8.0,9.0,-4.0,-15.0,-4.0,-4.0,0.0
1701798824.2563767,0.0,2.0,25.0,-8.0,-1.0,1.0,0.0,-1.0
1701798824.2563767,-4.0,-10.0,-30.0,5.0,12.0,3.0,2.0,-2.0
1701798824.2863715,-1.0,5.0,31.0,6.0,4.0,2.0,0.0,-1.0
1701798824.2863715,-2.0,-6.0,10.0,1.0,1.0,0.0,-1.0,-1.0
1701798824.2863715,-1.0,0.0,-13.0,-3.0,-7.0,-4.0,-1.0,0.0
1701798824.2863715,1.0,7.0,9.0,-12.0,-13.0,-4.0,-3.0,-1.0
1701798824.2863715,0.0,-1.0,-13.0,9.0,9.0,1.0,-2.0,1.0
1701798824.2863715,1.0,4.0,10.0,-5.0,1.0,0.0,0.0,1.0
1701798824.2863715,0.0,-13.0,-7.0,6.0,-2.0,0.0,1.0,-1.0
1701798824.2863715,-1.0,-4.0,6.0,-4.0,-5.0,1.0,-1.0,-2.0
1701798824.306696,-3.0,0.0,-17.0,-8.0,-7.0,-3.0,-3.0,-1.0
1701798824.306696,-1.0,-1.0,5.0,0.0,-2.0,-3.0,-1.0,-1.0
1701798824.306696,-1.0,2.0,11.0,2.0,1.0,-1.0,-1.0,-3.0
1701798824.306696,-2.0,-4.0,-13.0,1.0,0.0,-3.0,0.0,-1.0
1701798824.3363705,-1.0,-1.0,-1.0,-4.0,-2.0,-1.0,1.0,0.0
1701798824.3363705,-1.0,0.0,7.0,4.0,6.0,3.0,1.0,-1.0
1701798824.3363705,-2.0,-3.0,0.0,-1.0,3.0,-1.0,0.0,0.0
1701798824.3363705,-1.0,-9.0,-19.0,-4.0,-6.0,-5.0,-4.0,-3.0
1701798824.3467188,-2.0,6.0,10.0,-4.0,-1.0,-3.0,-3.0,-2.0
1701798824.3467188,-1.0,-7.0,-2.0,-2.0,-6.0,-6.0,0.0,-2.0
1701798824.3591268,0.0,-2.0,-2.0,4.0,4.0,2.0,1.0,-2.0
1701798824.3601415,0.0,2.0,9.0,-9.0,-6.0,-5.0,-4.0,0.0
1701798824.3748336,0.0,-3.0,1.0,5.0,1.0,-2.0,-2.0,-1.0
1701798824.3755662,-3.0,-6.0,-8.0,2.0,0.0,2.0,1.0,-2.0
1701798824.3761923,1.0,8.0,1.0,2.0,2.0,8.0,1.0,0.0
1701798824.3761923,-1.0,2.0,11.0,2.0,11.0,6.0,1.0,1.0
1701798824.3891206,2.0,3.0,-5.0,-2.0,-4.0,-3.0,-2.0,-1.0
1701798824.3891206,1.0,-7.0,-4.0,-5.0,-6.0,-10.0,-9.0,-2.0
1701798824.3891206,-1.0,-1.0,3.0,-2.0,-8.0,-3.0,-1.0,-2.0
1701798824.3991706,-2.0,3.0,4.0,2.0,-1.0,4.0,2.0,-2.0
1701798824.4095175,-1.0,-5.0,-2.0,-3.0,0.0,2.0,4.0,1.0
1701798824.4095175,-2.0,0.0,6.0,-1.0,0.0,0.0,-3.0,-1.0
1701798824.419136,-1.0,1.0,-7.0,-4.0,-3.0,-5.0,-4.0,0.0
1701798824.419136,0.0,-5.0,-11.0,-1.0,-1.0,-4.0,0.0,1.0
1701798824.4391196,-1.0,7.0,9.0,-1.0,-2.0,-1.0,-1.0,-1.0
1701798824.4391196,-1.0,-1.0,3.0,1.0,2.0,2.0,2.0,0.0
1701798824.4391196,-1.0,1.0,0.0,-4.0,-2.0,-2.0,-1.0,-2.0
1701798824.4391196,-1.0,4.0,11.0,-4.0,-5.0,-3.0,-1.0,0.0
1701798824.449453,-1.0,-5.0,-3.0,7.0,11.0,3.0,2.0,0.0
1701798824.449453,0.0,1.0,-2.0,2.0,1.0,2.0,-1.0,0.0
1701798824.4591603,0.0,0.0,-9.0,1.0,2.0,-2.0,-2.0,-1.0
1701798824.4591603,-3.0,-9.0,2.0,-3.0,-7.0,-5.0,-3.0,-2.0
1701798824.46914,0.0,-4.0,-4.0,-7.0,-6.0,-4.0,-2.0,0.0
1701798824.46914,-1.0,2.0,2.0,1.0,4.0,0.0,1.0,1.0
1701798824.4791436,1.0,0.0,-2.0,-1.0,3.0,-4.0,1.0,1.0
1701798824.4791436,-1.0,1.0,-1.0,1.0,-1.0,9.0,-1.0,-1.0
1701798824.4891217,-3.0,-2.0,-1.0,-3.0,-5.0,3.0,1.0,0.0
1701798824.4891217,0.0,-2.0,0.0,0.0,-2.0,2.0,1.0,-2.0
1701798824.4891217,-2.0,0.0,2.0,1.0,11.0,-1.0,-2.0,-3.0
1701798824.4891217,1.0,3.0,0.0,2.0,0.0,-4.0,-2.0,-1.0
1701798824.5095217,-2.0,-5.0,-6.0,-2.0,-5.0,-3.0,-2.0,-2.0
1701798824.5095217,-1.0,1.0,1.0,-3.0,-5.0,-1.0,-1.0,-3.0
1701798824.5095217,-1.0,-2.0,-2.0,-3.0,-9.0,-5.0,-3.0,0.0
1701798824.5095217,0.0,1.0,1.0,1.0,0.0,-2.0,-1.0,-2.0
1701798824.5299103,-2.0,-2.0,-1.0,0.0,0.0,3.0,2.0,0.0
1701798824.5299103,-2.0,2.0,0.0,-1.0,2.0,-2.0,0.0,0.0
1701798824.5595305,-1.0,-3.0,-2.0,1.0,1.0,1.0,-1.0,0.0
1701798824.5595305,-2.0,0.0,3.0,-1.0,0.0,-2.0,0.0,-1.0
1701798824.5595305,1.0,-1.0,0.0,-3.0,-5.0,-2.0,-2.0,-2.0
1701798824.5595305,-1.0,-3.0,-1.0,-2.0,0.0,-4.0,-3.0,-1.0
1701798824.5595305,-2.0,-3.0,-2.0,-2.0,-2.0,1.0,3.0,0.0
1701798824.5595305,-2.0,-1.0,-2.0,-2.0,-3.0,0.0,0.0,1.0
1701798824.5795372,-3.0,-4.0,-3.0,-7.0,-1.0,-2.0,-2.0,-2.0
1701798824.5795372,-1.0,1.0,0.0,5.0,2.0,1.0,2.0,1.0
1701798824.5795372,0.0,-1.0,0.0,-1.0,-2.0,1.0,-1.0,0.0
1701798824.5795372,0.0,0.0,-2.0,-1.0,-1.0,-4.0,-1.0,1.0
1701798824.5896974,-1.0,0.0,-2.0,-4.0,-6.0,-5.0,-2.0,-1.0
1701798824.5896974,0.0,0.0,-4.0,-4.0,-1.0,3.0,-2.0,-2.0
1701798824.6195984,-1.0,1.0,1.0,4.0,1.0,2.0,0.0,-1.0
1701798824.6195984,1.0,-2.0,1.0,1.0,2.0,5.0,0.0,0.0
1701798824.6195984,-3.0,0.0,-2.0,0.0,1.0,-4.0,-3.0,-1.0
1701798824.6195984,-1.0,-3.0,0.0,-1.0,-4.0,-4.0,-2.0,-1.0
1701798824.6195984,-1.0,0.0,-1.0,-2.0,-5.0,-1.0,-3.0,0.0
1701798824.6195984,0.0,0.0,-3.0,-5.0,-1.0,-4.0,-2.0,-1.0
1701798824.6396217,1.0,-1.0,-2.0,2.0,-3.0,-1.0,-4.0,0.0
1701798824.6396217,-1.0,-3.0,-2.0,-1.0,3.0,2.0,0.0,-1.0
1701798824.6396217,-1.0,-2.0,-1.0,0.0,1.0,0.0,0.0,-3.0
1701798824.6396217,-1.0,0.0,-1.0,-1.0,-1.0,-3.0,-3.0,-2.0
1701798824.6498427,0.0,1.0,3.0,-1.0,-3.0,-2.0,-2.0,-2.0
1701798824.6498427,-2.0,-2.0,-1.0,-1.0,-3.0,0.0,1.0,0.0
1701798824.6595945,-1.0,-2.0,0.0,-3.0,-4.0,2.0,2.0,1.0
1701798824.6595945,-1.0,-1.0,-3.0,1.0,-2.0,1.0,2.0,-1.0
1701798824.6699378,0.0,0.0,1.0,0.0,1.0,1.0,-3.0,-4.0
1701798824.6699378,0.0,-1.0,-4.0,-3.0,-1.0,1.0,-1.0,-2.0
1701798824.6699378,1.0,-1.0,-1.0,-3.0,-1.0,-3.0,-4.0,0.0
1701798824.6699378,-1.0,0.0,0.0,0.0,-4.0,-1.0,0.0,-2.0
1701798824.6897998,-5.0,-2.0,-2.0,-1.0,1.0,3.0,3.0,2.0
1701798824.6897998,-2.0,-1.0,-2.0,0.0,-1.0,-1.0,-2.0,-1.0
1701798824.6996613,-3.0,-1.0,0.0,-3.0,-5.0,-4.0,-3.0,-3.0
1701798824.6996613,-1.0,1.0,-1.0,0.0,-2.0,-5.0,-2.0,0.0
1701798824.7097857,0.0,0.0,-1.0,0.0,0.0,-2.0,0.0,-1.0
1701798824.7097857,2.0,-2.0,1.0,-3.0,-2.0,6.0,-1.0,0.0
1701798824.7196598,-2.0,-3.0,-3.0,0.0,1.0,1.0,-1.0,-2.0
1701798824.7196598,-1.0,-1.0,0.0,-2.0,5.0,-3.0,-2.0,-2.0
1701798824.749606,-1.0,-1.0,-3.0,-2.0,-6.0,-6.0,-1.0,-2.0
1701798824.749606,-3.0,-1.0,-2.0,0.0,-3.0,-6.0,-4.0,-3.0
1701798824.749606,1.0,0.0,0.0,0.0,-2.0,1.0,1.0,-1.0
1701798824.749606,-1.0,-2.0,-1.0,2.0,1.0,6.0,3.0,0.0
1701798824.749606,-2.0,-3.0,1.0,-2.0,4.0,0.0,1.0,0.0
1701798824.749606,-1.0,-1.0,0.0,-3.0,-3.0,-5.0,-1.0,-1.0
1701798824.7596474,0.0,2.0,-1.0,-1.0,-4.0,-4.0,-5.0,-1.0
1701798824.7596474,-1.0,-2.0,-2.0,-2.0,-4.0,-3.0,-5.0,-2.0
1701798824.7696724,1.0,4.0,2.0,-3.0,-3.0,-1.0,-5.0,-4.0
1701798824.7696724,-2.0,-2.0,-1.0,-1.0,4.0,-1.0,3.0,-1.0
1701798824.799594,-1.0,-3.0,1.0,1.0,1.0,3.0,3.0,0.0
1701798824.799594,-1.0,-2.0,0.0,2.0,1.0,0.0,0.0,-1.0
1701798824.799594,0.0,0.0,-1.0,0.0,1.0,2.0,-5.0,-1.0
1701798824.799594,-2.0,1.0,-2.0,0.0,1.0,-3.0,-2.0,-1.0
1701798824.799594,1.0,-2.0,-2.0,-1.0,-3.0,-1.0,1.0,0.0
1701798824.799594,10.0,-1.0,0.0,-1.0,-2.0,1.0,8.0,2.0
1701798824.8195953,-9.0,-3.0,-3.0,-2.0,-3.0,-1.0,0.0,-2.0
1701798824.8195953,-2.0,0.0,0.0,-1.0,-1.0,0.0,-1.0,-1.0
1701798824.8195953,-4.0,0.0,-2.0,-1.0,0.0,-4.0,-5.0,0.0
1701798824.8195953,-4.0,-2.0,-1.0,-3.0,-2.0,-2.0,-4.0,-2.0
1701798824.829703,4.0,-1.0,-1.0,0.0,0.0,0.0,0.0,-1.0
1701798824.829703,-1.0,-1.0,-1.0,1.0,0.0,0.0,-4.0,-2.0
1701798824.8396614,2.0,1.0,1.0,-1.0,-3.0,-2.0,1.0,2.0
1701798824.8396614,-1.0,0.0,-1.0,-1.0,0.0,-3.0,-4.0,-1.0
1701798824.849984,0.0,-3.0,-1.0,0.0,0.0,1.0,2.0,0.0
1701798824.849984,-3.0,-1.0,3.0,-2.0,-2.0,-1.0,0.0,-2.0
1701798824.849984,0.0,-1.0,-5.0,-3.0,-3.0,-4.0,-3.0,-2.0
1701798824.849984,-3.0,-1.0,-2.0,-1.0,1.0,1.0,1.0,-2.0
1701798824.8896632,-3.0,-1.0,-4.0,-1.0,-1.0,-1.0,0.0,1.0
1701798824.8896632,0.0,-1.0,2.0,-1.0,1.0,-1.0,-1.0,-1.0
1701798824.8896632,-2.0,0.0,0.0,-1.0,-1.0,0.0,3.0,-2.0
1701798824.8896632,-3.0,-2.0,-1.0,-4.0,-6.0,-2.0,-1.0,-1.0
1701798824.8906634,2.0,-5.0,-3.0,1.0,3.0,1.0,0.0,1.0
1701798824.8906634,1.0,-1.0,-1.0,0.0,0.0,-2.0,-3.0,-2.0
1701798824.9009304,-3.0,0.0,4.0,-1.0,-3.0,-1.0,-6.0,-2.0
1701798824.9009304,-3.0,-1.0,-3.0,-2.0,-1.0,0.0,4.0,-1.0
1701798824.9121635,0.0,3.0,-1.0,-3.0,-2.0,0.0,0.0,-2.0
1701798824.9121635,1.0,-2.0,-3.0,-3.0,1.0,1.0,2.0,0.0
1701798824.9121635,-3.0,-3.0,-3.0,-1.0,0.0,-3.0,-1.0,-3.0
1701798824.9121635,-1.0,0.0,3.0,2.0,-2.0,-1.0,-3.0,-2.0
1701798824.942173,1.0,0.0,-1.0,-1.0,-1.0,-3.0,-7.0,-4.0
1701798824.942173,0.0,-3.0,-3.0,-2.0,-2.0,-1.0,7.0,0.0
1701798824.9621603,0.0,-1.0,-1.0,1.0,0.0,0.0,1.0,0.0
1701798824.9621603,-3.0,-1.0,3.0,0.0,1.0,-1.0,-2.0,0.0
1701798824.9721582,-1.0,2.0,6.0,1.0,-1.0,-1.0,2.0,2.0
1701798824.9721582,-3.0,-5.0,-5.0,-3.0,-4.0,-4.0,-9.0,-4.0
1701798824.9721582,-1.0,0.0,-3.0,0.0,0.0,3.0,-2.0,-1.0
1701798824.9721582,-1.0,-2.0,-4.0,-1.0,-1.0,-2.0,-1.0,0.0
1701798824.9721582,0.0,-1.0,1.0,-1.0,0.0,-2.0,-6.0,-3.0
1701798824.9721582,0.0,6.0,-1.0,-3.0,0.0,1.0,8.0,-1.0
1701798824.9721582,0.0,-8.0,-2.0,-1.0,-1.0,0.0,1.0,0.0
1701798824.9721582,-1.0,0.0,0.0,-1.0,1.0,-1.0,-6.0,-1.0
1701798825.002253,0.0,0.0,-2.0,-2.0,-2.0,-2.0,1.0,-1.0
1701798825.002253,2.0,-1.0,-3.0,-2.0,-2.0,-1.0,-1.0,1.0
1701798825.0122519,-2.0,1.0,-1.0,0.0,1.0,-1.0,-4.0,-2.0
1701798825.0122519,-2.0,2.0,2.0,-1.0,-3.0,-3.0,-1.0,-1.0
1701798825.0122519,-2.0,-3.0,-3.0,-1.0,1.0,2.0,1.0,0.0
1701798825.0122519,0.0,-1.0,3.0,2.0,1.0,1.0,3.0,0.0
1701798825.0122519,1.0,-1.0,-11.0,1.0,1.0,0.0,-2.0,-2.0
1701798825.0122519,-1.0,-2.0,-6.0,-3.0,-1.0,-5.0,1.0,0.0
1701798825.032567,-3.0,-1.0,1.0,0.0,-6.0,1.0,0.0,-2.0
1701798825.032567,-2.0,-2.0,3.0,1.0,1.0,2.0,-1.0,0.0
1701798825.032567,-1.0,-1.0,1.0,0.0,3.0,1.0,0.0,0.0
1701798825.0422556,0.0,-1.0,-1.0,-1.0,-1.0,-2.0,-2.0,-1.0
1701798825.0622523,0.0,0.0,-3.0,-2.0,-3.0,-2.0,-3.0,-2.0
1701798825.0622523,1.0,-2.0,-2.0,-3.0,-3.0,-3.0,-4.0,1.0
1701798825.0622523,-3.0,1.0,2.0,-3.0,-3.0,-4.0,-3.0,-1.0
1701798825.0622523,-1.0,-2.0,-1.0,-1.0,-1.0,1.0,0.0,0.0
1701798825.0622523,-1.0,-1.0,2.0,-1.0,-1.0,-3.0,-1.0,-2.0
1701798825.0622523,-1.0,0.0,-2.0,-2.0,-2.0,1.0,-3.0,-3.0
1701798825.0725198,-1.0,0.0,0.0,-3.0,-2.0,-1.0,6.0,1.0
1701798825.0725198,-1.0,1.0,3.0,-1.0,-6.0,-7.0,-3.0,-5.0
1701798825.0925736,-1.0,-7.0,-9.0,1.0,3.0,-1.0,5.0,1.0
1701798825.0925736,-1.0,2.0,5.0,3.0,3.0,7.0,-4.0,-1.0
1701798825.0925736,-1.0,-2.0,2.0,-1.0,-1.0,2.0,-1.0,0.0
1701798825.0925736,-1.0,-1.0,-2.0,-4.0,-3.0,-1.0,-1.0,-2.0
1701798825.112252,-1.0,-1.0,-1.0,-2.0,-5.0,-5.0,-2.0,0.0
1701798825.112252,-1.0,1.0,-3.0,0.0,-3.0,-9.0,-1.0,-4.0
1701798825.112252,-1.0,0.0,1.0,3.0,13.0,10.0,3.0,-1.0
1701798825.112252,0.0,-1.0,1.0,0.0,4.0,4.0,-1.0,-3.0
1701798825.1325412,0.0,1.0,-3.0,-4.0,-3.0,-4.0,-4.0,-2.0
1701798825.1325412,-1.0,-3.0,-4.0,-5.0,-9.0,-11.0,-1.0,0.0
1701798825.1422591,-1.0,-2.0,-1.0,-4.0,-12.0,-8.0,-3.0,-4.0
1701798825.1422591,-1.0,-1.0,-4.0,-2.0,-3.0,-5.0,2.0,0.0
1701798825.1525004,-1.0,-1.0,-1.0,0.0,2.0,7.0,-5.0,-2.0
1701798825.1525004,-3.0,-2.0,-3.0,-1.0,1.0,0.0,-13.0,-6.0
1701798825.1525004,2.0,-1.0,0.0,-3.0,-2.0,-1.0,12.0,0.0
1701798825.1623175,-1.0,-1.0,-3.0,-4.0,2.0,-1.0,1.0,-1.0
1701798825.1723282,1.0,0.0,3.0,-1.0,-11.0,-5.0,0.0,2.0
1701798825.1723282,-1.0,-3.0,0.0,0.0,-7.0,-10.0,0.0,1.0
1701798825.1723282,-1.0,0.0,0.0,2.0,14.0,6.0,-4.0,-2.0
1701798825.1723282,-1.0,-1.0,1.0,0.0,5.0,13.0,0.0,-1.0
1701798825.1926017,0.0,-3.0,-3.0,-5.0,6.0,-4.0,-2.0,-1.0
1701798825.1926017,-1.0,-2.0,-1.0,-3.0,-13.0,-10.0,-2.0,-3.0
1701798825.1926017,-2.0,0.0,0.0,-1.0,-19.0,-5.0,-5.0,0.0
1701798825.1926017,1.0,0.0,2.0,5.0,15.0,17.0,4.0,2.0
1701798825.2126815,0.0,-2.0,-1.0,1.0,9.0,6.0,-1.0,0.0
1701798825.2126815,-3.0,-1.0,-3.0,-2.0,-1.0,-5.0,3.0,1.0
1701798825.2327023,-3.0,-2.0,-3.0,-5.0,-9.0,-11.0,-5.0,-3.0
1701798825.242697,0.0,-2.0,-2.0,-3.0,-12.0,-9.0,-7.0,-4.0
1701798825.242697,-1.0,1.0,1.0,-4.0,-5.0,-4.0,-2.0,-3.0
1701798825.242697,0.0,1.0,-3.0,-1.0,0.0,4.0,1.0,1.0
1701798825.242697,-2.0,1.0,-3.0,-1.0,-3.0,1.0,-3.0,-2.0
1701798825.242697,-1.0,-1.0,-2.0,-4.0,4.0,0.0,-5.0,-1.0
1701798825.2527208,0.0,-1.0,0.0,5.0,5.0,-5.0,1.0,-1.0
1701798825.2527208,-1.0,0.0,0.0,-4.0,-6.0,-3.0,1.0,1.0
1701798825.2527208,-1.0,-1.0,1.0,0.0,-8.0,1.0,1.0,0.0
1701798825.2527208,-1.0,-2.0,-2.0,-10.0,-9.0,-2.0,1.0,-3.0
1701798825.2726984,-2.0,-1.0,-2.0,-3.0,0.0,-2.0,-1.0,-3.0
1701798825.2726984,3.0,2.0,7.0,29.0,45.0,25.0,3.0,3.0
1701798825.2726984,0.0,0.0,-3.0,-10.0,-8.0,-2.0,-3.0,1.0
1701798825.2726984,-1.0,3.0,4.0,4.0,0.0,-6.0,-3.0,0.0
1701798825.2930555,-2.0,-2.0,-2.0,1.0,-7.0,-3.0,1.0,-2.0
1701798825.2930555,-1.0,-1.0,-1.0,-11.0,-13.0,-6.0,-4.0,-2.0
1701798825.2930555,-2.0,-1.0,0.0,-4.0,-3.0,-6.0,-4.0,-1.0
1701798825.2930555,-3.0,-1.0,-3.0,-9.0,-19.0,-9.0,-1.0,-2.0
1701798825.3130283,-1.0,-1.0,-2.0,-20.0,-24.0,-9.0,-5.0,-2.0
1701798825.3130283,2.0,0.0,-1.0,16.0,49.0,27.0,7.0,3.0
1701798825.3130283,-1.0,-3.0,-2.0,10.0,12.0,7.0,1.0,-1.0
1701798825.3130283,0.0,-1.0,-2.0,-13.0,-31.0,-10.0,-4.0,0.0
1701798825.3333743,-1.0,-3.0,-5.0,3.0,5.0,-1.0,-1.0,-2.0
1701798825.3333743,-2.0,0.0,5.0,-3.0,-12.0,-4.0,-1.0,-1.0
1701798825.3430264,0.0,0.0,1.0,-5.0,-12.0,-12.0,-5.0,-3.0
1701798825.3430264,0.0,-3.0,8.0,3.0,19.0,11.0,4.0,1.0
1701798825.35306,-1.0,3.0,-34.0,-5.0,-21.0,-9.0,-2.0,-1.0
1701798825.35306,-1.0,-8.0,-6.0,-17.0,0.0,-6.0,0.0,-1.0
1701798825.35306,3.0,4.0,9.0,37.0,40.0,23.0,5.0,2.0
1701798825.35306,-3.0,-5.0,-10.0,-4.0,-19.0,-16.0,-6.0,-3.0
1701798825.3734043,-1.0,0.0,7.0,-6.0,-5.0,1.0,-1.0,-1.0
1701798825.3734043,-3.0,-3.0,-6.0,-13.0,-25.0,-12.0,-2.0,-5.0
1701798825.3734043,-1.0,1.0,-2.0,-15.0,-21.0,-8.0,-1.0,0.0
1701798825.3734043,-1.0,0.0,-2.0,-10.0,6.0,1.0,-1.0,0.0
1701798825.3930259,0.0,-1.0,12.0,22.0,12.0,2.0,-3.0,-2.0
1701798825.3930259,1.0,1.0,0.0,-7.0,-9.0,-4.0,-2.0,0.0
1701798825.3930259,0.0,-6.0,-7.0,10.0,8.0,-2.0,-2.0,-2.0
1701798825.3930259,-2.0,-4.0,-5.0,1.0,1.0,1.0,0.0,-2.0
1701798825.4193249,-2.0,-2.0,-4.0,-7.0,-4.0,2.0,2.0,1.0
1701798825.4193249,-1.0,1.0,-5.0,-8.0,-19.0,-11.0,-3.0,-2.0
1701798825.4193249,-2.0,0.0,4.0,-4.0,4.0,-2.0,-2.0,1.0
1701798825.4193249,-1.0,-4.0,-1.0,9.0,3.0,-6.0,-6.0,-2.0
1701798825.444459,0.0,-1.0,3.0,4.0,-6.0,4.0,-2.0,0.0
1701798825.444459,2.0,15.0,33.0,0.0,12.0,10.0,8.0,3.0
1701798825.444459,-2.0,-13.0,-31.0,-5.0,3.0,-4.0,-1.0,-2.0
1701798825.444459,-1.0,0.0,2.0,3.0,8.0,-2.0,-2.0,-1.0
1701798825.444459,-1.0,-2.0,1.0,-6.0,4.0,-2.0,-1.0,-4.0
1701798825.444459,-2.0,0.0,6.0,-3.0,-19.0,-5.0,-4.0,1.0
1701798825.4547067,3.0,7.0,10.0,-3.0,12.0,6.0,2.0,1.0
1701798825.4547067,-1.0,5.0,11.0,24.0,-1.0,0.0,1.0,0.0
1701798825.4748087,-2.0,-2.0,7.0,-3.0,1.0,-3.0,1.0,-2.0
1701798825.4748087,-3.0,-4.0,-18.0,0.0,-10.0,-7.0,-4.0,-4.0
1701798825.4748087,-2.0,-1.0,5.0,-18.0,-16.0,-4.0,-3.0,-3.0
1701798825.4748087,0.0,0.0,-8.0,-2.0,12.0,4.0,3.0,2.0
1701798825.5044398,0.0,0.0,3.0,6.0,7.0,7.0,4.0,1.0
1701798825.5044398,-1.0,-2.0,-3.0,2.0,0.0,5.0,0.0,-3.0
1701798825.5044398,-1.0,-3.0,-20.0,-11.0,-3.0,-5.0,-4.0,-2.0
1701798825.5044398,1.0,6.0,30.0,9.0,8.0,3.0,-1.0,0.0
1701798825.5044398,-4.0,-4.0,-23.0,-6.0,-2.0,-1.0,-2.0,-1.0
1701798825.5044398,0.0,-4.0,-16.0,-7.0,-11.0,-9.0,-5.0,-2.0
1701798825.5146976,1.0,7.0,-3.0,6.0,10.0,1.0,-1.0,-2.0
1701798825.5146976,-1.0,2.0,15.0,6.0,-1.0,1.0,2.0,1.0
1701798825.5348194,-3.0,-12.0,12.0,6.0,19.0,10.0,3.0,0.0
1701798825.5348194,-5.0,-1.0,-3.0,22.0,1.0,-2.0,-2.0,-4.0
1701798825.5348194,-1.0,-10.0,-12.0,-26.0,-13.0,-5.0,-4.0,-1.0
1701798825.5348194,1.0,-3.0,-20.0,-11.0,-10.0,-6.0,-2.0,-2.0
1701798825.5644388,-1.0,2.0,21.0,12.0,9.0,0.0,-2.0,0.0
1701798825.5644388,0.0,-1.0,-3.0,8.0,5.0,3.0,2.0,0.0
1701798825.5644388,-2.0,5.0,10.0,-9.0,-9.0,-3.0,0.0,-2.0
1701798825.5644388,-3.0,0.0,8.0,-14.0,-4.0,-3.0,-2.0,-3.0
1701798825.5644388,-1.0,-8.0,-27.0,-8.0,-8.0,1.0,-1.0,-1.0
1701798825.5644388,0.0,-3.0,-2.0,-13.0,1.0,-4.0,-5.0,-1.0
1701798825.5747006,2.0,7.0,6.0,10.0,1.0,-2.0,-2.0,-1.0
1701798825.5747006,-1.0,-10.0,-11.0,-3.0,-4.0,-2.0,-2.0,-2.0
1701798825.5946977,-1.0,2.0,13.0,-4.0,-2.0,1.0,1.0,0.0
1701798825.5946977,-4.0,-3.0,5.0,15.0,4.0,3.0,1.0,1.0
1701798825.5946977,-2.0,-3.0,-2.0,-14.0,-14.0,-7.0,-2.0,-1.0
1701798825.5946977,1.0,3.0,-16.0,-14.0,-6.0,0.0,-1.0,-1.0
1701798825.6145217,5.0,3.0,2.0,15.0,21.0,3.0,2.0,2.0
1701798825.6145217,-2.0,-1.0,17.0,3.0,0.0,-4.0,-3.0,-1.0
1701798825.6145217,-5.0,-4.0,1.0,7.0,2.0,2.0,2.0,0.0
1701798825.6145217,-3.0,-3.0,-36.0,-10.0,-10.0,-4.0,-2.0,-1.0
1701798825.6248815,1.0,7.0,8.0,-8.0,-9.0,1.0,-1.0,0.0
1701798825.6248815,0.0,-1.0,-30.0,-4.0,6.0,0.0,-1.0,-1.0
1701798825.6348293,0.0,-1.0,3.0,-5.0,-10.0,-4.0,-1.0,-3.0
1701798825.6348293,0.0,-1.0,-2.0,8.0,7.0,-1.0,0.0,-2.0
1701798825.6645796,-3.0,10.0,8.0,-1.0,-7.0,-4.0,-2.0,-3.0
1701798825.6645796,-3.0,-5.0,-6.0,-7.0,-7.0,-6.0,-3.0,-4.0
1701798825.6645796,0.0,0.0,11.0,16.0,19.0,10.0,4.0,2.0
1701798825.6645796,0.0,-1.0,23.0,11.0,5.0,5.0,0.0,1.0
1701798825.6748772,-3.0,-7.0,-42.0,-21.0,-8.0,-5.0,-3.0,-2.0
1701798825.6748772,2.0,3.0,9.0,-5.0,-4.0,-3.0,-2.0,-2.0
1701798825.6748772,-3.0,-6.0,-15.0,-1.0,3.0,-2.0,0.0,-1.0
1701798825.6748772,0.0,3.0,11.0,7.0,6.0,1.0,0.0,1.0
1701798825.6848845,0.0,0.0,19.0,-5.0,-4.0,-2.0,-1.0,1.0
1701798825.6848845,-1.0,-4.0,-18.0,4.0,2.0,-1.0,0.0,-2.0
1701798825.704577,-4.0,-6.0,-9.0,-2.0,-4.0,-6.0,-1.0,-3.0
1701798825.704577,-1.0,1.0,0.0,-2.0,9.0,4.0,1.0,0.0
1701798825.724577,-4.0,-2.0,9.0,7.0,-5.0,-3.0,-1.0,-2.0
1701798825.724577,2.0,2.0,-8.0,-9.0,-2.0,0.0,-1.0,-1.0
1701798825.724577,-1.0,0.0,12.0,7.0,-8.0,-2.0,-2.0,1.0
1701798825.724577,-1.0,-1.0,-1.0,-4.0,-9.0,-2.0,-3.0,-2.0
1701798825.7348921,-2.0,8.0,4.0,-24.0,-8.0,-4.0,-3.0,-4.0
1701798825.7348921,2.0,-7.0,-7.0,16.0,12.0,8.0,3.0,3.0
1701798825.7348921,-1.0,-2.0,14.0,12.0,8.0,0.0,-4.0,-4.0
1701798825.7348921,-4.0,-9.0,-5.0,7.0,4.0,4.0,3.0,2.0
1701798825.744636,0.0,0.0,0.0,6.0,-2.0,-4.0,-2.0,-2.0
1701798825.744636,-3.0,0.0,12.0,-19.0,-8.0,-2.0,-1.0,0.0
1701798825.75485,-2.0,0.0,-7.0,0.0,-6.0,-4.0,-1.0,0.0
1701798825.75485,-2.0,7.0,-12.0,-6.0,-1.0,-3.0,-2.0,-3.0
1701798825.784579,0.0,-1.0,11.0,10.0,-1.0,0.0,0.0,-2.0
1701798825.784579,-2.0,2.0,18.0,7.0,-4.0,-2.0,-2.0,0.0
1701798825.784579,0.0,4.0,-18.0,-19.0,-4.0,-1.0,-2.0,0.0
1701798825.784579,-2.0,1.0,22.0,-2.0,-2.0,-3.0,-2.0,-2.0
1701798825.794608,-1.0,-5.0,-29.0,-6.0,1.0,-1.0,1.0,-1.0
1701798825.794608,3.0,12.0,30.0,9.0,2.0,-1.0,2.0,-2.0
1701798825.794608,0.0,-13.0,-28.0,-7.0,-14.0,-4.0,-2.0,0.0
1701798825.794608,2.0,-4.0,-2.0,10.0,19.0,6.0,2.0,1.0
1701798825.8048854,0.0,-1.0,-12.0,-1.0,-2.0,-3.0,-3.0,-2.0
1701798825.8048854,-2.0,0.0,1.0,1.0,4.0,0.0,-3.0,-2.0
1701798825.81483,0.0,3.0,1.0,-19.0,-3.0,1.0,-1.0,-2.0
1701798825.81483,-1.0,-4.0,0.0,3.0,-5.0,-3.0,-3.0,-2.0
1701798825.8445766,1.0,0.0,7.0,5.0,4.0,3.0,0.0,0.0
1701798825.8445766,1.0,-1.0,1.0,-8.0,0.0,-2.0,0.0,1.0
1701798825.8445766,-2.0,-7.0,-16.0,-6.0,-7.0,-4.0,-3.0,-3.0
1701798825.8445766,-9.0,-3.0,-1.0,-6.0,-6.0,-2.0,-1.0,-2.0
1701798825.8547907,5.0,6.0,22.0,9.0,4.0,1.0,0.0,1.0
1701798825.8547907,-3.0,-17.0,-60.0,-18.0,-10.0,-2.0,1.0,-2.0
1701798825.8547907,-2.0,-4.0,35.0,9.0,8.0,-1.0,-2.0,-1.0
1701798825.8547907,-1.0,-1.0,-14.0,-3.0,-9.0,-7.0,-1.0,-3.0
1701798825.8647664,-4.0,-8.0,-8.0,16.0,3.0,1.0,3.0,1.0
1701798825.8745894,-2.0,-3.0,-9.0,-31.0,1.0,3.0,3.0,1.0
1701798825.8945785,5.0,4.0,-15.0,-5.0,-3.0,1.0,1.0,4.0
1701798825.8945785,0.0,-8.0,-3.0,0.0,-2.0,-1.0,-2.0,-2.0
1701798825.914578,-2.0,5.0,21.0,7.0,-1.0,-7.0,-4.0,-2.0
1701798825.914578,-3.0,-1.0,-1.0,7.0,-3.0,0.0,-3.0,-3.0
1701798825.914578,-2.0,4.0,20.0,12.0,4.0,1.0,0.0,-1.0
1701798825.914578,2.0,1.0,-26.0,-16.0,-5.0,-2.0,-2.0,-2.0
1701798825.914578,-1.0,-7.0,-7.0,-3.0,-3.0,-1.0,-1.0,-3.0
1701798825.914578,0.0,3.0,0.0,1.0,-1.0,-2.0,0.0,-2.0
1701798825.914578,-1.0,0.0,27.0,19.0,-1.0,0.0,-1.0,-2.0
1701798825.914578,3.0,4.0,14.0,12.0,1.0,-2.0,-1.0,-2.0
1701798825.9248781,-2.0,-6.0,-26.0,-30.0,-2.0,0.0,2.0,0.0
1701798825.9248781,1.0,0.0,9.0,-7.0,1.0,-2.0,-2.0,-1.0
1701798825.9521034,-3.0,-5.0,-25.0,-11.0,-12.0,-6.0,-3.0,-4.0
1701798825.9521034,-1.0,6.0,20.0,50.0,11.0,6.0,2.0,2.0
1701798825.9572682,1.0,-1.0,-12.0,-32.0,-1.0,3.0,2.0,-1.0
1701798825.9572682,-8.0,-4.0,29.0,12.0,-1.0,-1.0,1.0,-2.0
1701798825.9588072,2.0,-1.0,0.0,8.0,-2.0,-1.0,-2.0,1.0
1701798825.9588072,2.0,-3.0,-10.0,-29.0,-8.0,-7.0,-7.0,-1.0
1701798825.9712484,-1.0,2.0,2.0,8.0,1.0,0.0,0.0,0.0
1701798825.9712484,0.0,5.0,2.0,-1.0,1.0,2.0,0.0,-1.0
1701798825.9808567,-1.0,1.0,2.0,1.0,-2.0,-3.0,0.0,0.0
1701798825.9808567,-1.0,-1.0,2.0,-4.0,0.0,1.0,2.0,1.0
1701798825.9911911,0.0,-2.0,29.0,14.0,-3.0,-4.0,-2.0,-2.0
1701798825.9911911,-1.0,-6.0,-33.0,-28.0,-7.0,-5.0,-4.0,-2.0
1701798826.010853,-3.0,3.0,18.0,14.0,1.0,-3.0,-1.0,-3.0
1701798826.010853,3.0,3.0,-8.0,-4.0,6.0,6.0,3.0,3.0
1701798826.010853,-2.0,-4.0,-19.0,-17.0,-4.0,0.0,-1.0,0.0
1701798826.010853,-3.0,3.0,43.0,38.0,-5.0,-3.0,-4.0,-2.0
1701798826.0309503,2.0,2.0,-6.0,-30.0,-5.0,0.0,1.0,5.0
1701798826.0309503,-5.0,1.0,6.0,-10.0,-2.0,-2.0,-2.0,-8.0
1701798826.0309503,-6.0,-17.0,-29.0,-12.0,-2.0,1.0,-1.0,3.0
1701798826.0309503,6.0,1.0,1.0,23.0,1.0,-2.0,-6.0,-2.0
1701798826.0408568,0.0,-1.0,-6.0,2.0,1.0,2.0,-1.0,1.0
1701798826.0408568,-1.0,-2.0,-5.0,-1.0,-5.0,-2.0,0.0,1.0
1701798826.0708513,-2.0,3.0,-11.0,-5.0,6.0,5.0,3.0,0.0
1701798826.0708513,-9.0,-2.0,22.0,12.0,-4.0,-3.0,-1.0,0.0
1701798826.0708513,2.0,-3.0,-25.0,-13.0,0.0,-3.0,-2.0,0.0
1701798826.0708513,2.0,-5.0,1.0,-13.0,-8.0,-5.0,-4.0,-3.0
1701798826.0708513,2.0,5.0,8.0,12.0,0.0,-4.0,-5.0,-1.0
1701798826.0708513,0.0,-3.0,-10.0,-11.0,7.0,6.0,5.0,1.0
1701798826.081179,-4.0,3.0,9.0,2.0,4.0,1.0,2.0,-3.0
1701798826.081179,-2.0,-5.0,-18.0,5.0,-2.0,-1.0,0.0,2.0
1701798826.0911984,0.0,3.0,3.0,-25.0,-9.0,-8.0,-7.0,-4.0
1701798826.0911984,-4.0,-5.0,3.0,11.0,-3.0,-4.0,-2.0,-2.0
1701798826.1008666,-4.0,-2.0,10.0,7.0,4.0,1.0,1.0,1.0
1701798826.1008666,9.0,-4.0,-14.0,-8.0,-2.0,-2.0,1.0,0.0
1701798826.1210082,-14.0,-1.0,9.0,17.0,2.0,-1.0,-3.0,-4.0
1701798826.1210082,-1.0,2.0,-17.0,-24.0,-2.0,1.0,2.0,-1.0
1701798826.1210082,0.0,-2.0,14.0,9.0,-1.0,-6.0,-5.0,-2.0
1701798826.1210082,-6.0,-2.0,3.0,-7.0,-3.0,-1.0,-2.0,-6.0
1701798826.1308625,4.0,1.0,1.0,16.0,-1.0,-2.0,-2.0,0.0
1701798826.1308625,0.0,-3.0,0.0,-6.0,-1.0,1.0,-1.0,-2.0
1701798826.1410491,-1.0,0.0,-19.0,-8.0,3.0,3.0,0.0,-1.0
1701798826.1410491,-1.0,-2.0,4.0,-3.0,0.0,-3.0,-3.0,2.0
1701798826.1510901,2.0,1.0,-3.0,0.0,-4.0,-4.0,-4.0,0.0
1701798826.1510901,4.0,-1.0,-12.0,-7.0,0.0,-3.0,-16.0,-3.0
1701798826.1608543,-16.0,0.0,9.0,-2.0,-2.0,1.0,9.0,-2.0
1701798826.1608543,-4.0,1.0,9.0,12.0,-2.0,2.0,6.0,1.0
1701798826.180886,6.0,1.0,7.0,4.0,4.0,1.0,5.0,-3.0
1701798826.180886,-7.0,-7.0,-26.0,-13.0,-2.0,-1.0,3.0,4.0
1701798826.180886,16.0,1.0,-1.0,9.0,-2.0,-1.0,-4.0,0.0
1701798826.180886,-7.0,-2.0,22.0,5.0,-2.0,-4.0,-5.0,-3.0
1701798826.1912174,-7.0,1.0,-41.0,-16.0,-3.0,-4.0,-19.0,-2.0
1701798826.1912174,-2.0,4.0,17.0,17.0,0.0,-6.0,-12.0,-2.0
1701798826.201154,24.0,-8.0,-40.0,-16.0,-4.0,-3.0,1.0,5.0
1701798826.201154,-9.0,1.0,1.0,-3.0,2.0,10.0,34.0,7.0
1701798826.2111855,16.0,3.0,15.0,3.0,1.0,2.0,6.0,1.0
1701798826.2111855,0.0,0.0,4.0,-2.0,0.0,1.0,-2.0,-2.0
1701798826.2208567,-14.0,-2.0,-17.0,-5.0,-3.0,-9.0,-25.0,-7.0
1701798826.2208567,-1.0,-2.0,8.0,3.0,-3.0,-5.0,-9.0,1.0
1701798826.2508526,-8.0,-5.0,-1.0,1.0,0.0,2.0,17.0,2.0
1701798826.2508526,2.0,-2.0,-9.0,-6.0,-3.0,2.0,9.0,-2.0
1701798826.2508526,-7.0,-1.0,20.0,3.0,0.0,2.0,4.0,-2.0
1701798826.2508526,9.0,-2.0,-13.0,-3.0,1.0,-4.0,-11.0,-1.0
1701798826.2508526,-2.0,-2.0,10.0,4.0,0.0,-3.0,-8.0,0.0
1701798826.2508526,7.0,-4.0,-8.0,-4.0,-2.0,-5.0,-1.0,1.0
1701798826.261004,-3.0,2.0,4.0,0.0,-2.0,-1.0,-1.0,-3.0
1701798826.261004,-23.0,-6.0,-3.0,-1.0,-3.0,-8.0,-29.0,-8.0
1701798826.3008513,4.0,-3.0,1.0,0.0,-1.0,-2.0,7.0,-2.0
1701798826.3008513,-15.0,-6.0,-3.0,-8.0,-2.0,2.0,20.0,1.0
1701798826.3008513,-3.0,9.0,3.0,3.0,0.0,0.0,5.0,-2.0
1701798826.3008513,6.0,0.0,-11.0,-10.0,0.0,-1.0,2.0,0.0
1701798826.3008513,-4.0,0.0,11.0,6.0,-1.0,-3.0,-9.0,0.0
1701798826.3008513,11.0,-4.0,-6.0,0.0,-3.0,-4.0,-9.0,-1.0
1701798826.3008513,-1.0,-3.0,1.0,0.0,-2.0,-1.0,-3.0,-5.0
1701798826.3008513,6.0,1.0,0.0,-3.0,-2.0,0.0,5.0,-1.0
1701798826.3111217,-10.0,-1.0,2.0,4.0,0.0,1.0,-1.0,-1.0
1701798826.3111217,7.0,0.0,-3.0,-3.0,-3.0,-2.0,-2.0,2.0
1701798826.3211572,-6.0,-4.0,1.0,0.0,1.0,3.0,5.0,3.0
1701798826.3211572,5.0,0.0,0.0,-1.0,-1.0,-2.0,-4.0,0.0
1701798826.3408518,-9.0,-3.0,1.0,1.0,-2.0,-1.0,1.0,-2.0
1701798826.3408518,-3.0,4.0,1.0,0.0,-1.0,2.0,-1.0,-2.0
1701798826.3408518,10.0,7.0,4.0,1.0,-1.0,-3.0,-4.0,-3.0
1701798826.3408518,-18.0,-10.0,0.0,0.0,1.0,-1.0,0.0,-2.0
1701798826.3611357,-1.0,-2.0,-1.0,-1.0,-1.0,-1.0,1.0,0.0
1701798826.3611357,-4.0,-2.0,-1.0,0.0,0.0,-1.0,-4.0,-1.0
1701798826.3611357,-9.0,-3.0,1.0,-2.0,-1.0,-2.0,-2.0,0.0
1701798826.3611357,3.0,4.0,-5.0,-2.0,-3.0,1.0,0.0,-2.0
1701798826.3710864,4.0,1.0,0.0,-1.0,-2.0,-2.0,-4.0,0.0
1701798826.3710864,0.0,-1.0,1.0,1.0,1.0,-1.0,0.0,-1.0
1701798826.3810737,-5.0,-5.0,-3.0,-2.0,-2.0,-1.0,2.0,1.0
1701798826.3810737,1.0,3.0,-1.0,-2.0,-1.0,1.0,0.0,2.0
1701798826.4208565,-1.0,-3.0,2.0,-3.0,-2.0,-1.0,-2.0,-4.0
1701798826.4208565,-2.0,-1.0,-4.0,-1.0,1.0,0.0,0.0,-2.0
1701798826.4208565,-1.0,-6.0,0.0,3.0,0.0,1.0,1.0,-2.0
1701798826.4208565,0.0,-3.0,-2.0,-4.0,-2.0,-2.0,-2.0,-3.0
1701798826.4208565,0.0,3.0,2.0,0.0,-1.0,0.0,-1.0,0.0
1701798826.4208565,-6.0,-2.0,-2.0,-2.0,0.0,-2.0,-1.0,0.0
1701798826.4208565,4.0,-1.0,-4.0,-3.0,0.0,-1.0,-3.0,0.0
1701798826.4208565,-1.0,-9.0,-3.0,1.0,-1.0,-1.0,-2.0,1.0
1701798826.430902,1.0,-5.0,5.0,-3.0,-1.0,0.0,-1.0,-3.0
1701798826.430902,-1.0,0.0,-2.0,2.0,3.0,-2.0,2.0,-1.0
1701798826.4508522,-3.0,-6.0,-1.0,-2.0,-2.0,-1.0,-2.0,-3.0
1701798826.4508522,4.0,9.0,-5.0,-2.0,-2.0,-2.0,0.0,0.0
1701798826.4508522,0.0,0.0,1.0,-4.0,-4.0,0.0,0.0,-1.0
1701798826.4508522,-1.0,-1.0,5.0,2.0,1.0,0.0,-3.0,0.0
1701798826.4608572,-6.0,-4.0,0.0,3.0,-1.0,-1.0,-1.0,-1.0
1701798826.4608572,3.0,1.0,-2.0,-4.0,-1.0,-1.0,-2.0,-1.0
1701798826.481855,-1.0,0.0,-9.0,-2.0,-1.0,-3.0,-3.0,-1.0
1701798826.481855,-3.0,-2.0,4.0,-3.0,-1.0,3.0,0.0,-1.0
1701798826.4836287,-1.0,1.0,-2.0,-1.0,-2.0,-2.0,-2.0,-1.0
1701798826.4836287,-2.0,-4.0,-2.0,-2.0,-3.0,-2.0,-1.0,-2.0
1701798826.5040164,1.0,-1.0,-3.0,1.0,1.0,0.0,-2.0,0.0
1701798826.5040164,0.0,1.0,-1.0,-4.0,-3.0,-3.0,-2.0,-1.0
1701798826.5040164,1.0,4.0,-1.0,-4.0,-2.0,-1.0,-2.0,-1.0
1701798826.5040164,-2.0,-3.0,-11.0,-1.0,-2.0,-2.0,-3.0,0.0
1701798826.5136669,-1.0,0.0,8.0,3.0,1.0,-1.0,1.0,0.0
1701798826.5136669,-1.0,-2.0,3.0,-2.0,-2.0,0.0,0.0,-3.0
1701798826.5136669,1.0,-6.0,-9.0,-2.0,1.0,-3.0,0.0,0.0
1701798826.5136669,-2.0,0.0,1.0,-1.0,-1.0,0.0,0.0,-1.0
1701798826.544046,-1.0,-2.0,-7.0,0.0,-3.0,-1.0,0.0,-3.0
1701798826.544046,-3.0,0.0,-1.0,0.0,-2.0,-1.0,-4.0,0.0
1701798826.544046,0.0,1.0,6.0,0.0,0.0,-2.0,-1.0,1.0
1701798826.544046,2.0,1.0,-1.0,0.0,-1.0,-1.0,-1.0,1.0
1701798826.5541086,-2.0,-1.0,-6.0,-1.0,0.0,-4.0,-3.0,1.0
1701798826.5541086,0.0,0.0,-1.0,-3.0,-3.0,-1.0,-1.0,-2.0
1701798826.5640352,-2.0,-3.0,0.0,-1.0,2.0,0.0,0.0,-3.0
1701798826.5640352,0.0,0.0,0.0,-2.0,-1.0,-1.0,0.0,0.0
1701798826.5742402,-2.0,-2.0,0.0,-3.0,0.0,0.0,-2.0,0.0
1701798826.5742402,-1.0,-5.0,0.0,-1.0,0.0,-2.0,0.0,-2.0
1701798826.5742402,-1.0,2.0,-2.0,-2.0,-1.0,-1.0,-1.0,-1.0
1701798826.5742402,0.0,-1.0,1.0,-1.0,-1.0,0.0,0.0,-2.0
1701798826.6043255,-1.0,0.0,-3.0,-1.0,-1.0,-2.0,1.0,-1.0
1701798826.6043255,-1.0,3.0,-6.0,-2.0,-4.0,-2.0,-2.0,-1.0
1701798826.6043255,-1.0,0.0,-1.0,-1.0,0.0,0.0,0.0,0.0
1701798826.6043255,-1.0,2.0,2.0,1.0,-2.0,-1.0,-1.0,-2.0
1701798826.6140518,-1.0,-5.0,0.0,0.0,0.0,0.0,-2.0,-2.0
1701798826.6140518,0.0,-1.0,-5.0,-2.0,-1.0,-1.0,1.0,-1.0
1701798826.624039,-1.0,0.0,4.0,-3.0,-1.0,1.0,-1.0,-2.0
1701798826.624039,-2.0,-1.0,-1.0,-2.0,-1.0,-1.0,1.0,-2.0
1701798826.6340685,0.0,-1.0,0.0,-3.0,0.0,-1.0,-2.0,0.0
1701798826.6340685,-1.0,-1.0,-5.0,-1.0,-1.0,-1.0,-2.0,-2.0
1701798826.6340685,1.0,2.0,14.0,1.0,-1.0,-1.0,-2.0,-1.0
1701798826.6340685,0.0,-1.0,-1.0,-1.0,1.0,0.0,-3.0,0.0
1701798826.6543195,0.0,1.0,5.0,0.0,-1.0,1.0,-1.0,-2.0
1701798826.6543195,-2.0,-3.0,-7.0,-1.0,-2.0,-1.0,0.0,1.0
1701798826.6640399,-1.0,-4.0,-1.0,0.0,-3.0,0.0,1.0,-1.0
1701798826.6640399,-2.0,-4.0,-6.0,-2.0,-2.0,-3.0,-1.0,-2.0
1701798826.6741042,-1.0,2.0,2.0,1.0,-2.0,-1.0,0.0,0.0
1701798826.6741042,-1.0,0.0,1.0,-4.0,0.0,-1.0,1.0,1.0
1701798826.704034,-1.0,-1.0,-3.0,-1.0,-1.0,-1.0,-2.0,-2.0
1701798826.704034,-1.0,0.0,5.0,-1.0,0.0,-2.0,-1.0,0.0
1701798826.704034,-3.0,-2.0,-7.0,0.0,-1.0,-1.0,-1.0,1.0
1701798826.704034,-2.0,1.0,-2.0,-2.0,-1.0,-1.0,-1.0,-1.0
1701798826.704034,-2.0,-4.0,-3.0,0.0,-3.0,0.0,-1.0,0.0
1701798826.704034,-1.0,0.0,-11.0,-3.0,-3.0,-1.0,-2.0,-1.0
1701798826.7142856,0.0,-2.0,3.0,0.0,-2.0,-1.0,-2.0,-1.0
1701798826.7142856,0.0,1.0,1.0,0.0,-1.0,-2.0,-1.0,-1.0
1701798826.7240374,-1.0,3.0,2.0,-3.0,0.0,-2.0,-3.0,0.0
1701798826.7240374,-1.0,0.0,1.0,-2.0,-1.0,-1.0,-1.0,-1.0
1701798826.7340386,0.0,-3.0,-9.0,-2.0,-2.0,-1.0,-1.0,-2.0
1701798826.7340386,-1.0,-1.0,-1.0,-1.0,-1.0,-1.0,-2.0,-2.0
1701798826.7440343,-2.0,0.0,2.0,0.0,-1.0,0.0,-1.0,-2.0
1701798826.7440343,-1.0,-3.0,-3.0,1.0,0.0,-1.0,1.0,0.0
1701798826.7542222,-2.0,-3.0,7.0,1.0,0.0,-2.0,1.0,-1.0
1701798826.7542222,0.0,-2.0,-5.0,-2.0,-4.0,-2.0,-2.0,-1.0
1701798826.7542222,-1.0,-3.0,0.0,-1.0,0.0,1.0,-1.0,-1.0
1701798826.7542222,-1.0,2.0,5.0,1.0,2.0,0.0,0.0,0.0
1701798826.7940397,-1.0,6.0,6.0,1.0,-2.0,-1.0,-1.0,1.0
1701798826.7940397,-2.0,-1.0,3.0,0.0,-3.0,-1.0,-3.0,-2.0
1701798826.814038,-1.0,-2.0,-6.0,1.0,1.0,0.0,0.0,1.0
1701798826.814038,1.0,-2.0,-1.0,-4.0,0.0,-1.0,-1.0,-2.0
1701798826.814038,-1.0,-3.0,-5.0,-2.0,-1.0,0.0,0.0,0.0
1701798826.814038,-1.0,2.0,-1.0,-1.0,-3.0,0.0,-1.0,0.0
1701798826.814038,0.0,-3.0,-2.0,-2.0,-4.0,-1.0,-1.0,1.0
1701798826.814038,-3.0,0.0,-2.0,-2.0,-3.0,-1.0,-1.0,-1.0
1701798826.814038,-1.0,5.0,8.0,-1.0,-2.0,-2.0,-2.0,-1.0
1701798826.814038,-1.0,-4.0,-11.0,-1.0,-1.0,0.0,0.0,-1.0
1701798826.814038,-2.0,-2.0,8.0,-2.0,-1.0,0.0,-1.0,-3.0
1701798826.814038,-1.0,-1.0,-1.0,-1.0,1.0,1.0,-3.0,-2.0
1701798826.8440373,-2.0,-4.0,-11.0,-4.0,0.0,0.0,-3.0,-2.0
1701798826.8440373,0.0,0.0,6.0,0.0,2.0,-2.0,0.0,-2.0
1701798826.8440373,0.0,-1.0,-12.0,-2.0,1.0,-2.0,-2.0,2.0
1701798826.8440373,0.0,-1.0,5.0,-3.0,-4.0,-2.0,0.0,0.0
1701798826.8540685,-1.0,0.0,-4.0,-4.0,-1.0,0.0,-1.0,-1.0
1701798826.8540685,0.0,5.0,9.0,0.0,-2.0,0.0,-1.0,-1.0
1701798826.8642106,-1.0,-1.0,5.0,1.0,0.0,-1.0,-2.0,-1.0
1701798826.8642106,-2.0,-11.0,-23.0,-1.0,-1.0,2.0,-2.0,-2.0
1701798826.8742733,0.0,0.0,-5.0,-2.0,-4.0,0.0,-1.0,0.0
1701798826.8742733,0.0,-4.0,1.0,0.0,5.0,-1.0,0.0,0.0
1701798826.8843162,0.0,5.0,0.0,-1.0,-1.0,-1.0,0.0,-2.0
1701798826.8843162,-1.0,2.0,14.0,-1.0,-2.0,-2.0,0.0,0.0
1701798826.904035,0.0,-4.0,-4.0,0.0,2.0,-1.0,0.0,-1.0
1701798826.904035,-1.0,-3.0,-8.0,-2.0,-3.0,-1.0,-5.0,1.0
1701798826.904035,-1.0,-2.0,-6.0,0.0,-1.0,-2.0,0.0,-1.0
1701798826.904035,-2.0,4.0,4.0,-6.0,-3.0,0.0,-2.0,-2.0
1701798826.9140346,-2.0,-7.0,6.0,-1.0,-1.0,-2.0,-2.0,-1.0
1701798826.9140346,-2.0,-1.0,-3.0,-3.0,-2.0,-1.0,-1.0,-3.0
1701798826.924114,0.0,-2.0,-6.0,-2.0,-1.0,-1.0,-1.0,-1.0
1701798826.924114,0.0,2.0,4.0,-2.0,-3.0,-1.0,-1.0,-1.0
1701798826.934408,1.0,1.0,0.0,-2.0,-2.0,-3.0,-1.0,-1.0
1701798826.934408,0.0,-1.0,1.0,0.0,5.0,3.0,1.0,-1.0
1701798826.9441116,-1.0,-1.0,2.0,-2.0,-5.0,-3.0,-2.0,-3.0
1701798826.9441116,1.0,9.0,15.0,0.0,2.0,0.0,0.0,-2.0
1701798826.9540358,-3.0,-15.0,-9.0,-2.0,-4.0,0.0,-1.0,-2.0
1701798826.9540358,-2.0,-6.0,-15.0,-4.0,0.0,-1.0,-2.0,-2.0
1701798826.9640417,-2.0,6.0,25.0,2.0,-2.0,1.0,0.0,-2.0
1701798826.9640417,-1.0,6.0,25.0,1.0,-6.0,-3.0,-2.0,0.0
1701798826.9742987,-4.0,-9.0,-47.0,-4.0,2.0,0.0,-1.0,-2.0
1701798826.9742987,0.0,-4.0,-2.0,1.0,2.0,0.0,0.0,-1.0
1701798826.984111,-1.0,0.0,-6.0,-1.0,4.0,0.0,0.0,0.0
1701798826.984111,2.0,11.0,33.0,5.0,-2.0,-1.0,-3.0,-1.0
1701798826.994295,2.0,9.0,21.0,-1.0,-5.0,-2.0,-1.0,1.0
1701798826.994295,-2.0,-16.0,-20.0,-7.0,-1.0,-3.0,-3.0,-2.0
1701798827.0058951,-1.0,-6.0,-5.0,-1.0,-14.0,-7.0,-1.0,0.0
1701798827.008887,-3.0,-13.0,-19.0,11.0,34.0,9.0,0.0,-2.0
1701798827.0362144,0.0,6.0,-17.0,8.0,7.0,3.0,-1.0,0.0
1701798827.0362144,0.0,8.0,26.0,3.0,3.0,1.0,2.0,-1.0
1701798827.0362144,-2.0,-2.0,-29.0,-9.0,-6.0,-2.0,-1.0,-1.0
1701798827.0362144,0.0,-3.0,9.0,-6.0,-13.0,-6.0,-1.0,0.0
1701798827.0362144,-3.0,3.0,17.0,-14.0,-12.0,-4.0,-2.0,-3.0
1701798827.0362144,0.0,9.0,-15.0,3.0,3.0,1.0,0.0,1.0
1701798827.046216,4.0,2.0,41.0,7.0,-3.0,1.0,1.0,0.0
1701798827.046216,-7.0,-12.0,-52.0,-17.0,-5.0,-4.0,-4.0,-5.0
1701798827.0565934,-3.0,-9.0,13.0,14.0,8.0,0.0,0.0,0.0
1701798827.0565934,0.0,8.0,-11.0,2.0,2.0,-2.0,-1.0,-2.0
1701798827.0662162,-1.0,-13.0,-14.0,-6.0,-2.0,-2.0,-2.0,0.0
1701798827.0662162,2.0,-5.0,24.0,2.0,-4.0,0.0,-1.0,1.0
1701798827.0762122,0.0,9.0,-48.0,-17.0,-17.0,-5.0,-3.0,-2.0
1701798827.0762122,-5.0,-10.0,5.0,7.0,12.0,1.0,-3.0,-3.0
1701798827.0762122,2.0,5.0,-9.0,3.0,-4.0,-2.0,0.0,1.0
1701798827.0762122,2.0,0.0,31.0,-3.0,-11.0,-4.0,-1.0,1.0
1701798827.0965903,-8.0,-30.0,-32.0,3.0,21.0,7.0,-2.0,-5.0
1701798827.0965903,2.0,17.0,31.0,2.0,-10.0,-7.0,0.0,0.0
1701798827.1062331,-5.0,-15.0,-74.0,-24.0,1.0,-2.0,-1.0,-3.0
1701798827.1062331,1.0,-2.0,-46.0,-6.0,-9.0,-2.0,0.0,1.0
1701798827.116592,1.0,8.0,35.0,-11.0,-7.0,-5.0,-1.0,-1.0
1701798827.116592,0.0,10.0,33.0,6.0,-8.0,-2.0,-3.0,-1.0
1701798827.126213,2.0,33.0,36.0,14.0,21.0,5.0,2.0,1.0
1701798827.1362112,-8.0,-54.0,-56.0,-21.0,-23.0,-8.0,-2.0,-4.0
1701798827.1362112,1.0,6.0,48.0,22.0,12.0,1.0,1.0,0.0
1701798827.1362112,-3.0,-5.0,1.0,-1.0,-31.0,-8.0,-2.0,-4.0
1701798827.1362112,-4.0,5.0,-2.0,-25.0,-2.0,-5.0,-4.0,-2.0
1701798827.1362112,1.0,15.0,-14.0,9.0,28.0,9.0,-1.0,0.0
1701798827.156494,3.0,7.0,5.0,4.0,-2.0,1.0,-1.0,-1.0
1701798827.156494,-1.0,-14.0,-13.0,0.0,19.0,6.0,1.0,1.0
1701798827.1662142,2.0,4.0,12.0,9.0,-6.0,-1.0,2.0,2.0
1701798827.1662142,-4.0,-3.0,-18.0,7.0,-6.0,-6.0,-4.0,-4.0
1701798827.1862128,1.0,1.0,4.0,-8.0,4.0,2.0,2.0,2.0
1701798827.1862128,-2.0,-6.0,-32.0,-19.0,-15.0,-5.0,-1.0,-2.0
1701798827.1862128,-4.0,-12.0,26.0,28.0,5.0,-1.0,-3.0,-5.0
1701798827.1862128,3.0,16.0,-5.0,-13.0,-1.0,-3.0,-3.0,2.0
1701798827.1965337,1.0,-10.0,-22.0,-33.0,-7.0,-1.0,-1.0,1.0
1701798827.1965337,-4.0,0.0,25.0,20.0,-4.0,-6.0,-6.0,-2.0
1701798827.1965337,0.0,-1.0,-12.0,-12.0,-9.0,-3.0,-1.0,-3.0
1701798827.1965337,1.0,-1.0,9.0,-5.0,-1.0,2.0,1.0,0.0
1701798827.2165816,0.0,15.0,5.0,17.0,11.0,-2.0,0.0,1.0
1701798827.2165816,-1.0,-5.0,30.0,9.0,-5.0,1.0,0.0,1.0
1701798827.2262547,-5.0,-12.0,-4.0,-5.0,13.0,11.0,1.0,-1.0
1701798827.2262547,1.0,1.0,3.0,4.0,-12.0,-6.0,-1.0,-2.0
1701798827.2362163,-3.0,-6.0,-15.0,-30.0,-11.0,-15.0,-8.0,-3.0
1701798827.2362163,-1.0,-2.0,-13.0,-1.0,-15.0,-12.0,-1.0,-1.0
1701798827.2462463,0.0,7.0,54.0,-3.0,-13.0,13.0,2.0,-1.0
1701798827.2462463,1.0,5.0,0.0,17.0,50.0,18.0,4.0,2.0
1701798827.2565713,0.0,-3.0,-15.0,11.0,-8.0,7.0,1.0,2.0
1701798827.2565713,0.0,1.0,-3.0,16.0,0.0,-11.0,-5.0,-4.0
1701798827.2565713,-2.0,-13.0,35.0,27.0,17.0,-8.0,-7.0,-3.0
1701798827.2565713,-1.0,1.0,-6.0,-46.0,-32.0,-8.0,0.0,-3.0
1701798827.2862134,1.0,0.0,6.0,15.0,3.0,7.0,6.0,1.0
1701798827.2862134,2.0,1.0,-22.0,-12.0,6.0,3.0,0.0,1.0
1701798827.2862134,0.0,1.0,-29.0,-29.0,-14.0,-10.0,-4.0,-1.0
1701798827.2862134,-2.0,0.0,-2.0,17.0,4.0,-6.0,-5.0,-1.0
1701798827.2962475,-5.0,-4.0,11.0,29.0,-21.0,-15.0,-5.0,-5.0
1701798827.2962475,-1.0,2.0,17.0,18.0,14.0,-4.0,-4.0,-2.0
1701798827.306556,-4.0,-6.0,-28.0,-25.0,3.0,-10.0,-1.0,-1.0
1701798827.306556,-2.0,6.0,24.0,3.0,-29.0,11.0,4.0,-2.0
1701798827.3165526,2.0,2.0,4.0,-5.0,27.0,38.0,7.0,1.0
1701798827.3165526,0.0,-1.0,-6.0,2.0,41.0,14.0,6.0,0.0
1701798827.3165526,4.0,4.0,-7.0,38.0,1.0,-5.0,-3.0,1.0
1701798827.3165526,-2.0,-2.0,-9.0,-37.0,-10.0,-26.0,-2.0,-1.0
1701798827.3462121,-2.0,-6.0,8.0,32.0,-28.0,-19.0,-2.0,-4.0
1701798827.3462121,-2.0,-1.0,-5.0,-88.0,-27.0,-4.0,-6.0,-2.0
1701798827.3462121,3.0,-6.0,-13.0,19.0,43.0,7.0,6.0,4.0
1701798827.3462121,0.0,5.0,12.0,21.0,-33.0,5.0,-3.0,-1.0
1701798827.3564336,0.0,1.0,-22.0,-42.0,5.0,7.0,1.0,2.0
1701798827.3564336,-5.0,-4.0,47.0,59.0,18.0,-5.0,-2.0,-4.0
1701798827.3662229,-2.0,-1.0,-21.0,-21.0,-31.0,-19.0,-9.0,-5.0
1701798827.3762207,-2.0,-7.0,7.0,32.0,2.0,4.0,-2.0,-1.0
1701798827.3762207,1.0,7.0,23.0,-23.0,22.0,5.0,8.0,4.0
1701798827.3762207,-3.0,-14.0,-77.0,-34.0,-23.0,3.0,1.0,0.0
1701798827.3762207,-2.0,0.0,-10.0,-17.0,-12.0,-4.0,-1.0,-2.0
1701798827.3762207,-1.0,1.0,-2.0,23.0,16.0,-9.0,-3.0,-2.0
1701798827.4062119,-4.0,0.0,-12.0,-20.0,-27.0,-7.0,-9.0,-4.0
1701798827.4062119,-2.0,-3.0,16.0,20.0,28.0,12.0,8.0,1.0
1701798827.4062119,-1.0,-2.0,-3.0,17.0,2.0,17.0,3.0,-1.0
1701798827.4062119,-2.0,-2.0,-39.0,-61.0,-5.0,-10.0,-5.0,-1.0
1701798827.4163802,2.0,-4.0,-30.0,-8.0,-9.0,-19.0,-11.0,-3.0
1701798827.4163802,-2.0,6.0,46.0,26.0,-6.0,-8.0,-3.0,-2.0
1701798827.4264712,0.0,-2.0,-15.0,24.0,-9.0,0.0,6.0,1.0
1701798827.4264712,-3.0,-1.0,23.0,11.0,-14.0,-1.0,-4.0,-3.0
1701798827.4364736,0.0,3.0,7.0,-15.0,40.0,13.0,6.0,2.0
1701798827.4364736,-1.0,0.0,-49.0,-34.0,-7.0,18.0,1.0,1.0
1701798827.4364736,-6.0,-4.0,27.0,1.0,0.0,-19.0,-6.0,-3.0
1701798827.4364736,0.0,5.0,7.0,46.0,6.0,16.0,6.0,0.0
1701798827.4862132,-1.0,-5.0,-1.0,-34.0,-2.0,-8.0,-8.0,-1.0
1701798827.4862132,3.0,2.0,32.0,17.0,9.0,-13.0,-3.0,0.0
1701798827.4862132,-4.0,-3.0,-17.0,-33.0,-30.0,-12.0,-4.0,-2.0
1701798827.4862132,3.0,-1.0,-29.0,-37.0,4.0,-5.0,3.0,3.0
1701798827.4862132,-6.0,-5.0,29.0,65.0,4.0,0.0,-6.0,-4.0
1701798827.4862132,-2.0,-1.0,-1.0,-8.0,-12.0,-4.0,0.0,-3.0
1701798827.4862132,-7.0,-9.0,-12.0,-14.0,-15.0,16.0,3.0,-4.0
1701798827.4862132,-1.0,-1.0,12.0,29.0,38.0,-7.0,1.0,-3.0
1701798827.49632,4.0,3.0,-2.0,18.0,-13.0,6.0,4.0,3.0
1701798827.49632,0.0,0.0,-19.0,-48.0,6.0,12.0,5.0,1.0
1701798827.49632,2.0,2.0,22.0,0.0,-7.0,-9.0,-5.0,1.0
1701798827.49632,-2.0,-2.0,3.0,-7.0,-13.0,-14.0,-8.0,-3.0
1701798827.5305176,0.0,5.0,21.0,-16.0,-21.0,-16.0,-6.0,-4.0
1701798827.5305176,-1.0,-5.0,0.0,17.0,-22.0,-13.0,-9.0,-2.0
1701798827.5315185,2.0,5.0,13.0,7.0,19.0,6.0,2.0,2.0
1701798827.5315185,-5.0,-4.0,-12.0,-11.0,12.0,29.0,11.0,-2.0
1701798827.5386653,-3.0,-1.0,-11.0,11.0,29.0,8.0,11.0,0.0
1701798827.5386653,4.0,2.0,8.0,2.0,-12.0,-6.0,1.0,5.0
1701798827.5467315,-1.0,-2.0,-9.0,-18.0,-19.0,-10.0,-8.0,-5.0
1701798827.5467315,0.0,0.0,3.0,15.0,3.0,-1.0,0.0,1.0
1701798827.5693004,-3.0,-5.0,8.0,10.0,-8.0,-3.0,-1.0,-4.0
1701798827.5693004,1.0,-1.0,-17.0,-9.0,1.0,3.0,-1.0,-1.0
1701798827.5693004,-1.0,-1.0,-4.0,9.0,0.0,-7.0,-7.0,-3.0
1701798827.5693004,0.0,-2.0,2.0,-22.0,-12.0,-6.0,-1.0,0.0
1701798827.5795155,-4.0,-1.0,0.0,7.0,1.0,7.0,3.0,0.0
1701798827.5795155,-1.0,-1.0,-11.0,2.0,14.0,3.0,-1.0,0.0
1701798827.5795155,0.0,1.0,-6.0,-2.0,-1.0,-3.0,-8.0,-3.0
1701798827.5795155,0.0,-1.0,12.0,-21.0,-5.0,-1.0,1.0,1.0
1701798827.599368,-1.0,0.0,-10.0,-5.0,-7.0,-11.0,-5.0,2.0
1701798827.599368,-1.0,-2.0,8.0,10.0,-6.0,3.0,5.0,-1.0
1701798827.599368,-3.0,-1.0,2.0,9.0,13.0,12.0,10.0,2.0
1701798827.599368,-1.0,1.0,1.0,15.0,12.0,8.0,2.0,2.0
1701798827.6393085,1.0,0.0,-6.0,-5.0,-3.0,-7.0,-4.0,-2.0
1701798827.6393085,-1.0,-1.0,-11.0,-15.0,-12.0,-13.0,-8.0,-3.0
1701798827.6493049,1.0,0.0,4.0,2.0,10.0,2.0,-2.0,0.0
1701798827.6493049,-2.0,-1.0,6.0,10.0,-2.0,-5.0,-4.0,-3.0
1701798827.6493049,0.0,-4.0,-9.0,-13.0,-16.0,-7.0,-5.0,-2.0
1701798827.6493049,0.0,1.0,-4.0,2.0,3.0,-2.0,-3.0,0.0
1701798827.6493049,1.0,-1.0,1.0,3.0,6.0,8.0,9.0,2.0
1701798827.6493049,-1.0,0.0,0.0,-1.0,-1.0,-6.0,-6.0,-4.0
1701798827.6493049,-1.0,-2.0,-3.0,3.0,0.0,0.0,2.0,2.0
1701798827.6493049,0.0,0.0,-5.0,-1.0,-2.0,0.0,1.0,-4.0
1701798827.669302,-3.0,4.0,0.0,-9.0,-11.0,-10.0,-9.0,-8.0
1701798827.669302,-1.0,-11.0,-1.0,4.0,2.0,3.0,-1.0,0.0
1701798827.6795223,-2.0,-2.0,1.0,1.0,7.0,9.0,12.0,4.0
1701798827.6795223,-2.0,-2.0,-3.0,-3.0,-4.0,1.0,0.0,-1.0
1701798827.6893027,-1.0,1.0,-1.0,-6.0,-3.0,0.0,1.0,1.0
1701798827.6893027,0.0,2.0,-2.0,-2.0,-6.0,-7.0,-8.0,-4.0
1701798827.6995666,-2.0,-1.0,-3.0,4.0,-3.0,-5.0,-7.0,-2.0
1701798827.6995666,-1.0,1.0,0.0,3.0,4.0,2.0,2.0,2.0
1701798827.7193062,-1.0,1.0,-2.0,-1.0,3.0,5.0,2.0,0.0
1701798827.7193062,2.0,7.0,0.0,-1.0,-3.0,-6.0,-7.0,-2.0
1701798827.7193062,-5.0,-11.0,-4.0,-4.0,-5.0,-1.0,-2.0,-4.0
1701798827.7193062,-1.0,-5.0,1.0,3.0,3.0,4.0,2.0,-1.0
1701798827.7193062,0.0,0.0,0.0,19.0,4.0,1.0,1.0,1.0
1701798827.7193062,-2.0,0.0,1.0,-26.0,-4.0,-1.0,3.0,0.0
1701798827.7493033,-1.0,2.0,-2.0,-3.0,-6.0,-3.0,-3.0,0.0
1701798827.7493033,7.0,14.0,-1.0,2.0,0.0,-2.0,-3.0,4.0
1701798827.7493033,-5.0,2.0,-1.0,-4.0,-3.0,2.0,2.0,-6.0
1701798827.7493033,-5.0,-13.0,-2.0,10.0,4.0,0.0,-2.0,-2.0
1701798827.7595031,-5.0,-11.0,-4.0,-2.0,0.0,-1.0,-3.0,-4.0
1701798827.7595031,-4.0,-9.0,-3.0,-8.0,-8.0,-4.0,-1.0,-2.0
1701798827.7595031,6.0,-1.0,0.0,-1.0,4.0,-1.0,3.0,5.0
1701798827.7595031,0.0,9.0,1.0,3.0,0.0,2.0,1.0,1.0
1701798827.7793667,0.0,-1.0,0.0,-2.0,-4.0,-6.0,-6.0,-4.0
1701798827.7793667,1.0,2.0,-1.0,5.0,0.0,-1.0,-6.0,-3.0
1701798827.7793667,0.0,1.0,-2.0,-8.0,0.0,2.0,0.0,-4.0
1701798827.7793667,-3.0,-3.0,0.0,0.0,-7.0,-2.0,1.0,-1.0
1701798827.8295498,0.0,3.0,-1.0,9.0,15.0,2.0,1.0,5.0
1701798827.8295498,1.0,-6.0,-3.0,-4.0,-4.0,-2.0,0.0,-2.0
1701798827.8295498,3.0,-1.0,-5.0,-3.0,-6.0,-4.0,-6.0,-1.0
1701798827.8295498,-5.0,-3.0,-2.0,-2.0,-5.0,-3.0,-2.0,-2.0
1701798827.8295498,-3.0,0.0,3.0,1.0,2.0,3.0,2.0,-6.0
1701798827.8295498,0.0,-4.0,-1.0,-7.0,0.0,-3.0,-4.0,2.0
1701798827.8295498,-9.0,-10.0,-7.0,-6.0,-14.0,-6.0,-1.0,8.0
1701798827.8295498,-1.0,-10.0,3.0,9.0,12.0,4.0,-1.0,-6.0
1701798827.8295498,3.0,5.0,-3.0,-6.0,-8.0,-19.0,-9.0,-7.0
1701798827.8295498,-5.0,0.0,1.0,-7.0,-6.0,2.0,2.0,-4.0
1701798827.8398015,3.0,0.0,3.0,12.0,16.0,24.0,5.0,0.0
1701798827.8398015,3.0,8.0,3.0,11.0,21.0,9.0,4.0,4.0
1701798827.8598552,-1.0,-4.0,1.0,4.0,1.0,1.0,1.0,0.0
1701798827.8598552,-3.0,-2.0,16.0,-5.0,-8.0,-9.0,-2.0,0.0
1701798827.8598552,0.0,-9.0,-36.0,-14.0,-12.0,-14.0,-5.0,-9.0
1701798827.8598552,-4.0,5.0,-2.0,-3.0,-13.0,-4.0,-3.0,8.0
1701798827.8795497,2.0,1.0,-3.0,-3.0,-1.0,-1.0,-4.0,-3.0
1701798827.8795497,-1.0,-10.0,2.0,1.0,-2.0,-2.0,2.0,7.0
1701798827.8795497,-4.0,-3.0,9.0,-4.0,-5.0,-3.0,-5.0,-16.0
1701798827.8795497,3.0,-1.0,-3.0,-3.0,-3.0,0.0,-1.0,-4.0
1701798827.8895838,3.0,1.0,-2.0,2.0,5.0,1.0,2.0,1.0
1701798827.8895838,-2.0,9.0,6.0,6.0,2.0,3.0,-1.0,-2.0
1701798827.9095495,-6.0,-11.0,-7.0,1.0,-2.0,-1.0,0.0,2.0
1701798827.9095495,3.0,-5.0,-7.0,-1.0,5.0,-7.0,0.0,0.0
1701798827.919549,-1.0,5.0,9.0,-4.0,-10.0,-3.0,0.0,2.0
1701798827.919549,1.0,-1.0,-11.0,2.0,1.0,4.0,-1.0,2.0
1701798827.929888,0.0,3.0,6.0,0.0,8.0,-5.0,-5.0,-7.0
1701798827.929888,-3.0,8.0,2.0,-3.0,-7.0,-4.0,-1.0,-3.0
1701798827.9398727,5.0,-11.0,-8.0,-3.0,-7.0,3.0,-2.0,1.0
1701798827.9398727,-5.0,-2.0,-7.0,2.0,8.0,3.0,-1.0,-4.0
1701798827.9398727,3.0,3.0,6.0,1.0,2.0,0.0,3.0,9.0
1701798827.9398727,-3.0,1.0,10.0,-3.0,-6.0,-4.0,-2.0,-9.0
1701798827.9595492,-6.0,3.0,3.0,-5.0,-11.0,-5.0,-3.0,1.0
1701798827.9595492,2.0,-8.0,-11.0,-2.0,2.0,-9.0,-5.0,-6.0
1701798827.9695554,-1.0,2.0,4.0,1.0,10.0,4.0,-5.0,1.0
1701798827.9695554,-1.0,-1.0,-4.0,3.0,0.0,5.0,3.0,-3.0
1701798827.9797244,-2.0,4.0,6.0,1.0,2.0,4.0,6.0,-1.0
1701798827.9797244,-2.0,-2.0,-2.0,-13.0,-20.0,-9.0,5.0,9.0
1701798827.989556,5.0,2.0,-1.0,15.0,20.0,2.0,0.0,1.0
1701798827.989556,1.0,-3.0,4.0,4.0,7.0,1.0,-1.0,1.0
1701798827.9995577,-2.0,1.0,-1.0,2.0,4.0,1.0,-4.0,-2.0
1701798827.9995577,-2.0,0.0,-3.0,-9.0,-12.0,-4.0,-5.0,-5.0
1701798827.9995577,-2.0,-2.0,2.0,-4.0,-6.0,-3.0,0.0,2.0
1701798827.9995577,2.0,-1.0,-4.0,-1.0,-2.0,-1.0,-2.0,1.0
1701798828.0395496,-2.0,-2.0,-2.0,-16.0,-15.0,-7.0,-3.0,-2.0
1701798828.0395496,-2.0,-3.0,-14.0,13.0,22.0,10.0,0.0,-5.0
1701798828.0395496,1.0,9.0,29.0,3.0,-1.0,2.0,2.0,2.0
1701798828.0395496,2.0,-11.0,-12.0,5.0,6.0,3.0,-1.0,-1.0
1701798828.0395496,-2.0,-2.0,-10.0,-8.0,-9.0,-5.0,-3.0,-1.0
1701798828.0395496,-1.0,-2.0,3.0,-2.0,-7.0,-7.0,-6.0,-6.0
1701798828.0395496,-3.0,-2.0,-2.0,-6.0,-10.0,-6.0,-1.0,-1.0
1701798828.0395496,-2.0,0.0,-10.0,-5.0,-8.0,1.0,-1.0,-2.0
1701798828.0645921,-1.0,1.0,3.0,3.0,8.0,-3.0,-1.0,-4.0
1701798828.0645921,0.0,2.0,-3.0,-2.0,-2.0,2.0,-3.0,-1.0
1701798828.065589,-1.0,-1.0,4.0,-1.0,1.0,7.0,5.0,3.0
1701798828.065589,-3.0,-5.0,-12.0,-10.0,-14.0,-4.0,-1.0,-2.0
1701798828.0873551,-1.0,-2.0,-9.0,-17.0,-9.0,-10.0,-4.0,-2.0
1701798828.0873551,1.0,2.0,11.0,8.0,13.0,7.0,0.0,-1.0
1701798828.0889382,-1.0,-1.0,11.0,30.0,21.0,7.0,1.0,-1.0
1701798828.0889382,-1.0,-1.0,9.0,-47.0,-44.0,-16.0,-5.0,-1.0
1701798828.1021183,0.0,0.0,-4.0,0.0,-2.0,-3.0,-5.0,-1.0
1701798828.1021183,-1.0,11.0,-16.0,20.0,36.0,12.0,2.0,-2.0
1701798828.1021183,1.0,-2.0,15.0,11.0,4.0,2.0,2.0,2.0
1701798828.1021183,-10.0,-24.0,-52.0,-9.0,33.0,9.0,-3.0,-7.0
1701798828.1224618,0.0,0.0,9.0,-12.0,-22.0,-11.0,-1.0,0.0
1701798828.1224618,3.0,5.0,54.0,13.0,6.0,-3.0,0.0,-5.0
1701798828.1224618,-4.0,1.0,-71.0,-60.0,-36.0,-9.0,-4.0,4.0
1701798828.1224618,3.0,13.0,55.0,35.0,16.0,-1.0,1.0,-5.0
1701798828.1421156,-6.0,2.0,21.0,-37.0,-66.0,-24.0,-9.0,3.0
1701798828.1421156,0.0,-14.0,-46.0,34.0,60.0,28.0,4.0,-6.0
1701798828.1421156,7.0,-3.0,25.0,-19.0,-24.0,-11.0,-3.0,0.0
1701798828.1421156,-9.0,-8.0,-41.0,9.0,5.0,3.0,0.0,-7.0
1701798828.1524355,-3.0,0.0,-17.0,34.0,51.0,28.0,12.0,-9.0
1701798828.1524355,-5.0,-3.0,36.0,-15.0,-49.0,-26.0,-6.0,10.0
1701798828.162179,6.0,22.0,55.0,28.0,26.0,13.0,0.0,-5.0
1701798828.162179,0.0,7.0,-22.0,-53.0,-87.0,-45.0,-15.0,-2.0
1701798828.1823921,-3.0,-21.0,-11.0,17.0,24.0,25.0,6.0,-1.0
1701798828.1823921,5.0,-7.0,-11.0,9.0,1.0,10.0,8.0,9.0
1701798828.1823921,-5.0,13.0,67.0,-44.0,-61.0,-27.0,-7.0,-4.0
1701798828.1823921,-1.0,-21.0,-51.0,66.0,75.0,30.0,5.0,3.0
1701798828.2021153,4.0,12.0,-3.0,-7.0,-15.0,-11.0,-2.0,2.0
1701798828.2021153,-10.0,-13.0,-55.0,-29.0,-18.0,-10.0,-7.0,-11.0
1701798828.2021153,0.0,19.0,11.0,-8.0,-4.0,5.0,3.0,5.0
1701798828.2021153,0.0,-13.0,48.0,1.0,8.0,-3.0,1.0,0.0
1701798828.2123098,4.0,-8.0,-6.0,-20.0,-41.0,-24.0,-9.0,4.0
1701798828.2221243,-3.0,-3.0,-1.0,11.0,60.0,20.0,2.0,-1.0
1701798828.2221243,-1.0,-3.0,-13.0,-13.0,-40.0,-17.0,-6.0,-6.0
1701798828.2221243,1.0,14.0,22.0,60.0,72.0,32.0,9.0,8.0
1701798828.2423728,-2.0,-8.0,-15.0,9.0,6.0,4.0,3.0,-1.0
1701798828.2423728,2.0,12.0,39.0,-5.0,-35.0,-12.0,-3.0,0.0
1701798828.2521224,-6.0,-20.0,-52.0,-15.0,-12.0,-9.0,-6.0,-4.0
1701798828.262122,5.0,13.0,22.0,-6.0,17.0,9.0,2.0,2.0
1701798828.2821164,-1.0,2.0,3.0,2.0,16.0,-1.0,-3.0,-3.0
1701798828.2821164,-4.0,-1.0,-8.0,-8.0,-32.0,-13.0,-4.0,-3.0
1701798828.2821164,-1.0,-10.0,-22.0,8.0,16.0,1.0,4.0,-4.0
1701798828.2821164,-2.0,-3.0,-18.0,-29.0,-43.0,-13.0,-6.0,6.0
1701798828.2821164,1.0,8.0,15.0,15.0,2.0,11.0,1.0,-5.0
1701798828.2821164,-2.0,3.0,3.0,-2.0,10.0,3.0,-1.0,-2.0
1701798828.2821164,-7.0,-17.0,-26.0,14.0,20.0,10.0,8.0,-9.0
1701798828.2821164,4.0,6.0,23.0,-6.0,-20.0,-14.0,-3.0,6.0
1701798828.3021169,6.0,8.0,-1.0,-4.0,-1.0,-6.0,-8.0,3.0
1701798828.3021169,-5.0,-8.0,3.0,-9.0,-16.0,-7.0,-5.0,2.0
1701798828.3021169,-3.0,-6.0,-9.0,13.0,16.0,4.0,-12.0,-1.0
1701798828.3021169,15.0,8.0,0.0,-11.0,-26.0,-17.0,-35.0,-21.0
1701798828.3224435,-19.0,3.0,-3.0,-1.0,10.0,3.0,-14.0,11.0
1701798828.3224435,34.0,-3.0,-3.0,3.0,-8.0,-4.0,-37.0,-22.0
1701798828.3224435,-34.0,-11.0,-14.0,-3.0,3.0,-3.0,31.0,5.0
1701798828.3224435,3.0,-3.0,-1.0,-15.0,-17.0,-9.0,-67.0,16.0
1701798828.3323848,-6.0,-5.0,-11.0,-2.0,5.0,7.0,2.0,-9.0
1701798828.3323848,38.0,8.0,18.0,4.0,12.0,70.0,104.0,94.0
1701798828.342338,-19.0,18.0,16.0,10.0,8.0,-4.0,-47.0,-15.0
1701798828.342338,-20.0,2.0,8.0,-2.0,-1.0,1.0,-26.0,-23.0
1701798828.3621194,2.0,-23.0,-2.0,-8.0,-2.0,-4.0,6.0,12.0
1701798828.3621194,-5.0,-6.0,-9.0,-14.0,-25.0,-38.0,-61.0,-36.0
1701798828.3621194,7.0,-14.0,-4.0,2.0,4.0,1.0,6.0,5.0
1701798828.3621194,5.0,4.0,-1.0,-2.0,-2.0,-3.0,-8.0,-14.0
1701798828.3825145,-4.0,5.0,10.0,15.0,9.0,-3.0,-28.0,-14.0
1701798828.3825145,-16.0,1.0,-8.0,-12.0,-10.0,-7.0,19.0,-4.0
1701798828.3825145,15.0,15.0,-8.0,4.0,-2.0,-4.0,-4.0,-1.0
1701798828.3825145,3.0,-22.0,-3.0,-5.0,-6.0,-10.0,3.0,16.0
1701798828.3924026,1.0,-8.0,-6.0,-7.0,2.0,7.0,9.0,-10.0
1701798828.3924026,-13.0,2.0,-3.0,-7.0,-3.0,-1.0,12.0,6.0
1701798828.4023368,10.0,-2.0,0.0,14.0,11.0,-2.0,-21.0,0.0
1701798828.4023368,-10.0,1.0,1.0,1.0,-5.0,0.0,18.0,1.0
1701798828.4321733,18.0,14.0,6.0,4.0,1.0,2.0,18.0,15.0
1701798828.4321733,-12.0,0.0,0.0,-7.0,-7.0,-5.0,-15.0,-15.0
1701798828.4321733,-3.0,-5.0,-8.0,-23.0,-25.0,-10.0,-6.0,-5.0
1701798828.4321733,-12.0,-6.0,1.0,12.0,21.0,14.0,30.0,16.0
1701798828.4425225,9.0,-1.0,1.0,42.0,63.0,23.0,4.0,5.0
1701798828.4425225,-7.0,0.0,-3.0,-3.0,-8.0,-15.0,-26.0,-7.0
1701798828.4425225,3.0,-12.0,-5.0,-3.0,0.0,4.0,4.0,6.0
1701798828.4425225,-2.0,6.0,5.0,-22.0,-34.0,-3.0,21.0,1.0
1701798828.4524672,-6.0,6.0,-2.0,-15.0,-23.0,-15.0,-24.0,-24.0
1701798828.4524672,-3.0,4.0,-1.0,11.0,14.0,1.0,-11.0,-1.0
1701798828.4721732,4.0,-3.0,1.0,12.0,7.0,7.0,5.0,1.0
1701798828.4721732,5.0,6.0,-7.0,-6.0,-5.0,1.0,6.0,-2.0
1701798828.4822152,-8.0,0.0,7.0,-8.0,-12.0,-6.0,-3.0,4.0
1701798828.4822152,3.0,6.0,-1.0,-10.0,-15.0,-8.0,0.0,-1.0
1701798828.4921858,0.0,-9.0,-2.0,-5.0,1.0,2.0,0.0,-2.0
1701798828.4921858,0.0,3.0,8.0,1.0,1.0,-4.0,-3.0,-2.0
1701798828.5022173,-6.0,-16.0,-18.0,-10.0,-25.0,-10.0,-2.0,-2.0
1701798828.5022173,-17.0,-37.0,11.0,-25.0,-6.0,-7.0,-8.0,-13.0
1701798828.5022173,11.0,23.0,41.0,42.0,34.0,9.0,1.0,6.0
1701798828.5022173,5.0,18.0,-2.0,-5.0,-1.0,5.0,7.0,4.0
1701798828.522179,-18.0,-74.0,-72.0,-54.0,-42.0,-17.0,-9.0,-12.0
1701798828.522179,-1.0,25.0,46.0,38.0,26.0,12.0,-1.0,-3.0
1701798828.5321736,4.0,-11.0,15.0,-20.0,-7.0,-3.0,-2.0,5.0
1701798828.5321736,5.0,18.0,15.0,-21.0,0.0,11.0,10.0,-1.0
1701798828.5425436,2.0,42.0,73.0,27.0,-3.0,3.0,2.0,1.0
1701798828.5425436,1.0,-19.0,-70.0,-6.0,-21.0,-2.0,-3.0,0.0
1701798828.5425436,-9.0,-13.0,-2.0,-40.0,-57.0,-21.0,-8.0,-4.0
1701798828.5425436,1.0,4.0,42.0,8.0,-20.0,-2.0,5.0,2.0
1701798828.5629432,10.0,35.0,-7.0,24.0,35.0,15.0,3.0,9.0
1701798828.5629432,-6.0,-13.0,-52.0,-43.0,-25.0,-14.0,-7.0,-6.0
1701798828.5629432,4.0,40.0,65.0,-21.0,-27.0,-6.0,2.0,0.0
1701798828.5629432,-1.0,-14.0,38.0,56.0,41.0,12.0,4.0,-1.0
1701798828.572872,-7.0,-43.0,-71.0,-16.0,-13.0,-9.0,-6.0,-4.0
1701798828.572872,-5.0,14.0,3.0,41.0,39.0,13.0,0.0,-4.0
1701798828.5827997,5.0,1.0,-49.0,-1.0,17.0,2.0,2.0,4.0
1701798828.5827997,-6.0,21.0,-47.0,-34.0,-33.0,-20.0,-11.0,-5.0
1701798828.605011,4.0,-6.0,16.0,15.0,19.0,2.0,-4.0,-2.0
1701798828.605011,-2.0,-1.0,32.0,-6.0,-15.0,-16.0,-1.0,1.0
1701798828.6060116,-3.0,-25.0,-60.0,-19.0,-17.0,-4.0,-4.0,-5.0
1701798828.6060116,-20.0,-10.0,-35.0,10.0,27.0,19.0,8.0,-21.0
1701798828.6360104,16.0,24.0,17.0,16.0,17.0,6.0,-4.0,9.0
1701798828.6360104,-16.0,1.0,-3.0,-34.0,-39.0,-28.0,-48.0,-18.0
1701798828.6360104,37.0,-24.0,18.0,27.0,27.0,4.0,-28.0,-11.0
1701798828.6360104,-18.0,2.0,-1.0,10.0,7.0,11.0,68.0,34.0
1701798828.6360104,24.0,49.0,16.0,-19.0,-25.0,-40.0,-107.0,-43.0
1701798828.6360104,-31.0,-68.0,-4.0,-1.0,-6.0,-9.0,-50.0,-16.0
1701798828.6463554,-47.0,27.0,-13.0,18.0,28.0,45.0,85.0,48.0
1701798828.6463554,5.0,-7.0,-10.0,-10.0,-6.0,-10.0,-58.0,-19.0
1701798828.6560187,4.0,27.0,24.0,-4.0,-5.0,25.0,13.0,52.0
1701798828.6560187,38.0,49.0,10.0,8.0,15.0,-3.0,2.0,-4.0
1701798828.6660132,20.0,-46.0,-18.0,2.0,-5.0,-20.0,-36.0,-13.0
1701798828.6660132,-8.0,-26.0,-25.0,-27.0,-25.0,7.0,64.0,13.0
1701798828.6860514,6.0,26.0,35.0,15.0,17.0,11.0,29.0,2.0
1701798828.6860514,7.0,21.0,7.0,13.0,7.0,-13.0,-61.0,-18.0
1701798828.696011,-6.0,-15.0,-7.0,-8.0,-8.0,-8.0,-22.0,-5.0
1701798828.696011,7.0,13.0,10.0,0.0,-4.0,-18.0,-44.0,-30.0
1701798828.696011,-7.0,-44.0,-17.0,1.0,2.0,2.0,4.0,-8.0
1701798828.696011,-3.0,-30.0,13.0,-3.0,-4.0,8.0,20.0,16.0
1701798828.7062404,4.0,36.0,13.0,-1.0,-3.0,-1.0,-1.0,-8.0
1701798828.7062404,19.0,58.0,-44.0,-21.0,-18.0,-11.0,-26.0,10.0
1701798828.7260196,-28.0,-89.0,-20.0,-12.0,-21.0,-14.0,2.0,-16.0
1701798828.7260196,-2.0,31.0,33.0,0.0,-1.0,11.0,38.0,13.0
1701798828.7260196,-10.0,-20.0,-17.0,-30.0,0.0,-8.0,-20.0,-8.0
1701798828.7260196,-3.0,-10.0,-4.0,-26.0,-63.0,-33.0,-11.0,0.0
1701798828.7560284,3.0,29.0,65.0,2.0,-11.0,41.0,26.0,15.0
1701798828.766013,6.0,15.0,-26.0,94.0,94.0,48.0,23.0,4.0
1701798828.776014,-4.0,-1.0,-24.0,26.0,29.0,-1.0,-6.0,-8.0
1701798828.776014,4.0,-6.0,8.0,-15.0,-48.0,-17.0,-11.0,2.0
1701798828.776014,0.0,-11.0,-4.0,-25.0,-17.0,-11.0,12.0,-2.0
1701798828.776014,-8.0,-18.0,33.0,-103.0,-102.0,-38.0,-7.0,-4.0
1701798828.776014,1.0,11.0,-41.0,103.0,107.0,55.0,9.0,5.0
1701798828.776014,6.0,-4.0,62.0,34.0,12.0,5.0,-2.0,4.0
1701798828.776014,-16.0,-28.0,-85.0,-44.0,-40.0,-27.0,-12.0,-9.0
1701798828.776014,-5.0,-17.0,19.0,-71.0,-88.0,-36.0,-2.0,-7.0
1701798828.7860987,-5.0,16.0,-2.0,25.0,10.0,35.0,10.0,4.0
1701798828.7860987,1.0,-14.0,-1.0,14.0,18.0,7.0,-4.0,-4.0
1701798828.8160105,-1.0,11.0,-6.0,-2.0,23.0,15.0,8.0,-1.0
1701798828.8160105,5.0,14.0,16.0,-2.0,-31.0,-17.0,7.0,6.0
1701798828.8160105,0.0,1.0,-32.0,-23.0,-30.0,-24.0,-7.0,-4.0
1701798828.8160105,-5.0,-14.0,2.0,-7.0,11.0,1.0,-12.0,-6.0
1701798828.8263588,-8.0,-7.0,-21.0,15.0,21.0,2.0,0.0,-4.0
1701798828.8263588,0.0,-4.0,-44.0,4.0,7.0,6.0,8.0,3.0
1701798828.8263588,1.0,20.0,89.0,-22.0,-32.0,-14.0,-8.0,-2.0
1701798828.8263588,2.0,0.0,-32.0,40.0,52.0,18.0,2.0,1.0
1701798828.8363194,1.0,16.0,27.0,-1.0,-8.0,-8.0,-2.0,1.0
1701798828.8363194,-5.0,1.0,-23.0,-5.0,4.0,6.0,5.0,-5.0
1701798828.8460135,0.0,9.0,44.0,6.0,-7.0,-5.0,-3.0,-1.0
1701798828.8460135,-7.0,-24.0,-60.0,-52.0,-47.0,-23.0,-10.0,-4.0
1701798828.866045,-2.0,4.0,-7.0,6.0,6.0,2.0,1.0,-3.0
1701798828.866045,-3.0,6.0,24.0,35.0,33.0,13.0,1.0,1.0
1701798828.866045,7.0,-4.0,9.0,-26.0,-45.0,-27.0,-6.0,4.0
1701798828.866045,-8.0,-5.0,-22.0,15.0,50.0,32.0,3.0,0.0
1701798828.8863957,15.0,0.0,-29.0,0.0,-5.0,-4.0,1.0,0.0
1701798828.8863957,-13.0,4.0,6.0,28.0,31.0,17.0,8.0,-1.0
1701798828.8863957,-27.0,-30.0,-56.0,-36.0,-36.0,-22.0,-12.0,-12.0
1701798828.8863957,17.0,9.0,10.0,-12.0,-14.0,-10.0,-2.0,1.0
1701798828.8963318,15.0,9.0,34.0,22.0,13.0,-3.0,-17.0,3.0
1701798828.8963318,34.0,-5.0,-14.0,-11.0,-5.0,-8.0,-44.0,-15.0
1701798828.9062614,59.0,-10.0,-1.0,-5.0,0.0,11.0,58.0,35.0
1701798828.9062614,-33.0,37.0,41.0,11.0,8.0,11.0,19.0,-20.0
1701798828.9260461,44.0,-2.0,12.0,5.0,4.0,-1.0,22.0,1.0
1701798828.9260461,-5.0,-11.0,-25.0,-8.0,-5.0,-6.0,-38.0,-34.0
1701798828.9260461,74.0,-30.0,5.0,-5.0,-7.0,-6.0,-15.0,-2.0
1701798828.9260461,-57.0,-22.0,29.0,18.0,24.0,21.0,21.0,36.0
1701798828.9463608,-2.0,82.0,28.0,-2.0,-9.0,3.0,30.0,9.0
1701798828.9463608,20.0,-44.0,-8.0,-3.0,-2.0,-5.0,9.0,-2.0
1701798828.9463608,-69.0,16.0,-20.0,-1.0,3.0,-13.0,-19.0,-25.0
1701798828.9463608,-44.0,0.0,7.0,-12.0,-13.0,-13.0,-30.0,-27.0
1701798828.9660137,-38.0,-24.0,0.0,-2.0,-6.0,-4.0,-8.0,-14.0
1701798828.9660137,58.0,-2.0,1.0,10.0,11.0,-1.0,-22.0,26.0
1701798828.9660137,-52.0,30.0,14.0,4.0,0.0,7.0,25.0,11.0
1701798828.9660137,29.0,-46.0,1.0,2.0,-3.0,-13.0,-35.0,-2.0
1701798828.9863906,-10.0,-18.0,-17.0,-10.0,-6.0,-2.0,-4.0,2.0
1701798828.9863906,-11.0,15.0,1.0,8.0,6.0,15.0,47.0,14.0
1701798828.9863906,7.0,-17.0,3.0,-6.0,-7.0,-5.0,-24.0,-17.0
1701798828.9863906,33.0,27.0,7.0,3.0,2.0,-3.0,-5.0,0.0
1701798829.0063295,-2.0,-17.0,-16.0,-9.0,-6.0,-8.0,-19.0,-2.0
1701798829.0063295,-24.0,-28.0,-9.0,-1.0,0.0,0.0,12.0,5.0
1701798829.0063295,-23.0,-7.0,-3.0,1.0,2.0,-3.0,-16.0,-10.0
1701798829.0063295,11.0,-1.0,11.0,3.0,0.0,-4.0,-12.0,-1.0
1701798829.0160494,-9.0,-1.0,3.0,2.0,-1.0,10.0,35.0,21.0
1701798829.0160494,5.0,16.0,-1.0,-2.0,-6.0,2.0,22.0,-4.0
1701798829.036014,3.0,3.0,4.0,-1.0,9.0,-1.0,-10.0,5.0
1701798829.036014,9.0,-5.0,-6.0,4.0,3.0,-3.0,-12.0,-24.0
1701798829.046304,-13.0,-12.0,4.0,6.0,2.0,-13.0,-37.0,-5.0
1701798829.046304,-5.0,48.0,3.0,1.0,1.0,12.0,37.0,23.0
1701798829.046304,-8.0,-35.0,-3.0,-8.0,-15.0,-5.0,-5.0,-36.0
1701798829.046304,19.0,-3.0,-6.0,-27.0,-23.0,-10.0,-3.0,26.0
1701798829.0663896,-1.0,-4.0,9.0,38.0,49.0,21.0,1.0,-9.0
1701798829.0663896,-14.0,1.0,4.0,7.0,4.0,-3.0,-21.0,-6.0
1701798829.0860114,4.0,9.0,-2.0,-3.0,-3.0,1.0,9.0,7.0
1701798829.0860114,6.0,-11.0,-5.0,-10.0,-17.0,-1.0,18.0,0.0
1701798829.0860114,-2.0,6.0,6.0,-7.0,-12.0,-8.0,-8.0,-4.0
1701798829.0860114,18.0,-7.0,-7.0,-1.0,0.0,-19.0,-46.0,-19.0
1701798829.0860114,-3.0,10.0,2.0,0.0,3.0,25.0,54.0,23.0
1701798829.0860114,31.0,-8.0,1.0,8.0,13.0,14.0,25.0,6.0
1701798829.1060138,-35.0,14.0,9.0,-2.0,-7.0,-5.0,3.0,17.0
1701798829.1060138,-11.0,11.0,2.0,-3.0,1.0,1.0,2.0,5.0
1701798829.1060138,-10.0,-10.0,1.0,0.0,1.0,-12.0,-34.0,-16.0
1701798829.1060138,19.0,-7.0,-2.0,5.0,2.0,-3.0,-8.0,-11.0
1701798829.1294167,7.0,-10.0,-5.0,-8.0,-8.0,-17.0,-70.0,-19.0
1701798829.1294167,-13.0,0.0,5.0,3.0,-1.0,25.0,76.0,15.0
1701798829.13125,8.0,5.0,-8.0,-8.0,-6.0,5.0,28.0,22.0
1701798829.13125,-3.0,3.0,-3.0,-7.0,-9.0,-5.0,-2.0,-2.0
1701798829.140853,11.0,12.0,-4.0,-7.0,-7.0,-7.0,5.0,-8.0
1701798829.140853,-18.0,-21.0,-2.0,3.0,14.0,2.0,-21.0,-5.0
1701798829.1508536,6.0,6.0,1.0,-21.0,-15.0,-12.0,-25.0,-10.0
1701798829.1508536,-6.0,-2.0,-1.0,48.0,51.0,17.0,7.0,2.0
1701798829.1608982,-2.0,0.0,4.0,0.0,-20.0,-8.0,5.0,9.0
1701798829.1608982,-4.0,6.0,-10.0,-44.0,-59.0,-26.0,-9.0,-4.0
1701798829.1608982,-3.0,-7.0,-5.0,-57.0,-64.0,-27.0,-14.0,-2.0
1701798829.1608982,-3.0,19.0,25.0,70.0,42.0,54.0,8.0,8.0
1701798829.1812022,0.0,-9.0,-9.0,-32.0,-70.0,-18.0,5.0,-10.0
1701798829.1812022,-2.0,7.0,0.0,43.0,41.0,29.0,4.0,2.0
1701798829.1912918,4.0,4.0,9.0,-14.0,-41.0,-20.0,-14.0,3.0
1701798829.1912918,-14.0,-6.0,-16.0,-24.0,-54.0,-33.0,-14.0,-6.0
1701798829.201218,2.0,-9.0,-4.0,-37.0,-17.0,2.0,8.0,-3.0
1701798829.201218,-3.0,-1.0,-3.0,2.0,16.0,1.0,1.0,3.0
1701798829.2112463,3.0,11.0,-3.0,15.0,43.0,24.0,-1.0,2.0
1701798829.2112463,-7.0,-13.0,-11.0,-31.0,-61.0,-21.0,-4.0,-5.0
1701798829.2215972,0.0,-13.0,0.0,3.0,14.0,6.0,7.0,-3.0
1701798829.2215972,-3.0,-2.0,-2.0,-24.0,-6.0,-18.0,-10.0,-3.0
1701798829.2215972,-3.0,-2.0,-5.0,-2.0,-23.0,-15.0,-7.0,-4.0
1701798829.2215972,2.0,10.0,3.0,13.0,47.0,11.0,0.0,3.0
1701798829.24149,-2.0,-6.0,-15.0,-45.0,-48.0,-27.0,-2.0,-3.0
1701798829.24149,-4.0,-3.0,-4.0,-43.0,-28.0,-10.0,-9.0,-5.0
1701798829.2512152,3.0,-1.0,1.0,65.0,60.0,14.0,0.0,-1.0
1701798829.2512152,-1.0,-2.0,-2.0,-19.0,-21.0,-7.0,5.0,2.0
1701798829.2612114,0.0,1.0,6.0,30.0,19.0,16.0,4.0,-2.0
1701798829.2612114,-1.0,0.0,5.0,7.0,-41.0,-10.0,-1.0,-1.0
1701798829.2712157,-2.0,-3.0,-13.0,-35.0,28.0,1.0,-4.0,-3.0
1701798829.2712157,-8.0,-8.0,4.0,22.0,5.0,-7.0,-7.0,-5.0
1701798829.2815144,1.0,1.0,8.0,-11.0,23.0,13.0,4.0,1.0
1701798829.2815144,-2.0,-3.0,9.0,89.0,71.0,19.0,0.0,0.0
1701798829.2815144,-2.0,-1.0,-13.0,-47.0,-64.0,-26.0,-10.0,-4.0
1701798829.2815144,-3.0,0.0,-8.0,-20.0,-16.0,-8.0,-3.0,-3.0
1701798829.3112123,1.0,-2.0,-9.0,15.0,-5.0,-2.0,-2.0,-1.0
1701798829.3112123,3.0,16.0,2.0,-4.0,63.0,24.0,10.0,6.0
1701798829.3112123,-11.0,-26.0,-11.0,46.0,19.0,3.0,-4.0,-4.0
1701798829.3112123,-1.0,11.0,35.0,5.0,26.0,4.0,1.0,3.0
1701798829.321409,-6.0,-4.0,-20.0,-31.0,-50.0,-19.0,-2.0,-6.0
1701798829.321409,-3.0,-8.0,-3.0,12.0,21.0,11.0,-4.0,-2.0
1701798829.3314788,-1.0,19.0,15.0,29.0,34.0,20.0,7.0,0.0
1701798829.3314788,-5.0,-22.0,-66.0,-15.0,1.0,-5.0,-3.0,-3.0
1701798829.341456,-1.0,-7.0,-2.0,20.0,2.0,-8.0,4.0,-4.0
1701798829.341456,3.0,12.0,-10.0,-32.0,-45.0,-11.0,3.0,8.0
1701798829.3512232,-1.0,-4.0,2.0,-11.0,-3.0,0.0,-16.0,-8.0
1701798829.3512232,-2.0,-3.0,82.0,-5.0,-15.0,-1.0,20.0,6.0
1701798829.3912146,8.0,12.0,-23.0,5.0,25.0,7.0,-6.0,-7.0
1701798829.3912146,-12.0,-6.0,-9.0,-6.0,-19.0,-17.0,-33.0,-12.0
1701798829.3912146,3.0,10.0,42.0,2.0,-7.0,9.0,17.0,15.0
1701798829.3912146,5.0,-2.0,4.0,-9.0,-10.0,-5.0,13.0,3.0
1701798829.3912146,-9.0,-11.0,-1.0,15.0,38.0,26.0,20.0,-2.0
1701798829.3912146,-10.0,-16.0,-45.0,-16.0,-17.0,-11.0,-4.0,-15.0
1701798829.3912146,9.0,30.0,120.0,28.0,-15.0,-21.0,-9.0,4.0
1701798829.3912146,-23.0,4.0,-108.0,-37.0,-4.0,-4.0,-26.0,-22.0
1701798829.401247,42.0,11.0,30.0,30.0,25.0,18.0,15.0,6.0
1701798829.401247,-18.0,-20.0,-8.0,-10.0,-13.0,-5.0,-5.0,-8.0
1701798829.401247,-8.0,-11.0,-29.0,-6.0,0.0,4.0,3.0,-6.0
1701798829.401247,7.0,2.0,-3.0,-12.0,-14.0,-9.0,-4.0,7.0
1701798829.4312122,6.0,18.0,-6.0,11.0,13.0,-11.0,-1.0,9.0
1701798829.4312122,2.0,-10.0,-4.0,24.0,18.0,26.0,16.0,6.0
1701798829.4312122,3.0,-17.0,-37.0,-5.0,5.0,4.0,-3.0,-4.0
1701798829.4312122,-1.0,35.0,34.0,-3.0,-1.0,2.0,0.0,6.0
1701798829.4415443,-12.0,-33.0,5.0,-13.0,-22.0,-21.0,-19.0,-7.0
1701798829.4415443,5.0,-35.0,-3.0,-4.0,-14.0,-9.0,-3.0,1.0
1701798829.4515684,3.0,8.0,-14.0,-1.0,2.0,3.0,-5.0,-5.0
1701798829.4515684,-4.0,-16.0,-7.0,5.0,3.0,5.0,9.0,3.0
1701798829.4712164,-13.0,15.0,9.0,-13.0,-17.0,-11.0,-13.0,-16.0
1701798829.4712164,-3.0,7.0,11.0,-5.0,-12.0,-17.0,0.0,0.0
1701798829.4712164,10.0,-11.0,-25.0,7.0,24.0,22.0,0.0,1.0
1701798829.4712164,9.0,15.0,4.0,-20.0,-22.0,-21.0,-34.0,-11.0
1701798829.4812455,-17.0,-22.0,-7.0,4.0,14.0,15.0,11.0,7.0
1701798829.4812455,6.0,14.0,23.0,8.0,9.0,16.0,50.0,17.0
1701798829.4912264,-8.0,-1.0,-5.0,-5.0,-15.0,-16.0,-11.0,-7.0
1701798829.4912264,-3.0,-21.0,-10.0,-5.0,-3.0,-2.0,-7.0,-12.0
1701798829.5016005,10.0,19.0,5.0,7.0,11.0,7.0,0.0,10.0
1701798829.5016005,-11.0,-5.0,11.0,-1.0,-8.0,-3.0,-17.0,-16.0
1701798829.5114958,1.0,-11.0,-11.0,-10.0,-9.0,-5.0,11.0,3.0
1701798829.5114958,-3.0,1.0,-25.0,1.0,4.0,-3.0,-11.0,-7.0
1701798829.5312157,19.0,-10.0,-12.0,3.0,5.0,1.0,-19.0,11.0
1701798829.5312157,-22.0,21.0,4.0,-12.0,-20.0,-11.0,-12.0,-6.0
1701798829.5312157,-7.0,8.0,-16.0,-16.0,-21.0,-14.0,0.0,-1.0
1701798829.5312157,6.0,-3.0,22.0,25.0,40.0,18.0,-12.0,-2.0
1701798829.541246,12.0,-2.0,1.0,1.0,-3.0,-4.0,-8.0,11.0
1701798829.541246,-2.0,-9.0,7.0,-4.0,-7.0,-1.0,16.0,-5.0
1701798829.5513546,-6.0,5.0,8.0,-8.0,0.0,2.0,-2.0,4.0
1701798829.5513546,-7.0,-10.0,-9.0,-1.0,-6.0,2.0,21.0,-1.0
1701798829.5615964,0.0,1.0,7.0,5.0,4.0,-4.0,-38.0,-22.0
1701798829.5615964,-4.0,8.0,4.0,-4.0,-1.0,0.0,9.0,13.0
1701798829.571525,-1.0,19.0,2.0,7.0,3.0,2.0,14.0,-3.0
1701798829.571525,-6.0,-46.0,-8.0,-13.0,-11.0,-8.0,-1.0,-2.0
1701798829.5912247,-6.0,4.0,1.0,-4.0,1.0,1.0,5.0,-2.0
1701798829.5912247,9.0,12.0,8.0,0.0,-2.0,-3.0,-25.0,-9.0
1701798829.5912247,-10.0,-37.0,-22.0,1.0,0.0,2.0,1.0,0.0
1701798829.5912247,11.0,15.0,9.0,4.0,1.0,-3.0,7.0,12.0
1701798829.6012492,-12.0,16.0,18.0,4.0,5.0,0.0,0.0,0.0
1701798829.6012492,7.0,-8.0,-2.0,-8.0,0.0,-4.0,-5.0,5.0
1701798829.6114802,-1.0,0.0,-8.0,5.0,-2.0,0.0,5.0,-8.0
1701798829.6114802,3.0,7.0,2.0,-12.0,-13.0,-2.0,4.0,4.0
1701798829.621511,-11.0,-22.0,-4.0,-21.0,-30.0,-13.0,7.0,-8.0
1701798829.621511,5.0,13.0,-8.0,12.0,20.0,9.0,-2.0,8.0
1701798829.6412122,3.0,8.0,13.0,22.0,32.0,4.0,-12.0,-5.0
1701798829.6412122,-4.0,7.0,7.0,14.0,9.0,16.0,13.0,-13.0
1701798829.6412122,-5.0,15.0,-2.0,0.0,-11.0,0.0,13.0,11.0
1701798829.6412122,-1.0,-12.0,-9.0,-19.0,-19.0,-7.0,-5.0,-8.0
1701798829.6412122,4.0,9.0,9.0,-10.0,-6.0,-11.0,-17.0,-2.0
1701798829.6412122,-2.0,1.0,-3.0,-9.0,-9.0,-7.0,-2.0,-2.0
1701798829.669742,-6.0,-4.0,5.0,6.0,3.0,4.0,4.0,1.0
1701798829.669742,5.0,24.0,6.0,4.0,0.0,0.0,0.0,-1.0
1701798829.6707532,6.0,-23.0,-5.0,3.0,4.0,2.0,1.0,-1.0
1701798829.6717575,-2.0,-1.0,6.0,-13.0,-13.0,-8.0,-4.0,3.0
1701798829.6839688,-2.0,0.0,-5.0,14.0,19.0,8.0,0.0,-4.0
1701798829.6839688,0.0,-8.0,-8.0,6.0,-6.0,-5.0,1.0,-1.0
1701798829.6939695,-1.0,8.0,3.0,-21.0,-27.0,-15.0,-6.0,-3.0
1701798829.6939695,0.0,-7.0,-5.0,11.0,29.0,15.0,4.0,4.0
1701798829.703965,0.0,-5.0,1.0,16.0,8.0,-1.0,3.0,3.0
1701798829.703965,4.0,2.0,-1.0,-15.0,-6.0,-1.0,-6.0,-16.0
1701798829.703965,-7.0,4.0,-2.0,2.0,14.0,7.0,0.0,15.0
1701798829.703965,-2.0,-5.0,2.0,4.0,-17.0,-8.0,-3.0,0.0
1701798829.7243598,-4.0,-2.0,7.0,-22.0,-41.0,-14.0,-2.0,-2.0
1701798829.7243598,8.0,5.0,35.0,54.0,100.0,31.0,6.0,2.0
1701798829.7243598,2.0,4.0,-34.0,-20.0,-3.0,4.0,2.0,-1.0
1701798829.7243598,0.0,16.0,13.0,-18.0,-33.0,-14.0,-5.0,1.0
1701798829.7439692,-7.0,-23.0,-39.0,-26.0,-40.0,-13.0,-1.0,-12.0
1701798829.7439692,2.0,5.0,11.0,24.0,0.0,-4.0,-5.0,7.0
1701798829.763965,-2.0,-11.0,-3.0,-4.0,-7.0,1.0,0.0,-2.0
1701798829.763965,1.0,0.0,-6.0,3.0,7.0,2.0,0.0,-7.0
1701798829.763965,-6.0,4.0,55.0,-25.0,-43.0,-18.0,-6.0,-5.0
1701798829.763965,1.0,-8.0,-55.0,-28.0,-7.0,0.0,-2.0,1.0
1701798829.763965,5.0,-4.0,30.0,27.0,34.0,16.0,8.0,4.0
1701798829.7739713,-1.0,19.0,-57.0,-33.0,-20.0,-6.0,-7.0,-2.0
1701798829.7842011,-6.0,-16.0,-24.0,51.0,28.0,5.0,-2.0,-9.0
1701798829.7842011,-7.0,1.0,28.0,-3.0,-2.0,-8.0,-4.0,10.0
1701798829.7842011,5.0,16.0,-3.0,-4.0,-28.0,-19.0,-11.0,3.0
1701798829.7842011,15.0,-10.0,12.0,-14.0,-6.0,3.0,11.0,15.0
1701798829.7942157,-20.0,-16.0,-14.0,-16.0,12.0,5.0,-11.0,-16.0
1701798829.8039715,-20.0,11.0,-9.0,1.0,1.0,11.0,7.0,-17.0
1701798829.8139665,-5.0,-30.0,-13.0,-15.0,-21.0,-12.0,1.0,10.0
1701798829.8139665,10.0,-10.0,18.0,3.0,-9.0,-14.0,-4.0,10.0
1701798829.824002,14.0,52.0,55.0,20.0,45.0,25.0,-8.0,4.0
1701798829.824002,-6.0,-42.0,-34.0,-14.0,-28.0,-23.0,-14.0,-35.0
1701798829.824002,-24.0,-14.0,-19.0,-7.0,-5.0,12.0,36.0,14.0
1701798829.8339713,-1.0,11.0,56.0,24.0,14.0,-1.0,-6.0,-15.0
1701798829.8443716,10.0,-5.0,-62.0,-4.0,5.0,4.0,22.0,17.0
1701798829.8443716,-20.0,0.0,-8.0,-25.0,-32.0,-21.0,-30.0,-31.0
1701798829.8443716,-11.0,9.0,15.0,12.0,11.0,11.0,-10.0,-17.0
1701798829.8443716,0.0,-13.0,-12.0,18.0,20.0,6.0,1.0,-8.0
1701798829.8639674,1.0,1.0,13.0,0.0,4.0,4.0,3.0,22.0
1701798829.8639674,10.0,11.0,8.0,-8.0,-17.0,-5.0,0.0,4.0
1701798829.873974,5.0,2.0,-21.0,-4.0,-2.0,-7.0,-14.0,0.0
1701798829.873974,-9.0,8.0,-3.0,-1.0,-2.0,1.0,-5.0,-4.0
1701798829.8842313,-6.0,-7.0,11.0,-18.0,-15.0,-11.0,-8.0,-13.0
1701798829.8842313,7.0,-1.0,2.0,8.0,9.0,2.0,8.0,13.0
1701798829.8939745,5.0,5.0,7.0,20.0,12.0,7.0,2.0,-15.0
1701798829.8939745,-10.0,0.0,-1.0,0.0,4.0,-1.0,-8.0,0.0
1701798829.9042366,3.0,-7.0,-18.0,-8.0,-8.0,-3.0,1.0,1.0
1701798829.9042366,8.0,-2.0,1.0,-10.0,-15.0,-3.0,12.0,16.0
1701798829.9042366,-4.0,2.0,2.0,-8.0,-6.0,-6.0,-6.0,-6.0
1701798829.9042366,-6.0,-9.0,-10.0,-8.0,-7.0,-3.0,-2.0,-6.0
1701798829.9539654,4.0,-1.0,-5.0,6.0,9.0,11.0,-1.0,1.0
1701798829.9539654,5.0,1.0,8.0,5.0,-7.0,-4.0,-7.0,6.0
1701798829.9539654,4.0,1.0,4.0,1.0,3.0,-3.0,-11.0,-11.0
1701798829.9539654,0.0,0.0,-1.0,3.0,4.0,5.0,13.0,10.0
1701798829.9539654,-5.0,1.0,-2.0,-4.0,0.0,-1.0,2.0,-7.0
1701798829.9539654,5.0,5.0,6.0,-1.0,-1.0,-4.0,-9.0,2.0
1701798829.9539654,2.0,-9.0,-11.0,-11.0,-12.0,-7.0,-9.0,-1.0
1701798829.9539654,4.0,-1.0,-2.0,-3.0,-4.0,-2.0,3.0,-2.0
1701798829.964319,8.0,12.0,8.0,4.0,5.0,0.0,-4.0,11.0
1701798829.964319,-6.0,-17.0,-2.0,-1.0,0.0,-2.0,-16.0,0.0
1701798829.964319,22.0,-2.0,1.0,4.0,7.0,9.0,43.0,3.0
1701798829.964319,-23.0,11.0,-1.0,4.0,5.0,3.0,0.0,8.0
1701798829.9839668,-3.0,-12.0,-1.0,-13.0,-16.0,-8.0,7.0,-5.0
1701798829.9839668,-6.0,8.0,-9.0,-10.0,4.0,-4.0,-12.0,-6.0
1701798829.9939702,4.0,17.0,44.0,21.0,17.0,3.0,-11.0,5.0
1701798829.9939702,1.0,-24.0,-82.0,-55.0,-65.0,-30.0,-8.0,-7.0
1701798830.0042257,4.0,19.0,48.0,34.0,24.0,25.0,7.0,0.0
1701798830.0042257,3.0,-17.0,-24.0,27.0,15.0,10.0,10.0,7.0
1701798830.0139706,-6.0,-2.0,3.0,-19.0,-7.0,2.0,-1.0,-4.0
1701798830.0139706,2.0,8.0,-8.0,-77.0,-89.0,-69.0,-16.0,-5.0
1701798830.0240383,-6.0,-5.0,-30.0,65.0,81.0,71.0,2.0,-2.0
1701798830.0240383,8.0,1.0,27.0,63.0,45.0,35.0,17.0,5.0
1701798830.0240383,-3.0,16.0,53.0,24.0,2.0,-1.0,-4.0,3.0
1701798830.0240383,0.0,-6.0,24.0,-11.0,-24.0,-4.0,-8.0,-5.0
1701798830.0639977,3.0,-12.0,-81.0,-77.0,-63.0,-42.0,-6.0,2.0
1701798830.0639977,-4.0,-3.0,19.0,-36.0,-32.0,-19.0,3.0,4.0
1701798830.0639977,0.0,14.0,-17.0,33.0,37.0,23.0,3.0,2.0
1701798830.0639977,3.0,-12.0,36.0,34.0,42.0,21.0,6.0,2.0
1701798830.0639977,-8.0,-16.0,-1.0,-6.0,-6.0,-14.0,-2.0,-6.0
1701798830.0639977,2.0,2.0,-13.0,-2.0,-5.0,0.0,6.0,3.0
1701798830.0639977,-3.0,-7.0,-36.0,-63.0,-56.0,-34.0,-12.0,-5.0
1701798830.0639977,-3.0,16.0,35.0,40.0,41.0,17.0,2.0,5.0
1701798830.1040082,3.0,9.0,18.0,17.0,20.0,1.0,4.0,-3.0
1701798830.1040082,0.0,-23.0,-5.0,-17.0,-20.0,-8.0,-3.0,-3.0
1701798830.1040082,-3.0,-8.0,-6.0,-17.0,-25.0,-16.0,-11.0,-1.0
1701798830.1040082,-2.0,-8.0,-7.0,24.0,35.0,25.0,6.0,-5.0
1701798830.1040082,-3.0,14.0,16.0,-1.0,-1.0,-1.0,5.0,3.0
1701798830.1040082,1.0,6.0,30.0,-17.0,-18.0,-10.0,2.0,5.0
1701798830.1140435,-4.0,-7.0,-27.0,0.0,12.0,4.0,-3.0,-4.0
1701798830.1140435,2.0,0.0,-5.0,14.0,12.0,8.0,-1.0,-1.0
1701798830.1241484,-1.0,5.0,12.0,-14.0,-19.0,-19.0,-6.0,-6.0
1701798830.1241484,2.0,1.0,-5.0,-10.0,-6.0,-6.0,-2.0,-3.0
1701798830.134112,-3.0,5.0,38.0,9.0,7.0,3.0,-3.0,0.0
1701798830.134112,-4.0,10.0,-19.0,19.0,14.0,8.0,-2.0,-7.0
1701798830.144011,-2.0,-10.0,2.0,-6.0,-2.0,-5.0,-1.0,-2.0
1701798830.144011,0.0,-2.0,-13.0,-24.0,-11.0,-2.0,2.0,-2.0
1701798830.144011,-2.0,0.0,-7.0,3.0,-1.0,-2.0,0.0,0.0
1701798830.144011,-1.0,0.0,3.0,-9.0,0.0,0.0,-1.0,1.0
1701798830.1640124,-1.0,-7.0,-4.0,3.0,1.0,-5.0,-3.0,-2.0
1701798830.1640124,5.0,7.0,-5.0,7.0,-1.0,1.0,1.0,0.0
1701798830.1640124,-8.0,-5.0,-6.0,-7.0,-14.0,-14.0,-8.0,-3.0
1701798830.1640124,0.0,-10.0,-11.0,-4.0,2.0,5.0,4.0,-1.0
1701798830.1859899,-3.0,-3.0,0.0,5.0,3.0,5.0,3.0,-2.0
1701798830.1859899,0.0,3.0,-4.0,3.0,6.0,-2.0,-2.0,3.0
1701798830.1942077,2.0,-4.0,-4.0,3.0,6.0,3.0,-2.0,-1.0
1701798830.1952226,-1.0,-5.0,6.0,13.0,5.0,0.0,-3.0,-2.0
1701798830.2065964,-7.0,2.0,4.0,-15.0,-13.0,-7.0,0.0,-2.0
1701798830.2065964,2.0,13.0,8.0,-12.0,-16.0,-4.0,0.0,-1.0
1701798830.216598,0.0,-17.0,-20.0,0.0,8.0,3.0,1.0,-1.0
1701798830.216598,1.0,0.0,2.0,9.0,5.0,3.0,-1.0,0.0
1701798830.2265987,-1.0,2.0,3.0,-2.0,-3.0,-5.0,-2.0,1.0
1701798830.2265987,-3.0,-1.0,-6.0,1.0,-4.0,-6.0,-3.0,-2.0
1701798830.2265987,-2.0,-3.0,-8.0,-6.0,-5.0,-3.0,-2.0,-3.0
1701798830.2265987,-2.0,3.0,14.0,-2.0,2.0,6.0,5.0,0.0
1701798830.236853,-2.0,-3.0,0.0,5.0,-2.0,-6.0,-2.0,-2.0
1701798830.236853,-4.0,-1.0,-7.0,-4.0,0.0,-2.0,0.0,-1.0
1701798830.246601,-1.0,-1.0,15.0,5.0,-4.0,1.0,-4.0,0.0
1701798830.246601,1.0,0.0,-2.0,-1.0,8.0,4.0,-4.0,-1.0
1701798830.2665997,4.0,1.0,-15.0,2.0,4.0,2.0,3.0,-2.0
1701798830.2665997,-2.0,-2.0,6.0,0.0,2.0,3.0,1.0,0.0
1701798830.2665997,1.0,0.0,-7.0,-9.0,-13.0,-9.0,-2.0,0.0
1701798830.2665997,-2.0,-5.0,-6.0,-2.0,1.0,-9.0,-7.0,-3.0
1701798830.286775,-1.0,-2.0,4.0,-1.0,-1.0,2.0,-3.0,-1.0
1701798830.286775,-1.0,1.0,-2.0,6.0,8.0,-2.0,0.0,-1.0
1701798830.286775,-2.0,-4.0,-8.0,-2.0,1.0,1.0,1.0,-1.0
1701798830.286775,1.0,1.0,1.0,-4.0,-7.0,2.0,-1.0,-1.0
1701798830.306605,0.0,0.0,-1.0,-7.0,-6.0,-7.0,-4.0,-1.0
1701798830.306605,-3.0,-1.0,-4.0,-6.0,-7.0,-5.0,0.0,1.0
1701798830.3366005,0.0,0.0,-4.0,6.0,5.0,2.0,0.0,0.0
1701798830.3366005,0.0,0.0,-3.0,-5.0,-1.0,-4.0,-1.0,-3.0
1701798830.3366005,-3.0,-2.0,11.0,6.0,3.0,6.0,7.0,-1.0
1701798830.3366005,0.0,0.0,-1.0,1.0,0.0,5.0,2.0,-1.0
1701798830.3366005,0.0,-4.0,-7.0,-4.0,-3.0,-6.0,-6.0,-3.0
1701798830.3366005,0.0,1.0,5.0,1.0,1.0,0.0,-1.0,-1.0
1701798830.346598,13.0,-4.0,-6.0,-4.0,0.0,-5.0,-17.0,3.0
1701798830.346598,-13.0,-1.0,25.0,15.0,4.0,5.0,15.0,-4.0
1701798830.346598,-4.0,2.0,-23.0,-15.0,1.0,3.0,24.0,5.0
1701798830.346598,-3.0,-5.0,-11.0,-5.0,-7.0,-7.0,5.0,-1.0
1701798830.376962,-5.0,1.0,-10.0,-2.0,-2.0,1.0,-1.0,-3.0
1701798830.376962,4.0,0.0,-6.0,1.0,0.0,-3.0,-7.0,0.0
1701798830.376962,10.0,4.0,18.0,-5.0,0.0,-4.0,-9.0,-2.0
1701798830.376962,-7.0,1.0,14.0,17.0,2.0,-1.0,-2.0,1.0
1701798830.3873034,-4.0,-5.0,-8.0,-4.0,-5.0,-3.0,-2.0,-1.0
1701798830.3873034,-5.0,-3.0,1.0,-3.0,-7.0,-11.0,-23.0,-10.0
1701798830.3873034,5.0,2.0,24.0,-17.0,8.0,10.0,13.0,6.0
1701798830.3873034,19.0,9.0,-16.0,6.0,6.0,11.0,10.0,8.0
1701798830.4073095,-18.0,-10.0,-4.0,-5.0,-19.0,-15.0,-6.0,-7.0
1701798830.4073095,4.0,0.0,-3.0,11.0,2.0,-3.0,-9.0,-1.0
1701798830.4073095,-6.0,2.0,40.0,38.0,6.0,-4.0,-13.0,-1.0
1701798830.4073095,9.0,16.0,14.0,-46.0,-2.0,9.0,25.0,5.0
1701798830.4172323,-8.0,-19.0,-57.0,17.0,-5.0,-1.0,3.0,-3.0
1701798830.4172323,-2.0,-7.0,-47.0,-27.0,-3.0,2.0,6.0,3.0
1701798830.436959,-5.0,-12.0,-18.0,-10.0,-12.0,-9.0,-15.0,-6.0
1701798830.436959,-2.0,1.0,25.0,14.0,6.0,0.0,-19.0,-14.0
1701798830.4472413,5.0,14.0,33.0,4.0,4.0,-1.0,-5.0,5.0
1701798830.4472413,3.0,2.0,22.0,17.0,1.0,5.0,19.0,-6.0
1701798830.4472413,-5.0,-6.0,-23.0,-9.0,-1.0,-3.0,-6.0,-21.0
1701798830.4472413,3.0,3.0,38.0,-1.0,-10.0,-8.0,8.0,41.0
1701798830.4769604,-1.0,-6.0,-34.0,-26.0,5.0,4.0,2.0,-2.0
1701798830.4769604,0.0,-3.0,-40.0,3.0,6.0,2.0,-4.0,8.0
1701798830.4769604,0.0,8.0,52.0,10.0,-8.0,-2.0,0.0,-7.0
1701798830.4769604,-8.0,-12.0,-57.0,-15.0,-8.0,-4.0,-6.0,-15.0
1701798830.486961,4.0,0.0,10.0,9.0,8.0,1.0,-1.0,1.0
1701798830.486961,2.0,6.0,13.0,4.0,-12.0,-10.0,-8.0,-3.0
1701798830.486961,-8.0,-19.0,-77.0,-59.0,-19.0,-6.0,1.0,-1.0
1701798830.4969664,-2.0,1.0,32.0,50.0,26.0,15.0,-3.0,-4.0
1701798830.507345,2.0,4.0,37.0,-11.0,-8.0,-3.0,1.0,1.0
1701798830.507345,1.0,0.0,7.0,-3.0,0.0,1.0,2.0,-3.0
1701798830.507345,3.0,12.0,17.0,-23.0,-6.0,-3.0,-1.0,7.0
1701798830.507345,-5.0,-16.0,-34.0,32.0,-9.0,-10.0,-15.0,-8.0
1701798830.5369608,2.0,2.0,-13.0,2.0,9.0,10.0,16.0,2.0
1701798830.5369608,-4.0,1.0,12.0,12.0,-3.0,-4.0,-4.0,-4.0
1701798830.5369608,-1.0,5.0,12.0,1.0,2.0,1.0,0.0,5.0
1701798830.5369608,-3.0,-12.0,-55.0,-26.0,-1.0,-2.0,-4.0,-5.0
1701798830.5369608,1.0,6.0,37.0,3.0,0.0,-2.0,-1.0,-1.0
1701798830.5369608,-7.0,-12.0,-22.0,-7.0,-4.0,-1.0,-3.0,-2.0
1701798830.5470123,2.0,7.0,44.0,23.0,12.0,9.0,5.0,7.0
1701798830.5470123,-5.0,-12.0,-60.0,-4.0,1.0,-5.0,-5.0,-10.0
1701798830.5672517,0.0,2.0,-8.0,-21.0,-15.0,-9.0,-13.0,-4.0
1701798830.5672517,1.0,1.0,9.0,-15.0,-1.0,1.0,1.0,4.0
1701798830.5672517,-4.0,-3.0,-6.0,12.0,0.0,-3.0,-1.0,-5.0
1701798830.5672517,-2.0,4.0,46.0,-9.0,-7.0,-4.0,0.0,1.0
1701798830.5969675,-1.0,2.0,-24.0,1.0,-2.0,4.0,0.0,-1.0
1701798830.5969675,-1.0,-6.0,8.0,-4.0,8.0,5.0,0.0,-1.0
1701798830.6069622,1.0,8.0,-1.0,21.0,6.0,-2.0,-1.0,0.0
1701798830.6069622,0.0,-5.0,-10.0,-9.0,-10.0,-6.0,-1.0,11.0
1701798830.6069622,-2.0,-3.0,7.0,-2.0,-8.0,-11.0,-6.0,-19.0
1701798830.6069622,7.0,-6.0,-16.0,-4.0,22.0,9.0,1.0,9.0
1701798830.6069622,-16.0,-1.0,2.0,40.0,10.0,6.0,8.0,-4.0
1701798830.6069622,-5.0,-1.0,28.0,-30.0,-21.0,-7.0,3.0,6.0
1701798830.6273444,30.0,8.0,15.0,5.0,5.0,-2.0,-12.0,2.0
1701798830.6273444,4.0,-7.0,-22.0,-18.0,-18.0,0.0,2.0,5.0
1701798830.6273444,-21.0,-14.0,11.0,20.0,19.0,1.0,-2.0,-4.0
1701798830.6273444,-16.0,1.0,-29.0,0.0,8.0,-4.0,-13.0,-28.0
1701798830.6569633,-3.0,4.0,17.0,-4.0,-11.0,-7.0,-3.0,1.0
1701798830.6569633,3.0,4.0,-16.0,-15.0,-14.0,-11.0,-6.0,-7.0
1701798830.6569633,15.0,2.0,4.0,-3.0,0.0,9.0,11.0,27.0
1701798830.6569633,-5.0,-6.0,8.0,0.0,-1.0,-1.0,7.0,-6.0
1701798830.6669614,10.0,1.0,30.0,0.0,4.0,-2.0,-6.0,3.0
1701798830.6669614,-10.0,-3.0,-9.0,1.0,0.0,-1.0,-8.0,-7.0
1701798830.6669614,-3.0,-6.0,-15.0,-8.0,-11.0,-4.0,1.0,-10.0
1701798830.6769676,1.0,3.0,14.0,4.0,8.0,6.0,-1.0,1.0
1701798830.6873512,-8.0,-4.0,-1.0,0.0,0.0,2.0,8.0,6.0
1701798830.6873512,-2.0,5.0,26.0,3.0,-1.0,-4.0,3.0,2.0
1701798830.6873512,0.0,-5.0,-43.0,-23.0,-5.0,-1.0,0.0,-3.0
1701798830.6873512,4.0,-4.0,9.0,18.0,3.0,1.0,-6.0,3.0
1701798830.7181869,-8.0,-5.0,2.0,-11.0,0.0,3.0,5.0,-4.0
1701798830.7191865,-7.0,4.0,41.0,39.0,0.0,-4.0,-4.0,-12.0
1701798830.7191865,15.0,-4.0,-34.0,-41.0,-6.0,-4.0,-4.0,8.0
1701798830.7191865,6.0,-8.0,-53.0,-10.0,-5.0,-4.0,-5.0,-8.0
1701798830.7259748,-19.0,1.0,-35.0,-21.0,0.0,6.0,6.0,4.0
1701798830.7259748,2.0,-12.0,-42.0,0.0,3.0,-4.0,-7.0,-7.0
1701798830.7394998,-2.0,2.0,6.0,2.0,-8.0,-4.0,-10.0,-11.0
1701798830.7394998,0.0,8.0,38.0,21.0,-2.0,-6.0,-6.0,-3.0
1701798830.7495077,-7.0,-9.0,-36.0,-7.0,-5.0,-3.0,6.0,8.0
1701798830.7495077,7.0,6.0,9.0,-21.0,-2.0,2.0,5.0,5.0
1701798830.7495077,9.0,3.0,20.0,3.0,2.0,5.0,0.0,10.0
1701798830.7495077,-9.0,1.0,-28.0,-23.0,8.0,4.0,-5.0,-23.0
1701798830.7695081,15.0,7.0,39.0,21.0,15.0,3.0,2.0,13.0
1701798830.7695081,-12.0,-22.0,-74.0,-7.0,-16.0,-8.0,-13.0,-14.0
1701798830.7695081,1.0,6.0,6.0,-1.0,-4.0,-6.0,4.0,1.0
1701798830.7695081,1.0,-5.0,-27.0,-10.0,-6.0,-2.0,-3.0,8.0
1701798830.7898066,-2.0,-3.0,-21.0,-13.0,15.0,17.0,6.0,-7.0
1701798830.7898066,-10.0,-1.0,8.0,0.0,-1.0,0.0,0.0,-10.0
1701798830.7898066,2.0,-6.0,-12.0,32.0,5.0,-2.0,-5.0,11.0
1701798830.7898066,3.0,5.0,45.0,2.0,-8.0,-6.0,3.0,5.0
1701798830.8095193,-3.0,1.0,-12.0,9.0,-7.0,-7.0,-5.0,2.0
1701798830.8095193,14.0,10.0,43.0,-22.0,-5.0,7.0,7.0,6.0
1701798830.8095193,-21.0,-14.0,-73.0,-7.0,-1.0,-8.0,-10.0,-21.0
1701798830.8095193,32.0,0.0,10.0,-1.0,-5.0,-10.0,-3.0,25.0
1701798830.8495028,-30.0,19.0,74.0,6.0,-7.0,-6.0,-1.0,-20.0
1701798830.8495028,-4.0,9.0,-23.0,16.0,18.0,13.0,2.0,5.0
1701798830.8495028,14.0,-27.0,-3.0,-11.0,-15.0,-7.0,-5.0,1.0
1701798830.8495028,20.0,-5.0,-25.0,-3.0,27.0,17.0,15.0,9.0
1701798830.8495028,-35.0,5.0,40.0,5.0,-3.0,5.0,-3.0,-21.0
1701798830.8495028,-23.0,2.0,2.0,25.0,15.0,4.0,0.0,-3.0
1701798830.8495028,25.0,-10.0,8.0,-12.0,-16.0,-3.0,-1.0,23.0
1701798830.8495028,3.0,17.0,20.0,-10.0,-1.0,-6.0,0.0,2.0
1701798830.8695066,-1.0,-10.0,-21.0,20.0,-12.0,-6.0,-1.0,-20.0
1701798830.8695066,-19.0,-39.0,34.0,9.0,-5.0,-5.0,-1.0,9.0
1701798830.8695066,-75.0,-5.0,-2.0,3.0,4.0,-5.0,-16.0,-24.0
1701798830.8695066,4.0,9.0,16.0,-5.0,1.0,2.0,2.0,5.0
1701798830.889528,38.0,-8.0,-40.0,0.0,9.0,2.0,9.0,12.0
1701798830.889528,19.0,7.0,-13.0,-28.0,12.0,7.0,11.0,16.0
1701798830.889528,-19.0,15.0,38.0,21.0,-9.0,-1.0,5.0,-13.0
1701798830.889528,-16.0,-7.0,-8.0,8.0,-30.0,-17.0,-18.0,2.0
1701798830.909903,-2.0,-5.0,-31.0,-3.0,15.0,2.0,-7.0,-13.0
1701798830.909903,29.0,0.0,-42.0,-28.0,-26.0,-4.0,1.0,12.0
1701798830.909903,14.0,2.0,-14.0,-8.0,10.0,5.0,6.0,1.0
1701798830.909903,-19.0,5.0,26.0,1.0,5.0,4.0,3.0,-21.0
1701798830.929504,16.0,-3.0,-9.0,1.0,2.0,-9.0,-14.0,11.0
1701798830.929504,-5.0,0.0,11.0,16.0,-2.0,-3.0,3.0,-8.0
1701798830.929504,10.0,12.0,15.0,-32.0,5.0,5.0,3.0,6.0
1701798830.929504,-5.0,-8.0,-30.0,11.0,5.0,7.0,-2.0,-6.0
1701798830.949774,5.0,0.0,16.0,-12.0,-8.0,2.0,1.0,11.0
1701798830.949774,-5.0,10.0,51.0,37.0,8.0,0.0,-5.0,-21.0
1701798830.949774,2.0,1.0,4.0,3.0,0.0,2.0,1.0,-10.0
1701798830.949774,0.0,-7.0,-33.0,-47.0,-10.0,-6.0,6.0,13.0
1701798830.9697745,-2.0,-5.0,-13.0,21.0,11.0,0.0,1.0,6.0
1701798830.9697745,-3.0,26.0,60.0,-11.0,4.0,0.0,0.0,-6.0
1701798830.9697745,15.0,-20.0,5.0,3.0,-17.0,-11.0,-8.0,0.0
1701798830.9697745,-8.0,-2.0,1.0,-12.0,-13.0,-11.0,-9.0,-11.0
1701798830.9895043,-10.0,-23.0,-93.0,-30.0,-35.0,-9.0,4.0,-1.0
1701798830.9895043,4.0,7.0,60.0,14.0,7.0,2.0,-7.0,6.0
1701798830.9895043,17.0,25.0,60.0,41.0,29.0,17.0,10.0,4.0
1701798830.9895043,-14.0,-18.0,16.0,-25.0,-9.0,-10.0,-12.0,-16.0
1701798831.0198257,-5.0,14.0,56.0,7.0,6.0,5.0,4.0,9.0
1701798831.0198257,3.0,-8.0,-75.0,-67.0,-39.0,-23.0,-5.0,11.0
1701798831.0198257,-11.0,-13.0,-47.0,9.0,29.0,16.0,0.0,-5.0
1701798831.0198257,1.0,13.0,47.0,35.0,14.0,9.0,7.0,2.0
1701798831.029737,6.0,4.0,25.0,13.0,-13.0,-13.0,-10.0,-6.0
1701798831.029737,-6.0,-8.0,-68.0,-49.0,-2.0,-5.0,-8.0,-8.0
1701798831.0395021,10.0,17.0,40.0,38.0,-6.0,5.0,9.0,11.0
1701798831.0395021,-14.0,-22.0,-78.0,-6.0,-3.0,-8.0,-8.0,-5.0
1701798831.049501,0.0,6.0,54.0,0.0,3.0,2.0,3.0,2.0
1701798831.049501,2.0,1.0,20.0,8.0,-9.0,-8.0,-1.0,-8.0
1701798831.049501,-8.0,-15.0,-72.0,-36.0,-22.0,-20.0,-13.0,-9.0
1701798831.049501,4.0,2.0,2.0,28.0,14.0,10.0,7.0,3.0
1701798831.0698898,2.0,7.0,22.0,-4.0,-5.0,-4.0,-5.0,-3.0
1701798831.0698898,-6.0,-13.0,-6.0,-14.0,-6.0,-3.0,0.0,0.0
1701798831.0698898,1.0,3.0,-4.0,8.0,14.0,9.0,5.0,0.0
1701798831.0698898,4.0,6.0,38.0,7.0,0.0,3.0,0.0,0.0
1701798831.0898578,-3.0,-11.0,-21.0,-20.0,-8.0,-7.0,-5.0,0.0
1701798831.0898578,-1.0,9.0,27.0,25.0,3.0,0.0,-6.0,-2.0
1701798831.0898578,0.0,2.0,9.0,3.0,-7.0,-4.0,2.0,-1.0
1701798831.0898578,-1.0,-7.0,-17.0,-15.0,-5.0,3.0,1.0,-4.0
1701798831.109503,4.0,-1.0,18.0,18.0,7.0,-1.0,-4.0,-1.0
1701798831.109503,1.0,-5.0,6.0,-16.0,-2.0,-7.0,-11.0,-2.0
1701798831.109503,-14.0,-5.0,5.0,-12.0,-5.0,-8.0,2.0,-5.0
1701798831.109503,18.0,13.0,22.0,4.0,1.0,8.0,6.0,4.0
1701798831.1298873,-23.0,-6.0,-16.0,-4.0,1.0,7.0,6.0,1.0
1701798831.1298873,-3.0,10.0,-2.0,19.0,-2.0,0.0,2.0,-12.0
1701798831.1298873,5.0,4.0,22.0,-5.0,-9.0,-6.0,-5.0,8.0
1701798831.1298873,-27.0,-3.0,2.0,-3.0,-4.0,-5.0,-2.0,-8.0
1701798831.1495044,21.0,1.0,-42.0,9.0,9.0,2.0,-3.0,15.0
1701798831.1495044,10.0,-11.0,-41.0,-3.0,-5.0,-7.0,-2.0,-9.0
1701798831.1495044,10.0,14.0,8.0,-10.0,-12.0,-10.0,-10.0,1.0
1701798831.1495044,-13.0,-20.0,-14.0,9.0,1.0,11.0,8.0,-14.0
1701798831.159528,19.0,-7.0,-28.0,-15.0,16.0,9.0,9.0,28.0
1701798831.159528,-34.0,0.0,5.0,22.0,20.0,3.0,-6.0,-24.0
1701798831.1697514,7.0,5.0,-31.0,-8.0,-7.0,-2.0,2.0,-1.0
1701798831.1697514,9.0,6.0,15.0,-3.0,-12.0,-9.0,-9.0,-5.0
1701798831.189771,15.0,-6.0,-1.0,-21.0,-25.0,-13.0,-14.0,-8.0
1701798831.189771,7.0,-9.0,1.0,6.0,-6.0,-5.0,-7.0,13.0
1701798831.189771,6.0,5.0,13.0,-2.0,-10.0,-5.0,5.0,0.0
1701798831.189771,-1.0,-4.0,-71.0,-8.0,27.0,20.0,19.0,11.0
1701798831.2095015,-12.0,-2.0,54.0,19.0,23.0,12.0,9.0,-7.0
1701798831.2095015,5.0,2.0,-37.0,26.0,-2.0,2.0,3.0,8.0
1701798831.2095015,-12.0,-10.0,-7.0,-14.0,-4.0,-4.0,-3.0,-5.0
1701798831.2095015,11.0,13.0,18.0,-12.0,-20.0,-8.0,0.0,6.0
1701798831.2195272,-21.0,-3.0,-11.0,-9.0,-9.0,-8.0,-9.0,-15.0
1701798831.2195272,-1.0,2.0,17.0,-4.0,6.0,2.0,2.0,1.0
1701798831.2400103,-2.0,0.0,-2.0,-13.0,-3.0,2.0,-2.0,0.0
1701798831.2400103,-4.0,-7.0,18.0,28.0,3.0,2.0,-2.0,0.0
1701798831.2522645,2.0,4.0,-5.0,24.0,7.0,-3.0,-2.0,0.0
1701798831.2522645,-1.0,4.0,9.0,-20.0,-2.0,5.0,4.0,2.0
1701798831.2537758,-2.0,-6.0,10.0,16.0,3.0,4.0,-1.0,-5.0
1701798831.2537758,2.0,5.0,-8.0,9.0,-4.0,-8.0,-13.0,2.0
1701798831.2720096,-7.0,3.0,-8.0,12.0,-3.0,-4.0,-9.0,-24.0
1701798831.2720096,0.0,-3.0,21.0,1.0,5.0,5.0,9.0,16.0
1701798831.2720096,9.0,11.0,-5.0,-33.0,5.0,0.0,3.0,4.0
1701798831.2720096,-6.0,-7.0,53.0,4.0,1.0,4.0,15.0,11.0
1701798831.282295,-12.0,-17.0,-43.0,49.0,-26.0,-24.0,-17.0,-17.0
1701798831.282295,6.0,8.0,24.0,-13.0,8.0,2.0,4.0,5.0
1701798831.2923849,-2.0,1.0,4.0,30.0,13.0,3.0,-6.0,-11.0
1701798831.2923849,2.0,0.0,5.0,9.0,-11.0,-9.0,-10.0,0.0
1701798831.3124206,2.0,-6.0,-52.0,-57.0,-6.0,8.0,13.0,9.0
1701798831.3124206,-10.0,-16.0,-9.0,0.0,-23.0,-15.0,-11.0,-4.0
1701798831.3224182,-1.0,3.0,68.0,-15.0,5.0,-1.0,-1.0,-6.0
1701798831.3224182,-2.0,3.0,-24.0,52.0,-11.0,1.0,2.0,-2.0
1701798831.3326492,-6.0,-9.0,7.0,-23.0,16.0,13.0,-1.0,-2.0
1701798831.3326492,5.0,13.0,29.0,35.0,6.0,1.0,0.0,1.0
1701798831.3326492,-9.0,-20.0,-47.0,-37.0,-15.0,-14.0,-9.0,-12.0
1701798831.3326492,3.0,5.0,61.0,-7.0,7.0,1.0,5.0,9.0
1701798831.3426611,-2.0,12.0,15.0,-5.0,-2.0,-3.0,-7.0,-4.0
1701798831.3426611,4.0,0.0,22.0,3.0,0.0,6.0,6.0,1.0
1701798831.3526285,-2.0,1.0,-9.0,16.0,10.0,2.0,3.0,4.0
1701798831.3526285,0.0,0.0,6.0,-22.0,-4.0,2.0,2.0,0.0
1701798831.3724253,8.0,6.0,-5.0,-5.0,-3.0,-4.0,0.0,2.0
1701798831.3724253,-11.0,-6.0,-13.0,-25.0,4.0,5.0,2.0,-3.0
1701798831.3724253,14.0,5.0,5.0,32.0,2.0,-1.0,-3.0,0.0
1701798831.3724253,-22.0,-4.0,20.0,-14.0,-6.0,-5.0,-10.0,-8.0
1701798831.3924196,0.0,2.0,-19.0,-13.0,-6.0,-1.0,4.0,4.0
1701798831.3924196,11.0,-2.0,-16.0,27.0,17.0,5.0,3.0,9.0
1701798831.3924196,-21.0,-17.0,-110.0,-15.0,-6.0,-3.0,-1.0,-8.0
1701798831.3924196,26.0,11.0,30.0,-4.0,11.0,-6.0,-10.0,3.0
1701798831.4027584,26.0,-4.0,5.0,-12.0,-18.0,-3.0,7.0,21.0
1701798831.4027584,-12.0,-7.0,-23.0,4.0,-10.0,2.0,7.0,-8.0
1701798831.412673,-44.0,-8.0,-28.0,-6.0,9.0,6.0,0.0,-19.0
1701798831.412673,-16.0,-28.0,-12.0,-4.0,1.0,-1.0,-10.0,-15.0
1701798831.4424179,3.0,12.0,30.0,18.0,-2.0,-8.0,-13.0,-4.0
1701798831.4424179,20.0,-18.0,-81.0,-11.0,15.0,10.0,7.0,14.0
1701798831.4424179,17.0,10.0,33.0,-6.0,-17.0,-11.0,1.0,18.0
1701798831.4424179,8.0,-2.0,-33.0,-7.0,-1.0,-5.0,-7.0,-8.0
1701798831.4527621,-13.0,8.0,16.0,1.0,-2.0,6.0,1.0,-28.0
1701798831.4527621,-5.0,5.0,54.0,-5.0,-6.0,-8.0,-9.0,7.0
1701798831.4527621,-1.0,-2.0,-41.0,-1.0,2.0,-4.0,-3.0,4.0
1701798831.4527621,4.0,-2.0,-41.0,-1.0,16.0,10.0,4.0,5.0
1701798831.462667,4.0,1.0,14.0,8.0,-1.0,-3.0,3.0,4.0
1701798831.462667,-7.0,5.0,8.0,-9.0,-5.0,-2.0,-1.0,-10.0
1701798831.482759,-7.0,-8.0,32.0,24.0,-12.0,0.0,5.0,-1.0
1701798831.482759,9.0,-1.0,-19.0,-32.0,-9.0,-9.0,-1.0,2.0
1701798831.5024178,-11.0,2.0,31.0,2.0,5.0,1.0,-1.0,-1.0
1701798831.5024178,-9.0,0.0,26.0,16.0,-1.0,-4.0,-8.0,-11.0
1701798831.5024178,10.0,-7.0,4.0,3.0,-2.0,6.0,-4.0,4.0
1701798831.5024178,-4.0,4.0,-3.0,-25.0,3.0,0.0,-4.0,-5.0
1701798831.5127342,-9.0,-4.0,55.0,39.0,24.0,7.0,9.0,1.0
1701798831.5127342,5.0,13.0,-6.0,-25.0,-15.0,-5.0,-4.0,-1.0
1701798831.5127342,-3.0,-25.0,-10.0,-8.0,-25.0,-12.0,-6.0,0.0
1701798831.5127342,-13.0,-7.0,-68.0,-29.0,-9.0,-3.0,-5.0,-9.0
1701798831.5227535,0.0,7.0,5.0,11.0,14.0,1.0,-2.0,0.0
1701798831.5227535,11.0,9.0,33.0,-2.0,12.0,-3.0,-2.0,8.0
1701798831.5424192,3.0,5.0,17.0,33.0,-4.0,0.0,-3.0,-10.0
1701798831.5424192,-4.0,15.0,57.0,23.0,-5.0,2.0,7.0,0.0
1701798831.5524206,-3.0,-24.0,-82.0,-35.0,-19.0,-3.0,5.0,6.0
1701798831.5524206,-5.0,-13.0,-22.0,65.0,6.0,-5.0,-9.0,-11.0
1701798831.5524206,4.0,13.0,-8.0,-42.0,3.0,-3.0,-8.0,-19.0
1701798831.5524206,-2.0,-12.0,23.0,24.0,0.0,-2.0,0.0,12.0
1701798831.5824215,4.0,8.0,-13.0,-2.0,-17.0,-6.0,2.0,0.0
1701798831.5824215,-1.0,0.0,-33.0,-17.0,24.0,16.0,5.0,1.0
1701798831.5824215,-2.0,-2.0,21.0,25.0,-1.0,-8.0,-4.0,-1.0
1701798831.5824215,4.0,17.0,29.0,-6.0,-2.0,-3.0,1.0,-3.0
1701798831.5824215,-6.0,-12.0,-11.0,-22.0,-12.0,-1.0,-2.0,-2.0
1701798831.5824215,-5.0,-4.0,-21.0,-2.0,-16.0,-11.0,-2.0,-4.0
1701798831.6024206,7.0,6.0,26.0,-9.0,14.0,6.0,-2.0,7.0
1701798831.6024206,3.0,5.0,-8.0,4.0,2.0,0.0,3.0,0.0
1701798831.6124191,-5.0,-4.0,8.0,-5.0,-6.0,-1.0,-3.0,-2.0
1701798831.6124191,13.0,4.0,18.0,-1.0,0.0,6.0,1.0,6.0
1701798831.6124191,-24.0,-6.0,1.0,-7.0,5.0,-3.0,0.0,-7.0
1701798831.6124191,0.0,4.0,-15.0,-5.0,0.0,-8.0,-9.0,-3.0
1701798831.6327775,7.0,-6.0,27.0,18.0,5.0,2.0,0.0,0.0
1701798831.6327775,-20.0,-3.0,0.0,-17.0,-18.0,-3.0,2.0,-8.0
1701798831.6327775,11.0,-1.0,-23.0,2.0,12.0,10.0,6.0,9.0
1701798831.6327775,2.0,1.0,-41.0,-11.0,-7.0,-5.0,-2.0,0.0
1701798831.6427217,-6.0,-15.0,-38.0,4.0,-4.0,-11.0,-6.0,0.0
1701798831.6427217,33.0,6.0,23.0,-20.0,-10.0,-7.0,-5.0,9.0
1701798831.6624217,5.0,-3.0,8.0,-5.0,-3.0,6.0,1.0,-10.0
1701798831.6624217,-85.0,-10.0,3.0,11.0,5.0,2.0,-10.0,-35.0
1701798831.6624217,-2.0,7.0,4.0,3.0,10.0,8.0,8.0,12.0
1701798831.6624217,-8.0,-3.0,-13.0,-4.0,-2.0,-8.0,-4.0,-16.0
1701798831.6724193,16.0,-6.0,-10.0,3.0,0.0,-5.0,-5.0,12.0
1701798831.6724193,28.0,7.0,22.0,-6.0,-17.0,-8.0,-2.0,7.0
1701798831.6927264,-17.0,-1.0,3.0,-5.0,-1.0,1.0,-2.0,-10.0
1701798831.6927264,0.0,-7.0,-17.0,-2.0,0.0,-2.0,-1.0,7.0
1701798831.6927264,8.0,10.0,11.0,1.0,0.0,-4.0,1.0,3.0
1701798831.6927264,0.0,-4.0,-14.0,8.0,13.0,12.0,3.0,1.0
1701798831.70273,7.0,7.0,42.0,9.0,5.0,2.0,0.0,0.0
1701798831.70273,-1.0,-8.0,-82.0,-8.0,-7.0,-5.0,-3.0,1.0
1701798831.72242,-2.0,2.0,16.0,-6.0,3.0,-4.0,-6.0,-3.0
1701798831.72242,5.0,-2.0,-49.0,-6.0,-5.0,-3.0,1.0,1.0
1701798831.72242,-1.0,0.0,-16.0,-2.0,-3.0,-5.0,-3.0,-2.0
1701798831.72242,-6.0,10.0,57.0,4.0,6.0,3.0,1.0,-1.0
1701798831.7324188,-5.0,3.0,-7.0,1.0,-7.0,3.0,1.0,2.0
1701798831.7324188,7.0,-9.0,5.0,-3.0,8.0,2.0,-6.0,-1.0
1701798831.7528043,-1.0,-3.0,-21.0,-18.0,0.0,-5.0,-4.0,-5.0
1701798831.7528043,-5.0,2.0,-23.0,-12.0,-3.0,-4.0,3.0,-10.0
1701798831.7528043,-2.0,1.0,22.0,3.0,-13.0,-8.0,1.0,15.0
1701798831.7528043,8.0,5.0,28.0,12.0,-1.0,1.0,4.0,3.0
1701798831.7772808,0.0,-3.0,-36.0,10.0,4.0,1.0,-9.0,-13.0
1701798831.7772808,-15.0,-16.0,-2.0,-11.0,-8.0,2.0,-3.0,13.0
1701798831.7787495,2.0,10.0,-3.0,-43.0,4.0,8.0,3.0,-7.0
1701798831.7787495,1.0,10.0,58.0,62.0,18.0,11.0,15.0,4.0
1701798831.7946248,-6.0,-21.0,-65.0,-22.0,-20.0,-15.0,-14.0,-2.0
1701798831.7946248,-4.0,-4.0,2.0,-6.0,-2.0,3.0,-1.0,-4.0
1701798831.7946248,-2.0,5.0,22.0,4.0,4.0,0.0,-2.0,4.0
1701798831.7946248,9.0,-4.0,-32.0,5.0,0.0,-7.0,-2.0,11.0
1701798831.815281,0.0,13.0,92.0,1.0,4.0,5.0,2.0,-9.0
1701798831.815281,-4.0,0.0,12.0,11.0,10.0,5.0,2.0,-4.0
1701798831.815281,-15.0,-28.0,-75.0,-34.0,-20.0,-8.0,-5.0,-3.0
1701798831.815281,6.0,10.0,-22.0,7.0,1.0,9.0,14.0,-2.0
1701798831.8352616,3.0,8.0,34.0,21.0,12.0,-4.0,-18.0,-4.0
1701798831.8352616,8.0,10.0,17.0,-1.0,-3.0,-6.0,-1.0,3.0
1701798831.8352616,2.0,5.0,29.0,22.0,11.0,6.0,4.0,1.0
1701798831.8352616,-5.0,-9.0,-5.0,-11.0,-7.0,-1.0,1.0,2.0
1701798831.8455825,-1.0,-3.0,-22.0,-16.0,-8.0,-3.0,4.0,4.0
1701798831.8455825,0.0,3.0,10.0,-2.0,0.0,-1.0,-1.0,3.0
1701798831.8455825,-2.0,-2.0,-6.0,2.0,-1.0,-5.0,-6.0,-11.0
1701798831.8455825,2.0,-6.0,8.0,-5.0,-7.0,-5.0,-9.0,-3.0
1701798831.865926,11.0,3.0,-9.0,-12.0,2.0,3.0,5.0,4.0
1701798831.865926,-11.0,-4.0,0.0,11.0,6.0,4.0,1.0,-3.0
1701798831.8755326,-4.0,0.0,3.0,5.0,-8.0,0.0,-5.0,-8.0
1701798831.8755326,15.0,-4.0,19.0,-11.0,0.0,-2.0,-6.0,1.0
1701798831.895583,-17.0,2.0,18.0,5.0,12.0,3.0,0.0,-6.0
1701798831.895583,19.0,3.0,-7.0,-3.0,-20.0,-6.0,0.0,6.0
1701798831.895583,-28.0,-4.0,-11.0,14.0,8.0,0.0,3.0,-11.0
1701798831.895583,3.0,5.0,16.0,-23.0,-7.0,-4.0,-6.0,3.0
1701798831.9059412,37.0,10.0,-6.0,-17.0,-12.0,-1.0,8.0,6.0
1701798831.9059412,-54.0,-2.0,-34.0,-14.0,-6.0,-6.0,-13.0,-29.0
1701798831.915895,28.0,3.0,23.0,27.0,14.0,11.0,13.0,39.0
1701798831.915895,9.0,0.0,5.0,2.0,-2.0,-7.0,-1.0,-20.0
1701798831.925928,-45.0,-27.0,-25.0,0.0,-7.0,-11.0,-21.0,-13.0
1701798831.925928,17.0,17.0,38.0,-2.0,-1.0,5.0,5.0,18.0
1701798831.9355907,-9.0,-10.0,-22.0,-22.0,2.0,-5.0,-5.0,-24.0
1701798831.9355907,-7.0,3.0,-10.0,0.0,-5.0,-3.0,4.0,16.0
1701798831.955616,9.0,3.0,7.0,4.0,0.0,-1.0,0.0,2.0
1701798831.955616,-3.0,-2.0,0.0,12.0,-5.0,-3.0,-7.0,-6.0
1701798831.955616,6.0,11.0,6.0,7.0,30.0,16.0,-1.0,9.0
1701798831.955616,12.0,-8.0,8.0,5.0,-4.0,-5.0,-1.0,2.0
1701798831.965852,-8.0,4.0,-8.0,-4.0,-4.0,5.0,7.0,-6.0
1701798831.965852,8.0,-6.0,-5.0,2.0,3.0,1.0,1.0,3.0
1701798831.9758246,10.0,-3.0,-1.0,-2.0,-15.0,-8.0,-2.0,-5.0
1701798831.9758246,-14.0,-2.0,-25.0,-25.0,-8.0,-13.0,-16.0,-13.0
1701798831.9858842,28.0,-1.0,6.0,11.0,-5.0,-2.0,-8.0,17.0
1701798831.9858842,-24.0,-12.0,6.0,2.0,0.0,2.0,10.0,-13.0
1701798831.9955845,-6.0,9.0,18.0,1.0,-5.0,-4.0,2.0,5.0
1701798831.9955845,-6.0,1.0,14.0,-29.0,2.0,5.0,3.0,0.0
1701798832.0156288,8.0,-4.0,24.0,27.0,6.0,1.0,-3.0,1.0
1701798832.0156288,-10.0,-7.0,-16.0,-13.0,1.0,-2.0,-5.0,-2.0
1701798832.0156288,-8.0,7.0,37.0,31.0,-3.0,-7.0,-8.0,-10.0
1701798832.0156288,-17.0,0.0,-24.0,-14.0,-6.0,3.0,0.0,-1.0
1701798832.025818,9.0,-3.0,-27.0,-6.0,-2.0,0.0,2.0,3.0
1701798832.025818,16.0,0.0,-8.0,2.0,10.0,2.0,-1.0,8.0
1701798832.0357697,-10.0,-11.0,-8.0,-15.0,-6.0,1.0,-5.0,-25.0
1701798832.0357697,-1.0,8.0,9.0,-10.0,9.0,4.0,2.0,13.0
1701798832.0755854,-4.0,-4.0,1.0,34.0,-7.0,-8.0,-2.0,-6.0
1701798832.0755854,0.0,-12.0,6.0,30.0,3.0,2.0,14.0,13.0
1701798832.0755854,-11.0,-22.0,-98.0,-45.0,-23.0,-22.0,-18.0,-26.0
1701798832.0755854,15.0,3.0,46.0,-33.0,-21.0,-8.0,-7.0,18.0
1701798832.0755854,-9.0,7.0,26.0,20.0,37.0,20.0,7.0,-6.0
1701798832.0755854,11.0,20.0,30.0,-25.0,9.0,9.0,5.0,1.0
1701798832.0755854,6.0,-11.0,1.0,56.0,0.0,1.0,-1.0,5.0
1701798832.0755854,-2.0,7.0,53.0,45.0,4.0,0.0,2.0,-10.0
1701798832.085839,-15.0,-2.0,-29.0,-83.0,-15.0,-8.0,3.0,-1.0
1701798832.085839,-3.0,-18.0,-8.0,-2.0,-25.0,-12.0,-12.0,-8.0
1701798832.0959027,17.0,16.0,29.0,-2.0,15.0,10.0,7.0,15.0
1701798832.0959027,-7.0,-17.0,-47.0,-11.0,-7.0,-6.0,-11.0,-11.0
1701798832.1155844,-2.0,17.0,51.0,28.0,5.0,-1.0,2.0,6.0
1701798832.1155844,8.0,1.0,-5.0,2.0,6.0,2.0,3.0,-3.0
1701798832.1155844,11.0,3.0,6.0,-20.0,-6.0,2.0,5.0,9.0
1701798832.1155844,-19.0,-9.0,-9.0,20.0,-1.0,-1.0,0.0,-5.0
1701798832.1359406,18.0,5.0,6.0,-11.0,1.0,-7.0,0.0,10.0
1701798832.1359406,-10.0,-5.0,18.0,4.0,-16.0,1.0,-7.0,-24.0
1701798832.1359406,-38.0,11.0,-34.0,1.0,27.0,13.0,2.0,-12.0
1701798832.1359406,0.0,-14.0,46.0,20.0,11.0,3.0,-3.0,-14.0
1701798832.14583,-5.0,-20.0,-26.0,-10.0,-27.0,-12.0,-2.0,18.0
1701798832.14583,6.0,1.0,-27.0,-9.0,-3.0,-14.0,-4.0,-1.0
1701798832.1655827,11.0,-4.0,8.0,-15.0,-17.0,-8.0,-6.0,10.0
1701798832.1655827,27.0,32.0,1.0,0.0,12.0,14.0,17.0,8.0
1701798832.1655827,-30.0,17.0,-19.0,-4.0,-16.0,-11.0,-16.0,-30.0
1701798832.1655827,1.0,-61.0,0.0,-3.0,-4.0,-1.0,-7.0,8.0
1701798832.1755831,17.0,-3.0,25.0,-8.0,-10.0,-5.0,-2.0,3.0
1701798832.1755831,-39.0,17.0,-36.0,3.0,4.0,0.0,0.0,-9.0
1701798832.1956244,15.0,7.0,-9.0,2.0,7.0,6.0,10.0,2.0
1701798832.1956244,-28.0,17.0,12.0,9.0,2.0,-9.0,-13.0,-25.0
1701798832.1956244,21.0,-14.0,-9.0,7.0,7.0,3.0,2.0,18.0
1701798832.1956244,-8.0,-12.0,13.0,-8.0,-10.0,-2.0,3.0,0.0
1701798832.2058399,-3.0,-14.0,-23.0,-7.0,-2.0,3.0,-5.0,-3.0
1701798832.2058399,26.0,74.0,9.0,-2.0,-3.0,-2.0,-6.0,2.0
1701798832.2155874,-4.0,-35.0,-6.0,4.0,2.0,-9.0,-6.0,-3.0
1701798832.2155874,-7.0,-42.0,-4.0,-1.0,-10.0,-8.0,-9.0,-3.0
1701798832.2355897,-38.0,-13.0,24.0,-12.0,-2.0,3.0,1.0,-12.0
1701798832.2355897,4.0,-6.0,3.0,-3.0,5.0,5.0,9.0,12.0
1701798832.2355897,-1.0,24.0,4.0,-6.0,-8.0,-9.0,-4.0,-2.0
1701798832.2355897,2.0,1.0,-24.0,-6.0,3.0,2.0,-6.0,-20.0
1701798832.2558405,9.0,2.0,-6.0,23.0,9.0,15.0,11.0,33.0
1701798832.2558405,0.0,8.0,40.0,29.0,17.0,3.0,-1.0,-11.0
1701798832.2558405,-12.0,-5.0,-29.0,-22.0,-18.0,-8.0,5.0,5.0
1701798832.2558405,2.0,-7.0,-38.0,-26.0,-2.0,-7.0,-13.0,-52.0
1701798832.2657497,23.0,7.0,4.0,-1.0,-1.0,-7.0,1.0,51.0
1701798832.2657497,-4.0,-10.0,-62.0,-60.0,-11.0,-7.0,-10.0,-22.0
1701798832.305683,23.0,11.0,73.0,57.0,23.0,11.0,-4.0,-27.0
1701798832.305683,-9.0,-26.0,-38.0,9.0,-16.0,-11.0,-18.0,47.0
1701798832.305683,-3.0,-11.0,-54.0,-36.0,-21.0,-2.0,29.0,-5.0
1701798832.305683,6.0,5.0,13.0,9.0,9.0,8.0,13.0,16.0
1701798832.305683,-11.0,0.0,5.0,11.0,-2.0,0.0,8.0,-5.0
1701798832.305683,3.0,15.0,16.0,-18.0,-7.0,-1.0,4.0,-1.0
1701798832.3186874,9.0,-6.0,10.0,-3.0,-5.0,-8.0,-17.0,-16.0
1701798832.3186874,1.0,-13.0,-21.0,43.0,17.0,4.0,1.0,24.0
1701798832.3186874,-11.0,6.0,17.0,-10.0,-6.0,-2.0,-9.0,-16.0
1701798832.3186874,9.0,19.0,20.0,16.0,10.0,7.0,8.0,9.0
1701798832.3313384,-16.0,-11.0,-74.0,-23.0,-13.0,-4.0,-4.0,-13.0
1701798832.3313384,2.0,-6.0,-7.0,-11.0,-14.0,-10.0,-6.0,-16.0
1701798832.3313384,-4.0,11.0,36.0,-9.0,-2.0,-2.0,-7.0,6.0
1701798832.3313384,-2.0,-2.0,-6.0,4.0,0.0,-2.0,5.0,-1.0
1701798832.3513649,9.0,-7.0,-1.0,-16.0,3.0,4.0,-4.0,-9.0
1701798832.3513649,10.0,3.0,4.0,6.0,-2.0,0.0,-1.0,11.0
1701798832.3513649,-44.0,0.0,-26.0,0.0,-3.0,2.0,2.0,-18.0
1701798832.3513649,5.0,0.0,10.0,0.0,6.0,2.0,6.0,10.0
1701798832.391343,-13.0,-2.0,-10.0,16.0,2.0,-2.0,-4.0,-23.0
1701798832.391343,-6.0,-8.0,14.0,0.0,1.0,3.0,7.0,5.0
1701798832.4013386,5.0,-1.0,7.0,-7.0,1.0,0.0,0.0,18.0
1701798832.4013386,27.0,8.0,-36.0,-1.0,1.0,-3.0,-12.0,-35.0
1701798832.4013386,39.0,28.0,36.0,29.0,14.0,2.0,0.0,14.0
1701798832.4013386,-48.0,-4.0,27.0,-9.0,2.0,9.0,14.0,9.0
1701798832.4013386,-3.0,-41.0,-80.0,-27.0,-17.0,-19.0,-23.0,-16.0
1701798832.4013386,3.0,8.0,6.0,11.0,0.0,3.0,-10.0,14.0
1701798832.4116256,8.0,2.0,10.0,5.0,10.0,4.0,2.0,-12.0
1701798832.4116256,12.0,1.0,13.0,-12.0,-18.0,-5.0,17.0,15.0
1701798832.4116256,10.0,3.0,5.0,1.0,4.0,-1.0,-11.0,4.0
1701798832.4116256,0.0,-3.0,11.0,8.0,4.0,1.0,1.0,-5.0
1701798832.4413414,-4.0,-5.0,-13.0,11.0,2.0,0.0,-12.0,-5.0
1701798832.4413414,2.0,5.0,13.0,-9.0,-8.0,0.0,9.0,-10.0
1701798832.4413414,-9.0,-1.0,-6.0,1.0,3.0,5.0,21.0,19.0
1701798832.4413414,0.0,-11.0,-25.0,-21.0,-14.0,-15.0,-12.0,8.0
1701798832.4413414,-6.0,5.0,26.0,10.0,2.0,4.0,-9.0,-9.0
1701798832.4413414,-1.0,-8.0,-25.0,7.0,5.0,-1.0,-20.0,-15.0
1701798832.451338,9.0,4.0,16.0,17.0,1.0,4.0,-16.0,4.0
1701798832.451338,-3.0,-3.0,-45.0,-23.0,5.0,10.0,46.0,13.0
1701798832.47135,-11.0,-6.0,16.0,17.0,-7.0,-12.0,0.0,-1.0
1701798832.47135,8.0,-6.0,-33.0,-40.0,1.0,-3.0,-6.0,-4.0
1701798832.47135,3.0,1.0,-18.0,6.0,-6.0,7.0,1.0,-3.0
1701798832.47135,-8.0,-4.0,17.0,21.0,6.0,6.0,-8.0,-3.0
1701798832.5113397,2.0,-8.0,-10.0,-50.0,-1.0,-6.0,-8.0,-9.0
1701798832.5113397,-15.0,-5.0,-28.0,29.0,-4.0,-7.0,0.0,-25.0
1701798832.5213413,10.0,10.0,22.0,6.0,-5.0,-3.0,12.0,29.0
1701798832.5213413,0.0,11.0,10.0,-9.0,12.0,4.0,0.0,7.0
1701798832.5213413,-6.0,-8.0,6.0,37.0,-2.0,-5.0,1.0,3.0
1701798832.5213413,7.0,-2.0,35.0,-12.0,-4.0,-4.0,-21.0,-28.0
1701798832.5213413,7.0,12.0,-46.0,-44.0,-5.0,11.0,20.0,28.0
1701798832.5213413,-4.0,-6.0,48.0,47.0,-5.0,-4.0,-5.0,-1.0
1701798832.531491,1.0,24.0,97.0,28.0,29.0,9.0,-1.0,-2.0
1701798832.531491,4.0,-5.0,-67.0,8.0,-18.0,-15.0,-13.0,4.0
1701798832.531491,-12.0,-5.0,29.0,16.0,34.0,15.0,4.0,-20.0
1701798832.531491,2.0,-9.0,-55.0,-51.0,-18.0,-10.0,-8.0,-2.0
1701798832.5513387,-4.0,8.0,21.0,-9.0,-7.0,-6.0,-3.0,1.0
1701798832.5513387,-3.0,4.0,45.0,17.0,11.0,6.0,9.0,1.0
1701798832.5513387,5.0,6.0,28.0,16.0,-7.0,-6.0,0.0,2.0
1701798832.5513387,-2.0,2.0,-3.0,17.0,5.0,0.0,3.0,0.0
1701798832.5713413,-7.0,-8.0,-14.0,-17.0,-6.0,1.0,-8.0,-9.0
1701798832.5713413,5.0,2.0,8.0,-2.0,-3.0,-4.0,-6.0,8.0
1701798832.5713413,11.0,-5.0,-21.0,-7.0,-6.0,-2.0,-6.0,-5.0
1701798832.5713413,-20.0,-6.0,10.0,11.0,11.0,9.0,3.0,-10.0
1701798832.5917294,-7.0,6.0,-8.0,-6.0,-9.0,4.0,13.0,-2.0
1701798832.5917294,13.0,-12.0,-20.0,-9.0,-3.0,0.0,1.0,30.0
1701798832.5917294,12.0,4.0,9.0,-3.0,6.0,-9.0,-3.0,-14.0
1701798832.5917294,-18.0,-10.0,-5.0,-11.0,-10.0,-11.0,-10.0,-15.0
1701798832.6113377,-5.0,-2.0,-3.0,-10.0,-3.0,0.0,3.0,5.0
1701798832.6113377,8.0,-4.0,-19.0,16.0,16.0,13.0,18.0,31.0
1701798832.6113377,-22.0,-5.0,6.0,-3.0,-8.0,-17.0,-33.0,-46.0
1701798832.6113377,40.0,18.0,24.0,-16.0,-4.0,-1.0,-3.0,12.0
1701798832.6313457,4.0,-13.0,-47.0,-19.0,-17.0,-4.0,10.0,-6.0
1701798832.6313457,-23.0,13.0,48.0,7.0,-2.0,6.0,0.0,-20.0
1701798832.6313457,-39.0,-26.0,-13.0,-12.0,-19.0,-11.0,-4.0,-4.0
1701798832.6313457,2.0,16.0,31.0,25.0,30.0,7.0,-11.0,4.0
1701798832.6516833,-17.0,-4.0,-37.0,7.0,4.0,-1.0,-6.0,-13.0
1701798832.6516833,18.0,17.0,37.0,-8.0,3.0,-1.0,8.0,13.0
1701798832.6516833,0.0,-4.0,-5.0,-22.0,-7.0,5.0,18.0,10.0
1701798832.6516833,6.0,-15.0,-7.0,-4.0,-33.0,-8.0,4.0,8.0
1701798832.6713374,-1.0,-8.0,-23.0,8.0,6.0,1.0,-9.0,1.0
1701798832.6713374,21.0,1.0,-41.0,5.0,10.0,-3.0,-8.0,-7.0
1701798832.6815605,-14.0,28.0,13.0,1.0,-6.0,-8.0,-5.0,0.0
1701798832.6815605,-9.0,-3.0,-4.0,-6.0,-5.0,-2.0,-4.0,-10.0
1701798832.691569,-3.0,-22.0,12.0,-4.0,5.0,5.0,4.0,7.0
1701798832.691569,-16.0,-16.0,-40.0,-24.0,-6.0,-4.0,-6.0,-12.0
1701798832.7013464,23.0,-3.0,-6.0,14.0,7.0,4.0,8.0,14.0
1701798832.7013464,-10.0,1.0,-7.0,-7.0,-10.0,-4.0,-6.0,-9.0
1701798832.731338,-4.0,8.0,-5.0,-4.0,-3.0,-4.0,8.0,5.0
1701798832.731338,-6.0,-1.0,5.0,-10.0,2.0,-2.0,-1.0,-5.0
1701798832.7413375,1.0,-6.0,16.0,21.0,2.0,1.0,1.0,-2.0
1701798832.7413375,-1.0,14.0,61.0,-17.0,2.0,9.0,5.0,-42.0
