1701799498.8325138,-4.0,-16.0,-67.0,-18.0,-5.0,-4.0,-2.0,-2.0
1701799498.832999,-3.0,1.0,0.0,-2.0,-9.0,-2.0,-3.0,-1.0
1701799498.8341393,0.0,-8.0,-23.0,-2.0,-2.0,-1.0,0.0,1.0
1701799498.8341393,2.0,13.0,22.0,-11.0,-18.0,-4.0,-3.0,-2.0
1701799498.8554966,-2.0,-14.0,-13.0,0.0,9.0,2.0,-3.0,-1.0
1701799498.8554966,-1.0,6.0,6.0,4.0,-6.0,-2.0,0.0,-3.0
1701799498.8572598,-1.0,-7.0,-6.0,4.0,25.0,6.0,1.0,-1.0
1701799498.8572598,-2.0,-4.0,-10.0,-1.0,-3.0,-3.0,-1.0,-2.0
1701799498.9041665,-2.0,-6.0,-3.0,-11.0,-12.0,-4.0,-3.0,-1.0
1701799498.9041665,-2.0,-12.0,-7.0,-10.0,-15.0,-6.0,-3.0,-2.0
1701799498.9080262,-4.0,4.0,14.0,2.0,6.0,-2.0,-2.0,-3.0
1701799498.9080262,0.0,-3.0,1.0,-1.0,6.0,2.0,0.0,-2.0
1701799498.9080262,-1.0,7.0,14.0,-4.0,-6.0,-1.0,-1.0,-3.0
1701799498.9080262,-3.0,-13.0,1.0,1.0,-1.0,-2.0,-2.0,-5.0
1701799498.9080262,2.0,1.0,0.0,6.0,2.0,3.0,1.0,1.0
1701799498.9090252,-1.0,-8.0,-30.0,-14.0,-14.0,-5.0,-1.0,-2.0
1701799498.9110951,3.0,33.0,34.0,7.0,9.0,2.0,-1.0,0.0
1701799498.9110951,-2.0,-28.0,-5.0,0.0,-13.0,-5.0,-1.0,-2.0
1701799498.9364836,-6.0,-9.0,-16.0,-8.0,-11.0,-6.0,-3.0,-3.0
1701799498.9364836,2.0,12.0,36.0,23.0,23.0,7.0,0.0,0.0
1701799498.9585404,0.0,3.0,24.0,-8.0,-15.0,-4.0,0.0,-1.0
1701799498.959539,0.0,20.0,-32.0,-19.0,-16.0,-7.0,-2.0,-1.0
1701799498.9661698,-5.0,-21.0,-42.0,5.0,-5.0,-4.0,-3.0,-3.0
1701799498.9661698,-1.0,-4.0,-15.0,-3.0,4.0,0.0,2.0,-1.0
1701799498.9661698,1.0,1.0,12.0,24.0,6.0,-1.0,-1.0,-1.0
1701799498.9671693,7.0,18.0,27.0,-4.0,-2.0,1.0,0.0,0.0
1701799498.9671693,-7.0,-5.0,6.0,-26.0,-26.0,-9.0,-5.0,-4.0
1701799498.9671693,-4.0,-9.0,-5.0,9.0,3.0,2.0,0.0,-1.0
1701799498.9914732,3.0,14.0,60.0,17.0,33.0,8.0,1.0,1.0
1701799498.9914732,2.0,-7.0,-4.0,-2.0,5.0,2.0,0.0,0.0
1701799498.9914732,11.0,22.0,32.0,15.0,11.0,-3.0,0.0,1.0
1701799498.9914732,-6.0,-24.0,-45.0,-18.0,-18.0,-8.0,-6.0,-5.0
1701799498.9914732,-3.0,-5.0,-1.0,-21.0,-23.0,-6.0,-3.0,-1.0
1701799498.9914732,-6.0,-6.0,-12.0,3.0,0.0,0.0,-1.0,1.0
1701799498.9934912,2.0,16.0,33.0,27.0,49.0,17.0,8.0,4.0
1701799498.9934912,2.0,10.0,19.0,-12.0,-30.0,-11.0,-2.0,1.0
1701799499.0103903,3.0,0.0,-17.0,7.0,5.0,0.0,-1.0,-1.0
1701799499.0103903,-4.0,-23.0,-35.0,0.0,2.0,-2.0,-2.0,-4.0
1701799499.0138967,-3.0,-12.0,12.0,-17.0,-17.0,-4.0,-3.0,-3.0
1701799499.0138967,4.0,30.0,-1.0,8.0,27.0,16.0,4.0,2.0
1701799499.0540762,-6.0,-1.0,-12.0,-29.0,-30.0,-15.0,-6.0,-4.0
1701799499.0540762,0.0,1.0,-33.0,-27.0,3.0,3.0,0.0,0.0
1701799499.0540762,-2.0,-2.0,48.0,9.0,-20.0,-9.0,-5.0,-1.0
1701799499.0540762,-2.0,-2.0,2.0,-6.0,-22.0,-8.0,-7.0,-4.0
1701799499.0576189,5.0,1.0,-51.0,-35.0,-42.0,-11.0,-3.0,0.0
1701799499.0576189,-8.0,-8.0,-10.0,39.0,76.0,25.0,4.0,-3.0
1701799499.057833,9.0,-6.0,2.0,37.0,43.0,10.0,6.0,4.0
1701799499.057833,-10.0,1.0,-13.0,-29.0,-14.0,-8.0,-3.0,-3.0
1701799499.068319,-4.0,-31.0,8.0,25.0,5.0,1.0,0.0,-2.0
1701799499.068319,1.0,6.0,10.0,-33.0,-37.0,-14.0,-6.0,-3.0
1701799499.074008,-6.0,-4.0,-21.0,-15.0,-20.0,-1.0,-1.0,-4.0
1701799499.074008,3.0,-5.0,11.0,14.0,12.0,0.0,-1.0,-1.0
1701799499.1164205,-2.0,5.0,1.0,-6.0,5.0,3.0,0.0,-2.0
1701799499.1164205,2.0,17.0,-3.0,-3.0,-13.0,-5.0,-2.0,1.0
1701799499.1164205,-3.0,0.0,16.0,15.0,12.0,-2.0,-4.0,-2.0
1701799499.1164205,4.0,11.0,22.0,7.0,-1.0,1.0,1.0,1.0
1701799499.124747,-2.0,8.0,-15.0,4.0,-3.0,-1.0,-1.0,-1.0
1701799499.124747,-5.0,-8.0,14.0,-9.0,-7.0,-5.0,-4.0,-2.0
1701799499.124747,-4.0,-10.0,-49.0,-26.0,12.0,7.0,-1.0,0.0
1701799499.124747,2.0,-12.0,12.0,51.0,8.0,-1.0,0.0,1.0
1701799499.169274,-3.0,9.0,22.0,-25.0,-13.0,-7.0,-2.0,-3.0
1701799499.169274,-2.0,-2.0,2.0,33.0,47.0,11.0,2.0,-4.0
1701799499.169274,1.0,16.0,-8.0,-11.0,-28.0,-11.0,-1.0,0.0
1701799499.1702757,-2.0,-11.0,-14.0,-7.0,7.0,1.0,1.0,-1.0
1701799499.1702757,1.0,-4.0,-19.0,-14.0,8.0,7.0,2.0,0.0
1701799499.1702757,-4.0,-10.0,-2.0,20.0,-39.0,-15.0,-7.0,-2.0
1701799499.1702757,0.0,13.0,16.0,-23.0,9.0,4.0,0.0,-2.0
1701799499.1702757,-3.0,-2.0,-26.0,-10.0,-1.0,-3.0,-4.0,-3.0
1701799499.1702757,-4.0,-8.0,14.0,55.0,17.0,3.0,-1.0,-1.0
1701799499.1702757,1.0,4.0,14.0,-23.0,-18.0,-6.0,0.0,0.0
1701799499.1724722,4.0,-2.0,-14.0,4.0,-1.0,0.0,1.0,0.0
1701799499.1724722,2.0,-1.0,-29.0,-87.0,-10.0,2.0,2.0,1.0
1701799499.1894438,-7.0,0.0,39.0,63.0,-1.0,-7.0,-5.0,-6.0
1701799499.1894438,0.0,4.0,10.0,55.0,8.0,-1.0,-1.0,-1.0
1701799499.1939728,0.0,6.0,15.0,-14.0,-9.0,-3.0,-3.0,-1.0
1701799499.1939728,0.0,-2.0,-48.0,-39.0,2.0,0.0,1.0,-1.0
1701799499.2372487,1.0,-7.0,19.0,-10.0,-1.0,1.0,2.0,-1.0
1701799499.2372487,2.0,12.0,17.0,7.0,8.0,4.0,3.0,3.0
1701799499.2382493,-1.0,-15.0,-31.0,-10.0,-16.0,-7.0,-4.0,-5.0
1701799499.2382493,3.0,-5.0,-3.0,6.0,-1.0,-3.0,-3.0,-3.0
1701799499.2382493,-1.0,3.0,14.0,15.0,16.0,6.0,1.0,2.0
1701799499.2382493,-2.0,0.0,-23.0,-25.0,-10.0,-3.0,-2.0,0.0
1701799499.2382493,-6.0,5.0,95.0,26.0,0.0,-1.0,-3.0,-1.0
1701799499.2382493,4.0,3.0,-20.0,-10.0,-4.0,2.0,1.0,2.0
1701799499.2483566,-1.0,-18.0,-53.0,-12.0,0.0,-2.0,-3.0,-3.0
1701799499.2483566,-6.0,3.0,17.0,4.0,3.0,0.0,4.0,7.0
1701799499.2547255,-1.0,1.0,-39.0,-17.0,-11.0,-2.0,-1.0,-8.0
1701799499.2547255,18.0,12.0,44.0,25.0,11.0,4.0,0.0,1.0
1701799499.3065162,-2.0,-1.0,12.0,-13.0,4.0,1.0,-3.0,-3.0
1701799499.3065162,7.0,-2.0,-7.0,-16.0,-8.0,0.0,-2.0,2.0
1701799499.3065162,-9.0,-2.0,14.0,15.0,6.0,1.0,2.0,2.0
1701799499.3065162,-10.0,-11.0,4.0,25.0,-1.0,-3.0,-2.0,-5.0
1701799499.3065162,0.0,0.0,-27.0,-38.0,-2.0,-2.0,-2.0,3.0
1701799499.3065162,0.0,3.0,4.0,0.0,0.0,-1.0,-1.0,-7.0
1701799499.3065162,-1.0,-6.0,-17.0,12.0,-6.0,-2.0,-3.0,-2.0
1701799499.3065162,-3.0,11.0,23.0,7.0,4.0,1.0,-2.0,-2.0
1701799499.3557558,-7.0,-21.0,-6.0,-2.0,-7.0,-4.0,1.0,-1.0
1701799499.3557558,2.0,2.0,-8.0,-11.0,0.0,0.0,0.0,-1.0
1701799499.3557558,5.0,-10.0,-13.0,2.0,-3.0,-2.0,-2.0,1.0
1701799499.3557558,-4.0,-10.0,-34.0,-9.0,-7.0,-6.0,-4.0,0.0
1701799499.3557558,-4.0,9.0,-3.0,-4.0,4.0,2.0,-3.0,-5.0
1701799499.3557558,1.0,-1.0,5.0,1.0,-1.0,0.0,-2.0,-4.0
1701799499.3567536,1.0,2.0,-13.0,-22.0,-5.0,-1.0,-2.0,0.0
1701799499.3567536,0.0,7.0,69.0,41.0,3.0,0.0,-2.0,1.0
1701799499.3568518,3.0,-12.0,-59.0,-14.0,-8.0,-3.0,-4.0,0.0
1701799499.3568518,-2.0,18.0,10.0,1.0,9.0,1.0,1.0,-2.0
1701799499.3898406,-4.0,-18.0,-27.0,0.0,0.0,1.0,-1.0,-5.0
1701799499.3898406,0.0,16.0,6.0,-1.0,-9.0,-2.0,0.0,5.0
1701799499.3926384,-8.0,3.0,9.0,-14.0,-16.0,-7.0,-4.0,-2.0
1701799499.3926384,-7.0,-32.0,-23.0,3.0,28.0,9.0,2.0,0.0
1701799499.3936372,4.0,10.0,0.0,27.0,6.0,-1.0,3.0,4.0
1701799499.3936372,-4.0,-10.0,7.0,-9.0,-3.0,-4.0,-2.0,-6.0
1701799499.3936372,15.0,53.0,67.0,20.0,3.0,3.0,5.0,5.0
1701799499.3936372,-9.0,-6.0,-35.0,-40.0,-20.0,-7.0,-6.0,-5.0
1701799499.396713,-9.0,-16.0,-73.0,2.0,1.0,-1.0,-4.0,-3.0
1701799499.396713,-5.0,-20.0,89.0,9.0,2.0,2.0,-1.0,-1.0
1701799499.4080632,15.0,47.0,2.0,-10.0,-4.0,0.0,0.0,6.0
1701799499.409332,-11.0,-2.0,6.0,0.0,-6.0,-4.0,-3.0,-7.0
1701799499.4512107,-8.0,1.0,18.0,-2.0,-1.0,2.0,0.0,-3.0
1701799499.4512107,6.0,17.0,-43.0,-1.0,-5.0,2.0,3.0,3.0
1701799499.4512107,1.0,-53.0,33.0,2.0,11.0,1.0,-4.0,-5.0
1701799499.4512107,7.0,21.0,-5.0,22.0,12.0,5.0,2.0,2.0
1701799499.4512107,38.0,99.0,-18.0,-21.0,-3.0,1.0,5.0,15.0
1701799499.4512107,25.0,-33.0,-28.0,1.0,6.0,5.0,7.0,7.0
1701799499.4528234,-85.0,-83.0,-69.0,-44.0,-29.0,-23.0,-20.0,-33.0
1701799499.4553185,-33.0,34.0,15.0,-12.0,-14.0,-8.0,-9.0,-14.0
1701799499.4563143,-16.0,26.0,74.0,3.0,-2.0,-3.0,-6.0,-3.0
1701799499.4563143,31.0,125.0,26.0,11.0,4.0,1.0,3.0,21.0
1701799499.478338,14.0,26.0,-8.0,11.0,12.0,8.0,5.0,7.0
1701799499.478338,15.0,-3.0,12.0,-1.0,-7.0,-1.0,2.0,-10.0
1701799499.4852078,-12.0,-82.0,10.0,7.0,1.0,-2.0,-6.0,-13.0
1701799499.4862156,-9.0,72.0,-62.0,-26.0,-2.0,-2.0,-3.0,-1.0
1701799499.4862156,-3.0,-94.0,22.0,1.0,-2.0,0.0,0.0,1.0
1701799499.4862156,16.0,85.0,-67.0,-8.0,-3.0,-3.0,5.0,17.0
1701799499.4943104,-7.0,-8.0,29.0,3.0,-6.0,-3.0,-3.0,-2.0
1701799499.4943104,40.0,-51.0,24.0,10.0,2.0,6.0,9.0,46.0
1701799499.5162647,70.0,121.0,27.0,16.0,14.0,7.0,6.0,-5.0
1701799499.5162647,-70.0,-117.0,-72.0,-41.0,-28.0,-22.0,-33.0,2.0
1701799499.5213833,28.0,119.0,-13.0,-10.0,-7.0,1.0,8.0,-45.0
1701799499.5213833,-90.0,-54.0,-5.0,-9.0,-4.0,-14.0,-22.0,-41.0
1701799499.569419,12.0,35.0,5.0,11.0,11.0,8.0,9.0,34.0
1701799499.569419,11.0,41.0,66.0,25.0,8.0,8.0,1.0,-36.0
1701799499.569419,-2.0,-33.0,-13.0,-4.0,4.0,-1.0,-4.0,27.0
1701799499.569419,-1.0,-22.0,-12.0,-7.0,-2.0,-4.0,-1.0,5.0
1701799499.569419,13.0,10.0,1.0,18.0,-2.0,-1.0,2.0,1.0
1701799499.569419,31.0,-35.0,14.0,3.0,1.0,7.0,11.0,30.0
1701799499.569419,-16.0,-40.0,-25.0,-8.0,-5.0,-5.0,-3.0,-1.0
1701799499.569419,8.0,4.0,-1.0,-7.0,2.0,4.0,1.0,-20.0
1701799499.572389,-13.0,-25.0,-16.0,-1.0,4.0,-1.0,-1.0,2.0
1701799499.572389,-7.0,-6.0,12.0,18.0,-4.0,-3.0,-2.0,-9.0
1701799499.5766242,5.0,-2.0,17.0,4.0,1.0,1.0,2.0,9.0
1701799499.5766242,-11.0,2.0,-15.0,3.0,-1.0,-8.0,-9.0,-10.0
1701799499.595214,-12.0,-17.0,-14.0,-10.0,1.0,-1.0,-4.0,-5.0
1701799499.5964298,9.0,6.0,21.0,-4.0,3.0,5.0,5.0,6.0
1701799499.6324244,1.0,-18.0,-36.0,-3.0,-1.0,0.0,-1.0,-1.0
1701799499.6324244,-1.0,-10.0,34.0,0.0,-3.0,-3.0,1.0,-2.0
1701799499.6324244,-18.0,-3.0,-17.0,-6.0,-1.0,-5.0,-4.0,-11.0
1701799499.6324244,12.0,5.0,10.0,5.0,-5.0,-3.0,-1.0,-1.0
1701799499.6324244,1.0,-2.0,4.0,8.0,15.0,5.0,-1.0,4.0
1701799499.6324244,-15.0,-6.0,-15.0,9.0,14.0,6.0,1.0,-5.0
1701799499.6324244,-1.0,-10.0,-7.0,1.0,-3.0,0.0,2.0,6.0
1701799499.6324244,-5.0,-5.0,5.0,-9.0,-8.0,-5.0,-8.0,-5.0
1701799499.6368313,0.0,5.0,-2.0,-25.0,-30.0,-12.0,-9.0,-3.0
1701799499.6368313,4.0,-24.0,-7.0,-1.0,11.0,-2.0,-7.0,2.0
1701799499.694364,1.0,4.0,12.0,-3.0,-21.0,-5.0,-3.0,-7.0
1701799499.694364,3.0,-2.0,-4.0,0.0,16.0,4.0,6.0,9.0
1701799499.694364,-5.0,4.0,-18.0,-14.0,-2.0,4.0,3.0,3.0
1701799499.694364,-1.0,-6.0,23.0,-27.0,-28.0,-11.0,-1.0,-5.0
1701799499.694364,-9.0,-13.0,-23.0,42.0,9.0,4.0,-2.0,-3.0
1701799499.694364,1.0,-9.0,35.0,33.0,50.0,6.0,1.0,-4.0
1701799499.699754,-2.0,-8.0,-21.0,9.0,-35.0,-12.0,-3.0,0.0
1701799499.699754,2.0,10.0,22.0,-38.0,-28.0,4.0,3.0,-2.0
1701799499.7034647,4.0,19.0,42.0,-13.0,-2.0,-9.0,-7.0,-5.0
1701799499.7034647,-6.0,-28.0,-44.0,-49.0,-78.0,-22.0,-2.0,3.0
1701799499.7034647,-7.0,-8.0,16.0,80.0,96.0,40.0,13.0,5.0
1701799499.7034647,-4.0,-16.0,-2.0,-6.0,-14.0,-5.0,-4.0,-5.0
1701799499.74662,-1.0,9.0,25.0,-22.0,9.0,5.0,0.0,1.0
1701799499.74662,8.0,22.0,85.0,8.0,-9.0,3.0,4.0,-1.0
1701799499.74662,-1.0,-12.0,-99.0,-52.0,-22.0,-18.0,-8.0,-1.0
1701799499.74662,-8.0,-6.0,-3.0,7.0,-11.0,-12.0,-4.0,-4.0
1701799499.74662,3.0,15.0,19.0,35.0,27.0,3.0,-4.0,-2.0
1701799499.74662,-1.0,13.0,40.0,-22.0,-11.0,-4.0,0.0,-3.0
1701799499.7476182,-12.0,-43.0,-76.0,-37.0,-22.0,-6.0,-10.0,-1.0
1701799499.747778,-3.0,0.0,-29.0,-15.0,6.0,3.0,6.0,3.0
1701799499.7782376,6.0,1.0,-17.0,33.0,3.0,-2.0,-7.0,-4.0
1701799499.7782376,0.0,-1.0,44.0,-17.0,-13.0,-20.0,-26.0,-29.0
1701799499.7782376,2.0,23.0,80.0,0.0,-36.0,8.0,24.0,18.0
1701799499.7782376,28.0,44.0,93.0,107.0,72.0,45.0,25.0,-16.0
1701799499.7782376,-27.0,-14.0,-74.0,-49.0,16.0,11.0,13.0,-14.0
1701799499.7782376,2.0,-10.0,-46.0,-50.0,-4.0,-11.0,-9.0,-2.0
1701799499.7792373,5.0,0.0,76.0,-3.0,-1.0,-21.0,-4.0,-22.0
1701799499.7792373,4.0,63.0,76.0,30.0,-23.0,9.0,-2.0,2.0
1701799499.7861855,-4.0,-30.0,37.0,51.0,17.0,15.0,2.0,-35.0
1701799499.7861855,-3.0,-2.0,-46.0,7.0,14.0,1.0,-1.0,-15.0
1701799499.7947657,7.0,21.0,25.0,11.0,-12.0,-17.0,-8.0,8.0
1701799499.7947657,-1.0,12.0,-28.0,-3.0,-22.0,-18.0,-6.0,-8.0
1701799499.8474536,6.0,1.0,-34.0,-85.0,-44.0,-4.0,-2.0,10.0
1701799499.8474536,-1.0,-6.0,-57.0,6.0,21.0,12.0,7.0,15.0
1701799499.8474536,4.0,0.0,28.0,-64.0,-39.0,-24.0,-18.0,-4.0
1701799499.8474536,-12.0,-5.0,44.0,78.0,9.0,-11.0,-9.0,-1.0
1701799499.851293,0.0,7.0,48.0,51.0,0.0,7.0,14.0,8.0
1701799499.851293,1.0,-11.0,-84.0,-13.0,34.0,23.0,4.0,5.0
1701799499.8588247,0.0,1.0,-7.0,21.0,32.0,15.0,6.0,0.0
1701799499.8588247,-6.0,-26.0,-29.0,-56.0,-18.0,-21.0,-7.0,2.0
1701799499.8588247,-2.0,-2.0,13.0,-1.0,-13.0,1.0,13.0,15.0
1701799499.8588247,4.0,14.0,38.0,22.0,9.0,22.0,16.0,13.0
1701799499.8588247,-1.0,-1.0,-22.0,-31.0,-4.0,-2.0,-11.0,-8.0
1701799499.8588247,-6.0,-32.0,-48.0,-3.0,-16.0,-21.0,-17.0,-4.0
1701799499.8982558,-2.0,7.0,56.0,38.0,14.0,-24.0,-20.0,-3.0
1701799499.8982558,2.0,-9.0,-60.0,0.0,-14.0,2.0,3.0,5.0
1701799499.8982558,-6.0,-7.0,-24.0,-6.0,12.0,7.0,-1.0,-7.0
1701799499.8982558,4.0,-9.0,-37.0,-25.0,10.0,4.0,1.0,1.0
1701799499.8982558,-1.0,1.0,13.0,-51.0,-38.0,-31.0,-29.0,-1.0
1701799499.8982558,-5.0,-14.0,-30.0,-4.0,-22.0,-6.0,-2.0,-5.0
1701799499.899316,-6.0,-8.0,26.0,53.0,10.0,12.0,14.0,5.0
1701799499.899316,-2.0,-9.0,-44.0,-18.0,8.0,6.0,10.0,7.0
1701799499.9116354,10.0,12.0,-22.0,11.0,37.0,19.0,6.0,39.0
1701799499.9116354,5.0,37.0,66.0,22.0,2.0,-10.0,1.0,3.0
1701799499.9137902,-6.0,-48.0,14.0,-36.0,-42.0,-29.0,-25.0,-12.0
1701799499.9137902,-24.0,-24.0,-22.0,-21.0,-11.0,1.0,8.0,-11.0
1701799499.9677796,8.0,9.0,-6.0,51.0,66.0,48.0,12.0,12.0
1701799499.9677796,-1.0,11.0,28.0,-12.0,-34.0,-24.0,-6.0,-5.0
1701799499.9687788,8.0,23.0,-19.0,2.0,19.0,9.0,9.0,4.0
1701799499.9687788,-1.0,-5.0,-7.0,7.0,9.0,-4.0,-4.0,4.0
1701799499.9687788,-3.0,-3.0,-17.0,-24.0,-38.0,-25.0,-20.0,-16.0
1701799499.9687788,-1.0,-15.0,-10.0,0.0,15.0,10.0,20.0,10.0
1701799499.9687788,-4.0,-1.0,0.0,-13.0,-8.0,2.0,3.0,-8.0
1701799499.9687788,1.0,-2.0,3.0,16.0,4.0,-8.0,-11.0,-4.0
1701799500.0018265,3.0,12.0,7.0,-49.0,-48.0,-15.0,0.0,-5.0
1701799500.0018265,-5.0,3.0,16.0,38.0,35.0,23.0,6.0,-11.0
1701799500.0018265,3.0,0.0,-7.0,34.0,23.0,2.0,-4.0,5.0
1701799500.0018265,-8.0,-38.0,-30.0,-30.0,4.0,-7.0,-8.0,-3.0
1701799500.0018265,2.0,6.0,20.0,21.0,18.0,13.0,5.0,2.0
1701799500.0018265,-5.0,-10.0,-15.0,-38.0,-50.0,-46.0,-34.0,-6.0
1701799500.0018265,-2.0,0.0,-12.0,1.0,-3.0,-3.0,9.0,-2.0
1701799500.0018265,1.0,16.0,17.0,-9.0,3.0,27.0,23.0,12.0
1701799500.0081723,-6.0,-12.0,-36.0,11.0,6.0,-2.0,-1.0,-8.0
1701799500.0182009,0.0,-11.0,19.0,-1.0,0.0,5.0,-2.0,-3.0
1701799500.0194163,1.0,5.0,-17.0,17.0,1.0,-26.0,-28.0,2.0
1701799500.0194163,8.0,15.0,27.0,-18.0,-27.0,-12.0,1.0,3.0
1701799500.0638487,-1.0,-15.0,5.0,-8.0,-35.0,7.0,8.0,2.0
1701799500.0638487,-2.0,7.0,-41.0,1.0,65.0,49.0,17.0,-31.0
1701799500.0638487,-3.0,13.0,18.0,0.0,7.0,-6.0,-21.0,2.0
1701799500.0638487,4.0,12.0,27.0,-1.0,-6.0,-36.0,-18.0,-6.0
1701799500.0638487,-6.0,-12.0,19.0,30.0,-1.0,-22.0,-12.0,-6.0
1701799500.0638487,-1.0,23.0,17.0,27.0,32.0,39.0,26.0,7.0
1701799500.0638487,-1.0,0.0,-26.0,-11.0,3.0,11.0,-2.0,-7.0
1701799500.0638487,-10.0,-33.0,-28.0,-8.0,0.0,22.0,10.0,-3.0
1701799500.069725,-1.0,-4.0,-22.0,-31.0,-17.0,-14.0,-9.0,-7.0
1701799500.069725,2.0,-5.0,28.0,-4.0,-38.0,-53.0,-30.0,7.0
1701799500.078931,3.0,9.0,-5.0,-25.0,-33.0,-28.0,-8.0,-1.0
1701799500.078931,4.0,8.0,7.0,37.0,46.0,38.0,24.0,17.0
1701799500.1187525,0.0,-1.0,-29.0,-2.0,12.0,13.0,9.0,-1.0
1701799500.1187525,-3.0,-16.0,21.0,9.0,13.0,5.0,4.0,5.0
1701799500.1187525,-2.0,1.0,7.0,-5.0,-10.0,1.0,9.0,-1.0
1701799500.1187525,4.0,1.0,-11.0,-17.0,-21.0,-18.0,-19.0,-16.0
1701799500.1187525,-1.0,8.0,-8.0,-16.0,-7.0,0.0,6.0,9.0
1701799500.1187525,1.0,-2.0,-1.0,16.0,19.0,12.0,7.0,5.0
1701799500.1187525,-4.0,-3.0,17.0,5.0,2.0,2.0,-3.0,-6.0
1701799500.1187525,2.0,8.0,-12.0,-11.0,-14.0,-15.0,-12.0,-4.0
1701799500.134485,-1.0,-3.0,-5.0,5.0,20.0,1.0,-4.0,-8.0
1701799500.134485,1.0,-2.0,0.0,-10.0,-36.0,-7.0,-10.0,2.0
1701799500.1390538,-1.0,-3.0,19.0,30.0,30.0,23.0,17.0,5.0
1701799500.1390538,-5.0,-5.0,-12.0,-11.0,11.0,4.0,-5.0,-5.0
1701799500.1501522,-3.0,-2.0,3.0,-11.0,-18.0,-12.0,0.0,-1.0
1701799500.1516516,2.0,0.0,-4.0,-7.0,-19.0,-17.0,-7.0,3.0
1701799500.1526713,-4.0,-5.0,3.0,-1.0,-3.0,3.0,1.0,1.0
1701799500.1606467,2.0,0.0,-4.0,2.0,5.0,5.0,-1.0,-2.0
1701799500.205953,1.0,-13.0,-4.0,-5.0,5.0,-3.0,-2.0,-3.0
1701799500.205953,1.0,3.0,9.0,10.0,-9.0,-12.0,-5.0,1.0
1701799500.205953,-3.0,1.0,-1.0,0.0,6.0,15.0,10.0,2.0
1701799500.205953,3.0,6.0,5.0,8.0,-1.0,-3.0,-3.0,2.0
1701799500.2404292,3.0,9.0,-14.0,-15.0,-6.0,-4.0,-2.0,-1.0
1701799500.2404292,-6.0,-16.0,1.0,2.0,-8.0,-2.0,-1.0,-2.0
1701799500.2458243,-1.0,-7.0,-4.0,0.0,-1.0,1.0,1.0,3.0
1701799500.2458243,-4.0,-2.0,0.0,-4.0,-1.0,0.0,-3.0,-6.0
1701799500.2458243,-3.0,3.0,1.0,-7.0,-2.0,-6.0,4.0,1.0
1701799500.2458243,3.0,2.0,-3.0,-9.0,-6.0,-3.0,-1.0,2.0
1701799500.2458243,1.0,-2.0,6.0,10.0,5.0,6.0,1.0,11.0
1701799500.2458243,10.0,9.0,4.0,-10.0,-7.0,1.0,1.0,-2.0
1701799500.2458243,-2.0,-1.0,-13.0,11.0,38.0,12.0,2.0,-6.0
1701799500.2458243,-6.0,-3.0,19.0,27.0,-5.0,-9.0,-4.0,-3.0
1701799500.2468252,0.0,2.0,-1.0,-16.0,-9.0,-6.0,1.0,1.0
1701799500.2468252,2.0,2.0,13.0,-11.0,-21.0,-7.0,-2.0,6.0
1701799500.2834687,0.0,17.0,-34.0,-10.0,-3.0,-4.0,-5.0,-8.0
1701799500.2834687,0.0,-26.0,6.0,1.0,7.0,5.0,6.0,11.0
1701799500.2834687,-2.0,12.0,-8.0,-3.0,3.0,0.0,0.0,-4.0
1701799500.2834687,-6.0,-13.0,-13.0,-9.0,-15.0,-6.0,-3.0,-2.0
1701799500.2834687,1.0,-3.0,8.0,3.0,-4.0,-2.0,0.0,-1.0
1701799500.2834687,-2.0,9.0,4.0,2.0,7.0,-2.0,-7.0,-4.0
1701799500.2834687,1.0,0.0,3.0,2.0,1.0,3.0,4.0,-4.0
1701799500.2834687,-2.0,9.0,43.0,35.0,10.0,4.0,0.0,2.0
1701799500.2945845,-5.0,-19.0,-43.0,-66.0,-41.0,-13.0,-7.0,-2.0
1701799500.2945845,1.0,9.0,-25.0,11.0,29.0,13.0,2.0,2.0
1701799500.3042185,-1.0,-11.0,-10.0,23.0,3.0,0.0,0.0,-1.0
1701799500.3042185,-3.0,-3.0,12.0,-35.0,-6.0,-2.0,-2.0,-6.0
1701799500.3580356,0.0,1.0,33.0,20.0,10.0,6.0,4.0,2.0
1701799500.3580356,0.0,2.0,1.0,-29.0,-35.0,-18.0,-8.0,-13.0
1701799500.3580356,0.0,-2.0,-23.0,-55.0,-21.0,-4.0,-2.0,6.0
1701799500.3580356,2.0,4.0,9.0,67.0,54.0,14.0,3.0,-4.0
1701799500.3619277,-5.0,-5.0,2.0,-11.0,-32.0,-3.0,-2.0,2.0
1701799500.3619277,2.0,-1.0,-7.0,29.0,59.0,25.0,10.0,1.0
1701799500.3619277,-1.0,2.0,55.0,16.0,-4.0,-8.0,-3.0,1.0
1701799500.3619277,-7.0,-11.0,-61.0,-22.0,-18.0,-11.0,-9.0,-14.0
1701799500.3619277,1.0,4.0,23.0,14.0,-2.0,-4.0,0.0,-1.0
1701799500.3619277,0.0,-4.0,-16.0,-18.0,-16.0,-4.0,-1.0,1.0
1701799500.3619277,-8.0,-2.0,-7.0,-8.0,-2.0,1.0,1.0,-7.0
1701799500.3619277,-4.0,1.0,-3.0,-8.0,1.0,0.0,-1.0,-3.0
1701799500.37331,4.0,1.0,-7.0,3.0,8.0,-3.0,-4.0,-1.0
1701799500.37331,3.0,5.0,29.0,17.0,-1.0,8.0,8.0,12.0
1701799500.3797424,1.0,-5.0,-3.0,4.0,14.0,9.0,-1.0,-5.0
1701799500.3797424,-3.0,-2.0,12.0,-7.0,-18.0,-12.0,-7.0,-1.0
1701799500.3908715,-4.0,-1.0,-26.0,0.0,4.0,-5.0,-7.0,-9.0
1701799500.3908715,-2.0,0.0,-2.0,-18.0,-20.0,-9.0,-6.0,-4.0
1701799500.4271586,1.0,-3.0,7.0,-1.0,1.0,6.0,5.0,3.0
1701799500.4271586,2.0,-3.0,-15.0,14.0,13.0,7.0,3.0,-1.0
1701799500.4520512,1.0,1.0,38.0,-9.0,-5.0,-6.0,-3.0,3.0
1701799500.4520512,-4.0,-2.0,-13.0,18.0,-10.0,-9.0,-7.0,-9.0
1701799500.4536178,3.0,5.0,2.0,3.0,19.0,10.0,4.0,6.0
1701799500.4541984,-4.0,-9.0,-29.0,-15.0,-13.0,-12.0,-4.0,2.0
1701799500.4954693,-3.0,-6.0,-2.0,15.0,2.0,9.0,2.0,-1.0
1701799500.4954693,0.0,-1.0,-10.0,-16.0,10.0,10.0,2.0,-1.0
1701799500.4954693,-2.0,-2.0,11.0,18.0,4.0,-4.0,-3.0,-9.0
1701799500.4954693,2.0,5.0,14.0,3.0,10.0,4.0,2.0,3.0
1701799500.4954693,-3.0,-8.0,-14.0,-18.0,-9.0,-7.0,-1.0,0.0
1701799500.4954693,-5.0,-1.0,-8.0,-19.0,-20.0,-11.0,-7.0,-7.0
1701799500.4954693,1.0,4.0,30.0,31.0,0.0,-3.0,2.0,5.0
1701799500.4954693,0.0,-2.0,-12.0,-10.0,1.0,1.0,0.0,4.0
1701799500.4954693,-6.0,-7.0,-27.0,10.0,0.0,4.0,-2.0,-8.0
1701799500.4954693,-1.0,4.0,17.0,-21.0,-5.0,-3.0,3.0,0.0
1701799500.520134,0.0,0.0,1.0,3.0,1.0,-4.0,-7.0,-7.0
1701799500.520134,2.0,-2.0,-1.0,4.0,-9.0,2.0,5.0,10.0
1701799500.5221598,1.0,4.0,21.0,10.0,6.0,1.0,-4.0,-1.0
1701799500.5221598,2.0,-3.0,-16.0,-12.0,-6.0,-1.0,2.0,1.0
1701799500.5221598,-1.0,1.0,19.0,52.0,10.0,5.0,7.0,2.0
1701799500.5221598,-1.0,1.0,23.0,-20.0,-6.0,2.0,0.0,-1.0
1701799500.5221598,-4.0,-3.0,-13.0,-1.0,9.0,3.0,-4.0,-4.0
1701799500.5221598,-1.0,-3.0,-19.0,-8.0,-6.0,-8.0,-12.0,-6.0
1701799500.5221598,-1.0,-5.0,-28.0,-28.0,-17.0,-8.0,6.0,-8.0
1701799500.5221598,-1.0,3.0,9.0,8.0,0.0,-2.0,0.0,13.0
1701799500.5345366,-3.0,-4.0,-14.0,-9.0,-1.0,-6.0,7.0,-1.0
1701799500.5345366,-1.0,2.0,21.0,4.0,-6.0,0.0,-8.0,-19.0
1701799500.569324,-3.0,-10.0,-64.0,-28.0,0.0,10.0,1.0,4.0
1701799500.569324,-1.0,1.0,8.0,14.0,0.0,-2.0,4.0,7.0
1701799500.569324,0.0,-3.0,11.0,-7.0,-7.0,-5.0,-4.0,-8.0
1701799500.569324,-1.0,2.0,1.0,8.0,1.0,-7.0,4.0,11.0
1701799500.569324,-3.0,0.0,3.0,-3.0,-3.0,5.0,-11.0,-10.0
1701799500.569324,-1.0,-3.0,-9.0,-4.0,4.0,-4.0,-6.0,-7.0
1701799500.580412,-2.0,-4.0,8.0,3.0,-4.0,-3.0,-1.0,2.0
1701799500.580412,1.0,0.0,0.0,5.0,4.0,5.0,0.0,1.0
1701799500.5816424,-3.0,-6.0,-18.0,-16.0,-3.0,-4.0,-6.0,-2.0
1701799500.5816424,-1.0,-1.0,-11.0,-8.0,-4.0,-3.0,-2.0,-8.0
1701799500.6194937,2.0,4.0,17.0,13.0,4.0,-1.0,-9.0,-7.0
1701799500.6194937,-1.0,-6.0,-9.0,-5.0,-9.0,-7.0,8.0,9.0
1701799500.6194937,2.0,1.0,9.0,-9.0,0.0,-7.0,-5.0,-2.0
1701799500.6194937,-3.0,-3.0,-2.0,-11.0,-5.0,-6.0,-6.0,-4.0
1701799500.6194937,-1.0,-5.0,-22.0,9.0,-5.0,3.0,1.0,0.0
1701799500.6204925,-3.0,-2.0,2.0,-17.0,5.0,-1.0,-3.0,1.0
1701799500.6204925,1.0,3.0,13.0,20.0,0.0,-7.0,-4.0,-3.0
1701799500.6204925,0.0,-1.0,-1.0,4.0,0.0,-1.0,-2.0,-5.0
1701799500.6306164,1.0,0.0,3.0,-2.0,1.0,8.0,8.0,6.0
1701799500.6405776,-5.0,-3.0,3.0,1.0,-5.0,-3.0,-4.0,-10.0
1701799500.641362,-3.0,-3.0,0.0,2.0,-3.0,-3.0,4.0,11.0
1701799500.641362,-4.0,-5.0,-12.0,-14.0,-4.0,-1.0,-4.0,-9.0
1701799500.6720228,0.0,2.0,2.0,-3.0,4.0,-4.0,-9.0,2.0
1701799500.6734748,4.0,1.0,7.0,8.0,-3.0,-4.0,4.0,0.0
1701799500.6913438,0.0,-3.0,-13.0,-7.0,-6.0,-3.0,-6.0,-2.0
1701799500.6913438,0.0,-1.0,12.0,-2.0,6.0,5.0,7.0,2.0
1701799500.6913438,-2.0,-2.0,-1.0,-1.0,-9.0,-3.0,-3.0,-5.0
1701799500.6913438,0.0,-2.0,-21.0,22.0,7.0,2.0,3.0,18.0
1701799500.6913438,-1.0,1.0,-2.0,-35.0,-12.0,-12.0,-9.0,-5.0
1701799500.6913438,-4.0,-3.0,2.0,5.0,-1.0,3.0,-1.0,-2.0
1701799500.692347,0.0,2.0,5.0,1.0,5.0,4.0,5.0,-1.0
1701799500.692347,-3.0,0.0,2.0,3.0,3.0,-2.0,-8.0,-5.0
1701799500.7019062,-1.0,0.0,3.0,4.0,-1.0,4.0,6.0,1.0
1701799500.7019062,1.0,1.0,-2.0,7.0,3.0,-1.0,-3.0,-1.0
1701799500.740565,0.0,0.0,-7.0,-22.0,-7.0,-10.0,-4.0,-4.0
1701799500.741567,-1.0,-3.0,19.0,12.0,-5.0,-2.0,-3.0,-2.0
1701799500.741567,-5.0,-6.0,-28.0,-8.0,-1.0,1.0,1.0,-2.0
1701799500.741567,-1.0,3.0,19.0,3.0,-1.0,-1.0,-4.0,-7.0
1701799500.741567,-2.0,-2.0,-20.0,0.0,3.0,1.0,-2.0,0.0
1701799500.741567,-2.0,0.0,3.0,-3.0,1.0,-1.0,-8.0,-1.0
1701799500.741567,-3.0,3.0,33.0,17.0,1.0,4.0,5.0,-1.0
1701799500.741567,-1.0,-5.0,-21.0,-11.0,-4.0,-5.0,12.0,-3.0
1701799500.7544274,3.0,-1.0,8.0,14.0,1.0,1.0,-8.0,-13.0
1701799500.7544274,-2.0,-4.0,-6.0,-11.0,-7.0,-2.0,7.0,12.0
1701799500.764693,1.0,2.0,11.0,6.0,2.0,-3.0,5.0,-3.0
1701799500.764693,0.0,-1.0,-1.0,-3.0,3.0,5.0,-7.0,1.0
1701799500.8110628,-4.0,-2.0,3.0,-2.0,1.0,-1.0,7.0,0.0
1701799500.8110628,0.0,0.0,-7.0,-2.0,-5.0,-4.0,-13.0,-11.0
1701799500.8110628,2.0,2.0,14.0,0.0,1.0,-3.0,-4.0,1.0
1701799500.812061,-1.0,0.0,-9.0,4.0,-2.0,-5.0,2.0,0.0
1701799500.812061,-1.0,-1.0,-9.0,-11.0,-1.0,-1.0,-3.0,0.0
1701799500.812061,-1.0,-2.0,15.0,21.0,2.0,2.0,-7.0,-5.0
1701799500.812061,-1.0,-3.0,-3.0,-15.0,-3.0,1.0,-1.0,1.0
1701799500.812061,0.0,-1.0,-16.0,-8.0,-5.0,-2.0,-5.0,-2.0
1701799500.822786,-1.0,-1.0,-1.0,4.0,3.0,1.0,2.0,2.0
1701799500.822786,-1.0,0.0,-7.0,-4.0,-1.0,-4.0,2.0,-1.0
1701799500.822786,-1.0,-1.0,0.0,1.0,-1.0,-3.0,-9.0,-4.0
1701799500.822786,-2.0,2.0,10.0,8.0,-2.0,0.0,-4.0,-4.0
1701799500.8556151,-4.0,5.0,12.0,5.0,1.0,-2.0,-21.0,-12.0
1701799500.8556151,-4.0,-6.0,0.0,-10.0,-6.0,2.0,18.0,-17.0
1701799500.8556151,5.0,-9.0,-41.0,-27.0,-2.0,5.0,29.0,24.0
1701799500.8556151,0.0,2.0,15.0,18.0,3.0,-2.0,-3.0,1.0
1701799500.8566167,0.0,-5.0,-15.0,-2.0,-5.0,-3.0,0.0,4.0
1701799500.8566167,-1.0,1.0,-1.0,-6.0,2.0,-5.0,-10.0,-10.0
1701799500.8589745,-3.0,0.0,-12.0,4.0,-2.0,-5.0,-16.0,-13.0
1701799500.8589745,-1.0,-2.0,-5.0,2.0,-1.0,1.0,0.0,3.0
1701799500.9038944,-1.0,-2.0,15.0,4.0,-3.0,-3.0,0.0,0.0
1701799500.9038944,0.0,2.0,-1.0,-14.0,-3.0,4.0,-5.0,4.0
1701799500.9038944,-2.0,-3.0,-7.0,4.0,1.0,1.0,7.0,-2.0
1701799500.9038944,3.0,2.0,0.0,-26.0,-7.0,-1.0,-8.0,2.0
1701799500.9038944,-1.0,4.0,9.0,14.0,1.0,-3.0,4.0,2.0
1701799500.9048922,-1.0,-1.0,-2.0,2.0,1.0,4.0,7.0,8.0
1701799500.9059286,-3.0,1.0,-2.0,7.0,-5.0,-9.0,-22.0,-9.0
1701799500.9059286,-2.0,-6.0,-22.0,15.0,3.0,3.0,13.0,-5.0
1701799500.9119124,2.0,-2.0,0.0,-38.0,-5.0,0.0,6.0,-1.0
1701799500.9119124,6.0,-2.0,-8.0,0.0,2.0,-1.0,-4.0,12.0
1701799500.919,0.0,5.0,5.0,3.0,4.0,6.0,7.0,-11.0
1701799500.919,0.0,4.0,15.0,13.0,4.0,-1.0,-5.0,1.0
1701799500.9681773,-7.0,-1.0,-9.0,13.0,0.0,1.0,5.0,13.0
1701799500.9681773,-4.0,-9.0,-23.0,-38.0,-12.0,-8.0,-4.0,2.0
1701799500.9691765,2.0,0.0,14.0,6.0,-2.0,-10.0,-22.0,-8.0
1701799500.9691765,-3.0,3.0,26.0,1.0,-3.0,-1.0,-2.0,-8.0
1701799500.9691765,8.0,-7.0,-17.0,4.0,1.0,-2.0,4.0,0.0
1701799500.9691765,-11.0,-2.0,6.0,1.0,0.0,1.0,-4.0,-6.0
1701799500.972064,0.0,0.0,-5.0,-1.0,-2.0,-2.0,-1.0,3.0
1701799500.972064,1.0,7.0,-2.0,-14.0,-5.0,-4.0,-1.0,-5.0
1701799500.972064,-1.0,5.0,20.0,8.0,2.0,0.0,2.0,3.0
1701799500.972064,1.0,-9.0,-6.0,15.0,1.0,6.0,-6.0,-2.0
1701799500.9789772,0.0,-1.0,1.0,-15.0,-2.0,4.0,11.0,2.0
1701799500.9789772,-3.0,-7.0,-15.0,1.0,2.0,-7.0,-1.0,-1.0
1701799501.0191057,2.0,4.0,30.0,-2.0,-7.0,-1.0,-3.0,3.0
1701799501.0191057,0.0,0.0,-42.0,2.0,1.0,0.0,-2.0,-2.0
1701799501.0191057,0.0,4.0,18.0,10.0,2.0,4.0,1.0,0.0
1701799501.0191057,0.0,0.0,1.0,-7.0,3.0,-2.0,-5.0,-1.0
1701799501.0191057,1.0,3.0,16.0,9.0,0.0,-5.0,-1.0,1.0
1701799501.0191057,0.0,1.0,14.0,3.0,-3.0,-4.0,1.0,-7.0
1701799501.0201442,-5.0,-8.0,-34.0,-29.0,-5.0,-3.0,-6.0,8.0
1701799501.0201442,8.0,3.0,12.0,5.0,0.0,3.0,-1.0,3.0
1701799501.0645912,-14.0,-12.0,-39.0,-19.0,-4.0,-3.0,0.0,-11.0
1701799501.0645912,-1.0,4.0,19.0,13.0,0.0,-3.0,-6.0,-2.0
1701799501.0645912,-3.0,-5.0,-10.0,8.0,2.0,3.0,3.0,-4.0
1701799501.0645912,0.0,-2.0,5.0,-2.0,-1.0,-4.0,1.0,1.0
1701799501.0645912,2.0,-1.0,0.0,3.0,0.0,0.0,-4.0,2.0
1701799501.0645912,-3.0,3.0,4.0,-3.0,-1.0,-5.0,-11.0,-9.0
1701799501.0645912,1.0,0.0,7.0,2.0,-2.0,0.0,-4.0,1.0
1701799501.0645912,0.0,-1.0,-7.0,0.0,3.0,5.0,12.0,7.0
1701799501.0656343,1.0,-3.0,-4.0,0.0,-2.0,-1.0,0.0,-1.0
1701799501.0656343,-1.0,-1.0,-2.0,0.0,-2.0,-2.0,7.0,1.0
1701799501.07683,1.0,2.0,2.0,-5.0,2.0,-2.0,-8.0,-5.0
1701799501.07683,-7.0,-11.0,-37.0,-14.0,-8.0,0.0,-4.0,-5.0
1701799501.1296813,1.0,4.0,10.0,13.0,3.0,1.0,-8.0,-12.0
1701799501.1296813,-4.0,-3.0,-13.0,-5.0,-2.0,-3.0,-5.0,3.0
1701799501.1296813,-8.0,-9.0,9.0,1.0,-6.0,1.0,8.0,10.0
1701799501.1296813,4.0,-2.0,17.0,7.0,4.0,0.0,-5.0,-3.0
1701799501.1296813,-3.0,-3.0,-32.0,-22.0,-3.0,0.0,2.0,1.0
1701799501.1296813,1.0,1.0,4.0,0.0,0.0,-1.0,2.0,-5.0
1701799501.1296813,-2.0,-3.0,-18.0,6.0,-1.0,-5.0,-6.0,-6.0
1701799501.1296813,-4.0,0.0,-1.0,0.0,0.0,2.0,-2.0,-7.0
1701799501.1336582,1.0,6.0,55.0,26.0,6.0,6.0,-1.0,9.0
1701799501.1336582,1.0,1.0,-28.0,-20.0,5.0,6.0,7.0,2.0
1701799501.1347587,-3.0,-2.0,-6.0,2.0,-3.0,-5.0,-2.0,-4.0
1701799501.1347587,1.0,2.0,9.0,3.0,-6.0,-5.0,-3.0,-7.0
1701799501.2018096,3.0,-1.0,-3.0,-7.0,-3.0,-3.0,4.0,9.0
1701799501.2018096,-2.0,12.0,27.0,14.0,-1.0,0.0,0.0,-3.0
1701799501.2018096,-2.0,-18.0,-6.0,-8.0,-2.0,-5.0,-7.0,-6.0
1701799501.2018096,-6.0,8.0,-13.0,-1.0,2.0,-1.0,-18.0,-21.0
1701799501.2018096,1.0,1.0,13.0,3.0,1.0,2.0,25.0,29.0
1701799501.2018096,0.0,-3.0,-3.0,-5.0,-3.0,-2.0,6.0,2.0
1701799501.2077208,4.0,5.0,12.0,-3.0,-3.0,0.0,-3.0,-5.0
1701799501.2077208,-1.0,-6.0,-14.0,-2.0,-1.0,-2.0,2.0,0.0
1701799501.2077208,-1.0,2.0,11.0,-1.0,-4.0,-8.0,-13.0,-14.0
1701799501.2077208,1.0,-7.0,-40.0,-13.0,-2.0,0.0,7.0,4.0
1701799501.2077208,0.0,5.0,-7.0,-1.0,-2.0,-5.0,-6.0,-9.0
1701799501.2087193,0.0,-4.0,2.0,1.0,0.0,8.0,9.0,14.0
1701799501.250214,-5.0,-1.0,-19.0,-6.0,2.0,-1.0,-10.0,-5.0
1701799501.250214,0.0,-6.0,11.0,6.0,-5.0,-3.0,0.0,1.0
1701799501.250214,1.0,7.0,20.0,11.0,5.0,2.0,-3.0,0.0
1701799501.250214,-5.0,-4.0,-5.0,-3.0,-3.0,-2.0,-9.0,1.0
1701799501.250214,1.0,-10.0,-14.0,-1.0,4.0,4.0,-2.0,-1.0
1701799501.250214,2.0,0.0,19.0,3.0,-2.0,-2.0,2.0,2.0
1701799501.250214,0.0,3.0,0.0,-5.0,-7.0,-4.0,-2.0,-2.0
1701799501.250214,-1.0,5.0,-8.0,-5.0,-4.0,-5.0,-5.0,1.0
1701799501.2512171,-3.0,-8.0,-30.0,-10.0,-5.0,-1.0,-1.0,-6.0
1701799501.2512171,-3.0,-2.0,7.0,2.0,-1.0,-5.0,-9.0,-6.0
1701799501.2927306,-1.0,4.0,7.0,4.0,-2.0,3.0,5.0,2.0
1701799501.2927306,0.0,-1.0,6.0,2.0,2.0,-1.0,1.0,3.0
1701799501.2927306,1.0,1.0,8.0,6.0,0.0,-2.0,-6.0,-7.0
1701799501.2927306,0.0,4.0,7.0,-2.0,2.0,-1.0,-5.0,1.0
1701799501.2927306,-3.0,-8.0,0.0,-1.0,-1.0,-4.0,2.0,0.0
1701799501.2927306,0.0,-9.0,-10.0,-1.0,0.0,5.0,7.0,2.0
1701799501.2974176,-3.0,2.0,-12.0,-9.0,0.0,-4.0,-3.0,-5.0
1701799501.2974176,-1.0,2.0,7.0,24.0,4.0,-2.0,-5.0,-2.0
1701799501.3016589,2.0,12.0,36.0,6.0,1.0,1.0,-3.0,-1.0
1701799501.3016589,-2.0,-13.0,-28.0,-17.0,-3.0,-8.0,-2.0,0.0
1701799501.3127823,-4.0,1.0,-13.0,-4.0,-4.0,-4.0,-13.0,-5.0
1701799501.31431,2.0,-6.0,6.0,-3.0,2.0,2.0,6.0,2.0
1701799501.3626883,1.0,2.0,1.0,9.0,0.0,-4.0,2.0,-2.0
1701799501.3626883,1.0,3.0,7.0,1.0,-1.0,5.0,7.0,-1.0
1701799501.3705106,-2.0,2.0,2.0,-7.0,-5.0,1.0,-3.0,-2.0
1701799501.3705106,1.0,4.0,16.0,8.0,2.0,-1.0,-4.0,0.0
1701799501.3705106,-1.0,-7.0,-26.0,-14.0,-5.0,-1.0,-4.0,-2.0
1701799501.3705106,-1.0,2.0,1.0,-7.0,-9.0,-9.0,-15.0,-5.0
1701799501.371514,-1.0,-8.0,4.0,3.0,-3.0,-1.0,13.0,0.0
1701799501.371514,-7.0,-1.0,-18.0,-7.0,4.0,6.0,1.0,0.0
1701799501.371514,0.0,-1.0,10.0,7.0,3.0,0.0,-3.0,-3.0
1701799501.371514,1.0,6.0,16.0,6.0,1.0,-7.0,-7.0,-3.0
1701799501.3725097,0.0,-1.0,-3.0,3.0,0.0,5.0,-3.0,-3.0
1701799501.3725097,-1.0,-10.0,-4.0,-5.0,-3.0,1.0,12.0,2.0
1701799501.411045,2.0,1.0,-11.0,-7.0,-1.0,1.0,7.0,5.0
1701799501.4120448,-4.0,1.0,5.0,3.0,-2.0,-7.0,0.0,-3.0
1701799501.4120448,-1.0,1.0,7.0,-5.0,-4.0,-10.0,-8.0,-4.0
1701799501.4120448,3.0,9.0,10.0,21.0,8.0,-1.0,-7.0,-2.0
1701799501.4120448,-4.0,-7.0,-9.0,-21.0,-5.0,-2.0,-7.0,-5.0
1701799501.4120448,2.0,8.0,10.0,-3.0,-6.0,-3.0,2.0,6.0
1701799501.423211,1.0,2.0,4.0,1.0,5.0,3.0,4.0,1.0
1701799501.423211,-4.0,-20.0,-8.0,-10.0,-4.0,-1.0,-3.0,-5.0
1701799501.4291182,-2.0,-8.0,-16.0,4.0,3.0,0.0,3.0,0.0
1701799501.4291182,-4.0,-3.0,11.0,11.0,2.0,3.0,-1.0,-4.0
1701799501.4301186,-3.0,2.0,-19.0,-10.0,-4.0,-5.0,-1.0,-2.0
1701799501.4301186,2.0,5.0,15.0,5.0,-1.0,-5.0,-4.0,0.0
1701799501.473731,0.0,2.0,9.0,7.0,3.0,0.0,-10.0,-4.0
1701799501.473731,-3.0,-7.0,-1.0,-6.0,-2.0,2.0,17.0,2.0
1701799501.4767334,3.0,3.0,2.0,1.0,-4.0,2.0,-1.0,-2.0
1701799501.4767334,-1.0,3.0,1.0,-2.0,0.0,3.0,-3.0,-5.0
1701799501.4767334,-3.0,-6.0,3.0,0.0,-3.0,-4.0,-5.0,-3.0
1701799501.4767334,1.0,0.0,-19.0,-8.0,-2.0,2.0,-3.0,1.0
1701799501.5152752,-2.0,-5.0,1.0,25.0,4.0,-3.0,0.0,-3.0
1701799501.5152752,2.0,7.0,-6.0,-34.0,-6.0,0.0,5.0,3.0
1701799501.5162761,-4.0,-1.0,-20.0,-4.0,-1.0,-2.0,0.0,-7.0
1701799501.5162761,3.0,0.0,26.0,10.0,-1.0,-3.0,-10.0,2.0
1701799501.5162761,-8.0,-12.0,-38.0,-18.0,-3.0,1.0,14.0,9.0
1701799501.5162761,0.0,1.0,5.0,8.0,-1.0,-6.0,-8.0,-6.0
1701799501.5162761,-1.0,7.0,6.0,2.0,2.0,4.0,4.0,4.0
1701799501.5162761,0.0,1.0,10.0,9.0,4.0,-6.0,1.0,-10.0
1701799501.5162761,0.0,-9.0,-21.0,-9.0,-2.0,-3.0,-13.0,-6.0
1701799501.5162761,-1.0,3.0,-8.0,-9.0,-7.0,-6.0,-6.0,1.0
1701799501.5184693,-4.0,2.0,-7.0,-5.0,-1.0,-3.0,-1.0,-3.0
1701799501.5184693,-5.0,-4.0,-8.0,0.0,-1.0,1.0,-1.0,-1.0
1701799501.5402403,-1.0,2.0,17.0,1.0,3.0,4.0,1.0,1.0
1701799501.5402403,-3.0,-4.0,2.0,1.0,-1.0,-3.0,-4.0,-2.0
1701799501.5415697,-1.0,-2.0,3.0,1.0,-3.0,-6.0,-9.0,-5.0
1701799501.5415697,0.0,-1.0,-13.0,-6.0,-4.0,-3.0,-6.0,-4.0
1701799501.588282,0.0,3.0,9.0,-4.0,-4.0,-6.0,-8.0,-2.0
1701799501.588282,1.0,-2.0,0.0,8.0,1.0,5.0,14.0,-2.0
1701799501.588282,-1.0,0.0,-5.0,-2.0,-1.0,2.0,0.0,2.0
1701799501.588282,-2.0,-2.0,5.0,0.0,0.0,2.0,21.0,8.0
1701799501.588282,-1.0,-2.0,-11.0,-6.0,1.0,1.0,-10.0,-8.0
1701799501.588282,-1.0,2.0,-2.0,-5.0,-3.0,-3.0,-15.0,-2.0
1701799501.588282,-2.0,-4.0,12.0,3.0,-5.0,-1.0,11.0,3.0
1701799501.588282,0.0,-1.0,-8.0,-4.0,2.0,0.0,-10.0,-2.0
1701799501.6003575,1.0,0.0,3.0,3.0,-5.0,-10.0,-11.0,-10.0
1701799501.6003575,-1.0,-3.0,9.0,6.0,-1.0,1.0,-30.0,-2.0
1701799501.601356,2.0,-2.0,-2.0,2.0,7.0,16.0,52.0,13.0
1701799501.601356,-1.0,-1.0,-11.0,-4.0,-2.0,-2.0,1.0,-5.0
1701799501.6553516,4.0,1.0,24.0,2.0,-1.0,0.0,6.0,10.0
1701799501.65635,-6.0,-5.0,-14.0,-8.0,-5.0,-12.0,-18.0,-10.0
1701799501.65635,-3.0,-2.0,-13.0,0.0,-2.0,-7.0,-23.0,-5.0
1701799501.65635,3.0,10.0,43.0,18.0,7.0,12.0,6.0,1.0
1701799501.65635,-5.0,-11.0,-55.0,-31.0,-4.0,-7.0,-21.0,-16.0
1701799501.65635,7.0,3.0,12.0,4.0,1.0,28.0,68.0,27.0
1701799501.65635,0.0,0.0,1.0,-2.0,-3.0,-8.0,-11.0,-4.0
1701799501.65635,-5.0,-5.0,-9.0,0.0,-2.0,-7.0,1.0,-3.0
1701799501.677594,1.0,6.0,24.0,13.0,3.0,-3.0,-10.0,1.0
1701799501.677594,1.0,-1.0,-4.0,-1.0,-2.0,-2.0,-3.0,-5.0
1701799501.677594,-2.0,-5.0,-12.0,-5.0,-7.0,-9.0,-14.0,-3.0
1701799501.677594,-4.0,5.0,-15.0,-10.0,-1.0,-3.0,-9.0,-2.0
1701799501.6809945,1.0,6.0,8.0,6.0,-2.0,3.0,4.0,1.0
1701799501.6820178,-3.0,-21.0,-26.0,-7.0,1.0,-6.0,-3.0,-2.0
1701799501.6820178,-3.0,4.0,31.0,8.0,2.0,4.0,0.0,-1.0
1701799501.6820178,-2.0,-5.0,-16.0,-7.0,-4.0,-5.0,-12.0,-4.0
1701799501.6937585,1.0,6.0,-3.0,0.0,2.0,1.0,7.0,3.0
1701799501.6937585,-4.0,3.0,-11.0,-9.0,-7.0,-9.0,0.0,-4.0
1701799501.7037249,0.0,-4.0,-16.0,-7.0,-4.0,-3.0,-15.0,-12.0
1701799501.7037249,0.0,-2.0,0.0,1.0,1.0,2.0,6.0,11.0
1701799501.748707,0.0,-1.0,9.0,7.0,5.0,6.0,13.0,3.0
1701799501.748707,0.0,3.0,16.0,-6.0,-2.0,-4.0,-3.0,-3.0
1701799501.748707,0.0,-3.0,11.0,4.0,-1.0,-4.0,-11.0,-6.0
1701799501.748707,0.0,-3.0,-27.0,-4.0,-4.0,-4.0,-6.0,-1.0
1701799501.748707,0.0,-7.0,2.0,1.0,2.0,7.0,14.0,2.0
1701799501.748707,-3.0,-1.0,5.0,7.0,0.0,-4.0,-10.0,-3.0
1701799501.748707,-5.0,1.0,-13.0,-11.0,-3.0,-9.0,-5.0,-1.0
1701799501.748707,0.0,-6.0,-10.0,-10.0,-2.0,5.0,11.0,4.0
1701799501.7567081,-1.0,7.0,9.0,4.0,-2.0,-4.0,-4.0,1.0
1701799501.7567081,-2.0,-2.0,-12.0,-4.0,0.0,0.0,1.0,-3.0
1701799501.7577121,0.0,2.0,3.0,0.0,1.0,1.0,-4.0,1.0
1701799501.7577121,1.0,0.0,11.0,1.0,-2.0,-5.0,-1.0,-1.0
1701799501.7873087,-1.0,-1.0,14.0,-2.0,-2.0,-1.0,-6.0,-3.0
1701799501.7893033,-2.0,-1.0,-20.0,-4.0,3.0,4.0,9.0,-2.0
1701799501.8050897,0.0,0.0,-4.0,4.0,2.0,1.0,-2.0,2.0
1701799501.8060887,-1.0,1.0,7.0,2.0,-2.0,-4.0,-9.0,-11.0
1701799501.8317268,-2.0,-8.0,-11.0,-10.0,-6.0,0.0,1.0,8.0
1701799501.8317268,0.0,5.0,32.0,10.0,2.0,1.0,-1.0,1.0
1701799501.8317268,-2.0,-9.0,-51.0,-13.0,-2.0,1.0,2.0,0.0
1701799501.8317268,-1.0,-5.0,-7.0,-8.0,-4.0,-2.0,-3.0,-3.0
1701799501.8317268,0.0,3.0,6.0,5.0,1.0,-3.0,-3.0,-4.0
1701799501.8317268,0.0,2.0,12.0,3.0,-5.0,-5.0,-9.0,-3.0
1701799501.8317268,0.0,4.0,6.0,6.0,1.0,-2.0,3.0,2.0
1701799501.8317268,-4.0,-10.0,-6.0,-8.0,-4.0,-2.0,-7.0,-1.0
1701799501.874225,-1.0,0.0,-6.0,-3.0,-3.0,-2.0,0.0,-1.0
1701799501.874225,0.0,-2.0,4.0,-2.0,1.0,-6.0,-11.0,-4.0
1701799501.874225,2.0,1.0,13.0,5.0,1.0,9.0,17.0,6.0
1701799501.874225,0.0,0.0,-9.0,-4.0,-3.0,0.0,25.0,6.0
1701799501.874225,-2.0,1.0,15.0,1.0,-2.0,-1.0,-6.0,-6.0
1701799501.874225,1.0,5.0,-9.0,0.0,6.0,5.0,4.0,1.0
1701799501.874225,-1.0,-8.0,2.0,-1.0,-1.0,-4.0,-11.0,-2.0
1701799501.874225,0.0,3.0,16.0,8.0,2.0,-3.0,-10.0,-4.0
1701799501.8889663,-2.0,-2.0,8.0,1.0,-1.0,2.0,1.0,0.0
1701799501.8889663,-3.0,-7.0,-48.0,-26.0,-10.0,-5.0,-8.0,-3.0
1701799501.8889663,-1.0,1.0,16.0,1.0,-7.0,-7.0,-6.0,-3.0
1701799501.8889663,0.0,0.0,7.0,4.0,2.0,2.0,1.0,1.0
1701799501.8928373,0.0,-1.0,-1.0,3.0,1.0,0.0,5.0,-1.0
1701799501.8928373,1.0,-3.0,8.0,8.0,5.0,-3.0,-3.0,-3.0
1701799501.8928373,0.0,-2.0,0.0,-10.0,-1.0,-2.0,5.0,0.0
1701799501.8928373,-3.0,1.0,11.0,8.0,-5.0,-3.0,-6.0,-1.0
1701799501.922692,-1.0,0.0,-10.0,-4.0,0.0,-3.0,-4.0,-3.0
1701799501.9232693,-4.0,-1.0,3.0,2.0,-3.0,3.0,7.0,0.0
1701799501.930169,1.0,2.0,2.0,2.0,2.0,3.0,2.0,-1.0
1701799501.930169,0.0,1.0,-2.0,0.0,3.0,-2.0,-8.0,-10.0
1701799501.980052,0.0,1.0,-1.0,2.0,-2.0,3.0,9.0,10.0
1701799501.980052,0.0,-3.0,-4.0,-7.0,-3.0,-3.0,-7.0,-1.0
1701799501.980052,0.0,-1.0,-17.0,-3.0,-1.0,4.0,16.0,3.0
1701799501.980052,0.0,-2.0,1.0,-4.0,-4.0,1.0,-7.0,-3.0
1701799501.980052,-5.0,-8.0,-14.0,-8.0,-6.0,-1.0,3.0,-4.0
1701799501.980052,-2.0,0.0,5.0,3.0,-2.0,-6.0,-4.0,-3.0
1701799501.980052,1.0,5.0,9.0,1.0,3.0,6.0,-7.0,0.0
1701799501.980052,-1.0,-6.0,-16.0,-8.0,1.0,0.0,4.0,1.0
1701799501.9810567,-2.0,2.0,22.0,8.0,-2.0,-3.0,-3.0,-2.0
1701799501.9810567,1.0,-1.0,-11.0,-6.0,-2.0,0.0,3.0,3.0
1701799501.9810567,-3.0,1.0,7.0,0.0,-4.0,-5.0,-6.0,-3.0
1701799501.9810567,-1.0,-1.0,-13.0,-4.0,1.0,0.0,-1.0,0.0
1701799502.0427687,-1.0,2.0,27.0,3.0,3.0,-4.0,-5.0,-4.0
1701799502.0427687,-2.0,-9.0,-32.0,-10.0,-9.0,-2.0,-2.0,-5.0
1701799502.0427687,-2.0,-1.0,9.0,6.0,1.0,-4.0,-3.0,-1.0
1701799502.0427687,0.0,-1.0,4.0,5.0,-2.0,-2.0,-5.0,1.0
1701799502.0427687,-2.0,3.0,-20.0,-14.0,-4.0,0.0,-3.0,-4.0
1701799502.0427687,-1.0,0.0,18.0,2.0,1.0,2.0,5.0,5.0
1701799502.0427687,-2.0,-4.0,-21.0,-5.0,-1.0,-2.0,-2.0,-3.0
1701799502.0427687,0.0,0.0,-1.0,0.0,3.0,1.0,3.0,5.0
1701799502.0438836,-1.0,-2.0,6.0,5.0,-1.0,-6.0,-10.0,-5.0
1701799502.0438836,-2.0,1.0,8.0,4.0,0.0,0.0,2.0,-4.0
1701799502.0438836,0.0,-3.0,-4.0,-2.0,-2.0,-4.0,-10.0,-1.0
1701799502.0438836,0.0,-1.0,12.0,0.0,2.0,0.0,7.0,0.0
1701799502.1114697,1.0,-5.0,-16.0,-2.0,0.0,1.0,0.0,4.0
1701799502.1114697,0.0,5.0,28.0,10.0,0.0,0.0,-2.0,0.0
1701799502.1114697,-1.0,-5.0,-1.0,-5.0,-1.0,0.0,2.0,-1.0
1701799502.1114697,-3.0,-1.0,12.0,2.0,-3.0,-1.0,-7.0,-5.0
1701799502.1114697,-2.0,-2.0,-12.0,-1.0,1.0,1.0,1.0,-2.0
1701799502.1114697,-3.0,-4.0,-23.0,-11.0,-5.0,-3.0,-3.0,2.0
1701799502.1114697,0.0,4.0,4.0,3.0,2.0,1.0,1.0,-2.0
1701799502.1114697,-1.0,0.0,4.0,5.0,0.0,0.0,-2.0,2.0
1701799502.131834,0.0,-2.0,3.0,-4.0,-2.0,-2.0,0.0,-4.0
1701799502.131834,0.0,-2.0,3.0,4.0,-1.0,-3.0,-3.0,-5.0
1701799502.131834,0.0,1.0,10.0,-1.0,-4.0,0.0,-4.0,-5.0
1701799502.131834,-1.0,0.0,-15.0,-5.0,1.0,1.0,6.0,5.0
1701799502.131834,0.0,-1.0,5.0,1.0,-1.0,0.0,0.0,-1.0
1701799502.131834,-3.0,3.0,-1.0,-4.0,0.0,-3.0,-4.0,-1.0
1701799502.131834,-1.0,-1.0,-5.0,-3.0,-4.0,-2.0,-3.0,-2.0
1701799502.131834,0.0,1.0,-1.0,3.0,-4.0,0.0,-2.0,0.0
1701799502.133852,0.0,1.0,-1.0,-2.0,2.0,-1.0,0.0,-3.0
1701799502.133852,-1.0,0.0,-6.0,-1.0,4.0,2.0,0.0,-3.0
1701799502.133852,-1.0,-1.0,9.0,4.0,-1.0,-2.0,-1.0,0.0
1701799502.133852,-3.0,-2.0,-15.0,-11.0,-1.0,-2.0,-3.0,-5.0
1701799502.1994636,0.0,-5.0,-6.0,-7.0,-4.0,-1.0,4.0,2.0
1701799502.2004623,1.0,2.0,11.0,5.0,1.0,0.0,-1.0,-3.0
1701799502.2004623,-4.0,-7.0,0.0,-1.0,-4.0,-1.0,-1.0,-1.0
1701799502.2004623,0.0,-2.0,-21.0,-6.0,1.0,-1.0,-4.0,-1.0
1701799502.2004623,0.0,-1.0,-9.0,-4.0,-3.0,-2.0,-3.0,-3.0
1701799502.2004623,1.0,-2.0,-3.0,-4.0,-3.0,-2.0,-2.0,3.0
1701799502.2004623,0.0,3.0,8.0,4.0,1.0,2.0,4.0,2.0
1701799502.2004623,0.0,1.0,13.0,0.0,-3.0,-1.0,-3.0,-2.0
1701799502.2004623,1.0,0.0,-12.0,-7.0,0.0,-1.0,0.0,1.0
1701799502.2004623,-3.0,-2.0,2.0,6.0,-4.0,-6.0,-6.0,-4.0
1701799502.2004623,-1.0,-3.0,4.0,5.0,2.0,-1.0,2.0,-1.0
1701799502.2004623,0.0,0.0,-11.0,-10.0,-1.0,3.0,-1.0,-1.0
1701799502.270123,-2.0,-3.0,-2.0,1.0,-2.0,-2.0,-6.0,1.0
1701799502.270123,1.0,-2.0,6.0,-2.0,1.0,-1.0,2.0,5.0
1701799502.270123,1.0,5.0,15.0,8.0,0.0,1.0,1.0,4.0
1701799502.270123,-4.0,-6.0,-18.0,-6.0,-3.0,-5.0,-5.0,-5.0
1701799502.272786,-2.0,-2.0,-14.0,-5.0,1.0,5.0,9.0,1.0
1701799502.2737846,-1.0,2.0,0.0,1.0,0.0,2.0,5.0,-1.0
1701799502.2737846,-1.0,-2.0,-6.0,-6.0,-2.0,-5.0,-3.0,-2.0
1701799502.2737846,1.0,0.0,11.0,2.0,-7.0,-3.0,-6.0,-3.0
1701799502.2737846,-2.0,-1.0,1.0,0.0,1.0,-6.0,-6.0,-1.0
1701799502.2737846,-2.0,-1.0,0.0,1.0,-1.0,0.0,1.0,0.0
1701799502.2737846,-1.0,-2.0,-8.0,-4.0,1.0,2.0,2.0,0.0
1701799502.2737846,0.0,0.0,8.0,1.0,3.0,0.0,0.0,1.0
1701799502.3091533,1.0,-3.0,-12.0,-6.0,-9.0,-4.0,-4.0,-1.0
1701799502.3091533,0.0,0.0,0.0,-4.0,-1.0,-5.0,-2.0,-2.0
1701799502.3091533,-2.0,-1.0,-8.0,-2.0,1.0,0.0,-7.0,-4.0
1701799502.3091533,0.0,-1.0,13.0,9.0,-2.0,-2.0,0.0,0.0
1701799502.3091533,-2.0,-3.0,0.0,0.0,3.0,2.0,7.0,0.0
1701799502.3091533,1.0,1.0,17.0,10.0,2.0,5.0,-4.0,-1.0
1701799502.3091533,-2.0,-2.0,-20.0,-12.0,-3.0,-3.0,-3.0,-1.0
1701799502.3091533,-3.0,-4.0,-10.0,-5.0,-3.0,-3.0,3.0,-1.0
1701799502.3156984,-2.0,1.0,10.0,7.0,0.0,-7.0,-9.0,-4.0
1701799502.3156984,-2.0,-2.0,-7.0,-6.0,-4.0,0.0,0.0,0.0
1701799502.3156984,2.0,1.0,22.0,11.0,8.0,6.0,11.0,6.0
1701799502.3156984,-1.0,1.0,-4.0,-1.0,6.0,6.0,2.0,1.0
1701799502.3579204,1.0,-2.0,-14.0,-7.0,0.0,0.0,1.0,0.0
1701799502.3579204,1.0,0.0,2.0,-2.0,-4.0,-7.0,-7.0,-4.0
1701799502.3579204,-2.0,-2.0,-6.0,-4.0,-6.0,-6.0,-7.0,-3.0
1701799502.3579204,-2.0,1.0,11.0,4.0,0.0,0.0,-2.0,-1.0
1701799502.3590243,-1.0,1.0,9.0,4.0,0.0,3.0,2.0,-2.0
1701799502.3590243,-1.0,-4.0,-8.0,-2.0,-1.0,3.0,1.0,0.0
1701799502.3590243,-2.0,-3.0,5.0,4.0,0.0,-1.0,-2.0,1.0
1701799502.3590243,0.0,0.0,-3.0,1.0,-4.0,-5.0,-2.0,-1.0
1701799502.3773232,-2.0,1.0,8.0,-1.0,-3.0,-3.0,-5.0,-2.0
1701799502.3773232,-1.0,0.0,-14.0,-5.0,1.0,0.0,1.0,1.0
1701799502.3773232,0.0,2.0,-6.0,-2.0,-3.0,1.0,-3.0,0.0
1701799502.3773232,0.0,0.0,4.0,0.0,0.0,-2.0,-5.0,-4.0
1701799502.4260335,0.0,-2.0,-1.0,-2.0,-4.0,-1.0,-2.0,0.0
1701799502.4260335,-2.0,1.0,4.0,1.0,2.0,4.0,0.0,-1.0
1701799502.4260335,-2.0,-3.0,-6.0,-5.0,-4.0,-2.0,3.0,-3.0
1701799502.4260335,-2.0,-1.0,3.0,0.0,-1.0,-2.0,-1.0,-2.0
1701799502.4331484,1.0,-4.0,-26.0,-6.0,0.0,1.0,-2.0,0.0
1701799502.4331484,-2.0,-2.0,9.0,5.0,-1.0,-6.0,-2.0,-1.0
1701799502.4331484,-3.0,-2.0,-18.0,-9.0,-1.0,1.0,-1.0,-3.0
1701799502.4331484,0.0,1.0,13.0,3.0,-1.0,-3.0,-1.0,-1.0
1701799502.435117,-3.0,-5.0,-14.0,-10.0,-4.0,-3.0,-4.0,-9.0
1701799502.435117,-2.0,2.0,5.0,5.0,3.0,1.0,-1.0,7.0
1701799502.435117,-1.0,0.0,18.0,9.0,3.0,0.0,2.0,0.0
1701799502.435117,-3.0,-5.0,-25.0,-15.0,-4.0,-3.0,-2.0,-1.0
1701799502.4800136,1.0,3.0,14.0,7.0,1.0,-2.0,-2.0,1.0
1701799502.481073,1.0,1.0,9.0,3.0,-2.0,0.0,-1.0,-4.0
1701799502.481073,0.0,-4.0,7.0,-1.0,-4.0,-3.0,-4.0,-2.0
1701799502.481073,-3.0,-6.0,-23.0,-7.0,-3.0,-3.0,-3.0,0.0
1701799502.481073,0.0,3.0,1.0,-7.0,0.0,3.0,0.0,1.0
1701799502.481073,-3.0,-5.0,-8.0,-3.0,-2.0,2.0,3.0,-2.0
1701799502.481073,1.0,4.0,11.0,5.0,1.0,-2.0,-6.0,-3.0
1701799502.481073,-1.0,-3.0,-7.0,-1.0,-3.0,-1.0,2.0,-2.0
1701799502.5245857,-2.0,-3.0,-3.0,1.0,-3.0,-4.0,-3.0,2.0
1701799502.5245857,1.0,3.0,11.0,3.0,3.0,3.0,6.0,-1.0
1701799502.5245857,-3.0,0.0,-11.0,-6.0,-4.0,-5.0,-4.0,-4.0
1701799502.5245857,-3.0,-3.0,5.0,2.0,1.0,0.0,-1.0,-3.0
1701799502.5245857,1.0,1.0,14.0,8.0,1.0,2.0,-5.0,1.0
1701799502.5245857,-2.0,-3.0,-32.0,-17.0,-5.0,-4.0,-7.0,-3.0
1701799502.5245857,-1.0,-3.0,-9.0,-1.0,2.0,-1.0,2.0,-2.0
1701799502.5245857,2.0,0.0,-2.0,-2.0,-4.0,0.0,14.0,4.0
1701799502.5358996,-2.0,2.0,17.0,8.0,2.0,1.0,4.0,1.0
1701799502.5358996,1.0,-1.0,-2.0,2.0,0.0,-2.0,-4.0,-3.0
1701799502.5358996,0.0,-2.0,-6.0,-8.0,-3.0,-3.0,-9.0,-1.0
1701799502.5358996,-1.0,-1.0,3.0,3.0,2.0,-2.0,-4.0,-1.0
1701799502.5892792,-1.0,2.0,12.0,3.0,-1.0,2.0,4.0,0.0
1701799502.5892792,-2.0,-7.0,-38.0,-14.0,-9.0,-5.0,-6.0,-3.0
1701799502.5892792,-3.0,0.0,-8.0,-5.0,-1.0,1.0,3.0,1.0
1701799502.5892792,0.0,1.0,14.0,5.0,3.0,1.0,-1.0,-1.0
1701799502.5892792,-2.0,-4.0,-1.0,2.0,-2.0,-3.0,2.0,-2.0
1701799502.5892792,-3.0,-1.0,3.0,-3.0,-3.0,-3.0,-3.0,-5.0
1701799502.5892792,2.0,0.0,3.0,1.0,-2.0,-6.0,-3.0,0.0
1701799502.5892792,0.0,1.0,5.0,3.0,1.0,2.0,-4.0,2.0
1701799502.6017683,-3.0,-4.0,-11.0,-3.0,2.0,3.0,-1.0,-1.0
1701799502.6017683,2.0,-1.0,9.0,1.0,-1.0,-1.0,1.0,2.0
1701799502.6017683,-1.0,1.0,-6.0,-3.0,-1.0,4.0,6.0,-1.0
1701799502.6017683,-3.0,-1.0,4.0,-1.0,-5.0,-6.0,-7.0,-5.0
1701799502.657919,0.0,0.0,-3.0,2.0,2.0,-2.0,-2.0,-2.0
1701799502.657919,-1.0,-2.0,-1.0,-7.0,-2.0,-2.0,-4.0,-3.0
1701799502.657919,0.0,1.0,11.0,8.0,-2.0,-1.0,1.0,0.0
1701799502.657919,-1.0,1.0,2.0,1.0,3.0,2.0,-3.0,-3.0
1701799502.657919,-2.0,-3.0,-3.0,-3.0,-3.0,-4.0,-3.0,-1.0
1701799502.657919,-1.0,3.0,7.0,3.0,-1.0,-4.0,1.0,0.0
1701799502.657919,-2.0,-1.0,6.0,-4.0,-5.0,-7.0,-3.0,-2.0
1701799502.657919,-1.0,2.0,-2.0,4.0,1.0,6.0,5.0,3.0
1701799502.65985,0.0,1.0,6.0,-3.0,3.0,11.0,3.0,1.0
1701799502.65985,0.0,0.0,-6.0,0.0,4.0,1.0,1.0,0.0
1701799502.65985,0.0,-2.0,-6.0,-5.0,-2.0,-4.0,-1.0,-1.0
1701799502.65985,-3.0,-3.0,-3.0,-3.0,-3.0,-5.0,-3.0,-3.0
1701799502.7254717,-2.0,0.0,6.0,3.0,-4.0,-4.0,-3.0,-1.0
1701799502.7254717,2.0,-2.0,3.0,0.0,-4.0,-1.0,-4.0,-1.0
1701799502.7254717,-2.0,2.0,-3.0,-1.0,0.0,3.0,-1.0,-2.0
1701799502.7254717,4.0,3.0,10.0,4.0,1.0,-3.0,1.0,1.0
1701799502.7254717,0.0,-1.0,-13.0,-6.0,-4.0,0.0,1.0,-1.0
1701799502.7254717,-3.0,-2.0,6.0,2.0,1.0,4.0,1.0,-1.0
1701799502.7254717,0.0,-4.0,-13.0,-5.0,0.0,1.0,2.0,0.0
1701799502.7254717,-3.0,-2.0,-8.0,-1.0,0.0,1.0,-2.0,-3.0
1701799502.7606936,0.0,-3.0,-3.0,-3.0,-5.0,-5.0,-4.0,-2.0
1701799502.7606936,0.0,4.0,10.0,6.0,-6.0,-6.0,-3.0,-2.0
1701799502.7606936,0.0,0.0,17.0,2.0,2.0,2.0,-1.0,1.0
1701799502.7606936,-2.0,-5.0,-26.0,-12.0,-2.0,2.0,1.0,-1.0
1701799502.7606936,-2.0,-1.0,-11.0,-1.0,2.0,-1.0,3.0,0.0
1701799502.7606936,0.0,1.0,6.0,2.0,0.0,2.0,1.0,-1.0
1701799502.7606936,-2.0,-1.0,0.0,-1.0,-2.0,-11.0,-6.0,-2.0
1701799502.7606936,1.0,6.0,28.0,8.0,-3.0,1.0,-2.0,-1.0
1701799502.7614226,-2.0,-5.0,-27.0,-16.0,3.0,4.0,1.0,-2.0
1701799502.7614226,1.0,-4.0,-7.0,-5.0,1.0,3.0,2.0,2.0
1701799502.7614226,-1.0,-1.0,-2.0,1.0,1.0,0.0,-2.0,-1.0
1701799502.7630734,-2.0,-4.0,0.0,-2.0,-5.0,-5.0,-2.0,-1.0
1701799502.811022,0.0,3.0,10.0,3.0,-3.0,-7.0,-3.0,-1.0
1701799502.811022,-1.0,0.0,2.0,0.0,-4.0,-4.0,-1.0,0.0
1701799502.811022,-2.0,-2.0,-13.0,-1.0,0.0,-3.0,-5.0,-5.0
1701799502.811022,-3.0,-5.0,-13.0,-6.0,-4.0,0.0,-1.0,-1.0
1701799502.811022,0.0,4.0,19.0,4.0,-1.0,0.0,0.0,-2.0
1701799502.811022,-3.0,-6.0,-41.0,-15.0,0.0,4.0,1.0,-2.0
1701799502.811022,-2.0,0.0,2.0,-1.0,-3.0,2.0,-5.0,-7.0
1701799502.811022,-3.0,-5.0,-11.0,1.0,1.0,-1.0,6.0,8.0
1701799502.8192644,-3.0,-2.0,-7.0,-4.0,-6.0,-8.0,-2.0,-1.0
1701799502.8192644,-1.0,1.0,9.0,-1.0,-3.0,-4.0,-3.0,0.0
1701799502.8192644,3.0,2.0,6.0,4.0,-1.0,-1.0,0.0,-1.0
1701799502.8192644,-1.0,-2.0,-3.0,-6.0,-2.0,-1.0,-5.0,-5.0
1701799502.8684473,2.0,2.0,3.0,2.0,2.0,4.0,1.0,1.0
1701799502.8684473,-2.0,2.0,4.0,4.0,2.0,-3.0,-1.0,-2.0
1701799502.8684473,-1.0,-4.0,-6.0,-5.0,-3.0,1.0,1.0,1.0
1701799502.8684473,1.0,3.0,14.0,3.0,-3.0,-4.0,-4.0,-2.0
1701799502.8684473,-1.0,-3.0,1.0,5.0,-6.0,-5.0,-1.0,2.0
1701799502.8684473,-2.0,-2.0,-5.0,0.0,8.0,1.0,-2.0,-4.0
1701799502.8684473,-1.0,1.0,-4.0,-7.0,-4.0,2.0,1.0,1.0
1701799502.8684473,-2.0,-3.0,-3.0,0.0,2.0,0.0,5.0,-1.0
1701799502.8824737,-1.0,0.0,3.0,3.0,-4.0,-6.0,-9.0,-5.0
1701799502.8824737,0.0,-2.0,2.0,0.0,2.0,2.0,4.0,5.0
1701799502.8852575,1.0,-1.0,1.0,0.0,-1.0,-1.0,4.0,0.0
1701799502.8852575,-1.0,2.0,6.0,0.0,-7.0,0.0,-2.0,-5.0
1701799502.9229252,-4.0,-4.0,-12.0,-2.0,7.0,5.0,5.0,0.0
1701799502.923924,-1.0,0.0,5.0,9.0,6.0,1.0,-4.0,-4.0
1701799502.923924,0.0,-1.0,-7.0,-6.0,-7.0,-9.0,-1.0,2.0
1701799502.923924,-1.0,0.0,2.0,-1.0,1.0,-1.0,-2.0,-3.0
1701799502.923924,-1.0,-1.0,2.0,-1.0,-7.0,-5.0,-10.0,-5.0
1701799502.923924,-1.0,-4.0,-4.0,-8.0,-6.0,1.0,5.0,1.0
1701799502.923924,-2.0,-3.0,1.0,5.0,1.0,-1.0,-4.0,-3.0
1701799502.923924,0.0,3.0,-4.0,-1.0,-1.0,-3.0,-5.0,-2.0
1701799502.938366,-1.0,-2.0,-2.0,-6.0,-5.0,-4.0,-3.0,0.0
1701799502.938366,-1.0,0.0,3.0,-2.0,-2.0,1.0,-1.0,0.0
1701799502.938366,-3.0,-3.0,-9.0,-1.0,3.0,5.0,2.0,-2.0
1701799502.938366,-1.0,-1.0,7.0,4.0,4.0,0.0,2.0,5.0
1701799502.9919684,1.0,-1.0,11.0,5.0,0.0,2.0,9.0,4.0
1701799502.9929721,1.0,3.0,4.0,-4.0,1.0,1.0,-17.0,-6.0
1701799502.9929721,-4.0,-5.0,-26.0,-13.0,-9.0,-1.0,12.0,2.0
1701799502.9929721,-1.0,-2.0,-10.0,-4.0,-1.0,0.0,-7.0,-6.0
1701799502.9929721,2.0,1.0,6.0,3.0,2.0,0.0,17.0,3.0
1701799502.9929721,0.0,-2.0,1.0,-4.0,-7.0,0.0,7.0,7.0
1701799502.9929721,-4.0,-1.0,8.0,2.0,2.0,-2.0,-14.0,-7.0
1701799502.9929721,-2.0,-1.0,5.0,4.0,3.0,1.0,-6.0,-1.0
1701799503.0487235,-3.0,-2.0,-15.0,-9.0,-2.0,0.0,-2.0,0.0
1701799503.0487235,-2.0,-2.0,-7.0,-1.0,-6.0,-10.0,-6.0,-5.0
1701799503.0487235,0.0,-1.0,8.0,3.0,2.0,8.0,3.0,3.0
1701799503.0487235,1.0,-3.0,-16.0,-8.0,-1.0,-4.0,-1.0,-1.0
1701799503.0487235,-2.0,0.0,4.0,0.0,-6.0,-14.0,-27.0,-10.0
1701799503.0497746,0.0,-1.0,-3.0,3.0,3.0,6.0,17.0,6.0
1701799503.0497746,1.0,3.0,4.0,0.0,1.0,9.0,14.0,3.0
1701799503.0497746,-1.0,0.0,9.0,3.0,1.0,-2.0,2.0,-2.0
1701799503.0497746,-3.0,-3.0,-7.0,-4.0,1.0,0.0,-4.0,-2.0
1701799503.0497746,-1.0,-3.0,-7.0,-4.0,-4.0,-5.0,-3.0,-3.0
1701799503.0497746,0.0,1.0,1.0,3.0,1.0,0.0,-3.0,4.0
1701799503.0497746,1.0,1.0,8.0,0.0,0.0,-2.0,0.0,-1.0
1701799503.0600607,-2.0,-4.0,-12.0,-10.0,-6.0,-5.0,-10.0,-7.0
1701799503.0600607,-4.0,-5.0,-8.0,-4.0,-5.0,-5.0,-14.0,-3.0
1701799503.0600607,1.0,0.0,3.0,-1.0,-1.0,-2.0,-3.0,5.0
1701799503.0600607,-4.0,-2.0,1.0,0.0,-1.0,2.0,10.0,-1.0
1701799503.106742,-1.0,2.0,3.0,1.0,5.0,2.0,0.0,5.0
1701799503.106742,-1.0,-1.0,14.0,5.0,0.0,-2.0,0.0,-8.0
1701799503.106742,-3.0,-5.0,-20.0,-7.0,-1.0,-2.0,-5.0,-5.0
1701799503.1077423,-2.0,1.0,2.0,1.0,-2.0,-6.0,-13.0,-4.0
1701799503.1077423,0.0,-2.0,-2.0,-3.0,1.0,8.0,23.0,7.0
1701799503.1077423,-4.0,0.0,-5.0,-3.0,-1.0,-4.0,-2.0,-3.0
1701799503.144334,-2.0,-1.0,-1.0,-3.0,-3.0,-1.0,0.0,-2.0
1701799503.144334,1.0,-1.0,-2.0,0.0,-3.0,0.0,-4.0,-2.0
1701799503.144334,0.0,3.0,10.0,8.0,5.0,0.0,0.0,-1.0
1701799503.144334,0.0,-1.0,0.0,0.0,1.0,-2.0,-3.0,1.0
1701799503.144334,-2.0,0.0,0.0,-2.0,-5.0,-9.0,4.0,2.0
1701799503.144334,-2.0,0.0,-7.0,-6.0,-5.0,-2.0,-6.0,-2.0
1701799503.144334,-1.0,-4.0,5.0,2.0,0.0,2.0,1.0,0.0
1701799503.1453326,-1.0,0.0,0.0,1.0,1.0,-2.0,-1.0,-1.0
1701799503.1453326,-2.0,-4.0,-8.0,-10.0,-3.0,-12.0,-12.0,-7.0
1701799503.1453326,-1.0,-3.0,-4.0,4.0,3.0,13.0,3.0,-14.0
1701799503.1545558,2.0,1.0,12.0,5.0,5.0,4.0,8.0,22.0
1701799503.1545558,0.0,-2.0,-12.0,-6.0,-3.0,-4.0,-5.0,-6.0
1701799503.1694937,0.0,1.0,11.0,2.0,-5.0,0.0,5.0,6.0
1701799503.1694937,-1.0,-1.0,-5.0,-5.0,-1.0,-6.0,-10.0,-8.0
1701799503.2042835,-1.0,-1.0,2.0,2.0,-4.0,-3.0,8.0,-4.0
1701799503.2042835,-1.0,0.0,6.0,4.0,1.0,0.0,1.0,1.0
1701799503.2042835,2.0,3.0,13.0,6.0,0.0,3.0,3.0,-5.0
1701799503.2042835,-3.0,-4.0,-6.0,-2.0,1.0,-6.0,-2.0,-11.0
1701799503.2075632,-1.0,-8.0,-42.0,-20.0,-4.0,-1.0,-7.0,9.0
1701799503.2075632,-1.0,0.0,7.0,0.0,3.0,1.0,2.0,2.0
1701799503.2075632,-2.0,-2.0,0.0,4.0,7.0,5.0,-1.0,-2.0
1701799503.2075632,-1.0,0.0,15.0,5.0,-1.0,0.0,5.0,3.0
1701799503.2184536,-3.0,2.0,10.0,6.0,-3.0,-6.0,-7.0,-5.0
1701799503.2184536,-1.0,-4.0,-12.0,-6.0,1.0,2.0,12.0,0.0
1701799503.2563717,-2.0,-1.0,3.0,1.0,1.0,0.0,-4.0,-3.0
1701799503.2563717,-3.0,-1.0,-2.0,-7.0,-2.0,-4.0,-1.0,-2.0
1701799503.2563717,-1.0,-1.0,-2.0,-1.0,-5.0,-4.0,-4.0,1.0
1701799503.2563717,-2.0,-2.0,-4.0,-6.0,-10.0,-8.0,-5.0,0.0
1701799503.2563717,-1.0,0.0,8.0,5.0,4.0,-3.0,-5.0,-5.0
1701799503.2563717,-1.0,-1.0,-7.0,-2.0,0.0,3.0,2.0,9.0
1701799503.2574885,-1.0,-1.0,3.0,-6.0,-2.0,-5.0,-14.0,-12.0
1701799503.2574885,-1.0,2.0,16.0,17.0,4.0,2.0,3.0,-1.0
1701799503.2574885,-3.0,-5.0,-20.0,-9.0,-4.0,6.0,-3.0,5.0
1701799503.2574885,-1.0,-3.0,-6.0,-6.0,-4.0,1.0,3.0,3.0
1701799503.269122,1.0,-1.0,7.0,7.0,11.0,1.0,-14.0,-8.0
1701799503.2793489,0.0,1.0,-2.0,2.0,5.0,5.0,16.0,10.0
1701799503.3174272,0.0,3.0,20.0,5.0,-2.0,-7.0,-3.0,-3.0
1701799503.3174272,-2.0,-4.0,-16.0,-10.0,-8.0,-8.0,-4.0,3.0
1701799503.3174272,-1.0,-1.0,-1.0,-1.0,-4.0,0.0,0.0,-8.0
1701799503.3174272,2.0,1.0,6.0,4.0,2.0,3.0,-2.0,-2.0
1701799503.3174272,-2.0,-2.0,-7.0,-3.0,0.0,0.0,-1.0,1.0
1701799503.3174272,1.0,-2.0,-4.0,-3.0,0.0,1.0,1.0,3.0
1701799503.3191063,-1.0,0.0,-4.0,-5.0,-5.0,-3.0,-4.0,-3.0
1701799503.3191063,-2.0,-2.0,-1.0,-2.0,-5.0,-2.0,-9.0,-7.0
1701799503.3191063,-2.0,-1.0,1.0,3.0,2.0,2.0,7.0,0.0
1701799503.3191063,1.0,-1.0,2.0,-1.0,-2.0,-3.0,-10.0,-13.0
1701799503.3683085,-1.0,2.0,7.0,11.0,1.0,1.0,9.0,12.0
1701799503.369308,-1.0,-4.0,-17.0,-12.0,-5.0,2.0,0.0,-1.0
1701799503.369308,1.0,1.0,-5.0,-5.0,0.0,0.0,-2.0,-2.0
1701799503.369308,1.0,-2.0,-12.0,-6.0,2.0,-3.0,1.0,4.0
1701799503.37148,2.0,3.0,17.0,7.0,-2.0,-1.0,-2.0,-7.0
1701799503.3725405,-2.0,-3.0,2.0,-12.0,-5.0,-2.0,-5.0,-4.0
1701799503.3725405,-2.0,-2.0,-11.0,0.0,0.0,-6.0,-7.0,-8.0
1701799503.3725405,-1.0,1.0,18.0,11.0,-1.0,0.0,4.0,22.0
1701799503.3825684,-4.0,-6.0,0.0,-1.0,-2.0,-3.0,-2.0,-7.0
1701799503.3825684,-3.0,-2.0,-18.0,-5.0,3.0,3.0,-7.0,-1.0
1701799503.3825684,-1.0,-3.0,-4.0,-2.0,-1.0,-3.0,-1.0,-6.0
1701799503.3825684,0.0,1.0,6.0,7.0,3.0,6.0,17.0,4.0
1701799503.425371,-1.0,1.0,5.0,2.0,0.0,2.0,-7.0,-4.0
1701799503.425371,-3.0,1.0,6.0,-1.0,-3.0,-5.0,-6.0,-12.0
1701799503.425371,1.0,-1.0,-8.0,-4.0,-1.0,1.0,10.0,3.0
1701799503.425371,-3.0,-2.0,4.0,4.0,-1.0,-3.0,-6.0,7.0
1701799503.425371,0.0,-4.0,-18.0,-8.0,0.0,1.0,5.0,2.0
1701799503.425371,-1.0,3.0,24.0,11.0,-1.0,-3.0,-9.0,-8.0
1701799503.425371,0.0,-3.0,-26.0,-15.0,-4.0,1.0,-1.0,0.0
1701799503.425371,-2.0,-5.0,-10.0,-7.0,-1.0,-3.0,0.0,-4.0
1701799503.4380243,0.0,0.0,20.0,11.0,3.0,1.0,1.0,-6.0
1701799503.4380243,0.0,-3.0,-19.0,-11.0,-7.0,-7.0,-4.0,2.0
1701799503.4380243,-2.0,-4.0,7.0,-4.0,-6.0,-5.0,-4.0,-2.0
1701799503.4380243,0.0,1.0,11.0,9.0,-3.0,-1.0,-4.0,-3.0
1701799503.4831846,-2.0,0.0,-5.0,-2.0,4.0,2.0,2.0,0.0
1701799503.4831846,-1.0,0.0,12.0,16.0,6.0,-1.0,4.0,1.0
1701799503.4831846,0.0,-2.0,14.0,-2.0,-6.0,0.0,-2.0,3.0
1701799503.4831846,-3.0,-1.0,-11.0,-2.0,4.0,-2.0,-26.0,-16.0
1701799503.4831846,2.0,1.0,-4.0,-9.0,-4.0,3.0,32.0,9.0
1701799503.4831846,0.0,-4.0,-16.0,-11.0,2.0,4.0,1.0,-6.0
1701799503.4831846,3.0,-2.0,-12.0,3.0,1.0,-1.0,13.0,19.0
1701799503.4831846,0.0,1.0,2.0,2.0,-3.0,-4.0,-4.0,-2.0
1701799503.4998586,-4.0,-1.0,8.0,-2.0,-1.0,-5.0,-12.0,-3.0
1701799503.4998586,1.0,2.0,9.0,1.0,-5.0,-7.0,-6.0,-4.0
1701799503.4998586,-4.0,-1.0,3.0,1.0,-3.0,-6.0,-10.0,-10.0
1701799503.4998586,-2.0,-4.0,-18.0,-6.0,-2.0,2.0,-2.0,-5.0
1701799503.557774,-3.0,-1.0,-9.0,0.0,1.0,3.0,-9.0,-3.0
1701799503.557774,1.0,-1.0,4.0,-2.0,-3.0,-1.0,4.0,4.0
1701799503.557774,-2.0,1.0,9.0,5.0,0.0,-9.0,-14.0,-5.0
1701799503.557774,-2.0,-2.0,-4.0,-3.0,1.0,-2.0,9.0,5.0
1701799503.566273,0.0,-2.0,2.0,0.0,-1.0,5.0,0.0,-6.0
1701799503.566273,-2.0,-2.0,-14.0,-1.0,2.0,6.0,0.0,3.0
1701799503.566273,2.0,5.0,8.0,-3.0,2.0,3.0,5.0,3.0
1701799503.566273,-1.0,-5.0,-16.0,-13.0,-7.0,-6.0,-6.0,-6.0
1701799503.613052,-1.0,0.0,-11.0,-5.0,-3.0,-8.0,-6.0,-2.0
1701799503.6140506,-2.0,-4.0,5.0,1.0,-5.0,0.0,-1.0,4.0
1701799503.6140506,-2.0,-1.0,13.0,16.0,3.0,2.0,-6.0,-3.0
1701799503.6140506,-1.0,0.0,1.0,-11.0,-1.0,0.0,12.0,3.0
1701799503.6140506,-1.0,1.0,-11.0,-10.0,-5.0,-3.0,-2.0,-7.0
1701799503.6140506,1.0,4.0,0.0,3.0,1.0,-1.0,8.0,11.0
1701799503.6140506,-1.0,-7.0,-9.0,-7.0,-1.0,1.0,-4.0,-4.0
1701799503.6140506,0.0,1.0,18.0,11.0,3.0,5.0,2.0,1.0
1701799503.6140506,0.0,-5.0,-6.0,3.0,1.0,2.0,-4.0,-3.0
1701799503.6140506,1.0,3.0,-28.0,-32.0,-4.0,-6.0,3.0,-6.0
1701799503.6140506,-6.0,-6.0,-16.0,1.0,-9.0,-9.0,-12.0,-9.0
1701799503.6140506,-1.0,-1.0,8.0,3.0,-1.0,2.0,6.0,-7.0
1701799503.6542728,1.0,-1.0,0.0,1.0,7.0,6.0,9.0,4.0
1701799503.6542728,-2.0,-1.0,21.0,12.0,3.0,3.0,7.0,17.0
1701799503.6542728,2.0,2.0,6.0,-3.0,2.0,-6.0,-5.0,-5.0
1701799503.6542728,-2.0,-3.0,-10.0,-10.0,-7.0,-2.0,-5.0,-3.0
1701799503.6542728,-3.0,-1.0,1.0,-1.0,-6.0,-3.0,-7.0,-5.0
1701799503.6552687,-1.0,-2.0,8.0,8.0,3.0,-4.0,-7.0,-5.0
1701799503.6552687,-2.0,-2.0,-1.0,-6.0,0.0,3.0,-1.0,-4.0
1701799503.6552687,-1.0,-1.0,-15.0,-9.0,-4.0,-7.0,2.0,10.0
1701799503.6563594,-2.0,-1.0,1.0,-1.0,-6.0,-5.0,-3.0,1.0
1701799503.6563594,-1.0,-1.0,7.0,2.0,-1.0,-4.0,-14.0,-9.0
1701799503.6563594,2.0,2.0,11.0,6.0,5.0,14.0,12.0,4.0
1701799503.6563594,-2.0,-1.0,6.0,5.0,1.0,-3.0,-3.0,-6.0
1701799503.7264588,-1.0,-3.0,-12.0,-4.0,2.0,9.0,12.0,6.0
1701799503.7264588,2.0,-2.0,2.0,1.0,-3.0,-5.0,-6.0,-3.0
1701799503.7289476,1.0,4.0,1.0,-2.0,-2.0,-5.0,-4.0,0.0
1701799503.7289476,-3.0,0.0,11.0,4.0,4.0,3.0,-3.0,1.0
1701799503.7289476,-1.0,-2.0,-4.0,-3.0,-4.0,-16.0,-19.0,-10.0
1701799503.7289476,0.0,-1.0,-7.0,-3.0,-1.0,11.0,13.0,4.0
1701799503.7289476,0.0,0.0,0.0,3.0,2.0,7.0,23.0,5.0
1701799503.7289476,1.0,0.0,-3.0,-2.0,1.0,0.0,4.0,1.0
1701799503.7299504,0.0,1.0,8.0,4.0,-2.0,-8.0,-9.0,-3.0
1701799503.7299504,0.0,0.0,6.0,6.0,-4.0,-4.0,-9.0,-8.0
1701799503.7299504,-3.0,-2.0,-14.0,-18.0,-4.0,-6.0,-10.0,0.0
1701799503.7299504,-1.0,-2.0,-10.0,0.0,-2.0,2.0,5.0,-2.0
1701799503.7681253,-2.0,-2.0,6.0,3.0,3.0,-2.0,-10.0,-14.0
1701799503.769128,-2.0,-2.0,-9.0,-6.0,-2.0,0.0,12.0,16.0
1701799503.769128,-1.0,-2.0,5.0,6.0,10.0,11.0,7.0,2.0
1701799503.769128,0.0,1.0,6.0,4.0,3.0,-6.0,-10.0,-3.0
1701799503.769128,0.0,-1.0,-9.0,-10.0,-8.0,-8.0,-10.0,-2.0
1701799503.769128,-4.0,1.0,12.0,6.0,-3.0,-5.0,-4.0,-11.0
1701799503.769128,0.0,-1.0,1.0,1.0,-1.0,4.0,16.0,7.0
1701799503.769128,-2.0,-3.0,-1.0,-2.0,-2.0,-3.0,-9.0,-2.0
1701799503.8135152,0.0,-2.0,-4.0,-2.0,-3.0,1.0,2.0,-2.0
1701799503.8135152,-1.0,-3.0,-4.0,-1.0,-2.0,-4.0,-8.0,-3.0
1701799503.8135152,-3.0,-2.0,-5.0,0.0,0.0,7.0,10.0,3.0
1701799503.8135152,1.0,1.0,-2.0,-3.0,2.0,0.0,5.0,2.0
1701799503.814565,-1.0,2.0,8.0,3.0,-2.0,-2.0,5.0,2.0
1701799503.814565,-2.0,-1.0,-7.0,-2.0,1.0,-2.0,-12.0,-9.0
1701799503.814565,-2.0,-2.0,5.0,5.0,-8.0,-13.0,-10.0,-2.0
1701799503.814565,0.0,-1.0,-1.0,-3.0,-3.0,4.0,9.0,-2.0
1701799503.8261938,0.0,-1.0,-10.0,-7.0,6.0,5.0,3.0,8.0
1701799503.8261938,-1.0,0.0,1.0,-4.0,-2.0,-1.0,-3.0,-5.0
1701799503.8261938,-2.0,0.0,0.0,-2.0,0.0,-4.0,-15.0,1.0
1701799503.8261938,0.0,0.0,8.0,6.0,-1.0,-2.0,0.0,-11.0
1701799503.87461,1.0,0.0,0.0,2.0,0.0,2.0,-5.0,10.0
1701799503.87461,0.0,-2.0,-8.0,-7.0,0.0,0.0,10.0,-2.0
1701799503.87461,-1.0,1.0,5.0,0.0,-5.0,-5.0,-13.0,-2.0
1701799503.87461,-2.0,-2.0,1.0,1.0,-6.0,0.0,-1.0,-4.0
1701799503.8788426,-1.0,-1.0,-20.0,-12.0,8.0,10.0,6.0,6.0
1701799503.8788426,-1.0,1.0,11.0,5.0,-1.0,-6.0,-12.0,-9.0
1701799503.8788426,-3.0,-1.0,-8.0,-6.0,-7.0,-9.0,-7.0,-7.0
1701799503.8788426,2.0,1.0,12.0,7.0,3.0,7.0,15.0,9.0
1701799503.8806193,-4.0,-4.0,-3.0,0.0,-3.0,-4.0,0.0,-4.0
1701799503.8806193,-3.0,-5.0,-12.0,-5.0,-1.0,-2.0,-3.0,3.0
1701799503.8806193,-2.0,0.0,0.0,-2.0,-4.0,-2.0,7.0,-6.0
1701799503.8806193,-1.0,-2.0,-4.0,-4.0,-1.0,-3.0,-21.0,-5.0
1701799503.935464,-4.0,-1.0,7.0,0.0,-6.0,-5.0,-11.0,1.0
1701799503.935464,-1.0,-1.0,2.0,5.0,8.0,9.0,18.0,0.0
1701799503.936501,-1.0,0.0,1.0,4.0,2.0,-4.0,-20.0,-14.0
1701799503.936501,1.0,-1.0,-5.0,-3.0,-4.0,-1.0,1.0,4.0
1701799503.942496,3.0,0.0,-6.0,-3.0,-2.0,5.0,20.0,12.0
1701799503.942496,-3.0,-1.0,0.0,-1.0,-3.0,-1.0,0.0,-4.0
1701799503.942496,-2.0,-3.0,-7.0,1.0,3.0,-2.0,-6.0,-1.0
1701799503.942496,-2.0,1.0,0.0,-4.0,-2.0,-5.0,1.0,-5.0
1701799503.9807198,-1.0,2.0,-3.0,-1.0,-5.0,-8.0,-7.0,-5.0
1701799503.9807198,-3.0,-3.0,0.0,0.0,-3.0,0.0,-5.0,1.0
1701799503.9807198,1.0,0.0,-5.0,-2.0,7.0,4.0,14.0,3.0
1701799503.9807198,-3.0,-3.0,-3.0,-3.0,0.0,-6.0,-18.0,-3.0
1701799503.9807198,-1.0,-1.0,4.0,4.0,0.0,0.0,9.0,-2.0
1701799503.9807198,2.0,-2.0,-2.0,-4.0,-3.0,0.0,-4.0,4.0
1701799503.9807198,-2.0,0.0,2.0,0.0,-4.0,-8.0,-15.0,-10.0
1701799503.9807198,2.0,3.0,5.0,3.0,1.0,6.0,22.0,11.0
1701799503.9817765,-2.0,-3.0,-1.0,-5.0,-1.0,2.0,-1.0,-7.0
1701799503.9817765,-2.0,0.0,0.0,-2.0,-2.0,-5.0,-9.0,-4.0
1701799503.9817765,-1.0,-2.0,-8.0,-6.0,-5.0,-3.0,-12.0,-7.0
1701799503.9817765,-1.0,-2.0,9.0,6.0,3.0,-2.0,6.0,13.0
1701799504.0071921,2.0,-4.0,-19.0,-9.0,2.0,3.0,10.0,0.0
1701799504.0071921,1.0,0.0,-2.0,0.0,-2.0,-2.0,-11.0,-7.0
1701799504.0075798,-1.0,-1.0,1.0,-5.0,-4.0,-1.0,2.0,3.0
1701799504.0075798,-2.0,1.0,4.0,1.0,0.0,1.0,-5.0,-3.0
1701799504.0579865,-1.0,0.0,12.0,8.0,2.0,2.0,12.0,3.0
1701799504.0579865,-3.0,-6.0,-16.0,-12.0,-4.0,-3.0,-5.0,-9.0
1701799504.0579865,3.0,2.0,8.0,13.0,2.0,3.0,10.0,14.0
1701799504.0579865,-2.0,-3.0,-17.0,-12.0,-3.0,-7.0,-8.0,-5.0
1701799504.0579865,-3.0,-2.0,3.0,0.0,-5.0,-7.0,-15.0,-7.0
1701799504.0579865,-1.0,1.0,-3.0,-3.0,-3.0,-1.0,-9.0,-4.0
1701799504.0579865,-2.0,1.0,-2.0,-1.0,5.0,9.0,20.0,7.0
1701799504.0579865,-4.0,-7.0,-12.0,-5.0,-2.0,-6.0,-14.0,-13.0
1701799504.1135368,0.0,2.0,3.0,3.0,1.0,1.0,-13.0,-3.0
1701799504.1135368,1.0,-2.0,17.0,14.0,3.0,4.0,18.0,3.0
1701799504.1135368,-2.0,-4.0,-22.0,-13.0,-4.0,-1.0,-2.0,14.0
1701799504.1135368,0.0,0.0,-25.0,-17.0,-2.0,2.0,-2.0,12.0
1701799504.1135368,-4.0,-4.0,0.0,-4.0,-8.0,-8.0,-2.0,-10.0
1701799504.1135368,1.0,3.0,14.0,0.0,3.0,-1.0,-13.0,-1.0
1701799504.1135368,-1.0,-2.0,2.0,5.0,0.0,0.0,-6.0,-9.0
1701799504.1135368,-2.0,-1.0,0.0,6.0,2.0,-1.0,12.0,-2.0
1701799504.1135368,-1.0,0.0,-2.0,-2.0,-2.0,-2.0,-8.0,3.0
1701799504.1135368,0.0,0.0,0.0,4.0,-1.0,2.0,4.0,4.0
1701799504.1135368,-1.0,1.0,13.0,4.0,-2.0,-2.0,1.0,-5.0
1701799504.1135368,-1.0,0.0,-17.0,-10.0,-1.0,-2.0,-11.0,-11.0
1701799504.1749096,1.0,-1.0,15.0,9.0,-2.0,-5.0,-3.0,-5.0
1701799504.1759748,1.0,0.0,-11.0,-13.0,-2.0,-2.0,2.0,17.0
1701799504.1759748,-3.0,-8.0,-26.0,-11.0,-2.0,-1.0,0.0,-3.0
1701799504.1759748,0.0,-1.0,10.0,0.0,4.0,9.0,1.0,-1.0
1701799504.1759748,1.0,0.0,0.0,-1.0,1.0,1.0,-3.0,-1.0
1701799504.1759748,-3.0,1.0,5.0,6.0,0.0,-3.0,7.0,-1.0
1701799504.1759748,-1.0,-3.0,-2.0,3.0,-5.0,-6.0,-16.0,-15.0
1701799504.1759748,0.0,-2.0,-2.0,-1.0,-7.0,-5.0,1.0,9.0
1701799504.1798775,0.0,1.0,5.0,1.0,3.0,7.0,9.0,1.0
1701799504.1798775,-1.0,0.0,-5.0,-4.0,-2.0,-3.0,-7.0,1.0
1701799504.1798775,0.0,2.0,25.0,15.0,3.0,0.0,-2.0,-4.0
1701799504.1798775,-4.0,-3.0,-13.0,-6.0,-3.0,-5.0,-10.0,-9.0
1701799504.2235496,-3.0,-3.0,-16.0,-10.0,-3.0,-3.0,0.0,-2.0
1701799504.2235496,2.0,-3.0,-5.0,-2.0,2.0,6.0,2.0,1.0
1701799504.2235496,0.0,-1.0,-3.0,-5.0,2.0,0.0,5.0,1.0
1701799504.2246275,0.0,0.0,3.0,2.0,-1.0,2.0,4.0,-1.0
1701799504.2246275,0.0,2.0,4.0,1.0,-2.0,-4.0,-3.0,1.0
1701799504.2246275,-3.0,-3.0,-6.0,2.0,-2.0,-4.0,-3.0,-5.0
1701799504.2250829,-1.0,2.0,19.0,5.0,3.0,3.0,-7.0,-1.0
1701799504.2250829,0.0,-3.0,-14.0,1.0,0.0,5.0,10.0,8.0
1701799504.2250829,-1.0,-2.0,1.0,-6.0,-1.0,-1.0,9.0,2.0
1701799504.2250829,-1.0,-2.0,-3.0,-12.0,-7.0,-3.0,-3.0,-3.0
1701799504.2637184,0.0,-2.0,-12.0,6.0,-8.0,13.0,9.0,-1.0
1701799504.2637184,-5.0,-4.0,2.0,12.0,-3.0,0.0,-21.0,-5.0
1701799504.2637184,-3.0,1.0,-10.0,1.0,3.0,-8.0,-8.0,-1.0
1701799504.2637184,-1.0,4.0,20.0,5.0,5.0,-10.0,1.0,2.0
1701799504.2637184,0.0,-5.0,-27.0,-35.0,-2.0,-18.0,-2.0,-1.0
1701799504.2637184,-2.0,-3.0,-19.0,-14.0,-1.0,-6.0,-2.0,-6.0
1701799504.2647204,-1.0,-3.0,8.0,10.0,1.0,4.0,5.0,-2.0
1701799504.2647204,0.0,-2.0,12.0,0.0,1.0,-2.0,1.0,-2.0
1701799504.2647204,0.0,4.0,21.0,10.0,-3.0,-3.0,-4.0,-4.0
1701799504.2647204,-1.0,-2.0,0.0,-2.0,-6.0,-6.0,-15.0,-8.0
1701799504.281537,-2.0,0.0,-7.0,-12.0,-7.0,1.0,11.0,6.0
1701799504.281537,-3.0,-3.0,3.0,10.0,-1.0,6.0,4.0,-13.0
1701799504.281537,0.0,-2.0,-13.0,-2.0,8.0,12.0,7.0,15.0
1701799504.281537,0.0,-1.0,8.0,4.0,2.0,2.0,8.0,1.0
1701799504.3363655,0.0,0.0,3.0,0.0,-2.0,-7.0,-16.0,-3.0
1701799504.3363655,-1.0,1.0,0.0,-6.0,-9.0,0.0,1.0,-1.0
1701799504.3363655,-2.0,2.0,17.0,12.0,-2.0,-3.0,0.0,-1.0
1701799504.3363655,-3.0,-2.0,-20.0,-27.0,-4.0,-4.0,-3.0,-3.0
1701799504.3391807,-1.0,-4.0,4.0,13.0,4.0,3.0,-7.0,-2.0
1701799504.3391807,-1.0,-2.0,-13.0,-4.0,-2.0,3.0,10.0,6.0
1701799504.3391807,-3.0,-1.0,2.0,0.0,-2.0,-3.0,-2.0,-3.0
1701799504.340238,1.0,5.0,23.0,9.0,1.0,-4.0,-1.0,0.0
1701799504.340238,-1.0,2.0,11.0,6.0,-2.0,-2.0,-7.0,-4.0
1701799504.340238,-1.0,-4.0,-17.0,0.0,-1.0,-1.0,-3.0,0.0
1701799504.340238,-3.0,-5.0,-4.0,-9.0,-6.0,-1.0,8.0,2.0
1701799504.340238,1.0,0.0,6.0,7.0,4.0,3.0,3.0,1.0
1701799504.3875823,-3.0,-2.0,-6.0,-7.0,-1.0,2.0,-1.0,-6.0
1701799504.3875823,-3.0,0.0,11.0,12.0,3.0,-3.0,-8.0,4.0
1701799504.3875823,2.0,3.0,3.0,-4.0,-2.0,-1.0,-5.0,-4.0
1701799504.3875823,-2.0,-4.0,-8.0,-8.0,-8.0,-4.0,0.0,-2.0
1701799504.3886282,3.0,-1.0,-13.0,-21.0,0.0,1.0,-1.0,4.0
1701799504.3886282,-2.0,-1.0,3.0,10.0,1.0,3.0,-2.0,-2.0
1701799504.3886282,1.0,1.0,13.0,11.0,1.0,-3.0,0.0,-2.0
1701799504.3886282,-2.0,-1.0,-2.0,-3.0,2.0,2.0,-5.0,-9.0
1701799504.4026864,1.0,-2.0,-7.0,3.0,0.0,0.0,3.0,6.0
1701799504.4026864,-1.0,1.0,3.0,-13.0,-5.0,-1.0,1.0,-2.0
1701799504.406058,-1.0,-1.0,-13.0,-7.0,1.0,-1.0,-2.0,1.0
1701799504.406058,2.0,-1.0,18.0,10.0,-1.0,-4.0,-2.0,-4.0
1701799504.4447026,-3.0,-3.0,-5.0,3.0,-3.0,-1.0,-3.0,-5.0
1701799504.4447026,-1.0,-5.0,-11.0,-6.0,-1.0,4.0,5.0,1.0
1701799504.4447026,-1.0,1.0,-14.0,-8.0,-2.0,-7.0,-9.0,-7.0
1701799504.4447026,-1.0,4.0,17.0,6.0,2.0,0.0,-5.0,-1.0
1701799504.4457617,-3.0,-2.0,-8.0,-5.0,-3.0,-2.0,-10.0,-4.0
1701799504.4457617,3.0,-2.0,-8.0,5.0,4.0,4.0,21.0,11.0
1701799504.4457617,-2.0,-2.0,7.0,16.0,1.0,-3.0,-14.0,-6.0
1701799504.4457617,1.0,1.0,-7.0,-24.0,-3.0,1.0,3.0,1.0
1701799504.491264,0.0,-2.0,1.0,-2.0,-1.0,0.0,-5.0,-3.0
1701799504.491264,-1.0,4.0,10.0,3.0,-3.0,-5.0,-12.0,-7.0
1701799504.491264,0.0,-3.0,-14.0,-11.0,-2.0,-3.0,-1.0,2.0
1701799504.491264,0.0,-1.0,9.0,21.0,-1.0,-3.0,-3.0,2.0
1701799504.4952538,-2.0,2.0,4.0,-4.0,2.0,3.0,7.0,1.0
1701799504.4952538,-1.0,0.0,-7.0,-1.0,-2.0,0.0,-2.0,-3.0
1701799504.4952538,-1.0,-4.0,9.0,-7.0,-4.0,0.0,2.0,1.0
1701799504.4952538,-2.0,0.0,-27.0,6.0,5.0,2.0,2.0,0.0
1701799504.5080173,0.0,0.0,18.0,1.0,3.0,2.0,6.0,0.0
1701799504.5080173,-1.0,1.0,-12.0,-15.0,-2.0,-1.0,-4.0,-2.0
1701799504.5080173,-3.0,-2.0,3.0,0.0,-5.0,-5.0,-2.0,1.0
1701799504.5080173,0.0,2.0,9.0,2.0,-3.0,-2.0,1.0,3.0
1701799504.548229,-2.0,2.0,0.0,6.0,1.0,-3.0,-8.0,-3.0
1701799504.548229,-5.0,-3.0,-5.0,-9.0,-4.0,-4.0,2.0,-5.0
1701799504.549285,2.0,-2.0,-4.0,-3.0,4.0,15.0,18.0,4.0
1701799504.549285,7.0,-1.0,3.0,1.0,1.0,-4.0,-6.0,-1.0
1701799504.5543606,-17.0,-2.0,-13.0,4.0,-3.0,-5.0,-12.0,-7.0
1701799504.5543606,3.0,-1.0,6.0,5.0,-5.0,-1.0,8.0,2.0
1701799504.5543606,-1.0,-1.0,2.0,-10.0,2.0,0.0,1.0,0.0
1701799504.5553613,-3.0,-4.0,-6.0,-5.0,-5.0,0.0,7.0,0.0
1701799504.5687957,5.0,-1.0,2.0,2.0,1.0,-2.0,-7.0,-3.0
1701799504.5687957,-1.0,1.0,-4.0,-3.0,0.0,-5.0,-14.0,-4.0
1701799504.5687957,-2.0,4.0,-3.0,-5.0,-6.0,-5.0,-4.0,-2.0
1701799504.5687957,-1.0,-1.0,9.0,16.0,4.0,4.0,1.0,0.0
1701799504.610952,-2.0,0.0,3.0,0.0,-1.0,0.0,5.0,-3.0
1701799504.610952,-1.0,-3.0,5.0,2.0,-1.0,-4.0,-4.0,0.0
1701799504.610952,0.0,0.0,-7.0,-3.0,5.0,0.0,2.0,1.0
1701799504.610952,-3.0,-2.0,-1.0,0.0,-3.0,-2.0,-5.0,-4.0
1701799504.610952,1.0,1.0,-1.0,-3.0,-5.0,-1.0,6.0,0.0
1701799504.610952,3.0,2.0,4.0,11.0,11.0,4.0,-2.0,0.0
1701799504.610952,-2.0,-4.0,-2.0,-4.0,-5.0,-3.0,-8.0,-16.0
1701799504.610952,-4.0,-2.0,-17.0,-14.0,-1.0,0.0,4.0,11.0
1701799504.657888,2.0,0.0,17.0,12.0,1.0,0.0,2.0,1.0
1701799504.657888,-3.0,-2.0,-13.0,-12.0,-2.0,-5.0,-3.0,-1.0
1701799504.657888,-1.0,1.0,-4.0,12.0,3.0,-2.0,-2.0,0.0
1701799504.657888,-3.0,2.0,14.0,5.0,2.0,-3.0,-5.0,-11.0
1701799504.6680481,1.0,-6.0,-14.0,-21.0,-6.0,2.0,-3.0,3.0
1701799504.6680481,0.0,1.0,3.0,-1.0,-2.0,4.0,6.0,6.0
1701799504.6680481,-2.0,-3.0,2.0,7.0,-1.0,2.0,14.0,6.0
1701799504.6680481,0.0,1.0,2.0,4.0,7.0,2.0,2.0,-1.0
1701799504.6680481,0.0,0.0,10.0,3.0,-1.0,-2.0,0.0,0.0
1701799504.6680481,-3.0,-4.0,-8.0,-7.0,-1.0,-6.0,-14.0,-8.0
1701799504.6680481,-2.0,-1.0,-8.0,-11.0,-4.0,-4.0,-5.0,-1.0
1701799504.6680481,-2.0,-3.0,-5.0,-2.0,-6.0,-4.0,-3.0,0.0
1701799504.6831932,1.0,0.0,-5.0,0.0,-2.0,-2.0,0.0,-2.0
1701799504.6831932,-2.0,-5.0,-4.0,-3.0,-5.0,-2.0,1.0,-2.0
1701799504.6960504,2.0,-1.0,9.0,6.0,-3.0,-2.0,-3.0,1.0
1701799504.6960504,0.0,4.0,-5.0,-8.0,-5.0,-3.0,-2.0,-3.0
1701799504.7299223,-2.0,-5.0,-15.0,0.0,1.0,1.0,4.0,-1.0
1701799504.7299223,-2.0,0.0,6.0,16.0,0.0,0.0,-3.0,-3.0
1701799504.7299223,-3.0,-3.0,-11.0,-18.0,-4.0,-4.0,-9.0,-1.0
1701799504.7299223,-1.0,-1.0,8.0,-1.0,-3.0,-2.0,-19.0,-17.0
1701799504.7309718,-1.0,2.0,9.0,-1.0,-3.0,-2.0,26.0,14.0
1701799504.7309718,-2.0,-5.0,-15.0,-3.0,2.0,7.0,14.0,2.0
1701799504.7309718,-1.0,1.0,3.0,-1.0,1.0,-2.0,0.0,0.0
1701799504.7309718,-1.0,-6.0,-24.0,-11.0,-5.0,-6.0,-8.0,-5.0
1701799504.7698867,1.0,-3.0,-2.0,-1.0,-2.0,-5.0,-16.0,-5.0
1701799504.7698867,-1.0,-1.0,2.0,2.0,-1.0,-2.0,-6.0,-1.0
1701799504.7698867,-1.0,0.0,1.0,3.0,0.0,1.0,2.0,-1.0
1701799504.7698867,-1.0,0.0,8.0,4.0,-1.0,1.0,-1.0,3.0
1701799504.7698867,0.0,1.0,-4.0,-6.0,1.0,-1.0,-7.0,-4.0
1701799504.7698867,-3.0,-2.0,5.0,4.0,-4.0,-5.0,-3.0,0.0
1701799504.7698867,2.0,1.0,3.0,7.0,2.0,2.0,-4.0,-1.0
1701799504.7698867,-2.0,-5.0,-14.0,-5.0,-4.0,0.0,5.0,2.0
1701799504.7828555,-3.0,-1.0,-7.0,-14.0,-7.0,-3.0,-1.0,0.0
1701799504.7828555,4.0,2.0,-6.0,4.0,10.0,5.0,0.0,1.0
1701799504.7828555,-1.0,0.0,-2.0,0.0,3.0,-2.0,-5.0,-2.0
1701799504.7828555,-3.0,-2.0,9.0,-2.0,-3.0,-2.0,4.0,3.0
1701799504.8485956,-1.0,-4.0,-8.0,13.0,1.0,-2.0,4.0,-1.0
1701799504.8485956,-1.0,0.0,0.0,-3.0,5.0,-3.0,-7.0,-3.0
1701799504.8485956,-2.0,-4.0,-11.0,-3.0,-3.0,-3.0,-8.0,-12.0
1701799504.8485956,1.0,3.0,7.0,4.0,2.0,1.0,5.0,17.0
1701799504.8485956,1.0,0.0,-4.0,-2.0,3.0,5.0,10.0,3.0
1701799504.8485956,-5.0,-1.0,0.0,-3.0,-4.0,-3.0,-1.0,-1.0
1701799504.8485956,2.0,1.0,9.0,-1.0,0.0,5.0,7.0,3.0
1701799504.8485956,-3.0,1.0,0.0,-2.0,-1.0,-4.0,1.0,-8.0
1701799504.8839111,4.0,2.0,8.0,5.0,-2.0,-2.0,3.0,4.0
1701799504.8839111,2.0,-3.0,-20.0,-19.0,-5.0,-2.0,-5.0,1.0
1701799504.8839111,1.0,2.0,4.0,3.0,-2.0,-4.0,-8.0,-3.0
1701799504.8839111,-5.0,-3.0,9.0,-2.0,-6.0,-7.0,-20.0,-17.0
1701799504.8839111,-2.0,0.0,8.0,7.0,4.0,11.0,18.0,12.0
1701799504.8839111,-2.0,-3.0,-14.0,-16.0,-1.0,1.0,-5.0,-3.0
1701799504.8839111,-3.0,-2.0,8.0,7.0,1.0,-2.0,4.0,-1.0
1701799504.8849106,2.0,-2.0,-11.0,-3.0,-4.0,1.0,10.0,7.0
1701799504.8849106,1.0,1.0,7.0,3.0,4.0,-1.0,-4.0,-6.0
1701799504.8849106,-1.0,1.0,11.0,8.0,1.0,2.0,3.0,-1.0
1701799504.8849106,-4.0,-1.0,-4.0,-1.0,-6.0,-4.0,-9.0,-1.0
1701799504.8849106,-1.0,-3.0,-5.0,-8.0,2.0,-2.0,-7.0,-2.0
1701799504.9541519,-3.0,-3.0,-7.0,-2.0,-5.0,-8.0,-8.0,-7.0
1701799504.9541519,2.0,3.0,21.0,6.0,-5.0,-2.0,-5.0,1.0
1701799504.9541519,-5.0,-5.0,-37.0,-14.0,-4.0,-4.0,-8.0,-2.0
1701799504.9541519,0.0,-1.0,11.0,15.0,3.0,4.0,9.0,3.0
1701799504.9541519,-1.0,-2.0,-10.0,-11.0,-3.0,-1.0,-5.0,-4.0
1701799504.9541519,0.0,0.0,14.0,8.0,-1.0,0.0,0.0,-4.0
1701799504.9552076,2.0,1.0,13.0,2.0,2.0,1.0,5.0,5.0
1701799504.9552076,-1.0,-3.0,-13.0,-5.0,-1.0,1.0,2.0,-9.0
1701799504.96261,-1.0,-3.0,-1.0,3.0,-1.0,-3.0,-6.0,4.0
1701799504.96261,-3.0,-1.0,0.0,0.0,-3.0,-6.0,-7.0,-3.0
1701799504.96261,0.0,0.0,-8.0,-6.0,-1.0,2.0,5.0,2.0
1701799504.96261,0.0,-3.0,-9.0,-9.0,-2.0,-2.0,-3.0,-2.0
1701799505.0007575,-1.0,2.0,2.0,-1.0,1.0,1.0,5.0,0.0
1701799505.0007575,-1.0,-2.0,-11.0,-4.0,-2.0,1.0,8.0,1.0
1701799505.0007575,1.0,4.0,32.0,15.0,3.0,-1.0,1.0,0.0
1701799505.0007575,-2.0,-6.0,-51.0,-13.0,-2.0,-1.0,-4.0,1.0
1701799505.003443,-4.0,-4.0,-13.0,-17.0,-4.0,-6.0,-11.0,-7.0
1701799505.003443,-2.0,-1.0,0.0,17.0,0.0,-2.0,2.0,-1.0
1701799505.003443,-1.0,-1.0,26.0,-5.0,-2.0,-1.0,0.0,0.0
1701799505.003443,-1.0,1.0,12.0,1.0,0.0,-1.0,0.0,3.0
1701799505.003443,-2.0,-2.0,-18.0,-2.0,1.0,-2.0,-5.0,-1.0
1701799505.003443,-2.0,-1.0,0.0,-9.0,-2.0,0.0,1.0,-13.0
1701799505.0440052,-1.0,-2.0,6.0,2.0,-4.0,0.0,6.0,14.0
1701799505.0440052,0.0,-1.0,-15.0,-1.0,-2.0,-2.0,1.0,1.0
1701799505.0506465,-2.0,-2.0,1.0,0.0,-2.0,-3.0,-10.0,-6.0
1701799505.0506465,1.0,-1.0,6.0,4.0,-1.0,-2.0,-1.0,-3.0
1701799505.0506465,0.0,-2.0,-8.0,-4.0,-2.0,5.0,18.0,1.0
1701799505.0506465,0.0,3.0,19.0,2.0,3.0,2.0,6.0,3.0
1701799505.0506465,0.0,0.0,3.0,6.0,0.0,-1.0,-4.0,-5.0
1701799505.0506465,-3.0,1.0,-6.0,-5.0,-1.0,-1.0,-5.0,-3.0
1701799505.0506465,0.0,-3.0,-14.0,-2.0,-1.0,-4.0,-12.0,-8.0
1701799505.0506465,-2.0,1.0,6.0,-3.0,-3.0,-5.0,-8.0,0.0
1701799505.062488,-2.0,0.0,22.0,10.0,0.0,-2.0,10.0,4.0
1701799505.0647957,0.0,-6.0,-18.0,-7.0,0.0,3.0,1.0,3.0
1701799505.1129618,-2.0,1.0,-7.0,2.0,0.0,-2.0,0.0,-2.0
1701799505.1129618,-1.0,0.0,17.0,17.0,2.0,0.0,1.0,-3.0
1701799505.1129618,1.0,3.0,13.0,-11.0,-4.0,-3.0,-13.0,-9.0
1701799505.1129618,0.0,4.0,17.0,7.0,1.0,-2.0,1.0,-2.0
1701799505.1129618,-1.0,5.0,0.0,1.0,2.0,-1.0,-9.0,8.0
1701799505.1129618,-3.0,-12.0,-18.0,-12.0,-6.0,-5.0,-6.0,-9.0
1701799505.113945,-4.0,-8.0,-11.0,-5.0,-7.0,-1.0,5.0,1.0
1701799505.113945,1.0,-1.0,-21.0,-11.0,-1.0,-1.0,3.0,3.0
1701799505.113945,0.0,1.0,-6.0,-7.0,0.0,-2.0,-10.0,-5.0
1701799505.113945,2.0,4.0,29.0,16.0,7.0,4.0,10.0,2.0
1701799505.118795,-1.0,-4.0,-6.0,2.0,0.0,0.0,-4.0,0.0
1701799505.118795,0.0,-1.0,2.0,-5.0,-4.0,3.0,13.0,-8.0
1701799505.178858,-3.0,5.0,-7.0,-3.0,-4.0,-5.0,-1.0,-3.0
1701799505.178858,2.0,-4.0,-14.0,-12.0,-5.0,0.0,-4.0,5.0
1701799505.178858,0.0,3.0,11.0,7.0,3.0,0.0,1.0,-6.0
1701799505.178858,0.0,4.0,34.0,12.0,1.0,-4.0,-6.0,4.0
1701799505.178858,-3.0,-9.0,-22.0,-5.0,-1.0,-2.0,-2.0,-6.0
1701799505.178858,-3.0,0.0,-1.0,-1.0,-3.0,0.0,3.0,2.0
1701799505.178858,3.0,5.0,-8.0,2.0,4.0,6.0,1.0,0.0
1701799505.178858,-6.0,-3.0,2.0,5.0,1.0,-14.0,-18.0,-11.0
1701799505.178858,-5.0,-11.0,-42.0,-19.0,-8.0,-8.0,-3.0,2.0
1701799505.178858,1.0,12.0,10.0,5.0,-2.0,3.0,6.0,1.0
1701799505.178858,3.0,-11.0,11.0,6.0,3.0,11.0,-2.0,2.0
1701799505.178858,2.0,23.0,2.0,1.0,-1.0,1.0,4.0,14.0
1701799505.2252827,-1.0,-25.0,-4.0,-2.0,-2.0,-2.0,0.0,-2.0
1701799505.2252827,-8.0,-23.0,8.0,2.0,0.0,-4.0,-9.0,-13.0
1701799505.2252827,-6.0,1.0,-14.0,-18.0,-9.0,-10.0,-11.0,1.0
1701799505.2252827,-5.0,-13.0,-36.0,-8.0,-10.0,-7.0,-16.0,-8.0
1701799505.2252827,2.0,14.0,-2.0,3.0,5.0,10.0,10.0,7.0
1701799505.2252827,0.0,7.0,3.0,2.0,2.0,-1.0,6.0,3.0
1701799505.2262948,-3.0,0.0,2.0,-5.0,-2.0,-6.0,-1.0,0.0
1701799505.2262948,0.0,1.0,15.0,-11.0,-2.0,3.0,4.0,0.0
1701799505.2262948,-3.0,2.0,-13.0,-7.0,-6.0,-10.0,-8.0,-4.0
1701799505.2262948,0.0,-3.0,11.0,10.0,7.0,2.0,-2.0,-4.0
1701799505.270133,-1.0,2.0,-12.0,-1.0,-4.0,-2.0,1.0,-1.0
1701799505.270133,2.0,-2.0,5.0,-2.0,3.0,1.0,2.0,1.0
1701799505.270133,-3.0,7.0,19.0,7.0,2.0,4.0,3.0,-7.0
1701799505.270133,8.0,8.0,-27.0,-19.0,-10.0,-2.0,1.0,11.0
1701799505.270133,1.0,-19.0,11.0,8.0,11.0,-4.0,-3.0,-7.0
1701799505.270133,-10.0,-23.0,-35.0,-13.0,-10.0,-3.0,-3.0,-3.0
1701799505.270133,-2.0,-11.0,37.0,24.0,9.0,2.0,-3.0,-9.0
1701799505.270133,-10.0,10.0,2.0,-1.0,-8.0,-7.0,-23.0,0.0
1701799505.2848446,3.0,13.0,-30.0,-8.0,3.0,10.0,39.0,4.0
1701799505.2848446,0.0,-1.0,5.0,-11.0,-3.0,5.0,5.0,7.0
1701799505.2848446,1.0,10.0,9.0,2.0,3.0,4.0,3.0,4.0
1701799505.2848446,-1.0,-2.0,-5.0,-16.0,-16.0,-9.0,-8.0,-3.0
1701799505.3363352,-4.0,-7.0,11.0,19.0,-2.0,-12.0,-21.0,-12.0
1701799505.3363352,0.0,-3.0,-6.0,-1.0,10.0,0.0,-2.0,-1.0
1701799505.3363352,2.0,3.0,7.0,-6.0,-1.0,3.0,2.0,-3.0
1701799505.3363352,-3.0,-6.0,4.0,-7.0,-5.0,-3.0,1.0,-6.0
1701799505.3363352,-1.0,2.0,9.0,7.0,-2.0,3.0,-3.0,-3.0
1701799505.3363352,2.0,-2.0,4.0,17.0,9.0,1.0,5.0,4.0
1701799505.3363352,-1.0,2.0,0.0,10.0,2.0,-5.0,-9.0,-6.0
1701799505.3363352,0.0,-8.0,-12.0,-22.0,-5.0,-1.0,3.0,1.0
1701799505.3488998,-1.0,14.0,9.0,-8.0,-10.0,-1.0,0.0,4.0
1701799505.3488998,0.0,-5.0,-7.0,-1.0,-9.0,-3.0,-13.0,-12.0
1701799505.35093,1.0,-10.0,13.0,4.0,2.0,-1.0,4.0,6.0
1701799505.35093,-2.0,-7.0,-13.0,-1.0,1.0,1.0,11.0,8.0
1701799505.3888607,0.0,5.0,11.0,0.0,1.0,-3.0,-37.0,-11.0
1701799505.3888607,-1.0,2.0,-9.0,-4.0,-3.0,-3.0,10.0,19.0
1701799505.3888607,2.0,0.0,-6.0,-10.0,-7.0,6.0,25.0,22.0
1701799505.3888607,-2.0,2.0,3.0,12.0,8.0,-3.0,2.0,0.0
1701799505.395659,-2.0,-10.0,-5.0,-11.0,-4.0,-2.0,5.0,-8.0
1701799505.395659,-3.0,0.0,4.0,-3.0,-5.0,-4.0,-13.0,-1.0
1701799505.395659,-1.0,20.0,-7.0,0.0,-3.0,-4.0,-3.0,-10.0
1701799505.395659,4.0,-4.0,2.0,4.0,5.0,-8.0,-27.0,1.0
1701799505.406778,-1.0,-13.0,-10.0,-2.0,2.0,12.0,17.0,4.0
1701799505.406778,-4.0,19.0,5.0,1.0,4.0,17.0,67.0,5.0
1701799505.406778,-1.0,-24.0,-19.0,-14.0,-4.0,-4.0,4.0,-4.0
1701799505.406778,3.0,19.0,16.0,11.0,5.0,0.0,-11.0,-15.0
1701799505.448285,-2.0,-8.0,-4.0,-8.0,-6.0,-13.0,-24.0,-6.0
1701799505.448285,0.0,10.0,26.0,14.0,-1.0,-5.0,-17.0,-4.0
1701799505.448285,-4.0,-8.0,-52.0,-39.0,-29.0,-3.0,-2.0,-1.0
1701799505.4493365,1.0,3.0,11.0,35.0,25.0,9.0,5.0,-2.0
1701799505.4513383,-3.0,9.0,5.0,-3.0,-13.0,-8.0,2.0,10.0
1701799505.4513383,-1.0,-1.0,19.0,8.0,-6.0,-4.0,-5.0,-2.0
1701799505.4523237,0.0,8.0,44.0,3.0,-13.0,-4.0,-13.0,-6.0
1701799505.4523237,-3.0,-16.0,-68.0,-53.0,-4.0,0.0,2.0,2.0
1701799505.4862576,-6.0,1.0,-9.0,-11.0,-2.0,3.0,12.0,-1.0
1701799505.487676,6.0,4.0,-25.0,24.0,36.0,9.0,-5.0,-2.0
1701799505.5030448,-4.0,-16.0,47.0,26.0,3.0,-6.0,-16.0,-9.0
1701799505.5030448,-2.0,-3.0,11.0,50.0,-27.0,-4.0,9.0,3.0
1701799505.5094435,-7.0,1.0,-3.0,-99.0,-84.0,-18.0,-6.0,-10.0
1701799505.5094435,-1.0,-37.0,-55.0,63.0,89.0,20.0,-2.0,7.0
1701799505.5094435,0.0,6.0,-19.0,1.0,-3.0,2.0,-3.0,1.0
1701799505.5094435,3.0,18.0,34.0,29.0,37.0,20.0,19.0,10.0
1701799505.5094435,-7.0,-29.0,-15.0,-4.0,-31.0,-16.0,-11.0,-15.0
1701799505.5094435,3.0,47.0,4.0,-31.0,-39.0,-12.0,-11.0,1.0
1701799505.5094435,-7.0,-45.0,-14.0,-32.0,-1.0,-3.0,-1.0,-3.0
1701799505.5094435,19.0,15.0,65.0,6.0,-7.0,-4.0,-2.0,-3.0
1701799505.529942,-16.0,1.0,-15.0,19.0,18.0,4.0,-4.0,-14.0
1701799505.529942,5.0,27.0,41.0,-5.0,-23.0,-1.0,-2.0,32.0
1701799505.5309396,1.0,-4.0,18.0,18.0,21.0,8.0,8.0,3.0
1701799505.5309396,-11.0,-11.0,-46.0,-44.0,-24.0,-13.0,-6.0,-10.0
1701799505.581427,6.0,8.0,-5.0,-3.0,24.0,11.0,10.0,10.0
1701799505.581427,-1.0,-22.0,12.0,41.0,13.0,1.0,-8.0,-7.0
1701799505.581427,4.0,28.0,-41.0,-13.0,3.0,-2.0,-6.0,-5.0
1701799505.581427,-5.0,-17.0,-14.0,-10.0,-7.0,-14.0,-34.0,1.0
1701799505.581427,1.0,0.0,6.0,15.0,22.0,3.0,-9.0,-22.0
1701799505.581427,-9.0,-1.0,-5.0,-32.0,-18.0,7.0,60.0,-8.0
1701799505.581427,0.0,4.0,10.0,10.0,-6.0,2.0,15.0,0.0
1701799505.581427,-1.0,0.0,14.0,7.0,2.0,13.0,15.0,-10.0
1701799505.607263,9.0,2.0,-9.0,16.0,36.0,11.0,5.0,44.0
1701799505.607263,-9.0,-3.0,16.0,-14.0,-22.0,-22.0,-60.0,-58.0
1701799505.607263,-2.0,-7.0,-10.0,-1.0,-5.0,-16.0,-21.0,29.0
1701799505.607263,-7.0,-12.0,-7.0,1.0,-7.0,-18.0,-42.0,-13.0
1701799505.6122081,12.0,19.0,5.0,16.0,12.0,39.0,96.0,37.0
1701799505.6122081,-9.0,-10.0,1.0,1.0,-5.0,7.0,4.0,-40.0
1701799505.613255,10.0,22.0,8.0,-10.0,3.0,11.0,8.0,33.0
1701799505.613255,3.0,-29.0,-3.0,1.0,2.0,-2.0,2.0,5.0
1701799505.6610506,5.0,-2.0,-26.0,-18.0,-7.0,-19.0,-33.0,-19.0
1701799505.6610506,2.0,-34.0,5.0,3.0,-6.0,-1.0,-7.0,-16.0
1701799505.6610506,-18.0,2.0,-6.0,7.0,3.0,-8.0,-16.0,-34.0
1701799505.6620991,-2.0,18.0,29.0,-1.0,1.0,3.0,0.0,5.0
1701799505.6620991,6.0,2.0,17.0,1.0,4.0,-8.0,-19.0,-19.0
1701799505.6620991,3.0,6.0,2.0,-11.0,-10.0,5.0,6.0,30.0
1701799505.6620991,-6.0,-14.0,-13.0,-3.0,-8.0,-9.0,-23.0,-13.0
1701799505.6620991,-1.0,8.0,7.0,2.0,13.0,18.0,28.0,-4.0
1701799505.6724498,-8.0,-16.0,-1.0,15.0,0.0,-12.0,-8.0,-2.0
1701799505.6724498,-5.0,-26.0,-11.0,-30.0,-20.0,-21.0,-27.0,2.0
1701799505.6734493,2.0,10.0,18.0,18.0,10.0,6.0,11.0,2.0
1701799505.6734493,-3.0,-3.0,11.0,-11.0,-14.0,-1.0,15.0,4.0
1701799505.688393,3.0,50.0,57.0,41.0,25.0,10.0,-6.0,-1.0
1701799505.688393,5.0,-28.0,-12.0,-18.0,-11.0,-9.0,-9.0,10.0
1701799505.688393,-7.0,-30.0,-59.0,-40.0,-22.0,-7.0,1.0,-6.0
1701799505.689393,1.0,9.0,-13.0,-11.0,-13.0,2.0,7.0,1.0
1701799505.7389066,-3.0,5.0,-35.0,-3.0,-10.0,-10.0,-18.0,2.0
1701799505.7389066,1.0,-7.0,11.0,13.0,28.0,9.0,4.0,5.0
1701799505.7389066,3.0,12.0,46.0,15.0,4.0,3.0,2.0,-10.0
1701799505.7389066,-4.0,12.0,-28.0,4.0,-21.0,-13.0,-8.0,-2.0
1701799505.7389066,2.0,-14.0,42.0,-14.0,15.0,6.0,2.0,6.0
1701799505.7389066,3.0,18.0,-36.0,-13.0,-23.0,-5.0,3.0,6.0
1701799505.7399614,-6.0,-19.0,-35.0,-17.0,10.0,-3.0,-3.0,-7.0
1701799505.7399614,-5.0,-2.0,1.0,31.0,18.0,5.0,0.0,0.0
1701799505.7775664,-4.0,-11.0,-35.0,0.0,-9.0,-3.0,-1.0,0.0
1701799505.7775664,3.0,21.0,14.0,-17.0,-17.0,1.0,-2.0,1.0
1701799505.7775664,4.0,15.0,46.0,-1.0,-3.0,5.0,-1.0,2.0
1701799505.7775664,-5.0,-6.0,28.0,21.0,13.0,-1.0,0.0,-4.0
1701799505.7867444,-1.0,-19.0,-27.0,6.0,9.0,-8.0,-4.0,-1.0
1701799505.7867444,-16.0,-8.0,-34.0,-36.0,-26.0,-16.0,-8.0,-8.0
1701799505.7867444,12.0,20.0,-2.0,-1.0,0.0,2.0,5.0,4.0
1701799505.7867444,2.0,-12.0,0.0,-1.0,-12.0,-4.0,3.0,6.0
1701799505.7877975,1.0,-23.0,25.0,2.0,9.0,-5.0,-11.0,-10.0
1701799505.7877975,-1.0,-2.0,12.0,12.0,10.0,7.0,14.0,11.0
1701799505.7877975,4.0,10.0,0.0,11.0,25.0,12.0,5.0,-3.0
1701799505.7877975,-5.0,8.0,-5.0,-17.0,0.0,-3.0,-9.0,-11.0
1701799505.8050447,4.0,8.0,-7.0,2.0,-3.0,-7.0,-28.0,-45.0
1701799505.8050447,-7.0,-4.0,1.0,-7.0,-8.0,-4.0,-22.0,15.0
1701799505.8050447,-3.0,-4.0,28.0,23.0,15.0,27.0,69.0,18.0
1701799505.8050447,-2.0,-12.0,-78.0,-33.0,5.0,9.0,22.0,11.0
1701799505.8631818,-7.0,-1.0,22.0,13.0,-11.0,-6.0,1.0,1.0
1701799505.8631818,2.0,1.0,-7.0,2.0,9.0,-12.0,-20.0,-8.0
1701799505.8631818,4.0,-1.0,-4.0,1.0,-19.0,-17.0,-37.0,-17.0
1701799505.8631818,0.0,6.0,3.0,-8.0,-1.0,-3.0,5.0,14.0
1701799505.8978448,0.0,7.0,8.0,9.0,-10.0,-6.0,-14.0,8.0
1701799505.8978448,-3.0,1.0,-7.0,8.0,3.0,-12.0,-36.0,-23.0
1701799505.8978448,5.0,-18.0,-24.0,-13.0,-8.0,-2.0,8.0,8.0
1701799505.8978448,-3.0,3.0,18.0,3.0,6.0,26.0,81.0,12.0
1701799505.8978448,-8.0,6.0,2.0,0.0,-8.0,-13.0,-56.0,-61.0
1701799505.8978448,8.0,0.0,-19.0,-12.0,0.0,-19.0,-70.0,15.0
1701799505.8978448,-13.0,6.0,6.0,7.0,0.0,18.0,45.0,-65.0
1701799505.8978448,-11.0,-15.0,-13.0,-11.0,-1.0,0.0,-7.0,75.0
1701799505.8978448,21.0,18.0,12.0,5.0,9.0,26.0,58.0,89.0
1701799505.8978448,1.0,-13.0,0.0,0.0,0.0,-7.0,25.0,11.0
1701799505.8978448,-12.0,-5.0,-5.0,-4.0,-12.0,-24.0,-43.0,-13.0
1701799505.8978448,-12.0,-7.0,2.0,0.0,-3.0,-10.0,-31.0,-35.0
1701799505.9104996,-8.0,-3.0,-5.0,-9.0,-6.0,0.0,-6.0,-4.0
1701799505.9104996,4.0,23.0,14.0,8.0,0.0,-9.0,-16.0,-14.0
1701799505.9104996,4.0,4.0,-3.0,1.0,0.0,-4.0,-13.0,10.0
1701799505.9104996,3.0,15.0,34.0,8.0,2.0,-1.0,-11.0,-22.0
1701799505.9702187,0.0,1.0,-9.0,-24.0,-7.0,0.0,0.0,10.0
1701799505.9702187,-5.0,-42.0,-4.0,13.0,-2.0,15.0,32.0,-8.0
1701799505.9741006,-8.0,-9.0,-31.0,-13.0,-3.0,-3.0,-5.0,2.0
1701799505.9741006,7.0,11.0,3.0,-21.0,-19.0,-12.0,-17.0,-4.0
1701799505.9741006,-4.0,2.0,16.0,38.0,22.0,1.0,7.0,0.0
1701799505.9741006,-1.0,10.0,16.0,22.0,74.0,34.0,30.0,5.0
1701799505.975101,-2.0,-16.0,-46.0,-57.0,-56.0,-19.0,-12.0,12.0
1701799505.975101,7.0,8.0,60.0,53.0,13.0,-3.0,-18.0,-10.0
1701799506.0111508,-2.0,-2.0,3.0,-15.0,-8.0,-2.0,12.0,0.0
1701799506.0111508,-10.0,3.0,-20.0,-38.0,-35.0,-5.0,7.0,-3.0
1701799506.0111508,4.0,6.0,25.0,-29.0,-6.0,-8.0,-15.0,11.0
1701799506.0111508,3.0,-3.0,-5.0,-7.0,-18.0,-2.0,-1.0,-13.0
1701799506.0111508,-6.0,-3.0,4.0,76.0,59.0,21.0,10.0,-3.0
1701799506.0111508,0.0,7.0,-22.0,2.0,-23.0,-8.0,5.0,2.0
1701799506.0111508,2.0,34.0,12.0,-7.0,-2.0,-2.0,-9.0,4.0
1701799506.0111508,2.0,-39.0,-15.0,-17.0,-12.0,-9.0,-8.0,-7.0
1701799506.012151,-5.0,-6.0,-4.0,-13.0,-34.0,-11.0,-6.0,-7.0
1701799506.012151,-3.0,-18.0,-21.0,-22.0,5.0,1.0,5.0,7.0
1701799506.012151,7.0,7.0,14.0,49.0,20.0,2.0,-4.0,1.0
1701799506.012151,-3.0,10.0,6.0,-2.0,10.0,7.0,2.0,-6.0
1701799506.0648699,-3.0,-7.0,-1.0,1.0,-5.0,3.0,-2.0,-5.0
1701799506.0648699,3.0,9.0,0.0,2.0,18.0,11.0,10.0,1.0
1701799506.0648699,0.0,1.0,43.0,10.0,-3.0,-3.0,-1.0,0.0
1701799506.0648699,-3.0,-13.0,-67.0,-50.0,-17.0,-23.0,-18.0,-5.0
1701799506.0648699,0.0,-8.0,-11.0,-10.0,-7.0,-8.0,-6.0,1.0
1701799506.0648699,4.0,12.0,41.0,19.0,-3.0,10.0,18.0,0.0
1701799506.06593,1.0,-14.0,-15.0,17.0,13.0,3.0,-12.0,7.0
1701799506.06593,-6.0,8.0,-9.0,7.0,2.0,4.0,-6.0,-20.0
1701799506.0714629,7.0,-1.0,-12.0,-14.0,0.0,4.0,-5.0,5.0
1701799506.0714629,-6.0,-2.0,4.0,-6.0,-10.0,-11.0,25.0,-9.0
1701799506.0714629,-21.0,-3.0,-6.0,7.0,13.0,18.0,17.0,1.0
1701799506.0714629,10.0,-1.0,-2.0,5.0,12.0,11.0,21.0,18.0
1701799506.1150336,-5.0,6.0,-5.0,-20.0,-15.0,-12.0,-24.0,-16.0
1701799506.1150336,-9.0,-1.0,9.0,5.0,-4.0,-11.0,-38.0,-10.0
1701799506.1150336,17.0,4.0,-6.0,3.0,4.0,-6.0,-17.0,-1.0
1701799506.1150336,-1.0,-1.0,13.0,8.0,1.0,3.0,10.0,-3.0
1701799506.1150336,4.0,-19.0,-17.0,-16.0,-9.0,-2.0,17.0,38.0
1701799506.1150336,14.0,5.0,4.0,1.0,0.0,2.0,13.0,5.0
1701799506.1150336,-7.0,-14.0,-6.0,5.0,2.0,-6.0,-38.0,-18.0
1701799506.1150336,-12.0,9.0,3.0,4.0,2.0,0.0,-9.0,-35.0
1701799506.1248877,33.0,14.0,26.0,14.0,6.0,12.0,43.0,38.0
1701799506.1248877,4.0,7.0,-30.0,-32.0,-6.0,-11.0,-34.0,-20.0
1701799506.1248877,-12.0,-18.0,-16.0,-8.0,-12.0,0.0,13.0,-1.0
1701799506.1248877,2.0,-4.0,5.0,8.0,8.0,9.0,7.0,9.0
1701799506.1713915,-12.0,-13.0,2.0,-5.0,-7.0,-12.0,-22.0,-26.0
1701799506.1713915,-1.0,8.0,17.0,10.0,-2.0,2.0,1.0,11.0
1701799506.1713915,-2.0,-16.0,-3.0,15.0,4.0,-1.0,8.0,-5.0
1701799506.1713915,2.0,-3.0,1.0,-5.0,7.0,-5.0,-10.0,-5.0
1701799506.1724448,-10.0,-1.0,-16.0,-13.0,-7.0,0.0,0.0,-5.0
1701799506.1724448,0.0,-1.0,10.0,0.0,-6.0,6.0,8.0,5.0
1701799506.1724448,0.0,13.0,18.0,-16.0,-17.0,-9.0,5.0,9.0
1701799506.1724448,3.0,-10.0,-48.0,-22.0,-11.0,-6.0,-11.0,6.0
1701799506.2289891,-8.0,2.0,16.0,28.0,28.0,5.0,2.0,-5.0
1701799506.2289891,-1.0,21.0,16.0,-2.0,-56.0,-12.0,2.0,-4.0
1701799506.2289891,13.0,7.0,46.0,46.0,77.0,22.0,9.0,7.0
1701799506.2299762,-13.0,-5.0,-18.0,-1.0,-73.0,-24.0,-12.0,-3.0
1701799506.2299762,-6.0,-2.0,-15.0,6.0,70.0,19.0,2.0,-9.0
1701799506.2299762,-1.0,-9.0,21.0,-8.0,-43.0,-9.0,4.0,0.0
1701799506.2299762,3.0,4.0,-33.0,13.0,14.0,5.0,5.0,5.0
1701799506.2299762,3.0,18.0,34.0,-23.0,-17.0,-12.0,-8.0,0.0
1701799506.2299762,-2.0,-6.0,-16.0,57.0,34.0,8.0,3.0,-2.0
1701799506.2299762,-7.0,-39.0,-49.0,-17.0,11.0,1.0,-4.0,-4.0
1701799506.2299762,-3.0,7.0,36.0,-22.0,-22.0,-7.0,4.0,8.0
1701799506.2299762,9.0,2.0,-45.0,6.0,27.0,12.0,3.0,4.0
1701799506.283502,-3.0,11.0,-9.0,-46.0,-54.0,-18.0,-11.0,-9.0
1701799506.283502,-2.0,-16.0,9.0,26.0,26.0,2.0,-5.0,-3.0
1701799506.283502,-5.0,3.0,-13.0,-1.0,-7.0,0.0,2.0,-4.0
1701799506.283502,0.0,-1.0,19.0,6.0,-2.0,-14.0,-17.0,-7.0
1701799506.283502,-10.0,0.0,3.0,-23.0,-17.0,7.0,7.0,-4.0
1701799506.283502,3.0,8.0,4.0,-13.0,24.0,23.0,13.0,-15.0
1701799506.283502,-2.0,-10.0,-26.0,3.0,-5.0,1.0,19.0,48.0
1701799506.283502,-3.0,7.0,38.0,21.0,21.0,7.0,0.0,-1.0
1701799506.2956152,-1.0,-10.0,-45.0,-34.0,-21.0,-17.0,-7.0,-6.0
1701799506.2956152,-7.0,2.0,16.0,19.0,16.0,-4.0,-15.0,-10.0
1701799506.2959342,0.0,-5.0,-47.0,-29.0,-23.0,-9.0,-11.0,-18.0
1701799506.2959342,5.0,-2.0,20.0,10.0,12.0,5.0,7.0,13.0
1701799506.335105,3.0,8.0,-6.0,-22.0,-28.0,-11.0,-15.0,5.0
1701799506.335105,5.0,4.0,13.0,8.0,-3.0,-7.0,-22.0,3.0
1701799506.335105,-16.0,2.0,21.0,18.0,7.0,-1.0,-4.0,-8.0
1701799506.335105,15.0,-15.0,-26.0,-14.0,-3.0,-1.0,-1.0,-12.0
1701799506.335105,3.0,9.0,8.0,0.0,-1.0,13.0,58.0,4.0
1701799506.335105,-51.0,2.0,1.0,2.0,-4.0,-24.0,-87.0,-1.0
1701799506.335105,8.0,-13.0,-9.0,-13.0,-7.0,14.0,92.0,43.0
1701799506.335105,1.0,8.0,-2.0,-2.0,11.0,14.0,4.0,-20.0
1701799506.3464801,36.0,5.0,17.0,6.0,-3.0,-2.0,-8.0,16.0
1701799506.3464801,33.0,-24.0,-27.0,-13.0,-8.0,-5.0,-5.0,11.0
1701799506.3464801,-53.0,12.0,-8.0,-11.0,-9.0,-11.0,-38.0,-44.0
1701799506.3464801,15.0,0.0,-8.0,2.0,0.0,-10.0,-30.0,-5.0
1701799506.3916738,1.0,1.0,43.0,17.0,4.0,0.0,-24.0,-28.0
1701799506.392673,7.0,-53.0,-39.0,-21.0,-9.0,0.0,18.0,4.0
1701799506.392673,-1.0,-4.0,-12.0,-11.0,-9.0,-5.0,-29.0,-6.0
1701799506.392673,-4.0,0.0,25.0,3.0,-2.0,2.0,29.0,19.0
1701799506.392673,-7.0,28.0,30.0,9.0,-4.0,-1.0,-10.0,4.0
1701799506.392673,0.0,14.0,-28.0,-7.0,20.0,15.0,32.0,2.0
1701799506.3932908,11.0,1.0,6.0,26.0,16.0,3.0,3.0,-3.0
1701799506.3932908,-14.0,8.0,14.0,-20.0,-36.0,-15.0,-13.0,-2.0
1701799506.446774,-3.0,-24.0,-45.0,-60.0,-38.0,-4.0,0.0,0.0
1701799506.446774,-9.0,20.0,37.0,35.0,32.0,6.0,13.0,2.0
1701799506.447818,21.0,13.0,2.0,-2.0,-23.0,-7.0,-13.0,-10.0
1701799506.447818,2.0,-8.0,-16.0,70.0,46.0,16.0,4.0,9.0
1701799506.447818,-18.0,-7.0,76.0,-104.0,-69.0,-21.0,-15.0,-3.0
1701799506.447818,-4.0,-35.0,-97.0,7.0,47.0,18.0,24.0,2.0
1701799506.447818,14.0,29.0,69.0,61.0,26.0,-3.0,-17.0,-3.0
1701799506.447818,-6.0,-14.0,-45.0,-71.0,-15.0,4.0,8.0,2.0
1701799506.452355,-3.0,2.0,21.0,80.0,29.0,0.0,6.0,1.0
1701799506.452355,1.0,18.0,-2.0,-24.0,-24.0,-2.0,3.0,-1.0
1701799506.453354,11.0,-7.0,25.0,-21.0,-15.0,-2.0,-3.0,-5.0
1701799506.453354,-11.0,-3.0,7.0,-8.0,4.0,-2.0,-6.0,0.0
1701799506.5025828,-8.0,-27.0,-69.0,-19.0,5.0,4.0,-6.0,-7.0
1701799506.5025828,7.0,24.0,68.0,-7.0,-10.0,-3.0,7.0,1.0
1701799506.5025828,-4.0,-19.0,-6.0,46.0,15.0,1.0,-11.0,-5.0
1701799506.5025828,5.0,9.0,34.0,-17.0,-9.0,-2.0,8.0,4.0
1701799506.5092978,-14.0,-3.0,-16.0,26.0,12.0,0.0,-4.0,-7.0
1701799506.5092978,11.0,13.0,21.0,13.0,-3.0,-6.0,-8.0,4.0
1701799506.5092978,-15.0,-16.0,-40.0,-57.0,-36.0,-19.0,-44.0,-40.0
1701799506.5092978,-5.0,3.0,9.0,30.0,22.0,11.0,18.0,41.0
1701799506.5132241,4.0,7.0,-6.0,3.0,10.0,4.0,16.0,5.0
1701799506.5132241,19.0,-1.0,2.0,7.0,-4.0,10.0,40.0,-28.0
1701799506.5141966,-69.0,-2.0,-5.0,-15.0,0.0,-4.0,-29.0,28.0
1701799506.5141966,65.0,-17.0,-8.0,1.0,3.0,10.0,35.0,34.0
1701799506.5266504,69.0,7.0,-4.0,23.0,12.0,4.0,25.0,26.0
1701799506.5266504,27.0,12.0,16.0,-12.0,-20.0,-7.0,37.0,22.0
1701799506.5365312,-37.0,1.0,7.0,2.0,5.0,0.0,-25.0,-41.0
1701799506.5365312,-28.0,-2.0,-5.0,-4.0,-7.0,-16.0,-45.0,-3.0
1701799506.5921013,-28.0,10.0,-7.0,-6.0,-3.0,-4.0,-15.0,-7.0
1701799506.5921013,2.0,-19.0,12.0,8.0,-4.0,1.0,-21.0,-4.0
1701799506.5921013,48.0,-4.0,-7.0,-7.0,6.0,6.0,31.0,13.0
1701799506.5921013,-5.0,-6.0,-10.0,6.0,0.0,-11.0,-12.0,-23.0
1701799506.5921013,-2.0,-3.0,0.0,2.0,-3.0,-4.0,-11.0,-11.0
1701799506.5921013,-18.0,18.0,5.0,3.0,2.0,-3.0,-20.0,-4.0
1701799506.5921013,11.0,-13.0,-8.0,-1.0,2.0,-1.0,2.0,5.0
1701799506.5921013,-12.0,3.0,19.0,22.0,2.0,7.0,11.0,3.0
1701799506.6302059,-11.0,0.0,3.0,-31.0,-8.0,-1.0,6.0,1.0
1701799506.6302059,-13.0,0.0,3.0,7.0,-3.0,-4.0,-9.0,3.0
1701799506.6302059,13.0,1.0,0.0,13.0,2.0,9.0,22.0,9.0
1701799506.6302059,2.0,-9.0,-55.0,-42.0,-3.0,-7.0,-18.0,-26.0
1701799506.6302059,-18.0,-10.0,43.0,59.0,5.0,-8.0,-36.0,-4.0
1701799506.6302059,-8.0,12.0,16.0,-12.0,-7.0,-5.0,-16.0,6.0
1701799506.6302059,8.0,10.0,8.0,24.0,2.0,8.0,50.0,-8.0
1701799506.6312587,-9.0,-15.0,15.0,5.0,11.0,19.0,68.0,20.0
1701799506.6312587,6.0,-10.0,-40.0,-10.0,4.0,10.0,17.0,3.0
1701799506.6312587,-7.0,-5.0,-26.0,-27.0,-11.0,-2.0,-2.0,4.0
1701799506.6312587,10.0,-3.0,5.0,-11.0,-4.0,-14.0,-50.0,-7.0
1701799506.6312587,-17.0,7.0,23.0,35.0,14.0,-9.0,-33.0,-17.0
1701799506.6823573,-9.0,-8.0,-31.0,-27.0,-16.0,-9.0,0.0,0.0
1701799506.6823573,7.0,8.0,41.0,22.0,-4.0,-5.0,-18.0,-6.0
1701799506.6823573,7.0,-8.0,-69.0,-52.0,-18.0,-3.0,6.0,8.0
1701799506.6823573,-7.0,0.0,-11.0,8.0,3.0,0.0,0.0,-11.0
1701799506.6823573,-3.0,14.0,43.0,17.0,8.0,5.0,-1.0,-5.0
1701799506.6823573,-12.0,-5.0,-31.0,-41.0,-26.0,-19.0,-10.0,-10.0
1701799506.683411,4.0,-18.0,19.0,11.0,15.0,18.0,36.0,14.0
1701799506.683411,-2.0,21.0,19.0,19.0,18.0,12.0,-10.0,1.0
1701799506.72729,10.0,18.0,14.0,6.0,-5.0,-18.0,-50.0,-7.0
1701799506.7283432,-24.0,-10.0,54.0,0.0,-13.0,1.0,18.0,-9.0
1701799506.7283432,-10.0,-15.0,-78.0,-32.0,-31.0,-12.0,32.0,3.0
1701799506.7283432,13.0,27.0,40.0,-2.0,-1.0,7.0,13.0,15.0
1701799506.7283432,4.0,-17.0,-19.0,0.0,7.0,14.0,22.0,11.0
1701799506.7283432,-11.0,-19.0,29.0,12.0,9.0,-3.0,-12.0,4.0
1701799506.7283432,-9.0,-4.0,19.0,-6.0,-4.0,-5.0,-15.0,0.0
1701799506.7283432,-5.0,-2.0,2.0,-14.0,-16.0,-11.0,-13.0,-22.0
1701799506.7319694,20.0,21.0,-6.0,-4.0,2.0,-12.0,-32.0,-6.0
1701799506.7319694,21.0,25.0,-2.0,4.0,0.0,0.0,1.0,11.0
1701799506.7319694,6.0,4.0,37.0,7.0,2.0,-6.0,-4.0,-7.0
1701799506.7319694,-15.0,-21.0,-42.0,-10.0,-6.0,0.0,1.0,-6.0
1701799506.7818723,-12.0,-27.0,-26.0,-11.0,-15.0,2.0,15.0,2.0
1701799506.7820237,1.0,-24.0,-32.0,-14.0,4.0,5.0,0.0,5.0
1701799506.7820237,8.0,19.0,36.0,23.0,26.0,18.0,11.0,5.0
1701799506.7820237,0.0,-2.0,-28.0,-4.0,-25.0,-17.0,-14.0,-6.0
1701799506.7820237,-13.0,-5.0,16.0,17.0,34.0,6.0,10.0,-8.0
1701799506.7820237,0.0,0.0,-18.0,-5.0,1.0,5.0,4.0,0.0
1701799506.7820237,4.0,10.0,-6.0,-17.0,-10.0,-4.0,-17.0,-3.0
1701799506.7820237,6.0,3.0,54.0,32.0,7.0,1.0,5.0,2.0
1701799506.7831402,-4.0,1.0,-40.0,-16.0,-7.0,-1.0,0.0,-4.0
1701799506.7831402,-4.0,-1.0,-69.0,2.0,-1.0,-1.0,-4.0,-7.0
1701799506.7831402,16.0,8.0,45.0,-10.0,-14.0,-4.0,7.0,22.0
1701799506.7831402,-14.0,3.0,-43.0,-16.0,-8.0,-5.0,-12.0,-25.0
1701799506.8142073,-17.0,-60.0,23.0,-18.0,-22.0,-8.0,1.0,-10.0
1701799506.8142073,0.0,-6.0,-73.0,25.0,16.0,1.0,2.0,-3.0
1701799506.8142073,-2.0,4.0,1.0,-10.0,-7.0,-7.0,-17.0,-3.0
1701799506.8142073,6.0,5.0,23.0,-2.0,-4.0,2.0,2.0,17.0
1701799506.8623197,-6.0,-7.0,-18.0,0.0,-12.0,-8.0,-4.0,-19.0
1701799506.8623197,-5.0,8.0,6.0,-4.0,-3.0,1.0,1.0,0.0
1701799506.8623197,12.0,22.0,1.0,12.0,9.0,-10.0,-9.0,2.0
1701799506.8623197,2.0,-16.0,-9.0,3.0,19.0,16.0,10.0,4.0
1701799506.8623197,-7.0,33.0,72.0,2.0,-6.0,0.0,3.0,4.0
1701799506.8623197,-2.0,-11.0,-10.0,-13.0,-17.0,-7.0,1.0,5.0
1701799506.8623197,-2.0,-16.0,-40.0,-7.0,21.0,12.0,0.0,-2.0
1701799506.8623197,-4.0,-22.0,2.0,-14.0,-20.0,-17.0,-9.0,8.0
1701799506.8981576,4.0,24.0,19.0,-1.0,5.0,3.0,12.0,2.0
1701799506.8981576,0.0,-8.0,21.0,12.0,7.0,3.0,12.0,1.0
1701799506.8981576,-7.0,8.0,37.0,16.0,-1.0,5.0,-14.0,-8.0
1701799506.8981576,-10.0,11.0,-70.0,-10.0,-3.0,-11.0,-22.0,-18.0
1701799506.900089,-7.0,-32.0,-35.0,-1.0,5.0,10.0,3.0,-7.0
1701799506.900089,3.0,18.0,39.0,-6.0,5.0,1.0,3.0,15.0
1701799506.900089,-2.0,-11.0,5.0,1.0,-8.0,-8.0,-6.0,-9.0
1701799506.900089,2.0,-1.0,-24.0,-11.0,-4.0,3.0,-3.0,-12.0
1701799506.9051163,-1.0,13.0,-12.0,12.0,13.0,2.0,-3.0,32.0
1701799506.9051163,4.0,8.0,21.0,-15.0,4.0,2.0,8.0,-21.0
1701799506.964136,-4.0,-15.0,-54.0,-5.0,-5.0,-5.0,-2.0,-19.0
1701799506.964136,-3.0,9.0,50.0,36.0,3.0,5.0,2.0,11.0
1701799506.964136,4.0,3.0,-6.0,-17.0,-14.0,-18.0,-15.0,0.0
1701799506.964136,-5.0,-8.0,-8.0,21.0,1.0,-3.0,-6.0,-8.0
1701799506.964136,4.0,-3.0,-13.0,-5.0,9.0,8.0,8.0,13.0
1701799506.964136,7.0,42.0,64.0,-45.0,-7.0,-1.0,2.0,-4.0
1701799506.964136,-4.0,16.0,50.0,28.0,-4.0,-11.0,-8.0,-12.0
1701799506.964136,4.0,15.0,30.0,36.0,13.0,5.0,11.0,20.0
1701799506.964136,8.0,2.0,17.0,8.0,3.0,1.0,10.0,-25.0
1701799506.964136,-6.0,-9.0,53.0,9.0,2.0,10.0,11.0,26.0
1701799506.964136,2.0,-16.0,-102.0,-34.0,-7.0,-4.0,7.0,4.0
1701799506.964136,-4.0,24.0,-46.0,-27.0,-10.0,-7.0,-7.0,-6.0
1701799507.0184734,10.0,0.0,-2.0,14.0,-11.0,-2.0,-14.0,7.0
1701799507.0184734,-1.0,-19.0,9.0,-15.0,10.0,-11.0,-4.0,-10.0
1701799507.0184734,-1.0,14.0,-9.0,23.0,31.0,23.0,11.0,0.0
1701799507.0184734,1.0,-23.0,23.0,2.0,3.0,8.0,1.0,0.0
1701799507.0194764,-8.0,2.0,-31.0,-25.0,-22.0,-10.0,-3.0,0.0
1701799507.0194764,6.0,38.0,-1.0,15.0,-7.0,-5.0,0.0,-1.0
1701799507.0194764,-8.0,-60.0,101.0,26.0,-1.0,-2.0,-3.0,-6.0
1701799507.0194764,-6.0,15.0,-79.0,-13.0,-1.0,-6.0,-9.0,-10.0
1701799507.0194764,-9.0,-34.0,-35.0,-18.0,-15.0,-5.0,6.0,8.0
1701799507.0194764,-10.0,-6.0,-18.0,-36.0,-50.0,-37.0,-18.0,-22.0
1701799507.024707,14.0,38.0,61.0,9.0,42.0,27.0,0.0,5.0
1701799507.024707,-9.0,-6.0,79.0,40.0,1.0,-3.0,-17.0,-9.0
1701799507.0869172,-11.0,-24.0,-70.0,-16.0,-19.0,-11.0,-4.0,8.0
1701799507.0881503,5.0,-2.0,32.0,8.0,-12.0,-8.0,4.0,-2.0
1701799507.0881503,-15.0,-34.0,-82.0,-34.0,11.0,5.0,-4.0,-9.0
1701799507.0892055,3.0,-8.0,34.0,-9.0,3.0,2.0,-4.0,-8.0
1701799507.0892055,-4.0,39.0,66.0,1.0,23.0,10.0,0.0,-4.0
1701799507.0892055,7.0,-4.0,22.0,33.0,1.0,4.0,5.0,11.0
1701799507.0892055,-2.0,-8.0,-50.0,-35.0,-20.0,-15.0,-8.0,-2.0
1701799507.0892055,4.0,-8.0,100.0,-6.0,3.0,10.0,13.0,5.0
1701799507.0892055,-11.0,-9.0,23.0,45.0,0.0,-11.0,-3.0,-4.0
1701799507.0892055,10.0,26.0,-65.0,-7.0,21.0,15.0,8.0,3.0
1701799507.1250815,-2.0,7.0,99.0,-14.0,-34.0,-13.0,-3.0,-5.0
1701799507.1250815,4.0,9.0,-54.0,-14.0,12.0,6.0,-4.0,5.0
1701799507.1250815,2.0,37.0,-40.0,-8.0,-4.0,-8.0,-11.0,1.0
1701799507.1250815,-6.0,-44.0,77.0,34.0,-6.0,-14.0,-6.0,1.0
1701799507.1250815,10.0,33.0,-41.0,-23.0,1.0,-2.0,2.0,3.0
1701799507.1250815,-8.0,2.0,-107.0,1.0,10.0,18.0,14.0,0.0
1701799507.1250815,-7.0,-37.0,-10.0,-24.0,-7.0,-1.0,0.0,-2.0
1701799507.1250815,-9.0,4.0,67.0,-3.0,15.0,10.0,-1.0,-5.0
1701799507.1261861,5.0,23.0,-75.0,4.0,-19.0,-11.0,13.0,6.0
1701799507.1261861,18.0,-21.0,49.0,-37.0,-22.0,-12.0,-11.0,2.0
1701799507.1374154,10.0,32.0,93.0,-11.0,3.0,6.0,-1.0,-1.0
1701799507.1374154,12.0,29.0,61.0,75.0,73.0,42.0,15.0,9.0
1701799507.1762962,-24.0,-60.0,33.0,-21.0,-19.0,-16.0,-9.0,-7.0
1701799507.1762962,-8.0,-26.0,6.0,-4.0,1.0,1.0,11.0,4.0
1701799507.1762962,19.0,20.0,69.0,10.0,0.0,0.0,4.0,7.0
1701799507.1762962,9.0,2.0,-32.0,-27.0,-33.0,-19.0,3.0,5.0
1701799507.1762962,0.0,22.0,-73.0,-30.0,33.0,27.0,-10.0,-7.0
1701799507.1762962,-11.0,12.0,78.0,95.0,10.0,-5.0,-2.0,-5.0
1701799507.1878793,-10.0,-29.0,-75.0,-8.0,9.0,8.0,5.0,1.0
1701799507.1878793,15.0,20.0,17.0,8.0,0.0,6.0,9.0,16.0
1701799507.2012212,12.0,-14.0,40.0,-4.0,-7.0,-5.0,-2.0,-9.0
1701799507.2012212,12.0,12.0,17.0,-79.0,-31.0,-21.0,-8.0,-3.0
1701799507.2429514,-12.0,-24.0,-19.0,-21.0,22.0,9.0,-24.0,-13.0
1701799507.2429514,-1.0,17.0,5.0,34.0,9.0,11.0,-8.0,-8.0
1701799507.2457879,-20.0,-25.0,-102.0,73.0,-19.0,-8.0,6.0,-2.0
1701799507.2468429,-1.0,11.0,36.0,5.0,-3.0,-1.0,-12.0,-3.0
1701799507.2468429,9.0,19.0,10.0,-10.0,-12.0,-9.0,0.0,0.0
1701799507.2468429,-5.0,-25.0,-55.0,-125.0,-11.0,-6.0,-5.0,-9.0
1701799507.2468429,2.0,11.0,61.0,42.0,-14.0,-22.0,-13.0,-3.0
1701799507.2468429,-11.0,-11.0,-39.0,36.0,22.0,7.0,-12.0,-13.0
1701799507.2468429,-1.0,2.0,21.0,-3.0,-2.0,12.0,6.0,5.0
1701799507.2468429,-8.0,-3.0,33.0,16.0,-1.0,-14.0,-10.0,-11.0
1701799507.294589,5.0,11.0,66.0,-33.0,-6.0,2.0,19.0,7.0
1701799507.294589,-16.0,-31.0,-35.0,49.0,9.0,-2.0,-1.0,-2.0
1701799507.294589,-4.0,9.0,35.0,-60.0,-18.0,-16.0,-23.0,-15.0
1701799507.294589,-4.0,-2.0,-49.0,61.0,10.0,-5.0,-9.0,-3.0
1701799507.294589,5.0,21.0,127.0,47.0,14.0,1.0,-6.0,-4.0
1701799507.294589,-6.0,23.0,25.0,-31.0,7.0,3.0,8.0,0.0
1701799507.294589,2.0,-5.0,-12.0,17.0,0.0,5.0,3.0,2.0
1701799507.294589,11.0,-2.0,4.0,-53.0,6.0,21.0,19.0,6.0
1701799507.294589,-13.0,10.0,-79.0,-4.0,-16.0,-12.0,-21.0,-13.0
1701799507.294589,-2.0,-1.0,40.0,23.0,-17.0,-10.0,2.0,-8.0
1701799507.295644,-3.0,-8.0,1.0,36.0,11.0,-1.0,2.0,-2.0
1701799507.295644,-3.0,-9.0,41.0,-18.0,-10.0,-9.0,0.0,4.0
1701799507.3424077,4.0,17.0,10.0,-21.0,6.0,16.0,8.0,6.0
1701799507.3424077,-2.0,-8.0,-24.0,3.0,41.0,23.0,5.0,3.0
1701799507.3424077,4.0,0.0,40.0,14.0,-23.0,-16.0,9.0,7.0
1701799507.3424077,-2.0,-34.0,-103.0,0.0,13.0,9.0,-4.0,1.0
1701799507.3435116,-2.0,-2.0,30.0,-12.0,-5.0,-5.0,4.0,1.0
1701799507.3435116,6.0,21.0,59.0,9.0,-14.0,-4.0,-1.0,3.0
1701799507.3482232,4.0,-27.0,-45.0,-13.0,-10.0,-4.0,10.0,3.0
1701799507.3482232,-13.0,-4.0,-12.0,-8.0,-22.0,-8.0,-14.0,-10.0
1701799507.3482232,1.0,-12.0,-48.0,-15.0,16.0,-4.0,-10.0,-5.0
1701799507.351843,6.0,15.0,-22.0,-35.0,-3.0,15.0,17.0,7.0
1701799507.3750312,-6.0,-19.0,17.0,77.0,24.0,7.0,-4.0,-7.0
1701799507.3750312,-19.0,-37.0,-98.0,-27.0,-16.0,-18.0,-12.0,-13.0
1701799507.3775296,2.0,9.0,65.0,8.0,0.0,4.0,2.0,6.0
1701799507.3775296,3.0,26.0,96.0,-22.0,-21.0,-10.0,-3.0,3.0
1701799507.3815713,-6.0,-2.0,20.0,-12.0,4.0,1.0,-2.0,-2.0
1701799507.3815713,-13.0,-3.0,23.0,24.0,-15.0,-12.0,-6.0,-7.0
1701799507.4352715,10.0,2.0,-10.0,5.0,14.0,9.0,1.0,4.0
1701799507.4352715,-3.0,-19.0,-37.0,-22.0,-9.0,-3.0,-2.0,0.0
1701799507.4352715,-5.0,1.0,-18.0,-23.0,-5.0,-3.0,-4.0,-3.0
1701799507.4352715,-1.0,-10.0,28.0,19.0,-13.0,-12.0,-7.0,-4.0
1701799507.4352715,2.0,7.0,-25.0,-45.0,2.0,10.0,12.0,6.0
1701799507.4352715,-4.0,-16.0,-53.0,50.0,-7.0,-11.0,-9.0,-6.0
1701799507.4352715,-3.0,-12.0,-2.0,-9.0,-5.0,-5.0,-7.0,-2.0
1701799507.4352715,-6.0,-15.0,-80.0,-21.0,26.0,9.0,-3.0,0.0
1701799507.45941,-2.0,3.0,51.0,31.0,-3.0,-3.0,1.0,-5.0
1701799507.45941,0.0,-15.0,-28.0,-38.0,-14.0,-9.0,-1.0,1.0
1701799507.4604092,-3.0,11.0,24.0,19.0,15.0,-1.0,-1.0,1.0
1701799507.4604092,-3.0,7.0,10.0,-6.0,-43.0,-17.0,-6.0,-8.0
1701799507.4604092,6.0,-3.0,-18.0,3.0,78.0,39.0,10.0,6.0
1701799507.4604092,1.0,-3.0,15.0,15.0,1.0,-6.0,-5.0,-2.0
1701799507.4614837,0.0,9.0,-16.0,-6.0,-13.0,-3.0,4.0,2.0
1701799507.4614837,1.0,7.0,22.0,25.0,-2.0,-1.0,-1.0,1.0
1701799507.4716542,-4.0,-11.0,-11.0,6.0,-11.0,-10.0,-4.0,-1.0
1701799507.4716542,2.0,2.0,-5.0,-18.0,-7.0,2.0,2.0,6.0
1701799507.533546,-5.0,-27.0,-55.0,-9.0,10.0,3.0,0.0,-8.0
1701799507.533546,2.0,6.0,19.0,-7.0,15.0,6.0,1.0,-1.0
1701799507.533546,-9.0,-17.0,-28.0,-1.0,-29.0,-13.0,-9.0,-8.0
1701799507.533546,2.0,10.0,-10.0,-19.0,-9.0,-8.0,-4.0,1.0
1701799507.5345495,-1.0,-1.0,34.0,22.0,-6.0,-5.0,-1.0,0.0
1701799507.5345495,-2.0,-12.0,-25.0,-44.0,-6.0,4.0,1.0,0.0
1701799507.538552,3.0,4.0,9.0,5.0,14.0,3.0,3.0,1.0
1701799507.538552,4.0,16.0,-35.0,7.0,-25.0,-8.0,-1.0,0.0
1701799507.538552,-5.0,-7.0,22.0,-2.0,-2.0,5.0,1.0,-2.0
1701799507.538552,-4.0,-27.0,-27.0,-3.0,8.0,1.0,-1.0,-3.0
1701799507.572906,-2.0,-4.0,-18.0,-16.0,-11.0,-8.0,-6.0,-2.0
1701799507.5738966,-1.0,3.0,3.0,9.0,13.0,0.0,-2.0,-3.0
1701799507.5738966,7.0,42.0,13.0,-6.0,-10.0,-7.0,-3.0,2.0
1701799507.5738966,12.0,-30.0,13.0,-7.0,-10.0,-2.0,7.0,8.0
1701799507.5738966,-44.0,-59.0,-17.0,3.0,-39.0,-20.0,-13.0,-15.0
1701799507.5738966,5.0,4.0,-2.0,-12.0,20.0,5.0,4.0,3.0
1701799507.5742772,-18.0,-11.0,-28.0,-1.0,24.0,6.0,-7.0,-12.0
1701799507.5742772,8.0,43.0,50.0,2.0,7.0,6.0,3.0,5.0
1701799507.5763817,9.0,14.0,-2.0,1.0,-8.0,-4.0,1.0,4.0
1701799507.577662,-3.0,-20.0,-20.0,-13.0,-21.0,-13.0,-7.0,-3.0
1701799507.5783858,3.0,13.0,23.0,8.0,1.0,1.0,3.0,4.0
1701799507.5783858,2.0,11.0,29.0,25.0,6.0,2.0,0.0,0.0
1701799507.6278417,5.0,0.0,-1.0,-6.0,-6.0,-1.0,-2.0,0.0
1701799507.6278417,-5.0,5.0,-8.0,4.0,4.0,4.0,-4.0,-5.0
1701799507.635259,1.0,-16.0,-3.0,-3.0,-2.0,-3.0,0.0,6.0
1701799507.635259,-8.0,-2.0,-14.0,5.0,6.0,1.0,-7.0,-6.0
1701799507.635259,6.0,-3.0,3.0,-17.0,-10.0,0.0,5.0,4.0
1701799507.635259,7.0,4.0,20.0,14.0,7.0,9.0,7.0,5.0
1701799507.635259,-2.0,2.0,-8.0,-18.0,-5.0,-10.0,-8.0,-5.0
1701799507.635259,-7.0,-4.0,7.0,6.0,-5.0,-7.0,-4.0,-5.0
1701799507.6363683,-1.0,11.0,13.0,11.0,3.0,-1.0,-3.0,0.0
1701799507.6363683,2.0,-1.0,-25.0,-21.0,4.0,8.0,4.0,-1.0
1701799507.6393216,-1.0,-12.0,22.0,19.0,-3.0,3.0,4.0,1.0
1701799507.6393216,0.0,4.0,-5.0,-6.0,-9.0,-2.0,2.0,2.0
1701799507.6868775,2.0,5.0,-17.0,-5.0,24.0,-3.0,-4.0,-2.0
1701799507.6868775,-8.0,-14.0,-2.0,4.0,-3.0,-5.0,-5.0,-4.0
1701799507.6868775,3.0,6.0,-16.0,-8.0,3.0,4.0,3.0,2.0
1701799507.6868775,1.0,11.0,24.0,-5.0,-9.0,-8.0,-4.0,-2.0
1701799507.6868775,1.0,0.0,12.0,20.0,-8.0,3.0,4.0,1.0
1701799507.6868775,2.0,-3.0,0.0,-20.0,1.0,-2.0,-6.0,-5.0
1701799507.6882138,2.0,6.0,5.0,0.0,-5.0,-1.0,4.0,1.0
1701799507.6882138,-4.0,10.0,2.0,0.0,3.0,-6.0,-5.0,0.0
1701799507.6916301,-5.0,-13.0,-22.0,4.0,-5.0,-10.0,-6.0,-3.0
1701799507.6916301,-7.0,-16.0,-11.0,-4.0,10.0,7.0,6.0,2.0
1701799507.703074,5.0,9.0,15.0,-2.0,-13.0,3.0,0.0,-2.0
1701799507.7042701,-1.0,-7.0,5.0,1.0,2.0,-4.0,-6.0,-5.0
1701799507.7473311,-2.0,5.0,0.0,5.0,-7.0,1.0,2.0,-3.0
1701799507.7473311,1.0,-5.0,-10.0,-1.0,1.0,1.0,7.0,0.0
1701799507.7473311,-3.0,-5.0,1.0,2.0,9.0,1.0,-8.0,-14.0
1701799507.7473311,3.0,2.0,-2.0,5.0,4.0,4.0,5.0,10.0
1701799507.7473311,0.0,5.0,-7.0,-10.0,-5.0,-2.0,0.0,-3.0
1701799507.7473311,4.0,-1.0,18.0,9.0,-3.0,-6.0,-2.0,5.0
1701799507.7473311,-1.0,4.0,12.0,3.0,1.0,-1.0,-2.0,3.0
1701799507.7473311,-2.0,-1.0,-23.0,-4.0,4.0,7.0,5.0,0.0
1701799507.7867973,4.0,1.0,-14.0,-13.0,-14.0,-2.0,2.0,-3.0
1701799507.7867973,-4.0,-1.0,8.0,9.0,1.0,3.0,0.0,-5.0
1701799507.7867973,-2.0,-9.0,-26.0,-9.0,-11.0,-17.0,-20.0,8.0
1701799507.7867973,-1.0,-3.0,22.0,14.0,13.0,1.0,2.0,-20.0
1701799507.7867973,5.0,9.0,12.0,-2.0,5.0,1.0,-33.0,5.0
1701799507.7867973,-4.0,8.0,33.0,26.0,-2.0,2.0,25.0,25.0
1701799507.7878544,-9.0,-21.0,-83.0,-42.0,0.0,10.0,37.0,18.0
1701799507.7878544,5.0,-1.0,-6.0,-5.0,2.0,4.0,3.0,-2.0
1701799507.7878544,1.0,0.0,5.0,14.0,-2.0,-20.0,-14.0,6.0
1701799507.7878544,-9.0,1.0,12.0,-9.0,-6.0,-13.0,-49.0,-36.0
1701799507.7974193,-3.0,5.0,22.0,7.0,0.0,14.0,39.0,-8.0
1701799507.7974193,-4.0,-7.0,-30.0,-2.0,-9.0,6.0,15.0,2.0
1701799507.851654,-3.0,0.0,-4.0,4.0,1.0,-5.0,-5.0,-3.0
1701799507.851654,-2.0,-2.0,4.0,7.0,-3.0,-13.0,-20.0,-4.0
1701799507.851654,-1.0,-1.0,-11.0,-18.0,-2.0,-7.0,-18.0,-6.0
1701799507.851654,8.0,9.0,-8.0,9.0,10.0,5.0,-7.0,0.0
1701799507.851654,-3.0,4.0,43.0,17.0,-1.0,1.0,-17.0,-10.0
1701799507.8526556,-1.0,-14.0,-28.0,-15.0,-3.0,9.0,45.0,10.0
1701799507.8526556,5.0,7.0,17.0,9.0,9.0,9.0,19.0,-11.0
1701799507.8526556,-3.0,-10.0,-11.0,-11.0,-8.0,-10.0,-8.0,-12.0
1701799507.8559048,5.0,1.0,-17.0,-6.0,0.0,3.0,11.0,28.0
1701799507.8559048,3.0,11.0,14.0,5.0,-1.0,-5.0,-28.0,-9.0
1701799507.8569102,2.0,12.0,30.0,21.0,1.0,-6.0,-26.0,-11.0
1701799507.8569102,-13.0,-42.0,-44.0,-32.0,-11.0,-9.0,-27.0,-5.0
1701799507.913779,-4.0,0.0,-11.0,-3.0,-1.0,7.0,13.0,-57.0
1701799507.913779,-3.0,-4.0,-8.0,-14.0,-4.0,14.0,77.0,28.0
1701799507.913779,3.0,4.0,21.0,19.0,14.0,0.0,-12.0,2.0
1701799507.913779,-1.0,13.0,16.0,10.0,0.0,-7.0,-18.0,-8.0
1701799507.913779,-1.0,-2.0,2.0,16.0,13.0,3.0,-3.0,-1.0
1701799507.913779,-3.0,-5.0,-15.0,-9.0,6.0,-5.0,-36.0,-7.0
1701799507.913779,3.0,12.0,23.0,-3.0,-21.0,-8.0,-12.0,-2.0
1701799507.913779,-5.0,-4.0,-31.0,-28.0,-4.0,0.0,12.0,9.0
1701799507.9146135,2.0,-10.0,-18.0,-22.0,-13.0,1.0,1.0,10.0
1701799507.9156115,0.0,1.0,21.0,80.0,34.0,4.0,-2.0,-5.0
1701799507.9158628,-5.0,-1.0,2.0,-8.0,16.0,1.0,-3.0,6.0
1701799507.9158628,-3.0,1.0,2.0,-31.0,-42.0,-16.0,-4.0,-3.0
1701799507.9736705,9.0,20.0,30.0,44.0,33.0,19.0,22.0,15.0
1701799507.9736705,-10.0,-20.0,-24.0,32.0,27.0,3.0,-14.0,-11.0
1701799507.9736705,-3.0,-14.0,-65.0,-81.0,-49.0,-11.0,-4.0,-5.0
1701799507.9736705,-5.0,-1.0,26.0,21.0,-8.0,-4.0,-4.0,2.0
1701799507.9798095,1.0,9.0,-24.0,-36.0,-12.0,1.0,10.0,4.0
1701799507.9798095,1.0,-12.0,37.0,69.0,46.0,7.0,0.0,2.0
1701799507.9798095,-2.0,-1.0,0.0,35.0,-2.0,-2.0,-6.0,1.0
1701799507.9798095,-2.0,4.0,15.0,-5.0,-4.0,0.0,3.0,0.0
1701799507.9889927,4.0,-21.0,28.0,-56.0,-89.0,-22.0,-4.0,1.0
1701799507.9899917,-5.0,13.0,-48.0,-44.0,46.0,18.0,-2.0,1.0
1701799508.006408,-6.0,-20.0,-22.0,16.0,15.0,-8.0,-6.0,-2.0
1701799508.0073984,-3.0,4.0,42.0,61.0,34.0,13.0,7.0,2.0
1701799508.0149212,1.0,7.0,-8.0,-5.0,-4.0,1.0,4.0,-1.0
1701799508.0149212,2.0,5.0,-33.0,-88.0,-55.0,-19.0,-17.0,-12.0
1701799508.0149212,1.0,11.0,13.0,7.0,-6.0,-6.0,-4.0,-18.0
1701799508.0149212,5.0,-6.0,10.0,9.0,13.0,5.0,10.0,22.0
1701799508.0149212,2.0,26.0,-63.0,10.0,14.0,-1.0,1.0,5.0
1701799508.0149212,1.0,-44.0,28.0,-18.0,-41.0,-10.0,-6.0,-3.0
1701799508.0159621,1.0,28.0,18.0,20.0,47.0,4.0,1.0,15.0
1701799508.0159621,6.0,4.0,1.0,11.0,1.0,0.0,-13.0,-2.0
1701799508.033556,-13.0,-32.0,18.0,-3.0,6.0,9.0,25.0,21.0
1701799508.033556,0.0,25.0,22.0,-2.0,-7.0,-1.0,-7.0,1.0
1701799508.0373724,3.0,-6.0,1.0,5.0,-11.0,-2.0,8.0,-8.0
1701799508.0373724,-6.0,-4.0,-38.0,-38.0,-9.0,-4.0,17.0,-20.0
1701799508.0772166,6.0,13.0,-11.0,-3.0,10.0,-3.0,-12.0,10.0
1701799508.0772166,3.0,10.0,-10.0,9.0,-4.0,0.0,4.0,-5.0
1701799508.0772166,-8.0,-12.0,36.0,16.0,-2.0,0.0,-16.0,8.0
1701799508.0772166,1.0,5.0,1.0,-4.0,-2.0,1.0,-5.0,-11.0
1701799508.0772166,-6.0,-15.0,-12.0,-13.0,-6.0,-11.0,-11.0,-13.0
1701799508.0772166,2.0,0.0,13.0,4.0,-12.0,-6.0,-7.0,2.0
1701799508.0783174,4.0,-1.0,2.0,2.0,0.0,4.0,-5.0,-12.0
1701799508.0783174,1.0,-2.0,0.0,9.0,16.0,2.0,-7.0,2.0
1701799508.092411,-4.0,-5.0,-13.0,-5.0,9.0,2.0,3.0,-7.0
1701799508.092411,-2.0,6.0,21.0,7.0,-5.0,10.0,27.0,13.0
1701799508.1389458,-2.0,-1.0,-26.0,-23.0,-11.0,-12.0,-54.0,5.0
1701799508.1389458,-3.0,3.0,-29.0,-3.0,0.0,8.0,27.0,-28.0
1701799508.1389458,-3.0,-9.0,29.0,24.0,19.0,15.0,46.0,-9.0
1701799508.1389458,-10.0,1.0,4.0,-6.0,-13.0,-9.0,0.0,4.0
1701799508.1389458,0.0,-15.0,-19.0,-10.0,-1.0,-4.0,1.0,28.0
1701799508.1389458,7.0,7.0,17.0,-5.0,-8.0,-14.0,-33.0,10.0
1701799508.1389458,-5.0,-3.0,25.0,11.0,0.0,-11.0,-51.0,-15.0
1701799508.1389458,7.0,6.0,-43.0,-22.0,-2.0,6.0,-8.0,-24.0
1701799508.1834,13.0,3.0,8.0,3.0,-4.0,3.0,37.0,16.0
1701799508.1834,-5.0,3.0,7.0,-9.0,-4.0,0.0,2.0,6.0
1701799508.1834,-2.0,-8.0,-11.0,9.0,9.0,-3.0,3.0,1.0
1701799508.1834,-6.0,2.0,-3.0,-3.0,0.0,-2.0,-11.0,-5.0
1701799508.1872203,0.0,0.0,12.0,3.0,-1.0,9.0,-7.0,-10.0
1701799508.1872203,-2.0,-5.0,-13.0,-4.0,0.0,-7.0,-18.0,-12.0
1701799508.1872203,3.0,-7.0,0.0,1.0,1.0,-3.0,4.0,33.0
1701799508.1872203,-4.0,-10.0,4.0,-12.0,-18.0,-1.0,0.0,3.0
1701799508.1872203,13.0,44.0,19.0,9.0,7.0,3.0,5.0,-5.0
1701799508.1872203,0.0,-4.0,-51.0,-31.0,2.0,5.0,12.0,5.0
1701799508.242518,-13.0,-10.0,-6.0,-18.0,-15.0,-7.0,-12.0,-18.0
1701799508.242518,-4.0,-15.0,20.0,27.0,15.0,-4.0,-16.0,-3.0
1701799508.242518,0.0,3.0,7.0,14.0,1.0,4.0,19.0,1.0
1701799508.243576,-3.0,3.0,8.0,-2.0,-10.0,-1.0,1.0,4.0
1701799508.243576,-1.0,-1.0,-27.0,-41.0,-51.0,-14.0,-14.0,-11.0
1701799508.243576,6.0,11.0,6.0,17.0,38.0,10.0,13.0,11.0
1701799508.243576,-1.0,9.0,-33.0,-11.0,2.0,1.0,4.0,-6.0
1701799508.243576,-1.0,4.0,12.0,4.0,3.0,-4.0,-8.0,2.0
1701799508.243576,-8.0,-22.0,16.0,13.0,-5.0,-4.0,-6.0,-2.0
1701799508.243576,-1.0,16.0,4.0,-33.0,-75.0,-26.0,-9.0,-23.0
1701799508.243576,-10.0,-9.0,29.0,57.0,88.0,27.0,5.0,-10.0
1701799508.243576,6.0,21.0,-7.0,14.0,4.0,-2.0,-7.0,3.0
1701799508.2555027,-6.0,-48.0,-58.0,-91.0,-39.0,-7.0,4.0,2.0
1701799508.2555027,4.0,-3.0,101.0,88.0,44.0,10.0,1.0,4.0
1701799508.2621822,4.0,5.0,-64.0,-3.0,-22.0,-9.0,-7.0,-3.0
1701799508.2621822,-1.0,-23.0,8.0,-47.0,-33.0,-6.0,2.0,1.0
1701799508.316771,-1.0,34.0,3.0,48.0,30.0,9.0,0.0,-12.0
1701799508.316771,2.0,-6.0,-48.0,-55.0,-15.0,-5.0,-1.0,12.0
1701799508.316771,0.0,-6.0,28.0,-2.0,-17.0,-3.0,0.0,-5.0
1701799508.316771,-3.0,2.0,16.0,23.0,38.0,5.0,3.0,15.0
1701799508.316771,-2.0,5.0,12.0,-35.0,-38.0,-12.0,-5.0,-2.0
1701799508.3178244,4.0,-6.0,-49.0,35.0,62.0,11.0,-8.0,2.0
1701799508.3178244,-10.0,-14.0,9.0,-3.0,-23.0,-13.0,-2.0,2.0
1701799508.3178244,-3.0,-5.0,-14.0,-26.0,-39.0,-3.0,6.0,1.0
1701799508.3738494,5.0,14.0,-3.0,20.0,30.0,12.0,-1.0,1.0
1701799508.3738494,1.0,9.0,25.0,10.0,7.0,6.0,9.0,2.0
1701799508.3738494,-4.0,-9.0,7.0,-12.0,14.0,-1.0,-12.0,-11.0
1701799508.3738494,-4.0,-9.0,23.0,17.0,7.0,-9.0,-24.0,-7.0
1701799508.3769536,-4.0,0.0,62.0,45.0,-19.0,-10.0,-13.0,0.0
1701799508.3769536,0.0,5.0,-63.0,-44.0,-23.0,1.0,5.0,28.0
1701799508.3845377,6.0,-7.0,14.0,-1.0,-5.0,-2.0,18.0,26.0
1701799508.3845377,-5.0,0.0,-1.0,-18.0,2.0,11.0,49.0,13.0
1701799508.3845377,9.0,12.0,8.0,21.0,22.0,18.0,10.0,-11.0
1701799508.3845377,-2.0,-6.0,-32.0,-27.0,-11.0,-8.0,-19.0,-13.0
1701799508.3845377,-6.0,-5.0,19.0,-5.0,-4.0,-19.0,-63.0,-34.0
1701799508.3845377,5.0,-12.0,-16.0,11.0,4.0,8.0,13.0,14.0
1701799508.4024303,3.0,7.0,-12.0,7.0,23.0,8.0,55.0,29.0
1701799508.4024303,-8.0,-4.0,16.0,-12.0,-27.0,-4.0,17.0,-5.0
1701799508.4024303,-5.0,-5.0,-2.0,-8.0,-11.0,-6.0,-12.0,-24.0
1701799508.4024303,1.0,5.0,14.0,17.0,5.0,-6.0,-28.0,-28.0
1701799508.4024303,6.0,9.0,17.0,5.0,6.0,-2.0,-21.0,-16.0
1701799508.4024303,-5.0,-7.0,-17.0,-16.0,-7.0,-7.0,-5.0,23.0
1701799508.4024303,0.0,3.0,-10.0,-11.0,-12.0,-4.0,-1.0,12.0
1701799508.4024303,6.0,-5.0,6.0,12.0,5.0,-3.0,-31.0,2.0
1701799508.4247823,-5.0,5.0,-10.0,2.0,15.0,3.0,-18.0,-27.0
1701799508.4257815,-1.0,-8.0,17.0,-2.0,-8.0,6.0,63.0,16.0
1701799508.4268909,4.0,-19.0,-58.0,-31.0,-19.0,-6.0,6.0,2.0
1701799508.4268909,-21.0,11.0,3.0,5.0,3.0,4.0,13.0,-10.0
1701799508.4730544,10.0,18.0,24.0,10.0,12.0,-4.0,-23.0,11.0
1701799508.4730544,-8.0,-23.0,-7.0,-10.0,-12.0,-10.0,-27.0,-48.0
1701799508.4730544,-12.0,7.0,10.0,1.0,-1.0,11.0,14.0,2.0
1701799508.4730544,10.0,10.0,-16.0,-8.0,-2.0,-12.0,-10.0,-7.0
1701799508.4730544,-4.0,7.0,19.0,10.0,9.0,5.0,8.0,18.0
1701799508.4730544,8.0,9.0,38.0,21.0,9.0,-2.0,-12.0,-20.0
1701799508.4730544,-3.0,-25.0,-86.0,-31.0,-10.0,2.0,8.0,2.0
1701799508.4730544,2.0,-14.0,18.0,-4.0,-9.0,-7.0,-10.0,0.0
1701799508.4774964,8.0,30.0,-2.0,6.0,11.0,4.0,8.0,14.0
1701799508.4774964,-1.0,-11.0,15.0,4.0,-7.0,-4.0,-8.0,8.0
1701799508.4792485,-8.0,-4.0,-27.0,-25.0,2.0,4.0,3.0,-6.0
1701799508.4792485,-5.0,-3.0,-19.0,-16.0,-6.0,-4.0,1.0,-8.0
1701799508.5394657,0.0,-9.0,-3.0,52.0,10.0,0.0,4.0,5.0
1701799508.5394657,2.0,1.0,-14.0,2.0,4.0,-3.0,-10.0,-9.0
1701799508.5394657,-1.0,4.0,42.0,-12.0,2.0,2.0,7.0,-4.0
1701799508.5394657,-1.0,0.0,-3.0,11.0,0.0,2.0,3.0,6.0
1701799508.5394657,-2.0,1.0,-20.0,-39.0,-28.0,-9.0,-4.0,-12.0
1701799508.5394657,-5.0,-29.0,-1.0,4.0,0.0,-6.0,-13.0,0.0
1701799508.5394657,1.0,6.0,-28.0,-39.0,-18.0,-6.0,1.0,10.0
1701799508.5394657,7.0,-1.0,-5.0,13.0,18.0,11.0,7.0,5.0
1701799508.5394657,-16.0,-37.0,20.0,79.0,54.0,5.0,-8.0,-18.0
1701799508.5394657,3.0,21.0,-43.0,-12.0,-20.0,-1.0,-2.0,-3.0
1701799508.5406327,3.0,-3.0,4.0,-37.0,-46.0,-15.0,-3.0,0.0
1701799508.5406327,0.0,1.0,-3.0,-31.0,6.0,4.0,5.0,1.0
1701799508.5863621,0.0,-2.0,1.0,-7.0,-14.0,-8.0,-8.0,-9.0
1701799508.5863621,-7.0,8.0,34.0,8.0,3.0,-2.0,-20.0,2.0
1701799508.5874069,-3.0,-13.0,-74.0,-25.0,3.0,-3.0,-16.0,-11.0
1701799508.5874069,-1.0,4.0,64.0,40.0,3.0,10.0,59.0,23.0
1701799508.5874069,-3.0,-9.0,-59.0,-43.0,-7.0,-1.0,2.0,3.0
1701799508.5874069,0.0,-2.0,-20.0,-53.0,-24.0,-9.0,-1.0,0.0
1701799508.5874069,-3.0,6.0,69.0,104.0,32.0,0.0,-17.0,-5.0
1701799508.5874069,1.0,1.0,-3.0,1.0,7.0,-6.0,-33.0,-7.0
1701799508.6331255,0.0,-9.0,-15.0,-14.0,-2.0,-9.0,-10.0,-15.0
1701799508.6331255,-2.0,5.0,-24.0,-31.0,-20.0,-2.0,12.0,-14.0
1701799508.6331255,-1.0,2.0,18.0,8.0,14.0,9.0,12.0,12.0
1701799508.6331255,-2.0,-6.0,-8.0,8.0,0.0,7.0,7.0,-11.0
1701799508.6331255,1.0,9.0,56.0,12.0,-11.0,-5.0,-6.0,14.0
1701799508.6331255,-2.0,-4.0,-63.0,-19.0,4.0,-9.0,-28.0,-12.0
1701799508.6331255,2.0,3.0,27.0,15.0,7.0,7.0,23.0,4.0
1701799508.6331255,1.0,-3.0,-7.0,9.0,-3.0,-8.0,-26.0,-13.0
1701799508.6331255,-3.0,-2.0,-16.0,-23.0,-11.0,-6.0,-4.0,-6.0
1701799508.6331255,0.0,10.0,19.0,12.0,9.0,10.0,31.0,21.0
1701799508.6421192,10.0,-4.0,5.0,6.0,3.0,7.0,15.0,-15.0
1701799508.6421192,-3.0,-26.0,-10.0,-10.0,-12.0,-8.0,-28.0,19.0
1701799508.6912258,-3.0,-1.0,-9.0,-17.0,-5.0,1.0,18.0,4.0
1701799508.6912258,3.0,8.0,17.0,9.0,3.0,-4.0,-15.0,-53.0
1701799508.6912258,-6.0,2.0,-3.0,1.0,-4.0,2.0,7.0,3.0
1701799508.6912258,-3.0,3.0,11.0,-4.0,-2.0,-4.0,-20.0,-28.0
1701799508.6912258,-1.0,5.0,-23.0,-13.0,-3.0,2.0,20.0,26.0
1701799508.6912258,3.0,7.0,8.0,11.0,2.0,0.0,-2.0,9.0
1701799508.6950195,11.0,-8.0,28.0,2.0,-4.0,-2.0,1.0,13.0
1701799508.6950195,-11.0,-22.0,0.0,0.0,-1.0,-6.0,-18.0,-24.0
1701799508.6986773,-5.0,-22.0,-47.0,-19.0,-6.0,2.0,1.0,3.0
1701799508.6986773,-2.0,31.0,20.0,11.0,3.0,0.0,7.0,19.0
1701799508.7042532,0.0,-2.0,3.0,2.0,-1.0,-10.0,-17.0,0.0
1701799508.7042532,6.0,17.0,14.0,5.0,3.0,2.0,16.0,11.0
1701799508.7503161,-1.0,2.0,4.0,4.0,4.0,5.0,-3.0,-8.0
1701799508.7503161,21.0,35.0,44.0,6.0,0.0,-5.0,-6.0,9.0
1701799508.7564812,-7.0,-10.0,1.0,-4.0,-7.0,-4.0,-3.0,-3.0
1701799508.7564812,-5.0,-6.0,-12.0,-6.0,3.0,-3.0,2.0,-3.0
1701799508.7564812,-3.0,-5.0,4.0,-3.0,-7.0,-2.0,-9.0,-6.0
1701799508.7574816,-9.0,-12.0,-28.0,-22.0,-14.0,-2.0,4.0,-2.0
1701799508.7574816,-4.0,1.0,-25.0,23.0,22.0,2.0,-3.0,1.0
1701799508.7574816,-2.0,4.0,3.0,-7.0,-6.0,1.0,8.0,-7.0
1701799508.7574816,-1.0,15.0,13.0,0.0,2.0,-1.0,-13.0,-20.0
1701799508.7574816,-3.0,-13.0,41.0,25.0,0.0,-3.0,-3.0,13.0
1701799508.7574816,-3.0,8.0,23.0,-22.0,-24.0,-11.0,0.0,-8.0
1701799508.7574816,0.0,-23.0,-31.0,10.0,10.0,8.0,9.0,15.0
1701799508.7842538,5.0,15.0,-11.0,7.0,11.0,5.0,-1.0,0.0
1701799508.7842538,-13.0,-36.0,-25.0,-27.0,-13.0,-6.0,-5.0,-5.0
1701799508.7842538,-1.0,-3.0,-13.0,8.0,-8.0,-6.0,-2.0,-6.0
1701799508.7842538,-3.0,12.0,-4.0,21.0,-1.0,-3.0,-1.0,1.0
1701799508.7983737,3.0,-2.0,31.0,-27.0,13.0,2.0,1.0,2.0
1701799508.7983737,0.0,11.0,32.0,82.0,27.0,2.0,-2.0,2.0
1701799508.8017,-6.0,-6.0,-15.0,-77.0,-26.0,-8.0,-3.0,0.0
1701799508.8017,1.0,14.0,69.0,87.0,-11.0,-3.0,5.0,5.0
1701799508.8103156,-4.0,-17.0,-46.0,-44.0,-14.0,-6.0,-5.0,-6.0
1701799508.8103156,-4.0,-3.0,-62.0,-7.0,5.0,-3.0,-5.0,0.0
1701799508.8515391,5.0,9.0,14.0,-19.0,31.0,11.0,3.0,2.0
1701799508.8515391,2.0,-2.0,62.0,11.0,-4.0,8.0,5.0,4.0
1701799508.8515391,2.0,4.0,-7.0,50.0,21.0,7.0,-1.0,-1.0
1701799508.8515391,3.0,-5.0,8.0,-16.0,-13.0,-6.0,-8.0,14.0
1701799508.8515391,1.0,6.0,1.0,29.0,-1.0,5.0,8.0,17.0
1701799508.8515391,5.0,6.0,-54.0,-66.0,-11.0,-8.0,5.0,10.0
1701799508.8536522,-5.0,-9.0,22.0,-9.0,-6.0,-5.0,-1.0,10.0
1701799508.8536522,2.0,-9.0,-29.0,-17.0,2.0,7.0,5.0,4.0
1701799508.8618495,-9.0,-10.0,29.0,15.0,-1.0,-10.0,-13.0,-16.0
1701799508.8618495,1.0,6.0,-15.0,-26.0,-18.0,-9.0,-24.0,-3.0
1701799508.8729272,4.0,-1.0,12.0,21.0,6.0,5.0,18.0,10.0
1701799508.8729272,-4.0,-3.0,-13.0,-6.0,15.0,5.0,4.0,-3.0
1701799508.882823,-5.0,-2.0,4.0,13.0,-2.0,1.0,-12.0,-12.0
1701799508.882823,1.0,5.0,3.0,-16.0,-1.0,8.0,33.0,4.0
1701799508.9438727,-3.0,-5.0,-16.0,-9.0,-4.0,-9.0,-16.0,-9.0
1701799508.9438727,-3.0,5.0,12.0,-3.0,-5.0,-3.0,-7.0,-14.0
1701799508.9438727,19.0,1.0,-16.0,4.0,-4.0,-2.0,-11.0,5.0
1701799508.9438727,-13.0,-17.0,-13.0,-14.0,0.0,-6.0,-23.0,-54.0
1701799508.9438727,-34.0,-4.0,-12.0,-13.0,-14.0,-13.0,-8.0,-13.0
1701799508.9438727,0.0,3.0,21.0,3.0,3.0,16.0,27.0,18.0
1701799508.94493,-6.0,5.0,9.0,16.0,6.0,-1.0,15.0,5.0
1701799508.94493,4.0,1.0,-30.0,-16.0,5.0,2.0,-14.0,-14.0
1701799508.94493,22.0,3.0,37.0,15.0,-3.0,5.0,32.0,45.0
1701799508.94493,6.0,0.0,-2.0,-5.0,-7.0,-3.0,-28.0,-38.0
1701799508.9797618,8.0,19.0,8.0,2.0,-2.0,-16.0,-19.0,-14.0
1701799508.9797618,4.0,-43.0,-29.0,-12.0,-1.0,-3.0,-14.0,10.0
1701799508.9829655,-67.0,14.0,53.0,0.0,-5.0,2.0,-22.0,-7.0
1701799508.9829655,-17.0,9.0,-19.0,-17.0,-6.0,1.0,54.0,-3.0
1701799508.9829655,0.0,-20.0,6.0,1.0,3.0,-2.0,-14.0,-9.0
1701799508.9829655,-9.0,4.0,-4.0,2.0,1.0,-6.0,-12.0,12.0
1701799508.9829655,19.0,2.0,3.0,1.0,-6.0,-5.0,-23.0,44.0
1701799508.9829655,6.0,1.0,26.0,3.0,4.0,1.0,-2.0,-1.0
1701799508.9856088,-12.0,6.0,-4.0,-3.0,-6.0,2.0,1.0,-7.0
1701799508.9867802,-2.0,-10.0,-36.0,-30.0,-15.0,-4.0,8.0,4.0
1701799509.014455,10.0,-14.0,-35.0,-14.0,-3.0,5.0,8.0,-11.0
1701799509.014455,7.0,1.0,26.0,20.0,10.0,-1.0,-6.0,5.0
1701799509.014455,14.0,10.0,-9.0,-23.0,-6.0,3.0,9.0,8.0
1701799509.014455,1.0,5.0,-6.0,4.0,9.0,-3.0,2.0,16.0
1701799509.0159488,11.0,3.0,-1.0,11.0,-12.0,-4.0,3.0,-16.0
1701799509.0159488,-4.0,5.0,21.0,9.0,-12.0,-10.0,-16.0,-6.0
1701799509.0193682,-11.0,-14.0,-28.0,-15.0,4.0,8.0,8.0,-3.0
1701799509.0193682,0.0,10.0,-14.0,-10.0,-1.0,4.0,10.0,3.0
1701799509.0997686,3.0,-9.0,-13.0,5.0,4.0,-2.0,-2.0,-18.0
1701799509.0997686,3.0,28.0,36.0,13.0,6.0,-7.0,-14.0,-1.0
1701799509.0997686,-8.0,-27.0,0.0,15.0,-26.0,-1.0,8.0,9.0
1701799509.1007686,3.0,17.0,6.0,-31.0,-19.0,1.0,7.0,2.0
1701799509.1092532,13.0,1.0,13.0,44.0,65.0,20.0,5.0,-8.0
1701799509.1092532,-10.0,-19.0,2.0,23.0,0.0,-4.0,-14.0,1.0
1701799509.1092532,2.0,27.0,-2.0,-43.0,-22.0,-6.0,2.0,3.0
1701799509.1092532,-9.0,-23.0,1.0,33.0,30.0,3.0,3.0,0.0
1701799509.1188054,3.0,6.0,37.0,4.0,-27.0,-10.0,-4.0,-13.0
1701799509.1188054,0.0,0.0,7.0,-9.0,-3.0,2.0,0.0,1.0
1701799509.1188054,-10.0,0.0,-23.0,14.0,13.0,1.0,-1.0,-6.0
1701799509.1188054,0.0,-4.0,20.0,-8.0,-11.0,-3.0,-2.0,-2.0
1701799509.1192372,1.0,-3.0,-31.0,-28.0,-1.0,-1.0,-2.0,-22.0
1701799509.1192372,2.0,-15.0,-13.0,-4.0,11.0,2.0,-4.0,-3.0
1701799509.1225686,2.0,-4.0,-3.0,-8.0,-5.0,-2.0,3.0,-2.0
1701799509.1225686,-5.0,-4.0,-24.0,-2.0,5.0,-3.0,-6.0,10.0
1701799509.1668797,-8.0,-2.0,-2.0,-1.0,-13.0,-5.0,-4.0,-2.0
1701799509.1668797,-4.0,-15.0,-39.0,-33.0,-23.0,-11.0,-10.0,-4.0
1701799509.1668797,-1.0,10.0,42.0,38.0,29.0,11.0,4.0,-4.0
1701799509.1668797,14.0,13.0,4.0,6.0,4.0,9.0,14.0,2.0
1701799509.1668797,-2.0,-1.0,8.0,-2.0,-3.0,-2.0,2.0,6.0
1701799509.1668797,3.0,-11.0,-13.0,-7.0,-6.0,-3.0,-2.0,0.0
1701799509.1668797,-11.0,-5.0,-11.0,4.0,4.0,-3.0,-19.0,-5.0
1701799509.1668797,-8.0,7.0,8.0,5.0,0.0,-3.0,-20.0,-5.0
1701799509.1679413,-1.0,2.0,-8.0,-17.0,-14.0,-3.0,11.0,-5.0
1701799509.1679413,21.0,-18.0,-13.0,-4.0,8.0,9.0,39.0,19.0
1701799509.1679413,8.0,-3.0,15.0,9.0,-2.0,-5.0,-6.0,2.0
