1701799196.156565,1.0,-2.0,-7.0,-3.0,-2.0,-2.0,-1.0,2.0
1701799196.1575665,-3.0,0.0,2.0,4.0,2.0,0.0,-2.0,-4.0
1701799196.1662982,-1.0,-2.0,-2.0,-4.0,-3.0,0.0,0.0,-1.0
1701799196.1662982,0.0,-4.0,7.0,-2.0,-4.0,-3.0,-2.0,-1.0
1701799196.2010117,4.0,0.0,-5.0,-4.0,-1.0,-1.0,1.0,4.0
1701799196.2010117,2.0,-1.0,-5.0,0.0,1.0,0.0,-4.0,-2.0
1701799196.2010117,-1.0,3.0,-8.0,-4.0,-2.0,-1.0,1.0,-2.0
1701799196.2010117,-4.0,3.0,14.0,4.0,1.0,1.0,-3.0,0.0
1701799196.2010117,3.0,-6.0,-13.0,-4.0,-2.0,2.0,4.0,-1.0
1701799196.2010117,-2.0,3.0,15.0,10.0,1.0,1.0,4.0,3.0
1701799196.2010117,8.0,3.0,18.0,1.0,-1.0,-1.0,-4.0,-2.0
1701799196.2010117,-3.0,-1.0,-27.0,-14.0,-5.0,-3.0,-4.0,-1.0
1701799196.210916,-2.0,-6.0,-26.0,-8.0,-3.0,0.0,-2.0,-2.0
1701799196.210916,1.0,0.0,-6.0,-1.0,0.0,0.0,0.0,0.0
1701799196.228522,-1.0,-1.0,15.0,4.0,2.0,-1.0,-1.0,0.0
1701799196.2287323,0.0,2.0,19.0,6.0,1.0,0.0,0.0,0.0
1701799196.2529798,-3.0,-2.0,-6.0,-1.0,-1.0,-3.0,-1.0,-3.0
1701799196.2529798,-4.0,-2.0,3.0,-1.0,-2.0,-1.0,1.0,1.0
1701799196.2529798,-2.0,0.0,-4.0,-2.0,-1.0,-3.0,-4.0,-6.0
1701799196.2529798,3.0,-1.0,-16.0,-4.0,0.0,-1.0,0.0,1.0
1701799196.2529798,-8.0,-3.0,-5.0,-4.0,0.0,-4.0,-3.0,-5.0
1701799196.2529798,0.0,-6.0,0.0,-3.0,-2.0,-1.0,-1.0,2.0
1701799196.2551544,-3.0,0.0,-5.0,-1.0,0.0,-1.0,0.0,0.0
1701799196.2551544,-1.0,-1.0,1.0,1.0,0.0,-2.0,-1.0,-2.0
1701799196.27671,1.0,-1.0,13.0,6.0,-1.0,-1.0,-1.0,-1.0
1701799196.27671,1.0,-1.0,-14.0,-5.0,-2.0,-2.0,-1.0,0.0
1701799196.2784348,1.0,-4.0,-19.0,-9.0,-1.0,1.0,0.0,1.0
1701799196.2784348,1.0,-2.0,25.0,6.0,-2.0,1.0,0.0,-1.0
1701799196.3104732,-4.0,3.0,5.0,3.0,2.0,1.0,-1.0,1.0
1701799196.3126903,1.0,-4.0,0.0,3.0,-4.0,-3.0,1.0,-2.0
1701799196.3361392,1.0,-3.0,-17.0,-3.0,-1.0,0.0,-1.0,2.0
1701799196.3361392,-12.0,-5.0,2.0,-4.0,0.0,0.0,-2.0,-8.0
1701799196.3473878,1.0,2.0,-12.0,-6.0,-3.0,-2.0,-1.0,2.0
1701799196.3473878,3.0,2.0,2.0,-7.0,-1.0,-1.0,-3.0,-1.0
1701799196.3473878,-4.0,0.0,-4.0,5.0,-1.0,0.0,-2.0,-6.0
1701799196.3473878,-1.0,3.0,14.0,3.0,-1.0,-1.0,-4.0,-2.0
1701799196.3473878,-4.0,-3.0,-7.0,-2.0,-2.0,-2.0,-2.0,-4.0
1701799196.3473878,5.0,-2.0,-5.0,0.0,0.0,-2.0,5.0,5.0
1701799196.366062,0.0,-1.0,-24.0,-11.0,-4.0,-2.0,0.0,2.0
1701799196.366062,-2.0,2.0,4.0,1.0,0.0,-1.0,1.0,1.0
1701799196.3911245,3.0,0.0,10.0,0.0,0.0,0.0,-3.0,-1.0
1701799196.3911245,-3.0,-2.0,-18.0,-8.0,0.0,-1.0,-3.0,-3.0
1701799196.3921242,-2.0,-1.0,19.0,8.0,1.0,0.0,-3.0,-2.0
1701799196.3921242,2.0,1.0,-3.0,1.0,0.0,-1.0,0.0,1.0
1701799196.3921242,-2.0,-1.0,-1.0,0.0,-4.0,-1.0,-1.0,-1.0
1701799196.3921242,0.0,2.0,13.0,9.0,1.0,1.0,-1.0,-2.0
1701799196.3921242,-2.0,-2.0,0.0,-5.0,-2.0,0.0,0.0,-1.0
1701799196.3921242,3.0,-1.0,-9.0,-6.0,-3.0,-1.0,0.0,0.0
1701799196.3981576,2.0,-3.0,-2.0,-1.0,0.0,0.0,1.0,0.0
1701799196.3981576,-4.0,-4.0,-6.0,-2.0,-2.0,-1.0,-2.0,-2.0
1701799196.4292588,-3.0,5.0,21.0,-2.0,-1.0,-2.0,-1.0,1.0
1701799196.4314048,7.0,0.0,0.0,2.0,-1.0,0.0,0.0,2.0
1701799196.44358,-13.0,-8.0,-12.0,1.0,-1.0,-2.0,-2.0,-2.0
1701799196.4445791,-3.0,2.0,-6.0,-1.0,-4.0,-1.0,-2.0,-5.0
1701799196.4445791,-7.0,-7.0,-13.0,-4.0,-1.0,-2.0,-3.0,0.0
1701799196.4445791,8.0,-4.0,-25.0,-7.0,1.0,-1.0,2.0,5.0
1701799196.4445791,2.0,5.0,7.0,0.0,2.0,-1.0,1.0,-4.0
1701799196.4445791,-1.0,-5.0,-5.0,-9.0,-3.0,-4.0,-1.0,-3.0
1701799196.4445791,-3.0,-1.0,11.0,7.0,0.0,-2.0,-1.0,0.0
1701799196.4445791,-3.0,0.0,2.0,0.0,0.0,-1.0,-1.0,-1.0
1701799196.4808562,2.0,0.0,-6.0,3.0,1.0,-1.0,-4.0,1.0
1701799196.4808562,0.0,2.0,22.0,3.0,-1.0,0.0,-3.0,0.0
1701799196.4808562,0.0,-1.0,1.0,0.0,-2.0,0.0,1.0,-4.0
1701799196.4808562,-5.0,-11.0,-44.0,-14.0,-4.0,-3.0,2.0,0.0
1701799196.4832542,-5.0,4.0,14.0,-5.0,-4.0,0.0,1.0,1.0
1701799196.4832542,-1.0,-6.0,-21.0,-2.0,-1.0,0.0,-2.0,-2.0
1701799196.4842556,2.0,3.0,37.0,8.0,0.0,0.0,0.0,2.0
1701799196.4867997,-3.0,2.0,-12.0,1.0,1.0,0.0,-2.0,-3.0
1701799196.487833,0.0,-12.0,11.0,1.0,0.0,-1.0,-1.0,-1.0
1701799196.487833,-3.0,1.0,5.0,-7.0,-1.0,-1.0,-2.0,-2.0
1701799196.4958022,0.0,-5.0,-19.0,-4.0,-1.0,-2.0,-2.0,-1.0
1701799196.4958022,-2.0,1.0,13.0,5.0,1.0,1.0,-3.0,-2.0
1701799196.5361798,4.0,2.0,4.0,-1.0,-2.0,0.0,-1.0,1.0
1701799196.5361798,0.0,0.0,11.0,2.0,1.0,-1.0,0.0,1.0
1701799196.5361798,0.0,1.0,8.0,6.0,0.0,0.0,-1.0,-1.0
1701799196.5361798,-2.0,0.0,25.0,5.0,1.0,0.0,0.0,-2.0
1701799196.5372183,1.0,-4.0,-27.0,-5.0,-1.0,-3.0,-2.0,1.0
1701799196.5372183,-6.0,2.0,-4.0,2.0,1.0,0.0,-1.0,-3.0
1701799196.5399346,-1.0,-2.0,-12.0,-5.0,-4.0,-1.0,0.0,-1.0
1701799196.5399346,-5.0,-3.0,4.0,-3.0,-2.0,-1.0,-2.0,-1.0
1701799196.5522635,1.0,-1.0,-11.0,0.0,-1.0,-2.0,0.0,-1.0
1701799196.5522635,8.0,-3.0,1.0,1.0,-2.0,-1.0,-3.0,0.0
1701799196.5552049,0.0,1.0,-16.0,-5.0,0.0,-2.0,-2.0,-1.0
1701799196.5552049,1.0,-3.0,-5.0,-6.0,-2.0,-1.0,0.0,-3.0
1701799196.592839,0.0,4.0,19.0,4.0,-2.0,-2.0,-2.0,-3.0
1701799196.592839,-2.0,5.0,-12.0,-5.0,0.0,0.0,1.0,-1.0
1701799196.592839,2.0,-1.0,15.0,2.0,-2.0,1.0,0.0,1.0
1701799196.592839,-3.0,-6.0,11.0,2.0,-1.0,0.0,0.0,-1.0
1701799196.5938404,16.0,2.0,-39.0,-13.0,-3.0,-2.0,1.0,6.0
1701799196.5938404,-12.0,-1.0,14.0,4.0,1.0,-1.0,-2.0,-10.0
1701799196.6000884,-2.0,0.0,-4.0,1.0,1.0,-2.0,-3.0,-2.0
1701799196.6000884,-6.0,-2.0,-17.0,-2.0,-1.0,0.0,0.0,-2.0
1701799196.6111925,1.0,4.0,26.0,5.0,0.0,-1.0,-2.0,-1.0
1701799196.6111925,2.0,-6.0,-17.0,-4.0,0.0,-3.0,-3.0,2.0
1701799196.6152728,0.0,0.0,-6.0,-5.0,2.0,0.0,0.0,-2.0
1701799196.6152728,1.0,-1.0,4.0,-3.0,-3.0,-1.0,-3.0,-2.0
1701799196.6617043,-4.0,-1.0,8.0,7.0,-3.0,1.0,-3.0,-2.0
1701799196.6617043,3.0,0.0,3.0,-5.0,-3.0,-2.0,0.0,2.0
1701799196.6652286,-4.0,-3.0,1.0,-3.0,-3.0,-2.0,-3.0,-2.0
1701799196.6652286,0.0,1.0,12.0,5.0,1.0,-1.0,0.0,0.0
1701799196.6652286,-4.0,-7.0,-20.0,-3.0,-2.0,-3.0,-3.0,-2.0
1701799196.6652286,-3.0,4.0,1.0,3.0,-3.0,-1.0,0.0,-1.0
1701799196.6652286,3.0,-1.0,-2.0,0.0,-1.0,1.0,1.0,0.0
1701799196.6652286,0.0,0.0,-1.0,0.0,-1.0,-1.0,-1.0,-1.0
1701799196.713771,-5.0,0.0,6.0,1.0,0.0,-3.0,0.0,-3.0
1701799196.713771,1.0,-3.0,5.0,5.0,-1.0,-1.0,0.0,0.0
1701799196.713771,0.0,2.0,2.0,-8.0,-2.0,-1.0,-1.0,-1.0
1701799196.713771,-1.0,-2.0,-13.0,-2.0,-2.0,-2.0,-2.0,-1.0
1701799196.713771,-4.0,1.0,16.0,3.0,0.0,1.0,-1.0,-3.0
1701799196.713771,2.0,-2.0,-9.0,-4.0,-2.0,0.0,2.0,1.0
1701799196.713771,-3.0,-9.0,-41.0,-15.0,-4.0,-3.0,0.0,-2.0
1701799196.713771,-1.0,-1.0,12.0,1.0,-3.0,-2.0,-2.0,-2.0
1701799196.7148707,-5.0,-1.0,-1.0,-2.0,0.0,-1.0,0.0,-1.0
1701799196.7148707,-6.0,3.0,20.0,4.0,-1.0,1.0,-1.0,1.0
1701799196.72024,-1.0,-3.0,-10.0,1.0,0.0,-2.0,-3.0,0.0
1701799196.72024,-3.0,0.0,-3.0,-4.0,-1.0,-3.0,-4.0,-2.0
1701799196.7660186,-2.0,-1.0,-11.0,-6.0,-2.0,-1.0,-1.0,-3.0
1701799196.7660186,1.0,1.0,-15.0,-5.0,-4.0,0.0,-1.0,1.0
1701799196.7660186,-3.0,-6.0,22.0,2.0,-3.0,-4.0,-1.0,0.0
1701799196.7660186,2.0,-5.0,-21.0,-7.0,0.0,-1.0,0.0,-1.0
1701799196.7660186,9.0,-4.0,9.0,3.0,-2.0,-3.0,2.0,4.0
1701799196.7660186,-23.0,-6.0,-2.0,-3.0,1.0,0.0,-3.0,-12.0
1701799196.7660186,-3.0,2.0,-1.0,6.0,0.0,0.0,-1.0,-1.0
1701799196.7660186,4.0,2.0,25.0,6.0,1.0,-2.0,-2.0,0.0
1701799196.7787616,-8.0,1.0,6.0,-1.0,0.0,0.0,-1.0,-2.0
1701799196.7787616,4.0,-6.0,-15.0,3.0,2.0,0.0,1.0,4.0
1701799196.7798898,0.0,-5.0,-12.0,-14.0,-3.0,-2.0,-6.0,-7.0
1701799196.7798898,3.0,2.0,3.0,3.0,2.0,2.0,6.0,4.0
1701799196.7931845,2.0,6.0,-13.0,-10.0,-3.0,-3.0,-2.0,-1.0
1701799196.7931845,4.0,-11.0,9.0,2.0,-3.0,-2.0,0.0,2.0
1701799196.7995055,-4.0,11.0,6.0,9.0,2.0,0.0,-1.0,-4.0
1701799196.7995055,0.0,1.0,10.0,-7.0,-4.0,-2.0,-4.0,-2.0
1701799196.8366027,-2.0,-3.0,-22.0,-2.0,1.0,-2.0,0.0,-2.0
1701799196.8376,4.0,6.0,25.0,1.0,-3.0,2.0,2.0,-1.0
1701799196.8376,1.0,-7.0,12.0,7.0,0.0,0.0,-1.0,-3.0
1701799196.8376,0.0,1.0,-36.0,7.0,0.0,-1.0,0.0,0.0
1701799196.8474834,0.0,-3.0,-4.0,-24.0,-3.0,-1.0,2.0,3.0
1701799196.8474834,4.0,-3.0,-18.0,-4.0,0.0,-3.0,-5.0,-1.0
1701799196.8474834,-14.0,0.0,15.0,2.0,-1.0,1.0,1.0,3.0
1701799196.8477492,8.0,8.0,12.0,15.0,0.0,-3.0,-2.0,-8.0
1701799196.8738163,-15.0,-5.0,3.0,21.0,7.0,1.0,-2.0,1.0
1701799196.8738163,9.0,3.0,-3.0,-26.0,-8.0,-3.0,2.0,4.0
1701799196.874818,0.0,-1.0,-2.0,-11.0,-5.0,-3.0,0.0,0.0
1701799196.874818,10.0,3.0,5.0,-1.0,-1.0,0.0,2.0,7.0
1701799196.875934,2.0,8.0,-3.0,-2.0,-1.0,0.0,-5.0,-9.0
1701799196.875934,-3.0,10.0,0.0,7.0,3.0,-1.0,-2.0,-2.0
1701799196.8775148,-1.0,-24.0,-7.0,10.0,1.0,-2.0,-2.0,-10.0
1701799196.8775148,-9.0,-7.0,0.0,-9.0,-3.0,-1.0,-6.0,2.0
1701799196.9323795,2.0,-5.0,-17.0,2.0,2.0,-1.0,3.0,6.0
1701799196.9323795,0.0,4.0,-11.0,-3.0,-4.0,-1.0,-1.0,1.0
1701799196.9323795,4.0,11.0,27.0,-1.0,-1.0,-1.0,1.0,-1.0
1701799196.9323795,-3.0,-10.0,-21.0,-6.0,-1.0,-3.0,0.0,-2.0
1701799196.9323795,2.0,-1.0,7.0,1.0,-2.0,-3.0,-3.0,-4.0
1701799196.9323795,-2.0,0.0,2.0,13.0,7.0,1.0,1.0,-5.0
1701799196.9323795,3.0,7.0,26.0,-24.0,-10.0,-3.0,-2.0,2.0
1701799196.9323795,-11.0,-7.0,-16.0,1.0,-1.0,-1.0,-2.0,-8.0
1701799196.9344122,-3.0,-3.0,-31.0,-11.0,-5.0,-1.0,1.0,-1.0
1701799196.9344122,5.0,0.0,4.0,-6.0,-1.0,-3.0,-2.0,2.0
1701799196.9378185,7.0,6.0,-24.0,6.0,2.0,0.0,0.0,3.0
1701799196.9378185,0.0,-3.0,23.0,-2.0,-3.0,-2.0,-2.0,-2.0
1701799196.9909616,-14.0,-11.0,16.0,5.0,-5.0,-3.0,-4.0,-7.0
1701799196.9909616,-7.0,2.0,4.0,-5.0,-6.0,-4.0,-1.0,-3.0
1701799196.9909616,-1.0,-7.0,4.0,13.0,8.0,7.0,1.0,2.0
1701799196.9909616,-3.0,-2.0,-33.0,-17.0,-5.0,-4.0,-1.0,-2.0
1701799196.9909616,3.0,-3.0,12.0,3.0,-10.0,-2.0,-3.0,-1.0
1701799196.9909616,-2.0,-14.0,-5.0,2.0,19.0,5.0,1.0,-3.0
1701799196.9909616,-2.0,4.0,-6.0,10.0,-2.0,-5.0,-4.0,-8.0
1701799196.9909616,-2.0,-3.0,7.0,-9.0,-4.0,2.0,0.0,4.0
1701799196.9928036,6.0,5.0,2.0,5.0,3.0,1.0,3.0,-1.0
1701799196.9928036,-3.0,6.0,19.0,18.0,-7.0,-3.0,-1.0,-1.0
1701799196.9975774,3.0,1.0,-14.0,-35.0,-8.0,0.0,2.0,4.0
1701799196.9975774,-6.0,-4.0,-14.0,-1.0,3.0,-2.0,-3.0,-7.0
1701799197.0480564,7.0,4.0,19.0,1.0,-3.0,-1.0,-3.0,-2.0
1701799197.0480564,1.0,1.0,-6.0,-1.0,1.0,1.0,-1.0,3.0
1701799197.0480564,-10.0,-7.0,-6.0,11.0,1.0,-1.0,-1.0,-2.0
1701799197.0480564,-4.0,4.0,11.0,1.0,-1.0,-2.0,-3.0,-3.0
1701799197.0480564,-9.0,-3.0,-9.0,-7.0,0.0,-1.0,-2.0,0.0
1701799197.0480564,1.0,-1.0,-6.0,4.0,-2.0,1.0,-1.0,-4.0
1701799197.0492885,1.0,-2.0,3.0,-1.0,0.0,-2.0,-1.0,2.0
1701799197.0502899,3.0,2.0,7.0,5.0,0.0,0.0,2.0,3.0
1701799197.0562768,-4.0,4.0,6.0,-5.0,3.0,-1.0,-2.0,-5.0
1701799197.0562768,-1.0,-4.0,11.0,-8.0,-5.0,0.0,-2.0,3.0
1701799197.0730774,-2.0,2.0,-13.0,1.0,-4.0,-2.0,-2.0,-4.0
1701799197.0734584,9.0,13.0,20.0,22.0,3.0,2.0,2.0,6.0
1701799197.0893764,-9.0,-8.0,-13.0,-18.0,-4.0,0.0,0.0,-1.0
1701799197.0893764,6.0,-4.0,-12.0,-4.0,-4.0,-4.0,0.0,-2.0
1701799197.0893764,-2.0,-6.0,0.0,16.0,1.0,-3.0,-8.0,-7.0
1701799197.0893764,3.0,4.0,16.0,-12.0,1.0,0.0,9.0,5.0
1701799197.090489,0.0,3.0,-19.0,-8.0,0.0,-1.0,-1.0,0.0
1701799197.0927784,-1.0,-3.0,13.0,-10.0,-3.0,-1.0,-1.0,1.0
1701799197.0938866,-1.0,3.0,6.0,5.0,-3.0,-1.0,1.0,0.0
1701799197.0938866,-4.0,-5.0,6.0,12.0,3.0,-1.0,-5.0,-9.0
1701799197.1165047,3.0,0.0,14.0,2.0,-4.0,-1.0,-3.0,1.0
1701799197.1165047,-3.0,-1.0,-4.0,-5.0,-1.0,-2.0,-1.0,0.0
1701799197.1190913,2.0,0.0,-12.0,1.0,2.0,1.0,-2.0,1.0
1701799197.1190913,-8.0,1.0,-7.0,-10.0,-4.0,-1.0,-2.0,-3.0
1701799197.159431,2.0,-8.0,2.0,-1.0,-1.0,-2.0,1.0,1.0
1701799197.159431,-4.0,-1.0,-22.0,3.0,0.0,-1.0,-2.0,-3.0
1701799197.1604707,3.0,-2.0,0.0,-5.0,0.0,1.0,2.0,1.0
1701799197.1604707,-3.0,1.0,8.0,-1.0,-2.0,0.0,-1.0,0.0
1701799197.1604707,1.0,2.0,-12.0,2.0,1.0,-2.0,-1.0,-1.0
1701799197.1604707,-2.0,-3.0,14.0,7.0,0.0,-2.0,-3.0,-3.0
1701799197.1611478,-3.0,-1.0,-11.0,-11.0,0.0,-1.0,0.0,3.0
1701799197.1611478,-3.0,-2.0,-6.0,-4.0,-4.0,-1.0,-1.0,-4.0
1701799197.1765804,3.0,2.0,11.0,8.0,1.0,2.0,0.0,-3.0
1701799197.1765804,-3.0,-4.0,-17.0,-15.0,-4.0,-3.0,-1.0,-3.0
1701799197.2030632,-1.0,-2.0,4.0,0.0,-2.0,-1.0,-1.0,0.0
1701799197.2030632,-3.0,-2.0,-6.0,5.0,2.0,1.0,-3.0,-2.0
1701799197.2092304,1.0,0.0,-4.0,-2.0,-1.0,-1.0,-1.0,1.0
1701799197.2092304,0.0,-2.0,14.0,13.0,1.0,0.0,-2.0,2.0
1701799197.2092304,4.0,0.0,-13.0,-9.0,-2.0,0.0,-2.0,2.0
1701799197.2092304,-3.0,2.0,-14.0,-11.0,-3.0,-3.0,-3.0,-2.0
1701799197.2102613,-5.0,-7.0,5.0,4.0,0.0,-2.0,0.0,-4.0
1701799197.2102613,-1.0,1.0,-8.0,-5.0,-2.0,0.0,-1.0,-2.0
1701799197.2260098,0.0,-1.0,10.0,2.0,-1.0,-2.0,1.0,0.0
1701799197.2260098,2.0,-3.0,0.0,0.0,0.0,0.0,0.0,1.0
1701799197.237203,-1.0,1.0,-8.0,-3.0,-4.0,1.0,-1.0,0.0
1701799197.237203,-3.0,-9.0,-10.0,0.0,-2.0,1.0,-1.0,-5.0
1701799197.2718818,0.0,-5.0,-3.0,0.0,0.0,-2.0,0.0,0.0
1701799197.2735093,-2.0,-3.0,3.0,-14.0,-3.0,-3.0,-2.0,-1.0
1701799197.2883794,0.0,1.0,-4.0,-2.0,-1.0,0.0,-1.0,0.0
1701799197.2883794,1.0,11.0,11.0,5.0,2.0,-1.0,0.0,2.0
1701799197.2883794,-5.0,-5.0,-6.0,1.0,-3.0,-2.0,-1.0,-1.0
1701799197.2883794,2.0,0.0,10.0,6.0,0.0,-1.0,0.0,-1.0
1701799197.2883794,0.0,-2.0,-15.0,-15.0,0.0,-2.0,-1.0,-1.0
1701799197.2883794,-1.0,-2.0,-12.0,-6.0,-3.0,-2.0,-1.0,1.0
1701799197.2883794,-2.0,6.0,2.0,0.0,0.0,-1.0,1.0,1.0
1701799197.289462,-4.0,-5.0,4.0,1.0,-3.0,-1.0,-2.0,-1.0
1701799197.2972434,4.0,2.0,3.0,11.0,0.0,-1.0,-2.0,0.0
1701799197.2972434,3.0,-1.0,-3.0,-11.0,-4.0,0.0,-2.0,-1.0
1701799197.3241684,-6.0,-2.0,-17.0,-9.0,-2.0,0.0,0.0,-2.0
1701799197.3255184,-6.0,-4.0,-1.0,4.0,-2.0,-2.0,-3.0,-3.0
1701799197.3440526,-4.0,3.0,8.0,-2.0,-1.0,-1.0,-1.0,-1.0
1701799197.3440526,6.0,-4.0,-6.0,4.0,0.0,0.0,0.0,3.0
1701799197.3440526,-7.0,8.0,11.0,-6.0,-1.0,-1.0,-2.0,-4.0
1701799197.3440526,-1.0,-5.0,-19.0,-1.0,0.0,0.0,1.0,0.0
1701799197.3440526,-3.0,-6.0,26.0,6.0,-2.0,-2.0,0.0,-2.0
1701799197.3440526,-5.0,-4.0,-41.0,-12.0,-3.0,-1.0,-2.0,-2.0
1701799197.3440526,5.0,-7.0,8.0,1.0,0.0,-1.0,1.0,4.0
1701799197.3440526,3.0,3.0,7.0,-1.0,0.0,-1.0,0.0,-3.0
1701799197.3871224,1.0,-1.0,-14.0,0.0,0.0,-1.0,-2.0,-1.0
1701799197.3871224,-4.0,-6.0,22.0,-2.0,-2.0,-2.0,-2.0,-4.0
1701799197.3871224,1.0,1.0,-6.0,10.0,-1.0,0.0,-3.0,-1.0
1701799197.3871224,-2.0,-2.0,-23.0,-9.0,-3.0,-1.0,-3.0,-2.0
1701799197.3871224,0.0,-4.0,1.0,7.0,1.0,0.0,0.0,-1.0
1701799197.3871224,0.0,5.0,16.0,2.0,-2.0,-2.0,1.0,-1.0
1701799197.3871224,-2.0,-1.0,-11.0,-7.0,-2.0,-1.0,-2.0,-2.0
1701799197.3871224,-1.0,0.0,5.0,-2.0,-2.0,-1.0,0.0,-1.0
1701799197.3892162,0.0,0.0,-10.0,-6.0,-1.0,1.0,-3.0,0.0
1701799197.3892162,-3.0,3.0,7.0,12.0,0.0,-1.0,-3.0,-3.0
1701799197.400573,2.0,-5.0,2.0,-8.0,-2.0,-1.0,0.0,0.0
1701799197.400573,1.0,-9.0,-7.0,-5.0,-2.0,-2.0,-1.0,-1.0
1701799197.4279754,1.0,3.0,1.0,2.0,-1.0,0.0,-1.0,0.0
1701799197.4279754,-3.0,-3.0,-2.0,-7.0,-1.0,-1.0,-3.0,-4.0
1701799197.4308455,0.0,-1.0,-9.0,4.0,1.0,-2.0,0.0,0.0
1701799197.4308455,-2.0,-1.0,-3.0,-1.0,1.0,-1.0,0.0,-2.0
1701799197.4390416,-3.0,-4.0,-4.0,-3.0,-2.0,-2.0,1.0,-2.0
1701799197.4390416,2.0,3.0,14.0,6.0,1.0,-1.0,0.0,1.0
1701799197.4402893,6.0,3.0,7.0,1.0,-2.0,-1.0,1.0,0.0
1701799197.4402893,-14.0,-2.0,-4.0,-6.0,-2.0,0.0,-2.0,-3.0
1701799197.4626482,-1.0,1.0,3.0,2.0,1.0,-1.0,-2.0,-1.0
1701799197.4626482,-2.0,-2.0,-11.0,-3.0,-1.0,-1.0,0.0,-1.0
1701799197.496295,0.0,-2.0,0.0,-2.0,0.0,-1.0,-3.0,-2.0
1701799197.496295,2.0,4.0,5.0,6.0,-1.0,-2.0,0.0,0.0
1701799197.516467,1.0,6.0,18.0,2.0,0.0,0.0,0.0,0.0
1701799197.516467,-3.0,2.0,-16.0,-10.0,-1.0,-2.0,-3.0,-1.0
1701799197.516467,-2.0,-5.0,10.0,2.0,0.0,1.0,-2.0,1.0
1701799197.516467,0.0,-9.0,-23.0,-2.0,-2.0,-1.0,-2.0,0.0
1701799197.516467,-2.0,0.0,5.0,1.0,-4.0,-1.0,-1.0,1.0
1701799197.516467,5.0,0.0,3.0,-4.0,-2.0,-1.0,1.0,3.0
1701799197.516467,-1.0,-1.0,-14.0,0.0,-1.0,-1.0,-1.0,-5.0
1701799197.516467,-3.0,7.0,33.0,8.0,1.0,1.0,-2.0,0.0
1701799197.5465646,-4.0,-6.0,-48.0,-16.0,-3.0,-4.0,-3.0,-2.0
1701799197.5465646,1.0,3.0,15.0,7.0,1.0,0.0,-1.0,-1.0
1701799197.5465646,1.0,-5.0,11.0,0.0,-2.0,-2.0,-2.0,-1.0
1701799197.5465646,2.0,0.0,-8.0,-2.0,-1.0,0.0,1.0,0.0
1701799197.5465646,-1.0,-1.0,9.0,0.0,-1.0,-3.0,-3.0,0.0
1701799197.5465646,-10.0,-3.0,3.0,-1.0,0.0,0.0,-2.0,-1.0
1701799197.5485635,2.0,-3.0,-18.0,-1.0,-2.0,0.0,-4.0,-1.0
1701799197.5485635,3.0,3.0,-2.0,-2.0,-1.0,-1.0,1.0,-2.0
1701799197.55059,0.0,-5.0,18.0,2.0,2.0,-2.0,0.0,-2.0
1701799197.55059,1.0,-3.0,-10.0,-1.0,-3.0,-3.0,-1.0,-3.0
1701799197.5600371,-2.0,1.0,4.0,-1.0,0.0,-3.0,2.0,1.0
1701799197.5600371,-1.0,-4.0,4.0,0.0,0.0,0.0,-4.0,-2.0
1701799197.599588,-3.0,3.0,-2.0,0.0,-2.0,0.0,-3.0,0.0
1701799197.599588,-3.0,-3.0,12.0,8.0,-1.0,-3.0,-2.0,-3.0
1701799197.6005912,1.0,2.0,-3.0,-8.0,3.0,1.0,1.0,1.0
1701799197.6005912,-3.0,3.0,-3.0,-4.0,-7.0,-3.0,-2.0,-3.0
1701799197.6008663,-2.0,-5.0,3.0,4.0,2.0,2.0,-2.0,-2.0
1701799197.6008663,1.0,-2.0,-3.0,-17.0,-5.0,-2.0,-2.0,-2.0
1701799197.6028724,-3.0,-4.0,-30.0,3.0,1.0,-1.0,-1.0,-2.0
1701799197.6028724,4.0,2.0,1.0,-3.0,-4.0,-3.0,-1.0,-1.0
1701799197.6264458,-6.0,2.0,1.0,-2.0,-1.0,0.0,0.0,0.0
1701799197.6264458,2.0,-4.0,12.0,4.0,0.0,-1.0,1.0,0.0
1701799197.6307065,-1.0,1.0,23.0,2.0,-4.0,-1.0,-1.0,-3.0
1701799197.6307065,-2.0,-3.0,-27.0,-8.0,-1.0,-2.0,-2.0,-2.0
1701799197.665817,2.0,3.0,3.0,5.0,0.0,-1.0,2.0,1.0
1701799197.665817,-1.0,-4.0,-7.0,-2.0,-1.0,1.0,-2.0,-2.0
1701799197.665817,-1.0,5.0,10.0,1.0,-2.0,0.0,-1.0,-1.0
1701799197.665817,-5.0,-4.0,8.0,-5.0,-1.0,0.0,0.0,2.0
1701799197.665817,1.0,-4.0,-17.0,-7.0,-3.0,-2.0,-1.0,-1.0
1701799197.665817,-1.0,-3.0,-18.0,-5.0,-1.0,-2.0,-1.0,-3.0
1701799197.665817,-5.0,-1.0,-2.0,2.0,0.0,1.0,0.0,0.0
1701799197.665817,2.0,5.0,8.0,5.0,2.0,2.0,-1.0,0.0
1701799197.720816,2.0,-1.0,-17.0,-6.0,0.0,1.0,-1.0,3.0
1701799197.7218244,-5.0,-8.0,2.0,3.0,-4.0,-3.0,-3.0,-7.0
1701799197.7218244,-2.0,0.0,7.0,-7.0,-2.0,-2.0,-1.0,-2.0
1701799197.7218244,4.0,-1.0,-10.0,5.0,0.0,0.0,0.0,1.0
1701799197.7218244,-2.0,6.0,31.0,4.0,0.0,-2.0,1.0,-2.0
1701799197.7218244,0.0,-1.0,-16.0,-4.0,2.0,1.0,-2.0,2.0
1701799197.7218244,-2.0,0.0,-9.0,-1.0,1.0,1.0,1.0,-2.0
1701799197.7218244,1.0,3.0,12.0,2.0,1.0,-1.0,-1.0,-1.0
1701799197.7218244,4.0,14.0,60.0,8.0,-3.0,1.0,-1.0,-1.0
1701799197.7218244,-5.0,-33.0,-74.0,-14.0,-4.0,-2.0,-2.0,0.0
1701799197.7218244,-5.0,-6.0,0.0,-5.0,-2.0,-4.0,-4.0,-2.0
1701799197.723615,2.0,11.0,43.0,4.0,4.0,0.0,2.0,-1.0
1701799197.781063,-6.0,-24.0,-54.0,-2.0,-6.0,-5.0,-2.0,-3.0
1701799197.782071,4.0,18.0,35.0,0.0,0.0,0.0,1.0,3.0
1701799197.782071,1.0,-1.0,-2.0,-4.0,-1.0,-1.0,-1.0,-1.0
1701799197.782071,-3.0,0.0,-6.0,-3.0,-4.0,-2.0,-1.0,-3.0
1701799197.782071,3.0,7.0,12.0,2.0,1.0,1.0,1.0,1.0
1701799197.782071,1.0,-3.0,9.0,14.0,2.0,3.0,1.0,3.0
1701799197.782071,-8.0,-17.0,-42.0,-18.0,-10.0,-6.0,-6.0,-8.0
1701799197.782071,-5.0,-3.0,-24.0,-8.0,-3.0,-3.0,0.0,-1.0
1701799197.7853992,1.0,16.0,37.0,2.0,1.0,1.0,-3.0,-4.0
1701799197.7853992,0.0,8.0,-10.0,-2.0,1.0,1.0,1.0,1.0
1701799197.7853992,0.0,-1.0,91.0,25.0,6.0,2.0,0.0,3.0
1701799197.7853992,2.0,-24.0,-49.0,-7.0,-4.0,-3.0,-3.0,2.0
1701799197.8335567,-4.0,-5.0,-19.0,-16.0,-1.0,-3.0,-2.0,-8.0
1701799197.8335567,2.0,26.0,34.0,7.0,0.0,0.0,2.0,-1.0
1701799197.8335567,-2.0,-17.0,-70.0,3.0,-1.0,0.0,0.0,0.0
1701799197.8335567,6.0,35.0,59.0,9.0,3.0,3.0,1.0,0.0
1701799197.8383567,-10.0,-48.0,-97.0,-27.0,-9.0,-7.0,-5.0,-2.0
1701799197.8383567,0.0,14.0,0.0,1.0,2.0,0.0,-2.0,-1.0
1701799197.8383567,4.0,3.0,20.0,-2.0,0.0,1.0,0.0,-2.0
1701799197.8383567,-1.0,-10.0,-40.0,4.0,2.0,1.0,0.0,-2.0
1701799197.8383567,1.0,4.0,21.0,9.0,2.0,1.0,1.0,2.0
1701799197.8383567,2.0,18.0,24.0,-6.0,-5.0,-2.0,0.0,-2.0
1701799197.8403766,1.0,-2.0,-53.0,-2.0,-2.0,-3.0,-1.0,2.0
1701799197.8403766,-7.0,-10.0,2.0,-3.0,-3.0,-5.0,-3.0,-4.0
1701799197.858217,2.0,29.0,34.0,4.0,2.0,3.0,1.0,1.0
1701799197.858217,1.0,-17.0,46.0,9.0,2.0,-3.0,-3.0,-1.0
1701799197.8594267,-2.0,-19.0,-66.0,-19.0,-5.0,-2.0,-3.0,-2.0
1701799197.8594267,-9.0,-6.0,25.0,0.0,0.0,-1.0,-4.0,-1.0
1701799197.9147553,4.0,3.0,-8.0,1.0,0.0,-2.0,-2.0,0.0
1701799197.9147553,-3.0,5.0,-18.0,1.0,1.0,1.0,1.0,1.0
1701799197.9147553,1.0,15.0,74.0,12.0,5.0,1.0,3.0,0.0
1701799197.9147553,-4.0,-16.0,7.0,-3.0,-4.0,-2.0,-1.0,-2.0
1701799197.9147553,-4.0,-26.0,-26.0,-4.0,-6.0,-3.0,-4.0,-4.0
1701799197.9147553,-1.0,13.0,-22.0,-9.0,2.0,1.0,0.0,-1.0
1701799197.9571295,1.0,-2.0,-6.0,3.0,1.0,0.0,-4.0,-1.0
1701799197.9571295,1.0,14.0,11.0,-8.0,-6.0,-1.0,-2.0,-4.0
1701799197.9607267,-4.0,12.0,53.0,7.0,0.0,1.0,0.0,-2.0
1701799197.9607267,1.0,-14.0,23.0,3.0,0.0,0.0,0.0,-3.0
1701799197.9607267,-7.0,6.0,-46.0,-11.0,-6.0,-5.0,-3.0,-1.0
1701799197.9607267,-1.0,-11.0,-19.0,1.0,1.0,-2.0,-2.0,-1.0
1701799197.9685054,4.0,7.0,-10.0,6.0,3.0,0.0,0.0,2.0
1701799197.9685054,-7.0,-16.0,-7.0,-11.0,-4.0,-3.0,-3.0,-3.0
1701799197.9685054,-3.0,23.0,14.0,3.0,-5.0,1.0,-1.0,-4.0
1701799197.9685054,7.0,13.0,21.0,12.0,3.0,1.0,-1.0,1.0
1701799197.9685054,-5.0,-32.0,-39.0,-7.0,-1.0,-1.0,-4.0,-4.0
1701799197.9685054,2.0,3.0,-11.0,-7.0,-2.0,-1.0,-1.0,2.0
1701799197.998959,1.0,7.0,38.0,3.0,0.0,1.0,1.0,2.0
1701799197.998959,-2.0,-9.0,-33.0,-7.0,1.0,-1.0,1.0,-1.0
1701799197.998959,2.0,13.0,12.0,0.0,-5.0,-2.0,0.0,0.0
1701799197.998959,-3.0,-3.0,12.0,1.0,-4.0,-3.0,0.0,-2.0
1701799197.998959,1.0,-16.0,-22.0,-3.0,-1.0,-2.0,-2.0,1.0
1701799197.998959,-8.0,1.0,5.0,-7.0,-4.0,-4.0,-3.0,-4.0
1701799197.999964,8.0,-8.0,-10.0,-6.0,1.0,1.0,1.0,2.0
1701799197.999964,-13.0,-2.0,-8.0,0.0,-1.0,-1.0,-3.0,-9.0
1701799198.0006907,-2.0,7.0,14.0,0.0,-2.0,-2.0,-1.0,3.0
1701799198.0006907,3.0,1.0,0.0,7.0,3.0,2.0,-1.0,3.0
1701799198.0119424,-4.0,3.0,20.0,3.0,-1.0,-1.0,-4.0,-4.0
1701799198.0119424,-2.0,1.0,-20.0,-8.0,-2.0,-1.0,0.0,0.0
1701799198.065888,3.0,-4.0,12.0,-4.0,-2.0,0.0,2.0,0.0
1701799198.065888,0.0,-5.0,-20.0,-2.0,1.0,-1.0,1.0,0.0
1701799198.065888,1.0,0.0,16.0,1.0,-2.0,-2.0,0.0,-3.0
1701799198.065888,-2.0,0.0,-8.0,8.0,1.0,-1.0,-3.0,1.0
1701799198.065888,-4.0,-6.0,-39.0,-13.0,-4.0,-1.0,-1.0,-1.0
1701799198.065888,-2.0,4.0,12.0,-5.0,0.0,0.0,1.0,1.0
1701799198.065888,13.0,-8.0,-9.0,5.0,-2.0,-4.0,-3.0,6.0
1701799198.065888,-10.0,-11.0,2.0,-7.0,-4.0,-3.0,-5.0,-10.0
1701799198.065888,-1.0,14.0,17.0,13.0,5.0,-2.0,-5.0,-10.0
1701799198.065888,12.0,-17.0,-5.0,-15.0,-5.0,1.0,-1.0,-4.0
1701799198.0692987,-15.0,12.0,0.0,1.0,0.0,1.0,4.0,8.0
1701799198.0692987,-1.0,7.0,16.0,5.0,0.0,1.0,3.0,6.0
1701799198.1240187,-4.0,2.0,25.0,2.0,-2.0,-1.0,-4.0,-5.0
1701799198.1240187,-4.0,8.0,16.0,9.0,2.0,-2.0,-2.0,-3.0
1701799198.126199,2.0,1.0,-7.0,-8.0,1.0,0.0,0.0,-2.0
1701799198.126199,-2.0,-20.0,-15.0,11.0,1.0,-4.0,-3.0,-1.0
1701799198.126199,-4.0,-4.0,-21.0,-24.0,-6.0,0.0,2.0,3.0
1701799198.126199,4.0,0.0,-3.0,0.0,-3.0,-3.0,-4.0,-3.0
1701799198.126199,-8.0,-1.0,12.0,1.0,1.0,-1.0,-1.0,-5.0
1701799198.126199,0.0,0.0,-28.0,-1.0,-1.0,-1.0,-1.0,-1.0
1701799198.126199,2.0,-2.0,13.0,9.0,0.0,0.0,0.0,0.0
1701799198.126199,-6.0,0.0,-1.0,1.0,0.0,-1.0,0.0,0.0
1701799198.149514,3.0,-5.0,19.0,-4.0,-2.0,0.0,1.0,0.0
1701799198.149514,2.0,2.0,3.0,-3.0,-3.0,-1.0,0.0,-1.0
1701799198.149514,-2.0,-15.0,-10.0,1.0,-1.0,-3.0,-2.0,-1.0
1701799198.149514,-3.0,-3.0,-14.0,-4.0,-4.0,2.0,-1.0,0.0
1701799198.1515584,-1.0,-3.0,-8.0,-2.0,-1.0,-1.0,-1.0,-2.0
1701799198.1515584,-2.0,-8.0,-9.0,-10.0,-4.0,-1.0,-4.0,-3.0
1701799198.1515584,6.0,7.0,32.0,9.0,1.0,0.0,-1.0,2.0
1701799198.1515584,0.0,1.0,-7.0,-2.0,-1.0,-2.0,-2.0,-2.0
1701799198.1738296,-8.0,-3.0,-25.0,-10.0,-3.0,-3.0,-3.0,-1.0
1701799198.1738296,2.0,-2.0,9.0,-3.0,-2.0,-2.0,0.0,2.0
1701799198.1822226,-2.0,-3.0,26.0,16.0,4.0,3.0,4.0,-3.0
1701799198.1822226,-1.0,-9.0,-19.0,-16.0,-7.0,-4.0,-1.0,0.0
1701799198.236418,-5.0,0.0,-23.0,-4.0,-3.0,-1.0,1.0,-8.0
1701799198.236418,1.0,2.0,-4.0,-2.0,0.0,0.0,-3.0,0.0
1701799198.236418,-5.0,4.0,1.0,-2.0,0.0,0.0,-3.0,-1.0
1701799198.236418,-3.0,-4.0,-14.0,0.0,1.0,1.0,0.0,-1.0
1701799198.236418,1.0,-1.0,3.0,-4.0,-2.0,0.0,0.0,1.0
1701799198.236418,-4.0,-16.0,-15.0,-10.0,-4.0,-2.0,-1.0,-1.0
1701799198.236418,13.0,6.0,-8.0,1.0,0.0,-2.0,-2.0,-2.0
1701799198.236418,-16.0,-6.0,9.0,8.0,-2.0,-2.0,0.0,-2.0
1701799198.2374253,-1.0,3.0,-40.0,-16.0,-2.0,-3.0,-2.0,1.0
1701799198.2374253,-4.0,-5.0,19.0,7.0,1.0,-1.0,1.0,-3.0
1701799198.2437854,1.0,2.0,1.0,-11.0,-3.0,-4.0,-3.0,-2.0
1701799198.24437,7.0,1.0,-14.0,-2.0,-2.0,-1.0,-1.0,0.0
1701799198.29151,-17.0,-4.0,22.0,14.0,1.0,-2.0,-4.0,-5.0
1701799198.29151,22.0,12.0,-9.0,-6.0,-3.0,-1.0,2.0,6.0
1701799198.29151,-14.0,-10.0,0.0,-3.0,-2.0,0.0,-2.0,-10.0
1701799198.29151,5.0,4.0,18.0,1.0,0.0,0.0,3.0,1.0
1701799198.2979622,9.0,2.0,-9.0,4.0,4.0,3.0,0.0,-2.0
1701799198.2979622,0.0,18.0,23.0,0.0,-1.0,-1.0,-3.0,0.0
1701799198.2979622,-4.0,-8.0,-18.0,-9.0,-4.0,0.0,-2.0,1.0
1701799198.2979622,-7.0,-2.0,-7.0,-3.0,-1.0,-4.0,-4.0,-1.0
1701799198.2995253,1.0,9.0,12.0,0.0,-1.0,0.0,-2.0,0.0
1701799198.2995253,-11.0,-11.0,-14.0,-4.0,-2.0,-3.0,-2.0,-4.0
1701799198.3011382,7.0,4.0,8.0,11.0,0.0,-1.0,-2.0,1.0
1701799198.302141,3.0,2.0,7.0,2.0,1.0,1.0,4.0,1.0
1701799198.3361948,-7.0,-1.0,13.0,8.0,-1.0,-1.0,-1.0,-3.0
1701799198.3361948,4.0,9.0,12.0,-3.0,0.0,0.0,-2.0,-1.0
1701799198.3361948,-14.0,-12.0,-49.0,-12.0,-1.0,-2.0,1.0,-1.0
1701799198.3361948,1.0,-1.0,-12.0,-7.0,-2.0,-1.0,-2.0,-2.0
1701799198.337711,-1.0,-5.0,-4.0,-1.0,-2.0,0.0,-1.0,1.0
1701799198.337711,5.0,0.0,-6.0,2.0,0.0,0.0,2.0,2.0
1701799198.337711,-4.0,11.0,32.0,6.0,0.0,-3.0,-5.0,-6.0
1701799198.337711,-6.0,-5.0,6.0,2.0,1.0,3.0,-1.0,1.0
1701799198.377979,4.0,-2.0,-1.0,-5.0,-4.0,-2.0,-2.0,-2.0
1701799198.377979,-7.0,-8.0,9.0,2.0,1.0,0.0,-3.0,-1.0
1701799198.377979,5.0,6.0,10.0,2.0,0.0,-1.0,0.0,2.0
1701799198.377979,-1.0,2.0,28.0,9.0,2.0,-2.0,-4.0,-3.0
1701799198.37902,-3.0,-5.0,-22.0,-4.0,-3.0,-1.0,-1.0,-2.0
1701799198.37902,-2.0,-11.0,3.0,-5.0,-1.0,-3.0,0.0,-1.0
1701799198.37902,-2.0,5.0,-15.0,-3.0,0.0,-1.0,3.0,1.0
1701799198.37902,-2.0,-8.0,-12.0,-8.0,-4.0,-2.0,-2.0,0.0
1701799198.395617,6.0,-3.0,35.0,8.0,-2.0,-2.0,-6.0,-3.0
1701799198.395617,-39.0,-11.0,-48.0,-5.0,-1.0,-1.0,3.0,-4.0
1701799198.395617,14.0,-2.0,-4.0,-9.0,-4.0,-2.0,-4.0,-5.0
1701799198.395617,4.0,12.0,35.0,12.0,2.0,-3.0,-2.0,4.0
1701799198.4386632,-3.0,1.0,6.0,-6.0,-1.0,-1.0,0.0,-7.0
1701799198.4386632,7.0,-4.0,-22.0,-3.0,-2.0,-3.0,-13.0,-11.0
1701799198.4386632,-8.0,-11.0,10.0,-1.0,0.0,4.0,12.0,15.0
1701799198.4386632,-3.0,9.0,-23.0,-3.0,0.0,-1.0,1.0,-1.0
1701799198.4406981,4.0,-12.0,7.0,4.0,3.0,1.0,0.0,3.0
1701799198.4406981,10.0,1.0,-7.0,-9.0,-3.0,0.0,1.0,3.0
1701799198.4406981,-12.0,-1.0,-1.0,6.0,-1.0,-3.0,-7.0,-5.0
1701799198.4406981,0.0,-2.0,-30.0,-7.0,-5.0,-4.0,-4.0,-3.0
1701799198.4562747,-9.0,6.0,2.0,-2.0,-1.0,-1.0,4.0,3.0
1701799198.4562747,3.0,-5.0,1.0,2.0,-4.0,-4.0,-5.0,-3.0
1701799198.458666,6.0,-3.0,-7.0,-1.0,0.0,0.0,-1.0,1.0
1701799198.458666,-8.0,-1.0,5.0,2.0,2.0,1.0,0.0,3.0
1701799198.517183,7.0,7.0,-1.0,-1.0,3.0,1.0,-3.0,-1.0
1701799198.517183,3.0,1.0,31.0,10.0,0.0,-1.0,2.0,3.0
1701799198.517183,4.0,-9.0,-44.0,-14.0,-6.0,-2.0,-1.0,-1.0
1701799198.517183,-8.0,-6.0,17.0,5.0,1.0,0.0,-3.0,-3.0
1701799198.517183,-10.0,-1.0,-10.0,-2.0,-4.0,-2.0,0.0,-1.0
1701799198.517183,-2.0,-6.0,-14.0,-8.0,-1.0,0.0,-3.0,0.0
1701799198.517183,2.0,6.0,19.0,6.0,1.0,-1.0,-3.0,-1.0
1701799198.517183,3.0,-20.0,-45.0,-21.0,-8.0,-5.0,-2.0,-4.0
1701799198.5582874,-13.0,-5.0,7.0,2.0,-3.0,-3.0,-2.0,1.0
1701799198.5582874,3.0,19.0,35.0,14.0,5.0,5.0,2.0,0.0
1701799198.5582874,-4.0,-8.0,0.0,0.0,-5.0,-2.0,-4.0,-1.0
1701799198.5582874,0.0,-18.0,-53.0,-24.0,-10.0,-7.0,-8.0,-22.0
1701799198.5582874,-7.0,0.0,13.0,0.0,4.0,6.0,12.0,14.0
1701799198.5582874,12.0,-2.0,-3.0,1.0,-2.0,-2.0,1.0,2.0
1701799198.559286,5.0,3.0,11.0,2.0,3.0,1.0,-1.0,0.0
1701799198.559286,-4.0,14.0,25.0,15.0,4.0,0.0,-1.0,3.0
1701799198.566714,-4.0,-6.0,-12.0,-6.0,-5.0,-2.0,-1.0,-5.0
1701799198.566714,-3.0,5.0,15.0,0.0,-3.0,-2.0,-2.0,2.0
1701799198.566714,-8.0,3.0,-4.0,2.0,1.0,-1.0,-4.0,-7.0
1701799198.566714,3.0,4.0,-7.0,-5.0,-1.0,1.0,-3.0,1.0
1701799198.5976048,4.0,-5.0,-12.0,1.0,-1.0,-2.0,-3.0,-5.0
1701799198.5976048,-1.0,4.0,7.0,8.0,2.0,1.0,4.0,7.0
1701799198.5976048,20.0,-8.0,-38.0,-20.0,-4.0,-3.0,-3.0,-2.0
1701799198.5976048,-8.0,-2.0,34.0,11.0,3.0,4.0,0.0,3.0
1701799198.599034,-3.0,-12.0,-28.0,-11.0,-1.0,-5.0,-5.0,-2.0
1701799198.6007473,14.0,4.0,14.0,12.0,1.0,0.0,0.0,-6.0
1701799198.6007473,3.0,6.0,12.0,-1.0,1.0,-1.0,0.0,-1.0
1701799198.6007473,6.0,6.0,40.0,20.0,2.0,1.0,2.0,0.0
1701799198.622907,1.0,6.0,25.0,-1.0,1.0,1.0,-1.0,-1.0
1701799198.622907,3.0,-21.0,-103.0,-29.0,-5.0,-2.0,0.0,3.0
1701799198.6238034,-14.0,8.0,16.0,0.0,0.0,-1.0,-2.0,-5.0
1701799198.6238034,22.0,1.0,14.0,2.0,2.0,1.0,1.0,5.0
1701799198.67267,-6.0,2.0,8.0,-8.0,-2.0,-5.0,-3.0,-2.0
1701799198.67267,-18.0,10.0,7.0,-16.0,-5.0,-2.0,-2.0,-1.0
1701799198.67267,3.0,0.0,26.0,7.0,3.0,1.0,1.0,-6.0
1701799198.67267,8.0,-6.0,-20.0,-3.0,-4.0,0.0,-2.0,4.0
1701799198.67267,10.0,-5.0,-56.0,-3.0,-5.0,-4.0,-4.0,-4.0
1701799198.6736631,5.0,-10.0,26.0,9.0,0.0,1.0,-8.0,1.0
1701799198.6736631,-14.0,-1.0,-18.0,-5.0,-1.0,-2.0,6.0,2.0
1701799198.6736631,8.0,-13.0,24.0,38.0,9.0,0.0,-2.0,1.0
1701799198.6816142,-1.0,7.0,42.0,-20.0,-10.0,0.0,10.0,-2.0
1701799198.6816142,-5.0,18.0,-4.0,-1.0,2.0,0.0,-1.0,-10.0
1701799198.6816142,-4.0,-6.0,-28.0,-18.0,-4.0,-2.0,-5.0,5.0
1701799198.6816142,-32.0,-13.0,4.0,-6.0,-6.0,-6.0,-5.0,-6.0
1701799198.7373228,-3.0,2.0,9.0,23.0,6.0,0.0,-7.0,2.0
1701799198.7373228,-4.0,-17.0,-1.0,-8.0,-3.0,0.0,1.0,-3.0
1701799198.7373228,21.0,3.0,16.0,1.0,-1.0,-1.0,-1.0,0.0
1701799198.7373228,-22.0,-3.0,-14.0,-5.0,0.0,1.0,4.0,3.0
1701799198.7377954,4.0,13.0,5.0,9.0,2.0,-1.0,-3.0,-6.0
1701799198.7377954,-22.0,-28.0,-52.0,-17.0,-7.0,-4.0,-2.0,-4.0
1701799198.7377954,-4.0,14.0,28.0,3.0,-1.0,-4.0,1.0,-5.0
1701799198.7377954,-3.0,1.0,-16.0,-15.0,0.0,-1.0,0.0,-2.0
1701799198.7673337,11.0,0.0,20.0,26.0,5.0,0.0,0.0,2.0
1701799198.7673337,8.0,7.0,16.0,-23.0,-4.0,0.0,3.0,6.0
1701799198.768334,-23.0,-16.0,-27.0,-18.0,-9.0,-4.0,-4.0,-3.0
1701799198.768334,-17.0,9.0,-13.0,-8.0,1.0,-1.0,0.0,0.0
1701799198.768334,28.0,11.0,26.0,17.0,0.0,0.0,-6.0,-2.0
1701799198.768334,-1.0,-24.0,-12.0,35.0,6.0,0.0,6.0,1.0
1701799198.768334,0.0,7.0,15.0,1.0,-1.0,-2.0,-7.0,2.0
1701799198.768334,-7.0,-2.0,-5.0,-15.0,-7.0,-1.0,7.0,-3.0
1701799198.7800055,-6.0,4.0,-14.0,-12.0,0.0,-2.0,0.0,2.0
1701799198.7800055,3.0,-1.0,21.0,18.0,-2.0,-2.0,-4.0,-2.0
1701799198.7800055,-7.0,-7.0,-30.0,-13.0,1.0,0.0,-2.0,-6.0
1701799198.7800055,2.0,16.0,35.0,-27.0,-7.0,-3.0,-4.0,1.0
1701799198.8441489,-17.0,-37.0,-48.0,-10.0,-3.0,-2.0,1.0,-3.0
1701799198.8441489,-1.0,20.0,19.0,0.0,2.0,0.0,-1.0,-4.0
1701799198.8441489,10.0,12.0,19.0,22.0,4.0,2.0,3.0,2.0
1701799198.8441489,2.0,-13.0,-18.0,1.0,1.0,-1.0,-4.0,-4.0
1701799198.8441489,5.0,-4.0,-6.0,5.0,2.0,-1.0,-4.0,1.0
1701799198.8441489,5.0,-8.0,-13.0,-42.0,-4.0,1.0,2.0,2.0
1701799198.8441489,-26.0,-13.0,36.0,9.0,-4.0,-4.0,-2.0,-3.0
1701799198.8441489,9.0,3.0,-15.0,23.0,-1.0,-3.0,-1.0,2.0
1701799198.8441489,8.0,-1.0,-39.0,-20.0,-2.0,-1.0,-2.0,0.0
1701799198.8441489,-9.0,12.0,32.0,29.0,4.0,-1.0,-5.0,-5.0
1701799198.8441489,21.0,-7.0,9.0,1.0,5.0,1.0,0.0,13.0
1701799198.8441489,18.0,7.0,-6.0,-22.0,-5.0,-2.0,0.0,-12.0
1701799198.910272,-8.0,8.0,-1.0,10.0,0.0,1.0,2.0,1.0
1701799198.910272,0.0,5.0,-2.0,-5.0,0.0,-3.0,-2.0,-1.0
1701799198.910272,-4.0,4.0,-22.0,5.0,1.0,2.0,-3.0,-1.0
1701799198.910272,2.0,2.0,63.0,24.0,-3.0,-5.0,-1.0,1.0
1701799198.914586,-9.0,-6.0,-11.0,-27.0,-2.0,1.0,1.0,4.0
1701799198.914586,1.0,1.0,-28.0,7.0,1.0,-2.0,-4.0,-4.0
1701799198.914586,9.0,0.0,22.0,12.0,3.0,-1.0,-1.0,-2.0
1701799198.914586,-9.0,-13.0,-44.0,-23.0,-1.0,-2.0,-4.0,-2.0
1701799198.914586,6.0,8.0,13.0,-3.0,0.0,-2.0,-11.0,-9.0
1701799198.914586,-3.0,-3.0,19.0,9.0,-4.0,0.0,11.0,14.0
1701799198.914586,-9.0,-7.0,26.0,36.0,4.0,1.0,2.0,0.0
1701799198.914586,3.0,2.0,-1.0,3.0,-3.0,0.0,1.0,4.0
1701799198.9603932,3.0,-2.0,8.0,-13.0,3.0,-1.0,-9.0,-8.0
1701799198.9603932,4.0,0.0,1.0,0.0,-1.0,-3.0,-1.0,0.0
1701799198.9603932,-15.0,-6.0,-59.0,-29.0,-4.0,0.0,4.0,-6.0
1701799198.9603932,3.0,3.0,3.0,0.0,-2.0,0.0,-2.0,-3.0
1701799198.9603932,-3.0,-5.0,-11.0,2.0,-2.0,0.0,1.0,1.0
1701799198.9607427,-4.0,11.0,16.0,1.0,1.0,1.0,-5.0,-7.0
1701799198.9607427,6.0,3.0,6.0,-3.0,-4.0,-4.0,-1.0,-2.0
1701799198.9607427,-10.0,-13.0,-14.0,-12.0,0.0,3.0,-1.0,1.0
1701799198.9607427,-8.0,-2.0,20.0,14.0,-2.0,-1.0,3.0,-2.0
1701799198.9607427,5.0,-3.0,-51.0,-22.0,0.0,0.0,0.0,3.0
1701799198.9607427,-10.0,2.0,45.0,25.0,-3.0,-3.0,-3.0,-3.0
1701799198.9607427,19.0,2.0,-22.0,-8.0,0.0,-1.0,-1.0,-4.0
1701799198.9932573,1.0,3.0,6.0,7.0,2.0,-1.0,-1.0,-3.0
1701799198.9932573,-3.0,1.0,9.0,-3.0,-5.0,-5.0,-4.0,4.0
1701799198.9932573,13.0,1.0,-4.0,-8.0,-2.0,0.0,0.0,3.0
1701799198.9932573,-16.0,-1.0,-4.0,5.0,3.0,0.0,2.0,-2.0
1701799198.9970052,-6.0,0.0,-18.0,-9.0,-2.0,-1.0,-1.0,5.0
1701799198.9970052,3.0,-4.0,4.0,5.0,1.0,-1.0,-6.0,-10.0
1701799198.9992905,-1.0,-8.0,-17.0,-16.0,-4.0,2.0,4.0,10.0
1701799198.9992905,3.0,4.0,-4.0,5.0,-1.0,-3.0,-4.0,-2.0
1701799199.018873,-2.0,0.0,5.0,-1.0,-2.0,0.0,1.0,-3.0
1701799199.018873,-9.0,-1.0,1.0,-1.0,-1.0,-1.0,-3.0,-2.0
1701799199.018873,5.0,-4.0,-29.0,-6.0,-1.0,-1.0,-1.0,0.0
1701799199.018873,-4.0,7.0,31.0,11.0,4.0,1.0,1.0,1.0
1701799199.0477223,-4.0,-3.0,-16.0,-11.0,-7.0,-1.0,-4.0,-10.0
1701799199.0477223,3.0,-2.0,34.0,6.0,-1.0,2.0,5.0,-1.0
1701799199.0477223,-5.0,-7.0,-5.0,-7.0,-4.0,0.0,1.0,-4.0
1701799199.0477223,10.0,-2.0,-7.0,-8.0,1.0,-1.0,-1.0,0.0
1701799199.108552,-4.0,-9.0,-8.0,24.0,6.0,-4.0,-6.0,-2.0
1701799199.108552,2.0,16.0,28.0,-32.0,-8.0,-5.0,3.0,0.0
1701799199.108552,3.0,-2.0,1.0,4.0,1.0,-2.0,-6.0,-5.0
1701799199.108552,3.0,3.0,15.0,3.0,-1.0,0.0,-2.0,-4.0
1701799199.108552,1.0,-6.0,-39.0,-13.0,-7.0,-2.0,6.0,11.0
1701799199.108552,-5.0,-11.0,-24.0,6.0,2.0,0.0,-2.0,-3.0
1701799199.1091163,3.0,6.0,21.0,-5.0,2.0,0.0,-3.0,0.0
1701799199.110115,1.0,-4.0,19.0,13.0,-1.0,-2.0,-3.0,-6.0
1701799199.1415117,-1.0,-5.0,-5.0,-5.0,-1.0,-1.0,0.0,0.0
1701799199.1415117,-9.0,-8.0,-35.0,-11.0,-3.0,-3.0,-4.0,-5.0
1701799199.1415117,-4.0,1.0,3.0,2.0,-2.0,-1.0,1.0,-4.0
1701799199.142511,1.0,2.0,26.0,9.0,1.0,0.0,-2.0,4.0
1701799199.142511,-1.0,8.0,-8.0,-10.0,2.0,0.0,0.0,-3.0
1701799199.142511,-8.0,1.0,9.0,-3.0,-3.0,-1.0,-1.0,2.0
1701799199.1426594,-19.0,-23.0,-84.0,-13.0,0.0,-2.0,-3.0,-6.0
1701799199.1426594,-1.0,2.0,0.0,-4.0,-2.0,0.0,2.0,1.0
1701799199.1426594,10.0,11.0,38.0,3.0,0.0,-1.0,-3.0,2.0
1701799199.1426594,-12.0,-12.0,4.0,6.0,1.0,-1.0,4.0,1.0
1701799199.1438906,22.0,13.0,8.0,-1.0,-2.0,-3.0,-6.0,-5.0
1701799199.1448932,-9.0,-3.0,-22.0,-6.0,-3.0,-1.0,-3.0,-4.0
1701799199.173712,3.0,2.0,-3.0,2.0,-1.0,-1.0,4.0,0.0
1701799199.173712,-5.0,1.0,14.0,5.0,2.0,0.0,3.0,0.0
1701799199.173712,-14.0,-7.0,14.0,3.0,0.0,2.0,2.0,4.0
1701799199.173712,0.0,-6.0,0.0,3.0,-1.0,-3.0,-1.0,-3.0
1701799199.1748297,-4.0,4.0,26.0,1.0,0.0,-1.0,-5.0,-3.0
1701799199.1748297,13.0,-5.0,-19.0,1.0,-4.0,-2.0,-1.0,-2.0
1701799199.1850243,-3.0,1.0,18.0,1.0,-1.0,-2.0,1.0,-4.0
1701799199.1850243,-1.0,-4.0,-37.0,-11.0,-4.0,-3.0,-2.0,2.0
1701799199.2422,-5.0,-2.0,-8.0,-9.0,-1.0,-1.0,0.0,0.0
1701799199.2422,-1.0,1.0,-15.0,11.0,1.0,-1.0,-4.0,-1.0
1701799199.2422,-9.0,-11.0,-4.0,-9.0,-2.0,-1.0,-2.0,-1.0
1701799199.2422,16.0,3.0,-1.0,-6.0,-2.0,-1.0,-1.0,3.0
1701799199.2422,-2.0,-6.0,15.0,-3.0,-4.0,-1.0,2.0,1.0
1701799199.2422,-2.0,1.0,9.0,4.0,2.0,0.0,-3.0,-3.0
1701799199.2432563,11.0,12.0,14.0,13.0,2.0,0.0,-2.0,3.0
1701799199.2432563,-17.0,-15.0,-53.0,-22.0,-5.0,-3.0,-2.0,-10.0
1701799199.2432563,-3.0,-10.0,-23.0,-7.0,-3.0,0.0,2.0,-1.0
1701799199.2432563,4.0,3.0,10.0,5.0,1.0,-1.0,-2.0,-3.0
1701799199.2432563,0.0,7.0,10.0,2.0,1.0,1.0,0.0,0.0
1701799199.2432563,0.0,4.0,16.0,9.0,2.0,-1.0,2.0,3.0
1701799199.2965844,-8.0,-4.0,-10.0,-1.0,-4.0,-4.0,-1.0,-3.0
1701799199.2965844,-3.0,-5.0,-11.0,-6.0,-2.0,0.0,-3.0,-1.0
1701799199.2965844,2.0,3.0,15.0,-1.0,-1.0,-1.0,1.0,1.0
1701799199.2965844,-4.0,1.0,2.0,-4.0,-3.0,1.0,0.0,1.0
1701799199.2965844,0.0,2.0,26.0,13.0,1.0,-3.0,-3.0,-1.0
1701799199.2965844,2.0,2.0,-25.0,-7.0,0.0,-1.0,-2.0,-2.0
1701799199.2965844,-4.0,-2.0,13.0,-5.0,-1.0,0.0,-1.0,-2.0
1701799199.2965844,-1.0,-1.0,-10.0,0.0,-1.0,-2.0,-1.0,-1.0
1701799199.3044198,1.0,0.0,5.0,4.0,0.0,0.0,2.0,-1.0
1701799199.3044198,-2.0,0.0,4.0,-3.0,-4.0,-4.0,-3.0,-1.0
1701799199.3430026,-1.0,1.0,1.0,-1.0,-3.0,-3.0,0.0,-2.0
1701799199.3430026,-2.0,-2.0,5.0,4.0,0.0,2.0,0.0,1.0
1701799199.3430026,-1.0,0.0,8.0,2.0,-1.0,-2.0,-1.0,0.0
1701799199.3430026,-4.0,5.0,17.0,7.0,2.0,3.0,0.0,1.0
1701799199.3430026,-4.0,-7.0,-28.0,-13.0,-4.0,-3.0,-6.0,-2.0
1701799199.3430026,-9.0,1.0,11.0,1.0,0.0,-3.0,0.0,0.0
1701799199.3430026,4.0,1.0,-1.0,-1.0,-1.0,-1.0,-2.0,0.0
1701799199.3430026,-11.0,-7.0,-5.0,-2.0,1.0,-1.0,-2.0,-3.0
1701799199.3440049,3.0,1.0,-12.0,-1.0,1.0,2.0,3.0,6.0
1701799199.3440049,-9.0,-2.0,30.0,11.0,-4.0,-1.0,-8.0,-9.0
1701799199.3677099,-1.0,0.0,-14.0,-5.0,2.0,1.0,2.0,-6.0
1701799199.3680797,-3.0,-7.0,1.0,6.0,-4.0,-1.0,3.0,8.0
1701799199.3819652,7.0,7.0,17.0,2.0,1.0,-1.0,0.0,0.0
1701799199.3843298,1.0,4.0,14.0,4.0,0.0,1.0,1.0,2.0
1701799199.419505,-7.0,-10.0,11.0,-6.0,-4.0,-4.0,-7.0,-5.0
1701799199.419505,3.0,0.0,-14.0,-10.0,0.0,-1.0,-3.0,-5.0
1701799199.419505,-1.0,-6.0,5.0,2.0,0.0,-1.0,0.0,0.0
1701799199.419505,-7.0,6.0,16.0,2.0,2.0,-1.0,1.0,0.0
1701799199.426236,-1.0,-5.0,-15.0,-5.0,-3.0,-1.0,-2.0,0.0
1701799199.426236,7.0,5.0,12.0,2.0,0.0,-1.0,0.0,1.0
1701799199.426236,-12.0,-6.0,-16.0,1.0,0.0,-2.0,-3.0,-7.0
1701799199.426236,-1.0,0.0,-14.0,-5.0,-2.0,0.0,1.0,2.0
1701799199.457544,-10.0,0.0,7.0,-3.0,0.0,0.0,2.0,1.0
1701799199.457544,-6.0,-7.0,-8.0,4.0,0.0,1.0,1.0,-3.0
1701799199.457544,14.0,5.0,-1.0,-5.0,-1.0,1.0,-2.0,0.0
1701799199.457544,-8.0,-3.0,1.0,2.0,0.0,1.0,-1.0,-10.0
1701799199.457544,-2.0,-1.0,-7.0,-1.0,-3.0,-2.0,-3.0,0.0
1701799199.457544,2.0,6.0,18.0,6.0,-1.0,-3.0,5.0,3.0
1701799199.457544,-13.0,-6.0,-19.0,-6.0,-3.0,-1.0,-5.0,0.0
1701799199.457544,20.0,-3.0,-25.0,-8.0,-2.0,-1.0,5.0,3.0
1701799199.458682,-7.0,-2.0,-5.0,0.0,-2.0,2.0,-2.0,0.0
1701799199.458682,5.0,1.0,-7.0,-7.0,-2.0,-3.0,-10.0,-12.0
1701799199.458682,-10.0,-1.0,12.0,3.0,0.0,1.0,11.0,8.0
1701799199.458682,5.0,-3.0,-2.0,-3.0,-2.0,-3.0,-2.0,0.0
1701799199.524521,12.0,1.0,-1.0,2.0,-1.0,0.0,0.0,1.0
1701799199.524521,-9.0,-4.0,-9.0,-9.0,-4.0,-1.0,-6.0,-5.0
1701799199.524521,-9.0,-3.0,-14.0,-7.0,-2.0,-2.0,-3.0,-4.0
1701799199.524521,4.0,4.0,8.0,6.0,2.0,0.0,-1.0,1.0
1701799199.5248322,14.0,-2.0,-28.0,-7.0,-1.0,0.0,2.0,2.0
1701799199.5248322,-3.0,-1.0,15.0,9.0,1.0,-2.0,-12.0,-29.0
1701799199.5248322,-1.0,2.0,-1.0,-5.0,-1.0,-2.0,7.0,24.0
1701799199.5248322,3.0,-1.0,12.0,4.0,3.0,0.0,1.0,1.0
1701799199.5663304,-7.0,2.0,3.0,3.0,1.0,-1.0,-1.0,2.0
1701799199.5663304,5.0,-3.0,-9.0,-9.0,-2.0,-1.0,2.0,3.0
1701799199.5663304,-2.0,3.0,12.0,8.0,1.0,-1.0,-7.0,-11.0
1701799199.5663304,0.0,-2.0,-3.0,-2.0,0.0,-1.0,-3.0,-2.0
1701799199.5663304,-6.0,-4.0,-28.0,-15.0,-6.0,-4.0,0.0,-4.0
1701799199.5663304,1.0,0.0,2.0,3.0,-2.0,4.0,2.0,7.0
1701799199.5663304,2.0,4.0,12.0,2.0,1.0,-1.0,-2.0,-7.0
1701799199.5663304,-4.0,-2.0,-14.0,-2.0,0.0,1.0,-1.0,4.0
1701799199.5663304,0.0,-2.0,13.0,6.0,-1.0,0.0,0.0,-2.0
1701799199.5663304,-5.0,-3.0,-7.0,-3.0,-2.0,-2.0,5.0,7.0
1701799199.5663304,22.0,0.0,-16.0,-6.0,0.0,-1.0,-4.0,-6.0
1701799199.5663304,-4.0,-3.0,3.0,2.0,-3.0,-2.0,-1.0,-3.0
1701799199.580572,-1.0,1.0,-6.0,-4.0,-1.0,-3.0,-2.0,-2.0
1701799199.580572,1.0,-2.0,-11.0,-1.0,1.0,-1.0,0.0,1.0
1701799199.5841677,-5.0,-7.0,0.0,2.0,-1.0,0.0,-2.0,-3.0
1701799199.5841677,-4.0,4.0,5.0,-3.0,-1.0,-1.0,-1.0,-4.0
1701799199.6371672,3.0,6.0,20.0,1.0,1.0,1.0,-5.0,-3.0
1701799199.6371672,2.0,3.0,8.0,2.0,2.0,1.0,7.0,13.0
1701799199.6371672,-3.0,-12.0,-23.0,-4.0,1.0,-2.0,-3.0,-6.0
1701799199.6371672,1.0,-3.0,2.0,-2.0,-2.0,0.0,-4.0,-1.0
1701799199.6371672,11.0,-1.0,-11.0,-4.0,0.0,1.0,4.0,6.0
1701799199.6371672,-16.0,-6.0,0.0,1.0,-2.0,-1.0,-4.0,-6.0
1701799199.6371672,-1.0,6.0,6.0,-2.0,-4.0,-4.0,-6.0,-20.0
1701799199.6371672,-1.0,-1.0,-2.0,1.0,0.0,1.0,7.0,14.0
1701799199.6810637,3.0,-2.0,2.0,3.0,2.0,0.0,3.0,-1.0
1701799199.6810637,3.0,4.0,8.0,4.0,1.0,-1.0,-3.0,5.0
1701799199.6810637,0.0,-3.0,3.0,0.0,-1.0,-1.0,1.0,-3.0
1701799199.6810637,-4.0,3.0,7.0,1.0,-2.0,-3.0,-3.0,-5.0
1701799199.6820636,-5.0,3.0,11.0,1.0,0.0,-1.0,-2.0,-2.0
1701799199.6820636,5.0,0.0,2.0,0.0,0.0,1.0,0.0,2.0
1701799199.6820636,-8.0,-2.0,-9.0,-2.0,-2.0,-3.0,-3.0,-2.0
1701799199.6820636,0.0,-6.0,-42.0,-15.0,-2.0,-2.0,0.0,-2.0
1701799199.6820636,-3.0,1.0,5.0,8.0,-1.0,0.0,0.0,4.0
1701799199.6820636,1.0,0.0,6.0,-2.0,-1.0,-3.0,-3.0,-7.0
1701799199.6820636,3.0,1.0,3.0,3.0,-1.0,1.0,-1.0,3.0
1701799199.6826825,-4.0,1.0,-2.0,-9.0,0.0,-1.0,-4.0,-9.0
1701799199.747339,1.0,-4.0,9.0,6.0,-1.0,-2.0,2.0,5.0
1701799199.747339,6.0,-3.0,-8.0,-1.0,-1.0,-2.0,-2.0,1.0
1701799199.747339,-7.0,1.0,11.0,1.0,-1.0,2.0,0.0,4.0
1701799199.747339,-7.0,-3.0,-4.0,0.0,0.0,-2.0,0.0,0.0
1701799199.747339,10.0,0.0,-3.0,-7.0,-4.0,-2.0,-5.0,-10.0
1701799199.747339,4.0,5.0,36.0,4.0,0.0,0.0,-1.0,-1.0
1701799199.747339,3.0,-4.0,-32.0,-7.0,-3.0,-1.0,5.0,7.0
1701799199.747339,-11.0,-3.0,11.0,5.0,-2.0,-2.0,-6.0,-3.0
1701799199.747339,-5.0,-5.0,-27.0,-9.0,-1.0,1.0,-1.0,-1.0
1701799199.747339,0.0,-2.0,-1.0,3.0,-1.0,0.0,-1.0,0.0
1701799199.747339,2.0,2.0,19.0,5.0,1.0,1.0,-1.0,-3.0
1701799199.747339,2.0,-5.0,-15.0,-8.0,-3.0,-4.0,0.0,0.0
1701799199.7586994,-2.0,3.0,15.0,4.0,0.0,-1.0,1.0,0.0
1701799199.7586994,-2.0,-1.0,-20.0,-6.0,-2.0,1.0,-2.0,-6.0
1701799199.7586994,-3.0,-1.0,3.0,-3.0,-3.0,-1.0,0.0,11.0
1701799199.7586994,3.0,1.0,14.0,4.0,-2.0,-1.0,0.0,0.0
1701799199.8269446,-8.0,-2.0,-1.0,2.0,-1.0,-1.0,0.0,0.0
1701799199.8279405,1.0,-2.0,-10.0,-7.0,-1.0,-2.0,-1.0,-1.0
1701799199.8279405,-1.0,-2.0,-4.0,-4.0,1.0,-1.0,-1.0,-5.0
1701799199.8279405,4.0,6.0,9.0,1.0,0.0,-1.0,0.0,-5.0
1701799199.8279405,-1.0,-2.0,9.0,6.0,1.0,0.0,0.0,1.0
1701799199.8279405,-6.0,-6.0,-30.0,-9.0,-5.0,-4.0,-3.0,3.0
1701799199.8279405,2.0,3.0,17.0,4.0,-3.0,-1.0,-1.0,0.0
1701799199.8279405,-1.0,1.0,-1.0,-2.0,1.0,0.0,1.0,0.0
1701799199.8600252,-3.0,-4.0,-4.0,3.0,1.0,-2.0,0.0,-4.0
1701799199.8600252,2.0,1.0,7.0,1.0,-1.0,-1.0,-1.0,-4.0
1701799199.8600252,-3.0,-5.0,-12.0,-9.0,-2.0,-1.0,-1.0,-1.0
1701799199.8600252,2.0,-3.0,-5.0,1.0,-2.0,0.0,-2.0,1.0
1701799199.8621235,-2.0,3.0,14.0,-3.0,-1.0,0.0,-2.0,-3.0
1701799199.8621235,8.0,1.0,-4.0,1.0,1.0,-1.0,0.0,4.0
1701799199.8621235,-13.0,-2.0,2.0,0.0,-1.0,-4.0,-3.0,-3.0
1701799199.8621235,-2.0,-5.0,-33.0,-10.0,-1.0,0.0,-2.0,-3.0
1701799199.8621235,-1.0,3.0,9.0,3.0,2.0,-1.0,0.0,-2.0
1701799199.8621235,-5.0,-11.0,-40.0,-15.0,-3.0,0.0,1.0,-4.0
1701799199.8634672,2.0,0.0,7.0,-1.0,-2.0,-2.0,-4.0,-7.0
1701799199.8644693,0.0,-5.0,-6.0,-2.0,0.0,-1.0,1.0,5.0
1701799199.8754249,-2.0,1.0,12.0,3.0,-1.0,0.0,2.0,4.0
1701799199.8754249,3.0,7.0,14.0,4.0,1.0,-1.0,1.0,1.0
1701799199.8754249,-7.0,-8.0,-36.0,-7.0,-2.0,-1.0,-3.0,-3.0
1701799199.8754249,0.0,1.0,-10.0,-2.0,-2.0,1.0,-1.0,-1.0
1701799199.9059086,-1.0,0.0,7.0,-2.0,-2.0,-3.0,-3.0,-5.0
1701799199.9059086,-2.0,4.0,34.0,8.0,1.0,-1.0,-1.0,-8.0
1701799199.9059086,-4.0,-8.0,-50.0,-19.0,-6.0,-7.0,-3.0,12.0
1701799199.9059086,2.0,0.0,24.0,7.0,0.0,1.0,5.0,3.0
1701799199.9171467,-3.0,-6.0,-27.0,-6.0,-1.0,1.0,-3.0,-2.0
1701799199.9171467,0.0,0.0,-5.0,0.0,-2.0,-2.0,0.0,0.0
1701799199.976555,-5.0,1.0,25.0,5.0,0.0,-1.0,-3.0,-9.0
1701799199.976555,5.0,0.0,-9.0,-1.0,-1.0,0.0,-2.0,0.0
1701799199.976555,-3.0,-4.0,-1.0,-4.0,-2.0,1.0,-1.0,5.0
1701799199.976555,-9.0,3.0,20.0,3.0,3.0,0.0,-3.0,-8.0
1701799199.976555,2.0,3.0,-15.0,-5.0,0.0,1.0,0.0,-1.0
1701799199.976555,-1.0,-3.0,6.0,6.0,-1.0,-2.0,0.0,-1.0
1701799199.976555,5.0,7.0,36.0,-1.0,0.0,0.0,-3.0,-4.0
1701799199.976555,-4.0,-10.0,-52.0,-14.0,-5.0,-2.0,-1.0,1.0
1701799199.976555,-3.0,-4.0,1.0,-4.0,-1.0,-3.0,-1.0,-3.0
1701799199.976555,3.0,-1.0,-10.0,-3.0,0.0,-1.0,2.0,-1.0
1701799199.9782803,-4.0,-2.0,19.0,2.0,-2.0,-4.0,-3.0,-1.0
1701799199.9804769,-1.0,-4.0,-9.0,-4.0,-1.0,-1.0,0.0,1.0
1701799200.0207815,2.0,3.0,17.0,10.0,-1.0,1.0,4.0,1.0
1701799200.0207815,0.0,4.0,2.0,-3.0,-4.0,-1.0,-4.0,-3.0
1701799200.0229285,-12.0,-14.0,-10.0,4.0,-3.0,-2.0,-4.0,-4.0
1701799200.0229285,-1.0,3.0,1.0,-6.0,-2.0,-1.0,0.0,1.0
1701799200.023928,4.0,2.0,24.0,5.0,0.0,1.0,0.0,1.0
1701799200.023928,-1.0,-3.0,-5.0,-6.0,-2.0,-3.0,-2.0,-6.0
1701799200.0254457,-4.0,4.0,-13.0,-1.0,0.0,-3.0,-4.0,-11.0
1701799200.0254457,-2.0,0.0,10.0,5.0,-2.0,0.0,4.0,7.0
1701799200.025941,6.0,-2.0,2.0,3.0,1.0,3.0,3.0,8.0
1701799200.025941,-5.0,0.0,25.0,1.0,-1.0,0.0,-1.0,0.0
1701799200.0407443,1.0,1.0,-28.0,-10.0,-2.0,-1.0,0.0,-2.0
1701799200.0407443,-2.0,0.0,28.0,13.0,1.0,-2.0,-6.0,-9.0
1701799200.0466838,1.0,-5.0,-42.0,-19.0,-3.0,-2.0,-5.0,3.0
1701799200.0466838,-2.0,-3.0,4.0,0.0,0.0,0.0,0.0,0.0
1701799200.0634735,-1.0,0.0,-8.0,-2.0,1.0,-1.0,-1.0,0.0
1701799200.0634735,-2.0,2.0,22.0,3.0,-1.0,-1.0,-2.0,-1.0
1701799200.0644732,0.0,4.0,23.0,6.0,2.0,1.0,-1.0,-2.0
1701799200.0644732,-2.0,1.0,-9.0,-8.0,-1.0,-2.0,-1.0,0.0
1701799200.0865526,-3.0,-4.0,-15.0,4.0,-3.0,-3.0,-1.0,-2.0
1701799200.0865526,0.0,-3.0,-26.0,-10.0,-3.0,-5.0,-6.0,-9.0
1701799200.0871692,-1.0,-6.0,10.0,2.0,-3.0,0.0,7.0,0.0
1701799200.0881636,-3.0,0.0,-18.0,-7.0,-2.0,-1.0,-2.0,-4.0
1701799200.0991182,6.0,3.0,15.0,0.0,0.0,1.0,3.0,9.0
1701799200.0991182,1.0,-1.0,11.0,5.0,0.0,2.0,-1.0,-2.0
1701799200.1589696,6.0,3.0,5.0,4.0,1.0,-2.0,-1.0,-11.0
1701799200.1589696,-11.0,-4.0,-18.0,-8.0,-4.0,-1.0,-2.0,5.0
1701799200.1589696,-1.0,0.0,5.0,0.0,-1.0,0.0,2.0,-2.0
1701799200.1589696,-1.0,-4.0,0.0,5.0,2.0,1.0,0.0,-3.0
1701799200.1589696,-1.0,0.0,5.0,1.0,-1.0,0.0,-2.0,0.0
1701799200.1589696,0.0,-4.0,-33.0,-11.0,-4.0,-3.0,-2.0,-1.0
1701799200.1990504,2.0,-2.0,-9.0,-6.0,-1.0,0.0,-2.0,-4.0
1701799200.1990504,0.0,2.0,2.0,0.0,-1.0,-1.0,1.0,4.0
1701799200.1990504,-2.0,5.0,25.0,9.0,1.0,1.0,-2.0,-5.0
1701799200.1990504,2.0,-1.0,4.0,7.0,-1.0,0.0,-1.0,-2.0
1701799200.1990504,-1.0,1.0,3.0,0.0,0.0,0.0,-2.0,0.0
1701799200.1990504,0.0,-5.0,-15.0,-6.0,-1.0,-2.0,1.0,1.0
1701799200.2011776,-2.0,-4.0,-7.0,3.0,0.0,-1.0,0.0,0.0
1701799200.2011776,-1.0,1.0,26.0,8.0,0.0,-4.0,-2.0,-1.0
1701799200.2011776,0.0,-4.0,-54.0,-22.0,-4.0,0.0,-2.0,-4.0
1701799200.2011776,0.0,0.0,-3.0,-8.0,-1.0,-1.0,3.0,8.0
1701799200.2011776,-1.0,-2.0,6.0,6.0,0.0,-3.0,-3.0,-4.0
1701799200.2011776,0.0,-1.0,6.0,-1.0,3.0,-1.0,-1.0,0.0
1701799200.220732,-1.0,1.0,24.0,8.0,2.0,-1.0,-2.0,-3.0
1701799200.220732,-1.0,-3.0,-1.0,-5.0,-1.0,-1.0,-5.0,-8.0
1701799200.220732,-1.0,-3.0,-42.0,-14.0,-4.0,-2.0,2.0,6.0
1701799200.220732,2.0,0.0,28.0,7.0,-2.0,2.0,2.0,0.0
1701799200.220732,1.0,3.0,19.0,3.0,-1.0,-1.0,1.0,1.0
1701799200.220732,0.0,-5.0,-38.0,-11.0,-1.0,-1.0,-3.0,-2.0
1701799200.2217643,-3.0,1.0,13.0,3.0,1.0,0.0,1.0,-1.0
1701799200.2217643,-3.0,-3.0,-14.0,-3.0,0.0,0.0,-1.0,-5.0
1701799200.2412815,-2.0,2.0,3.0,-3.0,0.0,-3.0,-1.0,0.0
1701799200.2412815,-1.0,-1.0,-9.0,-1.0,-1.0,-1.0,-2.0,-2.0
1701799200.2412815,-1.0,-3.0,11.0,2.0,-1.0,-2.0,-4.0,-3.0
1701799200.2412815,-1.0,0.0,-8.0,1.0,-1.0,-2.0,-1.0,2.0
1701799200.3040133,0.0,-5.0,-8.0,1.0,-1.0,-1.0,-2.0,-2.0
1701799200.3040133,-5.0,4.0,18.0,3.0,-2.0,2.0,1.0,3.0
1701799200.3040133,4.0,-3.0,1.0,-5.0,-1.0,-2.0,-2.0,-1.0
1701799200.3040133,-1.0,-2.0,-2.0,1.0,1.0,-2.0,0.0,-2.0
1701799200.3040133,0.0,3.0,6.0,7.0,2.0,-2.0,-1.0,-3.0
1701799200.3040133,-6.0,-6.0,-32.0,-16.0,-4.0,-3.0,-1.0,5.0
1701799200.3040133,0.0,3.0,4.0,0.0,0.0,-1.0,0.0,-1.0
1701799200.3040133,-6.0,-2.0,6.0,-2.0,-1.0,0.0,-2.0,-2.0
1701799200.3050103,7.0,-3.0,-8.0,4.0,-1.0,0.0,2.0,4.0
1701799200.3050103,-7.0,1.0,21.0,7.0,-1.0,1.0,-4.0,-5.0
1701799200.3050103,-1.0,5.0,-4.0,-3.0,0.0,1.0,-1.0,-1.0
1701799200.3050103,1.0,-5.0,-3.0,-1.0,-2.0,-1.0,-2.0,-1.0
1701799200.3592858,-2.0,-2.0,1.0,-3.0,-1.0,0.0,-1.0,-2.0
1701799200.3592858,2.0,-1.0,13.0,4.0,0.0,-2.0,3.0,-1.0
1701799200.3592858,1.0,3.0,-1.0,-1.0,-1.0,0.0,0.0,-2.0
1701799200.3592858,-2.0,2.0,11.0,7.0,0.0,0.0,0.0,-2.0
1701799200.3592858,-1.0,0.0,6.0,1.0,-2.0,1.0,1.0,3.0
1701799200.3592858,3.0,-4.0,-18.0,-5.0,-1.0,-2.0,-2.0,-1.0
1701799200.3592858,-5.0,-3.0,-11.0,-7.0,-1.0,-2.0,-2.0,-1.0
1701799200.3592858,0.0,-2.0,4.0,0.0,0.0,-2.0,1.0,-1.0
1701799200.3602846,-4.0,-1.0,-13.0,-7.0,-1.0,-3.0,-2.0,-4.0
1701799200.3602846,2.0,7.0,20.0,7.0,1.0,0.0,1.0,2.0
1701799200.3602846,-1.0,-3.0,-3.0,-2.0,-1.0,-3.0,-3.0,-2.0
1701799200.3644066,-1.0,-4.0,1.0,-4.0,-1.0,0.0,-1.0,0.0
1701799200.4070506,-2.0,0.0,0.0,-2.0,0.0,0.0,-2.0,-1.0
1701799200.4070506,0.0,1.0,8.0,3.0,0.0,0.0,1.0,-3.0
1701799200.4070506,-1.0,2.0,18.0,6.0,-1.0,-2.0,-1.0,0.0
1701799200.4070506,1.0,2.0,-19.0,-14.0,-4.0,-1.0,-2.0,0.0
1701799200.4090486,-5.0,-9.0,-8.0,-3.0,-4.0,-2.0,-1.0,-3.0
1701799200.4090486,0.0,1.0,8.0,2.0,1.0,-2.0,-1.0,-5.0
1701799200.4092171,-11.0,-2.0,-19.0,-6.0,-2.0,0.0,0.0,5.0
1701799200.4092171,8.0,-5.0,14.0,4.0,0.0,-1.0,2.0,0.0
1701799200.4576828,-6.0,1.0,-2.0,-2.0,-2.0,-2.0,-3.0,-2.0
1701799200.4576828,-3.0,-3.0,-2.0,-3.0,-1.0,0.0,-3.0,0.0
1701799200.4576828,1.0,1.0,10.0,3.0,0.0,-1.0,-3.0,-4.0
1701799200.4576828,-4.0,1.0,4.0,5.0,1.0,-2.0,-1.0,1.0
1701799200.4576828,2.0,2.0,1.0,2.0,0.0,-2.0,1.0,1.0
1701799200.4576828,0.0,-3.0,-1.0,-5.0,-3.0,-4.0,-1.0,-2.0
1701799200.4576828,2.0,-4.0,-24.0,-2.0,2.0,-2.0,0.0,-2.0
1701799200.4576828,-1.0,-1.0,8.0,-1.0,-2.0,-3.0,-2.0,0.0
1701799200.4687712,4.0,0.0,9.0,-1.0,0.0,0.0,-3.0,-2.0
1701799200.4687712,-2.0,0.0,1.0,9.0,1.0,0.0,4.0,5.0
1701799200.4695158,-2.0,-1.0,-2.0,-7.0,-4.0,1.0,-2.0,-2.0
1701799200.4695158,-2.0,2.0,5.0,2.0,-1.0,0.0,-1.0,1.0
1701799200.4819336,-3.0,1.0,-1.0,-3.0,0.0,-1.0,-1.0,-2.0
1701799200.4819336,-2.0,-1.0,-6.0,-4.0,-1.0,-1.0,-2.0,-2.0
1701799200.4819336,1.0,-3.0,-7.0,-2.0,-1.0,-3.0,-1.0,-2.0
1701799200.4819336,-1.0,0.0,-11.0,-6.0,0.0,-1.0,-6.0,-8.0
1701799200.5225666,0.0,-4.0,-4.0,2.0,-1.0,0.0,5.0,3.0
1701799200.5235662,3.0,1.0,6.0,-4.0,-1.0,0.0,0.0,1.0
1701799200.5235662,-2.0,-7.0,2.0,3.0,-2.0,-1.0,-1.0,-3.0
1701799200.5235662,-1.0,4.0,10.0,6.0,-1.0,0.0,-1.0,-3.0
1701799200.530627,-2.0,-4.0,-26.0,-8.0,-4.0,-4.0,-4.0,-1.0
1701799200.530627,-1.0,-1.0,5.0,1.0,0.0,0.0,-2.0,0.0
1701799200.530627,0.0,4.0,20.0,3.0,0.0,0.0,-1.0,-3.0
1701799200.530627,-2.0,-3.0,-10.0,-1.0,1.0,-1.0,-1.0,0.0
1701799200.5723495,-3.0,-2.0,8.0,5.0,-2.0,1.0,1.0,0.0
1701799200.5723495,-3.0,-3.0,-19.0,-8.0,-3.0,-1.0,-1.0,-2.0
1701799200.5723495,-2.0,1.0,-8.0,-11.0,-1.0,-2.0,-1.0,-3.0
1701799200.5723495,0.0,3.0,23.0,8.0,0.0,-1.0,1.0,1.0
1701799200.5723495,-2.0,-2.0,-21.0,-3.0,0.0,-3.0,-1.0,-1.0
1701799200.5723495,-1.0,-4.0,-3.0,1.0,0.0,-1.0,-2.0,-2.0
1701799200.5723495,-1.0,-3.0,-13.0,-6.0,-4.0,-3.0,-1.0,0.0
1701799200.5723495,-2.0,-3.0,-12.0,-4.0,-3.0,-2.0,-1.0,3.0
1701799200.5881608,-1.0,0.0,26.0,6.0,0.0,-2.0,-2.0,-5.0
1701799200.5891614,-2.0,1.0,0.0,1.0,-3.0,0.0,-1.0,0.0
1701799200.589827,-1.0,0.0,-11.0,-6.0,0.0,-2.0,-1.0,-1.0
1701799200.589827,-1.0,-3.0,-6.0,-4.0,1.0,0.0,0.0,-4.0
1701799200.6409874,-3.0,2.0,9.0,-1.0,-1.0,-1.0,-3.0,-1.0
1701799200.6413794,-2.0,0.0,-11.0,-3.0,-2.0,-1.0,-1.0,0.0
1701799200.6413794,-1.0,-1.0,6.0,2.0,0.0,-1.0,-5.0,-10.0
1701799200.6413794,-2.0,1.0,-19.0,-6.0,-2.0,0.0,8.0,6.0
1701799200.6413794,2.0,0.0,-1.0,0.0,-1.0,0.0,1.0,-1.0
1701799200.6413794,0.0,-7.0,-3.0,-2.0,-3.0,-2.0,0.0,1.0
1701799200.6413794,0.0,3.0,23.0,5.0,1.0,2.0,-1.0,-3.0
1701799200.6413794,-2.0,-1.0,3.0,-2.0,-1.0,-1.0,-3.0,-4.0
1701799200.6657498,0.0,-2.0,-6.0,0.0,-1.0,-1.0,0.0,0.0
1701799200.6671,0.0,2.0,27.0,10.0,-1.0,-1.0,-2.0,-5.0
1701799200.680417,-1.0,-3.0,-34.0,-9.0,-1.0,0.0,-1.0,3.0
1701799200.680417,-1.0,-3.0,-20.0,-8.0,-3.0,-2.0,-2.0,-1.0
1701799200.687967,1.0,0.0,14.0,2.0,-1.0,0.0,-2.0,0.0
1701799200.687967,-1.0,-2.0,1.0,-1.0,0.0,-2.0,-1.0,-4.0
1701799200.687967,-1.0,-5.0,6.0,3.0,0.0,-2.0,0.0,2.0
1701799200.687967,0.0,2.0,6.0,-1.0,-1.0,0.0,-3.0,1.0
1701799200.687967,-1.0,-1.0,-1.0,-2.0,-2.0,-2.0,-1.0,-3.0
1701799200.687967,1.0,-1.0,-5.0,3.0,1.0,-1.0,1.0,0.0
1701799200.687967,-1.0,-3.0,-15.0,-5.0,1.0,0.0,1.0,2.0
1701799200.687967,-2.0,-2.0,-8.0,-5.0,0.0,-2.0,-3.0,-1.0
1701799200.7090573,1.0,0.0,-7.0,-2.0,-1.0,-2.0,-2.0,-1.0
1701799200.7090573,-1.0,4.0,-1.0,-1.0,-1.0,0.0,0.0,-2.0
1701799200.7090573,-1.0,-2.0,2.0,-2.0,-4.0,-3.0,1.0,1.0
1701799200.7090573,-2.0,-5.0,-5.0,0.0,-1.0,-2.0,1.0,-3.0
1701799200.754802,-3.0,-4.0,-17.0,-3.0,0.0,0.0,0.0,-1.0
1701799200.754802,0.0,1.0,9.0,-2.0,2.0,1.0,0.0,2.0
1701799200.754802,-2.0,2.0,9.0,5.0,1.0,-1.0,-2.0,-1.0
1701799200.754802,0.0,1.0,4.0,4.0,0.0,0.0,-2.0,1.0
1701799200.754802,-2.0,-3.0,10.0,-4.0,-2.0,-3.0,-1.0,0.0
1701799200.754802,-1.0,-3.0,-22.0,-4.0,-2.0,-1.0,-1.0,-1.0
1701799200.754802,-1.0,1.0,13.0,1.0,-2.0,0.0,0.0,0.0
1701799200.7558,-1.0,-2.0,-4.0,0.0,-1.0,-1.0,-2.0,-2.0
1701799200.7972608,-1.0,2.0,6.0,-1.0,-2.0,2.0,0.0,-1.0
1701799200.7972608,0.0,-3.0,-2.0,-2.0,-1.0,-1.0,-1.0,-1.0
1701799200.7972608,0.0,2.0,32.0,13.0,0.0,0.0,-1.0,0.0
1701799200.7972608,-2.0,-3.0,-21.0,-19.0,-10.0,-3.0,-3.0,-2.0
1701799200.7972608,-1.0,-2.0,0.0,8.0,7.0,2.0,-2.0,-2.0
1701799200.7972608,-4.0,-6.0,-28.0,-11.0,-4.0,-1.0,-1.0,-1.0
1701799200.7972608,-2.0,-7.0,-27.0,-7.0,0.0,0.0,0.0,0.0
1701799200.7972608,-1.0,3.0,23.0,7.0,-6.0,-3.0,-1.0,-1.0
1701799200.805072,-1.0,0.0,2.0,-5.0,-6.0,-1.0,-2.0,0.0
1701799200.805072,2.0,2.0,17.0,10.0,14.0,3.0,-1.0,2.0
1701799200.8060737,-1.0,-1.0,5.0,0.0,0.0,-2.0,1.0,0.0
1701799200.8060737,-2.0,1.0,0.0,1.0,1.0,-2.0,-2.0,-3.0
1701799200.8632271,-2.0,-2.0,-9.0,-6.0,-4.0,-2.0,-2.0,1.0
1701799200.8632271,-1.0,0.0,3.0,0.0,-3.0,-1.0,-2.0,-1.0
1701799200.8632271,0.0,-2.0,-8.0,-4.0,-1.0,0.0,-3.0,-6.0
1701799200.8632271,3.0,-5.0,-4.0,-2.0,-1.0,-1.0,2.0,6.0
1701799200.8632271,-5.0,0.0,17.0,0.0,-3.0,-1.0,-1.0,-1.0
1701799200.8632271,3.0,-3.0,-28.0,-16.0,-4.0,-2.0,-1.0,1.0
1701799200.8632271,-9.0,-3.0,6.0,3.0,-3.0,-2.0,-1.0,-7.0
1701799200.8632271,3.0,-5.0,-12.0,0.0,-1.0,0.0,-1.0,-4.0
1701799200.8632271,-4.0,4.0,5.0,4.0,4.0,-1.0,0.0,-2.0
1701799200.8632271,2.0,0.0,19.0,12.0,0.0,-1.0,-2.0,0.0
1701799200.866137,10.0,-5.0,3.0,-4.0,-2.0,-1.0,1.0,7.0
1701799200.866137,-14.0,1.0,-2.0,-6.0,0.0,0.0,-6.0,-9.0
1701799200.9096658,21.0,-5.0,-22.0,-4.0,-3.0,-1.0,4.0,3.0
1701799200.9096658,-15.0,1.0,2.0,-13.0,-4.0,-2.0,1.0,-3.0
1701799200.9096658,0.0,-3.0,-8.0,1.0,-1.0,-2.0,-4.0,-5.0
1701799200.9096658,4.0,15.0,19.0,5.0,3.0,-2.0,0.0,9.0
1701799200.9096658,-2.0,-16.0,-28.0,-12.0,-3.0,-4.0,-1.0,-4.0
1701799200.9096658,0.0,-9.0,-9.0,-4.0,-4.0,-1.0,-1.0,-1.0
1701799200.9102552,-7.0,-3.0,-15.0,5.0,2.0,0.0,1.0,0.0
1701799200.9102552,0.0,0.0,-1.0,-2.0,1.0,-1.0,-1.0,-2.0
1701799200.9215586,-1.0,4.0,-13.0,-1.0,1.0,1.0,0.0,-2.0
1701799200.9265435,2.0,6.0,19.0,10.0,-1.0,-1.0,0.0,1.0
1701799200.931756,-4.0,-4.0,-14.0,-16.0,-3.0,-1.0,-3.0,-2.0
1701799200.931756,0.0,0.0,4.0,4.0,2.0,-1.0,-1.0,-2.0
1701799200.9646661,-4.0,6.0,11.0,3.0,1.0,1.0,0.0,2.0
1701799200.9656653,0.0,-3.0,13.0,4.0,-4.0,-2.0,-3.0,-3.0
1701799200.9656653,1.0,5.0,10.0,5.0,0.0,0.0,1.0,0.0
1701799200.9656653,-1.0,-5.0,-22.0,-7.0,-2.0,0.0,-1.0,-2.0
1701799200.9688456,-2.0,0.0,18.0,-1.0,-1.0,-1.0,-2.0,-2.0
1701799200.9688456,1.0,1.0,-1.0,1.0,-1.0,0.0,-1.0,0.0
1701799200.969881,1.0,-2.0,-3.0,-8.0,-5.0,-4.0,-2.0,1.0
1701799200.969881,0.0,-1.0,9.0,4.0,2.0,1.0,-1.0,-7.0
1701799200.9856064,-6.0,-2.0,-19.0,-5.0,-1.0,-2.0,0.0,6.0
1701799200.9856064,-1.0,0.0,4.0,-3.0,-2.0,-2.0,-1.0,-1.0
1701799200.9856064,-1.0,0.0,-6.0,-5.0,0.0,0.0,-3.0,-3.0
1701799200.9856064,2.0,-1.0,7.0,8.0,-2.0,0.0,1.0,5.0
1701799201.0327587,-2.0,0.0,2.0,-8.0,-6.0,-3.0,-3.0,-5.0
1701799201.0327587,1.0,6.0,21.0,13.0,4.0,1.0,0.0,-1.0
1701799201.0327587,-2.0,-8.0,-16.0,-12.0,2.0,-2.0,0.0,1.0
1701799201.0327587,-2.0,0.0,-11.0,-2.0,-2.0,-1.0,-1.0,-3.0
1701799201.0327587,-3.0,0.0,16.0,8.0,4.0,-1.0,0.0,0.0
1701799201.0327587,-1.0,-1.0,-28.0,-16.0,-8.0,-4.0,-2.0,-1.0
1701799201.0327587,1.0,4.0,13.0,8.0,1.0,0.0,0.0,-2.0
1701799201.0327587,0.0,-5.0,12.0,2.0,-5.0,-3.0,-1.0,-2.0
1701799201.0468252,0.0,-2.0,-2.0,-1.0,-4.0,-2.0,0.0,-4.0
1701799201.047823,-3.0,-5.0,1.0,2.0,2.0,-1.0,-1.0,-3.0
1701799201.047823,1.0,3.0,10.0,8.0,2.0,1.0,0.0,1.0
1701799201.047823,0.0,1.0,14.0,-2.0,-1.0,0.0,1.0,-1.0
1701799201.0593324,0.0,-1.0,-12.0,-1.0,-5.0,-2.0,-2.0,-1.0
1701799201.0593324,-2.0,-3.0,-16.0,-10.0,-3.0,-1.0,-2.0,-1.0
1701799201.069373,1.0,6.0,20.0,3.0,-2.0,1.0,2.0,0.0
1701799201.069373,-1.0,-6.0,-4.0,9.0,3.0,0.0,-3.0,1.0
1701799201.081114,-2.0,-4.0,-10.0,-6.0,-1.0,1.0,-1.0,-3.0
1701799201.0828009,0.0,-3.0,-25.0,-7.0,1.0,-3.0,-1.0,-2.0
1701799201.0838497,-1.0,2.0,23.0,11.0,-2.0,-3.0,-7.0,-9.0
1701799201.0838497,-1.0,2.0,1.0,-1.0,1.0,1.0,6.0,7.0
1701799201.132792,-1.0,-2.0,8.0,-5.0,1.0,1.0,-2.0,-1.0
1701799201.132792,-1.0,-2.0,-18.0,1.0,0.0,-1.0,0.0,2.0
1701799201.132792,-1.0,-4.0,-30.0,-17.0,-2.0,2.0,2.0,-5.0
1701799201.132792,-5.0,-9.0,2.0,4.0,-4.0,-4.0,-8.0,-1.0
1701799201.1366858,-2.0,-1.0,9.0,9.0,3.0,-2.0,-1.0,-3.0
1701799201.1366858,-1.0,-2.0,-20.0,-17.0,-1.0,0.0,-1.0,2.0
1701799201.1366858,1.0,5.0,-16.0,-1.0,-1.0,-1.0,2.0,3.0
1701799201.1366858,-2.0,-5.0,-5.0,-4.0,-3.0,0.0,-2.0,-2.0
1701799201.1423185,-4.0,-3.0,12.0,3.0,1.0,-3.0,-2.0,-3.0
1701799201.1423185,2.0,3.0,22.0,5.0,-1.0,-2.0,-1.0,-2.0
1701799201.1477716,8.0,13.0,11.0,-3.0,-1.0,-2.0,-1.0,0.0
1701799201.1477716,-4.0,-12.0,-3.0,-1.0,1.0,0.0,-2.0,-3.0
1701799201.1961148,2.0,7.0,14.0,-3.0,-4.0,-3.0,-1.0,0.0
1701799201.1961148,-2.0,-3.0,-16.0,12.0,5.0,2.0,1.0,-2.0
1701799201.1961148,-4.0,-7.0,-1.0,-16.0,-2.0,-2.0,-1.0,2.0
1701799201.1961148,2.0,3.0,-1.0,16.0,1.0,-2.0,-2.0,-3.0
1701799201.200495,0.0,1.0,3.0,9.0,5.0,2.0,-3.0,1.0
1701799201.200495,-1.0,2.0,16.0,4.0,-2.0,-1.0,-4.0,-11.0
1701799201.200495,-1.0,-2.0,-5.0,-6.0,-5.0,1.0,6.0,11.0
1701799201.200495,-2.0,-2.0,-10.0,-10.0,-4.0,-2.0,1.0,-5.0
1701799201.2026267,-3.0,-3.0,3.0,0.0,-3.0,-3.0,0.0,-1.0
1701799201.2026267,2.0,-2.0,1.0,-3.0,-3.0,-2.0,-2.0,1.0
1701799201.2026267,6.0,0.0,-19.0,-5.0,-2.0,-3.0,-4.0,0.0
1701799201.2026267,-10.0,1.0,11.0,-1.0,-1.0,-2.0,-10.0,-24.0
1701799201.2242355,-3.0,-10.0,-40.0,-18.0,-7.0,-2.0,7.0,17.0
1701799201.2242355,3.0,1.0,15.0,11.0,1.0,3.0,5.0,3.0
1701799201.226608,-13.0,-7.0,13.0,9.0,2.0,-3.0,0.0,0.0
1701799201.226608,10.0,17.0,-2.0,-1.0,2.0,0.0,3.0,5.0
1701799201.3012388,1.0,-10.0,7.0,-2.0,2.0,0.0,-4.0,-11.0
1701799201.3012388,-2.0,-5.0,-20.0,-7.0,-1.0,-1.0,-1.0,1.0
1701799201.3012388,-1.0,-1.0,-10.0,8.0,-3.0,-3.0,-3.0,-1.0
1701799201.3012388,0.0,-1.0,-5.0,-6.0,2.0,1.0,-1.0,0.0
1701799201.3404696,1.0,3.0,6.0,1.0,2.0,0.0,-1.0,-3.0
1701799201.3404696,-1.0,-2.0,9.0,-1.0,-2.0,-3.0,-2.0,3.0
1701799201.344263,-1.0,0.0,6.0,3.0,2.0,1.0,-1.0,-6.0
1701799201.344263,1.0,1.0,27.0,6.0,-1.0,-1.0,-1.0,-8.0
1701799201.344263,-1.0,-4.0,-42.0,-20.0,-4.0,0.0,3.0,9.0
1701799201.344263,-3.0,-4.0,-6.0,-8.0,-3.0,-3.0,-3.0,-1.0
1701799201.344263,-3.0,-2.0,15.0,14.0,-1.0,-1.0,-2.0,-4.0
1701799201.344263,-3.0,-7.0,-24.0,-7.0,-3.0,-3.0,0.0,2.0
1701799201.344263,2.0,4.0,15.0,4.0,0.0,1.0,-4.0,-5.0
1701799201.344263,-3.0,1.0,16.0,1.0,-1.0,0.0,-1.0,-4.0
1701799201.344263,-1.0,-4.0,-8.0,-2.0,-1.0,1.0,1.0,1.0
1701799201.344263,5.0,1.0,9.0,-3.0,-1.0,0.0,3.0,3.0
1701799201.3804696,-5.0,0.0,9.0,6.0,1.0,-2.0,-3.0,-4.0
1701799201.3804696,0.0,-2.0,-7.0,-6.0,-3.0,-1.0,0.0,-2.0
1701799201.3804696,-2.0,-4.0,4.0,1.0,-1.0,-1.0,-2.0,-2.0
1701799201.3804696,-1.0,5.0,3.0,-3.0,0.0,0.0,1.0,3.0
1701799201.3804696,4.0,-6.0,-28.0,-1.0,3.0,-1.0,-1.0,-4.0
1701799201.3804696,-5.0,6.0,34.0,8.0,-2.0,-2.0,0.0,-2.0
1701799201.3804696,-4.0,-9.0,-28.0,-3.0,-3.0,-3.0,-3.0,-1.0
1701799201.3804696,0.0,1.0,-4.0,1.0,0.0,-1.0,-1.0,4.0
1701799201.3804696,0.0,1.0,-5.0,-4.0,-2.0,-1.0,-2.0,0.0
1701799201.3804696,1.0,0.0,13.0,-2.0,0.0,0.0,-2.0,-2.0
1701799201.3804696,1.0,1.0,14.0,2.0,-2.0,-1.0,-9.0,-11.0
1701799201.3804696,-3.0,-4.0,-24.0,-4.0,0.0,0.0,7.0,13.0
1701799201.407281,-5.0,-4.0,3.0,0.0,-3.0,-2.0,-2.0,-4.0
1701799201.407281,0.0,1.0,-14.0,-2.0,2.0,-3.0,1.0,-1.0
1701799201.407281,1.0,7.0,32.0,4.0,0.0,0.0,0.0,-3.0
1701799201.407281,0.0,-1.0,9.0,-4.0,-3.0,-1.0,-2.0,-4.0
1701799201.407281,-3.0,-4.0,-14.0,2.0,0.0,0.0,1.0,-2.0
1701799201.407281,1.0,6.0,10.0,0.0,-2.0,0.0,-1.0,0.0
1701799201.407281,-1.0,-12.0,-19.0,2.0,0.0,0.0,0.0,2.0
1701799201.407281,1.0,5.0,12.0,-1.0,-2.0,-1.0,-2.0,-1.0
1701799201.4200006,-3.0,-9.0,-18.0,-2.0,-2.0,-1.0,-1.0,-2.0
1701799201.4200006,-2.0,-2.0,-1.0,3.0,2.0,-2.0,-2.0,-2.0
1701799201.4300275,-1.0,7.0,0.0,-4.0,0.0,-1.0,1.0,2.0
1701799201.4300275,-2.0,0.0,1.0,4.0,-1.0,-2.0,0.0,-1.0
1701799201.4923477,1.0,4.0,-18.0,-13.0,-1.0,-1.0,0.0,-2.0
1701799201.4923477,-1.0,-7.0,19.0,12.0,-2.0,0.0,0.0,1.0
1701799201.4923477,-3.0,-2.0,-11.0,-15.0,-5.0,-2.0,0.0,1.0
1701799201.4923477,-1.0,-6.0,-12.0,-4.0,0.0,-1.0,-2.0,-5.0
1701799201.4933486,1.0,4.0,12.0,4.0,0.0,-3.0,0.0,-1.0
1701799201.4933486,-1.0,-3.0,-7.0,-4.0,-2.0,-2.0,-3.0,-1.0
1701799201.4933486,0.0,-1.0,2.0,1.0,-2.0,0.0,0.0,0.0
1701799201.4933486,-1.0,2.0,-1.0,-3.0,-1.0,-1.0,-2.0,-1.0
1701799201.5283046,0.0,1.0,17.0,6.0,-4.0,0.0,-1.0,-2.0
1701799201.5283046,-2.0,-7.0,-17.0,-5.0,0.0,1.0,1.0,-1.0
1701799201.5283046,-5.0,-3.0,11.0,-1.0,1.0,-2.0,1.0,-2.0
1701799201.5283046,3.0,-2.0,-33.0,-10.0,-3.0,-2.0,-2.0,-2.0
1701799201.5283046,2.0,4.0,15.0,4.0,0.0,1.0,-2.0,-3.0
1701799201.5283046,2.0,0.0,-12.0,-3.0,-2.0,0.0,-3.0,1.0
1701799201.5283046,-5.0,-2.0,-15.0,0.0,-1.0,0.0,0.0,-2.0
1701799201.5283046,-2.0,0.0,44.0,3.0,0.0,-1.0,-6.0,-10.0
1701799201.5283046,-1.0,4.0,-20.0,-6.0,-3.0,-3.0,3.0,9.0
1701799201.5283046,-1.0,-4.0,6.0,2.0,2.0,-2.0,-2.0,-5.0
1701799201.5283046,3.0,4.0,-3.0,-2.0,0.0,1.0,1.0,1.0
1701799201.5293043,-3.0,-4.0,-18.0,-9.0,-1.0,-2.0,1.0,-1.0
1701799201.6005838,-2.0,1.0,15.0,-1.0,-3.0,-1.0,-3.0,-4.0
1701799201.6015885,-5.0,-8.0,-7.0,-1.0,-3.0,-3.0,-2.0,-3.0
1701799201.6015885,0.0,1.0,4.0,9.0,9.0,2.0,1.0,2.0
1701799201.6015885,-3.0,1.0,5.0,-2.0,-5.0,-2.0,0.0,0.0
1701799201.6015885,-1.0,-15.0,4.0,5.0,-5.0,-2.0,-4.0,-3.0
1701799201.6015885,-2.0,8.0,-7.0,-7.0,1.0,1.0,2.0,0.0
1701799201.6015885,1.0,0.0,15.0,-1.0,-2.0,-2.0,-3.0,-3.0
1701799201.6015885,0.0,-1.0,15.0,2.0,4.0,0.0,-1.0,0.0
1701799201.6015885,-3.0,-7.0,-63.0,-14.0,-4.0,-2.0,-3.0,-2.0
1701799201.6015885,-3.0,-1.0,5.0,-2.0,-6.0,-3.0,1.0,0.0
1701799201.6015885,-2.0,-1.0,8.0,9.0,1.0,1.0,0.0,2.0
1701799201.6015885,-1.0,-2.0,-19.0,-8.0,-2.0,-2.0,-2.0,3.0
1701799201.6274428,-2.0,2.0,8.0,3.0,1.0,2.0,1.0,-3.0
1701799201.6274428,1.0,-1.0,-1.0,-3.0,-5.0,0.0,-3.0,-1.0
1701799201.6345205,-1.0,-4.0,-7.0,-6.0,-2.0,-1.0,-5.0,-11.0
1701799201.6345205,-1.0,-1.0,13.0,7.0,-4.0,-1.0,3.0,11.0
1701799201.6438282,-1.0,2.0,6.0,3.0,3.0,-2.0,-1.0,-8.0
1701799201.6438282,-2.0,-1.0,-6.0,-2.0,2.0,0.0,-7.0,-26.0
1701799201.6438282,18.0,1.0,-13.0,-6.0,-4.0,-2.0,7.0,34.0
1701799201.6438282,-13.0,-3.0,35.0,1.0,-1.0,-3.0,-9.0,-24.0
1701799201.6449764,-4.0,-7.0,-30.0,2.0,2.0,-2.0,7.0,29.0
1701799201.6449764,6.0,13.0,32.0,7.0,0.0,-3.0,6.0,-3.0
1701799201.6449764,-8.0,-1.0,-24.0,-24.0,-8.0,-3.0,-10.0,1.0
1701799201.6464093,-1.0,-13.0,-12.0,3.0,1.0,-1.0,5.0,-1.0
1701799201.7146564,13.0,10.0,38.0,-2.0,-4.0,-3.0,-7.0,-16.0
1701799201.7146564,-9.0,-7.0,-31.0,1.0,5.0,1.0,13.0,22.0
1701799201.7146564,3.0,14.0,46.0,13.0,-1.0,-2.0,-5.0,-15.0
1701799201.7146564,4.0,-4.0,-44.0,-6.0,0.0,0.0,-1.0,1.0
1701799201.7146564,-3.0,8.0,32.0,9.0,6.0,2.0,-1.0,-8.0
1701799201.7146564,-3.0,0.0,1.0,-8.0,-7.0,-5.0,-9.0,8.0
1701799201.7146564,-6.0,-5.0,-23.0,-16.0,-3.0,-3.0,-1.0,-5.0
1701799201.7146564,-3.0,1.0,-13.0,1.0,0.0,0.0,0.0,0.0
1701799201.7146564,4.0,3.0,11.0,6.0,-2.0,1.0,0.0,0.0
1701799201.7146564,2.0,-4.0,-23.0,-3.0,-2.0,0.0,-5.0,-3.0
1701799201.7187397,-5.0,-1.0,1.0,7.0,3.0,1.0,3.0,-3.0
1701799201.7187397,-1.0,-3.0,21.0,1.0,-3.0,0.0,0.0,3.0
1701799201.7576528,-5.0,0.0,-15.0,-6.0,-6.0,-4.0,-4.0,-6.0
1701799201.7576528,-1.0,2.0,50.0,6.0,3.0,0.0,1.0,2.0
1701799201.7576528,-3.0,-8.0,-52.0,2.0,-2.0,-2.0,0.0,0.0
1701799201.7576528,1.0,-2.0,-6.0,-3.0,3.0,1.0,-3.0,-4.0
1701799201.7576528,0.0,7.0,12.0,-10.0,-3.0,-2.0,2.0,1.0
1701799201.7576528,-1.0,-10.0,2.0,-4.0,0.0,0.0,-2.0,-8.0
1701799201.760142,-2.0,-8.0,1.0,-3.0,-9.0,-5.0,2.0,8.0
1701799201.760142,3.0,10.0,1.0,-5.0,-1.0,-1.0,-2.0,-2.0
1701799201.7611275,-10.0,-15.0,-28.0,-8.0,-10.0,-5.0,-2.0,-6.0
1701799201.7611275,3.0,16.0,10.0,-5.0,5.0,4.0,0.0,7.0
1701799201.8032634,0.0,-6.0,4.0,17.0,22.0,6.0,-1.0,-7.0
1701799201.8032634,-6.0,4.0,14.0,3.0,-3.0,0.0,2.0,3.0
1701799201.8032634,-4.0,-15.0,12.0,-7.0,-10.0,-4.0,-2.0,-1.0
1701799201.8032634,-4.0,-11.0,-58.0,0.0,1.0,0.0,-2.0,-5.0
1701799201.8032634,1.0,9.0,8.0,4.0,-3.0,-1.0,1.0,-1.0
1701799201.8032634,-3.0,-15.0,-18.0,-1.0,-4.0,-3.0,-2.0,0.0
1701799201.8042636,3.0,10.0,18.0,0.0,3.0,1.0,-2.0,0.0
1701799201.8042636,-2.0,-3.0,2.0,-8.0,-11.0,-5.0,-2.0,0.0
1701799201.8042636,-3.0,1.0,-25.0,-14.0,-1.0,-1.0,0.0,-2.0
1701799201.8042636,2.0,11.0,3.0,4.0,0.0,0.0,1.0,1.0
1701799201.823676,0.0,0.0,23.0,20.0,8.0,1.0,-1.0,-1.0
1701799201.8252966,0.0,-19.0,-31.0,-17.0,-3.0,-2.0,1.0,0.0
1701799201.8642838,9.0,-2.0,16.0,9.0,-1.0,-1.0,0.0,2.0
1701799201.8642838,-14.0,-3.0,1.0,-8.0,-4.0,0.0,0.0,-2.0
1701799201.8642838,-2.0,1.0,-5.0,1.0,3.0,1.0,-1.0,-2.0
1701799201.8642838,-2.0,13.0,24.0,5.0,1.0,-1.0,1.0,0.0
1701799201.8642838,0.0,-1.0,0.0,-5.0,-2.0,2.0,-1.0,-5.0
1701799201.8642838,3.0,-17.0,-5.0,2.0,2.0,1.0,-1.0,0.0
1701799201.8652818,5.0,14.0,-18.0,-2.0,0.0,-1.0,0.0,1.0
1701799201.8717406,-3.0,-13.0,9.0,1.0,-5.0,-3.0,-2.0,-2.0
1701799201.876428,-4.0,10.0,23.0,3.0,-5.0,-5.0,-3.0,-3.0
1701799201.876428,3.0,2.0,1.0,-2.0,-2.0,-4.0,-2.0,0.0
1701799201.9159012,-5.0,-3.0,6.0,-3.0,3.0,-1.0,0.0,1.0
1701799201.9159012,3.0,5.0,-10.0,-1.0,-2.0,0.0,-3.0,-1.0
1701799201.9159012,-4.0,-1.0,11.0,-3.0,-3.0,0.0,-1.0,-2.0
1701799201.9159012,1.0,1.0,-19.0,-2.0,-1.0,-1.0,0.0,1.0
1701799201.9159012,1.0,-1.0,9.0,-2.0,-1.0,-1.0,1.0,0.0
1701799201.9159012,-1.0,-4.0,-9.0,5.0,3.0,1.0,-1.0,-1.0
1701799201.9159012,-2.0,15.0,49.0,-7.0,-2.0,2.0,-1.0,-1.0
1701799201.9168987,-3.0,-12.0,-20.0,-7.0,-7.0,-4.0,-5.0,-8.0
1701799201.9314387,0.0,-1.0,-3.0,4.0,8.0,2.0,-1.0,6.0
1701799201.9314387,1.0,5.0,5.0,2.0,-7.0,-2.0,0.0,-1.0
1701799201.9413302,-2.0,-9.0,-15.0,10.0,4.0,0.0,-1.0,0.0
1701799201.9423728,5.0,14.0,16.0,-4.0,0.0,-1.0,5.0,5.0
1701799201.9663384,-4.0,-8.0,-10.0,-8.0,-3.0,-2.0,-2.0,-3.0
1701799201.9663384,-2.0,-5.0,-1.0,3.0,3.0,1.0,1.0,-1.0
1701799201.9663384,0.0,0.0,-6.0,-9.0,-7.0,-3.0,-4.0,-3.0
1701799201.9663384,-1.0,-1.0,-15.0,1.0,3.0,-1.0,-4.0,-3.0
1701799201.9673402,11.0,-5.0,9.0,-1.0,-2.0,1.0,0.0,5.0
1701799201.9673402,-15.0,6.0,9.0,5.0,4.0,0.0,-2.0,-16.0
1701799201.9673402,2.0,-2.0,-6.0,1.0,-2.0,0.0,1.0,-1.0
1701799201.9673402,-3.0,-6.0,2.0,-5.0,-4.0,-2.0,-2.0,-2.0
1701799201.995588,-6.0,1.0,7.0,1.0,0.0,3.0,4.0,1.0
1701799201.995588,13.0,14.0,-10.0,1.0,-2.0,0.0,-2.0,6.0
1701799201.99727,-8.0,-18.0,-18.0,-12.0,-4.0,-5.0,-4.0,-8.0
1701799201.99727,13.0,9.0,17.0,11.0,4.0,-1.0,-12.0,-1.0
1701799202.0325503,-13.0,0.0,-3.0,-5.0,-4.0,-2.0,9.0,8.0
1701799202.0325503,11.0,6.0,24.0,0.0,0.0,3.0,1.0,-1.0
1701799202.0325503,-3.0,-5.0,-18.0,-10.0,-2.0,0.0,11.0,9.0
1701799202.0325503,2.0,1.0,-3.0,0.0,1.0,1.0,1.0,-5.0
1701799202.0325503,-2.0,-1.0,-5.0,5.0,-3.0,-4.0,-2.0,9.0
1701799202.033556,-4.0,-4.0,-9.0,-3.0,1.0,0.0,-2.0,-4.0
1701799202.0347757,-1.0,-3.0,6.0,1.0,0.0,-2.0,1.0,1.0
1701799202.0347757,-4.0,1.0,4.0,0.0,-4.0,0.0,-3.0,-4.0
1701799202.0516522,8.0,1.0,3.0,7.0,-2.0,0.0,-6.0,-9.0
1701799202.0516522,-13.0,2.0,-6.0,-13.0,-4.0,-2.0,-2.0,-7.0
1701799202.0574877,1.0,-16.0,-28.0,-2.0,-2.0,-2.0,-6.0,-5.0
1701799202.0574877,-3.0,-4.0,-13.0,-6.0,0.0,-1.0,1.0,2.0
1701799202.0881193,1.0,2.0,22.0,5.0,0.0,2.0,-2.0,-4.0
1701799202.0881193,3.0,-12.0,-31.0,-3.0,-3.0,-3.0,0.0,5.0
1701799202.0881193,-5.0,9.0,33.0,0.0,-4.0,-3.0,-6.0,-1.0
1701799202.0881193,-3.0,-1.0,3.0,-1.0,1.0,-2.0,2.0,-1.0
1701799202.090917,0.0,2.0,9.0,-8.0,-4.0,1.0,-2.0,-8.0
1701799202.090917,1.0,-2.0,5.0,-4.0,-4.0,-4.0,0.0,11.0
1701799202.0919158,-2.0,-3.0,-23.0,9.0,5.0,1.0,-5.0,-3.0
1701799202.0919158,0.0,3.0,14.0,-3.0,-5.0,-1.0,5.0,5.0
1701799202.1320944,0.0,-9.0,-27.0,1.0,2.0,-2.0,-2.0,-5.0
1701799202.1320944,2.0,14.0,31.0,7.0,5.0,2.0,-1.0,0.0
1701799202.1320944,-3.0,-18.0,22.0,15.0,1.0,-1.0,-1.0,-2.0
1701799202.1320944,-2.0,-3.0,-32.0,-24.0,-7.0,-2.0,1.0,0.0
1701799202.1320944,-3.0,-5.0,-20.0,-14.0,-5.0,-5.0,-4.0,-2.0
1701799202.1320944,-5.0,-4.0,-6.0,2.0,0.0,-2.0,-2.0,-2.0
1701799202.1330965,6.0,7.0,16.0,-2.0,1.0,0.0,1.0,3.0
1701799202.1330965,0.0,4.0,19.0,22.0,3.0,1.0,-5.0,-7.0
1701799202.147026,-7.0,-4.0,-2.0,-4.0,-2.0,0.0,1.0,-4.0
1701799202.147026,5.0,-1.0,-9.0,-9.0,-3.0,0.0,0.0,0.0
1701799202.1487591,7.0,8.0,0.0,3.0,-2.0,3.0,4.0,4.0
1701799202.1487591,-8.0,-9.0,-22.0,-5.0,1.0,0.0,1.0,1.0
1701799202.214221,-5.0,-1.0,-5.0,1.0,1.0,-2.0,-5.0,-4.0
1701799202.2158997,5.0,-4.0,8.0,6.0,-1.0,-7.0,-19.0,-16.0
1701799202.2270787,-14.0,3.0,-10.0,-8.0,-1.0,-1.0,-6.0,3.0
1701799202.2270787,-3.0,-1.0,-8.0,10.0,1.0,6.0,26.0,-5.0
1701799202.2270787,8.0,7.0,19.0,0.0,-1.0,-2.0,9.0,20.0
1701799202.2270787,0.0,-12.0,-15.0,-7.0,-2.0,0.0,5.0,0.0
1701799202.2270787,-10.0,1.0,-7.0,-8.0,-3.0,-6.0,-10.0,-5.0
1701799202.2270787,-9.0,1.0,-1.0,-8.0,1.0,-4.0,-12.0,-1.0
1701799202.2270787,16.0,7.0,17.0,14.0,1.0,1.0,-7.0,-21.0
1701799202.2270787,-16.0,-14.0,6.0,-12.0,-6.0,-4.0,-5.0,18.0
1701799202.2270787,-2.0,2.0,-16.0,-2.0,-5.0,-1.0,4.0,-1.0
1701799202.2270787,0.0,3.0,4.0,2.0,2.0,1.0,8.0,4.0
1701799202.258465,-6.0,-5.0,-2.0,-6.0,-2.0,-1.0,-1.0,-3.0
1701799202.258465,3.0,8.0,22.0,9.0,2.0,1.0,0.0,-2.0
1701799202.260008,1.0,-1.0,-15.0,-5.0,2.0,-5.0,-6.0,-8.0
1701799202.260008,-1.0,-6.0,4.0,-6.0,-5.0,-4.0,-8.0,1.0
1701799202.260008,1.0,-4.0,-13.0,6.0,2.0,3.0,-1.0,-1.0
1701799202.260008,-4.0,0.0,7.0,0.0,-3.0,0.0,4.0,-2.0
1701799202.260008,0.0,1.0,5.0,4.0,1.0,0.0,3.0,-1.0
1701799202.260008,6.0,2.0,6.0,2.0,-1.0,-2.0,-10.0,-1.0
1701799202.2610388,-5.0,4.0,-5.0,-3.0,1.0,0.0,3.0,4.0
1701799202.2610388,-3.0,-10.0,-19.0,0.0,-1.0,-2.0,4.0,-3.0
1701799202.2610388,2.0,0.0,16.0,1.0,-1.0,3.0,10.0,-8.0
1701799202.2610388,-1.0,-5.0,-20.0,-12.0,-2.0,-4.0,-6.0,9.0
1701799202.3126423,1.0,-6.0,-15.0,-2.0,-4.0,0.0,-2.0,2.0
1701799202.3126423,-9.0,2.0,7.0,5.0,2.0,0.0,-1.0,-1.0
1701799202.3126423,0.0,2.0,-4.0,4.0,0.0,-2.0,-6.0,-8.0
1701799202.3126423,-2.0,-3.0,-12.0,-2.0,0.0,2.0,-3.0,-3.0
1701799202.3177288,-8.0,-6.0,-4.0,3.0,0.0,-1.0,2.0,-2.0
1701799202.3177288,5.0,3.0,-2.0,-8.0,-1.0,-1.0,4.0,1.0
1701799202.3177288,0.0,-2.0,1.0,-4.0,-2.0,0.0,-4.0,-3.0
1701799202.3177288,-1.0,-1.0,5.0,4.0,-5.0,-3.0,-3.0,-2.0
1701799202.3570697,3.0,6.0,9.0,-3.0,2.0,-1.0,-2.0,2.0
1701799202.3570697,2.0,5.0,4.0,-2.0,-2.0,2.0,-2.0,-3.0
1701799202.3570697,29.0,-3.0,10.0,1.0,-1.0,-2.0,1.0,14.0
1701799202.3570697,-9.0,2.0,-13.0,-5.0,-1.0,-1.0,-2.0,-10.0
1701799202.3570697,-16.0,-13.0,-3.0,-4.0,-3.0,-1.0,1.0,-2.0
1701799202.3580704,-19.0,1.0,-5.0,-3.0,-1.0,1.0,-2.0,-7.0
1701799202.3623977,1.0,3.0,-1.0,-1.0,-1.0,-1.0,-6.0,1.0
1701799202.3623977,18.0,0.0,31.0,8.0,0.0,-2.0,0.0,6.0
1701799202.365913,1.0,-6.0,-34.0,-12.0,-3.0,1.0,3.0,1.0
1701799202.365913,5.0,-3.0,-16.0,-2.0,-4.0,-3.0,-1.0,0.0
1701799202.365913,-6.0,-3.0,-1.0,-3.0,-3.0,-3.0,-1.0,-3.0
1701799202.365913,-12.0,-2.0,-10.0,3.0,1.0,-3.0,-7.0,-4.0
1701799202.41867,1.0,6.0,13.0,2.0,0.0,-1.0,-5.0,-3.0
1701799202.41867,4.0,0.0,-6.0,-2.0,-2.0,-3.0,4.0,2.0
1701799202.41867,-5.0,-4.0,-1.0,-2.0,-2.0,-1.0,0.0,-1.0
1701799202.4196684,-12.0,-8.0,2.0,2.0,-1.0,0.0,-1.0,-4.0
1701799202.4224699,9.0,7.0,-8.0,-6.0,0.0,0.0,-1.0,-3.0
1701799202.4224699,3.0,1.0,16.0,5.0,-2.0,-1.0,-3.0,4.0
1701799202.4224699,-7.0,-8.0,-43.0,-5.0,-3.0,1.0,-1.0,-5.0
1701799202.4224699,3.0,6.0,21.0,2.0,-1.0,-2.0,0.0,9.0
1701799202.4241295,-2.0,-4.0,-1.0,2.0,-3.0,-4.0,-1.0,-2.0
1701799202.4341428,0.0,-4.0,-5.0,-2.0,-1.0,-3.0,-5.0,-6.0
1701799202.4341428,1.0,10.0,15.0,-6.0,-1.0,2.0,0.0,-1.0
1701799202.4341428,-12.0,-19.0,-30.0,-8.0,-1.0,1.0,2.0,1.0
1701799202.477214,-1.0,3.0,13.0,9.0,0.0,-3.0,-3.0,-1.0
1701799202.477214,0.0,-2.0,-27.0,-8.0,1.0,1.0,2.0,3.0
1701799202.477214,-4.0,1.0,7.0,-5.0,-2.0,-1.0,-1.0,-4.0
1701799202.477214,7.0,6.0,11.0,7.0,0.0,0.0,-2.0,-1.0
1701799202.477214,-1.0,2.0,7.0,-3.0,0.0,-1.0,-1.0,0.0
1701799202.477214,1.0,-12.0,-23.0,-1.0,-1.0,-1.0,-2.0,-3.0
1701799202.477214,-5.0,3.0,13.0,1.0,-2.0,-3.0,0.0,2.0
1701799202.477214,8.0,6.0,13.0,-2.0,-1.0,1.0,0.0,-3.0
1701799202.4883387,-4.0,-7.0,6.0,4.0,0.0,1.0,-2.0,-2.0
1701799202.4883387,1.0,2.0,-3.0,-2.0,-1.0,1.0,-2.0,-2.0
1701799202.4883387,-7.0,-6.0,-21.0,-3.0,0.0,1.0,1.0,0.0
1701799202.4883387,6.0,0.0,-4.0,-1.0,-2.0,-2.0,0.0,-1.0
1701799202.5463762,-3.0,5.0,16.0,3.0,-1.0,-4.0,-3.0,1.0
1701799202.5463762,-4.0,-3.0,-1.0,-2.0,0.0,0.0,0.0,-1.0
1701799202.5463762,5.0,0.0,-3.0,-1.0,-1.0,-4.0,-5.0,-2.0
1701799202.5463762,-5.0,4.0,-8.0,-2.0,-2.0,-2.0,2.0,0.0
1701799202.5463762,2.0,2.0,17.0,1.0,0.0,2.0,0.0,-1.0
1701799202.5463762,3.0,-7.0,-26.0,-1.0,-1.0,-1.0,-5.0,-1.0
1701799202.5463762,-8.0,-6.0,-9.0,-3.0,-1.0,3.0,13.0,2.0
1701799202.5463762,-1.0,2.0,-13.0,-3.0,-2.0,-2.0,-3.0,-3.0
1701799202.548202,-1.0,0.0,-4.0,-7.0,-4.0,-4.0,-4.0,-3.0
1701799202.548202,3.0,5.0,15.0,6.0,1.0,0.0,-4.0,-8.0
1701799202.5551457,-8.0,0.0,9.0,4.0,1.0,-3.0,-6.0,2.0
1701799202.5551457,4.0,-9.0,-11.0,-10.0,-6.0,0.0,1.0,1.0
1701799202.5675395,-5.0,1.0,5.0,4.0,-1.0,-3.0,-2.0,-4.0
1701799202.5675395,4.0,4.0,6.0,5.0,2.0,1.0,4.0,1.0
1701799202.5690649,1.0,-2.0,-7.0,0.0,-3.0,-3.0,-6.0,-1.0
1701799202.5690649,-6.0,2.0,31.0,7.0,3.0,0.0,2.0,-3.0
1701799202.6279705,-10.0,-11.0,-50.0,-28.0,-9.0,-7.0,-8.0,-4.0
1701799202.6279705,-3.0,-1.0,19.0,-8.0,-5.0,-8.0,-12.0,-6.0
1701799202.6279705,3.0,3.0,6.0,6.0,2.0,4.0,4.0,-3.0
1701799202.6279705,1.0,2.0,14.0,12.0,1.0,0.0,2.0,8.0
1701799202.6602097,9.0,2.0,-1.0,0.0,0.0,2.0,7.0,-1.0
1701799202.6602097,-15.0,-4.0,-13.0,-4.0,-2.0,-3.0,-8.0,2.0
1701799202.6602097,-2.0,0.0,13.0,2.0,1.0,1.0,8.0,-3.0
1701799202.6602097,3.0,-1.0,0.0,-11.0,-2.0,-2.0,2.0,3.0
1701799202.6612086,6.0,-4.0,-13.0,6.0,0.0,-1.0,-4.0,5.0
1701799202.6612086,-4.0,5.0,10.0,0.0,2.0,-2.0,2.0,-7.0
1701799202.6612086,6.0,-5.0,12.0,1.0,-2.0,-1.0,-7.0,-2.0
1701799202.6612086,-12.0,-4.0,-30.0,-8.0,-3.0,-7.0,-10.0,-6.0
1701799202.6612086,-3.0,3.0,19.0,7.0,0.0,3.0,9.0,10.0
1701799202.6612086,1.0,0.0,-17.0,-7.0,-1.0,7.0,6.0,-2.0
1701799202.6612086,1.0,0.0,6.0,0.0,-2.0,-2.0,3.0,5.0
1701799202.6612086,4.0,-4.0,4.0,0.0,0.0,-1.0,-11.0,-9.0
1701799202.7088501,-1.0,0.0,-10.0,-6.0,1.0,-2.0,-16.0,-9.0
1701799202.7088501,1.0,0.0,31.0,25.0,-3.0,4.0,20.0,11.0
1701799202.7088501,-2.0,-6.0,-35.0,-38.0,-6.0,-3.0,-3.0,-4.0
1701799202.7088501,5.0,7.0,8.0,3.0,-1.0,4.0,6.0,2.0
1701799202.7088501,-7.0,-5.0,-17.0,-9.0,2.0,-3.0,-5.0,-6.0
1701799202.7088501,3.0,3.0,17.0,6.0,-5.0,1.0,-7.0,-3.0
1701799202.7088501,-3.0,-9.0,-14.0,4.0,4.0,-8.0,-2.0,1.0
1701799202.7088501,2.0,0.0,1.0,1.0,-4.0,-3.0,-3.0,1.0
1701799202.7098527,0.0,3.0,0.0,-4.0,-2.0,5.0,1.0,-3.0
1701799202.7098527,-1.0,0.0,-9.0,-8.0,1.0,-4.0,-3.0,11.0
1701799202.7118342,-3.0,-1.0,-5.0,9.0,0.0,2.0,-2.0,-1.0
1701799202.7118342,-4.0,-4.0,16.0,18.0,5.0,2.0,-1.0,-3.0
1701799202.7332802,2.0,3.0,-26.0,-32.0,-9.0,-2.0,5.0,-1.0
1701799202.7332802,3.0,4.0,1.0,-2.0,0.0,-3.0,-1.0,-3.0
1701799202.734281,-3.0,2.0,0.0,-5.0,0.0,0.0,-5.0,-4.0
1701799202.734281,0.0,8.0,4.0,-1.0,-8.0,-4.0,0.0,2.0
1701799202.7761183,-1.0,-12.0,3.0,12.0,5.0,3.0,0.0,-3.0
1701799202.7761183,-1.0,-1.0,11.0,7.0,6.0,-1.0,-1.0,-3.0
1701799202.7761183,-3.0,-2.0,-29.0,0.0,-4.0,-1.0,-3.0,-3.0
1701799202.7761183,2.0,0.0,2.0,6.0,2.0,1.0,-1.0,4.0
1701799202.7774444,-2.0,-1.0,10.0,-7.0,-7.0,-7.0,-6.0,-2.0
1701799202.778833,-2.0,-8.0,-8.0,-12.0,-7.0,-7.0,3.0,-3.0
1701799202.7879672,-1.0,2.0,33.0,14.0,3.0,5.0,5.0,10.0
1701799202.7879672,-2.0,-6.0,-12.0,-11.0,-2.0,-3.0,1.0,-13.0
1701799202.8121507,3.0,6.0,-1.0,3.0,-1.0,-4.0,0.0,0.0
1701799202.8121507,-11.0,2.0,5.0,6.0,0.0,1.0,0.0,-5.0
1701799202.8121507,-2.0,-8.0,6.0,3.0,-3.0,-4.0,-6.0,-5.0
1701799202.8121507,-3.0,-1.0,-18.0,-10.0,1.0,0.0,-2.0,0.0
1701799202.8121507,-2.0,-3.0,14.0,11.0,-1.0,-3.0,-1.0,0.0
1701799202.8121507,5.0,3.0,7.0,10.0,1.0,0.0,-10.0,-6.0
1701799202.813192,0.0,2.0,-20.0,-14.0,-2.0,3.0,9.0,7.0
1701799202.813192,-2.0,-1.0,4.0,-2.0,2.0,-1.0,-2.0,-1.0
1701799202.8315089,-2.0,3.0,16.0,13.0,1.0,-3.0,-19.0,-15.0
1701799202.8315089,-6.0,-5.0,-30.0,-7.0,-4.0,1.0,12.0,13.0
1701799202.8387418,6.0,-6.0,7.0,-13.0,-5.0,-1.0,3.0,-5.0
1701799202.839742,6.0,8.0,32.0,13.0,2.0,2.0,5.0,3.0
1701799202.8668191,-9.0,-11.0,-21.0,-10.0,0.0,3.0,2.0,-6.0
1701799202.8668191,6.0,-1.0,4.0,-10.0,-4.0,-5.0,-6.0,5.0
1701799202.8668191,-20.0,0.0,-16.0,7.0,1.0,-5.0,-8.0,-12.0
1701799202.8668191,7.0,-6.0,-8.0,-18.0,-7.0,0.0,1.0,13.0
1701799202.8680081,-11.0,7.0,23.0,14.0,5.0,-2.0,-7.0,-4.0
1701799202.8680081,-2.0,-6.0,-16.0,-11.0,-3.0,-1.0,-3.0,-6.0
1701799202.8755622,7.0,-1.0,10.0,11.0,3.0,0.0,5.0,8.0
1701799202.8755622,-5.0,-1.0,3.0,-3.0,-2.0,-1.0,-5.0,-12.0
1701799202.9069118,5.0,3.0,14.0,8.0,0.0,1.0,9.0,4.0
1701799202.9069118,-2.0,7.0,-9.0,-6.0,1.0,1.0,3.0,1.0
1701799202.9069118,4.0,-1.0,-4.0,-4.0,-4.0,-4.0,-5.0,-2.0
1701799202.9069118,-3.0,-3.0,-8.0,0.0,0.0,-4.0,-4.0,-6.0
1701799202.9079542,4.0,-4.0,5.0,-3.0,-2.0,0.0,1.0,4.0
1701799202.9079542,1.0,-2.0,5.0,4.0,-1.0,1.0,0.0,-3.0
1701799202.9153037,0.0,5.0,9.0,-6.0,-2.0,-2.0,-10.0,-7.0
1701799202.9153037,-2.0,-5.0,-16.0,-3.0,-1.0,2.0,-5.0,-3.0
1701799202.9262881,-3.0,-3.0,-4.0,-2.0,-2.0,1.0,17.0,9.0
1701799202.9278224,2.0,0.0,23.0,4.0,-3.0,0.0,-4.0,-1.0
1701799202.9362335,-2.0,1.0,-4.0,-1.0,-6.0,0.0,0.0,6.0
1701799202.937297,-4.0,-13.0,-42.0,-8.0,0.0,-1.0,0.0,2.0
1701799202.9747245,3.0,6.0,13.0,-2.0,-1.0,-1.0,-1.0,0.0
1701799202.9747245,-1.0,-3.0,-6.0,13.0,15.0,-2.0,-7.0,-4.0
1701799202.9747245,1.0,0.0,6.0,2.0,1.0,-1.0,-1.0,-3.0
1701799202.9747245,-3.0,-1.0,1.0,-3.0,-5.0,-2.0,1.0,0.0
1701799202.9747245,2.0,-4.0,-35.0,-10.0,-6.0,-4.0,-4.0,1.0
1701799202.9747245,-2.0,0.0,8.0,-4.0,-4.0,0.0,0.0,-4.0
1701799202.975728,-1.0,1.0,12.0,5.0,1.0,1.0,0.0,-1.0
1701799202.975728,0.0,-1.0,-3.0,-2.0,0.0,-1.0,-1.0,-4.0
1701799202.9872105,1.0,4.0,5.0,-3.0,-4.0,-2.0,1.0,-1.0
1701799202.9872105,0.0,-1.0,4.0,1.0,-3.0,-2.0,-3.0,-3.0
1701799202.9962296,0.0,2.0,-15.0,0.0,1.0,-1.0,2.0,1.0
1701799202.9972324,3.0,-1.0,20.0,4.0,1.0,-1.0,0.0,-2.0
1701799203.032848,-4.0,-8.0,-30.0,-11.0,-1.0,-1.0,-1.0,-3.0
1701799203.032848,-2.0,-1.0,-12.0,0.0,0.0,1.0,-5.0,3.0
1701799203.032848,0.0,5.0,12.0,0.0,-1.0,-3.0,-7.0,-7.0
1701799203.032848,0.0,-3.0,-3.0,-3.0,0.0,-2.0,0.0,-1.0
1701799203.032848,2.0,1.0,1.0,2.0,2.0,3.0,9.0,5.0
1701799203.032848,1.0,0.0,-3.0,-3.0,-2.0,-4.0,-1.0,-3.0
1701799203.034219,4.0,0.0,9.0,0.0,-1.0,-1.0,2.0,3.0
1701799203.034219,-10.0,0.0,16.0,7.0,0.0,-1.0,-9.0,-9.0
1701799203.0474577,0.0,-4.0,-13.0,0.0,0.0,-2.0,-1.0,0.0
1701799203.0474577,-6.0,-4.0,-7.0,-7.0,-1.0,1.0,1.0,-2.0
1701799203.0585024,3.0,1.0,5.0,1.0,-4.0,-2.0,-2.0,-1.0
1701799203.059856,3.0,1.0,-6.0,-4.0,-2.0,-3.0,-5.0,-8.0
1701799203.091723,-4.0,-4.0,1.0,1.0,3.0,1.0,3.0,10.0
1701799203.091723,4.0,2.0,13.0,5.0,-3.0,-1.0,1.0,-1.0
1701799203.091723,-3.0,-5.0,-18.0,-8.0,0.0,-1.0,-1.0,0.0
1701799203.091723,-2.0,0.0,-15.0,-10.0,-2.0,-3.0,1.0,0.0
1701799203.092768,-3.0,0.0,13.0,7.0,-4.0,-1.0,-5.0,-5.0
1701799203.092768,3.0,0.0,6.0,1.0,2.0,2.0,4.0,2.0
1701799203.0943234,-1.0,0.0,9.0,2.0,-2.0,0.0,-1.0,-3.0
1701799203.0943234,-3.0,-4.0,-14.0,-5.0,-2.0,2.0,4.0,3.0
1701799203.1472752,0.0,4.0,20.0,0.0,-2.0,-2.0,-3.0,-3.0
1701799203.1472752,1.0,-4.0,-25.0,-5.0,0.0,0.0,-2.0,-1.0
1701799203.1472752,-5.0,5.0,19.0,2.0,-1.0,-1.0,-5.0,-4.0
1701799203.1472752,4.0,2.0,-9.0,2.0,7.0,2.0,3.0,1.0
1701799203.1472752,0.0,0.0,9.0,0.0,-2.0,-3.0,-10.0,-6.0
1701799203.1472752,2.0,-1.0,-3.0,0.0,1.0,1.0,6.0,1.0
1701799203.1472752,-3.0,1.0,12.0,1.0,1.0,0.0,7.0,-1.0
1701799203.1472752,4.0,4.0,14.0,1.0,-3.0,0.0,-1.0,4.0
1701799203.150933,-3.0,-10.0,-46.0,-7.0,0.0,-4.0,0.0,-4.0
1701799203.150933,0.0,2.0,-2.0,-8.0,-3.0,-2.0,-4.0,-1.0
1701799203.1552494,-1.0,-3.0,2.0,1.0,0.0,0.0,-1.0,-4.0
1701799203.1552494,-5.0,-5.0,13.0,5.0,-3.0,-4.0,0.0,-4.0
1701799203.212658,0.0,-1.0,-7.0,-3.0,0.0,-3.0,0.0,-2.0
1701799203.212658,1.0,1.0,4.0,-2.0,-3.0,-3.0,-6.0,-1.0
1701799203.212658,0.0,-3.0,-7.0,-2.0,0.0,2.0,4.0,-2.0
1701799203.212658,-4.0,-2.0,-12.0,-3.0,-2.0,0.0,3.0,7.0
1701799203.212658,2.0,1.0,8.0,2.0,0.0,-1.0,-2.0,0.0
1701799203.212658,-3.0,-3.0,5.0,4.0,-1.0,-2.0,-4.0,-4.0
1701799203.2154665,0.0,0.0,-16.0,-9.0,0.0,0.0,1.0,-1.0
1701799203.2154665,-1.0,-6.0,-15.0,-4.0,-2.0,0.0,1.0,-2.0
1701799203.216466,-4.0,2.0,11.0,2.0,-2.0,0.0,-2.0,0.0
1701799203.216466,1.0,-4.0,-2.0,1.0,0.0,1.0,2.0,-1.0
1701799203.216466,-2.0,1.0,6.0,7.0,-3.0,-5.0,-4.0,0.0
1701799203.216466,-2.0,4.0,5.0,-8.0,-1.0,-3.0,-3.0,-3.0
1701799203.2629402,2.0,0.0,5.0,-3.0,1.0,-1.0,-1.0,0.0
1701799203.263939,-5.0,2.0,0.0,-5.0,-4.0,-3.0,-2.0,-3.0
1701799203.2700703,0.0,-11.0,-21.0,-1.0,0.0,2.0,-2.0,2.0
1701799203.2700703,-2.0,1.0,2.0,2.0,2.0,-1.0,-1.0,0.0
1701799203.2700703,0.0,-1.0,6.0,1.0,0.0,-2.0,-3.0,-2.0
1701799203.2700703,-2.0,1.0,6.0,-1.0,-2.0,-1.0,-2.0,0.0
1701799203.2700703,-4.0,0.0,-2.0,-4.0,-3.0,-2.0,0.0,-1.0
1701799203.2700703,11.0,0.0,11.0,6.0,0.0,1.0,6.0,5.0
1701799203.271104,-9.0,-3.0,-17.0,-5.0,0.0,2.0,-2.0,-9.0
1701799203.271104,4.0,-5.0,-31.0,-14.0,-3.0,-3.0,-1.0,1.0
1701799203.2756407,-5.0,0.0,3.0,2.0,-1.0,-2.0,-7.0,-15.0
1701799203.2756407,6.0,-1.0,-12.0,0.0,0.0,2.0,6.0,16.0
1701799203.3203151,4.0,5.0,31.0,10.0,0.0,0.0,5.0,5.0
1701799203.3203151,-9.0,-2.0,-8.0,-5.0,-1.0,0.0,-10.0,-5.0
1701799203.3213143,7.0,-7.0,-10.0,-6.0,-5.0,-4.0,-10.0,-3.0
1701799203.3213143,-12.0,-2.0,8.0,5.0,1.0,-4.0,-25.0,-13.0
1701799203.3213143,2.0,2.0,9.0,2.0,0.0,-1.0,3.0,-1.0
1701799203.3213143,1.0,3.0,-5.0,2.0,2.0,4.0,23.0,8.0
1701799203.3213143,0.0,-3.0,12.0,8.0,2.0,2.0,7.0,2.0
1701799203.3213143,-2.0,0.0,15.0,-8.0,-3.0,0.0,3.0,2.0
1701799203.3314462,-8.0,-1.0,-28.0,5.0,0.0,-4.0,-14.0,-6.0
1701799203.3314462,3.0,-10.0,0.0,-3.0,-3.0,-4.0,-13.0,-9.0
1701799203.3354945,0.0,4.0,-24.0,-11.0,-1.0,-3.0,-8.0,4.0
1701799203.3354945,0.0,-1.0,-12.0,0.0,-1.0,0.0,8.0,-1.0
1701799203.3811805,-3.0,-2.0,13.0,2.0,-3.0,0.0,-3.0,-1.0
1701799203.3816438,-4.0,-3.0,3.0,1.0,-1.0,-3.0,1.0,0.0
1701799203.3841329,1.0,-1.0,-6.0,2.0,0.0,0.0,-1.0,1.0
1701799203.3841329,-1.0,0.0,-3.0,-2.0,0.0,-1.0,-8.0,-3.0
1701799203.3841329,1.0,-1.0,-7.0,-5.0,-2.0,0.0,7.0,-1.0
1701799203.3841329,-2.0,-2.0,5.0,-1.0,-4.0,-4.0,-4.0,-4.0
1701799203.3841329,0.0,6.0,13.0,-1.0,-2.0,-2.0,-4.0,2.0
1701799203.3841329,-4.0,-5.0,-4.0,4.0,-3.0,1.0,4.0,-3.0
1701799203.425086,-6.0,-10.0,-36.0,-21.0,-1.0,-4.0,4.0,-7.0
1701799203.425086,4.0,4.0,4.0,1.0,0.0,-1.0,-5.0,3.0
1701799203.4260833,-4.0,-1.0,-1.0,-9.0,1.0,-4.0,-5.0,0.0
1701799203.4260833,-1.0,1.0,2.0,3.0,-1.0,0.0,11.0,-1.0
1701799203.4260833,3.0,6.0,17.0,8.0,0.0,-2.0,-9.0,1.0
1701799203.4260833,2.0,-12.0,-9.0,-3.0,-1.0,-1.0,-5.0,-1.0
1701799203.4315684,-11.0,1.0,23.0,3.0,1.0,-2.0,7.0,-3.0
1701799203.4315684,8.0,3.0,5.0,4.0,-1.0,0.0,3.0,1.0
1701799203.4315684,-12.0,-9.0,-16.0,-6.0,-4.0,-3.0,-2.0,-4.0
1701799203.4315684,0.0,1.0,-3.0,-1.0,0.0,-1.0,-5.0,-7.0
1701799203.4331443,-9.0,-1.0,-2.0,1.0,-3.0,-1.0,-1.0,1.0
1701799203.4331443,3.0,-1.0,-4.0,-5.0,-3.0,-7.0,-12.0,-2.0
1701799203.4841821,2.0,5.0,21.0,6.0,2.0,4.0,6.0,0.0
1701799203.4841821,-4.0,-3.0,-9.0,3.0,-2.0,1.0,7.0,4.0
1701799203.4841821,7.0,-3.0,0.0,-1.0,-2.0,4.0,0.0,-1.0
1701799203.4841821,2.0,8.0,3.0,-9.0,0.0,-3.0,-2.0,-6.0
1701799203.490913,-5.0,-21.0,-75.0,-22.0,-5.0,-1.0,-1.0,0.0
1701799203.490913,-5.0,4.0,11.0,3.0,2.0,-5.0,-2.0,-6.0
1701799203.490913,1.0,0.0,1.0,0.0,0.0,-2.0,0.0,0.0
1701799203.490913,-1.0,-1.0,19.0,7.0,3.0,-1.0,0.0,-2.0
1701799203.490913,7.0,2.0,-3.0,2.0,0.0,-1.0,-3.0,4.0
1701799203.4918983,-5.0,-4.0,-3.0,-11.0,-5.0,-3.0,-4.0,-3.0
1701799203.4918983,-2.0,-5.0,0.0,8.0,3.0,1.0,3.0,-3.0
1701799203.4918983,1.0,-1.0,-2.0,-9.0,-4.0,-3.0,-3.0,1.0
1701799203.5471234,-7.0,6.0,16.0,0.0,-3.0,-1.0,3.0,-12.0
1701799203.5471234,2.0,1.0,7.0,5.0,1.0,3.0,2.0,6.0
1701799203.5471234,6.0,0.0,-22.0,-1.0,-1.0,2.0,-2.0,-4.0
1701799203.5471234,-5.0,-1.0,-2.0,1.0,-2.0,-1.0,-9.0,6.0
1701799203.5471234,-21.0,-5.0,21.0,2.0,0.0,1.0,8.0,1.0
1701799203.5471234,6.0,6.0,1.0,0.0,-2.0,-4.0,0.0,-2.0
1701799203.5471234,-1.0,0.0,5.0,-2.0,-1.0,-1.0,1.0,1.0
1701799203.5471234,-2.0,-8.0,-45.0,-6.0,-1.0,-3.0,-3.0,-6.0
1701799203.5471234,7.0,6.0,37.0,17.0,2.0,-3.0,-5.0,2.0
1701799203.5471234,-5.0,2.0,2.0,-14.0,-4.0,-1.0,-1.0,-5.0
1701799203.5875263,-2.0,-15.0,-52.0,-4.0,-1.0,2.0,4.0,2.0
1701799203.5875263,-1.0,0.0,21.0,-3.0,-3.0,-1.0,0.0,-4.0
1701799203.5875263,3.0,0.0,5.0,5.0,1.0,1.0,-2.0,2.0
1701799203.5875263,-1.0,-2.0,8.0,5.0,-3.0,-1.0,-1.0,-1.0
1701799203.5875263,1.0,4.0,10.0,0.0,0.0,-1.0,-5.0,-1.0
1701799203.5875263,-2.0,-1.0,-16.0,-6.0,0.0,1.0,1.0,-4.0
1701799203.589563,3.0,-1.0,1.0,-2.0,-1.0,-3.0,-2.0,1.0
1701799203.589563,-2.0,2.0,9.0,9.0,4.0,0.0,-2.0,-1.0
1701799203.5977058,-1.0,-2.0,9.0,-10.0,-6.0,-6.0,-2.0,0.0
1701799203.5977058,-6.0,-6.0,-15.0,5.0,-1.0,0.0,1.0,-3.0
1701799203.6099243,5.0,1.0,7.0,-2.0,1.0,0.0,0.0,1.0
1701799203.6099243,-1.0,-2.0,-6.0,1.0,2.0,-2.0,-5.0,-7.0
1701799203.6439474,-10.0,2.0,26.0,3.0,-4.0,0.0,4.0,6.0
1701799203.6439474,5.0,-2.0,-2.0,-1.0,-1.0,-2.0,-3.0,-3.0
1701799203.6439474,3.0,3.0,-3.0,-4.0,-1.0,6.0,3.0,0.0
1701799203.6439474,0.0,6.0,-3.0,2.0,-1.0,-1.0,2.0,1.0
1701799203.6439474,-2.0,-8.0,4.0,1.0,-3.0,-3.0,-1.0,0.0
1701799203.6439474,-2.0,3.0,2.0,-3.0,1.0,0.0,1.0,2.0
1701799203.6551192,-4.0,-1.0,15.0,8.0,2.0,-3.0,-8.0,-4.0
1701799203.6551192,3.0,1.0,-5.0,1.0,1.0,1.0,4.0,0.0
1701799203.658037,-6.0,0.0,-10.0,-3.0,0.0,2.0,-4.0,-4.0
1701799203.658037,-3.0,5.0,13.0,-2.0,-1.0,-2.0,-1.0,-1.0
1701799203.6701062,-1.0,-5.0,0.0,-7.0,-4.0,-4.0,-2.0,-4.0
1701799203.6701062,-3.0,13.0,-2.0,-4.0,-2.0,0.0,-5.0,2.0
1701799203.7215362,5.0,-16.0,-25.0,-3.0,1.0,-1.0,4.0,2.0
1701799203.7215362,-2.0,-5.0,-1.0,-2.0,-1.0,3.0,7.0,-1.0
1701799203.7215362,4.0,4.0,6.0,4.0,1.0,0.0,1.0,5.0
1701799203.7215362,-5.0,-11.0,-23.0,-10.0,-4.0,-3.0,-4.0,-2.0
1701799203.7215362,0.0,7.0,13.0,-3.0,-2.0,-1.0,-2.0,-8.0
1701799203.7215362,-4.0,1.0,-15.0,-3.0,-2.0,-3.0,-2.0,-1.0
1701799203.7215362,2.0,-4.0,13.0,6.0,-2.0,-1.0,-1.0,3.0
1701799203.7215362,-1.0,-1.0,6.0,-1.0,3.0,2.0,3.0,0.0
1701799203.7215362,-2.0,13.0,4.0,-1.0,0.0,-4.0,-5.0,-2.0
1701799203.7215362,-2.0,-16.0,-4.0,1.0,-1.0,1.0,-2.0,-2.0
1701799203.7225354,3.0,-3.0,-14.0,-5.0,-3.0,-1.0,1.0,0.0
1701799203.7225354,-1.0,1.0,25.0,2.0,-2.0,-2.0,-2.0,-2.0
1701799203.7824373,2.0,-8.0,1.0,7.0,2.0,0.0,-2.0,1.0
1701799203.7824373,-1.0,6.0,6.0,-9.0,-3.0,-2.0,-2.0,0.0
1701799203.7824373,0.0,-3.0,-20.0,-3.0,-5.0,-2.0,-3.0,-3.0
1701799203.7824373,-4.0,-6.0,-9.0,-2.0,-1.0,-1.0,-1.0,0.0
1701799203.7834406,-4.0,3.0,-6.0,0.0,0.0,-2.0,-3.0,-4.0
1701799203.7834406,6.0,3.0,28.0,12.0,1.0,2.0,4.0,0.0
1701799203.7834406,-3.0,-5.0,-38.0,-16.0,-2.0,-1.0,-3.0,-1.0
1701799203.7834406,-1.0,-1.0,-17.0,-15.0,-4.0,-1.0,0.0,-1.0
1701799203.796295,12.0,2.0,61.0,19.0,4.0,1.0,-1.0,0.0
1701799203.7972944,-24.0,-10.0,-41.0,-2.0,-4.0,-5.0,-5.0,-6.0
1701799203.812966,5.0,-1.0,4.0,-13.0,-2.0,-1.0,-1.0,2.0
1701799203.812966,-8.0,8.0,17.0,7.0,-1.0,1.0,-1.0,-6.0
1701799203.816188,-2.0,-17.0,-52.0,-12.0,1.0,-1.0,-2.0,0.0
1701799203.816188,4.0,8.0,57.0,10.0,4.0,0.0,1.0,-2.0
1701799203.816188,-1.0,-11.0,-46.0,-8.0,0.0,-5.0,-1.0,-1.0
1701799203.816188,-2.0,-5.0,-3.0,9.0,3.0,1.0,-2.0,6.0
1701799203.816188,4.0,9.0,-5.0,-6.0,-3.0,1.0,1.0,-2.0
1701799203.816188,-1.0,-6.0,16.0,9.0,1.0,-1.0,-4.0,-1.0
1701799203.837308,-6.0,5.0,5.0,7.0,3.0,-2.0,-2.0,-2.0
1701799203.837308,4.0,-7.0,16.0,-2.0,-3.0,0.0,2.0,-1.0
1701799203.8419502,-4.0,-6.0,-56.0,-9.0,-2.0,1.0,-1.0,1.0
1701799203.8419502,3.0,5.0,13.0,-1.0,0.0,1.0,-6.0,-4.0
1701799203.8519845,1.0,3.0,23.0,-4.0,-3.0,-1.0,4.0,-1.0
1701799203.8519845,0.0,-6.0,-11.0,-2.0,-1.0,-1.0,-1.0,-1.0
1701799203.9009893,-1.0,3.0,8.0,-1.0,-1.0,1.0,0.0,0.0
1701799203.9009893,1.0,-2.0,-13.0,-5.0,-5.0,-5.0,-1.0,-4.0
1701799203.9009893,0.0,1.0,19.0,5.0,-1.0,1.0,-4.0,1.0
1701799203.9009893,-2.0,-3.0,-6.0,-1.0,-2.0,-3.0,0.0,0.0
1701799203.9009893,-1.0,3.0,10.0,3.0,-2.0,-2.0,-2.0,-1.0
1701799203.9009893,1.0,-3.0,-10.0,-7.0,1.0,-1.0,-3.0,-1.0
1701799203.9009893,-2.0,2.0,15.0,4.0,0.0,-1.0,0.0,-1.0
1701799203.9009893,0.0,-5.0,-24.0,-5.0,-4.0,-1.0,1.0,0.0
1701799203.9214451,-2.0,0.0,6.0,-7.0,-5.0,-5.0,-2.0,-2.0
1701799203.9227338,1.0,1.0,-15.0,2.0,-1.0,-3.0,-1.0,3.0
1701799203.9344819,1.0,-2.0,14.0,-1.0,-2.0,2.0,-1.0,-2.0
1701799203.9344819,1.0,2.0,3.0,1.0,0.0,2.0,0.0,-3.0
1701799203.9344819,-3.0,-3.0,3.0,5.0,1.0,-2.0,-4.0,-3.0
1701799203.9344819,-1.0,-4.0,-4.0,-2.0,-1.0,-1.0,1.0,0.0
1701799203.9344819,-1.0,10.0,-2.0,-3.0,-2.0,-2.0,-1.0,1.0
1701799203.9344819,2.0,-4.0,16.0,11.0,7.0,2.0,1.0,0.0
1701799203.9344819,-3.0,-2.0,5.0,-9.0,-5.0,-2.0,-1.0,1.0
1701799203.9354916,2.0,-4.0,-15.0,-5.0,-2.0,-2.0,-1.0,3.0
1701799203.9568994,2.0,-2.0,-7.0,0.0,0.0,-2.0,-2.0,-3.0
1701799203.9568994,-9.0,4.0,15.0,6.0,-3.0,-2.0,-2.0,-6.0
1701799203.995071,-1.0,-4.0,-14.0,-4.0,-1.0,-1.0,0.0,0.0
1701799203.995071,-1.0,-1.0,-7.0,-17.0,-3.0,-2.0,-2.0,-2.0
1701799204.0091057,4.0,2.0,-9.0,8.0,-1.0,1.0,1.0,1.0
1701799204.0091057,2.0,-12.0,5.0,1.0,1.0,0.0,0.0,3.0
1701799204.0091057,3.0,5.0,20.0,-8.0,-3.0,-1.0,1.0,1.0
1701799204.0091057,1.0,9.0,-7.0,-8.0,-2.0,-1.0,1.0,1.0
1701799204.0091057,-12.0,-15.0,-4.0,-2.0,-4.0,-2.0,-6.0,-8.0
1701799204.009602,1.0,6.0,3.0,-3.0,0.0,-1.0,2.0,1.0
1701799204.009602,-2.0,-9.0,-6.0,11.0,4.0,2.0,1.0,-2.0
1701799204.009602,2.0,3.0,6.0,-2.0,-2.0,-1.0,1.0,1.0
1701799204.046601,0.0,-1.0,0.0,-5.0,0.0,-2.0,-2.0,-1.0
1701799204.046601,-1.0,-6.0,-52.0,-2.0,-1.0,-2.0,-2.0,-3.0
1701799204.046601,-1.0,4.0,-1.0,1.0,-2.0,-3.0,-3.0,-1.0
1701799204.046601,-2.0,5.0,19.0,7.0,3.0,0.0,-1.0,-2.0
1701799204.046601,-2.0,-4.0,-11.0,-4.0,-2.0,-1.0,2.0,1.0
1701799204.046601,-1.0,-7.0,-14.0,-11.0,-5.0,-1.0,-3.0,-2.0
1701799204.046601,1.0,-6.0,-3.0,-1.0,3.0,0.0,-4.0,-3.0
1701799204.046601,-3.0,6.0,11.0,9.0,-1.0,0.0,-1.0,-4.0
1701799204.047632,4.0,-4.0,-3.0,-1.0,-6.0,-2.0,1.0,3.0
1701799204.047632,-5.0,-9.0,-2.0,-6.0,-2.0,0.0,0.0,1.0
1701799204.055142,1.0,2.0,-10.0,-3.0,-1.0,-2.0,-1.0,-5.0
1701799204.055142,-13.0,-3.0,-8.0,0.0,-2.0,-1.0,-2.0,-1.0
1701799204.0970566,-1.0,10.0,22.0,6.0,5.0,1.0,-1.0,-1.0
1701799204.0970566,7.0,-7.0,-10.0,-5.0,-1.0,-1.0,0.0,-2.0
1701799204.0970566,-3.0,4.0,1.0,-6.0,-3.0,-1.0,-2.0,-1.0
1701799204.0970566,1.0,-3.0,-4.0,2.0,0.0,-3.0,-4.0,0.0
1701799204.0970566,5.0,-2.0,-7.0,-7.0,-4.0,-2.0,-1.0,-3.0
1701799204.0970566,-2.0,7.0,8.0,7.0,4.0,0.0,2.0,7.0
1701799204.099406,0.0,-1.0,9.0,3.0,-1.0,0.0,0.0,0.0
1701799204.099406,0.0,-5.0,-1.0,-5.0,-4.0,-2.0,-2.0,-4.0
1701799204.1123512,-6.0,2.0,6.0,5.0,4.0,1.0,5.0,-2.0
1701799204.1123512,0.0,1.0,6.0,1.0,-4.0,-2.0,-7.0,-7.0
1701799204.1151736,6.0,1.0,-5.0,2.0,2.0,0.0,8.0,17.0
1701799204.1151736,-15.0,-3.0,-5.0,-4.0,-1.0,-1.0,0.0,-5.0
1701799204.1597586,6.0,-5.0,12.0,-3.0,2.0,-1.0,-2.0,2.0
1701799204.1597586,-3.0,6.0,23.0,11.0,-5.0,-6.0,-14.0,-9.0
1701799204.1597586,1.0,5.0,-16.0,-14.0,-3.0,1.0,7.0,5.0
1701799204.1597586,8.0,-5.0,-16.0,4.0,1.0,-2.0,-8.0,0.0
1701799204.1628447,5.0,9.0,3.0,0.0,4.0,7.0,19.0,7.0
1701799204.1628447,-2.0,0.0,-14.0,-9.0,0.0,-5.0,-19.0,-11.0
1701799204.1628447,-8.0,-6.0,29.0,12.0,-1.0,-4.0,-7.0,-3.0
1701799204.1628447,7.0,8.0,13.0,3.0,2.0,7.0,12.0,7.0
1701799204.164879,-15.0,-6.0,-5.0,-1.0,-5.0,-7.0,-5.0,-10.0
1701799204.164879,1.0,2.0,9.0,-7.0,0.0,2.0,12.0,0.0
1701799204.1751816,-7.0,-3.0,-28.0,-1.0,0.0,-3.0,-9.0,-8.0
1701799204.1751816,-6.0,-7.0,-8.0,-2.0,-1.0,-2.0,-4.0,-4.0
1701799204.2256107,1.0,2.0,6.0,3.0,-2.0,-1.0,-10.0,-2.0
1701799204.2256107,-4.0,1.0,-14.0,-9.0,-2.0,2.0,4.0,2.0
1701799204.2311256,1.0,0.0,-4.0,-4.0,0.0,0.0,-2.0,0.0
1701799204.2311256,6.0,-6.0,-1.0,-3.0,-3.0,-4.0,-1.0,-6.0
1701799204.2311256,-1.0,5.0,-8.0,2.0,-1.0,0.0,-1.0,7.0
1701799204.2311256,-4.0,-2.0,-6.0,-6.0,-4.0,-5.0,-2.0,-1.0
1701799204.2311256,-2.0,4.0,10.0,2.0,3.0,-2.0,-4.0,-4.0
1701799204.2311256,1.0,-4.0,-6.0,-6.0,-1.0,4.0,12.0,4.0
1701799204.2659786,-5.0,0.0,-2.0,-2.0,0.0,-4.0,-11.0,-1.0
1701799204.2659786,-4.0,-1.0,1.0,4.0,0.0,0.0,3.0,1.0
1701799204.2659786,11.0,-3.0,5.0,-4.0,-6.0,-2.0,0.0,0.0
1701799204.2659786,-18.0,2.0,-7.0,1.0,0.0,-3.0,-12.0,-7.0
1701799204.2659786,-4.0,-5.0,-17.0,-11.0,-1.0,-2.0,-19.0,-7.0
1701799204.2659786,-3.0,-1.0,-3.0,-3.0,-2.0,5.0,27.0,14.0
1701799204.2659786,1.0,0.0,8.0,4.0,1.0,-1.0,-7.0,-4.0
1701799204.2659786,-4.0,-3.0,7.0,-5.0,-4.0,-5.0,2.0,-2.0
1701799204.2759202,4.0,-3.0,-25.0,1.0,-2.0,0.0,6.0,-2.0
1701799204.2759202,5.0,2.0,14.0,12.0,2.0,-2.0,-11.0,-3.0
1701799204.2864048,-8.0,-2.0,-6.0,-25.0,-7.0,1.0,1.0,-4.0
1701799204.287406,15.0,2.0,-5.0,3.0,2.0,-2.0,-7.0,1.0
1701799204.3010805,-11.0,-3.0,-6.0,-6.0,0.0,-1.0,0.0,-5.0
1701799204.3023841,1.0,-6.0,-11.0,-3.0,-5.0,0.0,-3.0,0.0
1701799204.330678,-7.0,-3.0,0.0,0.0,0.0,-1.0,5.0,-5.0
1701799204.330678,2.0,2.0,6.0,-3.0,-1.0,2.0,-4.0,7.0
1701799204.330678,9.0,-1.0,16.0,7.0,-2.0,-5.0,-1.0,-4.0
1701799204.330678,-5.0,-3.0,-1.0,6.0,3.0,-1.0,-1.0,-5.0
1701799204.3341854,-3.0,4.0,4.0,2.0,-1.0,5.0,-1.0,-4.0
1701799204.3341854,3.0,-1.0,-10.0,-7.0,-2.0,0.0,9.0,7.0
1701799204.3351886,-1.0,-4.0,14.0,9.0,-2.0,-1.0,3.0,2.0
1701799204.3351886,-9.0,-4.0,-25.0,-23.0,-1.0,-2.0,-1.0,-7.0
1701799204.3402076,1.0,1.0,9.0,9.0,-1.0,-3.0,-7.0,-6.0
1701799204.3402076,-2.0,-4.0,-7.0,-2.0,-2.0,-2.0,1.0,-3.0
1701799204.383812,-5.0,0.0,14.0,3.0,-1.0,4.0,4.0,4.0
1701799204.383812,8.0,-4.0,-11.0,-11.0,-4.0,-3.0,-6.0,-2.0
1701799204.383812,-3.0,-2.0,-5.0,0.0,0.0,-1.0,3.0,1.0
1701799204.383812,-3.0,-3.0,-6.0,2.0,1.0,1.0,-3.0,-3.0
1701799204.383812,5.0,4.0,13.0,3.0,-1.0,-1.0,-1.0,-3.0
1701799204.383812,-2.0,0.0,8.0,4.0,-1.0,0.0,2.0,7.0
1701799204.383812,-3.0,6.0,9.0,-1.0,-1.0,-2.0,-2.0,-2.0
1701799204.383812,-1.0,-2.0,9.0,-5.0,-3.0,-1.0,-2.0,2.0
1701799204.4299746,5.0,0.0,16.0,-5.0,1.0,-3.0,-8.0,-18.0
1701799204.4299746,-3.0,-1.0,8.0,2.0,-1.0,-1.0,-1.0,21.0
1701799204.4309754,-5.0,5.0,-4.0,13.0,8.0,3.0,5.0,-1.0
1701799204.4309754,2.0,-6.0,-15.0,-6.0,-7.0,-4.0,-12.0,-36.0
1701799204.4309754,-13.0,-7.0,-17.0,-15.0,-8.0,-4.0,13.0,36.0
1701799204.4309754,-8.0,0.0,-12.0,4.0,1.0,-4.0,-14.0,-38.0
1701799204.4309754,4.0,2.0,5.0,1.0,-1.0,0.0,1.0,20.0
1701799204.4309754,13.0,1.0,31.0,12.0,4.0,2.0,9.0,18.0
1701799204.4309754,-13.0,-6.0,-44.0,-13.0,-1.0,-1.0,-6.0,-14.0
1701799204.4309754,5.0,12.0,25.0,-10.0,-5.0,-1.0,-3.0,-6.0
1701799204.4377632,5.0,-18.0,-31.0,4.0,-1.0,-2.0,-3.0,-10.0
1701799204.4377632,2.0,14.0,4.0,-4.0,-4.0,-4.0,3.0,12.0
1701799204.4897103,4.0,-3.0,-3.0,-6.0,2.0,0.0,0.0,4.0
1701799204.4897103,0.0,-2.0,8.0,9.0,4.0,0.0,5.0,5.0
1701799204.490708,-6.0,-5.0,-16.0,0.0,-3.0,-2.0,-6.0,-17.0
1701799204.490708,-4.0,0.0,-5.0,-9.0,-1.0,0.0,-1.0,4.0
1701799204.490708,0.0,-5.0,-23.0,-1.0,-1.0,-2.0,-5.0,-5.0
1701799204.490708,6.0,5.0,11.0,6.0,1.0,1.0,1.0,-5.0
1701799204.490708,1.0,-1.0,12.0,-11.0,-2.0,-2.0,-2.0,3.0
1701799204.490708,9.0,1.0,-18.0,-4.0,0.0,-2.0,-2.0,2.0
1701799204.4950967,-14.0,-3.0,1.0,1.0,-2.0,0.0,-4.0,-8.0
1701799204.4950967,-7.0,-10.0,-17.0,-3.0,-4.0,-4.0,0.0,-5.0
1701799204.5037653,0.0,1.0,-31.0,-5.0,-2.0,0.0,2.0,5.0
1701799204.5037653,-7.0,-3.0,2.0,2.0,-1.0,-2.0,0.0,-2.0
1701799204.548683,11.0,11.0,20.0,2.0,1.0,1.0,-1.0,-6.0
1701799204.548683,2.0,-7.0,13.0,3.0,-2.0,-4.0,-4.0,5.0
1701799204.548683,3.0,-2.0,8.0,4.0,0.0,-1.0,10.0,1.0
1701799204.548683,-7.0,6.0,11.0,-14.0,-2.0,0.0,-4.0,-8.0
1701799204.548683,-2.0,-6.0,-13.0,-9.0,-7.0,-2.0,-7.0,-7.0
1701799204.548683,-3.0,-6.0,-6.0,-1.0,2.0,-1.0,12.0,10.0
1701799204.548683,-2.0,11.0,-6.0,-8.0,-1.0,-2.0,-5.0,-2.0
1701799204.548683,7.0,-10.0,0.0,8.0,2.0,-1.0,-5.0,-5.0
1701799204.5546744,1.0,0.0,6.0,10.0,1.0,0.0,5.0,-1.0
1701799204.5546744,-4.0,-1.0,1.0,-3.0,-3.0,-5.0,-11.0,0.0
1701799204.5649745,0.0,3.0,18.0,1.0,-1.0,0.0,-4.0,-3.0
1701799204.565973,-6.0,0.0,19.0,17.0,2.0,0.0,4.0,-15.0
1701799204.6173627,0.0,-9.0,-65.0,-28.0,-5.0,1.0,1.0,17.0
1701799204.6173627,4.0,3.0,12.0,6.0,-1.0,-2.0,-4.0,-4.0
1701799204.6173627,-2.0,-3.0,4.0,-6.0,-1.0,-2.0,-3.0,0.0
1701799204.6173627,-8.0,-6.0,-16.0,2.0,-3.0,-2.0,-2.0,-2.0
1701799204.6183622,5.0,2.0,26.0,10.0,2.0,0.0,-2.0,-4.0
1701799204.6183622,-1.0,4.0,-3.0,0.0,2.0,1.0,-1.0,0.0
1701799204.6183622,-1.0,-4.0,4.0,-4.0,-3.0,-2.0,4.0,1.0
1701799204.6183622,-3.0,3.0,-7.0,3.0,0.0,0.0,-1.0,-6.0
1701799204.6183622,-2.0,-1.0,5.0,3.0,1.0,1.0,4.0,8.0
1701799204.6190934,1.0,-2.0,-26.0,-14.0,-3.0,-4.0,-2.0,-4.0
1701799204.6412284,-2.0,-6.0,6.0,3.0,-1.0,-3.0,-9.0,-3.0
1701799204.6412284,-2.0,-2.0,-11.0,-11.0,-4.0,-1.0,1.0,1.0
1701799204.6567202,-3.0,1.0,24.0,11.0,-5.0,-5.0,-10.0,-8.0
1701799204.6567202,0.0,-2.0,-10.0,-2.0,-2.0,1.0,2.0,-2.0
1701799204.6567202,-2.0,-3.0,-3.0,-9.0,-1.0,0.0,5.0,2.0
1701799204.6567202,1.0,-1.0,-3.0,-4.0,0.0,-3.0,-2.0,1.0
1701799204.6567202,-6.0,1.0,-2.0,-3.0,2.0,-1.0,1.0,-3.0
1701799204.6567202,-4.0,0.0,17.0,-2.0,0.0,1.0,-4.0,0.0
1701799204.6578286,11.0,-1.0,-4.0,3.0,-2.0,-2.0,-6.0,-10.0
1701799204.6578286,-14.0,-6.0,-10.0,1.0,0.0,1.0,-3.0,11.0
1701799204.674874,1.0,-2.0,16.0,6.0,0.0,-2.0,-1.0,-6.0
1701799204.674874,1.0,-2.0,-35.0,-16.0,-3.0,-2.0,-2.0,-4.0
1701799204.677629,-3.0,3.0,13.0,3.0,-2.0,0.0,1.0,0.0
1701799204.677629,1.0,-1.0,-9.0,3.0,1.0,-1.0,-2.0,0.0
1701799204.739265,0.0,-5.0,-19.0,-6.0,0.0,-5.0,-4.0,-2.0
1701799204.739265,-3.0,2.0,14.0,3.0,-1.0,2.0,4.0,4.0
1701799204.739265,-1.0,0.0,0.0,2.0,-1.0,-1.0,-1.0,-1.0
1701799204.739265,6.0,1.0,11.0,-2.0,0.0,-1.0,-13.0,-13.0
1701799204.739265,-6.0,1.0,9.0,1.0,-1.0,2.0,13.0,12.0
1701799204.739265,4.0,-8.0,-12.0,-1.0,-1.0,0.0,-5.0,-3.0
1701799204.739265,-6.0,-2.0,-1.0,-3.0,0.0,-3.0,-3.0,4.0
1701799204.739265,0.0,-5.0,-9.0,-4.0,-3.0,-3.0,-3.0,-5.0
1701799204.739265,2.0,2.0,-4.0,-4.0,0.0,1.0,1.0,-9.0
1701799204.7403135,10.0,12.0,29.0,9.0,1.0,1.0,5.0,5.0
1701799204.7467835,-4.0,-14.0,-5.0,3.0,0.0,-3.0,-6.0,-16.0
1701799204.74805,0.0,4.0,30.0,2.0,-4.0,-2.0,3.0,15.0
1701799204.7747986,3.0,-6.0,-38.0,-12.0,-3.0,-2.0,-6.0,-14.0
1701799204.7747986,-2.0,1.0,10.0,5.0,0.0,0.0,5.0,15.0
1701799204.7747986,-1.0,1.0,10.0,1.0,1.0,0.0,-2.0,-5.0
1701799204.7747986,2.0,-2.0,-5.0,0.0,1.0,0.0,0.0,-1.0
1701799204.7747986,-8.0,-3.0,22.0,5.0,1.0,-1.0,1.0,4.0
1701799204.7747986,-1.0,3.0,3.0,2.0,-2.0,2.0,0.0,0.0
1701799204.775904,-7.0,-6.0,2.0,-8.0,-3.0,-2.0,0.0,2.0
1701799204.775904,-2.0,-12.0,-28.0,-7.0,-1.0,-3.0,-7.0,-8.0
1701799204.7965286,3.0,5.0,24.0,7.0,0.0,-2.0,-13.0,-18.0
1701799204.7965286,-2.0,-3.0,-6.0,-4.0,0.0,2.0,10.0,16.0
1701799204.8156617,-2.0,11.0,9.0,-2.0,-1.0,-2.0,0.0,4.0
1701799204.8156617,-2.0,-8.0,-9.0,-4.0,0.0,1.0,3.0,2.0
1701799204.8363996,2.0,0.0,0.0,-2.0,-2.0,0.0,-2.0,-4.0
1701799204.8363996,1.0,-4.0,1.0,2.0,0.0,-2.0,-6.0,-18.0
1701799204.8363996,3.0,1.0,-7.0,-6.0,-4.0,-1.0,3.0,13.0
1701799204.8363996,-7.0,0.0,3.0,-1.0,-2.0,-3.0,0.0,-5.0
1701799204.8363996,3.0,2.0,-3.0,0.0,2.0,-2.0,-1.0,10.0
1701799204.8363996,-3.0,-1.0,-12.0,-5.0,-1.0,0.0,-5.0,-10.0
1701799204.841247,4.0,1.0,1.0,1.0,0.0,0.0,0.0,5.0
1701799204.8422453,-9.0,3.0,-14.0,-5.0,-3.0,1.0,4.0,6.0
1701799204.8747427,-3.0,-7.0,-8.0,-2.0,-5.0,-2.0,1.0,2.0
1701799204.8747427,0.0,1.0,6.0,0.0,0.0,-2.0,-3.0,-6.0
1701799204.8747427,2.0,3.0,4.0,4.0,2.0,1.0,1.0,-3.0
1701799204.8747427,3.0,1.0,-1.0,3.0,0.0,-1.0,-3.0,-2.0
1701799204.8757434,-4.0,-6.0,4.0,-2.0,0.0,-4.0,-5.0,-1.0
1701799204.8757434,-1.0,3.0,-1.0,-2.0,0.0,-1.0,3.0,-1.0
1701799204.8801455,-1.0,-6.0,-2.0,-3.0,-2.0,-4.0,-4.0,-6.0
1701799204.8801455,2.0,2.0,0.0,-1.0,-3.0,0.0,-1.0,-8.0
1701799204.89191,-6.0,2.0,-1.0,-6.0,-3.0,-1.0,5.0,11.0
1701799204.89191,0.0,-4.0,22.0,6.0,0.0,-1.0,0.0,-7.0
1701799204.8929126,-4.0,-5.0,-51.0,-13.0,-1.0,-4.0,-1.0,-3.0
1701799204.8929126,-1.0,2.0,10.0,6.0,0.0,-1.0,1.0,0.0
1701799204.9342623,0.0,-2.0,-14.0,0.0,0.0,-1.0,-1.0,-4.0
1701799204.935527,2.0,2.0,-13.0,-11.0,-3.0,0.0,-5.0,-6.0
1701799204.9605303,0.0,-10.0,1.0,1.0,1.0,2.0,4.0,10.0
1701799204.9605303,3.0,2.0,14.0,8.0,-1.0,1.0,-2.0,5.0
1701799204.97541,-1.0,5.0,22.0,0.0,1.0,-2.0,-4.0,-9.0
1701799204.97541,-6.0,-10.0,-55.0,-2.0,-2.0,-5.0,-5.0,8.0
1701799204.97541,5.0,1.0,7.0,7.0,-1.0,1.0,2.0,-1.0
1701799204.97541,1.0,4.0,17.0,-7.0,-3.0,1.0,4.0,-10.0
1701799204.97541,1.0,2.0,0.0,-2.0,0.0,-1.0,1.0,10.0
1701799204.97541,-4.0,-3.0,2.0,3.0,0.0,-7.0,-11.0,-6.0
1701799204.97541,1.0,9.0,26.0,7.0,-2.0,2.0,1.0,-10.0
1701799204.97541,-9.0,-16.0,-25.0,-9.0,-3.0,-6.0,-6.0,10.0
1701799205.0257308,1.0,6.0,7.0,-7.0,-2.0,-1.0,-2.0,-11.0
1701799205.0257308,2.0,5.0,24.0,9.0,3.0,2.0,4.0,-4.0
1701799205.0257308,-5.0,-2.0,-11.0,-2.0,1.0,-2.0,-3.0,11.0
1701799205.0257308,0.0,-4.0,6.0,0.0,-3.0,-1.0,-2.0,-7.0
1701799205.0257308,0.0,-6.0,-1.0,1.0,-2.0,0.0,-4.0,2.0
1701799205.0257308,0.0,-5.0,-1.0,-5.0,-3.0,-1.0,-2.0,0.0
1701799205.0257308,-3.0,5.0,26.0,11.0,1.0,0.0,2.0,-1.0
1701799205.0257308,2.0,7.0,-19.0,-10.0,0.0,2.0,4.0,1.0
1701799205.0257308,0.0,-5.0,-7.0,5.0,-2.0,-1.0,-3.0,-5.0
1701799205.0257308,-1.0,-5.0,-1.0,6.0,-1.0,2.0,0.0,-3.0
1701799205.0479698,1.0,-1.0,1.0,-19.0,-3.0,-1.0,-2.0,-1.0
1701799205.0493808,3.0,-6.0,-9.0,-9.0,-4.0,-6.0,-5.0,-2.0
1701799205.0682635,-9.0,-4.0,-12.0,19.0,2.0,-1.0,0.0,-10.0
1701799205.0682635,-2.0,9.0,21.0,-7.0,1.0,4.0,2.0,12.0
1701799205.0682635,-1.0,1.0,-8.0,-18.0,-10.0,-5.0,-6.0,-9.0
1701799205.0682635,2.0,-10.0,3.0,1.0,0.0,-1.0,-5.0,-1.0
1701799205.0682635,4.0,0.0,9.0,-4.0,-1.0,1.0,6.0,2.0
1701799205.0682635,0.0,-10.0,-31.0,9.0,1.0,1.0,4.0,3.0
1701799205.0682635,-4.0,4.0,-6.0,10.0,3.0,-1.0,-7.0,-17.0
1701799205.0682635,1.0,9.0,26.0,8.0,1.0,5.0,12.0,13.0
1701799205.1120608,5.0,2.0,-1.0,0.0,-2.0,-1.0,-1.0,3.0
1701799205.1120608,-2.0,-8.0,-16.0,-31.0,-6.0,-4.0,-5.0,-11.0
1701799205.1120608,8.0,8.0,-5.0,11.0,0.0,-1.0,4.0,12.0
1701799205.1120608,-4.0,-12.0,-14.0,-4.0,2.0,-2.0,-7.0,-11.0
1701799205.1120608,0.0,-5.0,4.0,12.0,2.0,0.0,-2.0,-4.0
1701799205.1120608,-7.0,7.0,32.0,-5.0,-6.0,-2.0,3.0,-3.0
1701799205.1120608,7.0,2.0,-5.0,-11.0,-2.0,-3.0,-5.0,-5.0
1701799205.1120608,-5.0,-8.0,-36.0,11.0,0.0,-1.0,1.0,1.0
1701799205.115982,4.0,0.0,-5.0,-15.0,-1.0,0.0,-1.0,-2.0
1701799205.115982,2.0,11.0,5.0,-4.0,-4.0,-5.0,-6.0,0.0
1701799205.1205492,-6.0,-14.0,28.0,33.0,3.0,2.0,3.0,0.0
1701799205.1205492,-2.0,8.0,-52.0,-41.0,-8.0,-4.0,-2.0,2.0
1701799205.1786165,1.0,-9.0,31.0,7.0,1.0,0.0,0.0,2.0
1701799205.1786165,-2.0,-1.0,-20.0,18.0,-1.0,0.0,-9.0,-20.0
1701799205.1786165,-12.0,-7.0,-19.0,-7.0,2.0,2.0,6.0,20.0
1701799205.1786165,-1.0,13.0,10.0,-11.0,-4.0,-2.0,-3.0,-3.0
1701799205.179658,-3.0,-3.0,-6.0,-18.0,-4.0,0.0,-3.0,-5.0
1701799205.179658,5.0,-6.0,15.0,4.0,2.0,-2.0,1.0,-5.0
1701799205.179658,-3.0,-3.0,-13.0,26.0,1.0,-2.0,4.0,2.0
1701799205.179658,2.0,5.0,28.0,0.0,4.0,0.0,-7.0,-5.0
1701799205.179658,-2.0,9.0,-18.0,-30.0,-11.0,-4.0,3.0,7.0
1701799205.179658,0.0,-4.0,0.0,10.0,1.0,-1.0,0.0,10.0
1701799205.179658,3.0,-4.0,7.0,-20.0,-2.0,-1.0,-3.0,-7.0
1701799205.179658,-3.0,-2.0,-44.0,11.0,2.0,-1.0,-1.0,1.0
1701799205.2374046,-2.0,3.0,3.0,11.0,1.0,1.0,-2.0,-2.0
1701799205.2374046,-3.0,-4.0,0.0,5.0,3.0,1.0,2.0,-10.0
1701799205.2374046,2.0,0.0,2.0,-10.0,-3.0,-3.0,0.0,-4.0
1701799205.2374046,-1.0,7.0,33.0,8.0,0.0,0.0,2.0,0.0
1701799205.2374046,1.0,-8.0,-13.0,5.0,1.0,1.0,-2.0,3.0
1701799205.2374046,0.0,-2.0,-4.0,-6.0,-4.0,-1.0,0.0,1.0
1701799205.2374046,-6.0,-1.0,-3.0,-10.0,0.0,-1.0,-7.0,-1.0
1701799205.2374046,0.0,-1.0,19.0,-1.0,1.0,3.0,6.0,-4.0
1701799205.2374046,0.0,-1.0,-14.0,3.0,1.0,-1.0,-1.0,1.0
1701799205.2374046,-1.0,2.0,8.0,-20.0,-5.0,3.0,5.0,6.0
1701799205.2402802,-1.0,0.0,10.0,8.0,-1.0,-4.0,-8.0,-7.0
1701799205.2402802,10.0,-8.0,-17.0,16.0,1.0,-1.0,-4.0,-21.0
1701799205.3080556,-19.0,4.0,12.0,-27.0,-5.0,-1.0,1.0,30.0
1701799205.3080556,18.0,-6.0,-26.0,-9.0,-5.0,-5.0,-4.0,1.0
1701799205.3080556,6.0,-1.0,5.0,7.0,1.0,3.0,7.0,0.0
1701799205.3080556,-15.0,-5.0,11.0,5.0,4.0,2.0,3.0,-3.0
1701799205.3080556,6.0,2.0,-8.0,11.0,-2.0,-3.0,-6.0,-7.0
1701799205.3080556,-13.0,3.0,27.0,-4.0,-2.0,-5.0,-2.0,-2.0
1701799205.312568,0.0,3.0,-17.0,-12.0,-3.0,-2.0,-4.0,-6.0
1701799205.312568,-6.0,-8.0,13.0,16.0,0.0,-4.0,-11.0,-9.0
1701799205.352145,5.0,1.0,-15.0,-4.0,5.0,2.0,8.0,4.0
1701799205.352145,-17.0,-7.0,-5.0,-34.0,-8.0,0.0,2.0,7.0
1701799205.352145,13.0,4.0,-2.0,3.0,0.0,1.0,-6.0,-5.0
1701799205.352145,-13.0,-10.0,-13.0,4.0,-1.0,-3.0,-2.0,-1.0
1701799205.352145,6.0,0.0,-7.0,4.0,0.0,-1.0,-5.0,-16.0
1701799205.352145,0.0,-1.0,15.0,15.0,4.0,-1.0,0.0,12.0
1701799205.358553,-5.0,2.0,-6.0,-17.0,-5.0,-1.0,4.0,3.0
1701799205.358553,1.0,5.0,25.0,10.0,0.0,0.0,1.0,2.0
1701799205.358553,-9.0,1.0,-8.0,-4.0,-2.0,-4.0,-5.0,-20.0
1701799205.358553,10.0,2.0,-7.0,-7.0,5.0,2.0,0.0,-6.0
1701799205.358553,-10.0,-7.0,6.0,6.0,-3.0,-2.0,-3.0,4.0
1701799205.3595583,0.0,-2.0,-47.0,-24.0,-7.0,-4.0,2.0,12.0
1701799205.366899,1.0,-16.0,-11.0,11.0,-1.0,-1.0,-3.0,-14.0
1701799205.366899,-3.0,9.0,11.0,7.0,3.0,0.0,-1.0,-4.0
1701799205.398114,5.0,4.0,42.0,16.0,4.0,0.0,-3.0,1.0
1701799205.399117,-4.0,-4.0,-42.0,-26.0,-6.0,-3.0,1.0,-3.0
1701799205.417962,1.0,10.0,-6.0,-8.0,-3.0,2.0,1.0,4.0
1701799205.418963,0.0,-9.0,-13.0,-2.0,-3.0,-1.0,-1.0,-2.0
1701799205.418963,-9.0,-12.0,-9.0,4.0,-2.0,-1.0,1.0,-4.0
1701799205.418963,13.0,9.0,28.0,3.0,-3.0,1.0,-4.0,8.0
1701799205.418963,-4.0,0.0,10.0,0.0,-1.0,-2.0,1.0,-1.0
1701799205.418963,3.0,4.0,10.0,8.0,1.0,1.0,0.0,3.0
1701799205.418963,-3.0,-4.0,-22.0,-12.0,-4.0,-4.0,-4.0,-9.0
1701799205.418963,3.0,5.0,19.0,5.0,2.0,0.0,2.0,-1.0
1701799205.456099,-1.0,-2.0,29.0,12.0,1.0,-3.0,1.0,5.0
1701799205.456099,-4.0,-2.0,-30.0,-3.0,-1.0,-1.0,-2.0,-7.0
1701799205.456099,-3.0,-3.0,-4.0,-14.0,-5.0,-4.0,-8.0,-5.0
1701799205.456099,1.0,9.0,28.0,9.0,1.0,3.0,3.0,1.0
1701799205.456099,-2.0,-3.0,-18.0,0.0,-1.0,-2.0,-4.0,4.0
1701799205.456099,-3.0,-8.0,-44.0,-10.0,-5.0,-1.0,1.0,-5.0
1701799205.4581487,2.0,2.0,7.0,2.0,2.0,2.0,0.0,-3.0
1701799205.4581487,-9.0,2.0,4.0,2.0,-1.0,-2.0,-7.0,-10.0
1701799205.4581487,0.0,-6.0,13.0,5.0,2.0,-1.0,-2.0,4.0
1701799205.4581487,6.0,1.0,14.0,10.0,0.0,-2.0,1.0,14.0
1701799205.4737265,-10.0,-3.0,-6.0,-9.0,-1.0,1.0,6.0,-5.0
1701799205.4737265,2.0,-1.0,24.0,5.0,-1.0,0.0,2.0,4.0
1701799205.4747274,1.0,6.0,-4.0,-3.0,0.0,-3.0,-5.0,-11.0
1701799205.4747274,-5.0,4.0,-12.0,1.0,-1.0,-2.0,-10.0,-13.0
1701799205.4803758,-2.0,-8.0,-15.0,-9.0,-7.0,-3.0,5.0,8.0
1701799205.4803758,1.0,0.0,18.0,-7.0,-1.0,-5.0,-9.0,-3.0
1701799205.5014837,-2.0,-2.0,-13.0,6.0,0.0,-1.0,7.0,1.0
1701799205.5014837,2.0,-1.0,-6.0,-3.0,-4.0,-3.0,-3.0,-7.0
1701799205.5023167,-7.0,0.0,8.0,4.0,1.0,0.0,-1.0,1.0
1701799205.5023167,0.0,-5.0,-13.0,0.0,-1.0,0.0,-3.0,-7.0
1701799205.5155754,5.0,-4.0,-19.0,-18.0,-5.0,-1.0,-2.0,7.0
1701799205.5155754,-8.0,1.0,22.0,6.0,1.0,-1.0,4.0,-2.0
1701799205.5689642,-1.0,0.0,1.0,3.0,1.0,0.0,-2.0,-7.0
1701799205.5689642,1.0,-6.0,-12.0,3.0,1.0,-1.0,-6.0,3.0
1701799205.5689642,4.0,4.0,18.0,-2.0,-4.0,2.0,7.0,-2.0
1701799205.5689642,0.0,0.0,1.0,-4.0,-3.0,-3.0,-1.0,4.0
1701799205.5689642,-3.0,-8.0,-75.0,-16.0,-3.0,-3.0,-3.0,-1.0
1701799205.5689642,-2.0,1.0,29.0,3.0,-1.0,-2.0,2.0,0.0
1701799205.5689642,-4.0,-4.0,-4.0,-3.0,-4.0,-5.0,-4.0,-4.0
1701799205.5689642,-3.0,-9.0,-5.0,6.0,1.0,-1.0,-2.0,2.0
1701799205.5689642,3.0,5.0,17.0,-1.0,-1.0,-2.0,-4.0,-6.0
1701799205.5689642,1.0,3.0,-1.0,4.0,1.0,-2.0,4.0,9.0
1701799205.5689642,-2.0,-8.0,8.0,3.0,-2.0,0.0,-2.0,2.0
1701799205.5689642,-1.0,2.0,4.0,2.0,0.0,-2.0,-6.0,-5.0
1701799205.6203625,-3.0,-2.0,-10.0,-6.0,0.0,-1.0,-2.0,-2.0
1701799205.6203625,6.0,3.0,12.0,-2.0,-1.0,-1.0,2.0,5.0
1701799205.622962,-9.0,-2.0,-18.0,-8.0,-2.0,0.0,-1.0,-6.0
1701799205.622962,2.0,0.0,9.0,5.0,-1.0,1.0,4.0,-5.0
1701799205.622962,2.0,1.0,12.0,3.0,1.0,1.0,-1.0,-1.0
1701799205.622962,-1.0,0.0,12.0,7.0,0.0,-2.0,-2.0,2.0
1701799205.622962,10.0,2.0,-14.0,-12.0,0.0,2.0,1.0,2.0
1701799205.622962,-12.0,-9.0,-22.0,-13.0,-3.0,-1.0,-6.0,6.0
1701799205.622962,1.0,-2.0,16.0,3.0,0.0,1.0,-2.0,-3.0
1701799205.622962,-5.0,-1.0,-41.0,-5.0,-2.0,-2.0,-1.0,-5.0
1701799205.6425838,1.0,1.0,25.0,6.0,-2.0,-5.0,-6.0,-10.0
1701799205.6425838,0.0,-1.0,11.0,0.0,0.0,1.0,3.0,8.0
1701799205.6454828,-4.0,-2.0,-20.0,-2.0,-2.0,-2.0,-6.0,-7.0
1701799205.6454828,0.0,1.0,4.0,-6.0,-1.0,1.0,5.0,11.0
1701799205.6880383,1.0,3.0,5.0,9.0,5.0,1.0,0.0,-3.0
1701799205.6880383,1.0,-5.0,3.0,0.0,-2.0,-1.0,-3.0,-4.0
1701799205.6880383,0.0,-1.0,3.0,-2.0,-2.0,-2.0,3.0,3.0
1701799205.6880383,0.0,-2.0,-8.0,-4.0,0.0,3.0,3.0,-3.0
1701799205.6880383,-3.0,5.0,13.0,1.0,1.0,-3.0,-2.0,-1.0
1701799205.6880383,-1.0,-8.0,-27.0,-1.0,-2.0,-1.0,-2.0,-3.0
1701799205.694078,-3.0,3.0,14.0,3.0,0.0,0.0,9.0,5.0
1701799205.694078,-4.0,-9.0,-21.0,-10.0,-6.0,-1.0,0.0,-3.0
1701799205.7017598,1.0,4.0,-11.0,-6.0,-2.0,0.0,-2.0,3.0
1701799205.7017598,-2.0,5.0,19.0,6.0,0.0,-2.0,-4.0,-1.0
1701799205.7374415,0.0,-6.0,7.0,5.0,-2.0,-1.0,-3.0,-4.0
1701799205.7374415,-4.0,-4.0,7.0,-4.0,-1.0,0.0,-1.0,0.0
1701799205.7374415,1.0,2.0,-13.0,4.0,-1.0,1.0,1.0,4.0
1701799205.7374415,-3.0,-1.0,-14.0,-1.0,-1.0,-2.0,-4.0,-2.0
1701799205.7384417,-2.0,-4.0,-2.0,-3.0,-6.0,-3.0,-4.0,0.0
1701799205.7384417,-2.0,-3.0,-3.0,-3.0,-1.0,-2.0,-2.0,-14.0
1701799205.74149,2.0,8.0,26.0,-1.0,-2.0,-3.0,3.0,14.0
1701799205.74149,0.0,-6.0,-9.0,-1.0,1.0,1.0,-1.0,-4.0
1701799205.7633014,5.0,3.0,5.0,5.0,3.0,2.0,4.0,0.0
1701799205.7633014,-4.0,1.0,16.0,1.0,1.0,-1.0,-3.0,-1.0
1701799205.7781904,0.0,-4.0,-26.0,-5.0,-2.0,1.0,2.0,-4.0
1701799205.7781904,2.0,-3.0,16.0,4.0,-1.0,-5.0,0.0,-1.0
1701799205.781191,-13.0,1.0,-10.0,-9.0,2.0,0.0,-2.0,0.0
1701799205.781191,3.0,-1.0,-15.0,-1.0,-1.0,-2.0,-6.0,-5.0
1701799205.781191,-2.0,4.0,9.0,-1.0,-1.0,0.0,3.0,-2.0
1701799205.781191,-1.0,0.0,18.0,1.0,-3.0,-2.0,-2.0,-2.0
1701799205.781191,3.0,-4.0,-13.0,-11.0,-2.0,-5.0,-9.0,-3.0
1701799205.781191,-9.0,-3.0,-14.0,-6.0,-4.0,-2.0,0.0,-2.0
1701799205.8015802,-1.0,-2.0,10.0,6.0,-2.0,-1.0,-3.0,-6.0
1701799205.8015802,-1.0,6.0,11.0,3.0,1.0,1.0,5.0,8.0
1701799205.8219619,11.0,1.0,10.0,0.0,-1.0,-2.0,-4.0,2.0
1701799205.8229022,-8.0,2.0,2.0,4.0,0.0,0.0,-3.0,-4.0
1701799205.8385851,-4.0,-5.0,2.0,0.0,-3.0,-2.0,-2.0,0.0
1701799205.8385851,-1.0,-8.0,-18.0,-6.0,-4.0,-2.0,-10.0,-14.0
1701799205.8385851,3.0,2.0,-38.0,-13.0,0.0,1.0,12.0,15.0
1701799205.8385851,-6.0,1.0,32.0,3.0,0.0,-1.0,-1.0,1.0
1701799205.839586,3.0,-8.0,-25.0,-12.0,-4.0,-4.0,-6.0,-16.0
1701799205.839586,3.0,6.0,23.0,-1.0,1.0,-1.0,6.0,19.0
1701799205.8406506,-5.0,3.0,2.0,-4.0,-2.0,-2.0,-3.0,1.0
1701799205.8406506,14.0,-3.0,-28.0,3.0,-1.0,0.0,-1.0,6.0
1701799205.8614044,-3.0,-3.0,3.0,7.0,4.0,0.0,1.0,-8.0
1701799205.8614044,0.0,8.0,21.0,-2.0,0.0,2.0,2.0,1.0
1701799205.8819978,-7.0,3.0,-11.0,-3.0,-1.0,0.0,-2.0,-5.0
1701799205.8833113,9.0,-6.0,-6.0,0.0,0.0,1.0,5.0,6.0
1701799205.9007342,0.0,0.0,5.0,12.0,2.0,-6.0,-8.0,-2.0
1701799205.9007342,1.0,1.0,-6.0,1.0,2.0,-1.0,0.0,-4.0
1701799205.9007342,1.0,-5.0,5.0,-9.0,-7.0,-2.0,-2.0,5.0
1701799205.9007342,-15.0,2.0,-7.0,-6.0,-2.0,-6.0,-6.0,-19.0
1701799205.9007342,-1.0,-9.0,-4.0,4.0,-1.0,0.0,-6.0,6.0
1701799205.9007342,-4.0,3.0,-1.0,-7.0,1.0,2.0,6.0,-2.0
1701799205.9017866,-1.0,-5.0,5.0,5.0,-1.0,-5.0,-4.0,-7.0
1701799205.9017866,1.0,3.0,10.0,2.0,2.0,1.0,0.0,3.0
1701799205.9473238,-2.0,-5.0,-3.0,-6.0,-3.0,4.0,5.0,4.0
1701799205.9473238,-3.0,1.0,7.0,6.0,0.0,-4.0,-9.0,-10.0
1701799205.9473238,1.0,-2.0,-22.0,-9.0,-3.0,1.0,3.0,4.0
1701799205.9473238,-2.0,0.0,6.0,-6.0,-1.0,-1.0,-3.0,1.0
1701799205.9473238,-6.0,-1.0,-2.0,1.0,0.0,-1.0,3.0,6.0
1701799205.9473238,2.0,-2.0,-5.0,3.0,-3.0,2.0,-1.0,-3.0
1701799205.9473238,-1.0,-2.0,16.0,9.0,5.0,-3.0,-7.0,-11.0
1701799205.9473238,-1.0,0.0,12.0,1.0,0.0,-2.0,-3.0,0.0
1701799205.9586434,-1.0,-1.0,-15.0,-4.0,3.0,-2.0,-1.0,1.0
1701799205.9586434,1.0,6.0,5.0,-8.0,-9.0,-2.0,4.0,3.0
1701799205.959224,-4.0,-9.0,-6.0,-2.0,-1.0,-1.0,-2.0,-4.0
1701799205.959224,-2.0,-6.0,-6.0,-7.0,-3.0,2.0,3.0,1.0
1701799206.004373,-1.0,6.0,3.0,-8.0,-6.0,-4.0,-4.0,-5.0
1701799206.004373,0.0,-8.0,-6.0,2.0,4.0,1.0,-2.0,-4.0
1701799206.004373,-5.0,0.0,-17.0,3.0,0.0,1.0,0.0,1.0
1701799206.005373,12.0,-3.0,-4.0,3.0,2.0,2.0,1.0,-2.0
1701799206.005373,-5.0,3.0,25.0,0.0,-1.0,1.0,-2.0,2.0
1701799206.005373,-5.0,7.0,-27.0,3.0,-5.0,-3.0,-2.0,0.0
1701799206.005656,-5.0,-7.0,-9.0,-13.0,-7.0,-4.0,-4.0,-4.0
1701799206.005656,-1.0,-9.0,-29.0,-8.0,-1.0,-3.0,-8.0,3.0
1701799206.0161874,1.0,1.0,26.0,6.0,-1.0,-1.0,3.0,-2.0
1701799206.0161874,9.0,-4.0,-6.0,-1.0,1.0,3.0,8.0,12.0
1701799206.0205374,-17.0,6.0,25.0,8.0,1.0,-1.0,-4.0,-15.0
1701799206.0205374,0.0,-2.0,-20.0,-6.0,-3.0,-2.0,-8.0,-6.0
1701799206.0836947,-6.0,-5.0,-11.0,-10.0,-4.0,-4.0,4.0,-7.0
1701799206.0836947,5.0,1.0,1.0,-1.0,-1.0,-1.0,-4.0,-1.0
1701799206.0864902,-1.0,8.0,23.0,15.0,0.0,1.0,14.0,22.0
1701799206.0864902,-4.0,-6.0,-4.0,-1.0,-3.0,-2.0,-1.0,-1.0
1701799206.0936952,-4.0,2.0,-20.0,2.0,4.0,1.0,-6.0,-12.0
1701799206.0936952,-3.0,-13.0,-41.0,-26.0,-7.0,-3.0,-5.0,11.0
1701799206.0936952,9.0,6.0,10.0,0.0,-3.0,-1.0,-10.0,-18.0
1701799206.0936952,-13.0,1.0,22.0,16.0,5.0,2.0,9.0,13.0
1701799206.1064878,6.0,-3.0,-12.0,-18.0,-6.0,0.0,0.0,10.0
1701799206.1078134,-6.0,-7.0,9.0,9.0,5.0,1.0,-5.0,-10.0
1701799206.1137035,3.0,-9.0,-9.0,5.0,0.0,0.0,-2.0,3.0
1701799206.1137035,-2.0,10.0,13.0,0.0,-3.0,-2.0,1.0,0.0
1701799206.1137035,3.0,10.0,13.0,9.0,0.0,1.0,1.0,-4.0
1701799206.1137035,-3.0,-7.0,24.0,-4.0,-7.0,-5.0,-2.0,-6.0
1701799206.1137035,0.0,3.0,-21.0,-9.0,5.0,0.0,-3.0,-3.0
1701799206.1137035,2.0,-2.0,2.0,4.0,0.0,1.0,-1.0,-6.0
1701799206.1158316,-6.0,-3.0,-15.0,-9.0,-2.0,-1.0,-2.0,3.0
1701799206.1158316,1.0,7.0,1.0,5.0,-10.0,-2.0,-3.0,-5.0
1701799206.1251044,1.0,-7.0,12.0,12.0,13.0,3.0,1.0,0.0
1701799206.1251044,0.0,4.0,-10.0,-5.0,-2.0,-2.0,-2.0,2.0
1701799206.1658614,-6.0,-8.0,15.0,12.0,7.0,0.0,-8.0,-13.0
1701799206.1658614,7.0,6.0,6.0,-13.0,-5.0,-1.0,7.0,25.0
1701799206.1658614,-6.0,1.0,13.0,34.0,0.0,-2.0,-3.0,-14.0
1701799206.1658614,-5.0,-5.0,-44.0,-53.0,-8.0,-1.0,-3.0,-2.0
1701799206.1668692,-9.0,-28.0,-38.0,-4.0,-9.0,-8.0,0.0,-2.0
1701799206.1668692,9.0,1.0,-13.0,-6.0,4.0,0.0,-2.0,-12.0
1701799206.1668692,4.0,41.0,46.0,-8.0,-4.0,0.0,-6.0,-10.0
1701799206.1668692,-7.0,-37.0,-1.0,26.0,9.0,2.0,6.0,16.0
1701799206.1795392,5.0,7.0,55.0,-4.0,-8.0,-4.0,-8.0,-9.0
1701799206.1795392,-1.0,3.0,-30.0,-9.0,2.0,0.0,6.0,4.0
1701799206.185125,-1.0,-13.0,-23.0,-1.0,4.0,2.0,-8.0,-34.0
1701799206.185125,-1.0,20.0,31.0,16.0,-1.0,3.0,19.0,38.0
1701799206.2342021,10.0,23.0,26.0,-2.0,-6.0,1.0,-2.0,13.0
1701799206.2342021,-3.0,-24.0,-68.0,-4.0,4.0,1.0,-1.0,-4.0
1701799206.2342021,9.0,9.0,57.0,4.0,-9.0,-2.0,-1.0,5.0
1701799206.2342021,-1.0,-23.0,-25.0,21.0,4.0,-2.0,-8.0,-20.0
1701799206.2342021,-11.0,0.0,-31.0,-46.0,-4.0,-3.0,-8.0,-9.0
1701799206.2342021,-2.0,15.0,48.0,16.0,0.0,-1.0,-5.0,-12.0
1701799206.2342021,2.0,-1.0,-28.0,-5.0,9.0,2.0,7.0,4.0
1701799206.2352064,-7.0,-19.0,-3.0,11.0,-3.0,-3.0,7.0,29.0
1701799206.258283,4.0,13.0,-19.0,-6.0,2.0,-2.0,6.0,11.0
1701799206.26076,-9.0,8.0,30.0,23.0,6.0,1.0,-8.0,-18.0
1701799206.2778814,-2.0,-6.0,21.0,-4.0,-9.0,-3.0,-14.0,-24.0
1701799206.2778814,7.0,13.0,25.0,-12.0,-3.0,-1.0,13.0,15.0
1701799206.2820761,11.0,-2.0,2.0,17.0,6.0,2.0,3.0,-2.0
1701799206.2820761,-9.0,-6.0,-7.0,-23.0,-4.0,-3.0,-4.0,3.0
1701799206.2820761,-2.0,3.0,-3.0,6.0,-8.0,-3.0,0.0,12.0
1701799206.2820761,2.0,-21.0,-26.0,-2.0,-2.0,-4.0,-20.0,-49.0
1701799206.2820761,-2.0,0.0,15.0,-10.0,-3.0,-2.0,-7.0,36.0
1701799206.2820761,5.0,8.0,-28.0,-7.0,-3.0,-2.0,11.0,11.0
1701799206.2820761,-14.0,-22.0,-19.0,14.0,0.0,-1.0,6.0,7.0
1701799206.2820761,3.0,5.0,-31.0,-43.0,-13.0,-3.0,-7.0,-14.0
1701799206.3183153,-4.0,0.0,5.0,8.0,7.0,2.0,1.0,-11.0
1701799206.3183153,5.0,0.0,20.0,14.0,-1.0,-2.0,-13.0,-24.0
1701799206.3183153,-5.0,1.0,-33.0,-20.0,-2.0,-2.0,15.0,40.0
1701799206.3183153,-1.0,12.0,35.0,12.0,-3.0,-4.0,-11.0,-20.0
1701799206.3183153,-3.0,-10.0,-29.0,8.0,-1.0,0.0,-3.0,-10.0
1701799206.3183153,-6.0,11.0,25.0,16.0,3.0,-1.0,0.0,4.0
1701799206.3243165,6.0,-10.0,9.0,-26.0,-9.0,-1.0,-5.0,-13.0
1701799206.3243165,6.0,8.0,16.0,12.0,3.0,0.0,2.0,4.0
1701799206.3413463,-5.0,-15.0,-103.0,-21.0,0.0,2.0,13.0,12.0
1701799206.3413463,1.0,13.0,67.0,13.0,-1.0,-3.0,-7.0,-10.0
1701799206.342444,-1.0,-4.0,0.0,-16.0,-6.0,-5.0,3.0,17.0
1701799206.342444,-3.0,6.0,10.0,29.0,9.0,1.0,-6.0,-10.0
1701799206.37768,1.0,12.0,35.0,-15.0,-4.0,0.0,-5.0,-7.0
1701799206.37768,-5.0,-19.0,-14.0,-2.0,-4.0,-4.0,0.0,-18.0
1701799206.3786793,1.0,7.0,-29.0,-11.0,0.0,1.0,-6.0,17.0
1701799206.3786793,6.0,16.0,34.0,7.0,1.0,0.0,15.0,12.0
1701799206.3786793,-9.0,-45.0,-32.0,7.0,0.0,-3.0,-1.0,-7.0
1701799206.3786793,-5.0,8.0,2.0,-11.0,3.0,-1.0,0.0,-3.0
1701799206.3849158,5.0,10.0,13.0,-3.0,-5.0,-3.0,-8.0,0.0
1701799206.3849158,-4.0,3.0,9.0,-3.0,2.0,-3.0,-6.0,-12.0
1701799206.395554,8.0,15.0,18.0,12.0,-3.0,-1.0,6.0,4.0
1701799206.395554,-10.0,-16.0,-31.0,-11.0,-2.0,-1.0,-6.0,2.0
1701799206.406609,3.0,-12.0,6.0,12.0,2.0,-2.0,-6.0,-7.0
1701799206.406609,-9.0,5.0,-11.0,-6.0,-2.0,3.0,0.0,-16.0
1701799206.470834,0.0,3.0,19.0,-3.0,-3.0,-3.0,-2.0,10.0
1701799206.470834,-13.0,-5.0,15.0,1.0,-1.0,-3.0,-12.0,-17.0
1701799206.470834,18.0,7.0,-13.0,-7.0,0.0,3.0,16.0,17.0
1701799206.470834,0.0,-1.0,1.0,-8.0,-3.0,-2.0,1.0,2.0
1701799206.4761224,-5.0,-3.0,8.0,10.0,-1.0,-3.0,-7.0,-15.0
1701799206.4771152,-2.0,0.0,-18.0,-3.0,2.0,4.0,18.0,24.0
1701799206.4771152,-5.0,-20.0,-54.0,-9.0,-2.0,-3.0,-4.0,-7.0
1701799206.4771152,-2.0,4.0,39.0,-5.0,-7.0,-7.0,-18.0,-23.0
1701799206.4771152,5.0,1.0,-25.0,-5.0,2.0,3.0,15.0,18.0
1701799206.4771152,2.0,-7.0,10.0,11.0,2.0,-2.0,-9.0,-9.0
1701799206.4771152,4.0,8.0,29.0,9.0,3.0,0.0,10.0,18.0
1701799206.4771152,-6.0,-11.0,-45.0,-20.0,-4.0,-1.0,-4.0,-13.0
1701799206.504962,-1.0,1.0,33.0,16.0,1.0,0.0,-11.0,-1.0
1701799206.504962,-3.0,-4.0,-9.0,-13.0,-5.0,0.0,7.0,1.0
1701799206.504962,0.0,4.0,20.0,20.0,2.0,-2.0,-7.0,-10.0
1701799206.504962,3.0,1.0,-25.0,-27.0,-2.0,0.0,1.0,10.0
1701799206.504962,-7.0,4.0,15.0,7.0,0.0,0.0,-4.0,-11.0
1701799206.504962,3.0,5.0,-10.0,-4.0,-3.0,-2.0,-4.0,6.0
1701799206.505998,-4.0,-11.0,-5.0,4.0,0.0,0.0,0.0,-7.0
1701799206.505998,1.0,-3.0,25.0,14.0,4.0,-3.0,-1.0,11.0
1701799206.5216584,-1.0,2.0,-19.0,-14.0,-3.0,-1.0,-2.0,-15.0
1701799206.5216584,5.0,9.0,12.0,-4.0,-3.0,-1.0,5.0,6.0
1701799206.5455828,-7.0,-4.0,-15.0,8.0,-1.0,-4.0,0.0,-4.0
1701799206.546629,1.0,1.0,-2.0,2.0,0.0,1.0,-5.0,-1.0
1701799206.5713503,0.0,-10.0,12.0,-3.0,-3.0,-2.0,-1.0,4.0
1701799206.5713503,-2.0,-4.0,-20.0,-8.0,-3.0,0.0,-2.0,-2.0
1701799206.5713503,-5.0,4.0,25.0,-3.0,0.0,-1.0,-2.0,-3.0
1701799206.5713503,-2.0,-3.0,-31.0,-10.0,-1.0,1.0,4.0,4.0
1701799206.5743468,1.0,-1.0,6.0,14.0,-2.0,-4.0,-2.0,-4.0
1701799206.5743468,2.0,-2.0,7.0,0.0,2.0,-2.0,-1.0,11.0
1701799206.5743468,-1.0,-10.0,-18.0,-14.0,-7.0,-2.0,-6.0,-9.0
1701799206.5743468,1.0,9.0,3.0,6.0,0.0,-3.0,-7.0,2.0
1701799206.5813434,-4.0,-8.0,-6.0,-8.0,-1.0,1.0,3.0,-1.0
1701799206.5813434,0.0,1.0,19.0,0.0,0.0,0.0,2.0,-2.0
1701799206.6027231,-4.0,-7.0,-53.0,-3.0,0.0,0.0,-2.0,-2.0
1701799206.6030283,0.0,10.0,18.0,-1.0,-1.0,-1.0,-1.0,2.0
1701799206.6124864,4.0,-3.0,3.0,5.0,0.0,-2.0,-17.0,-22.0
1701799206.6124864,-1.0,-3.0,-3.0,1.0,0.0,4.0,15.0,27.0
1701799206.6124864,-5.0,5.0,9.0,-4.0,-2.0,1.0,3.0,-1.0
1701799206.6124864,3.0,-3.0,-19.0,-5.0,-1.0,-3.0,1.0,0.0
1701799206.6135297,0.0,-2.0,10.0,5.0,1.0,-2.0,-2.0,-2.0
1701799206.6135297,-2.0,-8.0,-25.0,-8.0,-4.0,-6.0,-8.0,-4.0
1701799206.623716,-6.0,8.0,22.0,-2.0,-1.0,-4.0,-27.0,-19.0
1701799206.623716,-1.0,-2.0,7.0,3.0,-1.0,3.0,33.0,11.0
1701799206.6425495,-2.0,-8.0,-41.0,-9.0,-1.0,-1.0,2.0,7.0
1701799206.6431186,6.0,-3.0,12.0,4.0,0.0,-1.0,-5.0,-3.0
1701799206.6662354,-4.0,-4.0,-6.0,-10.0,-4.0,1.0,3.0,0.0
1701799206.6662354,2.0,-4.0,-3.0,3.0,-1.0,-4.0,-14.0,-10.0
1701799206.6771216,-6.0,9.0,16.0,0.0,0.0,0.0,2.0,3.0
1701799206.6771216,-2.0,2.0,0.0,-2.0,-3.0,-4.0,-7.0,-11.0
