1701799029.0588694,-4.0,-2.0,6.0,1.0,0.0,-1.0,-3.0,1.0
1701799029.0588694,-3.0,-2.0,-21.0,-10.0,0.0,0.0,-6.0,-6.0
1701799029.068869,2.0,-1.0,0.0,-2.0,-1.0,-1.0,-2.0,2.0
1701799029.068869,1.0,0.0,4.0,12.0,4.0,-1.0,-2.0,-2.0
1701799029.0788648,-2.0,-2.0,-1.0,-5.0,-2.0,0.0,4.0,-6.0
1701799029.0788648,11.0,1.0,2.0,2.0,-1.0,-1.0,-6.0,-2.0
1701799029.0788648,-1.0,0.0,-4.0,0.0,-2.0,-3.0,0.0,1.0
1701799029.0788648,-3.0,-3.0,4.0,-1.0,-1.0,1.0,0.0,0.0
1701799029.0889661,-6.0,-4.0,-17.0,-7.0,1.0,-1.0,-1.0,2.0
1701799029.0889661,7.0,1.0,14.0,8.0,-3.0,-3.0,0.0,-1.0
1701799029.0889661,-4.0,-1.0,-17.0,-12.0,-2.0,1.0,-3.0,-8.0
1701799029.0889661,1.0,2.0,6.0,0.0,-3.0,0.0,1.0,-5.0
1701799029.1089652,0.0,2.0,5.0,6.0,3.0,1.0,1.0,-1.0
1701799029.1188755,-4.0,-3.0,2.0,-4.0,-2.0,-3.0,-2.0,-1.0
1701799029.1188755,-4.0,-2.0,1.0,-1.0,0.0,-2.0,-3.0,-2.0
1701799029.1188755,-4.0,1.0,-7.0,-3.0,-3.0,-2.0,-2.0,-1.0
1701799029.148865,-2.0,-2.0,-1.0,0.0,1.0,0.0,1.0,-2.0
1701799029.148865,-3.0,0.0,0.0,2.0,-2.0,-2.0,-1.0,-2.0
1701799029.148865,0.0,-2.0,-3.0,7.0,2.0,0.0,2.0,3.0
1701799029.148865,-1.0,-5.0,-21.0,-23.0,-6.0,-4.0,-3.0,-4.0
1701799029.148865,6.0,0.0,-7.0,-1.0,-5.0,-2.0,0.0,1.0
1701799029.148865,-28.0,-5.0,-3.0,1.0,-2.0,-3.0,-4.0,-6.0
1701799029.148865,0.0,2.0,6.0,-2.0,-2.0,1.0,-1.0,1.0
1701799029.148865,-3.0,-2.0,2.0,10.0,2.0,-1.0,0.0,1.0
1701799029.178868,-3.0,-4.0,-1.0,-5.0,-6.0,-2.0,-4.0,-7.0
1701799029.178868,-4.0,-2.0,-5.0,-1.0,-1.0,0.0,-3.0,0.0
1701799029.178868,9.0,-2.0,1.0,-6.0,-2.0,-1.0,2.0,5.0
1701799029.178868,-3.0,-1.0,0.0,5.0,4.0,0.0,-1.0,-4.0
1701799029.1888666,-7.0,0.0,3.0,0.0,3.0,0.0,-3.0,-3.0
1701799029.1888666,2.0,6.0,-6.0,2.0,-1.0,0.0,0.0,11.0
1701799029.1888666,-3.0,1.0,18.0,-5.0,-2.0,0.0,1.0,5.0
1701799029.1888666,2.0,-2.0,-1.0,-2.0,-1.0,1.0,2.0,4.0
1701799029.2092624,-2.0,-5.0,-16.0,3.0,-6.0,-5.0,-2.0,-5.0
1701799029.2092624,0.0,-2.0,0.0,5.0,3.0,0.0,0.0,-2.0
1701799029.2092624,-1.0,1.0,-2.0,-4.0,-2.0,-2.0,-2.0,-1.0
1701799029.2092624,4.0,-1.0,-1.0,0.0,2.0,2.0,0.0,0.0
1701799029.2288666,-8.0,-4.0,-1.0,-7.0,2.0,2.0,0.0,1.0
1701799029.2288666,-1.0,-3.0,-2.0,-4.0,-2.0,-2.0,-2.0,-11.0
1701799029.2288666,2.0,-4.0,0.0,-3.0,-1.0,0.0,0.0,-2.0
1701799029.2288666,-4.0,4.0,-18.0,1.0,5.0,2.0,0.0,-5.0
1701799029.2492769,-1.0,-4.0,24.0,-1.0,-7.0,-4.0,-3.0,-3.0
1701799029.2492769,-1.0,-4.0,-5.0,10.0,-3.0,0.0,-1.0,0.0
1701799029.2492769,1.0,-2.0,-6.0,-6.0,2.0,2.0,0.0,-1.0
1701799029.2492769,1.0,2.0,1.0,-9.0,-6.0,-2.0,-1.0,1.0
1701799029.2691216,-1.0,2.0,3.0,0.0,0.0,-1.0,1.0,2.0
1701799029.2691216,6.0,9.0,-4.0,-7.0,-3.0,-1.0,-2.0,-3.0
1701799029.2691216,-3.0,-2.0,-6.0,-2.0,-1.0,-1.0,-2.0,0.0
1701799029.2691216,-1.0,-1.0,8.0,11.0,0.0,-1.0,-2.0,-1.0
1701799029.2988646,1.0,-2.0,-3.0,-4.0,1.0,0.0,1.0,-1.0
1701799029.2988646,2.0,-3.0,2.0,0.0,1.0,-1.0,1.0,4.0
1701799029.2988646,-15.0,-4.0,-7.0,-1.0,-3.0,-4.0,-8.0,-20.0
1701799029.2988646,-3.0,-2.0,4.0,-1.0,3.0,0.0,0.0,-2.0
1701799029.3091567,-5.0,0.0,6.0,-1.0,-1.0,0.0,-1.0,-1.0
1701799029.3091567,3.0,-3.0,-14.0,4.0,1.0,0.0,-1.0,1.0
1701799029.3091567,-2.0,-4.0,-7.0,-7.0,-1.0,0.0,3.0,6.0
1701799029.3091567,2.0,-1.0,7.0,8.0,-4.0,-3.0,-2.0,-1.0
1701799029.3292608,1.0,-1.0,-10.0,0.0,0.0,0.0,0.0,-3.0
1701799029.3292608,4.0,-3.0,6.0,-5.0,0.0,-2.0,-2.0,-1.0
1701799029.3292608,-10.0,-1.0,1.0,-3.0,-2.0,-2.0,-2.0,-1.0
1701799029.3292608,-5.0,-1.0,-4.0,-3.0,-1.0,-2.0,-3.0,-9.0
1701799029.3488681,4.0,3.0,-5.0,-1.0,2.0,0.0,3.0,15.0
1701799029.3488681,-3.0,-2.0,10.0,-1.0,2.0,2.0,4.0,-4.0
1701799029.3488681,5.0,-1.0,0.0,4.0,0.0,-2.0,0.0,1.0
1701799029.3488681,-1.0,-5.0,-26.0,-7.0,-2.0,-1.0,0.0,2.0
1701799029.369248,-3.0,-1.0,0.0,0.0,-1.0,-1.0,-3.0,-4.0
1701799029.369248,-8.0,-6.0,4.0,-1.0,-2.0,-2.0,-4.0,-1.0
1701799029.369248,1.0,2.0,7.0,3.0,1.0,-1.0,-1.0,2.0
1701799029.369248,-4.0,1.0,7.0,5.0,0.0,-1.0,-2.0,-4.0
1701799029.3892157,8.0,0.0,-7.0,-3.0,1.0,-1.0,-2.0,-1.0
1701799029.3892157,5.0,-1.0,-5.0,-16.0,-3.0,-1.0,0.0,2.0
1701799029.3892157,-9.0,0.0,6.0,29.0,2.0,0.0,-2.0,-7.0
1701799029.3892157,10.0,-9.0,-24.0,-22.0,-4.0,-2.0,1.0,3.0
1701799029.418868,-11.0,6.0,14.0,9.0,-1.0,-3.0,0.0,-4.0
1701799029.418868,-3.0,11.0,9.0,0.0,0.0,-2.0,-3.0,1.0
1701799029.418868,4.0,-6.0,7.0,-4.0,-2.0,0.0,1.0,5.0
1701799029.418868,1.0,4.0,-18.0,-3.0,0.0,1.0,-1.0,0.0
1701799029.4291549,-5.0,-3.0,16.0,-1.0,-1.0,-1.0,-3.0,-7.0
1701799029.4291549,1.0,-7.0,-33.0,-3.0,-2.0,-2.0,-3.0,2.0
1701799029.4388685,-3.0,6.0,20.0,-6.0,1.0,-1.0,3.0,0.0
1701799029.4388685,0.0,-3.0,3.0,14.0,0.0,-2.0,-5.0,-4.0
1701799029.4614022,4.0,-3.0,-29.0,-18.0,-2.0,-1.0,2.0,-4.0
1701799029.4614022,-1.0,4.0,14.0,9.0,-2.0,-1.0,-6.0,-6.0
1701799029.4614022,8.0,-1.0,-7.0,-3.0,3.0,2.0,11.0,26.0
1701799029.4614022,4.0,-2.0,5.0,-12.0,-3.0,-1.0,0.0,1.0
1701799029.471754,-20.0,0.0,9.0,10.0,0.0,-1.0,1.0,2.0
1701799029.471754,-3.0,-6.0,3.0,-14.0,-3.0,-2.0,-5.0,-14.0
1701799029.471754,0.0,-2.0,5.0,-4.0,-8.0,-3.0,-4.0,-9.0
1701799029.471754,2.0,0.0,-2.0,24.0,3.0,-3.0,0.0,6.0
1701799029.481717,2.0,-6.0,-34.0,-25.0,-4.0,-3.0,-4.0,-2.0
1701799029.481717,-7.0,3.0,0.0,7.0,-2.0,0.0,4.0,2.0
1701799029.491744,2.0,1.0,-10.0,-5.0,1.0,-1.0,-5.0,-6.0
1701799029.491744,-2.0,4.0,12.0,14.0,-1.0,-2.0,-1.0,1.0
1701799029.5117562,5.0,-3.0,5.0,7.0,0.0,-2.0,-4.0,-3.0
1701799029.5117562,0.0,-5.0,-25.0,-2.0,2.0,2.0,2.0,1.0
1701799029.5117562,6.0,26.0,57.0,-3.0,3.0,3.0,1.0,2.0
1701799029.5117562,-28.0,-46.0,-68.0,-16.0,-12.0,-6.0,-7.0,-11.0
1701799029.5321586,3.0,-2.0,0.0,9.0,4.0,1.0,1.0,0.0
1701799029.5321586,9.0,-3.0,4.0,-12.0,-1.0,-1.0,1.0,2.0
1701799029.5321586,5.0,4.0,-3.0,22.0,-2.0,-2.0,-4.0,-5.0
1701799029.5321586,-18.0,11.0,20.0,-19.0,0.0,0.0,2.0,-3.0
1701799029.542081,-15.0,-1.0,31.0,7.0,2.0,2.0,-1.0,-6.0
1701799029.542081,2.0,-6.0,-20.0,-3.0,-3.0,-4.0,-7.0,-11.0
1701799029.5517569,5.0,-3.0,-25.0,-11.0,1.0,-2.0,-1.0,9.0
1701799029.5517569,11.0,-2.0,21.0,3.0,0.0,1.0,2.0,2.0
1701799029.5817554,-13.0,0.0,-40.0,-17.0,-7.0,-4.0,1.0,5.0
1701799029.5817554,-1.0,11.0,71.0,49.0,11.0,2.0,-1.0,1.0
1701799029.5817554,-10.0,-3.0,-35.0,-4.0,-1.0,-3.0,-6.0,-9.0
1701799029.5817554,-1.0,-5.0,10.0,-37.0,-7.0,-5.0,-9.0,-12.0
1701799029.591807,-22.0,-12.0,6.0,22.0,-1.0,-1.0,1.0,13.0
1701799029.591807,11.0,-3.0,-14.0,-24.0,-4.0,-2.0,-1.0,-5.0
1701799029.591807,9.0,4.0,1.0,1.0,3.0,0.0,1.0,-2.0
1701799029.591807,-4.0,12.0,42.0,10.0,4.0,2.0,2.0,8.0
1701799029.6020334,17.0,-12.0,-19.0,-17.0,-8.0,-3.0,-6.0,-5.0
1701799029.6020334,-3.0,-1.0,0.0,6.0,0.0,1.0,0.0,0.0
1701799029.6119862,-9.0,-4.0,3.0,14.0,3.0,1.0,-1.0,1.0
1701799029.6119862,13.0,3.0,-17.0,-29.0,-5.0,-4.0,-5.0,-11.0
1701799029.6317558,2.0,1.0,17.0,9.0,-3.0,-3.0,-3.0,0.0
1701799029.6317558,1.0,-4.0,-8.0,2.0,1.0,-2.0,1.0,8.0
1701799029.6317558,-1.0,-6.0,6.0,-10.0,-3.0,0.0,-1.0,-4.0
1701799029.6317558,2.0,4.0,3.0,13.0,3.0,1.0,-2.0,4.0
1701799029.6566925,16.0,10.0,-12.0,-6.0,1.0,2.0,5.0,9.0
1701799029.6566925,-11.0,3.0,0.0,1.0,-1.0,-1.0,-4.0,1.0
1701799029.6577508,1.0,-6.0,-5.0,-9.0,-3.0,-2.0,1.0,-6.0
1701799029.6577508,-9.0,-1.0,10.0,10.0,1.0,2.0,6.0,5.0
1701799029.6864727,21.0,-2.0,-44.0,-11.0,-1.0,-2.0,-4.0,-5.0
1701799029.6864727,-21.0,0.0,57.0,2.0,-1.0,-1.0,0.0,-1.0
1701799029.6864727,14.0,-3.0,-18.0,-10.0,-4.0,-3.0,-1.0,15.0
1701799029.6864727,-25.0,2.0,15.0,13.0,1.0,-1.0,-2.0,-19.0
1701799029.6931005,-4.0,19.0,15.0,-8.0,-1.0,-3.0,-7.0,-18.0
1701799029.6931005,-8.0,-14.0,-8.0,-4.0,-2.0,0.0,1.0,-3.0
1701799029.7000384,-5.0,-5.0,3.0,7.0,-2.0,-1.0,2.0,0.0
1701799029.7000384,6.0,1.0,0.0,-4.0,-1.0,0.0,5.0,10.0
1701799029.716406,10.0,5.0,31.0,11.0,2.0,1.0,2.0,4.0
1701799029.716406,13.0,12.0,-40.0,-11.0,-5.0,-2.0,-2.0,-2.0
1701799029.718143,-12.0,-19.0,-19.0,-23.0,-3.0,-2.0,-2.0,-3.0
1701799029.718143,19.0,11.0,-3.0,24.0,-1.0,-2.0,-3.0,0.0
1701799029.7435417,-11.0,-9.0,-9.0,0.0,-4.0,-3.0,-1.0,-4.0
1701799029.7435417,3.0,2.0,12.0,-7.0,0.0,0.0,0.0,6.0
1701799029.7435417,1.0,-1.0,8.0,9.0,-5.0,-2.0,-2.0,-4.0
1701799029.7435417,-4.0,-5.0,-52.0,-11.0,6.0,0.0,-2.0,0.0
1701799029.7538304,-2.0,-2.0,28.0,-2.0,-11.0,-1.0,2.0,-1.0
1701799029.7538304,0.0,-3.0,-24.0,15.0,22.0,6.0,1.0,1.0
1701799029.764163,-2.0,4.0,4.0,-1.0,3.0,-2.0,-4.0,-5.0
1701799029.764163,-2.0,-2.0,23.0,13.0,-11.0,-9.0,-1.0,2.0
1701799029.777479,-3.0,-1.0,0.0,-5.0,2.0,3.0,0.0,1.0
1701799029.777479,5.0,0.0,-4.0,-6.0,-9.0,-4.0,1.0,-2.0
1701799029.7784193,1.0,3.0,-15.0,-13.0,-1.0,0.0,0.0,0.0
1701799029.7784193,0.0,-2.0,33.0,12.0,0.0,-1.0,-1.0,-2.0
1701799029.8082075,-3.0,-4.0,-25.0,-9.0,-7.0,-5.0,-1.0,-1.0
1701799029.8082075,3.0,2.0,6.0,-2.0,-6.0,-2.0,-2.0,-2.0
1701799029.8082075,-3.0,-2.0,-5.0,0.0,0.0,-1.0,-2.0,-1.0
1701799029.8082075,-1.0,5.0,9.0,-1.0,-6.0,-1.0,-1.0,1.0
1701799029.8142946,-1.0,-1.0,-12.0,18.0,10.0,4.0,-4.0,-4.0
1701799029.8142946,-2.0,-4.0,18.0,2.0,-4.0,-3.0,-3.0,0.0
1701799029.820291,-7.0,-2.0,-4.0,-2.0,-3.0,-2.0,-1.0,-2.0
1701799029.820291,8.0,4.0,3.0,2.0,3.0,3.0,0.0,1.0
1701799029.8365693,-1.0,-1.0,-7.0,-18.0,4.0,1.0,-1.0,-3.0
1701799029.8365693,-1.0,-3.0,-15.0,-1.0,-3.0,-4.0,1.0,2.0
1701799029.8375866,1.0,-1.0,11.0,9.0,-4.0,-1.0,-3.0,-14.0
1701799029.8385873,-4.0,0.0,-15.0,-22.0,-2.0,0.0,1.0,4.0
1701799029.8748705,-2.0,-2.0,14.0,18.0,5.0,-2.0,-1.0,2.0
1701799029.8748705,-7.0,0.0,-8.0,-5.0,-5.0,-1.0,-1.0,-2.0
1701799029.8748705,6.0,-1.0,-10.0,-9.0,-6.0,-3.0,-5.0,-5.0
1701799029.8748705,-3.0,2.0,18.0,3.0,-4.0,-3.0,-2.0,-3.0
1701799029.8748705,1.0,-2.0,-28.0,-21.0,-16.0,-5.0,-1.0,-3.0
1701799029.8748705,3.0,-3.0,-2.0,9.0,20.0,4.0,1.0,1.0
1701799029.8748705,-5.0,2.0,17.0,8.0,4.0,-1.0,-2.0,-3.0
1701799029.8748705,0.0,-2.0,0.0,4.0,3.0,1.0,0.0,1.0
1701799029.8950646,3.0,1.0,9.0,-1.0,-6.0,-4.0,-1.0,0.0
1701799029.8950646,-4.0,-1.0,-1.0,-13.0,-11.0,-5.0,-4.0,-5.0
1701799029.9048693,-6.0,-4.0,5.0,1.0,1.0,1.0,0.0,2.0
1701799029.9048693,6.0,5.0,10.0,5.0,0.0,0.0,2.0,6.0
1701799029.9149191,-9.0,-1.0,-5.0,-14.0,1.0,1.0,-2.0,-7.0
1701799029.9149191,-2.0,-2.0,-8.0,-12.0,-6.0,-3.0,0.0,-2.0
1701799029.9149191,-2.0,0.0,18.0,23.0,-1.0,-1.0,-1.0,-2.0
1701799029.9149191,5.0,-5.0,-29.0,-15.0,0.0,-1.0,0.0,1.0
1701799029.9249833,0.0,0.0,15.0,8.0,5.0,-1.0,-1.0,-5.0
1701799029.9249833,-2.0,-2.0,-6.0,-1.0,-2.0,-2.0,-1.0,0.0
1701799029.9350178,2.0,0.0,-16.0,-19.0,-5.0,-3.0,-1.0,0.0
1701799029.9350178,-3.0,-4.0,-9.0,3.0,-4.0,-4.0,-3.0,-5.0
1701799029.959409,2.0,-1.0,7.0,2.0,5.0,3.0,2.0,5.0
1701799029.960423,-5.0,-4.0,-4.0,-4.0,-8.0,-1.0,-2.0,-3.0
1701799029.9776704,-4.0,0.0,3.0,-6.0,-12.0,-8.0,-4.0,0.0
1701799029.9776704,0.0,0.0,-15.0,-8.0,25.0,10.0,1.0,0.0
1701799029.9776704,-5.0,-5.0,3.0,18.0,0.0,-1.0,0.0,0.0
1701799029.9776704,1.0,0.0,-5.0,-5.0,-3.0,-1.0,-2.0,0.0
1701799029.9876728,-1.0,2.0,-2.0,-7.0,-2.0,-1.0,-1.0,-1.0
1701799029.9876728,-6.0,-7.0,-6.0,-17.0,-17.0,-7.0,-3.0,-4.0
1701799029.9876728,4.0,4.0,8.0,22.0,19.0,2.0,1.0,1.0
1701799029.9876728,4.0,4.0,6.0,0.0,-4.0,0.0,-2.0,-1.0
1701799029.997982,-2.0,0.0,-9.0,1.0,1.0,0.0,-2.0,-2.0
1701799029.997982,7.0,-2.0,-4.0,-4.0,-4.0,-3.0,0.0,1.0
1701799030.017674,-1.0,3.0,-4.0,-18.0,-3.0,1.0,1.0,-1.0
1701799030.017674,8.0,-4.0,5.0,7.0,-5.0,-3.0,0.0,2.0
1701799030.0276706,-5.0,-3.0,-2.0,-7.0,4.0,1.0,1.0,-6.0
1701799030.0276706,1.0,0.0,-6.0,4.0,-6.0,-2.0,0.0,-1.0
1701799030.038034,-4.0,-4.0,4.0,16.0,8.0,1.0,1.0,-2.0
1701799030.038034,7.0,3.0,2.0,-3.0,2.0,0.0,-2.0,-4.0
1701799030.038034,0.0,-4.0,-3.0,-12.0,-4.0,-3.0,-4.0,-2.0
1701799030.038034,-8.0,1.0,2.0,7.0,-1.0,-1.0,3.0,-1.0
1701799030.0480282,9.0,-1.0,-4.0,-4.0,-7.0,-1.0,-1.0,1.0
1701799030.0480282,-12.0,-1.0,-21.0,-8.0,-1.0,-2.0,-6.0,-7.0
1701799030.0676746,-1.0,-3.0,-9.0,2.0,2.0,0.0,-1.0,3.0
1701799030.0676746,-2.0,0.0,-7.0,-4.0,2.0,0.0,1.0,-2.0
1701799030.0676746,-3.0,-3.0,-2.0,-9.0,-8.0,-4.0,-2.0,0.0
1701799030.0676746,-4.0,-2.0,10.0,5.0,0.0,-1.0,1.0,2.0
1701799030.0776732,0.0,-1.0,-8.0,-9.0,-4.0,0.0,-1.0,1.0
1701799030.0776732,1.0,2.0,6.0,6.0,3.0,3.0,0.0,-2.0
1701799030.0978904,3.0,7.0,4.0,2.0,-5.0,-5.0,-5.0,-1.0
1701799030.0978904,-3.0,-1.0,-6.0,-7.0,-1.0,-3.0,1.0,-1.0
1701799030.0978904,10.0,1.0,4.0,10.0,3.0,-2.0,2.0,6.0
1701799030.0978904,-28.0,-5.0,-10.0,-6.0,-2.0,-3.0,-1.0,0.0
1701799030.1079476,5.0,3.0,3.0,-10.0,-3.0,-3.0,-6.0,-7.0
1701799030.1079476,7.0,1.0,8.0,17.0,4.0,3.0,6.0,2.0
1701799030.1178205,-7.0,-7.0,-6.0,1.0,2.0,0.0,-2.0,4.0
1701799030.1178205,5.0,-6.0,4.0,4.0,0.0,-1.0,8.0,-4.0
1701799030.1476738,0.0,0.0,-8.0,-20.0,-7.0,-1.0,-6.0,-3.0
1701799030.1476738,-11.0,1.0,1.0,7.0,1.0,-1.0,-4.0,0.0
1701799030.1476738,6.0,1.0,-2.0,12.0,1.0,-1.0,1.0,1.0
1701799030.1476738,4.0,-1.0,-1.0,-13.0,-2.0,-5.0,-6.0,0.0
1701799030.1579792,-9.0,-8.0,4.0,2.0,0.0,0.0,2.0,1.0
1701799030.1579792,3.0,-3.0,-3.0,-5.0,-1.0,1.0,-2.0,-4.0
1701799030.1579792,-2.0,-1.0,1.0,-1.0,-3.0,-1.0,-1.0,-2.0
1701799030.1579792,0.0,-2.0,14.0,17.0,1.0,2.0,-2.0,1.0
1701799030.1676755,-4.0,-10.0,-32.0,-13.0,3.0,4.0,8.0,11.0
1701799030.1676755,-2.0,-1.0,7.0,-9.0,-5.0,-2.0,-1.0,-5.0
1701799030.1779182,-4.0,-4.0,-8.0,-6.0,-1.0,-7.0,-11.0,-9.0
1701799030.1779182,1.0,4.0,5.0,4.0,-3.0,-1.0,-12.0,-3.0
1701799030.1876757,13.0,1.0,20.0,7.0,-2.0,-3.0,-6.0,1.0
1701799030.1876757,-15.0,-4.0,-10.0,5.0,1.0,2.0,4.0,3.0
1701799030.1976738,2.0,-2.0,-4.0,-8.0,0.0,0.0,15.0,2.0
1701799030.1976738,-4.0,0.0,-5.0,-4.0,-2.0,0.0,-1.0,1.0
1701799030.2190742,1.0,2.0,1.0,-3.0,1.0,1.0,5.0,1.0
1701799030.2190742,3.0,4.0,7.0,2.0,-5.0,-4.0,-5.0,-3.0
1701799030.220085,-4.0,-1.0,-7.0,1.0,-4.0,-1.0,-7.0,-4.0
1701799030.221087,13.0,4.0,-7.0,-6.0,2.0,0.0,-1.0,1.0
1701799030.2326086,-14.0,-4.0,-4.0,1.0,0.0,-1.0,0.0,-8.0
1701799030.2326086,-3.0,-3.0,-17.0,-32.0,-3.0,1.0,-5.0,-2.0
1701799030.243388,-4.0,1.0,55.0,33.0,6.0,0.0,-1.0,0.0
1701799030.243388,6.0,-9.0,-31.0,-34.0,-18.0,-5.0,1.0,0.0
1701799030.2586606,-6.0,-4.0,24.0,34.0,15.0,0.0,0.0,0.0
1701799030.2586606,3.0,-2.0,-4.0,22.0,15.0,4.0,3.0,3.0
1701799030.2586606,2.0,-1.0,-16.0,-26.0,-4.0,1.0,0.0,1.0
1701799030.2586606,-5.0,-5.0,11.0,-2.0,0.0,-1.0,-2.0,-3.0
1701799030.2788541,-6.0,5.0,8.0,17.0,-6.0,-3.0,-3.0,-2.0
1701799030.2788541,11.0,-2.0,-9.0,-11.0,-9.0,-5.0,-5.0,4.0
1701799030.279855,-5.0,-3.0,-14.0,-1.0,1.0,1.0,0.0,1.0
1701799030.2808597,-11.0,-4.0,4.0,-13.0,-2.0,0.0,-2.0,0.0
1701799030.3016434,10.0,3.0,-3.0,-22.0,-9.0,-8.0,-20.0,-8.0
1701799030.3016434,-13.0,-12.0,4.0,14.0,3.0,1.0,21.0,1.0
1701799030.3056426,-7.0,15.0,6.0,-5.0,-3.0,2.0,11.0,-4.0
1701799030.3056426,-3.0,-2.0,-2.0,3.0,2.0,1.0,9.0,4.0
1701799030.3166192,-1.0,-2.0,5.0,3.0,-1.0,-2.0,-1.0,-3.0
1701799030.3166192,2.0,2.0,4.0,2.0,3.0,-2.0,-16.0,3.0
1701799030.3181002,9.0,2.0,2.0,-9.0,-2.0,-6.0,-9.0,-4.0
1701799030.3181002,4.0,-4.0,0.0,14.0,3.0,1.0,3.0,-1.0
1701799030.339037,-3.0,-8.0,-14.0,-6.0,1.0,4.0,5.0,3.0
1701799030.339037,-7.0,-7.0,-3.0,-10.0,-6.0,-4.0,-2.0,-7.0
1701799030.3410478,-6.0,-1.0,-16.0,0.0,-2.0,-1.0,-1.0,2.0
1701799030.3410478,2.0,11.0,28.0,12.0,2.0,-3.0,-7.0,-6.0
1701799030.3570309,0.0,-2.0,-29.0,-15.0,-5.0,-1.0,-2.0,4.0
1701799030.3570309,-3.0,1.0,0.0,-5.0,-2.0,0.0,0.0,-6.0
1701799030.3610425,-3.0,0.0,12.0,8.0,-3.0,1.0,-3.0,1.0
1701799030.3610425,-1.0,-5.0,-9.0,0.0,-2.0,-1.0,-5.0,-3.0
1701799030.377049,1.0,-3.0,0.0,1.0,-3.0,-2.0,7.0,-1.0
1701799030.377049,0.0,4.0,23.0,20.0,7.0,2.0,-2.0,1.0
1701799030.3780622,0.0,-4.0,1.0,-21.0,-3.0,0.0,-3.0,-3.0
1701799030.3780622,-2.0,-2.0,-24.0,9.0,-13.0,-6.0,-1.0,-1.0
1701799030.3990335,-3.0,-3.0,-4.0,-2.0,27.0,7.0,4.0,-1.0
1701799030.3990335,10.0,10.0,10.0,2.0,-6.0,-5.0,-2.0,0.0
1701799030.401073,-13.0,0.0,3.0,-2.0,-3.0,-1.0,-1.0,-2.0
1701799030.401073,-1.0,0.0,-5.0,-2.0,2.0,-1.0,-1.0,-5.0
1701799030.41923,0.0,2.0,2.0,-13.0,-21.0,-8.0,-3.0,1.0
1701799030.41923,8.0,6.0,0.0,6.0,8.0,2.0,-2.0,3.0
1701799030.4212031,-1.0,-6.0,-16.0,-6.0,-1.0,-4.0,-2.0,-11.0
1701799030.4212031,3.0,4.0,6.0,2.0,5.0,0.0,-3.0,-5.0
1701799030.436752,3.0,5.0,0.0,4.0,-1.0,-1.0,3.0,8.0
1701799030.436752,6.0,-2.0,8.0,-6.0,-5.0,-2.0,-9.0,0.0
1701799030.4377522,1.0,-12.0,-30.0,-3.0,-4.0,-2.0,12.0,9.0
1701799030.4377522,-4.0,6.0,19.0,2.0,2.0,-3.0,-7.0,-6.0
1701799030.45917,-3.0,0.0,13.0,1.0,1.0,-1.0,-12.0,1.0
1701799030.45917,-12.0,-3.0,-7.0,-15.0,-9.0,-4.0,10.0,1.0
1701799030.460179,0.0,-3.0,-7.0,5.0,3.0,0.0,-17.0,-5.0
1701799030.460179,-2.0,-1.0,3.0,3.0,1.0,3.0,21.0,3.0
1701799030.4789977,0.0,-6.0,-2.0,-15.0,-8.0,-5.0,-8.0,-10.0
1701799030.4789977,-1.0,1.0,-11.0,8.0,-1.0,0.0,0.0,-2.0
1701799030.4810164,17.0,4.0,2.0,-4.0,-3.0,-3.0,-4.0,-4.0
1701799030.4810164,-25.0,-12.0,2.0,2.0,4.0,2.0,0.0,-3.0
1701799030.4962578,1.0,9.0,-5.0,-5.0,-3.0,-2.0,3.0,1.0
1701799030.4962578,-2.0,-5.0,-5.0,-3.0,-4.0,-3.0,-5.0,-4.0
1701799030.4974527,0.0,4.0,16.0,11.0,2.0,0.0,5.0,-1.0
1701799030.4974527,35.0,8.0,-1.0,-3.0,-3.0,-1.0,-9.0,6.0
1701799030.5230546,-23.0,2.0,12.0,2.0,-2.0,1.0,6.0,-9.0
1701799030.5230546,-6.0,-3.0,-29.0,-13.0,0.0,-2.0,-5.0,-4.0
1701799030.5230546,-2.0,0.0,18.0,20.0,2.0,-2.0,-5.0,-3.0
1701799030.5230546,0.0,-4.0,-15.0,2.0,-1.0,0.0,-1.0,1.0
1701799030.532374,2.0,-2.0,-2.0,22.0,-4.0,0.0,2.0,-1.0
1701799030.532374,3.0,1.0,-1.0,-20.0,4.0,0.0,-1.0,-1.0
1701799030.544096,-3.0,-3.0,-5.0,-21.0,0.0,0.0,3.0,2.0
1701799030.544096,6.0,2.0,-7.0,-3.0,1.0,2.0,-1.0,3.0
1701799030.5567396,5.0,0.0,-2.0,4.0,1.0,-3.0,-2.0,-1.0
1701799030.5567396,-2.0,-2.0,0.0,-10.0,-13.0,-3.0,0.0,0.0
1701799030.5577383,4.0,-3.0,-16.0,0.0,1.0,2.0,5.0,5.0
1701799030.5577383,-2.0,-1.0,10.0,8.0,0.0,-1.0,-2.0,-5.0
1701799030.5850387,-1.0,-2.0,-8.0,-6.0,-3.0,-2.0,-3.0,-1.0
1701799030.5850387,-5.0,-1.0,23.0,6.0,2.0,-1.0,2.0,-4.0
1701799030.5850387,-1.0,-2.0,-32.0,-1.0,0.0,-1.0,-2.0,4.0
1701799030.5850387,-14.0,-5.0,-8.0,-2.0,-1.0,-2.0,-5.0,-2.0
1701799030.593434,0.0,-3.0,4.0,-4.0,0.0,-1.0,1.0,0.0
1701799030.593434,0.0,-1.0,4.0,3.0,-5.0,-2.0,3.0,1.0
1701799030.6022236,0.0,0.0,-11.0,-12.0,-4.0,0.0,-1.0,0.0
1701799030.6032171,-1.0,0.0,15.0,6.0,1.0,-5.0,-10.0,-5.0
1701799030.6173224,0.0,-5.0,-6.0,6.0,1.0,1.0,8.0,5.0
1701799030.6173224,6.0,-1.0,2.0,1.0,2.0,2.0,3.0,1.0
1701799030.619319,-6.0,2.0,-2.0,3.0,-2.0,-1.0,-1.0,-3.0
1701799030.619319,0.0,-1.0,-13.0,-25.0,-1.0,1.0,3.0,2.0
1701799030.6605568,11.0,-8.0,-10.0,-32.0,-5.0,-1.0,-3.0,-5.0
1701799030.6605568,-2.0,3.0,18.0,53.0,9.0,0.0,-7.0,-5.0
1701799030.6605568,-1.0,2.0,8.0,-9.0,-2.0,1.0,2.0,1.0
1701799030.6615558,0.0,1.0,6.0,15.0,4.0,0.0,-11.0,-1.0
1701799030.6615558,9.0,-1.0,-2.0,-12.0,-3.0,-2.0,5.0,1.0
1701799030.6615558,-10.0,-6.0,-25.0,-19.0,-5.0,1.0,-1.0,1.0
1701799030.6615558,-4.0,-1.0,14.0,6.0,-4.0,-5.0,-3.0,-2.0
1701799030.6615558,-12.0,-2.0,7.0,6.0,3.0,-4.0,-24.0,-8.0
1701799030.678329,-4.0,1.0,-9.0,-1.0,0.0,4.0,19.0,-1.0
1701799030.678329,4.0,-2.0,1.0,-9.0,-5.0,2.0,1.0,7.0
1701799030.68033,-4.0,-2.0,0.0,0.0,-1.0,0.0,15.0,2.0
1701799030.68033,4.0,3.0,1.0,-10.0,-5.0,-2.0,-6.0,-6.0
1701799030.7000604,2.0,-6.0,7.0,10.0,1.0,-4.0,-12.0,3.0
1701799030.7000604,-20.0,-1.0,3.0,-6.0,2.0,1.0,8.0,-2.0
1701799030.7010424,-3.0,-7.0,-20.0,-4.0,-2.0,-2.0,-13.0,3.0
1701799030.7010424,2.0,8.0,-7.0,-24.0,-5.0,0.0,3.0,5.0
1701799030.7210536,-4.0,6.0,22.0,-1.0,-6.0,-3.0,-10.0,-4.0
1701799030.7210536,5.0,-1.0,-9.0,-2.0,0.0,-3.0,-3.0,-2.0
1701799030.7231991,-5.0,-2.0,12.0,11.0,3.0,-6.0,-15.0,-22.0
1701799030.7231991,0.0,-5.0,-9.0,-1.0,1.0,1.0,3.0,5.0
1701799030.7397885,-5.0,-4.0,-5.0,11.0,-2.0,0.0,-2.0,-3.0
1701799030.7397885,6.0,7.0,-2.0,-14.0,-5.0,-3.0,-9.0,0.0
1701799030.748574,0.0,1.0,8.0,9.0,1.0,2.0,-13.0,-3.0
1701799030.748574,1.0,-8.0,-17.0,-1.0,-2.0,-9.0,-20.0,-7.0
1701799030.7589424,5.0,4.0,-3.0,-12.0,-1.0,5.0,9.0,5.0
1701799030.7589424,-1.0,-8.0,-7.0,-2.0,-3.0,9.0,55.0,3.0
1701799030.7599618,-7.0,0.0,22.0,4.0,0.0,-2.0,3.0,3.0
1701799030.7599618,4.0,0.0,-7.0,4.0,1.0,1.0,1.0,-4.0
1701799030.7817717,-7.0,-4.0,1.0,4.0,-4.0,-6.0,-23.0,-5.0
1701799030.7817717,7.0,-6.0,-17.0,-7.0,-3.0,-7.0,-25.0,-10.0
1701799030.78277,-12.0,-4.0,9.0,-5.0,2.0,1.0,-15.0,-1.0
1701799030.78277,-3.0,4.0,5.0,3.0,-3.0,0.0,18.0,2.0
1701799030.8031297,-3.0,7.0,0.0,-5.0,2.0,0.0,-3.0,-4.0
1701799030.8031297,4.0,0.0,-8.0,-8.0,-3.0,-3.0,-5.0,3.0
1701799030.8081298,24.0,12.0,7.0,5.0,1.0,2.0,13.0,10.0
1701799030.8081298,-21.0,-14.0,-28.0,-3.0,-4.0,-5.0,-3.0,-7.0
1701799030.8191483,-5.0,-12.0,-16.0,-23.0,-1.0,-1.0,0.0,-2.0
1701799030.8191483,-8.0,0.0,36.0,36.0,3.0,-1.0,-7.0,-3.0
1701799030.8211095,6.0,5.0,-8.0,-7.0,-3.0,-3.0,-7.0,-1.0
1701799030.8211095,5.0,5.0,14.0,6.0,2.0,0.0,6.0,2.0
1701799030.840907,2.0,10.0,28.0,28.0,1.0,1.0,8.0,2.0
1701799030.840907,-4.0,-7.0,-38.0,-28.0,0.0,-2.0,-8.0,-3.0
1701799030.847356,-4.0,-4.0,16.0,-11.0,-9.0,0.0,8.0,2.0
1701799030.847356,4.0,-4.0,11.0,13.0,3.0,3.0,6.0,-11.0
1701799030.8561344,-4.0,2.0,4.0,-3.0,5.0,0.0,3.0,0.0
1701799030.8561344,0.0,-1.0,-5.0,-8.0,0.0,-1.0,-7.0,-2.0
1701799030.8689544,-2.0,2.0,20.0,0.0,-3.0,-4.0,0.0,-3.0
1701799030.8689544,-5.0,-2.0,2.0,11.0,8.0,3.0,6.0,4.0
1701799030.8788512,4.0,-8.0,-3.0,14.0,-1.0,-5.0,-8.0,1.0
1701799030.8788512,1.0,5.0,-8.0,-41.0,-3.0,-1.0,-3.0,1.0
1701799030.8809004,-4.0,-4.0,-16.0,4.0,-4.0,-1.0,4.0,-2.0
1701799030.8809004,10.0,14.0,20.0,-4.0,-5.0,0.0,1.0,2.0
1701799030.9047732,-4.0,-19.0,-27.0,5.0,2.0,1.0,0.0,-2.0
1701799030.9057736,2.0,0.0,19.0,26.0,2.0,-3.0,-1.0,-2.0
1701799030.913772,-11.0,2.0,-3.0,-19.0,-6.0,-2.0,2.0,5.0
1701799030.913772,-2.0,-2.0,0.0,-1.0,-8.0,-2.0,1.0,-1.0
1701799030.9153035,6.0,11.0,18.0,-10.0,13.0,1.0,-4.0,-2.0
1701799030.9153035,-9.0,-6.0,-25.0,-13.0,-3.0,-3.0,-4.0,11.0
1701799030.922732,16.0,0.0,-23.0,-1.0,2.0,-1.0,1.0,-3.0
1701799030.922732,5.0,3.0,25.0,13.0,-2.0,2.0,4.0,5.0
1701799030.9389782,-4.0,17.0,8.0,-10.0,-9.0,-5.0,-1.0,-3.0
1701799030.9397428,1.0,-16.0,-24.0,6.0,-4.0,-2.0,-1.0,-2.0
1701799030.9407449,-1.0,-3.0,-10.0,1.0,3.0,1.0,0.0,0.0
1701799030.9407449,-4.0,-5.0,-3.0,-12.0,-5.0,-4.0,-5.0,-3.0
1701799030.9783645,-5.0,-3.0,-2.0,1.0,-3.0,-2.0,-14.0,-4.0
1701799030.9783645,0.0,9.0,3.0,6.0,0.0,2.0,20.0,4.0
1701799030.9783645,27.0,0.0,17.0,7.0,3.0,2.0,-14.0,2.0
1701799030.9783645,-21.0,-13.0,-37.0,-15.0,-1.0,2.0,-1.0,7.0
1701799030.9783645,-6.0,0.0,-6.0,-2.0,-3.0,0.0,28.0,-8.0
1701799030.9783645,-11.0,5.0,13.0,8.0,-3.0,-7.0,-13.0,-9.0
1701799030.982404,1.0,0.0,6.0,1.0,2.0,-1.0,9.0,7.0
1701799030.982404,3.0,-7.0,-15.0,-9.0,-1.0,-5.0,-7.0,-10.0
1701799030.999087,-8.0,-5.0,-9.0,-4.0,-3.0,0.0,-13.0,1.0
1701799030.999087,-1.0,-5.0,2.0,11.0,2.0,4.0,2.0,-6.0
1701799031.001103,-13.0,-10.0,-3.0,-5.0,-2.0,-1.0,-4.0,-8.0
1701799031.001103,4.0,4.0,8.0,8.0,2.0,1.0,-5.0,4.0
1701799031.0237901,-4.0,-8.0,-15.0,-16.0,-6.0,-2.0,-2.0,3.0
1701799031.024791,2.0,-4.0,-4.0,4.0,-4.0,-2.0,-2.0,-5.0
1701799031.0337887,-8.0,0.0,-13.0,-2.0,3.0,-1.0,-2.0,-1.0
1701799031.0337887,3.0,0.0,20.0,9.0,0.0,2.0,7.0,6.0
1701799031.0353324,4.0,0.0,-11.0,-9.0,4.0,1.0,4.0,1.0
1701799031.0353324,2.0,5.0,-1.0,-16.0,-4.0,-4.0,-8.0,2.0
1701799031.0437276,-7.0,-4.0,-12.0,8.0,-2.0,-1.0,1.0,-5.0
1701799031.0437276,4.0,0.0,0.0,-14.0,-8.0,-4.0,1.0,-3.0
1701799031.0590744,2.0,-2.0,12.0,22.0,-1.0,-4.0,-4.0,1.0
1701799031.059786,-1.0,1.0,1.0,-7.0,-2.0,0.0,-7.0,-2.0
1701799031.0602417,-2.0,-1.0,-7.0,-9.0,3.0,2.0,6.0,-1.0
1701799031.0602417,-4.0,-1.0,-1.0,5.0,2.0,-1.0,3.0,-2.0
1701799031.080244,8.0,1.0,0.0,0.0,-4.0,-3.0,-4.0,1.0
1701799031.080244,0.0,2.0,-4.0,1.0,-3.0,-2.0,-3.0,-4.0
1701799031.0902412,-1.0,2.0,5.0,1.0,-4.0,-1.0,3.0,0.0
1701799031.0902412,3.0,-1.0,-13.0,-10.0,-6.0,-1.0,-1.0,5.0
1701799031.0902412,2.0,-2.0,-10.0,3.0,1.0,2.0,2.0,2.0
1701799031.0902412,1.0,1.0,26.0,21.0,2.0,2.0,1.0,7.0
1701799031.1005623,-1.0,-1.0,-28.0,-32.0,-5.0,-3.0,0.0,-3.0
1701799031.1005623,-5.0,-3.0,2.0,11.0,1.0,-3.0,-1.0,1.0
1701799031.1106098,-3.0,1.0,10.0,-6.0,-4.0,-1.0,-2.0,1.0
1701799031.1106098,2.0,0.0,1.0,0.0,-1.0,-5.0,-1.0,-5.0
1701799031.1205015,-6.0,-1.0,2.0,7.0,3.0,0.0,-2.0,-4.0
1701799031.1205015,2.0,1.0,0.0,0.0,-2.0,0.0,1.0,-1.0
1701799031.140241,-3.0,-5.0,-9.0,-4.0,-5.0,-4.0,-1.0,-5.0
1701799031.140241,-3.0,-2.0,4.0,-8.0,-2.0,-1.0,-2.0,-2.0
1701799031.140241,-2.0,1.0,4.0,6.0,0.0,-1.0,-2.0,-1.0
1701799031.140241,0.0,0.0,-5.0,-6.0,0.0,-1.0,-5.0,-3.0
1701799031.150589,-4.0,-4.0,0.0,4.0,-1.0,-1.0,5.0,1.0
1701799031.150589,1.0,4.0,-2.0,-5.0,-1.0,0.0,-3.0,-1.0
1701799031.1605642,2.0,-4.0,-6.0,3.0,-3.0,-1.0,-2.0,10.0
1701799031.1605642,-19.0,2.0,-5.0,-3.0,1.0,0.0,2.0,-1.0
1701799031.170607,-5.0,3.0,21.0,7.0,1.0,1.0,-1.0,-7.0
1701799031.170607,1.0,-3.0,-13.0,-5.0,-2.0,-1.0,-1.0,-2.0
1701799031.1802428,-2.0,-2.0,0.0,3.0,4.0,-1.0,0.0,-2.0
1701799031.1802428,5.0,0.0,4.0,-11.0,-3.0,-3.0,-5.0,0.0
1701799031.2002409,-1.0,-3.0,-1.0,10.0,0.0,-2.0,-3.0,-4.0
1701799031.2002409,-8.0,0.0,-8.0,-16.0,-4.0,0.0,-3.0,-2.0
1701799031.2002409,-1.0,-3.0,9.0,6.0,-4.0,-6.0,-13.0,-12.0
1701799031.2002409,2.0,4.0,4.0,-2.0,-3.0,3.0,17.0,3.0
1701799031.2105706,-1.0,-2.0,-9.0,-7.0,-3.0,-3.0,-3.0,-5.0
1701799031.2105706,0.0,-2.0,6.0,5.0,2.0,1.0,3.0,0.0
1701799031.2205741,-2.0,-1.0,-5.0,-7.0,-5.0,0.0,-2.0,-1.0
1701799031.2205741,4.0,-2.0,-4.0,-2.0,-1.0,-3.0,-8.0,-1.0
1701799031.2305923,1.0,0.0,4.0,4.0,1.0,3.0,5.0,9.0
1701799031.2305923,-2.0,-2.0,-1.0,-8.0,2.0,1.0,-3.0,-2.0
1701799031.2402418,2.0,4.0,7.0,8.0,-6.0,-1.0,0.0,-1.0
1701799031.2402418,5.0,-7.0,-11.0,-4.0,0.0,0.0,-3.0,-2.0
1701799031.2602668,-1.0,6.0,6.0,-2.0,-1.0,0.0,0.0,-1.0
1701799031.2602668,-1.0,-8.0,1.0,0.0,1.0,-2.0,-3.0,-1.0
1701799031.2602668,10.0,0.0,8.0,0.0,0.0,0.0,1.0,2.0
1701799031.2602668,-6.0,-3.0,0.0,3.0,-1.0,-4.0,-5.0,-8.0
1701799031.270376,1.0,-2.0,-10.0,-18.0,-2.0,-2.0,-4.0,-2.0
1701799031.270376,0.0,-1.0,8.0,15.0,0.0,-2.0,-1.0,-3.0
1701799031.2805772,-1.0,-3.0,1.0,3.0,1.0,2.0,0.0,-5.0
1701799031.2805772,0.0,0.0,-9.0,2.0,-1.0,-1.0,-1.0,1.0
1701799031.3002422,-2.0,-2.0,-5.0,-8.0,-4.0,-1.0,-3.0,1.0
1701799031.3002422,-6.0,0.0,0.0,8.0,-3.0,-2.0,0.0,1.0
1701799031.3002422,-2.0,-2.0,-1.0,-5.0,0.0,-1.0,3.0,-1.0
1701799031.3002422,-1.0,-1.0,4.0,0.0,2.0,-1.0,1.0,0.0
1701799031.3205023,-1.0,-3.0,-9.0,-1.0,-4.0,-1.0,-1.0,-4.0
1701799031.3205023,2.0,0.0,-2.0,1.0,1.0,1.0,2.0,-1.0
1701799031.3205023,-11.0,-4.0,-4.0,-11.0,-6.0,-2.0,1.0,1.0
1701799031.3205023,3.0,6.0,-4.0,-3.0,-3.0,-2.0,-5.0,-4.0
1701799031.3305638,3.0,0.0,-9.0,-10.0,0.0,-1.0,-1.0,3.0
1701799031.3305638,-7.0,-4.0,1.0,5.0,-4.0,-1.0,-2.0,-2.0
1701799031.3407342,-2.0,-7.0,-7.0,-3.0,2.0,-1.0,-3.0,-3.0
1701799031.3407342,-4.0,-1.0,3.0,2.0,-1.0,-1.0,-1.0,-1.0
1701799031.3506598,-4.0,-1.0,-5.0,-12.0,-6.0,-2.0,-3.0,-4.0
1701799031.3506598,18.0,3.0,0.0,-5.0,1.0,-3.0,0.0,4.0
1701799031.360591,-11.0,0.0,-5.0,-5.0,-8.0,-1.0,2.0,-2.0
1701799031.360591,-2.0,-3.0,7.0,9.0,11.0,4.0,1.0,-1.0
1701799031.380584,2.0,0.0,-3.0,-1.0,-8.0,-5.0,-4.0,-2.0
1701799031.380584,0.0,-4.0,8.0,-4.0,-15.0,-7.0,-6.0,3.0
1701799031.380584,4.0,3.0,1.0,-4.0,27.0,13.0,4.0,6.0
1701799031.380584,0.0,-2.0,-1.0,-4.0,5.0,1.0,1.0,-1.0
1701799031.4009957,-3.0,-2.0,7.0,35.0,5.0,0.0,-3.0,-1.0
1701799031.4009957,-6.0,-2.0,6.0,-6.0,-8.0,-3.0,-1.0,-4.0
1701799031.4009957,-1.0,-3.0,-23.0,-27.0,-16.0,-6.0,-3.0,-3.0
1701799031.4009957,-4.0,0.0,7.0,15.0,-2.0,-1.0,-3.0,-4.0
1701799031.4205868,-1.0,-2.0,-5.0,-6.0,4.0,1.0,0.0,1.0
1701799031.4205868,-2.0,0.0,3.0,-16.0,-8.0,-5.0,-3.0,-7.0
1701799031.4205868,2.0,-2.0,-4.0,15.0,0.0,-1.0,1.0,5.0
1701799031.4205868,-6.0,-1.0,0.0,-20.0,-3.0,-2.0,-3.0,-3.0
1701799031.4409945,-11.0,-4.0,4.0,15.0,-2.0,-5.0,-12.0,-5.0
1701799031.4409945,-4.0,-2.0,3.0,-4.0,7.0,6.0,3.0,1.0
1701799031.4409945,-1.0,2.0,-3.0,-5.0,-5.0,-1.0,7.0,-6.0
1701799031.4409945,2.0,-1.0,-4.0,1.0,-8.0,-5.0,-15.0,-9.0
1701799031.450949,2.0,-3.0,-1.0,0.0,-2.0,1.0,13.0,-14.0
1701799031.450949,0.0,-1.0,-4.0,11.0,12.0,9.0,31.0,27.0
1701799031.4609344,0.0,1.0,18.0,17.0,4.0,-1.0,-11.0,-8.0
1701799031.4609344,1.0,-3.0,-15.0,-6.0,-8.0,-1.0,-10.0,9.0
1701799031.4805844,4.0,5.0,3.0,-10.0,0.0,3.0,10.0,-5.0
1701799031.4805844,1.0,0.0,-7.0,-1.0,6.0,1.0,-2.0,-2.0
1701799031.4805844,0.0,-1.0,4.0,-7.0,-6.0,-7.0,-12.0,2.0
1701799031.4805844,-5.0,-7.0,15.0,13.0,-1.0,-1.0,7.0,-6.0
1701799031.5008774,-5.0,-2.0,-10.0,6.0,3.0,-2.0,-20.0,-13.0
1701799031.5008774,-7.0,-2.0,-9.0,-8.0,1.0,2.0,-5.0,-6.0
1701799031.5008774,-1.0,0.0,20.0,9.0,-4.0,-4.0,-7.0,-4.0
1701799031.5008774,-1.0,-3.0,-11.0,2.0,3.0,-2.0,-11.0,5.0
1701799031.5105937,-2.0,-4.0,-5.0,5.0,-3.0,-5.0,-3.0,4.0
1701799031.5105937,0.0,4.0,8.0,-16.0,0.0,3.0,5.0,-11.0
1701799031.540584,-5.0,0.0,-4.0,24.0,-9.0,-8.0,-57.0,-16.0
1701799031.540584,7.0,1.0,-16.0,-28.0,-6.0,17.0,99.0,47.0
1701799031.5534277,18.0,0.0,3.0,2.0,0.0,9.0,44.0,3.0
1701799031.5534277,3.0,0.0,-2.0,20.0,3.0,-7.0,-9.0,6.0
1701799031.5534277,0.0,5.0,-5.0,-22.0,5.0,2.0,10.0,1.0
1701799031.5534277,7.0,-6.0,5.0,5.0,-1.0,-8.0,-35.0,-45.0
1701799031.5615466,7.0,1.0,13.0,-6.0,-4.0,0.0,23.0,72.0
1701799031.5615466,34.0,-2.0,-7.0,-1.0,-3.0,-10.0,-41.0,-1.0
1701799031.5634296,-24.0,-5.0,-21.0,-8.0,-2.0,-5.0,-13.0,-29.0
1701799031.5634296,-11.0,-1.0,18.0,12.0,2.0,5.0,15.0,39.0
1701799031.5758443,-19.0,13.0,14.0,-2.0,3.0,1.0,-4.0,-16.0
1701799031.5758443,-9.0,3.0,-5.0,-10.0,-5.0,-2.0,12.0,33.0
1701799031.5864415,9.0,2.0,4.0,7.0,4.0,-1.0,5.0,-9.0
1701799031.5864415,6.0,2.0,-12.0,-11.0,-3.0,1.0,-5.0,2.0
1701799031.5967681,1.0,-8.0,12.0,11.0,-3.0,-6.0,-23.0,-5.0
1701799031.5967681,-4.0,-8.0,-32.0,-8.0,-8.0,-10.0,-19.0,-20.0
1701799031.5967681,12.0,-1.0,13.0,3.0,-4.0,0.0,26.0,3.0
1701799031.5967681,-4.0,0.0,1.0,-7.0,3.0,-8.0,-44.0,-23.0
1701799031.6168065,-3.0,0.0,16.0,10.0,1.0,5.0,14.0,-10.0
1701799031.6168065,-8.0,-4.0,-8.0,-3.0,-6.0,3.0,29.0,-1.0
1701799031.6168065,-2.0,-4.0,1.0,8.0,1.0,-1.0,13.0,15.0
1701799031.6168065,-4.0,-8.0,-9.0,-27.0,-10.0,-4.0,-5.0,-7.0
1701799031.646443,3.0,6.0,-16.0,-1.0,-6.0,-6.0,-22.0,-4.0
1701799031.646443,-4.0,-1.0,-2.0,3.0,4.0,-6.0,-30.0,-27.0
1701799031.646443,-5.0,-5.0,-15.0,-15.0,-3.0,6.0,16.0,18.0
1701799031.646443,3.0,6.0,12.0,11.0,1.0,0.0,13.0,-2.0
1701799031.6566117,-3.0,-3.0,3.0,-10.0,0.0,-3.0,-5.0,-12.0
1701799031.6566117,-5.0,5.0,6.0,3.0,-4.0,-1.0,6.0,0.0
1701799031.6566117,1.0,0.0,-15.0,-14.0,-4.0,-7.0,-13.0,3.0
1701799031.6566117,3.0,-6.0,5.0,16.0,3.0,-2.0,-17.0,-13.0
1701799031.6864522,-15.0,8.0,-3.0,-14.0,-2.0,-2.0,2.0,7.0
1701799031.6864522,1.0,-1.0,-14.0,-5.0,0.0,0.0,8.0,5.0
1701799031.6864522,0.0,-1.0,23.0,4.0,-2.0,-2.0,5.0,-1.0
1701799031.6864522,9.0,-2.0,-17.0,11.0,2.0,-1.0,0.0,-1.0
1701799031.7164423,-19.0,-8.0,-28.0,-25.0,-6.0,-4.0,-10.0,-14.0
1701799031.7164423,-13.0,-4.0,6.0,0.0,-2.0,-3.0,-15.0,-4.0
1701799031.7164423,-4.0,1.0,-15.0,-15.0,-2.0,2.0,9.0,24.0
1701799031.7164423,6.0,1.0,2.0,5.0,1.0,-1.0,8.0,11.0
1701799031.7164423,5.0,1.0,16.0,19.0,4.0,-3.0,-11.0,-4.0
1701799031.7164423,4.0,3.0,5.0,6.0,1.0,3.0,4.0,4.0
1701799031.7164423,-4.0,-5.0,0.0,19.0,2.0,1.0,-4.0,-9.0
1701799031.7164423,-2.0,5.0,1.0,-9.0,-4.0,-4.0,-3.0,-4.0
1701799031.7365954,3.0,-3.0,9.0,2.0,-2.0,-1.0,-2.0,7.0
1701799031.7365954,-4.0,-1.0,-4.0,-2.0,7.0,5.0,-4.0,-18.0
1701799031.7464418,0.0,-1.0,-7.0,-1.0,-2.0,0.0,9.0,8.0
1701799031.7464418,-8.0,0.0,13.0,6.0,4.0,-1.0,-12.0,-7.0
1701799031.7564461,3.0,-5.0,-3.0,-8.0,-1.0,1.0,4.0,-2.0
1701799031.7564461,-7.0,-4.0,-3.0,1.0,-4.0,-4.0,7.0,-5.0
1701799031.7664447,-4.0,0.0,2.0,0.0,0.0,-1.0,-6.0,0.0
1701799031.7664447,7.0,0.0,-5.0,-3.0,-2.0,-5.0,-2.0,-10.0
1701799031.7765126,4.0,-3.0,-1.0,-8.0,-1.0,6.0,10.0,1.0
1701799031.7765126,3.0,-1.0,11.0,6.0,0.0,-2.0,-1.0,2.0
1701799031.7765126,2.0,0.0,-4.0,0.0,0.0,2.0,-4.0,-16.0
1701799031.7765126,-10.0,3.0,-4.0,-7.0,-5.0,-1.0,1.0,1.0
1701799031.7966108,7.0,-3.0,-24.0,-13.0,1.0,0.0,-2.0,0.0
1701799031.7966108,-2.0,2.0,16.0,18.0,-1.0,0.0,1.0,4.0
1701799031.8164575,2.0,-1.0,3.0,0.0,-3.0,-3.0,-4.0,-9.0
1701799031.8164575,0.0,-5.0,8.0,4.0,1.0,1.0,-5.0,3.0
1701799031.826471,-3.0,-1.0,-7.0,-5.0,0.0,-2.0,-7.0,-5.0
1701799031.826471,1.0,1.0,23.0,-8.0,-3.0,2.0,5.0,2.0
1701799031.826471,-1.0,-6.0,-24.0,7.0,0.0,-3.0,-4.0,-3.0
1701799031.826471,-11.0,1.0,-1.0,-6.0,-4.0,-1.0,2.0,6.0
1701799031.83665,-4.0,-4.0,1.0,1.0,-2.0,-1.0,0.0,2.0
1701799031.83665,0.0,-1.0,0.0,0.0,0.0,-1.0,-2.0,-2.0
1701799031.83665,-1.0,0.0,8.0,-1.0,0.0,1.0,-2.0,2.0
1701799031.83665,1.0,-2.0,-13.0,-9.0,-2.0,0.0,2.0,-1.0
1701799031.8566828,1.0,0.0,28.0,11.0,1.0,0.0,-4.0,0.0
1701799031.8566828,-6.0,-1.0,-34.0,-6.0,-3.0,-1.0,1.0,-2.0
1701799031.8664715,0.0,-2.0,12.0,2.0,0.0,1.0,2.0,6.0
1701799031.8664715,-4.0,1.0,-1.0,-5.0,0.0,-1.0,0.0,-2.0
1701799031.8766382,-1.0,-2.0,0.0,4.0,3.0,-2.0,-7.0,-7.0
1701799031.8766382,3.0,1.0,-5.0,-10.0,-1.0,-2.0,1.0,0.0
1701799031.886477,-2.0,-5.0,-1.0,2.0,-2.0,-2.0,-2.0,-2.0
1701799031.886477,-12.0,0.0,2.0,-3.0,-3.0,-3.0,-5.0,-8.0
1701799031.8967714,12.0,1.0,-3.0,2.0,-3.0,0.0,-1.0,2.0
1701799031.8967714,-3.0,1.0,-1.0,-2.0,-2.0,-3.0,-5.0,-10.0
1701799031.8967714,-2.0,-1.0,-6.0,1.0,3.0,-1.0,5.0,-5.0
1701799031.8967714,8.0,1.0,12.0,5.0,1.0,-1.0,5.0,5.0
1701799031.916643,-14.0,-4.0,10.0,-5.0,-5.0,-4.0,-6.0,-5.0
1701799031.916643,6.0,-5.0,-46.0,-20.0,-2.0,-1.0,-2.0,-3.0
1701799031.9464767,-2.0,4.0,23.0,9.0,-3.0,-3.0,-8.0,-6.0
1701799031.9464767,-2.0,2.0,-9.0,-4.0,-3.0,0.0,-3.0,-3.0
1701799031.9464767,0.0,-1.0,-5.0,-1.0,1.0,-1.0,1.0,1.0
1701799031.9464767,2.0,0.0,10.0,-1.0,-2.0,-1.0,0.0,0.0
1701799031.9464767,-3.0,-3.0,1.0,4.0,-1.0,-1.0,0.0,0.0
1701799031.9464767,6.0,-2.0,-15.0,-5.0,-5.0,-3.0,0.0,2.0
1701799031.9566379,2.0,-1.0,-4.0,2.0,-3.0,-1.0,-2.0,-3.0
1701799031.9566379,-6.0,-3.0,1.0,2.0,-1.0,0.0,-1.0,1.0
1701799031.9566379,4.0,2.0,2.0,-5.0,0.0,0.0,-2.0,0.0
1701799031.9566379,-1.0,-2.0,11.0,9.0,1.0,0.0,3.0,10.0
1701799031.9764702,0.0,1.0,-8.0,3.0,-3.0,-4.0,-4.0,-6.0
1701799031.9764702,-2.0,-1.0,9.0,-5.0,-3.0,-2.0,-4.0,-1.0
1701799031.9764702,0.0,1.0,5.0,-10.0,-4.0,-3.0,-2.0,-3.0
1701799031.9764702,4.0,-3.0,-14.0,-10.0,-3.0,-3.0,-1.0,-7.0
1701799031.9964757,-8.0,2.0,-3.0,-4.0,-3.0,-2.0,-5.0,3.0
1701799031.9964757,-21.0,-1.0,12.0,17.0,3.0,1.0,2.0,-2.0
1701799031.9964757,8.0,0.0,9.0,2.0,1.0,0.0,0.0,-2.0
1701799031.9964757,-7.0,-4.0,2.0,-4.0,-2.0,-1.0,-6.0,-20.0
1701799032.016843,4.0,-1.0,-17.0,-8.0,0.0,1.0,0.0,10.0
1701799032.016843,5.0,4.0,10.0,5.0,-1.0,-1.0,-1.0,1.0
1701799032.016843,-4.0,-4.0,-24.0,-17.0,-2.0,0.0,-1.0,0.0
1701799032.016843,-10.0,-1.0,5.0,6.0,1.0,-1.0,-1.0,-5.0
1701799032.0364714,2.0,-2.0,-2.0,-12.0,-5.0,-4.0,1.0,0.0
1701799032.0364714,1.0,-2.0,3.0,7.0,0.0,-1.0,-3.0,0.0
1701799032.0364714,-4.0,0.0,-1.0,2.0,3.0,0.0,-3.0,-6.0
1701799032.0364714,3.0,0.0,-1.0,-3.0,-3.0,0.0,2.0,9.0
1701799032.0568666,-1.0,-3.0,-7.0,-2.0,-3.0,-2.0,-1.0,-5.0
1701799032.0568666,10.0,1.0,2.0,-5.0,-2.0,-2.0,-1.0,4.0
1701799032.0568666,-3.0,-3.0,-2.0,2.0,2.0,0.0,0.0,-3.0
1701799032.0568666,1.0,4.0,7.0,-4.0,-2.0,-3.0,-1.0,0.0
1701799032.0785778,-2.0,-5.0,5.0,7.0,0.0,0.0,-2.0,-6.0
1701799032.0785778,0.0,1.0,-5.0,-4.0,-1.0,-2.0,-3.0,-4.0
1701799032.0852156,1.0,0.0,-4.0,5.0,3.0,-2.0,1.0,7.0
1701799032.0852156,-2.0,-3.0,-11.0,-3.0,-2.0,1.0,-1.0,0.0
1701799032.1012926,0.0,3.0,8.0,11.0,2.0,0.0,-3.0,-1.0
1701799032.1012926,0.0,0.0,16.0,-1.0,0.0,1.0,-1.0,0.0
1701799032.103105,-1.0,-7.0,-25.0,-13.0,-6.0,-4.0,1.0,1.0
1701799032.103105,-3.0,1.0,21.0,13.0,-1.0,-2.0,-2.0,-5.0
1701799032.1197238,0.0,-2.0,-19.0,-16.0,1.0,-1.0,0.0,-2.0
1701799032.1197238,0.0,-5.0,-2.0,-1.0,3.0,-1.0,-1.0,-3.0
1701799032.1197238,2.0,0.0,2.0,1.0,0.0,-2.0,1.0,3.0
1701799032.1197238,-2.0,-1.0,-1.0,7.0,9.0,5.0,0.0,0.0
1701799032.129643,-2.0,-1.0,1.0,0.0,-8.0,-4.0,-4.0,-5.0
1701799032.129643,9.0,-2.0,-5.0,-6.0,-11.0,-4.0,-1.0,2.0
1701799032.1496282,-4.0,2.0,1.0,1.0,1.0,1.0,-8.0,-10.0
1701799032.1496282,0.0,-2.0,-4.0,-1.0,-1.0,0.0,6.0,13.0
1701799032.159624,8.0,1.0,0.0,-2.0,-1.0,-1.0,1.0,-2.0
1701799032.159624,-11.0,-4.0,-10.0,-7.0,-4.0,-1.0,3.0,24.0
1701799032.159624,-1.0,-2.0,9.0,3.0,-3.0,0.0,3.0,3.0
1701799032.159624,0.0,-1.0,-8.0,-3.0,-1.0,-1.0,-4.0,-5.0
1701799032.1800432,-2.0,-2.0,-3.0,-4.0,2.0,0.0,-2.0,-7.0
1701799032.1800432,1.0,5.0,5.0,6.0,-3.0,-2.0,-3.0,-6.0
1701799032.1800432,-1.0,1.0,13.0,3.0,-2.0,-5.0,-2.0,1.0
1701799032.1800432,-3.0,-1.0,-6.0,-1.0,1.0,-3.0,-3.0,-6.0
1701799032.1996255,-3.0,-6.0,3.0,3.0,-1.0,-2.0,-12.0,-4.0
1701799032.1996255,2.0,4.0,8.0,3.0,3.0,4.0,18.0,-5.0
1701799032.1996255,-6.0,-4.0,-23.0,-17.0,-4.0,-1.0,-11.0,-6.0
1701799032.1996255,2.0,-2.0,12.0,6.0,-3.0,0.0,23.0,8.0
1701799032.2204082,-1.0,5.0,14.0,-1.0,-3.0,0.0,17.0,-8.0
1701799032.2204082,-1.0,-6.0,-22.0,-8.0,-3.0,-3.0,-7.0,-10.0
1701799032.2204082,-2.0,-1.0,3.0,3.0,1.0,-2.0,-6.0,-4.0
1701799032.2204082,0.0,-1.0,-3.0,-2.0,-2.0,-5.0,-20.0,-3.0
1701799032.2403913,-4.0,-5.0,6.0,6.0,7.0,4.0,5.0,6.0
1701799032.2403913,-11.0,-2.0,4.0,-8.0,-10.0,-7.0,-10.0,9.0
1701799032.2403913,-2.0,-2.0,-2.0,0.0,1.0,6.0,28.0,1.0
1701799032.2403913,-3.0,-2.0,-20.0,-2.0,-1.0,-2.0,-17.0,-5.0
1701799032.2600064,-11.0,-4.0,10.0,2.0,2.0,-2.0,-4.0,2.0
1701799032.2600064,0.0,-2.0,-17.0,-8.0,2.0,-1.0,-23.0,-18.0
1701799032.2600064,6.0,-3.0,4.0,2.0,-6.0,-3.0,17.0,4.0
1701799032.2600064,-6.0,-4.0,19.0,4.0,-1.0,1.0,-7.0,-4.0
1701799032.2800844,1.0,0.0,-9.0,4.0,1.0,1.0,5.0,10.0
1701799032.2800844,0.0,-1.0,3.0,3.0,3.0,2.0,5.0,4.0
1701799032.2800844,-1.0,-4.0,-3.0,-11.0,-1.0,-1.0,-12.0,2.0
1701799032.2800844,4.0,2.0,6.0,1.0,-2.0,0.0,6.0,-7.0
1701799032.3003836,1.0,0.0,1.0,-9.0,-10.0,-7.0,-11.0,-8.0
1701799032.3003836,-2.0,-5.0,6.0,8.0,4.0,-1.0,-3.0,8.0
1701799032.3003836,1.0,3.0,-1.0,2.0,0.0,0.0,1.0,0.0
1701799032.3003836,-1.0,-2.0,0.0,-3.0,1.0,2.0,2.0,4.0
1701799032.3204074,-2.0,-2.0,-12.0,-4.0,-1.0,-1.0,-8.0,-3.0
1701799032.3204074,-1.0,0.0,1.0,4.0,0.0,1.0,7.0,-6.0
1701799032.3204074,-1.0,2.0,1.0,0.0,-4.0,-2.0,-4.0,-1.0
1701799032.3204074,-1.0,-3.0,-8.0,-7.0,-4.0,-4.0,-4.0,2.0
1701799032.340786,3.0,2.0,-5.0,1.0,-2.0,1.0,0.0,4.0
1701799032.340786,-1.0,-3.0,5.0,0.0,2.0,0.0,4.0,-5.0
1701799032.340786,0.0,0.0,-2.0,-1.0,-4.0,-2.0,-3.0,4.0
1701799032.340786,0.0,0.0,-9.0,-4.0,-1.0,1.0,-1.0,-2.0
1701799032.3608024,-2.0,-4.0,9.0,-6.0,-4.0,0.0,2.0,0.0
1701799032.3608024,4.0,1.0,-6.0,1.0,1.0,-3.0,-1.0,-1.0
1701799032.3608024,-2.0,-3.0,9.0,12.0,4.0,0.0,-9.0,-2.0
1701799032.3608024,1.0,2.0,-8.0,-4.0,-1.0,-2.0,1.0,3.0
1701799032.3804057,-1.0,-1.0,-2.0,1.0,0.0,0.0,-1.0,-2.0
1701799032.3804057,3.0,-4.0,-4.0,-7.0,-4.0,-1.0,-3.0,-9.0
1701799032.3804057,-5.0,-5.0,-3.0,0.0,-4.0,-4.0,-5.0,4.0
1701799032.3804057,4.0,3.0,15.0,2.0,-1.0,0.0,6.0,2.0
1701799032.4007719,0.0,1.0,-6.0,2.0,3.0,2.0,-1.0,1.0
1701799032.4007719,0.0,-2.0,-3.0,-3.0,-2.0,-2.0,-2.0,3.0
1701799032.4007719,1.0,7.0,-11.0,-8.0,-4.0,-2.0,-3.0,-5.0
1701799032.4007719,-4.0,0.0,0.0,-5.0,-1.0,-1.0,0.0,-2.0
1701799032.4204051,3.0,-3.0,-13.0,-12.0,-7.0,-4.0,-1.0,-2.0
1701799032.4204051,-7.0,-4.0,17.0,22.0,10.0,1.0,-1.0,-6.0
1701799032.4204051,2.0,-1.0,-5.0,-5.0,-2.0,-2.0,-1.0,2.0
1701799032.4204051,0.0,-6.0,-13.0,-4.0,-1.0,-2.0,-4.0,1.0
1701799032.4304047,-2.0,1.0,-1.0,-6.0,2.0,1.0,0.0,-1.0
1701799032.4304047,-4.0,1.0,2.0,-5.0,-5.0,0.0,1.0,-3.0
1701799032.440718,-1.0,0.0,11.0,5.0,-9.0,-3.0,-3.0,-2.0
1701799032.440718,0.0,-1.0,-11.0,-11.0,-4.0,0.0,-2.0,0.0
1701799032.4608033,-1.0,-1.0,-9.0,7.0,8.0,2.0,1.0,-1.0
1701799032.4608033,1.0,-1.0,-3.0,-4.0,4.0,1.0,2.0,2.0
1701799032.4608033,-5.0,-5.0,6.0,3.0,-1.0,-2.0,-1.0,-3.0
1701799032.4608033,-3.0,3.0,10.0,-5.0,-1.0,-2.0,-1.0,-4.0
1701799032.4805958,3.0,-1.0,-25.0,-4.0,7.0,-1.0,0.0,-1.0
1701799032.4805958,-1.0,0.0,21.0,21.0,1.0,-3.0,-3.0,-3.0
1701799032.4904053,-1.0,-4.0,-4.0,0.0,-3.0,-1.0,-3.0,3.0
1701799032.4904053,0.0,-4.0,0.0,-16.0,-4.0,-2.0,0.0,-4.0
1701799032.4904053,-5.0,-6.0,-13.0,-3.0,-5.0,-4.0,-1.0,-2.0
1701799032.4904053,-2.0,1.0,-14.0,-6.0,-5.0,1.0,-1.0,0.0
1701799032.5004303,2.0,3.0,-6.0,2.0,5.0,0.0,-1.0,0.0
1701799032.5004303,9.0,-1.0,10.0,8.0,-1.0,-2.0,2.0,0.0
1701799032.520807,-12.0,-2.0,-2.0,-7.0,-8.0,-2.0,-3.0,-10.0
1701799032.520807,-4.0,0.0,-1.0,-6.0,-4.0,-1.0,1.0,6.0
1701799032.520807,0.0,2.0,3.0,-2.0,-2.0,0.0,-1.0,-2.0
1701799032.520807,-1.0,-2.0,-4.0,-2.0,-2.0,-3.0,-4.0,-4.0
1701799032.5404072,3.0,1.0,5.0,7.0,6.0,1.0,-1.0,2.0
1701799032.5404072,4.0,-1.0,3.0,-3.0,1.0,0.0,-1.0,-4.0
1701799032.5404072,2.0,-5.0,-2.0,-6.0,2.0,0.0,-5.0,-12.0
1701799032.5404072,-2.0,-5.0,1.0,13.0,2.0,0.0,7.0,12.0
1701799032.5504384,-6.0,2.0,-14.0,-9.0,-11.0,-7.0,-4.0,-1.0
1701799032.5504384,-1.0,2.0,9.0,-1.0,-4.0,-4.0,-2.0,-4.0
1701799032.5605915,1.0,2.0,-2.0,-11.0,-1.0,0.0,-2.0,-3.0
1701799032.5605915,-3.0,0.0,-11.0,-8.0,-2.0,-1.0,-3.0,-3.0
1701799032.5805738,4.0,-2.0,9.0,7.0,-1.0,1.0,1.0,-1.0
1701799032.5805738,-2.0,-1.0,-10.0,-5.0,-1.0,1.0,0.0,1.0
1701799032.5904064,-4.0,-3.0,0.0,0.0,0.0,-1.0,-2.0,-6.0
1701799032.5904064,-2.0,-3.0,0.0,5.0,-1.0,-1.0,-4.0,-2.0
1701799032.6006932,2.0,1.0,8.0,1.0,-3.0,-1.0,1.0,4.0
1701799032.6006932,-3.0,-2.0,-6.0,1.0,2.0,0.0,2.0,-5.0
1701799032.6006932,-1.0,-1.0,0.0,-9.0,4.0,1.0,-5.0,2.0
1701799032.6006932,-4.0,0.0,7.0,13.0,-4.0,-5.0,-18.0,-8.0
1701799032.6264567,-3.0,-2.0,4.0,9.0,-1.0,0.0,18.0,-6.0
1701799032.6264567,1.0,-1.0,-1.0,-13.0,-2.0,2.0,-1.0,0.0
1701799032.6281948,0.0,-2.0,-18.0,-26.0,-2.0,2.0,2.0,6.0
1701799032.6281948,-2.0,4.0,24.0,45.0,7.0,-3.0,-21.0,-7.0
1701799032.6419675,-1.0,2.0,3.0,-6.0,-2.0,10.0,39.0,8.0
1701799032.6419675,-1.0,1.0,-8.0,-1.0,-1.0,-4.0,-17.0,-5.0
1701799032.6419675,-11.0,0.0,3.0,6.0,2.0,2.0,21.0,16.0
1701799032.6419675,1.0,4.0,-16.0,-31.0,-6.0,0.0,11.0,-2.0
1701799032.661993,-2.0,-2.0,8.0,23.0,6.0,-3.0,-31.0,-17.0
1701799032.661993,2.0,-2.0,-6.0,-22.0,-6.0,-4.0,5.0,18.0
1701799032.661993,13.0,4.0,-2.0,6.0,-2.0,0.0,-7.0,2.0
1701799032.661993,-10.0,-9.0,1.0,-14.0,-4.0,1.0,0.0,5.0
1701799032.6823006,10.0,3.0,-6.0,7.0,2.0,0.0,-6.0,-3.0
1701799032.6823006,-9.0,0.0,11.0,5.0,0.0,0.0,0.0,-12.0
1701799032.6823006,0.0,6.0,12.0,-10.0,-13.0,-9.0,-25.0,-8.0
1701799032.6823006,2.0,4.0,-4.0,-1.0,3.0,2.0,7.0,3.0
1701799032.7019684,-2.0,-2.0,6.0,-10.0,-1.0,4.0,16.0,9.0
1701799032.7019684,1.0,-4.0,-6.0,4.0,1.0,-7.0,-22.0,-10.0
1701799032.711965,-12.0,-4.0,-4.0,6.0,0.0,3.0,1.0,6.0
1701799032.711965,16.0,-3.0,1.0,-5.0,-3.0,2.0,18.0,-2.0
1701799032.7223463,-6.0,-7.0,-2.0,-10.0,-1.0,-1.0,8.0,4.0
1701799032.7223463,9.0,2.0,0.0,6.0,-3.0,1.0,5.0,5.0
1701799032.7323618,-13.0,-2.0,15.0,14.0,8.0,2.0,-2.0,-8.0
1701799032.7323618,-5.0,9.0,-14.0,-6.0,-1.0,-4.0,-14.0,-8.0
1701799032.7427547,-3.0,-7.0,4.0,-1.0,-5.0,-5.0,-21.0,-3.0
1701799032.7427547,-2.0,-3.0,-4.0,12.0,1.0,4.0,5.0,-3.0
1701799032.7427547,12.0,-3.0,10.0,-7.0,-2.0,-1.0,0.0,3.0
1701799032.7427547,-9.0,-3.0,-18.0,-6.0,-1.0,-5.0,-10.0,-18.0
1701799032.7526739,3.0,1.0,-1.0,-9.0,0.0,3.0,2.0,6.0
1701799032.7526739,-2.0,1.0,5.0,4.0,-3.0,-1.0,2.0,4.0
1701799032.7723556,2.0,2.0,-2.0,2.0,-2.0,3.0,12.0,-22.0
1701799032.7723556,-4.0,-10.0,-5.0,1.0,0.0,1.0,6.0,-4.0
1701799032.7923665,-5.0,6.0,15.0,-3.0,-4.0,-10.0,2.0,-4.0
1701799032.7923665,-7.0,-8.0,-34.0,-14.0,-1.0,-3.0,-11.0,-13.0
1701799032.7923665,1.0,4.0,3.0,8.0,0.0,-5.0,-9.0,-3.0
1701799032.7923665,7.0,1.0,2.0,-1.0,0.0,5.0,1.0,12.0
1701799032.802357,-13.0,-4.0,-6.0,-6.0,-1.0,-2.0,-23.0,-5.0
1701799032.802357,2.0,1.0,7.0,-7.0,-2.0,0.0,12.0,8.0
1701799032.8123572,-4.0,-5.0,-2.0,11.0,2.0,0.0,5.0,2.0
1701799032.8123572,1.0,9.0,-2.0,-8.0,-3.0,-2.0,-2.0,0.0
1701799032.8123572,6.0,0.0,0.0,11.0,3.0,1.0,-7.0,0.0
1701799032.8123572,17.0,5.0,-16.0,-12.0,-2.0,2.0,3.0,1.0
1701799032.8223646,-6.0,-2.0,-4.0,-1.0,-3.0,-3.0,-1.0,0.0
1701799032.8223646,-6.0,3.0,2.0,1.0,1.0,2.0,4.0,-1.0
1701799032.8426557,1.0,-3.0,1.0,-2.0,-1.0,1.0,4.0,2.0
1701799032.8426557,-1.0,3.0,-2.0,-2.0,1.0,-2.0,0.0,-3.0
1701799032.8426557,4.0,-1.0,-7.0,6.0,0.0,0.0,-2.0,0.0
1701799032.8426557,-2.0,0.0,21.0,3.0,1.0,-1.0,-4.0,-11.0
1701799032.862427,4.0,1.0,-17.0,5.0,-3.0,-4.0,-7.0,5.0
1701799032.872369,-2.0,-2.0,16.0,-7.0,-3.0,0.0,-2.0,-5.0
1701799032.8823557,-1.0,-4.0,-13.0,-17.0,-3.0,-1.0,3.0,3.0
1701799032.8823557,-5.0,-2.0,7.0,26.0,4.0,0.0,1.0,0.0
1701799032.8823557,-3.0,-3.0,-26.0,-28.0,-3.0,-1.0,-1.0,1.0
1701799032.8823557,-3.0,-2.0,18.0,-3.0,-2.0,-1.0,-1.0,-2.0
1701799032.8823557,-3.0,1.0,-9.0,23.0,-3.0,-5.0,-3.0,0.0
1701799032.8823557,0.0,-7.0,-34.0,-13.0,0.0,-1.0,1.0,1.0
1701799032.9026644,4.0,0.0,21.0,2.0,-3.0,-3.0,-10.0,-10.0
1701799032.9026644,-5.0,-1.0,-8.0,0.0,-5.0,-3.0,3.0,11.0
1701799032.9026644,-1.0,4.0,7.0,-8.0,2.0,2.0,3.0,0.0
1701799032.9026644,1.0,-5.0,9.0,-7.0,-9.0,-4.0,-2.0,3.0
1701799032.932358,7.0,-2.0,-16.0,-3.0,8.0,0.0,-1.0,-1.0
1701799032.932358,-9.0,-4.0,3.0,11.0,5.0,-1.0,-5.0,-6.0
1701799032.932358,-1.0,3.0,3.0,-6.0,-7.0,-3.0,2.0,6.0
1701799032.932358,-2.0,-5.0,6.0,6.0,5.0,-2.0,-3.0,-5.0
1701799032.932358,0.0,3.0,5.0,-20.0,-13.0,-3.0,3.0,8.0
1701799032.932358,-1.0,-4.0,-11.0,2.0,-4.0,-1.0,-1.0,-3.0
1701799032.9423606,8.0,1.0,2.0,-7.0,-6.0,-3.0,-2.0,-3.0
1701799032.9423606,0.0,-2.0,-17.0,-2.0,10.0,2.0,3.0,7.0
1701799032.9625442,1.0,-1.0,8.0,20.0,5.0,2.0,0.0,-1.0
1701799032.9625442,-3.0,7.0,0.0,-9.0,2.0,-1.0,-1.0,-1.0
1701799032.9625442,-1.0,-4.0,5.0,6.0,0.0,-2.0,-1.0,-1.0
1701799032.9625442,-2.0,-5.0,-1.0,-14.0,-7.0,-4.0,-2.0,-1.0
1701799032.9923635,-1.0,4.0,21.0,10.0,-1.0,-2.0,-2.0,-2.0
1701799032.9923635,2.0,-6.0,-12.0,2.0,-2.0,-2.0,0.0,3.0
1701799033.012356,-8.0,-5.0,-2.0,-12.0,0.0,1.0,-1.0,-7.0
1701799033.012356,9.0,6.0,22.0,25.0,-3.0,-4.0,-3.0,1.0
1701799033.012356,-18.0,-3.0,-20.0,-7.0,1.0,-1.0,-2.0,0.0
1701799033.012356,-4.0,-9.0,10.0,2.0,-3.0,1.0,-1.0,-4.0
1701799033.012356,5.0,7.0,7.0,-4.0,-1.0,0.0,0.0,0.0
1701799033.012356,-1.0,-9.0,-15.0,-14.0,-2.0,-2.0,1.0,0.0
1701799033.0226674,1.0,5.0,15.0,20.0,2.0,1.0,-3.0,-4.0
1701799033.0226674,2.0,-1.0,-3.0,-2.0,-3.0,-2.0,0.0,0.0
1701799033.0226674,-7.0,-2.0,9.0,22.0,6.0,0.0,1.0,-6.0
1701799033.0226674,-10.0,-17.0,-50.0,-43.0,-12.0,-4.0,-3.0,1.0
1701799033.0423555,2.0,2.0,1.0,6.0,2.0,0.0,-3.0,-2.0
1701799033.0423555,-4.0,-2.0,4.0,-4.0,0.0,-2.0,-1.0,1.0
1701799033.0423555,-8.0,0.0,8.0,10.0,4.0,3.0,6.0,-11.0
1701799033.0423555,-4.0,5.0,19.0,6.0,-3.0,-3.0,-6.0,-9.0
1701799033.0626578,-2.0,-4.0,-2.0,-2.0,-3.0,-2.0,-3.0,-4.0
1701799033.0626578,-11.0,-15.0,-26.0,-13.0,-4.0,-6.0,-9.0,-5.0
1701799033.0626578,-2.0,2.0,8.0,4.0,0.0,-4.0,-3.0,13.0
1701799033.0626578,12.0,14.0,-1.0,-8.0,3.0,4.0,-4.0,-16.0
1701799033.0826085,14.0,2.0,1.0,5.0,0.0,-1.0,4.0,11.0
1701799033.0826085,-10.0,-4.0,21.0,7.0,-1.0,0.0,2.0,-13.0
1701799033.0923774,1.0,10.0,-20.0,-14.0,-5.0,-1.0,-2.0,-3.0
1701799033.0923774,-11.0,-1.0,-10.0,-13.0,0.0,-2.0,4.0,-5.0
1701799033.1024022,5.0,4.0,2.0,5.0,1.0,-5.0,-4.0,4.0
1701799033.1024022,6.0,3.0,22.0,-2.0,-3.0,1.0,-3.0,-6.0
1701799033.1123583,0.0,-4.0,-31.0,-12.0,-3.0,-2.0,-1.0,8.0
1701799033.1123583,2.0,5.0,66.0,31.0,6.0,6.0,4.0,3.0
1701799033.1123583,-1.0,-1.0,-39.0,-19.0,-8.0,-4.0,-3.0,-8.0
1701799033.1123583,5.0,5.0,-1.0,0.0,-2.0,-2.0,0.0,10.0
1701799033.1223896,-2.0,-2.0,-15.0,-11.0,-2.0,-1.0,-2.0,-4.0
1701799033.1223896,1.0,-1.0,27.0,25.0,0.0,1.0,2.0,9.0
1701799033.1434639,-5.0,-8.0,-8.0,-16.0,-1.0,2.0,3.0,2.0
1701799033.1444633,-1.0,6.0,-7.0,-1.0,-5.0,-2.0,-3.0,0.0
1701799033.1627555,6.0,-1.0,-3.0,7.0,0.0,-3.0,-10.0,-8.0
1701799033.1627555,-6.0,-3.0,-12.0,-11.0,-2.0,1.0,7.0,6.0
1701799033.166226,-3.0,3.0,13.0,9.0,-2.0,1.0,2.0,-2.0
1701799033.1672819,6.0,11.0,3.0,25.0,4.0,3.0,0.0,2.0
1701799033.169318,-14.0,1.0,-7.0,-42.0,-5.0,-2.0,-1.0,-4.0
1701799033.169318,13.0,-22.0,-14.0,-7.0,-8.0,-4.0,-3.0,-2.0
1701799033.1750162,-17.0,-12.0,3.0,10.0,8.0,1.0,-9.0,-20.0
1701799033.1750162,9.0,11.0,6.0,7.0,-1.0,1.0,3.0,15.0
1701799033.1851964,-4.0,1.0,13.0,-2.0,-16.0,-4.0,4.0,8.0
1701799033.1851964,-4.0,11.0,-20.0,-13.0,19.0,6.0,1.0,4.0
1701799033.205018,0.0,-20.0,-6.0,-28.0,-7.0,-3.0,-1.0,-4.0
1701799033.205018,-1.0,-2.0,-9.0,25.0,6.0,-2.0,-3.0,-15.0
1701799033.205018,4.0,26.0,35.0,30.0,-1.0,-1.0,-4.0,-12.0
1701799033.205018,-4.0,-42.0,-63.0,-36.0,-8.0,-3.0,1.0,12.0
1701799033.2250125,-9.0,-14.0,-6.0,39.0,-1.0,-1.0,-1.0,-6.0
1701799033.2250125,-12.0,-10.0,-11.0,-51.0,-13.0,-9.0,-7.0,-10.0
1701799033.2250125,7.0,-2.0,-1.0,5.0,-1.0,-2.0,-1.0,3.0
1701799033.2250125,-2.0,26.0,28.0,17.0,-1.0,-2.0,-4.0,-5.0
1701799033.2454133,7.0,5.0,1.0,-12.0,0.0,1.0,1.0,7.0
1701799033.2454133,-3.0,-1.0,-7.0,-15.0,-3.0,1.0,1.0,0.0
1701799033.2454133,5.0,-3.0,-9.0,4.0,6.0,1.0,-3.0,-6.0
1701799033.2454133,-4.0,1.0,7.0,3.0,-1.0,-2.0,-5.0,-9.0
1701799033.2550848,-1.0,8.0,4.0,-6.0,-3.0,0.0,2.0,4.0
1701799033.2550848,-1.0,-7.0,8.0,6.0,-3.0,-3.0,-6.0,-2.0
1701799033.2650135,3.0,-9.0,-3.0,7.0,3.0,2.0,2.0,-3.0
1701799033.2650135,0.0,2.0,-4.0,1.0,0.0,0.0,9.0,2.0
1701799033.2950113,-8.0,6.0,-8.0,-4.0,-4.0,-3.0,0.0,-13.0
1701799033.2950113,5.0,9.0,13.0,4.0,1.0,0.0,-2.0,10.0
1701799033.2950113,-4.0,-17.0,-14.0,-7.0,0.0,-2.0,-2.0,1.0
1701799033.2950113,-1.0,3.0,-1.0,0.0,-7.0,-3.0,-4.0,1.0
1701799033.2950113,5.0,3.0,-8.0,-12.0,2.0,-2.0,-22.0,-4.0
1701799033.2950113,-4.0,-10.0,3.0,4.0,2.0,1.0,14.0,2.0
1701799033.3153417,6.0,2.0,7.0,-2.0,3.0,5.0,8.0,-1.0
1701799033.3153417,-11.0,3.0,-5.0,2.0,-4.0,-4.0,-1.0,-1.0
1701799033.3153417,2.0,4.0,46.0,7.0,-2.0,-1.0,1.0,-3.0
1701799033.3153417,-2.0,-11.0,-15.0,-6.0,0.0,-3.0,-6.0,2.0
1701799033.3250144,12.0,-15.0,-63.0,-13.0,2.0,0.0,-2.0,3.0
1701799033.3250144,-8.0,15.0,36.0,8.0,-1.0,-3.0,-2.0,-7.0
1701799033.3453343,-3.0,-3.0,-4.0,-6.0,0.0,-1.0,-3.0,3.0
1701799033.3453343,-3.0,-26.0,9.0,-8.0,-3.0,-1.0,0.0,5.0
1701799033.3453343,7.0,13.0,13.0,-3.0,1.0,-1.0,4.0,-1.0
1701799033.3453343,-4.0,-11.0,5.0,4.0,-5.0,-2.0,-4.0,8.0
1701799033.3553734,-3.0,2.0,-13.0,6.0,1.0,-4.0,1.0,-2.0
1701799033.3553734,4.0,11.0,1.0,0.0,3.0,4.0,7.0,3.0
1701799033.3653364,-13.0,-6.0,-7.0,-13.0,-4.0,0.0,4.0,8.0
1701799033.3653364,3.0,-5.0,2.0,16.0,0.0,-3.0,-7.0,-6.0
1701799033.3850133,0.0,3.0,10.0,4.0,-2.0,0.0,-4.0,-4.0
1701799033.3850133,-6.0,4.0,-17.0,-14.0,-2.0,-2.0,6.0,4.0
1701799033.3850133,-8.0,-2.0,11.0,1.0,1.0,-3.0,-9.0,-9.0
1701799033.3850133,5.0,1.0,-8.0,3.0,-1.0,1.0,-2.0,-3.0
1701799033.4054143,-3.0,-5.0,-1.0,4.0,-1.0,2.0,20.0,6.0
1701799033.4054143,2.0,8.0,6.0,10.0,1.0,-2.0,-10.0,-9.0
1701799033.4150152,-3.0,-11.0,-18.0,-21.0,-2.0,0.0,-3.0,1.0
1701799033.4150152,-1.0,4.0,-1.0,1.0,-1.0,-1.0,8.0,0.0
1701799033.4150152,1.0,-3.0,15.0,8.0,-1.0,-2.0,-6.0,-1.0
1701799033.4150152,-3.0,-4.0,-36.0,-11.0,-4.0,1.0,1.0,-5.0
1701799033.4350135,-2.0,6.0,23.0,22.0,-4.0,-2.0,-1.0,3.0
1701799033.4350135,8.0,-9.0,-3.0,-8.0,1.0,0.0,-6.0,-5.0
1701799033.4450111,-1.0,2.0,-11.0,-15.0,-5.0,-5.0,1.0,4.0
1701799033.4450111,0.0,2.0,7.0,9.0,3.0,-1.0,1.0,-2.0
1701799033.4450111,2.0,-5.0,-8.0,1.0,-1.0,-2.0,-5.0,-1.0
1701799033.4450111,-1.0,8.0,12.0,-1.0,-2.0,0.0,2.0,-4.0
1701799033.465414,-1.0,1.0,9.0,6.0,-3.0,0.0,1.0,1.0
1701799033.465414,1.0,1.0,-9.0,0.0,-1.0,0.0,-4.0,-2.0
1701799033.4750154,-5.0,-5.0,3.0,2.0,-1.0,-1.0,-4.0,-4.0
1701799033.4750154,-1.0,-3.0,-12.0,-12.0,-2.0,1.0,1.0,0.0
1701799033.4750154,0.0,-2.0,-2.0,-2.0,-1.0,0.0,-2.0,5.0
1701799033.4750154,-1.0,-1.0,1.0,1.0,0.0,3.0,9.0,-2.0
1701799033.4853346,-2.0,-4.0,-9.0,-3.0,0.0,-1.0,0.0,1.0
1701799033.4853346,-1.0,-1.0,-3.0,5.0,-1.0,-3.0,-3.0,-3.0
1701799033.4953167,-2.0,-1.0,-11.0,-9.0,-3.0,-2.0,1.0,1.0
1701799033.4953167,0.0,-6.0,0.0,1.0,4.0,0.0,-4.0,-2.0
1701799033.5050154,-4.0,0.0,10.0,-1.0,-1.0,-3.0,-2.0,-4.0
1701799033.5050154,2.0,0.0,11.0,2.0,-4.0,-2.0,-5.0,4.0
1701799033.525179,12.0,-5.0,-13.0,-4.0,-4.0,-1.0,-1.0,5.0
1701799033.525179,0.0,5.0,-4.0,-4.0,-2.0,-2.0,-1.0,-1.0
1701799033.525179,-1.0,-1.0,8.0,4.0,-1.0,-2.0,3.0,-2.0
1701799033.525179,-5.0,0.0,-15.0,-5.0,2.0,0.0,-4.0,-3.0
1701799033.545309,2.0,3.0,-6.0,-3.0,-1.0,-1.0,-1.0,-5.0
1701799033.545309,0.0,2.0,12.0,-2.0,-3.0,-1.0,-2.0,-3.0
1701799033.545309,3.0,-4.0,-14.0,4.0,0.0,0.0,-2.0,5.0
1701799033.545309,0.0,2.0,-4.0,-2.0,-5.0,-4.0,-1.0,-3.0
1701799033.5850945,0.0,-3.0,1.0,-12.0,-4.0,-3.0,2.0,3.0
1701799033.5850945,-4.0,0.0,18.0,26.0,10.0,4.0,-5.0,-4.0
1701799033.5850945,1.0,2.0,30.0,0.0,-3.0,-1.0,-4.0,-5.0
1701799033.5850945,-2.0,-9.0,-47.0,-6.0,-3.0,-1.0,5.0,4.0
1701799033.5850945,-4.0,-3.0,-4.0,-6.0,-1.0,0.0,2.0,1.0
1701799033.5850945,-2.0,-1.0,-21.0,-7.0,-3.0,-11.0,-37.0,-4.0
1701799033.5850945,0.0,5.0,24.0,24.0,2.0,10.0,56.0,17.0
1701799033.5850945,-1.0,4.0,17.0,-2.0,-1.0,0.0,0.0,1.0
1701799033.6151059,-4.0,1.0,-6.0,-14.0,-5.0,1.0,15.0,-12.0
1701799033.6151059,1.0,1.0,-1.0,-5.0,-9.0,-5.0,7.0,7.0
1701799033.6151059,-4.0,-13.0,-9.0,2.0,0.0,-8.0,-30.0,-4.0
1701799033.6151059,-3.0,0.0,-1.0,-9.0,1.0,-3.0,-1.0,8.0
1701799033.6251097,1.0,6.0,1.0,35.0,5.0,-1.0,0.0,2.0
1701799033.6251097,2.0,0.0,7.0,-14.0,-1.0,-1.0,-9.0,-7.0
1701799033.6251097,-1.0,3.0,-10.0,-8.0,3.0,-2.0,-7.0,-10.0
1701799033.6251097,0.0,-3.0,-3.0,5.0,-2.0,0.0,-1.0,-7.0
1701799033.645433,-3.0,-1.0,16.0,3.0,-1.0,-5.0,-24.0,-15.0
1701799033.645433,-1.0,0.0,1.0,5.0,-1.0,5.0,31.0,17.0
1701799033.645433,-2.0,1.0,-13.0,-14.0,-7.0,-5.0,-17.0,-8.0
1701799033.645433,-1.0,3.0,10.0,9.0,0.0,1.0,12.0,0.0
1701799033.6651082,2.0,-1.0,-3.0,-9.0,2.0,-1.0,-14.0,-4.0
1701799033.6651082,-2.0,-2.0,-3.0,1.0,-2.0,-1.0,12.0,-4.0
1701799033.6651082,-6.0,-4.0,-11.0,-4.0,3.0,1.0,-3.0,-6.0
1701799033.6651082,0.0,0.0,8.0,0.0,-1.0,-5.0,-26.0,-9.0
1701799033.6833975,-3.0,-4.0,-7.0,-10.0,-6.0,-4.0,5.0,3.0
1701799033.6833975,-2.0,-3.0,-13.0,8.0,4.0,2.0,5.0,1.0
1701799033.690465,4.0,2.0,8.0,-10.0,1.0,-1.0,0.0,0.0
1701799033.690465,2.0,0.0,-14.0,-23.0,-2.0,3.0,4.0,3.0
1701799033.7074301,-18.0,-4.0,6.0,15.0,-5.0,-4.0,-4.0,-1.0
1701799033.7074301,0.0,0.0,12.0,21.0,0.0,-1.0,-10.0,-6.0
1701799033.7174273,6.0,-2.0,-11.0,6.0,0.0,-2.0,-5.0,-1.0
1701799033.7174273,-12.0,-3.0,-17.0,-12.0,-1.0,-2.0,-1.0,2.0
1701799033.727758,6.0,-4.0,-10.0,-21.0,1.0,2.0,-5.0,-1.0
1701799033.727758,0.0,8.0,9.0,-2.0,0.0,-2.0,-7.0,-3.0
1701799033.727758,4.0,-6.0,12.0,7.0,-3.0,-4.0,-2.0,-4.0
1701799033.727758,5.0,-2.0,-12.0,-2.0,6.0,6.0,13.0,12.0
1701799033.737748,-10.0,-24.0,-3.0,0.0,-10.0,-7.0,-17.0,-6.0
1701799033.737748,-4.0,4.0,5.0,-3.0,-2.0,0.0,20.0,1.0
1701799033.7474592,-2.0,-7.0,-68.0,-21.0,-6.0,-2.0,-4.0,-2.0
1701799033.7474592,4.0,6.0,57.0,26.0,2.0,-2.0,-5.0,-9.0
1701799033.7577322,2.0,6.0,-31.0,-21.0,-4.0,0.0,7.0,3.0
1701799033.7577322,-3.0,-7.0,-2.0,22.0,-3.0,-4.0,-18.0,-6.0
1701799033.7674296,-2.0,7.0,21.0,-7.0,0.0,-4.0,-19.0,-5.0
1701799033.7674296,2.0,-5.0,5.0,11.0,3.0,9.0,34.0,5.0
1701799033.787669,-1.0,1.0,-23.0,8.0,4.0,-5.0,-32.0,-8.0
1701799033.787669,-2.0,-5.0,13.0,-19.0,-2.0,3.0,15.0,9.0
1701799033.787669,2.0,5.0,-6.0,-3.0,-1.0,2.0,15.0,2.0
1701799033.787669,-2.0,0.0,13.0,15.0,-2.0,-3.0,-9.0,1.0
1701799033.7976801,4.0,-2.0,-20.0,-26.0,-6.0,5.0,34.0,6.0
1701799033.7976801,-4.0,-1.0,-7.0,-11.0,-6.0,-9.0,-24.0,-13.0
1701799033.807628,0.0,2.0,21.0,11.0,2.0,-2.0,-10.0,-1.0
1701799033.807628,13.0,4.0,-5.0,8.0,-1.0,-2.0,-5.0,-8.0
1701799033.827436,-3.0,15.0,24.0,1.0,-1.0,-2.0,5.0,10.0
1701799033.827436,-4.0,-18.0,-19.0,-3.0,4.0,1.0,-6.0,-1.0
1701799033.8474317,0.0,-9.0,6.0,-2.0,-6.0,-1.0,7.0,-3.0
1701799033.8474317,1.0,0.0,-20.0,-11.0,-4.0,-2.0,-12.0,-1.0
1701799033.8574266,5.0,-2.0,22.0,21.0,6.0,-3.0,-19.0,-15.0
1701799033.8574266,5.0,12.0,16.0,-12.0,1.0,3.0,-1.0,13.0
1701799033.8574266,-4.0,-3.0,-4.0,2.0,1.0,9.0,49.0,6.0
1701799033.8574266,7.0,1.0,1.0,-1.0,-2.0,0.0,7.0,4.0
1701799033.8674717,-6.0,3.0,4.0,3.0,1.0,-5.0,-6.0,-5.0
1701799033.8674717,-8.0,3.0,-22.0,-15.0,-5.0,-2.0,-12.0,-3.0
1701799033.8774292,5.0,-6.0,-5.0,2.0,-1.0,0.0,-1.0,3.0
1701799033.8774292,2.0,3.0,23.0,-10.0,-7.0,-5.0,-10.0,-5.0
1701799033.8774292,-24.0,-6.0,15.0,23.0,5.0,3.0,9.0,2.0
1701799033.8774292,2.0,-4.0,8.0,-6.0,-6.0,-5.0,-7.0,-11.0
1701799033.8874314,-1.0,-5.0,-18.0,-7.0,0.0,-8.0,-29.0,3.0
1701799033.8874314,-9.0,-3.0,0.0,10.0,-3.0,0.0,0.0,2.0
1701799033.907721,26.0,25.0,42.0,5.0,3.0,5.0,12.0,8.0
1701799033.907721,-21.0,-24.0,-36.0,-1.0,-2.0,1.0,27.0,-5.0
1701799033.907721,-1.0,10.0,10.0,3.0,2.0,3.0,0.0,3.0
1701799033.907721,-6.0,-10.0,-32.0,-17.0,-5.0,-9.0,-23.0,-13.0
1701799033.9274316,6.0,14.0,13.0,8.0,5.0,4.0,-1.0,1.0
1701799033.9274316,2.0,-3.0,-13.0,1.0,4.0,3.0,8.0,-1.0
1701799033.9274316,1.0,-5.0,1.0,-7.0,-8.0,-8.0,-16.0,-6.0
1701799033.9274316,2.0,-3.0,-3.0,6.0,2.0,-1.0,-6.0,-4.0
1701799033.9474287,-11.0,-6.0,-12.0,-7.0,-3.0,4.0,12.0,5.0
1701799033.9474287,10.0,6.0,10.0,7.0,-1.0,0.0,0.0,-2.0
1701799033.9474287,-11.0,-5.0,-10.0,-9.0,-1.0,-4.0,-8.0,-5.0
1701799033.9474287,-3.0,-3.0,-4.0,-5.0,-3.0,-1.0,-3.0,1.0
1701799033.967824,5.0,-6.0,-9.0,-2.0,-3.0,0.0,2.0,-2.0
1701799033.967824,1.0,1.0,5.0,8.0,0.0,-2.0,-7.0,-2.0
1701799033.967824,-2.0,5.0,8.0,8.0,0.0,1.0,2.0,0.0
1701799033.967824,-15.0,-1.0,12.0,-10.0,-2.0,-1.0,5.0,-5.0
1701799033.9777796,7.0,-6.0,-14.0,-8.0,-1.0,-4.0,-5.0,-2.0
1701799033.9777796,3.0,5.0,11.0,0.0,-1.0,-3.0,-5.0,2.0
1701799033.9874792,-4.0,-6.0,-14.0,-3.0,1.0,1.0,0.0,0.0
1701799033.9874792,-2.0,-1.0,-12.0,-10.0,-1.0,-1.0,-1.0,-9.0
1701799033.9974291,7.0,-5.0,-13.0,-4.0,-1.0,-3.0,-3.0,-2.0
1701799033.9974291,2.0,-1.0,8.0,-10.0,-3.0,-1.0,-1.0,10.0
1701799034.0074377,-17.0,-8.0,19.0,31.0,0.0,-2.0,-2.0,-11.0
1701799034.0074377,-4.0,1.0,-4.0,-22.0,-1.0,1.0,-3.0,-6.0
1701799034.0278099,-1.0,-3.0,-13.0,5.0,3.0,2.0,-2.0,-1.0
1701799034.0278099,5.0,4.0,10.0,15.0,0.0,-2.0,-1.0,-3.0
1701799034.0278099,3.0,3.0,1.0,-15.0,-8.0,-1.0,-1.0,2.0
1701799034.0278099,-2.0,-1.0,3.0,10.0,0.0,-1.0,0.0,-3.0
1701799034.037765,-12.0,-5.0,-4.0,-12.0,-5.0,-2.0,-1.0,-1.0
1701799034.037765,-8.0,2.0,9.0,22.0,8.0,2.0,-1.0,-7.0
1701799034.0474527,1.0,-3.0,-20.0,-2.0,1.0,-2.0,-3.0,0.0
1701799034.0474527,-1.0,-3.0,2.0,7.0,-1.0,-1.0,-2.0,4.0
1701799034.0874267,2.0,-7.0,8.0,-6.0,-5.0,1.0,2.0,5.0
1701799034.0874267,-3.0,-2.0,1.0,-4.0,-7.0,-3.0,-4.0,-2.0
1701799034.0874267,2.0,3.0,2.0,1.0,3.0,1.0,1.0,3.0
1701799034.0874267,2.0,-1.0,-6.0,8.0,1.0,0.0,1.0,1.0
1701799034.0874267,-1.0,0.0,-11.0,-13.0,-5.0,0.0,-5.0,-9.0
1701799034.0874267,16.0,-3.0,7.0,-19.0,-4.0,0.0,5.0,4.0
1701799034.0874267,-13.0,-4.0,-32.0,0.0,-3.0,-2.0,8.0,17.0
1701799034.0874267,-1.0,1.0,15.0,6.0,0.0,-2.0,0.0,-1.0
1701799034.0974286,-6.0,-3.0,11.0,10.0,3.0,-1.0,-4.0,1.0
1701799034.0974286,2.0,3.0,-2.0,-1.0,-1.0,-1.0,-5.0,-8.0
1701799034.1074615,6.0,-3.0,5.0,-10.0,-4.0,-3.0,-5.0,-8.0
1701799034.1074615,0.0,-3.0,-16.0,-12.0,-5.0,1.0,2.0,4.0
1701799034.1274354,1.0,2.0,-2.0,7.0,2.0,-2.0,-2.0,-5.0
1701799034.1274354,-1.0,-1.0,0.0,0.0,-2.0,-1.0,-2.0,2.0
1701799034.1274354,-8.0,-1.0,2.0,-21.0,1.0,-1.0,0.0,-1.0
1701799034.1274354,2.0,2.0,-11.0,9.0,-3.0,-2.0,-2.0,-2.0
1701799034.1477249,-2.0,-8.0,3.0,-7.0,-5.0,-3.0,-2.0,2.0
1701799034.1477249,-5.0,2.0,-2.0,-8.0,-2.0,0.0,0.0,1.0
1701799034.1477249,2.0,4.0,21.0,12.0,3.0,0.0,-3.0,-2.0
1701799034.1477249,-3.0,-2.0,-10.0,3.0,2.0,-2.0,-2.0,-7.0
1701799034.1874273,0.0,0.0,3.0,-3.0,-2.0,1.0,2.0,11.0
1701799034.1874273,0.0,-5.0,-36.0,-8.0,-1.0,-1.0,-2.0,1.0
1701799034.1874273,0.0,3.0,8.0,5.0,-3.0,-1.0,-2.0,-5.0
1701799034.1874273,-6.0,-4.0,-5.0,-12.0,-3.0,-2.0,-4.0,1.0
1701799034.1874273,0.0,-2.0,5.0,9.0,0.0,-3.0,0.0,1.0
1701799034.1874273,-4.0,3.0,-6.0,-2.0,0.0,0.0,0.0,1.0
1701799034.1874273,4.0,1.0,23.0,0.0,-1.0,-2.0,-5.0,-1.0
1701799034.1874273,-8.0,-4.0,-16.0,7.0,1.0,0.0,5.0,4.0
1701799034.209082,-11.0,-7.0,-9.0,-4.0,-1.0,0.0,-3.0,-10.0
1701799034.209082,-4.0,-1.0,1.0,-3.0,-3.0,1.0,-1.0,1.0
1701799034.2100792,0.0,2.0,4.0,-8.0,-4.0,-1.0,-1.0,-4.0
1701799034.2100792,4.0,-3.0,10.0,11.0,-3.0,0.0,-1.0,-1.0
1701799034.223722,0.0,-2.0,-5.0,4.0,2.0,-3.0,0.0,-2.0
1701799034.223722,-2.0,-3.0,-4.0,-2.0,0.0,-2.0,-2.0,-4.0
1701799034.223722,1.0,0.0,-3.0,4.0,2.0,0.0,-1.0,-1.0
1701799034.223722,1.0,-1.0,-6.0,-12.0,-3.0,-1.0,-1.0,-1.0
1701799034.244031,3.0,2.0,-3.0,-3.0,-2.0,1.0,1.0,-3.0
1701799034.244031,-10.0,-3.0,3.0,-5.0,-5.0,-3.0,-3.0,-7.0
1701799034.244031,-1.0,3.0,6.0,6.0,1.0,0.0,-1.0,-2.0
1701799034.244031,0.0,1.0,2.0,-6.0,1.0,-3.0,-3.0,0.0
1701799034.264049,2.0,4.0,1.0,5.0,0.0,3.0,-1.0,-5.0
1701799034.264049,-1.0,-6.0,-1.0,-5.0,-2.0,-2.0,-1.0,-2.0
1701799034.264049,-3.0,-8.0,-21.0,-5.0,-4.0,-1.0,0.0,-1.0
1701799034.264049,-3.0,5.0,15.0,1.0,-2.0,-3.0,-2.0,-3.0
1701799034.2837238,-1.0,2.0,1.0,2.0,-1.0,-1.0,-5.0,-5.0
1701799034.2837238,3.0,1.0,-3.0,2.0,1.0,0.0,1.0,6.0
1701799034.293724,2.0,2.0,1.0,7.0,-2.0,-1.0,0.0,-2.0
1701799034.293724,1.0,1.0,-6.0,-7.0,3.0,0.0,2.0,5.0
1701799034.3040886,-1.0,-1.0,-1.0,0.0,-6.0,-5.0,-3.0,-6.0
1701799034.3040886,6.0,-3.0,16.0,2.0,1.0,0.0,-1.0,-2.0
1701799034.3040886,-1.0,-1.0,-6.0,-3.0,-1.0,-2.0,-5.0,-4.0
1701799034.3040886,3.0,1.0,-1.0,-3.0,-1.0,1.0,7.0,11.0
1701799034.3237243,0.0,-2.0,3.0,-5.0,-1.0,-1.0,-1.0,5.0
1701799034.3237243,-1.0,2.0,-7.0,-3.0,-1.0,0.0,-2.0,-2.0
1701799034.3237243,2.0,-2.0,2.0,1.0,-3.0,-4.0,-2.0,1.0
1701799034.3237243,-1.0,-4.0,-2.0,0.0,1.0,1.0,-4.0,-4.0
1701799034.3337576,-2.0,-1.0,-6.0,-3.0,0.0,1.0,-1.0,0.0
1701799034.3337576,-1.0,1.0,5.0,2.0,-3.0,-2.0,0.0,-2.0
1701799034.3439822,-3.0,-3.0,-13.0,-4.0,-1.0,0.0,-2.0,-1.0
1701799034.3439822,-1.0,-1.0,0.0,-1.0,-4.0,-5.0,-4.0,-5.0
1701799034.3638046,-1.0,-1.0,-5.0,-4.0,-3.0,-2.0,2.0,1.0
1701799034.3638046,1.0,4.0,4.0,1.0,-1.0,-3.0,-3.0,-4.0
1701799034.3638046,1.0,3.0,1.0,-1.0,-2.0,-1.0,-1.0,1.0
1701799034.3638046,5.0,-7.0,-6.0,-3.0,0.0,0.0,2.0,0.0
1701799034.3840816,-4.0,-1.0,-2.0,-1.0,0.0,-1.0,-3.0,-3.0
1701799034.3840816,-11.0,-8.0,-10.0,-4.0,-1.0,-3.0,-9.0,-27.0
1701799034.3840816,1.0,2.0,-3.0,-3.0,-1.0,-1.0,3.0,11.0
1701799034.3840816,0.0,3.0,8.0,2.0,-2.0,-1.0,-3.0,0.0
1701799034.4037237,4.0,-3.0,-12.0,-12.0,-1.0,-4.0,0.0,0.0
1701799034.4037237,-5.0,-1.0,5.0,14.0,0.0,1.0,0.0,3.0
1701799034.4037237,-5.0,-3.0,-6.0,-5.0,-2.0,-2.0,-2.0,-6.0
1701799034.4037237,2.0,0.0,-1.0,-3.0,-2.0,-2.0,-4.0,-4.0
1701799034.4240913,-4.0,-2.0,4.0,0.0,-1.0,0.0,3.0,3.0
1701799034.4240913,1.0,0.0,-5.0,-6.0,-1.0,-2.0,-1.0,1.0
1701799034.4240913,2.0,-2.0,1.0,0.0,-1.0,-2.0,-1.0,-3.0
1701799034.4240913,2.0,2.0,-3.0,4.0,1.0,0.0,0.0,2.0
1701799034.4537573,3.0,1.0,-2.0,-2.0,-1.0,-1.0,-3.0,-4.0
1701799034.4537573,2.0,7.0,-9.0,-3.0,-2.0,-1.0,0.0,-4.0
1701799034.4537573,-6.0,-4.0,6.0,-3.0,-1.0,0.0,0.0,-5.0
1701799034.4537573,-5.0,-4.0,0.0,4.0,-2.0,-3.0,-3.0,-4.0
1701799034.4640682,-1.0,-1.0,2.0,1.0,0.0,-1.0,-3.0,-1.0
1701799034.4640682,0.0,-1.0,-4.0,-6.0,-5.0,-2.0,-3.0,-5.0
1701799034.4640682,-1.0,2.0,4.0,0.0,1.0,2.0,3.0,0.0
1701799034.4640682,-3.0,-3.0,-3.0,-3.0,-2.0,-1.0,-2.0,-2.0
1701799034.4838047,-2.0,-2.0,-4.0,0.0,-2.0,0.0,0.0,1.0
1701799034.4838047,-1.0,0.0,0.0,1.0,-1.0,-2.0,2.0,7.0
1701799034.4937243,-1.0,0.0,1.0,-3.0,2.0,-1.0,-1.0,-2.0
1701799034.4937243,-2.0,-9.0,-7.0,7.0,-1.0,-1.0,-2.0,1.0
1701799034.5039115,-11.0,7.0,7.0,-4.0,-2.0,-1.0,2.0,5.0
1701799034.5039115,-1.0,-2.0,-10.0,-6.0,-1.0,0.0,-3.0,-2.0
1701799034.5039115,-3.0,-3.0,2.0,3.0,-2.0,-2.0,-1.0,-3.0
1701799034.5039115,-1.0,2.0,4.0,-5.0,-1.0,-1.0,-1.0,-1.0
1701799034.5240154,5.0,-2.0,0.0,5.0,-3.0,-1.0,-1.0,1.0
1701799034.5240154,1.0,-3.0,-4.0,-5.0,2.0,-1.0,-1.0,3.0
1701799034.5337312,-3.0,1.0,0.0,1.0,0.0,1.0,-2.0,-2.0
1701799034.5337312,4.0,4.0,-1.0,-2.0,-1.0,-2.0,-2.0,-1.0
1701799034.5438,-2.0,-6.0,-2.0,-1.0,0.0,0.0,0.0,-1.0
1701799034.5438,1.0,-4.0,8.0,1.0,-2.0,-1.0,0.0,1.0
1701799034.5637262,-9.0,0.0,-16.0,-4.0,-4.0,-2.0,-2.0,4.0
1701799034.5637262,-7.0,-5.0,-9.0,-2.0,-3.0,1.0,1.0,-4.0
1701799034.5737236,4.0,3.0,4.0,1.0,0.0,-2.0,-3.0,-3.0
1701799034.5737236,-2.0,-3.0,1.0,2.0,4.0,0.0,-1.0,3.0
1701799034.5737236,2.0,-1.0,2.0,0.0,-2.0,-3.0,-4.0,3.0
1701799034.5737236,-1.0,0.0,-3.0,-4.0,-1.0,0.0,1.0,-1.0
1701799034.5838883,-3.0,-1.0,-1.0,-5.0,-4.0,-1.0,-1.0,-2.0
1701799034.5838883,3.0,0.0,-7.0,2.0,0.0,0.0,1.0,-1.0
1701799034.5838883,-1.0,-4.0,-1.0,0.0,-3.0,0.0,-2.0,-2.0
1701799034.5838883,-3.0,2.0,-10.0,-8.0,-3.0,-2.0,-1.0,-2.0
1701799034.60378,1.0,-5.0,2.0,3.0,0.0,-1.0,-1.0,-4.0
1701799034.60378,0.0,4.0,0.0,-3.0,-3.0,-2.0,-6.0,-10.0
1701799034.613724,1.0,1.0,3.0,0.0,1.0,0.0,6.0,17.0
1701799034.613724,0.0,2.0,5.0,0.0,-1.0,-1.0,2.0,-3.0
1701799034.6239316,3.0,0.0,-4.0,0.0,-2.0,-1.0,-2.0,0.0
1701799034.6239316,-5.0,-2.0,-11.0,-7.0,-1.0,-1.0,1.0,-3.0
1701799034.6239316,-5.0,-5.0,2.0,0.0,2.0,-2.0,-4.0,-10.0
1701799034.6239316,18.0,0.0,8.0,3.0,-2.0,0.0,1.0,7.0
1701799034.6440167,-4.0,-2.0,-8.0,-6.0,-3.0,-3.0,-5.0,-12.0
1701799034.6440167,0.0,-4.0,2.0,0.0,-2.0,0.0,0.0,14.0
1701799034.6537292,0.0,-2.0,7.0,5.0,-1.0,1.0,0.0,-2.0
1701799034.6537292,3.0,7.0,-10.0,-8.0,-1.0,-2.0,-2.0,-1.0
1701799034.6638093,-1.0,0.0,8.0,3.0,2.0,0.0,1.0,-1.0
1701799034.6638093,0.0,1.0,6.0,2.0,-1.0,0.0,0.0,3.0
1701799034.6937237,-1.0,-1.0,-5.0,-7.0,-3.0,-1.0,1.0,-2.0
1701799034.6937237,-5.0,-4.0,16.0,4.0,0.0,0.0,-5.0,4.0
1701799034.6937237,2.0,-10.0,-31.0,-6.0,0.0,0.0,2.0,5.0
1701799034.6937237,-2.0,0.0,20.0,6.0,-1.0,-2.0,-1.0,-4.0
1701799034.6937237,5.0,10.0,-1.0,-2.0,-1.0,0.0,2.0,0.0
1701799034.6937237,4.0,-5.0,6.0,2.0,-1.0,-1.0,-1.0,-5.0
1701799034.7040164,-12.0,8.0,8.0,-7.0,0.0,0.0,1.0,-3.0
1701799034.7040164,5.0,-3.0,-1.0,10.0,1.0,-1.0,0.0,8.0
1701799034.7137265,0.0,-7.0,-5.0,-5.0,0.0,-3.0,-3.0,-5.0
1701799034.7137265,-5.0,1.0,-34.0,-18.0,1.0,1.0,0.0,1.0
1701799034.7237253,3.0,-3.0,4.0,-12.0,-7.0,-2.0,-3.0,0.0
1701799034.7237253,-23.0,-2.0,-22.0,-7.0,0.0,-1.0,-1.0,-5.0
1701799034.7342198,4.0,3.0,38.0,51.0,3.0,0.0,-4.0,-5.0
1701799034.7342198,-10.0,-4.0,-38.0,-11.0,2.0,-1.0,0.0,-8.0
1701799034.7488062,6.0,3.0,26.0,4.0,-3.0,-2.0,1.0,8.0
1701799034.7488062,1.0,5.0,-1.0,-27.0,-4.0,-2.0,-4.0,-5.0
1701799034.7508583,1.0,6.0,1.0,6.0,-4.0,-3.0,-5.0,-4.0
1701799034.7508583,-12.0,-9.0,5.0,2.0,1.0,4.0,5.0,-6.0
1701799034.766753,-5.0,1.0,15.0,8.0,4.0,-1.0,1.0,-11.0
1701799034.766753,14.0,-2.0,1.0,2.0,-4.0,0.0,-2.0,5.0
1701799034.7767036,-13.0,-5.0,-25.0,-26.0,-1.0,2.0,-5.0,2.0
1701799034.7767036,-1.0,10.0,86.0,30.0,4.0,3.0,30.0,8.0
1701799034.7767036,-15.0,-16.0,-37.0,-4.0,-1.0,-1.0,-4.0,-7.0
1701799034.7767036,7.0,17.0,14.0,2.0,-3.0,-3.0,-4.0,3.0
1701799034.7867308,-17.0,-22.0,-3.0,5.0,2.0,-2.0,-1.0,-3.0
1701799034.7867308,1.0,4.0,-23.0,-44.0,-5.0,1.0,-9.0,1.0
1701799034.8070972,-19.0,-4.0,-24.0,29.0,-3.0,-4.0,-9.0,-6.0
1701799034.8070972,-1.0,-8.0,-4.0,-3.0,0.0,-1.0,0.0,1.0
1701799034.8070972,15.0,11.0,-15.0,-3.0,-1.0,1.0,1.0,5.0
1701799034.8070972,2.0,-16.0,-23.0,9.0,-1.0,-1.0,-5.0,-3.0
1701799034.8267617,11.0,-5.0,12.0,-12.0,1.0,3.0,5.0,5.0
1701799034.8267617,1.0,-1.0,-2.0,4.0,1.0,0.0,-3.0,-5.0
1701799034.846705,-6.0,5.0,-49.0,-15.0,-7.0,-6.0,-1.0,-8.0
1701799034.846705,4.0,3.0,9.0,2.0,1.0,-1.0,-6.0,3.0
1701799034.846705,2.0,-1.0,-6.0,-5.0,0.0,0.0,9.0,-2.0
1701799034.846705,-9.0,2.0,17.0,9.0,0.0,0.0,2.0,-5.0
1701799034.846705,13.0,-1.0,29.0,-3.0,1.0,2.0,3.0,6.0
1701799034.846705,-7.0,10.0,-20.0,4.0,-3.0,-3.0,-10.0,-7.0
1701799034.8671806,6.0,-3.0,7.0,-4.0,0.0,-3.0,-5.0,3.0
1701799034.8671806,-8.0,-14.0,-7.0,1.0,0.0,2.0,-1.0,1.0
1701799034.8671806,-1.0,13.0,21.0,6.0,-2.0,0.0,5.0,-6.0
1701799034.8671806,0.0,-10.0,-14.0,-5.0,-4.0,-4.0,-7.0,-4.0
1701799034.8871963,0.0,-1.0,-29.0,-16.0,-5.0,-6.0,-7.0,-4.0
1701799034.8871963,-6.0,-9.0,-4.0,-5.0,1.0,-1.0,-1.0,-1.0
1701799034.8871963,2.0,-6.0,-8.0,-9.0,-3.0,1.0,-4.0,-3.0
1701799034.8871963,2.0,9.0,26.0,16.0,0.0,-1.0,-2.0,0.0
1701799034.8974495,6.0,10.0,10.0,2.0,0.0,1.0,1.0,4.0
1701799034.8974495,2.0,-11.0,-25.0,-3.0,-2.0,1.0,8.0,7.0
1701799034.907196,-13.0,8.0,31.0,-6.0,-3.0,-2.0,-4.0,-9.0
1701799034.907196,-15.0,-1.0,14.0,3.0,-2.0,-8.0,-13.0,-8.0
1701799034.927597,5.0,-3.0,-4.0,2.0,0.0,-1.0,-5.0,-5.0
1701799034.927597,-5.0,-3.0,-11.0,-10.0,-5.0,-2.0,-3.0,-4.0
1701799034.927597,6.0,-1.0,-7.0,0.0,2.0,4.0,7.0,7.0
1701799034.927597,18.0,-2.0,-19.0,-3.0,-1.0,0.0,2.0,13.0
1701799034.9471953,-13.0,6.0,-5.0,-4.0,-2.0,-1.0,1.0,-2.0
1701799034.9471953,2.0,-5.0,-11.0,3.0,3.0,1.0,3.0,7.0
1701799034.9471953,-7.0,4.0,22.0,-1.0,-4.0,-2.0,-1.0,-2.0
1701799034.9471953,6.0,-10.0,-30.0,-4.0,-4.0,-2.0,-3.0,-1.0
1701799034.9575183,-3.0,-4.0,16.0,13.0,4.0,3.0,-1.0,0.0
1701799034.9575183,9.0,7.0,5.0,-8.0,-1.0,-1.0,0.0,-6.0
1701799034.9779067,-2.0,-4.0,-10.0,-6.0,0.0,-3.0,0.0,-3.0
1701799034.9779067,-3.0,0.0,11.0,1.0,1.0,-2.0,-1.0,-4.0
1701799034.9878404,3.0,-6.0,12.0,-2.0,-1.0,-2.0,-4.0,2.0
1701799034.9878404,-6.0,18.0,13.0,16.0,0.0,-1.0,0.0,0.0
1701799034.9878404,5.0,-1.0,11.0,9.0,1.0,-1.0,-1.0,11.0
1701799034.9878404,-3.0,-10.0,29.0,0.0,2.0,3.0,5.0,1.0
1701799035.0175064,-14.0,-7.0,-34.0,-17.0,-5.0,-3.0,-2.0,-7.0
1701799035.0175064,3.0,4.0,3.0,5.0,-1.0,-1.0,-2.0,-3.0
1701799035.0175064,-1.0,-3.0,-32.0,-15.0,-3.0,-4.0,-5.0,-4.0
1701799035.0175064,0.0,0.0,5.0,0.0,0.0,2.0,1.0,0.0
1701799035.0175064,2.0,16.0,31.0,2.0,2.0,1.0,2.0,3.0
1701799035.0175064,-7.0,-16.0,-22.0,-1.0,-6.0,-5.0,-4.0,-7.0
1701799035.0277727,-2.0,0.0,-5.0,1.0,2.0,1.0,-1.0,-4.0
1701799035.0277727,-2.0,2.0,-1.0,-2.0,0.0,-4.0,-3.0,-5.0
1701799035.047507,9.0,0.0,25.0,6.0,-2.0,-1.0,-4.0,-6.0
1701799035.047507,1.0,-1.0,-7.0,-11.0,-4.0,-1.0,-1.0,-3.0
1701799035.047507,-6.0,-6.0,-7.0,-14.0,-2.0,0.0,2.0,3.0
1701799035.047507,-3.0,-2.0,-1.0,7.0,-4.0,-2.0,0.0,-2.0
1701799035.0675044,1.0,-1.0,0.0,9.0,3.0,1.0,-5.0,-7.0
1701799035.0675044,-4.0,1.0,9.0,8.0,2.0,-2.0,-5.0,-4.0
1701799035.0675044,1.0,-4.0,0.0,-8.0,-6.0,-3.0,2.0,4.0
1701799035.0675044,-3.0,-1.0,-8.0,-6.0,0.0,0.0,-3.0,-7.0
1701799035.0777192,-1.0,-3.0,-9.0,0.0,6.0,2.0,5.0,10.0
1701799035.0777192,3.0,0.0,-3.0,-2.0,-5.0,-2.0,-2.0,-1.0
1701799035.0876899,4.0,0.0,13.0,3.0,0.0,-2.0,-6.0,-9.0
1701799035.0876899,-4.0,-4.0,-14.0,-16.0,-7.0,-5.0,-5.0,-1.0
1701799035.1275058,1.0,1.0,-4.0,-2.0,-5.0,-1.0,-2.0,0.0
1701799035.1275058,1.0,-2.0,17.0,3.0,2.0,1.0,8.0,8.0
1701799035.1275058,-2.0,-4.0,-13.0,-16.0,-1.0,-2.0,3.0,-2.0
1701799035.1275058,-5.0,0.0,-16.0,6.0,-2.0,-2.0,-2.0,-5.0
1701799035.1275058,2.0,-2.0,1.0,1.0,10.0,2.0,-2.0,2.0
1701799035.1275058,9.0,5.0,0.0,-5.0,-1.0,-4.0,-10.0,0.0
1701799035.1275058,-14.0,-6.0,6.0,10.0,-2.0,1.0,4.0,-7.0
1701799035.1275058,-3.0,3.0,-6.0,-3.0,1.0,1.0,-7.0,-4.0
1701799035.137596,1.0,-3.0,-5.0,-10.0,-4.0,-2.0,8.0,4.0
1701799035.137596,-5.0,2.0,2.0,-3.0,-2.0,-1.0,-1.0,-1.0
1701799035.147685,3.0,-2.0,-2.0,6.0,-3.0,-2.0,-3.0,-4.0
1701799035.147685,-1.0,-1.0,1.0,-6.0,-3.0,-1.0,0.0,0.0
1701799035.1875055,-3.0,1.0,-6.0,-2.0,-2.0,-1.0,-4.0,-1.0
1701799035.1875055,-2.0,-7.0,0.0,1.0,4.0,-1.0,-2.0,-3.0
1701799035.1875055,6.0,2.0,2.0,-3.0,2.0,2.0,-2.0,-2.0
1701799035.1875055,-4.0,0.0,3.0,-1.0,-5.0,-5.0,-4.0,-4.0
1701799035.1875055,3.0,2.0,4.0,8.0,-2.0,0.0,-6.0,2.0
1701799035.1875055,-4.0,-1.0,-9.0,-2.0,1.0,-1.0,19.0,1.0
1701799035.1875055,3.0,-4.0,-2.0,1.0,1.0,-1.0,-6.0,2.0
1701799035.1875055,-5.0,2.0,5.0,-1.0,-4.0,-2.0,8.0,-11.0
1701799035.197704,14.0,-1.0,-4.0,-8.0,-5.0,-6.0,-9.0,-4.0
1701799035.197704,-15.0,-3.0,-3.0,-1.0,-1.0,-2.0,-15.0,-19.0
1701799035.2078047,-1.0,-1.0,5.0,3.0,0.0,0.0,6.0,13.0
1701799035.2078047,3.0,-2.0,9.0,8.0,2.0,3.0,11.0,6.0
1701799035.2275062,-2.0,-4.0,-5.0,0.0,-5.0,-2.0,-6.0,-3.0
1701799035.2275062,2.0,0.0,-3.0,-7.0,-2.0,-2.0,-5.0,-3.0
1701799035.2275062,7.0,-3.0,0.0,-5.0,-2.0,-3.0,-5.0,-4.0
1701799035.2275062,-7.0,-1.0,-5.0,-1.0,2.0,0.0,-4.0,-4.0
1701799035.2597215,-3.0,2.0,-4.0,-5.0,-4.0,0.0,4.0,2.0
1701799035.2597215,6.0,0.0,5.0,4.0,-2.0,0.0,0.0,3.0
1701799035.2617183,-3.0,0.0,-8.0,-1.0,0.0,0.0,-3.0,-5.0
1701799035.2627258,5.0,1.0,3.0,0.0,1.0,0.0,-4.0,5.0
1701799035.2661304,-6.0,0.0,5.0,-2.0,-5.0,-4.0,-3.0,-2.0
1701799035.2661304,0.0,-2.0,-7.0,-1.0,-3.0,0.0,12.0,-5.0
1701799035.275502,1.0,2.0,14.0,14.0,5.0,1.0,-5.0,-4.0
1701799035.275502,-1.0,0.0,-3.0,-10.0,-3.0,-1.0,-1.0,0.0
1701799035.299682,-2.0,0.0,-7.0,-7.0,-1.0,-1.0,4.0,2.0
1701799035.299682,0.0,-2.0,4.0,-2.0,-1.0,1.0,-3.0,6.0
1701799035.299682,-2.0,1.0,3.0,1.0,-6.0,-2.0,6.0,-2.0
1701799035.299682,-3.0,-3.0,8.0,7.0,0.0,-1.0,-5.0,-2.0
1701799035.309979,-3.0,-2.0,-4.0,-6.0,-2.0,-3.0,-1.0,-6.0
1701799035.309979,-2.0,-3.0,-3.0,2.0,1.0,-1.0,-4.0,0.0
1701799035.309979,-5.0,-4.0,-4.0,-5.0,0.0,-2.0,-3.0,-3.0
1701799035.309979,2.0,2.0,4.0,-6.0,0.0,-1.0,-3.0,1.0
1701799035.3200426,1.0,-1.0,6.0,15.0,1.0,1.0,0.0,-4.0
1701799035.3200426,1.0,1.0,-10.0,-10.0,-2.0,0.0,3.0,2.0
1701799035.3296838,-2.0,-2.0,6.0,7.0,-3.0,-4.0,-9.0,-3.0
1701799035.3296838,12.0,5.0,-8.0,-16.0,-4.0,-2.0,1.0,13.0
1701799035.3397114,-3.0,-4.0,10.0,4.0,-1.0,0.0,0.0,-2.0
1701799035.3496907,-1.0,1.0,-5.0,-4.0,-4.0,-3.0,-3.0,-1.0
1701799035.3496907,-1.0,1.0,5.0,4.0,0.0,0.0,-4.0,9.0
1701799035.3496907,-1.0,-3.0,-7.0,3.0,1.0,1.0,9.0,1.0
1701799035.3700502,-1.0,-3.0,-18.0,-16.0,-1.0,2.0,7.0,3.0
1701799035.3700502,15.0,-1.0,17.0,5.0,1.0,-2.0,-6.0,-1.0
1701799035.3700502,-12.0,-6.0,-8.0,0.0,-6.0,-5.0,0.0,-1.0
1701799035.3700502,-3.0,0.0,4.0,4.0,-2.0,-4.0,-12.0,-10.0
1701799035.3896818,2.0,1.0,-8.0,-4.0,-3.0,0.0,2.0,7.0
1701799035.3896818,-6.0,-5.0,3.0,3.0,3.0,3.0,7.0,10.0
1701799035.3896818,3.0,-4.0,-15.0,-11.0,-1.0,0.0,0.0,-4.0
1701799035.3896818,0.0,-1.0,0.0,10.0,-2.0,-3.0,-2.0,5.0
1701799035.3997078,-7.0,0.0,3.0,1.0,0.0,-1.0,-11.0,-9.0
1701799035.40969,1.0,1.0,1.0,-4.0,-1.0,1.0,-7.0,-12.0
1701799035.40969,-1.0,0.0,18.0,9.0,0.0,1.0,14.0,3.0
1701799035.40969,-8.0,-8.0,-33.0,-22.0,-2.0,3.0,9.0,2.0
1701799035.4300642,-1.0,4.0,14.0,8.0,-1.0,-2.0,6.0,-4.0
1701799035.4300642,-11.0,-8.0,-7.0,-6.0,-6.0,-7.0,-16.0,6.0
1701799035.4300642,1.0,-2.0,-10.0,-1.0,-2.0,-2.0,1.0,-4.0
1701799035.4300642,2.0,3.0,13.0,6.0,2.0,2.0,2.0,-3.0
1701799035.4500175,2.0,-2.0,-9.0,1.0,-1.0,-1.0,-4.0,-6.0
1701799035.4500175,0.0,0.0,-3.0,-4.0,0.0,-2.0,-11.0,-9.0
1701799035.4500175,-2.0,-1.0,-8.0,-3.0,0.0,-1.0,-8.0,-6.0
1701799035.4500175,0.0,-4.0,11.0,5.0,-1.0,-1.0,1.0,1.0
1701799035.4600518,-13.0,-2.0,-17.0,-5.0,3.0,1.0,-1.0,0.0
1701799035.4600518,-3.0,4.0,-4.0,-9.0,-2.0,2.0,5.0,-1.0
1701799035.4700193,2.0,4.0,-4.0,1.0,-1.0,-1.0,-2.0,2.0
1701799035.4700193,-8.0,-6.0,0.0,-6.0,1.0,2.0,-2.0,-4.0
1701799035.490426,4.0,-3.0,6.0,4.0,-4.0,-2.0,0.0,3.0
1701799035.490426,-3.0,-1.0,0.0,12.0,2.0,1.0,2.0,-3.0
1701799035.490426,1.0,1.0,13.0,5.0,-4.0,-1.0,0.0,-2.0
1701799035.490426,1.0,-2.0,-25.0,-16.0,-1.0,-1.0,-6.0,-1.0
1701799035.510414,1.0,1.0,-10.0,-3.0,-3.0,-5.0,-4.0,-13.0
1701799035.510414,10.0,3.0,8.0,1.0,4.0,2.0,5.0,1.0
1701799035.510414,-8.0,-2.0,-7.0,-7.0,-1.0,-2.0,-4.0,-3.0
1701799035.510414,-1.0,1.0,3.0,3.0,-4.0,-2.0,-5.0,-9.0
1701799035.520273,0.0,-1.0,2.0,-3.0,-2.0,-1.0,0.0,14.0
1701799035.520273,-5.0,1.0,10.0,13.0,-2.0,-1.0,-1.0,-14.0
1701799035.5300207,3.0,-3.0,-21.0,-20.0,-1.0,-1.0,-2.0,-5.0
1701799035.5300207,0.0,-3.0,-1.0,-2.0,-4.0,-1.0,-2.0,-1.0
1701799035.5500243,-1.0,-4.0,15.0,5.0,2.0,-5.0,-3.0,-10.0
1701799035.5500243,1.0,1.0,-4.0,1.0,-1.0,-2.0,0.0,6.0
1701799035.5700169,1.0,-2.0,4.0,-3.0,1.0,-1.0,-2.0,-1.0
1701799035.5700169,5.0,5.0,3.0,-6.0,0.0,-3.0,-2.0,-1.0
1701799035.580016,-6.0,-3.0,-2.0,0.0,1.0,2.0,-1.0,2.0
1701799035.580016,-3.0,0.0,2.0,-15.0,-2.0,0.0,2.0,-1.0
1701799035.580016,-2.0,-4.0,-23.0,-6.0,-4.0,-4.0,-2.0,-2.0
1701799035.580016,0.0,0.0,19.0,10.0,-1.0,-2.0,-1.0,2.0
1701799035.580016,4.0,1.0,-3.0,-3.0,-1.0,2.0,-2.0,1.0
1701799035.580016,-5.0,-4.0,-1.0,-5.0,-4.0,-3.0,-1.0,-6.0
1701799035.590278,-3.0,2.0,-5.0,-4.0,-2.0,1.0,0.0,1.0
1701799035.590278,-2.0,-3.0,2.0,4.0,1.0,-3.0,0.0,-1.0
1701799035.6100702,1.0,-1.0,1.0,-3.0,-3.0,-1.0,0.0,4.0
1701799035.6100702,-1.0,-5.0,-7.0,-7.0,-3.0,0.0,-2.0,1.0
1701799035.6200166,4.0,6.0,0.0,-1.0,2.0,1.0,0.0,5.0
1701799035.6200166,-2.0,-5.0,0.0,8.0,0.0,-1.0,-4.0,-4.0
1701799035.630316,-1.0,-2.0,-10.0,-9.0,-3.0,-3.0,0.0,-6.0
1701799035.630316,2.0,0.0,-7.0,7.0,2.0,0.0,1.0,8.0
1701799035.630316,-2.0,-7.0,2.0,1.0,-1.0,0.0,-1.0,-3.0
1701799035.630316,-2.0,6.0,7.0,4.0,1.0,2.0,-1.0,-3.0
1701799035.6402788,2.0,1.0,-2.0,-5.0,-1.0,1.0,1.0,9.0
1701799035.6402788,-3.0,-3.0,-14.0,-10.0,-3.0,-2.0,-1.0,0.0
1701799035.6502862,-1.0,0.0,13.0,4.0,0.0,-1.0,1.0,1.0
1701799035.6502862,-3.0,-3.0,-13.0,-7.0,-2.0,-2.0,1.0,1.0
1701799035.6700764,0.0,-3.0,10.0,8.0,2.0,0.0,0.0,-4.0
1701799035.6700764,-4.0,2.0,-1.0,1.0,-2.0,-1.0,-3.0,-2.0
1701799035.680017,-2.0,0.0,-3.0,-3.0,-3.0,-2.0,-3.0,-2.0
1701799035.680017,0.0,-2.0,-2.0,-4.0,2.0,0.0,1.0,4.0
1701799035.6903327,1.0,3.0,5.0,8.0,2.0,0.0,-2.0,-3.0
1701799035.6903327,-4.0,-8.0,-3.0,0.0,-1.0,-3.0,0.0,-1.0
1701799035.6903327,0.0,1.0,3.0,-11.0,-3.0,-3.0,-2.0,-1.0
1701799035.6903327,-1.0,-2.0,-1.0,-1.0,-1.0,-3.0,-1.0,-3.0
1701799035.7000551,1.0,0.0,-1.0,-2.0,-1.0,-1.0,0.0,0.0
1701799035.7000551,-3.0,0.0,6.0,-2.0,-1.0,0.0,-1.0,-2.0
1701799035.710262,1.0,-2.0,-2.0,5.0,0.0,0.0,0.0,0.0
1701799035.710262,-4.0,2.0,6.0,0.0,-2.0,1.0,1.0,0.0
1701799035.730064,-4.0,-2.0,-5.0,-3.0,-3.0,-3.0,-3.0,-1.0
1701799035.730064,1.0,2.0,1.0,2.0,0.0,0.0,0.0,2.0
1701799035.7400172,-6.0,2.0,8.0,3.0,-1.0,-2.0,-4.0,-8.0
1701799035.7400172,-10.0,2.0,3.0,1.0,-1.0,0.0,1.0,2.0
1701799035.7503304,8.0,2.0,-8.0,-3.0,1.0,0.0,2.0,0.0
1701799035.7503304,1.0,-4.0,-3.0,-4.0,-1.0,-3.0,-1.0,0.0
1701799035.7503304,-1.0,0.0,1.0,0.0,-2.0,-3.0,1.0,1.0
1701799035.7503304,1.0,-2.0,-10.0,-10.0,-2.0,-1.0,-2.0,-3.0
1701799035.7603505,-1.0,-2.0,8.0,13.0,0.0,0.0,-1.0,-2.0
1701799035.7603505,-4.0,-1.0,1.0,-2.0,-3.0,-2.0,-2.0,-3.0
1701799035.7702835,1.0,-1.0,-2.0,3.0,2.0,2.0,-2.0,1.0
1701799035.7702835,1.0,-2.0,-2.0,-1.0,-2.0,-1.0,-3.0,-2.0
1701799035.7935972,-4.0,0.0,0.0,-5.0,-2.0,0.0,0.0,-1.0
1701799035.7935972,1.0,0.0,4.0,0.0,2.0,-1.0,0.0,-2.0
1701799035.7935972,-6.0,1.0,-23.0,-11.0,-3.0,-2.0,-3.0,3.0
1701799035.7935972,0.0,-3.0,3.0,2.0,1.0,0.0,5.0,6.0
1701799035.8140674,-4.0,-2.0,-5.0,-4.0,-4.0,-2.0,-1.0,-1.0
1701799035.8140674,-4.0,1.0,2.0,2.0,-2.0,-1.0,-1.0,-1.0
1701799035.816077,1.0,-3.0,3.0,2.0,1.0,1.0,-3.0,-14.0
1701799035.816077,-1.0,-1.0,-5.0,1.0,0.0,-2.0,-3.0,-3.0
1701799035.8221903,-5.0,-2.0,-3.0,-6.0,-2.0,-2.0,1.0,1.0
1701799035.8221903,0.0,0.0,0.0,-3.0,0.0,0.0,-1.0,-1.0
1701799035.832321,0.0,0.0,-3.0,2.0,3.0,-2.0,1.0,3.0
1701799035.832321,-3.0,-4.0,-6.0,-7.0,-6.0,-2.0,-1.0,-2.0
1701799035.852192,0.0,-3.0,3.0,8.0,1.0,-1.0,-2.0,-3.0
1701799035.852192,0.0,0.0,1.0,-6.0,-3.0,-1.0,-2.0,-4.0
1701799035.852192,-1.0,0.0,2.0,1.0,-1.0,1.0,1.0,1.0
1701799035.852192,1.0,-1.0,2.0,-2.0,0.0,-2.0,-1.0,-2.0
1701799035.8722045,-1.0,-1.0,3.0,-3.0,0.0,1.0,-2.0,-2.0
1701799035.8722045,-1.0,0.0,-3.0,3.0,1.0,1.0,1.0,-2.0
1701799035.8722045,1.0,-2.0,-1.0,-2.0,1.0,1.0,0.0,3.0
1701799035.8722045,-10.0,-3.0,1.0,5.0,-1.0,-1.0,-3.0,-10.0
1701799035.8824077,0.0,0.0,-4.0,-2.0,2.0,1.0,-3.0,0.0
1701799035.8824077,2.0,3.0,8.0,0.0,0.0,0.0,-1.0,1.0
1701799035.902195,-3.0,-1.0,-9.0,1.0,0.0,-3.0,-2.0,1.0
1701799035.902195,6.0,-1.0,4.0,-1.0,0.0,-2.0,-1.0,1.0
1701799035.9221928,-6.0,-4.0,-11.0,-4.0,-2.0,-2.0,-2.0,0.0
1701799035.9221928,-4.0,0.0,3.0,-3.0,-6.0,-2.0,-3.0,-5.0
1701799035.9221928,3.0,0.0,3.0,2.0,0.0,1.0,3.0,1.0
1701799035.9221928,2.0,-2.0,3.0,5.0,-1.0,0.0,-1.0,2.0
1701799035.9324973,1.0,2.0,-1.0,-3.0,-1.0,-3.0,0.0,-1.0
1701799035.9324973,0.0,-4.0,-4.0,-7.0,-1.0,-1.0,-2.0,-3.0
1701799035.9324973,-2.0,-4.0,3.0,9.0,-2.0,-1.0,-3.0,-2.0
1701799035.9324973,-5.0,-1.0,0.0,1.0,0.0,-2.0,-1.0,1.0
1701799035.9521906,7.0,-2.0,-6.0,-6.0,-1.0,-1.0,-1.0,-3.0
1701799035.9521906,-6.0,-8.0,-11.0,0.0,-1.0,-2.0,0.0,0.0
1701799035.9521906,3.0,3.0,4.0,-3.0,-3.0,-3.0,-1.0,-4.0
1701799035.9521906,0.0,2.0,2.0,-3.0,0.0,1.0,-3.0,-3.0
1701799035.972195,-1.0,-1.0,0.0,4.0,-3.0,-1.0,-2.0,-3.0
1701799035.972195,-2.0,-4.0,2.0,7.0,0.0,-2.0,-3.0,0.0
1701799035.972195,-2.0,-3.0,-6.0,-3.0,-4.0,1.0,2.0,1.0
1701799035.972195,4.0,3.0,1.0,-15.0,-4.0,-2.0,-2.0,-2.0
1701799035.992496,-1.0,0.0,-4.0,-5.0,-1.0,-1.0,0.0,2.0
1701799035.992496,2.0,2.0,1.0,7.0,-1.0,-2.0,0.0,2.0
1701799035.992496,5.0,-1.0,5.0,-2.0,3.0,-2.0,0.0,-3.0
1701799035.992496,-4.0,-4.0,-5.0,0.0,1.0,0.0,-2.0,-5.0
1701799036.0121908,0.0,-1.0,-8.0,-4.0,-4.0,-1.0,-2.0,-2.0
1701799036.0121908,2.0,-1.0,0.0,1.0,-1.0,-1.0,1.0,0.0
1701799036.0121908,-13.0,-5.0,1.0,1.0,0.0,-1.0,0.0,-3.0
1701799036.0121908,2.0,-1.0,6.0,1.0,-1.0,-3.0,-3.0,4.0
1701799036.0225298,-9.0,-1.0,1.0,-2.0,-3.0,0.0,1.0,0.0
1701799036.0321972,-2.0,0.0,-6.0,-2.0,-2.0,-2.0,-3.0,-9.0
1701799036.0321972,4.0,1.0,-3.0,-4.0,-4.0,-1.0,-1.0,9.0
1701799036.0321972,1.0,-3.0,-3.0,2.0,0.0,-1.0,0.0,1.0
1701799036.0524557,0.0,5.0,3.0,-3.0,-3.0,-1.0,-2.0,-1.0
1701799036.0524557,0.0,-1.0,2.0,2.0,1.0,1.0,1.0,1.0
1701799036.0524557,-2.0,-2.0,-6.0,-9.0,-3.0,-3.0,-2.0,-5.0
1701799036.0524557,-2.0,-3.0,-1.0,7.0,0.0,1.0,1.0,0.0
1701799036.0721936,1.0,-2.0,4.0,-3.0,-2.0,-2.0,0.0,-1.0
1701799036.0721936,1.0,-2.0,-6.0,-12.0,-1.0,0.0,0.0,1.0
1701799036.0721936,1.0,0.0,-13.0,-8.0,-6.0,-5.0,-5.0,0.0
1701799036.0721936,1.0,-1.0,2.0,14.0,3.0,1.0,-1.0,0.0
1701799036.0922003,-2.0,-3.0,5.0,2.0,1.0,1.0,-1.0,-4.0
1701799036.0922003,-5.0,2.0,7.0,-3.0,-2.0,-1.0,0.0,0.0
1701799036.0922003,-5.0,-1.0,-5.0,-4.0,-3.0,-1.0,-3.0,-3.0
1701799036.0922003,-1.0,0.0,-5.0,-5.0,-3.0,-1.0,-2.0,6.0
1701799036.1124265,0.0,-2.0,-7.0,-3.0,0.0,-1.0,1.0,2.0
1701799036.1124265,0.0,-1.0,-3.0,-1.0,-1.0,-2.0,-3.0,-2.0
1701799036.1124265,-5.0,2.0,8.0,6.0,2.0,0.0,-1.0,-1.0
1701799036.1124265,0.0,2.0,-5.0,-4.0,-1.0,-2.0,-3.0,-3.0
1701799036.1521938,0.0,-2.0,3.0,7.0,0.0,0.0,3.0,-1.0
1701799036.1521938,1.0,-1.0,-6.0,-5.0,-2.0,-2.0,-1.0,1.0
1701799036.1521938,-2.0,-3.0,3.0,2.0,-1.0,0.0,-1.0,-10.0
1701799036.1521938,-2.0,-1.0,-6.0,-3.0,-2.0,0.0,-1.0,-11.0
1701799036.1521938,-3.0,-1.0,3.0,-3.0,0.0,-1.0,0.0,-3.0
1701799036.1521938,-1.0,0.0,10.0,1.0,0.0,0.0,0.0,-1.0
1701799036.1521938,-3.0,-5.0,-5.0,1.0,0.0,-2.0,-2.0,-6.0
1701799036.1521938,-1.0,2.0,-3.0,-1.0,-3.0,-4.0,-2.0,0.0
1701799036.1721923,-5.0,-9.0,6.0,1.0,0.0,0.0,-2.0,1.0
1701799036.1721923,-2.0,1.0,-1.0,2.0,-2.0,-1.0,-1.0,-4.0
1701799036.1721923,-1.0,-1.0,0.0,-1.0,0.0,-1.0,-2.0,7.0
1701799036.1721923,2.0,-1.0,-4.0,-3.0,-3.0,-1.0,0.0,-1.0
1701799036.182223,5.0,0.0,-3.0,1.0,-1.0,-2.0,-1.0,0.0
1701799036.182223,-2.0,1.0,-2.0,-5.0,-1.0,0.0,-1.0,1.0
1701799036.1925302,2.0,-1.0,3.0,-5.0,-1.0,1.0,1.0,4.0
1701799036.1925302,-4.0,-10.0,-4.0,-1.0,-2.0,-3.0,-3.0,-1.0
1701799036.212194,1.0,0.0,-3.0,3.0,-1.0,-1.0,-2.0,-2.0
1701799036.212194,-4.0,-3.0,-4.0,-1.0,2.0,0.0,-1.0,1.0
1701799036.212194,3.0,2.0,4.0,1.0,1.0,0.0,1.0,-2.0
1701799036.212194,3.0,1.0,8.0,0.0,0.0,0.0,-3.0,-9.0
1701799036.2321925,-14.0,-3.0,-7.0,-6.0,-2.0,-3.0,1.0,10.0
1701799036.2321925,-2.0,0.0,-3.0,0.0,-2.0,-3.0,-1.0,-3.0
1701799036.2321925,-16.0,-3.0,-4.0,0.0,-1.0,-2.0,-4.0,-7.0
1701799036.2321925,-3.0,-1.0,-2.0,-4.0,-2.0,-1.0,1.0,3.0
1701799036.2423668,-1.0,-5.0,13.0,7.0,-1.0,-1.0,-4.0,-3.0
1701799036.2423668,-8.0,-7.0,-10.0,-4.0,-3.0,0.0,0.0,-1.0
1701799036.2522006,5.0,-1.0,6.0,-1.0,-2.0,0.0,2.0,0.0
1701799036.2522006,-2.0,-2.0,-2.0,0.0,-1.0,-2.0,-1.0,-2.0
1701799036.2721984,0.0,8.0,2.0,-2.0,-2.0,-1.0,-4.0,-3.0
1701799036.2721984,4.0,1.0,1.0,-2.0,-1.0,0.0,0.0,0.0
1701799036.2721984,3.0,1.0,0.0,7.0,5.0,0.0,-1.0,-5.0
1701799036.2721984,1.0,4.0,5.0,1.0,-1.0,1.0,1.0,0.0
1701799036.312193,0.0,-4.0,-16.0,-12.0,-4.0,-4.0,-2.0,-1.0
1701799036.312193,1.0,1.0,0.0,6.0,0.0,-2.0,-1.0,3.0
1701799036.312193,-1.0,-4.0,12.0,-3.0,-3.0,-3.0,-2.0,1.0
1701799036.312193,-2.0,0.0,0.0,1.0,2.0,0.0,-1.0,-8.0
1701799036.312193,1.0,0.0,-8.0,-2.0,0.0,2.0,0.0,-5.0
1701799036.312193,2.0,0.0,2.0,-4.0,-3.0,-1.0,0.0,-2.0
1701799036.312193,-5.0,-2.0,2.0,-4.0,1.0,-1.0,0.0,-2.0
1701799036.312193,3.0,-2.0,-6.0,6.0,-1.0,-2.0,1.0,4.0
1701799036.3314996,3.0,-2.0,4.0,-5.0,-1.0,0.0,-2.0,-2.0
1701799036.3314996,-7.0,-4.0,0.0,8.0,1.0,-1.0,-2.0,-7.0
1701799036.332984,0.0,0.0,-6.0,-1.0,-1.0,0.0,-1.0,6.0
1701799036.332984,-1.0,-1.0,3.0,2.0,-3.0,-2.0,-2.0,0.0
1701799036.3548973,0.0,0.0,-4.0,-1.0,2.0,-1.0,1.0,-3.0
1701799036.3548973,1.0,0.0,-3.0,-2.0,0.0,-1.0,0.0,4.0
1701799036.3548973,12.0,-2.0,-11.0,0.0,-1.0,-1.0,0.0,1.0
1701799036.3548973,-14.0,-2.0,8.0,-2.0,0.0,-1.0,-6.0,-12.0
1701799036.3756137,-6.0,-3.0,-16.0,-5.0,-3.0,-2.0,-2.0,-4.0
1701799036.3756137,3.0,1.0,-10.0,-9.0,-5.0,-1.0,-1.0,0.0
1701799036.3756137,-6.0,0.0,-7.0,1.0,-2.0,-2.0,1.0,-1.0
1701799036.3756137,9.0,-1.0,-1.0,-5.0,-1.0,0.0,-1.0,10.0
1701799036.3854072,1.0,-4.0,7.0,6.0,1.0,1.0,1.0,5.0
1701799036.3854072,-1.0,0.0,-4.0,-7.0,-4.0,-1.0,-1.0,2.0
1701799036.3952928,-3.0,1.0,4.0,-3.0,-4.0,0.0,-3.0,-4.0
1701799036.3952928,5.0,-5.0,-17.0,-8.0,1.0,0.0,3.0,3.0
1701799036.4053202,-17.0,-3.0,12.0,18.0,-3.0,-3.0,-3.0,-5.0
1701799036.4153008,0.0,-4.0,6.0,-4.0,-1.0,-1.0,1.0,-1.0
1701799036.4153008,-1.0,-5.0,-13.0,-14.0,-4.0,-1.0,0.0,0.0
1701799036.4153008,1.0,8.0,25.0,4.0,0.0,1.0,-1.0,1.0
1701799036.4355826,-2.0,-2.0,-25.0,-19.0,-2.0,-2.0,0.0,0.0
1701799036.4355826,-6.0,0.0,20.0,23.0,4.0,-1.0,-3.0,-8.0
1701799036.4355826,-2.0,-2.0,1.0,4.0,-2.0,-2.0,1.0,2.0
1701799036.4355826,-4.0,-3.0,-3.0,-2.0,-1.0,-1.0,-3.0,-5.0
1701799036.4553032,2.0,-1.0,-3.0,-3.0,0.0,0.0,0.0,-2.0
1701799036.4553032,2.0,1.0,0.0,-3.0,0.0,-2.0,-3.0,1.0
1701799036.4752932,-2.0,1.0,4.0,-4.0,2.0,0.0,-3.0,-3.0
1701799036.4752932,4.0,-1.0,-10.0,5.0,0.0,-3.0,-2.0,2.0
1701799036.4853208,-10.0,-3.0,25.0,4.0,-4.0,-2.0,-2.0,-4.0
1701799036.4853208,3.0,1.0,-10.0,-9.0,-3.0,-2.0,-1.0,-1.0
1701799036.4853208,3.0,1.0,-8.0,-6.0,-2.0,-1.0,1.0,0.0
1701799036.4853208,-3.0,1.0,4.0,2.0,0.0,1.0,1.0,-2.0
1701799036.4956863,7.0,-8.0,-27.0,-2.0,-3.0,-4.0,-3.0,-1.0
1701799036.4956863,9.0,-4.0,0.0,-11.0,-1.0,0.0,-1.0,5.0
1701799036.4956863,-5.0,1.0,-5.0,10.0,-3.0,-2.0,-3.0,-7.0
1701799036.4956863,-9.0,0.0,1.0,-9.0,-5.0,-2.0,-1.0,-9.0
1701799036.5059302,7.0,4.0,11.0,8.0,-1.0,0.0,0.0,2.0
1701799036.5059302,-2.0,-1.0,-6.0,-1.0,-1.0,1.0,0.0,-2.0
1701799036.5156999,-1.0,-2.0,-4.0,-1.0,1.0,-1.0,1.0,1.0
1701799036.5156999,-3.0,-3.0,-8.0,-4.0,-1.0,0.0,0.0,-3.0
1701799036.52575,1.0,2.0,-1.0,-8.0,-1.0,2.0,1.0,0.0
1701799036.52575,-2.0,-4.0,-9.0,6.0,-2.0,-4.0,1.0,-2.0
1701799036.535704,-4.0,0.0,6.0,-1.0,0.0,1.0,-1.0,0.0
1701799036.535704,-1.0,-5.0,-13.0,-3.0,0.0,-2.0,-2.0,-3.0
1701799036.5559537,1.0,0.0,0.0,-1.0,-2.0,-4.0,-3.0,-2.0
1701799036.5559537,0.0,7.0,2.0,-1.0,-2.0,-1.0,1.0,3.0
1701799036.5559537,0.0,-2.0,-9.0,-3.0,-2.0,-3.0,-3.0,-2.0
1701799036.5559537,2.0,0.0,1.0,6.0,-2.0,-4.0,0.0,4.0
1701799036.565701,0.0,1.0,7.0,4.0,1.0,0.0,0.0,-1.0
1701799036.565701,-2.0,-3.0,-12.0,-4.0,-2.0,-1.0,-4.0,-5.0
1701799036.5756996,1.0,2.0,11.0,7.0,-2.0,-3.0,-1.0,-2.0
1701799036.5756996,-4.0,-1.0,-1.0,-5.0,-2.0,-2.0,-1.0,-9.0
1701799036.5857325,0.0,2.0,-3.0,-4.0,1.0,0.0,0.0,-1.0
1701799036.5857325,-3.0,0.0,2.0,-1.0,-2.0,-2.0,0.0,0.0
1701799036.5957055,1.0,-1.0,-2.0,1.0,-1.0,-1.0,0.0,1.0
1701799036.5957055,-1.0,-3.0,-3.0,-3.0,-3.0,-1.0,-1.0,6.0
1701799036.615754,-3.0,-1.0,-5.0,0.0,-3.0,-2.0,-4.0,-3.0
1701799036.615754,-3.0,-4.0,13.0,2.0,-1.0,1.0,-2.0,-3.0
1701799036.6356997,-1.0,-1.0,-9.0,-11.0,-3.0,0.0,-1.0,2.0
1701799036.6356997,8.0,-1.0,-6.0,-2.0,-4.0,-2.0,2.0,4.0
1701799036.6356997,-6.0,0.0,2.0,-1.0,2.0,0.0,-2.0,-2.0
1701799036.6356997,-3.0,-2.0,-6.0,1.0,2.0,1.0,-2.0,-1.0
1701799036.6356997,0.0,-3.0,2.0,-1.0,-2.0,0.0,0.0,-1.0
1701799036.6356997,1.0,-1.0,7.0,-2.0,2.0,2.0,-1.0,0.0
1701799036.6459723,3.0,0.0,1.0,6.0,-4.0,-2.0,-3.0,1.0
1701799036.6459723,-5.0,-4.0,3.0,6.0,2.0,0.0,1.0,0.0
1701799036.6556988,-6.0,2.0,5.0,-2.0,-5.0,-2.0,-2.0,-5.0
1701799036.6556988,3.0,-2.0,3.0,-4.0,-4.0,-6.0,-8.0,6.0
1701799036.6757755,1.0,0.0,-8.0,-5.0,4.0,3.0,-4.0,-5.0
1701799036.6757755,-4.0,0.0,7.0,2.0,-2.0,2.0,34.0,7.0
1701799036.6856964,1.0,-3.0,-12.0,-3.0,1.0,-2.0,-7.0,-2.0
1701799036.6856964,3.0,1.0,-3.0,-20.0,-7.0,-1.0,12.0,4.0
1701799036.6856964,-5.0,-4.0,-2.0,-1.0,-5.0,-7.0,-13.0,-5.0
1701799036.6856964,2.0,0.0,3.0,12.0,2.0,-1.0,-4.0,0.0
1701799036.6959178,2.0,0.0,-2.0,7.0,2.0,1.0,3.0,1.0
1701799036.6959178,-3.0,0.0,-3.0,4.0,-1.0,-2.0,-7.0,-4.0
1701799036.7059636,1.0,1.0,4.0,2.0,-2.0,-3.0,-2.0,-2.0
1701799036.7059636,-4.0,-15.0,-7.0,-4.0,-3.0,-3.0,-6.0,-3.0
1701799036.7157047,3.0,8.0,42.0,-2.0,-2.0,-1.0,-1.0,2.0
1701799036.7157047,-12.0,-4.0,-64.0,-6.0,0.0,-2.0,-6.0,-4.0
1701799036.7357085,17.0,17.0,60.0,4.0,0.0,3.0,9.0,2.0
1701799036.7357085,-20.0,-16.0,-46.0,-22.0,1.0,-2.0,-6.0,-5.0
1701799036.7556982,-9.0,3.0,-10.0,-3.0,-4.0,-5.0,-5.0,-5.0
1701799036.7556982,6.0,-8.0,15.0,33.0,0.0,0.0,-1.0,2.0
1701799036.7656996,3.0,-1.0,-30.0,-16.0,-1.0,-2.0,3.0,2.0
1701799036.7656996,8.0,9.0,11.0,-1.0,0.0,0.0,-6.0,-2.0
1701799036.7656996,0.0,-8.0,0.0,-12.0,1.0,2.0,0.0,-4.0
1701799036.7656996,-4.0,3.0,3.0,-6.0,-3.0,1.0,1.0,0.0
1701799036.7656996,-6.0,-5.0,-35.0,-21.0,-1.0,0.0,1.0,1.0
1701799036.7656996,1.0,0.0,49.0,26.0,1.0,-1.0,-6.0,-2.0
1701799036.7756994,-4.0,-8.0,-17.0,-1.0,0.0,-2.0,1.0,-3.0
1701799036.7756994,-2.0,4.0,23.0,3.0,1.0,0.0,3.0,3.0
1701799036.7956991,-3.0,-5.0,2.0,4.0,0.0,0.0,-1.0,-3.0
1701799036.7956991,6.0,1.0,-25.0,-24.0,-5.0,0.0,-4.0,1.0
1701799036.7956991,-2.0,1.0,5.0,5.0,0.0,-3.0,0.0,-2.0
1701799036.7956991,-1.0,2.0,12.0,12.0,1.0,0.0,1.0,-2.0
1701799036.8060484,-10.0,-10.0,-8.0,2.0,-1.0,-1.0,1.0,-4.0
1701799036.8060484,-10.0,5.0,-9.0,-8.0,-4.0,-3.0,-5.0,-5.0
1701799036.8159914,-1.0,4.0,-1.0,6.0,-2.0,0.0,-1.0,-9.0
1701799036.8159914,-2.0,-9.0,-3.0,-15.0,-2.0,1.0,1.0,-3.0
1701799036.8260202,-2.0,-5.0,-10.0,1.0,-3.0,0.0,0.0,0.0
1701799036.8260202,4.0,-1.0,10.0,9.0,3.0,1.0,0.0,-1.0
1701799036.8357365,3.0,-4.0,0.0,-6.0,1.0,1.0,-1.0,5.0
1701799036.8357365,-9.0,6.0,20.0,0.0,-4.0,-4.0,-2.0,-4.0
1701799036.8562047,4.0,12.0,14.0,8.0,2.0,1.0,2.0,1.0
1701799036.8562047,-5.0,-17.0,-47.0,14.0,-5.0,-6.0,-6.0,-3.0
1701799036.8582184,-2.0,-5.0,-4.0,-8.0,-2.0,0.0,-1.0,4.0
1701799036.8582184,6.0,6.0,14.0,3.0,5.0,1.0,0.0,0.0
1701799036.8701851,7.0,-11.0,-38.0,-13.0,-2.0,-1.0,-3.0,0.0
1701799036.8701851,-10.0,10.0,20.0,-5.0,0.0,-1.0,-1.0,0.0
1701799036.8713546,-3.0,-8.0,-10.0,5.0,-1.0,2.0,0.0,0.0
1701799036.8713546,-5.0,-5.0,-8.0,2.0,0.0,1.0,-3.0,-2.0
1701799036.8916872,-1.0,8.0,35.0,0.0,-3.0,-1.0,-1.0,-2.0
1701799036.8916872,3.0,-13.0,-40.0,-14.0,-2.0,-2.0,-1.0,-2.0
1701799036.8916872,-5.0,0.0,10.0,19.0,2.0,-2.0,-2.0,1.0
1701799036.8916872,-3.0,-1.0,1.0,-30.0,-3.0,1.0,1.0,0.0
1701799036.9113536,5.0,3.0,4.0,16.0,3.0,-2.0,-5.0,-1.0
1701799036.9113536,5.0,8.0,16.0,-7.0,-5.0,-1.0,-2.0,-1.0
1701799036.9113536,2.0,0.0,-1.0,3.0,-1.0,-2.0,0.0,5.0
1701799036.9113536,-3.0,-4.0,2.0,7.0,2.0,-3.0,-1.0,-2.0
1701799036.9216475,-7.0,-5.0,-10.0,-8.0,-3.0,-2.0,1.0,1.0
1701799036.9216475,2.0,2.0,16.0,-1.0,-5.0,-2.0,-1.0,0.0
1701799036.9316127,0.0,-1.0,-6.0,1.0,1.0,2.0,0.0,0.0
1701799036.9316127,-3.0,0.0,-18.0,-1.0,0.0,-1.0,-1.0,0.0
1701799036.9516742,5.0,1.0,74.0,11.0,5.0,6.0,5.0,4.0
1701799036.9516742,-8.0,-2.0,-44.0,6.0,-6.0,-8.0,-8.0,-7.0
1701799036.9516742,-1.0,-9.0,-34.0,-25.0,-8.0,-4.0,-5.0,-3.0
1701799036.9516742,-7.0,5.0,40.0,13.0,6.0,3.0,1.0,6.0
1701799036.9713633,2.0,1.0,-36.0,-18.0,-10.0,-2.0,0.0,-8.0
1701799036.9713633,16.0,3.0,55.0,22.0,11.0,3.0,0.0,7.0
1701799036.9813564,7.0,-12.0,-48.0,-33.0,-6.0,-2.0,1.0,4.0
1701799036.9813564,-3.0,-15.0,-49.0,14.0,0.0,-2.0,-11.0,-18.0
1701799036.9813564,-6.0,10.0,15.0,-15.0,3.0,3.0,10.0,17.0
1701799036.9813564,-8.0,-4.0,-6.0,8.0,-1.0,-2.0,1.0,-4.0
1701799036.99164,-8.0,-11.0,13.0,24.0,-9.0,-10.0,-8.0,-9.0
1701799036.99164,35.0,-15.0,-62.0,-41.0,-2.0,3.0,4.0,10.0
1701799037.021354,-11.0,-12.0,-12.0,6.0,-10.0,-9.0,-18.0,-8.0
1701799037.021354,-31.0,-2.0,9.0,-20.0,2.0,-2.0,2.0,-10.0
1701799037.021354,14.0,-3.0,14.0,17.0,-1.0,-1.0,-15.0,7.0
1701799037.021354,-10.0,6.0,-7.0,-8.0,-2.0,-1.0,10.0,-8.0
1701799037.0316818,7.0,-15.0,-15.0,-6.0,-1.0,2.0,26.0,10.0
1701799037.0316818,11.0,19.0,25.0,-1.0,2.0,3.0,10.0,13.0
1701799037.0316818,-9.0,11.0,-4.0,2.0,2.0,-2.0,-14.0,-23.0
1701799037.0316818,-1.0,1.0,20.0,6.0,-2.0,-2.0,-4.0,13.0
1701799037.041663,4.0,3.0,-19.0,0.0,1.0,0.0,-5.0,-1.0
1701799037.041663,-1.0,-18.0,8.0,0.0,-2.0,0.0,-3.0,2.0
1701799037.0516083,1.0,16.0,4.0,-7.0,-1.0,-1.0,0.0,-3.0
1701799037.0516083,14.0,-11.0,21.0,24.0,0.0,-2.0,-12.0,-13.0
1701799037.0713573,-24.0,-2.0,-27.0,-10.0,-3.0,0.0,7.0,-8.0
1701799037.0713573,8.0,3.0,-21.0,-9.0,-4.0,-2.0,5.0,13.0
1701799037.0713573,-5.0,-11.0,15.0,-10.0,1.0,2.0,7.0,1.0
1701799037.0713573,-11.0,0.0,-21.0,-8.0,-4.0,-3.0,-4.0,-12.0
1701799037.0916424,1.0,8.0,6.0,38.0,-2.0,-7.0,-15.0,-6.0
1701799037.0916424,4.0,1.0,13.0,-10.0,2.0,0.0,-5.0,-6.0
1701799037.0916424,1.0,8.0,7.0,2.0,5.0,0.0,-1.0,5.0
1701799037.0916424,-3.0,3.0,-11.0,-6.0,-1.0,2.0,11.0,8.0
1701799037.111363,0.0,-4.0,9.0,0.0,-4.0,-1.0,-4.0,-4.0
1701799037.111363,1.0,-3.0,-25.0,2.0,-3.0,-1.0,-5.0,-4.0
1701799037.111363,3.0,5.0,26.0,1.0,-2.0,-2.0,4.0,2.0
1701799037.111363,-8.0,-4.0,4.0,13.0,-6.0,-5.0,-7.0,0.0
1701799037.1513565,1.0,-2.0,8.0,-14.0,5.0,1.0,-2.0,-2.0
1701799037.1513565,-1.0,-2.0,-39.0,-21.0,-9.0,-3.0,-4.0,-4.0
1701799037.1513565,-3.0,1.0,55.0,27.0,-3.0,1.0,2.0,2.0
1701799037.1513565,-6.0,-2.0,-36.0,-15.0,-1.0,-1.0,-4.0,-3.0
1701799037.1513565,-4.0,-7.0,-36.0,-20.0,-6.0,-5.0,-7.0,-3.0
1701799037.1513565,0.0,-7.0,12.0,2.0,7.0,1.0,-3.0,-2.0
1701799037.1513565,-2.0,1.0,2.0,-1.0,-1.0,-2.0,4.0,-1.0
1701799037.1513565,-1.0,5.0,39.0,8.0,1.0,-4.0,-3.0,1.0
1701799037.1615233,0.0,3.0,37.0,24.0,5.0,3.0,3.0,-2.0
1701799037.1615233,0.0,2.0,-17.0,-26.0,-12.0,-3.0,-2.0,7.0
1701799037.1716073,-1.0,-3.0,-23.0,4.0,-1.0,0.0,4.0,-1.0
1701799037.1716073,11.0,3.0,50.0,19.0,6.0,1.0,2.0,2.0
1701799037.2013624,-6.0,-5.0,-31.0,8.0,3.0,-2.0,-6.0,1.0
1701799037.2013624,-4.0,6.0,22.0,6.0,-2.0,-1.0,0.0,-8.0
1701799037.2013624,-2.0,-1.0,-21.0,-17.0,-4.0,-2.0,2.0,-1.0
1701799037.2013624,4.0,4.0,10.0,1.0,-5.0,-5.0,-6.0,0.0
1701799037.2117233,2.0,-1.0,4.0,-8.0,0.0,0.0,0.0,-2.0
1701799037.2117233,-3.0,1.0,-1.0,5.0,-1.0,3.0,3.0,-1.0
1701799037.2117233,2.0,0.0,12.0,1.0,0.0,-5.0,-19.0,5.0
1701799037.2117233,-5.0,-1.0,-15.0,-12.0,-3.0,-1.0,1.0,-8.0
1701799037.2313588,3.0,6.0,17.0,2.0,1.0,3.0,19.0,4.0
1701799037.2313588,8.0,-3.0,-3.0,5.0,0.0,-1.0,1.0,0.0
1701799037.2413545,-18.0,-1.0,-1.0,-1.0,1.0,0.0,7.0,-2.0
1701799037.2413545,1.0,18.0,43.0,-1.0,-1.0,0.0,-7.0,-4.0
1701799037.2516985,-8.0,-21.0,-43.0,-10.0,-2.0,-4.0,-11.0,-4.0
1701799037.2516985,2.0,7.0,11.0,7.0,1.0,-2.0,-3.0,-5.0
1701799037.2516985,7.0,-4.0,-11.0,-7.0,2.0,0.0,-6.0,-3.0
1701799037.2516985,-4.0,1.0,-18.0,-3.0,-3.0,-1.0,1.0,4.0
1701799037.271356,-2.0,21.0,43.0,10.0,1.0,1.0,0.0,-2.0
1701799037.271356,-2.0,-20.0,-50.0,-20.0,-3.0,-3.0,-1.0,-2.0
1701799037.271356,3.0,0.0,-4.0,10.0,4.0,0.0,2.0,-1.0
1701799037.271356,-7.0,-4.0,-12.0,-5.0,1.0,0.0,3.0,2.0
1701799037.2813563,4.0,10.0,9.0,-2.0,1.0,0.0,-2.0,-5.0
1701799037.2813563,-2.0,-4.0,-5.0,-3.0,-1.0,-2.0,-5.0,-5.0
1701799037.3013532,-2.0,0.0,11.0,13.0,-6.0,-2.0,3.0,-2.0
1701799037.3013532,-1.0,-2.0,-7.0,-11.0,-1.0,0.0,4.0,0.0
1701799037.3115222,-1.0,-9.0,-11.0,-6.0,-1.0,-3.0,-7.0,-1.0
1701799037.3115222,-2.0,7.0,30.0,11.0,1.0,-2.0,-1.0,-2.0
1701799037.3115222,-2.0,-5.0,-16.0,-12.0,-3.0,2.0,3.0,-1.0
1701799037.3115222,1.0,-2.0,1.0,-6.0,-5.0,-2.0,1.0,2.0
1701799037.3316302,-1.0,-4.0,1.0,13.0,1.0,-1.0,-4.0,-1.0
1701799037.3316302,-4.0,0.0,2.0,-7.0,-6.0,-1.0,-2.0,-1.0
1701799037.3316302,1.0,3.0,8.0,-5.0,0.0,0.0,3.0,0.0
1701799037.3316302,-8.0,-4.0,-8.0,10.0,4.0,-1.0,-3.0,4.0
1701799037.3513546,0.0,-1.0,-3.0,-8.0,-4.0,-4.0,-2.0,-4.0
1701799037.3513546,-2.0,2.0,3.0,8.0,5.0,0.0,3.0,0.0
1701799037.3513546,-5.0,-9.0,8.0,13.0,-3.0,-2.0,-1.0,-4.0
1701799037.3513546,-3.0,3.0,10.0,-4.0,-12.0,-4.0,0.0,-3.0
1701799037.3717566,3.0,-2.0,-4.0,-2.0,3.0,-1.0,-1.0,-1.0
1701799037.3717566,-1.0,-2.0,12.0,-8.0,1.0,-2.0,-2.0,0.0
1701799037.3717566,6.0,2.0,-18.0,-11.0,0.0,0.0,1.0,1.0
1701799037.3717566,-3.0,-6.0,1.0,11.0,1.0,-1.0,0.0,0.0
1701799037.3965275,0.0,0.0,-3.0,-3.0,-5.0,-1.0,-2.0,1.0
1701799037.3965275,-5.0,1.0,6.0,5.0,-4.0,-4.0,-2.0,0.0
1701799037.3975227,4.0,2.0,2.0,-6.0,0.0,-2.0,1.0,-9.0
1701799037.3975227,1.0,-4.0,-3.0,-3.0,3.0,2.0,2.0,1.0
1701799037.4239328,-1.0,-3.0,20.0,-6.0,-9.0,-4.0,-5.0,-3.0
1701799037.4239328,6.0,2.0,-11.0,-6.0,0.0,1.0,-1.0,4.0
1701799037.4239328,-13.0,-7.0,25.0,-4.0,1.0,0.0,0.0,-1.0
1701799037.4239328,13.0,-21.0,-46.0,15.0,4.0,-1.0,-2.0,-1.0
1701799037.4340944,21.0,31.0,40.0,3.0,2.0,1.0,-1.0,3.0
1701799037.4340944,-9.0,-30.0,-41.0,-20.0,-6.0,-3.0,-2.0,-5.0
1701799037.4340944,-3.0,2.0,8.0,6.0,0.0,-3.0,-3.0,0.0
1701799037.4340944,-7.0,5.0,-2.0,-4.0,-2.0,1.0,-1.0,3.0
1701799037.4539356,-7.0,-15.0,-25.0,-7.0,-2.0,-4.0,-4.0,-2.0
1701799037.4539356,3.0,10.0,48.0,24.0,-1.0,-2.0,-2.0,-3.0
1701799037.4639337,2.0,6.0,48.0,33.0,5.0,3.0,6.0,6.0
1701799037.4639337,-2.0,-22.0,-72.0,-57.0,-12.0,-4.0,-5.0,0.0
1701799037.4742632,1.0,2.0,-2.0,6.0,5.0,2.0,0.0,-1.0
1701799037.4742632,8.0,2.0,29.0,23.0,1.0,3.0,-3.0,-4.0
1701799037.4742632,1.0,-18.0,-61.0,-27.0,-2.0,-1.0,-3.0,0.0
1701799037.4742632,-3.0,27.0,46.0,18.0,7.0,3.0,9.0,7.0
1701799037.493936,-3.0,-9.0,-5.0,-6.0,-5.0,-4.0,0.0,4.0
1701799037.493936,-15.0,-4.0,-21.0,-12.0,1.0,-3.0,0.0,-11.0
1701799037.5043197,-1.0,17.0,6.0,-2.0,-4.0,0.0,-6.0,1.0
1701799037.5043197,-2.0,-4.0,14.0,29.0,3.0,-3.0,-2.0,-6.0
1701799037.5139363,-7.0,-8.0,-28.0,-15.0,-2.0,-1.0,-2.0,-1.0
1701799037.5139363,1.0,3.0,0.0,2.0,1.0,2.0,6.0,-14.0
1701799037.5239372,7.0,-1.0,4.0,-1.0,2.0,1.0,0.0,2.0
1701799037.5239372,-17.0,13.0,20.0,-6.0,-2.0,-1.0,0.0,0.0
1701799037.5339692,-6.0,-15.0,-24.0,4.0,1.0,-2.0,0.0,-3.0
1701799037.5339692,7.0,11.0,-36.0,-6.0,0.0,1.0,-7.0,3.0
1701799037.5339692,-3.0,1.0,25.0,-12.0,-8.0,-6.0,-14.0,-18.0
1701799037.5339692,-10.0,-20.0,-4.0,-3.0,-3.0,-3.0,5.0,8.0
1701799037.5539417,-1.0,14.0,0.0,10.0,-1.0,0.0,-3.0,-8.0
1701799037.5539417,7.0,-13.0,-7.0,-8.0,-2.0,2.0,12.0,15.0
1701799037.5539417,-7.0,3.0,-58.0,-8.0,-4.0,-1.0,5.0,-6.0
1701799037.5539417,8.0,-9.0,16.0,0.0,3.0,-1.0,-8.0,-6.0
1701799037.573945,-8.0,-1.0,33.0,9.0,-4.0,-3.0,-3.0,0.0
1701799037.573945,29.0,7.0,-1.0,-2.0,-2.0,-5.0,-15.0,0.0
1701799037.6039367,-32.0,-12.0,-6.0,1.0,-1.0,-1.0,-7.0,-5.0
1701799037.6039367,9.0,14.0,7.0,8.0,0.0,2.0,4.0,16.0
1701799037.6039367,0.0,-2.0,11.0,-2.0,2.0,4.0,16.0,10.0
1701799037.6039367,-10.0,-8.0,3.0,14.0,2.0,-1.0,2.0,9.0
1701799037.6039367,12.0,-8.0,-25.0,-19.0,-5.0,-2.0,-6.0,7.0
1701799037.6039367,3.0,3.0,5.0,-2.0,0.0,-1.0,-12.0,-12.0
1701799037.6039367,-4.0,-5.0,14.0,-6.0,-2.0,-2.0,-3.0,-2.0
1701799037.6039367,0.0,17.0,47.0,14.0,-2.0,-2.0,-7.0,-3.0
1701799037.633934,-1.0,0.0,-60.0,-15.0,1.0,-1.0,3.0,-2.0
1701799037.633934,-5.0,-12.0,-31.0,-2.0,1.0,0.0,-7.0,-10.0
1701799037.633934,12.0,1.0,9.0,-1.0,-1.0,-2.0,2.0,17.0
1701799037.633934,0.0,0.0,-21.0,-6.0,-1.0,2.0,8.0,-19.0
1701799037.633934,-10.0,1.0,22.0,5.0,-3.0,-3.0,3.0,1.0
1701799037.633934,-7.0,-5.0,-11.0,-13.0,-6.0,-5.0,3.0,-9.0
1701799037.6543384,-10.0,-9.0,-9.0,-11.0,1.0,-1.0,-12.0,-6.0
1701799037.6543384,-15.0,6.0,2.0,2.0,1.0,1.0,1.0,13.0
1701799037.6543384,15.0,12.0,37.0,16.0,4.0,4.0,18.0,4.0
1701799037.6543384,1.0,4.0,-13.0,10.0,0.0,-1.0,-7.0,-8.0
1701799037.6639357,5.0,-4.0,-19.0,-34.0,-7.0,0.0,-5.0,-15.0
1701799037.673938,-13.0,3.0,28.0,5.0,-5.0,-4.0,5.0,15.0
1701799037.673938,2.0,-11.0,-19.0,20.0,0.0,-3.0,-6.0,-7.0
1701799037.673938,-5.0,8.0,4.0,10.0,8.0,-1.0,-11.0,0.0
1701799037.6939332,3.0,-4.0,-9.0,-5.0,-6.0,-2.0,-4.0,5.0
1701799037.6939332,1.0,16.0,53.0,15.0,15.0,11.0,26.0,12.0
1701799037.6939332,-7.0,-4.0,18.0,-14.0,-14.0,-7.0,-4.0,4.0
1701799037.6939332,17.0,2.0,-9.0,-2.0,0.0,0.0,7.0,4.0
1701799037.714314,3.0,20.0,0.0,1.0,5.0,0.0,-12.0,-7.0
1701799037.714314,-6.0,-23.0,-76.0,15.0,-11.0,-7.0,-15.0,-10.0
1701799037.714314,1.0,4.0,12.0,-2.0,1.0,1.0,6.0,9.0
1701799037.714314,-1.0,-1.0,19.0,-5.0,1.0,0.0,-9.0,-6.0
1701799037.7339356,-3.0,-1.0,-7.0,19.0,-2.0,2.0,5.0,-3.0
1701799037.7339356,0.0,-9.0,-10.0,-32.0,-5.0,-2.0,-5.0,-1.0
1701799037.7339356,5.0,-3.0,-3.0,5.0,1.0,2.0,-2.0,-6.0
1701799037.7339356,6.0,1.0,15.0,-1.0,-2.0,0.0,-11.0,-15.0
1701799037.7539759,-14.0,16.0,-11.0,-11.0,-4.0,-5.0,6.0,7.0
1701799037.7539759,20.0,-11.0,20.0,-2.0,-1.0,3.0,12.0,1.0
1701799037.7539759,-21.0,-39.0,-84.0,-28.0,-13.0,-6.0,-5.0,0.0
1701799037.7539759,-10.0,-12.0,16.0,1.0,1.0,2.0,6.0,4.0
1701799037.7743683,-11.0,37.0,19.0,10.0,4.0,-1.0,3.0,3.0
1701799037.7743683,26.0,13.0,2.0,6.0,0.0,-7.0,-36.0,-19.0
1701799037.7743683,-20.0,-1.0,58.0,9.0,5.0,1.0,18.0,4.0
1701799037.7743683,-12.0,-12.0,-15.0,-20.0,-12.0,-4.0,5.0,4.0
1701799037.7939804,-5.0,-25.0,-8.0,13.0,-3.0,-4.0,-10.0,2.0
1701799037.7939804,-9.0,17.0,3.0,-11.0,-3.0,-5.0,-6.0,-8.0
1701799037.7939804,5.0,-3.0,45.0,3.0,3.0,5.0,-3.0,-20.0
1701799037.7939804,16.0,1.0,-63.0,-4.0,0.0,2.0,9.0,14.0
1701799037.814002,-4.0,-4.0,0.0,3.0,-1.0,2.0,5.0,-4.0
1701799037.814002,-4.0,2.0,-3.0,-3.0,-1.0,-5.0,-16.0,-8.0
1701799037.814002,11.0,11.0,-8.0,1.0,6.0,1.0,-2.0,12.0
1701799037.814002,-2.0,-13.0,37.0,-1.0,-11.0,-6.0,8.0,7.0
1701799037.8343098,4.0,-37.0,-72.0,-2.0,3.0,2.0,1.0,-5.0
1701799037.8343098,-14.0,-1.0,28.0,-18.0,-12.0,-1.0,13.0,8.0
1701799037.8343098,11.0,8.0,31.0,37.0,4.0,-7.0,-12.0,-7.0
1701799037.8343098,-2.0,11.0,20.0,-5.0,4.0,2.0,0.0,-4.0
1701799037.8543258,0.0,-17.0,-55.0,-50.0,-30.0,-10.0,-5.0,-2.0
1701799037.8543258,-9.0,-23.0,11.0,13.0,45.0,15.0,1.0,2.0
1701799037.8543258,11.0,5.0,-11.0,-1.0,1.0,4.0,3.0,9.0
1701799037.8543258,-10.0,13.0,18.0,28.0,-6.0,-8.0,-9.0,-16.0
1701799037.874707,0.0,2.0,43.0,36.0,4.0,-2.0,1.0,0.0
1701799037.874707,-12.0,-12.0,-30.0,-17.0,-16.0,-8.0,-4.0,-1.0
1701799037.874707,0.0,14.0,32.0,10.0,-1.0,1.0,-4.0,-17.0
1701799037.874707,10.0,13.0,13.0,-17.0,-1.0,-3.0,-21.0,14.0
1701799037.8943217,-14.0,-15.0,-35.0,-28.0,-10.0,-8.0,-6.0,-17.0
1701799037.8943217,-12.0,-1.0,-5.0,8.0,-1.0,12.0,49.0,13.0
1701799037.8943217,6.0,-4.0,-11.0,-2.0,1.0,0.0,-4.0,4.0
1701799037.8943217,-8.0,6.0,-2.0,-15.0,-7.0,2.0,1.0,-6.0
1701799037.9045396,46.0,13.0,34.0,8.0,2.0,-4.0,-10.0,4.0
1701799037.9045396,-33.0,-15.0,2.0,4.0,-1.0,-7.0,-18.0,-11.0
1701799037.9300337,-1.0,15.0,-7.0,-9.0,-2.0,2.0,12.0,10.0
1701799037.9300337,-5.0,-24.0,-33.0,-7.0,-3.0,-6.0,-15.0,-5.0
1701799037.9371493,-12.0,-8.0,21.0,0.0,6.0,-2.0,-8.0,-20.0
1701799037.9371493,7.0,-4.0,6.0,16.0,1.0,2.0,0.0,20.0
1701799037.9371493,7.0,-1.0,-57.0,-14.0,-2.0,2.0,14.0,15.0
1701799037.9371493,11.0,-1.0,18.0,-5.0,1.0,2.0,6.0,-26.0
1701799037.957486,-18.0,-12.0,-8.0,11.0,0.0,-3.0,-15.0,-19.0
1701799037.957486,1.0,11.0,15.0,-4.0,-7.0,-9.0,-15.0,-8.0
1701799037.957486,-8.0,-2.0,4.0,16.0,-1.0,-4.0,-10.0,-3.0
1701799037.957486,6.0,19.0,4.0,-25.0,-1.0,5.0,15.0,9.0
1701799037.9774945,3.0,-13.0,-65.0,3.0,1.0,1.0,8.0,9.0
1701799037.9774945,4.0,-5.0,-26.0,-20.0,1.0,0.0,1.0,-9.0
1701799037.9774945,12.0,7.0,-35.0,-22.0,-2.0,-4.0,-8.0,3.0
1701799037.9774945,-10.0,-7.0,8.0,55.0,6.0,-3.0,6.0,-3.0
1701799037.9878342,3.0,21.0,13.0,-22.0,7.0,7.0,7.0,7.0
1701799037.9878342,8.0,-9.0,-15.0,-28.0,-20.0,-13.0,-11.0,-3.0
1701799037.9978,-6.0,-3.0,27.0,14.0,6.0,5.0,-1.0,-3.0
1701799037.9978,-19.0,-11.0,-24.0,30.0,5.0,3.0,0.0,0.0
1701799038.0178826,-10.0,-13.0,-9.0,-39.0,-12.0,-5.0,0.0,2.0
1701799038.0178826,10.0,6.0,-15.0,-4.0,3.0,-1.0,-3.0,3.0
1701799038.0178826,-4.0,-2.0,18.0,-12.0,-8.0,-5.0,-3.0,-18.0
1701799038.0178826,-6.0,-3.0,13.0,-22.0,-7.0,-7.0,-18.0,-25.0
1701799038.0374963,12.0,9.0,47.0,45.0,6.0,-1.0,-10.0,8.0
1701799038.0374963,0.0,-7.0,7.0,8.0,-1.0,4.0,27.0,31.0
1701799038.0374963,2.0,5.0,-8.0,-19.0,-5.0,2.0,2.0,-13.0
1701799038.0374963,-5.0,0.0,-6.0,-5.0,1.0,2.0,14.0,32.0
1701799038.0478199,2.0,-4.0,-17.0,-2.0,-2.0,0.0,3.0,-2.0
1701799038.0478199,-6.0,7.0,8.0,6.0,-2.0,-7.0,-21.0,-40.0
1701799038.0574987,-2.0,5.0,35.0,6.0,2.0,-3.0,-19.0,0.0
1701799038.0574987,-4.0,-33.0,-15.0,-13.0,-4.0,-2.0,7.0,17.0
1701799038.0778928,-2.0,6.0,31.0,12.0,4.0,8.0,7.0,2.0
1701799038.0778928,3.0,-1.0,16.0,-1.0,-3.0,-1.0,7.0,0.0
1701799038.0778928,15.0,22.0,33.0,2.0,-2.0,-4.0,-1.0,19.0
1701799038.0778928,-3.0,6.0,-11.0,-3.0,-2.0,-3.0,-6.0,-43.0
1701799038.0874965,-23.0,-10.0,16.0,-3.0,-3.0,-5.0,0.0,34.0
1701799038.0874965,-7.0,-14.0,-8.0,0.0,2.0,0.0,-6.0,-17.0
1701799038.1074972,-9.0,-10.0,-14.0,-18.0,-6.0,-7.0,-8.0,-11.0
1701799038.1074972,24.0,30.0,1.0,9.0,-5.0,0.0,3.0,22.0
1701799038.1074972,5.0,10.0,10.0,-10.0,5.0,2.0,12.0,-8.0
1701799038.1074972,2.0,10.0,-41.0,21.0,3.0,2.0,-3.0,6.0
1701799038.117513,1.0,7.0,33.0,2.0,2.0,2.0,1.0,9.0
1701799038.117513,4.0,-3.0,-18.0,-18.0,9.0,3.0,8.0,5.0
1701799038.1374965,-9.0,7.0,44.0,56.0,-6.0,-4.0,-7.0,-12.0
1701799038.1374965,13.0,16.0,-27.0,-14.0,-3.0,1.0,1.0,0.0
1701799038.1374965,-4.0,-6.0,-27.0,-68.0,-8.0,-4.0,5.0,-2.0
1701799038.1374965,-2.0,-9.0,-6.0,23.0,-3.0,-2.0,-2.0,0.0
1701799038.1474962,14.0,12.0,81.0,53.0,-2.0,-1.0,-1.0,-5.0
1701799038.1474962,-14.0,-3.0,-59.0,-49.0,2.0,-4.0,-9.0,-9.0
1701799038.1578314,-8.0,-15.0,2.0,69.0,0.0,-5.0,-7.0,-22.0
1701799038.1578314,1.0,10.0,11.0,-49.0,3.0,5.0,5.0,19.0
1701799038.1678574,-1.0,-5.0,17.0,1.0,-3.0,-10.0,-35.0,-21.0
1701799038.1678574,-17.0,2.0,9.0,2.0,-7.0,0.0,3.0,16.0
1701799038.1777563,15.0,-20.0,-22.0,-1.0,4.0,10.0,41.0,26.0
1701799038.1777563,-17.0,-9.0,-13.0,-16.0,-5.0,-3.0,0.0,-7.0
1701799038.1975,15.0,2.0,-12.0,-8.0,6.0,0.0,2.0,11.0
1701799038.1975,-7.0,4.0,20.0,7.0,-5.0,-6.0,-17.0,-7.0
1701799038.1975,-7.0,-1.0,-16.0,-8.0,-1.0,1.0,-5.0,-8.0
1701799038.1975,-5.0,0.0,16.0,14.0,-1.0,-2.0,-18.0,15.0
1701799038.207529,4.0,-4.0,-30.0,-30.0,-3.0,-2.0,17.0,2.0
1701799038.207529,7.0,0.0,37.0,18.0,5.0,9.0,11.0,33.0
1701799038.2178266,-11.0,3.0,-33.0,-4.0,-4.0,0.0,10.0,-53.0
1701799038.2178266,-1.0,-26.0,31.0,7.0,0.0,-9.0,-17.0,-18.0
1701799038.2278209,-20.0,-9.0,-8.0,-12.0,7.0,0.0,-12.0,-12.0
1701799038.2278209,6.0,1.0,3.0,1.0,0.0,-4.0,-12.0,-12.0
1701799038.2374964,-5.0,-18.0,-8.0,-1.0,-8.0,-2.0,-1.0,25.0
1701799038.2374964,5.0,19.0,-4.0,-7.0,-6.0,-6.0,-8.0,-7.0
1701799038.2576659,-6.0,-8.0,-52.0,-16.0,8.0,1.0,2.0,1.0
1701799038.2576659,1.0,-2.0,36.0,23.0,-1.0,3.0,12.0,5.0
1701799038.2576659,1.0,2.0,-20.0,2.0,-7.0,-4.0,-9.0,4.0
1701799038.2576659,7.0,5.0,-28.0,25.0,4.0,2.0,8.0,-6.0
1701799038.2775066,-15.0,-1.0,44.0,21.0,-8.0,-3.0,3.0,0.0
1701799038.2775066,4.0,11.0,31.0,-24.0,-7.0,-2.0,2.0,-10.0
1701799038.2775066,3.0,16.0,7.0,28.0,10.0,-1.0,-11.0,3.0
1701799038.2775066,-1.0,-13.0,-49.0,-26.0,-11.0,-3.0,-2.0,1.0
1701799038.297504,-4.0,-14.0,-46.0,9.0,-3.0,-4.0,4.0,-4.0
1701799038.297504,12.0,2.0,-31.0,-40.0,-7.0,-5.0,-10.0,-14.0
1701799038.3175488,-20.0,17.0,122.0,50.0,11.0,4.0,0.0,-1.0
1701799038.3175488,7.0,-22.0,-42.0,-31.0,-16.0,-8.0,-7.0,-4.0
1701799038.3275616,5.0,16.0,9.0,-16.0,0.0,1.0,2.0,-6.0
1701799038.3275616,4.0,-9.0,24.0,19.0,-1.0,-7.0,-21.0,4.0
1701799038.3275616,4.0,-7.0,-24.0,-14.0,4.0,3.0,8.0,7.0
1701799038.3275616,5.0,9.0,10.0,3.0,5.0,9.0,48.0,40.0
1701799038.337898,-3.0,-11.0,-32.0,-9.0,-3.0,0.0,3.0,12.0
1701799038.337898,-10.0,-12.0,-4.0,0.0,-2.0,-1.0,3.0,-19.0
1701799038.337898,8.0,-8.0,-8.0,-13.0,-1.0,-2.0,-6.0,10.0
1701799038.337898,22.0,18.0,24.0,14.0,3.0,-3.0,-27.0,-19.0
1701799038.3575766,-18.0,7.0,5.0,-20.0,-6.0,2.0,1.0,4.0
1701799038.3575766,2.0,-8.0,12.0,24.0,4.0,2.0,10.0,0.0
1701799038.3675957,-6.0,-15.0,-45.0,-24.0,-6.0,-9.0,-14.0,-9.0
1701799038.3675957,-10.0,-14.0,10.0,6.0,2.0,0.0,13.0,22.0
1701799038.377603,4.0,8.0,13.0,-3.0,0.0,1.0,-6.0,-13.0
1701799038.377603,22.0,4.0,-13.0,-3.0,3.0,5.0,25.0,14.0
1701799038.377603,-50.0,-1.0,-15.0,0.0,-9.0,-10.0,-28.0,-63.0
1701799038.377603,-10.0,1.0,51.0,-17.0,-14.0,-2.0,-8.0,-10.0
1701799038.3979452,2.0,-12.0,-6.0,-7.0,23.0,6.0,3.0,4.0
1701799038.3979452,-11.0,-5.0,37.0,60.0,-1.0,-5.0,-8.0,7.0
1701799038.3979452,21.0,5.0,-5.0,-12.0,0.0,1.0,7.0,20.0
1701799038.3979452,-2.0,0.0,-9.0,-31.0,-24.0,-10.0,-4.0,-6.0
1701799038.417565,-2.0,1.0,-30.0,12.0,4.0,1.0,-2.0,-4.0
1701799038.417565,4.0,-4.0,-57.0,-46.0,-5.0,0.0,-3.0,-1.0
1701799038.4275959,0.0,-14.0,-1.0,27.0,6.0,-1.0,-3.0,9.0
1701799038.4275959,2.0,15.0,50.0,22.0,10.0,5.0,-7.0,-16.0
1701799038.4391124,3.0,-9.0,-4.0,-16.0,-17.0,-7.0,0.0,1.0
1701799038.4391124,5.0,2.0,-60.0,-10.0,-3.0,-4.0,-4.0,3.0
1701799038.4399269,-1.0,12.0,25.0,12.0,0.0,0.0,-1.0,-6.0
1701799038.4399269,1.0,4.0,32.0,-15.0,6.0,0.0,-3.0,0.0
1701799038.4616327,-1.0,-6.0,-82.0,-16.0,-7.0,-3.0,3.0,-5.0
1701799038.4616327,7.0,7.0,55.0,8.0,6.0,-1.0,-9.0,0.0
1701799038.4707513,6.0,-6.0,-9.0,-7.0,-6.0,-5.0,-14.0,12.0
1701799038.4707513,-10.0,11.0,-7.0,27.0,12.0,4.0,4.0,-12.0
1701799038.4707513,-5.0,5.0,36.0,-15.0,-5.0,-3.0,-13.0,9.0
1701799038.4707513,-15.0,-1.0,12.0,4.0,0.0,7.0,66.0,18.0
1701799038.4809756,38.0,-4.0,-14.0,-29.0,-4.0,-2.0,-3.0,16.0
1701799038.4809756,-22.0,-7.0,-3.0,18.0,5.0,0.0,-9.0,-18.0
1701799038.4909859,41.0,16.0,21.0,13.0,3.0,7.0,6.0,51.0
1701799038.4909859,-3.0,4.0,-15.0,-18.0,-10.0,-4.0,-15.0,-22.0
1701799038.5008047,-20.0,3.0,-1.0,-8.0,-3.0,-8.0,-9.0,-32.0
1701799038.5008047,-34.0,-45.0,-4.0,4.0,3.0,-5.0,-25.0,-20.0
1701799038.5211964,-12.0,-12.0,-22.0,3.0,0.0,-3.0,-7.0,-19.0
1701799038.5211964,13.0,1.0,24.0,2.0,0.0,5.0,15.0,35.0
1701799038.541141,6.0,29.0,25.0,21.0,3.0,0.0,1.0,17.0
1701799038.541141,3.0,0.0,-55.0,-32.0,-13.0,-4.0,-3.0,-3.0
1701799038.5511403,12.0,4.0,47.0,1.0,18.0,10.0,13.0,2.0
1701799038.5511403,-21.0,-11.0,-11.0,10.0,1.0,-6.0,-13.0,-20.0
1701799038.5511403,-1.0,-7.0,-30.0,-20.0,1.0,0.0,3.0,-3.0
1701799038.5511403,1.0,0.0,-44.0,-23.0,-14.0,-4.0,2.0,7.0
1701799038.5511403,3.0,-12.0,11.0,4.0,-5.0,-6.0,-10.0,-13.0
1701799038.5511403,-6.0,-7.0,18.0,5.0,3.0,-1.0,-17.0,-9.0
1701799038.5511403,-4.0,-9.0,7.0,-16.0,-6.0,1.0,9.0,6.0
1701799038.5511403,12.0,7.0,12.0,7.0,-1.0,0.0,3.0,5.0
1701799038.5812068,-9.0,3.0,8.0,-10.0,-6.0,-3.0,7.0,-7.0
1701799038.5812068,-2.0,24.0,4.0,2.0,8.0,-1.0,-15.0,-13.0
1701799038.5911398,9.0,-9.0,22.0,6.0,-6.0,0.0,3.0,10.0
1701799038.5911398,4.0,10.0,27.0,-10.0,9.0,3.0,5.0,4.0
1701799038.5911398,-3.0,-13.0,-59.0,-9.0,-8.0,-3.0,-5.0,-10.0
1701799038.5911398,-10.0,-13.0,19.0,3.0,-18.0,-10.0,-11.0,-6.0
1701799038.6013598,-1.0,4.0,16.0,-18.0,-18.0,-3.0,-4.0,-11.0
1701799038.6013598,7.0,16.0,69.0,77.0,50.0,16.0,12.0,5.0
1701799038.6114056,-9.0,-8.0,-70.0,-46.0,-6.0,-3.0,0.0,-5.0
1701799038.6114056,5.0,-3.0,-36.0,-12.0,-1.0,-2.0,-8.0,-6.0
1701799038.6211455,-6.0,-5.0,18.0,3.0,-7.0,-1.0,4.0,6.0
1701799038.6211455,2.0,-1.0,-40.0,-12.0,-10.0,-4.0,-3.0,-6.0
1701799038.6412055,-3.0,7.0,51.0,22.0,3.0,2.0,1.0,-2.0
1701799038.6412055,-2.0,3.0,5.0,-1.0,-3.0,-2.0,-5.0,0.0
1701799038.661141,1.0,-1.0,-29.0,-7.0,5.0,2.0,0.0,2.0
1701799038.6711395,-2.0,-4.0,-5.0,-2.0,-2.0,-1.0,-2.0,-9.0
1701799038.6711395,-2.0,2.0,14.0,9.0,1.0,0.0,2.0,8.0
1701799038.6711395,-1.0,-4.0,-5.0,-16.0,-5.0,-4.0,-4.0,-5.0
1701799038.6711395,-2.0,-7.0,-8.0,3.0,11.0,2.0,0.0,0.0
1701799038.6711395,2.0,-1.0,-16.0,-5.0,-4.0,-3.0,-2.0,-1.0
1701799038.6711395,-3.0,4.0,13.0,3.0,-11.0,-3.0,-1.0,0.0
1701799038.6711395,-2.0,-3.0,3.0,1.0,6.0,3.0,-1.0,-1.0
1701799038.6711395,-3.0,-1.0,-12.0,2.0,0.0,-3.0,1.0,0.0
1701799038.6711395,3.0,-3.0,3.0,-5.0,-14.0,-5.0,0.0,1.0
1701799038.7011418,-16.0,7.0,13.0,15.0,15.0,6.0,1.0,-10.0
1701799038.7011418,-10.0,-24.0,8.0,5.0,4.0,3.0,2.0,5.0
1701799038.7011418,-2.0,-13.0,-21.0,2.0,6.0,1.0,0.0,-1.0
1701799038.7011418,1.0,-3.0,1.0,-8.0,-13.0,-5.0,0.0,4.0
1701799038.7111676,-4.0,0.0,2.0,-2.0,-6.0,-4.0,-3.0,-4.0
1701799038.7111676,9.0,5.0,-24.0,-7.0,2.0,0.0,-5.0,-2.0
1701799038.721448,-4.0,-1.0,5.0,-1.0,0.0,-2.0,-1.0,-4.0
1701799038.721448,-11.0,-5.0,-4.0,-2.0,-5.0,-3.0,-5.0,-9.0
1701799038.7315114,4.0,2.0,5.0,2.0,-2.0,0.0,1.0,-3.0
1701799038.7315114,-3.0,4.0,-1.0,5.0,1.0,0.0,0.0,-3.0
1701799038.7315114,-1.0,-6.0,4.0,-2.0,-6.0,-5.0,-2.0,-1.0
1701799038.7315114,2.0,4.0,-23.0,-12.0,2.0,0.0,0.0,-6.0
1701799038.7611706,4.0,0.0,12.0,-2.0,-2.0,-3.0,-1.0,-3.0
1701799038.7611706,-3.0,1.0,6.0,1.0,-4.0,-4.0,-4.0,-4.0
1701799038.7611706,-3.0,-4.0,8.0,4.0,2.0,-1.0,-2.0,-3.0
1701799038.7611706,2.0,2.0,-10.0,4.0,2.0,0.0,0.0,-1.0
1701799038.7815378,1.0,3.0,-1.0,-6.0,-3.0,-2.0,-1.0,-3.0
1701799038.7815378,2.0,-9.0,-4.0,-4.0,-6.0,-2.0,-2.0,-1.0
1701799038.7815378,-5.0,6.0,4.0,2.0,2.0,1.0,-3.0,0.0
1701799038.7815378,0.0,-1.0,-1.0,13.0,-1.0,-1.0,-2.0,6.0
1701799038.791142,2.0,-1.0,-1.0,-3.0,0.0,-1.0,-1.0,0.0
1701799038.791142,-1.0,0.0,0.0,-5.0,-4.0,-2.0,-1.0,-1.0
1701799038.791142,1.0,0.0,-1.0,-4.0,0.0,1.0,0.0,2.0
1701799038.791142,-1.0,-1.0,-13.0,-1.0,0.0,0.0,-1.0,-1.0
1701799038.821139,1.0,1.0,8.0,-7.0,-4.0,-2.0,0.0,1.0
1701799038.821139,-4.0,0.0,13.0,8.0,0.0,-2.0,-4.0,-2.0
1701799038.821139,1.0,-2.0,-9.0,-13.0,-1.0,-2.0,-1.0,0.0
1701799038.821139,9.0,0.0,6.0,0.0,-1.0,0.0,1.0,5.0
1701799038.8415508,-7.0,-4.0,-1.0,4.0,-3.0,-3.0,0.0,-1.0
1701799038.8415508,-1.0,-1.0,-10.0,-6.0,0.0,1.0,-2.0,-10.0
1701799038.8415508,2.0,9.0,0.0,-2.0,2.0,2.0,1.0,-6.0
1701799038.8415508,0.0,0.0,16.0,6.0,-2.0,-2.0,-1.0,2.0
1701799038.8513885,3.0,-2.0,1.0,4.0,4.0,0.0,-1.0,-3.0
1701799038.8513885,-4.0,5.0,-12.0,-6.0,-5.0,-2.0,-1.0,6.0
1701799038.8513885,4.0,-7.0,15.0,8.0,1.0,-1.0,1.0,2.0
1701799038.8513885,-4.0,0.0,15.0,0.0,-5.0,-2.0,-1.0,-2.0
1701799038.8711402,-3.0,-8.0,-60.0,-27.0,-10.0,-5.0,-3.0,-3.0
1701799038.8711402,-1.0,1.0,-4.0,-7.0,10.0,5.0,0.0,2.0
1701799038.8811398,-2.0,-2.0,0.0,21.0,0.0,-1.0,-3.0,-1.0
1701799038.8811398,-2.0,-2.0,6.0,-8.0,1.0,0.0,-1.0,4.0
1701799038.9015496,-12.0,1.0,23.0,9.0,-6.0,-1.0,3.0,2.0
1701799038.9015496,7.0,-5.0,-8.0,-7.0,-1.0,2.0,0.0,0.0
1701799038.9015496,-7.0,-1.0,-4.0,-1.0,-3.0,-1.0,0.0,-2.0
1701799038.9015496,10.0,-7.0,-4.0,-3.0,-1.0,0.0,0.0,1.0
1701799038.9211388,-11.0,-2.0,5.0,3.0,1.0,-1.0,-4.0,-2.0
1701799038.9211388,-2.0,0.0,31.0,17.0,-2.0,-3.0,-2.0,-2.0
1701799038.9211388,-2.0,-2.0,-12.0,-4.0,2.0,1.0,-1.0,-1.0
1701799038.9211388,-5.0,0.0,5.0,5.0,0.0,-2.0,-1.0,-1.0
1701799038.9411469,7.0,-2.0,-7.0,-6.0,2.0,-1.0,-2.0,6.0
1701799038.9411469,-13.0,2.0,9.0,4.0,-2.0,-2.0,-3.0,-10.0
1701799038.9411469,0.0,-3.0,-10.0,-8.0,-7.0,-3.0,-10.0,4.0
1701799038.9411469,-4.0,4.0,-6.0,-7.0,0.0,-1.0,-10.0,-3.0
1701799038.961451,14.0,-3.0,5.0,11.0,4.0,4.0,20.0,-1.0
1701799038.961451,-2.0,-5.0,13.0,6.0,-2.0,-5.0,-8.0,9.0
1701799038.961451,0.0,-2.0,-2.0,-4.0,-1.0,-1.0,18.0,2.0
1701799038.961451,-5.0,3.0,-6.0,-3.0,-1.0,3.0,14.0,3.0
1701799039.0021248,-11.0,-1.0,-9.0,0.0,-4.0,-2.0,-15.0,-11.0
1701799039.0021248,2.0,14.0,-3.0,-5.0,-5.0,-1.0,-3.0,-5.0
1701799039.0021248,1.0,-7.0,12.0,8.0,0.0,-3.0,-6.0,-3.0
1701799039.0021248,2.0,1.0,7.0,6.0,0.0,-1.0,-7.0,0.0
1701799039.0021248,5.0,9.0,5.0,2.0,-1.0,1.0,-2.0,0.0
1701799039.0021248,0.0,-7.0,-15.0,-9.0,1.0,-1.0,2.0,-3.0
1701799039.0021248,-1.0,2.0,-11.0,-13.0,-1.0,0.0,-6.0,-2.0
1701799039.0021248,-5.0,-4.0,-7.0,-4.0,-3.0,1.0,5.0,-2.0
1701799039.022163,0.0,-1.0,8.0,7.0,1.0,0.0,-5.0,-1.0
1701799039.022163,-2.0,-3.0,-8.0,10.0,4.0,-2.0,-2.0,-1.0
1701799039.022163,11.0,3.0,1.0,-16.0,-6.0,-1.0,-1.0,1.0
1701799039.022163,-9.0,-3.0,-1.0,-6.0,-3.0,-2.0,-3.0,-13.0
1701799039.0421255,-1.0,2.0,11.0,-4.0,-4.0,-3.0,-3.0,-6.0
1701799039.0421255,6.0,0.0,-14.0,-8.0,-6.0,0.0,5.0,11.0
1701799039.0421255,-4.0,-5.0,17.0,33.0,18.0,5.0,2.0,-10.0
1701799039.0421255,-1.0,-4.0,-17.0,-18.0,-2.0,-4.0,-2.0,12.0
1701799039.0523944,0.0,-1.0,-3.0,3.0,0.0,-4.0,-7.0,-2.0
1701799039.0523944,-3.0,-5.0,9.0,3.0,-1.0,-2.0,3.0,-7.0
1701799039.0523944,-2.0,0.0,-19.0,-27.0,-12.0,-1.0,-5.0,0.0
1701799039.0523944,0.0,2.0,-1.0,-7.0,-9.0,-3.0,-2.0,-5.0
1701799039.0825367,0.0,1.0,4.0,10.0,16.0,6.0,3.0,3.0
1701799039.0825367,2.0,-3.0,-1.0,-8.0,4.0,0.0,-2.0,1.0
1701799039.0825367,-11.0,0.0,21.0,14.0,-4.0,-2.0,-1.0,0.0
1701799039.0825367,10.0,0.0,-5.0,-5.0,0.0,1.0,1.0,2.0
1701799039.1021252,3.0,-3.0,3.0,-3.0,-8.0,-3.0,-2.0,1.0
1701799039.1021252,2.0,5.0,-2.0,2.0,-2.0,-3.0,0.0,-3.0
1701799039.1021252,-3.0,-2.0,-10.0,-3.0,-1.0,-3.0,-3.0,0.0
1701799039.1021252,3.0,0.0,-5.0,-4.0,0.0,-1.0,-7.0,8.0
1701799039.112501,3.0,0.0,-3.0,-8.0,-5.0,-1.0,14.0,6.0
1701799039.112501,-14.0,-2.0,-7.0,-6.0,-3.0,-4.0,-8.0,-13.0
1701799039.112501,-4.0,0.0,-1.0,-3.0,-2.0,-2.0,-3.0,-2.0
1701799039.112501,-2.0,-1.0,2.0,16.0,2.0,-2.0,-3.0,1.0
1701799039.1425052,3.0,-1.0,2.0,-10.0,2.0,2.0,10.0,0.0
1701799039.1425052,1.0,-3.0,-18.0,9.0,0.0,0.0,4.0,1.0
1701799039.1425052,0.0,-2.0,4.0,-7.0,-6.0,-4.0,-4.0,-2.0
1701799039.1425052,-2.0,-3.0,-9.0,-7.0,3.0,3.0,2.0,-1.0
1701799039.162129,-4.0,-4.0,2.0,0.0,-2.0,-3.0,-6.0,0.0
1701799039.162129,0.0,-5.0,2.0,1.0,1.0,4.0,7.0,1.0
1701799039.162129,3.0,-1.0,-11.0,-3.0,-2.0,0.0,-2.0,-1.0
1701799039.162129,0.0,0.0,14.0,9.0,3.0,2.0,0.0,-3.0
1701799039.172126,-4.0,-8.0,-22.0,-8.0,-4.0,-3.0,-8.0,-4.0
1701799039.172126,1.0,4.0,12.0,6.0,-2.0,-1.0,-1.0,0.0
1701799039.172126,-4.0,-2.0,-8.0,-1.0,-1.0,-1.0,-1.0,-2.0
1701799039.172126,5.0,3.0,-6.0,-10.0,-5.0,-5.0,2.0,-4.0
1701799039.2021325,-2.0,0.0,-6.0,-3.0,-3.0,-2.0,-3.0,-2.0
1701799039.2021325,3.0,-1.0,6.0,5.0,-3.0,-2.0,-7.0,0.0
1701799039.212129,-1.0,2.0,-26.0,-12.0,1.0,-1.0,-4.0,-5.0
1701799039.212129,-6.0,-3.0,8.0,1.0,-2.0,1.0,0.0,0.0
1701799039.212129,-3.0,-1.0,5.0,-3.0,-1.0,-1.0,3.0,-2.0
1701799039.212129,2.0,-2.0,-13.0,-8.0,-3.0,0.0,2.0,1.0
1701799039.212129,0.0,-1.0,0.0,-1.0,-2.0,-1.0,5.0,4.0
1701799039.212129,11.0,0.0,16.0,12.0,3.0,-1.0,-4.0,1.0
1701799039.232363,0.0,-2.0,0.0,-2.0,-1.0,1.0,-7.0,-4.0
1701799039.242134,-1.0,0.0,0.0,-5.0,0.0,-3.0,0.0,-2.0
1701799039.242134,-6.0,3.0,-5.0,-4.0,-1.0,-3.0,-9.0,-3.0
1701799039.242134,-1.0,-3.0,2.0,8.0,3.0,0.0,2.0,-2.0
1701799039.2821298,0.0,0.0,9.0,2.0,0.0,-1.0,-5.0,1.0
1701799039.2821298,0.0,1.0,10.0,4.0,-1.0,0.0,5.0,0.0
1701799039.2821298,5.0,-8.0,-29.0,-21.0,-3.0,0.0,8.0,9.0
1701799039.2821298,-21.0,-3.0,-5.0,2.0,-2.0,1.0,14.0,-26.0
1701799039.2821298,14.0,-3.0,-3.0,2.0,-4.0,-2.0,-3.0,9.0
1701799039.2821298,-12.0,1.0,6.0,-4.0,1.0,-1.0,-9.0,-2.0
1701799039.2821298,3.0,1.0,17.0,5.0,-1.0,-4.0,-3.0,1.0
1701799039.2821298,-6.0,-1.0,-3.0,-2.0,-2.0,0.0,-2.0,3.0
1701799039.292282,-11.0,-3.0,-2.0,-3.0,-1.0,-4.0,-2.0,-5.0
1701799039.292282,10.0,-1.0,3.0,-1.0,0.0,-1.0,-4.0,-5.0
1701799039.3021302,2.0,-3.0,0.0,0.0,1.0,2.0,-2.0,0.0
1701799039.3021302,-1.0,1.0,5.0,3.0,-2.0,-1.0,0.0,-2.0
1701799039.3225052,-3.0,-2.0,-14.0,-2.0,0.0,1.0,1.0,-4.0
1701799039.3225052,2.0,-1.0,-8.0,-8.0,0.0,2.0,-1.0,5.0
1701799039.3225052,-6.0,-2.0,-2.0,1.0,-3.0,-3.0,0.0,-6.0
1701799039.3225052,-1.0,-6.0,-5.0,-2.0,-3.0,-1.0,-3.0,1.0
1701799039.332129,0.0,0.0,9.0,6.0,-4.0,-2.0,0.0,0.0
1701799039.332129,-1.0,-1.0,-13.0,-6.0,3.0,-1.0,-2.0,-1.0
1701799039.332129,0.0,-2.0,-8.0,-6.0,-4.0,-1.0,2.0,0.0
1701799039.332129,1.0,1.0,4.0,5.0,-5.0,-4.0,-4.0,0.0
1701799039.3621266,2.0,6.0,-4.0,-3.0,5.0,-2.0,-7.0,-13.0
1701799039.3621266,-3.0,-3.0,1.0,17.0,3.0,0.0,6.0,8.0
1701799039.3621266,-1.0,0.0,6.0,10.0,1.0,0.0,-2.0,-2.0
1701799039.3621266,8.0,-2.0,-11.0,-4.0,-4.0,-3.0,-4.0,4.0
1701799039.3824134,-17.0,1.0,13.0,0.0,0.0,-2.0,-4.0,-13.0
1701799039.3824134,1.0,1.0,-9.0,-3.0,0.0,0.0,-2.0,-8.0
1701799039.3824134,-8.0,-5.0,-4.0,-9.0,-5.0,-3.0,-2.0,-1.0
1701799039.3824134,-1.0,-1.0,-10.0,-9.0,0.0,1.0,0.0,2.0
1701799039.3924127,0.0,-3.0,4.0,7.0,-3.0,-3.0,0.0,4.0
1701799039.3924127,0.0,-3.0,-3.0,-4.0,1.0,0.0,1.0,-3.0
1701799039.3924127,-2.0,0.0,2.0,4.0,1.0,0.0,-1.0,-1.0
1701799039.3924127,-4.0,1.0,0.0,-2.0,-4.0,-3.0,-5.0,-7.0
1701799039.4124727,9.0,1.0,-4.0,-12.0,-1.0,-1.0,3.0,14.0
1701799039.4124727,0.0,2.0,-4.0,3.0,-7.0,-4.0,-4.0,1.0
1701799039.4221458,2.0,2.0,13.0,0.0,3.0,2.0,2.0,2.0
1701799039.4221458,-3.0,0.0,-8.0,-2.0,1.0,0.0,-2.0,-1.0
1701799039.4423687,1.0,0.0,-1.0,2.0,1.0,-1.0,-3.0,-1.0
1701799039.4423687,-1.0,-2.0,-3.0,-5.0,-5.0,-1.0,3.0,-6.0
1701799039.4423687,-2.0,-1.0,0.0,-1.0,0.0,0.0,0.0,-1.0
1701799039.4423687,-2.0,0.0,1.0,-1.0,0.0,-2.0,-3.0,-4.0
1701799039.4522996,0.0,0.0,-3.0,1.0,-1.0,0.0,2.0,0.0
1701799039.4522996,-1.0,-2.0,4.0,-6.0,-3.0,-5.0,-2.0,0.0
1701799039.4522996,-3.0,-2.0,-2.0,6.0,3.0,-1.0,1.0,-5.0
1701799039.4522996,2.0,1.0,2.0,-1.0,-2.0,-1.0,-4.0,2.0
1701799039.482135,1.0,-2.0,0.0,-2.0,-3.0,-1.0,0.0,0.0
1701799039.482135,6.0,-2.0,-6.0,-4.0,-2.0,0.0,-2.0,2.0
1701799039.492131,-6.0,0.0,0.0,2.0,-2.0,-2.0,2.0,-3.0
1701799039.492131,-4.0,-1.0,3.0,-2.0,1.0,-1.0,0.0,-1.0
1701799039.5148754,-1.0,-2.0,-10.0,2.0,-2.0,-2.0,-3.0,-1.0
1701799039.5148754,-4.0,-3.0,-7.0,3.0,-1.0,-2.0,-4.0,-3.0
1701799039.5148754,4.0,3.0,1.0,-4.0,-2.0,-1.0,-2.0,6.0
1701799039.5148754,1.0,-7.0,-2.0,-4.0,3.0,-2.0,1.0,0.0
1701799039.5184507,-1.0,1.0,3.0,1.0,2.0,1.0,-1.0,-2.0
1701799039.5184507,7.0,1.0,3.0,1.0,-1.0,-1.0,-1.0,4.0
