1701798872.6449234,1.0,6.0,-2.0,-1.0,-2.0,-1.0,-1.0,-2.0
1701798872.6449234,0.0,-1.0,-1.0,-1.0,0.0,-1.0,-1.0,1.0
1701798872.6449234,-2.0,-3.0,-4.0,-1.0,-2.0,-3.0,0.0,-2.0
1701798872.6449234,-3.0,-4.0,-1.0,-2.0,0.0,-2.0,-2.0,-1.0
1701798872.654924,1.0,6.0,0.0,-2.0,-1.0,-1.0,0.0,-1.0
1701798872.654924,0.0,1.0,0.0,-1.0,-2.0,-2.0,-4.0,0.0
1701798872.66492,1.0,-8.0,-2.0,-2.0,0.0,1.0,0.0,-1.0
1701798872.66492,0.0,-5.0,0.0,0.0,0.0,-1.0,-1.0,1.0
1701798872.6749256,-5.0,8.0,0.0,-3.0,1.0,-2.0,-2.0,-2.0
1701798872.6749256,-1.0,-11.0,-2.0,-2.0,0.0,-1.0,-2.0,-2.0
1701798872.6749256,0.0,0.0,0.0,0.0,-1.0,0.0,-1.0,-1.0
1701798872.6749256,1.0,-1.0,-2.0,-2.0,-1.0,-1.0,-3.0,1.0
1701798872.7049282,0.0,2.0,-1.0,-1.0,0.0,-1.0,-1.0,2.0
1701798872.7049282,-1.0,4.0,-1.0,0.0,-1.0,0.0,-1.0,-1.0
1701798872.7049282,0.0,-3.0,-2.0,0.0,-1.0,0.0,-2.0,1.0
1701798872.7049282,1.0,-3.0,-2.0,0.0,-1.0,0.0,0.0,-2.0
1701798872.7349205,-2.0,2.0,-1.0,-1.0,-2.0,-1.0,-2.0,-1.0
1701798872.7349205,-1.0,0.0,-1.0,-1.0,-2.0,-2.0,0.0,0.0
1701798872.7349205,0.0,0.0,1.0,-2.0,0.0,-2.0,-1.0,-3.0
1701798872.7349205,-1.0,-1.0,0.0,-1.0,-2.0,-2.0,-1.0,-1.0
1701798872.7349205,1.0,-2.0,-1.0,-1.0,-2.0,-1.0,-2.0,-1.0
1701798872.7349205,-1.0,-1.0,0.0,0.0,-1.0,-2.0,1.0,-1.0
1701798872.7449193,-1.0,2.0,-2.0,0.0,-1.0,-2.0,-1.0,0.0
1701798872.7449193,-2.0,0.0,0.0,0.0,0.0,-1.0,-1.0,-1.0
1701798872.7649229,0.0,-2.0,0.0,-1.0,-1.0,-2.0,-1.0,1.0
1701798872.7649229,-2.0,-2.0,0.0,-1.0,-1.0,-2.0,-2.0,-1.0
1701798872.7649229,-2.0,-1.0,-1.0,-1.0,-1.0,-1.0,-1.0,-1.0
1701798872.7649229,-1.0,-4.0,-1.0,1.0,1.0,-1.0,-2.0,-1.0
1701798872.775144,2.0,0.0,-2.0,-1.0,0.0,-1.0,1.0,0.0
1701798872.775144,-1.0,-1.0,-1.0,-1.0,-1.0,-2.0,-1.0,0.0
1701798872.7949233,0.0,1.0,-1.0,-3.0,-2.0,-2.0,-1.0,-2.0
1701798872.7949233,0.0,-2.0,-1.0,-2.0,-3.0,-1.0,1.0,-1.0
1701798872.7949233,0.0,-1.0,0.0,1.0,0.0,0.0,0.0,0.0
1701798872.7949233,-2.0,-2.0,-2.0,-1.0,0.0,-1.0,-1.0,-2.0
1701798872.7949233,0.0,-1.0,1.0,-1.0,0.0,-3.0,1.0,0.0
1701798872.7949233,-1.0,-2.0,1.0,0.0,-3.0,-1.0,0.0,0.0
1701798872.8249211,0.0,-1.0,-1.0,-1.0,-1.0,-2.0,-1.0,0.0
1701798872.8249211,-1.0,0.0,0.0,-3.0,1.0,-1.0,-1.0,-2.0
1701798872.8249211,0.0,-2.0,-1.0,0.0,-1.0,-1.0,-4.0,0.0
1701798872.8249211,-1.0,1.0,-2.0,-1.0,0.0,-1.0,-1.0,-2.0
1701798872.8352337,-1.0,0.0,0.0,-2.0,-1.0,-2.0,-2.0,-1.0
1701798872.8352337,1.0,-1.0,0.0,1.0,-1.0,-1.0,0.0,1.0
1701798872.845265,-3.0,-1.0,-1.0,-1.0,-1.0,0.0,-2.0,-1.0
1701798872.845265,-1.0,0.0,-1.0,-2.0,-1.0,0.0,-2.0,-1.0
1701798872.8552902,-2.0,0.0,-2.0,0.0,-3.0,1.0,-1.0,-1.0
1701798872.8552902,0.0,-1.0,-1.0,-1.0,-3.0,1.0,-2.0,-2.0
1701798872.8552902,-1.0,-2.0,-3.0,-2.0,0.0,0.0,0.0,0.0
1701798872.8552902,-2.0,-2.0,-4.0,0.0,-1.0,-1.0,-1.0,0.0
1701798872.884923,-1.0,-1.0,-2.0,-1.0,-1.0,0.0,0.0,0.0
1701798872.884923,-1.0,-1.0,-3.0,-2.0,-2.0,-2.0,0.0,-1.0
1701798872.884923,-2.0,-2.0,-3.0,-1.0,-2.0,-1.0,0.0,-2.0
1701798872.884923,-1.0,-1.0,-2.0,-4.0,-1.0,0.0,-2.0,-1.0
1701798872.894927,-1.0,-2.0,-1.0,-1.0,0.0,-3.0,-1.0,-3.0
1701798872.894927,-1.0,-1.0,1.0,1.0,0.0,0.0,-1.0,0.0
1701798872.90515,0.0,-2.0,-1.0,-1.0,-1.0,-1.0,-1.0,0.0
1701798872.90515,0.0,0.0,1.0,-3.0,-1.0,-1.0,1.0,-3.0
1701798872.915173,-3.0,-2.0,-2.0,-2.0,0.0,0.0,-1.0,-2.0
1701798872.915173,-2.0,-1.0,-2.0,-2.0,-2.0,-1.0,-2.0,-3.0
1701798872.915173,0.0,-1.0,-2.0,0.0,-3.0,-1.0,0.0,-2.0
1701798872.915173,-2.0,-2.0,-1.0,0.0,0.0,-2.0,-1.0,-1.0
1701798872.9649253,-2.0,-1.0,0.0,-1.0,0.0,-1.0,0.0,-2.0
1701798872.9649253,-1.0,-1.0,0.0,-1.0,0.0,-3.0,-1.0,-1.0
1701798872.9649253,0.0,-2.0,0.0,-3.0,-1.0,-1.0,-1.0,0.0
1701798872.9649253,-1.0,-1.0,-1.0,-1.0,-2.0,0.0,-2.0,0.0
1701798872.9649253,0.0,0.0,2.0,-1.0,0.0,-2.0,-2.0,-1.0
1701798872.9649253,-1.0,-2.0,0.0,-2.0,-2.0,0.0,0.0,-1.0
1701798872.9649253,0.0,0.0,0.0,-1.0,-2.0,0.0,-2.0,-2.0
1701798872.9649253,-1.0,0.0,-2.0,1.0,-1.0,-1.0,-1.0,-2.0
1701798872.9849226,-2.0,0.0,-1.0,0.0,-2.0,-1.0,-2.0,-2.0
1701798872.9849226,-2.0,-2.0,0.0,-2.0,-2.0,-2.0,-2.0,-2.0
1701798872.9849226,-1.0,-2.0,-1.0,-1.0,0.0,-1.0,-2.0,0.0
1701798872.9849226,-2.0,-2.0,0.0,-2.0,1.0,-1.0,-2.0,1.0
1701798873.0049262,-1.0,-1.0,-1.0,1.0,-1.0,-1.0,-1.0,0.0
1701798873.0049262,-2.0,0.0,-1.0,0.0,-2.0,0.0,-1.0,1.0
1701798873.0049262,-1.0,0.0,0.0,-2.0,-1.0,-1.0,1.0,-1.0
1701798873.0049262,1.0,-2.0,-1.0,1.0,-2.0,-1.0,-1.0,0.0
1701798873.0151873,0.0,-1.0,-2.0,-2.0,-3.0,-2.0,0.0,-3.0
1701798873.0151873,1.0,-2.0,-2.0,-1.0,-1.0,-2.0,-1.0,-1.0
1701798873.0251591,-1.0,-3.0,-1.0,-2.0,-1.0,0.0,-1.0,-3.0
1701798873.0251591,-1.0,1.0,0.0,-2.0,-1.0,0.0,-1.0,-1.0
1701798873.0350606,-1.0,-1.0,-1.0,-1.0,-3.0,-1.0,-1.0,0.0
1701798873.0350606,-1.0,0.0,-2.0,-1.0,-2.0,-1.0,-2.0,-1.0
1701798873.0350606,-1.0,-1.0,-2.0,-1.0,0.0,-1.0,-1.0,-1.0
1701798873.0350606,0.0,-1.0,0.0,-1.0,-2.0,-3.0,-2.0,1.0
1701798873.084921,0.0,-2.0,-2.0,-2.0,-1.0,-1.0,-2.0,-1.0
1701798873.084921,-3.0,0.0,-1.0,-1.0,1.0,-1.0,-1.0,-1.0
1701798873.084921,-2.0,0.0,1.0,1.0,-1.0,-3.0,0.0,1.0
1701798873.084921,-2.0,-2.0,-3.0,-2.0,0.0,-1.0,-1.0,-1.0
1701798873.0949197,0.0,0.0,-2.0,-2.0,-1.0,0.0,-2.0,1.0
1701798873.0949197,1.0,-1.0,-1.0,0.0,-3.0,1.0,-1.0,-1.0
1701798873.0949197,-2.0,0.0,-1.0,-2.0,-3.0,-2.0,0.0,-2.0
1701798873.0949197,0.0,-3.0,1.0,-2.0,-3.0,-1.0,-1.0,-1.0
1701798873.1128016,-1.0,-1.0,-2.0,-1.0,-1.0,-1.0,0.0,-1.0
1701798873.1128016,-1.0,0.0,-2.0,-2.0,0.0,-1.0,-1.0,-1.0
1701798873.1148014,0.0,-2.0,-2.0,0.0,0.0,-1.0,0.0,-2.0
1701798873.1148014,-1.0,-1.0,-2.0,-2.0,-2.0,-1.0,0.0,-1.0
1701798873.1248052,-2.0,0.0,-3.0,-1.0,-2.0,-2.0,-1.0,0.0
1701798873.1248052,-1.0,0.0,0.0,-1.0,-2.0,-1.0,-1.0,-1.0
1701798873.1258042,0.0,0.0,-2.0,0.0,-2.0,1.0,-1.0,-1.0
1701798873.1258042,-2.0,-1.0,-3.0,0.0,-1.0,-1.0,0.0,-1.0
1701798873.1313176,0.0,-1.0,1.0,0.0,-1.0,0.0,-1.0,-1.0
1701798873.1313176,-1.0,-1.0,-1.0,-2.0,-1.0,-1.0,-1.0,0.0
1701798873.1415462,-3.0,0.0,0.0,-2.0,0.0,-2.0,-1.0,0.0
1701798873.1415462,1.0,0.0,1.0,-2.0,-2.0,-2.0,0.0,-2.0
1701798873.1613195,-1.0,0.0,-2.0,-1.0,-2.0,0.0,0.0,-1.0
1701798873.1613195,-1.0,-1.0,-2.0,0.0,0.0,-1.0,-1.0,-2.0
1701798873.1813166,-1.0,-1.0,-1.0,-1.0,0.0,0.0,-1.0,-1.0
1701798873.1813166,-1.0,0.0,-1.0,2.0,-1.0,-1.0,0.0,0.0
1701798873.1813166,0.0,-2.0,-1.0,-2.0,-1.0,-2.0,-2.0,-4.0
1701798873.1813166,-2.0,-4.0,-1.0,-1.0,-1.0,-1.0,-2.0,-2.0
1701798873.1813166,0.0,2.0,0.0,-1.0,-1.0,-4.0,0.0,3.0
1701798873.1813166,-1.0,2.0,-1.0,0.0,-1.0,-1.0,-1.0,0.0
1701798873.191324,-3.0,7.0,-1.0,-2.0,0.0,1.0,2.0,-1.0
1701798873.191324,0.0,5.0,2.0,1.0,-1.0,-1.0,-2.0,-2.0
1701798873.2213166,5.0,13.0,0.0,0.0,-2.0,-1.0,0.0,0.0
1701798873.2213166,-16.0,-36.0,-3.0,-1.0,0.0,-2.0,0.0,6.0
1701798873.231314,12.0,32.0,0.0,2.0,3.0,0.0,3.0,1.0
1701798873.231314,4.0,-39.0,-14.0,-7.0,-5.0,-5.0,-4.0,-4.0
1701798873.231314,-6.0,-1.0,-5.0,-4.0,0.0,-1.0,-3.0,-4.0
1701798873.231314,-2.0,21.0,7.0,0.0,1.0,0.0,-2.0,-1.0
1701798873.2414837,10.0,6.0,4.0,1.0,2.0,1.0,2.0,4.0
1701798873.2414837,-19.0,12.0,-4.0,-1.0,-2.0,-2.0,0.0,-2.0
1701798873.2414837,7.0,9.0,5.0,1.0,-1.0,-1.0,-2.0,-2.0
1701798873.2414837,-1.0,2.0,-3.0,-2.0,-4.0,-2.0,-2.0,-3.0
1701798873.2516239,0.0,2.0,2.0,-1.0,-2.0,-1.0,-1.0,0.0
1701798873.2516239,5.0,-7.0,3.0,-1.0,1.0,0.0,1.0,2.0
1701798873.271315,-4.0,-28.0,-3.0,0.0,-2.0,-1.0,-1.0,0.0
1701798873.271315,6.0,24.0,0.0,-1.0,0.0,-1.0,-3.0,-1.0
1701798873.2813573,-5.0,-8.0,-1.0,-2.0,-3.0,-1.0,-2.0,-5.0
1701798873.2813573,0.0,-1.0,0.0,-1.0,0.0,1.0,0.0,0.0
1701798873.2813573,-8.0,-2.0,0.0,1.0,-1.0,0.0,2.0,-1.0
1701798873.2813573,5.0,-1.0,-3.0,0.0,-1.0,-2.0,-1.0,1.0
1701798873.3016775,-5.0,-20.0,-6.0,-3.0,-2.0,-4.0,-5.0,0.0
1701798873.3016775,0.0,7.0,0.0,0.0,0.0,-2.0,-2.0,-2.0
1701798873.3016775,1.0,9.0,2.0,0.0,0.0,1.0,-1.0,0.0
1701798873.3016775,3.0,-1.0,-4.0,-3.0,-3.0,-1.0,-1.0,-1.0
1701798873.3116186,-7.0,-17.0,-4.0,-3.0,-3.0,-2.0,-1.0,-1.0
1701798873.3116186,0.0,12.0,2.0,1.0,0.0,0.0,0.0,1.0
1701798873.331316,0.0,-5.0,-3.0,-1.0,-1.0,-1.0,0.0,-2.0
1701798873.331316,-1.0,-4.0,-1.0,-1.0,0.0,0.0,-1.0,-3.0
1701798873.3413138,-5.0,-8.0,0.0,-3.0,2.0,-1.0,-2.0,-1.0
1701798873.3413138,1.0,1.0,0.0,-2.0,0.0,1.0,1.0,-1.0
1701798873.3413138,0.0,0.0,-3.0,-1.0,-2.0,-1.0,0.0,0.0
1701798873.3413138,-2.0,-3.0,-2.0,0.0,-2.0,-1.0,0.0,-3.0
1701798873.3615963,2.0,8.0,0.0,2.0,-3.0,-3.0,-1.0,1.0
1701798873.3615963,1.0,-11.0,-4.0,-2.0,-1.0,-1.0,-1.0,-1.0
1701798873.3615963,-7.0,-14.0,-4.0,-1.0,-1.0,-1.0,-1.0,-2.0
1701798873.3615963,-1.0,0.0,0.0,0.0,-3.0,-1.0,0.0,-4.0
1701798873.4013152,-4.0,-10.0,-1.0,-1.0,-1.0,0.0,0.0,-2.0
1701798873.4013152,2.0,6.0,3.0,-2.0,-2.0,0.0,0.0,0.0
1701798873.4113176,-2.0,1.0,1.0,-2.0,-1.0,-2.0,0.0,-1.0
1701798873.4113176,-2.0,-7.0,-1.0,-3.0,-1.0,-1.0,-1.0,-1.0
1701798873.4113176,2.0,5.0,-1.0,0.0,-1.0,-2.0,-1.0,-2.0
1701798873.4113176,-5.0,-7.0,-2.0,-1.0,-2.0,-2.0,0.0,0.0
1701798873.4113176,1.0,5.0,-2.0,-1.0,-2.0,1.0,-5.0,-1.0
1701798873.4113176,-1.0,-2.0,-2.0,-2.0,-1.0,0.0,3.0,2.0
1701798873.4213161,-2.0,0.0,-2.0,-2.0,-5.0,0.0,0.0,-2.0
1701798873.4213161,1.0,0.0,0.0,2.0,0.0,0.0,1.0,0.0
1701798873.4213161,0.0,6.0,1.0,0.0,0.0,-2.0,-2.0,-4.0
1701798873.4213161,-1.0,-2.0,-1.0,-3.0,0.0,-3.0,-2.0,-2.0
1701798873.4413168,-1.0,-3.0,-2.0,-1.0,0.0,-2.0,-2.0,-1.0
1701798873.4413168,-1.0,2.0,-1.0,-1.0,0.0,-3.0,-2.0,-1.0
1701798873.4413168,0.0,-4.0,0.0,0.0,-2.0,-1.0,0.0,-1.0
1701798873.4413168,0.0,0.0,-1.0,0.0,-2.0,-2.0,-1.0,-2.0
1701798873.461315,-1.0,-4.0,0.0,-1.0,-2.0,-1.0,0.0,-3.0
1701798873.461315,1.0,4.0,0.0,-2.0,-1.0,0.0,0.0,-1.0
1701798873.471315,0.0,-1.0,1.0,-3.0,1.0,1.0,0.0,-2.0
1701798873.471315,-2.0,-1.0,-4.0,-2.0,1.0,-1.0,-4.0,-1.0
1701798873.4816253,-2.0,-1.0,-1.0,-3.0,-1.0,-1.0,-1.0,0.0
1701798873.4816253,0.0,0.0,0.0,-1.0,-1.0,-2.0,-2.0,-1.0
1701798873.4816253,-2.0,1.0,0.0,-1.0,-1.0,-2.0,1.0,-1.0
1701798873.4816253,1.0,-5.0,0.0,-1.0,0.0,-1.0,-2.0,-3.0
1701798873.5013144,0.0,1.0,1.0,-4.0,0.0,-1.0,-2.0,-3.0
1701798873.5013144,-6.0,-6.0,0.0,-1.0,1.0,-2.0,-1.0,-2.0
1701798873.5013144,0.0,-1.0,-1.0,-1.0,-1.0,-2.0,-1.0,0.0
1701798873.5013144,-2.0,-1.0,-1.0,0.0,-3.0,0.0,-1.0,0.0
1701798873.5213864,-1.0,-1.0,-2.0,0.0,-3.0,-1.0,-2.0,0.0
1701798873.5213864,0.0,4.0,-3.0,0.0,-4.0,1.0,0.0,1.0
1701798873.5213864,-2.0,3.0,-4.0,-1.0,-3.0,-1.0,-2.0,1.0
1701798873.5213864,0.0,-8.0,-6.0,-1.0,0.0,0.0,-2.0,1.0
1701798873.5415945,-1.0,1.0,-3.0,0.0,-2.0,-1.0,0.0,0.0
1701798873.5415945,-1.0,1.0,-3.0,0.0,-3.0,-1.0,-1.0,0.0
1701798873.5415945,-1.0,-2.0,-4.0,-1.0,-2.0,-2.0,-2.0,-1.0
1701798873.5415945,-2.0,1.0,0.0,-1.0,-1.0,0.0,0.0,-1.0
1701798873.5813143,-4.0,-3.0,-1.0,-1.0,-2.0,-1.0,-2.0,-1.0
1701798873.5813143,1.0,-1.0,1.0,-1.0,2.0,0.0,-3.0,-1.0
1701798873.5813143,0.0,6.0,-1.0,-2.0,-1.0,-1.0,-1.0,-2.0
1701798873.5813143,-1.0,-2.0,0.0,-1.0,-2.0,-1.0,1.0,-1.0
1701798873.5813143,-1.0,-2.0,0.0,-1.0,0.0,1.0,0.0,-1.0
1701798873.5813143,0.0,1.0,0.0,-1.0,-2.0,-1.0,-1.0,-2.0
1701798873.5813143,0.0,-2.0,1.0,-4.0,-2.0,-1.0,-1.0,0.0
1701798873.5813143,0.0,0.0,-1.0,-1.0,-2.0,-2.0,-1.0,-1.0
1701798873.611315,-1.0,-1.0,0.0,0.0,-1.0,-1.0,-2.0,0.0
1701798873.611315,1.0,1.0,2.0,-2.0,-2.0,0.0,-2.0,-1.0
1701798873.611315,0.0,-4.0,0.0,-1.0,0.0,1.0,0.0,-2.0
1701798873.611315,0.0,1.0,-1.0,-3.0,-3.0,-2.0,-1.0,-2.0
1701798873.6215386,-2.0,-1.0,0.0,-1.0,0.0,-2.0,0.0,-1.0
1701798873.6215386,-1.0,-1.0,-3.0,-1.0,-1.0,-2.0,1.0,-4.0
1701798873.6215386,-1.0,-3.0,-1.0,-1.0,-1.0,-2.0,-1.0,-2.0
1701798873.6215386,-1.0,-1.0,0.0,0.0,-1.0,-3.0,0.0,-1.0
1701798873.6422174,0.0,0.0,-1.0,-2.0,-1.0,-1.0,-1.0,-2.0
1701798873.6422174,-1.0,-1.0,0.0,-2.0,-2.0,-1.0,-2.0,0.0
1701798873.6482072,-2.0,-1.0,0.0,-1.0,-1.0,-3.0,0.0,-1.0
1701798873.6482072,0.0,0.0,1.0,0.0,-1.0,2.0,-2.0,-2.0
1701798873.6639733,-1.0,-2.0,-1.0,-1.0,-1.0,-1.0,-1.0,-1.0
1701798873.6639733,2.0,1.0,-2.0,-2.0,-2.0,-2.0,-4.0,-3.0
1701798873.6639733,1.0,-1.0,1.0,-1.0,-1.0,0.0,-2.0,-1.0
1701798873.6639733,-1.0,-1.0,-2.0,-1.0,-1.0,1.0,0.0,-2.0
1701798873.6841843,-1.0,0.0,-1.0,-1.0,-1.0,0.0,1.0,-2.0
1701798873.6841843,-2.0,-2.0,0.0,0.0,0.0,0.0,0.0,0.0
1701798873.6841843,-2.0,-2.0,-1.0,0.0,-3.0,0.0,0.0,-1.0
1701798873.6841843,-2.0,0.0,-2.0,-2.0,-1.0,-3.0,-1.0,0.0
1701798873.6942277,-2.0,0.0,0.0,-2.0,-2.0,-1.0,-2.0,0.0
1701798873.6942277,-2.0,-1.0,-2.0,0.0,0.0,-2.0,-1.0,1.0
1701798873.7041943,-1.0,-1.0,-2.0,0.0,1.0,-1.0,-2.0,0.0
1701798873.7041943,-1.0,-2.0,-2.0,-1.0,0.0,-1.0,0.0,-1.0
1701798873.7339778,0.0,-1.0,-2.0,0.0,-3.0,-2.0,-2.0,-1.0
1701798873.7339778,0.0,-1.0,-1.0,-1.0,-1.0,-2.0,-1.0,-2.0
1701798873.7339778,0.0,-1.0,1.0,-2.0,-2.0,-3.0,-1.0,-1.0
1701798873.7439744,-2.0,0.0,0.0,-1.0,-1.0,0.0,-1.0,-2.0
1701798873.7439744,0.0,-1.0,0.0,0.0,0.0,0.0,-1.0,-1.0
1701798873.7439744,-1.0,0.0,1.0,0.0,0.0,-1.0,1.0,0.0
1701798873.7439744,-2.0,0.0,-2.0,0.0,0.0,-1.0,-1.0,-2.0
1701798873.7439744,1.0,0.0,0.0,-1.0,-1.0,-1.0,-1.0,0.0
1701798873.7539856,-1.0,-1.0,-1.0,-2.0,-1.0,-1.0,-2.0,-2.0
1701798873.7539856,1.0,-2.0,-2.0,-2.0,-1.0,-1.0,-2.0,-1.0
1701798873.7642598,0.0,-1.0,-1.0,1.0,-1.0,0.0,0.0,-1.0
1701798873.7642598,-1.0,0.0,-1.0,-1.0,-2.0,0.0,0.0,-2.0
1701798873.7839756,-1.0,-1.0,-2.0,0.0,0.0,-1.0,1.0,-1.0
1701798873.7839756,0.0,0.0,-2.0,-1.0,-1.0,-1.0,-2.0,-2.0
1701798873.7839756,-1.0,-2.0,-1.0,0.0,-1.0,-2.0,-1.0,-2.0
1701798873.7839756,-1.0,-1.0,1.0,0.0,0.0,-2.0,-1.0,0.0
1701798873.8043036,0.0,0.0,-2.0,-1.0,-2.0,-1.0,0.0,1.0
1701798873.8043036,-2.0,0.0,0.0,-2.0,-1.0,0.0,-2.0,-2.0
1701798873.8043036,1.0,-2.0,-1.0,-2.0,-1.0,-2.0,-1.0,0.0
1701798873.8043036,0.0,0.0,0.0,-1.0,0.0,-1.0,-1.0,-2.0
1701798873.8143268,-1.0,1.0,-1.0,-1.0,-1.0,-2.0,-2.0,1.0
1701798873.8143268,-1.0,1.0,-1.0,-2.0,0.0,-1.0,-1.0,2.0
1701798873.834029,-1.0,-2.0,-1.0,0.0,-3.0,0.0,-1.0,0.0
1701798873.834029,-1.0,-1.0,1.0,-1.0,-2.0,-1.0,0.0,-1.0
1701798873.844375,0.0,-2.0,-2.0,0.0,-2.0,-1.0,-2.0,-2.0
1701798873.844375,0.0,-2.0,-2.0,-1.0,-2.0,-1.0,0.0,-3.0
1701798873.844375,-1.0,-3.0,-2.0,-2.0,1.0,-2.0,-1.0,-1.0
1701798873.844375,-1.0,-4.0,0.0,-2.0,0.0,-2.0,-1.0,0.0
1701798873.8643894,0.0,-1.0,0.0,-1.0,-2.0,-1.0,0.0,-3.0
1701798873.8643894,-1.0,-2.0,0.0,0.0,-1.0,0.0,-2.0,-2.0
1701798873.8643894,-2.0,-1.0,-1.0,-1.0,-1.0,0.0,-1.0,1.0
1701798873.8643894,-1.0,-2.0,-3.0,-2.0,0.0,-3.0,-3.0,-1.0
1701798873.8743434,-1.0,0.0,1.0,-2.0,-2.0,-1.0,-1.0,-2.0
1701798873.8743434,0.0,-2.0,-2.0,0.0,-2.0,-2.0,-1.0,-1.0
1701798873.894027,0.0,1.0,0.0,-1.0,-3.0,-1.0,0.0,0.0
1701798873.894027,0.0,-2.0,-1.0,-2.0,-1.0,1.0,-3.0,-2.0
1701798873.9042575,-1.0,-1.0,-1.0,-1.0,-1.0,0.0,-3.0,0.0
1701798873.9042575,-2.0,0.0,-1.0,-1.0,-1.0,0.0,-1.0,1.0
1701798873.9042575,-2.0,0.0,-1.0,0.0,-2.0,1.0,-1.0,-2.0
1701798873.9042575,0.0,0.0,-2.0,-1.0,-1.0,-1.0,0.0,1.0
1701798873.9242973,0.0,-1.0,-1.0,-3.0,-1.0,-2.0,-1.0,-2.0
1701798873.9242973,-2.0,-2.0,-3.0,-1.0,-1.0,-2.0,-1.0,-1.0
1701798873.9242973,0.0,1.0,0.0,0.0,1.0,-2.0,-1.0,-1.0
1701798873.9242973,-1.0,-1.0,0.0,-1.0,-1.0,0.0,0.0,0.0
1701798873.9342508,-1.0,-2.0,-1.0,1.0,0.0,0.0,-3.0,1.0
1701798873.9342508,-1.0,-1.0,-2.0,-1.0,0.0,-1.0,1.0,-2.0
1701798873.9640424,-2.0,-2.0,0.0,-3.0,0.0,-1.0,0.0,-2.0
1701798873.9640424,-2.0,0.0,2.0,-2.0,-1.0,-2.0,0.0,-1.0
1701798873.9640424,-1.0,-1.0,0.0,-2.0,0.0,-3.0,1.0,-1.0
1701798873.9640424,1.0,-1.0,1.0,-1.0,-1.0,-2.0,0.0,-1.0
1701798873.9640424,0.0,-2.0,-1.0,0.0,-1.0,-1.0,-2.0,1.0
1701798873.9640424,0.0,-1.0,0.0,1.0,-2.0,-3.0,-1.0,-3.0
1701798873.984428,-1.0,-1.0,-2.0,-1.0,-2.0,-1.0,-1.0,0.0
1701798873.984428,-1.0,-1.0,-1.0,0.0,0.0,0.0,-1.0,0.0
1701798873.984428,0.0,-1.0,-3.0,-1.0,-1.0,0.0,-2.0,-1.0
1701798873.984428,-1.0,-2.0,-4.0,-2.0,-1.0,0.0,-2.0,-1.0
1701798873.9943786,-1.0,-3.0,-4.0,-3.0,-1.0,-2.0,-1.0,-1.0
1701798873.9943786,-2.0,-1.0,-1.0,-3.0,-2.0,-1.0,-1.0,-1.0
1701798874.0043907,0.0,-2.0,-2.0,-3.0,-1.0,-1.0,-1.0,-2.0
1701798874.0043907,-1.0,-1.0,-2.0,0.0,-1.0,0.0,0.0,0.0
1701798874.0243948,-3.0,0.0,-2.0,0.0,0.0,0.0,-1.0,-1.0
1701798874.0243948,-1.0,-1.0,0.0,-1.0,-1.0,0.0,0.0,-1.0
1701798874.0243948,-1.0,-1.0,0.0,-2.0,-2.0,-2.0,-2.0,-2.0
1701798874.0243948,0.0,0.0,-1.0,-1.0,-1.0,-2.0,-2.0,0.0
1701798874.0543923,0.0,-1.0,-1.0,-2.0,-2.0,-1.0,-1.0,0.0
1701798874.0543923,-1.0,-1.0,2.0,-1.0,-1.0,-3.0,-2.0,-2.0
1701798874.074393,-2.0,0.0,0.0,0.0,-2.0,-2.0,-1.0,-1.0
1701798874.074393,-2.0,-1.0,-1.0,-1.0,-1.0,1.0,0.0,-1.0
1701798874.074393,-2.0,-2.0,1.0,-2.0,-1.0,-1.0,2.0,-2.0
1701798874.074393,0.0,-1.0,-1.0,0.0,-1.0,-1.0,1.0,-1.0
1701798874.074393,0.0,-1.0,-2.0,-1.0,-2.0,-4.0,-3.0,-1.0
1701798874.074393,-1.0,-1.0,1.0,-2.0,-2.0,-1.0,-1.0,-2.0
1701798874.084527,-1.0,-2.0,-3.0,-3.0,-2.0,-1.0,-1.0,-2.0
1701798874.084527,-1.0,-1.0,-1.0,-3.0,-1.0,-1.0,0.0,0.0
1701798874.084527,0.0,-2.0,1.0,0.0,-2.0,-2.0,0.0,0.0
1701798874.084527,0.0,-2.0,0.0,-1.0,0.0,-1.0,-1.0,-1.0
1701798874.1143906,-1.0,1.0,3.0,-1.0,1.0,-2.0,-3.0,-2.0
1701798874.1143906,0.0,-1.0,1.0,0.0,-1.0,-3.0,-3.0,-2.0
1701798874.1143906,-1.0,-2.0,0.0,-2.0,0.0,0.0,0.0,-1.0
1701798874.1143906,0.0,0.0,1.0,-1.0,-1.0,-2.0,-1.0,-1.0
1701798874.1143906,0.0,-2.0,-1.0,0.0,-2.0,0.0,0.0,-1.0
1701798874.1143906,-2.0,-2.0,-4.0,-1.0,-3.0,1.0,-1.0,2.0
1701798874.1245985,-2.0,-1.0,-3.0,1.0,-3.0,1.0,0.0,2.0
1701798874.1245985,-2.0,1.0,-6.0,-1.0,-2.0,0.0,-2.0,0.0
1701798874.144565,-2.0,1.0,-6.0,1.0,-1.0,1.0,0.0,1.0
1701798874.144565,-1.0,0.0,-7.0,0.0,-1.0,-1.0,-1.0,0.0
1701798874.144565,-2.0,1.0,-6.0,0.0,-3.0,0.0,-1.0,0.0
1701798874.144565,-2.0,-1.0,-4.0,-1.0,-1.0,-2.0,-1.0,-1.0
1701798874.177345,-1.0,0.0,-3.0,-2.0,-1.0,-2.0,-2.0,-2.0
1701798874.177345,-1.0,0.0,-1.0,0.0,0.0,0.0,-1.0,0.0
1701798874.177345,0.0,0.0,1.0,-4.0,0.0,-1.0,0.0,-2.0
1701798874.177345,-1.0,-2.0,2.0,-2.0,0.0,-1.0,0.0,-2.0
1701798874.1967208,0.0,0.0,2.0,-1.0,1.0,-3.0,-1.0,-1.0
1701798874.1967208,0.0,-3.0,1.0,-3.0,-2.0,-2.0,-2.0,-2.0
1701798874.1967208,2.0,0.0,-1.0,-2.0,0.0,-3.0,-1.0,-2.0
1701798874.1967208,0.0,-2.0,-1.0,1.0,-2.0,0.0,-1.0,0.0
1701798874.1967208,-1.0,-2.0,1.0,0.0,-1.0,-1.0,-1.0,-1.0
1701798874.1967208,-2.0,-2.0,-1.0,0.0,-2.0,-2.0,0.0,-4.0
1701798874.1967208,0.0,-2.0,1.0,1.0,-1.0,-3.0,-1.0,-2.0
1701798874.1967208,-1.0,1.0,0.0,-3.0,-2.0,-2.0,-1.0,-2.0
1701798874.2269375,-1.0,-3.0,-1.0,-3.0,-3.0,-3.0,0.0,-1.0
1701798874.2269375,0.0,-1.0,1.0,-1.0,0.0,0.0,-2.0,-2.0
1701798874.2269375,0.0,-1.0,0.0,-1.0,0.0,-1.0,0.0,-1.0
1701798874.2269375,-1.0,-1.0,0.0,-2.0,-1.0,-2.0,-1.0,-1.0
1701798874.23685,-2.0,-3.0,-1.0,0.0,-1.0,-1.0,0.0,-1.0
1701798874.23685,0.0,-1.0,-2.0,0.0,-1.0,1.0,-2.0,0.0
1701798874.2470443,-1.0,-1.0,-2.0,-2.0,-1.0,-1.0,-2.0,-1.0
1701798874.2470443,0.0,0.0,1.0,-1.0,0.0,-1.0,0.0,0.0
1701798874.277064,-3.0,0.0,-1.0,-1.0,1.0,0.0,-2.0,0.0
1701798874.277064,-1.0,0.0,0.0,-1.0,0.0,0.0,-1.0,-4.0
1701798874.277064,-2.0,-1.0,-1.0,-1.0,-2.0,0.0,-1.0,0.0
1701798874.277064,0.0,0.0,-1.0,1.0,-2.0,1.0,-1.0,-1.0
1701798874.2870638,0.0,-3.0,-1.0,0.0,-2.0,-2.0,-1.0,1.0
1701798874.2870638,-1.0,0.0,0.0,-1.0,-2.0,-2.0,0.0,1.0
1701798874.2870638,-2.0,-2.0,-1.0,-2.0,-1.0,-1.0,-1.0,-1.0
1701798874.2870638,-1.0,-1.0,-2.0,-1.0,-2.0,-2.0,-2.0,-2.0
1701798874.297306,0.0,0.0,0.0,-3.0,-1.0,-2.0,0.0,-2.0
1701798874.297306,-1.0,0.0,-1.0,0.0,0.0,1.0,-1.0,0.0
1701798874.3072915,0.0,0.0,-2.0,-2.0,0.0,0.0,-1.0,-2.0
1701798874.3072915,0.0,-3.0,-1.0,-1.0,-1.0,-2.0,-2.0,-1.0
1701798874.3173065,1.0,0.0,-2.0,0.0,0.0,-2.0,-2.0,-1.0
1701798874.3173065,-2.0,1.0,-2.0,-2.0,1.0,-1.0,0.0,0.0
1701798874.3570664,-1.0,-1.0,-1.0,-3.0,-2.0,-1.0,-2.0,0.0
1701798874.3570664,-2.0,-1.0,-1.0,0.0,0.0,-1.0,-1.0,0.0
1701798874.3570664,0.0,0.0,-1.0,-2.0,-1.0,-1.0,0.0,0.0
1701798874.3570664,1.0,-2.0,0.0,0.0,-3.0,-1.0,0.0,-1.0
1701798874.3570664,-2.0,0.0,-3.0,1.0,0.0,-1.0,0.0,-1.0
1701798874.3570664,-1.0,0.0,-1.0,-2.0,0.0,0.0,-1.0,0.0
1701798874.3670652,-2.0,-2.0,-2.0,-2.0,-1.0,-2.0,0.0,-1.0
1701798874.3670652,-1.0,-1.0,-2.0,-2.0,1.0,-2.0,-1.0,-2.0
1701798874.3670652,-1.0,-1.0,0.0,0.0,0.0,-1.0,-1.0,-2.0
1701798874.3670652,0.0,-1.0,0.0,-1.0,0.0,-2.0,-2.0,-1.0
1701798874.3771024,0.0,0.0,0.0,0.0,-1.0,0.0,-2.0,0.0
1701798874.3771024,-1.0,0.0,0.0,-2.0,0.0,0.0,-3.0,-2.0
1701798874.387189,-2.0,0.0,0.0,-2.0,0.0,0.0,-1.0,0.0
1701798874.387189,-2.0,-1.0,-1.0,-1.0,-2.0,0.0,-1.0,0.0
1701798874.4070632,0.0,-1.0,-1.0,-2.0,0.0,1.0,-1.0,-2.0
1701798874.4070632,-1.0,-2.0,-1.0,0.0,-3.0,-4.0,-1.0,0.0
1701798874.4070632,-1.0,-1.0,0.0,0.0,-1.0,-1.0,-1.0,-1.0
1701798874.4070632,-1.0,-3.0,-1.0,-1.0,0.0,-1.0,-1.0,-1.0
1701798874.4274588,-1.0,0.0,0.0,0.0,-1.0,-2.0,-2.0,1.0
1701798874.4274588,1.0,0.0,-2.0,-1.0,-2.0,-1.0,-1.0,-1.0
1701798874.4274588,-2.0,0.0,-2.0,-1.0,-2.0,-1.0,-2.0,-2.0
1701798874.4274588,1.0,0.0,-2.0,-1.0,-2.0,0.0,2.0,1.0
1701798874.4470632,-1.0,-1.0,-2.0,-3.0,0.0,-1.0,-1.0,-1.0
1701798874.4470632,-1.0,-2.0,0.0,0.0,0.0,-1.0,0.0,2.0
1701798874.4470632,1.0,-3.0,-1.0,0.0,0.0,0.0,-1.0,0.0
1701798874.4470632,-3.0,0.0,-1.0,-1.0,0.0,0.0,0.0,-2.0
1701798874.4671185,0.0,-1.0,-1.0,1.0,-1.0,-3.0,-2.0,-2.0
1701798874.4671185,-1.0,-1.0,-1.0,-3.0,1.0,0.0,-1.0,0.0
1701798874.4671185,0.0,-2.0,-1.0,-1.0,-2.0,-1.0,-2.0,0.0
1701798874.4671185,-1.0,0.0,0.0,-2.0,0.0,-2.0,-1.0,-1.0
1701798874.4874568,-1.0,-1.0,-1.0,-1.0,-2.0,-1.0,0.0,-1.0
1701798874.4874568,-1.0,-1.0,0.0,0.0,0.0,-1.0,-1.0,-1.0
1701798874.4874568,-1.0,0.0,-1.0,-1.0,-2.0,-2.0,-2.0,-1.0
1701798874.4874568,-1.0,0.0,-2.0,-1.0,-2.0,0.0,-1.0,0.0
1701798874.5070634,1.0,-2.0,0.0,0.0,-1.0,-2.0,0.0,0.0
1701798874.5070634,0.0,-1.0,-1.0,-1.0,-1.0,-2.0,-1.0,-3.0
1701798874.5070634,-1.0,0.0,-3.0,-3.0,0.0,0.0,-1.0,-3.0
1701798874.5070634,-1.0,-1.0,-1.0,-1.0,-1.0,-1.0,-1.0,1.0
1701798874.527065,-2.0,-1.0,-2.0,-1.0,-3.0,0.0,-3.0,-2.0
1701798874.527065,-3.0,-1.0,0.0,-1.0,-2.0,-4.0,-2.0,0.0
1701798874.527065,-1.0,-2.0,2.0,-1.0,-1.0,-1.0,-1.0,-1.0
1701798874.527065,-2.0,-1.0,-1.0,-1.0,0.0,-1.0,-1.0,-1.0
1701798874.5470653,-2.0,0.0,0.0,-1.0,0.0,0.0,-3.0,-5.0
1701798874.5470653,-2.0,-1.0,-2.0,-1.0,0.0,-1.0,-1.0,-1.0
1701798874.5470653,-2.0,-1.0,0.0,0.0,-3.0,-1.0,0.0,1.0
1701798874.5470653,1.0,-1.0,-1.0,-1.0,-1.0,-2.0,-1.0,-2.0
1701798874.5670633,-2.0,-1.0,-1.0,-1.0,-2.0,-1.0,1.0,-3.0
1701798874.5670633,-2.0,0.0,-3.0,0.0,-1.0,0.0,0.0,-1.0
1701798874.5670633,-1.0,0.0,-1.0,-1.0,1.0,-1.0,1.0,-3.0
1701798874.5670633,-2.0,-1.0,-1.0,-2.0,-3.0,-1.0,-2.0,-3.0
1701798874.5874696,2.0,0.0,0.0,-2.0,-2.0,-1.0,-3.0,1.0
1701798874.5874696,-1.0,-1.0,-1.0,-1.0,-1.0,0.0,-3.0,-1.0
1701798874.5874696,-1.0,-2.0,-1.0,0.0,0.0,-2.0,0.0,0.0
1701798874.5874696,-2.0,-1.0,-3.0,-2.0,-1.0,-3.0,-2.0,-2.0
1701798874.607444,-1.0,-1.0,0.0,-1.0,-2.0,-1.0,0.0,0.0
1701798874.607444,0.0,1.0,0.0,-2.0,0.0,-2.0,-1.0,-1.0
1701798874.607444,-2.0,-2.0,-1.0,-1.0,0.0,-1.0,-2.0,0.0
1701798874.607444,-2.0,-1.0,0.0,1.0,0.0,0.0,-1.0,0.0
1701798874.6270666,-1.0,-2.0,-1.0,-1.0,0.0,-1.0,-1.0,-2.0
1701798874.6270666,0.0,-3.0,-3.0,-2.0,-3.0,0.0,-1.0,0.0
1701798874.6270666,-2.0,0.0,-2.0,0.0,-2.0,-1.0,-2.0,-1.0
1701798874.6270666,0.0,1.0,-2.0,1.0,-1.0,0.0,0.0,-1.0
1701798874.647124,0.0,-1.0,0.0,-2.0,-2.0,0.0,-1.0,0.0
1701798874.647124,-2.0,-1.0,-1.0,0.0,-2.0,0.0,-1.0,0.0
1701798874.647124,-2.0,-1.0,-2.0,-2.0,-2.0,-1.0,-3.0,-1.0
1701798874.647124,0.0,-1.0,0.0,-3.0,-2.0,0.0,-1.0,-2.0
1701798874.677064,-2.0,1.0,-3.0,0.0,0.0,0.0,-1.0,1.0
1701798874.677064,-1.0,1.0,-1.0,-2.0,-2.0,-2.0,-1.0,-2.0
1701798874.677064,0.0,1.0,0.0,-2.0,-1.0,-2.0,-1.0,0.0
1701798874.677064,0.0,-2.0,1.0,1.0,1.0,1.0,1.0,0.0
1701798874.677064,1.0,-2.0,-1.0,-2.0,-1.0,-1.0,0.0,-2.0
1701798874.677064,-2.0,-1.0,0.0,-1.0,-2.0,-3.0,1.0,-2.0
1701798874.687357,-1.0,1.0,0.0,-1.0,0.0,0.0,0.0,-2.0
1701798874.687357,-2.0,0.0,-1.0,0.0,0.0,-1.0,-3.0,-1.0
1701798874.7072644,-2.0,-1.0,0.0,-2.0,-2.0,-1.0,-1.0,-3.0
1701798874.7072644,-2.0,-1.0,-1.0,0.0,0.0,4.0,4.0,2.0
1701798874.7082655,1.0,-1.0,1.0,-1.0,-1.0,1.0,0.0,1.0
1701798874.7082655,0.0,-3.0,0.0,-2.0,-1.0,1.0,-1.0,-1.0
1701798874.7298071,1.0,-2.0,-2.0,0.0,0.0,-1.0,-4.0,-1.0
1701798874.7298071,0.0,-1.0,-1.0,1.0,-1.0,-1.0,-20.0,-8.0
1701798874.7298071,-1.0,-2.0,-2.0,0.0,-2.0,4.0,15.0,4.0
1701798874.7298071,0.0,-1.0,-2.0,-2.0,-1.0,4.0,14.0,4.0
1701798874.7400086,-2.0,-1.0,-2.0,-1.0,-2.0,0.0,3.0,2.0
1701798874.7400086,0.0,0.0,-1.0,-3.0,0.0,0.0,2.0,1.0
1701798874.7500253,-4.0,0.0,-2.0,-2.0,-2.0,-4.0,-9.0,-4.0
1701798874.7500253,-2.0,-1.0,-1.0,-1.0,0.0,-2.0,-6.0,-2.0
1701798874.7600446,0.0,2.0,0.0,0.0,1.0,0.0,0.0,1.0
1701798874.7600446,1.0,1.0,-1.0,-1.0,-2.0,-1.0,1.0,-3.0
1701798874.7698805,-2.0,-5.0,0.0,-2.0,-2.0,-1.0,-5.0,-3.0
1701798874.7698805,-1.0,-13.0,0.0,-4.0,-2.0,-4.0,-2.0,-3.0
1701798874.7898088,-3.0,2.0,0.0,0.0,-3.0,-2.0,-6.0,-3.0
1701798874.7898088,-1.0,7.0,-1.0,0.0,-1.0,-3.0,-5.0,-1.0
1701798874.7898088,1.0,-13.0,-6.0,-2.0,-2.0,-5.0,-2.0,-1.0
1701798874.7898088,1.0,16.0,-1.0,0.0,0.0,-2.0,-6.0,-3.0
1701798874.8000278,-2.0,5.0,0.0,-4.0,0.0,1.0,3.0,0.0
1701798874.8000278,-3.0,-24.0,0.0,-1.0,1.0,-4.0,9.0,4.0
1701798874.8100383,0.0,16.0,3.0,-2.0,-1.0,-2.0,2.0,0.0
1701798874.8100383,-3.0,-27.0,-2.0,-1.0,1.0,-4.0,0.0,1.0
1701798874.820055,0.0,0.0,-1.0,2.0,3.0,0.0,-2.0,-3.0
1701798874.820055,-1.0,3.0,-2.0,-1.0,-3.0,-1.0,1.0,2.0
1701798874.8299968,2.0,-1.0,-3.0,0.0,-4.0,-3.0,-10.0,-6.0
1701798874.8299968,-1.0,7.0,-5.0,1.0,-3.0,-2.0,-9.0,-2.0
1701798874.8698113,0.0,2.0,-5.0,1.0,0.0,3.0,2.0,3.0
1701798874.8698113,-1.0,-3.0,-6.0,-1.0,-4.0,-3.0,-10.0,-4.0
1701798874.8698113,-3.0,-3.0,-5.0,-1.0,-1.0,-1.0,-16.0,1.0
1701798874.8698113,0.0,9.0,-2.0,-1.0,-2.0,6.0,44.0,4.0
1701798874.8698113,-4.0,-7.0,-5.0,-2.0,-1.0,-3.0,9.0,-2.0
1701798874.8698113,1.0,2.0,-1.0,0.0,2.0,1.0,7.0,0.0
1701798874.8698113,-1.0,1.0,2.0,-1.0,0.0,-2.0,-4.0,-4.0
1701798874.8698113,-2.0,2.0,0.0,-2.0,0.0,-5.0,-18.0,-5.0
1701798874.879939,-2.0,-7.0,1.0,-2.0,-1.0,-6.0,-12.0,-4.0
1701798874.879939,-1.0,-2.0,0.0,-2.0,-2.0,-7.0,-6.0,-4.0
1701798874.8901424,-1.0,0.0,0.0,-2.0,0.0,-2.0,-1.0,1.0
1701798874.8901424,0.0,-3.0,0.0,-2.0,-2.0,-2.0,-5.0,-2.0
1701798874.9101562,1.0,-5.0,-1.0,-1.0,-1.0,0.0,4.0,-1.0
1701798874.9101562,-1.0,3.0,1.0,-2.0,-2.0,-3.0,-7.0,1.0
1701798874.9101562,0.0,-2.0,0.0,0.0,1.0,0.0,6.0,1.0
1701798874.9101562,-1.0,-1.0,-1.0,-2.0,-2.0,-1.0,-3.0,-1.0
1701798874.9205186,0.0,0.0,0.0,-1.0,-1.0,2.0,-2.0,-2.0
1701798874.9205186,-1.0,1.0,0.0,0.0,-2.0,0.0,4.0,2.0
1701798874.9401531,-3.0,-2.0,-1.0,0.0,-2.0,-2.0,0.0,-2.0
1701798874.9401531,1.0,2.0,-1.0,-2.0,-3.0,-2.0,-4.0,0.0
1701798874.9401531,-3.0,1.0,-1.0,0.0,-1.0,-4.0,-11.0,-5.0
1701798874.9401531,-2.0,-1.0,-1.0,0.0,4.0,3.0,3.0,-3.0
1701798874.9501545,0.0,-3.0,0.0,-1.0,1.0,3.0,8.0,-1.0
1701798874.9501545,0.0,0.0,0.0,-3.0,-2.0,-1.0,-6.0,-1.0
1701798874.970158,-1.0,-2.0,0.0,-2.0,-3.0,-1.0,-1.0,0.0
1701798874.970158,-3.0,-1.0,-2.0,-1.0,-2.0,-2.0,0.0,0.0
1701798874.970158,0.0,0.0,0.0,0.0,-1.0,0.0,-1.0,0.0
1701798874.970158,-1.0,0.0,0.0,0.0,-1.0,-3.0,-5.0,-2.0
1701798874.9804215,-1.0,2.0,-2.0,-1.0,-3.0,-2.0,-1.0,0.0
1701798874.9804215,0.0,-5.0,-1.0,-2.0,-2.0,0.0,-1.0,-1.0
1701798874.9903946,-1.0,-3.0,-1.0,-1.0,0.0,2.0,-1.0,2.0
1701798874.9903946,-2.0,-2.0,-1.0,0.0,3.0,1.0,-2.0,1.0
1701798875.0201569,0.0,1.0,-1.0,-1.0,-2.0,-3.0,-1.0,-2.0
1701798875.0201569,-2.0,2.0,0.0,-2.0,-1.0,0.0,2.0,1.0
1701798875.0301526,0.0,-1.0,1.0,-2.0,-1.0,-1.0,2.0,0.0
1701798875.0301526,0.0,0.0,-1.0,-2.0,-2.0,-6.0,-13.0,-4.0
1701798875.0301526,0.0,-2.0,-2.0,-4.0,-1.0,2.0,10.0,8.0
1701798875.0301526,-1.0,-1.0,-1.0,-2.0,-5.0,1.0,2.0,-2.0
1701798875.0301526,-1.0,-3.0,-1.0,1.0,-3.0,3.0,4.0,0.0
1701798875.0301526,-1.0,1.0,0.0,0.0,12.0,3.0,1.0,-1.0
1701798875.0403237,-1.0,-1.0,-2.0,-1.0,-2.0,-2.0,-7.0,-5.0
1701798875.0403237,-1.0,-1.0,-3.0,-2.0,0.0,-3.0,-2.0,-2.0
1701798875.0505092,0.0,0.0,-1.0,-2.0,-3.0,-2.0,1.0,-1.0
1701798875.0505092,-1.0,-2.0,-2.0,-2.0,-6.0,1.0,-2.0,-1.0
1701798875.0701559,0.0,-3.0,0.0,1.0,1.0,1.0,-3.0,-2.0
1701798875.0701559,0.0,0.0,0.0,0.0,-1.0,-1.0,-1.0,0.0
1701798875.0701559,-1.0,0.0,-1.0,-3.0,-2.0,-7.0,-5.0,-3.0
1701798875.0701559,-1.0,-1.0,0.0,-3.0,-2.0,-1.0,0.0,1.0
1701798875.0901632,-2.0,-2.0,-1.0,-1.0,-1.0,1.0,3.0,-1.0
1701798875.0901632,-2.0,-1.0,0.0,0.0,1.0,2.0,1.0,-2.0
1701798875.0901632,-1.0,-2.0,-2.0,-1.0,1.0,-2.0,-3.0,-1.0
1701798875.0901632,1.0,-2.0,-3.0,-1.0,-5.0,-4.0,-2.0,-2.0
1701798875.1005306,-2.0,-1.0,-2.0,-2.0,-2.0,-3.0,-3.0,0.0
1701798875.1005306,0.0,-1.0,-1.0,2.0,3.0,1.0,-1.0,-1.0
1701798875.1201541,-1.0,1.0,0.0,0.0,3.0,3.0,2.0,-1.0
1701798875.1201541,-2.0,-1.0,0.0,1.0,-2.0,1.0,2.0,0.0
1701798875.1201541,-2.0,0.0,-2.0,-2.0,-4.0,0.0,-2.0,-1.0
1701798875.1201541,-2.0,2.0,-1.0,-1.0,0.0,0.0,-1.0,0.0
1701798875.1201541,-1.0,0.0,-1.0,0.0,0.0,-2.0,-1.0,-1.0
1701798875.1201541,0.0,-6.0,-2.0,-2.0,-3.0,-1.0,-3.0,-2.0
1701798875.1501594,0.0,-1.0,-2.0,-4.0,-1.0,-3.0,-2.0,-2.0
1701798875.1501594,-1.0,-2.0,0.0,-4.0,-2.0,-1.0,-1.0,-1.0
1701798875.1501594,0.0,2.0,-2.0,-2.0,-4.0,0.0,0.0,-3.0
1701798875.1501594,-3.0,1.0,0.0,-2.0,-2.0,-3.0,-1.0,-1.0
1701798875.1801646,-2.0,-4.0,-1.0,1.0,1.0,-3.0,-2.0,-2.0
1701798875.1901565,-1.0,1.0,0.0,-1.0,-1.0,0.0,-2.0,0.0
1701798875.2001572,0.0,-2.0,-2.0,-1.0,1.0,1.0,-2.0,-1.0
1701798875.2001572,0.0,0.0,-1.0,1.0,-1.0,-1.0,1.0,-1.0
1701798875.2101524,0.0,0.0,-1.0,-2.0,0.0,-2.0,-1.0,0.0
1701798875.2101524,-1.0,-1.0,-2.0,-2.0,-2.0,-2.0,-2.0,-2.0
1701798875.2101524,-2.0,-2.0,-1.0,-1.0,-4.0,-2.0,0.0,-1.0
1701798875.2101524,1.0,-2.0,-1.0,0.0,0.0,-1.0,2.0,0.0
1701798875.2101524,-1.0,-1.0,1.0,0.0,1.0,0.0,-2.0,0.0
1701798875.2101524,-2.0,-2.0,-1.0,0.0,-2.0,-2.0,-2.0,-1.0
1701798875.2101524,-1.0,-2.0,-1.0,-1.0,-2.0,0.0,-1.0,0.0
1701798875.2101524,-2.0,0.0,-1.0,-1.0,-1.0,0.0,-2.0,-1.0
1701798875.220477,-1.0,-1.0,-1.0,-1.0,0.0,1.0,-1.0,-2.0
1701798875.220477,0.0,-1.0,-2.0,-2.0,-1.0,-2.0,-1.0,0.0
1701798875.232092,-2.0,-2.0,-2.0,-1.0,0.0,0.0,-2.0,-1.0
1701798875.232092,-1.0,0.0,-1.0,-1.0,-1.0,-1.0,0.0,0.0
1701798875.253104,-2.0,0.0,-2.0,-1.0,-1.0,0.0,-2.0,0.0
1701798875.253104,-2.0,0.0,-1.0,-2.0,-2.0,-1.0,-1.0,-1.0
1701798875.2571034,0.0,1.0,-5.0,-2.0,0.0,-3.0,0.0,-1.0
1701798875.2571034,-2.0,1.0,-2.0,0.0,-3.0,-1.0,-1.0,-1.0
1701798875.2626507,-1.0,-1.0,-1.0,0.0,-2.0,-1.0,0.0,-1.0
1701798875.2626507,0.0,-1.0,-2.0,-2.0,-2.0,-1.0,-2.0,0.0
1701798875.2626507,0.0,-1.0,0.0,-1.0,-3.0,-1.0,-2.0,0.0
1701798875.2626507,-1.0,0.0,-2.0,-2.0,-1.0,0.0,-1.0,0.0
1701798875.2926707,1.0,-1.0,-2.0,-1.0,0.0,-1.0,-1.0,0.0
1701798875.2926707,-1.0,-1.0,0.0,-2.0,0.0,-2.0,-1.0,-3.0
1701798875.3026433,0.0,-2.0,-1.0,-1.0,-1.0,-3.0,0.0,-1.0
1701798875.3026433,-1.0,-1.0,1.0,-1.0,-3.0,-1.0,-2.0,-1.0
1701798875.3026433,0.0,0.0,-1.0,0.0,-2.0,0.0,-2.0,-1.0
1701798875.3026433,1.0,-1.0,-2.0,-1.0,-1.0,-1.0,-1.0,-1.0
1701798875.3129103,-1.0,-1.0,-2.0,0.0,1.0,0.0,-1.0,0.0
1701798875.3129103,-1.0,-1.0,-2.0,-1.0,-1.0,0.0,0.0,-2.0
1701798875.3232043,-2.0,-1.0,-1.0,-1.0,-2.0,-1.0,2.0,0.0
1701798875.3232043,0.0,0.0,0.0,-1.0,0.0,-1.0,1.0,-1.0
1701798875.3232043,-1.0,0.0,-1.0,-2.0,-1.0,-2.0,-3.0,-1.0
1701798875.3232043,0.0,-3.0,-1.0,-2.0,-1.0,-1.0,0.0,0.0
1701798875.3629298,-1.0,-2.0,-2.0,0.0,0.0,-1.0,0.0,-1.0
1701798875.3629298,-1.0,-2.0,-3.0,0.0,-1.0,-1.0,0.0,0.0
1701798875.3629298,-1.0,-1.0,-1.0,-1.0,0.0,1.0,0.0,0.0
1701798875.3629298,-1.0,-1.0,0.0,0.0,0.0,0.0,-2.0,1.0
1701798875.3629298,0.0,1.0,-1.0,-2.0,-1.0,-1.0,-2.0,-1.0
1701798875.3629298,-2.0,-1.0,0.0,-1.0,-1.0,0.0,-1.0,-2.0
1701798875.3730752,-1.0,-3.0,0.0,-1.0,-2.0,0.0,0.0,-1.0
1701798875.3730752,-1.0,-1.0,-1.0,-2.0,-1.0,0.0,-1.0,-1.0
1701798875.38328,0.0,-1.0,-1.0,-2.0,-2.0,-1.0,-3.0,1.0
1701798875.38328,0.0,-1.0,-1.0,-2.0,1.0,-1.0,-2.0,-1.0
1701798875.38328,-1.0,1.0,-2.0,-1.0,2.0,-2.0,-1.0,-1.0
1701798875.38328,-1.0,0.0,-2.0,0.0,0.0,0.0,0.0,-2.0
1701798875.402931,0.0,0.0,0.0,-1.0,0.0,-3.0,-1.0,-2.0
1701798875.402931,-2.0,-2.0,1.0,-1.0,-1.0,-4.0,-3.0,-2.0
1701798875.41323,-3.0,-1.0,1.0,-1.0,-2.0,-1.0,-1.0,-1.0
1701798875.41323,0.0,-2.0,1.0,-1.0,-1.0,-2.0,-1.0,-1.0
1701798875.4232512,-2.0,-2.0,0.0,-3.0,-2.0,0.0,-1.0,-2.0
1701798875.4232512,-1.0,-1.0,0.0,-2.0,-1.0,-3.0,-2.0,0.0
1701798875.4332514,-1.0,0.0,-1.0,-3.0,-1.0,-2.0,-2.0,-1.0
1701798875.4332514,1.0,-1.0,-1.0,-1.0,0.0,-2.0,-1.0,-2.0
1701798875.4729307,-1.0,-1.0,2.0,-1.0,-1.0,-2.0,1.0,-2.0
1701798875.4729307,0.0,-2.0,1.0,-2.0,-2.0,-2.0,-1.0,-1.0
1701798875.4729307,1.0,-2.0,2.0,-3.0,-2.0,-3.0,0.0,-2.0
1701798875.4729307,-1.0,-1.0,1.0,-2.0,-1.0,-1.0,-1.0,0.0
1701798875.4729307,0.0,-2.0,0.0,-1.0,0.0,-3.0,0.0,-2.0
1701798875.4729307,-2.0,-1.0,-4.0,1.0,-1.0,2.0,-1.0,-2.0
1701798875.4729307,-2.0,0.0,-4.0,1.0,-3.0,0.0,1.0,1.0
1701798875.4729307,-1.0,0.0,-9.0,-2.0,-5.0,1.0,-3.0,-1.0
1701798875.483119,-3.0,-2.0,-7.0,1.0,-3.0,1.0,-2.0,2.0
1701798875.483119,-1.0,1.0,-6.0,0.0,0.0,0.0,-2.0,1.0
1701798875.4932098,-3.0,0.0,-4.0,-1.0,-1.0,-2.0,-2.0,1.0
1701798875.4932098,-1.0,1.0,-4.0,-1.0,0.0,-2.0,1.0,0.0
1701798875.502932,-3.0,0.0,-2.0,0.0,-1.0,-1.0,0.0,1.0
1701798875.502932,-1.0,1.0,-2.0,-1.0,0.0,-2.0,-1.0,-1.0
1701798875.502932,0.0,-1.0,1.0,-1.0,0.0,-1.0,-2.0,-1.0
1701798875.502932,-1.0,0.0,1.0,-2.0,-2.0,-1.0,0.0,-2.0
1701798875.5232818,0.0,-2.0,0.0,-2.0,-1.0,-1.0,0.0,-2.0
1701798875.5232818,-1.0,-2.0,2.0,-2.0,-2.0,-1.0,0.0,-2.0
1701798875.5329328,-1.0,-1.0,2.0,-1.0,-1.0,-1.0,0.0,-1.0
1701798875.5329328,-1.0,-1.0,-1.0,-1.0,0.0,-1.0,-2.0,-1.0
1701798875.543316,0.0,0.0,0.0,-1.0,0.0,0.0,-2.0,-1.0
1701798875.543316,0.0,-1.0,-2.0,0.0,-1.0,0.0,-1.0,0.0
1701798875.5532484,0.0,-3.0,-1.0,-2.0,0.0,0.0,-1.0,1.0
1701798875.5532484,-3.0,0.0,1.0,-2.0,0.0,-2.0,-1.0,-1.0
1701798875.5729322,-2.0,-2.0,1.0,1.0,1.0,-1.0,-1.0,-2.0
1701798875.5729322,-1.0,-3.0,-1.0,-1.0,-2.0,-1.0,0.0,-1.0
1701798875.5729322,-1.0,0.0,2.0,0.0,-3.0,-1.0,-2.0,-3.0
1701798875.5729322,0.0,-3.0,0.0,1.0,-1.0,0.0,-2.0,-1.0
1701798875.582963,1.0,-1.0,0.0,-1.0,-2.0,0.0,1.0,-2.0
1701798875.582963,-2.0,-1.0,-1.0,-2.0,-1.0,-2.0,-1.0,-2.0
1701798875.5929396,-1.0,0.0,-2.0,-1.0,-2.0,-1.0,-4.0,-2.0
1701798875.5929396,-1.0,0.0,-1.0,-2.0,-2.0,-2.0,-2.0,1.0
1701798875.6033187,-3.0,-2.0,-2.0,-2.0,-1.0,-1.0,-2.0,-1.0
1701798875.6033187,-1.0,0.0,0.0,-1.0,-2.0,-2.0,-1.0,-2.0
1701798875.6132796,-1.0,-1.0,-2.0,-2.0,-1.0,0.0,-1.0,-1.0
1701798875.6132796,1.0,-2.0,0.0,-1.0,0.0,0.0,-1.0,-1.0
1701798875.6232822,-1.0,-1.0,-2.0,0.0,0.0,0.0,-1.0,-1.0
1701798875.6232822,-1.0,-1.0,-3.0,-1.0,-2.0,-1.0,0.0,-1.0
1701798875.6232822,-1.0,1.0,-3.0,-1.0,-1.0,2.0,-1.0,-3.0
1701798875.6232822,-1.0,-2.0,-1.0,-2.0,-1.0,-1.0,-2.0,-1.0
1701798875.652943,-3.0,-1.0,0.0,-1.0,-1.0,0.0,-1.0,-2.0
1701798875.652943,-1.0,-1.0,-1.0,0.0,-1.0,-1.0,0.0,0.0
1701798875.652943,0.0,0.0,0.0,0.0,0.0,-2.0,-1.0,-1.0
1701798875.652943,-1.0,-1.0,-1.0,-1.0,-2.0,-1.0,0.0,1.0
1701798875.6629834,0.0,-2.0,-2.0,-2.0,-4.0,-3.0,-3.0,0.0
1701798875.6629834,-2.0,-1.0,-2.0,-1.0,0.0,0.0,-1.0,0.0
1701798875.673227,-1.0,-1.0,-1.0,-2.0,-1.0,-1.0,-1.0,-2.0
1701798875.673227,0.0,-1.0,-2.0,0.0,-1.0,-2.0,-2.0,-3.0
1701798875.6929312,-2.0,-1.0,-1.0,-2.0,-1.0,1.0,-1.0,-2.0
1701798875.6929312,-2.0,-1.0,0.0,0.0,-1.0,-1.0,-1.0,-1.0
1701798875.6929312,-2.0,-2.0,-3.0,0.0,-1.0,-1.0,-1.0,-1.0
1701798875.6929312,-1.0,-1.0,-1.0,0.0,0.0,-3.0,0.0,-1.0
1701798875.7032454,0.0,0.0,-3.0,-1.0,-2.0,0.0,-1.0,-1.0
1701798875.7032454,0.0,-1.0,1.0,-2.0,-1.0,0.0,2.0,1.0
1701798875.7129333,-1.0,-3.0,-1.0,-3.0,0.0,-1.0,-1.0,0.0
1701798875.7129333,-2.0,-2.0,-1.0,0.0,-2.0,0.0,0.0,-1.0
1701798875.722987,-1.0,-2.0,-1.0,0.0,-1.0,-2.0,0.0,2.0
1701798875.722987,-2.0,-1.0,-2.0,-2.0,-2.0,1.0,-1.0,0.0
1701798875.7329307,0.0,-2.0,-1.0,0.0,-1.0,-1.0,-2.0,-1.0
1701798875.7329307,-1.0,0.0,0.0,-1.0,-1.0,-2.0,-1.0,-1.0
1701798875.7431262,0.0,2.0,-2.0,-1.0,-1.0,-2.0,0.0,0.0
1701798875.7431262,1.0,1.0,-3.0,-3.0,-1.0,0.0,-1.0,-3.0
1701798875.7431262,0.0,-1.0,-2.0,-1.0,-2.0,-1.0,-1.0,-3.0
1701798875.7431262,-1.0,-1.0,-1.0,-2.0,-2.0,-1.0,-2.0,-1.0
1701798875.7730968,0.0,-1.0,1.0,-1.0,0.0,0.0,-3.0,-1.0
1701798875.7730968,-2.0,-1.0,0.0,0.0,-1.0,-2.0,-1.0,0.0
1701798875.7750921,-2.0,-2.0,-1.0,-1.0,-2.0,0.0,0.0,1.0
1701798875.7750921,0.0,-2.0,-3.0,-2.0,-2.0,0.0,-1.0,-1.0
1701798875.7789035,0.0,-3.0,0.0,-2.0,-2.0,-1.0,-1.0,1.0
1701798875.7789035,-2.0,-1.0,0.0,0.0,-1.0,-1.0,-1.0,-3.0
1701798875.7888978,-2.0,-1.0,0.0,-2.0,-1.0,-3.0,-2.0,-3.0
1701798875.7888978,-1.0,-2.0,0.0,-2.0,1.0,-1.0,-1.0,0.0
1701798875.8091593,-2.0,-1.0,0.0,-1.0,0.0,-1.0,1.0,-2.0
1701798875.8091593,0.0,-1.0,0.0,0.0,0.0,0.0,-1.0,-1.0
1701798875.8091593,0.0,-1.0,0.0,-1.0,-1.0,0.0,0.0,-1.0
1701798875.8091593,0.0,0.0,-2.0,-1.0,-1.0,0.0,-1.0,-3.0
1701798875.829085,0.0,-2.0,-2.0,-1.0,-2.0,-2.0,-2.0,-2.0
1701798875.829085,-1.0,-2.0,-2.0,-3.0,1.0,-1.0,-1.0,1.0
1701798875.8389056,-2.0,-1.0,-1.0,-2.0,-2.0,-2.0,-1.0,-4.0
1701798875.8389056,-2.0,-2.0,-1.0,0.0,-1.0,0.0,0.0,0.0
1701798875.8389056,-1.0,-1.0,0.0,-2.0,0.0,-2.0,0.0,-2.0
1701798875.8389056,-2.0,-2.0,-2.0,-1.0,-2.0,0.0,0.0,-1.0
1701798875.8490615,-2.0,-2.0,-1.0,-2.0,-1.0,-2.0,-1.0,1.0
1701798875.8490615,2.0,-1.0,-1.0,-2.0,-1.0,-1.0,-2.0,-2.0
1701798875.869155,-1.0,-3.0,-2.0,0.0,0.0,0.0,0.0,-2.0
1701798875.869155,0.0,0.0,0.0,-1.0,0.0,-1.0,-1.0,-2.0
1701798875.869155,0.0,1.0,-2.0,-1.0,-1.0,-1.0,0.0,1.0
1701798875.869155,-1.0,-2.0,-1.0,-1.0,-1.0,-2.0,0.0,-1.0
1701798875.888932,-2.0,1.0,0.0,-2.0,0.0,-1.0,-1.0,0.0
1701798875.888932,1.0,-1.0,-2.0,-2.0,-2.0,-1.0,-1.0,0.0
1701798875.888932,0.0,0.0,-1.0,-1.0,-2.0,2.0,-1.0,0.0
1701798875.888932,0.0,-1.0,-2.0,0.0,-1.0,0.0,-2.0,-1.0
1701798875.8992007,0.0,-1.0,-1.0,-2.0,-2.0,-1.0,-1.0,-1.0
1701798875.8992007,-1.0,-1.0,0.0,0.0,-1.0,-1.0,-3.0,-2.0
1701798875.908901,0.0,0.0,1.0,0.0,-1.0,-2.0,0.0,0.0
1701798875.908901,-1.0,-1.0,1.0,0.0,-1.0,-1.0,-1.0,1.0
1701798875.9291506,-2.0,-1.0,-3.0,-1.0,-1.0,0.0,-1.0,-2.0
1701798875.9291506,-1.0,-1.0,-1.0,0.0,-2.0,0.0,0.0,-1.0
1701798875.9389045,0.0,-1.0,-1.0,-1.0,-2.0,0.0,0.0,-2.0
1701798875.9389045,-2.0,0.0,-1.0,-1.0,-2.0,0.0,-2.0,-4.0
1701798875.9689076,-1.0,0.0,0.0,-2.0,-2.0,-2.0,-1.0,1.0
1701798875.9689076,-2.0,-1.0,-1.0,-1.0,-2.0,-2.0,-1.0,-3.0
1701798875.9789004,-1.0,-1.0,-2.0,1.0,0.0,1.0,-1.0,0.0
1701798875.9789004,-2.0,-1.0,-2.0,-1.0,-1.0,-2.0,-1.0,1.0
1701798875.9789004,-2.0,-1.0,-2.0,0.0,-1.0,-2.0,-2.0,-2.0
1701798875.9789004,0.0,-1.0,-1.0,-1.0,-1.0,0.0,0.0,4.0
1701798875.9789004,-2.0,0.0,-1.0,-2.0,-1.0,-1.0,-1.0,-1.0
1701798875.9789004,-2.0,0.0,-2.0,-1.0,-2.0,1.0,0.0,-3.0
1701798875.989065,-3.0,-1.0,1.0,1.0,-1.0,0.0,-2.0,-3.0
1701798875.989065,-1.0,-1.0,-2.0,-2.0,1.0,-2.0,-2.0,-2.0
1701798875.989065,-1.0,-1.0,-2.0,-1.0,0.0,-3.0,-1.0,1.0
1701798875.989065,-1.0,-1.0,0.0,-1.0,2.0,-3.0,-2.0,0.0
1701798876.0188982,0.0,-1.0,0.0,-4.0,-2.0,-1.0,0.0,-1.0
1701798876.0188982,-1.0,2.0,0.0,-3.0,-1.0,-2.0,-1.0,-3.0
1701798876.0188982,-1.0,-1.0,-1.0,-2.0,-2.0,0.0,-2.0,-2.0
1701798876.0188982,-2.0,-1.0,-1.0,0.0,-2.0,-2.0,0.0,-2.0
1701798876.0188982,1.0,-1.0,-3.0,0.0,-2.0,-1.0,-1.0,0.0
1701798876.0188982,1.0,-2.0,-2.0,0.0,0.0,-3.0,-1.0,-3.0
1701798876.028932,-1.0,0.0,0.0,-1.0,-2.0,-1.0,-1.0,0.0
1701798876.028932,-1.0,0.0,0.0,-2.0,0.0,-1.0,0.0,0.0
1701798876.0490391,0.0,0.0,0.0,1.0,0.0,0.0,-1.0,0.0
1701798876.0490391,-2.0,-2.0,-1.0,-2.0,-2.0,-1.0,-2.0,0.0
1701798876.0490391,0.0,1.0,0.0,-2.0,1.0,-2.0,0.0,0.0
1701798876.0490391,-1.0,-1.0,-1.0,-2.0,-1.0,-2.0,-1.0,-1.0
1701798876.078899,-2.0,-2.0,1.0,-2.0,0.0,-2.0,-1.0,-2.0
1701798876.078899,1.0,-2.0,0.0,-1.0,1.0,-1.0,-1.0,-1.0
1701798876.078899,-1.0,-1.0,-2.0,-1.0,0.0,1.0,-3.0,-2.0
1701798876.078899,-1.0,0.0,-2.0,-1.0,-1.0,0.0,0.0,0.0
1701798876.078899,-1.0,0.0,-2.0,-2.0,-2.0,0.0,-2.0,-1.0
1701798876.078899,-2.0,1.0,-1.0,-1.0,-1.0,-1.0,-1.0,0.0
1701798876.0889096,-1.0,-2.0,0.0,0.0,-2.0,-2.0,0.0,0.0
1701798876.0889096,1.0,-1.0,-1.0,0.0,0.0,-1.0,-2.0,-2.0
1701798876.1089542,0.0,-1.0,-1.0,0.0,-1.0,-1.0,0.0,1.0
1701798876.1089542,0.0,-1.0,-1.0,0.0,-1.0,-1.0,0.0,-1.0
1701798876.1089542,-1.0,-1.0,0.0,-1.0,-2.0,2.0,-1.0,-1.0
1701798876.1089542,0.0,-1.0,0.0,0.0,-1.0,-3.0,-1.0,-2.0
1701798876.1488976,-1.0,-1.0,-2.0,1.0,-1.0,-2.0,-1.0,0.0
1701798876.1488976,-2.0,0.0,0.0,0.0,0.0,1.0,-1.0,-2.0
1701798876.1488976,0.0,-2.0,-2.0,-1.0,-1.0,-2.0,-2.0,-2.0
1701798876.1488976,-3.0,0.0,1.0,-2.0,0.0,0.0,0.0,0.0
1701798876.1488976,-2.0,-2.0,-1.0,-3.0,1.0,-1.0,-1.0,0.0
1701798876.1488976,-1.0,-1.0,-2.0,0.0,0.0,0.0,-2.0,0.0
1701798876.1488976,-2.0,-1.0,-2.0,0.0,-2.0,-4.0,0.0,1.0
1701798876.1488976,0.0,0.0,0.0,-2.0,-3.0,-1.0,-1.0,0.0
1701798876.1692765,-2.0,-1.0,-1.0,-2.0,0.0,-2.0,-1.0,-1.0
1701798876.1692765,-1.0,-2.0,-2.0,-1.0,1.0,1.0,0.0,0.0
1701798876.1692765,0.0,-1.0,0.0,-1.0,-1.0,-2.0,-1.0,0.0
1701798876.1692765,0.0,-2.0,-1.0,1.0,-1.0,-1.0,-1.0,0.0
1701798876.1888978,0.0,0.0,0.0,-2.0,-1.0,-2.0,0.0,0.0
1701798876.1888978,-2.0,2.0,0.0,-2.0,-1.0,-2.0,-3.0,-1.0
1701798876.1888978,-1.0,-1.0,0.0,-1.0,-1.0,-1.0,0.0,1.0
1701798876.1888978,-3.0,0.0,-1.0,1.0,0.0,0.0,-1.0,-2.0
1701798876.199235,-2.0,-1.0,-2.0,1.0,-1.0,1.0,0.0,-1.0
1701798876.199235,-2.0,0.0,-3.0,1.0,-2.0,0.0,-1.0,0.0
1701798876.2092001,0.0,-2.0,-5.0,1.0,-2.0,2.0,-1.0,0.0
1701798876.2092001,-1.0,0.0,-5.0,-1.0,-1.0,3.0,-2.0,1.0
1701798876.238899,-1.0,0.0,-4.0,-1.0,0.0,-1.0,-2.0,-3.0
1701798876.2488968,-1.0,-2.0,-3.0,-1.0,-2.0,-1.0,-3.0,0.0
1701798876.2488968,0.0,0.0,-1.0,-2.0,-1.0,-2.0,0.0,-1.0
1701798876.2488968,-1.0,-2.0,-2.0,-1.0,0.0,-2.0,-1.0,0.0
1701798876.2592456,-1.0,-1.0,1.0,0.0,-1.0,0.0,-2.0,-1.0
1701798876.2592456,-1.0,0.0,-1.0,-1.0,1.0,-1.0,0.0,0.0
1701798876.2592456,-1.0,-1.0,-1.0,-1.0,0.0,-3.0,-2.0,-2.0
1701798876.2592456,0.0,0.0,0.0,-3.0,0.0,-3.0,-1.0,-1.0
1701798876.2692719,0.0,0.0,0.0,-1.0,0.0,-1.0,-1.0,-2.0
1701798876.2692719,-1.0,-3.0,1.0,-2.0,0.0,-2.0,1.0,-2.0
1701798876.2789004,-3.0,-3.0,0.0,-4.0,0.0,0.0,-1.0,-2.0
1701798876.2789004,-1.0,-2.0,3.0,-2.0,-2.0,-1.0,-2.0,-2.0
1701798876.2897081,-1.0,-1.0,1.0,-2.0,0.0,-1.0,-2.0,-3.0
1701798876.2897081,0.0,1.0,1.0,-3.0,-2.0,-2.0,0.0,-1.0
1701798876.3011513,-2.0,-1.0,-1.0,-1.0,-2.0,-2.0,0.0,-2.0
1701798876.3011513,-1.0,0.0,-2.0,-2.0,-2.0,-1.0,-1.0,-1.0
1701798876.3118198,0.0,-2.0,0.0,-1.0,-3.0,-1.0,-1.0,2.0
1701798876.3118198,-1.0,-2.0,-1.0,-1.0,-2.0,-1.0,-1.0,0.0
1701798876.3118198,1.0,1.0,-2.0,-2.0,0.0,-1.0,-1.0,-1.0
1701798876.3118198,-1.0,-1.0,2.0,-2.0,0.0,-1.0,0.0,-2.0
1701798876.3320177,0.0,-1.0,-2.0,0.0,0.0,-3.0,0.0,0.0
1701798876.3320177,-1.0,-1.0,-2.0,-1.0,-2.0,0.0,-2.0,-2.0
1701798876.3320177,-1.0,-2.0,-2.0,-1.0,-1.0,-1.0,-2.0,-1.0
1701798876.3320177,-1.0,-2.0,0.0,0.0,-1.0,0.0,-1.0,0.0
1701798876.3420289,-1.0,0.0,-3.0,-1.0,0.0,0.0,-2.0,-2.0
1701798876.3420289,-1.0,0.0,-1.0,-3.0,-1.0,0.0,-1.0,-1.0
1701798876.3519783,-1.0,-1.0,-1.0,1.0,-2.0,-1.0,-1.0,-2.0
1701798876.3519783,-1.0,-2.0,-2.0,-1.0,0.0,-1.0,1.0,0.0
1701798876.381817,0.0,-2.0,-1.0,-1.0,-3.0,0.0,-1.0,-1.0
1701798876.381817,-1.0,-2.0,0.0,0.0,-2.0,1.0,-1.0,-3.0
1701798876.3918183,0.0,-1.0,-2.0,-1.0,-1.0,-2.0,-2.0,0.0
1701798876.3918183,2.0,0.0,-2.0,-1.0,-3.0,0.0,-1.0,-2.0
1701798876.3918183,-1.0,-1.0,-1.0,-1.0,-2.0,0.0,-1.0,1.0
1701798876.3918183,-1.0,-2.0,-1.0,-2.0,-2.0,-1.0,-1.0,-1.0
1701798876.3918183,0.0,1.0,-2.0,0.0,0.0,0.0,0.0,-2.0
1701798876.3918183,0.0,-1.0,-2.0,-1.0,-1.0,-1.0,-2.0,-1.0
1701798876.4118118,-2.0,0.0,1.0,-1.0,-2.0,-2.0,-1.0,0.0
1701798876.4118118,0.0,-2.0,0.0,-1.0,-1.0,-3.0,-1.0,-1.0
1701798876.4118118,-1.0,-1.0,1.0,-1.0,-2.0,1.0,-1.0,0.0
1701798876.4118118,-1.0,0.0,-3.0,1.0,0.0,-1.0,-2.0,-1.0
1701798876.4321837,-1.0,-1.0,-1.0,-3.0,-1.0,0.0,1.0,-2.0
1701798876.4321837,0.0,0.0,1.0,0.0,2.0,-1.0,0.0,-1.0
1701798876.4321837,-1.0,-1.0,-1.0,-2.0,-2.0,-3.0,-1.0,-3.0
1701798876.4321837,-1.0,-1.0,-1.0,-1.0,-5.0,-2.0,-1.0,0.0
1701798876.4522107,0.0,-2.0,0.0,0.0,-4.0,0.0,0.0,-2.0
1701798876.4522107,-2.0,1.0,-2.0,3.0,10.0,1.0,2.0,-1.0
1701798876.4522107,-2.0,-2.0,-2.0,0.0,2.0,1.0,1.0,0.0
1701798876.4522107,-3.0,-2.0,0.0,0.0,1.0,-3.0,-1.0,-1.0
1701798876.4718132,-2.0,-1.0,0.0,-1.0,-5.0,-2.0,-2.0,-2.0
1701798876.4718132,-1.0,-1.0,0.0,-3.0,-8.0,-3.0,-2.0,-1.0
1701798876.4718132,-1.0,1.0,-1.0,0.0,-2.0,-1.0,-2.0,-1.0
1701798876.4718132,0.0,0.0,-1.0,-1.0,2.0,-1.0,-1.0,-1.0
1701798876.4921536,-2.0,-1.0,-1.0,-2.0,-1.0,0.0,-2.0,-1.0
1701798876.4921536,-2.0,0.0,-2.0,-2.0,-1.0,-1.0,-2.0,-1.0
1701798876.4921536,0.0,0.0,-1.0,-2.0,-1.0,-1.0,-1.0,-1.0
1701798876.4921536,-2.0,-1.0,-1.0,1.0,-3.0,0.0,0.0,-2.0
1701798876.5120354,-1.0,-2.0,-1.0,-1.0,2.0,-1.0,1.0,-1.0
1701798876.5120354,-1.0,-1.0,-2.0,-2.0,-2.0,-1.0,0.0,1.0
1701798876.5120354,-2.0,-2.0,0.0,-2.0,-4.0,-1.0,-2.0,1.0
1701798876.5120354,0.0,0.0,-1.0,0.0,1.0,0.0,0.0,-2.0
1701798876.5318127,1.0,0.0,-2.0,0.0,0.0,0.0,0.0,-3.0
1701798876.5318127,-2.0,-1.0,-1.0,-1.0,-2.0,-1.0,-2.0,0.0
1701798876.5318127,0.0,-2.0,0.0,0.0,0.0,-1.0,-3.0,0.0
1701798876.5318127,-2.0,0.0,-1.0,-1.0,-1.0,0.0,-1.0,-1.0
1701798876.5519342,-1.0,0.0,-2.0,1.0,1.0,-1.0,1.0,-1.0
1701798876.5519342,-1.0,-1.0,-4.0,-2.0,-2.0,-2.0,-2.0,-2.0
1701798876.5519342,-1.0,-3.0,0.0,-1.0,-1.0,0.0,-2.0,-2.0
1701798876.5519342,-2.0,-2.0,-1.0,-3.0,-2.0,-2.0,-2.0,-1.0
1701798876.571815,-2.0,-2.0,-1.0,-1.0,-1.0,-1.0,-4.0,0.0
1701798876.571815,-2.0,-2.0,-1.0,-3.0,0.0,-2.0,-2.0,0.0
1701798876.571815,-1.0,-2.0,-2.0,0.0,1.0,-2.0,0.0,-1.0
1701798876.571815,-1.0,-2.0,-1.0,-2.0,-1.0,0.0,-2.0,0.0
1701798876.5821013,0.0,1.0,-2.0,-1.0,-1.0,-3.0,-1.0,-1.0
1701798876.5821013,1.0,0.0,-1.0,0.0,-2.0,0.0,0.0,-1.0
1701798876.5921147,-1.0,-1.0,-2.0,1.0,-3.0,-1.0,1.0,-2.0
1701798876.5921147,-2.0,0.0,-3.0,2.0,0.0,-2.0,-1.0,-1.0
1701798876.6121814,-2.0,-3.0,-2.0,-1.0,0.0,0.0,0.0,-1.0
1701798876.6121814,-1.0,-2.0,-1.0,-2.0,-2.0,-1.0,-1.0,0.0
1701798876.6121814,0.0,1.0,0.0,-1.0,0.0,-1.0,-1.0,0.0
1701798876.6121814,0.0,0.0,0.0,-3.0,-1.0,2.0,-2.0,0.0
1701798876.6418114,0.0,-2.0,-2.0,0.0,-1.0,-2.0,0.0,0.0
1701798876.6418114,0.0,-4.0,-2.0,-4.0,0.0,0.0,-2.0,-2.0
1701798876.6418114,-2.0,0.0,-1.0,-3.0,1.0,-1.0,1.0,-1.0
1701798876.6418114,-1.0,0.0,-1.0,-2.0,0.0,-1.0,1.0,-1.0
1701798876.6418114,-1.0,0.0,1.0,-1.0,-1.0,-1.0,1.0,0.0
1701798876.6418114,-2.0,-1.0,-1.0,0.0,-2.0,-1.0,-1.0,-2.0
1701798876.6520164,0.0,0.0,1.0,0.0,-2.0,-2.0,-1.0,-1.0
1701798876.6520164,0.0,-2.0,-1.0,0.0,0.0,-2.0,-3.0,0.0
1701798876.6720443,-1.0,-1.0,-1.0,-1.0,-3.0,0.0,-2.0,-2.0
1701798876.6720443,0.0,-1.0,0.0,0.0,-1.0,-1.0,-1.0,-2.0
1701798876.6720443,-3.0,-2.0,-1.0,-2.0,1.0,-2.0,-2.0,0.0
1701798876.6720443,-2.0,-3.0,-1.0,0.0,-2.0,-2.0,0.0,-1.0
1701798876.7218118,0.0,0.0,1.0,-1.0,-3.0,-1.0,-2.0,-2.0
1701798876.7218118,-1.0,-1.0,-2.0,0.0,-1.0,-2.0,0.0,0.0
1701798876.7218118,-2.0,-1.0,-1.0,-1.0,-2.0,-2.0,-2.0,-2.0
1701798876.7218118,-1.0,-1.0,-2.0,1.0,-1.0,-1.0,1.0,-2.0
1701798876.7218118,-1.0,-1.0,1.0,-1.0,0.0,0.0,-1.0,0.0
1701798876.7218118,-2.0,-1.0,1.0,1.0,-2.0,-1.0,0.0,-2.0
1701798876.7218118,-1.0,-2.0,-1.0,-2.0,-2.0,0.0,-2.0,0.0
1701798876.7218118,-1.0,-1.0,-1.0,0.0,-2.0,-1.0,-1.0,0.0
1701798876.732116,-1.0,-2.0,-2.0,-2.0,-1.0,0.0,-1.0,-1.0
1701798876.732116,-1.0,-1.0,1.0,0.0,0.0,-1.0,-1.0,-1.0
1701798876.732116,0.0,0.0,-1.0,-1.0,-1.0,-2.0,1.0,-2.0
1701798876.732116,-1.0,-1.0,-1.0,-2.0,-1.0,-1.0,-1.0,-1.0
1701798876.7518158,-2.0,-2.0,-1.0,1.0,1.0,-1.0,-3.0,1.0
1701798876.7518158,-1.0,1.0,-1.0,-1.0,-1.0,0.0,-1.0,0.0
1701798876.7720613,-1.0,-2.0,-1.0,-1.0,-1.0,0.0,0.0,0.0
1701798876.7720613,0.0,0.0,-2.0,-2.0,-1.0,-2.0,0.0,-2.0
1701798876.7720613,-2.0,0.0,-1.0,-1.0,0.0,-3.0,0.0,-1.0
1701798876.7720613,0.0,-1.0,-2.0,-1.0,-3.0,0.0,-1.0,-1.0
1701798876.7720613,-1.0,1.0,-1.0,0.0,-1.0,-1.0,-4.0,0.0
1701798876.7720613,-2.0,-1.0,1.0,-1.0,-1.0,-1.0,-2.0,-2.0
1701798876.7918634,-1.0,1.0,0.0,-2.0,0.0,-1.0,-1.0,-1.0
1701798876.7918634,-1.0,-2.0,-1.0,1.0,0.0,1.0,1.0,0.0
1701798876.7918634,-1.0,-3.0,-1.0,1.0,-1.0,0.0,-1.0,-1.0
1701798876.7918634,-2.0,0.0,-2.0,-3.0,-2.0,-2.0,-1.0,0.0
1701798876.8118138,-1.0,-1.0,-1.0,-2.0,-1.0,-1.0,-2.0,0.0
1701798876.8118138,-1.0,0.0,-1.0,-3.0,-1.0,-3.0,-2.0,0.0
1701798876.8118138,0.0,-1.0,1.0,-1.0,-3.0,-2.0,0.0,-1.0
1701798876.8118138,-1.0,1.0,2.0,0.0,-1.0,-2.0,0.0,-1.0
1701798876.837522,1.0,-1.0,1.0,0.0,-2.0,-1.0,-2.0,-3.0
1701798876.837522,-2.0,0.0,0.0,-1.0,-3.0,-2.0,-1.0,-2.0
1701798876.8387742,-2.0,-1.0,2.0,-1.0,-1.0,-1.0,-1.0,-1.0
1701798876.8387742,0.0,-1.0,2.0,0.0,0.0,-1.0,0.0,0.0
1701798876.8545222,-1.0,-4.0,1.0,-1.0,1.0,0.0,0.0,1.0
1701798876.8545222,-1.0,-1.0,-2.0,0.0,0.0,0.0,-2.0,0.0
1701798876.8545222,0.0,-2.0,-5.0,-1.0,-1.0,2.0,-1.0,1.0
1701798876.8545222,-1.0,-2.0,-4.0,1.0,-3.0,1.0,-1.0,-3.0
1701798876.874702,-2.0,-2.0,-8.0,0.0,-3.0,1.0,-1.0,-1.0
1701798876.874702,-1.0,1.0,-5.0,0.0,-2.0,1.0,-2.0,1.0
1701798876.874702,-3.0,2.0,0.0,-1.0,0.0,0.0,-1.0,0.0
1701798876.874702,-1.0,2.0,-3.0,-3.0,-1.0,1.0,-1.0,1.0
1701798876.8847673,-1.0,0.0,-1.0,-2.0,-1.0,-4.0,-1.0,0.0
1701798876.8847673,-1.0,-3.0,-6.0,-3.0,-2.0,-2.0,-2.0,-1.0
1701798876.894774,-2.0,-2.0,-4.0,-2.0,-1.0,-2.0,-1.0,-2.0
1701798876.894774,-2.0,-1.0,-2.0,-2.0,-1.0,0.0,-2.0,-1.0
1701798876.914529,-2.0,-3.0,-1.0,0.0,0.0,-2.0,0.0,-1.0
1701798876.914529,-1.0,-1.0,1.0,-2.0,0.0,-3.0,-1.0,-1.0
1701798876.9345212,-1.0,-2.0,1.0,-2.0,1.0,-3.0,-1.0,-1.0
1701798876.9345212,-2.0,-2.0,-1.0,-2.0,2.0,-2.0,-1.0,-1.0
1701798876.9445202,1.0,-1.0,-1.0,-3.0,-1.0,0.0,0.0,-1.0
1701798876.9445202,-2.0,-2.0,1.0,-1.0,-1.0,0.0,0.0,-1.0
1701798876.9445202,-1.0,-1.0,-1.0,0.0,-2.0,0.0,-1.0,0.0
1701798876.9445202,0.0,0.0,-1.0,0.0,-1.0,-1.0,-2.0,-1.0
1701798876.9445202,-2.0,0.0,0.0,0.0,-2.0,-2.0,-2.0,-2.0
1701798876.9445202,1.0,-2.0,1.0,0.0,-1.0,-1.0,-1.0,-1.0
1701798876.964523,-1.0,-2.0,-3.0,-3.0,-1.0,1.0,0.0,-1.0
1701798876.964523,0.0,-2.0,0.0,-3.0,-2.0,-3.0,0.0,-2.0
1701798876.964523,-2.0,0.0,1.0,0.0,-1.0,-1.0,-1.0,-3.0
1701798876.964523,-2.0,-1.0,0.0,-2.0,-2.0,-2.0,1.0,-1.0
1701798876.9745212,-1.0,-2.0,-1.0,-1.0,-3.0,-1.0,-2.0,-2.0
1701798876.9745212,-1.0,-1.0,0.0,2.0,0.0,1.0,-1.0,0.0
1701798876.9946368,0.0,0.0,1.0,-2.0,-1.0,-2.0,-2.0,-1.0
1701798876.9946368,-1.0,0.0,0.0,-1.0,2.0,-2.0,-2.0,-1.0
1701798876.9946368,1.0,1.0,-1.0,-1.0,-1.0,-1.0,0.0,-1.0
1701798876.9946368,-2.0,-1.0,-1.0,-1.0,0.0,-2.0,-1.0,-1.0
1701798877.004905,-1.0,0.0,-1.0,-2.0,-2.0,1.0,0.0,1.0
1701798877.004905,-2.0,0.0,0.0,-2.0,0.0,-1.0,-2.0,-2.0
1701798877.0245204,1.0,0.0,-2.0,-2.0,-2.0,0.0,1.0,-1.0
1701798877.0245204,-1.0,-1.0,-2.0,-3.0,-2.0,0.0,0.0,-1.0
1701798877.0245204,-2.0,1.0,-2.0,-1.0,-1.0,-1.0,-3.0,-2.0
1701798877.0245204,-1.0,-3.0,-2.0,-2.0,-2.0,1.0,0.0,-1.0
1701798877.0245204,-1.0,-2.0,-1.0,0.0,-1.0,-3.0,-1.0,-2.0
1701798877.0245204,-2.0,0.0,1.0,-1.0,-1.0,-2.0,-3.0,-1.0
1701798877.054892,-2.0,-2.0,-1.0,0.0,-3.0,-1.0,-2.0,-1.0
1701798877.054892,0.0,-2.0,0.0,-1.0,-1.0,-1.0,-2.0,-2.0
1701798877.054892,-1.0,0.0,-2.0,-2.0,-1.0,1.0,-2.0,0.0
1701798877.054892,-1.0,0.0,-1.0,0.0,-2.0,-1.0,0.0,0.0
1701798877.0748491,-1.0,-1.0,0.0,-2.0,1.0,0.0,0.0,-1.0
1701798877.0748491,-1.0,0.0,0.0,-1.0,-2.0,-2.0,-1.0,-1.0
1701798877.0748491,-2.0,-1.0,-1.0,-1.0,-1.0,-4.0,0.0,-1.0
1701798877.0748491,0.0,-1.0,-3.0,-2.0,-2.0,-1.0,-1.0,-1.0
1701798877.0848198,0.0,0.0,-3.0,-2.0,0.0,-3.0,-1.0,-2.0
1701798877.0848198,-1.0,0.0,-3.0,1.0,-3.0,-1.0,0.0,-1.0
1701798877.0848198,-1.0,-3.0,-2.0,-1.0,-1.0,1.0,-2.0,-1.0
1701798877.0848198,-1.0,-3.0,-1.0,0.0,-2.0,-2.0,-2.0,-1.0
1701798877.1245248,-1.0,-1.0,-2.0,-3.0,-1.0,-2.0,0.0,0.0
1701798877.1245248,-2.0,1.0,-2.0,0.0,0.0,-1.0,-1.0,1.0
1701798877.1245248,0.0,1.0,1.0,1.0,-1.0,-1.0,-1.0,0.0
1701798877.1245248,0.0,0.0,0.0,0.0,1.0,0.0,-1.0,-1.0
1701798877.1245248,-1.0,-1.0,0.0,-1.0,-2.0,-1.0,-2.0,-2.0
1701798877.1245248,-2.0,1.0,-2.0,-1.0,-1.0,0.0,1.0,-1.0
1701798877.144521,0.0,0.0,0.0,0.0,-1.0,-2.0,0.0,-4.0
1701798877.144521,1.0,0.0,-1.0,-2.0,-1.0,0.0,-1.0,0.0
1701798877.144521,-1.0,-2.0,-2.0,0.0,-1.0,-1.0,0.0,0.0
1701798877.144521,0.0,-2.0,1.0,-1.0,-3.0,-2.0,-1.0,-1.0
1701798877.1548402,-2.0,-1.0,-1.0,-2.0,-3.0,-1.0,-1.0,-2.0
1701798877.1548402,-2.0,-1.0,-2.0,-3.0,-1.0,-2.0,0.0,-2.0
1701798877.174645,0.0,-2.0,-1.0,-2.0,0.0,-1.0,-2.0,-1.0
1701798877.174645,-1.0,-2.0,0.0,0.0,0.0,-2.0,-3.0,-2.0
1701798877.174645,-2.0,-2.0,-1.0,0.0,0.0,-1.0,-1.0,0.0
1701798877.174645,-2.0,0.0,-1.0,0.0,-2.0,-2.0,-1.0,-1.0
1701798877.1945198,-2.0,0.0,-2.0,0.0,0.0,0.0,0.0,-1.0
1701798877.1945198,-1.0,-2.0,-2.0,-2.0,-1.0,0.0,0.0,-2.0
1701798877.1945198,0.0,-1.0,0.0,-1.0,-1.0,-2.0,-2.0,-1.0
1701798877.1945198,-2.0,-2.0,-1.0,0.0,-1.0,-1.0,0.0,-1.0
1701798877.2049036,-3.0,-1.0,-1.0,-1.0,0.0,0.0,-1.0,0.0
1701798877.2049036,1.0,0.0,0.0,-1.0,-2.0,-1.0,0.0,1.0
1701798877.2148404,-1.0,0.0,0.0,-1.0,-1.0,-3.0,-2.0,0.0
1701798877.2148404,0.0,-1.0,0.0,-2.0,-1.0,1.0,-1.0,-1.0
1701798877.2346396,-1.0,1.0,-1.0,-2.0,-2.0,-2.0,-1.0,-1.0
1701798877.2346396,-1.0,-1.0,-3.0,-2.0,-2.0,0.0,-2.0,-3.0
1701798877.2346396,-3.0,-1.0,-2.0,0.0,-2.0,0.0,-1.0,-2.0
1701798877.2346396,-1.0,-2.0,-2.0,-2.0,-1.0,0.0,-3.0,-1.0
1701798877.2545211,0.0,-2.0,1.0,-1.0,-1.0,1.0,-1.0,-1.0
1701798877.2545211,0.0,0.0,0.0,-3.0,0.0,-2.0,-2.0,-1.0
1701798877.2545211,1.0,-1.0,-1.0,-1.0,1.0,-2.0,0.0,-2.0
1701798877.2545211,0.0,-1.0,-2.0,-1.0,-2.0,-1.0,0.0,-2.0
1701798877.2648342,0.0,0.0,0.0,-2.0,-1.0,0.0,0.0,-1.0
1701798877.2648342,-2.0,-1.0,0.0,0.0,-2.0,-2.0,-1.0,0.0
1701798877.274789,-1.0,-2.0,0.0,-1.0,0.0,0.0,-2.0,0.0
1701798877.274789,-1.0,1.0,0.0,-2.0,0.0,-4.0,-2.0,-1.0
1701798877.2946768,-1.0,-1.0,-2.0,1.0,-1.0,-3.0,1.0,-1.0
1701798877.2946768,0.0,-2.0,-1.0,0.0,-1.0,-2.0,-1.0,-1.0
1701798877.2946768,1.0,-1.0,0.0,-1.0,-1.0,0.0,0.0,1.0
1701798877.2946768,0.0,-1.0,-1.0,0.0,1.0,-2.0,-2.0,-2.0
1701798877.31452,-1.0,-2.0,1.0,-2.0,-3.0,-2.0,-2.0,-1.0
1701798877.31452,-1.0,-2.0,-3.0,-1.0,-1.0,-1.0,-2.0,-1.0
1701798877.31452,1.0,-1.0,-4.0,-4.0,-1.0,-1.0,0.0,0.0
1701798877.31452,-2.0,-1.0,-2.0,-1.0,0.0,-2.0,-1.0,0.0
1701798877.3248863,0.0,0.0,-2.0,0.0,-3.0,-2.0,1.0,-1.0
1701798877.3248863,-2.0,1.0,-1.0,-1.0,0.0,-1.0,-4.0,-2.0
1701798877.3347957,-3.0,0.0,-1.0,0.0,-1.0,0.0,-2.0,-1.0
1701798877.3347957,-2.0,-1.0,-1.0,-2.0,-2.0,-1.0,0.0,-2.0
1701798877.354389,-1.0,-3.0,-2.0,0.0,-1.0,-3.0,-2.0,-1.0
1701798877.354389,-2.0,-1.0,-1.0,-2.0,-3.0,-1.0,0.0,-1.0
1701798877.3561463,-2.0,-2.0,-1.0,-2.0,-1.0,-2.0,-1.0,0.0
1701798877.3561463,-1.0,-1.0,-1.0,0.0,-1.0,1.0,-1.0,-3.0
1701798877.376973,-1.0,-1.0,1.0,-1.0,-1.0,-2.0,-1.0,0.0
1701798877.376973,0.0,-3.0,-1.0,-2.0,-2.0,-1.0,0.0,-1.0
1701798877.376973,-1.0,-1.0,-1.0,-3.0,-1.0,-2.0,-1.0,-2.0
1701798877.376973,1.0,-2.0,-2.0,-2.0,-1.0,1.0,-3.0,0.0
1701798877.3873217,-1.0,-2.0,-1.0,-1.0,-2.0,-2.0,-3.0,-1.0
1701798877.3873217,1.0,-1.0,1.0,-2.0,-1.0,-2.0,1.0,-1.0
1701798877.3973272,0.0,-2.0,1.0,-2.0,-2.0,-1.0,-4.0,-4.0
1701798877.3973272,0.0,1.0,1.0,-1.0,-2.0,-3.0,-4.0,-5.0
1701798877.417337,-1.0,-1.0,-1.0,-2.0,-1.0,1.0,4.0,0.0
1701798877.417337,-1.0,-2.0,-1.0,0.0,2.0,-1.0,0.0,-1.0
1701798877.417337,-1.0,-1.0,-3.0,0.0,0.0,0.0,0.0,1.0
1701798877.417337,-1.0,-2.0,-1.0,0.0,0.0,-1.0,-1.0,0.0
1701798877.4373467,-2.0,-1.0,-4.0,-2.0,-1.0,-1.0,-1.0,-3.0
1701798877.4373467,1.0,-1.0,-1.0,-1.0,0.0,-1.0,-1.0,-1.0
1701798877.4373467,-2.0,0.0,0.0,-3.0,-2.0,0.0,-2.0,0.0
1701798877.4373467,-2.0,-1.0,-2.0,-2.0,-2.0,0.0,2.0,0.0
1701798877.4475427,0.0,0.0,-1.0,0.0,-1.0,-3.0,-1.0,-1.0
1701798877.4475427,-1.0,-1.0,-1.0,-1.0,-2.0,-1.0,-2.0,-1.0
1701798877.457558,1.0,-1.0,-1.0,0.0,-1.0,-1.0,-3.0,-3.0
1701798877.457558,-1.0,-2.0,-2.0,0.0,-2.0,-1.0,-2.0,1.0
1701798877.4973383,0.0,-1.0,-2.0,-2.0,0.0,-1.0,-3.0,-2.0
1701798877.4973383,-2.0,-1.0,0.0,0.0,0.0,-3.0,-2.0,-2.0
1701798877.4973383,-1.0,0.0,-2.0,0.0,-1.0,-1.0,0.0,0.0
1701798877.4973383,-1.0,-2.0,0.0,-1.0,0.0,-2.0,1.0,-2.0
1701798877.4973383,-1.0,-1.0,1.0,1.0,-1.0,1.0,-2.0,0.0
1701798877.4973383,-3.0,-1.0,-3.0,-1.0,-2.0,0.0,-1.0,-1.0
1701798877.4973383,0.0,0.0,0.0,-1.0,-2.0,-1.0,-2.0,0.0
1701798877.4973383,-1.0,0.0,-1.0,-2.0,-2.0,-2.0,0.0,-1.0
1701798877.5076277,0.0,0.0,-1.0,-1.0,-2.0,0.0,-2.0,-1.0
1701798877.5076277,-1.0,0.0,-2.0,0.0,0.0,-2.0,-1.0,-2.0
1701798877.51765,-2.0,-1.0,-1.0,0.0,-1.0,0.0,-2.0,-2.0
1701798877.51765,0.0,0.0,-2.0,-1.0,0.0,1.0,-2.0,2.0
1701798877.5373366,0.0,-1.0,-1.0,-3.0,0.0,0.0,-2.0,0.0
1701798877.5373366,1.0,0.0,-1.0,-2.0,1.0,-2.0,-1.0,-3.0
1701798877.5373366,-2.0,-2.0,-1.0,-1.0,-1.0,-3.0,-4.0,-1.0
1701798877.5373366,0.0,-1.0,0.0,-1.0,-1.0,0.0,4.0,-1.0
1701798877.5573409,-3.0,0.0,-2.0,-2.0,-1.0,-1.0,0.0,-1.0
1701798877.5573409,-2.0,0.0,-1.0,0.0,-2.0,0.0,1.0,0.0
1701798877.5573409,-1.0,0.0,-3.0,0.0,-2.0,-1.0,-1.0,-1.0
1701798877.5573409,0.0,0.0,-1.0,1.0,-1.0,-2.0,-4.0,-1.0
1701798877.567706,-1.0,-2.0,-2.0,0.0,0.0,-1.0,-1.0,-1.0
1701798877.567706,0.0,-1.0,-2.0,-3.0,-3.0,0.0,-1.0,2.0
1701798877.577668,-2.0,0.0,-2.0,-1.0,-2.0,-3.0,1.0,-3.0
1701798877.577668,-2.0,-1.0,-2.0,-1.0,-1.0,-1.0,-1.0,-2.0
1701798877.597337,-1.0,0.0,0.0,-1.0,0.0,0.0,-2.0,-1.0
1701798877.597337,1.0,0.0,0.0,-2.0,1.0,0.0,-2.0,8.0
1701798877.597337,-2.0,0.0,0.0,-1.0,0.0,-1.0,-3.0,-4.0
1701798877.597337,-1.0,-2.0,0.0,-4.0,-1.0,-3.0,-5.0,-7.0
1701798877.6173449,0.0,-2.0,3.0,-1.0,1.0,1.0,2.0,2.0
1701798877.6173449,-1.0,1.0,-1.0,0.0,-1.0,0.0,4.0,4.0
1701798877.6173449,-3.0,-1.0,-3.0,-1.0,-2.0,-1.0,0.0,-3.0
1701798877.6173449,-1.0,-4.0,-2.0,0.0,-1.0,-2.0,-6.0,0.0
1701798877.6273484,-3.0,0.0,-3.0,0.0,-4.0,-2.0,-1.0,-4.0
1701798877.6273484,-1.0,-3.0,-1.0,0.0,-2.0,-2.0,-1.0,-1.0
1701798877.6573381,3.0,1.0,-1.0,-2.0,-1.0,0.0,4.0,2.0
1701798877.6573381,-2.0,-1.0,-1.0,-1.0,-2.0,-1.0,-4.0,-1.0
1701798877.6573381,0.0,-1.0,-1.0,-1.0,-2.0,-2.0,-2.0,0.0
1701798877.6573381,-1.0,-1.0,-1.0,-2.0,-2.0,-2.0,0.0,-3.0
1701798877.6573381,0.0,0.0,-3.0,0.0,-2.0,-1.0,-2.0,2.0
1701798877.6573381,1.0,-2.0,-3.0,0.0,-1.0,1.0,2.0,5.0
1701798877.6675007,-5.0,-5.0,-2.0,-3.0,-3.0,-2.0,-3.0,-11.0
1701798877.6773398,1.0,-4.0,-1.0,-1.0,0.0,0.0,-2.0,-1.0
1701798877.6773398,-5.0,-6.0,-2.0,-2.0,-1.0,-3.0,-2.0,-9.0
1701798877.6773398,0.0,5.0,-1.0,-4.0,-2.0,-2.0,2.0,0.0
1701798877.687339,-1.0,3.0,-1.0,1.0,0.0,0.0,-1.0,0.0
1701798877.687339,-1.0,-4.0,0.0,0.0,0.0,-1.0,-3.0,-2.0
1701798877.697339,1.0,3.0,0.0,0.0,0.0,1.0,2.0,5.0
1701798877.697339,-2.0,-1.0,0.0,-1.0,-1.0,1.0,2.0,1.0
1701798877.7075286,4.0,8.0,-1.0,0.0,0.0,-3.0,-1.0,0.0
1701798877.7075286,1.0,8.0,1.0,1.0,-2.0,0.0,-1.0,-4.0
1701798877.7075286,-2.0,-19.0,-4.0,-2.0,1.0,1.0,2.0,2.0
1701798877.717351,-6.0,-6.0,-6.0,-1.0,-1.0,-3.0,1.0,-2.0
1701798877.737345,-2.0,-5.0,-2.0,-3.0,-2.0,0.0,-2.0,-2.0
1701798877.737345,-2.0,-3.0,-1.0,-1.0,-2.0,0.0,-2.0,-2.0
1701798877.737345,3.0,17.0,2.0,0.0,0.0,0.0,1.0,-1.0
1701798877.737345,1.0,2.0,0.0,-1.0,-1.0,-2.0,-1.0,-1.0
1701798877.747349,-2.0,-5.0,-1.0,-1.0,1.0,-1.0,-2.0,3.0
1701798877.747349,-1.0,6.0,-1.0,1.0,-3.0,-1.0,-1.0,-2.0
1701798877.777338,-1.0,-3.0,-1.0,-2.0,-1.0,-1.0,-1.0,1.0
1701798877.777338,1.0,-5.0,-2.0,0.0,1.0,-1.0,-2.0,-2.0
1701798877.777338,1.0,1.0,-1.0,0.0,0.0,-1.0,-1.0,2.0
1701798877.777338,-3.0,-4.0,-2.0,-5.0,0.0,-3.0,-1.0,-3.0
1701798877.777338,-3.0,-3.0,-2.0,-1.0,-1.0,0.0,0.0,-1.0
1701798877.777338,-3.0,-1.0,1.0,0.0,-1.0,-1.0,-1.0,-2.0
1701798877.797339,-1.0,3.0,1.0,0.0,-2.0,-1.0,1.0,0.0
1701798877.797339,-2.0,-2.0,-2.0,-1.0,1.0,-2.0,1.0,-3.0
1701798877.8073363,4.0,11.0,1.0,-2.0,-2.0,-2.0,-1.0,2.0
1701798877.8073363,-5.0,-18.0,-3.0,-3.0,-2.0,0.0,0.0,-5.0
1701798877.8073363,1.0,-6.0,-1.0,-1.0,0.0,-1.0,0.0,1.0
1701798877.8073363,-8.0,-13.0,-5.0,-2.0,-1.0,-1.0,-4.0,-2.0
1701798877.8175805,0.0,2.0,0.0,0.0,0.0,1.0,-2.0,1.0
1701798877.8175805,3.0,7.0,1.0,-2.0,-1.0,-2.0,2.0,-1.0
1701798877.8274949,-7.0,0.0,-2.0,2.0,-3.0,-2.0,-3.0,-4.0
1701798877.8274949,0.0,-2.0,0.0,-2.0,-2.0,1.0,0.0,0.0
1701798877.8274949,0.0,-1.0,-1.0,0.0,-1.0,-2.0,-1.0,-1.0
1701798877.8274949,1.0,2.0,-2.0,0.0,1.0,0.0,-1.0,0.0
1701798877.8573453,2.0,-4.0,-1.0,-3.0,-2.0,-1.0,0.0,0.0
1701798877.8573453,1.0,4.0,0.0,0.0,-1.0,-2.0,-1.0,-3.0
1701798877.8573453,-4.0,-6.0,-1.0,-3.0,-2.0,-1.0,-1.0,-2.0
1701798877.8573453,0.0,1.0,2.0,-2.0,-1.0,-3.0,-2.0,0.0
1701798877.89333,0.0,0.0,-1.0,0.0,-2.0,-2.0,0.0,-1.0
1701798877.89333,-2.0,-1.0,-2.0,0.0,2.0,0.0,-1.0,0.0
1701798877.89333,0.0,-2.0,-1.0,-3.0,-1.0,0.0,-1.0,-1.0
1701798877.89333,-1.0,-1.0,-1.0,-1.0,-1.0,1.0,0.0,0.0
1701798877.894368,-1.0,1.0,-1.0,-1.0,0.0,-2.0,-1.0,-1.0
1701798877.894368,1.0,-2.0,-1.0,-1.0,-2.0,-1.0,-1.0,-1.0
1701798877.8963273,-3.0,-6.0,-2.0,-1.0,-2.0,-1.0,-2.0,-2.0
1701798877.8963273,1.0,3.0,1.0,0.0,-2.0,-1.0,1.0,0.0
1701798877.9101162,-1.0,-1.0,-2.0,-4.0,-1.0,-2.0,-1.0,0.0
1701798877.9101162,0.0,-2.0,0.0,-1.0,0.0,-3.0,-1.0,-2.0
1701798877.9101162,-2.0,-1.0,0.0,-1.0,-1.0,-3.0,0.0,-2.0
1701798877.9101162,-1.0,1.0,-1.0,0.0,-1.0,0.0,-4.0,-1.0
1701798877.930117,0.0,-2.0,-1.0,-2.0,-2.0,-1.0,-1.0,-1.0
1701798877.930117,-1.0,-2.0,-3.0,-1.0,-1.0,-1.0,-3.0,0.0
1701798877.930117,-2.0,-3.0,0.0,1.0,0.0,-2.0,-2.0,-3.0
1701798877.930117,0.0,1.0,0.0,0.0,0.0,-1.0,-1.0,0.0
1701798877.950283,-1.0,0.0,-1.0,-1.0,-2.0,-1.0,0.0,0.0
1701798877.950283,0.0,2.0,-3.0,0.0,-1.0,0.0,-1.0,-1.0
1701798877.950283,-2.0,-2.0,-1.0,-2.0,-2.0,0.0,-1.0,1.0
1701798877.950283,-2.0,-1.0,0.0,0.0,-1.0,-2.0,-1.0,-1.0
1701798877.9901266,1.0,-1.0,-1.0,-1.0,-2.0,-1.0,-1.0,-2.0
1701798877.9901266,1.0,0.0,-1.0,-1.0,-2.0,0.0,1.0,-1.0
1701798878.0101185,0.0,-1.0,-1.0,-2.0,-1.0,-2.0,-2.0,0.0
1701798878.0101185,-1.0,-1.0,-2.0,-3.0,-1.0,-1.0,0.0,0.0
1701798878.0101185,0.0,-1.0,-3.0,-2.0,1.0,0.0,-1.0,-1.0
1701798878.0101185,-2.0,-1.0,0.0,0.0,-1.0,0.0,-1.0,-1.0
1701798878.0101185,-1.0,-3.0,0.0,-1.0,-1.0,-2.0,0.0,-1.0
1701798878.0101185,0.0,0.0,2.0,1.0,-2.0,-4.0,-1.0,0.0
1701798878.0101185,-1.0,-2.0,1.0,1.0,-1.0,-3.0,-1.0,-1.0
1701798878.0101185,-1.0,-1.0,2.0,-2.0,-2.0,-2.0,-1.0,-1.0
1701798878.020119,0.0,0.0,-1.0,1.0,1.0,-2.0,-1.0,-2.0
1701798878.020119,-1.0,0.0,0.0,-2.0,-2.0,0.0,-1.0,0.0
1701798878.030117,0.0,1.0,-2.0,0.0,-1.0,-1.0,0.0,0.0
1701798878.030117,1.0,-1.0,-2.0,-3.0,-1.0,0.0,-1.0,1.0
1701798878.030117,-1.0,0.0,-3.0,1.0,0.0,1.0,0.0,0.0
1701798878.030117,-2.0,-1.0,-3.0,1.0,-1.0,-1.0,-1.0,-2.0
1701798878.050514,-1.0,-1.0,-2.0,1.0,0.0,-2.0,0.0,0.0
1701798878.050514,-2.0,-1.0,0.0,-2.0,-2.0,-1.0,-1.0,0.0
1701798878.050514,-2.0,0.0,0.0,-3.0,-1.0,-1.0,-1.0,0.0
1701798878.050514,1.0,0.0,-1.0,-2.0,0.0,-2.0,-1.0,-2.0
1701798878.070403,-3.0,-1.0,0.0,-1.0,-2.0,1.0,-1.0,-2.0
1701798878.070403,-1.0,-1.0,-1.0,0.0,-1.0,-2.0,0.0,-2.0
1701798878.080119,-1.0,0.0,-3.0,-2.0,-1.0,-4.0,-3.0,-1.0
1701798878.080119,0.0,-2.0,-1.0,-1.0,-1.0,1.0,-1.0,-1.0
1701798878.100119,-2.0,0.0,-2.0,-3.0,-1.0,-2.0,-1.0,-1.0
1701798878.100119,-1.0,0.0,-2.0,-1.0,-3.0,-1.0,-2.0,1.0
1701798878.100119,0.0,-1.0,0.0,1.0,0.0,0.0,0.0,0.0
1701798878.100119,-1.0,-2.0,0.0,-2.0,0.0,0.0,-1.0,-1.0
1701798878.1103883,-1.0,-1.0,-1.0,-1.0,1.0,1.0,-2.0,-1.0
1701798878.1103883,0.0,0.0,-2.0,0.0,1.0,1.0,0.0,-2.0
1701798878.1103883,1.0,-2.0,-1.0,-1.0,-2.0,-1.0,1.0,-3.0
1701798878.1103883,0.0,-1.0,-1.0,-1.0,-1.0,-1.0,0.0,1.0
1701798878.130435,-1.0,-1.0,2.0,-1.0,0.0,-2.0,-1.0,-2.0
1701798878.130435,0.0,-1.0,0.0,0.0,1.0,0.0,-2.0,0.0
1701798878.1401203,-1.0,-1.0,-1.0,0.0,-1.0,0.0,-2.0,-2.0
1701798878.1401203,-1.0,1.0,-1.0,-1.0,-2.0,-1.0,-1.0,-1.0
1701798878.150118,-1.0,0.0,-2.0,-1.0,-1.0,-1.0,0.0,-2.0
1701798878.150118,-1.0,1.0,-1.0,0.0,-1.0,-2.0,0.0,-1.0
1701798878.150118,-2.0,-2.0,-2.0,-2.0,-3.0,1.0,-2.0,0.0
1701798878.150118,-1.0,-3.0,-2.0,-2.0,0.0,-2.0,-1.0,0.0
1701798878.1704574,0.0,-3.0,1.0,0.0,-2.0,-1.0,-1.0,2.0
1701798878.1704574,-1.0,-1.0,0.0,-4.0,2.0,-1.0,-3.0,-1.0
1701798878.1704574,-2.0,-2.0,0.0,-2.0,-2.0,1.0,-2.0,-3.0
1701798878.1704574,-3.0,-1.0,-1.0,-1.0,-1.0,1.0,-2.0,1.0
1701798878.1904323,-2.0,0.0,-1.0,-2.0,1.0,0.0,-1.0,-1.0
1701798878.1904323,0.0,-1.0,1.0,-1.0,0.0,-3.0,-1.0,-1.0
1701798878.2001193,1.0,-2.0,-1.0,-1.0,0.0,-3.0,-3.0,0.0
1701798878.2001193,-2.0,0.0,-2.0,-1.0,-1.0,0.0,0.0,-3.0
1701798878.21012,-1.0,-2.0,-2.0,0.0,-1.0,-2.0,0.0,-2.0
1701798878.21012,-2.0,-1.0,-2.0,-1.0,-4.0,0.0,0.0,-1.0
1701798878.220424,-1.0,-1.0,-2.0,0.0,-2.0,-2.0,0.0,-1.0
1701798878.220424,-1.0,-1.0,-1.0,1.0,-2.0,-2.0,-1.0,-2.0
1701798878.2401187,-2.0,-1.0,-1.0,-1.0,0.0,-2.0,-3.0,-1.0
1701798878.2401187,-1.0,-2.0,0.0,0.0,-1.0,-1.0,-1.0,-1.0
1701798878.2401187,0.0,-1.0,-2.0,0.0,0.0,0.0,0.0,0.0
1701798878.2401187,0.0,-2.0,-1.0,-1.0,-1.0,-2.0,-1.0,1.0
1701798878.250119,-1.0,-1.0,-1.0,0.0,-1.0,1.0,-1.0,0.0
1701798878.250119,-3.0,0.0,0.0,-1.0,-1.0,-1.0,-1.0,-1.0
1701798878.2601523,-2.0,-1.0,-2.0,-1.0,-1.0,-1.0,-1.0,-1.0
1701798878.2601523,0.0,-2.0,0.0,-1.0,0.0,-1.0,0.0,0.0
1701798878.2701926,0.0,0.0,-1.0,0.0,-1.0,-1.0,-1.0,-1.0
1701798878.2701926,1.0,-1.0,0.0,-3.0,-1.0,-3.0,-1.0,-2.0
1701798878.2701926,-1.0,0.0,0.0,-3.0,-1.0,0.0,0.0,-1.0
1701798878.2701926,0.0,1.0,2.0,-2.0,0.0,-2.0,-2.0,-2.0
1701798878.2901258,-1.0,-2.0,1.0,0.0,-1.0,-1.0,-1.0,0.0
1701798878.3001246,-4.0,-1.0,-2.0,2.0,0.0,0.0,0.0,0.0
1701798878.3001246,0.0,-1.0,-3.0,-1.0,0.0,0.0,0.0,0.0
1701798878.3001246,-1.0,-1.0,-5.0,0.0,-1.0,1.0,1.0,-2.0
1701798878.3301566,-1.0,0.0,-4.0,-1.0,-2.0,0.0,-2.0,-1.0
1701798878.3301566,-1.0,-1.0,-3.0,0.0,-2.0,-2.0,0.0,-2.0
1701798878.3301566,-1.0,0.0,0.0,-2.0,-1.0,-2.0,-1.0,-3.0
1701798878.3301566,-1.0,1.0,-1.0,-1.0,0.0,-1.0,-1.0,-2.0
1701798878.3301566,-1.0,-1.0,-1.0,-1.0,-1.0,-1.0,-1.0,-1.0
1701798878.3301566,-1.0,-1.0,-1.0,-3.0,-1.0,-3.0,0.0,0.0
1701798878.3301566,-1.0,-2.0,1.0,1.0,0.0,0.0,-2.0,0.0
1701798878.3301566,0.0,-1.0,1.0,-2.0,-3.0,-1.0,0.0,-3.0
1701798878.3505747,-1.0,-2.0,0.0,-1.0,0.0,0.0,0.0,0.0
1701798878.3505747,0.0,0.0,-1.0,-1.0,-2.0,0.0,-2.0,-1.0
1701798878.3505747,0.0,-1.0,0.0,0.0,-2.0,0.0,2.0,-2.0
1701798878.3505747,-2.0,0.0,1.0,-2.0,-1.0,-2.0,-1.0,-1.0
1701798878.370256,-1.0,-2.0,1.0,-1.0,-1.0,0.0,-2.0,-2.0
1701798878.370256,-1.0,-3.0,-1.0,-1.0,0.0,0.0,1.0,0.0
1701798878.380289,0.0,0.0,-1.0,0.0,-1.0,-1.0,-1.0,-2.0
1701798878.380289,0.0,-2.0,0.0,0.0,-1.0,0.0,-2.0,0.0
1701798878.3902917,1.0,1.0,0.0,-1.0,-1.0,-2.0,1.0,1.0
1701798878.3902917,-1.0,-1.0,-1.0,-1.0,-2.0,-1.0,-1.0,-2.0
1701798878.3902917,-2.0,0.0,0.0,-2.0,-1.0,-2.0,-5.0,-2.0
1701798878.3902917,1.0,0.0,-2.0,0.0,-2.0,0.0,4.0,-1.0
1701798878.419035,-3.0,1.0,-3.0,-1.0,-1.0,-2.0,-6.0,-5.0
1701798878.419035,-2.0,-1.0,-2.0,-4.0,-2.0,-2.0,-7.0,-2.0
1701798878.419035,1.0,0.0,-1.0,-1.0,2.0,1.0,12.0,5.0
1701798878.419035,-1.0,-2.0,0.0,-1.0,0.0,-1.0,-1.0,-2.0
1701798878.437964,-3.0,-1.0,0.0,-3.0,-1.0,-1.0,3.0,1.0
1701798878.437964,-2.0,-1.0,-1.0,-2.0,-1.0,-1.0,-2.0,-3.0
1701798878.4403722,-4.0,-2.0,0.0,-1.0,-2.0,-2.0,-7.0,-1.0
1701798878.4403722,-2.0,1.0,-1.0,0.0,-1.0,-2.0,-2.0,0.0
1701798878.453246,0.0,-1.0,-1.0,-1.0,0.0,-2.0,-2.0,-1.0
1701798878.453246,-1.0,0.0,-1.0,0.0,-2.0,-1.0,-10.0,-2.0
1701798878.453246,0.0,-2.0,-1.0,0.0,-2.0,1.0,2.0,2.0
1701798878.453246,-3.0,-1.0,-1.0,-2.0,0.0,0.0,5.0,0.0
1701798878.4732242,0.0,-2.0,-2.0,0.0,-2.0,-2.0,1.0,-1.0
1701798878.4732242,0.0,0.0,-2.0,-1.0,-1.0,0.0,7.0,0.0
1701798878.4732242,-1.0,-1.0,-2.0,-1.0,-1.0,-2.0,-6.0,-3.0
1701798878.4732242,-2.0,-1.0,-1.0,-3.0,0.0,-3.0,-9.0,-1.0
1701798878.4929142,-3.0,0.0,-3.0,-1.0,0.0,0.0,6.0,-1.0
1701798878.4929142,-2.0,-1.0,0.0,1.0,1.0,-3.0,-3.0,0.0
1701798878.4929142,-1.0,-1.0,-3.0,-1.0,-1.0,-1.0,-1.0,-3.0
1701798878.4929142,-3.0,-2.0,-2.0,-1.0,0.0,-1.0,-5.0,0.0
1701798878.513243,0.0,0.0,-2.0,-1.0,-1.0,0.0,-1.0,1.0
1701798878.513243,1.0,0.0,-2.0,0.0,0.0,1.0,3.0,0.0
1701798878.513243,0.0,0.0,-2.0,-3.0,-2.0,-1.0,2.0,-1.0
1701798878.513243,0.0,-1.0,-2.0,-1.0,-2.0,-1.0,1.0,-3.0
1701798878.532916,-2.0,-4.0,-1.0,-1.0,-2.0,-2.0,-4.0,-1.0
1701798878.532916,-1.0,-2.0,-2.0,0.0,0.0,1.0,1.0,-2.0
1701798878.532916,-2.0,-1.0,-2.0,0.0,0.0,-1.0,-2.0,-2.0
1701798878.532916,-1.0,-2.0,-1.0,-2.0,-2.0,0.0,-1.0,-4.0
1701798878.5532374,0.0,-2.0,1.0,-2.0,-1.0,0.0,-1.0,-2.0
1701798878.5532374,0.0,0.0,1.0,-3.0,-1.0,0.0,-2.0,-1.0
1701798878.5532374,-1.0,-1.0,0.0,-1.0,-2.0,1.0,-2.0,-1.0
1701798878.5532374,-1.0,-1.0,-1.0,-2.0,0.0,0.0,0.0,2.0
1701798878.5732975,-1.0,-2.0,-1.0,-1.0,-2.0,-2.0,-3.0,-3.0
1701798878.5732975,-1.0,-2.0,-2.0,0.0,-1.0,-2.0,1.0,2.0
1701798878.5732975,0.0,-1.0,-2.0,0.0,0.0,-1.0,2.0,-1.0
1701798878.5732975,0.0,0.0,-1.0,0.0,0.0,-2.0,-1.0,-1.0
1701798878.6033077,-2.0,0.0,-1.0,-2.0,0.0,-1.0,0.0,-1.0
1701798878.6033077,0.0,-1.0,-2.0,0.0,-1.0,0.0,-1.0,-1.0
1701798878.6033077,-1.0,-1.0,-1.0,-1.0,-1.0,-2.0,-2.0,1.0
1701798878.6033077,-1.0,-1.0,-1.0,-1.0,-1.0,-2.0,-1.0,-1.0
1701798878.613307,-1.0,-1.0,0.0,0.0,-3.0,-4.0,-2.0,-2.0
1701798878.613307,-1.0,1.0,0.0,-2.0,-1.0,-2.0,-1.0,-3.0
1701798878.613307,0.0,0.0,0.0,-2.0,-2.0,-3.0,-1.0,0.0
1701798878.613307,-1.0,-1.0,0.0,0.0,-1.0,1.0,0.0,-1.0
1701798878.6335723,0.0,0.0,-3.0,-2.0,-1.0,2.0,-1.0,1.0
1701798878.6335723,-2.0,-1.0,-2.0,-2.0,-1.0,0.0,-1.0,-1.0
1701798878.6433086,-1.0,-1.0,0.0,-1.0,-2.0,-2.0,0.0,-3.0
1701798878.6433086,0.0,-1.0,0.0,-2.0,-3.0,-3.0,-2.0,-1.0
1701798878.6536214,-3.0,-1.0,-1.0,0.0,-1.0,-1.0,0.0,-3.0
1701798878.6536214,-2.0,-1.0,1.0,1.0,-1.0,-1.0,0.0,-1.0
1701798878.6536214,0.0,-2.0,0.0,-1.0,0.0,0.0,-2.0,0.0
1701798878.6536214,-1.0,-1.0,1.0,-1.0,1.0,0.0,-1.0,-1.0
1701798878.6733491,0.0,-1.0,-2.0,-1.0,1.0,-2.0,-1.0,1.0
1701798878.6733491,-2.0,-2.0,-3.0,0.0,0.0,-1.0,1.0,2.0
1701798878.6733491,-3.0,-1.0,-2.0,-3.0,0.0,-1.0,-3.0,-1.0
1701798878.6733491,-1.0,-1.0,-3.0,0.0,-3.0,0.0,-2.0,0.0
1701798878.6935248,0.0,-1.0,-2.0,1.0,-2.0,-1.0,-2.0,0.0
1701798878.6935248,2.0,2.0,0.0,-1.0,1.0,0.0,0.0,-1.0
1701798878.7033098,-2.0,1.0,-2.0,1.0,-1.0,0.0,0.0,-2.0
1701798878.7033098,-2.0,-2.0,-2.0,-2.0,0.0,-2.0,0.0,0.0
1701798878.7136207,-1.0,-1.0,0.0,0.0,-1.0,-2.0,0.0,-1.0
1701798878.7136207,-1.0,-2.0,0.0,-1.0,-3.0,1.0,-3.0,-1.0
1701798878.7136207,-3.0,-2.0,0.0,0.0,-1.0,-2.0,-1.0,-3.0
1701798878.7136207,-1.0,0.0,1.0,-1.0,-1.0,0.0,-2.0,-1.0
1701798878.733359,-1.0,-2.0,2.0,-3.0,0.0,0.0,-1.0,-1.0
1701798878.733359,0.0,-1.0,1.0,-2.0,-1.0,-2.0,-1.0,-2.0
1701798878.733359,1.0,-1.0,-1.0,-2.0,-2.0,0.0,0.0,1.0
1701798878.733359,-1.0,-2.0,-1.0,-1.0,0.0,0.0,0.0,-2.0
1701798878.7535384,-1.0,-1.0,-1.0,-2.0,-1.0,0.0,-1.0,-1.0
1701798878.7535384,-2.0,-1.0,-3.0,-2.0,-3.0,0.0,-1.0,-1.0
1701798878.763308,-1.0,-2.0,-2.0,1.0,-1.0,-1.0,-2.0,-2.0
1701798878.763308,-2.0,-1.0,-2.0,0.0,-1.0,-1.0,-1.0,-2.0
1701798878.7735968,0.0,0.0,-3.0,1.0,-1.0,0.0,0.0,-1.0
1701798878.7735968,-1.0,-2.0,-2.0,-2.0,0.0,0.0,-1.0,-1.0
1701798878.7735968,0.0,-1.0,0.0,-1.0,-1.0,0.0,-1.0,1.0
1701798878.7735968,-1.0,-1.0,-1.0,-3.0,-1.0,-2.0,-1.0,-1.0
1701798878.7936518,0.0,0.0,0.0,-1.0,0.0,-2.0,0.0,0.0
1701798878.7936518,-2.0,-2.0,0.0,-2.0,0.0,-1.0,0.0,-1.0
1701798878.7936518,-2.0,-3.0,-3.0,0.0,-1.0,-1.0,-2.0,-1.0
1701798878.7936518,-1.0,-1.0,-1.0,-2.0,0.0,-2.0,-1.0,0.0
1701798878.8135133,-3.0,-1.0,-1.0,-1.0,-3.0,-2.0,-3.0,1.0
1701798878.8135133,-1.0,3.0,-3.0,1.0,-1.0,-1.0,-1.0,-1.0
1701798878.8233123,-1.0,-1.0,1.0,-2.0,-1.0,-2.0,-1.0,-3.0
1701798878.8233123,-2.0,0.0,-1.0,-2.0,-1.0,-1.0,0.0,0.0
1701798878.8336139,-1.0,-1.0,0.0,-3.0,-1.0,-1.0,-2.0,-1.0
1701798878.8336139,-2.0,-2.0,1.0,-2.0,-1.0,-3.0,0.0,-3.0
1701798878.8336139,-1.0,0.0,-1.0,-1.0,-2.0,0.0,-1.0,-2.0
1701798878.8336139,0.0,-2.0,-1.0,0.0,-4.0,-1.0,-1.0,-1.0
1701798878.8536158,0.0,-1.0,0.0,1.0,-1.0,-2.0,-1.0,-2.0
1701798878.86331,0.0,-2.0,-1.0,0.0,-2.0,0.0,-2.0,3.0
1701798878.86331,3.0,-1.0,1.0,-2.0,-1.0,-1.0,0.0,-2.0
1701798878.86331,0.0,1.0,-3.0,0.0,0.0,0.0,-1.0,-1.0
1701798878.8733075,-1.0,0.0,-1.0,-1.0,0.0,0.0,-1.0,-1.0
1701798878.8733075,-1.0,-1.0,-1.0,0.0,-2.0,-3.0,-1.0,-2.0
1701798878.8733075,0.0,0.0,0.0,0.0,-1.0,0.0,-2.0,-2.0
1701798878.8733075,-2.0,-1.0,-1.0,0.0,-1.0,-1.0,-3.0,-1.0
1701798878.8936534,0.0,-1.0,-2.0,0.0,0.0,0.0,-1.0,-1.0
1701798878.8936534,1.0,1.0,-1.0,-1.0,-2.0,-1.0,-1.0,-2.0
1701798878.8936534,-1.0,0.0,-2.0,-1.0,-1.0,-1.0,-1.0,-1.0
1701798878.8936534,-2.0,-2.0,-1.0,-2.0,-1.0,-3.0,0.0,-1.0
1701798878.9136138,0.0,0.0,-2.0,-2.0,-2.0,-1.0,0.0,-1.0
1701798878.9136138,-4.0,-3.0,0.0,-2.0,0.0,0.0,-2.0,0.0
1701798878.923309,-2.0,-2.0,-1.0,0.0,-1.0,-2.0,-1.0,0.0
1701798878.923309,-1.0,-2.0,-1.0,-1.0,-2.0,0.0,-1.0,-1.0
1701798878.937308,-3.0,0.0,0.0,-2.0,-2.0,-2.0,-2.0,0.0
1701798878.937308,-1.0,0.0,1.0,-2.0,-2.0,-1.0,0.0,-1.0
1701798878.937308,-1.0,0.0,0.0,-1.0,-1.0,-1.0,-2.0,0.0
1701798878.937308,0.0,-1.0,1.0,1.0,0.0,-1.0,-1.0,-1.0
1701798878.959258,-1.0,-2.0,-2.0,-1.0,-1.0,-1.0,-1.0,-2.0
1701798878.959258,-2.0,-1.0,-1.0,1.0,-1.0,-2.0,0.0,0.0
1701798878.959258,-2.0,0.0,-3.0,-2.0,-1.0,-1.0,-2.0,-1.0
1701798878.959258,0.0,-1.0,0.0,1.0,-1.0,0.0,-1.0,-1.0
1701798878.9792585,-1.0,-2.0,-1.0,0.0,-1.0,0.0,-1.0,0.0
1701798878.9792585,0.0,0.0,0.0,-1.0,0.0,-1.0,-3.0,0.0
1701798878.9792585,-1.0,-2.0,0.0,-4.0,-2.0,-2.0,-1.0,-2.0
1701798878.9792585,-1.0,-1.0,0.0,-1.0,-1.0,-2.0,0.0,0.0
1701798878.9895258,-3.0,-1.0,1.0,0.0,-1.0,-1.0,-1.0,-2.0
1701798878.9895258,1.0,-2.0,-1.0,0.0,-1.0,-2.0,-1.0,0.0
1701798878.9895258,-1.0,-2.0,-2.0,-1.0,0.0,-2.0,-2.0,0.0
1701798878.9895258,0.0,-1.0,-2.0,1.0,-1.0,0.0,-2.0,-1.0
1701798879.019261,0.0,0.0,-1.0,-2.0,0.0,-2.0,-1.0,0.0
1701798879.019261,-1.0,-1.0,0.0,1.0,0.0,0.0,0.0,-1.0
1701798879.019261,-1.0,1.0,-2.0,2.0,-2.0,0.0,0.0,-2.0
1701798879.019261,-2.0,-2.0,-1.0,0.0,0.0,-1.0,-2.0,-3.0
1701798879.0392587,-3.0,0.0,-2.0,0.0,-1.0,-2.0,-1.0,0.0
1701798879.0392587,-2.0,-1.0,-1.0,-1.0,-2.0,-1.0,-1.0,0.0
1701798879.0392587,-2.0,-1.0,1.0,-3.0,-2.0,0.0,-2.0,0.0
1701798879.0392587,-1.0,0.0,0.0,-3.0,-2.0,-1.0,-2.0,0.0
1701798879.0492697,-1.0,-2.0,0.0,-3.0,0.0,-1.0,-1.0,0.0
1701798879.0492697,0.0,0.0,-2.0,-1.0,-1.0,-1.0,-2.0,-1.0
1701798879.0492697,0.0,1.0,-2.0,0.0,-3.0,-1.0,0.0,0.0
1701798879.0492697,-1.0,-2.0,-2.0,-2.0,-2.0,-1.0,0.0,1.0
1701798879.0792644,-2.0,0.0,-2.0,1.0,-1.0,-1.0,0.0,-4.0
1701798879.0792644,-1.0,-1.0,-3.0,1.0,-1.0,-2.0,-1.0,-2.0
1701798879.0792644,0.0,-2.0,-2.0,0.0,-1.0,-2.0,-1.0,-2.0
1701798879.0792644,-1.0,-1.0,-3.0,-1.0,0.0,0.0,-1.0,-1.0
1701798879.109259,2.0,-1.0,-2.0,-3.0,-2.0,-1.0,-1.0,0.0
1701798879.109259,-1.0,-1.0,-2.0,-2.0,-3.0,0.0,-1.0,-1.0
1701798879.109259,1.0,-1.0,-1.0,-1.0,1.0,0.0,-1.0,-1.0
1701798879.109259,0.0,-2.0,-1.0,0.0,-2.0,-1.0,0.0,-1.0
1701798879.109259,-2.0,-1.0,-1.0,0.0,0.0,0.0,1.0,-1.0
1701798879.109259,0.0,-3.0,-2.0,-2.0,1.0,-1.0,-1.0,-1.0
1701798879.109259,-1.0,-2.0,-2.0,0.0,0.0,-1.0,0.0,-1.0
1701798879.109259,-1.0,-1.0,-1.0,-2.0,0.0,-2.0,-1.0,-2.0
1701798879.1392605,-1.0,-1.0,-1.0,-1.0,-2.0,0.0,-2.0,0.0
1701798879.1392605,-1.0,0.0,0.0,-1.0,0.0,0.0,0.0,-2.0
1701798879.1392605,-2.0,0.0,0.0,0.0,0.0,0.0,-2.0,-2.0
1701798879.1392605,-1.0,-1.0,1.0,-3.0,0.0,0.0,-2.0,0.0
1701798879.159292,-1.0,0.0,-2.0,-3.0,-1.0,-1.0,-3.0,-2.0
1701798879.159292,-1.0,-2.0,-2.0,-2.0,0.0,-1.0,-1.0,-3.0
1701798879.159292,-2.0,0.0,-1.0,-2.0,-2.0,-1.0,0.0,1.0
1701798879.159292,-1.0,-2.0,-1.0,-1.0,-1.0,-1.0,-1.0,-2.0
1701798879.169267,-1.0,1.0,1.0,1.0,0.0,-1.0,-1.0,0.0
1701798879.169267,0.0,-1.0,-1.0,-1.0,-1.0,-1.0,-3.0,-1.0
1701798879.169267,1.0,-1.0,0.0,-1.0,1.0,-2.0,0.0,0.0
1701798879.169267,-2.0,-2.0,-1.0,-1.0,-2.0,-1.0,0.0,-1.0
1701798879.219258,-2.0,-1.0,1.0,-1.0,-2.0,-1.0,-2.0,-2.0
1701798879.219258,-1.0,-1.0,0.0,-2.0,0.0,0.0,1.0,-1.0
1701798879.219258,-2.0,1.0,0.0,-1.0,-2.0,0.0,-1.0,-1.0
1701798879.219258,0.0,-1.0,-1.0,-3.0,-2.0,-1.0,-2.0,-1.0
1701798879.219258,0.0,-1.0,-1.0,-2.0,0.0,-1.0,-1.0,0.0
1701798879.219258,-2.0,0.0,0.0,-1.0,0.0,-1.0,0.0,-1.0
1701798879.219258,0.0,0.0,-3.0,-1.0,0.0,-2.0,-3.0,-1.0
1701798879.229258,-2.0,0.0,0.0,1.0,0.0,1.0,1.0,-3.0
1701798879.229258,-1.0,-1.0,-3.0,-2.0,0.0,-1.0,-1.0,-2.0
1701798879.229258,0.0,-3.0,0.0,-1.0,-1.0,0.0,-1.0,-1.0
1701798879.229258,-1.0,-2.0,-1.0,-2.0,-1.0,-1.0,-1.0,0.0
1701798879.229258,0.0,-1.0,-4.0,0.0,-1.0,-2.0,0.0,0.0
1701798879.2592604,0.0,-1.0,-1.0,0.0,-3.0,-1.0,-2.0,1.0
1701798879.2592604,-2.0,-1.0,-1.0,-1.0,0.0,-2.0,-1.0,0.0
1701798879.2592604,-1.0,-2.0,-2.0,-2.0,-2.0,-1.0,-1.0,-2.0
1701798879.2592604,0.0,2.0,-1.0,0.0,-1.0,-3.0,-3.0,-2.0
1701798879.2892618,0.0,-2.0,-1.0,-1.0,-1.0,-1.0,-1.0,-2.0
1701798879.2892618,0.0,0.0,-2.0,-1.0,-2.0,-2.0,0.0,0.0
1701798879.2892618,-1.0,-1.0,0.0,0.0,-1.0,0.0,-3.0,-1.0
1701798879.2892618,-1.0,-1.0,0.0,0.0,-1.0,1.0,-1.0,0.0
1701798879.2994628,1.0,-1.0,-1.0,-1.0,0.0,1.0,1.0,1.0
1701798879.2994628,-1.0,-1.0,-1.0,-3.0,-1.0,0.0,-2.0,0.0
1701798879.2994628,0.0,-2.0,0.0,0.0,1.0,0.0,-2.0,-1.0
1701798879.2994628,-3.0,-1.0,0.0,-1.0,-1.0,-2.0,1.0,-4.0
1701798879.3292587,-2.0,-1.0,-1.0,0.0,-1.0,-2.0,1.0,-2.0
1701798879.3292587,1.0,-2.0,0.0,0.0,-2.0,-2.0,-1.0,0.0
1701798879.3292587,-3.0,0.0,0.0,1.0,-2.0,1.0,-1.0,-1.0
1701798879.3292587,-2.0,-1.0,-1.0,0.0,-2.0,1.0,-2.0,-1.0
1701798879.3395803,-2.0,-1.0,-1.0,-2.0,0.0,-1.0,-2.0,-3.0
1701798879.3395803,-1.0,0.0,-1.0,-2.0,0.0,-1.0,-1.0,0.0
1701798879.3395803,-1.0,-1.0,1.0,-2.0,-1.0,-1.0,1.0,-1.0
1701798879.3395803,-1.0,-1.0,-1.0,-2.0,0.0,-1.0,-2.0,1.0
1701798879.3495238,0.0,-3.0,0.0,0.0,-1.0,-1.0,-1.0,0.0
1701798879.3495238,-1.0,-1.0,-2.0,-1.0,-2.0,-2.0,-1.0,-2.0
1701798879.3495238,-1.0,0.0,-3.0,-1.0,-2.0,-1.0,-2.0,-1.0
1701798879.3495238,-1.0,0.0,-1.0,-1.0,-2.0,-1.0,0.0,-1.0
1701798879.379299,-2.0,0.0,-3.0,0.0,0.0,0.0,-1.0,-1.0
1701798879.3893642,-1.0,-2.0,-3.0,0.0,-1.0,-1.0,-2.0,-3.0
1701798879.3893642,-1.0,0.0,-3.0,-1.0,0.0,-1.0,0.0,0.0
1701798879.3893642,-2.0,-1.0,-3.0,-1.0,-1.0,-3.0,0.0,-2.0
1701798879.399714,0.0,0.0,0.0,0.0,-1.0,-1.0,-2.0,-2.0
1701798879.399714,-2.0,0.0,-1.0,0.0,-2.0,0.0,-1.0,-1.0
1701798879.399714,1.0,-1.0,-1.0,0.0,-1.0,-1.0,-1.0,-1.0
1701798879.399714,-1.0,-1.0,0.0,0.0,-3.0,-1.0,-2.0,0.0
1701798879.4095814,1.0,-2.0,-1.0,-2.0,1.0,-2.0,1.0,-1.0
1701798879.4095814,-2.0,-1.0,-1.0,-1.0,-2.0,-1.0,-1.0,0.0
1701798879.4095814,-2.0,-3.0,-1.0,-1.0,1.0,-3.0,-1.0,-2.0
1701798879.4095814,0.0,-2.0,0.0,0.0,1.0,0.0,-3.0,-2.0
1701798879.4393337,-2.0,-2.0,0.0,-1.0,-1.0,1.0,-2.0,0.0
1701798879.4393337,-2.0,-2.0,1.0,0.0,-1.0,-1.0,-1.0,-2.0
1701798879.4393337,0.0,-1.0,1.0,-1.0,0.0,-1.0,-1.0,0.0
1701798879.4393337,0.0,-1.0,1.0,-1.0,0.0,-3.0,-1.0,-1.0
1701798879.4596927,1.0,1.0,-1.0,0.0,-2.0,-1.0,0.0,-2.0
1701798879.4596927,-1.0,2.0,0.0,-2.0,-1.0,1.0,-1.0,0.0
1701798879.4596927,0.0,-1.0,-3.0,-1.0,-1.0,-2.0,-1.0,0.0
1701798879.4596927,0.0,0.0,0.0,-2.0,-2.0,-1.0,0.0,0.0
1701798879.4815,-2.0,-1.0,-1.0,0.0,0.0,-2.0,-2.0,-1.0
1701798879.4824998,0.0,-1.0,0.0,-1.0,-2.0,-3.0,-1.0,-1.0
1701798879.4864984,0.0,1.0,-1.0,-1.0,-1.0,-1.0,0.0,-4.0
1701798879.4864984,0.0,-1.0,-1.0,1.0,0.0,0.0,0.0,-4.0
1701798879.49199,0.0,0.0,0.0,-2.0,-2.0,-1.0,-1.0,-1.0
1701798879.49199,-1.0,0.0,-1.0,0.0,-1.0,-2.0,1.0,-1.0
1701798879.49199,-1.0,-1.0,-1.0,0.0,-1.0,-2.0,-1.0,-1.0
1701798879.49199,-1.0,-2.0,-2.0,-1.0,-2.0,-1.0,-2.0,-1.0
1701798879.5220165,-3.0,-1.0,-3.0,-1.0,-2.0,-1.0,-2.0,-2.0
1701798879.5220165,0.0,0.0,-2.0,-1.0,0.0,0.0,0.0,-1.0
1701798879.5220165,0.0,1.0,1.0,0.0,0.0,-1.0,0.0,0.0
1701798879.5220165,-1.0,-1.0,-1.0,-2.0,1.0,0.0,0.0,-1.0
1701798879.53228,-2.0,-1.0,-1.0,-1.0,-2.0,-2.0,-2.0,-2.0
1701798879.53228,0.0,0.0,-4.0,-3.0,-1.0,0.0,-2.0,-1.0
1701798879.53228,-3.0,-2.0,-1.0,-3.0,0.0,0.0,-1.0,-1.0
1701798879.53228,-2.0,-1.0,-1.0,-1.0,-2.0,0.0,-3.0,-1.0
1701798879.5619895,-3.0,-2.0,0.0,-1.0,-1.0,-1.0,0.0,1.0
1701798879.5619895,1.0,-1.0,0.0,0.0,-1.0,-1.0,0.0,-2.0
1701798879.5619895,0.0,0.0,-2.0,-1.0,-3.0,-1.0,0.0,-2.0
1701798879.5619895,0.0,-3.0,0.0,-3.0,1.0,0.0,-1.0,-2.0
1701798879.581993,0.0,-1.0,0.0,-2.0,1.0,-1.0,-1.0,-3.0
1701798879.581993,0.0,-2.0,-1.0,0.0,-1.0,-1.0,-2.0,-3.0
1701798879.581993,-1.0,-2.0,1.0,0.0,-1.0,-1.0,-1.0,-1.0
1701798879.581993,-1.0,-1.0,-2.0,0.0,-1.0,-2.0,-8.0,-3.0
1701798879.5921507,-1.0,0.0,-1.0,0.0,0.0,-2.0,-4.0,1.0
1701798879.5921507,-1.0,1.0,-2.0,-2.0,1.0,1.0,4.0,1.0
1701798879.5921507,0.0,-2.0,-1.0,0.0,-1.0,-5.0,-28.0,-10.0
1701798879.5921507,-2.0,0.0,-1.0,-2.0,-3.0,-1.0,4.0,1.0
1701798879.62199,1.0,0.0,0.0,0.0,-1.0,3.0,32.0,9.0
1701798879.62199,-1.0,0.0,-2.0,-1.0,2.0,0.0,4.0,1.0
1701798879.62199,0.0,0.0,-2.0,-1.0,0.0,1.0,12.0,5.0
1701798879.62199,-1.0,0.0,-2.0,-1.0,-2.0,-5.0,-11.0,-7.0
1701798879.6419969,-1.0,-3.0,-1.0,-1.0,-3.0,-1.0,-12.0,-4.0
1701798879.6419969,-1.0,-3.0,-1.0,0.0,-3.0,-1.0,-1.0,-1.0
1701798879.6419969,-2.0,0.0,0.0,-1.0,-1.0,-2.0,-1.0,-3.0
1701798879.6419969,-1.0,0.0,-1.0,0.0,1.0,-1.0,-1.0,0.0
1701798879.6521738,0.0,-1.0,0.0,-1.0,-1.0,-1.0,-2.0,0.0
1701798879.6521738,-2.0,-2.0,-1.0,-1.0,-2.0,-3.0,-3.0,-1.0
1701798879.6619918,-2.0,-1.0,-2.0,1.0,-2.0,0.0,-2.0,0.0
1701798879.6619918,1.0,-2.0,-1.0,0.0,0.0,0.0,3.0,1.0
1701798879.6719887,-2.0,-2.0,-2.0,0.0,0.0,0.0,0.0,-2.0
1701798879.6719887,-1.0,-2.0,-2.0,-1.0,-2.0,-3.0,-7.0,-2.0
1701798879.6719887,-2.0,-1.0,-1.0,-1.0,-1.0,-1.0,2.0,2.0
1701798879.6719887,-1.0,-1.0,-1.0,-1.0,0.0,0.0,6.0,1.0
1701798879.7019932,-1.0,1.0,-2.0,-1.0,0.0,-2.0,-7.0,-5.0
1701798879.7019932,-1.0,-1.0,-3.0,-2.0,0.0,-1.0,-5.0,-2.0
1701798879.7019932,-3.0,-2.0,-2.0,0.0,-2.0,-1.0,3.0,0.0
1701798879.7119887,-2.0,-1.0,-3.0,-2.0,-1.0,0.0,0.0,-2.0
1701798879.7119887,-2.0,-2.0,-3.0,-3.0,-3.0,-2.0,-6.0,-2.0
1701798879.7119887,0.0,-3.0,0.0,-1.0,-1.0,1.0,-1.0,-1.0
1701798879.7222412,0.0,-1.0,0.0,0.0,0.0,-2.0,2.0,0.0
1701798879.7222412,-1.0,-1.0,1.0,-2.0,-3.0,-2.0,-1.0,-2.0
1701798879.7325013,-1.0,-2.0,-2.0,-1.0,0.0,-2.0,-5.0,-2.0
1701798879.7325013,-1.0,0.0,-1.0,-2.0,0.0,-3.0,0.0,-1.0
1701798879.7325013,-2.0,-1.0,0.0,-2.0,0.0,0.0,0.0,0.0
1701798879.7325013,-3.0,-1.0,-1.0,-1.0,0.0,-1.0,0.0,-1.0
1701798879.7625403,1.0,-2.0,0.0,-1.0,0.0,-1.0,-1.0,-2.0
1701798879.7625403,-2.0,0.0,-1.0,0.0,-1.0,-1.0,-2.0,-1.0
1701798879.7725377,-1.0,-2.0,-1.0,-3.0,-1.0,-1.0,1.0,-1.0
1701798879.7725377,0.0,1.0,-2.0,1.0,-1.0,0.0,-2.0,1.0
1701798879.7925348,1.0,0.0,-2.0,-1.0,0.0,0.0,-2.0,0.0
1701798879.7925348,-1.0,0.0,0.0,-1.0,-1.0,-1.0,-1.0,0.0
1701798879.7925348,-2.0,-1.0,-1.0,-2.0,-1.0,0.0,0.0,-1.0
1701798879.7925348,-2.0,-3.0,-2.0,-2.0,-2.0,-1.0,2.0,-1.0
1701798879.7925348,0.0,-1.0,1.0,1.0,-3.0,-2.0,-2.0,-2.0
1701798879.7925348,0.0,-1.0,0.0,-1.0,-1.0,-1.0,-2.0,-1.0
1701798879.7925348,-2.0,1.0,-1.0,-1.0,1.0,-2.0,1.0,-1.0
1701798879.7925348,-1.0,-2.0,-2.0,-2.0,2.0,-2.0,-1.0,0.0
1701798879.8225389,-1.0,-1.0,-1.0,-1.0,0.0,-2.0,-1.0,0.0
1701798879.8225389,-1.0,-2.0,0.0,-1.0,-2.0,-2.0,0.0,-3.0
1701798879.8225389,-2.0,-1.0,-2.0,-2.0,0.0,0.0,1.0,-1.0
1701798879.8225389,0.0,0.0,-1.0,0.0,-1.0,-1.0,-2.0,-1.0
1701798879.8325343,-3.0,-2.0,-2.0,-2.0,-1.0,-1.0,-2.0,-3.0
1701798879.8325343,1.0,-2.0,-2.0,-1.0,-2.0,-1.0,-1.0,-2.0
1701798879.8428988,0.0,-1.0,-2.0,-3.0,-2.0,0.0,1.0,-2.0
1701798879.8428988,-1.0,0.0,0.0,0.0,-1.0,0.0,-1.0,-2.0
1701798879.8529212,-1.0,0.0,-1.0,-3.0,0.0,-2.0,-2.0,0.0
1701798879.8529212,0.0,1.0,0.0,-1.0,-2.0,0.0,-1.0,-1.0
1701798879.8529212,-2.0,-1.0,-1.0,0.0,0.0,0.0,-2.0,-1.0
1701798879.8529212,0.0,0.0,0.0,-2.0,-2.0,0.0,0.0,-1.0
1701798879.8728333,-1.0,-2.0,0.0,0.0,-2.0,-1.0,-1.0,-1.0
1701798879.8728333,-2.0,1.0,1.0,-1.0,1.0,-1.0,-1.0,-1.0
1701798879.8825357,2.0,-1.0,-1.0,-1.0,-1.0,-1.0,-2.0,0.0
1701798879.8825357,-2.0,0.0,0.0,0.0,-2.0,-2.0,-1.0,-2.0
1701798879.8925343,0.0,-1.0,0.0,-2.0,-2.0,-1.0,0.0,-3.0
1701798879.8925343,-2.0,-4.0,-2.0,1.0,-2.0,-1.0,0.0,0.0
1701798879.9028885,1.0,0.0,1.0,0.0,-1.0,0.0,-1.0,-1.0
1701798879.9028885,-1.0,-2.0,-2.0,-1.0,-1.0,-2.0,0.0,-1.0
1701798879.9128864,-2.0,0.0,-2.0,-1.0,0.0,-3.0,-2.0,-1.0
1701798879.9128864,-1.0,-2.0,-2.0,-2.0,1.0,-1.0,-1.0,-1.0
1701798879.9128864,-1.0,2.0,-2.0,-2.0,0.0,-2.0,-1.0,1.0
1701798879.9128864,-2.0,-1.0,0.0,-3.0,0.0,-1.0,-1.0,1.0
1701798879.9325368,-2.0,-1.0,-1.0,-1.0,-1.0,-1.0,-1.0,-2.0
1701798879.9325368,1.0,-2.0,-1.0,-2.0,-1.0,-1.0,-3.0,-2.0
1701798879.942537,-2.0,-2.0,-1.0,1.0,0.0,-1.0,-1.0,-1.0
1701798879.942537,1.0,-1.0,0.0,1.0,0.0,-1.0,-1.0,-1.0
1701798879.9528623,1.0,0.0,-1.0,-2.0,0.0,0.0,-1.0,-1.0
1701798879.9528623,-2.0,1.0,-1.0,-1.0,-1.0,-2.0,-1.0,-1.0
1701798879.9628963,-1.0,-3.0,-2.0,-1.0,-2.0,0.0,-2.0,-3.0
1701798879.9628963,-2.0,-1.0,0.0,-1.0,-1.0,-2.0,-3.0,0.0
1701798879.9729168,-1.0,0.0,-2.0,-1.0,-1.0,-1.0,0.0,0.0
1701798879.9729168,-2.0,0.0,1.0,-2.0,-1.0,0.0,-1.0,-1.0
1701798879.9729168,-1.0,-2.0,-1.0,-1.0,-2.0,-1.0,-1.0,-1.0
1701798879.9729168,0.0,1.0,-3.0,0.0,0.0,0.0,1.0,-1.0
1701798880.0143657,1.0,-1.0,-2.0,-1.0,-2.0,0.0,-1.0,0.0
1701798880.0143657,-2.0,-2.0,-1.0,0.0,-1.0,0.0,-3.0,-2.0
1701798880.0143657,-1.0,0.0,0.0,-1.0,-1.0,-1.0,-2.0,0.0
1701798880.0143657,0.0,-1.0,0.0,-2.0,-1.0,-1.0,-3.0,-2.0
1701798880.015365,-2.0,0.0,-1.0,-1.0,-1.0,1.0,0.0,3.0
1701798880.015365,1.0,-2.0,-2.0,-1.0,-3.0,-1.0,-1.0,-2.0
1701798880.024844,-1.0,0.0,-1.0,-1.0,-1.0,-2.0,-1.0,0.0
1701798880.024844,0.0,-1.0,-1.0,-2.0,1.0,-1.0,-2.0,0.0
1701798880.0351539,-2.0,-1.0,-2.0,-1.0,0.0,-1.0,-1.0,-1.0
1701798880.0351539,-1.0,-1.0,-2.0,-2.0,-2.0,-2.0,-1.0,0.0
1701798880.0351539,1.0,-2.0,-2.0,0.0,0.0,0.0,-3.0,-1.0
1701798880.0351539,-2.0,-2.0,-2.0,-2.0,-3.0,-1.0,0.0,-2.0
1701798880.0751827,-1.0,-2.0,0.0,-1.0,0.0,-4.0,-2.0,-1.0
1701798880.0751827,0.0,-2.0,-2.0,-1.0,-1.0,-1.0,0.0,-2.0
1701798880.0751827,0.0,0.0,-1.0,-2.0,-1.0,1.0,2.0,-2.0
1701798880.0751827,0.0,0.0,1.0,-2.0,-3.0,1.0,0.0,-1.0
1701798880.0751827,-2.0,-1.0,-2.0,-1.0,-3.0,0.0,-2.0,-2.0
1701798880.0751827,-1.0,-1.0,-1.0,-1.0,-1.0,-1.0,0.0,0.0
1701798880.0852485,0.0,-1.0,1.0,-2.0,-1.0,-1.0,-1.0,0.0
1701798880.0852485,0.0,-1.0,0.0,0.0,-1.0,-2.0,-2.0,0.0
1701798880.0956104,-2.0,0.0,2.0,1.0,-1.0,0.0,-1.0,-2.0
1701798880.0956104,-2.0,-1.0,0.0,-2.0,1.0,0.0,-1.0,1.0
1701798880.0956104,1.0,0.0,-2.0,-2.0,-3.0,0.0,0.0,-2.0
1701798880.0956104,-2.0,-2.0,0.0,-2.0,-1.0,-1.0,-1.0,0.0
1701798880.1156213,2.0,0.0,-2.0,-2.0,-2.0,-1.0,-2.0,-1.0
1701798880.1156213,-1.0,-1.0,-3.0,1.0,-2.0,0.0,-1.0,-1.0
1701798880.1156213,-3.0,-3.0,-2.0,-1.0,-2.0,-2.0,1.0,0.0
1701798880.1156213,-1.0,-3.0,-1.0,0.0,-1.0,0.0,0.0,-2.0
1701798880.1359444,-2.0,-1.0,-2.0,1.0,0.0,-2.0,-2.0,0.0
1701798880.1359444,-1.0,0.0,1.0,0.0,1.0,-2.0,-1.0,-1.0
1701798880.1359444,-2.0,0.0,1.0,-1.0,2.0,0.0,-1.0,0.0
1701798880.1456263,0.0,-1.0,-4.0,0.0,0.0,-1.0,-1.0,-1.0
1701798880.165623,1.0,-2.0,-1.0,-3.0,0.0,-2.0,0.0,-2.0
1701798880.165623,-2.0,0.0,-2.0,-3.0,-2.0,-1.0,-1.0,-1.0
1701798880.165623,1.0,-1.0,-1.0,-1.0,-2.0,0.0,-1.0,0.0
1701798880.165623,-1.0,-1.0,-3.0,0.0,-1.0,-2.0,-1.0,0.0
1701798880.1759405,-1.0,-2.0,-2.0,1.0,-1.0,-1.0,-1.0,-2.0
1701798880.1759405,-2.0,-1.0,-1.0,-1.0,1.0,-3.0,-1.0,0.0
1701798880.1759405,-1.0,-1.0,-1.0,-1.0,-1.0,-3.0,-2.0,0.0
1701798880.1759405,-2.0,0.0,-1.0,-2.0,-1.0,0.0,2.0,-2.0
1701798880.1959867,-1.0,-1.0,0.0,-2.0,-1.0,-2.0,-1.0,-1.0
1701798880.1959867,-2.0,-1.0,0.0,-2.0,-3.0,-2.0,-2.0,-1.0
1701798880.205627,-1.0,-1.0,0.0,-2.0,-1.0,-1.0,-1.0,-3.0
1701798880.205627,-1.0,-1.0,0.0,-1.0,-2.0,0.0,-1.0,-1.0
1701798880.2156231,-1.0,-2.0,-1.0,1.0,-1.0,0.0,0.0,-2.0
1701798880.2156231,0.0,-2.0,0.0,-1.0,-1.0,0.0,0.0,0.0
1701798880.2156231,1.0,-1.0,-1.0,0.0,0.0,-2.0,-1.0,-2.0
1701798880.2156231,0.0,-1.0,-3.0,-1.0,-2.0,-2.0,-1.0,-1.0
1701798880.235981,-1.0,-1.0,-2.0,-2.0,0.0,0.0,0.0,-1.0
1701798880.235981,0.0,0.0,-3.0,0.0,-1.0,-1.0,0.0,0.0
1701798880.235981,-1.0,-1.0,-3.0,-1.0,-1.0,-1.0,-1.0,-1.0
1701798880.235981,-1.0,0.0,-2.0,-2.0,-1.0,-1.0,-2.0,-1.0
1701798880.2559714,-1.0,0.0,-1.0,-1.0,0.0,0.0,-1.0,0.0
1701798880.2559714,-2.0,-1.0,-2.0,-2.0,0.0,0.0,0.0,-4.0
1701798880.2559714,0.0,0.0,-2.0,0.0,-1.0,-1.0,-1.0,-1.0
1701798880.2559714,-1.0,-2.0,-3.0,0.0,-1.0,0.0,-2.0,0.0
1701798880.2756228,-1.0,1.0,-4.0,-2.0,-2.0,0.0,-2.0,2.0
1701798880.2756228,-1.0,-2.0,-3.0,1.0,-1.0,-1.0,-1.0,0.0
1701798880.2756228,-3.0,-1.0,0.0,0.0,-1.0,-2.0,0.0,-2.0
1701798880.2756228,-2.0,0.0,-1.0,-1.0,-2.0,-1.0,0.0,0.0
1701798880.295885,0.0,-1.0,0.0,-2.0,-1.0,-3.0,0.0,-1.0
1701798880.295885,1.0,0.0,-2.0,-3.0,-3.0,-1.0,0.0,0.0
1701798880.295885,-1.0,-2.0,-1.0,-2.0,-3.0,-2.0,-1.0,-1.0
1701798880.295885,0.0,-1.0,0.0,-2.0,-1.0,-1.0,-1.0,-1.0
1701798880.345622,-1.0,0.0,-2.0,0.0,-1.0,0.0,0.0,-3.0
1701798880.345622,-3.0,-2.0,-1.0,-3.0,-2.0,0.0,-1.0,-1.0
1701798880.345622,0.0,-1.0,-3.0,0.0,1.0,0.0,-2.0,-1.0
1701798880.345622,-2.0,-2.0,-1.0,-2.0,-1.0,0.0,0.0,-3.0
1701798880.345622,-1.0,-1.0,1.0,-1.0,-1.0,-1.0,-2.0,-1.0
1701798880.345622,-1.0,-1.0,1.0,-1.0,-1.0,-1.0,0.0,1.0
1701798880.345622,-2.0,-2.0,1.0,-2.0,-1.0,-1.0,0.0,0.0
1701798880.345622,-1.0,-1.0,1.0,-1.0,2.0,-1.0,0.0,-1.0
1701798880.3557796,-1.0,-2.0,0.0,-1.0,-1.0,-1.0,1.0,-1.0
1701798880.3557796,1.0,0.0,0.0,1.0,-2.0,-3.0,-4.0,-5.0
1701798880.3557796,-2.0,-1.0,-3.0,-2.0,-2.0,-2.0,-1.0,-2.0
1701798880.3557796,-1.0,-1.0,-1.0,-1.0,-2.0,-2.0,-1.0,-1.0
1701798880.3856232,-1.0,-1.0,-1.0,-1.0,-1.0,0.0,-2.0,0.0
1701798880.3856232,0.0,0.0,-2.0,0.0,-1.0,-1.0,0.0,0.0
1701798880.3856232,0.0,0.0,0.0,-1.0,0.0,0.0,-3.0,-1.0
1701798880.3856232,-1.0,0.0,1.0,0.0,0.0,-1.0,-1.0,-1.0
1701798880.3958497,0.0,0.0,-2.0,-1.0,-1.0,-3.0,-1.0,-2.0
1701798880.3958497,-3.0,-2.0,-1.0,1.0,0.0,0.0,0.0,-1.0
1701798880.3958497,0.0,-1.0,-1.0,0.0,-1.0,-1.0,0.0,-1.0
1701798880.3958497,-1.0,-2.0,-1.0,-3.0,-2.0,-2.0,0.0,0.0
1701798880.415624,-2.0,-2.0,0.0,0.0,-1.0,1.0,0.0,-1.0
1701798880.415624,-1.0,1.0,-1.0,-1.0,1.0,-2.0,-3.0,-1.0
1701798880.415624,-1.0,-1.0,-1.0,-1.0,-1.0,-1.0,-1.0,-1.0
1701798880.415624,0.0,0.0,1.0,-1.0,-1.0,0.0,-2.0,-1.0
1701798880.4456222,0.0,-2.0,-1.0,-2.0,-1.0,-2.0,-1.0,-2.0
1701798880.4456222,-1.0,-2.0,-1.0,-3.0,-1.0,1.0,-1.0,-1.0
1701798880.4456222,0.0,-1.0,0.0,-1.0,-2.0,-2.0,-2.0,0.0
1701798880.4456222,0.0,0.0,-1.0,0.0,-3.0,1.0,-1.0,-2.0
1701798880.4558213,0.0,-2.0,-2.0,0.0,-1.0,0.0,-2.0,-1.0
1701798880.4558213,-2.0,-1.0,-2.0,0.0,0.0,-1.0,1.0,-1.0
1701798880.4558213,-3.0,-1.0,-1.0,1.0,-2.0,0.0,0.0,-1.0
1701798880.4558213,-1.0,-2.0,-2.0,0.0,-2.0,0.0,0.0,0.0
1701798880.4758115,-2.0,0.0,0.0,-2.0,-1.0,-2.0,-1.0,-2.0
1701798880.4758115,0.0,-1.0,0.0,-1.0,-2.0,-1.0,-2.0,-2.0
1701798880.4758115,0.0,1.0,0.0,1.0,-1.0,-1.0,0.0,1.0
1701798880.4758115,-1.0,-1.0,-3.0,-2.0,0.0,-2.0,-1.0,-2.0
1701798880.5056229,-2.0,-1.0,1.0,-1.0,-2.0,-1.0,-1.0,0.0
1701798880.5056229,0.0,-1.0,-3.0,-1.0,0.0,1.0,0.0,1.0
1701798880.5056229,0.0,1.0,-2.0,-2.0,0.0,-1.0,-2.0,-2.0
1701798880.5056229,0.0,-1.0,-2.0,-1.0,0.0,-1.0,-3.0,-1.0
1701798880.5158508,0.0,0.0,-2.0,0.0,0.0,0.0,-2.0,0.0
1701798880.5158508,-1.0,0.0,0.0,-2.0,0.0,-1.0,-1.0,0.0
1701798880.5158508,-2.0,-2.0,-2.0,-2.0,0.0,0.0,1.0,-1.0
1701798880.5158508,-1.0,-2.0,-2.0,0.0,-1.0,0.0,0.0,1.0
1701798880.5436869,-3.0,-1.0,0.0,0.0,0.0,-2.0,-1.0,-1.0
1701798880.5436869,-2.0,0.0,0.0,0.0,-3.0,0.0,-1.0,-1.0
1701798880.54971,0.0,-1.0,-1.0,0.0,0.0,-1.0,-1.0,0.0
1701798880.54971,-2.0,-3.0,0.0,-1.0,-1.0,-2.0,0.0,-2.0
1701798880.5678897,0.0,-1.0,0.0,-1.0,-2.0,-1.0,0.0,-1.0
1701798880.5678897,0.0,0.0,-1.0,-1.0,-2.0,-1.0,-2.0,1.0
1701798880.5678897,1.0,0.0,1.0,-2.0,-1.0,0.0,-2.0,0.0
1701798880.5678897,-1.0,2.0,0.0,1.0,-1.0,0.0,-2.0,0.0
1701798880.5779243,0.0,-3.0,0.0,-1.0,-1.0,0.0,-1.0,0.0
1701798880.5779243,-1.0,-2.0,0.0,-2.0,0.0,-2.0,0.0,-1.0
1701798880.5779243,-2.0,-2.0,-1.0,-2.0,0.0,-1.0,0.0,0.0
1701798880.5779243,-2.0,-1.0,-2.0,0.0,-2.0,-1.0,-2.0,-2.0
1701798880.597978,-2.0,0.0,-2.0,1.0,-2.0,0.0,-1.0,-2.0
1701798880.597978,-1.0,0.0,-1.0,0.0,-2.0,1.0,0.0,-1.0
1701798880.6078923,-2.0,0.0,-1.0,0.0,-1.0,0.0,0.0,-1.0
1701798880.6078923,-1.0,0.0,-1.0,-1.0,-1.0,0.0,-1.0,1.0
1701798880.6180916,0.0,1.0,-1.0,-2.0,-1.0,-1.0,0.0,1.0
1701798880.6180916,0.0,0.0,0.0,0.0,0.0,-1.0,-1.0,-1.0
1701798880.6180916,-2.0,1.0,-2.0,-2.0,0.0,-1.0,-2.0,-1.0
1701798880.6180916,-1.0,-2.0,-1.0,-1.0,-1.0,-1.0,0.0,-1.0
1701798880.638089,-1.0,-1.0,0.0,-3.0,-1.0,-1.0,-3.0,0.0
1701798880.638089,-1.0,-2.0,-3.0,0.0,-1.0,0.0,-3.0,0.0
1701798880.638089,-3.0,-2.0,-1.0,-2.0,0.0,-1.0,0.0,0.0
1701798880.6478982,-1.0,-1.0,-1.0,-1.0,-1.0,0.0,-1.0,-2.0
1701798880.6579635,0.0,1.0,-2.0,-1.0,-4.0,-1.0,-2.0,-2.0
1701798880.6579635,0.0,-3.0,1.0,-2.0,-1.0,-1.0,1.0,-1.0
1701798880.677896,0.0,-1.0,-1.0,-1.0,-2.0,-1.0,0.0,-1.0
1701798880.677896,-1.0,0.0,-1.0,-2.0,-2.0,-1.0,-1.0,0.0
1701798880.6878898,-1.0,-2.0,-2.0,0.0,1.0,-1.0,0.0,1.0
1701798880.6878898,-2.0,0.0,-1.0,0.0,1.0,-1.0,-2.0,0.0
1701798880.6878898,1.0,-2.0,0.0,-2.0,-1.0,-1.0,-3.0,-2.0
1701798880.6878898,1.0,-1.0,1.0,-1.0,1.0,-2.0,0.0,-1.0
1701798880.6980596,-2.0,-1.0,-1.0,0.0,0.0,1.0,0.0,-2.0
1701798880.6980596,-1.0,0.0,0.0,-2.0,-2.0,-1.0,0.0,-1.0
1701798880.6980596,0.0,-1.0,-1.0,0.0,0.0,0.0,-1.0,0.0
1701798880.6980596,-1.0,-3.0,0.0,-1.0,-3.0,-1.0,-1.0,0.0
1701798880.7278936,-1.0,-2.0,-1.0,0.0,0.0,-2.0,0.0,0.0
1701798880.7278936,-1.0,0.0,-3.0,-1.0,0.0,-3.0,-2.0,-2.0
1701798880.7278936,-1.0,1.0,0.0,-2.0,-1.0,-2.0,-1.0,-3.0
1701798880.7278936,0.0,1.0,-1.0,1.0,-1.0,0.0,-3.0,-2.0
1701798880.7381687,-3.0,1.0,-1.0,-1.0,0.0,-3.0,-2.0,-2.0
1701798880.7381687,-2.0,-2.0,-3.0,-2.0,-1.0,0.0,-1.0,0.0
1701798880.7381687,0.0,1.0,-3.0,1.0,-1.0,-2.0,1.0,-2.0
1701798880.7381687,-2.0,-2.0,-3.0,1.0,-1.0,1.0,-1.0,0.0
1701798880.7582443,-2.0,-1.0,-2.0,0.0,-3.0,-1.0,-1.0,0.0
1701798880.7582443,-2.0,0.0,-3.0,-3.0,-1.0,1.0,-1.0,-1.0
1701798880.7582443,-2.0,-1.0,-1.0,-2.0,-2.0,0.0,-1.0,1.0
1701798880.7582443,-2.0,0.0,0.0,-1.0,0.0,0.0,0.0,0.0
1701798880.7878904,-1.0,-2.0,-2.0,-2.0,-2.0,-1.0,-2.0,-3.0
1701798880.7878904,0.0,-2.0,-2.0,1.0,1.0,-2.0,-3.0,-1.0
1701798880.7878904,1.0,-3.0,1.0,-1.0,-1.0,-1.0,-1.0,-2.0
1701798880.7878904,-2.0,-1.0,0.0,-3.0,0.0,-1.0,-1.0,-3.0
1701798880.798215,-1.0,0.0,-1.0,-2.0,-1.0,0.0,0.0,-1.0
1701798880.798215,-1.0,-1.0,0.0,-1.0,-2.0,-1.0,0.0,-4.0
1701798880.798215,-2.0,-1.0,0.0,-1.0,0.0,1.0,-2.0,0.0
1701798880.798215,0.0,1.0,-2.0,-2.0,-1.0,-2.0,-1.0,-1.0
1701798880.8181174,-1.0,-1.0,0.0,-3.0,0.0,-1.0,0.0,1.0
1701798880.8181174,1.0,-2.0,0.0,-2.0,-2.0,-1.0,-1.0,-1.0
1701798880.8278933,0.0,-2.0,-2.0,-3.0,1.0,-1.0,-1.0,-2.0
1701798880.8278933,0.0,-1.0,0.0,-2.0,0.0,-2.0,-1.0,-4.0
1701798880.8379233,-1.0,-2.0,0.0,0.0,0.0,-1.0,0.0,-2.0
1701798880.8379233,0.0,-1.0,1.0,0.0,-2.0,0.0,0.0,-3.0
1701798880.8379233,-2.0,-1.0,-1.0,0.0,-2.0,-2.0,-1.0,-1.0
1701798880.8379233,-2.0,-1.0,-2.0,0.0,1.0,0.0,-1.0,0.0
1701798880.858276,2.0,-1.0,-2.0,-1.0,-1.0,1.0,-2.0,1.0
1701798880.858276,-2.0,0.0,-1.0,0.0,-1.0,0.0,-2.0,0.0
1701798880.858276,1.0,0.0,-4.0,-1.0,0.0,0.0,-2.0,0.0
1701798880.858276,-2.0,-1.0,-4.0,-2.0,-2.0,-1.0,-1.0,-1.0
1701798880.8782244,-3.0,1.0,-3.0,0.0,-1.0,0.0,1.0,0.0
1701798880.8782244,-1.0,-1.0,-2.0,0.0,-2.0,-1.0,-2.0,0.0
1701798880.8782244,-1.0,0.0,-2.0,-1.0,-2.0,-1.0,-1.0,1.0
1701798880.8782244,-2.0,0.0,1.0,0.0,-2.0,-2.0,-1.0,-1.0
1701798880.90789,0.0,0.0,2.0,0.0,0.0,-1.0,-3.0,0.0
1701798880.90789,-1.0,-1.0,-1.0,-2.0,0.0,0.0,-1.0,0.0
1701798880.90789,-2.0,-2.0,0.0,-1.0,-1.0,-1.0,-2.0,-4.0
1701798880.90789,-2.0,-1.0,0.0,-1.0,-2.0,-3.0,-1.0,-1.0
1701798880.9178927,0.0,-3.0,1.0,-3.0,-1.0,-2.0,-1.0,0.0
1701798880.9178927,0.0,0.0,-2.0,1.0,-2.0,0.0,5.0,0.0
1701798880.9178927,0.0,-2.0,-1.0,1.0,0.0,2.0,7.0,2.0
1701798880.9178927,-1.0,-2.0,0.0,-2.0,-1.0,0.0,-2.0,-1.0
1701798880.9382222,-2.0,-1.0,0.0,-1.0,-2.0,-1.0,-2.0,-2.0
1701798880.9382222,0.0,-1.0,-1.0,0.0,-1.0,-4.0,-1.0,1.0
1701798880.947945,-1.0,0.0,-2.0,0.0,-1.0,-2.0,-3.0,-1.0
1701798880.947945,0.0,0.0,-2.0,-1.0,-1.0,-2.0,1.0,1.0
1701798880.9683318,1.0,-1.0,-4.0,1.0,-1.0,-1.0,0.0,-1.0
1701798880.9683318,-1.0,-1.0,0.0,-1.0,0.0,-1.0,-3.0,0.0
1701798880.9683318,-2.0,0.0,-1.0,-2.0,1.0,-1.0,-2.0,0.0
1701798880.9683318,-1.0,-2.0,-2.0,1.0,-2.0,-1.0,-1.0,-2.0
1701798880.9786909,-2.0,-3.0,-2.0,0.0,0.0,-1.0,-1.0,-3.0
1701798880.9786909,0.0,-2.0,-1.0,-4.0,-1.0,-1.0,-2.0,-1.0
1701798880.9786909,0.0,-1.0,1.0,-1.0,-1.0,-1.0,-2.0,-2.0
1701798880.9786909,-2.0,-1.0,1.0,-2.0,-1.0,0.0,-1.0,-1.0
1701798880.9983435,-1.0,-1.0,-2.0,-1.0,-2.0,-1.0,0.0,-2.0
1701798880.9983435,-1.0,-1.0,-2.0,0.0,-2.0,0.0,1.0,-2.0
1701798880.9983435,0.0,-2.0,0.0,0.0,-3.0,-2.0,-1.0,-2.0
1701798880.9983435,1.0,0.0,-1.0,0.0,-1.0,0.0,1.0,0.0
1701798881.0185394,1.0,-1.0,-1.0,0.0,-1.0,-1.0,-1.0,-1.0
1701798881.0185394,-1.0,-2.0,0.0,-1.0,-1.0,-1.0,-1.0,-1.0
1701798881.0185394,-1.0,-2.0,-1.0,-1.0,0.0,-1.0,-3.0,0.0
1701798881.0185394,-2.0,1.0,0.0,-1.0,-1.0,0.0,-3.0,-2.0
1701798881.0387328,0.0,-3.0,-2.0,-1.0,-1.0,1.0,-1.0,-2.0
1701798881.0387328,-1.0,0.0,0.0,-2.0,-2.0,0.0,-1.0,-1.0
1701798881.0387328,-1.0,-2.0,-1.0,0.0,-1.0,-2.0,2.0,-1.0
1701798881.0387328,-1.0,-2.0,0.0,-1.0,-1.0,-2.0,0.0,0.0
1701798881.066793,-1.0,0.0,0.0,0.0,-2.0,-2.0,-1.0,-2.0
1701798881.066793,-1.0,0.0,0.0,1.0,0.0,-1.0,-3.0,1.0
1701798881.0677688,-1.0,-3.0,-1.0,-1.0,-1.0,-1.0,0.0,-1.0
1701798881.0677688,0.0,1.0,-2.0,-2.0,-2.0,-1.0,-1.0,0.0
1701798881.08137,0.0,0.0,-2.0,-2.0,1.0,-3.0,-1.0,-1.0
1701798881.08137,-2.0,0.0,-2.0,-1.0,-1.0,-4.0,-1.0,-1.0
1701798881.08137,-3.0,-1.0,-2.0,0.0,-3.0,-1.0,0.0,-2.0
1701798881.08137,-1.0,-2.0,-1.0,0.0,0.0,-1.0,0.0,0.0
1701798881.1006389,-1.0,0.0,0.0,-2.0,0.0,0.0,-1.0,0.0
1701798881.1006389,-1.0,-1.0,1.0,0.0,1.0,0.0,-2.0,-1.0
1701798881.1006389,0.0,0.0,-2.0,-1.0,-1.0,-1.0,-2.0,0.0
1701798881.1006389,-1.0,-1.0,-2.0,-2.0,-2.0,0.0,0.0,-1.0
1701798881.120336,0.0,0.0,-1.0,-2.0,-2.0,-2.0,-1.0,1.0
1701798881.120336,-2.0,-1.0,-1.0,-1.0,0.0,0.0,-1.0,0.0
1701798881.120336,0.0,1.0,-1.0,-1.0,0.0,-2.0,-2.0,-2.0
1701798881.120336,1.0,-1.0,-2.0,-2.0,-2.0,-2.0,0.0,-1.0
1701798881.140729,-1.0,-2.0,0.0,-1.0,-2.0,-1.0,0.0,-1.0
1701798881.140729,-2.0,-1.0,-1.0,-1.0,-1.0,2.0,0.0,-2.0
1701798881.140729,-1.0,0.0,1.0,0.0,-1.0,-1.0,-1.0,0.0
1701798881.140729,-1.0,-1.0,0.0,0.0,0.0,-1.0,0.0,-1.0
1701798881.1603498,-2.0,-1.0,-1.0,-2.0,-2.0,0.0,-1.0,-1.0
1701798881.1603498,0.0,-2.0,-1.0,-1.0,0.0,-1.0,-1.0,-4.0
1701798881.1603498,-1.0,0.0,-2.0,-1.0,-1.0,0.0,-1.0,-3.0
1701798881.1603498,-2.0,0.0,-1.0,0.0,-1.0,-2.0,-1.0,-2.0
1701798881.1803758,-1.0,-2.0,0.0,0.0,-1.0,-2.0,-1.0,-1.0
1701798881.1803758,0.0,-2.0,-1.0,0.0,-2.0,-3.0,-3.0,-2.0
1701798881.1903465,-1.0,-2.0,-1.0,-2.0,-2.0,-1.0,-1.0,0.0
1701798881.1903465,0.0,-1.0,-1.0,-2.0,-1.0,-1.0,-3.0,-1.0
1701798881.2007098,0.0,-1.0,-1.0,-1.0,2.0,-1.0,-1.0,0.0
1701798881.2007098,-3.0,-1.0,-1.0,-2.0,-1.0,0.0,-1.0,0.0
1701798881.2007098,-3.0,1.0,0.0,-2.0,-1.0,0.0,-1.0,1.0
1701798881.2007098,-2.0,0.0,-2.0,0.0,0.0,-1.0,0.0,-1.0
1701798881.2203488,-1.0,-1.0,-1.0,-1.0,-1.0,-2.0,0.0,-2.0
1701798881.2203488,-1.0,-2.0,-1.0,-2.0,0.0,-1.0,-1.0,-1.0
1701798881.2203488,-1.0,-2.0,-2.0,-1.0,-2.0,-2.0,-2.0,-3.0
1701798881.2203488,-2.0,-2.0,0.0,-1.0,0.0,-1.0,-1.0,1.0
1701798881.2407298,-1.0,-3.0,-2.0,-1.0,0.0,-1.0,0.0,-1.0
1701798881.2407298,0.0,-2.0,-2.0,-3.0,-1.0,1.0,-2.0,-2.0
1701798881.2407298,0.0,-2.0,-1.0,-2.0,0.0,2.0,-1.0,-1.0
1701798881.2407298,1.0,-2.0,-1.0,-1.0,-1.0,-2.0,-2.0,-2.0
1701798881.2607343,-1.0,-2.0,-3.0,0.0,0.0,-1.0,-1.0,-2.0
1701798881.2607343,1.0,-1.0,-1.0,-1.0,-3.0,-2.0,-2.0,0.0
1701798881.2607343,1.0,-2.0,-1.0,-2.0,-3.0,1.0,-2.0,-1.0
1701798881.2607343,0.0,-3.0,-1.0,-1.0,-2.0,-1.0,-2.0,-3.0
1701798881.2903478,-2.0,1.0,-1.0,-2.0,-2.0,1.0,-3.0,0.0
1701798881.2903478,-1.0,-1.0,-1.0,1.0,0.0,-2.0,-1.0,-2.0
1701798881.2903478,0.0,0.0,-3.0,0.0,1.0,1.0,3.0,6.0
1701798881.2903478,-2.0,-2.0,-2.0,1.0,-1.0,-3.0,-3.0,-3.0
1701798881.3003821,-1.0,-2.0,0.0,0.0,-2.0,-2.0,-4.0,-1.0
1701798881.3003821,-2.0,-1.0,-1.0,-1.0,-1.0,-3.0,-6.0,-5.0
1701798881.3003821,-1.0,-1.0,0.0,-2.0,0.0,1.0,12.0,3.0
1701798881.3003821,16.0,1.0,-3.0,0.0,-1.0,2.0,1.0,14.0
1701798881.3207226,3.0,-3.0,-4.0,-4.0,-2.0,-1.0,0.0,-8.0
1701798881.3207226,-6.0,2.0,0.0,1.0,0.0,-4.0,-28.0,-5.0
1701798881.3207226,-9.0,-5.0,0.0,1.0,-3.0,-3.0,-11.0,-12.0
1701798881.3207226,4.0,8.0,2.0,0.0,0.0,5.0,22.0,14.0
1701798881.340347,-2.0,-6.0,-3.0,0.0,-4.0,-7.0,-25.0,-19.0
1701798881.340347,18.0,-2.0,-4.0,0.0,1.0,11.0,17.0,28.0
1701798881.340347,-29.0,-1.0,2.0,-3.0,0.0,-4.0,6.0,-32.0
1701798881.340347,-5.0,1.0,6.0,0.0,4.0,1.0,0.0,-10.0
1701798881.3607419,-14.0,0.0,2.0,-1.0,0.0,0.0,10.0,6.0
1701798881.3607419,-5.0,0.0,0.0,-1.0,2.0,-3.0,-17.0,-20.0
1701798881.3607419,-2.0,0.0,-3.0,-4.0,-3.0,-12.0,-45.0,-10.0
1701798881.3607419,-2.0,1.0,-1.0,-2.0,-2.0,1.0,17.0,12.0
1701798881.3803914,-1.0,-5.0,0.0,-1.0,-2.0,0.0,2.0,-8.0
1701798881.3803914,-1.0,-2.0,0.0,-3.0,-2.0,-1.0,8.0,6.0
1701798881.3903463,14.0,-1.0,1.0,1.0,1.0,4.0,13.0,18.0
1701798881.3903463,-2.0,-2.0,-3.0,-2.0,-2.0,-5.0,-16.0,-11.0
1701798881.4005573,6.0,4.0,-1.0,1.0,-1.0,2.0,-2.0,15.0
1701798881.4005573,-2.0,6.0,0.0,-1.0,-2.0,0.0,14.0,-5.0
1701798881.4005573,5.0,-10.0,-2.0,1.0,0.0,2.0,1.0,4.0
1701798881.4005573,-9.0,0.0,-3.0,-3.0,0.0,-3.0,-19.0,-7.0
1701798881.42059,0.0,10.0,0.0,0.0,1.0,1.0,8.0,2.0
1701798881.42059,-4.0,-8.0,0.0,-2.0,0.0,-2.0,2.0,-2.0
1701798881.42059,-3.0,-5.0,-2.0,-2.0,-1.0,-1.0,-3.0,-2.0
1701798881.42059,-4.0,-6.0,-4.0,-1.0,-1.0,0.0,-1.0,-3.0
1701798881.4404206,0.0,0.0,0.0,-2.0,0.0,-3.0,4.0,2.0
1701798881.4404206,-4.0,4.0,-1.0,0.0,-2.0,-3.0,-1.0,-6.0
1701798881.4603477,4.0,-2.0,-3.0,-1.0,0.0,0.0,2.0,7.0
1701798881.4603477,-1.0,-6.0,-2.0,-2.0,-2.0,0.0,1.0,-5.0
1701798881.4703465,1.0,6.0,0.0,0.0,-2.0,-3.0,-3.0,-1.0
1701798881.4703465,-1.0,1.0,-1.0,1.0,-2.0,-3.0,-4.0,-1.0
1701798881.4703465,2.0,-1.0,0.0,-1.0,0.0,1.0,5.0,2.0
1701798881.4703465,-1.0,0.0,-1.0,-1.0,-1.0,-2.0,-3.0,-6.0
1701798881.4805098,-1.0,0.0,-2.0,-2.0,0.0,-2.0,-3.0,-1.0
1701798881.4805098,-1.0,-3.0,-1.0,-1.0,-3.0,-2.0,3.0,1.0
1701798881.4805098,0.0,5.0,-1.0,0.0,-2.0,-1.0,2.0,-1.0
1701798881.4805098,-1.0,-1.0,0.0,0.0,-2.0,-1.0,-5.0,-2.0
1701798881.500673,0.0,-5.0,-1.0,0.0,-1.0,0.0,-2.0,3.0
1701798881.500673,0.0,-3.0,-1.0,0.0,1.0,0.0,3.0,-1.0
1701798881.500673,2.0,3.0,0.0,-1.0,-2.0,-1.0,0.0,1.0
1701798881.500673,-2.0,-1.0,0.0,-2.0,-2.0,-2.0,-4.0,-2.0
1701798881.5203495,0.0,-4.0,0.0,0.0,0.0,0.0,2.0,0.0
1701798881.5203495,-3.0,6.0,-2.0,-2.0,0.0,-2.0,0.0,-1.0
1701798881.5203495,-1.0,-5.0,-3.0,1.0,-1.0,-2.0,-2.0,-1.0
1701798881.5203495,-1.0,-3.0,-1.0,-1.0,1.0,0.0,-1.0,1.0
1701798881.5403593,-1.0,-3.0,-3.0,-2.0,-1.0,0.0,-2.0,-3.0
1701798881.5403593,-1.0,-1.0,0.0,-2.0,0.0,-1.0,-2.0,-3.0
1701798881.5503585,2.0,3.0,-1.0,0.0,0.0,-1.0,2.0,3.0
1701798881.5503585,-2.0,-2.0,-2.0,-1.0,-1.0,-1.0,-2.0,-4.0
1701798881.580346,-1.0,0.0,-1.0,-2.0,-1.0,-1.0,-1.0,-1.0
1701798881.580346,-1.0,-2.0,-1.0,1.0,-2.0,-2.0,-1.0,0.0
1701798881.580346,-1.0,0.0,0.0,-1.0,1.0,-2.0,1.0,0.0
1701798881.580346,-1.0,-2.0,-3.0,-1.0,-1.0,0.0,-2.0,-1.0
1701798881.580346,-2.0,-1.0,-1.0,-2.0,0.0,0.0,-1.0,-1.0
1701798881.580346,-1.0,-2.0,-1.0,-2.0,0.0,-1.0,0.0,-1.0
1701798881.580346,0.0,2.0,-1.0,0.0,-1.0,0.0,-1.0,0.0
1701798881.580346,-1.0,1.0,-1.0,-1.0,-2.0,-2.0,-1.0,-3.0
1701798881.6152174,-2.0,-1.0,-3.0,-2.0,0.0,0.0,-1.0,-1.0
1701798881.6152174,-1.0,-3.0,-2.0,-3.0,-1.0,-1.0,-1.0,-1.0
1701798881.618219,-2.0,-1.0,-1.0,-3.0,-2.0,0.0,-2.0,-1.0
1701798881.618219,-1.0,-1.0,1.0,1.0,-1.0,-3.0,-3.0,0.0
1701798881.620236,-3.0,-1.0,0.0,0.0,-1.0,-1.0,0.0,-1.0
1701798881.620236,0.0,-3.0,0.0,2.0,0.0,1.0,1.0,0.0
1701798881.6230772,-1.0,1.0,0.0,2.0,1.0,0.0,2.0,-1.0
1701798881.6230772,-1.0,-2.0,0.0,-3.0,-3.0,-1.0,-2.0,-2.0
1701798881.6437678,-1.0,-2.0,0.0,-1.0,-3.0,-4.0,-3.0,-4.0
1701798881.6437678,-1.0,-2.0,-3.0,-3.0,-4.0,-3.0,-2.0,-1.0
1701798881.6437678,0.0,-1.0,-1.0,-1.0,0.0,0.0,0.0,-2.0
1701798881.6437678,-2.0,-1.0,-3.0,0.0,2.0,1.0,2.0,0.0
1701798881.6734333,-1.0,1.0,-1.0,-1.0,-4.0,-1.0,-2.0,0.0
1701798881.6734333,-1.0,-2.0,-1.0,0.0,-2.0,-3.0,-1.0,-1.0
1701798881.6734333,-1.0,-1.0,0.0,-2.0,-3.0,1.0,1.0,-2.0
1701798881.6734333,-2.0,0.0,0.0,0.0,0.0,0.0,0.0,-2.0
1701798881.6734333,0.0,-1.0,1.0,0.0,-1.0,0.0,-1.0,-4.0
1701798881.6734333,-2.0,-2.0,-2.0,0.0,0.0,0.0,0.0,-1.0
1701798881.6834664,-2.0,-1.0,0.0,-1.0,-1.0,-1.0,-2.0,0.0
1701798881.6834664,1.0,0.0,-2.0,-1.0,-2.0,-2.0,-1.0,0.0
1701798881.7038348,0.0,0.0,-2.0,-1.0,0.0,-1.0,-1.0,1.0
1701798881.7038348,-3.0,-1.0,-1.0,-1.0,-3.0,-2.0,-3.0,-1.0
1701798881.7038348,1.0,-1.0,-1.0,-2.0,0.0,-1.0,-2.0,-1.0
1701798881.7038348,-2.0,-2.0,-1.0,-2.0,0.0,0.0,0.0,-1.0
1701798881.733433,1.0,-2.0,-1.0,-1.0,1.0,-1.0,1.0,-1.0
1701798881.733433,0.0,0.0,0.0,-1.0,-2.0,1.0,0.0,1.0
1701798881.733433,0.0,-2.0,-2.0,0.0,-1.0,-2.0,-1.0,0.0
1701798881.733433,-1.0,-2.0,0.0,0.0,0.0,-3.0,-1.0,-1.0
1701798881.733433,-1.0,-3.0,-2.0,-1.0,0.0,-3.0,-1.0,1.0
1701798881.733433,-1.0,-2.0,0.0,0.0,0.0,0.0,-2.0,-2.0
1701798881.7436235,-3.0,0.0,0.0,-1.0,0.0,-1.0,-1.0,-3.0
1701798881.7436235,-2.0,-1.0,-4.0,-2.0,-2.0,-1.0,-1.0,-1.0
1701798881.7636297,-2.0,0.0,-2.0,-1.0,1.0,0.0,1.0,-1.0
1701798881.7636297,-1.0,-1.0,-1.0,-3.0,-1.0,-1.0,0.0,-2.0
1701798881.7636297,-1.0,0.0,0.0,-1.0,-3.0,-1.0,-2.0,0.0
1701798881.7636297,1.0,-2.0,-2.0,0.0,-1.0,-3.0,-2.0,-1.0
1701798881.7934387,-1.0,-2.0,-1.0,-1.0,-2.0,-1.0,-1.0,1.0
1701798881.7934387,1.0,0.0,-1.0,-2.0,-1.0,-1.0,0.0,-1.0
1701798881.8034341,-1.0,0.0,-1.0,-1.0,0.0,-1.0,-3.0,-2.0
1701798881.8034341,-3.0,0.0,0.0,0.0,-1.0,-1.0,-1.0,-1.0
1701798881.8134327,0.0,-2.0,-3.0,0.0,-2.0,0.0,-2.0,-2.0
1701798881.8134327,0.0,-1.0,-1.0,0.0,-1.0,-2.0,-2.0,-1.0
1701798881.8134327,-1.0,-2.0,-2.0,-1.0,-1.0,-2.0,-1.0,-1.0
1701798881.8134327,0.0,0.0,0.0,-1.0,1.0,-1.0,-1.0,-2.0
1701798881.833433,-1.0,-1.0,1.0,-1.0,1.0,-1.0,0.0,-2.0
1701798881.833433,-2.0,-2.0,0.0,0.0,-1.0,-1.0,-1.0,-1.0
1701798881.8434315,0.0,0.0,-2.0,-1.0,-1.0,-2.0,0.0,-1.0
1701798881.8434315,-1.0,-2.0,0.0,-1.0,-3.0,0.0,-1.0,0.0
1701798881.8434315,0.0,0.0,-2.0,0.0,-2.0,-1.0,-3.0,0.0
1701798881.8434315,0.0,1.0,-2.0,0.0,0.0,-1.0,-1.0,0.0
1701798881.8434315,-1.0,-1.0,-2.0,-2.0,-3.0,-2.0,-2.0,-1.0
1701798881.8434315,-2.0,0.0,0.0,-1.0,-1.0,-1.0,-1.0,-1.0
1701798881.8537648,0.0,-1.0,1.0,-2.0,-1.0,-1.0,-1.0,-1.0
1701798881.8537648,-1.0,-2.0,1.0,-1.0,-1.0,-3.0,0.0,-1.0
1701798881.863726,0.0,-1.0,0.0,-2.0,-2.0,-1.0,-1.0,-2.0
1701798881.863726,1.0,-1.0,-2.0,-1.0,-3.0,-1.0,-2.0,-1.0
1701798881.8838203,-1.0,0.0,-2.0,-4.0,-2.0,0.0,-1.0,0.0
1701798881.8838203,-2.0,-1.0,-1.0,1.0,-1.0,-2.0,-3.0,-3.0
1701798881.8838203,-1.0,-2.0,-1.0,0.0,-1.0,-1.0,-1.0,-1.0
1701798881.8838203,0.0,0.0,-1.0,0.0,0.0,-3.0,-2.0,-1.0
1701798881.9034314,-3.0,-1.0,-2.0,-2.0,0.0,-2.0,-1.0,2.0
1701798881.9034314,-1.0,-2.0,-2.0,-1.0,1.0,1.0,0.0,0.0
1701798881.9034314,-2.0,-2.0,0.0,-2.0,-1.0,-1.0,-1.0,-2.0
1701798881.9034314,-1.0,-2.0,1.0,-1.0,-2.0,-1.0,-1.0,-3.0
1701798881.923434,-2.0,0.0,0.0,-1.0,-2.0,0.0,-1.0,-2.0
1701798881.923434,0.0,-2.0,-2.0,-1.0,0.0,-1.0,-1.0,0.0
1701798881.923434,-1.0,0.0,-1.0,0.0,0.0,-2.0,1.0,-1.0
1701798881.923434,-1.0,-1.0,-1.0,-2.0,-1.0,-1.0,0.0,-3.0
1701798881.9437964,-2.0,-2.0,0.0,0.0,0.0,-1.0,0.0,2.0
1701798881.9437964,-1.0,-1.0,-1.0,-1.0,-2.0,-1.0,0.0,-1.0
1701798881.9437964,0.0,-1.0,1.0,-2.0,-1.0,-3.0,-1.0,-1.0
1701798881.9437964,0.0,-2.0,-3.0,-1.0,-2.0,1.0,-2.0,-1.0
1701798881.9634335,0.0,-1.0,-3.0,0.0,-1.0,-2.0,-3.0,0.0
1701798881.9634335,-2.0,1.0,-3.0,0.0,-1.0,-1.0,-1.0,-1.0
1701798881.9634335,-3.0,-2.0,-4.0,1.0,-1.0,0.0,-2.0,0.0
1701798881.9634335,-1.0,0.0,-3.0,0.0,-1.0,-1.0,0.0,0.0
1701798881.9837046,-1.0,-1.0,0.0,-1.0,-1.0,0.0,-2.0,-2.0
1701798881.9837046,0.0,0.0,0.0,-1.0,-2.0,-1.0,0.0,-1.0
1701798881.9837046,0.0,0.0,-2.0,-2.0,0.0,-2.0,1.0,1.0
1701798881.9837046,-1.0,-1.0,1.0,-2.0,-1.0,0.0,-1.0,0.0
1701798882.023435,1.0,-1.0,0.0,0.0,-3.0,-2.0,-3.0,-2.0
1701798882.023435,-1.0,-2.0,-1.0,-1.0,-1.0,0.0,-1.0,0.0
1701798882.023435,-2.0,-1.0,-2.0,0.0,-2.0,0.0,-2.0,-1.0
1701798882.023435,-2.0,1.0,-2.0,0.0,0.0,-2.0,-2.0,-1.0
1701798882.023435,-1.0,-2.0,-1.0,0.0,1.0,-1.0,-1.0,-2.0
1701798882.023435,0.0,-1.0,-1.0,-2.0,-1.0,-2.0,-2.0,-1.0
1701798882.023435,0.0,-1.0,0.0,0.0,0.0,0.0,-2.0,0.0
1701798882.023435,-1.0,-2.0,-1.0,-3.0,-2.0,-1.0,-1.0,-1.0
1701798882.0434358,-2.0,-1.0,0.0,-2.0,-3.0,-1.0,-2.0,-2.0
1701798882.0434358,-2.0,0.0,0.0,-1.0,-2.0,-1.0,-1.0,-2.0
1701798882.0434358,-1.0,0.0,0.0,-2.0,0.0,0.0,-1.0,-2.0
1701798882.0434358,1.0,-1.0,0.0,-1.0,-1.0,-3.0,-1.0,1.0
1701798882.0734744,-1.0,-1.0,-2.0,-1.0,-1.0,-1.0,0.0,-2.0
1701798882.0734744,-1.0,0.0,-1.0,-1.0,-2.0,-1.0,-1.0,-1.0
1701798882.0734744,-1.0,-1.0,0.0,0.0,0.0,-1.0,1.0,-1.0
1701798882.0734744,-2.0,-2.0,-1.0,0.0,0.0,-1.0,-1.0,-1.0
1701798882.083764,1.0,-1.0,-1.0,1.0,-1.0,-1.0,-1.0,-2.0
1701798882.083764,-1.0,-1.0,-1.0,0.0,-1.0,0.0,-2.0,1.0
1701798882.083764,-1.0,-1.0,-2.0,1.0,-1.0,0.0,-2.0,-2.0
1701798882.083764,-2.0,-1.0,-1.0,-1.0,-1.0,1.0,-3.0,-1.0
1701798882.1040733,-2.0,-2.0,-1.0,-2.0,-1.0,-3.0,0.0,-1.0
1701798882.1040733,-1.0,-1.0,-1.0,-2.0,1.0,-3.0,-1.0,0.0
1701798882.1040733,0.0,-1.0,1.0,0.0,-1.0,0.0,-1.0,-1.0
1701798882.1040733,-1.0,0.0,0.0,0.0,0.0,0.0,0.0,-2.0
1701798882.1389577,0.0,0.0,-2.0,-2.0,-2.0,0.0,-2.0,-1.0
1701798882.1389577,0.0,-2.0,-1.0,-1.0,0.0,-1.0,-1.0,-3.0
1701798882.1389577,-1.0,-2.0,-1.0,-1.0,-2.0,-3.0,-2.0,-1.0
1701798882.1389577,-2.0,-1.0,0.0,-2.0,-2.0,0.0,0.0,-1.0
1701798882.1389577,-1.0,0.0,-1.0,-1.0,-2.0,-1.0,1.0,1.0
1701798882.1389577,0.0,-1.0,-1.0,0.0,-2.0,-1.0,-1.0,-1.0
1701798882.1389577,0.0,0.0,-1.0,-1.0,-1.0,0.0,-2.0,0.0
1701798882.1389577,-2.0,-1.0,0.0,-1.0,-2.0,0.0,-1.0,-2.0
1701798882.1693475,-1.0,0.0,0.0,-2.0,-1.0,-1.0,0.0,-1.0
1701798882.1693475,0.0,-1.0,-1.0,0.0,-1.0,0.0,2.0,-1.0
1701798882.1693475,0.0,-1.0,-1.0,-3.0,-1.0,0.0,1.0,-1.0
1701798882.1693475,0.0,-1.0,-1.0,0.0,1.0,-1.0,-1.0,0.0
1701798882.178962,-1.0,-1.0,-1.0,-3.0,2.0,-1.0,0.0,-1.0
1701798882.178962,0.0,-2.0,-1.0,0.0,-1.0,0.0,-2.0,1.0
1701798882.178962,-2.0,-3.0,-2.0,0.0,-1.0,-1.0,0.0,0.0
1701798882.178962,0.0,-2.0,-1.0,-1.0,-2.0,-2.0,-1.0,-1.0
1701798882.199326,-2.0,-1.0,1.0,-2.0,-2.0,-2.0,-2.0,-2.0
1701798882.199326,0.0,-1.0,0.0,0.0,-1.0,-3.0,-2.0,-3.0
1701798882.199326,-3.0,-1.0,-1.0,0.0,0.0,1.0,-2.0,-1.0
1701798882.199326,0.0,-1.0,-1.0,0.0,-1.0,0.0,-5.0,-5.0
1701798882.2289596,-1.0,-2.0,-4.0,0.0,-2.0,-5.0,-46.0,-5.0
1701798882.2289596,-6.0,-2.0,-5.0,-2.0,-2.0,-5.0,-35.0,-14.0
1701798882.2289596,1.0,3.0,-2.0,0.0,0.0,24.0,90.0,27.0
1701798882.2289596,-1.0,-1.0,-2.0,-3.0,0.0,5.0,27.0,4.0
1701798882.2391403,6.0,-1.0,-1.0,-1.0,-1.0,2.0,11.0,-1.0
1701798882.2391403,-2.0,2.0,0.0,-2.0,-1.0,-7.0,-5.0,-4.0
1701798882.2391403,4.0,-2.0,-1.0,-1.0,-1.0,-8.0,-43.0,-23.0
1701798882.2391403,-11.0,0.0,-3.0,-1.0,-3.0,-12.0,-33.0,-10.0
1701798882.2591908,3.0,2.0,2.0,3.0,4.0,15.0,40.0,8.0
1701798882.2591908,0.0,-2.0,1.0,-3.0,1.0,5.0,1.0,13.0
1701798882.2591908,-2.0,-1.0,1.0,-2.0,-1.0,0.0,7.0,-4.0
1701798882.2591908,4.0,0.0,0.0,-1.0,1.0,-2.0,3.0,1.0
1701798882.289159,-3.0,-3.0,-1.0,-2.0,-4.0,-9.0,-18.0,-14.0
1701798882.289159,0.0,-1.0,-1.0,1.0,-1.0,2.0,7.0,2.0
1701798882.289159,1.0,-1.0,-1.0,0.0,-1.0,-3.0,-21.0,-3.0
1701798882.289159,-3.0,-2.0,-1.0,-3.0,-3.0,-6.0,-17.0,-5.0
1701798882.3189588,-4.0,-2.0,-1.0,-1.0,-1.0,-3.0,-4.0,-1.0
1701798882.3189588,0.0,0.0,0.0,-2.0,0.0,4.0,15.0,0.0
1701798882.3189588,-1.0,-2.0,0.0,-2.0,-1.0,-7.0,-27.0,-3.0
1701798882.3189588,0.0,0.0,0.0,-1.0,-2.0,2.0,15.0,7.0
1701798882.3189588,-4.0,-1.0,0.0,0.0,-1.0,2.0,14.0,1.0
1701798882.3189588,1.0,-1.0,-1.0,-1.0,-1.0,0.0,13.0,1.0
1701798882.3189588,-3.0,0.0,-1.0,0.0,0.0,-6.0,-21.0,-8.0
1701798882.3189588,1.0,0.0,-1.0,0.0,-1.0,0.0,-6.0,-2.0
1701798882.3489616,-1.0,-1.0,-2.0,-1.0,0.0,1.0,12.0,9.0
1701798882.3489616,-1.0,-2.0,-1.0,-2.0,-1.0,-3.0,-9.0,-5.0
1701798882.3489616,-3.0,-1.0,-1.0,-1.0,-2.0,-3.0,0.0,2.0
1701798882.3489616,0.0,0.0,2.0,-1.0,1.0,2.0,6.0,1.0
1701798882.3591058,-1.0,-3.0,-2.0,-1.0,-4.0,-5.0,-8.0,-8.0
1701798882.3591058,-2.0,0.0,1.0,-1.0,-1.0,-3.0,-8.0,-4.0
1701798882.3591058,-2.0,-1.0,-2.0,-3.0,0.0,-1.0,0.0,5.0
1701798882.3591058,1.0,1.0,0.0,-1.0,1.0,1.0,7.0,-3.0
1701798882.3889647,-1.0,-4.0,-3.0,-3.0,-2.0,-3.0,-6.0,2.0
1701798882.3889647,-1.0,-2.0,-1.0,-1.0,-3.0,-3.0,-7.0,-4.0
1701798882.3889647,-3.0,0.0,-1.0,-2.0,-1.0,-2.0,13.0,2.0
1701798882.3889647,0.0,-1.0,-3.0,1.0,-2.0,1.0,2.0,0.0
1701798882.4089592,0.0,0.0,0.0,-1.0,-1.0,-2.0,-1.0,0.0
1701798882.4089592,-1.0,0.0,-2.0,0.0,2.0,0.0,6.0,0.0
1701798882.4089592,0.0,0.0,-1.0,-2.0,-2.0,-3.0,-7.0,-5.0
1701798882.4089592,0.0,0.0,0.0,1.0,0.0,-1.0,-15.0,0.0
1701798882.4189966,-1.0,-2.0,0.0,-1.0,-1.0,-1.0,5.0,-4.0
1701798882.4189966,-2.0,-1.0,-1.0,1.0,-1.0,1.0,-4.0,3.0
1701798882.4189966,-2.0,-1.0,-3.0,1.0,0.0,-1.0,-1.0,-1.0
1701798882.4189966,-1.0,-1.0,-3.0,-2.0,1.0,0.0,3.0,0.0
1701798882.4392984,-1.0,0.0,-1.0,1.0,0.0,-2.0,-5.0,0.0
1701798882.4392984,-1.0,0.0,-1.0,-1.0,-2.0,-2.0,-3.0,-2.0
1701798882.4392984,-2.0,0.0,0.0,-1.0,-2.0,-1.0,-2.0,-1.0
1701798882.4392984,-1.0,0.0,-1.0,-1.0,-2.0,0.0,-1.0,0.0
1701798882.4689598,-2.0,0.0,1.0,-2.0,0.0,-2.0,-3.0,2.0
1701798882.4689598,-1.0,0.0,-2.0,-1.0,0.0,-1.0,4.0,-3.0
1701798882.4689598,-1.0,-2.0,0.0,0.0,0.0,-2.0,2.0,0.0
1701798882.4689598,-1.0,-1.0,-3.0,-1.0,0.0,-2.0,-1.0,-3.0
1701798882.479281,-2.0,-1.0,-3.0,-3.0,-1.0,1.0,-4.0,-2.0
1701798882.479281,-1.0,-1.0,-1.0,-1.0,-2.0,-1.0,4.0,-2.0
1701798882.479281,-1.0,-2.0,-2.0,-2.0,-2.0,-1.0,0.0,-1.0
1701798882.479281,-3.0,-2.0,1.0,-1.0,-1.0,-1.0,-3.0,0.0
1701798882.4993162,-3.0,-1.0,-1.0,0.0,0.0,0.0,0.0,-1.0
1701798882.4993162,-1.0,-1.0,-1.0,-2.0,-2.0,0.0,2.0,0.0
1701798882.5089617,-1.0,-2.0,1.0,0.0,0.0,-1.0,-3.0,-1.0
1701798882.5089617,-1.0,-1.0,-3.0,-3.0,-1.0,-2.0,0.0,0.0
1701798882.5293243,0.0,-1.0,-2.0,-1.0,0.0,-1.0,-1.0,-1.0
1701798882.5293243,-1.0,-1.0,-1.0,0.0,-2.0,-2.0,0.0,1.0
1701798882.5293243,-1.0,-1.0,0.0,-2.0,-1.0,1.0,-2.0,-1.0
1701798882.5293243,1.0,-1.0,1.0,-1.0,0.0,-1.0,0.0,-2.0
1701798882.5392947,-1.0,-1.0,-1.0,0.0,-2.0,-3.0,2.0,0.0
1701798882.5392947,0.0,-2.0,-1.0,-3.0,-1.0,-2.0,-1.0,-1.0
1701798882.549201,-1.0,1.0,-1.0,0.0,0.0,-1.0,-1.0,0.0
1701798882.549201,0.0,-2.0,0.0,-1.0,-1.0,0.0,0.0,-1.0
1701798882.5689583,-1.0,-1.0,-1.0,0.0,-1.0,1.0,-2.0,-2.0
1701798882.5689583,-2.0,0.0,-1.0,-1.0,-1.0,-1.0,0.0,-1.0
1701798882.5689583,-1.0,0.0,1.0,0.0,-1.0,-1.0,-1.0,-1.0
1701798882.5689583,0.0,1.0,-2.0,-2.0,1.0,-1.0,-1.0,-1.0
1701798882.5893323,0.0,0.0,-2.0,-3.0,-3.0,0.0,-2.0,0.0
1701798882.5893323,-1.0,-1.0,-2.0,-1.0,-1.0,-1.0,0.0,1.0
1701798882.5893323,-2.0,0.0,-2.0,-3.0,-1.0,-2.0,1.0,-1.0
1701798882.5893323,-1.0,-3.0,-2.0,-1.0,-3.0,0.0,-2.0,0.0
1701798882.5992966,0.0,0.0,-2.0,-1.0,0.0,-2.0,-1.0,-2.0
1701798882.5992966,0.0,0.0,-2.0,0.0,-1.0,0.0,-1.0,0.0
1701798882.6092653,-1.0,-1.0,-2.0,0.0,-2.0,-1.0,-1.0,-2.0
1701798882.6092653,-1.0,0.0,-1.0,1.0,1.0,-1.0,-1.0,-2.0
1701798882.6192691,-3.0,0.0,-2.0,0.0,-1.0,-2.0,-3.0,0.0
1701798882.6192691,-1.0,-1.0,0.0,-1.0,-1.0,-1.0,1.0,0.0
1701798882.6291935,1.0,-2.0,0.0,-3.0,-3.0,-1.0,-1.0,-3.0
1701798882.6291935,0.0,0.0,-1.0,0.0,-1.0,-3.0,1.0,-1.0
1701798882.6671612,-3.0,-3.0,0.0,-2.0,-2.0,-2.0,-2.0,0.0
1701798882.6671612,0.0,1.0,-2.0,-1.0,-1.0,0.0,0.0,-2.0
1701798882.6681614,-1.0,-1.0,-3.0,-1.0,1.0,-1.0,-1.0,0.0
1701798882.6681614,-1.0,-2.0,-2.0,-2.0,-2.0,-1.0,1.0,0.0
1701798882.6681614,-3.0,-1.0,0.0,-1.0,2.0,2.0,0.0,-1.0
1701798882.6681614,-1.0,-1.0,-2.0,-2.0,-3.0,-1.0,-2.0,-1.0
1701798882.6720302,-2.0,-1.0,-1.0,-2.0,0.0,0.0,0.0,-1.0
1701798882.6720302,-2.0,-2.0,-2.0,-1.0,-1.0,0.0,-2.0,0.0
1701798882.682028,0.0,-1.0,-1.0,1.0,-2.0,-2.0,-1.0,0.0
1701798882.682028,-2.0,-2.0,0.0,-1.0,0.0,-1.0,-2.0,0.0
1701798882.682028,1.0,-1.0,-1.0,0.0,-1.0,-2.0,0.0,-1.0
1701798882.682028,0.0,-2.0,0.0,-1.0,-1.0,-1.0,-2.0,0.0
1701798882.7022846,1.0,-2.0,0.0,0.0,-1.0,-2.0,-1.0,-2.0
1701798882.7022846,-1.0,-1.0,-1.0,-1.0,1.0,1.0,-3.0,0.0
1701798882.7022846,-1.0,-2.0,0.0,-1.0,0.0,-1.0,-2.0,1.0
1701798882.7022846,-2.0,1.0,-1.0,-3.0,1.0,-3.0,0.0,-1.0
1701798882.732042,-1.0,-1.0,-2.0,-1.0,0.0,-2.0,-2.0,-1.0
1701798882.732042,1.0,-2.0,-1.0,-1.0,-1.0,0.0,0.0,-1.0
1701798882.732042,-1.0,-2.0,-2.0,-1.0,-2.0,0.0,0.0,-2.0
1701798882.732042,-2.0,-1.0,0.0,-1.0,-2.0,0.0,1.0,-1.0
1701798882.77203,-1.0,-2.0,0.0,-2.0,-2.0,0.0,-1.0,0.0
1701798882.77203,-1.0,-1.0,-1.0,-1.0,1.0,-1.0,0.0,-1.0
1701798882.77203,-2.0,0.0,-3.0,0.0,0.0,-1.0,-2.0,-1.0
1701798882.77203,0.0,-2.0,-1.0,0.0,-2.0,-2.0,-2.0,-1.0
1701798882.77203,-2.0,1.0,-2.0,-2.0,0.0,-2.0,0.0,-1.0
1701798882.77203,-1.0,-2.0,-1.0,-1.0,-2.0,-3.0,-2.0,-1.0
1701798882.77203,0.0,0.0,-1.0,-1.0,-1.0,-1.0,-1.0,-2.0
1701798882.77203,-2.0,-2.0,-2.0,-1.0,-2.0,-1.0,-1.0,-2.0
1701798882.782346,0.0,0.0,1.0,1.0,-1.0,0.0,-1.0,1.0
1701798882.782346,0.0,-1.0,-2.0,0.0,-3.0,1.0,-3.0,-2.0
1701798882.792032,-1.0,-1.0,-2.0,-2.0,0.0,-2.0,1.0,1.0
1701798882.792032,-1.0,0.0,-2.0,-1.0,0.0,-2.0,-2.0,0.0
1701798882.802029,0.0,-1.0,-2.0,-1.0,-2.0,0.0,-1.0,-2.0
1701798882.802029,-2.0,-1.0,0.0,-1.0,-1.0,-1.0,1.0,-1.0
1701798882.802029,0.0,-2.0,-2.0,-2.0,-3.0,0.0,-2.0,-1.0
1701798882.802029,0.0,-4.0,0.0,-3.0,-2.0,-1.0,0.0,0.0
1701798882.8223972,-1.0,-1.0,1.0,-1.0,-1.0,-2.0,-1.0,0.0
1701798882.8223972,0.0,0.0,-1.0,0.0,0.0,-2.0,-1.0,0.0
1701798882.8223972,-1.0,0.0,0.0,0.0,0.0,-2.0,-1.0,0.0
1701798882.8223972,0.0,-2.0,-2.0,0.0,1.0,-1.0,0.0,-1.0
1701798882.8421445,-2.0,-3.0,-1.0,-3.0,-1.0,-2.0,-3.0,-1.0
1701798882.8421445,-2.0,-1.0,0.0,-1.0,-1.0,-1.0,0.0,-3.0
1701798882.8421445,0.0,-1.0,0.0,0.0,0.0,0.0,-3.0,-1.0
1701798882.8421445,-1.0,1.0,0.0,-1.0,1.0,1.0,-2.0,-2.0
1701798882.8623006,-1.0,0.0,0.0,0.0,2.0,1.0,0.0,-1.0
1701798882.8623006,0.0,-1.0,1.0,-4.0,-1.0,-2.0,-1.0,-1.0
1701798882.8623006,-1.0,-1.0,1.0,-3.0,-1.0,-2.0,-2.0,-1.0
1701798882.8623006,0.0,0.0,1.0,1.0,0.0,-1.0,-1.0,-2.0
1701798882.8825748,-2.0,-1.0,-1.0,-2.0,0.0,-2.0,-2.0,-2.0
1701798882.8825748,0.0,0.0,-1.0,0.0,1.0,-1.0,-1.0,-1.0
1701798882.8825748,0.0,-1.0,-3.0,-1.0,-1.0,0.0,1.0,0.0
1701798882.8825748,-1.0,-1.0,-3.0,1.0,-4.0,-1.0,-1.0,-1.0
1701798882.9223201,-1.0,-1.0,-5.0,-1.0,-2.0,-1.0,-2.0,1.0
1701798882.9223201,-1.0,0.0,-4.0,0.0,-1.0,-1.0,-1.0,0.0
1701798882.9223201,0.0,-1.0,-4.0,0.0,-1.0,0.0,-1.0,1.0
1701798882.9223201,-1.0,0.0,-4.0,-1.0,0.0,1.0,-1.0,-1.0
1701798882.9223201,-1.0,1.0,-3.0,1.0,-1.0,1.0,-1.0,0.0
1701798882.9223201,-2.0,-1.0,-2.0,-1.0,-1.0,-1.0,0.0,-1.0
1701798882.9223201,-1.0,-1.0,1.0,-2.0,-2.0,-2.0,-1.0,-2.0
1701798882.9223201,-1.0,-1.0,1.0,-1.0,-1.0,-1.0,-3.0,0.0
1701798882.9425547,0.0,-1.0,-1.0,-1.0,-2.0,-1.0,0.0,-1.0
1701798882.9425547,-1.0,-2.0,-1.0,-1.0,0.0,-2.0,-3.0,-2.0
1701798882.9425547,-1.0,-3.0,1.0,-1.0,-1.0,-1.0,-1.0,-1.0
1701798882.9425547,-2.0,-1.0,-1.0,-3.0,-2.0,-1.0,-2.0,-1.0
1701798882.9724412,-2.0,-2.0,-1.0,-3.0,-3.0,-4.0,0.0,-2.0
1701798882.9724412,-1.0,-1.0,0.0,-1.0,-1.0,-1.0,0.0,-2.0
1701798882.9724412,-1.0,0.0,-1.0,0.0,-1.0,-2.0,-1.0,-1.0
1701798882.9724412,-1.0,-2.0,0.0,-2.0,-1.0,-1.0,-1.0,-1.0
1701798882.9826553,-1.0,-2.0,-1.0,-1.0,0.0,-2.0,-1.0,-3.0
1701798882.9826553,-2.0,-3.0,-1.0,0.0,-1.0,0.0,0.0,-1.0
1701798882.9826553,0.0,0.0,0.0,0.0,-1.0,-3.0,-1.0,-1.0
1701798882.9826553,-1.0,0.0,0.0,0.0,-2.0,0.0,-1.0,0.0
1701798883.00265,-1.0,-2.0,1.0,-1.0,-1.0,-1.0,-1.0,-1.0
1701798883.00265,-1.0,-1.0,-2.0,1.0,-1.0,0.0,-2.0,-1.0
1701798883.00265,-1.0,-3.0,-1.0,0.0,0.0,-1.0,-2.0,0.0
1701798883.00265,-2.0,-1.0,-2.0,0.0,0.0,-3.0,1.0,-1.0
1701798883.0423882,-2.0,-2.0,-1.0,-1.0,-1.0,-1.0,0.0,-1.0
1701798883.0423882,0.0,-1.0,0.0,0.0,-2.0,-1.0,-1.0,-2.0
1701798883.0423882,-2.0,-1.0,-1.0,0.0,-2.0,0.0,-2.0,-1.0
1701798883.0423882,-1.0,-2.0,-1.0,-1.0,-1.0,-2.0,-3.0,-1.0
1701798883.0523882,-1.0,-2.0,-2.0,-2.0,-1.0,0.0,-1.0,0.0
1701798883.0523882,-1.0,0.0,0.0,-3.0,-2.0,0.0,0.0,0.0
1701798883.0523882,0.0,-1.0,-1.0,-2.0,-1.0,-1.0,1.0,-1.0
1701798883.0523882,-1.0,-2.0,-1.0,0.0,0.0,-2.0,-1.0,-1.0
1701798883.0723882,-2.0,1.0,0.0,-1.0,1.0,-3.0,-2.0,-1.0
1701798883.0723882,0.0,-1.0,0.0,-1.0,-2.0,0.0,-2.0,0.0
1701798883.0723882,-2.0,0.0,-1.0,0.0,-2.0,-1.0,0.0,-1.0
1701798883.0723882,-1.0,-1.0,1.0,-1.0,-1.0,-1.0,-2.0,-1.0
1701798883.0927012,-1.0,-1.0,-1.0,1.0,-2.0,0.0,0.0,0.0
1701798883.0927012,1.0,0.0,0.0,-1.0,0.0,-1.0,1.0,1.0
1701798883.0927012,0.0,-1.0,-1.0,1.0,2.0,0.0,0.0,1.0
1701798883.0927012,-1.0,-1.0,-1.0,-2.0,-1.0,0.0,-1.0,1.0
1701798883.102937,1.0,-1.0,-1.0,1.0,0.0,-1.0,0.0,-1.0
1701798883.102937,0.0,1.0,-2.0,-2.0,0.0,-2.0,-1.0,-3.0
1701798883.102937,-1.0,-1.0,0.0,-1.0,-1.0,-1.0,-1.0,-2.0
1701798883.102937,0.0,-1.0,0.0,-2.0,-1.0,-1.0,0.0,-2.0
1701798883.1526976,-2.0,-2.0,-1.0,0.0,0.0,1.0,-1.0,0.0
1701798883.1526976,-2.0,-2.0,-1.0,-3.0,0.0,-2.0,0.0,0.0
1701798883.1526976,-1.0,-1.0,-2.0,-1.0,0.0,-2.0,0.0,-1.0
1701798883.1526976,-2.0,0.0,-1.0,-1.0,-2.0,-2.0,0.0,-2.0
1701798883.1526976,0.0,0.0,1.0,1.0,-2.0,0.0,-3.0,-1.0
1701798883.1526976,-1.0,-1.0,0.0,1.0,-2.0,-1.0,-1.0,0.0
1701798883.1526976,0.0,-1.0,0.0,-2.0,-1.0,-1.0,-1.0,-2.0
1701798883.1526976,-1.0,-1.0,0.0,-3.0,-3.0,-1.0,-1.0,-1.0
1701798883.1629467,-2.0,-1.0,-2.0,-2.0,-1.0,-1.0,0.0,-3.0
1701798883.1629467,0.0,-2.0,-1.0,-3.0,1.0,-1.0,-1.0,1.0
1701798883.1629467,0.0,-1.0,-2.0,-1.0,-1.0,-2.0,-1.0,-1.0
1701798883.1629467,-1.0,-3.0,0.0,-1.0,-2.0,0.0,-1.0,1.0
