1701799336.651644,-6.0,-7.0,3.0,-1.0,1.0,-1.0,1.0,4.0
1701799336.6526444,11.0,11.0,-9.0,-2.0,-1.0,-1.0,-1.0,-5.0
1701799336.6526444,-11.0,-16.0,-6.0,2.0,-2.0,-5.0,-10.0,-6.0
1701799336.6526444,-1.0,3.0,10.0,-2.0,-5.0,-3.0,-12.0,0.0
1701799336.6566122,0.0,-5.0,-9.0,1.0,4.0,4.0,19.0,7.0
1701799336.6566122,-14.0,2.0,-1.0,2.0,-1.0,-2.0,-2.0,-10.0
1701799336.6566122,1.0,2.0,-10.0,-3.0,-2.0,4.0,6.0,4.0
1701799336.6566122,-7.0,12.0,20.0,-4.0,-4.0,-3.0,-4.0,-7.0
1701799336.6576138,-1.0,-18.0,-22.0,-4.0,1.0,-4.0,-10.0,-1.0
1701799336.6598203,0.0,6.0,7.0,9.0,1.0,-1.0,0.0,-1.0
1701799336.668897,6.0,-4.0,-1.0,-9.0,-3.0,-1.0,0.0,0.0
1701799336.668897,-17.0,-5.0,-4.0,10.0,5.0,4.0,0.0,-1.0
1701799336.7096155,2.0,16.0,11.0,3.0,-4.0,-1.0,0.0,1.0
1701799336.7096155,-3.0,-12.0,-3.0,-7.0,-1.0,-2.0,1.0,1.0
1701799336.7096155,-5.0,4.0,-4.0,-4.0,0.0,1.0,-3.0,-5.0
1701799336.7096155,0.0,-5.0,-8.0,2.0,-4.0,-2.0,5.0,10.0
1701799336.7096155,-3.0,2.0,5.0,1.0,2.0,1.0,0.0,-2.0
1701799336.7096155,8.0,10.0,-18.0,2.0,0.0,-1.0,-2.0,5.0
1701799336.7096155,-5.0,1.0,6.0,-2.0,-2.0,-3.0,-10.0,-6.0
1701799336.7096155,2.0,-12.0,2.0,3.0,0.0,1.0,-1.0,-5.0
1701799336.7223225,-4.0,6.0,-12.0,-6.0,-3.0,3.0,-4.0,5.0
1701799336.7223225,0.0,-7.0,1.0,-5.0,-4.0,0.0,12.0,-4.0
1701799336.7295146,-5.0,3.0,1.0,1.0,1.0,-1.0,1.0,3.0
1701799336.7295146,1.0,4.0,-3.0,-8.0,-2.0,-5.0,-6.0,-8.0
1701799336.772179,8.0,-3.0,3.0,10.0,0.0,-4.0,-19.0,-5.0
1701799336.772179,-6.0,6.0,-3.0,0.0,0.0,1.0,8.0,2.0
1701799336.773229,-16.0,-7.0,0.0,-5.0,-1.0,0.0,9.0,1.0
1701799336.773229,12.0,7.0,10.0,0.0,0.0,-2.0,2.0,2.0
1701799336.773229,-4.0,-6.0,-6.0,0.0,-1.0,-1.0,-4.0,-6.0
1701799336.773229,4.0,-2.0,3.0,-5.0,-5.0,-3.0,-9.0,-4.0
1701799336.773229,-6.0,-6.0,5.0,3.0,1.0,-1.0,2.0,0.0
1701799336.773229,0.0,-3.0,-5.0,-3.0,-1.0,-1.0,1.0,2.0
1701799336.8272362,3.0,11.0,16.0,3.0,-1.0,-1.0,1.0,-2.0
1701799336.8272362,-2.0,-8.0,-25.0,-10.0,-6.0,-3.0,-3.0,0.0
1701799336.8272362,0.0,5.0,23.0,8.0,1.0,-3.0,-4.0,-2.0
1701799336.8272362,-3.0,-13.0,18.0,3.0,-4.0,-2.0,0.0,1.0
1701799336.8309772,-10.0,-19.0,-41.0,-6.0,-2.0,-2.0,-3.0,-6.0
1701799336.8309772,1.0,0.0,8.0,-2.0,1.0,1.0,-3.0,-1.0
1701799336.8309772,8.0,18.0,-8.0,-5.0,-4.0,2.0,2.0,3.0
1701799336.8309772,-7.0,-8.0,5.0,-3.0,1.0,0.0,2.0,-4.0
1701799336.8309772,-5.0,-6.0,0.0,-6.0,-3.0,-5.0,2.0,-1.0
1701799336.8309772,4.0,-5.0,9.0,-4.0,-8.0,-3.0,-6.0,1.0
1701799336.8309772,0.0,-5.0,5.0,3.0,3.0,1.0,-1.0,-1.0
1701799336.8309772,1.0,5.0,-13.0,-1.0,0.0,1.0,2.0,0.0
1701799336.865466,-3.0,5.0,3.0,-2.0,-3.0,-1.0,-1.0,0.0
1701799336.865466,1.0,-1.0,-2.0,-6.0,1.0,0.0,-3.0,2.0
1701799336.865466,0.0,11.0,1.0,3.0,-5.0,-5.0,-3.0,-2.0
1701799336.865466,-7.0,-12.0,6.0,17.0,-1.0,-4.0,-4.0,-5.0
1701799336.865466,5.0,11.0,30.0,3.0,0.0,-3.0,2.0,0.0
1701799336.865466,-2.0,-5.0,-38.0,-2.0,1.0,0.0,0.0,1.0
1701799336.8674846,1.0,6.0,1.0,-17.0,-8.0,-1.0,1.0,-2.0
1701799336.8674846,12.0,-2.0,-9.0,-16.0,6.0,3.0,2.0,3.0
1701799336.8776221,-22.0,-9.0,-15.0,19.0,7.0,-4.0,-5.0,-7.0
1701799336.8776221,0.0,12.0,13.0,4.0,-3.0,-5.0,-5.0,-3.0
1701799336.887024,0.0,11.0,-3.0,-6.0,-3.0,2.0,1.0,3.0
1701799336.887024,4.0,-39.0,-18.0,-3.0,-9.0,-4.0,-2.0,-3.0
1701799336.9445307,10.0,-2.0,6.0,-4.0,4.0,0.0,-1.0,2.0
1701799336.9445307,-4.0,-2.0,5.0,-5.0,-3.0,-2.0,-3.0,-2.0
1701799336.9445307,2.0,-3.0,-10.0,7.0,3.0,0.0,-2.0,-5.0
1701799336.9445307,-10.0,22.0,9.0,-6.0,-2.0,2.0,4.0,-4.0
1701799336.9510398,0.0,-6.0,-11.0,-8.0,1.0,-2.0,-3.0,0.0
1701799336.9510398,-2.0,2.0,5.0,5.0,1.0,-3.0,-5.0,-2.0
1701799336.9520912,10.0,-4.0,-1.0,-1.0,1.0,2.0,10.0,3.0
1701799336.9520912,-11.0,-10.0,-7.0,3.0,1.0,-2.0,-2.0,-1.0
1701799336.9520912,3.0,-2.0,0.0,-8.0,-8.0,-3.0,-12.0,-12.0
1701799336.9520912,-7.0,7.0,13.0,3.0,4.0,3.0,21.0,12.0
1701799336.9520912,9.0,-22.0,-14.0,-1.0,1.0,-2.0,-2.0,-1.0
1701799336.9520912,6.0,9.0,-11.0,-3.0,-4.0,0.0,-1.0,-1.0
1701799337.0094364,5.0,22.0,-5.0,-3.0,-4.0,-2.0,1.0,1.0
1701799337.0094364,-7.0,-21.0,16.0,-1.0,-2.0,-5.0,-14.0,-8.0
1701799337.0097833,-5.0,-13.0,-15.0,-4.0,-4.0,-3.0,-11.0,-4.0
1701799337.0097833,3.0,2.0,-8.0,-2.0,-1.0,-2.0,8.0,1.0
1701799337.0130403,-11.0,7.0,9.0,-3.0,-2.0,4.0,9.0,3.0
1701799337.0130403,5.0,3.0,-5.0,-8.0,-4.0,-4.0,-2.0,-3.0
1701799337.0130403,-4.0,-13.0,-1.0,12.0,13.0,4.0,0.0,1.0
1701799337.0130403,-2.0,1.0,3.0,-10.0,-4.0,-2.0,-8.0,-4.0
1701799337.0130403,-6.0,0.0,-3.0,-3.0,-1.0,-1.0,0.0,3.0
1701799337.0130403,5.0,4.0,-3.0,8.0,-7.0,3.0,1.0,0.0
1701799337.021188,-7.0,-3.0,12.0,-4.0,1.0,-5.0,-2.0,-3.0
1701799337.021188,1.0,13.0,7.0,5.0,-2.0,-4.0,-3.0,1.0
1701799337.0562367,0.0,-23.0,-4.0,-6.0,-13.0,-1.0,4.0,1.0
1701799337.0562367,2.0,0.0,-4.0,-10.0,3.0,0.0,-1.0,-2.0
1701799337.0562367,-3.0,-11.0,2.0,3.0,-11.0,-4.0,-4.0,-3.0
1701799337.0562367,3.0,14.0,8.0,4.0,17.0,8.0,0.0,1.0
1701799337.063398,-2.0,-3.0,-6.0,-31.0,-32.0,-18.0,-7.0,-4.0
1701799337.063398,1.0,-7.0,4.0,25.0,43.0,18.0,2.0,-1.0
1701799337.063398,-2.0,14.0,7.0,6.0,-18.0,-7.0,-1.0,0.0
1701799337.063398,-1.0,2.0,-14.0,8.0,13.0,2.0,1.0,-1.0
1701799337.065091,-3.0,-7.0,-4.0,9.0,-7.0,-6.0,-4.0,-4.0
1701799337.065091,1.0,11.0,-19.0,-36.0,-21.0,-9.0,-4.0,-1.0
1701799337.0746803,0.0,-2.0,-1.0,-5.0,5.0,3.0,4.0,1.0
1701799337.0760868,-7.0,-13.0,-14.0,-7.0,-13.0,-4.0,-5.0,-2.0
1701799337.1016412,5.0,-7.0,-13.0,2.0,14.0,2.0,-3.0,1.0
1701799337.1016412,0.0,10.0,-3.0,-24.0,-31.0,-14.0,-2.0,0.0
1701799337.1016412,0.0,9.0,26.0,29.0,34.0,19.0,8.0,4.0
1701799337.1016412,-11.0,-29.0,1.0,-1.0,-7.0,-9.0,-6.0,-4.0
1701799337.1016412,4.0,8.0,6.0,11.0,-4.0,0.0,2.0,0.0
1701799337.1016412,-1.0,9.0,-22.0,3.0,25.0,9.0,2.0,-1.0
1701799337.1037614,-5.0,-7.0,-13.0,-19.0,-29.0,-18.0,-7.0,-3.0
1701799337.1120937,4.0,13.0,10.0,-7.0,-3.0,3.0,2.0,0.0
1701799337.1634774,0.0,-7.0,6.0,-1.0,-4.0,0.0,1.0,1.0
1701799337.1634774,1.0,-3.0,36.0,21.0,6.0,0.0,-1.0,0.0
1701799337.1645281,0.0,22.0,3.0,16.0,4.0,-2.0,-2.0,0.0
1701799337.1645281,-7.0,-3.0,-6.0,-23.0,-12.0,-5.0,-2.0,-1.0
1701799337.1645281,5.0,-12.0,-31.0,11.0,10.0,1.0,-1.0,0.0
1701799337.1645281,4.0,12.0,1.0,-3.0,-19.0,-5.0,-2.0,-1.0
1701799337.1645281,-9.0,-20.0,3.0,-1.0,10.0,0.0,-5.0,-4.0
1701799337.1645281,4.0,13.0,30.0,16.0,4.0,0.0,2.0,1.0
1701799337.1645281,5.0,24.0,-38.0,-14.0,-2.0,3.0,3.0,3.0
1701799337.1645281,-3.0,-20.0,23.0,-7.0,-3.0,-2.0,-1.0,-4.0
1701799337.1645281,2.0,11.0,-1.0,-5.0,-10.0,-5.0,-1.0,-2.0
1701799337.1645281,1.0,8.0,15.0,18.0,21.0,7.0,2.0,2.0
1701799337.1849084,5.0,20.0,-8.0,16.0,16.0,7.0,4.0,3.0
1701799337.1849084,-21.0,-61.0,-22.0,33.0,0.0,-6.0,-6.0,-7.0
1701799337.2017577,-3.0,-13.0,1.0,-31.0,-13.0,-5.0,-3.0,-2.0
1701799337.2017577,0.0,1.0,-8.0,-9.0,-11.0,-6.0,-4.0,-1.0
1701799337.2342138,8.0,40.0,38.0,4.0,6.0,5.0,3.0,4.0
1701799337.2342138,13.0,30.0,89.0,10.0,16.0,8.0,4.0,6.0
1701799337.2342138,-13.0,-24.0,33.0,6.0,-20.0,-7.0,-5.0,-5.0
1701799337.2342138,-8.0,-41.0,-86.0,-8.0,3.0,-3.0,-3.0,-3.0
1701799337.2342138,0.0,0.0,-12.0,-4.0,1.0,-2.0,-3.0,-2.0
1701799337.2342138,7.0,22.0,30.0,-6.0,-14.0,-3.0,2.0,3.0
1701799337.2342138,6.0,42.0,38.0,35.0,18.0,7.0,2.0,3.0
1701799337.2342138,-2.0,-21.0,-91.0,-8.0,6.0,5.0,2.0,-2.0
1701799337.272495,-7.0,-24.0,-8.0,-25.0,-9.0,-2.0,0.0,-2.0
1701799337.272495,-3.0,-17.0,-58.0,-6.0,-3.0,-3.0,-7.0,-6.0
1701799337.272495,-3.0,-10.0,-12.0,-24.0,-4.0,0.0,0.0,-1.0
1701799337.272495,0.0,25.0,58.0,7.0,-8.0,-3.0,-1.0,-1.0
1701799337.272495,2.0,-2.0,25.0,19.0,9.0,3.0,3.0,2.0
1701799337.272495,0.0,20.0,-6.0,-4.0,-8.0,-3.0,-2.0,-1.0
1701799337.272495,-13.0,-71.0,-78.0,-26.0,-6.0,-9.0,-7.0,-5.0
1701799337.272495,-2.0,4.0,22.0,-1.0,-2.0,-2.0,-1.0,0.0
1701799337.28074,7.0,12.0,56.0,-2.0,-8.0,-4.0,-3.0,-1.0
1701799337.2822046,-15.0,2.0,-50.0,-7.0,2.0,-2.0,-2.0,-4.0
1701799337.2842398,17.0,37.0,72.0,31.0,12.0,8.0,6.0,4.0
1701799337.2842398,-10.0,-34.0,-97.0,-32.0,-24.0,-12.0,-9.0,-5.0
1701799337.328308,-15.0,-19.0,-2.0,-8.0,0.0,-1.0,-2.0,-6.0
1701799337.328308,9.0,1.0,-9.0,-1.0,2.0,1.0,1.0,0.0
1701799337.328308,-4.0,2.0,-27.0,-5.0,1.0,1.0,1.0,-2.0
1701799337.328308,10.0,12.0,78.0,16.0,0.0,2.0,2.0,4.0
1701799337.328308,-8.0,2.0,-8.0,-3.0,-3.0,-3.0,-11.0,-5.0
1701799337.328308,6.0,-9.0,1.0,11.0,4.0,-3.0,6.0,9.0
1701799337.3293078,-22.0,-9.0,-19.0,-20.0,-9.0,0.0,-4.0,-16.0
1701799337.3293078,18.0,22.0,40.0,7.0,5.0,5.0,8.0,6.0
1701799337.341362,16.0,-3.0,-21.0,11.0,3.0,0.0,4.0,2.0
1701799337.341362,-42.0,-9.0,20.0,-1.0,-3.0,-4.0,-7.0,-8.0
1701799337.3445299,36.0,3.0,9.0,-2.0,2.0,0.0,0.0,10.0
1701799337.3445299,-37.0,-6.0,-42.0,-9.0,-6.0,-3.0,-10.0,-15.0
1701799337.3848588,-1.0,9.0,-2.0,2.0,0.0,0.0,0.0,12.0
1701799337.3848588,-13.0,-8.0,21.0,-4.0,-3.0,3.0,1.0,-5.0
1701799337.3848588,17.0,2.0,0.0,14.0,2.0,4.0,9.0,21.0
1701799337.3848588,-9.0,-10.0,-39.0,-27.0,-12.0,-10.0,-13.0,-22.0
1701799337.3862994,-5.0,-4.0,5.0,4.0,2.0,3.0,-4.0,-18.0
1701799337.3862994,4.0,-2.0,-4.0,-7.0,-4.0,-3.0,5.0,28.0
1701799337.389499,7.0,6.0,19.0,7.0,1.0,2.0,-2.0,-9.0
1701799337.389499,-17.0,11.0,2.0,2.0,-2.0,-3.0,3.0,19.0
1701799337.4032,-1.0,-14.0,-5.0,-8.0,-9.0,-9.0,-22.0,-11.0
1701799337.4032,12.0,2.0,-10.0,-1.0,0.0,2.0,1.0,-2.0
1701799337.4363112,-11.0,16.0,-12.0,-4.0,1.0,5.0,26.0,-2.0
1701799337.4363112,46.0,-9.0,23.0,11.0,5.0,4.0,7.0,7.0
1701799337.4363112,-23.0,-11.0,5.0,-5.0,0.0,0.0,7.0,1.0
1701799337.4363112,-6.0,-9.0,-13.0,-3.0,-3.0,-10.0,-30.0,-15.0
1701799337.4363112,2.0,2.0,-20.0,-10.0,-5.0,-7.0,-12.0,-3.0
1701799337.4363112,-7.0,4.0,38.0,20.0,5.0,7.0,12.0,-12.0
1701799337.4559083,-7.0,-1.0,29.0,1.0,-4.0,-5.0,-19.0,2.0
1701799337.4559083,51.0,-2.0,-88.0,-15.0,-7.0,-1.0,18.0,18.0
1701799337.4569085,-13.0,11.0,-18.0,-5.0,5.0,5.0,6.0,6.0
1701799337.4569085,-10.0,4.0,9.0,3.0,0.0,6.0,24.0,16.0
1701799337.4588246,11.0,-23.0,0.0,-10.0,-7.0,-3.0,0.0,-16.0
1701799337.4588246,-21.0,-10.0,21.0,9.0,2.0,-2.0,-19.0,-26.0
1701799337.4689293,-5.0,9.0,2.0,0.0,-3.0,-8.0,-17.0,-7.0
1701799337.4689293,14.0,4.0,-10.0,-2.0,-1.0,-3.0,-7.0,1.0
1701799337.5027537,-17.0,-1.0,1.0,4.0,3.0,2.0,-1.0,3.0
1701799337.5027537,17.0,11.0,12.0,-3.0,-4.0,-1.0,3.0,1.0
1701799337.5027537,8.0,-13.0,-19.0,-7.0,-7.0,-4.0,0.0,7.0
1701799337.5027537,0.0,19.0,18.0,0.0,1.0,0.0,-1.0,11.0
1701799337.5037563,-13.0,-16.0,-19.0,-1.0,3.0,3.0,3.0,-35.0
1701799337.5037563,-35.0,-39.0,10.0,-1.0,0.0,-3.0,-1.0,-20.0
1701799337.5094998,-23.0,-5.0,-16.0,-9.0,0.0,0.0,-20.0,-13.0
1701799337.5094998,2.0,-5.0,10.0,8.0,-3.0,-11.0,-26.0,-1.0
1701799337.5516393,30.0,26.0,3.0,0.0,1.0,7.0,47.0,33.0
1701799337.5516393,11.0,6.0,-6.0,-2.0,2.0,9.0,14.0,7.0
1701799337.5516393,-21.0,-5.0,0.0,-6.0,-1.0,-2.0,0.0,-8.0
1701799337.5516393,7.0,-4.0,-10.0,-7.0,-2.0,-3.0,-9.0,-7.0
1701799337.5516393,12.0,2.0,3.0,12.0,3.0,-5.0,-12.0,7.0
1701799337.5516393,-3.0,4.0,4.0,-6.0,-3.0,-2.0,-4.0,-4.0
1701799337.5516393,5.0,5.0,18.0,4.0,0.0,0.0,4.0,8.0
1701799337.5516393,-2.0,-4.0,9.0,2.0,-3.0,-4.0,-5.0,-8.0
1701799337.5630043,2.0,-16.0,-19.0,-13.0,-1.0,-2.0,2.0,12.0
1701799337.5630043,-13.0,5.0,-1.0,-2.0,-2.0,1.0,-2.0,-4.0
1701799337.5694995,4.0,6.0,12.0,14.0,3.0,-2.0,-11.0,-14.0
1701799337.5694995,-3.0,-4.0,-5.0,-11.0,0.0,2.0,12.0,12.0
1701799337.609736,-19.0,4.0,23.0,3.0,-3.0,-5.0,-10.0,-2.0
1701799337.609736,-4.0,-5.0,-25.0,-9.0,-5.0,-2.0,-4.0,-4.0
1701799337.609736,3.0,-7.0,-10.0,-4.0,-2.0,-1.0,11.0,8.0
1701799337.609736,3.0,2.0,15.0,-2.0,0.0,-1.0,-2.0,-6.0
1701799337.6122026,-1.0,3.0,13.0,9.0,-3.0,-3.0,-9.0,-3.0
1701799337.6122026,8.0,10.0,12.0,5.0,3.0,-5.0,-17.0,-4.0
1701799337.6122026,-9.0,-16.0,-43.0,-22.0,-7.0,-2.0,-4.0,-1.0
1701799337.6122026,-1.0,-9.0,-14.0,-3.0,-2.0,5.0,33.0,4.0
1701799337.6519132,4.0,11.0,13.0,1.0,1.0,-3.0,-2.0,7.0
1701799337.6519132,-13.0,5.0,14.0,1.0,-3.0,-5.0,-6.0,-11.0
1701799337.6519132,4.0,-1.0,-23.0,4.0,-2.0,-2.0,-6.0,0.0
1701799337.6519132,-5.0,-1.0,5.0,-2.0,-1.0,-4.0,-9.0,0.0
1701799337.6519132,-2.0,-6.0,-10.0,-7.0,-1.0,2.0,1.0,-6.0
1701799337.6529129,9.0,13.0,57.0,20.0,10.0,7.0,8.0,10.0
1701799337.6529129,-12.0,-31.0,-70.0,-19.0,-19.0,-10.0,-6.0,-6.0
1701799337.6529129,-12.0,-3.0,-13.0,-1.0,-2.0,-1.0,-9.0,-7.0
1701799337.6641934,-3.0,-3.0,-5.0,4.0,-1.0,0.0,0.0,-3.0
1701799337.665382,2.0,6.0,10.0,1.0,2.0,1.0,3.0,5.0
1701799337.6672907,2.0,12.0,35.0,4.0,7.0,6.0,5.0,0.0
1701799337.6672907,6.0,1.0,6.0,-1.0,0.0,-4.0,-8.0,-5.0
1701799337.6940033,-4.0,0.0,-9.0,-3.0,0.0,2.0,6.0,0.0
1701799337.6950064,-5.0,-7.0,-9.0,-10.0,-8.0,0.0,2.0,1.0
1701799337.7153993,11.0,9.0,15.0,6.0,4.0,-1.0,0.0,1.0
1701799337.7153993,-5.0,-5.0,-4.0,1.0,-3.0,-5.0,-5.0,-2.0
1701799337.7232215,0.0,-1.0,-6.0,-4.0,1.0,0.0,1.0,1.0
1701799337.7232215,8.0,14.0,-14.0,-5.0,-3.0,-3.0,0.0,-3.0
1701799337.7232215,0.0,-23.0,44.0,5.0,0.0,0.0,-1.0,-3.0
1701799337.7232215,0.0,11.0,-36.0,3.0,2.0,2.0,-5.0,0.0
1701799337.7242885,2.0,-10.0,15.0,-3.0,-5.0,-2.0,-1.0,-4.0
1701799337.7242885,5.0,-12.0,-29.0,-4.0,-1.0,-2.0,3.0,2.0
1701799337.7348368,-4.0,5.0,34.0,7.0,1.0,-2.0,-10.0,-7.0
1701799337.7348368,6.0,-2.0,11.0,-3.0,-1.0,2.0,7.0,-3.0
1701799337.790001,7.0,4.0,-14.0,-2.0,0.0,1.0,2.0,6.0
1701799337.790001,1.0,-2.0,-5.0,-7.0,-8.0,-4.0,1.0,5.0
1701799337.790001,-1.0,3.0,13.0,7.0,10.0,1.0,0.0,-4.0
1701799337.790001,0.0,8.0,20.0,0.0,1.0,-1.0,-4.0,-9.0
1701799337.7940001,-4.0,6.0,-10.0,-1.0,-3.0,-3.0,-3.0,-2.0
1701799337.7940001,4.0,10.0,-2.0,0.0,-4.0,-2.0,-3.0,3.0
1701799337.799231,-4.0,-23.0,-20.0,-6.0,-3.0,-5.0,-2.0,-1.0
1701799337.799231,-2.0,-5.0,14.0,-4.0,-4.0,-2.0,-5.0,-2.0
1701799337.8015978,6.0,6.0,1.0,0.0,1.0,-1.0,-1.0,-1.0
1701799337.8015978,-23.0,12.0,10.0,4.0,2.0,1.0,-4.0,-10.0
1701799337.8015978,0.0,9.0,-7.0,1.0,-2.0,0.0,4.0,7.0
1701799337.8015978,-4.0,-2.0,-6.0,-3.0,-3.0,-1.0,-2.0,-1.0
1701799337.8201942,3.0,-2.0,2.0,-14.0,-17.0,-4.0,-1.0,0.0
1701799337.8201942,2.0,-8.0,-5.0,17.0,14.0,3.0,2.0,-2.0
1701799337.8211927,-2.0,0.0,-9.0,4.0,-4.0,-2.0,-1.0,-4.0
1701799337.8212705,-1.0,2.0,8.0,8.0,11.0,4.0,-1.0,4.0
1701799337.8223064,-9.0,-3.0,-11.0,-5.0,4.0,-1.0,-2.0,-4.0
1701799337.8223064,4.0,-5.0,1.0,-8.0,-10.0,-1.0,0.0,0.0
1701799337.8326702,-4.0,1.0,-3.0,-7.0,-5.0,-4.0,1.0,2.0
1701799337.832996,0.0,2.0,1.0,2.0,-2.0,-3.0,-2.0,-2.0
1701799337.8452022,1.0,0.0,-8.0,0.0,-3.0,-1.0,-4.0,-1.0
1701799337.8452022,1.0,1.0,-4.0,-6.0,-2.0,0.0,-1.0,-2.0
1701799337.885679,3.0,-4.0,23.0,5.0,2.0,1.0,-1.0,4.0
1701799337.885679,-11.0,-10.0,-3.0,-3.0,-2.0,0.0,-4.0,-3.0
1701799337.885679,8.0,-6.0,-8.0,1.0,2.0,-5.0,-10.0,-8.0
1701799337.885679,-10.0,-1.0,4.0,1.0,0.0,-2.0,-4.0,0.0
1701799337.885679,-2.0,13.0,-12.0,-6.0,-6.0,-1.0,-6.0,0.0
1701799337.885679,2.0,-2.0,-4.0,-6.0,0.0,6.0,25.0,5.0
1701799337.8866825,-8.0,0.0,15.0,8.0,-1.0,9.0,37.0,-3.0
1701799337.8866825,-1.0,-8.0,2.0,3.0,-1.0,-1.0,2.0,4.0
1701799337.892409,-9.0,1.0,-28.0,-14.0,0.0,-3.0,-2.0,-1.0
1701799337.892409,-4.0,-10.0,5.0,-3.0,-6.0,-7.0,-23.0,-8.0
1701799337.9037302,-5.0,-3.0,-22.0,-8.0,3.0,-5.0,-13.0,-8.0
1701799337.9037302,10.0,1.0,10.0,1.0,-6.0,-4.0,-5.0,-1.0
1701799337.9547935,0.0,3.0,7.0,8.0,4.0,4.0,2.0,-1.0
1701799337.9547935,1.0,24.0,12.0,-1.0,-8.0,-1.0,3.0,6.0
1701799337.9577684,-2.0,-36.0,-10.0,0.0,6.0,1.0,-5.0,-1.0
1701799337.9577684,1.0,-5.0,-18.0,-1.0,-1.0,-3.0,-5.0,-2.0
1701799337.9577684,-1.0,27.0,10.0,3.0,-3.0,-2.0,0.0,1.0
1701799337.9577684,3.0,-22.0,-37.0,-3.0,-2.0,-1.0,-2.0,-1.0
1701799337.9577684,-2.0,14.0,13.0,-8.0,0.0,-2.0,-3.0,5.0
1701799337.958768,-3.0,15.0,-1.0,-5.0,-3.0,-1.0,-7.0,9.0
1701799337.958768,3.0,-6.0,-20.0,4.0,-2.0,0.0,7.0,-8.0
1701799337.958768,3.0,-29.0,1.0,7.0,3.0,2.0,3.0,-3.0
1701799337.958768,-16.0,15.0,34.0,-8.0,-8.0,-6.0,-8.0,-1.0
1701799337.958768,-3.0,-3.0,-31.0,-2.0,1.0,-1.0,2.0,-4.0
1701799338.0123727,20.0,29.0,13.0,-3.0,1.0,2.0,2.0,10.0
1701799338.0123727,-18.0,-22.0,-12.0,0.0,-3.0,-6.0,-7.0,-14.0
1701799338.0123727,9.0,-12.0,0.0,10.0,1.0,-1.0,-3.0,4.0
1701799338.0123727,1.0,4.0,8.0,-10.0,-8.0,-2.0,3.0,3.0
1701799338.0123727,-4.0,-1.0,11.0,6.0,1.0,0.0,-2.0,-2.0
1701799338.0123727,-2.0,7.0,-9.0,-5.0,1.0,-1.0,-3.0,5.0
1701799338.0123727,-4.0,-11.0,-15.0,-9.0,-13.0,-5.0,0.0,3.0
1701799338.0123727,6.0,15.0,13.0,16.0,27.0,8.0,4.0,0.0
1701799338.0123727,-9.0,-36.0,-10.0,-5.0,-8.0,-5.0,-9.0,-17.0
1701799338.0123727,-6.0,1.0,2.0,-5.0,-8.0,-5.0,7.0,8.0
1701799338.0760643,0.0,1.0,-14.0,-2.0,1.0,2.0,0.0,-2.0
1701799338.0760643,-5.0,7.0,17.0,-1.0,-11.0,-4.0,3.0,1.0
1701799338.0760643,-2.0,-6.0,-21.0,-9.0,0.0,-2.0,-8.0,-7.0
1701799338.0770638,1.0,5.0,10.0,2.0,0.0,-2.0,-16.0,-3.0
1701799338.0832715,8.0,-3.0,4.0,0.0,-2.0,5.0,16.0,6.0
1701799338.0832715,-12.0,-2.0,-8.0,-7.0,-4.0,-5.0,-2.0,-7.0
1701799338.0832715,-7.0,7.0,1.0,2.0,1.0,-2.0,-3.0,2.0
1701799338.0832715,1.0,-21.0,4.0,2.0,-2.0,-3.0,-5.0,-9.0
1701799338.0832715,2.0,9.0,-5.0,7.0,5.0,2.0,-17.0,4.0
1701799338.0832715,-10.0,-9.0,1.0,-3.0,1.0,7.0,26.0,2.0
1701799338.1011894,12.0,1.0,-4.0,-5.0,-6.0,-7.0,-12.0,-13.0
1701799338.1023533,2.0,24.0,4.0,-1.0,2.0,2.0,13.0,5.0
1701799338.1230278,-4.0,-2.0,-3.0,-3.0,1.0,0.0,-11.0,4.0
1701799338.1230278,13.0,-19.0,0.0,-3.0,-5.0,-7.0,-18.0,-5.0
1701799338.1230278,-14.0,1.0,-3.0,-4.0,1.0,2.0,20.0,7.0
1701799338.1230278,7.0,13.0,26.0,7.0,4.0,0.0,3.0,-1.0
1701799338.1230278,-7.0,-18.0,-46.0,-8.0,0.0,-5.0,-5.0,-10.0
1701799338.1230278,-6.0,4.0,17.0,5.0,-5.0,-2.0,-8.0,1.0
1701799338.1230278,4.0,-6.0,-17.0,2.0,-1.0,-5.0,-8.0,0.0
1701799338.1230278,-2.0,10.0,-7.0,-11.0,0.0,3.0,-2.0,-1.0
1701799338.1240568,-1.0,4.0,6.0,10.0,6.0,3.0,6.0,0.0
1701799338.1240568,5.0,-7.0,6.0,1.0,1.0,-3.0,-6.0,-1.0
1701799338.140133,-9.0,1.0,0.0,-3.0,1.0,1.0,2.0,3.0
1701799338.141309,15.0,-19.0,-32.0,-9.0,-9.0,-2.0,2.0,1.0
1701799338.171189,-7.0,-16.0,-1.0,-6.0,4.0,0.0,-3.0,-6.0
1701799338.171189,-3.0,-7.0,-13.0,-3.0,-2.0,-3.0,-5.0,-7.0
1701799338.1721876,3.0,10.0,6.0,-4.0,-1.0,2.0,4.0,3.0
1701799338.1721876,2.0,3.0,18.0,-2.0,-7.0,-3.0,-1.0,5.0
1701799338.1721876,-8.0,-4.0,-3.0,0.0,1.0,-1.0,-5.0,-9.0
1701799338.1721876,3.0,2.0,-4.0,-10.0,2.0,3.0,1.0,0.0
1701799338.1721876,-3.0,-6.0,12.0,7.0,1.0,1.0,1.0,2.0
1701799338.1721876,8.0,18.0,0.0,-8.0,-8.0,-6.0,-8.0,-2.0
1701799338.1826618,-11.0,4.0,19.0,13.0,-2.0,-5.0,-1.0,-9.0
1701799338.1826618,-1.0,-14.0,-13.0,-13.0,2.0,0.0,4.0,2.0
1701799338.196718,-2.0,-16.0,-17.0,-20.0,-5.0,-1.0,-3.0,3.0
1701799338.1977177,-17.0,3.0,7.0,18.0,-1.0,-2.0,-7.0,-6.0
1701799338.2094252,1.0,13.0,11.0,25.0,0.0,-1.0,1.0,4.0
1701799338.2094252,-2.0,0.0,4.0,6.0,-6.0,-3.0,-2.0,-6.0
1701799338.2114456,7.0,-5.0,-3.0,-11.0,-7.0,1.0,0.0,3.0
1701799338.2114456,-3.0,-9.0,-5.0,-10.0,6.0,2.0,-1.0,0.0
1701799338.2266276,2.0,4.0,2.0,-8.0,-9.0,0.0,0.0,0.0
1701799338.2266276,3.0,8.0,-3.0,5.0,0.0,-2.0,-1.0,5.0
1701799338.2295172,-1.0,9.0,-1.0,-15.0,-11.0,-5.0,1.0,4.0
1701799338.2295172,2.0,2.0,-1.0,23.0,30.0,9.0,5.0,-1.0
1701799338.2801871,-4.0,-9.0,7.0,5.0,-4.0,-4.0,-2.0,0.0
1701799338.2801871,0.0,-1.0,0.0,-20.0,-7.0,-3.0,-7.0,-14.0
1701799338.2801871,-1.0,7.0,10.0,9.0,0.0,-2.0,-3.0,4.0
1701799338.2801871,1.0,8.0,-3.0,-9.0,-2.0,3.0,8.0,7.0
1701799338.2801871,1.0,-20.0,-11.0,-1.0,1.0,2.0,15.0,1.0
1701799338.2801871,-3.0,0.0,-2.0,3.0,-2.0,1.0,1.0,-1.0
1701799338.2801871,-5.0,1.0,-1.0,3.0,5.0,-2.0,0.0,-4.0
1701799338.2801871,-4.0,-14.0,-4.0,5.0,-7.0,-4.0,-9.0,-5.0
1701799338.281191,9.0,28.0,41.0,-5.0,0.0,0.0,-5.0,0.0
1701799338.281191,-10.0,-19.0,-54.0,-26.0,-32.0,-14.0,-6.0,-4.0
1701799338.2898438,4.0,2.0,-2.0,23.0,25.0,5.0,1.0,-3.0
1701799338.2898438,-3.0,10.0,6.0,6.0,3.0,-3.0,-3.0,-1.0
1701799338.3473327,-1.0,-12.0,6.0,-16.0,-3.0,-1.0,-1.0,1.0
1701799338.3473327,1.0,1.0,16.0,2.0,-8.0,-1.0,1.0,3.0
1701799338.3473327,-4.0,-4.0,-4.0,14.0,3.0,2.0,-4.0,-4.0
1701799338.3473327,1.0,-1.0,-7.0,-8.0,-4.0,-2.0,-2.0,-2.0
1701799338.3473327,-1.0,10.0,-20.0,-11.0,-2.0,-1.0,0.0,-4.0
1701799338.3483317,1.0,-16.0,6.0,6.0,2.0,0.0,-1.0,-5.0
1701799338.3483317,-8.0,-18.0,-3.0,-4.0,-3.0,1.0,1.0,1.0
1701799338.3483317,1.0,16.0,14.0,-5.0,-4.0,-2.0,-3.0,-1.0
1701799338.3483317,-2.0,9.0,1.0,-10.0,-8.0,-4.0,0.0,-1.0
1701799338.3483317,2.0,2.0,-14.0,23.0,15.0,3.0,-1.0,1.0
1701799338.3497226,-1.0,-20.0,-1.0,-2.0,8.0,5.0,1.0,-3.0
1701799338.3497226,-5.0,0.0,9.0,9.0,-3.0,-2.0,0.0,-1.0
1701799338.4071207,-6.0,5.0,-2.0,19.0,21.0,4.0,-4.0,-1.0
1701799338.4071207,-1.0,7.0,-15.0,-7.0,0.0,1.0,0.0,1.0
1701799338.4071207,0.0,6.0,6.0,-10.0,-11.0,-6.0,-4.0,-2.0
1701799338.4071207,-4.0,-3.0,-8.0,-11.0,-9.0,-1.0,1.0,2.0
1701799338.4071207,2.0,-7.0,-20.0,-15.0,-8.0,2.0,6.0,0.0
1701799338.4071207,4.0,23.0,43.0,13.0,5.0,1.0,1.0,3.0
1701799338.4071207,7.0,-25.0,-25.0,-1.0,-4.0,-3.0,-3.0,-4.0
1701799338.4071207,-6.0,32.0,49.0,10.0,-3.0,-4.0,-10.0,-8.0
1701799338.420814,-4.0,-29.0,-68.0,-29.0,-11.0,-7.0,-9.0,-2.0
1701799338.420814,6.0,-1.0,1.0,-4.0,4.0,-2.0,-23.0,-2.0
1701799338.4504006,-5.0,9.0,36.0,8.0,-6.0,4.0,32.0,8.0
1701799338.4504006,8.0,-10.0,2.0,2.0,4.0,10.0,32.0,7.0
1701799338.4602008,-8.0,-6.0,-32.0,2.0,-1.0,-7.0,-9.0,-5.0
1701799338.4602008,-8.0,8.0,4.0,-5.0,2.0,-1.0,-10.0,-3.0
1701799338.4602008,3.0,1.0,12.0,4.0,-7.0,-2.0,-13.0,1.0
1701799338.4602008,1.0,8.0,14.0,6.0,3.0,-6.0,-20.0,-5.0
1701799338.4602008,10.0,14.0,30.0,3.0,0.0,-1.0,-6.0,0.0
1701799338.4602008,-6.0,-5.0,-15.0,-2.0,-1.0,7.0,28.0,3.0
1701799338.4602008,0.0,32.0,20.0,8.0,0.0,-5.0,-15.0,-5.0
1701799338.4602008,-12.0,-75.0,-34.0,-12.0,-4.0,-4.0,-8.0,-5.0
1701799338.4913912,3.0,5.0,-3.0,-4.0,-7.0,-5.0,-20.0,-5.0
1701799338.4913912,-4.0,-6.0,-2.0,3.0,5.0,4.0,24.0,2.0
1701799338.4913912,-9.0,3.0,-14.0,-5.0,2.0,1.0,3.0,1.0
1701799338.4913912,9.0,11.0,-14.0,-14.0,-1.0,-2.0,2.0,-2.0
1701799338.4913912,2.0,-10.0,30.0,8.0,-5.0,-5.0,-10.0,-9.0
1701799338.4913912,6.0,10.0,30.0,9.0,2.0,2.0,-2.0,-1.0
1701799338.4913912,-5.0,-10.0,2.0,-4.0,-1.0,2.0,5.0,-1.0
1701799338.4924355,-12.0,10.0,-32.0,-16.0,-1.0,-4.0,-15.0,-6.0
1701799338.5052953,-4.0,3.0,30.0,19.0,4.0,2.0,5.0,1.0
1701799338.5052953,-7.0,-2.0,-11.0,-3.0,1.0,0.0,-2.0,3.0
1701799338.513933,27.0,-4.0,-25.0,-16.0,-10.0,-2.0,1.0,1.0
1701799338.513933,2.0,-1.0,11.0,0.0,-7.0,-1.0,1.0,1.0
1701799338.540127,-1.0,10.0,-2.0,-7.0,10.0,8.0,14.0,2.0
1701799338.540127,6.0,-7.0,-11.0,-8.0,-6.0,-4.0,-5.0,-2.0
1701799338.5625918,-8.0,-1.0,3.0,5.0,-1.0,-7.0,-16.0,-5.0
1701799338.5625918,-9.0,-6.0,0.0,7.0,-3.0,-2.0,0.0,-1.0
1701799338.5674374,2.0,4.0,2.0,-5.0,-1.0,0.0,9.0,3.0
1701799338.5674374,-2.0,-13.0,-14.0,-3.0,-2.0,-1.0,0.0,3.0
1701799338.5698225,1.0,0.0,0.0,-7.0,-3.0,-2.0,-2.0,1.0
1701799338.5698225,3.0,7.0,-6.0,-8.0,-4.0,2.0,13.0,6.0
1701799338.5698225,-6.0,-7.0,-9.0,4.0,4.0,-1.0,-9.0,-4.0
1701799338.5698225,-1.0,4.0,9.0,-2.0,-8.0,-5.0,-9.0,-4.0
1701799338.5729072,-4.0,-2.0,0.0,2.0,5.0,1.0,-3.0,-1.0
1701799338.5729072,2.0,1.0,-4.0,0.0,-2.0,-4.0,-7.0,-4.0
1701799338.6004822,-10.0,2.0,-4.0,-2.0,-5.0,1.0,2.0,-13.0
1701799338.6004822,-5.0,-16.0,-2.0,-1.0,0.0,-1.0,-6.0,-5.0
1701799338.6004822,-5.0,-4.0,-3.0,-8.0,-3.0,-1.0,1.0,-5.0
1701799338.6004822,4.0,3.0,-15.0,-3.0,-4.0,-3.0,-14.0,2.0
1701799338.6107154,-9.0,10.0,7.0,8.0,0.0,1.0,6.0,13.0
1701799338.6117108,15.0,2.0,6.0,-2.0,-2.0,-4.0,-3.0,-2.0
1701799338.6127174,-1.0,-7.0,-15.0,-1.0,0.0,-2.0,-2.0,-3.0
1701799338.6137152,-4.0,-2.0,4.0,-1.0,5.0,4.0,24.0,6.0
1701799338.633756,4.0,2.0,1.0,-3.0,-5.0,-2.0,0.0,5.0
1701799338.633756,-17.0,6.0,-3.0,2.0,2.0,-4.0,-5.0,-11.0
1701799338.6353047,0.0,-18.0,1.0,0.0,-2.0,-4.0,-13.0,-8.0
1701799338.6353047,3.0,-2.0,-5.0,0.0,4.0,3.0,4.0,19.0
1701799338.6828933,3.0,-1.0,8.0,0.0,-3.0,6.0,21.0,4.0
1701799338.6828933,-6.0,-20.0,-27.0,-21.0,-14.0,-9.0,-9.0,-1.0
1701799338.6828933,0.0,13.0,-3.0,-13.0,-15.0,-8.0,-9.0,-9.0
1701799338.6828933,-5.0,2.0,39.0,26.0,24.0,6.0,-2.0,-10.0
1701799338.6828933,-5.0,-7.0,-17.0,-2.0,-3.0,-5.0,-9.0,-1.0
1701799338.6828933,4.0,8.0,11.0,7.0,6.0,2.0,-1.0,1.0
1701799338.6828933,3.0,16.0,-9.0,-6.0,-9.0,0.0,5.0,0.0
1701799338.6828933,-4.0,-12.0,-14.0,-9.0,-13.0,-4.0,-4.0,-1.0
1701799338.707459,8.0,15.0,11.0,5.0,2.0,0.0,0.0,3.0
1701799338.707459,-2.0,-19.0,11.0,5.0,0.0,0.0,-1.0,-5.0
1701799338.707459,-4.0,1.0,18.0,-4.0,1.0,1.0,0.0,4.0
1701799338.707459,-4.0,3.0,-27.0,-5.0,-11.0,-5.0,-4.0,-3.0
1701799338.707459,8.0,-1.0,-5.0,9.0,15.0,3.0,-4.0,-7.0
1701799338.707459,6.0,10.0,-14.0,-15.0,-9.0,0.0,3.0,3.0
1701799338.7139506,-8.0,-22.0,-13.0,-6.0,11.0,3.0,4.0,4.0
1701799338.7139506,-2.0,10.0,7.0,2.0,-7.0,-6.0,-7.0,-9.0
1701799338.729465,-2.0,9.0,9.0,15.0,6.0,-1.0,-1.0,-3.0
1701799338.7316577,0.0,7.0,17.0,9.0,0.0,3.0,1.0,10.0
1701799338.7327685,-5.0,-7.0,5.0,5.0,3.0,1.0,-1.0,-3.0
1701799338.7327685,5.0,4.0,-16.0,-27.0,-20.0,-3.0,-1.0,-7.0
1701799338.7988443,-5.0,-29.0,6.0,-8.0,-5.0,-6.0,-5.0,-2.0
1701799338.7988443,-2.0,11.0,-31.0,19.0,19.0,8.0,-1.0,-1.0
1701799338.7988443,2.0,5.0,-9.0,-7.0,-10.0,-1.0,-1.0,2.0
1701799338.7988443,-3.0,-5.0,14.0,10.0,3.0,0.0,0.0,-1.0
1701799338.7988443,0.0,12.0,14.0,-10.0,-12.0,-5.0,-4.0,-3.0
1701799338.7988443,0.0,-20.0,-1.0,-8.0,-6.0,-1.0,0.0,0.0
1701799338.7988443,0.0,1.0,-2.0,-1.0,-5.0,-3.0,2.0,1.0
1701799338.7988443,1.0,1.0,-11.0,-8.0,6.0,1.0,-2.0,-5.0
1701799338.7988443,1.0,-2.0,-10.0,-5.0,-5.0,-2.0,-4.0,-2.0
1701799338.7988443,2.0,3.0,9.0,0.0,0.0,-2.0,-3.0,-4.0
1701799338.7988443,-7.0,3.0,-5.0,8.0,5.0,2.0,4.0,-3.0
1701799338.799844,0.0,2.0,11.0,-4.0,-5.0,0.0,0.0,-1.0
1701799338.818941,2.0,3.0,-9.0,-7.0,0.0,0.0,-9.0,-8.0
1701799338.8215265,-11.0,-15.0,-7.0,0.0,6.0,-7.0,-20.0,-8.0
1701799338.8505862,7.0,9.0,10.0,6.0,-5.0,-2.0,13.0,9.0
1701799338.850947,-5.0,-14.0,-3.0,6.0,5.0,2.0,-10.0,-1.0
1701799338.8580923,-4.0,2.0,-11.0,-10.0,-12.0,2.0,48.0,16.0
1701799338.8580923,-6.0,-8.0,4.0,-5.0,-6.0,0.0,0.0,-5.0
1701799338.8580923,3.0,8.0,-2.0,-3.0,2.0,-3.0,-7.0,-6.0
1701799338.8580923,7.0,-3.0,3.0,3.0,1.0,-6.0,-8.0,-6.0
1701799338.8580923,-7.0,-2.0,11.0,-2.0,-5.0,-7.0,-20.0,-7.0
1701799338.8580923,-2.0,-15.0,-38.0,-5.0,-4.0,0.0,5.0,5.0
1701799338.8580923,-9.0,-5.0,2.0,-1.0,0.0,0.0,-2.0,-2.0
1701799338.8580923,3.0,-3.0,-14.0,-3.0,1.0,0.0,-2.0,1.0
1701799338.8702223,3.0,4.0,5.0,0.0,-3.0,-3.0,-8.0,-4.0
1701799338.8702223,-2.0,9.0,-2.0,4.0,0.0,-1.0,7.0,1.0
1701799338.876556,2.0,-5.0,5.0,10.0,8.0,2.0,-4.0,0.0
1701799338.876963,-4.0,-8.0,-9.0,-12.0,-9.0,-5.0,-1.0,-4.0
1701799338.9222786,-1.0,-3.0,-10.0,-8.0,-3.0,0.0,-1.0,0.0
1701799338.9222786,0.0,5.0,28.0,8.0,-1.0,-1.0,1.0,-3.0
1701799338.9222786,0.0,-6.0,-10.0,4.0,3.0,0.0,-4.0,-2.0
1701799338.9232774,-2.0,2.0,4.0,3.0,3.0,0.0,5.0,0.0
1701799338.926753,1.0,-5.0,-3.0,-5.0,-1.0,2.0,-3.0,-1.0
1701799338.926753,0.0,-6.0,14.0,-2.0,-5.0,-2.0,-3.0,-5.0
1701799338.927753,1.0,13.0,4.0,0.0,-1.0,0.0,0.0,3.0
1701799338.927753,-3.0,-8.0,19.0,-7.0,-5.0,-2.0,0.0,1.0
1701799338.9403915,-6.0,-19.0,-32.0,5.0,-3.0,-5.0,-6.0,-3.0
1701799338.9403915,3.0,24.0,28.0,-2.0,6.0,-2.0,1.0,-3.0
1701799338.9413917,0.0,6.0,4.0,24.0,33.0,8.0,5.0,2.0
1701799338.9413917,-3.0,2.0,-11.0,16.0,2.0,-1.0,-1.0,-2.0
1701799338.947034,0.0,2.0,-3.0,-12.0,1.0,2.0,-4.0,-1.0
1701799338.947034,0.0,0.0,0.0,-4.0,-8.0,-2.0,0.0,2.0
1701799338.9547317,0.0,0.0,-3.0,-20.0,-13.0,-4.0,-4.0,-4.0
1701799338.9547317,-2.0,3.0,-5.0,-1.0,5.0,3.0,2.0,0.0
1701799338.9658885,3.0,8.0,27.0,2.0,-11.0,-5.0,-4.0,-1.0
1701799338.9658885,-1.0,-10.0,-40.0,-11.0,3.0,0.0,2.0,0.0
1701799338.9891267,-10.0,-26.0,-19.0,-13.0,-11.0,-7.0,-5.0,-3.0
1701799338.9905627,2.0,5.0,12.0,39.0,25.0,6.0,3.0,1.0
1701799339.0172217,-7.0,-1.0,-1.0,6.0,3.0,-1.0,1.0,-1.0
1701799339.0172217,1.0,1.0,29.0,-24.0,-23.0,-6.0,-1.0,1.0
1701799339.0172217,-3.0,-12.0,-46.0,-22.0,-23.0,-5.0,-1.0,-3.0
1701799339.0172217,-1.0,4.0,-6.0,7.0,23.0,4.0,-1.0,0.0
1701799339.0172217,1.0,-2.0,-3.0,-10.0,-30.0,-8.0,-2.0,0.0
1701799339.0172217,3.0,9.0,26.0,53.0,49.0,12.0,-2.0,1.0
1701799339.0172217,-5.0,-5.0,13.0,-11.0,-34.0,-17.0,-12.0,-5.0
1701799339.0172217,-3.0,1.0,-19.0,-30.0,-11.0,4.0,18.0,7.0
1701799339.0301962,2.0,0.0,16.0,20.0,16.0,7.0,5.0,2.0
1701799339.0301962,-2.0,-2.0,-1.0,-21.0,-24.0,-7.0,0.0,0.0
1701799339.0382092,4.0,17.0,-10.0,-12.0,11.0,1.0,-5.0,-4.0
1701799339.0382092,-5.0,-11.0,16.0,10.0,-4.0,-6.0,-10.0,-4.0
1701799339.064212,3.0,-1.0,-8.0,-19.0,-1.0,-4.0,-3.0,-4.0
1701799339.064212,-11.0,-28.0,-10.0,-26.0,-30.0,-10.0,-8.0,-6.0
1701799339.064212,3.0,16.0,22.0,58.0,57.0,17.0,9.0,6.0
1701799339.064212,2.0,30.0,51.0,16.0,1.0,-6.0,-6.0,-6.0
1701799339.0679917,0.0,-3.0,-39.0,-9.0,2.0,0.0,0.0,0.0
1701799339.0679917,9.0,-9.0,7.0,7.0,2.0,2.0,2.0,3.0
1701799339.0723827,-13.0,5.0,-46.0,-33.0,-16.0,-6.0,-6.0,-4.0
1701799339.0723827,-7.0,-16.0,-28.0,-23.0,-14.0,-5.0,-1.0,-1.0
1701799339.1157002,-2.0,-26.0,55.0,28.0,14.0,-1.0,-6.0,-1.0
1701799339.1157002,6.0,28.0,0.0,13.0,13.0,7.0,4.0,4.0
1701799339.1157002,0.0,-13.0,-1.0,5.0,-4.0,-2.0,0.0,-1.0
1701799339.1157002,-5.0,-15.0,28.0,-4.0,-13.0,-7.0,-6.0,-5.0
1701799339.1157002,4.0,39.0,-20.0,-3.0,6.0,1.0,-2.0,-1.0
1701799339.1157002,0.0,-13.0,14.0,12.0,-3.0,-2.0,-3.0,-2.0
1701799339.1178718,0.0,-5.0,-30.0,-17.0,-2.0,1.0,0.0,1.0
1701799339.1178718,3.0,5.0,-12.0,-11.0,-5.0,1.0,-3.0,3.0
1701799339.1274548,-1.0,4.0,-11.0,-4.0,0.0,1.0,7.0,3.0
1701799339.1274548,-2.0,10.0,-15.0,-1.0,-6.0,-4.0,-1.0,0.0
1701799339.1869893,10.0,6.0,34.0,19.0,2.0,1.0,2.0,3.0
1701799339.1869893,-6.0,7.0,-56.0,-21.0,-10.0,-6.0,-10.0,-7.0
1701799339.1869893,-6.0,-25.0,-3.0,-3.0,-3.0,-4.0,-7.0,-2.0
1701799339.1869893,-4.0,-12.0,-17.0,-7.0,5.0,1.0,-1.0,-2.0
1701799339.1869893,-2.0,-7.0,20.0,8.0,-6.0,-3.0,-2.0,0.0
1701799339.1869893,3.0,-7.0,-4.0,2.0,1.0,3.0,3.0,2.0
1701799339.1869893,13.0,19.0,33.0,-6.0,-7.0,-4.0,0.0,1.0
1701799339.188045,-20.0,-7.0,-5.0,-3.0,3.0,0.0,3.0,0.0
1701799339.188045,-6.0,5.0,10.0,-5.0,-8.0,-5.0,-5.0,-5.0
1701799339.188045,-2.0,-9.0,7.0,-1.0,1.0,0.0,4.0,3.0
1701799339.1933644,-6.0,-1.0,-26.0,-7.0,0.0,-1.0,-7.0,-10.0
1701799339.194042,11.0,5.0,9.0,3.0,5.0,-1.0,-2.0,2.0
1701799339.1963046,-4.0,-2.0,20.0,-2.0,0.0,3.0,7.0,3.0
1701799339.1963046,4.0,1.0,-20.0,-1.0,-2.0,-2.0,-2.0,-4.0
1701799339.2436967,-5.0,-7.0,-28.0,-12.0,0.0,-1.0,1.0,5.0
1701799339.2436967,1.0,-8.0,5.0,12.0,-1.0,-5.0,-4.0,-9.0
1701799339.2436967,-2.0,-6.0,-28.0,-24.0,-4.0,-3.0,0.0,3.0
1701799339.2436967,13.0,-15.0,20.0,13.0,1.0,2.0,5.0,2.0
1701799339.2436967,-4.0,-2.0,-30.0,-10.0,-2.0,-1.0,-9.0,-11.0
1701799339.2436967,-8.0,-2.0,-4.0,2.0,-3.0,-2.0,-9.0,-4.0
1701799339.2436967,3.0,13.0,9.0,-1.0,-1.0,3.0,19.0,8.0
1701799339.2436967,1.0,-4.0,5.0,-9.0,-2.0,-1.0,5.0,2.0
1701799339.2447019,0.0,-9.0,6.0,18.0,6.0,2.0,0.0,2.0
1701799339.2447019,21.0,21.0,22.0,-6.0,-6.0,-1.0,3.0,6.0
1701799339.2565699,-25.0,-12.0,5.0,3.0,-1.0,-4.0,-27.0,-28.0
1701799339.2565699,-17.0,1.0,-4.0,-11.0,-5.0,-4.0,-3.0,4.0
1701799339.3143878,-4.0,-7.0,26.0,14.0,5.0,1.0,16.0,1.0
1701799339.3143878,-6.0,-21.0,-46.0,-28.0,-5.0,-1.0,-2.0,2.0
1701799339.3143878,21.0,9.0,22.0,9.0,2.0,0.0,-1.0,5.0
1701799339.3143878,-3.0,3.0,3.0,41.0,3.0,1.0,-1.0,-5.0
1701799339.3143878,0.0,4.0,32.0,-19.0,-8.0,-2.0,-7.0,-2.0
1701799339.3143878,-3.0,-1.0,-15.0,-26.0,4.0,-2.0,2.0,5.0
1701799339.3143878,5.0,10.0,16.0,1.0,-13.0,-7.0,-5.0,1.0
1701799339.3143878,-11.0,-6.0,-2.0,-6.0,0.0,-4.0,-9.0,-16.0
1701799339.3528733,-2.0,-19.0,19.0,22.0,1.0,5.0,6.0,6.0
1701799339.3528733,-3.0,8.0,-17.0,-10.0,-5.0,-3.0,-2.0,-8.0
1701799339.3528733,1.0,-4.0,13.0,-1.0,4.0,-1.0,-3.0,5.0
1701799339.3528733,8.0,13.0,13.0,2.0,0.0,-1.0,3.0,20.0
1701799339.3528733,0.0,7.0,-15.0,-3.0,0.0,-2.0,-6.0,-17.0
1701799339.3528733,-19.0,5.0,18.0,-3.0,-3.0,-1.0,-8.0,-17.0
1701799339.3528733,7.0,-9.0,-4.0,8.0,5.0,-2.0,5.0,1.0
1701799339.3528733,-1.0,-5.0,13.0,-5.0,-3.0,-2.0,8.0,8.0
1701799339.3528733,-22.0,-6.0,-12.0,-10.0,-2.0,0.0,-17.0,-6.0
1701799339.3528733,-14.0,10.0,5.0,2.0,-4.0,-2.0,9.0,-1.0
1701799339.355082,37.0,20.0,15.0,10.0,2.0,8.0,17.0,5.0
1701799339.355082,7.0,11.0,-1.0,-7.0,-2.0,-2.0,-4.0,-5.0
1701799339.3669987,0.0,-16.0,-20.0,-7.0,0.0,0.0,0.0,4.0
1701799339.3669987,2.0,0.0,-1.0,11.0,1.0,-1.0,-10.0,-1.0
1701799339.408475,-7.0,6.0,-9.0,-7.0,-3.0,-3.0,-6.0,-5.0
1701799339.408475,-1.0,4.0,7.0,1.0,2.0,2.0,2.0,0.0
1701799339.408475,7.0,-9.0,-39.0,-2.0,0.0,-6.0,-21.0,-7.0
1701799339.408475,-8.0,-14.0,5.0,4.0,-1.0,-2.0,2.0,3.0
1701799339.408475,-7.0,-1.0,5.0,-3.0,-3.0,2.0,12.0,7.0
1701799339.408475,3.0,4.0,28.0,2.0,-3.0,1.0,-6.0,-1.0
1701799339.410641,-8.0,-4.0,-34.0,-4.0,2.0,0.0,13.0,-1.0
1701799339.410641,8.0,4.0,-11.0,-12.0,-5.0,-1.0,-2.0,4.0
1701799339.4153,-14.0,-16.0,-11.0,-2.0,-2.0,-6.0,-8.0,-6.0
1701799339.4153,-1.0,1.0,2.0,6.0,-3.0,-2.0,-9.0,-8.0
1701799339.4739263,7.0,29.0,12.0,0.0,4.0,-1.0,-2.0,3.0
1701799339.4739263,3.0,-26.0,-36.0,-2.0,-3.0,-1.0,-6.0,-7.0
1701799339.4739263,1.0,-25.0,-44.0,-17.0,-5.0,-3.0,-1.0,4.0
1701799339.4739263,-23.0,-1.0,22.0,-1.0,-2.0,0.0,1.0,-5.0
1701799339.4739263,-4.0,-11.0,8.0,-1.0,-6.0,-1.0,5.0,3.0
1701799339.4739263,3.0,7.0,10.0,11.0,8.0,2.0,5.0,4.0
1701799339.4739263,-1.0,7.0,27.0,-1.0,3.0,0.0,-6.0,-9.0
1701799339.4739263,4.0,-11.0,-15.0,18.0,-1.0,-1.0,-2.0,-1.0
1701799339.4739263,-2.0,-1.0,-10.0,-26.0,-7.0,-4.0,5.0,5.0
1701799339.4748824,6.0,19.0,53.0,31.0,2.0,-1.0,-1.0,-5.0
1701799339.4748824,-6.0,-7.0,-40.0,-2.0,1.0,3.0,0.0,0.0
1701799339.4758806,-4.0,-4.0,-42.0,-38.0,-10.0,-6.0,-2.0,-5.0
1701799339.5288334,-2.0,-12.0,-17.0,-8.0,-6.0,-4.0,-5.0,-4.0
1701799339.5288334,6.0,0.0,13.0,0.0,3.0,3.0,4.0,9.0
1701799339.5288334,5.0,-2.0,36.0,11.0,7.0,-3.0,-3.0,1.0
1701799339.5288334,-7.0,4.0,-33.0,1.0,0.0,0.0,0.0,-7.0
1701799339.5288334,1.0,14.0,23.0,6.0,-2.0,-3.0,-4.0,-3.0
1701799339.5288334,1.0,-7.0,-3.0,-10.0,-5.0,-3.0,0.0,1.0
1701799339.5316126,-10.0,-12.0,-41.0,1.0,-4.0,0.0,-3.0,-4.0
1701799339.5316126,9.0,12.0,4.0,-4.0,3.0,2.0,2.0,4.0
1701799339.5606518,0.0,-4.0,34.0,7.0,3.0,1.0,4.0,2.0
1701799339.5606518,-5.0,-3.0,-4.0,-5.0,-3.0,-1.0,3.0,-1.0
1701799339.5606518,-5.0,0.0,23.0,3.0,-2.0,-8.0,-7.0,0.0
1701799339.5606518,2.0,-12.0,-19.0,-13.0,-1.0,0.0,-1.0,0.0
1701799339.563953,5.0,12.0,48.0,23.0,-2.0,0.0,0.0,2.0
1701799339.563953,-9.0,7.0,-32.0,5.0,5.0,2.0,-1.0,-3.0
1701799339.563953,-3.0,0.0,-14.0,-31.0,-8.0,0.0,-3.0,-1.0
1701799339.563953,3.0,-8.0,-1.0,1.0,4.0,3.0,4.0,1.0
1701799339.5649552,3.0,5.0,6.0,17.0,9.0,0.0,2.0,0.0
1701799339.5649552,3.0,10.0,19.0,2.0,1.0,-1.0,-2.0,-3.0
1701799339.572637,-5.0,3.0,50.0,15.0,0.0,-3.0,-4.0,-4.0
1701799339.572637,2.0,10.0,-54.0,-9.0,3.0,-1.0,-3.0,-1.0
1701799339.6391017,-2.0,-15.0,-19.0,-13.0,-10.0,0.0,2.0,1.0
1701799339.6391017,4.0,21.0,22.0,3.0,0.0,1.0,-3.0,1.0
1701799339.6401124,-5.0,1.0,13.0,5.0,8.0,5.0,1.0,-4.0
1701799339.6401124,1.0,-18.0,18.0,-2.0,-7.0,-4.0,-2.0,1.0
1701799339.6401124,0.0,0.0,5.0,20.0,9.0,1.0,0.0,0.0
1701799339.6401124,0.0,6.0,-12.0,-25.0,-6.0,0.0,-1.0,0.0
1701799339.6445448,-1.0,9.0,0.0,-2.0,-6.0,-2.0,-1.0,-1.0
1701799339.6455443,-5.0,-2.0,-7.0,-6.0,-3.0,-2.0,-3.0,-2.0
1701799339.648622,0.0,4.0,5.0,-3.0,3.0,2.0,-2.0,-1.0
1701799339.648622,-2.0,-8.0,-9.0,-6.0,-14.0,-5.0,-2.0,-2.0
1701799339.648622,-1.0,-8.0,-26.0,-2.0,-1.0,1.0,0.0,1.0
1701799339.648622,3.0,4.0,20.0,10.0,7.0,2.0,-2.0,-2.0
1701799339.677731,-1.0,-10.0,-36.0,5.0,1.0,-1.0,-1.0,-1.0
1701799339.677731,-2.0,-5.0,-7.0,-1.0,-2.0,-2.0,-1.0,0.0
1701799339.677731,-1.0,-13.0,-14.0,6.0,1.0,-1.0,-1.0,-4.0
1701799339.677731,-2.0,-17.0,-19.0,-14.0,-9.0,-2.0,1.0,0.0
1701799339.6787755,-2.0,14.0,6.0,-31.0,-14.0,-3.0,-2.0,-2.0
1701799339.6787755,-1.0,21.0,15.0,12.0,3.0,-2.0,0.0,-3.0
1701799339.6803825,-3.0,-39.0,-4.0,0.0,-6.0,0.0,-1.0,-1.0
1701799339.6803825,-5.0,5.0,13.0,15.0,10.0,-1.0,-2.0,-3.0
1701799339.6887255,1.0,5.0,8.0,10.0,2.0,1.0,3.0,0.0
1701799339.6887255,0.0,-2.0,1.0,-4.0,-2.0,0.0,-1.0,-1.0
1701799339.6975,7.0,29.0,24.0,-1.0,0.0,2.0,2.0,1.0
1701799339.6975,-5.0,-27.0,-61.0,-13.0,-6.0,1.0,-1.0,-3.0
1701799339.7530453,-2.0,-8.0,7.0,-1.0,2.0,-3.0,-2.0,-1.0
1701799339.7530453,-2.0,-7.0,-16.0,-1.0,-1.0,-2.0,-2.0,1.0
1701799339.7530453,5.0,12.0,4.0,0.0,3.0,-2.0,1.0,0.0
1701799339.7530453,-1.0,-5.0,18.0,-3.0,-6.0,-1.0,-2.0,1.0
1701799339.7530453,-2.0,-13.0,-35.0,-11.0,-5.0,-4.0,-1.0,-2.0
1701799339.7530453,1.0,-13.0,-23.0,4.0,-1.0,1.0,2.0,3.0
1701799339.7530453,-2.0,5.0,3.0,-5.0,4.0,1.0,-3.0,-4.0
1701799339.7530453,0.0,13.0,24.0,8.0,2.0,-2.0,-1.0,-3.0
1701799339.7530453,-5.0,-24.0,-24.0,-14.0,-13.0,-5.0,-4.0,-2.0
1701799339.7530453,3.0,-3.0,7.0,2.0,2.0,-1.0,-5.0,-3.0
1701799339.7776256,-7.0,0.0,-19.0,-2.0,-2.0,-2.0,2.0,7.0
1701799339.7776256,5.0,10.0,5.0,-1.0,0.0,6.0,16.0,3.0
1701799339.7776256,4.0,20.0,5.0,-11.0,-5.0,-2.0,1.0,2.0
1701799339.7776256,-3.0,-1.0,0.0,9.0,13.0,2.0,0.0,-1.0
1701799339.7776256,4.0,-4.0,-14.0,4.0,-3.0,-2.0,-5.0,-4.0
1701799339.7776256,-6.0,-3.0,32.0,7.0,-4.0,-4.0,-10.0,-4.0
1701799339.794593,1.0,-1.0,-28.0,-13.0,-3.0,-4.0,-2.0,5.0
1701799339.794593,-24.0,-12.0,-7.0,-7.0,-5.0,-4.0,-5.0,-8.0
1701799339.7977004,-6.0,13.0,11.0,0.0,-2.0,1.0,0.0,-4.0
1701799339.7977004,2.0,9.0,4.0,-6.0,3.0,-1.0,-1.0,3.0
1701799339.8101852,6.0,9.0,29.0,14.0,3.0,8.0,3.0,0.0
1701799339.8101852,0.0,-11.0,-25.0,-13.0,-9.0,-11.0,-13.0,-4.0
1701799339.8169093,2.0,0.0,-15.0,-3.0,-1.0,0.0,8.0,5.0
1701799339.817912,-1.0,1.0,11.0,5.0,-2.0,-3.0,-5.0,-1.0
1701799339.88197,-4.0,-1.0,-1.0,-3.0,-3.0,-2.0,-5.0,-2.0
1701799339.883053,6.0,-3.0,6.0,-1.0,4.0,8.0,7.0,-7.0
1701799339.883053,3.0,1.0,12.0,2.0,2.0,7.0,14.0,11.0
1701799339.883053,2.0,-9.0,-13.0,-13.0,-17.0,-8.0,-3.0,-1.0
1701799339.883053,-4.0,12.0,30.0,14.0,23.0,2.0,0.0,-3.0
1701799339.883053,-1.0,-12.0,-56.0,-20.0,-8.0,0.0,-1.0,1.0
1701799339.883053,-2.0,-12.0,22.0,21.0,14.0,-2.0,-10.0,-5.0
1701799339.883053,0.0,37.0,42.0,4.0,-2.0,1.0,-2.0,-1.0
1701799339.883053,5.0,-21.0,30.0,26.0,3.0,1.0,4.0,2.0
1701799339.883053,-15.0,-20.0,-39.0,-43.0,-41.0,-17.0,-9.0,-7.0
1701799339.9149165,1.0,6.0,15.0,25.0,35.0,10.0,0.0,-2.0
1701799339.9149165,-1.0,-4.0,20.0,-3.0,-25.0,-10.0,-3.0,-1.0
1701799339.9149165,-5.0,14.0,-23.0,-6.0,-8.0,-1.0,-4.0,-5.0
1701799339.9149165,11.0,13.0,31.0,39.0,8.0,2.0,5.0,6.0
1701799339.9149165,-3.0,0.0,-39.0,-62.0,-35.0,-22.0,-9.0,-4.0
1701799339.9149165,1.0,2.0,-27.0,33.0,49.0,21.0,10.0,0.0
1701799339.9317503,-4.0,-25.0,-6.0,-12.0,-10.0,-5.0,-5.0,-5.0
1701799339.9317503,-3.0,-26.0,7.0,-2.0,1.0,0.0,2.0,1.0
1701799339.9317503,-6.0,14.0,8.0,2.0,-8.0,0.0,1.0,-3.0
1701799339.9317503,4.0,2.0,-19.0,-20.0,-10.0,-7.0,-6.0,-2.0
1701799339.9337518,3.0,17.0,-7.0,-13.0,-3.0,-4.0,0.0,0.0
1701799339.9337518,-1.0,9.0,20.0,8.0,9.0,2.0,1.0,4.0
1701799339.9357736,0.0,2.0,-4.0,-5.0,-7.0,-5.0,-7.0,-4.0
1701799339.9357736,1.0,-19.0,-3.0,-7.0,-22.0,-10.0,-4.0,-1.0
1701799339.9528983,-11.0,-33.0,-11.0,19.0,27.0,9.0,2.0,-2.0
1701799339.9528983,10.0,34.0,19.0,0.0,-4.0,0.0,2.0,2.0
1701799339.955026,-11.0,-30.0,-10.0,-19.0,-17.0,-4.0,-3.0,-5.0
1701799339.9560316,-4.0,-4.0,-10.0,6.0,18.0,2.0,0.0,-2.0
1701799340.030805,3.0,16.0,1.0,4.0,-4.0,-1.0,0.0,4.0
1701799340.030805,0.0,2.0,0.0,4.0,6.0,1.0,-1.0,1.0
1701799340.030805,-1.0,4.0,6.0,-11.0,-13.0,-5.0,-2.0,-1.0
1701799340.030805,1.0,-5.0,-8.0,-1.0,9.0,4.0,0.0,1.0
1701799340.030805,-1.0,4.0,-5.0,-16.0,-15.0,-8.0,-7.0,-6.0
1701799340.030805,6.0,-5.0,14.0,16.0,7.0,-1.0,-1.0,0.0
1701799340.0395167,5.0,5.0,-1.0,14.0,19.0,9.0,3.0,1.0
1701799340.0395167,-10.0,-11.0,5.0,1.0,-11.0,-9.0,-2.0,-2.0
1701799340.0407808,-3.0,3.0,-9.0,-11.0,-5.0,-1.0,-3.0,-3.0
1701799340.0407808,3.0,11.0,5.0,1.0,0.0,-1.0,0.0,0.0
1701799340.0407808,-1.0,-15.0,-3.0,4.0,-2.0,-2.0,0.0,-2.0
1701799340.0407808,-3.0,3.0,-6.0,-6.0,-4.0,0.0,-2.0,-2.0
1701799340.0407808,0.0,11.0,-1.0,-9.0,-5.0,0.0,3.0,0.0
1701799340.0407808,1.0,-3.0,20.0,4.0,5.0,2.0,1.0,2.0
1701799340.0407808,-2.0,-5.0,-33.0,5.0,1.0,-5.0,-4.0,-1.0
1701799340.0407808,1.0,4.0,3.0,-9.0,-4.0,-1.0,-3.0,-2.0
1701799340.085602,-3.0,-11.0,4.0,-2.0,-3.0,-7.0,-4.0,-5.0
1701799340.0881405,-4.0,-2.0,-6.0,-6.0,-9.0,-1.0,0.0,-2.0
1701799340.0949705,1.0,-3.0,7.0,3.0,-7.0,-4.0,-6.0,-2.0
1701799340.0949705,1.0,7.0,8.0,2.0,2.0,3.0,2.0,3.0
1701799340.0949705,0.0,-6.0,-18.0,2.0,7.0,-1.0,0.0,-1.0
1701799340.0949705,0.0,0.0,-12.0,-4.0,2.0,-6.0,-4.0,-2.0
1701799340.0949705,-3.0,18.0,14.0,0.0,-6.0,-3.0,0.0,-2.0
1701799340.0949705,-4.0,-32.0,1.0,-4.0,-4.0,8.0,-2.0,-3.0
1701799340.1319118,-1.0,25.0,-6.0,-3.0,2.0,7.0,5.0,2.0
1701799340.1319118,1.0,2.0,5.0,-2.0,13.0,2.0,4.0,1.0
1701799340.1319118,0.0,-4.0,0.0,2.0,-6.0,-5.0,-1.0,-1.0
1701799340.1319118,12.0,8.0,-2.0,-2.0,0.0,-7.0,-2.0,-1.0
1701799340.1319118,2.0,-8.0,-4.0,-4.0,-5.0,-5.0,-2.0,2.0
1701799340.1319118,-16.0,-6.0,-4.0,-2.0,-11.0,-8.0,-7.0,-9.0
1701799340.1319118,0.0,4.0,-3.0,3.0,5.0,4.0,6.0,4.0
1701799340.1319118,-4.0,3.0,-1.0,0.0,3.0,0.0,-1.0,-3.0
1701799340.1329412,4.0,-6.0,3.0,2.0,-4.0,-1.0,-3.0,-1.0
1701799340.1329412,3.0,4.0,-1.0,-3.0,2.0,2.0,0.0,0.0
1701799340.1424973,1.0,-3.0,5.0,-1.0,3.0,0.0,-2.0,-3.0
1701799340.1424973,1.0,3.0,-4.0,-1.0,-1.0,-2.0,-1.0,0.0
1701799340.1562564,-5.0,-7.0,3.0,1.0,-4.0,-2.0,1.0,-2.0
1701799340.1562564,0.0,-5.0,1.0,-2.0,0.0,4.0,0.0,0.0
1701799340.1842966,0.0,4.0,-4.0,-4.0,-2.0,1.0,0.0,-4.0
1701799340.1842966,-2.0,-5.0,7.0,5.0,-1.0,-1.0,0.0,2.0
1701799340.2018847,-2.0,-6.0,-5.0,-2.0,0.0,-2.0,-2.0,-2.0
1701799340.2018847,1.0,-3.0,-4.0,-4.0,-4.0,-2.0,-2.0,-3.0
1701799340.2018847,4.0,-3.0,1.0,2.0,0.0,3.0,1.0,2.0
1701799340.2018847,-3.0,13.0,-13.0,-7.0,-1.0,-2.0,-3.0,-2.0
1701799340.2018847,-2.0,-5.0,17.0,17.0,5.0,1.0,-2.0,1.0
1701799340.2018847,2.0,1.0,2.0,3.0,4.0,3.0,0.0,2.0
1701799340.2018847,-3.0,-7.0,-21.0,-13.0,3.0,-3.0,-4.0,-2.0
1701799340.2018847,0.0,4.0,-2.0,-12.0,-14.0,-7.0,-2.0,-4.0
1701799340.2289395,0.0,2.0,4.0,12.0,6.0,2.0,3.0,0.0
1701799340.2289395,1.0,0.0,10.0,9.0,-1.0,0.0,1.0,2.0
1701799340.2289395,-2.0,7.0,4.0,-11.0,-3.0,-1.0,-2.0,-2.0
1701799340.2289395,-2.0,-1.0,-28.0,-5.0,1.0,-3.0,-4.0,-3.0
1701799340.2289395,2.0,2.0,-6.0,1.0,-4.0,-1.0,-2.0,0.0
1701799340.2289395,-1.0,-11.0,-12.0,-3.0,0.0,0.0,-2.0,-1.0
1701799340.2300599,-5.0,-6.0,-2.0,-1.0,-7.0,-5.0,-2.0,-3.0
1701799340.2300599,-2.0,-6.0,4.0,-1.0,1.0,1.0,1.0,2.0
1701799340.2507882,6.0,28.0,20.0,2.0,-1.0,-1.0,1.0,1.0
1701799340.2507882,-3.0,-19.0,14.0,6.0,3.0,1.0,0.0,-1.0
1701799340.2616148,-3.0,-10.0,-11.0,-11.0,-4.0,-3.0,-3.0,-1.0
1701799340.2616148,-2.0,1.0,1.0,1.0,-3.0,-3.0,-2.0,-3.0
1701799340.3108864,1.0,4.0,26.0,3.0,8.0,1.0,0.0,1.0
1701799340.3108864,-2.0,-1.0,-39.0,-15.0,-12.0,-3.0,-1.0,-4.0
1701799340.3108864,2.0,-3.0,4.0,7.0,4.0,0.0,1.0,2.0
1701799340.3108864,1.0,5.0,3.0,10.0,5.0,5.0,1.0,0.0
1701799340.31188,2.0,0.0,-5.0,-11.0,-4.0,0.0,0.0,2.0
1701799340.31188,-3.0,-20.0,58.0,8.0,0.0,-1.0,-1.0,-2.0
1701799340.31188,-1.0,-1.0,-69.0,-5.0,-8.0,-3.0,-3.0,-5.0
1701799340.31188,-3.0,-5.0,-7.0,-3.0,4.0,-2.0,-1.0,0.0
1701799340.3260167,-1.0,21.0,-14.0,-9.0,-3.0,-2.0,-1.0,-3.0
1701799340.3260167,5.0,-2.0,15.0,-4.0,-2.0,1.0,1.0,1.0
1701799340.3391728,-13.0,-41.0,14.0,10.0,1.0,-1.0,-1.0,-2.0
1701799340.3391728,0.0,-2.0,20.0,-2.0,-4.0,-2.0,-1.0,-1.0
1701799340.341311,0.0,-12.0,-19.0,-20.0,-15.0,-7.0,-3.0,-2.0
1701799340.3423302,5.0,36.0,3.0,8.0,9.0,4.0,1.0,2.0
1701799340.3423302,4.0,25.0,63.0,24.0,11.0,2.0,1.0,-2.0
1701799340.3423302,-4.0,-34.0,-36.0,5.0,5.0,1.0,-2.0,-2.0
1701799340.3493383,-3.0,-1.0,-7.0,-9.0,-7.0,-1.0,1.0,4.0
1701799340.3493383,-19.0,-13.0,-42.0,-9.0,-7.0,-6.0,-4.0,-11.0
1701799340.3612196,1.0,5.0,9.0,-7.0,-5.0,0.0,-3.0,-2.0
1701799340.3612196,-2.0,1.0,-1.0,-8.0,-6.0,-2.0,0.0,-1.0
1701799340.4092257,0.0,-3.0,-7.0,1.0,-1.0,-1.0,-1.0,2.0
1701799340.4092257,1.0,9.0,6.0,-5.0,-2.0,-3.0,-7.0,-6.0
1701799340.4092257,8.0,-5.0,-10.0,-5.0,-4.0,3.0,10.0,21.0
1701799340.4092257,-2.0,3.0,9.0,13.0,4.0,3.0,2.0,-9.0
1701799340.4092257,-6.0,-12.0,5.0,8.0,8.0,0.0,-4.0,-5.0
1701799340.4092257,-4.0,-7.0,-9.0,-12.0,-16.0,-9.0,-5.0,-4.0
1701799340.4092257,1.0,5.0,-10.0,-11.0,0.0,-4.0,-3.0,-4.0
1701799340.4092257,7.0,17.0,13.0,1.0,2.0,2.0,2.0,5.0
1701799340.4102125,1.0,-10.0,-3.0,7.0,-3.0,-2.0,1.0,-1.0
1701799340.4102125,2.0,-20.0,-27.0,-10.0,-2.0,5.0,3.0,8.0
1701799340.4178338,-2.0,1.0,23.0,21.0,-6.0,-9.0,-7.0,-11.0
1701799340.4178338,-9.0,-3.0,-7.0,-5.0,0.0,-3.0,-4.0,-8.0
1701799340.463327,-3.0,7.0,1.0,0.0,1.0,1.0,-3.0,-7.0
1701799340.463327,-6.0,-3.0,-1.0,-7.0,-2.0,-2.0,-2.0,2.0
1701799340.463327,1.0,-1.0,3.0,-3.0,4.0,5.0,3.0,3.0
1701799340.463327,0.0,6.0,4.0,3.0,3.0,-1.0,0.0,2.0
1701799340.463327,4.0,-11.0,-1.0,-5.0,-7.0,-4.0,-2.0,-1.0
1701799340.463327,1.0,5.0,1.0,-1.0,-1.0,1.0,6.0,10.0
1701799340.463327,-4.0,2.0,-1.0,-5.0,-1.0,-1.0,-5.0,-13.0
1701799340.463327,-10.0,5.0,4.0,-2.0,0.0,-3.0,-3.0,-12.0
1701799340.4859426,0.0,4.0,-5.0,-3.0,-5.0,-4.0,-4.0,0.0
1701799340.4859426,-3.0,-4.0,1.0,2.0,2.0,-1.0,-7.0,3.0
1701799340.5114257,15.0,1.0,6.0,2.0,0.0,1.0,12.0,20.0
1701799340.5114257,-5.0,-6.0,-12.0,-10.0,-7.0,-1.0,1.0,-2.0
1701799340.515993,-2.0,-3.0,5.0,-1.0,1.0,2.0,-1.0,-4.0
1701799340.515993,0.0,4.0,5.0,10.0,5.0,-2.0,-6.0,-7.0
1701799340.515993,-8.0,-3.0,-4.0,-8.0,-3.0,-3.0,-3.0,-5.0
1701799340.515993,5.0,-4.0,-7.0,0.0,0.0,-5.0,-16.0,2.0
1701799340.515993,-6.0,-8.0,0.0,-3.0,2.0,2.0,-2.0,1.0
1701799340.515993,5.0,3.0,3.0,10.0,2.0,3.0,9.0,-11.0
1701799340.517017,2.0,3.0,-10.0,-6.0,-2.0,-4.0,-4.0,9.0
1701799340.517017,-1.0,5.0,7.0,0.0,-2.0,4.0,14.0,7.0
1701799340.5373437,-3.0,-1.0,-5.0,-1.0,0.0,-1.0,-5.0,-12.0
1701799340.5373437,7.0,-10.0,3.0,-2.0,-1.0,-3.0,-5.0,5.0
1701799340.5416706,-8.0,-14.0,9.0,-6.0,-4.0,-1.0,0.0,-6.0
1701799340.5416706,6.0,-1.0,0.0,4.0,-1.0,-3.0,-6.0,2.0
1701799340.5907917,-2.0,-1.0,-22.0,7.0,1.0,-3.0,-2.0,-4.0
1701799340.5907917,-2.0,6.0,-12.0,-20.0,-9.0,-4.0,-2.0,-3.0
1701799340.5907917,-1.0,6.0,10.0,14.0,15.0,4.0,-6.0,-5.0
1701799340.5907917,1.0,14.0,45.0,21.0,1.0,1.0,3.0,0.0
1701799340.5918155,-1.0,-18.0,16.0,-6.0,-1.0,0.0,4.0,3.0
1701799340.5920281,4.0,5.0,-57.0,-8.0,-9.0,-3.0,2.0,1.0
1701799340.5920281,-14.0,-6.0,-9.0,-19.0,-11.0,-3.0,-5.0,-8.0
1701799340.5920281,-2.0,-1.0,-22.0,-1.0,5.0,1.0,1.0,-5.0
1701799340.6175764,0.0,-1.0,30.0,8.0,1.0,-2.0,3.0,3.0
1701799340.6175764,3.0,28.0,39.0,4.0,-1.0,-3.0,-2.0,0.0
1701799340.6175764,-2.0,-14.0,-59.0,-5.0,-15.0,-7.0,-6.0,-7.0
1701799340.6175764,-1.0,-9.0,10.0,4.0,6.0,1.0,3.0,3.0
1701799340.6175764,-5.0,-1.0,-35.0,-3.0,1.0,0.0,-3.0,-2.0
1701799340.6175764,-1.0,-17.0,-20.0,-8.0,3.0,0.0,-4.0,-6.0
1701799340.6185772,10.0,18.0,19.0,-6.0,-8.0,0.0,8.0,7.0
1701799340.6185772,-11.0,-5.0,-2.0,-3.0,0.0,-2.0,-4.0,-7.0
1701799340.6346629,-2.0,-8.0,-13.0,-3.0,-12.0,-4.0,-3.0,3.0
1701799340.6346629,6.0,0.0,15.0,2.0,9.0,6.0,1.0,-2.0
1701799340.6413813,1.0,0.0,-4.0,15.0,6.0,1.0,-3.0,-5.0
1701799340.6413813,5.0,4.0,17.0,-7.0,-9.0,-3.0,-3.0,2.0
1701799340.7050734,-10.0,15.0,-2.0,-6.0,-3.0,-1.0,0.0,1.0
1701799340.7050734,-5.0,1.0,-8.0,-5.0,-11.0,-6.0,-4.0,-4.0
1701799340.7050734,-2.0,4.0,2.0,-17.0,-7.0,-1.0,-1.0,0.0
1701799340.7050734,-2.0,-7.0,-3.0,-8.0,-11.0,-9.0,-4.0,-2.0
1701799340.7050734,3.0,-10.0,8.0,17.0,27.0,15.0,2.0,2.0
1701799340.7050734,-4.0,-7.0,-2.0,1.0,-10.0,-9.0,-7.0,-2.0
1701799340.7050734,-1.0,4.0,9.0,9.0,7.0,3.0,-6.0,0.0
1701799340.7050734,-2.0,0.0,-7.0,-13.0,-10.0,-4.0,3.0,-1.0
1701799340.712607,-1.0,0.0,-1.0,-9.0,-9.0,-7.0,-1.0,-4.0
1701799340.712607,3.0,5.0,2.0,4.0,1.0,1.0,-5.0,-9.0
1701799340.7136037,-8.0,-4.0,14.0,0.0,-3.0,-4.0,-6.0,6.0
1701799340.7136037,2.0,-8.0,-16.0,-7.0,-1.0,4.0,6.0,9.0
1701799340.7446532,-6.0,-9.0,-4.0,-3.0,-2.0,-2.0,6.0,1.0
1701799340.7446532,0.0,1.0,13.0,-1.0,-1.0,0.0,5.0,3.0
1701799340.7446532,-1.0,-2.0,6.0,10.0,9.0,1.0,4.0,-7.0
1701799340.7446532,2.0,2.0,-13.0,2.0,5.0,1.0,-3.0,-3.0
1701799340.7446532,-2.0,-5.0,16.0,-12.0,-11.0,-4.0,-4.0,-1.0
1701799340.7446532,-4.0,-5.0,-3.0,16.0,12.0,4.0,-1.0,-1.0
1701799340.7446532,2.0,17.0,-12.0,-7.0,-2.0,-4.0,-2.0,9.0
1701799340.7446532,-6.0,-45.0,-5.0,5.0,-2.0,-4.0,-5.0,0.0
1701799340.7562747,2.0,8.0,-14.0,-8.0,-6.0,-5.0,-3.0,-3.0
1701799340.7562747,-1.0,10.0,38.0,0.0,-1.0,2.0,3.0,5.0
1701799340.784058,-6.0,-23.0,-28.0,2.0,-4.0,-3.0,-6.0,-9.0
1701799340.784058,2.0,20.0,7.0,-1.0,1.0,0.0,-1.0,0.0
1701799340.8038383,-1.0,-1.0,-16.0,-24.0,-8.0,-5.0,-5.0,-4.0
1701799340.8038383,-4.0,2.0,9.0,13.0,0.0,-3.0,-1.0,-1.0
1701799340.8038383,12.0,14.0,16.0,9.0,0.0,0.0,1.0,-4.0
1701799340.8038383,-11.0,-7.0,-31.0,-9.0,-4.0,-2.0,-1.0,2.0
1701799340.8038383,0.0,-5.0,-8.0,-6.0,-2.0,-1.0,-2.0,-2.0
1701799340.8038383,0.0,9.0,-10.0,-10.0,-4.0,-2.0,3.0,8.0
1701799340.8038383,-6.0,-11.0,34.0,9.0,2.0,1.0,1.0,-9.0
1701799340.8038383,17.0,16.0,19.0,15.0,2.0,1.0,-2.0,20.0
1701799340.8163192,-4.0,-1.0,-35.0,-6.0,-2.0,-3.0,-6.0,-22.0
1701799340.8166003,0.0,-20.0,2.0,-4.0,3.0,2.0,3.0,10.0
1701799340.830561,-3.0,3.0,-7.0,-8.0,-4.0,0.0,-1.0,-2.0
1701799340.831564,-9.0,2.0,3.0,-3.0,9.0,-1.0,-1.0,-13.0
1701799340.8424506,4.0,3.0,-2.0,2.0,2.0,2.0,1.0,9.0
1701799340.8424506,5.0,4.0,15.0,14.0,1.0,-5.0,-2.0,-1.0
1701799340.8424506,-6.0,-7.0,-20.0,-16.0,-15.0,-4.0,0.0,-2.0
1701799340.8424506,3.0,6.0,16.0,4.0,6.0,2.0,0.0,-3.0
1701799340.853152,-1.0,14.0,13.0,12.0,2.0,-4.0,-5.0,2.0
1701799340.853152,-6.0,-12.0,-21.0,-10.0,0.0,2.0,2.0,-8.0
1701799340.85992,-1.0,-1.0,24.0,-1.0,1.0,-2.0,-1.0,4.0
1701799340.860047,-3.0,-2.0,-23.0,-13.0,-9.0,-2.0,1.0,-1.0
1701799340.8768082,21.0,-3.0,18.0,7.0,6.0,1.0,1.0,14.0
1701799340.8773172,-1.0,-4.0,4.0,0.0,-6.0,-3.0,0.0,6.0
1701799340.8793187,-13.0,5.0,-22.0,4.0,7.0,-1.0,-5.0,-32.0
1701799340.8793187,-12.0,22.0,-8.0,-12.0,-9.0,-2.0,-1.0,-3.0
1701799340.9429302,-2.0,-45.0,0.0,4.0,-4.0,-4.0,-5.0,1.0
1701799340.9429302,-1.0,3.0,-3.0,-1.0,2.0,-3.0,-5.0,1.0
1701799340.9439414,4.0,1.0,-6.0,0.0,3.0,1.0,-1.0,4.0
1701799340.9439414,-3.0,-1.0,9.0,0.0,-2.0,-2.0,9.0,-5.0
1701799340.9439414,2.0,11.0,8.0,3.0,0.0,-2.0,-12.0,-12.0
1701799340.9439414,2.0,-3.0,-10.0,-8.0,-1.0,4.0,25.0,14.0
1701799340.9439414,-11.0,-3.0,1.0,0.0,2.0,-1.0,2.0,-7.0
1701799340.9444582,2.0,-7.0,-1.0,-4.0,-1.0,1.0,-14.0,-15.0
1701799340.9444582,-7.0,3.0,18.0,10.0,-5.0,-3.0,9.0,22.0
1701799340.9444582,-2.0,-4.0,1.0,-10.0,0.0,-2.0,-13.0,-10.0
1701799340.9568472,7.0,0.0,-7.0,2.0,-2.0,-1.0,0.0,9.0
1701799340.9568472,3.0,-4.0,8.0,2.0,4.0,1.0,-1.0,0.0
1701799341.0034163,-3.0,5.0,0.0,1.0,-3.0,-3.0,-5.0,-9.0
1701799341.0034163,-3.0,4.0,-6.0,-5.0,-4.0,-5.0,-7.0,-7.0
1701799341.0034163,3.0,-9.0,9.0,13.0,2.0,4.0,7.0,9.0
1701799341.0034163,5.0,0.0,7.0,-1.0,-2.0,-1.0,-3.0,0.0
1701799341.0034163,0.0,-8.0,-24.0,2.0,1.0,-1.0,0.0,-5.0
1701799341.0034163,-11.0,4.0,21.0,-4.0,-3.0,-2.0,-1.0,-2.0
1701799341.0034163,4.0,8.0,-9.0,-28.0,-3.0,-4.0,-5.0,-2.0
1701799341.0034163,4.0,-10.0,-4.0,10.0,0.0,-4.0,0.0,1.0
1701799341.0034163,-15.0,0.0,0.0,2.0,5.0,5.0,4.0,2.0
1701799341.0034163,11.0,9.0,12.0,2.0,-8.0,-5.0,1.0,-3.0
1701799341.0170617,6.0,-11.0,-36.0,-33.0,-27.0,-8.0,-4.0,7.0
1701799341.0190647,-10.0,11.0,5.0,4.0,21.0,11.0,1.0,-9.0
1701799341.039518,-4.0,-13.0,-10.0,-3.0,-5.0,2.0,5.0,0.0
1701799341.039518,-2.0,-2.0,1.0,31.0,9.0,-1.0,-4.0,-4.0
1701799341.0405202,-4.0,2.0,17.0,-1.0,-12.0,-6.0,-1.0,0.0
1701799341.0405407,4.0,0.0,-10.0,-38.0,-37.0,-11.0,-3.0,-2.0
1701799341.0405407,-1.0,14.0,22.0,-16.0,-12.0,-4.0,-5.0,-8.0
1701799341.0405407,-3.0,-12.0,-36.0,19.0,27.0,9.0,1.0,2.0
1701799341.0415862,-2.0,18.0,64.0,22.0,13.0,4.0,1.0,0.0
1701799341.0415862,-6.0,-22.0,4.0,18.0,-2.0,-5.0,-1.0,0.0
1701799341.0676742,3.0,17.0,-17.0,-24.0,-9.0,-2.0,-1.0,-1.0
1701799341.0676742,-11.0,-50.0,9.0,-15.0,-11.0,-2.0,-3.0,-1.0
1701799341.0676742,0.0,5.0,-45.0,3.0,11.0,2.0,-1.0,3.0
1701799341.0676742,-2.0,-7.0,5.0,-1.0,0.0,-2.0,-4.0,-3.0
1701799341.0772202,5.0,8.0,35.0,20.0,7.0,4.0,6.0,3.0
1701799341.0782218,12.0,31.0,48.0,-11.0,-5.0,-2.0,-3.0,1.0
1701799341.0782218,-15.0,11.0,-46.0,-12.0,-1.0,-3.0,2.0,-6.0
1701799341.0799131,3.0,-5.0,-13.0,2.0,1.0,-2.0,-1.0,1.0
1701799341.0923047,5.0,-25.0,7.0,0.0,3.0,1.0,0.0,3.0
1701799341.0923047,-18.0,-29.0,-4.0,-6.0,-8.0,-3.0,-6.0,-6.0
1701799341.1028876,13.0,70.0,13.0,13.0,1.0,2.0,3.0,2.0
1701799341.1028876,-9.0,-26.0,-52.0,-6.0,-2.0,0.0,-2.0,-1.0
1701799341.1640623,-10.0,-12.0,-27.0,-16.0,-6.0,-6.0,-3.0,-8.0
1701799341.1640623,4.0,15.0,2.0,5.0,6.0,2.0,1.0,-5.0
1701799341.16817,4.0,-1.0,13.0,0.0,4.0,-1.0,0.0,6.0
1701799341.16817,-1.0,-10.0,45.0,8.0,-16.0,-3.0,-2.0,-1.0
1701799341.16817,9.0,21.0,0.0,17.0,18.0,7.0,0.0,-3.0
1701799341.16817,-7.0,-19.0,-41.0,-8.0,-8.0,-3.0,-3.0,-6.0
1701799341.16817,2.0,2.0,-6.0,4.0,5.0,6.0,2.0,-1.0
1701799341.16817,-4.0,-11.0,-34.0,-27.0,-16.0,-12.0,-7.0,-2.0
1701799341.16817,2.0,15.0,-4.0,-7.0,-7.0,-4.0,-1.0,1.0
1701799341.16817,-5.0,2.0,8.0,9.0,3.0,1.0,1.0,0.0
1701799341.16817,-3.0,-29.0,12.0,0.0,-1.0,-1.0,-4.0,-3.0
1701799341.16817,1.0,-5.0,3.0,-9.0,1.0,-2.0,-1.0,1.0
1701799341.201357,1.0,-15.0,-12.0,1.0,-1.0,0.0,-3.0,0.0
1701799341.201357,0.0,30.0,-5.0,-4.0,-2.0,1.0,1.0,1.0
1701799341.201357,-2.0,-20.0,7.0,0.0,-4.0,-4.0,-3.0,-4.0
1701799341.201357,-4.0,-4.0,-11.0,0.0,6.0,-2.0,-1.0,-2.0
1701799341.201357,-6.0,8.0,9.0,5.0,4.0,-1.0,-2.0,-2.0
1701799341.201357,20.0,8.0,-5.0,-4.0,-4.0,-4.0,-3.0,0.0
1701799341.201357,-3.0,-26.0,-3.0,-5.0,-5.0,-2.0,-2.0,-2.0
1701799341.201357,4.0,16.0,11.0,6.0,3.0,3.0,1.0,0.0
1701799341.237,-3.0,9.0,8.0,6.0,-1.0,-2.0,-1.0,-1.0
1701799341.237,-5.0,-8.0,-15.0,-11.0,-4.0,1.0,-2.0,1.0
1701799341.237,-2.0,-18.0,-5.0,-7.0,-1.0,-3.0,-4.0,-1.0
1701799341.237,8.0,22.0,13.0,5.0,5.0,1.0,2.0,3.0
1701799341.237,-13.0,-11.0,11.0,3.0,-4.0,1.0,-2.0,0.0
1701799341.237,9.0,-16.0,-12.0,-9.0,-6.0,-4.0,-3.0,-3.0
1701799341.237,-9.0,3.0,1.0,-1.0,3.0,2.0,-1.0,-2.0
1701799341.237,11.0,10.0,8.0,5.0,4.0,2.0,0.0,3.0
1701799341.2589045,-4.0,-10.0,4.0,4.0,-3.0,-4.0,-16.0,-23.0
1701799341.2589045,-3.0,8.0,-4.0,-3.0,-1.0,0.0,6.0,21.0
1701799341.2600994,18.0,-9.0,-3.0,-3.0,1.0,-1.0,13.0,12.0
1701799341.2600994,-35.0,-8.0,12.0,-1.0,1.0,-1.0,1.0,-14.0
1701799341.3190167,1.0,-1.0,-3.0,-4.0,0.0,1.0,2.0,7.0
1701799341.3190167,-8.0,4.0,-15.0,-11.0,-2.0,-3.0,-12.0,-17.0
1701799341.3239598,0.0,-4.0,25.0,18.0,-1.0,0.0,-6.0,-4.0
1701799341.3239598,10.0,0.0,-16.0,4.0,2.0,1.0,4.0,12.0
1701799341.3239598,0.0,-1.0,21.0,18.0,-1.0,-8.0,-14.0,-15.0
1701799341.3239598,3.0,6.0,1.0,-14.0,-4.0,-2.0,4.0,-1.0
1701799341.3239598,-8.0,-7.0,-9.0,-13.0,2.0,7.0,17.0,8.0
1701799341.3239598,12.0,18.0,19.0,7.0,-1.0,0.0,-3.0,0.0
1701799341.3239598,6.0,-14.0,-36.0,-5.0,-2.0,2.0,17.0,10.0
1701799341.3239598,0.0,14.0,56.0,10.0,0.0,-4.0,-5.0,-2.0
1701799341.3239598,6.0,2.0,-36.0,-5.0,-3.0,-7.0,-15.0,-7.0
1701799341.3239598,-15.0,-38.0,-8.0,-3.0,-1.0,-4.0,-10.0,-12.0
1701799341.3719084,-10.0,-1.0,-3.0,-9.0,-1.0,1.0,2.0,5.0
1701799341.3719084,9.0,4.0,-7.0,2.0,2.0,1.0,-4.0,4.0
1701799341.3719084,2.0,7.0,9.0,-2.0,-2.0,-1.0,-3.0,14.0
1701799341.3719084,-3.0,6.0,-15.0,-4.0,-3.0,-3.0,-3.0,-18.0
1701799341.3719084,-4.0,-1.0,14.0,9.0,5.0,0.0,1.0,3.0
1701799341.3719084,-16.0,-17.0,-16.0,3.0,0.0,0.0,-2.0,-10.0
1701799341.3719084,-1.0,8.0,21.0,-8.0,-9.0,-4.0,-4.0,5.0
1701799341.3719084,1.0,-5.0,-2.0,3.0,0.0,0.0,3.0,11.0
1701799341.3729866,1.0,-1.0,-17.0,-11.0,-7.0,-3.0,-2.0,-3.0
1701799341.3729866,1.0,7.0,-4.0,9.0,7.0,3.0,1.0,-2.0
1701799341.3800497,2.0,-10.0,0.0,-5.0,-10.0,-5.0,-7.0,-6.0
1701799341.3800497,3.0,7.0,4.0,2.0,10.0,3.0,5.0,13.0
1701799341.4397259,5.0,21.0,4.0,-3.0,2.0,0.0,2.0,1.0
1701799341.4397259,-6.0,-36.0,-13.0,-3.0,-8.0,-7.0,-5.0,-4.0
1701799341.4397259,-8.0,-8.0,6.0,-3.0,-5.0,-2.0,-3.0,-10.0
1701799341.4397259,3.0,3.0,-1.0,-5.0,-9.0,-4.0,-1.0,-3.0
1701799341.4397259,3.0,17.0,12.0,7.0,7.0,0.0,-1.0,0.0
1701799341.4397259,-8.0,-3.0,-32.0,-11.0,-6.0,0.0,1.0,-3.0
1701799341.446871,-6.0,-12.0,-6.0,6.0,9.0,-6.0,-5.0,-2.0
1701799341.446871,8.0,12.0,7.0,2.0,3.0,5.0,3.0,0.0
1701799341.4911432,1.0,-6.0,-13.0,-11.0,-8.0,-4.0,-4.0,-3.0
1701799341.4911432,-5.0,4.0,3.0,-7.0,-8.0,-4.0,-1.0,4.0
1701799341.4911432,-4.0,-9.0,0.0,9.0,9.0,4.0,5.0,-5.0
1701799341.4911432,-2.0,-19.0,3.0,1.0,-8.0,-2.0,-4.0,0.0
1701799341.4949555,-3.0,-15.0,-35.0,-13.0,-1.0,-2.0,-1.0,-2.0
1701799341.4949555,0.0,19.0,32.0,-3.0,-2.0,0.0,-1.0,-3.0
1701799341.4949555,-4.0,-9.0,-26.0,3.0,-7.0,-4.0,-1.0,1.0
1701799341.4949555,7.0,6.0,5.0,0.0,6.0,2.0,1.0,2.0
1701799341.4949555,2.0,-2.0,6.0,0.0,-1.0,-1.0,0.0,1.0
1701799341.4949555,-5.0,-24.0,-5.0,-4.0,-4.0,-4.0,-2.0,-1.0
1701799341.5013654,2.0,6.0,1.0,1.0,4.0,3.0,2.0,-5.0
1701799341.5013654,0.0,4.0,-3.0,-4.0,0.0,-2.0,-1.0,5.0
1701799341.5431075,1.0,12.0,19.0,-9.0,-5.0,-1.0,7.0,1.0
1701799341.5431075,-4.0,9.0,-26.0,12.0,5.0,1.0,0.0,1.0
1701799341.5431075,4.0,0.0,9.0,1.0,0.0,-1.0,-5.0,-3.0
1701799341.5431075,0.0,-1.0,-13.0,-20.0,-11.0,-4.0,-2.0,-3.0
1701799341.5431075,-6.0,-10.0,-20.0,13.0,-3.0,-2.0,-5.0,-2.0
1701799341.5431075,2.0,6.0,-3.0,-8.0,1.0,1.0,2.0,1.0
1701799341.5441077,2.0,-1.0,2.0,0.0,-1.0,0.0,-2.0,-5.0
1701799341.5441077,-5.0,6.0,-8.0,-11.0,-7.0,-4.0,-2.0,-2.0
1701799341.5441077,-12.0,-13.0,7.0,6.0,4.0,1.0,1.0,2.0
1701799341.5441077,10.0,-6.0,7.0,20.0,4.0,-2.0,-2.0,-6.0
1701799341.5441077,-15.0,-5.0,-14.0,-24.0,-9.0,-3.0,-5.0,-11.0
1701799341.5441077,2.0,4.0,-6.0,3.0,-4.0,-1.0,3.0,4.0
1701799341.601894,-7.0,0.0,21.0,0.0,0.0,2.0,4.0,-2.0
1701799341.601894,17.0,10.0,11.0,-4.0,-2.0,-2.0,1.0,13.0
1701799341.601894,3.0,-8.0,-21.0,4.0,-4.0,-2.0,-3.0,-5.0
1701799341.601894,-1.0,-7.0,3.0,-2.0,0.0,-3.0,-2.0,-7.0
1701799341.6028929,-8.0,2.0,-7.0,-11.0,-2.0,-3.0,-6.0,1.0
1701799341.6028929,-3.0,-6.0,1.0,5.0,2.0,2.0,7.0,-3.0
1701799341.6028929,0.0,8.0,10.0,0.0,0.0,3.0,3.0,2.0
1701799341.6028929,-2.0,6.0,35.0,8.0,4.0,1.0,-3.0,-4.0
1701799341.6028929,7.0,-4.0,-15.0,2.0,-1.0,-2.0,-2.0,-1.0
1701799341.6028929,1.0,3.0,-17.0,-15.0,-4.0,-4.0,-5.0,-2.0
1701799341.6068106,0.0,-17.0,4.0,5.0,0.0,-3.0,1.0,3.0
1701799341.6068106,-4.0,-2.0,-4.0,5.0,4.0,0.0,-1.0,-4.0
1701799341.6487467,6.0,5.0,14.0,-15.0,-13.0,-7.0,-1.0,-2.0
1701799341.6487467,-5.0,6.0,-7.0,12.0,13.0,6.0,1.0,1.0
1701799341.6487467,-1.0,8.0,7.0,12.0,19.0,5.0,5.0,1.0
1701799341.6487467,-1.0,-7.0,-10.0,-6.0,-15.0,-7.0,-5.0,-3.0
1701799341.6487467,1.0,1.0,-5.0,1.0,10.0,3.0,-2.0,-1.0
1701799341.6487467,-3.0,5.0,-2.0,-8.0,-11.0,-2.0,3.0,-4.0
1701799341.6490786,3.0,-4.0,0.0,1.0,-8.0,-6.0,-4.0,-1.0
1701799341.6490786,0.0,-1.0,0.0,2.0,9.0,6.0,3.0,0.0
1701799341.6560133,-4.0,-6.0,-2.0,-7.0,-9.0,-2.0,-4.0,-1.0
1701799341.6565843,-3.0,0.0,2.0,3.0,3.0,3.0,-1.0,0.0
1701799341.6913564,0.0,15.0,35.0,16.0,4.0,3.0,0.0,1.0
1701799341.6923583,-1.0,-2.0,-61.0,-9.0,-4.0,-3.0,-2.0,0.0
1701799341.6923583,0.0,-11.0,5.0,-4.0,-1.0,0.0,2.0,0.0
1701799341.6923583,-5.0,-9.0,-14.0,-2.0,-4.0,-5.0,-4.0,-3.0
1701799341.6923583,5.0,17.0,-9.0,-8.0,-7.0,0.0,2.0,0.0
1701799341.6923583,1.0,-9.0,18.0,6.0,0.0,-3.0,0.0,3.0
1701799341.6980407,-6.0,1.0,-5.0,-4.0,-2.0,1.0,1.0,-2.0
1701799341.6980407,-2.0,-16.0,-3.0,4.0,-4.0,-1.0,-2.0,-5.0
1701799341.701717,-1.0,-2.0,-3.0,-15.0,-4.0,-2.0,-2.0,0.0
1701799341.701717,5.0,5.0,2.0,4.0,-1.0,1.0,-2.0,2.0
1701799341.713962,-3.0,1.0,-2.0,1.0,-1.0,-5.0,-2.0,-4.0
1701799341.713962,-3.0,1.0,4.0,-6.0,-1.0,0.0,3.0,0.0
1701799341.749957,-1.0,2.0,11.0,-2.0,-1.0,-1.0,-2.0,-1.0
1701799341.749957,-5.0,3.0,-4.0,-7.0,-9.0,-3.0,-2.0,-3.0
1701799341.749957,1.0,-12.0,-37.0,-7.0,-1.0,-2.0,-1.0,0.0
1701799341.749957,-2.0,4.0,31.0,13.0,15.0,5.0,0.0,0.0
1701799341.749957,-4.0,-7.0,-12.0,1.0,-2.0,-5.0,-4.0,-5.0
1701799341.749957,-1.0,1.0,17.0,2.0,-5.0,-2.0,1.0,0.0
1701799341.7609224,3.0,13.0,-3.0,2.0,3.0,-1.0,0.0,0.0
1701799341.7609224,0.0,-18.0,-10.0,-6.0,-3.0,-1.0,0.0,0.0
1701799341.7658758,-8.0,-4.0,-10.0,-6.0,-4.0,1.0,-1.0,-2.0
1701799341.7658758,-11.0,3.0,21.0,1.0,5.0,-1.0,-3.0,-6.0
1701799341.8176112,6.0,7.0,33.0,3.0,-1.0,-1.0,-1.0,3.0
1701799341.8176112,0.0,5.0,1.0,-5.0,-2.0,-3.0,-5.0,-3.0
1701799341.8176112,0.0,-7.0,-8.0,3.0,2.0,-1.0,0.0,-3.0
1701799341.8176112,-4.0,-8.0,-4.0,-3.0,-2.0,0.0,3.0,2.0
1701799341.8176112,-2.0,6.0,7.0,0.0,0.0,-1.0,-5.0,-2.0
1701799341.8176112,-1.0,3.0,-4.0,-5.0,-5.0,-3.0,-5.0,-7.0
1701799341.8176112,-2.0,-6.0,-5.0,-3.0,-5.0,-2.0,-10.0,-4.0
1701799341.8176112,2.0,2.0,1.0,4.0,4.0,1.0,14.0,8.0
1701799341.8225203,1.0,0.0,-7.0,-2.0,0.0,1.0,1.0,-1.0
1701799341.8225203,2.0,12.0,15.0,5.0,1.0,-2.0,4.0,3.0
1701799341.831945,-6.0,-12.0,-21.0,-10.0,-3.0,-3.0,-4.0,-4.0
1701799341.831945,6.0,2.0,-5.0,8.0,1.0,0.0,-6.0,-4.0
1701799341.8468971,-11.0,-6.0,6.0,1.0,-2.0,0.0,5.0,3.0
1701799341.8468971,4.0,5.0,-4.0,-2.0,-6.0,-4.0,-9.0,-8.0
1701799341.849153,1.0,0.0,5.0,0.0,5.0,2.0,-1.0,2.0
1701799341.8501534,3.0,1.0,5.0,-10.0,-3.0,-1.0,1.0,4.0
1701799341.8580883,-1.0,-6.0,-39.0,1.0,-4.0,2.0,5.0,0.0
1701799341.8580883,-5.0,13.0,12.0,2.0,-8.0,-4.0,-2.0,-1.0
1701799341.8605578,2.0,11.0,-6.0,0.0,1.0,-4.0,-2.0,-1.0
1701799341.8605578,-2.0,-29.0,-10.0,-6.0,-2.0,-1.0,-5.0,-4.0
1701799341.8795414,2.0,-3.0,2.0,-10.0,-8.0,-8.0,-17.0,-9.0
1701799341.8795414,-1.0,0.0,-6.0,-6.0,2.0,3.0,5.0,2.0
1701799341.8887715,3.0,1.0,-2.0,1.0,-4.0,3.0,17.0,13.0
1701799341.8887715,0.0,17.0,7.0,-2.0,0.0,-1.0,2.0,-3.0
1701799341.932708,1.0,-4.0,17.0,-6.0,-3.0,-1.0,8.0,2.0
1701799341.932708,-3.0,-5.0,-11.0,-11.0,-23.0,-5.0,-9.0,-6.0
1701799341.932708,0.0,2.0,7.0,10.0,6.0,-2.0,-6.0,-4.0
1701799341.932708,-3.0,-12.0,-5.0,-1.0,2.0,0.0,-3.0,-3.0
1701799341.9355583,0.0,2.0,10.0,15.0,5.0,-1.0,-4.0,-2.0
1701799341.9355583,-5.0,-1.0,-14.0,-16.0,-9.0,-5.0,-5.0,0.0
1701799341.9355583,-1.0,1.0,9.0,-10.0,-12.0,-3.0,1.0,-3.0
1701799341.9355583,5.0,2.0,-10.0,11.0,16.0,2.0,-2.0,-2.0
1701799341.9404283,3.0,3.0,9.0,-4.0,-7.0,-4.0,-4.0,1.0
1701799341.9404283,-3.0,-9.0,-4.0,4.0,11.0,2.0,3.0,-2.0
1701799341.9404283,-8.0,-3.0,-12.0,-2.0,-1.0,0.0,1.0,2.0
1701799341.9404283,-1.0,7.0,12.0,5.0,12.0,3.0,-3.0,-1.0
1701799341.9722314,3.0,2.0,7.0,1.0,1.0,0.0,-2.0,1.0
1701799341.9722314,-3.0,-6.0,-28.0,3.0,6.0,-1.0,3.0,2.0
1701799341.9724486,1.0,-5.0,16.0,4.0,3.0,-4.0,-15.0,-7.0
1701799341.9724486,1.0,5.0,-3.0,-10.0,-22.0,-12.0,-14.0,-7.0
1701799341.9743586,5.0,-2.0,20.0,4.0,3.0,7.0,4.0,3.0
1701799341.9743586,-1.0,-3.0,3.0,11.0,10.0,6.0,16.0,5.0
1701799341.9743586,-9.0,3.0,-16.0,-14.0,-7.0,-6.0,-5.0,-13.0
1701799341.9743586,16.0,-1.0,-5.0,-1.0,-3.0,-2.0,10.0,24.0
1701799341.9940174,-1.0,0.0,-11.0,0.0,2.0,-2.0,-12.0,-11.0
1701799341.9940174,6.0,4.0,12.0,1.0,0.0,-1.0,2.0,-9.0
1701799342.0019114,-2.0,-9.0,10.0,5.0,2.0,0.0,-2.0,19.0
1701799342.0019114,14.0,-9.0,-15.0,-5.0,-1.0,-3.0,-18.0,-14.0
1701799342.0546145,-30.0,0.0,-3.0,0.0,-1.0,-5.0,-7.0,2.0
1701799342.0546145,-16.0,6.0,2.0,-3.0,-3.0,5.0,24.0,10.0
1701799342.0546145,-7.0,-1.0,9.0,2.0,-2.0,-1.0,-1.0,-8.0
1701799342.0546145,-1.0,-1.0,-5.0,-2.0,1.0,1.0,1.0,-2.0
1701799342.0546145,11.0,-5.0,-14.0,-5.0,-3.0,1.0,-3.0,-2.0
1701799342.0556662,-1.0,-1.0,7.0,1.0,5.0,4.0,-13.0,-6.0
1701799342.0556662,4.0,-2.0,-12.0,0.0,3.0,2.0,3.0,-6.0
1701799342.0556662,-7.0,-2.0,3.0,-3.0,-7.0,-6.0,0.0,-8.0
1701799342.1037025,4.0,2.0,-6.0,-2.0,-4.0,-9.0,1.0,4.0
1701799342.1037025,-6.0,-7.0,-2.0,-3.0,-5.0,-7.0,-10.0,-3.0
1701799342.1037025,6.0,0.0,7.0,0.0,2.0,2.0,6.0,3.0
1701799342.1037025,-10.0,5.0,-10.0,-2.0,2.0,3.0,-10.0,-29.0
1701799342.1078856,-5.0,3.0,24.0,6.0,-4.0,10.0,22.0,31.0
1701799342.1078856,8.0,-6.0,-18.0,-12.0,-1.0,-5.0,-6.0,3.0
1701799342.1078856,-1.0,3.0,-18.0,2.0,9.0,6.0,1.0,2.0
1701799342.1078856,-10.0,4.0,12.0,0.0,-4.0,-4.0,2.0,2.0
1701799342.108925,4.0,6.0,-38.0,3.0,17.0,2.0,-1.0,-8.0
1701799342.108925,12.0,-4.0,14.0,-1.0,-6.0,-1.0,-5.0,0.0
1701799342.108925,-10.0,-27.0,9.0,-6.0,-13.0,-10.0,-9.0,-7.0
1701799342.108925,-9.0,-1.0,5.0,-12.0,-16.0,-4.0,1.0,3.0
1701799342.1394956,8.0,6.0,-3.0,27.0,21.0,6.0,5.0,-3.0
1701799342.1394956,2.0,28.0,-22.0,-20.0,-10.0,-5.0,-7.0,-3.0
1701799342.1394956,-2.0,-25.0,3.0,4.0,2.0,1.0,2.0,-3.0
1701799342.1394956,-5.0,-5.0,1.0,-9.0,-7.0,0.0,4.0,6.0
1701799342.1394956,-2.0,1.0,29.0,3.0,-4.0,-2.0,-2.0,-4.0
1701799342.1394956,8.0,40.0,10.0,5.0,3.0,-3.0,-5.0,-2.0
1701799342.1394956,19.0,5.0,-5.0,-8.0,-4.0,0.0,4.0,5.0
1701799342.143412,-47.0,-74.0,-1.0,0.0,-3.0,-4.0,-6.0,-5.0
1701799342.1548176,1.0,5.0,-24.0,1.0,-3.0,-2.0,-2.0,-6.0
1701799342.1548176,-10.0,-11.0,16.0,0.0,8.0,-1.0,-3.0,-6.0
1701799342.1548176,9.0,56.0,-43.0,-12.0,-6.0,0.0,4.0,7.0
1701799342.1548176,12.0,2.0,8.0,10.0,3.0,1.0,-3.0,-2.0
1701799342.210485,-4.0,-36.0,-14.0,-4.0,-2.0,-1.0,-5.0,-12.0
1701799342.210485,-2.0,20.0,50.0,6.0,-2.0,-1.0,0.0,2.0
1701799342.210485,-2.0,2.0,20.0,8.0,3.0,0.0,3.0,0.0
1701799342.210485,8.0,20.0,-28.0,-7.0,3.0,2.0,0.0,3.0
1701799342.210485,-5.0,-14.0,-3.0,-15.0,-9.0,-2.0,-1.0,-3.0
1701799342.210485,6.0,5.0,-2.0,6.0,1.0,4.0,1.0,1.0
1701799342.210485,0.0,-16.0,13.0,12.0,4.0,1.0,-3.0,-3.0
1701799342.210485,0.0,19.0,1.0,-1.0,-5.0,-3.0,-3.0,4.0
1701799342.216835,-3.0,-14.0,29.0,3.0,4.0,-1.0,-3.0,-4.0
1701799342.216835,-4.0,-22.0,-44.0,-17.0,-12.0,-7.0,-4.0,-1.0
1701799342.2178352,-3.0,6.0,43.0,19.0,18.0,7.0,1.0,3.0
1701799342.2178352,0.0,1.0,6.0,12.0,0.0,-5.0,-1.0,-1.0
1701799342.2529433,-1.0,5.0,-32.0,-22.0,-8.0,-3.0,-5.0,0.0
1701799342.2529433,-7.0,-24.0,-15.0,-2.0,0.0,0.0,1.0,-3.0
1701799342.2529433,0.0,16.0,-11.0,-9.0,-7.0,-2.0,0.0,0.0
1701799342.2529433,4.0,-12.0,3.0,0.0,2.0,0.0,2.0,2.0
1701799342.260713,3.0,9.0,41.0,2.0,-2.0,-1.0,2.0,0.0
1701799342.260713,-5.0,-10.0,-45.0,3.0,0.0,-4.0,-4.0,1.0
1701799342.260713,-7.0,-34.0,-12.0,-11.0,-11.0,-5.0,-4.0,-5.0
1701799342.260713,1.0,28.0,12.0,6.0,11.0,5.0,2.0,-3.0
1701799342.324629,3.0,-6.0,-12.0,-3.0,-5.0,-2.0,0.0,5.0
1701799342.324629,-1.0,-20.0,-8.0,-1.0,-1.0,-3.0,-5.0,-4.0
1701799342.324629,-8.0,10.0,2.0,1.0,-5.0,-4.0,-2.0,-7.0
1701799342.324629,5.0,-3.0,-6.0,-2.0,-3.0,-1.0,6.0,10.0
1701799342.324629,2.0,5.0,-13.0,-9.0,-8.0,-4.0,-5.0,-2.0
1701799342.324629,4.0,5.0,19.0,14.0,17.0,9.0,-1.0,3.0
1701799342.324629,3.0,-6.0,1.0,0.0,-1.0,0.0,4.0,0.0
1701799342.324629,0.0,-16.0,-16.0,-7.0,-4.0,0.0,-1.0,0.0
1701799342.324629,-11.0,9.0,-1.0,-6.0,-1.0,-2.0,-3.0,-9.0
1701799342.325627,-5.0,-10.0,17.0,4.0,-3.0,-3.0,-13.0,-2.0
1701799342.325627,-5.0,-8.0,-7.0,0.0,2.0,6.0,25.0,1.0
1701799342.325627,8.0,20.0,-2.0,0.0,1.0,1.0,-2.0,2.0
1701799342.3640604,-4.0,-1.0,-6.0,-4.0,-6.0,-5.0,-3.0,0.0
1701799342.3640604,7.0,8.0,4.0,-3.0,-3.0,-2.0,3.0,1.0
1701799342.3640604,-14.0,-16.0,-6.0,-2.0,2.0,-1.0,-10.0,-3.0
1701799342.3640604,12.0,0.0,-3.0,-3.0,-1.0,-3.0,-1.0,-1.0
1701799342.3640604,-3.0,0.0,-3.0,-5.0,-3.0,-2.0,-2.0,-5.0
1701799342.3640604,-1.0,-3.0,-2.0,-4.0,-4.0,-3.0,0.0,8.0
1701799342.3640604,3.0,10.0,7.0,9.0,-1.0,-2.0,-7.0,-3.0
1701799342.3640604,0.0,18.0,-6.0,-1.0,-1.0,2.0,4.0,0.0
1701799342.3793375,-8.0,-14.0,6.0,-2.0,1.0,-1.0,-7.0,-15.0
1701799342.3793375,-12.0,-28.0,-13.0,-3.0,-2.0,-1.0,0.0,-7.0
1701799342.3793375,-1.0,-11.0,9.0,-2.0,0.0,-1.0,-3.0,4.0
1701799342.3793375,-4.0,9.0,-2.0,6.0,10.0,0.0,-3.0,-3.0
1701799342.3969078,6.0,15.0,-24.0,-2.0,-2.0,0.0,3.0,4.0
1701799342.3969078,0.0,18.0,2.0,-10.0,-5.0,-3.0,4.0,-1.0
1701799342.3969078,-2.0,-14.0,5.0,8.0,-9.0,-4.0,-5.0,-2.0
1701799342.3969078,-4.0,-5.0,-17.0,1.0,8.0,0.0,-2.0,-1.0
1701799342.4533293,8.0,-1.0,3.0,-2.0,2.0,0.0,3.0,4.0
1701799342.4533293,-5.0,4.0,3.0,-2.0,-2.0,1.0,2.0,-6.0
1701799342.4533293,4.0,7.0,-11.0,-23.0,-8.0,-6.0,-7.0,-6.0
1701799342.4533293,-3.0,5.0,24.0,2.0,-14.0,-5.0,-3.0,-1.0
1701799342.4879453,-2.0,-14.0,1.0,8.0,7.0,4.0,2.0,1.0
1701799342.4879453,-1.0,-9.0,5.0,22.0,3.0,-2.0,-6.0,-4.0
1701799342.4879453,4.0,13.0,-6.0,-10.0,-3.0,-2.0,-6.0,-3.0
1701799342.4879453,3.0,-4.0,-6.0,-1.0,-1.0,3.0,6.0,18.0
1701799342.4879453,-4.0,-6.0,3.0,-7.0,-11.0,-7.0,-7.0,-7.0
1701799342.4879453,-7.0,9.0,-26.0,-11.0,-2.0,0.0,-5.0,-5.0
1701799342.4879453,-5.0,-4.0,11.0,3.0,5.0,0.0,15.0,10.0
1701799342.4879453,-3.0,-6.0,-8.0,-2.0,-1.0,-1.0,-4.0,-11.0
1701799342.4879453,1.0,3.0,-2.0,-3.0,-4.0,-2.0,-1.0,0.0
1701799342.4879453,-3.0,-1.0,6.0,-4.0,2.0,-1.0,0.0,0.0
1701799342.4889472,-2.0,10.0,0.0,4.0,-3.0,-7.0,-9.0,-6.0
1701799342.4889472,-8.0,-11.0,0.0,-4.0,-2.0,0.0,1.0,-4.0
1701799342.5473826,2.0,13.0,10.0,4.0,-2.0,-4.0,-2.0,2.0
1701799342.5473826,-2.0,-5.0,0.0,-3.0,-1.0,-3.0,-2.0,1.0
1701799342.5473826,1.0,-16.0,-1.0,-2.0,-1.0,-2.0,-5.0,-4.0
1701799342.5473826,-3.0,9.0,13.0,-3.0,-4.0,-3.0,-1.0,0.0
1701799342.5473826,-2.0,2.0,9.0,-3.0,2.0,4.0,2.0,-6.0
1701799342.5473826,4.0,0.0,-3.0,-1.0,-9.0,-4.0,2.0,7.0
1701799342.5473826,0.0,5.0,-13.0,-2.0,-2.0,-2.0,-4.0,-6.0
1701799342.5473826,1.0,-9.0,18.0,8.0,10.0,3.0,-1.0,-7.0
1701799342.5473826,1.0,12.0,-32.0,-5.0,-1.0,1.0,1.0,2.0
1701799342.5473826,-3.0,-20.0,-20.0,2.0,-3.0,-1.0,1.0,-1.0
1701799342.5484388,1.0,18.0,47.0,20.0,-4.0,-1.0,-2.0,1.0
1701799342.5484388,-7.0,-22.0,-24.0,-6.0,-3.0,-5.0,-4.0,-6.0
1701799342.6099179,4.0,0.0,2.0,5.0,4.0,1.0,2.0,3.0
1701799342.6099179,2.0,-23.0,14.0,-8.0,-2.0,0.0,6.0,3.0
1701799342.6099179,-11.0,6.0,-5.0,-5.0,3.0,1.0,-2.0,-5.0
1701799342.6099179,-8.0,11.0,12.0,-3.0,-8.0,-1.0,1.0,-7.0
1701799342.6234915,8.0,-2.0,-4.0,0.0,1.0,-1.0,-2.0,2.0
1701799342.6234915,5.0,4.0,2.0,-9.0,-2.0,0.0,1.0,3.0
1701799342.6234915,5.0,-3.0,0.0,5.0,0.0,-1.0,-4.0,5.0
1701799342.6234915,-4.0,8.0,-11.0,-5.0,-1.0,-3.0,1.0,4.0
1701799342.6234915,-6.0,-33.0,7.0,-3.0,-4.0,-4.0,-7.0,-7.0
1701799342.6234915,1.0,-1.0,-10.0,-6.0,-1.0,-2.0,-8.0,-7.0
1701799342.6245534,-1.0,-2.0,-9.0,5.0,1.0,0.0,1.0,3.0
1701799342.6245534,6.0,3.0,-5.0,0.0,7.0,5.0,10.0,4.0
1701799342.6575255,-6.0,6.0,5.0,4.0,-2.0,-2.0,6.0,12.0
1701799342.6575255,2.0,12.0,4.0,-2.0,-5.0,-6.0,-21.0,-16.0
1701799342.6575255,1.0,-3.0,-14.0,-11.0,0.0,4.0,24.0,7.0
1701799342.6575255,-1.0,-17.0,1.0,-5.0,-10.0,-4.0,1.0,-2.0
1701799342.6585653,-2.0,-7.0,2.0,10.0,13.0,6.0,5.0,-3.0
1701799342.6585653,-4.0,7.0,12.0,3.0,-2.0,-1.0,-3.0,-1.0
1701799342.6585653,0.0,7.0,-17.0,-8.0,-2.0,-4.0,-6.0,-6.0
1701799342.6585653,3.0,-15.0,5.0,1.0,-1.0,-3.0,-13.0,2.0
1701799342.6596394,-11.0,-6.0,5.0,-2.0,-5.0,-8.0,-21.0,2.0
1701799342.660581,3.0,0.0,-27.0,0.0,0.0,2.0,15.0,4.0
1701799342.6608381,-4.0,-3.0,4.0,-3.0,4.0,6.0,18.0,3.0
1701799342.6608381,-3.0,0.0,-1.0,-11.0,-8.0,2.0,1.0,-2.0
1701799342.6986666,2.0,10.0,6.0,6.0,-5.0,-6.0,-3.0,-4.0
1701799342.6986666,0.0,-12.0,10.0,10.0,9.0,0.0,-9.0,-4.0
1701799342.6986666,-1.0,0.0,-12.0,-3.0,-1.0,-2.0,-10.0,-3.0
1701799342.6986666,3.0,16.0,3.0,1.0,-3.0,-2.0,2.0,-1.0
1701799342.6986666,-4.0,1.0,-10.0,-12.0,-7.0,-10.0,-12.0,-6.0
1701799342.6986666,-9.0,-17.0,-4.0,-7.0,-9.0,-4.0,4.0,2.0
1701799342.6986666,4.0,5.0,-27.0,6.0,9.0,8.0,0.0,-1.0
1701799342.6986666,-5.0,-13.0,-5.0,-2.0,11.0,-4.0,-9.0,-8.0
1701799342.7162127,4.0,6.0,12.0,-2.0,-5.0,1.0,6.0,-1.0
1701799342.7162127,2.0,5.0,2.0,0.0,2.0,2.0,7.0,2.0
1701799342.7215912,-6.0,-11.0,7.0,9.0,-6.0,-5.0,-8.0,-3.0
1701799342.7215912,0.0,6.0,6.0,16.0,2.0,-1.0,-4.0,-2.0
1701799342.7803676,-1.0,-3.0,-11.0,-17.0,1.0,4.0,6.0,0.0
1701799342.7803676,-2.0,-4.0,6.0,-3.0,-12.0,-6.0,0.0,-2.0
1701799342.7803676,4.0,9.0,13.0,-7.0,14.0,2.0,-6.0,2.0
1701799342.7803676,-1.0,-3.0,-23.0,-8.0,-8.0,-2.0,0.0,-1.0
1701799342.7803676,-3.0,-2.0,21.0,9.0,-7.0,0.0,4.0,-3.0
1701799342.7803676,0.0,8.0,4.0,-2.0,7.0,8.0,1.0,3.0
1701799342.7803676,-1.0,5.0,-5.0,-2.0,-6.0,-2.0,-6.0,-6.0
1701799342.7803676,1.0,-21.0,-3.0,3.0,-1.0,1.0,1.0,-3.0
1701799342.7803676,-10.0,-25.0,-33.0,-11.0,2.0,0.0,2.0,3.0
1701799342.7803676,-1.0,24.0,27.0,5.0,-1.0,3.0,2.0,-3.0
1701799342.7813735,-2.0,-22.0,-13.0,-9.0,-7.0,-7.0,-7.0,-3.0
1701799342.7813735,-11.0,8.0,4.0,-5.0,-2.0,-4.0,-5.0,3.0
1701799342.8342445,4.0,11.0,-1.0,4.0,1.0,2.0,-3.0,-9.0
1701799342.8342445,1.0,-4.0,-4.0,4.0,4.0,-1.0,-7.0,-4.0
1701799342.8342445,-3.0,-5.0,-7.0,-9.0,-7.0,-6.0,6.0,9.0
1701799342.8342445,0.0,1.0,7.0,0.0,-3.0,0.0,-16.0,-4.0
1701799342.8342445,4.0,4.0,-7.0,-1.0,3.0,-2.0,-17.0,-3.0
1701799342.8342445,-5.0,11.0,-1.0,3.0,4.0,7.0,37.0,12.0
1701799342.8342445,3.0,-2.0,2.0,-2.0,-8.0,-2.0,-9.0,-10.0
1701799342.8342445,-5.0,2.0,-3.0,-6.0,-1.0,1.0,8.0,1.0
1701799342.8404546,1.0,6.0,1.0,3.0,-1.0,-5.0,-9.0,-11.0
1701799342.8404546,0.0,3.0,2.0,-1.0,2.0,-3.0,-16.0,-3.0
1701799342.8412561,-7.0,-6.0,-2.0,3.0,5.0,3.0,-3.0,-3.0
1701799342.8412561,0.0,-7.0,3.0,0.0,-1.0,-4.0,-3.0,-4.0
1701799342.889964,0.0,3.0,-3.0,-3.0,-6.0,-5.0,-8.0,-1.0
1701799342.889964,0.0,1.0,-4.0,1.0,-2.0,2.0,18.0,3.0
1701799342.889964,3.0,4.0,-3.0,-3.0,1.0,-2.0,4.0,5.0
1701799342.889964,-18.0,2.0,6.0,-6.0,-2.0,0.0,2.0,0.0
1701799342.8923104,15.0,4.0,11.0,5.0,2.0,1.0,1.0,-11.0
1701799342.8923104,4.0,8.0,-25.0,-3.0,-3.0,-5.0,-5.0,8.0
1701799342.8923104,-5.0,-3.0,15.0,-2.0,-5.0,-4.0,-6.0,-3.0
1701799342.8923104,15.0,4.0,-20.0,-1.0,3.0,0.0,0.0,2.0
1701799342.9157276,-13.0,-22.0,-3.0,-3.0,-2.0,-1.0,3.0,5.0
1701799342.9157276,-5.0,-8.0,-1.0,3.0,1.0,-2.0,-8.0,-7.0
1701799342.9157276,7.0,12.0,15.0,0.0,-6.0,-3.0,-3.0,0.0
1701799342.9157276,-4.0,-20.0,-10.0,-2.0,1.0,1.0,3.0,-1.0
1701799342.922468,-1.0,2.0,20.0,2.0,-6.0,-2.0,5.0,4.0
1701799342.922468,5.0,10.0,-4.0,6.0,13.0,3.0,-2.0,0.0
1701799342.9233031,-4.0,-7.0,-10.0,-6.0,-1.0,1.0,0.0,4.0
1701799342.9233031,2.0,3.0,7.0,-2.0,-3.0,-3.0,-1.0,-5.0
1701799342.9367988,-4.0,-6.0,-20.0,-8.0,-5.0,0.0,3.0,-2.0
1701799342.9367988,-3.0,-12.0,1.0,-1.0,-2.0,-4.0,-7.0,-5.0
1701799342.9456217,0.0,-1.0,-12.0,-4.0,-8.0,-4.0,-3.0,-3.0
1701799342.9456217,4.0,13.0,-2.0,5.0,5.0,3.0,1.0,0.0
1701799343.0113692,0.0,7.0,-7.0,4.0,12.0,3.0,5.0,5.0
1701799343.0113692,-5.0,-2.0,12.0,-13.0,-16.0,-6.0,-6.0,-5.0
1701799343.0113692,-2.0,-7.0,14.0,-6.0,2.0,0.0,-3.0,-7.0
1701799343.0113692,1.0,1.0,-6.0,5.0,-7.0,-4.0,-1.0,0.0
1701799343.0113692,-3.0,-2.0,0.0,-1.0,-3.0,0.0,1.0,2.0
1701799343.0113692,1.0,-3.0,-4.0,-3.0,-3.0,-1.0,-1.0,-2.0
1701799343.0113692,-1.0,1.0,-13.0,-6.0,-5.0,-1.0,-1.0,-4.0
1701799343.0113692,0.0,3.0,6.0,-4.0,3.0,2.0,0.0,-2.0
1701799343.0113692,-1.0,-5.0,4.0,1.0,-2.0,0.0,1.0,3.0
1701799343.0123703,0.0,1.0,-3.0,9.0,-1.0,-3.0,-3.0,-1.0
1701799343.0123703,-1.0,-3.0,-4.0,1.0,3.0,1.0,-3.0,-1.0
1701799343.0123703,-2.0,-4.0,5.0,-7.0,-7.0,0.0,-1.0,-3.0
1701799343.0626762,3.0,9.0,2.0,12.0,6.0,3.0,3.0,2.0
1701799343.0626762,-5.0,-1.0,-1.0,-10.0,-12.0,-4.0,-4.0,-6.0
1701799343.0626762,-1.0,-6.0,2.0,8.0,14.0,4.0,3.0,2.0
1701799343.0626762,0.0,0.0,3.0,2.0,0.0,-6.0,-3.0,-2.0
1701799343.0666728,-4.0,3.0,-7.0,-6.0,1.0,-2.0,-1.0,-2.0
1701799343.0666728,2.0,2.0,5.0,1.0,-5.0,1.0,2.0,4.0
1701799343.0666728,2.0,2.0,-4.0,5.0,-3.0,-2.0,1.0,-2.0
1701799343.0666728,-3.0,-3.0,-1.0,-5.0,-2.0,-3.0,-5.0,0.0
1701799343.067717,-1.0,7.0,-1.0,-7.0,-11.0,-4.0,-1.0,-3.0
1701799343.067717,-3.0,-18.0,7.0,9.0,13.0,2.0,-1.0,0.0
1701799343.067717,-1.0,-3.0,-11.0,-11.0,-9.0,-6.0,-2.0,1.0
1701799343.067717,2.0,6.0,-2.0,0.0,3.0,3.0,1.0,-2.0
1701799343.1063037,-2.0,-10.0,2.0,9.0,4.0,0.0,1.0,-3.0
1701799343.1063037,-2.0,0.0,-3.0,4.0,4.0,2.0,-2.0,-1.0
1701799343.1063037,-2.0,-1.0,-2.0,1.0,-3.0,-1.0,-1.0,-4.0
1701799343.1063037,1.0,4.0,11.0,5.0,-3.0,-2.0,-4.0,-2.0
1701799343.1063037,1.0,5.0,-9.0,-8.0,-7.0,0.0,4.0,5.0
1701799343.1063037,0.0,0.0,-4.0,-24.0,-6.0,-5.0,0.0,0.0
1701799343.1063037,-3.0,1.0,2.0,8.0,-8.0,0.0,-3.0,-1.0
1701799343.1063037,-2.0,1.0,4.0,10.0,10.0,-1.0,-2.0,1.0
1701799343.1322336,-3.0,-5.0,6.0,8.0,-4.0,-3.0,-1.0,-2.0
1701799343.1322336,-1.0,7.0,-10.0,-17.0,-11.0,-6.0,-5.0,-3.0
1701799343.1322336,-2.0,-16.0,-41.0,-39.0,-12.0,-3.0,-3.0,-3.0
1701799343.1322336,-1.0,5.0,32.0,32.0,29.0,13.0,5.0,2.0
1701799343.1334085,-1.0,11.0,1.0,6.0,2.0,-1.0,0.0,-2.0
1701799343.1334085,-2.0,-14.0,26.0,23.0,-1.0,-1.0,0.0,-3.0
1701799343.1334085,-2.0,11.0,-43.0,-28.0,-11.0,-6.0,-2.0,-2.0
1701799343.1334085,-1.0,0.0,-31.0,-24.0,-15.0,-4.0,0.0,1.0
1701799343.1634862,-4.0,-17.0,-2.0,-5.0,1.0,-1.0,-1.0,1.0
1701799343.1634862,-1.0,7.0,10.0,2.0,1.0,1.0,0.0,-2.0
1701799343.1634862,1.0,-6.0,12.0,20.0,10.0,2.0,2.0,1.0
1701799343.1634862,0.0,-4.0,-38.0,-7.0,8.0,4.0,1.0,1.0
1701799343.2260354,1.0,9.0,19.0,2.0,-10.0,-2.0,-3.0,-2.0
1701799343.2260354,-3.0,-14.0,-5.0,-5.0,1.0,-2.0,-2.0,-2.0
1701799343.2260354,-1.0,8.0,22.0,18.0,5.0,2.0,1.0,0.0
1701799343.2260354,2.0,-1.0,1.0,-21.0,-15.0,-7.0,-2.0,-2.0
1701799343.2260354,-4.0,-12.0,-5.0,7.0,9.0,0.0,0.0,0.0
1701799343.2260354,4.0,13.0,15.0,31.0,27.0,9.0,2.0,3.0
1701799343.227038,1.0,18.0,10.0,0.0,-1.0,-3.0,-3.0,-2.0
1701799343.227038,-7.0,-17.0,-20.0,-5.0,-6.0,-2.0,-2.0,0.0
1701799343.229784,2.0,1.0,17.0,-15.0,-11.0,-3.0,-3.0,-4.0
1701799343.229784,-3.0,-19.0,2.0,-8.0,-8.0,-4.0,1.0,4.0
1701799343.229784,-14.0,-4.0,13.0,4.0,-6.0,-5.0,-7.0,-6.0
1701799343.229784,10.0,28.0,31.0,10.0,7.0,1.0,2.0,2.0
1701799343.2747028,-6.0,-8.0,-37.0,-29.0,-14.0,-7.0,-6.0,-7.0
1701799343.2747028,1.0,-13.0,-68.0,2.0,-9.0,4.0,4.0,-1.0
1701799343.2747028,1.0,5.0,43.0,10.0,6.0,-2.0,-2.0,-2.0
1701799343.2747028,-1.0,-7.0,26.0,-4.0,-10.0,-3.0,0.0,1.0
1701799343.2747028,0.0,-7.0,-65.0,3.0,9.0,6.0,3.0,1.0
1701799343.2747028,3.0,60.0,42.0,-9.0,-8.0,-6.0,-7.0,-4.0
1701799343.2747028,-4.0,-88.0,-13.0,-18.0,-10.0,-3.0,-3.0,-2.0
1701799343.2747028,-6.0,4.0,-8.0,12.0,-2.0,-2.0,0.0,-4.0
1701799343.3199503,10.0,31.0,29.0,17.0,13.0,6.0,7.0,7.0
1701799343.3199503,4.0,38.0,12.0,7.0,-1.0,-1.0,-1.0,-1.0
1701799343.3199503,-23.0,-53.0,-55.0,-42.0,-23.0,-12.0,-10.0,-9.0
1701799343.3199503,-1.0,2.0,-20.0,13.0,9.0,1.0,-1.0,0.0
1701799343.3199503,-4.0,-22.0,30.0,-4.0,5.0,0.0,-2.0,-1.0
1701799343.3199503,0.0,1.0,-18.0,-8.0,-4.0,-3.0,-1.0,-1.0
1701799343.3259244,7.0,16.0,10.0,19.0,14.0,6.0,5.0,4.0
1701799343.3259244,-4.0,-9.0,-9.0,-19.0,-16.0,-6.0,-4.0,-3.0
1701799343.3336728,-3.0,4.0,49.0,6.0,-6.0,-4.0,1.0,-1.0
1701799343.3336728,-1.0,-14.0,-48.0,-4.0,7.0,-2.0,-5.0,-4.0
1701799343.3336728,9.0,-17.0,-12.0,11.0,16.0,9.0,3.0,2.0
1701799343.3336728,3.0,44.0,46.0,2.0,-5.0,-3.0,-2.0,-4.0
1701799343.380239,6.0,-3.0,64.0,-1.0,-3.0,2.0,2.0,2.0
1701799343.380239,-32.0,-56.0,3.0,-16.0,-11.0,-6.0,-5.0,-7.0
1701799343.380239,1.0,24.0,-20.0,4.0,0.0,1.0,-1.0,-1.0
1701799343.380239,3.0,1.0,29.0,10.0,4.0,-1.0,-6.0,-2.0
1701799343.3839157,2.0,15.0,-4.0,2.0,4.0,1.0,0.0,6.0
1701799343.3839157,4.0,-10.0,-13.0,-6.0,-4.0,3.0,7.0,0.0
1701799343.3839157,-1.0,19.0,18.0,5.0,2.0,-1.0,-5.0,-4.0
1701799343.3839157,0.0,-13.0,-14.0,-3.0,-2.0,-4.0,-10.0,-10.0
1701799343.3839157,-3.0,-7.0,-36.0,-13.0,-5.0,-4.0,2.0,0.0
1701799343.3839157,18.0,-4.0,3.0,3.0,8.0,4.0,26.0,26.0
1701799343.3839157,-41.0,12.0,11.0,-1.0,0.0,1.0,3.0,-11.0
1701799343.3839157,42.0,11.0,-4.0,-3.0,-1.0,-1.0,4.0,-1.0
1701799343.4318376,-20.0,-18.0,-48.0,-7.0,-3.0,-5.0,-13.0,-8.0
1701799343.4318376,1.0,12.0,51.0,6.0,2.0,-2.0,-11.0,-7.0
1701799343.4318376,14.0,23.0,44.0,14.0,5.0,4.0,1.0,7.0
1701799343.4318376,-17.0,-24.0,-25.0,-8.0,-7.0,-7.0,-8.0,-5.0
1701799343.4318376,2.0,2.0,-8.0,0.0,-2.0,0.0,-2.0,-4.0
1701799343.4318376,2.0,-2.0,-34.0,-5.0,1.0,-1.0,-1.0,-1.0
1701799343.4318376,7.0,-3.0,-2.0,2.0,0.0,-2.0,1.0,0.0
1701799343.4328768,-9.0,-12.0,-5.0,-15.0,-6.0,1.0,-3.0,-10.0
1701799343.4389987,18.0,6.0,-11.0,11.0,4.0,-1.0,8.0,17.0
1701799343.4389987,-19.0,-1.0,17.0,0.0,-5.0,-9.0,-16.0,-24.0
1701799343.4409316,17.0,10.0,-14.0,-8.0,-3.0,-3.0,-2.0,15.0
1701799343.4409316,-28.0,-37.0,-14.0,1.0,1.0,11.0,17.0,-5.0
1701799343.5040152,-5.0,1.0,-17.0,-18.0,-4.0,-2.0,-5.0,1.0
1701799343.5040152,0.0,-2.0,5.0,1.0,-4.0,-9.0,-25.0,-1.0
1701799343.5040152,-5.0,11.0,-2.0,6.0,1.0,-1.0,1.0,-10.0
1701799343.5040152,34.0,11.0,3.0,0.0,1.0,2.0,24.0,11.0
1701799343.5040152,-6.0,-3.0,2.0,-1.0,1.0,3.0,13.0,9.0
1701799343.5040152,12.0,-32.0,-52.0,-12.0,-4.0,-1.0,0.0,-6.0
1701799343.5040152,-20.0,4.0,9.0,-4.0,-1.0,-3.0,-10.0,-7.0
1701799343.5040152,-34.0,-28.0,-10.0,2.0,-3.0,-6.0,-17.0,-11.0
1701799343.5040152,3.0,-6.0,-7.0,1.0,3.0,2.0,-5.0,-10.0
1701799343.5040152,17.0,15.0,17.0,2.0,-4.0,-6.0,-10.0,-5.0
1701799343.5040152,-15.0,-13.0,-14.0,3.0,0.0,2.0,0.0,4.0
1701799343.5040152,7.0,21.0,1.0,-4.0,-1.0,1.0,9.0,11.0
1701799343.5403132,3.0,8.0,29.0,5.0,2.0,-2.0,0.0,-7.0
1701799343.5403132,-9.0,-15.0,-33.0,2.0,0.0,5.0,12.0,13.0
1701799343.5403132,29.0,-8.0,-36.0,-14.0,-7.0,-5.0,-1.0,-1.0
1701799343.5403132,-17.0,3.0,-7.0,-11.0,-4.0,-4.0,-9.0,-4.0
1701799343.5424302,-4.0,6.0,4.0,7.0,0.0,-2.0,-7.0,-4.0
1701799343.5424302,1.0,14.0,13.0,1.0,-1.0,0.0,1.0,-6.0
1701799343.5424302,38.0,-2.0,16.0,1.0,-2.0,-5.0,-4.0,-3.0
1701799343.5424302,-49.0,-7.0,-4.0,3.0,3.0,2.0,-2.0,6.0
1701799343.5553627,5.0,-17.0,-18.0,-1.0,-4.0,-4.0,-11.0,-10.0
1701799343.5553627,-28.0,4.0,20.0,2.0,-1.0,0.0,6.0,13.0
1701799343.5619078,12.0,23.0,18.0,7.0,5.0,11.0,45.0,18.0
1701799343.5619078,5.0,4.0,-6.0,-10.0,-6.0,-3.0,-10.0,-11.0
1701799343.6179025,-11.0,-2.0,1.0,-2.0,-1.0,-1.0,-2.0,-10.0
1701799343.6179025,14.0,-3.0,11.0,-1.0,3.0,4.0,-3.0,-1.0
1701799343.6179025,-3.0,5.0,-19.0,-3.0,-4.0,-8.0,-19.0,-14.0
1701799343.6189382,1.0,-5.0,5.0,3.0,2.0,-2.0,-4.0,17.0
1701799343.6189382,66.0,28.0,66.0,25.0,5.0,6.0,17.0,12.0
1701799343.6189382,-43.0,-31.0,-92.0,-46.0,-14.0,-8.0,-8.0,-4.0
1701799343.6189382,-7.0,-6.0,-11.0,-2.0,-2.0,-2.0,-6.0,2.0
1701799343.6189382,-12.0,3.0,8.0,3.0,0.0,-2.0,-3.0,-10.0
1701799343.6189382,-10.0,1.0,7.0,2.0,0.0,-3.0,-19.0,-6.0
1701799343.6189382,28.0,-1.0,29.0,10.0,5.0,0.0,-1.0,16.0
1701799343.6189382,-8.0,13.0,19.0,2.0,2.0,6.0,12.0,-7.0
1701799343.6189382,5.0,-9.0,-21.0,-4.0,-2.0,-4.0,-12.0,12.0
1701799343.6567242,-10.0,-22.0,-20.0,-9.0,-3.0,3.0,22.0,6.0
1701799343.6567242,22.0,34.0,6.0,8.0,3.0,5.0,14.0,-14.0
1701799343.6567242,8.0,-3.0,10.0,1.0,-1.0,0.0,2.0,14.0
1701799343.6567242,4.0,4.0,10.0,4.0,1.0,-1.0,-6.0,-8.0
1701799343.6648715,10.0,-6.0,-39.0,-17.0,-6.0,-7.0,-20.0,4.0
1701799343.6648715,-5.0,-4.0,15.0,2.0,-1.0,-2.0,-5.0,-20.0
1701799343.6659286,-16.0,-12.0,5.0,-2.0,-4.0,-2.0,2.0,-20.0
1701799343.6659286,16.0,5.0,0.0,5.0,1.0,1.0,6.0,14.0
1701799343.677834,-31.0,-4.0,-11.0,-5.0,-4.0,-10.0,-14.0,-10.0
1701799343.677834,-11.0,0.0,10.0,0.0,-2.0,2.0,-13.0,8.0
1701799343.677834,1.0,1.0,3.0,6.0,4.0,2.0,11.0,-8.0
1701799343.677834,0.0,0.0,0.0,3.0,1.0,0.0,3.0,-6.0
1701799343.7362657,1.0,-9.0,-18.0,-11.0,-9.0,-4.0,3.0,-4.0
1701799343.736756,-17.0,3.0,18.0,4.0,2.0,4.0,10.0,-3.0
1701799343.7433486,-2.0,3.0,-1.0,-5.0,-3.0,-3.0,-16.0,8.0
1701799343.743496,9.0,5.0,-5.0,3.0,2.0,-1.0,-3.0,-8.0
1701799343.743496,-13.0,-4.0,9.0,-1.0,1.0,-3.0,-8.0,-10.0
1701799343.743496,-6.0,-20.0,-11.0,2.0,-1.0,-2.0,-1.0,1.0
1701799343.743496,12.0,-3.0,2.0,1.0,0.0,0.0,-16.0,-8.0
1701799343.743496,10.0,-7.0,5.0,-1.0,-3.0,-2.0,11.0,11.0
1701799343.7732344,-28.0,14.0,-3.0,1.0,2.0,8.0,30.0,6.0
1701799343.7732344,-12.0,-10.0,-1.0,-1.0,-1.0,-1.0,1.0,1.0
1701799343.7732344,-9.0,2.0,-4.0,-6.0,-6.0,-12.0,-23.0,-9.0
1701799343.7732344,24.0,2.0,4.0,2.0,0.0,-2.0,-13.0,-4.0
1701799343.7732344,3.0,-1.0,-2.0,-2.0,1.0,11.0,26.0,15.0
1701799343.7732344,8.0,4.0,7.0,0.0,-3.0,-2.0,7.0,-7.0
1701799343.7732344,-11.0,0.0,-2.0,-1.0,-1.0,3.0,1.0,12.0
1701799343.7732344,-10.0,-17.0,-11.0,-4.0,-4.0,-9.0,-14.0,-11.0
1701799343.784395,4.0,5.0,-3.0,-3.0,-3.0,-4.0,-8.0,-6.0
1701799343.784395,-4.0,-6.0,5.0,-1.0,2.0,-1.0,-1.0,-8.0
1701799343.7856355,-5.0,6.0,6.0,4.0,2.0,-4.0,-2.0,7.0
1701799343.7856355,16.0,1.0,-1.0,-3.0,-3.0,-2.0,5.0,1.0
1701799343.8248622,-2.0,20.0,21.0,-3.0,-4.0,0.0,-4.0,-5.0
1701799343.8248622,-6.0,0.0,-19.0,-2.0,-4.0,-4.0,-7.0,-2.0
1701799343.8248622,-5.0,-26.0,-1.0,8.0,-3.0,-1.0,0.0,1.0
1701799343.8248622,-6.0,-5.0,3.0,3.0,20.0,11.0,8.0,-1.0
1701799343.8248622,-4.0,-2.0,-12.0,-2.0,-7.0,-6.0,-6.0,-5.0
1701799343.8248622,9.0,14.0,11.0,3.0,2.0,2.0,-11.0,-3.0
1701799343.8259125,-1.0,10.0,31.0,8.0,-4.0,1.0,19.0,3.0
1701799343.8259125,-17.0,-4.0,8.0,-23.0,-14.0,-6.0,6.0,1.0
1701799343.8791726,5.0,-25.0,-59.0,-14.0,-5.0,-3.0,-12.0,-3.0
1701799343.8801775,0.0,-1.0,1.0,15.0,21.0,4.0,-2.0,-4.0
1701799343.8801775,-4.0,-2.0,0.0,0.0,-3.0,-1.0,1.0,11.0
1701799343.8801775,-11.0,-31.0,2.0,-1.0,-6.0,-4.0,0.0,-4.0
1701799343.8801775,-5.0,8.0,9.0,-8.0,-11.0,-5.0,-8.0,-2.0
1701799343.8801775,5.0,0.0,10.0,2.0,26.0,11.0,7.0,7.0
1701799343.8801775,-1.0,-4.0,8.0,25.0,2.0,1.0,-2.0,-6.0
1701799343.8801775,-3.0,18.0,-29.0,-14.0,-7.0,-4.0,-5.0,-5.0
1701799343.8801775,0.0,-3.0,-18.0,-1.0,0.0,0.0,-2.0,2.0
1701799343.8801775,-7.0,-14.0,-3.0,-12.0,-12.0,-4.0,0.0,-2.0
1701799343.8801775,2.0,18.0,3.0,-12.0,0.0,1.0,-6.0,-9.0
1701799343.8801775,15.0,12.0,-4.0,-2.0,-3.0,0.0,2.0,10.0
1701799343.8988142,-11.0,-14.0,6.0,10.0,0.0,-2.0,-8.0,-19.0
1701799343.8988142,0.0,-16.0,9.0,-4.0,-6.0,-3.0,-1.0,11.0
1701799343.8988142,8.0,-8.0,-13.0,-26.0,-1.0,5.0,18.0,13.0
1701799343.8988142,-3.0,19.0,9.0,-11.0,-2.0,-1.0,-2.0,-6.0
1701799343.94541,1.0,6.0,-54.0,3.0,2.0,-6.0,-4.0,1.0
1701799343.94541,-1.0,5.0,2.0,6.0,0.0,-5.0,-10.0,-11.0
1701799343.94541,-12.0,-15.0,-6.0,-1.0,-13.0,-7.0,-8.0,-3.0
1701799343.94541,9.0,40.0,23.0,22.0,21.0,9.0,10.0,9.0
1701799343.94541,6.0,-41.0,17.0,-6.0,3.0,-2.0,-3.0,1.0
1701799343.94541,7.0,5.0,-4.0,-12.0,-10.0,-4.0,1.0,-1.0
1701799343.94541,-9.0,-1.0,-21.0,-14.0,3.0,1.0,-3.0,-4.0
1701799343.94541,-4.0,-5.0,6.0,10.0,-9.0,-4.0,-3.0,-6.0
1701799343.9880383,-3.0,18.0,8.0,8.0,9.0,3.0,0.0,2.0
1701799343.9880383,8.0,12.0,54.0,11.0,-5.0,2.0,6.0,4.0
1701799343.9880383,-4.0,-35.0,-69.0,-23.0,-10.0,-7.0,-6.0,-5.0
1701799343.9880383,-1.0,11.0,28.0,17.0,-5.0,-2.0,-2.0,-1.0
1701799343.9880383,-1.0,-3.0,21.0,-17.0,5.0,2.0,0.0,2.0
1701799343.9880383,2.0,-4.0,-94.0,-20.0,2.0,1.0,5.0,4.0
1701799343.9880383,-5.0,-21.0,13.0,-4.0,1.0,-3.0,-7.0,-8.0
1701799343.9880383,-2.0,-6.0,57.0,36.0,5.0,2.0,-3.0,0.0
1701799344.0012147,5.0,-17.0,-50.0,6.0,3.0,5.0,8.0,5.0
1701799344.0012147,-5.0,17.0,25.0,-9.0,-15.0,-11.0,-6.0,-4.0
1701799344.0012147,4.0,18.0,-24.0,-21.0,0.0,-3.0,-4.0,-5.0
1701799344.0012147,-8.0,-31.0,-17.0,-11.0,-3.0,-3.0,-7.0,-9.0
1701799344.0457935,12.0,25.0,42.0,15.0,5.0,3.0,6.0,12.0
1701799344.0467978,-11.0,4.0,-1.0,-1.0,-2.0,2.0,-1.0,-5.0
1701799344.0467978,16.0,8.0,-20.0,10.0,2.0,0.0,1.0,8.0
1701799344.0467978,-2.0,-1.0,36.0,-2.0,-2.0,1.0,10.0,3.0
1701799344.0467978,-4.0,28.0,12.0,-1.0,-1.0,-4.0,-5.0,-5.0
1701799344.0467978,-10.0,-14.0,-23.0,2.0,-7.0,-4.0,-4.0,-4.0
1701799344.0477965,-1.0,13.0,15.0,8.0,0.0,-2.0,-9.0,-9.0
1701799344.0477965,5.0,-25.0,-23.0,-8.0,-1.0,-2.0,-5.0,2.0
1701799344.062827,-8.0,-6.0,6.0,-5.0,-5.0,-4.0,-9.0,-2.0
1701799344.062827,1.0,-3.0,-1.0,5.0,-4.0,-5.0,5.0,-8.0
1701799344.0660968,-4.0,15.0,25.0,4.0,0.0,5.0,7.0,7.0
1701799344.0670936,3.0,3.0,-27.0,-17.0,-8.0,-3.0,-1.0,-3.0
1701799344.1086009,-7.0,-9.0,7.0,13.0,19.0,2.0,-2.0,-6.0
1701799344.1086009,5.0,-1.0,27.0,11.0,1.0,0.0,-8.0,1.0
1701799344.1086009,1.0,10.0,-20.0,-6.0,-1.0,-1.0,-1.0,-5.0
1701799344.1086009,3.0,10.0,-36.0,-8.0,-5.0,-2.0,3.0,-3.0
1701799344.1086009,-16.0,-39.0,1.0,-1.0,-12.0,-9.0,-7.0,-6.0
1701799344.1086009,1.0,10.0,-4.0,-3.0,0.0,1.0,-1.0,7.0
1701799344.109707,-25.0,-21.0,10.0,6.0,5.0,2.0,-2.0,-12.0
1701799344.109707,34.0,10.0,-5.0,-7.0,-8.0,-6.0,-3.0,12.0
1701799344.152866,2.0,6.0,-8.0,-2.0,-7.0,1.0,1.0,0.0
1701799344.152866,8.0,-11.0,-3.0,-7.0,2.0,2.0,2.0,4.0
1701799344.152866,-31.0,5.0,14.0,8.0,-1.0,2.0,6.0,0.0
1701799344.152866,-2.0,-3.0,-8.0,-5.0,2.0,-1.0,1.0,9.0
1701799344.152866,-12.0,11.0,13.0,8.0,-2.0,-3.0,3.0,0.0
1701799344.152866,8.0,-3.0,10.0,3.0,3.0,-2.0,-2.0,-3.0
1701799344.152866,11.0,-1.0,-4.0,-5.0,-1.0,0.0,-3.0,-6.0
1701799344.152866,-19.0,-31.0,-10.0,2.0,4.0,0.0,-3.0,-7.0
1701799344.1539335,4.0,20.0,33.0,-15.0,-7.0,-3.0,-1.0,-5.0
1701799344.1539335,20.0,22.0,-9.0,18.0,0.0,-1.0,5.0,8.0
1701799344.1667104,6.0,-17.0,7.0,4.0,-1.0,1.0,-4.0,-6.0
1701799344.1667104,-12.0,16.0,-2.0,0.0,3.0,3.0,-2.0,8.0
1701799344.1945658,3.0,-11.0,-12.0,-5.0,-6.0,0.0,0.0,-6.0
1701799344.1945658,-3.0,-13.0,12.0,7.0,1.0,1.0,-1.0,1.0
1701799344.1945658,5.0,3.0,8.0,0.0,-1.0,-9.0,-10.0,-15.0
1701799344.1945658,-10.0,-16.0,-8.0,-2.0,-3.0,-2.0,-3.0,2.0
1701799344.1965866,30.0,19.0,-12.0,-6.0,-1.0,-1.0,-3.0,-1.0
1701799344.1965866,-50.0,-2.0,1.0,-4.0,-3.0,0.0,1.0,3.0
1701799344.1965866,16.0,-9.0,-8.0,-2.0,-3.0,-3.0,-8.0,4.0
1701799344.1965866,-3.0,12.0,2.0,-1.0,0.0,2.0,-18.0,-37.0
1701799344.2187006,-3.0,-6.0,-10.0,-2.0,1.0,1.0,19.0,57.0
1701799344.2187006,12.0,-2.0,-10.0,-3.0,-2.0,4.0,11.0,-2.0
1701799344.2214832,35.0,20.0,42.0,3.0,0.0,4.0,12.0,10.0
1701799344.2214832,-62.0,-23.0,-37.0,-5.0,-3.0,-4.0,0.0,-22.0
1701799344.2419245,-1.0,13.0,5.0,-2.0,-4.0,-5.0,-9.0,-15.0
1701799344.2419245,10.0,11.0,10.0,-1.0,0.0,-3.0,-12.0,2.0
1701799344.243523,-17.0,0.0,-8.0,-4.0,0.0,-1.0,-3.0,1.0
1701799344.243523,17.0,-7.0,8.0,8.0,3.0,4.0,-2.0,-12.0
1701799344.3017068,-23.0,-8.0,2.0,2.0,1.0,0.0,-6.0,-15.0
1701799344.3017068,-2.0,6.0,-7.0,-7.0,-4.0,-4.0,-2.0,6.0
1701799344.3017068,4.0,2.0,8.0,-2.0,-1.0,-1.0,2.0,-2.0
1701799344.3017068,19.0,3.0,-7.0,-8.0,-1.0,1.0,6.0,13.0
1701799344.3118453,-11.0,-9.0,-6.0,-6.0,-6.0,-5.0,-10.0,-19.0
1701799344.3118453,-5.0,-10.0,9.0,5.0,1.0,4.0,3.0,1.0
1701799344.3294756,15.0,10.0,-7.0,2.0,1.0,0.0,3.0,9.0
1701799344.331907,-5.0,3.0,1.0,0.0,-1.0,-9.0,-7.0,0.0
1701799344.3506908,9.0,-1.0,-2.0,-1.0,-1.0,-1.0,-1.0,4.0
1701799344.3506908,18.0,3.0,1.0,-5.0,1.0,-3.0,-14.0,-15.0
1701799344.3506908,-18.0,-8.0,-8.0,-3.0,-5.0,-6.0,-19.0,-13.0
1701799344.3506908,-17.0,-11.0,-4.0,-1.0,-1.0,5.0,26.0,17.0
1701799344.3533845,-1.0,-1.0,3.0,-3.0,-4.0,2.0,5.0,-8.0
1701799344.3533845,-12.0,-1.0,-2.0,0.0,-1.0,-2.0,-2.0,-15.0
1701799344.3544466,11.0,-3.0,1.0,1.0,1.0,-2.0,-2.0,24.0
1701799344.3544466,8.0,21.0,3.0,0.0,1.0,-3.0,-13.0,-14.0
1701799344.3952515,7.0,4.0,8.0,5.0,3.0,1.0,-5.0,-12.0
1701799344.3952515,-2.0,-15.0,-14.0,-5.0,-2.0,-2.0,2.0,4.0
1701799344.3952515,-12.0,4.0,3.0,2.0,1.0,1.0,-8.0,8.0
1701799344.3952515,6.0,-2.0,0.0,-3.0,-5.0,-3.0,-1.0,-4.0
1701799344.3952515,-3.0,0.0,5.0,4.0,4.0,6.0,19.0,14.0
1701799344.3952515,22.0,-6.0,4.0,0.0,-1.0,-4.0,-13.0,-13.0
1701799344.3952515,-29.0,-12.0,-3.0,-3.0,1.0,2.0,-2.0,8.0
1701799344.3952515,22.0,0.0,-13.0,-1.0,1.0,1.0,1.0,-7.0
1701799344.3952515,9.0,0.0,-5.0,-3.0,-1.0,-1.0,-1.0,9.0
1701799344.3952515,-57.0,21.0,32.0,-7.0,-7.0,-4.0,5.0,7.0
1701799344.3952515,9.0,5.0,-9.0,2.0,0.0,-5.0,-13.0,-12.0
1701799344.3952515,1.0,-13.0,2.0,1.0,1.0,0.0,3.0,7.0
1701799344.4549687,-3.0,-7.0,-3.0,-2.0,-2.0,-4.0,-5.0,-3.0
1701799344.4549687,23.0,1.0,-14.0,-5.0,-2.0,1.0,4.0,6.0
1701799344.4549687,-3.0,-1.0,7.0,5.0,1.0,-1.0,1.0,-17.0
1701799344.4549687,-9.0,-4.0,4.0,-2.0,-4.0,-3.0,-5.0,16.0
1701799344.4621556,7.0,-1.0,0.0,3.0,2.0,-3.0,-7.0,-7.0
1701799344.4621556,11.0,-4.0,-2.0,-3.0,1.0,3.0,4.0,-5.0
1701799344.4621556,-12.0,1.0,-7.0,-4.0,-4.0,0.0,19.0,14.0
1701799344.4621556,8.0,-4.0,-4.0,-2.0,-1.0,-2.0,-8.0,-9.0
1701799344.4708939,-25.0,-9.0,0.0,-1.0,1.0,-1.0,-7.0,-13.0
1701799344.4708939,2.0,6.0,-8.0,-4.0,-2.0,-2.0,-1.0,-2.0
1701799344.4708939,1.0,-3.0,-6.0,-2.0,-2.0,0.0,18.0,2.0
1701799344.4708939,-9.0,-3.0,12.0,5.0,2.0,0.0,-2.0,-1.0
1701799344.50447,3.0,5.0,-6.0,-2.0,-3.0,-4.0,-6.0,-1.0
1701799344.50447,0.0,-8.0,-8.0,0.0,1.0,1.0,2.0,-3.0
1701799344.5054724,6.0,-5.0,4.0,1.0,-1.0,-1.0,-2.0,3.0
1701799344.5054724,-7.0,22.0,-2.0,1.0,1.0,1.0,3.0,-4.0
1701799344.5081835,-8.0,-62.0,-10.0,-4.0,-3.0,-4.0,-7.0,-9.0
1701799344.5081835,-3.0,4.0,2.0,1.0,-1.0,0.0,-3.0,-4.0
1701799344.5081835,9.0,5.0,-5.0,-2.0,0.0,0.0,1.0,1.0
1701799344.5081835,10.0,6.0,3.0,-2.0,-1.0,-3.0,-2.0,14.0
1701799344.5081835,31.0,21.0,0.0,0.0,-4.0,0.0,3.0,10.0
1701799344.5081835,-24.0,-1.0,3.0,-1.0,1.0,1.0,-1.0,-17.0
1701799344.5081835,5.0,-30.0,-6.0,0.0,2.0,0.0,-8.0,-16.0
1701799344.5081835,-13.0,-5.0,-7.0,-3.0,-2.0,-3.0,1.0,6.0
1701799344.5729759,-12.0,15.0,7.0,-1.0,-3.0,-2.0,-3.0,-10.0
1701799344.5729759,5.0,-6.0,-2.0,-1.0,0.0,-1.0,14.0,24.0
1701799344.5729759,14.0,25.0,11.0,2.0,-1.0,2.0,1.0,1.0
1701799344.5729759,-7.0,-29.0,-20.0,-8.0,-1.0,-3.0,-1.0,0.0
1701799344.5729759,3.0,3.0,3.0,-1.0,-1.0,0.0,0.0,-2.0
1701799344.5729759,-11.0,3.0,13.0,0.0,-3.0,-5.0,-8.0,-5.0
1701799344.5729759,-6.0,10.0,-5.0,-4.0,1.0,1.0,0.0,-13.0
1701799344.5729759,13.0,-9.0,9.0,2.0,1.0,-1.0,-2.0,-1.0
1701799344.5729759,-4.0,4.0,6.0,-3.0,-2.0,-2.0,-1.0,4.0
1701799344.5729759,8.0,0.0,-6.0,1.0,-2.0,1.0,-5.0,-3.0
1701799344.5729759,-7.0,16.0,2.0,1.0,-1.0,0.0,0.0,1.0
1701799344.5729759,-5.0,-14.0,-18.0,-7.0,-8.0,0.0,0.0,-2.0
1701799344.6093693,-2.0,-1.0,-4.0,1.0,5.0,1.0,1.0,-2.0
1701799344.6093693,-3.0,-8.0,-7.0,-6.0,-2.0,-3.0,-2.0,-1.0
1701799344.6093693,-2.0,0.0,-5.0,-3.0,-16.0,-5.0,-1.0,2.0
1701799344.6093693,0.0,10.0,6.0,26.0,29.0,10.0,0.0,-2.0
1701799344.6093693,1.0,-1.0,-17.0,-7.0,-3.0,-3.0,-3.0,2.0
1701799344.6093693,1.0,-15.0,5.0,1.0,2.0,-2.0,-2.0,-1.0
1701799344.6093693,-9.0,-6.0,8.0,1.0,-8.0,-3.0,-5.0,-4.0
1701799344.6104069,1.0,5.0,2.0,0.0,9.0,2.0,1.0,-2.0
1701799344.621525,-2.0,-1.0,-1.0,-3.0,-4.0,-2.0,0.0,2.0
1701799344.621525,7.0,6.0,-13.0,-4.0,2.0,0.0,-1.0,2.0
1701799344.621525,-4.0,-4.0,12.0,-9.0,-2.0,-3.0,-3.0,-4.0
1701799344.621525,-4.0,-3.0,-7.0,8.0,-10.0,-6.0,-3.0,-5.0
1701799344.6890895,-5.0,5.0,-8.0,10.0,1.0,2.0,1.0,-2.0
1701799344.6890895,3.0,-6.0,6.0,1.0,-3.0,2.0,0.0,-5.0
1701799344.6890895,4.0,-4.0,-7.0,4.0,4.0,-2.0,0.0,-2.0
1701799344.6890895,0.0,11.0,7.0,-10.0,-1.0,0.0,0.0,0.0
1701799344.6890895,10.0,0.0,5.0,-2.0,-3.0,-4.0,-2.0,-1.0
1701799344.6890895,-25.0,-10.0,-13.0,-6.0,-7.0,-2.0,-4.0,-5.0
1701799344.6890895,0.0,2.0,-4.0,0.0,5.0,1.0,1.0,5.0
1701799344.6890895,1.0,-4.0,5.0,-4.0,-8.0,-2.0,-3.0,-2.0
1701799344.6901429,-2.0,8.0,-11.0,-6.0,-2.0,-1.0,-5.0,-5.0
1701799344.6901429,3.0,-12.0,28.0,15.0,1.0,1.0,3.0,-1.0
1701799344.6901429,2.0,-10.0,-4.0,3.0,1.0,-1.0,-6.0,-3.0
1701799344.6901429,-7.0,-10.0,-7.0,-10.0,-8.0,-1.0,-8.0,-13.0
1701799344.730766,-13.0,-1.0,7.0,3.0,5.0,5.0,14.0,8.0
1701799344.730766,19.0,-5.0,-7.0,-10.0,-2.0,-3.0,6.0,15.0
1701799344.730766,-6.0,3.0,-3.0,-2.0,-1.0,-1.0,-2.0,0.0
1701799344.730766,0.0,1.0,-3.0,1.0,-4.0,-3.0,0.0,-10.0
1701799344.730766,-3.0,-2.0,-4.0,-6.0,-1.0,-1.0,-7.0,2.0
1701799344.730766,10.0,22.0,3.0,3.0,0.0,1.0,-5.0,-8.0
1701799344.730766,-2.0,-2.0,-5.0,-2.0,0.0,0.0,2.0,4.0
1701799344.730766,-4.0,-2.0,4.0,-1.0,-4.0,-7.0,-3.0,-4.0
1701799344.7455928,-2.0,-4.0,-1.0,1.0,1.0,0.0,-2.0,-2.0
1701799344.7455928,7.0,-8.0,-12.0,-6.0,-5.0,-2.0,-8.0,0.0
1701799344.7462149,-8.0,-6.0,-7.0,-3.0,-2.0,1.0,11.0,1.0
1701799344.7462149,7.0,14.0,-1.0,-6.0,-2.0,0.0,0.0,3.0
1701799344.7859547,-4.0,0.0,1.0,1.0,2.0,-2.0,-2.0,-3.0
1701799344.7859547,-4.0,8.0,2.0,0.0,-2.0,-3.0,-3.0,-3.0
1701799344.7859547,-9.0,-1.0,2.0,-2.0,1.0,2.0,-7.0,-8.0
1701799344.7859547,7.0,-14.0,3.0,-5.0,-2.0,1.0,3.0,10.0
1701799344.7859547,10.0,16.0,9.0,4.0,0.0,-2.0,4.0,3.0
1701799344.7859547,-14.0,-7.0,1.0,-4.0,1.0,0.0,-4.0,-10.0
1701799344.7869604,1.0,-2.0,-15.0,1.0,2.0,0.0,-1.0,-1.0
1701799344.7869604,-11.0,10.0,15.0,-9.0,-5.0,-2.0,1.0,-3.0
1701799344.833313,11.0,-12.0,-37.0,7.0,4.0,0.0,-2.0,8.0
1701799344.833313,-3.0,-4.0,0.0,-2.0,-1.0,-2.0,0.0,-1.0
1701799344.833313,-3.0,0.0,-6.0,-4.0,1.0,1.0,-2.0,1.0
1701799344.833313,7.0,-2.0,1.0,-5.0,-3.0,0.0,-1.0,-1.0
1701799344.8450813,-5.0,13.0,28.0,15.0,2.0,-1.0,-1.0,-4.0
1701799344.8450813,0.0,-13.0,-10.0,-17.0,-10.0,-5.0,0.0,1.0
1701799344.8450813,-7.0,-9.0,-2.0,19.0,13.0,3.0,0.0,-1.0
1701799344.8450813,5.0,9.0,-1.0,1.0,7.0,4.0,1.0,-1.0
1701799344.8450813,-1.0,-4.0,5.0,-11.0,-5.0,2.0,-2.0,-2.0
1701799344.8450813,-6.0,-3.0,-52.0,-1.0,-2.0,-4.0,-3.0,0.0
1701799344.8450813,4.0,9.0,17.0,-9.0,-8.0,-4.0,-4.0,-4.0
1701799344.8450813,-5.0,-12.0,-11.0,-4.0,-3.0,-3.0,-2.0,-3.0
1701799344.8875065,0.0,-1.0,4.0,1.0,1.0,4.0,2.0,0.0
1701799344.8875065,-5.0,0.0,12.0,1.0,0.0,-2.0,-4.0,-4.0
1701799344.8875065,3.0,-5.0,-6.0,-6.0,-5.0,-5.0,-2.0,2.0
1701799344.8875065,-2.0,1.0,-3.0,2.0,-5.0,-4.0,-1.0,4.0
1701799344.888507,-6.0,-1.0,-9.0,-12.0,-13.0,2.0,1.0,0.0
1701799344.888507,0.0,-6.0,24.0,27.0,19.0,7.0,0.0,-3.0
1701799344.888507,3.0,4.0,5.0,-5.0,-5.0,-2.0,0.0,-1.0
1701799344.888507,8.0,23.0,9.0,14.0,2.0,3.0,1.0,3.0
1701799344.8930478,-3.0,18.0,-3.0,-12.0,-8.0,-9.0,-5.0,-1.0
1701799344.8930478,1.0,-26.0,-14.0,-10.0,0.0,-2.0,-2.0,1.0
1701799344.904591,-12.0,-36.0,-10.0,-4.0,-2.0,-2.0,-2.0,-5.0
1701799344.904591,0.0,5.0,14.0,-1.0,-5.0,-1.0,-2.0,0.0
1701799344.948554,5.0,-5.0,-16.0,-8.0,-5.0,-6.0,-4.0,1.0
1701799344.948554,0.0,43.0,29.0,5.0,1.0,1.0,-2.0,-7.0
1701799344.948554,-4.0,-9.0,16.0,0.0,-1.0,0.0,-1.0,-1.0
1701799344.948554,-8.0,-29.0,-40.0,-10.0,-4.0,-4.0,-5.0,-2.0
1701799344.948554,0.0,0.0,19.0,5.0,7.0,3.0,4.0,1.0
1701799344.948554,1.0,2.0,1.0,0.0,-1.0,4.0,1.0,3.0
1701799344.948554,7.0,18.0,45.0,14.0,1.0,1.0,4.0,1.0
1701799344.948554,-3.0,-2.0,10.0,-16.0,-12.0,-5.0,-1.0,-4.0
1701799344.9613698,-8.0,-28.0,-75.0,0.0,11.0,0.0,-5.0,-4.0
1701799344.9625046,-1.0,-2.0,3.0,4.0,4.0,4.0,3.0,2.0
1701799344.9999952,4.0,10.0,-14.0,-2.0,-6.0,-2.0,-2.0,-3.0
1701799344.9999952,2.0,24.0,20.0,9.0,1.0,2.0,-1.0,2.0
1701799344.9999952,1.0,17.0,55.0,4.0,-9.0,-2.0,-2.0,-2.0
1701799344.9999952,-2.0,-27.0,-70.0,-17.0,-3.0,1.0,-5.0,-6.0
1701799344.9999952,-5.0,4.0,-16.0,2.0,-1.0,-1.0,4.0,1.0
1701799344.9999952,3.0,5.0,39.0,25.0,20.0,2.0,6.0,4.0
1701799345.0025558,-1.0,4.0,-5.0,-12.0,1.0,3.0,4.0,0.0
1701799345.0025558,-3.0,5.0,-5.0,3.0,-9.0,-6.0,-3.0,-1.0
1701799345.0025558,4.0,13.0,31.0,-8.0,0.0,1.0,-1.0,-1.0
1701799345.0025558,-13.0,-43.0,-98.0,-25.0,-15.0,-7.0,-8.0,-9.0
1701799345.0513484,1.0,2.0,18.0,14.0,5.0,1.0,2.0,1.0
1701799345.0513484,-4.0,-1.0,-2.0,-15.0,-10.0,-7.0,-4.0,0.0
1701799345.0513484,-3.0,-1.0,24.0,-1.0,-3.0,0.0,-1.0,1.0
1701799345.0513484,1.0,16.0,14.0,8.0,13.0,4.0,6.0,0.0
1701799345.0513484,-3.0,-7.0,-8.0,5.0,5.0,-2.0,-3.0,-6.0
1701799345.0513484,-4.0,-33.0,-11.0,-12.0,-7.0,-2.0,-1.0,2.0
1701799345.0513484,0.0,14.0,7.0,-2.0,-8.0,-2.0,0.0,-3.0
1701799345.0513484,-1.0,11.0,48.0,3.0,5.0,2.0,-7.0,0.0
1701799345.0654418,1.0,-11.0,-35.0,-6.0,-17.0,-3.0,4.0,7.0
1701799345.0654418,3.0,20.0,41.0,14.0,13.0,3.0,5.0,4.0
1701799345.0654418,-4.0,-14.0,-33.0,-6.0,4.0,-4.0,-4.0,-4.0
1701799345.0654418,4.0,6.0,5.0,10.0,5.0,4.0,4.0,6.0
1701799345.1160755,-9.0,-18.0,3.0,-18.0,-13.0,-10.0,-11.0,-10.0
1701799345.1160755,3.0,2.0,-41.0,-24.0,-6.0,-2.0,1.0,0.0
1701799345.1160755,-2.0,-12.0,22.0,12.0,-2.0,0.0,-3.0,-1.0
1701799345.1160755,-3.0,-16.0,-19.0,-16.0,-23.0,-7.0,-4.0,-4.0
1701799345.1160755,0.0,0.0,-3.0,19.0,35.0,9.0,0.0,-1.0
1701799345.1160755,3.0,22.0,42.0,8.0,-1.0,0.0,0.0,1.0
1701799345.1160755,9.0,8.0,17.0,-4.0,0.0,0.0,-9.0,-5.0
1701799345.1160755,-6.0,-10.0,-21.0,7.0,-1.0,-1.0,2.0,-1.0
1701799345.1308455,-2.0,-5.0,18.0,-16.0,-10.0,-2.0,0.0,-3.0
1701799345.1337838,0.0,4.0,16.0,9.0,-1.0,0.0,-4.0,-3.0
1701799345.1459227,-4.0,-2.0,-26.0,-8.0,4.0,5.0,12.0,8.0
1701799345.1469266,1.0,-8.0,-2.0,0.0,-4.0,-5.0,-7.0,-5.0
1701799345.1680079,0.0,-2.0,0.0,-7.0,-9.0,0.0,2.0,-2.0
1701799345.1680079,2.0,5.0,11.0,2.0,2.0,0.0,-1.0,2.0
1701799345.169012,0.0,1.0,-10.0,4.0,-2.0,0.0,-1.0,-1.0
1701799345.169012,4.0,2.0,-31.0,-10.0,0.0,-3.0,0.0,3.0
1701799345.169012,-10.0,-8.0,7.0,0.0,0.0,-3.0,-4.0,-11.0
1701799345.169012,-2.0,7.0,8.0,8.0,-3.0,-2.0,-1.0,-4.0
1701799345.169012,3.0,12.0,9.0,2.0,2.0,1.0,-1.0,-1.0
1701799345.169012,-18.0,-18.0,-2.0,1.0,3.0,2.0,2.0,-1.0
1701799345.1883092,13.0,12.0,29.0,2.0,-2.0,-1.0,0.0,3.0
1701799345.1883092,11.0,1.0,-14.0,-2.0,-2.0,1.0,-1.0,-2.0
1701799345.1883092,-1.0,5.0,-37.0,-2.0,-2.0,-5.0,-5.0,-4.0
1701799345.1883092,7.0,1.0,-11.0,-5.0,4.0,0.0,0.0,3.0
1701799345.2333689,-4.0,-6.0,-23.0,-4.0,-6.0,-1.0,-2.0,-4.0
1701799345.2333689,-4.0,-9.0,0.0,-4.0,1.0,-1.0,0.0,4.0
1701799345.2333689,12.0,9.0,17.0,12.0,1.0,-1.0,-2.0,2.0
1701799345.2333689,-6.0,15.0,3.0,-6.0,-2.0,-1.0,-1.0,-6.0
1701799345.2333689,-5.0,-12.0,-2.0,7.0,2.0,0.0,1.0,4.0
1701799345.2333689,2.0,-4.0,5.0,-9.0,-5.0,-1.0,3.0,3.0
1701799345.2333689,-11.0,7.0,-23.0,-7.0,-1.0,-5.0,-5.0,-9.0
1701799345.2333689,16.0,13.0,38.0,-2.0,-3.0,-1.0,-2.0,5.0
1701799345.278124,-16.0,-7.0,-35.0,-5.0,-1.0,-1.0,-3.0,-6.0
1701799345.278124,3.0,8.0,11.0,4.0,2.0,1.0,0.0,-1.0
1701799345.278124,8.0,-30.0,-18.0,-8.0,-4.0,-2.0,0.0,2.0
1701799345.278124,1.0,28.0,28.0,8.0,2.0,-1.0,-6.0,-1.0
1701799345.278124,-8.0,-16.0,-1.0,-3.0,-2.0,1.0,10.0,-2.0
1701799345.278124,6.0,7.0,-9.0,1.0,-2.0,2.0,-1.0,1.0
1701799345.278124,-8.0,-11.0,-6.0,-4.0,-3.0,0.0,4.0,-3.0
1701799345.278124,-1.0,-9.0,-5.0,-1.0,1.0,1.0,5.0,9.0
1701799345.2826507,28.0,11.0,9.0,2.0,0.0,-2.0,-8.0,-4.0
1701799345.2826507,9.0,0.0,5.0,1.0,0.0,-5.0,-5.0,-14.0
1701799345.2826507,-74.0,-14.0,12.0,-4.0,-3.0,-2.0,5.0,5.0
1701799345.2826507,-13.0,-8.0,-15.0,-3.0,-2.0,-5.0,-4.0,-14.0
1701799345.3402185,-8.0,10.0,4.0,1.0,-3.0,-3.0,-2.0,6.0
1701799345.3402185,0.0,2.0,14.0,2.0,3.0,2.0,0.0,-7.0
1701799345.3402185,14.0,-2.0,-13.0,-3.0,-1.0,-1.0,-4.0,-6.0
1701799345.3402185,9.0,-3.0,1.0,-1.0,-3.0,0.0,-1.0,4.0
1701799345.3402185,-19.0,-2.0,2.0,0.0,-1.0,-2.0,-15.0,-17.0
1701799345.3402185,-13.0,-6.0,-7.0,1.0,-1.0,-3.0,4.0,13.0
1701799345.3402185,5.0,-2.0,6.0,-5.0,-1.0,3.0,4.0,-4.0
1701799345.3402185,7.0,4.0,18.0,8.0,2.0,3.0,6.0,11.0
1701799345.3412697,4.0,-11.0,-3.0,-8.0,-4.0,-2.0,3.0,-2.0
1701799345.3412697,-3.0,-2.0,-1.0,-2.0,0.0,-3.0,-9.0,2.0
1701799345.3412697,-29.0,8.0,-8.0,0.0,1.0,-2.0,-6.0,-7.0
1701799345.3412697,7.0,-1.0,19.0,2.0,1.0,2.0,0.0,-8.0
1701799345.399705,-18.0,7.0,3.0,2.0,3.0,1.0,-2.0,-7.0
1701799345.399705,-22.0,-5.0,-5.0,-3.0,-3.0,-3.0,9.0,22.0
1701799345.399705,50.0,8.0,5.0,0.0,-3.0,-7.0,-12.0,-9.0
1701799345.399705,-42.0,10.0,3.0,5.0,4.0,-1.0,-27.0,-38.0
1701799345.399705,23.0,-2.0,-1.0,-2.0,-3.0,0.0,-8.0,16.0
1701799345.399705,22.0,8.0,0.0,8.0,5.0,2.0,11.0,-5.0
1701799345.399705,28.0,-5.0,-11.0,-7.0,-5.0,6.0,25.0,20.0
1701799345.399705,-4.0,-6.0,-7.0,-1.0,-2.0,-8.0,-7.0,-9.0
1701799345.399705,47.0,-12.0,-16.0,-5.0,-4.0,-6.0,-4.0,17.0
1701799345.399705,-11.0,-7.0,-1.0,-1.0,-2.0,1.0,-15.0,-13.0
1701799345.399705,53.0,3.0,4.0,7.0,4.0,0.0,-14.0,-14.0
1701799345.399705,-84.0,-18.0,-7.0,-11.0,-4.0,3.0,15.0,5.0
1701799345.4457912,25.0,14.0,-7.0,-2.0,1.0,-2.0,-8.0,-4.0
1701799345.4457912,33.0,-17.0,-6.0,2.0,-1.0,-3.0,7.0,20.0
1701799345.4457912,-11.0,20.0,-30.0,-7.0,-3.0,-4.0,-6.0,-16.0
1701799345.4457912,27.0,-6.0,2.0,-2.0,-2.0,0.0,-4.0,-5.0
1701799345.4502687,-58.0,-16.0,10.0,4.0,1.0,2.0,3.0,-6.0
1701799345.4502687,-21.0,-20.0,-24.0,-14.0,-7.0,-6.0,0.0,-6.0
1701799345.4502687,-22.0,-2.0,2.0,0.0,-2.0,-1.0,-2.0,4.0
1701799345.4502687,-14.0,11.0,17.0,1.0,-1.0,-2.0,-4.0,-2.0
1701799345.504357,2.0,4.0,-13.0,-6.0,-1.0,2.0,10.0,12.0
1701799345.504357,18.0,5.0,2.0,2.0,0.0,4.0,-1.0,-11.0
1701799345.504357,-42.0,-13.0,-1.0,-6.0,-4.0,-6.0,-9.0,3.0
1701799345.5054076,39.0,6.0,-10.0,-6.0,-2.0,1.0,2.0,4.0
1701799345.5054076,-12.0,5.0,-7.0,3.0,0.0,-1.0,1.0,-5.0
1701799345.5054076,-10.0,-6.0,4.0,-5.0,-3.0,-2.0,-2.0,-8.0
1701799345.5054076,32.0,7.0,5.0,0.0,1.0,-1.0,1.0,4.0
1701799345.5054076,-5.0,2.0,2.0,3.0,-1.0,3.0,1.0,-1.0
1701799345.510672,0.0,8.0,4.0,3.0,1.0,4.0,10.0,14.0
1701799345.510672,-14.0,2.0,0.0,0.0,-1.0,-1.0,-6.0,-3.0
1701799345.511723,19.0,1.0,24.0,2.0,-2.0,-1.0,3.0,7.0
1701799345.511723,-24.0,-20.0,-16.0,-3.0,-3.0,-1.0,1.0,-7.0
1701799345.5248563,33.0,10.0,26.0,3.0,-2.0,-4.0,-20.0,-10.0
1701799345.5248563,-6.0,10.0,-9.0,-3.0,-3.0,-3.0,6.0,5.0
1701799345.5256112,-14.0,-13.0,2.0,4.0,4.0,8.0,11.0,9.0
1701799345.5256112,19.0,7.0,-10.0,-6.0,-1.0,-4.0,0.0,3.0
1701799345.5760226,-26.0,-17.0,4.0,-1.0,-3.0,-3.0,-2.0,-5.0
1701799345.5770276,29.0,15.0,13.0,-1.0,-2.0,0.0,-5.0,3.0
1701799345.5770276,-3.0,6.0,-8.0,-1.0,-2.0,-4.0,-10.0,-11.0
1701799345.5770276,4.0,-20.0,-17.0,-6.0,-4.0,0.0,1.0,8.0
1701799345.5770276,5.0,-4.0,6.0,-1.0,3.0,3.0,4.0,0.0
1701799345.5770276,-10.0,1.0,-7.0,-3.0,-5.0,-4.0,-8.0,-12.0
1701799345.5770276,-15.0,-10.0,-8.0,-1.0,-1.0,-2.0,1.0,1.0
1701799345.5770276,14.0,-6.0,1.0,5.0,3.0,1.0,3.0,7.0
1701799345.5770276,-12.0,-3.0,1.0,-2.0,-2.0,-4.0,0.0,-7.0
1701799345.5770276,-14.0,-5.0,-3.0,1.0,0.0,1.0,-1.0,-3.0
1701799345.586234,-4.0,10.0,0.0,0.0,1.0,1.0,-1.0,6.0
1701799345.586234,33.0,12.0,4.0,3.0,-2.0,-2.0,1.0,0.0
1701799345.6270282,-3.0,-8.0,-4.0,0.0,1.0,0.0,1.0,-4.0
1701799345.6270282,-23.0,-9.0,-8.0,-5.0,0.0,-2.0,-2.0,-1.0
1701799345.6270282,-1.0,-5.0,-4.0,-3.0,-2.0,-3.0,-3.0,0.0
1701799345.6270282,4.0,-4.0,-4.0,-4.0,0.0,3.0,2.0,1.0
1701799345.6281245,-6.0,1.0,2.0,2.0,0.0,0.0,-1.0,-6.0
1701799345.6281245,7.0,8.0,2.0,1.0,2.0,-1.0,1.0,-1.0
1701799345.6318116,-4.0,-2.0,-3.0,-1.0,0.0,0.0,3.0,0.0
1701799345.6318116,0.0,-15.0,-5.0,-4.0,-3.0,0.0,-7.0,-2.0
1701799345.66666,1.0,-3.0,0.0,-2.0,-2.0,3.0,11.0,0.0
1701799345.66666,2.0,6.0,1.0,1.0,-1.0,-3.0,-3.0,-1.0
1701799345.66666,-1.0,17.0,-1.0,-1.0,-4.0,-2.0,-5.0,-9.0
1701799345.66666,-27.0,-19.0,-3.0,-2.0,-1.0,-3.0,2.0,5.0
1701799345.667712,19.0,-1.0,0.0,-1.0,-1.0,0.0,-3.0,11.0
1701799345.667712,9.0,5.0,1.0,1.0,-1.0,-1.0,-2.0,-2.0
1701799345.667712,-6.0,2.0,-3.0,-3.0,-1.0,-2.0,1.0,1.0
1701799345.6687078,-3.0,10.0,1.0,2.0,-3.0,-4.0,-8.0,-8.0
1701799345.688845,-4.0,8.0,5.0,1.0,1.0,-1.0,0.0,-3.0
1701799345.688845,-2.0,5.0,-8.0,-2.0,-1.0,-2.0,-3.0,1.0
1701799345.691657,-8.0,-15.0,-6.0,-5.0,-2.0,-1.0,-9.0,-5.0
1701799345.691657,25.0,24.0,-1.0,0.0,-1.0,2.0,10.0,5.0
1701799345.738409,-31.0,-16.0,-4.0,-3.0,-5.0,-6.0,1.0,0.0
1701799345.738409,0.0,-22.0,-3.0,-3.0,-4.0,-3.0,2.0,10.0
1701799345.738409,10.0,-11.0,10.0,9.0,4.0,3.0,0.0,-9.0
1701799345.738409,-23.0,10.0,-2.0,-1.0,0.0,-2.0,-1.0,-18.0
1701799345.73946,30.0,-2.0,2.0,1.0,1.0,-2.0,-2.0,-19.0
1701799345.73946,-21.0,0.0,3.0,-2.0,1.0,1.0,2.0,7.0
1701799345.73946,-6.0,2.0,-2.0,-6.0,-3.0,-2.0,9.0,9.0
1701799345.73946,6.0,8.0,4.0,1.0,-1.0,0.0,-1.0,-1.0
1701799345.749599,3.0,-5.0,-3.0,2.0,0.0,-1.0,-2.0,2.0
1701799345.749599,-10.0,2.0,-8.0,-4.0,-5.0,-2.0,-5.0,-10.0
1701799345.751942,13.0,-36.0,-14.0,-8.0,-4.0,-3.0,-2.0,6.0
1701799345.751942,4.0,-5.0,2.0,1.0,2.0,-2.0,-2.0,3.0
1701799345.809247,-14.0,12.0,-5.0,-7.0,-6.0,-2.0,-6.0,-2.0
1701799345.809247,12.0,11.0,3.0,3.0,1.0,2.0,0.0,-7.0
1701799345.809247,-16.0,15.0,-3.0,-3.0,-1.0,-1.0,-4.0,3.0
1701799345.809247,14.0,3.0,0.0,0.0,1.0,3.0,0.0,3.0
1701799345.8102436,-11.0,5.0,-7.0,-3.0,-3.0,-3.0,-4.0,-1.0
1701799345.8102436,7.0,-8.0,-1.0,-2.0,-3.0,-2.0,0.0,2.0
1701799345.8102436,1.0,8.0,-1.0,-1.0,-3.0,-1.0,-3.0,-11.0
1701799345.8102436,-4.0,-8.0,-9.0,-4.0,-4.0,-2.0,-1.0,8.0
1701799345.8428206,4.0,0.0,5.0,1.0,-1.0,-2.0,-1.0,4.0
1701799345.8428206,-7.0,1.0,-6.0,1.0,-1.0,1.0,-1.0,-7.0
1701799345.8428206,-5.0,-7.0,-3.0,-2.0,-2.0,-3.0,-2.0,0.0
1701799345.8428206,4.0,6.0,-3.0,0.0,-1.0,-1.0,-3.0,2.0
1701799345.8428206,-1.0,13.0,5.0,-1.0,0.0,0.0,2.0,2.0
1701799345.8428206,-5.0,-21.0,-24.0,-2.0,-1.0,0.0,0.0,-6.0
1701799345.8428206,-2.0,4.0,-2.0,3.0,-2.0,-1.0,-3.0,-3.0
1701799345.8428206,-6.0,-33.0,-8.0,-3.0,-4.0,-2.0,-2.0,2.0
1701799345.8428206,-3.0,3.0,2.0,-3.0,-1.0,-1.0,2.0,-5.0
1701799345.8428206,-2.0,0.0,-1.0,4.0,1.0,-1.0,2.0,5.0
1701799345.8428206,5.0,1.0,12.0,3.0,5.0,2.0,3.0,3.0
1701799345.8428206,0.0,12.0,18.0,3.0,-4.0,-3.0,1.0,1.0
1701799345.8984272,-2.0,21.0,1.0,3.0,4.0,2.0,-3.0,1.0
1701799345.8984272,-1.0,-32.0,1.0,-5.0,-2.0,-3.0,-3.0,-6.0
1701799345.8984272,10.0,-14.0,-11.0,1.0,-1.0,1.0,0.0,-1.0
1701799345.8984272,-7.0,2.0,4.0,-7.0,-4.0,-9.0,-7.0,-3.0
1701799345.8984272,2.0,10.0,-5.0,5.0,4.0,2.0,1.0,1.0
1701799345.8984272,4.0,2.0,7.0,-3.0,-2.0,-1.0,1.0,-2.0
1701799345.8984272,1.0,2.0,7.0,7.0,0.0,-1.0,-1.0,-1.0
1701799345.8984272,-11.0,-29.0,-19.0,-7.0,-4.0,-1.0,-4.0,-5.0
1701799345.8995285,8.0,0.0,-5.0,-1.0,2.0,1.0,2.0,3.0
1701799345.8995285,0.0,15.0,11.0,3.0,-7.0,-3.0,-2.0,-3.0
1701799345.8995285,-4.0,-4.0,-4.0,-6.0,0.0,0.0,-2.0,-1.0
1701799345.8995285,0.0,5.0,-3.0,6.0,-2.0,0.0,0.0,-1.0
1701799345.9593515,-6.0,-5.0,-2.0,-5.0,-2.0,-5.0,-3.0,-3.0
1701799345.9593515,3.0,23.0,15.0,-2.0,4.0,2.0,-1.0,3.0
1701799345.9593515,-3.0,-1.0,5.0,2.0,-2.0,-4.0,-4.0,-7.0
1701799345.9593515,2.0,1.0,17.0,-6.0,-1.0,1.0,0.0,2.0
1701799345.9722853,-3.0,-28.0,-10.0,4.0,1.0,2.0,-1.0,-8.0
1701799345.9722853,-3.0,-2.0,-7.0,2.0,2.0,0.0,-1.0,3.0
1701799345.9722853,-11.0,12.0,-5.0,8.0,3.0,3.0,1.0,-8.0
1701799345.9722853,2.0,6.0,3.0,-7.0,1.0,3.0,4.0,0.0
1701799345.9722853,1.0,0.0,-2.0,0.0,-6.0,-2.0,2.0,1.0
1701799345.9722853,2.0,4.0,8.0,-4.0,-1.0,-2.0,-1.0,-3.0
1701799345.9722853,7.0,13.0,40.0,-6.0,0.0,-2.0,2.0,4.0
1701799345.9722853,-8.0,-32.0,-45.0,9.0,-2.0,-5.0,-3.0,-7.0
1701799346.013843,4.0,3.0,-8.0,-4.0,4.0,-1.0,-4.0,-2.0
1701799346.013843,-16.0,-31.0,-18.0,-1.0,-1.0,-3.0,-3.0,-5.0
1701799346.013843,4.0,-10.0,2.0,1.0,-3.0,-1.0,0.0,1.0
1701799346.013843,-6.0,9.0,1.0,-1.0,5.0,1.0,0.0,1.0
1701799346.0148828,2.0,-3.0,-4.0,-2.0,1.0,0.0,0.0,1.0
1701799346.0148828,13.0,8.0,-1.0,-4.0,2.0,1.0,3.0,0.0
1701799346.0148828,-14.0,-8.0,-5.0,-6.0,-3.0,-5.0,-7.0,-5.0
1701799346.0148828,3.0,17.0,33.0,2.0,-2.0,-1.0,-1.0,0.0
1701799346.0250077,-3.0,-3.0,-3.0,8.0,-5.0,-3.0,-5.0,-4.0
1701799346.0250077,-5.0,-11.0,-30.0,-25.0,-8.0,-5.0,0.0,-1.0
1701799346.0250077,-1.0,-2.0,6.0,-9.0,-1.0,1.0,5.0,-3.0
1701799346.0250077,3.0,-7.0,-42.0,-10.0,1.0,0.0,-3.0,7.0
1701799346.0710406,0.0,13.0,16.0,9.0,1.0,2.0,5.0,1.0
1701799346.0710406,1.0,7.0,24.0,11.0,-1.0,0.0,-1.0,-5.0
1701799346.0710406,-4.0,-5.0,-53.0,-3.0,-6.0,-5.0,-5.0,-1.0
1701799346.0710406,0.0,1.0,24.0,2.0,-2.0,-4.0,-3.0,-4.0
1701799346.0710406,2.0,-7.0,-4.0,0.0,5.0,0.0,-3.0,2.0
1701799346.0710406,-13.0,-4.0,16.0,-8.0,-2.0,-2.0,-4.0,-8.0
1701799346.0710406,10.0,8.0,11.0,3.0,1.0,1.0,-1.0,2.0
1701799346.0710406,3.0,22.0,28.0,5.0,3.0,3.0,4.0,6.0
1701799346.0876663,-13.0,-45.0,-68.0,-15.0,-15.0,-10.0,-8.0,-11.0
1701799346.0876663,4.0,41.0,28.0,24.0,5.0,-2.0,-3.0,-2.0
1701799346.095603,-1.0,-14.0,6.0,10.0,3.0,4.0,0.0,2.0
1701799346.0968177,3.0,0.0,1.0,-15.0,-5.0,-3.0,-3.0,1.0
1701799346.122553,4.0,9.0,-49.0,-16.0,-4.0,-3.0,-6.0,-1.0
1701799346.122553,-6.0,-11.0,0.0,4.0,-2.0,0.0,4.0,-2.0
1701799346.122553,-3.0,9.0,15.0,1.0,0.0,0.0,3.0,8.0
1701799346.122553,-7.0,-13.0,-43.0,-12.0,-8.0,-6.0,-3.0,-9.0
1701799346.1242301,-1.0,1.0,40.0,-1.0,-1.0,-1.0,4.0,5.0
1701799346.1242301,6.0,23.0,-14.0,1.0,2.0,0.0,-2.0,-2.0
1701799346.126244,-1.0,10.0,0.0,-14.0,-2.0,1.0,-2.0,0.0
1701799346.126244,7.0,10.0,58.0,47.0,1.0,4.0,2.0,-1.0
1701799346.1769857,-23.0,-37.0,-64.0,-36.0,-7.0,-9.0,-13.0,-9.0
1701799346.1769857,3.0,-2.0,18.0,14.0,-1.0,0.0,-1.0,2.0
1701799346.1769857,9.0,19.0,38.0,16.0,10.0,3.0,4.0,3.0
1701799346.1769857,-14.0,-26.0,-76.0,-42.0,-12.0,-7.0,-6.0,-8.0
1701799346.178042,6.0,9.0,-1.0,-3.0,-2.0,3.0,5.0,4.0
1701799346.178042,2.0,-1.0,9.0,4.0,4.0,2.0,-1.0,2.0
1701799346.178042,0.0,4.0,2.0,-1.0,3.0,2.0,0.0,-2.0
1701799346.178042,-2.0,-1.0,22.0,8.0,2.0,-4.0,-9.0,-6.0
1701799346.1933541,3.0,13.0,56.0,27.0,4.0,-3.0,-6.0,-7.0
1701799346.1933541,1.0,-25.0,-36.0,-24.0,-8.0,-1.0,13.0,11.0
1701799346.1933541,-4.0,9.0,17.0,8.0,3.0,-1.0,-15.0,4.0
1701799346.1933541,-12.0,-8.0,-25.0,-4.0,-5.0,-2.0,-1.0,-9.0
1701799346.2155457,8.0,-5.0,-6.0,-2.0,-5.0,3.0,26.0,9.0
1701799346.2155457,-1.0,-1.0,27.0,-16.0,4.0,0.0,-1.0,-2.0
1701799346.2155457,-2.0,-22.0,-48.0,-11.0,-12.0,-8.0,-1.0,-7.0
1701799346.2155457,6.0,11.0,18.0,14.0,7.0,1.0,-10.0,-2.0
1701799346.2276855,-5.0,9.0,33.0,11.0,5.0,2.0,-8.0,-5.0
1701799346.2276855,7.0,17.0,6.0,7.0,1.0,0.0,-1.0,-2.0
1701799346.2318358,-9.0,-19.0,0.0,-16.0,-6.0,-7.0,-4.0,0.0
1701799346.2318358,-2.0,-17.0,-55.0,-4.0,5.0,1.0,1.0,-1.0
1701799346.292816,0.0,17.0,15.0,9.0,-4.0,0.0,-1.0,2.0
1701799346.292816,-5.0,3.0,-16.0,-7.0,-4.0,-3.0,-3.0,-4.0
1701799346.292816,-5.0,-16.0,-13.0,-10.0,1.0,2.0,-2.0,-4.0
1701799346.292816,3.0,-9.0,16.0,13.0,10.0,3.0,5.0,2.0
1701799346.292816,-1.0,-6.0,0.0,-5.0,-3.0,-3.0,0.0,-6.0
1701799346.292816,9.0,4.0,-14.0,0.0,-3.0,-4.0,-5.0,3.0
1701799346.292816,-12.0,-1.0,-7.0,3.0,-3.0,-2.0,3.0,-2.0
1701799346.2938635,12.0,9.0,19.0,-3.0,-1.0,-2.0,4.0,3.0
1701799346.3028493,-10.0,-19.0,-11.0,1.0,4.0,0.0,-5.0,-1.0
1701799346.3028493,-8.0,5.0,-12.0,-6.0,-7.0,-2.0,-4.0,-6.0
1701799346.3028493,5.0,-28.0,1.0,3.0,1.0,1.0,4.0,0.0
1701799346.3028493,-2.0,15.0,12.0,-2.0,1.0,1.0,0.0,-1.0
1701799346.320741,-2.0,8.0,11.0,-6.0,-2.0,-3.0,-7.0,-5.0
1701799346.3230326,12.0,-3.0,0.0,9.0,3.0,1.0,-5.0,5.0
1701799346.337234,-11.0,5.0,-15.0,-6.0,-5.0,0.0,9.0,-4.0
1701799346.338649,4.0,-6.0,0.0,0.0,1.0,-5.0,-1.0,3.0
1701799346.3613794,8.0,10.0,25.0,-1.0,0.0,-3.0,-8.0,-1.0
1701799346.3613794,-24.0,-21.0,-40.0,-5.0,-3.0,-2.0,6.0,3.0
1701799346.3613794,8.0,4.0,-2.0,-2.0,1.0,-1.0,-6.0,-4.0
1701799346.3613794,-12.0,21.0,31.0,-1.0,-2.0,1.0,-2.0,0.0
1701799346.3613794,6.0,-2.0,-12.0,-1.0,1.0,1.0,4.0,6.0
1701799346.3613794,-9.0,14.0,26.0,3.0,-1.0,-2.0,-8.0,-8.0
1701799346.3613794,-1.0,-18.0,-4.0,-2.0,-3.0,-1.0,-4.0,1.0
1701799346.3613794,-9.0,10.0,9.0,1.0,-1.0,1.0,-1.0,-12.0
1701799346.4194808,2.0,-14.0,-12.0,-3.0,-3.0,-2.0,-10.0,3.0
1701799346.4194808,6.0,-13.0,2.0,1.0,0.0,3.0,3.0,6.0
1701799346.4194808,-4.0,6.0,-10.0,5.0,2.0,2.0,0.0,-15.0
1701799346.4194808,-16.0,-4.0,-4.0,-2.0,-3.0,-2.0,10.0,21.0
1701799346.4194808,27.0,23.0,18.0,1.0,-2.0,-1.0,-10.0,-2.0
1701799346.4194808,45.0,-13.0,1.0,2.0,3.0,2.0,15.0,-1.0
1701799346.4194808,-46.0,6.0,-7.0,-5.0,-3.0,0.0,-1.0,-6.0
1701799346.4194808,10.0,-10.0,-14.0,0.0,1.0,0.0,1.0,-9.0
1701799346.4238536,-6.0,-9.0,-17.0,1.0,-1.0,0.0,7.0,12.0
1701799346.424906,-17.0,-6.0,7.0,-1.0,-3.0,-4.0,-13.0,-15.0
1701799346.424906,22.0,-12.0,-12.0,-5.0,-3.0,-2.0,-2.0,4.0
1701799346.424906,-10.0,-17.0,-14.0,-8.0,-3.0,1.0,-1.0,-3.0
1701799346.4730563,-6.0,4.0,18.0,2.0,-1.0,-2.0,-6.0,-4.0
1701799346.4730563,10.0,0.0,9.0,4.0,3.0,2.0,-7.0,-2.0
1701799346.4730563,6.0,0.0,3.0,-3.0,-5.0,-3.0,-4.0,-2.0
1701799346.4730563,-13.0,1.0,-2.0,-2.0,-1.0,-3.0,1.0,11.0
1701799346.4730563,5.0,-3.0,5.0,6.0,4.0,-3.0,-16.0,-16.0
1701799346.4730563,-11.0,1.0,-9.0,-1.0,-2.0,-9.0,-37.0,-49.0
1701799346.4730563,-33.0,-18.0,-3.0,4.0,7.0,10.0,52.0,48.0
1701799346.4730563,116.0,7.0,-8.0,-13.0,-8.0,-1.0,16.0,31.0
1701799346.4730563,-63.0,30.0,14.0,-1.0,2.0,4.0,23.0,7.0
1701799346.4730563,-7.0,-6.0,-9.0,-3.0,-3.0,-8.0,-5.0,-5.0
1701799346.4730563,4.0,10.0,-6.0,0.0,-2.0,-5.0,-30.0,-29.0
1701799346.4730563,-28.0,-15.0,1.0,0.0,0.0,-2.0,-8.0,-5.0
1701799346.5070071,8.0,-9.0,7.0,-6.0,-4.0,-1.0,-4.0,-5.0
1701799346.5070071,7.0,7.0,0.0,0.0,0.0,-1.0,-4.0,-1.0
1701799346.5070071,-10.0,-21.0,-10.0,-1.0,-3.0,-2.0,-5.0,-1.0
1701799346.5070071,-6.0,-3.0,6.0,1.0,0.0,2.0,5.0,3.0
1701799346.5070071,-6.0,2.0,-24.0,-8.0,-4.0,-7.0,-7.0,-12.0
1701799346.5070071,2.0,-8.0,26.0,2.0,2.0,4.0,11.0,17.0
1701799346.5080087,21.0,16.0,-17.0,-10.0,-3.0,-3.0,-1.0,2.0
1701799346.5080087,-42.0,3.0,-11.0,5.0,1.0,0.0,-10.0,-17.0
1701799346.5316117,8.0,-11.0,2.0,1.0,0.0,3.0,4.0,1.0
1701799346.5316117,0.0,-2.0,-4.0,-2.0,-1.0,0.0,2.0,-5.0
1701799346.5343204,43.0,6.0,13.0,1.0,-2.0,-5.0,3.0,21.0
1701799346.535438,-65.0,12.0,8.0,2.0,0.0,-4.0,-11.0,-14.0
1701799346.587061,39.0,-4.0,-6.0,-2.0,-3.0,3.0,12.0,17.0
1701799346.587061,-24.0,4.0,-8.0,-3.0,-3.0,-1.0,3.0,7.0
1701799346.587061,2.0,11.0,16.0,4.0,2.0,-1.0,-10.0,-11.0
1701799346.587061,5.0,-4.0,-18.0,-1.0,-3.0,-3.0,-5.0,-2.0
1701799346.5923772,2.0,-2.0,2.0,0.0,-2.0,-3.0,1.0,3.0
1701799346.5923772,-6.0,-11.0,-9.0,-4.0,-5.0,-4.0,-5.0,2.0
1701799346.5923772,12.0,3.0,-3.0,-2.0,-3.0,-2.0,-2.0,-8.0
1701799346.5923772,-1.0,-16.0,2.0,-4.0,-2.0,-2.0,1.0,1.0
1701799346.5923772,8.0,-8.0,4.0,2.0,0.0,1.0,2.0,-8.0
1701799346.5923772,1.0,0.0,-5.0,-2.0,-3.0,-2.0,2.0,7.0
1701799346.5923772,-13.0,4.0,-4.0,-1.0,3.0,0.0,-6.0,-11.0
1701799346.5923772,26.0,-6.0,-7.0,-6.0,-5.0,-4.0,-2.0,-6.0
1701799346.6368253,3.0,9.0,9.0,1.0,-1.0,1.0,-10.0,-26.0
1701799346.6368253,-11.0,-3.0,-4.0,0.0,0.0,0.0,17.0,34.0
1701799346.6368253,0.0,-11.0,-4.0,1.0,-1.0,1.0,3.0,2.0
1701799346.6368253,7.0,17.0,5.0,-2.0,-2.0,2.0,1.0,1.0
1701799346.6368253,-3.0,4.0,1.0,3.0,2.0,-2.0,-7.0,-10.0
1701799346.6368253,-35.0,-24.0,-9.0,-4.0,-3.0,-1.0,1.0,-8.0
1701799346.6368253,-7.0,-10.0,8.0,0.0,-1.0,0.0,-3.0,-1.0
1701799346.6368253,10.0,5.0,6.0,2.0,2.0,1.0,-1.0,1.0
1701799346.6749246,-17.0,12.0,-14.0,-1.0,-2.0,-3.0,-2.0,0.0
1701799346.6749246,8.0,-6.0,-2.0,-1.0,0.0,1.0,-1.0,-2.0
1701799346.6763206,9.0,-1.0,5.0,-1.0,-2.0,-1.0,0.0,8.0
1701799346.6763206,-6.0,3.0,2.0,0.0,1.0,0.0,-4.0,-11.0
1701799346.68155,-2.0,-7.0,1.0,-3.0,1.0,0.0,4.0,10.0
1701799346.68155,7.0,3.0,0.0,0.0,-2.0,3.0,1.0,0.0
1701799346.68155,-5.0,6.0,-3.0,-3.0,-1.0,-4.0,-4.0,-5.0
1701799346.68255,10.0,10.0,9.0,1.0,0.0,2.0,0.0,-4.0
1701799346.6883929,-8.0,0.0,-4.0,-4.0,-4.0,-2.0,6.0,7.0
1701799346.6883929,-4.0,-24.0,-4.0,1.0,5.0,-1.0,-2.0,-9.0
1701799346.6883929,-6.0,4.0,-3.0,0.0,0.0,-2.0,-1.0,5.0
1701799346.6883929,2.0,5.0,1.0,-1.0,-2.0,-2.0,-1.0,-8.0
1701799346.7330956,0.0,-1.0,2.0,3.0,-1.0,1.0,-1.0,7.0
1701799346.7330956,-7.0,15.0,-2.0,-3.0,-3.0,-3.0,-4.0,-9.0
1701799346.7330956,3.0,-5.0,4.0,0.0,-1.0,-1.0,-2.0,-3.0
1701799346.7330956,-9.0,-7.0,-2.0,-3.0,0.0,-1.0,2.0,6.0
1701799346.7375686,19.0,12.0,5.0,-1.0,0.0,-5.0,-10.0,-28.0
1701799346.7375686,6.0,0.0,-9.0,-7.0,-4.0,-1.0,5.0,19.0
1701799346.7375686,-2.0,7.0,-5.0,-4.0,-2.0,-1.0,6.0,15.0
1701799346.7375686,4.0,2.0,-3.0,1.0,-2.0,-4.0,0.0,6.0
1701799346.7386694,-13.0,-13.0,5.0,5.0,4.0,5.0,7.0,1.0
1701799346.7386694,-2.0,-7.0,-3.0,-4.0,-2.0,-2.0,-13.0,-20.0
1701799346.7386694,-6.0,-1.0,-2.0,2.0,1.0,-2.0,2.0,-5.0
1701799346.7488554,3.0,-6.0,2.0,-1.0,0.0,0.0,0.0,1.0
1701799346.7712843,0.0,-7.0,-5.0,-6.0,-3.0,-1.0,0.0,3.0
1701799346.77234,-5.0,9.0,0.0,-1.0,-2.0,-1.0,-1.0,-2.0
1701799346.78648,-7.0,7.0,-1.0,-2.0,-1.0,-1.0,-3.0,-2.0
1701799346.7870271,-6.0,-19.0,3.0,5.0,2.0,0.0,-1.0,-5.0
1701799346.8264863,-1.0,-5.0,-7.0,-6.0,-4.0,-1.0,-4.0,0.0
1701799346.8264863,-5.0,8.0,-2.0,0.0,-2.0,-1.0,0.0,8.0
1701799346.8264863,22.0,7.0,5.0,-2.0,-2.0,0.0,-2.0,-3.0
1701799346.8264863,-6.0,-8.0,-10.0,-5.0,-1.0,0.0,-1.0,-7.0
1701799346.8264863,-10.0,-6.0,9.0,0.0,-2.0,-4.0,-5.0,-3.0
1701799346.8264863,5.0,-2.0,-9.0,2.0,2.0,1.0,-2.0,1.0
1701799346.8264863,-1.0,3.0,-2.0,5.0,5.0,3.0,4.0,-7.0
1701799346.8264863,6.0,3.0,-4.0,-4.0,-4.0,1.0,-2.0,10.0
1701799346.8741457,-1.0,-7.0,-2.0,-1.0,0.0,-1.0,5.0,4.0
1701799346.8741457,2.0,9.0,7.0,2.0,1.0,-2.0,-5.0,-7.0
1701799346.8741457,-5.0,-9.0,2.0,0.0,1.0,-2.0,1.0,-5.0
1701799346.8741457,-8.0,-12.0,-9.0,-5.0,-5.0,-5.0,-5.0,-8.0
1701799346.8741457,-10.0,-6.0,-23.0,-7.0,-5.0,-4.0,-4.0,4.0
1701799346.8751452,3.0,3.0,2.0,3.0,3.0,1.0,6.0,-1.0
1701799346.8751452,-5.0,-4.0,2.0,-1.0,-3.0,-4.0,-4.0,-2.0
1701799346.8751452,0.0,7.0,6.0,0.0,1.0,0.0,0.0,0.0
1701799346.901581,-7.0,0.0,-2.0,-4.0,0.0,-2.0,0.0,2.0
1701799346.901581,9.0,0.0,11.0,8.0,2.0,4.0,2.0,3.0
1701799346.901581,8.0,19.0,19.0,-2.0,-6.0,0.0,-3.0,-3.0
1701799346.901581,-11.0,-29.0,-41.0,-8.0,-2.0,-7.0,-6.0,-4.0
1701799346.9034352,-4.0,-11.0,19.0,-1.0,-2.0,-1.0,3.0,3.0
1701799346.9034352,-3.0,-9.0,-12.0,-1.0,-1.0,-1.0,-1.0,-4.0
1701799346.9034352,5.0,15.0,11.0,5.0,2.0,0.0,-4.0,-2.0
1701799346.9034352,1.0,17.0,7.0,1.0,0.0,1.0,4.0,6.0
1701799346.9148092,-6.0,10.0,-1.0,-1.0,-3.0,0.0,0.0,0.0
1701799346.9148092,1.0,-4.0,-1.0,-2.0,-1.0,0.0,1.0,-5.0
1701799346.9217935,-3.0,-5.0,-6.0,2.0,2.0,-3.0,-2.0,2.0
1701799346.9217935,1.0,5.0,3.0,-5.0,0.0,0.0,-1.0,0.0
1701799346.9565823,2.0,-14.0,-5.0,8.0,3.0,-1.0,-3.0,2.0
1701799346.9565823,-1.0,11.0,38.0,0.0,-3.0,-2.0,-3.0,0.0
1701799346.9565823,-10.0,-15.0,-56.0,-8.0,-6.0,-1.0,-4.0,-6.0
1701799346.957588,5.0,8.0,16.0,2.0,-2.0,1.0,0.0,1.0
1701799346.957588,5.0,10.0,12.0,-4.0,0.0,1.0,2.0,2.0
1701799346.957588,-6.0,-18.0,-34.0,-3.0,2.0,-3.0,-2.0,-5.0
1701799346.957588,2.0,-10.0,-2.0,-3.0,1.0,1.0,0.0,-4.0
1701799346.957588,-5.0,-3.0,-5.0,2.0,-1.0,-1.0,0.0,2.0
1701799346.9717627,-3.0,-4.0,24.0,14.0,-1.0,0.0,0.0,-1.0
1701799346.9717627,-1.0,2.0,1.0,0.0,0.0,-1.0,-3.0,-3.0
1701799346.97392,-5.0,1.0,2.0,-3.0,0.0,1.0,1.0,0.0
1701799346.97392,7.0,-4.0,-12.0,-4.0,1.0,-2.0,-6.0,-4.0
1701799347.0196674,-2.0,-3.0,-11.0,-7.0,-1.0,-1.0,-1.0,-5.0
1701799347.0196674,-5.0,1.0,-1.0,1.0,0.0,1.0,9.0,15.0
1701799347.0196674,-1.0,5.0,5.0,-3.0,-1.0,-1.0,-4.0,-6.0
1701799347.0207243,-4.0,-1.0,4.0,3.0,2.0,0.0,7.0,2.0
1701799347.0208323,-3.0,4.0,-6.0,-3.0,0.0,-1.0,-4.0,-3.0
1701799347.0208323,9.0,-2.0,2.0,-5.0,-5.0,0.0,-5.0,0.0
1701799347.0208323,-15.0,-5.0,1.0,1.0,-2.0,-2.0,-2.0,0.0
1701799347.0208323,7.0,6.0,8.0,1.0,0.0,-1.0,1.0,-1.0
1701799347.028076,2.0,-11.0,-8.0,-5.0,-3.0,-2.0,-4.0,2.0
1701799347.028076,5.0,1.0,-8.0,-1.0,-2.0,0.0,0.0,-3.0
1701799347.028076,-4.0,-3.0,5.0,0.0,-3.0,-2.0,-3.0,-5.0
1701799347.028076,-4.0,11.0,7.0,2.0,1.0,-1.0,-2.0,-3.0
