1701873201.6272378,0.0,4.0,5.0,0.0,-10.0,-4.0,0.0,-1.0
1701873201.6272378,0.0,-2.0,1.0,-1.0,-6.0,-6.0,-4.0,-2.0
1701873201.6272378,1.0,-4.0,-7.0,-1.0,1.0,0.0,1.0,-1.0
1701873201.6272378,1.0,3.0,4.0,6.0,10.0,7.0,2.0,0.0
1701873201.6571963,-2.0,-1.0,2.0,-1.0,3.0,1.0,-1.0,0.0
1701873201.6571963,-3.0,-6.0,-11.0,-5.0,-9.0,-3.0,-2.0,0.0
1701873201.6571963,-4.0,-2.0,3.0,0.0,-8.0,-6.0,-1.0,-1.0
1701873201.6571963,0.0,-1.0,-8.0,-2.0,7.0,4.0,-1.0,1.0
1701873201.667236,3.0,6.0,3.0,-1.0,-1.0,-2.0,1.0,0.0
1701873201.667236,0.0,-6.0,-7.0,1.0,1.0,-1.0,-2.0,0.0
1701873201.667236,1.0,8.0,24.0,7.0,-5.0,-4.0,-1.0,-2.0
1701873201.667236,-5.0,-19.0,-32.0,-12.0,-4.0,-4.0,-2.0,-3.0
1701873201.6872969,-2.0,-6.0,-1.0,2.0,2.0,-1.0,-2.0,0.0
1701873201.6872969,2.0,6.0,2.0,2.0,5.0,2.0,1.0,1.0
1701873201.6872969,1.0,2.0,-4.0,-2.0,-3.0,-3.0,-3.0,-2.0
1701873201.6872969,-3.0,1.0,8.0,4.0,0.0,2.0,-2.0,-3.0
1701873201.7190864,1.0,3.0,-3.0,0.0,-2.0,-3.0,-2.0,-1.0
1701873201.7190864,-2.0,-5.0,-1.0,-7.0,-12.0,-8.0,-3.0,-1.0
1701873201.7190864,-4.0,-6.0,-9.0,-4.0,2.0,1.0,-1.0,1.0
1701873201.7190864,3.0,8.0,8.0,6.0,13.0,10.0,5.0,1.0
1701873201.7319503,-4.0,-4.0,-3.0,-2.0,-2.0,-3.0,-2.0,-3.0
1701873201.7319503,2.0,3.0,-2.0,-5.0,-6.0,-2.0,-2.0,-1.0
1701873201.7326348,-3.0,-5.0,5.0,6.0,-5.0,-4.0,-4.0,-2.0
1701873201.7326348,0.0,0.0,-4.0,-2.0,-5.0,-2.0,-2.0,-3.0
1701873201.7505448,-1.0,-1.0,0.0,2.0,6.0,5.0,2.0,1.0
1701873201.7505448,-2.0,0.0,-8.0,-5.0,-1.0,-1.0,-1.0,-2.0
1701873201.7505448,0.0,-1.0,0.0,-1.0,-3.0,-2.0,-1.0,-1.0
1701873201.7505448,1.0,5.0,15.0,1.0,-5.0,-4.0,-2.0,1.0
1701873201.7702615,-2.0,-12.0,-15.0,0.0,0.0,-4.0,-2.0,-1.0
1701873201.7702615,-5.0,-6.0,-2.0,-3.0,-5.0,-3.0,-1.0,-4.0
1701873201.7702615,2.0,-1.0,-14.0,-10.0,1.0,-1.0,-2.0,1.0
1701873201.7702615,-2.0,0.0,4.0,2.0,4.0,-1.0,0.0,-2.0
1701873201.7902615,1.0,6.0,8.0,-3.0,-6.0,-4.0,-1.0,2.0
1701873201.7902615,-2.0,-1.0,2.0,3.0,2.0,0.0,-2.0,-3.0
1701873201.7902615,1.0,0.0,-3.0,1.0,3.0,4.0,2.0,1.0
1701873201.7902615,-1.0,0.0,-2.0,-2.0,1.0,0.0,-1.0,0.0
1701873201.8103757,-3.0,-6.0,-5.0,-6.0,-8.0,-2.0,-5.0,-4.0
1701873201.8103757,-2.0,-3.0,-1.0,0.0,-3.0,-2.0,-1.0,-2.0
1701873201.8103757,0.0,0.0,-4.0,-6.0,-3.0,-1.0,-1.0,-1.0
1701873201.8103757,0.0,0.0,-6.0,3.0,0.0,0.0,-1.0,-1.0
1701873201.8302612,-2.0,2.0,25.0,10.0,7.0,2.0,-1.0,0.0
1701873201.8302612,-1.0,0.0,-6.0,-1.0,2.0,4.0,0.0,-1.0
1701873201.8302612,-3.0,-4.0,-8.0,0.0,4.0,0.0,2.0,-2.0
1701873201.8302612,0.0,-3.0,-8.0,-6.0,-6.0,-3.0,-1.0,2.0
1701873201.8506937,1.0,-2.0,-4.0,-4.0,-8.0,-2.0,1.0,-1.0
1701873201.8506937,-2.0,-1.0,2.0,-2.0,-7.0,-5.0,-4.0,-1.0
1701873201.8506937,-2.0,-2.0,-8.0,-8.0,-4.0,-1.0,-1.0,-2.0
1701873201.8506937,0.0,-3.0,-1.0,2.0,7.0,2.0,2.0,-1.0
1701873201.8702593,1.0,6.0,2.0,6.0,9.0,6.0,1.0,-1.0
1701873201.8702593,-1.0,3.0,18.0,5.0,0.0,-1.0,1.0,-2.0
1701873201.8702593,0.0,-4.0,-17.0,-9.0,-9.0,-7.0,-1.0,1.0
1701873201.8702593,-3.0,-1.0,1.0,-10.0,-8.0,-6.0,-7.0,-4.0
1701873201.8802912,0.0,-1.0,-2.0,0.0,0.0,0.0,1.0,-2.0
1701873201.8802912,0.0,6.0,14.0,9.0,7.0,5.0,-5.0,-2.0
1701873201.8905962,-3.0,-8.0,-9.0,-1.0,2.0,-23.0,-27.0,-5.0
1701873201.8905962,-1.0,3.0,28.0,18.0,3.0,34.0,46.0,-1.0
1701873201.9106793,-13.0,-14.0,-55.0,-35.0,-6.0,18.0,25.0,1.0
1701873201.9106793,0.0,3.0,6.0,2.0,-2.0,-6.0,-7.0,-2.0
1701873201.9106793,3.0,10.0,26.0,9.0,1.0,-2.0,1.0,9.0
1701873201.9106793,0.0,-7.0,-7.0,-14.0,-7.0,-12.0,-17.0,7.0
1701873201.9402606,-7.0,-11.0,4.0,10.0,1.0,-5.0,-10.0,-9.0
1701873201.9402606,0.0,-7.0,-26.0,-10.0,-3.0,-2.0,2.0,2.0
1701873201.9402606,-5.0,4.0,18.0,2.0,-2.0,0.0,1.0,-4.0
1701873201.9402606,-3.0,-5.0,-6.0,-4.0,0.0,-7.0,-6.0,-4.0
1701873201.9505029,-1.0,4.0,5.0,0.0,-7.0,-13.0,-13.0,-3.0
1701873201.9505029,-3.0,-7.0,-6.0,-7.0,-8.0,-5.0,6.0,0.0
1701873201.9505029,1.0,-3.0,-18.0,-10.0,-2.0,-8.0,-2.0,1.0
1701873201.9505029,3.0,6.0,5.0,13.0,11.0,3.0,6.0,3.0
1701873201.9705362,2.0,1.0,9.0,10.0,24.0,14.0,-6.0,2.0
1701873201.9705362,-15.0,-8.0,16.0,11.0,3.0,3.0,-4.0,-5.0
1701873201.9705362,-2.0,-4.0,-11.0,-10.0,-12.0,11.0,28.0,-1.0
1701873201.9705362,-5.0,-15.0,-23.0,-22.0,-21.0,-22.0,-19.0,-7.0
1701873202.0002627,10.0,32.0,11.0,0.0,-9.0,-18.0,-10.0,3.0
1701873202.0002627,14.0,0.0,-8.0,7.0,11.0,25.0,14.0,10.0
1701873202.0002627,-4.0,3.0,17.0,11.0,0.0,-16.0,-3.0,4.0
1701873202.0002627,3.0,-2.0,-17.0,6.0,11.0,34.0,24.0,-11.0
1701873202.0106275,6.0,-4.0,-8.0,-28.0,-13.0,5.0,27.0,11.0
1701873202.0106275,9.0,13.0,4.0,-5.0,-8.0,-14.0,4.0,2.0
1701873202.0106275,1.0,4.0,12.0,9.0,12.0,15.0,-4.0,-1.0
1701873202.0106275,3.0,31.0,12.0,10.0,5.0,-13.0,-30.0,4.0
1701873202.0306783,-7.0,-27.0,-6.0,0.0,-8.0,-24.0,-19.0,-7.0
1701873202.0306783,-8.0,-9.0,-25.0,-22.0,-14.0,-14.0,4.0,-7.0
1701873202.0306783,4.0,-2.0,12.0,2.0,3.0,15.0,13.0,3.0
1701873202.0306783,-6.0,0.0,1.0,6.0,-2.0,-1.0,-1.0,1.0
1701873202.0502646,-3.0,3.0,13.0,17.0,16.0,18.0,3.0,0.0
1701873202.0502646,-8.0,-3.0,1.0,-2.0,6.0,-1.0,-21.0,-4.0
1701873202.0502646,-4.0,-15.0,-15.0,-7.0,-22.0,-55.0,-28.0,-8.0
1701873202.0502646,3.0,-39.0,-16.0,-9.0,4.0,17.0,18.0,5.0
1701873202.0705483,27.0,39.0,4.0,11.0,7.0,22.0,43.0,19.0
1701873202.0705483,4.0,4.0,11.0,-1.0,-5.0,-11.0,-23.0,-2.0
1701873202.0705483,6.0,17.0,11.0,12.0,7.0,16.0,-6.0,-6.0
1701873202.0705483,-5.0,-14.0,-6.0,-26.0,-28.0,-44.0,-5.0,1.0
1701873202.0902915,-18.0,-19.0,3.0,16.0,21.0,39.0,-10.0,-11.0
1701873202.0902915,1.0,15.0,-5.0,-11.0,-3.0,-36.0,-43.0,-5.0
1701873202.1003184,-11.0,-31.0,9.0,3.0,6.0,38.0,53.0,4.0
1701873202.1003184,0.0,-8.0,4.0,10.0,1.0,-14.0,-33.0,-6.0
1701873202.1203141,-6.0,3.0,-3.0,-14.0,-22.0,3.0,40.0,0.0
1701873202.1203141,-1.0,9.0,22.0,7.0,2.0,0.0,-11.0,-5.0
1701873202.1203141,-7.0,-13.0,-20.0,-1.0,15.0,2.0,-20.0,-1.0
1701873202.1203141,0.0,8.0,4.0,-1.0,-9.0,-26.0,-18.0,-2.0
1701873202.1304686,-3.0,-16.0,-9.0,-1.0,-2.0,-15.0,-35.0,-21.0
1701873202.1304686,-23.0,0.0,24.0,16.0,11.0,11.0,5.0,-3.0
1701873202.1304686,3.0,2.0,-16.0,-35.0,-27.0,-15.0,16.0,5.0
1701873202.1304686,1.0,19.0,28.0,23.0,20.0,38.0,15.0,-8.0
1701873202.1504812,-4.0,-26.0,-58.0,-37.0,-14.0,-7.0,-25.0,-5.0
1701873202.1504812,5.0,-15.0,-13.0,-2.0,-2.0,-8.0,2.0,2.0
1701873202.1603165,-6.0,12.0,9.0,24.0,19.0,29.0,-6.0,-8.0
1701873202.1603165,10.0,35.0,38.0,9.0,-17.0,-39.0,-5.0,14.0
1701873202.170313,31.0,-16.0,9.0,2.0,24.0,41.0,15.0,12.0
1701873202.170313,-6.0,-20.0,-79.0,-39.0,-18.0,-51.0,-29.0,-9.0
1701873202.170313,17.0,-3.0,11.0,9.0,11.0,31.0,23.0,9.0
1701873202.170313,-22.0,16.0,6.0,2.0,4.0,52.0,50.0,10.0
1701873202.1907277,5.0,15.0,20.0,9.0,-18.0,-43.0,-21.0,0.0
1701873202.1907277,12.0,-2.0,21.0,28.0,25.0,24.0,17.0,9.0
1701873202.1907277,-3.0,-7.0,-22.0,-16.0,-6.0,-35.0,-31.0,-11.0
1701873202.1907277,14.0,3.0,3.0,7.0,3.0,12.0,17.0,3.0
1701873202.2105875,-3.0,19.0,13.0,8.0,5.0,7.0,-5.0,3.0
1701873202.2105875,-14.0,-15.0,-18.0,-21.0,-9.0,25.0,23.0,-5.0
1701873202.2203116,-15.0,-19.0,6.0,0.0,-19.0,-52.0,-26.0,-8.0
1701873202.2203116,6.0,2.0,8.0,16.0,21.0,41.0,9.0,5.0
1701873202.2303524,-8.0,11.0,29.0,1.0,-8.0,-25.0,-6.0,-5.0
1701873202.2303524,-4.0,-18.0,-25.0,-15.0,-13.0,0.0,1.0,-5.0
1701873202.2303524,13.0,63.0,25.0,5.0,15.0,33.0,19.0,10.0
1701873202.2303524,-4.0,10.0,-19.0,-13.0,-12.0,-37.0,-43.0,-12.0
1701873202.256344,-18.0,-22.0,-7.0,-6.0,-7.0,-14.0,-8.0,-9.0
1701873202.2573555,8.0,21.0,26.0,16.0,2.0,27.0,44.0,8.0
1701873202.2583523,2.0,-12.0,-34.0,-10.0,3.0,-16.0,-44.0,-11.0
1701873202.2583523,-3.0,-11.0,-13.0,-17.0,-7.0,16.0,49.0,6.0
1701873202.2708359,-1.0,11.0,-3.0,-2.0,-8.0,-19.0,-15.0,-3.0
1701873202.2708359,2.0,-7.0,9.0,8.0,10.0,20.0,8.0,1.0
1701873202.284868,-10.0,-14.0,-5.0,-9.0,-15.0,-26.0,-27.0,-13.0
1701873202.284868,-2.0,-13.0,-14.0,-4.0,0.0,-19.0,-33.0,-12.0
1701873202.2939615,-4.0,-18.0,-16.0,6.0,12.0,26.0,17.0,3.0
1701873202.294984,5.0,5.0,11.0,5.0,6.0,-2.0,1.0,2.0
1701873202.3007696,0.0,10.0,12.0,6.0,1.0,3.0,11.0,4.0
1701873202.3017893,-2.0,3.0,-2.0,-6.0,-7.0,-17.0,-16.0,-9.0
1701873202.3172297,-1.0,4.0,-4.0,-3.0,-6.0,-2.0,8.0,2.0
1701873202.3172297,-1.0,4.0,-6.0,-10.0,-8.0,-10.0,-12.0,-5.0
1701873202.3272278,-1.0,0.0,11.0,-1.0,-4.0,6.0,3.0,0.0
1701873202.3272278,-7.0,-32.0,-27.0,-8.0,2.0,5.0,-1.0,-5.0
1701873202.3372202,0.0,20.0,13.0,3.0,-6.0,-21.0,-15.0,-2.0
1701873202.3372202,1.0,8.0,20.0,14.0,11.0,6.0,4.0,4.0
1701873202.3372202,7.0,13.0,24.0,26.0,11.0,15.0,11.0,5.0
1701873202.3372202,-13.0,-27.0,-38.0,-18.0,-19.0,-16.0,-5.0,-4.0
1701873202.347335,-2.0,-1.0,-4.0,-25.0,-3.0,6.0,-1.0,1.0
1701873202.347335,2.0,3.0,-11.0,-15.0,-18.0,-11.0,-3.0,-1.0
1701873202.347335,7.0,18.0,20.0,18.0,9.0,8.0,12.0,3.0
1701873202.347335,-1.0,2.0,0.0,13.0,7.0,-4.0,-9.0,-4.0
1701873202.3772264,9.0,-3.0,5.0,5.0,13.0,2.0,3.0,5.0
1701873202.3772264,-9.0,-4.0,-28.0,-41.0,-13.0,1.0,0.0,-4.0
1701873202.3772264,-1.0,-24.0,-25.0,-33.0,-24.0,-9.0,-5.0,-3.0
1701873202.3772264,-3.0,20.0,8.0,12.0,7.0,-5.0,-7.0,-1.0
1701873202.3872492,-12.0,-25.0,8.0,10.0,-3.0,-9.0,-5.0,-9.0
1701873202.3872492,13.0,13.0,12.0,36.0,11.0,6.0,8.0,7.0
1701873202.3974943,-6.0,-12.0,-11.0,2.0,4.0,11.0,7.0,3.0
1701873202.3974943,-1.0,9.0,6.0,-18.0,-1.0,-2.0,-5.0,-4.0
1701873202.4074988,2.0,-10.0,-9.0,-3.0,-7.0,-1.0,3.0,2.0
1701873202.4074988,7.0,23.0,26.0,10.0,3.0,-1.0,-2.0,2.0
1701873202.4074988,-5.0,-8.0,-25.0,5.0,-1.0,-5.0,0.0,-2.0
1701873202.4074988,-11.0,-30.0,-6.0,-12.0,-11.0,-3.0,-2.0,-5.0
1701873202.44722,-4.0,-6.0,-6.0,7.0,9.0,4.0,-2.0,-1.0
1701873202.44722,4.0,6.0,6.0,-21.0,-7.0,-6.0,-2.0,0.0
1701873202.44722,-1.0,4.0,13.0,-5.0,-1.0,1.0,1.0,-4.0
1701873202.44722,9.0,11.0,8.0,10.0,8.0,1.0,2.0,3.0
1701873202.44722,-1.0,6.0,-5.0,-2.0,-6.0,-8.0,-7.0,-3.0
1701873202.44722,-26.0,-65.0,-38.0,-10.0,-5.0,2.0,-2.0,-8.0
1701873202.4574406,-3.0,5.0,1.0,-7.0,-3.0,-1.0,-1.0,-2.0
1701873202.4574406,8.0,10.0,-22.0,-17.0,-2.0,-2.0,-1.0,6.0
1701873202.4676578,-5.0,4.0,18.0,4.0,-6.0,-7.0,-3.0,-3.0
1701873202.4676578,-6.0,-6.0,-3.0,11.0,0.0,1.0,0.0,-2.0
1701873202.4676578,-10.0,-14.0,-5.0,-11.0,-12.0,-3.0,-4.0,-7.0
1701873202.4676578,1.0,-2.0,-12.0,0.0,10.0,2.0,-2.0,-2.0
1701873202.4974568,3.0,4.0,-29.0,-24.0,-1.0,5.0,4.0,4.0
1701873202.4974568,4.0,11.0,8.0,9.0,5.0,-3.0,-4.0,-1.0
1701873202.4974568,3.0,5.0,6.0,2.0,1.0,1.0,3.0,2.0
1701873202.4974568,3.0,7.0,9.0,2.0,0.0,5.0,1.0,1.0
1701873202.5076988,-6.0,-15.0,-19.0,0.0,-3.0,-3.0,-3.0,-3.0
1701873202.5076988,-7.0,-7.0,9.0,-1.0,-11.0,-10.0,-6.0,-9.0
1701873202.5176961,0.0,5.0,-5.0,-2.0,-5.0,-5.0,-2.0,-3.0
1701873202.5176961,0.0,-5.0,-3.0,-13.0,-3.0,0.0,0.0,-1.0
1701873202.5276456,2.0,9.0,28.0,15.0,0.0,-4.0,-3.0,-4.0
1701873202.5276456,2.0,-1.0,-6.0,6.0,10.0,9.0,6.0,6.0
1701873202.5276456,-1.0,-8.0,-13.0,-9.0,9.0,5.0,1.0,0.0
1701873202.5276456,-13.0,-26.0,1.0,-4.0,-11.0,-6.0,-5.0,-10.0
1701873202.567457,7.0,15.0,-6.0,-2.0,-3.0,-5.0,0.0,4.0
1701873202.567457,4.0,8.0,18.0,4.0,-2.0,-4.0,-1.0,2.0
1701873202.567457,1.0,5.0,6.0,9.0,1.0,0.0,-2.0,1.0
1701873202.567457,0.0,-1.0,-17.0,1.0,7.0,5.0,4.0,2.0
1701873202.567457,0.0,4.0,31.0,9.0,-1.0,-1.0,0.0,-1.0
1701873202.567457,11.0,27.0,7.0,16.0,1.0,-9.0,-4.0,3.0
1701873202.577638,-9.0,-22.0,-35.0,-25.0,-8.0,4.0,4.0,-2.0
1701873202.577638,-3.0,0.0,13.0,6.0,3.0,4.0,0.0,-4.0
1701873202.5876708,5.0,13.0,-14.0,-13.0,-2.0,-5.0,-7.0,-3.0
1701873202.5876708,2.0,-10.0,6.0,9.0,11.0,13.0,6.0,5.0
1701873202.5977116,-7.0,-12.0,-5.0,0.0,-6.0,-8.0,-6.0,-3.0
1701873202.5977116,0.0,0.0,-15.0,-12.0,-8.0,-10.0,-6.0,-2.0
1701873202.6174576,-22.0,-56.0,-11.0,-10.0,-4.0,1.0,-1.0,-7.0
1701873202.6174576,0.0,6.0,9.0,-6.0,-12.0,-10.0,-7.0,-4.0
1701873202.6174576,0.0,-8.0,-37.0,-16.0,-4.0,8.0,6.0,1.0
1701873202.6174576,8.0,11.0,26.0,15.0,10.0,8.0,7.0,9.0
1701873202.6174576,-5.0,-7.0,-32.0,-15.0,-8.0,-11.0,-8.0,-5.0
1701873202.6174576,0.0,2.0,23.0,10.0,1.0,1.0,-2.0,-2.0
1701873202.6278071,7.0,14.0,11.0,7.0,5.0,2.0,1.0,0.0
1701873202.6278071,9.0,32.0,12.0,6.0,-3.0,-3.0,3.0,4.0
1701873202.637803,-9.0,-19.0,-49.0,-33.0,-7.0,3.0,4.0,-4.0
1701873202.637803,0.0,-4.0,-21.0,-9.0,3.0,6.0,2.0,-1.0
1701873202.6475,-10.0,-2.0,43.0,8.0,-15.0,-20.0,-10.0,-8.0
1701873202.6475,-3.0,-12.0,-32.0,-13.0,0.0,4.0,0.0,0.0
1701873202.6674573,-5.0,-6.0,0.0,0.0,-3.0,-9.0,-7.0,-4.0
1701873202.6674573,8.0,30.0,30.0,14.0,4.0,5.0,7.0,5.0
1701873202.6674573,-15.0,-48.0,-40.0,-24.0,1.0,3.0,-1.0,-5.0
1701873202.6674573,5.0,10.0,12.0,14.0,9.0,2.0,1.0,3.0
1701873202.677457,4.0,15.0,11.0,12.0,5.0,4.0,6.0,4.0
1701873202.677457,0.0,18.0,20.0,9.0,-3.0,-10.0,-7.0,-5.0
1701873202.6978054,0.0,-26.0,-34.0,-3.0,8.0,14.0,8.0,6.0
1701873202.6978054,-7.0,-13.0,10.0,-4.0,-10.0,-9.0,-7.0,-8.0
1701873202.6978054,5.0,8.0,-2.0,4.0,5.0,4.0,2.0,3.0
1701873202.6978054,-2.0,12.0,9.0,1.0,-3.0,-9.0,-6.0,-6.0
1701873202.7174568,5.0,15.0,21.0,10.0,3.0,-4.0,1.0,0.0
1701873202.7174568,-11.0,-36.0,-37.0,-17.0,-9.0,-1.0,-3.0,-7.0
1701873202.7278085,11.0,33.0,27.0,18.0,7.0,5.0,4.0,2.0
1701873202.7278085,-4.0,4.0,13.0,6.0,-3.0,-6.0,-3.0,-2.0
1701873202.7278085,1.0,-3.0,14.0,11.0,8.0,10.0,3.0,2.0
1701873202.7278085,3.0,9.0,-3.0,-2.0,1.0,2.0,0.0,2.0
1701873202.7478604,6.0,34.0,60.0,32.0,-4.0,-12.0,-8.0,-3.0
1701873202.7478604,-7.0,-22.0,-10.0,-9.0,1.0,1.0,0.0,-1.0
1701873202.7478604,0.0,18.0,12.0,3.0,-4.0,-9.0,-6.0,-4.0
1701873202.7478604,17.0,43.0,20.0,15.0,3.0,-1.0,0.0,4.0
1701873202.7577956,8.0,13.0,28.0,30.0,8.0,6.0,2.0,4.0
1701873202.7577956,-3.0,-22.0,-24.0,-3.0,12.0,15.0,8.0,-1.0
1701873202.7829602,5.0,18.0,6.0,-2.0,4.0,2.0,1.0,5.0
1701873202.7829602,-8.0,-12.0,2.0,-8.0,-14.0,-12.0,-6.0,-5.0
1701873202.7889726,-5.0,-15.0,-24.0,-17.0,-10.0,-9.0,-4.0,-3.0
1701873202.7889726,1.0,-5.0,-8.0,-3.0,0.0,3.0,1.0,0.0
1701873202.8050122,2.0,4.0,-5.0,-5.0,-1.0,-3.0,-3.0,-5.0
1701873202.8050122,2.0,3.0,8.0,2.0,1.0,1.0,1.0,1.0
1701873202.8059666,-4.0,-12.0,-14.0,-12.0,-10.0,-9.0,-6.0,-2.0
1701873202.8059666,-9.0,-21.0,-25.0,-13.0,-6.0,1.0,1.0,-4.0
1701873202.8059666,2.0,17.0,19.0,15.0,10.0,5.0,4.0,1.0
1701873202.8059666,-5.0,-16.0,-15.0,-8.0,-2.0,-2.0,-1.0,-5.0
1701873202.8259702,-2.0,-13.0,-32.0,-20.0,-6.0,-4.0,-4.0,0.0
1701873202.8259702,-6.0,-9.0,-5.0,-7.0,-6.0,-2.0,-5.0,-1.0
1701873202.8459642,-2.0,4.0,-1.0,0.0,-3.0,-5.0,-4.0,-4.0
1701873202.8459642,-8.0,-2.0,4.0,1.0,-1.0,-2.0,-3.0,-5.0
1701873202.8459642,1.0,7.0,18.0,9.0,4.0,2.0,2.0,0.0
1701873202.8459642,-6.0,-19.0,-8.0,-9.0,-10.0,-10.0,-8.0,-3.0
1701873202.8559635,-2.0,0.0,-10.0,-7.0,-8.0,-7.0,-3.0,-3.0
1701873202.8559635,-5.0,-11.0,-10.0,-4.0,-3.0,-1.0,-1.0,-3.0
1701873202.8662384,3.0,8.0,11.0,5.0,10.0,11.0,7.0,4.0
1701873202.8662384,3.0,8.0,-17.0,-5.0,1.0,-2.0,-2.0,1.0
1701873202.8662384,-5.0,-12.0,-17.0,-6.0,-5.0,1.0,2.0,-1.0
1701873202.8662384,1.0,-1.0,9.0,4.0,5.0,4.0,4.0,4.0
1701873202.885964,2.0,4.0,11.0,2.0,-4.0,-7.0,-6.0,1.0
1701873202.885964,4.0,5.0,-11.0,-8.0,-7.0,0.0,2.0,3.0
1701873202.8959634,-3.0,-1.0,-15.0,-10.0,-4.0,-3.0,-4.0,-3.0
1701873202.8959634,-4.0,-7.0,9.0,6.0,10.0,7.0,3.0,0.0
1701873202.9062834,-3.0,-11.0,-3.0,2.0,2.0,-2.0,-5.0,-2.0
1701873202.9062834,-4.0,-1.0,-5.0,-10.0,-12.0,-13.0,-10.0,-7.0
1701873202.916374,-2.0,4.0,14.0,2.0,-6.0,-14.0,-15.0,-6.0
1701873202.916374,-6.0,-4.0,1.0,2.0,-1.0,21.0,19.0,-2.0
1701873202.9263735,4.0,4.0,5.0,4.0,12.0,9.0,7.0,5.0
1701873202.9263735,1.0,4.0,11.0,12.0,4.0,-8.0,-7.0,-5.0
1701873202.9263735,-7.0,-8.0,-23.0,-21.0,-14.0,-8.0,-4.0,-3.0
1701873202.9263735,5.0,-2.0,-4.0,-9.0,-1.0,-10.0,-7.0,2.0
1701873202.9359639,-3.0,12.0,30.0,7.0,3.0,-14.0,-17.0,-13.0
1701873202.9359639,-6.0,-23.0,-63.0,-26.0,-10.0,-17.0,-3.0,-1.0
1701873202.945963,9.0,6.0,8.0,21.0,16.0,40.0,31.0,11.0
1701873202.945963,6.0,0.0,5.0,10.0,-8.0,2.0,13.0,9.0
1701873202.96629,-19.0,-16.0,-3.0,-9.0,-12.0,6.0,2.0,-15.0
1701873202.96629,13.0,16.0,14.0,8.0,12.0,13.0,3.0,13.0
1701873202.9762738,-2.0,6.0,12.0,4.0,10.0,-11.0,-10.0,-4.0
1701873202.9762738,-2.0,-3.0,6.0,0.0,-6.0,-6.0,-9.0,-11.0
1701873202.9862711,4.0,2.0,-10.0,2.0,1.0,-4.0,1.0,9.0
1701873202.9862711,-4.0,-4.0,-4.0,-6.0,-7.0,-8.0,-9.0,-6.0
1701873202.9862711,-8.0,-8.0,-10.0,-12.0,-6.0,-4.0,-6.0,-12.0
1701873202.9862711,-1.0,6.0,21.0,5.0,-12.0,-13.0,-10.0,5.0
1701873203.0159655,-6.0,-13.0,-26.0,-6.0,0.0,-8.0,-8.0,-10.0
1701873203.0159655,-6.0,0.0,13.0,0.0,9.0,22.0,23.0,-6.0
1701873203.0159655,5.0,-3.0,-3.0,0.0,-7.0,-12.0,4.0,17.0
1701873203.0159655,3.0,-1.0,-9.0,-9.0,-8.0,-20.0,-30.0,-15.0
1701873203.0259995,-3.0,7.0,2.0,-8.0,-2.0,6.0,14.0,4.0
1701873203.0259995,-15.0,-7.0,3.0,15.0,10.0,39.0,24.0,-7.0
1701873203.036375,19.0,7.0,7.0,3.0,1.0,-2.0,3.0,24.0
1701873203.036375,9.0,4.0,10.0,3.0,-1.0,-11.0,-7.0,-5.0
1701873203.04639,3.0,-9.0,-22.0,-9.0,-1.0,-7.0,-10.0,7.0
1701873203.04639,0.0,11.0,3.0,-5.0,-9.0,-24.0,-25.0,-15.0
1701873203.04639,-7.0,6.0,19.0,5.0,1.0,5.0,6.0,-3.0
1701873203.04639,0.0,5.0,-6.0,3.0,8.0,3.0,6.0,9.0
1701873203.0559666,7.0,2.0,-6.0,1.0,5.0,6.0,6.0,3.0
1701873203.0559666,-7.0,-13.0,-30.0,-19.0,-13.0,-36.0,-36.0,-6.0
1701873203.065963,-5.0,0.0,18.0,9.0,3.0,22.0,28.0,-12.0
1701873203.065963,-3.0,-9.0,-22.0,-13.0,-1.0,4.0,6.0,12.0
1701873203.086382,14.0,-2.0,14.0,13.0,11.0,15.0,15.0,18.0
1701873203.086382,-2.0,-8.0,-14.0,1.0,-2.0,-13.0,-15.0,-7.0
1701873203.0963693,-3.0,-6.0,-11.0,-12.0,-17.0,-19.0,-17.0,3.0
1701873203.0963693,-7.0,-1.0,9.0,6.0,2.0,-9.0,-7.0,-5.0
1701873203.10636,-9.0,18.0,-8.0,-12.0,5.0,29.0,32.0,3.0
1701873203.10636,6.0,7.0,21.0,6.0,0.0,-6.0,-12.0,4.0
1701873203.10636,-4.0,-7.0,-8.0,3.0,1.0,-10.0,-15.0,-3.0
1701873203.10636,-14.0,-17.0,-11.0,-4.0,2.0,6.0,3.0,-3.0
1701873203.115967,-3.0,2.0,6.0,5.0,-8.0,-10.0,-6.0,2.0
1701873203.115967,6.0,-3.0,15.0,12.0,9.0,14.0,21.0,9.0
1701873203.1259627,-5.0,8.0,3.0,-4.0,5.0,6.0,4.0,-10.0
1701873203.1259627,2.0,-31.0,-27.0,-10.0,-13.0,-21.0,-25.0,-11.0
1701873203.1463916,-12.0,-26.0,-20.0,-13.0,-12.0,-19.0,-21.0,-21.0
1701873203.1463916,-3.0,3.0,16.0,7.0,6.0,18.0,21.0,4.0
1701873203.155966,-4.0,-11.0,-4.0,-10.0,-11.0,-6.0,-4.0,-1.0
1701873203.155966,12.0,17.0,-2.0,0.0,5.0,8.0,8.0,7.0
1701873203.1659634,3.0,-1.0,6.0,8.0,2.0,-9.0,-7.0,2.0
1701873203.1659634,5.0,20.0,23.0,8.0,2.0,5.0,6.0,3.0
1701873203.1659634,-21.0,-14.0,-21.0,-13.0,-11.0,-21.0,-24.0,-16.0
1701873203.1659634,-6.0,2.0,11.0,9.0,8.0,20.0,14.0,-2.0
1701873203.1859648,-12.0,10.0,-2.0,-15.0,-9.0,-6.0,-14.0,-6.0
1701873203.1859648,-3.0,-3.0,3.0,-2.0,1.0,9.0,26.0,4.0
1701873203.1859648,12.0,4.0,13.0,13.0,5.0,-3.0,-4.0,5.0
1701873203.1859648,-14.0,7.0,-8.0,-6.0,-3.0,-1.0,-1.0,-7.0
1701873203.2059639,-6.0,-26.0,21.0,20.0,8.0,6.0,-26.0,-7.0
1701873203.2059639,13.0,4.0,-23.0,-16.0,-1.0,-6.0,4.0,3.0
1701873203.2162228,-2.0,7.0,14.0,5.0,-2.0,-9.0,-9.0,-3.0
1701873203.2162228,-5.0,-13.0,-9.0,-15.0,-15.0,-2.0,6.0,-10.0
1701873203.2259634,-10.0,6.0,4.0,-3.0,-15.0,-21.0,-13.0,-10.0
1701873203.2259634,4.0,-11.0,-9.0,2.0,-1.0,-11.0,-11.0,6.0
1701873203.2259634,-7.0,9.0,16.0,15.0,20.0,31.0,12.0,-3.0
1701873203.2259634,-15.0,22.0,42.0,8.0,-4.0,-14.0,-1.0,1.0
1701873203.2459683,3.0,-26.0,-48.0,-20.0,-21.0,-34.0,-22.0,-7.0
1701873203.2459683,-26.0,-34.0,2.0,-8.0,-5.0,-3.0,-16.0,-13.0
1701873203.2459683,0.0,6.0,-23.0,1.0,8.0,7.0,17.0,-2.0
1701873203.2459683,5.0,-19.0,12.0,10.0,7.0,17.0,12.0,2.0
1701873203.2662797,-6.0,-14.0,-11.0,-21.0,-10.0,-5.0,-3.0,-6.0
1701873203.2662797,1.0,-3.0,-13.0,-11.0,-6.0,-9.0,-11.0,-7.0
1701873203.2759707,8.0,-9.0,4.0,3.0,-7.0,-6.0,8.0,10.0
1701873203.2759707,0.0,23.0,13.0,-4.0,-8.0,-32.0,-30.0,1.0
1701873203.2959707,4.0,-2.0,-29.0,12.0,35.0,72.0,51.0,8.0
1701873203.2959707,1.0,-6.0,5.0,9.0,8.0,3.0,-10.0,-1.0
1701873203.2959707,25.0,36.0,12.0,-2.0,-4.0,-8.0,-7.0,7.0
1701873203.2959707,3.0,10.0,-5.0,-13.0,-7.0,2.0,3.0,1.0
1701873203.2959707,0.0,2.0,-7.0,-10.0,-17.0,-22.0,3.0,2.0
1701873203.2959707,2.0,30.0,35.0,33.0,23.0,22.0,12.0,5.0
1701873203.3134217,5.0,-4.0,-22.0,-13.0,0.0,16.0,-3.0,-2.0
1701873203.3134217,-12.0,-18.0,-18.0,-2.0,6.0,0.0,7.0,0.0
1701873203.3334188,0.0,15.0,3.0,-6.0,-2.0,-8.0,-2.0,-6.0
1701873203.3334188,-1.0,-17.0,-23.0,-24.0,-20.0,-11.0,-9.0,-3.0
1701873203.3363845,-1.0,-25.0,21.0,7.0,-7.0,-12.0,-4.0,-3.0
1701873203.3363845,11.0,28.0,-13.0,11.0,9.0,-2.0,-1.0,-5.0
1701873203.3492503,2.0,19.0,11.0,-4.0,1.0,7.0,0.0,-2.0
1701873203.3492503,4.0,7.0,1.0,2.0,-3.0,-3.0,17.0,6.0
1701873203.3589835,-8.0,-8.0,-5.0,-2.0,-1.0,7.0,-6.0,-5.0
1701873203.3589835,15.0,10.0,30.0,24.0,12.0,16.0,10.0,5.0
1701873203.3589835,-22.0,-49.0,-30.0,-12.0,4.0,-4.0,2.0,-6.0
1701873203.3589835,5.0,3.0,-4.0,-12.0,-11.0,-16.0,-6.0,-1.0
1701873203.3691332,-18.0,9.0,27.0,5.0,-14.0,-24.0,-6.0,-2.0
1701873203.3691332,-13.0,-26.0,-44.0,0.0,7.0,9.0,-6.0,-4.0
1701873203.3888302,7.0,9.0,29.0,6.0,1.0,-1.0,1.0,2.0
1701873203.3888302,-1.0,1.0,-25.0,-14.0,0.0,8.0,2.0,3.0
1701873203.3888302,-16.0,-35.0,-31.0,-20.0,-9.0,-16.0,-13.0,-9.0
1701873203.3888302,2.0,0.0,20.0,5.0,-7.0,0.0,5.0,-1.0
1701873203.4090827,0.0,8.0,7.0,-1.0,1.0,2.0,0.0,0.0
1701873203.4090827,-1.0,1.0,2.0,-1.0,-4.0,-13.0,-8.0,-1.0
1701873203.4090827,10.0,8.0,-11.0,8.0,10.0,-1.0,2.0,2.0
1701873203.4090827,-2.0,-1.0,5.0,7.0,6.0,24.0,7.0,-3.0
1701873203.4188347,8.0,4.0,-4.0,-5.0,0.0,-1.0,-1.0,3.0
1701873203.4188347,3.0,13.0,9.0,-1.0,1.0,10.0,4.0,-1.0
1701873203.4290717,3.0,-1.0,7.0,-2.0,-1.0,1.0,0.0,-3.0
1701873203.4290717,-3.0,-7.0,-13.0,0.0,-2.0,-4.0,-6.0,-1.0
1701873203.4688323,-3.0,-4.0,5.0,4.0,-9.0,-11.0,-6.0,-1.0
1701873203.4688323,5.0,1.0,-2.0,-3.0,1.0,5.0,1.0,-1.0
1701873203.4688323,-4.0,-32.0,-10.0,-1.0,2.0,6.0,-1.0,-4.0
1701873203.4688323,-2.0,12.0,2.0,-7.0,-12.0,-20.0,-10.0,-2.0
1701873203.4688323,8.0,6.0,-5.0,4.0,8.0,5.0,5.0,4.0
1701873203.4688323,-1.0,3.0,15.0,7.0,-3.0,-4.0,0.0,2.0
1701873203.4688323,-5.0,-16.0,-40.0,-24.0,-7.0,-4.0,-9.0,-5.0
1701873203.4688323,-7.0,-20.0,17.0,-4.0,0.0,0.0,-3.0,-3.0
1701873203.4892507,-1.0,-9.0,-8.0,0.0,-3.0,-12.0,-2.0,0.0
1701873203.4892507,15.0,19.0,8.0,11.0,6.0,13.0,6.0,2.0
1701873203.4988308,-8.0,6.0,1.0,-8.0,-4.0,0.0,-3.0,-2.0
1701873203.4988308,7.0,10.0,-9.0,6.0,1.0,0.0,-3.0,1.0
1701873203.5088296,0.0,6.0,14.0,7.0,6.0,8.0,4.0,2.0
1701873203.5088296,1.0,1.0,-1.0,-1.0,-4.0,-10.0,-2.0,-1.0
1701873203.5188303,0.0,-15.0,-12.0,-6.0,-6.0,0.0,-1.0,0.0
1701873203.5188303,1.0,13.0,21.0,6.0,-6.0,-11.0,-4.0,-5.0
1701873203.5392516,7.0,29.0,-5.0,-5.0,5.0,9.0,5.0,5.0
1701873203.5392516,-15.0,-31.0,-17.0,-12.0,1.0,6.0,2.0,-1.0
1701873203.5392516,3.0,18.0,29.0,23.0,11.0,3.0,1.0,2.0
1701873203.5392516,-6.0,-23.0,-31.0,-28.0,-4.0,1.0,2.0,0.0
1701873203.5488298,4.0,13.0,11.0,10.0,-3.0,-10.0,-5.0,-3.0
1701873203.5488298,-5.0,-10.0,-27.0,-13.0,-12.0,-8.0,-3.0,-4.0
1701873203.5588288,4.0,5.0,-9.0,3.0,-1.0,4.0,4.0,2.0
1701873203.5588288,4.0,10.0,24.0,23.0,12.0,1.0,2.0,4.0
1701873203.5688617,3.0,13.0,22.0,10.0,1.0,8.0,1.0,-1.0
1701873203.5688617,-21.0,-17.0,-15.0,-4.0,1.0,-2.0,-2.0,-4.0
1701873203.5791736,6.0,25.0,39.0,5.0,-3.0,-2.0,0.0,1.0
1701873203.5791736,18.0,37.0,10.0,19.0,12.0,2.0,3.0,8.0
1701873203.5991771,-13.0,-41.0,-46.0,-24.0,-10.0,-1.0,-2.0,-7.0
1701873203.5991771,-6.0,-17.0,19.0,-1.0,-3.0,-6.0,-5.0,-5.0
1701873203.5991771,5.0,23.0,7.0,12.0,2.0,0.0,0.0,0.0
1701873203.5991771,-8.0,-12.0,-19.0,-28.0,-7.0,-2.0,-3.0,-1.0
1701873203.6188397,4.0,10.0,7.0,10.0,-5.0,0.0,2.0,2.0
1701873203.6188397,-2.0,-3.0,-4.0,-3.0,-2.0,1.0,-2.0,-4.0
1701873203.6188397,10.0,-5.0,-17.0,-7.0,0.0,-4.0,-3.0,-2.0
1701873203.6188397,-5.0,-1.0,2.0,-4.0,-8.0,-2.0,-4.0,-3.0
1701873203.629184,-11.0,-24.0,-9.0,-1.0,-4.0,-5.0,-6.0,-7.0
1701873203.629184,4.0,8.0,17.0,12.0,1.0,0.0,-1.0,1.0
1701873203.6388304,-1.0,-1.0,9.0,-1.0,3.0,-2.0,-4.0,-3.0
1701873203.6388304,5.0,-4.0,-27.0,-17.0,1.0,4.0,2.0,8.0
1701873203.6590137,2.0,14.0,52.0,26.0,-2.0,-7.0,-4.0,-2.0
1701873203.6590137,4.0,0.0,-8.0,-2.0,6.0,10.0,7.0,4.0
1701873203.6590137,-18.0,-21.0,-9.0,-4.0,-5.0,-7.0,-5.0,-9.0
1701873203.6590137,-12.0,-19.0,-9.0,-11.0,-4.0,-8.0,-2.0,-6.0
1701873203.6788287,-3.0,-5.0,-21.0,-23.0,4.0,10.0,4.0,3.0
1701873203.6788287,-9.0,-30.0,4.0,5.0,-12.0,-14.0,-9.0,-8.0
1701873203.6788287,-2.0,14.0,-11.0,-5.0,-1.0,0.0,0.0,1.0
1701873203.6788287,-3.0,-6.0,13.0,3.0,-4.0,-3.0,-1.0,-4.0
1701873203.6890604,4.0,-3.0,-34.0,-8.0,2.0,3.0,2.0,1.0
1701873203.6890604,4.0,12.0,6.0,2.0,4.0,-3.0,-1.0,0.0
1701873203.698834,0.0,4.0,13.0,13.0,-1.0,-2.0,-3.0,1.0
1701873203.698834,-7.0,-17.0,-16.0,-17.0,-5.0,-4.0,-2.0,-4.0
1701873203.7190478,-1.0,1.0,-3.0,-7.0,-3.0,-8.0,-7.0,0.0
1701873203.7190478,4.0,16.0,26.0,18.0,-1.0,-4.0,-9.0,1.0
1701873203.7190478,-9.0,-18.0,-41.0,-28.0,-9.0,0.0,4.0,-5.0
1701873203.7190478,1.0,4.0,23.0,14.0,3.0,3.0,0.0,3.0
1701873203.7488334,-1.0,-8.0,3.0,-1.0,1.0,3.0,-1.0,-10.0
1701873203.7488334,0.0,9.0,11.0,7.0,-3.0,-5.0,-5.0,2.0
1701873203.7488334,5.0,5.0,-14.0,-3.0,3.0,0.0,1.0,-1.0
1701873203.7488334,-9.0,-28.0,-1.0,1.0,-1.0,3.0,0.0,2.0
1701873203.7488334,-5.0,-7.0,-14.0,-10.0,1.0,7.0,11.0,-2.0
1701873203.7488334,1.0,5.0,-16.0,-16.0,-4.0,-2.0,2.0,0.0
1701873203.7588294,7.0,17.0,14.0,16.0,9.0,6.0,4.0,4.0
1701873203.7588294,15.0,38.0,10.0,1.0,0.0,2.0,4.0,1.0
1701873203.7788296,-6.0,-10.0,9.0,3.0,-4.0,-5.0,-8.0,-1.0
1701873203.7788296,12.0,42.0,30.0,22.0,-4.0,-8.0,-4.0,-4.0
1701873203.7788296,-10.0,-21.0,-30.0,-22.0,-6.0,-4.0,-2.0,-4.0
1701873203.7788296,-5.0,-16.0,-21.0,2.0,3.0,-4.0,-5.0,-4.0
1701873203.7891667,-1.0,6.0,16.0,2.0,-2.0,-4.0,-4.0,-1.0
1701873203.7891667,4.0,-1.0,-23.0,-11.0,6.0,9.0,5.0,5.0
1701873203.799218,-3.0,5.0,23.0,21.0,0.0,-2.0,-4.0,-4.0
1701873203.799218,-1.0,-2.0,-22.0,-18.0,-6.0,-5.0,-3.0,-7.0
1701873203.8091705,4.0,8.0,18.0,10.0,3.0,2.0,2.0,5.0
1701873203.8091705,-1.0,1.0,-32.0,-27.0,-1.0,0.0,1.0,-1.0
1701873203.8191054,-10.0,-27.0,-13.0,-14.0,-4.0,4.0,0.0,-2.0
1701873203.8191054,-13.0,-34.0,-57.0,-32.0,-11.0,-3.0,-1.0,-6.0
1701873203.8449385,-26.0,-60.0,-48.0,-25.0,-11.0,-4.0,-4.0,-8.0
1701873203.8449385,-1.0,-4.0,-13.0,-5.0,-3.0,-5.0,-3.0,2.0
1701873203.8449385,-2.0,4.0,35.0,21.0,7.0,5.0,-1.0,-1.0
1701873203.8449385,-3.0,3.0,40.0,17.0,-1.0,1.0,-3.0,-4.0
1701873203.8548026,5.0,12.0,-20.0,-6.0,0.0,-6.0,-4.0,2.0
1701873203.8548026,1.0,21.0,48.0,24.0,0.0,-6.0,-5.0,-3.0
1701873203.8548026,13.0,20.0,2.0,6.0,9.0,11.0,9.0,10.0
1701873203.8548026,-9.0,-6.0,-6.0,-12.0,-4.0,-16.0,-12.0,-11.0
1701873203.8750663,4.0,2.0,22.0,10.0,5.0,10.0,5.0,2.0
1701873203.8750663,-16.0,-18.0,-10.0,-14.0,-12.0,-8.0,-4.0,-11.0
1701873203.8750663,16.0,25.0,-3.0,1.0,2.0,-1.0,1.0,8.0
1701873203.8750663,-1.0,1.0,22.0,16.0,-4.0,-3.0,-2.0,-1.0
1701873203.8948116,13.0,31.0,-5.0,2.0,4.0,-2.0,0.0,4.0
1701873203.8948116,-11.0,-48.0,-11.0,-6.0,-3.0,6.0,4.0,0.0
1701873203.8948116,-1.0,5.0,-15.0,-4.0,-1.0,-3.0,-5.0,-3.0
1701873203.8948116,0.0,2.0,15.0,2.0,-7.0,-8.0,-3.0,-3.0
1701873203.9150443,1.0,1.0,-10.0,2.0,7.0,3.0,0.0,2.0
1701873203.9150443,-8.0,-29.0,-21.0,-15.0,-4.0,1.0,3.0,-1.0
1701873203.924809,-13.0,-26.0,-22.0,-11.0,-8.0,-6.0,-3.0,-7.0
1701873203.924809,12.0,21.0,-21.0,1.0,6.0,7.0,4.0,8.0
1701873203.9350986,-9.0,-9.0,38.0,17.0,-11.0,-18.0,-12.0,-7.0
1701873203.9350986,11.0,26.0,-11.0,-12.0,6.0,5.0,2.0,5.0
1701873203.9448097,-3.0,0.0,15.0,6.0,-3.0,-1.0,-3.0,-2.0
1701873203.9448097,-11.0,-17.0,18.0,3.0,-7.0,-4.0,-2.0,-4.0
1701873203.9748042,14.0,36.0,22.0,15.0,5.0,1.0,3.0,6.0
1701873203.9748042,-9.0,-19.0,-32.0,-24.0,5.0,2.0,0.0,-4.0
1701873203.9748042,5.0,10.0,17.0,6.0,4.0,6.0,5.0,2.0
1701873203.9748042,8.0,10.0,13.0,19.0,7.0,9.0,3.0,1.0
1701873203.9748042,4.0,13.0,-24.0,-28.0,7.0,0.0,-1.0,3.0
1701873203.9748042,-16.0,-37.0,22.0,13.0,-7.0,-2.0,-4.0,-8.0
1701873203.9748042,1.0,3.0,-4.0,-11.0,-4.0,-6.0,-2.0,-2.0
1701873203.9748042,4.0,38.0,16.0,11.0,-8.0,-12.0,-5.0,2.0
1701873203.994868,-5.0,-15.0,-6.0,-4.0,-8.0,-1.0,-2.0,-5.0
1701873203.994868,6.0,17.0,-7.0,-3.0,3.0,2.0,2.0,3.0
1701873204.0148034,-6.0,1.0,10.0,6.0,1.0,-2.0,1.0,-3.0
1701873204.0148034,8.0,13.0,12.0,1.0,3.0,4.0,1.0,3.0
1701873204.0148034,-7.0,-15.0,-12.0,-8.0,-9.0,-9.0,-5.0,-5.0
1701873204.0148034,8.0,25.0,22.0,11.0,3.0,-1.0,1.0,1.0
1701873204.0148034,-5.0,-5.0,-6.0,-1.0,-9.0,-7.0,-2.0,-2.0
1701873204.0148034,-1.0,-12.0,3.0,-4.0,5.0,5.0,1.0,-1.0
1701873204.0350006,-6.0,-10.0,-23.0,-8.0,1.0,2.0,-3.0,-3.0
1701873204.0350006,-1.0,-9.0,-20.0,-12.0,-12.0,-7.0,-3.0,0.0
1701873204.044806,3.0,-3.0,-14.0,-12.0,-1.0,3.0,0.0,1.0
1701873204.044806,-9.0,-5.0,5.0,8.0,-1.0,-4.0,-1.0,-6.0
1701873204.0549743,-3.0,-5.0,-11.0,-8.0,-11.0,-6.0,-5.0,-5.0
1701873204.0549743,-3.0,3.0,37.0,23.0,2.0,-2.0,-1.0,-3.0
1701873204.064804,1.0,1.0,-4.0,0.0,5.0,-1.0,-1.0,1.0
1701873204.064804,2.0,-1.0,-24.0,-10.0,2.0,6.0,2.0,2.0
1701873204.0751278,1.0,-4.0,6.0,8.0,1.0,0.0,0.0,2.0
1701873204.0751278,-4.0,-6.0,-13.0,-11.0,-7.0,-6.0,-5.0,-4.0
1701873204.0751278,2.0,0.0,1.0,3.0,2.0,1.0,-2.0,-1.0
1701873204.0751278,-8.0,-14.0,-4.0,-18.0,-11.0,-13.0,-8.0,-5.0
1701873204.0951846,4.0,8.0,14.0,1.0,-2.0,-4.0,1.0,-1.0
1701873204.0951846,-7.0,-15.0,-35.0,-14.0,-8.0,-6.0,-5.0,-9.0
1701873204.0951846,-6.0,-5.0,5.0,6.0,0.0,3.0,1.0,1.0
1701873204.0951846,5.0,2.0,-13.0,-3.0,2.0,12.0,11.0,3.0
1701873204.114917,-2.0,2.0,22.0,20.0,16.0,9.0,1.0,0.0
1701873204.114917,8.0,12.0,-9.0,-3.0,8.0,9.0,6.0,8.0
1701873204.1248038,-2.0,-2.0,15.0,2.0,-5.0,-10.0,-5.0,-4.0
1701873204.1248038,-7.0,-15.0,-37.0,-22.0,-11.0,-17.0,-16.0,-10.0
1701873204.1350918,-3.0,-4.0,15.0,-1.0,-16.0,-10.0,1.0,-1.0
1701873204.1350918,-1.0,-2.0,-1.0,10.0,0.0,7.0,3.0,-1.0
1701873204.1350918,-2.0,-6.0,-18.0,-10.0,0.0,7.0,5.0,3.0
1701873204.1350918,2.0,3.0,10.0,1.0,9.0,2.0,-2.0,3.0
1701873204.1551745,-1.0,-1.0,-12.0,-4.0,-6.0,-11.0,-9.0,0.0
1701873204.1551745,-2.0,-5.0,-25.0,-16.0,-7.0,-19.0,-11.0,-2.0
1701873204.1551745,-9.0,-4.0,8.0,1.0,0.0,16.0,9.0,-11.0
1701873204.1551745,9.0,10.0,9.0,13.0,11.0,14.0,13.0,7.0
1701873204.1748395,7.0,5.0,2.0,-3.0,0.0,-2.0,-3.0,4.0
1701873204.1748395,4.0,17.0,27.0,17.0,7.0,-1.0,-9.0,0.0
1701873204.1848063,-2.0,-7.0,-10.0,-10.0,-6.0,-17.0,-5.0,11.0
1701873204.1848063,-4.0,-10.0,11.0,5.0,-1.0,4.0,-3.0,-3.0
1701873204.1948063,-11.0,-4.0,4.0,1.0,-8.0,-18.0,-14.0,-5.0
1701873204.1948063,3.0,6.0,5.0,6.0,4.0,33.0,38.0,9.0
1701873204.1948063,12.0,3.0,-3.0,-12.0,-1.0,2.0,1.0,-4.0
1701873204.1948063,-4.0,-3.0,-20.0,-4.0,1.0,-2.0,-4.0,-11.0
1701873204.2151845,-5.0,-12.0,-9.0,-4.0,-5.0,-11.0,-13.0,-4.0
1701873204.2151845,-9.0,3.0,16.0,13.0,-2.0,-8.0,-10.0,-5.0
1701873204.2151845,14.0,6.0,0.0,-8.0,2.0,9.0,4.0,7.0
1701873204.2151845,0.0,-8.0,-19.0,-7.0,5.0,4.0,3.0,6.0
1701873204.234839,-2.0,-2.0,-3.0,1.0,-1.0,-4.0,-1.0,-6.0
1701873204.234839,-5.0,0.0,1.0,-1.0,0.0,-2.0,-2.0,-3.0
1701873204.2448058,-5.0,-5.0,1.0,6.0,0.0,-4.0,-4.0,-3.0
1701873204.2448058,5.0,5.0,-5.0,-7.0,-6.0,-3.0,-5.0,0.0
1701873204.255184,1.0,4.0,9.0,6.0,3.0,9.0,6.0,-2.0
1701873204.255184,-4.0,-11.0,13.0,-3.0,-5.0,-7.0,-7.0,-4.0
1701873204.255184,2.0,1.0,-4.0,-2.0,-9.0,-9.0,-6.0,-1.0
1701873204.255184,-5.0,5.0,11.0,0.0,-7.0,-13.0,-4.0,4.0
1701873204.2751904,-12.0,-1.0,2.0,6.0,14.0,21.0,10.0,-26.0
1701873204.2751904,11.0,11.0,-7.0,0.0,1.0,1.0,1.0,18.0
1701873204.2751904,6.0,-7.0,-4.0,0.0,-6.0,-11.0,-7.0,12.0
1701873204.2751904,-9.0,-19.0,-19.0,-13.0,-7.0,-6.0,-5.0,-12.0
1701873204.2948022,2.0,6.0,16.0,10.0,4.0,7.0,9.0,10.0
1701873204.2948022,-2.0,10.0,12.0,11.0,5.0,-2.0,-6.0,-10.0
1701873204.3048089,-5.0,2.0,3.0,2.0,7.0,5.0,-3.0,0.0
1701873204.3048089,1.0,2.0,12.0,1.0,1.0,0.0,2.0,2.0
1701873204.3148086,0.0,-5.0,-31.0,-24.0,-15.0,-12.0,-2.0,3.0
1701873204.3148086,1.0,-5.0,11.0,1.0,-4.0,-3.0,-6.0,9.0
1701873204.3148086,-7.0,3.0,12.0,14.0,9.0,6.0,9.0,-7.0
1701873204.3148086,4.0,-5.0,-10.0,-2.0,4.0,12.0,11.0,12.0
1701873204.335088,3.0,0.0,-1.0,-2.0,4.0,1.0,-3.0,2.0
1701873204.335088,1.0,0.0,-4.0,0.0,-3.0,-4.0,2.0,1.0
1701873204.3448079,-6.0,-6.0,-7.0,-9.0,-10.0,-11.0,-11.0,-11.0
1701873204.3448079,0.0,2.0,-9.0,-2.0,-6.0,-5.0,-6.0,-8.0
1701873204.3681936,3.0,5.0,10.0,-1.0,-6.0,2.0,3.0,4.0
1701873204.3681936,-2.0,1.0,-12.0,-5.0,1.0,-4.0,-2.0,-1.0
1701873204.3681936,4.0,-8.0,-12.0,-8.0,-1.0,0.0,0.0,3.0
1701873204.3681936,-3.0,3.0,13.0,6.0,2.0,1.0,-3.0,-8.0
1701873204.3803241,4.0,-1.0,-14.0,-4.0,1.0,3.0,4.0,13.0
1701873204.3803241,-1.0,9.0,3.0,-5.0,-5.0,-8.0,-5.0,-9.0
1701873204.3813357,-8.0,-5.0,-4.0,4.0,2.0,-1.0,-1.0,-4.0
1701873204.3813357,2.0,-12.0,-10.0,-7.0,2.0,9.0,1.0,2.0
1701873204.397703,2.0,0.0,20.0,12.0,0.0,-3.0,3.0,8.0
1701873204.397703,1.0,-5.0,-33.0,-14.0,-3.0,-1.0,0.0,-3.0
1701873204.397703,-3.0,3.0,10.0,-5.0,-4.0,-3.0,-3.0,-7.0
1701873204.397703,-2.0,3.0,10.0,6.0,-1.0,-5.0,-3.0,0.0
1701873204.4080508,-5.0,-1.0,1.0,3.0,0.0,0.0,-2.0,-6.0
1701873204.4080508,-3.0,-7.0,3.0,2.0,4.0,6.0,3.0,-2.0
1701873204.4183543,2.0,3.0,-6.0,-1.0,4.0,6.0,4.0,5.0
1701873204.4183543,-6.0,-1.0,-3.0,1.0,-2.0,-7.0,-6.0,-5.0
1701873204.4384904,1.0,1.0,3.0,-4.0,-4.0,0.0,-4.0,-3.0
1701873204.4384904,0.0,-3.0,-5.0,-5.0,-5.0,-4.0,-2.0,0.0
1701873204.4384904,-5.0,-8.0,0.0,-1.0,-9.0,-8.0,-7.0,-5.0
1701873204.4384904,-3.0,3.0,16.0,6.0,-6.0,-6.0,-1.0,-4.0
1701873204.4580736,5.0,-5.0,-16.0,-6.0,5.0,4.0,2.0,1.0
1701873204.4580736,-1.0,-3.0,-4.0,3.0,5.0,3.0,-1.0,-3.0
1701873204.4580736,0.0,9.0,12.0,3.0,-1.0,2.0,0.0,-1.0
1701873204.4580736,-4.0,-14.0,-2.0,-2.0,3.0,0.0,0.0,3.0
1701873204.4684477,8.0,20.0,0.0,2.0,-3.0,-5.0,-2.0,-2.0
1701873204.4684477,0.0,-6.0,0.0,-3.0,-1.0,0.0,-4.0,-4.0
1701873204.4784203,-7.0,-3.0,-14.0,-8.0,-6.0,-6.0,-5.0,-2.0
1701873204.4784203,1.0,13.0,16.0,3.0,-3.0,-2.0,-1.0,1.0
1701873204.498465,-9.0,-19.0,-7.0,-9.0,-4.0,-4.0,-2.0,-5.0
1701873204.498465,-2.0,-1.0,-3.0,-5.0,-1.0,-1.0,-1.0,1.0
1701873204.498465,1.0,5.0,14.0,12.0,3.0,5.0,0.0,-1.0
1701873204.498465,-1.0,0.0,6.0,-5.0,0.0,1.0,1.0,-1.0
1701873204.518075,-5.0,-6.0,-9.0,-9.0,2.0,2.0,-3.0,-4.0
1701873204.518075,0.0,0.0,5.0,0.0,-5.0,-2.0,0.0,0.0
1701873204.518075,0.0,-5.0,2.0,3.0,4.0,1.0,-3.0,-1.0
1701873204.518075,7.0,7.0,-9.0,-6.0,-5.0,-6.0,0.0,-1.0
1701873204.5284586,-9.0,-10.0,9.0,4.0,5.0,8.0,1.0,0.0
1701873204.5284586,-4.0,-9.0,-11.0,-5.0,-9.0,-10.0,-4.0,-3.0
1701873204.5384128,-5.0,-2.0,-1.0,-8.0,-9.0,-6.0,-2.0,-3.0
1701873204.5384128,3.0,0.0,6.0,8.0,8.0,5.0,1.0,2.0
1701873204.55849,-3.0,7.0,-2.0,0.0,5.0,1.0,-1.0,-2.0
1701873204.55849,3.0,14.0,12.0,9.0,5.0,5.0,1.0,-2.0
1701873204.55849,3.0,12.0,17.0,6.0,-2.0,-4.0,0.0,0.0
1701873204.55849,-6.0,-9.0,-3.0,7.0,-3.0,-6.0,1.0,0.0
1701873204.5780733,-2.0,-19.0,-26.0,-19.0,-13.0,-9.0,-6.0,-2.0
1701873204.5780733,-3.0,-8.0,-10.0,-4.0,1.0,3.0,0.0,0.0
1701873204.5780733,0.0,2.0,0.0,2.0,7.0,5.0,3.0,1.0
1701873204.5780733,-1.0,4.0,3.0,-3.0,-5.0,-3.0,-3.0,-1.0
1701873204.5883296,4.0,10.0,12.0,14.0,5.0,4.0,0.0,1.0
1701873204.5883296,-2.0,-4.0,-1.0,1.0,0.0,-2.0,-5.0,-1.0
1701873204.5982983,0.0,-6.0,-7.0,-5.0,-2.0,-3.0,0.0,1.0
1701873204.5982983,0.0,4.0,4.0,0.0,-2.0,0.0,-1.0,-2.0
1701873204.6380732,-3.0,-8.0,-16.0,-4.0,-5.0,-6.0,-2.0,-2.0
1701873204.6380732,0.0,0.0,-4.0,-10.0,0.0,0.0,-1.0,-1.0
1701873204.6380732,-4.0,-4.0,-1.0,-9.0,-8.0,-2.0,-2.0,-3.0
1701873204.6380732,-4.0,-5.0,-3.0,-2.0,-2.0,-1.0,-2.0,-4.0
1701873204.6380732,1.0,7.0,4.0,10.0,4.0,3.0,2.0,-1.0
1701873204.6380732,0.0,-1.0,11.0,7.0,3.0,-1.0,-1.0,1.0
1701873204.6380732,0.0,-4.0,-10.0,-6.0,2.0,-1.0,-3.0,0.0
1701873204.6380732,-1.0,-4.0,-8.0,-5.0,0.0,2.0,0.0,2.0
1701873204.6483161,-7.0,3.0,13.0,-5.0,-6.0,-4.0,-5.0,-4.0
1701873204.6483161,-1.0,1.0,-2.0,2.0,-1.0,-2.0,-1.0,-1.0
1701873204.658144,-4.0,-9.0,-2.0,2.0,-5.0,-4.0,-4.0,-1.0
1701873204.658144,-2.0,0.0,-9.0,-6.0,-3.0,-1.0,-1.0,0.0
1701873204.6783216,1.0,2.0,7.0,7.0,5.0,3.0,1.0,1.0
1701873204.6783216,-1.0,-3.0,1.0,-1.0,-1.0,-5.0,-1.0,-1.0
1701873204.6783216,-7.0,-4.0,2.0,-1.0,-1.0,5.0,1.0,-2.0
1701873204.6783216,-2.0,-3.0,-14.0,-7.0,-3.0,1.0,-1.0,-1.0
1701873204.708076,3.0,4.0,4.0,3.0,5.0,3.0,0.0,1.0
1701873204.708076,-1.0,0.0,3.0,2.0,-4.0,-4.0,-3.0,-3.0
1701873204.708076,1.0,2.0,-2.0,9.0,-1.0,-5.0,-1.0,-2.0
1701873204.708076,0.0,-2.0,-4.0,-20.0,-5.0,-3.0,-1.0,-3.0
1701873204.708076,-4.0,-2.0,-1.0,-6.0,-6.0,-2.0,0.0,0.0
1701873204.708076,-2.0,-4.0,-6.0,2.0,5.0,4.0,0.0,0.0
1701873204.718275,4.0,-1.0,-2.0,-1.0,0.0,-2.0,-1.0,1.0
1701873204.718275,1.0,3.0,10.0,10.0,-2.0,-5.0,-2.0,-2.0
1701873204.7380748,-8.0,-8.0,-18.0,-13.0,-8.0,-6.0,-3.0,0.0
1701873204.7380748,-1.0,-6.0,-5.0,-4.0,-1.0,0.0,-1.0,-3.0
1701873204.7380748,-1.0,3.0,-3.0,0.0,3.0,0.0,-1.0,-1.0
1701873204.7380748,-3.0,-1.0,4.0,2.0,-1.0,-1.0,-1.0,-1.0
1701873204.7584903,-2.0,-5.0,0.0,2.0,-1.0,2.0,-1.0,-1.0
1701873204.7584903,3.0,11.0,11.0,4.0,0.0,0.0,0.0,1.0
1701873204.7584903,-5.0,-8.0,-13.0,-10.0,-2.0,-2.0,-2.0,-2.0
1701873204.7584903,0.0,1.0,7.0,-1.0,-5.0,-4.0,-1.0,-3.0
1701873204.7783098,3.0,4.0,-6.0,1.0,-5.0,-1.0,-2.0,-1.0
1701873204.7783098,-4.0,-8.0,-2.0,-4.0,1.0,1.0,0.0,-2.0
1701873204.7880743,5.0,8.0,12.0,6.0,6.0,3.0,0.0,0.0
1701873204.7880743,-4.0,-8.0,-20.0,-4.0,3.0,1.0,0.0,0.0
1701873204.79808,3.0,4.0,16.0,8.0,-1.0,0.0,0.0,-2.0
1701873204.79808,-1.0,1.0,1.0,-1.0,-4.0,-4.0,-2.0,-3.0
1701873204.79808,-8.0,-3.0,-1.0,1.0,-4.0,2.0,-1.0,-1.0
1701873204.79808,-4.0,-4.0,-4.0,-1.0,1.0,-2.0,-2.0,-2.0
1701873204.818108,2.0,-1.0,-4.0,-5.0,-4.0,-3.0,1.0,0.0
1701873204.818108,-3.0,-2.0,-3.0,-2.0,-4.0,-2.0,-2.0,-1.0
1701873204.818108,0.0,-2.0,-4.0,-1.0,-1.0,1.0,2.0,-2.0
1701873204.818108,-2.0,0.0,0.0,-2.0,2.0,3.0,0.0,1.0
1701873204.8381238,4.0,-2.0,1.0,3.0,-1.0,-6.0,-3.0,-2.0
1701873204.8381238,1.0,-2.0,-3.0,-5.0,-4.0,-5.0,-3.0,-1.0
1701873204.868072,4.0,2.0,-1.0,-4.0,2.0,0.0,0.0,0.0
1701873204.868072,-2.0,-7.0,-11.0,0.0,1.0,3.0,-2.0,-1.0
1701873204.868072,3.0,6.0,0.0,-3.0,-1.0,-2.0,1.0,0.0
1701873204.868072,-2.0,-3.0,1.0,4.0,1.0,1.0,-2.0,-2.0
1701873204.868072,6.0,13.0,8.0,15.0,2.0,-3.0,-2.0,0.0
1701873204.868072,-5.0,-11.0,-14.0,-17.0,-11.0,-7.0,-2.0,-1.0
1701873204.8783503,-2.0,-7.0,-5.0,-15.0,-4.0,-1.0,-1.0,-2.0
1701873204.8783503,1.0,3.0,2.0,3.0,6.0,7.0,1.0,0.0
1701873204.8783503,-1.0,-1.0,-2.0,-4.0,-1.0,1.0,-1.0,-1.0
1701873204.8783503,-2.0,2.0,2.0,11.0,2.0,-1.0,-1.0,-3.0
1701873204.9202368,-6.0,-7.0,8.0,0.0,-10.0,-8.0,-7.0,-3.0
1701873204.9202368,-3.0,-5.0,-14.0,-14.0,-9.0,-7.0,-1.0,-2.0
1701873204.9202368,-1.0,-2.0,4.0,1.0,1.0,1.0,1.0,-1.0
1701873204.9202368,3.0,3.0,4.0,10.0,5.0,4.0,1.0,2.0
1701873204.9202368,0.0,0.0,5.0,5.0,9.0,5.0,2.0,0.0
1701873204.9202368,-1.0,4.0,2.0,4.0,5.0,2.0,-1.0,-1.0
1701873204.9202368,-5.0,-12.0,-20.0,-13.0,-10.0,-6.0,-4.0,-3.0
1701873204.9202368,4.0,1.0,-1.0,-6.0,-7.0,-6.0,-2.0,-3.0
1701873204.940609,-3.0,2.0,3.0,4.0,3.0,1.0,-3.0,-1.0
1701873204.940609,-2.0,-2.0,0.0,-1.0,-5.0,-5.0,-1.0,-1.0
1701873204.940609,-4.0,-5.0,-7.0,-8.0,-8.0,-4.0,-3.0,-2.0
1701873204.940609,0.0,-1.0,-3.0,-3.0,-6.0,-2.0,-3.0,-3.0
1701873204.9602396,-3.0,-2.0,4.0,7.0,4.0,2.0,2.0,-1.0
1701873204.9602396,2.0,4.0,2.0,3.0,5.0,4.0,1.0,1.0
1701873204.9602396,3.0,4.0,6.0,10.0,10.0,6.0,1.0,1.0
1701873204.9602396,-2.0,-5.0,-10.0,-1.0,4.0,1.0,1.0,1.0
1701873204.9702668,-1.0,-5.0,-3.0,-14.0,-8.0,-6.0,-1.0,-3.0
1701873204.9702668,-5.0,-10.0,-6.0,-5.0,-10.0,-8.0,-3.0,-4.0
1701873204.9802418,-5.0,-2.0,2.0,-4.0,-7.0,-4.0,-2.0,-1.0
1701873204.9802418,4.0,9.0,14.0,9.0,8.0,4.0,2.0,2.0
1701873205.000242,-1.0,5.0,-3.0,6.0,3.0,4.0,-2.0,-1.0
1701873205.000242,-4.0,-16.0,-10.0,-4.0,-1.0,-2.0,-2.0,-2.0
1701873205.000242,-1.0,1.0,2.0,-1.0,-9.0,-8.0,-3.0,-4.0
1701873205.000242,-5.0,-5.0,-1.0,-2.0,-10.0,-4.0,-1.0,-2.0
1701873205.0205958,2.0,0.0,3.0,4.0,7.0,6.0,4.0,3.0
1701873205.0205958,1.0,5.0,-1.0,2.0,12.0,7.0,1.0,2.0
1701873205.0205958,-2.0,-3.0,-6.0,-11.0,3.0,0.0,-2.0,-2.0
1701873205.0205958,-5.0,-8.0,-10.0,-4.0,-8.0,-9.0,-4.0,-2.0
1701873205.0306177,0.0,-1.0,-1.0,-5.0,-7.0,-4.0,-2.0,-3.0
1701873205.0306177,2.0,7.0,11.0,12.0,4.0,1.0,0.0,1.0
1701873205.0402403,-2.0,-3.0,-12.0,-6.0,0.0,1.0,-1.0,-2.0
1701873205.0402403,-1.0,5.0,10.0,1.0,0.0,-2.0,-1.0,0.0
1701873205.0604954,-3.0,-2.0,-3.0,1.0,-5.0,-5.0,-1.0,-3.0
1701873205.0604954,-11.0,-3.0,0.0,-10.0,-5.0,-2.0,1.0,1.0
1701873205.0604954,0.0,-3.0,-3.0,-1.0,-7.0,-5.0,-3.0,0.0
1701873205.0604954,-1.0,1.0,4.0,-2.0,2.0,3.0,-2.0,-2.0
1701873205.0806034,0.0,-2.0,-5.0,8.0,7.0,3.0,-1.0,0.0
1701873205.0806034,6.0,10.0,16.0,0.0,0.0,-3.0,0.0,0.0
1701873205.0806034,-6.0,-17.0,-28.0,-13.0,-9.0,-6.0,-3.0,-5.0
1701873205.0806034,-3.0,-2.0,1.0,2.0,-2.0,-2.0,-2.0,-1.0
1701873205.090667,1.0,2.0,-5.0,-6.0,-2.0,2.0,0.0,1.0
1701873205.090667,1.0,-2.0,0.0,-6.0,-4.0,0.0,-2.0,-1.0
1701873205.1009443,7.0,4.0,5.0,4.0,-2.0,-2.0,0.0,1.0
1701873205.1009443,2.0,4.0,4.0,1.0,0.0,-1.0,1.0,0.0
1701873205.1207376,-1.0,1.0,0.0,4.0,5.0,1.0,0.0,-2.0
1701873205.1207376,2.0,5.0,-10.0,-7.0,-4.0,-1.0,-3.0,-2.0
1701873205.1207376,-5.0,-17.0,-3.0,0.0,1.0,-2.0,-1.0,0.0
1701873205.1207376,-1.0,1.0,-1.0,-1.0,1.0,-1.0,-3.0,-1.0
1701873205.1409922,-1.0,-2.0,-5.0,-2.0,-6.0,-3.0,-2.0,-2.0
1701873205.1409922,-2.0,0.0,0.0,1.0,-8.0,-5.0,-1.0,-2.0
1701873205.1409922,-2.0,2.0,-1.0,-11.0,-17.0,-11.0,-4.0,-1.0
1701873205.1409922,-1.0,-3.0,0.0,-2.0,-1.0,2.0,2.0,0.0
1701873205.1507485,3.0,2.0,3.0,15.0,30.0,17.0,6.0,5.0
1701873205.1507485,0.0,-2.0,-11.0,-5.0,1.0,1.0,-1.0,-3.0
1701873205.1606793,-7.0,3.0,18.0,5.0,-4.0,-4.0,-2.0,-3.0
1701873205.1606793,-9.0,-13.0,-16.0,-11.0,-11.0,-8.0,-5.0,-4.0
1701873205.1807392,-6.0,0.0,7.0,1.0,-9.0,-8.0,-3.0,0.0
1701873205.1807392,-1.0,-1.0,-1.0,-7.0,-2.0,0.0,-1.0,-1.0
1701873205.1807392,-1.0,-6.0,-11.0,-5.0,0.0,0.0,0.0,-1.0
1701873205.1807392,2.0,6.0,5.0,1.0,-4.0,0.0,0.0,-1.0
1701873205.2009945,-2.0,-6.0,-15.0,-1.0,0.0,-1.0,-1.0,-3.0
1701873205.2009945,0.0,-1.0,5.0,1.0,4.0,3.0,0.0,0.0
1701873205.2009945,1.0,7.0,8.0,5.0,11.0,5.0,2.0,2.0
1701873205.2009945,2.0,3.0,8.0,12.0,12.0,4.0,1.0,0.0
1701873205.2110152,1.0,-1.0,-11.0,-8.0,-15.0,-11.0,-5.0,-2.0
1701873205.2110152,0.0,3.0,0.0,-7.0,-12.0,-8.0,-4.0,-1.0
1701873205.2209482,1.0,-1.0,-1.0,-2.0,1.0,5.0,1.0,-1.0
1701873205.2209482,1.0,-9.0,-7.0,6.0,10.0,5.0,2.0,1.0
1701873205.2407348,-6.0,-3.0,12.0,-3.0,-3.0,-4.0,-3.0,-4.0
1701873205.2407348,-3.0,-5.0,-11.0,0.0,-5.0,-7.0,-1.0,-4.0
1701873205.2407348,1.0,6.0,2.0,4.0,-2.0,0.0,-2.0,-2.0
1701873205.2407348,0.0,4.0,-1.0,-4.0,-7.0,-3.0,-1.0,0.0
1701873205.2608762,5.0,3.0,-1.0,-5.0,-4.0,1.0,0.0,0.0
1701873205.2608762,-2.0,-6.0,-7.0,-1.0,2.0,-1.0,-2.0,-1.0
1701873205.2608762,-3.0,1.0,8.0,4.0,5.0,2.0,-1.0,0.0
1701873205.2608762,-4.0,-7.0,-10.0,-3.0,-4.0,-5.0,-3.0,-1.0
1701873205.2708864,0.0,-4.0,4.0,-2.0,-1.0,-1.0,-1.0,0.0
1701873205.2708864,-6.0,4.0,4.0,5.0,3.0,2.0,0.0,-2.0
1701873205.2808583,-3.0,0.0,1.0,4.0,4.0,-1.0,1.0,-2.0
1701873205.2808583,-2.0,0.0,4.0,-12.0,-6.0,-4.0,-3.0,-2.0
1701873205.310757,4.0,6.0,3.0,-1.0,-1.0,-2.0,0.0,1.0
1701873205.310757,-3.0,-11.0,-15.0,-5.0,0.0,4.0,-1.0,-2.0
1701873205.310757,-3.0,-2.0,1.0,3.0,-1.0,-3.0,-3.0,-1.0
1701873205.310757,-3.0,-1.0,3.0,-6.0,-9.0,-5.0,-5.0,-5.0
1701873205.320994,-2.0,-1.0,-5.0,0.0,0.0,-1.0,0.0,0.0
1701873205.320994,2.0,1.0,5.0,6.0,8.0,3.0,3.0,1.0
1701873205.320994,2.0,2.0,-4.0,2.0,5.0,2.0,0.0,1.0
1701873205.320994,1.0,-1.0,-8.0,-5.0,1.0,0.0,0.0,-1.0
1701873205.3313065,-5.0,-6.0,5.0,-2.0,-7.0,-4.0,-3.0,-4.0
1701873205.3313065,-2.0,-2.0,-7.0,-3.0,-11.0,-4.0,-1.0,0.0
1701873205.3412929,-2.0,0.0,-2.0,-3.0,-1.0,1.0,2.0,-1.0
1701873205.3412929,1.0,4.0,4.0,6.0,12.0,3.0,3.0,2.0
1701873205.361015,-1.0,-2.0,-7.0,-1.0,3.0,2.0,0.0,0.0
1701873205.361015,5.0,6.0,15.0,4.0,3.0,-1.0,0.0,-1.0
1701873205.361015,-2.0,-11.0,-18.0,-10.0,-14.0,-6.0,-6.0,-6.0
1701873205.361015,0.0,2.0,3.0,-2.0,-9.0,-5.0,-2.0,-2.0
1701873205.3813267,1.0,-2.0,-16.0,-9.0,-6.0,-1.0,-2.0,-1.0
1701873205.3813267,0.0,-2.0,6.0,6.0,8.0,6.0,-2.0,0.0
1701873205.3813267,5.0,8.0,9.0,10.0,14.0,5.0,4.0,3.0
1701873205.3813267,-1.0,7.0,5.0,-5.0,-2.0,-1.0,-2.0,-1.0
1701873205.3912747,-1.0,-3.0,-4.0,2.0,0.0,-3.0,-2.0,-1.0
1701873205.3912747,-10.0,-6.0,-4.0,-6.0,-14.0,-10.0,-5.0,-3.0
1701873205.4012463,-5.0,-4.0,-3.0,-4.0,-7.0,-1.0,-4.0,-5.0
1701873205.4012463,4.0,1.0,-1.0,4.0,6.0,6.0,3.0,6.0
1701873205.431348,-1.0,3.0,2.0,-6.0,1.0,0.0,0.0,0.0
1701873205.431348,3.0,5.0,-2.0,9.0,1.0,-1.0,0.0,0.0
1701873205.431348,0.0,-2.0,-1.0,-4.0,-1.0,-2.0,0.0,1.0
1701873205.431348,-2.0,0.0,18.0,6.0,-1.0,-3.0,-3.0,-5.0
1701873205.444821,1.0,-1.0,-12.0,1.0,5.0,3.0,-2.0,0.0
1701873205.444821,-4.0,-11.0,-12.0,-12.0,-3.0,0.0,-3.0,-3.0
1701873205.4462848,1.0,0.0,1.0,-9.0,-14.0,-8.0,-1.0,-3.0
1701873205.4462848,1.0,2.0,-4.0,-2.0,-2.0,0.0,0.0,-2.0
1701873205.463312,2.0,11.0,20.0,11.0,4.0,2.0,0.0,2.0
1701873205.463312,1.0,-2.0,-2.0,14.0,9.0,4.0,0.0,1.0
1701873205.463312,-2.0,-7.0,-12.0,-20.0,-3.0,-3.0,-4.0,-1.0
1701873205.463312,-2.0,-7.0,-9.0,-9.0,-11.0,-7.0,-3.0,-3.0
1701873205.473748,-7.0,-9.0,2.0,-1.0,-16.0,-7.0,-2.0,-7.0
1701873205.473748,3.0,9.0,12.0,6.0,11.0,6.0,4.0,1.0
1701873205.483759,5.0,5.0,9.0,22.0,30.0,14.0,7.0,6.0
1701873205.483759,4.0,-3.0,-7.0,-3.0,2.0,1.0,-1.0,0.0
1701873205.5041,-12.0,-1.0,-3.0,-6.0,-7.0,-7.0,-4.0,-3.0
1701873205.5041,0.0,-4.0,3.0,-6.0,-18.0,-11.0,-4.0,-4.0
1701873205.5041,-2.0,-2.0,-20.0,-11.0,-11.0,-5.0,-2.0,0.0
1701873205.5041,0.0,4.0,22.0,12.0,1.0,2.0,-1.0,-3.0
1701873205.5237591,1.0,-11.0,-38.0,-16.0,9.0,5.0,1.0,1.0
1701873205.5237591,2.0,6.0,12.0,6.0,4.0,0.0,2.0,0.0
1701873205.5237591,-5.0,-5.0,-4.0,-2.0,-3.0,-2.0,-3.0,-2.0
1701873205.5237591,-2.0,0.0,-7.0,-6.0,-9.0,-5.0,-2.0,0.0
1701873205.53408,2.0,3.0,6.0,-6.0,-10.0,-5.0,-3.0,-1.0
1701873205.53408,-7.0,-12.0,-18.0,-8.0,-8.0,-5.0,-4.0,-3.0
1701873205.54376,3.0,4.0,8.0,13.0,7.0,5.0,2.0,1.0
1701873205.54376,1.0,4.0,10.0,15.0,16.0,7.0,4.0,3.0
1701873205.564144,0.0,-1.0,-5.0,3.0,2.0,-1.0,-1.0,0.0
1701873205.564144,-1.0,-4.0,1.0,-11.0,-12.0,-10.0,-4.0,-2.0
1701873205.564144,-5.0,-3.0,7.0,-3.0,-19.0,-13.0,-7.0,-5.0
1701873205.564144,-8.0,-12.0,-22.0,-18.0,1.0,1.0,-1.0,-2.0
1701873205.5837586,2.0,6.0,17.0,11.0,12.0,8.0,5.0,3.0
1701873205.5837586,1.0,-1.0,-19.0,-6.0,3.0,-1.0,-2.0,-1.0
1701873205.5837586,-2.0,2.0,18.0,9.0,-10.0,-6.0,-4.0,-3.0
1701873205.5837586,-4.0,-3.0,-3.0,-12.0,-8.0,-7.0,-4.0,-4.0
1701873205.5939927,-2.0,-6.0,-12.0,-7.0,-2.0,2.0,-2.0,-2.0
1701873205.5939927,0.0,1.0,14.0,2.0,0.0,0.0,1.0,0.0
1701873205.603766,3.0,4.0,-2.0,1.0,13.0,10.0,2.0,3.0
1701873205.603766,0.0,3.0,15.0,16.0,4.0,-5.0,-6.0,1.0
1701873205.6240501,-4.0,-6.0,-19.0,-15.0,-11.0,-8.0,-4.0,-2.0
1701873205.6240501,1.0,-1.0,-7.0,-8.0,-8.0,-1.0,-3.0,1.0
1701873205.6240501,-4.0,-4.0,7.0,-7.0,-15.0,-8.0,-5.0,-4.0
1701873205.6240501,-1.0,1.0,-2.0,5.0,0.0,3.0,2.0,0.0
1701873205.65376,2.0,4.0,10.0,16.0,24.0,11.0,0.0,-1.0
1701873205.65376,0.0,0.0,-1.0,0.0,9.0,3.0,1.0,-1.0
1701873205.6637583,1.0,2.0,-2.0,-4.0,-3.0,-7.0,-5.0,-1.0
1701873205.6637583,-2.0,-8.0,-17.0,-6.0,-15.0,-9.0,-3.0,-4.0
1701873205.6637583,-4.0,-5.0,5.0,-16.0,-18.0,-7.0,3.0,-3.0
1701873205.6637583,-2.0,1.0,7.0,8.0,1.0,5.0,1.0,-2.0
1701873205.6637583,4.0,8.0,11.0,12.0,21.0,10.0,4.0,4.0
1701873205.6637583,1.0,-1.0,-17.0,-7.0,10.0,11.0,4.0,2.0
1701873205.6837585,-2.0,1.0,13.0,2.0,-8.0,-10.0,-7.0,-3.0
1701873205.6837585,-2.0,-8.0,-17.0,-11.0,-16.0,-12.0,-4.0,-1.0
1701873205.6837585,-1.0,-1.0,3.0,-1.0,-3.0,0.0,-1.0,-2.0
1701873205.6837585,-1.0,-1.0,6.0,5.0,7.0,2.0,0.0,0.0
1701873205.704146,2.0,1.0,-5.0,3.0,1.0,2.0,4.0,1.0
1701873205.704146,-1.0,-2.0,2.0,3.0,-1.0,1.0,1.0,0.0
1701873205.704146,1.0,1.0,1.0,-1.0,2.0,-2.0,-1.0,-2.0
1701873205.704146,1.0,-5.0,-16.0,-6.0,2.0,-1.0,1.0,0.0
1701873205.7140656,-3.0,-4.0,3.0,-3.0,-5.0,-2.0,-1.0,-1.0
1701873205.7140656,-2.0,3.0,1.0,5.0,-2.0,0.0,-3.0,-1.0
1701873205.72402,-4.0,-13.0,-30.0,-12.0,-4.0,-3.0,0.0,0.0
1701873205.72402,2.0,6.0,10.0,5.0,0.0,-1.0,1.0,1.0
1701873205.7437599,0.0,2.0,-8.0,-8.0,-8.0,-10.0,-6.0,-4.0
1701873205.7437599,-5.0,-6.0,11.0,-1.0,-5.0,0.0,4.0,-1.0
1701873205.7437599,0.0,1.0,2.0,3.0,11.0,5.0,-1.0,0.0
1701873205.7437599,1.0,1.0,-2.0,3.0,6.0,12.0,9.0,1.0
1701873205.764033,3.0,2.0,0.0,5.0,-1.0,2.0,3.0,2.0
1701873205.764033,-2.0,-2.0,-3.0,-7.0,-3.0,-2.0,-5.0,-4.0
1701873205.764033,2.0,0.0,-1.0,-4.0,-8.0,-5.0,-1.0,-3.0
1701873205.764033,-3.0,-1.0,-1.0,1.0,-3.0,-4.0,-7.0,-2.0
1701873205.7739823,0.0,3.0,13.0,2.0,2.0,0.0,-1.0,-1.0
1701873205.7739823,-7.0,-17.0,-21.0,-5.0,-5.0,-8.0,-5.0,-3.0
1701873205.7838192,3.0,1.0,-13.0,-5.0,-2.0,0.0,2.0,0.0
1701873205.7838192,4.0,4.0,2.0,3.0,3.0,0.0,-1.0,1.0
1701873205.8137584,2.0,-1.0,7.0,2.0,0.0,4.0,3.0,-1.0
1701873205.8137584,6.0,7.0,-1.0,-1.0,2.0,-6.0,-7.0,0.0
1701873205.8137584,-6.0,-5.0,-1.0,-2.0,-10.0,-4.0,2.0,-3.0
1701873205.8137584,-3.0,-2.0,-10.0,-7.0,-7.0,-5.0,-2.0,1.0
1701873205.8239908,-2.0,-6.0,-16.0,-3.0,1.0,-1.0,-4.0,-2.0
1701873205.8239908,2.0,1.0,7.0,4.0,13.0,4.0,-1.0,0.0
1701873205.8239908,0.0,3.0,-3.0,2.0,2.0,0.0,1.0,0.0
1701873205.8239908,2.0,-3.0,1.0,-7.0,-11.0,-2.0,0.0,-5.0
1701873205.833993,-4.0,-2.0,14.0,2.0,-1.0,0.0,-1.0,-2.0
1701873205.833993,1.0,3.0,-10.0,2.0,2.0,4.0,6.0,2.0
1701873205.8537595,-6.0,-3.0,3.0,-6.0,-4.0,-6.0,-7.0,-3.0
1701873205.8537595,-5.0,-2.0,-10.0,-5.0,-8.0,-10.0,-4.0,-2.0
1701873205.8637908,5.0,-1.0,15.0,2.0,-2.0,-5.0,-6.0,-3.0
1701873205.8637908,-6.0,3.0,-7.0,-2.0,1.0,1.0,3.0,-1.0
1701873205.8637908,0.0,-5.0,0.0,2.0,5.0,11.0,7.0,3.0
1701873205.8637908,1.0,-6.0,0.0,2.0,-2.0,-3.0,-1.0,-3.0
1701873205.8841546,-5.0,-4.0,-3.0,4.0,3.0,0.0,0.0,-4.0
1701873205.8841546,2.0,2.0,-16.0,-12.0,-5.0,-3.0,2.0,-2.0
1701873205.8841546,-3.0,-3.0,7.0,3.0,-3.0,-1.0,-3.0,-2.0
1701873205.8841546,1.0,1.0,-15.0,-3.0,1.0,1.0,0.0,1.0
1701873205.8941152,-1.0,3.0,8.0,2.0,4.0,2.0,1.0,0.0
1701873205.8941152,0.0,1.0,13.0,1.0,-6.0,-5.0,-5.0,-2.0
1701873205.9037623,-1.0,0.0,-9.0,-4.0,-7.0,-4.0,-3.0,-2.0
1701873205.9037623,-2.0,-3.0,2.0,-2.0,-1.0,-2.0,2.0,-3.0
1701873205.9240627,1.0,3.0,-2.0,2.0,0.0,-1.0,-2.0,2.0
1701873205.9240627,0.0,-1.0,13.0,8.0,4.0,4.0,2.0,3.0
1701873205.9240627,-1.0,-1.0,-2.0,-3.0,2.0,-1.0,0.0,-1.0
1701873205.9240627,-4.0,-3.0,12.0,5.0,-1.0,-2.0,-3.0,-4.0
1701873205.94376,-5.0,-8.0,-9.0,-5.0,3.0,-1.0,0.0,-1.0
1701873205.94376,1.0,1.0,0.0,-4.0,-3.0,-1.0,-1.0,1.0
1701873205.94376,0.0,4.0,7.0,0.0,-7.0,-7.0,-8.0,-2.0
1701873205.94376,-2.0,-1.0,-9.0,-4.0,-8.0,-11.0,-7.0,0.0
1701873205.9609683,1.0,4.0,3.0,2.0,-3.0,18.0,24.0,1.0
1701873205.9609683,-4.0,1.0,5.0,5.0,13.0,4.0,-3.0,-2.0
1701873205.9739318,1.0,-3.0,-6.0,4.0,8.0,3.0,3.0,4.0
1701873205.9739318,0.0,4.0,-1.0,-9.0,0.0,-5.0,-8.0,1.0
1701873205.9856267,-1.0,1.0,10.0,3.0,-10.0,-12.0,-10.0,-3.0
1701873205.9856267,-2.0,-9.0,-21.0,-12.0,-12.0,-14.0,-5.0,-3.0
1701873205.9861212,2.0,6.0,9.0,5.0,11.0,19.0,13.0,4.0
1701873205.9861212,-5.0,-6.0,-9.0,2.0,2.0,2.0,0.0,-4.0
1701873206.0063915,-1.0,-4.0,-21.0,-10.0,4.0,2.0,-1.0,3.0
1701873206.0063915,-10.0,1.0,39.0,13.0,-9.0,-6.0,-5.0,-6.0
1701873206.0063915,-2.0,1.0,4.0,-7.0,-7.0,-11.0,-9.0,-3.0
1701873206.0063915,0.0,1.0,5.0,3.0,1.0,2.0,3.0,-2.0
1701873206.0461178,4.0,0.0,-29.0,-13.0,0.0,0.0,-1.0,-1.0
1701873206.0461178,0.0,-7.0,8.0,4.0,4.0,2.0,-1.0,0.0
1701873206.0461178,-2.0,1.0,-1.0,2.0,0.0,-4.0,-1.0,1.0
1701873206.0461178,-1.0,1.0,4.0,3.0,2.0,5.0,4.0,0.0
1701873206.0461178,-5.0,-11.0,7.0,5.0,0.0,-2.0,-4.0,0.0
1701873206.0461178,6.0,9.0,4.0,0.0,1.0,1.0,2.0,-1.0
1701873206.0461178,-2.0,-3.0,-11.0,-7.0,-4.0,-8.0,-9.0,-4.0
1701873206.0461178,-2.0,-3.0,-12.0,-10.0,-11.0,-6.0,2.0,-2.0
1701873206.0664263,2.0,2.0,-1.0,-2.0,-7.0,0.0,0.0,0.0
1701873206.0664263,2.0,1.0,-12.0,-1.0,8.0,12.0,3.0,2.0
1701873206.0664263,-1.0,-1.0,32.0,19.0,19.0,12.0,5.0,0.0
1701873206.0664263,1.0,3.0,-1.0,-1.0,4.0,-4.0,-7.0,1.0
1701873206.0761173,-5.0,-2.0,3.0,-3.0,-19.0,-18.0,-11.0,-4.0
1701873206.0761173,-2.0,-3.0,-22.0,-23.0,-20.0,-6.0,1.0,-1.0
1701873206.0863788,5.0,2.0,-7.0,8.0,12.0,12.0,4.0,2.0
1701873206.0863788,-1.0,-2.0,23.0,12.0,15.0,7.0,-1.0,0.0
1701873206.0964015,-2.0,-2.0,7.0,-3.0,0.0,3.0,7.0,-2.0
1701873206.0964015,4.0,2.0,-5.0,-3.0,-4.0,-8.0,-8.0,1.0
1701873206.1061223,-3.0,-5.0,-13.0,-15.0,-19.0,-15.0,-2.0,-2.0
1701873206.1061223,-2.0,-1.0,1.0,-4.0,-5.0,6.0,1.0,-2.0
1701873206.126348,-1.0,4.0,-7.0,7.0,12.0,7.0,5.0,2.0
1701873206.126348,-2.0,-2.0,6.0,0.0,-2.0,-6.0,-6.0,-3.0
1701873206.126348,0.0,-3.0,-14.0,-7.0,-7.0,-2.0,3.0,1.0
1701873206.126348,-12.0,-5.0,11.0,-4.0,-7.0,-1.0,5.0,-4.0
1701873206.1461177,4.0,4.0,-7.0,8.0,9.0,2.0,-3.0,0.0
1701873206.1461177,-1.0,0.0,14.0,5.0,5.0,6.0,2.0,1.0
1701873206.1461177,0.0,-4.0,-5.0,-10.0,-10.0,-15.0,-12.0,-3.0
1701873206.1461177,1.0,2.0,0.0,-2.0,-5.0,-1.0,0.0,-2.0
1701873206.1561658,-1.0,-1.0,-35.0,-15.0,-2.0,-2.0,-2.0,-1.0
1701873206.1561658,1.0,2.0,9.0,3.0,5.0,6.0,6.0,-4.0
1701873206.1661215,-5.0,-7.0,-7.0,-2.0,-1.0,-4.0,-5.0,-3.0
1701873206.1661215,-2.0,-3.0,-2.0,-5.0,-10.0,-7.0,-3.0,-1.0
1701873206.1861956,2.0,4.0,3.0,0.0,4.0,5.0,-1.0,1.0
1701873206.1861956,1.0,1.0,-2.0,5.0,8.0,3.0,1.0,0.0
1701873206.1861956,-5.0,-4.0,5.0,-4.0,-7.0,-4.0,-1.0,-2.0
1701873206.1861956,-2.0,-4.0,-5.0,-1.0,-5.0,-2.0,-4.0,1.0
1701873206.1961198,-2.0,0.0,10.0,2.0,-2.0,-2.0,-3.0,-2.0
1701873206.1961198,-2.0,-1.0,-9.0,6.0,8.0,2.0,1.0,1.0
1701873206.206151,-1.0,-1.0,10.0,5.0,8.0,2.0,1.0,-2.0
1701873206.206151,-1.0,-2.0,-5.0,-9.0,-2.0,1.0,0.0,-1.0
1701873206.2165124,-3.0,-5.0,-3.0,-7.0,-12.0,-12.0,-12.0,-6.0
1701873206.2165124,-3.0,-7.0,-6.0,-4.0,-8.0,-3.0,-3.0,-3.0
1701873206.2261186,3.0,3.0,-10.0,-2.0,0.0,7.0,8.0,2.0
1701873206.2261186,0.0,-4.0,3.0,-3.0,0.0,-2.0,-1.0,1.0
1701873206.2464569,-1.0,-1.0,14.0,3.0,2.0,-3.0,-8.0,0.0
1701873206.2464569,2.0,-1.0,-13.0,-1.0,7.0,15.0,14.0,-2.0
1701873206.2561188,-4.0,-3.0,8.0,2.0,-2.0,-3.0,-2.0,-4.0
1701873206.2561188,7.0,8.0,-7.0,-5.0,-3.0,-7.0,-10.0,5.0
1701873206.2561188,-4.0,-4.0,4.0,-2.0,-3.0,4.0,9.0,-1.0
1701873206.2561188,0.0,4.0,7.0,1.0,-3.0,-5.0,2.0,5.0
1701873206.2661178,-2.0,-2.0,-14.0,-7.0,-4.0,-1.0,-3.0,-8.0
1701873206.2661178,2.0,6.0,17.0,14.0,6.0,-1.0,-4.0,-2.0
1701873206.2761173,2.0,-1.0,-8.0,-5.0,-2.0,-9.0,-8.0,-1.0
1701873206.2761173,-1.0,2.0,2.0,-5.0,-4.0,-5.0,-3.0,-2.0
1701873206.2861347,0.0,-5.0,-9.0,1.0,-1.0,7.0,2.0,0.0
1701873206.2861347,0.0,-2.0,-11.0,-3.0,5.0,1.0,-3.0,-2.0
1701873206.3061192,-2.0,3.0,25.0,3.0,-1.0,-5.0,-2.0,-2.0
1701873206.3061192,-2.0,-4.0,-5.0,2.0,0.0,-2.0,-2.0,-3.0
1701873206.3061192,0.0,0.0,-28.0,-13.0,-1.0,-3.0,-2.0,0.0
1701873206.3061192,-3.0,-4.0,-1.0,0.0,-3.0,0.0,0.0,-3.0
1701873206.3161192,-1.0,-1.0,5.0,2.0,1.0,2.0,4.0,1.0
1701873206.3161192,-5.0,-10.0,-14.0,-8.0,-7.0,-6.0,-10.0,-3.0
1701873206.3264852,1.0,1.0,11.0,4.0,-1.0,-7.0,-7.0,1.0
1701873206.3264852,-1.0,3.0,-2.0,0.0,0.0,0.0,3.0,0.0
1701873206.3365073,-1.0,-4.0,-8.0,-3.0,0.0,3.0,1.0,-2.0
1701873206.3365073,-1.0,2.0,4.0,1.0,-1.0,-4.0,-5.0,0.0
1701873206.3461337,-1.0,1.0,10.0,3.0,-2.0,0.0,1.0,-3.0
1701873206.3461337,1.0,5.0,4.0,2.0,1.0,-2.0,1.0,0.0
1701873206.3661509,-3.0,0.0,-1.0,-3.0,-1.0,-5.0,-7.0,-3.0
1701873206.3661509,0.0,-6.0,-4.0,2.0,0.0,1.0,5.0,1.0
1701873206.3661509,-3.0,-5.0,0.0,0.0,0.0,2.0,-3.0,-2.0
1701873206.3661509,-2.0,1.0,-8.0,-3.0,3.0,3.0,1.0,0.0
1701873206.3765097,0.0,-2.0,22.0,14.0,0.0,0.0,-3.0,-1.0
1701873206.3765097,-2.0,-6.0,-24.0,-13.0,-6.0,-7.0,-5.0,-2.0
1701873206.3864896,3.0,5.0,-3.0,-3.0,-2.0,1.0,3.0,1.0
1701873206.3864896,0.0,2.0,7.0,-3.0,-1.0,1.0,1.0,0.0
1701873206.4065433,-3.0,-1.0,-6.0,-4.0,-2.0,-2.0,-3.0,-1.0
1701873206.4065433,-1.0,2.0,8.0,1.0,2.0,1.0,-2.0,-2.0
1701873206.4065433,2.0,2.0,5.0,3.0,-1.0,-1.0,2.0,0.0
1701873206.4065433,-4.0,-8.0,-15.0,-7.0,-3.0,-3.0,-4.0,-1.0
1701873206.4261453,1.0,-1.0,-1.0,-1.0,-2.0,2.0,4.0,1.0
1701873206.4261453,-2.0,1.0,7.0,8.0,3.0,-1.0,-4.0,-2.0
1701873206.4261453,-3.0,-8.0,-3.0,-3.0,2.0,-3.0,-6.0,0.0
1701873206.4261453,-6.0,-5.0,0.0,-2.0,-6.0,-7.0,-4.0,-7.0
1701873206.436395,0.0,-4.0,-13.0,-9.0,-5.0,-5.0,2.0,-1.0
1701873206.436395,0.0,1.0,4.0,1.0,-2.0,0.0,-2.0,-2.0
1701873206.4464104,2.0,7.0,7.0,3.0,2.0,2.0,0.0,3.0
1701873206.4464104,-4.0,-11.0,2.0,0.0,-5.0,-6.0,-3.0,-4.0
1701873206.4564166,-6.0,-2.0,-13.0,-8.0,-4.0,-7.0,-5.0,-6.0
1701873206.4564166,1.0,4.0,0.0,-4.0,3.0,1.0,2.0,2.0
1701873206.4663208,0.0,2.0,13.0,7.0,0.0,-2.0,-2.0,-1.0
1701873206.4663208,-1.0,-5.0,-11.0,-7.0,-3.0,-2.0,1.0,0.0
1701873206.4868534,0.0,1.0,-3.0,1.0,2.0,-1.0,0.0,1.0
1701873206.4868534,1.0,4.0,7.0,5.0,2.0,0.0,1.0,4.0
1701873206.488801,-4.0,-7.0,-23.0,-14.0,-6.0,5.0,2.0,-3.0
1701873206.488801,-3.0,-2.0,-7.0,0.0,2.0,4.0,-1.0,-1.0
1701873206.5010152,0.0,2.0,16.0,10.0,6.0,1.0,-2.0,0.0
1701873206.5022516,-4.0,-4.0,-7.0,-6.0,-4.0,-3.0,-3.0,-4.0
1701873206.509522,-2.0,1.0,6.0,4.0,-2.0,-3.0,1.0,-2.0
1701873206.509522,-2.0,-6.0,-5.0,-2.0,-4.0,1.0,0.0,0.0
1701873206.5289712,0.0,-4.0,-10.0,-4.0,1.0,2.0,0.0,0.0
1701873206.5289712,0.0,-3.0,7.0,1.0,-1.0,-2.0,-2.0,0.0
1701873206.5289712,-3.0,-2.0,-3.0,-3.0,-4.0,-2.0,3.0,-2.0
1701873206.5289712,-3.0,0.0,1.0,-3.0,-2.0,1.0,-4.0,-4.0
1701873206.539215,5.0,3.0,-3.0,4.0,1.0,-2.0,1.0,4.0
1701873206.539215,-4.0,-6.0,3.0,-7.0,-6.0,-3.0,-5.0,-6.0
1701873206.5489988,-3.0,-2.0,-6.0,-3.0,-6.0,-7.0,-3.0,1.0
1701873206.5489988,2.0,3.0,2.0,4.0,4.0,3.0,0.0,1.0
1701873206.5592332,1.0,1.0,8.0,3.0,2.0,3.0,3.0,-2.0
1701873206.5592332,-2.0,1.0,1.0,-3.0,-4.0,-2.0,0.0,-2.0
1701873206.5690227,-3.0,-5.0,0.0,-1.0,-1.0,-3.0,-1.0,-2.0
1701873206.5690227,3.0,2.0,-2.0,1.0,0.0,-2.0,1.0,2.0
1701873206.5989406,-2.0,2.0,-7.0,-4.0,-3.0,-1.0,-2.0,1.0
1701873206.5989406,0.0,1.0,-3.0,2.0,1.0,0.0,2.0,-2.0
1701873206.5989406,-2.0,0.0,9.0,-1.0,0.0,1.0,-3.0,-5.0
1701873206.5989406,-1.0,1.0,-8.0,1.0,-1.0,2.0,2.0,-1.0
1701873206.5989406,-1.0,2.0,8.0,5.0,2.0,4.0,-1.0,-3.0
1701873206.5989406,-3.0,-4.0,3.0,-6.0,-4.0,-1.0,0.0,-1.0
1701873206.6089957,2.0,1.0,-8.0,-3.0,0.0,-1.0,-1.0,1.0
1701873206.6089957,-1.0,0.0,14.0,7.0,1.0,-3.0,-1.0,0.0
1701873206.6191876,-3.0,-2.0,-1.0,-8.0,-4.0,-3.0,-1.0,0.0
1701873206.6191876,-4.0,-5.0,-12.0,-3.0,1.0,0.0,-1.0,-1.0
1701873206.6290011,2.0,5.0,2.0,2.0,2.0,1.0,-3.0,0.0
1701873206.6290011,0.0,0.0,2.0,1.0,-3.0,-2.0,0.0,-4.0
1701873206.6489484,-5.0,-9.0,-8.0,-5.0,-4.0,-5.0,-1.0,-4.0
1701873206.6489484,1.0,1.0,-3.0,2.0,2.0,2.0,4.0,1.0
1701873206.6489484,-5.0,-6.0,-4.0,-4.0,-5.0,-3.0,-7.0,-3.0
1701873206.6489484,5.0,5.0,3.0,4.0,2.0,2.0,-1.0,2.0
1701873206.668949,-2.0,-4.0,0.0,-9.0,-5.0,-5.0,-4.0,-5.0
1701873206.668949,3.0,5.0,-3.0,0.0,2.0,-2.0,-4.0,-2.0
1701873206.668949,-2.0,1.0,6.0,3.0,1.0,1.0,2.0,0.0
1701873206.668949,-1.0,-3.0,3.0,-3.0,-1.0,0.0,0.0,2.0
1701873206.698941,-1.0,0.0,1.0,0.0,-2.0,-1.0,-1.0,-2.0
1701873206.698941,-2.0,-3.0,-2.0,-5.0,-5.0,-2.0,-1.0,-1.0
1701873206.698941,1.0,-1.0,2.0,1.0,-1.0,-2.0,-1.0,1.0
1701873206.698941,-2.0,-2.0,-3.0,-2.0,-1.0,0.0,0.0,-2.0
1701873206.698941,-2.0,0.0,-6.0,-2.0,0.0,2.0,-4.0,-1.0
1701873206.698941,-1.0,-1.0,0.0,3.0,2.0,2.0,0.0,-1.0
1701873206.7090576,-4.0,-7.0,3.0,-2.0,-5.0,-5.0,-7.0,-7.0
1701873206.7090576,7.0,5.0,2.0,-2.0,0.0,0.0,0.0,3.0
1701873206.719339,0.0,-3.0,-14.0,-4.0,-1.0,2.0,1.0,-2.0
1701873206.719339,-4.0,-9.0,-14.0,-4.0,0.0,-1.0,-1.0,-2.0
1701873206.728982,1.0,0.0,7.0,2.0,-2.0,-1.0,2.0,-2.0
1701873206.728982,-6.0,-3.0,-5.0,-3.0,0.0,0.0,1.0,0.0
1701873206.7493567,1.0,3.0,-2.0,-2.0,0.0,0.0,-2.0,1.0
1701873206.7493567,1.0,5.0,8.0,8.0,2.0,2.0,-1.0,2.0
1701873206.7493567,1.0,-3.0,-18.0,-9.0,-3.0,-1.0,1.0,-1.0
1701873206.7493567,-4.0,-3.0,0.0,-3.0,-4.0,-6.0,-5.0,-3.0
1701873206.7589417,-6.0,-9.0,2.0,1.0,-1.0,0.0,-3.0,-3.0
1701873206.7589417,-3.0,-4.0,0.0,-1.0,-4.0,-3.0,-1.0,-2.0
1701873206.7690632,0.0,4.0,1.0,-1.0,0.0,-1.0,-2.0,2.0
1701873206.7690632,-1.0,1.0,13.0,2.0,-1.0,-4.0,-4.0,-4.0
1701873206.779346,-2.0,-2.0,-5.0,-3.0,-5.0,-7.0,-2.0,-1.0
1701873206.779346,4.0,2.0,8.0,5.0,1.0,-2.0,1.0,2.0
1701873206.7889442,-3.0,2.0,13.0,4.0,1.0,-3.0,-4.0,-3.0
1701873206.7889442,2.0,1.0,-11.0,0.0,3.0,3.0,6.0,2.0
1701873206.8089423,1.0,1.0,4.0,0.0,-1.0,-5.0,1.0,-2.0
1701873206.8089423,-5.0,-3.0,6.0,-1.0,-1.0,-3.0,-2.0,-1.0
1701873206.8089423,-1.0,2.0,4.0,2.0,2.0,1.0,0.0,1.0
1701873206.8089423,-1.0,2.0,-7.0,-6.0,-1.0,-1.0,-3.0,-1.0
1701873206.819096,3.0,3.0,-2.0,3.0,2.0,-1.0,1.0,3.0
1701873206.819096,-4.0,-4.0,-5.0,-6.0,-6.0,-4.0,-3.0,-5.0
1701873206.8292115,-10.0,-5.0,3.0,-3.0,2.0,3.0,3.0,0.0
1701873206.8292115,2.0,6.0,-5.0,-2.0,0.0,1.0,-4.0,-1.0
1701873206.8392336,0.0,-6.0,9.0,4.0,0.0,5.0,2.0,0.0
1701873206.8392336,-3.0,-5.0,-20.0,-6.0,0.0,5.0,2.0,1.0
1701873206.8490007,0.0,-5.0,0.0,1.0,-3.0,-6.0,-4.0,0.0
1701873206.8490007,-1.0,-2.0,-5.0,-2.0,-1.0,-3.0,-6.0,-3.0
1701873206.8789456,-3.0,2.0,7.0,-4.0,-2.0,-2.0,1.0,1.0
1701873206.8789456,2.0,4.0,5.0,4.0,1.0,1.0,-2.0,-1.0
1701873206.8789456,1.0,2.0,-1.0,-1.0,2.0,4.0,5.0,-1.0
1701873206.8789456,-2.0,-6.0,-5.0,1.0,-3.0,-2.0,2.0,-4.0
1701873206.8789456,3.0,2.0,-4.0,0.0,0.0,-1.0,0.0,4.0
1701873206.8789456,-3.0,-5.0,9.0,-2.0,-6.0,-6.0,-5.0,-5.0
1701873206.8889415,0.0,3.0,-16.0,-4.0,2.0,4.0,5.0,0.0
1701873206.8889415,-7.0,-8.0,-8.0,-6.0,-4.0,-2.0,-3.0,-2.0
1701873206.8993287,-2.0,-1.0,-3.0,0.0,0.0,-1.0,-3.0,-3.0
1701873206.8993287,-1.0,-4.0,1.0,-3.0,0.0,3.0,3.0,3.0
1701873206.9089568,1.0,1.0,-2.0,0.0,-3.0,-2.0,-2.0,-2.0
1701873206.9089568,-2.0,-2.0,4.0,-1.0,-2.0,-3.0,0.0,-2.0
1701873206.9289412,-4.0,-5.0,-14.0,-5.0,-1.0,-4.0,-6.0,-4.0
1701873206.9289412,2.0,3.0,2.0,1.0,2.0,-2.0,-5.0,-1.0
1701873206.9289412,0.0,-1.0,0.0,2.0,-1.0,-3.0,-3.0,0.0
1701873206.9289412,-3.0,-3.0,6.0,2.0,-3.0,-3.0,1.0,-1.0
1701873206.9391675,3.0,2.0,4.0,-2.0,-3.0,-4.0,-4.0,1.0
1701873206.9391675,0.0,-8.0,1.0,3.0,-3.0,-3.0,6.0,-4.0
1701873206.949285,0.0,-5.0,-23.0,-7.0,1.0,-2.0,-6.0,1.0
1701873206.949285,6.0,1.0,-1.0,0.0,0.0,-4.0,-7.0,-1.0
1701873206.95967,-2.0,1.0,2.0,8.0,3.0,3.0,1.0,1.0
1701873206.95967,-4.0,-8.0,-33.0,-23.0,-4.0,-2.0,-3.0,-1.0
1701873206.95967,-2.0,1.0,15.0,4.0,-3.0,-3.0,1.0,-2.0
1701873206.9693077,-1.0,-4.0,2.0,-2.0,-7.0,-5.0,2.0,-1.0
1701873206.989699,0.0,0.0,6.0,5.0,0.0,-2.0,-2.0,-3.0
1701873206.989699,0.0,4.0,-5.0,-2.0,-1.0,0.0,-1.0,0.0
1701873206.989699,1.0,-6.0,-11.0,-4.0,-1.0,3.0,-1.0,-2.0
1701873206.989699,-2.0,6.0,16.0,4.0,2.0,3.0,1.0,3.0
1701873206.9997182,-8.0,-6.0,-13.0,-5.0,-2.0,4.0,0.0,-1.0
1701873206.9997182,4.0,1.0,17.0,6.0,-12.0,0.0,0.0,1.0
1701873207.0121713,-4.0,-8.0,-23.0,-11.0,3.0,-3.0,-5.0,-2.0
1701873207.0121713,-3.0,-2.0,-5.0,-8.0,1.0,-3.0,-2.0,-2.0
1701873207.0268764,1.0,2.0,7.0,5.0,4.0,2.0,1.0,-4.0
1701873207.0268764,1.0,-2.0,-10.0,-4.0,3.0,1.0,1.0,1.0
1701873207.0286705,1.0,5.0,18.0,12.0,-1.0,3.0,-1.0,0.0
1701873207.0286705,-3.0,-4.0,-23.0,-8.0,-4.0,1.0,4.0,0.0
1701873207.0452578,-1.0,11.0,1.0,-2.0,-2.0,-1.0,-3.0,-1.0
1701873207.0452578,1.0,10.0,27.0,13.0,3.0,0.0,-4.0,-1.0
1701873207.0552537,3.0,-35.0,-31.0,-16.0,-8.0,-6.0,-3.0,-5.0
1701873207.0552537,3.0,15.0,-9.0,-3.0,2.0,2.0,2.0,0.0
1701873207.0552537,1.0,2.0,-3.0,-4.0,-5.0,-1.0,-1.0,0.0
1701873207.0552537,-1.0,9.0,25.0,12.0,6.0,1.0,-1.0,1.0
1701873207.0654857,-5.0,-5.0,-16.0,-3.0,-6.0,-1.0,-3.0,-1.0
1701873207.0654857,-2.0,-12.0,2.0,-3.0,-3.0,-1.0,0.0,0.0
1701873207.0953023,5.0,-28.0,-15.0,-6.0,-5.0,-4.0,-1.0,-3.0
1701873207.0953023,-13.0,-8.0,1.0,-4.0,1.0,-6.0,-6.0,-6.0
1701873207.0953023,9.0,24.0,28.0,10.0,3.0,-5.0,6.0,6.0
1701873207.0953023,-2.0,-1.0,-6.0,6.0,0.0,-2.0,-3.0,-1.0
1701873207.105414,-6.0,-7.0,-3.0,-7.0,-7.0,-12.0,-6.0,-9.0
1701873207.105414,-2.0,-4.0,5.0,-4.0,-2.0,-6.0,-2.0,1.0
1701873207.105414,0.0,-39.0,-16.0,-5.0,-5.0,-5.0,-1.0,3.0
1701873207.105414,-4.0,14.0,10.0,0.0,2.0,6.0,-2.0,-14.0
1701873207.1156874,-2.0,0.0,4.0,-1.0,-1.0,4.0,2.0,0.0
1701873207.1156874,-1.0,-7.0,-15.0,-5.0,-2.0,6.0,-4.0,-4.0
1701873207.1256516,0.0,18.0,13.0,6.0,3.0,10.0,1.0,0.0
1701873207.1256516,5.0,-4.0,13.0,5.0,0.0,7.0,0.0,5.0
1701873207.1453342,0.0,26.0,-16.0,-8.0,-3.0,3.0,-4.0,-2.0
1701873207.1453342,-3.0,-1.0,-25.0,-6.0,-1.0,1.0,0.0,-2.0
1701873207.1453342,3.0,10.0,12.0,2.0,1.0,-2.0,-2.0,1.0
1701873207.1453342,7.0,-20.0,3.0,1.0,-2.0,-5.0,1.0,2.0
1701873207.1657338,-3.0,7.0,11.0,1.0,2.0,-1.0,3.0,-1.0
1701873207.1657338,0.0,8.0,6.0,9.0,2.0,-3.0,1.0,2.0
1701873207.1657338,2.0,14.0,-10.0,-7.0,-2.0,-6.0,-2.0,-2.0
1701873207.1657338,2.0,-6.0,10.0,0.0,-3.0,-8.0,-2.0,1.0
1701873207.1756759,0.0,61.0,42.0,7.0,3.0,-5.0,2.0,3.0
1701873207.1756759,13.0,7.0,-44.0,-6.0,2.0,-2.0,2.0,5.0
1701873207.1856272,-5.0,-6.0,6.0,-3.0,-4.0,-6.0,2.0,-1.0
1701873207.1856272,-5.0,6.0,4.0,3.0,0.0,-6.0,0.0,-1.0
1701873207.2053354,1.0,-15.0,7.0,4.0,-1.0,1.0,-3.0,1.0
1701873207.2053354,-2.0,1.0,4.0,1.0,1.0,0.0,2.0,0.0
1701873207.2053354,-2.0,10.0,1.0,2.0,3.0,7.0,-2.0,0.0
1701873207.2053354,-9.0,-1.0,-12.0,-7.0,-1.0,4.0,0.0,-1.0
1701873207.2253034,3.0,-6.0,2.0,2.0,1.0,6.0,0.0,0.0
1701873207.2253034,-1.0,-7.0,7.0,-6.0,-6.0,0.0,-3.0,-5.0
1701873207.2253034,-5.0,-13.0,-13.0,-2.0,-1.0,1.0,6.0,-2.0
1701873207.2253034,-10.0,9.0,6.0,-4.0,-4.0,-4.0,-11.0,-4.0
1701873207.2356772,0.0,-14.0,-8.0,1.0,2.0,-1.0,2.0,0.0
1701873207.2356772,0.0,-5.0,10.0,5.0,0.0,-5.0,-4.0,3.0
1701873207.2456307,-12.0,20.0,8.0,-1.0,-3.0,2.0,-4.0,-7.0
1701873207.2456307,4.0,3.0,-6.0,-4.0,1.0,1.0,6.0,4.0
1701873207.2753012,-5.0,-10.0,-23.0,-8.0,-3.0,0.0,1.0,-2.0
1701873207.2753012,-13.0,5.0,17.0,5.0,-1.0,-1.0,-3.0,-1.0
1701873207.2753012,10.0,13.0,-10.0,-8.0,-2.0,-4.0,0.0,0.0
1701873207.2753012,7.0,10.0,-1.0,2.0,2.0,3.0,1.0,1.0
1701873207.2855647,-9.0,0.0,5.0,5.0,0.0,1.0,-2.0,-3.0
1701873207.2855647,5.0,3.0,0.0,4.0,1.0,-1.0,2.0,-3.0
1701873207.2855647,4.0,-9.0,-1.0,-3.0,1.0,-3.0,-4.0,-1.0
1701873207.2855647,5.0,8.0,-8.0,-6.0,-7.0,-3.0,-1.0,0.0
1701873207.2955532,7.0,-22.0,-22.0,-10.0,-3.0,-6.0,-3.0,0.0
1701873207.2955532,6.0,-11.0,10.0,2.0,-2.0,-3.0,0.0,-2.0
1701873207.3054593,-5.0,1.0,7.0,-1.0,-2.0,-1.0,3.0,1.0
1701873207.3054593,-2.0,-13.0,-18.0,-4.0,-1.0,-3.0,-3.0,-1.0
1701873207.3353028,0.0,-6.0,11.0,4.0,-1.0,-1.0,-1.0,-3.0
1701873207.3353028,9.0,-20.0,-9.0,-3.0,-3.0,2.0,-1.0,1.0
1701873207.3353028,-1.0,-5.0,-16.0,-5.0,-3.0,2.0,-5.0,-1.0
1701873207.3353028,-2.0,-3.0,27.0,12.0,4.0,3.0,-1.0,-2.0
1701873207.3455293,-5.0,-10.0,-31.0,-13.0,-6.0,-2.0,0.0,-2.0
1701873207.3455293,4.0,-17.0,0.0,-6.0,-3.0,-5.0,-7.0,-3.0
1701873207.3455293,8.0,-25.0,10.0,6.0,2.0,-2.0,7.0,6.0
1701873207.3455293,-10.0,7.0,-25.0,-13.0,-7.0,-17.0,-18.0,-11.0
1701873207.355458,-6.0,-4.0,1.0,3.0,0.0,-3.0,3.0,0.0
1701873207.355458,-6.0,14.0,8.0,2.0,1.0,1.0,2.0,0.0
1701873207.3853116,-4.0,0.0,8.0,6.0,2.0,0.0,2.0,-2.0
1701873207.3853116,0.0,-10.0,-13.0,-4.0,1.0,2.0,4.0,5.0
1701873207.395301,1.0,2.0,10.0,-3.0,-3.0,-6.0,-6.0,-3.0
1701873207.395301,-3.0,-3.0,-34.0,-13.0,-5.0,-4.0,-2.0,-4.0
1701873207.395301,-5.0,0.0,15.0,2.0,-4.0,-2.0,-4.0,-2.0
1701873207.395301,-1.0,-4.0,7.0,8.0,4.0,5.0,4.0,2.0
1701873207.4054184,-2.0,-4.0,-7.0,-6.0,-3.0,-2.0,-4.0,0.0
1701873207.4054184,-3.0,7.0,4.0,4.0,1.0,2.0,4.0,0.0
1701873207.415567,-7.0,-41.0,-12.0,-8.0,-2.0,-4.0,-8.0,-8.0
1701873207.415567,-7.0,-1.0,9.0,3.0,1.0,0.0,3.0,-1.0
1701873207.4253023,0.0,-16.0,8.0,5.0,2.0,0.0,-4.0,-1.0
1701873207.4253023,5.0,69.0,9.0,1.0,0.0,0.0,0.0,2.0
1701873207.4253023,-1.0,18.0,-2.0,-1.0,0.0,2.0,5.0,4.0
1701873207.4253023,5.0,40.0,28.0,7.0,1.0,2.0,2.0,-4.0
1701873207.445735,-3.0,-3.0,-30.0,-4.0,1.0,0.0,4.0,17.0
1701873207.445735,-1.0,-38.0,14.0,2.0,0.0,-1.0,-3.0,-18.0
1701873207.445735,-3.0,3.0,-14.0,-1.0,-3.0,-9.0,-13.0,-10.0
1701873207.445735,3.0,-4.0,-8.0,-2.0,0.0,6.0,8.0,9.0
1701873207.465604,1.0,7.0,16.0,7.0,0.0,1.0,2.0,0.0
1701873207.465604,3.0,-7.0,-12.0,-7.0,-5.0,0.0,-1.0,4.0
1701873207.465604,-10.0,-7.0,-18.0,-16.0,-3.0,-2.0,-1.0,-4.0
1701873207.465604,-3.0,-20.0,5.0,5.0,1.0,-3.0,-2.0,-4.0
1701873207.4853022,3.0,0.0,1.0,1.0,-3.0,-4.0,-3.0,-3.0
1701873207.4853022,-4.0,-3.0,-4.0,1.0,0.0,1.0,3.0,3.0
1701873207.4853022,4.0,11.0,19.0,5.0,0.0,0.0,-4.0,-1.0
1701873207.4853022,-5.0,-22.0,-34.0,-12.0,-3.0,-2.0,-2.0,2.0
1701873207.5057235,-10.0,9.0,4.0,-2.0,-3.0,-2.0,0.0,-9.0
1701873207.5057235,0.0,1.0,-4.0,-5.0,-1.0,0.0,0.0,4.0
1701873207.5057235,-8.0,49.0,24.0,9.0,-1.0,-3.0,-7.0,-7.0
1701873207.5057235,2.0,-8.0,-2.0,-5.0,-1.0,0.0,-3.0,-4.0
1701873207.5253034,-1.0,0.0,1.0,1.0,0.0,3.0,3.0,0.0
1701873207.5253034,3.0,-45.0,-12.0,-4.0,-1.0,-2.0,-1.0,0.0
1701873207.5253034,-1.0,-24.0,-9.0,-7.0,-1.0,-2.0,-2.0,1.0
1701873207.5253034,-9.0,32.0,14.0,1.0,-4.0,-3.0,1.0,0.0
1701873207.5353365,4.0,7.0,1.0,1.0,2.0,2.0,-2.0,-5.0
1701873207.5353365,4.0,-9.0,8.0,1.0,0.0,-3.0,-4.0,3.0
1701873207.552913,-2.0,-1.0,-15.0,0.0,-1.0,1.0,5.0,0.0
1701873207.552913,-5.0,-12.0,1.0,-11.0,-7.0,-7.0,-9.0,-7.0
1701873207.5661995,5.0,-10.0,-9.0,-1.0,0.0,0.0,2.0,8.0
1701873207.567222,-5.0,9.0,-2.0,-3.0,-1.0,-3.0,-9.0,-20.0
1701873207.5679748,-11.0,1.0,13.0,7.0,2.0,0.0,4.0,10.0
1701873207.5679748,-19.0,11.0,-7.0,-5.0,0.0,-1.0,-2.0,-15.0
1701873207.6079705,0.0,0.0,5.0,0.0,1.0,0.0,-3.0,0.0
1701873207.6079705,-5.0,10.0,5.0,3.0,-3.0,-3.0,-3.0,0.0
1701873207.6079705,3.0,-9.0,-7.0,-6.0,-2.0,-1.0,0.0,-1.0
1701873207.6079705,5.0,-14.0,-3.0,5.0,2.0,0.0,-7.0,3.0
1701873207.6079705,5.0,19.0,33.0,11.0,1.0,1.0,-1.0,-3.0
1701873207.6079705,-16.0,-30.0,-68.0,-29.0,-10.0,-6.0,-1.0,-3.0
1701873207.6079705,2.0,-6.0,7.0,4.0,1.0,0.0,-3.0,-4.0
1701873207.6079705,9.0,17.0,2.0,-6.0,-2.0,-2.0,2.0,5.0
1701873207.6183376,-3.0,-6.0,-2.0,-2.0,0.0,-1.0,-3.0,-9.0
1701873207.6183376,18.0,-33.0,11.0,9.0,0.0,0.0,3.0,8.0
1701873207.6282792,4.0,19.0,-2.0,-4.0,0.0,-4.0,-8.0,-9.0
1701873207.6282792,1.0,-8.0,-1.0,7.0,4.0,4.0,6.0,8.0
1701873207.6479726,-6.0,9.0,-5.0,-9.0,-5.0,-3.0,-12.0,-20.0
1701873207.6479726,1.0,23.0,26.0,14.0,4.0,0.0,1.0,8.0
1701873207.6479726,-6.0,-26.0,-51.0,-30.0,-8.0,-4.0,-2.0,-1.0
1701873207.6479726,-1.0,-21.0,7.0,4.0,-1.0,0.0,0.0,0.0
1701873207.6680496,4.0,-4.0,-5.0,-5.0,-2.0,-3.0,4.0,9.0
1701873207.6680496,-2.0,21.0,24.0,12.0,3.0,1.0,-3.0,-7.0
1701873207.6680496,2.0,4.0,-1.0,2.0,0.0,1.0,0.0,1.0
1701873207.6680496,-3.0,-3.0,-6.0,-4.0,-3.0,-5.0,-2.0,-4.0
1701873207.678339,-5.0,-14.0,-11.0,-7.0,-4.0,-4.0,0.0,1.0
1701873207.678339,-3.0,12.0,-4.0,-5.0,-2.0,0.0,5.0,2.0
1701873207.6883159,2.0,3.0,14.0,7.0,0.0,4.0,-2.0,0.0
1701873207.6883159,5.0,-1.0,-10.0,-4.0,-5.0,-8.0,-9.0,-5.0
1701873207.708011,1.0,-7.0,15.0,8.0,2.0,0.0,1.0,3.0
1701873207.708011,-8.0,2.0,-12.0,-7.0,-2.0,-1.0,-1.0,-6.0
1701873207.708011,8.0,6.0,6.0,5.0,1.0,0.0,2.0,4.0
1701873207.708011,-5.0,-15.0,-4.0,-4.0,-1.0,1.0,2.0,0.0
1701873207.7284422,2.0,15.0,4.0,-3.0,-3.0,-3.0,0.0,-3.0
1701873207.7284422,-2.0,6.0,-6.0,2.0,2.0,2.0,3.0,0.0
1701873207.7284422,-10.0,31.0,19.0,2.0,-3.0,-5.0,-3.0,-1.0
1701873207.7284422,13.0,-25.0,-2.0,-1.0,-3.0,-1.0,2.0,-2.0
1701873207.7383885,2.0,25.0,-6.0,-3.0,-3.0,-2.0,-6.0,2.0
1701873207.7383885,-8.0,-9.0,-15.0,-11.0,-3.0,-4.0,-1.0,0.0
1701873207.7483356,1.0,-16.0,2.0,2.0,-1.0,-2.0,-5.0,-17.0
1701873207.7483356,5.0,-17.0,6.0,2.0,-1.0,-2.0,0.0,2.0
1701873207.7684324,-4.0,21.0,10.0,5.0,3.0,5.0,4.0,-3.0
1701873207.7684324,-5.0,3.0,-1.0,-9.0,-4.0,-1.0,1.0,7.0
1701873207.7684324,4.0,0.0,8.0,1.0,-1.0,-3.0,2.0,7.0
1701873207.7684324,-2.0,3.0,-12.0,-2.0,-1.0,-2.0,-2.0,-2.0
1701873207.7880218,0.0,-14.0,7.0,6.0,1.0,0.0,-1.0,3.0
1701873207.7880218,0.0,16.0,2.0,-2.0,3.0,2.0,0.0,-4.0
1701873207.7880218,-4.0,-6.0,-5.0,-1.0,0.0,-3.0,-2.0,1.0
1701873207.7880218,-9.0,13.0,13.0,2.0,1.0,1.0,-4.0,-9.0
1701873207.7984602,1.0,-15.0,-7.0,-1.0,-5.0,-4.0,0.0,-4.0
1701873207.7984602,1.0,5.0,6.0,5.0,1.0,-1.0,-5.0,-2.0
1701873207.8184705,10.0,12.0,-10.0,-14.0,-4.0,-1.0,1.0,1.0
1701873207.8184705,5.0,14.0,-3.0,2.0,2.0,2.0,1.0,4.0
1701873207.8286984,15.0,-45.0,-13.0,-6.0,-2.0,-4.0,-1.0,8.0
1701873207.8286984,-1.0,41.0,22.0,11.0,3.0,1.0,-4.0,-16.0
1701873207.8286984,0.0,-6.0,0.0,-4.0,-3.0,-1.0,0.0,4.0
1701873207.8286984,-11.0,8.0,6.0,2.0,1.0,-1.0,-1.0,-2.0
1701873207.8487256,7.0,-6.0,-7.0,-3.0,-1.0,2.0,4.0,2.0
1701873207.8487256,-1.0,6.0,13.0,7.0,1.0,1.0,3.0,3.0
1701873207.8487256,-7.0,-16.0,-12.0,-3.0,-2.0,1.0,1.0,-1.0
1701873207.8487256,11.0,-29.0,-12.0,-5.0,-4.0,-4.0,0.0,1.0
1701873207.8686986,-20.0,-21.0,0.0,-1.0,0.0,1.0,-7.0,-10.0
1701873207.8686986,5.0,-9.0,2.0,0.0,-1.0,-4.0,0.0,5.0
1701873207.8686986,-9.0,50.0,-1.0,-3.0,0.0,1.0,-2.0,-4.0
1701873207.8686986,-1.0,-2.0,7.0,4.0,2.0,1.0,-1.0,2.0
1701873207.9084706,1.0,10.0,-1.0,-1.0,0.0,1.0,3.0,0.0
1701873207.9084706,-4.0,-38.0,-6.0,0.0,-4.0,-5.0,-5.0,-4.0
1701873207.9084706,2.0,-30.0,-19.0,-6.0,1.0,-3.0,1.0,1.0
1701873207.9084706,4.0,-65.0,-19.0,-5.0,-4.0,-1.0,-1.0,0.0
1701873207.9084706,-12.0,31.0,4.0,-5.0,-3.0,0.0,-2.0,-1.0
1701873207.9084706,-9.0,-21.0,-10.0,-3.0,-2.0,0.0,-1.0,0.0
1701873207.9084706,-12.0,-15.0,5.0,4.0,1.0,2.0,-1.0,-2.0
1701873207.9084706,-12.0,24.0,11.0,1.0,-2.0,-1.0,-1.0,-2.0
1701873207.918754,5.0,8.0,-32.0,-7.0,-2.0,1.0,2.0,6.0
1701873207.918754,-10.0,-10.0,6.0,-9.0,-5.0,-8.0,-6.0,-18.0
1701873207.9384725,0.0,-15.0,5.0,8.0,0.0,-1.0,0.0,7.0
1701873207.9384725,36.0,20.0,-3.0,0.0,-1.0,1.0,-4.0,-6.0
1701873207.948816,3.0,-1.0,2.0,2.0,-3.0,-3.0,2.0,3.0
1701873207.948816,-1.0,-7.0,1.0,-3.0,-4.0,-3.0,-3.0,0.0
1701873207.948816,2.0,-18.0,-2.0,3.0,1.0,2.0,2.0,-4.0
1701873207.948816,-7.0,-11.0,-7.0,-11.0,-5.0,-2.0,-2.0,-2.0
1701873207.9686415,-6.0,-7.0,1.0,1.0,0.0,-2.0,1.0,-1.0
1701873207.9686415,5.0,4.0,-7.0,1.0,3.0,-1.0,-5.0,0.0
1701873207.9686415,4.0,0.0,16.0,0.0,-4.0,-3.0,-2.0,-4.0
1701873207.9686415,-9.0,18.0,9.0,4.0,-1.0,-2.0,0.0,5.0
1701873207.9784703,-4.0,-17.0,-17.0,-8.0,0.0,-1.0,-3.0,-8.0
1701873207.9784703,-3.0,4.0,-1.0,2.0,2.0,2.0,5.0,4.0
1701873207.988513,0.0,5.0,3.0,-4.0,-2.0,0.0,-2.0,2.0
1701873207.988513,-10.0,13.0,-3.0,-1.0,0.0,0.0,0.0,2.0
1701873208.0085042,-7.0,-13.0,-8.0,-5.0,-3.0,-4.0,-3.0,-5.0
1701873208.0085042,-1.0,3.0,9.0,3.0,-2.0,-2.0,-1.0,0.0
1701873208.0085042,-1.0,-20.0,-9.0,1.0,1.0,-1.0,1.0,1.0
1701873208.0085042,-9.0,-15.0,3.0,1.0,1.0,1.0,1.0,2.0
1701873208.029009,-8.0,-27.0,-11.0,-13.0,-6.0,-6.0,-5.0,-18.0
1701873208.029009,8.0,-4.0,-15.0,-7.0,-2.0,-1.0,-4.0,2.0
1701873208.029009,2.0,5.0,1.0,4.0,1.0,0.0,-4.0,4.0
1701873208.029009,-6.0,6.0,3.0,1.0,1.0,2.0,4.0,-2.0
1701873208.0588627,6.0,4.0,16.0,10.0,-1.0,-2.0,-1.0,3.0
1701873208.0588627,-4.0,-11.0,-18.0,-10.0,-3.0,0.0,2.0,-1.0
1701873208.0588627,-2.0,2.0,4.0,-1.0,-2.0,-2.0,-1.0,-5.0
1701873208.0588627,0.0,1.0,-6.0,-5.0,-3.0,-6.0,-4.0,-1.0
1701873208.0692234,1.0,13.0,0.0,2.0,0.0,0.0,-2.0,0.0
1701873208.0692234,4.0,13.0,1.0,-1.0,0.0,0.0,-1.0,4.0
1701873208.0692234,0.0,9.0,-2.0,3.0,0.0,-1.0,1.0,0.0
1701873208.0692234,-3.0,11.0,-7.0,-2.0,1.0,0.0,1.0,-4.0
1701873208.0924401,-6.0,1.0,-1.0,-5.0,-3.0,-4.0,-9.0,-5.0
1701873208.0924401,6.0,18.0,-9.0,-5.0,0.0,1.0,4.0,2.0
1701873208.0934377,0.0,0.0,7.0,3.0,0.0,0.0,-1.0,-4.0
1701873208.0934377,-1.0,1.0,-3.0,-6.0,-2.0,-2.0,-2.0,0.0
1701873208.1005404,-1.0,-5.0,5.0,4.0,0.0,0.0,3.0,1.0
1701873208.1005404,-4.0,-11.0,-5.0,-1.0,1.0,-1.0,0.0,6.0
1701873208.1108115,0.0,11.0,14.0,1.0,-1.0,-5.0,-9.0,-9.0
1701873208.1108115,-2.0,-6.0,-22.0,-9.0,-5.0,-6.0,-3.0,-2.0
1701873208.1210465,-2.0,18.0,10.0,2.0,2.0,3.0,0.0,0.0
1701873208.1308346,-4.0,24.0,7.0,5.0,0.0,2.0,2.0,1.0
1701873208.1308346,3.0,1.0,-4.0,-4.0,-2.0,0.0,3.0,4.0
1701873208.1308346,-2.0,1.0,6.0,2.0,0.0,-1.0,-1.0,2.0
1701873208.1508365,1.0,-11.0,-20.0,-6.0,-2.0,-2.0,-2.0,-3.0
1701873208.1508365,2.0,-1.0,13.0,4.0,0.0,0.0,-3.0,-2.0
1701873208.1508365,-4.0,-2.0,-4.0,-10.0,-2.0,-2.0,-1.0,-3.0
1701873208.1508365,9.0,-50.0,-4.0,2.0,-4.0,-4.0,-3.0,-4.0
1701873208.170829,13.0,21.0,1.0,0.0,0.0,3.0,4.0,5.0
1701873208.170829,0.0,10.0,5.0,-2.0,-2.0,-3.0,-1.0,-1.0
1701873208.170829,-4.0,-3.0,-10.0,1.0,0.0,1.0,1.0,-1.0
1701873208.170829,2.0,6.0,4.0,1.0,1.0,-2.0,0.0,0.0
1701873208.1808627,-3.0,-10.0,6.0,-1.0,-1.0,-2.0,-3.0,-1.0
1701873208.1908362,-9.0,-16.0,-12.0,-4.0,-1.0,-1.0,-1.0,-3.0
1701873208.1908362,-2.0,-19.0,-4.0,-3.0,-3.0,-1.0,-2.0,0.0
1701873208.1908362,-8.0,-12.0,-8.0,-5.0,-2.0,0.0,0.0,-2.0
1701873208.2208269,-3.0,4.0,5.0,2.0,1.0,0.0,2.0,0.0
1701873208.2208269,-9.0,-65.0,-1.0,5.0,1.0,0.0,-2.0,-5.0
1701873208.2208269,4.0,-7.0,-14.0,-3.0,-2.0,-4.0,-2.0,0.0
1701873208.2208269,-1.0,4.0,-1.0,-2.0,0.0,0.0,-2.0,-2.0
1701873208.2208269,-5.0,4.0,-2.0,-7.0,-7.0,-5.0,-2.0,0.0
1701873208.2208269,-4.0,15.0,-5.0,-4.0,-4.0,-3.0,-2.0,-2.0
1701873208.2311637,21.0,30.0,35.0,18.0,6.0,5.0,5.0,5.0
1701873208.2311637,-4.0,-5.0,-48.0,-15.0,-1.0,-1.0,-2.0,-4.0
1701873208.2411852,5.0,11.0,10.0,-2.0,0.0,-1.0,-1.0,-1.0
1701873208.2411852,10.0,-26.0,-12.0,-6.0,-9.0,-7.0,-2.0,1.0
1701873208.2508307,1.0,-47.0,-4.0,0.0,-1.0,-2.0,-1.0,-3.0
1701873208.2508307,-2.0,41.0,12.0,3.0,2.0,3.0,-2.0,1.0
1701873208.2708614,-4.0,-10.0,-9.0,-2.0,-1.0,0.0,2.0,6.0
1701873208.2708614,-16.0,15.0,7.0,-3.0,-2.0,-2.0,-5.0,-13.0
1701873208.2708614,-5.0,5.0,7.0,5.0,0.0,5.0,7.0,3.0
1701873208.2708614,-6.0,-26.0,-6.0,-5.0,-4.0,-6.0,-6.0,-1.0
1701873208.2812188,-6.0,-21.0,-3.0,-2.0,0.0,2.0,0.0,-4.0
1701873208.2812188,2.0,-21.0,2.0,0.0,-2.0,-2.0,-2.0,3.0
1701873208.2911985,6.0,10.0,-4.0,-1.0,-2.0,-1.0,-4.0,-1.0
1701873208.2911985,0.0,36.0,12.0,6.0,3.0,2.0,3.0,0.0
1701873208.3011618,-3.0,0.0,12.0,4.0,0.0,-1.0,-3.0,-1.0
1701873208.3011618,-7.0,-70.0,-35.0,-5.0,-1.0,-2.0,-3.0,-5.0
1701873208.3108366,-12.0,42.0,5.0,-3.0,-1.0,-2.0,-1.0,-3.0
1701873208.3108366,0.0,-24.0,12.0,3.0,0.0,0.0,0.0,1.0
1701873208.3308325,3.0,30.0,15.0,3.0,-2.0,-2.0,-1.0,1.0
1701873208.3308325,6.0,-9.0,-21.0,-11.0,-4.0,-3.0,0.0,-1.0
1701873208.3308325,-2.0,-96.0,-14.0,-3.0,-3.0,-3.0,-2.0,-3.0
1701873208.3308325,-4.0,-4.0,4.0,-1.0,-4.0,0.0,0.0,-4.0
1701873208.350869,14.0,-43.0,-1.0,2.0,-1.0,-4.0,-5.0,-2.0
1701873208.350869,16.0,122.0,36.0,5.0,5.0,5.0,7.0,10.0
1701873208.350869,-7.0,4.0,-17.0,-12.0,-8.0,-6.0,-9.0,-9.0
1701873208.350869,16.0,22.0,4.0,-3.0,-1.0,-2.0,1.0,1.0
1701873208.3809292,4.0,-13.0,1.0,5.0,-1.0,0.0,5.0,8.0
1701873208.3809292,22.0,-4.0,2.0,4.0,2.0,0.0,-3.0,3.0
1701873208.3809292,25.0,52.0,2.0,-8.0,0.0,0.0,1.0,7.0
1701873208.3809292,0.0,-1.0,7.0,7.0,4.0,1.0,0.0,0.0
1701873208.390932,-5.0,-5.0,-23.0,-8.0,-2.0,0.0,-2.0,-6.0
1701873208.390932,-3.0,-7.0,4.0,-2.0,-5.0,-4.0,0.0,-1.0
1701873208.390932,-2.0,-8.0,13.0,21.0,9.0,3.0,1.0,0.0
1701873208.390932,-4.0,-48.0,-28.0,-18.0,-10.0,-8.0,-4.0,-4.0
1701873208.400971,-1.0,60.0,21.0,-5.0,1.0,0.0,0.0,-1.0
1701873208.400971,-5.0,-14.0,-1.0,2.0,2.0,2.0,-1.0,-2.0
1701873208.4111972,-65.0,112.0,33.0,7.0,5.0,8.0,5.0,-5.0
1701873208.4111972,-5.0,-39.0,6.0,9.0,1.0,-1.0,1.0,7.0
1701873208.4409308,-38.0,-38.0,-19.0,-1.0,0.0,-2.0,-7.0,-21.0
1701873208.4409308,0.0,7.0,0.0,-1.0,0.0,3.0,5.0,6.0
1701873208.4409308,20.0,11.0,-5.0,-10.0,-11.0,-10.0,-4.0,5.0
1701873208.4409308,-7.0,26.0,11.0,3.0,3.0,4.0,3.0,-11.0
1701873208.4512062,-11.0,65.0,23.0,11.0,7.0,7.0,4.0,5.0
1701873208.4512062,-17.0,-61.0,-3.0,-1.0,-1.0,-2.0,-5.0,-5.0
1701873208.4512062,-16.0,24.0,-9.0,-8.0,-2.0,0.0,-2.0,-5.0
1701873208.4512062,-4.0,15.0,-1.0,-12.0,-5.0,-1.0,-1.0,3.0
1701873208.4612172,18.0,-31.0,-2.0,1.0,-1.0,-5.0,-2.0,4.0
1701873208.4612172,13.0,38.0,17.0,8.0,1.0,0.0,1.0,0.0
1701873208.4711938,3.0,-44.0,-25.0,-10.0,-3.0,-3.0,1.0,0.0
1701873208.4711938,8.0,27.0,7.0,0.0,-1.0,1.0,-3.0,-4.0
1701873208.4909317,-5.0,-13.0,-11.0,-1.0,1.0,1.0,0.0,-2.0
1701873208.4909317,-6.0,8.0,9.0,0.0,-1.0,1.0,-1.0,1.0
1701873208.4909317,-9.0,0.0,3.0,-1.0,-1.0,-3.0,-3.0,0.0
1701873208.4909317,16.0,29.0,7.0,8.0,3.0,3.0,0.0,3.0
1701873208.5115995,-3.0,-32.0,-6.0,-7.0,-5.0,-3.0,-4.0,-2.0
1701873208.5115995,-10.0,-31.0,-23.0,-5.0,0.0,1.0,-3.0,-5.0
1701873208.5115995,23.0,-20.0,-18.0,-5.0,-2.0,-2.0,5.0,2.0
1701873208.5115995,7.0,58.0,4.0,-5.0,-6.0,-4.0,-2.0,-1.0
1701873208.531586,-4.0,18.0,6.0,4.0,1.0,2.0,2.0,0.0
1701873208.531586,-2.0,-15.0,-2.0,0.0,-1.0,2.0,6.0,2.0
1701873208.531586,1.0,-21.0,-2.0,0.0,0.0,-1.0,-4.0,-10.0
1701873208.531586,-7.0,-49.0,-2.0,2.0,-1.0,0.0,2.0,6.0
1701873208.5413327,4.0,-73.0,-17.0,1.0,-2.0,-4.0,-3.0,-5.0
1701873208.5413327,3.0,33.0,-4.0,-10.0,-5.0,-3.0,-2.0,1.0
1701873208.5513663,2.0,-44.0,-8.0,-3.0,-1.0,-2.0,-2.0,8.0
1701873208.5513663,-4.0,12.0,11.0,4.0,0.0,-1.0,1.0,0.0
1701873208.571658,-2.0,-12.0,-2.0,1.0,-3.0,-2.0,-5.0,-6.0
1701873208.571658,1.0,10.0,-8.0,-4.0,2.0,0.0,1.0,2.0
1701873208.571658,-5.0,-9.0,-3.0,-3.0,-2.0,-4.0,-4.0,-6.0
1701873208.571658,-9.0,24.0,-1.0,-3.0,1.0,2.0,-2.0,-2.0
1701873208.6179042,-12.0,105.0,40.0,9.0,5.0,5.0,5.0,3.0
1701873208.6179042,2.0,2.0,-5.0,-5.0,-5.0,-6.0,-4.0,-3.0
1701873208.6179042,14.0,10.0,3.0,2.0,1.0,3.0,0.0,3.0
1701873208.6179042,-8.0,-26.0,-10.0,0.0,-1.0,1.0,0.0,-6.0
1701873208.6179042,9.0,-31.0,-23.0,-5.0,-1.0,-7.0,-8.0,4.0
1701873208.6179042,-3.0,9.0,5.0,-2.0,-3.0,1.0,6.0,-2.0
1701873208.6179042,-14.0,1.0,3.0,-2.0,-2.0,-3.0,-15.0,-19.0
1701873208.6179042,-6.0,25.0,16.0,7.0,3.0,1.0,2.0,1.0
1701873208.6320252,8.0,-7.0,-26.0,-8.0,-4.0,-1.0,-1.0,2.0
1701873208.6320252,15.0,11.0,0.0,-4.0,-1.0,-4.0,-5.0,-2.0
1701873208.6335156,-2.0,-16.0,-3.0,-9.0,-4.0,-3.0,-2.0,1.0
1701873208.6335156,3.0,-58.0,-10.0,1.0,-4.0,-12.0,-10.0,-1.0
1701873208.6535306,-1.0,-7.0,-9.0,-7.0,1.0,12.0,10.0,1.0
1701873208.6535306,-7.0,-21.0,17.0,12.0,1.0,-2.0,-2.0,-3.0
1701873208.6535306,-1.0,-5.0,-20.0,-5.0,1.0,1.0,4.0,6.0
1701873208.6535306,8.0,22.0,5.0,-5.0,-2.0,-3.0,-3.0,1.0
1701873208.6736717,-2.0,-30.0,-6.0,-5.0,-2.0,-6.0,-5.0,-3.0
1701873208.6736717,5.0,31.0,10.0,1.0,-2.0,-2.0,-4.0,2.0
1701873208.6736717,0.0,-9.0,-1.0,2.0,0.0,4.0,4.0,1.0
1701873208.6736717,-8.0,-18.0,-9.0,-2.0,1.0,0.0,2.0,-4.0
1701873208.6838238,6.0,-19.0,-5.0,0.0,-3.0,-4.0,-3.0,7.0
1701873208.6838238,-11.0,-6.0,-1.0,-2.0,2.0,3.0,-4.0,-22.0
1701873208.6936507,3.0,-7.0,-3.0,1.0,-1.0,-1.0,4.0,12.0
1701873208.6936507,0.0,5.0,-2.0,1.0,0.0,0.0,-3.0,-15.0
1701873208.7135177,-2.0,16.0,21.0,3.0,-2.0,-1.0,0.0,6.0
1701873208.7135177,-12.0,-26.0,-37.0,-16.0,-8.0,-10.0,-9.0,-9.0
1701873208.7135177,-2.0,9.0,8.0,-2.0,0.0,-4.0,2.0,-1.0
1701873208.7135177,-8.0,-19.0,-3.0,1.0,-1.0,-1.0,-1.0,-4.0
1701873208.7238617,-1.0,11.0,7.0,3.0,1.0,-1.0,-2.0,-3.0
1701873208.7238617,-8.0,-12.0,2.0,-1.0,1.0,0.0,-1.0,4.0
1701873208.7342525,-6.0,-26.0,-5.0,1.0,-1.0,-4.0,-4.0,-6.0
1701873208.7342525,1.0,16.0,-1.0,-2.0,1.0,5.0,2.0,3.0
1701873208.7442305,2.0,5.0,6.0,3.0,-1.0,-2.0,-2.0,-7.0
1701873208.7442305,1.0,-10.0,-5.0,-5.0,-5.0,-5.0,-5.0,3.0
1701873208.7442305,-8.0,-13.0,-2.0,-2.0,-4.0,0.0,1.0,-5.0
1701873208.7442305,-15.0,12.0,21.0,5.0,0.0,-1.0,-6.0,-2.0
1701873208.7742171,1.0,6.0,-14.0,-7.0,-3.0,-3.0,0.0,0.0
1701873208.7742171,-7.0,1.0,3.0,7.0,4.0,5.0,4.0,11.0
1701873208.7742171,-8.0,3.0,11.0,2.0,-1.0,-3.0,-7.0,-19.0
1701873208.7742171,2.0,6.0,5.0,3.0,2.0,1.0,0.0,4.0
1701873208.7842753,1.0,-11.0,-32.0,-13.0,-1.0,-3.0,1.0,6.0
1701873208.7842753,-2.0,3.0,17.0,5.0,-2.0,-2.0,-6.0,-11.0
1701873208.794262,7.0,-3.0,-9.0,-7.0,-2.0,-2.0,-1.0,4.0
1701873208.794262,1.0,-13.0,-11.0,-2.0,0.0,0.0,-2.0,-1.0
1701873208.804269,-6.0,-5.0,3.0,0.0,0.0,0.0,2.0,-7.0
1701873208.804269,2.0,1.0,-3.0,1.0,0.0,-2.0,2.0,6.0
1701873208.8138733,2.0,6.0,6.0,1.0,0.0,0.0,1.0,2.0
1701873208.8138733,-1.0,-8.0,-7.0,-5.0,-3.0,-2.0,1.0,-3.0
1701873208.8338728,-2.0,0.0,-7.0,-5.0,-4.0,-3.0,-7.0,1.0
1701873208.8338728,-1.0,-4.0,-3.0,1.0,-1.0,1.0,0.0,-4.0
1701873208.8338728,3.0,2.0,1.0,1.0,0.0,-1.0,-1.0,-4.0
1701873208.8338728,2.0,1.0,4.0,2.0,0.0,-1.0,4.0,5.0
1701873208.8440888,1.0,-8.0,-10.0,-9.0,-7.0,-4.0,-1.0,1.0
1701873208.8440888,-6.0,-2.0,6.0,1.0,0.0,1.0,0.0,0.0
1701873208.8541389,-4.0,0.0,-6.0,0.0,0.0,-1.0,-2.0,-2.0
1701873208.8541389,3.0,-1.0,-8.0,-5.0,-2.0,-1.0,-1.0,-8.0
1701873208.8641484,-13.0,3.0,10.0,5.0,3.0,2.0,2.0,1.0
1701873208.8641484,8.0,5.0,2.0,-1.0,-1.0,0.0,1.0,2.0
1701873208.873877,-3.0,3.0,-15.0,-8.0,-6.0,-4.0,-7.0,4.0
1701873208.873877,0.0,-8.0,-9.0,-4.0,0.0,-1.0,-2.0,1.0
1701873208.893875,-5.0,1.0,9.0,5.0,-1.0,2.0,4.0,4.0
1701873208.893875,0.0,-7.0,-16.0,-9.0,-4.0,-3.0,-6.0,-13.0
1701873208.893875,13.0,7.0,13.0,4.0,0.0,-3.0,-1.0,7.0
1701873208.893875,-15.0,-1.0,0.0,1.0,1.0,0.0,2.0,-6.0
1701873208.9039142,-2.0,-4.0,-3.0,-2.0,0.0,-1.0,-7.0,-8.0
1701873208.9039142,-5.0,7.0,4.0,3.0,0.0,4.0,3.0,7.0
1701873208.914221,-2.0,-3.0,-1.0,0.0,-2.0,-1.0,-2.0,-9.0
1701873208.914221,9.0,-2.0,-2.0,-2.0,-4.0,-2.0,2.0,13.0
1701873208.924269,6.0,11.0,5.0,4.0,2.0,1.0,3.0,2.0
1701873208.924269,-6.0,-10.0,-4.0,-3.0,-2.0,-4.0,-12.0,-21.0
1701873208.924269,4.0,7.0,8.0,5.0,-1.0,2.0,7.0,8.0
1701873208.924269,-9.0,-14.0,-12.0,-7.0,-2.0,0.0,-2.0,-10.0
1701873208.9541683,-8.0,-3.0,4.0,-5.0,-3.0,-7.0,-3.0,-2.0
1701873208.9541683,17.0,17.0,11.0,6.0,4.0,4.0,6.0,18.0
1701873208.9541683,1.0,13.0,0.0,-2.0,-2.0,-4.0,-4.0,-1.0
1701873208.9541683,-8.0,-37.0,-36.0,-15.0,-9.0,-5.0,-3.0,0.0
1701873208.9641635,-1.0,-1.0,8.0,5.0,1.0,3.0,3.0,0.0
1701873208.9641635,-8.0,-20.0,-21.0,-7.0,-2.0,2.0,2.0,0.0
1701873208.9741423,3.0,15.0,18.0,5.0,1.0,0.0,-2.0,0.0
1701873208.9741423,8.0,15.0,9.0,4.0,3.0,3.0,0.0,4.0
1701873209.003872,3.0,-1.0,0.0,-2.0,-1.0,0.0,-1.0,0.0
1701873209.003872,-4.0,2.0,4.0,0.0,1.0,2.0,6.0,13.0
1701873209.003872,-3.0,-3.0,-3.0,2.0,1.0,-2.0,-5.0,-12.0
1701873209.003872,-11.0,-6.0,-7.0,-6.0,-3.0,-2.0,-3.0,-13.0
1701873209.014159,16.0,-4.0,-1.0,0.0,0.0,-1.0,4.0,27.0
1701873209.014159,2.0,5.0,19.0,6.0,1.0,-3.0,-7.0,-23.0
1701873209.014159,-11.0,-16.0,-41.0,-19.0,-6.0,0.0,2.0,11.0
1701873209.014159,-4.0,-2.0,8.0,2.0,-1.0,-4.0,-7.0,-21.0
1701873209.0241246,-17.0,-3.0,-14.0,-8.0,-3.0,-3.0,-6.0,-21.0
1701873209.0241246,-8.0,-5.0,5.0,0.0,-3.0,-2.0,5.0,9.0
1701873209.033879,18.0,-2.0,5.0,-2.0,1.0,-3.0,-2.0,-4.0
1701873209.033879,9.0,12.0,1.0,-1.0,3.0,1.0,4.0,23.0
1701873209.0441544,1.0,-2.0,-3.0,4.0,0.0,2.0,-4.0,-9.0
1701873209.0441544,-1.0,-4.0,0.0,-1.0,-3.0,-7.0,-8.0,-5.0
1701873209.0538776,-16.0,-19.0,-15.0,-3.0,1.0,3.0,3.0,-3.0
1701873209.0538776,-14.0,9.0,8.0,1.0,-1.0,-2.0,-5.0,5.0
1701873209.0838733,4.0,-7.0,7.0,1.0,-2.0,-5.0,-6.0,8.0
1701873209.0838733,11.0,16.0,-4.0,3.0,1.0,2.0,7.0,6.0
1701873209.0838733,1.0,4.0,18.0,3.0,1.0,1.0,-5.0,1.0
1701873209.0838733,3.0,-6.0,-4.0,3.0,-4.0,-4.0,-1.0,-14.0
1701873209.0838733,-22.0,-10.0,-10.0,-9.0,-7.0,-6.0,-7.0,-15.0
1701873209.0838733,-15.0,-6.0,-1.0,1.0,0.0,2.0,0.0,0.0
1701873209.094167,-4.0,-12.0,-6.0,0.0,3.0,6.0,6.0,12.0
1701873209.094167,-8.0,-10.0,-28.0,-13.0,-5.0,-4.0,-8.0,-23.0
1701873209.103874,-1.0,3.0,5.0,1.0,-3.0,-4.0,-4.0,-14.0
1701873209.103874,1.0,-2.0,-4.0,-3.0,2.0,-3.0,-1.0,-2.0
1701873209.113875,10.0,17.0,14.0,4.0,-2.0,-5.0,6.0,16.0
1701873209.113875,13.0,2.0,7.0,5.0,3.0,2.0,6.0,24.0
1701873209.1365929,-7.0,1.0,-1.0,-4.0,-5.0,-4.0,-2.0,-19.0
1701873209.1365929,3.0,0.0,-3.0,0.0,0.0,-1.0,1.0,6.0
1701873209.1365929,0.0,-8.0,-9.0,-3.0,-2.0,0.0,-3.0,-2.0
1701873209.1365929,0.0,0.0,12.0,3.0,-3.0,-2.0,-2.0,1.0
1701873209.148904,-6.0,-5.0,-9.0,-4.0,3.0,5.0,1.0,-12.0
1701873209.148904,-1.0,-3.0,3.0,-1.0,-3.0,-5.0,-1.0,27.0
1701873209.1598604,-11.0,-3.0,-3.0,-4.0,-5.0,-2.0,-4.0,-28.0
1701873209.1598604,-22.0,-1.0,10.0,7.0,1.0,3.0,6.0,-2.0
1701873209.1763766,10.0,3.0,6.0,2.0,1.0,-1.0,-7.0,-5.0
1701873209.1763766,-2.0,-3.0,-13.0,-4.0,-1.0,0.0,-4.0,-9.0
1701873209.1763766,-5.0,-7.0,-5.0,-2.0,-1.0,-4.0,3.0,6.0
1701873209.1763766,13.0,9.0,9.0,2.0,-1.0,-3.0,0.0,16.0
1701873209.1864011,4.0,18.0,10.0,4.0,2.0,0.0,2.0,-6.0
1701873209.1864011,3.0,-2.0,-8.0,-2.0,0.0,-1.0,-1.0,1.0
1701873209.1964319,-11.0,-22.0,1.0,-3.0,-3.0,-4.0,-4.0,-8.0
1701873209.1964319,8.0,7.0,2.0,2.0,-3.0,-2.0,-1.0,-7.0
1701873209.226389,-1.0,-5.0,-17.0,-7.0,-2.0,-4.0,-2.0,6.0
1701873209.226389,0.0,3.0,7.0,5.0,2.0,4.0,-2.0,-12.0
1701873209.226389,-3.0,-5.0,-27.0,-12.0,-4.0,-6.0,-5.0,-3.0
1701873209.226389,3.0,0.0,7.0,-1.0,-1.0,-1.0,-5.0,-8.0
1701873209.226389,5.0,5.0,7.0,2.0,-1.0,-1.0,0.0,4.0
1701873209.226389,-3.0,-4.0,3.0,-2.0,0.0,1.0,4.0,-11.0
1701873209.2368183,6.0,11.0,15.0,12.0,3.0,3.0,2.0,13.0
1701873209.2368183,-5.0,-11.0,-30.0,-13.0,0.0,3.0,6.0,8.0
1701873209.2472374,20.0,3.0,-3.0,-1.0,-5.0,-4.0,-12.0,-2.0
1701873209.2472374,-15.0,-12.0,-4.0,-3.0,-3.0,-2.0,-3.0,-21.0
1701873209.2472374,-2.0,5.0,10.0,0.0,1.0,1.0,-2.0,-5.0
1701873209.2472374,0.0,6.0,8.0,4.0,3.0,2.0,0.0,-2.0
1701873209.2668293,-3.0,-8.0,1.0,1.0,1.0,0.0,1.0,3.0
1701873209.2668293,9.0,-2.0,-10.0,-4.0,-3.0,-2.0,-1.0,12.0
1701873209.276829,2.0,5.0,6.0,3.0,-1.0,0.0,0.0,0.0
1701873209.276829,-4.0,4.0,3.0,1.0,-1.0,-4.0,-3.0,-5.0
1701873209.287187,-12.0,-6.0,0.0,0.0,3.0,6.0,4.0,-6.0
1701873209.287187,0.0,0.0,-3.0,-4.0,-7.0,-8.0,-8.0,-7.0
1701873209.297155,-9.0,-5.0,-11.0,-6.0,0.0,0.0,-5.0,-17.0
1701873209.297155,8.0,-1.0,-1.0,0.0,1.0,0.0,1.0,0.0
1701873209.3071434,0.0,-3.0,4.0,0.0,1.0,-1.0,-3.0,-3.0
1701873209.3071434,-5.0,-1.0,-1.0,-1.0,-1.0,-2.0,-4.0,-13.0
1701873209.3071434,-2.0,-5.0,4.0,1.0,-5.0,-2.0,2.0,7.0
1701873209.3168342,2.0,2.0,-3.0,-7.0,-4.0,-5.0,-6.0,-6.0
1701873209.32683,1.0,-6.0,-4.0,1.0,0.0,-1.0,2.0,7.0
1701873209.32683,-2.0,4.0,-1.0,-1.0,0.0,0.0,0.0,-2.0
1701873209.3368285,-6.0,-3.0,3.0,0.0,0.0,-2.0,-2.0,-6.0
1701873209.3368285,9.0,5.0,5.0,1.0,-2.0,-2.0,-4.0,1.0
1701873209.3470612,-5.0,2.0,-1.0,-1.0,-3.0,0.0,3.0,5.0
1701873209.3470612,-1.0,-1.0,4.0,0.0,0.0,2.0,3.0,3.0
1701873209.3470612,3.0,-2.0,-8.0,0.0,1.0,0.0,-1.0,3.0
1701873209.3470612,1.0,-1.0,5.0,-1.0,-3.0,-3.0,-1.0,5.0
1701873209.3671103,1.0,-1.0,-5.0,-3.0,-2.0,-1.0,2.0,5.0
1701873209.3671103,0.0,2.0,4.0,2.0,0.0,0.0,0.0,-2.0
1701873209.3768363,-1.0,5.0,-1.0,0.0,1.0,3.0,1.0,-2.0
1701873209.3768363,0.0,-2.0,-2.0,-1.0,-2.0,-1.0,-3.0,-2.0
1701873209.4068334,1.0,-1.0,0.0,0.0,-1.0,-3.0,-1.0,1.0
1701873209.4068334,-4.0,-1.0,2.0,-3.0,-1.0,1.0,1.0,6.0
1701873209.4068334,1.0,2.0,1.0,-1.0,-1.0,1.0,-1.0,0.0
1701873209.4068334,-5.0,-5.0,-1.0,0.0,-1.0,4.0,-1.0,0.0
1701873209.4068334,-1.0,0.0,-2.0,0.0,-2.0,0.0,-3.0,-2.0
1701873209.4068334,4.0,5.0,4.0,1.0,-1.0,-4.0,-1.0,3.0
1701873209.4168587,3.0,0.0,2.0,0.0,0.0,2.0,-1.0,1.0
1701873209.4168587,-6.0,-6.0,-5.0,-4.0,-2.0,0.0,-1.0,-7.0
1701873209.4368308,-2.0,-1.0,0.0,0.0,-1.0,0.0,0.0,3.0
1701873209.4368308,-2.0,-1.0,-4.0,-2.0,-1.0,-2.0,-1.0,0.0
1701873209.4368308,0.0,-1.0,-1.0,-1.0,-1.0,-3.0,-1.0,-2.0
1701873209.4368308,-4.0,-1.0,-1.0,1.0,1.0,-1.0,-1.0,0.0
1701873209.4470367,-1.0,2.0,1.0,0.0,-1.0,1.0,0.0,0.0
1701873209.4470367,-1.0,-5.0,-3.0,-2.0,-1.0,-1.0,-1.0,3.0
1701873209.4568338,-2.0,0.0,-1.0,-1.0,-1.0,-4.0,-2.0,-2.0
1701873209.4568338,-2.0,-2.0,-2.0,-1.0,-2.0,-1.0,-1.0,-2.0
1701873209.4670997,-1.0,-1.0,-2.0,-1.0,0.0,-1.0,1.0,1.0
1701873209.4670997,-1.0,-2.0,-1.0,-5.0,-2.0,1.0,-2.0,-3.0
1701873209.4670997,-1.0,-1.0,2.0,1.0,-1.0,0.0,-1.0,0.0
1701873209.4670997,-3.0,1.0,1.0,0.0,0.0,-3.0,-2.0,-2.0
1701873209.4869006,-3.0,-7.0,-3.0,0.0,0.0,-2.0,-2.0,-2.0
1701873209.4869006,-2.0,-2.0,-3.0,-3.0,-1.0,0.0,0.0,1.0
1701873209.4968295,-2.0,-1.0,-2.0,-1.0,0.0,-1.0,0.0,-2.0
1701873209.4968295,-3.0,0.0,1.0,0.0,-1.0,-2.0,-1.0,-2.0
1701873209.5171795,-1.0,-2.0,-3.0,-3.0,-1.0,-1.0,-2.0,-2.0
1701873209.5171795,-2.0,-4.0,-1.0,0.0,0.0,-1.0,-1.0,0.0
1701873209.5171795,-1.0,0.0,-3.0,0.0,-1.0,0.0,0.0,-1.0
1701873209.5171795,-2.0,-2.0,-1.0,-3.0,-1.0,0.0,0.0,-4.0
1701873209.5271735,-1.0,1.0,-1.0,-2.0,-2.0,-3.0,-1.0,-1.0
1701873209.5271735,-2.0,-1.0,-2.0,-1.0,0.0,0.0,-1.0,-2.0
1701873209.5371492,0.0,-1.0,0.0,-1.0,-1.0,-1.0,-1.0,-3.0
1701873209.5371492,-2.0,-2.0,-2.0,-1.0,-1.0,-1.0,-1.0,1.0
1701873209.5568297,2.0,1.0,0.0,-2.0,-2.0,-1.0,-1.0,-2.0
1701873209.5568297,0.0,-2.0,-1.0,-1.0,-2.0,-4.0,-2.0,-1.0
1701873209.5568297,0.0,-1.0,-2.0,-2.0,-2.0,-3.0,-2.0,0.0
1701873209.5568297,-3.0,-2.0,-2.0,0.0,-1.0,0.0,1.0,3.0
1701873209.5770683,-1.0,2.0,0.0,-1.0,-2.0,-1.0,0.0,0.0
1701873209.5770683,3.0,4.0,0.0,0.0,-2.0,-2.0,1.0,3.0
1701873209.5770683,-4.0,-6.0,-6.0,-4.0,-1.0,2.0,-2.0,-4.0
1701873209.5770683,2.0,4.0,3.0,0.0,0.0,-2.0,0.0,0.0
1701873209.5870876,-4.0,-6.0,-1.0,-1.0,-2.0,0.0,0.0,0.0
1701873209.5870876,-2.0,-3.0,-1.0,0.0,-1.0,-1.0,0.0,-2.0
1701873209.5970984,1.0,1.0,-3.0,-1.0,-1.0,-2.0,-1.0,-2.0
1701873209.5970984,-2.0,1.0,-2.0,-2.0,0.0,-3.0,-1.0,-1.0
1701873209.6368399,-2.0,1.0,-3.0,0.0,-1.0,-1.0,-1.0,-2.0
1701873209.6368399,0.0,-3.0,3.0,1.0,0.0,2.0,0.0,-2.0
1701873209.6368399,-2.0,-4.0,3.0,0.0,0.0,0.0,0.0,0.0
1701873209.6368399,-1.0,-5.0,-2.0,-2.0,-1.0,-2.0,-4.0,-4.0
1701873209.6368399,1.0,1.0,1.0,0.0,0.0,-1.0,1.0,-1.0
1701873209.6368399,-2.0,-4.0,-3.0,-2.0,0.0,-2.0,-2.0,0.0
1701873209.6368399,-1.0,1.0,-2.0,0.0,-1.0,0.0,0.0,0.0
1701873209.6368399,-2.0,-2.0,-2.0,-2.0,-4.0,0.0,1.0,0.0
1701873209.6471753,-3.0,-1.0,-1.0,0.0,0.0,-1.0,-2.0,-1.0
1701873209.6471753,-2.0,-1.0,-2.0,0.0,-1.0,1.0,-1.0,-2.0
1701873209.6568298,-1.0,-1.0,1.0,1.0,1.0,-1.0,-1.0,0.0
1701873209.6568298,2.0,-2.0,-1.0,-2.0,-1.0,-3.0,-2.0,-1.0
1701873209.6748557,1.0,0.0,0.0,-1.0,-2.0,-1.0,-2.0,-1.0
1701873209.6748557,-2.0,0.0,-3.0,-2.0,-1.0,-1.0,-3.0,1.0
1701873209.6761365,1.0,1.0,2.0,-1.0,-1.0,0.0,0.0,1.0
1701873209.6761365,-1.0,-2.0,-4.0,-2.0,-2.0,1.0,-1.0,-1.0
1701873209.6974132,0.0,1.0,-1.0,-1.0,0.0,-1.0,0.0,-1.0
1701873209.6974132,-2.0,-5.0,-3.0,-4.0,-2.0,0.0,2.0,-2.0
1701873209.6984687,1.0,1.0,2.0,0.0,-1.0,-3.0,-1.0,1.0
1701873209.6984687,-4.0,-4.0,-2.0,-1.0,-1.0,-2.0,-3.0,-1.0
1701873209.709965,-2.0,-1.0,-1.0,-2.0,-1.0,-2.0,-1.0,-4.0
1701873209.709965,0.0,1.0,-1.0,-2.0,-1.0,-1.0,-3.0,3.0
1701873209.7199163,2.0,0.0,0.0,-2.0,0.0,0.0,1.0,5.0
1701873209.7199163,-3.0,-2.0,1.0,1.0,0.0,-1.0,-2.0,-3.0
1701873209.7302005,-1.0,0.0,-3.0,-2.0,-1.0,-2.0,-1.0,0.0
1701873209.7302005,-2.0,-3.0,0.0,1.0,-2.0,-2.0,-2.0,-2.0
1701873209.7302005,-2.0,-3.0,-2.0,0.0,-1.0,0.0,0.0,-2.0
1701873209.7302005,0.0,0.0,0.0,0.0,0.0,-1.0,1.0,1.0
1701873209.750482,-2.0,-1.0,0.0,0.0,-1.0,-1.0,-1.0,-2.0
1701873209.750482,-1.0,1.0,-3.0,0.0,-1.0,-2.0,-1.0,-1.0
1701873209.750482,-2.0,0.0,-2.0,-2.0,-1.0,0.0,-2.0,-5.0
1701873209.750482,2.0,5.0,2.0,1.0,1.0,1.0,1.0,1.0
1701873209.7703805,-1.0,-2.0,-2.0,-2.0,-3.0,-2.0,-2.0,0.0
1701873209.7703805,-4.0,-4.0,-5.0,-3.0,-1.0,-1.0,-2.0,-2.0
1701873209.7902188,-2.0,-2.0,-1.0,-2.0,-2.0,-2.0,0.0,-1.0
1701873209.7902188,-1.0,0.0,-3.0,-3.0,-2.0,-1.0,-1.0,-2.0
1701873209.7902188,-1.0,-3.0,-3.0,0.0,0.0,1.0,-2.0,-1.0
1701873209.7902188,0.0,1.0,0.0,0.0,0.0,-2.0,0.0,0.0
1701873209.7902188,-1.0,-3.0,-3.0,0.0,-1.0,-1.0,-4.0,-3.0
1701873209.7902188,-2.0,-2.0,-1.0,0.0,-2.0,1.0,-2.0,0.0
1701873209.8106244,-2.0,-2.0,0.0,0.0,0.0,-1.0,0.0,0.0
1701873209.8106244,0.0,1.0,4.0,1.0,1.0,0.0,1.0,-2.0
1701873209.8106244,0.0,0.0,-1.0,-2.0,-2.0,-1.0,-1.0,-2.0
1701873209.8106244,-1.0,-2.0,-1.0,-1.0,2.0,0.0,0.0,-3.0
1701873209.830488,0.0,1.0,0.0,-1.0,-1.0,-2.0,-1.0,-1.0
1701873209.830488,0.0,3.0,1.0,1.0,-2.0,-1.0,-1.0,1.0
1701873209.8402195,-2.0,0.0,-1.0,-1.0,-1.0,-1.0,1.0,-2.0
1701873209.8402195,0.0,-2.0,-2.0,-1.0,-2.0,-2.0,-1.0,-1.0
1701873209.8505754,0.0,-1.0,-1.0,-2.0,-1.0,0.0,-1.0,-2.0
1701873209.8505754,0.0,1.0,-4.0,1.0,-1.0,0.0,-2.0,-3.0
1701873209.8505754,-3.0,-2.0,-4.0,-1.0,-1.0,-1.0,0.0,-3.0
1701873209.8505754,1.0,-1.0,-3.0,-3.0,-2.0,-1.0,-1.0,-1.0
1701873209.8704205,0.0,-2.0,-2.0,-3.0,0.0,0.0,-1.0,-1.0
1701873209.8704205,-3.0,-3.0,-1.0,-4.0,-1.0,1.0,1.0,-1.0
1701873209.8704205,-1.0,1.0,1.0,2.0,-1.0,-1.0,-1.0,1.0
1701873209.8704205,-1.0,0.0,1.0,-1.0,-2.0,-1.0,1.0,1.0
1701873209.8902512,-2.0,-2.0,2.0,2.0,1.0,0.0,-1.0,0.0
1701873209.8902512,-1.0,1.0,-2.0,-3.0,-2.0,0.0,-1.0,1.0
1701873209.8902512,-1.0,-2.0,-2.0,-1.0,1.0,-2.0,0.0,0.0
1701873209.8902512,-2.0,-1.0,1.0,-1.0,-2.0,-2.0,-2.0,-1.0
1701873209.9106421,-1.0,1.0,0.0,-1.0,-1.0,0.0,-1.0,-4.0
1701873209.9106421,-1.0,-7.0,-4.0,-3.0,-1.0,1.0,-1.0,0.0
1701873209.9106421,-3.0,-1.0,-1.0,-2.0,-2.0,0.0,-3.0,-3.0
1701873209.9106421,3.0,2.0,-1.0,-2.0,-1.0,-3.0,0.0,5.0
1701873209.9306357,-2.0,-5.0,-2.0,-2.0,0.0,1.0,0.0,-1.0
1701873209.9306357,-1.0,2.0,3.0,3.0,0.0,-4.0,0.0,0.0
1701873209.9306357,-2.0,1.0,1.0,0.0,0.0,-1.0,-2.0,-1.0
1701873209.9306357,-4.0,-2.0,-3.0,-3.0,-1.0,-1.0,-1.0,-2.0
1701873209.9504893,2.0,3.0,-2.0,0.0,-1.0,-3.0,0.0,0.0
1701873209.9504893,-1.0,-1.0,0.0,-1.0,-2.0,-3.0,-2.0,-1.0
1701873209.9602187,0.0,-1.0,-1.0,-3.0,-2.0,-1.0,0.0,1.0
1701873209.9602187,-1.0,-1.0,0.0,0.0,0.0,0.0,-2.0,-2.0
1701873209.970447,-2.0,0.0,-1.0,0.0,-1.0,0.0,-1.0,0.0
1701873209.970447,-1.0,-2.0,0.0,0.0,0.0,0.0,0.0,-2.0
1701873209.970447,-1.0,-2.0,-4.0,-1.0,0.0,-3.0,-2.0,-2.0
1701873209.970447,1.0,0.0,-2.0,-2.0,-2.0,-1.0,1.0,0.0
1701873209.9904947,-5.0,-9.0,-4.0,-2.0,0.0,0.0,-3.0,-2.0
1701873209.9904947,-1.0,-3.0,-2.0,-2.0,-2.0,-2.0,0.0,0.0
1701873209.9904947,-2.0,-2.0,0.0,0.0,1.0,-1.0,0.0,-1.0
1701873209.9904947,-1.0,-2.0,1.0,-1.0,0.0,0.0,-2.0,-4.0
1701873210.0102513,2.0,1.0,-1.0,-2.0,-2.0,-2.0,0.0,0.0
1701873210.0102513,-4.0,-2.0,-1.0,0.0,-1.0,0.0,-2.0,-4.0
1701873210.0102513,-1.0,-2.0,1.0,1.0,-3.0,-1.0,-2.0,1.0
1701873210.0102513,4.0,0.0,-1.0,-1.0,1.0,1.0,0.0,2.0
1701873210.0302207,-10.0,-2.0,-1.0,-1.0,-2.0,0.0,-4.0,-8.0
1701873210.0302207,-1.0,-1.0,-2.0,-2.0,0.0,-2.0,-2.0,0.0
1701873210.0302207,1.0,-1.0,-1.0,0.0,0.0,-1.0,2.0,-4.0
1701873210.0302207,-1.0,-1.0,-2.0,-1.0,-1.0,-1.0,0.0,-1.0
1701873210.050636,4.0,5.0,4.0,2.0,-1.0,-4.0,0.0,3.0
1701873210.050636,-2.0,-3.0,-2.0,-1.0,0.0,-2.0,-2.0,-2.0
1701873210.0602217,-1.0,-3.0,0.0,-1.0,-2.0,-1.0,-3.0,0.0
1701873210.0602217,-5.0,-3.0,-4.0,-2.0,-2.0,1.0,-3.0,-4.0
1701873210.070253,1.0,1.0,1.0,-1.0,-1.0,-3.0,-1.0,0.0
1701873210.070253,0.0,2.0,-1.0,-1.0,1.0,-4.0,0.0,0.0
1701873210.070253,-1.0,-2.0,-1.0,-2.0,-1.0,-4.0,0.0,1.0
1701873210.070253,-3.0,-2.0,-1.0,-1.0,-1.0,0.0,0.0,-1.0
1701873210.0906441,-3.0,-1.0,-3.0,-1.0,-1.0,0.0,1.0,0.0
1701873210.0906441,-2.0,-3.0,-1.0,1.0,-1.0,0.0,-2.0,2.0
1701873210.0906441,-1.0,-1.0,0.0,-1.0,0.0,0.0,0.0,0.0
1701873210.0906441,-3.0,-2.0,-1.0,0.0,-2.0,0.0,-1.0,-3.0
1701873210.1102192,0.0,1.0,-1.0,0.0,-1.0,-1.0,-2.0,0.0
1701873210.1102192,0.0,1.0,-2.0,-1.0,-1.0,0.0,-2.0,-1.0
1701873210.1102192,0.0,-1.0,-4.0,0.0,-1.0,-1.0,-1.0,-2.0
1701873210.1102192,-3.0,-2.0,0.0,0.0,0.0,-2.0,0.0,-1.0
1701873210.1306245,2.0,-2.0,-2.0,-1.0,-1.0,2.0,1.0,0.0
1701873210.1306245,-2.0,-1.0,0.0,-1.0,-2.0,-2.0,-1.0,0.0
1701873210.1306245,-3.0,-1.0,0.0,-2.0,0.0,-1.0,-1.0,-1.0
1701873210.1306245,-2.0,-1.0,-4.0,-2.0,-2.0,-1.0,-3.0,-5.0
1701873210.1506302,1.0,-2.0,-1.0,-1.0,0.0,-1.0,0.0,4.0
1701873210.1506302,-2.0,-2.0,-2.0,-2.0,-1.0,-2.0,-1.0,-3.0
1701873210.1506302,1.0,2.0,-2.0,-1.0,-1.0,-2.0,-1.0,-3.0
1701873210.1506302,-2.0,-1.0,-1.0,1.0,-2.0,0.0,1.0,-1.0
1701873210.1702187,0.0,3.0,-1.0,0.0,-1.0,-3.0,-2.0,0.0
1701873210.1702187,0.0,0.0,1.0,1.0,2.0,1.0,0.0,2.0
1701873210.1702187,-1.0,-5.0,-1.0,-5.0,-3.0,-1.0,-1.0,0.0
1701873210.1702187,0.0,-4.0,-2.0,-4.0,3.0,-2.0,-1.0,-2.0
1701873210.191368,1.0,0.0,-2.0,-3.0,-1.0,-2.0,-2.0,1.0
1701873210.191368,-8.0,1.0,-1.0,2.0,-1.0,1.0,-2.0,-16.0
1701873210.199538,1.0,1.0,-2.0,-2.0,-3.0,-3.0,-2.0,5.0
1701873210.199538,0.0,1.0,1.0,0.0,-2.0,-1.0,-1.0,-1.0
1701873210.2145338,-2.0,-4.0,-3.0,1.0,-1.0,-1.0,1.0,-4.0
1701873210.2152367,1.0,0.0,1.0,-2.0,-2.0,-1.0,-1.0,2.0
1701873210.2164016,-1.0,-1.0,-1.0,1.0,-1.0,1.0,-2.0,-6.0
1701873210.2164016,0.0,3.0,3.0,-2.0,-1.0,-3.0,0.0,-1.0
1701873210.2364278,-2.0,-1.0,4.0,0.0,1.0,0.0,-1.0,0.0
1701873210.2364278,1.0,-2.0,-4.0,-3.0,-3.0,-2.0,1.0,0.0
1701873210.2364278,-5.0,-3.0,-2.0,-2.0,-1.0,0.0,-1.0,-1.0
1701873210.2364278,-1.0,-1.0,-2.0,-3.0,-1.0,-2.0,-2.0,0.0
1701873210.2467847,-2.0,-3.0,-2.0,0.0,-2.0,-1.0,-1.0,-1.0
1701873210.2467847,0.0,-3.0,-4.0,1.0,0.0,2.0,-1.0,-1.0
1701873210.2571287,-1.0,0.0,2.0,1.0,1.0,0.0,0.0,-2.0
1701873210.2571287,-4.0,-2.0,-1.0,-1.0,-2.0,-1.0,-1.0,-3.0
1701873210.2667973,-2.0,-3.0,-4.0,-1.0,-1.0,0.0,1.0,-3.0
1701873210.2667973,0.0,0.0,-1.0,-1.0,-1.0,-3.0,-1.0,1.0
1701873210.2667973,1.0,1.0,-1.0,2.0,-2.0,-1.0,-1.0,0.0
1701873210.2667973,-1.0,-4.0,-6.0,0.0,0.0,1.0,-2.0,-2.0
1701873210.296831,-2.0,-1.0,0.0,0.0,-1.0,-2.0,-1.0,-3.0
1701873210.296831,-1.0,-2.0,-2.0,-4.0,0.0,-3.0,-1.0,1.0
1701873210.296831,-2.0,-2.0,-4.0,-3.0,-3.0,-3.0,-1.0,-1.0
1701873210.296831,0.0,2.0,1.0,-2.0,-1.0,-1.0,-2.0,-1.0
1701873210.3071647,-2.0,-2.0,-1.0,-3.0,-4.0,0.0,-1.0,0.0
1701873210.3071647,-3.0,-3.0,-1.0,-1.0,-2.0,-2.0,1.0,-1.0
1701873210.317128,1.0,3.0,3.0,1.0,-2.0,0.0,-2.0,2.0
1701873210.317128,-2.0,-1.0,-1.0,2.0,0.0,-1.0,1.0,1.0
1701873210.3271205,-1.0,1.0,-1.0,-2.0,1.0,0.0,0.0,-1.0
1701873210.3271205,0.0,3.0,1.0,-2.0,-2.0,-2.0,-1.0,-3.0
1701873210.3271205,-1.0,1.0,-5.0,-4.0,-2.0,-1.0,0.0,0.0
1701873210.3271205,-2.0,-4.0,-1.0,0.0,1.0,-2.0,-2.0,1.0
1701873210.3568285,0.0,-2.0,-1.0,0.0,0.0,1.0,0.0,-3.0
1701873210.3568285,1.0,0.0,-1.0,-2.0,0.0,0.0,0.0,0.0
1701873210.3568285,-2.0,-1.0,1.0,0.0,0.0,-1.0,0.0,-4.0
1701873210.3568285,-1.0,-2.0,2.0,0.0,1.0,-1.0,-1.0,-1.0
1701873210.3670325,-2.0,-2.0,-2.0,-1.0,-1.0,-2.0,-3.0,-1.0
1701873210.3670325,-1.0,-2.0,0.0,-1.0,0.0,0.0,-2.0,2.0
1701873210.3770308,-1.0,-1.0,-1.0,0.0,-1.0,1.0,-1.0,-1.0
1701873210.3770308,-2.0,0.0,1.0,0.0,-1.0,-1.0,0.0,-1.0
1701873210.406796,-2.0,-6.0,-3.0,-3.0,-2.0,-2.0,-1.0,0.0
1701873210.406796,0.0,-3.0,0.0,0.0,-1.0,0.0,0.0,-1.0
1701873210.406796,-1.0,-1.0,-2.0,0.0,-1.0,0.0,-2.0,1.0
1701873210.406796,-1.0,1.0,-1.0,-2.0,0.0,-3.0,-1.0,0.0
1701873210.4168296,-1.0,1.0,-1.0,-2.0,-1.0,0.0,0.0,-1.0
1701873210.4168296,0.0,1.0,-2.0,-2.0,0.0,-3.0,-1.0,-2.0
1701873210.4168296,-3.0,-2.0,-2.0,0.0,-1.0,-3.0,-2.0,-3.0
1701873210.4168296,1.0,3.0,-1.0,-2.0,-1.0,0.0,0.0,2.0
1701873210.437147,2.0,1.0,3.0,0.0,-1.0,-2.0,-1.0,0.0
1701873210.437147,-2.0,1.0,1.0,0.0,-1.0,-1.0,0.0,-1.0
1701873210.437147,0.0,-3.0,-2.0,-1.0,-2.0,-3.0,-1.0,-3.0
1701873210.437147,0.0,1.0,1.0,0.0,-2.0,0.0,-3.0,0.0
1701873210.456795,-2.0,0.0,0.0,-1.0,-2.0,-1.0,-1.0,-2.0
1701873210.456795,-3.0,-4.0,-1.0,-2.0,-3.0,-1.0,-3.0,-1.0
1701873210.456795,0.0,0.0,2.0,1.0,-1.0,-3.0,0.0,0.0
1701873210.456795,-2.0,-1.0,-3.0,-1.0,-3.0,-1.0,0.0,-1.0
1701873210.4770522,-2.0,0.0,1.0,-1.0,-1.0,-1.0,-1.0,-2.0
1701873210.4770522,-2.0,-3.0,-1.0,-3.0,-1.0,0.0,-3.0,-2.0
1701873210.4770522,-2.0,-3.0,-3.0,-3.0,-1.0,1.0,-1.0,0.0
1701873210.4770522,1.0,0.0,0.0,0.0,-1.0,-1.0,-1.0,-2.0
1701873210.5067945,0.0,1.0,-2.0,2.0,1.0,1.0,-1.0,-2.0
1701873210.5067945,-1.0,-1.0,-1.0,-3.0,-1.0,-2.0,-1.0,-2.0
1701873210.5067945,-3.0,-3.0,-2.0,-2.0,1.0,-1.0,-3.0,-1.0
1701873210.5067945,-2.0,-1.0,-4.0,-1.0,-1.0,-1.0,0.0,0.0
1701873210.5067945,-3.0,-4.0,-3.0,0.0,-2.0,-1.0,-1.0,-2.0
1701873210.5067945,0.0,0.0,1.0,-1.0,-2.0,0.0,0.0,0.0
1701873210.5170891,2.0,1.0,1.0,-1.0,-1.0,0.0,1.0,0.0
1701873210.5170891,-3.0,-8.0,-5.0,-6.0,-2.0,-1.0,-2.0,-2.0
1701873210.537176,-1.0,-2.0,-3.0,-2.0,-2.0,-1.0,-3.0,-1.0
1701873210.537176,-1.0,2.0,-1.0,1.0,-1.0,-2.0,0.0,2.0
1701873210.537176,0.0,1.0,1.0,-1.0,-1.0,0.0,-2.0,-1.0
1701873210.537176,0.0,-1.0,0.0,-2.0,-1.0,-1.0,-2.0,-2.0
1701873210.5567977,1.0,1.0,0.0,-1.0,-1.0,-1.0,-1.0,0.0
1701873210.5567977,2.0,-1.0,-4.0,-2.0,-3.0,-1.0,0.0,-2.0
1701873210.5567977,-1.0,-2.0,-1.0,-1.0,0.0,0.0,0.0,-1.0
1701873210.5567977,1.0,0.0,1.0,-1.0,-1.0,-1.0,0.0,-2.0
1701873210.5668275,-2.0,0.0,0.0,-1.0,-1.0,-1.0,-2.0,-1.0
1701873210.5668275,0.0,0.0,2.0,1.0,0.0,0.0,-1.0,-1.0
1701873210.5769675,-1.0,-3.0,-3.0,-2.0,-1.0,1.0,-1.0,-1.0
1701873210.5769675,0.0,-1.0,1.0,-1.0,0.0,0.0,-2.0,-3.0
1701873210.5970402,1.0,0.0,0.0,0.0,1.0,0.0,0.0,0.0
1701873210.5970402,-1.0,-1.0,-1.0,-1.0,1.0,-1.0,1.0,-1.0
1701873210.5970402,-1.0,0.0,0.0,-2.0,-3.0,-1.0,-3.0,1.0
1701873210.5970402,-1.0,0.0,0.0,2.0,-1.0,-1.0,-1.0,0.0
1701873210.6167996,-1.0,0.0,-1.0,-4.0,-2.0,-2.0,-2.0,-1.0
1701873210.6167996,-1.0,-2.0,-2.0,-1.0,-2.0,1.0,-1.0,1.0
1701873210.6167996,-1.0,0.0,-1.0,-2.0,1.0,-1.0,4.0,6.0
1701873210.6167996,0.0,1.0,-1.0,0.0,0.0,0.0,-1.0,2.0
1701873210.6367958,-3.0,-6.0,-9.0,-4.0,-4.0,-2.0,-2.0,-1.0
1701873210.6367958,-2.0,-4.0,-4.0,-2.0,-1.0,0.0,0.0,-2.0
1701873210.6367958,0.0,2.0,1.0,-1.0,-1.0,-1.0,-1.0,-5.0
1701873210.6367958,-2.0,-1.0,-1.0,0.0,-2.0,-2.0,-2.0,-4.0
1701873210.6570299,0.0,2.0,5.0,1.0,0.0,-1.0,-1.0,-2.0
1701873210.6570299,1.0,2.0,2.0,1.0,-1.0,3.0,-3.0,-2.0
1701873210.6570299,-2.0,-3.0,-4.0,0.0,-2.0,1.0,-1.0,-2.0
1701873210.6570299,0.0,0.0,0.0,-2.0,-1.0,0.0,0.0,-1.0
1701873210.6767976,-2.0,0.0,0.0,0.0,-3.0,-3.0,-3.0,1.0
1701873210.6767976,-1.0,-3.0,-1.0,-2.0,1.0,0.0,0.0,0.0
1701873210.6767976,0.0,0.0,1.0,2.0,-1.0,-1.0,-1.0,-2.0
1701873210.6767976,0.0,0.0,-1.0,-1.0,0.0,0.0,-1.0,-2.0
1701873210.686831,-1.0,-1.0,0.0,1.0,0.0,0.0,-1.0,-2.0
1701873210.686831,0.0,0.0,0.0,-1.0,-2.0,-2.0,0.0,0.0
1701873210.697096,-1.0,0.0,-3.0,-1.0,-1.0,-2.0,-3.0,-1.0
1701873210.697096,-1.0,-2.0,-2.0,-3.0,0.0,-1.0,-2.0,1.0
1701873210.7177656,0.0,2.0,1.0,0.0,0.0,0.0,-2.0,-1.0
1701873210.7177656,-2.0,-2.0,-3.0,-1.0,0.0,0.0,-3.0,-4.0
1701873210.7187684,-1.0,-2.0,-2.0,0.0,-1.0,-3.0,-4.0,-4.0
1701873210.7187684,-1.0,-2.0,0.0,0.0,-3.0,-3.0,-1.0,-3.0
1701873210.7392473,0.0,0.0,2.0,3.0,0.0,-2.0,0.0,0.0
1701873210.7392473,-1.0,0.0,1.0,-1.0,-1.0,-3.0,1.0,3.0
1701873210.7579877,-1.0,-4.0,-3.0,-4.0,0.0,1.0,-1.0,-1.0
1701873210.7579877,-2.0,-1.0,1.0,2.0,1.0,2.0,0.0,-1.0
1701873210.7579877,-2.0,-2.0,-1.0,-2.0,1.0,0.0,-2.0,-2.0
1701873210.7579877,-2.0,-1.0,-1.0,-2.0,-3.0,-1.0,-4.0,-4.0
1701873210.7579877,-1.0,0.0,-2.0,-3.0,-5.0,-3.0,1.0,1.0
1701873210.7579877,0.0,-1.0,0.0,-2.0,0.0,-4.0,0.0,1.0
1701873210.7683597,-1.0,-1.0,-6.0,-1.0,-1.0,1.0,0.0,0.0
1701873210.7683597,-3.0,-3.0,-6.0,-20.0,-77.0,-17.0,-4.0,-4.0
1701873210.778322,-2.0,-1.0,-3.0,-4.0,65.0,7.0,0.0,-4.0
1701873210.778322,-1.0,0.0,3.0,26.0,45.0,15.0,1.0,-2.0
1701873210.797988,1.0,0.0,4.0,7.0,-32.0,-7.0,-1.0,2.0
1701873210.797988,3.0,3.0,2.0,-7.0,-16.0,-14.0,-5.0,5.0
1701873210.797988,-5.0,-5.0,-7.0,-9.0,-7.0,-3.0,-7.0,-5.0
1701873210.797988,0.0,0.0,0.0,10.0,40.0,18.0,13.0,1.0
1701873210.8079865,3.0,2.0,7.0,22.0,59.0,14.0,2.0,3.0
1701873210.8079865,-4.0,-2.0,0.0,2.0,-29.0,-5.0,-2.0,-4.0
1701873210.8183577,2.0,0.0,-2.0,-18.0,-53.0,-19.0,-9.0,-1.0
1701873210.8183577,-6.0,-5.0,-11.0,-24.0,-32.0,-11.0,-5.0,-9.0
1701873210.8283696,-7.0,-7.0,-10.0,-17.0,-29.0,-10.0,-3.0,-7.0
1701873210.8283696,-4.0,-6.0,-9.0,-14.0,-19.0,-9.0,-10.0,-3.0
1701873210.8379893,-2.0,-2.0,-2.0,-4.0,-1.0,-7.0,-2.0,-3.0
1701873210.8379893,-3.0,-3.0,1.0,21.0,57.0,8.0,-11.0,-3.0
1701873210.8583746,10.0,7.0,11.0,20.0,6.0,13.0,18.0,14.0
1701873210.8583746,1.0,2.0,4.0,9.0,45.0,14.0,21.0,7.0
1701873210.8583746,1.0,2.0,3.0,13.0,31.0,14.0,0.0,-1.0
1701873210.8583746,1.0,1.0,-3.0,-12.0,-50.0,-12.0,-8.0,-1.0
1701873210.8683782,-5.0,-4.0,-6.0,-19.0,-7.0,-7.0,-11.0,-8.0
1701873210.8683782,-5.0,-4.0,-9.0,-13.0,-19.0,-16.0,-9.0,-7.0
1701873210.8780396,0.0,-2.0,-1.0,0.0,-17.0,8.0,9.0,1.0
1701873210.8780396,1.0,2.0,3.0,6.0,12.0,7.0,4.0,3.0
1701873210.8880317,-1.0,0.0,0.0,3.0,11.0,-2.0,3.0,0.0
1701873210.8880317,0.0,-2.0,-3.0,-4.0,-10.0,-1.0,-3.0,-1.0
1701873210.8980567,-3.0,-5.0,-8.0,-22.0,-64.0,-25.0,-11.0,-3.0
1701873210.8980567,-6.0,-6.0,-1.0,2.0,75.0,11.0,2.0,-6.0
1701873210.918085,2.0,3.0,7.0,28.0,18.0,18.0,3.0,-1.0
1701873210.918085,4.0,7.0,8.0,10.0,17.0,13.0,7.0,-1.0
1701873210.918085,1.0,1.0,0.0,0.0,-14.0,-8.0,-11.0,0.0
1701873210.918085,-6.0,-7.0,-11.0,-35.0,-94.0,-32.0,-7.0,-4.0
1701873210.9284437,-3.0,-4.0,-8.0,-19.0,13.0,-6.0,-4.0,-3.0
1701873210.9284437,-1.0,-2.0,1.0,21.0,41.0,27.0,9.0,4.0
1701873210.9381118,1.0,2.0,6.0,14.0,22.0,-1.0,1.0,2.0
1701873210.9381118,2.0,3.0,-1.0,-2.0,-21.0,-10.0,-8.0,4.0
1701873210.9580579,-1.0,-4.0,-3.0,-3.0,-4.0,-5.0,-1.0,2.0
1701873210.9580579,-5.0,-5.0,-10.0,-32.0,-66.0,-17.0,-10.0,-5.0
1701873210.9681008,-4.0,-4.0,-2.0,12.0,90.0,7.0,2.0,-3.0
1701873210.9681008,6.0,9.0,16.0,43.0,25.0,7.0,-3.0,0.0
1701873210.9783883,6.0,5.0,6.0,3.0,5.0,25.0,18.0,6.0
1701873210.9783883,-1.0,-3.0,-3.0,0.0,2.0,-5.0,-6.0,-5.0
1701873210.9783883,-7.0,-7.0,-10.0,-22.0,-55.0,-11.0,-1.0,-8.0
1701873210.9783883,-3.0,-5.0,-8.0,-23.0,-31.0,-5.0,10.0,0.0
1701873210.9886887,-5.0,-5.0,-4.0,0.0,15.0,-6.0,-15.0,-6.0
1701873210.9886887,0.0,0.0,3.0,11.0,23.0,9.0,2.0,1.0
1701873210.9985175,1.0,0.0,1.0,1.0,-10.0,-11.0,-2.0,6.0
1701873210.9985175,-1.0,-3.0,-7.0,-10.0,-12.0,-5.0,-7.0,-3.0
1701873211.008405,-3.0,-2.0,-3.0,-6.0,-15.0,0.0,1.0,-1.0
1701873211.008405,4.0,2.0,2.0,11.0,34.0,4.0,1.0,3.0
1701873211.0187323,0.0,2.0,2.0,12.0,13.0,7.0,1.0,0.0
1701873211.0187323,-1.0,-2.0,-2.0,-11.0,-38.0,-8.0,1.0,3.0
1701873211.0388205,-4.0,-7.0,-8.0,-20.0,-14.0,-18.0,-7.0,-5.0
1701873211.0388205,-2.0,0.0,5.0,9.0,44.0,9.0,-1.0,-4.0
1701873211.0388205,2.0,3.0,4.0,13.0,0.0,8.0,5.0,-1.0
1701873211.0388205,1.0,0.0,-1.0,-6.0,-11.0,0.0,1.0,-1.0
1701873211.0487895,-4.0,-4.0,-10.0,-16.0,-40.0,-18.0,-9.0,-6.0
1701873211.0487895,-2.0,-4.0,-6.0,-3.0,6.0,-9.0,-1.0,0.0
1701873211.0586343,2.0,4.0,5.0,13.0,25.0,25.0,6.0,3.0
1701873211.0586343,2.0,1.0,1.0,4.0,12.0,2.0,1.0,1.0
1701873211.0684054,1.0,0.0,1.0,4.0,5.0,3.0,-2.0,0.0
1701873211.0684054,-1.0,-2.0,-3.0,-7.0,-25.0,-19.0,-6.0,-1.0
1701873211.0784051,-4.0,-5.0,-6.0,-11.0,-18.0,-2.0,-3.0,-3.0
1701873211.0784051,-1.0,-1.0,2.0,1.0,16.0,2.0,-1.0,-3.0
1701873211.098826,0.0,1.0,2.0,3.0,-2.0,2.0,2.0,0.0
1701873211.098826,0.0,0.0,0.0,0.0,10.0,4.0,1.0,0.0
1701873211.098826,1.0,0.0,-1.0,0.0,-3.0,-1.0,-3.0,0.0
1701873211.098826,-2.0,-2.0,-3.0,-5.0,-6.0,-5.0,-2.0,1.0
1701873211.1087909,-5.0,-5.0,-7.0,-13.0,-25.0,-13.0,-6.0,-4.0
1701873211.1087909,-2.0,-2.0,-1.0,0.0,5.0,2.0,0.0,2.0
1701873211.128405,0.0,2.0,3.0,9.0,7.0,5.0,2.0,0.0
1701873211.128405,1.0,4.0,3.0,7.0,12.0,6.0,1.0,2.0
1701873211.128405,-1.0,0.0,-2.0,-1.0,2.0,-3.0,-2.0,-2.0
1701873211.128405,-2.0,-1.0,-4.0,-2.0,-5.0,-4.0,-5.0,-4.0
1701873211.128405,-3.0,-4.0,-6.0,-11.0,-17.0,-10.0,-2.0,-3.0
1701873211.128405,-1.0,0.0,-1.0,-3.0,-7.0,6.0,2.0,1.0
1701873211.1585839,2.0,1.0,3.0,3.0,7.0,1.0,2.0,4.0
1701873211.1585839,-3.0,1.0,2.0,5.0,10.0,6.0,-2.0,0.0
1701873211.1585839,0.0,-1.0,-2.0,0.0,-4.0,-3.0,0.0,-2.0
1701873211.1585839,-3.0,-4.0,-5.0,-10.0,-19.0,-12.0,-7.0,-2.0
1701873211.1784065,-1.0,-1.0,-1.0,-4.0,-4.0,1.0,0.0,-4.0
1701873211.1784065,-1.0,-1.0,1.0,2.0,10.0,8.0,1.0,0.0
1701873211.1784065,0.0,2.0,2.0,1.0,8.0,3.0,3.0,4.0
1701873211.1784065,1.0,0.0,3.0,7.0,16.0,6.0,2.0,3.0
1701873211.1884892,-3.0,-2.0,-1.0,1.0,0.0,-3.0,-3.0,-1.0
1701873211.1884892,-1.0,-2.0,-2.0,-3.0,-11.0,-8.0,-3.0,-3.0
1701873211.1884892,-3.0,-2.0,-4.0,-10.0,-21.0,-10.0,-5.0,-3.0
1701873211.198415,-2.0,-4.0,-6.0,-8.0,-10.0,-6.0,-2.0,-3.0
1701873211.2187288,-2.0,0.0,-1.0,1.0,0.0,0.0,-4.0,0.0
1701873211.2187288,2.0,1.0,3.0,2.0,9.0,7.0,3.0,2.0
1701873211.2187288,-2.0,-2.0,1.0,1.0,6.0,3.0,-2.0,1.0
1701873211.2187288,-1.0,-2.0,-4.0,-3.0,-10.0,-7.0,1.0,-1.0
1701873211.257022,-2.0,-4.0,-1.0,-6.0,-2.0,-3.0,-3.0,-2.0
1701873211.257022,-2.0,-1.0,-1.0,1.0,-2.0,-4.0,-1.0,-2.0
1701873211.257022,1.0,1.0,2.0,3.0,7.0,6.0,3.0,-1.0
1701873211.257022,0.0,0.0,1.0,-1.0,4.0,1.0,-1.0,0.0
1701873211.257022,-1.0,0.0,-4.0,-3.0,-7.0,-7.0,-2.0,-5.0
1701873211.257022,-2.0,-1.0,-2.0,-3.0,-8.0,-4.0,-1.0,-2.0
1701873211.2640357,-2.0,-3.0,0.0,3.0,5.0,1.0,-3.0,-4.0
1701873211.2640357,-2.0,1.0,0.0,7.0,11.0,9.0,7.0,0.0
1701873211.2787106,1.0,1.0,0.0,4.0,6.0,-1.0,-2.0,1.0
1701873211.2797272,-1.0,0.0,-2.0,-3.0,-2.0,0.0,-2.0,-1.0
1701873211.2797272,-3.0,-3.0,-4.0,-8.0,-17.0,-9.0,-4.0,-5.0
1701873211.2797272,-1.0,-2.0,-2.0,-9.0,-18.0,-9.0,-6.0,-1.0
1701873211.3008728,0.0,-4.0,-2.0,-4.0,-1.0,0.0,3.0,1.0
1701873211.3008728,2.0,3.0,5.0,11.0,23.0,10.0,4.0,1.0
1701873211.3008728,4.0,3.0,4.0,11.0,17.0,13.0,6.0,3.0
1701873211.3008728,-2.0,-1.0,0.0,-1.0,-2.0,-4.0,-4.0,-2.0
1701873211.3109145,-2.0,-1.0,-4.0,-6.0,-12.0,-6.0,-3.0,-1.0
1701873211.3109145,-3.0,-5.0,-5.0,-10.0,-18.0,-16.0,-8.0,-2.0
1701873211.3213232,-3.0,-1.0,-2.0,-5.0,-4.0,2.0,5.0,0.0
1701873211.3213232,-1.0,-1.0,-1.0,0.0,0.0,1.0,-1.0,-1.0
1701873211.3413346,0.0,1.0,2.0,4.0,8.0,3.0,0.0,1.0
1701873211.3413346,-1.0,-2.0,-1.0,1.0,0.0,-4.0,-3.0,0.0
1701873211.3413346,-2.0,-1.0,-1.0,-2.0,-4.0,-4.0,-3.0,-1.0
1701873211.3413346,-3.0,-3.0,-4.0,-5.0,-5.0,-2.0,-2.0,-4.0
1701873211.361549,-2.0,0.0,1.0,1.0,7.0,2.0,0.0,-1.0
1701873211.361549,0.0,1.0,-1.0,3.0,7.0,7.0,2.0,-1.0
1701873211.361549,1.0,0.0,0.0,1.0,1.0,-3.0,-2.0,0.0
1701873211.361549,-1.0,-1.0,-3.0,-5.0,-7.0,-4.0,-1.0,1.0
1701873211.3716788,0.0,-1.0,-1.0,-2.0,-4.0,-2.0,-1.0,-1.0
1701873211.3716788,-2.0,-3.0,-1.0,-5.0,-7.0,-4.0,-1.0,-1.0
1701873211.3817139,-1.0,-1.0,-1.0,-3.0,-7.0,-2.0,-1.0,-1.0
1701873211.3817139,-1.0,1.0,3.0,1.0,3.0,3.0,0.0,-2.0
1701873211.3913357,0.0,-3.0,1.0,2.0,5.0,5.0,-1.0,-2.0
1701873211.3913357,0.0,-2.0,-1.0,-3.0,-7.0,-5.0,-2.0,-1.0
1701873211.3913357,-3.0,-2.0,-2.0,-4.0,-3.0,-5.0,-6.0,-1.0
1701873211.3913357,0.0,-1.0,-3.0,-2.0,-1.0,0.0,-1.0,-1.0
1701873211.421571,-6.0,-2.0,3.0,5.0,-1.0,0.0,-1.0,-1.0
1701873211.421571,-2.0,0.0,2.0,3.0,3.0,4.0,0.0,-2.0
1701873211.421571,0.0,-1.0,-1.0,-1.0,3.0,3.0,0.0,1.0
1701873211.421571,-2.0,1.0,-2.0,1.0,1.0,-2.0,1.0,-2.0
1701873211.4316864,0.0,-2.0,-4.0,-6.0,-3.0,-3.0,-2.0,-3.0
1701873211.4316864,-1.0,-1.0,0.0,-2.0,-7.0,-4.0,-1.0,0.0
1701873211.4417174,-1.0,-1.0,0.0,-3.0,-5.0,-5.0,-1.0,-2.0
1701873211.4417174,-2.0,-3.0,-2.0,-1.0,0.0,2.0,-2.0,0.0
1701873211.4613352,0.0,0.0,-2.0,-1.0,-5.0,-5.0,-2.0,-2.0
1701873211.4613352,-1.0,-1.0,0.0,-1.0,2.0,1.0,2.0,0.0
1701873211.4613352,-1.0,-3.0,-1.0,1.0,-1.0,-2.0,-2.0,-3.0
1701873211.4613352,-2.0,-2.0,-2.0,-4.0,-4.0,-2.0,-4.0,-3.0
1701873211.481506,-2.0,-1.0,-3.0,-4.0,-5.0,-4.0,-2.0,-3.0
1701873211.481506,0.0,0.0,0.0,0.0,-1.0,-3.0,-3.0,-1.0
1701873211.481506,-3.0,0.0,-1.0,-1.0,3.0,1.0,0.0,0.0
1701873211.481506,1.0,-2.0,6.0,9.0,12.0,7.0,2.0,2.0
1701873211.4915817,0.0,-1.0,1.0,1.0,7.0,5.0,1.0,0.0
1701873211.4915817,-1.0,2.0,-3.0,-5.0,-4.0,-1.0,-1.0,-2.0
1701873211.5016203,0.0,-2.0,-2.0,-2.0,-6.0,-7.0,-1.0,-2.0
1701873211.5016203,-3.0,-4.0,-3.0,-9.0,-9.0,-7.0,-1.0,0.0
1701873211.521334,-2.0,-3.0,-1.0,0.0,-8.0,-5.0,-2.0,-2.0
1701873211.521334,-1.0,-3.0,-1.0,-1.0,-3.0,0.0,1.0,-1.0
1701873211.521334,-3.0,-1.0,0.0,2.0,-3.0,-5.0,-3.0,0.0
1701873211.521334,-1.0,0.0,-1.0,0.0,4.0,2.0,0.0,-1.0
1701873211.5413797,1.0,3.0,2.0,1.0,5.0,6.0,1.0,0.0
1701873211.5413797,-1.0,0.0,3.0,4.0,7.0,4.0,1.0,-2.0
1701873211.5413797,-3.0,-5.0,-3.0,-1.0,-4.0,-6.0,-3.0,-1.0
1701873211.5413797,-1.0,1.0,0.0,-1.0,-8.0,-4.0,-4.0,-3.0
1701873211.551698,-1.0,-3.0,-5.0,-4.0,-1.0,-6.0,-2.0,0.0
1701873211.551698,-1.0,-1.0,1.0,4.0,6.0,3.0,0.0,0.0
1701873211.5616438,-2.0,-1.0,0.0,3.0,-1.0,4.0,2.0,0.0
1701873211.5616438,0.0,-3.0,0.0,-3.0,0.0,-2.0,-2.0,-1.0
1701873211.5813346,-2.0,-3.0,-4.0,-4.0,-6.0,-5.0,-1.0,-2.0
1701873211.5813346,-1.0,-1.0,-4.0,-10.0,-2.0,-3.0,-3.0,-1.0
1701873211.5813346,0.0,-1.0,1.0,-2.0,3.0,3.0,0.0,-2.0
1701873211.5813346,-4.0,0.0,-2.0,-1.0,-4.0,-5.0,-2.0,-1.0
1701873211.6015804,-1.0,-2.0,1.0,-4.0,-17.0,-5.0,-2.0,-3.0
1701873211.6015804,0.0,-2.0,1.0,6.0,6.0,2.0,2.0,0.0
1701873211.6015804,1.0,1.0,1.0,2.0,4.0,3.0,-1.0,0.0
1701873211.6015804,-1.0,0.0,1.0,1.0,8.0,-1.0,1.0,-1.0
1701873211.6116872,1.0,3.0,2.0,1.0,2.0,5.0,0.0,-1.0
1701873211.6116872,-2.0,-9.0,-8.0,-6.0,-9.0,-5.0,-5.0,-2.0
1701873211.6213372,2.0,0.0,-4.0,-7.0,-12.0,-7.0,-4.0,-1.0
1701873211.6213372,-2.0,-1.0,-1.0,-1.0,-3.0,-1.0,4.0,1.0
1701873211.6313648,2.0,3.0,1.0,5.0,9.0,5.0,1.0,2.0
1701873211.6313648,1.0,2.0,3.0,1.0,3.0,4.0,2.0,1.0
1701873211.6313648,-2.0,-4.0,-6.0,-5.0,-3.0,-5.0,-4.0,-1.0
1701873211.6313648,-3.0,-2.0,-1.0,-3.0,-10.0,-6.0,-4.0,-2.0
1701873211.6614094,-1.0,-1.0,-2.0,-6.0,-6.0,-4.0,-3.0,-3.0
1701873211.6614094,0.0,2.0,2.0,4.0,5.0,1.0,-1.0,0.0
1701873211.6614094,0.0,-3.0,-2.0,-1.0,7.0,3.0,3.0,0.0
1701873211.6614094,0.0,-1.0,-1.0,0.0,6.0,0.0,-2.0,0.0
1701873211.691339,-2.0,0.0,-2.0,-2.0,-5.0,-4.0,-2.0,-3.0
1701873211.691339,-3.0,-1.0,-2.0,0.0,-1.0,1.0,1.0,-1.0
1701873211.691339,0.0,-1.0,0.0,2.0,2.0,-1.0,1.0,-1.0
1701873211.691339,-1.0,-1.0,0.0,-1.0,-6.0,-4.0,-1.0,-2.0
1701873211.691339,-4.0,-1.0,-2.0,-6.0,-1.0,-1.0,-1.0,0.0
1701873211.691339,0.0,2.0,-4.0,-10.0,-8.0,-6.0,-6.0,-2.0
1701873211.691339,0.0,0.0,1.0,3.0,4.0,1.0,1.0,1.0
1701873211.691339,-3.0,1.0,1.0,4.0,1.0,1.0,-4.0,-2.0
1701873211.7213857,-1.0,-2.0,1.0,2.0,2.0,-2.0,-1.0,0.0
1701873211.7213857,-3.0,1.0,-4.0,-11.0,-8.0,-3.0,-2.0,-4.0
1701873211.7213857,-2.0,0.0,0.0,1.0,-6.0,-4.0,-4.0,-3.0
1701873211.7213857,1.0,-1.0,-3.0,-5.0,1.0,-1.0,0.0,-2.0
1701873211.7313337,-1.0,2.0,2.0,3.0,3.0,5.0,2.0,1.0
1701873211.7313337,-2.0,-2.0,1.0,6.0,8.0,1.0,1.0,2.0
1701873211.7416623,1.0,-1.0,1.0,-2.0,-1.0,-4.0,-3.0,-4.0
1701873211.7416623,-1.0,0.0,-1.0,1.0,-3.0,-1.0,0.0,0.0
1701873211.751336,-1.0,-5.0,-3.0,-5.0,-5.0,-5.0,-2.0,-3.0
1701873211.751336,0.0,-3.0,-2.0,-5.0,-8.0,-3.0,-2.0,-1.0
1701873211.751336,-2.0,-2.0,-3.0,-5.0,-5.0,-3.0,-1.0,-3.0
1701873211.751336,0.0,0.0,0.0,0.0,5.0,1.0,0.0,0.0
1701873211.7821305,-1.0,0.0,-2.0,3.0,9.0,4.0,-1.0,1.0
1701873211.7821305,-1.0,-3.0,0.0,2.0,-5.0,-5.0,-3.0,0.0
1701873211.7821305,-4.0,-2.0,1.0,-2.0,-4.0,-1.0,-1.0,0.0
1701873211.7821305,0.0,-2.0,-1.0,-1.0,1.0,2.0,1.0,1.0
1701873211.8039005,-1.0,0.0,-2.0,2.0,4.0,5.0,1.0,-2.0
1701873211.8049233,-2.0,-2.0,-1.0,-3.0,-4.0,-7.0,-3.0,-2.0
1701873211.8049233,-3.0,-1.0,-3.0,-5.0,-11.0,-6.0,-3.0,0.0
1701873211.8049233,-1.0,-2.0,-1.0,-4.0,-4.0,1.0,1.0,-1.0
1701873211.813693,-4.0,-3.0,-1.0,3.0,7.0,0.0,-3.0,-2.0
1701873211.813693,-2.0,2.0,0.0,2.0,1.0,0.0,-1.0,-1.0
1701873211.813693,1.0,1.0,1.0,0.0,-1.0,0.0,0.0,0.0
1701873211.813693,0.0,-5.0,-3.0,4.0,-4.0,-6.0,-3.0,-2.0
1701873211.8338926,1.0,2.0,-4.0,-14.0,-9.0,-5.0,-1.0,-2.0
1701873211.8338926,-1.0,-6.0,-4.0,-1.0,-1.0,-1.0,0.0,0.0
1701873211.8338926,-1.0,0.0,-1.0,0.0,2.0,5.0,0.0,-1.0
1701873211.8338926,0.0,0.0,3.0,4.0,1.0,-1.0,-2.0,0.0
1701873211.8636892,-1.0,3.0,5.0,4.0,1.0,-2.0,1.0,-1.0
1701873211.8636892,0.0,0.0,-2.0,-3.0,0.0,2.0,0.0,-2.0
1701873211.8636892,1.0,4.0,0.0,0.0,3.0,0.0,-3.0,1.0
1701873211.8636892,-2.0,-4.0,-4.0,-8.0,-14.0,-3.0,-2.0,0.0
1701873211.873687,-1.0,0.0,-1.0,-2.0,2.0,1.0,0.0,-1.0
1701873211.873687,1.0,-4.0,-4.0,2.0,8.0,6.0,3.0,0.0
1701873211.873687,2.0,1.0,1.0,4.0,3.0,-1.0,3.0,1.0
1701873211.873687,-3.0,-5.0,-7.0,-6.0,-4.0,-5.0,-4.0,-3.0
1701873211.8939276,0.0,-5.0,-4.0,-8.0,-1.0,-2.0,-3.0,2.0
1701873211.8939276,0.0,1.0,2.0,3.0,1.0,0.0,-1.0,-2.0
1701873211.8939276,0.0,-5.0,0.0,4.0,7.0,3.0,5.0,2.0
1701873211.8939276,1.0,1.0,0.0,-2.0,-3.0,-4.0,-1.0,-2.0
1701873211.9236887,-1.0,-5.0,-3.0,-3.0,-10.0,-8.0,-2.0,-1.0
1701873211.9236887,-3.0,0.0,-1.0,-4.0,-12.0,-11.0,-4.0,-2.0
1701873211.9236887,-2.0,-5.0,-6.0,-6.0,-9.0,-1.0,-3.0,-2.0
1701873211.9236887,-2.0,4.0,6.0,5.0,15.0,6.0,2.0,1.0
1701873211.9340029,2.0,3.0,4.0,12.0,15.0,10.0,1.0,1.0
1701873211.9340029,-1.0,1.0,-3.0,1.0,8.0,3.0,1.0,0.0
1701873211.9340029,-1.0,0.0,-2.0,-8.0,-7.0,-10.0,-3.0,-4.0
1701873211.9340029,-3.0,-3.0,-5.0,-7.0,-10.0,-6.0,-3.0,-3.0
1701873211.95369,-2.0,-5.0,-3.0,0.0,-6.0,-1.0,-1.0,-2.0
1701873211.95369,-3.0,-1.0,-1.0,-6.0,-5.0,-1.0,-1.0,-1.0
1701873211.95369,-1.0,-1.0,0.0,0.0,-2.0,-1.0,-3.0,-2.0
1701873211.95369,-1.0,0.0,-3.0,-6.0,-8.0,-1.0,-2.0,-4.0
1701873211.983997,-1.0,1.0,1.0,3.0,-2.0,-4.0,1.0,-1.0
1701873211.983997,1.0,3.0,6.0,7.0,9.0,6.0,4.0,1.0
1701873211.983997,-2.0,-6.0,-5.0,-3.0,-2.0,-1.0,-4.0,-3.0
1701873211.983997,1.0,3.0,2.0,3.0,13.0,0.0,-1.0,-1.0
1701873211.9939523,1.0,-4.0,-2.0,1.0,2.0,0.0,-1.0,-1.0
1701873211.9939523,-3.0,-8.0,-8.0,-13.0,-10.0,-4.0,0.0,0.0
1701873211.9939523,-3.0,0.0,-4.0,-5.0,-6.0,-1.0,-1.0,-1.0
1701873211.9939523,0.0,-1.0,-2.0,-3.0,-7.0,-5.0,0.0,-1.0
1701873212.0136895,-3.0,0.0,0.0,-1.0,-6.0,-5.0,-3.0,-5.0
1701873212.0136895,-1.0,1.0,0.0,7.0,4.0,-1.0,-1.0,-1.0
1701873212.0136895,-1.0,1.0,1.0,6.0,2.0,2.0,2.0,1.0
1701873212.0136895,-2.0,-1.0,-5.0,-13.0,-1.0,1.0,0.0,0.0
1701873212.0438964,-3.0,-2.0,-2.0,-2.0,-2.0,0.0,0.0,-2.0
1701873212.0438964,-3.0,-3.0,1.0,5.0,-3.0,-2.0,-2.0,-1.0
1701873212.0438964,-3.0,-2.0,-1.0,-10.0,-1.0,-2.0,-1.0,-2.0
1701873212.0438964,1.0,-1.0,0.0,2.0,0.0,0.0,0.0,0.0
1701873212.0539625,1.0,1.0,0.0,5.0,6.0,4.0,2.0,-1.0
1701873212.0539625,1.0,-3.0,-4.0,-12.0,-5.0,-2.0,-2.0,-1.0
1701873212.0539625,3.0,2.0,3.0,7.0,4.0,0.0,0.0,0.0
1701873212.0539625,0.0,-2.0,-1.0,0.0,5.0,5.0,1.0,1.0
1701873212.073689,0.0,1.0,-3.0,-5.0,-10.0,-10.0,-3.0,-1.0
1701873212.073689,-1.0,0.0,-1.0,-3.0,-18.0,-5.0,-3.0,-1.0
1701873212.073689,0.0,-3.0,-1.0,5.0,11.0,4.0,2.0,0.0
1701873212.073689,1.0,-1.0,-1.0,0.0,12.0,7.0,2.0,3.0
1701873212.1038928,-1.0,-3.0,-1.0,0.0,5.0,-2.0,-2.0,-1.0
1701873212.1038928,0.0,2.0,2.0,2.0,-5.0,-3.0,-1.0,-3.0
1701873212.1038928,-1.0,-2.0,-2.0,-9.0,-11.0,-5.0,-3.0,0.0
1701873212.1038928,-2.0,2.0,-1.0,1.0,-7.0,-1.0,-3.0,-1.0
