1701873946.3598082,0.0,-11.0,0.0,1.0,14.0,7.0,3.0,-3.0
1701873946.3609395,-8.0,-10.0,-40.0,-30.0,-25.0,-24.0,-13.0,-11.0
1701873946.3734763,-1.0,3.0,14.0,11.0,-16.0,-2.0,-2.0,2.0
1701873946.3734763,-5.0,-5.0,3.0,3.0,4.0,3.0,-4.0,-3.0
1701873946.3756497,1.0,3.0,-1.0,2.0,19.0,0.0,-2.0,2.0
1701873946.3756497,10.0,1.0,-34.0,-21.0,-13.0,-8.0,4.0,13.0
1701873946.417726,-1.0,-3.0,8.0,0.0,-14.0,1.0,1.0,-6.0
1701873946.417726,-5.0,6.0,15.0,17.0,17.0,14.0,2.0,-6.0
1701873946.430841,-8.0,-3.0,18.0,8.0,-4.0,-4.0,-1.0,-2.0
1701873946.430841,2.0,1.0,-9.0,-3.0,6.0,1.0,0.0,-2.0
1701873946.430841,-3.0,-7.0,-28.0,-20.0,-11.0,-5.0,-1.0,2.0
1701873946.430841,-2.0,-16.0,-15.0,-7.0,-14.0,-16.0,-8.0,-2.0
1701873946.430841,9.0,12.0,12.0,-3.0,-4.0,2.0,7.0,11.0
1701873946.430841,-12.0,-16.0,4.0,-3.0,-11.0,-3.0,-13.0,-20.0
1701873946.4352624,2.0,7.0,-21.0,3.0,19.0,15.0,7.0,3.0
1701873946.4352624,1.0,1.0,8.0,-2.0,4.0,5.0,5.0,7.0
1701873946.4363592,-2.0,-2.0,7.0,1.0,-10.0,-11.0,-8.0,-8.0
1701873946.4363592,-3.0,1.0,-1.0,-6.0,-17.0,-16.0,-5.0,2.0
1701873946.4500227,-5.0,-15.0,-23.0,-11.0,-6.0,8.0,9.0,0.0
1701873946.4500227,4.0,0.0,3.0,11.0,30.0,21.0,9.0,4.0
1701873946.459241,2.0,16.0,19.0,7.0,-3.0,-7.0,-7.0,-1.0
1701873946.459241,-2.0,-7.0,14.0,7.0,11.0,3.0,-3.0,-1.0
1701873946.5140736,-4.0,-17.0,-25.0,-11.0,-4.0,-8.0,-7.0,-6.0
1701873946.5140736,0.0,13.0,-9.0,-11.0,-22.0,-7.0,1.0,1.0
1701873946.5140736,-2.0,-8.0,2.0,-8.0,-16.0,-4.0,1.0,0.0
1701873946.51508,-1.0,7.0,9.0,8.0,7.0,3.0,-3.0,-5.0
1701873946.51508,5.0,2.0,-12.0,-8.0,-3.0,3.0,5.0,3.0
1701873946.51508,-9.0,-8.0,27.0,11.0,1.0,-2.0,-5.0,-6.0
1701873946.5153162,3.0,5.0,-15.0,7.0,26.0,16.0,2.0,6.0
1701873946.5153162,0.0,1.0,11.0,4.0,0.0,-5.0,-3.0,-6.0
1701873946.540417,-5.0,-13.0,0.0,-15.0,-20.0,-10.0,-4.0,-1.0
1701873946.5416172,5.0,-1.0,-45.0,-17.0,-10.0,-11.0,18.0,16.0
1701873946.5640986,-11.0,-10.0,-13.0,-10.0,-5.0,-5.0,-43.0,-30.0
1701873946.5640986,0.0,3.0,6.0,4.0,1.0,0.0,10.0,5.0
1701873946.5809877,-1.0,-1.0,-4.0,-3.0,-2.0,-5.0,-11.0,-4.0
1701873946.5809877,6.0,2.0,14.0,4.0,-10.0,-11.0,-8.0,-5.0
1701873946.5809877,2.0,-1.0,4.0,7.0,9.0,28.0,34.0,18.0
1701873946.5809877,-2.0,-1.0,-6.0,2.0,0.0,-5.0,-11.0,-10.0
1701873946.5809877,4.0,12.0,-9.0,0.0,16.0,8.0,-2.0,0.0
1701873946.5809877,-9.0,-10.0,-3.0,8.0,-1.0,-9.0,-6.0,0.0
1701873946.5832236,4.0,-7.0,-16.0,-11.0,-5.0,-6.0,5.0,2.0
1701873946.5836637,0.0,2.0,-14.0,-12.0,-7.0,-2.0,-1.0,0.0
1701873946.6253617,-4.0,-4.0,38.0,13.0,-2.0,-1.0,3.0,2.0
1701873946.6253617,11.0,30.0,-23.0,-10.0,0.0,1.0,-6.0,-3.0
1701873946.6253617,-9.0,-16.0,1.0,5.0,7.0,4.0,2.0,-3.0
1701873946.6253617,-21.0,-33.0,-16.0,-7.0,-5.0,-1.0,-2.0,-1.0
1701873946.6279526,10.0,-4.0,-33.0,-17.0,-5.0,-8.0,-2.0,-4.0
1701873946.6279526,5.0,3.0,-1.0,-2.0,-2.0,4.0,2.0,-3.0
1701873946.6279526,-13.0,-7.0,13.0,0.0,-4.0,-15.0,-17.0,-9.0
1701873946.6289146,11.0,7.0,-15.0,4.0,1.0,1.0,10.0,8.0
1701873946.6289146,-7.0,19.0,29.0,8.0,1.0,2.0,3.0,2.0
1701873946.6289146,-11.0,-5.0,9.0,2.0,-10.0,-5.0,-4.0,-7.0
1701873946.6576314,15.0,10.0,-15.0,1.0,6.0,15.0,21.0,14.0
1701873946.6576314,3.0,-1.0,11.0,5.0,20.0,11.0,6.0,6.0
1701873946.6722112,-5.0,1.0,-4.0,-1.0,-1.0,-10.0,-28.0,-16.0
1701873946.6722112,1.0,-12.0,-7.0,-7.0,-2.0,-7.0,-1.0,-2.0
1701873946.6732109,0.0,3.0,17.0,2.0,-14.0,-10.0,-3.0,1.0
1701873946.6732109,-2.0,2.0,-13.0,-10.0,-16.0,-7.0,0.0,2.0
1701873946.6732109,-3.0,-3.0,1.0,1.0,4.0,6.0,8.0,-3.0
1701873946.6732109,1.0,3.0,23.0,12.0,8.0,-1.0,-5.0,5.0
1701873946.6732109,2.0,8.0,9.0,5.0,-4.0,2.0,2.0,2.0
1701873946.6732109,-1.0,4.0,-19.0,-11.0,-4.0,-3.0,4.0,6.0
1701873946.7120333,-3.0,5.0,-13.0,-1.0,-4.0,-6.0,-6.0,-19.0
1701873946.7140834,1.0,-10.0,16.0,6.0,7.0,8.0,-1.0,3.0
1701873946.7169893,-7.0,-22.0,-17.0,-8.0,-1.0,-2.0,3.0,-2.0
1701873946.7169893,-1.0,-8.0,-12.0,-3.0,-2.0,-1.0,-2.0,1.0
1701873946.7169893,0.0,-6.0,8.0,-2.0,0.0,-1.0,7.0,6.0
1701873946.7169893,3.0,9.0,14.0,8.0,-10.0,-5.0,-3.0,-4.0
1701873946.7169893,0.0,3.0,-10.0,-10.0,-5.0,-8.0,-17.0,-7.0
1701873946.7169893,3.0,12.0,32.0,13.0,5.0,10.0,8.0,-5.0
1701873946.718094,-3.0,7.0,-14.0,-9.0,-4.0,-5.0,11.0,15.0
1701873946.718094,-8.0,-6.0,-1.0,3.0,-1.0,-1.0,-32.0,-17.0
1701873946.7214773,3.0,15.0,12.0,-2.0,-2.0,2.0,9.0,0.0
1701873946.7214773,-1.0,-5.0,-3.0,-7.0,-8.0,-10.0,-7.0,-7.0
1701873946.7674503,2.0,-5.0,-7.0,0.0,11.0,5.0,11.0,6.0
1701873946.7674503,-3.0,-10.0,12.0,-2.0,5.0,4.0,0.0,-3.0
1701873946.7674503,-2.0,-1.0,29.0,23.0,2.0,-1.0,1.0,-2.0
1701873946.7674503,0.0,-7.0,-30.0,-15.0,0.0,0.0,-7.0,6.0
1701873946.770537,8.0,-7.0,11.0,-1.0,-19.0,-9.0,3.0,0.0
1701873946.770537,-6.0,-16.0,-21.0,-10.0,8.0,9.0,53.0,12.0
1701873946.770537,2.0,-10.0,-27.0,-12.0,-2.0,-6.0,-45.0,-3.0
1701873946.770537,8.0,0.0,12.0,4.0,-2.0,-1.0,-6.0,-14.0
1701873946.7715836,-3.0,-3.0,-11.0,-5.0,0.0,2.0,-5.0,1.0
1701873946.7715836,-2.0,10.0,8.0,-1.0,-15.0,-11.0,-5.0,-9.0
1701873946.7810163,-8.0,-5.0,-1.0,-3.0,-6.0,2.0,24.0,7.0
1701873946.7810163,8.0,-3.0,6.0,3.0,5.0,5.0,8.0,20.0
1701873946.8294837,-10.0,5.0,-1.0,0.0,12.0,5.0,-18.0,-22.0
1701873946.8294837,4.0,1.0,1.0,-2.0,-6.0,-8.0,0.0,7.0
1701873946.8294837,3.0,1.0,-42.0,-12.0,4.0,7.0,8.0,4.0
1701873946.8294837,-14.0,4.0,23.0,8.0,3.0,-2.0,-8.0,-23.0
1701873946.8294837,3.0,7.0,13.0,5.0,5.0,4.0,5.0,11.0
1701873946.8294837,-7.0,4.0,16.0,4.0,-11.0,-17.0,-11.0,-5.0
1701873946.8294837,-4.0,-1.0,-5.0,-4.0,-4.0,-8.0,-9.0,-4.0
1701873946.8294837,9.0,-11.0,-33.0,-11.0,-3.0,9.0,-8.0,5.0
1701873946.8405964,-3.0,-21.0,-27.0,-1.0,13.0,10.0,20.0,11.0
1701873946.8405964,3.0,10.0,32.0,-2.0,-19.0,-3.0,2.0,5.0
1701873946.8417685,-4.0,5.0,40.0,15.0,3.0,-9.0,-12.0,-33.0
1701873946.8417685,1.0,1.0,-11.0,6.0,21.0,9.0,16.0,16.0
1701873946.8909242,-5.0,3.0,0.0,-4.0,-14.0,-19.0,-20.0,-13.0
1701873946.8909242,1.0,-4.0,-37.0,-8.0,3.0,4.0,0.0,5.0
1701873946.8909242,-3.0,-5.0,2.0,-7.0,-14.0,-6.0,6.0,4.0
1701873946.8909242,-2.0,7.0,19.0,5.0,8.0,12.0,12.0,-3.0
1701873946.8909242,-4.0,0.0,7.0,1.0,-2.0,-6.0,-26.0,-15.0
1701873946.8909242,14.0,0.0,-40.0,-14.0,-7.0,-2.0,15.0,23.0
1701873946.8909242,-6.0,-14.0,5.0,-5.0,2.0,1.0,-18.0,-14.0
1701873946.8909242,8.0,12.0,2.0,-1.0,-10.0,-14.0,5.0,18.0
1701873946.8927908,-6.0,-8.0,7.0,0.0,-4.0,0.0,-16.0,-25.0
1701873946.8927908,-8.0,-4.0,-7.0,3.0,7.0,8.0,10.0,-4.0
1701873946.9016495,-2.0,7.0,10.0,1.0,-5.0,-6.0,-8.0,-2.0
1701873946.9016495,-6.0,-10.0,-17.0,-3.0,3.0,1.0,12.0,6.0
1701873946.9516387,4.0,14.0,59.0,15.0,0.0,0.0,5.0,7.0
1701873946.9516387,-10.0,-9.0,-6.0,-1.0,2.0,-1.0,-23.0,-21.0
1701873946.9576626,7.0,-10.0,-37.0,-19.0,5.0,8.0,28.0,28.0
1701873946.9576626,-8.0,0.0,9.0,-5.0,-14.0,-11.0,-18.0,-22.0
1701873946.9613588,-4.0,1.0,-12.0,-1.0,2.0,5.0,6.0,5.0
1701873946.9613588,-1.0,-1.0,12.0,6.0,7.0,-1.0,-5.0,-7.0
1701873946.9688907,-1.0,13.0,8.0,2.0,-3.0,-2.0,4.0,4.0
1701873946.9698944,-5.0,2.0,-1.0,-6.0,-9.0,-8.0,-9.0,-7.0
1701873947.010101,4.0,2.0,-2.0,-5.0,-14.0,-7.0,5.0,7.0
1701873947.010101,-5.0,-13.0,-15.0,-3.0,-3.0,1.0,-16.0,-12.0
1701873947.010101,0.0,1.0,1.0,10.0,30.0,12.0,3.0,-3.0
1701873947.010101,0.0,1.0,12.0,2.0,-2.0,4.0,4.0,-1.0
1701873947.010101,4.0,-3.0,-13.0,-6.0,-2.0,0.0,13.0,10.0
1701873947.010101,0.0,-2.0,9.0,3.0,-7.0,-7.0,-5.0,1.0
1701873947.010101,-6.0,-3.0,-10.0,-5.0,-21.0,-14.0,-4.0,-10.0
1701873947.010101,5.0,6.0,13.0,7.0,18.0,9.0,-2.0,-7.0
1701873947.010101,-3.0,-8.0,-8.0,-9.0,-10.0,-5.0,3.0,7.0
1701873947.010101,3.0,-5.0,-10.0,-5.0,-4.0,-5.0,-3.0,0.0
1701873947.010101,0.0,-9.0,6.0,-2.0,-6.0,-2.0,-7.0,-4.0
1701873947.010101,-9.0,5.0,12.0,5.0,6.0,1.0,10.0,8.0
1701873947.0461626,-8.0,15.0,-12.0,0.0,-6.0,-2.0,-14.0,-33.0
1701873947.0461626,-11.0,-16.0,8.0,-11.0,-19.0,-22.0,-7.0,2.0
1701873947.0461626,10.0,5.0,-24.0,-3.0,20.0,-3.0,-7.0,-7.0
1701873947.0461626,9.0,-1.0,13.0,22.0,30.0,57.0,32.0,21.0
1701873947.0461626,1.0,-3.0,5.0,0.0,-1.0,-12.0,-10.0,-7.0
1701873947.0461626,1.0,9.0,2.0,-10.0,-28.0,-4.0,2.0,5.0
1701873947.0461626,-9.0,-8.0,13.0,3.0,4.0,-8.0,4.0,-4.0
1701873947.0461626,1.0,-1.0,-8.0,-3.0,-9.0,-24.0,-25.0,-8.0
1701873947.0574656,3.0,2.0,-7.0,-2.0,6.0,3.0,-13.0,-8.0
1701873947.0574656,-2.0,2.0,0.0,-7.0,-8.0,-1.0,4.0,0.0
1701873947.0591202,2.0,-1.0,3.0,0.0,-12.0,-1.0,3.0,3.0
1701873947.0591202,-8.0,-4.0,-8.0,-2.0,4.0,-4.0,-10.0,-10.0
1701873947.0803564,-5.0,-4.0,-4.0,-3.0,-5.0,-2.0,7.0,9.0
1701873947.0803564,3.0,15.0,3.0,-1.0,6.0,1.0,-8.0,-16.0
1701873947.0819888,-6.0,-6.0,5.0,4.0,6.0,8.0,-1.0,-5.0
1701873947.0819888,-10.0,-12.0,-10.0,-12.0,-18.0,-14.0,-6.0,1.0
1701873947.1346745,4.0,-3.0,7.0,3.0,10.0,2.0,4.0,7.0
1701873947.1346745,2.0,3.0,-8.0,3.0,20.0,12.0,0.0,-5.0
1701873947.1346745,-3.0,-7.0,3.0,-5.0,-11.0,-4.0,-3.0,6.0
1701873947.1346745,3.0,17.0,25.0,10.0,-8.0,-8.0,-3.0,-4.0
1701873947.1346745,-4.0,-26.0,-73.0,-35.0,-24.0,-14.0,-1.0,3.0
1701873947.1346745,-8.0,-9.0,-3.0,4.0,19.0,5.0,-4.0,-8.0
1701873947.1346745,13.0,16.0,14.0,8.0,-2.0,12.0,7.0,10.0
1701873947.1346745,1.0,5.0,-3.0,-1.0,4.0,-6.0,-7.0,-4.0
1701873947.1787589,-25.0,-37.0,1.0,9.0,6.0,-2.0,-6.0,-8.0
1701873947.1787589,4.0,6.0,3.0,0.0,2.0,2.0,1.0,3.0
1701873947.1787589,1.0,-5.0,-10.0,-4.0,-14.0,-9.0,-2.0,2.0
1701873947.1787589,3.0,2.0,-8.0,-17.0,-28.0,-16.0,-6.0,2.0
1701873947.1787589,8.0,30.0,22.0,17.0,16.0,8.0,4.0,-3.0
1701873947.1787589,-1.0,-14.0,-14.0,-5.0,2.0,4.0,5.0,13.0
1701873947.1787589,-11.0,9.0,6.0,3.0,-2.0,-1.0,-12.0,-21.0
1701873947.1787589,-6.0,5.0,-12.0,-8.0,-1.0,-6.0,-5.0,1.0
1701873947.1787589,5.0,4.0,-7.0,-10.0,-2.0,12.0,13.0,8.0
1701873947.1787589,-5.0,-3.0,9.0,4.0,-6.0,-9.0,-3.0,-7.0
1701873947.1809847,2.0,5.0,10.0,9.0,6.0,-1.0,0.0,3.0
1701873947.1809847,0.0,-11.0,2.0,1.0,-6.0,-14.0,-16.0,-13.0
1701873947.2369819,-7.0,4.0,9.0,1.0,-8.0,-4.0,13.0,11.0
1701873947.2369819,3.0,-5.0,-17.0,-9.0,7.0,10.0,-18.0,-17.0
1701873947.2369819,7.0,16.0,-10.0,3.0,10.0,8.0,7.0,11.0
1701873947.2369819,-12.0,-27.0,-15.0,-10.0,-4.0,-5.0,-4.0,-14.0
1701873947.2369819,6.0,-28.0,-13.0,-4.0,-5.0,-4.0,-1.0,5.0
1701873947.2369819,5.0,32.0,23.0,6.0,-11.0,-5.0,3.0,7.0
1701873947.2369819,1.0,2.0,-8.0,-7.0,-4.0,0.0,2.0,-2.0
1701873947.2369819,4.0,18.0,10.0,16.0,17.0,8.0,3.0,0.0
1701873947.240294,8.0,-13.0,16.0,8.0,17.0,10.0,2.0,8.0
1701873947.240294,-9.0,-15.0,7.0,14.0,-2.0,-7.0,-4.0,0.0
1701873947.240294,-15.0,-16.0,-27.0,-33.0,-17.0,-2.0,1.0,-7.0
1701873947.240294,12.0,-2.0,-3.0,-8.0,1.0,7.0,10.0,13.0
1701873947.292032,-2.0,6.0,-10.0,-6.0,-5.0,-6.0,-15.0,-14.0
1701873947.292032,-3.0,5.0,-2.0,7.0,15.0,-3.0,-13.0,-5.0
1701873947.2930906,0.0,0.0,25.0,10.0,-8.0,-8.0,3.0,-2.0
1701873947.2930906,0.0,-8.0,-22.0,-4.0,2.0,9.0,8.0,6.0
1701873947.304529,-2.0,9.0,17.0,6.0,7.0,2.0,-2.0,-5.0
1701873947.304529,-4.0,-6.0,-5.0,-7.0,-8.0,-6.0,-4.0,-3.0
1701873947.304529,2.0,-3.0,-6.0,-2.0,-1.0,-1.0,-1.0,2.0
1701873947.304529,-3.0,1.0,2.0,-2.0,2.0,-3.0,-2.0,-6.0
1701873947.304529,-1.0,-2.0,-11.0,-12.0,-21.0,-13.0,-7.0,0.0
1701873947.304529,6.0,3.0,13.0,11.0,-9.0,0.0,7.0,2.0
1701873947.304529,-2.0,-11.0,-38.0,-8.0,41.0,27.0,8.0,7.0
1701873947.304529,-3.0,-8.0,27.0,9.0,9.0,-1.0,-3.0,-4.0
1701873947.3325613,-4.0,-1.0,9.0,7.0,-5.0,-5.0,-4.0,-3.0
1701873947.333563,4.0,4.0,-14.0,-7.0,-1.0,4.0,2.0,2.0
1701873947.333563,0.0,4.0,15.0,-2.0,-23.0,-18.0,-8.0,-5.0
1701873947.333563,-8.0,3.0,12.0,5.0,-6.0,-2.0,-6.0,-7.0
1701873947.333563,2.0,-10.0,-2.0,-1.0,8.0,5.0,2.0,4.0
1701873947.333563,4.0,10.0,-9.0,-15.0,-12.0,-8.0,1.0,-1.0
1701873947.3350148,-9.0,-6.0,-10.0,3.0,-5.0,2.0,3.0,3.0
1701873947.3350148,2.0,-3.0,-3.0,1.0,16.0,13.0,2.0,2.0
1701873947.363998,2.0,13.0,14.0,22.0,19.0,3.0,-1.0,-2.0
1701873947.36613,-1.0,-7.0,-1.0,-1.0,15.0,6.0,6.0,6.0
1701873947.4013975,3.0,14.0,10.0,-5.0,-15.0,-12.0,-11.0,-5.0
1701873947.4013975,-5.0,-8.0,-4.0,-12.0,-36.0,-16.0,-8.0,-8.0
1701873947.4013975,-3.0,-22.0,-18.0,-7.0,-9.0,1.0,6.0,3.0
1701873947.4013975,-1.0,11.0,10.0,10.0,19.0,16.0,10.0,5.0
1701873947.4024024,2.0,0.0,10.0,4.0,6.0,-2.0,-3.0,-2.0
1701873947.4024024,-1.0,0.0,-16.0,0.0,-12.0,-6.0,0.0,0.0
1701873947.4428015,-8.0,-7.0,-9.0,-20.0,2.0,2.0,-3.0,-3.0
1701873947.4428015,2.0,-9.0,23.0,14.0,-1.0,-9.0,-2.0,-2.0
1701873947.4428015,0.0,-1.0,8.0,5.0,-4.0,-1.0,4.0,-1.0
1701873947.4428015,5.0,16.0,4.0,2.0,4.0,0.0,-3.0,-3.0
1701873947.4428015,11.0,33.0,-17.0,-5.0,2.0,2.0,3.0,8.0
1701873947.4428015,-10.0,-16.0,-4.0,-7.0,-2.0,-1.0,-3.0,-14.0
1701873947.4428015,5.0,5.0,5.0,3.0,-4.0,-2.0,-1.0,4.0
1701873947.4428015,-7.0,-9.0,-12.0,-7.0,-7.0,-9.0,-6.0,-7.0
1701873947.4428015,5.0,11.0,2.0,6.0,8.0,5.0,8.0,8.0
1701873947.4428015,0.0,2.0,2.0,-1.0,3.0,4.0,5.0,8.0
1701873947.4428015,-3.0,-2.0,-4.0,5.0,9.0,3.0,-3.0,-14.0
1701873947.4428015,1.0,-4.0,4.0,2.0,5.0,1.0,1.0,5.0
1701873947.4816256,1.0,-7.0,12.0,-6.0,-8.0,-4.0,-4.0,-4.0
1701873947.482906,-4.0,17.0,1.0,-1.0,-6.0,-4.0,-2.0,0.0
1701873947.5078213,-2.0,-4.0,3.0,-1.0,-7.0,-8.0,-3.0,1.0
1701873947.5078213,-3.0,1.0,-8.0,0.0,2.0,1.0,0.0,-3.0
1701873947.5078213,2.0,0.0,-17.0,-1.0,10.0,7.0,1.0,-3.0
1701873947.5088737,-2.0,-18.0,-13.0,-18.0,-4.0,-5.0,-4.0,-2.0
1701873947.5088737,3.0,8.0,8.0,-3.0,-8.0,-2.0,0.0,5.0
1701873947.5088737,-8.0,-8.0,8.0,-1.0,-11.0,-8.0,-4.0,-5.0
1701873947.5088737,0.0,12.0,4.0,5.0,3.0,-1.0,0.0,0.0
1701873947.5088737,1.0,-23.0,-16.0,-10.0,-2.0,3.0,3.0,1.0
1701873947.5088737,-1.0,11.0,0.0,4.0,4.0,1.0,-2.0,-1.0
1701873947.5088737,5.0,-2.0,-1.0,-2.0,-5.0,3.0,4.0,4.0
1701873947.5487926,-5.0,-4.0,6.0,5.0,7.0,-2.0,-1.0,-3.0
1701873947.5511575,9.0,22.0,-1.0,2.0,-1.0,-2.0,-2.0,2.0
1701873947.5669847,-2.0,-15.0,-4.0,-2.0,-3.0,-1.0,1.0,0.0
1701873947.5669847,-13.0,-23.0,-12.0,-8.0,-7.0,-5.0,-1.0,-5.0
1701873947.5669847,1.0,-8.0,1.0,-6.0,-10.0,1.0,-2.0,-1.0
1701873947.5669847,10.0,15.0,1.0,3.0,1.0,-3.0,-3.0,-4.0
1701873947.5669847,-13.0,-21.0,3.0,-1.0,-7.0,-8.0,-5.0,-3.0
1701873947.5669847,1.0,10.0,-10.0,4.0,9.0,12.0,5.0,2.0
1701873947.5705502,-6.0,-6.0,3.0,1.0,4.0,6.0,2.0,1.0
1701873947.5705502,-4.0,-10.0,-3.0,-3.0,0.0,1.0,-3.0,-2.0
1701873947.5705502,6.0,-7.0,-6.0,-4.0,-6.0,2.0,3.0,3.0
1701873947.5705502,6.0,22.0,2.0,-7.0,7.0,-1.0,-1.0,0.0
1701873947.6101878,-5.0,-2.0,0.0,3.0,-2.0,-6.0,3.0,3.0
1701873947.6101878,-2.0,11.0,4.0,4.0,-2.0,-6.0,-5.0,-2.0
1701873947.6101878,1.0,-8.0,-15.0,-5.0,-7.0,-6.0,-4.0,0.0
1701873947.6101878,7.0,18.0,13.0,2.0,-5.0,-1.0,-1.0,5.0
1701873947.6101878,-3.0,-11.0,3.0,-6.0,-11.0,-15.0,-11.0,-11.0
1701873947.6101878,-7.0,-21.0,-5.0,4.0,9.0,14.0,11.0,2.0
1701873947.6101878,-1.0,9.0,-4.0,0.0,1.0,2.0,1.0,0.0
1701873947.6101878,12.0,25.0,28.0,16.0,6.0,0.0,3.0,8.0
1701873947.6194444,-14.0,-15.0,-20.0,-8.0,-7.0,-3.0,-12.0,-18.0
1701873947.6194444,-3.0,-6.0,-8.0,-1.0,4.0,4.0,3.0,1.0
1701873947.6212425,-2.0,-2.0,0.0,-3.0,-2.0,-2.0,-1.0,0.0
1701873947.6212425,-7.0,-17.0,-20.0,-16.0,-2.0,-1.0,0.0,-3.0
1701873947.6577728,9.0,15.0,14.0,2.0,1.0,10.0,2.0,4.0
1701873947.6577728,0.0,-5.0,2.0,1.0,0.0,-1.0,-1.0,-2.0
1701873947.6577728,-3.0,5.0,-3.0,3.0,5.0,1.0,-1.0,-3.0
1701873947.6577728,0.0,-8.0,-2.0,-2.0,-7.0,-3.0,-2.0,-3.0
1701873947.659552,-6.0,-15.0,-6.0,2.0,0.0,3.0,0.0,-5.0
1701873947.6605504,1.0,-5.0,-1.0,2.0,3.0,-1.0,2.0,15.0
1701873947.6677434,-6.0,-6.0,14.0,3.0,0.0,-6.0,-11.0,-24.0
1701873947.6677434,-9.0,-15.0,-3.0,1.0,-13.0,-9.0,-12.0,-14.0
1701873947.6714413,8.0,26.0,6.0,5.0,-6.0,-10.0,-5.0,3.0
1701873947.6714413,2.0,4.0,-13.0,-17.0,2.0,9.0,8.0,15.0
1701873947.68089,2.0,-8.0,-4.0,3.0,5.0,3.0,4.0,6.0
1701873947.68089,-2.0,5.0,1.0,-7.0,-3.0,2.0,-4.0,-7.0
1701873947.716701,-18.0,-18.0,-8.0,-5.0,-7.0,-10.0,-15.0,-21.0
1701873947.716701,3.0,-5.0,-2.0,8.0,7.0,-1.0,3.0,-2.0
1701873947.716701,12.0,15.0,-6.0,-1.0,9.0,7.0,5.0,12.0
1701873947.716701,-5.0,13.0,9.0,3.0,3.0,-5.0,-1.0,-3.0
1701873947.716701,6.0,-4.0,0.0,1.0,3.0,5.0,3.0,12.0
1701873947.716701,-6.0,-3.0,3.0,-4.0,-17.0,-15.0,-13.0,-11.0
1701873947.716701,-2.0,1.0,-10.0,-5.0,-8.0,-2.0,2.0,1.0
1701873947.716701,0.0,-9.0,0.0,4.0,9.0,7.0,2.0,6.0
1701873947.7652767,-1.0,22.0,3.0,2.0,2.0,0.0,-1.0,-11.0
1701873947.7652767,-7.0,-2.0,11.0,8.0,3.0,-5.0,-8.0,-13.0
1701873947.7652767,1.0,-1.0,-12.0,-11.0,-6.0,-4.0,-4.0,-1.0
1701873947.7652767,3.0,-5.0,-9.0,-7.0,-12.0,-14.0,-4.0,3.0
1701873947.7652767,-2.0,-27.0,0.0,-5.0,-3.0,3.0,8.0,6.0
1701873947.7652767,1.0,4.0,-13.0,-8.0,10.0,14.0,3.0,-5.0
1701873947.7652767,1.0,-4.0,-1.0,2.0,-1.0,-7.0,-4.0,1.0
1701873947.7652767,-17.0,-4.0,15.0,7.0,4.0,7.0,2.0,-2.0
1701873947.76628,2.0,8.0,-4.0,-5.0,-1.0,-1.0,-2.0,1.0
1701873947.76628,0.0,2.0,-5.0,1.0,-9.0,-8.0,-6.0,-3.0
1701873947.7776797,-5.0,-10.0,6.0,-4.0,-3.0,0.0,0.0,-3.0
1701873947.7776797,4.0,-3.0,-8.0,4.0,11.0,8.0,5.0,2.0
1701873947.8304472,2.0,-10.0,-8.0,0.0,1.0,0.0,4.0,3.0
1701873947.8304472,-6.0,-10.0,-4.0,-5.0,-5.0,-3.0,-4.0,-5.0
1701873947.8304472,-8.0,-7.0,17.0,5.0,-6.0,-9.0,-5.0,-5.0
1701873947.8304472,-5.0,-35.0,-23.0,-18.0,-6.0,0.0,-2.0,-4.0
1701873947.8304472,5.0,-8.0,-8.0,-6.0,-5.0,-1.0,-1.0,4.0
1701873947.8304472,-6.0,-3.0,-6.0,-4.0,-4.0,-8.0,-4.0,-2.0
1701873947.8304472,0.0,10.0,11.0,13.0,2.0,2.0,-1.0,-1.0
1701873947.8304472,3.0,0.0,-11.0,-3.0,-3.0,1.0,4.0,3.0
1701873947.8315573,0.0,-6.0,10.0,7.0,4.0,1.0,-1.0,0.0
1701873947.8315573,0.0,3.0,-2.0,-4.0,-6.0,2.0,1.0,-3.0
1701873947.8432355,-9.0,2.0,-5.0,-5.0,0.0,-4.0,-5.0,-6.0
1701873947.8432355,2.0,6.0,4.0,7.0,-3.0,-11.0,-5.0,-2.0
1701873947.8984897,-3.0,3.0,-21.0,-12.0,4.0,9.0,4.0,2.0
1701873947.8984897,9.0,28.0,16.0,0.0,-1.0,-2.0,-1.0,1.0
1701873947.899546,-3.0,-10.0,16.0,5.0,4.0,4.0,1.0,1.0
1701873947.899546,-3.0,-13.0,-21.0,-4.0,-12.0,-11.0,-10.0,-5.0
1701873947.9026709,-4.0,7.0,9.0,-6.0,-10.0,-6.0,-3.0,-1.0
1701873947.9026709,8.0,22.0,4.0,12.0,13.0,7.0,4.0,6.0
1701873947.9026709,2.0,-6.0,-13.0,-7.0,6.0,8.0,5.0,4.0
1701873947.9026709,-5.0,-6.0,-2.0,-3.0,3.0,3.0,1.0,-3.0
1701873947.9026709,0.0,2.0,2.0,-2.0,-6.0,-9.0,-5.0,-3.0
1701873947.9026709,-4.0,-7.0,-5.0,-2.0,0.0,0.0,-1.0,-1.0
1701873947.9046364,9.0,8.0,13.0,5.0,2.0,4.0,3.0,2.0
1701873947.9046364,-8.0,3.0,1.0,-4.0,4.0,4.0,4.0,-3.0
1701873947.9160075,10.0,19.0,9.0,11.0,5.0,2.0,2.0,0.0
1701873947.9160075,-19.0,-18.0,-9.0,-6.0,-4.0,-5.0,-4.0,-6.0
1701873947.9215114,0.0,-34.0,-15.0,-3.0,-1.0,5.0,1.0,2.0
1701873947.9215114,-2.0,-15.0,-4.0,-1.0,-7.0,-6.0,-3.0,-2.0
1701873947.9687493,-2.0,3.0,14.0,-5.0,-7.0,-4.0,-3.0,-2.0
1701873947.9687493,0.0,-21.0,-25.0,-2.0,1.0,2.0,5.0,2.0
1701873947.9687493,1.0,4.0,-10.0,-8.0,5.0,2.0,-1.0,-1.0
1701873947.96975,-1.0,-7.0,5.0,2.0,-8.0,-15.0,-10.0,-5.0
1701873947.96975,-4.0,7.0,5.0,2.0,5.0,8.0,-1.0,-4.0
1701873947.96975,-3.0,-21.0,3.0,1.0,-8.0,-11.0,-13.0,-10.0
1701873947.96975,5.0,30.0,3.0,2.0,6.0,9.0,4.0,4.0
1701873947.96975,-2.0,-29.0,9.0,11.0,4.0,0.0,-1.0,0.0
1701873948.003826,3.0,14.0,-2.0,-9.0,-7.0,-6.0,-3.0,2.0
1701873948.004826,-6.0,-9.0,2.0,-5.0,-2.0,0.0,0.0,-2.0
1701873948.004826,-6.0,1.0,-1.0,0.0,-6.0,-10.0,-6.0,-5.0
1701873948.004826,4.0,13.0,0.0,4.0,2.0,3.0,0.0,3.0
1701873948.004826,5.0,23.0,4.0,-3.0,-3.0,2.0,2.0,3.0
1701873948.004826,-12.0,-5.0,7.0,2.0,-4.0,-4.0,-5.0,-2.0
1701873948.004826,19.0,45.0,11.0,-7.0,0.0,-1.0,2.0,3.0
1701873948.004826,3.0,11.0,13.0,10.0,8.0,7.0,5.0,1.0
1701873948.0158448,-13.0,-20.0,-25.0,-10.0,2.0,1.0,2.0,-5.0
1701873948.0158448,-6.0,8.0,8.0,-2.0,-6.0,-5.0,0.0,6.0
1701873948.0253294,0.0,-1.0,-15.0,-2.0,-5.0,-3.0,3.0,0.0
1701873948.0253294,14.0,8.0,2.0,15.0,5.0,4.0,1.0,4.0
1701873948.0642178,-9.0,-25.0,-10.0,-9.0,7.0,8.0,3.0,-3.0
1701873948.0642178,2.0,34.0,1.0,-9.0,-1.0,-7.0,-6.0,-5.0
1701873948.0665548,-14.0,-32.0,-8.0,7.0,-7.0,-10.0,-8.0,-7.0
1701873948.0665548,3.0,-1.0,-17.0,-24.0,-8.0,-4.0,0.0,-1.0
1701873948.0665548,2.0,-19.0,7.0,20.0,-1.0,-10.0,-4.0,0.0
1701873948.0665548,-3.0,-39.0,-19.0,-16.0,-7.0,-1.0,-4.0,-8.0
1701873948.0665548,-5.0,-3.0,-2.0,-3.0,1.0,3.0,3.0,2.0
1701873948.0665548,11.0,74.0,29.0,5.0,0.0,2.0,10.0,10.0
1701873948.0792983,-7.0,-96.0,-31.0,16.0,7.0,-1.0,-4.0,8.0
1701873948.0792983,-1.0,58.0,7.0,-14.0,-6.0,-6.0,-6.0,-10.0
1701873948.1192656,-20.0,-36.0,-8.0,-9.0,-5.0,-10.0,-5.0,-20.0
1701873948.1192656,-32.0,-67.0,-12.0,-9.0,-10.0,-11.0,-32.0,-23.0
1701873948.1192656,30.0,69.0,28.0,11.0,3.0,4.0,16.0,19.0
1701873948.1192656,-1.0,-31.0,-1.0,11.0,7.0,6.0,15.0,15.0
1701873948.1192656,20.0,70.0,5.0,-8.0,7.0,11.0,8.0,8.0
1701873948.1192656,-14.0,-29.0,-33.0,-21.0,-9.0,-10.0,-2.0,-10.0
1701873948.1203444,3.0,47.0,49.0,14.0,-6.0,-4.0,-3.0,-6.0
1701873948.1203444,2.0,-3.0,4.0,19.0,4.0,1.0,-3.0,0.0
1701873948.1237326,46.0,104.0,18.0,-14.0,0.0,13.0,6.0,23.0
1701873948.1237326,-16.0,-48.0,-11.0,-5.0,2.0,-3.0,3.0,-1.0
1701873948.137419,-13.0,-24.0,-9.0,-5.0,-4.0,-3.0,-4.0,-8.0
1701873948.1384177,9.0,8.0,-3.0,2.0,3.0,5.0,2.0,2.0
1701873948.186253,-3.0,16.0,21.0,22.0,2.0,-12.0,-4.0,-7.0
1701873948.186253,15.0,13.0,-18.0,-9.0,1.0,20.0,12.0,18.0
1701873948.186253,-29.0,-97.0,-21.0,-14.0,-10.0,-15.0,-12.0,-15.0
1701873948.186253,2.0,63.0,27.0,9.0,2.0,-6.0,-1.0,-5.0
1701873948.186253,-33.0,-39.0,-19.0,-17.0,-9.0,-8.0,-12.0,-16.0
1701873948.186253,18.0,48.0,22.0,11.0,3.0,-2.0,1.0,14.0
1701873948.186253,13.0,60.0,16.0,4.0,4.0,6.0,8.0,5.0
1701873948.186253,3.0,-11.0,25.0,5.0,0.0,0.0,-2.0,1.0
1701873948.186253,-5.0,-15.0,-26.0,2.0,0.0,-2.0,-4.0,1.0
1701873948.186253,-23.0,-12.0,-5.0,-10.0,-5.0,-6.0,0.0,-11.0
1701873948.1971462,23.0,49.0,-15.0,1.0,0.0,0.0,-3.0,7.0
1701873948.1971462,-9.0,5.0,-3.0,-15.0,-16.0,-17.0,-17.0,-21.0
1701873948.2472951,1.0,0.0,3.0,1.0,-3.0,-2.0,-2.0,1.0
1701873948.247673,-8.0,-14.0,-14.0,-6.0,-1.0,3.0,2.0,-1.0
1701873948.2486758,-1.0,-49.0,-9.0,-9.0,-2.0,2.0,-1.0,-2.0
1701873948.2486758,-7.0,-21.0,2.0,18.0,10.0,5.0,3.0,2.0
1701873948.2486758,-19.0,-77.0,-15.0,-17.0,-7.0,-6.0,-4.0,-5.0
1701873948.2486758,16.0,38.0,5.0,1.0,2.0,0.0,-3.0,-2.0
1701873948.2743523,-4.0,33.0,14.0,-3.0,-1.0,-5.0,-5.0,-4.0
1701873948.275588,1.0,-32.0,-19.0,-4.0,-2.0,4.0,6.0,5.0
1701873948.2808306,7.0,1.0,2.0,8.0,1.0,-3.0,1.0,1.0
1701873948.2808306,6.0,5.0,1.0,-1.0,3.0,-3.0,-5.0,1.0
1701873948.2808306,5.0,5.0,-1.0,-5.0,-5.0,-2.0,1.0,16.0
1701873948.2808306,-12.0,-48.0,-11.0,-3.0,-3.0,-1.0,-3.0,-17.0
1701873948.2808306,7.0,14.0,10.0,9.0,2.0,1.0,-1.0,3.0
1701873948.2808306,10.0,41.0,10.0,-8.0,-3.0,-3.0,0.0,-4.0
1701873948.2808306,-18.0,-8.0,-18.0,-6.0,-2.0,-2.0,-5.0,-14.0
1701873948.281887,-2.0,5.0,-9.0,-8.0,-2.0,2.0,-1.0,-1.0
1701873948.281887,0.0,-24.0,-1.0,0.0,-6.0,-2.0,-4.0,7.0
1701873948.281887,-10.0,6.0,2.0,3.0,4.0,5.0,4.0,1.0
1701873948.3218625,17.0,61.0,18.0,6.0,2.0,1.0,1.0,3.0
1701873948.3218625,-2.0,8.0,-5.0,-8.0,-5.0,-5.0,-1.0,1.0
1701873948.3321466,-7.0,-6.0,-7.0,-2.0,1.0,2.0,-1.0,-12.0
1701873948.3321466,24.0,46.0,6.0,9.0,6.0,11.0,7.0,14.0
1701873948.3321466,-1.0,11.0,15.0,5.0,5.0,3.0,3.0,-1.0
1701873948.3332074,0.0,22.0,18.0,0.0,2.0,2.0,7.0,21.0
1701873948.3332074,0.0,-7.0,5.0,7.0,-3.0,-8.0,-6.0,-11.0
1701873948.3332074,11.0,-6.0,-13.0,-6.0,-5.0,-9.0,-4.0,-9.0
1701873948.3332074,-8.0,-42.0,-32.0,-14.0,-10.0,-2.0,-2.0,-8.0
1701873948.3332074,7.0,3.0,7.0,-2.0,3.0,5.0,6.0,3.0
1701873948.3454294,-13.0,-14.0,-4.0,5.0,0.0,-4.0,-3.0,1.0
1701873948.3467898,-11.0,-20.0,0.0,-4.0,-4.0,-2.0,-3.0,-5.0
1701873948.382352,1.0,12.0,-9.0,2.0,-1.0,-1.0,1.0,-4.0
1701873948.383355,11.0,6.0,-12.0,-4.0,2.0,1.0,4.0,9.0
1701873948.383355,-6.0,-7.0,-15.0,-19.0,-3.0,1.0,-2.0,-6.0
1701873948.383355,0.0,-2.0,34.0,13.0,-9.0,-7.0,-1.0,0.0
1701873948.383355,-40.0,-54.0,-3.0,14.0,-4.0,-10.0,-9.0,-17.0
1701873948.383355,16.0,-4.0,-10.0,4.0,4.0,0.0,-3.0,1.0
1701873948.3858695,15.0,13.0,-24.0,-34.0,-4.0,0.0,2.0,2.0
1701873948.3858695,-6.0,-5.0,-16.0,-9.0,0.0,1.0,-2.0,-4.0
1701873948.3998244,1.0,13.0,16.0,6.0,-2.0,-3.0,-2.0,4.0
1701873948.3998244,19.0,71.0,26.0,25.0,6.0,1.0,1.0,-2.0
1701873948.4074748,-2.0,-4.0,13.0,16.0,11.0,7.0,9.0,15.0
1701873948.4085972,-15.0,-25.0,8.0,-22.0,-10.0,-4.0,-6.0,-15.0
1701873948.4371116,5.0,16.0,-10.0,-7.0,-10.0,-4.0,-6.0,-1.0
1701873948.4371116,-5.0,-6.0,6.0,14.0,0.0,-4.0,-3.0,-10.0
1701873948.4371116,-2.0,-16.0,-30.0,-27.0,-1.0,3.0,3.0,4.0
1701873948.4371116,-13.0,1.0,16.0,20.0,12.0,4.0,11.0,10.0
1701873948.4381654,8.0,0.0,17.0,-2.0,-5.0,-8.0,-3.0,5.0
1701873948.4381654,-9.0,4.0,-14.0,-1.0,-10.0,-6.0,-9.0,-10.0
1701873948.4459004,-18.0,-33.0,-16.0,2.0,-3.0,-1.0,1.0,-9.0
1701873948.4459004,-1.0,-37.0,-22.0,-8.0,-2.0,-1.0,3.0,11.0
1701873948.4572644,-4.0,0.0,-3.0,-5.0,-4.0,-3.0,6.0,6.0
1701873948.4587612,-5.0,-14.0,9.0,0.0,-3.0,-5.0,-14.0,-10.0
1701873948.488649,-4.0,0.0,8.0,12.0,-3.0,-6.0,-4.0,5.0
1701873948.488649,3.0,5.0,-8.0,-7.0,5.0,4.0,0.0,-7.0
1701873948.4975893,7.0,0.0,-5.0,-8.0,5.0,5.0,3.0,6.0
1701873948.4975893,-9.0,-27.0,-12.0,-16.0,-5.0,-5.0,-5.0,-9.0
1701873948.4975893,1.0,6.0,10.0,6.0,-11.0,-7.0,-3.0,0.0
1701873948.4975893,1.0,17.0,-2.0,21.0,5.0,0.0,-3.0,-3.0
1701873948.498647,6.0,14.0,1.0,-4.0,9.0,8.0,3.0,2.0
1701873948.498647,-7.0,-16.0,-14.0,-11.0,4.0,5.0,2.0,2.0
1701873948.506457,5.0,12.0,30.0,20.0,6.0,2.0,0.0,-6.0
1701873948.506457,2.0,-17.0,1.0,-7.0,-15.0,-14.0,-5.0,4.0
1701873948.515855,-5.0,24.0,-36.0,-31.0,-8.0,-3.0,-7.0,-14.0
1701873948.515855,-6.0,-28.0,-4.0,-3.0,-5.0,-3.0,1.0,6.0
1701873948.5261106,0.0,-2.0,11.0,0.0,-7.0,-5.0,-2.0,-3.0
1701873948.5271068,-1.0,-13.0,-18.0,-10.0,-6.0,-1.0,-3.0,-1.0
1701873948.57356,-3.0,-17.0,-20.0,-8.0,13.0,7.0,1.0,-1.0
1701873948.57356,3.0,29.0,10.0,8.0,9.0,5.0,1.0,1.0
1701873948.57356,12.0,41.0,25.0,18.0,-2.0,-4.0,-3.0,4.0
1701873948.57356,-7.0,-12.0,-10.0,5.0,-9.0,-4.0,-6.0,-6.0
1701873948.57356,-6.0,-23.0,6.0,0.0,7.0,0.0,-3.0,-5.0
1701873948.57356,4.0,2.0,-16.0,-10.0,4.0,6.0,2.0,5.0
1701873948.57356,-3.0,-8.0,2.0,2.0,6.0,4.0,2.0,0.0
1701873948.57356,1.0,9.0,9.0,3.0,0.0,-3.0,-3.0,-2.0
1701873948.5753045,0.0,8.0,-1.0,5.0,-7.0,-2.0,-3.0,-3.0
1701873948.5753045,-4.0,-16.0,-5.0,-2.0,-10.0,-7.0,-3.0,0.0
1701873948.609766,-2.0,3.0,2.0,0.0,-4.0,-5.0,-6.0,-2.0
1701873948.6105819,-4.0,5.0,4.0,-3.0,-1.0,-2.0,-3.0,-1.0
1701873948.6335897,8.0,7.0,-1.0,-8.0,-2.0,-3.0,1.0,4.0
1701873948.6335897,1.0,18.0,-1.0,1.0,6.0,4.0,5.0,1.0
1701873948.6335897,3.0,16.0,4.0,0.0,6.0,6.0,0.0,-5.0
1701873948.6335897,-9.0,7.0,-10.0,-2.0,5.0,1.0,0.0,-4.0
1701873948.6335897,-3.0,-2.0,5.0,17.0,-1.0,-3.0,-4.0,-5.0
1701873948.6335897,-18.0,-53.0,-3.0,-24.0,-24.0,-15.0,-7.0,-7.0
1701873948.6335897,3.0,6.0,-18.0,-8.0,1.0,3.0,-1.0,0.0
1701873948.6335897,5.0,3.0,6.0,17.0,6.0,4.0,2.0,0.0
1701873948.6714582,-14.0,-23.0,9.0,15.0,1.0,-2.0,-2.0,-4.0
1701873948.6714582,-4.0,11.0,-19.0,-28.0,5.0,5.0,3.0,1.0
1701873948.6714582,1.0,-39.0,-16.0,-2.0,-3.0,-5.0,-5.0,-1.0
1701873948.6714582,-7.0,-12.0,9.0,-1.0,5.0,2.0,0.0,-1.0
1701873948.6714582,0.0,-1.0,0.0,10.0,-3.0,-2.0,2.0,2.0
1701873948.6714582,7.0,7.0,4.0,10.0,-2.0,-2.0,-4.0,-2.0
1701873948.6714582,-19.0,-11.0,-9.0,-8.0,-3.0,-7.0,-5.0,-7.0
1701873948.6714582,14.0,-1.0,-9.0,-7.0,3.0,5.0,-3.0,-3.0
1701873948.6850634,1.0,26.0,20.0,2.0,-9.0,-5.0,0.0,-3.0
1701873948.6850634,3.0,-12.0,-5.0,4.0,-1.0,3.0,3.0,5.0
1701873948.6860719,0.0,44.0,34.0,17.0,1.0,-4.0,1.0,0.0
1701873948.6860719,-3.0,-12.0,-26.0,-18.0,-4.0,-2.0,1.0,0.0
1701873948.7224765,3.0,20.0,1.0,-12.0,-4.0,-3.0,-4.0,0.0
1701873948.7224765,-7.0,-14.0,5.0,7.0,-4.0,-3.0,-4.0,-3.0
1701873948.7224765,8.0,5.0,-4.0,-6.0,2.0,6.0,6.0,3.0
1701873948.7224765,1.0,7.0,13.0,7.0,8.0,5.0,-2.0,-3.0
1701873948.7224765,-3.0,-8.0,-13.0,-3.0,-1.0,-3.0,-3.0,-3.0
1701873948.7224765,7.0,33.0,31.0,6.0,-2.0,-5.0,-1.0,2.0
1701873948.7235043,2.0,-10.0,-27.0,-6.0,4.0,7.0,0.0,2.0
1701873948.7235043,-16.0,-21.0,3.0,-8.0,-5.0,-6.0,-7.0,-9.0
1701873948.7362442,-4.0,-25.0,-7.0,-12.0,-1.0,0.0,-2.0,0.0
1701873948.7362442,4.0,13.0,14.0,12.0,-3.0,-1.0,-1.0,0.0
1701873948.745991,5.0,28.0,5.0,5.0,0.0,-1.0,0.0,1.0
1701873948.745991,-15.0,-81.0,-10.0,6.0,0.0,-4.0,0.0,0.0
1701873948.8016164,-3.0,3.0,-12.0,-8.0,-5.0,-6.0,-4.0,-1.0
1701873948.8016164,-1.0,-7.0,12.0,13.0,9.0,6.0,4.0,1.0
1701873948.8016164,-4.0,-8.0,-5.0,-11.0,2.0,-1.0,-2.0,-3.0
1701873948.8016164,14.0,33.0,-5.0,1.0,-8.0,-8.0,-4.0,-2.0
1701873948.8073485,-7.0,0.0,0.0,-6.0,0.0,-3.0,0.0,-2.0
1701873948.8083522,4.0,-6.0,-13.0,-1.0,-2.0,-1.0,-1.0,2.0
1701873948.8083522,-11.0,-57.0,4.0,-1.0,3.0,0.0,1.0,3.0
1701873948.8083522,-1.0,19.0,10.0,-1.0,-3.0,-1.0,-3.0,-12.0
1701873948.8083522,8.0,0.0,-11.0,6.0,4.0,2.0,1.0,3.0
1701873948.8083522,5.0,25.0,7.0,-7.0,1.0,2.0,0.0,1.0
1701873948.8083522,-13.0,-23.0,-21.0,-9.0,-8.0,-6.0,-6.0,-6.0
1701873948.8083522,7.0,14.0,11.0,12.0,2.0,-5.0,2.0,3.0
1701873948.8544843,3.0,2.0,2.0,-15.0,-16.0,-10.0,-9.0,-7.0
1701873948.8544843,0.0,-10.0,-24.0,-13.0,2.0,4.0,1.0,0.0
1701873948.8581977,13.0,48.0,20.0,2.0,10.0,8.0,5.0,4.0
1701873948.8581977,-11.0,-1.0,-11.0,-7.0,-6.0,-3.0,-4.0,-2.0
1701873948.8581977,4.0,4.0,24.0,20.0,3.0,2.0,4.0,2.0
1701873948.8581977,-2.0,-15.0,-34.0,-12.0,-9.0,-4.0,-3.0,-2.0
1701873948.8581977,7.0,-8.0,5.0,-1.0,2.0,2.0,1.0,1.0
1701873948.8581977,5.0,13.0,6.0,1.0,4.0,6.0,8.0,8.0
1701873948.8960412,11.0,13.0,18.0,20.0,2.0,-2.0,-2.0,-1.0
1701873948.8960412,-7.0,-16.0,-11.0,-11.0,-8.0,-11.0,-11.0,-8.0
1701873948.8960412,-7.0,-9.0,-8.0,-3.0,-3.0,0.0,-1.0,-4.0
1701873948.8960412,6.0,17.0,5.0,-2.0,-3.0,4.0,1.0,3.0
1701873948.8960412,6.0,-2.0,0.0,-6.0,5.0,3.0,4.0,-1.0
1701873948.8960412,8.0,33.0,12.0,7.0,2.0,-2.0,1.0,2.0
1701873948.8970888,1.0,-10.0,-14.0,-4.0,-8.0,-6.0,-5.0,-3.0
1701873948.8970888,0.0,0.0,-3.0,-9.0,2.0,2.0,-3.0,3.0
1701873948.8981695,4.0,-2.0,-2.0,3.0,-7.0,0.0,1.0,1.0
1701873948.8981695,-12.0,31.0,9.0,3.0,10.0,4.0,0.0,-3.0
1701873948.9034448,2.0,40.0,-1.0,1.0,-11.0,-7.0,0.0,1.0
1701873948.9034448,-14.0,7.0,-4.0,-11.0,-7.0,-4.0,-7.0,-10.0
1701873948.92494,-20.0,-11.0,2.0,6.0,11.0,5.0,-3.0,-10.0
1701873948.92494,0.0,2.0,22.0,15.0,-6.0,-9.0,0.0,2.0
1701873948.9259784,-9.0,-19.0,-10.0,-17.0,0.0,1.0,4.0,4.0
1701873948.9259784,-5.0,-11.0,3.0,4.0,1.0,3.0,7.0,8.0
1701873948.938895,27.0,91.0,-8.0,-4.0,-1.0,3.0,-4.0,-1.0
1701873948.938895,-27.0,-101.0,-10.0,-7.0,2.0,-2.0,-17.0,-21.0
1701873948.9853008,6.0,43.0,29.0,19.0,-1.0,-3.0,2.0,3.0
1701873948.9858053,14.0,18.0,-6.0,-4.0,-2.0,2.0,1.0,4.0
1701873948.9858053,-17.0,-16.0,-2.0,-2.0,-3.0,-1.0,9.0,9.0
1701873948.9858053,12.0,20.0,8.0,16.0,-1.0,1.0,-1.0,5.0
1701873948.9858053,-20.0,-47.0,-27.0,-23.0,4.0,4.0,-1.0,-4.0
1701873948.9858053,26.0,-6.0,4.0,-9.0,-10.0,-9.0,-10.0,-15.0
1701873949.031662,-54.0,0.0,17.0,10.0,2.0,4.0,14.0,15.0
1701873949.031662,58.0,32.0,-18.0,-6.0,4.0,3.0,-13.0,-8.0
1701873949.031662,-63.0,-57.0,0.0,10.0,-3.0,-16.0,-15.0,-25.0
1701873949.031662,11.0,2.0,25.0,32.0,3.0,-4.0,7.0,9.0
1701873949.0354729,6.0,-11.0,-33.0,-27.0,-12.0,-11.0,-9.0,-11.0
1701873949.0354729,-21.0,-59.0,-25.0,-22.0,-9.0,4.0,26.0,19.0
1701873949.0354729,21.0,43.0,4.0,-5.0,2.0,4.0,1.0,6.0
1701873949.0354729,-22.0,-14.0,4.0,4.0,2.0,-3.0,-10.0,-7.0
1701873949.0354729,18.0,7.0,22.0,11.0,6.0,-2.0,-5.0,-2.0
1701873949.0354729,-36.0,3.0,-14.0,-6.0,-5.0,-7.0,-2.0,4.0
1701873949.0354729,39.0,48.0,30.0,8.0,-4.0,-4.0,-7.0,-6.0
1701873949.0354729,-4.0,-24.0,-25.0,-14.0,-3.0,1.0,9.0,18.0
1701873949.0364769,-21.0,-39.0,-3.0,9.0,6.0,-1.0,-11.0,-21.0
1701873949.0364769,0.0,27.0,14.0,-5.0,-1.0,-1.0,-5.0,-9.0
1701873949.0464714,-17.0,-32.0,-28.0,-10.0,0.0,-1.0,-3.0,-17.0
1701873949.0464714,-7.0,11.0,34.0,19.0,-11.0,-4.0,2.0,8.0
1701873949.0931218,23.0,15.0,-9.0,-13.0,-3.0,1.0,14.0,22.0
1701873949.0931218,21.0,25.0,3.0,10.0,8.0,6.0,10.0,18.0
1701873949.0931218,4.0,-23.0,-10.0,-2.0,2.0,1.0,-8.0,-12.0
1701873949.0931218,-4.0,21.0,0.0,-5.0,7.0,6.0,-2.0,-15.0
1701873949.0931218,26.0,17.0,-16.0,3.0,-9.0,-6.0,-4.0,17.0
1701873949.0931218,-34.0,-48.0,-9.0,-9.0,-14.0,-8.0,-1.0,-3.0
1701873949.0931218,19.0,24.0,-24.0,-13.0,-2.0,2.0,5.0,14.0
1701873949.0931218,-24.0,-32.0,-6.0,-7.0,7.0,3.0,-11.0,-28.0
1701873949.1282115,-28.0,-35.0,10.0,6.0,-12.0,-12.0,-5.0,-10.0
1701873949.1282115,8.0,19.0,6.0,6.0,-3.0,-9.0,-7.0,-2.0
1701873949.1282115,1.0,53.0,24.0,-10.0,-4.0,4.0,0.0,4.0
1701873949.1282115,2.0,-7.0,-23.0,-4.0,12.0,1.0,2.0,5.0
1701873949.1282115,7.0,14.0,6.0,-1.0,12.0,11.0,2.0,-7.0
1701873949.1282115,2.0,-10.0,2.0,10.0,12.0,3.0,3.0,0.0
1701873949.1340961,6.0,20.0,30.0,15.0,-8.0,-3.0,4.0,10.0
1701873949.1340961,-5.0,-13.0,-27.0,-19.0,-9.0,-5.0,-6.0,-8.0
1701873949.1539302,3.0,5.0,9.0,5.0,-9.0,-13.0,-9.0,-8.0
1701873949.155302,-13.0,-72.0,-27.0,13.0,8.0,8.0,6.0,-7.0
1701873949.175915,5.0,34.0,19.0,-15.0,-5.0,0.0,4.0,4.0
1701873949.175915,4.0,31.0,-9.0,-4.0,-5.0,-8.0,-8.0,10.0
1701873949.1812077,-1.0,10.0,2.0,-3.0,11.0,18.0,5.0,-4.0
1701873949.1812077,4.0,24.0,32.0,8.0,-2.0,-5.0,-10.0,-16.0
1701873949.1812077,-9.0,-80.0,-63.0,-3.0,-4.0,-18.0,-5.0,11.0
1701873949.1812077,-11.0,5.0,-18.0,-24.0,-18.0,-32.0,-34.0,-24.0
1701873949.1812077,8.0,-15.0,16.0,-3.0,2.0,13.0,8.0,1.0
1701873949.1812077,11.0,30.0,23.0,7.0,1.0,13.0,16.0,8.0
1701873949.1822438,-17.0,-38.0,-52.0,-12.0,-26.0,-25.0,-25.0,-17.0
1701873949.1822438,17.0,48.0,4.0,4.0,27.0,23.0,19.0,10.0
1701873949.21215,0.0,-16.0,-1.0,-31.0,1.0,-2.0,-7.0,-5.0
1701873949.2131507,0.0,16.0,-26.0,-15.0,-12.0,-13.0,-8.0,-2.0
1701873949.2364445,2.0,-1.0,28.0,23.0,7.0,13.0,14.0,4.0
1701873949.2364445,-8.0,-20.0,20.0,19.0,-9.0,-8.0,-1.0,-1.0
1701873949.2364445,-15.0,-19.0,6.0,6.0,-2.0,-2.0,-3.0,-9.0
1701873949.2364445,11.0,37.0,-6.0,-10.0,2.0,0.0,3.0,8.0
1701873949.2364445,-4.0,-10.0,3.0,9.0,2.0,0.0,-5.0,-4.0
1701873949.2364445,-11.0,-23.0,-8.0,-25.0,-10.0,-4.0,3.0,3.0
1701873949.2654748,0.0,-20.0,-10.0,4.0,-1.0,-4.0,-3.0,-1.0
1701873949.2664728,-9.0,18.0,5.0,-1.0,-7.0,-6.0,-6.0,-2.0
1701873949.277359,11.0,1.0,-2.0,-5.0,-1.0,1.0,2.0,1.0
1701873949.277359,6.0,21.0,3.0,7.0,7.0,11.0,2.0,3.0
1701873949.277359,0.0,-21.0,-13.0,-8.0,-8.0,-8.0,-3.0,-2.0
1701873949.277359,0.0,2.0,1.0,11.0,0.0,-1.0,-5.0,3.0
1701873949.277359,-5.0,-10.0,8.0,8.0,17.0,9.0,5.0,-2.0
1701873949.277359,1.0,-16.0,-7.0,-2.0,2.0,2.0,8.0,13.0
1701873949.2783604,4.0,48.0,0.0,-6.0,-7.0,-11.0,-10.0,-17.0
1701873949.2783604,7.0,2.0,-9.0,-3.0,-2.0,-1.0,3.0,18.0
1701873949.2859087,-7.0,-24.0,6.0,-18.0,-8.0,-2.0,-5.0,-6.0
1701873949.2859087,-26.0,-17.0,20.0,8.0,-1.0,-3.0,-6.0,-15.0
1701873949.3259828,3.0,-6.0,-25.0,-4.0,-1.0,1.0,5.0,15.0
1701873949.327417,-5.0,6.0,23.0,2.0,0.0,-4.0,-8.0,-12.0
1701873949.3507195,-5.0,-21.0,0.0,4.0,-2.0,-6.0,0.0,-17.0
1701873949.3507195,12.0,47.0,12.0,5.0,0.0,8.0,4.0,10.0
1701873949.354428,1.0,-7.0,-7.0,0.0,0.0,-4.0,-8.0,1.0
1701873949.354428,-4.0,-24.0,-7.0,-6.0,4.0,7.0,4.0,-5.0
1701873949.354428,-3.0,10.0,3.0,2.0,-1.0,-2.0,-2.0,-1.0
1701873949.354428,11.0,3.0,-3.0,-5.0,-7.0,-2.0,8.0,2.0
1701873949.354428,-3.0,0.0,5.0,6.0,4.0,2.0,1.0,0.0
1701873949.354428,0.0,-1.0,-6.0,-4.0,1.0,0.0,-4.0,-6.0
1701873949.354428,4.0,-5.0,0.0,8.0,1.0,4.0,2.0,8.0
1701873949.3554275,5.0,10.0,16.0,3.0,6.0,1.0,2.0,0.0
1701873949.3848588,-5.0,6.0,-18.0,-13.0,-5.0,-4.0,-5.0,-2.0
1701873949.3873522,-3.0,-16.0,-5.0,-5.0,-5.0,-8.0,-4.0,-8.0
1701873949.4114254,6.0,31.0,9.0,3.0,-1.0,-2.0,1.0,6.0
1701873949.4114254,-17.0,-9.0,-9.0,3.0,-1.0,-1.0,-6.0,-2.0
1701873949.4114254,30.0,30.0,6.0,3.0,2.0,4.0,0.0,1.0
1701873949.4114254,0.0,-31.0,-18.0,-12.0,-6.0,-2.0,2.0,7.0
1701873949.4114254,-22.0,-25.0,0.0,4.0,5.0,5.0,5.0,4.0
1701873949.4114254,11.0,47.0,3.0,2.0,-4.0,-3.0,-3.0,-3.0
1701873949.4124248,-11.0,-7.0,-6.0,-1.0,4.0,-2.0,1.0,3.0
1701873949.4124248,2.0,6.0,5.0,-3.0,-12.0,-17.0,-16.0,-10.0
1701873949.4124248,9.0,2.0,24.0,1.0,-6.0,-7.0,-5.0,-1.0
1701873949.4124248,1.0,-6.0,-8.0,5.0,17.0,37.0,30.0,13.0
1701873949.4448042,-17.0,-53.0,-10.0,2.0,7.0,3.0,-2.0,-17.0
1701873949.4448042,9.0,14.0,7.0,6.0,3.0,1.0,2.0,2.0
1701873949.472208,-2.0,11.0,-2.0,-7.0,-13.0,-28.0,-30.0,-17.0
1701873949.472208,-2.0,-22.0,-11.0,-23.0,-23.0,-17.0,5.0,9.0
1701873949.472208,-4.0,-3.0,0.0,1.0,-2.0,3.0,-9.0,-21.0
1701873949.472208,-1.0,16.0,35.0,22.0,15.0,20.0,18.0,12.0
1701873949.472208,19.0,-25.0,-31.0,-6.0,3.0,0.0,-10.0,-20.0
1701873949.4732072,1.0,10.0,24.0,-9.0,-13.0,-17.0,-10.0,-1.0
1701873949.4732072,-11.0,-9.0,-24.0,-20.0,-5.0,-2.0,1.0,5.0
1701873949.4732072,-9.0,-7.0,-12.0,-18.0,-6.0,-7.0,-9.0,-9.0
1701873949.4732072,2.0,27.0,21.0,17.0,7.0,4.0,6.0,12.0
1701873949.4732072,-15.0,-55.0,-2.0,33.0,-3.0,-8.0,-8.0,-10.0
1701873949.5230436,9.0,17.0,-7.0,-36.0,-8.0,-5.0,-10.0,-9.0
1701873949.5230436,-12.0,-38.0,-19.0,-8.0,7.0,7.0,1.0,-3.0
1701873949.5230436,2.0,6.0,23.0,6.0,0.0,11.0,15.0,17.0
1701873949.5230436,-12.0,-6.0,-12.0,3.0,4.0,-6.0,-9.0,-10.0
1701873949.5230436,-8.0,-8.0,8.0,-5.0,-6.0,-2.0,2.0,6.0
1701873949.5230436,17.0,0.0,-19.0,0.0,-1.0,3.0,5.0,2.0
1701873949.5230436,-4.0,5.0,-2.0,-16.0,11.0,13.0,12.0,12.0
1701873949.5230436,6.0,-4.0,-10.0,-9.0,-10.0,-11.0,-11.0,-12.0
1701873949.5240455,-6.0,-5.0,13.0,14.0,-2.0,-8.0,3.0,3.0
1701873949.5250428,2.0,18.0,-2.0,-2.0,-6.0,0.0,-6.0,-6.0
1701873949.5261662,6.0,12.0,-3.0,17.0,15.0,6.0,5.0,12.0
1701873949.5261662,13.0,18.0,7.0,0.0,1.0,3.0,4.0,8.0
1701873949.5756598,-14.0,-40.0,-9.0,0.0,-3.0,2.0,5.0,1.0
1701873949.5756598,-6.0,21.0,5.0,-4.0,-7.0,-12.0,-9.0,-5.0
1701873949.5756598,-11.0,-29.0,-8.0,0.0,-8.0,2.0,2.0,2.0
1701873949.5756598,5.0,1.0,-10.0,-5.0,5.0,5.0,0.0,1.0
1701873949.5756598,2.0,12.0,-5.0,4.0,5.0,1.0,-4.0,-1.0
1701873949.5756598,-6.0,-4.0,1.0,2.0,3.0,1.0,3.0,3.0
1701873949.5756598,-1.0,2.0,-2.0,-10.0,-14.0,-12.0,-3.0,-1.0
1701873949.5756598,5.0,10.0,1.0,3.0,-5.0,-2.0,-5.0,-6.0
1701873949.5773816,3.0,16.0,25.0,22.0,20.0,11.0,8.0,11.0
1701873949.5773816,3.0,12.0,-7.0,-10.0,10.0,4.0,3.0,-4.0
1701873949.5859392,-10.0,-20.0,-19.0,-2.0,-1.0,-4.0,-4.0,-6.0
1701873949.5859392,0.0,0.0,-5.0,-8.0,-3.0,-2.0,-2.0,-4.0
1701873949.6210449,-2.0,3.0,6.0,-3.0,-9.0,0.0,3.0,5.0
1701873949.6210449,-10.0,-1.0,3.0,-7.0,-12.0,-11.0,-6.0,-8.0
1701873949.6210449,4.0,7.0,13.0,6.0,3.0,1.0,-2.0,-6.0
1701873949.6210449,1.0,3.0,4.0,11.0,-5.0,-4.0,-2.0,0.0
1701873949.6210449,-2.0,-10.0,-5.0,4.0,1.0,6.0,3.0,1.0
1701873949.6210449,-2.0,-12.0,-13.0,-3.0,14.0,7.0,3.0,2.0
1701873949.622047,-2.0,2.0,-18.0,-18.0,-11.0,-5.0,-4.0,-6.0
1701873949.6301134,-9.0,-16.0,22.0,13.0,-5.0,-6.0,-8.0,-6.0
1701873949.6412969,8.0,17.0,21.0,26.0,9.0,1.0,4.0,4.0
1701873949.6412969,0.0,3.0,-15.0,-5.0,7.0,5.0,0.0,-3.0
1701873949.6458762,-19.0,-71.0,-41.0,-31.0,-11.0,-3.0,-5.0,-7.0
1701873949.6458762,7.0,24.0,-4.0,-12.0,0.0,-3.0,-1.0,1.0
1701873949.697817,-6.0,-17.0,7.0,4.0,-8.0,-6.0,-3.0,-4.0
1701873949.697817,-14.0,-29.0,-8.0,9.0,-2.0,0.0,0.0,-4.0
1701873949.697817,11.0,27.0,11.0,8.0,5.0,3.0,2.0,-1.0
1701873949.697817,6.0,10.0,-15.0,-19.0,-7.0,-4.0,-2.0,1.0
1701873949.697817,-13.0,-40.0,-7.0,0.0,-5.0,-6.0,-2.0,5.0
1701873949.697817,3.0,13.0,22.0,9.0,0.0,2.0,-1.0,-7.0
1701873949.697817,-8.0,-15.0,2.0,10.0,3.0,-2.0,-1.0,-2.0
1701873949.697817,-9.0,-19.0,-21.0,-9.0,3.0,2.0,0.0,-2.0
1701873949.7211847,12.0,24.0,0.0,2.0,1.0,-3.0,1.0,7.0
1701873949.7211847,-15.0,6.0,-3.0,-10.0,-13.0,-8.0,-7.0,-7.0
1701873949.7211847,4.0,9.0,2.0,-5.0,-7.0,-3.0,-3.0,-3.0
1701873949.7211847,1.0,-5.0,4.0,1.0,-1.0,-1.0,1.0,4.0
1701873949.7231865,-6.0,1.0,-4.0,-8.0,4.0,6.0,0.0,-1.0
1701873949.7231865,2.0,-16.0,-4.0,-4.0,7.0,10.0,2.0,4.0
1701873949.7284043,5.0,29.0,7.0,18.0,12.0,-1.0,0.0,-1.0
1701873949.7284043,-8.0,-37.0,-19.0,-14.0,6.0,0.0,-1.0,-4.0
1701873949.7409139,-9.0,-35.0,-7.0,-7.0,-18.0,-10.0,-6.0,-3.0
1701873949.7409139,-7.0,9.0,21.0,7.0,-15.0,-16.0,-9.0,-9.0
1701873949.7429292,0.0,27.0,7.0,0.0,-2.0,4.0,4.0,6.0
1701873949.7429292,14.0,7.0,-12.0,2.0,11.0,8.0,0.0,4.0
1701873949.8025143,0.0,1.0,-31.0,-35.0,-6.0,-3.0,1.0,-3.0
1701873949.8025143,-11.0,-52.0,-15.0,0.0,-1.0,-1.0,2.0,7.0
1701873949.8035145,0.0,8.0,31.0,10.0,-7.0,-9.0,-7.0,-5.0
1701873949.8035145,1.0,18.0,1.0,-5.0,-5.0,-1.0,1.0,-1.0
1701873949.8063414,0.0,13.0,6.0,18.0,13.0,9.0,0.0,-3.0
1701873949.8063414,12.0,19.0,-20.0,-4.0,7.0,7.0,6.0,3.0
1701873949.8063414,0.0,26.0,14.0,-11.0,-7.0,-4.0,-5.0,-4.0
1701873949.8063414,14.0,31.0,-1.0,-8.0,1.0,10.0,4.0,5.0
1701873949.8063414,-3.0,33.0,13.0,7.0,6.0,-2.0,-3.0,-4.0
1701873949.8063414,-16.0,-24.0,13.0,9.0,-12.0,-15.0,-10.0,-8.0
1701873949.8063414,16.0,17.0,-5.0,-4.0,-10.0,-10.0,-5.0,-2.0
1701873949.8063414,3.0,6.0,3.0,3.0,-3.0,0.0,1.0,1.0
1701873949.8459132,2.0,-9.0,-18.0,-11.0,-1.0,-1.0,0.0,7.0
1701873949.8459132,1.0,3.0,1.0,-4.0,0.0,-3.0,-10.0,-17.0
1701873949.8459132,-8.0,-10.0,2.0,1.0,-9.0,-9.0,-3.0,-2.0
1701873949.8459132,-16.0,-31.0,-5.0,9.0,5.0,3.0,3.0,0.0
1701873949.8469117,14.0,24.0,7.0,-11.0,1.0,4.0,3.0,3.0
1701873949.8469117,7.0,13.0,5.0,-1.0,-2.0,-4.0,0.0,6.0
1701873949.8482475,-2.0,-9.0,-15.0,-11.0,-1.0,3.0,-2.0,-1.0
1701873949.8482475,-3.0,9.0,6.0,0.0,-2.0,-3.0,0.0,-4.0
1701873949.8593602,-4.0,-14.0,0.0,8.0,4.0,0.0,-3.0,0.0
1701873949.8611343,6.0,-1.0,15.0,20.0,8.0,5.0,3.0,3.0
1701873949.8621697,-3.0,6.0,-1.0,-9.0,3.0,3.0,1.0,-5.0
1701873949.8621697,-1.0,12.0,3.0,3.0,-6.0,-4.0,-5.0,0.0
1701873949.90868,7.0,-3.0,-1.0,-2.0,-8.0,-6.0,2.0,13.0
1701873949.90868,-3.0,43.0,-6.0,-12.0,3.0,6.0,-5.0,-27.0
1701873949.9162998,17.0,5.0,2.0,7.0,11.0,14.0,11.0,10.0
1701873949.9162998,-39.0,-98.0,-20.0,-7.0,-13.0,-20.0,-20.0,-21.0
1701873949.9229128,-3.0,15.0,-7.0,2.0,-10.0,-15.0,-10.0,-4.0
1701873949.9229128,5.0,11.0,1.0,-7.0,-5.0,0.0,4.0,10.0
1701873949.9229128,-10.0,1.0,0.0,1.0,22.0,21.0,10.0,7.0
1701873949.9229128,12.0,21.0,13.0,9.0,8.0,7.0,7.0,3.0
1701873949.9305453,6.0,40.0,15.0,10.0,-6.0,-7.0,-2.0,-4.0
1701873949.9305453,-14.0,-47.0,-11.0,-12.0,-16.0,-13.0,-7.0,1.0
1701873949.963478,-4.0,-2.0,-7.0,-2.0,-1.0,-1.0,-5.0,-5.0
1701873949.963478,18.0,-1.0,-3.0,-4.0,-1.0,3.0,7.0,14.0
1701873949.963478,2.0,5.0,8.0,7.0,-4.0,2.0,-1.0,-7.0
1701873949.963478,11.0,14.0,5.0,-5.0,1.0,3.0,5.0,5.0
1701873949.9644773,-11.0,-8.0,-8.0,8.0,5.0,4.0,-2.0,-4.0
1701873949.9644773,-8.0,1.0,-14.0,-22.0,-1.0,-4.0,-1.0,-4.0
1701873949.9672449,-6.0,-21.0,4.0,6.0,-3.0,-5.0,-5.0,-6.0
1701873949.9672449,-15.0,-58.0,-7.0,2.0,0.0,-2.0,-2.0,-2.0
1701873949.9682422,8.0,36.0,0.0,0.0,-4.0,-1.0,3.0,4.0
1701873949.9682422,-8.0,-29.0,-8.0,-7.0,-3.0,4.0,6.0,-1.0
1701873949.9853358,-8.0,-7.0,-5.0,-4.0,3.0,0.0,-5.0,-9.0
1701873949.9853358,4.0,6.0,5.0,0.0,-3.0,-6.0,-9.0,0.0
1701873950.0111842,-4.0,-14.0,8.0,10.0,1.0,4.0,1.0,2.0
1701873950.0111842,-3.0,23.0,15.0,11.0,8.0,11.0,12.0,7.0
1701873950.0111842,26.0,8.0,-2.0,-8.0,2.0,9.0,14.0,8.0
1701873950.0111842,-14.0,-8.0,-7.0,2.0,-2.0,-10.0,-28.0,-20.0
1701873950.0121841,10.0,25.0,3.0,-10.0,-10.0,-11.0,-5.0,-6.0
1701873950.0121841,13.0,15.0,1.0,3.0,-1.0,-3.0,0.0,2.0
1701873950.0235949,-50.0,-24.0,-2.0,-1.0,5.0,5.0,2.0,-5.0
1701873950.0235949,15.0,15.0,1.0,2.0,3.0,5.0,13.0,11.0
1701873950.0283904,-6.0,3.0,2.0,3.0,-11.0,-8.0,-7.0,-1.0
1701873950.0283904,0.0,4.0,2.0,-6.0,12.0,5.0,-7.0,-9.0
1701873950.0447867,-26.0,-54.0,-10.0,-8.0,-10.0,-8.0,-8.0,-15.0
1701873950.0460603,10.0,19.0,5.0,-5.0,-3.0,-1.0,7.0,19.0
1701873950.080797,-19.0,-63.0,-21.0,-1.0,-3.0,-2.0,1.0,-14.0
1701873950.081794,-8.0,43.0,21.0,7.0,-11.0,-11.0,-8.0,-4.0
1701873950.081794,25.0,3.0,-17.0,-13.0,3.0,4.0,2.0,6.0
1701873950.081794,-26.0,42.0,20.0,9.0,0.0,-3.0,-12.0,-23.0
1701873950.081794,-4.0,-29.0,-8.0,-11.0,-5.0,-3.0,4.0,3.0
1701873950.081794,4.0,26.0,8.0,7.0,2.0,-4.0,-5.0,3.0
1701873950.1065745,-11.0,-39.0,-14.0,-7.0,-6.0,-5.0,-5.0,-2.0
1701873950.1080747,11.0,-28.0,-41.0,-25.0,6.0,10.0,13.0,12.0
1701873950.131037,21.0,45.0,37.0,20.0,7.0,3.0,0.0,2.0
1701873950.131037,-6.0,-9.0,23.0,17.0,-7.0,-6.0,-4.0,-3.0
1701873950.131037,6.0,10.0,-8.0,-9.0,-5.0,-2.0,-1.0,9.0
1701873950.131037,-5.0,4.0,1.0,0.0,-4.0,-3.0,-2.0,-4.0
1701873950.131037,-6.0,-27.0,-28.0,-14.0,0.0,3.0,1.0,0.0
1701873950.131037,22.0,47.0,9.0,10.0,8.0,10.0,13.0,27.0
1701873950.131037,-20.0,-41.0,13.0,4.0,2.0,-1.0,-10.0,-39.0
1701873950.1320374,5.0,0.0,-10.0,-3.0,-2.0,1.0,3.0,9.0
1701873950.1347046,-6.0,-13.0,-6.0,-1.0,6.0,2.0,4.0,-2.0
1701873950.1347046,-4.0,0.0,6.0,-15.0,-12.0,-12.0,-7.0,-9.0
1701873950.1691797,23.0,46.0,11.0,19.0,2.0,-1.0,2.0,16.0
1701873950.1706626,-8.0,-65.0,-40.0,-21.0,-8.0,-1.0,0.0,-5.0
1701873950.1907103,-9.0,15.0,45.0,27.0,-3.0,-5.0,-1.0,2.0
1701873950.1907103,4.0,-4.0,2.0,0.0,1.0,0.0,-2.0,-5.0
1701873950.1907103,-1.0,9.0,-22.0,-4.0,0.0,1.0,0.0,1.0
1701873950.1907103,0.0,8.0,12.0,-4.0,-4.0,4.0,9.0,8.0
1701873950.1917777,11.0,16.0,-5.0,0.0,3.0,-7.0,-10.0,8.0
1701873950.1917777,1.0,-19.0,-12.0,-15.0,-3.0,6.0,8.0,11.0
1701873950.1917777,-2.0,-3.0,1.0,6.0,1.0,1.0,-7.0,-25.0
1701873950.1917777,10.0,18.0,-10.0,6.0,3.0,2.0,6.0,15.0
1701873950.1917777,7.0,23.0,14.0,2.0,3.0,-1.0,-5.0,-10.0
1701873950.1917777,-10.0,-43.0,-17.0,-3.0,-7.0,-8.0,-6.0,0.0
1701873950.2226305,3.0,33.0,18.0,12.0,-4.0,-4.0,-2.0,5.0
1701873950.2226305,-4.0,14.0,9.0,2.0,-3.0,-4.0,-3.0,-6.0
1701873950.2514987,-1.0,4.0,-27.0,-30.0,-7.0,1.0,2.0,8.0
1701873950.2525039,3.0,-14.0,-11.0,2.0,5.0,-2.0,-10.0,-23.0
1701873950.2525039,7.0,15.0,-13.0,-8.0,-3.0,2.0,6.0,16.0
1701873950.2525039,-3.0,-10.0,25.0,34.0,8.0,3.0,-2.0,-3.0
1701873950.2535598,-10.0,-17.0,-7.0,-18.0,-7.0,-6.0,-6.0,-14.0
1701873950.2535598,1.0,0.0,-6.0,-3.0,7.0,9.0,13.0,20.0
1701873950.260539,-6.0,5.0,0.0,4.0,-4.0,-4.0,-15.0,-28.0
1701873950.260539,15.0,46.0,24.0,6.0,4.0,0.0,1.0,6.0
1701873950.260539,-17.0,-87.0,-41.0,-7.0,-11.0,-7.0,-2.0,-3.0
1701873950.260539,-6.0,-20.0,-18.0,-2.0,-1.0,1.0,-3.0,0.0
1701873950.2872393,9.0,0.0,-11.0,2.0,7.0,6.0,17.0,35.0
1701873950.2872393,-1.0,7.0,14.0,2.0,-1.0,-7.0,-9.0,-10.0
1701873950.313329,-5.0,17.0,-14.0,-12.0,-15.0,-10.0,-20.0,-39.0
1701873950.313329,-1.0,2.0,-14.0,-19.0,-2.0,3.0,12.0,17.0
1701873950.3215063,-4.0,-27.0,-2.0,3.0,8.0,-2.0,-10.0,-17.0
1701873950.3215063,10.0,35.0,0.0,-15.0,-7.0,-3.0,5.0,1.0
1701873950.3215063,0.0,2.0,17.0,23.0,2.0,0.0,2.0,8.0
1701873950.3215063,-11.0,-9.0,-16.0,-11.0,-10.0,-6.0,-10.0,-17.0
1701873950.3215063,5.0,6.0,20.0,-5.0,-4.0,4.0,6.0,10.0
1701873950.3215063,8.0,-6.0,-3.0,2.0,4.0,5.0,31.0,68.0
1701873950.3215063,-17.0,-18.0,-6.0,-14.0,-5.0,-13.0,-44.0,-95.0
1701873950.3215063,3.0,44.0,23.0,26.0,-11.0,-8.0,0.0,4.0
1701873950.353393,-8.0,-19.0,-8.0,-23.0,-1.0,-1.0,-3.0,-6.0
1701873950.353393,-1.0,-27.0,-19.0,0.0,7.0,2.0,1.0,-3.0
1701873950.353393,5.0,-8.0,-9.0,8.0,7.0,9.0,21.0,45.0
1701873950.353393,-6.0,-11.0,-7.0,-13.0,3.0,-3.0,-8.0,-17.0
1701873950.353393,4.0,5.0,11.0,-5.0,-17.0,-8.0,0.0,2.0
1701873950.353393,-4.0,6.0,4.0,5.0,-5.0,-4.0,-10.0,-22.0
1701873950.353393,-9.0,-44.0,-8.0,-2.0,8.0,7.0,14.0,19.0
1701873950.353393,1.0,1.0,9.0,7.0,-2.0,-4.0,-5.0,-6.0
1701873950.3551447,-4.0,5.0,5.0,-3.0,-5.0,-6.0,-3.0,7.0
1701873950.3551447,8.0,31.0,9.0,0.0,-3.0,0.0,-7.0,-13.0
1701873950.3738341,1.0,17.0,-9.0,0.0,5.0,5.0,2.0,6.0
1701873950.3747137,-5.0,-6.0,4.0,2.0,10.0,5.0,0.0,-1.0
1701873950.4016726,-2.0,-7.0,-7.0,4.0,-10.0,-9.0,0.0,1.0
1701873950.4016726,-8.0,-12.0,-9.0,-15.0,-5.0,-6.0,-14.0,-20.0
1701873950.4016726,9.0,34.0,16.0,15.0,11.0,4.0,6.0,10.0
1701873950.4016726,-1.0,-9.0,-6.0,-9.0,0.0,2.0,0.0,-2.0
1701873950.4027095,-2.0,14.0,-3.0,-8.0,-4.0,-2.0,0.0,3.0
1701873950.4027095,-9.0,-28.0,-2.0,-3.0,-9.0,-3.0,-5.0,-12.0
1701873950.4109151,4.0,4.0,1.0,4.0,-4.0,0.0,3.0,12.0
1701873950.4109151,2.0,-6.0,5.0,6.0,2.0,-1.0,-4.0,-2.0
1701873950.4220712,-3.0,-5.0,7.0,11.0,9.0,2.0,-1.0,-2.0
1701873950.4220712,-7.0,-19.0,-9.0,-6.0,-6.0,-5.0,-3.0,-6.0
1701873950.4332337,5.0,15.0,0.0,-5.0,-5.0,-1.0,1.0,6.0
1701873950.4342318,3.0,12.0,8.0,8.0,6.0,3.0,-1.0,-2.0
1701873950.4737728,2.0,3.0,1.0,3.0,7.0,7.0,0.0,-5.0
1701873950.4737728,-4.0,-8.0,-21.0,-14.0,-5.0,-3.0,-1.0,-2.0
1701873950.4737728,-4.0,4.0,12.0,-8.0,-9.0,-8.0,-2.0,2.0
1701873950.4737728,-2.0,8.0,8.0,0.0,-11.0,-9.0,-5.0,-8.0
1701873950.4737728,-8.0,-29.0,-1.0,6.0,4.0,0.0,-2.0,-1.0
1701873950.4737728,0.0,1.0,-6.0,4.0,11.0,8.0,6.0,4.0
1701873950.4737728,-6.0,-21.0,-3.0,2.0,1.0,0.0,1.0,-4.0
1701873950.4737728,-20.0,-44.0,14.0,6.0,-7.0,-10.0,-9.0,-9.0
1701873950.474887,0.0,3.0,-2.0,-10.0,-7.0,-6.0,-2.0,-3.0
1701873950.474887,3.0,0.0,-9.0,-10.0,2.0,4.0,3.0,3.0
1701873950.491753,-1.0,-22.0,-21.0,-7.0,10.0,2.0,2.0,4.0
1701873950.4931085,10.0,46.0,9.0,0.0,1.0,1.0,-2.0,-1.0
1701873950.5389678,1.0,18.0,23.0,9.0,-5.0,-7.0,-2.0,-3.0
1701873950.5389678,-21.0,-76.0,0.0,1.0,-10.0,-11.0,-11.0,-16.0
1701873950.5389678,11.0,30.0,8.0,3.0,-2.0,3.0,2.0,4.0
1701873950.5389678,-10.0,-9.0,-11.0,1.0,11.0,6.0,3.0,-1.0
1701873950.5389678,4.0,6.0,-12.0,-5.0,-3.0,-4.0,-5.0,-3.0
1701873950.5389678,1.0,18.0,6.0,5.0,-16.0,-8.0,-3.0,-2.0
1701873950.5389678,0.0,-13.0,2.0,-4.0,14.0,10.0,9.0,7.0
1701873950.5389678,5.0,-26.0,-22.0,-13.0,6.0,4.0,1.0,-2.0
1701873950.5688353,-6.0,18.0,8.0,2.0,-3.0,-5.0,-2.0,-3.0
1701873950.5688353,0.0,2.0,4.0,1.0,-5.0,-4.0,-4.0,-4.0
1701873950.5688353,-3.0,0.0,10.0,3.0,-14.0,-7.0,-3.0,3.0
1701873950.5688353,8.0,19.0,-14.0,2.0,4.0,6.0,7.0,9.0
1701873950.5688353,-3.0,-19.0,-34.0,-20.0,5.0,3.0,-6.0,-18.0
1701873950.5688353,-11.0,1.0,33.0,14.0,-1.0,-4.0,-1.0,-2.0
1701873950.5698352,-3.0,8.0,10.0,1.0,-10.0,-7.0,-4.0,0.0
1701873950.5698352,17.0,14.0,5.0,3.0,-2.0,1.0,1.0,-1.0
1701873950.5899093,-4.0,-3.0,-8.0,-2.0,0.0,1.0,2.0,4.0
1701873950.5899093,1.0,5.0,-26.0,-17.0,-5.0,-1.0,-2.0,1.0
1701873950.5908682,-3.0,7.0,-3.0,-3.0,-1.0,2.0,1.0,-4.0
1701873950.5908682,-6.0,3.0,13.0,6.0,-9.0,-7.0,-3.0,-1.0
1701873950.6447933,4.0,-9.0,-2.0,-2.0,10.0,9.0,5.0,5.0
1701873950.6447933,7.0,17.0,5.0,8.0,11.0,9.0,2.0,1.0
1701873950.6486642,0.0,11.0,3.0,-7.0,-6.0,-8.0,-6.0,-2.0
1701873950.6489763,2.0,13.0,-7.0,2.0,-1.0,-3.0,-4.0,-3.0
1701873950.6525617,-12.0,-43.0,-7.0,-1.0,-8.0,-9.0,-3.0,1.0
1701873950.6525617,-1.0,-11.0,-7.0,-7.0,-4.0,0.0,-1.0,-1.0
1701873950.6527662,8.0,32.0,3.0,0.0,-6.0,0.0,0.0,1.0
1701873950.6527662,-8.0,-18.0,20.0,11.0,4.0,9.0,5.0,0.0
1701873950.6527662,-3.0,1.0,-39.0,-14.0,13.0,5.0,5.0,0.0
1701873950.6527662,-4.0,4.0,13.0,-1.0,-6.0,-23.0,-21.0,-1.0
1701873950.6527662,-2.0,-8.0,-21.0,-2.0,-7.0,-4.0,-4.0,-15.0
1701873950.6527662,0.0,7.0,5.0,-5.0,-15.0,-11.0,-5.0,-3.0
1701873950.70628,2.0,0.0,10.0,-3.0,8.0,12.0,5.0,6.0
1701873950.70628,4.0,1.0,2.0,12.0,7.0,8.0,8.0,5.0
1701873950.70628,-4.0,3.0,-3.0,11.0,0.0,1.0,-2.0,4.0
1701873950.70628,2.0,-6.0,0.0,-19.0,3.0,3.0,-2.0,-1.0
1701873950.70628,13.0,23.0,8.0,12.0,1.0,2.0,6.0,8.0
1701873950.70628,-10.0,-6.0,-12.0,-11.0,-10.0,-9.0,-5.0,-9.0
1701873950.70628,-1.0,15.0,19.0,-2.0,4.0,4.0,1.0,-1.0
1701873950.70628,4.0,-29.0,-12.0,14.0,4.0,1.0,1.0,5.0
1701873950.7078848,-11.0,-20.0,-13.0,-7.0,-2.0,-7.0,-9.0,-7.0
1701873950.7078848,22.0,46.0,9.0,-6.0,-4.0,2.0,8.0,4.0
1701873950.7107177,-4.0,-28.0,-16.0,-3.0,-3.0,-7.0,-2.0,-3.0
1701873950.7107177,-19.0,-12.0,-9.0,-6.0,-5.0,-2.0,-4.0,-5.0
1701873950.747772,7.0,42.0,17.0,3.0,-6.0,-5.0,-6.0,1.0
1701873950.747772,-7.0,-32.0,2.0,8.0,9.0,8.0,23.0,14.0
1701873950.747772,-11.0,-16.0,-16.0,-15.0,-3.0,-9.0,-18.0,-16.0
1701873950.747772,-6.0,-6.0,2.0,1.0,-4.0,-7.0,-11.0,-11.0
1701873950.750909,16.0,5.0,12.0,6.0,-7.0,-1.0,1.0,3.0
1701873950.750909,-12.0,14.0,-10.0,-3.0,-2.0,-4.0,-11.0,-10.0
1701873950.750909,3.0,-4.0,3.0,4.0,8.0,7.0,18.0,15.0
1701873950.750909,-4.0,-22.0,-30.0,-11.0,13.0,6.0,2.0,1.0
1701873950.7939088,-13.0,-19.0,4.0,3.0,-12.0,-9.0,-6.0,-10.0
1701873950.7939088,11.0,20.0,16.0,5.0,-1.0,-2.0,-1.0,7.0
1701873950.7939088,-1.0,-7.0,-11.0,-12.0,-7.0,0.0,-3.0,2.0
1701873950.7939088,-4.0,6.0,3.0,-1.0,-3.0,-4.0,-4.0,-6.0
1701873950.794908,-8.0,-13.0,20.0,16.0,1.0,-1.0,2.0,4.0
1701873950.794908,-8.0,27.0,-10.0,-5.0,2.0,5.0,-4.0,-13.0
1701873950.794908,4.0,-19.0,2.0,5.0,2.0,-1.0,-1.0,3.0
1701873950.794908,1.0,30.0,16.0,2.0,-7.0,-4.0,-3.0,-11.0
1701873950.8073325,0.0,0.0,-6.0,-1.0,-1.0,-2.0,6.0,7.0
1701873950.8073325,0.0,-22.0,7.0,11.0,9.0,4.0,-2.0,-2.0
1701873950.809105,0.0,-2.0,-10.0,-8.0,5.0,6.0,1.0,-10.0
1701873950.809105,0.0,19.0,-12.0,-14.0,-9.0,-5.0,1.0,9.0
1701873950.8721502,-26.0,-77.0,-6.0,-6.0,-6.0,-3.0,-5.0,-17.0
1701873950.8721502,19.0,38.0,6.0,-1.0,-1.0,-1.0,0.0,15.0
1701873950.8721502,-2.0,25.0,-5.0,1.0,1.0,-1.0,1.0,-5.0
1701873950.8721502,7.0,-13.0,18.0,7.0,-6.0,-7.0,-1.0,14.0
1701873950.8721502,-2.0,11.0,6.0,1.0,-7.0,-10.0,-14.0,-25.0
1701873950.8721502,-27.0,-61.0,-37.0,-17.0,4.0,3.0,0.0,-5.0
1701873950.8721502,12.0,11.0,-4.0,-9.0,1.0,3.0,5.0,17.0
1701873950.8721502,-5.0,-9.0,-30.0,-8.0,-2.0,-4.0,-3.0,-2.0
1701873950.8721502,7.0,15.0,22.0,3.0,2.0,1.0,2.0,9.0
1701873950.8721502,12.0,-4.0,23.0,23.0,4.0,4.0,6.0,14.0
1701873950.8721502,4.0,25.0,5.0,-2.0,1.0,-5.0,-6.0,-18.0
1701873950.8721502,-3.0,-12.0,-21.0,-11.0,-6.0,-2.0,7.0,19.0
1701873950.931321,-2.0,9.0,-20.0,-16.0,-9.0,-5.0,-13.0,-22.0
1701873950.931321,-8.0,-35.0,4.0,-4.0,11.0,6.0,4.0,-2.0
1701873950.931321,-1.0,-16.0,9.0,14.0,6.0,3.0,5.0,7.0
1701873950.931321,15.0,33.0,17.0,3.0,2.0,4.0,1.0,1.0
1701873950.931321,-3.0,19.0,-4.0,4.0,2.0,2.0,25.0,54.0
1701873950.931321,2.0,15.0,11.0,1.0,-18.0,-11.0,-31.0,-47.0
1701873950.9353936,-17.0,-25.0,-27.0,-10.0,10.0,-2.0,-14.0,-33.0
1701873950.9353936,-3.0,-40.0,2.0,-1.0,0.0,6.0,6.0,1.0
1701873950.9642985,7.0,5.0,30.0,15.0,3.0,0.0,-2.0,8.0
1701873950.965471,-2.0,-1.0,-17.0,-7.0,2.0,5.0,25.0,35.0
1701873950.9730158,-14.0,-9.0,2.0,4.0,-7.0,-9.0,-31.0,-60.0
1701873950.9730158,-5.0,-3.0,-12.0,0.0,2.0,2.0,-4.0,-15.0
1701873950.9730158,-9.0,-21.0,7.0,1.0,-4.0,-4.0,-4.0,-11.0
1701873950.974014,1.0,12.0,-10.0,-15.0,-7.0,-7.0,-7.0,-17.0
1701873950.974014,19.0,18.0,14.0,17.0,0.0,5.0,33.0,76.0
1701873950.9742007,-22.0,-21.0,-22.0,-34.0,-7.0,-8.0,-38.0,-81.0
1701873950.9742007,-1.0,-2.0,-2.0,8.0,11.0,4.0,-1.0,-7.0
1701873950.9742007,11.0,41.0,-1.0,0.0,3.0,-3.0,0.0,6.0
1701873950.9792993,-24.0,-83.0,-16.0,-5.0,-17.0,-9.0,1.0,3.0
1701873950.9792993,-2.0,13.0,33.0,34.0,7.0,-3.0,4.0,11.0
1701873950.9981785,9.0,7.0,-28.0,-26.0,0.0,9.0,11.0,14.0
1701873950.9981785,-7.0,-8.0,-7.0,-6.0,-2.0,-3.0,-18.0,-29.0
1701873951.0170593,10.0,16.0,2.0,-9.0,-5.0,0.0,5.0,20.0
1701873951.0170593,-8.0,-10.0,8.0,7.0,-13.0,-9.0,-3.0,2.0
1701873951.0170593,1.0,-16.0,-14.0,-2.0,5.0,-1.0,-8.0,-16.0
1701873951.0170593,2.0,-12.0,5.0,6.0,1.0,5.0,10.0,18.0
1701873951.0170593,0.0,22.0,0.0,-7.0,-4.0,-4.0,-2.0,0.0
1701873951.0170593,1.0,-7.0,-18.0,-19.0,-5.0,3.0,7.0,6.0
1701873951.0170593,2.0,18.0,13.0,6.0,2.0,3.0,1.0,-1.0
1701873951.0170593,-1.0,-17.0,-5.0,1.0,-2.0,-2.0,2.0,1.0
1701873951.0345175,3.0,17.0,22.0,11.0,7.0,9.0,5.0,7.0
1701873951.0345175,4.0,23.0,-2.0,2.0,10.0,0.0,-6.0,-11.0
1701873951.058348,-7.0,-31.0,-12.0,-4.0,-3.0,-3.0,1.0,1.0
1701873951.059346,-11.0,-2.0,-9.0,-11.0,-8.0,-6.0,-6.0,-9.0
1701873951.0866811,-4.0,13.0,2.0,-7.0,-5.0,-3.0,-1.0,-2.0
1701873951.0866811,-1.0,20.0,9.0,-3.0,-7.0,-8.0,-12.0,-20.0
1701873951.0866811,0.0,9.0,-3.0,1.0,-1.0,2.0,2.0,1.0
1701873951.0866811,9.0,3.0,2.0,9.0,1.0,-3.0,-4.0,-2.0
1701873951.0866811,2.0,-2.0,-6.0,-4.0,-1.0,-2.0,-1.0,2.0
1701873951.087681,-4.0,-16.0,3.0,4.0,-2.0,1.0,4.0,11.0
1701873951.0908306,4.0,14.0,19.0,12.0,2.0,-1.0,-3.0,0.0
1701873951.0908306,-5.0,-18.0,-24.0,-17.0,2.0,-1.0,-3.0,-4.0
1701873951.0918593,2.0,-8.0,6.0,-1.0,-2.0,2.0,-1.0,0.0
1701873951.0918593,2.0,6.0,-5.0,-1.0,2.0,-1.0,7.0,12.0
1701873951.1068711,1.0,10.0,-9.0,-3.0,-2.0,-2.0,-9.0,-14.0
1701873951.1068711,-4.0,3.0,10.0,8.0,-2.0,0.0,3.0,6.0
1701873951.1545162,-3.0,-6.0,38.0,23.0,-9.0,-11.0,-7.0,-9.0
1701873951.1545162,9.0,30.0,3.0,11.0,2.0,1.0,4.0,9.0
1701873951.1545162,-21.0,-54.0,-18.0,-13.0,-2.0,-1.0,-2.0,-11.0
1701873951.1545162,-3.0,10.0,-13.0,-14.0,1.0,0.0,-1.0,0.0
1701873951.1545162,14.0,16.0,-13.0,-6.0,-1.0,-2.0,-5.0,2.0
1701873951.1545162,0.0,-5.0,6.0,0.0,-3.0,-1.0,7.0,4.0
1701873951.1617806,8.0,22.0,-1.0,3.0,-2.0,2.0,3.0,9.0
1701873951.1631036,7.0,14.0,7.0,3.0,3.0,1.0,3.0,1.0
1701873951.171335,-11.0,-14.0,0.0,0.0,4.0,0.0,-3.0,-7.0
1701873951.1723387,1.0,-4.0,5.0,3.0,0.0,-3.0,0.0,5.0
1701873951.1882443,4.0,7.0,-10.0,-8.0,-6.0,-4.0,-3.0,-3.0
1701873951.1882443,-9.0,-14.0,6.0,5.0,-5.0,-2.0,1.0,-1.0
1701873951.1882443,2.0,15.0,-9.0,-5.0,3.0,5.0,-2.0,-3.0
1701873951.1892426,1.0,5.0,0.0,-4.0,-4.0,0.0,-2.0,1.0
1701873951.1892426,-7.0,-3.0,0.0,-3.0,-1.0,-2.0,-1.0,-1.0
1701873951.1892426,9.0,24.0,10.0,3.0,0.0,-4.0,-3.0,-2.0
1701873951.1892426,-7.0,-16.0,-11.0,-5.0,3.0,-1.0,1.0,2.0
1701873951.1892426,-5.0,-8.0,-15.0,-5.0,-3.0,1.0,-5.0,-13.0
1701873951.2249484,4.0,16.0,7.0,-1.0,-8.0,-6.0,-3.0,-7.0
1701873951.2259498,0.0,0.0,3.0,3.0,4.0,1.0,-1.0,3.0
1701873951.239388,-1.0,-8.0,-12.0,-13.0,-6.0,-3.0,-5.0,-9.0
1701873951.239388,0.0,-5.0,2.0,5.0,2.0,-2.0,1.0,9.0
1701873951.2493992,2.0,7.0,5.0,7.0,6.0,2.0,1.0,6.0
1701873951.2493992,-4.0,-17.0,-8.0,-14.0,-3.0,0.0,-3.0,-6.0
1701873951.2493992,2.0,9.0,2.0,3.0,1.0,1.0,2.0,3.0
1701873951.2493992,-8.0,-6.0,2.0,-2.0,-5.0,-3.0,-1.0,4.0
1701873951.2493992,1.0,-8.0,-12.0,5.0,-2.0,-2.0,-6.0,-6.0
1701873951.2493992,-8.0,-10.0,1.0,-11.0,-4.0,2.0,5.0,5.0
1701873951.2493992,8.0,6.0,-1.0,-5.0,-1.0,-4.0,-5.0,-6.0
1701873951.2493992,-8.0,-4.0,-5.0,-2.0,-7.0,-5.0,-2.0,-7.0
1701873951.2705605,3.0,18.0,6.0,8.0,1.0,-2.0,-1.0,2.0
1701873951.2705605,4.0,-5.0,5.0,0.0,6.0,2.0,0.0,-1.0
1701873951.2720122,-3.0,0.0,5.0,-2.0,-6.0,-4.0,-1.0,0.0
1701873951.2720122,1.0,-6.0,-5.0,3.0,-3.0,1.0,3.0,5.0
1701873951.3184896,6.0,17.0,-1.0,-6.0,3.0,0.0,2.0,2.0
1701873951.3184896,-11.0,-11.0,3.0,9.0,-4.0,-4.0,-4.0,-3.0
1701873951.3184896,-3.0,5.0,-4.0,-3.0,3.0,-1.0,-4.0,-7.0
1701873951.3184896,3.0,-3.0,-3.0,-5.0,5.0,2.0,1.0,5.0
1701873951.3194885,4.0,2.0,-3.0,-11.0,-12.0,-7.0,-3.0,-3.0
1701873951.3194885,-2.0,1.0,2.0,5.0,-3.0,-1.0,0.0,-1.0
1701873951.3194885,-3.0,-5.0,-5.0,6.0,1.0,0.0,-2.0,-2.0
1701873951.3194885,-2.0,-8.0,-9.0,-8.0,-2.0,-2.0,-4.0,-1.0
1701873951.3428237,1.0,-1.0,-7.0,-1.0,5.0,6.0,2.0,2.0
1701873951.3428237,-1.0,-2.0,40.0,28.0,4.0,-1.0,-2.0,-4.0
1701873951.3622482,-7.0,-10.0,-5.0,-5.0,-8.0,-8.0,-4.0,-2.0
1701873951.3632927,5.0,5.0,-5.0,-1.0,3.0,4.0,3.0,3.0
1701873951.386237,-8.0,-17.0,-13.0,-17.0,1.0,1.0,1.0,-1.0
1701873951.386237,-3.0,-12.0,-26.0,-10.0,-2.0,-3.0,-2.0,-5.0
1701873951.3912926,2.0,7.0,9.0,3.0,-6.0,-1.0,1.0,6.0
1701873951.3912926,1.0,0.0,1.0,-2.0,2.0,0.0,1.0,-1.0
1701873951.3912926,1.0,12.0,-2.0,0.0,-3.0,0.0,-2.0,0.0
1701873951.3912926,-14.0,-45.0,-8.0,-3.0,-4.0,0.0,-1.0,-4.0
1701873951.3912926,-5.0,2.0,7.0,1.0,-2.0,-4.0,-3.0,-9.0
1701873951.3912926,0.0,-2.0,-10.0,-2.0,4.0,-1.0,1.0,2.0
1701873951.4281018,-4.0,0.0,2.0,0.0,-1.0,-3.0,-3.0,-1.0
1701873951.4281018,0.0,6.0,-1.0,-2.0,-1.0,-2.0,-1.0,2.0
1701873951.4281018,7.0,14.0,-2.0,-1.0,0.0,4.0,4.0,3.0
1701873951.4281018,-4.0,-18.0,1.0,7.0,5.0,2.0,1.0,1.0
1701873951.4332676,-1.0,9.0,5.0,3.0,-6.0,-5.0,-4.0,-4.0
1701873951.4332676,1.0,-22.0,-16.0,-23.0,-3.0,0.0,-3.0,-3.0
1701873951.4332676,3.0,-13.0,-8.0,3.0,7.0,-1.0,-1.0,2.0
1701873951.4332676,-5.0,0.0,1.0,-4.0,-4.0,-2.0,3.0,2.0
1701873951.4332676,-2.0,-9.0,1.0,2.0,-5.0,-2.0,-2.0,-3.0
1701873951.4332676,5.0,24.0,19.0,20.0,-4.0,-5.0,-2.0,0.0
1701873951.4332676,-1.0,-5.0,-3.0,5.0,18.0,10.0,3.0,1.0
1701873951.4332676,1.0,-4.0,2.0,2.0,7.0,1.0,-2.0,-3.0
1701873951.4694066,-2.0,3.0,-10.0,-20.0,-11.0,-8.0,-2.0,-3.0
1701873951.4694066,0.0,-9.0,-19.0,-5.0,-6.0,1.0,2.0,2.0
1701873951.4694066,1.0,9.0,2.0,-8.0,-8.0,1.0,-1.0,-2.0
1701873951.4694066,-5.0,-4.0,22.0,19.0,2.0,0.0,-2.0,-2.0
1701873951.4694066,-5.0,-24.0,-2.0,1.0,-1.0,1.0,2.0,1.0
1701873951.4694066,14.0,58.0,4.0,-1.0,0.0,-1.0,-1.0,1.0
1701873951.4694066,-16.0,-29.0,-9.0,-6.0,-8.0,-6.0,-1.0,-3.0
1701873951.4694066,4.0,10.0,-6.0,-8.0,-1.0,1.0,2.0,1.0
1701873951.4896722,1.0,-3.0,4.0,2.0,9.0,7.0,1.0,2.0
1701873951.4896722,0.0,3.0,-1.0,-3.0,-7.0,-5.0,-3.0,-2.0
1701873951.4906683,-3.0,7.0,-2.0,3.0,0.0,0.0,-4.0,-3.0
1701873951.4906683,0.0,1.0,-2.0,-10.0,-10.0,-4.0,-1.0,-3.0
1701873951.5461283,5.0,7.0,7.0,3.0,6.0,4.0,1.0,1.0
1701873951.5461283,-3.0,-13.0,-6.0,6.0,20.0,8.0,1.0,1.0
1701873951.5461283,0.0,0.0,-5.0,-3.0,-8.0,-4.0,-2.0,-1.0
1701873951.5461283,-1.0,10.0,1.0,-12.0,-5.0,-1.0,0.0,1.0
1701873951.5461283,-5.0,-8.0,8.0,11.0,3.0,-2.0,-4.0,-3.0
1701873951.5461283,3.0,7.0,-4.0,-14.0,-20.0,-10.0,-2.0,0.0
1701873951.5461283,-5.0,-17.0,0.0,16.0,0.0,-4.0,-2.0,-6.0
1701873951.5461283,2.0,-1.0,-7.0,-13.0,18.0,12.0,4.0,2.0
1701873951.5483496,-2.0,-14.0,-17.0,-19.0,-12.0,-4.0,-2.0,1.0
1701873951.5483496,-3.0,1.0,1.0,0.0,-4.0,-4.0,-3.0,-4.0
1701873951.5483496,1.0,5.0,2.0,-1.0,-14.0,-4.0,-2.0,-1.0
1701873951.5483496,1.0,-5.0,-8.0,6.0,5.0,-4.0,-3.0,-3.0
1701873951.6203916,-6.0,15.0,10.0,1.0,5.0,2.0,1.0,-4.0
1701873951.6203916,3.0,-14.0,-4.0,-1.0,3.0,1.0,-1.0,1.0
1701873951.6203916,-2.0,4.0,-1.0,-1.0,3.0,3.0,2.0,-1.0
1701873951.6203916,-1.0,-1.0,4.0,1.0,-11.0,-8.0,-3.0,-1.0
1701873951.624188,10.0,32.0,10.0,4.0,1.0,2.0,2.0,1.0
1701873951.624188,-13.0,-32.0,-8.0,11.0,-3.0,0.0,-1.0,-6.0
1701873951.624188,7.0,56.0,16.0,-12.0,9.0,6.0,-3.0,1.0
1701873951.624188,-11.0,-66.0,-8.0,-2.0,-3.0,-1.0,3.0,1.0
1701873951.6628118,0.0,6.0,-6.0,0.0,-12.0,-19.0,-17.0,-9.0
1701873951.6628118,2.0,9.0,5.0,-5.0,-3.0,1.0,2.0,2.0
1701873951.6628118,3.0,-9.0,-5.0,12.0,11.0,2.0,3.0,4.0
1701873951.6628118,10.0,26.0,3.0,-6.0,16.0,13.0,11.0,7.0
1701873951.6628118,-22.0,-57.0,5.0,-3.0,-6.0,-1.0,0.0,-3.0
1701873951.6628118,1.0,-5.0,-12.0,-9.0,-9.0,-14.0,-13.0,-7.0
1701873951.6628118,-5.0,-16.0,-6.0,-10.0,-14.0,-10.0,-4.0,-7.0
1701873951.6628118,1.0,13.0,-3.0,2.0,-12.0,-6.0,-5.0,-3.0
1701873951.6628118,-5.0,3.0,10.0,17.0,11.0,9.0,8.0,4.0
1701873951.6628118,5.0,10.0,0.0,-2.0,9.0,7.0,2.0,3.0
1701873951.6628118,0.0,19.0,8.0,-6.0,-7.0,-5.0,-5.0,-4.0
1701873951.6628118,-12.0,-40.0,-15.0,-3.0,-14.0,-13.0,-9.0,-5.0
1701873951.689492,-1.0,5.0,-1.0,-1.0,1.0,4.0,5.0,3.0
1701873951.689492,0.0,10.0,0.0,7.0,16.0,8.0,3.0,5.0
1701873951.689492,-5.0,-17.0,3.0,11.0,2.0,-3.0,0.0,1.0
1701873951.689492,-1.0,8.0,-1.0,-11.0,-11.0,-7.0,-7.0,-4.0
1701873951.690619,-8.0,-4.0,-14.0,-7.0,5.0,-1.0,-5.0,-7.0
1701873951.691514,-6.0,-14.0,-8.0,-23.0,-7.0,7.0,10.0,2.0
1701873951.691514,12.0,4.0,3.0,5.0,7.0,-6.0,-9.0,0.0
1701873951.691514,0.0,7.0,19.0,20.0,10.0,0.0,-5.0,-5.0
1701873951.720764,0.0,-2.0,-39.0,-23.0,-11.0,-5.0,-1.0,-3.0
1701873951.720764,2.0,10.0,-1.0,-3.0,-3.0,0.0,1.0,0.0
1701873951.720764,-6.0,-5.0,16.0,14.0,11.0,10.0,7.0,3.0
1701873951.720764,11.0,18.0,1.0,-7.0,-10.0,-2.0,3.0,11.0
1701873951.720764,-6.0,7.0,-10.0,-12.0,-5.0,-7.0,-14.0,-17.0
1701873951.720764,-3.0,-10.0,-12.0,-4.0,-8.0,-8.0,-7.0,-14.0
1701873951.7307405,7.0,8.0,9.0,3.0,-5.0,4.0,7.0,2.0
1701873951.7307405,-5.0,4.0,17.0,22.0,17.0,6.0,-1.0,-4.0
1701873951.7822442,8.0,0.0,5.0,5.0,6.0,5.0,4.0,9.0
1701873951.7822442,1.0,4.0,-3.0,-7.0,-8.0,-6.0,7.0,19.0
1701873951.7822442,-5.0,0.0,-8.0,-6.0,-2.0,-5.0,-8.0,-16.0
1701873951.7822442,-9.0,-25.0,-20.0,-6.0,-7.0,-3.0,-4.0,-7.0
1701873951.8121958,2.0,20.0,12.0,4.0,1.0,4.0,15.0,8.0
1701873951.8131955,-10.0,-20.0,2.0,1.0,-5.0,-3.0,-5.0,1.0
1701873951.8158133,-10.0,-46.0,-31.0,-19.0,-9.0,-19.0,-24.0,-13.0
1701873951.8158133,0.0,17.0,-7.0,-1.0,1.0,2.0,7.0,3.0
1701873951.8158133,1.0,4.0,3.0,-16.0,-7.0,-4.0,-2.0,-1.0
1701873951.8158133,-3.0,-21.0,1.0,10.0,1.0,12.0,21.0,11.0
1701873951.8158133,-11.0,2.0,0.0,2.0,10.0,-1.0,-7.0,-12.0
1701873951.8168132,-3.0,5.0,9.0,16.0,6.0,-3.0,-13.0,-6.0
1701873951.8168132,7.0,-5.0,4.0,7.0,4.0,2.0,5.0,3.0
1701873951.8168132,3.0,21.0,9.0,-2.0,0.0,-1.0,-5.0,-3.0
1701873951.8168132,13.0,2.0,-6.0,-5.0,-9.0,2.0,5.0,7.0
1701873951.8168132,-3.0,3.0,1.0,0.0,-2.0,0.0,6.0,6.0
1701873951.8729787,1.0,-18.0,-11.0,0.0,1.0,-8.0,-7.0,-4.0
1701873951.8729787,3.0,10.0,8.0,-15.0,-10.0,-1.0,-3.0,-4.0
1701873951.8729787,-10.0,-11.0,-1.0,11.0,-4.0,-6.0,-1.0,2.0
1701873951.8729787,5.0,1.0,-3.0,-9.0,-1.0,1.0,2.0,1.0
1701873951.8729787,3.0,-23.0,-13.0,-8.0,-5.0,-3.0,-1.0,6.0
1701873951.8729787,2.0,17.0,6.0,9.0,9.0,-4.0,-12.0,-12.0
1701873951.8729787,-6.0,-2.0,4.0,4.0,-2.0,-2.0,4.0,-4.0
1701873951.8729787,-2.0,13.0,3.0,7.0,-7.0,-6.0,-5.0,-5.0
1701873951.8771162,-2.0,0.0,-8.0,-12.0,0.0,7.0,0.0,2.0
1701873951.8771162,5.0,0.0,3.0,7.0,11.0,1.0,3.0,10.0
1701873951.8771162,-11.0,9.0,4.0,6.0,3.0,2.0,-10.0,-7.0
1701873951.8771162,1.0,1.0,1.0,7.0,-1.0,4.0,1.0,3.0
1701873951.8931897,-3.0,-9.0,2.0,-5.0,1.0,-5.0,-3.0,-2.0
1701873951.8931897,2.0,-4.0,-12.0,-3.0,-11.0,-6.0,-5.0,-5.0
1701873951.8948987,-8.0,0.0,0.0,-7.0,-7.0,2.0,10.0,9.0
1701873951.8948987,8.0,17.0,-3.0,-17.0,-6.0,-6.0,-16.0,-10.0
1701873951.9474368,-6.0,-9.0,3.0,19.0,3.0,-1.0,2.0,0.0
1701873951.9474368,1.0,10.0,17.0,25.0,-2.0,-3.0,-2.0,0.0
1701873951.9474368,2.0,-8.0,-1.0,-20.0,11.0,2.0,-1.0,-3.0
1701873951.9474368,-9.0,-13.0,-21.0,-30.0,-14.0,-3.0,-1.0,-5.0
1701873951.9474368,13.0,34.0,27.0,21.0,6.0,2.0,3.0,4.0
1701873951.9474368,-8.0,-6.0,-13.0,-3.0,0.0,-1.0,-2.0,-5.0
1701873951.9474368,3.0,5.0,0.0,-4.0,-2.0,4.0,4.0,2.0
1701873951.9474368,-2.0,-11.0,3.0,-1.0,3.0,-4.0,8.0,3.0
1701873951.9845161,3.0,11.0,7.0,5.0,-7.0,-11.0,-17.0,-8.0
1701873951.9845161,-8.0,-15.0,-1.0,0.0,-2.0,-4.0,-3.0,-1.0
1701873951.9845161,13.0,18.0,1.0,1.0,-4.0,3.0,6.0,10.0
1701873951.9845161,-11.0,-27.0,-7.0,-1.0,5.0,8.0,3.0,-3.0
1701873951.9845161,-8.0,8.0,-4.0,-7.0,-10.0,-5.0,2.0,1.0
1701873951.9845161,-6.0,-7.0,1.0,2.0,8.0,4.0,1.0,-9.0
1701873951.9845161,10.0,5.0,-7.0,-11.0,3.0,7.0,2.0,11.0
1701873951.9845161,-2.0,3.0,-2.0,-3.0,-6.0,-9.0,-8.0,-8.0
1701873952.0047216,2.0,0.0,1.0,15.0,1.0,-3.0,2.0,5.0
1701873952.0047216,-3.0,-1.0,-6.0,-14.0,4.0,0.0,-5.0,-7.0
1701873952.0163689,3.0,-4.0,-7.0,-1.0,3.0,1.0,6.0,9.0
1701873952.0173714,0.0,5.0,17.0,1.0,-2.0,-4.0,-1.0,-2.0
1701873952.0232184,-5.0,-12.0,-7.0,-16.0,-11.0,-7.0,-8.0,-8.0
1701873952.0232184,5.0,3.0,-6.0,0.0,-7.0,-4.0,1.0,4.0
1701873952.0232184,-4.0,-3.0,-9.0,-2.0,4.0,4.0,3.0,0.0
1701873952.0232184,2.0,5.0,2.0,1.0,0.0,-5.0,-4.0,-2.0
1701873952.024257,3.0,0.0,2.0,6.0,2.0,3.0,1.0,0.0
1701873952.024257,-5.0,2.0,0.0,2.0,2.0,0.0,-1.0,-2.0
1701873952.024257,1.0,7.0,1.0,10.0,3.0,2.0,-1.0,-3.0
1701873952.024257,-6.0,-13.0,-4.0,-11.0,1.0,1.0,2.0,2.0
1701873952.0651708,5.0,-12.0,-7.0,-6.0,-3.0,1.0,2.0,2.0
1701873952.0651708,2.0,-5.0,-4.0,-6.0,-10.0,-8.0,-5.0,-2.0
1701873952.0798504,6.0,37.0,7.0,3.0,-15.0,-9.0,-6.0,-4.0
1701873952.0798504,-22.0,-60.0,-14.0,4.0,-1.0,-1.0,-3.0,-6.0
1701873952.0900989,7.0,7.0,4.0,4.0,31.0,17.0,6.0,6.0
1701873952.0910976,-8.0,-3.0,-3.0,-7.0,-1.0,1.0,-1.0,-4.0
1701873952.0910976,-4.0,-16.0,-4.0,-4.0,-5.0,-8.0,-5.0,-4.0
1701873952.0910976,8.0,7.0,-2.0,3.0,-10.0,-9.0,0.0,3.0
1701873952.0910976,-2.0,1.0,-6.0,-16.0,-12.0,-4.0,-2.0,-4.0
1701873952.0910976,-8.0,-7.0,2.0,8.0,13.0,6.0,-3.0,-8.0
1701873952.0910976,4.0,-6.0,4.0,2.0,1.0,1.0,2.0,4.0
1701873952.0910976,0.0,24.0,2.0,-2.0,-5.0,2.0,1.0,2.0
1701873952.114893,-3.0,-20.0,-7.0,-2.0,-8.0,-7.0,-9.0,-9.0
1701873952.114893,2.0,3.0,2.0,4.0,-3.0,-3.0,3.0,5.0
1701873952.1305797,-10.0,-6.0,-3.0,-2.0,-3.0,-5.0,-3.0,-6.0
1701873952.132606,3.0,4.0,0.0,1.0,10.0,7.0,3.0,0.0
1701873952.1600728,2.0,10.0,-5.0,2.0,7.0,10.0,6.0,10.0
1701873952.1600728,3.0,3.0,11.0,7.0,2.0,0.0,-2.0,-1.0
1701873952.1600728,-4.0,-7.0,20.0,3.0,-15.0,-14.0,-6.0,-5.0
1701873952.1600728,4.0,7.0,-11.0,-7.0,-5.0,-2.0,0.0,0.0
1701873952.161071,1.0,13.0,6.0,6.0,-2.0,1.0,-3.0,-4.0
1701873952.161071,-9.0,-45.0,-30.0,-14.0,-1.0,2.0,1.0,5.0
1701873952.161071,0.0,-8.0,-3.0,-6.0,8.0,4.0,-2.0,1.0
1701873952.161071,6.0,14.0,5.0,1.0,6.0,4.0,2.0,1.0
1701873952.190703,2.0,7.0,-7.0,-6.0,-7.0,-3.0,0.0,3.0
1701873952.190703,-4.0,5.0,29.0,21.0,4.0,-1.0,-5.0,-6.0
1701873952.1917028,-4.0,-7.0,-17.0,-16.0,-10.0,-11.0,-9.0,-22.0
1701873952.1917028,-4.0,8.0,-2.0,1.0,-3.0,1.0,1.0,-9.0
1701873952.193317,-11.0,-13.0,-16.0,-7.0,0.0,-5.0,-5.0,-6.0
1701873952.193317,4.0,19.0,8.0,-2.0,-1.0,0.0,0.0,1.0
1701873952.1943154,5.0,-1.0,1.0,7.0,4.0,8.0,6.0,14.0
1701873952.1943154,1.0,2.0,-6.0,3.0,10.0,-2.0,-5.0,-1.0
1701873952.2062323,-3.0,-2.0,4.0,2.0,3.0,-1.0,1.0,-4.0
1701873952.2062323,-1.0,3.0,-9.0,-14.0,-8.0,-2.0,0.0,1.0
1701873952.2062323,0.0,-14.0,-19.0,-11.0,-9.0,-2.0,1.0,3.0
1701873952.2062323,-9.0,-4.0,19.0,1.0,-9.0,-7.0,-3.0,-5.0
1701873952.2463458,-2.0,-4.0,3.0,5.0,2.0,-1.0,1.0,4.0
1701873952.2463458,6.0,2.0,-2.0,-7.0,-4.0,-3.0,-6.0,-2.0
1701873952.2463458,-5.0,1.0,1.0,6.0,5.0,3.0,1.0,1.0
1701873952.2463458,19.0,-14.0,-15.0,-2.0,-1.0,-1.0,-3.0,-2.0
1701873952.247345,-8.0,11.0,5.0,-1.0,0.0,1.0,-4.0,-3.0
1701873952.247345,-1.0,3.0,4.0,-3.0,-11.0,-7.0,0.0,-3.0
1701873952.247345,-7.0,4.0,4.0,7.0,1.0,-1.0,0.0,0.0
1701873952.247345,0.0,-12.0,-6.0,-1.0,7.0,5.0,1.0,5.0
1701873952.2669373,-5.0,-14.0,-15.0,-21.0,-7.0,1.0,0.0,-6.0
1701873952.2669373,3.0,12.0,-2.0,14.0,10.0,1.0,2.0,1.0
1701873952.2669373,7.0,-9.0,-16.0,-17.0,-12.0,-7.0,-1.0,2.0
1701873952.2669373,-12.0,11.0,18.0,26.0,7.0,5.0,0.0,1.0
1701873952.3105364,1.0,-5.0,9.0,-5.0,25.0,2.0,-4.0,-3.0
1701873952.3105364,-4.0,3.0,-6.0,-18.0,-10.0,-6.0,-4.0,-4.0
1701873952.3105364,0.0,-5.0,1.0,6.0,-5.0,-5.0,-3.0,-2.0
1701873952.3105364,4.0,13.0,-7.0,-9.0,-11.0,-7.0,-3.0,-2.0
1701873952.312573,-4.0,1.0,0.0,8.0,-15.0,-7.0,-1.0,-4.0
1701873952.312573,0.0,-7.0,2.0,7.0,5.0,3.0,2.0,0.0
1701873952.312573,-1.0,2.0,4.0,9.0,22.0,8.0,2.0,2.0
1701873952.312573,0.0,-1.0,-14.0,-20.0,-1.0,0.0,3.0,11.0
1701873952.3263724,-4.0,-1.0,14.0,6.0,-9.0,-7.0,-10.0,-18.0
1701873952.3263724,4.0,-2.0,1.0,13.0,-8.0,-9.0,-4.0,0.0
1701873952.3263724,-1.0,1.0,-13.0,-17.0,-14.0,-1.0,1.0,-3.0
1701873952.3263724,-2.0,1.0,13.0,-5.0,6.0,5.0,5.0,3.0
1701873952.3704116,-5.0,-1.0,16.0,25.0,15.0,6.0,2.0,4.0
1701873952.3704116,2.0,-8.0,-26.0,-22.0,18.0,4.0,5.0,21.0
1701873952.3704116,-7.0,11.0,-5.0,0.0,3.0,-3.0,-11.0,-30.0
1701873952.3704116,-2.0,-30.0,-9.0,-14.0,-30.0,-18.0,-8.0,-3.0
1701873952.3714478,5.0,15.0,13.0,9.0,-26.0,-10.0,2.0,4.0
1701873952.3714478,-5.0,-2.0,4.0,4.0,30.0,16.0,7.0,1.0
1701873952.3714478,3.0,-5.0,-2.0,1.0,12.0,10.0,7.0,12.0
1701873952.3714478,-2.0,-3.0,-2.0,2.0,-10.0,-10.0,-6.0,-7.0
1701873952.3890257,-4.0,0.0,1.0,-6.0,-11.0,-7.0,-3.0,-2.0
1701873952.3890257,-9.0,-1.0,6.0,6.0,5.0,3.0,-3.0,-5.0
1701873952.3900251,16.0,4.0,8.0,9.0,-7.0,-7.0,1.0,7.0
1701873952.3900251,-7.0,-10.0,-23.0,-45.0,-16.0,1.0,-1.0,-10.0
1701873952.4069545,-9.0,-4.0,-8.0,3.0,-1.0,-8.0,-2.0,-1.0
1701873952.4069545,4.0,8.0,-15.0,-10.0,-12.0,1.0,1.0,-5.0
1701873952.4069545,-10.0,-6.0,35.0,25.0,13.0,6.0,1.0,-1.0
1701873952.4069545,1.0,11.0,23.0,26.0,8.0,2.0,-3.0,1.0
1701873952.470532,6.0,-7.0,-26.0,-27.0,-7.0,-4.0,2.0,1.0
1701873952.470532,-2.0,2.0,14.0,18.0,5.0,-1.0,-1.0,-8.0
1701873952.470532,-5.0,-8.0,-24.0,-21.0,-6.0,-4.0,-3.0,-1.0
1701873952.470532,-1.0,6.0,7.0,-3.0,-3.0,-5.0,-1.0,0.0
1701873952.516874,2.0,-3.0,-16.0,-12.0,7.0,7.0,3.0,1.0
1701873952.516874,1.0,-3.0,2.0,6.0,-11.0,-9.0,-6.0,-4.0
1701873952.516874,-2.0,-3.0,2.0,-3.0,-15.0,-11.0,-9.0,-4.0
1701873952.516874,-1.0,9.0,-1.0,3.0,-4.0,1.0,0.0,-1.0
1701873952.516874,5.0,-4.0,-7.0,11.0,18.0,8.0,3.0,1.0
1701873952.516874,-9.0,-5.0,13.0,2.0,4.0,1.0,-1.0,-5.0
1701873952.516874,1.0,-4.0,-4.0,-9.0,0.0,-4.0,-1.0,0.0
1701873952.516874,-3.0,2.0,-8.0,-15.0,9.0,-2.0,-3.0,0.0
1701873952.516874,3.0,3.0,-15.0,-17.0,-14.0,-3.0,0.0,3.0
1701873952.516874,8.0,6.0,17.0,19.0,-13.0,-4.0,-1.0,0.0
1701873952.516874,-4.0,5.0,21.0,3.0,-11.0,-12.0,-5.0,-3.0
1701873952.516874,-6.0,-3.0,-22.0,-4.0,14.0,10.0,1.0,-5.0
1701873952.533434,2.0,5.0,-12.0,-3.0,3.0,-1.0,0.0,0.0
1701873952.533434,-4.0,-12.0,-11.0,-18.0,-13.0,-6.0,-4.0,-4.0
1701873952.533434,-5.0,5.0,51.0,31.0,0.0,1.0,-2.0,-5.0
1701873952.533434,11.0,11.0,-3.0,10.0,-4.0,-5.0,3.0,6.0
1701873952.5354357,-10.0,-18.0,-3.0,-9.0,3.0,7.0,-1.0,-3.0
1701873952.5354357,0.0,1.0,-28.0,-19.0,2.0,3.0,2.0,1.0
1701873952.5354357,-3.0,-7.0,-17.0,-7.0,6.0,3.0,1.0,0.0
1701873952.5354357,0.0,1.0,11.0,8.0,1.0,1.0,0.0,-1.0
1701873952.5494258,-5.0,-4.0,17.0,16.0,-4.0,0.0,-6.0,-2.0
1701873952.5494258,4.0,2.0,-6.0,-4.0,1.0,-7.0,-2.0,-1.0
1701873952.5494258,0.0,-6.0,-16.0,-14.0,-8.0,1.0,3.0,5.0
1701873952.5494258,-1.0,0.0,10.0,15.0,4.0,0.0,0.0,-2.0
1701873952.6059399,1.0,2.0,5.0,-12.0,-15.0,-8.0,-2.0,0.0
1701873952.6059399,1.0,1.0,2.0,0.0,-3.0,0.0,0.0,2.0
1701873952.6059399,-5.0,4.0,-17.0,-9.0,4.0,5.0,3.0,1.0
1701873952.6059399,4.0,-1.0,-8.0,-8.0,-6.0,-3.0,-2.0,1.0
1701873952.606982,-3.0,5.0,28.0,21.0,-9.0,-7.0,-3.0,-5.0
1701873952.606982,-6.0,-12.0,1.0,8.0,13.0,1.0,-3.0,-6.0
1701873952.6071608,-2.0,-1.0,-13.0,-10.0,2.0,0.0,-2.0,-1.0
1701873952.6071608,0.0,-3.0,-6.0,-2.0,1.0,0.0,-2.0,-4.0
1701873952.6500251,7.0,8.0,4.0,5.0,2.0,3.0,0.0,2.0
1701873952.6500251,4.0,12.0,1.0,0.0,1.0,3.0,-1.0,0.0
1701873952.6500251,0.0,-6.0,-10.0,-5.0,-1.0,-1.0,-1.0,-1.0
1701873952.6500251,-5.0,-12.0,-7.0,-9.0,1.0,-2.0,-1.0,-1.0
1701873952.6500251,-1.0,2.0,23.0,5.0,3.0,-4.0,-6.0,-1.0
1701873952.6500251,-4.0,-3.0,-8.0,2.0,-8.0,-6.0,-5.0,-2.0
1701873952.6510243,-1.0,-3.0,-5.0,-22.0,-11.0,-5.0,-4.0,-2.0
1701873952.6510243,-4.0,-2.0,-9.0,1.0,-6.0,-4.0,0.0,-2.0
1701873952.6510243,2.0,3.0,4.0,3.0,0.0,-2.0,0.0,1.0
1701873952.6510243,-2.0,-3.0,5.0,21.0,25.0,19.0,8.0,2.0
1701873952.6519232,2.0,0.0,-2.0,1.0,9.0,7.0,3.0,2.0
1701873952.6519232,0.0,-1.0,-4.0,-9.0,4.0,0.0,0.0,0.0
1701873952.6749063,-3.0,-5.0,-10.0,-16.0,-14.0,-6.0,-4.0,-5.0
1701873952.6749063,-4.0,-1.0,-2.0,-9.0,-12.0,-14.0,-6.0,-4.0
1701873952.6759055,4.0,2.0,-2.0,9.0,-3.0,0.0,-1.0,1.0
1701873952.6759055,-2.0,1.0,-8.0,-1.0,5.0,5.0,1.0,-1.0
1701873952.732332,1.0,1.0,6.0,6.0,4.0,4.0,2.0,3.0
1701873952.732332,1.0,3.0,15.0,-2.0,-26.0,-11.0,-6.0,-4.0
1701873952.7356374,-2.0,1.0,-1.0,5.0,11.0,4.0,2.0,0.0
1701873952.7356374,-3.0,-15.0,-8.0,-8.0,7.0,0.0,0.0,-2.0
1701873952.7356374,0.0,-3.0,-17.0,-10.0,-4.0,-2.0,-1.0,-3.0
1701873952.7356374,3.0,-1.0,-7.0,-4.0,-8.0,1.0,1.0,2.0
1701873952.7356374,-1.0,1.0,4.0,18.0,15.0,7.0,1.0,2.0
1701873952.7356374,-4.0,-5.0,10.0,-3.0,-5.0,-1.0,-3.0,-2.0
1701873952.7813425,4.0,9.0,-9.0,-4.0,17.0,8.0,3.0,1.0
1701873952.7813425,-4.0,-13.0,2.0,-8.0,-13.0,-6.0,-4.0,-3.0
1701873952.7813425,2.0,2.0,-3.0,-6.0,-13.0,-10.0,-2.0,-2.0
1701873952.7813425,-3.0,2.0,6.0,6.0,-1.0,1.0,1.0,-3.0
1701873952.7813425,-3.0,-3.0,-2.0,-1.0,-4.0,-5.0,-5.0,-1.0
1701873952.7813425,-1.0,2.0,-9.0,-16.0,-9.0,-9.0,-4.0,-4.0
1701873952.7813425,1.0,-3.0,-12.0,1.0,4.0,5.0,3.0,2.0
1701873952.7813425,6.0,5.0,3.0,8.0,20.0,11.0,3.0,1.0
1701873952.7813425,-10.0,-9.0,38.0,13.0,-5.0,-13.0,-7.0,-9.0
1701873952.7813425,4.0,4.0,-19.0,-11.0,-9.0,-4.0,-3.0,-1.0
1701873952.7813425,-2.0,-2.0,17.0,7.0,-1.0,0.0,0.0,0.0
1701873952.7813425,1.0,-4.0,-28.0,-11.0,9.0,5.0,3.0,4.0
1701873952.8318748,-4.0,-9.0,-14.0,-16.0,8.0,3.0,1.0,-1.0
1701873952.8318748,-5.0,0.0,3.0,-2.0,-5.0,-5.0,-2.0,-4.0
1701873952.8318748,-3.0,-3.0,7.0,-8.0,-11.0,-5.0,-1.0,-3.0
1701873952.8318748,2.0,7.0,19.0,19.0,-7.0,-2.0,-2.0,0.0
1701873952.8318748,5.0,6.0,-8.0,15.0,12.0,7.0,4.0,3.0
1701873952.8318748,1.0,10.0,9.0,-2.0,4.0,1.0,0.0,0.0
1701873952.8318748,-4.0,-12.0,-20.0,-12.0,-3.0,-1.0,-3.0,-3.0
1701873952.8318748,-4.0,-2.0,3.0,-1.0,-14.0,-12.0,-8.0,-7.0
1701873952.8354304,-7.0,-11.0,-9.0,-3.0,-4.0,-3.0,2.0,0.0
1701873952.8354304,3.0,5.0,13.0,6.0,9.0,5.0,1.0,0.0
1701873952.8354304,1.0,2.0,0.0,-2.0,4.0,2.0,3.0,1.0
1701873952.8354304,1.0,6.0,6.0,0.0,-5.0,-4.0,-2.0,-1.0
1701873952.8974366,-1.0,-4.0,-20.0,-16.0,-5.0,2.0,-1.0,-3.0
1701873952.8974366,-3.0,-4.0,-12.0,5.0,-3.0,4.0,2.0,-1.0
1701873952.8974366,-4.0,-3.0,39.0,25.0,17.0,-1.0,-4.0,-4.0
1701873952.8974366,-2.0,-4.0,-25.0,-17.0,-5.0,-6.0,-1.0,-1.0
1701873952.8974366,2.0,4.0,7.0,-8.0,-15.0,-6.0,-3.0,0.0
1701873952.8974366,-1.0,-1.0,-5.0,-1.0,1.0,3.0,3.0,0.0
1701873952.8974366,-1.0,-3.0,-22.0,-8.0,11.0,7.0,1.0,1.0
1701873952.8974366,0.0,4.0,15.0,14.0,-2.0,-4.0,-1.0,2.0
1701873952.9168093,1.0,-4.0,-16.0,-7.0,3.0,4.0,-1.0,0.0
1701873952.9188092,-4.0,-7.0,-4.0,-3.0,-4.0,-4.0,-2.0,1.0
1701873952.9301326,-2.0,3.0,16.0,0.0,-17.0,-15.0,-4.0,-5.0
1701873952.931132,-2.0,-3.0,-3.0,-8.0,-4.0,-2.0,-2.0,-3.0
1701873952.935253,-7.0,-4.0,-7.0,5.0,2.0,-4.0,0.0,0.0
1701873952.935253,3.0,-1.0,8.0,2.0,-1.0,-1.0,-1.0,-1.0
1701873952.935253,8.0,-6.0,-21.0,-12.0,2.0,6.0,1.0,1.0
1701873952.935253,0.0,4.0,23.0,16.0,4.0,-3.0,-6.0,-8.0
1701873952.935253,0.0,-3.0,16.0,8.0,-6.0,-5.0,-2.0,-3.0
1701873952.935253,-5.0,-5.0,-25.0,-16.0,-12.0,-7.0,-1.0,-2.0
1701873952.936255,-5.0,1.0,-11.0,5.0,10.0,4.0,4.0,1.0
1701873952.9369972,-2.0,-1.0,-9.0,-12.0,-4.0,2.0,1.0,2.0
1701873952.9609237,18.0,-1.0,-10.0,8.0,15.0,9.0,5.0,4.0
1701873952.9609237,-18.0,1.0,59.0,17.0,-3.0,-10.0,-6.0,-9.0
1701873952.9805121,9.0,0.0,-12.0,-12.0,-24.0,-10.0,-4.0,1.0
1701873952.9805121,-8.0,-2.0,4.0,6.0,10.0,8.0,1.0,-8.0
1701873953.0017617,-3.0,-4.0,-48.0,-13.0,18.0,15.0,6.0,0.0
1701873953.0017617,-9.0,4.0,81.0,33.0,-10.0,-21.0,-18.0,-6.0
1701873953.0017617,-7.0,-12.0,-46.0,-30.0,-15.0,-9.0,-4.0,-3.0
1701873953.0017617,-18.0,13.0,52.0,17.0,-19.0,1.0,10.0,7.0
1701873953.0017617,19.0,3.0,-20.0,-12.0,-4.0,-12.0,-13.0,7.0
1701873953.0017617,18.0,-17.0,-51.0,-14.0,30.0,24.0,21.0,-6.0
1701873953.002767,-8.0,1.0,-24.0,-2.0,9.0,25.0,20.0,5.0
1701873953.003767,12.0,3.0,-50.0,-11.0,-1.0,-3.0,-6.0,3.0
1701873953.0291564,-21.0,7.0,96.0,37.0,-13.0,-11.0,-8.0,-7.0
1701873953.0291564,-3.0,-2.0,-8.0,-16.0,-20.0,-21.0,-20.0,-2.0
1701873953.0291564,2.0,2.0,9.0,-5.0,-7.0,-9.0,-10.0,-5.0
1701873953.0291564,3.0,-3.0,-10.0,-1.0,4.0,7.0,10.0,1.0
1701873953.0301883,-2.0,1.0,-12.0,2.0,1.0,4.0,0.0,-1.0
1701873953.0301883,6.0,1.0,-22.0,-11.0,23.0,16.0,5.0,6.0
1701873953.0301883,-1.0,3.0,42.0,26.0,-5.0,-4.0,-1.0,-2.0
1701873953.0349355,2.0,-11.0,-19.0,-10.0,-4.0,-4.0,-2.0,1.0
1701873953.0574098,-2.0,12.0,41.0,8.0,-16.0,-14.0,-7.0,-5.0
1701873953.0574098,0.0,-15.0,-39.0,-15.0,1.0,8.0,7.0,0.0
1701873953.057853,1.0,14.0,2.0,1.0,4.0,2.0,1.0,2.0
1701873953.057853,-7.0,-22.0,-19.0,-16.0,-6.0,-13.0,-11.0,-5.0
1701873953.0941026,-5.0,-20.0,-12.0,-12.0,-1.0,4.0,2.0,-10.0
1701873953.095535,2.0,14.0,-28.0,-8.0,-1.0,-11.0,-11.0,9.0
1701873953.1151905,-6.0,-4.0,20.0,2.0,-3.0,9.0,16.0,-19.0
1701873953.1183188,3.0,-1.0,12.0,11.0,2.0,-3.0,-8.0,6.0
1701873953.121039,2.0,-4.0,-6.0,-6.0,0.0,19.0,30.0,12.0
1701873953.121039,5.0,3.0,-13.0,-2.0,1.0,-3.0,-6.0,1.0
1701873953.121039,-2.0,-6.0,1.0,3.0,-3.0,3.0,8.0,5.0
1701873953.121039,7.0,11.0,-10.0,-10.0,-6.0,-13.0,-13.0,0.0
1701873953.1377716,-6.0,-6.0,-16.0,-4.0,-2.0,-12.0,-11.0,-7.0
1701873953.1377716,-3.0,-2.0,18.0,5.0,0.0,-5.0,-10.0,1.0
1701873953.1507487,1.0,2.0,-12.0,-5.0,-3.0,-10.0,-16.0,-1.0
1701873953.1507487,-7.0,-7.0,15.0,2.0,2.0,2.0,3.0,-11.0
1701873953.1664708,-1.0,1.0,-12.0,-4.0,-1.0,-2.0,-4.0,1.0
1701873953.1664708,-3.0,2.0,15.0,10.0,-7.0,-4.0,3.0,-5.0
1701873953.1664708,8.0,11.0,22.0,3.0,10.0,3.0,-2.0,4.0
1701873953.1664708,-6.0,-20.0,-35.0,-6.0,1.0,7.0,3.0,-2.0
1701873953.1698174,-4.0,-4.0,-8.0,-15.0,-11.0,-14.0,-11.0,-6.0
1701873953.1698174,0.0,2.0,-3.0,-3.0,-3.0,8.0,10.0,0.0
1701873953.1698174,3.0,19.0,27.0,6.0,6.0,2.0,-1.0,2.0
1701873953.1698174,-7.0,-30.0,-25.0,-1.0,-2.0,-4.0,-6.0,-2.0
1701873953.1837387,-5.0,-9.0,-7.0,-9.0,1.0,-1.0,-4.0,-6.0
1701873953.185836,-2.0,-5.0,-28.0,-14.0,-8.0,-1.0,2.0,-4.0
1701873953.1998837,-2.0,5.0,26.0,10.0,3.0,-8.0,-10.0,1.0
1701873953.1998837,3.0,14.0,12.0,5.0,5.0,5.0,4.0,2.0
1701873953.2306073,2.0,5.0,-1.0,3.0,3.0,0.0,2.0,1.0
1701873953.2306073,-3.0,-5.0,-13.0,3.0,-6.0,-1.0,4.0,0.0
1701873953.2306073,2.0,-11.0,-2.0,3.0,-7.0,-7.0,-4.0,3.0
1701873953.2306073,-15.0,-28.0,-43.0,-48.0,-17.0,-12.0,-13.0,-18.0
1701873953.2316017,-3.0,-7.0,-9.0,5.0,6.0,4.0,-2.0,-7.0
1701873953.2316017,4.0,13.0,27.0,15.0,10.0,2.0,-2.0,1.0
1701873953.2316017,-9.0,-5.0,-15.0,-16.0,-7.0,-6.0,-3.0,-3.0
1701873953.2316017,8.0,8.0,3.0,6.0,2.0,10.0,20.0,12.0
1701873953.2447171,4.0,16.0,31.0,9.0,-7.0,-8.0,-9.0,4.0
1701873953.2457216,-11.0,-8.0,-4.0,3.0,-3.0,-2.0,-5.0,-13.0
1701873953.2583776,-5.0,-6.0,-13.0,3.0,9.0,5.0,0.0,1.0
1701873953.2597628,10.0,12.0,6.0,9.0,7.0,0.0,-1.0,7.0
1701873953.2777808,4.0,-4.0,10.0,6.0,8.0,0.0,-1.0,0.0
1701873953.2777808,-2.0,6.0,9.0,-4.0,-13.0,-5.0,-3.0,-3.0
1701873953.2777808,-9.0,-8.0,-25.0,-11.0,-5.0,-5.0,-5.0,-7.0
1701873953.2788205,5.0,11.0,40.0,14.0,10.0,5.0,2.0,1.0
1701873953.2788205,-5.0,-25.0,-22.0,-5.0,-5.0,-3.0,1.0,1.0
1701873953.2788205,-2.0,-7.0,-9.0,-14.0,-4.0,-3.0,0.0,-1.0
1701873953.2788205,0.0,-7.0,-7.0,-8.0,-7.0,-1.0,-4.0,-2.0
1701873953.2788205,1.0,16.0,25.0,14.0,3.0,4.0,2.0,1.0
1701873953.3014784,4.0,4.0,-7.0,11.0,18.0,16.0,7.0,4.0
1701873953.3014784,-2.0,3.0,8.0,-12.0,0.0,5.0,-1.0,-5.0
1701873953.3014784,0.0,-7.0,-9.0,-4.0,-2.0,-6.0,-1.0,0.0
1701873953.3014784,3.0,5.0,13.0,10.0,-6.0,-3.0,0.0,1.0
1701873953.3498924,-4.0,5.0,-7.0,-4.0,-7.0,-4.0,2.0,-3.0
1701873953.3498924,-7.0,-13.0,-11.0,-6.0,-4.0,-5.0,-12.0,-5.0
1701873953.3498924,8.0,14.0,6.0,-3.0,-14.0,-4.0,0.0,3.0
1701873953.3498924,-1.0,3.0,2.0,12.0,30.0,10.0,2.0,-1.0
1701873953.3544333,0.0,7.0,5.0,-1.0,3.0,4.0,3.0,1.0
1701873953.3544333,-1.0,-10.0,-12.0,-10.0,3.0,6.0,8.0,6.0
1701873953.3544333,-7.0,-8.0,11.0,7.0,-6.0,-9.0,-9.0,-5.0
1701873953.3544333,-3.0,-4.0,-29.0,-18.0,-20.0,-10.0,-6.0,-5.0
1701873953.3971288,-2.0,5.0,21.0,2.0,-1.0,4.0,1.0,-2.0
1701873953.3971288,2.0,3.0,-8.0,1.0,2.0,-1.0,0.0,-2.0
1701873953.3971288,-1.0,-9.0,-14.0,-12.0,-9.0,-3.0,-6.0,-3.0
1701873953.3971288,3.0,5.0,15.0,10.0,3.0,1.0,2.0,1.0
1701873953.3971288,0.0,2.0,-3.0,-5.0,3.0,1.0,-1.0,2.0
1701873953.3971288,0.0,0.0,3.0,6.0,-1.0,-2.0,-3.0,1.0
1701873953.3971288,0.0,-4.0,-22.0,-6.0,7.0,4.0,1.0,2.0
1701873953.3971288,-5.0,4.0,26.0,4.0,-4.0,-6.0,-3.0,-5.0
1701873953.3971288,-1.0,-4.0,-13.0,-9.0,-8.0,-6.0,-4.0,2.0
1701873953.3971288,-1.0,-2.0,4.0,-3.0,-7.0,-4.0,2.0,-2.0
1701873953.3971288,4.0,10.0,3.0,5.0,3.0,4.0,2.0,0.0
1701873953.3971288,-2.0,-30.0,-7.0,4.0,9.0,4.0,0.0,-2.0
1701873953.4393804,7.0,16.0,-15.0,-10.0,-5.0,-4.0,-5.0,-5.0
1701873953.4393804,4.0,11.0,4.0,5.0,7.0,6.0,6.0,4.0
1701873953.4393804,-19.0,16.0,22.0,2.0,-7.0,-8.0,-6.0,-8.0
1701873953.4396966,-7.0,-27.0,-18.0,-8.0,-12.0,-6.0,-2.0,-3.0
1701873953.4396966,-2.0,-6.0,17.0,11.0,-6.0,-3.0,-4.0,2.0
1701873953.4396966,13.0,6.0,-27.0,-1.0,-10.0,-3.0,-2.0,-3.0
1701873953.440093,-20.0,-18.0,24.0,6.0,6.0,1.0,-4.0,-9.0
1701873953.440093,2.0,12.0,4.0,-3.0,4.0,-4.0,0.0,2.0
1701873953.4803479,-5.0,-1.0,0.0,2.0,4.0,4.0,2.0,1.0
1701873953.4813476,-2.0,-8.0,-10.0,-11.0,-9.0,-3.0,1.0,5.0
1701873953.4813476,6.0,9.0,3.0,1.0,-1.0,-3.0,-5.0,-1.0
1701873953.4813476,-5.0,7.0,10.0,-1.0,-10.0,0.0,-1.0,-3.0
1701873953.4813476,8.0,1.0,-7.0,7.0,13.0,8.0,4.0,0.0
1701873953.4813476,-4.0,-5.0,24.0,10.0,2.0,-4.0,1.0,2.0
1701873953.4813476,5.0,-14.0,-22.0,-16.0,-5.0,-3.0,0.0,-1.0
1701873953.4813476,0.0,5.0,5.0,-3.0,-5.0,-1.0,-4.0,-2.0
1701873953.4908063,-1.0,2.0,-9.0,-6.0,-3.0,-4.0,-4.0,-1.0
1701873953.4918056,-5.0,0.0,9.0,6.0,5.0,5.0,6.0,0.0
1701873953.4918056,7.0,-8.0,-25.0,-5.0,5.0,2.0,2.0,7.0
1701873953.4918056,-5.0,10.0,9.0,1.0,-5.0,-3.0,-1.0,-9.0
1701873953.5388663,-8.0,-7.0,5.0,-1.0,-8.0,-4.0,1.0,2.0
1701873953.5388663,-5.0,-10.0,-28.0,-15.0,5.0,3.0,-3.0,-9.0
1701873953.5388663,5.0,1.0,18.0,13.0,8.0,2.0,4.0,8.0
1701873953.5388663,1.0,5.0,10.0,6.0,-3.0,-7.0,-12.0,-17.0
1701873953.5388663,-3.0,-10.0,-35.0,-19.0,-5.0,-5.0,1.0,2.0
1701873953.5388663,-7.0,3.0,43.0,18.0,-2.0,-7.0,-3.0,-7.0
1701873953.5388663,2.0,-9.0,-62.0,-22.0,-5.0,-2.0,-4.0,-9.0
1701873953.5398667,0.0,17.0,103.0,47.0,-4.0,-5.0,2.0,13.0
1701873953.5499861,2.0,-8.0,-55.0,-29.0,-2.0,-3.0,-3.0,-4.0
1701873953.5499861,5.0,20.0,26.0,15.0,0.0,-5.0,-8.0,-2.0
1701873953.5519843,-10.0,-27.0,-33.0,-9.0,1.0,10.0,11.0,-6.0
1701873953.5519843,4.0,-9.0,-10.0,-10.0,0.0,4.0,2.0,5.0
1701873953.616601,-3.0,12.0,36.0,21.0,5.0,0.0,-6.0,-6.0
1701873953.616601,17.0,3.0,-30.0,-11.0,12.0,9.0,6.0,18.0
1701873953.616601,-5.0,13.0,22.0,6.0,-3.0,-6.0,-5.0,-11.0
1701873953.616601,1.0,-8.0,-48.0,-30.0,-6.0,-4.0,-3.0,3.0
1701873953.616601,-5.0,-5.0,3.0,-4.0,-11.0,-6.0,-3.0,-6.0
1701873953.616601,-6.0,-9.0,3.0,0.0,-5.0,-4.0,-3.0,-5.0
1701873953.616601,10.0,1.0,10.0,8.0,3.0,1.0,2.0,9.0
1701873953.616601,-2.0,4.0,-6.0,7.0,8.0,12.0,10.0,1.0
1701873953.616601,-1.0,4.0,-11.0,-14.0,-1.0,-4.0,-2.0,2.0
1701873953.616601,-2.0,-3.0,4.0,15.0,-4.0,-2.0,-2.0,-3.0
1701873953.616601,-1.0,-11.0,-14.0,-24.0,-3.0,-2.0,-6.0,0.0
1701873953.6176004,0.0,18.0,-13.0,-11.0,0.0,-2.0,-3.0,-3.0
1701873953.6323235,-7.0,-39.0,6.0,9.0,-5.0,3.0,3.0,-3.0
1701873953.6323235,-5.0,-4.0,3.0,4.0,-7.0,-4.0,-4.0,-1.0
1701873953.6323235,-1.0,17.0,8.0,1.0,12.0,0.0,0.0,-1.0
1701873953.6323235,4.0,8.0,2.0,0.0,-8.0,-5.0,-7.0,0.0
1701873953.6840255,-6.0,-17.0,-19.0,-5.0,-5.0,-1.0,0.0,-1.0
1701873953.6840255,0.0,15.0,1.0,-7.0,-5.0,-6.0,-5.0,-8.0
1701873953.6840255,-6.0,-7.0,2.0,20.0,7.0,1.0,1.0,-2.0
1701873953.6840255,2.0,-1.0,-11.0,-10.0,4.0,3.0,0.0,0.0
1701873953.6840255,8.0,26.0,10.0,-8.0,6.0,5.0,2.0,3.0
1701873953.6840255,-4.0,-5.0,6.0,-1.0,-14.0,-4.0,-1.0,1.0
1701873953.6840255,-6.0,-17.0,-7.0,-4.0,-11.0,-6.0,-6.0,-5.0
1701873953.6840255,3.0,2.0,-12.0,8.0,6.0,8.0,4.0,3.0
1701873953.7260637,0.0,17.0,35.0,12.0,-4.0,-7.0,-5.0,-7.0
1701873953.7260637,2.0,0.0,-15.0,-1.0,11.0,7.0,4.0,3.0
1701873953.7260637,2.0,-2.0,-11.0,-13.0,-3.0,-2.0,1.0,3.0
1701873953.7260637,-3.0,-12.0,-4.0,2.0,-2.0,-3.0,-1.0,-4.0
1701873953.7260637,-2.0,-4.0,2.0,1.0,-3.0,-3.0,-1.0,0.0
1701873953.7260637,2.0,1.0,3.0,-2.0,5.0,2.0,1.0,2.0
1701873953.7260637,3.0,10.0,16.0,9.0,-9.0,-2.0,-1.0,4.0
1701873953.7260637,-2.0,-10.0,-15.0,-9.0,1.0,-1.0,-1.0,2.0
1701873953.7344618,-5.0,0.0,-14.0,-7.0,-9.0,-8.0,-7.0,-13.0
1701873953.7356412,-2.0,-5.0,11.0,1.0,-7.0,-1.0,2.0,-2.0
1701873953.7606747,6.0,1.0,10.0,13.0,27.0,15.0,7.0,4.0
1701873953.7616737,7.0,27.0,2.0,3.0,14.0,4.0,5.0,1.0
1701873953.7616737,-12.0,-10.0,-23.0,-18.0,-10.0,-7.0,-8.0,-2.0
1701873953.7616737,5.0,19.0,4.0,-2.0,-7.0,-6.0,-4.0,-2.0
1701873953.7616737,-8.0,-35.0,-12.0,-8.0,-17.0,-8.0,-4.0,-3.0
1701873953.7616737,-7.0,-1.0,10.0,2.0,-6.0,-8.0,-7.0,-4.0
1701873953.7717934,7.0,-9.0,4.0,8.0,8.0,9.0,9.0,7.0
1701873953.7717934,-6.0,-7.0,-9.0,4.0,6.0,3.0,-2.0,-2.0
1701873953.7717934,10.0,30.0,-10.0,-10.0,3.0,3.0,2.0,4.0
1701873953.7717934,-8.0,-15.0,-4.0,-6.0,-5.0,-8.0,-4.0,-2.0
1701873953.7888303,3.0,-2.0,4.0,6.0,-1.0,1.0,2.0,1.0
1701873953.7888303,1.0,-5.0,-19.0,-8.0,3.0,2.0,2.0,-2.0
1701873953.7987921,-2.0,9.0,29.0,7.0,-4.0,-3.0,2.0,5.0
1701873953.7987921,-6.0,-17.0,-35.0,-11.0,-7.0,-4.0,-15.0,-20.0
1701873953.810544,7.0,9.0,13.0,3.0,-1.0,-2.0,-1.0,0.0
1701873953.810544,-3.0,-10.0,0.0,4.0,4.0,0.0,-3.0,-1.0
1701873953.810544,1.0,11.0,10.0,7.0,-5.0,3.0,5.0,0.0
1701873953.810544,-13.0,-12.0,-13.0,-19.0,-2.0,-1.0,2.0,4.0
1701873953.87058,15.0,-5.0,2.0,6.0,12.0,5.0,4.0,6.0
1701873953.87058,0.0,1.0,-6.0,-10.0,-1.0,-4.0,-5.0,-7.0
1701873953.87058,-3.0,-4.0,-1.0,4.0,-2.0,-7.0,-8.0,-4.0
1701873953.87058,6.0,7.0,-3.0,9.0,-4.0,-1.0,3.0,3.0
1701873953.8784945,1.0,7.0,7.0,-2.0,1.0,3.0,-1.0,0.0
1701873953.8784945,-8.0,-21.0,-16.0,-13.0,-1.0,-3.0,3.0,2.0
1701873953.9067428,3.0,5.0,6.0,-4.0,-6.0,-6.0,-8.0,-8.0
1701873953.9067428,0.0,-7.0,10.0,7.0,1.0,0.0,-2.0,2.0
1701873953.9067428,-8.0,-4.0,3.0,5.0,-3.0,-1.0,1.0,2.0
1701873953.9067428,-5.0,16.0,-7.0,-11.0,-2.0,0.0,-2.0,-9.0
1701873953.9067428,-10.0,-5.0,1.0,-2.0,-2.0,-3.0,-5.0,-4.0
1701873953.9067428,18.0,0.0,-3.0,-3.0,3.0,2.0,5.0,16.0
1701873953.9067428,1.0,15.0,6.0,11.0,0.0,0.0,3.0,6.0
1701873953.9067428,-2.0,-11.0,6.0,-6.0,-3.0,0.0,-3.0,-5.0
1701873953.9067428,-13.0,-13.0,-21.0,-10.0,-5.0,-3.0,0.0,-11.0
1701873953.9067428,-1.0,-3.0,4.0,-1.0,-2.0,-4.0,0.0,5.0
1701873953.9399745,-4.0,3.0,2.0,-3.0,-3.0,-6.0,-7.0,-13.0
1701873953.9399745,3.0,-7.0,8.0,16.0,3.0,-1.0,3.0,8.0
1701873953.9456494,3.0,-5.0,0.0,-8.0,-1.0,2.0,1.0,2.0
1701873953.9456494,-18.0,-4.0,-3.0,-7.0,-2.0,0.0,0.0,-7.0
1701873953.9456494,-3.0,-1.0,-13.0,-6.0,-4.0,-3.0,-3.0,-4.0
1701873953.9456494,4.0,9.0,4.0,9.0,9.0,6.0,3.0,2.0
1701873953.9456494,3.0,-2.0,1.0,-3.0,-7.0,-8.0,-4.0,1.0
1701873953.9456494,2.0,5.0,18.0,13.0,10.0,8.0,4.0,-2.0
1701873953.958005,-1.0,3.0,16.0,6.0,2.0,-2.0,-2.0,-4.0
1701873953.958005,-6.0,-17.0,-53.0,-24.0,-7.0,-2.0,-1.0,2.0
1701873953.958005,7.0,8.0,-7.0,-4.0,-7.0,-12.0,-5.0,1.0
1701873953.958005,7.0,10.0,13.0,8.0,2.0,4.0,5.0,2.0
1701873953.9956887,4.0,3.0,3.0,-4.0,1.0,4.0,-5.0,1.0
1701873953.9956887,-15.0,3.0,19.0,7.0,2.0,-1.0,-4.0,-10.0
1701873953.9956887,13.0,19.0,4.0,3.0,3.0,-1.0,-1.0,6.0
1701873953.9956887,-17.0,6.0,-3.0,-1.0,-4.0,-5.0,-2.0,-4.0
1701873953.9956887,-4.0,-6.0,-4.0,1.0,1.0,1.0,-1.0,0.0
1701873953.9967515,11.0,9.0,3.0,-3.0,1.0,0.0,-1.0,9.0
1701873953.9967515,-8.0,-6.0,10.0,6.0,0.0,4.0,2.0,-8.0
1701873953.9967515,11.0,9.0,-3.0,-11.0,-4.0,-3.0,-4.0,-7.0
1701873954.0278864,1.0,19.0,16.0,12.0,3.0,1.0,2.0,6.0
1701873954.0278864,2.0,-6.0,-22.0,-3.0,-1.0,1.0,-1.0,6.0
1701873954.037699,-3.0,-4.0,-13.0,-22.0,-10.0,-3.0,-2.0,-4.0
1701873954.039966,26.0,23.0,19.0,9.0,2.0,0.0,-1.0,6.0
1701873954.056458,-31.0,-37.0,-28.0,-14.0,-10.0,-13.0,-5.0,-7.0
1701873954.056458,-11.0,5.0,30.0,8.0,1.0,0.0,2.0,-3.0
1701873954.056458,-7.0,-66.0,-16.0,13.0,7.0,4.0,0.0,-5.0
1701873954.056458,0.0,7.0,-14.0,-15.0,-10.0,-6.0,-2.0,-1.0
1701873954.056458,0.0,1.0,-10.0,-2.0,2.0,-1.0,-2.0,-3.0
1701873954.056458,-12.0,-12.0,8.0,0.0,-2.0,-7.0,-4.0,-2.0
1701873954.056458,-3.0,-18.0,-10.0,-3.0,-1.0,-1.0,-2.0,3.0
1701873954.056458,-6.0,-15.0,-10.0,-10.0,-13.0,-13.0,-8.0,-6.0
1701873954.0872378,5.0,-4.0,-2.0,-3.0,-6.0,2.0,2.0,3.0
1701873954.0872378,4.0,6.0,3.0,6.0,6.0,5.0,4.0,1.0
1701873954.0966945,-10.0,17.0,-6.0,4.0,10.0,1.0,5.0,3.0
1701873954.0966945,-1.0,-10.0,-20.0,-31.0,-10.0,-2.0,-4.0,-7.0
1701873954.109229,15.0,-47.0,-6.0,8.0,0.0,-4.0,0.0,4.0
1701873954.109229,3.0,30.0,6.0,-8.0,-8.0,-4.0,-3.0,-2.0
1701873954.109229,7.0,-8.0,10.0,2.0,-1.0,-2.0,-2.0,1.0
1701873954.109229,-8.0,12.0,7.0,12.0,4.0,2.0,0.0,1.0
1701873954.1129067,-10.0,-22.0,-10.0,-11.0,-2.0,-1.0,-3.0,-10.0
1701873954.1129067,6.0,29.0,21.0,17.0,1.0,2.0,2.0,2.0
1701873954.1129067,-4.0,12.0,-1.0,-6.0,-3.0,3.0,-6.0,-12.0
1701873954.1129067,2.0,-14.0,-5.0,-1.0,1.0,2.0,2.0,-1.0
1701873954.1526003,5.0,11.0,2.0,0.0,-1.0,-3.0,-3.0,4.0
1701873954.1526003,10.0,-20.0,-16.0,-7.0,-1.0,-4.0,4.0,8.0
1701873954.1536047,3.0,29.0,15.0,11.0,-2.0,-2.0,-3.0,-7.0
1701873954.1536047,-11.0,-17.0,-10.0,-9.0,-8.0,-6.0,1.0,1.0
1701873954.164916,-11.0,20.0,14.0,4.0,6.0,3.0,-3.0,-11.0
1701873954.164916,17.0,2.0,2.0,6.0,12.0,9.0,3.0,11.0
1701873954.164916,3.0,12.0,-15.0,-1.0,3.0,1.0,2.0,9.0
1701873954.164916,-5.0,-51.0,-3.0,2.0,-15.0,-11.0,-6.0,-9.0
1701873954.1687818,-27.0,52.0,14.0,0.0,3.0,1.0,1.0,-1.0
1701873954.1687818,-6.0,-48.0,-34.0,-30.0,9.0,-6.0,-5.0,-9.0
1701873954.1687818,-6.0,43.0,29.0,18.0,12.0,11.0,8.0,7.0
1701873954.1687818,1.0,2.0,14.0,2.0,-3.0,-9.0,-8.0,-4.0
1701873954.2302532,4.0,-1.0,-6.0,0.0,-18.0,-13.0,-2.0,-2.0
1701873954.2302532,-17.0,-53.0,-10.0,-14.0,-12.0,5.0,0.0,-13.0
1701873954.2302532,-18.0,-17.0,-3.0,5.0,8.0,7.0,4.0,-1.0
1701873954.2302532,-1.0,-50.0,-16.0,1.0,-1.0,-6.0,-4.0,-2.0
1701873954.2302532,22.0,86.0,18.0,8.0,8.0,11.0,9.0,11.0
1701873954.2302532,0.0,9.0,3.0,14.0,-6.0,-7.0,-3.0,-1.0
1701873954.2302532,22.0,-21.0,-6.0,-18.0,-11.0,-7.0,-4.0,3.0
1701873954.231306,-5.0,28.0,-7.0,2.0,8.0,11.0,8.0,-1.0
1701873954.231306,1.0,-61.0,-19.0,-13.0,-6.0,-12.0,-10.0,5.0
1701873954.231306,5.0,8.0,-2.0,5.0,1.0,5.0,0.0,-3.0
1701873954.231306,2.0,10.0,5.0,-1.0,-4.0,-1.0,0.0,1.0
1701873954.231306,3.0,4.0,2.0,9.0,11.0,8.0,5.0,2.0
1701873954.2914753,-1.0,-9.0,-9.0,-11.0,-4.0,-7.0,-5.0,0.0
1701873954.2914753,-2.0,18.0,-3.0,-9.0,-13.0,-17.0,-5.0,-4.0
1701873954.2914753,-16.0,-8.0,8.0,5.0,4.0,8.0,0.0,-2.0
1701873954.2914753,0.0,47.0,19.0,11.0,13.0,13.0,8.0,0.0
1701873954.2954051,-14.0,10.0,-7.0,0.0,5.0,0.0,0.0,-12.0
1701873954.2954051,-4.0,-1.0,5.0,0.0,-6.0,-5.0,-4.0,1.0
1701873954.2954051,10.0,7.0,-6.0,-6.0,-8.0,-4.0,-2.0,-1.0
1701873954.2954051,3.0,-19.0,-2.0,0.0,-7.0,-9.0,-5.0,-4.0
1701873954.3243392,-1.0,45.0,10.0,1.0,2.0,5.0,3.0,-1.0
1701873954.3243392,-6.0,-13.0,-8.0,-2.0,3.0,7.0,5.0,-2.0
1701873954.3243392,10.0,10.0,8.0,5.0,-3.0,-12.0,-1.0,5.0
1701873954.3243392,-14.0,9.0,-4.0,4.0,3.0,13.0,4.0,-9.0
1701873954.3283632,6.0,-23.0,-4.0,-12.0,-1.0,0.0,0.0,2.0
1701873954.3283632,0.0,3.0,11.0,9.0,5.0,1.0,-1.0,-1.0
1701873954.3283632,1.0,-10.0,-6.0,-2.0,-5.0,-8.0,-5.0,3.0
1701873954.3283632,16.0,-15.0,-6.0,-4.0,-13.0,-10.0,-5.0,3.0
1701873954.3314626,-7.0,-22.0,-17.0,-18.0,-2.0,5.0,0.0,-5.0
1701873954.3314626,1.0,14.0,7.0,9.0,14.0,7.0,-1.0,-2.0
1701873954.3314626,-7.0,-17.0,-9.0,-3.0,-3.0,0.0,-1.0,-6.0
1701873954.3314626,13.0,45.0,17.0,3.0,0.0,-4.0,-3.0,4.0
1701873954.3857505,-3.0,-14.0,1.0,12.0,10.0,8.0,-1.0,0.0
1701873954.3857505,5.0,5.0,8.0,3.0,2.0,1.0,0.0,-2.0
1701873954.3857505,1.0,29.0,-2.0,-8.0,-4.0,-2.0,-3.0,1.0
1701873954.3857505,-8.0,-14.0,0.0,-4.0,-6.0,-7.0,-3.0,6.0
1701873954.3857505,9.0,6.0,6.0,-3.0,-12.0,-7.0,0.0,-1.0
1701873954.3857505,-13.0,-35.0,-22.0,-8.0,-2.0,0.0,-8.0,-9.0
1701873954.386811,3.0,-77.0,0.0,1.0,-3.0,-7.0,-2.0,-5.0
1701873954.386811,-6.0,-3.0,-37.0,-23.0,-14.0,-16.0,-15.0,-9.0
1701873954.3971386,11.0,13.0,24.0,16.0,11.0,26.0,25.0,12.0
1701873954.3971386,-36.0,-6.0,3.0,7.0,9.0,3.0,-1.0,-7.0
1701873954.3971386,22.0,-8.0,-13.0,1.0,8.0,3.0,4.0,7.0
1701873954.3971386,1.0,7.0,4.0,-6.0,2.0,1.0,-3.0,-1.0
1701873954.4461608,9.0,-10.0,5.0,6.0,-13.0,-18.0,-10.0,-4.0
1701873954.4461608,17.0,5.0,1.0,-5.0,-13.0,-6.0,-1.0,-1.0
1701873954.4514096,-12.0,13.0,2.0,-5.0,-9.0,4.0,1.0,-4.0
1701873954.4514096,-16.0,-6.0,-4.0,2.0,-1.0,-1.0,-1.0,-6.0
1701873954.4540575,-1.0,-14.0,3.0,7.0,20.0,10.0,-1.0,1.0
1701873954.4540575,-5.0,1.0,-28.0,-13.0,8.0,6.0,6.0,4.0
1701873954.4540575,-18.0,9.0,15.0,-2.0,-3.0,-8.0,-9.0,-10.0
1701873954.4540575,15.0,5.0,2.0,-1.0,-3.0,-1.0,-3.0,-1.0
1701873954.455158,-9.0,0.0,1.0,0.0,-15.0,-10.0,-3.0,-7.0
1701873954.455158,0.0,-36.0,-1.0,-4.0,-7.0,-2.0,-2.0,3.0
1701873954.455158,27.0,47.0,-9.0,-3.0,0.0,-2.0,-2.0,1.0
1701873954.455158,-5.0,17.0,7.0,4.0,5.0,6.0,3.0,-11.0
1701873954.4979463,13.0,28.0,-3.0,-3.0,-1.0,-8.0,-2.0,18.0
1701873954.4979463,-10.0,31.0,16.0,1.0,-5.0,-6.0,-1.0,-4.0
1701873954.4979463,6.0,6.0,-8.0,-3.0,1.0,11.0,5.0,6.0
1701873954.4979463,-9.0,-6.0,17.0,10.0,7.0,5.0,9.0,4.0
1701873954.4979463,4.0,-34.0,-16.0,-4.0,0.0,-5.0,-6.0,-10.0
1701873954.4979463,10.0,-3.0,-6.0,-10.0,-10.0,-9.0,-3.0,3.0
1701873954.4979463,-15.0,-2.0,8.0,1.0,-3.0,-9.0,-4.0,1.0
1701873954.4979463,7.0,3.0,3.0,8.0,10.0,10.0,-1.0,2.0
1701873954.5455668,2.0,42.0,9.0,3.0,7.0,12.0,5.0,1.0
1701873954.5455668,-14.0,12.0,4.0,-6.0,-10.0,-8.0,-5.0,-6.0
1701873954.5455668,-11.0,-21.0,-15.0,-3.0,1.0,1.0,-2.0,-9.0
1701873954.5455668,10.0,-25.0,11.0,9.0,2.0,-5.0,-1.0,2.0
1701873954.5466187,7.0,-30.0,-39.0,-21.0,-14.0,-10.0,-3.0,-3.0
1701873954.5466187,15.0,-11.0,10.0,-7.0,-2.0,4.0,-1.0,3.0
1701873954.5466187,-10.0,34.0,4.0,-2.0,3.0,4.0,1.0,0.0
1701873954.5466187,-10.0,-15.0,5.0,6.0,2.0,-3.0,-4.0,-3.0
1701873954.5567715,-6.0,-35.0,-1.0,3.0,0.0,-2.0,-3.0,4.0
1701873954.5567715,-1.0,-29.0,-12.0,0.0,-4.0,-6.0,0.0,-10.0
1701873954.5567715,-9.0,-16.0,-13.0,-2.0,0.0,3.0,-2.0,-3.0
1701873954.5567715,-8.0,2.0,-13.0,-6.0,-7.0,-2.0,4.0,0.0
1701873954.6052966,-6.0,-19.0,-2.0,-11.0,-8.0,-5.0,-5.0,-11.0
1701873954.6052966,11.0,32.0,-8.0,-4.0,-2.0,-2.0,-1.0,7.0
1701873954.6052966,-12.0,-3.0,20.0,3.0,0.0,-3.0,0.0,-2.0
1701873954.6052966,-2.0,-18.0,-12.0,-1.0,0.0,-4.0,-2.0,-4.0
1701873954.6063488,-2.0,8.0,-6.0,0.0,1.0,3.0,-2.0,0.0
1701873954.6063488,-6.0,40.0,24.0,13.0,2.0,1.0,3.0,4.0
1701873954.6083593,7.0,-39.0,-16.0,-3.0,2.0,2.0,-1.0,-3.0
1701873954.6083593,-21.0,8.0,-12.0,-14.0,-4.0,-4.0,-1.0,-4.0
1701873954.6094112,9.0,-11.0,13.0,4.0,-2.0,-9.0,-2.0,8.0
1701873954.6094112,2.0,-4.0,-16.0,-9.0,-6.0,0.0,-8.0,-12.0
1701873954.6094112,0.0,-9.0,-1.0,2.0,-1.0,-2.0,1.0,5.0
1701873954.6094112,8.0,18.0,9.0,2.0,2.0,5.0,2.0,1.0
1701873954.6656086,-23.0,-22.0,-3.0,-1.0,-1.0,-6.0,-12.0,-22.0
1701873954.6656086,7.0,-10.0,6.0,5.0,2.0,3.0,1.0,0.0
1701873954.6656086,-2.0,0.0,-11.0,-5.0,-3.0,-5.0,-1.0,2.0
1701873954.6656086,-2.0,44.0,-4.0,-9.0,-5.0,-3.0,-5.0,2.0
1701873954.6656086,-34.0,-11.0,-3.0,6.0,3.0,4.0,5.0,-7.0
1701873954.6656086,10.0,1.0,-2.0,7.0,-1.0,-4.0,-7.0,-4.0
1701873954.6656086,8.0,31.0,3.0,-6.0,0.0,0.0,0.0,-3.0
1701873954.6656086,-2.0,-22.0,-1.0,-14.0,-9.0,-2.0,-2.0,2.0
1701873954.6794274,4.0,-9.0,-17.0,-16.0,-14.0,-13.0,-4.0,1.0
1701873954.6800704,-19.0,-8.0,1.0,2.0,0.0,6.0,3.0,-1.0
1701873954.6859207,18.0,30.0,24.0,7.0,23.0,12.0,7.0,8.0
1701873954.6860254,-3.0,-20.0,-19.0,7.0,18.0,7.0,0.0,-2.0
1701873954.6973526,6.0,10.0,8.0,3.0,-2.0,-3.0,2.0,1.0
1701873954.6973526,3.0,8.0,3.0,2.0,-17.0,-16.0,-4.0,2.0
1701873954.6973526,0.0,-14.0,4.0,2.0,-16.0,-3.0,4.0,-2.0
1701873954.6973526,-30.0,23.0,-10.0,-28.0,-5.0,4.0,2.0,0.0
1701873954.7585652,-4.0,-11.0,12.0,8.0,11.0,10.0,2.0,-6.0
1701873954.7585652,7.0,1.0,-5.0,0.0,7.0,4.0,1.0,1.0
1701873954.7585652,-11.0,-31.0,-7.0,2.0,-4.0,-8.0,-3.0,3.0
1701873954.7585652,23.0,-6.0,12.0,11.0,-8.0,-13.0,-9.0,-10.0
1701873954.7747288,-22.0,-43.0,-4.0,-3.0,-7.0,7.0,3.0,-3.0
1701873954.7772903,-9.0,-58.0,-8.0,-10.0,-6.0,-6.0,-7.0,-6.0
1701873954.786879,-1.0,-2.0,-15.0,3.0,9.0,5.0,4.0,-1.0
1701873954.7878802,30.0,38.0,14.0,9.0,6.0,3.0,4.0,4.0
1701873954.795147,3.0,-4.0,-7.0,-10.0,-21.0,-15.0,-7.0,3.0
1701873954.795147,-7.0,51.0,17.0,-5.0,-13.0,1.0,1.0,2.0
1701873954.795147,1.0,13.0,-5.0,8.0,14.0,5.0,-5.0,-7.0
1701873954.795147,-14.0,2.0,-1.0,16.0,30.0,13.0,4.0,4.0
1701873954.7973082,-1.0,-8.0,-7.0,5.0,2.0,-3.0,-2.0,-3.0
1701873954.7973082,-1.0,-22.0,-15.0,-16.0,-13.0,-9.0,-4.0,-5.0
1701873954.8013504,-5.0,8.0,0.0,-15.0,-23.0,-9.0,-4.0,-2.0
1701873954.8013504,-18.0,-12.0,6.0,-1.0,-8.0,3.0,2.0,1.0
1701873954.8013504,2.0,59.0,3.0,-6.0,0.0,-5.0,-6.0,-4.0
1701873954.8013504,-1.0,-3.0,7.0,4.0,5.0,4.0,3.0,2.0
1701873954.8013504,-23.0,7.0,-8.0,-3.0,-1.0,-1.0,0.0,-3.0
1701873954.802385,18.0,-60.0,12.0,15.0,1.0,-5.0,-1.0,7.0
1701873954.8229263,5.0,-2.0,-59.0,-37.0,-17.0,-11.0,-8.0,-8.0
1701873954.8229263,8.0,1.0,9.0,12.0,13.0,15.0,7.0,3.0
1701873954.8229263,4.0,-17.0,-4.0,7.0,10.0,2.0,-1.0,2.0
1701873954.8229263,-25.0,39.0,17.0,5.0,0.0,-3.0,-4.0,-17.0
1701873954.8240018,-3.0,16.0,16.0,2.0,-5.0,-1.0,3.0,3.0
1701873954.8342137,16.0,55.0,7.0,2.0,-4.0,-4.0,-1.0,5.0
1701873954.8353405,4.0,-15.0,-2.0,-4.0,2.0,0.0,-3.0,-5.0
1701873954.8353405,-25.0,5.0,-6.0,-1.0,2.0,5.0,-1.0,4.0
1701873954.865551,8.0,8.0,23.0,12.0,11.0,5.0,3.0,1.0
1701873954.865551,3.0,-14.0,-7.0,0.0,-2.0,-3.0,-1.0,-4.0
1701873954.8846192,-5.0,37.0,27.0,10.0,-5.0,1.0,0.0,1.0
1701873954.8850763,6.0,-7.0,-13.0,-15.0,-10.0,-4.0,0.0,1.0
1701873954.9113975,-7.0,-20.0,11.0,1.0,7.0,1.0,-3.0,-6.0
1701873954.9113975,-7.0,7.0,-4.0,-8.0,-1.0,-1.0,-3.0,1.0
1701873954.9113975,3.0,-52.0,-14.0,1.0,-6.0,-6.0,-5.0,-4.0
1701873954.9113975,-3.0,-29.0,-16.0,-3.0,-9.0,-4.0,0.0,1.0
1701873954.9113975,-3.0,-19.0,-4.0,5.0,2.0,2.0,-3.0,-2.0
1701873954.9124553,12.0,6.0,4.0,1.0,2.0,-5.0,-4.0,2.0
1701873954.9124553,6.0,-18.0,-1.0,1.0,0.0,1.0,5.0,2.0
1701873954.9124553,6.0,1.0,-3.0,0.0,-5.0,0.0,-3.0,0.0
1701873954.923622,2.0,21.0,3.0,5.0,5.0,5.0,5.0,11.0
1701873954.9246762,-2.0,-13.0,-9.0,-11.0,-3.0,-6.0,-5.0,-8.0
1701873954.9421768,-18.0,13.0,-1.0,-5.0,-2.0,-3.0,-4.0,-8.0
1701873954.9421768,27.0,-44.0,-16.0,-11.0,-9.0,-6.0,2.0,14.0
1701873954.9599931,-5.0,23.0,8.0,8.0,7.0,5.0,3.0,1.0
1701873954.9599931,-1.0,-53.0,-16.0,-2.0,0.0,0.0,3.0,5.0
1701873954.9599931,-3.0,11.0,-4.0,-10.0,-6.0,-6.0,-10.0,-13.0
1701873954.9609933,8.0,14.0,5.0,3.0,0.0,-5.0,-3.0,-10.0
1701873954.9770718,0.0,-14.0,7.0,8.0,4.0,1.0,2.0,3.0
1701873954.9770718,-6.0,-39.0,-17.0,-8.0,-4.0,-3.0,-1.0,-3.0
1701873954.9770718,3.0,33.0,4.0,-5.0,-2.0,1.0,1.0,6.0
1701873954.9770718,-7.0,22.0,4.0,1.0,-2.0,-4.0,-2.0,-3.0
1701873954.9770718,-3.0,-54.0,-15.0,-3.0,-5.0,-4.0,-2.0,-1.0
1701873954.9770718,12.0,19.0,-10.0,0.0,5.0,4.0,2.0,2.0
1701873954.9770718,8.0,30.0,4.0,-1.0,-3.0,1.0,3.0,9.0
1701873954.9770718,-20.0,-12.0,0.0,-1.0,-9.0,-8.0,-9.0,-21.0
1701873954.999339,16.0,21.0,5.0,-3.0,0.0,6.0,3.0,5.0
1701873954.999339,-3.0,-16.0,1.0,6.0,-1.0,0.0,-1.0,-5.0
1701873955.0001488,1.0,-16.0,-18.0,-4.0,2.0,3.0,2.0,2.0
1701873955.0001488,12.0,33.0,14.0,9.0,11.0,7.0,3.0,6.0
1701873955.039042,-15.0,9.0,1.0,-6.0,-5.0,-7.0,-4.0,-4.0
1701873955.040436,-10.0,3.0,11.0,1.0,-4.0,-6.0,-6.0,-5.0
1701873955.0550218,1.0,3.0,9.0,-3.0,-6.0,-2.0,0.0,-5.0
1701873955.0560374,-20.0,-63.0,-43.0,-14.0,-6.0,-3.0,-3.0,-6.0
1701873955.072691,7.0,2.0,-1.0,9.0,7.0,5.0,4.0,-1.0
1701873955.072691,4.0,21.0,4.0,2.0,4.0,0.0,2.0,5.0
1701873955.072691,-5.0,-12.0,-1.0,-15.0,-16.0,-9.0,-7.0,-8.0
1701873955.072691,2.0,4.0,15.0,4.0,-10.0,-6.0,-4.0,0.0
1701873955.0808764,1.0,-4.0,-11.0,6.0,15.0,1.0,1.0,0.0
1701873955.0808764,-5.0,-55.0,7.0,13.0,15.0,9.0,4.0,0.0
1701873955.0808764,8.0,10.0,2.0,2.0,8.0,5.0,1.0,4.0
1701873955.0808764,1.0,6.0,-6.0,-12.0,-10.0,-4.0,-3.0,1.0
1701873955.127583,9.0,3.0,6.0,-9.0,-15.0,-7.0,-7.0,-5.0
1701873955.127583,-22.0,26.0,-3.0,-6.0,-6.0,-3.0,-2.0,-7.0
1701873955.127583,2.0,-6.0,6.0,6.0,4.0,2.0,8.0,21.0
1701873955.127583,-7.0,17.0,5.0,-2.0,1.0,1.0,-8.0,-31.0
1701873955.127583,-1.0,-6.0,-1.0,2.0,-5.0,-12.0,-15.0,-1.0
1701873955.127583,2.0,1.0,-5.0,-2.0,3.0,1.0,2.0,2.0
1701873955.127583,-3.0,-21.0,-18.0,-15.0,-14.0,-14.0,-12.0,-5.0
1701873955.127583,-5.0,1.0,-4.0,-7.0,-12.0,-2.0,3.0,1.0
1701873955.128627,2.0,14.0,16.0,11.0,7.0,10.0,4.0,-2.0
1701873955.128627,7.0,35.0,-20.0,-13.0,1.0,-3.0,-3.0,0.0
1701873955.128627,-21.0,-24.0,-7.0,-4.0,6.0,6.0,-2.0,-10.0
1701873955.128627,-3.0,-31.0,10.0,35.0,16.0,5.0,3.0,6.0
1701873955.1528947,5.0,37.0,40.0,19.0,19.0,7.0,2.0,-2.0
1701873955.1528947,8.0,-15.0,-41.0,-20.0,-3.0,1.0,3.0,9.0
1701873955.1528947,-8.0,20.0,21.0,-13.0,-14.0,-12.0,-10.0,-14.0
1701873955.1528947,1.0,-17.0,-13.0,-36.0,-27.0,-15.0,-6.0,3.0
1701873955.1582835,-13.0,-30.0,-31.0,-11.0,-21.0,-11.0,-1.0,-2.0
1701873955.1582835,-17.0,-40.0,28.0,28.0,4.0,1.0,-4.0,-8.0
1701873955.1582835,8.0,34.0,-3.0,4.0,4.0,4.0,3.0,0.0
1701873955.1582835,-5.0,33.0,19.0,14.0,12.0,6.0,6.0,6.0
1701873955.1705353,-2.0,11.0,-4.0,-12.0,-6.0,2.0,-1.0,-3.0
1701873955.1705353,0.0,13.0,1.0,-4.0,3.0,-1.0,-8.0,-4.0
1701873955.1705353,4.0,-10.0,3.0,9.0,1.0,-3.0,-3.0,-2.0
1701873955.1705353,9.0,5.0,5.0,3.0,3.0,4.0,2.0,6.0
1701873955.2214074,3.0,-22.0,-19.0,-9.0,1.0,1.0,6.0,2.0
1701873955.2214074,-1.0,12.0,29.0,2.0,-5.0,-6.0,-3.0,10.0
1701873955.2214074,2.0,-32.0,-40.0,1.0,3.0,1.0,1.0,-4.0
1701873955.2214074,2.0,-8.0,-25.0,-11.0,-1.0,-3.0,-7.0,-10.0
1701873955.2214074,-1.0,15.0,13.0,-9.0,-7.0,-5.0,0.0,11.0
1701873955.2214074,21.0,34.0,8.0,24.0,13.0,14.0,9.0,8.0
1701873955.2214074,-14.0,-18.0,41.0,-18.0,-17.0,-13.0,-12.0,-13.0
1701873955.2214074,-9.0,-15.0,-9.0,-10.0,-8.0,-12.0,-6.0,-3.0
1701873955.234612,-6.0,-14.0,-41.0,-16.0,-2.0,0.0,-2.0,-11.0
1701873955.234612,5.0,34.0,37.0,10.0,-3.0,-1.0,4.0,5.0
1701873955.234612,11.0,14.0,-7.0,10.0,15.0,10.0,10.0,10.0
1701873955.234612,8.0,-22.0,-10.0,7.0,14.0,3.0,0.0,1.0
1701873955.2858772,6.0,40.0,20.0,3.0,-2.0,2.0,-4.0,-1.0
1701873955.2858772,-6.0,-33.0,-19.0,-8.0,-9.0,-6.0,-3.0,-5.0
1701873955.2858772,-21.0,8.0,-6.0,5.0,-2.0,0.0,0.0,-5.0
1701873955.2858772,26.0,27.0,4.0,-2.0,-4.0,-4.0,-1.0,6.0
1701873955.2858772,8.0,31.0,3.0,-1.0,2.0,-3.0,-1.0,0.0
1701873955.2858772,-13.0,-46.0,-22.0,-12.0,-7.0,-4.0,-3.0,-5.0
1701873955.2858772,8.0,-8.0,-7.0,1.0,-3.0,-2.0,-1.0,1.0
1701873955.2858772,11.0,9.0,27.0,9.0,2.0,4.0,6.0,10.0
1701873955.297868,6.0,57.0,6.0,-12.0,1.0,-1.0,-2.0,-2.0
1701873955.297868,-1.0,26.0,-2.0,-6.0,-5.0,-2.0,-1.0,-7.0
1701873955.300159,4.0,3.0,12.0,4.0,-1.0,-5.0,-4.0,1.0
1701873955.300159,5.0,14.0,26.0,19.0,10.0,6.0,3.0,5.0
1701873955.3562226,6.0,-14.0,-40.0,-13.0,-7.0,1.0,1.0,-1.0
1701873955.3562226,-20.0,-18.0,-42.0,-30.0,-6.0,-4.0,-6.0,-12.0
1701873955.3562226,8.0,6.0,-8.0,11.0,-1.0,-3.0,0.0,7.0
1701873955.3562226,-7.0,23.0,94.0,5.0,-2.0,-2.0,1.0,3.0
1701873955.3562226,-18.0,-64.0,-62.0,-5.0,7.0,-3.0,-7.0,-9.0
1701873955.3562226,-1.0,12.0,38.0,8.0,5.0,-1.0,0.0,-2.0
1701873955.3572626,11.0,19.0,7.0,15.0,-1.0,-2.0,-5.0,3.0
1701873955.3572626,-10.0,-18.0,-74.0,-41.0,-5.0,9.0,11.0,-1.0
1701873955.385707,-6.0,-1.0,70.0,37.0,11.0,4.0,3.0,2.0
1701873955.385707,1.0,1.0,-22.0,-6.0,4.0,1.0,1.0,0.0
1701873955.385707,-3.0,-10.0,-15.0,-3.0,-6.0,-8.0,-1.0,-2.0
1701873955.385707,3.0,10.0,25.0,25.0,-9.0,-12.0,-10.0,2.0
1701873955.385707,-2.0,-9.0,-43.0,-12.0,-5.0,1.0,5.0,0.0
1701873955.385707,-7.0,3.0,-15.0,-10.0,0.0,-16.0,-18.0,-12.0
1701873955.385707,-22.0,-41.0,-58.0,-61.0,-31.0,5.0,5.0,-11.0
1701873955.385707,13.0,-21.0,7.0,-5.0,5.0,1.0,2.0,1.0
1701873955.3867505,9.0,37.0,44.0,38.0,16.0,11.0,10.0,11.0
1701873955.396875,9.0,29.0,64.0,76.0,30.0,7.0,0.0,6.0
1701873955.396875,-34.0,-65.0,-4.0,-59.0,-37.0,-37.0,-25.0,-22.0
1701873955.396875,5.0,-5.0,-14.0,2.0,-6.0,2.0,2.0,3.0
1701873955.42191,13.0,-2.0,-17.0,6.0,5.0,4.0,-1.0,3.0
1701873955.42191,-1.0,5.0,0.0,-26.0,-13.0,3.0,3.0,-2.0
1701873955.42191,5.0,50.0,1.0,28.0,21.0,9.0,5.0,7.0
1701873955.42191,-9.0,-12.0,-3.0,11.0,9.0,5.0,5.0,0.0
1701873955.4689925,-5.0,-9.0,-20.0,-8.0,-19.0,-13.0,-10.0,-9.0
1701873955.4689925,2.0,3.0,23.0,-14.0,6.0,5.0,4.0,2.0
1701873955.4689925,11.0,10.0,-14.0,-15.0,1.0,11.0,3.0,3.0
1701873955.4689925,-29.0,69.0,-2.0,5.0,12.0,6.0,-1.0,-6.0
1701873955.4689925,-7.0,-25.0,-18.0,-27.0,1.0,2.0,1.0,2.0
1701873955.4689925,-15.0,-55.0,5.0,19.0,-13.0,-13.0,-6.0,-9.0
1701873955.4689925,19.0,18.0,25.0,26.0,23.0,13.0,8.0,10.0
1701873955.4689925,-24.0,-49.0,-58.0,-44.0,-21.0,-17.0,-10.0,-14.0
1701873955.503371,-9.0,10.0,24.0,10.0,-8.0,-7.0,-4.0,-3.0
1701873955.503371,-1.0,5.0,2.0,7.0,17.0,13.0,3.0,1.0
1701873955.503371,15.0,-30.0,30.0,11.0,-2.0,-8.0,-6.0,-3.0
1701873955.503371,13.0,78.0,-1.0,17.0,14.0,13.0,5.0,7.0
1701873955.503371,-8.0,-20.0,-1.0,-22.0,-16.0,-11.0,-6.0,-5.0
1701873955.503371,1.0,1.0,-6.0,16.0,-18.0,-13.0,-9.0,-3.0
1701873955.503371,-2.0,-10.0,-22.0,-1.0,18.0,14.0,4.0,-2.0
1701873955.503371,4.0,-23.0,1.0,-10.0,3.0,7.0,3.0,3.0
1701873955.5146828,-5.0,-9.0,11.0,-16.0,-15.0,-11.0,-5.0,-4.0
1701873955.5161767,2.0,18.0,6.0,28.0,3.0,0.0,1.0,2.0
1701873955.5172846,-2.0,12.0,-15.0,-24.0,15.0,9.0,5.0,3.0
1701873955.5172846,-11.0,-32.0,7.0,-2.0,-21.0,-17.0,-11.0,-10.0
1701873955.5732002,-4.0,1.0,19.0,-3.0,15.0,11.0,1.0,-3.0
1701873955.5742521,6.0,3.0,-17.0,-18.0,-5.0,1.0,2.0,4.0
1701873955.5742521,-3.0,3.0,2.0,7.0,-5.0,-2.0,1.0,-2.0
1701873955.5742521,5.0,-12.0,-1.0,6.0,-1.0,-5.0,-2.0,2.0
1701873955.5772276,-4.0,-7.0,-8.0,12.0,0.0,-1.0,0.0,-2.0
1701873955.5772276,-2.0,-7.0,-8.0,-25.0,-10.0,-6.0,-4.0,-4.0
1701873955.5772276,-6.0,13.0,21.0,18.0,1.0,0.0,-2.0,1.0
1701873955.5772276,2.0,-3.0,-11.0,-3.0,2.0,0.0,0.0,-1.0
1701873955.5821054,-2.0,-5.0,-2.0,5.0,-1.0,-1.0,-1.0,-1.0
1701873955.5831473,-2.0,6.0,-7.0,-18.0,-7.0,3.0,0.0,-1.0
1701873955.6143546,3.0,7.0,3.0,3.0,0.0,-1.0,2.0,2.0
1701873955.6143546,2.0,-1.0,-6.0,15.0,3.0,0.0,-3.0,-1.0
1701873955.6143546,-5.0,-13.0,6.0,-7.0,-2.0,1.0,-2.0,-4.0
1701873955.6143546,-8.0,5.0,-4.0,-12.0,-7.0,-2.0,1.0,-3.0
1701873955.6143546,-1.0,-3.0,3.0,16.0,3.0,2.0,0.0,-2.0
1701873955.6143546,4.0,18.0,2.0,-8.0,0.0,1.0,0.0,6.0
1701873955.6154058,-9.0,-25.0,-8.0,-3.0,-3.0,-6.0,-5.0,-21.0
1701873955.6154058,1.0,4.0,-5.0,-6.0,-3.0,-3.0,1.0,6.0
1701873955.6154058,4.0,-11.0,4.0,8.0,-6.0,-2.0,1.0,8.0
1701873955.6154058,11.0,2.0,-14.0,-10.0,1.0,-2.0,-5.0,1.0
1701873955.6344151,1.0,13.0,4.0,3.0,0.0,2.0,0.0,-1.0
1701873955.6362386,-6.0,-4.0,-12.0,-11.0,-2.0,0.0,-3.0,-8.0
1701873955.6373494,-9.0,-7.0,11.0,1.0,-3.0,-6.0,-6.0,-14.0
1701873955.6373494,-11.0,-13.0,-3.0,2.0,-3.0,-3.0,0.0,0.0
1701873955.6565664,10.0,1.0,-4.0,5.0,0.0,-1.0,2.0,8.0
1701873955.6565664,-17.0,18.0,3.0,-2.0,1.0,2.0,-2.0,-5.0
1701873955.6565664,8.0,34.0,13.0,8.0,4.0,3.0,2.0,7.0
1701873955.6565664,-8.0,-29.0,-3.0,-12.0,-6.0,-4.0,-2.0,-9.0
1701873955.7088292,-5.0,24.0,10.0,6.0,2.0,0.0,3.0,7.0
1701873955.7088292,0.0,-5.0,-17.0,-11.0,-3.0,-1.0,-4.0,-17.0
1701873955.7088292,-12.0,-4.0,4.0,2.0,-2.0,-1.0,1.0,1.0
1701873955.7088292,-5.0,-13.0,9.0,0.0,-3.0,-4.0,-3.0,1.0
1701873955.71823,13.0,0.0,-2.0,4.0,2.0,-1.0,1.0,3.0
1701873955.719313,20.0,-6.0,-17.0,-11.0,-3.0,-4.0,3.0,6.0
1701873955.7535658,2.0,2.0,6.0,10.0,-2.0,1.0,-5.0,-1.0
1701873955.7535658,-5.0,-11.0,-17.0,-7.0,-2.0,0.0,1.0,1.0
1701873955.757349,7.0,13.0,18.0,7.0,4.0,0.0,-1.0,-1.0
1701873955.757349,-8.0,-16.0,8.0,10.0,5.0,5.0,0.0,-1.0
1701873955.757349,-13.0,-32.0,-52.0,-30.0,-10.0,-7.0,-8.0,-14.0
1701873955.757349,12.0,16.0,3.0,1.0,2.0,1.0,3.0,-1.0
1701873955.757349,9.0,-25.0,1.0,0.0,-2.0,-3.0,-2.0,0.0
1701873955.757349,-2.0,6.0,7.0,3.0,-2.0,0.0,0.0,4.0
1701873955.757349,11.0,31.0,13.0,7.0,3.0,2.0,0.0,-6.0
1701873955.757349,-11.0,1.0,-9.0,-7.0,-3.0,-2.0,-2.0,-5.0
1701873955.757349,5.0,-10.0,-6.0,-7.0,-4.0,-3.0,-2.0,2.0
1701873955.757349,3.0,0.0,10.0,4.0,-1.0,-1.0,0.0,5.0
1701873955.7861445,-9.0,-5.0,1.0,-5.0,-2.0,-2.0,-3.0,-2.0
1701873955.7861445,8.0,1.0,-7.0,0.0,1.0,2.0,0.0,2.0
1701873955.7861445,-14.0,-3.0,-11.0,-4.0,-3.0,-4.0,-6.0,-5.0
1701873955.7861445,0.0,5.0,1.0,-6.0,-4.0,-3.0,2.0,4.0
1701873955.7861445,2.0,-7.0,-2.0,-1.0,1.0,1.0,4.0,10.0
1701873955.7861445,-4.0,10.0,8.0,11.0,2.0,2.0,-3.0,-10.0
1701873955.81438,-12.0,9.0,15.0,-4.0,0.0,1.0,-2.0,2.0
1701873955.81438,8.0,-1.0,-23.0,-9.0,-5.0,-3.0,-4.0,-8.0
1701873955.8252938,8.0,20.0,23.0,15.0,4.0,2.0,4.0,9.0
1701873955.8252938,-6.0,-36.0,-27.0,-14.0,-5.0,-3.0,-2.0,2.0
1701873955.8337095,14.0,13.0,6.0,2.0,1.0,-1.0,0.0,2.0
1701873955.8337095,-7.0,-19.0,-4.0,-2.0,-3.0,-2.0,-3.0,-5.0
1701873955.8337095,4.0,3.0,13.0,5.0,-1.0,-2.0,-1.0,-3.0
1701873955.8337095,7.0,12.0,11.0,3.0,-1.0,-3.0,-1.0,-3.0
1701873955.834715,-10.0,-27.0,-41.0,-11.0,-3.0,0.0,-3.0,-4.0
1701873955.834715,-2.0,4.0,-9.0,-22.0,-9.0,-5.0,2.0,5.0
1701873955.834715,-3.0,-2.0,-2.0,-5.0,-4.0,-3.0,-3.0,-1.0
1701873955.834715,-5.0,10.0,9.0,1.0,-1.0,-2.0,-1.0,0.0
1701873955.8844445,0.0,-3.0,-2.0,6.0,3.0,12.0,5.0,0.0
1701873955.8844445,5.0,8.0,9.0,13.0,5.0,2.0,3.0,5.0
1701873955.8969126,-30.0,34.0,8.0,8.0,7.0,1.0,0.0,-7.0
1701873955.8981755,-6.0,-27.0,-2.0,2.0,-2.0,-6.0,-4.0,-2.0
1701873955.9114826,-10.0,2.0,-2.0,-3.0,-3.0,-5.0,-4.0,-4.0
1701873955.9114826,1.0,-8.0,-2.0,-3.0,-6.0,-1.0,-1.0,0.0
1701873955.9114826,-7.0,-3.0,-4.0,-12.0,-4.0,-2.0,-1.0,-1.0
1701873955.9114826,6.0,26.0,2.0,2.0,4.0,4.0,3.0,-1.0
1701873955.9125247,-5.0,-8.0,11.0,3.0,-2.0,-1.0,2.0,5.0
1701873955.9125247,-4.0,-4.0,4.0,8.0,2.0,1.0,0.0,3.0
1701873955.9125247,7.0,-12.0,6.0,4.0,0.0,-2.0,-5.0,-5.0
1701873955.9125247,-4.0,-16.0,-16.0,1.0,2.0,5.0,2.0,-2.0
1701873955.9525616,-5.0,3.0,-4.0,-15.0,-8.0,-7.0,-4.0,1.0
1701873955.9525616,2.0,5.0,-11.0,-4.0,-1.0,-2.0,0.0,4.0
1701873955.9525616,3.0,-5.0,6.0,5.0,2.0,0.0,1.0,1.0
1701873955.9525616,-5.0,0.0,7.0,3.0,-2.0,-1.0,-3.0,-1.0
1701873955.9536154,4.0,16.0,11.0,7.0,4.0,0.0,-2.0,-3.0
1701873955.9536154,-1.0,-6.0,-1.0,2.0,0.0,-4.0,-3.0,-5.0
1701873955.9536154,15.0,43.0,6.0,0.0,2.0,3.0,6.0,12.0
1701873955.9536154,-2.0,3.0,1.0,-3.0,-3.0,-2.0,-2.0,-3.0
1701873955.9536154,-12.0,12.0,14.0,7.0,2.0,-1.0,-1.0,1.0
1701873955.9536154,1.0,9.0,-17.0,-6.0,-2.0,-1.0,-2.0,-4.0
1701873955.9536154,-5.0,-45.0,-15.0,-7.0,-4.0,0.0,-3.0,-6.0
1701873955.9536154,-1.0,18.0,8.0,-5.0,-2.0,2.0,1.0,4.0
1701873955.9988701,15.0,35.0,37.0,20.0,8.0,6.0,3.0,3.0
1701873955.9988701,-26.0,55.0,-22.0,-16.0,-2.0,0.0,1.0,-5.0
1701873955.9988701,10.0,-10.0,-14.0,1.0,2.0,6.0,10.0,1.0
1701873955.9988701,-4.0,-1.0,7.0,-2.0,-6.0,-11.0,-15.0,-9.0
1701873956.0019789,27.0,33.0,18.0,2.0,-4.0,-5.0,-1.0,3.0
1701873956.0019789,-1.0,-48.0,-21.0,7.0,9.0,10.0,7.0,3.0
1701873956.0019789,-2.0,-34.0,-11.0,-18.0,-11.0,-10.0,-5.0,6.0
1701873956.0019789,-7.0,-1.0,5.0,-3.0,-6.0,-7.0,-3.0,-19.0
1701873956.0182776,-1.0,-11.0,-15.0,1.0,0.0,-1.0,0.0,1.0
1701873956.0182776,3.0,4.0,37.0,13.0,3.0,1.0,4.0,7.0
1701873956.0182776,-10.0,-4.0,-43.0,-12.0,1.0,-1.0,-8.0,-15.0
1701873956.0182776,-1.0,-53.0,-20.0,-4.0,-2.0,0.0,3.0,4.0
1701873956.0816865,-13.0,-16.0,-8.0,-10.0,-4.0,-2.0,-3.0,-3.0
1701873956.0816865,5.0,-4.0,-1.0,-2.0,-5.0,-13.0,-8.0,-8.0
1701873956.0816865,-5.0,21.0,27.0,11.0,4.0,5.0,1.0,1.0
1701873956.0816865,3.0,18.0,11.0,5.0,3.0,6.0,-2.0,4.0
1701873956.0816865,-13.0,-3.0,-24.0,-4.0,5.0,3.0,2.0,-3.0
1701873956.0816865,0.0,-1.0,12.0,3.0,-4.0,0.0,1.0,0.0
1701873956.0816865,1.0,-13.0,10.0,1.0,-7.0,-9.0,-8.0,-2.0
1701873956.0816865,1.0,37.0,30.0,19.0,5.0,4.0,5.0,5.0
1701873956.0816865,-11.0,-36.0,-90.0,-52.0,-8.0,0.0,2.0,-10.0
1701873956.0816865,-7.0,-19.0,39.0,9.0,-4.0,-7.0,-12.0,-8.0
1701873956.0816865,5.0,-1.0,4.0,1.0,-5.0,-7.0,-3.0,-1.0
1701873956.0816865,2.0,-8.0,-8.0,-5.0,-3.0,-3.0,4.0,2.0
1701873956.151253,14.0,18.0,10.0,19.0,8.0,10.0,1.0,4.0
1701873956.151253,-6.0,1.0,-7.0,-8.0,-4.0,-4.0,-4.0,-4.0
1701873956.151253,-17.0,3.0,-3.0,-2.0,0.0,2.0,1.0,-1.0
1701873956.151253,1.0,4.0,3.0,8.0,5.0,0.0,-1.0,2.0
1701873956.151253,-2.0,-15.0,9.0,-9.0,-4.0,1.0,-4.0,-5.0
1701873956.151253,1.0,6.0,-5.0,-2.0,-1.0,2.0,1.0,-1.0
1701873956.151253,11.0,22.0,11.0,-1.0,6.0,1.0,0.0,2.0
1701873956.151253,-20.0,-51.0,-32.0,-27.0,-13.0,-7.0,-6.0,-8.0
1701873956.151253,-6.0,3.0,16.0,6.0,-4.0,-7.0,-3.0,-1.0
1701873956.151253,7.0,-18.0,-10.0,2.0,-1.0,1.0,-1.0,6.0
1701873956.151253,7.0,27.0,5.0,14.0,6.0,2.0,0.0,-2.0
1701873956.151253,1.0,-6.0,0.0,9.0,0.0,0.0,-1.0,2.0
1701873956.1866899,-2.0,-47.0,-10.0,-6.0,-2.0,-5.0,-4.0,-7.0
1701873956.1866899,4.0,13.0,3.0,-14.0,-3.0,1.0,-1.0,2.0
1701873956.1876912,6.0,4.0,0.0,2.0,2.0,-1.0,3.0,2.0
1701873956.1876912,15.0,-20.0,7.0,9.0,2.0,1.0,-3.0,0.0
1701873956.1876912,7.0,64.0,16.0,8.0,-1.0,-1.0,-1.0,5.0
1701873956.1876912,-1.0,-5.0,-34.0,-27.0,-5.0,1.0,-4.0,-5.0
1701873956.1876912,-11.0,-30.0,-8.0,5.0,0.0,-2.0,-5.0,-7.0
1701873956.1876912,1.0,-1.0,1.0,-7.0,-6.0,-3.0,-3.0,-3.0
1701873956.209927,2.0,-13.0,10.0,-8.0,2.0,-2.0,1.0,4.0
1701873956.209927,6.0,8.0,27.0,30.0,11.0,-2.0,4.0,2.0
1701873956.212002,-26.0,-44.0,-39.0,-22.0,-6.0,-4.0,-12.0,-16.0
1701873956.2143037,-1.0,11.0,-14.0,-22.0,-3.0,-2.0,0.0,1.0
1701873956.2163763,-15.0,-28.0,4.0,6.0,2.0,-2.0,0.0,-5.0
1701873956.2163763,10.0,56.0,14.0,-5.0,-6.0,-2.0,2.0,0.0
1701873956.2163763,9.0,-23.0,4.0,34.0,0.0,-4.0,-1.0,9.0
1701873956.2231684,-35.0,24.0,4.0,-17.0,-3.0,1.0,1.0,-9.0
1701873956.2364538,-12.0,-27.0,-40.0,-43.0,-24.0,-11.0,-8.0,-11.0
1701873956.2364538,3.0,-12.0,0.0,2.0,18.0,4.0,-11.0,-17.0
1701873956.2364538,11.0,8.0,5.0,-2.0,4.0,5.0,12.0,15.0
1701873956.2364538,11.0,0.0,9.0,21.0,0.0,-2.0,-5.0,-4.0
1701873956.2910838,-6.0,-15.0,-8.0,-14.0,-4.0,-5.0,2.0,6.0
1701873956.2910838,-8.0,3.0,-2.0,9.0,2.0,-6.0,-4.0,3.0
1701873956.2910838,-1.0,39.0,30.0,13.0,4.0,2.0,6.0,-1.0
1701873956.2910838,-27.0,-25.0,-21.0,9.0,5.0,7.0,-10.0,-13.0
1701873956.297574,-2.0,0.0,24.0,22.0,5.0,6.0,7.0,5.0
1701873956.297574,-10.0,-24.0,-71.0,-38.0,-22.0,-12.0,-7.0,-3.0
1701873956.297574,-3.0,2.0,4.0,-11.0,-14.0,-9.0,-4.0,-9.0
1701873956.297574,11.0,-54.0,-22.0,-3.0,9.0,-2.0,8.0,10.0
1701873956.298645,0.0,12.0,16.0,21.0,18.0,11.0,3.0,4.0
1701873956.298645,3.0,15.0,8.0,-31.0,-10.0,-5.0,-2.0,-8.0
1701873956.298645,-3.0,0.0,10.0,-2.0,-31.0,-11.0,-5.0,-1.0
1701873956.298645,15.0,20.0,-8.0,-23.0,-7.0,-5.0,6.0,12.0
1701873956.360534,25.0,14.0,15.0,29.0,10.0,3.0,-4.0,-1.0
1701873956.360534,-64.0,-6.0,15.0,50.0,37.0,23.0,7.0,-7.0
1701873956.360534,10.0,15.0,-9.0,-32.0,24.0,5.0,-1.0,-4.0
1701873956.360534,8.0,94.0,44.0,37.0,12.0,4.0,-3.0,-8.0
1701873956.360534,-15.0,-45.0,-54.0,-51.0,-35.0,-20.0,-2.0,14.0
1701873956.360534,15.0,-31.0,5.0,0.0,-38.0,-20.0,-19.0,-8.0
1701873956.360534,-1.0,-12.0,4.0,-15.0,-12.0,6.0,9.0,-3.0
1701873956.3615897,-18.0,3.0,-1.0,-25.0,1.0,-2.0,-2.0,8.0
1701873956.364853,4.0,-2.0,-9.0,-7.0,5.0,4.0,-4.0,-21.0
1701873956.364853,4.0,8.0,23.0,32.0,-2.0,-5.0,1.0,2.0
1701873956.3663564,31.0,22.0,-8.0,-8.0,-9.0,-2.0,-3.0,16.0
1701873956.3663564,-36.0,-35.0,-5.0,6.0,-3.0,3.0,6.0,-4.0
1701873956.4215841,-1.0,-27.0,6.0,6.0,26.0,9.0,3.0,-7.0
1701873956.4215841,17.0,-7.0,-5.0,-7.0,15.0,19.0,14.0,14.0
1701873956.4215841,13.0,23.0,16.0,25.0,22.0,2.0,6.0,8.0
1701873956.4215841,13.0,32.0,9.0,-1.0,-8.0,-8.0,-8.0,-6.0
1701873956.4215841,-8.0,5.0,5.0,6.0,-20.0,-16.0,-19.0,-23.0
1701873956.4215841,7.0,2.0,14.0,-3.0,-7.0,-5.0,2.0,7.0
1701873956.4215841,18.0,-54.0,-48.0,-23.0,-8.0,-7.0,-5.0,2.0
1701873956.4215841,8.0,-37.0,4.0,13.0,-7.0,4.0,5.0,9.0
1701873956.422687,-7.0,4.0,-33.0,-34.0,-7.0,-4.0,4.0,2.0
1701873956.424938,29.0,60.0,28.0,11.0,19.0,14.0,8.0,5.0
1701873956.4257624,-26.0,-40.0,6.0,12.0,-5.0,-5.0,-7.0,-6.0
1701873956.4257624,16.0,44.0,3.0,-22.0,-9.0,-6.0,-2.0,2.0
1701873956.4699361,-25.0,-47.0,-49.0,3.0,-16.0,-10.0,-8.0,-12.0
1701873956.4699361,-3.0,-10.0,-17.0,-6.0,15.0,-2.0,-3.0,2.0
1701873956.4699361,10.0,9.0,13.0,25.0,27.0,21.0,16.0,17.0
1701873956.4699361,-4.0,-9.0,15.0,33.0,16.0,5.0,-3.0,-12.0
1701873956.4699361,18.0,52.0,37.0,-1.0,-13.0,-7.0,-2.0,11.0
1701873956.4699361,-13.0,-52.0,-43.0,-36.0,-29.0,-18.0,-8.0,-8.0
1701873956.4699361,5.0,8.0,15.0,11.0,-47.0,-20.0,-5.0,-6.0
1701873956.4699361,-25.0,-38.0,-30.0,-23.0,29.0,5.0,-6.0,-9.0
1701873956.5107362,0.0,23.0,30.0,3.0,39.0,30.0,11.0,9.0
1701873956.5107362,-4.0,-28.0,-7.0,18.0,27.0,8.0,2.0,-3.0
1701873956.5107362,-9.0,19.0,-5.0,-19.0,-30.0,-20.0,-11.0,-5.0
1701873956.5107362,17.0,-7.0,11.0,-9.0,-47.0,-15.0,3.0,1.0
1701873956.5107362,-13.0,-46.0,28.0,44.0,9.0,6.0,-3.0,-6.0
1701873956.5107362,-1.0,20.0,-71.0,-54.0,14.0,6.0,4.0,7.0
1701873956.513508,-11.0,-18.0,3.0,5.0,28.0,19.0,22.0,17.0
1701873956.513508,-48.0,-21.0,-46.0,-39.0,-44.0,-31.0,-30.0,-35.0
1701873956.5145679,20.0,8.0,27.0,6.0,-27.0,-45.0,-57.0,-44.0
1701873956.5145679,19.0,49.0,57.0,12.0,-38.0,-4.0,5.0,4.0
1701873956.5239134,1.0,-19.0,-26.0,6.0,70.0,38.0,16.0,7.0
1701873956.5239134,25.0,-20.0,-1.0,23.0,59.0,19.0,23.0,32.0
1701873956.577117,-4.0,27.0,-6.0,-23.0,-18.0,-2.0,12.0,11.0
1701873956.577117,4.0,8.0,30.0,21.0,-15.0,13.0,2.0,-1.0
1701873956.5781732,-10.0,2.0,-30.0,-31.0,-40.0,-22.0,-20.0,-18.0
1701873956.5781732,5.0,9.0,19.0,-1.0,-65.0,-9.0,-7.0,-2.0
1701873956.5781732,1.0,13.0,20.0,16.0,42.0,-5.0,7.0,9.0
1701873956.5781732,-16.0,-42.0,-99.0,-75.0,18.0,-14.0,-9.0,-11.0
1701873956.5781732,8.0,-19.0,41.0,42.0,44.0,25.0,7.0,8.0
1701873956.5781732,7.0,9.0,5.0,3.0,-4.0,-9.0,-5.0,-2.0
1701873956.5787263,-7.0,1.0,1.0,-8.0,-52.0,-12.0,-4.0,-5.0
1701873956.5811987,-20.0,13.0,31.0,5.0,7.0,7.0,4.0,-1.0
1701873956.5823128,-7.0,15.0,-6.0,4.0,23.0,3.0,-13.0,-13.0
1701873956.5823128,7.0,12.0,-14.0,3.0,2.0,1.0,0.0,0.0
1701873956.6304874,3.0,-3.0,-10.0,-1.0,-2.0,7.0,8.0,9.0
1701873956.6304874,7.0,21.0,45.0,27.0,-7.0,-2.0,-3.0,1.0
1701873956.6304874,-21.0,-25.0,-31.0,-30.0,-34.0,-22.0,-14.0,-14.0
1701873956.6304874,23.0,15.0,-3.0,-6.0,-6.0,-3.0,-2.0,6.0
1701873956.6304874,-15.0,20.0,1.0,3.0,8.0,10.0,15.0,7.0
1701873956.6304874,10.0,-4.0,6.0,12.0,13.0,-2.0,-3.0,-1.0
1701873956.6304874,-10.0,3.0,6.0,0.0,-32.0,-6.0,-4.0,-11.0
1701873956.6304874,8.0,8.0,12.0,2.0,-18.0,-13.0,-10.0,-5.0
1701873956.637038,-1.0,-1.0,4.0,17.0,86.0,43.0,20.0,4.0
1701873956.637038,6.0,2.0,-14.0,17.0,19.0,11.0,5.0,8.0
1701873956.6453724,6.0,11.0,4.0,-9.0,-48.0,-15.0,-5.0,-2.0
1701873956.6453724,-11.0,-17.0,-23.0,-54.0,-37.0,-22.0,-7.0,-5.0
1701873956.7071114,-6.0,-15.0,-37.0,-17.0,-22.0,-13.0,-12.0,-3.0
1701873956.7071114,1.0,-10.0,22.0,20.0,2.0,18.0,9.0,4.0
1701873956.7071114,7.0,9.0,37.0,54.0,112.0,26.0,8.0,2.0
1701873956.7071114,-19.0,4.0,-4.0,33.0,32.0,13.0,5.0,-4.0
1701873956.7108722,-9.0,-28.0,-28.0,-50.0,-94.0,-42.0,-14.0,-5.0
1701873956.7108722,2.0,5.0,-2.0,-59.0,-64.0,-35.0,-3.0,-2.0
1701873956.7108722,-14.0,-7.0,-6.0,1.0,63.0,15.0,-12.0,-9.0
1701873956.7108722,-14.0,18.0,-7.0,56.0,87.0,49.0,13.0,0.0
1701873956.7108722,24.0,33.0,40.0,47.0,27.0,21.0,17.0,17.0
1701873956.7108722,-24.0,-32.0,-47.0,-65.0,-122.0,-55.0,-16.0,-16.0
1701873956.7108722,0.0,26.0,23.0,-32.0,-110.0,-33.0,-11.0,-8.0
1701873956.7108722,17.0,-10.0,0.0,2.0,121.0,41.0,12.0,11.0
