1701873579.99365,-4.0,-7.0,-9.0,-2.0,-2.0,2.0,3.0,-4.0
1701873579.99365,4.0,-4.0,7.0,5.0,0.0,4.0,0.0,3.0
1701873580.0036528,11.0,33.0,-5.0,-1.0,-5.0,-1.0,-2.0,3.0
1701873580.0036528,-9.0,-30.0,25.0,11.0,2.0,-3.0,-3.0,-9.0
1701873580.0036528,2.0,21.0,11.0,7.0,8.0,6.0,2.0,5.0
1701873580.0036528,2.0,-7.0,-22.0,-7.0,-3.0,2.0,2.0,7.0
1701873580.014009,-10.0,-23.0,-1.0,-6.0,-2.0,-5.0,-5.0,-13.0
1701873580.014009,2.0,3.0,-7.0,-2.0,-6.0,0.0,-1.0,-2.0
1701873580.0239127,12.0,34.0,20.0,8.0,-5.0,-2.0,1.0,3.0
1701873580.0239127,-9.0,-14.0,-12.0,-10.0,-23.0,-15.0,-9.0,-9.0
1701873580.0239127,3.0,6.0,5.0,2.0,17.0,7.0,7.0,12.0
1701873580.0239127,6.0,17.0,13.0,8.0,17.0,15.0,6.0,12.0
1701873580.043819,-6.0,-10.0,4.0,3.0,-8.0,-9.0,-3.0,-10.0
1701873580.043819,-5.0,-9.0,-17.0,-9.0,-4.0,-5.0,-2.0,-4.0
1701873580.0536566,2.0,12.0,13.0,1.0,-4.0,-2.0,-4.0,0.0
1701873580.0536566,0.0,4.0,-6.0,-2.0,-7.0,-5.0,-1.0,-1.0
1701873580.0636535,-6.0,-16.0,-8.0,0.0,8.0,11.0,6.0,0.0
1701873580.0636535,-3.0,-3.0,-1.0,-7.0,-17.0,-17.0,-10.0,-3.0
1701873580.0636535,-1.0,4.0,2.0,1.0,-6.0,-20.0,-18.0,-6.0
1701873580.0636535,1.0,3.0,-3.0,6.0,17.0,22.0,20.0,6.0
1701873580.0840287,-6.0,-12.0,-9.0,2.0,12.0,25.0,17.0,10.0
1701873580.0840287,-1.0,2.0,8.0,4.0,13.0,3.0,-5.0,-8.0
1701873580.0840287,0.0,6.0,6.0,-1.0,-11.0,-7.0,-6.0,0.0
1701873580.0840287,-3.0,-5.0,-11.0,-8.0,-18.0,-21.0,-15.0,-3.0
1701873580.1036773,-7.0,-5.0,-5.0,-10.0,-10.0,-7.0,-8.0,-9.0
1701873580.1036773,-2.0,1.0,-6.0,-4.0,-2.0,-2.0,2.0,0.0
1701873580.1036773,1.0,-2.0,-6.0,-3.0,-4.0,1.0,5.0,4.0
1701873580.1136513,1.0,2.0,14.0,4.0,5.0,5.0,1.0,-2.0
1701873580.123985,-4.0,-15.0,-15.0,0.0,16.0,3.0,-1.0,-2.0
1701873580.123985,3.0,4.0,0.0,8.0,6.0,-1.0,-2.0,2.0
1701873580.1340122,-7.0,1.0,0.0,-11.0,-16.0,-5.0,-2.0,-7.0
1701873580.1340122,-5.0,-5.0,-10.0,-13.0,-15.0,-7.0,-1.0,-4.0
1701873580.144019,7.0,-4.0,12.0,5.0,2.0,-4.0,-3.0,9.0
1701873580.144019,-2.0,-1.0,-4.0,0.0,2.0,1.0,-1.0,-3.0
1701873580.144019,2.0,5.0,4.0,5.0,7.0,4.0,5.0,7.0
1701873580.144019,1.0,3.0,0.0,-1.0,-8.0,-5.0,-2.0,-4.0
1701873580.1637185,0.0,2.0,2.0,-6.0,-12.0,-9.0,-7.0,-8.0
1701873580.1637185,-6.0,-7.0,-7.0,-5.0,-6.0,-2.0,0.0,-5.0
1701873580.173722,6.0,0.0,6.0,7.0,6.0,5.0,8.0,10.0
1701873580.173722,-7.0,-3.0,-4.0,0.0,19.0,3.0,-8.0,-12.0
1701873580.1837244,4.0,1.0,-1.0,2.0,-2.0,2.0,-2.0,5.0
1701873580.1837244,-9.0,-6.0,5.0,9.0,14.0,18.0,12.0,1.0
1701873580.1939468,0.0,3.0,-2.0,-7.0,-6.0,1.0,0.0,-4.0
1701873580.1939468,4.0,6.0,2.0,-4.0,-10.0,-23.0,-13.0,6.0
1701873580.2039678,-7.0,-5.0,-3.0,1.0,-3.0,-2.0,1.0,-9.0
1701873580.2039678,1.0,0.0,-2.0,-6.0,-8.0,-5.0,-2.0,-1.0
1701873580.2039678,1.0,0.0,0.0,1.0,0.0,-3.0,-5.0,0.0
1701873580.2039678,-1.0,-5.0,-4.0,-3.0,-2.0,6.0,8.0,6.0
1701873580.2337563,-6.0,0.0,1.0,-8.0,-20.0,-16.0,-9.0,-16.0
1701873580.2337563,0.0,0.0,-4.0,1.0,13.0,7.0,-1.0,2.0
1701873580.2337563,0.0,-2.0,3.0,8.0,22.0,6.0,-3.0,-2.0
1701873580.2337563,-2.0,0.0,1.0,0.0,-10.0,-16.0,-19.0,-8.0
1701873580.243798,1.0,-7.0,-2.0,-5.0,1.0,38.0,39.0,15.0
1701873580.243798,9.0,1.0,-3.0,-1.0,-4.0,-4.0,-2.0,7.0
1701873580.2541385,-2.0,-1.0,-7.0,1.0,6.0,10.0,7.0,-4.0
1701873580.2541385,-2.0,0.0,-2.0,-3.0,-4.0,-11.0,-9.0,4.0
1701873580.264142,1.0,6.0,7.0,-4.0,-13.0,-24.0,-21.0,-16.0
1701873580.264142,-6.0,-4.0,4.0,-1.0,-6.0,-12.0,-16.0,-11.0
1701873580.264142,-2.0,-6.0,-11.0,-5.0,5.0,6.0,8.0,0.0
1701873580.264142,8.0,-2.0,4.0,2.0,4.0,8.0,12.0,12.0
1701873580.2837691,-5.0,-3.0,9.0,-3.0,-2.0,-5.0,-6.0,-4.0
1701873580.2837691,-2.0,-2.0,-17.0,-6.0,3.0,8.0,6.0,0.0
1701873580.2837691,-6.0,-2.0,10.0,0.0,-13.0,-9.0,-16.0,-12.0
1701873580.2837691,-1.0,2.0,0.0,1.0,8.0,0.0,-2.0,0.0
1701873580.3040922,2.0,2.0,2.0,3.0,-6.0,-10.0,1.0,2.0
1701873580.3040922,1.0,2.0,7.0,7.0,15.0,5.0,-10.0,1.0
1701873580.3146007,-9.0,0.0,6.0,3.0,2.0,5.0,14.0,2.0
1701873580.3146007,6.0,-5.0,-19.0,-9.0,-9.0,-3.0,-5.0,-6.0
1701873580.329646,-4.0,-9.0,-14.0,-9.0,-10.0,-16.0,-12.0,-3.0
1701873580.329646,2.0,-1.0,-2.0,-9.0,-16.0,-10.0,-4.0,2.0
1701873580.330645,-2.0,-1.0,-2.0,-2.0,-1.0,-3.0,8.0,-3.0
1701873580.330645,8.0,14.0,25.0,14.0,7.0,5.0,-5.0,18.0
1701873580.3469796,-17.0,-9.0,-18.0,-2.0,2.0,-13.0,-13.0,-39.0
1701873580.3469796,4.0,-5.0,-12.0,-11.0,-1.0,19.0,21.0,20.0
1701873580.3469796,-1.0,-1.0,6.0,2.0,6.0,-10.0,-15.0,-14.0
1701873580.3469796,-4.0,-5.0,-6.0,-4.0,-16.0,-4.0,0.0,5.0
1701873580.3669202,1.0,4.0,4.0,1.0,0.0,-8.0,-2.0,3.0
1701873580.3669202,-1.0,-4.0,-2.0,3.0,2.0,-3.0,-4.0,4.0
1701873580.3771245,3.0,10.0,17.0,8.0,4.0,0.0,-6.0,-2.0
1701873580.3771245,-5.0,1.0,4.0,8.0,3.0,-1.0,0.0,-8.0
1701873580.3870668,-5.0,-27.0,-50.0,-33.0,-16.0,-2.0,1.0,-2.0
1701873580.3870668,2.0,-1.0,12.0,2.0,4.0,10.0,13.0,-2.0
1701873580.3870668,-1.0,-10.0,-12.0,-2.0,-2.0,0.0,-4.0,5.0
1701873580.3870668,1.0,8.0,11.0,-1.0,-5.0,-10.0,-6.0,-12.0
1701873580.416872,5.0,19.0,42.0,34.0,15.0,7.0,3.0,12.0
1701873580.416872,-2.0,-9.0,-22.0,-11.0,-3.0,4.0,3.0,-5.0
1701873580.416872,1.0,-3.0,-5.0,-7.0,-7.0,-5.0,-6.0,1.0
1701873580.416872,-2.0,-1.0,1.0,-3.0,1.0,3.0,1.0,-2.0
1701873580.4268699,2.0,-6.0,-10.0,-3.0,5.0,1.0,5.0,15.0
1701873580.4268699,-5.0,6.0,8.0,4.0,-9.0,-14.0,-17.0,-25.0
1701873580.4268699,-3.0,-1.0,0.0,3.0,6.0,11.0,11.0,3.0
1701873580.4268699,2.0,7.0,5.0,2.0,7.0,6.0,6.0,4.0
1701873580.4468718,4.0,-8.0,-14.0,-9.0,0.0,-2.0,-7.0,3.0
1701873580.4468718,-2.0,3.0,6.0,5.0,7.0,8.0,10.0,5.0
1701873580.4468718,0.0,-2.0,-7.0,-4.0,-11.0,-7.0,-1.0,0.0
1701873580.4468718,-4.0,-10.0,-14.0,-13.0,-12.0,-6.0,1.0,-12.0
1701873580.4672468,-3.0,4.0,14.0,5.0,2.0,4.0,-4.0,0.0
1701873580.4672468,4.0,-2.0,2.0,1.0,9.0,3.0,-3.0,2.0
1701873580.4672468,0.0,3.0,-13.0,-6.0,-3.0,-6.0,-5.0,-5.0
1701873580.4672468,-4.0,-7.0,4.0,1.0,-3.0,7.0,6.0,-1.0
1701873580.4868774,2.0,6.0,3.0,-2.0,-12.0,-8.0,-7.0,0.0
1701873580.4868774,-6.0,-5.0,-1.0,-5.0,-10.0,-11.0,-4.0,-11.0
1701873580.4868774,6.0,6.0,12.0,9.0,20.0,13.0,6.0,6.0
1701873580.4868774,1.0,-6.0,-18.0,-4.0,12.0,5.0,0.0,0.0
1701873580.5070865,0.0,8.0,0.0,0.0,-3.0,-3.0,-1.0,-3.0
1701873580.5070865,1.0,5.0,0.0,-2.0,-3.0,-4.0,-2.0,5.0
1701873580.5070865,-2.0,-1.0,6.0,-8.0,-17.0,-9.0,-4.0,-3.0
1701873580.5070865,1.0,-3.0,-2.0,0.0,-8.0,-2.0,0.0,0.0
1701873580.5268762,0.0,4.0,0.0,2.0,9.0,7.0,2.0,-4.0
1701873580.5268762,2.0,-1.0,2.0,2.0,1.0,-1.0,-4.0,5.0
1701873580.5268762,-5.0,-9.0,-11.0,-4.0,-6.0,-4.0,-5.0,-10.0
1701873580.5268762,-3.0,-16.0,-15.0,-2.0,3.0,2.0,1.0,6.0
1701873580.5668714,5.0,6.0,5.0,-2.0,-6.0,-3.0,1.0,10.0
1701873580.5668714,-7.0,3.0,0.0,0.0,2.0,1.0,-5.0,-35.0
1701873580.5668714,11.0,5.0,4.0,4.0,16.0,20.0,12.0,19.0
1701873580.5668714,-13.0,0.0,3.0,-6.0,-20.0,-20.0,-11.0,-10.0
1701873580.5668714,-4.0,-2.0,4.0,4.0,9.0,6.0,2.0,-4.0
1701873580.5668714,3.0,5.0,3.0,-1.0,-1.0,-6.0,-1.0,9.0
1701873580.5668714,-4.0,-2.0,-1.0,-3.0,-15.0,-5.0,-1.0,-2.0
1701873580.5668714,-2.0,-1.0,-8.0,-2.0,12.0,3.0,-1.0,-8.0
1701873580.58726,-2.0,-9.0,-3.0,-2.0,-3.0,0.0,-8.0,1.0
1701873580.58726,-2.0,2.0,2.0,1.0,-3.0,-14.0,-4.0,3.0
1701873580.58726,-3.0,-3.0,-4.0,-2.0,-5.0,0.0,1.0,-5.0
1701873580.58726,1.0,-5.0,-4.0,-3.0,-4.0,-1.0,0.0,2.0
1701873580.6068723,2.0,11.0,5.0,-2.0,-2.0,-3.0,-6.0,-7.0
1701873580.6068723,-4.0,-6.0,-2.0,-6.0,-5.0,0.0,5.0,-2.0
1701873580.6068723,3.0,1.0,0.0,-2.0,-6.0,-10.0,-4.0,5.0
1701873580.6068723,-12.0,-6.0,-3.0,7.0,12.0,15.0,6.0,-10.0
1701873580.6271963,-4.0,-8.0,1.0,0.0,3.0,0.0,-2.0,-1.0
1701873580.6271963,-2.0,1.0,-3.0,-8.0,-18.0,-12.0,-7.0,-4.0
1701873580.6271963,-2.0,-2.0,-5.0,-4.0,1.0,-4.0,-3.0,-1.0
1701873580.6271963,7.0,10.0,8.0,4.0,7.0,-3.0,-3.0,1.0
1701873580.6472433,0.0,-3.0,-4.0,2.0,14.0,19.0,10.0,-2.0
1701873580.6472433,-4.0,-6.0,-5.0,1.0,-4.0,-1.0,0.0,4.0
1701873580.6472433,0.0,-6.0,-1.0,-5.0,-6.0,-8.0,-7.0,-1.0
1701873580.6472433,1.0,8.0,1.0,-1.0,-6.0,-4.0,-4.0,-6.0
1701873580.6668723,0.0,2.0,7.0,4.0,1.0,-6.0,-2.0,-5.0
1701873580.6668723,-1.0,-15.0,-9.0,-5.0,-11.0,-6.0,-2.0,7.0
1701873580.6668723,-3.0,2.0,-3.0,-7.0,-6.0,-2.0,-4.0,-6.0
1701873580.6668723,2.0,4.0,1.0,5.0,17.0,4.0,3.0,6.0
1701873580.687217,-6.0,-2.0,-3.0,-6.0,-15.0,2.0,-2.0,-6.0
1701873580.687217,-2.0,2.0,-3.0,2.0,3.0,-1.0,4.0,-3.0
1701873580.687217,-6.0,-14.0,7.0,5.0,11.0,6.0,-3.0,-4.0
1701873580.687217,7.0,-9.0,-8.0,-3.0,-4.0,2.0,1.0,11.0
1701873580.7069006,-13.0,7.0,1.0,-2.0,-3.0,-7.0,3.0,3.0
1701873580.7069006,1.0,7.0,2.0,3.0,4.0,3.0,-5.0,-9.0
1701873580.7069006,-1.0,4.0,-7.0,-3.0,-4.0,-4.0,1.0,-2.0
1701873580.7069006,-1.0,-10.0,4.0,-5.0,-7.0,-6.0,-1.0,-4.0
1701873580.726874,-1.0,-9.0,-3.0,-2.0,-9.0,-4.0,1.0,0.0
1701873580.726874,4.0,-3.0,-4.0,-2.0,7.0,-1.0,-3.0,8.0
1701873580.726874,2.0,11.0,2.0,6.0,8.0,7.0,4.0,1.0
1701873580.726874,0.0,1.0,-3.0,-1.0,-9.0,-5.0,-5.0,-6.0
1701873580.7472,1.0,-2.0,-4.0,-7.0,-10.0,-11.0,-4.0,2.0
1701873580.7472,0.0,1.0,2.0,3.0,7.0,6.0,-3.0,0.0
1701873580.7472,0.0,-5.0,-3.0,3.0,10.0,11.0,9.0,-1.0
1701873580.7472,0.0,3.0,1.0,0.0,0.0,6.0,10.0,2.0
1701873580.7768712,1.0,1.0,1.0,1.0,-1.0,8.0,3.0,-3.0
1701873580.7768712,0.0,0.0,0.0,2.0,-1.0,-6.0,0.0,7.0
1701873580.7768712,-2.0,-7.0,-6.0,-4.0,5.0,-4.0,-17.0,-7.0
1701873580.7768712,-3.0,9.0,3.0,-3.0,-13.0,-11.0,-9.0,-15.0
1701873580.786958,3.0,-4.0,-3.0,2.0,9.0,12.0,10.0,10.0
1701873580.786958,-8.0,4.0,0.0,-1.0,0.0,-6.0,-5.0,-19.0
1701873580.786958,-2.0,-14.0,-6.0,-9.0,-16.0,-7.0,-17.0,-7.0
1701873580.786958,-1.0,3.0,0.0,-1.0,-5.0,-5.0,-1.0,2.0
1701873580.8071742,2.0,1.0,-4.0,0.0,5.0,-1.0,1.0,1.0
1701873580.8071742,4.0,1.0,2.0,1.0,-1.0,5.0,6.0,7.0
1701873580.8071742,1.0,4.0,6.0,2.0,-3.0,-7.0,4.0,3.0
1701873580.8071742,-2.0,-7.0,-4.0,-3.0,-4.0,-2.0,-3.0,-4.0
1701873580.827139,5.0,1.0,-7.0,-3.0,1.0,-1.0,-8.0,-3.0
1701873580.827139,-5.0,8.0,-4.0,2.0,5.0,3.0,2.0,2.0
1701873580.827139,-11.0,-20.0,-4.0,-4.0,-3.0,0.0,1.0,-4.0
1701873580.827139,2.0,5.0,1.0,-3.0,-6.0,0.0,0.0,1.0
1701873580.8579352,-2.0,-5.0,2.0,1.0,-3.0,-14.0,-3.0,0.0
1701873580.8579352,-5.0,-3.0,-2.0,-4.0,1.0,-1.0,-1.0,1.0
1701873580.8579352,1.0,6.0,1.0,5.0,-1.0,3.0,1.0,1.0
1701873580.8579352,2.0,-2.0,0.0,9.0,22.0,11.0,13.0,12.0
1701873580.8690598,-1.0,-2.0,0.0,0.0,3.0,7.0,-9.0,-21.0
1701873580.8690598,-5.0,-9.0,-5.0,-10.0,-17.0,-12.0,-2.0,6.0
1701873580.8690598,0.0,7.0,0.0,-4.0,-10.0,-12.0,-6.0,-11.0
1701873580.8690598,-6.0,-4.0,-1.0,-3.0,-3.0,1.0,0.0,-5.0
1701873580.8893297,6.0,8.0,3.0,3.0,2.0,-3.0,-5.0,7.0
1701873580.8893297,-2.0,-13.0,-2.0,2.0,7.0,9.0,4.0,-10.0
1701873580.8893297,-2.0,-5.0,-5.0,-6.0,-7.0,-5.0,-1.0,5.0
1701873580.8893297,2.0,-5.0,-5.0,-2.0,1.0,-3.0,-1.0,6.0
1701873580.919065,-6.0,3.0,1.0,4.0,0.0,-4.0,-3.0,-7.0
1701873580.919065,2.0,9.0,6.0,4.0,-2.0,2.0,0.0,1.0
1701873580.919065,-3.0,-4.0,-4.0,-3.0,-1.0,4.0,1.0,2.0
1701873580.919065,0.0,1.0,-4.0,-5.0,-5.0,-8.0,-4.0,-4.0
1701873580.9290874,1.0,-6.0,-5.0,-4.0,-4.0,-1.0,6.0,9.0
1701873580.9290874,5.0,3.0,2.0,3.0,9.0,4.0,-1.0,5.0
1701873580.9290874,-10.0,-20.0,-9.0,-3.0,2.0,0.0,-7.0,-11.0
1701873580.9290874,2.0,0.0,-3.0,-4.0,-13.0,-9.0,-5.0,1.0
1701873580.9492688,-5.0,0.0,1.0,0.0,-3.0,-2.0,2.0,-2.0
1701873580.9492688,7.0,9.0,4.0,-3.0,-3.0,-1.0,5.0,9.0
1701873580.9492688,4.0,6.0,0.0,3.0,6.0,3.0,-2.0,-3.0
1701873580.9492688,-9.0,-7.0,-2.0,-1.0,-1.0,2.0,1.0,-4.0
1701873580.9690733,-1.0,-8.0,-9.0,-3.0,2.0,-2.0,-4.0,5.0
1701873580.9690733,-3.0,-14.0,-6.0,-5.0,-6.0,-6.0,-5.0,-9.0
1701873580.9690733,4.0,10.0,1.0,-1.0,1.0,1.0,6.0,6.0
1701873580.9690733,4.0,6.0,9.0,8.0,4.0,4.0,1.0,-1.0
1701873580.9890633,9.0,8.0,2.0,-1.0,-2.0,-3.0,-2.0,0.0
1701873580.9890633,-13.0,-20.0,-6.0,0.0,1.0,-4.0,-6.0,-9.0
1701873580.9890633,5.0,6.0,1.0,2.0,3.0,3.0,8.0,13.0
1701873580.9890633,0.0,-4.0,-10.0,-16.0,-14.0,-12.0,-24.0,-27.0
1701873581.0090997,-6.0,5.0,12.0,8.0,5.0,6.0,6.0,5.0
1701873581.0090997,3.0,4.0,-2.0,-3.0,-4.0,-3.0,-6.0,-3.0
1701873581.0090997,-8.0,-12.0,-7.0,-1.0,-3.0,-6.0,0.0,-1.0
1701873581.0090997,3.0,13.0,5.0,0.0,0.0,2.0,6.0,10.0
1701873581.029091,-3.0,-11.0,-10.0,-14.0,-14.0,-8.0,-5.0,-7.0
1701873581.029091,1.0,0.0,1.0,0.0,-4.0,0.0,0.0,-2.0
1701873581.029091,-2.0,4.0,3.0,2.0,4.0,-4.0,-7.0,-3.0
1701873581.029091,-1.0,-3.0,1.0,10.0,22.0,15.0,6.0,5.0
1701873581.049067,-1.0,-1.0,-1.0,-1.0,-5.0,-5.0,-1.0,-3.0
1701873581.049067,-2.0,-4.0,-1.0,4.0,2.0,4.0,1.0,2.0
1701873581.049067,2.0,9.0,4.0,-2.0,-5.0,-1.0,-5.0,-3.0
1701873581.049067,-7.0,-7.0,-8.0,-9.0,-10.0,-7.0,-4.0,-3.0
1701873581.069351,-1.0,-2.0,-3.0,0.0,8.0,1.0,3.0,5.0
1701873581.069351,9.0,6.0,-3.0,-6.0,-5.0,-6.0,-6.0,-7.0
1701873581.069351,-4.0,-13.0,3.0,1.0,-8.0,-4.0,2.0,0.0
1701873581.069351,-7.0,-15.0,-6.0,-1.0,6.0,3.0,-4.0,-4.0
1701873581.1090631,-5.0,6.0,1.0,-2.0,-3.0,-1.0,0.0,-5.0
1701873581.1090631,2.0,2.0,6.0,-1.0,-3.0,-1.0,1.0,4.0
1701873581.1090631,4.0,15.0,-7.0,-4.0,4.0,-2.0,1.0,0.0
1701873581.1090631,4.0,2.0,1.0,-5.0,-16.0,-6.0,3.0,12.0
1701873581.1090631,-5.0,-10.0,-4.0,4.0,8.0,1.0,-4.0,-3.0
1701873581.1090631,1.0,1.0,1.0,5.0,7.0,6.0,-1.0,5.0
1701873581.1090631,8.0,2.0,1.0,0.0,4.0,1.0,3.0,7.0
1701873581.1090631,-6.0,-2.0,-8.0,0.0,-1.0,0.0,5.0,-1.0
1701873581.1390638,0.0,-2.0,2.0,-3.0,-9.0,-10.0,-9.0,-5.0
1701873581.1390638,-8.0,-3.0,-9.0,-5.0,-9.0,1.0,3.0,5.0
1701873581.1390638,-7.0,-8.0,0.0,-2.0,-3.0,-7.0,-5.0,-6.0
1701873581.1390638,4.0,8.0,4.0,1.0,1.0,-2.0,-3.0,-1.0
1701873581.1494672,2.0,1.0,3.0,3.0,2.0,-3.0,-6.0,0.0
1701873581.1494672,2.0,-7.0,-6.0,-3.0,-4.0,3.0,13.0,1.0
1701873581.1494672,-5.0,1.0,-5.0,-9.0,-12.0,0.0,0.0,0.0
1701873581.1494672,-5.0,-6.0,-3.0,-1.0,1.0,-3.0,-3.0,-9.0
1701873581.169064,0.0,3.0,6.0,8.0,21.0,11.0,5.0,2.0
1701873581.169064,-2.0,2.0,2.0,2.0,-4.0,-7.0,-7.0,-5.0
1701873581.169064,0.0,-2.0,-4.0,-1.0,6.0,-1.0,1.0,0.0
1701873581.169064,2.0,5.0,1.0,-6.0,-15.0,-5.0,-2.0,-1.0
1701873581.1893892,-6.0,-5.0,-5.0,-5.0,-14.0,-14.0,-10.0,-8.0
1701873581.1893892,0.0,6.0,2.0,4.0,14.0,9.0,6.0,3.0
1701873581.1893892,-1.0,-1.0,-2.0,2.0,4.0,9.0,5.0,-6.0
1701873581.1893892,4.0,-3.0,2.0,2.0,4.0,1.0,0.0,13.0
1701873581.2093701,4.0,6.0,-2.0,-5.0,-7.0,0.0,0.0,-2.0
1701873581.2093701,-8.0,-7.0,0.0,2.0,-4.0,-6.0,-5.0,-7.0
1701873581.2093701,2.0,2.0,2.0,3.0,5.0,-2.0,-1.0,1.0
1701873581.2093701,0.0,-2.0,-5.0,-3.0,2.0,-7.0,-6.0,-3.0
1701873581.2390656,1.0,1.0,-1.0,-2.0,2.0,10.0,7.0,4.0
1701873581.2390656,-2.0,1.0,0.0,-2.0,0.0,-2.0,0.0,-2.0
1701873581.2390656,-1.0,-2.0,1.0,-2.0,-7.0,-2.0,-2.0,-3.0
1701873581.2390656,-1.0,-1.0,-2.0,-1.0,-6.0,-5.0,-3.0,-3.0
1701873581.2493045,-3.0,-5.0,-4.0,-7.0,-8.0,-7.0,-7.0,-3.0
1701873581.2493045,-3.0,-3.0,-1.0,-3.0,-4.0,-4.0,-5.0,-5.0
1701873581.2493045,5.0,3.0,2.0,4.0,4.0,2.0,3.0,3.0
1701873581.2493045,0.0,0.0,2.0,4.0,7.0,9.0,3.0,0.0
1701873581.2693717,-2.0,-4.0,-1.0,1.0,4.0,4.0,1.0,0.0
1701873581.2693717,-2.0,-1.0,2.0,1.0,4.0,6.0,5.0,-2.0
1701873581.2693717,2.0,3.0,1.0,-3.0,-14.0,-11.0,-8.0,1.0
1701873581.2693717,-1.0,-4.0,-4.0,-3.0,3.0,2.0,-3.0,0.0
1701873581.3090637,-9.0,-2.0,1.0,2.0,-2.0,-1.0,1.0,-8.0
1701873581.3090637,0.0,-1.0,-3.0,-1.0,1.0,-1.0,-2.0,3.0
1701873581.3090637,-5.0,1.0,0.0,-1.0,-2.0,2.0,1.0,-3.0
1701873581.3090637,-3.0,-2.0,2.0,2.0,6.0,-5.0,0.0,-1.0
1701873581.3090637,0.0,-2.0,0.0,0.0,3.0,6.0,-2.0,3.0
1701873581.3090637,-1.0,0.0,-1.0,-6.0,-8.0,-14.0,-16.0,-5.0
1701873581.3090637,-1.0,-1.0,-3.0,-7.0,-17.0,-14.0,-4.0,-2.0
1701873581.3090637,-4.0,-3.0,-3.0,-2.0,1.0,9.0,9.0,-2.0
1701873581.339062,3.0,0.0,1.0,6.0,8.0,3.0,3.0,3.0
1701873581.339062,7.0,8.0,2.0,3.0,5.0,-2.0,-3.0,5.0
1701873581.339062,-12.0,-9.0,-3.0,-2.0,-4.0,0.0,-4.0,-8.0
1701873581.339062,-4.0,0.0,-3.0,-2.0,-3.0,-5.0,-9.0,-5.0
1701873581.3491082,2.0,-3.0,-5.0,-4.0,-4.0,-8.0,-3.0,1.0
1701873581.3491082,-5.0,-8.0,-2.0,-5.0,-4.0,2.0,1.0,-3.0
1701873581.3491082,2.0,5.0,3.0,4.0,1.0,0.0,-1.0,1.0
1701873581.3491082,-1.0,0.0,-1.0,1.0,-3.0,-4.0,0.0,-4.0
1701873581.3725853,-3.0,-6.0,-4.0,-3.0,-3.0,2.0,-1.0,-2.0
1701873581.3725853,3.0,7.0,2.0,-1.0,-6.0,-2.0,-3.0,-3.0
1701873581.3736,0.0,-2.0,-3.0,-6.0,-5.0,-1.0,-1.0,0.0
1701873581.3736,-1.0,-1.0,2.0,1.0,-3.0,-3.0,1.0,-2.0
1701873581.400487,3.0,6.0,1.0,-1.0,9.0,7.0,2.0,1.0
1701873581.400487,-4.0,-6.0,-3.0,1.0,1.0,0.0,0.0,-4.0
1701873581.400487,3.0,-1.0,0.0,4.0,12.0,6.0,-2.0,9.0
1701873581.400487,-5.0,1.0,0.0,-1.0,-10.0,-2.0,5.0,-5.0
1701873581.4019487,0.0,1.0,-2.0,-8.0,-15.0,-14.0,-8.0,0.0
1701873581.4019487,-5.0,-2.0,-2.0,2.0,4.0,3.0,-1.0,-12.0
1701873581.4123065,1.0,-2.0,3.0,6.0,17.0,15.0,9.0,1.0
1701873581.4123065,2.0,0.0,-1.0,-3.0,-10.0,-14.0,-11.0,-2.0
1701873581.4323654,-3.0,-3.0,-2.0,-4.0,-10.0,-4.0,2.0,-2.0
1701873581.4323654,-2.0,-1.0,2.0,0.0,7.0,5.0,0.0,2.0
1701873581.4323654,2.0,4.0,0.0,1.0,7.0,-3.0,-7.0,-2.0
1701873581.4323654,1.0,-6.0,-2.0,-3.0,-1.0,2.0,2.0,1.0
1701873581.4519513,-3.0,-4.0,-3.0,-3.0,-12.0,-7.0,-4.0,-6.0
1701873581.4519513,0.0,0.0,-3.0,-4.0,-9.0,-4.0,0.0,0.0
1701873581.4519513,-4.0,-4.0,-3.0,-7.0,-9.0,0.0,2.0,-1.0
1701873581.4519513,1.0,2.0,3.0,2.0,10.0,4.0,0.0,2.0
1701873581.4619544,1.0,2.0,4.0,7.0,9.0,0.0,-3.0,-2.0
1701873581.4619544,-2.0,-4.0,0.0,-1.0,2.0,4.0,11.0,7.0
1701873581.472023,3.0,-2.0,-3.0,0.0,-5.0,-5.0,0.0,3.0
1701873581.472023,-2.0,0.0,0.0,-3.0,-4.0,6.0,1.0,2.0
1701873581.49227,-3.0,-1.0,-2.0,-2.0,0.0,0.0,2.0,0.0
1701873581.49227,1.0,5.0,2.0,-1.0,-1.0,-5.0,-4.0,-2.0
1701873581.49227,-2.0,-2.0,-1.0,0.0,0.0,-4.0,-6.0,-7.0
1701873581.49227,6.0,1.0,2.0,3.0,7.0,11.0,9.0,6.0
1701873581.5123034,1.0,0.0,-1.0,4.0,3.0,-1.0,1.0,-1.0
1701873581.5123034,-1.0,-3.0,-5.0,-1.0,-3.0,2.0,-3.0,1.0
1701873581.5123034,-5.0,-2.0,-2.0,-5.0,-10.0,-9.0,-1.0,-4.0
1701873581.5123034,2.0,-3.0,-3.0,-4.0,-7.0,-4.0,-10.0,-3.0
1701873581.5219564,-1.0,0.0,-3.0,-1.0,6.0,5.0,-3.0,-3.0
1701873581.5219564,-1.0,-2.0,-1.0,-3.0,-2.0,0.0,2.0,-2.0
1701873581.5319822,4.0,0.0,0.0,-2.0,-2.0,2.0,1.0,3.0
1701873581.5319822,-4.0,0.0,0.0,1.0,-3.0,-12.0,-4.0,-5.0
1701873581.5519528,2.0,-1.0,1.0,1.0,-3.0,-1.0,2.0,6.0
1701873581.5519528,-2.0,1.0,-3.0,-4.0,-5.0,-5.0,-5.0,-3.0
1701873581.5519528,-5.0,-5.0,0.0,4.0,8.0,0.0,0.0,-1.0
1701873581.5519528,-1.0,0.0,0.0,-2.0,2.0,11.0,3.0,0.0
1701873581.572241,-1.0,-3.0,-5.0,-6.0,-10.0,-9.0,-7.0,-2.0
1701873581.572241,0.0,3.0,0.0,0.0,-5.0,-5.0,-3.0,-2.0
1701873581.572241,-2.0,0.0,-2.0,-3.0,-5.0,0.0,-3.0,-4.0
1701873581.572241,-3.0,-2.0,-2.0,3.0,10.0,4.0,2.0,-1.0
1701873581.5819545,3.0,0.0,-2.0,-5.0,-19.0,-12.0,-4.0,0.0
1701873581.5819545,2.0,0.0,2.0,2.0,10.0,6.0,-1.0,-3.0
1701873581.5921793,-3.0,-1.0,1.0,4.0,14.0,16.0,9.0,-1.0
1701873581.5921793,0.0,1.0,2.0,1.0,5.0,-5.0,-4.0,1.0
1701873581.6319542,0.0,-3.0,-2.0,-4.0,-6.0,-5.0,-2.0,-5.0
1701873581.6319542,-2.0,-4.0,-4.0,-6.0,-19.0,-12.0,-8.0,4.0
1701873581.6319542,-1.0,0.0,0.0,3.0,9.0,-1.0,-5.0,-2.0
1701873581.6319542,2.0,1.0,1.0,1.0,-3.0,2.0,-2.0,1.0
1701873581.6319542,0.0,2.0,0.0,3.0,10.0,8.0,5.0,-1.0
1701873581.6319542,-1.0,-4.0,-1.0,-6.0,-8.0,-6.0,-2.0,1.0
1701873581.6319542,-3.0,-2.0,-1.0,-5.0,-7.0,-8.0,-2.0,-4.0
1701873581.6319542,-1.0,0.0,-2.0,0.0,-1.0,2.0,-3.0,-2.0
1701873581.641953,-1.0,-4.0,-1.0,-3.0,-4.0,0.0,-2.0,-1.0
1701873581.641953,-1.0,1.0,1.0,3.0,2.0,6.0,3.0,-2.0
1701873581.6520205,0.0,2.0,1.0,2.0,3.0,0.0,-3.0,-1.0
1701873581.6520205,0.0,-1.0,-2.0,-3.0,8.0,1.0,-1.0,-3.0
1701873581.672236,-3.0,-3.0,-1.0,1.0,6.0,1.0,0.0,0.0
1701873581.672236,-2.0,1.0,1.0,3.0,3.0,1.0,3.0,0.0
1701873581.672236,4.0,0.0,-3.0,-2.0,-7.0,-1.0,-3.0,0.0
1701873581.672236,-2.0,-3.0,-3.0,-6.0,-13.0,-9.0,-4.0,0.0
1701873581.6919537,0.0,2.0,1.0,0.0,-1.0,3.0,1.0,-3.0
1701873581.6919537,-1.0,-1.0,1.0,0.0,6.0,-4.0,-3.0,-1.0
1701873581.6919537,2.0,-1.0,-2.0,-5.0,-7.0,-8.0,-5.0,0.0
1701873581.6919537,-12.0,-1.0,0.0,1.0,-1.0,0.0,2.0,-4.0
1701873581.7019506,-1.0,-3.0,-3.0,-3.0,-2.0,4.0,2.0,0.0
1701873581.7019506,2.0,1.0,0.0,1.0,-5.0,-6.0,-4.0,3.0
1701873581.7122529,-1.0,0.0,1.0,1.0,1.0,8.0,3.0,-1.0
1701873581.7122529,1.0,-1.0,-2.0,1.0,2.0,-2.0,-2.0,-2.0
1701873581.731982,0.0,4.0,1.0,3.0,10.0,0.0,-4.0,0.0
1701873581.731982,-1.0,-2.0,-4.0,-2.0,-2.0,1.0,-2.0,-6.0
1701873581.731982,-3.0,0.0,-2.0,-1.0,-8.0,-8.0,-2.0,-1.0
1701873581.731982,2.0,-1.0,2.0,2.0,2.0,-2.0,0.0,3.0
1701873581.7523782,-3.0,-2.0,-2.0,-3.0,-7.0,-6.0,-5.0,-3.0
1701873581.7523782,-1.0,-4.0,-1.0,-6.0,-5.0,-4.0,0.0,-1.0
1701873581.7523782,0.0,3.0,1.0,0.0,3.0,4.0,1.0,1.0
1701873581.7523782,0.0,-4.0,-4.0,-1.0,-3.0,-2.0,-1.0,-1.0
1701873581.781951,-4.0,1.0,1.0,2.0,3.0,-5.0,0.0,-1.0
1701873581.781951,-3.0,-3.0,0.0,1.0,8.0,5.0,-3.0,-7.0
1701873581.781951,0.0,-2.0,-4.0,-5.0,-8.0,3.0,2.0,4.0
1701873581.781951,0.0,-2.0,-2.0,-2.0,-6.0,-4.0,-1.0,2.0
1701873581.7922745,0.0,-1.0,-1.0,3.0,9.0,-1.0,0.0,1.0
1701873581.7922745,-4.0,-2.0,-3.0,-2.0,2.0,-1.0,-4.0,0.0
1701873581.7922745,-1.0,2.0,3.0,4.0,-1.0,1.0,6.0,-1.0
1701873581.7922745,0.0,-1.0,-2.0,-2.0,1.0,7.0,5.0,-1.0
1701873581.8123794,-4.0,-3.0,-2.0,-5.0,-7.0,-2.0,-4.0,-3.0
1701873581.8123794,3.0,-1.0,1.0,1.0,-4.0,1.0,4.0,6.0
1701873581.8123794,-1.0,0.0,0.0,-2.0,3.0,-6.0,-7.0,-1.0
1701873581.8123794,-2.0,0.0,-2.0,-1.0,-3.0,-1.0,0.0,-3.0
1701873581.841952,1.0,0.0,2.0,1.0,-2.0,-7.0,-6.0,-1.0
1701873581.841952,-1.0,0.0,-1.0,4.0,10.0,17.0,14.0,1.0
1701873581.841952,-1.0,-2.0,-3.0,-3.0,0.0,-2.0,-1.0,-1.0
1701873581.841952,1.0,-1.0,-2.0,-2.0,-3.0,-5.0,-4.0,1.0
1701873581.8523164,1.0,-1.0,-3.0,0.0,-6.0,-6.0,-5.0,0.0
1701873581.8523164,-1.0,-1.0,2.0,-2.0,-7.0,-5.0,-3.0,-4.0
1701873581.8523164,-1.0,-4.0,-4.0,-3.0,-2.0,-1.0,-2.0,2.0
1701873581.8523164,-1.0,0.0,1.0,3.0,18.0,8.0,-1.0,-2.0
1701873581.872372,-2.0,-1.0,0.0,1.0,1.0,2.0,3.0,-5.0
1701873581.872372,-1.0,1.0,-4.0,-6.0,-11.0,-10.0,-9.0,-1.0
1701873581.872372,0.0,-1.0,-1.0,-2.0,-6.0,-1.0,2.0,1.0
1701873581.872372,-2.0,-1.0,-2.0,0.0,-2.0,-5.0,-3.0,-5.0
1701873581.9074335,-1.0,6.0,2.0,-3.0,0.0,5.0,0.0,0.0
1701873581.9074335,-2.0,-17.0,-9.0,0.0,1.0,-5.0,-2.0,-1.0
1701873581.9074335,-2.0,-3.0,-1.0,0.0,0.0,-3.0,-5.0,-11.0
1701873581.9074335,1.0,-2.0,-2.0,0.0,-3.0,-4.0,-2.0,5.0
1701873581.913457,0.0,0.0,-1.0,-1.0,-1.0,5.0,4.0,0.0
1701873581.913457,0.0,5.0,1.0,1.0,3.0,2.0,1.0,1.0
1701873581.913457,2.0,0.0,-1.0,2.0,6.0,-2.0,-3.0,2.0
1701873581.913457,-2.0,0.0,-1.0,-6.0,-18.0,-13.0,-6.0,-5.0
1701873581.935293,-4.0,-6.0,-2.0,-2.0,5.0,2.0,0.0,-4.0
1701873581.935293,4.0,2.0,1.0,0.0,3.0,3.0,-5.0,5.0
1701873581.935293,-3.0,-1.0,-2.0,1.0,3.0,7.0,3.0,-1.0
1701873581.935293,0.0,1.0,0.0,-2.0,-4.0,-9.0,-4.0,-1.0
1701873581.9852908,-1.0,-2.0,0.0,0.0,-9.0,-1.0,-1.0,-1.0
1701873581.9852908,-4.0,-3.0,-3.0,-5.0,0.0,1.0,3.0,-6.0
1701873581.9852908,0.0,0.0,-1.0,-4.0,-3.0,1.0,2.0,1.0
1701873581.9852908,-2.0,0.0,-2.0,-2.0,-9.0,-3.0,-5.0,-5.0
1701873581.9852908,1.0,-3.0,-1.0,1.0,11.0,2.0,-2.0,-1.0
1701873581.9852908,-2.0,1.0,0.0,-2.0,-5.0,-8.0,-7.0,-5.0
1701873581.9852908,-2.0,-1.0,1.0,0.0,0.0,-3.0,-4.0,0.0
1701873581.9852908,-1.0,-1.0,0.0,1.0,3.0,7.0,4.0,1.0
1701873581.9952893,-1.0,-3.0,-5.0,-4.0,-4.0,-3.0,-4.0,-3.0
1701873581.9952893,-2.0,3.0,1.0,0.0,2.0,-1.0,3.0,0.0
1701873581.9952893,-2.0,-1.0,0.0,-2.0,-1.0,-2.0,-2.0,-7.0
1701873581.9952893,1.0,0.0,-3.0,-5.0,0.0,-2.0,-2.0,3.0
1701873582.01554,-1.0,2.0,1.0,4.0,7.0,6.0,3.0,5.0
1701873582.01554,-1.0,-3.0,-1.0,-1.0,-7.0,-4.0,-2.0,0.0
1701873582.01554,-1.0,-1.0,-3.0,-6.0,-9.0,-8.0,-4.0,-6.0
1701873582.01554,-1.0,0.0,0.0,-1.0,0.0,0.0,-1.0,1.0
1701873582.0352962,-4.0,-2.0,-1.0,-1.0,0.0,-4.0,0.0,-3.0
1701873582.0352962,3.0,3.0,2.0,2.0,6.0,2.0,1.0,1.0
1701873582.0352962,-3.0,-7.0,-2.0,2.0,-2.0,-3.0,-6.0,-3.0
1701873582.0352962,-1.0,-1.0,0.0,-1.0,-3.0,3.0,3.0,-3.0
1701873582.0552928,0.0,1.0,-1.0,-2.0,2.0,3.0,3.0,3.0
1701873582.0552928,-4.0,0.0,-3.0,-4.0,-6.0,-7.0,-8.0,-4.0
1701873582.0552928,-1.0,0.0,0.0,0.0,0.0,-3.0,-3.0,-1.0
1701873582.0552928,-3.0,-4.0,-3.0,-3.0,0.0,0.0,-2.0,-2.0
1701873582.0752878,3.0,1.0,1.0,-1.0,-12.0,-6.0,1.0,1.0
1701873582.0752878,0.0,-2.0,-2.0,-3.0,3.0,7.0,6.0,-2.0
1701873582.0752878,-1.0,1.0,-2.0,-1.0,-7.0,-4.0,1.0,1.0
1701873582.0752878,0.0,-2.0,-1.0,0.0,6.0,-1.0,-4.0,-3.0
1701873582.085315,-2.0,-4.0,-1.0,2.0,8.0,5.0,-2.0,0.0
1701873582.085315,-2.0,1.0,-1.0,-4.0,-10.0,-9.0,-5.0,-4.0
1701873582.085315,-1.0,-2.0,-3.0,-7.0,-9.0,-10.0,-4.0,-1.0
1701873582.085315,4.0,3.0,2.0,3.0,10.0,12.0,13.0,7.0
1701873582.1152885,8.0,0.0,0.0,-3.0,-8.0,4.0,1.0,6.0
1701873582.1152885,-18.0,-8.0,-5.0,1.0,9.0,0.0,-6.0,-15.0
1701873582.1152885,0.0,2.0,0.0,0.0,-1.0,-3.0,0.0,2.0
1701873582.1152885,-4.0,-5.0,-4.0,-4.0,-7.0,-6.0,-4.0,-4.0
1701873582.1355722,4.0,1.0,0.0,-1.0,-2.0,0.0,3.0,8.0
1701873582.1355722,4.0,0.0,-1.0,-5.0,-7.0,-6.0,-4.0,2.0
1701873582.1355722,-3.0,1.0,-1.0,0.0,3.0,5.0,0.0,-6.0
1701873582.1355722,3.0,-4.0,-1.0,4.0,4.0,0.0,2.0,5.0
1701873582.145553,-3.0,0.0,-1.0,-3.0,0.0,-2.0,-3.0,-5.0
1701873582.145553,0.0,0.0,0.0,-3.0,-10.0,-4.0,1.0,1.0
1701873582.145553,-3.0,0.0,1.0,-1.0,1.0,-5.0,-1.0,-6.0
1701873582.145553,2.0,2.0,0.0,0.0,-1.0,-1.0,-2.0,3.0
1701873582.1752942,-3.0,-5.0,-1.0,0.0,-1.0,1.0,-1.0,-4.0
1701873582.1752942,2.0,2.0,2.0,1.0,2.0,0.0,-3.0,0.0
1701873582.1752942,1.0,-4.0,-2.0,-2.0,0.0,1.0,2.0,4.0
1701873582.1752942,-4.0,-3.0,-3.0,-6.0,-8.0,-8.0,-6.0,-6.0
1701873582.2052875,-1.0,-1.0,-2.0,-1.0,4.0,8.0,1.0,-1.0
1701873582.2052875,-1.0,0.0,-1.0,4.0,2.0,1.0,0.0,-3.0
1701873582.2052875,6.0,0.0,8.0,4.0,6.0,3.0,2.0,9.0
1701873582.2052875,-1.0,0.0,-1.0,-2.0,-4.0,-7.0,-4.0,-5.0
1701873582.2052875,6.0,0.0,-2.0,-4.0,-7.0,-4.0,-2.0,5.0
1701873582.2052875,-13.0,-1.0,-3.0,-4.0,-4.0,-3.0,-5.0,-12.0
1701873582.2052875,-2.0,-5.0,-5.0,-3.0,-3.0,-4.0,0.0,10.0
1701873582.2052875,-1.0,-1.0,-1.0,1.0,3.0,-4.0,-9.0,-13.0
1701873582.2252877,-1.0,1.0,2.0,1.0,4.0,3.0,1.0,1.0
1701873582.2252877,2.0,-2.0,-3.0,-2.0,-3.0,1.0,1.0,1.0
1701873582.235288,-1.0,-7.0,-5.0,-1.0,1.0,1.0,2.0,-3.0
1701873582.235288,0.0,2.0,3.0,5.0,9.0,8.0,8.0,3.0
1701873582.2557218,-5.0,-5.0,-6.0,-3.0,-5.0,-9.0,-4.0,-4.0
1701873582.2557218,4.0,6.0,3.0,-1.0,0.0,-2.0,1.0,5.0
1701873582.2557218,-4.0,-4.0,1.0,0.0,-4.0,2.0,-1.0,-5.0
1701873582.2557218,-2.0,-2.0,-6.0,-3.0,1.0,5.0,0.0,-2.0
1701873582.26529,-2.0,0.0,5.0,-2.0,-6.0,-7.0,-1.0,-6.0
1701873582.26529,-1.0,-5.0,-10.0,-2.0,-8.0,-5.0,-2.0,1.0
1701873582.26529,-1.0,4.0,3.0,2.0,8.0,2.0,-1.0,-2.0
1701873582.26529,-1.0,2.0,5.0,2.0,-4.0,-2.0,1.0,2.0
1701873582.2952874,-1.0,1.0,-6.0,-3.0,-5.0,0.0,3.0,2.0
1701873582.2952874,2.0,1.0,1.0,4.0,16.0,6.0,-9.0,-7.0
1701873582.2952874,-2.0,2.0,-2.0,-2.0,-5.0,-6.0,-9.0,-6.0
1701873582.2952874,1.0,-2.0,7.0,0.0,-9.0,4.0,7.0,5.0
1701873582.3155892,-1.0,-1.0,-4.0,-5.0,-9.0,-1.0,-2.0,-1.0
1701873582.3155892,-2.0,-5.0,-10.0,-10.0,-2.0,-6.0,0.0,-2.0
1701873582.3155892,0.0,1.0,2.0,6.0,7.0,6.0,-1.0,-3.0
1701873582.3155892,0.0,1.0,0.0,0.0,3.0,-3.0,-6.0,-1.0
1701873582.325558,-2.0,-3.0,-3.0,-2.0,1.0,3.0,-1.0,0.0
1701873582.325558,8.0,1.0,8.0,4.0,3.0,4.0,5.0,10.0
1701873582.3355358,-1.0,1.0,-8.0,-3.0,-6.0,-7.0,-2.0,-3.0
1701873582.3355358,-2.0,-3.0,-4.0,-7.0,-6.0,0.0,-2.0,0.0
1701873582.3653107,0.0,2.0,2.0,1.0,-1.0,-7.0,-4.0,-7.0
1701873582.3653107,-1.0,-2.0,3.0,3.0,4.0,1.0,1.0,4.0
1701873582.3653107,0.0,1.0,0.0,2.0,5.0,6.0,1.0,2.0
1701873582.3653107,-1.0,-2.0,-6.0,-5.0,-9.0,-6.0,-3.0,-2.0
1701873582.3757143,-5.0,-3.0,-4.0,-1.0,2.0,2.0,-4.0,-2.0
1701873582.3757143,-5.0,1.0,-2.0,-5.0,-3.0,-6.0,-3.0,-7.0
1701873582.3757143,1.0,-2.0,1.0,-6.0,-10.0,-6.0,-2.0,4.0
1701873582.3757143,-1.0,0.0,-2.0,0.0,1.0,4.0,3.0,1.0
1701873582.3957253,-2.0,-2.0,-3.0,-2.0,-7.0,-5.0,-4.0,-3.0
1701873582.3957253,0.0,0.0,4.0,9.0,13.0,11.0,9.0,4.0
1701873582.3957253,-1.0,-4.0,-4.0,0.0,4.0,2.0,0.0,-5.0
1701873582.3957253,-1.0,-1.0,-5.0,-3.0,-3.0,-4.0,-2.0,-3.0
1701873582.4157302,-3.0,-3.0,5.0,-4.0,-6.0,-13.0,-10.0,-2.0
1701873582.4157302,1.0,-1.0,1.0,1.0,-5.0,8.0,11.0,2.0
1701873582.4157302,-1.0,0.0,-2.0,3.0,19.0,12.0,4.0,0.0
1701873582.4157302,-2.0,-1.0,-1.0,-2.0,-4.0,-9.0,-7.0,-2.0
1701873582.4391296,4.0,0.0,-1.0,-3.0,-7.0,-1.0,0.0,3.0
1701873582.4391296,-6.0,-6.0,-6.0,-9.0,-15.0,-8.0,0.0,-4.0
1701873582.4391296,0.0,1.0,1.0,2.0,3.0,3.0,-2.0,1.0
1701873582.4391296,0.0,-4.0,-5.0,-1.0,1.0,-4.0,-4.0,-1.0
1701873582.4574795,-9.0,-7.0,-4.0,-2.0,-4.0,-5.0,-3.0,-6.0
1701873582.4574795,5.0,2.0,2.0,-2.0,-5.0,2.0,4.0,5.0
1701873582.477695,-1.0,0.0,1.0,1.0,11.0,7.0,2.0,-2.0
1701873582.477695,-3.0,0.0,0.0,0.0,1.0,-3.0,-4.0,-2.0
1701873582.477695,-1.0,1.0,0.0,0.0,-11.0,-8.0,-2.0,-2.0
1701873582.477695,0.0,-4.0,-1.0,0.0,1.0,2.0,-4.0,-1.0
1701873582.477695,-4.0,0.0,2.0,0.0,-2.0,0.0,0.0,-4.0
1701873582.477695,-1.0,0.0,-1.0,-3.0,-2.0,3.0,-2.0,-1.0
1701873582.4977508,-1.0,-1.0,0.0,3.0,5.0,1.0,6.0,2.0
1701873582.4977508,0.0,3.0,2.0,4.0,6.0,-3.0,-7.0,2.0
1701873582.4977508,1.0,-2.0,-2.0,-5.0,-12.0,-8.0,-4.0,1.0
1701873582.4977508,0.0,-1.0,-1.0,-4.0,-1.0,0.0,0.0,-2.0
1701873582.5176954,-2.0,-3.0,-2.0,-2.0,-4.0,-1.0,0.0,-5.0
1701873582.5176954,0.0,4.0,3.0,-2.0,-8.0,-6.0,-2.0,5.0
1701873582.5176954,0.0,-6.0,-6.0,-3.0,-6.0,-4.0,-2.0,-3.0
1701873582.5176954,2.0,-2.0,0.0,4.0,7.0,2.0,-2.0,2.0
1701873582.5279026,-7.0,0.0,4.0,4.0,18.0,16.0,9.0,-1.0
1701873582.5279026,-2.0,-4.0,-5.0,-2.0,4.0,-5.0,-9.0,-4.0
1701873582.5279026,-1.0,-3.0,-5.0,-8.0,-19.0,-9.0,-6.0,1.0
1701873582.5279026,0.0,-1.0,0.0,-1.0,-8.0,-3.0,7.0,0.0
1701873582.557699,1.0,2.0,0.0,1.0,2.0,-3.0,-7.0,-3.0
1701873582.557699,-1.0,0.0,0.0,3.0,8.0,3.0,-3.0,-3.0
1701873582.557699,-1.0,1.0,-1.0,-1.0,-1.0,-3.0,-1.0,-1.0
1701873582.557699,-4.0,-1.0,-2.0,-4.0,-6.0,-3.0,-3.0,-7.0
1701873582.5876966,-1.0,3.0,2.0,-2.0,6.0,4.0,-1.0,1.0
1701873582.5876966,1.0,0.0,0.0,0.0,3.0,-1.0,0.0,-2.0
1701873582.597694,-1.0,-3.0,-2.0,-3.0,-7.0,-3.0,-3.0,-3.0
1701873582.597694,-1.0,2.0,0.0,3.0,0.0,-4.0,0.0,0.0
1701873582.597694,-2.0,0.0,-2.0,-1.0,0.0,1.0,0.0,-1.0
1701873582.597694,1.0,-2.0,-1.0,-4.0,-7.0,-5.0,-3.0,1.0
1701873582.597694,-4.0,-2.0,0.0,-3.0,-10.0,-4.0,0.0,-7.0
1701873582.597694,3.0,-1.0,0.0,-3.0,1.0,2.0,2.0,7.0
1701873582.617699,-2.0,-4.0,0.0,2.0,2.0,-3.0,-1.0,-14.0
1701873582.617699,-10.0,-3.0,-1.0,-2.0,-9.0,-6.0,-6.0,-8.0
1701873582.617699,-1.0,1.0,2.0,-1.0,4.0,4.0,1.0,3.0
1701873582.617699,-2.0,-1.0,0.0,2.0,4.0,7.0,0.0,-2.0
1701873582.637695,1.0,0.0,-2.0,3.0,7.0,3.0,1.0,3.0
1701873582.637695,0.0,-1.0,-2.0,-1.0,5.0,1.0,0.0,-3.0
1701873582.637695,1.0,0.0,-2.0,-4.0,-4.0,-4.0,1.0,1.0
1701873582.637695,-3.0,-3.0,0.0,-4.0,-10.0,-7.0,-6.0,-5.0
1701873582.648102,-1.0,-2.0,0.0,-5.0,-7.0,-6.0,-1.0,3.0
1701873582.648102,1.0,-2.0,-1.0,0.0,1.0,4.0,6.0,0.0
1701873582.648102,-1.0,2.0,1.0,2.0,1.0,0.0,-3.0,-2.0
1701873582.648102,-1.0,-4.0,-2.0,-3.0,-3.0,-2.0,-3.0,1.0
1701873582.678118,1.0,-1.0,-3.0,-1.0,-9.0,-2.0,-5.0,-2.0
1701873582.678118,0.0,-3.0,-1.0,1.0,2.0,-5.0,2.0,4.0
1701873582.678118,0.0,1.0,3.0,3.0,12.0,3.0,0.0,-3.0
1701873582.678118,-1.0,-1.0,1.0,6.0,6.0,5.0,2.0,-3.0
1701873582.698403,1.0,-1.0,-4.0,-5.0,3.0,-2.0,-4.0,1.0
1701873582.698403,-2.0,-2.0,-3.0,-7.0,-21.0,-15.0,-14.0,-6.0
1701873582.698403,-2.0,0.0,1.0,0.0,2.0,23.0,25.0,3.0
1701873582.698403,-3.0,0.0,-1.0,2.0,4.0,3.0,0.0,-4.0
1701873582.7084286,4.0,0.0,-2.0,-2.0,0.0,-4.0,-1.0,3.0
1701873582.7084286,0.0,-1.0,0.0,0.0,2.0,1.0,-4.0,-1.0
1701873582.7084286,-4.0,-4.0,-4.0,-6.0,-9.0,-16.0,-10.0,0.0
1701873582.7084286,-3.0,0.0,0.0,-4.0,-8.0,-5.0,-5.0,-3.0
1701873582.758785,-6.0,1.0,1.0,1.0,3.0,4.0,7.0,-2.0
1701873582.758785,1.0,-7.0,-4.0,3.0,10.0,4.0,3.0,2.0
1701873582.758785,1.0,5.0,2.0,0.0,-3.0,-6.0,-6.0,-3.0
1701873582.758785,0.0,0.0,0.0,1.0,0.0,6.0,4.0,0.0
1701873582.758785,-1.0,-4.0,-2.0,-2.0,2.0,-3.0,-8.0,-2.0
1701873582.758785,-1.0,1.0,-1.0,-2.0,-9.0,-2.0,0.0,-1.0
1701873582.758785,-1.0,2.0,1.0,-2.0,-6.0,-10.0,-5.0,-1.0
1701873582.758785,0.0,-8.0,-6.0,-5.0,-5.0,3.0,1.0,1.0
1701873582.7688158,0.0,-2.0,2.0,4.0,11.0,7.0,3.0,-1.0
1701873582.7688158,0.0,1.0,1.0,5.0,11.0,6.0,3.0,1.0
1701873582.7688158,1.0,0.0,-4.0,-3.0,-10.0,-6.0,-4.0,-1.0
1701873582.7688158,-1.0,0.0,-5.0,-8.0,-14.0,-15.0,-9.0,-3.0
1701873582.798783,-3.0,-2.0,-1.0,0.0,-1.0,0.0,-1.0,-1.0
1701873582.798783,-2.0,-2.0,-2.0,-2.0,-3.0,-4.0,0.0,-2.0
1701873582.798783,4.0,0.0,1.0,2.0,8.0,11.0,5.0,5.0
1701873582.798783,-9.0,3.0,3.0,1.0,7.0,1.0,-1.0,-9.0
1701873582.8188531,-5.0,-10.0,-5.0,-5.0,-10.0,-2.0,0.0,0.0
1701873582.8188531,5.0,3.0,0.0,-4.0,-1.0,0.0,1.0,5.0
1701873582.8188531,0.0,3.0,1.0,1.0,4.0,-3.0,-5.0,-3.0
1701873582.8188531,-1.0,-6.0,-3.0,-1.0,-3.0,-7.0,-1.0,1.0
1701873582.8287861,0.0,5.0,5.0,2.0,1.0,3.0,-1.0,-3.0
1701873582.8287861,2.0,2.0,2.0,-3.0,6.0,2.0,-1.0,2.0
1701873582.8287861,-3.0,-5.0,-3.0,-2.0,-3.0,-3.0,0.0,-2.0
1701873582.8287861,2.0,6.0,2.0,-1.0,-4.0,-3.0,2.0,2.0
1701873582.858782,-2.0,-1.0,-5.0,-4.0,-3.0,-10.0,-4.0,-4.0
1701873582.858782,-1.0,1.0,-2.0,0.0,-3.0,3.0,2.0,-2.0
1701873582.858782,-2.0,-5.0,-2.0,-1.0,-4.0,-4.0,-3.0,-3.0
1701873582.858782,1.0,-2.0,-1.0,3.0,8.0,0.0,-2.0,3.0
1701873582.8790076,1.0,-3.0,1.0,3.0,1.0,4.0,3.0,0.0
1701873582.8790076,-2.0,5.0,0.0,0.0,-1.0,3.0,1.0,-2.0
1701873582.8790076,-2.0,-5.0,-5.0,-5.0,-4.0,-8.0,-5.0,-3.0
1701873582.8790076,-3.0,-1.0,-2.0,-5.0,-15.0,-14.0,-6.0,-8.0
1701873582.8890042,7.0,1.0,0.0,1.0,4.0,11.0,12.0,10.0
1701873582.8890042,-1.0,-3.0,0.0,3.0,9.0,7.0,0.0,-2.0
1701873582.8890042,-2.0,-3.0,0.0,-4.0,-4.0,-3.0,-3.0,-6.0
1701873582.8890042,3.0,-2.0,0.0,0.0,-1.0,10.0,12.0,6.0
1701873582.918784,-2.0,4.0,-3.0,-4.0,-6.0,-10.0,-11.0,-6.0
1701873582.918784,-4.0,-3.0,-3.0,-5.0,-5.0,-5.0,-3.0,-3.0
1701873582.918784,2.0,-11.0,-3.0,1.0,-5.0,-3.0,-2.0,2.0
1701873582.918784,-2.0,26.0,8.0,0.0,8.0,1.0,-3.0,-3.0
1701873582.9390533,3.0,6.0,1.0,0.0,-2.0,-3.0,1.0,2.0
1701873582.9390533,0.0,-13.0,-6.0,1.0,-8.0,-4.0,-3.0,-1.0
1701873582.9390533,2.0,8.0,1.0,0.0,1.0,-2.0,-1.0,2.0
1701873582.9390533,-1.0,-5.0,-1.0,2.0,3.0,6.0,2.0,-2.0
1701873582.94901,2.0,1.0,2.0,2.0,9.0,5.0,2.0,1.0
1701873582.94901,-1.0,4.0,0.0,-3.0,-6.0,-7.0,-4.0,-3.0
1701873582.94901,-3.0,-1.0,-4.0,-5.0,-8.0,-3.0,-2.0,-6.0
1701873582.94901,-4.0,-14.0,-6.0,-2.0,-10.0,-7.0,-2.0,4.0
1701873582.9836946,-2.0,3.0,4.0,3.0,2.0,-2.0,-6.0,-3.0
1701873582.9836946,2.0,-1.0,0.0,1.0,5.0,7.0,0.0,1.0
1701873582.9836946,2.0,0.0,0.0,5.0,14.0,6.0,3.0,2.0
1701873582.9836946,-6.0,-4.0,-6.0,-3.0,0.0,0.0,0.0,-1.0
1701873582.9938858,-6.0,0.0,-1.0,-4.0,-18.0,-16.0,-12.0,-11.0
1701873582.9938858,-6.0,-4.0,0.0,-2.0,-5.0,0.0,6.0,-4.0
1701873582.9938858,-4.0,-16.0,-4.0,3.0,6.0,2.0,-1.0,-8.0
1701873582.9938858,-1.0,15.0,0.0,0.0,6.0,-3.0,-5.0,11.0
1701873583.0136974,6.0,-4.0,-4.0,3.0,4.0,14.0,8.0,1.0
1701873583.0136974,-2.0,-3.0,-5.0,-9.0,-13.0,-1.0,12.0,4.0
1701873583.0136974,-1.0,11.0,1.0,1.0,-2.0,-5.0,-5.0,-9.0
1701873583.0136974,0.0,-15.0,0.0,-3.0,-2.0,-6.0,-6.0,-2.0
1701873583.034085,-1.0,-4.0,-7.0,-4.0,-6.0,-5.0,-4.0,1.0
1701873583.034085,-8.0,-4.0,-3.0,-3.0,-6.0,-6.0,-8.0,-6.0
1701873583.04405,-1.0,-4.0,0.0,-6.0,-8.0,0.0,1.0,4.0
1701873583.04405,3.0,0.0,7.0,10.0,17.0,8.0,-2.0,-8.0
1701873583.0540586,-6.0,-8.0,-5.0,2.0,3.0,0.0,0.0,0.0
1701873583.0540586,3.0,3.0,2.0,5.0,6.0,0.0,-5.0,-6.0
1701873583.0540586,-11.0,-5.0,-5.0,-5.0,-3.0,-2.0,1.0,-1.0
1701873583.0540586,3.0,5.0,2.0,-5.0,-10.0,-5.0,0.0,-2.0
1701873583.0736957,-1.0,-6.0,-3.0,-2.0,-3.0,-2.0,-3.0,-2.0
1701873583.0736957,0.0,1.0,0.0,0.0,-1.0,4.0,2.0,-3.0
1701873583.0736957,4.0,2.0,-5.0,-5.0,-7.0,-11.0,-10.0,3.0
1701873583.0736957,-8.0,0.0,1.0,-3.0,0.0,1.0,0.0,-2.0
1701873583.0939586,-5.0,-9.0,-4.0,-3.0,-8.0,-9.0,-6.0,1.0
1701873583.0939586,6.0,5.0,4.0,2.0,5.0,-1.0,3.0,10.0
1701873583.0939586,1.0,2.0,-3.0,2.0,6.0,4.0,0.0,-2.0
1701873583.0939586,-1.0,-7.0,-6.0,-5.0,-5.0,2.0,-3.0,-5.0
1701873583.1139436,6.0,9.0,8.0,-3.0,-5.0,-3.0,2.0,4.0
1701873583.1139436,-13.0,-11.0,-5.0,-3.0,-8.0,-6.0,-9.0,-7.0
1701873583.1139436,2.0,11.0,5.0,0.0,-2.0,-3.0,-2.0,0.0
1701873583.1139436,2.0,-7.0,-2.0,1.0,9.0,5.0,6.0,1.0
1701873583.1436958,3.0,8.0,7.0,7.0,19.0,13.0,3.0,0.0
1701873583.1436958,1.0,-8.0,-4.0,-2.0,-1.0,-3.0,-3.0,-4.0
1701873583.1436958,5.0,0.0,3.0,1.0,-2.0,1.0,1.0,17.0
1701873583.1436958,-6.0,0.0,-3.0,-2.0,-7.0,-9.0,-6.0,-16.0
1701873583.1537535,3.0,0.0,-1.0,-7.0,-12.0,-3.0,4.0,-2.0
1701873583.1537535,-12.0,-2.0,-2.0,-3.0,-8.0,-6.0,-1.0,-1.0
1701873583.1537535,-4.0,-1.0,-4.0,-2.0,-2.0,-4.0,-3.0,-6.0
1701873583.1537535,-2.0,-4.0,0.0,3.0,2.0,1.0,0.0,1.0
1701873583.1740677,4.0,-1.0,-3.0,1.0,1.0,3.0,5.0,7.0
1701873583.1740677,3.0,8.0,4.0,2.0,7.0,-1.0,-8.0,-3.0
1701873583.1740677,-6.0,-6.0,-1.0,0.0,-2.0,8.0,11.0,6.0
1701873583.1740677,-1.0,-2.0,-5.0,-3.0,-3.0,-6.0,-8.0,-16.0
1701873583.1936953,-4.0,0.0,2.0,0.0,0.0,-4.0,2.0,-5.0
1701873583.1936953,4.0,3.0,2.0,0.0,-10.0,-2.0,-1.0,9.0
1701873583.1936953,-9.0,-5.0,-6.0,-1.0,8.0,1.0,-1.0,-5.0
1701873583.2037022,2.0,-10.0,-5.0,-1.0,3.0,1.0,-2.0,4.0
1701873583.2139637,-4.0,-3.0,0.0,-1.0,-7.0,-4.0,-1.0,-1.0
1701873583.2139637,0.0,-7.0,-9.0,-7.0,-7.0,-6.0,-4.0,-6.0
1701873583.2139637,3.0,2.0,2.0,-3.0,-1.0,-1.0,1.0,5.0
1701873583.2139637,5.0,5.0,1.0,1.0,-12.0,-3.0,5.0,6.0
1701873583.253698,-5.0,1.0,-1.0,-3.0,1.0,3.0,-6.0,-5.0
1701873583.253698,-3.0,-15.0,-11.0,-1.0,12.0,-4.0,-4.0,-2.0
1701873583.253698,-2.0,2.0,3.0,2.0,9.0,11.0,9.0,3.0
1701873583.253698,1.0,6.0,3.0,-2.0,4.0,5.0,2.0,7.0
1701873583.253698,-1.0,0.0,-4.0,-7.0,-12.0,-2.0,3.0,-5.0
1701873583.253698,7.0,10.0,8.0,5.0,-2.0,2.0,6.0,12.0
1701873583.253698,-1.0,-10.0,-3.0,3.0,4.0,-3.0,-10.0,-3.0
1701873583.253698,-2.0,7.0,0.0,-5.0,-7.0,-9.0,-7.0,-8.0
1701873583.2739594,-6.0,-18.0,-10.0,-6.0,-7.0,-4.0,-5.0,-11.0
1701873583.2739594,-1.0,0.0,-1.0,-1.0,3.0,1.0,1.0,-1.0
1701873583.2739594,5.0,9.0,4.0,5.0,1.0,-4.0,-4.0,-2.0
1701873583.2739594,-9.0,-18.0,-8.0,0.0,4.0,3.0,4.0,2.0
1701873583.303701,2.0,7.0,1.0,-2.0,-9.0,-11.0,-5.0,4.0
1701873583.303701,-1.0,0.0,5.0,-1.0,2.0,1.0,1.0,-5.0
1701873583.303701,-3.0,2.0,-6.0,-5.0,-6.0,0.0,1.0,-3.0
1701873583.303701,5.0,12.0,9.0,6.0,10.0,7.0,4.0,2.0
1701873583.3139899,-3.0,-14.0,-14.0,-5.0,4.0,1.0,-3.0,-1.0
1701873583.3139899,5.0,8.0,5.0,3.0,-5.0,-4.0,1.0,3.0
1701873583.3139899,-4.0,-6.0,1.0,0.0,-3.0,-3.0,-5.0,-3.0
1701873583.3139899,2.0,2.0,-6.0,-6.0,-7.0,-1.0,-1.0,-6.0
1701873583.33404,-2.0,-10.0,-4.0,0.0,-8.0,-5.0,-10.0,-4.0
1701873583.33404,-3.0,7.0,7.0,-1.0,6.0,0.0,4.0,-3.0
1701873583.33404,7.0,3.0,3.0,3.0,5.0,1.0,2.0,4.0
1701873583.33404,2.0,5.0,-4.0,-4.0,-7.0,1.0,6.0,-1.0
1701873583.354039,2.0,0.0,0.0,-2.0,3.0,3.0,4.0,5.0
1701873583.354039,-6.0,-6.0,-5.0,-6.0,-12.0,-4.0,-1.0,-1.0
1701873583.354039,-3.0,4.0,3.0,-1.0,-4.0,-1.0,-4.0,-11.0
1701873583.354039,2.0,-2.0,1.0,8.0,17.0,5.0,0.0,6.0
1701873583.3736978,-2.0,7.0,5.0,7.0,11.0,5.0,4.0,1.0
1701873583.3736978,2.0,5.0,-1.0,-1.0,-11.0,-10.0,-3.0,0.0
1701873583.3736978,-5.0,-8.0,-7.0,-13.0,-14.0,-6.0,-2.0,-2.0
1701873583.383704,-3.0,-10.0,-7.0,-5.0,-8.0,-4.0,-4.0,-1.0
1701873583.3938675,1.0,7.0,5.0,3.0,12.0,8.0,2.0,0.0
1701873583.3938675,-3.0,-8.0,0.0,-4.0,-4.0,5.0,1.0,-2.0
1701873583.3938675,-3.0,-3.0,0.0,6.0,-4.0,-9.0,-8.0,-5.0
1701873583.3938675,-3.0,-6.0,-1.0,-6.0,4.0,-4.0,-4.0,0.0
1701873583.4336941,-3.0,9.0,-1.0,-2.0,2.0,-2.0,6.0,8.0
1701873583.4336941,-6.0,-10.0,-2.0,-1.0,-1.0,3.0,-3.0,-7.0
1701873583.4336941,4.0,-2.0,2.0,-1.0,-4.0,-4.0,2.0,2.0
1701873583.4336941,0.0,-2.0,1.0,3.0,-1.0,13.0,5.0,3.0
1701873583.4336941,3.0,6.0,6.0,2.0,-2.0,-6.0,-4.0,3.0
1701873583.4336941,0.0,0.0,-7.0,-3.0,-2.0,-2.0,-8.0,-2.0
1701873583.4336941,-1.0,-3.0,-2.0,-1.0,-3.0,-1.0,5.0,2.0
1701873583.4336941,-3.0,-4.0,1.0,2.0,2.0,-2.0,2.0,0.0
1701873583.4636955,-5.0,-8.0,-5.0,-2.0,-5.0,-1.0,-5.0,-6.0
1701873583.4636955,4.0,17.0,6.0,5.0,9.0,3.0,-2.0,1.0
1701873583.4636955,-6.0,-17.0,-9.0,-6.0,-9.0,-7.0,0.0,0.0
1701873583.4636955,-5.0,-9.0,-1.0,-1.0,2.0,-2.0,-4.0,-2.0
1701873583.4740388,-2.0,6.0,5.0,0.0,-7.0,-7.0,0.0,-3.0
1701873583.4740388,6.0,10.0,7.0,6.0,4.0,6.0,-1.0,1.0
1701873583.4740388,-13.0,-5.0,-11.0,-3.0,11.0,5.0,-6.0,-15.0
1701873583.4740388,-5.0,-5.0,-3.0,-4.0,-10.0,-11.0,-4.0,3.0
1701873583.4947643,0.0,-6.0,4.0,0.0,5.0,0.0,-5.0,-10.0
1701873583.4947643,-8.0,-3.0,-1.0,-2.0,-1.0,0.0,3.0,-2.0
1701873583.5024576,3.0,-4.0,6.0,3.0,-9.0,-4.0,-5.0,-1.0
1701873583.5024576,-2.0,-7.0,-12.0,-7.0,-6.0,-1.0,2.0,20.0
1701873583.5166748,1.0,5.0,-5.0,-6.0,-4.0,-6.0,-2.0,-15.0
1701873583.5166748,-7.0,-20.0,0.0,1.0,-2.0,-9.0,-12.0,-11.0
1701873583.5166748,1.0,-1.0,-6.0,-3.0,5.0,14.0,13.0,-2.0
1701873583.5166748,-1.0,1.0,8.0,9.0,15.0,3.0,0.0,-1.0
1701873583.5370033,7.0,8.0,11.0,7.0,-1.0,-3.0,-2.0,11.0
1701873583.5370033,-7.0,-8.0,-20.0,-16.0,-10.0,-11.0,-3.0,-6.0
1701873583.5370033,-1.0,3.0,6.0,4.0,7.0,4.0,-1.0,1.0
1701873583.5370033,4.0,9.0,4.0,-1.0,-6.0,-4.0,-2.0,-7.0
1701873583.5469127,0.0,0.0,-5.0,0.0,5.0,4.0,5.0,4.0
1701873583.5469127,-3.0,-10.0,-3.0,-3.0,-11.0,-9.0,-10.0,-4.0
1701873583.5569391,-3.0,0.0,1.0,-6.0,-7.0,-6.0,2.0,2.0
1701873583.5569391,5.0,7.0,1.0,-1.0,-2.0,-4.0,-8.0,-6.0
1701873583.5766785,-6.0,-7.0,-3.0,2.0,2.0,-5.0,-9.0,-4.0
1701873583.5766785,3.0,2.0,1.0,-1.0,5.0,14.0,14.0,8.0
1701873583.5766785,5.0,7.0,3.0,1.0,-5.0,-6.0,1.0,2.0
1701873583.5766785,1.0,0.0,1.0,-1.0,-6.0,7.0,6.0,-4.0
1701873583.5966792,-7.0,-10.0,-7.0,-6.0,-9.0,-11.0,-11.0,-6.0
1701873583.5966792,1.0,2.0,3.0,2.0,3.0,2.0,8.0,2.0
1701873583.5966792,2.0,4.0,2.0,0.0,5.0,3.0,-2.0,2.0
1701873583.5966792,-3.0,-1.0,-1.0,-2.0,1.0,-2.0,-6.0,-8.0
1701873583.6068892,0.0,-4.0,-1.0,-4.0,-5.0,1.0,2.0,3.0
1701873583.6068892,5.0,9.0,4.0,4.0,5.0,-4.0,-4.0,1.0
1701873583.6168482,3.0,-5.0,-1.0,3.0,4.0,4.0,2.0,-2.0
1701873583.6168482,0.0,-5.0,-11.0,-4.0,-7.0,-11.0,-7.0,4.0
1701873583.6566813,-14.0,-8.0,0.0,-5.0,-7.0,-7.0,-3.0,-14.0
1701873583.6566813,12.0,10.0,-2.0,-6.0,-13.0,-8.0,-5.0,5.0
1701873583.6566813,9.0,24.0,2.0,-1.0,8.0,22.0,19.0,6.0
1701873583.6566813,-15.0,-30.0,-10.0,-5.0,-2.0,-8.0,-3.0,2.0
1701873583.6566813,2.0,-3.0,0.0,0.0,-1.0,0.0,3.0,4.0
1701873583.6566813,-2.0,-2.0,-1.0,0.0,0.0,-1.0,-3.0,-2.0
1701873583.6566813,6.0,7.0,3.0,5.0,13.0,6.0,4.0,3.0
1701873583.6566813,0.0,9.0,3.0,3.0,6.0,6.0,1.0,-3.0
1701873583.696681,-2.0,-5.0,-6.0,-4.0,-6.0,-4.0,-7.0,-2.0
1701873583.696681,-1.0,13.0,-2.0,-4.0,-11.0,-13.0,-5.0,-4.0
1701873583.696681,-9.0,-15.0,0.0,-3.0,-4.0,-6.0,-6.0,-1.0
1701873583.696681,3.0,3.0,0.0,-1.0,2.0,6.0,1.0,-5.0
1701873583.696681,-1.0,-6.0,-2.0,0.0,1.0,1.0,4.0,1.0
1701873583.696681,2.0,4.0,-1.0,-5.0,-9.0,0.0,1.0,2.0
1701873583.696681,-6.0,-9.0,-3.0,-2.0,-9.0,-8.0,-7.0,-6.0
1701873583.696681,1.0,4.0,6.0,7.0,14.0,6.0,1.0,-1.0
1701873583.7170205,5.0,6.0,2.0,0.0,4.0,6.0,5.0,4.0
1701873583.7170205,-3.0,-8.0,-1.0,1.0,5.0,4.0,0.0,-1.0
1701873583.7170205,-2.0,0.0,-4.0,-7.0,-5.0,-9.0,-9.0,-4.0
1701873583.7170205,-2.0,2.0,2.0,-5.0,-21.0,-16.0,-5.0,-7.0
1701873583.746678,8.0,10.0,4.0,5.0,12.0,14.0,13.0,11.0
1701873583.746678,-12.0,-4.0,-7.0,1.0,15.0,5.0,-8.0,-15.0
1701873583.746678,0.0,10.0,5.0,-2.0,-8.0,-7.0,-6.0,-5.0
1701873583.746678,-7.0,-4.0,-5.0,-7.0,-11.0,-7.0,-10.0,-8.0
1701873583.7568576,9.0,2.0,2.0,0.0,0.0,1.0,-5.0,5.0
1701873583.7568576,-6.0,2.0,1.0,1.0,8.0,19.0,16.0,2.0
1701873583.7568576,-2.0,-10.0,-11.0,-6.0,-10.0,-15.0,-15.0,-11.0
1701873583.7568576,-1.0,3.0,3.0,0.0,-2.0,-3.0,3.0,7.0
1701873583.7769516,-3.0,5.0,-3.0,-7.0,1.0,17.0,16.0,-7.0
1701873583.7769516,-5.0,-16.0,-2.0,-2.0,-6.0,-13.0,-8.0,-7.0
1701873583.7769516,2.0,-8.0,-1.0,0.0,3.0,-5.0,-4.0,5.0
1701873583.7769516,7.0,1.0,-1.0,-2.0,-4.0,3.0,2.0,9.0
1701873583.8266776,-15.0,-5.0,1.0,2.0,-4.0,-13.0,-14.0,-27.0
1701873583.8266776,1.0,-9.0,-10.0,2.0,18.0,14.0,0.0,7.0
1701873583.8266776,-3.0,-6.0,-2.0,-2.0,-9.0,-1.0,3.0,-2.0
1701873583.8266776,2.0,-3.0,-9.0,-7.0,-8.0,-12.0,-7.0,-1.0
1701873583.8266776,5.0,1.0,9.0,3.0,1.0,-6.0,-6.0,9.0
1701873583.8266776,-10.0,-18.0,-16.0,-5.0,-6.0,-5.0,-1.0,-4.0
1701873583.8266776,-2.0,4.0,3.0,-2.0,-4.0,-2.0,-4.0,1.0
1701873583.8266776,0.0,3.0,5.0,-1.0,0.0,8.0,0.0,-7.0
1701873583.8370006,3.0,3.0,1.0,1.0,-3.0,-1.0,-6.0,5.0
1701873583.8370006,-5.0,-5.0,-1.0,1.0,4.0,0.0,-4.0,-7.0
1701873583.8370006,1.0,-3.0,-8.0,-3.0,-3.0,-7.0,0.0,-2.0
1701873583.8370006,4.0,6.0,1.0,0.0,-1.0,7.0,10.0,4.0
1701873583.8567116,-3.0,0.0,-6.0,-11.0,-2.0,1.0,-5.0,-1.0
1701873583.8567116,1.0,-3.0,13.0,9.0,6.0,3.0,7.0,7.0
1701873583.8567116,-4.0,-2.0,2.0,5.0,-5.0,2.0,-3.0,-1.0
1701873583.8567116,-10.0,-18.0,-13.0,-1.0,-1.0,-7.0,-4.0,-10.0
1701873583.8766825,12.0,24.0,5.0,5.0,5.0,0.0,5.0,10.0
1701873583.8766825,-9.0,-7.0,-2.0,-14.0,-6.0,-1.0,-5.0,-8.0
1701873583.8766825,-3.0,-6.0,-6.0,4.0,6.0,4.0,4.0,3.0
1701873583.8766825,3.0,17.0,0.0,-12.0,-10.0,-1.0,-3.0,-4.0
1701873583.8969429,-11.0,-12.0,-4.0,5.0,-8.0,-13.0,-2.0,2.0
1701873583.8969429,9.0,14.0,4.0,4.0,8.0,-2.0,5.0,6.0
1701873583.8969429,0.0,-14.0,3.0,1.0,-2.0,5.0,0.0,-2.0
1701873583.8969429,-8.0,-4.0,0.0,4.0,6.0,-4.0,-1.0,-3.0
1701873583.93668,1.0,-10.0,-10.0,-8.0,-5.0,-3.0,-4.0,1.0
1701873583.93668,3.0,9.0,5.0,3.0,-4.0,3.0,-7.0,-9.0
1701873583.93668,2.0,0.0,2.0,-4.0,-3.0,-4.0,14.0,7.0
1701873583.93668,-2.0,2.0,1.0,0.0,-2.0,4.0,-15.0,-15.0
1701873583.93668,-7.0,-10.0,-6.0,-2.0,-9.0,1.0,4.0,-1.0
1701873583.93668,8.0,6.0,4.0,3.0,-3.0,-5.0,2.0,14.0
1701873583.93668,-2.0,7.0,0.0,1.0,16.0,3.0,-8.0,-8.0
1701873583.93668,-4.0,-12.0,-7.0,-5.0,3.0,-5.0,7.0,6.0
1701873583.9570727,-6.0,-6.0,-1.0,-6.0,-11.0,-5.0,-9.0,-14.0
1701873583.9570727,3.0,7.0,6.0,5.0,5.0,-3.0,1.0,3.0
1701873583.9570727,-3.0,-1.0,-7.0,-4.0,2.0,1.0,1.0,3.0
1701873583.9570727,4.0,6.0,0.0,-1.0,-5.0,-6.0,3.0,4.0
1701873583.976839,-3.0,-14.0,-3.0,-2.0,-4.0,-3.0,-2.0,-3.0
1701873583.976839,-8.0,-22.0,-1.0,-1.0,-11.0,-4.0,-1.0,-6.0
1701873583.976839,1.0,3.0,-1.0,-3.0,2.0,1.0,-3.0,1.0
1701873583.976839,11.0,13.0,7.0,6.0,20.0,7.0,-1.0,1.0
1701873583.9971542,-15.0,-19.0,-15.0,-6.0,-3.0,-4.0,-2.0,-5.0
1701873583.9971542,4.0,11.0,3.0,-3.0,-9.0,-8.0,-5.0,-2.0
1701873583.9971542,-5.0,-1.0,0.0,-1.0,-4.0,0.0,0.0,0.0
1701873583.9971542,-5.0,2.0,7.0,4.0,-13.0,-9.0,-3.0,-1.0
1701873584.01759,6.0,5.0,-8.0,-4.0,6.0,3.0,1.0,-1.0
1701873584.01759,-2.0,-11.0,-3.0,-1.0,6.0,-2.0,-1.0,2.0
1701873584.01759,6.0,2.0,6.0,1.0,-3.0,-3.0,-4.0,1.0
1701873584.01759,-12.0,-6.0,-7.0,-1.0,4.0,4.0,4.0,-7.0
1701873584.0427086,0.0,1.0,4.0,1.0,-7.0,4.0,13.0,2.0
1701873584.0427086,3.0,7.0,2.0,4.0,-6.0,4.0,-7.0,-3.0
1701873584.0438254,-1.0,1.0,-6.0,-10.0,0.0,-5.0,-2.0,-2.0
1701873584.0438254,-1.0,-11.0,0.0,2.0,6.0,5.0,-3.0,1.0
1701873584.0494306,3.0,5.0,3.0,1.0,-1.0,-10.0,-9.0,-1.0
1701873584.0494306,-6.0,-4.0,-9.0,-7.0,-5.0,-1.0,2.0,-1.0
1701873584.0494306,5.0,7.0,4.0,2.0,-5.0,0.0,-5.0,-1.0
1701873584.0494306,-2.0,-1.0,0.0,1.0,-1.0,-6.0,-5.0,-4.0
1701873584.0795913,-3.0,-6.0,-2.0,2.0,3.0,-3.0,-1.0,-2.0
1701873584.0795913,5.0,4.0,-2.0,-6.0,-5.0,10.0,19.0,15.0
1701873584.0795913,-2.0,1.0,2.0,2.0,0.0,-6.0,-16.0,-17.0
1701873584.0795913,-4.0,-8.0,-7.0,-3.0,-3.0,-1.0,1.0,4.0
1701873584.0998445,10.0,15.0,11.0,4.0,2.0,3.0,4.0,5.0
1701873584.0998445,-12.0,-2.0,-3.0,-2.0,6.0,-3.0,-19.0,-18.0
1701873584.0998445,-10.0,-8.0,-5.0,-5.0,-4.0,8.0,17.0,4.0
1701873584.0998445,10.0,12.0,7.0,4.0,1.0,0.0,-10.0,-7.0
1701873584.1097846,1.0,-6.0,-6.0,-6.0,-13.0,-9.0,-6.0,-3.0
1701873584.1097846,-1.0,4.0,1.0,0.0,3.0,-5.0,-5.0,0.0
1701873584.1097846,4.0,1.0,-2.0,-1.0,12.0,18.0,18.0,11.0
1701873584.1097846,-3.0,6.0,6.0,0.0,-2.0,-5.0,-3.0,-7.0
1701873584.1395788,-2.0,-13.0,-18.0,-6.0,-4.0,-3.0,1.0,2.0
1701873584.1395788,2.0,1.0,1.0,-3.0,-6.0,-4.0,0.0,-5.0
1701873584.1395788,0.0,2.0,-1.0,-1.0,-8.0,-17.0,-13.0,0.0
1701873584.1395788,1.0,-3.0,1.0,-3.0,-1.0,17.0,23.0,8.0
1701873584.159922,-2.0,0.0,3.0,-2.0,4.0,3.0,-2.0,-3.0
1701873584.159922,4.0,2.0,-2.0,5.0,7.0,-2.0,-7.0,4.0
1701873584.159922,-2.0,1.0,3.0,4.0,0.0,15.0,11.0,-1.0
1701873584.159922,3.0,0.0,-1.0,-1.0,1.0,-9.0,-6.0,0.0
1701873584.1698873,-6.0,2.0,4.0,0.0,5.0,6.0,5.0,3.0
1701873584.1698873,-2.0,-4.0,-7.0,-3.0,-7.0,-5.0,0.0,-6.0
1701873584.1698873,1.0,-1.0,-5.0,-8.0,-8.0,-12.0,0.0,-1.0
1701873584.1698873,-2.0,-6.0,-5.0,-2.0,-9.0,-5.0,-9.0,-3.0
1701873584.1995912,8.0,7.0,2.0,3.0,5.0,2.0,-6.0,3.0
1701873584.1995912,0.0,1.0,-2.0,-5.0,-4.0,3.0,8.0,3.0
1701873584.1995912,-6.0,-6.0,-5.0,-4.0,-4.0,-2.0,-3.0,-5.0
1701873584.1995912,-2.0,-2.0,-6.0,-2.0,-1.0,-6.0,-3.0,0.0
1701873584.2199442,5.0,4.0,5.0,-2.0,-1.0,-8.0,-3.0,-1.0
1701873584.2199442,-3.0,0.0,1.0,0.0,1.0,-1.0,-6.0,-1.0
1701873584.2199442,-3.0,-3.0,-5.0,-1.0,-5.0,-6.0,-3.0,-1.0
1701873584.2199442,5.0,4.0,2.0,-1.0,0.0,13.0,8.0,5.0
1701873584.2299223,-13.0,-7.0,4.0,6.0,8.0,6.0,-2.0,-3.0
1701873584.2299223,1.0,0.0,-1.0,3.0,3.0,-4.0,-2.0,0.0
1701873584.2402658,2.0,0.0,5.0,-1.0,4.0,-4.0,-5.0,2.0
1701873584.2402658,-3.0,-3.0,-6.0,-2.0,-5.0,0.0,4.0,0.0
1701873584.259933,2.0,1.0,-1.0,-1.0,2.0,2.0,-1.0,0.0
1701873584.259933,-4.0,-4.0,0.0,-3.0,-6.0,-5.0,-2.0,-4.0
1701873584.259933,-2.0,1.0,0.0,-1.0,-4.0,-8.0,-13.0,-6.0
1701873584.259933,-2.0,1.0,-1.0,0.0,-2.0,-5.0,-2.0,1.0
1701873584.2799418,-4.0,-19.0,-5.0,-1.0,-3.0,0.0,4.0,-3.0
1701873584.2799418,0.0,0.0,-2.0,1.0,2.0,5.0,0.0,0.0
1701873584.2799418,-7.0,-11.0,-11.0,-4.0,-9.0,-7.0,1.0,-3.0
1701873584.2799418,-2.0,-2.0,1.0,-5.0,-1.0,-1.0,0.0,-6.0
1701873584.2900424,9.0,11.0,-2.0,-1.0,1.0,11.0,2.0,5.0
1701873584.2900424,-5.0,-4.0,7.0,4.0,11.0,-2.0,-1.0,2.0
1701873584.300188,1.0,13.0,11.0,4.0,-5.0,-4.0,-5.0,-7.0
1701873584.300188,-4.0,-9.0,-13.0,-9.0,-1.0,-2.0,-4.0,-5.0
1701873584.3299322,-1.0,-1.0,7.0,6.0,-1.0,-7.0,-4.0,-1.0
1701873584.3299322,1.0,-18.0,-16.0,-11.0,-13.0,-2.0,0.0,-4.0
1701873584.3299322,-4.0,-3.0,-2.0,2.0,3.0,3.0,1.0,1.0
1701873584.3299322,-1.0,9.0,8.0,3.0,3.0,-2.0,-2.0,-1.0
1701873584.3403168,5.0,30.0,10.0,-3.0,-6.0,-7.0,-2.0,-4.0
1701873584.3403168,-6.0,-19.0,-20.0,-9.0,-9.0,-7.0,-1.0,3.0
1701873584.3403168,3.0,-14.0,-9.0,-3.0,4.0,5.0,-6.0,-7.0
1701873584.3403168,6.0,0.0,-1.0,3.0,2.0,6.0,3.0,5.0
1701873584.350154,6.0,12.0,7.0,5.0,3.0,-1.0,-3.0,3.0
1701873584.350154,-6.0,-1.0,2.0,3.0,3.0,0.0,-1.0,-5.0
1701873584.3699331,1.0,-7.0,-2.0,-4.0,-6.0,-8.0,4.0,8.0
1701873584.3699331,-1.0,6.0,-1.0,-6.0,-6.0,1.0,-6.0,-6.0
1701873584.380207,-12.0,-26.0,-15.0,-6.0,-2.0,2.0,-3.0,-4.0
1701873584.380207,4.0,20.0,13.0,2.0,1.0,0.0,8.0,1.0
1701873584.380207,-1.0,0.0,0.0,4.0,13.0,8.0,11.0,9.0
1701873584.380207,4.0,4.0,3.0,3.0,-2.0,-4.0,-11.0,-9.0
1701873584.400245,-3.0,7.0,-4.0,-8.0,-16.0,-12.0,1.0,0.0
1701873584.400245,-3.0,-9.0,-4.0,-4.0,0.0,5.0,-5.0,-1.0
1701873584.400245,3.0,3.0,5.0,11.0,3.0,-4.0,-6.0,0.0
1701873584.400245,-5.0,-5.0,-9.0,-20.0,-10.0,-8.0,3.0,5.0
1701873584.4399333,-3.0,-21.0,-10.0,-2.0,-2.0,8.0,-2.0,-12.0
1701873584.4399333,3.0,4.0,3.0,3.0,8.0,2.0,10.0,15.0
1701873584.4399333,-12.0,6.0,5.0,4.0,-5.0,-8.0,-22.0,-35.0
1701873584.4399333,0.0,-6.0,-2.0,5.0,2.0,-1.0,3.0,4.0
1701873584.4399333,-8.0,-5.0,3.0,4.0,14.0,6.0,1.0,-2.0
1701873584.4399333,2.0,0.0,-3.0,-4.0,-9.0,-8.0,-2.0,3.0
1701873584.4399333,-1.0,-6.0,-5.0,-2.0,-8.0,-9.0,-10.0,-6.0
1701873584.4399333,-5.0,-3.0,-1.0,-2.0,-8.0,-1.0,4.0,-3.0
1701873584.460357,3.0,7.0,5.0,5.0,6.0,12.0,8.0,5.0
1701873584.460357,1.0,3.0,-2.0,0.0,-1.0,1.0,-4.0,-5.0
1701873584.460357,4.0,9.0,2.0,-5.0,6.0,12.0,15.0,11.0
1701873584.460357,-2.0,-7.0,-8.0,-4.0,-3.0,-8.0,-10.0,1.0
1701873584.479935,-3.0,-3.0,2.0,2.0,-7.0,-12.0,-8.0,-8.0
1701873584.479935,-1.0,2.0,2.0,-3.0,-1.0,1.0,-6.0,-6.0
1701873584.479935,2.0,0.0,1.0,0.0,4.0,-2.0,-5.0,1.0
1701873584.479935,3.0,7.0,9.0,4.0,1.0,1.0,5.0,6.0
1701873584.500046,6.0,7.0,1.0,1.0,6.0,10.0,3.0,5.0
1701873584.500046,-5.0,-9.0,1.0,4.0,-1.0,-8.0,-1.0,-8.0
1701873584.500046,-9.0,-11.0,-17.0,-21.0,-14.0,-3.0,1.0,2.0
1701873584.500046,-4.0,-19.0,5.0,7.0,8.0,3.0,1.0,0.0
1701873584.5299327,6.0,16.0,0.0,-8.0,-2.0,-5.0,-4.0,-2.0
1701873584.5299327,4.0,11.0,12.0,9.0,4.0,-3.0,-1.0,0.0
1701873584.5299327,0.0,-9.0,-8.0,-7.0,-4.0,2.0,3.0,5.0
1701873584.5299327,-8.0,-4.0,1.0,1.0,-7.0,-7.0,4.0,6.0
1701873584.5299327,-1.0,-4.0,-4.0,0.0,-3.0,-3.0,-10.0,-15.0
1701873584.5299327,-6.0,-2.0,-3.0,-2.0,2.0,5.0,4.0,0.0
1701873584.54018,-4.0,-3.0,-5.0,-3.0,5.0,5.0,0.0,0.0
1701873584.54018,6.0,2.0,-2.0,-1.0,-9.0,-7.0,-3.0,2.0
1701873584.56058,-6.0,0.0,-4.0,4.0,-1.0,-12.0,-9.0,-3.0
1701873584.56058,2.0,10.0,3.0,3.0,3.0,10.0,6.0,0.0
1701873584.5646143,6.0,1.0,2.0,-1.0,2.0,22.0,17.0,6.0
1701873584.5646143,0.0,-1.0,-1.0,-2.0,9.0,0.0,-12.0,-7.0
1701873584.5823536,-1.0,6.0,0.0,-2.0,-3.0,-4.0,6.0,-1.0
1701873584.5823536,1.0,-15.0,-7.0,-6.0,-14.0,-5.0,-2.0,8.0
1701873584.5823536,-3.0,1.0,2.0,3.0,1.0,-6.0,-6.0,-2.0
1701873584.5823536,1.0,6.0,2.0,2.0,5.0,5.0,0.0,3.0
1701873584.6026156,-3.0,-13.0,-3.0,1.0,5.0,4.0,0.0,2.0
1701873584.6026156,8.0,15.0,1.0,-1.0,2.0,-4.0,-6.0,4.0
1701873584.6026156,-11.0,-1.0,3.0,0.0,-7.0,-14.0,-13.0,-18.0
1701873584.6026156,4.0,19.0,4.0,-4.0,0.0,-2.0,9.0,4.0
1701873584.6126251,-10.0,-30.0,-21.0,-16.0,-19.0,-14.0,-16.0,-12.0
1701873584.6126251,-6.0,-12.0,4.0,-2.0,-3.0,-1.0,-3.0,-5.0
1701873584.6126251,3.0,-2.0,5.0,10.0,15.0,13.0,9.0,8.0
1701873584.6126251,2.0,18.0,7.0,8.0,7.0,3.0,-3.0,-3.0
1701873584.6623547,-1.0,7.0,0.0,-7.0,-15.0,-11.0,0.0,4.0
1701873584.6623547,-4.0,-15.0,-13.0,-7.0,-3.0,-5.0,-4.0,-10.0
1701873584.6623547,4.0,4.0,0.0,-2.0,3.0,0.0,-1.0,6.0
1701873584.6623547,-5.0,-16.0,-5.0,3.0,-1.0,-1.0,-4.0,-2.0
1701873584.6623547,3.0,23.0,2.0,-4.0,-2.0,0.0,4.0,6.0
1701873584.6623547,-4.0,-15.0,2.0,12.0,4.0,-3.0,-4.0,-6.0
1701873584.6623547,0.0,-2.0,-1.0,-3.0,-3.0,-9.0,0.0,0.0
1701873584.6623547,2.0,-4.0,-7.0,-5.0,2.0,8.0,8.0,-3.0
1701873584.6723545,-10.0,-13.0,1.0,2.0,-4.0,0.0,1.0,-1.0
1701873584.6723545,-2.0,6.0,-3.0,-3.0,-5.0,-8.0,-9.0,-4.0
1701873584.6723545,4.0,5.0,4.0,0.0,-2.0,5.0,4.0,5.0
1701873584.6723545,-6.0,-10.0,-7.0,-4.0,-4.0,-10.0,-11.0,-7.0
1701873584.702354,0.0,-13.0,-2.0,1.0,6.0,16.0,15.0,7.0
1701873584.702354,-1.0,11.0,-1.0,-3.0,0.0,-8.0,-9.0,-11.0
1701873584.702354,3.0,-1.0,0.0,2.0,-1.0,3.0,10.0,5.0
1701873584.702354,1.0,-1.0,-1.0,-1.0,-5.0,-5.0,-11.0,2.0
1701873584.7227745,-3.0,-3.0,-1.0,1.0,0.0,-5.0,0.0,-1.0
1701873584.7227745,9.0,4.0,1.0,0.0,6.0,9.0,4.0,6.0
1701873584.7227745,-6.0,7.0,1.0,0.0,1.0,0.0,0.0,-5.0
1701873584.7227745,-6.0,-9.0,-2.0,-4.0,-11.0,-10.0,-6.0,-2.0
1701873584.7327352,-6.0,-10.0,-3.0,3.0,5.0,5.0,6.0,1.0
1701873584.7327352,6.0,10.0,6.0,1.0,1.0,8.0,6.0,6.0
1701873584.7327352,1.0,7.0,-11.0,-5.0,-4.0,-16.0,-19.0,-4.0
1701873584.7327352,-6.0,-6.0,2.0,1.0,-4.0,4.0,11.0,-1.0
1701873584.76273,5.0,-4.0,-6.0,-3.0,6.0,8.0,3.0,12.0
1701873584.76273,-3.0,4.0,-2.0,2.0,13.0,11.0,6.0,-7.0
1701873584.76273,-2.0,-8.0,-3.0,-5.0,-12.0,-14.0,-7.0,-8.0
1701873584.76273,0.0,4.0,1.0,-3.0,-4.0,-4.0,-2.0,-2.0
1701873584.7827702,2.0,23.0,9.0,1.0,-6.0,-5.0,-3.0,6.0
1701873584.7827702,4.0,-1.0,-4.0,-4.0,-1.0,0.0,3.0,-10.0
1701873584.7827702,-5.0,3.0,4.0,3.0,-7.0,-11.0,-9.0,1.0
1701873584.7827702,0.0,-12.0,-7.0,-1.0,6.0,-2.0,-11.0,-7.0
1701873584.7927148,4.0,4.0,4.0,2.0,14.0,15.0,17.0,2.0
1701873584.7927148,1.0,-3.0,1.0,0.0,-7.0,-5.0,-6.0,6.0
1701873584.7927148,0.0,-13.0,-8.0,-1.0,-1.0,-5.0,-1.0,4.0
1701873584.7927148,2.0,8.0,2.0,-3.0,-5.0,7.0,10.0,-4.0
1701873584.8227084,-4.0,-12.0,-2.0,-6.0,-19.0,-17.0,-14.0,-8.0
1701873584.8227084,-8.0,-10.0,-8.0,2.0,2.0,0.0,3.0,-1.0
1701873584.8227084,6.0,1.0,-1.0,-5.0,4.0,-2.0,-7.0,0.0
1701873584.8227084,-1.0,6.0,-2.0,1.0,-4.0,-4.0,2.0,1.0
1701873584.8423562,4.0,5.0,2.0,4.0,10.0,-4.0,-6.0,-1.0
1701873584.8423562,-8.0,-9.0,-5.0,-7.0,-17.0,-14.0,-12.0,-4.0
1701873584.8423562,4.0,13.0,7.0,1.0,1.0,12.0,10.0,-1.0
1701873584.8423562,-9.0,-18.0,-7.0,1.0,2.0,-2.0,-5.0,-1.0
1701873584.8623567,-12.0,-12.0,-8.0,-6.0,-8.0,-7.0,-2.0,-6.0
1701873584.8623567,0.0,-4.0,1.0,-3.0,-2.0,-3.0,-4.0,-1.0
1701873584.8623567,0.0,1.0,-5.0,-2.0,-3.0,0.0,-3.0,-4.0
1701873584.8623567,5.0,-12.0,-3.0,3.0,13.0,5.0,4.0,9.0
1701873584.8827868,-9.0,-6.0,-1.0,3.0,2.0,0.0,-6.0,-11.0
1701873584.8827868,3.0,16.0,2.0,-3.0,-1.0,1.0,3.0,8.0
1701873584.8827868,-3.0,-4.0,-2.0,-2.0,-1.0,2.0,1.0,-2.0
1701873584.8827868,-2.0,1.0,7.0,-1.0,-9.0,-7.0,-3.0,-3.0
1701873584.9027696,7.0,2.0,-5.0,-2.0,0.0,-5.0,-6.0,-2.0
1701873584.9027696,0.0,-6.0,-4.0,-4.0,-4.0,-4.0,-1.0,8.0
1701873584.9027696,-8.0,0.0,0.0,4.0,-4.0,0.0,-1.0,-11.0
1701873584.9027696,6.0,7.0,1.0,3.0,12.0,12.0,10.0,2.0
1701873584.9127197,7.0,2.0,-2.0,3.0,3.0,2.0,-3.0,4.0
1701873584.9127197,1.0,6.0,0.0,-1.0,0.0,0.0,1.0,-1.0
1701873584.9127197,-6.0,-6.0,-2.0,-5.0,-5.0,-7.0,-3.0,-2.0
1701873584.9127197,-9.0,2.0,0.0,2.0,1.0,2.0,-5.0,-2.0
1701873584.942608,-1.0,0.0,-1.0,-5.0,-6.0,-2.0,3.0,-3.0
1701873584.942608,-2.0,-8.0,-1.0,0.0,-4.0,0.0,3.0,2.0
1701873584.942608,-1.0,-8.0,-6.0,-3.0,-2.0,-6.0,-6.0,-6.0
1701873584.942608,-4.0,0.0,1.0,4.0,2.0,-1.0,1.0,-1.0
1701873584.9626806,4.0,3.0,1.0,-2.0,-7.0,-2.0,-3.0,0.0
1701873584.9626806,0.0,-1.0,1.0,1.0,4.0,0.0,1.0,-1.0
1701873584.9626806,-4.0,-3.0,-3.0,-1.0,8.0,4.0,-2.0,0.0
1701873584.9626806,9.0,12.0,2.0,-2.0,-6.0,-1.0,5.0,3.0
1701873584.9924266,-15.0,-8.0,2.0,-1.0,-1.0,3.0,-3.0,-9.0
1701873584.9924266,-6.0,-10.0,-6.0,-6.0,-8.0,-8.0,0.0,-8.0
1701873584.9924266,7.0,14.0,10.0,3.0,2.0,4.0,-2.0,6.0
1701873584.9924266,0.0,-13.0,-12.0,-6.0,-6.0,-10.0,-7.0,1.0
1701873585.0027788,-7.0,1.0,3.0,-3.0,-10.0,-14.0,-10.0,-1.0
1701873585.0027788,0.0,25.0,10.0,11.0,10.0,15.0,14.0,3.0
1701873585.0027788,-7.0,-36.0,-19.0,-12.0,5.0,15.0,9.0,-1.0
1701873585.0027788,-4.0,-9.0,-6.0,1.0,-3.0,-7.0,-17.0,-10.0
1701873585.0232553,4.0,-4.0,-3.0,-5.0,0.0,2.0,4.0,0.0
1701873585.0232553,9.0,24.0,20.0,1.0,-6.0,-7.0,-2.0,5.0
1701873585.0232553,-15.0,-7.0,-4.0,0.0,-14.0,-13.0,0.0,-7.0
1701873585.0232553,-2.0,-5.0,0.0,-5.0,2.0,8.0,-4.0,-5.0
1701873585.0428886,6.0,-2.0,-5.0,1.0,13.0,6.0,1.0,1.0
1701873585.0428886,-4.0,-4.0,-3.0,1.0,6.0,6.0,-4.0,-1.0
1701873585.0428886,6.0,8.0,7.0,7.0,-1.0,-11.0,-4.0,0.0
1701873585.0428886,-3.0,4.0,0.0,-5.0,-8.0,5.0,11.0,2.0
1701873585.0632126,-2.0,-8.0,-14.0,-9.0,-11.0,-10.0,-5.0,0.0
1701873585.0632126,2.0,-8.0,-5.0,-2.0,2.0,2.0,-2.0,-2.0
1701873585.0632126,-1.0,-4.0,2.0,-3.0,-8.0,-7.0,0.0,3.0
1701873585.0632126,-1.0,9.0,4.0,3.0,5.0,0.0,5.0,1.0
1701873585.085616,3.0,7.0,6.0,6.0,7.0,3.0,-3.0,0.0
1701873585.085616,-6.0,-12.0,-11.0,-1.0,3.0,0.0,1.0,0.0
1701873585.0874,0.0,6.0,4.0,2.0,-4.0,0.0,-2.0,0.0
1701873585.0874,0.0,2.0,-1.0,3.0,-3.0,-2.0,-2.0,-4.0
1701873585.099387,-3.0,-3.0,-2.0,-8.0,-2.0,2.0,6.0,2.0
1701873585.099387,-9.0,-26.0,-14.0,-12.0,-9.0,-9.0,-11.0,-7.0
1701873585.1087651,8.0,31.0,12.0,7.0,8.0,7.0,4.0,3.0
1701873585.1087651,3.0,-8.0,0.0,3.0,2.0,3.0,1.0,0.0
1701873585.1150553,-5.0,-11.0,-5.0,1.0,4.0,-3.0,0.0,-1.0
1701873585.1150553,-4.0,-15.0,-3.0,-5.0,-7.0,-12.0,-8.0,-4.0
1701873585.1250556,2.0,2.0,1.0,-2.0,-3.0,-4.0,-9.0,-3.0
1701873585.1250556,2.0,12.0,5.0,3.0,10.0,12.0,12.0,7.0
1701873585.1550512,-1.0,1.0,0.0,3.0,4.0,9.0,6.0,-7.0
1701873585.1550512,-4.0,-2.0,-6.0,-8.0,-13.0,-14.0,-17.0,-6.0
1701873585.1550512,1.0,5.0,2.0,-3.0,-6.0,0.0,10.0,6.0
1701873585.1550512,-2.0,-8.0,-12.0,-3.0,-3.0,7.0,-4.0,-3.0
1701873585.1550512,-8.0,-19.0,7.0,5.0,1.0,-4.0,-10.0,4.0
1701873585.1550512,-3.0,-4.0,-9.0,-4.0,-8.0,-2.0,8.0,-11.0
1701873585.1650834,-1.0,7.0,10.0,5.0,7.0,-4.0,-13.0,-4.0
1701873585.1650834,10.0,4.0,0.0,-1.0,2.0,-6.0,-5.0,1.0
1701873585.1754532,-6.0,-12.0,-17.0,-13.0,-15.0,0.0,2.0,4.0
1701873585.1754532,3.0,16.0,6.0,4.0,10.0,1.0,-5.0,-9.0
1701873585.1754532,-4.0,-22.0,-12.0,-5.0,0.0,-2.0,-2.0,3.0
1701873585.1754532,-5.0,3.0,3.0,-2.0,-3.0,-3.0,0.0,-2.0
1701873585.2050827,-2.0,-2.0,3.0,5.0,-1.0,-9.0,-10.0,-8.0
1701873585.2050827,5.0,5.0,8.0,-2.0,-4.0,8.0,11.0,16.0
1701873585.2050827,4.0,-7.0,2.0,4.0,-1.0,3.0,-3.0,-9.0
1701873585.2050827,-3.0,1.0,-6.0,0.0,11.0,1.0,1.0,-5.0
1701873585.2153366,-3.0,-1.0,-1.0,1.0,-1.0,-6.0,-5.0,-7.0
1701873585.2153366,2.0,6.0,5.0,-1.0,-6.0,-11.0,-2.0,1.0
1701873585.2253191,2.0,1.0,-7.0,-2.0,-4.0,-1.0,2.0,0.0
1701873585.2253191,-6.0,-9.0,-4.0,-7.0,-4.0,6.0,9.0,10.0
1701873585.2353306,-1.0,12.0,7.0,5.0,-2.0,-12.0,-7.0,-2.0
1701873585.2353306,9.0,8.0,-2.0,-1.0,7.0,29.0,17.0,3.0
1701873585.2450547,9.0,12.0,2.0,-3.0,-2.0,-3.0,-2.0,8.0
1701873585.2450547,-9.0,-8.0,-1.0,0.0,1.0,-10.0,-10.0,-10.0
1701873585.2750537,9.0,18.0,3.0,3.0,1.0,7.0,5.0,2.0
1701873585.2750537,-1.0,2.0,2.0,7.0,13.0,2.0,-2.0,1.0
1701873585.2750537,-6.0,-17.0,-10.0,-5.0,-5.0,0.0,-3.0,-4.0
1701873585.2750537,2.0,8.0,3.0,-10.0,-11.0,-3.0,0.0,-2.0
1701873585.2750537,1.0,3.0,2.0,1.0,-4.0,1.0,3.0,1.0
1701873585.2750537,-2.0,-2.0,-1.0,-6.0,-14.0,-9.0,-6.0,-1.0
1701873585.2851424,-1.0,-3.0,-5.0,4.0,11.0,1.0,0.0,-1.0
1701873585.2851424,-1.0,-2.0,3.0,3.0,10.0,8.0,1.0,-1.0
1701873585.2953682,4.0,3.0,4.0,-3.0,-4.0,-1.0,3.0,3.0
1701873585.2953682,-3.0,-9.0,-8.0,6.0,3.0,-1.0,-5.0,-4.0
1701873585.3050542,-5.0,2.0,3.0,0.0,3.0,4.0,6.0,1.0
1701873585.3050542,-3.0,-17.0,-8.0,-2.0,-13.0,-11.0,-8.0,-2.0
1701873585.335049,0.0,3.0,-7.0,-14.0,0.0,-1.0,-4.0,-2.0
1701873585.335049,-1.0,6.0,-3.0,-10.0,-6.0,-4.0,3.0,7.0
1701873585.335049,-6.0,-1.0,3.0,3.0,-7.0,-2.0,-4.0,-9.0
1701873585.335049,4.0,7.0,4.0,2.0,5.0,3.0,-5.0,-8.0
1701873585.335049,-3.0,-2.0,4.0,6.0,0.0,5.0,10.0,9.0
1701873585.335049,0.0,-11.0,-2.0,3.0,5.0,-9.0,-22.0,-25.0
1701873585.3452528,-5.0,0.0,-2.0,-2.0,6.0,13.0,16.0,13.0
1701873585.3452528,-4.0,3.0,-1.0,5.0,-15.0,-12.0,-8.0,-7.0
1701873585.3750513,1.0,-1.0,0.0,-3.0,0.0,-4.0,-1.0,0.0
1701873585.3750513,1.0,4.0,2.0,1.0,3.0,-1.0,5.0,3.0
1701873585.3750513,-1.0,-1.0,-3.0,-7.0,-2.0,7.0,4.0,0.0
1701873585.3750513,-1.0,-3.0,-1.0,0.0,0.0,-3.0,-5.0,-5.0
1701873585.3850844,0.0,3.0,-2.0,0.0,0.0,-3.0,-3.0,-2.0
1701873585.3850844,-8.0,-11.0,-2.0,2.0,-1.0,1.0,-3.0,-2.0
1701873585.3850844,-1.0,-1.0,-1.0,2.0,1.0,5.0,4.0,-3.0
1701873585.3850844,0.0,1.0,0.0,-3.0,-1.0,-3.0,3.0,10.0
1701873585.3954587,5.0,7.0,6.0,2.0,-3.0,-3.0,1.0,-3.0
1701873585.3954587,-3.0,-5.0,-4.0,-1.0,1.0,4.0,1.0,-1.0
1701873585.405052,6.0,4.0,-2.0,-5.0,-10.0,-13.0,-13.0,0.0
1701873585.405052,-15.0,-10.0,-10.0,-11.0,-7.0,-1.0,6.0,-4.0
1701873585.4250493,1.0,-4.0,-4.0,2.0,4.0,3.0,-3.0,7.0
1701873585.4250493,-3.0,6.0,4.0,-1.0,-6.0,-5.0,1.0,-1.0
1701873585.4250493,5.0,5.0,5.0,4.0,1.0,-2.0,-2.0,0.0
1701873585.4250493,-2.0,-9.0,-8.0,-4.0,-6.0,-3.0,-4.0,-3.0
1701873585.445319,2.0,4.0,0.0,-3.0,4.0,-1.0,1.0,-5.0
1701873585.445319,-3.0,-14.0,-9.0,-9.0,-11.0,1.0,3.0,6.0
1701873585.445319,6.0,1.0,0.0,4.0,-2.0,-9.0,-13.0,-1.0
1701873585.445319,3.0,6.0,9.0,15.0,32.0,24.0,23.0,5.0
1701873585.4553394,-2.0,-3.0,-6.0,-4.0,-3.0,-2.0,-12.0,-8.0
1701873585.4553394,3.0,-1.0,1.0,-2.0,-7.0,-8.0,-1.0,4.0
1701873585.4650607,-5.0,3.0,-6.0,-5.0,-5.0,1.0,0.0,-5.0
1701873585.4650607,1.0,-4.0,3.0,-3.0,-8.0,-12.0,-11.0,-1.0
1701873585.4850516,-13.0,-18.0,-10.0,-2.0,2.0,4.0,6.0,-1.0
1701873585.4850516,1.0,-3.0,-4.0,-2.0,-5.0,-5.0,-5.0,-3.0
1701873585.4850516,0.0,-1.0,3.0,2.0,-1.0,-4.0,-4.0,-5.0
1701873585.4850516,4.0,13.0,0.0,-5.0,-2.0,3.0,3.0,6.0
1701873585.5053253,2.0,1.0,2.0,3.0,-4.0,-2.0,-2.0,-2.0
1701873585.5053253,-3.0,-13.0,-6.0,-6.0,4.0,-1.0,-4.0,-3.0
1701873585.5053253,-6.0,-7.0,-2.0,-1.0,2.0,-5.0,-2.0,-1.0
1701873585.5053253,11.0,18.0,1.0,3.0,4.0,11.0,1.0,6.0
1701873585.545051,-6.0,-6.0,-1.0,-6.0,-11.0,-2.0,2.0,-2.0
1701873585.545051,-4.0,-11.0,-4.0,6.0,1.0,-2.0,-2.0,-3.0
1701873585.545051,1.0,8.0,1.0,-4.0,2.0,0.0,3.0,2.0
1701873585.545051,1.0,-23.0,-3.0,-7.0,-12.0,-16.0,-16.0,-10.0
1701873585.545051,-3.0,13.0,4.0,2.0,0.0,7.0,5.0,-2.0
1701873585.545051,3.0,3.0,-4.0,-2.0,3.0,7.0,2.0,2.0
1701873585.545051,-5.0,-11.0,-3.0,5.0,10.0,2.0,3.0,0.0
1701873585.545051,4.0,3.0,-1.0,-5.0,-10.0,-11.0,-5.0,-1.0
1701873585.5654116,-1.0,-7.0,-4.0,-5.0,-9.0,-6.0,-4.0,1.0
1701873585.5654116,-4.0,2.0,2.0,-3.0,1.0,-4.0,-9.0,-5.0
1701873585.5654116,2.0,-3.0,-2.0,1.0,6.0,13.0,14.0,3.0
1701873585.5654116,0.0,11.0,-2.0,-2.0,-10.0,-10.0,-6.0,-1.0
1701873585.5950506,-7.0,-22.0,-1.0,3.0,2.0,3.0,-2.0,-6.0
1701873585.5950506,2.0,18.0,8.0,-2.0,-7.0,-8.0,-4.0,-2.0
1701873585.5950506,-3.0,1.0,-4.0,-3.0,0.0,-2.0,-6.0,-10.0
1701873585.5950506,3.0,-8.0,3.0,8.0,5.0,7.0,7.0,17.0
1701873585.5950506,10.0,29.0,5.0,0.0,6.0,1.0,-3.0,0.0
1701873585.5950506,-11.0,-36.0,-12.0,-7.0,-1.0,-8.0,-3.0,-4.0
1701873585.6050553,-8.0,-1.0,5.0,-4.0,-11.0,-9.0,-7.0,-1.0
1701873585.6050553,-9.0,0.0,-4.0,-6.0,-4.0,2.0,3.0,-6.0
1701873585.6255884,8.0,3.0,2.0,3.0,-2.0,-3.0,-1.0,4.0
1701873585.626657,4.0,5.0,-2.0,-1.0,-1.0,-2.0,-3.0,-2.0
1701873585.6276138,-2.0,4.0,-3.0,-2.0,-2.0,8.0,5.0,3.0
1701873585.6276138,-3.0,6.0,0.0,4.0,1.0,-9.0,-9.0,-7.0
1701873585.6679997,3.0,4.0,0.0,0.0,4.0,6.0,4.0,1.0
1701873585.6679997,0.0,4.0,1.0,6.0,13.0,9.0,8.0,4.0
1701873585.6679997,3.0,-5.0,-1.0,-4.0,-9.0,-10.0,-6.0,-1.0
1701873585.6679997,-6.0,-2.0,-2.0,-3.0,-11.0,-8.0,-9.0,-9.0
1701873585.6679997,2.0,2.0,-7.0,-7.0,-14.0,-15.0,-6.0,-1.0
1701873585.6679997,4.0,5.0,1.0,8.0,15.0,18.0,11.0,3.0
1701873585.6679997,-2.0,-4.0,0.0,6.0,15.0,2.0,1.0,0.0
1701873585.6679997,1.0,-10.0,-4.0,-7.0,-4.0,-3.0,-4.0,0.0
1701873585.6781561,-3.0,8.0,1.0,-5.0,-5.0,-8.0,-4.0,-4.0
1701873585.6781561,-2.0,3.0,0.0,-7.0,-18.0,-12.0,-7.0,-1.0
1701873585.6880608,-7.0,-10.0,0.0,-2.0,-7.0,-4.0,-1.0,-7.0
1701873585.6880608,2.0,-2.0,1.0,6.0,7.0,2.0,-3.0,-6.0
1701873585.708314,-6.0,2.0,5.0,7.0,20.0,23.0,13.0,1.0
1701873585.708314,-2.0,4.0,1.0,-4.0,-5.0,-8.0,-6.0,0.0
1701873585.708314,2.0,-2.0,-8.0,-6.0,-5.0,-4.0,-7.0,0.0
1701873585.708314,-11.0,-9.0,-2.0,-5.0,-12.0,-14.0,-1.0,-7.0
1701873585.7380047,2.0,-3.0,-4.0,4.0,4.0,8.0,1.0,0.0
1701873585.7380047,-2.0,2.0,0.0,-2.0,0.0,-1.0,0.0,-4.0
1701873585.7380047,4.0,-11.0,1.0,-6.0,-10.0,-3.0,5.0,8.0
1701873585.7380047,0.0,13.0,2.0,0.0,1.0,4.0,-3.0,-5.0
1701873585.7380047,-4.0,-19.0,-1.0,6.0,7.0,2.0,-1.0,-6.0
1701873585.7380047,0.0,3.0,-5.0,-5.0,-5.0,-5.0,-3.0,-3.0
1701873585.7380047,6.0,-4.0,-8.0,0.0,5.0,7.0,3.0,0.0
1701873585.7380047,-10.0,4.0,13.0,4.0,5.0,-2.0,-3.0,-2.0
1701873585.7683957,-8.0,-23.0,-19.0,-9.0,-10.0,-5.0,-1.0,2.0
1701873585.7683957,3.0,1.0,6.0,7.0,-1.0,-3.0,-2.0,16.0
1701873585.7683957,-6.0,-4.0,-9.0,-5.0,-9.0,-10.0,-15.0,-21.0
1701873585.7683957,4.0,5.0,-1.0,-4.0,-4.0,0.0,3.0,0.0
1701873585.7782567,9.0,6.0,6.0,6.0,7.0,-2.0,0.0,7.0
1701873585.7782567,-9.0,-13.0,2.0,3.0,11.0,13.0,1.0,-11.0
1701873585.7881792,3.0,18.0,5.0,4.0,-5.0,-10.0,-9.0,0.0
1701873585.7881792,-3.0,-8.0,-13.0,-9.0,-6.0,4.0,9.0,5.0
1701873585.8082645,-4.0,-8.0,-6.0,-9.0,-8.0,-3.0,-1.0,-12.0
1701873585.8082645,-1.0,10.0,10.0,12.0,8.0,8.0,7.0,7.0
1701873585.8082645,2.0,-1.0,7.0,4.0,4.0,-4.0,-3.0,4.0
1701873585.8082645,-9.0,-13.0,-14.0,-4.0,-8.0,-10.0,-10.0,-4.0
1701873585.8379996,-4.0,2.0,-3.0,-6.0,-8.0,4.0,6.0,-3.0
1701873585.8379996,2.0,5.0,6.0,1.0,10.0,7.0,11.0,10.0
1701873585.8379996,-4.0,7.0,6.0,11.0,9.0,4.0,-9.0,-20.0
1701873585.8379996,13.0,6.0,6.0,-1.0,2.0,-6.0,-4.0,11.0
1701873585.8379996,-7.0,-5.0,-4.0,-3.0,-9.0,-7.0,-2.0,-5.0
1701873585.8379996,-1.0,-5.0,-7.0,-7.0,-8.0,-5.0,-5.0,-5.0
1701873585.8484292,-1.0,6.0,0.0,-11.0,-3.0,-5.0,0.0,4.0
1701873585.8484292,-1.0,-8.0,-5.0,2.0,-7.0,5.0,4.0,0.0
1701873585.858847,-1.0,-2.0,3.0,0.0,-2.0,-3.0,-4.0,3.0
1701873585.858847,8.0,23.0,8.0,11.0,3.0,4.0,0.0,-1.0
1701873585.858847,-13.0,-30.0,-12.0,1.0,14.0,9.0,4.0,0.0
1701873585.858847,-3.0,-15.0,-6.0,4.0,8.0,2.0,1.0,-5.0
1701873585.888444,0.0,4.0,-3.0,-14.0,-5.0,-7.0,-5.0,3.0
1701873585.888444,-12.0,-5.0,-7.0,-12.0,-19.0,-17.0,-7.0,-11.0
1701873585.888444,2.0,1.0,1.0,-5.0,-10.0,-1.0,3.0,7.0
1701873585.888444,0.0,2.0,2.0,2.0,6.0,5.0,5.0,1.0
1701873585.898737,-2.0,-1.0,5.0,12.0,15.0,0.0,-9.0,-6.0
1701873585.898737,-1.0,-8.0,-6.0,-5.0,-15.0,-2.0,8.0,5.0
1701873585.9087036,-3.0,4.0,1.0,-5.0,0.0,-11.0,-22.0,-15.0
1701873585.9087036,2.0,0.0,0.0,3.0,3.0,5.0,6.0,-3.0
1701873585.9187467,5.0,5.0,0.0,-1.0,5.0,5.0,2.0,5.0
1701873585.9187467,-1.0,-2.0,-4.0,-7.0,-10.0,-7.0,-2.0,-6.0
1701873585.9187467,6.0,0.0,-1.0,-4.0,-11.0,-5.0,1.0,11.0
1701873585.9187467,-12.0,-2.0,0.0,1.0,2.0,-2.0,-9.0,-13.0
1701873585.9484391,3.0,-5.0,-1.0,1.0,-4.0,-8.0,-7.0,-1.0
1701873585.9484391,-11.0,-8.0,-2.0,3.0,4.0,4.0,-1.0,-4.0
1701873585.9484391,4.0,10.0,6.0,3.0,3.0,2.0,3.0,3.0
1701873585.9484391,-2.0,-2.0,-1.0,-7.0,-6.0,-8.0,-6.0,1.0
1701873585.958702,-3.0,-7.0,-6.0,1.0,-2.0,1.0,0.0,-5.0
1701873585.958702,5.0,12.0,6.0,3.0,1.0,6.0,2.0,3.0
1701873585.968721,-3.0,-13.0,-15.0,-3.0,-5.0,0.0,4.0,3.0
1701873585.968721,6.0,23.0,18.0,4.0,1.0,7.0,1.0,0.0
1701873585.9984381,-5.0,6.0,-8.0,-8.0,-7.0,-8.0,-7.0,-8.0
1701873585.9984381,4.0,-12.0,1.0,2.0,6.0,-2.0,-5.0,6.0
1701873585.9984381,-7.0,-17.0,-9.0,-2.0,6.0,7.0,3.0,-3.0
1701873585.9984381,10.0,5.0,6.0,2.0,-4.0,-3.0,0.0,4.0
1701873586.0084434,-7.0,0.0,-1.0,-6.0,-15.0,-12.0,-4.0,1.0
1701873586.0084434,3.0,3.0,-5.0,-4.0,-4.0,2.0,4.0,-4.0
1701873586.0084434,-4.0,6.0,3.0,2.0,2.0,7.0,4.0,6.0
1701873586.0084434,2.0,-5.0,-2.0,2.0,11.0,8.0,3.0,3.0
1701873586.0187395,1.0,-7.0,-1.0,0.0,2.0,-5.0,-3.0,-2.0
1701873586.0187395,-3.0,1.0,-4.0,-4.0,-2.0,6.0,9.0,2.0
1701873586.0286741,7.0,-2.0,0.0,0.0,-4.0,-4.0,-4.0,-1.0
1701873586.0286741,-12.0,-7.0,-8.0,-1.0,1.0,-1.0,-4.0,-6.0
1701873586.0387297,-3.0,1.0,6.0,5.0,7.0,6.0,-1.0,0.0
1701873586.0387297,0.0,0.0,-3.0,-5.0,-5.0,-13.0,-12.0,-15.0
1701873586.0484493,-2.0,-2.0,-1.0,-3.0,-10.0,-8.0,-4.0,-3.0
1701873586.058447,0.0,2.0,-3.0,-6.0,1.0,18.0,16.0,5.0
1701873586.0684392,3.0,-3.0,3.0,2.0,-1.0,3.0,1.0,1.0
1701873586.0684392,-4.0,-7.0,-5.0,-1.0,-2.0,-4.0,-4.0,-3.0
1701873586.0684392,2.0,5.0,5.0,7.0,11.0,13.0,9.0,10.0
1701873586.0684392,-2.0,-9.0,-2.0,1.0,7.0,12.0,11.0,-1.0
1701873586.0786734,0.0,2.0,1.0,-4.0,-11.0,-11.0,-9.0,-9.0
1701873586.0786734,0.0,6.0,2.0,1.0,-4.0,-6.0,-10.0,0.0
1701873586.0887265,4.0,-9.0,-2.0,-2.0,4.0,2.0,3.0,3.0
1701873586.0887265,-10.0,-11.0,-7.0,-6.0,-8.0,-11.0,-8.0,-10.0
1701873586.1184397,-4.0,15.0,7.0,4.0,8.0,4.0,-3.0,0.0
1701873586.1184397,4.0,0.0,-3.0,3.0,6.0,0.0,-3.0,2.0
1701873586.1184397,-2.0,3.0,-1.0,-2.0,-1.0,0.0,5.0,0.0
1701873586.1184397,-8.0,-7.0,-2.0,-4.0,-6.0,-8.0,-6.0,-3.0
1701873586.1284409,7.0,6.0,4.0,-3.0,0.0,1.0,2.0,0.0
1701873586.1284409,-3.0,-10.0,-4.0,-4.0,-10.0,-14.0,-16.0,-6.0
1701873586.1284409,-7.0,-19.0,-6.0,-5.0,-11.0,-3.0,6.0,2.0
1701873586.1284409,-3.0,8.0,-5.0,1.0,8.0,-2.0,-3.0,-2.0
1701873586.1425223,4.0,1.0,-2.0,1.0,6.0,11.0,11.0,4.0
1701873586.1425223,-9.0,-12.0,2.0,-2.0,1.0,1.0,2.0,0.0
1701873586.1505327,2.0,1.0,0.0,-2.0,-7.0,-11.0,1.0,6.0
1701873586.1505327,9.0,3.0,6.0,5.0,2.0,0.0,-10.0,-6.0
1701873586.1639671,-8.0,-11.0,-9.0,-4.0,-4.0,-8.0,-2.0,-5.0
1701873586.1639671,1.0,17.0,1.0,-4.0,6.0,8.0,6.0,4.0
1701873586.1639671,3.0,5.0,-6.0,-6.0,-11.0,-15.0,-15.0,-8.0
1701873586.1639671,0.0,-3.0,-5.0,-3.0,-8.0,-7.0,-2.0,-1.0
1701873586.1840227,-5.0,-6.0,1.0,0.0,2.0,3.0,2.0,2.0
1701873586.1840227,0.0,-10.0,-1.0,4.0,-2.0,2.0,1.0,0.0
1701873586.1840227,3.0,9.0,-2.0,-4.0,4.0,3.0,-1.0,-2.0
1701873586.1840227,3.0,7.0,-1.0,0.0,5.0,-3.0,-2.0,1.0
1701873586.2039685,-6.0,-12.0,-4.0,-3.0,-2.0,1.0,-1.0,-3.0
1701873586.2039685,-2.0,-1.0,1.0,3.0,3.0,-4.0,-7.0,-2.0
1701873586.2039685,-5.0,-3.0,3.0,2.0,1.0,11.0,20.0,-5.0
1701873586.2039685,9.0,16.0,-2.0,-5.0,-10.0,-5.0,-6.0,1.0
1701873586.2242785,-6.0,-20.0,-3.0,-4.0,-5.0,-8.0,-10.0,-3.0
1701873586.2242785,-2.0,3.0,0.0,-7.0,-12.0,-6.0,3.0,-2.0
1701873586.2242785,-5.0,-13.0,-4.0,2.0,5.0,-2.0,-11.0,-3.0
1701873586.2242785,-2.0,-9.0,-2.0,0.0,0.0,-5.0,-5.0,-1.0
1701873586.2442763,14.0,19.0,-1.0,2.0,2.0,8.0,5.0,1.0
1701873586.2442763,-5.0,-7.0,-5.0,-3.0,-6.0,-12.0,-12.0,-6.0
1701873586.2442763,-1.0,-1.0,2.0,2.0,1.0,-4.0,1.0,-5.0
1701873586.2442763,3.0,1.0,3.0,1.0,0.0,11.0,8.0,8.0
1701873586.2839684,-3.0,0.0,2.0,4.0,5.0,1.0,-3.0,1.0
1701873586.2839684,0.0,-7.0,-4.0,-4.0,-7.0,-7.0,-6.0,-7.0
1701873586.2839684,-4.0,6.0,-1.0,-1.0,-3.0,2.0,-2.0,-1.0
1701873586.2839684,-5.0,-10.0,-3.0,-2.0,-4.0,0.0,0.0,2.0
1701873586.2839684,4.0,4.0,2.0,-4.0,3.0,8.0,9.0,11.0
1701873586.2839684,-8.0,2.0,0.0,5.0,12.0,6.0,5.0,-14.0
1701873586.2839684,-8.0,6.0,3.0,-3.0,-5.0,-5.0,-7.0,-14.0
1701873586.2839684,2.0,13.0,13.0,7.0,-4.0,3.0,5.0,1.0
1701873586.3042653,-5.0,-31.0,-19.0,-3.0,-2.0,-5.0,-6.0,2.0
1701873586.3042653,-4.0,14.0,-2.0,-11.0,-9.0,-3.0,-7.0,-9.0
1701873586.3042653,2.0,2.0,6.0,3.0,5.0,13.0,13.0,10.0
1701873586.3042653,-2.0,-8.0,3.0,-4.0,-6.0,-11.0,-5.0,-7.0
1701873586.3439715,-3.0,15.0,-5.0,-7.0,-14.0,-13.0,-4.0,-1.0
1701873586.3439715,2.0,1.0,11.0,10.0,12.0,8.0,7.0,9.0
1701873586.3439715,-8.0,-19.0,-11.0,2.0,5.0,7.0,-8.0,-16.0
1701873586.3439715,5.0,-3.0,4.0,0.0,5.0,3.0,2.0,8.0
1701873586.3439715,0.0,24.0,13.0,7.0,4.0,-1.0,-1.0,-3.0
1701873586.3439715,0.0,-16.0,-18.0,-4.0,-1.0,-3.0,0.0,-2.0
1701873586.3439715,6.0,9.0,2.0,-6.0,-11.0,-6.0,1.0,7.0
1701873586.3439715,-8.0,-4.0,-3.0,-1.0,-5.0,-8.0,-10.0,-7.0
1701873586.3739686,-3.0,-4.0,3.0,-1.0,0.0,-1.0,3.0,-1.0
1701873586.3739686,-6.0,-6.0,-3.0,-4.0,-1.0,-3.0,-13.0,-9.0
1701873586.3739686,5.0,10.0,3.0,0.0,6.0,24.0,29.0,13.0
1701873586.3739686,-5.0,-11.0,-8.0,-4.0,3.0,-6.0,-7.0,-5.0
1701873586.3739686,-4.0,-5.0,-6.0,-3.0,-9.0,-2.0,4.0,-3.0
1701873586.3739686,1.0,5.0,7.0,-1.0,-9.0,-5.0,-1.0,7.0
1701873586.3841925,-3.0,-2.0,-3.0,-1.0,0.0,-11.0,-14.0,-4.0
1701873586.3841925,0.0,-8.0,-7.0,1.0,5.0,-1.0,-2.0,-2.0
1701873586.4042866,-1.0,17.0,11.0,14.0,7.0,11.0,5.0,2.0
1701873586.4042866,-8.0,-26.0,-9.0,-13.0,-4.0,-5.0,0.0,-2.0
1701873586.4042866,-2.0,-1.0,-6.0,-9.0,-13.0,-17.0,-17.0,-3.0
1701873586.4042866,-1.0,-1.0,-6.0,-4.0,-3.0,4.0,16.0,3.0
1701873586.4439735,7.0,7.0,3.0,0.0,-1.0,-4.0,-5.0,-3.0
1701873586.4439735,5.0,-8.0,-6.0,6.0,4.0,4.0,1.0,-1.0
1701873586.4439735,-3.0,1.0,0.0,-6.0,-5.0,-14.0,-14.0,-5.0
1701873586.4439735,-15.0,-5.0,-5.0,-4.0,-12.0,1.0,4.0,-4.0
1701873586.4439735,6.0,-4.0,4.0,7.0,18.0,11.0,2.0,6.0
1701873586.4439735,5.0,16.0,6.0,5.0,7.0,10.0,5.0,0.0
1701873586.4439735,3.0,-9.0,-5.0,-4.0,-3.0,-8.0,-9.0,-2.0
1701873586.4439735,-9.0,-6.0,-1.0,-6.0,-15.0,-15.0,-9.0,-3.0
1701873586.4642484,-5.0,-11.0,-14.0,-16.0,-24.0,-20.0,-5.0,-11.0
1701873586.4642484,5.0,6.0,3.0,1.0,8.0,21.0,17.0,9.0
1701873586.4642484,-2.0,8.0,8.0,9.0,20.0,17.0,-1.0,-2.0
1701873586.4642484,1.0,-4.0,0.0,1.0,-1.0,-1.0,5.0,2.0
1701873586.5039718,-3.0,-6.0,-5.0,-5.0,-8.0,-12.0,-16.0,-19.0
1701873586.5039718,3.0,1.0,-5.0,-7.0,-8.0,-9.0,1.0,11.0
1701873586.5039718,0.0,-1.0,3.0,0.0,-3.0,1.0,0.0,-1.0
1701873586.5039718,5.0,3.0,4.0,8.0,16.0,3.0,-4.0,-4.0
1701873586.5039718,-6.0,-32.0,-23.0,-6.0,-5.0,-12.0,-9.0,2.0
1701873586.5039718,-2.0,20.0,10.0,0.0,-12.0,-12.0,-5.0,0.0
1701873586.5039718,-6.0,-8.0,-8.0,-4.0,-5.0,0.0,-4.0,-15.0
1701873586.5039718,12.0,18.0,4.0,-7.0,4.0,-7.0,-12.0,8.0
1701873586.5240228,-9.0,2.0,5.0,5.0,10.0,16.0,20.0,-1.0
1701873586.5240228,10.0,-4.0,-1.0,-1.0,1.0,6.0,5.0,7.0
1701873586.5240228,-2.0,3.0,0.0,0.0,-9.0,-7.0,2.0,-5.0
1701873586.5240228,1.0,4.0,0.0,0.0,-2.0,-4.0,-9.0,-3.0
1701873586.54402,1.0,2.0,0.0,-2.0,-7.0,-12.0,-18.0,0.0
1701873586.54402,-14.0,-12.0,-4.0,4.0,11.0,15.0,22.0,3.0
1701873586.54402,0.0,4.0,3.0,2.0,9.0,2.0,-7.0,-5.0
1701873586.54402,-1.0,-6.0,-6.0,-5.0,-11.0,-8.0,-2.0,-3.0
1701873586.5642526,-4.0,-1.0,1.0,-6.0,-10.0,-15.0,-12.0,1.0
1701873586.5642526,-7.0,-9.0,-6.0,-3.0,-1.0,5.0,-1.0,-6.0
1701873586.5642526,8.0,4.0,2.0,6.0,11.0,-4.0,1.0,7.0
1701873586.5642526,-7.0,-7.0,-2.0,3.0,2.0,13.0,5.0,-2.0
1701873586.5839827,-6.0,-1.0,-2.0,-7.0,-10.0,-5.0,2.0,-3.0
1701873586.5839827,1.0,-3.0,-3.0,-9.0,-17.0,-17.0,-16.0,-4.0
1701873586.5839827,4.0,-2.0,-2.0,0.0,4.0,0.0,0.0,4.0
1701873586.5839827,-5.0,0.0,-3.0,4.0,10.0,3.0,2.0,-6.0
1701873586.6039946,5.0,16.0,9.0,-1.0,-1.0,-1.0,1.0,3.0
1701873586.6039946,2.0,-2.0,-4.0,2.0,-1.0,-2.0,-10.0,-5.0
1701873586.6039946,-8.0,-5.0,1.0,1.0,-3.0,-2.0,2.0,-2.0
1701873586.6039946,2.0,-3.0,-1.0,-9.0,-4.0,5.0,3.0,4.0
1701873586.6243944,5.0,-3.0,-6.0,2.0,-2.0,-4.0,-2.0,0.0
1701873586.6243944,4.0,21.0,9.0,0.0,-2.0,0.0,-1.0,0.0
1701873586.6243944,-5.0,6.0,-2.0,-2.0,-9.0,-1.0,-1.0,-1.0
1701873586.6243944,-6.0,-17.0,-3.0,4.0,5.0,0.0,1.0,5.0
1701873586.6440167,0.0,6.0,7.0,5.0,13.0,16.0,4.0,-7.0
1701873586.6440167,-3.0,-14.0,-12.0,-3.0,0.0,-5.0,-2.0,-5.0
1701873586.6539721,5.0,9.0,3.0,-1.0,-10.0,-11.0,-5.0,4.0
1701873586.6539721,0.0,1.0,-7.0,-7.0,-10.0,-8.0,-8.0,-7.0
1701873586.6639743,-5.0,-7.0,5.0,0.0,0.0,13.0,19.0,10.0
1701873586.6639743,-2.0,1.0,4.0,10.0,20.0,3.0,-7.0,0.0
1701873586.6639743,-4.0,-5.0,-7.0,-7.0,-6.0,-10.0,-7.0,-2.0
1701873586.6639743,1.0,3.0,0.0,-3.0,-7.0,15.0,18.0,0.0
1701873586.6907175,5.0,0.0,0.0,-1.0,3.0,0.0,-6.0,-3.0
1701873586.6907175,-5.0,-5.0,1.0,1.0,-3.0,-5.0,-6.0,-2.0
1701873586.692207,-4.0,-2.0,-7.0,-8.0,-1.0,4.0,7.0,2.0
1701873586.692207,5.0,1.0,0.0,-1.0,-4.0,-11.0,-11.0,-2.0
1701873586.6970453,0.0,0.0,-1.0,3.0,4.0,6.0,5.0,0.0
1701873586.6970453,1.0,-7.0,-3.0,-6.0,-6.0,-8.0,-6.0,1.0
1701873586.717047,-1.0,6.0,0.0,0.0,4.0,2.0,-2.0,0.0
1701873586.717047,-8.0,-15.0,-6.0,-5.0,-3.0,-6.0,-4.0,-5.0
1701873586.727375,-3.0,3.0,-2.0,-4.0,-9.0,-9.0,-2.0,0.0
1701873586.727375,-6.0,-4.0,3.0,2.0,-4.0,-4.0,-4.0,-6.0
1701873586.727375,7.0,3.0,-5.0,1.0,5.0,5.0,4.0,1.0
1701873586.727375,-5.0,-21.0,-7.0,-1.0,4.0,6.0,1.0,3.0
1701873586.7476559,-7.0,-4.0,-1.0,3.0,5.0,0.0,-6.0,-15.0
1701873586.7476559,-6.0,5.0,-6.0,-11.0,-14.0,-10.0,-2.0,0.0
1701873586.7476559,7.0,15.0,5.0,0.0,-3.0,6.0,6.0,4.0
1701873586.7476559,-2.0,-16.0,-8.0,-1.0,0.0,-8.0,-4.0,-4.0
1701873586.7576597,-6.0,-13.0,-3.0,-2.0,1.0,9.0,2.0,-2.0
1701873586.7576597,7.0,7.0,3.0,5.0,6.0,4.0,3.0,2.0
1701873586.7674522,-12.0,-9.0,1.0,-1.0,2.0,4.0,4.0,-7.0
1701873586.7674522,4.0,17.0,3.0,0.0,-5.0,-12.0,-6.0,3.0
1701873586.7874107,1.0,-3.0,-2.0,-2.0,-1.0,-4.0,-12.0,-2.0
1701873586.7874107,-2.0,-11.0,-6.0,0.0,3.0,4.0,3.0,0.0
1701873586.7874107,-10.0,-10.0,2.0,-2.0,-4.0,-6.0,-10.0,-3.0
1701873586.7874107,-4.0,7.0,-1.0,-3.0,-8.0,-4.0,-1.0,-5.0
1701873586.8078952,7.0,7.0,2.0,3.0,4.0,-2.0,-1.0,8.0
1701873586.8078952,-1.0,4.0,1.0,-4.0,4.0,11.0,11.0,2.0
1701873586.8078952,1.0,-12.0,-3.0,0.0,-1.0,4.0,2.0,-1.0
1701873586.8078952,-2.0,-7.0,1.0,-2.0,-4.0,-9.0,-5.0,0.0
1701873586.8179057,0.0,13.0,1.0,0.0,2.0,7.0,2.0,1.0
1701873586.8179057,-5.0,-7.0,-1.0,2.0,4.0,-2.0,-7.0,-6.0
1701873586.8279321,-3.0,-3.0,-6.0,-4.0,-17.0,-16.0,-3.0,-3.0
1701873586.8279321,2.0,10.0,2.0,0.0,0.0,10.0,4.0,-1.0
1701873586.8482602,-2.0,2.0,3.0,3.0,10.0,-2.0,-4.0,4.0
1701873586.8482602,0.0,-3.0,0.0,3.0,-4.0,-4.0,1.0,-5.0
1701873586.8482602,1.0,0.0,-5.0,-9.0,-2.0,-5.0,-8.0,-5.0
1701873586.8482602,0.0,9.0,1.0,1.0,5.0,0.0,-3.0,-4.0
1701873586.8682537,-6.0,-15.0,-6.0,-5.0,-4.0,-3.0,-4.0,-4.0
1701873586.8682537,11.0,15.0,3.0,-3.0,-3.0,-2.0,-4.0,4.0
1701873586.8682537,-7.0,-14.0,-5.0,-1.0,-5.0,-7.0,-1.0,-2.0
1701873586.8682537,3.0,-2.0,-5.0,-3.0,-5.0,-4.0,0.0,3.0
1701873586.877906,3.0,5.0,-3.0,-8.0,-2.0,-1.0,1.0,-2.0
1701873586.877906,-7.0,-10.0,-1.0,1.0,2.0,2.0,-1.0,-3.0
1701873586.8879051,4.0,8.0,4.0,1.0,5.0,5.0,-1.0,3.0
1701873586.8879051,1.0,6.0,4.0,2.0,4.0,-3.0,-3.0,-1.0
1701873586.9080992,1.0,-8.0,-6.0,-4.0,-11.0,1.0,4.0,1.0
1701873586.9080992,0.0,3.0,1.0,0.0,0.0,-3.0,-5.0,0.0
1701873586.9080992,-2.0,-3.0,-2.0,4.0,8.0,2.0,-4.0,-3.0
1701873586.9080992,0.0,-1.0,-1.0,1.0,2.0,1.0,2.0,-4.0
1701873586.9282594,-3.0,-1.0,-1.0,-5.0,-8.0,-3.0,4.0,4.0
1701873586.9282594,-4.0,-2.0,-3.0,-5.0,-4.0,-14.0,-11.0,-6.0
1701873586.9282594,0.0,-8.0,0.0,-1.0,-4.0,-4.0,4.0,-1.0
1701873586.9282594,-1.0,5.0,3.0,-1.0,-4.0,-5.0,-5.0,-2.0
1701873586.9379063,-3.0,-2.0,-2.0,-2.0,1.0,-4.0,-10.0,-5.0
1701873586.9379063,-2.0,0.0,2.0,-2.0,-3.0,7.0,5.0,-1.0
1701873586.947939,3.0,0.0,-3.0,2.0,4.0,3.0,3.0,5.0
1701873586.947939,0.0,2.0,-4.0,-6.0,-5.0,-3.0,-3.0,-2.0
1701873586.9681845,-7.0,-13.0,-2.0,3.0,2.0,2.0,3.0,-1.0
1701873586.9681845,6.0,6.0,4.0,3.0,8.0,-1.0,-5.0,2.0
1701873586.9681845,-6.0,-11.0,-2.0,-3.0,-5.0,-6.0,-4.0,-3.0
1701873586.9681845,0.0,10.0,0.0,-8.0,-10.0,1.0,4.0,3.0
1701873586.988163,-1.0,15.0,4.0,2.0,-3.0,-3.0,-2.0,1.0
1701873586.988163,-1.0,-2.0,5.0,6.0,12.0,3.0,0.0,-2.0
1701873586.988163,2.0,5.0,0.0,-1.0,-1.0,11.0,9.0,6.0
1701873586.988163,-3.0,-9.0,-5.0,-2.0,-5.0,-5.0,-8.0,-5.0
1701873587.0179093,-4.0,-8.0,-4.0,0.0,3.0,-5.0,-7.0,-4.0
1701873587.0179093,-2.0,-3.0,-5.0,-3.0,-6.0,11.0,14.0,3.0
1701873587.0179093,2.0,7.0,6.0,1.0,0.0,-8.0,-7.0,-4.0
1701873587.0179093,-8.0,-5.0,0.0,4.0,12.0,-6.0,-12.0,-2.0
1701873587.0280864,0.0,0.0,0.0,-4.0,2.0,11.0,18.0,3.0
1701873587.0280864,2.0,-1.0,-1.0,-4.0,-11.0,-8.0,-3.0,6.0
1701873587.0280864,0.0,1.0,1.0,1.0,-7.0,-7.0,-9.0,-1.0
1701873587.0280864,0.0,-9.0,-3.0,-3.0,1.0,10.0,5.0,-1.0
1701873587.0579047,0.0,3.0,1.0,-3.0,-7.0,-3.0,4.0,2.0
1701873587.0579047,-2.0,-3.0,-5.0,-3.0,-2.0,2.0,1.0,-9.0
1701873587.0579047,-10.0,-10.0,4.0,5.0,2.0,-3.0,-4.0,-1.0
1701873587.0579047,8.0,26.0,10.0,4.0,3.0,1.0,-4.0,1.0
1701873587.0579047,-5.0,-13.0,-10.0,-2.0,3.0,2.0,2.0,-6.0
1701873587.0579047,5.0,10.0,-4.0,-5.0,-8.0,-4.0,-3.0,-1.0
1701873587.0679114,3.0,-26.0,-7.0,-6.0,-8.0,-3.0,-3.0,7.0
1701873587.0679114,-1.0,23.0,1.0,2.0,1.0,0.0,3.0,-2.0
1701873587.0882106,1.0,-8.0,1.0,3.0,5.0,4.0,-3.0,0.0
1701873587.0882106,5.0,10.0,-5.0,-5.0,-9.0,-10.0,-5.0,-1.0
1701873587.0882106,-9.0,3.0,2.0,2.0,2.0,1.0,0.0,-6.0
1701873587.0882106,3.0,-4.0,2.0,2.0,7.0,6.0,2.0,1.0
1701873587.107906,-5.0,2.0,-2.0,-2.0,-3.0,-10.0,-6.0,-4.0
1701873587.107906,4.0,-2.0,1.0,0.0,-1.0,-5.0,-3.0,0.0
1701873587.107906,6.0,5.0,-2.0,-5.0,-3.0,5.0,5.0,1.0
1701873587.107906,-16.0,-15.0,2.0,-4.0,-13.0,-4.0,-2.0,-3.0
1701873587.118244,4.0,4.0,3.0,4.0,4.0,-5.0,-6.0,2.0
1701873587.118244,-11.0,-12.0,0.0,-2.0,3.0,2.0,0.0,-6.0
1701873587.138261,-5.0,7.0,-2.0,-1.0,6.0,8.0,4.0,-2.0
1701873587.138261,7.0,-2.0,-2.0,-2.0,-6.0,-11.0,-1.0,6.0
1701873587.1482303,9.0,1.0,5.0,6.0,7.0,0.0,-4.0,1.0
1701873587.1482303,-10.0,-4.0,-3.0,1.0,1.0,-4.0,-15.0,-5.0
1701873587.1482303,-1.0,0.0,-5.0,-2.0,-3.0,0.0,10.0,0.0
1701873587.1482303,2.0,-8.0,-9.0,-1.0,11.0,21.0,14.0,3.0
1701873587.1679065,2.0,0.0,1.0,-5.0,-13.0,-15.0,-7.0,0.0
1701873587.1679065,1.0,2.0,-4.0,-6.0,-5.0,0.0,5.0,6.0
1701873587.1679065,5.0,-1.0,-7.0,-4.0,-4.0,-6.0,-9.0,2.0
1701873587.1679065,-6.0,-4.0,7.0,5.0,2.0,-6.0,-8.0,-22.0
1701873587.178118,-6.0,-9.0,-8.0,-5.0,-12.0,-5.0,1.0,2.0
1701873587.178118,-6.0,-13.0,-5.0,-9.0,-3.0,0.0,1.0,-3.0
1701873587.188099,5.0,19.0,5.0,-2.0,-3.0,0.0,0.0,3.0
1701873587.188099,-2.0,5.0,3.0,3.0,5.0,-1.0,1.0,7.0
1701873587.2295954,-3.0,1.0,9.0,10.0,17.0,6.0,1.0,-8.0
1701873587.2295954,0.0,-1.0,-9.0,-2.0,-2.0,-3.0,-4.0,3.0
1701873587.2295954,-3.0,-4.0,-2.0,-4.0,-3.0,-3.0,-4.0,-4.0
1701873587.2295954,-3.0,-14.0,-5.0,0.0,-4.0,-1.0,-1.0,-2.0
1701873587.2295954,-1.0,3.0,-4.0,-4.0,-8.0,-8.0,-8.0,-6.0
1701873587.2295954,0.0,-3.0,2.0,-2.0,-6.0,-9.0,-6.0,0.0
1701873587.2295954,-3.0,-3.0,-4.0,0.0,2.0,4.0,6.0,-11.0
1701873587.2295954,0.0,-2.0,0.0,-2.0,-1.0,4.0,1.0,9.0
1701873587.2397604,5.0,1.0,-6.0,-6.0,-10.0,-3.0,-3.0,4.0
1701873587.2397604,0.0,-2.0,1.0,3.0,4.0,3.0,6.0,1.0
1701873587.2498155,-3.0,-9.0,0.0,3.0,8.0,-8.0,-15.0,0.0
1701873587.2498155,-9.0,-11.0,-7.0,-9.0,-15.0,-10.0,-2.0,-10.0
1701873587.2598362,5.0,5.0,-1.0,-2.0,-1.0,-4.0,0.0,2.0
1701873587.2598362,5.0,8.0,8.0,3.0,4.0,3.0,-1.0,-1.0
1701873587.2696018,-5.0,-3.0,2.0,7.0,2.0,5.0,2.0,-1.0
1701873587.2696018,1.0,5.0,-3.0,4.0,14.0,8.0,3.0,1.0
1701873587.2995973,-9.0,-14.0,-6.0,-6.0,-5.0,1.0,0.0,-4.0
1701873587.2995973,1.0,12.0,1.0,-7.0,-4.0,-6.0,-4.0,-4.0
1701873587.2995973,-1.0,-7.0,-6.0,-7.0,-9.0,-4.0,2.0,4.0
1701873587.2995973,6.0,1.0,-3.0,-6.0,-1.0,-5.0,-2.0,-2.0
1701873587.2995973,-2.0,-2.0,2.0,3.0,0.0,-1.0,-4.0,-1.0
1701873587.2995973,3.0,-1.0,3.0,6.0,7.0,11.0,7.0,3.0
1701873587.3096318,-1.0,13.0,2.0,-2.0,-3.0,-7.0,-4.0,0.0
1701873587.3096318,-10.0,-13.0,3.0,0.0,-4.0,-4.0,-7.0,-5.0
1701873587.3295975,-1.0,7.0,-1.0,-2.0,-2.0,-3.0,-2.0,-2.0
1701873587.3295975,0.0,-15.0,-4.0,1.0,2.0,3.0,-6.0,0.0
1701873587.3295975,-3.0,0.0,-1.0,-2.0,-5.0,3.0,12.0,-1.0
1701873587.3295975,3.0,-4.0,-4.0,-3.0,-5.0,0.0,3.0,3.0
1701873587.3498607,0.0,2.0,0.0,-1.0,-4.0,-2.0,-2.0,-3.0
1701873587.3498607,-2.0,-1.0,0.0,2.0,4.0,2.0,-2.0,-4.0
1701873587.3498607,4.0,-2.0,3.0,5.0,10.0,-1.0,-8.0,1.0
1701873587.3498607,2.0,9.0,-2.0,-1.0,4.0,-2.0,-3.0,-3.0
1701873587.359831,-7.0,-14.0,4.0,-2.0,0.0,10.0,10.0,6.0
1701873587.359831,-3.0,-7.0,-11.0,-4.0,-10.0,-8.0,-3.0,-2.0
1701873587.369816,-2.0,-7.0,-3.0,-11.0,-12.0,-9.0,-3.0,-2.0
1701873587.369816,-4.0,-6.0,-3.0,-3.0,-2.0,-5.0,-1.0,2.0
1701873587.4096014,-2.0,7.0,-1.0,-1.0,0.0,0.0,-4.0,-12.0
1701873587.4096014,-3.0,-7.0,-1.0,1.0,-8.0,-2.0,3.0,7.0
1701873587.4096014,-1.0,6.0,2.0,-3.0,2.0,-2.0,-8.0,-8.0
1701873587.4096014,1.0,4.0,0.0,1.0,6.0,6.0,2.0,6.0
1701873587.4096014,0.0,1.0,-2.0,-3.0,-3.0,-4.0,0.0,-1.0
1701873587.4096014,-4.0,-2.0,4.0,6.0,0.0,1.0,0.0,-6.0
1701873587.4096014,-2.0,-12.0,-9.0,-1.0,4.0,6.0,8.0,4.0
1701873587.4096014,-4.0,2.0,1.0,2.0,2.0,-7.0,-9.0,-10.0
1701873587.429981,-2.0,1.0,2.0,0.0,1.0,-7.0,-4.0,-5.0
1701873587.429981,1.0,-6.0,-11.0,-7.0,-4.0,2.0,5.0,3.0
1701873587.429981,1.0,4.0,4.0,-5.0,-15.0,-9.0,-4.0,-2.0
1701873587.429981,0.0,3.0,5.0,2.0,1.0,4.0,1.0,0.0
1701873587.4398804,2.0,1.0,0.0,3.0,9.0,9.0,0.0,0.0
1701873587.4398804,-4.0,-3.0,-4.0,-3.0,-4.0,-5.0,6.0,-4.0
1701873587.4495976,2.0,2.0,4.0,3.0,6.0,13.0,6.0,5.0
1701873587.4495976,-2.0,1.0,1.0,-3.0,-6.0,-6.0,-3.0,-3.0
1701873587.4695966,-4.0,6.0,-1.0,-3.0,-6.0,-4.0,-6.0,-4.0
1701873587.4695966,-7.0,-28.0,-11.0,-1.0,5.0,-4.0,-5.0,0.0
1701873587.4695966,-1.0,-1.0,1.0,0.0,-1.0,-3.0,-3.0,-4.0
1701873587.4695966,1.0,-1.0,1.0,-1.0,-8.0,-6.0,-6.0,-4.0
1701873587.4898634,5.0,1.0,-3.0,-4.0,3.0,5.0,7.0,6.0
1701873587.4898634,-4.0,2.0,2.0,-1.0,3.0,8.0,4.0,-4.0
1701873587.4898634,0.0,0.0,0.0,1.0,-5.0,-7.0,-6.0,-2.0
1701873587.4898634,-1.0,-6.0,-6.0,-1.0,-1.0,-7.0,-1.0,1.0
1701873587.529597,-2.0,-1.0,-1.0,-5.0,-9.0,0.0,-3.0,-9.0
1701873587.529597,4.0,5.0,1.0,-1.0,-2.0,-1.0,4.0,4.0
1701873587.529597,-1.0,-3.0,-3.0,-1.0,7.0,4.0,-2.0,-2.0
1701873587.529597,6.0,3.0,4.0,1.0,-6.0,-8.0,-9.0,4.0
1701873587.529597,-8.0,-7.0,-6.0,-1.0,2.0,5.0,13.0,-3.0
1701873587.529597,-1.0,7.0,0.0,-8.0,-16.0,-24.0,-20.0,-5.0
1701873587.529597,-3.0,-1.0,1.0,3.0,-8.0,0.0,-2.0,-2.0
1701873587.529597,-1.0,-6.0,-3.0,7.0,23.0,15.0,9.0,4.0
1701873587.5499718,-1.0,-3.0,-5.0,0.0,4.0,-3.0,-4.0,1.0
1701873587.5499718,0.0,2.0,3.0,-1.0,-1.0,4.0,-3.0,-8.0
1701873587.5499718,1.0,2.0,-2.0,-6.0,-10.0,-16.0,-12.0,3.0
1701873587.5499718,4.0,2.0,-3.0,-5.0,-13.0,-4.0,2.0,-3.0
1701873587.5695968,-10.0,-9.0,2.0,0.0,2.0,1.0,0.0,3.0
1701873587.5695968,3.0,2.0,6.0,5.0,7.0,0.0,0.0,-6.0
1701873587.5695968,0.0,-4.0,-5.0,-4.0,0.0,-2.0,-3.0,-2.0
1701873587.5695968,0.0,2.0,3.0,-2.0,-3.0,6.0,8.0,1.0
1701873587.5898254,-1.0,-4.0,-3.0,0.0,-3.0,-2.0,-4.0,1.0
1701873587.5898254,-2.0,7.0,-3.0,-4.0,-4.0,-2.0,-1.0,0.0
1701873587.5898254,-5.0,-9.0,1.0,3.0,10.0,11.0,2.0,0.0
1701873587.5898254,-1.0,-1.0,-1.0,-2.0,-4.0,-3.0,6.0,-3.0
1701873587.6195965,0.0,-2.0,-1.0,1.0,2.0,-1.0,-6.0,-1.0
1701873587.6195965,2.0,7.0,4.0,2.0,3.0,2.0,-3.0,0.0
1701873587.6195965,0.0,-1.0,-2.0,2.0,4.0,4.0,2.0,0.0
1701873587.6195965,-6.0,-5.0,-6.0,-6.0,-9.0,-11.0,-11.0,-4.0
1701873587.6195965,9.0,12.0,4.0,0.0,-6.0,-9.0,3.0,8.0
1701873587.6195965,-6.0,-5.0,-2.0,2.0,6.0,14.0,9.0,-7.0
1701873587.6295986,-3.0,2.0,0.0,-2.0,-6.0,-7.0,-2.0,-3.0
1701873587.6295986,-4.0,-7.0,-2.0,0.0,-2.0,-1.0,-7.0,-1.0
1701873587.6498601,1.0,2.0,-1.0,-2.0,1.0,-4.0,-4.0,-4.0
1701873587.6498601,2.0,3.0,2.0,1.0,5.0,9.0,6.0,6.0
1701873587.6498601,-2.0,-3.0,-3.0,-4.0,-8.0,-5.0,-1.0,1.0
1701873587.6498601,5.0,1.0,-2.0,0.0,-4.0,-8.0,-5.0,-3.0
1701873587.669597,-2.0,1.0,1.0,1.0,9.0,12.0,4.0,-1.0
1701873587.669597,1.0,5.0,0.0,0.0,4.0,-3.0,-2.0,-3.0
1701873587.669597,-2.0,1.0,-2.0,-1.0,-2.0,-1.0,1.0,-4.0
1701873587.669597,0.0,-3.0,-3.0,-4.0,-5.0,5.0,3.0,3.0
1701873587.6799324,0.0,-1.0,0.0,-3.0,-8.0,-7.0,-5.0,-2.0
1701873587.6799324,-3.0,-4.0,-3.0,-2.0,-3.0,-7.0,-5.0,-1.0
1701873587.6898866,3.0,3.0,3.0,4.0,2.0,-2.0,3.0,2.0
1701873587.6898866,-6.0,-4.0,-3.0,0.0,3.0,10.0,10.0,-2.0
1701873587.709849,2.0,1.0,1.0,1.0,3.0,10.0,3.0,-1.0
1701873587.709849,-1.0,1.0,1.0,-5.0,-10.0,-9.0,-2.0,1.0
1701873587.709849,-7.0,-5.0,-4.0,-3.0,-3.0,-9.0,-10.0,-6.0
1701873587.709849,-11.0,-12.0,1.0,2.0,3.0,2.0,1.0,-6.0
1701873587.7295978,10.0,16.0,5.0,0.0,-3.0,-3.0,0.0,6.0
1701873587.7295978,-2.0,-4.0,1.0,1.0,1.0,-2.0,-5.0,4.0
1701873587.7295978,0.0,6.0,-2.0,-1.0,6.0,7.0,1.0,-9.0
1701873587.7295978,-4.0,1.0,1.0,2.0,5.0,14.0,13.0,3.0
1701873587.747749,-8.0,-22.0,-7.0,-2.0,-7.0,-17.0,-10.0,-4.0
1701873587.747749,1.0,7.0,3.0,-4.0,-8.0,11.0,13.0,4.0
1701873587.7544823,-8.0,-6.0,-1.0,-2.0,-1.0,2.0,9.0,-4.0
1701873587.7544823,8.0,7.0,3.0,0.0,5.0,-8.0,-10.0,5.0
1701873587.762802,-6.0,0.0,-2.0,-1.0,-2.0,10.0,6.0,-9.0
1701873587.762802,1.0,-1.0,1.0,-1.0,-7.0,-13.0,-14.0,-2.0
1701873587.762802,-4.0,-4.0,-7.0,-8.0,-10.0,-5.0,1.0,-1.0
1701873587.762802,-1.0,-3.0,-3.0,4.0,7.0,4.0,1.0,3.0
1701873587.7928069,-1.0,-4.0,0.0,6.0,15.0,12.0,4.0,2.0
1701873587.7928069,-5.0,-9.0,-4.0,-2.0,8.0,-3.0,-4.0,-6.0
1701873587.7928069,8.0,22.0,5.0,-5.0,-6.0,-8.0,-6.0,1.0
1701873587.7928069,-9.0,-22.0,-11.0,-6.0,-13.0,-8.0,-4.0,-3.0
1701873587.8029056,1.0,9.0,3.0,-2.0,-9.0,-3.0,-1.0,2.0
1701873587.8029056,-4.0,-14.0,-12.0,-1.0,1.0,4.0,4.0,0.0
1701873587.813138,4.0,0.0,3.0,3.0,4.0,3.0,-3.0,3.0
1701873587.813138,-8.0,8.0,0.0,-2.0,2.0,4.0,7.0,-2.0
1701873587.8231466,10.0,5.0,-4.0,-4.0,-7.0,-6.0,-6.0,3.0
1701873587.8231466,1.0,0.0,-1.0,-3.0,-9.0,-12.0,-8.0,-1.0
1701873587.8231466,0.0,-1.0,1.0,1.0,0.0,-2.0,1.0,-1.0
1701873587.8231466,7.0,12.0,3.0,2.0,3.0,7.0,0.0,4.0
1701873587.8531249,-4.0,-8.0,-7.0,-4.0,-5.0,-10.0,-9.0,-5.0
1701873587.8531249,-1.0,4.0,2.0,1.0,1.0,-2.0,-3.0,-3.0
1701873587.8531249,-5.0,-6.0,-1.0,-1.0,2.0,1.0,0.0,0.0
1701873587.8531249,1.0,-2.0,0.0,1.0,0.0,1.0,-1.0,-1.0
1701873587.8628616,-1.0,-2.0,-6.0,-6.0,-4.0,-8.0,-3.0,-1.0
1701873587.8628616,0.0,-2.0,-1.0,-2.0,-11.0,-6.0,-4.0,-1.0
1701873587.8731449,-2.0,-1.0,0.0,1.0,7.0,1.0,-4.0,-1.0
1701873587.8731449,2.0,3.0,2.0,1.0,8.0,11.0,7.0,3.0
1701873587.882802,3.0,2.0,3.0,1.0,2.0,1.0,-6.0,-1.0
1701873587.882802,-7.0,-6.0,-5.0,-4.0,-3.0,-8.0,-9.0,-16.0
1701873587.882802,-7.0,-9.0,-3.0,-5.0,-8.0,7.0,14.0,3.0
1701873587.882802,-1.0,10.0,-1.0,-6.0,-15.0,-13.0,-3.0,-9.0
1701873587.9131753,4.0,-5.0,1.0,2.0,-1.0,2.0,1.0,10.0
1701873587.9131753,-11.0,0.0,-3.0,2.0,20.0,1.0,-15.0,-13.0
1701873587.9131753,7.0,7.0,6.0,6.0,10.0,12.0,9.0,10.0
1701873587.9131753,4.0,-10.0,-8.0,-8.0,-10.0,-8.0,-8.0,-4.0
1701873587.9231684,-6.0,1.0,-1.0,-7.0,-19.0,-14.0,-4.0,-6.0
1701873587.9231684,5.0,8.0,9.0,1.0,-8.0,-5.0,-1.0,3.0
1701873587.9331226,5.0,-3.0,1.0,10.0,11.0,-1.0,-5.0,-3.0
1701873587.9331226,-9.0,-6.0,-14.0,-10.0,-1.0,1.0,-1.0,-4.0
1701873587.9428027,1.0,0.0,0.0,1.0,4.0,-1.0,0.0,2.0
1701873587.9428027,-4.0,-4.0,-1.0,-4.0,-5.0,0.0,5.0,3.0
1701873587.9428027,7.0,16.0,5.0,1.0,0.0,-4.0,-4.0,-3.0
1701873587.9428027,8.0,0.0,13.0,6.0,0.0,-1.0,-1.0,4.0
1701873587.9731593,-12.0,-22.0,-19.0,-11.0,-13.0,-8.0,-7.0,-12.0
1701873587.9731593,2.0,12.0,5.0,-1.0,2.0,-1.0,4.0,2.0
1701873587.9731593,4.0,3.0,1.0,3.0,0.0,6.0,2.0,5.0
1701873587.9731593,-4.0,3.0,-4.0,-1.0,5.0,-4.0,-11.0,-1.0
1701873587.9831524,-5.0,-4.0,4.0,1.0,1.0,-6.0,-5.0,-6.0
1701873587.9831524,1.0,0.0,1.0,1.0,2.0,17.0,21.0,6.0
1701873587.9931054,-4.0,-9.0,-6.0,-7.0,-8.0,-9.0,-11.0,-9.0
1701873587.9931054,-4.0,-4.0,2.0,-1.0,-6.0,-12.0,-10.0,-4.0
1701873588.012801,-1.0,13.0,5.0,0.0,0.0,9.0,10.0,-4.0
1701873588.012801,-4.0,-16.0,-13.0,-4.0,-6.0,-6.0,-5.0,6.0
1701873588.012801,-4.0,-8.0,-3.0,-3.0,2.0,4.0,0.0,-6.0
1701873588.012801,-4.0,-1.0,3.0,7.0,9.0,3.0,3.0,-2.0
1701873588.0328066,4.0,7.0,3.0,2.0,2.0,-6.0,-2.0,5.0
1701873588.0328066,-1.0,-4.0,-2.0,-1.0,-3.0,9.0,6.0,-2.0
1701873588.0328066,-2.0,-6.0,-3.0,-5.0,-6.0,-8.0,-2.0,-2.0
1701873588.0328066,3.0,3.0,3.0,-4.0,-8.0,-5.0,-5.0,0.0
1701873588.042811,-4.0,-4.0,1.0,0.0,3.0,-6.0,-3.0,-4.0
1701873588.042811,1.0,-5.0,-1.0,0.0,8.0,12.0,10.0,0.0
1701873588.0628028,-3.0,-2.0,-1.0,-2.0,1.0,2.0,-3.0,-2.0
1701873588.0628028,3.0,2.0,1.0,2.0,1.0,8.0,14.0,4.0
1701873588.0628028,2.0,-7.0,-7.0,-4.0,-6.0,-7.0,-10.0,-6.0
1701873588.0628028,6.0,7.0,0.0,-1.0,-12.0,-13.0,-3.0,5.0
1701873588.0628028,0.0,-13.0,-6.0,-5.0,-4.0,-9.0,-9.0,1.0
1701873588.0628028,-10.0,7.0,2.0,-4.0,-3.0,12.0,13.0,-9.0
1701873588.0930705,-10.0,-7.0,4.0,4.0,0.0,2.0,0.0,3.0
1701873588.0930705,1.0,14.0,4.0,2.0,7.0,2.0,4.0,-1.0
1701873588.0930705,-7.0,-17.0,3.0,5.0,5.0,8.0,4.0,2.0
1701873588.0930705,-3.0,-6.0,-10.0,-6.0,2.0,-4.0,-4.0,0.0
1701873588.1128013,8.0,0.0,-3.0,0.0,-4.0,-8.0,-5.0,-1.0
1701873588.1128013,-2.0,-11.0,-8.0,-11.0,-14.0,-9.0,-11.0,-6.0
1701873588.1128013,2.0,13.0,5.0,5.0,7.0,3.0,7.0,7.0
1701873588.1128013,-3.0,-10.0,-5.0,-1.0,8.0,0.0,-9.0,-11.0
1701873588.1230068,0.0,5.0,12.0,5.0,-2.0,4.0,4.0,5.0
1701873588.1230068,2.0,1.0,-13.0,-4.0,3.0,-1.0,-2.0,-2.0
1701873588.132807,-8.0,-10.0,-10.0,-10.0,-12.0,-6.0,-4.0,-3.0
1701873588.132807,-1.0,0.0,2.0,-4.0,-13.0,-10.0,-5.0,0.0
1701873588.1530697,2.0,6.0,1.0,1.0,9.0,1.0,0.0,2.0
1701873588.1530697,-1.0,-5.0,4.0,1.0,-1.0,-1.0,-5.0,-4.0
1701873588.1530697,8.0,8.0,-5.0,-4.0,-4.0,-12.0,-7.0,-7.0
1701873588.1530697,-1.0,-4.0,2.0,1.0,3.0,11.0,5.0,9.0
1701873588.1629877,-6.0,-4.0,-5.0,-6.0,-4.0,5.0,12.0,-3.0
1701873588.1629877,-3.0,-1.0,3.0,3.0,-4.0,-4.0,-8.0,-2.0
1701873588.173036,3.0,5.0,3.0,4.0,10.0,7.0,6.0,1.0
1701873588.173036,3.0,4.0,1.0,0.0,-6.0,-12.0,-9.0,-1.0
1701873588.2028008,-1.0,-2.0,-5.0,-1.0,2.0,1.0,-4.0,-3.0
1701873588.2028008,-1.0,-1.0,3.0,3.0,6.0,1.0,-1.0,0.0
1701873588.2028008,-6.0,0.0,-2.0,-1.0,-12.0,-5.0,-5.0,-4.0
1701873588.2028008,1.0,-4.0,-2.0,-4.0,-5.0,-12.0,-5.0,1.0
1701873588.2131135,-3.0,-2.0,-3.0,-1.0,2.0,7.0,3.0,-2.0
1701873588.2131135,-1.0,-2.0,3.0,2.0,3.0,1.0,2.0,1.0
1701873588.2131135,-1.0,-2.0,2.0,-1.0,2.0,-5.0,-7.0,0.0
1701873588.2131135,1.0,5.0,3.0,0.0,-2.0,6.0,5.0,0.0
1701873588.2328024,2.0,-3.0,-4.0,-7.0,-5.0,-9.0,-12.0,0.0
1701873588.2328024,-2.0,6.0,6.0,1.0,-4.0,-7.0,-7.0,-7.0
1701873588.2328024,-1.0,-5.0,-3.0,1.0,4.0,12.0,16.0,6.0
1701873588.2328024,2.0,-15.0,-11.0,-7.0,-3.0,-1.0,3.0,5.0
1701873588.2430177,2.0,10.0,0.0,2.0,2.0,2.0,2.0,2.0
1701873588.2430177,-3.0,12.0,9.0,-2.0,-9.0,-12.0,-8.0,-6.0
1701873588.2528067,2.0,-12.0,-1.0,1.0,-1.0,4.0,3.0,10.0
1701873588.2528067,-2.0,-11.0,-4.0,1.0,4.0,-7.0,-14.0,-15.0
1701873588.2905867,-5.0,-1.0,-4.0,-8.0,-5.0,1.0,8.0,0.0
1701873588.2905867,6.0,-5.0,-4.0,3.0,16.0,6.0,1.0,9.0
1701873588.2905867,-3.0,5.0,2.0,-1.0,-7.0,-2.0,7.0,-4.0
1701873588.2905867,-1.0,11.0,3.0,0.0,-6.0,-1.0,-4.0,2.0
1701873588.2905867,0.0,-13.0,-5.0,-1.0,-2.0,-5.0,-4.0,-4.0
1701873588.2905867,-10.0,-13.0,-5.0,1.0,8.0,5.0,2.0,-1.0
1701873588.2953331,-1.0,13.0,6.0,-2.0,0.0,-5.0,-5.0,-5.0
1701873588.2953331,4.0,9.0,1.0,-1.0,-3.0,0.0,-1.0,4.0
1701873588.3057513,0.0,-5.0,-1.0,-4.0,-5.0,-6.0,-4.0,4.0
1701873588.3057513,-3.0,-4.0,-8.0,-4.0,-7.0,-7.0,-5.0,-11.0
1701873588.3057513,-8.0,-6.0,-3.0,-5.0,-5.0,-11.0,-13.0,-9.0
1701873588.3057513,0.0,3.0,5.0,3.0,1.0,-3.0,6.0,2.0
1701873588.3353379,0.0,5.0,5.0,6.0,11.0,12.0,9.0,2.0
1701873588.3353379,0.0,3.0,-1.0,-4.0,-2.0,6.0,8.0,6.0
1701873588.3353379,-14.0,-15.0,1.0,-3.0,-6.0,-9.0,-10.0,-5.0
1701873588.3353379,2.0,2.0,-1.0,-4.0,-7.0,-11.0,-9.0,-5.0
1701873588.3453364,-6.0,2.0,3.0,0.0,-6.0,-7.0,-3.0,-5.0
1701873588.3453364,-3.0,-8.0,-4.0,0.0,1.0,0.0,3.0,2.0
1701873588.3553362,4.0,4.0,0.0,3.0,10.0,9.0,-1.0,-1.0
1701873588.3553362,-4.0,-2.0,1.0,2.0,10.0,9.0,1.0,4.0
1701873588.3657272,1.0,1.0,-1.0,4.0,3.0,2.0,1.0,0.0
1701873588.3657272,2.0,-5.0,-2.0,-6.0,-13.0,-9.0,-2.0,-1.0
1701873588.3657272,0.0,2.0,-6.0,-7.0,-11.0,-7.0,-3.0,-4.0
1701873588.3657272,-1.0,-2.0,-2.0,-1.0,1.0,2.0,1.0,3.0
1701873588.3853352,-1.0,-3.0,-1.0,0.0,-2.0,-6.0,-2.0,-7.0
1701873588.3853352,0.0,5.0,-1.0,-2.0,1.0,-6.0,-13.0,0.0
1701873588.3953378,6.0,-8.0,-2.0,-4.0,-3.0,6.0,7.0,2.0
1701873588.3953378,-21.0,5.0,-1.0,-4.0,-8.0,0.0,15.0,-5.0
1701873588.4156399,2.0,-13.0,-9.0,-1.0,4.0,4.0,-7.0,0.0
1701873588.4156399,-1.0,-3.0,3.0,1.0,-5.0,-4.0,-1.0,-4.0
1701873588.4156399,6.0,9.0,1.0,3.0,8.0,1.0,-4.0,4.0
1701873588.4156399,4.0,-2.0,4.0,2.0,-4.0,-6.0,-4.0,1.0
1701873588.425644,-10.0,-13.0,-12.0,-8.0,3.0,-5.0,-9.0,-6.0
1701873588.425644,1.0,5.0,8.0,3.0,4.0,10.0,7.0,3.0
1701873588.425644,1.0,8.0,-4.0,-1.0,-7.0,-9.0,-7.0,-1.0
1701873588.425644,8.0,1.0,0.0,-3.0,-6.0,-1.0,2.0,1.0
1701873588.4553373,-4.0,7.0,0.0,2.0,3.0,3.0,2.0,-2.0
1701873588.4553373,-2.0,-9.0,3.0,3.0,8.0,4.0,-2.0,1.0
1701873588.4553373,-2.0,1.0,1.0,0.0,-2.0,1.0,2.0,0.0
1701873588.4553373,-1.0,-11.0,-7.0,0.0,0.0,-3.0,-2.0,-1.0
1701873588.4756403,3.0,-5.0,3.0,-3.0,-7.0,-3.0,0.0,-3.0
1701873588.4756403,0.0,-1.0,-4.0,-5.0,-9.0,-6.0,-1.0,0.0
1701873588.4756403,-9.0,4.0,-1.0,2.0,4.0,2.0,0.0,-7.0
1701873588.4756403,11.0,-3.0,-5.0,-4.0,-1.0,-7.0,-8.0,6.0
1701873588.485622,-2.0,-3.0,-2.0,0.0,4.0,13.0,9.0,-5.0
1701873588.485622,-3.0,6.0,3.0,-1.0,-3.0,-3.0,0.0,-3.0
1701873588.485622,-6.0,-5.0,-3.0,-4.0,-6.0,-12.0,-2.0,-2.0
1701873588.485622,4.0,0.0,-3.0,-1.0,4.0,9.0,-1.0,4.0
1701873588.535335,8.0,10.0,7.0,5.0,5.0,7.0,8.0,3.0
1701873588.535335,-2.0,8.0,1.0,1.0,-4.0,-4.0,-2.0,0.0
1701873588.535335,-11.0,-9.0,-4.0,-8.0,-15.0,-12.0,-12.0,-7.0
1701873588.535335,-4.0,-8.0,-8.0,-4.0,-7.0,-12.0,-8.0,-8.0
1701873588.535335,-2.0,7.0,5.0,5.0,13.0,11.0,6.0,5.0
1701873588.535335,-2.0,-6.0,-2.0,0.0,-3.0,0.0,-3.0,-4.0
1701873588.535335,4.0,-3.0,-3.0,-1.0,3.0,0.0,0.0,5.0
1701873588.535335,0.0,4.0,5.0,2.0,4.0,6.0,3.0,-1.0
1701873588.5455983,-1.0,0.0,0.0,-4.0,-9.0,-3.0,-5.0,-1.0
1701873588.5455983,-2.0,-4.0,-6.0,-2.0,2.0,1.0,2.0,-1.0
1701873588.56534,4.0,0.0,0.0,0.0,3.0,2.0,1.0,0.0
1701873588.5753336,1.0,6.0,-3.0,-6.0,-11.0,-9.0,-5.0,-5.0
1701873588.5753336,1.0,-2.0,2.0,-3.0,-4.0,-2.0,-1.0,5.0
1701873588.5753336,-7.0,-9.0,-14.0,-1.0,3.0,-2.0,4.0,5.0
1701873588.5753336,12.0,13.0,11.0,3.0,5.0,3.0,1.0,4.0
1701873588.5753336,-6.0,-12.0,-7.0,-1.0,1.0,2.0,-2.0,-6.0
1701873588.595752,-8.0,-13.0,-2.0,-4.0,-7.0,-6.0,-2.0,-6.0
1701873588.595752,-1.0,-2.0,3.0,-2.0,-5.0,-7.0,-4.0,1.0
1701873588.595752,-9.0,-13.0,-10.0,1.0,5.0,5.0,0.0,0.0
1701873588.595752,9.0,3.0,5.0,1.0,1.0,-2.0,-6.0,2.0
1701873588.605715,-8.0,4.0,-5.0,-5.0,-11.0,-15.0,-9.0,0.0
1701873588.605715,-2.0,-10.0,3.0,0.0,-2.0,4.0,6.0,0.0
1701873588.6153383,0.0,2.0,-1.0,3.0,2.0,6.0,2.0,-3.0
1701873588.6153383,-4.0,-2.0,4.0,4.0,13.0,6.0,2.0,-2.0
1701873588.6253712,6.0,0.0,-1.0,5.0,3.0,5.0,2.0,1.0
1701873588.6253712,-10.0,-8.0,-8.0,-7.0,-4.0,-3.0,-4.0,-7.0
1701873588.6253712,2.0,16.0,2.0,-4.0,-10.0,-11.0,-6.0,0.0
1701873588.6253712,-10.0,-8.0,-4.0,-5.0,-19.0,-15.0,-9.0,-9.0
1701873588.6553369,2.0,7.0,2.0,-1.0,0.0,3.0,-2.0,8.0
1701873588.6553369,11.0,7.0,1.0,5.0,11.0,9.0,7.0,-1.0
1701873588.6553369,-7.0,-5.0,0.0,-1.0,2.0,3.0,4.0,-2.0
1701873588.6553369,7.0,12.0,5.0,5.0,7.0,12.0,9.0,9.0
1701873588.6653416,-8.0,-5.0,-3.0,-2.0,-5.0,-12.0,-10.0,-10.0
1701873588.6653416,1.0,1.0,1.0,-3.0,-7.0,-4.0,-9.0,-5.0
1701873588.6753354,0.0,-5.0,-3.0,-4.0,-8.0,-6.0,-9.0,0.0
1701873588.6753354,-8.0,-3.0,-2.0,1.0,1.0,-1.0,2.0,-4.0
1701873588.6853423,0.0,-2.0,-2.0,2.0,5.0,4.0,1.0,1.0
1701873588.6853423,5.0,2.0,1.0,2.0,7.0,0.0,-3.0,3.0
1701873588.6953406,2.0,0.0,2.0,3.0,1.0,5.0,8.0,1.0
1701873588.6953406,-4.0,-4.0,-1.0,2.0,3.0,-2.0,-2.0,0.0
1701873588.715342,5.0,-2.0,-6.0,-6.0,-11.0,-9.0,-5.0,-3.0
1701873588.715342,-2.0,6.0,1.0,0.0,-9.0,-2.0,-1.0,-5.0
1701873588.715342,-4.0,-4.0,0.0,4.0,8.0,8.0,-1.0,-2.0
1701873588.715342,-1.0,-1.0,1.0,-1.0,2.0,-8.0,-5.0,-1.0
1701873588.7453337,5.0,7.0,5.0,-1.0,1.0,7.0,3.0,-4.0
1701873588.7453337,-2.0,-6.0,-9.0,-6.0,-3.0,-5.0,0.0,2.0
1701873588.7453337,-7.0,-11.0,-1.0,-2.0,-5.0,3.0,5.0,-1.0
1701873588.7453337,10.0,6.0,3.0,-1.0,-2.0,-2.0,-1.0,6.0
1701873588.7453337,-6.0,1.0,2.0,-3.0,-6.0,-5.0,-3.0,-5.0
1701873588.7453337,1.0,-5.0,-6.0,-2.0,-1.0,-3.0,-5.0,2.0
1701873588.7453337,7.0,3.0,4.0,4.0,9.0,3.0,-2.0,1.0
1701873588.7453337,-8.0,1.0,-6.0,-2.0,1.0,1.0,-2.0,-8.0
1701873588.7753363,1.0,1.0,-1.0,-1.0,-7.0,-5.0,3.0,2.0
1701873588.7753363,2.0,6.0,5.0,2.0,3.0,2.0,-1.0,-3.0
1701873588.7753363,-1.0,-5.0,-5.0,-2.0,2.0,-10.0,-13.0,4.0
1701873588.7753363,-5.0,-1.0,3.0,-2.0,-2.0,23.0,26.0,-3.0
1701873588.7853522,0.0,-6.0,-2.0,1.0,0.0,-3.0,4.0,7.0
1701873588.7853522,1.0,2.0,2.0,2.0,4.0,0.0,-1.0,1.0
1701873588.7964082,-3.0,2.0,-2.0,-2.0,2.0,-2.0,-1.0,-4.0
1701873588.7964082,-4.0,-5.0,-6.0,-7.0,-10.0,-19.0,-20.0,-4.0
1701873588.8130968,-1.0,-5.0,-4.0,-6.0,-6.0,8.0,3.0,-4.0
1701873588.8141193,-6.0,0.0,3.0,3.0,6.0,13.0,14.0,4.0
1701873588.8151135,1.0,-1.0,-1.0,3.0,5.0,-4.0,-5.0,-2.0
1701873588.8151135,3.0,3.0,0.0,0.0,-1.0,-3.0,-1.0,-1.0
1701873588.8481648,-10.0,-3.0,-3.0,-3.0,-3.0,-10.0,-8.0,1.0
1701873588.8481648,9.0,9.0,-4.0,0.0,-3.0,-5.0,-10.0,-4.0
1701873588.8481648,-5.0,-16.0,-3.0,-4.0,-2.0,2.0,6.0,4.0
1701873588.8481648,-4.0,-8.0,-4.0,-1.0,0.0,-3.0,-4.0,-3.0
1701873588.8481648,5.0,5.0,3.0,3.0,4.0,0.0,-1.0,2.0
1701873588.8481648,-12.0,-6.0,-5.0,-6.0,-13.0,-8.0,-4.0,-11.0
1701873588.8582208,-1.0,-3.0,-2.0,-4.0,-11.0,-6.0,-3.0,-2.0
1701873588.8582208,6.0,10.0,4.0,0.0,3.0,-1.0,-9.0,6.0
1701873588.8685615,-19.0,-11.0,4.0,2.0,15.0,11.0,17.0,-9.0
1701873588.8685615,5.0,-1.0,-6.0,4.0,4.0,1.0,-7.0,5.0
1701873588.8685615,-2.0,9.0,2.0,-2.0,-1.0,17.0,17.0,1.0
1701873588.8685615,-3.0,-14.0,-5.0,-2.0,-5.0,-10.0,-7.0,-2.0
1701873588.8881636,1.0,4.0,-1.0,-4.0,-8.0,-17.0,-19.0,-8.0
1701873588.8881636,1.0,-2.0,1.0,-4.0,-6.0,2.0,7.0,6.0
1701873588.8881636,-2.0,-1.0,-3.0,-2.0,-3.0,-6.0,-1.0,-3.0
1701873588.8881636,-1.0,-2.0,-5.0,-1.0,3.0,-4.0,-5.0,-4.0
1701873588.9085574,6.0,1.0,-6.0,-2.0,-9.0,-1.0,-3.0,6.0
1701873588.9085574,-4.0,1.0,5.0,3.0,7.0,3.0,3.0,-3.0
1701873588.9181647,-4.0,-8.0,-4.0,-3.0,0.0,-4.0,-7.0,3.0
1701873588.9181647,-3.0,0.0,-3.0,-4.0,2.0,4.0,2.0,-5.0
1701873588.9285674,3.0,-2.0,-2.0,2.0,1.0,-10.0,-4.0,0.0
1701873588.9285674,2.0,2.0,2.0,-3.0,-10.0,-5.0,-3.0,-1.0
1701873588.9285674,1.0,4.0,1.0,-3.0,-3.0,2.0,-3.0,-1.0
1701873588.9285674,-2.0,-3.0,-1.0,5.0,8.0,7.0,11.0,-3.0
1701873588.9481647,5.0,5.0,1.0,2.0,8.0,12.0,12.0,4.0
1701873588.9481647,2.0,-3.0,-5.0,-3.0,-5.0,-3.0,-5.0,-2.0
1701873588.9481647,-4.0,3.0,-1.0,0.0,-3.0,-5.0,-3.0,-6.0
1701873588.9481647,-2.0,-2.0,-2.0,-2.0,-6.0,-3.0,1.0,2.0
1701873588.968554,-1.0,1.0,-7.0,-7.0,-10.0,-11.0,-13.0,-3.0
1701873588.968554,-6.0,-10.0,-1.0,-1.0,1.0,-6.0,-5.0,-4.0
1701873588.978168,7.0,-3.0,-4.0,-3.0,1.0,5.0,4.0,3.0
1701873588.978168,-10.0,-4.0,-1.0,-1.0,-4.0,-1.0,-2.0,-6.0
1701873588.988466,1.0,10.0,1.0,-1.0,-1.0,-2.0,-4.0,-6.0
1701873588.988466,-3.0,-5.0,-1.0,1.0,0.0,-2.0,-2.0,5.0
1701873588.988466,1.0,11.0,3.0,-4.0,-4.0,-2.0,-4.0,-3.0
1701873588.988466,7.0,0.0,1.0,2.0,-1.0,1.0,6.0,6.0
1701873589.0084772,-5.0,-7.0,-1.0,5.0,12.0,1.0,-9.0,-3.0
1701873589.0084772,-7.0,0.0,-3.0,-6.0,-4.0,-3.0,2.0,-8.0
1701873589.0181644,3.0,-1.0,-1.0,3.0,3.0,5.0,7.0,2.0
1701873589.0181644,2.0,9.0,3.0,-1.0,-5.0,-6.0,-5.0,6.0
1701873589.0281887,-5.0,-12.0,0.0,2.0,2.0,5.0,3.0,-2.0
1701873589.0281887,-2.0,0.0,-1.0,-3.0,-2.0,-7.0,-10.0,-7.0
1701873589.0381665,-2.0,-4.0,-4.0,-5.0,2.0,0.0,-3.0,7.0
1701873589.0381665,2.0,6.0,3.0,-2.0,-11.0,-7.0,-2.0,-6.0
1701873589.0486376,2.0,-6.0,-5.0,-1.0,0.0,-1.0,-4.0,0.0
1701873589.0486376,-5.0,6.0,3.0,3.0,6.0,7.0,3.0,1.0
1701873589.0486376,-6.0,0.0,0.0,-2.0,-5.0,-2.0,2.0,-2.0
1701873589.0486376,8.0,1.0,0.0,3.0,8.0,8.0,0.0,3.0
1701873589.0786786,-4.0,0.0,0.0,-4.0,-3.0,-3.0,-2.0,-4.0
1701873589.0786786,6.0,-2.0,-4.0,-1.0,-4.0,-1.0,2.0,3.0
1701873589.0786786,-4.0,-5.0,-4.0,2.0,0.0,-2.0,0.0,-4.0
1701873589.0786786,-7.0,0.0,0.0,0.0,2.0,-2.0,-7.0,-3.0
1701873589.0889654,2.0,-1.0,-2.0,-1.0,-2.0,-2.0,-1.0,-3.0
1701873589.0889654,1.0,14.0,3.0,-4.0,-7.0,0.0,1.0,1.0
1701873589.0889654,-15.0,-17.0,-1.0,-3.0,-8.0,-11.0,-7.0,-7.0
1701873589.0986543,-7.0,-5.0,-4.0,-3.0,0.0,-8.0,-12.0,-11.0
1701873589.1087017,10.0,4.0,2.0,2.0,3.0,20.0,19.0,14.0
1701873589.1087017,6.0,2.0,-2.0,1.0,2.0,-5.0,-1.0,-2.0
1701873589.1087017,2.0,6.0,1.0,0.0,-1.0,6.0,7.0,-2.0
1701873589.1087017,-2.0,-3.0,0.0,1.0,8.0,4.0,0.0,-1.0
1701873589.1289442,-7.0,-1.0,0.0,-2.0,-6.0,-9.0,-7.0,-2.0
1701873589.1289442,-3.0,-6.0,-3.0,-4.0,1.0,0.0,-1.0,-2.0
1701873589.1289442,8.0,7.0,4.0,1.0,-1.0,-4.0,-12.0,-2.0
1701873589.1289442,-12.0,-11.0,-3.0,-4.0,-8.0,-4.0,0.0,-3.0
1701873589.148938,-2.0,3.0,0.0,-4.0,-10.0,-9.0,1.0,0.0
1701873589.148938,1.0,-3.0,5.0,5.0,8.0,21.0,11.0,5.0
1701873589.148938,-6.0,-3.0,-6.0,-2.0,1.0,-11.0,-14.0,-10.0
1701873589.148938,10.0,7.0,1.0,-2.0,-3.0,8.0,11.0,14.0
1701873589.1686492,-1.0,-5.0,0.0,2.0,0.0,-8.0,-12.0,-17.0
1701873589.1686492,-8.0,-13.0,-6.0,0.0,3.0,4.0,0.0,-3.0
1701873589.1686492,11.0,25.0,12.0,-3.0,-5.0,-13.0,-18.0,-1.0
1701873589.1686492,-2.0,-10.0,-1.0,2.0,-1.0,10.0,23.0,5.0
1701873589.1889033,-13.0,-12.0,-13.0,-12.0,-4.0,3.0,0.0,-4.0
1701873589.1889033,2.0,11.0,1.0,0.0,-2.0,-5.0,-2.0,-2.0
1701873589.1889033,10.0,-11.0,-3.0,3.0,-3.0,-2.0,-1.0,2.0
1701873589.1889033,7.0,9.0,5.0,0.0,-1.0,-5.0,-10.0,3.0
1701873589.2089064,-11.0,-13.0,-7.0,-4.0,-3.0,1.0,0.0,-4.0
1701873589.2089064,4.0,10.0,1.0,0.0,4.0,-2.0,0.0,7.0
1701873589.2186532,-4.0,3.0,-1.0,6.0,6.0,4.0,8.0,2.0
1701873589.2186532,9.0,11.0,-6.0,-4.0,1.0,-6.0,-8.0,-2.0
1701873589.2288785,2.0,3.0,5.0,3.0,-6.0,3.0,6.0,4.0
1701873589.2288785,-6.0,-7.0,2.0,-4.0,-8.0,-9.0,-8.0,-3.0
1701873589.2288785,3.0,-1.0,-4.0,0.0,-2.0,-4.0,1.0,-4.0
1701873589.2288785,-16.0,-10.0,-2.0,-5.0,-6.0,-5.0,-3.0,-6.0
1701873589.248906,8.0,14.0,2.0,-3.0,-1.0,-2.0,-4.0,1.0
1701873589.248906,-4.0,0.0,-2.0,-3.0,-3.0,-4.0,0.0,1.0
1701873589.2786512,-5.0,-9.0,-1.0,1.0,2.0,8.0,10.0,0.0
1701873589.2786512,2.0,3.0,2.0,9.0,8.0,4.0,-5.0,2.0
1701873589.2786512,5.0,3.0,1.0,-1.0,1.0,-5.0,-1.0,-2.0
1701873589.2786512,-1.0,-6.0,-9.0,-12.0,-16.0,-18.0,-19.0,-8.0
1701873589.2786512,-10.0,-10.0,-8.0,-11.0,-13.0,-6.0,1.0,-4.0
1701873589.2786512,5.0,3.0,0.0,1.0,3.0,-3.0,-6.0,-2.0
1701873589.298648,-3.0,1.0,8.0,16.0,17.0,23.0,22.0,8.0
1701873589.298648,-2.0,-10.0,0.0,8.0,14.0,5.0,1.0,-1.0
1701873589.298648,6.0,13.0,4.0,-5.0,0.0,-6.0,-7.0,-1.0
1701873589.298648,-15.0,-22.0,-13.0,-9.0,-14.0,-15.0,-7.0,-5.0
1701873589.3089795,3.0,-6.0,-3.0,-1.0,-8.0,-9.0,-8.0,-2.0
1701873589.3089795,-3.0,-4.0,-4.0,-6.0,-6.0,-2.0,-1.0,-5.0
1701873589.3089795,-7.0,-3.0,2.0,-2.0,-8.0,-1.0,-1.0,-3.0
1701873589.3089795,-6.0,-1.0,3.0,-3.0,-3.0,-7.0,1.0,-2.0
1701873589.3450184,7.0,4.0,-2.0,-2.0,8.0,-1.0,-9.0,-3.0
1701873589.3450184,-2.0,-9.0,-4.0,2.0,1.0,15.0,4.0,-1.0
1701873589.3450184,0.0,1.0,1.0,-2.0,-5.0,-8.0,-4.0,-2.0
1701873589.3450184,8.0,14.0,9.0,5.0,-1.0,5.0,1.0,4.0
1701873589.3533533,-4.0,-8.0,2.0,2.0,7.0,15.0,13.0,3.0
1701873589.3543758,5.0,0.0,-12.0,1.0,8.0,-6.0,-8.0,0.0
1701873589.35537,-9.0,-11.0,-11.0,-10.0,-5.0,-6.0,-12.0,-5.0
1701873589.35537,0.0,8.0,8.0,1.0,-10.0,-8.0,-1.0,-3.0
1701873589.3715405,-7.0,-16.0,-9.0,-13.0,-17.0,-13.0,-6.0,-3.0
1701873589.3715405,10.0,23.0,16.0,8.0,20.0,12.0,5.0,5.0
1701873589.3715405,-6.0,-26.0,-15.0,1.0,2.0,7.0,7.0,1.0
1701873589.3715405,5.0,17.0,9.0,8.0,9.0,5.0,2.0,0.0
1701873589.4212303,-4.0,1.0,2.0,3.0,-5.0,-7.0,-9.0,-4.0
1701873589.4212303,-1.0,-4.0,1.0,-6.0,-13.0,-3.0,4.0,-2.0
1701873589.4212303,-5.0,0.0,2.0,2.0,7.0,4.0,0.0,-2.0
1701873589.4212303,3.0,-7.0,-1.0,-2.0,5.0,1.0,-3.0,6.0
1701873589.4212303,0.0,0.0,-8.0,-5.0,-11.0,-9.0,-7.0,-10.0
1701873589.4212303,2.0,10.0,-2.0,-5.0,-6.0,-4.0,-2.0,0.0
1701873589.4212303,-11.0,-5.0,5.0,2.0,-1.0,-7.0,-6.0,-9.0
1701873589.4212303,-8.0,-11.0,-7.0,-6.0,-5.0,9.0,10.0,1.0
1701873589.4312365,4.0,-2.0,-1.0,5.0,10.0,13.0,10.0,13.0
1701873589.4312365,-6.0,-4.0,-1.0,-3.0,-9.0,-3.0,-7.0,-4.0
1701873589.4312365,2.0,2.0,-5.0,-10.0,-16.0,-11.0,8.0,1.0
1701873589.4312365,5.0,-1.0,4.0,10.0,21.0,19.0,9.0,-1.0
1701873589.4612315,-7.0,3.0,1.0,2.0,9.0,-7.0,-13.0,-5.0
1701873589.4612315,-3.0,-8.0,2.0,4.0,4.0,10.0,7.0,3.0
1701873589.4612315,-2.0,1.0,8.0,2.0,1.0,-4.0,-9.0,1.0
1701873589.4612315,-10.0,-2.0,-6.0,-7.0,-17.0,-12.0,-5.0,-8.0
1701873589.4712324,0.0,1.0,0.0,-10.0,-11.0,-5.0,-3.0,0.0
1701873589.4712324,1.0,2.0,-2.0,-3.0,-4.0,-6.0,-6.0,-5.0
1701873589.4712324,-1.0,-7.0,-3.0,-1.0,-2.0,7.0,2.0,5.0
1701873589.4712324,-3.0,-4.0,-5.0,5.0,7.0,-1.0,0.0,-4.0
1701873589.4914145,-8.0,1.0,-1.0,-7.0,-2.0,-2.0,-3.0,-5.0
1701873589.4914145,-6.0,-7.0,-3.0,0.0,-6.0,-9.0,-5.0,-3.0
1701873589.4914145,12.0,14.0,5.0,5.0,6.0,8.0,5.0,2.0
1701873589.4914145,3.0,6.0,4.0,-3.0,-4.0,-1.0,1.0,1.0
1701873589.5212302,10.0,8.0,-1.0,7.0,11.0,3.0,-1.0,1.0
1701873589.5212302,-12.0,-14.0,0.0,-3.0,-2.0,-3.0,-2.0,-1.0
1701873589.5212302,5.0,3.0,-1.0,-1.0,-3.0,2.0,5.0,5.0
1701873589.5212302,2.0,-2.0,-4.0,-5.0,-5.0,-9.0,-10.0,-2.0
1701873589.531451,-6.0,5.0,-1.0,-5.0,-14.0,-13.0,-10.0,-6.0
1701873589.531451,-7.0,3.0,3.0,6.0,5.0,18.0,17.0,-5.0
1701873589.531451,-2.0,3.0,-1.0,0.0,11.0,3.0,-4.0,2.0
1701873589.531451,-7.0,-13.0,-7.0,-5.0,-5.0,-9.0,-8.0,-7.0
1701873589.5512729,2.0,1.0,0.0,-4.0,-5.0,-3.0,-5.0,-2.0
1701873589.5512729,-1.0,-6.0,-2.0,-1.0,-10.0,-8.0,-5.0,-2.0
1701873589.5512729,-1.0,-1.0,1.0,4.0,0.0,-1.0,-2.0,-3.0
1701873589.5512729,1.0,-1.0,-5.0,-2.0,-2.0,-6.0,-5.0,-4.0
1701873589.5712292,-4.0,-7.0,2.0,2.0,14.0,10.0,6.0,3.0
1701873589.5712292,4.0,-4.0,-6.0,0.0,-1.0,-2.0,-6.0,1.0
1701873589.5712292,-1.0,0.0,3.0,-1.0,3.0,-1.0,0.0,-1.0
1701873589.5712292,-6.0,-13.0,-5.0,-3.0,-5.0,-5.0,-4.0,2.0
1701873589.5915847,-3.0,-9.0,1.0,4.0,-3.0,1.0,4.0,6.0
1701873589.5915847,3.0,21.0,1.0,-9.0,-4.0,-4.0,0.0,-7.0
1701873589.5915847,-5.0,-10.0,-11.0,-7.0,-5.0,-8.0,-8.0,-3.0
1701873589.5915847,-2.0,-1.0,0.0,-2.0,0.0,3.0,-4.0,-4.0
1701873589.6115928,3.0,-3.0,2.0,8.0,1.0,2.0,1.0,1.0
1701873589.6115928,2.0,-2.0,6.0,0.0,3.0,0.0,4.0,0.0
1701873589.6115928,2.0,19.0,2.0,-1.0,-1.0,-1.0,-6.0,2.0
1701873589.6115928,1.0,-6.0,-4.0,-3.0,3.0,16.0,14.0,2.0
1701873589.6312299,-1.0,-3.0,-2.0,-8.0,-11.0,-14.0,-7.0,-5.0
1701873589.6312299,4.0,3.0,1.0,1.0,-8.0,-14.0,-8.0,2.0
1701873589.6312299,-7.0,2.0,5.0,7.0,16.0,13.0,4.0,-6.0
1701873589.6312299,0.0,-2.0,2.0,10.0,28.0,21.0,7.0,2.0
1701873589.6515381,4.0,5.0,-2.0,-2.0,-1.0,-10.0,-9.0,-1.0
1701873589.6515381,-5.0,-4.0,-4.0,-9.0,-19.0,-19.0,-13.0,-7.0
1701873589.6515381,7.0,-4.0,-2.0,-2.0,-18.0,-5.0,8.0,3.0
1701873589.6515381,-6.0,-2.0,-7.0,-6.0,-2.0,0.0,-1.0,2.0
1701873589.6912339,-2.0,-1.0,-2.0,-2.0,0.0,6.0,8.0,2.0
1701873589.6912339,-4.0,-6.0,-1.0,0.0,-2.0,-8.0,-4.0,4.0
1701873589.6912339,-3.0,-8.0,-8.0,-6.0,-11.0,-11.0,-13.0,-13.0
1701873589.6912339,-1.0,9.0,10.0,0.0,0.0,0.0,1.0,0.0
1701873589.6912339,2.0,-1.0,-11.0,-1.0,-3.0,-5.0,-1.0,0.0
1701873589.6912339,-4.0,-8.0,-1.0,1.0,2.0,6.0,2.0,-1.0
1701873589.6912339,4.0,3.0,2.0,4.0,17.0,12.0,4.0,1.0
1701873589.6912339,3.0,14.0,4.0,-3.0,-6.0,-8.0,-6.0,-4.0
1701873589.7116702,-2.0,-2.0,-3.0,-5.0,-8.0,-9.0,-5.0,-2.0
1701873589.7116702,-5.0,6.0,9.0,6.0,0.0,1.0,2.0,0.0
1701873589.7116702,1.0,-21.0,-18.0,-12.0,-7.0,-6.0,0.0,2.0
1701873589.7116702,0.0,0.0,0.0,-2.0,-3.0,3.0,1.0,-5.0
1701873589.7312295,-4.0,2.0,5.0,5.0,8.0,3.0,-1.0,6.0
1701873589.7312295,4.0,6.0,-5.0,-3.0,-3.0,-2.0,-3.0,-5.0
1701873589.7312295,3.0,8.0,2.0,-3.0,-13.0,-9.0,-5.0,-2.0
1701873589.7312295,-2.0,-14.0,-4.0,0.0,5.0,0.0,3.0,1.0
1701873589.7516596,4.0,7.0,8.0,12.0,16.0,23.0,13.0,4.0
1701873589.7516596,-3.0,-3.0,-4.0,-2.0,-1.0,-4.0,5.0,2.0
1701873589.7516596,-7.0,-4.0,-1.0,-2.0,-13.0,-4.0,-8.0,-6.0
1701873589.7516596,3.0,-12.0,-13.0,-5.0,-7.0,-11.0,-7.0,4.0
1701873589.7716537,-2.0,-4.0,-1.0,-2.0,-1.0,3.0,0.0,-1.0
1701873589.7716537,-1.0,-7.0,0.0,1.0,2.0,-3.0,-6.0,-3.0
1701873589.7716537,-2.0,-1.0,-3.0,-1.0,-2.0,-4.0,0.0,0.0
1701873589.7716537,-5.0,13.0,5.0,-4.0,-10.0,-5.0,-2.0,-3.0
1701873589.7912302,-3.0,-18.0,-7.0,-1.0,-1.0,-8.0,-2.0,-4.0
1701873589.7912302,0.0,-10.0,-3.0,2.0,11.0,9.0,4.0,4.0
1701873589.7912302,-7.0,-5.0,-2.0,1.0,3.0,5.0,3.0,1.0
1701873589.7912302,11.0,39.0,5.0,1.0,0.0,-3.0,-4.0,-1.0
1701873589.8116515,-6.0,-20.0,-7.0,-6.0,-6.0,-11.0,-6.0,-5.0
1701873589.8116515,-6.0,-11.0,5.0,3.0,-3.0,3.0,2.0,-3.0
1701873589.8116515,-1.0,5.0,4.0,0.0,10.0,-1.0,-5.0,-2.0
1701873589.8116515,-1.0,-5.0,-7.0,-8.0,-5.0,0.0,-3.0,-2.0
1701873589.8316648,14.0,9.0,1.0,-4.0,-15.0,12.0,18.0,8.0
1701873589.8316648,-6.0,2.0,-1.0,3.0,6.0,0.0,0.0,-2.0
1701873589.8316648,7.0,5.0,7.0,5.0,7.0,14.0,12.0,8.0
1701873589.8316648,-3.0,-6.0,3.0,5.0,2.0,-2.0,-3.0,2.0
1701873589.8566487,-5.0,1.0,-1.0,-5.0,-2.0,-7.0,-8.0,-8.0
1701873589.8566487,-3.0,-6.0,-8.0,-3.0,-3.0,2.0,0.0,0.0
1701873589.8566487,10.0,13.0,9.0,0.0,-4.0,-10.0,-4.0,6.0
1701873589.8566487,-12.0,-27.0,-20.0,-3.0,-8.0,-1.0,1.0,-7.0
1701873589.8772213,1.0,24.0,15.0,5.0,1.0,2.0,-8.0,-4.0
1701873589.8772213,1.0,-25.0,-17.0,-9.0,1.0,-13.0,-15.0,3.0
1701873589.8772213,0.0,12.0,3.0,1.0,-1.0,2.0,5.0,-13.0
1701873589.8772213,4.0,-3.0,11.0,2.0,-6.0,-2.0,-3.0,0.0
1701873589.8874934,2.0,9.0,1.0,0.0,0.0,-6.0,-1.0,6.0
1701873589.8874934,-11.0,-1.0,-6.0,1.0,-6.0,1.0,0.0,-8.0
1701873589.897486,-6.0,1.0,-5.0,-5.0,-4.0,-1.0,-6.0,-7.0
1701873589.897486,1.0,-18.0,-7.0,5.0,17.0,2.0,0.0,-1.0
1701873589.927215,2.0,0.0,0.0,6.0,7.0,-4.0,-11.0,-2.0
1701873589.927215,12.0,13.0,9.0,2.0,4.0,13.0,8.0,3.0
1701873589.927215,-5.0,-9.0,-2.0,-2.0,-8.0,-10.0,-3.0,10.0
1701873589.927215,-5.0,0.0,-8.0,-12.0,-18.0,-3.0,-7.0,-18.0
1701873589.9374573,-13.0,-12.0,-1.0,-6.0,-3.0,-6.0,-9.0,-3.0
1701873589.9374573,-2.0,-5.0,-9.0,-4.0,10.0,17.0,21.0,0.0
1701873589.9374573,2.0,0.0,2.0,3.0,3.0,6.0,-1.0,1.0
1701873589.9374573,-2.0,-5.0,-4.0,0.0,4.0,-1.0,6.0,5.0
1701873589.9472206,2.0,1.0,-3.0,-4.0,-10.0,-5.0,0.0,-2.0
1701873589.9472206,5.0,25.0,15.0,-3.0,-12.0,-11.0,-14.0,-3.0
1701873589.9575024,-10.0,-37.0,-31.0,-3.0,8.0,-3.0,-3.0,-7.0
1701873589.9575024,-9.0,6.0,15.0,2.0,-3.0,-8.0,-7.0,3.0
1701873589.9675095,4.0,8.0,-1.0,3.0,2.0,6.0,3.0,-7.0
1701873589.9675095,-1.0,1.0,8.0,2.0,5.0,2.0,2.0,3.0
1701873589.9772198,-16.0,-28.0,-6.0,-4.0,-2.0,-8.0,-7.0,-7.0
1701873589.9772198,2.0,5.0,0.0,-3.0,-8.0,-7.0,-2.0,2.0
1701873589.9972463,-1.0,2.0,-2.0,2.0,0.0,3.0,5.0,1.0
1701873589.9972463,8.0,-4.0,-1.0,4.0,5.0,3.0,-4.0,1.0
1701873589.9972463,3.0,18.0,10.0,0.0,-6.0,-1.0,-2.0,1.0
1701873589.9972463,-7.0,-14.0,-6.0,-6.0,-3.0,-3.0,-1.0,-8.0
1701873590.0172155,-2.0,4.0,4.0,-5.0,-1.0,-4.0,1.0,4.0
1701873590.0172155,1.0,3.0,-8.0,-7.0,-14.0,-12.0,-9.0,0.0
1701873590.0172155,8.0,2.0,4.0,3.0,8.0,2.0,2.0,3.0
1701873590.0172155,-3.0,0.0,-3.0,1.0,-2.0,7.0,8.0,1.0
1701873590.0274706,0.0,4.0,-2.0,-1.0,5.0,6.0,3.0,-3.0
1701873590.0274706,-7.0,-8.0,-2.0,2.0,-2.0,-11.0,-7.0,-3.0
1701873590.03722,3.0,7.0,2.0,-2.0,-3.0,0.0,2.0,0.0
1701873590.03722,1.0,-8.0,-4.0,-2.0,4.0,4.0,6.0,3.0
1701873590.0575244,-1.0,1.0,3.0,2.0,-2.0,-2.0,-4.0,-3.0
1701873590.0575244,-8.0,-1.0,-2.0,-1.0,1.0,3.0,2.0,-2.0
1701873590.0575244,-6.0,-1.0,-2.0,-2.0,-8.0,-9.0,-7.0,-4.0
1701873590.0575244,6.0,-1.0,-2.0,2.0,-7.0,-5.0,-3.0,-1.0
1701873590.097214,-14.0,-27.0,-11.0,-8.0,-6.0,-3.0,-2.0,-3.0
1701873590.097214,14.0,53.0,4.0,-9.0,-15.0,-5.0,-1.0,1.0
1701873590.097214,12.0,38.0,20.0,12.0,7.0,1.0,2.0,3.0
1701873590.097214,-17.0,-46.0,-12.0,1.0,16.0,5.0,-2.0,-2.0
1701873590.097214,0.0,-2.0,-4.0,-8.0,-11.0,-8.0,-5.0,0.0
1701873590.097214,6.0,-6.0,4.0,5.0,2.0,4.0,-3.0,0.0
1701873590.097214,-24.0,-32.0,-17.0,-6.0,-1.0,5.0,4.0,-5.0
1701873590.097214,12.0,42.0,16.0,6.0,6.0,3.0,-3.0,-7.0
1701873590.1173093,1.0,5.0,2.0,3.0,2.0,-4.0,-5.0,-4.0
1701873590.1173093,-12.0,-20.0,-12.0,-11.0,-8.0,-7.0,1.0,0.0
1701873590.1173093,-1.0,0.0,7.0,0.0,-4.0,0.0,2.0,0.0
1701873590.1173093,1.0,0.0,4.0,4.0,-2.0,2.0,-4.0,2.0
1701873590.1272156,-3.0,-11.0,-14.0,-3.0,7.0,3.0,2.0,-2.0
1701873590.1272156,-4.0,10.0,1.0,0.0,-2.0,-2.0,-3.0,-4.0
1701873590.1373987,1.0,-5.0,-1.0,-1.0,0.0,3.0,2.0,3.0
1701873590.1373987,-1.0,5.0,-7.0,-13.0,-21.0,-16.0,-9.0,-2.0
1701873590.1474917,3.0,8.0,2.0,-4.0,-13.0,-12.0,-10.0,-3.0
1701873590.1474917,7.0,4.0,5.0,9.0,25.0,36.0,33.0,9.0
1701873590.1572201,8.0,-4.0,3.0,8.0,12.0,11.0,5.0,12.0
1701873590.1572201,-6.0,18.0,-3.0,-3.0,4.0,-7.0,-6.0,-8.0
1701873590.1972141,12.0,4.0,-5.0,-4.0,-9.0,-7.0,-5.0,2.0
1701873590.1972141,-16.0,-14.0,0.0,-2.0,-13.0,-16.0,-10.0,-6.0
1701873590.1972141,-3.0,-3.0,-7.0,-7.0,-5.0,-4.0,-9.0,-9.0
1701873590.1972141,8.0,4.0,-1.0,-2.0,-8.0,-3.0,3.0,6.0
1701873590.1972141,-11.0,-7.0,-6.0,-2.0,10.0,12.0,8.0,-1.0
1701873590.1972141,-6.0,-23.0,-4.0,-2.0,4.0,-1.0,-5.0,-5.0
1701873590.1972141,6.0,17.0,4.0,-1.0,-4.0,0.0,3.0,-1.0
1701873590.1972141,-4.0,-21.0,-3.0,0.0,-4.0,-7.0,-4.0,6.0
1701873590.207463,0.0,9.0,1.0,-2.0,2.0,-3.0,-3.0,-4.0
1701873590.207463,-2.0,-6.0,0.0,2.0,2.0,-7.0,-5.0,0.0
1701873590.2172205,-6.0,0.0,-5.0,-7.0,-6.0,-4.0,-9.0,-6.0
1701873590.2172205,0.0,-8.0,-4.0,-5.0,-15.0,-17.0,-13.0,-5.0
1701873590.2372198,1.0,-6.0,2.0,9.0,13.0,33.0,24.0,5.0
1701873590.2372198,14.0,31.0,9.0,7.0,14.0,3.0,0.0,5.0
1701873590.2372198,-11.0,-45.0,-18.0,-7.0,-9.0,-14.0,-8.0,-5.0
1701873590.2372198,3.0,20.0,5.0,-3.0,0.0,-4.0,-11.0,-5.0
1701873590.257218,-5.0,-10.0,-2.0,-4.0,-9.0,-8.0,-7.0,4.0
1701873590.257218,5.0,13.0,1.0,-7.0,-18.0,-8.0,-2.0,-1.0
1701873590.257218,-3.0,1.0,4.0,5.0,2.0,-1.0,-5.0,-5.0
1701873590.257218,7.0,-5.0,-1.0,4.0,22.0,20.0,22.0,18.0
1701873590.2774487,-15.0,-26.0,-4.0,-2.0,-4.0,-9.0,-20.0,-27.0
1701873590.2774487,7.0,33.0,18.0,5.0,3.0,3.0,0.0,1.0
1701873590.2774487,-7.0,-26.0,-17.0,-5.0,-8.0,-6.0,-3.0,0.0
1701873590.2774487,-22.0,-22.0,6.0,1.0,-7.0,-5.0,-4.0,-7.0
1701873590.3072166,15.0,24.0,7.0,2.0,8.0,2.0,2.0,9.0
1701873590.3072166,-2.0,-16.0,-7.0,-6.0,-6.0,-8.0,-5.0,-4.0
1701873590.3072166,5.0,16.0,7.0,-2.0,-9.0,-1.0,-2.0,-2.0
1701873590.3072166,6.0,13.0,3.0,7.0,11.0,2.0,-6.0,-5.0
1701873590.317215,6.0,-7.0,-1.0,1.0,13.0,23.0,20.0,22.0
1701873590.317215,-3.0,12.0,-7.0,-6.0,-9.0,-6.0,-4.0,-7.0
1701873590.317215,-2.0,9.0,0.0,-7.0,-12.0,-14.0,-6.0,-1.0
1701873590.317215,7.0,1.0,-3.0,2.0,1.0,10.0,11.0,2.0
1701873590.327477,-4.0,6.0,-3.0,-1.0,9.0,6.0,-1.0,2.0
1701873590.327477,-14.0,-25.0,-9.0,-2.0,-1.0,3.0,4.0,-10.0
1701873590.337219,5.0,-10.0,-3.0,-3.0,-2.0,-7.0,-4.0,3.0
1701873590.337219,-15.0,-2.0,0.0,-7.0,-19.0,-15.0,-9.0,-9.0
1701873590.3672163,-11.0,-5.0,1.0,1.0,-1.0,-2.0,-2.0,-13.0
1701873590.3672163,15.0,-17.0,-4.0,-2.0,9.0,4.0,2.0,25.0
1701873590.3672163,3.0,23.0,5.0,1.0,3.0,2.0,-6.0,-16.0
1701873590.3672163,5.0,8.0,5.0,8.0,11.0,3.0,1.0,3.0
1701873590.3803828,8.0,16.0,7.0,3.0,-6.0,1.0,3.0,3.0
1701873590.3803828,-24.0,-26.0,-13.0,-12.0,-11.0,-20.0,-16.0,-29.0
1701873590.3820846,5.0,8.0,2.0,3.0,6.0,11.0,6.0,10.0
1701873590.3820846,5.0,3.0,0.0,0.0,-3.0,0.0,8.0,4.0
1701873590.3951495,-1.0,-3.0,-5.0,-1.0,-10.0,-11.0,-8.0,-2.0
1701873590.3951495,2.0,3.0,6.0,4.0,7.0,15.0,9.0,1.0
1701873590.4097598,-2.0,-4.0,-1.0,-2.0,5.0,4.0,2.0,3.0
1701873590.4097598,2.0,4.0,-2.0,-4.0,-6.0,-12.0,-7.0,-4.0
1701873590.4097598,-5.0,-4.0,0.0,0.0,-11.0,-8.0,-5.0,-2.0
1701873590.4097598,6.0,-3.0,0.0,-3.0,-7.0,-12.0,-4.0,1.0
1701873590.4197671,2.0,6.0,1.0,4.0,4.0,7.0,7.0,2.0
1701873590.4197671,-7.0,-30.0,-10.0,-4.0,5.0,6.0,-6.0,5.0
1701873590.4399908,9.0,9.0,4.0,-2.0,-7.0,-14.0,-7.0,-5.0
1701873590.4399908,11.0,10.0,-18.0,-1.0,7.0,6.0,0.0,3.0
1701873590.4399908,-5.0,3.0,7.0,3.0,3.0,-1.0,-3.0,1.0
1701873590.4399908,2.0,8.0,1.0,-1.0,-1.0,1.0,2.0,5.0
1701873590.4499931,-5.0,-19.0,-11.0,-5.0,-12.0,-9.0,-8.0,-1.0
1701873590.4499931,7.0,21.0,7.0,1.0,-2.0,-3.0,-1.0,-3.0
1701873590.4797623,5.0,-12.0,-5.0,-1.0,-1.0,-1.0,0.0,6.0
1701873590.4797623,-3.0,-12.0,-11.0,-4.0,2.0,3.0,-4.0,-2.0
1701873590.4797623,-1.0,0.0,1.0,-2.0,1.0,4.0,5.0,-8.0
1701873590.4797623,-4.0,12.0,0.0,2.0,-3.0,4.0,1.0,3.0
1701873590.4797623,-4.0,0.0,-1.0,-6.0,-9.0,-5.0,2.0,1.0
1701873590.4797623,6.0,-19.0,-6.0,-1.0,1.0,-3.0,-6.0,3.0
1701873590.5000155,-11.0,-6.0,-4.0,-2.0,4.0,-4.0,-12.0,-5.0
1701873590.5000155,-3.0,-13.0,-2.0,2.0,3.0,1.0,7.0,-2.0
1701873590.5000155,2.0,8.0,2.0,0.0,2.0,1.0,0.0,4.0
1701873590.5000155,-17.0,-29.0,-4.0,-2.0,1.0,3.0,-1.0,-3.0
1701873590.510006,4.0,7.0,0.0,2.0,-3.0,-8.0,0.0,2.0
1701873590.510006,-15.0,-24.0,-2.0,-1.0,3.0,1.0,-8.0,-3.0
1701873590.539762,-5.0,-17.0,-19.0,-11.0,-5.0,-4.0,-5.0,-10.0
1701873590.539762,3.0,31.0,12.0,-1.0,-12.0,-9.0,0.0,-1.0
1701873590.539762,5.0,1.0,-2.0,-4.0,-4.0,1.0,1.0,12.0
