1701873443.1107624,6.0,-7.0,4.0,-2.0,11.0,11.0,2.0,-1.0
1701873443.1107624,-8.0,0.0,1.0,11.0,12.0,7.0,-3.0,2.0
1701873443.1107624,3.0,14.0,1.0,-7.0,-9.0,-7.0,-8.0,-2.0
1701873443.1107624,-1.0,6.0,16.0,1.0,-9.0,-4.0,6.0,-4.0
1701873443.1207623,0.0,5.0,1.0,8.0,0.0,-6.0,-1.0,7.0
1701873443.1207623,9.0,-18.0,-15.0,-4.0,4.0,11.0,0.0,4.0
1701873443.140723,28.0,69.0,-1.0,-3.0,-1.0,-2.0,-4.0,2.0
1701873443.140723,-35.0,-54.0,1.0,-1.0,-4.0,-2.0,2.0,-17.0
1701873443.140723,6.0,22.0,26.0,12.0,8.0,3.0,2.0,16.0
1701873443.140723,22.0,4.0,-10.0,-11.0,-4.0,-9.0,-5.0,3.0
1701873443.140723,26.0,31.0,22.0,12.0,5.0,11.0,15.0,10.0
1701873443.140723,-28.0,-56.0,-55.0,-18.0,-11.0,-8.0,-9.0,-11.0
1701873443.1707246,-6.0,9.0,-4.0,-8.0,-2.0,-1.0,-3.0,-2.0
1701873443.1707246,4.0,26.0,25.0,15.0,9.0,3.0,-5.0,-1.0
1701873443.1707246,-25.0,-62.0,-31.0,-8.0,-6.0,2.0,8.0,-6.0
1701873443.1707246,16.0,11.0,-24.0,-23.0,-8.0,-9.0,-8.0,-5.0
1701873443.1807227,-4.0,-6.0,16.0,7.0,0.0,8.0,4.0,-7.0
1701873443.1807227,-2.0,-3.0,-2.0,-2.0,-3.0,-6.0,-4.0,3.0
1701873443.1909664,-9.0,-10.0,8.0,4.0,0.0,-2.0,-1.0,-6.0
1701873443.1909664,5.0,4.0,-9.0,-2.0,-5.0,-4.0,3.0,5.0
1701873443.201018,-15.0,4.0,1.0,-6.0,0.0,-2.0,-4.0,-7.0
1701873443.201018,-2.0,7.0,9.0,7.0,7.0,1.0,-3.0,-7.0
1701873443.201018,1.0,-19.0,-10.0,-1.0,8.0,1.0,-1.0,6.0
1701873443.201018,15.0,28.0,14.0,12.0,6.0,2.0,4.0,4.0
1701873443.2307246,-3.0,-8.0,-6.0,-14.0,-8.0,-4.0,-7.0,-5.0
1701873443.2307246,-2.0,-5.0,0.0,-7.0,-3.0,-3.0,1.0,0.0
1701873443.2307246,-6.0,-13.0,15.0,9.0,-3.0,-4.0,-2.0,-3.0
1701873443.2307246,2.0,8.0,-28.0,-9.0,-3.0,-1.0,1.0,2.0
1701873443.2507236,11.0,3.0,-9.0,-4.0,-5.0,-7.0,-3.0,-4.0
1701873443.2507236,-9.0,10.0,-2.0,4.0,-4.0,-1.0,0.0,-2.0
1701873443.2507236,-3.0,13.0,0.0,-10.0,4.0,5.0,4.0,4.0
1701873443.2507236,5.0,12.0,31.0,23.0,14.0,10.0,3.0,-1.0
1701873443.2608829,-3.0,-13.0,-9.0,-16.0,-14.0,-14.0,-7.0,10.0
1701873443.2608829,-5.0,-16.0,-5.0,6.0,-2.0,-4.0,-10.0,-25.0
1701873443.2608829,17.0,35.0,-5.0,-13.0,-6.0,-5.0,0.0,7.0
1701873443.2608829,2.0,6.0,-3.0,-2.0,3.0,4.0,5.0,2.0
1701873443.3007221,-11.0,-14.0,5.0,10.0,-1.0,-3.0,-2.0,-4.0
1701873443.3007221,-1.0,-1.0,12.0,4.0,3.0,-2.0,-1.0,4.0
1701873443.3007221,-6.0,-17.0,-23.0,-14.0,0.0,-3.0,-4.0,-2.0
1701873443.3007221,-2.0,-6.0,-2.0,-4.0,-2.0,0.0,-2.0,-7.0
1701873443.3007221,17.0,17.0,6.0,3.0,8.0,6.0,3.0,12.0
1701873443.3007221,-10.0,-1.0,-13.0,-9.0,-10.0,-7.0,-3.0,-6.0
1701873443.3108928,-1.0,-15.0,-5.0,7.0,-6.0,-5.0,-5.0,-3.0
1701873443.3108928,2.0,5.0,7.0,-7.0,-3.0,-1.0,3.0,4.0
1701873443.3307264,-3.0,-6.0,3.0,12.0,4.0,1.0,-10.0,-13.0
1701873443.3307264,2.0,-2.0,-9.0,-10.0,0.0,1.0,7.0,9.0
1701873443.3307264,-12.0,-17.0,-10.0,1.0,-2.0,-6.0,-1.0,1.0
1701873443.3307264,4.0,-1.0,-1.0,-6.0,-4.0,-1.0,-1.0,-3.0
1701873443.3507278,-5.0,6.0,8.0,4.0,1.0,0.0,0.0,-4.0
1701873443.3507278,-7.0,-13.0,6.0,4.0,7.0,3.0,0.0,-4.0
1701873443.3507278,-3.0,-2.0,-25.0,-17.0,-7.0,-1.0,2.0,-1.0
1701873443.3507278,2.0,-10.0,22.0,18.0,-4.0,-4.0,-7.0,0.0
1701873443.3707268,-10.0,-3.0,-10.0,-8.0,-3.0,1.0,-4.0,-9.0
1701873443.3707268,-4.0,-5.0,-11.0,-7.0,-1.0,-2.0,5.0,2.0
1701873443.3707268,11.0,1.0,14.0,8.0,0.0,3.0,0.0,13.0
1701873443.3707268,-14.0,0.0,-2.0,0.0,3.0,1.0,-6.0,-11.0
1701873443.3807502,-3.0,0.0,-3.0,-7.0,-3.0,-4.0,-1.0,-6.0
1701873443.3807502,0.0,2.0,4.0,4.0,-1.0,-4.0,-7.0,-1.0
1701873443.3807502,-6.0,-17.0,0.0,-1.0,-1.0,1.0,-3.0,-7.0
1701873443.3807502,4.0,-4.0,-23.0,-8.0,-2.0,1.0,2.0,3.0
1701873443.410722,-2.0,0.0,8.0,2.0,3.0,1.0,-2.0,2.0
1701873443.410722,10.0,26.0,-4.0,-7.0,-6.0,-3.0,1.0,2.0
1701873443.410722,2.0,-3.0,4.0,0.0,2.0,3.0,0.0,-2.0
1701873443.410722,1.0,4.0,10.0,12.0,0.0,2.0,1.0,3.0
1701873443.421059,4.0,6.0,1.0,2.0,2.0,0.0,0.0,2.0
1701873443.421059,-13.0,-12.0,-7.0,-3.0,-2.0,-4.0,1.0,-4.0
1701873443.431055,-5.0,-3.0,2.0,-1.0,-5.0,-7.0,-6.0,-5.0
1701873443.431055,3.0,-1.0,5.0,1.0,-3.0,-3.0,-1.0,1.0
1701873443.4410691,3.0,20.0,6.0,6.0,6.0,2.0,4.0,-4.0
1701873443.4410691,9.0,8.0,5.0,3.0,5.0,5.0,4.0,8.0
1701873443.4410691,2.0,-1.0,-5.0,1.0,-1.0,-3.0,-6.0,4.0
1701873443.4410691,-10.0,-17.0,-28.0,-26.0,-9.0,-8.0,-9.0,-22.0
1701873443.4707553,5.0,-3.0,4.0,4.0,-4.0,-1.0,3.0,5.0
1701873443.4707553,-5.0,-10.0,1.0,3.0,-2.0,-1.0,-3.0,-3.0
1701873443.4707553,8.0,10.0,0.0,-3.0,-1.0,-2.0,3.0,3.0
1701873443.4707553,2.0,4.0,12.0,9.0,6.0,4.0,0.0,6.0
1701873443.4909818,-6.0,-2.0,-12.0,-8.0,-2.0,-1.0,0.0,-5.0
1701873443.4909818,0.0,-3.0,0.0,-1.0,-2.0,-1.0,-1.0,0.0
1701873443.4909818,-3.0,-1.0,5.0,1.0,-3.0,2.0,-1.0,-3.0
1701873443.4909818,8.0,30.0,18.0,13.0,5.0,1.0,1.0,1.0
1701873443.5009437,-6.0,-6.0,-8.0,7.0,3.0,0.0,1.0,-3.0
1701873443.5009437,-6.0,-15.0,-29.0,-23.0,-7.0,-3.0,-3.0,-5.0
1701873443.5009437,1.0,-1.0,6.0,-2.0,-2.0,-6.0,-3.0,1.0
1701873443.5009437,0.0,4.0,17.0,1.0,-4.0,-3.0,2.0,1.0
1701873443.5307581,7.0,3.0,4.0,1.0,-8.0,-7.0,-6.0,-2.0
1701873443.5307581,4.0,2.0,-6.0,4.0,-2.0,3.0,-3.0,0.0
1701873443.5307581,-37.0,-9.0,7.0,3.0,6.0,3.0,-5.0,-11.0
1701873443.5307581,-5.0,-6.0,3.0,4.0,4.0,6.0,12.0,2.0
1701873443.5507333,6.0,-2.0,-6.0,-6.0,-2.0,-5.0,-5.0,1.0
1701873443.5507333,-4.0,6.0,4.0,2.0,-2.0,-3.0,-1.0,2.0
1701873443.5507333,8.0,-6.0,-4.0,0.0,-1.0,0.0,-1.0,-5.0
1701873443.5507333,-7.0,-14.0,-16.0,-8.0,-5.0,-6.0,-4.0,6.0
1701873443.5938923,-7.0,-19.0,-24.0,-10.0,-5.0,-2.0,2.0,-4.0
1701873443.5938923,-4.0,-5.0,13.0,1.0,-1.0,-1.0,-3.0,1.0
1701873443.5938923,7.0,9.0,-11.0,-6.0,0.0,1.0,2.0,1.0
1701873443.5938923,1.0,-2.0,-10.0,-2.0,3.0,2.0,5.0,4.0
1701873443.5938923,-1.0,1.0,6.0,0.0,0.0,6.0,0.0,-6.0
1701873443.5938923,0.0,-9.0,-20.0,-9.0,-2.0,-6.0,-7.0,-1.0
1701873443.5938923,5.0,21.0,22.0,10.0,-4.0,-2.0,1.0,1.0
1701873443.5938923,1.0,-12.0,0.0,1.0,-8.0,-4.0,-1.0,1.0
1701873443.613884,3.0,-8.0,4.0,-2.0,5.0,4.0,4.0,5.0
1701873443.613884,-9.0,-1.0,8.0,7.0,9.0,7.0,2.0,-9.0
1701873443.613884,-22.0,-46.0,-41.0,-24.0,-15.0,-16.0,-9.0,-13.0
1701873443.613884,7.0,8.0,13.0,3.0,-2.0,-3.0,-4.0,2.0
1701873443.6336915,-6.0,0.0,3.0,-4.0,1.0,-2.0,-3.0,-4.0
1701873443.6336915,21.0,22.0,-1.0,3.0,0.0,-5.0,-6.0,2.0
1701873443.6336915,10.0,2.0,-2.0,-4.0,4.0,10.0,10.0,6.0
1701873443.6336915,5.0,5.0,5.0,2.0,0.0,0.0,-5.0,-3.0
1701873443.6440299,-7.0,-3.0,0.0,3.0,0.0,-7.0,-11.0,-5.0
1701873443.6440299,-12.0,-8.0,0.0,-6.0,-2.0,-2.0,4.0,-4.0
1701873443.6440299,0.0,5.0,-2.0,2.0,-2.0,1.0,1.0,-4.0
1701873443.6440299,2.0,-1.0,1.0,-2.0,-5.0,-5.0,-8.0,-3.0
1701873443.6739,-2.0,-12.0,-8.0,-4.0,-2.0,2.0,-2.0,-5.0
1701873443.6739,1.0,-1.0,-5.0,-4.0,0.0,1.0,2.0,6.0
1701873443.6739,-1.0,-5.0,4.0,2.0,-6.0,-9.0,-8.0,-1.0
1701873443.6739,-2.0,7.0,2.0,-1.0,3.0,0.0,-5.0,1.0
1701873443.693694,-5.0,0.0,1.0,4.0,5.0,2.0,2.0,0.0
1701873443.693694,-7.0,-12.0,-3.0,-1.0,0.0,-1.0,0.0,-2.0
1701873443.693694,12.0,55.0,23.0,9.0,5.0,2.0,4.0,7.0
1701873443.693694,-11.0,-18.0,-25.0,-17.0,-7.0,-5.0,-3.0,-9.0
1701873443.7040262,-16.0,-10.0,-5.0,2.0,-8.0,-7.0,-5.0,0.0
1701873443.7040262,12.0,33.0,37.0,4.0,2.0,7.0,6.0,-3.0
1701873443.7040262,-22.0,-59.0,-79.0,-29.0,-8.0,-8.0,-11.0,-9.0
1701873443.7040262,9.0,25.0,17.0,0.0,0.0,-4.0,-4.0,3.0
1701873443.7337952,-2.0,-4.0,7.0,6.0,-1.0,4.0,12.0,2.0
1701873443.7337952,-3.0,0.0,6.0,7.0,4.0,9.0,7.0,2.0
1701873443.7337952,11.0,1.0,9.0,6.0,1.0,-3.0,-6.0,2.0
1701873443.7337952,-12.0,-15.0,-14.0,-5.0,-5.0,-2.0,-11.0,-20.0
1701873443.7536914,4.0,7.0,-6.0,-9.0,-6.0,-6.0,-4.0,6.0
1701873443.7536914,3.0,-9.0,3.0,4.0,-8.0,-6.0,-4.0,4.0
1701873443.7536914,-2.0,3.0,12.0,4.0,6.0,3.0,3.0,-7.0
1701873443.7536914,-4.0,-13.0,-6.0,11.0,14.0,7.0,5.0,6.0
1701873443.7640228,7.0,11.0,24.0,10.0,-1.0,-1.0,0.0,-1.0
1701873443.7640228,-1.0,5.0,-29.0,-23.0,-13.0,-8.0,-6.0,-6.0
1701873443.7640228,1.0,2.0,-3.0,2.0,1.0,6.0,2.0,2.0
1701873443.7640228,2.0,-1.0,27.0,5.0,4.0,0.0,4.0,3.0
1701873443.7936943,4.0,3.0,8.0,6.0,5.0,5.0,1.0,4.0
1701873443.7936943,-16.0,-29.0,9.0,6.0,-14.0,-15.0,-10.0,-7.0
1701873443.7936943,-4.0,-10.0,-19.0,-13.0,-6.0,-2.0,-3.0,-4.0
1701873443.7936943,-5.0,12.0,-1.0,4.0,1.0,6.0,4.0,10.0
1701873443.8037286,3.0,-1.0,-16.0,-16.0,-5.0,-5.0,-2.0,-9.0
1701873443.8037286,-12.0,3.0,-7.0,0.0,5.0,1.0,0.0,1.0
1701873443.8037286,17.0,18.0,38.0,19.0,5.0,3.0,6.0,6.0
1701873443.8037286,-18.0,-18.0,-27.0,-15.0,-4.0,-3.0,-3.0,-16.0
1701873443.824049,2.0,-3.0,-2.0,-2.0,-2.0,-1.0,1.0,6.0
1701873443.824049,9.0,1.0,-3.0,-2.0,2.0,2.0,4.0,8.0
1701873443.824049,1.0,4.0,14.0,10.0,5.0,0.0,-2.0,-6.0
1701873443.824049,6.0,0.0,-4.0,-3.0,-4.0,-2.0,0.0,3.0
1701873443.853693,-5.0,-3.0,-3.0,-1.0,-2.0,-1.0,3.0,2.0
1701873443.853693,4.0,-2.0,-2.0,1.0,6.0,3.0,-2.0,-4.0
1701873443.853693,2.0,0.0,-3.0,-3.0,1.0,4.0,7.0,10.0
1701873443.853693,1.0,2.0,3.0,-2.0,-7.0,-5.0,-10.0,-7.0
1701873443.863691,-12.0,-7.0,-1.0,-2.0,-5.0,-2.0,1.0,-3.0
1701873443.863691,9.0,1.0,-1.0,3.0,5.0,4.0,1.0,3.0
1701873443.8740177,-3.0,2.0,4.0,1.0,-2.0,-4.0,-3.0,-1.0
1701873443.8740177,-1.0,6.0,-1.0,0.0,-2.0,0.0,2.0,2.0
1701873443.884046,0.0,-7.0,-12.0,-13.0,-2.0,-2.0,-5.0,2.0
1701873443.884046,-6.0,-8.0,-10.0,-5.0,-3.0,-4.0,-7.0,-6.0
1701873443.884046,-4.0,1.0,11.0,0.0,-1.0,-2.0,0.0,-3.0
1701873443.884046,5.0,4.0,11.0,11.0,4.0,2.0,2.0,3.0
1701873443.9136932,-1.0,4.0,-5.0,-3.0,3.0,2.0,-2.0,-6.0
1701873443.9136932,2.0,-2.0,-3.0,0.0,-5.0,-5.0,0.0,3.0
1701873443.9136932,-2.0,-1.0,-3.0,-2.0,-7.0,-1.0,-4.0,-3.0
1701873443.9136932,-5.0,23.0,4.0,-1.0,-3.0,2.0,5.0,-1.0
1701873443.9237251,2.0,5.0,0.0,3.0,-3.0,-2.0,-3.0,-3.0
1701873443.9237251,2.0,5.0,12.0,9.0,7.0,4.0,2.0,2.0
1701873443.9340298,-4.0,-17.0,-34.0,-14.0,6.0,1.0,-4.0,-4.0
1701873443.9340298,-1.0,-22.0,-7.0,-10.0,-3.0,-3.0,-1.0,3.0
1701873443.9440374,1.0,0.0,3.0,0.0,-8.0,-5.0,-1.0,0.0
1701873443.9440374,-4.0,0.0,-1.0,-5.0,-8.0,-2.0,-3.0,1.0
1701873443.9440374,7.0,4.0,11.0,6.0,1.0,1.0,4.0,4.0
1701873443.9440374,-9.0,-33.0,-14.0,-1.0,5.0,-2.0,-8.0,-4.0
1701873443.9736934,2.0,3.0,-5.0,-6.0,6.0,2.0,4.0,0.0
1701873443.9736934,10.0,-5.0,1.0,6.0,0.0,6.0,4.0,2.0
1701873443.9736934,1.0,0.0,5.0,4.0,-6.0,-4.0,-3.0,3.0
1701873443.9736934,2.0,0.0,3.0,-10.0,-3.0,-2.0,0.0,0.0
1701873443.9837255,4.0,3.0,-15.0,0.0,0.0,-3.0,-2.0,8.0
1701873443.9837255,-8.0,-6.0,-3.0,-6.0,-4.0,-4.0,-2.0,-4.0
1701873443.9940221,-9.0,-5.0,5.0,-1.0,-4.0,-1.0,1.0,-4.0
1701873443.9940221,4.0,12.0,14.0,9.0,2.0,3.0,1.0,-1.0
1701873444.0036926,0.0,8.0,3.0,2.0,8.0,8.0,1.0,-5.0
1701873444.0036926,-1.0,4.0,3.0,8.0,3.0,-1.0,-1.0,2.0
1701873444.0036926,1.0,4.0,1.0,-3.0,-5.0,-5.0,-3.0,-2.0
1701873444.0036926,-4.0,-2.0,-9.0,-5.0,-10.0,-7.0,-4.0,-5.0
1701873444.0336914,0.0,-1.0,1.0,-4.0,3.0,2.0,8.0,6.0
1701873444.0336914,-5.0,-11.0,-19.0,-9.0,2.0,1.0,-7.0,-12.0
1701873444.0336914,2.0,7.0,20.0,7.0,-3.0,-5.0,-6.0,1.0
1701873444.0336914,6.0,6.0,-10.0,5.0,-1.0,0.0,4.0,1.0
1701873444.0440528,0.0,-8.0,-4.0,-7.0,-3.0,0.0,4.0,1.0
1701873444.0440528,-12.0,24.0,16.0,2.0,-2.0,-6.0,-9.0,-3.0
1701873444.0540233,-4.0,-2.0,-1.0,-1.0,0.0,1.0,-1.0,-12.0
1701873444.0540233,5.0,7.0,-3.0,-3.0,1.0,2.0,-5.0,1.0
1701873444.064038,-4.0,7.0,9.0,8.0,3.0,5.0,7.0,6.0
1701873444.064038,-1.0,-8.0,-10.0,-4.0,0.0,-2.0,1.0,-8.0
1701873444.064038,0.0,-2.0,-1.0,-2.0,-1.0,-2.0,1.0,3.0
1701873444.064038,-2.0,1.0,0.0,-4.0,-2.0,-2.0,-2.0,0.0
1701873444.0937605,-2.0,-3.0,6.0,6.0,2.0,-3.0,-8.0,-8.0
1701873444.0937605,1.0,-7.0,1.0,-11.0,-6.0,-5.0,-1.0,1.0
1701873444.0937605,2.0,-1.0,-8.0,-7.0,-4.0,-1.0,-1.0,2.0
1701873444.0937605,-6.0,-4.0,-1.0,2.0,-3.0,-3.0,0.0,-8.0
1701873444.1074882,-3.0,-2.0,5.0,8.0,4.0,0.0,-5.0,-1.0
1701873444.108512,8.0,-3.0,-15.0,-7.0,-1.0,0.0,1.0,6.0
1701873444.1167965,4.0,5.0,-5.0,-5.0,-3.0,0.0,0.0,-2.0
1701873444.1167965,4.0,8.0,3.0,-4.0,-2.0,0.0,4.0,5.0
1701873444.1308289,0.0,5.0,4.0,0.0,-3.0,0.0,-2.0,-5.0
1701873444.1308289,0.0,5.0,3.0,5.0,7.0,2.0,0.0,4.0
1701873444.1327853,-2.0,-5.0,-2.0,1.0,3.0,0.0,-1.0,-2.0
1701873444.1327853,0.0,-5.0,-6.0,-9.0,-8.0,-2.0,-2.0,-4.0
1701873444.1463044,-1.0,0.0,-2.0,0.0,-8.0,-10.0,-8.0,-4.0
1701873444.1463044,-3.0,-12.0,1.0,2.0,2.0,4.0,-5.0,1.0
1701873444.1463044,-3.0,3.0,3.0,1.0,5.0,7.0,6.0,-5.0
1701873444.1463044,10.0,22.0,-1.0,5.0,6.0,0.0,3.0,6.0
1701873444.1666963,-7.0,-1.0,-6.0,-8.0,-8.0,-2.0,-4.0,-3.0
1701873444.1666963,0.0,-4.0,-4.0,0.0,-2.0,-2.0,-1.0,-2.0
1701873444.176306,-7.0,-4.0,13.0,7.0,-5.0,-8.0,-6.0,-1.0
1701873444.176306,-4.0,-5.0,-5.0,-4.0,2.0,-1.0,-4.0,-2.0
1701873444.1867216,1.0,-5.0,-11.0,-9.0,-1.0,1.0,-2.0,-1.0
1701873444.1867216,3.0,7.0,3.0,1.0,0.0,1.0,4.0,5.0
1701873444.1867216,-15.0,5.0,21.0,14.0,5.0,3.0,-2.0,-7.0
1701873444.1867216,0.0,-7.0,-10.0,-3.0,0.0,-3.0,-1.0,1.0
1701873444.206337,2.0,-5.0,-2.0,-2.0,0.0,0.0,2.0,0.0
1701873444.206337,-7.0,-5.0,-4.0,-7.0,-7.0,-5.0,-1.0,-2.0
1701873444.2163095,3.0,-4.0,-10.0,-4.0,-5.0,-4.0,-3.0,1.0
1701873444.2163095,-5.0,-5.0,11.0,7.0,1.0,-2.0,-11.0,-3.0
1701873444.2266123,3.0,6.0,-1.0,-5.0,-4.0,0.0,5.0,3.0
1701873444.2266123,-8.0,-23.0,-11.0,1.0,1.0,4.0,0.0,-9.0
1701873444.23631,-1.0,13.0,-19.0,-13.0,-2.0,3.0,8.0,3.0
1701873444.23631,4.0,-13.0,0.0,0.0,1.0,1.0,-5.0,-11.0
1701873444.256305,5.0,9.0,-2.0,-2.0,-3.0,-6.0,-4.0,8.0
1701873444.256305,0.0,2.0,7.0,3.0,-4.0,-5.0,-5.0,1.0
1701873444.256305,2.0,-7.0,-4.0,-1.0,-2.0,-13.0,-29.0,-4.0
1701873444.256305,0.0,19.0,12.0,-1.0,1.0,4.0,17.0,0.0
1701873444.2663395,-7.0,-28.0,-19.0,-2.0,-2.0,2.0,3.0,-3.0
1701873444.2663395,-4.0,-13.0,-8.0,-7.0,-5.0,-10.0,-13.0,-3.0
1701873444.2663395,2.0,-6.0,-4.0,-3.0,-2.0,-3.0,-6.0,3.0
1701873444.2663395,-4.0,3.0,-3.0,-2.0,-2.0,4.0,12.0,-2.0
1701873444.286717,6.0,7.0,6.0,1.0,0.0,4.0,-2.0,0.0
1701873444.286717,-8.0,4.0,6.0,4.0,0.0,-1.0,7.0,0.0
1701873444.2963054,-4.0,-6.0,5.0,0.0,-2.0,-3.0,-9.0,-3.0
1701873444.2963054,-3.0,-7.0,-3.0,-4.0,-7.0,-11.0,-14.0,-3.0
1701873444.306304,3.0,17.0,17.0,5.0,0.0,0.0,3.0,-3.0
1701873444.306304,5.0,-4.0,-34.0,-18.0,1.0,6.0,1.0,2.0
1701873444.306304,-1.0,-3.0,13.0,5.0,4.0,4.0,6.0,-1.0
1701873444.306304,-3.0,-5.0,-9.0,1.0,0.0,2.0,3.0,3.0
1701873444.3267255,-6.0,-10.0,-5.0,3.0,3.0,-2.0,-5.0,-5.0
1701873444.3267255,4.0,10.0,20.0,7.0,0.0,-11.0,-15.0,-5.0
1701873444.3267255,1.0,-7.0,-26.0,-14.0,-1.0,12.0,33.0,5.0
1701873444.3267255,0.0,-7.0,-6.0,-5.0,-2.0,1.0,-5.0,-1.0
1701873444.3463066,-2.0,0.0,8.0,5.0,-8.0,-9.0,-9.0,-1.0
1701873444.3463066,2.0,0.0,0.0,-8.0,-9.0,-7.0,-3.0,0.0
1701873444.3563063,-3.0,10.0,12.0,14.0,11.0,8.0,2.0,0.0
1701873444.3563063,-9.0,-6.0,-1.0,4.0,13.0,7.0,1.0,2.0
1701873444.3663034,-2.0,0.0,-4.0,2.0,1.0,-5.0,-6.0,-5.0
1701873444.3663034,3.0,3.0,-6.0,-11.0,-2.0,-1.0,2.0,-3.0
1701873444.3663034,-12.0,-1.0,6.0,-2.0,-5.0,-1.0,1.0,-5.0
1701873444.3663034,11.0,10.0,3.0,-2.0,-6.0,-4.0,-3.0,9.0
1701873444.3867233,-4.0,0.0,11.0,1.0,0.0,-3.0,-4.0,0.0
1701873444.3867233,3.0,0.0,-19.0,-4.0,-8.0,0.0,7.0,3.0
1701873444.3966413,2.0,15.0,18.0,9.0,1.0,1.0,-5.0,-4.0
1701873444.3966413,-6.0,-9.0,-11.0,-3.0,-2.0,-1.0,-3.0,-9.0
1701873444.416303,2.0,1.0,5.0,-1.0,2.0,-1.0,5.0,1.0
1701873444.416303,2.0,4.0,5.0,11.0,7.0,3.0,4.0,7.0
1701873444.416303,12.0,-3.0,-10.0,-7.0,-1.0,-2.0,-2.0,7.0
1701873444.416303,-8.0,-5.0,3.0,-2.0,-4.0,-3.0,0.0,-4.0
1701873444.426561,6.0,4.0,-4.0,2.0,-2.0,-1.0,0.0,0.0
1701873444.426561,1.0,3.0,2.0,-1.0,4.0,3.0,1.0,-4.0
1701873444.426561,-3.0,-2.0,-5.0,-3.0,-2.0,-3.0,-2.0,-1.0
1701873444.426561,4.0,4.0,6.0,-1.0,-2.0,-1.0,-2.0,3.0
1701873444.4563096,-5.0,-12.0,-9.0,-6.0,3.0,1.0,-4.0,-4.0
1701873444.4563096,-8.0,-3.0,9.0,7.0,2.0,3.0,-1.0,-8.0
1701873444.4563096,-1.0,-8.0,-20.0,-17.0,-9.0,-7.0,-2.0,-2.0
1701873444.4563096,5.0,3.0,-4.0,-1.0,-2.0,3.0,6.0,10.0
1701873444.4863043,-19.0,-14.0,-22.0,-13.0,-5.0,-5.0,-11.0,-24.0
1701873444.4863043,-1.0,4.0,36.0,14.0,3.0,3.0,3.0,2.0
1701873444.4863043,2.0,3.0,-9.0,-4.0,3.0,-3.0,-7.0,-1.0
1701873444.4863043,-4.0,-12.0,-5.0,-3.0,-4.0,-1.0,5.0,-2.0
1701873444.4863043,-4.0,-16.0,-8.0,-1.0,-1.0,1.0,-2.0,2.0
1701873444.4863043,-1.0,3.0,-9.0,-8.0,-3.0,-6.0,-10.0,-1.0
1701873444.4863043,1.0,-6.0,7.0,5.0,0.0,3.0,10.0,-9.0
1701873444.4863043,0.0,8.0,6.0,0.0,1.0,-6.0,-11.0,7.0
1701873444.5063584,-5.0,-10.0,-11.0,-2.0,0.0,3.0,2.0,-7.0
1701873444.5063584,2.0,0.0,-3.0,-5.0,-3.0,-4.0,-2.0,2.0
1701873444.5063584,-4.0,-3.0,-4.0,-1.0,-2.0,-4.0,-4.0,-1.0
1701873444.5063584,2.0,0.0,2.0,1.0,1.0,-1.0,0.0,-3.0
1701873444.5263076,5.0,11.0,6.0,-5.0,2.0,-1.0,2.0,2.0
1701873444.5263076,-4.0,-4.0,-7.0,0.0,0.0,0.0,1.0,-2.0
1701873444.536305,2.0,0.0,6.0,2.0,-5.0,-4.0,0.0,0.0
1701873444.536305,6.0,-14.0,-21.0,-12.0,-5.0,-6.0,-8.0,-6.0
1701873444.5466206,-14.0,10.0,19.0,4.0,-1.0,-7.0,-13.0,0.0
1701873444.5466206,1.0,-3.0,-13.0,-9.0,-4.0,3.0,10.0,-4.0
1701873444.5566137,3.0,1.0,9.0,8.0,11.0,26.0,30.0,12.0
1701873444.5566137,2.0,2.0,0.0,3.0,8.0,1.0,-8.0,1.0
1701873444.5666368,8.0,2.0,11.0,4.0,-5.0,6.0,20.0,6.0
1701873444.5666368,-3.0,-3.0,-6.0,-4.0,-7.0,-17.0,-24.0,-9.0
1701873444.5666368,-12.0,-7.0,-7.0,-6.0,-4.0,5.0,7.0,-11.0
1701873444.5666368,9.0,1.0,1.0,-3.0,-3.0,3.0,5.0,14.0
1701873444.5963025,-3.0,23.0,4.0,4.0,3.0,3.0,-1.0,-5.0
1701873444.5963025,-2.0,-1.0,20.0,7.0,-3.0,-7.0,-3.0,-3.0
1701873444.5963025,-6.0,-37.0,-26.0,-15.0,-6.0,-10.0,-11.0,-1.0
1701873444.5963025,-6.0,9.0,4.0,5.0,2.0,1.0,1.0,-4.0
1701873444.606582,1.0,0.0,0.0,-3.0,-4.0,-6.0,-8.0,-2.0
1701873444.606582,5.0,-3.0,-10.0,-5.0,0.0,6.0,7.0,3.0
1701873444.6165671,2.0,8.0,-1.0,-1.0,-1.0,-6.0,-11.0,-10.0
1701873444.6165671,-4.0,-4.0,6.0,3.0,-1.0,-3.0,-2.0,-1.0
1701873444.6593702,-13.0,-5.0,-3.0,-2.0,0.0,-6.0,-22.0,-2.0
1701873444.6593702,-12.0,-2.0,-1.0,3.0,1.0,5.0,20.0,2.0
1701873444.6593702,4.0,7.0,16.0,11.0,0.0,0.0,3.0,-10.0
1701873444.6593702,-4.0,3.0,-25.0,-13.0,-4.0,-3.0,4.0,1.0
1701873444.6593702,4.0,-8.0,-4.0,-4.0,-3.0,16.0,16.0,2.0
1701873444.6593702,3.0,3.0,3.0,4.0,3.0,-2.0,-12.0,8.0
1701873444.6593702,-3.0,-4.0,1.0,-3.0,5.0,-6.0,-13.0,2.0
1701873444.6593702,-10.0,0.0,17.0,11.0,-2.0,6.0,14.0,-8.0
1701873444.669201,7.0,-2.0,-14.0,-9.0,-5.0,-11.0,-8.0,1.0
1701873444.669201,-3.0,-5.0,-12.0,-3.0,0.0,2.0,-2.0,-4.0
1701873444.669201,1.0,-1.0,6.0,0.0,-8.0,-5.0,-8.0,2.0
1701873444.669201,1.0,5.0,13.0,5.0,4.0,-4.0,-7.0,-3.0
1701873444.6992033,0.0,-9.0,-14.0,-13.0,-5.0,-2.0,2.0,1.0
1701873444.6992033,-1.0,1.0,5.0,3.0,2.0,5.0,2.0,-4.0
1701873444.6992033,7.0,8.0,3.0,2.0,2.0,-2.0,-1.0,6.0
1701873444.6992033,3.0,-5.0,-4.0,-5.0,-4.0,-5.0,-2.0,-3.0
1701873444.7094684,0.0,3.0,5.0,3.0,-6.0,-2.0,3.0,-1.0
1701873444.7094684,-1.0,-4.0,1.0,-4.0,-1.0,-1.0,-2.0,-4.0
1701873444.7094684,-4.0,-1.0,-21.0,-15.0,-4.0,-1.0,-4.0,5.0
1701873444.7094684,-5.0,-2.0,22.0,19.0,1.0,-2.0,-11.0,-15.0
1701873444.7295074,1.0,-4.0,-8.0,1.0,6.0,7.0,5.0,5.0
1701873444.7295074,0.0,6.0,-3.0,-2.0,-1.0,-2.0,4.0,-7.0
1701873444.739209,1.0,2.0,-3.0,-1.0,-3.0,-5.0,-5.0,3.0
1701873444.739209,-4.0,-4.0,-6.0,-4.0,2.0,-2.0,-4.0,-2.0
1701873444.7692072,1.0,-6.0,-10.0,0.0,-4.0,-3.0,-4.0,1.0
1701873444.7692072,-6.0,1.0,0.0,-6.0,-1.0,-2.0,-4.0,-7.0
1701873444.7692072,4.0,1.0,3.0,-2.0,-2.0,-2.0,2.0,4.0
1701873444.7692072,0.0,-3.0,-7.0,-4.0,-4.0,-1.0,1.0,1.0
1701873444.7692072,-2.0,1.0,10.0,9.0,4.0,-1.0,-2.0,-7.0
1701873444.7692072,8.0,5.0,-9.0,-1.0,-1.0,0.0,2.0,13.0
1701873444.7692072,-14.0,-4.0,-1.0,-4.0,-2.0,1.0,-1.0,-4.0
1701873444.7692072,4.0,0.0,3.0,1.0,0.0,-1.0,0.0,-3.0
1701873444.7896082,1.0,-2.0,-5.0,0.0,0.0,-1.0,1.0,4.0
1701873444.7896082,4.0,2.0,2.0,-2.0,-6.0,-3.0,-3.0,0.0
1701873444.7896082,-4.0,-6.0,-3.0,3.0,-1.0,-2.0,-3.0,-6.0
1701873444.7896082,-1.0,-1.0,-7.0,-5.0,-4.0,0.0,-1.0,3.0
1701873444.819203,-6.0,1.0,7.0,-3.0,-1.0,0.0,0.0,-4.0
1701873444.819203,4.0,0.0,13.0,3.0,2.0,1.0,-2.0,1.0
1701873444.819203,-8.0,-10.0,-21.0,-5.0,-4.0,-3.0,0.0,-4.0
1701873444.819203,-4.0,0.0,10.0,3.0,-3.0,-3.0,-2.0,-2.0
1701873444.8292022,7.0,2.0,2.0,-2.0,-3.0,-2.0,2.0,12.0
1701873444.8292022,-2.0,-2.0,1.0,0.0,1.0,0.0,-3.0,-12.0
1701873444.8292022,1.0,2.0,6.0,2.0,1.0,1.0,-1.0,0.0
1701873444.8292022,3.0,6.0,-4.0,-2.0,-3.0,-1.0,3.0,3.0
1701873444.84961,-4.0,-4.0,0.0,2.0,-1.0,-5.0,-4.0,-5.0
1701873444.84961,-1.0,-3.0,-4.0,0.0,-1.0,-2.0,0.0,0.0
1701873444.84961,3.0,5.0,2.0,-2.0,-2.0,-2.0,-4.0,3.0
1701873444.84961,-3.0,-2.0,-1.0,-5.0,-4.0,0.0,1.0,-2.0
1701873444.8792033,-15.0,-2.0,-13.0,-2.0,1.0,2.0,1.0,-3.0
1701873444.8792033,-3.0,-2.0,8.0,1.0,1.0,0.0,0.0,-1.0
1701873444.8792033,2.0,-3.0,-6.0,0.0,-4.0,-4.0,0.0,2.0
1701873444.8792033,-1.0,2.0,5.0,2.0,3.0,0.0,-2.0,-5.0
1701873444.8895783,5.0,0.0,-2.0,-2.0,-2.0,-2.0,-3.0,-1.0
1701873444.8895783,-4.0,-5.0,-20.0,-5.0,2.0,3.0,1.0,-4.0
1701873444.8895783,-2.0,4.0,1.0,1.0,-2.0,-1.0,-1.0,1.0
1701873444.8895783,2.0,-4.0,4.0,-1.0,-3.0,-3.0,1.0,10.0
1701873444.9094665,3.0,-1.0,-10.0,-7.0,-2.0,-2.0,-5.0,-10.0
1701873444.9094665,-4.0,0.0,4.0,4.0,-1.0,0.0,-1.0,-3.0
1701873444.9192054,3.0,3.0,10.0,3.0,1.0,1.0,-2.0,-4.0
1701873444.9192054,-10.0,-7.0,-8.0,-4.0,1.0,2.0,2.0,9.0
1701873444.9292097,4.0,-2.0,-2.0,-3.0,-3.0,-6.0,-7.0,-15.0
1701873444.9292097,-2.0,2.0,3.0,-3.0,-5.0,-5.0,-2.0,5.0
1701873444.9292097,-1.0,-2.0,-5.0,6.0,4.0,4.0,0.0,-5.0
1701873444.9292097,-3.0,-4.0,-1.0,-4.0,0.0,2.0,-2.0,-1.0
1701873444.949513,-1.0,0.0,8.0,4.0,1.0,-1.0,2.0,5.0
1701873444.949513,0.0,0.0,3.0,2.0,0.0,-1.0,-6.0,-6.0
1701873444.949513,-4.0,-7.0,-7.0,-1.0,-4.0,-3.0,-2.0,-5.0
1701873444.949513,7.0,-12.0,-27.0,-17.0,-5.0,-4.0,-3.0,-4.0
1701873444.9692106,5.0,4.0,-1.0,0.0,-1.0,1.0,1.0,2.0
1701873444.9692106,-4.0,-1.0,1.0,2.0,0.0,1.0,3.0,1.0
1701873444.999206,-6.0,-10.0,11.0,3.0,-2.0,-2.0,-7.0,-2.0
1701873444.999206,2.0,4.0,-13.0,-4.0,-3.0,-3.0,-3.0,-4.0
1701873444.999206,-4.0,-4.0,3.0,-2.0,-2.0,-1.0,0.0,1.0
1701873444.999206,3.0,-1.0,-6.0,-2.0,1.0,-4.0,0.0,4.0
1701873444.999206,0.0,-3.0,1.0,-5.0,-5.0,-3.0,-5.0,-1.0
1701873444.999206,-1.0,1.0,3.0,4.0,0.0,1.0,-1.0,1.0
1701873445.009549,-4.0,-2.0,0.0,-4.0,-2.0,1.0,1.0,-10.0
1701873445.009549,-4.0,1.0,7.0,10.0,-2.0,-1.0,-5.0,-9.0
1701873445.009549,6.0,3.0,-2.0,-2.0,0.0,-1.0,5.0,12.0
1701873445.009549,-3.0,-5.0,5.0,3.0,3.0,0.0,-2.0,-9.0
1701873445.0294693,-1.0,5.0,3.0,2.0,-3.0,-3.0,5.0,7.0
1701873445.0294693,-3.0,-1.0,-5.0,-6.0,-2.0,0.0,0.0,1.0
1701873445.0392032,-3.0,2.0,-1.0,-2.0,2.0,1.0,-1.0,-2.0
1701873445.0392032,-5.0,-4.0,-1.0,-3.0,-3.0,0.0,-2.0,-6.0
1701873445.0596137,8.0,-1.0,5.0,8.0,2.0,0.0,-1.0,6.0
1701873445.0596137,-10.0,-5.0,-6.0,-7.0,-1.0,-1.0,0.0,-5.0
1701873445.0596137,1.0,0.0,-15.0,-9.0,-4.0,-2.0,-2.0,-4.0
1701873445.0596137,1.0,6.0,2.0,-2.0,-2.0,-1.0,1.0,0.0
1701873445.0695758,-12.0,-13.0,10.0,4.0,-2.0,-2.0,-4.0,-1.0
1701873445.0695758,-7.0,5.0,9.0,10.0,5.0,5.0,1.0,2.0
1701873445.0695758,4.0,6.0,4.0,4.0,1.0,-2.0,-1.0,-1.0
1701873445.0695758,1.0,0.0,-7.0,-7.0,-5.0,-4.0,-2.0,0.0
1701873445.089204,1.0,2.0,3.0,-1.0,1.0,1.0,-2.0,-2.0
1701873445.089204,2.0,-2.0,-3.0,-2.0,2.0,1.0,-4.0,0.0
1701873445.089204,-2.0,-2.0,-3.0,-4.0,-1.0,0.0,0.0,-2.0
1701873445.089204,-4.0,-5.0,7.0,3.0,-5.0,-4.0,-2.0,-4.0
1701873445.1096313,-7.0,-5.0,-9.0,-4.0,1.0,0.0,2.0,-1.0
1701873445.1096313,1.0,-4.0,-5.0,-6.0,-3.0,-3.0,-9.0,-1.0
1701873445.1096313,0.0,3.0,2.0,2.0,2.0,-2.0,-1.0,-1.0
1701873445.1096313,2.0,1.0,3.0,-4.0,-2.0,-3.0,1.0,-6.0
1701873445.1296117,-3.0,-2.0,-2.0,-2.0,-2.0,-1.0,-6.0,-13.0
1701873445.1296117,5.0,3.0,0.0,6.0,2.0,1.0,5.0,2.0
1701873445.1296117,1.0,-3.0,-1.0,-3.0,-5.0,-5.0,-1.0,6.0
1701873445.1296117,-4.0,-2.0,2.0,7.0,1.0,-1.0,-4.0,-2.0
1701873445.149203,6.0,2.0,5.0,-1.0,1.0,1.0,1.0,3.0
1701873445.149203,-3.0,-5.0,-10.0,-7.0,-3.0,-4.0,0.0,-3.0
1701873445.149203,11.0,6.0,3.0,4.0,-1.0,-1.0,-2.0,-3.0
1701873445.149203,1.0,6.0,-2.0,-4.0,3.0,2.0,2.0,4.0
1701873445.173888,0.0,-5.0,5.0,6.0,-3.0,-7.0,-2.0,-1.0
1701873445.173888,1.0,-12.0,-24.0,-12.0,-6.0,-1.0,-2.0,-1.0
1701873445.1753654,0.0,1.0,1.0,-10.0,-1.0,0.0,0.0,-3.0
1701873445.1753654,3.0,5.0,7.0,5.0,0.0,1.0,0.0,0.0
1701873445.20177,2.0,8.0,1.0,-2.0,1.0,-2.0,-4.0,4.0
1701873445.20177,7.0,10.0,9.0,1.0,-1.0,-1.0,2.0,4.0
1701873445.20177,-1.0,-7.0,-11.0,-5.0,-6.0,-4.0,-1.0,-6.0
1701873445.20177,-4.0,-5.0,-1.0,1.0,1.0,2.0,1.0,8.0
1701873445.20177,1.0,4.0,0.0,1.0,3.0,5.0,1.0,-2.0
1701873445.20177,-7.0,-8.0,-1.0,-5.0,-3.0,-3.0,-6.0,-8.0
1701873445.2120247,1.0,1.0,2.0,-2.0,2.0,1.0,-1.0,0.0
1701873445.2120247,3.0,16.0,-2.0,0.0,0.0,-1.0,4.0,9.0
1701873445.2323549,4.0,-1.0,-5.0,-1.0,-3.0,-3.0,-3.0,-5.0
1701873445.2323549,-2.0,0.0,4.0,-1.0,0.0,1.0,1.0,0.0
1701873445.2323549,-6.0,-1.0,4.0,4.0,1.0,1.0,-1.0,-3.0
1701873445.2323549,-3.0,-8.0,-5.0,-5.0,-4.0,-4.0,-2.0,-5.0
1701873445.2620475,-3.0,-3.0,2.0,7.0,1.0,-2.0,-2.0,0.0
1701873445.2620475,6.0,4.0,-3.0,-9.0,0.0,1.0,2.0,2.0
1701873445.2620475,-2.0,7.0,17.0,14.0,3.0,3.0,2.0,3.0
1701873445.2620475,0.0,-10.0,-5.0,-5.0,-3.0,-2.0,-1.0,-1.0
1701873445.2620475,-1.0,-9.0,-27.0,-13.0,-4.0,-3.0,-7.0,-15.0
1701873445.2620475,2.0,4.0,-4.0,0.0,-3.0,-4.0,-2.0,2.0
1701873445.272079,-3.0,-6.0,-1.0,-2.0,-1.0,1.0,-1.0,0.0
1701873445.272079,3.0,-1.0,4.0,2.0,2.0,0.0,-2.0,-4.0
1701873445.2924614,-4.0,-3.0,8.0,0.0,-1.0,-1.0,1.0,4.0
1701873445.2924614,0.0,1.0,2.0,4.0,-1.0,-1.0,-5.0,-3.0
1701873445.2924614,1.0,5.0,-11.0,-11.0,-5.0,-4.0,0.0,4.0
1701873445.2924614,-4.0,-13.0,-21.0,-4.0,-3.0,-1.0,-4.0,-7.0
1701873445.3120449,-4.0,-4.0,2.0,-3.0,-3.0,-3.0,0.0,3.0
1701873445.3120449,0.0,-7.0,-2.0,5.0,-1.0,1.0,4.0,5.0
1701873445.3120449,2.0,5.0,5.0,8.0,6.0,3.0,-1.0,-1.0
1701873445.3120449,-7.0,-5.0,12.0,4.0,-2.0,-5.0,0.0,-4.0
1701873445.3324695,1.0,5.0,-2.0,-3.0,0.0,-1.0,2.0,7.0
1701873445.3324695,0.0,-2.0,-3.0,-5.0,-4.0,-2.0,-7.0,-9.0
1701873445.3324695,-4.0,-5.0,-4.0,-3.0,-3.0,-2.0,2.0,-3.0
1701873445.3324695,-1.0,-1.0,-1.0,6.0,-1.0,0.0,-5.0,-2.0
1701873445.3524563,-1.0,-1.0,-1.0,-6.0,-2.0,4.0,2.0,-3.0
1701873445.3524563,4.0,4.0,9.0,2.0,-2.0,-3.0,1.0,5.0
1701873445.3524563,-7.0,-3.0,-12.0,-7.0,-2.0,-2.0,-2.0,-8.0
1701873445.3524563,3.0,3.0,8.0,3.0,-4.0,-1.0,-4.0,-4.0
1701873445.372043,-2.0,2.0,4.0,2.0,-1.0,1.0,0.0,6.0
1701873445.372043,-11.0,-2.0,1.0,1.0,2.0,2.0,1.0,-1.0
1701873445.372043,13.0,-6.0,-13.0,-10.0,-2.0,-4.0,-5.0,-1.0
1701873445.372043,-10.0,-23.0,-7.0,-2.0,-1.0,-1.0,0.0,0.0
1701873445.3924646,-5.0,3.0,8.0,3.0,-4.0,-4.0,-3.0,-5.0
1701873445.3924646,-1.0,-2.0,-1.0,-3.0,1.0,-3.0,0.0,-1.0
1701873445.3924646,0.0,0.0,0.0,2.0,-1.0,-1.0,1.0,-2.0
1701873445.3924646,-2.0,3.0,-5.0,-4.0,1.0,2.0,1.0,4.0
1701873445.4124405,-1.0,-5.0,-2.0,-3.0,-2.0,-2.0,-3.0,-4.0
1701873445.4124405,-4.0,1.0,4.0,3.0,1.0,-3.0,-4.0,-7.0
1701873445.4124405,-5.0,-9.0,1.0,-3.0,-4.0,-1.0,5.0,14.0
1701873445.4124405,1.0,1.0,-5.0,-4.0,4.0,1.0,0.0,-1.0
1701873445.4320447,-2.0,-3.0,0.0,1.0,-3.0,-2.0,-6.0,-19.0
1701873445.4320447,2.0,2.0,-2.0,-1.0,-1.0,1.0,1.0,7.0
1701873445.4320447,-9.0,0.0,8.0,8.0,2.0,0.0,-4.0,-11.0
1701873445.4320447,-1.0,2.0,-5.0,-3.0,-3.0,-3.0,0.0,4.0
1701873445.4524562,1.0,-2.0,-1.0,-9.0,-5.0,-4.0,-2.0,6.0
1701873445.4524562,-3.0,-10.0,-7.0,-2.0,-4.0,0.0,-1.0,-2.0
1701873445.4524562,-3.0,3.0,7.0,5.0,-1.0,-1.0,-5.0,-7.0
1701873445.4524562,5.0,5.0,-2.0,3.0,3.0,1.0,-1.0,2.0
1701873445.47209,-2.0,-8.0,-16.0,-6.0,1.0,-1.0,0.0,2.0
1701873445.47209,2.0,-2.0,2.0,-1.0,-3.0,-1.0,0.0,-4.0
1701873445.4820442,-8.0,-6.0,-1.0,0.0,0.0,-1.0,-2.0,-1.0
1701873445.4820442,4.0,2.0,2.0,0.0,-3.0,-2.0,-3.0,-5.0
1701873445.4923022,5.0,6.0,-3.0,-4.0,0.0,2.0,1.0,3.0
1701873445.4923022,5.0,1.0,-2.0,-1.0,0.0,0.0,1.0,1.0
1701873445.4923022,-3.0,-3.0,0.0,2.0,1.0,-3.0,-2.0,-6.0
1701873445.4923022,-1.0,-2.0,-2.0,-4.0,-1.0,0.0,0.0,2.0
1701873445.5123587,0.0,0.0,-5.0,0.0,0.0,2.0,4.0,-2.0
1701873445.5123587,-4.0,-2.0,4.0,0.0,-2.0,-2.0,-2.0,-5.0
1701873445.5123587,0.0,0.0,-2.0,-9.0,-5.0,-3.0,0.0,0.0
1701873445.5123587,-6.0,0.0,3.0,1.0,-1.0,-2.0,-6.0,-5.0
1701873445.5320475,5.0,0.0,-8.0,-3.0,1.0,1.0,4.0,15.0
1701873445.5320475,-2.0,0.0,17.0,9.0,1.0,0.0,1.0,-1.0
1701873445.5320475,3.0,0.0,-5.0,7.0,1.0,-3.0,-4.0,0.0
1701873445.5320475,-1.0,3.0,-4.0,-11.0,-6.0,-1.0,1.0,-2.0
1701873445.552042,-4.0,-1.0,-8.0,-5.0,-6.0,-3.0,-7.0,-6.0
1701873445.552042,-14.0,-1.0,-6.0,0.0,4.0,2.0,2.0,-3.0
1701873445.552042,-6.0,-18.0,2.0,3.0,2.0,0.0,1.0,-1.0
1701873445.552042,-2.0,-2.0,-14.0,-10.0,-4.0,-1.0,0.0,-3.0
1701873445.5724616,-11.0,4.0,11.0,4.0,0.0,-3.0,0.0,3.0
1701873445.5724616,1.0,-5.0,-5.0,-6.0,-4.0,0.0,0.0,2.0
1701873445.5724616,3.0,-2.0,5.0,7.0,-3.0,-2.0,-3.0,2.0
1701873445.5724616,-4.0,1.0,7.0,4.0,2.0,2.0,0.0,-1.0
1701873445.5920458,3.0,0.0,3.0,2.0,-2.0,-2.0,2.0,2.0
1701873445.5920458,1.0,-8.0,-23.0,-7.0,-2.0,-5.0,-8.0,-3.0
1701873445.5920458,-2.0,-5.0,-12.0,-11.0,-3.0,0.0,3.0,1.0
1701873445.5920458,2.0,4.0,0.0,-5.0,0.0,2.0,1.0,2.0
1701873445.6123335,8.0,7.0,20.0,18.0,1.0,0.0,1.0,5.0
1701873445.6123335,1.0,4.0,6.0,6.0,3.0,-2.0,-1.0,1.0
1701873445.6123335,7.0,2.0,0.0,-1.0,-2.0,0.0,2.0,5.0
1701873445.6123335,0.0,-1.0,-7.0,-5.0,-4.0,-4.0,-7.0,-11.0
1701873445.632051,-4.0,-9.0,-7.0,-3.0,-1.0,0.0,1.0,-2.0
1701873445.632051,1.0,2.0,2.0,1.0,-3.0,-1.0,-4.0,-4.0
1701873445.6420474,-15.0,4.0,10.0,-5.0,1.0,-2.0,-3.0,-5.0
1701873445.6420474,8.0,21.0,11.0,5.0,1.0,0.0,2.0,4.0
1701873445.6620412,-6.0,-6.0,-17.0,-12.0,0.0,-1.0,-2.0,-3.0
1701873445.6620412,2.0,6.0,18.0,10.0,0.0,3.0,5.0,2.0
1701873445.6620412,2.0,-10.0,-19.0,-10.0,-4.0,-8.0,-13.0,-10.0
1701873445.6620412,-7.0,-5.0,8.0,5.0,0.0,-1.0,4.0,1.0
1701873445.6723113,-4.0,-6.0,-10.0,-5.0,0.0,-3.0,-14.0,-9.0
1701873445.6723113,5.0,22.0,10.0,-1.0,-1.0,4.0,22.0,3.0
1701873445.6723113,-2.0,-13.0,-1.0,1.0,2.0,8.0,-1.0,5.0
1701873445.6723113,-5.0,3.0,-14.0,1.0,-1.0,-3.0,-8.0,-10.0
1701873445.7179978,0.0,-7.0,2.0,-2.0,-2.0,0.0,6.0,-2.0
1701873445.7179978,-5.0,-5.0,-11.0,-8.0,-4.0,1.0,1.0,8.0
1701873445.7179978,-5.0,7.0,16.0,9.0,-1.0,-4.0,-8.0,-19.0
1701873445.7179978,2.0,-3.0,-5.0,-3.0,-1.0,-4.0,-4.0,-2.0
1701873445.7179978,2.0,17.0,2.0,-8.0,4.0,6.0,-4.0,2.0
1701873445.7179978,-4.0,-11.0,24.0,24.0,0.0,-6.0,-5.0,-5.0
1701873445.7179978,12.0,4.0,-18.0,-6.0,-3.0,0.0,8.0,6.0
1701873445.7179978,4.0,-2.0,13.0,3.0,1.0,1.0,4.0,3.0
1701873445.728383,-5.0,-9.0,-15.0,-6.0,-3.0,-6.0,-7.0,-6.0
1701873445.728383,0.0,-2.0,-2.0,-10.0,-6.0,-5.0,-4.0,-2.0
1701873445.738046,7.0,8.0,2.0,-2.0,-3.0,1.0,-2.0,2.0
1701873445.738046,-2.0,-6.0,1.0,2.0,-6.0,-5.0,-2.0,1.0
1701873445.767999,0.0,-2.0,-2.0,4.0,6.0,1.0,3.0,2.0
1701873445.767999,-4.0,-15.0,-15.0,-5.0,-2.0,-6.0,-7.0,-4.0
1701873445.767999,-1.0,9.0,11.0,0.0,3.0,0.0,3.0,5.0
1701873445.767999,-10.0,-11.0,-13.0,-3.0,-6.0,-1.0,-1.0,-12.0
1701873445.767999,3.0,-5.0,11.0,-2.0,3.0,4.0,5.0,-2.0
1701873445.767999,-4.0,-3.0,-7.0,-1.0,-3.0,-8.0,-11.0,-4.0
1701873445.7782607,-3.0,8.0,-10.0,-11.0,-11.0,-4.0,2.0,-3.0
1701873445.7782607,-7.0,-3.0,7.0,-5.0,7.0,7.0,5.0,-1.0
1701873445.7880042,-12.0,-7.0,14.0,23.0,12.0,3.0,-2.0,-3.0
1701873445.7880042,6.0,14.0,6.0,0.0,-4.0,-6.0,-7.0,-7.0
1701873445.798061,-16.0,-16.0,-20.0,-12.0,-8.0,-7.0,-5.0,-7.0
1701873445.798061,-1.0,-25.0,-3.0,1.0,-3.0,3.0,14.0,15.0
1701873445.8380022,-10.0,13.0,8.0,4.0,-4.0,-8.0,-13.0,-7.0
1701873445.8380022,1.0,-11.0,-8.0,-4.0,3.0,6.0,5.0,5.0
1701873445.8380022,-1.0,14.0,-5.0,3.0,-1.0,0.0,-12.0,-19.0
1701873445.8380022,-24.0,-35.0,12.0,3.0,0.0,1.0,5.0,9.0
1701873445.8380022,7.0,-17.0,-23.0,-11.0,-9.0,-14.0,-5.0,13.0
1701873445.8380022,-11.0,12.0,-8.0,-9.0,0.0,5.0,12.0,-10.0
1701873445.8380022,19.0,40.0,17.0,10.0,5.0,10.0,19.0,16.0
1701873445.8380022,1.0,18.0,20.0,5.0,3.0,-5.0,-20.0,-20.0
1701873445.8483112,-1.0,-18.0,-29.0,-11.0,-5.0,-2.0,-2.0,5.0
1701873445.8483112,1.0,-16.0,3.0,1.0,-2.0,-4.0,-10.0,3.0
1701873445.858333,0.0,-3.0,-13.0,-11.0,-3.0,-6.0,2.0,3.0
1701873445.858333,14.0,38.0,4.0,0.0,4.0,5.0,7.0,5.0
1701873445.8983274,-8.0,3.0,10.0,4.0,-4.0,-2.0,-3.0,-8.0
1701873445.8983274,-1.0,-5.0,12.0,20.0,-1.0,-3.0,-3.0,-4.0
1701873445.8983274,-8.0,-18.0,-14.0,-14.0,-1.0,-3.0,-3.0,-3.0
1701873445.8983274,8.0,6.0,-9.0,-5.0,-2.0,-4.0,-2.0,2.0
1701873445.8983274,5.0,2.0,30.0,21.0,-2.0,-4.0,-3.0,-3.0
1701873445.8983274,-8.0,2.0,-9.0,-11.0,0.0,-1.0,0.0,1.0
1701873445.8983274,1.0,-6.0,7.0,16.0,5.0,5.0,3.0,6.0
1701873445.8983274,3.0,-11.0,-7.0,-3.0,11.0,-1.0,-7.0,-1.0
1701873445.9087117,-8.0,16.0,7.0,-4.0,3.0,4.0,4.0,2.0
1701873445.9087117,5.0,2.0,-10.0,-12.0,1.0,-1.0,2.0,-2.0
1701873445.9087117,4.0,3.0,4.0,2.0,-8.0,-5.0,4.0,5.0
1701873445.9087117,-1.0,-18.0,-30.0,-26.0,-15.0,-4.0,-2.0,2.0
1701873445.9383607,12.0,23.0,36.0,18.0,5.0,6.0,5.0,-3.0
1701873445.9383607,-13.0,-30.0,-25.0,-8.0,-2.0,-7.0,-12.0,-14.0
1701873445.9383607,-4.0,-5.0,2.0,0.0,2.0,-4.0,-5.0,-2.0
1701873445.9383607,9.0,12.0,-7.0,9.0,2.0,-4.0,-4.0,0.0
1701873445.9483306,8.0,7.0,-12.0,-10.0,-15.0,-6.0,1.0,-3.0
1701873445.9483306,7.0,-4.0,-6.0,-13.0,-1.0,2.0,1.0,15.0
1701873445.9587114,14.0,-12.0,15.0,9.0,6.0,23.0,36.0,3.0
1701873445.9587114,-3.0,-5.0,-8.0,10.0,2.0,-2.0,-12.0,0.0
1701873445.9687335,-16.0,-15.0,-12.0,-11.0,0.0,-1.0,-4.0,-3.0
1701873445.9687335,8.0,31.0,15.0,-2.0,-4.0,-4.0,-8.0,-7.0
1701873445.9687335,-14.0,-53.0,-27.0,-16.0,-7.0,-9.0,-12.0,-6.0
1701873445.9687335,3.0,16.0,13.0,15.0,1.0,-17.0,-13.0,-3.0
1701873445.99871,-3.0,-5.0,-10.0,-8.0,2.0,20.0,18.0,-3.0
1701873445.99871,7.0,1.0,1.0,-7.0,-2.0,17.0,36.0,17.0
1701873445.99871,-5.0,16.0,10.0,6.0,4.0,-4.0,-11.0,2.0
1701873445.99871,-8.0,18.0,6.0,-2.0,-7.0,-21.0,-38.0,-22.0
1701873446.0087357,-8.0,9.0,-7.0,0.0,-2.0,-2.0,5.0,2.0
1701873446.0087357,5.0,-6.0,10.0,0.0,1.0,0.0,-12.0,6.0
1701873446.0187128,-13.0,-20.0,-15.0,-6.0,-1.0,2.0,0.0,-10.0
1701873446.0187128,-3.0,-8.0,9.0,-4.0,-6.0,-8.0,-5.0,0.0
1701873446.0287228,9.0,8.0,-8.0,-1.0,1.0,-8.0,-10.0,-2.0
1701873446.0287228,-5.0,14.0,23.0,11.0,12.0,12.0,12.0,0.0
1701873446.0287228,-1.0,-12.0,-32.0,-14.0,-3.0,-7.0,-11.0,-2.0
1701873446.0287228,-6.0,-17.0,-11.0,-7.0,-7.0,-6.0,-3.0,-4.0
1701873446.0584743,-1.0,-9.0,-3.0,-16.0,-11.0,-4.0,-1.0,2.0
1701873446.0584743,1.0,8.0,-11.0,1.0,-3.0,1.0,2.0,-3.0
1701873446.0584743,-1.0,8.0,26.0,21.0,5.0,-2.0,-4.0,2.0
1701873446.0584743,-4.0,0.0,19.0,1.0,-6.0,3.0,13.0,-1.0
1701873446.068581,-2.0,-4.0,-6.0,-9.0,-7.0,-8.0,-13.0,-2.0
1701873446.068581,-1.0,-4.0,-10.0,1.0,2.0,10.0,19.0,4.0
1701873446.07855,-1.0,5.0,7.0,5.0,1.0,-2.0,-10.0,-6.0
1701873446.07855,4.0,22.0,-15.0,-11.0,6.0,18.0,19.0,9.0
1701873446.1083288,-18.0,-16.0,68.0,34.0,1.0,-15.0,-20.0,-13.0
1701873446.1083288,-8.0,-8.0,-12.0,-9.0,-9.0,-22.0,-28.0,-12.0
1701873446.1083288,0.0,9.0,-2.0,-13.0,-5.0,-1.0,3.0,1.0
1701873446.1083288,-4.0,-10.0,-14.0,-21.0,2.0,13.0,13.0,-1.0
1701873446.1183612,8.0,-3.0,9.0,33.0,11.0,7.0,-1.0,6.0
1701873446.1183612,1.0,2.0,-3.0,2.0,-5.0,-9.0,-6.0,-2.0
1701873446.1183612,2.0,7.0,-9.0,-10.0,-9.0,-3.0,0.0,-2.0
1701873446.1183612,0.0,-19.0,-26.0,-35.0,-15.0,-7.0,-5.0,3.0
1701873446.1287353,4.0,-6.0,-17.0,-3.0,8.0,12.0,10.0,10.0
1701873446.1287353,5.0,5.0,16.0,18.0,13.0,7.0,3.0,-7.0
1701873446.1386523,11.0,-2.0,-5.0,-9.0,1.0,-3.0,-10.0,-8.0
1701873446.1386523,8.0,0.0,-2.0,2.0,-6.0,-3.0,8.0,18.0
1701873446.1483293,-11.0,-17.0,-10.0,-11.0,-14.0,-8.0,-2.0,-12.0
1701873446.1483293,-12.0,-12.0,-13.0,0.0,-11.0,-8.0,-9.0,1.0
1701873446.1483293,7.0,11.0,8.0,0.0,0.0,-2.0,0.0,6.0
1701873446.1483293,-3.0,-7.0,0.0,11.0,7.0,6.0,12.0,-4.0
1701873446.1787474,3.0,14.0,6.0,-2.0,-3.0,-1.0,-3.0,-8.0
1701873446.1787474,3.0,10.0,-9.0,-9.0,1.0,-1.0,-8.0,2.0
1701873446.1787474,-17.0,-29.0,-4.0,-2.0,1.0,-7.0,-1.0,1.0
1701873446.1787474,-12.0,0.0,17.0,12.0,-2.0,8.0,5.0,-24.0
1701873446.1887136,-1.0,3.0,-19.0,-8.0,3.0,9.0,7.0,-5.0
1701873446.1887136,1.0,-10.0,4.0,-6.0,-7.0,-15.0,-22.0,-6.0
1701873446.1985967,4.0,8.0,-10.0,1.0,3.0,11.0,13.0,9.0
1701873446.1985967,0.0,1.0,12.0,7.0,0.0,-4.0,-11.0,-7.0
1701873446.2183275,-3.0,18.0,1.0,-4.0,2.0,2.0,6.0,6.0
1701873446.2183275,0.0,-2.0,2.0,-4.0,-1.0,-4.0,-10.0,0.0
1701873446.2183275,-4.0,-9.0,6.0,11.0,1.0,0.0,1.0,-2.0
1701873446.2183275,4.0,12.0,2.0,1.0,0.0,2.0,5.0,3.0
1701873446.2389271,3.0,3.0,-18.0,-18.0,-10.0,-6.0,-3.0,0.0
1701873446.2389271,-7.0,-23.0,7.0,4.0,-7.0,-5.0,-1.0,0.0
1701873446.2403865,-3.0,14.0,4.0,5.0,3.0,-1.0,-4.0,-1.0
1701873446.241014,0.0,-6.0,-6.0,3.0,6.0,8.0,8.0,5.0
1701873446.251199,3.0,9.0,0.0,-5.0,-2.0,-2.0,-2.0,1.0
1701873446.251199,1.0,-18.0,-11.0,-5.0,-3.0,-4.0,-4.0,-3.0
1701873446.2612429,-5.0,-1.0,1.0,-2.0,-1.0,-5.0,-8.0,-6.0
1701873446.2612429,0.0,7.0,5.0,-3.0,-5.0,0.0,0.0,-6.0
1701873446.2711997,-7.0,-19.0,12.0,9.0,3.0,-2.0,-3.0,9.0
1701873446.2711997,-4.0,-13.0,4.0,1.0,0.0,-3.0,2.0,-3.0
1701873446.2711997,5.0,14.0,2.0,-4.0,-1.0,0.0,3.0,3.0
1701873446.2711997,-13.0,-27.0,-18.0,-8.0,-4.0,-6.0,-4.0,-7.0
1701873446.291208,1.0,6.0,10.0,11.0,3.0,-8.0,-18.0,-4.0
1701873446.291208,0.0,-2.0,-29.0,-22.0,-1.0,7.0,17.0,-4.0
1701873446.291208,-4.0,0.0,31.0,15.0,-2.0,-4.0,-2.0,2.0
1701873446.291208,2.0,15.0,3.0,-2.0,-2.0,-3.0,-9.0,2.0
1701873446.3115063,4.0,-9.0,-11.0,-8.0,-1.0,0.0,10.0,0.0
1701873446.3115063,-6.0,-3.0,-5.0,2.0,-2.0,-6.0,-12.0,-8.0
1701873446.3215053,6.0,13.0,-13.0,-11.0,-3.0,-1.0,-5.0,-7.0
1701873446.3215053,7.0,-2.0,-2.0,-4.0,-3.0,-2.0,3.0,12.0
1701873446.3318675,1.0,-8.0,-3.0,11.0,2.0,-2.0,-1.0,-2.0
1701873446.3318675,-5.0,4.0,2.0,4.0,5.0,6.0,1.0,0.0
1701873446.3318675,-3.0,-5.0,-11.0,-9.0,3.0,1.0,1.0,-2.0
1701873446.3318675,2.0,-5.0,2.0,6.0,-6.0,-9.0,-5.0,-1.0
1701873446.351889,1.0,7.0,-10.0,-12.0,-1.0,2.0,2.0,-3.0
1701873446.351889,1.0,14.0,8.0,3.0,2.0,3.0,4.0,2.0
1701873446.351889,-4.0,-11.0,-5.0,-1.0,-4.0,-4.0,-3.0,-3.0
1701873446.351889,0.0,1.0,7.0,10.0,-7.0,-6.0,-6.0,-2.0
1701873446.3715072,11.0,0.0,-3.0,-4.0,1.0,1.0,2.0,1.0
1701873446.3715072,3.0,10.0,-16.0,-11.0,-2.0,4.0,3.0,-5.0
1701873446.3815055,-14.0,-25.0,4.0,0.0,-3.0,-1.0,-5.0,4.0
1701873446.3815055,-6.0,2.0,-10.0,-7.0,3.0,0.0,-7.0,-14.0
1701873446.3918695,6.0,2.0,6.0,3.0,-4.0,0.0,4.0,1.0
1701873446.3918695,-2.0,-2.0,8.0,4.0,-6.0,-7.0,-3.0,-1.0
1701873446.401865,-1.0,1.0,2.0,4.0,2.0,-2.0,-1.0,-5.0
1701873446.401865,0.0,0.0,-4.0,-2.0,1.0,0.0,2.0,3.0
1701873446.4118924,-2.0,0.0,1.0,-2.0,3.0,3.0,1.0,1.0
1701873446.4118924,-2.0,0.0,1.0,0.0,2.0,-2.0,-3.0,-3.0
1701873446.4118924,1.0,4.0,-11.0,-5.0,-2.0,-1.0,0.0,0.0
1701873446.4118924,2.0,10.0,21.0,11.0,7.0,-1.0,-9.0,-3.0
1701873446.4415581,1.0,2.0,-18.0,-14.0,-1.0,0.0,10.0,0.0
1701873446.4415581,-3.0,1.0,1.0,2.0,-4.0,0.0,3.0,5.0
1701873446.4415581,4.0,7.0,1.0,-3.0,-9.0,-2.0,-2.0,-1.0
1701873446.4415581,-3.0,-5.0,7.0,7.0,4.0,-1.0,3.0,2.0
1701873446.4519126,-7.0,-9.0,-8.0,-6.0,-2.0,-4.0,-8.0,-3.0
1701873446.4519126,-1.0,0.0,-2.0,-1.0,-4.0,0.0,-3.0,-6.0
1701873446.462312,7.0,9.0,10.0,7.0,3.0,0.0,0.0,1.0
1701873446.462312,1.0,2.0,10.0,-6.0,-5.0,-1.0,0.0,0.0
1701873446.4723282,-10.0,-15.0,-43.0,-7.0,-2.0,-2.0,-4.0,-6.0
1701873446.4723282,2.0,0.0,10.0,4.0,5.0,2.0,2.0,6.0
1701873446.4723282,13.0,6.0,5.0,7.0,6.0,2.0,0.0,-1.0
1701873446.4723282,0.0,-5.0,-14.0,-7.0,-2.0,-2.0,-2.0,0.0
1701873446.4919248,3.0,13.0,22.0,5.0,-2.0,0.0,0.0,9.0
1701873446.4919248,-4.0,15.0,-1.0,-1.0,-1.0,-3.0,-6.0,-3.0
1701873446.5019212,4.0,0.0,8.0,1.0,-2.0,2.0,6.0,6.0
1701873446.5019212,-6.0,-6.0,-10.0,0.0,-3.0,1.0,4.0,-10.0
1701873446.5121996,4.0,8.0,7.0,-4.0,1.0,1.0,2.0,-2.0
1701873446.5121996,-1.0,-9.0,4.0,4.0,-1.0,-1.0,-3.0,0.0
1701873446.5222023,-6.0,-2.0,12.0,15.0,-1.0,-7.0,-12.0,-4.0
1701873446.5222023,3.0,6.0,4.0,-3.0,2.0,1.0,8.0,9.0
1701873446.551922,1.0,4.0,-9.0,-4.0,-2.0,-2.0,-3.0,-3.0
1701873446.551922,-2.0,-4.0,-11.0,-11.0,0.0,5.0,4.0,0.0
1701873446.551922,-5.0,-6.0,-6.0,-5.0,-3.0,-5.0,-4.0,-3.0
1701873446.551922,0.0,-3.0,2.0,2.0,2.0,3.0,1.0,1.0
1701873446.5619278,-9.0,-6.0,2.0,-4.0,-3.0,-4.0,-5.0,-2.0
1701873446.5619278,-2.0,-6.0,-3.0,1.0,0.0,-1.0,-1.0,-1.0
1701873446.5619278,-2.0,5.0,-4.0,-5.0,-2.0,-1.0,-1.0,-4.0
1701873446.5619278,7.0,4.0,-8.0,4.0,5.0,-1.0,-2.0,3.0
1701873446.5722177,-25.0,-12.0,20.0,6.0,1.0,-1.0,0.0,-4.0
1701873446.5722177,-5.0,3.0,-6.0,-8.0,-5.0,-3.0,0.0,-2.0
1701873446.5822039,-4.0,-2.0,-2.0,-1.0,2.0,0.0,0.0,-2.0
1701873446.5822039,-3.0,1.0,-9.0,-9.0,-4.0,-1.0,-3.0,-5.0
1701873446.5921671,6.0,-4.0,-1.0,3.0,-5.0,-2.0,-1.0,8.0
1701873446.5921671,3.0,-3.0,4.0,3.0,-4.0,-6.0,-4.0,1.0
1701873446.5921671,0.0,6.0,-7.0,1.0,3.0,2.0,2.0,-1.0
1701873446.5921671,-2.0,-4.0,5.0,0.0,0.0,-2.0,0.0,6.0
1701873446.6319265,-2.0,-4.0,2.0,-3.0,1.0,-1.0,-2.0,-15.0
1701873446.6319265,2.0,0.0,8.0,12.0,6.0,4.0,4.0,9.0
1701873446.6319265,2.0,-3.0,-21.0,-18.0,-5.0,-1.0,-4.0,-1.0
1701873446.6319265,0.0,0.0,0.0,0.0,-3.0,3.0,7.0,-3.0
1701873446.6319265,0.0,-3.0,-1.0,-1.0,-3.0,-2.0,-4.0,-3.0
1701873446.6319265,3.0,2.0,0.0,1.0,0.0,-1.0,2.0,5.0
1701873446.6419554,-4.0,-2.0,1.0,-1.0,-2.0,-2.0,-3.0,-4.0
1701873446.6419554,-10.0,-25.0,-6.0,-10.0,-7.0,-6.0,-8.0,-4.0
1701873446.6619225,-1.0,6.0,0.0,4.0,-2.0,-2.0,1.0,-2.0
1701873446.6619225,-7.0,-3.0,0.0,0.0,2.0,-6.0,-9.0,-9.0
1701873446.6619225,-10.0,2.0,20.0,12.0,6.0,6.0,4.0,0.0
1701873446.6619225,-9.0,-1.0,-9.0,-2.0,-1.0,-2.0,-4.0,-4.0
1701873446.6819406,5.0,0.0,-2.0,-3.0,-1.0,-1.0,0.0,2.0
1701873446.6819406,-12.0,-25.0,-2.0,-6.0,-2.0,-4.0,-7.0,-9.0
1701873446.6819406,5.0,5.0,2.0,4.0,-3.0,-3.0,-2.0,13.0
1701873446.6819406,-7.0,-16.0,-20.0,-10.0,-5.0,-3.0,5.0,1.0
1701873446.6922424,4.0,5.0,-6.0,-2.0,0.0,-2.0,-4.0,2.0
1701873446.6922424,0.0,3.0,-2.0,-6.0,-2.0,1.0,-3.0,-4.0
1701873446.7023103,1.0,7.0,6.0,-5.0,-1.0,-2.0,0.0,-1.0
1701873446.7023103,5.0,0.0,2.0,6.0,0.0,-1.0,-1.0,4.0
1701873446.7219226,-2.0,-8.0,-8.0,-6.0,-3.0,-4.0,-4.0,-6.0
1701873446.7219226,10.0,24.0,8.0,-1.0,0.0,4.0,8.0,3.0
1701873446.7219226,-12.0,-23.0,-16.0,0.0,-3.0,-4.0,-6.0,-14.0
1701873446.7219226,4.0,15.0,1.0,1.0,7.0,0.0,-4.0,0.0
1701873446.7323067,-10.0,-19.0,-5.0,3.0,0.0,-1.0,-3.0,-6.0
1701873446.7323067,9.0,28.0,8.0,0.0,0.0,2.0,0.0,2.0
1701873446.7419276,2.0,3.0,-4.0,-8.0,-5.0,-2.0,-1.0,-3.0
1701873446.7419276,-6.0,1.0,12.0,4.0,-3.0,-5.0,-1.0,-6.0
1701873446.7552435,-10.0,20.0,12.0,2.0,0.0,0.0,1.0,2.0
1701873446.7552435,-1.0,-8.0,-4.0,3.0,1.0,1.0,2.0,-2.0
1701873446.7689986,-2.0,-3.0,-3.0,-10.0,-8.0,-5.0,-1.0,1.0
1701873446.7689986,1.0,-19.0,-2.0,6.0,2.0,0.0,-1.0,2.0
1701873446.778849,10.0,6.0,-12.0,-7.0,0.0,3.0,3.0,3.0
1701873446.778849,-1.0,16.0,9.0,2.0,0.0,0.0,-4.0,-7.0
1701873446.7801628,1.0,0.0,-4.0,-3.0,-1.0,-7.0,-2.0,4.0
1701873446.7801628,4.0,-2.0,4.0,1.0,-1.0,-3.0,-2.0,0.0
1701873446.7943385,12.0,27.0,17.0,1.0,3.0,2.0,2.0,1.0
1701873446.7943385,4.0,-21.0,-25.0,-9.0,-7.0,-6.0,-3.0,5.0
1701873446.7943385,-8.0,-3.0,-2.0,-4.0,1.0,-1.0,-2.0,-10.0
1701873446.7943385,1.0,7.0,12.0,9.0,0.0,1.0,6.0,2.0
1701873446.813962,-2.0,-5.0,5.0,-4.0,-4.0,-3.0,-5.0,-2.0
1701873446.813962,0.0,-2.0,-4.0,4.0,3.0,1.0,-2.0,-9.0
1701873446.823917,-3.0,-4.0,-19.0,-12.0,-2.0,-1.0,-3.0,0.0
1701873446.823917,1.0,7.0,5.0,-2.0,-3.0,-3.0,-1.0,-2.0
1701873446.8439176,-6.0,-7.0,-7.0,-4.0,-3.0,-1.0,-3.0,-5.0
1701873446.8439176,1.0,-15.0,9.0,7.0,3.0,4.0,4.0,4.0
1701873446.8439176,6.0,9.0,7.0,6.0,-2.0,-2.0,-4.0,-1.0
1701873446.8439176,-4.0,-2.0,-4.0,-7.0,-4.0,-3.0,-7.0,-7.0
1701873446.854192,3.0,-7.0,-15.0,-5.0,0.0,3.0,7.0,3.0
1701873446.854192,-2.0,-3.0,6.0,-2.0,-3.0,-5.0,-2.0,3.0
1701873446.854192,4.0,1.0,-5.0,5.0,3.0,6.0,-1.0,-6.0
1701873446.854192,-4.0,-4.0,-4.0,0.0,0.0,-2.0,-5.0,1.0
1701873446.873925,2.0,-3.0,0.0,-3.0,-1.0,-3.0,-3.0,-7.0
1701873446.873925,4.0,-3.0,10.0,5.0,-2.0,0.0,3.0,10.0
1701873446.9039178,-2.0,-6.0,-16.0,-8.0,-6.0,-5.0,-5.0,-8.0
1701873446.9039178,3.0,4.0,-4.0,-6.0,-1.0,2.0,-2.0,3.0
1701873446.9039178,3.0,-7.0,4.0,-1.0,3.0,-5.0,-7.0,-1.0
1701873446.9039178,-5.0,-8.0,2.0,3.0,-1.0,3.0,1.0,-5.0
1701873446.9039178,-4.0,16.0,-7.0,-8.0,-7.0,-4.0,-1.0,0.0
1701873446.9039178,2.0,-2.0,0.0,-2.0,3.0,0.0,3.0,2.0
1701873446.9142554,-6.0,-9.0,1.0,1.0,-1.0,0.0,-9.0,-14.0
1701873446.9142554,11.0,34.0,-11.0,-9.0,2.0,3.0,4.0,4.0
1701873446.9142554,-4.0,-1.0,23.0,14.0,2.0,3.0,3.0,5.0
1701873446.9142554,-8.0,-16.0,-19.0,-6.0,-5.0,-2.0,-3.0,-6.0
1701873446.9339216,4.0,0.0,-5.0,-3.0,-2.0,-1.0,-2.0,1.0
1701873446.9339216,-17.0,-21.0,-18.0,-5.0,-3.0,-5.0,-7.0,-14.0
1701873446.943923,-8.0,-13.0,4.0,-1.0,0.0,-2.0,-4.0,0.0
1701873446.943923,3.0,16.0,17.0,8.0,4.0,5.0,6.0,0.0
1701873446.9542341,1.0,-3.0,1.0,7.0,-2.0,8.0,17.0,9.0
1701873446.9542341,-8.0,3.0,5.0,-1.0,-2.0,-1.0,2.0,1.0
1701873446.9542341,8.0,-13.0,-22.0,-9.0,-4.0,-4.0,-7.0,-9.0
1701873446.9542341,-1.0,5.0,0.0,2.0,-1.0,-4.0,-6.0,0.0
1701873446.9741502,0.0,-4.0,2.0,4.0,0.0,-4.0,-3.0,3.0
1701873446.9741502,-14.0,2.0,6.0,-6.0,-2.0,-5.0,-6.0,-18.0
1701873446.9741502,0.0,-1.0,-1.0,-4.0,1.0,-1.0,6.0,2.0
1701873446.9741502,1.0,4.0,8.0,2.0,-3.0,-1.0,-4.0,-5.0
1701873447.003918,2.0,-1.0,-6.0,-2.0,-2.0,-3.0,1.0,6.0
1701873447.003918,1.0,-13.0,-17.0,2.0,6.0,0.0,-2.0,2.0
1701873447.003918,4.0,18.0,20.0,7.0,2.0,0.0,0.0,1.0
1701873447.003918,-2.0,-3.0,-2.0,-3.0,-6.0,-3.0,-1.0,-3.0
1701873447.014157,-6.0,-6.0,-3.0,-4.0,-8.0,-5.0,-4.0,-5.0
1701873447.014157,5.0,8.0,-2.0,-9.0,-2.0,2.0,-1.0,5.0
1701873447.014157,5.0,11.0,16.0,6.0,1.0,3.0,1.0,1.0
1701873447.014157,-6.0,-19.0,-50.0,-16.0,-1.0,2.0,0.0,-3.0
1701873447.0339205,-6.0,14.0,75.0,43.0,-1.0,-8.0,-4.0,0.0
1701873447.0339205,3.0,-4.0,-36.0,-24.0,4.0,-2.0,-11.0,-1.0
1701873447.0339205,9.0,-3.0,-8.0,-9.0,4.0,3.0,10.0,4.0
1701873447.0339205,-26.0,-1.0,-9.0,-9.0,-6.0,-1.0,4.0,-5.0
1701873447.0539167,-4.0,-5.0,-18.0,-9.0,0.0,-3.0,-8.0,-6.0
1701873447.0539167,0.0,-2.0,9.0,6.0,-7.0,-4.0,-2.0,-7.0
1701873447.0539167,-10.0,-7.0,12.0,5.0,0.0,-1.0,-8.0,-3.0
1701873447.0639195,7.0,13.0,21.0,4.0,3.0,2.0,0.0,0.0
1701873447.0739224,-8.0,-25.0,-36.0,-14.0,-3.0,-2.0,4.0,2.0
1701873447.0739224,-4.0,8.0,17.0,4.0,-3.0,-4.0,-8.0,-2.0
1701873447.0739224,2.0,-1.0,-8.0,-1.0,2.0,2.0,0.0,1.0
1701873447.0739224,7.0,-1.0,9.0,7.0,-1.0,-3.0,-2.0,-3.0
1701873447.0942643,6.0,18.0,-11.0,-6.0,-2.0,1.0,-3.0,-2.0
1701873447.0942643,5.0,1.0,3.0,5.0,1.0,-1.0,5.0,5.0
1701873447.0942643,-2.0,-12.0,-7.0,-3.0,-3.0,1.0,0.0,-2.0
1701873447.0942643,6.0,7.0,20.0,8.0,3.0,2.0,1.0,3.0
1701873447.11392,-6.0,-7.0,-9.0,-10.0,-2.0,-1.0,-4.0,0.0
1701873447.11392,-2.0,-9.0,10.0,14.0,0.0,1.0,4.0,1.0
1701873447.1239228,0.0,-9.0,-36.0,-20.0,-3.0,-2.0,-3.0,-4.0
1701873447.1239228,-1.0,7.0,20.0,15.0,4.0,-2.0,-6.0,1.0
1701873447.133921,-16.0,-7.0,-17.0,-15.0,-2.0,-3.0,-3.0,-5.0
1701873447.133921,-1.0,13.0,9.0,5.0,-2.0,1.0,6.0,-6.0
1701873447.133921,0.0,10.0,15.0,8.0,-3.0,-2.0,-3.0,10.0
1701873447.133921,5.0,-18.0,-3.0,1.0,-3.0,1.0,4.0,-4.0
1701873447.153918,-7.0,-29.0,-21.0,-12.0,-5.0,-4.0,-2.0,-2.0
1701873447.153918,-2.0,-2.0,0.0,0.0,-2.0,-4.0,-7.0,0.0
1701873447.153918,-3.0,6.0,13.0,7.0,-1.0,-9.0,-13.0,1.0
1701873447.153918,-6.0,-8.0,-35.0,-21.0,-5.0,3.0,13.0,-2.0
1701873447.1743386,15.0,22.0,23.0,14.0,7.0,3.0,-12.0,6.0
1701873447.1743386,-11.0,-14.0,-17.0,-6.0,-3.0,5.0,22.0,-3.0
1701873447.1839213,1.0,-3.0,-1.0,-1.0,-1.0,-2.0,-5.0,0.0
1701873447.1839213,-3.0,-1.0,13.0,1.0,-3.0,-9.0,-15.0,-4.0
1701873447.194333,5.0,-2.0,-24.0,-14.0,-2.0,1.0,2.0,-1.0
1701873447.194333,-3.0,-9.0,0.0,0.0,-7.0,-9.0,-13.0,-2.0
1701873447.194333,-5.0,-8.0,16.0,10.0,-3.0,-3.0,4.0,-6.0
1701873447.194333,4.0,2.0,-14.0,-1.0,2.0,3.0,1.0,4.0
1701873447.2139182,-6.0,-4.0,10.0,13.0,5.0,3.0,3.0,-6.0
1701873447.2139182,-1.0,-17.0,-56.0,-47.0,11.0,8.0,0.0,6.0
1701873447.2139182,-3.0,2.0,41.0,30.0,-1.0,2.0,6.0,0.0
1701873447.2139182,0.0,1.0,4.0,0.0,-2.0,-8.0,-10.0,-4.0
1701873447.243922,4.0,-23.0,-29.0,-15.0,-5.0,-2.0,1.0,-2.0
1701873447.243922,-2.0,1.0,14.0,11.0,-6.0,-6.0,-5.0,1.0
1701873447.243922,3.0,-3.0,-35.0,-34.0,-5.0,4.0,2.0,-2.0
1701873447.243922,4.0,5.0,5.0,0.0,-3.0,-3.0,-3.0,2.0
1701873447.2542176,-4.0,4.0,19.0,14.0,1.0,0.0,2.0,-6.0
1701873447.2542176,4.0,-12.0,-1.0,8.0,3.0,1.0,-1.0,3.0
1701873447.2542176,1.0,9.0,-21.0,-17.0,-2.0,0.0,2.0,4.0
1701873447.2542176,-2.0,-5.0,18.0,9.0,0.0,0.0,-4.0,-6.0
1701873447.2972383,3.0,14.0,10.0,3.0,2.0,0.0,3.0,0.0
1701873447.2972383,6.0,23.0,27.0,15.0,2.0,2.0,2.0,-2.0
1701873447.2972383,-16.0,-33.0,-10.0,-11.0,-11.0,-11.0,-7.0,-8.0
1701873447.2972383,0.0,0.0,12.0,0.0,-2.0,0.0,1.0,4.0
1701873447.3034909,0.0,0.0,-10.0,-7.0,0.0,-2.0,-5.0,1.0
1701873447.3034909,11.0,21.0,23.0,7.0,0.0,-3.0,2.0,3.0
1701873447.3055081,0.0,-7.0,-6.0,7.0,4.0,1.0,-10.0,-3.0
1701873447.3055081,-8.0,-6.0,-10.0,-7.0,-2.0,2.0,13.0,-4.0
1701873447.3165925,-4.0,21.0,6.0,-3.0,-5.0,1.0,3.0,3.0
1701873447.3165925,-6.0,-11.0,-10.0,-6.0,-6.0,-5.0,-8.0,-7.0
1701873447.3165925,-2.0,5.0,25.0,20.0,8.0,3.0,0.0,-4.0
1701873447.3165925,-6.0,-1.0,-10.0,-10.0,4.0,2.0,-2.0,0.0
1701873447.3465886,-1.0,-22.0,-3.0,5.0,-2.0,-3.0,-3.0,-4.0
1701873447.3465886,-2.0,-9.0,-17.0,-6.0,2.0,3.0,4.0,-1.0
1701873447.3465886,0.0,1.0,-13.0,-4.0,8.0,2.0,2.0,1.0
1701873447.3465886,2.0,2.0,6.0,1.0,-5.0,-4.0,-2.0,-2.0
1701873447.3566372,-5.0,-7.0,-2.0,-6.0,-6.0,-3.0,0.0,-1.0
1701873447.3566372,-2.0,-3.0,-6.0,-5.0,-9.0,-6.0,-7.0,0.0
1701873447.3566372,7.0,12.0,25.0,10.0,-4.0,-4.0,3.0,3.0
1701873447.3566372,1.0,-5.0,-6.0,6.0,0.0,1.0,2.0,-3.0
1701873447.3768413,0.0,1.0,0.0,-8.0,0.0,1.0,-3.0,-2.0
1701873447.3768413,-10.0,-14.0,4.0,-1.0,-3.0,-4.0,-9.0,-2.0
1701873447.3768413,10.0,14.0,9.0,3.0,3.0,1.0,1.0,-1.0
1701873447.3768413,-10.0,-8.0,-27.0,-12.0,-2.0,-8.0,-13.0,-7.0
1701873447.4065895,-13.0,-25.0,-4.0,-4.0,-4.0,0.0,4.0,-7.0
1701873447.4065895,9.0,2.0,-3.0,0.0,-1.0,2.0,4.0,2.0
1701873447.4065895,-9.0,5.0,9.0,3.0,0.0,1.0,-3.0,5.0
1701873447.4065895,3.0,1.0,-7.0,-10.0,2.0,3.0,-4.0,-6.0
1701873447.4165888,-1.0,-5.0,0.0,9.0,-1.0,-12.0,-23.0,-3.0
1701873447.4165888,-2.0,-1.0,-2.0,-7.0,-3.0,6.0,18.0,1.0
1701873447.4165888,1.0,3.0,-7.0,-7.0,-3.0,-3.0,-3.0,-1.0
1701873447.4165888,-6.0,-17.0,2.0,9.0,8.0,15.0,22.0,-6.0
1701873447.4465873,-1.0,5.0,-15.0,-12.0,4.0,3.0,1.0,1.0
1701873447.4465873,9.0,-7.0,11.0,4.0,-2.0,-4.0,-7.0,8.0
1701873447.4465873,-2.0,7.0,-6.0,-5.0,-7.0,-7.0,-5.0,-9.0
1701873447.4465873,5.0,5.0,17.0,10.0,-2.0,0.0,-7.0,0.0
1701873447.4567964,9.0,17.0,-11.0,-13.0,-2.0,1.0,3.0,2.0
1701873447.4567964,-10.0,-10.0,3.0,6.0,2.0,-1.0,-7.0,-12.0
1701873447.4567964,7.0,-21.0,-29.0,-12.0,-6.0,-4.0,-7.0,1.0
1701873447.4567964,-8.0,21.0,17.0,12.0,3.0,1.0,-5.0,3.0
1701873447.47686,-7.0,-18.0,11.0,1.0,0.0,5.0,12.0,4.0
1701873447.47686,3.0,15.0,-11.0,-4.0,-1.0,-5.0,-9.0,-10.0
1701873447.47686,-20.0,-26.0,-8.0,-5.0,-1.0,2.0,3.0,-14.0
1701873447.47686,27.0,44.0,10.0,1.0,-1.0,-3.0,3.0,17.0
1701873447.5165896,7.0,-4.0,1.0,0.0,-2.0,0.0,-1.0,17.0
1701873447.5165896,13.0,7.0,-1.0,2.0,2.0,7.0,9.0,7.0
1701873447.5165896,-3.0,18.0,23.0,8.0,0.0,3.0,-3.0,-18.0
1701873447.5165896,-13.0,-21.0,-21.0,-11.0,-8.0,-14.0,-17.0,-12.0
1701873447.5165896,-5.0,6.0,6.0,4.0,0.0,-4.0,-8.0,-2.0
1701873447.5165896,-2.0,2.0,9.0,4.0,0.0,-2.0,-13.0,3.0
1701873447.5165896,2.0,-8.0,-22.0,-10.0,0.0,7.0,27.0,9.0
1701873447.5165896,5.0,11.0,10.0,3.0,-2.0,-3.0,-6.0,4.0
1701873447.5369518,0.0,10.0,10.0,8.0,-3.0,-4.0,-6.0,-3.0
1701873447.5369518,-11.0,-4.0,-18.0,-12.0,-7.0,-8.0,-7.0,-9.0
1701873447.5369518,5.0,3.0,1.0,-3.0,9.0,8.0,1.0,6.0
1701873447.5369518,-9.0,-20.0,-8.0,1.0,6.0,3.0,0.0,1.0
1701873447.556626,0.0,4.0,16.0,13.0,-1.0,-4.0,3.0,-6.0
1701873447.556626,-1.0,3.0,20.0,3.0,-3.0,-7.0,-9.0,-2.0
1701873447.556626,1.0,-8.0,-43.0,-23.0,-9.0,-4.0,1.0,1.0
1701873447.556626,-12.0,-18.0,19.0,10.0,1.0,0.0,5.0,2.0
1701873447.5768847,-2.0,-9.0,-35.0,-21.0,-4.0,1.0,-5.0,-5.0
1701873447.5768847,-11.0,-10.0,50.0,26.0,-2.0,-2.0,0.0,-5.0
1701873447.5768847,-1.0,2.0,22.0,32.0,6.0,0.0,-1.0,-4.0
1701873447.5768847,-1.0,-11.0,-29.0,-20.0,-6.0,0.0,-2.0,-1.0
1701873447.6269515,2.0,4.0,-6.0,-15.0,-4.0,-3.0,-1.0,-3.0
1701873447.6269515,5.0,18.0,-18.0,-11.0,-1.0,-2.0,-2.0,8.0
1701873447.6269515,-12.0,-15.0,-11.0,-11.0,-5.0,-2.0,2.0,5.0
1701873447.6269515,-8.0,3.0,15.0,10.0,2.0,-10.0,-24.0,-23.0
1701873447.6269515,1.0,3.0,2.0,6.0,0.0,11.0,23.0,0.0
1701873447.6269515,5.0,-3.0,-23.0,-20.0,-4.0,-4.0,-7.0,0.0
1701873447.6269515,4.0,12.0,13.0,10.0,10.0,7.0,3.0,-3.0
1701873447.6269515,4.0,-46.0,-22.0,-11.0,-9.0,-8.0,10.0,11.0
1701873447.6372344,-3.0,10.0,4.0,-3.0,-5.0,-18.0,-25.0,-8.0
1701873447.6372344,-2.0,-3.0,-2.0,5.0,2.0,8.0,10.0,-7.0
1701873447.6372344,6.0,14.0,-1.0,3.0,0.0,-9.0,-21.0,-2.0
1701873447.6372344,7.0,3.0,0.0,-14.0,-7.0,6.0,21.0,13.0
1701873447.6769574,2.0,6.0,-2.0,9.0,8.0,7.0,3.0,-3.0
1701873447.6769574,25.0,69.0,30.0,13.0,1.0,-1.0,-7.0,2.0
1701873447.6769574,-31.0,-83.0,-33.0,-15.0,-14.0,-13.0,-11.0,-12.0
1701873447.6769574,-27.0,3.0,-7.0,-6.0,2.0,-4.0,-7.0,-5.0
1701873447.6769574,20.0,16.0,6.0,7.0,2.0,0.0,8.0,15.0
1701873447.6769574,-10.0,-20.0,-10.0,-3.0,5.0,15.0,21.0,4.0
1701873447.6769574,17.0,46.0,21.0,5.0,1.0,0.0,-1.0,1.0
1701873447.6769574,3.0,12.0,-6.0,-7.0,-5.0,-2.0,-9.0,-6.0
1701873447.6973672,-7.0,-13.0,-22.0,-19.0,0.0,2.0,1.0,2.0
1701873447.6973672,-13.0,-34.0,12.0,21.0,2.0,-3.0,-3.0,-4.0
1701873447.6973672,-2.0,1.0,25.0,5.0,-5.0,-5.0,-1.0,2.0
1701873447.6973672,4.0,-3.0,-6.0,-2.0,-1.0,2.0,3.0,1.0
1701873447.7169528,0.0,3.0,-1.0,1.0,6.0,2.0,-4.0,-8.0
1701873447.7169528,-4.0,-17.0,-41.0,-24.0,-5.0,-8.0,-8.0,-8.0
1701873447.7273257,-5.0,4.0,5.0,-1.0,2.0,13.0,14.0,3.0
1701873447.7273257,7.0,14.0,4.0,-3.0,2.0,-3.0,-13.0,1.0
1701873447.7373478,-4.0,-7.0,1.0,10.0,-3.0,-3.0,9.0,-7.0
1701873447.7373478,-3.0,-6.0,-7.0,-6.0,0.0,-1.0,-4.0,0.0
1701873447.7373478,5.0,28.0,14.0,4.0,0.0,-3.0,-2.0,6.0
1701873447.7373478,18.0,56.0,16.0,10.0,0.0,1.0,2.0,2.0
1701873447.7573433,0.0,-7.0,-5.0,-4.0,-7.0,-5.0,-4.0,6.0
1701873447.7573433,-30.0,-24.0,-5.0,3.0,2.0,2.0,-1.0,-16.0
1701873447.7573433,0.0,0.0,-3.0,-8.0,-1.0,1.0,0.0,-3.0
1701873447.7573433,5.0,-8.0,1.0,5.0,2.0,2.0,2.0,6.0
1701873447.7769523,-13.0,4.0,12.0,0.0,-2.0,-4.0,-6.0,-10.0
1701873447.7769523,12.0,4.0,-22.0,-11.0,-10.0,-7.0,1.0,7.0
1701873447.7769523,-7.0,-8.0,11.0,5.0,5.0,7.0,1.0,2.0
1701873447.7769523,-2.0,-9.0,-8.0,0.0,9.0,4.0,1.0,1.0
1701873447.7973785,1.0,-2.0,8.0,8.0,-5.0,-4.0,-4.0,-1.0
1701873447.7973785,-3.0,-13.0,-8.0,-14.0,-7.0,-4.0,-4.0,-1.0
1701873447.7973785,4.0,5.0,12.0,-2.0,-5.0,-5.0,-5.0,0.0
1701873447.7973785,9.0,-1.0,-21.0,0.0,-4.0,2.0,5.0,8.0
1701873447.8212898,6.0,27.0,14.0,4.0,5.0,4.0,1.0,-3.0
1701873447.8212898,-3.0,-12.0,3.0,0.0,2.0,-3.0,-1.0,2.0
1701873447.8225784,-1.0,-8.0,-11.0,4.0,-4.0,-10.0,-10.0,-2.0
1701873447.8225784,-4.0,-6.0,1.0,-5.0,-3.0,2.0,6.0,-8.0
1701873447.8438356,0.0,-6.0,-11.0,-7.0,2.0,4.0,-4.0,4.0
1701873447.844857,-1.0,13.0,7.0,4.0,0.0,-2.0,-2.0,2.0
1701873447.8458521,-3.0,-28.0,-9.0,-7.0,-2.0,-4.0,-2.0,5.0
1701873447.8458521,-10.0,-3.0,-15.0,-6.0,-3.0,-7.0,-11.0,-11.0
1701873447.8497982,0.0,-1.0,7.0,3.0,-1.0,6.0,15.0,5.0
1701873447.8497982,-7.0,-1.0,3.0,2.0,1.0,4.0,2.0,-4.0
1701873447.859997,2.0,3.0,1.0,1.0,-4.0,-2.0,-3.0,-2.0
1701873447.859997,-2.0,-5.0,3.0,0.0,-1.0,1.0,-2.0,-1.0
1701873447.8798587,0.0,1.0,6.0,7.0,4.0,0.0,-3.0,-1.0
1701873447.8798587,6.0,8.0,7.0,1.0,-1.0,-3.0,0.0,4.0
1701873447.8798587,-7.0,-1.0,-38.0,-21.0,-4.0,0.0,1.0,-5.0
1701873447.8798587,2.0,-2.0,23.0,7.0,-4.0,-3.0,-1.0,2.0
1701873447.8997962,-2.0,-6.0,-2.0,2.0,-4.0,-4.0,-4.0,-6.0
1701873447.8997962,2.0,0.0,2.0,4.0,4.0,1.0,-2.0,-2.0
1701873447.8997962,11.0,2.0,-11.0,-3.0,1.0,1.0,3.0,4.0
1701873447.8997962,4.0,4.0,3.0,-4.0,-4.0,-2.0,-1.0,-4.0
1701873447.9098299,-14.0,3.0,13.0,3.0,3.0,-7.0,-19.0,-5.0
1701873447.9098299,-9.0,-35.0,-22.0,-13.0,-8.0,-5.0,10.0,-1.0
1701873447.9200988,17.0,28.0,8.0,4.0,2.0,7.0,8.0,4.0
1701873447.9200988,-5.0,-5.0,2.0,-3.0,-3.0,-3.0,-7.0,2.0
1701873447.9398541,-3.0,14.0,14.0,4.0,-3.0,-9.0,-7.0,-11.0
1701873447.9398541,13.0,17.0,-6.0,-7.0,-1.0,11.0,10.0,-3.0
1701873447.9398541,5.0,-10.0,-6.0,8.0,3.0,2.0,0.0,8.0
1701873447.9398541,-3.0,-4.0,6.0,-3.0,-6.0,-12.0,-30.0,-17.0
1701873447.960092,-8.0,-13.0,-26.0,-11.0,-2.0,11.0,25.0,-2.0
1701873447.960092,8.0,26.0,17.0,2.0,0.0,-11.0,-17.0,9.0
1701873447.960092,0.0,-16.0,3.0,2.0,-2.0,1.0,3.0,-7.0
1701873447.960092,5.0,30.0,4.0,6.0,5.0,6.0,4.0,7.0
1701873447.9700875,-10.0,-17.0,-3.0,1.0,-4.0,-8.0,-17.0,-9.0
1701873447.9700875,2.0,-3.0,2.0,6.0,2.0,3.0,-1.0,-4.0
1701873447.9800594,-11.0,16.0,-1.0,-11.0,-6.0,-4.0,4.0,-2.0
1701873447.9800594,5.0,-10.0,8.0,8.0,-1.0,0.0,3.0,5.0
1701873447.9997942,6.0,0.0,-10.0,-4.0,-2.0,-2.0,-6.0,-2.0
1701873447.9997942,2.0,16.0,-3.0,0.0,6.0,15.0,19.0,7.0
1701873447.9997942,-4.0,1.0,11.0,5.0,5.0,-8.0,-12.0,0.0
1701873447.9997942,-14.0,-37.0,-20.0,-11.0,-5.0,-4.0,-2.0,-4.0
1701873448.0201802,9.0,-4.0,-1.0,-5.0,-9.0,-8.0,10.0,2.0
1701873448.0201802,0.0,-1.0,-10.0,-3.0,0.0,25.0,32.0,6.0
1701873448.0201802,-10.0,-2.0,24.0,14.0,4.0,2.0,-10.0,-5.0
1701873448.0201802,-11.0,-26.0,-35.0,-14.0,-4.0,-4.0,-4.0,-23.0
1701873448.029856,13.0,-1.0,3.0,0.0,-2.0,-8.0,-16.0,12.0
1701873448.029856,-4.0,-8.0,-3.0,-1.0,-1.0,-13.0,-18.0,-11.0
1701873448.0400653,-2.0,11.0,12.0,-1.0,-4.0,4.0,10.0,-1.0
1701873448.0400653,-1.0,-25.0,-27.0,-12.0,-7.0,-6.0,-1.0,1.0
1701873448.05983,-4.0,-2.0,12.0,6.0,5.0,3.0,-3.0,-1.0
1701873448.05983,3.0,7.0,5.0,-1.0,-2.0,-9.0,-7.0,5.0
1701873448.05983,0.0,3.0,8.0,6.0,3.0,8.0,7.0,-2.0
1701873448.05983,13.0,20.0,2.0,-1.0,4.0,0.0,-7.0,8.0
1701873448.0801294,-11.0,-7.0,-12.0,-4.0,-1.0,2.0,11.0,-4.0
1701873448.0801294,-9.0,1.0,21.0,6.0,-3.0,-6.0,-9.0,-4.0
1701873448.0801294,-1.0,-17.0,-29.0,-19.0,-14.0,-16.0,-21.0,-8.0
1701873448.0801294,3.0,1.0,7.0,3.0,-2.0,12.0,26.0,10.0
1701873448.0900915,-7.0,-25.0,0.0,11.0,9.0,15.0,9.0,2.0
1701873448.0900915,2.0,1.0,-10.0,0.0,8.0,-3.0,-5.0,0.0
1701873448.1100898,-1.0,-6.0,-18.0,-18.0,2.0,-1.0,-5.0,0.0
1701873448.1100898,-6.0,0.0,24.0,12.0,-1.0,-4.0,-3.0,-3.0
1701873448.1198144,-3.0,5.0,3.0,1.0,-13.0,-9.0,0.0,-3.0
1701873448.1198144,-6.0,-14.0,-13.0,-13.0,-1.0,-4.0,-10.0,-6.0
1701873448.129795,-2.0,-4.0,-13.0,-13.0,0.0,-1.0,-4.0,5.0
1701873448.129795,-1.0,5.0,-16.0,-18.0,-2.0,-1.0,6.0,-3.0
1701873448.1398308,16.0,-12.0,28.0,17.0,-4.0,-2.0,-1.0,0.0
1701873448.1398308,-12.0,11.0,-12.0,-11.0,-8.0,-10.0,-14.0,1.0
1701873448.1398308,-3.0,0.0,-13.0,-1.0,-5.0,-1.0,17.0,-20.0
1701873448.1398308,-12.0,12.0,7.0,3.0,8.0,-4.0,-28.0,4.0
1701873448.1498575,13.0,34.0,-8.0,-2.0,7.0,15.0,30.0,15.0
1701873448.1498575,-3.0,7.0,-3.0,-8.0,-6.0,-4.0,-16.0,-6.0
1701873448.1597965,0.0,-11.0,3.0,-2.0,-4.0,-6.0,3.0,-3.0
1701873448.1597965,-3.0,3.0,5.0,11.0,0.0,-18.0,-38.0,-6.0
1701873448.189794,-2.0,-4.0,-14.0,-9.0,-3.0,0.0,24.0,5.0
1701873448.189794,6.0,12.0,16.0,5.0,0.0,27.0,25.0,8.0
1701873448.189794,-11.0,-29.0,-2.0,7.0,2.0,-10.0,-29.0,1.0
1701873448.189794,6.0,-12.0,4.0,4.0,-4.0,0.0,26.0,4.0
1701873448.200026,2.0,8.0,-6.0,-3.0,2.0,-13.0,-30.0,-2.0
1701873448.200026,4.0,-4.0,15.0,14.0,-2.0,-1.0,23.0,-4.0
1701873448.200026,13.0,26.0,-19.0,-20.0,-2.0,18.0,29.0,15.0
1701873448.200026,-8.0,-5.0,8.0,0.0,-3.0,-6.0,-6.0,-9.0
1701873448.2397957,-6.0,-11.0,-3.0,-12.0,-5.0,-17.0,-33.0,0.0
1701873448.2397957,5.0,-8.0,-9.0,5.0,3.0,27.0,49.0,3.0
1701873448.2397957,3.0,15.0,29.0,25.0,1.0,-13.0,-23.0,-1.0
1701873448.2397957,-8.0,-5.0,3.0,0.0,-4.0,-7.0,-9.0,-4.0
1701873448.2397957,-4.0,4.0,-7.0,3.0,3.0,-1.0,-13.0,-3.0
1701873448.2397957,-11.0,12.0,0.0,-6.0,-5.0,-17.0,-24.0,-15.0
1701873448.2397957,16.0,40.0,17.0,5.0,3.0,6.0,8.0,7.0
1701873448.2397957,-27.0,-55.0,-27.0,-4.0,-4.0,5.0,11.0,-7.0
1701873448.2600682,-3.0,-1.0,-4.0,-16.0,-5.0,-2.0,0.0,-3.0
1701873448.2600682,3.0,1.0,-11.0,-8.0,-5.0,-11.0,-13.0,1.0
1701873448.2600682,1.0,12.0,36.0,37.0,11.0,7.0,8.0,3.0
1701873448.2600682,-5.0,4.0,20.0,5.0,-2.0,1.0,2.0,-6.0
1701873448.299794,5.0,1.0,-52.0,-30.0,-3.0,7.0,7.0,2.0
1701873448.299794,-9.0,-8.0,47.0,33.0,-8.0,-21.0,-19.0,-6.0
1701873448.299794,4.0,14.0,-13.0,-19.0,-1.0,3.0,-1.0,1.0
1701873448.299794,12.0,-1.0,-16.0,-14.0,-1.0,4.0,9.0,8.0
1701873448.299794,-12.0,-14.0,19.0,20.0,1.0,-2.0,-2.0,-12.0
1701873448.299794,-4.0,-3.0,-4.0,-6.0,5.0,-3.0,-11.0,0.0
1701873448.299794,-10.0,-24.0,-23.0,-9.0,-12.0,-6.0,1.0,-6.0
1701873448.299794,9.0,15.0,1.0,-1.0,3.0,3.0,5.0,7.0
1701873448.3201838,2.0,0.0,-12.0,-21.0,5.0,11.0,5.0,3.0
1701873448.3201838,-7.0,-10.0,14.0,25.0,-1.0,-10.0,-17.0,-6.0
1701873448.3201838,6.0,-17.0,-9.0,-1.0,-2.0,-4.0,-1.0,0.0
1701873448.3201838,9.0,22.0,-15.0,-19.0,-7.0,-1.0,5.0,7.0
1701873448.345834,-5.0,5.0,14.0,12.0,2.0,-2.0,-4.0,-11.0
1701873448.345834,-2.0,-14.0,-16.0,5.0,-1.0,1.0,-4.0,-4.0
1701873448.3476944,-1.0,-11.0,-9.0,2.0,1.0,-1.0,-1.0,-2.0
1701873448.3476944,-2.0,18.0,5.0,-11.0,0.0,5.0,3.0,-3.0
1701873448.3607044,4.0,-11.0,-5.0,-9.0,-3.0,4.0,2.0,4.0
1701873448.3617532,-1.0,20.0,-4.0,-15.0,5.0,0.0,-2.0,3.0
1701873448.3659265,-11.0,-31.0,-20.0,-3.0,-8.0,-6.0,-7.0,-19.0
1701873448.3659265,13.0,18.0,25.0,11.0,0.0,2.0,5.0,9.0
1701873448.376205,7.0,-16.0,-25.0,12.0,-3.0,-7.0,-6.0,0.0
1701873448.376205,1.0,-6.0,-19.0,-26.0,-4.0,-1.0,-5.0,-6.0
1701873448.3859777,-13.0,-6.0,-3.0,-7.0,0.0,-3.0,-3.0,2.0
1701873448.3859777,7.0,7.0,24.0,19.0,7.0,0.0,-10.0,-12.0
1701873448.4159262,-8.0,-42.0,-10.0,-6.0,0.0,2.0,15.0,18.0
1701873448.4159262,5.0,25.0,15.0,-2.0,-1.0,8.0,12.0,0.0
1701873448.4159262,-22.0,-21.0,-29.0,-10.0,-4.0,-2.0,-5.0,-18.0
1701873448.4159262,3.0,6.0,20.0,10.0,5.0,3.0,0.0,4.0
1701873448.4159262,2.0,0.0,-16.0,-1.0,-3.0,-6.0,-1.0,6.0
1701873448.4159262,-10.0,25.0,27.0,5.0,3.0,1.0,-4.0,-19.0
1701873448.4259474,-10.0,-18.0,-3.0,-3.0,-4.0,1.0,6.0,7.0
1701873448.4259474,-8.0,-8.0,-13.0,-10.0,-4.0,-3.0,-1.0,-7.0
1701873448.4459236,-8.0,17.0,17.0,1.0,1.0,-1.0,-8.0,-7.0
1701873448.4459236,1.0,-13.0,-5.0,-3.0,-2.0,-4.0,-3.0,8.0
1701873448.4459236,-11.0,6.0,17.0,3.0,-3.0,-3.0,-6.0,-6.0
1701873448.4459236,-13.0,-28.0,-21.0,-1.0,0.0,3.0,6.0,4.0
1701873448.466336,-8.0,-6.0,-7.0,-9.0,-6.0,-6.0,-6.0,-11.0
1701873448.466336,8.0,-26.0,-5.0,1.0,0.0,-2.0,0.0,9.0
1701873448.466336,-12.0,-5.0,-10.0,-5.0,-2.0,-2.0,-4.0,-5.0
1701873448.466336,12.0,12.0,21.0,14.0,-6.0,-3.0,0.0,3.0
1701873448.4763758,-21.0,-14.0,-33.0,-13.0,5.0,4.0,3.0,-5.0
1701873448.4763758,8.0,-13.0,-19.0,-8.0,-5.0,-3.0,-4.0,-3.0
1701873448.486775,13.0,6.0,0.0,-7.0,-3.0,-4.0,0.0,8.0
1701873448.486775,7.0,15.0,0.0,0.0,2.0,7.0,7.0,2.0
1701873448.5063868,3.0,31.0,27.0,16.0,3.0,3.0,-3.0,1.0
1701873448.5063868,-14.0,-18.0,-9.0,1.0,4.0,-6.0,-9.0,-6.0
1701873448.5063868,2.0,4.0,28.0,10.0,-11.0,-5.0,1.0,0.0
1701873448.5063868,6.0,8.0,-10.0,-2.0,1.0,6.0,10.0,6.0
1701873448.5263917,-2.0,-15.0,-2.0,-14.0,-4.0,-2.0,-9.0,-4.0
1701873448.5263917,-2.0,-17.0,13.0,18.0,-1.0,-5.0,-4.0,0.0
1701873448.5263917,2.0,-17.0,-21.0,-9.0,-3.0,-4.0,-6.0,4.0
1701873448.5263917,-11.0,-8.0,-13.0,-7.0,4.0,-3.0,-8.0,-21.0
1701873448.536392,0.0,-5.0,2.0,-5.0,-5.0,-1.0,1.0,1.0
1701873448.536392,-1.0,-4.0,-21.0,-17.0,-6.0,-5.0,1.0,3.0
1701873448.546649,-4.0,-1.0,1.0,0.0,6.0,3.0,3.0,-3.0
1701873448.546649,8.0,-5.0,-5.0,3.0,-3.0,1.0,-2.0,1.0
1701873448.5663936,-5.0,9.0,23.0,22.0,5.0,3.0,2.0,-2.0
1701873448.5663936,-2.0,1.0,-32.0,-28.0,-7.0,-2.0,-3.0,-5.0
1701873448.5663936,4.0,14.0,7.0,13.0,5.0,3.0,1.0,3.0
1701873448.5663936,1.0,-3.0,-25.0,-31.0,5.0,2.0,6.0,6.0
1701873448.5863962,11.0,6.0,11.0,4.0,-10.0,-8.0,-5.0,-9.0
1701873448.5863962,-10.0,2.0,20.0,16.0,4.0,1.0,0.0,-2.0
1701873448.5863962,6.0,2.0,-17.0,-11.0,-5.0,-2.0,-3.0,8.0
1701873448.5863962,-2.0,-3.0,9.0,5.0,-7.0,-4.0,-4.0,-1.0
1701873448.5966368,19.0,18.0,-18.0,-12.0,-3.0,-2.0,-1.0,-7.0
1701873448.5966368,9.0,5.0,6.0,5.0,-1.0,-2.0,-6.0,14.0
1701873448.6263864,-12.0,11.0,11.0,5.0,5.0,4.0,6.0,-12.0
1701873448.6263864,-8.0,-4.0,-3.0,4.0,-3.0,-5.0,-4.0,-1.0
1701873448.6263864,4.0,-5.0,9.0,2.0,0.0,-1.0,2.0,9.0
1701873448.6263864,8.0,-14.0,-22.0,-7.0,-2.0,-2.0,0.0,5.0
1701873448.6263864,8.0,34.0,15.0,-1.0,8.0,11.0,6.0,1.0
1701873448.6263864,-10.0,-7.0,2.0,4.0,-1.0,-7.0,-9.0,-7.0
1701873448.6463897,-1.0,6.0,6.0,0.0,1.0,-2.0,0.0,-4.0
1701873448.6463897,3.0,-1.0,-5.0,-5.0,-2.0,-8.0,-12.0,-5.0
1701873448.6463897,-19.0,-14.0,8.0,4.0,-1.0,1.0,2.0,-1.0
1701873448.6463897,3.0,-3.0,7.0,8.0,2.0,10.0,12.0,6.0
1701873448.656676,11.0,37.0,3.0,3.0,9.0,17.0,18.0,19.0
1701873448.656676,-4.0,-1.0,-2.0,-2.0,-7.0,-9.0,-12.0,-14.0
1701873448.6664999,1.0,-1.0,5.0,6.0,-3.0,-5.0,-6.0,-2.0
1701873448.6664999,-3.0,6.0,6.0,2.0,0.0,-3.0,-3.0,2.0
1701873448.6863906,-12.0,-16.0,-7.0,1.0,1.0,-3.0,-3.0,-4.0
1701873448.6863906,-6.0,-18.0,2.0,-6.0,-4.0,1.0,2.0,-2.0
1701873448.6863906,14.0,-14.0,-17.0,-11.0,-5.0,-8.0,-8.0,8.0
1701873448.6863906,5.0,25.0,5.0,4.0,0.0,1.0,-2.0,-4.0
1701873448.706439,-11.0,-19.0,12.0,1.0,-4.0,-3.0,-4.0,-7.0
1701873448.706439,-15.0,-9.0,-19.0,-4.0,0.0,5.0,6.0,-3.0
1701873448.706439,3.0,2.0,15.0,14.0,3.0,-1.0,-9.0,0.0
1701873448.706439,-2.0,-3.0,-38.0,-24.0,-4.0,-3.0,7.0,-1.0
1701873448.7168038,2.0,0.0,12.0,13.0,-2.0,-4.0,-5.0,-5.0
1701873448.7168038,2.0,9.0,-2.0,-6.0,2.0,-2.0,6.0,6.0
1701873448.7263892,2.0,0.0,-6.0,1.0,4.0,10.0,7.0,-1.0
1701873448.7263892,-4.0,-4.0,7.0,3.0,1.0,-4.0,-4.0,-1.0
1701873448.73642,4.0,0.0,-14.0,-7.0,-6.0,-7.0,-8.0,-4.0
1701873448.73642,-3.0,-5.0,4.0,2.0,-6.0,-5.0,-6.0,-4.0
1701873448.73642,-3.0,0.0,-8.0,-11.0,-3.0,-2.0,0.0,-4.0
1701873448.73642,18.0,22.0,10.0,12.0,7.0,15.0,21.0,11.0
1701873448.7664418,-10.0,-10.0,-6.0,-12.0,-4.0,-6.0,-6.0,-5.0
1701873448.7664418,-4.0,-21.0,5.0,10.0,1.0,1.0,-1.0,-3.0
1701873448.7664418,7.0,0.0,-5.0,-21.0,-4.0,-6.0,-9.0,1.0
1701873448.7664418,-5.0,-11.0,-14.0,1.0,-4.0,-5.0,-9.0,-4.0
1701873448.776774,-3.0,1.0,6.0,-2.0,-2.0,2.0,0.0,0.0
1701873448.776774,-1.0,7.0,2.0,-4.0,-2.0,2.0,3.0,4.0
1701873448.7863874,0.0,-3.0,-7.0,-7.0,-7.0,-4.0,2.0,12.0
1701873448.7863874,-7.0,-6.0,5.0,10.0,1.0,-4.0,-11.0,-19.0
1701873448.79642,-1.0,2.0,3.0,6.0,2.0,0.0,2.0,0.0
1701873448.79642,-3.0,0.0,-6.0,4.0,9.0,4.0,0.0,-1.0
1701873448.79642,-9.0,-3.0,2.0,-5.0,-8.0,-3.0,3.0,-2.0
1701873448.79642,-4.0,-4.0,6.0,-3.0,-3.0,-4.0,-3.0,-1.0
1701873448.8263886,1.0,9.0,12.0,-2.0,-7.0,-2.0,-3.0,-2.0
1701873448.8263886,3.0,3.0,-18.0,-11.0,0.0,1.0,4.0,1.0
1701873448.8263886,-2.0,-1.0,19.0,11.0,2.0,-3.0,-3.0,-8.0
1701873448.8263886,-1.0,6.0,2.0,-4.0,-4.0,-4.0,-7.0,0.0
1701873448.8366508,-8.0,-21.0,-25.0,-5.0,-2.0,-3.0,-1.0,-1.0
1701873448.8366508,2.0,18.0,14.0,5.0,4.0,5.0,5.0,6.0
1701873448.8463876,1.0,-3.0,-5.0,4.0,-1.0,0.0,-1.0,-6.0
1701873448.8463876,-9.0,-7.0,0.0,-1.0,-2.0,0.0,1.0,6.0
1701873448.8566444,-2.0,-4.0,-3.0,0.0,3.0,-2.0,-3.0,-5.0
1701873448.8566444,-5.0,-1.0,1.0,-2.0,0.0,0.0,-2.0,-13.0
1701873448.8566444,3.0,-2.0,-10.0,1.0,1.0,1.0,1.0,1.0
1701873448.8566444,12.0,4.0,3.0,-1.0,-3.0,-4.0,-2.0,5.0
1701873448.8861911,-6.0,-4.0,8.0,3.0,1.0,2.0,1.0,1.0
1701873448.8872437,5.0,3.0,-11.0,-8.0,-2.0,-1.0,-1.0,2.0
1701873448.8882453,-4.0,7.0,-9.0,2.0,1.0,-2.0,-2.0,-6.0
1701873448.8882453,-2.0,-11.0,-5.0,-10.0,-5.0,-5.0,-7.0,-2.0
1701873448.9084764,1.0,5.0,1.0,-3.0,-1.0,3.0,4.0,-3.0
1701873448.9084764,2.0,4.0,10.0,8.0,-2.0,-5.0,-8.0,-3.0
1701873448.9084764,3.0,-3.0,3.0,-4.0,2.0,4.0,6.0,4.0
1701873448.9084764,-5.0,-4.0,4.0,5.0,0.0,6.0,8.0,-1.0
1701873448.918467,5.0,18.0,-12.0,-8.0,2.0,3.0,5.0,3.0
1701873448.918467,0.0,4.0,15.0,0.0,-5.0,-2.0,-1.0,-1.0
1701873448.918467,-2.0,-1.0,3.0,6.0,0.0,-4.0,-5.0,0.0
1701873448.918467,-4.0,-9.0,-3.0,-4.0,-6.0,-8.0,-7.0,-7.0
1701873448.9390762,-13.0,1.0,14.0,8.0,4.0,0.0,-7.0,-7.0
1701873448.9390762,-2.0,-8.0,-9.0,-2.0,1.0,0.0,1.0,1.0
1701873448.9390762,-7.0,2.0,-9.0,-4.0,-1.0,5.0,10.0,-2.0
1701873448.9390762,2.0,-3.0,3.0,0.0,2.0,0.0,-1.0,0.0
1701873448.9588118,1.0,-3.0,15.0,9.0,-1.0,-6.0,-6.0,-2.0
1701873448.9588118,-3.0,-3.0,-10.0,-6.0,-2.0,-4.0,-2.0,-1.0
1701873448.9688118,4.0,-3.0,-1.0,-4.0,-5.0,-4.0,-7.0,-3.0
1701873448.9688118,3.0,13.0,5.0,1.0,-3.0,-5.0,-2.0,3.0
1701873448.9790642,0.0,0.0,-19.0,-9.0,-1.0,5.0,5.0,-8.0
1701873448.9790642,-8.0,-34.0,5.0,6.0,-1.0,-4.0,-4.0,1.0
1701873448.9790642,1.0,1.0,9.0,2.0,2.0,-1.0,-2.0,-12.0
1701873448.9790642,0.0,-9.0,-6.0,-5.0,-3.0,-3.0,-2.0,0.0
1701873449.018812,4.0,1.0,1.0,0.0,-3.0,0.0,-1.0,0.0
1701873449.018812,9.0,22.0,-1.0,-1.0,1.0,4.0,4.0,3.0
1701873449.018812,0.0,8.0,25.0,8.0,2.0,-1.0,-4.0,2.0
1701873449.018812,-11.0,-23.0,-25.0,-4.0,-2.0,-5.0,-8.0,-8.0
1701873449.018812,-4.0,-3.0,-3.0,-9.0,-4.0,-5.0,-4.0,0.0
1701873449.018812,4.0,4.0,-1.0,-6.0,-4.0,3.0,8.0,5.0
1701873449.0288105,-2.0,-6.0,-9.0,-4.0,-5.0,-3.0,-5.0,-7.0
1701873449.0288105,0.0,17.0,19.0,10.0,8.0,5.0,0.0,1.0
1701873449.0391977,6.0,-1.0,15.0,15.0,10.0,4.0,1.0,4.0
1701873449.0391977,-19.0,-13.0,-45.0,-30.0,-7.0,-7.0,-7.0,-13.0
1701873449.0391977,4.0,-6.0,3.0,1.0,-3.0,-2.0,2.0,2.0
1701873449.0391977,0.0,-11.0,-4.0,-8.0,-8.0,-5.0,-9.0,-5.0
1701873449.05881,-8.0,0.0,-1.0,-1.0,-2.0,1.0,0.0,-6.0
1701873449.05881,2.0,4.0,17.0,8.0,1.0,-3.0,3.0,7.0
1701873449.05881,-11.0,-5.0,-19.0,-4.0,0.0,-1.0,-1.0,-3.0
1701873449.05881,-10.0,-13.0,-2.0,-13.0,-4.0,-3.0,1.0,-5.0
1701873449.079173,-9.0,-7.0,-5.0,5.0,-2.0,2.0,-3.0,1.0
1701873449.079173,4.0,7.0,18.0,5.0,-2.0,2.0,2.0,1.0
1701873449.0888107,-4.0,-24.0,-19.0,-6.0,-2.0,-4.0,-7.0,1.0
1701873449.0888107,1.0,12.0,1.0,2.0,3.0,4.0,8.0,1.0
1701873449.099145,5.0,12.0,1.0,-5.0,-1.0,-3.0,-6.0,-3.0
1701873449.099145,2.0,3.0,-7.0,-1.0,-2.0,0.0,-1.0,0.0
1701873449.099145,-1.0,-26.0,-5.0,-4.0,-4.0,-3.0,-2.0,-2.0
1701873449.099145,0.0,-2.0,5.0,1.0,-2.0,-4.0,-5.0,-8.0
1701873449.1188107,2.0,1.0,3.0,-1.0,-1.0,-3.0,-3.0,-1.0
1701873449.1188107,-11.0,-8.0,-13.0,-8.0,-1.0,4.0,5.0,-4.0
1701873449.1188107,11.0,18.0,12.0,9.0,5.0,1.0,-1.0,8.0
1701873449.1188107,1.0,-1.0,-15.0,-7.0,-1.0,2.0,2.0,3.0
1701873449.1488633,1.0,0.0,4.0,-2.0,-8.0,-5.0,-1.0,0.0
1701873449.1488633,0.0,-4.0,1.0,2.0,-1.0,-4.0,-10.0,-1.0
1701873449.1488633,8.0,7.0,-6.0,-6.0,-4.0,-1.0,12.0,10.0
1701873449.1488633,-1.0,6.0,15.0,11.0,5.0,3.0,-8.0,-10.0
1701873449.159178,-5.0,-10.0,-14.0,-4.0,2.0,-1.0,-3.0,-1.0
1701873449.159178,0.0,6.0,5.0,3.0,5.0,2.0,2.0,2.0
1701873449.159178,2.0,3.0,3.0,1.0,-2.0,-5.0,-11.0,-3.0
1701873449.159178,-3.0,-12.0,-14.0,-1.0,-6.0,-1.0,9.0,0.0
1701873449.1788123,5.0,4.0,-2.0,-11.0,-8.0,-3.0,-3.0,-2.0
1701873449.1788123,-3.0,1.0,2.0,1.0,-1.0,-1.0,-6.0,-5.0
1701873449.1788123,-16.0,3.0,2.0,2.0,5.0,5.0,7.0,-8.0
1701873449.1788123,4.0,20.0,20.0,11.0,3.0,1.0,-3.0,6.0
1701873449.208857,-7.0,-16.0,-29.0,-18.0,-8.0,-4.0,-2.0,-2.0
1701873449.208857,-3.0,-12.0,7.0,5.0,-4.0,-5.0,-5.0,-8.0
1701873449.208857,12.0,42.0,11.0,3.0,3.0,4.0,-1.0,0.0
1701873449.208857,-1.0,-1.0,-2.0,0.0,1.0,-5.0,-5.0,10.0
1701873449.2191267,-7.0,-9.0,-6.0,-2.0,-4.0,-4.0,3.0,-18.0
1701873449.2191267,15.0,22.0,11.0,6.0,1.0,-6.0,-8.0,5.0
1701873449.2288115,-7.0,-24.0,-14.0,-2.0,-1.0,5.0,8.0,-6.0
1701873449.2288115,-2.0,-4.0,-5.0,-6.0,-1.0,-4.0,-3.0,7.0
1701873449.2488081,4.0,7.0,8.0,5.0,-1.0,1.0,-1.0,-7.0
1701873449.2488081,1.0,-5.0,-9.0,-4.0,3.0,-2.0,-1.0,0.0
1701873449.2488081,-14.0,-2.0,9.0,11.0,2.0,-3.0,-5.0,-2.0
1701873449.2488081,12.0,19.0,-1.0,-4.0,-4.0,-3.0,0.0,-1.0
1701873449.2688906,5.0,-1.0,8.0,-1.0,-3.0,-1.0,-2.0,8.0
1701873449.2688906,-7.0,-13.0,-20.0,-4.0,-7.0,-1.0,7.0,0.0
1701873449.2688906,-3.0,-2.0,0.0,-2.0,-1.0,-1.0,-7.0,-2.0
1701873449.2688906,-4.0,-8.0,-10.0,-8.0,-3.0,-1.0,4.0,-8.0
1701873449.2788146,7.0,14.0,19.0,11.0,4.0,1.0,2.0,14.0
1701873449.2788146,-4.0,-18.0,-2.0,-6.0,1.0,2.0,-2.0,-13.0
1701873449.2888095,-3.0,-9.0,-3.0,-4.0,-6.0,-8.0,-10.0,0.0
1701873449.2888095,-2.0,-25.0,-9.0,-2.0,-6.0,-4.0,2.0,-6.0
1701873449.2991025,4.0,0.0,-15.0,-4.0,0.0,3.0,1.0,0.0
1701873449.2991025,-8.0,10.0,16.0,13.0,1.0,-1.0,1.0,-3.0
1701873449.2991025,1.0,-9.0,-11.0,-18.0,-8.0,-5.0,-4.0,2.0
1701873449.2991025,-10.0,-14.0,-4.0,-1.0,0.0,-3.0,-10.0,-12.0
1701873449.3291714,2.0,3.0,13.0,4.0,8.0,5.0,6.0,3.0
1701873449.3291714,10.0,5.0,-8.0,-2.0,3.0,9.0,4.0,10.0
1701873449.3291714,-7.0,8.0,10.0,8.0,1.0,-7.0,-4.0,-4.0
1701873449.3291714,-3.0,2.0,-5.0,-7.0,-9.0,-4.0,-2.0,0.0
1701873449.3488088,-3.0,-4.0,-9.0,-1.0,-5.0,-6.0,-2.0,-3.0
1701873449.3488088,3.0,1.0,1.0,-1.0,3.0,0.0,-4.0,2.0
1701873449.3488088,-14.0,-3.0,0.0,-5.0,1.0,2.0,-2.0,-8.0
1701873449.3488088,11.0,-12.0,-17.0,-6.0,4.0,5.0,10.0,8.0
1701873449.3590438,-6.0,-6.0,2.0,1.0,-1.0,-5.0,-10.0,-3.0
1701873449.3590438,-4.0,4.0,9.0,1.0,-5.0,-4.0,2.0,0.0
1701873449.3590438,11.0,2.0,-7.0,-1.0,-4.0,-2.0,-3.0,1.0
1701873449.3590438,4.0,5.0,-2.0,-3.0,1.0,8.0,11.0,-1.0
1701873449.3888125,-4.0,-3.0,6.0,1.0,-1.0,-4.0,-5.0,2.0
1701873449.3888125,-2.0,-19.0,-3.0,0.0,-1.0,-2.0,2.0,-2.0
1701873449.3888125,7.0,5.0,-18.0,-9.0,-1.0,-3.0,-5.0,3.0
1701873449.3888125,-6.0,-11.0,-3.0,1.0,-2.0,-11.0,-20.0,-5.0
1701873449.4249544,22.0,46.0,35.0,16.0,6.0,11.0,23.0,9.0
1701873449.4249544,-1.0,17.0,4.0,-11.0,-3.0,-2.0,-6.0,-3.0
1701873449.4249544,-11.0,-50.0,-49.0,-15.0,-8.0,-9.0,-6.0,-2.0
1701873449.4249544,-2.0,7.0,8.0,2.0,-2.0,-2.0,-10.0,-3.0
1701873449.4259543,-5.0,-13.0,-10.0,-7.0,-6.0,-3.0,6.0,-3.0
1701873449.4259543,6.0,3.0,16.0,9.0,1.0,1.0,3.0,-10.0
1701873449.426954,9.0,28.0,20.0,8.0,2.0,2.0,5.0,2.0
1701873449.426954,-3.0,-8.0,-8.0,-7.0,-3.0,-3.0,-1.0,3.0
1701873449.4610245,-6.0,-16.0,-7.0,-7.0,1.0,-3.0,-8.0,2.0
1701873449.4610245,0.0,6.0,4.0,8.0,1.0,2.0,4.0,0.0
1701873449.4610245,-5.0,-2.0,-17.0,-10.0,2.0,2.0,3.0,1.0
1701873449.4610245,-4.0,-7.0,-9.0,-14.0,-16.0,-5.0,0.0,-2.0
1701873449.4610245,-8.0,-7.0,9.0,1.0,-2.0,-1.0,-4.0,-4.0
1701873449.4610245,-1.0,-3.0,-30.0,-4.0,19.0,13.0,0.0,7.0
1701873449.4610245,5.0,12.0,62.0,37.0,6.0,-4.0,-2.0,0.0
1701873449.4610245,0.0,8.0,-11.0,-11.0,3.0,5.0,4.0,1.0
1701873449.4813404,-6.0,-9.0,0.0,0.0,-14.0,-12.0,-8.0,-8.0
1701873449.4813404,3.0,1.0,-22.0,-22.0,-9.0,-5.0,2.0,4.0
1701873449.4813404,-6.0,-3.0,-21.0,-24.0,3.0,8.0,4.0,-2.0
1701873449.4813404,3.0,-4.0,-14.0,5.0,-1.0,-1.0,3.0,5.0
1701873449.5110254,-19.0,-8.0,26.0,9.0,-10.0,-12.0,-11.0,-14.0
1701873449.5110254,-18.0,-13.0,8.0,14.0,7.0,3.0,-3.0,1.0
1701873449.5110254,5.0,-13.0,-8.0,-5.0,0.0,2.0,7.0,12.0
1701873449.5110254,-9.0,1.0,14.0,-1.0,3.0,-2.0,-7.0,-11.0
1701873449.5213876,1.0,-7.0,-34.0,-12.0,2.0,6.0,7.0,7.0
1701873449.5213876,-2.0,1.0,26.0,11.0,-2.0,-4.0,-2.0,-4.0
1701873449.5213876,-2.0,-13.0,-18.0,-7.0,-2.0,-1.0,4.0,6.0
1701873449.5213876,0.0,-4.0,0.0,5.0,0.0,-6.0,-10.0,-5.0
1701873449.5414274,3.0,0.0,-16.0,-13.0,1.0,-2.0,-8.0,-1.0
1701873449.5414274,-2.0,0.0,24.0,6.0,-9.0,-2.0,4.0,-4.0
1701873449.5414274,1.0,20.0,22.0,5.0,-4.0,3.0,1.0,-1.0
1701873449.5414274,2.0,-9.0,-26.0,-5.0,1.0,0.0,-1.0,4.0
1701873449.5710237,-5.0,-1.0,-4.0,0.0,9.0,5.0,4.0,-9.0
1701873449.5710237,5.0,7.0,-2.0,-8.0,-5.0,-1.0,-6.0,2.0
1701873449.5710237,-1.0,-8.0,-6.0,2.0,-2.0,-4.0,-6.0,-9.0
1701873449.5710237,-4.0,5.0,11.0,6.0,-3.0,-2.0,2.0,2.0
1701873449.5812593,2.0,2.0,11.0,9.0,1.0,2.0,2.0,4.0
1701873449.5812593,4.0,-8.0,-35.0,-20.0,-5.0,-3.0,-4.0,-1.0
1701873449.5812593,-7.0,3.0,36.0,19.0,10.0,4.0,1.0,-4.0
1701873449.5812593,3.0,8.0,-1.0,-10.0,-4.0,-1.0,-1.0,1.0
1701873449.6013749,8.0,5.0,23.0,13.0,1.0,-3.0,0.0,4.0
1701873449.6013749,3.0,-9.0,-28.0,-10.0,-3.0,-3.0,0.0,1.0
1701873449.6013749,13.0,41.0,4.0,-2.0,0.0,4.0,4.0,3.0
1701873449.6013749,-18.0,-26.0,20.0,1.0,-7.0,-3.0,-3.0,-16.0
1701873449.6310241,16.0,46.0,28.0,2.0,4.0,0.0,-2.0,7.0
1701873449.6310241,-26.0,-64.0,-37.0,-14.0,-10.0,-13.0,-15.0,-3.0
1701873449.6310241,-5.0,-2.0,-25.0,-9.0,-1.0,-3.0,1.0,0.0
1701873449.6310241,3.0,27.0,12.0,4.0,3.0,8.0,15.0,3.0
1701873449.6410565,4.0,6.0,-18.0,-6.0,-1.0,-2.0,-6.0,-3.0
1701873449.6410565,6.0,19.0,39.0,16.0,2.0,5.0,7.0,5.0
1701873449.651026,-1.0,-8.0,-20.0,-4.0,0.0,3.0,1.0,-2.0
1701873449.651026,1.0,9.0,11.0,5.0,5.0,2.0,1.0,-1.0
1701873449.671268,-6.0,-24.0,-20.0,-10.0,-11.0,-13.0,-8.0,2.0
1701873449.671268,1.0,6.0,-2.0,-7.0,-4.0,-4.0,-5.0,-9.0
1701873449.671268,-6.0,-20.0,-12.0,-7.0,-12.0,-8.0,-6.0,-3.0
1701873449.671268,7.0,12.0,11.0,14.0,11.0,8.0,6.0,4.0
1701873449.6810231,-2.0,-12.0,-11.0,-6.0,9.0,4.0,1.0,1.0
1701873449.6810231,-4.0,0.0,-7.0,-4.0,-6.0,-6.0,-2.0,-2.0
1701873449.6810231,3.0,3.0,13.0,-2.0,-5.0,-3.0,0.0,-3.0
1701873449.6810231,-2.0,-6.0,-2.0,8.0,7.0,5.0,0.0,3.0
1701873449.7014296,-4.0,-8.0,-17.0,-8.0,5.0,1.0,1.0,-1.0
1701873449.7014296,-7.0,17.0,15.0,-5.0,-11.0,-9.0,-3.0,-6.0
1701873449.7110245,6.0,-5.0,0.0,-1.0,-11.0,-8.0,-7.0,-3.0
1701873449.7110245,-10.0,11.0,-7.0,-2.0,-1.0,4.0,-1.0,1.0
1701873449.7214227,-3.0,17.0,8.0,8.0,2.0,4.0,4.0,-2.0
1701873449.7214227,3.0,2.0,-7.0,-5.0,2.0,1.0,0.0,-4.0
1701873449.7214227,-4.0,-4.0,14.0,10.0,1.0,-3.0,-2.0,13.0
1701873449.7214227,-1.0,-22.0,-5.0,-3.0,-3.0,-7.0,-3.0,-13.0
1701873449.741023,-6.0,-11.0,-5.0,-4.0,-7.0,-1.0,0.0,0.0
1701873449.741023,-3.0,5.0,1.0,1.0,2.0,5.0,1.0,-3.0
1701873449.741023,0.0,1.0,-2.0,1.0,3.0,0.0,2.0,2.0
1701873449.741023,3.0,-4.0,7.0,3.0,-4.0,0.0,1.0,7.0
1701873449.7614427,-4.0,-9.0,-17.0,-13.0,-4.0,-5.0,-9.0,-4.0
1701873449.7614427,1.0,0.0,7.0,7.0,0.0,-2.0,4.0,-2.0
1701873449.7710254,-2.0,-11.0,-5.0,1.0,12.0,13.0,8.0,-2.0
1701873449.7710254,1.0,6.0,1.0,-7.0,-5.0,-9.0,-9.0,3.0
1701873449.7814276,1.0,-3.0,-6.0,-7.0,-11.0,-6.0,-1.0,-6.0
1701873449.7814276,4.0,6.0,10.0,8.0,0.0,0.0,1.0,7.0
1701873449.7814276,-4.0,4.0,7.0,-5.0,-3.0,-4.0,-4.0,-5.0
1701873449.7814276,0.0,1.0,-1.0,3.0,8.0,2.0,4.0,3.0
1701873449.8010228,2.0,-9.0,-8.0,-1.0,2.0,1.0,-2.0,-1.0
1701873449.8010228,7.0,5.0,-7.0,-7.0,1.0,-1.0,-5.0,7.0
1701873449.811028,-5.0,-2.0,10.0,8.0,-2.0,-2.0,7.0,1.0
1701873449.811028,1.0,1.0,14.0,4.0,-5.0,-9.0,-13.0,-14.0
1701873449.8213446,-5.0,-12.0,-23.0,-4.0,-2.0,-1.0,3.0,2.0
1701873449.8213446,-19.0,12.0,8.0,-3.0,3.0,3.0,1.0,-5.0
1701873449.8310282,8.0,8.0,-10.0,-16.0,-3.0,-2.0,-4.0,4.0
1701873449.8310282,-9.0,-11.0,6.0,11.0,-6.0,-6.0,-7.0,-2.0
1701873449.8413215,2.0,2.0,7.0,5.0,3.0,3.0,3.0,-1.0
1701873449.8413215,4.0,-7.0,-5.0,2.0,-1.0,2.0,4.0,-2.0
1701873449.8413215,-4.0,-2.0,-6.0,-3.0,-1.0,-1.0,-8.0,-4.0
1701873449.8413215,-3.0,-1.0,-1.0,-8.0,-4.0,0.0,2.0,4.0
1701873449.8710272,-5.0,-7.0,3.0,2.0,-3.0,-2.0,-1.0,-4.0
1701873449.8710272,1.0,-2.0,-4.0,2.0,1.0,-4.0,-5.0,-3.0
1701873449.8710272,-3.0,-11.0,-4.0,-2.0,-1.0,-4.0,-3.0,-7.0
1701873449.8710272,3.0,2.0,-1.0,-5.0,-5.0,1.0,3.0,-2.0
1701873449.8813426,-4.0,-3.0,2.0,-1.0,-6.0,2.0,-4.0,-1.0
1701873449.8813426,7.0,5.0,-6.0,0.0,3.0,5.0,5.0,2.0
1701873449.891028,2.0,3.0,12.0,9.0,6.0,-1.0,-3.0,-6.0
1701873449.891028,-15.0,-9.0,-29.0,-20.0,-4.0,0.0,1.0,-4.0
1701873449.9010243,-4.0,-4.0,-2.0,-4.0,-3.0,-5.0,-3.0,0.0
1701873449.9010243,0.0,-4.0,2.0,-2.0,-5.0,-5.0,-2.0,-1.0
1701873449.9010243,0.0,-3.0,-2.0,2.0,-5.0,-5.0,-12.0,-7.0
1701873449.9010243,6.0,4.0,-1.0,1.0,8.0,7.0,10.0,6.0
1701873449.921464,2.0,-1.0,-5.0,-2.0,0.0,-2.0,-2.0,1.0
1701873449.921464,-7.0,-7.0,14.0,5.0,-2.0,-2.0,-1.0,0.0
1701873449.921464,3.0,8.0,-18.0,-10.0,-9.0,-6.0,-2.0,-1.0
1701873449.921464,-1.0,2.0,6.0,3.0,-5.0,-5.0,-2.0,0.0
1701873449.942236,-2.0,3.0,1.0,-2.0,0.0,2.0,1.0,-4.0
1701873449.942236,12.0,-5.0,-8.0,-3.0,3.0,-4.0,-4.0,8.0
1701873449.9515681,11.0,24.0,8.0,6.0,4.0,4.0,3.0,6.0
1701873449.9515681,5.0,2.0,0.0,1.0,0.0,2.0,4.0,3.0
1701873449.9656763,-10.0,-4.0,6.0,1.0,-1.0,-2.0,-5.0,1.0
1701873449.9656763,-5.0,-1.0,3.0,2.0,0.0,1.0,3.0,-5.0
1701873449.9656763,-5.0,-9.0,-1.0,-2.0,-2.0,-8.0,-8.0,-3.0
1701873449.9656763,6.0,3.0,6.0,0.0,-2.0,-7.0,-9.0,-2.0
1701873449.985688,3.0,7.0,7.0,0.0,1.0,5.0,10.0,-2.0
1701873449.985688,-7.0,-14.0,-27.0,-6.0,-3.0,-1.0,-4.0,-4.0
1701873449.985688,-4.0,-9.0,13.0,3.0,1.0,-2.0,-1.0,-2.0
1701873449.985688,-3.0,-4.0,-4.0,-3.0,0.0,-2.0,-3.0,-1.0
1701873449.9959524,5.0,2.0,6.0,6.0,1.0,-8.0,-13.0,-2.0
1701873449.9959524,-2.0,-1.0,-1.0,0.0,-3.0,1.0,4.0,-1.0
1701873450.0062182,4.0,8.0,-10.0,-5.0,-4.0,3.0,3.0,-1.0
1701873450.0062182,-2.0,-2.0,-1.0,-4.0,-6.0,-3.0,-3.0,-1.0
1701873450.035973,-1.0,-2.0,3.0,-1.0,-4.0,2.0,5.0,0.0
1701873450.035973,2.0,5.0,9.0,12.0,9.0,1.0,-5.0,0.0
1701873450.035973,-3.0,-10.0,-14.0,-13.0,0.0,1.0,0.0,-2.0
1701873450.035973,-2.0,3.0,-5.0,1.0,6.0,4.0,6.0,1.0
1701873450.0461261,-5.0,-7.0,-9.0,-8.0,-6.0,-5.0,-3.0,-3.0
1701873450.0461261,3.0,6.0,11.0,2.0,-4.0,-7.0,-5.0,-1.0
1701873450.0461261,-12.0,-1.0,13.0,4.0,-2.0,1.0,2.0,-4.0
1701873450.0461261,11.0,13.0,15.0,4.0,1.0,1.0,-4.0,4.0
1701873450.0663035,18.0,19.0,-9.0,15.0,12.0,8.0,9.0,14.0
1701873450.0663035,-34.0,-54.0,-26.0,-29.0,-15.0,-15.0,-17.0,-31.0
1701873450.0663035,5.0,26.0,32.0,14.0,5.0,7.0,8.0,3.0
1701873450.0663035,-10.0,-14.0,6.0,-5.0,-7.0,-5.0,-10.0,-6.0
1701873450.0859728,-24.0,-31.0,-6.0,-7.0,-16.0,-15.0,-12.0,-4.0
1701873450.0859728,28.0,67.0,11.0,-3.0,3.0,0.0,9.0,11.0
1701873450.0859728,0.0,-36.0,-57.0,-15.0,-7.0,-7.0,-18.0,-5.0
1701873450.0859728,-8.0,7.0,27.0,4.0,0.0,-2.0,6.0,-16.0
1701873450.1063015,8.0,4.0,-16.0,-3.0,17.0,27.0,29.0,26.0
1701873450.1063015,1.0,-32.0,47.0,36.0,4.0,-3.0,-9.0,8.0
1701873450.1063015,-2.0,41.0,-70.0,-47.0,-17.0,-15.0,-10.0,-7.0
1701873450.1063015,-28.0,-40.0,-1.0,5.0,-12.0,-15.0,-12.0,-7.0
1701873450.1259735,2.0,-4.0,-66.0,-32.0,1.0,0.0,-2.0,-5.0
1701873450.1259735,-11.0,-34.0,-1.0,-2.0,-1.0,2.0,6.0,9.0
1701873450.1259735,29.0,62.0,93.0,51.0,19.0,13.0,9.0,2.0
1701873450.1259735,-8.0,-7.0,-74.0,-32.0,-10.0,-1.0,-1.0,-4.0
1701873450.145974,-16.0,-15.0,37.0,15.0,-8.0,-11.0,-9.0,-25.0
1701873450.145974,32.0,45.0,68.0,14.0,8.0,9.0,9.0,45.0
1701873450.145974,-30.0,-59.0,-81.0,-46.0,-20.0,-17.0,-12.0,-18.0
1701873450.145974,2.0,-34.0,3.0,1.0,4.0,5.0,4.0,5.0
1701873450.1662734,-6.0,-18.0,30.0,30.0,14.0,11.0,4.0,-2.0
1701873450.1662734,1.0,66.0,-46.0,-23.0,-13.0,-12.0,-11.0,-14.0
1701873450.1662734,-9.0,-29.0,34.0,18.0,4.0,-5.0,-7.0,0.0
1701873450.1662734,29.0,9.0,17.0,2.0,2.0,1.0,10.0,2.0
1701873450.2059681,-10.0,26.0,-25.0,-15.0,-6.0,4.0,4.0,-3.0
1701873450.2059681,11.0,16.0,14.0,21.0,12.0,9.0,4.0,-5.0
1701873450.2059681,-31.0,-93.0,-31.0,-11.0,-7.0,-7.0,-6.0,-5.0
1701873450.2059681,10.0,28.0,-15.0,-5.0,-1.0,-6.0,-8.0,-2.0
1701873450.2059681,-22.0,13.0,20.0,0.0,-5.0,-4.0,4.0,10.0
1701873450.2059681,3.0,-6.0,3.0,2.0,5.0,7.0,6.0,-6.0
1701873450.2059681,-5.0,-16.0,-12.0,-1.0,0.0,5.0,4.0,7.0
1701873450.2059681,2.0,-7.0,-15.0,-3.0,1.0,-5.0,-10.0,-13.0
1701873450.2262707,28.0,27.0,32.0,16.0,3.0,-1.0,0.0,7.0
1701873450.2262707,-12.0,15.0,-20.0,-25.0,-13.0,-7.0,-2.0,-6.0
1701873450.2262707,1.0,-30.0,7.0,7.0,6.0,6.0,4.0,3.0
1701873450.2262707,4.0,0.0,22.0,14.0,1.0,3.0,0.0,7.0
1701873450.255971,-30.0,-39.0,-36.0,-14.0,-7.0,-10.0,-14.0,-19.0
1701873450.255971,0.0,8.0,-22.0,-4.0,1.0,1.0,0.0,-11.0
1701873450.255971,17.0,26.0,14.0,-1.0,-1.0,1.0,5.0,5.0
1701873450.255971,-3.0,41.0,11.0,-2.0,7.0,10.0,4.0,8.0
1701873450.255971,23.0,19.0,26.0,30.0,4.0,-2.0,-6.0,-4.0
1701873450.255971,-5.0,-34.0,-33.0,-36.0,-4.0,-2.0,-3.0,3.0
1701873450.265969,-5.0,19.0,7.0,19.0,-1.0,-2.0,5.0,2.0
1701873450.265969,-14.0,-23.0,-5.0,-7.0,-16.0,-14.0,-11.0,-9.0
1701873450.286361,4.0,10.0,-30.0,-24.0,10.0,11.0,7.0,22.0
1701873450.286361,1.0,-19.0,49.0,55.0,2.0,0.0,3.0,-19.0
1701873450.286361,25.0,-26.0,-46.0,-28.0,1.0,6.0,3.0,5.0
1701873450.286361,-13.0,-18.0,14.0,19.0,2.0,2.0,-3.0,-11.0
1701873450.3059695,36.0,56.0,30.0,0.0,-1.0,-4.0,-3.0,28.0
1701873450.3059695,-20.0,14.0,-36.0,-23.0,-1.0,2.0,-5.0,-32.0
1701873450.3059695,11.0,35.0,48.0,16.0,-2.0,-3.0,-2.0,7.0
1701873450.3059695,-3.0,-9.0,-8.0,-4.0,0.0,-3.0,-3.0,-6.0
1701873450.3259742,-4.0,-14.0,11.0,0.0,-2.0,0.0,5.0,12.0
1701873450.3259742,-13.0,-6.0,20.0,-4.0,-5.0,-4.0,-10.0,-22.0
1701873450.3259742,-7.0,-16.0,-11.0,10.0,4.0,4.0,2.0,0.0
1701873450.3259742,-21.0,-14.0,-50.0,-27.0,-11.0,-9.0,-5.0,-1.0
1701873450.3659728,1.0,-3.0,-5.0,0.0,-2.0,-7.0,-7.0,-14.0
1701873450.3659728,7.0,25.0,34.0,5.0,2.0,-1.0,2.0,16.0
1701873450.3659728,-9.0,-1.0,16.0,16.0,4.0,2.0,4.0,-4.0
1701873450.3659728,-13.0,52.0,-15.0,-9.0,0.0,3.0,-2.0,-3.0
1701873450.3659728,-5.0,-27.0,-9.0,-10.0,-10.0,-8.0,-5.0,-11.0
1701873450.3659728,-8.0,-56.0,-50.0,-17.0,-6.0,-1.0,1.0,5.0
1701873450.3659728,11.0,60.0,45.0,13.0,4.0,-1.0,-1.0,-4.0
1701873450.3659728,17.0,-10.0,2.0,8.0,5.0,0.0,-7.0,22.0
1701873450.3859737,-23.0,39.0,36.0,5.0,-6.0,-5.0,1.0,-26.0
1701873450.3859737,-5.0,-13.0,-28.0,-3.0,1.0,7.0,7.0,11.0
1701873450.3859737,0.0,9.0,16.0,4.0,2.0,1.0,2.0,3.0
1701873450.3859737,3.0,6.0,-1.0,-11.0,-1.0,-1.0,1.0,-2.0
1701873450.4059782,3.0,-42.0,-19.0,-14.0,-3.0,-2.0,-8.0,-11.0
1701873450.4059782,3.0,-6.0,14.0,19.0,-3.0,-9.0,-7.0,-2.0
1701873450.4159718,-11.0,-4.0,-9.0,-22.0,-7.0,-5.0,-3.0,-1.0
1701873450.4159718,4.0,1.0,16.0,0.0,6.0,7.0,13.0,5.0
1701873450.4259696,9.0,1.0,-30.0,-15.0,0.0,5.0,-3.0,-1.0
1701873450.4259696,-25.0,-38.0,-36.0,-24.0,2.0,2.0,1.0,-1.0
1701873450.4259696,-8.0,7.0,74.0,64.0,-3.0,-23.0,-11.0,-12.0
1701873450.4259696,9.0,-22.0,-40.0,-31.0,3.0,8.0,8.0,8.0
1701873450.4360046,8.0,14.0,-3.0,-21.0,-23.0,-15.0,-3.0,1.0
1701873450.4360046,9.0,18.0,-19.0,-18.0,-9.0,3.0,1.0,5.0
1701873450.4459908,-8.0,-10.0,25.0,45.0,11.0,3.0,-6.0,-8.0
1701873450.4459908,7.0,1.0,6.0,-12.0,15.0,11.0,5.0,7.0
1701873450.471449,-5.0,-29.0,-12.0,2.0,3.0,-6.0,-6.0,-2.0
1701873450.471449,7.0,-1.0,-7.0,-10.0,-7.0,-5.0,0.0,4.0
1701873450.471449,1.0,21.0,-9.0,-5.0,-12.0,-7.0,-13.0,-8.0
1701873450.471449,-1.0,-1.0,27.0,28.0,-8.0,-1.0,14.0,7.0
1701873450.4913712,1.0,-10.0,-15.0,-18.0,-4.0,11.0,7.0,-1.0
1701873450.4913712,13.0,1.0,8.0,6.0,-4.0,-11.0,-9.0,-1.0
1701873450.4928308,0.0,-3.0,-10.0,-9.0,3.0,4.0,4.0,4.0
1701873450.4928308,-4.0,-8.0,-13.0,-4.0,2.0,4.0,-7.0,-16.0
1701873450.497161,-6.0,-17.0,1.0,3.0,2.0,-5.0,-1.0,-2.0
1701873450.497161,6.0,19.0,2.0,9.0,-5.0,-6.0,-7.0,1.0
1701873450.5171595,-4.0,-4.0,-15.0,-20.0,-3.0,1.0,4.0,-1.0
1701873450.5171595,2.0,12.0,9.0,9.0,6.0,7.0,6.0,4.0
1701873450.5275505,-1.0,-11.0,9.0,8.0,-2.0,-2.0,3.0,6.0
1701873450.5275505,-7.0,-20.0,18.0,20.0,5.0,1.0,0.0,-5.0
1701873450.5275505,13.0,-18.0,-64.0,-52.0,-10.0,-3.0,-5.0,6.0
1701873450.5275505,3.0,24.0,28.0,16.0,-1.0,-6.0,-15.0,-10.0
1701873450.5475714,-24.0,7.0,14.0,14.0,3.0,5.0,6.0,-5.0
1701873450.5475714,8.0,56.0,24.0,2.0,8.0,8.0,11.0,13.0
1701873450.5475714,-4.0,7.0,-34.0,-29.0,-6.0,-7.0,-1.0,9.0
1701873450.5475714,7.0,-29.0,-31.0,-7.0,-14.0,-13.0,-8.0,-3.0
1701873450.557508,12.0,56.0,29.0,7.0,2.0,2.0,-5.0,-1.0
1701873450.557508,-7.0,-46.0,-15.0,-5.0,1.0,-3.0,-5.0,-3.0
1701873450.57716,-6.0,0.0,-3.0,-3.0,2.0,0.0,2.0,-4.0
1701873450.57716,8.0,25.0,13.0,6.0,-4.0,6.0,21.0,10.0
1701873450.587196,4.0,-9.0,-7.0,-3.0,-1.0,0.0,0.0,-4.0
1701873450.587196,7.0,-1.0,-38.0,1.0,5.0,8.0,7.0,-3.0
1701873450.587196,-14.0,-24.0,-4.0,-9.0,0.0,1.0,-2.0,-2.0
1701873450.587196,-7.0,-2.0,14.0,6.0,1.0,-3.0,-6.0,-9.0
1701873450.607489,-5.0,-19.0,-3.0,2.0,-5.0,-8.0,-5.0,-13.0
1701873450.607489,-2.0,-5.0,6.0,5.0,3.0,2.0,-2.0,5.0
1701873450.607489,-4.0,-25.0,-6.0,-2.0,6.0,8.0,9.0,-10.0
1701873450.607489,3.0,11.0,-5.0,-3.0,2.0,-6.0,-9.0,-3.0
1701873450.6174314,6.0,17.0,19.0,13.0,-3.0,-3.0,-4.0,6.0
1701873450.6174314,-8.0,3.0,-13.0,-22.0,-12.0,-12.0,-13.0,-11.0
1701873450.6371598,-7.0,-3.0,-1.0,2.0,-3.0,7.0,14.0,3.0
1701873450.6371598,6.0,10.0,21.0,18.0,13.0,20.0,28.0,11.0
1701873450.647409,-5.0,-28.0,-27.0,-11.0,8.0,4.0,-5.0,-4.0
1701873450.647409,1.0,-5.0,11.0,1.0,-5.0,-8.0,-11.0,3.0
1701873450.647409,8.0,11.0,-9.0,-7.0,-3.0,2.0,-7.0,0.0
1701873450.647409,-13.0,-11.0,38.0,10.0,-15.0,-16.0,-10.0,-8.0
1701873450.6674554,-4.0,-14.0,5.0,13.0,-4.0,-5.0,-3.0,-9.0
1701873450.6674554,-1.0,-10.0,-21.0,-8.0,10.0,5.0,2.0,0.0
1701873450.6674554,1.0,16.0,3.0,-9.0,7.0,7.0,7.0,8.0
1701873450.6674554,-13.0,-7.0,-41.0,-26.0,-7.0,-4.0,-12.0,-25.0
1701873450.6774168,-4.0,-10.0,29.0,15.0,-22.0,-20.0,-11.0,-3.0
1701873450.6774168,6.0,10.0,1.0,13.0,17.0,11.0,4.0,5.0
1701873450.7072017,-9.0,9.0,53.0,24.0,4.0,-1.0,-3.0,-8.0
1701873450.7072017,9.0,-2.0,-24.0,-17.0,13.0,5.0,-2.0,8.0
1701873450.7072017,0.0,-10.0,-38.0,-26.0,-3.0,-2.0,-4.0,0.0
1701873450.7072017,-4.0,-1.0,1.0,1.0,-11.0,-2.0,4.0,-3.0
1701873450.7072017,0.0,-6.0,-5.0,0.0,0.0,-5.0,-15.0,0.0
1701873450.7072017,-4.0,-13.0,-3.0,-7.0,-15.0,-6.0,2.0,-3.0
1701873450.7275136,-11.0,-12.0,-5.0,-3.0,1.0,1.0,-3.0,0.0
1701873450.7275136,-20.0,-27.0,3.0,-6.0,-10.0,-10.0,-5.0,-5.0
1701873450.7275136,7.0,0.0,-1.0,2.0,1.0,3.0,3.0,4.0
1701873450.7275136,-4.0,-2.0,11.0,9.0,-2.0,-8.0,-10.0,0.0
1701873450.747218,8.0,9.0,-4.0,2.0,5.0,7.0,11.0,13.0
1701873450.747218,-21.0,-15.0,5.0,-1.0,4.0,6.0,6.0,-10.0
1701873450.757215,13.0,27.0,4.0,1.0,-3.0,-6.0,-9.0,3.0
1701873450.757215,-1.0,-5.0,-11.0,-3.0,-3.0,-1.0,-6.0,-3.0
1701873450.7674904,2.0,12.0,1.0,-1.0,3.0,1.0,1.0,-3.0
1701873450.7674904,14.0,7.0,11.0,4.0,3.0,6.0,7.0,8.0
1701873450.7674904,-4.0,-5.0,-12.0,-15.0,-12.0,-3.0,5.0,1.0
1701873450.7674904,1.0,1.0,9.0,7.0,-4.0,-9.0,-4.0,-4.0
1701873450.7872558,8.0,-1.0,-1.0,5.0,11.0,11.0,2.0,5.0
1701873450.7872558,0.0,9.0,5.0,-6.0,-5.0,-6.0,2.0,-7.0
1701873450.7872558,-6.0,-17.0,-7.0,-2.0,-2.0,4.0,3.0,-4.0
1701873450.7872558,10.0,9.0,-3.0,-1.0,-2.0,-6.0,-14.0,4.0
1701873450.8072143,-4.0,-5.0,11.0,5.0,-4.0,-4.0,11.0,0.0
1701873450.8072143,-4.0,1.0,-28.0,-17.0,-6.0,-8.0,-12.0,1.0
1701873450.8072143,-10.0,-20.0,4.0,4.0,0.0,0.0,4.0,-7.0
1701873450.8072143,-3.0,-10.0,-13.0,-10.0,-1.0,-1.0,-6.0,-3.0
1701873450.8275104,-1.0,11.0,21.0,16.0,-1.0,-4.0,-6.0,-3.0
1701873450.8275104,2.0,6.0,22.0,13.0,2.0,-2.0,-2.0,1.0
1701873450.8275104,0.0,4.0,-14.0,-17.0,-8.0,-5.0,-5.0,-6.0
1701873450.8275104,3.0,16.0,16.0,16.0,2.0,-2.0,-2.0,1.0
1701873450.8475935,-2.0,-2.0,-40.0,-24.0,-1.0,0.0,0.0,-2.0
1701873450.8475935,5.0,-1.0,-8.0,-13.0,1.0,1.0,0.0,-2.0
1701873450.8475935,2.0,-2.0,17.0,19.0,-2.0,-1.0,-4.0,-2.0
1701873450.8475935,-5.0,0.0,18.0,9.0,-3.0,-2.0,3.0,2.0
1701873450.8776116,-3.0,-8.0,-7.0,-3.0,2.0,-1.0,-4.0,-5.0
1701873450.8776116,-2.0,5.0,-2.0,2.0,-2.0,2.0,4.0,-1.0
1701873450.8776116,4.0,5.0,-29.0,-21.0,3.0,-1.0,-6.0,0.0
1701873450.8776116,-4.0,-6.0,-1.0,-5.0,-7.0,-1.0,2.0,3.0
1701873450.8878057,-4.0,-8.0,3.0,3.0,1.0,-2.0,-2.0,-6.0
1701873450.8878057,0.0,-4.0,1.0,0.0,-3.0,-6.0,-7.0,-3.0
1701873450.8878057,-2.0,4.0,5.0,2.0,10.0,4.0,2.0,-3.0
1701873450.8878057,1.0,-2.0,0.0,3.0,-1.0,2.0,4.0,0.0
1701873450.907863,-2.0,-6.0,-1.0,-4.0,-6.0,-4.0,-4.0,-1.0
1701873450.907863,0.0,5.0,0.0,4.0,-5.0,-6.0,-3.0,-1.0
1701873450.907863,-2.0,-7.0,-2.0,1.0,-2.0,-2.0,1.0,-2.0
1701873450.907863,-3.0,-6.0,-5.0,-12.0,1.0,0.0,2.0,-1.0
1701873450.927613,1.0,-1.0,-23.0,-8.0,5.0,3.0,1.0,3.0
1701873450.927613,1.0,1.0,10.0,-3.0,-10.0,-8.0,-3.0,6.0
1701873450.927613,-1.0,12.0,-1.0,3.0,-8.0,-6.0,-2.0,-3.0
1701873450.927613,0.0,-7.0,0.0,5.0,1.0,1.0,0.0,5.0
1701873450.947967,-1.0,4.0,7.0,-3.0,0.0,0.0,2.0,1.0
1701873450.947967,2.0,-1.0,-2.0,3.0,1.0,0.0,-3.0,-9.0
1701873450.947967,-1.0,0.0,1.0,-2.0,-4.0,-1.0,-1.0,1.0
1701873450.947967,-14.0,0.0,8.0,4.0,4.0,4.0,1.0,-2.0
1701873450.9676113,3.0,5.0,1.0,2.0,1.0,2.0,0.0,3.0
1701873450.9676113,-9.0,-6.0,3.0,3.0,1.0,1.0,1.0,-2.0
1701873450.9676113,0.0,-1.0,-9.0,-9.0,-2.0,-2.0,-1.0,0.0
1701873450.9676113,-12.0,-22.0,-11.0,0.0,-1.0,1.0,0.0,-5.0
1701873450.9779563,-1.0,3.0,3.0,-1.0,-4.0,-5.0,-5.0,-6.0
1701873450.9779563,-9.0,11.0,13.0,4.0,2.0,5.0,1.0,5.0
1701873450.9930723,12.0,2.0,5.0,1.0,-1.0,-3.0,-1.0,5.0
1701873450.9930723,2.0,-3.0,-10.0,-3.0,1.0,-1.0,-2.0,-7.0
1701873451.008069,1.0,-3.0,-3.0,-6.0,-4.0,-4.0,-2.0,-1.0
1701873451.008069,4.0,-6.0,2.0,2.0,-3.0,-3.0,-3.0,-4.0
1701873451.0130908,-2.0,1.0,3.0,4.0,0.0,-1.0,-2.0,-1.0
1701873451.0130908,3.0,8.0,-12.0,-12.0,-2.0,1.0,1.0,6.0
1701873451.0231345,1.0,4.0,15.0,7.0,1.0,2.0,-4.0,-4.0
1701873451.0231345,-2.0,-7.0,-32.0,-17.0,-6.0,-1.0,0.0,-1.0
1701873451.0331874,-2.0,3.0,18.0,7.0,5.0,1.0,1.0,1.0
1701873451.0331874,-1.0,-8.0,-20.0,-9.0,-2.0,-4.0,-2.0,-5.0
1701873451.0531483,-1.0,-2.0,11.0,5.0,1.0,0.0,-2.0,-1.0
1701873451.0531483,0.0,3.0,9.0,2.0,1.0,1.0,-1.0,2.0
1701873451.0531483,-5.0,-7.0,-10.0,-3.0,-2.0,1.0,-4.0,-2.0
1701873451.0531483,1.0,0.0,5.0,0.0,-3.0,-3.0,-2.0,-3.0
1701873451.063206,-2.0,-3.0,-4.0,-5.0,-1.0,-1.0,1.0,-2.0
1701873451.063206,3.0,-3.0,4.0,2.0,-4.0,-2.0,-1.0,7.0
1701873451.063206,-5.0,1.0,-7.0,-4.0,-4.0,-3.0,0.0,-5.0
1701873451.063206,-2.0,-1.0,1.0,0.0,0.0,-2.0,-2.0,2.0
1701873451.0832589,-1.0,-3.0,-3.0,3.0,1.0,-2.0,-1.0,2.0
1701873451.0832589,2.0,13.0,8.0,1.0,2.0,1.0,-3.0,-10.0
1701873451.0931675,2.0,2.0,1.0,-3.0,-1.0,-2.0,3.0,1.0
1701873451.0931675,7.0,-2.0,-6.0,-2.0,-4.0,0.0,0.0,3.0
1701873451.113145,-3.0,-10.0,-4.0,-6.0,-3.0,0.0,-1.0,0.0
1701873451.113145,4.0,-1.0,3.0,4.0,3.0,-2.0,4.0,9.0
1701873451.113145,0.0,-2.0,-5.0,-6.0,-4.0,1.0,-1.0,0.0
1701873451.113145,-2.0,1.0,14.0,7.0,-1.0,-2.0,-3.0,-4.0
1701873451.1331453,0.0,-1.0,-13.0,-5.0,-4.0,-2.0,-4.0,-3.0
1701873451.1331453,-5.0,-4.0,5.0,5.0,7.0,4.0,-1.0,-5.0
1701873451.1331453,-1.0,-1.0,-5.0,-1.0,-1.0,0.0,2.0,1.0
1701873451.1331453,3.0,2.0,7.0,3.0,1.0,0.0,0.0,1.0
1701873451.1433988,-8.0,-4.0,-17.0,-2.0,-5.0,-5.0,-3.0,0.0
1701873451.1433988,-5.0,-8.0,-8.0,-9.0,-5.0,-3.0,-2.0,-6.0
1701873451.153154,3.0,1.0,10.0,5.0,1.0,-3.0,0.0,4.0
1701873451.153154,-17.0,-19.0,-19.0,-10.0,0.0,2.0,1.0,-9.0
1701873451.1735265,9.0,21.0,15.0,3.0,0.0,3.0,2.0,7.0
1701873451.1735265,-1.0,-2.0,-3.0,-1.0,-4.0,-4.0,-2.0,-5.0
1701873451.1735265,3.0,-3.0,-6.0,-5.0,-6.0,-3.0,-3.0,-3.0
1701873451.1735265,-2.0,-3.0,1.0,1.0,-2.0,-1.0,0.0,3.0
1701873451.1931717,-5.0,-2.0,11.0,2.0,-1.0,-1.0,-3.0,-7.0
1701873451.1931717,1.0,-3.0,-18.0,-4.0,3.0,3.0,-3.0,2.0
1701873451.1931717,-5.0,-5.0,10.0,3.0,-1.0,-1.0,2.0,-3.0
1701873451.1931717,3.0,2.0,-1.0,-3.0,2.0,1.0,-3.0,-6.0
1701873451.2034113,-2.0,-3.0,-11.0,-8.0,-3.0,-1.0,2.0,1.0
1701873451.2034113,5.0,5.0,8.0,3.0,-4.0,-4.0,-3.0,0.0
1701873451.2131503,-4.0,-2.0,-2.0,1.0,-2.0,-2.0,-2.0,-2.0
1701873451.2131503,1.0,2.0,1.0,1.0,-4.0,-4.0,-1.0,1.0
1701873451.2331514,0.0,-6.0,1.0,1.0,1.0,0.0,-1.0,-3.0
1701873451.2331514,4.0,24.0,22.0,7.0,1.0,3.0,2.0,-1.0
1701873451.2331514,-8.0,-5.0,-21.0,-3.0,1.0,1.0,-3.0,-2.0
1701873451.2331514,4.0,4.0,7.0,-3.0,2.0,-1.0,1.0,2.0
1701873451.2434216,11.0,2.0,-6.0,-1.0,-1.0,-4.0,-1.0,5.0
1701873451.2434216,-14.0,-25.0,2.0,1.0,-6.0,-7.0,-3.0,-10.0
1701873451.2534132,2.0,3.0,0.0,-4.0,-1.0,2.0,-2.0,0.0
1701873451.2534132,4.0,8.0,1.0,-3.0,-2.0,1.0,1.0,-1.0
1701873451.2731452,1.0,-3.0,-3.0,1.0,1.0,1.0,1.0,1.0
1701873451.2731452,2.0,-16.0,-5.0,-2.0,-3.0,-3.0,-2.0,-1.0
1701873451.2731452,2.0,13.0,5.0,4.0,1.0,-1.0,1.0,4.0
1701873451.2731452,-10.0,0.0,7.0,6.0,6.0,3.0,-1.0,-9.0
1701873451.2935524,-5.0,-13.0,-7.0,-12.0,-5.0,-2.0,-2.0,2.0
1701873451.2935524,-2.0,-2.0,-4.0,-4.0,-1.0,-4.0,-5.0,-6.0
1701873451.2935524,-1.0,0.0,8.0,6.0,0.0,2.0,5.0,-4.0
1701873451.2935524,1.0,5.0,7.0,3.0,-2.0,-2.0,-1.0,3.0
1701873451.3131468,-3.0,7.0,6.0,4.0,1.0,-1.0,1.0,-1.0
1701873451.3131468,-2.0,-6.0,-13.0,-10.0,-6.0,-5.0,1.0,0.0
1701873451.3131468,-1.0,-6.0,-3.0,-4.0,-1.0,-1.0,-5.0,-6.0
1701873451.3131468,-2.0,1.0,-3.0,3.0,-1.0,3.0,1.0,4.0
1701873451.32349,4.0,4.0,7.0,3.0,3.0,3.0,6.0,0.0
1701873451.32349,1.0,-13.0,-27.0,-1.0,3.0,-1.0,-3.0,4.0
1701873451.3335114,-5.0,-2.0,1.0,3.0,-4.0,-6.0,-5.0,-10.0
1701873451.3335114,8.0,-9.0,-14.0,-11.0,-7.0,-7.0,-2.0,1.0
1701873451.3735054,-12.0,-23.0,-10.0,-5.0,-5.0,-4.0,-7.0,-11.0
1701873451.3735054,1.0,14.0,22.0,7.0,3.0,1.0,4.0,4.0
1701873451.3735054,-3.0,-4.0,-5.0,-6.0,-2.0,-4.0,-2.0,3.0
1701873451.3735054,1.0,-1.0,-1.0,3.0,-1.0,0.0,-2.0,-8.0
1701873451.3735054,2.0,36.0,19.0,3.0,5.0,3.0,1.0,-5.0
1701873451.3735054,-2.0,-5.0,-16.0,-5.0,-3.0,0.0,5.0,14.0
1701873451.3735054,2.0,6.0,-4.0,-3.0,-2.0,-4.0,0.0,-8.0
1701873451.3735054,-3.0,-3.0,2.0,1.0,-3.0,0.0,-4.0,1.0
1701873451.3837395,-2.0,-7.0,-7.0,-3.0,-4.0,-2.0,-5.0,-3.0
1701873451.3837395,3.0,6.0,5.0,3.0,0.0,3.0,1.0,2.0
1701873451.393512,-3.0,3.0,8.0,-1.0,-3.0,-1.0,-3.0,-1.0
1701873451.393512,-3.0,-2.0,-7.0,-2.0,0.0,1.0,0.0,-3.0
1701873451.4335053,-1.0,-2.0,-2.0,4.0,3.0,0.0,1.0,1.0
1701873451.4335053,-4.0,-1.0,2.0,-1.0,0.0,1.0,-4.0,-4.0
1701873451.4335053,1.0,-10.0,-8.0,-5.0,-4.0,-4.0,-3.0,-1.0
1701873451.4335053,-1.0,-1.0,8.0,3.0,-1.0,-3.0,0.0,-1.0
1701873451.4335053,0.0,5.0,1.0,-1.0,-6.0,-5.0,-5.0,1.0
1701873451.4335053,1.0,-1.0,-21.0,-18.0,-2.0,1.0,-2.0,-5.0
1701873451.4335053,1.0,11.0,16.0,6.0,-2.0,1.0,1.0,0.0
1701873451.4335053,-3.0,-13.0,-14.0,-4.0,-1.0,0.0,2.0,6.0
1701873451.4438581,2.0,-10.0,-13.0,-3.0,-4.0,-6.0,-6.0,1.0
1701873451.4438581,-1.0,4.0,7.0,3.0,1.0,-1.0,0.0,-4.0
1701873451.4438581,11.0,-8.0,-5.0,-8.0,-2.0,-5.0,-7.0,5.0
1701873451.4438581,-8.0,21.0,11.0,6.0,3.0,10.0,14.0,0.0
1701873451.4735072,-4.0,-10.0,10.0,7.0,-5.0,-4.0,-6.0,-15.0
1701873451.4735072,-1.0,1.0,2.0,3.0,0.0,-3.0,-3.0,-2.0
1701873451.4735072,0.0,-11.0,-6.0,-4.0,1.0,-2.0,-5.0,-3.0
1701873451.4735072,9.0,11.0,-6.0,0.0,0.0,-3.0,-4.0,12.0
1701873451.4835384,3.0,6.0,-9.0,-17.0,-9.0,-4.0,-1.0,-3.0
1701873451.4835384,-3.0,-3.0,7.0,-1.0,-4.0,-2.0,-2.0,1.0
1701873451.4937382,-4.0,-7.0,-12.0,-3.0,-3.0,0.0,0.0,-1.0
1701873451.4937382,-7.0,-18.0,3.0,-3.0,-1.0,-2.0,-3.0,-6.0
1701873451.503774,8.0,16.0,14.0,5.0,2.0,1.0,3.0,15.0
1701873451.503774,3.0,-10.0,0.0,-1.0,-2.0,0.0,-3.0,-7.0
1701873451.513511,3.0,18.0,3.0,5.0,5.0,8.0,10.0,7.0
1701873451.513511,5.0,14.0,14.0,0.0,0.0,-2.0,-4.0,-4.0
1701873451.5558267,-23.0,-51.0,-17.0,1.0,3.0,2.0,1.0,2.0
1701873451.5558267,4.0,8.0,-11.0,-5.0,-1.0,-6.0,-10.0,-4.0
1701873451.5558267,3.0,-5.0,-3.0,-1.0,1.0,-2.0,2.0,8.0
1701873451.5558267,-2.0,15.0,22.0,3.0,1.0,4.0,-1.0,-18.0
1701873451.5558267,-19.0,-35.0,-51.0,-14.0,-9.0,-5.0,-3.0,-12.0
1701873451.5558267,8.0,8.0,14.0,12.0,1.0,4.0,5.0,6.0
1701873451.5558267,-12.0,-11.0,-15.0,-12.0,-4.0,2.0,5.0,0.0
1701873451.5558267,-3.0,11.0,3.0,2.0,0.0,-4.0,-7.0,4.0
1701873451.566167,0.0,-2.0,8.0,2.0,5.0,10.0,7.0,2.0
1701873451.566167,-14.0,-11.0,5.0,2.0,2.0,4.0,6.0,-7.0
1701873451.566167,-9.0,1.0,-7.0,-3.0,-3.0,-9.0,-16.0,-7.0
1701873451.566167,2.0,-12.0,-2.0,-2.0,-4.0,-10.0,-3.0,2.0
1701873451.5858548,2.0,5.0,-27.0,-26.0,-1.0,3.0,1.0,1.0
1701873451.5858548,-1.0,3.0,31.0,16.0,-3.0,-3.0,-6.0,3.0
1701873451.5858548,-7.0,-7.0,-15.0,-7.0,3.0,0.0,-6.0,-3.0
1701873451.5858548,9.0,10.0,0.0,7.0,0.0,-6.0,2.0,5.0
1701873451.6161122,14.0,7.0,29.0,16.0,-5.0,2.0,11.0,-4.0
1701873451.6161122,11.0,1.0,-8.0,-14.0,1.0,2.0,1.0,-6.0
1701873451.6161122,10.0,71.0,-2.0,11.0,14.0,10.0,7.0,6.0
1701873451.6161122,-1.0,-9.0,18.0,17.0,0.0,2.0,-1.0,0.0
1701873451.626137,7.0,14.0,30.0,17.0,-2.0,-9.0,1.0,8.0
1701873451.626137,0.0,4.0,-9.0,-11.0,-5.0,2.0,7.0,-9.0
1701873451.626137,-4.0,-26.0,-2.0,-5.0,-10.0,-11.0,-13.0,-5.0
1701873451.626137,-3.0,-14.0,-36.0,-21.0,-6.0,-7.0,-5.0,0.0
1701873451.6458888,2.0,37.0,22.0,12.0,7.0,3.0,-1.0,-2.0
1701873451.6458888,-5.0,1.0,8.0,9.0,8.0,2.0,-5.0,-4.0
1701873451.6458888,-14.0,-18.0,-15.0,-12.0,-1.0,-2.0,2.0,3.0
1701873451.6458888,8.0,-3.0,-1.0,-4.0,-3.0,2.0,8.0,11.0
1701873451.6661432,-6.0,-16.0,-5.0,-5.0,-8.0,-10.0,-19.0,-23.0
1701873451.6661432,-17.0,-13.0,-9.0,-2.0,-4.0,-8.0,-13.0,-8.0
1701873451.6758564,5.0,0.0,6.0,-8.0,-6.0,-12.0,-10.0,8.0
1701873451.6758564,18.0,-7.0,-13.0,-3.0,3.0,30.0,52.0,15.0
1701873451.686217,-20.0,-24.0,-22.0,-4.0,-3.0,-11.0,-22.0,-11.0
1701873451.686217,11.0,-5.0,-14.0,-4.0,2.0,-2.0,3.0,20.0
1701873451.686217,26.0,28.0,34.0,11.0,0.0,1.0,-4.0,-7.0
1701873451.686217,-1.0,-46.0,-27.0,-5.0,0.0,-5.0,-26.0,-18.0
1701873451.7058883,7.0,5.0,5.0,-5.0,0.0,-2.0,4.0,1.0
1701873451.7058883,11.0,22.0,13.0,5.0,0.0,-3.0,-3.0,13.0
1701873451.71617,-23.0,-46.0,-20.0,-6.0,-6.0,-2.0,0.0,-28.0
1701873451.71617,-12.0,-13.0,19.0,4.0,-1.0,-8.0,-12.0,-10.0
1701873451.726194,0.0,8.0,-22.0,-9.0,5.0,11.0,11.0,6.0
1701873451.726194,-11.0,-3.0,14.0,-4.0,-8.0,-11.0,-11.0,-9.0
1701873451.7358565,11.0,30.0,39.0,20.0,6.0,7.0,3.0,3.0
1701873451.7358565,-9.0,-13.0,-41.0,-19.0,-5.0,-1.0,0.0,-4.0
1701873451.746203,-2.0,-1.0,10.0,13.0,5.0,5.0,7.0,7.0
1701873451.746203,0.0,15.0,-7.0,-11.0,-11.0,-14.0,-10.0,-7.0
1701873451.746203,-7.0,-10.0,0.0,-2.0,0.0,12.0,18.0,0.0
1701873451.746203,-4.0,18.0,25.0,15.0,9.0,0.0,-12.0,-1.0
1701873451.7658908,0.0,-10.0,-19.0,-16.0,0.0,-1.0,4.0,2.0
1701873451.7658908,8.0,-10.0,-13.0,-1.0,-4.0,5.0,5.0,1.0
1701873451.7758613,-1.0,-8.0,8.0,10.0,11.0,3.0,3.0,-1.0
1701873451.7758613,1.0,12.0,-4.0,-7.0,-4.0,-12.0,-17.0,2.0
1701873451.786113,2.0,15.0,-1.0,0.0,-1.0,-4.0,-9.0,-6.0
1701873451.786113,-5.0,-13.0,17.0,2.0,-12.0,1.0,17.0,8.0
1701873451.7958608,-4.0,-5.0,-11.0,-9.0,-10.0,-4.0,-7.0,-6.0
1701873451.7958608,-8.0,22.0,-3.0,10.0,14.0,16.0,14.0,9.0
1701873451.8258562,-9.0,-4.0,27.0,7.0,-5.0,-15.0,-20.0,-17.0
1701873451.8258562,-1.0,-5.0,-64.0,-41.0,7.0,10.0,9.0,11.0
1701873451.8258562,-4.0,-5.0,89.0,69.0,-8.0,-15.0,-12.0,-4.0
1701873451.8258562,-7.0,-14.0,-36.0,-28.0,-8.0,-8.0,-6.0,-13.0
1701873451.8258562,9.0,22.0,-5.0,-3.0,2.0,7.0,8.0,14.0
1701873451.8258562,0.0,2.0,-12.0,-8.0,-1.0,1.0,1.0,-2.0
1701873451.8258562,14.0,5.0,-28.0,-18.0,0.0,3.0,4.0,5.0
1701873451.8258562,-3.0,-10.0,-5.0,-1.0,-12.0,-8.0,-5.0,-5.0
1701873451.845856,-2.0,-6.0,30.0,10.0,-3.0,2.0,2.0,2.0
1701873451.845856,-3.0,0.0,4.0,12.0,18.0,7.0,0.0,-6.0
1701873451.8558562,2.0,-6.0,-21.0,-14.0,1.0,-1.0,1.0,5.0
1701873451.8558562,1.0,1.0,14.0,1.0,-8.0,-8.0,-4.0,0.0
1701873451.8658557,1.0,5.0,-12.0,-16.0,-13.0,-6.0,-5.0,0.0
1701873451.8658557,-3.0,-5.0,1.0,4.0,-3.0,-1.0,-3.0,-2.0
1701873451.8761523,-11.0,-27.0,-4.0,4.0,5.0,-1.0,-1.0,-11.0
1701873451.8761523,15.0,40.0,10.0,-1.0,-3.0,-5.0,-2.0,9.0
1701873451.886213,-7.0,-10.0,2.0,-5.0,3.0,7.0,7.0,3.0
1701873451.886213,-4.0,-17.0,-5.0,4.0,-4.0,-2.0,-8.0,-1.0
1701873451.886213,-2.0,18.0,4.0,-3.0,1.0,4.0,5.0,-9.0
1701873451.8958642,0.0,-10.0,-12.0,-1.0,2.0,0.0,3.0,4.0
1701873451.9059036,5.0,1.0,0.0,2.0,-2.0,-7.0,-4.0,1.0
1701873451.9059036,-3.0,8.0,20.0,12.0,3.0,8.0,12.0,0.0
1701873451.9159565,-5.0,-9.0,-19.0,-19.0,-4.0,0.0,1.0,6.0
1701873451.9159565,-3.0,7.0,11.0,3.0,0.0,-4.0,-12.0,-13.0
1701873451.9261665,-1.0,-6.0,-8.0,9.0,4.0,3.0,5.0,0.0
1701873451.9261665,-6.0,-5.0,8.0,0.0,-1.0,0.0,6.0,1.0
1701873451.9261665,1.0,4.0,-8.0,-13.0,-10.0,-6.0,-8.0,-5.0
1701873451.9261665,-1.0,1.0,5.0,0.0,1.0,2.0,3.0,4.0
1701873451.9461942,2.0,-9.0,-4.0,1.0,2.0,-4.0,-6.0,-2.0
1701873451.9461942,-1.0,0.0,4.0,4.0,1.0,-6.0,-4.0,-5.0
1701873451.9559653,-3.0,1.0,-10.0,-3.0,0.0,-4.0,1.0,1.0
1701873451.9559653,-5.0,5.0,11.0,2.0,-5.0,-3.0,-4.0,-7.0
1701873451.975914,0.0,-4.0,-9.0,-6.0,-1.0,3.0,3.0,1.0
1701873451.975914,10.0,-1.0,20.0,14.0,2.0,1.0,-3.0,-5.0
1701873451.975914,10.0,-6.0,-47.0,-18.0,3.0,1.0,1.0,9.0
1701873451.975914,0.0,-8.0,0.0,-10.0,-6.0,-11.0,-7.0,-3.0
1701873451.9860237,9.0,35.0,5.0,-3.0,-2.0,2.0,4.0,-7.0
1701873451.9860237,-1.0,1.0,0.0,-7.0,-9.0,-6.0,-6.0,-3.0
1701873451.9860237,-3.0,1.0,2.0,3.0,-1.0,-2.0,-4.0,1.0
1701873451.9860237,2.0,3.0,17.0,16.0,4.0,3.0,1.0,7.0
1701873452.0063238,-4.0,-7.0,-9.0,-6.0,-2.0,-2.0,-5.0,-1.0
1701873452.0063238,0.0,-11.0,-13.0,-3.0,-1.0,-8.0,-7.0,-3.0
1701873452.0063238,-2.0,3.0,17.0,7.0,6.0,11.0,16.0,4.0
1701873452.0063238,-13.0,-4.0,-10.0,-12.0,-1.0,-5.0,-15.0,-7.0
1701873452.0360122,-7.0,4.0,4.0,4.0,-1.0,2.0,0.0,-7.0
1701873452.0360122,-3.0,-11.0,-12.0,-2.0,-3.0,-6.0,-3.0,4.0
1701873452.0360122,-3.0,-6.0,-6.0,-6.0,-8.0,-8.0,-9.0,-2.0
1701873452.0360122,0.0,4.0,5.0,2.0,0.0,6.0,12.0,2.0
1701873452.0462527,-3.0,-12.0,-3.0,0.0,1.0,-3.0,-6.0,3.0
1701873452.0462527,10.0,28.0,9.0,7.0,4.0,2.0,-3.0,-7.0
1701873452.0462527,1.0,7.0,3.0,-10.0,0.0,-2.0,-5.0,7.0
1701873452.0462527,-22.0,-12.0,1.0,6.0,-4.0,0.0,3.0,-9.0
1701873452.0744333,9.0,-2.0,6.0,-3.0,0.0,0.0,4.0,5.0
1701873452.0744333,-7.0,-6.0,-9.0,-8.0,-2.0,2.0,1.0,-11.0
1701873452.0754328,16.0,34.0,19.0,11.0,6.0,4.0,2.0,15.0
1701873452.0754328,6.0,-7.0,-14.0,-9.0,1.0,-1.0,0.0,1.0
1701873452.1086802,-5.0,-8.0,2.0,-1.0,-8.0,-4.0,-2.0,-3.0
1701873452.1086802,-1.0,5.0,3.0,7.0,3.0,2.0,1.0,-2.0
1701873452.1086802,-11.0,-10.0,-3.0,0.0,2.0,0.0,-3.0,-8.0
1701873452.1086802,-5.0,4.0,-3.0,-4.0,1.0,1.0,-2.0,-1.0
1701873452.1086802,4.0,5.0,6.0,7.0,2.0,-1.0,2.0,0.0
1701873452.1086802,-4.0,-8.0,-20.0,-22.0,-10.0,-5.0,-1.0,1.0
1701873452.1086802,0.0,-12.0,-19.0,-10.0,-7.0,-2.0,-4.0,-6.0
1701873452.1086802,-11.0,-1.0,3.0,1.0,5.0,3.0,7.0,3.0
1701873452.1289155,0.0,-16.0,-3.0,0.0,1.0,-3.0,-5.0,-3.0
1701873452.1289155,10.0,21.0,7.0,8.0,2.0,-1.0,-2.0,5.0
1701873452.1289155,-13.0,-5.0,0.0,-9.0,-5.0,-4.0,0.0,-5.0
1701873452.1289155,12.0,-4.0,2.0,4.0,1.0,-1.0,0.0,0.0
1701873452.1686814,-4.0,-13.0,-10.0,-2.0,3.0,3.0,8.0,1.0
1701873452.1686814,-6.0,-2.0,7.0,7.0,5.0,1.0,0.0,-2.0
1701873452.1686814,1.0,-10.0,-16.0,-3.0,-2.0,-5.0,0.0,2.0
1701873452.1686814,4.0,-9.0,-4.0,-11.0,-9.0,-6.0,-3.0,-3.0
1701873452.1686814,4.0,30.0,8.0,2.0,-1.0,0.0,-1.0,1.0
1701873452.1686814,-7.0,-21.0,-6.0,-4.0,-1.0,3.0,1.0,5.0
1701873452.1686814,-1.0,0.0,9.0,4.0,0.0,0.0,-4.0,-4.0
1701873452.1686814,-13.0,22.0,12.0,12.0,3.0,3.0,3.0,1.0
1701873452.1887977,-3.0,3.0,5.0,-1.0,-1.0,5.0,8.0,-2.0
1701873452.1887977,-6.0,1.0,8.0,-3.0,-1.0,-2.0,-7.0,-8.0
1701873452.1887977,-2.0,-7.0,-20.0,-11.0,-3.0,-2.0,-4.0,-2.0
1701873452.1887977,-1.0,-9.0,-5.0,-4.0,-4.0,-6.0,-16.0,-23.0
1701873452.208679,-5.0,-7.0,-15.0,-9.0,-4.0,-4.0,4.0,4.0
1701873452.208679,-1.0,8.0,19.0,11.0,0.0,-2.0,-3.0,1.0
1701873452.208679,-6.0,-5.0,15.0,10.0,6.0,5.0,2.0,-4.0
1701873452.208679,10.0,-5.0,-16.0,-3.0,2.0,2.0,7.0,10.0
1701873452.2290251,-6.0,-16.0,5.0,1.0,-2.0,-5.0,-12.0,-4.0
1701873452.2290251,-3.0,2.0,-15.0,-8.0,-6.0,-2.0,-3.0,-5.0
1701873452.2290251,-7.0,-15.0,13.0,4.0,-5.0,-3.0,-5.0,-7.0
1701873452.2290251,12.0,-1.0,-10.0,-9.0,-3.0,1.0,4.0,12.0
1701873452.2586787,-8.0,-2.0,-6.0,-3.0,0.0,-5.0,-11.0,-6.0
1701873452.2586787,-11.0,-12.0,-2.0,-4.0,0.0,2.0,14.0,-5.0
1701873452.2586787,3.0,-2.0,-2.0,2.0,0.0,2.0,-3.0,-4.0
1701873452.2586787,7.0,18.0,28.0,6.0,-1.0,-4.0,-5.0,-2.0
1701873452.2690215,-3.0,-18.0,-18.0,-6.0,-3.0,-2.0,0.0,3.0
1701873452.2690215,-10.0,-2.0,8.0,4.0,-2.0,-7.0,-12.0,-4.0
1701873452.2690215,-2.0,-1.0,3.0,5.0,-1.0,-3.0,9.0,0.0
1701873452.2690215,3.0,-6.0,-22.0,-7.0,-3.0,0.0,4.0,2.0
1701873452.28896,6.0,14.0,3.0,-1.0,2.0,0.0,-9.0,-2.0
1701873452.28896,-16.0,-4.0,4.0,-2.0,-3.0,-7.0,-7.0,-1.0
1701873452.28896,11.0,-1.0,-6.0,-1.0,1.0,2.0,2.0,-3.0
1701873452.28896,-2.0,-15.0,-7.0,0.0,-5.0,-5.0,-6.0,10.0
1701873452.3186796,-2.0,4.0,-5.0,-5.0,-2.0,-5.0,-4.0,-5.0
1701873452.3186796,4.0,1.0,5.0,5.0,0.0,8.0,18.0,-4.0
1701873452.3186796,-3.0,0.0,-4.0,-7.0,-4.0,-7.0,-11.0,2.0
1701873452.3186796,-13.0,-13.0,-10.0,-6.0,-4.0,-4.0,-6.0,-7.0
1701873452.3288922,-1.0,4.0,11.0,6.0,0.0,-2.0,-6.0,-1.0
1701873452.3288922,7.0,-11.0,3.0,3.0,0.0,-1.0,-1.0,2.0
1701873452.3288922,4.0,12.0,10.0,3.0,5.0,2.0,5.0,3.0
1701873452.3386836,-4.0,-14.0,-5.0,3.0,5.0,2.0,-6.0,-5.0
1701873452.3487518,-8.0,-5.0,-20.0,-19.0,-6.0,1.0,8.0,-4.0
1701873452.3487518,5.0,-2.0,-1.0,-1.0,-1.0,-3.0,-5.0,1.0
1701873452.3487518,-26.0,9.0,12.0,7.0,3.0,7.0,7.0,-1.0
1701873452.3487518,-3.0,-4.0,-1.0,2.0,-1.0,0.0,-3.0,-5.0
1701873452.3886805,-2.0,-7.0,6.0,8.0,1.0,-4.0,-8.0,-4.0
1701873452.3886805,-1.0,-3.0,-16.0,-5.0,-8.0,-6.0,1.0,-4.0
1701873452.3986807,12.0,1.0,-7.0,-6.0,1.0,3.0,0.0,11.0
1701873452.3986807,3.0,-28.0,-23.0,-16.0,-1.0,-4.0,-2.0,0.0
1701873452.3986807,-16.0,6.0,11.0,18.0,-2.0,-4.0,-7.0,-4.0
1701873452.3986807,7.0,15.0,-20.0,-26.0,-6.0,-6.0,-2.0,-13.0
1701873452.3986807,4.0,-28.0,4.0,16.0,-1.0,0.0,-3.0,8.0
1701873452.3986807,-1.0,20.0,22.0,14.0,-4.0,-5.0,-6.0,-17.0
1701873452.4386778,15.0,24.0,-27.0,-18.0,0.0,1.0,7.0,10.0
1701873452.4386778,-1.0,-23.0,-6.0,0.0,6.0,-1.0,-12.0,3.0
1701873452.4386778,3.0,-2.0,-32.0,-31.0,-4.0,11.0,17.0,7.0
1701873452.4386778,18.0,42.0,20.0,10.0,-5.0,-1.0,-8.0,-9.0
1701873452.4386778,-24.0,-59.0,23.0,14.0,-6.0,-1.0,5.0,-2.0
1701873452.4386778,2.0,19.0,-18.0,-10.0,4.0,-3.0,-12.0,5.0
1701873452.4386778,-1.0,20.0,12.0,-4.0,-5.0,-13.0,-16.0,-17.0
1701873452.4386778,-13.0,-33.0,-28.0,5.0,6.0,18.0,38.0,9.0
1701873452.4490082,8.0,37.0,29.0,3.0,2.0,-5.0,-9.0,1.0
1701873452.4490082,0.0,-44.0,2.0,2.0,0.0,2.0,0.0,12.0
1701873452.4490082,4.0,20.0,2.0,-3.0,-4.0,-4.0,-2.0,-3.0
1701873452.4490082,-9.0,-31.0,-18.0,-11.0,2.0,-1.0,-10.0,3.0
1701873452.4687345,14.0,9.0,13.0,5.0,-5.0,4.0,6.0,-6.0
1701873452.4687345,-17.0,7.0,11.0,8.0,-1.0,0.0,-3.0,-9.0
1701873452.4786792,-7.0,-23.0,4.0,3.0,-8.0,-15.0,-13.0,-5.0
1701873452.4786792,0.0,16.0,-1.0,-13.0,1.0,1.0,-1.0,2.0
1701873452.488713,2.0,-12.0,-11.0,-6.0,2.0,3.0,7.0,-1.0
1701873452.488713,4.0,14.0,-1.0,4.0,-2.0,-2.0,-3.0,2.0
1701873452.488713,-18.0,0.0,11.0,3.0,-4.0,-2.0,-3.0,-7.0
1701873452.488713,-1.0,15.0,-3.0,-4.0,5.0,3.0,4.0,-2.0
1701873452.5089803,-1.0,-9.0,-14.0,2.0,11.0,2.0,-4.0,2.0
1701873452.5089803,1.0,12.0,13.0,8.0,5.0,5.0,0.0,-3.0
1701873452.5089803,4.0,-10.0,-16.0,-9.0,-12.0,-6.0,1.0,-5.0
1701873452.5089803,-6.0,-20.0,4.0,-2.0,-7.0,-4.0,-8.0,0.0
1701873452.528733,4.0,14.0,13.0,15.0,6.0,4.0,2.0,9.0
1701873452.528733,-13.0,1.0,-15.0,-21.0,4.0,2.0,2.0,-8.0
1701873452.5386798,-1.0,-7.0,9.0,7.0,-2.0,-1.0,3.0,-1.0
1701873452.5386798,1.0,-7.0,-3.0,0.0,-7.0,-11.0,-9.0,7.0
1701873452.548712,-6.0,-6.0,3.0,-4.0,-13.0,-7.0,-4.0,-12.0
1701873452.548712,8.0,3.0,5.0,10.0,0.0,0.0,4.0,6.0
1701873452.548712,-10.0,-1.0,-7.0,-1.0,7.0,8.0,5.0,7.0
1701873452.548712,-3.0,10.0,15.0,2.0,-11.0,-9.0,-9.0,-15.0
1701873452.5690324,1.0,-9.0,-16.0,1.0,-3.0,1.0,0.0,-1.0
1701873452.5690324,-3.0,2.0,0.0,-6.0,10.0,11.0,4.0,4.0
1701873452.5690324,6.0,9.0,1.0,9.0,16.0,3.0,-10.0,-8.0
1701873452.5690324,-10.0,-29.0,5.0,7.0,-1.0,-3.0,7.0,2.0
1701873452.5897362,-7.0,-9.0,-13.0,-17.0,-9.0,-7.0,-6.0,-7.0
1701873452.5897362,8.0,2.0,-3.0,-1.0,-10.0,-4.0,-2.0,-2.0
1701873452.6061084,-5.0,-24.0,5.0,2.0,-1.0,-4.0,0.0,3.0
1701873452.6061084,-2.0,25.0,24.0,7.0,7.0,0.0,-5.0,2.0
1701873452.6114824,2.0,-19.0,-35.0,-15.0,-5.0,-3.0,-4.0,-8.0
1701873452.6114824,8.0,13.0,-2.0,2.0,-2.0,-1.0,3.0,9.0
1701873452.6114824,7.0,22.0,-7.0,-9.0,0.0,-1.0,-4.0,0.0
1701873452.6114824,8.0,6.0,-3.0,-5.0,-3.0,-1.0,-4.0,0.0
1701873452.631747,-11.0,13.0,3.0,-3.0,0.0,1.0,5.0,-4.0
1701873452.631747,-1.0,-1.0,15.0,16.0,2.0,-2.0,-3.0,-1.0
1701873452.631747,2.0,2.0,-10.0,-2.0,1.0,1.0,-1.0,1.0
1701873452.631747,-5.0,-3.0,0.0,-3.0,0.0,-1.0,-6.0,-12.0
1701873452.641487,5.0,7.0,1.0,-2.0,2.0,-1.0,3.0,3.0
1701873452.641487,-4.0,-9.0,-7.0,-8.0,-10.0,-9.0,-15.0,-14.0
1701873452.6515696,-3.0,19.0,3.0,-1.0,-6.0,2.0,11.0,-4.0
1701873452.6515696,-1.0,1.0,0.0,7.0,7.0,8.0,3.0,8.0
1701873452.671696,-4.0,-5.0,-2.0,0.0,6.0,8.0,1.0,1.0
1701873452.671696,-1.0,-8.0,-3.0,-7.0,-6.0,-7.0,-4.0,-2.0
1701873452.671696,-10.0,-7.0,5.0,-2.0,-7.0,-1.0,-5.0,-5.0
1701873452.671696,-4.0,19.0,7.0,-1.0,2.0,10.0,9.0,5.0
1701873452.6918979,0.0,2.0,0.0,0.0,0.0,-2.0,-1.0,5.0
1701873452.6918979,-1.0,-2.0,2.0,7.0,1.0,1.0,7.0,5.0
1701873452.6918979,-2.0,11.0,3.0,3.0,1.0,-1.0,-4.0,-2.0
1701873452.6918979,24.0,24.0,2.0,6.0,-1.0,2.0,5.0,0.0
1701873452.7216291,-21.0,-33.0,-36.0,-27.0,-8.0,-6.0,-10.0,-9.0
1701873452.7216291,3.0,7.0,-10.0,-7.0,-3.0,-5.0,-9.0,2.0
1701873452.7216291,-9.0,-23.0,5.0,3.0,-1.0,-1.0,10.0,0.0
1701873452.7216291,3.0,-9.0,-13.0,-4.0,-4.0,1.0,8.0,8.0
1701873452.731846,7.0,2.0,8.0,8.0,3.0,11.0,19.0,14.0
1701873452.731846,0.0,-3.0,-10.0,-5.0,-1.0,3.0,-5.0,-9.0
1701873452.731846,4.0,12.0,6.0,1.0,-2.0,-8.0,-10.0,-10.0
1701873452.731846,4.0,-7.0,-11.0,-8.0,1.0,2.0,3.0,12.0
1701873452.7519279,-1.0,4.0,20.0,12.0,1.0,-7.0,-8.0,-9.0
1701873452.7519279,-5.0,-8.0,9.0,9.0,-3.0,-7.0,-2.0,3.0
1701873452.7519279,4.0,0.0,4.0,5.0,2.0,5.0,13.0,4.0
1701873452.7519279,-9.0,-10.0,-22.0,-19.0,-2.0,1.0,-1.0,-7.0
1701873452.7716305,5.0,3.0,-9.0,-1.0,-2.0,-3.0,-9.0,-4.0
1701873452.7716305,-4.0,-2.0,6.0,5.0,-2.0,1.0,1.0,-7.0
1701873452.7716305,5.0,2.0,9.0,9.0,0.0,-2.0,-9.0,4.0
1701873452.7716305,-10.0,-15.0,-3.0,-2.0,-3.0,-9.0,-10.0,-10.0
1701873452.7919927,1.0,4.0,-16.0,-7.0,6.0,6.0,4.0,1.0
1701873452.7919927,0.0,14.0,11.0,4.0,5.0,8.0,9.0,5.0
1701873452.7919927,-21.0,1.0,15.0,11.0,-4.0,-7.0,-6.0,-4.0
1701873452.7919927,0.0,5.0,4.0,4.0,0.0,-5.0,-3.0,-2.0
1701873452.8116295,3.0,-1.0,3.0,-7.0,-6.0,-7.0,-8.0,-1.0
1701873452.8116295,-7.0,-10.0,-15.0,-13.0,5.0,6.0,7.0,1.0
1701873452.8116295,6.0,40.0,5.0,7.0,6.0,4.0,1.0,2.0
1701873452.8116295,-2.0,2.0,19.0,5.0,-3.0,-8.0,-9.0,-8.0
1701873452.8317473,-8.0,-6.0,-6.0,8.0,-5.0,-5.0,-1.0,3.0
1701873452.8317473,0.0,-4.0,-12.0,-5.0,-3.0,-1.0,-1.0,-3.0
1701873452.8317473,0.0,-14.0,-7.0,-19.0,-10.0,0.0,-3.0,-2.0
1701873452.8317473,-4.0,-14.0,-22.0,-12.0,1.0,-2.0,0.0,8.0
1701873452.8518746,6.0,12.0,21.0,12.0,2.0,1.0,0.0,-1.0
1701873452.8518746,3.0,2.0,21.0,17.0,1.0,3.0,4.0,10.0
1701873452.8518746,-7.0,-14.0,-31.0,-15.0,-4.0,-6.0,-10.0,-17.0
1701873452.8518746,9.0,18.0,22.0,11.0,2.0,2.0,-1.0,4.0
1701873452.8816307,-1.0,-12.0,-15.0,-7.0,-4.0,0.0,3.0,2.0
1701873452.8816307,2.0,0.0,8.0,1.0,-5.0,-4.0,-3.0,-9.0
1701873452.8816307,0.0,-20.0,-17.0,-8.0,0.0,-2.0,-2.0,2.0
1701873452.8816307,2.0,-2.0,24.0,7.0,3.0,1.0,1.0,-2.0
1701873452.8916633,-14.0,4.0,-17.0,-12.0,-5.0,-7.0,-5.0,-3.0
1701873452.8916633,12.0,22.0,13.0,-2.0,1.0,3.0,2.0,-5.0
1701873452.8916633,9.0,-10.0,-24.0,-11.0,-4.0,-1.0,2.0,29.0
1701873452.8916633,-4.0,-14.0,13.0,6.0,-7.0,-6.0,-5.0,-22.0
1701873452.9118521,20.0,14.0,23.0,12.0,4.0,2.0,1.0,10.0
1701873452.9118521,-10.0,-2.0,-4.0,0.0,1.0,-1.0,-1.0,-5.0
1701873452.9118521,-3.0,-26.0,-58.0,-27.0,-5.0,-2.0,1.0,-2.0
1701873452.9118521,-8.0,-1.0,-2.0,-3.0,0.0,-2.0,-5.0,2.0
1701873452.951633,-17.0,-1.0,38.0,9.0,0.0,-3.0,-6.0,-8.0
1701873452.951633,1.0,-16.0,-39.0,-8.0,-3.0,-2.0,2.0,0.0
1701873452.951633,13.0,46.0,48.0,14.0,4.0,0.0,-3.0,0.0
1701873452.951633,-6.0,-15.0,-43.0,-21.0,-6.0,-2.0,3.0,0.0
1701873452.951633,-10.0,-35.0,-8.0,3.0,-5.0,-8.0,-6.0,-10.0
1701873452.951633,-10.0,-26.0,-16.0,-8.0,-3.0,-3.0,-3.0,-1.0
1701873452.951633,-16.0,-3.0,3.0,4.0,-1.0,-5.0,-5.0,-5.0
1701873452.951633,4.0,9.0,-1.0,-2.0,3.0,6.0,7.0,4.0
1701873452.9719937,21.0,93.0,38.0,13.0,13.0,18.0,7.0,9.0
1701873452.9719937,-29.0,-88.0,-42.0,-12.0,-11.0,-12.0,-15.0,-22.0
1701873452.9719937,-3.0,-12.0,-27.0,1.0,-1.0,-6.0,-7.0,-6.0
1701873452.9719937,-5.0,20.0,14.0,0.0,-5.0,-9.0,-13.0,-10.0
1701873452.9916294,15.0,-11.0,-6.0,-3.0,-1.0,6.0,18.0,12.0
1701873452.9916294,-30.0,24.0,25.0,14.0,9.0,13.0,14.0,1.0
1701873452.9916294,3.0,-2.0,9.0,0.0,-1.0,2.0,4.0,-6.0
1701873452.9916294,-3.0,-23.0,-16.0,1.0,-3.0,-7.0,-12.0,-1.0
1701873453.0120077,-6.0,-31.0,-3.0,-2.0,3.0,-4.0,-10.0,-7.0
1701873453.0120077,15.0,19.0,8.0,-4.0,-2.0,1.0,1.0,1.0
1701873453.0120077,-18.0,-18.0,1.0,-3.0,-6.0,-14.0,-14.0,-15.0
1701873453.0120077,13.0,11.0,19.0,9.0,1.0,4.0,8.0,8.0
1701873453.0316327,-20.0,-45.0,-43.0,-19.0,-9.0,-9.0,-12.0,-24.0
1701873453.0316327,13.0,14.0,3.0,-7.0,-6.0,-1.0,6.0,14.0
1701873453.0316327,12.0,1.0,12.0,9.0,4.0,4.0,6.0,15.0
1701873453.0316327,-4.0,-21.0,-3.0,4.0,0.0,-7.0,-10.0,-9.0
1701873453.0516295,8.0,20.0,-22.0,-12.0,2.0,11.0,16.0,0.0
1701873453.0516295,5.0,2.0,21.0,10.0,1.0,3.0,0.0,2.0
1701873453.0516295,4.0,35.0,2.0,-5.0,3.0,1.0,-4.0,1.0
1701873453.0516295,-9.0,-24.0,-7.0,-3.0,-5.0,-2.0,1.0,0.0
1701873453.0718937,7.0,3.0,14.0,9.0,1.0,-9.0,-11.0,-3.0
1701873453.0718937,10.0,20.0,-10.0,-3.0,2.0,-2.0,0.0,5.0
1701873453.0718937,3.0,-4.0,-2.0,3.0,4.0,8.0,7.0,0.0
1701873453.0718937,-1.0,18.0,2.0,-2.0,-6.0,-6.0,-7.0,-5.0
1701873453.1149194,-1.0,-7.0,-16.0,-19.0,-6.0,-3.0,1.0,2.0
1701873453.1149194,4.0,6.0,34.0,36.0,-4.0,-8.0,-6.0,-4.0
1701873453.1149194,-2.0,-15.0,-2.0,-7.0,10.0,6.0,-2.0,-2.0
1701873453.1149194,-2.0,3.0,-18.0,-15.0,-6.0,-2.0,3.0,3.0
1701873453.1149194,-3.0,3.0,-9.0,-11.0,-2.0,1.0,0.0,4.0
1701873453.1149194,-1.0,-2.0,6.0,0.0,4.0,2.0,-2.0,-2.0
1701873453.1159887,11.0,4.0,-26.0,-17.0,4.0,2.0,3.0,1.0
1701873453.1159887,-14.0,15.0,30.0,23.0,6.0,4.0,5.0,1.0
1701873453.1380405,2.0,-1.0,-1.0,2.0,-7.0,-9.0,-4.0,0.0
1701873453.1380405,-4.0,-4.0,-5.0,-8.0,-7.0,-4.0,-6.0,-4.0
1701873453.1380405,-10.0,-13.0,6.0,3.0,-8.0,-2.0,5.0,1.0
1701873453.1380405,2.0,4.0,-9.0,-6.0,3.0,3.0,0.0,0.0
1701873453.1542754,-6.0,-5.0,19.0,-2.0,-3.0,0.0,0.0,4.0
1701873453.1542754,-5.0,-7.0,-9.0,1.0,1.0,0.0,-4.0,-6.0
1701873453.1542754,5.0,-5.0,-5.0,-6.0,-4.0,-1.0,3.0,2.0
1701873453.1542754,-3.0,-7.0,-4.0,-4.0,-1.0,1.0,2.0,4.0
1701873453.1745882,3.0,8.0,11.0,16.0,7.0,-1.0,-6.0,-3.0
1701873453.1745882,-3.0,2.0,-9.0,-9.0,3.0,-1.0,-1.0,2.0
1701873453.1745882,4.0,6.0,19.0,1.0,-8.0,-4.0,-2.0,0.0
1701873453.1745882,10.0,-15.0,-25.0,-7.0,-1.0,2.0,2.0,1.0
1701873453.1948261,6.0,13.0,7.0,7.0,3.0,8.0,6.0,3.0
1701873453.1948261,0.0,-10.0,-9.0,-9.0,-5.0,-6.0,-8.0,-9.0
1701873453.1948261,-16.0,8.0,19.0,8.0,0.0,-3.0,-1.0,-1.0
1701873453.1948261,-24.0,-32.0,-29.0,-12.0,-4.0,-3.0,-5.0,-5.0
1701873453.2345676,-1.0,3.0,7.0,1.0,-3.0,-5.0,-3.0,-11.0
1701873453.2345676,-1.0,1.0,-3.0,-4.0,0.0,1.0,1.0,1.0
1701873453.2345676,3.0,-4.0,3.0,4.0,-1.0,-1.0,-3.0,-2.0
1701873453.2345676,2.0,9.0,7.0,4.0,5.0,2.0,4.0,-3.0
1701873453.2345676,-2.0,-2.0,-2.0,2.0,-1.0,1.0,1.0,8.0
1701873453.2345676,4.0,-2.0,-11.0,-10.0,-3.0,-3.0,-3.0,4.0
1701873453.2345676,7.0,14.0,15.0,15.0,3.0,2.0,-2.0,-5.0
1701873453.2345676,8.0,-2.0,-17.0,-15.0,-3.0,0.0,3.0,8.0
1701873453.2548327,-7.0,-13.0,4.0,1.0,-1.0,-4.0,-6.0,-11.0
1701873453.2548327,3.0,-1.0,-9.0,-5.0,-4.0,-4.0,1.0,5.0
1701873453.2548327,0.0,-7.0,-10.0,-11.0,-4.0,-1.0,0.0,-1.0
1701873453.2548327,2.0,14.0,20.0,8.0,2.0,0.0,-1.0,-3.0
1701873453.2845693,-1.0,3.0,3.0,1.0,0.0,0.0,2.0,-2.0
1701873453.2845693,-2.0,6.0,-2.0,-2.0,-1.0,0.0,-2.0,-2.0
1701873453.2845693,-1.0,-4.0,0.0,3.0,-3.0,-1.0,-2.0,2.0
1701873453.2845693,-4.0,1.0,2.0,-2.0,-3.0,-3.0,0.0,-3.0
1701873453.294889,2.0,4.0,-4.0,2.0,2.0,-2.0,-2.0,-4.0
1701873453.294889,1.0,5.0,14.0,3.0,3.0,2.0,3.0,10.0
1701873453.294889,-2.0,-13.0,-3.0,4.0,0.0,-4.0,-5.0,2.0
1701873453.294889,-3.0,4.0,14.0,3.0,1.0,0.0,1.0,8.0
1701873453.314572,-14.0,-10.0,-18.0,-11.0,-6.0,-3.0,-5.0,-23.0
1701873453.314572,6.0,19.0,11.0,-2.0,-2.0,-3.0,-2.0,-3.0
1701873453.314572,3.0,0.0,3.0,2.0,-1.0,0.0,4.0,4.0
1701873453.314572,4.0,-3.0,-11.0,-4.0,1.0,-2.0,-2.0,-1.0
1701873453.3245692,1.0,6.0,9.0,3.0,1.0,-1.0,0.0,9.0
1701873453.3245692,-18.0,-16.0,-4.0,-6.0,-3.0,-4.0,-6.0,-11.0
1701873453.3245692,5.0,16.0,-4.0,-4.0,-1.0,-5.0,-10.0,-3.0
1701873453.3245692,4.0,6.0,10.0,4.0,0.0,3.0,9.0,1.0
1701873453.3548377,13.0,2.0,-11.0,-4.0,6.0,8.0,9.0,23.0
1701873453.3548377,-16.0,-21.0,-4.0,-7.0,-10.0,-7.0,-2.0,-12.0
1701873453.3548377,0.0,-4.0,5.0,1.0,-4.0,-8.0,-6.0,-2.0
1701873453.3548377,-5.0,2.0,-5.0,-4.0,-2.0,-3.0,-6.0,-7.0
1701873453.3748212,-3.0,-1.0,2.0,2.0,2.0,-3.0,-4.0,1.0
1701873453.3748212,9.0,8.0,-9.0,-1.0,5.0,5.0,4.0,10.0
1701873453.3748212,-7.0,-1.0,1.0,-1.0,1.0,1.0,2.0,-9.0
1701873453.3748212,5.0,6.0,11.0,4.0,-5.0,-3.0,-5.0,-4.0
1701873453.4145694,-3.0,13.0,-2.0,0.0,5.0,2.0,2.0,0.0
1701873453.4145694,8.0,-10.0,-2.0,-4.0,-6.0,-6.0,1.0,8.0
1701873453.4145694,-12.0,-12.0,-10.0,-6.0,2.0,3.0,-3.0,-18.0
1701873453.4145694,1.0,-5.0,-10.0,-4.0,0.0,0.0,-1.0,1.0
1701873453.4145694,-3.0,-14.0,1.0,3.0,-5.0,-6.0,-3.0,-2.0
1701873453.4145694,5.0,14.0,11.0,6.0,3.0,-1.0,-3.0,-2.0
1701873453.4145694,-1.0,-5.0,-1.0,-3.0,-4.0,0.0,5.0,0.0
1701873453.4145694,5.0,10.0,-10.0,-5.0,0.0,-1.0,-6.0,-1.0
1701873453.4445708,-12.0,-1.0,4.0,-1.0,0.0,0.0,-1.0,-9.0
1701873453.4445708,2.0,0.0,-6.0,-1.0,0.0,-1.0,0.0,0.0
1701873453.4445708,5.0,3.0,7.0,6.0,-1.0,1.0,0.0,8.0
1701873453.4445708,-4.0,-9.0,-12.0,-9.0,-6.0,-4.0,-4.0,-5.0
1701873453.4445708,0.0,-9.0,-4.0,-8.0,-2.0,-4.0,-2.0,0.0
1701873453.4445708,7.0,9.0,8.0,5.0,0.0,-1.0,1.0,4.0
1701873453.4547443,-5.0,-1.0,4.0,12.0,2.0,0.0,1.0,0.0
1701873453.4547443,5.0,0.0,4.0,2.0,1.0,0.0,3.0,5.0
1701873453.4747145,-5.0,1.0,-10.0,-7.0,-4.0,-4.0,-6.0,-7.0
1701873453.4747145,2.0,-6.0,-9.0,-10.0,-1.0,2.0,-2.0,3.0
1701873453.4747145,-7.0,2.0,5.0,5.0,1.0,4.0,4.0,-2.0
1701873453.4747145,-7.0,-13.0,-20.0,-16.0,-9.0,-4.0,-4.0,-5.0
1701873453.4945693,2.0,-7.0,-13.0,-4.0,-4.0,-4.0,0.0,5.0
1701873453.4945693,-9.0,5.0,4.0,3.0,-2.0,-2.0,-3.0,-5.0
1701873453.4945693,4.0,0.0,-1.0,-8.0,-6.0,-4.0,-2.0,1.0
1701873453.4945693,3.0,3.0,16.0,10.0,0.0,-2.0,1.0,-2.0
1701873453.5046122,-3.0,-5.0,-5.0,0.0,4.0,3.0,-1.0,2.0
1701873453.5046122,1.0,7.0,7.0,1.0,0.0,-2.0,-2.0,-4.0
1701873453.51474,-8.0,-13.0,-16.0,-4.0,3.0,1.0,1.0,1.0
1701873453.51474,-7.0,9.0,-1.0,-10.0,-3.0,1.0,-1.0,-6.0
1701873453.5347207,5.0,-6.0,-6.0,1.0,-6.0,-6.0,-5.0,3.0
1701873453.5347207,3.0,-19.0,1.0,3.0,-1.0,-4.0,-2.0,-2.0
1701873453.5347207,-1.0,-4.0,-9.0,-7.0,3.0,2.0,-3.0,-5.0
1701873453.5347207,1.0,8.0,7.0,10.0,4.0,4.0,5.0,4.0
