1701873257.4359436,-1.0,-2.0,0.0,-1.0,-2.0,1.0,0.0,-2.0
1701873257.4359436,0.0,-1.0,-1.0,2.0,-1.0,-1.0,-2.0,-2.0
1701873257.4359436,-1.0,0.0,-1.0,8.0,-1.0,-1.0,0.0,1.0
1701873257.4359436,-3.0,-2.0,-5.0,-19.0,-5.0,-3.0,1.0,0.0
1701873257.455946,-1.0,-2.0,-2.0,-2.0,-1.0,-2.0,0.0,0.0
1701873257.455946,0.0,0.0,1.0,-2.0,0.0,0.0,-1.0,-3.0
1701873257.455946,-1.0,-1.0,-1.0,2.0,0.0,-1.0,0.0,-2.0
1701873257.455946,-1.0,-1.0,1.0,6.0,1.0,0.0,-2.0,-1.0
1701873257.5059412,-3.0,-1.0,-3.0,-4.0,-1.0,-1.0,-3.0,0.0
1701873257.5059412,-1.0,-1.0,0.0,1.0,-1.0,-2.0,-3.0,1.0
1701873257.5059412,-1.0,1.0,-1.0,-3.0,0.0,-3.0,-2.0,0.0
1701873257.5059412,-2.0,-1.0,1.0,7.0,2.0,1.0,-1.0,0.0
1701873257.5059412,-2.0,-3.0,-5.0,-16.0,-4.0,-1.0,-2.0,-1.0
1701873257.5059412,-3.0,0.0,1.0,1.0,0.0,-1.0,-1.0,-1.0
1701873257.5059412,-1.0,-2.0,1.0,2.0,-2.0,-2.0,-1.0,-3.0
1701873257.5059412,-1.0,-1.0,0.0,-1.0,-2.0,-2.0,1.0,-1.0
1701873257.5159464,-1.0,-2.0,0.0,1.0,2.0,-1.0,-1.0,-1.0
1701873257.5159464,-1.0,-3.0,-5.0,1.0,2.0,-2.0,0.0,-3.0
1701873257.5159464,1.0,-1.0,0.0,-4.0,-1.0,0.0,-1.0,0.0
1701873257.5159464,-2.0,-2.0,-3.0,0.0,-2.0,0.0,-2.0,1.0
1701873257.5360465,2.0,-2.0,-2.0,1.0,-2.0,-3.0,-1.0,-1.0
1701873257.5360465,0.0,1.0,0.0,-3.0,-1.0,1.0,1.0,-1.0
1701873257.5360465,-2.0,-1.0,-1.0,0.0,0.0,-1.0,0.0,0.0
1701873257.5360465,0.0,0.0,2.0,5.0,-2.0,-1.0,-1.0,-3.0
1701873257.56872,-2.0,0.0,-1.0,-1.0,-1.0,-1.0,-1.0,-3.0
1701873257.56872,-2.0,-1.0,-1.0,0.0,1.0,-1.0,-1.0,1.0
1701873257.56872,0.0,-2.0,-2.0,-2.0,0.0,-1.0,-2.0,1.0
1701873257.56872,-2.0,-2.0,-1.0,-4.0,-1.0,2.0,-1.0,-2.0
1701873257.56872,-2.0,0.0,2.0,-2.0,0.0,-1.0,0.0,-1.0
1701873257.56872,-1.0,-1.0,-1.0,1.0,-1.0,0.0,0.0,-1.0
1701873257.5790474,-2.0,0.0,-1.0,-1.0,-2.0,0.0,0.0,-1.0
1701873257.5790474,-1.0,0.0,-1.0,-1.0,-1.0,-2.0,-2.0,-1.0
1701873257.598733,-2.0,-1.0,-1.0,2.0,1.0,1.0,-2.0,-3.0
1701873257.598733,-2.0,0.0,2.0,0.0,-2.0,-2.0,-1.0,-1.0
1701873257.598733,-3.0,-2.0,-2.0,-4.0,0.0,-1.0,0.0,-1.0
1701873257.598733,-2.0,-2.0,-3.0,-4.0,-3.0,-3.0,0.0,0.0
1701873257.6190114,1.0,1.0,-1.0,-5.0,-2.0,-2.0,-2.0,-1.0
1701873257.6190114,-2.0,-1.0,-3.0,1.0,-1.0,-1.0,-1.0,0.0
1701873257.6190114,0.0,0.0,1.0,1.0,-2.0,-1.0,-1.0,0.0
1701873257.6190114,0.0,0.0,3.0,4.0,2.0,-2.0,-1.0,-1.0
1701873257.6290631,-1.0,-2.0,-1.0,0.0,-1.0,0.0,-2.0,0.0
1701873257.6290631,-2.0,-4.0,-1.0,-1.0,-3.0,-1.0,0.0,-1.0
1701873257.6390224,-1.0,0.0,0.0,-1.0,0.0,2.0,-2.0,-1.0
1701873257.6390224,-2.0,0.0,-3.0,1.0,-5.0,-1.0,-2.0,-1.0
1701873257.6587214,0.0,-2.0,-8.0,-12.0,4.0,-1.0,2.0,-2.0
1701873257.6587214,1.0,-1.0,-2.0,1.0,2.0,1.0,-3.0,-3.0
1701873257.6587214,-1.0,0.0,-1.0,1.0,0.0,-2.0,-3.0,-3.0
1701873257.6587214,1.0,1.0,0.0,-3.0,-3.0,-1.0,-1.0,-3.0
1701873257.6789417,-1.0,-1.0,3.0,7.0,-2.0,-2.0,-2.0,-1.0
1701873257.6789417,-1.0,-1.0,-1.0,-2.0,-3.0,0.0,1.0,-1.0
1701873257.6789417,-1.0,-2.0,-2.0,-3.0,-1.0,-2.0,2.0,0.0
1701873257.6789417,-3.0,-1.0,0.0,0.0,0.0,-2.0,-1.0,-1.0
1701873257.6887262,-1.0,0.0,-2.0,0.0,0.0,2.0,-1.0,-1.0
1701873257.6887262,-1.0,-1.0,-1.0,-2.0,2.0,-2.0,-1.0,-3.0
1701873257.6989136,0.0,-2.0,-3.0,-3.0,-3.0,-3.0,-2.0,-1.0
1701873257.6989136,0.0,-1.0,-1.0,-1.0,1.0,0.0,0.0,-1.0
1701873257.7287207,1.0,-1.0,0.0,1.0,-1.0,-1.0,0.0,1.0
1701873257.7287207,-1.0,-1.0,0.0,-1.0,-1.0,-2.0,-3.0,1.0
1701873257.7287207,0.0,-2.0,-2.0,-1.0,-2.0,0.0,-1.0,-1.0
1701873257.7287207,-2.0,-1.0,-2.0,-4.0,-1.0,0.0,-1.0,2.0
1701873257.7390034,0.0,-1.0,1.0,7.0,0.0,0.0,-2.0,-1.0
1701873257.7390034,-3.0,-2.0,-6.0,-14.0,-6.0,-1.0,-2.0,0.0
1701873257.7390034,1.0,1.0,0.0,-2.0,0.0,-2.0,-2.0,-2.0
1701873257.7390034,-1.0,-1.0,-2.0,1.0,1.0,-1.0,-2.0,-3.0
1701873257.7487218,-1.0,-2.0,1.0,0.0,-3.0,-1.0,-1.0,1.0
1701873257.7487218,1.0,0.0,2.0,7.0,-1.0,0.0,0.0,-1.0
1701873257.768721,-3.0,-3.0,-2.0,-3.0,0.0,-1.0,0.0,1.0
1701873257.768721,-2.0,-2.0,0.0,-1.0,1.0,-3.0,-3.0,-2.0
1701873257.7787888,-4.0,-2.0,-2.0,-3.0,-11.0,-4.0,1.0,0.0
1701873257.7787888,0.0,-3.0,-7.0,-16.0,-43.0,-1.0,-2.0,-2.0
1701873257.7787888,-4.0,-4.0,0.0,4.0,39.0,-13.0,-3.0,0.0
1701873257.7787888,5.0,4.0,9.0,29.0,57.0,24.0,3.0,3.0
1701873257.7987225,1.0,0.0,0.0,1.0,-10.0,3.0,0.0,0.0
1701873257.7987225,1.0,1.0,1.0,4.0,3.0,3.0,0.0,0.0
1701873257.7987225,-1.0,-3.0,-7.0,-12.0,-15.0,-2.0,-2.0,-3.0
1701873257.7987225,-1.0,-2.0,-4.0,-11.0,-20.0,-9.0,-2.0,-2.0
1701873257.8287208,-3.0,-2.0,-4.0,-12.0,1.0,-2.0,-1.0,-3.0
1701873257.8287208,-5.0,-5.0,-6.0,-27.0,-80.0,-16.0,-6.0,-3.0
1701873257.8287208,-1.0,0.0,0.0,4.0,12.0,-10.0,1.0,-1.0
1701873257.8287208,-1.0,0.0,3.0,27.0,84.0,30.0,4.0,-1.0
1701873257.8387835,0.0,2.0,2.0,20.0,1.0,9.0,1.0,-1.0
1701873257.8387835,3.0,7.0,6.0,-7.0,6.0,-8.0,1.0,1.0
1701873257.8387835,-1.0,-6.0,-10.0,-6.0,-17.0,0.0,-1.0,-3.0
1701873257.8387835,-2.0,-8.0,-15.0,-36.0,-37.0,-10.0,-3.0,-1.0
1701873257.8590145,-1.0,-1.0,0.0,-6.0,-11.0,-6.0,-6.0,-3.0
1701873257.8590145,-5.0,-2.0,-3.0,-11.0,-59.0,-24.0,-6.0,-2.0
1701873257.8590145,-4.0,4.0,13.0,13.0,9.0,-15.0,-3.0,-3.0
1701873257.8590145,4.0,1.0,5.0,25.0,77.0,38.0,5.0,1.0
1701873257.9087205,-1.0,0.0,-7.0,14.0,0.0,15.0,6.0,2.0
1701873257.9087205,4.0,1.0,4.0,-13.0,5.0,-4.0,-6.0,-4.0
1701873257.9087205,-1.0,-4.0,-16.0,-18.0,-41.0,-14.0,-2.0,-1.0
1701873257.9087205,0.0,-13.0,4.0,0.0,38.0,12.0,0.0,3.0
1701873257.9087205,7.0,16.0,24.0,12.0,13.0,-8.0,3.0,3.0
1701873257.9087205,-13.0,-30.0,-56.0,-23.0,-54.0,-22.0,-10.0,-10.0
1701873257.9087205,1.0,22.0,30.0,6.0,59.0,20.0,0.0,1.0
1701873257.9087205,-4.0,-11.0,-13.0,9.0,-23.0,-11.0,-1.0,0.0
1701873257.9187574,1.0,-5.0,-16.0,-27.0,16.0,-9.0,-3.0,-3.0
1701873257.9187574,5.0,14.0,31.0,30.0,-35.0,4.0,-1.0,3.0
1701873257.9187574,-4.0,-12.0,-10.0,10.0,57.0,19.0,3.0,-2.0
1701873257.9187574,9.0,32.0,41.0,22.0,-34.0,-13.0,6.0,6.0
1701873257.9387195,0.0,-12.0,-23.0,-5.0,2.0,6.0,-6.0,-1.0
1701873257.9387195,-10.0,-18.0,-16.0,-15.0,24.0,-4.0,0.0,-4.0
1701873257.9387195,2.0,5.0,17.0,8.0,-13.0,16.0,3.0,0.0
1701873257.9387195,-5.0,-4.0,-20.0,-39.0,-55.0,-21.0,-6.0,-4.0
1701873257.9587877,-6.0,-6.0,-1.0,-16.0,-52.0,-41.0,-9.0,-4.0
1701873257.9587877,0.0,-6.0,-3.0,14.0,81.0,43.0,3.0,1.0
1701873257.9587877,-5.0,-15.0,-20.0,-12.0,-27.0,-13.0,-1.0,-1.0
1701873257.9587877,7.0,18.0,29.0,21.0,22.0,0.0,3.0,4.0
1701873257.9787729,-3.0,-6.0,-6.0,6.0,-24.0,14.0,2.0,-1.0
1701873257.9787729,8.0,23.0,16.0,32.0,94.0,23.0,11.0,5.0
1701873257.9787729,-2.0,-13.0,-20.0,-17.0,-20.0,9.0,-2.0,-2.0
1701873257.9787729,-8.0,-11.0,-15.0,-15.0,-59.0,-37.0,-13.0,-9.0
1701873257.9987195,-6.0,-1.0,-7.0,-41.0,-57.0,-23.0,-6.0,-3.0
1701873257.9987195,-4.0,-4.0,10.0,16.0,32.0,9.0,4.0,2.0
1701873257.9987195,3.0,6.0,9.0,22.0,32.0,21.0,4.0,2.0
1701873257.9987195,1.0,-1.0,-8.0,-7.0,-5.0,-5.0,0.0,1.0
1701873258.0268223,1.0,1.0,5.0,10.0,21.0,3.0,-3.0,0.0
1701873258.0268223,0.0,0.0,1.0,-2.0,-14.0,-9.0,-1.0,-2.0
1701873258.0278294,-2.0,-3.0,-9.0,-19.0,-55.0,-27.0,-7.0,-3.0
1701873258.0278294,-7.0,-12.0,-12.0,-13.0,-14.0,5.0,-1.0,-4.0
1701873258.041821,2.0,4.0,15.0,22.0,57.0,23.0,7.0,1.0
1701873258.041821,3.0,5.0,0.0,1.0,6.0,-5.0,0.0,1.0
1701873258.041821,-1.0,0.0,2.0,-2.0,-19.0,-2.0,-1.0,-2.0
1701873258.041821,-6.0,-8.0,-6.0,-7.0,-1.0,-1.0,-5.0,-5.0
1701873258.0644348,-4.0,-9.0,-5.0,-6.0,-10.0,-1.0,0.0,-3.0
1701873258.065096,-2.0,-6.0,-5.0,-10.0,4.0,1.0,-1.0,-1.0
1701873258.065096,2.0,3.0,6.0,10.0,16.0,16.0,3.0,2.0
1701873258.065096,2.0,2.0,-2.0,-1.0,-8.0,0.0,2.0,1.0
1701873258.078681,0.0,1.0,-2.0,0.0,10.0,-2.0,0.0,-2.0
1701873258.078681,-1.0,2.0,6.0,6.0,10.0,-4.0,-2.0,-1.0
1701873258.078681,-3.0,-5.0,-1.0,-14.0,-67.0,-28.0,-8.0,-5.0
1701873258.0796385,-5.0,-5.0,-9.0,-10.0,28.0,12.0,-2.0,-2.0
1701873258.1010113,-1.0,0.0,5.0,13.0,24.0,14.0,3.0,4.0
1701873258.1010113,5.0,8.0,11.0,12.0,8.0,4.0,3.0,3.0
1701873258.1020305,0.0,2.0,-1.0,8.0,-2.0,-4.0,-2.0,-3.0
1701873258.1020305,0.0,-1.0,-5.0,-12.0,-32.0,-19.0,-5.0,-5.0
1701873258.1239595,-3.0,-3.0,-2.0,-8.0,-11.0,-8.0,-5.0,-5.0
1701873258.1239595,-2.0,-4.0,-5.0,-4.0,-6.0,-7.0,-5.0,-2.0
1701873258.1248481,-2.0,-2.0,-5.0,-10.0,-2.0,-4.0,-1.0,2.0
1701873258.1248481,-1.0,2.0,2.0,12.0,11.0,22.0,6.0,3.0
1701873258.1384854,1.0,3.0,6.0,17.0,43.0,14.0,4.0,4.0
1701873258.1384854,0.0,-2.0,-3.0,-5.0,-11.0,-10.0,-4.0,-2.0
1701873258.1392176,-3.0,-4.0,-5.0,-8.0,-14.0,-13.0,-6.0,-2.0
1701873258.1392176,-2.0,-5.0,-4.0,-7.0,-21.0,-11.0,-4.0,-3.0
1701873258.1604962,0.0,-3.0,0.0,-4.0,-24.0,-9.0,-1.0,1.0
1701873258.1604962,2.0,3.0,4.0,5.0,21.0,9.0,0.0,1.0
1701873258.1616988,1.0,2.0,3.0,8.0,24.0,12.0,5.0,1.0
1701873258.1616988,-2.0,1.0,-1.0,2.0,7.0,8.0,2.0,-1.0
1701873258.1845422,-1.0,-1.0,-2.0,-1.0,-6.0,1.0,-1.0,0.0
1701873258.1845422,-3.0,-4.0,-7.0,-13.0,-6.0,-13.0,-5.0,-1.0
1701873258.1845422,-2.0,-4.0,-4.0,-9.0,-14.0,-10.0,-7.0,-4.0
1701873258.185506,-1.0,-2.0,0.0,0.0,-3.0,4.0,3.0,-1.0
1701873258.198758,1.0,2.0,4.0,3.0,3.0,3.0,-1.0,0.0
1701873258.198758,2.0,1.0,1.0,7.0,17.0,4.0,-5.0,-1.0
1701873258.198758,1.0,2.0,-2.0,-1.0,5.0,1.0,2.0,0.0
1701873258.198758,-5.0,-4.0,-3.0,-9.0,-19.0,2.0,9.0,0.0
1701873258.2115743,-2.0,-3.0,-5.0,-8.0,-8.0,-9.0,-8.0,-3.0
1701873258.2115743,-2.0,-2.0,-3.0,-2.0,-9.0,0.0,-1.0,-2.0
1701873258.2215734,-1.0,0.0,3.0,4.0,10.0,-1.0,-5.0,-1.0
1701873258.2215734,-2.0,-1.0,0.0,-1.0,-6.0,-13.0,-9.0,-1.0
1701873258.241942,-1.0,-3.0,-1.0,0.0,6.0,4.0,1.0,0.0
1701873258.241942,-1.0,-2.0,4.0,1.0,-2.0,1.0,1.0,0.0
1701873258.241942,-1.0,-4.0,-5.0,-1.0,0.0,2.0,2.0,1.0
1701873258.241942,-1.0,-2.0,-1.0,-1.0,-1.0,-4.0,-2.0,-3.0
1701873258.251914,-1.0,0.0,1.0,1.0,0.0,-2.0,-2.0,-1.0
1701873258.251914,-2.0,2.0,2.0,-2.0,-5.0,-3.0,-1.0,-1.0
1701873258.251914,-2.0,-4.0,-1.0,0.0,2.0,5.0,0.0,1.0
1701873258.251914,-1.0,-1.0,1.0,7.0,4.0,0.0,-1.0,0.0
1701873258.2715745,1.0,1.0,-1.0,-5.0,-2.0,-5.0,-3.0,-1.0
1701873258.2715745,-3.0,-5.0,-4.0,1.0,-4.0,0.0,0.0,-4.0
1701873258.2815733,0.0,0.0,-1.0,-2.0,8.0,6.0,4.0,3.0
1701873258.2815733,2.0,1.0,-1.0,-6.0,-7.0,-5.0,-7.0,-1.0
1701873258.3019726,-1.0,0.0,-1.0,-2.0,-4.0,-5.0,-5.0,-2.0
1701873258.3019726,0.0,-1.0,-1.0,-4.0,-3.0,4.0,2.0,-2.0
1701873258.3019726,0.0,0.0,1.0,3.0,0.0,-1.0,1.0,-3.0
1701873258.3019726,0.0,1.0,1.0,1.0,-3.0,-3.0,-2.0,1.0
1701873258.3119113,-2.0,1.0,-2.0,-5.0,3.0,2.0,3.0,-1.0
1701873258.3119113,-2.0,-2.0,-1.0,2.0,6.0,1.0,1.0,1.0
1701873258.3119113,0.0,4.0,8.0,8.0,3.0,-2.0,-10.0,-3.0
1701873258.3119113,1.0,-5.0,-11.0,-5.0,-12.0,-10.0,-3.0,-2.0
1701873258.3319304,-3.0,-2.0,-7.0,-8.0,2.0,4.0,4.0,0.0
1701873258.3319304,-2.0,-1.0,-2.0,-1.0,-3.0,0.0,3.0,1.0
1701873258.341575,1.0,-2.0,-3.0,0.0,3.0,3.0,3.0,0.0
1701873258.341575,-1.0,2.0,4.0,3.0,0.0,-2.0,0.0,-1.0
1701873258.3619108,-2.0,-4.0,-2.0,0.0,-4.0,-5.0,-12.0,-4.0
1701873258.3619108,-1.0,-2.0,-4.0,-8.0,-4.0,-1.0,-2.0,-2.0
1701873258.3619108,0.0,1.0,3.0,1.0,3.0,3.0,2.0,1.0
1701873258.3619108,-2.0,-4.0,-3.0,-4.0,-3.0,0.0,-1.0,-1.0
1701873258.381574,2.0,1.0,0.0,-2.0,1.0,1.0,6.0,3.0
1701873258.381574,-7.0,-7.0,-2.0,0.0,2.0,-1.0,-7.0,-4.0
1701873258.381574,-2.0,-1.0,-5.0,-4.0,-11.0,-5.0,-4.0,-6.0
1701873258.381574,0.0,1.0,1.0,-1.0,8.0,4.0,2.0,2.0
1701873258.3918965,-4.0,-7.0,-4.0,4.0,4.0,-5.0,-3.0,-1.0
1701873258.3918965,1.0,2.0,2.0,1.0,-2.0,-1.0,-1.0,0.0
1701873258.4015803,-2.0,-5.0,-4.0,-3.0,-7.0,-3.0,-5.0,-4.0
1701873258.4015803,-1.0,4.0,2.0,2.0,-4.0,-2.0,0.0,3.0
1701873258.421958,1.0,9.0,2.0,-6.0,4.0,7.0,4.0,3.0
1701873258.421958,-5.0,-29.0,-15.0,-4.0,9.0,-1.0,4.0,2.0
1701873258.421958,6.0,25.0,13.0,2.0,-8.0,-4.0,-3.0,0.0
1701873258.421958,-5.0,-7.0,-12.0,-9.0,6.0,3.0,-5.0,-7.0
1701873258.4319205,5.0,11.0,9.0,16.0,-8.0,-1.0,-5.0,-4.0
1701873258.4319205,1.0,-12.0,-8.0,-21.0,-18.0,-8.0,4.0,6.0
1701873258.4416127,-9.0,-7.0,-1.0,3.0,30.0,11.0,4.0,1.0
1701873258.4416127,1.0,8.0,2.0,1.0,15.0,5.0,-3.0,0.0
1701873258.461576,2.0,4.0,6.0,9.0,0.0,-3.0,-1.0,0.0
1701873258.461576,2.0,17.0,12.0,4.0,-15.0,-7.0,-6.0,-4.0
1701873258.461576,0.0,-7.0,-13.0,-14.0,-22.0,-13.0,-1.0,-1.0
1701873258.461576,-1.0,-4.0,-2.0,-9.0,-4.0,-1.0,-1.0,0.0
1701873258.4819164,-3.0,-10.0,-2.0,2.0,-5.0,2.0,-1.0,-1.0
1701873258.4819164,-1.0,3.0,-2.0,8.0,13.0,-4.0,-3.0,-2.0
1701873258.4819164,-5.0,-8.0,-7.0,4.0,15.0,6.0,2.0,1.0
1701873258.4819164,-1.0,-1.0,14.0,1.0,-7.0,-8.0,-3.0,-2.0
1701873258.491898,-9.0,-13.0,-7.0,-5.0,-7.0,-7.0,-2.0,-3.0
1701873258.491898,-2.0,1.0,-4.0,-9.0,-9.0,2.0,-1.0,-1.0
1701873258.5018911,2.0,3.0,-2.0,-1.0,-5.0,-2.0,0.0,2.0
1701873258.5018911,0.0,-2.0,-5.0,1.0,0.0,1.0,-2.0,-1.0
1701873258.5115783,0.0,0.0,4.0,-4.0,-6.0,-2.0,0.0,0.0
1701873258.5115783,-2.0,5.0,4.0,8.0,11.0,6.0,-2.0,-2.0
1701873258.5215733,0.0,-5.0,-4.0,-2.0,4.0,2.0,0.0,-1.0
1701873258.5215733,-2.0,-3.0,1.0,2.0,-7.0,-4.0,0.0,-2.0
1701873258.541575,-3.0,-3.0,-1.0,-5.0,0.0,-3.0,0.0,-1.0
1701873258.541575,0.0,1.0,-4.0,0.0,-1.0,1.0,2.0,-3.0
1701873258.541575,0.0,-4.0,1.0,-5.0,-5.0,-1.0,0.0,0.0
1701873258.541575,-1.0,0.0,2.0,-1.0,-4.0,-4.0,-2.0,1.0
1701873258.5715795,-2.0,1.0,-4.0,-3.0,6.0,0.0,-2.0,-2.0
1701873258.5715795,-1.0,-1.0,-3.0,0.0,-1.0,0.0,-2.0,0.0
1701873258.5715795,0.0,1.0,4.0,4.0,-3.0,-2.0,-2.0,-2.0
1701873258.5715795,1.0,-1.0,-2.0,-1.0,-3.0,-3.0,-1.0,-1.0
1701873258.5715795,0.0,-4.0,-4.0,-3.0,1.0,-1.0,-1.0,0.0
1701873258.5715795,0.0,0.0,3.0,2.0,-4.0,-3.0,-3.0,-3.0
1701873258.5816073,-1.0,-1.0,1.0,2.0,0.0,-2.0,-1.0,2.0
1701873258.5816073,-1.0,-3.0,-5.0,-2.0,0.0,-1.0,0.0,0.0
1701873258.6045172,0.0,-1.0,-2.0,-2.0,-1.0,-2.0,-2.0,-2.0
1701873258.6045172,1.0,9.0,2.0,2.0,-2.0,1.0,-2.0,-1.0
1701873258.6053905,-3.0,-10.0,-4.0,2.0,-2.0,2.0,0.0,-3.0
1701873258.6053905,-1.0,-4.0,-5.0,-6.0,1.0,0.0,-1.0,-1.0
1701873258.6213837,3.0,4.0,0.0,-3.0,-1.0,-1.0,0.0,1.0
1701873258.6213837,1.0,4.0,7.0,10.0,0.0,0.0,-1.0,0.0
1701873258.6264486,-1.0,-8.0,-13.0,-28.0,-2.0,-1.0,0.0,-1.0
1701873258.6264486,3.0,20.0,8.0,-6.0,-1.0,-2.0,-1.0,-1.0
1701873258.6345847,-4.0,-10.0,-5.0,-3.0,-1.0,-1.0,-3.0,-1.0
1701873258.6345847,-1.0,2.0,0.0,0.0,0.0,0.0,-2.0,1.0
1701873258.6345847,3.0,10.0,9.0,19.0,0.0,-3.0,-2.0,1.0
1701873258.6345847,-4.0,-12.0,-5.0,-3.0,-4.0,-3.0,0.0,-2.0
1701873258.664585,-1.0,4.0,0.0,-2.0,2.0,-2.0,-1.0,-1.0
1701873258.664585,1.0,4.0,-1.0,0.0,-2.0,1.0,0.0,0.0
1701873258.664585,0.0,-5.0,-1.0,0.0,-2.0,0.0,1.0,-1.0
1701873258.664585,-3.0,-5.0,-5.0,-2.0,-2.0,1.0,-1.0,-2.0
1701873258.6748798,-2.0,2.0,1.0,0.0,-1.0,0.0,0.0,-2.0
1701873258.6748798,-3.0,-9.0,-5.0,-3.0,-2.0,0.0,1.0,-3.0
1701873258.6849518,-1.0,2.0,-1.0,-1.0,-1.0,0.0,0.0,-3.0
1701873258.6849518,-3.0,-3.0,0.0,1.0,-1.0,-2.0,-2.0,-2.0
1701873258.6949563,-2.0,-2.0,0.0,-3.0,-3.0,-2.0,-2.0,0.0
1701873258.6949563,0.0,-3.0,-3.0,-4.0,1.0,1.0,1.0,1.0
1701873258.6949563,-2.0,-2.0,1.0,-1.0,-1.0,0.0,0.0,-1.0
1701873258.6949563,1.0,0.0,0.0,2.0,1.0,-1.0,1.0,1.0
1701873258.7245889,-1.0,-4.0,-1.0,-4.0,0.0,1.0,0.0,-1.0
1701873258.7245889,-3.0,-3.0,-2.0,-3.0,-1.0,-2.0,0.0,-1.0
1701873258.7245889,-3.0,2.0,2.0,1.0,0.0,0.0,0.0,2.0
1701873258.7245889,-2.0,-6.0,-2.0,1.0,-2.0,-1.0,-1.0,-2.0
1701873258.744593,-1.0,-1.0,-3.0,-3.0,0.0,0.0,-1.0,-3.0
1701873258.744593,-1.0,0.0,0.0,5.0,1.0,0.0,1.0,-2.0
1701873258.744593,-1.0,1.0,0.0,4.0,0.0,0.0,-1.0,-2.0
1701873258.744593,-1.0,-1.0,-6.0,-12.0,-3.0,-2.0,-2.0,0.0
1701873258.7546337,-1.0,-1.0,-5.0,-2.0,0.0,0.0,-3.0,0.0
1701873258.7546337,-2.0,-3.0,-6.0,-10.0,-5.0,-5.0,-4.0,0.0
1701873258.7546337,2.0,-2.0,-1.0,-4.0,-3.0,-1.0,-1.0,0.0
1701873258.7546337,1.0,1.0,3.0,9.0,0.0,-2.0,0.0,0.0
1701873258.7845883,1.0,1.0,2.0,10.0,0.0,-2.0,-1.0,0.0
1701873258.7845883,-1.0,-3.0,-2.0,5.0,-2.0,0.0,0.0,0.0
1701873258.7845883,0.0,0.0,-3.0,-13.0,-3.0,0.0,-2.0,-2.0
1701873258.7845883,-2.0,-11.0,-9.0,-9.0,-2.0,1.0,-4.0,-2.0
1701873258.8049562,-1.0,0.0,-1.0,-1.0,1.0,-1.0,-2.0,-2.0
1701873258.8049562,0.0,1.0,4.0,4.0,3.0,1.0,-1.0,-1.0
1701873258.8049562,-2.0,-1.0,2.0,2.0,0.0,0.0,-3.0,0.0
1701873258.8049562,0.0,3.0,1.0,1.0,-2.0,0.0,0.0,-1.0
1701873258.8149173,-2.0,-2.0,-1.0,0.0,-3.0,-2.0,-1.0,-1.0
1701873258.8149173,-2.0,-3.0,-1.0,-3.0,0.0,-2.0,-2.0,-2.0
1701873258.8149173,-2.0,0.0,-2.0,0.0,-1.0,-3.0,2.0,-1.0
1701873258.8149173,0.0,0.0,-1.0,2.0,-2.0,-1.0,-1.0,0.0
1701873258.8446357,-2.0,-2.0,-1.0,-2.0,0.0,-1.0,0.0,-2.0
1701873258.8446357,-1.0,0.0,-1.0,-6.0,-2.0,-1.0,0.0,-2.0
1701873258.8446357,-1.0,-3.0,0.0,-2.0,-1.0,-2.0,-1.0,-3.0
1701873258.8446357,0.0,1.0,1.0,3.0,-1.0,0.0,-1.0,-2.0
1701873258.8649187,-1.0,-1.0,-1.0,-1.0,-2.0,-1.0,-1.0,1.0
1701873258.8649187,-1.0,0.0,-2.0,-4.0,0.0,0.0,-1.0,0.0
1701873258.8649187,-2.0,-1.0,-2.0,1.0,0.0,-1.0,-2.0,0.0
1701873258.8649187,-1.0,-1.0,-1.0,-1.0,-2.0,-2.0,0.0,-1.0
1701873258.8748848,0.0,0.0,-1.0,-2.0,-3.0,0.0,-1.0,-2.0
1701873258.8748848,0.0,-1.0,-2.0,0.0,-1.0,0.0,-1.0,-1.0
1701873258.8748848,0.0,-2.0,-1.0,1.0,-2.0,-2.0,0.0,-1.0
1701873258.8748848,-1.0,-1.0,0.0,0.0,-1.0,-1.0,-1.0,-1.0
1701873258.904585,0.0,-1.0,0.0,-3.0,-2.0,-2.0,1.0,-1.0
1701873258.904585,-1.0,0.0,-2.0,-1.0,0.0,0.0,-1.0,0.0
1701873258.904585,-2.0,-1.0,-1.0,1.0,0.0,-1.0,-1.0,0.0
1701873258.904585,-1.0,1.0,-2.0,-1.0,1.0,-3.0,-3.0,0.0
1701873258.9248815,-1.0,-1.0,-2.0,-1.0,-1.0,-2.0,-1.0,1.0
1701873258.9248815,-2.0,-1.0,-2.0,-1.0,-1.0,-3.0,-2.0,1.0
1701873258.9248815,0.0,-1.0,0.0,-1.0,-2.0,1.0,-1.0,-2.0
1701873258.9248815,-2.0,-2.0,0.0,-1.0,0.0,-1.0,-1.0,-2.0
1701873258.9348328,-2.0,-1.0,-2.0,-1.0,-1.0,-1.0,-2.0,-1.0
1701873258.9348328,-1.0,-3.0,-3.0,-2.0,-2.0,-1.0,0.0,-1.0
1701873258.974629,-1.0,-1.0,-3.0,0.0,0.0,-3.0,-3.0,1.0
1701873258.974629,0.0,0.0,-1.0,2.0,-1.0,-2.0,1.0,-1.0
1701873258.974629,-2.0,-1.0,-3.0,-4.0,-1.0,-2.0,-1.0,-2.0
1701873258.974629,-1.0,-1.0,-2.0,-2.0,-1.0,-1.0,-1.0,1.0
1701873258.974629,-2.0,-2.0,0.0,0.0,-2.0,0.0,0.0,-2.0
1701873258.974629,-1.0,-1.0,-1.0,-1.0,-1.0,-1.0,-1.0,-1.0
1701873258.9848163,-3.0,-1.0,-1.0,0.0,-2.0,-2.0,-1.0,0.0
1701873258.9848163,-1.0,0.0,-1.0,0.0,1.0,-2.0,-1.0,-2.0
1701873258.9848163,2.0,0.0,-2.0,-2.0,1.0,-2.0,-2.0,-2.0
1701873258.9848163,-1.0,-2.0,-1.0,-1.0,-1.0,1.0,-1.0,0.0
1701873258.994887,-1.0,1.0,0.0,0.0,-1.0,0.0,0.0,-3.0
1701873258.994887,-1.0,-1.0,3.0,1.0,-2.0,0.0,-1.0,-1.0
1701873258.994887,-1.0,-2.0,-2.0,-1.0,1.0,-1.0,1.0,-1.0
1701873258.994887,-2.0,-2.0,-3.0,-2.0,-3.0,-2.0,-3.0,-1.0
1701873259.0146408,1.0,-1.0,-1.0,-2.0,-2.0,0.0,1.0,-1.0
1701873259.0146408,1.0,-2.0,-1.0,-1.0,-2.0,-2.0,1.0,-1.0
1701873259.024908,-1.0,-1.0,-1.0,0.0,2.0,-2.0,-3.0,-1.0
1701873259.024908,-1.0,-1.0,0.0,-1.0,-1.0,-1.0,-1.0,1.0
1701873259.0446882,0.0,-1.0,0.0,-2.0,0.0,0.0,-2.0,-1.0
1701873259.0446882,-2.0,-2.0,-1.0,-2.0,1.0,1.0,0.0,-2.0
1701873259.0446882,-3.0,-2.0,-5.0,-9.0,-2.0,-1.0,-1.0,-1.0
1701873259.0446882,-2.0,0.0,0.0,-1.0,0.0,1.0,-1.0,-2.0
1701873259.0546424,-1.0,-1.0,1.0,2.0,0.0,-2.0,-2.0,0.0
1701873259.0546424,1.0,-1.0,1.0,3.0,-1.0,-1.0,-1.0,-1.0
1701873259.0546424,-1.0,-1.0,2.0,3.0,-1.0,-1.0,-1.0,-1.0
1701873259.0546424,-2.0,-1.0,-3.0,-3.0,-1.0,0.0,-1.0,-1.0
1701873259.084693,-3.0,-2.0,-2.0,0.0,0.0,-2.0,-1.0,-1.0
1701873259.084693,-1.0,-1.0,-2.0,0.0,-2.0,-1.0,0.0,-1.0
1701873259.084693,-3.0,1.0,-1.0,0.0,-1.0,-1.0,-1.0,0.0
1701873259.084693,0.0,0.0,-1.0,-2.0,-2.0,-1.0,1.0,-1.0
1701873259.1046634,0.0,0.0,-1.0,-2.0,-1.0,0.0,-3.0,-1.0
1701873259.1046634,-2.0,-2.0,-2.0,-1.0,0.0,-1.0,-1.0,1.0
1701873259.1046634,0.0,-1.0,-1.0,-1.0,0.0,0.0,0.0,-1.0
1701873259.1046634,-2.0,0.0,-2.0,-1.0,0.0,-1.0,0.0,0.0
1701873259.1149669,-1.0,-1.0,-1.0,0.0,-1.0,-1.0,0.0,-1.0
1701873259.1149669,-2.0,-2.0,-3.0,-4.0,-1.0,0.0,-2.0,0.0
1701873259.124981,-1.0,-1.0,-2.0,0.0,-2.0,-1.0,-3.0,-1.0
1701873259.1349766,0.0,-1.0,-1.0,0.0,-1.0,0.0,-3.0,-1.0
1701873259.144544,-1.0,-2.0,-2.0,-1.0,-2.0,-2.0,-2.0,-2.0
1701873259.1455686,-1.0,-2.0,-2.0,-1.0,-2.0,0.0,-1.0,0.0
1701873259.1455686,0.0,0.0,-1.0,1.0,0.0,1.0,1.0,1.0
1701873259.1455686,-1.0,-1.0,0.0,-1.0,0.0,-2.0,0.0,0.0
1701873259.1672356,1.0,-1.0,1.0,-1.0,0.0,-1.0,-2.0,1.0
1701873259.1672356,-1.0,1.0,-1.0,-1.0,0.0,-2.0,-1.0,-1.0
1701873259.1672356,-1.0,-1.0,-2.0,1.0,-2.0,-2.0,1.0,-3.0
1701873259.1672356,0.0,0.0,-1.0,1.0,-1.0,1.0,0.0,0.0
1701873259.1772616,-1.0,0.0,-2.0,0.0,-4.0,0.0,1.0,-1.0
1701873259.1772616,1.0,-1.0,-1.0,0.0,0.0,-1.0,-1.0,0.0
1701873259.187619,-1.0,-1.0,-1.0,-1.0,-1.0,0.0,-1.0,-2.0
1701873259.187619,-1.0,-1.0,0.0,0.0,1.0,-2.0,0.0,-2.0
1701873259.1976464,-2.0,-2.0,-2.0,-1.0,-2.0,-2.0,-2.0,0.0
1701873259.1976464,-1.0,0.0,-2.0,-2.0,-2.0,-1.0,-2.0,2.0
1701873259.1976464,0.0,-1.0,-1.0,-3.0,-1.0,-3.0,-2.0,-1.0
1701873259.1976464,-1.0,-2.0,-1.0,1.0,0.0,-3.0,-1.0,-1.0
1701873259.2272449,-1.0,0.0,-3.0,0.0,2.0,-2.0,-2.0,-2.0
1701873259.2272449,0.0,-1.0,-1.0,-2.0,-2.0,-2.0,1.0,-2.0
1701873259.2272449,-1.0,-1.0,-2.0,0.0,-1.0,1.0,-1.0,-1.0
1701873259.2272449,0.0,0.0,-1.0,1.0,-1.0,-1.0,-2.0,-1.0
1701873259.237248,-2.0,-2.0,-1.0,-1.0,-2.0,0.0,0.0,-2.0
1701873259.237248,-1.0,-2.0,-1.0,-2.0,-2.0,0.0,-3.0,-1.0
1701873259.237248,-2.0,-1.0,0.0,-1.0,1.0,-1.0,-1.0,2.0
1701873259.237248,-1.0,-1.0,0.0,0.0,-2.0,-2.0,-3.0,0.0
1701873259.2576594,0.0,-1.0,0.0,-2.0,0.0,0.0,-1.0,-3.0
1701873259.2576594,-2.0,0.0,-1.0,0.0,-1.0,-1.0,-1.0,-4.0
1701873259.2576594,-1.0,-2.0,0.0,-3.0,-2.0,0.0,0.0,-1.0
1701873259.2576594,0.0,0.0,-2.0,-2.0,1.0,-1.0,0.0,0.0
1701873259.2772374,-3.0,0.0,0.0,-2.0,0.0,1.0,-1.0,1.0
1701873259.2772374,0.0,0.0,0.0,-1.0,-2.0,0.0,-2.0,-1.0
1701873259.2873087,0.0,0.0,-3.0,0.0,-1.0,-1.0,-2.0,-1.0
1701873259.2873087,1.0,-1.0,-3.0,-1.0,-3.0,-1.0,0.0,-1.0
1701873259.297731,-1.0,1.0,-2.0,-1.0,0.0,-2.0,-2.0,-1.0
1701873259.297731,-2.0,-2.0,-1.0,-1.0,1.0,-1.0,-1.0,-1.0
1701873259.297731,-2.0,0.0,1.0,-1.0,-1.0,-1.0,-1.0,-2.0
1701873259.297731,-1.0,-1.0,-1.0,-2.0,-2.0,1.0,-1.0,-2.0
1701873259.3181353,0.0,1.0,0.0,-1.0,-2.0,-1.0,-1.0,-1.0
1701873259.3181353,-2.0,-2.0,-1.0,-1.0,-3.0,-2.0,-1.0,1.0
1701873259.3181353,0.0,-1.0,-1.0,0.0,-2.0,0.0,-1.0,0.0
1701873259.3181353,-2.0,-2.0,-2.0,0.0,-1.0,-1.0,0.0,1.0
1701873259.3377645,-1.0,-4.0,-3.0,-1.0,-3.0,0.0,-1.0,1.0
1701873259.3377645,0.0,-1.0,-2.0,-3.0,0.0,0.0,1.0,-1.0
1701873259.3377645,-1.0,-1.0,-1.0,-1.0,-2.0,-2.0,1.0,-1.0
1701873259.3377645,-1.0,0.0,1.0,0.0,-2.0,-2.0,-1.0,-2.0
1701873259.3581321,-1.0,-1.0,1.0,2.0,-1.0,-1.0,0.0,-2.0
1701873259.3581321,-1.0,-2.0,-3.0,-1.0,0.0,-2.0,-1.0,0.0
1701873259.368078,1.0,-1.0,-1.0,1.0,-1.0,-3.0,-2.0,-1.0
1701873259.368078,-3.0,-2.0,0.0,0.0,-1.0,0.0,-1.0,-1.0
1701873259.3781157,-1.0,-1.0,1.0,-2.0,0.0,-1.0,-1.0,0.0
1701873259.3781157,-2.0,-1.0,0.0,-1.0,-1.0,-3.0,-3.0,-3.0
1701873259.3781157,-2.0,0.0,0.0,0.0,0.0,-3.0,-2.0,-1.0
1701873259.3781157,0.0,0.0,-3.0,-3.0,-1.0,-1.0,-2.0,-1.0
1701873259.3977644,0.0,0.0,0.0,-3.0,-1.0,-1.0,-2.0,-1.0
1701873259.3977644,0.0,0.0,-1.0,-1.0,0.0,0.0,-1.0,-1.0
1701873259.3977644,-1.0,-3.0,-3.0,0.0,0.0,-2.0,0.0,-2.0
1701873259.3977644,-2.0,-2.0,1.0,-2.0,-1.0,0.0,-1.0,-2.0
1701873259.4181235,0.0,-2.0,-2.0,-1.0,0.0,1.0,0.0,0.0
1701873259.4181235,0.0,0.0,-2.0,0.0,-1.0,0.0,-2.0,0.0
1701873259.4281251,-1.0,-1.0,0.0,-1.0,-1.0,-2.0,-1.0,-1.0
1701873259.4281251,0.0,-2.0,-1.0,1.0,-1.0,-1.0,-2.0,2.0
1701873259.4378226,-1.0,0.0,-1.0,-1.0,-2.0,-2.0,-1.0,-1.0
1701873259.4378226,-1.0,-1.0,-2.0,-1.0,-1.0,0.0,0.0,-1.0
1701873259.4577641,-1.0,-1.0,-3.0,-2.0,-3.0,0.0,-1.0,-2.0
1701873259.4577641,0.0,-1.0,0.0,-2.0,0.0,0.0,-2.0,-2.0
1701873259.4577641,0.0,-2.0,-1.0,1.0,0.0,-2.0,-3.0,-2.0
1701873259.4577641,-2.0,-2.0,-1.0,0.0,-1.0,-1.0,-1.0,-1.0
1701873259.467765,-1.0,-1.0,-2.0,-1.0,-1.0,-2.0,-2.0,0.0
1701873259.467765,-1.0,-2.0,-1.0,-1.0,-2.0,-2.0,-2.0,-1.0
1701873259.477955,-2.0,-2.0,-1.0,-2.0,-1.0,1.0,1.0,1.0
1701873259.477955,-1.0,-1.0,0.0,-1.0,1.0,-1.0,-1.0,0.0
1701873259.4881268,-1.0,-1.0,-1.0,-1.0,0.0,1.0,0.0,0.0
1701873259.4881268,0.0,1.0,-1.0,0.0,0.0,0.0,0.0,0.0
1701873259.5077636,-1.0,-1.0,-1.0,-2.0,0.0,2.0,-3.0,-1.0
1701873259.5077636,-1.0,-2.0,1.0,-1.0,-1.0,-2.0,-1.0,-2.0
1701873259.5077636,-1.0,-2.0,0.0,-1.0,-1.0,-2.0,1.0,-1.0
1701873259.5077636,-3.0,-1.0,0.0,-2.0,-2.0,0.0,0.0,-2.0
1701873259.5181103,0.0,0.0,-2.0,-1.0,-1.0,-2.0,0.0,-1.0
1701873259.5181103,2.0,-1.0,-1.0,-1.0,-1.0,-1.0,-2.0,-2.0
1701873259.5277643,0.0,0.0,-2.0,-1.0,-2.0,-1.0,-5.0,-1.0
1701873259.5277643,0.0,-3.0,-2.0,-3.0,-2.0,-3.0,1.0,-2.0
1701873259.538081,-1.0,-1.0,-1.0,2.0,-1.0,-1.0,1.0,1.0
1701873259.538081,-1.0,0.0,-1.0,1.0,-1.0,-1.0,-3.0,-1.0
1701873259.5477653,0.0,0.0,1.0,-2.0,1.0,-1.0,1.0,-2.0
1701873259.5477653,0.0,-2.0,-2.0,-2.0,0.0,-1.0,-2.0,-2.0
1701873259.557996,-2.0,-1.0,1.0,0.0,-1.0,-2.0,-1.0,-3.0
1701873259.557996,-1.0,0.0,-1.0,-3.0,-2.0,-1.0,0.0,-1.0
1701873259.577764,-1.0,0.0,-1.0,-2.0,-2.0,-1.0,2.0,0.0
1701873259.577764,-2.0,-1.0,-3.0,-2.0,0.0,-1.0,-1.0,-1.0
1701873259.587768,0.0,0.0,-1.0,-2.0,-2.0,-1.0,-1.0,-2.0
1701873259.587768,0.0,0.0,0.0,-1.0,-3.0,0.0,0.0,0.0
1701873259.587768,-2.0,-2.0,-1.0,-2.0,-1.0,0.0,0.0,1.0
1701873259.587768,-2.0,-1.0,0.0,-2.0,-1.0,-2.0,-2.0,1.0
1701873259.5980341,-2.0,0.0,-2.0,-2.0,-2.0,0.0,-1.0,0.0
1701873259.5980341,-1.0,-1.0,-1.0,0.0,-1.0,-1.0,-3.0,0.0
1701873259.6080146,0.0,0.0,-1.0,-2.0,-1.0,-1.0,0.0,0.0
1701873259.6080146,-1.0,-1.0,-2.0,0.0,-1.0,-1.0,-1.0,0.0
1701873259.6377673,-1.0,-2.0,-2.0,0.0,-1.0,-3.0,-1.0,-2.0
1701873259.6377673,-2.0,-2.0,0.0,-1.0,0.0,0.0,1.0,-2.0
1701873259.6377673,0.0,-1.0,-1.0,0.0,0.0,-2.0,-2.0,-2.0
1701873259.6377673,-2.0,0.0,0.0,1.0,-1.0,-3.0,0.0,-2.0
1701873259.6377673,0.0,-1.0,-1.0,0.0,-2.0,-1.0,0.0,-2.0
1701873259.6377673,-1.0,-1.0,-2.0,-1.0,0.0,-1.0,-1.0,-1.0
1701873259.6477618,-2.0,-2.0,1.0,-1.0,-1.0,0.0,-4.0,-2.0
1701873259.6477618,1.0,-2.0,0.0,-1.0,0.0,-2.0,-1.0,-1.0
1701873259.661079,-2.0,-1.0,-1.0,-1.0,-1.0,-1.0,-3.0,0.0
1701873259.661079,-1.0,-2.0,-1.0,-1.0,-1.0,-2.0,-1.0,-1.0
1701873259.6792681,-2.0,-2.0,0.0,0.0,0.0,-1.0,0.0,0.0
1701873259.6792681,0.0,-1.0,-4.0,0.0,0.0,0.0,0.0,-1.0
1701873259.683279,-1.0,-1.0,-3.0,-1.0,-1.0,-2.0,0.0,-2.0
1701873259.6835601,-3.0,0.0,-2.0,-1.0,-2.0,-2.0,-2.0,0.0
1701873259.6835601,-1.0,-1.0,-1.0,-1.0,-2.0,0.0,-2.0,0.0
1701873259.6835601,-1.0,-1.0,0.0,0.0,-2.0,-1.0,-2.0,0.0
1701873259.7036297,-1.0,-1.0,0.0,-2.0,1.0,-2.0,0.0,-2.0
1701873259.7036297,-1.0,-1.0,-2.0,-1.0,0.0,0.0,-1.0,-1.0
1701873259.7036297,1.0,0.0,-1.0,0.0,-2.0,-2.0,-2.0,-1.0
1701873259.7036297,-1.0,0.0,-1.0,-1.0,1.0,-1.0,-1.0,1.0
1701873259.7435606,-1.0,-1.0,0.0,0.0,0.0,1.0,-1.0,0.0
1701873259.7435606,-1.0,-1.0,-2.0,-1.0,-1.0,-2.0,-1.0,-1.0
1701873259.7435606,-1.0,-1.0,-1.0,1.0,-2.0,-2.0,-3.0,-2.0
1701873259.7435606,-2.0,-2.0,-1.0,-1.0,-1.0,-2.0,-1.0,-1.0
1701873259.7435606,-2.0,-2.0,-1.0,0.0,-2.0,-1.0,-1.0,0.0
1701873259.7435606,0.0,-2.0,-2.0,-1.0,-1.0,-1.0,1.0,-2.0
1701873259.7435606,-2.0,-1.0,-2.0,-2.0,-2.0,0.0,1.0,0.0
1701873259.7435606,-1.0,0.0,-1.0,-2.0,-1.0,-2.0,0.0,0.0
1701873259.763916,0.0,0.0,1.0,0.0,-1.0,-1.0,0.0,0.0
1701873259.763916,-1.0,1.0,1.0,-1.0,2.0,-1.0,-1.0,0.0
1701873259.763916,0.0,-1.0,-3.0,-1.0,-2.0,0.0,-2.0,-1.0
1701873259.763916,1.0,0.0,0.0,-1.0,-2.0,1.0,-2.0,-3.0
1701873259.7935574,-2.0,-2.0,-1.0,1.0,-1.0,0.0,-1.0,-1.0
1701873259.7935574,-1.0,-1.0,-2.0,-1.0,0.0,-2.0,0.0,1.0
1701873259.7935574,0.0,-1.0,0.0,-1.0,0.0,-1.0,-1.0,-1.0
1701873259.7935574,-1.0,-1.0,-2.0,-2.0,-3.0,0.0,1.0,1.0
1701873259.8035617,-1.0,-2.0,-1.0,-1.0,-2.0,-1.0,-2.0,-1.0
1701873259.8035617,-1.0,-1.0,-1.0,-2.0,-2.0,-2.0,1.0,-3.0
1701873259.8135655,-1.0,-1.0,-1.0,0.0,-2.0,-3.0,-1.0,-1.0
1701873259.8135655,-1.0,-2.0,-3.0,-2.0,-1.0,-3.0,-1.0,-2.0
1701873259.823661,0.0,0.0,-2.0,0.0,0.0,-1.0,-1.0,-2.0
1701873259.823661,0.0,-3.0,-1.0,-2.0,-2.0,0.0,-2.0,-1.0
1701873259.823661,-1.0,0.0,-1.0,0.0,-2.0,-2.0,1.0,0.0
1701873259.823661,-1.0,-1.0,-1.0,1.0,0.0,1.0,0.0,0.0
1701873259.8435602,-2.0,0.0,-3.0,-3.0,0.0,-1.0,-2.0,0.0
1701873259.8435602,-1.0,-2.0,1.0,0.0,-2.0,-1.0,-2.0,-2.0
1701873259.8435602,-2.0,-1.0,-1.0,-2.0,-1.0,0.0,-2.0,0.0
1701873259.8435602,-1.0,-1.0,0.0,-1.0,-1.0,-3.0,-2.0,0.0
1701873259.8635614,-1.0,-2.0,-3.0,-2.0,-2.0,0.0,0.0,0.0
1701873259.8635614,-1.0,0.0,0.0,0.0,-1.0,1.0,-2.0,0.0
1701873259.8635614,0.0,-2.0,0.0,-1.0,-1.0,1.0,2.0,-1.0
1701873259.8635614,0.0,0.0,0.0,-2.0,-1.0,0.0,-1.0,0.0
1701873259.8939095,-1.0,-1.0,1.0,-2.0,0.0,-2.0,0.0,-1.0
1701873259.8939095,-1.0,-2.0,0.0,0.0,-1.0,0.0,-1.0,-1.0
1701873259.8939095,-4.0,-2.0,-2.0,-2.0,-1.0,-1.0,-2.0,-2.0
1701873259.8939095,-1.0,0.0,0.0,0.0,-1.0,0.0,-2.0,-1.0
1701873259.9035594,0.0,-1.0,0.0,-2.0,-1.0,-2.0,-3.0,-1.0
1701873259.9035594,-3.0,0.0,-3.0,-1.0,-1.0,1.0,1.0,0.0
1701873259.9035594,-1.0,-1.0,-2.0,0.0,-1.0,0.0,-1.0,-1.0
1701873259.9035594,0.0,-2.0,-1.0,0.0,-2.0,-1.0,-1.0,-1.0
1701873259.9235594,-1.0,-3.0,-1.0,0.0,0.0,-2.0,-1.0,-2.0
1701873259.9235594,-2.0,0.0,0.0,-1.0,0.0,0.0,0.0,-2.0
1701873259.9235594,0.0,0.0,0.0,-2.0,0.0,-1.0,-2.0,-1.0
1701873259.9235594,-1.0,-2.0,-2.0,-3.0,-1.0,0.0,-1.0,-1.0
1701873259.9437094,0.0,0.0,-1.0,1.0,0.0,0.0,0.0,1.0
1701873259.9437094,-1.0,-1.0,-3.0,-2.0,1.0,-2.0,0.0,-1.0
1701873259.9437094,0.0,0.0,-1.0,-1.0,-1.0,-3.0,1.0,0.0
1701873259.9437094,-1.0,-1.0,1.0,-1.0,-1.0,0.0,0.0,0.0
1701873259.9835582,-1.0,-1.0,-1.0,0.0,0.0,-2.0,-3.0,-1.0
1701873259.9835582,-2.0,1.0,1.0,-1.0,-1.0,-1.0,-2.0,-2.0
1701873259.9835582,-2.0,-1.0,-1.0,-2.0,0.0,-1.0,1.0,0.0
1701873259.9835582,0.0,-1.0,-1.0,-2.0,-2.0,-1.0,-1.0,0.0
1701873259.9835582,-1.0,-1.0,-1.0,-2.0,-1.0,1.0,-1.0,-2.0
1701873259.9835582,0.0,-3.0,-2.0,0.0,1.0,0.0,0.0,-2.0
1701873259.9835582,0.0,-1.0,-2.0,0.0,0.0,-2.0,-1.0,-3.0
1701873259.9835582,-1.0,0.0,-1.0,0.0,1.0,-1.0,-2.0,-4.0
1701873260.0037308,0.0,-1.0,0.0,0.0,-2.0,-2.0,0.0,-1.0
1701873260.0037308,0.0,0.0,-1.0,-1.0,-2.0,-1.0,-2.0,1.0
1701873260.0037308,0.0,-2.0,0.0,0.0,-2.0,2.0,-3.0,-2.0
1701873260.0037308,-2.0,-1.0,-1.0,-1.0,0.0,-1.0,-2.0,-1.0
1701873260.0235615,1.0,-1.0,-1.0,0.0,-1.0,-2.0,-3.0,0.0
1701873260.0235615,-1.0,-3.0,-1.0,0.0,0.0,-2.0,-2.0,1.0
1701873260.0437877,-1.0,0.0,1.0,-2.0,0.0,-1.0,-1.0,1.0
1701873260.0437877,-2.0,-1.0,-1.0,-3.0,-1.0,-1.0,-2.0,-1.0
1701873260.0437877,-1.0,-1.0,-2.0,-3.0,-2.0,-1.0,-1.0,-2.0
1701873260.0437877,-2.0,-1.0,-2.0,-1.0,-1.0,-2.0,-2.0,0.0
1701873260.0437877,-1.0,0.0,-1.0,-1.0,1.0,0.0,-2.0,-2.0
1701873260.0437877,0.0,-1.0,-2.0,-1.0,-1.0,-2.0,0.0,-3.0
1701873260.063562,-2.0,-1.0,1.0,-1.0,-1.0,1.0,-2.0,-2.0
1701873260.063562,-1.0,0.0,-2.0,-1.0,-1.0,-1.0,0.0,-3.0
1701873260.063562,0.0,0.0,-1.0,-1.0,-1.0,0.0,1.0,0.0
1701873260.063562,-2.0,-2.0,-1.0,-2.0,0.0,-1.0,1.0,1.0
1701873260.0839524,0.0,0.0,-1.0,-2.0,0.0,1.0,3.0,1.0
1701873260.0839524,-1.0,-2.0,-1.0,-2.0,-2.0,-3.0,0.0,1.0
1701873260.0839524,-2.0,-1.0,0.0,-2.0,0.0,-2.0,-2.0,-1.0
1701873260.0839524,0.0,-3.0,-2.0,-1.0,0.0,-1.0,-2.0,0.0
1701873260.1035616,-1.0,0.0,-2.0,-1.0,1.0,-1.0,-3.0,-2.0
1701873260.1035616,-1.0,-1.0,0.0,-1.0,-1.0,-2.0,-2.0,-1.0
1701873260.1035616,-2.0,0.0,-3.0,-2.0,-3.0,-1.0,-2.0,0.0
1701873260.1035616,0.0,0.0,-4.0,0.0,-2.0,-1.0,-1.0,-2.0
1701873260.1235576,-1.0,0.0,-1.0,-1.0,-2.0,-1.0,-3.0,-3.0
1701873260.1235576,-1.0,1.0,-3.0,-1.0,-2.0,-1.0,-2.0,-3.0
1701873260.1235576,1.0,-1.0,1.0,-1.0,-1.0,-3.0,-1.0,-1.0
1701873260.1235576,-1.0,0.0,0.0,0.0,-2.0,-1.0,0.0,-1.0
1701873260.143939,-3.0,-1.0,-3.0,-1.0,-1.0,-2.0,0.0,0.0
1701873260.143939,0.0,1.0,0.0,-2.0,-3.0,-1.0,-1.0,-1.0
1701873260.143939,0.0,0.0,-1.0,-2.0,-1.0,-1.0,1.0,0.0
1701873260.143939,-1.0,-1.0,1.0,-1.0,-2.0,2.0,-2.0,-2.0
1701873260.1639297,0.0,-2.0,0.0,-2.0,-2.0,-3.0,1.0,-1.0
1701873260.1639297,-1.0,-2.0,-1.0,-2.0,-2.0,-1.0,-2.0,-2.0
1701873260.1735582,0.0,-1.0,0.0,0.0,-1.0,1.0,0.0,-2.0
1701873260.1735582,-1.0,-1.0,0.0,-1.0,0.0,-1.0,-3.0,0.0
1701873260.1835556,-1.0,-2.0,0.0,0.0,-1.0,-1.0,-1.0,-2.0
1701873260.1835556,-2.0,0.0,-2.0,2.0,0.0,0.0,2.0,0.0
1701873260.1835556,-1.0,0.0,-1.0,0.0,-1.0,-1.0,-2.0,-1.0
1701873260.1835556,-2.0,-1.0,-1.0,-1.0,-1.0,-1.0,-2.0,-1.0
1701873260.2092345,-1.0,-1.0,-1.0,-4.0,-2.0,-1.0,-1.0,-2.0
1701873260.2092345,-1.0,-3.0,-3.0,-1.0,0.0,-2.0,2.0,0.0
1701873260.2110262,-1.0,-1.0,0.0,-2.0,-1.0,-2.0,-1.0,-2.0
1701873260.2110262,-1.0,-1.0,-1.0,-1.0,0.0,0.0,-1.0,0.0
1701873260.2164702,-1.0,-2.0,-1.0,2.0,0.0,-1.0,-1.0,-1.0
1701873260.2164702,1.0,-2.0,0.0,-3.0,-2.0,-2.0,-1.0,-1.0
1701873260.2268012,-1.0,-2.0,-4.0,-1.0,-2.0,-2.0,0.0,-2.0
1701873260.2268012,-1.0,0.0,-2.0,-2.0,0.0,-1.0,-1.0,-4.0
1701873260.2465017,-2.0,-1.0,-1.0,1.0,-1.0,0.0,-1.0,-3.0
1701873260.2465017,0.0,1.0,2.0,-1.0,-2.0,0.0,-1.0,-2.0
1701873260.2465017,-1.0,-1.0,1.0,0.0,-1.0,-2.0,-2.0,-3.0
1701873260.2465017,-1.0,1.0,0.0,0.0,-1.0,-1.0,-2.0,1.0
1701873260.2668672,-1.0,-1.0,-1.0,-2.0,-1.0,-1.0,-2.0,0.0
1701873260.2668672,0.0,-1.0,-2.0,-1.0,1.0,0.0,-3.0,0.0
1701873260.2668672,-2.0,-3.0,-1.0,0.0,-1.0,-3.0,0.0,1.0
1701873260.2668672,-1.0,-1.0,0.0,-1.0,1.0,-1.0,2.0,-1.0
1701873260.2765188,0.0,1.0,-1.0,-2.0,-2.0,-1.0,1.0,-1.0
1701873260.2765188,-2.0,0.0,-2.0,1.0,-2.0,-1.0,-1.0,0.0
1701873260.286473,0.0,-2.0,-2.0,0.0,-1.0,1.0,-1.0,-1.0
1701873260.286473,-2.0,-2.0,-1.0,1.0,0.0,-2.0,0.0,-2.0
1701873260.3068755,-1.0,-2.0,-2.0,-1.0,0.0,-1.0,-1.0,-1.0
1701873260.3068755,0.0,0.0,-1.0,-1.0,0.0,0.0,-3.0,0.0
1701873260.3068755,-1.0,1.0,-2.0,-1.0,-2.0,-1.0,-1.0,0.0
1701873260.3068755,0.0,1.0,-2.0,-3.0,-3.0,-2.0,0.0,1.0
1701873260.3268657,0.0,-1.0,-2.0,0.0,-1.0,-1.0,-2.0,0.0
1701873260.3268657,0.0,0.0,0.0,1.0,-1.0,-2.0,-1.0,-1.0
1701873260.3268657,-2.0,-3.0,-1.0,-1.0,0.0,-1.0,-1.0,-1.0
1701873260.3268657,1.0,-1.0,-1.0,0.0,-2.0,-3.0,-1.0,0.0
1701873260.3464696,-1.0,-2.0,-2.0,-3.0,-2.0,-1.0,0.0,-1.0
1701873260.3464696,-2.0,-3.0,0.0,-1.0,0.0,1.0,0.0,-1.0
1701873260.3464696,0.0,-1.0,-2.0,1.0,0.0,-1.0,0.0,-2.0
1701873260.3464696,-3.0,-2.0,0.0,-1.0,0.0,-1.0,-1.0,-2.0
1701873260.3667688,-1.0,-1.0,-2.0,-1.0,0.0,0.0,1.0,-1.0
1701873260.3667688,-2.0,-1.0,-2.0,0.0,-3.0,0.0,-1.0,0.0
1701873260.3667688,-1.0,-1.0,-2.0,-2.0,-2.0,-1.0,-2.0,-1.0
1701873260.3667688,0.0,-3.0,-2.0,-1.0,-1.0,1.0,-1.0,-1.0
1701873260.386762,-1.0,-2.0,1.0,-1.0,1.0,-1.0,-2.0,0.0
1701873260.386762,0.0,-2.0,0.0,-3.0,0.0,-2.0,-1.0,-3.0
1701873260.386762,-1.0,-1.0,0.0,0.0,-1.0,-1.0,0.0,-1.0
1701873260.386762,-1.0,-1.0,-1.0,0.0,-1.0,-2.0,0.0,-1.0
1701873260.4064693,0.0,-2.0,-1.0,-1.0,1.0,-2.0,-1.0,-2.0
1701873260.4064693,0.0,-1.0,-2.0,0.0,-2.0,-1.0,0.0,-1.0
1701873260.4064693,0.0,-2.0,0.0,-2.0,-2.0,2.0,-1.0,2.0
1701873260.4064693,-1.0,0.0,1.0,-2.0,-1.0,0.0,-3.0,0.0
1701873260.4264698,-2.0,0.0,0.0,-1.0,-1.0,1.0,-3.0,-2.0
1701873260.4264698,-1.0,-1.0,-1.0,-2.0,0.0,0.0,-1.0,-2.0
1701873260.4264698,-1.0,-2.0,-1.0,-1.0,-1.0,-1.0,-1.0,-1.0
1701873260.4264698,0.0,-1.0,0.0,-1.0,-1.0,0.0,0.0,-2.0
1701873260.4464705,-1.0,0.0,-1.0,-2.0,-1.0,0.0,-1.0,-1.0
1701873260.4464705,1.0,-1.0,-2.0,0.0,-2.0,-2.0,0.0,-4.0
1701873260.4464705,-1.0,-1.0,1.0,0.0,0.0,-2.0,-1.0,-1.0
1701873260.4464705,-1.0,-1.0,0.0,-2.0,-1.0,-1.0,-2.0,-1.0
1701873260.456505,0.0,-1.0,-1.0,1.0,-1.0,-1.0,-2.0,-1.0
1701873260.456505,-2.0,-3.0,-2.0,0.0,-1.0,0.0,-1.0,0.0
1701873260.4666913,-1.0,-1.0,-2.0,-2.0,0.0,-1.0,-2.0,-1.0
1701873260.4666913,1.0,-3.0,-2.0,-1.0,-1.0,-3.0,1.0,-3.0
1701873260.4867723,-1.0,-1.0,-1.0,-2.0,-4.0,0.0,-1.0,0.0
1701873260.4867723,0.0,1.0,0.0,-1.0,-2.0,0.0,0.0,0.0
1701873260.4867723,-1.0,-1.0,-2.0,0.0,-1.0,-1.0,-1.0,-1.0
1701873260.4867723,-2.0,-1.0,-2.0,-2.0,-1.0,0.0,0.0,0.0
1701873260.5364695,0.0,-1.0,-1.0,0.0,1.0,-2.0,1.0,0.0
1701873260.5364695,-1.0,-2.0,-1.0,-2.0,0.0,-1.0,-1.0,-1.0
1701873260.5364695,-1.0,-1.0,0.0,-1.0,-1.0,0.0,-1.0,-2.0
1701873260.5364695,0.0,-1.0,-1.0,2.0,-1.0,0.0,-1.0,-3.0
1701873260.5364695,0.0,-1.0,-3.0,-1.0,0.0,-2.0,-2.0,-2.0
1701873260.5364695,-2.0,-1.0,0.0,-2.0,-1.0,0.0,-2.0,0.0
1701873260.5364695,-1.0,0.0,0.0,-1.0,-1.0,-1.0,-1.0,-2.0
1701873260.5364695,-3.0,-1.0,1.0,-1.0,-4.0,-1.0,-3.0,-1.0
1701873260.5466294,-1.0,0.0,-1.0,-1.0,-2.0,0.0,0.0,-3.0
1701873260.5466294,-1.0,-2.0,-1.0,-1.0,0.0,-4.0,-2.0,-1.0
1701873260.5466294,0.0,-2.0,1.0,-4.0,-2.0,-1.0,0.0,-2.0
1701873260.5466294,-1.0,-1.0,-3.0,-3.0,0.0,-2.0,-1.0,0.0
1701873260.5664728,0.0,-1.0,0.0,0.0,-1.0,1.0,-2.0,2.0
1701873260.5664728,-1.0,-1.0,-3.0,-1.0,-1.0,0.0,-2.0,0.0
1701873260.5664728,0.0,0.0,-2.0,-1.0,-1.0,-1.0,-3.0,-1.0
1701873260.5664728,-1.0,-1.0,-2.0,0.0,-1.0,0.0,-1.0,-2.0
1701873260.5765045,0.0,-1.0,-1.0,-3.0,-2.0,-2.0,0.0,0.0
1701873260.5765045,-3.0,-2.0,-3.0,1.0,-1.0,-2.0,0.0,-2.0
1701873260.5868027,0.0,-1.0,-2.0,0.0,0.0,0.0,-1.0,0.0
1701873260.5868027,0.0,-3.0,-1.0,0.0,-2.0,-2.0,-1.0,-1.0
1701873260.6065297,-1.0,1.0,-1.0,-1.0,0.0,-1.0,0.0,-3.0
1701873260.6065297,0.0,-1.0,0.0,-2.0,-2.0,0.0,-1.0,-1.0
1701873260.6065297,-3.0,0.0,0.0,-1.0,-1.0,-1.0,0.0,-1.0
1701873260.6065297,-1.0,0.0,-2.0,-2.0,-1.0,-1.0,-2.0,0.0
1701873260.626472,-3.0,-1.0,0.0,-2.0,-2.0,-3.0,-2.0,0.0
1701873260.6364686,1.0,-2.0,-2.0,-2.0,-2.0,-2.0,-1.0,1.0
1701873260.6364686,-2.0,-2.0,-1.0,-2.0,-2.0,-1.0,-1.0,-1.0
1701873260.6364686,1.0,0.0,-1.0,-2.0,-1.0,0.0,-1.0,0.0
1701873260.646831,0.0,-2.0,0.0,-1.0,-1.0,-1.0,-1.0,0.0
1701873260.646831,-1.0,0.0,-1.0,0.0,0.0,-1.0,-1.0,-1.0
1701873260.646831,2.0,0.0,-2.0,-1.0,-2.0,-2.0,0.0,-1.0
1701873260.646831,0.0,0.0,-1.0,0.0,-2.0,-1.0,-1.0,-2.0
1701873260.6664722,0.0,-1.0,-1.0,-1.0,0.0,0.0,-2.0,1.0
1701873260.6664722,-1.0,0.0,-2.0,-3.0,-1.0,-1.0,0.0,0.0
1701873260.6664722,-2.0,-1.0,0.0,-1.0,0.0,-2.0,-2.0,-1.0
1701873260.6664722,-3.0,0.0,-2.0,-1.0,1.0,-1.0,1.0,2.0
1701873260.6868057,-1.0,-2.0,-2.0,0.0,-1.0,-1.0,-1.0,0.0
1701873260.6868057,0.0,-2.0,-2.0,1.0,-3.0,1.0,-1.0,-1.0
1701873260.6868057,-2.0,1.0,-1.0,-1.0,1.0,1.0,0.0,0.0
1701873260.6868057,-2.0,0.0,-2.0,-1.0,-3.0,-1.0,-1.0,-2.0
1701873260.7064714,1.0,-1.0,-2.0,0.0,-1.0,-1.0,-1.0,-2.0
1701873260.7064714,-1.0,-2.0,2.0,-1.0,-1.0,-3.0,0.0,-1.0
1701873260.7064714,-1.0,-1.0,-2.0,0.0,-2.0,-2.0,-2.0,-2.0
1701873260.7064714,-2.0,-1.0,-1.0,-1.0,2.0,0.0,-2.0,-2.0
1701873260.7273347,-1.0,-2.0,-2.0,-2.0,0.0,-1.0,-2.0,-2.0
1701873260.7273347,0.0,-1.0,0.0,-1.0,-3.0,-1.0,1.0,-1.0
1701873260.7338462,0.0,-2.0,-1.0,-1.0,-2.0,0.0,-1.0,-1.0
1701873260.7338462,2.0,-2.0,0.0,-1.0,-2.0,-2.0,0.0,0.0
1701873260.7692149,-3.0,-1.0,0.0,0.0,-1.0,-2.0,0.0,-1.0
1701873260.7692149,0.0,0.0,-1.0,-3.0,0.0,0.0,-1.0,-2.0
1701873260.7692149,-4.0,-1.0,-1.0,1.0,-1.0,-1.0,0.0,0.0
1701873260.7692149,-1.0,-2.0,-1.0,0.0,0.0,0.0,0.0,0.0
1701873260.7692149,-1.0,0.0,-2.0,-2.0,-2.0,-1.0,-1.0,0.0
1701873260.7692149,0.0,-1.0,0.0,0.0,-1.0,-1.0,-2.0,0.0
1701873260.7692149,0.0,-1.0,-2.0,-2.0,-1.0,-3.0,0.0,-1.0
1701873260.7692149,1.0,1.0,0.0,-3.0,-1.0,-1.0,-1.0,-3.0
1701873260.7796087,0.0,-2.0,0.0,0.0,-3.0,-2.0,0.0,-2.0
1701873260.7796087,-1.0,0.0,0.0,0.0,0.0,0.0,-1.0,-2.0
1701873260.799217,0.0,0.0,-2.0,-1.0,-2.0,0.0,-1.0,-2.0
1701873260.799217,-3.0,-1.0,-1.0,0.0,-1.0,-1.0,1.0,-3.0
1701873260.8095522,0.0,-2.0,-1.0,-2.0,1.0,0.0,-1.0,-1.0
1701873260.8095522,-3.0,-1.0,0.0,-1.0,0.0,-2.0,-1.0,-1.0
1701873260.8095522,-1.0,-2.0,1.0,0.0,-3.0,0.0,0.0,0.0
1701873260.8095522,-1.0,1.0,-1.0,-2.0,-2.0,-3.0,-2.0,-1.0
1701873260.8296967,0.0,1.0,-1.0,0.0,-1.0,1.0,0.0,-2.0
1701873260.8296967,0.0,0.0,-1.0,1.0,-1.0,-1.0,-1.0,-3.0
1701873260.8296967,-1.0,-1.0,-3.0,-2.0,-2.0,-1.0,-3.0,-2.0
1701873260.8296967,-2.0,-1.0,0.0,0.0,-3.0,-1.0,-2.0,-1.0
1701873260.8499832,-2.0,-1.0,-2.0,-3.0,0.0,-2.0,-2.0,0.0
1701873260.8499832,-1.0,-1.0,-2.0,0.0,-1.0,-1.0,-1.0,2.0
1701873260.8499832,-2.0,-2.0,-1.0,-3.0,1.0,-1.0,-1.0,3.0
1701873260.8499832,-2.0,-1.0,-1.0,-1.0,-2.0,-1.0,0.0,1.0
1701873260.8696904,-1.0,-2.0,-1.0,-1.0,-1.0,0.0,-1.0,0.0
1701873260.8696904,0.0,0.0,0.0,-2.0,-1.0,-1.0,0.0,-2.0
1701873260.8696904,0.0,-2.0,0.0,-1.0,-3.0,-3.0,1.0,-3.0
1701873260.8696904,-1.0,-3.0,-1.0,-1.0,0.0,-1.0,-1.0,-1.0
1701873260.8896904,-2.0,-1.0,1.0,-2.0,-1.0,-1.0,1.0,-2.0
1701873260.8896904,0.0,0.0,-1.0,0.0,-1.0,-3.0,-2.0,0.0
1701873260.8896904,-1.0,-1.0,-1.0,0.0,0.0,1.0,0.0,0.0
1701873260.8896904,-1.0,0.0,0.0,0.0,-1.0,0.0,0.0,0.0
1701873260.9100142,0.0,-2.0,1.0,0.0,-1.0,-1.0,0.0,0.0
1701873260.9100142,-1.0,-3.0,-1.0,-1.0,-3.0,-2.0,-2.0,-2.0
1701873260.9100142,-2.0,0.0,-1.0,-1.0,0.0,-1.0,0.0,-3.0
1701873260.9100142,2.0,-2.0,-1.0,1.0,-2.0,-1.0,-1.0,0.0
1701873260.91969,-1.0,-1.0,-1.0,0.0,-1.0,-1.0,-3.0,-3.0
1701873260.9296904,-1.0,1.0,-3.0,0.0,-1.0,1.0,0.0,-1.0
1701873260.9296904,0.0,-1.0,-1.0,-1.0,-1.0,0.0,-1.0,0.0
1701873260.9296904,-1.0,-1.0,-1.0,-4.0,-2.0,-1.0,-3.0,-2.0
1701873260.9597318,-1.0,0.0,-1.0,0.0,-2.0,0.0,-1.0,-2.0
1701873260.9597318,-1.0,-2.0,0.0,-1.0,-1.0,-1.0,1.0,0.0
1701873260.9597318,-2.0,0.0,1.0,-1.0,-1.0,0.0,-2.0,-2.0
1701873260.9597318,-2.0,-1.0,-3.0,0.0,-2.0,-1.0,0.0,-2.0
1701873260.9597318,-2.0,-1.0,-1.0,0.0,-1.0,0.0,-1.0,-2.0
1701873260.9597318,-1.0,-1.0,-1.0,-3.0,-1.0,1.0,-2.0,-1.0
1701873260.969738,-1.0,-1.0,0.0,-2.0,0.0,-3.0,-3.0,-1.0
1701873260.969738,0.0,0.0,0.0,0.0,-1.0,-3.0,0.0,0.0
1701873260.989846,0.0,-1.0,-1.0,-2.0,-1.0,-1.0,-1.0,-1.0
1701873260.989846,0.0,0.0,1.0,0.0,0.0,0.0,-2.0,0.0
1701873260.989846,-1.0,-1.0,0.0,0.0,0.0,-1.0,-1.0,0.0
1701873260.989846,-1.0,-1.0,0.0,-1.0,0.0,-1.0,-3.0,-1.0
1701873261.0097573,0.0,0.0,-2.0,1.0,-1.0,-2.0,-1.0,0.0
1701873261.0097573,-2.0,-2.0,-1.0,-1.0,-1.0,-1.0,0.0,-1.0
1701873261.0097573,0.0,0.0,-1.0,0.0,-1.0,-3.0,1.0,-1.0
1701873261.0097573,-1.0,-1.0,1.0,-1.0,-1.0,0.0,0.0,-2.0
1701873261.0297523,-2.0,1.0,-1.0,-2.0,-1.0,-1.0,-2.0,-1.0
1701873261.0297523,-1.0,-1.0,1.0,-2.0,-2.0,-2.0,-1.0,-1.0
1701873261.0297523,0.0,0.0,-3.0,1.0,-1.0,-1.0,-1.0,0.0
1701873261.0297523,-1.0,-2.0,-3.0,0.0,-2.0,0.0,-3.0,1.0
1701873261.049759,-1.0,-1.0,1.0,-1.0,0.0,-1.0,1.0,-1.0
1701873261.049759,0.0,-1.0,-1.0,-1.0,-1.0,-1.0,-1.0,-1.0
1701873261.049759,-1.0,-1.0,0.0,-2.0,-3.0,-1.0,0.0,-2.0
1701873261.049759,-2.0,0.0,-2.0,-3.0,-1.0,-2.0,-2.0,-2.0
1701873261.069757,-2.0,-2.0,0.0,0.0,-1.0,0.0,-1.0,-1.0
1701873261.069757,-1.0,0.0,0.0,0.0,0.0,-1.0,-2.0,-1.0
1701873261.069757,-2.0,-1.0,-2.0,-1.0,-1.0,0.0,-2.0,2.0
1701873261.069757,2.0,-1.0,0.0,2.0,1.0,2.0,-1.0,0.0
1701873261.0897493,-1.0,1.0,-2.0,-1.0,-1.0,-2.0,-2.0,1.0
1701873261.0897493,-1.0,0.0,0.0,-1.0,-2.0,-1.0,-1.0,-3.0
1701873261.0897493,-1.0,-1.0,-2.0,-2.0,1.0,0.0,-3.0,-1.0
1701873261.0897493,-1.0,-2.0,-1.0,-2.0,-1.0,-1.0,-1.0,-2.0
1701873261.1097534,-1.0,0.0,-2.0,-1.0,-1.0,-3.0,0.0,1.0
1701873261.1097534,-1.0,-1.0,-3.0,1.0,1.0,-1.0,-1.0,0.0
1701873261.1097534,-1.0,0.0,-1.0,-1.0,-1.0,1.0,-3.0,-2.0
1701873261.1097534,-1.0,-1.0,-1.0,-1.0,-1.0,-1.0,0.0,-2.0
1701873261.1297495,-2.0,-2.0,-2.0,0.0,-1.0,-1.0,-1.0,-1.0
1701873261.1297495,-3.0,-1.0,-2.0,-2.0,-1.0,-3.0,-1.0,-4.0
1701873261.1297495,-1.0,-1.0,0.0,-1.0,-2.0,-2.0,-1.0,0.0
1701873261.1297495,-2.0,0.0,-2.0,0.0,0.0,-2.0,1.0,-1.0
1701873261.140103,-1.0,-2.0,0.0,-1.0,-1.0,-1.0,0.0,0.0
1701873261.140103,-1.0,-1.0,-1.0,-2.0,-2.0,0.0,0.0,1.0
1701873261.1497724,0.0,-2.0,0.0,-2.0,-2.0,0.0,-2.0,-1.0
1701873261.1497724,-1.0,-2.0,-1.0,-4.0,-1.0,0.0,0.0,-1.0
1701873261.1697607,0.0,-2.0,-1.0,0.0,1.0,0.0,-2.0,0.0
1701873261.1697607,1.0,-2.0,-1.0,0.0,-1.0,0.0,-1.0,1.0
1701873261.1697607,-3.0,-1.0,-3.0,-1.0,0.0,0.0,0.0,-2.0
1701873261.1697607,-1.0,-2.0,-2.0,-1.0,-2.0,0.0,-1.0,1.0
1701873261.1997588,-2.0,-1.0,-1.0,-2.0,-1.0,-1.0,-3.0,-2.0
1701873261.1997588,-2.0,-1.0,-2.0,-3.0,0.0,-1.0,1.0,-2.0
1701873261.1997588,-2.0,-1.0,-1.0,1.0,0.0,0.0,-1.0,-2.0
1701873261.1997588,-1.0,2.0,0.0,-1.0,-1.0,-1.0,-1.0,-2.0
1701873261.1997588,-1.0,-3.0,-2.0,-4.0,-1.0,-2.0,0.0,-3.0
1701873261.1997588,-2.0,-2.0,-1.0,1.0,-1.0,0.0,-1.0,0.0
1701873261.2099993,0.0,-1.0,-1.0,-2.0,-1.0,-1.0,0.0,0.0
1701873261.2099993,-2.0,-2.0,0.0,0.0,0.0,-2.0,-1.0,1.0
1701873261.2300115,0.0,-1.0,1.0,0.0,-1.0,-1.0,0.0,-1.0
1701873261.2300115,-1.0,-1.0,-1.0,-1.0,-1.0,-3.0,-1.0,-1.0
1701873261.2300115,1.0,-1.0,-1.0,0.0,0.0,-2.0,-1.0,-1.0
1701873261.2300115,1.0,-2.0,0.0,-1.0,-3.0,-1.0,0.0,0.0
1701873261.2500434,0.0,-2.0,-4.0,-2.0,-2.0,-3.0,-1.0,0.0
1701873261.2500434,-2.0,-1.0,-1.0,-2.0,-2.0,1.0,-1.0,-2.0
1701873261.2500434,0.0,0.0,-1.0,-2.0,0.0,0.0,0.0,-3.0
1701873261.2500434,-1.0,-1.0,-1.0,0.0,-1.0,-1.0,0.0,-3.0
1701873261.2656977,0.0,0.0,0.0,0.0,0.0,-2.0,-1.0,-2.0
1701873261.2656977,0.0,0.0,-1.0,0.0,-1.0,-1.0,-3.0,-1.0
1701873261.273875,-1.0,0.0,0.0,-4.0,-2.0,-1.0,0.0,0.0
1701873261.273875,-2.0,0.0,-1.0,-1.0,1.0,1.0,-2.0,0.0
1701873261.2826407,-3.0,-3.0,-2.0,-2.0,-2.0,0.0,-1.0,-1.0
1701873261.2826407,-2.0,-1.0,-2.0,-3.0,0.0,0.0,-1.0,0.0
1701873261.3026485,1.0,0.0,0.0,1.0,-1.0,-1.0,-1.0,0.0
1701873261.3026485,-1.0,1.0,2.0,5.0,0.0,1.0,-2.0,-1.0
1701873261.312644,0.0,2.0,2.0,2.0,-1.0,0.0,-2.0,0.0
1701873261.312644,-1.0,-2.0,-3.0,-7.0,-1.0,0.0,1.0,-1.0
1701873261.312644,-3.0,-4.0,-8.0,-10.0,1.0,-1.0,-1.0,-1.0
1701873261.312644,-3.0,-1.0,1.0,2.0,-2.0,-3.0,-1.0,-2.0
1701873261.3228087,2.0,5.0,4.0,7.0,-1.0,-1.0,1.0,0.0
1701873261.3228087,1.0,1.0,7.0,0.0,-1.0,1.0,4.0,3.0
1701873261.3328764,1.0,3.0,1.0,-1.0,0.0,-1.0,-1.0,0.0
1701873261.3328764,-1.0,-8.0,-11.0,-11.0,-1.0,-4.0,-9.0,-5.0
1701873261.3626435,2.0,-4.0,-2.0,3.0,0.0,1.0,0.0,-3.0
1701873261.3626435,-5.0,1.0,-3.0,0.0,-2.0,-1.0,7.0,3.0
1701873261.3626435,6.0,8.0,8.0,9.0,3.0,7.0,14.0,12.0
1701873261.3626435,1.0,9.0,3.0,1.0,-4.0,-2.0,-15.0,-7.0
1701873261.3626435,-19.0,-45.0,-19.0,-12.0,-6.0,-13.0,-32.0,-20.0
1701873261.3626435,1.0,5.0,7.0,8.0,3.0,2.0,2.0,-2.0
1701873261.3726397,-2.0,1.0,-3.0,0.0,1.0,8.0,18.0,13.0
1701873261.3726397,-11.0,-3.0,-5.0,-6.0,-9.0,-17.0,-23.0,-21.0
1701873261.3828938,11.0,21.0,9.0,4.0,-4.0,0.0,16.0,13.0
1701873261.3828938,-4.0,-10.0,-6.0,2.0,2.0,6.0,-1.0,-5.0
1701873261.392944,-1.0,3.0,7.0,3.0,1.0,-4.0,2.0,1.0
1701873261.392944,9.0,6.0,-4.0,-4.0,10.0,17.0,32.0,21.0
1701873261.4027772,-4.0,-7.0,-10.0,-22.0,-6.0,-7.0,-16.0,-10.0
1701873261.4027772,1.0,-4.0,3.0,3.0,-2.0,-2.0,2.0,4.0
1701873261.4126415,3.0,16.0,11.0,9.0,4.0,7.0,7.0,3.0
1701873261.4126415,-3.0,-28.0,-9.0,8.0,0.0,2.0,3.0,3.0
1701873261.432703,0.0,21.0,14.0,3.0,-3.0,-4.0,-1.0,-1.0
1701873261.432703,-1.0,-6.0,-9.0,-4.0,-2.0,-4.0,-4.0,1.0
1701873261.432703,1.0,8.0,1.0,-3.0,-5.0,-6.0,-16.0,-8.0
1701873261.432703,-7.0,11.0,7.0,-8.0,-4.0,-5.0,-9.0,-12.0
1701873261.4429884,-1.0,-12.0,-13.0,0.0,2.0,3.0,4.0,2.0
1701873261.4429884,-3.0,-14.0,-5.0,-3.0,-3.0,0.0,-3.0,-1.0
1701873261.4532871,4.0,16.0,8.0,2.0,-1.0,-6.0,-10.0,-4.0
1701873261.4532871,-7.0,-20.0,-10.0,-1.0,0.0,0.0,3.0,1.0
1701873261.4830065,2.0,0.0,5.0,2.0,5.0,7.0,12.0,7.0
1701873261.4830065,1.0,6.0,1.0,-2.0,-3.0,-5.0,-9.0,-6.0
1701873261.4830065,-5.0,-9.0,-3.0,8.0,-2.0,-3.0,-5.0,-8.0
1701873261.4830065,2.0,0.0,-8.0,-16.0,-6.0,0.0,1.0,4.0
1701873261.4830065,-1.0,7.0,-1.0,-4.0,-1.0,1.0,1.0,-3.0
1701873261.4830065,0.0,3.0,1.0,-5.0,-1.0,-3.0,-5.0,-1.0
1701873261.4930046,-1.0,-13.0,-1.0,3.0,-2.0,-1.0,-5.0,-3.0
1701873261.4930046,-2.0,9.0,1.0,3.0,3.0,2.0,6.0,2.0
1701873261.5032868,-5.0,-11.0,-10.0,-5.0,-1.0,-9.0,-12.0,-5.0
1701873261.5032868,1.0,6.0,4.0,-1.0,-1.0,0.0,2.0,1.0
1701873261.5130074,0.0,4.0,-4.0,-3.0,-3.0,-1.0,-3.0,0.0
1701873261.5130074,-6.0,-21.0,-2.0,-2.0,-3.0,-2.0,-1.0,-2.0
1701873261.5230408,1.0,8.0,4.0,0.0,-1.0,2.0,1.0,-2.0
1701873261.5230408,6.0,12.0,4.0,5.0,1.0,0.0,2.0,4.0
1701873261.533366,-12.0,-24.0,-8.0,-1.0,-4.0,-6.0,-5.0,-5.0
1701873261.533366,8.0,17.0,-1.0,-9.0,1.0,6.0,13.0,18.0
1701873261.5434039,0.0,-8.0,4.0,6.0,2.0,1.0,6.0,6.0
1701873261.5434039,-12.0,-13.0,-9.0,-14.0,-8.0,-8.0,-13.0,-12.0
1701873261.5530136,-2.0,-12.0,-15.0,-13.0,-6.0,-4.0,0.0,-1.0
1701873261.5530136,-5.0,4.0,5.0,8.0,0.0,-3.0,-11.0,-10.0
1701873261.5632958,3.0,-10.0,-2.0,4.0,3.0,9.0,8.0,3.0
1701873261.5632958,0.0,10.0,11.0,7.0,1.0,1.0,0.0,-1.0
1701873261.5730066,-10.0,-22.0,-19.0,-12.0,-5.0,-6.0,-6.0,-7.0
1701873261.5730066,0.0,1.0,-6.0,-12.0,-2.0,-2.0,1.0,-2.0
1701873261.5830393,2.0,12.0,4.0,5.0,1.0,0.0,2.0,2.0
1701873261.5830393,2.0,-10.0,-7.0,-1.0,2.0,1.0,3.0,1.0
1701873261.593386,-4.0,3.0,6.0,-7.0,2.0,0.0,-6.0,-9.0
1701873261.593386,3.0,7.0,5.0,8.0,2.0,0.0,1.0,0.0
1701873261.6034067,-4.0,-1.0,4.0,5.0,-3.0,-2.0,-2.0,-2.0
1701873261.6034067,-1.0,4.0,3.0,4.0,-2.0,-4.0,-2.0,0.0
1701873261.6130111,1.0,-3.0,-6.0,-4.0,-1.0,0.0,1.0,1.0
1701873261.6130111,1.0,-3.0,-4.0,2.0,0.0,-1.0,0.0,3.0
1701873261.633007,-2.0,1.0,-5.0,-7.0,-3.0,0.0,-5.0,-3.0
1701873261.633007,-1.0,3.0,-2.0,-4.0,-2.0,0.0,3.0,-2.0
1701873261.633007,-1.0,-2.0,-3.0,0.0,4.0,0.0,-3.0,-5.0
1701873261.633007,7.0,18.0,8.0,6.0,1.0,1.0,-1.0,-2.0
1701873261.6430383,-9.0,-27.0,-9.0,-9.0,-6.0,-7.0,-7.0,-1.0
1701873261.6430383,1.0,2.0,3.0,-2.0,-3.0,-2.0,-4.0,0.0
1701873261.6531415,2.0,1.0,3.0,4.0,0.0,1.0,-1.0,1.0
1701873261.6531415,1.0,8.0,5.0,6.0,-1.0,-2.0,-5.0,0.0
1701873261.6730173,1.0,6.0,1.0,5.0,2.0,0.0,3.0,3.0
1701873261.6730173,6.0,17.0,-3.0,-13.0,-2.0,1.0,2.0,5.0
1701873261.6730173,-8.0,-18.0,-1.0,-3.0,-3.0,-5.0,-4.0,-3.0
1701873261.6730173,0.0,0.0,1.0,3.0,0.0,1.0,-1.0,-1.0
1701873261.6933224,-1.0,-5.0,-6.0,0.0,-1.0,-1.0,0.0,-1.0
1701873261.6933224,2.0,-2.0,-7.0,4.0,2.0,-1.0,-3.0,-5.0
1701873261.6933224,-8.0,-2.0,6.0,-5.0,-3.0,-4.0,-2.0,-5.0
1701873261.6933224,6.0,23.0,1.0,-4.0,-1.0,1.0,1.0,3.0
1701873261.703298,-25.0,-63.0,-23.0,-14.0,-6.0,-6.0,-8.0,-9.0
1701873261.703298,1.0,-6.0,1.0,5.0,1.0,1.0,1.0,1.0
1701873261.7430058,9.0,17.0,2.0,-1.0,-2.0,0.0,0.0,2.0
1701873261.7430058,-5.0,-5.0,6.0,2.0,0.0,-3.0,-5.0,-3.0
1701873261.7430058,8.0,23.0,-2.0,-3.0,2.0,2.0,2.0,4.0
1701873261.7430058,-6.0,-14.0,-8.0,0.0,-2.0,0.0,-1.0,-3.0
1701873261.7430058,-2.0,-1.0,0.0,1.0,-2.0,2.0,1.0,-1.0
1701873261.7430058,-3.0,-10.0,-3.0,3.0,-2.0,-4.0,-1.0,-2.0
1701873261.7530038,3.0,22.0,4.0,-10.0,-1.0,-3.0,-8.0,-7.0
1701873261.7530038,-9.0,-16.0,-4.0,-1.0,-3.0,-6.0,-8.0,-8.0
1701873261.7530038,1.0,5.0,4.0,9.0,3.0,-1.0,0.0,1.0
1701873261.7530038,-3.0,-12.0,-3.0,5.0,-1.0,-2.0,3.0,-2.0
1701873261.7633762,5.0,16.0,11.0,-8.0,-2.0,0.0,7.0,6.0
1701873261.7633762,-9.0,-25.0,-22.0,-13.0,-3.0,-3.0,-4.0,-2.0
1701873261.773268,2.0,11.0,4.0,-4.0,-3.0,-1.0,-2.0,0.0
1701873261.773268,-4.0,-12.0,-2.0,3.0,-1.0,-3.0,-1.0,-1.0
1701873261.7916837,1.0,7.0,6.0,11.0,1.0,0.0,-2.0,-3.0
1701873261.7916837,3.0,8.0,2.0,1.0,-1.0,0.0,-2.0,-1.0
1701873261.7937114,3.0,-2.0,-5.0,3.0,1.0,1.0,-1.0,2.0
1701873261.7937114,-3.0,-9.0,-1.0,-4.0,0.0,-2.0,-2.0,-1.0
1701873261.8150322,3.0,10.0,3.0,3.0,-1.0,-1.0,-4.0,1.0
1701873261.8150322,-2.0,1.0,-5.0,-10.0,-3.0,-1.0,1.0,1.0
1701873261.8150322,-2.0,-4.0,-3.0,-6.0,-3.0,-2.0,-1.0,0.0
1701873261.8150322,-2.0,-5.0,0.0,-2.0,-2.0,-2.0,-4.0,-4.0
1701873261.825362,0.0,3.0,0.0,1.0,-1.0,1.0,0.0,-2.0
1701873261.825362,2.0,7.0,2.0,8.0,4.0,0.0,3.0,0.0
1701873261.8353064,-5.0,-19.0,-7.0,-2.0,-1.0,0.0,3.0,2.0
1701873261.8353064,-2.0,-1.0,-7.0,-9.0,-5.0,-2.0,-5.0,-3.0
1701873261.8453522,-1.0,4.0,4.0,0.0,-2.0,-3.0,-10.0,-2.0
1701873261.8453522,-1.0,-3.0,3.0,2.0,0.0,1.0,6.0,4.0
1701873261.8453522,-1.0,1.0,-5.0,0.0,1.0,-4.0,-10.0,-8.0
1701873261.8453522,1.0,4.0,3.0,-5.0,-1.0,2.0,4.0,2.0
1701873261.8750362,-3.0,-3.0,-2.0,-2.0,-1.0,0.0,3.0,-1.0
1701873261.8750362,1.0,4.0,5.0,0.0,-4.0,-1.0,-1.0,5.0
1701873261.8750362,0.0,-1.0,-1.0,1.0,-1.0,-2.0,4.0,2.0
1701873261.8750362,-2.0,-7.0,-1.0,1.0,-3.0,-3.0,-3.0,-2.0
1701873261.8853266,-1.0,2.0,-2.0,1.0,-2.0,-1.0,0.0,-1.0
1701873261.8853266,0.0,0.0,2.0,7.0,1.0,0.0,-4.0,-3.0
1701873261.89534,-1.0,-2.0,-6.0,-7.0,-3.0,-2.0,-2.0,1.0
1701873261.89534,-2.0,-1.0,1.0,-4.0,-4.0,-3.0,-1.0,-1.0
1701873261.9053662,-3.0,-2.0,-3.0,-5.0,-4.0,-3.0,1.0,-1.0
1701873261.9053662,-1.0,-1.0,1.0,0.0,-1.0,-1.0,-1.0,-1.0
1701873261.9053662,0.0,1.0,0.0,0.0,0.0,1.0,-2.0,-1.0
1701873261.9053662,0.0,1.0,0.0,-1.0,-1.0,-1.0,-1.0,0.0
1701873261.9350328,0.0,-1.0,-3.0,-2.0,-1.0,1.0,0.0,2.0
1701873261.9350328,-4.0,-2.0,-1.0,1.0,2.0,-1.0,-6.0,-4.0
1701873261.9350328,-2.0,3.0,0.0,0.0,-2.0,-1.0,2.0,0.0
1701873261.9350328,-3.0,-4.0,-2.0,-3.0,-2.0,-3.0,-8.0,-4.0
1701873261.945074,-1.0,2.0,-1.0,1.0,3.0,-1.0,1.0,-4.0
1701873261.945074,-2.0,1.0,0.0,-1.0,-2.0,-1.0,0.0,-1.0
1701873261.955141,1.0,1.0,0.0,-2.0,0.0,0.0,0.0,2.0
1701873261.955141,-2.0,-1.0,0.0,0.0,0.0,1.0,1.0,1.0
1701873261.9651096,0.0,-4.0,-1.0,2.0,0.0,0.0,0.0,0.0
1701873261.9651096,-1.0,0.0,1.0,-2.0,0.0,-1.0,-3.0,-1.0
1701873261.9651096,-2.0,-1.0,-1.0,-2.0,-2.0,-1.0,1.0,-1.0
1701873261.9651096,-2.0,-2.0,1.0,0.0,-1.0,-3.0,-6.0,-4.0
1701873261.995147,0.0,1.0,1.0,2.0,2.0,-2.0,2.0,2.0
1701873261.995147,-2.0,-1.0,-3.0,-6.0,-1.0,-3.0,-4.0,-3.0
1701873261.995147,0.0,0.0,-1.0,-1.0,-3.0,1.0,0.0,0.0
1701873261.995147,-1.0,-2.0,-1.0,-2.0,-1.0,1.0,3.0,0.0
1701873262.0055795,0.0,0.0,3.0,3.0,-2.0,-1.0,-7.0,-5.0
1701873262.0055795,1.0,0.0,0.0,-1.0,0.0,0.0,3.0,0.0
1701873262.0157173,-2.0,-3.0,-3.0,-2.0,2.0,-3.0,0.0,2.0
1701873262.0157173,-1.0,-1.0,-3.0,-5.0,-2.0,-3.0,-7.0,-3.0
1701873262.0255902,0.0,-4.0,-2.0,-2.0,-1.0,0.0,1.0,-4.0
1701873262.0255902,0.0,0.0,-2.0,2.0,-2.0,0.0,1.0,0.0
1701873262.0255902,1.0,1.0,3.0,0.0,1.0,1.0,-1.0,-1.0
1701873262.0255902,-2.0,-2.0,-1.0,1.0,0.0,0.0,4.0,-2.0
1701873262.0459833,-1.0,0.0,1.0,5.0,1.0,-1.0,-6.0,0.0
1701873262.0459833,-4.0,-1.0,-6.0,-13.0,-5.0,0.0,0.0,-3.0
1701873262.0555925,0.0,0.0,-2.0,-4.0,-2.0,-2.0,-1.0,-1.0
1701873262.0555925,0.0,0.0,0.0,1.0,0.0,-2.0,-1.0,0.0
1701873262.065974,0.0,-1.0,-1.0,-2.0,1.0,0.0,0.0,1.0
1701873262.065974,-1.0,0.0,3.0,3.0,2.0,0.0,1.0,0.0
1701873262.0757892,-1.0,-1.0,0.0,1.0,-2.0,0.0,0.0,1.0
1701873262.0757892,1.0,-1.0,-4.0,-7.0,0.0,1.0,4.0,0.0
1701873262.0855908,-2.0,-1.0,0.0,1.0,0.0,0.0,-2.0,-2.0
1701873262.0855908,1.0,-1.0,-1.0,-1.0,-4.0,-3.0,-2.0,2.0
1701873262.0855908,-1.0,1.0,-1.0,-1.0,-4.0,-3.0,-6.0,-5.0
1701873262.0855908,0.0,-1.0,0.0,2.0,0.0,2.0,0.0,-2.0
1701873262.105787,-2.0,-1.0,-2.0,-6.0,-3.0,1.0,2.0,-1.0
1701873262.105787,-1.0,-1.0,-1.0,-1.0,3.0,0.0,3.0,2.0
1701873262.115591,-3.0,-1.0,-1.0,-1.0,-1.0,-2.0,-5.0,-7.0
1701873262.115591,1.0,-1.0,-1.0,1.0,-1.0,-2.0,-1.0,0.0
1701873262.135696,-1.0,-1.0,0.0,-3.0,-1.0,2.0,1.0,1.0
1701873262.135696,-1.0,0.0,-1.0,0.0,-2.0,-2.0,-1.0,-2.0
1701873262.135696,0.0,0.0,-1.0,0.0,0.0,-2.0,-6.0,-3.0
1701873262.135696,-1.0,1.0,-1.0,0.0,-1.0,0.0,0.0,-2.0
1701873262.1460216,-2.0,-2.0,-2.0,-3.0,-1.0,-4.0,-3.0,-2.0
1701873262.1460216,-1.0,-2.0,1.0,0.0,0.0,0.0,0.0,1.0
1701873262.1460216,-2.0,-2.0,-2.0,1.0,-1.0,0.0,2.0,1.0
1701873262.1460216,0.0,-2.0,-1.0,2.0,-2.0,1.0,2.0,1.0
1701873262.1660197,0.0,0.0,-1.0,-2.0,-2.0,1.0,2.0,1.0
1701873262.1660197,-2.0,-2.0,-3.0,-1.0,-3.0,-2.0,-5.0,-4.0
1701873262.1760192,0.0,0.0,-1.0,-8.0,-3.0,-1.0,0.0,1.0
1701873262.1760192,0.0,-1.0,-1.0,-1.0,0.0,-2.0,-4.0,0.0
1701873262.1860187,0.0,0.0,-2.0,1.0,0.0,1.0,5.0,4.0
1701873262.1860187,-2.0,0.0,1.0,1.0,0.0,0.0,3.0,-2.0
1701873262.1960573,-3.0,-2.0,-1.0,-1.0,-2.0,-4.0,-15.0,-12.0
1701873262.1960573,-1.0,-2.0,0.0,0.0,-1.0,1.0,1.0,0.0
1701873262.206407,0.0,-1.0,-1.0,-3.0,-1.0,-2.0,-1.0,0.0
1701873262.206407,0.0,1.0,-1.0,0.0,-1.0,1.0,4.0,5.0
1701873262.206407,-2.0,-1.0,1.0,0.0,0.0,0.0,0.0,0.0
1701873262.206407,-1.0,-1.0,-1.0,1.0,0.0,-3.0,-1.0,-3.0
1701873262.2264416,-1.0,0.0,-2.0,-1.0,-1.0,-2.0,-1.0,-1.0
1701873262.2264416,-1.0,-1.0,1.0,-2.0,-2.0,-2.0,-5.0,-2.0
1701873262.236019,0.0,0.0,-1.0,0.0,1.0,1.0,3.0,1.0
1701873262.236019,-3.0,-2.0,-1.0,-2.0,-2.0,-2.0,-4.0,-2.0
1701873262.246395,0.0,-2.0,-1.0,1.0,-1.0,-2.0,0.0,-1.0
1701873262.246395,-1.0,-2.0,-4.0,1.0,-1.0,-3.0,-3.0,-2.0
1701873262.2560198,-1.0,0.0,0.0,0.0,0.0,0.0,1.0,1.0
1701873262.2560198,-1.0,-2.0,0.0,-3.0,-2.0,0.0,2.0,3.0
1701873262.2660177,-1.0,0.0,-1.0,-3.0,-3.0,-4.0,-9.0,-3.0
1701873262.2660177,0.0,-4.0,-1.0,0.0,1.0,-2.0,-4.0,-5.0
1701873262.2660177,0.0,-2.0,-2.0,-2.0,-2.0,0.0,4.0,2.0
1701873262.2660177,-1.0,0.0,-1.0,-1.0,-2.0,1.0,2.0,-3.0
1701873262.2864575,-2.0,-2.0,0.0,-2.0,-1.0,-2.0,-3.0,-5.0
1701873262.2864575,0.0,-1.0,2.0,-1.0,0.0,-1.0,-3.0,-2.0
1701873262.2960193,-3.0,-2.0,-1.0,0.0,-1.0,0.0,-2.0,-3.0
1701873262.2960193,-1.0,0.0,-3.0,-2.0,-1.0,0.0,4.0,3.0
1701873262.3063874,-2.0,-2.0,0.0,-1.0,1.0,-1.0,3.0,0.0
1701873262.3063874,-1.0,1.0,-1.0,-1.0,0.0,-1.0,-2.0,0.0
1701873262.3245294,0.0,1.0,-1.0,-1.0,-1.0,0.0,5.0,1.0
1701873262.3245294,-1.0,-2.0,-1.0,-2.0,-1.0,-4.0,-9.0,-5.0
1701873262.3322635,-2.0,0.0,0.0,1.0,-2.0,0.0,4.0,0.0
1701873262.3322635,-2.0,-2.0,-2.0,-2.0,-2.0,-1.0,0.0,1.0
1701873262.3333824,1.0,0.0,0.0,-1.0,-1.0,-2.0,2.0,1.0
1701873262.3333824,-1.0,-1.0,-1.0,-2.0,-2.0,-2.0,-4.0,-5.0
1701873262.3576615,-1.0,-2.0,0.0,0.0,1.0,0.0,-2.0,-2.0
1701873262.3576615,-2.0,0.0,-1.0,-2.0,0.0,0.0,-2.0,-2.0
1701873262.3576615,-1.0,-2.0,0.0,-1.0,-1.0,-2.0,1.0,0.0
1701873262.3576615,-2.0,0.0,-2.0,0.0,-1.0,-2.0,-3.0,0.0
1701873262.3679862,-1.0,-1.0,-2.0,0.0,-3.0,-1.0,0.0,1.0
1701873262.3679862,-1.0,-1.0,-2.0,1.0,-3.0,-1.0,0.0,-1.0
1701873262.3679862,1.0,-2.0,-1.0,1.0,0.0,-1.0,1.0,1.0
1701873262.3679862,0.0,1.0,0.0,1.0,-1.0,-3.0,-5.0,-1.0
1701873262.3880086,-2.0,0.0,-2.0,-4.0,-3.0,-4.0,1.0,-4.0
1701873262.3880086,1.0,-1.0,-1.0,0.0,-2.0,-5.0,-4.0,-3.0
1701873262.3880086,-2.0,-2.0,-2.0,0.0,-1.0,-1.0,1.0,0.0
1701873262.3880086,-1.0,-2.0,0.0,2.0,-1.0,-1.0,2.0,1.0
1701873262.4080064,-2.0,0.0,0.0,0.0,-1.0,0.0,0.0,0.0
1701873262.4080064,-1.0,0.0,0.0,-3.0,-1.0,1.0,2.0,0.0
1701873262.4080064,0.0,0.0,-1.0,-3.0,0.0,-1.0,-2.0,-3.0
1701873262.4080064,0.0,0.0,-2.0,-1.0,0.0,1.0,0.0,-1.0
1701873262.427665,1.0,-1.0,-3.0,-2.0,-1.0,0.0,0.0,0.0
1701873262.427665,-2.0,-1.0,-3.0,0.0,-1.0,-2.0,0.0,-1.0
1701873262.4376607,-1.0,-1.0,1.0,2.0,-2.0,-3.0,-6.0,-1.0
1701873262.4376607,-1.0,-1.0,1.0,2.0,-1.0,0.0,1.0,2.0
1701873262.447938,-2.0,-3.0,-3.0,-2.0,0.0,0.0,-5.0,-1.0
1701873262.447938,-2.0,-4.0,-5.0,-10.0,-5.0,0.0,-1.0,-3.0
1701873262.4580147,-1.0,-1.0,-1.0,0.0,-1.0,1.0,-1.0,1.0
1701873262.4580147,0.0,-1.0,-1.0,-3.0,-1.0,-1.0,-3.0,0.0
1701873262.4880362,1.0,2.0,0.0,3.0,2.0,2.0,-2.0,0.0
1701873262.4880362,-2.0,0.0,1.0,2.0,0.0,0.0,-2.0,-2.0
1701873262.4880362,-2.0,0.0,-1.0,-3.0,0.0,0.0,-1.0,-1.0
1701873262.4880362,0.0,-1.0,-1.0,-2.0,-2.0,0.0,3.0,4.0
1701873262.4880362,-2.0,-3.0,-2.0,-4.0,0.0,-2.0,-5.0,-4.0
1701873262.4880362,0.0,0.0,-1.0,-1.0,0.0,0.0,0.0,-2.0
1701873262.4880362,-2.0,0.0,0.0,-1.0,-3.0,0.0,0.0,-2.0
1701873262.4880362,-1.0,-2.0,-1.0,-4.0,-1.0,0.0,1.0,0.0
1701873262.5085185,0.0,-1.0,-1.0,1.0,-1.0,-2.0,1.0,-1.0
1701873262.5085185,0.0,0.0,0.0,3.0,-1.0,-1.0,-2.0,-2.0
1701873262.5185308,0.0,-1.0,0.0,3.0,0.0,-1.0,-1.0,-3.0
1701873262.5185308,-1.0,0.0,1.0,4.0,-1.0,-3.0,-1.0,-3.0
1701873262.5385284,-6.0,-5.0,-2.0,-12.0,-3.0,-2.0,0.0,-2.0
1701873262.5385284,1.0,-1.0,-1.0,-5.0,-1.0,-2.0,0.0,1.0
1701873262.5385284,0.0,-3.0,-5.0,1.0,0.0,0.0,0.0,0.0
1701873262.5385284,-2.0,-1.0,-2.0,2.0,0.0,-2.0,-4.0,-1.0
1701873262.5487561,0.0,1.0,5.0,7.0,-1.0,0.0,0.0,1.0
1701873262.5487561,-6.0,-2.0,2.0,-1.0,-1.0,-3.0,-2.0,-4.0
1701873262.5585341,1.0,0.0,-2.0,-2.0,0.0,0.0,3.0,4.0
1701873262.5585341,0.0,-1.0,-2.0,-3.0,0.0,-2.0,-6.0,-2.0
1701873262.568763,0.0,-1.0,-4.0,-3.0,-1.0,0.0,0.0,-3.0
1701873262.568763,0.0,-1.0,1.0,3.0,-1.0,0.0,-1.0,0.0
1701873262.5885317,-1.0,-2.0,-2.0,-5.0,-3.0,0.0,0.0,2.0
1701873262.5885317,-3.0,-1.0,-2.0,-7.0,-2.0,1.0,-1.0,-2.0
1701873262.5985281,0.0,0.0,0.0,0.0,-2.0,-1.0,-1.0,-3.0
1701873262.5985281,-1.0,1.0,-2.0,-1.0,0.0,1.0,1.0,0.0
1701873262.5985281,-2.0,2.0,1.0,0.0,0.0,-1.0,-1.0,0.0
1701873262.5985281,-2.0,0.0,-1.0,-4.0,0.0,1.0,1.0,-3.0
1701873262.6088455,-1.0,-2.0,-2.0,1.0,0.0,-2.0,-3.0,-2.0
1701873262.6088455,-4.0,-1.0,-2.0,0.0,-1.0,-3.0,-3.0,-5.0
1701873262.6185565,0.0,0.0,-2.0,1.0,-2.0,-4.0,-1.0,1.0
1701873262.6185565,0.0,-1.0,-1.0,0.0,-2.0,-1.0,-2.0,1.0
1701873262.6285307,-1.0,-1.0,-1.0,3.0,0.0,-1.0,-2.0,0.0
1701873262.6285307,-2.0,-2.0,-3.0,-10.0,-1.0,-1.0,2.0,2.0
1701873262.6385298,-2.0,-1.0,1.0,-3.0,0.0,0.0,-3.0,-5.0
1701873262.6385298,-2.0,0.0,0.0,2.0,-3.0,-1.0,-1.0,-1.0
1701873262.6485803,-1.0,-2.0,-3.0,2.0,0.0,-1.0,0.0,0.0
1701873262.6485803,0.0,0.0,-2.0,0.0,2.0,0.0,1.0,1.0
1701873262.6485803,-2.0,-1.0,0.0,-3.0,-1.0,-1.0,-3.0,-1.0
1701873262.6485803,0.0,-1.0,0.0,-3.0,1.0,-2.0,1.0,-2.0
1701873262.6687424,1.0,1.0,1.0,-1.0,-3.0,-1.0,0.0,2.0
1701873262.6687424,-1.0,-2.0,-2.0,1.0,-1.0,-2.0,1.0,0.0
1701873262.6785338,-3.0,-3.0,-3.0,-4.0,-1.0,-2.0,-7.0,-4.0
1701873262.6785338,-1.0,0.0,-1.0,1.0,1.0,2.0,0.0,1.0
1701873262.6886578,0.0,-2.0,-2.0,-2.0,-3.0,-2.0,-1.0,-1.0
1701873262.6886578,2.0,0.0,-1.0,2.0,-2.0,1.0,0.0,-1.0
1701873262.7085297,-1.0,-1.0,0.0,1.0,-4.0,-3.0,-1.0,-1.0
1701873262.7085297,-2.0,-1.0,0.0,0.0,-1.0,-1.0,-4.0,-4.0
1701873262.7085297,-2.0,-1.0,0.0,-3.0,-1.0,-1.0,-1.0,-2.0
1701873262.7185278,-1.0,0.0,-1.0,0.0,-2.0,-1.0,-3.0,-2.0
1701873262.7185278,-1.0,0.0,0.0,-1.0,0.0,-2.0,2.0,1.0
1701873262.7185278,-1.0,-2.0,-5.0,-6.0,-2.0,-1.0,0.0,2.0
1701873262.7289023,-2.0,0.0,2.0,-2.0,0.0,0.0,-1.0,-1.0
1701873262.7289023,-2.0,-1.0,2.0,-1.0,-1.0,0.0,-1.0,-3.0
1701873262.7385294,-1.0,-1.0,0.0,-2.0,1.0,0.0,1.0,-1.0
1701873262.7385294,-2.0,-2.0,0.0,-2.0,0.0,0.0,-1.0,-3.0
1701873262.7485437,1.0,0.0,-3.0,-3.0,-2.0,1.0,1.0,1.0
1701873262.7485437,0.0,-2.0,-2.0,1.0,0.0,-1.0,-2.0,0.0
1701873262.7585294,0.0,-2.0,-1.0,0.0,-1.0,-1.0,-3.0,-4.0
1701873262.7585294,0.0,-1.0,-3.0,-1.0,0.0,0.0,0.0,-1.0
1701873262.7685738,0.0,0.0,-1.0,-2.0,0.0,0.0,-4.0,0.0
1701873262.7685738,-3.0,-1.0,0.0,-3.0,-1.0,-2.0,-1.0,-1.0
1701873262.7685738,0.0,0.0,-1.0,-2.0,-3.0,-1.0,1.0,0.0
1701873262.7685738,1.0,-2.0,-2.0,-1.0,0.0,-2.0,2.0,2.0
1701873262.7889183,-3.0,-1.0,0.0,-1.0,0.0,-2.0,-3.0,-2.0
1701873262.7889183,-4.0,-2.0,-1.0,-1.0,0.0,0.0,-3.0,-5.0
1701873262.7985296,-2.0,-2.0,-1.0,-1.0,0.0,1.0,0.0,-2.0
1701873262.7985296,0.0,0.0,1.0,-1.0,-1.0,0.0,3.0,3.0
1701873262.8085277,-2.0,1.0,-3.0,-2.0,-1.0,-3.0,-1.0,0.0
1701873262.8085277,1.0,0.0,-2.0,0.0,0.0,-3.0,-6.0,-1.0
1701873262.8188293,-3.0,-1.0,0.0,-1.0,-1.0,0.0,-2.0,-1.0
1701873262.8188293,-1.0,-1.0,0.0,0.0,0.0,-2.0,-1.0,-3.0
1701873262.828904,-1.0,0.0,-2.0,-1.0,-1.0,1.0,1.0,1.0
1701873262.828904,-1.0,1.0,0.0,1.0,-3.0,-1.0,-1.0,0.0
1701873262.828904,0.0,-2.0,-1.0,-1.0,-2.0,-3.0,0.0,-2.0
1701873262.828904,-2.0,-2.0,-2.0,-1.0,-4.0,-2.0,-2.0,-2.0
1701873262.8565335,0.0,-1.0,0.0,-2.0,0.0,0.0,-1.0,-3.0
1701873262.8565335,-1.0,-1.0,0.0,0.0,-2.0,-2.0,-4.0,-2.0
1701873262.8585787,-1.0,0.0,-2.0,0.0,1.0,-2.0,0.0,0.0
1701873262.8585787,-1.0,-2.0,0.0,-1.0,-2.0,-2.0,-3.0,-4.0
1701873262.8646498,0.0,-1.0,0.0,1.0,-4.0,-2.0,-1.0,-5.0
1701873262.8646498,0.0,-3.0,-3.0,-2.0,-1.0,-1.0,-1.0,0.0
1701873262.8748279,-1.0,-2.0,-1.0,-1.0,-1.0,-1.0,-1.0,0.0
1701873262.8748279,-2.0,1.0,-2.0,-1.0,-2.0,0.0,0.0,1.0
1701873262.8946607,-3.0,-3.0,-2.0,1.0,-3.0,-4.0,-5.0,-6.0
1701873262.8946607,0.0,0.0,-1.0,0.0,-1.0,0.0,4.0,2.0
1701873262.8946607,-1.0,-1.0,-1.0,-1.0,0.0,-1.0,0.0,2.0
1701873262.8946607,-2.0,-3.0,-2.0,-1.0,1.0,-1.0,1.0,2.0
1701873262.9146543,-2.0,0.0,-1.0,-2.0,-2.0,-2.0,1.0,0.0
1701873262.9146543,-2.0,-2.0,-2.0,-1.0,-2.0,-3.0,-9.0,-7.0
1701873262.9146543,0.0,0.0,-1.0,-2.0,-2.0,0.0,-1.0,1.0
1701873262.9146543,1.0,0.0,1.0,1.0,-1.0,0.0,3.0,1.0
1701873262.9346519,0.0,-2.0,0.0,-1.0,1.0,-2.0,-4.0,-5.0
1701873262.9346519,-1.0,-3.0,0.0,1.0,-2.0,-1.0,2.0,0.0
1701873262.9346519,-2.0,0.0,-1.0,-1.0,-1.0,-2.0,-1.0,-3.0
1701873262.9346519,-2.0,0.0,1.0,1.0,-2.0,-1.0,0.0,-3.0
1701873262.9546583,0.0,-1.0,-1.0,1.0,0.0,0.0,0.0,0.0
1701873262.9546583,-1.0,0.0,-1.0,0.0,0.0,0.0,0.0,2.0
1701873262.9546583,-2.0,-1.0,0.0,0.0,-1.0,0.0,-1.0,-2.0
1701873262.9546583,-2.0,-2.0,-1.0,-1.0,-1.0,0.0,-2.0,0.0
1701873262.9746783,0.0,-1.0,-1.0,-5.0,-2.0,-1.0,-2.0,-1.0
1701873262.9746783,0.0,0.0,-2.0,-2.0,1.0,1.0,1.0,3.0
1701873262.9746783,0.0,-1.0,-3.0,-1.0,0.0,-1.0,-2.0,0.0
1701873262.9746783,-2.0,-2.0,-2.0,-2.0,0.0,-2.0,-5.0,-7.0
1701873262.9850588,-2.0,-2.0,0.0,-1.0,0.0,0.0,2.0,0.0
1701873262.9850588,1.0,-1.0,1.0,-3.0,-2.0,-1.0,1.0,0.0
1701873262.9954538,-1.0,0.0,1.0,4.0,0.0,-3.0,0.0,0.0
1701873262.9954538,-2.0,-1.0,-2.0,-2.0,0.0,-1.0,-1.0,-3.0
1701873263.0150728,-2.0,-2.0,-4.0,-2.0,-3.0,-2.0,-2.0,-3.0
1701873263.0150728,-2.0,-1.0,1.0,-2.0,0.0,1.0,4.0,2.0
1701873263.0150728,1.0,-2.0,1.0,0.0,-2.0,-1.0,0.0,0.0
1701873263.0150728,-2.0,-1.0,1.0,1.0,-1.0,-3.0,-7.0,-5.0
1701873263.0350685,0.0,1.0,4.0,4.0,1.0,2.0,2.0,1.0
1701873263.0350685,2.0,0.0,-3.0,-4.0,-1.0,0.0,4.0,4.0
1701873263.0350685,-2.0,-2.0,-2.0,-6.0,-3.0,-2.0,-4.0,-6.0
1701873263.0350685,-2.0,-3.0,-7.0,-6.0,-3.0,-1.0,1.0,-1.0
1701873263.0454707,0.0,-1.0,0.0,1.0,1.0,-1.0,0.0,2.0
1701873263.0454707,0.0,-2.0,3.0,5.0,1.0,-1.0,-1.0,1.0
1701873263.055454,1.0,1.0,3.0,-1.0,1.0,1.0,3.0,7.0
1701873263.055454,0.0,1.0,1.0,-3.0,-1.0,-2.0,0.0,-4.0
1701873263.0650716,-2.0,-1.0,0.0,0.0,-1.0,-2.0,-4.0,-4.0
1701873263.0750723,-2.0,0.0,1.0,1.0,-1.0,-2.0,2.0,7.0
1701873263.0750723,6.0,-1.0,-4.0,-4.0,-1.0,-2.0,-2.0,0.0
1701873263.0750723,-19.0,-4.0,-4.0,-4.0,-5.0,-2.0,-1.0,-7.0
1701873263.0951064,4.0,1.0,-2.0,-2.0,-1.0,3.0,-1.0,1.0
1701873263.0951064,-1.0,-2.0,0.0,0.0,1.0,-1.0,-3.0,-4.0
1701873263.0951064,-4.0,-3.0,-1.0,-1.0,-1.0,-1.0,-2.0,-3.0
1701873263.0951064,4.0,1.0,2.0,3.0,1.0,0.0,-2.0,1.0
1701873263.105433,0.0,0.0,0.0,-3.0,-1.0,-3.0,0.0,1.0
1701873263.105433,-6.0,-5.0,-5.0,-3.0,-5.0,-1.0,-3.0,-7.0
1701873263.1154232,-3.0,0.0,2.0,0.0,0.0,-1.0,-2.0,-3.0
1701873263.1154232,5.0,0.0,2.0,2.0,1.0,0.0,1.0,1.0
1701873263.135073,-3.0,-2.0,-6.0,-5.0,-3.0,-1.0,0.0,0.0
1701873263.135073,2.0,1.0,1.0,-1.0,-1.0,0.0,-5.0,-4.0
1701873263.135073,-3.0,-2.0,-3.0,-1.0,-2.0,-1.0,-2.0,-4.0
1701873263.135073,2.0,1.0,1.0,2.0,1.0,1.0,2.0,2.0
1701873263.1550689,-1.0,-1.0,-1.0,-3.0,-3.0,-1.0,0.0,2.0
1701873263.1550689,-3.0,-3.0,-2.0,0.0,-1.0,-3.0,-2.0,-7.0
1701873263.1550689,0.0,0.0,-2.0,3.0,-1.0,-2.0,1.0,-1.0
1701873263.1550689,1.0,-2.0,-1.0,0.0,-1.0,-2.0,0.0,2.0
1701873263.1654315,-4.0,-2.0,0.0,1.0,2.0,-2.0,-3.0,-8.0
1701873263.1654315,0.0,0.0,-2.0,-4.0,-2.0,0.0,-1.0,-1.0
1701873263.1754465,-3.0,1.0,3.0,-1.0,-1.0,0.0,0.0,3.0
1701873263.1754465,0.0,1.0,-1.0,2.0,0.0,0.0,-1.0,0.0
1701873263.195072,0.0,0.0,-1.0,-1.0,-2.0,-2.0,-1.0,2.0
1701873263.195072,-2.0,-1.0,-3.0,-3.0,-3.0,-3.0,0.0,-1.0
1701873263.195072,-2.0,0.0,-1.0,0.0,-3.0,-1.0,-1.0,-2.0
1701873263.195072,1.0,-3.0,-2.0,-4.0,-3.0,-3.0,-1.0,0.0
1701873263.215106,-2.0,0.0,1.0,1.0,0.0,0.0,0.0,-5.0
1701873263.215106,-2.0,-1.0,0.0,3.0,-3.0,-2.0,-1.0,-1.0
1701873263.215106,0.0,1.0,-1.0,-1.0,0.0,0.0,-2.0,-1.0
1701873263.215106,-2.0,-1.0,0.0,1.0,-1.0,-1.0,-2.0,-1.0
1701873263.2254572,-4.0,-1.0,-2.0,1.0,-1.0,-2.0,-1.0,-2.0
1701873263.2254572,-1.0,1.0,-1.0,-2.0,0.0,-2.0,-2.0,2.0
1701873263.2350705,-1.0,-1.0,-3.0,-1.0,-1.0,1.0,-1.0,-1.0
1701873263.2350705,-1.0,0.0,-1.0,-3.0,0.0,0.0,-1.0,-1.0
1701873263.25507,-2.0,-2.0,-2.0,-3.0,-3.0,-1.0,-3.0,-3.0
1701873263.25507,0.0,0.0,2.0,-1.0,1.0,2.0,-1.0,-4.0
1701873263.25507,-3.0,0.0,-1.0,0.0,3.0,0.0,0.0,-1.0
1701873263.25507,-1.0,-2.0,-1.0,-2.0,-2.0,0.0,-1.0,1.0
1701873263.2750757,1.0,-2.0,-2.0,-6.0,1.0,1.0,3.0,5.0
1701873263.2750757,1.0,-2.0,1.0,-3.0,-2.0,-1.0,2.0,0.0
1701873263.2750757,-4.0,-3.0,0.0,-2.0,-1.0,-1.0,-4.0,-5.0
1701873263.2750757,0.0,2.0,1.0,3.0,1.0,-2.0,-7.0,-4.0
1701873263.2854583,0.0,1.0,-2.0,-1.0,-1.0,1.0,1.0,-2.0
1701873263.2854583,-1.0,0.0,0.0,-1.0,0.0,0.0,1.0,1.0
1701873263.29524,-1.0,-2.0,-1.0,-4.0,0.0,0.0,0.0,0.0
1701873263.29524,-1.0,-2.0,-2.0,0.0,-2.0,-4.0,1.0,0.0
1701873263.31507,-1.0,-3.0,1.0,1.0,-3.0,-2.0,-2.0,-2.0
1701873263.31507,0.0,-2.0,0.0,0.0,-1.0,-1.0,-1.0,-1.0
1701873263.31507,1.0,-1.0,1.0,2.0,-2.0,-2.0,1.0,1.0
1701873263.31507,-2.0,1.0,-2.0,-2.0,-1.0,1.0,-2.0,-2.0
1701873263.335499,-1.0,-1.0,-2.0,-5.0,-2.0,-1.0,-1.0,1.0
1701873263.335499,0.0,-1.0,-4.0,-1.0,-1.0,-2.0,-1.0,-1.0
1701873263.335499,-2.0,-3.0,-3.0,-2.0,-3.0,-2.0,-2.0,-2.0
1701873263.335499,-1.0,-2.0,-2.0,-2.0,0.0,-2.0,-3.0,-4.0
1701873263.3454626,-1.0,2.0,1.0,3.0,0.0,0.0,2.0,4.0
1701873263.3454626,-1.0,-2.0,-4.0,1.0,-1.0,1.0,2.0,2.0
1701873263.3554373,-4.0,-3.0,-1.0,-1.0,-1.0,-3.0,-1.0,-6.0
1701873263.3554373,2.0,-2.0,1.0,-1.0,-3.0,-6.0,-3.0,4.0
1701873263.3651216,2.0,1.0,0.0,-1.0,-1.0,0.0,-1.0,0.0
1701873263.3651216,0.0,1.0,-1.0,-6.0,0.0,2.0,4.0,6.0
1701873263.3807197,1.0,-3.0,-2.0,-2.0,-1.0,1.0,5.0,4.0
1701873263.3821793,-2.0,0.0,0.0,-4.0,0.0,1.0,-1.0,-2.0
1701873263.3965669,-1.0,3.0,2.0,2.0,0.0,-1.0,1.0,-2.0
1701873263.3965669,-3.0,-6.0,-1.0,1.0,0.0,-2.0,-1.0,-2.0
1701873263.3965669,-1.0,0.0,-1.0,2.0,0.0,0.0,-3.0,-1.0
1701873263.3965669,-1.0,-1.0,-3.0,-5.0,-3.0,-1.0,-3.0,-4.0
1701873263.4069366,-2.0,1.0,0.0,2.0,-1.0,-3.0,-3.0,-2.0
1701873263.4069366,-3.0,0.0,-1.0,-8.0,-3.0,-5.0,-3.0,-4.0
1701873263.4165716,-2.0,-1.0,-1.0,0.0,0.0,-3.0,-2.0,-1.0
1701873263.4165716,-1.0,-1.0,0.0,2.0,1.0,0.0,0.0,1.0
1701873263.4266045,0.0,0.0,1.0,0.0,0.0,-1.0,1.0,0.0
1701873263.4266045,0.0,2.0,1.0,2.0,-1.0,0.0,-2.0,-3.0
1701873263.4367507,0.0,-2.0,-3.0,-1.0,-2.0,1.0,1.0,2.0
1701873263.4367507,0.0,0.0,-2.0,-1.0,-3.0,-2.0,-4.0,-4.0
1701873263.4568524,-2.0,0.0,-1.0,-1.0,-1.0,0.0,0.0,1.0
1701873263.4568524,1.0,0.0,1.0,0.0,1.0,1.0,3.0,4.0
1701873263.4568524,4.0,-1.0,-2.0,-3.0,-4.0,-2.0,3.0,4.0
1701873263.4568524,-1.0,0.0,-1.0,-1.0,0.0,0.0,-2.0,-2.0
1701873263.4768107,-2.0,-4.0,-3.0,-1.0,-2.0,-1.0,-2.0,-5.0
1701873263.4768107,-1.0,-1.0,-2.0,0.0,-2.0,-2.0,-5.0,-2.0
1701873263.4768107,0.0,2.0,0.0,-2.0,0.0,1.0,-1.0,-2.0
1701873263.4768107,-3.0,-3.0,-2.0,-1.0,-2.0,-2.0,1.0,-1.0
1701873263.506575,-1.0,-4.0,1.0,-1.0,-4.0,-5.0,-3.0,-1.0
1701873263.506575,1.0,1.0,0.0,0.0,-1.0,-2.0,-2.0,-1.0
1701873263.516568,0.0,-2.0,0.0,-2.0,0.0,0.0,3.0,4.0
1701873263.516568,0.0,0.0,0.0,-1.0,0.0,0.0,-1.0,-1.0
1701873263.516568,-3.0,-3.0,-3.0,-2.0,-2.0,-1.0,-3.0,-3.0
1701873263.516568,-4.0,-1.0,-1.0,1.0,-1.0,-3.0,-4.0,-6.0
1701873263.516568,-1.0,0.0,0.0,-1.0,1.0,-1.0,-3.0,-3.0
1701873263.516568,-2.0,-1.0,0.0,0.0,-1.0,0.0,2.0,1.0
1701873263.5565681,1.0,0.0,-1.0,2.0,-1.0,-1.0,1.0,4.0
1701873263.5565681,0.0,1.0,1.0,0.0,-1.0,-3.0,0.0,-1.0
1701873263.5565681,-3.0,-1.0,-5.0,0.0,-1.0,-2.0,-4.0,-1.0
1701873263.5565681,-2.0,-2.0,0.0,1.0,-2.0,2.0,1.0,-1.0
1701873263.5565681,-2.0,-3.0,-4.0,-3.0,-2.0,-4.0,-6.0,-6.0
1701873263.5565681,0.0,-4.0,-1.0,0.0,0.0,-2.0,-4.0,0.0
1701873263.5565681,-2.0,-2.0,0.0,2.0,0.0,-1.0,-3.0,-6.0
1701873263.5565681,0.0,6.0,5.0,2.0,-2.0,-2.0,-2.0,-7.0
1701873263.5769594,-1.0,-7.0,-3.0,-3.0,0.0,2.0,0.0,0.0
1701873263.5769594,-3.0,0.0,1.0,-6.0,-2.0,0.0,-4.0,-4.0
1701873263.5769594,-3.0,-8.0,-5.0,-1.0,-3.0,-3.0,-1.0,1.0
1701873263.5769594,-2.0,-3.0,-2.0,-2.0,2.0,1.0,1.0,0.0
1701873263.5965729,-2.0,3.0,-1.0,0.0,0.0,-2.0,-1.0,-1.0
1701873263.5965729,1.0,0.0,0.0,-2.0,0.0,3.0,2.0,2.0
1701873263.5965729,-1.0,0.0,2.0,-2.0,-1.0,1.0,-2.0,0.0
1701873263.5965729,1.0,-2.0,0.0,5.0,1.0,0.0,1.0,1.0
1701873263.6066043,-5.0,-4.0,-3.0,-3.0,1.0,-3.0,-4.0,-4.0
1701873263.6066043,0.0,-1.0,-1.0,4.0,0.0,-2.0,0.0,1.0
1701873263.6168685,1.0,-1.0,-5.0,-12.0,-5.0,-1.0,-3.0,-3.0
1701873263.6168685,-1.0,-3.0,0.0,1.0,0.0,-3.0,-1.0,-1.0
1701873263.6365726,1.0,0.0,2.0,-1.0,-2.0,0.0,-1.0,-1.0
1701873263.6365726,-2.0,-2.0,-4.0,0.0,-3.0,-1.0,-2.0,-3.0
1701873263.6365726,-1.0,0.0,1.0,4.0,1.0,-1.0,-1.0,-3.0
1701873263.6365726,-2.0,0.0,2.0,6.0,0.0,2.0,1.0,2.0
1701873263.6567855,0.0,-1.0,-4.0,-9.0,0.0,-3.0,-1.0,1.0
1701873263.6567855,-2.0,-1.0,-2.0,-4.0,-3.0,0.0,-5.0,-6.0
1701873263.6567855,-1.0,1.0,2.0,1.0,0.0,1.0,1.0,0.0
1701873263.6567855,2.0,0.0,-4.0,-5.0,-2.0,1.0,4.0,7.0
1701873263.6666393,0.0,-2.0,2.0,5.0,1.0,1.0,1.0,-1.0
1701873263.6666393,1.0,-1.0,1.0,1.0,1.0,0.0,-1.0,0.0
1701873263.6767516,-1.0,4.0,1.0,0.0,0.0,-1.0,-2.0,0.0
1701873263.6767516,-4.0,-4.0,-7.0,-6.0,-3.0,-3.0,-2.0,-3.0
1701873263.6966486,-3.0,-7.0,-1.0,2.0,0.0,-1.0,0.0,-1.0
1701873263.6966486,-1.0,-5.0,-3.0,-5.0,1.0,0.0,1.0,1.0
1701873263.6966486,-2.0,3.0,-3.0,-5.0,-3.0,-2.0,-2.0,0.0
1701873263.6966486,-7.0,-6.0,-3.0,-5.0,-5.0,-4.0,-5.0,-7.0
1701873263.7165942,4.0,-1.0,-1.0,-1.0,-1.0,-1.0,2.0,7.0
1701873263.7165942,-2.0,-1.0,1.0,5.0,1.0,2.0,-2.0,-3.0
1701873263.7165942,2.0,10.0,6.0,1.0,-1.0,-2.0,0.0,3.0
1701873263.7165942,1.0,2.0,0.0,3.0,1.0,0.0,0.0,-1.0
1701873263.7266083,-7.0,-15.0,-14.0,-15.0,-6.0,-1.0,-3.0,-4.0
1701873263.7266083,-1.0,0.0,0.0,3.0,2.0,-4.0,-2.0,-3.0
1701873263.7368479,-2.0,-4.0,-1.0,2.0,0.0,-1.0,-4.0,-4.0
1701873263.7368479,3.0,8.0,1.0,-12.0,-3.0,1.0,1.0,2.0
1701873263.7568722,0.0,6.0,6.0,9.0,1.0,0.0,-4.0,-3.0
1701873263.7568722,-5.0,-3.0,-2.0,3.0,0.0,-3.0,-2.0,-10.0
1701873263.7568722,2.0,4.0,-5.0,-4.0,-3.0,0.0,-1.0,1.0
1701873263.7568722,-2.0,-9.0,0.0,-2.0,0.0,-3.0,-2.0,-1.0
1701873263.7768676,4.0,5.0,6.0,5.0,0.0,0.0,2.0,4.0
1701873263.7768676,-8.0,-17.0,-7.0,-4.0,-3.0,-5.0,-4.0,-7.0
1701873263.7768676,1.0,2.0,0.0,4.0,-2.0,-3.0,-4.0,-1.0
1701873263.7768676,-2.0,-4.0,2.0,9.0,1.0,0.0,2.0,1.0
1701873263.7870839,6.0,10.0,1.0,-11.0,4.0,3.0,2.0,4.0
1701873263.7870839,-5.0,-1.0,-4.0,0.0,-4.0,-4.0,-1.0,-3.0
1701873263.7971191,-1.0,-2.0,-2.0,-6.0,-7.0,-3.0,2.0,0.0
1701873263.7971191,-1.0,-12.0,-5.0,-4.0,-1.0,0.0,-2.0,4.0
1701873263.8268635,-1.0,16.0,14.0,11.0,3.0,0.0,-6.0,-8.0
1701873263.8268635,1.0,-19.0,-8.0,-6.0,2.0,7.0,9.0,11.0
1701873263.8268635,-4.0,3.0,1.0,1.0,0.0,1.0,-2.0,-6.0
1701873263.8268635,-2.0,-7.0,-7.0,-5.0,-4.0,2.0,5.0,7.0
1701873263.837145,0.0,9.0,6.0,5.0,1.0,-2.0,-5.0,-5.0
1701873263.837145,1.0,1.0,-3.0,-8.0,-4.0,-1.0,3.0,6.0
1701873263.837145,4.0,1.0,5.0,19.0,9.0,4.0,8.0,10.0
1701873263.837145,-2.0,7.0,3.0,-5.0,-2.0,-4.0,-8.0,-5.0
1701873263.8471382,3.0,5.0,-7.0,-19.0,-4.0,-2.0,2.0,4.0
1701873263.8471382,-8.0,-18.0,-6.0,0.0,-4.0,-8.0,-5.0,-5.0
1701873263.8571122,-5.0,0.0,3.0,-7.0,-3.0,-1.0,-4.0,-8.0
1701873263.8571122,5.0,17.0,5.0,3.0,4.0,1.0,-1.0,1.0
1701873263.8868635,-13.0,-40.0,-26.0,2.0,-5.0,-6.0,-9.0,-11.0
1701873263.8868635,6.0,15.0,6.0,-7.0,-2.0,-2.0,-1.0,2.0
1701873263.8868635,-3.0,0.0,4.0,18.0,1.0,-2.0,-4.0,-4.0
1701873263.8868635,-3.0,-6.0,-2.0,-7.0,0.0,-1.0,-3.0,-5.0
1701873263.897138,-6.0,-18.0,-9.0,-7.0,-4.0,0.0,-2.0,-5.0
1701873263.897138,1.0,3.0,5.0,8.0,0.0,2.0,-2.0,0.0
1701873263.897138,0.0,-5.0,-7.0,-4.0,3.0,2.0,7.0,5.0
1701873263.897138,3.0,5.0,9.0,6.0,-4.0,1.0,1.0,4.0
1701873263.9130886,-2.0,-2.0,5.0,10.0,3.0,0.0,2.0,0.0
1701873263.9130886,-2.0,3.0,-11.0,-14.0,-6.0,-4.0,-3.0,-6.0
1701873263.924266,1.0,-2.0,7.0,11.0,2.0,1.0,3.0,1.0
1701873263.924266,1.0,-6.0,-9.0,-13.0,-3.0,-5.0,3.0,3.0
1701873263.9291985,1.0,3.0,-1.0,-1.0,-6.0,-7.0,3.0,8.0
1701873263.9291985,2.0,9.0,6.0,6.0,2.0,3.0,-3.0,-3.0
1701873263.9291985,3.0,6.0,-3.0,-8.0,-5.0,-3.0,-1.0,3.0
1701873263.9291985,-6.0,-12.0,-2.0,8.0,3.0,0.0,-1.0,-4.0
1701873263.9595928,3.0,22.0,14.0,3.0,2.0,-1.0,4.0,6.0
1701873263.9595928,-8.0,-36.0,-19.0,-10.0,-3.0,-5.0,-4.0,-2.0
1701873263.9595928,-4.0,-1.0,1.0,-5.0,-4.0,-4.0,-10.0,-15.0
1701873263.9595928,5.0,8.0,0.0,4.0,1.0,-2.0,-4.0,-4.0
1701873263.9695926,-1.0,-8.0,1.0,2.0,1.0,1.0,2.0,0.0
1701873263.9695926,1.0,29.0,2.0,-3.0,-4.0,-3.0,-1.0,-2.0
1701873263.9794915,-4.0,-21.0,-8.0,-4.0,-2.0,-1.0,-2.0,-7.0
1701873263.9794915,-1.0,0.0,-2.0,2.0,-3.0,2.0,5.0,2.0
1701873263.989202,0.0,6.0,-5.0,-9.0,1.0,1.0,-1.0,-1.0
1701873263.989202,5.0,11.0,6.0,-3.0,1.0,0.0,-8.0,-8.0
1701873263.989202,-4.0,-19.0,-10.0,-10.0,-3.0,-2.0,-3.0,2.0
1701873263.989202,0.0,9.0,3.0,-2.0,-1.0,-2.0,0.0,-1.0
1701873264.0193763,-2.0,-9.0,-1.0,3.0,-2.0,1.0,3.0,2.0
1701873264.0193763,1.0,7.0,4.0,2.0,3.0,4.0,5.0,3.0
1701873264.0193763,-11.0,-2.0,-3.0,-2.0,-5.0,-5.0,-7.0,-7.0
1701873264.0193763,-3.0,-12.0,-3.0,1.0,1.0,-2.0,-3.0,-2.0
1701873264.0292056,-3.0,-1.0,-6.0,-13.0,-4.0,-3.0,-6.0,-7.0
1701873264.0292056,1.0,0.0,1.0,0.0,1.0,-1.0,1.0,1.0
1701873264.039201,2.0,2.0,-4.0,-8.0,-2.0,-2.0,-3.0,-2.0
1701873264.039201,1.0,-1.0,-2.0,0.0,-3.0,-1.0,-3.0,1.0
1701873264.0492013,4.0,14.0,6.0,11.0,1.0,2.0,-2.0,-5.0
1701873264.0492013,-4.0,-16.0,-1.0,5.0,-1.0,-3.0,-2.0,-3.0
1701873264.0492013,0.0,-10.0,-15.0,-16.0,-5.0,-2.0,0.0,3.0
1701873264.0492013,-2.0,6.0,6.0,2.0,-2.0,-1.0,1.0,-4.0
1701873264.0795956,-4.0,-3.0,-4.0,-11.0,-2.0,-3.0,-1.0,-3.0
1701873264.0795956,2.0,8.0,4.0,3.0,1.0,1.0,1.0,2.0
1701873264.0795956,0.0,1.0,1.0,2.0,1.0,-1.0,0.0,-2.0
1701873264.0795956,-1.0,-5.0,-2.0,-1.0,0.0,0.0,-1.0,0.0
1701873264.0992005,-6.0,-2.0,0.0,-1.0,-4.0,-5.0,-6.0,-6.0
1701873264.0992005,-2.0,1.0,-2.0,-2.0,-2.0,0.0,2.0,3.0
1701873264.0992005,1.0,-1.0,0.0,1.0,0.0,1.0,4.0,3.0
1701873264.0992005,0.0,2.0,-2.0,-1.0,0.0,1.0,-2.0,-3.0
1701873264.1094809,-1.0,-3.0,-4.0,1.0,-2.0,-3.0,-1.0,2.0
1701873264.1094809,0.0,1.0,2.0,0.0,-2.0,2.0,4.0,3.0
1701873264.1192052,2.0,3.0,3.0,0.0,0.0,1.0,-1.0,0.0
1701873264.1192052,1.0,-4.0,-2.0,-3.0,-1.0,-1.0,3.0,2.0
1701873264.1394968,1.0,-5.0,-2.0,1.0,-1.0,-2.0,-2.0,2.0
1701873264.1394968,-4.0,-4.0,-2.0,-1.0,-4.0,-6.0,-14.0,-8.0
1701873264.1394968,3.0,6.0,2.0,1.0,1.0,2.0,6.0,6.0
1701873264.1394968,-2.0,1.0,-1.0,-4.0,-2.0,-1.0,0.0,-2.0
1701873264.1792028,-3.0,-5.0,0.0,1.0,-1.0,1.0,4.0,0.0
1701873264.1792028,3.0,4.0,2.0,3.0,-1.0,-4.0,6.0,4.0
1701873264.1792028,-2.0,0.0,-1.0,2.0,-1.0,-4.0,-1.0,-3.0
1701873264.1792028,-2.0,-3.0,-3.0,-3.0,-2.0,-6.0,-2.0,0.0
1701873264.1792028,0.0,0.0,0.0,2.0,0.0,1.0,1.0,-1.0
1701873264.1792028,0.0,-1.0,-2.0,-2.0,1.0,1.0,-1.0,-1.0
1701873264.1792028,-1.0,-1.0,0.0,-3.0,2.0,0.0,-4.0,-6.0
1701873264.1792028,-1.0,-3.0,-3.0,-2.0,0.0,2.0,-1.0,2.0
1701873264.1995192,-1.0,-1.0,0.0,-1.0,0.0,3.0,-1.0,-2.0
1701873264.1995192,0.0,-1.0,0.0,-2.0,-2.0,0.0,-2.0,-1.0
1701873264.1995192,-3.0,-2.0,-2.0,-2.0,1.0,-1.0,0.0,1.0
1701873264.1995192,-2.0,-1.0,-3.0,-2.0,0.0,0.0,0.0,2.0
1701873264.2092042,-2.0,-2.0,-1.0,-1.0,-1.0,-1.0,-5.0,-7.0
1701873264.2092042,-4.0,-3.0,-2.0,1.0,0.0,0.0,0.0,-6.0
1701873264.2292016,0.0,1.0,-1.0,-1.0,-1.0,0.0,-3.0,0.0
1701873264.2292016,0.0,-1.0,-2.0,-1.0,0.0,0.0,-1.0,0.0
1701873264.2292016,1.0,0.0,-1.0,0.0,-1.0,-1.0,-4.0,-2.0
1701873264.2292016,-2.0,1.0,0.0,-3.0,0.0,-2.0,-1.0,-1.0
1701873264.2292016,1.0,0.0,1.0,0.0,-1.0,-2.0,1.0,0.0
1701873264.2292016,-2.0,-2.0,-1.0,-3.0,-2.0,-1.0,-9.0,-10.0
1701873264.2593973,-1.0,0.0,0.0,0.0,1.0,1.0,3.0,4.0
1701873264.2593973,-2.0,0.0,-1.0,-3.0,-1.0,0.0,0.0,0.0
1701873264.2593973,-2.0,-1.0,-2.0,-2.0,-2.0,-1.0,-1.0,-1.0
1701873264.2593973,-3.0,0.0,-2.0,-2.0,0.0,0.0,1.0,-2.0
1701873264.2692006,-2.0,1.0,0.0,-3.0,0.0,-1.0,-1.0,-2.0
1701873264.2692006,1.0,-3.0,-4.0,0.0,-1.0,2.0,-1.0,2.0
1701873264.2794852,-1.0,0.0,-2.0,0.0,-2.0,0.0,1.0,3.0
1701873264.2794852,2.0,-1.0,2.0,-1.0,0.0,0.0,0.0,-2.0
1701873264.2894888,0.0,-1.0,0.0,-4.0,-1.0,-3.0,0.0,-1.0
1701873264.2894888,0.0,3.0,1.0,7.0,2.0,0.0,0.0,-1.0
1701873264.2992055,-3.0,-3.0,-6.0,-8.0,-1.0,0.0,-1.0,-1.0
1701873264.2992055,-2.0,-4.0,-6.0,-10.0,-6.0,-3.0,-2.0,-1.0
1701873264.3392005,1.0,-2.0,-1.0,2.0,0.0,-2.0,0.0,0.0
1701873264.3392005,0.0,0.0,2.0,-1.0,-2.0,-1.0,-2.0,-1.0
1701873264.3392005,2.0,0.0,3.0,3.0,0.0,0.0,0.0,-3.0
1701873264.3392005,-1.0,1.0,3.0,2.0,0.0,-1.0,-1.0,-4.0
1701873264.3392005,1.0,-2.0,0.0,2.0,-1.0,-1.0,1.0,2.0
1701873264.3392005,0.0,1.0,0.0,2.0,-1.0,-1.0,2.0,2.0
1701873264.3494692,0.0,-2.0,-2.0,-3.0,-1.0,-1.0,-3.0,-7.0
1701873264.3494692,-5.0,-6.0,-5.0,1.0,-2.0,-1.0,2.0,-1.0
1701873264.3494692,-2.0,-2.0,-1.0,-3.0,-2.0,-3.0,-9.0,-3.0
1701873264.3494692,1.0,1.0,1.0,1.0,0.0,1.0,4.0,2.0
1701873264.3595448,-2.0,-5.0,-3.0,-3.0,-2.0,-3.0,-1.0,1.0
1701873264.3595448,2.0,4.0,-1.0,0.0,0.0,-1.0,-3.0,-6.0
1701873264.379201,-6.0,-10.0,-4.0,0.0,-2.0,0.0,-1.0,-2.0
1701873264.379201,6.0,-2.0,0.0,-4.0,-1.0,-3.0,0.0,10.0
1701873264.379201,-8.0,1.0,1.0,0.0,-1.0,-1.0,-5.0,-6.0
1701873264.379201,0.0,-2.0,-2.0,-4.0,-2.0,1.0,-2.0,2.0
1701873264.3895411,2.0,0.0,-1.0,1.0,-1.0,0.0,1.0,1.0
1701873264.3895411,-4.0,-1.0,-2.0,-6.0,-1.0,-1.0,1.0,-3.0
1701873264.39952,3.0,0.0,1.0,-2.0,-2.0,-1.0,2.0,3.0
1701873264.39952,-2.0,-3.0,0.0,4.0,0.0,-2.0,-3.0,-2.0
1701873264.409393,2.0,6.0,3.0,-1.0,-1.0,-1.0,1.0,-2.0
1701873264.409393,1.0,-2.0,-2.0,-2.0,-1.0,0.0,-1.0,0.0
1701873264.4195502,2.0,1.0,0.0,1.0,-1.0,-1.0,2.0,0.0
1701873264.4195502,-5.0,-3.0,0.0,-1.0,-2.0,-6.0,-14.0,-9.0
1701873264.4444683,0.0,1.0,-3.0,-3.0,-1.0,-3.0,3.0,4.0
1701873264.4444683,-1.0,-5.0,-4.0,-1.0,-1.0,-1.0,-1.0,-2.0
1701873264.4444683,0.0,2.0,0.0,0.0,1.0,2.0,2.0,-3.0
1701873264.4444683,1.0,1.0,-1.0,1.0,-3.0,-2.0,1.0,2.0
1701873264.4624035,1.0,-1.0,0.0,2.0,-2.0,-2.0,-1.0,0.0
1701873264.4624035,0.0,2.0,1.0,-2.0,-1.0,-1.0,-3.0,-2.0
1701873264.4624035,-5.0,-3.0,-4.0,-3.0,-4.0,-3.0,-9.0,-9.0
1701873264.4624035,0.0,-9.0,-1.0,4.0,1.0,2.0,5.0,0.0
1701873264.4727075,-3.0,0.0,-5.0,-5.0,0.0,-3.0,-6.0,-3.0
1701873264.4727075,-3.0,-1.0,-1.0,-5.0,-3.0,0.0,0.0,-5.0
1701873264.5024047,2.0,-1.0,2.0,5.0,2.0,-1.0,0.0,3.0
1701873264.5024047,0.0,13.0,6.0,5.0,0.0,1.0,-1.0,-2.0
1701873264.5024047,-4.0,-14.0,-9.0,-18.0,-5.0,0.0,2.0,-1.0
1701873264.5024047,-1.0,3.0,0.0,4.0,-3.0,-2.0,-5.0,-5.0
1701873264.5024047,-4.0,-6.0,0.0,0.0,0.0,-2.0,1.0,0.0
1701873264.5024047,2.0,-6.0,-5.0,-7.0,-1.0,0.0,0.0,2.0
1701873264.5224113,0.0,5.0,4.0,9.0,2.0,-2.0,-1.0,-1.0
1701873264.5224113,-2.0,-3.0,1.0,6.0,1.0,-1.0,-4.0,-3.0
1701873264.5224113,0.0,2.0,2.0,1.0,-2.0,-2.0,-4.0,-3.0
1701873264.5224113,0.0,7.0,-7.0,-12.0,-4.0,-4.0,1.0,-2.0
1701873264.5328398,-6.0,-15.0,-8.0,-8.0,-2.0,1.0,-2.0,-3.0
1701873264.5328398,-2.0,-2.0,2.0,-1.0,1.0,-2.0,0.0,0.0
1701873264.5424051,1.0,3.0,3.0,6.0,0.0,0.0,0.0,0.0
1701873264.5424051,1.0,4.0,3.0,1.0,-1.0,-1.0,1.0,2.0
1701873264.5524375,0.0,4.0,3.0,4.0,0.0,-1.0,0.0,-2.0
1701873264.5524375,-2.0,0.0,-1.0,1.0,0.0,0.0,-1.0,-4.0
1701873264.5524375,2.0,4.0,1.0,-3.0,0.0,2.0,2.0,5.0
1701873264.5524375,-2.0,-1.0,-3.0,-6.0,0.0,1.0,0.0,0.0
1701873264.5824072,-3.0,2.0,1.0,0.0,-5.0,-5.0,-5.0,-8.0
1701873264.5824072,-1.0,-6.0,-3.0,0.0,-1.0,-1.0,-1.0,1.0
1701873264.5824072,-1.0,2.0,-3.0,-3.0,-3.0,-1.0,-1.0,1.0
1701873264.5824072,0.0,-4.0,-7.0,0.0,-4.0,-2.0,-1.0,1.0
1701873264.5927026,-3.0,-2.0,-4.0,-10.0,1.0,-2.0,-4.0,-6.0
1701873264.5927026,-2.0,-1.0,2.0,-1.0,0.0,0.0,-2.0,-3.0
1701873264.6124015,0.0,1.0,0.0,0.0,-1.0,-3.0,-2.0,1.0
1701873264.6124015,2.0,7.0,5.0,9.0,0.0,-1.0,5.0,5.0
1701873264.6124015,2.0,4.0,0.0,7.0,-2.0,-3.0,-2.0,1.0
1701873264.6124015,-4.0,-10.0,-8.0,-16.0,-1.0,-3.0,-4.0,-3.0
1701873264.6124015,-2.0,-4.0,-5.0,-2.0,-1.0,0.0,-1.0,-6.0
1701873264.6124015,-5.0,-5.0,-1.0,0.0,0.0,-3.0,-4.0,-3.0
1701873264.632405,3.0,4.0,3.0,0.0,0.0,3.0,4.0,4.0
1701873264.632405,3.0,13.0,4.0,9.0,1.0,2.0,2.0,2.0
1701873264.642406,-5.0,-15.0,-11.0,-19.0,-3.0,-1.0,-7.0,-7.0
1701873264.642406,-2.0,1.0,6.0,3.0,2.0,2.0,-3.0,-1.0
1701873264.6524034,-1.0,-1.0,-3.0,-3.0,-3.0,-2.0,-3.0,0.0
1701873264.6524034,3.0,8.0,5.0,0.0,3.0,4.0,1.0,3.0
1701873264.672409,-4.0,-3.0,-8.0,2.0,-2.0,-2.0,-8.0,-1.0
1701873264.672409,-10.0,-37.0,-13.0,-3.0,-1.0,-2.0,-1.0,-4.0
1701873264.672409,1.0,8.0,1.0,-5.0,-1.0,-3.0,1.0,2.0
1701873264.672409,-3.0,-8.0,0.0,-1.0,-1.0,-2.0,-1.0,-6.0
1701873264.672409,3.0,17.0,3.0,2.0,4.0,-2.0,6.0,2.0
1701873264.672409,-2.0,-7.0,-4.0,-7.0,-1.0,-1.0,0.0,1.0
1701873264.6924064,2.0,12.0,11.0,17.0,2.0,1.0,4.0,6.0
1701873264.6924064,-2.0,-9.0,-15.0,-19.0,-6.0,-2.0,4.0,-1.0
1701873264.7224026,-2.0,-1.0,3.0,1.0,-2.0,-1.0,4.0,-2.0
1701873264.7224026,1.0,7.0,4.0,0.0,2.0,2.0,5.0,-1.0
1701873264.7224026,-3.0,-5.0,-5.0,-6.0,-2.0,-2.0,2.0,-2.0
1701873264.7224026,-3.0,-7.0,-2.0,7.0,1.0,-1.0,5.0,0.0
1701873264.7224026,3.0,13.0,6.0,-3.0,-1.0,-1.0,2.0,0.0
1701873264.7224026,-1.0,-12.0,-1.0,-5.0,1.0,0.0,-2.0,-1.0
1701873264.7326128,-9.0,-22.0,-12.0,-9.0,-1.0,-2.0,-7.0,-5.0
1701873264.7326128,3.0,22.0,12.0,12.0,-1.0,-5.0,-12.0,-4.0
1701873264.7326128,-2.0,-14.0,-12.0,-7.0,-1.0,1.0,-3.0,0.0
1701873264.7326128,2.0,19.0,13.0,9.0,-2.0,-7.0,-9.0,-3.0
1701873264.7624078,4.0,-1.0,-8.0,-5.0,-4.0,1.0,-4.0,-2.0
1701873264.7624078,-7.0,-17.0,-7.0,-4.0,-1.0,-4.0,-8.0,-3.0
1701873264.7624078,1.0,10.0,9.0,3.0,-1.0,0.0,2.0,4.0
1701873264.7624078,-3.0,1.0,-1.0,-5.0,-2.0,-1.0,-3.0,-4.0
1701873264.7727132,-6.0,-17.0,-5.0,4.0,0.0,0.0,0.0,-4.0
1701873264.7727132,0.0,3.0,-1.0,6.0,-1.0,-2.0,-2.0,-5.0
1701873264.802403,2.0,-6.0,-4.0,-6.0,-2.0,-2.0,3.0,1.0
1701873264.802403,5.0,10.0,2.0,0.0,-2.0,-4.0,-2.0,3.0
1701873264.802403,0.0,-8.0,1.0,15.0,1.0,-3.0,1.0,1.0
1701873264.802403,5.0,12.0,8.0,-2.0,-6.0,-5.0,0.0,5.0
1701873264.802403,-5.0,-13.0,-9.0,-3.0,-2.0,-6.0,-5.0,-4.0
1701873264.802403,-2.0,4.0,-2.0,2.0,-2.0,-1.0,-1.0,-2.0
1701873264.812793,1.0,-1.0,1.0,-4.0,-3.0,1.0,3.0,2.0
1701873264.812793,4.0,18.0,0.0,-3.0,4.0,2.0,4.0,3.0
1701873264.8224046,-6.0,-20.0,-2.0,2.0,-2.0,-1.0,-3.0,-2.0
1701873264.8224046,-2.0,4.0,-1.0,-2.0,0.0,1.0,0.0,-2.0
1701873264.8324018,0.0,7.0,3.0,2.0,0.0,-2.0,-1.0,0.0
1701873264.8324018,3.0,-6.0,-3.0,-1.0,1.0,5.0,8.0,6.0
1701873264.8426573,-4.0,2.0,4.0,-1.0,-1.0,-1.0,1.0,0.0
1701873264.8426573,-9.0,-7.0,-4.0,1.0,-4.0,-5.0,-13.0,-18.0
1701873264.8526986,2.0,7.0,0.0,-5.0,-2.0,3.0,4.0,1.0
1701873264.8526986,-2.0,-6.0,-1.0,-3.0,-2.0,-2.0,0.0,-1.0
1701873264.8526986,4.0,1.0,2.0,4.0,3.0,5.0,1.0,4.0
1701873264.8526986,-1.0,-4.0,-4.0,-7.0,-2.0,1.0,6.0,4.0
1701873264.892405,-1.0,3.0,-1.0,-14.0,-1.0,0.0,-2.0,-2.0
1701873264.892405,-4.0,-7.0,-5.0,-6.0,-1.0,-1.0,-4.0,-4.0
1701873264.892405,-1.0,-1.0,1.0,5.0,0.0,0.0,2.0,3.0
1701873264.892405,0.0,-1.0,-2.0,-4.0,-1.0,1.0,4.0,4.0
1701873264.892405,1.0,5.0,0.0,-4.0,0.0,-1.0,-4.0,-2.0
1701873264.892405,-3.0,-6.0,-1.0,2.0,1.0,-2.0,-1.0,0.0
1701873264.9025867,1.0,0.0,-3.0,-5.0,-3.0,-4.0,-3.0,-1.0
1701873264.9025867,-1.0,-3.0,-1.0,3.0,-1.0,-3.0,-1.0,1.0
1701873264.9128146,0.0,1.0,2.0,4.0,0.0,-1.0,4.0,2.0
1701873264.9128146,-2.0,-4.0,0.0,-1.0,-3.0,-2.0,-3.0,-4.0
1701873264.9128146,-1.0,1.0,3.0,4.0,-2.0,-1.0,-3.0,-3.0
1701873264.9128146,0.0,-3.0,-3.0,-3.0,-1.0,2.0,0.0,3.0
1701873264.932404,-1.0,0.0,1.0,-2.0,1.0,-1.0,-1.0,-1.0
1701873264.932404,-4.0,-2.0,-2.0,-6.0,-1.0,0.0,-2.0,-1.0
1701873264.9426122,-3.0,3.0,1.0,-1.0,2.0,-2.0,-2.0,-4.0
1701873264.9426122,2.0,-3.0,-2.0,-1.0,0.0,0.0,0.0,1.0
1701873264.9528239,0.0,-4.0,0.0,3.0,0.0,-1.0,-3.0,-3.0
1701873264.9528239,-3.0,-1.0,-1.0,0.0,-3.0,-3.0,-3.0,-1.0
1701873264.9644578,1.0,0.0,-2.0,-2.0,-2.0,0.0,-1.0,0.0
1701873264.9644578,-1.0,-1.0,-2.0,0.0,-1.0,-2.0,2.0,-1.0
1701873264.979178,-1.0,2.0,1.0,0.0,0.0,-2.0,-7.0,-6.0
1701873264.979178,-2.0,-2.0,-4.0,-1.0,-2.0,-2.0,-1.0,-2.0
1701873264.9810119,-2.0,-1.0,0.0,-2.0,-1.0,-4.0,-1.0,-3.0
1701873264.9810119,-3.0,-1.0,1.0,4.0,1.0,-2.0,-1.0,-4.0
1701873264.9947274,0.0,1.0,0.0,-3.0,-1.0,-1.0,0.0,3.0
1701873264.9947274,-2.0,-4.0,-3.0,-5.0,-3.0,-3.0,-3.0,-4.0
1701873264.9947274,-2.0,-1.0,-1.0,-3.0,0.0,0.0,-3.0,-3.0
1701873264.9947274,1.0,-1.0,-2.0,-2.0,-1.0,-1.0,-2.0,0.0
1701873265.0150528,-1.0,1.0,-2.0,1.0,0.0,2.0,0.0,-1.0
1701873265.0150528,-1.0,-2.0,-1.0,-1.0,0.0,2.0,0.0,1.0
1701873265.0150528,-2.0,0.0,-2.0,0.0,0.0,0.0,-1.0,1.0
1701873265.0247726,-2.0,-1.0,-1.0,-2.0,-2.0,1.0,-5.0,-2.0
1701873265.0350537,-3.0,-1.0,-1.0,-2.0,-3.0,-3.0,-2.0,-4.0
1701873265.0350537,0.0,-2.0,-1.0,2.0,-1.0,-2.0,1.0,0.0
1701873265.0350537,-1.0,0.0,-1.0,-1.0,0.0,-2.0,-3.0,-2.0
1701873265.0350537,-1.0,-2.0,1.0,2.0,0.0,-2.0,2.0,0.0
1701873265.0547318,1.0,0.0,-1.0,0.0,-2.0,-1.0,-1.0,0.0
1701873265.0547318,-1.0,0.0,-2.0,-1.0,-1.0,-3.0,-2.0,-2.0
1701873265.0547318,1.0,0.0,1.0,8.0,-2.0,-3.0,0.0,-1.0
1701873265.0547318,-1.0,-1.0,-1.0,-1.0,-3.0,-3.0,-2.0,-2.0
1701873265.0753546,-2.0,-2.0,-4.0,-3.0,-4.0,-6.0,-1.0,-4.0
1701873265.0753546,0.0,-1.0,0.0,2.0,0.0,-3.0,0.0,0.0
1701873265.0753546,2.0,-1.0,-1.0,0.0,0.0,2.0,1.0,2.0
1701873265.0753546,1.0,0.0,0.0,-1.0,0.0,0.0,2.0,4.0
1701873265.0953183,-2.0,-1.0,1.0,6.0,0.0,-1.0,-1.0,0.0
1701873265.0953183,-2.0,0.0,-2.0,-2.0,-2.0,-1.0,-3.0,-3.0
1701873265.0953183,-3.0,-1.0,-3.0,-3.0,-3.0,-5.0,-5.0,-4.0
1701873265.0953183,-1.0,-1.0,-1.0,2.0,-1.0,-2.0,2.0,1.0
1701873265.114937,1.0,0.0,0.0,-1.0,-2.0,-1.0,1.0,1.0
1701873265.114937,-2.0,-1.0,0.0,1.0,-2.0,-6.0,-11.0,-6.0
1701873265.114937,1.0,-1.0,-2.0,-1.0,-2.0,0.0,2.0,3.0
1701873265.114937,0.0,0.0,-3.0,-3.0,0.0,0.0,0.0,0.0
1701873265.1353765,-2.0,-2.0,0.0,-3.0,2.0,3.0,3.0,5.0
1701873265.1353765,-3.0,-2.0,-2.0,-4.0,0.0,4.0,-1.0,-2.0
1701873265.1353765,-3.0,-3.0,-2.0,-7.0,-1.0,0.0,-1.0,0.0
1701873265.1353765,0.0,0.0,-2.0,-5.0,0.0,1.0,0.0,-2.0
1701873265.1649723,-1.0,0.0,0.0,-2.0,2.0,0.0,-4.0,0.0
1701873265.1649723,-3.0,-1.0,-2.0,-2.0,0.0,1.0,1.0,2.0
1701873265.1649723,-3.0,-1.0,-1.0,-3.0,-1.0,0.0,-5.0,-6.0
1701873265.1649723,-1.0,0.0,1.0,1.0,-2.0,-1.0,1.0,-1.0
1701873265.1749713,-1.0,-1.0,0.0,-2.0,2.0,0.0,0.0,1.0
1701873265.1749713,0.0,0.0,0.0,-2.0,1.0,2.0,1.0,3.0
1701873265.1749713,0.0,0.0,0.0,2.0,0.0,0.0,3.0,4.0
1701873265.1749713,-1.0,0.0,0.0,-1.0,-1.0,0.0,2.0,1.0
1701873265.1953976,-2.0,0.0,0.0,-2.0,-2.0,-2.0,-8.0,-8.0
1701873265.1953976,1.0,-2.0,-3.0,-9.0,-1.0,3.0,4.0,2.0
1701873265.1953976,-3.0,-4.0,-2.0,-2.0,-1.0,0.0,1.0,-4.0
1701873265.1953976,0.0,2.0,0.0,-4.0,-3.0,-4.0,-7.0,-5.0
1701873265.2153974,-1.0,0.0,1.0,5.0,1.0,2.0,6.0,0.0
1701873265.2153974,-1.0,-3.0,1.0,2.0,-1.0,-3.0,2.0,-2.0
1701873265.2153974,0.0,0.0,0.0,2.0,0.0,-3.0,-3.0,1.0
1701873265.2153974,-5.0,-6.0,-2.0,-2.0,0.0,0.0,0.0,1.0
1701873265.2350328,1.0,0.0,-3.0,-3.0,-3.0,-3.0,-1.0,2.0
1701873265.2350328,3.0,2.0,1.0,5.0,1.0,-1.0,1.0,1.0
1701873265.2350328,0.0,-4.0,-3.0,2.0,-2.0,-5.0,-12.0,-7.0
1701873265.2350328,8.0,-5.0,-5.0,2.0,-4.0,-7.0,-7.0,-6.0
1701873265.255469,1.0,3.0,-3.0,-2.0,-2.0,-7.0,-3.0,-3.0
1701873265.255469,2.0,14.0,4.0,6.0,-3.0,-5.0,4.0,3.0
1701873265.2654662,-4.0,-16.0,-5.0,1.0,-2.0,-4.0,-1.0,3.0
1701873265.2654662,-1.0,3.0,-1.0,1.0,-2.0,0.0,7.0,0.0
1701873265.2850327,-2.0,-11.0,-3.0,-5.0,-4.0,-3.0,-12.0,-2.0
1701873265.2850327,-2.0,1.0,1.0,-1.0,1.0,4.0,5.0,2.0
1701873265.2850327,0.0,3.0,-2.0,-8.0,-1.0,5.0,7.0,0.0
1701873265.2850327,-5.0,-3.0,-2.0,-7.0,-1.0,5.0,-4.0,1.0
1701873265.3050377,2.0,0.0,1.0,-2.0,0.0,10.0,12.0,5.0
1701873265.3050377,-15.0,-8.0,-1.0,-4.0,0.0,5.0,3.0,-8.0
1701873265.3151004,-2.0,3.0,0.0,-2.0,-1.0,-4.0,-8.0,-10.0
1701873265.3151004,-5.0,-3.0,-5.0,-2.0,-1.0,0.0,6.0,2.0
1701873265.3151004,-3.0,-2.0,-1.0,1.0,0.0,-1.0,0.0,3.0
1701873265.3151004,3.0,10.0,0.0,-3.0,1.0,1.0,-7.0,1.0
1701873265.3350377,3.0,5.0,2.0,1.0,2.0,1.0,-9.0,1.0
1701873265.3350377,1.0,1.0,3.0,1.0,-1.0,-2.0,-10.0,-2.0
1701873265.3350377,-1.0,-3.0,-5.0,-2.0,-1.0,-4.0,-7.0,-3.0
1701873265.3350377,1.0,-5.0,-2.0,6.0,-2.0,-4.0,-2.0,3.0
1701873265.3450658,-7.0,-7.0,2.0,-2.0,-1.0,-3.0,-4.0,-7.0
1701873265.3450658,1.0,7.0,-2.0,-6.0,-1.0,0.0,-1.0,2.0
1701873265.3654404,-1.0,-1.0,-1.0,0.0,-5.0,1.0,3.0,0.0
1701873265.3654404,-3.0,-7.0,-4.0,-3.0,1.0,-4.0,-7.0,-3.0
1701873265.3654404,2.0,11.0,4.0,1.0,-1.0,-1.0,8.0,3.0
1701873265.3654404,-3.0,-6.0,-2.0,5.0,1.0,-4.0,1.0,-1.0
1701873265.385034,0.0,3.0,-2.0,-1.0,-3.0,-4.0,-1.0,-6.0
1701873265.385034,1.0,-3.0,-6.0,-6.0,-2.0,3.0,5.0,2.0
1701873265.385034,0.0,-5.0,-2.0,3.0,-5.0,0.0,4.0,2.0
1701873265.385034,-5.0,0.0,4.0,-2.0,-1.0,0.0,-2.0,-4.0
1701873265.395071,-2.0,2.0,0.0,0.0,2.0,2.0,3.0,1.0
1701873265.395071,0.0,-3.0,-1.0,0.0,-3.0,-5.0,-9.0,-5.0
1701873265.4053154,0.0,2.0,1.0,0.0,0.0,-1.0,5.0,5.0
1701873265.4053154,1.0,-3.0,-4.0,-3.0,-2.0,-2.0,2.0,-3.0
1701873265.415346,0.0,-1.0,2.0,5.0,0.0,-4.0,-4.0,-6.0
1701873265.415346,1.0,-3.0,2.0,-2.0,-1.0,-2.0,2.0,0.0
1701873265.415346,0.0,-1.0,-7.0,-10.0,-2.0,-1.0,-1.0,5.0
1701873265.415346,-2.0,-2.0,-1.0,-1.0,-3.0,-2.0,-2.0,-3.0
1701873265.435103,1.0,5.0,1.0,4.0,0.0,-2.0,-1.0,1.0
1701873265.435103,-5.0,-15.0,-1.0,7.0,0.0,-3.0,-5.0,-5.0
1701873265.4450357,0.0,2.0,-5.0,-16.0,-4.0,-3.0,-1.0,0.0
1701873265.4450357,2.0,4.0,1.0,-2.0,-1.0,0.0,-2.0,2.0
1701873265.455033,-3.0,-5.0,0.0,0.0,1.0,1.0,-3.0,-4.0
1701873265.455033,0.0,2.0,-3.0,-3.0,-6.0,-4.0,-2.0,-1.0
1701873265.465141,0.0,0.0,1.0,7.0,2.0,2.0,3.0,1.0
1701873265.465141,0.0,-2.0,0.0,3.0,1.0,0.0,0.0,2.0
1701873265.4753408,-2.0,-1.0,-3.0,-6.0,-4.0,-2.0,-3.0,-4.0
1701873265.4753408,1.0,0.0,1.0,-1.0,-1.0,1.0,1.0,4.0
1701873265.4753408,-1.0,-4.0,-2.0,0.0,-4.0,-3.0,-8.0,-4.0
1701873265.4753408,-1.0,3.0,1.0,-1.0,-1.0,1.0,1.0,1.0
1701873265.5044618,0.0,-6.0,-1.0,0.0,0.0,2.0,4.0,5.0
1701873265.5051816,-1.0,-1.0,-4.0,-2.0,0.0,0.0,-2.0,-4.0
1701873265.5061986,0.0,0.0,0.0,-1.0,0.0,1.0,0.0,-1.0
1701873265.5061986,-1.0,-2.0,0.0,1.0,-1.0,-1.0,0.0,-3.0
1701873265.5193942,-1.0,1.0,-1.0,-1.0,0.0,-3.0,-1.0,-1.0
1701873265.5193942,-2.0,-2.0,-3.0,-4.0,-3.0,-3.0,0.0,-2.0
1701873265.5270615,2.0,-1.0,1.0,2.0,1.0,-1.0,1.0,0.0
1701873265.5270615,0.0,-2.0,-2.0,-1.0,0.0,-1.0,-1.0,-1.0
1701873265.5380065,-2.0,-2.0,-2.0,-5.0,-2.0,-3.0,-2.0,1.0
1701873265.5380065,1.0,1.0,1.0,-4.0,-1.0,0.0,5.0,3.0
1701873265.5380065,-5.0,0.0,0.0,2.0,-1.0,-4.0,-16.0,-11.0
1701873265.5380065,-1.0,0.0,-1.0,-1.0,0.0,-1.0,1.0,-2.0
1701873265.558055,-1.0,-3.0,-1.0,-3.0,-3.0,-2.0,0.0,0.0
1701873265.558055,2.0,0.0,-3.0,-2.0,1.0,-1.0,1.0,2.0
1701873265.558055,-2.0,-1.0,-4.0,-1.0,-1.0,0.0,4.0,4.0
1701873265.558055,-3.0,-1.0,-3.0,-2.0,0.0,2.0,-3.0,-1.0
1701873265.5781143,-2.0,0.0,0.0,0.0,1.0,-4.0,-10.0,-5.0
1701873265.5781143,0.0,0.0,2.0,0.0,-2.0,0.0,-1.0,-2.0
1701873265.5781143,-1.0,-2.0,-1.0,3.0,-1.0,0.0,3.0,-1.0
1701873265.5781143,-2.0,-2.0,-5.0,-10.0,-3.0,-3.0,-4.0,-2.0
1701873265.5981555,-1.0,1.0,0.0,1.0,-1.0,0.0,1.0,0.0
1701873265.5981555,-5.0,-1.0,-3.0,-5.0,-2.0,-2.0,-14.0,-7.0
1701873265.5981555,0.0,-2.0,0.0,1.0,-1.0,4.0,-2.0,0.0
1701873265.5981555,0.0,-2.0,0.0,2.0,0.0,1.0,-3.0,4.0
1701873265.6179366,0.0,-1.0,-1.0,-1.0,-2.0,2.0,-6.0,-2.0
1701873265.6179366,0.0,-3.0,0.0,0.0,-2.0,1.0,-7.0,-2.0
1701873265.6179366,0.0,-1.0,-1.0,-1.0,0.0,-1.0,-4.0,-1.0
1701873265.6179366,-4.0,-3.0,-2.0,-2.0,0.0,-3.0,-1.0,-5.0
1701873265.637862,-2.0,-2.0,0.0,-3.0,-2.0,-1.0,6.0,0.0
1701873265.637862,-1.0,1.0,0.0,0.0,-2.0,0.0,9.0,-1.0
1701873265.637862,-1.0,-1.0,-1.0,-4.0,1.0,2.0,13.0,1.0
1701873265.637862,1.0,-1.0,-1.0,-5.0,-2.0,0.0,10.0,1.0
1701873265.6581876,-1.0,0.0,2.0,-2.0,0.0,2.0,6.0,0.0
1701873265.6581876,-2.0,-3.0,-2.0,-4.0,-1.0,-4.0,-2.0,-6.0
1701873265.6581876,0.0,0.0,-1.0,-3.0,-1.0,-3.0,0.0,2.0
1701873265.6581876,0.0,0.0,0.0,1.0,-1.0,-3.0,-5.0,-3.0
1701873265.6779368,0.0,1.0,-2.0,0.0,0.0,-4.0,-2.0,-2.0
1701873265.6779368,-1.0,0.0,1.0,4.0,-1.0,-4.0,-9.0,-1.0
1701873265.6880147,0.0,0.0,2.0,11.0,1.0,-3.0,-5.0,0.0
1701873265.6880147,-2.0,-4.0,-7.0,-9.0,-7.0,-7.0,-10.0,-6.0
1701873265.6979735,0.0,-2.0,-3.0,-4.0,-4.0,-4.0,-1.0,2.0
1701873265.6979735,-1.0,1.0,0.0,0.0,0.0,-1.0,-2.0,-1.0
1701873265.6979735,0.0,1.0,-2.0,-3.0,-2.0,-2.0,0.0,-2.0
1701873265.7078362,-2.0,1.0,1.0,5.0,-2.0,-1.0,-1.0,-5.0
1701873265.7178364,-1.0,-3.0,-2.0,0.0,0.0,-1.0,-6.0,2.0
1701873265.7178364,-1.0,0.0,-2.0,0.0,-2.0,-1.0,-1.0,-3.0
1701873265.7178364,-1.0,-1.0,1.0,1.0,0.0,-1.0,3.0,1.0
1701873265.7178364,-1.0,-3.0,0.0,0.0,0.0,-1.0,-3.0,2.0
1701873265.737845,-1.0,2.0,0.0,-4.0,-1.0,0.0,2.0,-1.0
1701873265.737845,1.0,-3.0,-3.0,-2.0,0.0,-1.0,1.0,-1.0
1701873265.737845,0.0,0.0,0.0,-2.0,-1.0,-1.0,1.0,-1.0
1701873265.737845,0.0,1.0,0.0,1.0,1.0,0.0,-2.0,0.0
1701873265.7580378,-2.0,-3.0,-3.0,-2.0,-2.0,0.0,-2.0,-3.0
1701873265.7580378,-1.0,-1.0,0.0,-2.0,0.0,-2.0,0.0,2.0
1701873265.7580378,-2.0,-3.0,-6.0,-5.0,0.0,-1.0,-3.0,-3.0
1701873265.7580378,-2.0,-4.0,-1.0,-4.0,-3.0,-1.0,-3.0,-2.0
1701873265.7778332,0.0,2.0,2.0,2.0,0.0,0.0,1.0,1.0
1701873265.7778332,-3.0,2.0,0.0,-1.0,-3.0,1.0,0.0,0.0
1701873265.7778332,-1.0,0.0,2.0,-3.0,-1.0,0.0,-1.0,-2.0
1701873265.7778332,1.0,0.0,-1.0,3.0,1.0,-3.0,-2.0,1.0
1701873265.7986512,-4.0,-10.0,-3.0,-1.0,0.0,-1.0,-1.0,-2.0
1701873265.7986512,-1.0,-1.0,-2.0,-2.0,-1.0,-3.0,-3.0,-2.0
1701873265.7986512,-2.0,1.0,-1.0,1.0,0.0,0.0,-5.0,-7.0
1701873265.7986512,1.0,8.0,2.0,2.0,-1.0,0.0,5.0,3.0
1701873265.8089635,-3.0,-6.0,-3.0,-4.0,-1.0,-2.0,1.0,2.0
1701873265.818668,-2.0,-4.0,-2.0,1.0,-1.0,-4.0,-5.0,-9.0
1701873265.818668,-1.0,0.0,1.0,-1.0,-1.0,-2.0,-1.0,-1.0
1701873265.818668,-3.0,0.0,-2.0,-3.0,0.0,-1.0,2.0,-1.0
1701873265.8386643,0.0,2.0,-1.0,3.0,-3.0,0.0,-2.0,-2.0
1701873265.8386643,1.0,-1.0,-2.0,-1.0,0.0,-1.0,2.0,4.0
1701873265.8386643,-2.0,-1.0,0.0,1.0,-2.0,-2.0,-3.0,-5.0
1701873265.8386643,-2.0,-4.0,-1.0,1.0,-1.0,0.0,-2.0,-2.0
1701873265.858709,-1.0,1.0,-3.0,-9.0,0.0,0.0,1.0,-1.0
1701873265.858709,0.0,-1.0,-1.0,-4.0,-1.0,2.0,0.0,1.0
1701873265.858709,1.0,-2.0,0.0,1.0,-1.0,1.0,2.0,4.0
1701873265.858709,-2.0,-2.0,-2.0,0.0,-1.0,0.0,-3.0,-2.0
1701873265.8786657,-2.0,-1.0,-4.0,-1.0,0.0,0.0,-4.0,-4.0
1701873265.8786657,-1.0,0.0,0.0,-1.0,-1.0,0.0,2.0,-1.0
1701873265.8786657,-1.0,-2.0,-1.0,0.0,-1.0,0.0,0.0,1.0
1701873265.8786657,-2.0,-3.0,-1.0,-10.0,-3.0,1.0,4.0,5.0
1701873265.9086637,0.0,1.0,1.0,0.0,-2.0,0.0,-1.0,-4.0
1701873265.9086637,0.0,-1.0,1.0,2.0,2.0,0.0,-2.0,-1.0
1701873265.9086637,0.0,3.0,-1.0,0.0,-1.0,-1.0,4.0,0.0
1701873265.9086637,-2.0,-12.0,-8.0,-12.0,-2.0,-2.0,-2.0,-3.0
1701873265.918964,-3.0,-3.0,-2.0,-1.0,-1.0,-2.0,-2.0,-3.0
1701873265.918964,-2.0,2.0,3.0,1.0,1.0,0.0,0.0,1.0
1701873265.918964,-3.0,-2.0,-3.0,-2.0,-4.0,-7.0,-16.0,-6.0
1701873265.918964,1.0,-1.0,-2.0,3.0,1.0,1.0,2.0,0.0
1701873265.938661,1.0,2.0,0.0,-4.0,4.0,-3.0,-1.0,-1.0
1701873265.938661,0.0,-2.0,-1.0,3.0,-4.0,0.0,0.0,0.0
1701873265.938661,1.0,2.0,0.0,-3.0,2.0,1.0,1.0,2.0
1701873265.938661,0.0,4.0,1.0,0.0,-4.0,0.0,-2.0,-2.0
1701873265.9588747,-1.0,-7.0,-2.0,1.0,-1.0,-1.0,-1.0,-1.0
1701873265.9588747,0.0,3.0,1.0,4.0,2.0,0.0,0.0,-2.0
1701873265.9588747,-2.0,-2.0,-4.0,-4.0,-4.0,-2.0,-1.0,-2.0
1701873265.9588747,-2.0,3.0,1.0,0.0,-1.0,-2.0,-2.0,-2.0
1701873265.9789243,-1.0,1.0,-4.0,-8.0,-5.0,1.0,1.0,-1.0
1701873265.9789243,-4.0,-5.0,-2.0,-2.0,-2.0,-4.0,-3.0,-3.0
1701873265.9789243,2.0,-1.0,-1.0,-5.0,-2.0,-1.0,1.0,0.0
1701873265.9789243,0.0,-2.0,1.0,6.0,2.0,-2.0,0.0,-1.0
1701873266.0222278,-2.0,1.0,2.0,8.0,-2.0,-5.0,-13.0,-5.0
1701873266.0222278,-1.0,-1.0,-2.0,-3.0,-4.0,-1.0,3.0,1.0
1701873266.0222278,-1.0,0.0,-2.0,3.0,0.0,-1.0,-5.0,-4.0
1701873266.0222278,1.0,4.0,4.0,6.0,1.0,-3.0,-1.0,0.0
1701873266.0222278,-1.0,0.0,-4.0,-8.0,-6.0,-4.0,0.0,-1.0
1701873266.0222278,-1.0,-14.0,-7.0,-9.0,-2.0,-2.0,0.0,2.0
1701873266.023172,-2.0,-4.0,-2.0,5.0,0.0,-2.0,5.0,-1.0
1701873266.023172,-2.0,-3.0,-2.0,1.0,1.0,-3.0,-7.0,-3.0
1701873266.0441167,1.0,5.0,2.0,9.0,0.0,1.0,1.0,0.0
1701873266.0441167,1.0,-2.0,-5.0,-12.0,-3.0,-1.0,-2.0,0.0
1701873266.0441167,-1.0,-2.0,-2.0,-5.0,-1.0,1.0,5.0,4.0
1701873266.0441167,-3.0,-4.0,1.0,-2.0,-1.0,2.0,-5.0,-6.0
1701873266.0641456,-3.0,2.0,2.0,4.0,0.0,-1.0,1.0,-1.0
1701873266.0641456,-2.0,1.0,0.0,-1.0,-1.0,3.0,2.0,0.0
1701873266.0641456,-1.0,-1.0,-3.0,-4.0,-2.0,-1.0,-3.0,-1.0
1701873266.0641456,-1.0,-1.0,-2.0,2.0,0.0,-1.0,-1.0,1.0
1701873266.0744514,2.0,6.0,2.0,5.0,3.0,0.0,-1.0,0.0
1701873266.0744514,-2.0,-8.0,-6.0,-13.0,-2.0,-1.0,0.0,-2.0
1701873266.0744514,-1.0,-1.0,0.0,-2.0,0.0,0.0,-1.0,-1.0
1701873266.0744514,-2.0,3.0,2.0,1.0,-1.0,-2.0,0.0,-3.0
1701873266.1045399,-1.0,-2.0,0.0,2.0,1.0,0.0,3.0,2.0
1701873266.1045399,0.0,6.0,0.0,6.0,-1.0,-1.0,-6.0,-3.0
1701873266.1045399,-1.0,-4.0,-1.0,-5.0,-3.0,0.0,-5.0,-3.0
1701873266.1045399,1.0,-4.0,-5.0,-5.0,0.0,0.0,0.0,0.0
1701873266.1147099,0.0,-1.0,0.0,0.0,0.0,1.0,2.0,0.0
1701873266.1147099,0.0,2.0,1.0,6.0,2.0,0.0,-1.0,-4.0
1701873266.1344726,-2.0,-2.0,-2.0,-4.0,-2.0,1.0,0.0,-1.0
1701873266.1344726,-1.0,0.0,-2.0,-6.0,-2.0,0.0,2.0,0.0
1701873266.1544676,-1.0,-6.0,-4.0,-2.0,-3.0,-1.0,-5.0,-2.0
1701873266.1544676,-2.0,5.0,2.0,0.0,0.0,-3.0,0.0,1.0
1701873266.1544676,-1.0,-5.0,-3.0,2.0,0.0,-3.0,1.0,-1.0
1701873266.1544676,0.0,1.0,-1.0,-3.0,0.0,2.0,4.0,-1.0
1701873266.164467,-1.0,0.0,-1.0,-4.0,0.0,-1.0,0.0,-1.0
1701873266.164467,0.0,1.0,0.0,1.0,-1.0,-2.0,-2.0,-1.0
1701873266.164467,-3.0,3.0,0.0,5.0,0.0,-3.0,-2.0,0.0
1701873266.164467,1.0,-2.0,0.0,-1.0,-1.0,-1.0,-2.0,1.0
1701873266.174826,-1.0,-2.0,-2.0,-9.0,-3.0,-2.0,1.0,0.0
1701873266.174826,-1.0,-3.0,-2.0,4.0,0.0,-1.0,-2.0,-1.0
1701873266.1848252,-1.0,-1.0,0.0,-1.0,0.0,-2.0,-3.0,-3.0
1701873266.1848252,1.0,4.0,3.0,7.0,-1.0,-3.0,-2.0,1.0
1701873266.1948445,-2.0,-5.0,-3.0,-5.0,0.0,-2.0,0.0,-1.0
1701873266.1948445,-1.0,1.0,-2.0,-3.0,-2.0,-1.0,-1.0,-2.0
1701873266.2047992,-1.0,-3.0,0.0,-4.0,-1.0,-1.0,-1.0,-2.0
1701873266.2047992,0.0,3.0,1.0,2.0,0.0,-1.0,-3.0,-2.0
1701873266.2244766,-1.0,1.0,2.0,0.0,-2.0,0.0,0.0,-2.0
1701873266.2244766,-1.0,-3.0,-3.0,-3.0,-1.0,0.0,2.0,-1.0
1701873266.2244766,-1.0,-1.0,-3.0,-2.0,2.0,0.0,3.0,2.0
1701873266.2244766,-2.0,-5.0,-1.0,-4.0,-1.0,-1.0,-4.0,-4.0
1701873266.2345166,0.0,0.0,-1.0,2.0,-1.0,-1.0,0.0,1.0
1701873266.2345166,-2.0,0.0,-1.0,-2.0,2.0,-1.0,-3.0,-3.0
1701873266.244715,-2.0,1.0,0.0,0.0,-3.0,-1.0,-2.0,-1.0
1701873266.244715,-1.0,-3.0,-3.0,-6.0,-2.0,-1.0,2.0,-1.0
1701873266.2547345,-1.0,-2.0,-1.0,1.0,-1.0,-2.0,-3.0,-2.0
1701873266.2547345,0.0,1.0,1.0,3.0,0.0,-1.0,0.0,-1.0
1701873266.2547345,-1.0,0.0,-1.0,0.0,-3.0,-2.0,-8.0,-3.0
1701873266.2547345,0.0,-2.0,0.0,2.0,-1.0,-2.0,-1.0,1.0
1701873266.2944672,-1.0,0.0,-1.0,-4.0,-2.0,-1.0,-1.0,1.0
1701873266.2944672,2.0,0.0,0.0,2.0,0.0,-2.0,0.0,1.0
1701873266.2944672,0.0,0.0,-1.0,-2.0,-1.0,-2.0,4.0,0.0
1701873266.2944672,-1.0,-2.0,-1.0,-2.0,-3.0,1.0,0.0,-3.0
1701873266.2944672,-1.0,-1.0,0.0,2.0,1.0,-1.0,-2.0,0.0
1701873266.2944672,-1.0,-1.0,0.0,-1.0,-1.0,-1.0,1.0,0.0
1701873266.3048296,0.0,-3.0,-2.0,-1.0,-2.0,0.0,1.0,0.0
1701873266.3048296,0.0,-1.0,-2.0,-1.0,-3.0,-1.0,-2.0,-1.0
1701873266.3147109,-2.0,-1.0,-1.0,0.0,0.0,-3.0,-4.0,-2.0
1701873266.3147109,-3.0,1.0,0.0,-2.0,-1.0,-2.0,-2.0,-2.0
1701873266.334502,0.0,-1.0,2.0,9.0,-1.0,1.0,4.0,1.0
1701873266.334502,-4.0,-1.0,1.0,-2.0,0.0,-4.0,-18.0,-9.0
1701873266.3445382,-1.0,-4.0,-11.0,-22.0,-7.0,1.0,2.0,-1.0
1701873266.3445382,0.0,-1.0,0.0,-2.0,0.0,1.0,0.0,1.0
1701873266.3445382,-3.0,-1.0,-1.0,-5.0,0.0,1.0,-3.0,-1.0
1701873266.3445382,1.0,-2.0,0.0,3.0,0.0,3.0,4.0,4.0
1701873266.3647635,-2.0,-1.0,1.0,7.0,0.0,1.0,-1.0,-3.0
1701873266.3647635,-2.0,-4.0,-2.0,-3.0,-3.0,-3.0,-8.0,-2.0
1701873266.3647635,-1.0,-1.0,-2.0,-3.0,-2.0,-1.0,0.0,0.0
1701873266.3647635,-2.0,0.0,-1.0,-1.0,-1.0,1.0,4.0,2.0
1701873266.3747065,0.0,0.0,1.0,2.0,0.0,-2.0,-3.0,0.0
1701873266.3747065,0.0,0.0,-1.0,-1.0,-2.0,0.0,3.0,3.0
1701873266.4044695,-2.0,-1.0,-3.0,-3.0,0.0,-2.0,-6.0,-9.0
1701873266.4044695,-2.0,0.0,-3.0,-2.0,-1.0,-2.0,-2.0,-4.0
1701873266.4044695,0.0,-1.0,0.0,1.0,1.0,-3.0,4.0,3.0
1701873266.4044695,0.0,-1.0,1.0,2.0,-2.0,-1.0,-3.0,-2.0
1701873266.4044695,-1.0,-1.0,0.0,-3.0,0.0,0.0,0.0,2.0
1701873266.4044695,-1.0,-1.0,-1.0,-5.0,-1.0,-1.0,2.0,1.0
1701873266.4344687,-2.0,-1.0,0.0,0.0,1.0,2.0,3.0,0.0
1701873266.4344687,-2.0,-1.0,-3.0,-2.0,1.0,0.0,-11.0,-3.0
1701873266.4344687,0.0,-3.0,-2.0,-5.0,-1.0,0.0,0.0,1.0
1701873266.4344687,0.0,-2.0,-2.0,-2.0,1.0,0.0,2.0,2.0
1701873266.4344687,-2.0,-1.0,0.0,2.0,-3.0,-2.0,-3.0,-1.0
1701873266.4344687,-1.0,0.0,0.0,-2.0,0.0,-3.0,0.0,0.0
1701873266.4448035,1.0,0.0,-2.0,0.0,-1.0,-2.0,1.0,2.0
1701873266.4448035,-2.0,-1.0,-2.0,2.0,-3.0,-6.0,-10.0,-5.0
1701873266.464531,2.0,1.0,1.0,3.0,0.0,-1.0,2.0,4.0
1701873266.464531,-3.0,-1.0,-2.0,0.0,-4.0,-5.0,-9.0,-8.0
1701873266.464531,1.0,1.0,-1.0,0.0,-1.0,0.0,4.0,-2.0
1701873266.464531,-1.0,0.0,-1.0,-2.0,-2.0,0.0,8.0,0.0
1701873266.4845006,0.0,-1.0,-2.0,-1.0,1.0,1.0,6.0,4.0
1701873266.4845006,0.0,-1.0,-2.0,-1.0,-2.0,1.0,0.0,-3.0
1701873266.4845006,-1.0,-2.0,-1.0,-2.0,2.0,-1.0,-9.0,-5.0
1701873266.4845006,-1.0,-2.0,-2.0,-3.0,0.0,1.0,4.0,3.0
1701873266.4947126,-2.0,0.0,0.0,-1.0,-1.0,0.0,0.0,-2.0
1701873266.4947126,-2.0,-1.0,-1.0,0.0,-2.0,-4.0,-4.0,-2.0
1701873266.5244687,0.0,-1.0,2.0,1.0,-1.0,3.0,3.0,4.0
1701873266.5244687,0.0,0.0,-4.0,-7.0,-1.0,1.0,-6.0,-2.0
1701873266.5244687,0.0,-1.0,-1.0,-5.0,-2.0,2.0,0.0,2.0
1701873266.5244687,-1.0,-1.0,-2.0,-3.0,-3.0,0.0,4.0,4.0
1701873266.5244687,-5.0,-1.0,1.0,-1.0,-1.0,-1.0,-12.0,-7.0
1701873266.5244687,-3.0,-1.0,2.0,2.0,0.0,-1.0,0.0,-3.0
1701873266.5445173,2.0,0.0,2.0,3.0,2.0,1.0,-1.0,-1.0
1701873266.5445173,0.0,4.0,-3.0,-7.0,-2.0,-3.0,-4.0,-5.0
1701873266.5445173,-6.0,-14.0,-7.0,-1.0,-1.0,-5.0,-4.0,-6.0
1701873266.5445173,0.0,8.0,6.0,0.0,-1.0,0.0,4.0,3.0
1701873266.570088,-4.0,-7.0,1.0,1.0,-1.0,-4.0,-9.0,-8.0
1701873266.570088,3.0,11.0,-1.0,1.0,-1.0,0.0,3.0,6.0
1701873266.570088,-2.0,-11.0,-3.0,-5.0,-4.0,-4.0,-9.0,-2.0
1701873266.570088,1.0,-3.0,-4.0,0.0,-2.0,-1.0,2.0,2.0
1701873266.576737,-3.0,1.0,-1.0,1.0,1.0,0.0,0.0,-1.0
1701873266.576737,-2.0,-7.0,-1.0,2.0,-5.0,-3.0,-1.0,1.0
1701873266.576737,1.0,6.0,0.0,0.0,0.0,1.0,6.0,1.0
1701873266.576737,1.0,-3.0,-2.0,0.0,0.0,2.0,3.0,5.0
1701873266.616738,-1.0,6.0,0.0,-1.0,-2.0,-3.0,-12.0,-8.0
1701873266.616738,1.0,1.0,1.0,2.0,-1.0,-1.0,-2.0,1.0
1701873266.616738,-3.0,-5.0,-5.0,1.0,1.0,1.0,3.0,2.0
1701873266.616738,-2.0,-1.0,1.0,1.0,-2.0,-2.0,-4.0,-4.0
1701873266.616738,1.0,0.0,-6.0,-5.0,-6.0,-2.0,2.0,4.0
1701873266.616738,1.0,4.0,5.0,5.0,2.0,1.0,5.0,2.0
1701873266.6270628,2.0,8.0,2.0,9.0,-1.0,-1.0,1.0,-3.0
1701873266.6270628,0.0,4.0,4.0,-3.0,-1.0,0.0,0.0,0.0
1701873266.6371028,-2.0,-14.0,-8.0,-3.0,0.0,-3.0,-4.0,-2.0
1701873266.6371028,-3.0,-9.0,-15.0,-21.0,-4.0,0.0,4.0,-1.0
1701873266.6371028,0.0,-3.0,-2.0,-5.0,-1.0,-1.0,5.0,5.0
1701873266.6371028,-3.0,4.0,1.0,4.0,1.0,-1.0,-1.0,0.0
1701873266.6667402,1.0,10.0,3.0,3.0,1.0,1.0,-6.0,-8.0
1701873266.6667402,-4.0,-22.0,-1.0,9.0,1.0,3.0,3.0,-2.0
1701873266.6770117,1.0,-1.0,-3.0,-5.0,-1.0,-3.0,-7.0,-1.0
1701873266.6770117,-2.0,-2.0,1.0,0.0,-2.0,-2.0,-5.0,-5.0
1701873266.6770117,-3.0,3.0,-1.0,-10.0,-3.0,-5.0,-4.0,-5.0
1701873266.6770117,-1.0,3.0,-1.0,1.0,-3.0,-2.0,1.0,-1.0
1701873266.6869352,0.0,-2.0,-1.0,0.0,-1.0,1.0,9.0,6.0
1701873266.6869352,3.0,5.0,0.0,3.0,-6.0,-5.0,-3.0,-2.0
1701873266.696738,-1.0,-7.0,-1.0,6.0,2.0,3.0,2.0,2.0
1701873266.696738,1.0,9.0,-1.0,-3.0,3.0,2.0,0.0,2.0
1701873266.696738,0.0,7.0,6.0,1.0,0.0,-3.0,2.0,3.0
1701873266.696738,-3.0,-26.0,-9.0,0.0,-4.0,-3.0,1.0,4.0
1701873266.7267394,1.0,11.0,-1.0,-8.0,-2.0,1.0,3.0,0.0
1701873266.7267394,-1.0,17.0,8.0,1.0,-3.0,-1.0,0.0,0.0
1701873266.736738,-7.0,-23.0,-9.0,2.0,1.0,-3.0,-15.0,-9.0
1701873266.736738,-5.0,-5.0,-5.0,-5.0,-5.0,1.0,7.0,-1.0
1701873266.736738,-6.0,-17.0,-12.0,-15.0,-6.0,-10.0,-21.0,-9.0
1701873266.736738,0.0,-5.0,3.0,7.0,5.0,3.0,1.0,-5.0
1701873266.746949,4.0,13.0,6.0,-1.0,1.0,0.0,5.0,2.0
1701873266.746949,1.0,1.0,1.0,7.0,4.0,0.0,0.0,0.0
1701873266.7567446,-3.0,-10.0,-4.0,-3.0,-4.0,-1.0,5.0,1.0
1701873266.7567446,-1.0,-1.0,-4.0,-7.0,-6.0,-3.0,-4.0,-2.0
1701873266.7667432,-2.0,-2.0,-1.0,0.0,0.0,-1.0,0.0,-1.0
1701873266.7667432,3.0,1.0,1.0,0.0,4.0,4.0,3.0,4.0
1701873266.796738,0.0,10.0,-2.0,6.0,-1.0,-2.0,-2.0,-2.0
1701873266.796738,-3.0,-15.0,0.0,3.0,1.0,-3.0,2.0,1.0
1701873266.796738,4.0,25.0,10.0,1.0,1.0,2.0,2.0,-3.0
1701873266.796738,-5.0,-33.0,-24.0,-27.0,-10.0,-3.0,-7.0,-3.0
1701873266.796738,-8.0,-4.0,-4.0,-1.0,0.0,-1.0,0.0,-3.0
1701873266.796738,-10.0,-17.0,-8.0,-5.0,-2.0,-4.0,-4.0,-5.0
1701873266.8070686,1.0,6.0,5.0,3.0,-2.0,-3.0,3.0,5.0
1701873266.8070686,1.0,13.0,6.0,5.0,5.0,-1.0,-3.0,-6.0
1701873266.8170955,3.0,21.0,3.0,6.0,-1.0,-2.0,-2.0,-5.0
1701873266.8170955,-7.0,-44.0,-9.0,-1.0,-3.0,-2.0,0.0,1.0
1701873266.827056,3.0,25.0,6.0,-8.0,-3.0,-1.0,-3.0,-3.0
1701873266.827056,-1.0,-7.0,-3.0,3.0,3.0,0.0,-1.0,-1.0
1701873266.8467367,4.0,-5.0,2.0,6.0,2.0,3.0,3.0,4.0
1701873266.8467367,3.0,13.0,2.0,-1.0,2.0,-2.0,0.0,-1.0
1701873266.8467367,2.0,1.0,2.0,4.0,-1.0,2.0,0.0,2.0
1701873266.8467367,-3.0,7.0,-6.0,-11.0,-7.0,-5.0,-5.0,-6.0
1701873266.8570485,-6.0,-7.0,-5.0,-7.0,-2.0,-1.0,4.0,0.0
1701873266.8570485,5.0,18.0,7.0,3.0,1.0,-1.0,0.0,-1.0
1701873266.8671057,0.0,-18.0,-12.0,-7.0,-3.0,-1.0,-1.0,2.0
1701873266.8671057,-2.0,15.0,4.0,6.0,-1.0,-4.0,-9.0,-15.0
1701873266.8771152,-1.0,-5.0,5.0,3.0,2.0,0.0,3.0,4.0
1701873266.8771152,0.0,4.0,-3.0,-2.0,-2.0,-1.0,-6.0,-5.0
1701873266.8771152,-2.0,-4.0,-1.0,-2.0,-4.0,-1.0,0.0,0.0
1701873266.8771152,-4.0,-6.0,-3.0,-2.0,1.0,1.0,-1.0,-1.0
1701873266.9067366,2.0,4.0,2.0,-1.0,-2.0,-1.0,-5.0,-4.0
1701873266.9067366,2.0,-3.0,-2.0,1.0,0.0,-1.0,-1.0,1.0
1701873266.9067366,-4.0,-5.0,-10.0,-2.0,0.0,0.0,-2.0,-4.0
1701873266.9067366,-2.0,-5.0,3.0,-4.0,-1.0,-1.0,0.0,1.0
1701873266.9171011,0.0,-9.0,0.0,-1.0,0.0,0.0,1.0,-2.0
1701873266.9171011,1.0,10.0,1.0,-1.0,1.0,2.0,6.0,6.0
1701873266.9270415,-4.0,-7.0,-5.0,-3.0,-1.0,-1.0,2.0,-4.0
1701873266.9270415,0.0,0.0,-2.0,-1.0,1.0,-1.0,-1.0,0.0
1701873266.9371,1.0,-1.0,2.0,2.0,0.0,0.0,9.0,8.0
1701873266.9371,0.0,1.0,3.0,7.0,-2.0,2.0,-6.0,-5.0
1701873266.9371,-2.0,-6.0,-8.0,-6.0,-2.0,-3.0,-2.0,-5.0
1701873266.9371,3.0,4.0,0.0,-14.0,-4.0,0.0,2.0,7.0
1701873266.9667408,-2.0,-3.0,1.0,1.0,0.0,0.0,-3.0,1.0
1701873266.9667408,-3.0,4.0,0.0,-4.0,-2.0,-2.0,1.0,-2.0
1701873266.9667408,-2.0,-6.0,1.0,4.0,-3.0,-2.0,-3.0,-4.0
1701873266.9667408,2.0,3.0,3.0,8.0,0.0,0.0,2.0,3.0
1701873266.9767728,0.0,0.0,1.0,-1.0,-2.0,-2.0,1.0,0.0
1701873266.9767728,-2.0,-1.0,-1.0,0.0,-1.0,-1.0,-2.0,-3.0
1701873266.9870744,-2.0,-3.0,-1.0,-2.0,-1.0,-2.0,-2.0,-2.0
1701873266.9870744,-2.0,-3.0,-2.0,-1.0,-1.0,0.0,-2.0,0.0
1701873266.9967406,-1.0,-2.0,0.0,0.0,-2.0,-1.0,-4.0,-2.0
1701873266.9967406,-2.0,0.0,-2.0,-1.0,-1.0,-3.0,-4.0,-6.0
1701873266.9967406,-3.0,-1.0,-2.0,-3.0,-1.0,-3.0,-4.0,-2.0
1701873266.9967406,-1.0,2.0,1.0,2.0,0.0,-2.0,2.0,0.0
1701873267.0268111,0.0,-4.0,-5.0,-1.0,0.0,-2.0,3.0,6.0
1701873267.0268111,1.0,2.0,0.0,-3.0,-2.0,0.0,3.0,0.0
1701873267.0268111,-2.0,-4.0,-2.0,-4.0,-2.0,0.0,-1.0,-4.0
1701873267.0268111,1.0,1.0,1.0,2.0,1.0,3.0,4.0,5.0
1701873267.0369916,-3.0,0.0,-1.0,-2.0,-1.0,0.0,-7.0,-8.0
1701873267.0369916,-2.0,-1.0,-1.0,-5.0,0.0,1.0,4.0,3.0
1701873267.0871196,-1.0,-2.0,-2.0,-2.0,-1.0,-1.0,-2.0,0.0
1701873267.0871196,-1.0,-1.0,1.0,-1.0,-1.0,1.0,1.0,3.0
1701873267.0871196,0.0,-2.0,-1.0,-2.0,1.0,-1.0,-4.0,0.0
1701873267.0881195,-1.0,-2.0,0.0,-3.0,-1.0,-1.0,-7.0,-8.0
1701873267.0881195,-2.0,0.0,1.0,1.0,1.0,-1.0,1.0,-2.0
1701873267.0881195,-1.0,-1.0,-1.0,0.0,-1.0,-3.0,-4.0,-6.0
1701873267.0881195,-2.0,0.0,3.0,6.0,-2.0,-2.0,2.0,1.0
1701873267.0881195,2.0,1.0,-2.0,-2.0,-1.0,2.0,8.0,10.0
1701873267.0881195,-2.0,-4.0,-6.0,-8.0,-4.0,-6.0,-21.0,-10.0
1701873267.0881195,-1.0,-1.0,0.0,1.0,0.0,-3.0,-5.0,-7.0
1701873267.1010547,-1.0,-2.0,-3.0,-6.0,0.0,-2.0,0.0,-2.0
1701873267.1010547,-1.0,0.0,1.0,8.0,2.0,-3.0,-3.0,-2.0
1701873267.1095083,-1.0,-2.0,0.0,1.0,-1.0,-1.0,-2.0,-1.0
1701873267.1095083,0.0,1.0,-1.0,-7.0,-3.0,-1.0,-2.0,-2.0
1701873267.1295357,1.0,0.0,1.0,-7.0,-2.0,3.0,-1.0,1.0
1701873267.1295357,-2.0,-3.0,-2.0,-4.0,-2.0,-1.0,1.0,2.0
1701873267.1295357,1.0,2.0,1.0,4.0,-1.0,0.0,5.0,1.0
1701873267.1295357,-1.0,-1.0,1.0,7.0,3.0,-1.0,2.0,1.0
1701873267.1398795,-2.0,0.0,-2.0,-1.0,0.0,-3.0,0.0,-3.0
1701873267.1398795,-1.0,0.0,-2.0,0.0,-1.0,0.0,-3.0,-4.0
1701873267.1398795,0.0,1.0,2.0,-3.0,-3.0,0.0,-2.0,2.0
1701873267.1398795,0.0,2.0,1.0,1.0,-4.0,-4.0,-2.0,-2.0
1701873267.1600375,4.0,-2.0,-3.0,0.0,-2.0,-1.0,11.0,7.0
1701873267.1600375,-3.0,-9.0,-4.0,-4.0,-2.0,-6.0,-10.0,-6.0
1701873267.1698902,-3.0,-1.0,-3.0,1.0,-3.0,-3.0,0.0,-2.0
1701873267.1698902,0.0,-2.0,-1.0,0.0,-1.0,3.0,4.0,2.0
1701873267.1802378,-1.0,4.0,0.0,-1.0,-1.0,-1.0,-8.0,-4.0
1701873267.1802378,1.0,3.0,-1.0,-4.0,-1.0,2.0,2.0,1.0
1701873267.1902847,2.0,-1.0,1.0,-1.0,-1.0,0.0,4.0,4.0
1701873267.1902847,-4.0,-3.0,-3.0,-5.0,-2.0,-2.0,-8.0,-7.0
1701873267.200319,-3.0,-4.0,0.0,2.0,-1.0,-2.0,-3.0,-3.0
1701873267.200319,0.0,-1.0,0.0,0.0,-1.0,-4.0,-1.0,1.0
1701873267.200319,-1.0,-2.0,-3.0,-1.0,-2.0,1.0,0.0,2.0
1701873267.200319,0.0,0.0,-1.0,3.0,3.0,1.0,2.0,-1.0
1701873267.220191,-3.0,-4.0,-4.0,-2.0,-2.0,-3.0,-3.0,-10.0
1701873267.220191,-4.0,-3.0,-4.0,-10.0,-4.0,-1.0,-9.0,-7.0
1701873267.2298925,2.0,1.0,1.0,-1.0,0.0,-1.0,-1.0,5.0
1701873267.2298925,0.0,-1.0,-1.0,-1.0,-2.0,-3.0,1.0,0.0
1701873267.240078,-4.0,-2.0,2.0,4.0,-2.0,-3.0,-14.0,-11.0
1701873267.240078,2.0,1.0,0.0,2.0,-1.0,2.0,3.0,2.0
1701873267.2502744,-1.0,-4.0,-4.0,-8.0,0.0,1.0,-1.0,-2.0
1701873267.2502744,-6.0,-4.0,-5.0,-4.0,0.0,-4.0,-5.0,-6.0
1701873267.2602994,0.0,0.0,2.0,0.0,-1.0,-2.0,-3.0,0.0
1701873267.2602994,0.0,2.0,-1.0,0.0,0.0,2.0,2.0,2.0
1701873267.2602994,-2.0,0.0,-1.0,0.0,-1.0,0.0,0.0,2.0
1701873267.2602994,-1.0,-1.0,-2.0,-8.0,-3.0,2.0,-2.0,-2.0
1701873267.2902904,-3.0,-3.0,-4.0,-3.0,0.0,0.0,0.0,1.0
1701873267.2902904,-1.0,-2.0,1.0,0.0,-1.0,-3.0,-1.0,0.0
1701873267.2902904,-2.0,-2.0,-1.0,-2.0,-1.0,-2.0,-1.0,-4.0
1701873267.2902904,-2.0,1.0,0.0,-1.0,-1.0,-3.0,0.0,0.0
1701873267.3001757,1.0,1.0,1.0,-2.0,-1.0,1.0,2.0,6.0
1701873267.3001757,1.0,-2.0,-2.0,-2.0,-1.0,0.0,1.0,-3.0
1701873267.310139,1.0,-1.0,1.0,3.0,0.0,0.0,2.0,-1.0
1701873267.310139,-2.0,-4.0,-3.0,0.0,-2.0,-4.0,-9.0,-11.0
1701873267.3198903,0.0,-1.0,-2.0,-1.0,-2.0,0.0,-1.0,3.0
1701873267.3198903,0.0,0.0,-1.0,1.0,-2.0,-3.0,0.0,2.0
1701873267.3198903,-1.0,0.0,-1.0,2.0,0.0,-3.0,0.0,-4.0
1701873267.3198903,1.0,1.0,0.0,2.0,0.0,0.0,1.0,1.0
1701873267.3498893,1.0,0.0,0.0,1.0,1.0,0.0,3.0,-1.0
1701873267.3498893,0.0,0.0,1.0,0.0,0.0,-2.0,1.0,0.0
1701873267.3498893,-1.0,-4.0,-5.0,-7.0,-4.0,-2.0,-2.0,-2.0
1701873267.3498893,-1.0,-1.0,1.0,0.0,-1.0,-2.0,-7.0,2.0
1701873267.360103,-1.0,0.0,-1.0,0.0,-1.0,0.0,2.0,0.0
1701873267.360103,-3.0,-2.0,-4.0,-7.0,-2.0,3.0,-3.0,-1.0
1701873267.3701603,0.0,1.0,1.0,-2.0,0.0,-2.0,4.0,2.0
1701873267.3701603,0.0,-1.0,-1.0,-1.0,1.0,1.0,1.0,1.0
1701873267.3802025,1.0,0.0,-1.0,0.0,0.0,-2.0,2.0,4.0
1701873267.3802025,-2.0,-3.0,-2.0,0.0,-2.0,0.0,-1.0,-2.0
1701873267.3802025,-1.0,-1.0,-1.0,-1.0,0.0,2.0,2.0,2.0
1701873267.3802025,0.0,0.0,-2.0,-3.0,0.0,1.0,1.0,2.0
1701873267.4098945,-5.0,0.0,0.0,-3.0,-2.0,-3.0,-3.0,-6.0
1701873267.4098945,0.0,-1.0,1.0,0.0,0.0,1.0,5.0,4.0
1701873267.4098945,-2.0,-1.0,0.0,0.0,1.0,-2.0,-1.0,0.0
1701873267.4098945,-1.0,-5.0,-2.0,-3.0,-1.0,-2.0,-2.0,-5.0
1701873267.439889,-2.0,-2.0,-1.0,-1.0,-3.0,-1.0,1.0,0.0
1701873267.439889,-1.0,-1.0,-1.0,0.0,-2.0,-1.0,-1.0,-1.0
1701873267.439889,0.0,0.0,-1.0,0.0,0.0,-2.0,-3.0,1.0
1701873267.439889,-3.0,-1.0,-1.0,-1.0,-2.0,-7.0,-7.0,-4.0
1701873267.439889,0.0,-2.0,0.0,-1.0,0.0,9.0,12.0,1.0
1701873267.439889,-1.0,-1.0,-1.0,-1.0,1.0,4.0,5.0,1.0
1701873267.439889,0.0,0.0,1.0,1.0,-1.0,4.0,0.0,-4.0
1701873267.439889,-1.0,-1.0,-1.0,1.0,-2.0,-4.0,0.0,0.0
1701873267.4698915,-2.0,-2.0,-1.0,-3.0,-3.0,-7.0,-4.0,-2.0
1701873267.4698915,-2.0,0.0,-1.0,-1.0,-1.0,-3.0,-1.0,2.0
1701873267.4698915,-1.0,-1.0,-1.0,0.0,-2.0,-1.0,0.0,1.0
1701873267.4698915,-2.0,0.0,0.0,1.0,-2.0,-3.0,-3.0,-2.0
1701873267.4802508,-2.0,0.0,0.0,-1.0,-2.0,1.0,-2.0,-1.0
1701873267.4802508,-1.0,-2.0,0.0,-1.0,-1.0,-3.0,-2.0,-5.0
1701873267.4902349,-3.0,-1.0,-2.0,1.0,-1.0,-7.0,-5.0,-9.0
1701873267.4902349,1.0,1.0,0.0,2.0,-1.0,-2.0,-1.0,3.0
1701873267.5002675,-1.0,-1.0,0.0,2.0,-1.0,-3.0,-3.0,-1.0
1701873267.5002675,0.0,-1.0,-2.0,1.0,-2.0,-2.0,-4.0,0.0
1701873267.5002675,-1.0,0.0,-1.0,-2.0,-2.0,1.0,-3.0,-1.0
1701873267.5002675,0.0,-2.0,-1.0,-4.0,-1.0,5.0,10.0,5.0
1701873267.5300322,1.0,-1.0,-3.0,-2.0,-1.0,-1.0,-5.0,-2.0
1701873267.5300322,-3.0,-1.0,0.0,-2.0,-1.0,-6.0,-5.0,-6.0
1701873267.5300322,-2.0,-2.0,-1.0,0.0,0.0,3.0,4.0,-1.0
1701873267.5300322,0.0,-1.0,-1.0,-2.0,-2.0,1.0,2.0,2.0
1701873267.5402334,0.0,1.0,-1.0,-1.0,0.0,-2.0,2.0,1.0
1701873267.5402334,-1.0,-2.0,-2.0,-3.0,0.0,1.0,-6.0,-3.0
1701873267.5500956,0.0,-2.0,-1.0,-2.0,-2.0,0.0,-9.0,2.0
1701873267.5500956,-6.0,-2.0,-2.0,-4.0,-1.0,3.0,-11.0,-6.0
1701873267.5798903,-1.0,-2.0,0.0,-5.0,1.0,1.0,-9.0,-2.0
1701873267.5798903,-2.0,1.0,-2.0,-1.0,0.0,2.0,-5.0,-2.0
1701873267.5798903,1.0,-1.0,0.0,0.0,1.0,-1.0,5.0,4.0
1701873267.5798903,2.0,0.0,0.0,-1.0,-1.0,-1.0,1.0,0.0
1701873267.589893,0.0,-1.0,-3.0,-1.0,0.0,-5.0,5.0,1.0
1701873267.589893,-3.0,-3.0,-1.0,-1.0,-3.0,-2.0,2.0,-5.0
1701873267.589893,-1.0,1.0,1.0,2.0,-2.0,-5.0,4.0,0.0
1701873267.589893,1.0,-2.0,-2.0,-3.0,-1.0,0.0,7.0,4.0
1701873267.600186,-1.0,0.0,-1.0,-1.0,0.0,-2.0,-5.0,-6.0
1701873267.600186,2.0,0.0,0.0,2.0,0.0,-4.0,0.0,4.0
1701873267.611875,-2.0,-2.0,-4.0,-1.0,-3.0,-3.0,-5.0,-4.0
1701873267.6128783,-1.0,0.0,0.0,0.0,-1.0,2.0,6.0,1.0
1701873267.634006,-2.0,-2.0,-2.0,1.0,0.0,3.0,3.0,1.0
1701873267.634006,-1.0,-2.0,-1.0,-1.0,0.0,-3.0,-2.0,-2.0
1701873267.634006,-4.0,0.0,-2.0,-2.0,-1.0,0.0,-6.0,-7.0
1701873267.634006,3.0,4.0,2.0,2.0,1.0,-1.0,-2.0,7.0
1701873267.64266,-1.0,-2.0,-1.0,-2.0,-3.0,1.0,5.0,-4.0
1701873267.64266,1.0,1.0,1.0,0.0,-3.0,2.0,11.0,5.0
1701873267.64266,-1.0,-2.0,-1.0,-2.0,-2.0,-4.0,-27.0,-9.0
1701873267.64266,-4.0,-2.0,0.0,2.0,0.0,-2.0,-1.0,-6.0
1701873267.6629772,1.0,2.0,1.0,1.0,1.0,-2.0,3.0,6.0
1701873267.6629772,0.0,-1.0,-2.0,-4.0,-3.0,-2.0,-6.0,1.0
1701873267.6629772,-1.0,-2.0,1.0,0.0,-1.0,3.0,13.0,2.0
1701873267.6629772,1.0,-2.0,-2.0,-1.0,-1.0,-2.0,2.0,5.0
1701873267.682661,-6.0,-3.0,-3.0,-3.0,-5.0,-5.0,-21.0,-15.0
1701873267.682661,-1.0,0.0,-1.0,0.0,-1.0,1.0,6.0,-1.0
1701873267.682661,0.0,-2.0,-3.0,-3.0,2.0,0.0,2.0,1.0
1701873267.682661,-3.0,-2.0,-2.0,-5.0,-2.0,-1.0,-4.0,-2.0
1701873267.7027926,1.0,-1.0,1.0,6.0,-7.0,2.0,6.0,6.0
1701873267.7027926,-6.0,-3.0,-3.0,1.0,13.0,0.0,-14.0,-10.0
1701873267.7027926,2.0,-1.0,-3.0,-6.0,-3.0,1.0,6.0,6.0
1701873267.7027926,-5.0,-2.0,-1.0,2.0,-1.0,-5.0,-5.0,-11.0
1701873267.7229903,-2.0,-1.0,-2.0,-7.0,-4.0,-2.0,2.0,2.0
1701873267.7229903,-2.0,0.0,-1.0,1.0,-3.0,-2.0,-3.0,-2.0
1701873267.732662,-3.0,-2.0,0.0,1.0,-1.0,-2.0,-2.0,-3.0
1701873267.732662,1.0,0.0,0.0,0.0,-1.0,-1.0,3.0,3.0
1701873267.7426624,-1.0,-1.0,2.0,4.0,1.0,-1.0,-3.0,-3.0
1701873267.7426624,-2.0,-1.0,-3.0,-3.0,-4.0,0.0,2.0,0.0
1701873267.7426624,-1.0,0.0,-2.0,-2.0,1.0,-3.0,-4.0,-5.0
1701873267.7426624,-1.0,-1.0,-3.0,-4.0,-3.0,-4.0,-8.0,-5.0
1701873267.7730465,-2.0,-1.0,-1.0,0.0,-1.0,-2.0,1.0,1.0
1701873267.7730465,0.0,-1.0,0.0,0.0,1.0,-2.0,1.0,2.0
1701873267.7730465,-1.0,2.0,2.0,1.0,-2.0,-1.0,1.0,-1.0
1701873267.7730465,-1.0,-2.0,-1.0,1.0,-2.0,-1.0,-3.0,-4.0
1701873267.7829711,-3.0,-1.0,-1.0,-3.0,0.0,-5.0,-3.0,-3.0
1701873267.7829711,1.0,-1.0,1.0,-1.0,0.0,-1.0,2.0,2.0
1701873267.7926629,-1.0,-3.0,0.0,-1.0,-3.0,0.0,1.0,3.0
1701873267.7926629,1.0,0.0,-1.0,-2.0,1.0,-1.0,-3.0,2.0
1701873267.8026595,-2.0,-1.0,-1.0,-4.0,1.0,-3.0,-1.0,-1.0
1701873267.8026595,1.0,1.0,0.0,1.0,-4.0,-3.0,0.0,0.0
1701873267.8026595,-1.0,0.0,0.0,1.0,-2.0,-1.0,-2.0,-2.0
1701873267.8026595,-2.0,-3.0,-2.0,-2.0,-4.0,-1.0,1.0,0.0
1701873267.8229303,2.0,0.0,-1.0,-1.0,1.0,-2.0,0.0,4.0
1701873267.8229303,-1.0,-2.0,-1.0,-3.0,-4.0,-2.0,-3.0,-2.0
1701873267.8229303,0.0,-1.0,-2.0,0.0,0.0,0.0,3.0,1.0
1701873267.8229303,1.0,-1.0,-2.0,-1.0,-1.0,-2.0,-1.0,1.0
1701873267.8626635,-2.0,-2.0,-2.0,-1.0,-2.0,-3.0,-9.0,-10.0
1701873267.8626635,0.0,-1.0,-1.0,-3.0,-2.0,0.0,-3.0,1.0
1701873267.8626635,-4.0,-2.0,-1.0,-1.0,0.0,-1.0,2.0,-2.0
1701873267.8626635,-3.0,-1.0,-2.0,-2.0,-2.0,0.0,4.0,-2.0
1701873267.8626635,0.0,-2.0,-1.0,-3.0,0.0,1.0,1.0,3.0
1701873267.8626635,-3.0,-2.0,-2.0,-4.0,1.0,1.0,-1.0,-2.0
1701873267.8626635,-1.0,-2.0,0.0,-3.0,-1.0,0.0,2.0,0.0
1701873267.8626635,-1.0,-2.0,-2.0,-2.0,2.0,1.0,-5.0,-2.0
1701873267.8830426,-1.0,-2.0,0.0,0.0,1.0,0.0,-4.0,0.0
1701873267.8830426,-3.0,-2.0,-2.0,-3.0,-2.0,1.0,-1.0,-5.0
1701873267.8830426,0.0,0.0,-1.0,-1.0,1.0,0.0,-2.0,4.0
1701873267.8830426,-1.0,-2.0,-1.0,-2.0,0.0,0.0,0.0,-2.0
1701873267.9026613,-2.0,0.0,-2.0,-3.0,0.0,-1.0,-4.0,-3.0
1701873267.9026613,0.0,-1.0,0.0,0.0,-1.0,-2.0,2.0,4.0
1701873267.9026613,-2.0,0.0,-2.0,-1.0,-2.0,-1.0,-3.0,-4.0
1701873267.9026613,0.0,-2.0,-1.0,0.0,0.0,-1.0,-2.0,-2.0
1701873267.923026,0.0,-2.0,-1.0,-1.0,0.0,2.0,6.0,3.0
1701873267.923026,2.0,0.0,-2.0,1.0,-1.0,1.0,-2.0,-3.0
1701873267.9329917,-2.0,-3.0,-2.0,-4.0,0.0,-1.0,-2.0,-3.0
1701873267.9329917,-1.0,1.0,0.0,0.0,0.0,-1.0,3.0,3.0
1701873267.9427736,2.0,2.0,0.0,-3.0,-3.0,-3.0,0.0,-2.0
1701873267.9427736,0.0,-1.0,-2.0,-2.0,0.0,-2.0,1.0,5.0
1701873267.9526606,-4.0,-2.0,-2.0,0.0,-1.0,-3.0,-5.0,-7.0
1701873267.9526606,-1.0,0.0,1.0,1.0,1.0,-1.0,0.0,-3.0
1701873267.9626935,0.0,-1.0,0.0,0.0,1.0,2.0,1.0,2.0
1701873267.9626935,-1.0,-1.0,1.0,0.0,-2.0,-2.0,0.0,1.0
1701873267.9626935,0.0,-1.0,0.0,1.0,-2.0,-2.0,-2.0,1.0
1701873267.9626935,-2.0,-2.0,-3.0,0.0,-3.0,-2.0,-2.0,-2.0
1701873267.9830086,-2.0,-1.0,-2.0,-1.0,-2.0,-1.0,-2.0,-1.0
1701873267.9830086,-1.0,1.0,-1.0,-1.0,-2.0,-3.0,-5.0,-4.0
1701873267.9830086,-2.0,-3.0,0.0,1.0,0.0,-3.0,0.0,-4.0
1701873267.9830086,0.0,1.0,2.0,1.0,1.0,0.0,0.0,0.0
1701873268.0029535,0.0,-2.0,-1.0,2.0,-1.0,-1.0,-3.0,-3.0
1701873268.0029535,-4.0,-2.0,-4.0,-5.0,-2.0,0.0,-3.0,-6.0
1701873268.0029535,2.0,1.0,-2.0,-1.0,-1.0,2.0,1.0,2.0
1701873268.0029535,-1.0,-1.0,-2.0,-3.0,-3.0,1.0,-3.0,2.0
1701873268.0226605,1.0,0.0,-2.0,0.0,-3.0,-2.0,-2.0,-1.0
