1701873720.4062898,5.0,2.0,-1.0,6.0,-1.0,-1.0,-1.0,-3.0
1701873720.4062898,-3.0,10.0,19.0,9.0,-7.0,-8.0,-8.0,-4.0
1701873720.4163148,9.0,-19.0,-36.0,-10.0,0.0,-2.0,5.0,3.0
1701873720.4163148,14.0,2.0,-2.0,-5.0,0.0,-6.0,-1.0,6.0
1701873720.4163148,0.0,11.0,-8.0,-3.0,-1.0,1.0,-7.0,0.0
1701873720.4163148,-10.0,-3.0,6.0,9.0,-3.0,4.0,5.0,6.0
1701873720.4462783,-24.0,-15.0,-45.0,-29.0,-9.0,-8.0,-12.0,-26.0
1701873720.4462783,-15.0,-18.0,1.0,1.0,1.0,-1.0,1.0,-3.0
1701873720.4462783,5.0,-2.0,5.0,-3.0,-4.0,-7.0,9.0,11.0
1701873720.4462783,2.0,-5.0,3.0,2.0,-5.0,-3.0,-11.0,-16.0
1701873720.4563096,9.0,2.0,8.0,13.0,2.0,5.0,6.0,1.0
1701873720.4563096,5.0,47.0,10.0,-4.0,0.0,0.0,-1.0,2.0
1701873720.4563096,-17.0,-16.0,-15.0,-4.0,-2.0,-4.0,-7.0,-6.0
1701873720.4563096,-7.0,-16.0,-19.0,-2.0,-2.0,-4.0,-3.0,-2.0
1701873720.4764292,-7.0,-19.0,8.0,-6.0,-9.0,-8.0,-5.0,-6.0
1701873720.4764292,0.0,4.0,7.0,-1.0,-1.0,2.0,4.0,3.0
1701873720.4764292,-2.0,12.0,25.0,15.0,10.0,5.0,4.0,6.0
1701873720.4764292,15.0,-3.0,-43.0,-19.0,-6.0,-3.0,-4.0,-5.0
1701873720.5062737,-9.0,6.0,15.0,-1.0,4.0,6.0,5.0,-1.0
1701873720.5062737,4.0,-8.0,-13.0,-1.0,0.0,-7.0,-9.0,1.0
1701873720.5062737,5.0,-6.0,-14.0,-6.0,-5.0,0.0,-4.0,1.0
1701873720.5062737,-7.0,-12.0,6.0,-1.0,-5.0,-7.0,3.0,0.0
1701873720.5163426,6.0,13.0,13.0,12.0,7.0,10.0,7.0,0.0
1701873720.5163426,0.0,-15.0,-12.0,-8.0,-6.0,-16.0,-16.0,-8.0
1701873720.5163426,11.0,21.0,0.0,-4.0,-3.0,7.0,5.0,-8.0
1701873720.5163426,19.0,-25.0,15.0,2.0,-4.0,-2.0,-14.0,2.0
1701873720.5364907,9.0,7.0,-12.0,-1.0,0.0,1.0,6.0,14.0
1701873720.5364907,8.0,5.0,4.0,0.0,0.0,2.0,-4.0,-15.0
1701873720.5364907,-19.0,6.0,13.0,3.0,0.0,-5.0,-7.0,-5.0
1701873720.5364907,8.0,21.0,-15.0,-8.0,-3.0,-4.0,0.0,6.0
1701873720.5562773,-17.0,-27.0,8.0,3.0,-1.0,-6.0,1.0,9.0
1701873720.5562773,-3.0,-3.0,-9.0,0.0,0.0,-6.0,-13.0,-8.0
1701873720.5562773,5.0,9.0,-4.0,-2.0,-2.0,3.0,9.0,4.0
1701873720.5562773,-8.0,29.0,23.0,13.0,5.0,7.0,7.0,-4.0
1701873720.5766454,9.0,-11.0,-3.0,-5.0,-1.0,-2.0,-3.0,0.0
1701873720.5766454,-10.0,-39.0,-37.0,-16.0,-8.0,-5.0,0.0,-1.0
1701873720.5766454,-3.0,0.0,13.0,0.0,-1.0,7.0,5.0,2.0
1701873720.5766454,1.0,-5.0,-2.0,-1.0,0.0,1.0,3.0,10.0
1701873720.6062765,9.0,6.0,10.0,7.0,4.0,-4.0,-6.0,-7.0
1701873720.6062765,-10.0,-16.0,-13.0,0.0,2.0,5.0,6.0,9.0
1701873720.6062765,-7.0,-36.0,-21.0,-8.0,-3.0,-9.0,-6.0,-9.0
1701873720.6062765,8.0,-13.0,2.0,0.0,-10.0,-10.0,-6.0,4.0
1701873720.6163893,-2.0,27.0,-1.0,2.0,-1.0,3.0,6.0,6.0
1701873720.6163893,0.0,-3.0,5.0,2.0,8.0,14.0,10.0,8.0
1701873720.6262817,8.0,12.0,-16.0,-8.0,-4.0,-4.0,0.0,3.0
1701873720.6262817,5.0,23.0,12.0,3.0,-2.0,-4.0,8.0,5.0
1701873720.636603,8.0,19.0,14.0,10.0,1.0,0.0,1.0,1.0
1701873720.636603,2.0,35.0,27.0,6.0,1.0,1.0,0.0,3.0
1701873720.636603,-18.0,-66.0,-30.0,-14.0,-5.0,-1.0,-5.0,-8.0
1701873720.636603,-24.0,-10.0,-15.0,-14.0,3.0,-2.0,-3.0,-9.0
1701873720.6862762,-5.0,5.0,23.0,13.0,1.0,4.0,0.0,-4.0
1701873720.6862762,-3.0,-4.0,-15.0,3.0,5.0,4.0,4.0,3.0
1701873720.6862762,6.0,15.0,11.0,1.0,-4.0,-5.0,-9.0,-2.0
1701873720.6862762,-10.0,4.0,4.0,3.0,1.0,-1.0,-5.0,-6.0
1701873720.6862762,-16.0,-21.0,-15.0,-11.0,-7.0,-6.0,-6.0,-6.0
1701873720.6862762,-12.0,-7.0,5.0,2.0,-1.0,0.0,-5.0,-14.0
1701873720.6862762,6.0,15.0,5.0,7.0,6.0,0.0,2.0,9.0
1701873720.6862762,6.0,14.0,10.0,3.0,0.0,3.0,6.0,6.0
1701873720.6962829,-1.0,-9.0,-23.0,-13.0,-7.0,-8.0,-8.0,-8.0
1701873720.6962829,-1.0,-11.0,-7.0,-8.0,-4.0,-5.0,-6.0,1.0
1701873720.6962829,9.0,16.0,18.0,9.0,4.0,9.0,19.0,19.0
1701873720.6962829,-26.0,-13.0,-11.0,-3.0,0.0,3.0,-2.0,-11.0
1701873720.7362766,-1.0,6.0,11.0,6.0,1.0,-5.0,-9.0,-8.0
1701873720.7362766,11.0,18.0,18.0,9.0,1.0,5.0,12.0,10.0
1701873720.7362766,12.0,-11.0,-32.0,-12.0,-4.0,-8.0,-9.0,1.0
1701873720.7362766,-5.0,-8.0,20.0,8.0,1.0,6.0,8.0,9.0
1701873720.7362766,2.0,-13.0,-25.0,-12.0,-4.0,-7.0,-8.0,-3.0
1701873720.7362766,-6.0,13.0,11.0,5.0,0.0,-10.0,-15.0,-14.0
1701873720.7362766,6.0,-2.0,8.0,0.0,-3.0,3.0,8.0,4.0
1701873720.7362766,-18.0,-24.0,-2.0,-2.0,2.0,5.0,7.0,5.0
1701873720.7566955,31.0,17.0,-13.0,-10.0,-6.0,-16.0,-17.0,-14.0
1701873720.7566955,9.0,-9.0,6.0,5.0,3.0,4.0,3.0,8.0
1701873720.7566955,-7.0,-9.0,4.0,-2.0,-4.0,-2.0,7.0,10.0
1701873720.7566955,-6.0,-1.0,-1.0,1.0,3.0,11.0,-2.0,-30.0
1701873720.7826962,-1.0,-7.0,-3.0,-5.0,-3.0,4.0,12.0,15.0
1701873720.7826962,6.0,23.0,17.0,5.0,0.0,-3.0,-5.0,-1.0
1701873720.7843466,7.0,22.0,-11.0,-3.0,-1.0,-5.0,-12.0,-17.0
1701873720.7843466,13.0,-35.0,-34.0,-8.0,-7.0,-16.0,-5.0,10.0
1701873720.7965472,3.0,9.0,10.0,0.0,0.0,-2.0,-8.0,-7.0
1701873720.7965472,-10.0,8.0,-5.0,-10.0,3.0,0.0,6.0,-4.0
1701873720.7992039,-9.0,-5.0,2.0,-2.0,-2.0,12.0,14.0,-3.0
1701873720.7992039,8.0,2.0,9.0,6.0,0.0,-6.0,-13.0,5.0
1701873720.8192077,-1.0,-10.0,-3.0,3.0,-3.0,-4.0,-5.0,-1.0
1701873720.8192077,-6.0,-2.0,4.0,-2.0,-6.0,-10.0,-13.0,-10.0
1701873720.8192077,-16.0,-19.0,-16.0,2.0,2.0,-2.0,4.0,-4.0
1701873720.8192077,4.0,-4.0,5.0,-9.0,-11.0,-7.0,3.0,-2.0
1701873720.8392057,23.0,68.0,23.0,-4.0,1.0,2.0,-11.0,-2.0
1701873720.8392057,-27.0,-66.0,-28.0,-11.0,-9.0,8.0,9.0,6.0
1701873720.8392057,-18.0,-22.0,12.0,2.0,4.0,-2.0,-8.0,-8.0
1701873720.8392057,24.0,18.0,-3.0,8.0,0.0,-8.0,-1.0,5.0
1701873720.8494563,-37.0,-52.0,-15.0,-4.0,1.0,1.0,0.0,-6.0
1701873720.8494563,24.0,41.0,40.0,6.0,-4.0,1.0,5.0,1.0
1701873720.8594456,-14.0,-16.0,-33.0,-18.0,-1.0,-3.0,-8.0,-10.0
1701873720.8594456,-5.0,-12.0,4.0,0.0,-2.0,-3.0,-7.0,-4.0
1701873720.8792272,12.0,23.0,11.0,24.0,5.0,9.0,13.0,9.0
1701873720.8792272,-10.0,-35.0,-31.0,-15.0,16.0,4.0,0.0,-9.0
1701873720.8792272,5.0,0.0,12.0,0.0,-11.0,-9.0,-5.0,5.0
1701873720.8792272,7.0,3.0,-26.0,-10.0,9.0,3.0,2.0,4.0
1701873720.9092064,-30.0,34.0,17.0,-19.0,-16.0,-5.0,1.0,-9.0
1701873720.9092064,7.0,17.0,6.0,12.0,7.0,8.0,5.0,8.0
1701873720.9092064,-10.0,1.0,2.0,10.0,5.0,-3.0,-13.0,-20.0
1701873720.9092064,-15.0,22.0,18.0,9.0,3.0,6.0,4.0,-7.0
1701873720.9092064,14.0,20.0,6.0,9.0,1.0,1.0,1.0,0.0
1701873720.9092064,-13.0,-13.0,-14.0,-10.0,-13.0,-9.0,-6.0,-4.0
1701873720.9192367,24.0,23.0,23.0,10.0,4.0,2.0,-2.0,10.0
1701873720.9192367,-4.0,9.0,-35.0,-20.0,-12.0,-5.0,-3.0,5.0
1701873720.939227,-6.0,-37.0,-4.0,3.0,1.0,0.0,1.0,-4.0
1701873720.939227,-24.0,11.0,-6.0,-6.0,-1.0,0.0,0.0,-11.0
1701873720.939227,14.0,24.0,25.0,1.0,-3.0,-3.0,-4.0,-7.0
1701873720.939227,9.0,4.0,-8.0,10.0,5.0,7.0,3.0,6.0
1701873720.9592047,-6.0,-24.0,-1.0,-3.0,-4.0,-4.0,4.0,6.0
1701873720.9592047,34.0,28.0,2.0,-1.0,0.0,1.0,-8.0,-8.0
1701873720.9592047,-12.0,-13.0,-4.0,2.0,3.0,1.0,-1.0,9.0
1701873720.9592047,-19.0,-4.0,-6.0,-6.0,-8.0,-10.0,-10.0,-21.0
1701873720.979602,-14.0,-11.0,-11.0,-11.0,4.0,8.0,4.0,3.0
1701873720.979602,12.0,21.0,12.0,2.0,-1.0,-1.0,1.0,5.0
1701873720.979602,-9.0,3.0,3.0,0.0,-3.0,-4.0,-4.0,-13.0
1701873720.979602,6.0,6.0,3.0,-1.0,-4.0,-5.0,-8.0,-8.0
1701873720.9992447,8.0,-15.0,0.0,2.0,-3.0,1.0,6.0,6.0
1701873720.9992447,-9.0,-8.0,12.0,9.0,-5.0,-9.0,-5.0,-5.0
1701873720.9992447,-6.0,-15.0,-21.0,-6.0,4.0,2.0,1.0,0.0
1701873720.9992447,-4.0,-2.0,1.0,-9.0,-5.0,-9.0,-15.0,-8.0
1701873721.0195765,24.0,1.0,5.0,6.0,1.0,11.0,13.0,5.0
1701873721.0195765,-12.0,-33.0,-13.0,-4.0,-1.0,6.0,7.0,9.0
1701873721.0195765,0.0,-1.0,-2.0,-6.0,0.0,-2.0,-2.0,0.0
1701873721.0195765,14.0,8.0,3.0,2.0,1.0,2.0,3.0,8.0
1701873721.0395722,5.0,25.0,8.0,2.0,5.0,-2.0,-1.0,0.0
1701873721.0395722,-35.0,-32.0,-20.0,-5.0,-7.0,-6.0,-3.0,-3.0
1701873721.0395722,-3.0,-7.0,0.0,-5.0,-12.0,-5.0,-2.0,-10.0
1701873721.0395722,-9.0,-42.0,7.0,4.0,-1.0,0.0,5.0,6.0
1701873721.0692544,8.0,-3.0,-30.0,-15.0,4.0,-1.0,-6.0,-5.0
1701873721.0692544,7.0,6.0,-9.0,-12.0,-5.0,-1.0,5.0,5.0
1701873721.0692544,-1.0,-17.0,-3.0,1.0,-3.0,-6.0,-1.0,12.0
1701873721.0692544,-3.0,1.0,7.0,0.0,-7.0,0.0,3.0,-4.0
1701873721.079474,-4.0,-7.0,-2.0,1.0,0.0,-3.0,-4.0,-10.0
1701873721.079474,8.0,-9.0,2.0,5.0,2.0,-2.0,0.0,6.0
1701873721.079474,-35.0,31.0,5.0,-4.0,-1.0,1.0,-4.0,-17.0
1701873721.079474,17.0,35.0,12.0,-3.0,1.0,-2.0,-4.0,0.0
1701873721.0995739,-37.0,-53.0,1.0,8.0,-1.0,3.0,5.0,-5.0
1701873721.0995739,6.0,-27.0,-8.0,-3.0,3.0,-2.0,-1.0,13.0
1701873721.0995739,1.0,12.0,13.0,4.0,-5.0,-6.0,-12.0,-30.0
1701873721.0995739,-4.0,12.0,4.0,1.0,-2.0,-8.0,-2.0,8.0
1701873721.1192672,-10.0,12.0,10.0,4.0,2.0,6.0,1.0,-3.0
1701873721.1192672,12.0,21.0,7.0,5.0,1.0,9.0,13.0,6.0
1701873721.1192672,3.0,-21.0,-14.0,-1.0,2.0,0.0,-11.0,4.0
1701873721.1192672,-7.0,-11.0,-10.0,-9.0,-3.0,-10.0,-9.0,-16.0
1701873721.1396384,14.0,18.0,12.0,4.0,-1.0,-13.0,-13.0,5.0
1701873721.1396384,-1.0,3.0,-10.0,-4.0,-4.0,9.0,9.0,-4.0
1701873721.1396384,15.0,15.0,11.0,5.0,5.0,5.0,6.0,14.0
1701873721.1396384,-5.0,25.0,6.0,3.0,2.0,2.0,-6.0,-8.0
1701873721.1596656,-6.0,-14.0,-3.0,-1.0,-2.0,-10.0,-4.0,9.0
1701873721.1596656,11.0,4.0,0.0,-4.0,-4.0,1.0,6.0,1.0
1701873721.1596656,23.0,23.0,4.0,-2.0,-1.0,0.0,-4.0,1.0
1701873721.1596656,0.0,0.0,-4.0,1.0,4.0,10.0,11.0,2.0
1701873721.1794355,-4.0,-2.0,-12.0,-8.0,-3.0,2.0,9.0,7.0
1701873721.1794355,-26.0,47.0,31.0,9.0,3.0,-2.0,-8.0,-4.0
1701873721.1892557,2.0,-7.0,-17.0,-9.0,-6.0,-8.0,8.0,10.0
1701873721.1892557,11.0,25.0,13.0,9.0,0.0,-1.0,-10.0,-4.0
1701873721.1995058,-8.0,-20.0,-2.0,-1.0,0.0,-1.0,-5.0,-10.0
1701873721.1995058,-8.0,-28.0,-24.0,-9.0,2.0,2.0,7.0,5.0
1701873721.1995058,-3.0,2.0,8.0,0.0,0.0,-2.0,-3.0,-6.0
1701873721.1995058,-38.0,-66.0,-4.0,2.0,-2.0,-4.0,1.0,-3.0
1701873721.2197657,-11.0,3.0,-35.0,-11.0,-4.0,-3.0,-3.0,-8.0
1701873721.2197657,15.0,-25.0,12.0,-4.0,-4.0,-9.0,-8.0,-5.0
1701873721.2197657,-17.0,49.0,35.0,14.0,4.0,6.0,6.0,4.0
1701873721.2197657,3.0,-6.0,-4.0,-3.0,-2.0,-1.0,-6.0,-10.0
1701873721.2394068,3.0,1.0,-38.0,-18.0,-1.0,1.0,-6.0,-7.0
1701873721.2394068,-9.0,-41.0,-16.0,-7.0,-8.0,-12.0,-10.0,-9.0
1701873721.2394068,30.0,48.0,10.0,11.0,6.0,9.0,7.0,11.0
1701873721.2394068,-25.0,-57.0,0.0,-4.0,-8.0,-4.0,-3.0,-4.0
1701873721.2598293,-27.0,-3.0,41.0,14.0,-1.0,-3.0,0.0,-8.0
1701873721.2598293,39.0,38.0,-2.0,2.0,-2.0,-2.0,-10.0,0.0
1701873721.2598293,8.0,-30.0,-22.0,-13.0,0.0,1.0,-1.0,-6.0
1701873721.2598293,16.0,25.0,-15.0,7.0,4.0,3.0,-2.0,-2.0
1701873721.279409,-3.0,0.0,10.0,-1.0,-4.0,-5.0,-6.0,-6.0
1701873721.279409,12.0,22.0,-9.0,-10.0,-6.0,-9.0,-11.0,-12.0
1701873721.279409,-5.0,-18.0,19.0,13.0,0.0,13.0,18.0,5.0
1701873721.279409,9.0,-11.0,-20.0,-7.0,1.0,6.0,16.0,26.0
1701873721.299416,10.0,-5.0,4.0,-2.0,-3.0,-5.0,-7.0,-13.0
1701873721.3003767,8.0,15.0,7.0,16.0,6.0,-3.0,-6.0,10.0
1701873721.3077435,-21.0,-9.0,-11.0,-9.0,-10.0,-14.0,-23.0,-21.0
1701873721.3077435,-4.0,8.0,7.0,0.0,10.0,6.0,7.0,9.0
1701873721.3227942,21.0,22.0,14.0,8.0,6.0,6.0,1.0,8.0
1701873721.3227942,-14.0,-1.0,-12.0,-7.0,-2.0,5.0,5.0,5.0
1701873721.3245199,-4.0,-20.0,-5.0,-4.0,-9.0,-8.0,-1.0,9.0
1701873721.3245199,3.0,7.0,-10.0,-6.0,-4.0,-2.0,-5.0,-18.0
1701873721.3425064,4.0,-21.0,12.0,-3.0,-6.0,-9.0,-10.0,-4.0
1701873721.3425064,-16.0,-1.0,10.0,2.0,9.0,0.0,-1.0,-11.0
1701873721.3425064,-4.0,-64.0,-30.0,-9.0,-7.0,-8.0,-2.0,0.0
1701873721.3425064,-9.0,21.0,34.0,8.0,-1.0,0.0,1.0,1.0
1701873721.3520925,6.0,28.0,-11.0,-12.0,-3.0,-4.0,-8.0,0.0
1701873721.3520925,-23.0,-74.0,-33.0,-3.0,-3.0,-3.0,0.0,-6.0
1701873721.3621168,-1.0,14.0,-10.0,-15.0,-6.0,-4.0,6.0,10.0
1701873721.3621168,8.0,7.0,5.0,3.0,-2.0,-3.0,-10.0,-7.0
1701873721.3823826,4.0,-30.0,0.0,10.0,0.0,-1.0,12.0,-1.0
1701873721.3823826,3.0,31.0,12.0,3.0,0.0,0.0,-6.0,-2.0
1701873721.3823826,0.0,-17.0,-30.0,-16.0,1.0,-5.0,-5.0,-5.0
1701873721.3823826,-3.0,-4.0,-4.0,-2.0,-4.0,-6.0,-4.0,7.0
1701873721.4120955,11.0,24.0,3.0,1.0,3.0,34.0,42.0,23.0
1701873721.4120955,-16.0,-27.0,11.0,8.0,0.0,-2.0,5.0,-4.0
1701873721.4120955,-12.0,-12.0,-11.0,-1.0,-5.0,-13.0,-17.0,-13.0
1701873721.4120955,14.0,3.0,-5.0,-8.0,-2.0,-8.0,2.0,9.0
1701873721.4120955,4.0,-7.0,-8.0,-2.0,0.0,10.0,-2.0,-4.0
1701873721.4120955,11.0,11.0,-4.0,3.0,-1.0,4.0,10.0,10.0
1701873721.4221253,12.0,6.0,10.0,8.0,5.0,3.0,-1.0,5.0
1701873721.4221253,8.0,15.0,6.0,-4.0,-3.0,-7.0,-3.0,-3.0
1701873721.452089,-1.0,13.0,-3.0,-1.0,-3.0,-17.0,-16.0,-1.0
1701873721.452089,0.0,1.0,0.0,-4.0,-4.0,-1.0,-3.0,-3.0
1701873721.452089,1.0,-3.0,-3.0,-3.0,5.0,20.0,24.0,6.0
1701873721.452089,-14.0,-10.0,-8.0,-12.0,-10.0,-10.0,-9.0,-15.0
1701873721.4624903,3.0,22.0,12.0,6.0,3.0,9.0,10.0,5.0
1701873721.4624903,2.0,8.0,5.0,0.0,-5.0,-18.0,-26.0,-3.0
1701873721.4624903,-1.0,11.0,22.0,11.0,5.0,8.0,8.0,6.0
1701873721.4624903,3.0,-12.0,-12.0,6.0,15.0,29.0,18.0,-9.0
1701873721.4720926,-14.0,27.0,6.0,3.0,1.0,3.0,-1.0,-5.0
1701873721.4720926,-33.0,-34.0,-25.0,-17.0,-15.0,-17.0,-19.0,-16.0
1701873721.4824224,-1.0,57.0,29.0,9.0,2.0,-2.0,-5.0,1.0
1701873721.4824224,20.0,-31.0,7.0,5.0,5.0,1.0,5.0,11.0
1701873721.5020914,-12.0,-16.0,-13.0,-1.0,4.0,-3.0,-11.0,-8.0
1701873721.5020914,1.0,11.0,21.0,1.0,-2.0,5.0,14.0,4.0
1701873721.5020914,11.0,-2.0,-6.0,6.0,-4.0,-3.0,1.0,0.0
1701873721.5020914,-48.0,-68.0,-26.0,-13.0,-2.0,0.0,-5.0,-8.0
1701873721.5223672,-1.0,-8.0,-3.0,-15.0,-14.0,-24.0,-20.0,-10.0
1701873721.5223672,26.0,5.0,-26.0,4.0,13.0,13.0,9.0,5.0
1701873721.5223672,-19.0,-63.0,-29.0,-19.0,-14.0,-16.0,-12.0,-14.0
1701873721.5223672,14.0,42.0,22.0,5.0,9.0,2.0,-1.0,8.0
1701873721.5323565,2.0,4.0,15.0,-1.0,-5.0,3.0,4.0,4.0
1701873721.5323565,-14.0,2.0,3.0,6.0,3.0,0.0,-5.0,-10.0
1701873721.5420976,12.0,33.0,5.0,9.0,2.0,6.0,3.0,5.0
1701873721.5420976,11.0,4.0,0.0,3.0,-5.0,-4.0,-3.0,4.0
1701873721.5620914,-9.0,0.0,-3.0,0.0,-1.0,-1.0,4.0,6.0
1701873721.5620914,17.0,2.0,-13.0,-7.0,-7.0,-2.0,4.0,7.0
1701873721.5620914,-4.0,-31.0,-27.0,-21.0,-8.0,-8.0,-31.0,-31.0
1701873721.5620914,-14.0,21.0,12.0,-2.0,-9.0,-21.0,-18.0,-4.0
1701873721.5823395,9.0,-38.0,-8.0,6.0,11.0,24.0,30.0,29.0
1701873721.5823395,10.0,-5.0,23.0,17.0,8.0,21.0,20.0,-13.0
1701873721.5823395,-13.0,18.0,-2.0,-9.0,0.0,-1.0,-15.0,-1.0
1701873721.5823395,5.0,21.0,12.0,-1.0,-6.0,-8.0,-2.0,5.0
1701873721.5923555,-21.0,-18.0,-24.0,-5.0,-6.0,-17.0,-11.0,-23.0
1701873721.5923555,2.0,-8.0,15.0,3.0,-1.0,-10.0,-15.0,-10.0
1701873721.6220918,-3.0,-8.0,-2.0,1.0,2.0,-2.0,-1.0,15.0
1701873721.6220918,-8.0,5.0,-15.0,-11.0,-9.0,-3.0,1.0,-7.0
1701873721.6220918,-6.0,39.0,30.0,12.0,7.0,-1.0,-6.0,-16.0
1701873721.6220918,3.0,7.0,-5.0,1.0,6.0,14.0,17.0,29.0
1701873721.6220918,-13.0,0.0,11.0,-5.0,-10.0,-17.0,-10.0,-10.0
1701873721.6220918,-1.0,7.0,13.0,6.0,0.0,3.0,-5.0,-2.0
1701873721.6424773,29.0,8.0,-7.0,4.0,-3.0,-5.0,4.0,4.0
1701873721.6424773,-9.0,15.0,-12.0,-13.0,-5.0,-7.0,-19.0,-12.0
1701873721.6424773,10.0,3.0,6.0,10.0,15.0,13.0,17.0,13.0
1701873721.6424773,18.0,21.0,7.0,1.0,-4.0,-1.0,10.0,16.0
1701873721.6524618,-20.0,-9.0,2.0,-1.0,-7.0,-5.0,-10.0,-5.0
1701873721.6524618,17.0,44.0,0.0,1.0,5.0,3.0,1.0,2.0
1701873721.6620922,4.0,8.0,14.0,13.0,1.0,1.0,7.0,4.0
1701873721.6620922,-6.0,-13.0,-5.0,-5.0,-3.0,-3.0,-4.0,-7.0
1701873721.6821225,24.0,16.0,5.0,8.0,8.0,5.0,-10.0,-5.0
1701873721.6821225,-41.0,-45.0,6.0,5.0,-8.0,-11.0,0.0,0.0
1701873721.6821225,-5.0,-20.0,-30.0,-24.0,-12.0,-3.0,-4.0,-11.0
1701873721.6821225,-24.0,38.0,22.0,0.0,11.0,15.0,12.0,2.0
1701873721.702515,15.0,7.0,1.0,4.0,6.0,3.0,3.0,11.0
1701873721.702515,11.0,-4.0,-22.0,-6.0,0.0,-2.0,2.0,14.0
1701873721.702515,4.0,-10.0,15.0,14.0,1.0,3.0,2.0,-4.0
1701873721.702515,32.0,15.0,-3.0,3.0,1.0,2.0,3.0,7.0
1701873721.7124636,-56.0,-76.0,-14.0,-15.0,-8.0,-16.0,-11.0,-8.0
1701873721.7124636,4.0,13.0,5.0,-8.0,-7.0,3.0,-7.0,-7.0
1701873721.7320898,-7.0,10.0,5.0,4.0,6.0,8.0,9.0,14.0
1701873721.7320898,5.0,-15.0,-19.0,-4.0,-4.0,-5.0,-13.0,-17.0
1701873721.742467,18.0,-10.0,8.0,8.0,0.0,-6.0,-3.0,-2.0
1701873721.742467,-7.0,5.0,-8.0,-7.0,-5.0,-14.0,-8.0,0.0
1701873721.742467,2.0,-3.0,-11.0,-16.0,-5.0,1.0,3.0,-4.0
1701873721.742467,-7.0,-6.0,12.0,10.0,3.0,5.0,3.0,-7.0
1701873721.76251,-2.0,-27.0,-32.0,-9.0,-3.0,0.0,-1.0,13.0
1701873721.76251,-15.0,-26.0,1.0,-10.0,-6.0,-11.0,-13.0,-23.0
1701873721.76251,4.0,-18.0,3.0,11.0,8.0,6.0,4.0,7.0
1701873721.76251,-6.0,-3.0,-13.0,-5.0,1.0,1.0,7.0,4.0
1701873721.772463,-6.0,58.0,21.0,-3.0,-3.0,-4.0,-10.0,-15.0
1701873721.772463,-19.0,-6.0,-5.0,1.0,5.0,7.0,13.0,20.0
1701873721.7920904,10.0,5.0,16.0,4.0,-2.0,-2.0,-14.0,-26.0
1701873721.7920904,-11.0,30.0,19.0,8.0,2.0,-1.0,-4.0,-5.0
1701873721.8024273,-3.0,-16.0,-10.0,-3.0,-2.0,2.0,15.0,4.0
1701873721.8024273,1.0,12.0,9.0,2.0,1.0,6.0,0.0,-7.0
1701873721.8024273,6.0,9.0,1.0,-2.0,0.0,-5.0,5.0,13.0
1701873721.8024273,-32.0,-72.0,-20.0,-12.0,-9.0,-8.0,-16.0,-21.0
1701873721.8247702,8.0,20.0,7.0,0.0,-2.0,0.0,0.0,-5.0
1701873721.8247702,19.0,17.0,15.0,14.0,5.0,3.0,3.0,-7.0
1701873721.8268182,-11.0,-23.0,-8.0,-5.0,-4.0,-11.0,-12.0,14.0
1701873721.8268182,1.0,-1.0,-23.0,-9.0,-5.0,2.0,4.0,2.0
1701873721.838781,1.0,-25.0,-15.0,-9.0,-3.0,0.0,-2.0,5.0
1701873721.838781,18.0,10.0,18.0,1.0,1.0,-6.0,0.0,0.0
1701873721.8480828,-7.0,6.0,-11.0,3.0,7.0,7.0,15.0,11.0
1701873721.8480828,5.0,13.0,-7.0,-6.0,-3.0,-3.0,-7.0,-7.0
1701873721.8583183,-21.0,-20.0,-10.0,-2.0,-3.0,-5.0,-15.0,-19.0
1701873721.8583183,9.0,2.0,5.0,-4.0,-8.0,-5.0,1.0,6.0
1701873721.8583183,1.0,-7.0,0.0,3.0,-4.0,-15.0,-8.0,-1.0
1701873721.8583183,-49.0,-11.0,4.0,-3.0,-1.0,1.0,-4.0,-11.0
1701873721.878331,56.0,110.0,29.0,10.0,8.0,12.0,17.0,26.0
1701873721.878331,2.0,-19.0,-18.0,-15.0,-13.0,-21.0,-26.0,-22.0
1701873721.878331,-18.0,-27.0,-14.0,-7.0,-4.0,9.0,13.0,-2.0
1701873721.878331,22.0,11.0,13.0,5.0,-3.0,-8.0,5.0,9.0
1701873721.9180794,-5.0,-4.0,-7.0,-1.0,-2.0,-9.0,-14.0,-10.0
1701873721.9180794,-14.0,-14.0,-8.0,-9.0,5.0,11.0,3.0,8.0
1701873721.9180794,5.0,38.0,29.0,13.0,0.0,-1.0,-6.0,-11.0
1701873721.9180794,-7.0,-37.0,-32.0,-9.0,-2.0,-5.0,-1.0,0.0
1701873721.9180794,5.0,-19.0,-22.0,-5.0,-4.0,-3.0,1.0,5.0
1701873721.9180794,-8.0,-2.0,-1.0,-5.0,2.0,-6.0,-1.0,-1.0
1701873721.9180794,1.0,-13.0,-12.0,-20.0,-13.0,-9.0,-7.0,-1.0
1701873721.9180794,-3.0,25.0,13.0,14.0,9.0,20.0,17.0,13.0
1701873721.9385128,15.0,3.0,27.0,10.0,12.0,1.0,-3.0,-2.0
1701873721.9385128,-1.0,-15.0,-34.0,-10.0,-7.0,2.0,3.0,-1.0
1701873721.9385128,-22.0,-41.0,5.0,1.0,-1.0,-2.0,-1.0,-6.0
1701873721.9385128,20.0,10.0,23.0,0.0,-12.0,-14.0,-9.0,2.0
1701873721.958077,-8.0,-7.0,-2.0,-15.0,2.0,10.0,7.0,3.0
1701873721.958077,-3.0,8.0,-3.0,38.0,21.0,8.0,8.0,5.0
1701873721.9681215,7.0,0.0,-52.0,-59.0,21.0,11.0,3.0,-4.0
1701873721.9681215,-5.0,-23.0,8.0,-3.0,-29.0,-15.0,-1.0,4.0
1701873721.9783423,-9.0,6.0,9.0,18.0,-23.0,-13.0,-20.0,-12.0
1701873721.9783423,0.0,17.0,62.0,65.0,-6.0,0.0,1.0,-2.0
1701873721.9783423,22.0,53.0,36.0,4.0,41.0,14.0,8.0,8.0
1701873721.9783423,6.0,-17.0,-43.0,-53.0,-23.0,-11.0,-10.0,-7.0
1701873721.9983854,-14.0,-33.0,-4.0,2.0,8.0,3.0,5.0,4.0
1701873721.9983854,-9.0,-15.0,-37.0,-29.0,-13.0,-10.0,-4.0,-7.0
1701873721.9983854,-4.0,-4.0,-14.0,-13.0,-37.0,-22.0,-5.0,-4.0
1701873721.9983854,13.0,22.0,17.0,22.0,21.0,9.0,11.0,24.0
1701873722.0280783,-16.0,-24.0,3.0,-7.0,-25.0,-22.0,-24.0,-26.0
1701873722.0280783,-3.0,43.0,37.0,22.0,19.0,14.0,1.0,17.0
1701873722.0280783,4.0,-18.0,4.0,16.0,9.0,15.0,3.0,-19.0
1701873722.0280783,5.0,-3.0,-16.0,0.0,9.0,-3.0,11.0,17.0
1701873722.0381138,-22.0,0.0,-24.0,-10.0,7.0,50.0,45.0,4.0
1701873722.0381138,13.0,-23.0,-14.0,-27.0,-15.0,-51.0,-69.0,-18.0
1701873722.0484767,-3.0,4.0,2.0,2.0,-21.0,-56.0,-42.0,-23.0
1701873722.0484767,-21.0,3.0,-2.0,15.0,13.0,29.0,31.0,27.0
1701873722.058078,26.0,-2.0,6.0,11.0,11.0,-7.0,-26.0,-1.0
1701873722.058078,4.0,-10.0,-10.0,-32.0,-12.0,-24.0,7.0,-19.0
1701873722.058078,-60.0,-32.0,11.0,7.0,-12.0,21.0,5.0,-5.0
1701873722.058078,-7.0,18.0,27.0,26.0,13.0,15.0,13.0,-4.0
1701873722.0880828,9.0,8.0,-6.0,-13.0,-1.0,2.0,17.0,18.0
1701873722.0880828,8.0,-16.0,-15.0,-14.0,3.0,9.0,10.0,23.0
1701873722.0880828,29.0,29.0,8.0,12.0,-7.0,-32.0,-32.0,-2.0
1701873722.0880828,-16.0,-22.0,-2.0,13.0,13.0,3.0,-10.0,-26.0
1701873722.098339,-6.0,0.0,-12.0,-18.0,-4.0,1.0,2.0,9.0
1701873722.098339,-30.0,-6.0,4.0,4.0,1.0,9.0,10.0,-20.0
1701873722.1083555,-16.0,-16.0,-13.0,-2.0,-3.0,12.0,17.0,8.0
1701873722.1083555,13.0,5.0,27.0,5.0,1.0,3.0,-8.0,-7.0
1701873722.1180863,27.0,15.0,-18.0,-7.0,-4.0,-14.0,-10.0,-2.0
1701873722.1180863,8.0,15.0,5.0,2.0,-2.0,7.0,10.0,5.0
1701873722.128082,6.0,1.0,-4.0,4.0,21.0,18.0,9.0,4.0
1701873722.1381254,9.0,19.0,-14.0,-44.0,-18.0,-16.0,-17.0,-8.0
1701873722.1481729,-14.0,-43.0,-1.0,11.0,2.0,-18.0,-21.0,-24.0
1701873722.1481729,-8.0,20.0,10.0,-1.0,-10.0,8.0,14.0,7.0
1701873722.1481729,11.0,10.0,8.0,17.0,2.0,16.0,13.0,22.0
1701873722.1481729,8.0,-20.0,-23.0,-8.0,-6.0,-12.0,-16.0,-21.0
1701873722.158412,-3.0,6.0,6.0,4.0,6.0,-3.0,10.0,11.0
1701873722.158412,-1.0,-3.0,10.0,3.0,5.0,16.0,12.0,10.0
1701873722.1684258,11.0,20.0,8.0,15.0,-1.0,-2.0,-9.0,-10.0
1701873722.1684258,24.0,-1.0,-14.0,-2.0,-3.0,-7.0,3.0,12.0
1701873722.1881526,-18.0,14.0,-5.0,-17.0,-5.0,-2.0,-7.0,-17.0
1701873722.1881526,-2.0,-24.0,-1.0,3.0,0.0,-7.0,-8.0,2.0
1701873722.1881526,-11.0,-19.0,-20.0,-11.0,-4.0,4.0,18.0,9.0
1701873722.1881526,-7.0,7.0,11.0,8.0,4.0,7.0,-11.0,-35.0
1701873722.1983652,4.0,-4.0,0.0,4.0,1.0,-1.0,13.0,21.0
1701873722.1983652,7.0,12.0,-7.0,-9.0,0.0,0.0,-12.0,-12.0
1701873722.2081475,4.0,-7.0,16.0,9.0,-12.0,-24.0,-21.0,0.0
1701873722.2081475,-3.0,19.0,0.0,1.0,2.0,12.0,17.0,8.0
1701873722.2184014,-4.0,-21.0,-9.0,-3.0,-1.0,4.0,4.0,8.0
1701873722.2184014,0.0,2.0,-2.0,1.0,2.0,-2.0,6.0,-1.0
1701873722.2284882,6.0,19.0,9.0,6.0,5.0,8.0,-13.0,-17.0
1701873722.2284882,-17.0,-69.0,-22.0,-8.0,-5.0,-14.0,-13.0,3.0
1701873722.2585082,-17.0,26.0,31.0,-5.0,-12.0,-9.0,-6.0,-4.0
1701873722.2585082,20.0,-14.0,-30.0,-9.0,-4.0,1.0,2.0,0.0
1701873722.2585082,8.0,28.0,17.0,8.0,17.0,15.0,11.0,12.0
1701873722.2585082,9.0,7.0,-1.0,9.0,8.0,-3.0,-5.0,-3.0
1701873722.2585082,10.0,25.0,8.0,-4.0,-7.0,-1.0,1.0,2.0
1701873722.2585082,-23.0,-37.0,-13.0,-11.0,-6.0,-7.0,-9.0,-18.0
1701873722.268511,-4.0,-6.0,-5.0,-6.0,-10.0,-6.0,7.0,-2.0
1701873722.268511,3.0,6.0,5.0,9.0,-2.0,-6.0,-19.0,1.0
1701873722.2785723,14.0,2.0,-6.0,5.0,9.0,25.0,37.0,22.0
1701873722.2785723,-1.0,35.0,30.0,8.0,7.0,8.0,-3.0,-14.0
1701873722.2888112,-2.0,1.0,-6.0,4.0,1.0,-4.0,-7.0,-14.0
1701873722.2888112,-4.0,-3.0,0.0,-1.0,1.0,11.0,20.0,15.0
1701873722.298651,-13.0,-21.0,-18.0,-8.0,-6.0,-9.0,-15.0,-17.0
1701873722.298651,6.0,-8.0,0.0,-1.0,0.0,8.0,11.0,10.0
1701873722.3085115,13.0,15.0,15.0,6.0,1.0,3.0,10.0,18.0
1701873722.3085115,-3.0,9.0,-23.0,-18.0,-8.0,-13.0,-11.0,-11.0
1701873722.3185074,-20.0,-34.0,-34.0,-11.0,-4.0,-9.0,-18.0,-21.0
1701873722.3185074,14.0,9.0,1.0,7.0,2.0,8.0,13.0,16.0
1701873722.3185074,-19.0,-11.0,2.0,-2.0,-1.0,-8.0,-6.0,-13.0
1701873722.3185074,5.0,-9.0,14.0,6.0,3.0,0.0,2.0,6.0
1701873722.3485076,6.0,22.0,19.0,7.0,4.0,-4.0,-3.0,-1.0
1701873722.3485076,-14.0,-33.0,-39.0,-14.0,-6.0,-8.0,0.0,3.0
1701873722.3485076,-23.0,-2.0,-6.0,-8.0,-6.0,0.0,9.0,-3.0
1701873722.3485076,15.0,-8.0,7.0,3.0,-6.0,0.0,-3.0,1.0
1701873722.3642623,-2.0,12.0,-19.0,-5.0,5.0,-2.0,-8.0,-3.0
1701873722.3642623,-13.0,-34.0,-6.0,-9.0,-7.0,-3.0,-10.0,-21.0
1701873722.3651779,17.0,33.0,16.0,3.0,0.0,3.0,3.0,6.0
1701873722.3651779,-23.0,-44.0,-11.0,-6.0,-1.0,2.0,6.0,-3.0
1701873722.380974,9.0,11.0,24.0,12.0,-3.0,-7.0,-8.0,10.0
1701873722.380974,1.0,5.0,-40.0,-11.0,-3.0,-9.0,-3.0,-8.0
1701873722.380974,25.0,13.0,-16.0,-7.0,0.0,10.0,3.0,4.0
1701873722.380974,9.0,24.0,5.0,7.0,3.0,0.0,-6.0,-2.0
1701873722.400978,-1.0,-18.0,1.0,-6.0,-4.0,-4.0,-1.0,-3.0
1701873722.400978,5.0,-5.0,-2.0,-1.0,3.0,4.0,6.0,24.0
1701873722.400978,-5.0,-4.0,-12.0,-13.0,-9.0,-20.0,-21.0,-16.0
1701873722.400978,2.0,23.0,11.0,10.0,7.0,4.0,-9.0,-8.0
1701873722.4213507,-1.0,-18.0,2.0,4.0,2.0,9.0,20.0,11.0
1701873722.4213507,13.0,39.0,10.0,0.0,-2.0,-15.0,-28.0,-10.0
1701873722.4213507,-8.0,-45.0,-10.0,-2.0,1.0,33.0,47.0,11.0
1701873722.4213507,10.0,26.0,0.0,-10.0,-4.0,-6.0,-11.0,2.0
1701873722.4509754,-1.0,-50.0,-10.0,0.0,1.0,5.0,3.0,-15.0
1701873722.4509754,17.0,44.0,4.0,-1.0,0.0,-13.0,-11.0,14.0
1701873722.4509754,2.0,9.0,6.0,2.0,-5.0,-7.0,-5.0,-6.0
1701873722.4509754,-19.0,-25.0,-22.0,-8.0,-8.0,-9.0,-11.0,-6.0
1701873722.4612186,11.0,-7.0,-3.0,-7.0,-5.0,-6.0,-2.0,4.0
1701873722.4612186,-4.0,15.0,29.0,13.0,5.0,16.0,17.0,-9.0
1701873722.4612186,7.0,9.0,-2.0,-8.0,-3.0,1.0,-8.0,5.0
1701873722.4612186,10.0,1.0,-1.0,8.0,0.0,-1.0,11.0,8.0
1701873722.4812322,2.0,1.0,6.0,-5.0,1.0,-6.0,-5.0,1.0
1701873722.4812322,-7.0,41.0,33.0,18.0,4.0,-4.0,-9.0,-8.0
1701873722.4912462,1.0,13.0,-5.0,-15.0,-3.0,-2.0,3.0,2.0
1701873722.4912462,-43.0,-41.0,-14.0,-18.0,-8.0,-6.0,-7.0,-14.0
1701873722.520979,-24.0,-64.0,-42.0,-16.0,-7.0,-10.0,-12.0,-9.0
1701873722.520979,2.0,38.0,18.0,6.0,5.0,10.0,6.0,-1.0
1701873722.5309803,3.0,-17.0,4.0,18.0,7.0,-2.0,-4.0,0.0
1701873722.5309803,-1.0,-15.0,-8.0,-4.0,0.0,-3.0,-2.0,-2.0
1701873722.5309803,5.0,7.0,24.0,6.0,-2.0,-5.0,-8.0,-1.0
1701873722.5309803,-25.0,-39.0,-5.0,-11.0,-9.0,-3.0,4.0,2.0
1701873722.5309803,1.0,16.0,1.0,-4.0,-3.0,-8.0,-10.0,-11.0
1701873722.5309803,9.0,-2.0,-29.0,-4.0,-1.0,15.0,15.0,0.0
1701873722.5413249,-21.0,28.0,9.0,9.0,9.0,-3.0,-14.0,-4.0
1701873722.5413249,3.0,12.0,25.0,12.0,8.0,7.0,-2.0,-2.0
1701873722.5413249,4.0,-9.0,-8.0,-9.0,-6.0,4.0,8.0,12.0
1701873722.5413249,-13.0,-5.0,-3.0,0.0,-2.0,-8.0,2.0,23.0
1701873722.5709765,14.0,35.0,11.0,5.0,0.0,4.0,-3.0,-25.0
1701873722.5709765,2.0,-17.0,-16.0,-8.0,1.0,4.0,15.0,21.0
1701873722.5709765,-22.0,-23.0,-1.0,-1.0,0.0,-9.0,-10.0,-16.0
1701873722.5709765,30.0,48.0,7.0,6.0,-3.0,-1.0,9.0,28.0
1701873722.5813363,-39.0,-60.0,-1.0,4.0,5.0,8.0,1.0,-17.0
1701873722.5813363,-5.0,-3.0,6.0,-2.0,-3.0,-8.0,-22.0,-7.0
1701873722.5813363,-3.0,-11.0,-9.0,-7.0,-8.0,-8.0,-1.0,0.0
1701873722.5813363,13.0,25.0,4.0,-1.0,1.0,-1.0,1.0,-10.0
1701873722.6013389,10.0,28.0,10.0,4.0,5.0,13.0,5.0,-11.0
1701873722.6013389,-2.0,-21.0,-16.0,2.0,-1.0,3.0,-8.0,-22.0
1701873722.6013389,5.0,0.0,-12.0,-19.0,-11.0,-1.0,8.0,12.0
1701873722.6013389,1.0,-3.0,24.0,16.0,3.0,-10.0,-30.0,-19.0
1701873722.6309755,3.0,3.0,-4.0,4.0,12.0,-1.0,0.0,6.0
1701873722.6309755,-5.0,-16.0,-14.0,-5.0,-6.0,0.0,9.0,4.0
1701873722.6309755,1.0,0.0,-12.0,-14.0,1.0,-9.0,-16.0,-5.0
1701873722.6309755,-21.0,-41.0,4.0,3.0,-4.0,2.0,2.0,-7.0
1701873722.641315,11.0,18.0,8.0,11.0,0.0,0.0,7.0,13.0
1701873722.641315,11.0,3.0,-14.0,-17.0,-6.0,2.0,5.0,-4.0
1701873722.641315,-1.0,-4.0,4.0,7.0,4.0,-2.0,-1.0,4.0
1701873722.641315,-11.0,-34.0,-21.0,-18.0,-8.0,-6.0,-4.0,-7.0
1701873722.660974,3.0,34.0,9.0,6.0,-12.0,-7.0,-9.0,-4.0
1701873722.660974,-8.0,-14.0,-3.0,0.0,-1.0,-1.0,5.0,12.0
1701873722.660974,-2.0,2.0,13.0,15.0,13.0,5.0,-3.0,2.0
1701873722.660974,-29.0,18.0,0.0,-1.0,7.0,11.0,4.0,-15.0
1701873722.680973,8.0,-8.0,-9.0,-5.0,-5.0,2.0,7.0,11.0
1701873722.680973,-10.0,20.0,19.0,-4.0,-8.0,-9.0,-8.0,-1.0
1701873722.680973,-25.0,-62.0,-19.0,-2.0,-4.0,-5.0,-1.0,-6.0
1701873722.680973,37.0,47.0,14.0,2.0,3.0,9.0,18.0,16.0
1701873722.701358,6.0,12.0,-2.0,0.0,-2.0,-5.0,-6.0,4.0
1701873722.701358,-11.0,-35.0,-16.0,-16.0,-8.0,-6.0,-2.0,-20.0
1701873722.701358,12.0,-12.0,-14.0,0.0,-1.0,-1.0,2.0,11.0
1701873722.701358,21.0,36.0,14.0,6.0,4.0,-2.0,-6.0,5.0
1701873722.7212687,-8.0,-7.0,-9.0,-12.0,-10.0,-9.0,-5.0,-9.0
1701873722.7212687,-3.0,-24.0,2.0,4.0,3.0,10.0,5.0,9.0
1701873722.7312696,-4.0,1.0,-10.0,0.0,-4.0,-8.0,-9.0,-8.0
1701873722.7312696,-7.0,-23.0,-3.0,-7.0,-6.0,-9.0,-6.0,-7.0
1701873722.7509773,-16.0,10.0,-10.0,-12.0,-4.0,-5.0,-3.0,4.0
1701873722.7509773,19.0,13.0,1.0,6.0,5.0,14.0,20.0,13.0
1701873722.7509773,-2.0,9.0,17.0,4.0,-2.0,0.0,1.0,-6.0
1701873722.7509773,-7.0,-14.0,12.0,7.0,0.0,-9.0,-9.0,-8.0
1701873722.7609756,9.0,8.0,-16.0,-2.0,6.0,15.0,15.0,12.0
1701873722.7609756,-17.0,-2.0,-1.0,-8.0,-3.0,1.0,6.0,-1.0
1701873722.7609756,-14.0,9.0,11.0,14.0,0.0,1.0,-6.0,-13.0
1701873722.7609756,-6.0,28.0,12.0,-5.0,-5.0,-17.0,-29.0,-18.0
1701873722.781344,-10.0,-26.0,-7.0,-8.0,0.0,-4.0,0.0,0.0
1701873722.781344,-12.0,-17.0,-2.0,9.0,1.0,-8.0,-15.0,-7.0
1701873722.781344,5.0,14.0,-5.0,-9.0,-3.0,0.0,-1.0,2.0
1701873722.781344,39.0,6.0,4.0,7.0,-1.0,3.0,12.0,17.0
1701873722.8009996,-23.0,-11.0,-2.0,-3.0,-7.0,-11.0,-11.0,-11.0
1701873722.8009996,-15.0,-42.0,-12.0,2.0,2.0,2.0,2.0,-2.0
1701873722.8009996,-14.0,-8.0,-8.0,-7.0,-9.0,-7.0,-4.0,-10.0
1701873722.8009996,-6.0,23.0,6.0,-4.0,-4.0,0.0,-3.0,-8.0
1701873722.8213782,18.0,16.0,-10.0,-8.0,1.0,4.0,6.0,9.0
1701873722.8213782,-9.0,-22.0,14.0,8.0,1.0,-2.0,-2.0,-6.0
1701873722.8213782,-7.0,-5.0,-22.0,-5.0,5.0,1.0,2.0,10.0
1701873722.8213782,5.0,-9.0,9.0,-1.0,0.0,-4.0,-2.0,6.0
1701873722.8412933,6.0,9.0,-21.0,-7.0,-4.0,5.0,11.0,2.0
1701873722.8412933,12.0,25.0,7.0,-1.0,-10.0,-16.0,-14.0,-24.0
1701873722.8412933,9.0,9.0,12.0,4.0,4.0,5.0,0.0,1.0
1701873722.8412933,-21.0,-4.0,-4.0,1.0,6.0,16.0,15.0,2.0
1701873722.8610003,3.0,21.0,29.0,17.0,5.0,-7.0,-8.0,-7.0
1701873722.8610003,20.0,20.0,-5.0,6.0,7.0,6.0,9.0,26.0
1701873722.8610003,-5.0,-22.0,-5.0,-14.0,-8.0,1.0,4.0,13.0
1701873722.8610003,8.0,22.0,-15.0,-7.0,-11.0,-17.0,-17.0,-12.0
1701873722.8898017,-30.0,-44.0,3.0,-4.0,-5.0,-5.0,-19.0,-33.0
1701873722.8898017,8.0,-8.0,-27.0,-17.0,-7.0,-7.0,-10.0,-13.0
1701873722.8898017,2.0,-19.0,-3.0,9.0,4.0,-7.0,-8.0,2.0
1701873722.8898017,8.0,-13.0,-23.0,-21.0,-5.0,10.0,22.0,16.0
1701873722.9048781,4.0,13.0,6.0,7.0,2.0,5.0,-1.0,-10.0
1701873722.9048781,1.0,8.0,10.0,0.0,-3.0,-7.0,-1.0,8.0
1701873722.9048781,10.0,8.0,0.0,-6.0,-2.0,-7.0,-10.0,3.0
1701873722.9048781,-3.0,-20.0,-12.0,-2.0,1.0,2.0,5.0,-5.0
1701873722.9242132,10.0,20.0,16.0,16.0,12.0,8.0,7.0,14.0
1701873722.9242132,25.0,22.0,1.0,12.0,16.0,10.0,12.0,10.0
1701873722.9242132,7.0,34.0,10.0,15.0,0.0,-6.0,-7.0,-9.0
1701873722.9242132,4.0,-14.0,-5.0,-6.0,-5.0,-6.0,-8.0,-2.0
1701873722.944247,-35.0,-12.0,1.0,-14.0,-14.0,-2.0,5.0,-2.0
1701873722.944247,10.0,29.0,9.0,-1.0,-3.0,-1.0,4.0,11.0
1701873722.954182,4.0,26.0,41.0,22.0,10.0,5.0,1.0,-13.0
1701873722.954182,-6.0,-10.0,-42.0,-5.0,-2.0,7.0,7.0,-1.0
1701873722.9640894,29.0,-16.0,-15.0,-15.0,-11.0,-13.0,-14.0,-1.0
1701873722.9640894,-18.0,37.0,12.0,3.0,-2.0,-7.0,-5.0,7.0
1701873722.9640894,2.0,23.0,7.0,-5.0,0.0,14.0,26.0,8.0
1701873722.9640894,-7.0,-31.0,12.0,11.0,7.0,18.0,11.0,-12.0
1701873722.9838676,9.0,17.0,4.0,2.0,4.0,-6.0,-6.0,5.0
1701873722.9838676,-27.0,-90.0,-28.0,-10.0,-5.0,-17.0,-16.0,-4.0
1701873722.9838676,30.0,73.0,-3.0,-9.0,-7.0,0.0,10.0,18.0
1701873722.9838676,-24.0,-45.0,30.0,17.0,7.0,2.0,-8.0,-10.0
1701873723.0043166,17.0,37.0,-1.0,2.0,-1.0,-1.0,11.0,5.0
1701873723.0043166,-9.0,-18.0,4.0,-12.0,-9.0,-3.0,-7.0,-10.0
1701873723.0043166,-5.0,-4.0,12.0,5.0,0.0,-2.0,-9.0,-2.0
1701873723.0043166,-16.0,55.0,17.0,11.0,7.0,4.0,8.0,-4.0
1701873723.0243278,-5.0,-21.0,-13.0,-17.0,-11.0,-13.0,-9.0,10.0
1701873723.0243278,10.0,-9.0,-1.0,7.0,4.0,4.0,3.0,-7.0
1701873723.0243278,-18.0,-45.0,-55.0,-30.0,-8.0,-7.0,-5.0,-1.0
1701873723.0243278,25.0,14.0,29.0,17.0,6.0,9.0,11.0,13.0
1701873723.0543396,-7.0,2.0,-1.0,-3.0,3.0,-1.0,-10.0,-9.0
1701873723.0543396,8.0,34.0,14.0,2.0,0.0,6.0,7.0,3.0
1701873723.0543396,-14.0,-30.0,-5.0,2.0,0.0,2.0,-6.0,-11.0
1701873723.0543396,-6.0,-29.0,-25.0,-11.0,-4.0,-11.0,-8.0,-1.0
1701873723.0646377,-1.0,-33.0,-6.0,7.0,3.0,3.0,5.0,14.0
1701873723.0646377,7.0,-2.0,1.0,1.0,5.0,8.0,8.0,2.0
1701873723.0646377,4.0,21.0,21.0,4.0,1.0,2.0,0.0,-7.0
1701873723.0646377,-10.0,-22.0,-25.0,-7.0,-4.0,-12.0,-10.0,-12.0
1701873723.0843325,-25.0,-32.0,-27.0,-16.0,0.0,10.0,16.0,26.0
1701873723.0843325,-14.0,18.0,5.0,-4.0,-7.0,-4.0,-11.0,-15.0
1701873723.0843325,2.0,-14.0,18.0,20.0,11.0,5.0,-3.0,-9.0
1701873723.0843325,-15.0,39.0,-1.0,-10.0,-3.0,-7.0,-2.0,1.0
1701873723.104329,10.0,21.0,0.0,-7.0,-10.0,-13.0,-7.0,-8.0
1701873723.104329,26.0,-21.0,-6.0,2.0,3.0,4.0,11.0,22.0
1701873723.1143262,-10.0,8.0,16.0,10.0,1.0,0.0,-8.0,-13.0
1701873723.1143262,11.0,45.0,-3.0,-4.0,-6.0,-5.0,1.0,2.0
1701873723.1243298,-11.0,-24.0,-6.0,3.0,2.0,0.0,0.0,-11.0
1701873723.1243298,-10.0,11.0,-3.0,-8.0,-8.0,-4.0,0.0,-8.0
1701873723.1243298,10.0,-11.0,-6.0,-9.0,-1.0,-4.0,-21.0,-15.0
1701873723.1243298,11.0,2.0,14.0,5.0,2.0,13.0,15.0,11.0
1701873723.1447017,-2.0,3.0,11.0,9.0,-1.0,-7.0,-13.0,-3.0
1701873723.1447017,-3.0,5.0,-11.0,-7.0,0.0,9.0,15.0,5.0
1701873723.1447017,-11.0,-35.0,-19.0,-2.0,-5.0,-4.0,1.0,10.0
1701873723.1447017,-3.0,-7.0,17.0,-1.0,1.0,-5.0,-6.0,-3.0
1701873723.164757,15.0,33.0,24.0,20.0,3.0,7.0,6.0,3.0
1701873723.164757,0.0,2.0,17.0,40.0,-1.0,-1.0,-14.0,-13.0
1701873723.164757,-5.0,-14.0,-22.0,-17.0,27.0,4.0,6.0,5.0
1701873723.164757,19.0,38.0,2.0,-4.0,-4.0,-9.0,-8.0,6.0
1701873723.1843305,1.0,4.0,12.0,15.0,-13.0,-9.0,-4.0,-5.0
1701873723.1843305,-1.0,14.0,36.0,25.0,-8.0,-7.0,-6.0,-6.0
1701873723.1843305,1.0,-3.0,-25.0,-12.0,6.0,5.0,4.0,2.0
1701873723.1843305,5.0,-6.0,-29.0,-12.0,5.0,2.0,0.0,2.0
1701873723.2045834,-6.0,3.0,2.0,5.0,-7.0,-9.0,-10.0,-9.0
1701873723.2045834,13.0,33.0,0.0,-25.0,-3.0,-4.0,-5.0,0.0
1701873723.2045834,-13.0,-34.0,16.0,-3.0,-25.0,-11.0,4.0,5.0
1701873723.2045834,-25.0,-70.0,-52.0,-17.0,4.0,-2.0,-12.0,-19.0
1701873723.2243917,8.0,-4.0,5.0,12.0,1.0,7.0,13.0,20.0
1701873723.2243917,-5.0,30.0,-1.0,-5.0,-2.0,1.0,4.0,8.0
1701873723.2243917,9.0,2.0,-8.0,-5.0,-11.0,-12.0,-10.0,-8.0
1701873723.2243917,7.0,9.0,11.0,12.0,0.0,2.0,10.0,9.0
1701873723.2543263,-16.0,-12.0,-8.0,-9.0,2.0,4.0,-17.0,-26.0
1701873723.2543263,9.0,-18.0,-18.0,-4.0,2.0,-2.0,2.0,7.0
1701873723.2543263,-3.0,24.0,1.0,-8.0,-8.0,5.0,9.0,-9.0
1701873723.2543263,-13.0,-8.0,13.0,7.0,-3.0,36.0,45.0,9.0
1701873723.26457,-14.0,-11.0,-16.0,-11.0,0.0,3.0,-29.0,-32.0
1701873723.26457,6.0,17.0,4.0,-11.0,2.0,-38.0,-28.0,-30.0
1701873723.26457,-5.0,-14.0,-16.0,-11.0,-22.0,-26.0,-25.0,0.0
1701873723.26457,19.0,-11.0,3.0,9.0,5.0,26.0,40.0,32.0
1701873723.3043327,-14.0,-7.0,5.0,-10.0,8.0,24.0,29.0,1.0
1701873723.3043327,-70.0,-58.0,-19.0,-7.0,2.0,8.0,-8.0,-7.0
1701873723.3043327,21.0,3.0,-3.0,5.0,-6.0,-15.0,-18.0,3.0
1701873723.3043327,2.0,10.0,8.0,-2.0,-8.0,-30.0,-29.0,-10.0
1701873723.3043327,0.0,40.0,22.0,6.0,13.0,9.0,6.0,3.0
1701873723.3043327,-2.0,-33.0,-29.0,-13.0,-8.0,-11.0,-24.0,-24.0
1701873723.3043327,-7.0,6.0,28.0,22.0,8.0,11.0,20.0,13.0
1701873723.3043327,-13.0,-10.0,-21.0,-21.0,-14.0,-8.0,-13.0,-7.0
1701873723.3246675,15.0,-12.0,-11.0,-8.0,-6.0,-13.0,-10.0,-6.0
1701873723.3246675,9.0,-3.0,-21.0,-8.0,17.0,15.0,18.0,19.0
1701873723.3246675,-8.0,6.0,22.0,20.0,7.0,13.0,11.0,-1.0
1701873723.3246675,9.0,4.0,-28.0,-35.0,-8.0,-6.0,-18.0,-8.0
1701873723.3543289,-2.0,-31.0,-25.0,-11.0,-10.0,-17.0,-5.0,5.0
1701873723.3543289,10.0,23.0,23.0,-3.0,-2.0,9.0,14.0,10.0
1701873723.3543289,7.0,7.0,1.0,8.0,4.0,7.0,4.0,5.0
1701873723.3543289,-20.0,-19.0,17.0,21.0,1.0,-16.0,-20.0,-16.0
1701873723.364734,18.0,54.0,11.0,3.0,1.0,0.0,15.0,25.0
1701873723.364734,-1.0,-43.0,-34.0,-11.0,-6.0,10.0,1.0,-12.0
1701873723.364734,-12.0,-31.0,-20.0,-10.0,-6.0,-5.0,-4.0,-9.0
1701873723.364734,5.0,8.0,16.0,7.0,0.0,-4.0,-4.0,6.0
1701873723.3843281,1.0,-7.0,-11.0,-5.0,5.0,2.0,9.0,9.0
1701873723.3843281,7.0,21.0,14.0,6.0,-1.0,2.0,5.0,5.0
1701873723.3843281,9.0,6.0,-15.0,-7.0,-1.0,1.0,-15.0,-11.0
1701873723.3843281,-9.0,1.0,3.0,-1.0,0.0,-3.0,1.0,-6.0
1701873723.4147174,-6.0,6.0,12.0,8.0,6.0,4.0,2.0,5.0
1701873723.4147174,12.0,-8.0,9.0,8.0,-6.0,-9.0,-6.0,1.0
1701873723.4147174,-8.0,-1.0,-8.0,-5.0,1.0,6.0,19.0,8.0
1701873723.4147174,4.0,3.0,-3.0,-6.0,-7.0,-9.0,-23.0,-15.0
1701873723.4293208,5.0,10.0,13.0,3.0,1.0,3.0,0.0,-3.0
1701873723.4293208,-6.0,-7.0,-7.0,0.0,0.0,0.0,11.0,15.0
1701873723.430335,-3.0,4.0,9.0,-2.0,-1.0,1.0,-5.0,-16.0
1701873723.430335,4.0,2.0,-5.0,10.0,2.0,2.0,3.0,1.0
1701873723.444803,-6.0,-18.0,-8.0,-19.0,-8.0,-11.0,-8.0,-1.0
1701873723.444803,-12.0,0.0,-5.0,-11.0,0.0,-1.0,-7.0,-18.0
1701873723.444803,16.0,14.0,2.0,1.0,9.0,1.0,4.0,18.0
1701873723.444803,-22.0,0.0,10.0,1.0,1.0,-4.0,-4.0,-2.0
1701873723.4666455,2.0,-2.0,-3.0,-1.0,-7.0,-5.0,-12.0,-18.0
1701873723.4666455,9.0,20.0,-5.0,-6.0,-3.0,5.0,16.0,30.0
1701873723.4666455,-9.0,2.0,3.0,2.0,-4.0,-8.0,-29.0,-48.0
1701873723.4666455,5.0,-4.0,9.0,8.0,1.0,-1.0,-2.0,-6.0
1701873723.4870608,-3.0,-7.0,-5.0,-4.0,-1.0,-3.0,-3.0,-12.0
1701873723.4870608,1.0,4.0,0.0,-1.0,-4.0,0.0,4.0,9.0
1701873723.4870608,1.0,-9.0,-8.0,-2.0,-4.0,-1.0,6.0,0.0
1701873723.4870608,-4.0,-6.0,-5.0,-5.0,-6.0,-13.0,-22.0,-9.0
1701873723.4970765,-3.0,-10.0,-4.0,6.0,0.0,6.0,10.0,-5.0
1701873723.4970765,10.0,1.0,3.0,-5.0,-1.0,-3.0,-9.0,3.0
1701873723.5170732,-9.0,-7.0,-15.0,-15.0,-6.0,-5.0,-7.0,-1.0
1701873723.5170732,-3.0,-1.0,10.0,4.0,2.0,-2.0,3.0,-7.0
1701873723.5270972,0.0,-12.0,-10.0,-6.0,-7.0,-8.0,-5.0,8.0
1701873723.5270972,2.0,-2.0,-10.0,3.0,1.0,1.0,-3.0,-4.0
1701873723.5270972,-4.0,-1.0,18.0,4.0,-1.0,4.0,6.0,10.0
1701873723.5270972,-2.0,10.0,18.0,5.0,2.0,0.0,-1.0,3.0
1701873723.5474012,-8.0,-17.0,-43.0,-17.0,-3.0,0.0,-1.0,-2.0
1701873723.5474012,-1.0,0.0,7.0,9.0,7.0,2.0,1.0,-3.0
1701873723.5474012,2.0,-1.0,-7.0,-7.0,-3.0,0.0,5.0,4.0
1701873723.5474012,7.0,1.0,8.0,0.0,-4.0,-3.0,0.0,10.0
1701873723.5570762,5.0,6.0,18.0,10.0,6.0,3.0,2.0,4.0
1701873723.5570762,-11.0,7.0,0.0,-2.0,-4.0,-3.0,-8.0,-22.0
1701873723.5870714,7.0,3.0,-6.0,6.0,5.0,2.0,10.0,16.0
1701873723.5870714,-1.0,-3.0,-4.0,-4.0,-7.0,-8.0,-12.0,-13.0
1701873723.5870714,3.0,4.0,4.0,0.0,-4.0,5.0,5.0,11.0
1701873723.5870714,-1.0,2.0,1.0,1.0,2.0,0.0,1.0,3.0
1701873723.5870714,-8.0,-9.0,-14.0,-2.0,5.0,2.0,6.0,3.0
1701873723.5870714,-3.0,-3.0,0.0,-1.0,1.0,3.0,6.0,-1.0
1701873723.6074636,8.0,15.0,9.0,0.0,3.0,-3.0,-12.0,6.0
1701873723.6074636,-13.0,-5.0,6.0,1.0,-7.0,-3.0,1.0,-18.0
1701873723.6074636,5.0,-2.0,-1.0,3.0,-5.0,-5.0,-5.0,7.0
1701873723.6074636,-7.0,-11.0,-9.0,2.0,4.0,3.0,11.0,7.0
1701873723.6170723,13.0,16.0,3.0,-1.0,2.0,0.0,-2.0,5.0
1701873723.6170723,-2.0,-18.0,-6.0,-3.0,1.0,1.0,0.0,2.0
1701873723.6370716,-6.0,-5.0,-3.0,-6.0,-4.0,-5.0,-8.0,-9.0
1701873723.6370716,5.0,-4.0,0.0,8.0,-1.0,3.0,8.0,13.0
1701873723.6471121,-3.0,-5.0,4.0,10.0,1.0,-2.0,-8.0,-13.0
1701873723.6471121,-2.0,-2.0,-13.0,-19.0,4.0,2.0,3.0,1.0
1701873723.6471121,-4.0,-3.0,1.0,1.0,-1.0,2.0,4.0,-4.0
1701873723.6471121,6.0,-7.0,-10.0,-9.0,-4.0,-4.0,-13.0,-15.0
1701873723.6674662,-7.0,-6.0,11.0,1.0,-4.0,-2.0,6.0,1.0
1701873723.6674662,12.0,14.0,6.0,11.0,-2.0,-1.0,-2.0,2.0
1701873723.6674662,-7.0,4.0,-3.0,0.0,6.0,2.0,9.0,9.0
1701873723.6674662,1.0,6.0,11.0,0.0,0.0,3.0,4.0,9.0
1701873723.6770718,-1.0,-1.0,0.0,-1.0,0.0,-2.0,5.0,10.0
1701873723.6770718,0.0,-4.0,-10.0,0.0,-5.0,-6.0,-12.0,-5.0
1701873723.697073,7.0,-3.0,3.0,4.0,5.0,6.0,17.0,18.0
1701873723.697073,-11.0,-5.0,-10.0,-14.0,-4.0,-4.0,-11.0,-19.0
1701873723.707075,-6.0,-5.0,-5.0,-2.0,-1.0,-2.0,-2.0,3.0
1701873723.707075,6.0,-4.0,0.0,2.0,-4.0,-3.0,3.0,9.0
1701873723.707075,-14.0,5.0,8.0,-2.0,-5.0,-5.0,-15.0,-27.0
1701873723.707075,0.0,-7.0,-14.0,-4.0,5.0,-1.0,2.0,11.0
1701873723.7273915,4.0,-10.0,-5.0,-3.0,-2.0,4.0,11.0,9.0
1701873723.7273915,-2.0,6.0,13.0,2.0,0.0,0.0,0.0,6.0
1701873723.7273915,6.0,5.0,10.0,4.0,-2.0,-7.0,-20.0,-12.0
1701873723.7273915,1.0,2.0,-14.0,-1.0,1.0,7.0,7.0,-3.0
1701873723.7370768,-6.0,-9.0,-3.0,-6.0,-3.0,-3.0,0.0,-9.0
1701873723.7370768,-8.0,-4.0,-3.0,2.0,1.0,6.0,6.0,0.0
1701873723.777071,6.0,3.0,3.0,-1.0,-1.0,-2.0,3.0,9.0
1701873723.777071,2.0,5.0,8.0,0.0,-4.0,-2.0,0.0,9.0
1701873723.777071,3.0,5.0,1.0,6.0,9.0,-5.0,-17.0,-20.0
1701873723.777071,-4.0,-3.0,1.0,2.0,1.0,-2.0,-5.0,-2.0
1701873723.777071,3.0,-6.0,-13.0,-5.0,-4.0,1.0,5.0,-5.0
1701873723.777071,-3.0,-3.0,13.0,1.0,-1.0,-5.0,-6.0,-2.0
1701873723.7872944,8.0,16.0,-5.0,-6.0,-3.0,3.0,9.0,3.0
1701873723.7872944,-1.0,3.0,1.0,3.0,4.0,1.0,3.0,-1.0
1701873723.7872944,4.0,10.0,-3.0,-1.0,-4.0,-4.0,-7.0,2.0
1701873723.7872944,-4.0,-5.0,-10.0,-7.0,-4.0,-4.0,1.0,1.0
1701873723.807103,-14.0,-6.0,4.0,-1.0,-1.0,1.0,-5.0,-13.0
1701873723.807103,-2.0,1.0,-3.0,-1.0,0.0,2.0,6.0,3.0
1701873723.807103,-2.0,2.0,-1.0,-4.0,-2.0,2.0,-4.0,-8.0
1701873723.807103,-4.0,4.0,4.0,5.0,-1.0,-4.0,-2.0,-1.0
1701873723.8271425,2.0,0.0,2.0,2.0,-3.0,-3.0,0.0,3.0
1701873723.8271425,-14.0,-24.0,-26.0,-17.0,-7.0,-7.0,-5.0,-16.0
1701873723.8271425,2.0,-2.0,9.0,5.0,3.0,4.0,14.0,18.0
1701873723.8271425,-5.0,6.0,-1.0,-4.0,-1.0,-7.0,-31.0,-32.0
1701873723.8474061,-6.0,-17.0,-1.0,-1.0,-1.0,0.0,0.0,-6.0
1701873723.8474061,15.0,6.0,13.0,4.0,-1.0,-4.0,0.0,13.0
1701873723.8474061,2.0,-8.0,-12.0,-4.0,-5.0,-1.0,-11.0,-20.0
1701873723.8474061,-2.0,11.0,12.0,0.0,4.0,6.0,6.0,18.0
1701873723.8673427,1.0,13.0,16.0,12.0,3.0,-3.0,-3.0,-3.0
1701873723.8673427,-8.0,-15.0,-21.0,-9.0,-8.0,-10.0,-8.0,-10.0
1701873723.8673427,-5.0,-18.0,-22.0,-13.0,-4.0,-3.0,1.0,-2.0
1701873723.8673427,1.0,12.0,9.0,7.0,1.0,2.0,10.0,14.0
1701873723.8871248,-1.0,18.0,6.0,0.0,0.0,3.0,-1.0,3.0
1701873723.8871248,-9.0,-8.0,4.0,3.0,3.0,2.0,3.0,0.0
1701873723.8871248,6.0,-1.0,2.0,-5.0,3.0,0.0,-4.0,9.0
1701873723.8871248,-2.0,-18.0,-10.0,-5.0,-7.0,-7.0,2.0,-10.0
1701873723.9074886,2.0,-15.0,-22.0,-12.0,-5.0,-2.0,5.0,15.0
1701873723.9074886,-7.0,16.0,17.0,4.0,-1.0,-2.0,-11.0,-18.0
1701873723.9074886,-12.0,-5.0,-8.0,4.0,2.0,-1.0,-4.0,-14.0
1701873723.9074886,-1.0,-4.0,-6.0,-5.0,-1.0,6.0,7.0,-7.0
1701873723.9271042,3.0,0.0,6.0,4.0,-1.0,2.0,4.0,11.0
1701873723.9271042,12.0,9.0,16.0,11.0,2.0,4.0,0.0,8.0
1701873723.9271042,-6.0,-6.0,-9.0,-9.0,-6.0,-5.0,-13.0,-14.0
1701873723.9271042,-2.0,-5.0,-4.0,1.0,1.0,-1.0,10.0,14.0
1701873723.9370801,-4.0,-5.0,-3.0,-6.0,-5.0,-3.0,0.0,-10.0
1701873723.9370801,1.0,33.0,22.0,11.0,7.0,6.0,-6.0,-13.0
1701873723.947076,-11.0,-1.0,-7.0,-3.0,2.0,-1.0,5.0,14.0
1701873723.947076,2.0,4.0,6.0,3.0,-4.0,-6.0,-18.0,-20.0
1701873723.979172,10.0,-17.0,-18.0,-9.0,-3.0,1.0,3.0,6.0
1701873723.979172,-10.0,-14.0,-3.0,-10.0,-6.0,-6.0,3.0,11.0
1701873723.979172,3.0,10.0,7.0,8.0,2.0,1.0,-9.0,-7.0
1701873723.979172,-3.0,1.0,-9.0,-4.0,0.0,3.0,6.0,8.0
1701873723.979172,0.0,0.0,1.0,2.0,-1.0,-5.0,-4.0,0.0
1701873723.979172,-2.0,-12.0,-2.0,-2.0,-1.0,0.0,4.0,3.0
1701873723.979172,8.0,4.0,6.0,5.0,-2.0,0.0,7.0,2.0
1701873723.979172,10.0,-7.0,-13.0,0.0,4.0,1.0,0.0,2.0
1701873723.999221,-5.0,-8.0,0.0,-8.0,-3.0,2.0,2.0,-4.0
1701873723.999221,2.0,-5.0,-6.0,-3.0,-2.0,-3.0,-1.0,1.0
1701873723.999221,4.0,14.0,14.0,9.0,1.0,8.0,19.0,18.0
1701873723.999221,6.0,10.0,-2.0,-3.0,1.0,-2.0,-7.0,-1.0
1701873724.0193388,-14.0,-10.0,3.0,3.0,-1.0,-9.0,-22.0,-33.0
1701873724.0193388,6.0,11.0,8.0,4.0,1.0,0.0,3.0,8.0
1701873724.0291731,-1.0,-20.0,-26.0,-12.0,-5.0,-1.0,6.0,9.0
1701873724.0291731,6.0,-1.0,3.0,-10.0,-9.0,-7.0,-6.0,5.0
1701873724.039417,2.0,4.0,1.0,4.0,7.0,-7.0,-10.0,-6.0
1701873724.039417,-4.0,-15.0,-7.0,-2.0,6.0,11.0,10.0,3.0
1701873724.039417,5.0,14.0,11.0,3.0,1.0,-1.0,1.0,-2.0
1701873724.039417,9.0,1.0,-6.0,3.0,0.0,7.0,10.0,10.0
1701873724.0595324,-2.0,0.0,-3.0,-5.0,-4.0,2.0,7.0,18.0
1701873724.0595324,-18.0,-15.0,10.0,6.0,-1.0,-6.0,-25.0,-47.0
1701873724.0595324,-21.0,-47.0,-7.0,-6.0,-1.0,-8.0,-4.0,5.0
1701873724.0595324,-17.0,-1.0,-16.0,-10.0,-6.0,-6.0,-7.0,-15.0
1701873724.0995264,10.0,8.0,16.0,9.0,3.0,15.0,11.0,5.0
1701873724.0995264,12.0,20.0,-3.0,-4.0,-3.0,-1.0,6.0,18.0
1701873724.0995264,9.0,-7.0,-12.0,-6.0,-2.0,-3.0,-11.0,-18.0
1701873724.0995264,6.0,18.0,16.0,7.0,3.0,-7.0,-7.0,6.0
1701873724.0995264,1.0,-8.0,-22.0,-9.0,-9.0,-11.0,1.0,-7.0
1701873724.0995264,7.0,-28.0,-6.0,-5.0,-6.0,-11.0,-16.0,3.0
1701873724.0995264,6.0,4.0,6.0,5.0,2.0,4.0,-8.0,-2.0
1701873724.0995264,-4.0,-9.0,10.0,6.0,6.0,24.0,27.0,5.0
1701873724.119532,5.0,13.0,-9.0,-8.0,1.0,7.0,11.0,2.0
1701873724.119532,9.0,2.0,-9.0,1.0,8.0,33.0,31.0,7.0
1701873724.1295307,-3.0,10.0,14.0,6.0,-1.0,-14.0,-10.0,3.0
1701873724.1395338,7.0,-22.0,-6.0,-4.0,-10.0,-43.0,-53.0,-9.0
1701873724.1495247,-17.0,-3.0,-2.0,-4.0,-2.0,22.0,33.0,1.0
1701873724.1495247,-3.0,9.0,-3.0,0.0,3.0,4.0,-7.0,-9.0
1701873724.1495247,1.0,15.0,11.0,2.0,0.0,15.0,25.0,5.0
1701873724.1495247,-15.0,-28.0,-4.0,0.0,-2.0,-10.0,-7.0,-8.0
1701873724.1598608,4.0,0.0,2.0,4.0,-3.0,-23.0,-25.0,3.0
1701873724.1598608,-28.0,-45.0,-30.0,-14.0,-9.0,-15.0,-10.0,-5.0
1701873724.1598608,4.0,15.0,1.0,-6.0,-1.0,7.0,10.0,0.0
1701873724.1598608,13.0,31.0,21.0,3.0,-2.0,-5.0,2.0,7.0
1701873724.169573,-29.0,-28.0,-28.0,-1.0,1.0,1.0,-7.0,-14.0
1701873724.169573,-8.0,-15.0,-9.0,-16.0,-9.0,-5.0,-1.0,-3.0
1701873724.189526,10.0,27.0,4.0,4.0,1.0,-6.0,-6.0,5.0
1701873724.189526,-4.0,-17.0,1.0,2.0,-6.0,-1.0,6.0,-2.0
1701873724.1995249,26.0,48.0,30.0,1.0,4.0,7.0,-4.0,10.0
1701873724.1995249,-9.0,-17.0,-35.0,-4.0,-7.0,-11.0,-2.0,-3.0
1701873724.1995249,-2.0,0.0,2.0,-14.0,-5.0,-8.0,-13.0,-6.0
1701873724.209532,2.0,-2.0,-22.0,-5.0,7.0,8.0,6.0,-6.0
1701873724.2198756,11.0,-1.0,10.0,8.0,5.0,4.0,3.0,6.0
1701873724.2198756,6.0,22.0,23.0,6.0,-2.0,-9.0,-8.0,-6.0
1701873724.2198756,-1.0,11.0,-25.0,-11.0,-6.0,-2.0,-5.0,-3.0
1701873724.2198756,-8.0,-7.0,6.0,4.0,1.0,8.0,7.0,-4.0
1701873724.2299085,-7.0,-9.0,-6.0,1.0,-1.0,-6.0,-1.0,17.0
1701873724.2395327,10.0,4.0,2.0,-4.0,-5.0,-6.0,-1.0,-5.0
1701873724.2495265,-7.0,-17.0,5.0,4.0,-3.0,0.0,5.0,3.0
1701873724.2495265,-14.0,-1.0,0.0,6.0,3.0,5.0,-3.0,-13.0
1701873724.2595847,3.0,-9.0,-26.0,-19.0,-1.0,-10.0,-13.0,-2.0
1701873724.2595847,17.0,44.0,35.0,14.0,5.0,1.0,2.0,10.0
1701873724.2695308,-12.0,-53.0,-26.0,-9.0,-4.0,-8.0,-2.0,3.0
1701873724.2695308,0.0,2.0,-4.0,-3.0,-5.0,6.0,13.0,9.0
1701873724.279773,-19.0,-25.0,5.0,-4.0,-8.0,-15.0,-16.0,-24.0
1701873724.279773,5.0,15.0,5.0,4.0,0.0,2.0,-10.0,-3.0
1701873724.279773,-3.0,-1.0,7.0,1.0,7.0,18.0,17.0,18.0
1701873724.279773,7.0,0.0,0.0,-1.0,-4.0,-12.0,-22.0,-15.0
1701873724.299532,8.0,30.0,6.0,1.0,-6.0,-11.0,-25.0,-30.0
1701873724.299532,-5.0,-17.0,-5.0,2.0,-2.0,-11.0,-6.0,2.0
1701873724.3195357,9.0,26.0,34.0,19.0,11.0,5.0,4.0,6.0
1701873724.3195357,-12.0,-17.0,-39.0,-15.0,1.0,6.0,8.0,10.0
1701873724.3295262,30.0,4.0,17.0,2.0,1.0,0.0,7.0,11.0
1701873724.3295262,-6.0,-8.0,-28.0,-5.0,-5.0,-8.0,-1.0,-3.0
1701873724.3295262,-11.0,17.0,21.0,9.0,-3.0,-4.0,0.0,-8.0
1701873724.3295262,-10.0,9.0,11.0,-1.0,5.0,8.0,11.0,4.0
1701873724.3398697,-16.0,-45.0,-11.0,-6.0,-10.0,-10.0,-6.0,-5.0
1701873724.3398697,-6.0,50.0,25.0,7.0,5.0,8.0,7.0,5.0
1701873724.3398697,2.0,-42.0,-20.0,-5.0,-7.0,-6.0,-12.0,-14.0
1701873724.3398697,19.0,38.0,21.0,6.0,9.0,4.0,-3.0,0.0
1701873724.34959,-16.0,-13.0,-17.0,-4.0,1.0,5.0,7.0,0.0
1701873724.3595328,-4.0,-18.0,-9.0,-5.0,-1.0,1.0,2.0,7.0
1701873724.3695266,3.0,0.0,9.0,-1.0,-6.0,-7.0,-10.0,-11.0
1701873724.3695266,-15.0,-24.0,-3.0,1.0,1.0,0.0,5.0,3.0
1701873724.3797698,-2.0,-4.0,1.0,5.0,5.0,0.0,-10.0,-5.0
1701873724.3797698,-13.0,-30.0,-8.0,-13.0,-7.0,0.0,6.0,0.0
1701873724.3895307,5.0,17.0,-2.0,3.0,3.0,3.0,-6.0,-6.0
1701873724.3895307,0.0,-28.0,-1.0,-2.0,-6.0,-13.0,-14.0,-1.0
1701873724.399767,-23.0,4.0,22.0,10.0,7.0,17.0,19.0,3.0
1701873724.399767,0.0,6.0,1.0,0.0,1.0,-8.0,-6.0,-5.0
1701873724.399767,-10.0,-7.0,-34.0,-27.0,-11.0,-13.0,-19.0,-10.0
1701873724.399767,-3.0,-2.0,10.0,7.0,4.0,1.0,4.0,2.0
1701873724.429528,11.0,7.0,-3.0,-3.0,-3.0,10.0,31.0,30.0
1701873724.429528,6.0,3.0,9.0,4.0,2.0,-6.0,-32.0,-27.0
1701873724.429528,10.0,17.0,-3.0,8.0,8.0,9.0,24.0,28.0
1701873724.429528,-7.0,4.0,-8.0,-8.0,-8.0,-19.0,-21.0,-28.0
1701873724.4395611,24.0,7.0,-16.0,-9.0,-8.0,-4.0,6.0,17.0
1701873724.4395611,-5.0,-16.0,17.0,4.0,5.0,12.0,18.0,13.0
1701873724.4395611,-10.0,-28.0,-25.0,-8.0,-1.0,-4.0,-5.0,0.0
1701873724.4495335,-3.0,21.0,3.0,1.0,-5.0,-8.0,-2.0,2.0
1701873724.4598484,3.0,-18.0,-1.0,2.0,1.0,-2.0,-3.0,1.0
1701873724.4598484,15.0,8.0,-9.0,-5.0,-1.0,-2.0,14.0,19.0
1701873724.4699035,7.0,28.0,15.0,3.0,-1.0,0.0,-22.0,-40.0
1701873724.4699035,-19.0,-23.0,-15.0,-6.0,-4.0,-5.0,1.0,-1.0
1701873724.4802182,-2.0,-12.0,-17.0,-6.0,-3.0,-1.0,-3.0,-14.0
1701873724.4802182,0.0,8.0,-6.0,-3.0,0.0,0.0,-3.0,14.0
1701873724.4947095,4.0,6.0,26.0,11.0,-1.0,-5.0,4.0,7.0
1701873724.4947095,7.0,-11.0,-13.0,-6.0,0.0,8.0,9.0,2.0
1701873724.5013456,-10.0,-5.0,-5.0,-5.0,-5.0,-7.0,-14.0,-16.0
1701873724.5013456,-8.0,3.0,1.0,-5.0,-4.0,-4.0,0.0,2.0
1701873724.508919,0.0,12.0,-12.0,1.0,3.0,4.0,6.0,3.0
1701873724.508919,-3.0,11.0,35.0,16.0,4.0,11.0,7.0,-1.0
1701873724.5222988,-27.0,5.0,-4.0,1.0,3.0,-4.0,-11.0,-8.0
1701873724.5222988,6.0,4.0,-12.0,-10.0,-5.0,-5.0,0.0,-3.0
1701873724.5322974,42.0,22.0,-25.0,-20.0,-8.0,-6.0,-3.0,1.0
1701873724.5322974,-9.0,-44.0,-20.0,-3.0,5.0,10.0,5.0,1.0
1701873724.5322974,8.0,39.0,30.0,17.0,0.0,-6.0,-6.0,-1.0
1701873724.5322974,-9.0,-12.0,-18.0,-15.0,0.0,-1.0,0.0,0.0
1701873724.5423384,-2.0,-5.0,-13.0,-11.0,-11.0,-8.0,-3.0,-7.0
1701873724.5423384,12.0,36.0,7.0,9.0,9.0,18.0,23.0,21.0
1701873724.562304,-25.0,17.0,11.0,3.0,0.0,-7.0,-11.0,-15.0
1701873724.562304,0.0,2.0,8.0,12.0,-1.0,-3.0,-8.0,-21.0
1701873724.562304,-9.0,-17.0,13.0,9.0,2.0,-10.0,-33.0,-22.0
1701873724.562304,4.0,6.0,-15.0,-15.0,-10.0,6.0,28.0,15.0
1701873724.6023622,-4.0,-27.0,2.0,3.0,3.0,0.0,0.0,4.0
1701873724.6023622,11.0,29.0,6.0,1.0,-1.0,2.0,9.0,4.0
1701873724.6023622,-8.0,3.0,5.0,8.0,7.0,6.0,-14.0,-18.0
1701873724.6023622,11.0,-10.0,1.0,-5.0,-9.0,-11.0,-8.0,13.0
1701873724.6023622,5.0,3.0,-21.0,-4.0,1.0,0.0,-1.0,4.0
1701873724.6023622,-11.0,-27.0,-7.0,-4.0,4.0,1.0,-5.0,-7.0
1701873724.6023622,4.0,1.0,-5.0,-12.0,-7.0,-4.0,11.0,4.0
1701873724.6023622,2.0,4.0,8.0,3.0,-9.0,-9.0,-17.0,-18.0
1701873724.6127014,23.0,26.0,5.0,0.0,0.0,0.0,3.0,4.0
1701873724.6127014,4.0,-22.0,3.0,12.0,4.0,-1.0,-1.0,4.0
1701873724.6223798,-36.0,-70.0,-2.0,4.0,10.0,8.0,15.0,4.0
1701873724.6223798,6.0,12.0,6.0,-6.0,6.0,0.0,-12.0,-15.0
1701873724.6423926,-4.0,-7.0,-8.0,-8.0,-8.0,-3.0,3.0,-2.0
1701873724.6423926,31.0,34.0,10.0,2.0,-6.0,-1.0,-1.0,-2.0
1701873724.6423926,-13.0,-13.0,5.0,8.0,3.0,0.0,6.0,12.0
1701873724.6524463,13.0,2.0,-19.0,-2.0,-1.0,-5.0,-8.0,9.0
1701873724.6624076,8.0,17.0,17.0,8.0,3.0,3.0,0.0,-4.0
1701873724.6624076,4.0,1.0,-2.0,1.0,0.0,2.0,-5.0,-9.0
1701873724.6724463,-3.0,-14.0,16.0,7.0,-5.0,-4.0,5.0,9.0
1701873724.6724463,-28.0,-34.0,-27.0,-15.0,-8.0,-2.0,-4.0,0.0
1701873724.6824424,29.0,41.0,18.0,2.0,-1.0,-1.0,1.0,3.0
1701873724.6824424,-32.0,-33.0,-47.0,-17.0,-3.0,-2.0,-1.0,5.0
1701873724.6824424,-8.0,29.0,25.0,3.0,2.0,9.0,27.0,5.0
1701873724.6824424,5.0,-8.0,-3.0,2.0,2.0,-6.0,-19.0,-15.0
1701873724.7223911,0.0,-21.0,-7.0,-9.0,-9.0,-13.0,-4.0,4.0
1701873724.7223911,13.0,29.0,10.0,3.0,0.0,2.0,5.0,7.0
1701873724.7223911,-25.0,-52.0,-14.0,-6.0,-2.0,-3.0,-7.0,-6.0
1701873724.7223911,2.0,10.0,7.0,2.0,-3.0,2.0,18.0,4.0
1701873724.7223911,3.0,15.0,-1.0,4.0,1.0,10.0,-2.0,-10.0
1701873724.7223911,-19.0,-32.0,-4.0,-2.0,-2.0,-8.0,-6.0,-7.0
1701873724.7223911,13.0,36.0,22.0,13.0,0.0,-4.0,1.0,17.0
1701873724.7223911,-38.0,-11.0,5.0,-1.0,3.0,-5.0,-10.0,-18.0
1701873724.7327728,-16.0,-33.0,-40.0,-23.0,-4.0,-2.0,-5.0,0.0
1701873724.7327728,-4.0,-5.0,0.0,-4.0,-7.0,-3.0,1.0,-3.0
1701873724.7424383,13.0,9.0,5.0,3.0,3.0,4.0,1.0,0.0
1701873724.7424383,28.0,-5.0,-4.0,11.0,-3.0,-9.0,-6.0,0.0
1701873724.762475,-21.0,25.0,24.0,5.0,5.0,2.0,-3.0,-6.0
1701873724.762475,-16.0,-43.0,-11.0,-8.0,-4.0,-3.0,-2.0,-3.0
1701873724.762475,-5.0,-17.0,-40.0,-17.0,-6.0,-2.0,-3.0,-7.0
1701873724.7724833,5.0,-11.0,4.0,3.0,3.0,1.0,1.0,1.0
1701873724.78273,0.0,-15.0,-27.0,-9.0,-6.0,-7.0,1.0,4.0
1701873724.78273,11.0,33.0,11.0,-2.0,2.0,3.0,2.0,-10.0
1701873724.78273,1.0,-35.0,4.0,-1.0,-8.0,-6.0,-6.0,-5.0
1701873724.78273,-12.0,-6.0,-25.0,-8.0,-1.0,2.0,-1.0,-16.0
1701873724.8124783,-1.0,-17.0,19.0,6.0,-2.0,-1.0,-2.0,6.0
1701873724.8124783,7.0,31.0,11.0,-5.0,2.0,1.0,0.0,12.0
1701873724.822472,-25.0,4.0,-29.0,-16.0,-5.0,-3.0,-2.0,-19.0
1701873724.822472,15.0,6.0,3.0,6.0,4.0,1.0,-1.0,0.0
1701873724.822472,-19.0,-11.0,12.0,6.0,6.0,3.0,1.0,-10.0
1701873724.822472,-10.0,11.0,9.0,13.0,2.0,3.0,11.0,12.0
1701873724.8326607,23.0,43.0,16.0,-2.0,-1.0,-3.0,-7.0,-12.0
1701873724.8326607,17.0,9.0,2.0,-4.0,-5.0,-2.0,4.0,16.0
1701873724.852804,5.0,4.0,-16.0,0.0,-1.0,-3.0,0.0,4.0
1701873724.852804,-4.0,-9.0,7.0,2.0,-2.0,-5.0,-2.0,-13.0
1701873724.852804,-14.0,22.0,3.0,5.0,8.0,9.0,3.0,1.0
1701873724.852804,-19.0,-3.0,11.0,6.0,1.0,-1.0,-7.0,-3.0
1701873724.8624747,-9.0,-27.0,-3.0,-13.0,-12.0,-20.0,-11.0,-16.0
1701873724.8624747,1.0,10.0,-7.0,-7.0,-4.0,8.0,10.0,7.0
1701873724.8624747,2.0,18.0,12.0,0.0,-3.0,-20.0,-4.0,16.0
1701873724.8624747,35.0,61.0,9.0,7.0,14.0,52.0,56.0,21.0
1701873724.8924735,-16.0,-1.0,3.0,-4.0,-3.0,-20.0,-30.0,-22.0
1701873724.8924735,24.0,10.0,-16.0,-4.0,-2.0,16.0,27.0,19.0
1701873724.8924735,-1.0,-30.0,-9.0,2.0,-1.0,-7.0,-2.0,5.0
1701873724.8924735,-12.0,-12.0,-3.0,-11.0,-10.0,-6.0,3.0,3.0
1701873724.9124744,8.0,-18.0,-10.0,-1.0,4.0,5.0,1.0,5.0
1701873724.9124744,-4.0,16.0,18.0,11.0,10.0,1.0,-5.0,1.0
1701873724.9124744,21.0,-3.0,-13.0,-4.0,-11.0,-5.0,0.0,12.0
1701873724.9124744,-23.0,-45.0,-7.0,-8.0,-9.0,-17.0,-19.0,-20.0
1701873724.9226563,29.0,30.0,-12.0,-15.0,10.0,10.0,4.0,5.0
1701873724.9226563,-32.0,-93.0,-38.0,0.0,-1.0,-13.0,-19.0,-18.0
1701873724.9226563,-21.0,10.0,-1.0,3.0,-1.0,-2.0,-7.0,-10.0
1701873724.9226563,7.0,6.0,-11.0,-16.0,-11.0,-9.0,-9.0,-2.0
1701873724.9524858,-8.0,31.0,36.0,20.0,2.0,4.0,5.0,-3.0
1701873724.9524858,16.0,61.0,45.0,23.0,20.0,14.0,9.0,17.0
1701873724.9524858,-6.0,-76.0,-35.0,-9.0,3.0,3.0,-1.0,5.0
1701873724.9524858,-24.0,-39.0,8.0,5.0,-4.0,-8.0,-7.0,-17.0
1701873724.9724727,-1.0,-39.0,-32.0,-14.0,-13.0,-2.0,15.0,20.0
1701873724.9724727,-5.0,18.0,2.0,-4.0,-5.0,-13.0,-33.0,-45.0
1701873724.9724727,9.0,23.0,31.0,17.0,9.0,8.0,1.0,0.0
1701873724.9724727,-7.0,32.0,13.0,4.0,0.0,-4.0,-3.0,-3.0
1701873724.9827242,-2.0,-14.0,-33.0,-4.0,3.0,8.0,13.0,7.0
1701873724.9827242,-17.0,-73.0,-12.0,-15.0,-10.0,-8.0,-6.0,-1.0
1701873724.9827242,1.0,50.0,8.0,-2.0,0.0,5.0,7.0,5.0
1701873724.9827242,16.0,28.0,-9.0,-11.0,-1.0,-8.0,-17.0,-11.0
1701873725.0124764,-20.0,36.0,48.0,18.0,8.0,5.0,-2.0,0.0
1701873725.0124764,18.0,32.0,4.0,1.0,-7.0,-12.0,13.0,29.0
1701873725.013111,-15.0,-17.0,-4.0,-4.0,-2.0,6.0,-23.0,-59.0
1701873725.013111,17.0,18.0,11.0,14.0,8.0,6.0,15.0,34.0
1701873725.044749,13.0,1.0,-8.0,3.0,-4.0,-4.0,-4.0,9.0
1701873725.044749,-6.0,3.0,-7.0,-12.0,-7.0,-8.0,-13.0,-19.0
1701873725.044749,6.0,10.0,9.0,-1.0,-3.0,-1.0,9.0,11.0
1701873725.044749,-8.0,11.0,17.0,6.0,0.0,-12.0,-9.0,-7.0
1701873725.054773,-3.0,-23.0,-39.0,-16.0,0.0,11.0,3.0,-6.0
1701873725.054773,-1.0,-6.0,-1.0,-7.0,-5.0,-3.0,-3.0,-6.0
1701873725.054773,6.0,-30.0,11.0,9.0,3.0,0.0,7.0,16.0
1701873725.054773,-14.0,8.0,-13.0,-5.0,2.0,12.0,10.0,-12.0
1701873725.0650692,15.0,-13.0,-1.0,-6.0,-12.0,-22.0,-18.0,0.0
1701873725.0650692,-13.0,-13.0,3.0,8.0,2.0,8.0,4.0,-8.0
1701873725.0650692,1.0,57.0,29.0,5.0,6.0,9.0,18.0,14.0
1701873725.0650692,-7.0,-13.0,-4.0,-3.0,-5.0,-16.0,-27.0,-16.0
1701873725.09475,-44.0,-88.0,-18.0,-3.0,-1.0,-3.0,-2.0,-14.0
1701873725.09475,17.0,30.0,-4.0,-2.0,-4.0,-2.0,-2.0,7.0
1701873725.09475,13.0,-4.0,-21.0,-14.0,-12.0,-4.0,2.0,-2.0
1701873725.09475,18.0,23.0,17.0,3.0,2.0,-6.0,-9.0,7.0
1701873725.105071,-23.0,-12.0,-18.0,-4.0,2.0,6.0,1.0,-16.0
1701873725.105071,-2.0,1.0,20.0,8.0,5.0,0.0,-6.0,-1.0
1701873725.105071,9.0,32.0,-39.0,0.0,2.0,-1.0,-10.0,-6.0
1701873725.105071,-21.0,-34.0,-5.0,-10.0,-5.0,-4.0,0.0,-9.0
1701873725.1251194,-2.0,4.0,22.0,9.0,2.0,1.0,-2.0,1.0
1701873725.1251194,-12.0,0.0,-3.0,1.0,2.0,7.0,10.0,3.0
1701873725.1251194,-6.0,27.0,-11.0,-14.0,-9.0,-10.0,-11.0,-2.0
1701873725.1251194,0.0,-3.0,27.0,24.0,-2.0,1.0,-1.0,-3.0
1701873725.1547487,-22.0,-44.0,-40.0,-15.0,1.0,-2.0,0.0,-5.0
1701873725.1547487,6.0,-3.0,19.0,-3.0,-3.0,-4.0,-1.0,2.0
1701873725.1547487,18.0,12.0,-12.0,-12.0,-10.0,-9.0,-7.0,-4.0
1701873725.1547487,28.0,19.0,-6.0,0.0,-4.0,0.0,2.0,8.0
1701873725.1649687,3.0,-6.0,11.0,2.0,2.0,0.0,-2.0,-7.0
1701873725.1649687,1.0,12.0,-10.0,7.0,6.0,3.0,2.0,0.0
1701873725.1649687,-8.0,-24.0,8.0,-9.0,-1.0,-5.0,-18.0,4.0
1701873725.1649687,-5.0,-26.0,-13.0,-3.0,-3.0,-3.0,6.0,-2.0
1701873725.215046,27.0,58.0,26.0,5.0,-5.0,9.0,9.0,-4.0
1701873725.215046,-1.0,-7.0,-31.0,-11.0,-7.0,-9.0,-8.0,5.0
1701873725.215046,-10.0,1.0,16.0,2.0,0.0,-2.0,1.0,-3.0
1701873725.215046,-2.0,-37.0,-35.0,-12.0,1.0,-3.0,5.0,8.0
1701873725.215046,-22.0,-11.0,12.0,-4.0,-10.0,-18.0,-29.0,-25.0
1701873725.215046,2.0,-7.0,-2.0,1.0,0.0,0.0,-3.0,-7.0
1701873725.215046,-35.0,-17.0,20.0,4.0,3.0,4.0,5.0,-1.0
1701873725.215046,0.0,8.0,3.0,4.0,5.0,6.0,3.0,15.0
1701873725.2253065,27.0,56.0,8.0,3.0,1.0,0.0,2.0,-7.0
1701873725.2253065,-10.0,-39.0,-13.0,-8.0,-5.0,-10.0,-9.0,-5.0
1701873725.2253065,0.0,28.0,15.0,10.0,5.0,2.0,-3.0,-9.0
1701873725.2253065,0.0,-6.0,-31.0,-12.0,0.0,10.0,29.0,15.0
1701873725.2453432,21.0,42.0,44.0,20.0,6.0,16.0,5.0,12.0
1701873725.2453432,-9.0,-17.0,-14.0,-6.0,-3.0,7.0,3.0,-6.0
1701873725.2453432,-21.0,-55.0,-18.0,-2.0,0.0,-6.0,-8.0,-7.0
1701873725.2453432,4.0,22.0,5.0,-11.0,-5.0,-5.0,-4.0,2.0
1701873725.285051,4.0,-10.0,-3.0,1.0,0.0,-9.0,1.0,8.0
1701873725.285051,-2.0,-15.0,33.0,16.0,0.0,-1.0,-8.0,-15.0
1701873725.285051,-33.0,4.0,-30.0,-13.0,5.0,11.0,14.0,14.0
1701873725.285051,3.0,8.0,10.0,6.0,-2.0,-6.0,-16.0,-7.0
1701873725.2950466,-5.0,-17.0,-8.0,-11.0,-5.0,1.0,4.0,0.0
1701873725.2950466,3.0,3.0,-6.0,2.0,-8.0,-1.0,6.0,5.0
1701873725.2950466,15.0,-8.0,8.0,11.0,1.0,-2.0,-1.0,1.0
1701873725.2950466,-16.0,-11.0,0.0,-5.0,11.0,6.0,-5.0,-14.0
1701873725.3250477,2.0,-2.0,-26.0,-16.0,-4.0,0.0,-2.0,-1.0
1701873725.3250477,5.0,44.0,26.0,8.0,2.0,3.0,3.0,5.0
1701873725.3250477,13.0,-1.0,-4.0,6.0,-18.0,-12.0,-8.0,-8.0
1701873725.3250477,-9.0,1.0,-6.0,-21.0,-13.0,-5.0,-4.0,-6.0
1701873725.3350458,16.0,18.0,8.0,7.0,22.0,15.0,13.0,22.0
1701873725.3350458,-4.0,-28.0,-17.0,-2.0,2.0,-4.0,-12.0,-20.0
1701873725.3350458,4.0,-14.0,13.0,4.0,-7.0,-8.0,2.0,5.0
1701873725.3350458,-7.0,-6.0,-14.0,-6.0,-10.0,-8.0,-6.0,-10.0
1701873725.3454583,-27.0,7.0,17.0,20.0,2.0,-1.0,4.0,4.0
1701873725.3454583,-25.0,-28.0,-7.0,-20.0,-1.0,0.0,-1.0,1.0
1701873725.3454583,22.0,16.0,-6.0,-1.0,6.0,3.0,2.0,-2.0
1701873725.3454583,-21.0,-67.0,-43.0,-6.0,-3.0,-2.0,-3.0,-14.0
1701873725.3750467,23.0,34.0,4.0,-14.0,-10.0,-8.0,-4.0,14.0
1701873725.3750467,10.0,20.0,11.0,16.0,3.0,-11.0,-4.0,8.0
1701873725.3750467,12.0,29.0,37.0,16.0,6.0,9.0,3.0,-11.0
1701873725.3750467,-33.0,-51.0,-25.0,-16.0,-4.0,-12.0,-21.0,-12.0
1701873725.3954048,0.0,-10.0,-38.0,-12.0,-10.0,-7.0,-5.0,-14.0
1701873725.3954048,15.0,21.0,8.0,-4.0,-3.0,6.0,6.0,16.0
1701873725.3954048,32.0,13.0,-10.0,-5.0,3.0,29.0,36.0,3.0
1701873725.3954048,-17.0,12.0,24.0,15.0,5.0,-5.0,-13.0,-1.0
1701873725.4054594,0.0,-9.0,18.0,9.0,-2.0,-17.0,-20.0,-28.0
1701873725.4054594,-6.0,-14.0,-31.0,-14.0,-6.0,-10.0,-9.0,0.0
1701873725.4250472,3.0,-9.0,-7.0,-11.0,-5.0,-13.0,-22.0,-4.0
1701873725.4250472,16.0,33.0,26.0,17.0,7.0,18.0,25.0,12.0
1701873725.4250472,-3.0,-15.0,-21.0,-15.0,-9.0,-18.0,-11.0,12.0
1701873725.4250472,8.0,19.0,16.0,7.0,2.0,5.0,9.0,2.0
1701873725.4250472,-7.0,-6.0,-17.0,-6.0,2.0,4.0,3.0,15.0
1701873725.4250472,13.0,27.0,15.0,2.0,0.0,-2.0,3.0,-2.0
1701873725.4551833,-3.0,-2.0,9.0,6.0,-2.0,-12.0,-9.0,7.0
1701873725.4551833,1.0,-45.0,-22.0,-12.0,-2.0,29.0,19.0,-11.0
1701873725.4551833,-25.0,9.0,10.0,1.0,0.0,-14.0,-10.0,11.0
1701873725.4551833,3.0,8.0,0.0,-2.0,2.0,6.0,-2.0,-21.0
1701873725.4653466,27.0,34.0,24.0,13.0,5.0,24.0,20.0,14.0
1701873725.4653466,-2.0,-20.0,2.0,8.0,-6.0,-16.0,-5.0,4.0
1701873725.4751263,10.0,-16.0,-34.0,-17.0,-4.0,-5.0,0.0,-2.0
1701873725.4751263,37.0,24.0,8.0,5.0,6.0,-1.0,-10.0,11.0
1701873725.5050457,-9.0,40.0,-14.0,1.0,1.0,5.0,4.0,-5.0
1701873725.5050457,-27.0,-53.0,-29.0,-16.0,-2.0,-1.0,-2.0,-14.0
1701873725.5050457,4.0,20.0,-12.0,-24.0,-8.0,-7.0,-6.0,-3.0
1701873725.5050457,42.0,-1.0,31.0,19.0,9.0,4.0,11.0,24.0
1701873725.515289,-30.0,-82.0,-86.0,-29.0,-8.0,3.0,2.0,-11.0
1701873725.515289,-7.0,33.0,-16.0,-20.0,-13.0,-14.0,-11.0,-10.0
1701873725.515289,5.0,4.0,34.0,19.0,1.0,-3.0,-5.0,-3.0
1701873725.515289,-59.0,-33.0,-1.0,-9.0,-6.0,0.0,0.0,-8.0
1701873725.525343,27.0,25.0,29.0,21.0,7.0,6.0,6.0,8.0
1701873725.525343,-12.0,14.0,-8.0,-6.0,-4.0,-14.0,-28.0,-27.0
1701873725.5564442,-15.0,-39.0,-16.0,-1.0,3.0,-8.0,-12.0,-9.0
1701873725.5564442,8.0,31.0,9.0,7.0,1.0,8.0,23.0,15.0
1701873725.5594428,-18.0,-52.0,-4.0,-7.0,-4.0,-1.0,-11.0,-4.0
1701873725.5594428,-2.0,43.0,21.0,8.0,8.0,29.0,37.0,12.0
1701873725.5594428,-18.0,-3.0,-4.0,6.0,-2.0,-10.0,-19.0,-23.0
1701873725.5594428,-1.0,6.0,7.0,-7.0,-4.0,3.0,10.0,22.0
1701873725.5712242,4.0,-6.0,-18.0,-14.0,-10.0,-18.0,-25.0,-42.0
1701873725.5712242,-21.0,32.0,19.0,-3.0,-3.0,-4.0,15.0,25.0
1701873725.5712242,-11.0,-40.0,-19.0,4.0,3.0,1.0,-16.0,-5.0
1701873725.5712242,14.0,37.0,19.0,9.0,0.0,-10.0,-14.0,-17.0
1701873725.5811946,-19.0,-19.0,2.0,2.0,2.0,5.0,9.0,7.0
1701873725.5811946,19.0,2.0,-12.0,-4.0,-3.0,-10.0,-14.0,1.0
1701873725.6008635,1.0,22.0,43.0,10.0,-1.0,4.0,18.0,11.0
1701873725.6008635,4.0,31.0,3.0,13.0,9.0,5.0,0.0,5.0
1701873725.6111908,-12.0,11.0,-14.0,-17.0,-3.0,-3.0,-5.0,-13.0
1701873725.6111908,17.0,2.0,39.0,21.0,5.0,-5.0,-4.0,5.0
1701873725.6111908,11.0,-10.0,-32.0,-20.0,-9.0,-3.0,10.0,22.0
1701873725.6111908,-3.0,28.0,18.0,10.0,-6.0,-1.0,-16.0,-20.0
1701873725.6311693,6.0,-25.0,2.0,11.0,4.0,6.0,18.0,17.0
1701873725.6311693,40.0,12.0,8.0,13.0,14.0,5.0,3.0,14.0
1701873725.6311693,-24.0,-6.0,8.0,-1.0,-3.0,-3.0,-3.0,-15.0
1701873725.6311693,24.0,21.0,-4.0,3.0,9.0,13.0,17.0,13.0
1701873725.650863,-2.0,-6.0,24.0,6.0,-12.0,-7.0,-3.0,2.0
1701873725.650863,-13.0,-9.0,-29.0,-30.0,-10.0,-12.0,-23.0,-26.0
1701873725.650863,22.0,26.0,22.0,32.0,15.0,12.0,14.0,11.0
1701873725.650863,-22.0,-53.0,-51.0,-34.0,-5.0,-8.0,-10.0,-8.0
1701873725.6711013,4.0,23.0,15.0,-5.0,0.0,-7.0,-3.0,13.0
1701873725.6711013,-8.0,-12.0,5.0,9.0,-7.0,2.0,3.0,-3.0
1701873725.6711013,-11.0,-11.0,-1.0,14.0,6.0,0.0,-2.0,-11.0
1701873725.6711013,-10.0,-6.0,-12.0,-9.0,0.0,-6.0,-7.0,-2.0
1701873725.691134,-1.0,0.0,-8.0,-21.0,-5.0,4.0,5.0,1.0
1701873725.691134,-7.0,-9.0,-7.0,-9.0,-4.0,-3.0,-8.0,-6.0
1701873725.691134,-4.0,-7.0,-5.0,-15.0,-11.0,-5.0,-4.0,-1.0
1701873725.691134,-4.0,-10.0,-10.0,3.0,-2.0,-8.0,-5.0,-5.0
1701873725.720864,6.0,18.0,16.0,5.0,1.0,3.0,2.0,0.0
1701873725.720864,12.0,23.0,19.0,18.0,13.0,5.0,8.0,9.0
1701873725.720864,-5.0,0.0,-17.0,-18.0,-15.0,-5.0,4.0,5.0
1701873725.720864,-5.0,-9.0,4.0,-6.0,-6.0,-3.0,-7.0,-11.0
1701873725.7308965,-15.0,-29.0,-11.0,-3.0,-9.0,-5.0,-2.0,-4.0
1701873725.7308965,-2.0,6.0,4.0,14.0,9.0,4.0,3.0,2.0
1701873725.7308965,6.0,14.0,15.0,2.0,6.0,2.0,2.0,-1.0
1701873725.7308965,-12.0,-45.0,-2.0,-1.0,-4.0,-7.0,-8.0,-6.0
1701873725.751137,8.0,30.0,-7.0,5.0,22.0,10.0,4.0,3.0
1701873725.751137,3.0,4.0,4.0,0.0,-1.0,-2.0,-1.0,1.0
1701873725.751137,-8.0,-14.0,-1.0,-5.0,-1.0,-2.0,-22.0,-20.0
1701873725.751137,-9.0,2.0,4.0,-4.0,-13.0,-3.0,2.0,-5.0
1701873725.7808676,11.0,21.0,11.0,0.0,-8.0,-3.0,-1.0,11.0
1701873725.7808676,5.0,3.0,-12.0,-5.0,-6.0,-2.0,2.0,1.0
1701873725.7808676,-13.0,-23.0,-2.0,-1.0,-1.0,-3.0,-3.0,1.0
1701873725.7808676,4.0,0.0,-1.0,-1.0,1.0,-12.0,-10.0,-3.0
1701873725.790863,2.0,-2.0,3.0,4.0,5.0,23.0,23.0,19.0
1701873725.790863,17.0,17.0,6.0,2.0,-1.0,4.0,1.0,6.0
1701873725.790863,11.0,19.0,4.0,1.0,6.0,0.0,2.0,-7.0
1701873725.790863,-26.0,-46.0,-22.0,-5.0,-1.0,-7.0,-17.0,-13.0
1701873725.8108642,-4.0,0.0,6.0,4.0,-3.0,-12.0,-3.0,-1.0
1701873725.8108642,-7.0,5.0,2.0,-2.0,-4.0,-3.0,4.0,2.0
1701873725.8108642,-3.0,-9.0,-2.0,-4.0,-5.0,-6.0,-12.0,-4.0
1701873725.8108642,-5.0,16.0,0.0,-1.0,-1.0,7.0,15.0,0.0
1701873725.8312497,12.0,10.0,8.0,4.0,4.0,2.0,4.0,-1.0
1701873725.8312497,-6.0,-16.0,-8.0,-1.0,5.0,4.0,-2.0,-5.0
1701873725.8312497,-2.0,5.0,5.0,4.0,-1.0,3.0,5.0,17.0
1701873725.8312497,38.0,7.0,-2.0,-2.0,4.0,18.0,20.0,21.0
1701873725.8512511,-8.0,0.0,2.0,0.0,-10.0,-23.0,-20.0,-12.0
1701873725.8512511,-10.0,-12.0,-19.0,-10.0,-3.0,2.0,-4.0,-12.0
1701873725.8512511,2.0,5.0,18.0,12.0,15.0,2.0,6.0,4.0
1701873725.8512511,0.0,18.0,-3.0,-2.0,-1.0,-3.0,-2.0,5.0
1701873725.8708653,-4.0,-13.0,11.0,8.0,2.0,4.0,0.0,-9.0
1701873725.8708653,-9.0,-5.0,-6.0,-5.0,-10.0,-18.0,-10.0,-1.0
1701873725.8708653,-1.0,1.0,-9.0,-22.0,-18.0,-6.0,2.0,0.0
1701873725.8708653,0.0,2.0,-1.0,5.0,8.0,10.0,1.0,3.0
1701873725.8912024,5.0,12.0,9.0,21.0,24.0,7.0,-4.0,-6.0
1701873725.8912024,-5.0,-5.0,4.0,-6.0,-5.0,-7.0,-4.0,-4.0
1701873725.8912024,-9.0,-21.0,-34.0,-15.0,-12.0,-2.0,3.0,-4.0
1701873725.8912024,-3.0,4.0,-6.0,-14.0,-15.0,-10.0,-4.0,-2.0
1701873725.911229,2.0,6.0,14.0,18.0,11.0,0.0,-2.0,1.0
1701873725.911229,2.0,-7.0,1.0,-13.0,9.0,9.0,3.0,1.0
1701873725.911229,3.0,2.0,16.0,15.0,16.0,5.0,4.0,3.0
1701873725.911229,-3.0,-2.0,-23.0,-3.0,-8.0,-5.0,-7.0,-11.0
1701873725.9308655,-8.0,-3.0,-1.0,-10.0,-16.0,-3.0,1.0,7.0
1701873725.9308655,6.0,1.0,-6.0,-7.0,-17.0,-12.0,0.0,-2.0
1701873725.9308655,1.0,-3.0,4.0,3.0,-2.0,5.0,-5.0,-6.0
1701873725.9308655,-10.0,-3.0,-2.0,-7.0,10.0,-4.0,-3.0,-1.0
1701873725.9509375,-4.0,4.0,1.0,12.0,11.0,8.0,-4.0,-9.0
1701873725.9509375,-7.0,-3.0,-1.0,-2.0,-3.0,0.0,3.0,2.0
1701873725.9509375,3.0,-1.0,-6.0,-9.0,-1.0,-1.0,0.0,-3.0
1701873725.9509375,7.0,11.0,26.0,27.0,7.0,3.0,5.0,4.0
1701873725.9711177,-6.0,-25.0,-55.0,-48.0,-22.0,-14.0,-5.0,3.0
1701873725.9711177,-5.0,-6.0,10.0,3.0,-1.0,-9.0,-19.0,-21.0
1701873725.9711177,9.0,3.0,13.0,13.0,2.0,10.0,12.0,6.0
1701873725.9711177,-8.0,-1.0,10.0,3.0,-3.0,0.0,3.0,0.0
1701873725.9911156,5.0,4.0,6.0,-4.0,-8.0,-14.0,-22.0,-8.0
1701873725.9911156,-6.0,0.0,-14.0,0.0,6.0,11.0,18.0,14.0
1701873725.9911156,-3.0,-16.0,-9.0,-11.0,0.0,-5.0,-5.0,14.0
1701873725.9911156,-5.0,4.0,-2.0,2.0,-1.0,-3.0,-6.0,-31.0
1701873726.0108635,-1.0,6.0,13.0,4.0,-1.0,11.0,18.0,25.0
1701873726.0108635,20.0,3.0,-1.0,3.0,1.0,-1.0,-2.0,4.0
1701873726.0108635,-5.0,-15.0,-15.0,-7.0,-5.0,-3.0,-4.0,-7.0
1701873726.0108635,13.0,5.0,13.0,1.0,-1.0,1.0,6.0,10.0
1701873726.0308645,-6.0,-13.0,-53.0,-33.0,-12.0,-13.0,-14.0,-6.0
1701873726.0308645,1.0,4.0,20.0,13.0,4.0,2.0,4.0,6.0
1701873726.0308645,1.0,1.0,-15.0,-4.0,-1.0,4.0,19.0,3.0
1701873726.0308645,5.0,-5.0,18.0,3.0,-7.0,-15.0,-35.0,-24.0
1701873726.050896,-1.0,21.0,0.0,9.0,7.0,6.0,9.0,-12.0
1701873726.050896,-4.0,-15.0,-8.0,-10.0,-4.0,1.0,4.0,6.0
1701873726.050896,5.0,18.0,31.0,9.0,1.0,1.0,3.0,6.0
1701873726.050896,-12.0,-14.0,-62.0,-34.0,-10.0,-1.0,1.0,10.0
1701873726.0777698,9.0,8.0,32.0,16.0,2.0,2.0,2.0,-4.0
1701873726.0777698,-17.0,-25.0,-38.0,-26.0,-9.0,-9.0,-6.0,-2.0
1701873726.0782244,8.0,10.0,6.0,7.0,-1.0,-5.0,-10.0,6.0
1701873726.0782244,1.0,7.0,22.0,12.0,7.0,9.0,17.0,3.0
1701873726.0938208,3.0,4.0,13.0,9.0,3.0,2.0,-2.0,3.0
1701873726.0938208,2.0,11.0,4.0,9.0,-1.0,-3.0,1.0,10.0
1701873726.0938208,-14.0,-8.0,-11.0,-11.0,-9.0,2.0,-16.0,-49.0
1701873726.0938208,1.0,5.0,4.0,0.0,1.0,-5.0,-2.0,12.0
1701873726.114141,-5.0,-8.0,-16.0,-5.0,-6.0,5.0,20.0,15.0
1701873726.114141,-7.0,0.0,5.0,5.0,3.0,-3.0,-28.0,-32.0
1701873726.114141,-8.0,-4.0,-3.0,-4.0,-3.0,-6.0,0.0,5.0
1701873726.114141,6.0,0.0,3.0,2.0,0.0,-3.0,2.0,8.0
1701873726.1341534,2.0,-14.0,-1.0,-8.0,-1.0,-2.0,-4.0,-16.0
1701873726.1341534,1.0,4.0,7.0,1.0,-1.0,1.0,0.0,7.0
1701873726.1341534,1.0,0.0,-19.0,-12.0,-2.0,0.0,8.0,19.0
1701873726.1341534,-21.0,-8.0,5.0,-8.0,-5.0,-8.0,-17.0,-38.0
1701873726.1538265,-3.0,-1.0,5.0,6.0,0.0,-1.0,-1.0,-1.0
1701873726.1538265,9.0,9.0,14.0,10.0,1.0,0.0,6.0,15.0
1701873726.1538265,-3.0,-3.0,-1.0,6.0,1.0,3.0,2.0,-11.0
1701873726.1538265,4.0,0.0,-2.0,2.0,2.0,2.0,6.0,9.0
1701873726.1740813,-1.0,-2.0,-4.0,-1.0,-3.0,-2.0,-5.0,-3.0
1701873726.1740813,-7.0,6.0,1.0,1.0,3.0,-1.0,-1.0,-6.0
1701873726.1740813,0.0,3.0,0.0,-2.0,-1.0,-2.0,-7.0,-22.0
1701873726.1740813,-7.0,-5.0,-5.0,-7.0,-8.0,-4.0,-3.0,1.0
1701873726.1941016,-9.0,-3.0,4.0,2.0,1.0,-4.0,-16.0,-19.0
1701873726.1941016,7.0,-1.0,0.0,8.0,-1.0,-2.0,9.0,18.0
1701873726.1941016,-1.0,-5.0,-17.0,-9.0,0.0,1.0,4.0,10.0
1701873726.1941016,-3.0,1.0,8.0,4.0,-4.0,1.0,4.0,-1.0
1701873726.2338254,7.0,0.0,9.0,-9.0,-4.0,0.0,-1.0,-1.0
1701873726.2338254,-2.0,-3.0,-9.0,4.0,1.0,2.0,-1.0,-3.0
1701873726.2338254,-10.0,-1.0,8.0,6.0,2.0,-6.0,-14.0,-11.0
1701873726.2338254,-2.0,8.0,-6.0,-5.0,0.0,-3.0,-3.0,0.0
1701873726.2338254,-11.0,4.0,0.0,3.0,-5.0,-6.0,-3.0,-6.0
1701873726.2338254,2.0,-6.0,-8.0,-14.0,-3.0,8.0,17.0,21.0
1701873726.2338254,10.0,13.0,10.0,13.0,3.0,-2.0,-6.0,-12.0
1701873726.2338254,2.0,-6.0,-8.0,-2.0,-3.0,-3.0,6.0,9.0
1701873726.2638226,-10.0,4.0,19.0,9.0,2.0,0.0,-1.0,-10.0
1701873726.2638226,3.0,5.0,-1.0,-4.0,1.0,-1.0,-8.0,1.0
1701873726.2638226,-11.0,-7.0,-6.0,-6.0,-1.0,1.0,3.0,5.0
1701873726.2638226,-4.0,-6.0,1.0,-8.0,-4.0,-4.0,-4.0,-1.0
1701873726.2638226,-1.0,-6.0,-1.0,8.0,3.0,0.0,0.0,0.0
1701873726.2638226,-12.0,-5.0,16.0,6.0,-3.0,-5.0,-5.0,-17.0
1701873726.2638226,-4.0,3.0,-7.0,-6.0,-6.0,-4.0,0.0,3.0
1701873726.2638226,5.0,2.0,11.0,-3.0,-4.0,-1.0,-2.0,-1.0
1701873726.2941947,-9.0,-3.0,-17.0,2.0,8.0,7.0,7.0,4.0
1701873726.2941947,2.0,-6.0,-7.0,-5.0,-2.0,-6.0,-4.0,-13.0
1701873726.2941947,8.0,-9.0,-4.0,-10.0,-8.0,-3.0,-15.0,-3.0
1701873726.2941947,-2.0,3.0,4.0,7.0,3.0,2.0,3.0,6.0
1701873726.3238232,5.0,-6.0,-14.0,-11.0,-5.0,1.0,6.0,-5.0
1701873726.3238232,-10.0,0.0,3.0,1.0,0.0,0.0,-1.0,-5.0
1701873726.3238232,-5.0,-2.0,-10.0,-4.0,-2.0,-4.0,-3.0,-2.0
1701873726.3238232,6.0,-12.0,3.0,6.0,2.0,-1.0,3.0,13.0
1701873726.3238232,14.0,-5.0,1.0,-1.0,-4.0,-5.0,-8.0,-1.0
1701873726.3238232,-8.0,-2.0,-17.0,-8.0,-1.0,-1.0,-1.0,-9.0
1701873726.3341131,9.0,9.0,18.0,12.0,2.0,4.0,10.0,14.0
1701873726.3341131,-4.0,3.0,-6.0,-8.0,2.0,3.0,-5.0,-5.0
1701873726.3541884,0.0,3.0,-8.0,-8.0,-1.0,1.0,0.0,4.0
1701873726.3541884,-2.0,-17.0,2.0,-4.0,-4.0,-5.0,-8.0,-12.0
1701873726.3541884,3.0,13.0,16.0,6.0,-6.0,-9.0,-3.0,1.0
1701873726.3541884,3.0,-8.0,-12.0,1.0,1.0,3.0,1.0,0.0
1701873726.3838227,-6.0,1.0,-5.0,-10.0,-2.0,-4.0,-2.0,-4.0
1701873726.3838227,18.0,43.0,4.0,4.0,2.0,4.0,7.0,18.0
1701873726.3838227,-8.0,-8.0,-10.0,0.0,4.0,3.0,1.0,-6.0
1701873726.3838227,-3.0,3.0,9.0,3.0,-3.0,-2.0,-6.0,1.0
1701873726.3938227,10.0,8.0,11.0,4.0,-4.0,-1.0,3.0,4.0
1701873726.3938227,-2.0,-9.0,-10.0,-6.0,1.0,9.0,4.0,-5.0
1701873726.403862,-2.0,-5.0,9.0,10.0,2.0,-1.0,4.0,5.0
1701873726.403862,-1.0,10.0,-1.0,-3.0,1.0,-1.0,-1.0,-6.0
1701873726.414066,-6.0,-6.0,-11.0,-5.0,-4.0,-5.0,-4.0,-1.0
1701873726.414066,1.0,-4.0,6.0,0.0,-2.0,-2.0,-3.0,2.0
1701873726.414066,9.0,10.0,21.0,10.0,12.0,9.0,12.0,11.0
1701873726.414066,-12.0,-15.0,-31.0,-14.0,-1.0,-8.0,-12.0,-16.0
1701873726.4538236,-7.0,2.0,15.0,1.0,-4.0,-1.0,2.0,5.0
1701873726.4538236,-2.0,-5.0,-4.0,3.0,-3.0,-4.0,-8.0,-12.0
1701873726.4538236,-11.0,-5.0,2.0,0.0,0.0,5.0,2.0,-4.0
1701873726.4538236,-10.0,-4.0,-11.0,0.0,2.0,0.0,-10.0,-22.0
1701873726.4538236,16.0,25.0,8.0,-1.0,-3.0,-3.0,0.0,11.0
1701873726.4538236,-5.0,-9.0,-2.0,0.0,4.0,3.0,-6.0,-9.0
1701873726.4538236,8.0,-7.0,-3.0,-2.0,-4.0,-2.0,2.0,3.0
1701873726.4538236,-10.0,1.0,-4.0,1.0,-4.0,-5.0,-5.0,-9.0
1701873726.4741273,-9.0,-10.0,-2.0,-1.0,-1.0,-1.0,-1.0,0.0
1701873726.4741273,-5.0,-6.0,-9.0,-3.0,0.0,1.0,5.0,-1.0
1701873726.4741273,5.0,14.0,-5.0,-6.0,2.0,2.0,-1.0,-2.0
1701873726.4741273,4.0,-10.0,0.0,2.0,-6.0,-1.0,4.0,4.0
1701873726.4938636,1.0,9.0,9.0,-2.0,0.0,-5.0,-3.0,-8.0
1701873726.4938636,-1.0,11.0,2.0,1.0,1.0,0.0,5.0,18.0
1701873726.4938636,2.0,13.0,1.0,-4.0,0.0,0.0,3.0,11.0
1701873726.4938636,0.0,-15.0,-8.0,-8.0,-4.0,-2.0,4.0,0.0
1701873726.5041628,1.0,-24.0,-5.0,7.0,2.0,3.0,-1.0,0.0
1701873726.5041628,9.0,24.0,5.0,0.0,-1.0,-3.0,-2.0,-2.0
1701873726.51412,-14.0,-30.0,-21.0,-15.0,-6.0,-9.0,-9.0,-10.0
1701873726.51412,-3.0,11.0,11.0,2.0,-1.0,2.0,7.0,20.0
1701873726.5342016,-8.0,7.0,14.0,8.0,2.0,2.0,-8.0,-17.0
1701873726.5342016,-10.0,-22.0,-11.0,-1.0,2.0,-3.0,-9.0,-8.0
1701873726.5342016,-2.0,-2.0,0.0,2.0,-2.0,3.0,3.0,5.0
1701873726.5342016,4.0,18.0,6.0,-1.0,1.0,-2.0,-3.0,-5.0
1701873726.563824,-5.0,-11.0,-9.0,-1.0,2.0,4.0,6.0,7.0
1701873726.563824,-2.0,-10.0,-7.0,-11.0,-8.0,-10.0,-11.0,-19.0
1701873726.563824,-13.0,-6.0,-12.0,-6.0,-3.0,-5.0,-12.0,-7.0
1701873726.563824,6.0,5.0,11.0,1.0,-2.0,-2.0,-10.0,-9.0
1701873726.563824,-9.0,2.0,2.0,3.0,4.0,13.0,7.0,5.0
1701873726.563824,4.0,-1.0,-10.0,-2.0,-3.0,-12.0,-5.0,5.0
1701873726.5741298,-8.0,-8.0,-1.0,0.0,0.0,13.0,12.0,-14.0
1701873726.5741298,9.0,34.0,4.0,-5.0,-6.0,-14.0,-5.0,14.0
1701873726.6035967,-8.0,-37.0,-11.0,2.0,4.0,-3.0,-2.0,2.0
1701873726.6035967,-9.0,8.0,25.0,13.0,3.0,10.0,11.0,11.0
1701873726.6035967,-2.0,5.0,-12.0,-14.0,-9.0,-18.0,-17.0,-26.0
1701873726.6035967,3.0,-16.0,-13.0,6.0,8.0,22.0,23.0,25.0
1701873726.6188407,4.0,15.0,3.0,-9.0,-1.0,-9.0,-16.0,-21.0
1701873726.6188407,10.0,9.0,12.0,5.0,4.0,6.0,8.0,14.0
1701873726.6188407,1.0,-2.0,4.0,-1.0,-6.0,-13.0,-14.0,-5.0
1701873726.6188407,-27.0,-50.0,-6.0,4.0,1.0,0.0,0.0,-16.0
1701873726.6267962,5.0,6.0,-24.0,-13.0,-8.0,-8.0,1.0,10.0
1701873726.6267962,5.0,-8.0,-2.0,-3.0,-2.0,-4.0,-5.0,-4.0
1701873726.6370075,7.0,24.0,10.0,-2.0,-2.0,0.0,0.0,2.0
1701873726.6370075,6.0,-1.0,-4.0,0.0,2.0,3.0,3.0,2.0
1701873726.666794,-11.0,-22.0,-13.0,-4.0,-3.0,-3.0,-2.0,-6.0
1701873726.666794,7.0,18.0,23.0,5.0,-1.0,-1.0,-2.0,-8.0
1701873726.666794,5.0,-16.0,-5.0,5.0,3.0,3.0,10.0,16.0
1701873726.666794,-7.0,-6.0,-40.0,-26.0,-10.0,-8.0,-8.0,-4.0
1701873726.6770608,-6.0,-11.0,10.0,2.0,-3.0,-3.0,-1.0,-8.0
1701873726.6770608,-5.0,-20.0,-35.0,-19.0,-12.0,-13.0,-10.0,-6.0
1701873726.6770608,-1.0,0.0,19.0,11.0,3.0,5.0,6.0,1.0
1701873726.6770608,21.0,13.0,9.0,7.0,3.0,10.0,12.0,11.0
1701873726.697166,-16.0,-1.0,-11.0,-7.0,-2.0,-3.0,-9.0,-6.0
1701873726.697166,7.0,12.0,3.0,12.0,2.0,1.0,3.0,11.0
1701873726.697166,-14.0,-18.0,-10.0,-9.0,-3.0,-9.0,-11.0,-4.0
1701873726.697166,16.0,9.0,12.0,4.0,-9.0,-12.0,-2.0,11.0
1701873726.7067933,10.0,-11.0,-29.0,-19.0,-8.0,0.0,4.0,3.0
1701873726.7067933,-5.0,3.0,17.0,5.0,6.0,6.0,2.0,2.0
1701873726.7067933,5.0,22.0,7.0,6.0,8.0,6.0,2.0,5.0
1701873726.7067933,8.0,5.0,9.0,9.0,-2.0,-4.0,-2.0,-10.0
1701873726.737149,8.0,30.0,23.0,13.0,-2.0,0.0,0.0,14.0
1701873726.737149,-8.0,-24.0,-14.0,-14.0,12.0,7.0,4.0,-7.0
1701873726.737149,1.0,-9.0,-23.0,-15.0,-7.0,-2.0,5.0,5.0
1701873726.737149,-14.0,-11.0,-6.0,-6.0,-1.0,-7.0,-13.0,-6.0
1701873726.7570372,-3.0,11.0,22.0,8.0,-2.0,3.0,7.0,-3.0
1701873726.7570372,-3.0,-11.0,-10.0,-1.0,-8.0,-9.0,-9.0,-8.0
1701873726.7570372,-5.0,-2.0,7.0,3.0,3.0,-6.0,-3.0,3.0
1701873726.7570372,0.0,10.0,12.0,2.0,1.0,13.0,15.0,4.0
1701873726.7667913,13.0,16.0,3.0,1.0,-2.0,-7.0,-11.0,-25.0
1701873726.7667913,3.0,-1.0,10.0,8.0,4.0,1.0,-5.0,7.0
1701873726.7667913,-8.0,1.0,-32.0,-23.0,-8.0,-2.0,5.0,2.0
1701873726.7667913,-7.0,-3.0,-3.0,-5.0,-7.0,-10.0,-8.0,-5.0
1701873726.79716,9.0,10.0,3.0,-1.0,1.0,1.0,7.0,9.0
1701873726.79716,-13.0,-21.0,-8.0,-3.0,3.0,2.0,-2.0,-3.0
1701873726.79716,13.0,16.0,9.0,13.0,5.0,5.0,1.0,5.0
1701873726.79716,-21.0,-20.0,-8.0,-13.0,-4.0,-12.0,-14.0,-28.0
1701873726.8171642,11.0,14.0,19.0,9.0,12.0,43.0,52.0,30.0
1701873726.8171642,-5.0,-34.0,-26.0,-5.0,-6.0,-9.0,-15.0,-26.0
1701873726.8367896,23.0,14.0,24.0,16.0,2.0,1.0,2.0,17.0
1701873726.8367896,-20.0,-54.0,-56.0,-28.0,-12.0,-15.0,-11.0,-7.0
1701873726.8367896,7.0,6.0,10.0,-2.0,-3.0,-17.0,-13.0,-2.0
1701873726.8367896,-11.0,10.0,12.0,4.0,-1.0,7.0,4.0,-3.0
1701873726.8367896,1.0,-7.0,6.0,8.0,6.0,7.0,4.0,-4.0
1701873726.8367896,24.0,59.0,35.0,28.0,11.0,7.0,6.0,9.0
1701873726.857166,-30.0,-93.0,-41.0,-13.0,-8.0,-18.0,-18.0,-16.0
1701873726.857166,-15.0,-25.0,-12.0,-17.0,-7.0,2.0,7.0,7.0
1701873726.857166,-3.0,-14.0,-15.0,-9.0,-5.0,-4.0,-9.0,-10.0
1701873726.857166,3.0,13.0,8.0,0.0,4.0,4.0,-2.0,0.0
1701873726.8767908,0.0,10.0,-1.0,-8.0,-9.0,-10.0,-9.0,-6.0
1701873726.8767908,17.0,28.0,26.0,17.0,0.0,-2.0,3.0,8.0
1701873726.8767908,-5.0,-33.0,-33.0,-7.0,4.0,5.0,0.0,2.0
1701873726.8767908,3.0,20.0,16.0,7.0,-2.0,2.0,7.0,0.0
1701873726.886978,0.0,8.0,10.0,1.0,-5.0,-8.0,-9.0,-7.0
1701873726.886978,35.0,5.0,-11.0,-12.0,-1.0,-4.0,-1.0,22.0
1701873726.886978,-5.0,16.0,29.0,11.0,-2.0,-6.0,2.0,-6.0
1701873726.886978,-4.0,-12.0,-41.0,-17.0,3.0,12.0,4.0,-2.0
1701873726.9170995,-13.0,11.0,1.0,2.0,6.0,-5.0,-13.0,-7.0
1701873726.9170995,6.0,13.0,19.0,11.0,-4.0,-2.0,4.0,1.0
1701873726.9170995,-5.0,-3.0,-6.0,5.0,3.0,4.0,3.0,2.0
1701873726.9170995,6.0,3.0,7.0,-8.0,-3.0,-2.0,1.0,3.0
1701873726.937085,18.0,23.0,13.0,-3.0,-8.0,-5.0,15.0,28.0
1701873726.937085,-24.0,-18.0,-24.0,-10.0,-3.0,-11.0,-33.0,-60.0
1701873726.937085,-4.0,-12.0,-2.0,-2.0,-4.0,6.0,14.0,10.0
1701873726.937085,-12.0,-15.0,1.0,-5.0,-4.0,-12.0,-17.0,-13.0
1701873726.9467928,-10.0,-6.0,-25.0,-9.0,-2.0,-6.0,-5.0,-2.0
1701873726.9467928,-5.0,12.0,7.0,3.0,2.0,7.0,13.0,4.0
1701873726.9467928,3.0,6.0,4.0,-4.0,-6.0,-11.0,-13.0,-2.0
1701873726.9467928,9.0,1.0,15.0,16.0,7.0,11.0,12.0,10.0
1701873726.9771733,11.0,-10.0,-17.0,-3.0,4.0,-6.0,-7.0,10.0
1701873726.9771733,-15.0,-20.0,-8.0,-8.0,-5.0,-6.0,2.0,-5.0
1701873726.9771733,15.0,25.0,13.0,5.0,-3.0,-2.0,-6.0,-9.0
1701873726.9771733,-9.0,-9.0,2.0,-2.0,-6.0,0.0,10.0,6.0
1701873726.9967914,3.0,17.0,16.0,16.0,13.0,10.0,-6.0,-9.0
1701873726.9967914,-7.0,-17.0,-7.0,-8.0,2.0,0.0,-2.0,-2.0
1701873726.9967914,-8.0,-23.0,-36.0,-30.0,-15.0,-12.0,-12.0,-7.0
1701873726.9967914,12.0,25.0,40.0,36.0,11.0,4.0,10.0,14.0
1701873727.0068,4.0,-5.0,-23.0,-8.0,-7.0,-5.0,-3.0,-6.0
1701873727.0068,7.0,3.0,-2.0,-11.0,-4.0,4.0,1.0,0.0
1701873727.0068,-23.0,4.0,27.0,8.0,4.0,3.0,-6.0,-6.0
1701873727.0068,7.0,15.0,-1.0,-1.0,-4.0,-9.0,-6.0,-8.0
1701873727.0367937,1.0,-21.0,-16.0,1.0,1.0,9.0,3.0,4.0
1701873727.0367937,4.0,39.0,4.0,-6.0,-9.0,-5.0,5.0,12.0
1701873727.0367937,-14.0,-32.0,-10.0,-4.0,-1.0,-3.0,-3.0,-16.0
1701873727.0367937,-11.0,-13.0,2.0,-1.0,-4.0,-1.0,-1.0,-13.0
1701873727.0567913,7.0,21.0,20.0,5.0,2.0,-3.0,-7.0,17.0
1701873727.0567913,-11.0,18.0,5.0,3.0,3.0,-5.0,7.0,13.0
1701873727.0567913,8.0,22.0,6.0,-1.0,0.0,12.0,10.0,-12.0
1701873727.0567913,-9.0,-32.0,-5.0,4.0,7.0,2.0,-7.0,-4.0
1701873727.0667903,-6.0,-3.0,-21.0,-6.0,4.0,4.0,7.0,2.0
1701873727.0667903,5.0,33.0,16.0,4.0,-2.0,-12.0,-24.0,-8.0
1701873727.0667903,9.0,-3.0,-7.0,1.0,2.0,5.0,12.0,13.0
1701873727.0667903,10.0,34.0,11.0,3.0,1.0,-5.0,-1.0,2.0
1701873727.1068823,-3.0,-5.0,7.0,-5.0,-9.0,-18.0,-25.0,-23.0
1701873727.1068823,-1.0,-17.0,-14.0,1.0,1.0,21.0,40.0,33.0
1701873727.1068823,6.0,17.0,-2.0,-2.0,2.0,6.0,-3.0,3.0
1701873727.1068823,10.0,30.0,10.0,2.0,4.0,8.0,1.0,4.0
1701873727.119982,-25.0,-87.0,-5.0,-3.0,-7.0,-9.0,-6.0,-4.0
1701873727.119982,-19.0,29.0,-1.0,8.0,6.0,0.0,-12.0,-24.0
1701873727.1209912,-5.0,-2.0,-12.0,-14.0,-6.0,-8.0,-4.0,-1.0
1701873727.1209912,9.0,-7.0,15.0,-1.0,-5.0,-4.0,-2.0,14.0
1701873727.1343052,19.0,29.0,12.0,8.0,3.0,8.0,9.0,-1.0
1701873727.1343052,7.0,12.0,0.0,3.0,-1.0,5.0,3.0,1.0
1701873727.1352818,-3.0,-18.0,-6.0,10.0,3.0,-1.0,2.0,3.0
1701873727.1352818,-6.0,-3.0,-17.0,-23.0,-1.0,-4.0,-8.0,-3.0
1701873727.1530335,-9.0,-11.0,-31.0,-27.0,-20.0,-9.0,1.0,-5.0
1701873727.1530335,6.0,-13.0,8.0,12.0,12.0,9.0,0.0,-4.0
1701873727.1530335,10.0,4.0,18.0,11.0,5.0,-3.0,-3.0,13.0
1701873727.1530335,-6.0,-4.0,-6.0,3.0,3.0,-3.0,-7.0,-15.0
1701873727.1729593,-6.0,28.0,12.0,0.0,5.0,9.0,11.0,13.0
1701873727.1729593,-7.0,-31.0,-38.0,-23.0,-16.0,-11.0,-13.0,-10.0
1701873727.1729593,-4.0,-1.0,-4.0,1.0,-4.0,-3.0,-6.0,0.0
1701873727.1729593,-16.0,-35.0,1.0,16.0,8.0,9.0,0.0,-18.0
1701873727.193223,19.0,27.0,18.0,-2.0,-6.0,-4.0,0.0,13.0
1701873727.193223,9.0,11.0,15.0,2.0,-3.0,-3.0,-2.0,2.0
1701873727.2028651,-2.0,-6.0,-7.0,-7.0,7.0,1.0,0.0,-3.0
1701873727.2028651,-12.0,-25.0,-46.0,-31.0,-13.0,-8.0,0.0,0.0
1701873727.2228549,-20.0,5.0,17.0,1.0,3.0,1.0,-3.0,-15.0
1701873727.2228549,39.0,-11.0,8.0,15.0,5.0,-1.0,0.0,21.0
1701873727.2228549,-10.0,-2.0,-18.0,-16.0,-11.0,-9.0,-7.0,-21.0
1701873727.2228549,-10.0,-43.0,12.0,12.0,-3.0,-7.0,-6.0,-5.0
1701873727.2331338,-11.0,-7.0,-28.0,-10.0,-1.0,-4.0,0.0,-7.0
1701873727.2331338,-7.0,-3.0,9.0,0.0,-1.0,2.0,10.0,12.0
1701873727.2331338,-12.0,2.0,9.0,0.0,-1.0,4.0,-4.0,-10.0
1701873727.2331338,5.0,2.0,-15.0,-5.0,1.0,1.0,0.0,3.0
1701873727.2536662,3.0,-4.0,5.0,9.0,5.0,-10.0,-17.0,3.0
1701873727.2536662,-13.0,2.0,-8.0,-7.0,-5.0,3.0,22.0,2.0
1701873727.2536662,7.0,-8.0,-8.0,-3.0,-4.0,-11.0,-16.0,-11.0
1701873727.2536662,-3.0,10.0,14.0,4.0,-3.0,-3.0,7.0,1.0
1701873727.2832446,3.0,-6.0,12.0,2.0,-7.0,-2.0,-13.0,1.0
1701873727.2832446,-1.0,-2.0,-21.0,-9.0,-1.0,12.0,7.0,-5.0
1701873727.2832446,5.0,3.0,-13.0,-12.0,-1.0,-3.0,4.0,21.0
1701873727.2832446,-4.0,13.0,9.0,-2.0,-8.0,-8.0,-23.0,-43.0
1701873727.2936025,13.0,9.0,2.0,9.0,9.0,6.0,11.0,6.0
1701873727.2936025,-28.0,8.0,3.0,-2.0,4.0,-6.0,-12.0,-17.0
1701873727.2936025,-10.0,-23.0,3.0,-3.0,-7.0,-4.0,-1.0,-4.0
1701873727.2936025,5.0,19.0,3.0,-1.0,-5.0,2.0,13.0,24.0
1701873727.3136425,1.0,7.0,-14.0,-19.0,3.0,4.0,3.0,-4.0
1701873727.3136425,-15.0,-39.0,-3.0,7.0,0.0,-5.0,-7.0,-10.0
1701873727.3232808,10.0,-3.0,9.0,18.0,2.0,-6.0,-3.0,-1.0
1701873727.3232808,18.0,29.0,-23.0,-18.0,13.0,0.0,-2.0,7.0
1701873727.3334124,-9.0,4.0,6.0,-2.0,-11.0,2.0,0.0,-14.0
1701873727.3334124,4.0,-24.0,-3.0,-1.0,-6.0,-7.0,-2.0,10.0
1701873727.3334124,8.0,22.0,8.0,11.0,3.0,3.0,-2.0,5.0
1701873727.3334124,-3.0,-29.0,1.0,13.0,-6.0,-7.0,-13.0,-3.0
1701873727.3536818,-20.0,5.0,-10.0,5.0,4.0,7.0,8.0,-1.0
1701873727.3536818,10.0,-9.0,-5.0,-7.0,0.0,0.0,-6.0,-16.0
1701873727.3536818,-9.0,-2.0,12.0,2.0,-6.0,-9.0,-10.0,-6.0
1701873727.3536818,-4.0,9.0,2.0,-1.0,0.0,4.0,-1.0,-8.0
1701873727.3738217,-3.0,-15.0,11.0,9.0,6.0,7.0,6.0,8.0
1701873727.3738217,-6.0,15.0,-3.0,0.0,-5.0,-8.0,-11.0,-4.0
1701873727.4036992,-2.0,-7.0,2.0,-2.0,4.0,7.0,11.0,5.0
1701873727.4036992,6.0,20.0,6.0,-4.0,0.0,3.0,6.0,7.0
1701873727.4036992,-10.0,-17.0,4.0,0.0,-3.0,-7.0,-4.0,-11.0
1701873727.4036992,-1.0,3.0,10.0,6.0,3.0,7.0,5.0,3.0
1701873727.4036992,-1.0,17.0,2.0,-4.0,-1.0,5.0,1.0,-4.0
1701873727.4036992,-4.0,-5.0,-9.0,-2.0,1.0,7.0,7.0,7.0
1701873727.4139178,12.0,12.0,10.0,8.0,-2.0,-2.0,3.0,1.0
1701873727.4139178,-4.0,-17.0,-8.0,-7.0,-5.0,-5.0,-7.0,-6.0
1701873727.4139178,-11.0,9.0,0.0,-9.0,1.0,3.0,4.0,4.0
1701873727.4139178,-17.0,-24.0,4.0,-1.0,-5.0,-14.0,-15.0,-14.0
1701873727.4338536,-7.0,-6.0,-9.0,-6.0,-1.0,3.0,0.0,-5.0
1701873727.4338536,19.0,21.0,5.0,9.0,2.0,-5.0,-3.0,10.0
1701873727.4637036,-4.0,-27.0,-10.0,-2.0,-3.0,-5.0,-7.0,-16.0
1701873727.4637036,10.0,15.0,-4.0,-9.0,-8.0,-3.0,9.0,17.0
1701873727.4637036,2.0,-1.0,-1.0,1.0,1.0,6.0,1.0,-20.0
1701873727.4637036,6.0,17.0,18.0,9.0,3.0,-3.0,-3.0,0.0
1701873727.4637036,-8.0,-17.0,-1.0,12.0,5.0,5.0,2.0,7.0
1701873727.4637036,7.0,-2.0,-26.0,-17.0,1.0,4.0,2.0,6.0
1701873727.4738867,7.0,13.0,-6.0,-4.0,-3.0,-2.0,9.0,13.0
1701873727.4738867,-8.0,3.0,12.0,2.0,-3.0,-2.0,-4.0,-3.0
1701873727.4738867,2.0,-16.0,-19.0,1.0,4.0,6.0,13.0,0.0
1701873727.4738867,-3.0,11.0,17.0,2.0,-6.0,-9.0,-12.0,-2.0
1701873727.503698,-28.0,2.0,9.0,3.0,4.0,3.0,-4.0,-2.0
1701873727.503698,-16.0,-27.0,-23.0,-14.0,-3.0,-2.0,0.0,-6.0
1701873727.503698,17.0,33.0,13.0,2.0,-1.0,-5.0,2.0,16.0
1701873727.503698,-11.0,7.0,20.0,12.0,1.0,1.0,-1.0,-8.0
1701873727.5139346,12.0,-17.0,-29.0,-14.0,-2.0,-4.0,-5.0,-7.0
1701873727.5139346,-5.0,-27.0,-11.0,-8.0,-5.0,-6.0,-10.0,-4.0
1701873727.5139346,-3.0,27.0,14.0,3.0,3.0,-4.0,-11.0,-13.0
1701873727.5139346,-9.0,-37.0,-1.0,0.0,-1.0,-9.0,-8.0,5.0
1701873727.5337086,-10.0,47.0,19.0,11.0,9.0,36.0,43.0,5.0
1701873727.5337086,15.0,15.0,1.0,-3.0,-1.0,-6.0,-13.0,-11.0
1701873727.5337086,0.0,-8.0,-4.0,-4.0,-4.0,-13.0,-15.0,-11.0
1701873727.5337086,10.0,-3.0,-13.0,-5.0,-5.0,-6.0,-2.0,12.0
1701873727.5637026,8.0,-12.0,3.0,2.0,-2.0,-19.0,-20.0,-4.0
1701873727.5637026,-1.0,-6.0,-20.0,-11.0,-4.0,9.0,15.0,11.0
1701873727.5637026,6.0,0.0,1.0,-9.0,-6.0,0.0,-9.0,-12.0
1701873727.5637026,3.0,6.0,5.0,5.0,-5.0,-15.0,-17.0,-9.0
1701873727.5740194,-13.0,-3.0,6.0,6.0,5.0,4.0,2.0,1.0
1701873727.5740194,7.0,11.0,9.0,6.0,3.0,2.0,2.0,1.0
1701873727.5740194,-3.0,27.0,-9.0,-13.0,-3.0,0.0,2.0,3.0
1701873727.5740194,-4.0,-16.0,3.0,11.0,3.0,12.0,16.0,11.0
1701873727.5940807,0.0,-30.0,-54.0,-39.0,-24.0,-24.0,-20.0,-11.0
1701873727.5940807,14.0,58.0,52.0,18.0,10.0,8.0,4.0,11.0
1701873727.5940807,-23.0,-23.0,-5.0,2.0,1.0,5.0,6.0,-6.0
1701873727.5940807,-8.0,-19.0,-12.0,-15.0,-7.0,-3.0,1.0,-11.0
1701873727.6137,11.0,3.0,25.0,17.0,7.0,1.0,-1.0,10.0
1701873727.6137,6.0,-27.0,-15.0,-6.0,-4.0,-6.0,-9.0,-14.0
1701873727.6237025,0.0,15.0,11.0,-5.0,-1.0,3.0,7.0,15.0
1701873727.6237025,10.0,40.0,7.0,4.0,6.0,10.0,13.0,16.0
1701873727.6340778,8.0,-10.0,5.0,9.0,-1.0,-8.0,-11.0,-3.0
1701873727.6340778,-6.0,9.0,-1.0,8.0,0.0,3.0,5.0,-9.0
1701873727.6340778,4.0,-24.0,-26.0,-13.0,-6.0,-1.0,3.0,1.0
1701873727.6340778,0.0,-18.0,-6.0,-8.0,-3.0,0.0,2.0,-3.0
1701873727.6600893,-7.0,-10.0,3.0,7.0,0.0,-4.0,-7.0,-5.0
1701873727.6600893,-6.0,1.0,11.0,-9.0,-5.0,0.0,6.0,14.0
1701873727.6615486,5.0,-26.0,-32.0,-7.0,-5.0,-6.0,-2.0,-6.0
1701873727.6615486,-4.0,8.0,-6.0,-8.0,2.0,-4.0,-8.0,-6.0
1701873727.6756878,5.0,8.0,4.0,-3.0,-2.0,10.0,19.0,3.0
1701873727.6756878,-6.0,0.0,9.0,8.0,5.0,2.0,1.0,0.0
1701873727.6756878,-24.0,-37.0,10.0,10.0,-2.0,-4.0,-10.0,-3.0
1701873727.6756878,1.0,7.0,-16.0,-13.0,-5.0,7.0,16.0,7.0
1701873727.6960108,21.0,-4.0,0.0,4.0,-1.0,1.0,2.0,-4.0
1701873727.6960108,-8.0,5.0,-5.0,0.0,0.0,-5.0,-10.0,-8.0
1701873727.6960108,2.0,30.0,9.0,-2.0,-2.0,-2.0,-2.0,8.0
1701873727.6960108,-1.0,-2.0,1.0,-1.0,1.0,-1.0,-3.0,-9.0
1701873727.7159142,0.0,19.0,3.0,0.0,1.0,-1.0,-4.0,0.0
1701873727.7256894,13.0,-1.0,-17.0,-9.0,-5.0,-8.0,-8.0,-7.0
1701873727.7256894,19.0,15.0,32.0,13.0,3.0,1.0,3.0,10.0
1701873727.7256894,-6.0,-9.0,-19.0,5.0,2.0,5.0,-3.0,-8.0
1701873727.7358975,-11.0,-1.0,-6.0,-11.0,-6.0,-11.0,-11.0,-5.0
1701873727.7358975,-10.0,-23.0,-11.0,-5.0,-5.0,0.0,0.0,-1.0
1701873727.7358975,1.0,25.0,20.0,-1.0,-3.0,-2.0,3.0,-2.0
1701873727.7358975,3.0,3.0,9.0,6.0,9.0,5.0,5.0,2.0
1701873727.7559698,4.0,-6.0,-7.0,-9.0,-5.0,-4.0,-6.0,1.0
1701873727.7559698,1.0,26.0,17.0,8.0,0.0,1.0,0.0,3.0
1701873727.7559698,6.0,16.0,2.0,4.0,1.0,2.0,4.0,2.0
1701873727.7559698,24.0,-9.0,-26.0,4.0,-6.0,-5.0,-7.0,-4.0
1701873727.7956922,-16.0,-30.0,-18.0,-15.0,-7.0,-6.0,-9.0,-7.0
1701873727.7956922,-5.0,-1.0,-5.0,-13.0,-4.0,-2.0,0.0,-8.0
1701873727.7956922,32.0,19.0,4.0,4.0,0.0,-1.0,5.0,11.0
1701873727.7956922,13.0,29.0,27.0,25.0,8.0,5.0,-1.0,2.0
1701873727.7956922,-17.0,18.0,-34.0,-22.0,1.0,1.0,-5.0,-16.0
1701873727.7956922,8.0,-14.0,-12.0,-8.0,-5.0,-5.0,2.0,24.0
1701873727.7956922,-7.0,8.0,-6.0,6.0,7.0,8.0,6.0,-12.0
1701873727.7956922,-6.0,-5.0,-6.0,-7.0,-5.0,-10.0,-21.0,-19.0
1701873727.8160872,6.0,-2.0,5.0,6.0,1.0,1.0,14.0,26.0
1701873727.8160872,-15.0,-15.0,-5.0,-2.0,1.0,5.0,-20.0,-36.0
1701873727.8160872,-1.0,9.0,6.0,1.0,0.0,-14.0,-21.0,-1.0
1701873727.8160872,-2.0,17.0,15.0,11.0,4.0,15.0,27.0,11.0
1701873727.8356898,0.0,-16.0,2.0,3.0,4.0,12.0,9.0,14.0
1701873727.8356898,3.0,-1.0,-15.0,-6.0,3.0,25.0,33.0,3.0
1701873727.8356898,-8.0,-30.0,-5.0,-2.0,-7.0,-17.0,-27.0,-24.0
1701873727.8356898,-7.0,-10.0,4.0,-4.0,-6.0,-13.0,-17.0,-13.0
1701873727.8560371,-7.0,-13.0,0.0,-3.0,-2.0,-10.0,-9.0,-1.0
1701873727.8560371,2.0,-1.0,12.0,11.0,2.0,4.0,17.0,11.0
1701873727.8560371,-30.0,-21.0,25.0,19.0,5.0,7.0,3.0,3.0
1701873727.8560371,-40.0,-31.0,-33.0,-31.0,-5.0,-5.0,-6.0,-10.0
1701873727.8760579,7.0,-3.0,27.0,1.0,-4.0,-5.0,-3.0,-5.0
1701873727.8760579,7.0,-7.0,-4.0,15.0,6.0,-9.0,-14.0,-3.0
1701873727.8860574,-5.0,-3.0,9.0,13.0,-3.0,-3.0,6.0,-1.0
1701873727.8860574,-3.0,7.0,-7.0,-18.0,-9.0,-4.0,1.0,7.0
1701873727.906053,4.0,21.0,37.0,16.0,6.0,5.0,1.0,1.0
1701873727.906053,-10.0,-7.0,-34.0,-20.0,1.0,-2.0,-9.0,-9.0
1701873727.906053,22.0,39.0,15.0,12.0,10.0,9.0,9.0,18.0
1701873727.906053,10.0,4.0,5.0,12.0,10.0,10.0,11.0,4.0
1701873727.9164274,-7.0,8.0,-18.0,-9.0,-10.0,-5.0,-5.0,-5.0
1701873727.9164274,-2.0,0.0,-5.0,-8.0,-12.0,-17.0,-16.0,-16.0
1701873727.9164274,-20.0,-45.0,-39.0,-22.0,-13.0,-6.0,-1.0,-5.0
1701873727.9164274,12.0,18.0,16.0,11.0,6.0,6.0,5.0,8.0
1701873727.9360576,-22.0,-11.0,4.0,4.0,4.0,1.0,1.0,-4.0
1701873727.9360576,5.0,11.0,-7.0,-6.0,-4.0,-5.0,-2.0,5.0
1701873727.9360576,0.0,-17.0,-21.0,-19.0,-8.0,-4.0,0.0,1.0
1701873727.9360576,-5.0,-7.0,13.0,3.0,-4.0,-5.0,-7.0,-15.0
1701873727.9564507,29.0,36.0,16.0,12.0,2.0,2.0,0.0,10.0
1701873727.9564507,-20.0,-22.0,18.0,12.0,4.0,3.0,6.0,1.0
1701873727.9564507,-6.0,-37.0,-24.0,-15.0,-5.0,-4.0,-1.0,0.0
1701873727.9564507,3.0,0.0,8.0,6.0,0.0,5.0,1.0,-2.0
1701873727.9763856,-2.0,-6.0,-22.0,-5.0,-1.0,-1.0,-4.0,-6.0
1701873727.9763856,-30.0,-43.0,4.0,-13.0,-7.0,-11.0,-12.0,-10.0
1701873727.9763856,14.0,3.0,7.0,-3.0,-1.0,2.0,7.0,3.0
1701873727.9763856,-4.0,11.0,6.0,10.0,2.0,-1.0,-1.0,7.0
1701873727.9960544,-2.0,4.0,3.0,3.0,0.0,-8.0,-15.0,-17.0
1701873727.9960544,-16.0,-4.0,9.0,8.0,2.0,10.0,10.0,4.0
1701873727.9960544,-3.0,-2.0,-7.0,-4.0,0.0,1.0,-1.0,-4.0
1701873727.9960544,-12.0,-13.0,-16.0,-19.0,-8.0,-4.0,-1.0,3.0
1701873728.0164309,-4.0,-24.0,8.0,5.0,0.0,-5.0,-2.0,-7.0
1701873728.0164309,15.0,29.0,12.0,7.0,2.0,-10.0,-14.0,15.0
1701873728.0164309,-20.0,12.0,-14.0,-11.0,-1.0,7.0,6.0,-15.0
1701873728.0164309,9.0,2.0,4.0,3.0,-1.0,4.0,4.0,2.0
1701873728.0363922,2.0,-3.0,-7.0,1.0,1.0,13.0,9.0,-1.0
1701873728.0363922,4.0,4.0,1.0,-5.0,-4.0,-12.0,-12.0,-7.0
1701873728.0363922,1.0,-9.0,-1.0,1.0,-1.0,-3.0,-15.0,-8.0
1701873728.0363922,-13.0,-13.0,-10.0,-11.0,-4.0,-3.0,-2.0,1.0
1701873728.0660527,-4.0,-11.0,6.0,14.0,4.0,-8.0,-5.0,-6.0
1701873728.0660527,21.0,7.0,-20.0,-14.0,-6.0,3.0,5.0,6.0
1701873728.0660527,6.0,13.0,10.0,1.0,-1.0,12.0,21.0,6.0
1701873728.0660527,-13.0,-11.0,3.0,-1.0,-2.0,-12.0,-14.0,-7.0
1701873728.0763438,-14.0,-26.0,-8.0,-1.0,-4.0,-2.0,2.0,1.0
1701873728.0763438,-6.0,5.0,-1.0,4.0,1.0,6.0,10.0,6.0
1701873728.0763438,-1.0,-24.0,-6.0,-5.0,-3.0,-4.0,-9.0,-7.0
1701873728.0763438,14.0,13.0,7.0,7.0,-1.0,-4.0,-7.0,1.0
1701873728.0963748,4.0,-4.0,-15.0,-8.0,-2.0,4.0,14.0,17.0
1701873728.0963748,11.0,3.0,-20.0,-17.0,-14.0,-12.0,-18.0,-10.0
1701873728.1063077,-26.0,-15.0,2.0,3.0,1.0,-6.0,0.0,-2.0
1701873728.1063077,6.0,34.0,17.0,4.0,0.0,7.0,6.0,1.0
1701873728.1260574,-12.0,-52.0,-12.0,-8.0,-4.0,-8.0,-10.0,-6.0
1701873728.1260574,13.0,1.0,-9.0,10.0,0.0,6.0,5.0,-2.0
1701873728.1360545,26.0,13.0,-42.0,-22.0,-10.0,-8.0,-4.0,9.0
1701873728.1360545,-9.0,4.0,14.0,6.0,2.0,2.0,-4.0,-8.0
1701873728.1360545,-8.0,0.0,-1.0,-17.0,-10.0,-15.0,-10.0,-11.0
1701873728.1360545,6.0,5.0,30.0,2.0,2.0,4.0,7.0,2.0
1701873728.1360545,2.0,11.0,-1.0,10.0,6.0,3.0,0.0,3.0
1701873728.1360545,0.0,-1.0,18.0,3.0,2.0,0.0,-1.0,2.0
1701873728.1760542,3.0,13.0,-17.0,6.0,6.0,2.0,-5.0,-7.0
1701873728.1760542,-17.0,-30.0,3.0,6.0,-4.0,-4.0,0.0,-4.0
1701873728.1760542,13.0,21.0,7.0,1.0,-3.0,-4.0,3.0,13.0
1701873728.1760542,-23.0,-19.0,-17.0,-18.0,-7.0,-11.0,-22.0,-23.0
1701873728.1760542,21.0,16.0,3.0,-3.0,-5.0,-15.0,-15.0,15.0
1701873728.1760542,-9.0,10.0,-9.0,-4.0,3.0,14.0,3.0,-20.0
1701873728.1760542,-18.0,-8.0,11.0,7.0,2.0,-7.0,-21.0,-28.0
1701873728.1760542,10.0,-8.0,-19.0,-10.0,-7.0,-3.0,15.0,16.0
1701873728.2002034,-26.0,-37.0,-5.0,-3.0,-2.0,10.0,5.0,-7.0
1701873728.2002034,16.0,20.0,11.0,12.0,8.0,1.0,13.0,16.0
1701873728.2020893,4.0,-1.0,-10.0,-4.0,-4.0,-1.0,-3.0,2.0
1701873728.2020893,7.0,-7.0,18.0,10.0,1.0,-5.0,-4.0,2.0
1701873728.2286441,24.0,49.0,-23.0,-15.0,-2.0,1.0,-1.0,4.0
1701873728.2286441,-13.0,-36.0,-15.0,6.0,-5.0,-4.0,0.0,1.0
1701873728.2286441,-16.0,-12.0,17.0,9.0,6.0,3.0,2.0,-4.0
1701873728.2286441,-7.0,8.0,12.0,10.0,12.0,3.0,6.0,7.0
1701873728.2286441,15.0,27.0,2.0,4.0,7.0,9.0,9.0,4.0
1701873728.2286441,-21.0,-25.0,-3.0,-6.0,-3.0,-7.0,-10.0,-9.0
1701873728.2389226,10.0,-24.0,-26.0,1.0,4.0,2.0,5.0,3.0
1701873728.2389226,-3.0,-19.0,-23.0,-17.0,-8.0,-3.0,-5.0,-3.0
1701873728.259459,37.0,-3.0,0.0,5.0,-3.0,-1.0,4.0,10.0
1701873728.259459,-16.0,-3.0,1.0,-2.0,-3.0,-4.0,-6.0,-15.0
1701873728.259459,6.0,9.0,14.0,0.0,-1.0,0.0,0.0,11.0
1701873728.259459,26.0,8.0,-9.0,-1.0,-5.0,-12.0,-3.0,30.0
1701873728.2890341,-30.0,-5.0,7.0,-1.0,-5.0,1.0,-6.0,-69.0
1701873728.2890341,37.0,15.0,-3.0,0.0,-1.0,-3.0,7.0,20.0
1701873728.2890341,-14.0,26.0,25.0,9.0,2.0,6.0,5.0,4.0
1701873728.2890341,-14.0,6.0,4.0,9.0,7.0,6.0,0.0,-6.0
1701873728.2890341,-21.0,16.0,11.0,-1.0,-2.0,0.0,4.0,12.0
1701873728.2890341,5.0,0.0,-16.0,-11.0,-2.0,-13.0,-7.0,3.0
1701873728.2993908,10.0,35.0,14.0,0.0,-1.0,7.0,5.0,-8.0
1701873728.2993908,8.0,-34.0,-28.0,-8.0,-4.0,-8.0,-21.0,-12.0
1701873728.3191848,-1.0,45.0,16.0,2.0,-1.0,-2.0,0.0,9.0
1701873728.3191848,-16.0,-11.0,-12.0,-7.0,-2.0,4.0,5.0,-12.0
1701873728.3191848,3.0,0.0,-4.0,-9.0,-6.0,-8.0,0.0,12.0
1701873728.3191848,4.0,2.0,3.0,2.0,-2.0,16.0,18.0,1.0
1701873728.339075,9.0,20.0,37.0,27.0,10.0,5.0,0.0,6.0
1701873728.339075,8.0,0.0,-37.0,-18.0,0.0,2.0,0.0,4.0
1701873728.339075,-24.0,-15.0,11.0,-8.0,-3.0,-8.0,-10.0,-9.0
1701873728.339075,-15.0,14.0,6.0,5.0,0.0,3.0,-1.0,-6.0
1701873728.349121,-2.0,0.0,14.0,8.0,-2.0,-3.0,0.0,-1.0
1701873728.349121,14.0,46.0,5.0,9.0,8.0,7.0,0.0,7.0
1701873728.3592873,-14.0,-10.0,1.0,-1.0,7.0,3.0,0.0,-3.0
1701873728.3592873,-5.0,-3.0,27.0,2.0,-6.0,-5.0,2.0,-9.0
1701873728.3791347,7.0,23.0,10.0,4.0,7.0,7.0,8.0,15.0
1701873728.3791347,-7.0,-14.0,14.0,4.0,-2.0,-4.0,-15.0,-17.0
1701873728.3890345,9.0,2.0,-12.0,-2.0,-6.0,-5.0,-4.0,2.0
1701873728.3890345,-4.0,7.0,-2.0,-2.0,-1.0,0.0,8.0,7.0
1701873728.3990676,-16.0,-46.0,-4.0,5.0,-6.0,-4.0,-5.0,-10.0
1701873728.3990676,10.0,8.0,-13.0,-8.0,-2.0,-6.0,-9.0,-12.0
1701873728.3990676,-2.0,-15.0,-4.0,0.0,-2.0,2.0,2.0,10.0
1701873728.3990676,35.0,45.0,38.0,20.0,6.0,4.0,10.0,5.0
1701873728.4093096,-13.0,-46.0,-87.0,-50.0,-17.0,-17.0,-31.0,-23.0
1701873728.4093096,-3.0,-44.0,-26.0,-26.0,-7.0,2.0,3.0,2.0
1701873728.419227,4.0,14.0,-27.0,-18.0,-7.0,-7.0,-2.0,-5.0
1701873728.419227,-5.0,-6.0,11.0,5.0,-4.0,-13.0,-11.0,3.0
1701873728.4390838,18.0,16.0,28.0,14.0,5.0,4.0,13.0,16.0
1701873728.4390838,-16.0,-12.0,12.0,12.0,2.0,-4.0,5.0,1.0
1701873728.4390838,11.0,9.0,-1.0,-1.0,-1.0,20.0,20.0,6.0
1701873728.4390838,-3.0,-16.0,-16.0,-4.0,-4.0,-22.0,-25.0,3.0
1701873728.4590325,-8.0,0.0,-3.0,0.0,-1.0,3.0,6.0,-30.0
1701873728.4590325,18.0,32.0,16.0,-3.0,4.0,11.0,12.0,31.0
1701873728.4590325,-19.0,-54.0,-8.0,3.0,-6.0,-18.0,-26.0,-26.0
1701873728.4590325,7.0,-5.0,-24.0,-14.0,-3.0,13.0,18.0,5.0
1701873728.4694185,5.0,32.0,7.0,-1.0,-1.0,-15.0,-29.0,0.0
1701873728.4694185,-5.0,9.0,21.0,9.0,-1.0,-7.0,-2.0,-2.0
1701873728.4793856,25.0,-49.0,-26.0,-2.0,0.0,0.0,2.0,2.0
1701873728.4793856,-21.0,-30.0,-36.0,-21.0,-8.0,-5.0,-11.0,-12.0
1701873728.4991136,-5.0,11.0,3.0,-5.0,1.0,10.0,11.0,7.0
1701873728.4991136,-8.0,-12.0,-9.0,0.0,-9.0,-4.0,-1.0,-5.0
1701873728.4991136,-3.0,-8.0,-40.0,-25.0,-11.0,-6.0,-7.0,-6.0
1701873728.4991136,0.0,26.0,35.0,5.0,10.0,4.0,1.0,-9.0
1701873728.5190685,-2.0,-28.0,18.0,24.0,5.0,5.0,8.0,14.0
1701873728.5190685,4.0,21.0,-20.0,-20.0,-8.0,-3.0,-5.0,-6.0
1701873728.5190685,2.0,42.0,35.0,27.0,24.0,6.0,-3.0,3.0
1701873728.5190685,2.0,-16.0,-21.0,-12.0,-10.0,-2.0,1.0,-8.0
1701873728.529406,-14.0,-8.0,21.0,-3.0,-11.0,-6.0,7.0,11.0
1701873728.529406,9.0,30.0,5.0,9.0,2.0,-1.0,-14.0,-10.0
1701873728.5393803,11.0,24.0,6.0,10.0,0.0,1.0,-1.0,-4.0
1701873728.5393803,-35.0,-29.0,-8.0,-17.0,-2.0,0.0,-7.0,-21.0
1701873728.5590343,-7.0,4.0,-10.0,-4.0,-2.0,-4.0,-2.0,-7.0
1701873728.5590343,1.0,18.0,19.0,7.0,-3.0,-4.0,-3.0,6.0
1701873728.5590343,8.0,-1.0,-10.0,-14.0,-6.0,-5.0,1.0,2.0
1701873728.5590343,-1.0,10.0,-10.0,-1.0,4.0,7.0,12.0,15.0
1701873728.5793667,2.0,-45.0,-11.0,1.0,5.0,5.0,-8.0,2.0
1701873728.5793667,-15.0,-62.0,-15.0,-5.0,-9.0,-18.0,-6.0,-15.0
1701873728.5793667,-1.0,16.0,-2.0,-3.0,-1.0,0.0,-2.0,0.0
1701873728.5793667,18.0,12.0,8.0,10.0,3.0,-1.0,0.0,9.0
1701873728.5993507,11.0,0.0,-8.0,-7.0,0.0,1.0,-7.0,2.0
1701873728.5993507,3.0,5.0,4.0,6.0,3.0,7.0,6.0,-6.0
1701873728.5993507,-13.0,-41.0,-19.0,-16.0,-9.0,-7.0,7.0,7.0
1701873728.5993507,22.0,26.0,-14.0,-7.0,-9.0,-14.0,-6.0,2.0
1701873728.6290343,-15.0,-58.0,-15.0,3.0,3.0,6.0,7.0,-4.0
1701873728.6290343,-7.0,10.0,19.0,11.0,4.0,-4.0,-6.0,-3.0
1701873728.6290343,13.0,-8.0,-7.0,-6.0,-6.0,-6.0,-14.0,-4.0
1701873728.6290343,8.0,0.0,-7.0,-1.0,1.0,6.0,20.0,15.0
1701873728.6390674,2.0,27.0,22.0,5.0,4.0,-1.0,-14.0,-23.0
1701873728.6390674,-13.0,-15.0,-17.0,-5.0,-4.0,-3.0,-5.0,-5.0
1701873728.6390674,5.0,13.0,2.0,-4.0,-3.0,-1.0,5.0,15.0
1701873728.6390674,-6.0,6.0,23.0,13.0,2.0,0.0,5.0,-4.0
1701873728.6590362,7.0,15.0,-14.0,-12.0,-4.0,-7.0,-11.0,4.0
1701873728.6590362,2.0,33.0,4.0,-1.0,0.0,-9.0,-14.0,5.0
1701873728.6590362,-9.0,17.0,32.0,18.0,7.0,38.0,43.0,2.0
1701873728.6590362,12.0,-5.0,-3.0,11.0,1.0,-2.0,-8.0,-3.0
1701873728.679036,12.0,15.0,-6.0,-9.0,1.0,-5.0,0.0,0.0
1701873728.679036,5.0,-33.0,-16.0,3.0,4.0,-1.0,-6.0,1.0
1701873728.679036,-13.0,-15.0,-24.0,-29.0,-5.0,-17.0,-22.0,-12.0
1701873728.679036,6.0,14.0,13.0,6.0,-1.0,5.0,6.0,2.0
1701873728.6994407,-14.0,44.0,41.0,18.0,5.0,4.0,0.0,-6.0
1701873728.6994407,-24.0,-57.0,-9.0,7.0,4.0,3.0,1.0,-3.0
1701873728.6994407,-8.0,-33.0,-23.0,-9.0,-8.0,-12.0,-6.0,-5.0
1701873728.6994407,-26.0,27.0,35.0,7.0,-1.0,-1.0,-6.0,-16.0
1701873728.7251189,1.0,-8.0,-25.0,-19.0,-10.0,-6.0,5.0,11.0
1701873728.7251189,27.0,54.0,28.0,11.0,5.0,2.0,-5.0,-1.0
1701873728.7265425,-28.0,-4.0,27.0,14.0,6.0,5.0,6.0,1.0
1701873728.7265425,-14.0,-35.0,-15.0,-11.0,-8.0,-16.0,-33.0,-20.0
1701873728.7393727,15.0,-9.0,-6.0,-5.0,-5.0,26.0,41.0,16.0
1701873728.7393727,-22.0,-28.0,0.0,0.0,5.0,19.0,15.0,-5.0
1701873728.7412043,8.0,-20.0,10.0,11.0,-2.0,-8.0,-9.0,11.0
1701873728.7412043,-22.0,-59.0,-55.0,-25.0,-6.0,-12.0,-9.0,-8.0
1701873728.7615764,-13.0,1.0,5.0,-2.0,-5.0,-15.0,-22.0,-24.0
1701873728.7615764,-4.0,-7.0,-9.0,-11.0,-7.0,1.0,17.0,21.0
1701873728.7615764,27.0,22.0,12.0,12.0,0.0,-8.0,-14.0,-1.0
1701873728.7615764,-26.0,-4.0,14.0,8.0,6.0,7.0,-1.0,2.0
1701873728.7812064,2.0,-9.0,0.0,3.0,-3.0,-7.0,4.0,3.0
1701873728.7812064,2.0,5.0,-13.0,-10.0,-4.0,5.0,10.0,13.0
1701873728.7812064,-15.0,7.0,11.0,7.0,8.0,5.0,-7.0,-10.0
1701873728.7812064,26.0,-16.0,-10.0,1.0,-1.0,-10.0,-7.0,4.0
1701873728.7915924,-14.0,5.0,-12.0,-9.0,1.0,5.0,10.0,2.0
1701873728.7915924,7.0,-9.0,-2.0,-8.0,-8.0,-10.0,-17.0,-9.0
1701873728.8018825,9.0,-12.0,2.0,-5.0,-12.0,-13.0,-8.0,-3.0
1701873728.8018825,-2.0,19.0,-2.0,6.0,7.0,11.0,10.0,1.0
1701873728.821967,-3.0,-27.0,-10.0,2.0,-2.0,-13.0,-17.0,-2.0
1701873728.821967,-18.0,24.0,11.0,4.0,-2.0,-1.0,8.0,-2.0
1701873728.821967,-6.0,-10.0,-15.0,-10.0,3.0,4.0,3.0,-5.0
1701873728.821967,5.0,11.0,-3.0,-10.0,-6.0,0.0,-2.0,-1.0
1701873728.8419392,9.0,-9.0,13.0,18.0,6.0,1.0,-4.0,3.0
1701873728.8419392,2.0,61.0,14.0,-3.0,0.0,-4.0,-4.0,-1.0
1701873728.8419392,-13.0,-49.0,-20.0,-12.0,-8.0,-1.0,10.0,-1.0
1701873728.8419392,-7.0,4.0,15.0,6.0,-1.0,2.0,5.0,-6.0
1701873728.8616028,14.0,-2.0,-25.0,-14.0,3.0,2.0,-10.0,5.0
1701873728.8616028,-6.0,-5.0,-1.0,4.0,-1.0,-9.0,-9.0,-15.0
1701873728.8616028,5.0,39.0,24.0,5.0,1.0,7.0,12.0,4.0
1701873728.8616028,-1.0,-14.0,-17.0,-9.0,-2.0,6.0,10.0,2.0
1701873728.8819764,-11.0,8.0,4.0,2.0,-1.0,-13.0,-14.0,-5.0
1701873728.8819764,-27.0,-26.0,4.0,5.0,7.0,8.0,9.0,1.0
1701873728.8819764,7.0,-11.0,-2.0,-3.0,-3.0,-8.0,-21.0,-23.0
1701873728.8819764,16.0,20.0,4.0,11.0,8.0,36.0,52.0,32.0
1701873728.9016032,16.0,4.0,-12.0,-4.0,-2.0,1.0,12.0,22.0
1701873728.9016032,-16.0,16.0,26.0,4.0,-2.0,-16.0,-58.0,-71.0
1701873728.9016032,-14.0,-21.0,-41.0,0.0,4.0,1.0,9.0,6.0
1701873728.9016032,3.0,-16.0,2.0,3.0,-2.0,-11.0,-19.0,-13.0
1701873728.9117913,-15.0,-39.0,-37.0,-30.0,-15.0,-20.0,-9.0,-14.0
1701873728.9117913,21.0,28.0,42.0,9.0,3.0,37.0,50.0,41.0
1701873728.9216104,-1.0,19.0,-1.0,3.0,-4.0,-9.0,-14.0,-11.0
1701873728.9216104,-6.0,4.0,-5.0,-11.0,-2.0,-8.0,-17.0,-15.0
1701873728.9419496,-10.0,-10.0,14.0,13.0,1.0,-7.0,-3.0,13.0
1701873728.9419496,16.0,14.0,-6.0,1.0,-2.0,-2.0,0.0,3.0
1701873728.9419496,-3.0,4.0,-13.0,-5.0,-1.0,4.0,0.0,-8.0
1701873728.9419496,-4.0,-9.0,5.0,10.0,-13.0,-10.0,4.0,15.0
1701873728.9616032,5.0,6.0,-16.0,-9.0,1.0,1.0,-7.0,-12.0
1701873728.9616032,10.0,0.0,7.0,-3.0,4.0,0.0,3.0,4.0
1701873728.9616032,4.0,13.0,40.0,35.0,11.0,3.0,1.0,2.0
1701873728.9616032,17.0,39.0,-8.0,-9.0,-8.0,-15.0,-9.0,-2.0
1701873728.9716036,-16.0,-24.0,24.0,21.0,4.0,3.0,-3.0,-7.0
1701873728.9716036,-6.0,-26.0,4.0,8.0,-20.0,-19.0,-10.0,-7.0
1701873728.9818702,4.0,22.0,-1.0,-12.0,-12.0,0.0,4.0,12.0
1701873728.9818702,-6.0,-24.0,-19.0,15.0,42.0,8.0,-6.0,-10.0
1701873729.0016043,11.0,50.0,-6.0,-62.0,-7.0,9.0,12.0,7.0
1701873729.0016043,4.0,0.0,-7.0,14.0,-2.0,-6.0,-1.0,8.0
1701873729.0016043,5.0,7.0,24.0,-7.0,-4.0,-12.0,-10.0,0.0
1701873729.0016043,-21.0,-23.0,-16.0,0.0,-4.0,-1.0,1.0,-5.0
1701873729.0219517,-1.0,-7.0,-9.0,-7.0,-16.0,-3.0,0.0,-4.0
1701873729.0219517,11.0,27.0,7.0,-4.0,3.0,3.0,1.0,7.0
1701873729.0219517,1.0,19.0,11.0,43.0,8.0,7.0,3.0,1.0
1701873729.0219517,-1.0,-30.0,-15.0,-29.0,6.0,5.0,0.0,1.0
1701873729.0316036,-8.0,-8.0,3.0,3.0,3.0,-1.0,-1.0,4.0
1701873729.0316036,-4.0,-23.0,-26.0,-12.0,-19.0,-10.0,4.0,5.0
1701873729.0419197,0.0,7.0,10.0,-3.0,-2.0,2.0,5.0,1.0
1701873729.0419197,6.0,16.0,6.0,-2.0,-3.0,-6.0,-12.0,4.0
1701873729.0616062,-15.0,-14.0,-3.0,10.0,-2.0,5.0,9.0,-10.0
1701873729.0616062,-13.0,-11.0,-5.0,-11.0,8.0,10.0,-9.0,-25.0
1701873729.0616062,7.0,0.0,-9.0,-8.0,-1.0,-4.0,5.0,24.0
1701873729.0616062,2.0,0.0,5.0,4.0,2.0,16.0,4.0,-15.0
1701873729.0819468,0.0,26.0,17.0,10.0,2.0,21.0,49.0,19.0
1701873729.0819468,-10.0,-7.0,-4.0,3.0,3.0,-14.0,-20.0,4.0
1701873729.0819468,5.0,-1.0,-10.0,-13.0,4.0,5.0,1.0,5.0
1701873729.0819468,13.0,6.0,9.0,-1.0,-15.0,6.0,13.0,4.0
1701873729.091935,0.0,25.0,7.0,14.0,9.0,-2.0,-23.0,-9.0
1701873729.091935,-17.0,-24.0,-12.0,-5.0,9.0,4.0,16.0,-7.0
1701873729.101887,-6.0,-16.0,-14.0,-12.0,-4.0,15.0,11.0,-10.0
1701873729.101887,1.0,15.0,10.0,4.0,-3.0,-1.0,9.0,17.0
1701873729.1316013,6.0,-1.0,0.0,6.0,-4.0,-14.0,-17.0,4.0
1701873729.1316013,9.0,-14.0,-19.0,-11.0,0.0,-10.0,-8.0,8.0
1701873729.1316013,24.0,29.0,0.0,-6.0,-6.0,-19.0,-22.0,-8.0
1701873729.1316013,-10.0,-9.0,-7.0,-6.0,-7.0,-2.0,-3.0,-17.0
1701873729.141812,1.0,-4.0,6.0,3.0,-3.0,0.0,1.0,0.0
1701873729.141812,-1.0,-1.0,-3.0,-5.0,-1.0,-6.0,-11.0,-3.0
1701873729.141812,0.0,7.0,-1.0,8.0,0.0,1.0,12.0,2.0
1701873729.141812,-9.0,-11.0,-1.0,-7.0,-7.0,-6.0,-9.0,-11.0
1701873729.1516078,-1.0,-16.0,-36.0,-21.0,-7.0,-7.0,-7.0,-1.0
1701873729.1516078,12.0,0.0,11.0,7.0,-8.0,-1.0,3.0,4.0
1701873729.1816044,-8.0,3.0,10.0,-37.0,15.0,19.0,12.0,-1.0
1701873729.1816044,5.0,4.0,3.0,23.0,19.0,-5.0,-10.0,10.0
1701873729.1816044,-2.0,6.0,17.0,15.0,-4.0,-16.0,-28.0,-37.0
1701873729.1816044,-9.0,-20.0,-35.0,-15.0,-15.0,-1.0,7.0,7.0
1701873729.1816044,-7.0,-7.0,6.0,-3.0,-15.0,-12.0,-5.0,-6.0
1701873729.1816044,-2.0,-8.0,-13.0,-7.0,-9.0,-8.0,-4.0,1.0
1701873729.20197,-2.0,3.0,11.0,1.0,2.0,5.0,4.0,13.0
1701873729.20197,-5.0,-3.0,-4.0,0.0,3.0,-1.0,-15.0,-33.0
1701873729.20197,-2.0,2.0,-4.0,6.0,1.0,0.0,4.0,17.0
1701873729.20197,2.0,-2.0,5.0,-12.0,-8.0,-3.0,0.0,-3.0
1701873729.2119293,3.0,8.0,11.0,20.0,12.0,6.0,6.0,-2.0
1701873729.2119293,6.0,0.0,13.0,-7.0,1.0,0.0,4.0,19.0
1701873729.2316031,-4.0,-9.0,-15.0,-9.0,-4.0,-9.0,-19.0,-24.0
1701873729.2316031,2.0,6.0,6.0,5.0,-6.0,-9.0,-4.0,11.0
1701873729.2426708,-39.0,-17.0,-3.0,2.0,6.0,9.0,-1.0,-31.0
1701873729.2426708,1.0,-7.0,4.0,-2.0,5.0,9.0,19.0,17.0
1701873729.2446723,5.0,7.0,4.0,1.0,-2.0,-8.0,-6.0,10.0
1701873729.2446723,6.0,-2.0,-15.0,-8.0,-4.0,2.0,-8.0,-10.0
1701873729.2652378,20.0,23.0,4.0,3.0,1.0,0.0,6.0,24.0
1701873729.266259,5.0,0.0,0.0,0.0,1.0,-4.0,-12.0,-18.0
1701873729.2672534,-12.0,0.0,8.0,12.0,1.0,2.0,2.0,-3.0
1701873729.2672534,-7.0,-1.0,7.0,2.0,-1.0,-12.0,-9.0,5.0
1701873729.2743068,0.0,-10.0,-23.0,-22.0,-7.0,-2.0,6.0,5.0
1701873729.2743068,7.0,8.0,5.0,6.0,7.0,13.0,14.0,13.0
1701873729.3043077,5.0,-9.0,-22.0,-5.0,0.0,-3.0,-10.0,-3.0
1701873729.3043077,-7.0,4.0,17.0,7.0,0.0,2.0,0.0,-6.0
1701873729.3043077,-10.0,-14.0,-8.0,-10.0,-1.0,3.0,-5.0,-21.0
1701873729.3043077,-4.0,1.0,4.0,4.0,0.0,-3.0,-4.0,-3.0
1701873729.3043077,-5.0,-6.0,7.0,6.0,1.0,-4.0,3.0,13.0
1701873729.3043077,5.0,-4.0,-12.0,-9.0,-4.0,1.0,0.0,-2.0
1701873729.3247426,2.0,2.0,9.0,16.0,6.0,5.0,10.0,2.0
1701873729.3247426,-7.0,-7.0,-8.0,-15.0,-5.0,-9.0,-18.0,-12.0
1701873729.3247426,-8.0,6.0,21.0,13.0,5.0,6.0,13.0,10.0
1701873729.3247426,-1.0,-1.0,-15.0,-9.0,-8.0,-1.0,-11.0,-22.0
1701873729.3346982,8.0,5.0,12.0,6.0,-1.0,-10.0,-12.0,-3.0
1701873729.3346982,-5.0,-6.0,-19.0,-6.0,1.0,2.0,2.0,3.0
1701873729.3543057,2.0,0.0,9.0,6.0,1.0,1.0,0.0,-3.0
1701873729.3543057,3.0,2.0,6.0,5.0,6.0,5.0,13.0,10.0
1701873729.3543057,-2.0,-10.0,-21.0,-14.0,-5.0,-3.0,-3.0,2.0
1701873729.3543057,-5.0,-7.0,-13.0,-4.0,-9.0,-10.0,-10.0,-12.0
1701873729.3643115,5.0,1.0,0.0,-3.0,-6.0,-12.0,-12.0,-1.0
1701873729.3643115,-13.0,-5.0,-2.0,-3.0,-3.0,8.0,15.0,-12.0
1701873729.3843136,16.0,5.0,-4.0,-3.0,-3.0,-6.0,-10.0,2.0
1701873729.3843136,-1.0,1.0,0.0,4.0,5.0,8.0,20.0,5.0
1701873729.3843136,-9.0,-8.0,-6.0,-4.0,0.0,8.0,2.0,0.0
1701873729.3843136,9.0,3.0,10.0,6.0,0.0,-11.0,-13.0,-9.0
1701873729.4143064,8.0,8.0,3.0,4.0,-1.0,0.0,10.0,17.0
1701873729.4143064,-1.0,5.0,0.0,0.0,-4.0,-9.0,-17.0,-17.0
1701873729.4143064,-2.0,-5.0,-2.0,-7.0,-8.0,-5.0,-3.0,-3.0
1701873729.4143064,-3.0,3.0,6.0,6.0,6.0,3.0,-2.0,6.0
1701873729.4143064,0.0,-10.0,-13.0,-23.0,-1.0,7.0,5.0,-7.0
1701873729.4143064,5.0,4.0,9.0,8.0,2.0,1.0,6.0,19.0
1701873729.4243124,1.0,1.0,-5.0,-6.0,-5.0,-1.0,-5.0,-15.0
1701873729.4243124,-12.0,-27.0,-8.0,-5.0,-5.0,-3.0,-3.0,-1.0
1701873729.4443111,8.0,2.0,5.0,3.0,-4.0,-2.0,11.0,19.0
1701873729.4443111,-2.0,-1.0,1.0,-5.0,4.0,1.0,-17.0,-22.0
1701873729.4443111,-8.0,-5.0,-7.0,-2.0,-4.0,-1.0,7.0,-7.0
1701873729.4443111,7.0,-3.0,-7.0,-7.0,-3.0,-4.0,1.0,20.0
1701873729.4643874,-2.0,-2.0,8.0,6.0,-4.0,-9.0,-22.0,-24.0
1701873729.4643874,0.0,5.0,4.0,12.0,5.0,10.0,15.0,12.0
1701873729.4643874,5.0,1.0,-10.0,-8.0,1.0,-3.0,-6.0,3.0
1701873729.4643874,-10.0,1.0,-7.0,-14.0,-5.0,-3.0,-5.0,-19.0
1701873729.4746249,1.0,1.0,5.0,6.0,1.0,0.0,4.0,10.0
1701873729.4746249,-3.0,7.0,7.0,4.0,-1.0,-3.0,0.0,8.0
1701873729.4844146,11.0,-3.0,6.0,10.0,5.0,2.0,-1.0,0.0
1701873729.4844146,-4.0,23.0,-3.0,1.0,2.0,1.0,2.0,-1.0
1701873729.5045223,5.0,-4.0,-4.0,-5.0,-7.0,-4.0,-12.0,-2.0
1701873729.5045223,19.0,2.0,2.0,-1.0,1.0,3.0,9.0,11.0
1701873729.5045223,-5.0,5.0,1.0,3.0,2.0,2.0,-2.0,-12.0
1701873729.5045223,-12.0,-36.0,0.0,-2.0,-6.0,-9.0,-1.0,15.0
1701873729.5343695,-39.0,-22.0,-16.0,-8.0,-2.0,-1.0,-18.0,-33.0
1701873729.5343695,2.0,11.0,-1.0,-6.0,-2.0,9.0,12.0,6.0
1701873729.5343695,13.0,0.0,3.0,1.0,-1.0,1.0,5.0,12.0
1701873729.5343695,18.0,18.0,12.0,9.0,4.0,5.0,4.0,8.0
1701873729.5343695,-3.0,-11.0,-7.0,-3.0,-5.0,-8.0,-4.0,1.0
1701873729.5343695,-4.0,-9.0,1.0,0.0,-4.0,-6.0,-6.0,5.0
1701873729.544415,-8.0,4.0,0.0,-3.0,1.0,1.0,7.0,1.0
1701873729.544415,-5.0,-5.0,-12.0,2.0,7.0,0.0,-13.0,-18.0
1701873729.5647988,4.0,0.0,13.0,2.0,1.0,3.0,8.0,18.0
1701873729.5647988,-10.0,-6.0,-10.0,0.0,2.0,0.0,-2.0,-5.0
1701873729.5647988,-12.0,-15.0,0.0,-5.0,-1.0,-1.0,3.0,-2.0
1701873729.5647988,8.0,13.0,19.0,3.0,-4.0,-6.0,0.0,4.0
1701873729.584828,3.0,-2.0,-11.0,2.0,4.0,2.0,6.0,6.0
1701873729.584828,-4.0,-4.0,2.0,-2.0,-5.0,-3.0,6.0,7.0
1701873729.584828,6.0,-6.0,-11.0,-1.0,-4.0,-4.0,-8.0,-1.0
1701873729.584828,-12.0,-7.0,-7.0,-5.0,-3.0,2.0,-7.0,-19.0
1701873729.5950265,4.0,9.0,0.0,-3.0,1.0,5.0,7.0,5.0
1701873729.5950265,0.0,-1.0,9.0,7.0,1.0,-2.0,-3.0,-3.0
1701873729.6048498,1.0,0.0,-3.0,1.0,-3.0,-5.0,-2.0,5.0
1701873729.6048498,1.0,5.0,2.0,-11.0,-1.0,0.0,-2.0,-7.0
1701873729.6248477,3.0,2.0,-12.0,4.0,-1.0,-3.0,-1.0,1.0
1701873729.6248477,-16.0,-13.0,-5.0,-2.0,-2.0,-3.0,-6.0,-10.0
1701873729.6248477,-6.0,2.0,1.0,-3.0,-1.0,-2.0,-6.0,-10.0
1701873729.6248477,14.0,8.0,-2.0,3.0,-1.0,-1.0,3.0,6.0
1701873729.644842,-9.0,0.0,6.0,-1.0,-4.0,-4.0,-2.0,-3.0
1701873729.644842,7.0,18.0,9.0,1.0,1.0,1.0,4.0,3.0
1701873729.644842,-8.0,-16.0,-35.0,-14.0,-6.0,-2.0,-12.0,-7.0
1701873729.644842,-9.0,-4.0,5.0,-3.0,-5.0,-2.0,13.0,1.0
1701873729.6548426,7.0,4.0,7.0,2.0,0.0,-5.0,-7.0,4.0
1701873729.6548426,5.0,-2.0,-5.0,-6.0,0.0,5.0,-6.0,-11.0
1701873729.66514,-15.0,0.0,12.0,8.0,3.0,0.0,-2.0,-8.0
1701873729.66514,1.0,-17.0,-12.0,-4.0,-3.0,-6.0,-15.0,-13.0
1701873729.6848707,6.0,4.0,17.0,11.0,2.0,-1.0,3.0,-2.0
1701873729.6848707,-5.0,-16.0,-45.0,-24.0,-6.0,-8.0,-4.0,-1.0
1701873729.6848707,0.0,8.0,21.0,4.0,2.0,6.0,4.0,6.0
1701873729.6848707,9.0,-3.0,-16.0,-2.0,1.0,1.0,-10.0,-14.0
1701873729.7048957,3.0,15.0,10.0,0.0,-2.0,1.0,9.0,7.0
1701873729.7048957,-6.0,-3.0,6.0,4.0,-1.0,-2.0,-3.0,0.0
1701873729.7048957,11.0,7.0,0.0,-2.0,-6.0,-5.0,1.0,5.0
1701873729.7048957,4.0,10.0,15.0,8.0,3.0,2.0,20.0,33.0
1701873729.7151754,-10.0,-12.0,-12.0,-6.0,0.0,8.0,-13.0,-31.0
1701873729.7151754,3.0,1.0,1.0,0.0,3.0,-1.0,-8.0,-8.0
1701873729.7255273,-1.0,0.0,-6.0,-7.0,-2.0,-1.0,4.0,-1.0
1701873729.7255273,-1.0,8.0,12.0,8.0,-4.0,-1.0,3.0,2.0
1701873729.7451863,3.0,-3.0,-5.0,-6.0,0.0,7.0,12.0,12.0
1701873729.7451863,-1.0,4.0,9.0,5.0,-2.0,-1.0,-1.0,1.0
1701873729.7451863,-7.0,-8.0,2.0,6.0,8.0,1.0,1.0,2.0
1701873729.7451863,-3.0,6.0,-1.0,0.0,-2.0,-8.0,-12.0,1.0
1701873729.7655966,-7.0,-16.0,-22.0,-16.0,-6.0,-7.0,-12.0,-18.0
1701873729.7655966,11.0,6.0,17.0,3.0,0.0,-2.0,4.0,7.0
1701873729.7655966,-11.0,-17.0,-20.0,-5.0,-5.0,-2.0,-5.0,-12.0
1701873729.7655966,2.0,24.0,18.0,6.0,5.0,6.0,8.0,12.0
1701873729.7828658,-3.0,5.0,7.0,5.0,4.0,1.0,-3.0,0.0
1701873729.7828658,3.0,-10.0,-7.0,0.0,-3.0,-4.0,-3.0,-1.0
1701873729.794865,-5.0,19.0,8.0,-2.0,-1.0,-5.0,-1.0,-6.0
1701873729.794865,8.0,-3.0,-3.0,1.0,6.0,12.0,6.0,7.0
1701873729.805265,-9.0,2.0,11.0,7.0,-3.0,-8.0,-7.0,-12.0
1701873729.8062873,-7.0,-7.0,-29.0,-14.0,0.0,7.0,-6.0,-20.0
1701873729.807067,4.0,-1.0,23.0,2.0,-2.0,-13.0,0.0,10.0
1701873729.807067,0.0,5.0,-17.0,-7.0,4.0,23.0,18.0,24.0
1701873729.8273306,-3.0,12.0,19.0,13.0,3.0,11.0,21.0,-3.0
1701873729.8273306,0.0,-10.0,-13.0,-4.0,-7.0,-9.0,-11.0,-1.0
1701873729.8273306,-4.0,-7.0,-4.0,-6.0,-6.0,-7.0,-12.0,-8.0
1701873729.8273306,-9.0,-8.0,5.0,4.0,2.0,-4.0,-4.0,-6.0
1701873729.8570673,-2.0,-6.0,-13.0,-3.0,2.0,-4.0,1.0,12.0
1701873729.8570673,-2.0,1.0,13.0,4.0,-1.0,-3.0,-2.0,-4.0
1701873729.8570673,5.0,0.0,-3.0,3.0,-2.0,-3.0,0.0,2.0
1701873729.8570673,1.0,-9.0,-28.0,-18.0,-8.0,3.0,8.0,9.0
1701873729.8570673,-16.0,6.0,23.0,5.0,3.0,-3.0,-1.0,-4.0
1701873729.8570673,10.0,-19.0,-6.0,3.0,4.0,-1.0,-2.0,6.0
1701873729.8570673,-1.0,29.0,15.0,5.0,4.0,10.0,16.0,13.0
1701873729.8570673,2.0,-1.0,-1.0,-5.0,-9.0,-15.0,-26.0,-36.0
1701873729.8874671,-1.0,-2.0,-26.0,-18.0,-6.0,-1.0,-13.0,-17.0
1701873729.8874671,-1.0,18.0,34.0,14.0,0.0,-1.0,15.0,30.0
1701873729.8874671,1.0,-17.0,-10.0,-4.0,-1.0,-1.0,1.0,6.0
1701873729.8874671,-4.0,-16.0,-7.0,-3.0,0.0,0.0,1.0,-9.0
1701873729.907065,0.0,11.0,3.0,-1.0,-3.0,-4.0,-3.0,-13.0
1701873729.907065,15.0,8.0,-8.0,-2.0,-2.0,-3.0,-1.0,7.0
1701873729.907065,-5.0,-1.0,7.0,12.0,2.0,1.0,-4.0,-7.0
1701873729.907065,-2.0,8.0,4.0,-3.0,-2.0,3.0,11.0,11.0
1701873729.9172876,17.0,44.0,16.0,4.0,1.0,-6.0,-18.0,-6.0
1701873729.9172876,-24.0,-28.0,-17.0,-3.0,4.0,7.0,2.0,-15.0
1701873729.9270706,20.0,-12.0,-24.0,-15.0,-5.0,-2.0,-6.0,-6.0
1701873729.9270706,-14.0,9.0,19.0,5.0,-6.0,-17.0,-23.0,-15.0
1701873729.9470646,-1.0,13.0,10.0,5.0,3.0,9.0,12.0,7.0
1701873729.9470646,20.0,15.0,3.0,1.0,0.0,-2.0,1.0,11.0
1701873729.9470646,6.0,5.0,-15.0,-7.0,-6.0,-10.0,-19.0,-17.0
1701873729.9470646,-9.0,-38.0,-19.0,-8.0,-2.0,8.0,8.0,-2.0
1701873729.9570644,0.0,-4.0,4.0,-2.0,-1.0,-4.0,-5.0,15.0
1701873729.9570644,4.0,1.0,-13.0,-9.0,-8.0,-1.0,5.0,-14.0
1701873729.9672806,4.0,-3.0,12.0,7.0,3.0,-3.0,-9.0,3.0
1701873729.9672806,14.0,20.0,-10.0,-2.0,1.0,-1.0,1.0,2.0
1701873729.9773657,-11.0,-33.0,-19.0,-5.0,-6.0,-4.0,3.0,-2.0
1701873729.9773657,-12.0,-29.0,-8.0,-11.0,-8.0,-9.0,-12.0,-8.0
1701873729.987069,-8.0,7.0,6.0,4.0,2.0,7.0,14.0,3.0
1701873729.987069,0.0,1.0,12.0,1.0,0.0,-7.0,-18.0,2.0
1701873730.0073764,4.0,2.0,-15.0,3.0,6.0,2.0,-2.0,-10.0
1701873730.0073764,-10.0,3.0,23.0,15.0,0.0,-5.0,-4.0,-1.0
1701873730.0073764,-33.0,-53.0,-33.0,-23.0,-8.0,-4.0,-2.0,-14.0
1701873730.0073764,-4.0,-5.0,-2.0,-2.0,-5.0,-5.0,-1.0,-3.0
1701873730.027069,1.0,-14.0,-3.0,-9.0,-5.0,-3.0,1.0,5.0
1701873730.027069,2.0,20.0,22.0,7.0,2.0,3.0,5.0,5.0
1701873730.047065,2.0,5.0,-18.0,-5.0,0.0,6.0,3.0,6.0
1701873730.047065,-5.0,-9.0,13.0,13.0,2.0,-5.0,-8.0,-13.0
1701873730.047065,-6.0,-14.0,-4.0,-4.0,-4.0,-5.0,-5.0,4.0
1701873730.047065,2.0,65.0,19.0,5.0,3.0,7.0,9.0,9.0
1701873730.047065,3.0,-17.0,-12.0,-10.0,-3.0,-3.0,10.0,15.0
1701873730.047065,-9.0,1.0,1.0,-5.0,0.0,0.0,-7.0,-25.0
1701873730.0670667,2.0,-28.0,-16.0,0.0,0.0,4.0,9.0,16.0
1701873730.0670667,5.0,5.0,4.0,0.0,-1.0,-3.0,-17.0,-16.0
1701873730.0670667,-1.0,12.0,20.0,7.0,2.0,4.0,4.0,4.0
1701873730.0670667,-12.0,1.0,-5.0,-3.0,-2.0,-4.0,0.0,-2.0
1701873730.0770974,-5.0,-35.0,-3.0,3.0,-1.0,-5.0,-7.0,-4.0
1701873730.0770974,-4.0,-13.0,-21.0,-15.0,-5.0,-1.0,4.0,1.0
1701873730.0874548,15.0,3.0,6.0,3.0,2.0,-1.0,-16.0,-1.0
1701873730.0874548,-5.0,8.0,4.0,5.0,4.0,2.0,3.0,-10.0
1701873730.0970654,6.0,15.0,13.0,6.0,2.0,4.0,8.0,8.0
1701873730.0970654,-21.0,-25.0,-2.0,-4.0,-2.0,1.0,4.0,13.0
1701873730.0970654,-5.0,6.0,12.0,7.0,6.0,6.0,-5.0,-26.0
1701873730.0970654,24.0,14.0,-11.0,-2.0,-7.0,-10.0,-5.0,11.0
1701873730.1270664,1.0,18.0,-9.0,-5.0,-2.0,3.0,2.0,-1.0
1701873730.1270664,-4.0,8.0,24.0,13.0,-1.0,-5.0,3.0,1.0
1701873730.1270664,-14.0,-7.0,-2.0,-8.0,-1.0,3.0,5.0,6.0
1701873730.1270664,19.0,-2.0,3.0,-5.0,1.0,-4.0,-9.0,0.0
1701873730.137099,-3.0,-11.0,-3.0,2.0,0.0,2.0,2.0,1.0
1701873730.137099,-5.0,-15.0,14.0,14.0,1.0,-3.0,-4.0,-3.0
1701873730.1473513,-10.0,0.0,-24.0,-3.0,-2.0,-5.0,-7.0,-15.0
1701873730.1473513,13.0,8.0,-8.0,-14.0,-3.0,10.0,13.0,1.0
1701873730.1570702,-11.0,-45.0,-12.0,-7.0,-3.0,-4.0,-2.0,8.0
1701873730.1570702,-4.0,-17.0,-15.0,-11.0,-3.0,-6.0,-15.0,-12.0
1701873730.1670704,-4.0,11.0,17.0,9.0,4.0,3.0,1.0,2.0
1701873730.1670704,-4.0,39.0,17.0,11.0,0.0,-3.0,7.0,8.0
1701873730.2070692,19.0,6.0,-18.0,-17.0,-10.0,-10.0,-8.0,12.0
1701873730.2070692,2.0,3.0,-21.0,-13.0,-6.0,1.0,-1.0,-20.0
1701873730.2070692,-2.0,-2.0,4.0,1.0,0.0,5.0,9.0,4.0
1701873730.2070692,-5.0,-26.0,-7.0,0.0,0.0,-2.0,-2.0,7.0
1701873730.2070692,-8.0,2.0,6.0,9.0,6.0,5.0,-1.0,-5.0
1701873730.2070692,-4.0,13.0,6.0,-2.0,-1.0,-10.0,-7.0,3.0
1701873730.2070692,-12.0,-26.0,-13.0,-7.0,-5.0,-2.0,-1.0,0.0
1701873730.2070692,-9.0,-12.0,11.0,5.0,0.0,2.0,5.0,2.0
1701873730.217098,0.0,20.0,6.0,0.0,-2.0,-3.0,-5.0,-5.0
1701873730.217098,1.0,-4.0,-11.0,-4.0,2.0,-2.0,-3.0,5.0
1701873730.217098,3.0,5.0,-10.0,-4.0,-4.0,-2.0,0.0,-14.0
1701873730.217098,-2.0,-14.0,3.0,1.0,-1.0,-6.0,-11.0,3.0
1701873730.2473145,6.0,-23.0,-12.0,-1.0,1.0,21.0,31.0,31.0
1701873730.2473145,-9.0,1.0,3.0,3.0,1.0,-7.0,-18.0,-38.0
1701873730.2473145,1.0,12.0,5.0,1.0,-5.0,-2.0,0.0,15.0
1701873730.2473145,-9.0,-12.0,-11.0,-3.0,-3.0,-9.0,-5.0,-7.0
1701873730.2573495,6.0,15.0,7.0,-3.0,1.0,11.0,16.0,7.0
1701873730.2573495,4.0,37.0,7.0,0.0,2.0,-7.0,-12.0,-1.0
1701873730.2673278,-27.0,-6.0,4.0,1.0,2.0,2.0,3.0,-8.0
1701873730.2673278,-8.0,-38.0,-13.0,-2.0,-6.0,-7.0,1.0,9.0
1701873730.2770689,-16.0,-16.0,-7.0,-18.0,-13.0,-26.0,-29.0,-33.0
1701873730.2770689,15.0,-7.0,-11.0,-3.0,2.0,20.0,31.0,21.0
1701873730.2870688,15.0,18.0,6.0,2.0,-2.0,-26.0,-46.0,-16.0
1701873730.2870688,-8.0,11.0,6.0,2.0,-2.0,10.0,17.0,-1.0
1701873730.3104622,13.0,18.0,12.0,8.0,5.0,10.0,17.0,7.0
1701873730.3104622,14.0,-19.0,-7.0,-1.0,0.0,-7.0,-10.0,8.0
1701873730.3104622,-3.0,-17.0,-3.0,1.0,2.0,-3.0,-9.0,-7.0
1701873730.3104622,4.0,-14.0,-21.0,-13.0,-6.0,-6.0,-6.0,3.0
1701873730.3214066,-26.0,14.0,21.0,10.0,-2.0,-13.0,-20.0,-22.0
1701873730.3214066,6.0,23.0,16.0,1.0,0.0,11.0,16.0,9.0
1701873730.3297827,11.0,10.0,12.0,2.0,3.0,7.0,8.0,7.0
1701873730.3297827,-18.0,-8.0,-6.0,4.0,3.0,6.0,-1.0,1.0
1701873730.3401043,-25.0,-22.0,-3.0,6.0,-4.0,-6.0,-4.0,-14.0
1701873730.3401043,-3.0,21.0,28.0,-3.0,-3.0,-2.0,1.0,-4.0
1701873730.3401043,10.0,2.0,7.0,2.0,-3.0,5.0,11.0,11.0
1701873730.3401043,1.0,2.0,-13.0,-4.0,-3.0,-8.0,-9.0,-12.0
1701873730.3701067,24.0,79.0,39.0,2.0,-2.0,-4.0,0.0,11.0
1701873730.3701067,10.0,8.0,-13.0,6.0,6.0,5.0,0.0,2.0
1701873730.3701067,-20.0,-44.0,4.0,-1.0,0.0,-2.0,6.0,5.0
1701873730.3701067,10.0,-9.0,-15.0,-12.0,-4.0,1.0,-6.0,-5.0
1701873730.3801098,-3.0,-17.0,-14.0,1.0,0.0,-1.0,-3.0,5.0
1701873730.3801098,-10.0,-6.0,5.0,4.0,-7.0,-8.0,-11.0,-29.0
1701873730.3901098,4.0,17.0,-9.0,-12.0,-7.0,-3.0,-1.0,-4.0
1701873730.3901098,-5.0,1.0,6.0,7.0,6.0,6.0,2.0,-6.0
1701873730.4004004,5.0,7.0,-2.0,-4.0,-5.0,-12.0,-16.0,-2.0
1701873730.4004004,0.0,-38.0,-23.0,-6.0,-5.0,-14.0,-9.0,19.0
1701873730.4004004,-5.0,4.0,-3.0,-2.0,0.0,14.0,24.0,-9.0
1701873730.4004004,-4.0,36.0,11.0,2.0,7.0,23.0,10.0,6.0
1701873730.430107,14.0,12.0,-1.0,-5.0,-2.0,-3.0,-11.0,-13.0
1701873730.430107,-2.0,-27.0,-11.0,0.0,5.0,7.0,13.0,-2.0
1701873730.430107,-21.0,-5.0,5.0,1.0,-1.0,-7.0,-18.0,3.0
1701873730.430107,4.0,19.0,0.0,-4.0,-2.0,-4.0,4.0,9.0
1701873730.450109,-11.0,-48.0,-14.0,2.0,1.0,-7.0,-10.0,-19.0
1701873730.450109,-21.0,-24.0,-26.0,-17.0,-11.0,-9.0,-13.0,-21.0
1701873730.450109,15.0,5.0,-6.0,-3.0,-3.0,0.0,5.0,7.0
1701873730.450109,2.0,9.0,1.0,-5.0,-2.0,-5.0,0.0,1.0
1701873730.4701042,8.0,19.0,19.0,10.0,6.0,7.0,4.0,11.0
1701873730.4701042,9.0,9.0,-7.0,-7.0,1.0,0.0,3.0,6.0
1701873730.4701042,-10.0,-39.0,-7.0,1.0,-5.0,-7.0,-3.0,-8.0
1701873730.4701042,-6.0,-1.0,3.0,-6.0,-8.0,-6.0,0.0,3.0
1701873730.4802122,4.0,3.0,3.0,13.0,1.0,0.0,-1.0,-5.0
1701873730.4802122,-14.0,-11.0,-2.0,-23.0,-1.0,3.0,5.0,-2.0
1701873730.4901097,18.0,41.0,6.0,6.0,2.0,3.0,8.0,18.0
1701873730.4901097,-37.0,-89.0,-20.0,-12.0,-7.0,-11.0,-11.0,-23.0
1701873730.5101748,-3.0,-8.0,9.0,9.0,2.0,1.0,7.0,12.0
1701873730.5101748,-1.0,10.0,2.0,5.0,3.0,7.0,10.0,13.0
1701873730.5101748,14.0,-10.0,-11.0,-7.0,-6.0,-8.0,-10.0,3.0
1701873730.5101748,-6.0,30.0,20.0,9.0,2.0,1.0,-13.0,-30.0
1701873730.520106,1.0,-11.0,-26.0,-11.0,-4.0,0.0,5.0,13.0
1701873730.520106,2.0,22.0,1.0,5.0,1.0,2.0,6.0,13.0
1701873730.520106,-13.0,-56.0,-3.0,1.0,3.0,1.0,2.0,-5.0
1701873730.520106,20.0,31.0,7.0,3.0,-6.0,-6.0,2.0,13.0
1701873730.5405266,-24.0,21.0,-2.0,-7.0,3.0,9.0,5.0,0.0
1701873730.5405266,21.0,26.0,9.0,4.0,3.0,15.0,14.0,-17.0
1701873730.5405266,9.0,20.0,-9.0,1.0,1.0,-15.0,-19.0,5.0
1701873730.5405266,4.0,4.0,-8.0,-5.0,-2.0,7.0,11.0,-8.0
1701873730.5701535,-13.0,3.0,2.0,-3.0,-4.0,-4.0,-10.0,-2.0
1701873730.5701535,-10.0,-15.0,1.0,9.0,1.0,-2.0,2.0,11.0
1701873730.5701535,16.0,27.0,-16.0,-10.0,-4.0,-5.0,-5.0,-1.0
1701873730.5701535,-1.0,-11.0,-14.0,1.0,-2.0,-10.0,-6.0,-3.0
1701873730.580105,13.0,-1.0,-12.0,-16.0,-4.0,13.0,16.0,-1.0
1701873730.580105,1.0,2.0,9.0,4.0,-4.0,-6.0,-6.0,4.0
1701873730.580105,-7.0,1.0,4.0,3.0,3.0,5.0,-1.0,-18.0
1701873730.580105,9.0,22.0,23.0,18.0,3.0,-7.0,-8.0,17.0
1701873730.6005216,-8.0,-39.0,-27.0,-17.0,-8.0,-11.0,-7.0,-9.0
1701873730.6005216,-9.0,-19.0,-10.0,-10.0,-8.0,-7.0,-10.0,-5.0
1701873730.6005216,4.0,8.0,15.0,3.0,0.0,0.0,4.0,-1.0
1701873730.6005216,-16.0,-17.0,-5.0,19.0,9.0,11.0,6.0,1.0
1701873730.630106,8.0,-2.0,0.0,-7.0,5.0,1.0,-2.0,-2.0
1701873730.630106,-3.0,-4.0,0.0,5.0,-1.0,-6.0,-2.0,4.0
1701873730.630106,-15.0,-21.0,-5.0,-10.0,-7.0,-2.0,-1.0,-11.0
1701873730.630106,6.0,9.0,4.0,-7.0,-5.0,-3.0,-12.0,13.0
1701873730.6401043,-5.0,24.0,25.0,13.0,-1.0,-4.0,-2.0,-30.0
1701873730.6401043,-19.0,-15.0,1.0,-4.0,0.0,-1.0,-8.0,-5.0
1701873730.650395,7.0,25.0,27.0,16.0,5.0,3.0,3.0,-3.0
1701873730.650395,-9.0,-23.0,-14.0,8.0,5.0,12.0,17.0,16.0
1701873730.6603627,-21.0,-35.0,-57.0,-44.0,-13.0,-10.0,-24.0,-33.0
1701873730.6603627,22.0,20.0,18.0,8.0,0.0,-1.0,-1.0,9.0
1701873730.6603627,-13.0,-11.0,-13.0,-9.0,-7.0,1.0,5.0,2.0
