1701711342.997751,-3.0,-1.0,22.0,3.0,-2.0,2.0,-3.0,-11.0
1701711342.997751,2.0,1.0,-10.0,-4.0,2.0,1.0,8.0,10.0
1701711342.997751,0.0,-1.0,5.0,9.0,1.0,-10.0,-7.0,-3.0
1701711342.997751,1.0,0.0,6.0,3.0,0.0,-1.0,0.0,19.0
1701711343.0077922,3.0,2.0,7.0,-3.0,0.0,1.0,-4.0,-16.0
1701711343.0077922,-3.0,-3.0,0.0,10.0,-3.0,-4.0,-2.0,-14.0
1701711343.0177536,-1.0,-2.0,-9.0,-7.0,-2.0,-1.0,-1.0,27.0
1701711343.0177536,-5.0,-6.0,-1.0,5.0,-2.0,-4.0,-3.0,4.0
1701711343.0377889,1.0,-2.0,4.0,-12.0,-1.0,-1.0,1.0,1.0
1701711343.0377889,2.0,-2.0,4.0,10.0,-2.0,0.0,0.0,1.0
1701711343.067751,0.0,0.0,-8.0,-9.0,0.0,2.0,-1.0,-10.0
1701711343.067751,-2.0,0.0,1.0,-6.0,-1.0,1.0,-2.0,-11.0
1701711343.067751,2.0,0.0,3.0,4.0,-4.0,-1.0,1.0,4.0
1701711343.067751,0.0,-2.0,-2.0,2.0,1.0,1.0,0.0,-1.0
1701711343.067751,1.0,0.0,-4.0,-7.0,-2.0,-2.0,-1.0,-6.0
1701711343.067751,0.0,-2.0,-5.0,2.0,-1.0,4.0,1.0,-4.0
1701711343.067751,-1.0,2.0,7.0,1.0,1.0,1.0,2.0,-3.0
1701711343.067751,-1.0,1.0,-6.0,-7.0,-2.0,-5.0,-4.0,6.0
1701711343.077751,-2.0,-1.0,-4.0,-8.0,-1.0,0.0,1.0,0.0
1701711343.077751,-2.0,-8.0,-3.0,2.0,-2.0,-1.0,-1.0,-4.0
1701711343.0978959,1.0,10.0,13.0,3.0,2.0,-3.0,0.0,1.0
1701711343.0978959,-2.0,-6.0,-14.0,-16.0,-5.0,2.0,-1.0,-1.0
1701711343.0978959,1.0,-1.0,-3.0,0.0,-4.0,-3.0,-1.0,0.0
1701711343.0978959,3.0,4.0,6.0,6.0,0.0,-2.0,-4.0,-5.0
1701711343.1177511,-3.0,-1.0,-4.0,-3.0,-1.0,1.0,2.0,-2.0
1701711343.1177511,4.0,10.0,17.0,11.0,5.0,-1.0,-2.0,1.0
1701711343.1177511,0.0,-1.0,-7.0,-1.0,-1.0,3.0,2.0,-4.0
1701711343.1177511,-3.0,-6.0,-15.0,-10.0,-4.0,-5.0,0.0,-5.0
1701711343.1279795,-1.0,0.0,7.0,-1.0,3.0,1.0,-1.0,5.0
1701711343.1279795,3.0,3.0,-3.0,0.0,0.0,1.0,-3.0,-2.0
1701711343.1377532,-2.0,-3.0,4.0,1.0,0.0,-1.0,-3.0,-3.0
1701711343.1377532,-7.0,-13.0,-7.0,-9.0,-5.0,-1.0,-3.0,-5.0
1701711343.1580148,-2.0,-1.0,38.0,-1.0,-3.0,-1.0,-2.0,2.0
1701711343.1580148,-3.0,-3.0,14.0,2.0,2.0,-2.0,0.0,-1.0
1701711343.1580148,2.0,-3.0,-4.0,0.0,-1.0,-4.0,-4.0,-3.0
1701711343.1580148,2.0,7.0,-10.0,6.0,2.0,1.0,2.0,-1.0
1701711343.1781156,-3.0,-4.0,-30.0,-5.0,-4.0,-1.0,-1.0,-5.0
1701711343.1781156,-4.0,-7.0,-13.0,-5.0,-5.0,-2.0,-3.0,0.0
1701711343.1781156,2.0,2.0,-11.0,-1.0,1.0,3.0,-1.0,1.0
1701711343.1781156,2.0,5.0,0.0,6.0,1.0,-2.0,0.0,0.0
1701711343.1881316,-4.0,-10.0,-15.0,-5.0,-3.0,-1.0,-1.0,-3.0
1701711343.1881316,-3.0,-1.0,-6.0,-3.0,1.0,-2.0,-2.0,-5.0
1701711343.1977525,-7.0,-3.0,-2.0,-3.0,1.0,2.0,3.0,10.0
1701711343.1977525,10.0,3.0,3.0,3.0,-1.0,-11.0,-8.0,0.0
1701711343.2177513,-2.0,-2.0,-2.0,-2.0,-3.0,-1.0,1.0,3.0
1701711343.2177513,4.0,-1.0,-1.0,4.0,2.0,-1.0,-3.0,4.0
1701711343.2177513,0.0,-2.0,-9.0,-3.0,-3.0,5.0,2.0,-2.0
1701711343.2177513,-5.0,0.0,16.0,-6.0,-2.0,-4.0,-3.0,-4.0
1701711343.2382078,0.0,-2.0,-2.0,2.0,2.0,3.0,0.0,0.0
1701711343.2382078,-3.0,-6.0,-1.0,-6.0,-5.0,-3.0,1.0,6.0
1701711343.2382078,-4.0,1.0,7.0,8.0,0.0,1.0,-1.0,-35.0
1701711343.2382078,-1.0,-1.0,-1.0,8.0,4.0,8.0,-7.0,-1.0
1701711343.24813,-12.0,-7.0,-16.0,-13.0,-9.0,-29.0,-14.0,-29.0
1701711343.24813,-2.0,2.0,-1.0,5.0,0.0,9.0,11.0,31.0
1701711343.2577536,-5.0,-9.0,-5.0,-8.0,-10.0,-18.0,-16.0,-4.0
1701711343.2577536,1.0,-2.0,-13.0,-16.0,3.0,16.0,10.0,-3.0
1701711343.2777505,-15.0,-2.0,-13.0,-9.0,-6.0,-1.0,-1.0,-20.0
1701711343.2777505,-20.0,-6.0,11.0,3.0,3.0,14.0,5.0,7.0
1701711343.2777505,14.0,7.0,20.0,15.0,5.0,-9.0,0.0,10.0
1701711343.2777505,-12.0,-2.0,-10.0,1.0,-8.0,-8.0,2.0,-39.0
1701711343.2980964,9.0,-1.0,22.0,16.0,13.0,26.0,19.0,49.0
1701711343.2980964,-7.0,-12.0,4.0,-15.0,-16.0,-16.0,-5.0,-21.0
1701711343.2980964,20.0,18.0,-37.0,8.0,6.0,21.0,-5.0,26.0
1701711343.2980964,-2.0,3.0,27.0,-18.0,2.0,-4.0,7.0,-5.0
1701711343.3080602,-3.0,4.0,-34.0,-10.0,-8.0,0.0,0.0,-1.0
1701711343.3080602,0.0,6.0,19.0,20.0,5.0,-5.0,-1.0,-18.0
1701711343.3177526,-4.0,-11.0,-1.0,5.0,4.0,1.0,6.0,-5.0
1701711343.3177526,-1.0,-6.0,-38.0,8.0,-7.0,-2.0,-2.0,11.0
1701711343.3377507,1.0,2.0,-9.0,1.0,3.0,-10.0,-1.0,-3.0
1701711343.3377507,11.0,5.0,-35.0,-16.0,-10.0,-3.0,-10.0,1.0
1701711343.3377507,-9.0,-4.0,-7.0,-13.0,-5.0,-6.0,-3.0,-6.0
1701711343.3377507,0.0,8.0,8.0,1.0,2.0,4.0,3.0,7.0
1701711343.3581524,2.0,-1.0,14.0,1.0,-1.0,4.0,-3.0,1.0
1701711343.3581524,3.0,0.0,-4.0,2.0,0.0,-5.0,-4.0,-11.0
1701711343.3581524,-7.0,2.0,12.0,-5.0,-3.0,-2.0,2.0,-3.0
1701711343.3581524,-1.0,0.0,25.0,11.0,2.0,-3.0,-3.0,3.0
1701711343.3765185,2.0,1.0,-2.0,0.0,0.0,0.0,-3.0,-3.0
1701711343.3765185,0.0,0.0,4.0,-3.0,-1.0,-5.0,-3.0,-1.0
1701711343.3902574,-5.0,-3.0,12.0,-5.0,-2.0,-2.0,-3.0,-4.0
1701711343.3902574,2.0,-4.0,2.0,2.0,0.0,-1.0,-3.0,6.0
1701711343.400268,1.0,-1.0,0.0,-1.0,0.0,-6.0,-7.0,-4.0
1701711343.400268,-1.0,-2.0,-4.0,1.0,1.0,-1.0,1.0,-3.0
1701711343.400268,-4.0,-6.0,3.0,-5.0,1.0,9.0,4.0,2.0
1701711343.400268,-1.0,1.0,-3.0,1.0,-6.0,-7.0,-7.0,0.0
1701711343.4206681,0.0,-1.0,-2.0,-9.0,-5.0,-2.0,-1.0,-3.0
1701711343.4206681,-3.0,-2.0,-1.0,0.0,3.0,-2.0,-2.0,-3.0
1701711343.4206681,-2.0,-1.0,1.0,-3.0,-2.0,2.0,1.0,-3.0
1701711343.4206681,0.0,0.0,-2.0,-1.0,2.0,-6.0,-4.0,2.0
1701711343.4407375,2.0,-2.0,1.0,3.0,-2.0,1.0,0.0,3.0
1701711343.4407375,-1.0,-3.0,-6.0,-4.0,-1.0,-3.0,-6.0,-3.0
1701711343.450685,-6.0,-3.0,-4.0,1.0,0.0,-6.0,-4.0,-10.0
1701711343.450685,7.0,-1.0,0.0,2.0,-2.0,-3.0,-3.0,8.0
1701711343.4607882,3.0,2.0,-1.0,-3.0,-3.0,-1.0,3.0,2.0
1701711343.4607882,5.0,2.0,1.0,-4.0,2.0,3.0,2.0,3.0
1701711343.4607882,-3.0,-5.0,3.0,-2.0,-5.0,-1.0,0.0,-7.0
1701711343.4607882,-2.0,-3.0,-3.0,0.0,-2.0,-3.0,-1.0,-5.0
1701711343.4809737,-2.0,-4.0,-1.0,1.0,0.0,1.0,-5.0,-4.0
1701711343.4809737,0.0,-1.0,3.0,3.0,-1.0,0.0,2.0,-4.0
1701711343.4809737,1.0,-1.0,-2.0,-4.0,-3.0,-6.0,1.0,3.0
1701711343.4809737,-1.0,0.0,-3.0,3.0,1.0,5.0,-4.0,1.0
1701711343.5106852,0.0,-1.0,1.0,4.0,-1.0,-4.0,-3.0,-1.0
1701711343.5106852,-3.0,0.0,-2.0,-6.0,-5.0,-2.0,1.0,-1.0
1701711343.5106852,0.0,-1.0,0.0,-2.0,0.0,1.0,-3.0,1.0
1701711343.5106852,-2.0,-2.0,0.0,3.0,-1.0,0.0,1.0,1.0
1701711343.5106852,-4.0,-1.0,0.0,-2.0,0.0,0.0,-2.0,-4.0
1701711343.5106852,0.0,-3.0,-2.0,-2.0,-2.0,-5.0,-2.0,-2.0
1701711343.5206919,0.0,1.0,-2.0,-2.0,0.0,-2.0,-2.0,1.0
1701711343.5206919,-2.0,0.0,3.0,1.0,-1.0,1.0,0.0,-2.0
1701711343.5406854,0.0,0.0,-3.0,0.0,1.0,-3.0,-2.0,-2.0
1701711343.5406854,-1.0,-2.0,-5.0,-2.0,-2.0,-4.0,-4.0,-1.0
1701711343.550688,-1.0,-2.0,0.0,1.0,2.0,3.0,1.0,1.0
1701711343.550688,-2.0,-2.0,-2.0,-2.0,1.0,-1.0,1.0,-2.0
1701711343.550688,-1.0,0.0,1.0,-1.0,-2.0,1.0,-1.0,0.0
1701711343.550688,-1.0,0.0,0.0,-1.0,1.0,0.0,0.0,-1.0
1701711343.5607042,1.0,1.0,-3.0,-2.0,-2.0,-4.0,-3.0,0.0
1701711343.5607042,-1.0,0.0,-4.0,-4.0,-1.0,0.0,0.0,0.0
1701711343.570725,-2.0,-1.0,-3.0,-3.0,-3.0,-5.0,-2.0,0.0
1701711343.570725,0.0,1.0,0.0,2.0,1.0,1.0,2.0,0.0
1701711343.5806863,0.0,0.0,0.0,1.0,-4.0,-5.0,-2.0,0.0
1701711343.5806863,-2.0,0.0,0.0,-2.0,0.0,1.0,1.0,1.0
1701711343.6007361,-2.0,-2.0,-2.0,-1.0,-2.0,-1.0,-2.0,-1.0
1701711343.6007361,-2.0,-3.0,1.0,3.0,3.0,1.0,-1.0,-1.0
1701711343.6007361,-2.0,0.0,-1.0,-4.0,-3.0,0.0,1.0,0.0
1701711343.6007361,-1.0,-3.0,0.0,-1.0,-1.0,-2.0,-1.0,-1.0
1701711343.6207273,-2.0,-2.0,2.0,0.0,-2.0,0.0,0.0,-2.0
1701711343.6207273,-1.0,0.0,-4.0,-1.0,0.0,2.0,-1.0,-1.0
1701711343.6207273,-1.0,-1.0,-2.0,-1.0,-1.0,-1.0,0.0,-2.0
1701711343.6207273,0.0,-2.0,-3.0,-2.0,-4.0,-5.0,-3.0,-4.0
1701711343.6306877,0.0,-3.0,-5.0,-2.0,0.0,1.0,0.0,-2.0
1701711343.6306877,-1.0,-1.0,0.0,0.0,-2.0,-1.0,2.0,0.0
1701711343.6406896,1.0,0.0,-4.0,-1.0,-1.0,-1.0,-3.0,-1.0
1701711343.6406896,-4.0,-2.0,-2.0,0.0,0.0,-2.0,-8.0,-7.0
1701711343.6606877,2.0,1.0,0.0,0.0,1.0,-1.0,1.0,1.0
1701711343.6606877,2.0,1.0,4.0,2.0,2.0,3.0,11.0,10.0
1701711343.6606877,-2.0,-4.0,-12.0,-5.0,-3.0,-4.0,-4.0,-2.0
1701711343.6606877,-1.0,0.0,4.0,0.0,-4.0,2.0,1.0,-1.0
1701711343.6806865,2.0,3.0,-5.0,1.0,-1.0,-2.0,-4.0,-1.0
1701711343.6806865,-8.0,-10.0,-7.0,-15.0,-6.0,-3.0,-8.0,-8.0
1701711343.6806865,-1.0,1.0,7.0,2.0,1.0,1.0,-1.0,0.0
1701711343.6806865,0.0,-1.0,-2.0,-1.0,1.0,0.0,-2.0,1.0
1701711343.69079,-1.0,-1.0,-2.0,-2.0,1.0,-1.0,-2.0,-4.0
1701711343.69079,3.0,4.0,0.0,5.0,-1.0,-2.0,-1.0,-1.0
1701711343.7006931,-2.0,-2.0,-3.0,0.0,-2.0,-2.0,-1.0,-2.0
1701711343.7006931,0.0,2.0,0.0,4.0,1.0,0.0,0.0,0.0
1701711343.7306874,-2.0,-2.0,5.0,0.0,-3.0,-2.0,0.0,-1.0
1701711343.7306874,-5.0,-14.0,-22.0,-12.0,-5.0,-3.0,-4.0,-4.0
1701711343.7306874,0.0,-1.0,8.0,0.0,-1.0,0.0,0.0,-1.0
1701711343.7306874,-1.0,1.0,-6.0,-3.0,-1.0,0.0,3.0,2.0
1701711343.7306874,3.0,0.0,7.0,4.0,1.0,0.0,0.0,0.0
1701711343.7306874,-3.0,-6.0,-7.0,-2.0,-1.0,0.0,-3.0,-1.0
1701711343.7406878,0.0,1.0,8.0,3.0,-1.0,-2.0,-4.0,0.0
1701711343.7406878,3.0,2.0,-4.0,-3.0,0.0,0.0,0.0,1.0
1701711343.7507257,-4.0,-5.0,-2.0,-6.0,-3.0,-4.0,-2.0,-3.0
1701711343.7507257,4.0,3.0,1.0,5.0,1.0,-6.0,-4.0,4.0
1701711343.7606897,-3.0,2.0,5.0,3.0,2.0,6.0,7.0,-1.0
1701711343.7606897,6.0,4.0,1.0,6.0,2.0,0.0,2.0,3.0
1701711343.790689,-6.0,-8.0,-6.0,-8.0,-4.0,-1.0,-3.0,-4.0
1701711343.790689,-1.0,0.0,5.0,-3.0,-2.0,-5.0,-6.0,-4.0
1701711343.790689,1.0,6.0,1.0,0.0,0.0,-1.0,0.0,2.0
1701711343.790689,-4.0,-6.0,-8.0,-3.0,-1.0,2.0,-1.0,-4.0
1701711343.800728,1.0,4.0,4.0,-1.0,0.0,-1.0,-2.0,1.0
1701711343.800728,0.0,1.0,-2.0,-1.0,-2.0,1.0,1.0,0.0
1701711343.800728,0.0,-7.0,-9.0,-4.0,-4.0,-4.0,-4.0,-2.0
1701711343.800728,0.0,-1.0,2.0,0.0,-1.0,-1.0,0.0,-3.0
1701711343.8106883,-8.0,-4.0,-6.0,1.0,2.0,1.0,0.0,-3.0
1701711343.8106883,-3.0,-2.0,6.0,-1.0,-3.0,0.0,4.0,15.0
1701711343.8206906,2.0,2.0,0.0,3.0,1.0,0.0,-2.0,-9.0
1701711343.8206906,-5.0,-4.0,-6.0,-4.0,-3.0,-4.0,-6.0,-3.0
1701711343.8407123,-3.0,-3.0,-1.0,-3.0,0.0,3.0,2.0,-3.0
1701711343.8407123,3.0,4.0,-3.0,3.0,1.0,0.0,2.0,-2.0
1701711343.8407123,-4.0,0.0,5.0,4.0,-1.0,-7.0,0.0,11.0
1701711343.8407123,-1.0,-2.0,7.0,-5.0,0.0,13.0,5.0,-19.0
1701711343.860799,2.0,2.0,2.0,3.0,-1.0,-2.0,-4.0,10.0
1701711343.860799,0.0,0.0,-1.0,-4.0,-4.0,-8.0,-2.0,-2.0
1701711343.860799,0.0,-1.0,5.0,7.0,1.0,17.0,6.0,7.0
1701711343.860799,-20.0,-8.0,-22.0,2.0,-1.0,-36.0,-23.0,-42.0
1701711343.8707964,7.0,9.0,0.0,-20.0,0.0,11.0,14.0,21.0
1701711343.8707964,-4.0,1.0,2.0,26.0,7.0,9.0,-1.0,-3.0
1701711343.8806937,-15.0,-6.0,-21.0,-65.0,-16.0,-13.0,-1.0,-5.0
1701711343.8806937,22.0,6.0,8.0,1.0,-3.0,7.0,-5.0,-5.0
1701711343.9023855,7.0,-3.0,-6.0,11.0,-1.0,2.0,5.0,20.0
1701711343.9023855,-7.0,3.0,10.0,4.0,-9.0,-31.0,-17.0,-25.0
1701711343.9033546,-2.0,-1.0,6.0,22.0,4.0,3.0,0.0,28.0
1701711343.9033546,0.0,2.0,9.0,15.0,17.0,19.0,17.0,12.0
1701711343.9235077,-13.0,-9.0,-49.0,-22.0,-5.0,-8.0,-1.0,11.0
1701711343.9235077,4.0,-3.0,3.0,-36.0,-13.0,0.0,-9.0,-35.0
1701711343.9235077,-11.0,-9.0,7.0,14.0,6.0,1.0,-6.0,-22.0
1701711343.9235077,1.0,-3.0,-19.0,-25.0,-9.0,-1.0,7.0,12.0
1701711343.93361,8.0,8.0,0.0,14.0,3.0,-4.0,-11.0,0.0
1701711343.93361,-12.0,-2.0,15.0,20.0,7.0,2.0,4.0,1.0
1701711343.9535055,5.0,-4.0,-6.0,1.0,8.0,10.0,2.0,-5.0
1701711343.9535055,-5.0,-4.0,7.0,-14.0,-7.0,-4.0,-3.0,6.0
1701711343.9535055,7.0,7.0,4.0,-2.0,-6.0,0.0,3.0,-9.0
1701711343.9535055,1.0,5.0,-9.0,-5.0,3.0,8.0,3.0,7.0
1701711343.963504,0.0,8.0,4.0,4.0,-3.0,-8.0,-5.0,-9.0
1701711343.963504,3.0,2.0,3.0,9.0,-3.0,-1.0,2.0,18.0
1701711343.9839208,-8.0,-3.0,9.0,-2.0,-3.0,-12.0,-11.0,-22.0
1701711343.9839208,-1.0,-1.0,-8.0,0.0,3.0,4.0,0.0,8.0
1701711343.9839208,3.0,-5.0,-9.0,-7.0,-3.0,-6.0,-3.0,2.0
1701711343.9839208,-5.0,-4.0,-1.0,-1.0,-3.0,-5.0,-2.0,-1.0
1701711343.9938939,-4.0,-3.0,5.0,4.0,0.0,5.0,1.0,-9.0
1701711343.9938939,-1.0,-8.0,-4.0,2.0,4.0,-2.0,-3.0,1.0
1701711344.0035093,4.0,-2.0,-12.0,-3.0,-3.0,1.0,2.0,2.0
1701711344.0035093,-6.0,-3.0,6.0,-2.0,-7.0,-13.0,-5.0,-1.0
1701711344.013504,1.0,0.0,8.0,7.0,2.0,4.0,-1.0,-8.0
1701711344.013504,3.0,-4.0,-3.0,-5.0,3.0,9.0,5.0,9.0
1701711344.0235074,-1.0,-2.0,-12.0,-11.0,-7.0,-15.0,-8.0,-6.0
1701711344.0235074,-3.0,3.0,10.0,10.0,5.0,4.0,-2.0,2.0
1701711344.0435054,-2.0,-4.0,-2.0,-6.0,-3.0,-6.0,-2.0,-1.0
1701711344.0435054,-1.0,2.0,0.0,-4.0,-2.0,1.0,-1.0,-5.0
1701711344.0435054,-2.0,0.0,3.0,4.0,0.0,2.0,0.0,0.0
1701711344.0435054,1.0,-2.0,4.0,6.0,-1.0,1.0,3.0,26.0
1701711344.0535054,8.0,1.0,-4.0,-5.0,2.0,-1.0,-7.0,-22.0
1701711344.0535054,-3.0,1.0,3.0,-6.0,-4.0,-2.0,0.0,-7.0
1701711344.063718,0.0,0.0,1.0,1.0,0.0,-4.0,-2.0,13.0
1701711344.063718,-2.0,-2.0,-2.0,-2.0,-3.0,-5.0,-4.0,-1.0
1701711344.0835102,-1.0,-2.0,-3.0,4.0,1.0,0.0,-3.0,3.0
1701711344.0835102,2.0,0.0,-7.0,1.0,0.0,1.0,-1.0,7.0
1701711344.0835102,-1.0,-2.0,1.0,2.0,-1.0,-1.0,-2.0,-9.0
1701711344.0835102,-6.0,1.0,-4.0,-6.0,-2.0,-2.0,3.0,-7.0
1701711344.1035123,-3.0,-5.0,4.0,0.0,-2.0,-2.0,1.0,0.0
1701711344.1035123,4.0,-1.0,-1.0,0.0,3.0,-3.0,-7.0,-1.0
1701711344.1035123,3.0,1.0,0.0,-1.0,-4.0,5.0,6.0,-2.0
1701711344.1035123,-6.0,0.0,-8.0,-4.0,1.0,1.0,-4.0,-4.0
1701711344.1235092,0.0,-4.0,-11.0,2.0,-2.0,-2.0,1.0,-1.0
1701711344.1235092,-1.0,-2.0,0.0,7.0,4.0,-1.0,4.0,7.0
1701711344.1235092,-1.0,3.0,-1.0,-2.0,0.0,-3.0,-5.0,-7.0
1701711344.1235092,1.0,-2.0,-8.0,-7.0,0.0,0.0,0.0,-2.0
1701711344.1435115,-3.0,1.0,5.0,0.0,-6.0,-1.0,-1.0,1.0
1701711344.1435115,-3.0,-2.0,-2.0,8.0,-1.0,-3.0,0.0,-3.0
1701711344.1435115,0.0,-4.0,-5.0,-8.0,-1.0,-2.0,6.0,20.0
1701711344.1435115,-3.0,-3.0,-10.0,-3.0,-2.0,0.0,-18.0,-39.0
1701711344.1635125,-2.0,3.0,18.0,9.0,6.0,1.0,0.0,2.0
1701711344.1635125,1.0,1.0,0.0,-2.0,-2.0,-1.0,2.0,7.0
1701711344.1635125,1.0,-1.0,-2.0,-2.0,-3.0,-1.0,-2.0,-13.0
1701711344.1635125,0.0,-2.0,-3.0,0.0,-1.0,-1.0,5.0,10.0
1701711344.183506,-3.0,-4.0,-8.0,-2.0,-3.0,-4.0,0.0,-3.0
1701711344.183506,-1.0,4.0,7.0,5.0,-2.0,3.0,-3.0,-5.0
1701711344.183506,-7.0,-7.0,-13.0,-12.0,-5.0,-9.0,-7.0,1.0
1701711344.183506,7.0,1.0,0.0,3.0,3.0,3.0,5.0,7.0
1701711344.193552,-5.0,-3.0,10.0,18.0,3.0,2.0,-5.0,-5.0
1701711344.193552,0.0,-3.0,-17.0,-9.0,-5.0,-3.0,3.0,6.0
1701711344.2035081,-7.0,-2.0,-2.0,-13.0,-3.0,-4.0,-3.0,-12.0
1701711344.2035081,1.0,-5.0,0.0,10.0,1.0,0.0,4.0,0.0
1701711344.223508,3.0,0.0,-8.0,-17.0,-7.0,-5.0,2.0,4.0
1701711344.2335052,-1.0,-1.0,-1.0,-4.0,1.0,1.0,-5.0,-4.0
1701711344.2335052,3.0,3.0,7.0,21.0,1.0,0.0,5.0,4.0
1701711344.2335052,-4.0,-4.0,-9.0,-21.0,-2.0,-5.0,-6.0,-19.0
1701711344.2335052,-2.0,1.0,13.0,5.0,4.0,8.0,3.0,6.0
1701711344.2335052,-1.0,-7.0,-23.0,-10.0,-8.0,-11.0,-5.0,-5.0
1701711344.2438357,-1.0,3.0,-13.0,0.0,1.0,6.0,3.0,-2.0
1701711344.2438357,-4.0,-4.0,5.0,-2.0,-2.0,-2.0,3.0,5.0
1701711344.253883,15.0,5.0,-10.0,-6.0,-3.0,0.0,0.0,15.0
1701711344.253883,1.0,2.0,24.0,5.0,1.0,1.0,-2.0,-5.0
1701711344.2635083,2.0,-3.0,3.0,28.0,3.0,0.0,1.0,10.0
1701711344.2635083,-1.0,1.0,-9.0,-52.0,-9.0,-1.0,-3.0,-7.0
1701711344.2835386,-6.0,1.0,1.0,-10.0,2.0,-3.0,0.0,-8.0
1701711344.2835386,0.0,-1.0,7.0,0.0,2.0,3.0,3.0,4.0
1701711344.2835386,-3.0,4.0,-8.0,7.0,1.0,3.0,3.0,-7.0
1701711344.2835386,0.0,0.0,18.0,26.0,-2.0,-5.0,-6.0,3.0
1701711344.293739,-2.0,-5.0,-10.0,10.0,4.0,1.0,0.0,-7.0
1701711344.293739,-3.0,2.0,-3.0,-6.0,-7.0,-2.0,1.0,31.0
1701711344.3037353,3.0,1.0,14.0,-17.0,2.0,4.0,-3.0,-31.0
1701711344.3037353,3.0,-2.0,-25.0,-5.0,-3.0,-4.0,2.0,6.0
1701711344.32351,-2.0,-3.0,1.0,-7.0,-2.0,-2.0,-2.0,4.0
1701711344.32351,5.0,1.0,-7.0,9.0,3.0,9.0,0.0,-4.0
1701711344.32351,-3.0,-5.0,-4.0,-12.0,-1.0,-8.0,1.0,6.0
1701711344.32351,5.0,3.0,11.0,19.0,7.0,19.0,4.0,9.0
1701711344.3435051,-6.0,-1.0,15.0,19.0,-6.0,-17.0,1.0,-8.0
1701711344.3435051,3.0,6.0,1.0,-26.0,-2.0,4.0,-7.0,-9.0
1701711344.3435051,-2.0,-5.0,-14.0,-3.0,1.0,-3.0,-4.0,1.0
1701711344.3435051,-1.0,-2.0,0.0,-13.0,-4.0,6.0,5.0,1.0
1701711344.3536797,-1.0,5.0,-14.0,-4.0,-2.0,1.0,-3.0,0.0
1701711344.3536797,-7.0,-8.0,3.0,8.0,-4.0,1.0,9.0,-5.0
1701711344.3736055,3.0,1.0,15.0,17.0,3.0,1.0,-13.0,2.0
1701711344.3736055,-3.0,0.0,-8.0,-5.0,0.0,-9.0,0.0,4.0
1701711344.3835106,-2.0,1.0,1.0,-3.0,-4.0,0.0,-1.0,-5.0
1701711344.3835106,-2.0,-2.0,-7.0,-10.0,-2.0,-4.0,3.0,-6.0
1701711344.3835106,-4.0,-1.0,4.0,-2.0,-10.0,-20.0,-7.0,-1.0
1701711344.3835106,0.0,-1.0,4.0,23.0,5.0,-2.0,0.0,1.0
1701711344.4269586,1.0,4.0,12.0,-6.0,4.0,2.0,-2.0,0.0
1701711344.427969,-6.0,-4.0,-1.0,-14.0,-1.0,-14.0,-5.0,-6.0
1701711344.427969,1.0,0.0,11.0,21.0,-14.0,11.0,4.0,2.0
1701711344.427969,-5.0,0.0,23.0,0.0,-1.0,-4.0,-7.0,-6.0
1701711344.427969,-1.0,4.0,56.0,-17.0,-17.0,-15.0,-7.0,-3.0
1701711344.427969,-4.0,-9.0,37.0,7.0,7.0,9.0,2.0,-4.0
1701711344.427969,4.0,6.0,35.0,1.0,3.0,7.0,7.0,8.0
1701711344.427969,1.0,0.0,17.0,-2.0,-3.0,-8.0,-2.0,3.0
1701711344.4503496,-2.0,1.0,26.0,1.0,-8.0,7.0,1.0,-3.0
1701711344.4503496,2.0,2.0,-11.0,4.0,0.0,-1.0,-2.0,-2.0
1701711344.4512982,-4.0,-6.0,-31.0,-23.0,-13.0,-5.0,-9.0,-6.0
1701711344.4512982,1.0,2.0,-45.0,12.0,2.0,0.0,1.0,0.0
1701711344.466065,-7.0,-23.0,-46.0,-7.0,-2.0,-4.0,-1.0,1.0
1701711344.466065,-10.0,-23.0,-28.0,-26.0,-15.0,-7.0,-6.0,-3.0
1701711344.466065,-4.0,1.0,-20.0,-7.0,2.0,-2.0,1.0,6.0
1701711344.466065,10.0,17.0,6.0,24.0,10.0,1.0,2.0,-2.0
1701711344.4764178,-10.0,-27.0,-47.0,-18.0,-11.0,-6.0,-4.0,-3.0
1701711344.4764178,8.0,29.0,26.0,23.0,12.0,2.0,0.0,-3.0
1701711344.486486,-5.0,-14.0,-39.0,-14.0,3.0,0.0,-1.0,1.0
1701711344.486486,-6.0,-9.0,9.0,-12.0,-10.0,-6.0,-6.0,-2.0
1701711344.4960666,10.0,22.0,2.0,21.0,13.0,4.0,-7.0,1.0
1701711344.4960666,-1.0,0.0,-14.0,13.0,-2.0,2.0,0.0,-1.0
1701711344.4960666,-3.0,-2.0,-6.0,-6.0,-3.0,-5.0,-2.0,-13.0
1701711344.4960666,2.0,10.0,-10.0,1.0,0.0,-6.0,-5.0,19.0
1701711344.5160656,-8.0,-15.0,-34.0,-5.0,-2.0,-2.0,10.0,-6.0
1701711344.5160656,-8.0,-2.0,15.0,-3.0,0.0,0.0,-3.0,0.0
1701711344.526088,14.0,1.0,-47.0,0.0,1.0,-1.0,-4.0,8.0
1701711344.526088,-7.0,-11.0,-10.0,-5.0,-3.0,-1.0,-4.0,-12.0
1701711344.5362756,1.0,4.0,-1.0,1.0,6.0,-2.0,-7.0,5.0
1701711344.5362756,0.0,3.0,-17.0,4.0,0.0,-1.0,0.0,-12.0
1701711344.5461009,-2.0,-3.0,22.0,7.0,1.0,1.0,2.0,-9.0
1701711344.5461009,0.0,-3.0,12.0,0.0,-1.0,2.0,4.0,4.0
1701711344.5560653,-1.0,-6.0,-12.0,-5.0,0.0,2.0,0.0,-12.0
1701711344.5560653,-1.0,0.0,7.0,1.0,-2.0,-3.0,0.0,4.0
1701711344.5660703,-2.0,-1.0,17.0,-3.0,2.0,2.0,-2.0,0.0
1701711344.5660703,-2.0,-2.0,-2.0,-2.0,-3.0,-2.0,-2.0,-6.0
1701711344.5760643,0.0,2.0,9.0,7.0,1.0,3.0,1.0,4.0
1701711344.5760643,-1.0,-5.0,-13.0,-6.0,-7.0,-5.0,0.0,-1.0
1701711344.5860631,0.0,7.0,17.0,0.0,2.0,0.0,0.0,2.0
1701711344.5860631,-3.0,1.0,4.0,-3.0,0.0,-1.0,-1.0,-4.0
1701711344.596415,-4.0,-4.0,-13.0,-8.0,-1.0,3.0,-1.0,-3.0
1701711344.596415,2.0,2.0,-3.0,-2.0,-1.0,-2.0,-2.0,4.0
1701711344.6060996,1.0,2.0,3.0,1.0,-2.0,-2.0,1.0,-7.0
1701711344.6060996,-1.0,-5.0,-9.0,-7.0,-4.0,0.0,-2.0,-3.0
1701711344.6160643,-5.0,-3.0,-7.0,2.0,2.0,2.0,0.0,-5.0
1701711344.6160643,5.0,-2.0,-10.0,-11.0,-2.0,-6.0,-8.0,4.0
1701711344.6160643,-1.0,5.0,20.0,2.0,3.0,4.0,3.0,5.0
1701711344.6160643,-1.0,-4.0,-2.0,0.0,-1.0,-1.0,-1.0,-2.0
1701711344.636064,-4.0,-5.0,1.0,-2.0,-3.0,-5.0,-1.0,1.0
1701711344.636064,0.0,2.0,2.0,3.0,-1.0,-3.0,-4.0,-4.0
1701711344.646064,-1.0,-1.0,-2.0,-2.0,0.0,1.0,3.0,-3.0
1701711344.646064,2.0,3.0,1.0,4.0,-1.0,-1.0,-2.0,2.0
1701711344.6561205,2.0,5.0,0.0,-1.0,4.0,2.0,-2.0,-2.0
1701711344.6561205,2.0,4.0,3.0,4.0,-1.0,5.0,5.0,4.0
1701711344.666104,-5.0,-9.0,-1.0,-4.0,-3.0,-7.0,-8.0,-4.0
1701711344.666104,-6.0,-10.0,-10.0,-8.0,-9.0,-4.0,1.0,-3.0
1701711344.6860645,2.0,2.0,2.0,3.0,1.0,-1.0,-1.0,1.0
1701711344.6860645,1.0,0.0,3.0,-1.0,1.0,-4.0,-3.0,-2.0
1701711344.6860645,1.0,7.0,8.0,5.0,2.0,2.0,0.0,4.0
1701711344.6860645,-4.0,-8.0,-9.0,-2.0,0.0,2.0,-2.0,-9.0
1701711344.6961017,-2.0,1.0,5.0,-2.0,-3.0,0.0,-1.0,0.0
1701711344.6961017,0.0,-3.0,-4.0,-3.0,-2.0,1.0,0.0,3.0
1701711344.7060668,-3.0,2.0,5.0,4.0,-3.0,-3.0,-1.0,-2.0
1701711344.7060668,-2.0,-3.0,-3.0,-5.0,-2.0,-1.0,1.0,0.0
1701711344.716148,3.0,4.0,6.0,6.0,-1.0,0.0,-1.0,0.0
1701711344.716148,-3.0,-6.0,-10.0,-3.0,0.0,2.0,0.0,-3.0
1701711344.7260656,1.0,-3.0,-1.0,-2.0,0.0,-4.0,-5.0,-1.0
1701711344.7260656,1.0,3.0,8.0,-1.0,0.0,4.0,4.0,2.0
1701711344.7360644,1.0,3.0,7.0,4.0,1.0,-1.0,1.0,0.0
1701711344.7360644,-4.0,-10.0,-10.0,-2.0,-1.0,2.0,-2.0,0.0
1701711344.7360644,-4.0,0.0,-1.0,-3.0,1.0,-11.0,-6.0,-3.0
1701711344.7360644,0.0,1.0,5.0,5.0,3.0,1.0,-1.0,0.0
1701711344.7561133,-1.0,-3.0,-4.0,-4.0,-4.0,-1.0,1.0,-2.0
1701711344.7561133,-2.0,-1.0,1.0,3.0,-1.0,-2.0,0.0,-1.0
1701711344.7661023,0.0,-2.0,-1.0,-6.0,-3.0,2.0,1.0,-2.0
1701711344.7661023,1.0,1.0,-3.0,-3.0,1.0,2.0,-2.0,0.0
1701711344.7860649,3.0,6.0,0.0,0.0,-4.0,-6.0,-3.0,0.0
1701711344.7860649,-5.0,-6.0,-4.0,5.0,8.0,0.0,-3.0,-4.0
1701711344.7860649,-1.0,-4.0,-9.0,-7.0,-5.0,7.0,2.0,0.0
1701711344.7860649,-1.0,1.0,4.0,0.0,-1.0,-10.0,-3.0,-1.0
1701711344.7960658,-1.0,0.0,1.0,-1.0,3.0,2.0,1.0,-1.0
1701711344.7960658,2.0,4.0,6.0,3.0,-5.0,-2.0,2.0,1.0
1701711344.7960658,-1.0,-2.0,-7.0,-4.0,-1.0,6.0,0.0,-2.0
1701711344.7960658,-4.0,-7.0,-4.0,-1.0,-6.0,-7.0,-4.0,-4.0
1701711344.8160968,0.0,-2.0,0.0,2.0,0.0,0.0,-3.0,-2.0
1701711344.8160968,0.0,4.0,0.0,2.0,-1.0,4.0,3.0,0.0
1701711344.826102,-2.0,-4.0,-4.0,2.0,0.0,-7.0,-2.0,-1.0
1701711344.826102,0.0,-2.0,-1.0,-4.0,-4.0,4.0,-2.0,0.0
1701711344.8460636,1.0,1.0,4.0,2.0,-2.0,-1.0,-2.0,1.0
1701711344.8460636,-5.0,-8.0,-12.0,-5.0,-3.0,0.0,-3.0,-3.0
1701711344.8460636,-1.0,-4.0,0.0,-1.0,0.0,2.0,2.0,2.0
1701711344.8460636,-3.0,0.0,-3.0,-2.0,-3.0,-5.0,-2.0,-5.0
1701711344.8560948,-1.0,-1.0,-3.0,-2.0,-1.0,0.0,-2.0,0.0
1701711344.8560948,1.0,-1.0,-2.0,-1.0,-2.0,-10.0,-4.0,-1.0
1701711344.8560948,2.0,12.0,13.0,3.0,-3.0,2.0,0.0,1.0
1701711344.8560948,-5.0,-15.0,-27.0,-15.0,-3.0,-6.0,-3.0,-2.0
1701711344.876064,0.0,-2.0,3.0,1.0,-4.0,-4.0,-3.0,-2.0
1701711344.876064,1.0,0.0,-11.0,-6.0,1.0,4.0,2.0,0.0
1701711344.8861187,-3.0,-5.0,1.0,3.0,-1.0,-4.0,-3.0,-2.0
1701711344.8861187,2.0,4.0,7.0,13.0,5.0,5.0,1.0,2.0
1701711344.906095,-6.0,-7.0,-4.0,-9.0,-5.0,-5.0,-3.0,-3.0
1701711344.906095,0.0,-4.0,-12.0,0.0,-1.0,-3.0,-2.0,3.0
1701711344.906095,-1.0,4.0,2.0,-1.0,-3.0,-2.0,0.0,-2.0
1701711344.906095,0.0,6.0,8.0,4.0,-1.0,-3.0,-2.0,-2.0
1701711344.9261801,0.0,1.0,-3.0,-1.0,-1.0,0.0,0.0,1.0
1701711344.9261801,-3.0,1.0,7.0,0.0,-1.0,-1.0,-1.0,-2.0
1701711344.9261801,-1.0,-5.0,-5.0,-7.0,3.0,5.0,-1.0,0.0
1701711344.9261801,2.0,-1.0,2.0,5.0,0.0,3.0,1.0,3.0
1701711344.9361777,0.0,0.0,-6.0,-4.0,4.0,0.0,0.0,1.0
1701711344.9361777,-1.0,1.0,7.0,3.0,-1.0,-6.0,-5.0,-5.0
1701711344.946117,-4.0,-9.0,-10.0,-8.0,-4.0,6.0,2.0,-2.0
1701711344.946117,-2.0,0.0,6.0,-3.0,0.0,-2.0,-2.0,-1.0
1701711344.9685066,-2.0,-4.0,-6.0,-3.0,-3.0,2.0,0.0,-2.0
1701711344.9685066,0.0,3.0,6.0,0.0,2.0,8.0,3.0,2.0
1701711344.9685066,0.0,0.0,-1.0,-4.0,-4.0,-14.0,-7.0,-4.0
1701711344.9685066,-3.0,-4.0,-5.0,5.0,0.0,0.0,0.0,1.0
1701711344.9814856,-2.0,-2.0,-1.0,-3.0,-1.0,4.0,3.0,1.0
1701711344.9814856,1.0,3.0,1.0,11.0,1.0,-3.0,-3.0,-3.0
1701711344.989162,-2.0,0.0,-2.0,0.0,-11.0,-9.0,-4.0,0.0
1701711344.989162,-2.0,-1.0,-5.0,-9.0,-8.0,3.0,1.0,0.0
1701711344.9995213,0.0,3.0,1.0,4.0,19.0,-5.0,-4.0,-1.0
1701711344.9995213,-3.0,-4.0,-1.0,-3.0,-3.0,2.0,2.0,-1.0
1701711344.9995213,0.0,0.0,5.0,2.0,0.0,-6.0,-3.0,-2.0
1701711344.9995213,-1.0,-3.0,4.0,-10.0,2.0,-6.0,-3.0,-2.0
1701711345.0191908,-3.0,-2.0,6.0,8.0,-8.0,-9.0,-4.0,-1.0
1701711345.0191908,-1.0,-5.0,-6.0,-6.0,1.0,6.0,1.0,0.0
1701711345.0292058,-2.0,-1.0,3.0,-6.0,-8.0,-3.0,-3.0,-2.0
1701711345.0292058,0.0,-7.0,-19.0,-5.0,-5.0,-4.0,-3.0,-1.0
1701711345.039625,2.0,0.0,-12.0,2.0,-23.0,-2.0,-1.0,-1.0
1701711345.039625,0.0,2.0,6.0,8.0,3.0,8.0,3.0,2.0
1701711345.0492086,-3.0,-3.0,-9.0,0.0,-6.0,-8.0,-4.0,-1.0
1701711345.0492086,1.0,0.0,2.0,-10.0,4.0,4.0,2.0,2.0
1701711345.059598,-2.0,2.0,-2.0,-8.0,-20.0,-6.0,-1.0,-1.0
1701711345.059598,-3.0,-2.0,1.0,-6.0,-7.0,-8.0,-3.0,-3.0
1701711345.059598,2.0,1.0,7.0,3.0,9.0,9.0,4.0,3.0
1701711345.059598,1.0,8.0,-10.0,4.0,-2.0,-2.0,-3.0,-2.0
1701711345.0791886,-2.0,-6.0,-9.0,-5.0,8.0,3.0,0.0,0.0
1701711345.0791886,-2.0,10.0,14.0,21.0,-3.0,-9.0,-5.0,-5.0
1701711345.0892148,0.0,-12.0,-34.0,-42.0,-4.0,1.0,1.0,0.0
1701711345.0892148,-2.0,12.0,0.0,6.0,1.0,-1.0,-2.0,-2.0
1701711345.0996757,-4.0,0.0,-28.0,5.0,7.0,1.0,-1.0,-4.0
1701711345.0996757,6.0,1.0,-3.0,6.0,2.0,-3.0,-3.0,6.0
1701711345.0996757,-2.0,3.0,5.0,20.0,5.0,-2.0,-1.0,-1.0
1701711345.0996757,0.0,-5.0,5.0,-7.0,-5.0,-2.0,0.0,-1.0
1701711345.1196864,-2.0,0.0,24.0,-11.0,3.0,1.0,-1.0,0.0
1701711345.1196864,-4.0,-7.0,20.0,5.0,2.0,-1.0,0.0,-2.0
1701711345.129935,-2.0,-5.0,7.0,-4.0,-2.0,-1.0,-7.0,-3.0
1701711345.129935,1.0,-3.0,14.0,-10.0,-1.0,2.0,1.0,0.0
1701711345.139952,0.0,2.0,21.0,14.0,6.0,1.0,0.0,-3.0
1701711345.139952,0.0,0.0,-6.0,-25.0,-11.0,-4.0,0.0,-1.0
1701711345.139952,0.0,0.0,-1.0,16.0,9.0,0.0,0.0,-2.0
1701711345.1496913,-2.0,-4.0,1.0,-9.0,-14.0,0.0,-1.0,-1.0
1701711345.1600807,-1.0,-4.0,1.0,6.0,-5.0,2.0,0.0,3.0
1701711345.1600807,-1.0,-4.0,-9.0,-3.0,1.0,-1.0,-5.0,-6.0
1701711345.1600807,0.0,0.0,1.0,3.0,10.0,3.0,2.0,1.0
1701711345.1600807,-3.0,0.0,5.0,-1.0,-12.0,-11.0,-5.0,-2.0
1701711345.1796863,0.0,-4.0,-14.0,-20.0,7.0,4.0,0.0,-1.0
1701711345.1796863,0.0,6.0,4.0,19.0,-1.0,2.0,1.0,-1.0
1701711345.1796863,-4.0,-1.0,6.0,9.0,-1.0,2.0,0.0,-1.0
1701711345.1796863,0.0,-1.0,-2.0,4.0,16.0,7.0,2.0,-1.0
1701711345.2000885,-1.0,0.0,-2.0,-7.0,5.0,-6.0,-3.0,-3.0
1701711345.2000885,-1.0,-4.0,-15.0,-13.0,-9.0,-2.0,-2.0,-1.0
1701711345.2096868,-2.0,-3.0,3.0,-4.0,-1.0,-1.0,-1.0,-1.0
1701711345.2096868,0.0,-1.0,-3.0,14.0,6.0,5.0,1.0,2.0
1701711345.2200806,-1.0,-4.0,-5.0,-8.0,-12.0,-5.0,-2.0,-2.0
1701711345.2200806,-1.0,-3.0,-5.0,-5.0,3.0,0.0,-1.0,0.0
1701711345.2296925,-1.0,-1.0,6.0,2.0,-5.0,-2.0,-2.0,-1.0
1701711345.2296925,-3.0,-1.0,-6.0,-5.0,-4.0,-3.0,-2.0,-3.0
1701711345.239689,1.0,2.0,8.0,10.0,8.0,6.0,4.0,1.0
1701711345.239689,-1.0,-1.0,-5.0,-6.0,-3.0,-6.0,-1.0,0.0
1701711345.239689,-4.0,-3.0,-5.0,-9.0,4.0,4.0,2.0,-1.0
1701711345.239689,0.0,3.0,5.0,10.0,3.0,-10.0,-5.0,0.0
1701711345.2600937,-2.0,-5.0,-7.0,-7.0,-8.0,-1.0,-3.0,-4.0
1701711345.2600937,-5.0,-6.0,-3.0,-3.0,0.0,-4.0,-2.0,-4.0
1701711345.2600937,-2.0,-1.0,4.0,-3.0,-7.0,1.0,1.0,0.0
1701711345.2600937,3.0,3.0,-1.0,4.0,12.0,9.0,1.0,0.0
1701711345.2801096,-1.0,-8.0,3.0,-2.0,-9.0,-13.0,-8.0,-1.0
1701711345.2801096,0.0,0.0,-6.0,-9.0,-3.0,-3.0,-3.0,2.0
1701711345.289693,0.0,7.0,3.0,4.0,5.0,9.0,8.0,1.0
1701711345.289693,-2.0,-6.0,-3.0,-1.0,1.0,14.0,8.0,1.0
1701711345.299687,-1.0,2.0,1.0,0.0,4.0,3.0,2.0,2.0
1701711345.299687,-1.0,-5.0,-6.0,-3.0,-4.0,-11.0,-6.0,-1.0
1701711345.3098135,3.0,7.0,5.0,3.0,-2.0,-7.0,-9.0,1.0
1701711345.3098135,-1.0,2.0,6.0,16.0,3.0,-4.0,-2.0,-1.0
1701711345.3200629,-5.0,-16.0,-30.0,-5.0,-5.0,-5.0,-3.0,-4.0
1701711345.3200629,-7.0,-3.0,16.0,-16.0,-6.0,-5.0,-3.0,-3.0
1701711345.3200629,1.0,3.0,-5.0,3.0,0.0,-1.0,1.0,-2.0
1701711345.3200629,1.0,3.0,-2.0,-5.0,-7.0,-9.0,-3.0,0.0
1701711345.3396893,3.0,6.0,7.0,5.0,11.0,7.0,1.0,2.0
1701711345.3396893,-2.0,2.0,2.0,2.0,-1.0,-2.0,1.0,0.0
1701711345.3496854,-5.0,-14.0,-11.0,-8.0,-1.0,-10.0,-4.0,-3.0
1701711345.3496854,-3.0,-5.0,-1.0,-10.0,-4.0,-2.0,-3.0,-3.0
1701711345.3599584,2.0,7.0,9.0,8.0,-4.0,5.0,1.0,0.0
1701711345.3599584,0.0,0.0,-6.0,-1.0,0.0,-2.0,-2.0,-2.0
1701711345.3599584,2.0,2.0,-1.0,3.0,4.0,3.0,0.0,1.0
1701711345.3599584,-2.0,-5.0,0.0,1.0,1.0,5.0,1.0,-2.0
1701711345.3799946,-3.0,-3.0,-1.0,-6.0,-6.0,-11.0,-5.0,-4.0
1701711345.3799946,0.0,-3.0,-6.0,-2.0,-7.0,-10.0,-3.0,0.0
1701711345.3896906,-3.0,-6.0,5.0,-4.0,-9.0,-5.0,0.0,-2.0
1701711345.3896906,-3.0,-3.0,-10.0,0.0,4.0,1.0,0.0,-1.0
1701711345.4196894,1.0,0.0,5.0,-1.0,-1.0,1.0,0.0,1.0
1701711345.4196894,0.0,3.0,1.0,-1.0,2.0,4.0,0.0,0.0
1701711345.4196894,-2.0,-4.0,-5.0,-5.0,-9.0,-11.0,-3.0,-2.0
1701711345.4196894,-2.0,-3.0,-1.0,-2.0,0.0,4.0,0.0,-1.0
1701711345.4196894,1.0,7.0,12.0,10.0,8.0,0.0,-3.0,-1.0
1701711345.4196894,0.0,-4.0,-3.0,4.0,1.0,9.0,4.0,1.0
1701711345.4196894,0.0,10.0,3.0,-9.0,-6.0,-1.0,-2.0,-3.0
1701711345.4196894,-2.0,-7.0,-8.0,5.0,7.0,3.0,0.0,2.0
1701711345.4400752,-2.0,-4.0,-11.0,4.0,6.0,-5.0,-2.0,-1.0
1701711345.4400752,0.0,8.0,14.0,3.0,3.0,4.0,2.0,-1.0
1701711345.4400752,-1.0,-4.0,-7.0,-2.0,-1.0,4.0,2.0,0.0
1701711345.4400752,-2.0,-3.0,-1.0,-15.0,-18.0,-13.0,-6.0,-3.0
1701711345.459686,2.0,-3.0,-13.0,-3.0,-1.0,2.0,0.0,0.0
1701711345.459686,-1.0,-5.0,6.0,-1.0,0.0,6.0,0.0,-1.0
1701711345.4696863,2.0,8.0,-3.0,1.0,0.0,-6.0,-4.0,-2.0
1701711345.4696863,-1.0,1.0,4.0,0.0,-2.0,-8.0,-5.0,-3.0
1701711345.4798784,0.0,-1.0,-1.0,-3.0,-3.0,1.0,1.0,0.0
1701711345.4798784,0.0,-4.0,-21.0,-4.0,3.0,4.0,1.0,-2.0
1701711345.4798784,-2.0,-1.0,16.0,2.0,-3.0,0.0,-1.0,-1.0
1701711345.4798784,-1.0,-2.0,-4.0,6.0,6.0,-2.0,-2.0,-1.0
1701711345.5075903,-3.0,2.0,3.0,-27.0,-15.0,-10.0,-3.0,-2.0
1701711345.508612,0.0,-3.0,-5.0,41.0,-10.0,5.0,1.0,-1.0
1701711345.5096066,3.0,3.0,-1.0,-20.0,19.0,11.0,1.0,1.0
1701711345.5096066,0.0,-4.0,-3.0,0.0,-5.0,-7.0,-1.0,1.0
1701711345.5425203,-2.0,0.0,9.0,20.0,-1.0,6.0,1.0,0.0
1701711345.5425203,-2.0,-5.0,-14.0,-16.0,-15.0,-7.0,-3.0,-3.0
1701711345.5425203,-2.0,0.0,-3.0,-10.0,-11.0,-5.0,-1.0,-3.0
1701711345.5425203,0.0,10.0,21.0,9.0,9.0,2.0,2.0,-1.0
1701711345.5425203,1.0,2.0,0.0,0.0,-1.0,1.0,-1.0,-2.0
1701711345.5425203,-3.0,-5.0,-10.0,-23.0,-11.0,-8.0,-2.0,-1.0
1701711345.552693,1.0,-6.0,-11.0,22.0,10.0,4.0,-4.0,0.0
1701711345.552693,1.0,-2.0,-11.0,-27.0,-12.0,-4.0,2.0,-2.0
1701711345.5825205,-1.0,-1.0,0.0,2.0,0.0,-5.0,-4.0,-1.0
1701711345.5825205,1.0,5.0,11.0,5.0,13.0,0.0,0.0,-1.0
1701711345.5825205,-3.0,-7.0,-3.0,6.0,7.0,0.0,3.0,0.0
1701711345.5825205,-4.0,-3.0,5.0,2.0,-12.0,-3.0,-1.0,-1.0
1701711345.5825205,0.0,2.0,2.0,-5.0,2.0,2.0,0.0,-1.0
1701711345.5825205,0.0,2.0,-3.0,-4.0,8.0,0.0,-1.0,1.0
1701711345.5825205,-1.0,-2.0,-4.0,-3.0,-17.0,-8.0,-3.0,-2.0
1701711345.5825205,0.0,-2.0,-6.0,15.0,11.0,2.0,-2.0,0.0
1701711345.6026056,-3.0,-3.0,-6.0,1.0,3.0,0.0,0.0,-1.0
1701711345.6026056,0.0,-1.0,4.0,-9.0,-2.0,-2.0,-4.0,0.0
1701711345.6026056,-1.0,-3.0,-4.0,-2.0,-7.0,-1.0,-2.0,-1.0
1701711345.6026056,-2.0,1.0,3.0,5.0,5.0,0.0,-5.0,-4.0
1701711345.6325233,-2.0,-1.0,-1.0,-3.0,-9.0,-3.0,-1.0,-1.0
1701711345.6325233,-1.0,2.0,-2.0,8.0,15.0,4.0,2.0,-1.0
1701711345.6325233,-1.0,-3.0,-4.0,3.0,4.0,-2.0,-3.0,-3.0
1701711345.6325233,-1.0,-2.0,-4.0,-9.0,-3.0,1.0,1.0,0.0
1701711345.6325233,-2.0,-6.0,-7.0,-8.0,-4.0,-1.0,-1.0,-1.0
1701711345.6325233,1.0,3.0,15.0,5.0,-7.0,-4.0,-4.0,-1.0
1701711345.6525238,-2.0,-5.0,-6.0,-6.0,-3.0,-2.0,-3.0,-1.0
1701711345.6525238,0.0,-2.0,-11.0,5.0,4.0,0.0,0.0,1.0
1701711345.6625729,1.0,0.0,-2.0,-5.0,-1.0,-4.0,-2.0,-2.0
1701711345.6625729,-2.0,-2.0,2.0,-2.0,5.0,5.0,2.0,0.0
1701711345.6625729,-3.0,0.0,-4.0,-2.0,-3.0,-8.0,0.0,-1.0
1701711345.6625729,0.0,1.0,2.0,-7.0,-12.0,-6.0,-3.0,0.0
1701711345.6925216,-2.0,2.0,4.0,1.0,-1.0,-3.0,0.0,-2.0
1701711345.6925216,0.0,-2.0,-8.0,2.0,-2.0,2.0,0.0,-2.0
1701711345.6925216,0.0,3.0,-18.0,1.0,3.0,3.0,3.0,0.0
1701711345.6925216,-1.0,-4.0,-13.0,-3.0,-6.0,0.0,-1.0,-2.0
1701711345.7025588,0.0,1.0,-2.0,0.0,-3.0,-1.0,-1.0,1.0
1701711345.7025588,-1.0,-2.0,0.0,-4.0,-1.0,-4.0,-4.0,-1.0
1701711345.7025588,-3.0,-3.0,12.0,6.0,1.0,1.0,-3.0,-1.0
1701711345.7025588,-1.0,-4.0,6.0,-5.0,-4.0,1.0,1.0,-2.0
1701711345.7225533,-2.0,-1.0,4.0,-6.0,-2.0,0.0,1.0,-1.0
1701711345.7225533,-2.0,-3.0,-1.0,1.0,1.0,-1.0,0.0,-2.0
1701711345.7225533,1.0,-1.0,4.0,0.0,-6.0,-2.0,2.0,0.0
1701711345.7225533,-1.0,1.0,3.0,-1.0,2.0,-6.0,-8.0,-1.0
1701711345.7425227,-1.0,0.0,3.0,3.0,2.0,5.0,-1.0,1.0
1701711345.7425227,-1.0,-2.0,-1.0,-6.0,-4.0,-11.0,-3.0,-2.0
1701711345.7425227,2.0,7.0,8.0,9.0,3.0,-2.0,-2.0,0.0
1701711345.7425227,3.0,3.0,-2.0,0.0,-1.0,9.0,8.0,2.0
1701711345.762561,-6.0,-15.0,-2.0,-12.0,-5.0,-2.0,-3.0,-4.0
1701711345.762561,-5.0,-3.0,-5.0,-3.0,-3.0,1.0,-2.0,-1.0
1701711345.762561,1.0,-2.0,-5.0,-4.0,-2.0,-5.0,-5.0,-2.0
1701711345.762561,3.0,6.0,1.0,7.0,-2.0,-13.0,-5.0,-2.0
1701711345.7825594,-5.0,-5.0,-6.0,-3.0,-2.0,1.0,-1.0,-5.0
1701711345.7825594,2.0,6.0,-1.0,3.0,6.0,3.0,-2.0,1.0
1701711345.7925224,-3.0,-2.0,-1.0,-5.0,-1.0,-3.0,2.0,-1.0
1701711345.7925224,-2.0,4.0,-1.0,1.0,0.0,8.0,3.0,-1.0
1701711345.802522,2.0,5.0,-4.0,5.0,0.0,-1.0,1.0,1.0
1701711345.802522,-4.0,-8.0,-10.0,-7.0,-2.0,-5.0,-4.0,-5.0
1701711345.802522,0.0,8.0,11.0,3.0,0.0,3.0,-1.0,-1.0
1701711345.802522,-1.0,-6.0,-5.0,0.0,-2.0,-4.0,-5.0,-2.0
1701711345.8225582,1.0,1.0,3.0,1.0,6.0,2.0,2.0,0.0
1701711345.8225582,2.0,6.0,-1.0,2.0,0.0,-4.0,-1.0,1.0
1701711345.8225582,-5.0,-12.0,-4.0,-5.0,-4.0,2.0,-3.0,-3.0
1701711345.8225582,-1.0,-11.0,-4.0,-13.0,-6.0,-4.0,-1.0,-3.0
1701711345.842561,-3.0,4.0,6.0,1.0,0.0,-5.0,-6.0,1.0
1701711345.842561,3.0,1.0,2.0,4.0,0.0,1.0,2.0,1.0
1701711345.852523,-2.0,-2.0,-8.0,2.0,-4.0,-2.0,0.0,1.0
1701711345.852523,0.0,1.0,0.0,0.0,0.0,-1.0,1.0,-1.0
1701711345.8625593,-2.0,-4.0,-1.0,2.0,2.0,-3.0,-1.0,-1.0
1701711345.8625593,-2.0,-6.0,-8.0,-2.0,0.0,-6.0,-4.0,-2.0
1701711345.8625593,1.0,3.0,6.0,-5.0,2.0,0.0,1.0,-1.0
1701711345.8625593,-2.0,-4.0,-2.0,-3.0,-2.0,-4.0,-4.0,-2.0
1701711345.882558,1.0,1.0,-1.0,3.0,0.0,2.0,1.0,-1.0
1701711345.882558,-1.0,-1.0,3.0,-2.0,0.0,5.0,2.0,1.0
1701711345.882558,-4.0,-6.0,-2.0,-4.0,-5.0,-6.0,-3.0,-4.0
1701711345.882558,1.0,3.0,-1.0,5.0,2.0,1.0,2.0,2.0
1701711345.9025717,0.0,-5.0,-2.0,-5.0,0.0,0.0,-3.0,1.0
1701711345.9025717,-2.0,-4.0,5.0,-4.0,-9.0,-1.0,2.0,-2.0
1701711345.9025717,3.0,3.0,-10.0,2.0,1.0,-1.0,0.0,0.0
1701711345.9025717,-5.0,-1.0,4.0,-2.0,0.0,-2.0,-2.0,-2.0
1701711345.9225242,1.0,3.0,5.0,1.0,0.0,1.0,3.0,-1.0
1701711345.9225242,-2.0,-4.0,-1.0,-2.0,-5.0,-4.0,-2.0,0.0
1701711345.932523,2.0,3.0,-1.0,3.0,-1.0,9.0,3.0,1.0
1701711345.932523,1.0,4.0,-7.0,3.0,0.0,-5.0,-1.0,0.0
1701711345.9426234,-3.0,-6.0,1.0,-3.0,-1.0,-1.0,0.0,-2.0
1701711345.9426234,-2.0,0.0,-2.0,-4.0,0.0,0.0,-2.0,0.0
1701711345.9426234,-3.0,0.0,-2.0,0.0,-2.0,-2.0,0.0,-1.0
1701711345.9426234,1.0,-1.0,-8.0,2.0,2.0,3.0,-2.0,-1.0
1701711345.97252,0.0,2.0,2.0,0.0,-2.0,-1.0,0.0,-2.0
1701711345.97252,-4.0,-3.0,5.0,-3.0,-5.0,1.0,-1.0,-3.0
1701711345.97252,-1.0,0.0,-11.0,0.0,1.0,-2.0,-1.0,-1.0
1701711345.97252,-1.0,0.0,4.0,0.0,1.0,5.0,0.0,-2.0
1701711345.982531,2.0,1.0,-6.0,-1.0,-1.0,-8.0,-4.0,0.0
1701711345.982531,0.0,-6.0,-9.0,-2.0,-1.0,-1.0,-1.0,-4.0
1701711345.982531,-2.0,-3.0,2.0,3.0,0.0,5.0,0.0,-1.0
1701711345.982531,-5.0,-6.0,-1.0,-6.0,-6.0,-14.0,-6.0,-4.0
1701711346.0025642,0.0,3.0,-3.0,2.0,0.0,-4.0,-2.0,-1.0
1701711346.0025642,-1.0,3.0,-2.0,-1.0,-2.0,6.0,1.0,1.0
1701711346.0107973,-1.0,-4.0,-1.0,-2.0,-3.0,-6.0,-1.0,-2.0
1701711346.0107973,-1.0,-1.0,4.0,-3.0,2.0,8.0,2.0,0.0
1701711346.0243843,0.0,-2.0,-7.0,0.0,-2.0,6.0,3.0,2.0
1701711346.0243843,-3.0,1.0,-2.0,3.0,2.0,-9.0,-7.0,-4.0
1701711346.0373807,-3.0,-1.0,5.0,-2.0,0.0,-4.0,-2.0,-1.0
1701711346.0373807,-2.0,0.0,-4.0,-1.0,-4.0,1.0,-2.0,0.0
1701711346.0395286,-2.0,1.0,-1.0,-2.0,0.0,-4.0,-3.0,-1.0
1701711346.0395286,0.0,-2.0,0.0,-1.0,1.0,3.0,-1.0,-1.0
1701711346.0495875,-1.0,-2.0,-3.0,2.0,4.0,7.0,2.0,0.0
1701711346.0495875,-5.0,-8.0,-9.0,-2.0,-6.0,-14.0,-6.0,-4.0
1701711346.06954,1.0,3.0,0.0,-2.0,-3.0,0.0,1.0,-1.0
1701711346.06954,0.0,-2.0,-6.0,-2.0,1.0,5.0,4.0,-1.0
1701711346.06954,-2.0,-6.0,-8.0,-1.0,-1.0,-3.0,-4.0,-1.0
1701711346.06954,1.0,2.0,5.0,-3.0,-2.0,3.0,1.0,-1.0
1701711346.0895314,0.0,1.0,3.0,3.0,1.0,0.0,-1.0,-3.0
1701711346.0895314,-1.0,-2.0,-3.0,-2.0,-4.0,0.0,3.0,1.0
1701711346.0895314,-1.0,-1.0,5.0,-3.0,3.0,-10.0,-4.0,-4.0
1701711346.0895314,-2.0,-3.0,-1.0,-2.0,-3.0,-5.0,-1.0,-2.0
1701711346.1098275,-1.0,-2.0,-3.0,1.0,0.0,5.0,1.0,-1.0
1701711346.1098275,2.0,8.0,0.0,1.0,-1.0,-3.0,-2.0,1.0
1701711346.1098275,-4.0,-8.0,-10.0,0.0,-3.0,0.0,-1.0,-2.0
1701711346.1098275,-1.0,0.0,0.0,-1.0,-1.0,1.0,-3.0,1.0
1701711346.1298203,0.0,-6.0,-6.0,-3.0,-4.0,-2.0,-2.0,0.0
1701711346.1298203,-1.0,0.0,1.0,-3.0,-1.0,-6.0,-4.0,-1.0
1701711346.1298203,-1.0,-3.0,5.0,-2.0,-2.0,-9.0,-8.0,0.0
1701711346.1298203,-1.0,-3.0,0.0,1.0,1.0,9.0,6.0,-1.0
1701711346.1498194,-1.0,1.0,-2.0,1.0,0.0,-1.0,0.0,-2.0
1701711346.1498194,-1.0,0.0,6.0,-1.0,1.0,-2.0,-1.0,-1.0
1701711346.1498194,0.0,1.0,0.0,-2.0,-6.0,-2.0,-3.0,0.0
1701711346.1498194,1.0,1.0,-2.0,-1.0,0.0,4.0,1.0,1.0
1701711346.1598656,-1.0,-3.0,1.0,2.0,2.0,10.0,3.0,-2.0
1701711346.1598656,-5.0,-3.0,-1.0,-3.0,-4.0,-16.0,-6.0,-4.0
1701711346.1698213,3.0,5.0,5.0,2.0,-1.0,8.0,5.0,2.0
1701711346.1698213,-4.0,-4.0,-5.0,-3.0,-4.0,-9.0,-4.0,-2.0
1701711346.1998336,-5.0,-8.0,9.0,-8.0,-4.0,-2.0,-2.0,-2.0
1701711346.1998336,2.0,8.0,15.0,5.0,4.0,6.0,1.0,2.0
1701711346.1998336,-5.0,-8.0,-13.0,-6.0,-2.0,-3.0,-2.0,-3.0
1701711346.1998336,1.0,1.0,-7.0,-1.0,-2.0,-2.0,-1.0,-1.0
1701711346.1998336,2.0,2.0,-15.0,4.0,2.0,-5.0,-2.0,-1.0
1701711346.1998336,-3.0,-6.0,2.0,-3.0,0.0,2.0,-1.0,-2.0
1701711346.2102237,-1.0,-1.0,-11.0,-7.0,-1.0,-6.0,-1.0,0.0
1701711346.2102237,-2.0,-8.0,-12.0,-1.0,0.0,3.0,1.0,-1.0
1701711346.2202835,-1.0,2.0,-4.0,-1.0,-3.0,-3.0,-2.0,1.0
1701711346.2202835,0.0,3.0,5.0,1.0,-2.0,3.0,2.0,0.0
1701711346.2202835,0.0,1.0,2.0,1.0,0.0,4.0,2.0,-1.0
1701711346.2202835,-3.0,-1.0,7.0,-2.0,-1.0,-5.0,-3.0,-2.0
1701711346.2402446,-2.0,-3.0,0.0,-3.0,-1.0,-3.0,-3.0,-1.0
1701711346.2402446,1.0,1.0,-4.0,-3.0,1.0,0.0,1.0,-1.0
1701711346.2502437,-1.0,-2.0,-6.0,0.0,1.0,0.0,0.0,-1.0
1701711346.2502437,-2.0,-2.0,-2.0,0.0,-2.0,-3.0,-4.0,0.0
1701711346.2602491,0.0,1.0,-5.0,-2.0,-1.0,-5.0,-4.0,-2.0
1701711346.2602491,-1.0,-4.0,-10.0,-2.0,-2.0,0.0,-1.0,0.0
1701711346.2705295,0.0,1.0,-1.0,-1.0,1.0,5.0,1.0,-2.0
1701711346.2705295,-3.0,-2.0,-3.0,-2.0,-1.0,-2.0,-2.0,-2.0
1701711346.280549,-1.0,2.0,-1.0,-5.0,-7.0,-9.0,-2.0,0.0
1701711346.280549,0.0,-3.0,5.0,11.0,6.0,6.0,1.0,0.0
1701711346.280549,0.0,1.0,4.0,-1.0,1.0,1.0,-1.0,-1.0
1701711346.280549,0.0,2.0,7.0,6.0,3.0,0.0,-2.0,-3.0
1701711346.320244,-3.0,-5.0,-8.0,-7.0,1.0,-2.0,-2.0,-1.0
1701711346.320244,-4.0,-7.0,-8.0,-8.0,-8.0,-4.0,-3.0,-4.0
1701711346.320244,-1.0,4.0,5.0,3.0,-4.0,-2.0,-1.0,1.0
1701711346.320244,0.0,1.0,-4.0,-6.0,1.0,4.0,1.0,2.0
1701711346.320244,-1.0,-2.0,0.0,16.0,-4.0,-1.0,0.0,-3.0
1701711346.320244,0.0,2.0,-2.0,-2.0,-1.0,-3.0,-5.0,-1.0
1701711346.3304472,-3.0,-5.0,-4.0,-16.0,0.0,0.0,1.0,-2.0
1701711346.3304472,-2.0,-3.0,1.0,-2.0,9.0,-5.0,-3.0,-5.0
1701711346.3406792,1.0,-1.0,2.0,-4.0,7.0,2.0,-1.0,1.0
1701711346.3406792,0.0,-3.0,-9.0,-1.0,-11.0,-7.0,-2.0,-1.0
1701711346.3406792,-2.0,-5.0,-5.0,4.0,-4.0,-1.0,-3.0,-2.0
1701711346.3406792,2.0,3.0,1.0,-8.0,-21.0,-2.0,1.0,0.0
1701711346.3602462,-2.0,0.0,4.0,10.0,6.0,2.0,-1.0,-2.0
1701711346.3602462,0.0,0.0,-2.0,-1.0,4.0,1.0,-1.0,-1.0
1701711346.3702443,-3.0,-1.0,-7.0,-7.0,-7.0,-8.0,-3.0,-1.0
1701711346.3702443,-2.0,-1.0,-3.0,2.0,-2.0,0.0,-1.0,0.0
1701711346.3902466,2.0,4.0,3.0,0.0,2.0,2.0,2.0,0.0
1701711346.3902466,-1.0,-1.0,-4.0,-7.0,-11.0,-6.0,-2.0,-1.0
1701711346.3902466,1.0,-1.0,1.0,0.0,-1.0,-2.0,-1.0,-1.0
1701711346.3902466,-1.0,-3.0,-4.0,3.0,3.0,2.0,0.0,-2.0
1701711346.4102461,0.0,0.0,-3.0,-5.0,-2.0,-1.0,-1.0,0.0
1701711346.4102461,-1.0,-1.0,0.0,-3.0,1.0,-1.0,-3.0,0.0
1701711346.4102461,-1.0,-1.0,-4.0,0.0,-2.0,-3.0,-1.0,-1.0
1701711346.4102461,-1.0,1.0,-1.0,5.0,2.0,-1.0,-2.0,-1.0
1701711346.43025,-2.0,-3.0,-5.0,-6.0,-4.0,-4.0,-3.0,-1.0
1701711346.43025,0.0,-3.0,-3.0,3.0,6.0,7.0,2.0,-1.0
1701711346.43025,1.0,2.0,2.0,0.0,-2.0,-6.0,-8.0,0.0
1701711346.43025,-4.0,-2.0,-4.0,-5.0,-8.0,-7.0,-2.0,0.0
1701711346.4405596,0.0,0.0,-4.0,0.0,2.0,8.0,4.0,1.0
1701711346.4405596,-2.0,-1.0,-5.0,0.0,0.0,-3.0,-1.0,0.0
1701711346.4505398,0.0,1.0,0.0,3.0,3.0,3.0,1.0,-1.0
1701711346.4505398,0.0,-1.0,-6.0,-3.0,-1.0,-7.0,-3.0,0.0
1701711346.480246,-1.0,-3.0,-1.0,1.0,1.0,1.0,-1.0,0.0
1701711346.480246,-2.0,-1.0,1.0,-3.0,-2.0,5.0,2.0,0.0
1701711346.480246,2.0,1.0,0.0,1.0,2.0,-2.0,-3.0,1.0
1701711346.480246,1.0,-1.0,-7.0,1.0,-3.0,3.0,2.0,1.0
1701711346.480246,-3.0,3.0,-10.0,-3.0,0.0,-16.0,-10.0,-5.0
1701711346.480246,5.0,-6.0,-11.0,0.0,-1.0,-1.0,1.0,14.0
1701711346.4902434,-7.0,-5.0,-3.0,-2.0,5.0,13.0,7.0,-26.0
1701711346.4902434,3.0,-7.0,3.0,-3.0,1.0,20.0,3.0,8.0
1701711346.5005305,-10.0,-12.0,4.0,-2.0,-9.0,1.0,4.0,-14.0
1701711346.5005305,2.0,1.0,3.0,-4.0,-9.0,-14.0,-6.0,13.0
1701711346.5105395,-4.0,-1.0,16.0,-8.0,-8.0,-4.0,-2.0,2.0
1701711346.5105395,8.0,12.0,-10.0,18.0,18.0,14.0,7.0,4.0
1701711346.5402482,-6.0,-15.0,0.0,-18.0,-13.0,3.0,0.0,-8.0
1701711346.5402482,1.0,6.0,29.0,-1.0,-1.0,0.0,4.0,-2.0
1701711346.5402482,-9.0,-11.0,-21.0,-6.0,-10.0,-10.0,-14.0,3.0
1701711346.5402482,-5.0,1.0,59.0,-4.0,-6.0,-25.0,-9.0,-7.0
1701711346.5502467,9.0,17.0,-2.0,12.0,5.0,-1.0,3.0,10.0
1701711346.5502467,-7.0,-13.0,-17.0,-9.0,-3.0,1.0,-1.0,-11.0
1701711346.551812,-4.0,4.0,-2.0,-7.0,-1.0,-3.0,-2.0,1.0
1701711346.551812,-1.0,-17.0,-20.0,-3.0,-4.0,-6.0,-3.0,-5.0
1701711346.5634851,5.0,7.0,2.0,2.0,3.0,-1.0,-1.0,5.0
1701711346.5634851,-1.0,3.0,6.0,10.0,7.0,3.0,-2.0,-5.0
1701711346.5808158,-1.0,-12.0,-6.0,-10.0,-3.0,3.0,3.0,-1.0
1701711346.5808158,-7.0,-6.0,9.0,-8.0,-5.0,-4.0,-3.0,0.0
1701711346.5808158,0.0,-4.0,38.0,-6.0,-4.0,-1.0,-2.0,2.0
1701711346.5808158,1.0,5.0,21.0,3.0,3.0,5.0,3.0,-2.0
1701711346.5808158,2.0,4.0,4.0,7.0,1.0,-5.0,0.0,4.0
1701711346.5808158,-1.0,3.0,-6.0,-2.0,0.0,-2.0,-3.0,-3.0
1701711346.6011055,0.0,0.0,-4.0,-1.0,-1.0,-3.0,-1.0,1.0
1701711346.6011055,-4.0,2.0,-4.0,-2.0,-2.0,-5.0,-8.0,-5.0
1701711346.610824,0.0,4.0,-1.0,4.0,4.0,0.0,-2.0,0.0
1701711346.610824,-2.0,4.0,-27.0,-5.0,-6.0,-1.0,1.0,-1.0
1701711346.630813,-1.0,1.0,-27.0,3.0,3.0,2.0,-2.0,-2.0
1701711346.630813,-3.0,-2.0,-21.0,-2.0,-3.0,1.0,-2.0,-5.0
1701711346.6408148,2.0,-2.0,-11.0,0.0,-3.0,0.0,3.0,0.0
1701711346.6408148,-1.0,-4.0,-15.0,2.0,5.0,-1.0,-1.0,-3.0
1701711346.6408148,-2.0,-4.0,-9.0,-8.0,-9.0,-7.0,-7.0,0.0
1701711346.6408148,-1.0,-5.0,-9.0,2.0,3.0,-1.0,0.0,-4.0
1701711346.6408148,-1.0,-2.0,-3.0,4.0,2.0,-1.0,-1.0,0.0
1701711346.6408148,-2.0,0.0,0.0,-9.0,9.0,-3.0,0.0,-3.0
1701711346.6608503,-1.0,-4.0,1.0,1.0,-21.0,0.0,0.0,1.0
1701711346.6608503,-2.0,0.0,-5.0,-1.0,10.0,0.0,-1.0,-2.0
1701711346.6708126,2.0,2.0,0.0,-3.0,-8.0,-7.0,-1.0,0.0
1701711346.6708126,-1.0,1.0,1.0,8.0,10.0,11.0,4.0,0.0
1701711346.6908169,-1.0,0.0,-3.0,-12.0,-10.0,-4.0,2.0,-1.0
1701711346.6908169,0.0,2.0,-3.0,4.0,3.0,-1.0,-3.0,-2.0
1701711346.6908169,1.0,1.0,6.0,1.0,-7.0,-1.0,0.0,1.0
1701711346.6908169,0.0,1.0,-2.0,-5.0,-1.0,-5.0,-2.0,0.0
1701711346.7008145,-1.0,-1.0,-6.0,0.0,-1.0,-3.0,-2.0,-1.0
1701711346.7008145,-3.0,0.0,2.0,5.0,10.0,3.0,1.0,-1.0
1701711346.7008145,0.0,-1.0,2.0,0.0,0.0,-2.0,-2.0,0.0
1701711346.7008145,-1.0,0.0,-3.0,-6.0,-11.0,-1.0,-2.0,0.0
1701711346.7208521,-1.0,2.0,1.0,10.0,12.0,6.0,3.0,0.0
1701711346.7208521,-1.0,-2.0,-2.0,-7.0,-6.0,-4.0,-1.0,-2.0
1701711346.7308128,2.0,1.0,1.0,6.0,8.0,12.0,7.0,3.0
1701711346.7308128,-4.0,-2.0,-4.0,-7.0,-9.0,-13.0,-8.0,-5.0
1701711346.7508144,-1.0,-2.0,-2.0,2.0,10.0,5.0,-1.0,2.0
1701711346.7508144,1.0,-1.0,-13.0,-4.0,-12.0,5.0,0.0,1.0
1701711346.7508144,-4.0,-3.0,-30.0,-3.0,3.0,-20.0,-12.0,-4.0
1701711346.7508144,3.0,1.0,-10.0,4.0,-5.0,-3.0,-2.0,1.0
1701711346.7608519,2.0,-1.0,2.0,5.0,10.0,23.0,9.0,1.0
1701711346.7608519,0.0,-1.0,7.0,-1.0,-10.0,-25.0,-11.0,-5.0
1701711346.7608519,-1.0,-9.0,3.0,0.0,-1.0,10.0,5.0,1.0
1701711346.7608519,-13.0,-9.0,-1.0,-6.0,0.0,-6.0,-7.0,-5.0
1701711346.780813,10.0,16.0,15.0,5.0,7.0,9.0,5.0,19.0
1701711346.780813,-7.0,-3.0,5.0,-9.0,-6.0,6.0,-3.0,-26.0
1701711346.7908127,5.0,1.0,14.0,2.0,5.0,4.0,2.0,8.0
1701711346.7908127,-4.0,-9.0,-17.0,0.0,-4.0,1.0,11.0,-5.0
1701711346.8108506,-4.0,-10.0,18.0,-12.0,-10.0,-13.0,-15.0,-2.0
1701711346.8108506,0.0,-2.0,-3.0,-3.0,0.0,11.0,11.0,5.0
1701711346.8108506,-1.0,7.0,11.0,10.0,8.0,-9.0,-7.0,-5.0
1701711346.8108506,-3.0,-4.0,7.0,-10.0,-8.0,1.0,-1.0,-2.0
1701711346.8208501,-1.0,1.0,5.0,9.0,2.0,-5.0,5.0,0.0
1701711346.8208501,3.0,10.0,32.0,0.0,1.0,0.0,-3.0,2.0
1701711346.83085,-4.0,-6.0,-1.0,-7.0,-4.0,-1.0,0.0,-7.0
1701711346.83085,4.0,10.0,15.0,6.0,5.0,4.0,4.0,6.0
1701711346.840816,0.0,4.0,-24.0,4.0,-1.0,-9.0,-5.0,-4.0
1701711346.840816,-9.0,-20.0,-26.0,-12.0,-7.0,-9.0,-7.0,1.0
1701711346.8508158,2.0,6.0,0.0,3.0,-2.0,5.0,4.0,2.0
1701711346.8508158,2.0,3.0,1.0,3.0,-3.0,2.0,-1.0,-2.0
1701711346.8708165,-5.0,-12.0,-21.0,-7.0,-3.0,-10.0,-8.0,-9.0
1701711346.8708165,4.0,5.0,-3.0,10.0,7.0,8.0,5.0,4.0
1701711346.8708165,-4.0,-1.0,10.0,-3.0,-3.0,1.0,2.0,-3.0
1701711346.8708165,1.0,0.0,0.0,-6.0,-6.0,-8.0,-1.0,-3.0
1701711346.8808153,-6.0,-2.0,1.0,-1.0,1.0,0.0,-7.0,-7.0
1701711346.8808153,2.0,-1.0,-4.0,-2.0,-3.0,-15.0,-9.0,3.0
1701711346.8908148,-1.0,-2.0,-11.0,-2.0,-3.0,0.0,-1.0,0.0
1701711346.8908148,-1.0,1.0,-1.0,0.0,-4.0,-5.0,-6.0,0.0
1701711346.9008565,-4.0,-1.0,-7.0,-3.0,1.0,3.0,4.0,-4.0
1701711346.9008565,-1.0,1.0,-7.0,0.0,-2.0,6.0,4.0,-1.0
1701711346.9108145,-3.0,-2.0,-6.0,-2.0,6.0,-7.0,-11.0,-2.0
1701711346.9108145,2.0,2.0,-3.0,3.0,-1.0,0.0,1.0,1.0
1701711346.930814,-4.0,-5.0,-5.0,-7.0,-4.0,-4.0,-2.0,-5.0
1701711346.930814,-4.0,-7.0,-3.0,-3.0,-5.0,-9.0,-4.0,-1.0
1701711346.930814,1.0,-1.0,1.0,2.0,-1.0,5.0,2.0,-2.0
1701711346.930814,0.0,-2.0,-1.0,2.0,3.0,3.0,1.0,0.0
1701711346.9408145,1.0,-2.0,-2.0,0.0,1.0,-5.0,-3.0,-1.0
1701711346.9408145,0.0,1.0,4.0,0.0,0.0,5.0,8.0,1.0
1701711346.951031,-2.0,-6.0,-3.0,-7.0,-6.0,-11.0,-4.0,-2.0
1701711346.951031,-2.0,0.0,2.0,3.0,0.0,-1.0,-5.0,-1.0
1701711346.9610543,-1.0,0.0,4.0,-5.0,-9.0,-6.0,-3.0,-2.0
1701711346.9610543,0.0,-2.0,-1.0,-1.0,-1.0,-2.0,-3.0,0.0
1701711346.9708164,0.0,2.0,-1.0,0.0,0.0,3.0,2.0,0.0
1701711346.9708164,-2.0,-2.0,4.0,-1.0,0.0,0.0,-1.0,1.0
1701711346.991112,3.0,2.0,-4.0,-1.0,-6.0,6.0,4.0,2.0
1701711346.991112,-3.0,-2.0,-4.0,4.0,12.0,-5.0,-2.0,-1.0
1701711346.991112,-4.0,-5.0,3.0,-8.0,-8.0,-3.0,-2.0,0.0
1701711346.991112,-3.0,-8.0,-7.0,-5.0,-1.0,-2.0,-3.0,-3.0
1701711347.001153,-1.0,3.0,4.0,1.0,3.0,8.0,3.0,0.0
1701711347.001153,1.0,1.0,1.0,-3.0,-9.0,-6.0,-5.0,0.0
1701711347.010962,0.0,-2.0,-2.0,2.0,1.0,-2.0,-1.0,0.0
1701711347.010962,-1.0,8.0,6.0,1.0,0.0,2.0,2.0,-1.0
1701711347.0308135,-3.0,-7.0,-1.0,-6.0,-10.0,-1.0,0.0,0.0
1701711347.0308135,-1.0,-1.0,-5.0,-4.0,-2.0,-8.0,-5.0,-1.0
1701711347.0308135,1.0,3.0,5.0,4.0,0.0,3.0,0.0,-1.0
1701711347.0308135,-2.0,-6.0,-4.0,-4.0,-1.0,1.0,-4.0,-2.0
1701711347.0511467,-1.0,1.0,-1.0,-1.0,1.0,-4.0,-1.0,-1.0
1701711347.0511467,0.0,-2.0,2.0,1.0,-2.0,7.0,0.0,2.0
1701711347.0511467,0.0,0.0,-4.0,2.0,1.0,3.0,0.0,2.0
1701711347.0511467,-2.0,-1.0,-5.0,-1.0,-2.0,-2.0,0.0,0.0
1701711347.0612442,-2.0,0.0,-6.0,-1.0,0.0,-5.0,-2.0,-2.0
1701711347.0612442,1.0,5.0,-3.0,5.0,4.0,6.0,1.0,1.0
1701711347.0711834,-4.0,-8.0,-1.0,-7.0,-6.0,0.0,-1.0,-3.0
1701711347.0711834,0.0,-3.0,0.0,-3.0,-1.0,-2.0,0.0,0.0
1701711347.089776,-1.0,-2.0,10.0,-1.0,1.0,-3.0,-2.0,-2.0
1701711347.089776,2.0,5.0,4.0,0.0,-1.0,5.0,2.0,2.0
1701711347.090764,-3.0,-1.0,-3.0,-2.0,0.0,-9.0,-4.0,-2.0
1701711347.090764,3.0,2.0,2.0,0.0,0.0,2.0,-1.0,2.0
1701711347.1039135,-1.0,-3.0,-1.0,3.0,4.0,0.0,-1.0,-1.0
1701711347.1039135,-6.0,-9.0,-9.0,-9.0,-8.0,-2.0,0.0,-2.0
1701711347.1139157,1.0,4.0,8.0,4.0,3.0,2.0,0.0,0.0
1701711347.1139157,1.0,-2.0,-4.0,0.0,0.0,-1.0,-1.0,-1.0
1701711347.1243105,-1.0,0.0,-3.0,0.0,1.0,-4.0,-4.0,-3.0
1701711347.1243105,0.0,-1.0,-3.0,-1.0,1.0,0.0,-2.0,-1.0
1701711347.1339178,-1.0,3.0,-1.0,-1.0,-7.0,2.0,2.0,-2.0
1701711347.1339178,-2.0,-2.0,-2.0,3.0,6.0,-6.0,-3.0,-2.0
1701711347.143915,-1.0,3.0,5.0,-3.0,-4.0,-6.0,-2.0,0.0
1701711347.143915,-2.0,-5.0,-6.0,0.0,-3.0,0.0,1.0,0.0
1701711347.143915,-1.0,1.0,-1.0,-5.0,-1.0,3.0,-1.0,-2.0
1701711347.143915,-4.0,-2.0,2.0,-1.0,-6.0,-8.0,-5.0,-3.0
1701711347.1642416,-1.0,-1.0,-5.0,-1.0,0.0,1.0,0.0,-2.0
1701711347.1642416,-2.0,-2.0,1.0,-1.0,0.0,0.0,-1.0,0.0
1701711347.1739202,0.0,4.0,3.0,-2.0,-7.0,-5.0,-3.0,1.0
1701711347.1739202,-2.0,-6.0,-7.0,0.0,8.0,6.0,1.0,-1.0
1701711347.1842575,-3.0,-6.0,-3.0,-4.0,4.0,-2.0,-1.0,0.0
1701711347.1842575,-2.0,1.0,6.0,-12.0,-25.0,-6.0,-1.0,-2.0
1701711347.1939437,-3.0,2.0,-16.0,12.0,12.0,-4.0,-5.0,-3.0
1701711347.1939437,0.0,0.0,20.0,6.0,3.0,3.0,2.0,-1.0
1701711347.2239134,-2.0,-1.0,8.0,-2.0,-1.0,-3.0,-1.0,-1.0
1701711347.2239134,-2.0,-1.0,2.0,1.0,4.0,-1.0,-1.0,2.0
1701711347.2239134,2.0,-2.0,7.0,6.0,-10.0,0.0,-5.0,-2.0
1701711347.2239134,-7.0,-8.0,-14.0,-11.0,-12.0,-4.0,5.0,-2.0
1701711347.2239134,3.0,-1.0,-3.0,-11.0,3.0,3.0,8.0,6.0
1701711347.2239134,1.0,5.0,7.0,7.0,8.0,2.0,-2.0,-2.0
1701711347.23392,2.0,1.0,10.0,2.0,-2.0,-3.0,-2.0,-1.0
1701711347.23392,-1.0,1.0,-2.0,14.0,-6.0,-1.0,-5.0,-1.0
1701711347.2539158,2.0,-2.0,17.0,12.0,0.0,-4.0,-2.0,0.0
1701711347.2539158,-8.0,-6.0,-34.0,-32.0,-4.0,-1.0,1.0,-3.0
1701711347.2539158,3.0,0.0,2.0,-6.0,-12.0,-1.0,2.0,0.0
1701711347.2539158,4.0,8.0,24.0,8.0,2.0,7.0,3.0,4.0
1701711347.2639482,-3.0,0.0,-9.0,0.0,-3.0,-2.0,-2.0,-3.0
1701711347.2639482,-3.0,-6.0,9.0,21.0,2.0,-4.0,-5.0,-4.0
1701711347.2639482,2.0,14.0,-16.0,2.0,10.0,1.0,-3.0,-2.0
1701711347.2639482,5.0,-7.0,-26.0,-5.0,-7.0,-3.0,7.0,5.0
1701711347.2942674,3.0,7.0,3.0,45.0,3.0,0.0,6.0,4.0
1701711347.2942674,-1.0,2.0,13.0,0.0,3.0,0.0,-2.0,-1.0
1701711347.2942674,-7.0,-24.0,-36.0,-4.0,-2.0,-2.0,0.0,-2.0
1701711347.2942674,1.0,4.0,14.0,22.0,-2.0,-5.0,-4.0,0.0
1701711347.323918,-2.0,-6.0,-28.0,-36.0,0.0,2.0,-5.0,-4.0
1701711347.323918,0.0,5.0,11.0,20.0,1.0,-2.0,1.0,-3.0
1701711347.323918,-3.0,-6.0,-13.0,27.0,2.0,-1.0,-8.0,-1.0
1701711347.323918,-2.0,4.0,20.0,-20.0,1.0,-1.0,1.0,0.0
1701711347.323918,-1.0,1.0,-17.0,-10.0,-7.0,-4.0,2.0,-1.0
1701711347.323918,-4.0,-11.0,-24.0,15.0,2.0,1.0,-1.0,0.0
1701711347.323918,5.0,21.0,28.0,-42.0,-4.0,-2.0,1.0,1.0
1701711347.323918,-4.0,-8.0,-10.0,-1.0,1.0,1.0,0.0,-1.0
1701711347.3443842,-2.0,-13.0,-8.0,-21.0,-7.0,-3.0,-9.0,-4.0
1701711347.3443842,0.0,-3.0,-2.0,-11.0,0.0,-2.0,2.0,0.0
1701711347.353916,-4.0,-13.0,-3.0,-12.0,-14.0,-3.0,0.0,-1.0
1701711347.353916,-5.0,-22.0,-26.0,-3.0,8.0,1.0,-2.0,-3.0
1701711347.3739529,2.0,23.0,49.0,1.0,0.0,1.0,-1.0,-1.0
1701711347.3739529,6.0,13.0,0.0,-10.0,3.0,-8.0,-7.0,0.0
1701711347.3739529,-4.0,-17.0,4.0,8.0,8.0,8.0,4.0,-1.0
1701711347.3739529,-5.0,-7.0,-64.0,-14.0,-21.0,-1.0,3.0,-2.0
1701711347.3843138,-3.0,17.0,32.0,-22.0,-4.0,-6.0,-2.0,-2.0
1701711347.3843138,-6.0,-18.0,0.0,-11.0,-6.0,-3.0,-3.0,-4.0
1701711347.3843138,6.0,29.0,35.0,9.0,0.0,-2.0,-3.0,-2.0
1701711347.3843138,0.0,9.0,-8.0,-7.0,5.0,-1.0,-5.0,-3.0
1701711347.4139156,-5.0,-10.0,-40.0,21.0,-1.0,-2.0,-3.0,-2.0
1701711347.4139156,1.0,5.0,-6.0,10.0,4.0,3.0,-3.0,0.0
1701711347.4139156,-6.0,-13.0,-66.0,0.0,-9.0,-5.0,1.0,-2.0
1701711347.4139156,-3.0,-16.0,-43.0,-5.0,15.0,0.0,0.0,-2.0
1701711347.4242706,2.0,-5.0,-29.0,1.0,-9.0,-5.0,-4.0,-4.0
1701711347.4242706,-2.0,-1.0,6.0,-9.0,-12.0,-2.0,0.0,-2.0
1701711347.4343534,-4.0,-11.0,21.0,11.0,2.0,0.0,-2.0,-1.0
1701711347.4343534,3.0,26.0,74.0,-8.0,-9.0,-4.0,-5.0,-1.0
1701711347.4443681,-7.0,-30.0,-17.0,10.0,1.0,2.0,0.0,-1.0
1701711347.4443681,-2.0,24.0,-3.0,-19.0,11.0,-1.0,-1.0,-3.0
1701711347.4443681,2.0,10.0,0.0,-2.0,10.0,1.0,2.0,4.0
1701711347.4443681,-3.0,-4.0,40.0,-3.0,-2.0,-1.0,1.0,-1.0
1701711347.4739165,-3.0,-6.0,31.0,-20.0,-9.0,-5.0,-5.0,-3.0
1701711347.4739165,1.0,3.0,14.0,-9.0,-33.0,-5.0,-2.0,-1.0
1701711347.4739165,-2.0,2.0,45.0,14.0,28.0,2.0,0.0,-1.0
1701711347.4739165,-3.0,1.0,-12.0,-8.0,-30.0,-6.0,-4.0,-2.0
1701711347.4841247,-6.0,-17.0,-10.0,29.0,15.0,5.0,-1.0,0.0
1701711347.4841247,0.0,-18.0,-26.0,-42.0,5.0,-1.0,-1.0,0.0
1701711347.4941719,0.0,-7.0,-21.0,-6.0,-12.0,-1.0,-2.0,-1.0
1701711347.4941719,4.0,5.0,26.0,10.0,7.0,-2.0,-1.0,1.0
1701711347.5041614,1.0,-6.0,42.0,-4.0,-3.0,4.0,5.0,3.0
1701711347.5041614,-3.0,-12.0,20.0,9.0,3.0,-8.0,-6.0,-1.0
1701711347.5041614,2.0,4.0,1.0,-16.0,-14.0,2.0,3.0,0.0
1701711347.5041614,2.0,16.0,-41.0,-3.0,16.0,-2.0,-7.0,0.0
1701711347.5439184,-12.0,-32.0,-5.0,4.0,1.0,-2.0,-3.0,-6.0
1701711347.5439184,7.0,1.0,-26.0,10.0,11.0,8.0,12.0,9.0
1701711347.5439184,-2.0,6.0,-4.0,5.0,-1.0,-1.0,1.0,-1.0
1701711347.5439184,-7.0,-21.0,1.0,1.0,-7.0,-4.0,-6.0,-3.0
1701711347.5541368,-3.0,-5.0,9.0,-16.0,-10.0,-2.0,-5.0,-5.0
1701711347.5541368,-3.0,-9.0,-12.0,11.0,12.0,0.0,-5.0,-3.0
1701711347.5541368,1.0,6.0,-5.0,0.0,-16.0,-2.0,3.0,1.0
1701711347.5541368,-1.0,-1.0,24.0,-4.0,-2.0,1.0,0.0,-2.0
1701711347.5642347,-5.0,-5.0,-35.0,-10.0,4.0,-2.0,-7.0,-3.0
1701711347.5642347,5.0,12.0,39.0,31.0,20.0,10.0,7.0,-1.0
1701711347.5642347,-8.0,-18.0,19.0,-6.0,2.0,-4.0,0.0,-1.0
1701711347.5642347,1.0,-4.0,-10.0,3.0,9.0,-3.0,-2.0,0.0
1701711347.6039186,6.0,23.0,28.0,5.0,1.0,4.0,3.0,4.0
1701711347.6039186,-4.0,6.0,21.0,-9.0,-16.0,-7.0,-3.0,-3.0
1701711347.6039186,1.0,-24.0,-47.0,-13.0,14.0,2.0,-2.0,-1.0
1701711347.6039186,-3.0,15.0,32.0,-7.0,-4.0,-3.0,-2.0,-4.0
1701711347.6149654,1.0,9.0,-3.0,9.0,5.0,-2.0,0.0,-1.0
1701711347.6149654,-8.0,-20.0,9.0,-3.0,-13.0,-4.0,-1.0,-3.0
1701711347.6149654,1.0,7.0,-10.0,-15.0,-12.0,-3.0,-1.0,0.0
1701711347.6149654,-5.0,-11.0,-12.0,-3.0,8.0,2.0,-6.0,-4.0
1701711347.6293645,2.0,8.0,10.0,-1.0,2.0,2.0,0.0,-2.0
1701711347.6293645,1.0,3.0,-21.0,3.0,-12.0,-1.0,10.0,6.0
1701711347.6293645,-5.0,-24.0,0.0,-1.0,14.0,-5.0,-4.0,-3.0
1701711347.6293645,0.0,-14.0,-3.0,-1.0,-24.0,-1.0,4.0,1.0
1701711347.6482613,2.0,12.0,16.0,-1.0,12.0,-2.0,-4.0,0.0
1701711347.6482613,-5.0,-10.0,-5.0,1.0,-14.0,-3.0,-7.0,-8.0
1701711347.6482613,4.0,21.0,16.0,7.0,11.0,4.0,1.0,0.0
1701711347.6482613,0.0,6.0,-20.0,-6.0,2.0,-1.0,-1.0,-1.0
1701711347.6680627,-1.0,1.0,-18.0,1.0,-3.0,-3.0,-1.0,-1.0
1701711347.6680627,0.0,-1.0,40.0,-2.0,-10.0,0.0,-3.0,0.0
1701711347.6680627,-3.0,-5.0,2.0,-13.0,-32.0,-14.0,-4.0,-2.0
1701711347.6680627,-1.0,8.0,13.0,18.0,20.0,11.0,0.0,0.0
1701711347.6883466,1.0,-3.0,-21.0,-3.0,-17.0,-1.0,2.0,0.0
1701711347.6883466,-3.0,1.0,3.0,-3.0,11.0,-1.0,-4.0,-2.0
1701711347.6883466,-2.0,8.0,30.0,-5.0,-2.0,-3.0,-6.0,-5.0
1701711347.6883466,-1.0,-8.0,-20.0,1.0,-22.0,-10.0,2.0,-2.0
1701711347.7080224,-1.0,-1.0,-9.0,-4.0,0.0,6.0,-2.0,-2.0
1701711347.7080224,1.0,5.0,8.0,16.0,23.0,8.0,5.0,2.0
1701711347.7080224,-2.0,15.0,-12.0,-13.0,-15.0,-10.0,-11.0,-5.0
1701711347.7080224,0.0,-16.0,-13.0,2.0,11.0,4.0,3.0,0.0
1701711347.7280672,1.0,11.0,8.0,2.0,4.0,-1.0,9.0,3.0
1701711347.7280672,4.0,5.0,-27.0,4.0,-2.0,-5.0,-1.0,2.0
1701711347.7280672,-4.0,-7.0,1.0,-5.0,-5.0,0.0,-4.0,-1.0
1701711347.7280672,-1.0,-4.0,10.0,-5.0,2.0,-2.0,-5.0,-3.0
1701711347.7480736,-2.0,0.0,-5.0,2.0,-4.0,1.0,-5.0,-3.0
1701711347.7480736,-2.0,3.0,-12.0,-4.0,-2.0,2.0,0.0,-1.0
1701711347.7480736,0.0,-8.0,6.0,7.0,8.0,1.0,3.0,1.0
1701711347.7480736,-6.0,-13.0,-13.0,-6.0,-3.0,-1.0,-4.0,-4.0
1701711347.768023,3.0,12.0,80.0,-3.0,-8.0,-3.0,0.0,-1.0
1701711347.768023,-2.0,-18.0,-9.0,-5.0,-4.0,-2.0,-1.0,-1.0
1701711347.768023,6.0,16.0,18.0,26.0,23.0,9.0,6.0,4.0
1701711347.768023,-3.0,2.0,42.0,-6.0,-7.0,-5.0,2.0,13.0
1701711347.788023,1.0,-7.0,-62.0,-15.0,-20.0,-12.0,-11.0,-13.0
1701711347.788023,-13.0,-13.0,-8.0,-23.0,8.0,7.0,2.0,-20.0
1701711347.788023,2.0,-14.0,-30.0,-10.0,-1.0,0.0,-1.0,11.0
1701711347.788023,-1.0,-1.0,-13.0,6.0,5.0,-1.0,-4.0,1.0
1701711347.808067,4.0,12.0,-10.0,1.0,-3.0,8.0,12.0,8.0
1701711347.808067,0.0,8.0,-27.0,12.0,-4.0,-8.0,-9.0,1.0
1701711347.808067,-2.0,9.0,7.0,-1.0,-7.0,0.0,-2.0,-4.0
1701711347.808067,1.0,16.0,-9.0,-2.0,0.0,-3.0,2.0,-3.0
1701711347.8280232,-6.0,-8.0,-21.0,-8.0,1.0,0.0,-2.0,0.0
1701711347.8280232,-1.0,-2.0,9.0,8.0,-3.0,-3.0,-2.0,-6.0
1701711347.8280232,-1.0,-7.0,-10.0,-2.0,-4.0,-1.0,-3.0,-4.0
1701711347.8280232,2.0,-7.0,-1.0,7.0,3.0,3.0,4.0,0.0
1701711347.848021,-5.0,-20.0,-45.0,3.0,2.0,-5.0,-6.0,-6.0
1701711347.848021,5.0,11.0,28.0,1.0,1.0,2.0,-1.0,6.0
1701711347.848021,-2.0,3.0,-15.0,-16.0,-10.0,-4.0,0.0,-2.0
1701711347.848021,6.0,26.0,32.0,7.0,2.0,1.0,-1.0,-2.0
1701711347.8680215,-7.0,-22.0,6.0,12.0,2.0,1.0,1.0,1.0
1701711347.8680215,-1.0,10.0,-12.0,-13.0,-1.0,-6.0,-2.0,0.0
1701711347.8680215,-4.0,-7.0,-3.0,-3.0,-1.0,-2.0,2.0,-4.0
1701711347.8680215,-1.0,-1.0,-26.0,-4.0,1.0,4.0,2.0,-4.0
1701711347.8880658,-4.0,-8.0,15.0,-12.0,-4.0,-7.0,-2.0,-1.0
1701711347.8880658,1.0,5.0,10.0,1.0,-4.0,-1.0,-4.0,1.0
1701711347.8880658,-4.0,-7.0,1.0,6.0,4.0,5.0,3.0,-5.0
1701711347.8880658,-2.0,2.0,-6.0,-9.0,-6.0,-3.0,-2.0,-1.0
1701711347.9081047,6.0,5.0,1.0,6.0,-3.0,-17.0,-8.0,-2.0
1701711347.9081047,-7.0,-5.0,29.0,19.0,1.0,11.0,2.0,2.0
1701711347.9081047,-3.0,-2.0,4.0,-15.0,0.0,-2.0,-2.0,-3.0
1701711347.9081047,-1.0,-2.0,5.0,3.0,-2.0,-6.0,-8.0,-1.0
1701711347.938116,-1.0,-1.0,-10.0,-5.0,1.0,12.0,5.0,3.0
1701711347.938116,-3.0,-4.0,-6.0,3.0,-5.0,-6.0,-2.0,-2.0
1701711347.938116,2.0,-3.0,6.0,7.0,1.0,3.0,8.0,20.0
1701711347.938116,-7.0,-3.0,-16.0,-15.0,-9.0,-24.0,-15.0,-38.0
1701711347.9481595,0.0,-1.0,-27.0,-1.0,7.0,12.0,2.0,-11.0
1701711347.9481595,-2.0,-5.0,15.0,-7.0,-13.0,-33.0,-1.0,12.0
1701711347.9481595,0.0,4.0,11.0,11.0,7.0,27.0,-17.0,-1.0
1701711347.9481595,2.0,-1.0,-16.0,0.0,2.0,8.0,4.0,9.0
1701711347.9681518,0.0,3.0,2.0,1.0,3.0,2.0,6.0,4.0
1701711347.9681518,3.0,7.0,-31.0,-7.0,2.0,7.0,14.0,-8.0
1701711347.9681518,-7.0,-14.0,-24.0,-1.0,-8.0,-20.0,-4.0,-4.0
1701711347.9681518,0.0,-8.0,-6.0,16.0,-2.0,-2.0,-3.0,7.0
1701711347.9881155,-2.0,2.0,-32.0,-11.0,1.0,10.0,0.0,-9.0
1701711347.9881155,1.0,0.0,-21.0,-5.0,-5.0,-12.0,-11.0,-1.0
1701711347.9881155,1.0,0.0,4.0,5.0,1.0,2.0,11.0,-1.0
1701711347.9881155,-2.0,-3.0,-29.0,12.0,4.0,7.0,1.0,-2.0
1701711348.0081735,-2.0,2.0,-19.0,-26.0,-8.0,-6.0,0.0,3.0
1701711348.0081735,0.0,-2.0,-1.0,-3.0,-1.0,1.0,-1.0,-3.0
1701711348.0081735,0.0,-1.0,40.0,3.0,1.0,-6.0,-4.0,-1.0
1701711348.0081735,-1.0,-1.0,39.0,0.0,2.0,7.0,5.0,-3.0
1701711348.0282612,0.0,2.0,25.0,6.0,-3.0,-9.0,-6.0,4.0
1701711348.0282612,-1.0,0.0,15.0,-6.0,1.0,6.0,1.0,-3.0
1701711348.0282612,-5.0,2.0,11.0,16.0,3.0,0.0,6.0,-5.0
1701711348.0282612,-4.0,-9.0,8.0,-32.0,-8.0,-11.0,-4.0,26.0
1701711348.0481153,-2.0,-1.0,4.0,-1.0,-1.0,-4.0,-6.0,-30.0
1701711348.0481153,-1.0,0.0,5.0,-9.0,-2.0,7.0,2.0,-2.0
1701711348.058383,-3.0,4.0,17.0,5.0,-2.0,-6.0,-2.0,-12.0
1701711348.058383,3.0,5.0,17.0,11.0,1.0,-3.0,-2.0,12.0
1701711348.0683563,-1.0,-9.0,11.0,-21.0,-5.0,-8.0,-12.0,7.0
1701711348.0683563,1.0,3.0,19.0,14.0,4.0,5.0,-1.0,-2.0
1701711348.0683563,-3.0,-6.0,-28.0,-43.0,-7.0,-3.0,-2.0,-6.0
1701711348.0683563,-2.0,0.0,-8.0,15.0,-1.0,3.0,5.0,-12.0
1701711348.0981178,-3.0,-3.0,-7.0,-15.0,-3.0,-9.0,-20.0,-3.0
1701711348.0981178,-2.0,-3.0,3.0,9.0,4.0,9.0,15.0,3.0
1701711348.0981178,2.0,3.0,1.0,-2.0,2.0,-6.0,-4.0,2.0
1701711348.0981178,-2.0,-2.0,14.0,14.0,4.0,8.0,4.0,-6.0
1701711348.1081452,-6.0,1.0,24.0,-2.0,2.0,-4.0,4.0,7.0
1701711348.1081452,0.0,0.0,10.0,2.0,2.0,3.0,-4.0,-4.0
1701711348.1081452,-2.0,-2.0,-14.0,12.0,-3.0,-7.0,-4.0,0.0
1701711348.1081452,1.0,0.0,-6.0,-13.0,-3.0,5.0,8.0,1.0
1701711348.1288521,0.0,1.0,43.0,25.0,3.0,1.0,5.0,-12.0
1701711348.1288521,1.0,-3.0,11.0,-2.0,-5.0,-4.0,-10.0,4.0
1701711348.1288521,0.0,1.0,0.0,0.0,1.0,-5.0,-3.0,-2.0
1701711348.1288521,0.0,-2.0,-20.0,2.0,0.0,-1.0,-7.0,-7.0
1701711348.1576536,-2.0,-2.0,-44.0,-24.0,-4.0,-2.0,6.0,12.0
1701711348.1576536,-9.0,-3.0,-31.0,-1.0,-3.0,-8.0,-3.0,-19.0
1701711348.1576536,6.0,2.0,-13.0,2.0,-1.0,-5.0,-7.0,21.0
1701711348.1576536,8.0,1.0,-24.0,-2.0,0.0,4.0,6.0,5.0
1701711348.1690133,-6.0,0.0,-4.0,17.0,2.0,1.0,5.0,13.0
1701711348.1690133,1.0,-3.0,-4.0,-3.0,-1.0,2.0,0.0,-9.0
1701711348.1690133,-2.0,-2.0,-18.0,-1.0,0.0,-4.0,-6.0,-5.0
1701711348.1690133,-6.0,-2.0,-9.0,-19.0,-4.0,-9.0,-5.0,-30.0
1701711348.189321,3.0,4.0,7.0,10.0,-1.0,7.0,5.0,32.0
1701711348.189321,0.0,0.0,10.0,0.0,-4.0,-7.0,-6.0,-1.0
1701711348.189321,-3.0,-4.0,-32.0,-13.0,-3.0,4.0,8.0,22.0
1701711348.189321,-2.0,-2.0,-2.0,-1.0,-5.0,-6.0,-7.0,-22.0
1701711348.2090127,0.0,0.0,-1.0,2.0,-2.0,-6.0,-3.0,-14.0
1701711348.2090127,2.0,0.0,-2.0,16.0,5.0,2.0,0.0,5.0
1701711348.2090127,3.0,5.0,10.0,2.0,-1.0,-3.0,1.0,6.0
1701711348.2090127,-4.0,-6.0,0.0,-10.0,-2.0,4.0,1.0,2.0
1701711348.2290623,1.0,0.0,0.0,17.0,0.0,-3.0,-2.0,-6.0
1701711348.2290623,-3.0,-2.0,-10.0,-17.0,1.0,0.0,-1.0,4.0
1701711348.2290623,2.0,1.0,7.0,12.0,0.0,9.0,5.0,-14.0
1701711348.2290623,-3.0,-2.0,1.0,-1.0,-4.0,-13.0,-7.0,2.0
1701711348.249288,4.0,3.0,6.0,1.0,-1.0,2.0,-3.0,-5.0
1701711348.249288,-5.0,-2.0,-9.0,-1.0,-1.0,-1.0,-1.0,-11.0
1701711348.249288,8.0,0.0,9.0,13.0,5.0,7.0,7.0,13.0
1701711348.249288,-2.0,-2.0,7.0,-14.0,-8.0,-4.0,-4.0,9.0
1701711348.289023,3.0,-1.0,-2.0,11.0,1.0,3.0,2.0,-7.0
1701711348.289023,-3.0,-3.0,6.0,-6.0,-2.0,-4.0,-8.0,-9.0
1701711348.289023,-6.0,0.0,-25.0,-18.0,-1.0,5.0,2.0,-4.0
1701711348.289023,-2.0,-6.0,-10.0,5.0,-4.0,-4.0,-6.0,-12.0
1701711348.289023,-3.0,-2.0,9.0,3.0,0.0,-4.0,-3.0,-2.0
1701711348.289023,2.0,2.0,-5.0,-5.0,-1.0,1.0,0.0,6.0
1701711348.289023,-6.0,-5.0,0.0,3.0,-2.0,-4.0,-3.0,-17.0
1701711348.289023,0.0,4.0,5.0,14.0,7.0,11.0,6.0,19.0
1701711348.319347,4.0,-4.0,-37.0,-34.0,-3.0,-1.0,-2.0,-5.0
1701711348.319347,-5.0,-3.0,-32.0,-10.0,-8.0,-12.0,-4.0,0.0
1701711348.319347,-1.0,-3.0,10.0,2.0,0.0,-3.0,-5.0,3.0
1701711348.319347,-3.0,-2.0,-5.0,-5.0,-1.0,-3.0,2.0,-1.0
1701711348.3293817,-1.0,2.0,6.0,10.0,0.0,2.0,2.0,-2.0
1701711348.3293817,5.0,2.0,9.0,22.0,3.0,0.0,1.0,9.0
1701711348.3293817,-1.0,-1.0,-9.0,-31.0,-1.0,-2.0,-1.0,-5.0
1701711348.3293817,-4.0,-4.0,14.0,2.0,-4.0,-5.0,-2.0,-5.0
1701711348.339679,-4.0,-1.0,-14.0,3.0,3.0,8.0,1.0,-16.0
1701711348.339679,6.0,1.0,-5.0,-1.0,0.0,-2.0,-2.0,29.0
1701711348.349349,-5.0,-2.0,20.0,23.0,-1.0,0.0,1.0,2.0
1701711348.349349,5.0,1.0,2.0,-11.0,0.0,3.0,2.0,-14.0
1701711348.3693466,-3.0,-4.0,-20.0,-5.0,-1.0,-5.0,-3.0,16.0
1701711348.3693466,2.0,-2.0,1.0,-2.0,-1.0,4.0,1.0,-7.0
1701711348.3693466,-3.0,-5.0,-3.0,0.0,-4.0,-4.0,-2.0,-5.0
1701711348.3693466,5.0,2.0,-5.0,7.0,6.0,2.0,4.0,20.0
1701711348.3897278,-4.0,-1.0,-5.0,0.0,-5.0,-8.0,-5.0,-12.0
1701711348.3897278,0.0,1.0,-13.0,-12.0,1.0,-1.0,1.0,-1.0
1701711348.3897278,3.0,-2.0,7.0,20.0,2.0,0.0,-4.0,-1.0
1701711348.3897278,-2.0,-2.0,0.0,-31.0,-4.0,3.0,0.0,-1.0
1701711348.3996825,0.0,-1.0,3.0,9.0,1.0,-9.0,-3.0,-4.0
1701711348.4093528,-3.0,-2.0,-7.0,-32.0,-4.0,0.0,-1.0,-2.0
1701711348.4093528,0.0,2.0,18.0,10.0,-2.0,0.0,-1.0,-8.0
1701711348.4093528,-1.0,0.0,-8.0,3.0,0.0,2.0,-4.0,-1.0
1701711348.4393451,2.0,0.0,10.0,16.0,3.0,7.0,6.0,9.0
1701711348.4393451,-2.0,-4.0,-3.0,1.0,-1.0,-3.0,-4.0,-1.0
1701711348.4393451,-6.0,-4.0,-22.0,-19.0,-7.0,-12.0,-4.0,-14.0
1701711348.4393451,0.0,0.0,3.0,-14.0,-1.0,-3.0,-1.0,2.0
1701711348.449569,1.0,-2.0,-3.0,-7.0,-4.0,3.0,2.0,8.0
1701711348.449569,-3.0,-1.0,18.0,11.0,3.0,-3.0,-9.0,-9.0
1701711348.449569,0.0,2.0,-8.0,-1.0,0.0,9.0,7.0,1.0
1701711348.449569,-10.0,-4.0,-19.0,8.0,-3.0,-7.0,-6.0,-3.0
1701711348.4693518,8.0,5.0,18.0,9.0,3.0,11.0,10.0,24.0
1701711348.4693518,-7.0,-4.0,-6.0,-10.0,1.0,0.0,-1.0,-24.0
1701711348.4993448,-1.0,1.0,8.0,1.0,-3.0,-3.0,-3.0,-1.0
1701711348.4993448,2.0,0.0,2.0,13.0,1.0,-1.0,0.0,2.0
1701711348.4993448,-2.0,1.0,12.0,-13.0,-3.0,-2.0,-4.0,-4.0
1701711348.4993448,-2.0,-3.0,5.0,15.0,-1.0,2.0,2.0,4.0
1701711348.4993448,-1.0,-2.0,6.0,-2.0,0.0,3.0,0.0,-2.0
1701711348.4993448,-1.0,-1.0,-5.0,8.0,3.0,1.0,0.0,-3.0
1701711348.5095713,-4.0,-2.0,4.0,-11.0,-3.0,-4.0,-5.0,-7.0
1701711348.5095713,3.0,0.0,1.0,-21.0,-5.0,1.0,1.0,7.0
1701711348.5095713,-1.0,-2.0,-12.0,-6.0,-1.0,-1.0,-6.0,-9.0
1701711348.5095713,3.0,0.0,1.0,5.0,2.0,0.0,-1.0,3.0
1701711348.5493493,-3.0,-4.0,-1.0,11.0,-2.0,-10.0,-4.0,-5.0
1701711348.5493493,-2.0,1.0,2.0,6.0,-1.0,2.0,-1.0,-1.0
1701711348.5493493,0.0,0.0,20.0,3.0,1.0,2.0,2.0,2.0
1701711348.5493493,0.0,-1.0,-24.0,-17.0,-2.0,3.0,1.0,1.0
1701711348.5493493,0.0,-2.0,-8.0,17.0,0.0,-4.0,-4.0,-5.0
1701711348.5493493,-3.0,0.0,18.0,-15.0,2.0,0.0,0.0,-2.0
1701711348.5493493,3.0,-2.0,-6.0,-27.0,-9.0,-7.0,2.0,22.0
1701711348.5493493,0.0,3.0,34.0,13.0,0.0,1.0,-1.0,-28.0
1701711348.56974,3.0,2.0,5.0,2.0,4.0,3.0,3.0,13.0
1701711348.56974,-2.0,-4.0,-20.0,10.0,-6.0,-11.0,-6.0,-5.0
1701711348.56974,0.0,3.0,8.0,10.0,5.0,1.0,-1.0,1.0
1701711348.56974,-3.0,-5.0,-32.0,-14.0,-4.0,-4.0,-2.0,-1.0
1701711348.5993462,-3.0,-1.0,2.0,-7.0,2.0,4.0,-1.0,-5.0
1701711348.5993462,4.0,4.0,16.0,36.0,8.0,11.0,5.0,6.0
1701711348.5993462,-6.0,-10.0,-52.0,-58.0,-10.0,-5.0,-4.0,-11.0
1701711348.5993462,0.0,1.0,28.0,10.0,0.0,1.0,-1.0,4.0
1701711348.6093454,-6.0,-2.0,5.0,-5.0,-7.0,-7.0,-6.0,-10.0
1701711348.6093454,2.0,2.0,-15.0,-19.0,-2.0,3.0,2.0,5.0
1701711348.6093454,-3.0,0.0,-6.0,26.0,1.0,0.0,-3.0,-10.0
1701711348.6093454,-2.0,0.0,-6.0,-7.0,1.0,3.0,2.0,5.0
1701711348.6297615,0.0,-5.0,-1.0,-4.0,3.0,6.0,2.0,3.0
1701711348.6297615,-4.0,-2.0,6.0,-4.0,-5.0,-12.0,-5.0,-4.0
1701711348.6297615,2.0,3.0,4.0,15.0,4.0,-1.0,-4.0,-3.0
1701711348.6297615,-3.0,-4.0,22.0,10.0,-6.0,0.0,-1.0,4.0
1701711348.6593463,-2.0,-3.0,-31.0,-16.0,-7.0,-3.0,-1.0,-7.0
1701711348.6593463,6.0,0.0,14.0,-10.0,0.0,4.0,2.0,6.0
1701711348.6593463,-3.0,-2.0,16.0,14.0,2.0,0.0,-3.0,-6.0
1701711348.6593463,1.0,-3.0,-17.0,-10.0,-2.0,-4.0,-2.0,5.0
1701711348.6718564,-3.0,-2.0,13.0,5.0,-3.0,-3.0,-2.0,-5.0
1701711348.6718564,-1.0,-1.0,21.0,1.0,0.0,5.0,0.0,-3.0
1701711348.6718564,0.0,-3.0,4.0,6.0,0.0,7.0,1.0,0.0
1701711348.6718564,-1.0,0.0,-16.0,-4.0,-5.0,-8.0,-3.0,-3.0
1701711348.6944823,1.0,2.0,-13.0,4.0,2.0,1.0,-1.0,1.0
1701711348.6944823,-3.0,-2.0,-13.0,-5.0,-2.0,-3.0,-1.0,-1.0
1701711348.6954253,3.0,9.0,13.0,7.0,6.0,8.0,5.0,0.0
1701711348.6954253,-3.0,-6.0,-44.0,8.0,0.0,-9.0,-4.0,0.0
1701711348.7120214,-3.0,-1.0,-8.0,-46.0,-7.0,-3.0,-1.0,-2.0
1701711348.7120214,1.0,3.0,-35.0,16.0,4.0,4.0,0.0,0.0
1701711348.7120214,-3.0,-3.0,10.0,0.0,-1.0,-3.0,-3.0,-3.0
1701711348.7120214,0.0,-1.0,25.0,4.0,0.0,1.0,-2.0,-2.0
1701711348.7220132,-3.0,-1.0,-25.0,4.0,-5.0,-9.0,-2.0,-1.0
1701711348.7220132,1.0,1.0,5.0,11.0,2.0,1.0,1.0,0.0
1701711348.7319734,-3.0,-5.0,-20.0,-38.0,-14.0,-9.0,-3.0,-1.0
1701711348.7319734,2.0,1.0,-6.0,-3.0,2.0,4.0,4.0,4.0
1701711348.7520156,0.0,-1.0,6.0,11.0,5.0,2.0,-2.0,-4.0
1701711348.7520156,-6.0,-9.0,-17.0,-8.0,-7.0,-15.0,-4.0,-5.0
1701711348.7520156,-2.0,0.0,3.0,6.0,-6.0,-4.0,-3.0,-3.0
1701711348.7520156,0.0,-2.0,0.0,-7.0,2.0,4.0,-1.0,3.0
1701711348.7720163,0.0,0.0,18.0,0.0,-3.0,1.0,0.0,0.0
1701711348.7720163,-1.0,-3.0,-17.0,-6.0,-3.0,-5.0,-3.0,-3.0
1701711348.7720163,1.0,-1.0,4.0,8.0,4.0,1.0,-2.0,0.0
1701711348.7720163,1.0,5.0,20.0,-1.0,-1.0,-3.0,0.0,0.0
1701711348.78201,-3.0,-5.0,-39.0,0.0,0.0,1.0,-2.0,-2.0
1701711348.78201,-1.0,0.0,-14.0,-3.0,0.0,0.0,-3.0,0.0
1701711348.7919724,0.0,1.0,18.0,6.0,0.0,1.0,1.0,1.0
1701711348.7919724,-3.0,-1.0,2.0,-2.0,1.0,-1.0,-2.0,0.0
1701711348.8120115,-1.0,0.0,9.0,11.0,3.0,-1.0,1.0,-1.0
1701711348.8120115,-1.0,1.0,14.0,2.0,-1.0,1.0,1.0,-1.0
1701711348.8120115,1.0,1.0,-27.0,2.0,2.0,-5.0,-2.0,-3.0
1701711348.8120115,-3.0,-6.0,-21.0,-9.0,-2.0,1.0,1.0,0.0
1701711348.832007,-1.0,2.0,35.0,12.0,0.0,-1.0,-1.0,-14.0
1701711348.832007,-10.0,-22.0,-11.0,-21.0,-10.0,-9.0,-4.0,42.0
1701711348.832007,-3.0,-4.0,4.0,6.0,3.0,9.0,2.0,-36.0
1701711348.832007,-2.0,-2.0,3.0,3.0,2.0,-4.0,-4.0,-4.0
1701711348.842012,1.0,7.0,-22.0,-3.0,3.0,0.0,-2.0,-1.0
1701711348.842012,-6.0,-1.0,10.0,-8.0,-10.0,-4.0,-6.0,-21.0
1701711348.851973,-12.0,-11.0,4.0,-17.0,-5.0,-6.0,3.0,22.0
1701711348.851973,3.0,-2.0,10.0,5.0,-2.0,0.0,-1.0,3.0
1701711348.8720071,3.0,-2.0,-5.0,-1.0,-1.0,-8.0,9.0,-7.0
1701711348.8720071,1.0,12.0,-5.0,14.0,-1.0,-20.0,-20.0,-9.0
1701711348.8720071,7.0,8.0,21.0,-6.0,11.0,42.0,20.0,13.0
1701711348.8720071,-1.0,6.0,0.0,-5.0,-3.0,0.0,1.0,-14.0
1701711348.8920438,-1.0,-5.0,11.0,-3.0,-1.0,2.0,-3.0,14.0
1701711348.8920438,-4.0,-6.0,-8.0,5.0,-5.0,-8.0,6.0,-15.0
1701711348.8920438,-5.0,-6.0,-7.0,-6.0,-8.0,-22.0,-12.0,-14.0
1701711348.8920438,-4.0,-1.0,9.0,-3.0,-1.0,3.0,-3.0,-12.0
1701711348.9020123,9.0,5.0,-6.0,-1.0,1.0,0.0,3.0,27.0
1701711348.9020123,1.0,1.0,-11.0,8.0,4.0,8.0,3.0,-4.0
1701711348.9119732,-2.0,-3.0,8.0,-4.0,-1.0,-10.0,-5.0,7.0
1701711348.9119732,2.0,-2.0,3.0,-3.0,-1.0,0.0,4.0,6.0
1701711348.9320185,-8.0,-5.0,-1.0,-7.0,-6.0,-8.0,-9.0,-16.0
1701711348.9320185,3.0,0.0,8.0,2.0,3.0,9.0,3.0,4.0
1701711348.9320185,3.0,-2.0,-4.0,6.0,-1.0,-5.0,-4.0,6.0
1701711348.9320185,-4.0,-1.0,10.0,3.0,-3.0,-6.0,0.0,-4.0
1701711348.9520056,-2.0,-6.0,17.0,2.0,0.0,2.0,-2.0,-2.0
1701711348.9520056,1.0,-1.0,-8.0,-26.0,3.0,7.0,3.0,3.0
1701711348.9520056,-2.0,0.0,-25.0,0.0,-2.0,-7.0,-4.0,-10.0
1701711348.9520056,-1.0,0.0,-1.0,-4.0,-3.0,0.0,-2.0,6.0
1701711348.9620109,-3.0,-3.0,-5.0,2.0,-3.0,-1.0,-5.0,0.0
1701711348.9620109,0.0,0.0,10.0,-2.0,-2.0,5.0,2.0,-1.0
1701711348.972011,-1.0,-5.0,0.0,6.0,0.0,-12.0,-7.0,-10.0
1701711348.972011,1.0,-6.0,-1.0,1.0,1.0,2.0,-1.0,3.0
1701711348.991973,0.0,-1.0,13.0,4.0,5.0,8.0,1.0,2.0
1701711348.991973,-1.0,-1.0,4.0,2.0,0.0,-4.0,-2.0,-5.0
1701711348.991973,3.0,1.0,-16.0,-6.0,-2.0,1.0,-2.0,0.0
1701711348.991973,-8.0,0.0,21.0,8.0,3.0,0.0,-5.0,5.0
1701711349.0120928,-2.0,-1.0,3.0,1.0,3.0,8.0,1.0,-4.0
1701711349.0120928,-4.0,-4.0,-8.0,14.0,-7.0,-17.0,-9.0,-8.0
1701711349.0120928,-1.0,4.0,10.0,-9.0,1.0,-4.0,-3.0,5.0
1701711349.0120928,2.0,1.0,0.0,-4.0,4.0,7.0,1.0,1.0
1701711349.0220861,-4.0,-3.0,-6.0,2.0,-5.0,-8.0,-4.0,-5.0
1701711349.0220861,0.0,1.0,13.0,2.0,2.0,-5.0,-1.0,-1.0
1701711349.0320768,1.0,-3.0,-28.0,-5.0,-5.0,2.0,2.0,3.0
1701711349.0320768,-1.0,0.0,-13.0,0.0,1.0,-3.0,-4.0,-4.0
1701711349.0620177,0.0,-1.0,-22.0,-1.0,3.0,-1.0,-3.0,0.0
1701711349.0620177,0.0,3.0,35.0,7.0,2.0,7.0,1.0,0.0
1701711349.0620177,-4.0,-6.0,-2.0,3.0,-9.0,-14.0,-7.0,-6.0
1701711349.0620177,2.0,0.0,0.0,-3.0,5.0,1.0,0.0,2.0
1701711349.0720768,-1.0,0.0,-8.0,-5.0,-8.0,3.0,7.0,1.0
1701711349.0720768,2.0,0.0,-17.0,7.0,4.0,3.0,-1.0,-1.0
1701711349.0720768,-2.0,-4.0,-8.0,-25.0,-1.0,-7.0,-3.0,0.0
1701711349.0720768,-1.0,-3.0,-9.0,-3.0,-5.0,-4.0,-1.0,-1.0
1701711349.1121094,-3.0,-1.0,-1.0,-1.0,-2.0,5.0,0.0,-2.0
1701711349.1121094,0.0,1.0,-12.0,-5.0,-1.0,4.0,5.0,-1.0
1701711349.1121094,-4.0,1.0,3.0,9.0,3.0,9.0,1.0,0.0
1701711349.1121094,1.0,-3.0,-11.0,0.0,-9.0,-11.0,-2.0,-2.0
1701711349.1121094,-3.0,-3.0,-1.0,3.0,2.0,-13.0,-7.0,-7.0
1701711349.1121094,0.0,-2.0,-4.0,-23.0,1.0,13.0,5.0,0.0
1701711349.1121094,0.0,0.0,3.0,8.0,5.0,4.0,-2.0,-1.0
1701711349.1121094,-2.0,-1.0,0.0,-3.0,-5.0,-5.0,-5.0,-1.0
1701711349.1322021,-2.0,0.0,-7.0,-2.0,0.0,3.0,-3.0,-1.0
1701711349.1322021,-2.0,-2.0,-12.0,10.0,4.0,-3.0,-4.0,-1.0
1701711349.1322021,0.0,1.0,22.0,4.0,-3.0,-4.0,0.0,0.0
1701711349.1322021,-1.0,0.0,-7.0,-7.0,-5.0,-9.0,-3.0,-2.0
1701711349.1521125,-3.0,-2.0,6.0,8.0,-4.0,-6.0,-2.0,-2.0
1701711349.1521125,-2.0,0.0,-11.0,-7.0,2.0,6.0,-1.0,-2.0
1701711349.1624124,1.0,1.0,1.0,4.0,-1.0,0.0,1.0,0.0
1701711349.1624124,-3.0,-3.0,-12.0,10.0,5.0,0.0,1.0,0.0
1701711349.1724846,-1.0,2.0,24.0,-14.0,-5.0,-3.0,0.0,0.0
1701711349.1724846,2.0,1.0,-1.0,-3.0,0.0,5.0,3.0,1.0
1701711349.1724846,-2.0,-4.0,-12.0,4.0,1.0,-2.0,0.0,-1.0
1701711349.1724846,0.0,-2.0,-5.0,-6.0,-4.0,-3.0,1.0,-1.0
1701711349.1967652,2.0,2.0,0.0,3.0,2.0,1.0,1.0,2.0
1701711349.1967652,1.0,0.0,4.0,4.0,1.0,-3.0,0.0,3.0
1701711349.1967652,-3.0,-5.0,9.0,-8.0,-5.0,0.0,1.0,2.0
1701711349.1967652,2.0,7.0,-8.0,8.0,3.0,5.0,1.0,0.0
1701711349.216496,1.0,-13.0,-2.0,-8.0,-5.0,-5.0,-1.0,0.0
1701711349.216496,-6.0,-3.0,20.0,-15.0,-10.0,-2.0,0.0,-4.0
1701711349.2187917,1.0,3.0,1.0,9.0,1.0,-2.0,0.0,4.0
1701711349.2187917,-6.0,-12.0,17.0,-3.0,-3.0,-1.0,-2.0,-14.0
1701711349.2290804,-2.0,5.0,-29.0,-1.0,4.0,1.0,5.0,-16.0
1701711349.2290804,-2.0,-5.0,8.0,-9.0,-4.0,-7.0,-5.0,11.0
1701711349.2290804,-2.0,7.0,12.0,14.0,1.0,-5.0,0.0,0.0
1701711349.2290804,1.0,1.0,13.0,-9.0,-1.0,11.0,5.0,7.0
1701711349.2492187,-4.0,-7.0,7.0,-5.0,-4.0,-3.0,-4.0,1.0
1701711349.2492187,-3.0,-3.0,6.0,0.0,-6.0,-13.0,-1.0,-10.0
1701711349.2492187,2.0,2.0,-11.0,5.0,5.0,8.0,10.0,5.0
1701711349.2492187,4.0,3.0,6.0,0.0,0.0,2.0,1.0,3.0
1701711349.269233,-2.0,-8.0,1.0,-6.0,-3.0,0.0,1.0,-5.0
1701711349.269233,-9.0,-7.0,-2.0,0.0,1.0,0.0,-1.0,-2.0
1701711349.2792284,1.0,-6.0,13.0,-1.0,-3.0,-5.0,-7.0,-1.0
1701711349.2792284,0.0,-1.0,-9.0,-7.0,-1.0,-4.0,-2.0,-3.0
1701711349.2894561,6.0,16.0,-4.0,13.0,7.0,0.0,-4.0,1.0
1701711349.2894561,-5.0,-13.0,24.0,-7.0,0.0,6.0,3.0,-4.0
1701711349.2894561,-12.0,-17.0,17.0,-15.0,-12.0,-8.0,-6.0,-10.0
1701711349.2894561,-3.0,1.0,-10.0,0.0,-2.0,-4.0,-8.0,-4.0
1701711349.32923,1.0,6.0,0.0,-1.0,-1.0,-2.0,0.0,7.0
1701711349.32923,9.0,16.0,-5.0,16.0,5.0,5.0,0.0,1.0
1701711349.32923,-1.0,-2.0,-4.0,-3.0,-4.0,-3.0,-3.0,-4.0
1701711349.32923,-1.0,-5.0,1.0,-1.0,-1.0,0.0,0.0,2.0
1701711349.32923,-4.0,-5.0,12.0,-5.0,-5.0,-9.0,-5.0,2.0
1701711349.32923,5.0,2.0,1.0,-1.0,0.0,4.0,1.0,1.0
1701711349.3392282,0.0,-6.0,-35.0,1.0,-1.0,2.0,-3.0,-6.0
1701711349.3392282,1.0,-2.0,-34.0,-7.0,-3.0,-7.0,-3.0,0.0
1701711349.3496764,-1.0,-4.0,-20.0,-5.0,-1.0,6.0,3.0,8.0
1701711349.3496764,1.0,11.0,-24.0,11.0,4.0,1.0,-3.0,-23.0
1701711349.3496764,-8.0,-21.0,29.0,-23.0,-9.0,-8.0,-8.0,-3.0
1701711349.3496764,0.0,-1.0,18.0,0.0,-2.0,0.0,2.0,3.0
1701711349.379229,-3.0,-6.0,18.0,0.0,-2.0,-3.0,-3.0,-6.0
1701711349.379229,3.0,6.0,21.0,5.0,-1.0,0.0,3.0,9.0
1701711349.379229,1.0,5.0,2.0,3.0,1.0,2.0,-2.0,1.0
1701711349.379229,-4.0,-1.0,8.0,2.0,0.0,-7.0,-4.0,-9.0
1701711349.389604,0.0,-6.0,14.0,-2.0,1.0,19.0,7.0,4.0
1701711349.389604,-1.0,2.0,-5.0,-7.0,-2.0,-5.0,-2.0,1.0
1701711349.3992321,3.0,5.0,-7.0,4.0,-1.0,2.0,2.0,2.0
1701711349.3992321,-2.0,-5.0,-12.0,-7.0,-1.0,0.0,0.0,-1.0
1701711349.4095955,-8.0,0.0,5.0,1.0,-2.0,-8.0,-8.0,0.0
1701711349.4095955,14.0,3.0,-7.0,2.0,2.0,-3.0,-1.0,10.0
1701711349.4095955,1.0,4.0,58.0,12.0,3.0,1.0,2.0,10.0
1701711349.4095955,-8.0,-5.0,45.0,-22.0,-5.0,-4.0,-4.0,-28.0
1701711349.4392302,0.0,3.0,18.0,-1.0,0.0,-2.0,1.0,-2.0
1701711349.4392302,-6.0,-5.0,-9.0,-4.0,-6.0,0.0,-1.0,-3.0
1701711349.4392302,3.0,5.0,29.0,-2.0,0.0,-1.0,2.0,2.0
1701711349.4392302,4.0,4.0,27.0,14.0,0.0,-1.0,1.0,9.0
1701711349.4593737,-3.0,2.0,18.0,-2.0,-2.0,-3.0,0.0,-2.0
1701711349.4593737,-6.0,-3.0,57.0,-7.0,-1.0,-3.0,-1.0,-5.0
1701711349.4593737,-3.0,-1.0,-5.0,2.0,1.0,0.0,-1.0,-3.0
1701711349.4593737,-1.0,5.0,-10.0,5.0,0.0,2.0,2.0,5.0
1701711349.469478,-2.0,-7.0,6.0,-8.0,-4.0,-3.0,-4.0,-8.0
1701711349.469478,-4.0,-4.0,-27.0,2.0,-4.0,-3.0,-2.0,5.0
1701711349.469478,-6.0,-8.0,0.0,-4.0,-1.0,0.0,-3.0,-8.0
1701711349.469478,3.0,4.0,4.0,1.0,1.0,2.0,2.0,1.0
1701711349.4894602,0.0,-8.0,-33.0,3.0,-3.0,-4.0,-2.0,4.0
1701711349.4894602,-10.0,11.0,1.0,11.0,3.0,0.0,1.0,3.0
1701711349.4894602,18.0,-17.0,-96.0,-3.0,-1.0,3.0,1.0,14.0
1701711349.4894602,-5.0,5.0,-45.0,-9.0,-3.0,-2.0,-3.0,-4.0
1701711349.529231,9.0,10.0,-39.0,-17.0,0.0,-2.0,-1.0,3.0
1701711349.529231,-5.0,-5.0,2.0,-1.0,-1.0,1.0,0.0,-4.0
1701711349.529231,-5.0,8.0,1.0,10.0,0.0,-1.0,-2.0,-8.0
1701711349.529231,-2.0,-7.0,-3.0,12.0,3.0,0.0,1.0,6.0
1701711349.529231,-1.0,-8.0,-30.0,-2.0,-6.0,-8.0,-2.0,1.0
1701711349.529231,-2.0,-6.0,-8.0,0.0,-3.0,0.0,-3.0,-7.0
1701711349.529231,1.0,15.0,53.0,8.0,4.0,2.0,1.0,-4.0
1701711349.529231,4.0,-2.0,109.0,8.0,2.0,2.0,-1.0,2.0
1701711349.5492656,-5.0,-8.0,127.0,6.0,0.0,1.0,-2.0,8.0
1701711349.5492656,-46.0,-18.0,51.0,-15.0,-8.0,-7.0,-6.0,-82.0
1701711349.5492656,23.0,13.0,109.0,17.0,6.0,4.0,9.0,55.0
1701711349.5492656,-24.0,-3.0,-84.0,-20.0,-8.0,-5.0,-4.0,1.0
1701711349.5794685,31.0,8.0,-53.0,22.0,7.0,3.0,1.0,-22.0
1701711349.5794685,12.0,-5.0,-101.0,-1.0,0.0,-1.0,-2.0,52.0
1701711349.5794685,1.0,3.0,-93.0,1.0,-1.0,-6.0,0.0,-28.0
1701711349.5794685,3.0,3.0,-54.0,15.0,7.0,12.0,3.0,8.0
1701711349.5895832,-19.0,-7.0,-68.0,-13.0,-8.0,-8.0,-5.0,-8.0
1701711349.5895832,6.0,-2.0,-27.0,-8.0,-5.0,-3.0,0.0,2.0
1701711349.5895832,-4.0,-7.0,-55.0,-16.0,1.0,-3.0,0.0,-14.0
1701711349.5895832,11.0,2.0,16.0,5.0,3.0,3.0,3.0,23.0
1701711349.609256,-6.0,-5.0,-27.0,-15.0,-4.0,-1.0,-1.0,-9.0
1701711349.609256,7.0,3.0,-13.0,-3.0,1.0,-3.0,2.0,-4.0
1701711349.609256,-5.0,-2.0,17.0,-13.0,-5.0,4.0,-8.0,15.0
1701711349.609256,2.0,-2.0,46.0,3.0,0.0,2.0,7.0,-22.0
1701711349.6392312,-1.0,2.0,80.0,0.0,-3.0,0.0,4.0,7.0
1701711349.6392312,1.0,1.0,27.0,-18.0,-1.0,2.0,-2.0,0.0
1701711349.6392312,-10.0,3.0,-25.0,-22.0,1.0,-3.0,5.0,-5.0
1701711349.6392312,-2.0,-1.0,-12.0,-14.0,-8.0,-5.0,-7.0,-7.0
1701711349.6592298,-1.0,0.0,-10.0,3.0,-6.0,-10.0,-4.0,-1.0
1701711349.6592298,4.0,4.0,-2.0,22.0,3.0,1.0,1.0,14.0
1701711349.6592298,-10.0,-8.0,-41.0,-7.0,1.0,1.0,-5.0,-14.0
1701711349.6592298,4.0,-7.0,1.0,2.0,-4.0,-3.0,-2.0,2.0
1701711349.669504,-2.0,-2.0,-31.0,-18.0,-1.0,-2.0,0.0,1.0
1701711349.669504,4.0,-2.0,38.0,23.0,5.0,10.0,1.0,0.0
1701711349.669504,-1.0,-1.0,-19.0,-4.0,-5.0,1.0,-4.0,-7.0
1701711349.669504,-2.0,-7.0,-37.0,0.0,-1.0,-3.0,1.0,-4.0
1701711349.6993585,-2.0,5.0,-3.0,5.0,12.0,16.0,0.0,-5.0
1701711349.6993585,1.0,-6.0,-49.0,4.0,-4.0,-6.0,-1.0,8.0
1701711349.6993585,2.0,7.0,-1.0,4.0,10.0,12.0,4.0,0.0
1701711349.6993585,-6.0,-4.0,-15.0,1.0,-1.0,-13.0,-4.0,2.0
1701711349.7094789,3.0,0.0,-2.0,0.0,-4.0,2.0,-2.0,-12.0
1701711349.7094789,3.0,1.0,-21.0,-6.0,7.0,15.0,4.0,7.0
1701711349.7094789,-6.0,-2.0,-5.0,1.0,-10.0,-27.0,-13.0,-6.0
1701711349.7094789,0.0,1.0,-19.0,-14.0,-6.0,-4.0,0.0,-4.0
1701711349.7365797,-2.0,7.0,14.0,23.0,7.0,5.0,4.0,8.0
1701711349.7365797,1.0,3.0,-1.0,-25.0,1.0,6.0,1.0,-4.0
1701711349.7365797,-9.0,0.0,3.0,2.0,-1.0,-1.0,-5.0,-14.0
1701711349.7375803,5.0,7.0,49.0,18.0,-14.0,-29.0,-9.0,5.0
1701711349.7508254,-3.0,0.0,-6.0,-24.0,-5.0,8.0,1.0,4.0
1701711349.7508254,3.0,3.0,-2.0,-6.0,-14.0,-18.0,-8.0,3.0
1701711349.7508254,-3.0,-2.0,5.0,7.0,6.0,6.0,1.0,-2.0
1701711349.7508254,-4.0,-6.0,22.0,1.0,-5.0,-5.0,-5.0,-4.0
1701711349.7708282,-1.0,-3.0,12.0,37.0,6.0,2.0,1.0,3.0
1701711349.7708282,-2.0,-3.0,1.0,-30.0,-3.0,2.0,1.0,-4.0
1701711349.7708282,0.0,-1.0,1.0,10.0,-11.0,-5.0,-1.0,0.0
1701711349.7708282,-1.0,-1.0,-4.0,-16.0,4.0,13.0,0.0,-4.0
1701711349.7908654,-1.0,3.0,2.0,-5.0,-1.0,-6.0,-2.0,2.0
1701711349.7908654,-1.0,0.0,7.0,12.0,5.0,1.0,0.0,-2.0
1701711349.7908654,-1.0,2.0,-2.0,3.0,0.0,0.0,3.0,0.0
1701711349.7908654,-2.0,2.0,-6.0,-9.0,-2.0,2.0,-3.0,-6.0
1701711349.8108664,-1.0,-3.0,11.0,-2.0,-2.0,-3.0,-2.0,4.0
1701711349.8108664,1.0,-4.0,22.0,6.0,-1.0,-4.0,-1.0,0.0
1701711349.8108664,0.0,-2.0,21.0,-9.0,-3.0,1.0,1.0,0.0
1701711349.8108664,5.0,-6.0,-7.0,5.0,4.0,-2.0,-2.0,-2.0
1701711349.840828,-8.0,-5.0,10.0,-15.0,-4.0,-2.0,-4.0,-16.0
1701711349.840828,2.0,8.0,39.0,16.0,5.0,0.0,0.0,3.0
1701711349.840828,2.0,-8.0,63.0,-6.0,-6.0,-3.0,-3.0,-10.0
1701711349.840828,-11.0,-28.0,-34.0,-14.0,-4.0,5.0,0.0,14.0
1701711349.850866,5.0,6.0,47.0,7.0,0.0,-4.0,0.0,6.0
1701711349.850866,-9.0,-21.0,12.0,-1.0,-5.0,-3.0,-4.0,-8.0
1701711349.850866,5.0,11.0,37.0,-10.0,3.0,0.0,-6.0,6.0
1701711349.850866,-1.0,13.0,33.0,23.0,4.0,5.0,1.0,-34.0
1701711349.8708653,0.0,-27.0,-106.0,-34.0,-7.0,-4.0,6.0,34.0
1701711349.8708653,12.0,2.0,-26.0,1.0,-5.0,-10.0,-5.0,-8.0
1701711349.8708653,4.0,0.0,-39.0,10.0,4.0,5.0,6.0,14.0
1701711349.8708653,-2.0,-7.0,-27.0,0.0,2.0,0.0,-3.0,-9.0
1701711349.8908288,-1.0,15.0,15.0,7.0,-1.0,2.0,-1.0,-3.0
1701711349.8908288,-5.0,2.0,-10.0,0.0,-2.0,-9.0,-2.0,-3.0
1701711349.8908288,-16.0,-21.0,-37.0,-17.0,-14.0,-18.0,-14.0,-22.0
1701711349.8908288,12.0,19.0,48.0,1.0,6.0,8.0,16.0,32.0
1701711349.910827,-7.0,-3.0,-2.0,5.0,5.0,1.0,-3.0,-12.0
1701711349.910827,3.0,-4.0,-23.0,-12.0,-1.0,13.0,2.0,13.0
1701711349.9208267,-6.0,4.0,23.0,4.0,0.0,-4.0,1.0,-15.0
1701711349.9208267,-6.0,-5.0,-10.0,7.0,-1.0,-12.0,-10.0,-5.0
1701711349.940829,0.0,-4.0,-9.0,-20.0,-4.0,-5.0,-4.0,2.0
1701711349.940829,-3.0,1.0,0.0,2.0,0.0,-4.0,3.0,4.0
1701711349.940829,4.0,3.0,-17.0,15.0,-1.0,1.0,-6.0,-9.0
1701711349.940829,0.0,-2.0,-22.0,-22.0,-1.0,6.0,2.0,4.0
1701711349.9508278,-1.0,-4.0,-46.0,5.0,-4.0,-5.0,-2.0,-7.0
1701711349.9508278,0.0,5.0,8.0,12.0,-1.0,0.0,-2.0,5.0
1701711349.9508278,-2.0,-5.0,-38.0,-21.0,-2.0,2.0,1.0,-3.0
1701711349.9508278,-1.0,-3.0,20.0,7.0,-1.0,0.0,-2.0,7.0
1701711349.9708278,-4.0,-1.0,-5.0,3.0,1.0,-2.0,-3.0,-15.0
1701711349.9708278,-6.0,-3.0,16.0,4.0,-6.0,-5.0,-7.0,-8.0
1701711349.9808285,-1.0,-3.0,-3.0,19.0,3.0,3.0,4.0,9.0
1701711349.9808285,-13.0,1.0,-23.0,-16.0,-5.0,-2.0,-4.0,-38.0
1701711350.000829,29.0,4.0,14.0,8.0,4.0,7.0,10.0,58.0
1701711350.000829,-12.0,-6.0,-22.0,-10.0,-3.0,-5.0,-6.0,-53.0
1701711350.000829,6.0,-1.0,-14.0,-11.0,-4.0,7.0,3.0,47.0
1701711350.000829,-2.0,-2.0,-9.0,6.0,1.0,3.0,4.0,-2.0
1701711350.011045,-6.0,-3.0,14.0,10.0,-1.0,0.0,1.0,-15.0
1701711350.011045,2.0,5.0,-6.0,-6.0,-6.0,-15.0,-5.0,5.0
1701711350.011045,3.0,-3.0,46.0,-3.0,4.0,-4.0,-10.0,-2.0
1701711350.011045,0.0,3.0,-9.0,-1.0,5.0,8.0,3.0,-2.0
1701711350.0308642,-8.0,3.0,20.0,11.0,3.0,-1.0,-6.0,-1.0
1701711350.0308642,0.0,-7.0,-28.0,-4.0,-3.0,-7.0,2.0,2.0
1701711350.0308642,-4.0,8.0,41.0,-12.0,-9.0,-11.0,-6.0,-16.0
1701711350.0308642,3.0,-6.0,-14.0,-17.0,0.0,1.0,1.0,15.0
1701711350.0508363,-10.0,-12.0,-13.0,2.0,-3.0,-9.0,-7.0,-15.0
1701711350.0508363,6.0,5.0,23.0,56.0,7.0,0.0,-3.0,8.0
1701711350.0508363,-3.0,-6.0,-29.0,43.0,11.0,9.0,6.0,-10.0
1701711350.0508363,-2.0,-1.0,7.0,-24.0,-19.0,-2.0,2.0,-19.0
1701711350.070931,6.0,8.0,-7.0,2.0,0.0,-13.0,2.0,15.0
1701711350.070931,1.0,-7.0,-72.0,-36.0,13.0,40.0,2.0,11.0
1701711350.0808296,-3.0,-12.0,-86.0,27.0,-2.0,21.0,15.0,-8.0
1701711350.0808296,0.0,7.0,-30.0,-2.0,3.0,-17.0,-15.0,27.0
1701711350.0908275,2.0,9.0,7.0,26.0,-1.0,-13.0,-7.0,-5.0
1701711350.0908275,-12.0,-17.0,-108.0,-2.0,-10.0,-15.0,-6.0,-10.0
1701711350.0908275,1.0,3.0,21.0,-11.0,0.0,5.0,-9.0,29.0
1701711350.0908275,-7.0,2.0,16.0,-75.0,-8.0,6.0,7.0,-29.0
1701711350.1208284,-10.0,-10.0,-1.0,70.0,1.0,-12.0,-12.0,-19.0
1701711350.1208284,11.0,9.0,49.0,-95.0,-18.0,-8.0,-2.0,20.0
1701711350.1208284,-11.0,-8.0,-22.0,-8.0,4.0,-5.0,-1.0,-20.0
1701711350.1208284,6.0,-5.0,13.0,29.0,1.0,-6.0,-2.0,13.0
1701711350.1309333,-2.0,-7.0,-18.0,7.0,6.0,7.0,-2.0,3.0
1701711350.1309333,-6.0,-6.0,8.0,-13.0,-3.0,-5.0,4.0,-14.0
1701711350.1410227,-1.0,-3.0,-28.0,-28.0,1.0,-9.0,2.0,4.0
1701711350.1410227,4.0,1.0,-5.0,72.0,6.0,10.0,-2.0,4.0
1701711350.160829,-1.0,-2.0,22.0,-90.0,-18.0,3.0,4.0,-10.0
1701711350.160829,-2.0,4.0,30.0,48.0,-4.0,-3.0,-4.0,4.0
1701711350.160829,4.0,1.0,0.0,-9.0,36.0,9.0,4.0,-2.0
1701711350.160829,4.0,-1.0,-10.0,-14.0,-12.0,1.0,-1.0,10.0
1701711350.1709306,-4.0,-1.0,12.0,-1.0,-19.0,4.0,3.0,-10.0
1701711350.1709306,-6.0,-2.0,34.0,24.0,15.0,-5.0,-4.0,-3.0
1701711350.1709306,1.0,3.0,23.0,-44.0,-32.0,-19.0,-6.0,1.0
1701711350.1709306,-3.0,-2.0,25.0,77.0,42.0,11.0,3.0,-7.0
1701711350.1912138,5.0,6.0,37.0,14.0,16.0,2.0,1.0,3.0
1701711350.1912138,0.0,5.0,45.0,-22.0,-11.0,-6.0,-1.0,1.0
1701711350.2012398,-3.0,2.0,19.0,-9.0,-17.0,-6.0,-2.0,-7.0
1701711350.2012398,-5.0,-1.0,25.0,22.0,16.0,-1.0,-2.0,1.0
1701711350.2208292,-4.0,-4.0,24.0,-57.0,-23.0,0.0,-5.0,-8.0
1701711350.2208292,3.0,-3.0,22.0,36.0,5.0,0.0,-1.0,5.0
1701711350.2208292,-4.0,-1.0,3.0,3.0,3.0,4.0,-1.0,-6.0
1701711350.2208292,3.0,-5.0,-1.0,4.0,-31.0,-12.0,-2.0,6.0
1701711350.231202,-1.0,2.0,-6.0,-36.0,6.0,1.0,-4.0,-4.0
1701711350.231202,-3.0,-2.0,16.0,1.0,3.0,5.0,2.0,-2.0
1701711350.231202,1.0,8.0,17.0,12.0,-2.0,-1.0,2.0,-2.0
1701711350.231202,-1.0,-6.0,3.0,-21.0,-3.0,-9.0,-5.0,2.0
1701711350.2511451,-6.0,0.0,-2.0,29.0,8.0,20.0,13.0,0.0
1701711350.2511451,5.0,3.0,2.0,-26.0,-2.0,-14.0,-15.0,-1.0
1701711350.261434,-1.0,0.0,13.0,-5.0,-6.0,15.0,6.0,6.0
1701711350.261434,-6.0,-2.0,-25.0,-10.0,-21.0,-8.0,-8.0,-4.0
1701711350.2769055,2.0,-3.0,-17.0,55.0,34.0,2.0,2.0,-2.0
1701711350.2769055,0.0,2.0,-2.0,-68.0,-16.0,4.0,5.0,0.0
1701711350.2778997,0.0,-3.0,11.0,45.0,6.0,-2.0,-3.0,1.0
1701711350.2778997,2.0,3.0,-1.0,-12.0,7.0,0.0,0.0,-3.0
1701711350.2946594,-4.0,-2.0,-8.0,11.0,-16.0,-11.0,-5.0,-6.0
1701711350.2946594,-4.0,-3.0,-4.0,-3.0,-9.0,0.0,1.0,0.0
1701711350.2946594,0.0,-1.0,-10.0,2.0,16.0,-3.0,-3.0,-2.0
1701711350.2946594,-2.0,1.0,9.0,-7.0,-12.0,1.0,1.0,2.0
1701711350.3050225,0.0,4.0,1.0,-14.0,9.0,-2.0,-3.0,1.0
1701711350.3050225,-1.0,0.0,6.0,27.0,10.0,2.0,-1.0,-3.0
1701711350.3149211,2.0,-2.0,-5.0,-31.0,-28.0,-8.0,0.0,-2.0
1701711350.3149211,0.0,-2.0,3.0,-23.0,13.0,3.0,-2.0,-3.0
1701711350.34467,-6.0,0.0,-6.0,13.0,-3.0,-4.0,-4.0,-5.0
1701711350.34467,2.0,-3.0,-8.0,13.0,7.0,5.0,4.0,-2.0
1701711350.34467,0.0,-2.0,-2.0,18.0,-7.0,-8.0,-4.0,-1.0
1701711350.34467,-4.0,-4.0,-13.0,-7.0,-8.0,-23.0,-4.0,-4.0
1701711350.3550327,0.0,-3.0,6.0,-48.0,-10.0,23.0,-8.0,1.0
1701711350.3550327,3.0,5.0,12.0,43.0,14.0,11.0,8.0,7.0
1701711350.3550327,-5.0,-1.0,2.0,-29.0,-3.0,-3.0,-4.0,-2.0
1701711350.3550327,-3.0,3.0,61.0,-4.0,0.0,1.0,0.0,-3.0
1701711350.3650074,-5.0,3.0,26.0,-10.0,-2.0,-9.0,1.0,-5.0
1701711350.3650074,3.0,-3.0,5.0,0.0,-6.0,-4.0,-2.0,1.0
1701711350.3846698,1.0,1.0,59.0,18.0,6.0,2.0,3.0,0.0
1701711350.3846698,-2.0,0.0,20.0,6.0,-1.0,-3.0,-5.0,-4.0
1701711350.3948648,0.0,1.0,96.0,9.0,-5.0,-5.0,-10.0,-1.0
1701711350.3948648,-1.0,11.0,62.0,21.0,7.0,8.0,2.0,0.0
1701711350.3948648,-2.0,-3.0,5.0,-41.0,-9.0,-14.0,-3.0,-4.0
1701711350.3948648,1.0,1.0,-24.0,-35.0,-5.0,-2.0,-3.0,1.0
1701711350.414879,0.0,-4.0,-117.0,-30.0,-8.0,1.0,3.0,2.0
1701711350.414879,-3.0,0.0,-38.0,101.0,23.0,-6.0,-1.0,-2.0
1701711350.414879,-2.0,-7.0,-101.0,-46.0,9.0,9.0,0.0,-3.0
1701711350.414879,2.0,5.0,-29.0,74.0,-1.0,-10.0,0.0,1.0
1701711350.4546714,2.0,-4.0,-38.0,2.0,-12.0,3.0,1.0,3.0
1701711350.4546714,-1.0,-5.0,-33.0,-31.0,13.0,2.0,-3.0,0.0
1701711350.4546714,1.0,-2.0,-22.0,34.0,19.0,9.0,2.0,1.0
1701711350.4546714,-4.0,-11.0,-37.0,-39.0,-21.0,-17.0,-8.0,-3.0
1701711350.4546714,3.0,-1.0,-10.0,35.0,32.0,9.0,5.0,3.0
1701711350.4546714,0.0,-2.0,-20.0,-21.0,-10.0,9.0,4.0,0.0
1701711350.4546714,2.0,4.0,9.0,20.0,-1.0,-9.0,-6.0,-3.0
1701711350.4546714,-1.0,-3.0,-12.0,-12.0,5.0,9.0,3.0,2.0
1701711350.4749045,-2.0,2.0,27.0,5.0,0.0,-11.0,0.0,-4.0
1701711350.4749045,-2.0,3.0,36.0,1.0,1.0,4.0,-4.0,-6.0
1701711350.4749045,-5.0,-4.0,-24.0,-14.0,-13.0,1.0,-1.0,-2.0
1701711350.4749045,3.0,4.0,0.0,-43.0,-23.0,6.0,3.0,3.0
1701711350.4946754,-7.0,-7.0,-4.0,31.0,19.0,-15.0,-6.0,-6.0
1701711350.4946754,-3.0,-5.0,6.0,-9.0,0.0,-5.0,0.0,-1.0
1701711350.4946754,-2.0,-1.0,3.0,9.0,14.0,-1.0,-1.0,-5.0
1701711350.4946754,0.0,5.0,16.0,16.0,-17.0,-5.0,0.0,2.0
1701711350.5149176,0.0,3.0,16.0,10.0,10.0,9.0,2.0,0.0
1701711350.5149176,-2.0,-4.0,-3.0,-34.0,-15.0,-6.0,-1.0,-2.0
1701711350.5149176,-3.0,-2.0,2.0,1.0,-15.0,-8.0,-5.0,-2.0
1701711350.5149176,4.0,2.0,37.0,10.0,14.0,9.0,2.0,0.0
1701711350.5348878,-11.0,-13.0,-89.0,-54.0,-25.0,-8.0,-5.0,-6.0
1701711350.5348878,-6.0,-13.0,-20.0,-33.0,-12.0,-4.0,-3.0,-4.0
1701711350.5348878,-2.0,-1.0,46.0,19.0,-7.0,-7.0,-4.0,-1.0
1701711350.5348878,-6.0,-9.0,-27.0,-6.0,4.0,-18.0,-10.0,-8.0
1701711350.574672,11.0,4.0,12.0,-1.0,-10.0,-1.0,-11.0,5.0
1701711350.574672,-6.0,3.0,-6.0,7.0,4.0,24.0,9.0,9.0
1701711350.574672,5.0,10.0,21.0,1.0,-5.0,2.0,-9.0,-6.0
1701711350.574672,-1.0,5.0,-35.0,22.0,19.0,14.0,10.0,2.0
1701711350.574672,-1.0,0.0,11.0,5.0,-2.0,-17.0,-6.0,-8.0
1701711350.574672,-5.0,-17.0,-47.0,-32.0,-21.0,-19.0,-9.0,-3.0
1701711350.574672,1.0,6.0,24.0,33.0,12.0,2.0,4.0,4.0
1701711350.574672,0.0,7.0,15.0,3.0,1.0,-3.0,-6.0,-2.0
1701711350.5949066,0.0,4.0,7.0,-39.0,-13.0,-1.0,1.0,3.0
1701711350.5949066,6.0,16.0,21.0,53.0,15.0,8.0,4.0,-1.0
1701711350.5949066,-14.0,-26.0,-19.0,-41.0,-18.0,-5.0,1.0,-3.0
1701711350.5949066,1.0,-2.0,11.0,-7.0,1.0,0.0,0.0,-2.0
1701711350.624672,1.0,-4.0,35.0,45.0,2.0,4.0,8.0,1.0
1701711350.624672,4.0,7.0,40.0,-14.0,-1.0,-7.0,-2.0,0.0
1701711350.624672,3.0,3.0,-20.0,-5.0,4.0,-2.0,-6.0,-2.0
1701711350.624672,-1.0,-10.0,-25.0,-12.0,2.0,13.0,11.0,2.0
1701711350.6348763,-2.0,0.0,26.0,34.0,6.0,0.0,-4.0,-3.0
1701711350.6348763,0.0,-7.0,-14.0,-28.0,-7.0,0.0,11.0,-1.0
1701711350.6348763,-1.0,1.0,48.0,10.0,-1.0,3.0,4.0,0.0
1701711350.6348763,-2.0,-10.0,34.0,-13.0,0.0,-8.0,-17.0,-1.0
1701711350.654969,-2.0,1.0,65.0,3.0,-4.0,-3.0,9.0,-1.0
1701711350.654969,-1.0,-5.0,6.0,-4.0,-3.0,-9.0,-13.0,-4.0
1701711350.654969,2.0,1.0,-15.0,-13.0,-7.0,0.0,11.0,5.0
1701711350.654969,-2.0,-6.0,-4.0,-22.0,-13.0,7.0,8.0,-3.0
1701711350.6846697,0.0,-6.0,-35.0,14.0,32.0,0.0,-5.0,1.0
1701711350.6846697,-1.0,-5.0,-51.0,4.0,4.0,-9.0,-11.0,-2.0
1701711350.6846697,1.0,2.0,-41.0,-6.0,-6.0,-5.0,-1.0,0.0
1701711350.6846697,0.0,1.0,-49.0,22.0,2.0,-1.0,-2.0,-2.0
1701711350.6948903,-1.0,-5.0,-53.0,-42.0,-21.0,-14.0,-4.0,-3.0
1701711350.6948903,-3.0,0.0,-32.0,1.0,9.0,9.0,7.0,-3.0
1701711350.6948903,2.0,1.0,-17.0,13.0,1.0,7.0,-1.0,1.0
1701711350.6948903,1.0,3.0,-10.0,-24.0,-10.0,-2.0,1.0,0.0
1701711350.7149918,-4.0,-4.0,-45.0,-20.0,2.0,2.0,1.0,-4.0
1701711350.7149918,0.0,1.0,26.0,18.0,0.0,-4.0,-3.0,0.0
1701711350.7149918,-1.0,0.0,-12.0,24.0,-15.0,-6.0,-3.0,-2.0
1701711350.7149918,-1.0,-3.0,-22.0,-24.0,7.0,6.0,-2.0,1.0
1701711350.7346716,4.0,9.0,28.0,26.0,-3.0,4.0,3.0,5.0
1701711350.7346716,-3.0,-5.0,12.0,-5.0,-3.0,-3.0,-2.0,-3.0
1701711350.7346716,0.0,-3.0,-12.0,-40.0,-11.0,-5.0,-3.0,0.0
1701711350.7346716,-1.0,1.0,34.0,54.0,22.0,0.0,0.0,0.0
1701711350.7550213,-2.0,-1.0,20.0,-30.0,1.0,2.0,1.0,-1.0
1701711350.7550213,0.0,-1.0,-17.0,-20.0,-23.0,-6.0,0.0,-1.0
1701711350.7550213,-1.0,0.0,21.0,-3.0,-1.0,0.0,-1.0,-3.0
1701711350.7550213,-3.0,-1.0,4.0,20.0,-4.0,-4.0,-4.0,-4.0
1701711350.7749856,0.0,-3.0,7.0,-4.0,-9.0,-1.0,0.0,0.0
1701711350.7749856,-6.0,-9.0,-10.0,-10.0,-4.0,-7.0,-3.0,-2.0
1701711350.7749856,-1.0,2.0,-1.0,-14.0,-1.0,3.0,3.0,0.0
1701711350.7749856,-1.0,-1.0,8.0,-15.0,1.0,-5.0,-2.0,0.0
1701711350.8025696,0.0,-3.0,14.0,26.0,5.0,2.0,-1.0,0.0
1701711350.8025696,1.0,1.0,-2.0,0.0,-10.0,-5.0,-2.0,-3.0
1701711350.8025696,-2.0,0.0,5.0,-4.0,9.0,-1.0,-1.0,-1.0
1701711350.8025696,-2.0,1.0,8.0,-4.0,-5.0,-3.0,-1.0,-1.0
1701711350.817019,-3.0,-4.0,-15.0,-28.0,-5.0,-4.0,-1.0,-3.0
1701711350.817019,1.0,4.0,32.0,18.0,-1.0,-4.0,-4.0,-1.0
1701711350.817019,0.0,3.0,9.0,2.0,9.0,-2.0,-4.0,1.0
1701711350.817019,-3.0,-2.0,2.0,-13.0,-3.0,1.0,1.0,-1.0
1701711350.8370214,-2.0,2.0,-6.0,8.0,-12.0,0.0,1.0,-2.0
1701711350.8370214,1.0,9.0,6.0,15.0,5.0,0.0,-3.0,1.0
1701711350.8370214,0.0,-3.0,-9.0,-8.0,0.0,-3.0,-2.0,-2.0
1701711350.8370214,-2.0,-3.0,-17.0,3.0,-10.0,-7.0,-3.0,-3.0
1701711350.8570218,-4.0,-3.0,-26.0,-23.0,-9.0,-1.0,0.0,-4.0
1701711350.8570218,-1.0,-1.0,-1.0,-3.0,12.0,2.0,-1.0,0.0
1701711350.8570218,0.0,1.0,2.0,17.0,14.0,9.0,9.0,1.0
1701711350.8570218,0.0,-1.0,-3.0,2.0,8.0,4.0,1.0,1.0
1701711350.867021,2.0,-5.0,-9.0,-3.0,-5.0,6.0,9.0,-1.0
1701711350.867021,0.0,2.0,-11.0,0.0,-4.0,-3.0,-4.0,-2.0
1701711350.8770204,-4.0,-1.0,9.0,7.0,-9.0,-6.0,-7.0,-2.0
1701711350.8770204,-2.0,-1.0,-4.0,4.0,5.0,4.0,6.0,-1.0
1701711350.8970227,-1.0,0.0,7.0,39.0,10.0,-9.0,-11.0,-2.0
1701711350.8970227,2.0,3.0,36.0,12.0,1.0,22.0,21.0,2.0
1701711350.8970227,-1.0,-7.0,-61.0,-55.0,-12.0,-5.0,-3.0,-1.0
1701711350.8970227,0.0,-3.0,-20.0,1.0,-12.0,-3.0,-5.0,-2.0
1701711350.9170244,1.0,4.0,7.0,3.0,6.0,2.0,-3.0,-2.0
1701711350.9170244,-3.0,-4.0,9.0,20.0,0.0,-12.0,-6.0,-1.0
1701711350.9170244,-1.0,1.0,12.0,23.0,8.0,-3.0,-2.0,0.0
1701711350.9170244,-2.0,2.0,-7.0,-20.0,1.0,1.0,0.0,-2.0
1701711350.9370222,1.0,-1.0,11.0,-6.0,-2.0,10.0,1.0,2.0
1701711350.9370222,-3.0,-4.0,-30.0,25.0,-5.0,-15.0,-7.0,-3.0
1701711350.9370222,1.0,0.0,9.0,1.0,-2.0,-1.0,1.0,-1.0
1701711350.9370222,1.0,-2.0,3.0,9.0,3.0,0.0,-3.0,0.0
1701711350.9570231,0.0,-3.0,0.0,-13.0,2.0,-1.0,-2.0,-1.0
1701711350.9570231,0.0,2.0,15.0,-6.0,-3.0,9.0,0.0,0.0
1701711350.9570231,-3.0,-8.0,11.0,6.0,-5.0,-13.0,-6.0,-2.0
1701711350.9570231,-1.0,-1.0,8.0,-4.0,0.0,-3.0,-1.0,-1.0
1701711350.9770243,-1.0,2.0,-11.0,2.0,6.0,-1.0,1.0,0.0
1701711350.9770243,0.0,-6.0,-6.0,-19.0,-2.0,-7.0,-1.0,-2.0
1701711350.9770243,-1.0,-1.0,18.0,18.0,-1.0,11.0,-3.0,1.0
1701711350.9770243,-3.0,-3.0,-33.0,-29.0,-8.0,-2.0,1.0,-2.0
1701711350.9970238,-3.0,-2.0,11.0,30.0,4.0,-1.0,0.0,-1.0
1701711350.9970238,1.0,-3.0,-30.0,-39.0,-8.0,-2.0,0.0,1.0
1701711350.9970238,-1.0,-3.0,2.0,30.0,4.0,-2.0,0.0,-2.0
1701711350.9970238,3.0,1.0,1.0,-6.0,2.0,2.0,0.0,1.0
1701711351.0170572,-2.0,-2.0,-4.0,17.0,-10.0,-12.0,-5.0,-1.0
1701711351.0170572,0.0,4.0,-4.0,11.0,16.0,8.0,3.0,-1.0
1701711351.0170572,3.0,3.0,8.0,-59.0,-16.0,3.0,1.0,2.0
1701711351.0170572,-1.0,-1.0,8.0,10.0,15.0,2.0,-1.0,1.0
1701711351.037024,-2.0,-2.0,-18.0,12.0,2.0,-4.0,-3.0,-1.0
1701711351.037024,-2.0,0.0,14.0,2.0,3.0,-2.0,-4.0,-1.0
1701711351.037024,-1.0,0.0,-5.0,-6.0,-23.0,-2.0,0.0,-1.0
1701711351.037024,-3.0,-3.0,10.0,49.0,47.0,5.0,-1.0,-1.0
1701711351.047022,3.0,-1.0,9.0,-56.0,0.0,2.0,0.0,1.0
1701711351.047022,-1.0,-2.0,-6.0,-7.0,16.0,6.0,-1.0,-1.0
1701711351.0670235,-1.0,-1.0,-3.0,31.0,-15.0,-16.0,-3.0,-4.0
1701711351.0670235,1.0,-2.0,8.0,1.0,-20.0,-3.0,0.0,2.0
1701711351.07702,-2.0,-2.0,-2.0,-24.0,-17.0,-4.0,0.0,-2.0
1701711351.07702,-2.0,-4.0,-13.0,-23.0,-6.0,2.0,2.0,-2.0
1701711351.07702,0.0,3.0,8.0,13.0,18.0,1.0,-2.0,-1.0
1701711351.07702,-1.0,-3.0,-16.0,-4.0,-6.0,-7.0,-5.0,-1.0
1701711351.1070237,1.0,1.0,19.0,-25.0,-5.0,0.0,-1.0,1.0
1701711351.1070237,1.0,-3.0,-7.0,1.0,-10.0,-2.0,2.0,1.0
1701711351.1070237,-1.0,1.0,8.0,-12.0,1.0,-5.0,0.0,-3.0
1701711351.1070237,-3.0,-2.0,1.0,4.0,-8.0,-1.0,-2.0,-2.0
1701711351.117023,-3.0,-1.0,-9.0,9.0,-27.0,-4.0,-5.0,-4.0
1701711351.117023,-3.0,-1.0,10.0,11.0,23.0,1.0,-3.0,-2.0
1701711351.117023,1.0,2.0,0.0,9.0,10.0,7.0,1.0,1.0
1701711351.117023,-2.0,1.0,20.0,-4.0,2.0,-5.0,-3.0,-2.0
1701711351.1370194,-2.0,-5.0,-20.0,-10.0,-11.0,-13.0,-5.0,-3.0
1701711351.1370194,0.0,-1.0,6.0,-1.0,-12.0,4.0,2.0,-2.0
1701711351.1370194,-4.0,-5.0,-8.0,4.0,6.0,-7.0,-4.0,-1.0
1701711351.1370194,0.0,0.0,2.0,-21.0,-19.0,-4.0,-1.0,0.0
1701711351.1570215,2.0,-2.0,7.0,12.0,10.0,6.0,3.0,0.0
1701711351.1570215,-2.0,-3.0,-27.0,6.0,-4.0,-3.0,-5.0,-3.0
1701711351.1570215,-3.0,-3.0,0.0,-14.0,6.0,7.0,2.0,-1.0
1701711351.1570215,1.0,3.0,7.0,10.0,-9.0,-1.0,-1.0,0.0
1701711351.1770213,-2.0,-4.0,-12.0,6.0,7.0,1.0,0.0,-1.0
1701711351.1770213,1.0,6.0,18.0,-10.0,-10.0,-3.0,-3.0,-2.0
1701711351.1770213,0.0,-1.0,2.0,1.0,-2.0,-2.0,1.0,0.0
1701711351.1770213,-4.0,-13.0,-21.0,-11.0,-6.0,-3.0,-4.0,-5.0
1701711351.197238,-1.0,-4.0,-3.0,0.0,0.0,-3.0,-1.0,1.0
1701711351.197238,-5.0,-14.0,-5.0,-13.0,-14.0,-6.0,-3.0,-2.0
1701711351.197238,0.0,1.0,-2.0,3.0,1.0,3.0,3.0,0.0
1701711351.197238,1.0,3.0,4.0,3.0,1.0,-6.0,-1.0,1.0
1701711351.2172875,-3.0,1.0,11.0,-2.0,9.0,4.0,0.0,-2.0
1701711351.2172875,1.0,7.0,14.0,-4.0,-1.0,-2.0,3.0,1.0
1701711351.2172875,-1.0,-3.0,7.0,16.0,1.0,-25.0,-23.0,-6.0
1701711351.2172875,-2.0,6.0,17.0,-8.0,-1.0,6.0,5.0,1.0
1701711351.237033,7.0,5.0,18.0,-10.0,8.0,28.0,27.0,11.0
1701711351.237033,-2.0,1.0,11.0,8.0,-6.0,4.0,-2.0,-1.0
1701711351.237033,-2.0,-5.0,11.0,-2.0,5.0,3.0,4.0,-2.0
1701711351.237033,-4.0,-10.0,-10.0,-5.0,-8.0,-19.0,-15.0,-7.0
1701711351.2574632,1.0,-1.0,6.0,-22.0,-3.0,-11.0,-10.0,-1.0
1701711351.2574632,-2.0,0.0,15.0,18.0,-1.0,-2.0,0.0,-2.0
1701711351.2574632,0.0,0.0,-3.0,6.0,2.0,4.0,0.0,0.0
1701711351.2574632,0.0,4.0,-7.0,2.0,2.0,6.0,2.0,0.0
1701711351.2870212,-3.0,-4.0,-24.0,2.0,-5.0,-4.0,-4.0,-1.0
1701711351.2870212,1.0,-4.0,-30.0,0.0,-2.0,-2.0,-2.0,1.0
1701711351.2870212,-2.0,-1.0,-21.0,-2.0,1.0,2.0,1.0,-1.0
1701711351.2870212,1.0,1.0,-25.0,-3.0,1.0,6.0,2.0,1.0
1701711351.297034,-3.0,3.0,-8.0,10.0,-2.0,-4.0,-2.0,-3.0
1701711351.297034,1.0,2.0,-10.0,-20.0,-19.0,-13.0,-6.0,-2.0
1701711351.3073628,-2.0,-4.0,-18.0,-4.0,6.0,5.0,3.0,-1.0
1701711351.3073628,1.0,1.0,7.0,14.0,18.0,6.0,6.0,2.0
1701711351.319875,-1.0,1.0,-6.0,-5.0,-5.0,-6.0,-7.0,-4.0
1701711351.319875,-3.0,-7.0,-9.0,3.0,5.0,0.0,1.0,-1.0
1701711351.319875,0.0,0.0,-1.0,-8.0,-8.0,3.0,3.0,2.0
1701711351.319875,-2.0,0.0,-1.0,3.0,-6.0,-1.0,-1.0,0.0
1701711351.3593848,-3.0,-5.0,-7.0,-6.0,-4.0,-11.0,-7.0,-5.0
1701711351.3593848,0.0,0.0,1.0,0.0,1.0,6.0,2.0,2.0
1701711351.3593848,1.0,1.0,11.0,6.0,6.0,1.0,3.0,0.0
1701711351.3593848,-4.0,2.0,11.0,6.0,1.0,1.0,-3.0,-1.0
1701711351.3593848,-2.0,-3.0,-11.0,-10.0,-6.0,-9.0,-4.0,-2.0
1701711351.3593848,-1.0,0.0,2.0,4.0,3.0,-2.0,-4.0,-3.0
1701711351.3593848,-2.0,-2.0,-3.0,22.0,-2.0,5.0,0.0,0.0
1701711351.3593848,0.0,0.0,5.0,-31.0,-8.0,-2.0,0.0,-2.0
1701711351.3794377,0.0,1.0,6.0,20.0,5.0,-2.0,-3.0,0.0
1701711351.3794377,-2.0,-1.0,6.0,1.0,-9.0,-12.0,-4.0,-3.0
1701711351.3794377,-1.0,-2.0,-9.0,-11.0,2.0,13.0,8.0,0.0
1701711351.3794377,-2.0,-4.0,2.0,17.0,-6.0,-7.0,-6.0,-5.0
1701711351.3993876,-1.0,-2.0,-11.0,6.0,2.0,-1.0,-13.0,0.0
1701711351.3993876,1.0,-1.0,-3.0,-42.0,-7.0,-1.0,9.0,0.0
1701711351.3993876,-3.0,0.0,-4.0,20.0,-4.0,-15.0,-7.0,-4.0
1701711351.3993876,2.0,2.0,-2.0,-58.0,-11.0,-1.0,-2.0,1.0
1701711351.4198182,0.0,1.0,-13.0,-13.0,3.0,-2.0,6.0,1.0
1701711351.4198182,-1.0,1.0,-4.0,33.0,11.0,17.0,3.0,0.0
1701711351.4198182,-2.0,-1.0,-7.0,-27.0,-5.0,-8.0,-4.0,-4.0
1701711351.4198182,-1.0,-1.0,-11.0,28.0,4.0,-1.0,-2.0,1.0
1701711351.4301965,-6.0,0.0,0.0,17.0,3.0,-2.0,0.0,-6.0
1701711351.4301965,6.0,4.0,-10.0,-21.0,0.0,-6.0,-7.0,5.0
1701711351.4398296,1.0,-3.0,-19.0,6.0,3.0,10.0,8.0,22.0
1701711351.4398296,-4.0,-3.0,-22.0,-2.0,-5.0,-14.0,-9.0,-29.0
1701711351.4601955,0.0,0.0,-10.0,1.0,1.0,7.0,4.0,1.0
1701711351.4601955,-3.0,-2.0,-8.0,42.0,9.0,3.0,0.0,-4.0
1701711351.4698305,0.0,3.0,21.0,-55.0,-9.0,1.0,-3.0,4.0
1701711351.4698305,0.0,-2.0,13.0,-14.0,-7.0,1.0,1.0,9.0
1701711351.4802876,-2.0,1.0,31.0,30.0,-4.0,-5.0,-1.0,-5.0
1701711351.4802876,-3.0,-4.0,9.0,-38.0,-5.0,3.0,-6.0,-1.0
1701711351.4802876,1.0,1.0,11.0,-5.0,-3.0,-6.0,-1.0,-2.0
1701711351.4802876,0.0,-3.0,-14.0,-4.0,4.0,10.0,5.0,3.0
1701711351.4901938,3.0,3.0,23.0,35.0,10.0,9.0,2.0,-2.0
1701711351.4901938,-3.0,-2.0,-1.0,13.0,3.0,0.0,-1.0,1.0
1701711351.4998307,0.0,-1.0,13.0,1.0,-8.0,-7.0,-7.0,-7.0
1701711351.4998307,3.0,-1.0,-3.0,-10.0,1.0,9.0,4.0,0.0
1701711351.5200698,-8.0,-4.0,-11.0,-15.0,-3.0,-14.0,-1.0,0.0
1701711351.5200698,2.0,1.0,-3.0,-11.0,1.0,2.0,-5.0,0.0
1701711351.5200698,-3.0,-2.0,-8.0,1.0,-1.0,4.0,2.0,-3.0
1701711351.5200698,-3.0,-2.0,10.0,43.0,7.0,-6.0,-5.0,1.0
1701711351.5400946,4.0,0.0,-18.0,-38.0,2.0,16.0,4.0,-2.0
1701711351.5400946,-2.0,-3.0,-2.0,1.0,-11.0,-26.0,-11.0,-5.0
1701711351.5400946,-3.0,-5.0,-7.0,19.0,-3.0,-1.0,5.0,-6.0
1701711351.5400946,3.0,-1.0,3.0,-29.0,-11.0,3.0,2.0,4.0
1701711351.559833,2.0,-4.0,11.0,11.0,-4.0,6.0,2.0,2.0
1701711351.559833,-2.0,-1.0,3.0,-22.0,-2.0,4.0,3.0,-1.0
1701711351.559833,0.0,1.0,10.0,48.0,1.0,-8.0,-7.0,-2.0
1701711351.559833,-1.0,-1.0,8.0,8.0,-1.0,0.0,-1.0,0.0
1701711351.5898285,-1.0,-3.0,-7.0,-19.0,-5.0,-6.0,-3.0,-2.0
1701711351.5898285,1.0,0.0,-18.0,4.0,5.0,8.0,3.0,0.0
1701711351.5898285,-2.0,2.0,-6.0,-10.0,0.0,-3.0,-4.0,-3.0
1701711351.5898285,-1.0,-2.0,1.0,16.0,2.0,3.0,3.0,2.0
1701711351.6001105,-1.0,-1.0,8.0,-9.0,-2.0,-5.0,-3.0,0.0
1701711351.6001105,-1.0,-2.0,14.0,0.0,-1.0,-2.0,2.0,-1.0
1701711351.6001105,0.0,1.0,8.0,0.0,3.0,5.0,-2.0,-2.0
1701711351.6001105,0.0,1.0,-1.0,-8.0,-2.0,-2.0,2.0,0.0
1701711351.6198277,-2.0,-3.0,-3.0,-6.0,-3.0,-1.0,-3.0,-1.0
1701711351.6198277,-3.0,-4.0,2.0,28.0,-4.0,-9.0,-5.0,-2.0
1701711351.6198277,0.0,1.0,0.0,-48.0,-5.0,1.0,1.0,1.0
1701711351.6198277,0.0,2.0,4.0,20.0,16.0,24.0,8.0,2.0
1701711351.6402938,1.0,-3.0,-8.0,-6.0,-6.0,-12.0,-3.0,-1.0
1701711351.6402938,-2.0,1.0,3.0,27.0,4.0,-5.0,-1.0,-3.0
1701711351.6402938,0.0,0.0,1.0,-15.0,-3.0,1.0,-2.0,-2.0
1701711351.6402938,-2.0,-1.0,-1.0,-2.0,-3.0,-7.0,-4.0,-3.0
1701711351.6602774,-1.0,-2.0,-4.0,-9.0,0.0,9.0,0.0,-3.0
1701711351.6602774,-4.0,-2.0,0.0,11.0,-2.0,-3.0,-1.0,-3.0
1701711351.6602774,-2.0,-2.0,-3.0,14.0,6.0,-6.0,-10.0,-3.0
1701711351.6602774,1.0,1.0,1.0,-9.0,1.0,-3.0,-12.0,4.0
1701711351.6701806,-1.0,3.0,-2.0,23.0,9.0,7.0,12.0,-1.0
1701711351.6701806,-1.0,-2.0,-7.0,-25.0,-10.0,-6.0,0.0,0.0
1701711351.6798332,-4.0,-5.0,-13.0,14.0,-4.0,-9.0,-3.0,-6.0
1701711351.6798332,-3.0,-1.0,12.0,12.0,-1.0,-3.0,-7.0,1.0
1701711351.7001133,14.0,1.0,-29.0,-46.0,-2.0,3.0,2.0,3.0
1701711351.7001133,1.0,4.0,17.0,34.0,8.0,7.0,-3.0,-1.0
1701711351.7001133,-1.0,-2.0,-3.0,3.0,0.0,0.0,1.0,5.0
1701711351.7001133,-2.0,-2.0,1.0,21.0,-4.0,-11.0,1.0,-8.0
1701711351.7201283,-5.0,-1.0,-6.0,-35.0,-4.0,-2.0,-11.0,3.0
1701711351.7201283,-2.0,-6.0,-8.0,-40.0,-5.0,-7.0,4.0,-3.0
1701711351.7201283,7.0,2.0,7.0,38.0,0.0,2.0,-6.0,-11.0
1701711351.7201283,-32.0,-7.0,-7.0,-24.0,-9.0,-15.0,-4.0,-27.0
1701711351.7498271,49.0,13.0,6.0,13.0,5.0,7.0,8.0,47.0
1701711351.7498271,1.0,-4.0,6.0,11.0,2.0,4.0,2.0,-2.0
1701711351.7498271,3.0,-4.0,10.0,-38.0,-14.0,-4.0,-9.0,9.0
1701711351.7498271,-15.0,-2.0,-10.0,3.0,6.0,14.0,6.0,-13.0
1701711351.760081,-17.0,0.0,12.0,18.0,-6.0,-14.0,-4.0,-10.0
1701711351.760081,-4.0,-4.0,-2.0,-22.0,-2.0,-7.0,2.0,-5.0
1701711351.760081,-5.0,-1.0,8.0,22.0,12.0,1.0,5.0,-1.0
1701711351.760081,6.0,4.0,4.0,-21.0,10.0,71.0,39.0,-7.0
1701711351.780174,-12.0,-6.0,10.0,-1.0,-4.0,-9.0,-13.0,21.0
1701711351.780174,7.0,-5.0,-11.0,0.0,-2.0,-2.0,-8.0,-10.0
1701711351.809831,-11.0,-6.0,-11.0,-4.0,2.0,4.0,-7.0,-8.0
1701711351.809831,13.0,1.0,1.0,26.0,2.0,-21.0,-10.0,8.0
1701711351.809831,-15.0,-5.0,4.0,30.0,-1.0,-3.0,-5.0,-28.0
1701711351.809831,2.0,5.0,-1.0,-14.0,9.0,18.0,13.0,9.0
1701711351.809831,-4.0,-5.0,-32.0,-52.0,-17.0,-7.0,-3.0,-12.0
1701711351.809831,1.0,-4.0,-3.0,6.0,-1.0,-17.0,-12.0,9.0
1701711351.8200722,8.0,-1.0,19.0,30.0,2.0,16.0,2.0,3.0
1701711351.8200722,-7.0,-3.0,-44.0,-55.0,-17.0,-26.0,-2.0,2.0
1701711351.8200722,8.0,5.0,-3.0,-4.0,1.0,7.0,-35.0,-6.0
1701711351.8200722,-1.0,-3.0,5.0,-18.0,-10.0,-12.0,2.0,11.0
1701711351.8511496,-13.0,-1.0,21.0,48.0,9.0,-5.0,2.0,-18.0
1701711351.8511496,-5.0,-7.0,11.0,7.0,-1.0,-5.0,7.0,0.0
1701711351.8511496,0.0,2.0,23.0,25.0,15.0,17.0,29.0,27.0
1701711351.8511496,11.0,8.0,-25.0,-73.0,-28.0,-1.0,-8.0,-18.0
1701711351.8670056,-3.0,-1.0,20.0,28.0,4.0,-8.0,-8.0,-3.0
1701711351.8670056,-2.0,-5.0,9.0,-4.0,-13.0,3.0,1.0,-2.0
1701711351.867997,-2.0,-5.0,-15.0,-12.0,-4.0,-2.0,21.0,6.0
1701711351.867997,0.0,0.0,8.0,47.0,5.0,-25.0,-12.0,8.0
1701711351.8826182,-3.0,-3.0,-24.0,-74.0,-25.0,-3.0,10.0,-5.0
1701711351.8826182,-1.0,2.0,4.0,31.0,8.0,-6.0,0.0,3.0
1701711351.8826182,-7.0,-5.0,-23.0,-31.0,-9.0,-6.0,-4.0,-4.0
1701711351.8826182,9.0,1.0,10.0,50.0,3.0,17.0,0.0,12.0
1701711351.9026167,-12.0,-9.0,-13.0,-52.0,-4.0,-15.0,-17.0,-28.0
1701711351.9026167,1.0,0.0,15.0,61.0,5.0,-8.0,-6.0,2.0
1701711351.9026167,4.0,5.0,22.0,-22.0,-8.0,17.0,1.0,-5.0
1701711351.9026167,-2.0,-5.0,-5.0,-17.0,-1.0,-17.0,-4.0,3.0
1701711351.9126174,-8.0,-9.0,-13.0,-8.0,-10.0,4.0,8.0,2.0
1701711351.9126174,1.0,6.0,13.0,-16.0,-4.0,9.0,-6.0,-1.0
1701711351.9126174,7.0,5.0,1.0,17.0,4.0,7.0,0.0,1.0
1701711351.9126174,0.0,0.0,-1.0,1.0,35.0,12.0,9.0,5.0
1701711351.9326158,1.0,2.0,-6.0,12.0,-9.0,-10.0,-9.0,0.0
1701711351.9326158,-5.0,-1.0,2.0,3.0,-1.0,1.0,-10.0,-9.0
1701711351.9326158,0.0,-1.0,11.0,-8.0,-8.0,-9.0,-5.0,1.0
1701711351.9426172,-3.0,-4.0,-3.0,-2.0,-3.0,-4.0,-2.0,2.0
1701711351.9626167,0.0,1.0,16.0,13.0,12.0,10.0,1.0,1.0
1701711351.9626167,3.0,5.0,5.0,-12.0,-2.0,1.0,0.0,5.0
1701711351.9626167,-1.0,4.0,49.0,13.0,-7.0,-9.0,2.0,-7.0
1701711351.9626167,2.0,9.0,62.0,33.0,6.0,2.0,-3.0,-3.0
1701711351.982617,-4.0,-11.0,3.0,-12.0,1.0,-2.0,3.0,-2.0
1701711351.982617,-2.0,-3.0,21.0,-11.0,-9.0,-4.0,-2.0,0.0
1701711351.982617,-8.0,-17.0,-22.0,8.0,2.0,-3.0,-2.0,17.0
1701711351.982617,1.0,7.0,37.0,1.0,-5.0,-10.0,-7.0,-30.0
1701711351.9926171,-2.0,-6.0,9.0,-5.0,0.0,12.0,8.0,1.0
1701711351.9926171,-1.0,-9.0,-2.0,-12.0,-3.0,-10.0,-11.0,-6.0
1701711351.9926171,-5.0,12.0,29.0,22.0,11.0,12.0,7.0,7.0
1701711351.9926171,3.0,0.0,-33.0,-4.0,-6.0,3.0,17.0,14.0
1701711352.0226173,-3.0,-4.0,-20.0,-5.0,-7.0,-9.0,-2.0,-4.0
1701711352.0226173,-1.0,-5.0,-37.0,-1.0,-1.0,1.0,-7.0,-6.0
1701711352.0226173,4.0,9.0,-37.0,9.0,9.0,-5.0,-2.0,-4.0
1701711352.0226173,1.0,0.0,-34.0,-13.0,-7.0,-9.0,-14.0,0.0
1701711352.0326176,-2.0,-2.0,-39.0,13.0,5.0,1.0,2.0,-4.0
1701711352.0326176,-5.0,-6.0,-29.0,-36.0,-2.0,-3.0,-6.0,1.0
1701711352.042616,-1.0,-9.0,-25.0,-6.0,-4.0,-7.0,1.0,-8.0
1701711352.042616,-2.0,-7.0,-63.0,-22.0,-10.0,-6.0,-6.0,2.0
1701711352.0626163,1.0,3.0,-6.0,5.0,4.0,9.0,0.0,1.0
1701711352.0626163,-1.0,4.0,4.0,13.0,0.0,1.0,-1.0,-1.0
1701711352.0626163,3.0,8.0,-8.0,-6.0,0.0,-1.0,2.0,-2.0
1701711352.0626163,-1.0,0.0,18.0,19.0,2.0,0.0,-3.0,-1.0
1701711352.082622,-4.0,-8.0,-17.0,-2.0,-2.0,-7.0,-4.0,-2.0
1701711352.082622,3.0,11.0,12.0,10.0,3.0,5.0,1.0,2.0
1701711352.082622,-3.0,-5.0,-1.0,1.0,-2.0,-2.0,-1.0,-8.0
1701711352.082622,-3.0,-3.0,-2.0,-10.0,-6.0,0.0,5.0,2.0
1701711352.092617,6.0,13.0,32.0,24.0,6.0,-1.0,-3.0,1.0
1701711352.092617,-5.0,-8.0,3.0,-6.0,-4.0,3.0,4.0,-2.0
1701711352.1026163,-4.0,-2.0,-7.0,-3.0,-1.0,-6.0,-7.0,-2.0
1701711352.1026163,-3.0,0.0,21.0,10.0,-3.0,-9.0,1.0,0.0
1701711352.122625,2.0,-1.0,-11.0,-8.0,0.0,12.0,7.0,4.0
1701711352.122625,0.0,2.0,-1.0,-1.0,0.0,9.0,8.0,3.0
1701711352.122625,-7.0,-5.0,7.0,-3.0,0.0,2.0,2.0,-12.0
1701711352.122625,13.0,3.0,2.0,-5.0,-1.0,10.0,8.0,21.0
1701711352.1426163,-1.0,5.0,12.0,-2.0,1.0,-11.0,-13.0,-3.0
1701711352.1426163,-3.0,-4.0,-11.0,-1.0,2.0,-1.0,-4.0,0.0
1701711352.1426163,3.0,10.0,8.0,8.0,0.0,-5.0,0.0,-4.0
1701711352.1426163,-9.0,-16.0,-18.0,-13.0,-7.0,-3.0,-4.0,-7.0
1701711352.1526158,-5.0,-7.0,-20.0,-12.0,-8.0,-10.0,-9.0,0.0
1701711352.1526158,4.0,3.0,-5.0,-3.0,-5.0,-1.0,-2.0,-1.0
1701711352.162616,-1.0,-3.0,-16.0,4.0,11.0,1.0,-1.0,0.0
1701711352.162616,-2.0,0.0,-10.0,-5.0,-20.0,-5.0,-4.0,-1.0
1701711352.1726182,2.0,3.0,-7.0,12.0,13.0,3.0,2.0,0.0
1701711352.1726182,-2.0,3.0,16.0,12.0,12.0,2.0,2.0,-2.0
1701711352.1826184,-2.0,-7.0,-13.0,-1.0,-7.0,-4.0,-3.0,-1.0
1701711352.1826184,-2.0,1.0,-10.0,-18.0,-2.0,-3.0,-5.0,-1.0
1701711352.2026167,-1.0,3.0,13.0,9.0,-4.0,1.0,1.0,-2.0
1701711352.2026167,-1.0,-2.0,2.0,2.0,4.0,4.0,0.0,0.0
1701711352.2026167,-1.0,-7.0,-28.0,-36.0,-7.0,1.0,3.0,0.0
1701711352.2026167,-3.0,-4.0,-1.0,1.0,-2.0,-6.0,-6.0,-3.0
1701711352.2126582,-2.0,-4.0,-8.0,-4.0,-4.0,0.0,-4.0,0.0
1701711352.2126582,1.0,5.0,1.0,4.0,3.0,3.0,0.0,1.0
1701711352.2326174,1.0,6.0,18.0,12.0,-3.0,-3.0,-1.0,0.0
1701711352.2326174,-7.0,-11.0,-11.0,-5.0,-3.0,-2.0,-2.0,-6.0
1701711352.2526174,2.0,1.0,9.0,7.0,4.0,-6.0,-16.0,-5.0
1701711352.2526174,-1.0,-4.0,-22.0,-28.0,-9.0,-4.0,-1.0,1.0
1701711352.2526174,3.0,2.0,9.0,7.0,1.0,-1.0,2.0,2.0
1701711352.2526174,0.0,5.0,3.0,-1.0,-10.0,-2.0,-3.0,-1.0
1701711352.2626204,-2.0,-6.0,-24.0,-5.0,4.0,1.0,3.0,0.0
1701711352.2626204,-1.0,-5.0,-8.0,5.0,-1.0,-3.0,-4.0,-3.0
1701711352.2626204,-1.0,-1.0,9.0,18.0,1.0,-3.0,-1.0,0.0
1701711352.2626204,0.0,1.0,-9.0,-34.0,0.0,-2.0,-4.0,-1.0
1701711352.2726414,-2.0,0.0,-6.0,-7.0,-4.0,-3.0,0.0,-2.0
1701711352.2726414,-2.0,4.0,6.0,9.0,4.0,2.0,3.0,0.0
1701711352.2826543,-1.0,-2.0,-16.0,-22.0,-19.0,-6.0,-6.0,-2.0
1701711352.2826543,-2.0,0.0,-1.0,16.0,27.0,10.0,8.0,-2.0
1701711352.30262,0.0,0.0,-2.0,2.0,-5.0,-6.0,7.0,1.0
1701711352.30262,1.0,4.0,-2.0,-20.0,-3.0,0.0,-2.0,1.0
1701711352.30262,-2.0,-4.0,-20.0,5.0,-2.0,-7.0,-6.0,-2.0
1701711352.30262,-3.0,-4.0,-4.0,0.0,3.0,6.0,-2.0,-3.0
1701711352.3226204,2.0,5.0,8.0,-10.0,-2.0,0.0,0.0,-1.0
1701711352.3226204,-3.0,-5.0,-16.0,14.0,4.0,-4.0,2.0,-1.0
1701711352.3226204,1.0,3.0,15.0,13.0,-6.0,0.0,-2.0,-1.0
1701711352.3226204,-6.0,-9.0,-24.0,-23.0,-1.0,-7.0,-5.0,-3.0
1701711352.3526242,-1.0,0.0,7.0,-44.0,0.0,1.0,5.0,4.0
1701711352.3526242,1.0,0.0,15.0,9.0,-5.0,-1.0,-1.0,-1.0
1701711352.3526242,-2.0,-3.0,15.0,-1.0,3.0,2.0,-6.0,-3.0
1701711352.3526242,1.0,3.0,18.0,13.0,-3.0,-5.0,-2.0,-1.0
1701711352.3526242,0.0,3.0,23.0,8.0,-12.0,0.0,-1.0,-2.0
1701711352.3626156,-1.0,-8.0,-5.0,-3.0,19.0,1.0,-2.0,-1.0
1701711352.3626156,0.0,-1.0,3.0,-1.0,2.0,2.0,2.0,-1.0
1701711352.3626156,-2.0,-2.0,13.0,6.0,-2.0,1.0,-6.0,-3.0
1701711352.3853362,-2.0,-2.0,7.0,5.0,-2.0,-6.0,-9.0,-3.0
1701711352.3853362,0.0,-1.0,-6.0,-5.0,-6.0,4.0,6.0,-1.0
1701711352.3861055,-2.0,-2.0,3.0,6.0,11.0,1.0,-3.0,-4.0
1701711352.3861055,-1.0,-1.0,1.0,12.0,10.0,-1.0,2.0,-2.0
1701711352.4084682,2.0,3.0,12.0,0.0,-20.0,2.0,4.0,2.0
1701711352.4084682,-3.0,-2.0,3.0,4.0,-6.0,-7.0,-8.0,-4.0
1701711352.4084682,-1.0,-3.0,0.0,-6.0,-2.0,-1.0,-2.0,-2.0
1701711352.4084682,-1.0,1.0,-6.0,-3.0,-2.0,-2.0,1.0,1.0
1701711352.4186223,-4.0,-4.0,-14.0,9.0,14.0,8.0,1.0,-3.0
1701711352.4186223,0.0,8.0,13.0,-1.0,-8.0,-1.0,0.0,-2.0
1701711352.4186223,-3.0,-6.0,9.0,1.0,-15.0,-5.0,2.0,-5.0
1701711352.4186223,-3.0,-9.0,-65.0,-17.0,3.0,-3.0,-3.0,-2.0
1701711352.4387228,3.0,3.0,-5.0,8.0,9.0,0.0,2.0,1.0
1701711352.4387228,-3.0,-3.0,7.0,3.0,0.0,-5.0,-7.0,-3.0
1701711352.4387228,-2.0,-1.0,7.0,-6.0,-11.0,-4.0,0.0,-1.0
1701711352.4387228,1.0,4.0,16.0,10.0,10.0,6.0,3.0,0.0
1701711352.458477,-1.0,-1.0,-3.0,3.0,-4.0,-1.0,3.0,-2.0
1701711352.458477,0.0,0.0,-11.0,2.0,7.0,-1.0,0.0,2.0
1701711352.458477,-1.0,-1.0,-3.0,-2.0,8.0,-2.0,-2.0,1.0
1701711352.458477,-1.0,-2.0,18.0,14.0,-21.0,1.0,0.0,-1.0
1701711352.4788873,0.0,-1.0,-3.0,-3.0,-2.0,-4.0,-6.0,-4.0
1701711352.4788873,-1.0,-6.0,0.0,-31.0,-7.0,-4.0,-1.0,0.0
1701711352.4788873,-1.0,-1.0,16.0,11.0,8.0,0.0,6.0,3.0
1701711352.4788873,1.0,4.0,0.0,-29.0,-18.0,-7.0,-5.0,-1.0
1701711352.5284667,-5.0,-10.0,-12.0,1.0,18.0,5.0,-1.0,-5.0
1701711352.5284667,-3.0,0.0,-17.0,12.0,-5.0,0.0,-1.0,-3.0
1701711352.5284667,0.0,-6.0,-15.0,-11.0,5.0,4.0,3.0,4.0
1701711352.5284667,2.0,2.0,11.0,12.0,3.0,0.0,3.0,0.0
1701711352.5284667,-1.0,0.0,-8.0,-7.0,1.0,-6.0,-3.0,-2.0
1701711352.5284667,0.0,0.0,3.0,2.0,12.0,3.0,1.0,-1.0
1701711352.5284667,1.0,-1.0,-17.0,-8.0,-10.0,0.0,0.0,0.0
1701711352.5284667,-3.0,-7.0,6.0,17.0,6.0,-1.0,-4.0,-3.0
1701711352.5385723,-2.0,-3.0,-17.0,-19.0,-8.0,-5.0,-5.0,-3.0
1701711352.5385723,4.0,6.0,-1.0,-13.0,-1.0,3.0,0.0,1.0
1701711352.5385723,2.0,1.0,-7.0,0.0,-3.0,1.0,8.0,5.0
1701711352.5385723,2.0,1.0,8.0,-5.0,-8.0,-5.0,-2.0,2.0
1701711352.558742,0.0,-7.0,4.0,19.0,4.0,-1.0,0.0,-1.0
1701711352.558742,-2.0,2.0,5.0,-3.0,-17.0,-4.0,-5.0,-2.0
1701711352.558742,0.0,13.0,10.0,9.0,23.0,3.0,-1.0,-2.0
1701711352.558742,-2.0,-3.0,3.0,-8.0,-2.0,-2.0,1.0,0.0
1701711352.5784674,-2.0,0.0,-11.0,-13.0,-8.0,0.0,2.0,2.0
1701711352.5784674,-2.0,-3.0,4.0,25.0,3.0,-2.0,0.0,-1.0
1701711352.5885255,-3.0,-5.0,-6.0,-14.0,1.0,-3.0,-6.0,-5.0
1701711352.5885255,-2.0,-6.0,-3.0,12.0,-13.0,0.0,0.0,-1.0
1701711352.5988333,1.0,9.0,37.0,-10.0,4.0,0.0,-5.0,-4.0
1701711352.5988333,-2.0,-2.0,-50.0,-39.0,-9.0,-2.0,4.0,2.0
1701711352.5988333,-1.0,-6.0,-20.0,0.0,0.0,-1.0,0.0,1.0
1701711352.5988333,-2.0,-4.0,-5.0,14.0,10.0,4.0,-1.0,-2.0
1701711352.6191976,4.0,5.0,-28.0,3.0,-3.0,-5.0,-3.0,-1.0
1701711352.6191976,-8.0,-4.0,37.0,23.0,3.0,2.0,-8.0,-7.0
1701711352.6191976,-4.0,0.0,-2.0,-6.0,-6.0,-6.0,4.0,-3.0
1701711352.6191976,5.0,10.0,14.0,-6.0,6.0,0.0,9.0,10.0
1701711352.6488502,-3.0,-5.0,11.0,-1.0,-11.0,-2.0,2.0,0.0
1701711352.6488502,-1.0,5.0,0.0,29.0,2.0,-4.0,-3.0,-1.0
1701711352.6488502,-6.0,-16.0,-17.0,-24.0,-11.0,-4.0,-10.0,-8.0
1701711352.6488502,-5.0,-4.0,-2.0,19.0,9.0,5.0,-3.0,-5.0
1701711352.6588597,4.0,8.0,28.0,-4.0,-4.0,0.0,2.0,4.0
1701711352.6588597,-1.0,-4.0,10.0,6.0,-4.0,-1.0,1.0,-1.0
1701711352.6588597,1.0,1.0,-5.0,31.0,2.0,-1.0,-1.0,-1.0
1701711352.6588597,-1.0,4.0,6.0,-56.0,-27.0,-9.0,-5.0,-3.0
1701711352.6888492,-5.0,-13.0,4.0,5.0,10.0,6.0,2.0,1.0
1701711352.6888492,3.0,9.0,10.0,-5.0,-4.0,0.0,-1.0,2.0
1701711352.6888492,-3.0,-13.0,24.0,5.0,0.0,1.0,1.0,0.0
1701711352.6888492,1.0,4.0,-22.0,19.0,18.0,0.0,-2.0,-2.0
1701711352.6992426,-1.0,-4.0,-36.0,16.0,-10.0,1.0,0.0,1.0
1701711352.6992426,2.0,9.0,29.0,-19.0,5.0,-2.0,0.0,1.0
1701711352.6992426,-5.0,-6.0,7.0,-5.0,-12.0,-3.0,-3.0,-2.0
1701711352.6992426,-1.0,-8.0,-26.0,-14.0,14.0,2.0,-2.0,-5.0
1701711352.719299,-1.0,1.0,6.0,14.0,-9.0,-1.0,1.0,0.0
1701711352.719299,-3.0,-5.0,-21.0,-20.0,-22.0,-8.0,-2.0,-1.0
1701711352.719299,2.0,-1.0,-26.0,-3.0,18.0,9.0,-4.0,-1.0
1701711352.719299,-5.0,-14.0,-10.0,-13.0,-2.0,0.0,-1.0,-3.0
1701711352.738851,1.0,9.0,-11.0,9.0,13.0,-4.0,-3.0,-2.0
1701711352.738851,2.0,-6.0,-1.0,-5.0,-21.0,-1.0,3.0,0.0
1701711352.738851,1.0,12.0,-6.0,4.0,7.0,-2.0,0.0,0.0
1701711352.738851,-4.0,-8.0,-7.0,-1.0,13.0,0.0,0.0,-1.0
1701711352.7593162,-2.0,1.0,14.0,-4.0,-1.0,-6.0,-4.0,-4.0
1701711352.7593162,-5.0,-21.0,-31.0,1.0,-3.0,-1.0,-6.0,-3.0
1701711352.7691984,-6.0,-16.0,-34.0,-7.0,-5.0,-3.0,-2.0,-3.0
1701711352.7691984,-2.0,4.0,3.0,2.0,-8.0,1.0,-1.0,1.0
1701711352.779226,-3.0,-6.0,13.0,-8.0,-11.0,-3.0,-1.0,-2.0
1701711352.779226,2.0,14.0,-17.0,5.0,3.0,-2.0,1.0,2.0
1701711352.779226,1.0,15.0,12.0,12.0,-13.0,-5.0,0.0,-1.0
1701711352.779226,-3.0,-6.0,16.0,22.0,6.0,1.0,-3.0,-4.0
1701711352.7988517,-5.0,-7.0,20.0,-15.0,8.0,-1.0,-5.0,-6.0
1701711352.7988517,2.0,-2.0,8.0,21.0,2.0,0.0,3.0,-1.0
1701711352.7988517,-1.0,-2.0,11.0,-11.0,5.0,-4.0,-1.0,-1.0
1701711352.7988517,-2.0,-7.0,-24.0,-6.0,-42.0,-9.0,-3.0,-3.0
1701711352.8192782,1.0,-1.0,3.0,0.0,38.0,10.0,2.0,0.0
1701711352.8192782,-2.0,-4.0,17.0,-2.0,-6.0,0.0,1.0,-2.0
1701711352.8192782,0.0,15.0,40.0,-2.0,2.0,-3.0,1.0,0.0
1701711352.8192782,5.0,11.0,-3.0,-9.0,0.0,-4.0,-2.0,4.0
1701711352.8393066,-5.0,-14.0,-26.0,1.0,-12.0,-2.0,-2.0,-2.0
1701711352.8393066,2.0,11.0,30.0,-7.0,6.0,0.0,2.0,3.0
1701711352.8393066,-2.0,-12.0,-35.0,4.0,6.0,2.0,0.0,1.0
1701711352.8393066,-4.0,-12.0,2.0,-16.0,-16.0,-5.0,-2.0,-3.0
1701711352.8588502,3.0,10.0,3.0,12.0,4.0,7.0,0.0,-1.0
1701711352.8588502,3.0,0.0,-18.0,8.0,22.0,7.0,6.0,4.0
1701711352.8588502,-2.0,-3.0,-2.0,-9.0,-15.0,-5.0,0.0,-2.0
1701711352.8588502,0.0,-2.0,7.0,11.0,10.0,-1.0,-2.0,-1.0
1701711352.8788676,-6.0,-15.0,-52.0,-17.0,-21.0,-5.0,-1.0,-3.0
1701711352.8788676,-5.0,13.0,33.0,-11.0,-15.0,-11.0,-9.0,-9.0
1701711352.8788676,3.0,1.0,-43.0,3.0,-20.0,1.0,-3.0,-1.0
1701711352.8788676,5.0,9.0,32.0,13.0,2.0,5.0,11.0,9.0
1701711352.8988533,-1.0,8.0,32.0,-3.0,-9.0,-3.0,-5.0,-1.0
1701711352.8988533,-7.0,-10.0,-13.0,-7.0,-5.0,-6.0,-7.0,-6.0
1701711352.8988533,5.0,27.0,42.0,8.0,26.0,12.0,2.0,-2.0
1701711352.8988533,-5.0,13.0,32.0,-2.0,-8.0,-4.0,-3.0,-3.0
1701711352.9242225,3.0,-2.0,4.0,-1.0,3.0,-7.0,-2.0,-1.0
1701711352.9251764,-1.0,-20.0,-6.0,10.0,14.0,9.0,3.0,2.0
1701711352.9251764,2.0,0.0,65.0,4.0,4.0,0.0,-2.0,1.0
1701711352.9251764,-4.0,-3.0,53.0,-11.0,5.0,3.0,-3.0,-5.0
1701711352.941163,-6.0,-8.0,-1.0,0.0,2.0,-8.0,0.0,0.0
1701711352.941163,2.0,10.0,18.0,-21.0,-27.0,-8.0,-4.0,-4.0
1701711352.941163,-1.0,-30.0,-73.0,18.0,3.0,13.0,11.0,5.0
1701711352.941163,-1.0,-4.0,-27.0,-7.0,5.0,-4.0,-1.0,-3.0
1701711352.971126,-3.0,-16.0,-40.0,-8.0,-4.0,4.0,-2.0,-2.0
1701711352.971126,7.0,30.0,-2.0,-6.0,-16.0,-8.0,-4.0,-1.0
1701711352.971126,-4.0,-2.0,4.0,-7.0,18.0,-1.0,-2.0,0.0
1701711352.971126,-2.0,-4.0,-5.0,-3.0,0.0,0.0,-3.0,-3.0
1701711352.981127,-2.0,-13.0,6.0,2.0,-10.0,-3.0,-4.0,-3.0
1701711352.981127,-8.0,-21.0,-15.0,-4.0,6.0,3.0,-1.0,-2.0
1701711352.981127,3.0,9.0,26.0,-5.0,-13.0,-4.0,3.0,8.0
1701711352.981127,-3.0,10.0,17.0,13.0,9.0,-2.0,-3.0,-3.0
1701711353.0011263,2.0,30.0,20.0,-10.0,-12.0,-4.0,0.0,0.0
1701711353.0011263,-3.0,0.0,-3.0,4.0,2.0,2.0,-3.0,-2.0
1701711353.0011263,-3.0,-9.0,-20.0,-7.0,-1.0,-5.0,-9.0,-5.0
1701711353.0011263,0.0,8.0,-9.0,-16.0,-27.0,-1.0,-1.0,-1.0
1701711353.0211427,4.0,2.0,-8.0,-1.0,24.0,-1.0,5.0,5.0
1701711353.0211427,-1.0,-11.0,4.0,23.0,39.0,16.0,5.0,3.0
1701711353.031126,-4.0,-14.0,-34.0,-9.0,15.0,2.0,-2.0,-2.0
1701711353.031126,2.0,-5.0,-49.0,3.0,11.0,-3.0,-2.0,-1.0
1701711353.0411263,-3.0,5.0,16.0,0.0,-17.0,0.0,0.0,-4.0
1701711353.0411263,0.0,-10.0,-19.0,-8.0,7.0,-3.0,0.0,1.0
1701711353.0411263,-3.0,-13.0,-15.0,-1.0,-16.0,-7.0,-3.0,-7.0
1701711353.0411263,0.0,-13.0,-16.0,6.0,4.0,4.0,1.0,1.0
1701711353.061161,-3.0,-6.0,-4.0,-2.0,-12.0,-5.0,-1.0,0.0
1701711353.061161,0.0,5.0,-30.0,-4.0,6.0,0.0,-1.0,0.0
1701711353.061161,-2.0,0.0,6.0,-5.0,-22.0,-5.0,-5.0,-3.0
1701711353.061161,2.0,5.0,-3.0,-5.0,-12.0,-3.0,1.0,-1.0
1701711353.0811262,1.0,-2.0,-8.0,-1.0,8.0,-1.0,0.0,0.0
1701711353.0811262,3.0,7.0,8.0,16.0,-3.0,4.0,0.0,0.0
1701711353.0811262,-2.0,5.0,7.0,-9.0,-10.0,-4.0,-2.0,-4.0
1701711353.0811262,-1.0,4.0,12.0,7.0,1.0,-4.0,-2.0,0.0
1701711353.101126,4.0,2.0,-3.0,-10.0,-1.0,7.0,6.0,4.0
1701711353.101126,-4.0,8.0,11.0,-1.0,4.0,-3.0,-3.0,-3.0
1701711353.101126,0.0,16.0,4.0,-5.0,-8.0,-9.0,-2.0,1.0
1701711353.101126,-3.0,-3.0,25.0,9.0,7.0,2.0,-4.0,-4.0
1701711353.1311262,-3.0,-4.0,-19.0,-11.0,-11.0,-4.0,-2.0,-2.0
1701711353.1311262,-3.0,-11.0,22.0,0.0,-9.0,-6.0,0.0,-3.0
1701711353.1311262,1.0,2.0,4.0,-1.0,9.0,5.0,-5.0,-3.0
1701711353.1311262,0.0,2.0,-8.0,-4.0,2.0,-2.0,1.0,-1.0
1701711353.1411266,0.0,-6.0,-2.0,5.0,-3.0,-2.0,3.0,5.0
1701711353.1411266,-4.0,-9.0,-4.0,-2.0,-1.0,-5.0,-7.0,-2.0
1701711353.1411266,-1.0,1.0,8.0,-1.0,-5.0,-1.0,2.0,1.0
1701711353.1411266,-1.0,-25.0,-30.0,-6.0,7.0,2.0,-2.0,-4.0
1701711353.16116,-3.0,-10.0,9.0,1.0,5.0,2.0,-1.0,-4.0
1701711353.16116,-4.0,-11.0,-27.0,16.0,0.0,-6.0,-3.0,-3.0
1701711353.16116,3.0,4.0,11.0,-6.0,-19.0,3.0,0.0,0.0
1701711353.16116,-1.0,-2.0,-22.0,-6.0,7.0,1.0,-1.0,2.0
1701711353.191126,1.0,6.0,3.0,6.0,-7.0,-6.0,-3.0,-1.0
1701711353.191126,0.0,4.0,20.0,-7.0,2.0,5.0,4.0,5.0
1701711353.191126,-1.0,-2.0,1.0,-12.0,-13.0,-7.0,-3.0,-2.0
1701711353.191126,4.0,-7.0,-5.0,16.0,12.0,0.0,2.0,4.0
1701711353.191126,-1.0,2.0,-17.0,-11.0,-12.0,-1.0,-4.0,-2.0
1701711353.191126,-1.0,4.0,2.0,2.0,2.0,-1.0,1.0,-2.0
1701711353.2111256,-6.0,-8.0,-8.0,-3.0,3.0,-1.0,0.0,-5.0
1701711353.2111256,3.0,9.0,19.0,-7.0,-23.0,-5.0,0.0,0.0
1701711353.2211254,-2.0,2.0,6.0,5.0,21.0,4.0,-1.0,-1.0
1701711353.2211254,2.0,-7.0,-19.0,-1.0,-6.0,-1.0,-1.0,0.0
1701711353.2211254,-4.0,-2.0,9.0,-1.0,11.0,-2.0,-3.0,-1.0
1701711353.2211254,-2.0,4.0,-3.0,-12.0,-15.0,-5.0,-3.0,-3.0
1701711353.2511241,1.0,-2.0,5.0,9.0,3.0,3.0,-1.0,1.0
1701711353.2511241,-5.0,-10.0,-25.0,-2.0,0.0,0.0,1.0,-2.0
1701711353.2611508,-1.0,-23.0,-24.0,-4.0,4.0,-4.0,-6.0,2.0
1701711353.2611508,-3.0,2.0,6.0,2.0,0.0,-5.0,-4.0,-2.0
1701711353.2611508,-2.0,1.0,13.0,1.0,5.0,7.0,-1.0,-2.0
1701711353.2611508,-1.0,-3.0,1.0,-4.0,-2.0,0.0,1.0,-1.0
1701711353.2711287,-5.0,-12.0,-15.0,-2.0,-3.0,-7.0,-3.0,-3.0
1701711353.2711287,0.0,7.0,4.0,0.0,-4.0,-4.0,-4.0,-1.0
1701711353.281166,-3.0,-7.0,-10.0,3.0,20.0,3.0,0.0,-2.0
1701711353.281166,5.0,6.0,9.0,-7.0,-10.0,-3.0,-4.0,0.0
1701711353.2911286,-5.0,0.0,-5.0,-7.0,-3.0,1.0,-2.0,-5.0
1701711353.2911286,1.0,5.0,9.0,15.0,13.0,3.0,1.0,2.0
1701711353.3211246,5.0,15.0,-6.0,-1.0,-6.0,-5.0,-2.0,1.0
1701711353.3211246,-5.0,-17.0,-1.0,-21.0,-8.0,-5.0,-2.0,-4.0
1701711353.3211246,1.0,6.0,2.0,7.0,-8.0,-1.0,3.0,2.0
1701711353.3211246,-3.0,-15.0,-6.0,-6.0,1.0,1.0,0.0,-2.0
1701711353.3211246,3.0,11.0,-8.0,2.0,-6.0,0.0,-3.0,-2.0
1701711353.3211246,-2.0,6.0,-32.0,2.0,1.0,-1.0,-4.0,-3.0
1701711353.331128,3.0,9.0,-10.0,6.0,3.0,5.0,6.0,3.0
1701711353.331128,-8.0,-10.0,-1.0,-8.0,-8.0,-4.0,-4.0,-2.0
1701711353.3413632,0.0,-4.0,4.0,-1.0,-2.0,0.0,0.0,0.0
1701711353.3413632,-2.0,3.0,11.0,2.0,0.0,2.0,-2.0,-3.0
1701711353.3511252,5.0,27.0,11.0,9.0,8.0,1.0,0.0,0.0
1701711353.3511252,1.0,-5.0,-3.0,-2.0,-3.0,1.0,-1.0,0.0
1701711353.3611603,6.0,0.0,-19.0,-4.0,-2.0,-4.0,-2.0,2.0
1701711353.3611603,2.0,13.0,10.0,6.0,5.0,2.0,1.0,2.0
1701711353.3611603,-2.0,-11.0,-6.0,-3.0,0.0,-2.0,-2.0,-3.0
1701711353.3611603,2.0,16.0,-11.0,4.0,8.0,3.0,2.0,-1.0
1701711353.3815815,-1.0,11.0,34.0,0.0,-17.0,-6.0,-1.0,-1.0
1701711353.3815815,-3.0,-11.0,-2.0,-2.0,1.0,0.0,-1.0,1.0
1701711353.3911283,1.0,-8.0,-15.0,6.0,6.0,2.0,1.0,1.0
1701711353.3911283,-2.0,2.0,20.0,-3.0,-1.0,1.0,-3.0,-4.0
1701711353.4014435,-5.0,-5.0,10.0,-4.0,-4.0,-4.0,-5.0,-4.0
1701711353.4014435,0.0,-4.0,-15.0,-5.0,-17.0,-4.0,-2.0,1.0
1701711353.4111283,-4.0,-13.0,11.0,3.0,6.0,1.0,-2.0,0.0
1701711353.4111283,4.0,23.0,12.0,3.0,7.0,0.0,0.0,0.0
1701711353.421163,0.0,8.0,19.0,7.0,6.0,6.0,1.0,1.0
1701711353.421163,-3.0,-17.0,10.0,-7.0,-1.0,0.0,-4.0,-3.0
1701711353.421163,-2.0,4.0,-5.0,-17.0,-13.0,-5.0,-4.0,-3.0
1701711353.421163,-6.0,-39.0,-48.0,2.0,-16.0,-1.0,-3.0,-3.0
1701711353.4496126,0.0,2.0,-30.0,-1.0,3.0,-4.0,-6.0,-4.0
1701711353.4496126,-2.0,-9.0,-6.0,-6.0,-3.0,-2.0,10.0,3.0
1701711353.4516695,-1.0,-2.0,-14.0,-23.0,-23.0,-8.0,-4.0,-1.0
1701711353.4516695,-3.0,-17.0,2.0,32.0,46.0,12.0,2.0,-1.0
1701711353.4642339,2.0,-11.0,-47.0,-11.0,-9.0,-7.0,-2.0,-4.0
1701711353.4642339,0.0,-6.0,-14.0,-4.0,-8.0,-4.0,-4.0,1.0
1701711353.4742353,-4.0,3.0,24.0,10.0,19.0,0.0,-1.0,-4.0
