1701711204.8730206,-14.0,28.0,28.0,17.0,-6.0,5.0,18.0,-31.0
1701711204.8730206,2.0,-7.0,-10.0,6.0,0.0,-29.0,-56.0,8.0
1701711204.8930326,-42.0,-17.0,-15.0,3.0,0.0,1.0,6.0,3.0
1701711204.8930326,14.0,-2.0,21.0,11.0,-11.0,-2.0,-1.0,24.0
1701711204.8930326,3.0,-18.0,-4.0,11.0,3.0,1.0,12.0,-10.0
1701711204.8930326,-29.0,-1.0,0.0,0.0,4.0,6.0,0.0,-23.0
1701711204.9031265,1.0,-2.0,-2.0,2.0,-6.0,-13.0,-9.0,-6.0
1701711204.9031265,-1.0,2.0,-5.0,-9.0,-6.0,-2.0,-4.0,3.0
1701711204.9131334,-4.0,-11.0,-6.0,-28.0,-18.0,-19.0,-11.0,7.0
1701711204.9131334,2.0,21.0,43.0,19.0,14.0,13.0,17.0,-5.0
1701711204.9330127,5.0,-2.0,8.0,36.0,2.0,3.0,-5.0,-3.0
1701711204.9330127,0.0,1.0,40.0,13.0,10.0,-11.0,-8.0,-9.0
1701711204.9330127,16.0,1.0,-12.0,54.0,8.0,14.0,7.0,12.0
1701711204.9330127,-11.0,-3.0,-3.0,-22.0,-28.0,-7.0,4.0,-13.0
1701711204.9732068,-4.0,-4.0,-59.0,-4.0,21.0,5.0,4.0,0.0
1701711204.9732068,2.0,0.0,32.0,-22.0,12.0,3.0,-4.0,-2.0
1701711204.9732068,9.0,3.0,1.0,-13.0,-2.0,15.0,5.0,11.0
1701711204.9732068,-7.0,-6.0,-42.0,-29.0,-5.0,20.0,39.0,6.0
1701711204.9732068,-8.0,-11.0,18.0,-7.0,-25.0,-20.0,-10.0,-8.0
1701711204.9732068,4.0,3.0,-6.0,-9.0,8.0,3.0,-11.0,2.0
1701711204.9732068,8.0,7.0,21.0,-4.0,-13.0,3.0,18.0,8.0
1701711204.9732068,-5.0,-2.0,-4.0,5.0,2.0,-1.0,-2.0,-7.0
1701711204.9934547,1.0,-7.0,-4.0,-37.0,-11.0,0.0,1.0,-2.0
1701711204.9934547,1.0,9.0,33.0,40.0,1.0,-21.0,-8.0,-7.0
1701711204.9934547,2.0,-15.0,-10.0,4.0,-3.0,0.0,4.0,8.0
1701711204.9934547,-6.0,4.0,10.0,18.0,-2.0,-6.0,-11.0,-6.0
1701711205.0132065,-1.0,3.0,5.0,15.0,23.0,15.0,7.0,1.0
1701711205.0132065,-3.0,-5.0,2.0,26.0,19.0,5.0,3.0,-1.0
1701711205.0132065,0.0,-4.0,-7.0,-34.0,-27.0,-13.0,3.0,0.0
1701711205.0132065,2.0,3.0,29.0,7.0,64.0,15.0,-1.0,1.0
1701711205.0320404,-2.0,-3.0,5.0,51.0,-43.0,-8.0,6.0,0.0
1701711205.0320404,3.0,2.0,-4.0,-29.0,-9.0,6.0,-3.0,3.0
1701711205.040603,1.0,1.0,-6.0,-9.0,3.0,-2.0,2.0,-4.0
1701711205.040603,-6.0,-7.0,-1.0,-13.0,-19.0,-4.0,-14.0,-10.0
1701711205.056182,1.0,2.0,18.0,31.0,44.0,3.0,-3.0,5.0
1701711205.056182,-3.0,-2.0,3.0,-18.0,-13.0,8.0,14.0,-1.0
1701711205.0571287,2.0,-3.0,6.0,-2.0,-20.0,-44.0,-31.0,-1.0
1701711205.0571287,-2.0,7.0,11.0,19.0,-11.0,42.0,46.0,2.0
1701711205.079343,2.0,-1.0,2.0,13.0,11.0,17.0,-11.0,4.0
1701711205.079343,-2.0,-5.0,-43.0,-49.0,-34.0,-10.0,1.0,-5.0
1701711205.079343,0.0,-3.0,3.0,24.0,57.0,6.0,-5.0,-3.0
1701711205.079343,-5.0,-5.0,2.0,-17.0,-12.0,-21.0,-14.0,-6.0
1701711205.0893667,0.0,1.0,4.0,-2.0,3.0,4.0,2.0,0.0
1701711205.0893667,1.0,0.0,-20.0,-18.0,-11.0,-6.0,0.0,0.0
1701711205.0996325,-5.0,-5.0,-1.0,12.0,-9.0,1.0,-4.0,0.0
1701711205.0996325,-2.0,-8.0,32.0,48.0,11.0,-5.0,-5.0,-1.0
1701711205.109769,-1.0,4.0,-6.0,-27.0,-8.0,-6.0,-3.0,-6.0
1701711205.109769,4.0,3.0,28.0,14.0,-4.0,3.0,9.0,2.0
1701711205.109769,9.0,-11.0,-20.0,-34.0,-9.0,-19.0,-18.0,8.0
1701711205.109769,1.0,9.0,1.0,-16.0,4.0,16.0,18.0,2.0
1701711205.1395764,-1.0,-10.0,8.0,-14.0,-17.0,-8.0,-7.0,-4.0
1701711205.1395764,-2.0,5.0,10.0,43.0,24.0,3.0,-2.0,-4.0
1701711205.1395764,0.0,-1.0,16.0,14.0,-2.0,1.0,5.0,4.0
1701711205.1395764,-1.0,14.0,-3.0,-8.0,-28.0,-17.0,-10.0,-5.0
1701711205.1496081,-1.0,-7.0,-18.0,-29.0,16.0,-9.0,-7.0,-3.0
1701711205.1496081,2.0,3.0,36.0,72.0,26.0,17.0,2.0,2.0
1701711205.1597068,-5.0,-8.0,-3.0,-8.0,9.0,8.0,8.0,-1.0
1701711205.1597068,-3.0,-14.0,-67.0,-24.0,0.0,-11.0,-13.0,-3.0
1701711205.169901,-8.0,0.0,19.0,36.0,-15.0,-11.0,-2.0,-8.0
1701711205.169901,-1.0,-4.0,-16.0,-44.0,-20.0,-14.0,-9.0,-2.0
1701711205.169901,-5.0,-7.0,44.0,-5.0,7.0,7.0,4.0,-4.0
1701711205.169901,-3.0,13.0,-39.0,14.0,4.0,2.0,1.0,-2.0
1701711205.1996255,3.0,-2.0,23.0,2.0,-15.0,-23.0,-8.0,0.0
1701711205.1996255,1.0,-4.0,-29.0,4.0,4.0,34.0,16.0,4.0
1701711205.1996255,3.0,5.0,-25.0,-19.0,-5.0,9.0,8.0,8.0
1701711205.1996255,-5.0,-7.0,25.0,-12.0,7.0,-4.0,-14.0,1.0
1701711205.209786,2.0,-5.0,-23.0,-25.0,-10.0,3.0,17.0,0.0
1701711205.209786,-3.0,0.0,7.0,1.0,-2.0,-2.0,-2.0,-2.0
1701711205.2196624,-4.0,4.0,-46.0,2.0,3.0,3.0,1.0,-5.0
1701711205.2196624,5.0,-11.0,17.0,10.0,-6.0,1.0,-11.0,6.0
1701711205.2396245,-1.0,7.0,-20.0,-17.0,-7.0,-2.0,1.0,-1.0
1701711205.2396245,-9.0,-23.0,-14.0,-1.0,6.0,-13.0,-12.0,-9.0
1701711205.2396245,2.0,8.0,-16.0,3.0,-7.0,1.0,1.0,-1.0
1701711205.2396245,-1.0,3.0,11.0,-6.0,-25.0,-11.0,-6.0,-5.0
1701711205.2498596,-1.0,6.0,-9.0,-58.0,47.0,14.0,4.0,0.0
1701711205.2498596,8.0,-16.0,6.0,32.0,-25.0,-4.0,-2.0,4.0
1701711205.25963,-5.0,10.0,-14.0,66.0,32.0,2.0,-3.0,-6.0
1701711205.25963,1.0,4.0,4.0,-66.0,15.0,6.0,7.0,1.0
1701711205.2696295,4.0,7.0,15.0,-2.0,-54.0,-7.0,-2.0,0.0
1701711205.2696295,-4.0,0.0,-1.0,25.0,38.0,7.0,-1.0,-3.0
1701711205.2796302,3.0,-20.0,-1.0,-14.0,-20.0,-6.0,-2.0,1.0
1701711205.2796302,3.0,4.0,-1.0,-12.0,-8.0,-5.0,-5.0,-1.0
1701711205.2996247,0.0,2.0,-2.0,-36.0,-6.0,-11.0,-2.0,9.0
1701711205.2996247,-16.0,13.0,25.0,7.0,5.0,21.0,5.0,-16.0
1701711205.2996247,-1.0,-2.0,18.0,10.0,-4.0,-8.0,-2.0,-2.0
1701711205.2996247,-1.0,-6.0,-3.0,17.0,12.0,1.0,5.0,2.0
1701711205.30986,3.0,-2.0,-15.0,10.0,0.0,4.0,2.0,-1.0
1701711205.30986,3.0,-1.0,27.0,9.0,-11.0,-27.0,-23.0,3.0
1701711205.3196301,-4.0,3.0,13.0,-19.0,-6.0,-2.0,-1.0,-4.0
1701711205.3196301,-2.0,-2.0,-27.0,21.0,2.0,7.0,2.0,-5.0
1701711205.3299372,-1.0,-7.0,-37.0,-6.0,6.0,-3.0,-7.0,-1.0
1701711205.3299372,1.0,-1.0,-5.0,5.0,-15.0,-13.0,-3.0,-1.0
1701711205.3396695,-2.0,3.0,15.0,-75.0,-8.0,-2.0,-4.0,-2.0
1701711205.3396695,0.0,-2.0,-4.0,32.0,13.0,-1.0,-1.0,3.0
1701711205.3596306,-3.0,-12.0,31.0,28.0,-2.0,5.0,0.0,-5.0
1701711205.3596306,4.0,0.0,-17.0,-23.0,6.0,-3.0,-1.0,1.0
1701711205.3596306,1.0,7.0,-23.0,-5.0,-3.0,5.0,4.0,1.0
1701711205.3596306,0.0,7.0,19.0,8.0,-12.0,-5.0,-2.0,-3.0
1701711205.3696606,-2.0,5.0,-11.0,-8.0,1.0,-1.0,-2.0,-2.0
1701711205.3696606,-3.0,-5.0,3.0,11.0,-4.0,-3.0,0.0,-1.0
1701711205.3796313,2.0,3.0,7.0,18.0,6.0,-3.0,-6.0,1.0
1701711205.3796313,0.0,-11.0,28.0,-35.0,-2.0,1.0,-1.0,-3.0
1701711205.3996863,-6.0,-9.0,-34.0,8.0,-14.0,-9.0,-4.0,-5.0
1701711205.3996863,5.0,16.0,16.0,12.0,7.0,3.0,0.0,3.0
1701711205.3996863,-3.0,-10.0,0.0,2.0,0.0,-5.0,-2.0,-3.0
1701711205.3996863,2.0,-3.0,21.0,25.0,-9.0,2.0,2.0,2.0
1701711205.429625,-3.0,-2.0,12.0,14.0,-2.0,-4.0,-6.0,-3.0
1701711205.429625,1.0,4.0,5.0,-15.0,0.0,0.0,-5.0,2.0
1701711205.429625,-2.0,2.0,12.0,40.0,10.0,2.0,4.0,-4.0
1701711205.429625,1.0,5.0,34.0,13.0,8.0,-1.0,-4.0,0.0
1701711205.429625,0.0,-3.0,3.0,-41.0,-6.0,2.0,1.0,0.0
1701711205.429625,-3.0,-6.0,-19.0,-9.0,-10.0,-14.0,-10.0,-5.0
1701711205.4396286,0.0,5.0,5.0,4.0,-1.0,5.0,4.0,0.0
1701711205.4396286,-1.0,1.0,-32.0,3.0,-3.0,-3.0,-1.0,1.0
1701711205.4696283,0.0,-2.0,3.0,-13.0,2.0,9.0,2.0,-3.0
1701711205.4696283,-5.0,-10.0,-59.0,-40.0,-2.0,-8.0,-7.0,-2.0
1701711205.4696283,0.0,3.0,37.0,-17.0,-10.0,-2.0,-2.0,-1.0
1701711205.4696283,-1.0,-3.0,-1.0,8.0,-1.0,-5.0,-1.0,-2.0
1701711205.4696283,0.0,6.0,8.0,-7.0,4.0,2.0,0.0,2.0
1701711205.4696283,-2.0,-4.0,7.0,-8.0,-12.0,-5.0,2.0,-2.0
1701711205.4696283,-3.0,-11.0,-26.0,-20.0,8.0,2.0,-2.0,0.0
1701711205.4696283,-4.0,-11.0,0.0,-32.0,-31.0,-12.0,-4.0,-4.0
1701711205.4900494,1.0,9.0,-10.0,79.0,34.0,15.0,6.0,2.0
1701711205.4900494,3.0,-11.0,-16.0,-71.0,-14.0,-2.0,5.0,3.0
1701711205.4900494,2.0,18.0,82.0,16.0,7.0,-1.0,-2.0,0.0
1701711205.4900494,-4.0,-1.0,-53.0,-23.0,0.0,0.0,-4.0,-2.0
1701711205.519659,-3.0,-4.0,-3.0,-18.0,-14.0,-3.0,0.0,-3.0
1701711205.519659,-3.0,1.0,7.0,38.0,8.0,1.0,-1.0,-1.0
1701711205.519659,0.0,-7.0,-25.0,-9.0,-8.0,2.0,0.0,1.0
1701711205.519659,-1.0,0.0,-1.0,7.0,4.0,-2.0,-9.0,-1.0
1701711205.5300088,-2.0,-4.0,36.0,-17.0,-11.0,-4.0,3.0,4.0
1701711205.5300088,-2.0,1.0,3.0,23.0,7.0,4.0,2.0,-1.0
1701711205.539983,-7.0,-15.0,-69.0,-10.0,-7.0,-7.0,-4.0,-5.0
1701711205.539983,-3.0,-2.0,-4.0,-26.0,0.0,-4.0,-5.0,-5.0
1701711205.550005,2.0,2.0,4.0,35.0,8.0,-5.0,3.0,-1.0
1701711205.550005,3.0,3.0,16.0,4.0,4.0,6.0,3.0,6.0
1701711205.550005,1.0,-10.0,-12.0,-24.0,-12.0,-4.0,-3.0,-2.0
1701711205.5596282,-9.0,6.0,20.0,67.0,21.0,9.0,8.0,0.0
1701711205.5893528,-11.0,0.0,-26.0,-7.0,3.0,-18.0,-11.0,-9.0
1701711205.5893528,13.0,4.0,-3.0,-23.0,-7.0,-8.0,-6.0,22.0
1701711205.5893528,-6.0,2.0,3.0,4.0,2.0,20.0,4.0,-23.0
1701711205.5893528,1.0,-1.0,-19.0,-12.0,7.0,8.0,4.0,4.0
1701711205.5918982,-2.0,-2.0,29.0,28.0,-3.0,-6.0,-4.0,-6.0
1701711205.5918982,-4.0,-8.0,5.0,18.0,-15.0,-5.0,11.0,-3.0
1701711205.6019404,1.0,-1.0,-34.0,-53.0,6.0,1.0,-2.0,12.0
1701711205.6019404,0.0,1.0,10.0,6.0,-5.0,-7.0,-1.0,-5.0
1701711205.6119552,1.0,0.0,24.0,10.0,0.0,6.0,3.0,3.0
1701711205.6119552,-7.0,-5.0,-42.0,-39.0,5.0,2.0,-1.0,-8.0
1701711205.6319268,-1.0,3.0,34.0,45.0,-5.0,-15.0,-10.0,0.0
1701711205.6319268,-1.0,-20.0,-59.0,-42.0,-10.0,-2.0,1.0,-6.0
1701711205.6319268,2.0,-3.0,29.0,-7.0,-1.0,6.0,0.0,2.0
1701711205.6319268,-5.0,-2.0,-65.0,31.0,3.0,-9.0,-2.0,-6.0
1701711205.6419466,-2.0,7.0,8.0,-70.0,-8.0,8.0,3.0,1.0
1701711205.6419466,11.0,7.0,9.0,-37.0,12.0,21.0,25.0,9.0
1701711205.6522636,-6.0,-9.0,1.0,27.0,-5.0,0.0,-3.0,9.0
1701711205.6522636,7.0,3.0,45.0,-29.0,-6.0,4.0,-2.0,-12.0
1701711205.6619031,-5.0,-4.0,-12.0,38.0,4.0,-5.0,4.0,0.0
1701711205.6619031,-3.0,-6.0,5.0,37.0,1.0,-9.0,-24.0,-9.0
1701711205.6819007,1.0,-10.0,-24.0,-11.0,-5.0,11.0,16.0,9.0
1701711205.6819007,-13.0,26.0,55.0,-25.0,-1.0,-9.0,-6.0,-8.0
1701711205.6819007,11.0,8.0,-19.0,2.0,-1.0,-6.0,-4.0,-1.0
1701711205.6819007,1.0,-7.0,39.0,61.0,15.0,8.0,3.0,0.0
1701711205.692299,10.0,-13.0,-37.0,-11.0,-7.0,-11.0,-9.0,2.0
1701711205.692299,-3.0,24.0,-1.0,29.0,0.0,-15.0,-8.0,2.0
1701711205.7018995,-5.0,1.0,-16.0,26.0,11.0,28.0,6.0,-3.0
1701711205.7018995,-5.0,-12.0,9.0,3.0,-9.0,-10.0,-2.0,-2.0
1701711205.7123291,-4.0,-6.0,-31.0,11.0,-2.0,-13.0,-12.0,-11.0
1701711205.7123291,0.0,-14.0,-13.0,-17.0,-16.0,5.0,5.0,0.0
1701711205.721942,0.0,-6.0,22.0,23.0,3.0,-15.0,-5.0,3.0
1701711205.721942,-3.0,-3.0,-9.0,-8.0,-17.0,-11.0,-6.0,-3.0
1701711205.7322583,-4.0,6.0,-27.0,-27.0,5.0,15.0,3.0,-4.0
1701711205.7322583,2.0,-8.0,23.0,31.0,18.0,2.0,0.0,2.0
1701711205.7322583,-4.0,-6.0,-1.0,-5.0,-25.0,-13.0,-4.0,-3.0
1701711205.7322583,-5.0,-5.0,4.0,-6.0,17.0,0.0,2.0,0.0
1701711205.7519002,2.0,12.0,-8.0,-8.0,-6.0,-15.0,-9.0,-5.0
1701711205.7519002,3.0,-15.0,15.0,-59.0,-31.0,18.0,15.0,3.0
1701711205.7619689,3.0,-7.0,15.0,38.0,8.0,-2.0,-1.0,3.0
1701711205.7619689,-5.0,-1.0,-54.0,-74.0,-43.0,-21.0,-10.0,-6.0
1701711205.7719772,1.0,9.0,3.0,-22.0,-31.0,11.0,3.0,-1.0
1701711205.7719772,2.0,-2.0,20.0,53.0,46.0,2.0,-4.0,-2.0
1701711205.781904,-5.0,-6.0,-37.0,-28.0,-10.0,-2.0,1.0,0.0
1701711205.781904,1.0,-2.0,11.0,-1.0,-8.0,1.0,1.0,1.0
1701711205.8018994,-7.0,2.0,-23.0,-52.0,-8.0,-7.0,-2.0,-5.0
1701711205.8018994,-5.0,-4.0,-23.0,21.0,2.0,-3.0,-5.0,-2.0
1701711205.8018994,4.0,0.0,47.0,46.0,-4.0,-2.0,1.0,3.0
1701711205.8018994,0.0,26.0,5.0,41.0,32.0,3.0,-1.0,1.0
1701711205.8122003,1.0,3.0,37.0,-3.0,1.0,-5.0,-3.0,-1.0
1701711205.8122003,-1.0,-10.0,-18.0,-14.0,-27.0,-2.0,-3.0,-2.0
1701711205.8222208,-5.0,-4.0,-16.0,-8.0,7.0,-5.0,-3.0,0.0
1701711205.8222208,-2.0,-13.0,23.0,71.0,7.0,-2.0,1.0,-1.0
1701711205.8325248,-4.0,2.0,-44.0,-21.0,0.0,12.0,3.0,-1.0
1701711205.8325248,6.0,9.0,36.0,12.0,6.0,-3.0,-4.0,-3.0
1701711205.8422954,7.0,-10.0,13.0,-6.0,-4.0,-3.0,2.0,2.0
1701711205.8422954,-8.0,4.0,9.0,-13.0,-7.0,-2.0,2.0,-2.0
1701711205.8722208,0.0,1.0,25.0,10.0,9.0,-9.0,-20.0,-1.0
1701711205.8722208,0.0,-7.0,-35.0,-16.0,-5.0,-22.0,-4.0,11.0
1701711205.8722208,-8.0,-4.0,2.0,10.0,5.0,35.0,9.0,-13.0
1701711205.8722208,8.0,-10.0,5.0,-23.0,-5.0,-7.0,-5.0,6.0
1701711205.8722208,-3.0,-8.0,12.0,-34.0,-2.0,-3.0,2.0,-4.0
1701711205.8722208,-3.0,-5.0,23.0,27.0,0.0,-1.0,0.0,3.0
1701711205.8822205,-7.0,10.0,-22.0,-16.0,-7.0,-9.0,-6.0,-1.0
1701711205.8822205,-2.0,1.0,-28.0,-76.0,4.0,6.0,1.0,-3.0
1701711205.8922548,0.0,-3.0,39.0,125.0,35.0,16.0,11.0,3.0
1701711205.8922548,-1.0,-3.0,11.0,22.0,-12.0,-3.0,-8.0,-5.0
1701711205.9022193,-4.0,2.0,-42.0,-43.0,-2.0,-5.0,0.0,-2.0
1701711205.9022193,-4.0,1.0,-9.0,13.0,1.0,3.0,-5.0,-6.0
1701711205.912218,6.0,-5.0,-9.0,-17.0,-9.0,-10.0,3.0,6.0
1701711205.912218,-9.0,-3.0,-9.0,-14.0,3.0,0.0,-10.0,-8.0
1701711205.912218,1.0,1.0,20.0,12.0,-1.0,6.0,8.0,2.0
1701711205.912218,-2.0,1.0,6.0,5.0,5.0,-2.0,-3.0,1.0
1701711205.9325192,-4.0,-10.0,-19.0,-13.0,-5.0,1.0,1.0,-4.0
1701711205.9325192,3.0,-28.0,5.0,55.0,16.0,-11.0,-7.0,-1.0
1701711205.9422185,10.0,39.0,-53.0,-46.0,0.0,1.0,2.0,2.0
1701711205.9422185,-4.0,-3.0,-7.0,-6.0,0.0,20.0,17.0,-2.0
1701711205.9524047,2.0,2.0,28.0,11.0,7.0,2.0,-3.0,-2.0
1701711205.9524047,-8.0,-10.0,-2.0,4.0,-8.0,-10.0,-3.0,-4.0
1701711205.9622173,6.0,-11.0,21.0,18.0,6.0,-17.0,-8.0,7.0
1701711205.9622173,-8.0,5.0,0.0,-32.0,-14.0,-1.0,3.0,-17.0
1701711205.9725044,-1.0,-8.0,-27.0,-10.0,-6.0,-6.0,2.0,2.0
1701711205.9725044,4.0,12.0,6.0,-20.0,4.0,9.0,5.0,9.0
1701711205.9826066,1.0,-13.0,13.0,5.0,-6.0,-12.0,7.0,10.0
1701711205.9826066,-1.0,9.0,2.0,27.0,4.0,3.0,-12.0,2.0
1701711205.9926302,-5.0,-3.0,4.0,-15.0,-6.0,-8.0,-3.0,-12.0
1701711205.9926302,0.0,2.0,-15.0,-3.0,8.0,22.0,9.0,3.0
1701711205.9926302,-10.0,-6.0,0.0,13.0,3.0,0.0,1.0,-9.0
1701711205.9926302,-1.0,-11.0,-7.0,-16.0,-12.0,-21.0,-18.0,-8.0
1701711206.0122774,1.0,-3.0,-2.0,7.0,-4.0,-4.0,6.0,0.0
1701711206.0122774,3.0,13.0,15.0,-56.0,-3.0,-6.0,-4.0,-1.0
1701711206.0222178,1.0,-9.0,45.0,15.0,10.0,1.0,-19.0,0.0
1701711206.0222178,2.0,-4.0,-29.0,15.0,-3.0,-4.0,1.0,2.0
1701711206.032217,3.0,9.0,15.0,-20.0,5.0,3.0,17.0,5.0
1701711206.032217,-8.0,0.0,26.0,15.0,-10.0,4.0,2.0,-10.0
1701711206.032217,-1.0,-6.0,5.0,10.0,3.0,12.0,21.0,4.0
1701711206.032217,17.0,2.0,30.0,8.0,1.0,-7.0,-9.0,7.0
1701711206.0523293,-10.0,-3.0,-18.0,-30.0,-6.0,0.0,-5.0,-5.0
1701711206.0523293,-1.0,2.0,-47.0,-24.0,-1.0,-7.0,-8.0,-5.0
1701711206.0523293,-1.0,-4.0,-21.0,-11.0,-5.0,-9.0,-8.0,-1.0
1701711206.0622237,3.0,-5.0,28.0,32.0,13.0,9.0,9.0,5.0
1701711206.072218,-3.0,-7.0,-20.0,-25.0,-6.0,-2.0,-5.0,-7.0
1701711206.072218,5.0,-1.0,4.0,-24.0,-6.0,0.0,10.0,4.0
1701711206.082291,-8.0,11.0,-20.0,-5.0,-23.0,-14.0,-13.0,-8.0
1701711206.082291,-5.0,0.0,-26.0,-1.0,4.0,2.0,1.0,-1.0
1701711206.0922942,4.0,5.0,20.0,-12.0,4.0,5.0,-5.0,0.0
1701711206.0922942,-3.0,0.0,-32.0,-3.0,4.0,3.0,-1.0,-3.0
1701711206.0922942,-3.0,-11.0,-2.0,-23.0,2.0,-12.0,1.0,-5.0
1701711206.0922942,-3.0,-4.0,-3.0,-36.0,-37.0,-4.0,-21.0,-3.0
1701711206.1208775,1.0,4.0,-11.0,11.0,8.0,4.0,10.0,5.0
1701711206.1208775,-5.0,-7.0,-7.0,29.0,26.0,6.0,-2.0,-4.0
1701711206.121874,-4.0,-8.0,-1.0,-8.0,-31.0,-9.0,-2.0,-2.0
1701711206.121874,3.0,13.0,19.0,16.0,39.0,14.0,8.0,0.0
1701711206.1448967,-2.0,-5.0,-18.0,24.0,-16.0,-3.0,-9.0,0.0
1701711206.1448967,-2.0,9.0,0.0,-64.0,0.0,8.0,0.0,-1.0
1701711206.1448967,2.0,-5.0,7.0,91.0,38.0,-3.0,-10.0,-3.0
1701711206.1448967,-3.0,-4.0,10.0,-20.0,-52.0,-11.0,4.0,2.0
1701711206.1552432,3.0,-1.0,-8.0,-19.0,26.0,6.0,-5.0,0.0
1701711206.1552432,-1.0,4.0,22.0,80.0,10.0,-4.0,4.0,-1.0
1701711206.1552432,-5.0,-10.0,1.0,-72.0,-14.0,-10.0,-22.0,-12.0
1701711206.1552432,3.0,-2.0,-25.0,-30.0,-7.0,6.0,21.0,17.0
1701711206.1752644,-1.0,9.0,0.0,9.0,6.0,4.0,-9.0,-19.0
1701711206.1752644,-7.0,-11.0,-7.0,-38.0,-22.0,-11.0,-15.0,-8.0
1701711206.1752644,8.0,0.0,19.0,35.0,12.0,9.0,-3.0,4.0
1701711206.1752644,-3.0,1.0,-6.0,35.0,17.0,-3.0,-3.0,0.0
1701711206.195261,-1.0,-4.0,16.0,-23.0,-15.0,-12.0,-5.0,2.0
1701711206.195261,-2.0,2.0,11.0,36.0,-2.0,5.0,-1.0,1.0
1701711206.195261,2.0,5.0,-13.0,-49.0,-13.0,5.0,0.0,-2.0
1701711206.195261,-2.0,-7.0,7.0,-11.0,20.0,-8.0,-3.0,-1.0
1701711206.215515,-1.0,-13.0,-15.0,12.0,5.0,6.0,5.0,4.0
1701711206.215515,3.0,2.0,45.0,24.0,2.0,-1.0,-1.0,-3.0
1701711206.215515,-1.0,9.0,-19.0,-9.0,0.0,2.0,3.0,4.0
1701711206.215515,-1.0,-5.0,34.0,41.0,2.0,3.0,4.0,-2.0
1701711206.2356064,-8.0,-9.0,-80.0,-24.0,-25.0,-19.0,-10.0,-6.0
1701711206.2356064,4.0,7.0,21.0,26.0,5.0,-1.0,2.0,1.0
1701711206.2356064,-8.0,-10.0,-33.0,18.0,3.0,1.0,-2.0,-2.0
1701711206.2356064,0.0,-2.0,41.0,-3.0,-1.0,4.0,4.0,-1.0
1701711206.2652595,3.0,15.0,-5.0,26.0,11.0,7.0,-4.0,0.0
1701711206.2652595,-2.0,-11.0,21.0,-52.0,-15.0,-9.0,2.0,2.0
1701711206.2652595,0.0,15.0,15.0,47.0,-2.0,0.0,1.0,0.0
1701711206.2652595,0.0,-9.0,-22.0,-21.0,2.0,-6.0,-7.0,-3.0
1701711206.2756426,0.0,-3.0,41.0,8.0,-1.0,1.0,2.0,-1.0
1701711206.2756426,1.0,-1.0,-36.0,-1.0,-7.0,0.0,-2.0,1.0
1701711206.2756426,-4.0,-16.0,13.0,-33.0,-12.0,-17.0,-3.0,-3.0
1701711206.2756426,-2.0,4.0,-10.0,6.0,-31.0,3.0,-3.0,-5.0
1701711206.2952604,3.0,-3.0,79.0,5.0,23.0,2.0,5.0,5.0
1701711206.2952604,-9.0,-16.0,-88.0,-45.0,-15.0,-2.0,-3.0,-6.0
1701711206.2952604,1.0,7.0,18.0,62.0,9.0,10.0,5.0,0.0
1701711206.2952604,-2.0,0.0,-22.0,-44.0,3.0,-8.0,-2.0,0.0
1701711206.3052614,3.0,1.0,24.0,34.0,-13.0,-3.0,-1.0,3.0
1701711206.3052614,3.0,-13.0,-4.0,32.0,9.0,-2.0,0.0,1.0
1701711206.315594,-5.0,-20.0,3.0,-42.0,-23.0,-9.0,-4.0,-3.0
1701711206.315594,-9.0,20.0,5.0,-24.0,12.0,2.0,-1.0,7.0
1701711206.3357146,3.0,17.0,4.0,21.0,8.0,5.0,1.0,-7.0
1701711206.3357146,-4.0,4.0,-16.0,-33.0,1.0,-4.0,-4.0,-4.0
1701711206.3357146,-4.0,-4.0,19.0,51.0,8.0,2.0,4.0,-8.0
1701711206.3357146,57.0,-4.0,-1.0,-51.0,4.0,14.0,5.0,29.0
1701711206.3552608,-9.0,-1.0,-9.0,-21.0,2.0,0.0,-3.0,-3.0
1701711206.3552608,-2.0,-3.0,42.0,-18.0,-14.0,-5.0,-6.0,-9.0
1701711206.3552608,-3.0,0.0,-54.0,-1.0,9.0,6.0,4.0,4.0
1701711206.3552608,-3.0,-6.0,54.0,52.0,7.0,-5.0,1.0,-6.0
1701711206.3757188,4.0,8.0,-20.0,-18.0,-24.0,-13.0,-2.0,-10.0
1701711206.3757188,5.0,17.0,19.0,23.0,9.0,16.0,8.0,12.0
1701711206.3757188,-1.0,-12.0,40.0,-35.0,-2.0,1.0,-1.0,-2.0
1701711206.3757188,-12.0,-10.0,13.0,98.0,17.0,-3.0,-5.0,-8.0
1701711206.3956618,2.0,-1.0,-62.0,-51.0,-5.0,-1.0,-3.0,3.0
1701711206.3956618,-10.0,1.0,34.0,10.0,-4.0,1.0,3.0,-1.0
1701711206.3956618,4.0,-3.0,-69.0,-41.0,7.0,1.0,2.0,-2.0
1701711206.3956618,-17.0,-13.0,11.0,19.0,-9.0,-8.0,-6.0,-8.0
1701711206.415259,-5.0,-18.0,-34.0,-22.0,-6.0,-2.0,-1.0,3.0
1701711206.415259,14.0,15.0,-10.0,-24.0,7.0,1.0,-3.0,-5.0
1701711206.415259,-8.0,-13.0,21.0,0.0,-3.0,1.0,-2.0,1.0
1701711206.415259,-1.0,49.0,27.0,-13.0,-7.0,-6.0,-6.0,-11.0
1701711206.4356065,14.0,3.0,21.0,43.0,1.0,-1.0,4.0,15.0
1701711206.4356065,-4.0,-8.0,-35.0,43.0,-4.0,-12.0,-9.0,-4.0
1701711206.4356065,0.0,7.0,-2.0,-34.0,1.0,3.0,1.0,1.0
1701711206.4356065,-11.0,-18.0,-40.0,-29.0,2.0,9.0,7.0,-6.0
1701711206.4556515,-7.0,-1.0,18.0,21.0,8.0,2.0,1.0,-5.0
1701711206.4556515,0.0,5.0,-9.0,-9.0,-26.0,-8.0,-10.0,-1.0
1701711206.4556515,5.0,-2.0,5.0,15.0,28.0,10.0,5.0,6.0
1701711206.4556515,-7.0,-18.0,-6.0,-14.0,-14.0,-16.0,-10.0,-10.0
1701711206.475262,-2.0,4.0,17.0,-44.0,-12.0,0.0,-2.0,1.0
1701711206.475262,5.0,-15.0,-1.0,23.0,18.0,5.0,7.0,7.0
1701711206.475262,-6.0,4.0,-17.0,-8.0,-22.0,-7.0,-8.0,-7.0
1701711206.475262,7.0,3.0,-23.0,-15.0,1.0,-2.0,1.0,18.0
1701711206.4957068,-9.0,-8.0,-1.0,7.0,1.0,7.0,0.0,-17.0
1701711206.4957068,-7.0,-25.0,-29.0,-7.0,-4.0,-9.0,-3.0,0.0
1701711206.4957068,8.0,20.0,54.0,2.0,2.0,0.0,0.0,1.0
1701711206.4957068,-16.0,8.0,-46.0,-5.0,-8.0,-16.0,-1.0,-4.0
1701711206.5152602,-7.0,-5.0,-6.0,-21.0,-1.0,4.0,1.0,4.0
1701711206.5152602,5.0,6.0,1.0,-4.0,6.0,15.0,8.0,-1.0
1701711206.5252876,-3.0,-17.0,9.0,-1.0,12.0,2.0,-2.0,1.0
1701711206.5252876,4.0,-7.0,-42.0,40.0,-12.0,-7.0,0.0,-4.0
1701711206.5354717,-6.0,3.0,-56.0,39.0,8.0,4.0,10.0,-1.0
1701711206.5354717,-4.0,5.0,-20.0,-64.0,0.0,0.0,-1.0,-2.0
1701711206.5354717,4.0,-4.0,-28.0,-9.0,-12.0,-3.0,-2.0,3.0
1701711206.5354717,-3.0,-24.0,-11.0,39.0,23.0,5.0,0.0,-7.0
1701711206.5557113,-2.0,-5.0,13.0,12.0,2.0,-9.0,-11.0,1.0
1701711206.5557113,2.0,11.0,-7.0,10.0,1.0,4.0,5.0,-2.0
1701711206.5557113,-5.0,1.0,-17.0,19.0,1.0,2.0,-9.0,-3.0
1701711206.5557113,11.0,18.0,72.0,18.0,5.0,4.0,-4.0,0.0
1701711206.5757039,-14.0,-14.0,-30.0,-16.0,-7.0,-4.0,-3.0,-2.0
1701711206.5757039,1.0,7.0,46.0,-29.0,3.0,-5.0,0.0,4.0
1701711206.5757039,-1.0,6.0,15.0,43.0,-2.0,0.0,-5.0,-1.0
1701711206.5757039,1.0,-17.0,81.0,-8.0,8.0,-2.0,-2.0,-4.0
1701711206.6052597,-2.0,-6.0,-13.0,-39.0,-2.0,8.0,8.0,12.0
1701711206.6052597,3.0,-37.0,-45.0,-16.0,-11.0,-5.0,-15.0,2.0
1701711206.6052597,17.0,58.0,99.0,40.0,10.0,0.0,2.0,5.0
1701711206.6052597,-11.0,36.0,-8.0,-21.0,-9.0,-2.0,-3.0,4.0
1701711206.6155162,-17.0,-11.0,-20.0,-17.0,2.0,-13.0,-13.0,-21.0
1701711206.6155162,2.0,10.0,18.0,37.0,-4.0,-11.0,-10.0,-7.0
1701711206.6155162,4.0,-20.0,-10.0,-36.0,-23.0,1.0,16.0,26.0
1701711206.6155162,7.0,-23.0,-24.0,-23.0,-2.0,2.0,-8.0,-21.0
1701711206.6543162,40.0,34.0,49.0,-2.0,-3.0,-7.0,-8.0,12.0
1701711206.6543162,-13.0,7.0,8.0,38.0,13.0,18.0,10.0,-13.0
1701711206.6543162,-11.0,-14.0,-15.0,44.0,2.0,-11.0,-19.0,-4.0
1701711206.6543162,-15.0,-2.0,38.0,-14.0,-3.0,-3.0,14.0,-11.0
1701711206.6574879,9.0,-10.0,12.0,-2.0,-7.0,-4.0,10.0,10.0
1701711206.6574879,0.0,28.0,50.0,69.0,10.0,-4.0,3.0,0.0
1701711206.6574879,14.0,1.0,-33.0,-45.0,-6.0,0.0,-15.0,7.0
1701711206.6574879,-10.0,-2.0,-25.0,5.0,-1.0,7.0,3.0,-5.0
1701711206.677735,-7.0,-4.0,26.0,-7.0,5.0,-4.0,6.0,-8.0
1701711206.677735,9.0,-20.0,41.0,56.0,-5.0,-12.0,6.0,17.0
1701711206.677735,-31.0,27.0,9.0,-40.0,-1.0,4.0,3.0,-43.0
1701711206.677735,-5.0,-11.0,7.0,1.0,-1.0,-5.0,-9.0,1.0
1701711206.707491,2.0,-32.0,15.0,31.0,2.0,5.0,3.0,4.0
1701711206.707491,-20.0,1.0,-89.0,-24.0,-8.0,-8.0,-6.0,-28.0
1701711206.707491,29.0,4.0,-15.0,11.0,-1.0,7.0,11.0,33.0
1701711206.707491,9.0,-2.0,-21.0,-71.0,-12.0,-2.0,1.0,11.0
1701711206.7175236,-6.0,15.0,100.0,72.0,18.0,7.0,-4.0,-11.0
1701711206.7175236,-10.0,-10.0,-25.0,-7.0,-12.0,-17.0,-19.0,-6.0
1701711206.7175236,-4.0,-15.0,13.0,10.0,8.0,14.0,19.0,-6.0
1701711206.7175236,1.0,-8.0,-34.0,15.0,2.0,1.0,1.0,5.0
1701711206.737493,1.0,8.0,-12.0,8.0,9.0,-2.0,-6.0,7.0
1701711206.737493,-3.0,-10.0,1.0,-33.0,-21.0,10.0,5.0,5.0
1701711206.74749,-9.0,-8.0,-25.0,-25.0,-7.0,-10.0,-10.0,-9.0
1701711206.74749,3.0,6.0,-14.0,5.0,20.0,9.0,-1.0,1.0
1701711206.757493,-2.0,7.0,-10.0,27.0,9.0,17.0,7.0,1.0
1701711206.757493,4.0,4.0,5.0,-40.0,11.0,-2.0,0.0,3.0
1701711206.757493,-7.0,-21.0,-23.0,-18.0,-10.0,-17.0,-10.0,-11.0
1701711206.757493,0.0,-3.0,-9.0,24.0,22.0,21.0,7.0,0.0
1701711206.7777183,4.0,1.0,6.0,-29.0,-44.0,-10.0,-12.0,-1.0
1701711206.7777183,0.0,10.0,-4.0,41.0,62.0,12.0,3.0,1.0
1701711206.7777183,-1.0,-6.0,-19.0,-72.0,-34.0,-3.0,4.0,1.0
1701711206.7777183,-4.0,-15.0,4.0,55.0,-3.0,-28.0,-13.0,-5.0
1701711206.8074965,-3.0,-5.0,-17.0,-24.0,-17.0,10.0,4.0,-1.0
1701711206.8074965,5.0,2.0,24.0,-4.0,0.0,12.0,3.0,7.0
1701711206.8074965,-4.0,-7.0,10.0,20.0,-13.0,-18.0,-4.0,-8.0
1701711206.8074965,-4.0,3.0,-20.0,-21.0,6.0,0.0,-10.0,0.0
1701711206.8074965,-3.0,-9.0,-11.0,-18.0,-53.0,-14.0,4.0,-1.0
1701711206.8074965,1.0,10.0,4.0,2.0,18.0,-7.0,-3.0,-2.0
1701711206.817527,-4.0,-6.0,6.0,32.0,25.0,0.0,-2.0,-7.0
1701711206.817527,1.0,-10.0,-13.0,-12.0,-23.0,9.0,-8.0,2.0
1701711206.837881,-2.0,-12.0,-9.0,-5.0,22.0,-4.0,-1.0,11.0
1701711206.837881,-9.0,3.0,3.0,-18.0,-24.0,2.0,0.0,-32.0
1701711206.837881,13.0,-8.0,-8.0,-39.0,-23.0,-11.0,-6.0,5.0
1701711206.837881,-1.0,-1.0,3.0,24.0,-6.0,-7.0,-3.0,3.0
1701711206.8674922,-2.0,2.0,2.0,71.0,-2.0,-5.0,-5.0,-3.0
1701711206.8674922,5.0,-2.0,-18.0,-38.0,2.0,11.0,9.0,14.0
1701711206.8674922,-8.0,-8.0,-15.0,-1.0,8.0,-3.0,-10.0,-7.0
1701711206.8674922,12.0,29.0,110.0,42.0,6.0,9.0,15.0,0.0
1701711206.8674922,-3.0,6.0,-101.0,-104.0,1.0,-7.0,-9.0,-3.0
1701711206.8775024,-6.0,-27.0,28.0,-11.0,-38.0,-14.0,-4.0,0.0
1701711206.8775024,-1.0,42.0,103.0,88.0,26.0,10.0,1.0,2.0
1701711206.8775024,-6.0,-1.0,27.0,-21.0,-3.0,-1.0,0.0,-1.0
1701711206.8975515,-3.0,-7.0,3.0,1.0,-7.0,-7.0,-8.0,-5.0
1701711206.8975515,7.0,9.0,11.0,28.0,13.0,6.0,3.0,9.0
1701711206.8975515,-5.0,-7.0,-12.0,-35.0,-7.0,-7.0,0.0,-5.0
1701711206.8975515,-1.0,-12.0,-82.0,-60.0,11.0,-9.0,-11.0,2.0
1701711206.9274948,6.0,19.0,51.0,43.0,24.0,8.0,7.0,-2.0
1701711206.9274948,-6.0,-2.0,-65.0,-18.0,-8.0,-11.0,-22.0,-6.0
1701711206.9274948,-5.0,-13.0,-1.0,21.0,9.0,4.0,10.0,4.0
1701711206.9274948,-3.0,-6.0,-31.0,-29.0,-63.0,-23.0,-1.0,-6.0
1701711206.9274948,3.0,-4.0,25.0,21.0,76.0,20.0,4.0,-1.0
1701711206.9274948,2.0,0.0,49.0,2.0,4.0,-6.0,-2.0,6.0
1701711206.9375255,1.0,-1.0,-72.0,34.0,0.0,0.0,-2.0,-1.0
1701711206.9375255,-7.0,0.0,-28.0,-62.0,16.0,15.0,4.0,-3.0
1701711206.9575348,2.0,-2.0,10.0,56.0,-5.0,1.0,6.0,4.0
1701711206.9575348,-1.0,2.0,17.0,21.0,23.0,8.0,5.0,1.0
1701711206.9575348,2.0,-4.0,5.0,-45.0,-14.0,-2.0,-1.0,-1.0
1701711206.9575348,10.0,-3.0,6.0,-3.0,3.0,2.0,-5.0,13.0
1701711206.9776704,-25.0,-20.0,-39.0,-42.0,-25.0,-30.0,-12.0,-34.0
1701711206.9776704,3.0,19.0,17.0,37.0,24.0,36.0,20.0,6.0
1701711206.9776704,0.0,-15.0,-15.0,-33.0,-19.0,-3.0,-17.0,18.0
1701711206.9776704,4.0,-9.0,-5.0,-16.0,-12.0,21.0,34.0,-22.0
1701711206.9974966,1.0,14.0,19.0,40.0,-6.0,-4.0,-3.0,4.0
1701711206.9974966,-10.0,-8.0,-42.0,-16.0,-23.0,-26.0,-11.0,-9.0
1701711207.0077958,17.0,-12.0,66.0,26.0,28.0,12.0,3.0,-7.0
1701711207.0077958,-9.0,12.0,-18.0,17.0,-7.0,1.0,-3.0,15.0
1701711207.0174983,-3.0,-17.0,22.0,-4.0,-7.0,-11.0,-11.0,-6.0
1701711207.0174983,-1.0,26.0,-60.0,-49.0,-15.0,-2.0,6.0,-8.0
1701711207.0474937,2.0,2.0,13.0,22.0,4.0,2.0,2.0,4.0
1701711207.0474937,1.0,-14.0,-1.0,-49.0,-7.0,-18.0,-12.0,-3.0
1701711207.0474937,0.0,-11.0,-19.0,0.0,-6.0,-12.0,-3.0,-4.0
1701711207.0474937,-10.0,-16.0,9.0,-33.0,-14.0,2.0,-3.0,-3.0
1701711207.0474937,-1.0,-2.0,-47.0,-74.0,-2.0,4.0,19.0,9.0
1701711207.0474937,-4.0,0.0,11.0,117.0,18.0,2.0,-5.0,-6.0
1701711207.0474937,-8.0,4.0,31.0,-15.0,-11.0,0.0,-4.0,-4.0
1701711207.0474937,7.0,-15.0,23.0,-24.0,-24.0,-7.0,3.0,6.0
1701711207.057519,-6.0,15.0,2.0,40.0,27.0,-2.0,-4.0,-8.0
1701711207.057519,-2.0,-5.0,-12.0,-16.0,-15.0,-2.0,-1.0,-3.0
1701711207.0777524,0.0,-20.0,-16.0,-50.0,-19.0,1.0,-2.0,2.0
1701711207.0777524,3.0,-1.0,5.0,64.0,28.0,-12.0,-8.0,0.0
1701711207.0874903,-8.0,1.0,-32.0,-36.0,26.0,5.0,-3.0,-7.0
1701711207.0874903,3.0,-3.0,28.0,71.0,7.0,4.0,0.0,4.0
1701711207.0975692,7.0,14.0,-2.0,-26.0,14.0,10.0,7.0,5.0
1701711207.0975692,2.0,-15.0,21.0,-24.0,-52.0,-7.0,-8.0,2.0
1701711207.0975692,-10.0,-17.0,-28.0,43.0,-26.0,-12.0,-4.0,-9.0
1701711207.0975692,-3.0,-2.0,3.0,3.0,-6.0,-13.0,-6.0,-1.0
1701711207.117496,-1.0,20.0,33.0,76.0,34.0,15.0,3.0,-7.0
1701711207.117496,-4.0,-9.0,-21.0,-57.0,-8.0,-4.0,0.0,-4.0
1701711207.117496,3.0,9.0,12.0,-15.0,-6.0,-1.0,-3.0,1.0
1701711207.117496,11.0,-7.0,-39.0,-32.0,-2.0,0.0,0.0,-3.0
1701711207.147492,-5.0,-1.0,10.0,4.0,-4.0,0.0,2.0,6.0
1701711207.147492,1.0,10.0,15.0,7.0,15.0,0.0,-11.0,5.0
1701711207.147492,-4.0,0.0,-33.0,-2.0,-11.0,6.0,8.0,-7.0
1701711207.147492,-3.0,-7.0,23.0,-18.0,-2.0,-8.0,-7.0,1.0
1701711207.1627202,-1.0,5.0,-33.0,-1.0,-8.0,-5.0,-5.0,-2.0
1701711207.1627202,1.0,-21.0,-16.0,-4.0,7.0,-3.0,-7.0,-2.0
1701711207.1645331,-2.0,6.0,45.0,6.0,-3.0,4.0,0.0,1.0
1701711207.1645331,-5.0,-1.0,-2.0,12.0,10.0,3.0,-1.0,-4.0
1701711207.1766176,3.0,9.0,-2.0,-12.0,-7.0,0.0,-2.0,3.0
1701711207.1766176,-5.0,-4.0,-9.0,-6.0,-38.0,-13.0,-4.0,-6.0
1701711207.1847336,4.0,-3.0,13.0,46.0,62.0,27.0,7.0,3.0
1701711207.1847336,-2.0,6.0,8.0,16.0,-6.0,-15.0,-8.0,-2.0
1701711207.1906765,3.0,-2.0,-14.0,-15.0,2.0,2.0,-2.0,0.0
1701711207.2006853,0.0,-13.0,-12.0,-4.0,-5.0,3.0,7.0,3.0
1701711207.2006853,-7.0,-6.0,-2.0,-4.0,-20.0,-13.0,-1.0,-5.0
1701711207.2006853,-5.0,6.0,-9.0,8.0,13.0,-2.0,-13.0,-5.0
1701711207.2208834,2.0,-6.0,-15.0,-46.0,-13.0,5.0,17.0,4.0
1701711207.2208834,1.0,1.0,17.0,31.0,12.0,-10.0,-14.0,2.0
1701711207.2208834,-2.0,2.0,9.0,4.0,-6.0,-3.0,-3.0,0.0
1701711207.2208834,-3.0,-8.0,-4.0,12.0,7.0,-1.0,-2.0,-4.0
1701711207.230911,-3.0,5.0,-38.0,-48.0,-19.0,-6.0,-3.0,-1.0
1701711207.230911,1.0,7.0,5.0,-2.0,14.0,7.0,-1.0,-3.0
1701711207.240883,-2.0,-1.0,31.0,11.0,-2.0,-10.0,-6.0,-5.0
1701711207.240883,-2.0,4.0,-15.0,12.0,-16.0,2.0,7.0,3.0
1701711207.2706761,3.0,-13.0,-12.0,7.0,12.0,-1.0,-3.0,1.0
1701711207.2706761,0.0,4.0,17.0,-20.0,-10.0,-3.0,5.0,-2.0
1701711207.2706761,-2.0,-3.0,-41.0,-14.0,-9.0,-5.0,-6.0,-1.0
1701711207.2706761,-3.0,-1.0,34.0,21.0,25.0,6.0,5.0,-4.0
1701711207.2808812,2.0,3.0,-8.0,30.0,7.0,5.0,1.0,1.0
1701711207.2808812,-2.0,-1.0,4.0,-1.0,-4.0,-5.0,-12.0,-4.0
1701711207.2808812,1.0,2.0,-21.0,-15.0,0.0,4.0,9.0,1.0
1701711207.2808812,-2.0,-3.0,-9.0,-10.0,1.0,-5.0,8.0,-2.0
1701711207.3009996,-2.0,-1.0,0.0,-26.0,10.0,19.0,-7.0,6.0
1701711207.3009996,2.0,2.0,-1.0,-15.0,-13.0,-8.0,1.0,-1.0
1701711207.3009996,-2.0,-3.0,8.0,6.0,-3.0,-5.0,-5.0,-5.0
1701711207.3009996,-4.0,-3.0,-56.0,-26.0,-12.0,-5.0,-5.0,-3.0
1701711207.320676,-2.0,-7.0,-19.0,3.0,-5.0,-8.0,2.0,2.0
1701711207.320676,1.0,-2.0,14.0,32.0,4.0,8.0,12.0,1.0
1701711207.320676,-4.0,-12.0,-27.0,-10.0,-6.0,-7.0,-12.0,-2.0
1701711207.320676,2.0,8.0,26.0,-26.0,-1.0,-3.0,-6.0,-4.0
1701711207.3410983,-1.0,-8.0,8.0,10.0,-19.0,2.0,0.0,-3.0
1701711207.3410983,-2.0,-3.0,-18.0,1.0,13.0,1.0,-8.0,1.0
1701711207.3410983,0.0,-5.0,-6.0,-4.0,-8.0,-13.0,-7.0,0.0
1701711207.3410983,2.0,6.0,2.0,-36.0,-9.0,14.0,7.0,6.0
1701711207.3606775,-1.0,-10.0,-5.0,-33.0,17.0,-10.0,2.0,-6.0
1701711207.3606775,-5.0,4.0,7.0,24.0,-5.0,-13.0,-10.0,-13.0
1701711207.3606775,2.0,3.0,5.0,-11.0,-13.0,9.0,19.0,14.0
1701711207.3606775,3.0,-1.0,9.0,26.0,26.0,9.0,0.0,4.0
1701711207.380679,1.0,5.0,17.0,9.0,-24.0,-6.0,-17.0,-3.0
1701711207.380679,-4.0,-12.0,-17.0,-24.0,1.0,-1.0,4.0,-6.0
1701711207.380679,-3.0,-10.0,-9.0,21.0,-10.0,-17.0,-9.0,-8.0
1701711207.380679,2.0,3.0,-24.0,0.0,3.0,5.0,0.0,3.0
1701711207.4010904,-2.0,3.0,19.0,2.0,9.0,-1.0,0.0,-2.0
1701711207.4010904,2.0,6.0,6.0,36.0,8.0,8.0,0.0,-1.0
1701711207.4010904,-1.0,-1.0,-8.0,-88.0,-13.0,-2.0,3.0,-2.0
1701711207.4010904,-4.0,-5.0,-15.0,-3.0,-6.0,-2.0,-2.0,-2.0
1701711207.42068,-3.0,-4.0,10.0,25.0,-4.0,-5.0,-2.0,-5.0
1701711207.42068,1.0,-3.0,5.0,-1.0,0.0,-9.0,-16.0,3.0
1701711207.42068,-6.0,3.0,-55.0,-7.0,1.0,10.0,1.0,-4.0
1701711207.42068,-1.0,-8.0,4.0,-1.0,-7.0,-4.0,0.0,-4.0
1701711207.440682,1.0,0.0,30.0,-1.0,1.0,-1.0,5.0,-1.0
1701711207.440682,0.0,9.0,-26.0,-36.0,-1.0,3.0,6.0,7.0
1701711207.440682,-1.0,0.0,53.0,46.0,2.0,-1.0,-5.0,-1.0
1701711207.440682,0.0,2.0,-4.0,-31.0,-11.0,-7.0,-5.0,-4.0
1701711207.4609876,-5.0,-9.0,-31.0,2.0,-1.0,-4.0,-5.0,-3.0
1701711207.4609876,-1.0,-1.0,24.0,15.0,7.0,-1.0,3.0,1.0
1701711207.4609876,4.0,-2.0,-9.0,13.0,7.0,11.0,-1.0,1.0
1701711207.4609876,-4.0,-14.0,70.0,8.0,-7.0,-2.0,2.0,-2.0
1701711207.4806771,2.0,13.0,28.0,9.0,12.0,-4.0,-3.0,1.0
1701711207.4806771,-1.0,24.0,-68.0,-10.0,-8.0,12.0,8.0,-2.0
1701711207.4806771,-4.0,3.0,-17.0,-68.0,-10.0,-8.0,-1.0,-7.0
1701711207.4806771,4.0,2.0,44.0,36.0,4.0,10.0,-3.0,2.0
1701711207.490959,-8.0,-27.0,-66.0,-15.0,-9.0,-7.0,6.0,-4.0
1701711207.490959,7.0,9.0,85.0,30.0,12.0,-5.0,-15.0,7.0
1701711207.5006852,-9.0,1.0,-78.0,-74.0,-14.0,-6.0,-4.0,-6.0
1701711207.5006852,-1.0,-3.0,4.0,28.0,1.0,-6.0,-6.0,0.0
1701711207.5210624,10.0,1.0,43.0,77.0,3.0,-3.0,-3.0,2.0
1701711207.5210624,-14.0,-13.0,-47.0,-85.0,-8.0,-5.0,10.0,11.0
1701711207.5210624,1.0,0.0,20.0,42.0,6.0,16.0,4.0,-10.0
1701711207.5210624,-4.0,-7.0,-23.0,9.0,-4.0,-19.0,-12.0,-4.0
1701711207.5507195,-5.0,-5.0,19.0,26.0,-3.0,11.0,1.0,-4.0
1701711207.5507195,4.0,15.0,35.0,10.0,5.0,1.0,4.0,3.0
1701711207.5507195,4.0,-1.0,11.0,21.0,19.0,-2.0,-3.0,5.0
1701711207.5507195,-7.0,-8.0,-37.0,-14.0,-27.0,-6.0,7.0,-5.0
1701711207.5507195,6.0,9.0,85.0,25.0,13.0,1.0,1.0,4.0
1701711207.5507195,-12.0,-19.0,-18.0,-19.0,-21.0,-2.0,-1.0,-12.0
1701711207.5606804,12.0,8.0,73.0,76.0,36.0,3.0,2.0,10.0
1701711207.5606804,-3.0,-12.0,-45.0,-33.0,-2.0,-2.0,-3.0,-6.0
1701711207.5806794,9.0,11.0,-9.0,23.0,8.0,2.0,7.0,4.0
1701711207.5806794,-4.0,-18.0,-10.0,-49.0,-29.0,0.0,4.0,2.0
1701711207.5806794,-4.0,-10.0,-16.0,25.0,-3.0,-11.0,-5.0,-10.0
1701711207.5806794,1.0,6.0,18.0,12.0,1.0,9.0,-5.0,2.0
1701711207.6010942,-2.0,-9.0,-12.0,-45.0,-7.0,-11.0,12.0,-2.0
1701711207.6010942,5.0,2.0,-36.0,-29.0,-2.0,0.0,-5.0,-9.0
1701711207.6010942,-1.0,-15.0,34.0,44.0,-4.0,-3.0,-9.0,9.0
1701711207.6010942,-1.0,39.0,19.0,-21.0,2.0,-3.0,-7.0,-4.0
1701711207.6110106,-13.0,-14.0,-39.0,-27.0,-10.0,-5.0,-9.0,-14.0
1701711207.6110106,4.0,7.0,-32.0,46.0,17.0,2.0,19.0,12.0
1701711207.6206832,-6.0,-4.0,17.0,-34.0,-11.0,8.0,-2.0,-3.0
1701711207.6206832,6.0,1.0,12.0,26.0,14.0,-22.0,-16.0,-2.0
1701711207.6406791,9.0,3.0,-13.0,-16.0,-9.0,36.0,37.0,12.0
1701711207.6406791,2.0,-5.0,10.0,0.0,3.0,-3.0,-5.0,3.0
1701711207.6506765,1.0,-1.0,-11.0,-1.0,-8.0,-4.0,-6.0,-3.0
1701711207.6506765,-6.0,-4.0,-11.0,-16.0,0.0,5.0,6.0,-6.0
1701711207.6610532,-3.0,2.0,-16.0,-49.0,-11.0,-22.0,-23.0,-4.0
1701711207.6610532,0.0,-11.0,12.0,52.0,11.0,9.0,-6.0,-6.0
1701711207.6610532,0.0,9.0,3.0,-16.0,-2.0,-14.0,0.0,0.0
1701711207.6610532,-5.0,-12.0,4.0,3.0,3.0,-4.0,-5.0,-6.0
1701711207.6710012,2.0,5.0,19.0,1.0,2.0,-2.0,-12.0,14.0
1701711207.6710012,1.0,-2.0,14.0,3.0,0.0,-1.0,10.0,-6.0
1701711207.6806834,-5.0,3.0,-25.0,-6.0,-4.0,-1.0,2.0,-1.0
1701711207.6806834,2.0,3.0,5.0,-8.0,-3.0,4.0,-5.0,-1.0
1701711207.7028477,-5.0,-13.0,-9.0,-4.0,-5.0,-8.0,-11.0,2.0
1701711207.7028477,-4.0,-13.0,58.0,9.0,0.0,-12.0,-15.0,-5.0
1701711207.7098463,21.0,15.0,-25.0,9.0,3.0,16.0,18.0,0.0
1701711207.7098463,-3.0,-7.0,20.0,45.0,6.0,1.0,-1.0,0.0
1701711207.7234433,13.0,15.0,-38.0,-97.0,-15.0,6.0,16.0,2.0
1701711207.7234433,-8.0,-10.0,62.0,76.0,-8.0,-20.0,-18.0,-6.0
1701711207.7234433,-9.0,-8.0,-26.0,-14.0,-5.0,4.0,7.0,5.0
1701711207.7234433,-1.0,6.0,0.0,-10.0,26.0,26.0,12.0,1.0
1701711207.733814,-7.0,-17.0,32.0,112.0,7.0,-16.0,-19.0,-16.0
1701711207.733814,5.0,11.0,-18.0,-26.0,-9.0,11.0,6.0,3.0
1701711207.7434807,-3.0,-8.0,13.0,23.0,-13.0,-14.0,-17.0,-4.0
1701711207.7434807,3.0,9.0,-50.0,-25.0,8.0,3.0,8.0,4.0
1701711207.7535632,-11.0,-7.0,-5.0,-7.0,-6.0,14.0,7.0,-5.0
1701711207.7535632,0.0,-2.0,-24.0,-16.0,13.0,-4.0,-4.0,8.0
1701711207.7634885,-7.0,-3.0,39.0,-9.0,-16.0,-16.0,-11.0,-24.0
1701711207.7634885,0.0,-5.0,-3.0,-16.0,-8.0,-1.0,4.0,1.0
1701711207.7843122,-2.0,-3.0,-11.0,1.0,-10.0,-15.0,-11.0,-1.0
1701711207.7843122,-4.0,-8.0,-11.0,16.0,25.0,14.0,6.0,-5.0
1701711207.7843122,1.0,14.0,-11.0,-18.0,1.0,-1.0,1.0,7.0
1701711207.7843122,-2.0,2.0,18.0,7.0,-13.0,-6.0,-5.0,-1.0
1701711207.7942455,1.0,5.0,-9.0,-36.0,-23.0,-8.0,-7.0,-3.0
1701711207.7942455,-7.0,-17.0,-55.0,-1.0,9.0,2.0,1.0,-2.0
1701711207.813858,-5.0,1.0,-52.0,49.0,-11.0,-1.0,-2.0,2.0
1701711207.813858,-3.0,-11.0,-5.0,-1.0,11.0,5.0,2.0,-2.0
1701711207.813858,-3.0,34.0,97.0,36.0,5.0,-1.0,-4.0,1.0
1701711207.813858,0.0,-16.0,-47.0,-60.0,-22.0,-2.0,2.0,-4.0
1701711207.8238645,-2.0,-17.0,38.0,32.0,-4.0,-31.0,-20.0,-4.0
1701711207.8238645,1.0,2.0,-18.0,-21.0,-3.0,18.0,15.0,6.0
1701711207.843865,-2.0,-8.0,-5.0,-21.0,11.0,2.0,2.0,-8.0
1701711207.843865,3.0,13.0,23.0,51.0,19.0,17.0,-6.0,6.0
1701711207.843865,-2.0,-3.0,1.0,-33.0,-30.0,-9.0,-1.0,1.0
1701711207.843865,2.0,-7.0,22.0,-17.0,-2.0,-12.0,-5.0,3.0
1701711207.8541062,-6.0,-22.0,-9.0,27.0,2.0,4.0,1.0,0.0
1701711207.8541062,2.0,27.0,31.0,15.0,13.0,3.0,3.0,-5.0
1701711207.883857,-1.0,-5.0,9.0,-45.0,-16.0,2.0,1.0,1.0
1701711207.883857,-4.0,-11.0,-31.0,-8.0,-7.0,-11.0,-6.0,-3.0
1701711207.883857,2.0,-17.0,-45.0,-56.0,2.0,10.0,1.0,0.0
1701711207.883857,-1.0,12.0,-46.0,37.0,5.0,-3.0,0.0,-5.0
1701711207.883857,1.0,3.0,23.0,-37.0,21.0,12.0,5.0,3.0
1701711207.883857,2.0,1.0,16.0,32.0,-43.0,-16.0,-5.0,-3.0
1701711207.904204,-4.0,-6.0,1.0,-20.0,19.0,3.0,-4.0,-2.0
1701711207.904204,4.0,2.0,4.0,77.0,34.0,12.0,5.0,1.0
1701711207.904204,0.0,-2.0,-17.0,-55.0,6.0,3.0,3.0,1.0
1701711207.904204,0.0,10.0,18.0,42.0,9.0,-2.0,-2.0,-1.0
1701711207.914207,-3.0,-2.0,-3.0,6.0,-5.0,-7.0,-5.0,-1.0
1701711207.914207,4.0,-5.0,-49.0,-99.0,-31.0,-7.0,2.0,1.0
1701711207.923864,0.0,3.0,-1.0,62.0,7.0,2.0,1.0,18.0
1701711207.923864,-3.0,0.0,24.0,23.0,7.0,-1.0,-7.0,-24.0
1701711207.9338582,1.0,-11.0,0.0,-77.0,-17.0,0.0,-1.0,6.0
1701711207.9338582,-1.0,21.0,68.0,51.0,17.0,-3.0,2.0,-3.0
1701711207.9438603,-7.0,-10.0,-36.0,-10.0,16.0,5.0,-1.0,-5.0
1701711207.9438603,2.0,-32.0,35.0,-105.0,-17.0,-4.0,5.0,8.0
1701711207.9642575,-4.0,57.0,-62.0,0.0,-19.0,-16.0,-8.0,-8.0
1701711207.9642575,-7.0,-18.0,31.0,-9.0,-11.0,-5.0,-3.0,-7.0
1701711207.9642575,0.0,-5.0,26.0,20.0,-2.0,1.0,-2.0,-6.0
1701711207.9642575,-1.0,6.0,26.0,26.0,14.0,-2.0,0.0,7.0
1701711207.9741764,-2.0,-24.0,-48.0,-72.0,-12.0,-24.0,-20.0,-9.0
1701711207.9741764,2.0,5.0,-13.0,43.0,2.0,15.0,10.0,13.0
1701711207.9838617,-7.0,4.0,-1.0,21.0,3.0,-4.0,-5.0,-11.0
1701711207.9838617,-4.0,-11.0,-51.0,-12.0,1.0,2.0,6.0,-1.0
1701711207.9938939,2.0,-29.0,5.0,60.0,7.0,-2.0,-2.0,5.0
1701711207.9938939,-6.0,31.0,20.0,-26.0,-11.0,-10.0,-4.0,-3.0
1701711208.0038612,-6.0,-5.0,-4.0,29.0,28.0,4.0,2.0,-7.0
1701711208.0038612,-6.0,-10.0,-36.0,-26.0,-40.0,-16.0,-10.0,-7.0
1701711208.0240316,-1.0,-1.0,23.0,8.0,12.0,11.0,5.0,6.0
1701711208.0240316,-3.0,-35.0,-26.0,-28.0,-13.0,-6.0,0.0,-8.0
1701711208.0240316,1.0,19.0,19.0,-20.0,-3.0,2.0,1.0,0.0
1701711208.0240316,-4.0,5.0,-25.0,-18.0,4.0,7.0,3.0,0.0
1701711208.0342066,-3.0,11.0,18.0,41.0,9.0,-6.0,-22.0,-8.0
1701711208.0342066,-1.0,-13.0,-9.0,-22.0,-2.0,-7.0,5.0,3.0
1701711208.0438583,-5.0,-26.0,-27.0,-23.0,-5.0,14.0,11.0,4.0
1701711208.0438583,6.0,16.0,15.0,38.0,9.0,-2.0,-8.0,-4.0
1701711208.053892,2.0,-7.0,20.0,8.0,-2.0,-15.0,4.0,5.0
1701711208.053892,14.0,19.0,9.0,-14.0,-1.0,53.0,31.0,18.0
1701711208.0638638,-4.0,-10.0,29.0,58.0,23.0,-4.0,-1.0,-4.0
1701711208.0638638,-5.0,-7.0,-17.0,-81.0,-10.0,0.0,-9.0,-3.0
1701711208.0838604,2.0,9.0,-49.0,6.0,19.0,17.0,27.0,4.0
1701711208.0838604,-8.0,-14.0,1.0,2.0,-29.0,-22.0,-17.0,-10.0
1701711208.0838604,5.0,8.0,33.0,17.0,-6.0,-5.0,-5.0,-3.0
1701711208.0838604,0.0,-4.0,-18.0,-27.0,7.0,8.0,2.0,3.0
1701711208.0938585,3.0,5.0,19.0,-2.0,3.0,0.0,-4.0,-1.0
1701711208.0938585,0.0,-12.0,-26.0,-7.0,5.0,-15.0,-13.0,-9.0
1701711208.1042264,4.0,2.0,-16.0,-58.0,-10.0,17.0,10.0,7.0
1701711208.1042264,-1.0,-4.0,33.0,52.0,15.0,-12.0,-10.0,-3.0
1701711208.1142583,1.0,-6.0,2.0,-42.0,-80.0,1.0,14.0,6.0
1701711208.1142583,1.0,15.0,-4.0,27.0,87.0,6.0,-10.0,-4.0
1701711208.1238606,-3.0,-13.0,49.0,34.0,-1.0,19.0,27.0,4.0
1701711208.1238606,1.0,12.0,-17.0,-4.0,1.0,-6.0,-20.0,4.0
1701711208.1438904,-9.0,-16.0,-8.0,-7.0,-7.0,4.0,6.0,-4.0
1701711208.1438904,-2.0,-2.0,0.0,-40.0,-53.0,-12.0,2.0,-4.0
1701711208.1438904,-1.0,5.0,-2.0,18.0,14.0,-18.0,-17.0,-3.0
1701711208.1438904,0.0,0.0,-14.0,-6.0,-12.0,1.0,9.0,0.0
1701711208.1538582,-4.0,0.0,19.0,40.0,16.0,-2.0,-4.0,-1.0
1701711208.1538582,-2.0,-1.0,19.0,-38.0,-33.0,-16.0,-13.0,-3.0
1701711208.1640878,5.0,7.0,-3.0,3.0,62.0,4.0,-1.0,2.0
1701711208.1640878,0.0,-1.0,48.0,13.0,-3.0,5.0,8.0,2.0
1701711208.1738656,5.0,20.0,3.0,15.0,17.0,1.0,-9.0,-4.0
1701711208.1738656,2.0,3.0,51.0,19.0,1.0,-1.0,1.0,-1.0
1701711208.184021,-6.0,-20.0,-104.0,3.0,-33.0,-8.0,-7.0,-2.0
1701711208.184021,-5.0,8.0,10.0,4.0,1.0,3.0,5.0,-1.0
1701711208.2241704,4.0,37.0,57.0,38.0,13.0,4.0,-8.0,-6.0
1701711208.2241704,-2.0,-10.0,-25.0,-13.0,-10.0,-5.0,-2.0,-5.0
1701711208.232168,-5.0,-10.0,6.0,-12.0,-19.0,-20.0,-19.0,-2.0
1701711208.232168,0.0,1.0,-2.0,56.0,5.0,1.0,4.0,3.0
1701711208.232168,-8.0,-25.0,-60.0,-37.0,-4.0,-11.0,0.0,-6.0
1701711208.232168,0.0,-8.0,42.0,34.0,-1.0,-6.0,-22.0,-2.0
1701711208.232168,2.0,11.0,6.0,32.0,-5.0,5.0,2.0,13.0
1701711208.232168,-5.0,1.0,-12.0,0.0,5.0,-9.0,-14.0,-25.0
1701711208.2396626,-1.0,-18.0,12.0,24.0,10.0,11.0,3.0,10.0
1701711208.2396626,-3.0,-10.0,1.0,1.0,-14.0,-6.0,2.0,-4.0
1701711208.2396626,2.0,12.0,24.0,-5.0,8.0,2.0,0.0,0.0
1701711208.2396626,0.0,4.0,1.0,5.0,8.0,6.0,7.0,9.0
1701711208.2597225,1.0,-6.0,-66.0,-59.0,-15.0,-7.0,1.0,-3.0
1701711208.2597225,-6.0,-7.0,7.0,2.0,-32.0,-17.0,-11.0,-5.0
1701711208.2597225,-2.0,-3.0,-30.0,-45.0,13.0,5.0,1.0,-4.0
1701711208.2597225,5.0,-5.0,-17.0,20.0,-4.0,9.0,10.0,8.0
1701711208.2801635,-4.0,6.0,-15.0,22.0,10.0,-6.0,-6.0,-6.0
1701711208.2801635,0.0,-7.0,44.0,29.0,19.0,1.0,7.0,5.0
1701711208.2897243,0.0,-2.0,-25.0,-101.0,-43.0,-4.0,-3.0,-4.0
1701711208.2897243,0.0,2.0,12.0,62.0,10.0,2.0,1.0,1.0
1701711208.3001773,-1.0,-1.0,0.0,-42.0,6.0,1.0,-2.0,-1.0
1701711208.3001773,-5.0,-6.0,-34.0,-46.0,-17.0,-7.0,3.0,-5.0
1701711208.3001773,21.0,22.0,78.0,48.0,10.0,-4.0,-8.0,19.0
1701711208.3001773,-13.0,-5.0,-34.0,-19.0,0.0,-7.0,-20.0,-32.0
1701711208.319722,0.0,-2.0,2.0,6.0,2.0,20.0,35.0,11.0
1701711208.319722,0.0,5.0,-29.0,10.0,7.0,7.0,1.0,0.0
1701711208.319722,-3.0,-12.0,-24.0,42.0,7.0,-9.0,-9.0,-6.0
1701711208.319722,8.0,-3.0,45.0,-34.0,-15.0,-4.0,5.0,11.0
1701711208.340139,3.0,5.0,11.0,-19.0,1.0,11.0,-10.0,2.0
1701711208.340139,-4.0,-10.0,-14.0,36.0,14.0,7.0,4.0,-4.0
1701711208.3497233,-6.0,-6.0,-2.0,-18.0,-9.0,-1.0,4.0,-5.0
1701711208.3497233,1.0,3.0,6.0,11.0,5.0,1.0,-1.0,4.0
1701711208.3601243,-8.0,0.0,15.0,70.0,-1.0,-19.0,-6.0,-15.0
1701711208.3601243,-1.0,3.0,-15.0,-68.0,1.0,-6.0,-18.0,3.0
1701711208.3601243,-6.0,-29.0,-16.0,-22.0,-9.0,13.0,-3.0,-6.0
1701711208.3601243,8.0,48.0,36.0,1.0,4.0,-1.0,8.0,6.0
1701711208.3797224,4.0,-8.0,-9.0,13.0,4.0,-4.0,5.0,7.0
1701711208.3797224,-4.0,1.0,14.0,-25.0,-9.0,-7.0,1.0,3.0
1701711208.3797224,-5.0,-6.0,29.0,0.0,-10.0,-8.0,-6.0,-9.0
1701711208.3797224,2.0,-10.0,-2.0,-5.0,3.0,8.0,3.0,5.0
1701711208.3997426,-4.0,-8.0,2.0,8.0,2.0,0.0,2.0,-3.0
1701711208.3997426,2.0,10.0,18.0,18.0,2.0,-5.0,-10.0,-1.0
1701711208.3997426,-2.0,-1.0,8.0,-34.0,-4.0,-4.0,3.0,-5.0
1701711208.4097238,-6.0,-21.0,-20.0,-9.0,-32.0,-4.0,-6.0,-1.0
1701711208.420046,0.0,12.0,67.0,81.0,25.0,2.0,-9.0,-7.0
1701711208.420046,-3.0,-6.0,-24.0,-18.0,10.0,-2.0,5.0,-3.0
1701711208.420046,-1.0,3.0,5.0,31.0,-4.0,-9.0,-8.0,0.0
1701711208.420046,-4.0,-15.0,-14.0,-48.0,-18.0,-1.0,-8.0,-5.0
1701711208.4397223,-1.0,4.0,-14.0,-11.0,-24.0,-2.0,-3.0,2.0
1701711208.4397223,-6.0,-15.0,-14.0,-19.0,-1.0,2.0,1.0,-1.0
1701711208.4397223,0.0,10.0,-7.0,-19.0,29.0,10.0,6.0,-3.0
1701711208.4397223,2.0,2.0,28.0,23.0,3.0,3.0,0.0,6.0
1701711208.4700675,-7.0,-27.0,-40.0,-56.0,-27.0,-15.0,-8.0,-8.0
1701711208.4700675,3.0,3.0,-1.0,9.0,2.0,5.0,7.0,1.0
1701711208.4700675,1.0,7.0,3.0,-1.0,10.0,6.0,8.0,2.0
1701711208.4700675,-1.0,-5.0,-14.0,16.0,24.0,-4.0,-4.0,-1.0
1701711208.479723,-3.0,1.0,10.0,-23.0,6.0,-2.0,-4.0,-1.0
1701711208.479723,1.0,5.0,-26.0,8.0,-18.0,11.0,7.0,1.0
1701711208.479723,1.0,13.0,26.0,20.0,-8.0,-18.0,-15.0,1.0
1701711208.479723,-7.0,-35.0,-75.0,-19.0,-5.0,4.0,14.0,-2.0
1701711208.5001247,-2.0,8.0,42.0,11.0,-2.0,1.0,-9.0,-2.0
1701711208.5001247,-2.0,-8.0,-30.0,-43.0,-10.0,-15.0,-6.0,-6.0
1701711208.5001247,-2.0,-9.0,-8.0,-4.0,-20.0,1.0,2.0,-2.0
1701711208.5001247,-1.0,-4.0,4.0,21.0,12.0,-18.0,-16.0,-3.0
1701711208.5201793,4.0,2.0,-2.0,-25.0,-4.0,23.0,19.0,4.0
1701711208.5201793,0.0,6.0,-5.0,2.0,6.0,5.0,4.0,-3.0
1701711208.5297244,-3.0,-2.0,12.0,1.0,-12.0,-5.0,-1.0,-4.0
1701711208.5297244,-4.0,-10.0,-18.0,-12.0,-12.0,-7.0,-2.0,-1.0
1701711208.5397227,1.0,3.0,-1.0,-7.0,19.0,-6.0,-8.0,-6.0
1701711208.5397227,2.0,7.0,17.0,41.0,5.0,5.0,4.0,2.0
1701711208.5497208,-2.0,-4.0,-32.0,21.0,-9.0,2.0,7.0,2.0
1701711208.5497208,0.0,2.0,-13.0,-94.0,-17.0,-5.0,2.0,0.0
1701711208.5601254,-1.0,-5.0,8.0,74.0,7.0,-1.0,-4.0,0.0
1701711208.5601254,-6.0,-9.0,-34.0,6.0,19.0,10.0,4.0,-2.0
1701711208.5601254,-6.0,-1.0,-47.0,-12.0,-10.0,-2.0,-1.0,-5.0
1701711208.5601254,4.0,25.0,42.0,4.0,6.0,2.0,1.0,4.0
1701711208.5897222,-1.0,-9.0,-32.0,-15.0,-7.0,-2.0,-2.0,-2.0
1701711208.5897222,0.0,7.0,33.0,24.0,-1.0,-4.0,-4.0,-3.0
1701711208.5897222,-9.0,-13.0,-32.0,0.0,7.0,6.0,1.0,-4.0
1701711208.5897222,6.0,2.0,54.0,10.0,6.0,-2.0,-3.0,5.0
1701711208.5999727,-6.0,-10.0,-49.0,-28.0,-22.0,-1.0,11.0,-3.0
1701711208.5999727,4.0,-5.0,-6.0,-1.0,7.0,8.0,4.0,4.0
1701711208.6097255,0.0,11.0,46.0,14.0,-7.0,-5.0,-2.0,-2.0
1701711208.6097255,-3.0,2.0,-27.0,3.0,19.0,14.0,16.0,-2.0
1701711208.620021,0.0,-12.0,6.0,15.0,-19.0,-15.0,-20.0,-5.0
1701711208.620021,4.0,12.0,14.0,-26.0,-5.0,3.0,-2.0,7.0
1701711208.620021,3.0,-12.0,-9.0,23.0,64.0,19.0,6.0,1.0
1701711208.620021,-5.0,-2.0,-14.0,-44.0,-36.0,-16.0,-5.0,-6.0
1701711208.6397293,3.0,12.0,40.0,44.0,37.0,6.0,4.0,3.0
1701711208.6397293,-6.0,-18.0,-19.0,-37.0,-34.0,-6.0,0.0,-6.0
1701711208.6597235,-1.0,-1.0,7.0,-7.0,-16.0,-36.0,-25.0,-3.0
1701711208.6597235,3.0,-1.0,-21.0,20.0,17.0,48.0,37.0,6.0
1701711208.6597235,-5.0,3.0,-13.0,-30.0,2.0,-8.0,-8.0,0.0
1701711208.6597235,0.0,5.0,17.0,8.0,-1.0,-3.0,-8.0,-4.0
1701711208.6597235,-2.0,1.0,16.0,-13.0,-10.0,-6.0,4.0,-5.0
1701711208.6597235,-2.0,-10.0,15.0,53.0,10.0,-7.0,-11.0,-2.0
1701711208.6801946,1.0,6.0,-9.0,-37.0,-15.0,3.0,9.0,-2.0
1701711208.6801946,-11.0,2.0,2.0,-10.0,7.0,3.0,10.0,8.0
1701711208.6801946,-5.0,-1.0,-25.0,1.0,-17.0,6.0,0.0,-15.0
1701711208.6801946,-4.0,-1.0,-19.0,11.0,-3.0,-15.0,-16.0,-2.0
1701711208.7097242,-5.0,-11.0,12.0,28.0,3.0,-17.0,-24.0,-8.0
1701711208.7097242,4.0,9.0,3.0,-4.0,-9.0,22.0,27.0,-1.0
1701711208.7097242,-3.0,-6.0,-10.0,-33.0,-27.0,-22.0,-10.0,2.0
1701711208.7097242,2.0,4.0,15.0,13.0,45.0,15.0,-7.0,6.0
1701711208.7199707,3.0,-10.0,-4.0,9.0,-5.0,-4.0,-9.0,-6.0
1701711208.7199707,-2.0,-7.0,-3.0,-34.0,-39.0,-18.0,-11.0,-4.0
1701711208.7297263,6.0,10.0,21.0,19.0,-4.0,12.0,4.0,6.0
1701711208.7297263,-5.0,-1.0,-19.0,-27.0,-25.0,-17.0,-5.0,-8.0
1701711208.7554483,4.0,0.0,-15.0,-8.0,33.0,7.0,10.0,6.0
1701711208.7554483,-5.0,-21.0,2.0,-26.0,-22.0,-21.0,-29.0,-12.0
1701711208.7667837,-4.0,-12.0,33.0,55.0,17.0,5.0,21.0,-1.0
1701711208.7667837,1.0,35.0,-43.0,-60.0,-7.0,-11.0,-3.0,-2.0
1701711208.7720637,10.0,-23.0,33.0,-10.0,-6.0,-3.0,0.0,45.0
1701711208.7720637,18.0,63.0,-33.0,52.0,11.0,-4.0,-15.0,-72.0
1701711208.7720637,-4.0,-9.0,-43.0,-13.0,8.0,-7.0,0.0,41.0
1701711208.7720637,-8.0,-19.0,1.0,-24.0,-6.0,-3.0,5.0,-7.0
1701711208.7720637,-3.0,6.0,27.0,4.0,-8.0,-6.0,-12.0,5.0
1701711208.7820697,13.0,-19.0,9.0,30.0,25.0,1.0,5.0,8.0
1701711208.7820697,0.0,10.0,47.0,8.0,-7.0,-5.0,-20.0,-17.0
1701711208.7820697,-4.0,-13.0,-34.0,22.0,-14.0,-45.0,-38.0,-11.0
1701711208.8020742,-4.0,13.0,8.0,-61.0,-14.0,29.0,28.0,-5.0
1701711208.8020742,-11.0,-14.0,4.0,18.0,7.0,-10.0,-8.0,11.0
1701711208.8020742,0.0,7.0,-5.0,-23.0,0.0,14.0,3.0,-9.0
1701711208.8020742,-9.0,-24.0,15.0,15.0,-10.0,-6.0,3.0,5.0
1701711208.832063,-2.0,6.0,-16.0,21.0,11.0,-10.0,-11.0,-22.0
1701711208.832063,-4.0,0.0,6.0,3.0,10.0,-1.0,-1.0,12.0
1701711208.832063,3.0,-3.0,-33.0,-62.0,-41.0,-15.0,-1.0,4.0
1701711208.832063,9.0,14.0,35.0,66.0,66.0,34.0,6.0,-4.0
1701711208.832063,-4.0,-2.0,-13.0,-32.0,-24.0,5.0,3.0,-4.0
1701711208.832063,-1.0,-1.0,-1.0,52.0,18.0,13.0,13.0,13.0
1701711208.8423872,-5.0,-6.0,13.0,14.0,0.0,-6.0,-6.0,-12.0
1701711208.8423872,-3.0,-16.0,-17.0,-68.0,-50.0,-2.0,3.0,2.0
1701711208.8621025,1.0,15.0,29.0,26.0,23.0,5.0,-1.0,-5.0
1701711208.8621025,-12.0,-15.0,6.0,-43.0,-12.0,-10.0,-2.0,5.0
1701711208.8621025,5.0,-3.0,5.0,-17.0,-16.0,3.0,2.0,-4.0
1701711208.8621025,0.0,4.0,-4.0,1.0,6.0,4.0,1.0,-2.0
1701711208.8821027,2.0,-3.0,4.0,26.0,-8.0,-8.0,1.0,3.0
1701711208.8821027,-3.0,-9.0,-21.0,-5.0,10.0,-1.0,-5.0,-2.0
1701711208.8821027,3.0,27.0,22.0,29.0,12.0,4.0,5.0,2.0
1701711208.8821027,9.0,5.0,23.0,-1.0,-10.0,2.0,6.0,7.0
1701711208.8924174,-7.0,-1.0,-37.0,-1.0,-2.0,-7.0,-6.0,-11.0
1701711208.902068,0.0,-20.0,2.0,-3.0,-17.0,-18.0,-11.0,2.0
1701711208.902068,0.0,2.0,47.0,0.0,18.0,7.0,10.0,1.0
1701711208.902068,-4.0,-5.0,-57.0,-18.0,-4.0,1.0,0.0,3.0
1701711208.9220643,-3.0,-1.0,-12.0,-13.0,-12.0,2.0,-10.0,-4.0
1701711208.9220643,-6.0,-2.0,-19.0,-15.0,9.0,-2.0,1.0,-2.0
1701711208.9220643,-1.0,-8.0,-7.0,9.0,11.0,16.0,3.0,1.0
1701711208.9220643,8.0,7.0,22.0,-17.0,-21.0,-10.0,1.0,1.0
1701711208.9423904,2.0,-7.0,-5.0,63.0,16.0,-3.0,-4.0,-1.0
1701711208.9423904,-1.0,2.0,26.0,-7.0,-1.0,11.0,11.0,3.0
1701711208.9524388,-2.0,-10.0,-5.0,-1.0,-16.0,-2.0,-3.0,-5.0
1701711208.9524388,-9.0,-9.0,-20.0,5.0,3.0,0.0,-2.0,-6.0
1701711208.9620647,0.0,5.0,4.0,-18.0,-20.0,-3.0,1.0,-2.0
1701711208.9620647,1.0,3.0,2.0,82.0,22.0,5.0,3.0,3.0
1701711208.9620647,1.0,-2.0,-4.0,-12.0,21.0,8.0,4.0,-2.0
1701711208.9620647,-2.0,-7.0,10.0,7.0,-8.0,-4.0,-4.0,-1.0
1701711208.9820647,0.0,-3.0,-3.0,7.0,4.0,-6.0,-1.0,-1.0
1701711208.9820647,-1.0,3.0,13.0,-13.0,-23.0,-2.0,-4.0,0.0
1701711208.992063,-2.0,0.0,-22.0,2.0,-2.0,-6.0,-4.0,-1.0
1701711208.992063,1.0,0.0,12.0,28.0,12.0,4.0,1.0,-1.0
1701711209.0024095,-3.0,-4.0,3.0,-27.0,-11.0,-2.0,1.0,-5.0
1701711209.0024095,2.0,2.0,-6.0,-9.0,8.0,14.0,11.0,3.0
1701711209.0024095,1.0,-3.0,8.0,6.0,1.0,0.0,-6.0,-1.0
1701711209.0024095,1.0,-6.0,1.0,9.0,9.0,-3.0,-5.0,2.0
1701711209.0120645,-5.0,2.0,-27.0,-54.0,-13.0,8.0,11.0,-1.0
1701711209.0120645,1.0,-2.0,24.0,48.0,7.0,-5.0,0.0,2.0
1701711209.022266,0.0,-1.0,-6.0,18.0,-6.0,-8.0,-7.0,-3.0
1701711209.022266,-7.0,-8.0,-6.0,-19.0,9.0,2.0,6.0,-6.0
1701711209.0420654,-3.0,-7.0,-13.0,5.0,-2.0,-8.0,-8.0,-2.0
1701711209.0420654,2.0,4.0,-36.0,-59.0,-2.0,-3.0,1.0,1.0
1701711209.0420654,4.0,2.0,8.0,12.0,-8.0,5.0,4.0,3.0
1701711209.0420654,-3.0,0.0,29.0,13.0,-3.0,-3.0,0.0,-3.0
1701711209.062515,-3.0,1.0,-3.0,5.0,26.0,2.0,0.0,1.0
1701711209.062515,-2.0,-7.0,-33.0,-21.0,-14.0,-5.0,-6.0,-3.0
1701711209.062515,-2.0,-8.0,-10.0,2.0,20.0,-1.0,-3.0,0.0
1701711209.062515,0.0,8.0,9.0,-49.0,-25.0,-7.0,-7.0,-2.0
1701711209.0820646,2.0,3.0,4.0,4.0,5.0,7.0,6.0,0.0
1701711209.0820646,-3.0,-6.0,-12.0,-7.0,-6.0,-11.0,-9.0,-1.0
1701711209.0820646,-2.0,-1.0,-6.0,-9.0,-2.0,1.0,0.0,-2.0
1701711209.0820646,1.0,7.0,43.0,28.0,3.0,4.0,3.0,0.0
1701711209.1020632,-3.0,-13.0,-19.0,4.0,-5.0,-17.0,-10.0,-3.0
1701711209.1020632,2.0,11.0,6.0,-19.0,3.0,15.0,7.0,-1.0
1701711209.1120672,-6.0,-15.0,-60.0,-19.0,-9.0,0.0,0.0,-4.0
1701711209.1120672,10.0,25.0,69.0,42.0,13.0,4.0,5.0,9.0
1701711209.1224167,-2.0,-4.0,-5.0,-14.0,-7.0,-9.0,-8.0,-2.0
1701711209.1224167,0.0,2.0,0.0,-40.0,-3.0,0.0,1.0,-1.0
1701711209.1224167,-11.0,-15.0,-27.0,3.0,-7.0,-1.0,-2.0,-3.0
1701711209.1224167,6.0,4.0,-25.0,-22.0,-1.0,3.0,1.0,-1.0
1701711209.1420708,-3.0,7.0,8.0,15.0,7.0,0.0,-6.0,1.0
1701711209.1420708,-2.0,-8.0,-8.0,-3.0,0.0,10.0,12.0,1.0
1701711209.1520662,-2.0,-4.0,-10.0,-19.0,4.0,-2.0,-3.0,-1.0
1701711209.1520662,0.0,-8.0,-5.0,7.0,-1.0,-1.0,-3.0,-1.0
1701711209.1620638,3.0,0.0,18.0,30.0,-1.0,6.0,3.0,0.0
1701711209.1620638,-6.0,3.0,-8.0,-39.0,8.0,-7.0,-11.0,-4.0
1701711209.1620638,6.0,15.0,24.0,7.0,-3.0,-1.0,2.0,0.0
1701711209.1620638,-6.0,-15.0,-57.0,-51.0,0.0,-8.0,-10.0,-3.0
1701711209.182391,3.0,5.0,20.0,-4.0,7.0,4.0,6.0,-1.0
1701711209.182391,-7.0,-18.0,11.0,9.0,-29.0,-11.0,-15.0,-3.0
1701711209.182391,1.0,0.0,11.0,-22.0,-25.0,-6.0,2.0,-2.0
1701711209.182391,-3.0,-6.0,-12.0,26.0,9.0,0.0,-9.0,-2.0
1701711209.2020633,-2.0,-2.0,14.0,23.0,6.0,12.0,10.0,-2.0
1701711209.2020633,-5.0,11.0,25.0,-38.0,-21.0,-10.0,-8.0,-8.0
1701711209.2020633,2.0,0.0,-52.0,25.0,8.0,0.0,2.0,2.0
1701711209.2020633,-3.0,-6.0,-3.0,-12.0,-8.0,-4.0,1.0,1.0
1701711209.222065,-3.0,1.0,8.0,14.0,3.0,-6.0,-4.0,-3.0
1701711209.222065,-1.0,-10.0,14.0,14.0,6.0,5.0,2.0,-1.0
1701711209.222065,1.0,6.0,1.0,-35.0,-5.0,-9.0,-3.0,0.0
1701711209.222065,0.0,5.0,64.0,115.0,15.0,4.0,3.0,-2.0
1701711209.2421665,-2.0,-7.0,-61.0,-86.0,2.0,-3.0,-5.0,-3.0
1701711209.2421665,2.0,6.0,5.0,46.0,10.0,0.0,2.0,1.0
1701711209.2421665,-2.0,-5.0,17.0,-9.0,1.0,4.0,0.0,-3.0
1701711209.2421665,-3.0,-6.0,-27.0,-6.0,1.0,-9.0,-3.0,-5.0
1701711209.2621834,-1.0,0.0,19.0,18.0,-9.0,7.0,-6.0,2.0
1701711209.2621834,1.0,0.0,-1.0,-11.0,-4.0,-3.0,-8.0,3.0
1701711209.2921615,-2.0,0.0,-1.0,2.0,4.0,-3.0,-2.0,0.0
1701711209.2921615,-4.0,-7.0,2.0,-30.0,-27.0,2.0,1.0,-3.0
1701711209.2971704,1.0,-9.0,-16.0,15.0,1.0,-9.0,-6.0,-3.0
1701711209.2971704,0.0,2.0,-19.0,-15.0,11.0,2.0,2.0,1.0
1701711209.2981703,0.0,-5.0,-24.0,-27.0,-5.0,1.0,0.0,0.0
1701711209.2981703,-1.0,12.0,24.0,-5.0,-8.0,-5.0,-1.0,-1.0
1701711209.3052483,-5.0,-11.0,-41.0,-15.0,-10.0,-8.0,-2.0,-2.0
1701711209.3052483,3.0,-4.0,20.0,46.0,2.0,-3.0,-1.0,2.0
1701711209.3052483,1.0,5.0,11.0,4.0,18.0,5.0,0.0,-2.0
1701711209.3052483,-2.0,-5.0,-3.0,23.0,-12.0,5.0,4.0,-1.0
1701711209.3252504,4.0,1.0,32.0,-6.0,21.0,-1.0,0.0,1.0
1701711209.3252504,-3.0,-3.0,-36.0,-1.0,4.0,8.0,4.0,1.0
1701711209.3252504,-2.0,-6.0,5.0,-9.0,-12.0,-7.0,-4.0,-6.0
1701711209.3252504,2.0,1.0,-6.0,13.0,1.0,-1.0,-10.0,2.0
1701711209.345252,-4.0,-4.0,-15.0,-48.0,-13.0,-8.0,-8.0,-5.0
1701711209.345252,-1.0,-17.0,-6.0,-3.0,-4.0,-21.0,-16.0,-4.0
1701711209.345252,4.0,6.0,27.0,55.0,9.0,10.0,14.0,4.0
1701711209.345252,-2.0,-5.0,-75.0,-58.0,-7.0,-9.0,-14.0,-3.0
1701711209.3656995,-1.0,0.0,61.0,29.0,-4.0,0.0,1.0,0.0
1701711209.3656995,0.0,4.0,-52.0,-36.0,3.0,-2.0,2.0,-2.0
1701711209.3656995,-5.0,-27.0,47.0,-1.0,-9.0,-7.0,-9.0,-4.0
1701711209.3656995,1.0,2.0,-14.0,-4.0,9.0,4.0,5.0,-1.0
1701711209.3852503,-1.0,7.0,-28.0,-31.0,-14.0,-10.0,-1.0,-2.0
1701711209.3852503,-7.0,7.0,-11.0,-5.0,8.0,11.0,4.0,0.0
1701711209.3852503,-3.0,-11.0,37.0,19.0,4.0,-1.0,-5.0,-4.0
1701711209.3852503,-4.0,-21.0,-22.0,-32.0,-17.0,-1.0,7.0,-1.0
1701711209.4052515,3.0,4.0,49.0,49.0,20.0,3.0,0.0,0.0
1701711209.4052515,1.0,1.0,55.0,30.0,-27.0,-4.0,1.0,-2.0
1701711209.4052515,-1.0,0.0,-46.0,2.0,9.0,0.0,-3.0,2.0
1701711209.4052515,2.0,-4.0,50.0,-40.0,-23.0,-3.0,1.0,0.0
1701711209.4252503,-3.0,-2.0,-44.0,-19.0,-8.0,0.0,0.0,0.0
1701711209.4252503,-3.0,4.0,3.0,0.0,12.0,5.0,2.0,-2.0
1701711209.4252503,4.0,13.0,11.0,41.0,8.0,-1.0,1.0,3.0
1701711209.4252503,-2.0,2.0,-21.0,-64.0,-5.0,-3.0,-1.0,-2.0
1701711209.4456244,-1.0,-7.0,-26.0,29.0,-4.0,-1.0,1.0,0.0
1701711209.4456244,3.0,4.0,13.0,-9.0,-2.0,3.0,2.0,1.0
1701711209.4456244,0.0,18.0,-6.0,0.0,-8.0,-4.0,-5.0,-3.0
1701711209.4456244,-2.0,-17.0,-46.0,1.0,9.0,0.0,-3.0,1.0
1701711209.4555159,-5.0,10.0,7.0,-33.0,-14.0,-4.0,-2.0,-4.0
1701711209.4652526,2.0,-12.0,-24.0,11.0,7.0,-7.0,-1.0,0.0
1701711209.4652526,0.0,-14.0,77.0,27.0,0.0,13.0,10.0,2.0
1701711209.4652526,-3.0,17.0,-21.0,39.0,5.0,-2.0,-1.0,-1.0
1701711209.4852538,-1.0,-3.0,-30.0,-23.0,0.0,1.0,3.0,-2.0
1701711209.4852538,-1.0,4.0,30.0,-1.0,1.0,-1.0,-7.0,2.0
1701711209.4852538,-4.0,-14.0,-15.0,-13.0,-8.0,-15.0,-2.0,-4.0
1701711209.4852538,4.0,3.0,15.0,40.0,18.0,27.0,24.0,6.0
1701711209.5056212,-1.0,-6.0,33.0,2.0,-9.0,-3.0,-4.0,-2.0
1701711209.5056212,-3.0,-12.0,-2.0,25.0,4.0,-1.0,0.0,-2.0
1701711209.5156403,2.0,4.0,-71.0,-51.0,-9.0,-6.0,-3.0,1.0
1701711209.5156403,-2.0,6.0,55.0,33.0,11.0,-10.0,-7.0,-3.0
1701711209.5252514,-2.0,-7.0,11.0,38.0,-13.0,-4.0,-4.0,1.0
1701711209.5252514,1.0,13.0,16.0,9.0,23.0,17.0,10.0,2.0
1701711209.5252514,0.0,6.0,-11.0,-18.0,2.0,-1.0,-6.0,0.0
1701711209.5252514,-4.0,3.0,17.0,-21.0,-7.0,-1.0,-3.0,-2.0
1701711209.5452533,6.0,13.0,45.0,71.0,3.0,-4.0,-3.0,0.0
1701711209.5452533,-8.0,-23.0,-26.0,-71.0,-17.0,-9.0,-5.0,-6.0
1701711209.5452533,0.0,1.0,-11.0,-15.0,-6.0,2.0,1.0,-2.0
1701711209.5452533,-1.0,-7.0,14.0,11.0,12.0,-5.0,-6.0,-1.0
1701711209.5655649,-1.0,-6.0,6.0,-14.0,-12.0,-3.0,2.0,-3.0
1701711209.5655649,2.0,0.0,8.0,9.0,13.0,4.0,1.0,2.0
1701711209.5655649,1.0,-1.0,-13.0,-24.0,3.0,-2.0,-5.0,-4.0
1701711209.5655649,-2.0,-8.0,-16.0,-56.0,-4.0,0.0,-1.0,-3.0
1701711209.5852551,1.0,3.0,11.0,59.0,21.0,16.0,8.0,4.0
1701711209.5852551,1.0,7.0,-15.0,-4.0,-17.0,-5.0,-2.0,-2.0
1701711209.5852551,-3.0,-12.0,-31.0,-7.0,-7.0,-1.0,1.0,0.0
1701711209.5852551,-5.0,-3.0,13.0,45.0,-4.0,-6.0,-7.0,-6.0
1701711209.625251,-2.0,-4.0,-8.0,-38.0,-3.0,-2.0,-6.0,0.0
1701711209.625251,2.0,2.0,12.0,-11.0,-5.0,-2.0,0.0,1.0
1701711209.625251,-2.0,1.0,29.0,46.0,12.0,2.0,-5.0,-4.0
1701711209.625251,-1.0,5.0,-40.0,-31.0,-8.0,-6.0,-3.0,-3.0
1701711209.625251,-1.0,-1.0,-1.0,-8.0,5.0,1.0,2.0,0.0
1701711209.625251,-1.0,-5.0,11.0,32.0,-5.0,-4.0,1.0,-2.0
1701711209.625251,0.0,-10.0,21.0,-31.0,0.0,-5.0,-8.0,-2.0
1701711209.625251,-2.0,8.0,-52.0,15.0,-2.0,-3.0,-1.0,-1.0
1701711209.6452549,-2.0,-3.0,20.0,7.0,-3.0,1.0,1.0,-2.0
1701711209.6452549,0.0,4.0,0.0,36.0,15.0,-1.0,2.0,0.0
1701711209.6552494,-3.0,-4.0,-16.0,-38.0,-11.0,-6.0,-6.0,-2.0
1701711209.6552494,2.0,-3.0,36.0,-5.0,-2.0,6.0,4.0,1.0
1701711209.6654978,-2.0,-3.0,-45.0,12.0,-3.0,-8.0,-4.0,-3.0
1701711209.6654978,-3.0,-5.0,18.0,17.0,-7.0,-6.0,-4.0,-2.0
1701711209.6654978,1.0,12.0,21.0,-5.0,5.0,8.0,5.0,1.0
1701711209.6654978,-1.0,-16.0,-27.0,14.0,19.0,1.0,-1.0,1.0
1701711209.685597,-4.0,-28.0,-20.0,-34.0,-4.0,-1.0,-2.0,-3.0
1701711209.685597,2.0,38.0,-9.0,-1.0,-3.0,-5.0,6.0,0.0
1701711209.685597,-2.0,16.0,4.0,12.0,-16.0,-7.0,-11.0,-3.0
1701711209.685597,0.0,2.0,8.0,21.0,3.0,0.0,10.0,4.0
1701711209.6954525,-6.0,-26.0,-29.0,-30.0,2.0,-7.0,-6.0,-9.0
1701711209.6954525,-2.0,27.0,72.0,-4.0,-6.0,-13.0,-26.0,-11.0
1701711209.73525,16.0,3.0,-30.0,21.0,8.0,11.0,15.0,16.0
1701711209.73525,-9.0,14.0,26.0,3.0,-4.0,15.0,32.0,12.0
1701711209.73525,1.0,30.0,17.0,-13.0,4.0,-4.0,-4.0,4.0
1701711209.73525,-8.0,-28.0,-45.0,-55.0,-11.0,-8.0,-3.0,-10.0
1701711209.73525,-12.0,-5.0,9.0,35.0,3.0,-9.0,-10.0,-14.0
1701711209.73525,12.0,4.0,21.0,11.0,4.0,-2.0,-10.0,4.0
1701711209.7455404,0.0,-12.0,9.0,-25.0,-15.0,-3.0,1.0,0.0
1701711209.7455404,-1.0,-1.0,-6.0,-25.0,4.0,9.0,2.0,0.0
1701711209.7455404,-4.0,-9.0,-22.0,-74.0,-14.0,-4.0,0.0,-3.0
1701711209.7455404,-4.0,-12.0,11.0,31.0,4.0,-4.0,-9.0,-7.0
1701711209.7555158,-1.0,2.0,-1.0,-39.0,-23.0,-11.0,-4.0,-1.0
1701711209.7555158,0.0,-3.0,-12.0,61.0,24.0,6.0,0.0,0.0
1701711209.7653356,-2.0,0.0,0.0,4.0,-11.0,2.0,2.0,1.0
1701711209.7653356,4.0,-2.0,15.0,20.0,50.0,12.0,-2.0,-1.0
1701711209.795248,0.0,7.0,1.0,-9.0,3.0,0.0,0.0,-1.0
1701711209.795248,3.0,1.0,53.0,56.0,-3.0,-1.0,2.0,4.0
1701711209.795248,-5.0,-8.0,-39.0,-85.0,-31.0,-8.0,-1.0,-2.0
1701711209.795248,-4.0,2.0,1.0,20.0,-17.0,-7.0,-10.0,-6.0
1701711209.8103037,1.0,0.0,-35.0,12.0,5.0,3.0,2.0,2.0
1701711209.810963,-1.0,-19.0,0.0,-14.0,-3.0,-3.0,-5.0,2.0
1701711209.8119562,-3.0,6.0,11.0,49.0,14.0,-2.0,-4.0,-5.0
1701711209.8119562,-1.0,-11.0,-33.0,-35.0,-21.0,-16.0,-15.0,-5.0
1701711209.8237607,-4.0,9.0,15.0,-25.0,7.0,-1.0,2.0,-4.0
1701711209.8237607,9.0,2.0,5.0,-13.0,-15.0,9.0,6.0,25.0
1701711209.8375487,-3.0,-1.0,11.0,49.0,19.0,18.0,10.0,-22.0
1701711209.8375487,-12.0,-1.0,6.0,-50.0,-13.0,-14.0,-16.0,-4.0
1701711209.8387766,1.0,8.0,-42.0,1.0,-2.0,12.0,21.0,1.0
1701711209.8488224,-2.0,-12.0,-57.0,3.0,1.0,-6.0,-1.0,-2.0
1701711209.8488224,-3.0,-8.0,5.0,3.0,-3.0,-11.0,-8.0,2.0
1701711209.8488224,-2.0,10.0,3.0,24.0,-3.0,4.0,5.0,-4.0
1701711209.8693066,2.0,2.0,17.0,-11.0,5.0,-3.0,-5.0,-1.0
1701711209.8693066,-1.0,-8.0,-6.0,-18.0,-8.0,-3.0,0.0,-3.0
1701711209.8693066,1.0,3.0,3.0,15.0,11.0,2.0,-1.0,6.0
1701711209.8693066,0.0,-14.0,-19.0,-31.0,-10.0,-4.0,-2.0,-7.0
1701711209.8791523,-4.0,3.0,17.0,19.0,-3.0,-3.0,-7.0,3.0
1701711209.8791523,0.0,-1.0,-8.0,10.0,13.0,2.0,1.0,-5.0
1701711209.8894243,1.0,-7.0,17.0,-4.0,-9.0,-3.0,1.0,4.0
1701711209.8894243,0.0,1.0,2.0,15.0,2.0,-2.0,0.0,1.0
1701711209.919146,-2.0,-1.0,7.0,-31.0,-7.0,-1.0,-4.0,-1.0
1701711209.919146,-2.0,-3.0,-12.0,-18.0,-6.0,-1.0,1.0,-5.0
1701711209.919146,-2.0,11.0,29.0,16.0,3.0,5.0,-3.0,2.0
1701711209.919146,2.0,-13.0,-33.0,-46.0,-3.0,1.0,2.0,2.0
1701711209.9293046,2.0,4.0,25.0,43.0,11.0,1.0,-3.0,-2.0
1701711209.9293046,-2.0,9.0,15.0,-5.0,1.0,-1.0,1.0,-6.0
1701711209.9293046,-2.0,-8.0,-27.0,-2.0,-4.0,-8.0,-3.0,3.0
1701711209.9293046,2.0,4.0,28.0,-15.0,-6.0,0.0,-4.0,-2.0
1701711209.9491427,0.0,-10.0,10.0,26.0,-3.0,2.0,-2.0,-1.0
1701711209.9491427,-4.0,-5.0,-31.0,-9.0,-6.0,-4.0,-3.0,-3.0
1701711209.9491427,3.0,4.0,10.0,8.0,12.0,1.0,1.0,2.0
1701711209.9491427,-1.0,3.0,-12.0,7.0,-12.0,2.0,1.0,-2.0
1701711209.9595065,-2.0,-10.0,-6.0,-3.0,0.0,-4.0,-3.0,-2.0
1701711209.9595065,1.0,-2.0,-7.0,-41.0,-2.0,1.0,2.0,0.0
1701711209.969144,-3.0,-4.0,-13.0,-15.0,-6.0,-5.0,-2.0,-2.0
1701711209.969144,-2.0,-2.0,6.0,14.0,-14.0,-2.0,-3.0,-4.0
1701711209.9893882,2.0,6.0,18.0,30.0,25.0,-2.0,-1.0,4.0
1701711209.9893882,-1.0,-1.0,16.0,-3.0,-8.0,-4.0,-3.0,-1.0
1701711209.9893882,2.0,-3.0,7.0,-6.0,-2.0,-2.0,1.0,-1.0
1701711209.9893882,-2.0,4.0,21.0,-14.0,7.0,1.0,-1.0,0.0
1701711209.999146,-2.0,-13.0,-37.0,35.0,-10.0,4.0,-2.0,-1.0
1701711209.999146,-3.0,13.0,32.0,-10.0,-2.0,-5.0,-5.0,-7.0
1701711210.0091789,9.0,-11.0,54.0,-25.0,4.0,8.0,0.0,5.0
1701711210.0091789,-21.0,25.0,-7.0,54.0,-4.0,-11.0,-4.0,-4.0
1701711210.019548,0.0,-8.0,7.0,-48.0,-2.0,1.0,-4.0,-3.0
1701711210.019548,1.0,-4.0,-41.0,-17.0,-4.0,5.0,8.0,2.0
1701711210.02929,2.0,-25.0,20.0,10.0,-1.0,-4.0,-7.0,10.0
1701711210.02929,1.0,8.0,2.0,0.0,1.0,-5.0,-8.0,-10.0
1701711210.0493956,-2.0,2.0,-4.0,3.0,-1.0,4.0,3.0,1.0
1701711210.0493956,-2.0,5.0,6.0,49.0,8.0,-3.0,-7.0,-7.0
1701711210.0493956,-1.0,-7.0,-33.0,-27.0,-5.0,-4.0,2.0,2.0
1701711210.0493956,5.0,-9.0,6.0,18.0,8.0,5.0,5.0,5.0
1701711210.0591462,-7.0,-3.0,-23.0,-6.0,-8.0,-5.0,-3.0,-6.0
1701711210.0591462,2.0,-10.0,10.0,-11.0,2.0,2.0,4.0,5.0
1701711210.0791452,-3.0,8.0,-36.0,-3.0,-17.0,-7.0,-3.0,-5.0
1701711210.0791452,4.0,-6.0,-2.0,21.0,11.0,2.0,1.0,0.0
1701711210.0791452,-2.0,2.0,22.0,-1.0,-2.0,0.0,-3.0,-5.0
1701711210.0791452,-2.0,-8.0,3.0,-7.0,-3.0,0.0,-1.0,-2.0
1701711210.0891445,-5.0,5.0,-24.0,-3.0,4.0,2.0,1.0,-8.0
1701711210.0891445,-1.0,-7.0,-32.0,-43.0,-11.0,-6.0,-6.0,-2.0
1701711210.109399,1.0,-5.0,31.0,-9.0,-24.0,-10.0,-4.0,1.0
1701711210.109399,-3.0,-1.0,4.0,-14.0,-2.0,-2.0,-4.0,-3.0
1701711210.109399,0.0,13.0,-21.0,69.0,41.0,19.0,12.0,1.0
1701711210.109399,5.0,-9.0,-8.0,-17.0,-8.0,-1.0,0.0,4.0
1701711210.1294236,2.0,1.0,-3.0,23.0,9.0,1.0,1.0,-1.0
1701711210.1294236,-4.0,-19.0,-25.0,-20.0,-14.0,-7.0,-3.0,-3.0
1701711210.1391485,-8.0,4.0,22.0,-9.0,-15.0,-17.0,-7.0,-10.0
1701711210.1391485,5.0,0.0,54.0,22.0,10.0,12.0,2.0,7.0
1701711210.1391485,0.0,1.0,-28.0,-59.0,-12.0,-2.0,2.0,-3.0
1701711210.1391485,-3.0,-2.0,19.0,43.0,9.0,-8.0,-6.0,-5.0
1701711210.1491494,-1.0,2.0,10.0,6.0,-1.0,11.0,2.0,3.0
1701711210.1491494,0.0,-6.0,8.0,20.0,3.0,-2.0,0.0,1.0
1701711210.1891437,1.0,3.0,-11.0,-5.0,-1.0,-10.0,-9.0,0.0
1701711210.1891437,2.0,9.0,1.0,-1.0,6.0,12.0,9.0,2.0
1701711210.1891437,-8.0,-12.0,-25.0,-5.0,-8.0,-11.0,-9.0,-8.0
1701711210.1891437,-2.0,-3.0,-2.0,-21.0,-13.0,-3.0,1.0,-3.0
1701711210.1891437,2.0,4.0,0.0,33.0,18.0,9.0,3.0,1.0
1701711210.1891437,-4.0,-2.0,14.0,38.0,-3.0,-7.0,-6.0,-4.0
1701711210.1891437,-3.0,-3.0,1.0,-73.0,-20.0,-7.0,-4.0,-2.0
1701711210.1891437,-5.0,2.0,5.0,33.0,13.0,-2.0,-3.0,-4.0
1701711210.1995165,0.0,-3.0,-31.0,3.0,-13.0,-7.0,-3.0,-1.0
1701711210.1995165,0.0,0.0,6.0,1.0,-1.0,3.0,0.0,-2.0
1701711210.2092009,-1.0,0.0,-12.0,12.0,-1.0,-14.0,-14.0,0.0
1701711210.2092009,1.0,-6.0,-39.0,-29.0,-8.0,7.0,13.0,2.0
1701711210.2291436,-2.0,-6.0,19.0,-21.0,1.0,2.0,1.0,-2.0
1701711210.2291436,-3.0,0.0,-3.0,50.0,11.0,1.0,-1.0,-1.0
1701711210.2291436,-1.0,7.0,0.0,0.0,-2.0,-4.0,-4.0,-4.0
1701711210.2291436,-1.0,-2.0,-3.0,-8.0,-1.0,-10.0,-10.0,-2.0
1701711210.249147,-1.0,0.0,15.0,35.0,4.0,0.0,-12.0,-3.0
1701711210.249147,0.0,-13.0,-24.0,-49.0,-14.0,0.0,7.0,2.0
1701711210.249147,2.0,4.0,19.0,10.0,13.0,6.0,5.0,0.0
1701711210.249147,-3.0,-1.0,-7.0,15.0,-6.0,1.0,2.0,-5.0
1701711210.269144,-2.0,-4.0,-20.0,12.0,5.0,-5.0,2.0,-1.0
1701711210.269144,4.0,12.0,39.0,-1.0,-7.0,2.0,-9.0,4.0
1701711210.269144,0.0,4.0,16.0,23.0,2.0,-4.0,-6.0,-2.0
1701711210.269144,0.0,-8.0,-18.0,-24.0,0.0,-1.0,3.0,2.0
1701711210.2895954,0.0,4.0,33.0,10.0,-6.0,-5.0,0.0,-3.0
1701711210.2895954,-1.0,-17.0,-8.0,25.0,3.0,2.0,1.0,-1.0
1701711210.2895954,-4.0,7.0,-2.0,8.0,12.0,2.0,5.0,-3.0
1701711210.2895954,1.0,0.0,12.0,6.0,-4.0,-8.0,-8.0,-4.0
1701711210.3095796,3.0,1.0,-2.0,9.0,3.0,3.0,-4.0,1.0
1701711210.3095796,1.0,4.0,-6.0,-49.0,-1.0,10.0,12.0,3.0
1701711210.3095796,0.0,-10.0,-4.0,13.0,-3.0,-6.0,-12.0,-3.0
1701711210.3095796,-1.0,-4.0,-9.0,14.0,-3.0,-3.0,-2.0,-3.0
1701711210.329144,1.0,-7.0,-1.0,-70.0,-11.0,11.0,6.0,6.0
1701711210.329144,-4.0,-6.0,-39.0,-17.0,-5.0,-19.0,-9.0,-2.0
1701711210.329144,-4.0,9.0,-10.0,10.0,0.0,1.0,-2.0,-6.0
1701711210.329144,2.0,1.0,3.0,-4.0,6.0,10.0,16.0,3.0
1701711210.3512821,-1.0,3.0,13.0,22.0,5.0,8.0,-1.0,-1.0
1701711210.3512821,-3.0,-7.0,3.0,40.0,0.0,-9.0,-15.0,-6.0
1701711210.352293,1.0,-2.0,-6.0,-15.0,-3.0,5.0,9.0,3.0
1701711210.352293,0.0,0.0,17.0,-1.0,0.0,18.0,12.0,4.0
1701711210.370996,1.0,6.0,-21.0,-15.0,2.0,-5.0,0.0,-1.0
1701711210.370996,-2.0,-1.0,-1.0,-43.0,4.0,2.0,-2.0,-2.0
1701711210.370996,-1.0,0.0,24.0,34.0,9.0,4.0,5.0,-3.0
1701711210.370996,1.0,-4.0,-22.0,-37.0,-11.0,-3.0,-12.0,-3.0
1701711210.3812506,-1.0,-4.0,17.0,4.0,3.0,-5.0,-3.0,1.0
1701711210.3812506,1.0,6.0,-5.0,10.0,8.0,3.0,0.0,1.0
1701711210.3912506,-4.0,-8.0,-12.0,-32.0,-21.0,-29.0,-9.0,-5.0
1701711210.3912506,2.0,1.0,-9.0,27.0,18.0,19.0,-11.0,1.0
1701711210.4209912,-7.0,1.0,7.0,-27.0,14.0,19.0,32.0,1.0
1701711210.4209912,3.0,2.0,17.0,-21.0,-24.0,-7.0,0.0,-1.0
1701711210.4209912,-4.0,-16.0,-62.0,-35.0,-16.0,-9.0,-8.0,-3.0
1701711210.4209912,-3.0,0.0,49.0,-13.0,-9.0,-10.0,3.0,-3.0
1701711210.4312706,-1.0,-4.0,-13.0,71.0,9.0,-10.0,-10.0,-6.0
1701711210.4312706,2.0,1.0,16.0,3.0,-4.0,15.0,10.0,5.0
1701711210.4312706,-2.0,-5.0,6.0,32.0,16.0,16.0,21.0,6.0
1701711210.4312706,-1.0,-1.0,32.0,-50.0,-16.0,-27.0,-16.0,-8.0
1701711210.4609954,0.0,9.0,-2.0,-14.0,-4.0,-6.0,-8.0,3.0
1701711210.4609954,-8.0,-2.0,5.0,22.0,14.0,-6.0,3.0,-7.0
1701711210.4609954,3.0,0.0,-2.0,-8.0,-6.0,6.0,-26.0,4.0
1701711210.4609954,-8.0,-7.0,-5.0,23.0,16.0,-14.0,-14.0,7.0
1701711210.471234,7.0,1.0,70.0,54.0,-8.0,14.0,15.0,-15.0
1701711210.471234,-3.0,-15.0,-82.0,-73.0,-11.0,-16.0,-17.0,-8.0
1701711210.471234,5.0,19.0,41.0,64.0,16.0,38.0,44.0,7.0
1701711210.471234,-2.0,-8.0,-24.0,-9.0,5.0,3.0,-2.0,2.0
1701711210.5009966,0.0,-10.0,-43.0,-74.0,-15.0,-21.0,-14.0,-3.0
1701711210.5009966,2.0,7.0,-13.0,18.0,9.0,3.0,0.0,5.0
1701711210.5009966,-4.0,1.0,45.0,45.0,-4.0,-11.0,-7.0,-15.0
1701711210.5009966,-1.0,6.0,-17.0,2.0,-3.0,-9.0,6.0,4.0
1701711210.5009966,1.0,-11.0,-8.0,-10.0,-5.0,16.0,17.0,7.0
1701711210.5009966,-3.0,-20.0,-32.0,-24.0,-3.0,-5.0,-9.0,-5.0
1701711210.5110269,7.0,30.0,10.0,-17.0,1.0,-3.0,4.0,6.0
1701711210.5110269,-1.0,-3.0,58.0,55.0,-3.0,0.0,6.0,-5.0
1701711210.5213118,-6.0,-5.0,-9.0,-14.0,-3.0,-14.0,-22.0,-3.0
1701711210.5213118,1.0,0.0,13.0,-43.0,-7.0,5.0,5.0,3.0
1701711210.5309944,-5.0,-20.0,-55.0,-46.0,-21.0,-3.0,-6.0,-3.0
1701711210.5309944,0.0,-2.0,-34.0,-5.0,18.0,1.0,-4.0,-6.0
1701711210.5509934,-2.0,0.0,35.0,23.0,15.0,-3.0,-3.0,1.0
1701711210.5509934,-1.0,7.0,-86.0,-4.0,-16.0,1.0,0.0,-2.0
1701711210.5509934,-1.0,-15.0,32.0,46.0,21.0,-9.0,-9.0,-3.0
1701711210.5509934,0.0,-3.0,37.0,-77.0,-37.0,-1.0,2.0,-5.0
1701711210.5610256,4.0,-10.0,-27.0,37.0,-10.0,-3.0,-1.0,11.0
1701711210.5610256,13.0,32.0,108.0,6.0,7.0,16.0,16.0,23.0
1701711210.5712564,-2.0,-11.0,-35.0,43.0,-2.0,-8.0,-16.0,-20.0
1701711210.5712564,-8.0,-7.0,-80.0,10.0,10.0,1.0,4.0,-2.0
1701711210.5909972,-14.0,-52.0,-38.0,-51.0,7.0,-2.0,-4.0,-8.0
1701711210.5909972,15.0,77.0,122.0,63.0,-6.0,-6.0,-6.0,4.0
1701711210.5909972,-4.0,-32.0,-66.0,-73.0,-7.0,-3.0,2.0,4.0
1701711210.5909972,10.0,36.0,14.0,18.0,3.0,2.0,-4.0,-2.0
1701711210.630997,-7.0,36.0,-2.0,71.0,1.0,-4.0,-8.0,-6.0
1701711210.630997,4.0,-35.0,75.0,69.0,30.0,15.0,11.0,4.0
1701711210.630997,-13.0,11.0,-14.0,-117.0,-23.0,-12.0,-6.0,-6.0
1701711210.630997,-23.0,-4.0,-10.0,-57.0,-26.0,-15.0,-10.0,-24.0
1701711210.630997,15.0,6.0,5.0,21.0,-1.0,-19.0,-6.0,12.0
1701711210.630997,-11.0,-48.0,-92.0,36.0,14.0,34.0,21.0,8.0
1701711210.630997,5.0,50.0,30.0,51.0,9.0,2.0,2.0,-9.0
1701711210.630997,-12.0,-34.0,-32.0,-21.0,-4.0,3.0,-4.0,-8.0
1701711210.6509972,6.0,27.0,73.0,9.0,6.0,-4.0,2.0,-1.0
1701711210.6509972,-15.0,-20.0,-60.0,-60.0,-18.0,-17.0,-6.0,-14.0
1701711210.6509972,4.0,-12.0,31.0,-4.0,4.0,2.0,-6.0,6.0
1701711210.6509972,5.0,0.0,11.0,10.0,3.0,3.0,7.0,4.0
1701711210.6713455,-6.0,-13.0,-61.0,-5.0,-10.0,-5.0,-5.0,-5.0
1701711210.6713455,2.0,-23.0,-20.0,-17.0,0.0,-9.0,-11.0,2.0
1701711210.6713455,10.0,7.0,48.0,1.0,2.0,7.0,4.0,9.0
1701711210.6713455,5.0,12.0,13.0,29.0,5.0,-9.0,-11.0,-5.0
1701711210.7009926,-2.0,3.0,-4.0,-16.0,0.0,-6.0,-14.0,0.0
1701711210.7009926,-7.0,-3.0,-3.0,12.0,4.0,11.0,6.0,-9.0
1701711210.7009926,-3.0,-8.0,-2.0,-26.0,-8.0,-2.0,3.0,1.0
1701711210.7009926,-1.0,-25.0,-15.0,3.0,-12.0,-6.0,-7.0,1.0
1701711210.7009926,-4.0,-3.0,-19.0,-84.0,-4.0,13.0,6.0,-2.0
1701711210.7009926,0.0,12.0,15.0,-35.0,-5.0,-15.0,-10.0,-7.0
1701711210.7109942,-6.0,-15.0,-46.0,-36.0,-4.0,-11.0,-6.0,-7.0
1701711210.7109942,10.0,13.0,34.0,12.0,-1.0,20.0,12.0,14.0
1701711210.7313366,-8.0,-11.0,-45.0,-39.0,9.0,-7.0,-2.0,-6.0
1701711210.7313366,0.0,19.0,5.0,27.0,26.0,12.0,-2.0,-7.0
1701711210.7313366,1.0,-8.0,-5.0,-61.0,-23.0,-5.0,0.0,6.0
1701711210.7313366,-5.0,-11.0,-16.0,29.0,-37.0,-20.0,-6.0,-1.0
1701711210.7414007,-1.0,6.0,-13.0,3.0,39.0,15.0,6.0,-4.0
1701711210.7414007,-4.0,6.0,24.0,-2.0,-7.0,-11.0,-9.0,-6.0
1701711210.7513711,0.0,-1.0,44.0,65.0,10.0,1.0,-1.0,3.0
1701711210.7513711,-1.0,-8.0,-74.0,-24.0,17.0,-5.0,-7.0,-4.0
1701711210.761387,10.0,14.0,25.0,5.0,-33.0,2.0,18.0,5.0
1701711210.761387,-7.0,-1.0,-7.0,-1.0,-7.0,-2.0,1.0,-4.0
1701711210.7709942,4.0,0.0,17.0,16.0,15.0,2.0,-6.0,2.0
1701711210.7709942,0.0,4.0,9.0,-5.0,0.0,2.0,6.0,4.0
1701711210.791378,-4.0,-5.0,-19.0,2.0,-19.0,-12.0,-12.0,-21.0
1701711210.791378,-3.0,-12.0,34.0,19.0,8.0,5.0,1.0,1.0
1701711210.791378,-1.0,2.0,-64.0,-10.0,1.0,1.0,1.0,3.0
1701711210.791378,-1.0,-1.0,-8.0,8.0,0.0,0.0,-3.0,-3.0
1701711210.8013964,-1.0,-4.0,22.0,-23.0,0.0,2.0,-5.0,8.0
1701711210.8013964,-2.0,-11.0,-17.0,0.0,-6.0,-10.0,-2.0,-3.0
1701711210.8214006,-5.0,-9.0,-5.0,8.0,-1.0,0.0,-2.0,-10.0
1701711210.8214006,6.0,7.0,54.0,34.0,8.0,2.0,2.0,8.0
1701711210.8214006,-2.0,4.0,7.0,-3.0,-9.0,5.0,2.0,0.0
1701711210.8214006,-1.0,-7.0,-3.0,5.0,-32.0,-15.0,-6.0,-6.0
1701711210.830995,2.0,-6.0,8.0,1.0,21.0,8.0,5.0,3.0
1701711210.830995,6.0,12.0,57.0,27.0,22.0,9.0,5.0,3.0
1701711210.8509922,-14.0,-6.0,-28.0,-4.0,-20.0,-9.0,-5.0,-6.0
1701711210.8509922,-1.0,-4.0,-4.0,-22.0,-13.0,-7.0,-11.0,-6.0
1701711210.8509922,-2.0,-3.0,6.0,23.0,4.0,5.0,0.0,2.0
1701711210.8509922,1.0,-14.0,17.0,-37.0,0.0,2.0,2.0,-1.0
1701711210.8665478,-8.0,-7.0,7.0,8.0,2.0,1.0,-3.0,-5.0
1701711210.867574,8.0,16.0,12.0,32.0,9.0,0.0,5.0,12.0
1701711210.8756933,-7.0,-10.0,-43.0,-16.0,-12.0,-9.0,-8.0,-6.0
1701711210.8756933,-3.0,-2.0,-22.0,-31.0,-29.0,-8.0,-10.0,-2.0
1701711210.8872476,3.0,5.0,33.0,30.0,29.0,12.0,8.0,2.0
1701711210.8872476,-7.0,-2.0,-49.0,25.0,25.0,2.0,-11.0,-6.0
1701711210.917245,5.0,1.0,29.0,0.0,-9.0,-12.0,4.0,5.0
1701711210.917245,-2.0,8.0,-26.0,-23.0,-8.0,14.0,8.0,1.0
1701711210.917245,-5.0,-6.0,4.0,-40.0,-20.0,-11.0,-7.0,-3.0
1701711210.917245,2.0,3.0,13.0,-18.0,31.0,13.0,5.0,0.0
1701711210.917245,-1.0,2.0,-40.0,6.0,10.0,1.0,-1.0,-3.0
1701711210.917245,-6.0,-7.0,-62.0,-75.0,-10.0,-12.0,-6.0,-3.0
1701711210.927249,2.0,-10.0,20.0,27.0,4.0,2.0,1.0,1.0
1701711210.927249,2.0,17.0,2.0,-30.0,-11.0,-4.0,-1.0,-2.0
1701711210.927249,-2.0,1.0,0.0,-9.0,-13.0,3.0,-1.0,2.0
1701711210.927249,-1.0,-8.0,-5.0,3.0,5.0,-2.0,0.0,-2.0
1701711210.9572487,3.0,-11.0,10.0,27.0,-4.0,4.0,2.0,1.0
1701711210.9572487,-3.0,-10.0,-3.0,15.0,-10.0,-15.0,-8.0,-5.0
1701711210.9672458,-3.0,-3.0,-2.0,-67.0,-8.0,-1.0,-3.0,-1.0
1701711210.9672458,-1.0,-14.0,-35.0,38.0,7.0,10.0,6.0,-2.0
1701711210.9672458,-1.0,4.0,-8.0,-15.0,-3.0,-22.0,-12.0,-2.0
1701711210.9672458,2.0,2.0,14.0,26.0,-3.0,-6.0,-4.0,-3.0
1701711210.9672458,-14.0,0.0,8.0,12.0,5.0,4.0,-2.0,0.0
1701711210.9672458,2.0,-3.0,18.0,15.0,10.0,7.0,5.0,3.0
1701711210.9772785,0.0,-3.0,1.0,13.0,2.0,-4.0,-5.0,1.0
1701711210.987251,-3.0,-8.0,-39.0,-67.0,-17.0,0.0,2.0,-1.0
1701711210.987251,2.0,0.0,33.0,40.0,-1.0,-7.0,-4.0,-3.0
1701711210.987251,4.0,0.0,87.0,98.0,14.0,-2.0,-1.0,0.0
1701711211.0072448,-11.0,-4.0,-69.0,-34.0,-8.0,6.0,1.0,-3.0
1701711211.0072448,-1.0,15.0,49.0,23.0,10.0,-4.0,-6.0,0.0
1701711211.0072448,3.0,-5.0,13.0,2.0,-11.0,-3.0,1.0,-2.0
1701711211.0072448,-3.0,5.0,13.0,-9.0,-3.0,-8.0,-5.0,-2.0
1701711211.0275648,7.0,3.0,16.0,3.0,7.0,4.0,3.0,2.0
1701711211.0275648,-6.0,-14.0,-37.0,10.0,-13.0,-3.0,0.0,-1.0
1701711211.0275648,-2.0,0.0,-22.0,-21.0,-5.0,-7.0,-1.0,-3.0
1701711211.0275648,-1.0,3.0,-11.0,1.0,-3.0,-1.0,-11.0,0.0
1701711211.047626,3.0,9.0,14.0,6.0,6.0,30.0,14.0,4.0
1701711211.047626,-2.0,-1.0,12.0,-33.0,-3.0,-1.0,2.0,-3.0
1701711211.0572486,-1.0,-8.0,-8.0,35.0,3.0,2.0,-3.0,0.0
1701711211.0572486,-4.0,0.0,-9.0,-11.0,1.0,-10.0,-8.0,-5.0
1701711211.0672445,-1.0,1.0,34.0,9.0,-12.0,-10.0,-6.0,-2.0
1701711211.0672445,2.0,-4.0,2.0,23.0,23.0,9.0,9.0,5.0
1701711211.0672445,-3.0,6.0,-20.0,-17.0,-21.0,-5.0,-3.0,-4.0
1701711211.0672445,0.0,6.0,2.0,2.0,5.0,3.0,3.0,-1.0
1701711211.0974953,-2.0,-4.0,-34.0,3.0,1.0,-4.0,-4.0,-2.0
1701711211.0974953,-2.0,2.0,2.0,-17.0,-21.0,-6.0,-2.0,-1.0
1701711211.0974953,0.0,-10.0,6.0,7.0,20.0,5.0,2.0,-2.0
1701711211.0974953,-1.0,-11.0,-14.0,-36.0,-10.0,-2.0,4.0,0.0
1701711211.1072443,-2.0,2.0,16.0,0.0,-2.0,-11.0,-8.0,0.0
1701711211.1072443,0.0,-6.0,-32.0,-46.0,-12.0,-2.0,-7.0,-3.0
1701711211.1072443,4.0,6.0,20.0,3.0,32.0,5.0,4.0,-1.0
1701711211.1072443,2.0,7.0,-3.0,2.0,24.0,22.0,14.0,5.0
1701711211.1277044,0.0,-2.0,-7.0,13.0,1.0,7.0,4.0,-1.0
1701711211.1277044,0.0,-1.0,-11.0,-20.0,-11.0,-8.0,-15.0,2.0
1701711211.1277044,-2.0,0.0,32.0,56.0,0.0,3.0,10.0,-4.0
1701711211.1277044,-2.0,-7.0,-31.0,-10.0,-23.0,-10.0,-2.0,-3.0
1701711211.1476862,6.0,16.0,44.0,17.0,24.0,-10.0,-2.0,1.0
1701711211.1476862,-4.0,-3.0,27.0,12.0,10.0,-8.0,-3.0,-5.0
1701711211.1476862,0.0,2.0,1.0,-35.0,-16.0,8.0,0.0,2.0
1701711211.1476862,-2.0,-8.0,13.0,55.0,11.0,-7.0,-5.0,-3.0
1701711211.1772766,-1.0,-6.0,-36.0,-1.0,-9.0,-1.0,2.0,-1.0
1701711211.1772766,0.0,-4.0,15.0,18.0,-4.0,-9.0,-3.0,-1.0
1701711211.1772766,-5.0,-2.0,-5.0,-19.0,-8.0,-12.0,-5.0,-7.0
1701711211.1772766,3.0,-6.0,23.0,17.0,12.0,19.0,4.0,3.0
1701711211.187494,-8.0,-12.0,6.0,-19.0,-3.0,-16.0,-11.0,-8.0
1701711211.187494,18.0,37.0,-1.0,29.0,2.0,14.0,24.0,19.0
1701711211.187494,-3.0,-2.0,-8.0,0.0,-12.0,-2.0,-8.0,-13.0
1701711211.187494,-7.0,-5.0,-15.0,-9.0,3.0,-4.0,-1.0,-1.0
1701711211.20727,-9.0,-9.0,-3.0,0.0,-1.0,-17.0,-16.0,-16.0
1701711211.20727,-1.0,-11.0,-4.0,-11.0,-7.0,22.0,17.0,9.0
1701711211.20727,5.0,-28.0,31.0,-11.0,-4.0,6.0,10.0,17.0
1701711211.20727,12.0,49.0,1.0,11.0,-4.0,-11.0,3.0,7.0
1701711211.2472432,-8.0,-62.0,-21.0,19.0,1.0,6.0,-3.0,-1.0
1701711211.2472432,-2.0,29.0,-45.0,-43.0,0.0,-11.0,-9.0,-5.0
1701711211.2472432,-5.0,-2.0,-58.0,-18.0,-12.0,-15.0,-15.0,-8.0
1701711211.2472432,-4.0,-10.0,4.0,-10.0,13.0,29.0,12.0,-3.0
1701711211.2472432,-2.0,-12.0,5.0,19.0,-13.0,-4.0,-4.0,-1.0
1701711211.2472432,-3.0,-11.0,40.0,38.0,3.0,1.0,-7.0,-6.0
1701711211.2472432,-2.0,0.0,-29.0,-73.0,-10.0,-25.0,-13.0,-2.0
1701711211.2472432,-2.0,-10.0,-3.0,46.0,-1.0,-11.0,-4.0,-4.0
1701711211.2672796,6.0,34.0,16.0,-41.0,14.0,21.0,7.0,6.0
1701711211.2672796,-2.0,-22.0,-20.0,59.0,-2.0,9.0,13.0,-3.0
1701711211.2772439,1.0,5.0,-5.0,-68.0,-16.0,-2.0,-23.0,5.0
1701711211.2772439,-6.0,-3.0,-3.0,-20.0,-16.0,-21.0,-18.0,-7.0
1701711211.287601,0.0,2.0,-9.0,-1.0,-4.0,-5.0,2.0,-2.0
1701711211.287601,6.0,9.0,8.0,1.0,28.0,-2.0,0.0,2.0
1701711211.287601,-3.0,3.0,15.0,32.0,5.0,19.0,-6.0,-3.0
1701711211.287601,-3.0,-6.0,11.0,24.0,-15.0,-2.0,10.0,-2.0
1701711211.3076708,-12.0,-3.0,21.0,25.0,-14.0,-1.0,-4.0,-3.0
1701711211.3076708,-2.0,-16.0,-44.0,-31.0,8.0,-1.0,-4.0,-5.0
1701711211.3076708,19.0,8.0,40.0,16.0,-1.0,-22.0,-7.0,7.0
1701711211.3172522,-15.0,2.0,-29.0,-65.0,-7.0,10.0,6.0,-9.0
1701711211.327273,18.0,16.0,-28.0,-27.0,-6.0,12.0,26.0,33.0
1701711211.327273,-16.0,-6.0,-26.0,-22.0,-24.0,-22.0,-31.0,-36.0
1701711211.327273,-8.0,-6.0,6.0,19.0,7.0,6.0,16.0,-1.0
1701711211.327273,3.0,-8.0,6.0,8.0,-2.0,-11.0,-11.0,-5.0
1701711211.347244,-20.0,-6.0,-6.0,9.0,3.0,3.0,6.0,-14.0
1701711211.347244,4.0,0.0,24.0,12.0,0.0,1.0,-5.0,11.0
1701711211.3572493,38.0,5.0,-16.0,13.0,6.0,10.0,6.0,16.0
1701711211.3572493,3.0,-2.0,71.0,-1.0,3.0,-5.0,-6.0,1.0
1701711211.367314,2.0,10.0,-22.0,-38.0,-19.0,-13.0,-9.0,-9.0
1701711211.367314,-17.0,10.0,11.0,12.0,1.0,-3.0,1.0,-3.0
1701711211.3772485,-18.0,-10.0,15.0,32.0,2.0,-6.0,-22.0,-12.0
1701711211.3772485,10.0,-36.0,-52.0,-22.0,-3.0,1.0,17.0,10.0
1701711211.409738,-4.0,32.0,41.0,-21.0,0.0,-11.0,-16.0,-9.0
1701711211.409738,2.0,-4.0,-29.0,24.0,1.0,-4.0,2.0,-2.0
1701711211.409738,-4.0,6.0,13.0,13.0,-1.0,4.0,-3.0,0.0
1701711211.409738,0.0,-7.0,-17.0,5.0,8.0,8.0,-2.0,1.0
1701711211.4157438,-4.0,-21.0,-14.0,-21.0,-2.0,-8.0,-5.0,-3.0
1701711211.4157438,-1.0,-14.0,-19.0,-25.0,-8.0,-6.0,-2.0,-1.0
1701711211.4167423,9.0,38.0,82.0,3.0,14.0,7.0,14.0,5.0
1701711211.4167423,-8.0,0.0,-44.0,-25.0,-6.0,-10.0,-11.0,-1.0
1701711211.4199123,2.0,0.0,19.0,32.0,-3.0,-5.0,0.0,-4.0
1701711211.429922,-23.0,-21.0,49.0,16.0,2.0,3.0,-2.0,-5.0
1701711211.429922,14.0,-6.0,-57.0,-21.0,-2.0,5.0,8.0,-3.0
1701711211.429922,37.0,30.0,-49.0,-3.0,4.0,-2.0,1.0,17.0
1701711211.459911,15.0,13.0,-22.0,-4.0,38.0,7.0,3.0,6.0
1701711211.459911,-3.0,-11.0,36.0,-33.0,-33.0,-4.0,0.0,-2.0
1701711211.459911,-34.0,-28.0,-55.0,75.0,3.0,-2.0,2.0,-12.0
1701711211.459911,-10.0,4.0,-3.0,2.0,-3.0,-5.0,-7.0,4.0
1701711211.4699445,-3.0,-21.0,0.0,-3.0,-10.0,-1.0,-1.0,-12.0
1701711211.4699445,8.0,20.0,-19.0,85.0,35.0,8.0,1.0,6.0
1701711211.4699445,-9.0,-13.0,-15.0,-88.0,-28.0,-6.0,2.0,-5.0
1701711211.4699445,17.0,-23.0,99.0,13.0,-4.0,-6.0,-4.0,4.0
1701711211.4899125,-26.0,4.0,-17.0,28.0,3.0,2.0,-3.0,-8.0
1701711211.4899125,-26.0,-20.0,-50.0,-36.0,-19.0,-5.0,-4.0,2.0
1701711211.4899125,38.0,28.0,34.0,-1.0,-1.0,-3.0,6.0,7.0
1701711211.4899125,-23.0,-17.0,-66.0,-21.0,-18.0,-18.0,-11.0,-18.0
1701711211.5099132,0.0,-8.0,85.0,-14.0,3.0,4.0,-4.0,-3.0
1701711211.5099132,6.0,8.0,97.0,19.0,6.0,-8.0,0.0,9.0
1701711211.5099132,39.0,4.0,-120.0,-40.0,-1.0,-3.0,11.0,0.0
1701711211.5099132,-8.0,13.0,115.0,26.0,13.0,26.0,14.0,-14.0
1701711211.5302517,-7.0,-26.0,27.0,19.0,-10.0,-10.0,-8.0,-7.0
1701711211.5302517,-16.0,44.0,7.0,-15.0,-4.0,1.0,2.0,-6.0
1701711211.5302517,-10.0,-29.0,32.0,59.0,17.0,3.0,3.0,6.0
1701711211.5302517,2.0,-20.0,-62.0,-33.0,-16.0,-14.0,-5.0,-3.0
1701711211.5499115,-6.0,4.0,-39.0,24.0,-3.0,6.0,6.0,1.0
1701711211.5499115,30.0,-11.0,5.0,-7.0,-4.0,3.0,3.0,7.0
1701711211.559911,-6.0,12.0,39.0,-5.0,5.0,-1.0,-2.0,3.0
1701711211.559911,-33.0,-6.0,-50.0,-15.0,-8.0,-19.0,-29.0,-23.0
1701711211.570296,18.0,18.0,-24.0,3.0,4.0,47.0,47.0,47.0
1701711211.570296,3.0,-20.0,34.0,1.0,13.0,-22.0,-25.0,-17.0
1701711211.570296,-27.0,0.0,-3.0,27.0,7.0,27.0,17.0,-11.0
1701711211.570296,-43.0,-19.0,9.0,-3.0,1.0,-25.0,-17.0,-6.0
1701711211.5903716,72.0,17.0,-7.0,10.0,14.0,40.0,34.0,41.0
1701711211.5903716,27.0,-8.0,-36.0,-35.0,-32.0,-31.0,-20.0,-7.0
1701711211.5903716,-28.0,2.0,-6.0,7.0,20.0,25.0,17.0,2.0
1701711211.5903716,1.0,6.0,59.0,57.0,12.0,13.0,22.0,-1.0
1701711211.6002629,9.0,-1.0,71.0,4.0,-9.0,-15.0,-7.0,-22.0
1701711211.6002629,-3.0,15.0,-65.0,-69.0,-12.0,-16.0,-1.0,47.0
1701711211.6199112,-15.0,-13.0,44.0,15.0,-6.0,-29.0,-37.0,-8.0
1701711211.6199112,0.0,-99.0,-40.0,-22.0,4.0,22.0,-13.0,-18.0
1701711211.630139,-20.0,-16.0,-30.0,-7.0,-3.0,-33.0,-14.0,-18.0
1701711211.630139,35.0,6.0,66.0,-42.0,4.0,32.0,15.0,10.0
1701711211.630139,-24.0,49.0,69.0,74.0,-7.0,21.0,15.0,-11.0
1701711211.630139,-12.0,70.0,2.0,-36.0,5.0,-9.0,-17.0,27.0
1701711211.6501439,5.0,39.0,9.0,45.0,5.0,-16.0,-4.0,0.0
1701711211.6501439,26.0,45.0,26.0,7.0,9.0,6.0,9.0,-4.0
1701711211.6501439,-2.0,-8.0,-88.0,5.0,-7.0,-8.0,-4.0,-2.0
1701711211.6501439,19.0,33.0,38.0,6.0,9.0,23.0,29.0,15.0
1701711211.6601844,-23.0,-28.0,-29.0,-21.0,-7.0,-26.0,-28.0,-50.0
1701711211.6601844,-46.0,-19.0,-108.0,-16.0,-10.0,1.0,4.0,-12.0
1701711211.6799135,41.0,7.0,94.0,-4.0,-9.0,-33.0,-23.0,5.0
1701711211.6799135,22.0,36.0,79.0,18.0,14.0,21.0,16.0,-23.0
1701711211.6899474,20.0,-11.0,6.0,-35.0,-5.0,4.0,-1.0,52.0
1701711211.6899474,-46.0,-26.0,25.0,56.0,14.0,5.0,3.0,-24.0
1701711211.6899474,-7.0,-24.0,-97.0,-14.0,-5.0,-6.0,13.0,7.0
1701711211.6899474,14.0,-1.0,-51.0,-25.0,-11.0,-22.0,-18.0,-7.0
1701711211.7103548,20.0,19.0,39.0,41.0,19.0,57.0,41.0,42.0
1701711211.7103548,-32.0,-43.0,12.0,7.0,2.0,-13.0,-31.0,-54.0
1701711211.7103548,-40.0,-36.0,-17.0,-20.0,-8.0,29.0,31.0,-15.0
1701711211.7103548,44.0,16.0,-30.0,-4.0,-7.0,-14.0,9.0,13.0
1701711211.72991,-41.0,28.0,-31.0,30.0,3.0,3.0,-19.0,1.0
1701711211.72991,9.0,8.0,35.0,-28.0,2.0,11.0,12.0,8.0
1701711211.72991,-11.0,-26.0,66.0,52.0,4.0,-11.0,-17.0,-2.0
1701711211.72991,-40.0,19.0,80.0,-33.0,-17.0,-8.0,-12.0,-10.0
1701711211.7502637,19.0,-17.0,-22.0,40.0,-19.0,-42.0,-23.0,-18.0
1701711211.7502637,37.0,24.0,-66.0,11.0,8.0,53.0,44.0,23.0
1701711211.7502637,4.0,16.0,30.0,-6.0,1.0,-21.0,-24.0,-4.0
1701711211.7502637,24.0,-23.0,19.0,-10.0,-4.0,-13.0,-35.0,5.0
1701711211.7702475,-16.0,-9.0,-27.0,-29.0,3.0,5.0,-2.0,-8.0
1701711211.7702475,14.0,17.0,46.0,23.0,-3.0,0.0,5.0,0.0
1701711211.7702475,7.0,-1.0,-18.0,-3.0,11.0,9.0,4.0,-5.0
1701711211.7702475,3.0,-4.0,-36.0,-5.0,-12.0,-6.0,-6.0,14.0
1701711211.7999117,-22.0,-9.0,-29.0,-40.0,-14.0,-21.0,-5.0,-20.0
1701711211.7999117,-1.0,-6.0,25.0,13.0,10.0,-1.0,-16.0,1.0
1701711211.7999117,-8.0,-4.0,23.0,-28.0,-10.0,-14.0,-21.0,-10.0
1701711211.7999117,-7.0,2.0,-27.0,8.0,1.0,3.0,18.0,5.0
1701711211.810154,17.0,4.0,29.0,2.0,3.0,-9.0,-10.0,-2.0
1701711211.810154,-9.0,-13.0,-22.0,70.0,10.0,-8.0,-6.0,-3.0
1701711211.810154,15.0,5.0,16.0,-6.0,21.0,2.0,8.0,19.0
1701711211.8199255,-26.0,-26.0,-13.0,-22.0,-14.0,-1.0,1.0,-5.0
1701711211.8302543,-5.0,-11.0,-30.0,45.0,14.0,4.0,-6.0,-9.0
1701711211.8302543,-2.0,-6.0,4.0,3.0,-9.0,-7.0,9.0,0.0
1701711211.8302543,-2.0,-6.0,-17.0,-7.0,-1.0,-2.0,9.0,5.0
1701711211.8302543,-19.0,-2.0,13.0,-55.0,1.0,15.0,10.0,-30.0
1701711211.8599122,29.0,2.0,16.0,-17.0,-25.0,-21.0,-23.0,25.0
1701711211.8599122,-6.0,-16.0,-42.0,17.0,16.0,7.0,6.0,9.0
1701711211.8599122,0.0,0.0,-27.0,-26.0,-34.0,-2.0,-3.0,-1.0
1701711211.8599122,-1.0,4.0,10.0,12.0,4.0,-12.0,-3.0,-10.0
1701711211.870307,-22.0,-8.0,-8.0,-7.0,12.0,3.0,0.0,-13.0
1701711211.870307,7.0,8.0,-25.0,26.0,11.0,-3.0,-3.0,5.0
1701711211.870307,5.0,-4.0,-7.0,-65.0,-6.0,-2.0,-2.0,-2.0
1701711211.870307,4.0,-8.0,-25.0,34.0,-41.0,-8.0,-2.0,10.0
1701711211.889915,-18.0,1.0,2.0,-8.0,-23.0,-11.0,-2.0,-13.0
1701711211.889915,7.0,-5.0,49.0,5.0,82.0,32.0,9.0,8.0
1701711211.889915,-28.0,-14.0,-75.0,14.0,0.0,2.0,-4.0,-15.0
1701711211.889915,70.0,39.0,22.0,47.0,47.0,20.0,16.0,36.0
1701711211.9099183,-10.0,3.0,11.0,-26.0,-25.0,-6.0,0.0,-8.0
1701711211.9099183,-19.0,-9.0,21.0,-56.0,-93.0,-44.0,-18.0,-19.0
1701711211.9099183,2.0,3.0,-39.0,-15.0,15.0,9.0,-3.0,2.0
1701711211.9099183,-13.0,2.0,3.0,76.0,20.0,16.0,4.0,1.0
1701711211.9319606,3.0,-6.0,-7.0,-82.0,-17.0,-6.0,1.0,-7.0
1701711211.9319606,-3.0,-6.0,-21.0,30.0,-21.0,-12.0,-8.0,-2.0
1701711211.939804,2.0,10.0,74.0,-38.0,-21.0,-17.0,0.0,3.0
1701711211.939804,-11.0,-10.0,-57.0,-17.0,-18.0,-3.0,-2.0,-4.0
1701711211.9625158,2.0,0.0,-5.0,26.0,13.0,17.0,6.0,-1.0
1701711211.9625158,-6.0,3.0,30.0,69.0,21.0,-6.0,-2.0,-3.0
1701711211.9625158,5.0,3.0,20.0,-39.0,-24.0,2.0,-1.0,4.0
1701711211.9625158,-1.0,9.0,-15.0,20.0,23.0,3.0,3.0,0.0
1701711211.9625158,-13.0,-14.0,20.0,-45.0,10.0,-6.0,-3.0,-7.0
1701711211.9625158,-3.0,-1.0,-54.0,-45.0,-18.0,-10.0,-5.0,-2.0
1701711211.9725363,5.0,-3.0,-30.0,-5.0,-13.0,2.0,2.0,3.0
1701711211.9725363,-10.0,-15.0,-9.0,20.0,-11.0,-6.0,-3.0,-1.0
1701711211.9928203,-6.0,13.0,34.0,-10.0,-11.0,-1.0,1.0,-3.0
1701711211.9928203,2.0,2.0,0.0,-30.0,7.0,2.0,0.0,-1.0
1701711211.9928203,2.0,0.0,17.0,56.0,7.0,2.0,2.0,-3.0
1701711211.9928203,-5.0,-6.0,-41.0,-17.0,-25.0,-12.0,-11.0,-2.0
1701711212.0328152,4.0,-26.0,-2.0,14.0,18.0,4.0,4.0,4.0
1701711212.0328152,-1.0,34.0,53.0,-47.0,-19.0,-4.0,-5.0,-5.0
1701711212.0328152,-3.0,-18.0,-70.0,78.0,33.0,5.0,1.0,-1.0
1701711212.0328152,-8.0,-20.0,45.0,-44.0,-4.0,-2.0,1.0,-4.0
1701711212.0328152,4.0,13.0,-26.0,76.0,19.0,4.0,5.0,2.0
1701711212.0328152,3.0,-10.0,6.0,3.0,-11.0,2.0,0.0,2.0
1701711212.0328152,0.0,-1.0,23.0,20.0,8.0,-4.0,-3.0,0.0
1701711212.0328152,-11.0,-34.0,-51.0,-74.0,-11.0,-10.0,-4.0,-6.0
1701711212.0528197,-2.0,-16.0,15.0,-58.0,-18.0,-1.0,-2.0,-4.0
1701711212.0528197,5.0,-16.0,-35.0,-1.0,-9.0,6.0,8.0,7.0
1701711212.0528197,-20.0,42.0,50.0,-16.0,-10.0,-25.0,-19.0,-10.0
1701711212.0528197,-1.0,31.0,-42.0,3.0,9.0,8.0,10.0,10.0
1701711212.0828154,-18.0,19.0,6.0,-28.0,-13.0,-18.0,-16.0,-33.0
1701711212.0828154,-1.0,8.0,-24.0,41.0,14.0,31.0,12.0,1.0
1701711212.0828154,2.0,-21.0,-6.0,-95.0,-11.0,-10.0,1.0,3.0
1701711212.0828154,-1.0,-10.0,25.0,-12.0,12.0,11.0,9.0,7.0
1701711212.0928514,3.0,8.0,19.0,58.0,-5.0,-22.0,-9.0,-4.0
1701711212.0928514,-1.0,-2.0,8.0,-40.0,-9.0,-20.0,-18.0,-3.0
1701711212.0928514,7.0,4.0,0.0,18.0,7.0,12.0,-4.0,-5.0
1701711212.0928514,-4.0,3.0,28.0,10.0,-4.0,4.0,20.0,2.0
1701711212.112849,5.0,61.0,93.0,27.0,4.0,0.0,-3.0,6.0
1701711212.112849,1.0,-53.0,-94.0,-58.0,-21.0,-26.0,-19.0,-6.0
1701711212.112849,-6.0,18.0,74.0,13.0,8.0,5.0,-9.0,-4.0
1701711212.112849,-3.0,40.0,37.0,46.0,0.0,-12.0,-8.0,-6.0
1701711212.1328163,13.0,24.0,46.0,-37.0,-4.0,12.0,10.0,7.0
1701711212.1328163,-6.0,-24.0,50.0,22.0,11.0,3.0,6.0,0.0
1701711212.1328163,3.0,-6.0,-1.0,9.0,-20.0,-5.0,2.0,2.0
1701711212.1328163,-3.0,-21.0,-20.0,-3.0,65.0,24.0,2.0,-5.0
1701711212.1532679,-4.0,-37.0,-30.0,8.0,-1.0,7.0,6.0,2.0
1701711212.1532679,4.0,14.0,3.0,-12.0,-5.0,5.0,2.0,4.0
1701711212.1532679,1.0,-22.0,-31.0,21.0,-5.0,-7.0,1.0,0.0
1701711212.1532679,-1.0,-2.0,37.0,15.0,-11.0,-12.0,-12.0,-7.0
1701711212.172817,-2.0,-14.0,-52.0,-32.0,-3.0,-4.0,-5.0,1.0
1701711212.172817,2.0,13.0,45.0,47.0,22.0,11.0,5.0,1.0
1701711212.172817,0.0,-12.0,-90.0,-62.0,-26.0,7.0,10.0,3.0
1701711212.172817,1.0,-6.0,-23.0,20.0,-12.0,-6.0,1.0,-4.0
1701711212.193104,-2.0,-5.0,-4.0,-2.0,8.0,12.0,7.0,1.0
1701711212.193104,-4.0,-3.0,45.0,48.0,-3.0,-10.0,-6.0,-6.0
1701711212.193104,3.0,3.0,-28.0,19.0,13.0,-12.0,-14.0,-2.0
1701711212.193104,10.0,-5.0,-13.0,-28.0,-15.0,1.0,8.0,28.0
1701711212.2131119,-8.0,-19.0,-64.0,-35.0,0.0,-5.0,-8.0,-27.0
1701711212.2131119,-5.0,12.0,37.0,21.0,2.0,-4.0,-1.0,-4.0
1701711212.2131119,6.0,-4.0,-2.0,-10.0,-17.0,9.0,3.0,0.0
1701711212.2131119,-3.0,10.0,-17.0,-32.0,47.0,-6.0,-12.0,-5.0
1701711212.252815,-4.0,-20.0,2.0,49.0,-33.0,-22.0,-5.0,8.0
1701711212.252815,3.0,7.0,-8.0,-26.0,10.0,15.0,2.0,1.0
1701711212.252815,1.0,-5.0,8.0,-51.0,17.0,14.0,8.0,0.0
1701711212.252815,-5.0,7.0,21.0,22.0,-32.0,-20.0,-8.0,-14.0
1701711212.252815,-1.0,-18.0,-19.0,-76.0,-1.0,-3.0,-2.0,6.0
1701711212.252815,1.0,8.0,23.0,22.0,-15.0,8.0,8.0,1.0
1701711212.252815,1.0,-3.0,-35.0,29.0,-2.0,-3.0,0.0,5.0
1701711212.252815,-10.0,-2.0,28.0,10.0,-2.0,-13.0,-12.0,-14.0
1701711212.2830315,8.0,-8.0,-4.0,16.0,-1.0,-20.0,-35.0,4.0
1701711212.2830315,9.0,15.0,5.0,-20.0,7.0,57.0,51.0,20.0
1701711212.2830315,-2.0,2.0,20.0,8.0,15.0,1.0,2.0,-7.0
1701711212.2830315,-5.0,-22.0,6.0,46.0,-17.0,-7.0,-11.0,-7.0
1701711212.3028157,-3.0,17.0,-21.0,51.0,16.0,-2.0,-4.0,-5.0
1701711212.3028157,-8.0,-13.0,-37.0,-58.0,-19.0,-26.0,-19.0,-6.0
1701711212.3028157,1.0,1.0,22.0,42.0,3.0,-1.0,4.0,1.0
1701711212.3028157,-1.0,-1.0,12.0,2.0,29.0,29.0,10.0,-2.0
1701711212.31285,4.0,10.0,8.0,46.0,-21.0,10.0,14.0,9.0
1701711212.31285,-3.0,-5.0,-22.0,-68.0,3.0,-17.0,-6.0,-4.0
1701711212.31285,0.0,9.0,15.0,55.0,-13.0,10.0,1.0,0.0
1701711212.31285,-3.0,-10.0,-21.0,-83.0,-21.0,-18.0,-11.0,-6.0
1701711212.33282,-6.0,5.0,8.0,26.0,37.0,13.0,13.0,0.0
1701711212.33282,9.0,-10.0,-1.0,7.0,-34.0,-7.0,-2.0,-3.0
1701711212.33282,-12.0,-16.0,1.0,-1.0,5.0,-7.0,-8.0,4.0
1701711212.33282,-5.0,-2.0,-29.0,-8.0,-12.0,0.0,0.0,0.0
1701711212.3628151,7.0,6.0,2.0,-14.0,12.0,13.0,16.0,25.0
1701711212.3628151,-13.0,-4.0,4.0,41.0,-8.0,-27.0,-14.0,-37.0
1701711212.3628151,7.0,3.0,-30.0,-96.0,3.0,0.0,-5.0,3.0
1701711212.3628151,4.0,2.0,31.0,58.0,-7.0,4.0,-1.0,1.0
1701711212.372975,-8.0,-16.0,-68.0,-22.0,15.0,6.0,11.0,-2.0
1701711212.372975,0.0,7.0,2.0,16.0,7.0,-6.0,-13.0,6.0
1701711212.372975,0.0,-8.0,3.0,-8.0,0.0,0.0,2.0,0.0
1701711212.372975,1.0,12.0,-6.0,2.0,-4.0,6.0,6.0,1.0
1701711212.39282,1.0,-14.0,-3.0,-39.0,-4.0,-3.0,-8.0,-7.0
1701711212.39282,-2.0,3.0,-5.0,3.0,8.0,-2.0,-4.0,4.0
1701711212.4028172,-2.0,-3.0,-12.0,9.0,-1.0,1.0,3.0,-4.0
1701711212.4028172,2.0,4.0,14.0,43.0,-7.0,-15.0,-6.0,2.0
1701711212.4028172,-6.0,-11.0,-10.0,-61.0,10.0,16.0,-2.0,-8.0
1701711212.4028172,-1.0,-1.0,-11.0,1.0,11.0,7.0,8.0,2.0
1701711212.4130356,-2.0,4.0,71.0,19.0,-1.0,-18.0,-9.0,0.0
1701711212.4130356,2.0,1.0,29.0,53.0,3.0,-8.0,-4.0,0.0
1701711212.4331646,-2.0,2.0,4.0,11.0,-8.0,22.0,14.0,0.0
1701711212.4331646,-3.0,-9.0,-16.0,-19.0,-5.0,7.0,3.0,4.0
1701711212.4331646,2.0,13.0,38.0,1.0,11.0,-9.0,-4.0,-3.0
1701711212.4331646,-1.0,-14.0,-45.0,-32.0,-3.0,-3.0,-7.0,0.0
1701711212.459872,-5.0,9.0,-4.0,18.0,-13.0,-11.0,-2.0,-6.0
1701711212.459872,1.0,-6.0,-17.0,-22.0,-5.0,-4.0,-5.0,3.0
1701711212.459872,-3.0,4.0,1.0,41.0,5.0,9.0,5.0,-2.0
1701711212.459872,2.0,-1.0,24.0,-1.0,-22.0,-3.0,-1.0,-1.0
1701711212.4851649,-3.0,-12.0,0.0,35.0,27.0,-3.0,0.0,-1.0
1701711212.4851649,-2.0,-7.0,-34.0,-1.0,-20.0,-7.0,-10.0,-2.0
1701711212.4851649,-4.0,-4.0,-3.0,-11.0,-14.0,-9.0,-4.0,-5.0
1701711212.4851649,-2.0,10.0,15.0,38.0,34.0,16.0,6.0,0.0
1701711212.495168,1.0,-1.0,0.0,-78.0,-26.0,2.0,-1.0,-1.0
1701711212.495168,2.0,4.0,17.0,73.0,14.0,0.0,-1.0,2.0
1701711212.495168,2.0,-9.0,9.0,-5.0,-2.0,1.0,1.0,0.0
1701711212.495168,-13.0,-18.0,-53.0,-39.0,-23.0,-8.0,-5.0,-6.0
1701711212.515201,4.0,19.0,-70.0,-16.0,2.0,0.0,1.0,13.0
1701711212.515201,-12.0,8.0,35.0,-11.0,0.0,-12.0,-11.0,-34.0
1701711212.515201,3.0,-2.0,-6.0,-48.0,-10.0,2.0,6.0,2.0
1701711212.515201,0.0,-5.0,2.0,5.0,6.0,-1.0,-14.0,-3.0
1701711212.5254703,0.0,-14.0,47.0,14.0,-7.0,-40.0,-22.0,-4.0
1701711212.5254703,2.0,4.0,-34.0,2.0,7.0,15.0,20.0,17.0
1701711212.5354762,0.0,2.0,-13.0,8.0,0.0,0.0,-1.0,0.0
1701711212.5354762,-3.0,4.0,3.0,-22.0,1.0,4.0,2.0,-8.0
1701711212.55545,0.0,0.0,27.0,-7.0,-14.0,-16.0,-8.0,-3.0
1701711212.55545,-1.0,-11.0,6.0,29.0,2.0,-5.0,-6.0,0.0
1701711212.55545,-5.0,-11.0,-82.0,-35.0,-1.0,-5.0,-5.0,-6.0
1701711212.55545,1.0,4.0,36.0,-11.0,-7.0,-6.0,2.0,3.0
1701711212.5751672,4.0,16.0,62.0,87.0,11.0,15.0,7.0,0.0
1701711212.5751672,-6.0,-8.0,-77.0,-97.0,-13.0,-9.0,-6.0,4.0
1701711212.5751672,0.0,8.0,14.0,30.0,7.0,8.0,1.0,-1.0
1701711212.5751672,1.0,-28.0,-13.0,-13.0,-5.0,-3.0,-1.0,2.0
1701711212.585202,-5.0,6.0,1.0,28.0,-1.0,6.0,1.0,-5.0
1701711212.585202,-6.0,6.0,12.0,-12.0,-4.0,-3.0,-5.0,-2.0
1701711212.5955398,-3.0,-7.0,-2.0,37.0,-1.0,-7.0,-4.0,-3.0
1701711212.5955398,-1.0,0.0,-36.0,-43.0,-8.0,1.0,1.0,1.0
1701711212.6152275,3.0,13.0,37.0,35.0,24.0,6.0,1.0,-5.0
1701711212.6152275,2.0,-8.0,2.0,-3.0,6.0,5.0,3.0,3.0
1701711212.6152275,-1.0,-17.0,-6.0,-29.0,-4.0,-1.0,1.0,2.0
1701711212.6152275,-3.0,25.0,40.0,72.0,13.0,1.0,1.0,-1.0
1701711212.635541,-6.0,-15.0,-12.0,1.0,-19.0,-2.0,-3.0,-3.0
1701711212.635541,3.0,-11.0,1.0,-13.0,-6.0,-5.0,-5.0,1.0
1701711212.635541,2.0,11.0,26.0,-39.0,-17.0,-2.0,-3.0,3.0
1701711212.635541,-5.0,7.0,-24.0,46.0,58.0,22.0,7.0,-5.0
1701711212.645296,10.0,-3.0,23.0,-5.0,-3.0,-7.0,-2.0,13.0
1701711212.645296,-20.0,-23.0,-41.0,-91.0,-11.0,2.0,2.0,-25.0
1701711212.6654954,-6.0,-46.0,-7.0,-20.0,-29.0,-17.0,-6.0,-4.0
1701711212.6654954,-10.0,22.0,-83.0,-67.0,-32.0,-27.0,-4.0,-13.0
1701711212.6752384,-8.0,-12.0,-23.0,-17.0,6.0,3.0,-25.0,1.0
1701711212.6752384,19.0,2.0,38.0,55.0,18.0,12.0,9.0,16.0
1701711212.6752384,-1.0,37.0,-5.0,-5.0,0.0,-2.0,-4.0,-8.0
1701711212.6752384,9.0,-13.0,-11.0,-10.0,-18.0,-9.0,-4.0,-2.0
1701711212.6955433,30.0,9.0,-9.0,1.0,11.0,-4.0,7.0,1.0
1701711212.6955433,-45.0,-25.0,-18.0,-24.0,-8.0,0.0,-1.0,7.0
1701711212.6955433,2.0,-8.0,10.0,14.0,7.0,4.0,-6.0,-1.0
1701711212.6955433,11.0,8.0,25.0,12.0,7.0,24.0,12.0,9.0
1701711212.7155921,-5.0,-9.0,2.0,1.0,-6.0,-8.0,9.0,-2.0
1701711212.7155921,16.0,6.0,29.0,17.0,-10.0,-1.0,0.0,1.0
1701711212.7155921,-7.0,17.0,-6.0,24.0,16.0,10.0,5.0,-7.0
1701711212.7155921,-11.0,-24.0,10.0,-18.0,-12.0,-8.0,-7.0,-1.0
1701711212.7351687,-4.0,-6.0,-12.0,-19.0,-7.0,2.0,11.0,5.0
1701711212.7351687,7.0,18.0,5.0,10.0,12.0,-2.0,-12.0,1.0
1701711212.7351687,-2.0,-5.0,-22.0,4.0,6.0,-7.0,-7.0,-1.0
1701711212.7351687,9.0,-12.0,33.0,-5.0,-21.0,-4.0,-2.0,1.0
1701711212.7554286,-4.0,-28.0,-97.0,21.0,3.0,5.0,2.0,-5.0
1701711212.7554286,3.0,31.0,-18.0,-70.0,-5.0,-3.0,-1.0,-1.0
1701711212.7554286,-1.0,-3.0,21.0,47.0,-34.0,-9.0,-6.0,-3.0
1701711212.7554286,1.0,-10.0,-7.0,-12.0,13.0,-2.0,-4.0,0.0
1701711212.765174,-7.0,3.0,18.0,9.0,7.0,12.0,8.0,-5.0
1701711212.765174,-2.0,-1.0,29.0,32.0,-4.0,-3.0,-5.0,-3.0
1701711212.775397,0.0,-9.0,-21.0,-51.0,5.0,6.0,9.0,1.0
1701711212.775397,1.0,8.0,6.0,-43.0,-14.0,3.0,6.0,3.0
1701711212.8051653,-12.0,-6.0,-24.0,-61.0,-45.0,-38.0,-23.0,-13.0
1701711212.8051653,13.0,11.0,7.0,11.0,33.0,16.0,3.0,5.0
1701711212.8051653,-3.0,6.0,23.0,44.0,12.0,-7.0,-7.0,2.0
1701711212.8051653,1.0,4.0,29.0,44.0,9.0,21.0,16.0,4.0
1701711212.815167,-1.0,-3.0,22.0,-34.0,-25.0,-9.0,-6.0,-6.0
1701711212.815167,2.0,-7.0,21.0,21.0,45.0,3.0,-8.0,-4.0
1701711212.815167,-5.0,-16.0,-36.0,-19.0,-16.0,-15.0,-4.0,-3.0
1701711212.815167,-1.0,4.0,-31.0,-13.0,10.0,-1.0,-5.0,-2.0
1701711212.8251688,-7.0,0.0,30.0,26.0,0.0,1.0,-2.0,-7.0
1701711212.8251688,9.0,-9.0,-55.0,5.0,-15.0,-6.0,-12.0,2.0
1701711212.8353698,0.0,19.0,-5.0,-29.0,6.0,8.0,7.0,3.0
1701711212.8353698,-4.0,-13.0,-26.0,-29.0,0.0,-6.0,-7.0,-7.0
1701711212.855168,-1.0,7.0,24.0,-3.0,0.0,15.0,6.0,1.0
1701711212.855168,1.0,-8.0,25.0,-10.0,-22.0,-21.0,-6.0,-4.0
1701711212.855168,0.0,13.0,-16.0,37.0,28.0,11.0,-9.0,-2.0
1701711212.855168,4.0,-19.0,-62.0,15.0,-2.0,4.0,3.0,4.0
1701711212.8755612,-9.0,7.0,-60.0,-24.0,-12.0,-13.0,-9.0,-8.0
1701711212.8755612,-4.0,-4.0,68.0,45.0,-14.0,-7.0,-5.0,0.0
1701711212.8755612,0.0,-4.0,-7.0,-35.0,15.0,3.0,2.0,-3.0
1701711212.8755612,2.0,2.0,22.0,43.0,-7.0,-6.0,0.0,0.0
1701711212.8851693,1.0,-1.0,67.0,29.0,19.0,17.0,2.0,4.0
1701711212.8851693,1.0,4.0,-18.0,2.0,-10.0,5.0,10.0,13.0
1701711212.8954723,-12.0,0.0,30.0,33.0,-10.0,7.0,-6.0,-29.0
1701711212.8954723,2.0,20.0,27.0,39.0,21.0,13.0,3.0,7.0
1701711212.90517,-4.0,-54.0,-37.0,-92.0,-10.0,-2.0,3.0,3.0
1701711212.915166,-1.0,25.0,-41.0,55.0,-2.0,-2.0,20.0,-3.0
1701711212.915166,-1.0,-4.0,9.0,-4.0,-6.0,-24.0,-34.0,1.0
1701711212.915166,1.0,17.0,43.0,-3.0,15.0,40.0,29.0,7.0
1701711212.9356332,-4.0,-24.0,119.0,50.0,5.0,0.0,0.0,-12.0
1701711212.9356332,4.0,-8.0,13.0,-35.0,-11.0,-12.0,6.0,12.0
1701711212.9356332,0.0,-11.0,-16.0,-14.0,-3.0,-5.0,7.0,4.0
1701711212.9356332,-1.0,3.0,13.0,78.0,15.0,-4.0,-18.0,-6.0
1701711212.9454849,-3.0,-4.0,-27.0,-81.0,-16.0,18.0,13.0,4.0
1701711212.9454849,-7.0,-14.0,21.0,47.0,2.0,-2.0,-2.0,-15.0
1701711212.9555182,6.0,21.0,35.0,1.0,15.0,14.0,19.0,5.0
1701711212.9555182,-5.0,-21.0,-22.0,-84.0,-25.0,-33.0,-32.0,-3.0
1701711212.9651701,0.0,20.0,14.0,74.0,14.0,11.0,11.0,-2.0
1701711212.9651701,-3.0,-4.0,8.0,12.0,7.0,5.0,-2.0,-9.0
1701711212.9751666,-1.0,5.0,-14.0,-67.0,-3.0,-5.0,9.0,16.0
1701711212.9751666,1.0,-4.0,10.0,-16.0,-5.0,13.0,34.0,-15.0
1701711212.9977858,3.0,29.0,-10.0,-5.0,15.0,-16.0,-20.0,-1.0
1701711212.9977858,5.0,-11.0,5.0,-31.0,-3.0,23.0,21.0,10.0
1701711212.9991949,-1.0,10.0,3.0,16.0,7.0,8.0,5.0,3.0
1701711212.9991949,-6.0,-7.0,25.0,-10.0,-33.0,-20.0,-8.0,-5.0
1701711213.0194826,5.0,13.0,6.0,38.0,-2.0,-5.0,3.0,3.0
1701711213.0194826,-4.0,3.0,13.0,-35.0,8.0,-11.0,-16.0,-11.0
1701711213.0194826,2.0,-8.0,12.0,77.0,18.0,33.0,23.0,4.0
1701711213.0194826,4.0,19.0,45.0,40.0,30.0,2.0,-2.0,3.0
1701711213.0298324,-11.0,-23.0,-90.0,-70.0,-31.0,-39.0,-39.0,-17.0
1701711213.0298324,9.0,13.0,6.0,-11.0,3.0,12.0,19.0,10.0
1701711213.0397842,4.0,-6.0,4.0,-18.0,-14.0,20.0,33.0,9.0
1701711213.0397842,2.0,11.0,-19.0,36.0,5.0,0.0,-20.0,7.0
1701711213.0498364,-9.0,-8.0,-14.0,29.0,5.0,-24.0,-6.0,-16.0
1701711213.0498364,11.0,-3.0,2.0,-59.0,0.0,13.0,-8.0,24.0
1701711213.0594883,-27.0,35.0,53.0,45.0,-6.0,-11.0,7.0,-10.0
1701711213.0594883,14.0,-1.0,11.0,-19.0,-3.0,14.0,12.0,-1.0
1701711213.0795898,1.0,-7.0,17.0,-60.0,-6.0,10.0,9.0,5.0
1701711213.0795898,-8.0,-16.0,-44.0,39.0,-6.0,-12.0,-11.0,-2.0
1701711213.0795898,0.0,4.0,-90.0,19.0,8.0,11.0,-9.0,-5.0
1701711213.0795898,-8.0,-4.0,-42.0,-84.0,-5.0,-13.0,-15.0,2.0
1701711213.0897233,4.0,-16.0,-9.0,21.0,-1.0,-1.0,5.0,9.0
1701711213.0897233,-12.0,-11.0,85.0,54.0,15.0,14.0,-1.0,-15.0
1701711213.099772,3.0,2.0,-39.0,-47.0,-15.0,-18.0,-26.0,-2.0
1701711213.099772,-5.0,-2.0,16.0,-2.0,5.0,11.0,13.0,-4.0
1701711213.110101,5.0,15.0,-42.0,-28.0,-1.0,17.0,12.0,2.0
1701711213.110101,-1.0,-13.0,-23.0,-29.0,2.0,-18.0,0.0,2.0
1701711213.1197946,7.0,-16.0,42.0,52.0,-16.0,-1.0,4.0,-1.0
1701711213.1197946,-3.0,-2.0,-44.0,-32.0,-19.0,-8.0,-15.0,3.0
1701711213.1497948,-8.0,0.0,46.0,106.0,24.0,10.0,-2.0,0.0
1701711213.1497948,-6.0,10.0,-32.0,-91.0,-32.0,-22.0,-23.0,-13.0
1701711213.1497948,8.0,-4.0,31.0,100.0,32.0,11.0,9.0,6.0
1701711213.1497948,-8.0,-7.0,-6.0,-52.0,-11.0,-17.0,-8.0,-11.0
1701711213.1497948,2.0,11.0,20.0,85.0,10.0,-3.0,1.0,1.0
1701711213.1497948,2.0,12.0,-21.0,-91.0,-23.0,0.0,1.0,-1.0
1701711213.159893,1.0,-21.0,8.0,-52.0,-28.0,-22.0,-20.0,-3.0
1701711213.159893,-6.0,-27.0,-8.0,42.0,5.0,-1.0,2.0,-1.0
1701711213.1702254,3.0,14.0,-19.0,-38.0,9.0,10.0,5.0,0.0
1701711213.1702254,-2.0,-6.0,-37.0,13.0,-31.0,-17.0,-9.0,-5.0
1701711213.1702254,-9.0,-11.0,-18.0,20.0,19.0,-3.0,-7.0,-5.0
1701711213.1702254,-3.0,-8.0,9.0,-42.0,-13.0,-3.0,-3.0,-1.0
1701711213.1998255,-1.0,-3.0,14.0,-12.0,-5.0,-4.0,-4.0,1.0
1701711213.1998255,-6.0,-3.0,-50.0,43.0,13.0,0.0,-2.0,-7.0
1701711213.1998255,10.0,-2.0,10.0,-23.0,-28.0,-29.0,-4.0,7.0
1701711213.1998255,-1.0,11.0,3.0,32.0,3.0,22.0,10.0,5.0
1701711213.210075,-1.0,-1.0,-5.0,0.0,15.0,11.0,20.0,0.0
1701711213.210075,-1.0,5.0,-12.0,-16.0,-17.0,-22.0,-24.0,10.0
1701711213.2200744,-4.0,5.0,8.0,-5.0,17.0,42.0,54.0,-22.0
1701711213.2200744,-6.0,-29.0,-15.0,-22.0,-7.0,-22.0,-16.0,0.0
1701711213.2497907,-1.0,9.0,27.0,-17.0,6.0,7.0,0.0,-3.0
1701711213.2497907,-7.0,-3.0,27.0,-3.0,-3.0,0.0,7.0,2.0
1701711213.2497907,6.0,2.0,6.0,1.0,2.0,-14.0,-19.0,4.0
1701711213.2497907,-2.0,-2.0,-16.0,9.0,-3.0,-7.0,-9.0,-2.0
1701711213.259789,1.0,-2.0,87.0,24.0,2.0,13.0,6.0,-1.0
1701711213.259789,-1.0,18.0,-4.0,-7.0,8.0,-3.0,-1.0,-5.0
1701711213.259789,-2.0,-5.0,-11.0,-26.0,-1.0,-5.0,-13.0,2.0
1701711213.259789,0.0,4.0,94.0,21.0,-8.0,-14.0,-7.0,-5.0
1701711213.2700682,-3.0,-6.0,-39.0,-42.0,-32.0,-20.0,-14.0,3.0
1701711213.2700682,4.0,7.0,18.0,42.0,32.0,14.0,2.0,-2.0
1701711213.2800727,-4.0,-9.0,-10.0,-32.0,13.0,1.0,-7.0,2.0
1701711213.2800727,2.0,1.0,23.0,30.0,-12.0,-24.0,12.0,-5.0
1701711213.2897964,8.0,1.0,-23.0,4.0,16.0,30.0,-31.0,8.0
1701711213.2897964,-7.0,9.0,-21.0,33.0,-1.0,9.0,23.0,-11.0
1701711213.299794,-9.0,-8.0,-27.0,-61.0,-20.0,-4.0,-8.0,7.0
1701711213.299794,0.0,3.0,18.0,48.0,18.0,-8.0,-5.0,-3.0
1701711213.3197875,-1.0,-3.0,-60.0,-45.0,-2.0,-7.0,4.0,-1.0
1701711213.3197875,2.0,-14.0,17.0,75.0,9.0,14.0,4.0,0.0
1701711213.3197875,6.0,7.0,-16.0,35.0,28.0,1.0,-9.0,1.0
1701711213.3197875,1.0,7.0,-45.0,-19.0,-12.0,-1.0,-2.0,0.0
1701711213.330176,-1.0,-9.0,-4.0,-26.0,2.0,-4.0,2.0,-3.0
1701711213.330176,3.0,7.0,6.0,-23.0,4.0,1.0,-5.0,0.0
1701711213.3401842,3.0,-5.0,42.0,-1.0,-5.0,-3.0,2.0,-1.0
1701711213.3401842,4.0,5.0,13.0,60.0,14.0,9.0,-1.0,2.0
1701711213.3597896,1.0,15.0,19.0,31.0,22.0,-2.0,8.0,0.0
1701711213.3597896,1.0,-26.0,-19.0,-36.0,-57.0,-8.0,-2.0,2.0
1701711213.3597896,1.0,9.0,-5.0,26.0,69.0,17.0,-2.0,1.0
1701711213.3597896,1.0,0.0,31.0,33.0,18.0,8.0,4.0,1.0
1701711213.3801434,-11.0,-4.0,-72.0,-40.0,-29.0,-11.0,-10.0,-7.0
1701711213.3801434,-3.0,1.0,12.0,15.0,-2.0,-12.0,-8.0,-6.0
1701711213.3801434,-2.0,-9.0,17.0,-6.0,-24.0,-9.0,-6.0,-1.0
1701711213.3801434,-1.0,3.0,-1.0,-4.0,-8.0,1.0,-1.0,1.0
1701711213.3900895,0.0,1.0,17.0,6.0,-8.0,-3.0,5.0,0.0
1701711213.3900895,-1.0,-3.0,0.0,21.0,25.0,-1.0,-5.0,0.0
1701711213.4000614,1.0,-4.0,-26.0,-3.0,-15.0,-2.0,0.0,0.0
1701711213.4000614,-7.0,-16.0,-10.0,-49.0,-3.0,-5.0,-3.0,-6.0
1701711213.4100573,12.0,20.0,77.0,58.0,-3.0,5.0,7.0,9.0
1701711213.4100573,-10.0,-8.0,-48.0,-36.0,-6.0,-2.0,-7.0,-10.0
1701711213.4197948,0.0,1.0,-20.0,2.0,-6.0,1.0,4.0,0.0
1701711213.4197948,0.0,4.0,2.0,-1.0,-1.0,7.0,7.0,5.0
1701711213.4497938,-12.0,-18.0,1.0,-28.0,-11.0,-23.0,-18.0,-15.0
1701711213.4497938,8.0,7.0,12.0,25.0,16.0,11.0,13.0,7.0
1701711213.4497938,2.0,-4.0,7.0,-15.0,-9.0,-10.0,-7.0,-2.0
1701711213.4497938,-8.0,8.0,-21.0,-34.0,-15.0,-1.0,-5.0,-7.0
1701711213.4497938,3.0,2.0,-31.0,-4.0,10.0,5.0,5.0,6.0
1701711213.4497938,-3.0,-6.0,1.0,-1.0,-5.0,-7.0,-4.0,-5.0
1701711213.4697897,-6.0,-12.0,29.0,11.0,-17.0,-7.0,-7.0,-7.0
1701711213.4697897,2.0,-1.0,-11.0,3.0,10.0,0.0,0.0,2.0
1701711213.4697897,1.0,2.0,-34.0,-45.0,-17.0,1.0,1.0,0.0
1701711213.4697897,2.0,5.0,36.0,28.0,17.0,3.0,-1.0,-1.0
1701711213.4697897,1.0,2.0,-2.0,-28.0,-14.0,-5.0,-1.0,0.0
1701711213.4697897,-3.0,-11.0,-30.0,-5.0,-5.0,-7.0,-6.0,-2.0
1701711213.499796,-1.0,4.0,20.0,3.0,10.0,2.0,5.0,-2.0
1701711213.499796,-5.0,-15.0,-40.0,-32.0,-22.0,-3.0,-4.0,-5.0
1701711213.499796,-2.0,-3.0,12.0,-16.0,-10.0,-3.0,-7.0,-2.0
1701711213.499796,6.0,12.0,-10.0,9.0,5.0,1.0,6.0,3.0
1701711213.5100293,-4.0,-5.0,9.0,10.0,-9.0,3.0,3.0,-3.0
1701711213.5100293,-1.0,-1.0,-6.0,-14.0,4.0,-16.0,-16.0,-5.0
1701711213.5432618,5.0,14.0,24.0,17.0,4.0,35.0,37.0,12.0
1701711213.5432618,-6.0,-4.0,-14.0,-9.0,7.0,1.0,-15.0,-2.0
1701711213.5432618,-7.0,-16.0,-6.0,-8.0,-4.0,4.0,9.0,-1.0
1701711213.5432618,10.0,12.0,64.0,15.0,3.0,2.0,-6.0,2.0
1701711213.5432618,-6.0,-10.0,-21.0,-8.0,-2.0,-6.0,-5.0,-2.0
1701711213.5432618,-1.0,-5.0,-14.0,-9.0,-7.0,-12.0,-6.0,-4.0
1701711213.5608013,0.0,4.0,-3.0,-7.0,4.0,-1.0,-2.0,2.0
1701711213.5608013,-8.0,-5.0,1.0,-16.0,9.0,5.0,1.0,-4.0
1701711213.5608013,-2.0,-6.0,3.0,22.0,-10.0,-11.0,-14.0,-9.0
1701711213.5608013,0.0,-8.0,-6.0,1.0,26.0,13.0,7.0,3.0
1701711213.580796,0.0,18.0,42.0,32.0,-20.0,-14.0,-11.0,-4.0
1701711213.580796,1.0,5.0,-2.0,-12.0,10.0,5.0,4.0,2.0
1701711213.580796,0.0,2.0,-48.0,-50.0,2.0,-4.0,-5.0,1.0
1701711213.580796,-2.0,-9.0,7.0,34.0,-3.0,-1.0,3.0,-2.0
1701711213.5911877,1.0,14.0,-22.0,-1.0,2.0,0.0,-3.0,-1.0
1701711213.5911877,-6.0,0.0,-3.0,-5.0,-6.0,-5.0,-3.0,-3.0
1701711213.5911877,4.0,7.0,37.0,19.0,-6.0,-3.0,-2.0,2.0
1701711213.5911877,-5.0,-18.0,-23.0,-13.0,-8.0,-1.0,-1.0,-4.0
1701711213.6110742,0.0,-11.0,0.0,1.0,2.0,-3.0,-4.0,-4.0
1701711213.6208127,-2.0,-8.0,-6.0,8.0,-7.0,0.0,2.0,-1.0
1701711213.6208127,0.0,9.0,20.0,9.0,9.0,-1.0,-5.0,-3.0
1701711213.6208127,-2.0,1.0,-47.0,-17.0,-26.0,-4.0,-3.0,-1.0
1701711213.6307971,3.0,-19.0,-43.0,-53.0,9.0,4.0,0.0,4.0
1701711213.6307971,-9.0,-1.0,-95.0,17.0,1.0,-3.0,-2.0,-5.0
1701711213.641186,-4.0,-11.0,-5.0,-45.0,-13.0,-8.0,-7.0,-5.0
1701711213.641186,3.0,6.0,3.0,8.0,-1.0,-6.0,-4.0,-2.0
1701711213.651229,14.0,12.0,41.0,74.0,19.0,12.0,11.0,12.0
1701711213.651229,-6.0,-15.0,0.0,-65.0,-13.0,-8.0,1.0,-2.0
1701711213.651229,3.0,3.0,-28.0,67.0,17.0,4.0,0.0,3.0
1701711213.651229,-10.0,13.0,-54.0,-96.0,-19.0,-6.0,-5.0,-4.0
1701711213.6712239,-9.0,-11.0,-28.0,-33.0,-20.0,-11.0,-8.0,-8.0
1701711213.680798,5.0,0.0,68.0,80.0,25.0,3.0,2.0,3.0
1701711213.680798,-2.0,-5.0,-3.0,-42.0,-10.0,-11.0,-5.0,-4.0
1701711213.680798,1.0,-3.0,30.0,17.0,13.0,-1.0,-2.0,-3.0
1701711213.7007968,2.0,0.0,14.0,12.0,-5.0,16.0,17.0,6.0
1701711213.7007968,-3.0,5.0,-13.0,18.0,-5.0,6.0,3.0,0.0
1701711213.7007968,2.0,0.0,45.0,14.0,-1.0,-3.0,4.0,1.0
1701711213.7007968,0.0,-1.0,12.0,-27.0,-1.0,2.0,3.0,-1.0
1701711213.7111804,-3.0,-7.0,-5.0,-4.0,-7.0,-12.0,-7.0,-6.0
1701711213.7111804,-2.0,-15.0,7.0,-17.0,-7.0,-6.0,-11.0,-3.0
1701711213.7111804,-1.0,4.0,-4.0,14.0,-1.0,3.0,3.0,0.0
1701711213.7111804,4.0,13.0,62.0,49.0,12.0,2.0,0.0,1.0
1701711213.7312493,-3.0,1.0,6.0,-9.0,-1.0,1.0,-1.0,0.0
1701711213.7312493,3.0,-15.0,29.0,12.0,-5.0,-2.0,-1.0,1.0
1701711213.7407992,-6.0,-11.0,-46.0,89.0,8.0,-1.0,-5.0,-7.0
1701711213.7407992,3.0,-1.0,-18.0,-14.0,-8.0,-2.0,0.0,3.0
1701711213.7510839,-5.0,-5.0,2.0,18.0,-6.0,-5.0,-8.0,-2.0
1701711213.7510839,4.0,0.0,-2.0,16.0,-11.0,-7.0,-3.0,0.0
1701711213.7608004,-2.0,4.0,31.0,-1.0,26.0,7.0,1.0,-1.0
1701711213.7608004,-1.0,-14.0,-2.0,30.0,-8.0,4.0,2.0,1.0
1701711213.7707956,1.0,-11.0,-16.0,16.0,13.0,-3.0,-7.0,-1.0
1701711213.7707956,3.0,4.0,27.0,-11.0,-8.0,-3.0,-1.0,0.0
1701711213.7707956,-1.0,13.0,3.0,-16.0,-10.0,5.0,8.0,2.0
1701711213.7707956,-4.0,-2.0,7.0,-31.0,-4.0,2.0,0.0,-1.0
1701711213.7912517,-1.0,-2.0,-3.0,-16.0,-6.0,-6.0,-4.0,-3.0
1701711213.7912517,4.0,11.0,8.0,5.0,5.0,1.0,3.0,0.0
1701711213.8008018,-3.0,-17.0,-27.0,-10.0,-3.0,-8.0,-10.0,-2.0
1701711213.8008018,0.0,3.0,24.0,40.0,-1.0,-2.0,-6.0,-3.0
1701711213.810797,0.0,-8.0,-1.0,10.0,-10.0,-3.0,4.0,-2.0
1701711213.810797,-1.0,20.0,7.0,-15.0,4.0,-1.0,-6.0,0.0
1701711213.8211923,1.0,-21.0,2.0,-15.0,-15.0,-5.0,2.0,-2.0
1701711213.8211923,-4.0,-5.0,3.0,30.0,5.0,0.0,-1.0,1.0
1701711213.831225,-5.0,-7.0,-37.0,-43.0,-5.0,-7.0,-7.0,-5.0
1701711213.831225,0.0,6.0,2.0,60.0,10.0,10.0,5.0,1.0
1701711213.831225,-1.0,-1.0,10.0,-14.0,-9.0,-3.0,-3.0,1.0
1701711213.831225,-2.0,-5.0,-17.0,-28.0,18.0,5.0,4.0,-1.0
1701711213.850798,-1.0,-2.0,7.0,14.0,9.0,-2.0,-2.0,-3.0
1701711213.850798,-3.0,-9.0,-24.0,-41.0,-5.0,-11.0,-17.0,-1.0
1701711213.8608203,-1.0,3.0,-10.0,-17.0,-14.0,0.0,2.0,-1.0
1701711213.8608203,-3.0,-6.0,-7.0,44.0,5.0,3.0,0.0,-2.0
1701711213.8712366,-3.0,-2.0,8.0,14.0,-10.0,0.0,-3.0,-2.0
1701711213.8712366,1.0,6.0,10.0,11.0,1.0,-3.0,10.0,0.0
1701711213.8812027,0.0,4.0,5.0,7.0,4.0,8.0,-2.0,1.0
1701711213.8812027,1.0,8.0,31.0,-45.0,-12.0,-6.0,-4.0,1.0
1701711213.8911765,-1.0,1.0,-18.0,11.0,15.0,-1.0,-6.0,-2.0
1701711213.8911765,-8.0,-22.0,-13.0,-40.0,-11.0,-2.0,5.0,-4.0
1701711213.8911765,1.0,24.0,-6.0,19.0,7.0,-7.0,-3.0,0.0
1701711213.8911765,3.0,-11.0,-14.0,-20.0,-8.0,-2.0,1.0,1.0
1701711213.9109817,-2.0,10.0,15.0,-16.0,-6.0,0.0,0.0,-1.0
1701711213.9207988,-3.0,-13.0,-17.0,-39.0,-4.0,1.0,-1.0,-1.0
1701711213.9207988,-1.0,3.0,7.0,25.0,1.0,-3.0,-2.0,-3.0
1701711213.9207988,0.0,-7.0,0.0,-17.0,0.0,-5.0,-5.0,0.0
1701711213.9411879,0.0,4.0,2.0,5.0,5.0,13.0,7.0,-1.0
1701711213.9411879,-2.0,0.0,-47.0,-28.0,-12.0,-8.0,-9.0,-1.0
1701711213.9411879,-3.0,-15.0,-10.0,-35.0,-2.0,-8.0,-3.0,-5.0
1701711213.9411879,-2.0,9.0,11.0,19.0,6.0,0.0,-10.0,0.0
1701711213.9507978,0.0,5.0,-9.0,-6.0,-3.0,5.0,6.0,3.0
1701711213.9507978,0.0,-3.0,10.0,23.0,0.0,-3.0,-3.0,-2.0
1701711213.9611735,-3.0,-4.0,15.0,-28.0,-1.0,13.0,7.0,-2.0
1701711213.9611735,0.0,-8.0,-29.0,6.0,-9.0,-7.0,-2.0,-1.0
1701711213.9708002,-3.0,-7.0,-34.0,-32.0,1.0,-5.0,-5.0,-3.0
1701711213.9708002,3.0,4.0,32.0,5.0,-10.0,7.0,3.0,3.0
1701711213.9807959,-1.0,-7.0,-4.0,2.0,3.0,-5.0,-5.0,-2.0
1701711213.9807959,0.0,7.0,4.0,6.0,7.0,5.0,3.0,0.0
1701711214.0012517,-2.0,-4.0,12.0,12.0,-5.0,0.0,-1.0,1.0
1701711214.0012517,2.0,3.0,2.0,7.0,3.0,-1.0,-1.0,-4.0
1701711214.0012517,-3.0,-6.0,-2.0,-29.0,-10.0,-6.0,-6.0,-1.0
1701711214.0012517,0.0,9.0,-20.0,-43.0,-14.0,-5.0,0.0,-4.0
1701711214.0111923,-2.0,-5.0,57.0,33.0,6.0,-8.0,-4.0,-3.0
1701711214.0111923,-4.0,3.0,-48.0,-10.0,-2.0,7.0,4.0,-2.0
1701711214.0211432,0.0,-3.0,-1.0,4.0,-3.0,-2.0,2.0,-1.0
1701711214.0211432,1.0,-3.0,3.0,13.0,1.0,-1.0,-1.0,0.0
1701711214.0307996,3.0,6.0,22.0,10.0,2.0,-4.0,-3.0,0.0
1701711214.0307996,-2.0,11.0,17.0,-2.0,7.0,8.0,9.0,-2.0
1701711214.0407953,1.0,2.0,2.0,-8.0,-4.0,1.0,1.0,-1.0
1701711214.0407953,2.0,-2.0,2.0,25.0,4.0,1.0,-6.0,-1.0
1701711214.0627148,1.0,5.0,-9.0,6.0,5.0,4.0,6.0,2.0
1701711214.0627148,-1.0,2.0,38.0,-5.0,-5.0,-6.0,-5.0,0.0
1701711214.0644803,0.0,-17.0,-62.0,-9.0,2.0,-2.0,1.0,-1.0
1701711214.0644803,-4.0,-1.0,-22.0,-68.0,-23.0,-8.0,-2.0,-6.0
1701711214.084024,-5.0,1.0,-60.0,11.0,14.0,1.0,-5.0,-4.0
1701711214.084024,6.0,25.0,39.0,-7.0,3.0,3.0,1.0,2.0
1701711214.084024,-5.0,1.0,24.0,25.0,3.0,1.0,-2.0,-2.0
1701711214.084024,0.0,-12.0,0.0,-14.0,-6.0,-1.0,2.0,1.0
1701711214.0944297,0.0,-12.0,-29.0,-5.0,-6.0,-1.0,-2.0,-3.0
1701711214.0944297,-5.0,-6.0,-19.0,24.0,6.0,0.0,2.0,-5.0
1701711214.0944297,2.0,0.0,6.0,-11.0,-3.0,-6.0,-5.0,0.0
1701711214.0944297,-1.0,-1.0,-18.0,-34.0,-1.0,0.0,1.0,1.0
1701711214.1148539,-1.0,-3.0,16.0,-7.0,5.0,3.0,-1.0,1.0
1701711214.1148539,2.0,-2.0,2.0,20.0,2.0,-8.0,-5.0,3.0
1701711214.1244419,-3.0,-3.0,-7.0,-3.0,2.0,10.0,0.0,0.0
1701711214.1244419,-4.0,-3.0,7.0,1.0,-2.0,-1.0,0.0,-2.0
1701711214.1344426,2.0,-1.0,13.0,4.0,-8.0,-1.0,3.0,-1.0
1701711214.1344426,-1.0,-4.0,31.0,30.0,13.0,3.0,-2.0,0.0
1701711214.1444392,-3.0,-3.0,-21.0,33.0,2.0,-2.0,-6.0,0.0
1701711214.1444392,-3.0,-5.0,-20.0,-65.0,-11.0,-3.0,10.0,-2.0
1701711214.154709,-5.0,0.0,41.0,37.0,0.0,3.0,-7.0,-3.0
1701711214.154709,1.0,-1.0,-16.0,-23.0,-1.0,-5.0,-5.0,-1.0
1701711214.154709,-1.0,-3.0,8.0,33.0,-2.0,-5.0,-2.0,-2.0
1701711214.154709,1.0,-5.0,7.0,-26.0,15.0,5.0,-1.0,1.0
1701711214.1746974,2.0,3.0,-6.0,-14.0,-11.0,-4.0,0.0,-1.0
1701711214.1746974,1.0,-9.0,-17.0,-5.0,-6.0,-1.0,-3.0,0.0
1701711214.1746974,-2.0,1.0,3.0,-22.0,-11.0,-2.0,-2.0,-3.0
1701711214.1746974,1.0,-3.0,-23.0,26.0,1.0,2.0,-1.0,0.0
1701711214.214441,-2.0,-9.0,62.0,-19.0,15.0,-3.0,1.0,-3.0
1701711214.214441,-3.0,-2.0,-86.0,-25.0,-7.0,-4.0,-3.0,-3.0
1701711214.214441,2.0,14.0,0.0,-7.0,-6.0,-4.0,-3.0,-1.0
1701711214.214441,-5.0,9.0,-16.0,74.0,1.0,-2.0,-2.0,-6.0
1701711214.2244897,2.0,-3.0,9.0,-9.0,-3.0,2.0,-3.0,0.0
1701711214.2244897,3.0,-12.0,42.0,16.0,-1.0,0.0,1.0,2.0
1701711214.2244897,-3.0,0.0,7.0,-7.0,1.0,-1.0,-3.0,-1.0
1701711214.2244897,0.0,2.0,20.0,42.0,4.0,-2.0,-2.0,1.0
1701711214.2347126,-4.0,-3.0,-78.0,-27.0,-6.0,-4.0,-1.0,-1.0
1701711214.2347126,-3.0,-2.0,27.0,-17.0,-5.0,1.0,0.0,-2.0
1701711214.2347126,0.0,-2.0,30.0,-13.0,13.0,-2.0,-2.0,1.0
1701711214.2347126,-2.0,-11.0,28.0,-4.0,2.0,-2.0,-1.0,0.0
1701711214.2644413,-2.0,4.0,-40.0,24.0,-11.0,-3.0,0.0,-2.0
1701711214.2644413,-2.0,4.0,15.0,-33.0,-2.0,-2.0,-2.0,-3.0
1701711214.2644413,-1.0,6.0,13.0,13.0,-2.0,-2.0,2.0,-2.0
1701711214.2644413,-2.0,-8.0,-4.0,-35.0,-7.0,-6.0,-7.0,-1.0
1701711214.274474,4.0,1.0,8.0,3.0,4.0,13.0,11.0,1.0
1701711214.274474,0.0,5.0,-4.0,101.0,6.0,-4.0,2.0,0.0
1701711214.274474,-2.0,-6.0,-15.0,-19.0,-4.0,1.0,-3.0,-3.0
1701711214.274474,2.0,7.0,12.0,-9.0,2.0,-2.0,-3.0,2.0
1701711214.3044407,-1.0,1.0,15.0,11.0,0.0,-2.0,-2.0,0.0
1701711214.3044407,-4.0,-2.0,-35.0,-32.0,-5.0,-1.0,0.0,-1.0
1701711214.3044407,-1.0,-3.0,33.0,12.0,6.0,-2.0,-6.0,-2.0
1701711214.3044407,5.0,-3.0,-19.0,4.0,-8.0,9.0,12.0,4.0
1701711214.3144755,-3.0,4.0,-2.0,-15.0,0.0,-6.0,-9.0,-3.0
1701711214.3144755,-4.0,-2.0,-7.0,-13.0,-10.0,-1.0,-2.0,-1.0
1701711214.3244429,-3.0,0.0,-31.0,4.0,3.0,-5.0,-2.0,-2.0
1701711214.3244429,-2.0,1.0,12.0,22.0,1.0,-1.0,-3.0,-2.0
1701711214.3347573,0.0,-8.0,-13.0,-9.0,-4.0,-10.0,-6.0,1.0
1701711214.3347573,-1.0,-3.0,11.0,-7.0,1.0,11.0,6.0,0.0
1701711214.3447871,1.0,-2.0,14.0,-11.0,-9.0,-1.0,3.0,0.0
1701711214.3447871,1.0,-5.0,10.0,10.0,11.0,5.0,-2.0,-3.0
1701711214.3644402,-2.0,1.0,-33.0,7.0,0.0,-3.0,-2.0,0.0
1701711214.3644402,2.0,-4.0,-6.0,-25.0,-3.0,-5.0,-4.0,-2.0
1701711214.3644402,-1.0,-3.0,-17.0,-22.0,-1.0,1.0,0.0,-1.0
1701711214.3644402,-2.0,1.0,-7.0,4.0,-7.0,5.0,4.0,0.0
1701711214.3747535,1.0,3.0,13.0,12.0,11.0,-7.0,-8.0,0.0
1701711214.3747535,-3.0,-5.0,12.0,-15.0,-9.0,-3.0,-2.0,-2.0
1701711214.3844433,-3.0,-15.0,-83.0,-62.0,-8.0,2.0,4.0,-1.0
1701711214.3844433,2.0,6.0,12.0,33.0,1.0,-6.0,-2.0,-3.0
1701711214.3947685,-1.0,16.0,0.0,-31.0,1.0,5.0,0.0,0.0
1701711214.3947685,-4.0,-9.0,21.0,12.0,-1.0,-7.0,-6.0,-7.0
1701711214.3947685,1.0,2.0,10.0,24.0,-1.0,1.0,5.0,3.0
1701711214.3947685,-3.0,-10.0,13.0,-34.0,-8.0,-4.0,-5.0,-1.0
1701711214.4145854,-1.0,6.0,-27.0,48.0,1.0,2.0,1.0,-1.0
1701711214.4145854,-2.0,-7.0,-46.0,-17.0,1.0,-3.0,-3.0,-1.0
1701711214.43444,0.0,-1.0,50.0,26.0,-2.0,2.0,-3.0,0.0
1701711214.43444,0.0,3.0,-32.0,-11.0,1.0,-2.0,-3.0,0.0
1701711214.43444,-2.0,-9.0,36.0,21.0,6.0,1.0,2.0,-1.0
1701711214.43444,-2.0,3.0,1.0,-4.0,-2.0,-1.0,-1.0,0.0
1701711214.43444,0.0,-1.0,-12.0,12.0,2.0,-6.0,-9.0,-2.0
1701711214.4444456,-1.0,-4.0,-10.0,-20.0,-3.0,-1.0,0.0,1.0
1701711214.4548612,-5.0,-10.0,12.0,4.0,-7.0,-2.0,0.0,-3.0
1701711214.4548612,-1.0,-1.0,-16.0,1.0,-3.0,-7.0,-5.0,-5.0
1701711214.4548612,3.0,-13.0,33.0,3.0,0.0,-2.0,-6.0,2.0
1701711214.4548612,-4.0,26.0,-13.0,-54.0,0.0,0.0,2.0,-4.0
1701711214.4744744,1.0,-12.0,13.0,11.0,-8.0,-4.0,-2.0,-3.0
1701711214.4744744,7.0,3.0,-57.0,-17.0,22.0,9.0,5.0,4.0
1701711214.4744744,-4.0,1.0,21.0,25.0,-1.0,1.0,-1.0,-3.0
1701711214.4744744,1.0,-10.0,41.0,12.0,3.0,-4.0,0.0,-2.0
1701711214.49467,-2.0,-6.0,-31.0,-34.0,-11.0,-4.0,-4.0,1.0
1701711214.49467,-1.0,3.0,11.0,7.0,-2.0,3.0,2.0,0.0
1701711214.504445,-2.0,1.0,-23.0,9.0,4.0,-6.0,-7.0,-2.0
1701711214.504445,-1.0,-2.0,18.0,36.0,5.0,-1.0,-6.0,2.0
1701711214.5146515,-3.0,-3.0,-24.0,-57.0,-5.0,0.0,6.0,-3.0
1701711214.5146515,0.0,-7.0,33.0,23.0,-5.0,-2.0,-5.0,-2.0
1701711214.5146515,-1.0,3.0,-24.0,-26.0,9.0,1.0,10.0,-1.0
1701711214.5146515,5.0,-3.0,17.0,35.0,-5.0,3.0,-1.0,21.0
1701711214.5444407,2.0,1.0,30.0,4.0,5.0,15.0,4.0,-19.0
1701711214.5444407,-2.0,5.0,-19.0,-8.0,-4.0,-6.0,-13.0,-2.0
1701711214.5444407,0.0,1.0,-16.0,-8.0,-7.0,-2.0,12.0,0.0
1701711214.5444407,-3.0,-16.0,4.0,7.0,3.0,-2.0,1.0,-7.0
1701711214.5645187,-4.0,25.0,-93.0,-46.0,-16.0,-23.0,-18.0,-2.0
1701711214.5645187,-29.0,-11.0,15.0,-8.0,-6.0,-8.0,-22.0,-15.0
1701711214.5645187,-6.0,-15.0,5.0,4.0,3.0,2.0,-4.0,-10.0
1701711214.5645187,-4.0,-8.0,13.0,6.0,-7.0,-7.0,9.0,-3.0
1701711214.587393,3.0,-8.0,19.0,5.0,6.0,8.0,5.0,11.0
1701711214.587393,4.0,-8.0,13.0,-3.0,-9.0,-19.0,-6.0,0.0
1701711214.588144,0.0,1.0,-28.0,8.0,1.0,-7.0,-19.0,6.0
1701711214.588144,-4.0,9.0,8.0,-7.0,0.0,15.0,10.0,-14.0
1701711214.5998292,-5.0,-13.0,21.0,26.0,-5.0,-6.0,-10.0,-4.0
1701711214.5998292,7.0,15.0,5.0,14.0,3.0,5.0,8.0,4.0
1701711214.5998292,0.0,-7.0,9.0,-36.0,6.0,2.0,2.0,1.0
1701711214.5998292,1.0,5.0,-27.0,-14.0,-34.0,-11.0,-9.0,-1.0
1701711214.6099494,1.0,0.0,42.0,29.0,9.0,3.0,2.0,2.0
1701711214.6099494,5.0,-14.0,-48.0,-22.0,15.0,5.0,5.0,8.0
1701711214.6202548,2.0,15.0,40.0,40.0,9.0,14.0,6.0,-4.0
1701711214.6202548,-5.0,-7.0,-23.0,-38.0,-7.0,-20.0,-12.0,-6.0
1701711214.6306653,-2.0,-10.0,-22.0,-12.0,16.0,8.0,-2.0,0.0
1701711214.6402695,2.0,6.0,51.0,37.0,5.0,11.0,8.0,1.0
1701711214.6402695,0.0,2.0,-10.0,-27.0,-8.0,5.0,3.0,3.0
1701711214.6402695,-1.0,1.0,-13.0,-12.0,-22.0,-24.0,-12.0,-8.0
1701711214.6606424,0.0,-5.0,23.0,-15.0,-12.0,-7.0,1.0,2.0
1701711214.6606424,0.0,5.0,0.0,-2.0,6.0,4.0,-10.0,-3.0
1701711214.6606424,2.0,0.0,-10.0,-30.0,-14.0,-10.0,-12.0,3.0
1701711214.6606424,2.0,-5.0,-3.0,21.0,14.0,-2.0,-7.0,0.0
1701711214.6804519,2.0,-12.0,-10.0,-23.0,-14.0,-14.0,-3.0,-5.0
1701711214.6804519,-6.0,3.0,11.0,27.0,3.0,-3.0,-7.0,-4.0
1701711214.6804519,0.0,5.0,-7.0,1.0,-3.0,4.0,11.0,2.0
1701711214.6804519,-1.0,6.0,23.0,22.0,14.0,3.0,4.0,-3.0
1701711214.6902666,4.0,-9.0,2.0,2.0,9.0,18.0,-4.0,1.0
1701711214.6902666,8.0,7.0,6.0,-5.0,-7.0,9.0,25.0,21.0
1701711214.7002637,-8.0,5.0,-6.0,33.0,5.0,-16.0,-20.0,-31.0
1701711214.7002637,-1.0,-9.0,12.0,8.0,4.0,13.0,14.0,1.0
1701711214.7207181,-4.0,-4.0,-22.0,-13.0,-8.0,2.0,6.0,7.0
1701711214.7207181,4.0,0.0,19.0,11.0,-2.0,-10.0,0.0,3.0
1701711214.7207181,1.0,-2.0,-8.0,0.0,-2.0,-4.0,-3.0,4.0
1701711214.7207181,-2.0,-3.0,-19.0,12.0,9.0,8.0,5.0,1.0
1701711214.7406535,-6.0,-1.0,12.0,-2.0,-8.0,-9.0,-2.0,-9.0
1701711214.7406535,-1.0,-1.0,-3.0,1.0,-3.0,2.0,7.0,-2.0
1701711214.7406535,-2.0,-9.0,-7.0,-9.0,-1.0,-10.0,-4.0,2.0
1701711214.7406535,-1.0,1.0,1.0,-3.0,-16.0,1.0,-6.0,-2.0
1701711214.760265,2.0,7.0,24.0,60.0,21.0,5.0,5.0,4.0
1701711214.760265,-2.0,0.0,-26.0,-47.0,-13.0,-1.0,3.0,-5.0
1701711214.760265,0.0,-1.0,-2.0,-9.0,-36.0,-17.0,-7.0,0.0
1701711214.760265,-3.0,-9.0,-6.0,21.0,23.0,7.0,-1.0,-1.0
1701711214.7807202,-1.0,-3.0,-5.0,-41.0,-12.0,0.0,-4.0,2.0
1701711214.7807202,-6.0,-12.0,5.0,33.0,18.0,0.0,-7.0,-9.0
1701711214.7807202,0.0,-7.0,-2.0,35.0,-11.0,3.0,4.0,-1.0
1701711214.7807202,-2.0,-7.0,-4.0,-45.0,-8.0,-2.0,-4.0,0.0
1701711214.8007183,-3.0,0.0,-1.0,27.0,7.0,-23.0,-9.0,-5.0
1701711214.8007183,-1.0,3.0,8.0,-20.0,-7.0,23.0,17.0,-2.0
1701711214.8007183,-1.0,0.0,-7.0,-14.0,6.0,2.0,6.0,2.0
1701711214.8007183,-3.0,-1.0,-3.0,-29.0,1.0,5.0,0.0,-3.0
1701711214.8102663,-2.0,4.0,-7.0,16.0,2.0,6.0,1.0,0.0
1701711214.8102663,2.0,-8.0,-29.0,-46.0,-9.0,-14.0,-1.0,14.0
1701711214.8202636,2.0,5.0,37.0,14.0,9.0,2.0,-2.0,-20.0
1701711214.8202636,1.0,6.0,-59.0,6.0,6.0,4.0,6.0,1.0
1701711214.8407214,1.0,-5.0,-9.0,-32.0,-12.0,-3.0,-6.0,0.0
1701711214.8407214,-3.0,2.0,21.0,10.0,3.0,2.0,1.0,-5.0
1701711214.8407214,1.0,1.0,19.0,-4.0,10.0,0.0,0.0,10.0
1701711214.8407214,-1.0,-8.0,47.0,1.0,0.0,-3.0,-9.0,-2.0
1701711214.860591,-2.0,-21.0,-59.0,-15.0,-5.0,-1.0,2.0,-3.0
1701711214.860591,-1.0,15.0,-33.0,9.0,3.0,-8.0,-16.0,-5.0
1701711214.860591,-2.0,-5.0,0.0,-25.0,-4.0,6.0,14.0,5.0
1701711214.860591,-1.0,3.0,20.0,39.0,4.0,-12.0,-10.0,-4.0
1701711214.8802643,-2.0,-4.0,64.0,-7.0,-2.0,-2.0,0.0,5.0
1701711214.8802643,1.0,-15.0,-18.0,-9.0,0.0,20.0,12.0,-2.0
1701711214.8802643,-5.0,-5.0,-19.0,-7.0,2.0,-5.0,-3.0,1.0
1701711214.8802643,1.0,8.0,-10.0,-17.0,-2.0,-3.0,-11.0,-2.0
1701711214.9005668,-3.0,-10.0,-9.0,24.0,15.0,1.0,4.0,-2.0
1701711214.9005668,1.0,-9.0,23.0,12.0,-23.0,3.0,-2.0,-6.0
1701711214.9005668,1.0,0.0,-12.0,-7.0,6.0,-4.0,-5.0,0.0
1701711214.9005668,-2.0,1.0,17.0,11.0,-12.0,2.0,3.0,2.0
1701711214.9204516,4.0,7.0,7.0,-7.0,12.0,4.0,-2.0,0.0
1701711214.9302738,-8.0,-10.0,-29.0,-59.0,-13.0,-20.0,-10.0,-6.0
1701711214.9402716,0.0,-9.0,17.0,33.0,12.0,9.0,5.0,4.0
1701711214.9402716,-7.0,-9.0,-9.0,-38.0,-9.0,-10.0,-3.0,-8.0
1701711214.9402716,4.0,11.0,1.0,-4.0,-17.0,-4.0,-6.0,1.0
1701711214.9402716,8.0,7.0,-17.0,37.0,36.0,10.0,13.0,3.0
1701711214.9402716,-18.0,-9.0,20.0,-23.0,-35.0,-26.0,-4.0,-1.0
1701711214.9402716,2.0,8.0,-11.0,9.0,18.0,23.0,14.0,-9.0
1701711214.9605603,-6.0,7.0,26.0,2.0,3.0,27.0,12.0,-10.0
1701711214.9605603,5.0,-2.0,21.0,22.0,13.0,-3.0,-28.0,17.0
1701711214.9605603,4.0,-10.0,-39.0,-33.0,-13.0,3.0,24.0,3.0
1701711214.9605603,-6.0,-8.0,4.0,13.0,4.0,-22.0,-16.0,-4.0
1701711214.9902656,-1.0,-2.0,-32.0,-23.0,-9.0,5.0,-8.0,3.0
1701711214.9902656,-4.0,6.0,46.0,41.0,9.0,13.0,15.0,-9.0
1701711214.9902656,-5.0,-10.0,-43.0,2.0,-17.0,-15.0,-18.0,-4.0
1701711214.9902656,3.0,5.0,10.0,31.0,5.0,6.0,-3.0,7.0
1701711214.9902656,-2.0,-5.0,-8.0,11.0,-1.0,-4.0,1.0,-7.0
1701711214.9902656,0.0,3.0,-6.0,2.0,-11.0,-13.0,-1.0,-3.0
1701711215.0002677,5.0,11.0,-3.0,-14.0,9.0,1.0,-8.0,0.0
1701711215.0002677,-3.0,-16.0,-20.0,25.0,-6.0,-12.0,-4.0,-4.0
1701711215.0202708,12.0,-6.0,25.0,28.0,-4.0,2.0,4.0,6.0
1701711215.0202708,-2.0,6.0,-9.0,-9.0,8.0,3.0,5.0,10.0
1701711215.0202708,3.0,30.0,28.0,-49.0,1.0,22.0,8.0,-5.0
1701711215.0202708,1.0,-1.0,-37.0,6.0,-9.0,-7.0,-1.0,3.0
1701711215.050264,-4.0,-10.0,4.0,17.0,2.0,-1.0,2.0,-1.0
1701711215.050264,-6.0,2.0,-16.0,-17.0,-12.0,-6.0,-1.0,1.0
1701711215.050264,-5.0,-12.0,-24.0,-15.0,2.0,-8.0,-12.0,-4.0
1701711215.050264,1.0,-4.0,10.0,22.0,-13.0,-3.0,3.0,3.0
1701711215.060264,1.0,5.0,16.0,-14.0,2.0,2.0,-1.0,5.0
1701711215.060264,-7.0,-14.0,15.0,16.0,18.0,1.0,-4.0,-10.0
1701711215.060264,-1.0,10.0,-12.0,1.0,-31.0,-4.0,-2.0,-1.0
1701711215.060264,-1.0,6.0,7.0,-12.0,39.0,14.0,7.0,1.0
1701711215.0805984,-4.0,0.0,-23.0,1.0,3.0,-11.0,-3.0,0.0
1701711215.0805984,-2.0,-6.0,18.0,-1.0,-16.0,-23.0,-14.0,-4.0
1701711215.0805984,5.0,-1.0,6.0,22.0,15.0,17.0,22.0,4.0
1701711215.0805984,4.0,8.0,-1.0,-21.0,-20.0,22.0,13.0,5.0
