1701711064.400277,0.0,-1.0,0.0,0.0,-1.0,0.0,-1.0,-1.0
1701711064.400277,-1.0,-2.0,0.0,-3.0,-2.0,-1.0,-1.0,-3.0
1701711064.410283,-2.0,-3.0,-2.0,-2.0,-1.0,0.0,0.0,-1.0
1701711064.410283,-3.0,-2.0,-1.0,0.0,0.0,-1.0,1.0,-2.0
1701711064.4203155,-1.0,-1.0,-1.0,0.0,-2.0,-2.0,-1.0,-2.0
1701711064.4203155,-2.0,-2.0,-1.0,-1.0,-1.0,-1.0,-1.0,0.0
1701711064.4302793,0.0,1.0,-1.0,0.0,-3.0,-1.0,-1.0,-1.0
1701711064.4302793,-2.0,1.0,-1.0,0.0,-1.0,0.0,0.0,-1.0
1701711064.470276,-3.0,1.0,-1.0,0.0,-2.0,-1.0,-1.0,-2.0
1701711064.470276,-2.0,2.0,-2.0,0.0,-1.0,0.0,1.0,-3.0
1701711064.470276,-3.0,1.0,-1.0,-1.0,-2.0,-3.0,0.0,-2.0
1701711064.470276,-6.0,2.0,-1.0,-1.0,-3.0,0.0,2.0,-4.0
1701711064.470276,-5.0,3.0,1.0,-1.0,-2.0,1.0,1.0,-6.0
1701711064.470276,-6.0,1.0,0.0,-1.0,-3.0,-2.0,1.0,-6.0
1701711064.470276,-3.0,1.0,1.0,1.0,-2.0,1.0,-4.0,0.0
1701711064.470276,0.0,-3.0,-2.0,1.0,-1.0,-1.0,-3.0,6.0
1701711064.4805043,5.0,-4.0,0.0,0.0,2.0,-1.0,-4.0,10.0
1701711064.4805043,5.0,-5.0,-2.0,-1.0,1.0,0.0,-4.0,6.0
1701711064.4902794,3.0,-4.0,-2.0,-2.0,3.0,-1.0,-2.0,-2.0
1701711064.4902794,3.0,-5.0,-1.0,-2.0,0.0,0.0,-4.0,-2.0
1701711064.510278,1.0,-4.0,-3.0,-1.0,2.0,0.0,-4.0,4.0
1701711064.510278,6.0,-6.0,-2.0,-4.0,2.0,0.0,-3.0,11.0
1701711064.510278,9.0,-8.0,-2.0,-2.0,3.0,0.0,-6.0,12.0
1701711064.510278,9.0,-8.0,-3.0,-2.0,7.0,0.0,-4.0,8.0
1701711064.5203922,4.0,-6.0,-2.0,-2.0,4.0,1.0,-3.0,-1.0
1701711064.5203922,1.0,0.0,-2.0,-1.0,2.0,0.0,-3.0,-8.0
1701711064.5302815,-4.0,2.0,-1.0,-2.0,-3.0,-2.0,-7.0,-15.0
1701711064.5302815,-8.0,5.0,0.0,0.0,-5.0,-1.0,-12.0,-16.0
1701711064.540389,-5.0,4.0,0.0,2.0,-5.0,-2.0,-9.0,-15.0
1701711064.540389,-6.0,-1.0,-1.0,2.0,-3.0,-3.0,1.0,-5.0
1701711064.5502822,2.0,-4.0,-2.0,-1.0,-1.0,-4.0,10.0,1.0
1701711064.5502822,7.0,-6.0,-3.0,-1.0,0.0,-7.0,10.0,7.0
1701711064.5703554,13.0,-9.0,-3.0,-3.0,4.0,-4.0,5.0,8.0
1701711064.5703554,12.0,-7.0,-3.0,0.0,4.0,-1.0,0.0,6.0
1701711064.5703554,9.0,-6.0,-3.0,-4.0,4.0,0.0,-1.0,4.0
1701711064.5703554,5.0,-4.0,-2.0,-2.0,1.0,-2.0,3.0,1.0
1701711064.580699,-1.0,1.0,-2.0,-2.0,-1.0,-2.0,1.0,0.0
1701711064.580699,-1.0,4.0,-2.0,-4.0,-6.0,-5.0,1.0,-2.0
1701711064.580699,-8.0,4.0,1.0,-1.0,-7.0,-3.0,3.0,-3.0
1701711064.580699,-10.0,7.0,0.0,-1.0,-7.0,-2.0,1.0,-5.0
1701711064.6017456,-11.0,6.0,-1.0,-2.0,-9.0,-3.0,3.0,-6.0
1701711064.6017456,-14.0,4.0,2.0,-1.0,-7.0,-2.0,3.0,-6.0
1701711064.6104198,-12.0,6.0,1.0,1.0,-7.0,1.0,0.0,-5.0
1701711064.6104198,-10.0,5.0,1.0,0.0,-6.0,-1.0,3.0,-4.0
1701711064.6236265,-8.0,3.0,-2.0,0.0,-5.0,-1.0,2.0,-2.0
1701711064.6236265,-9.0,1.0,0.0,3.0,-3.0,2.0,1.0,-4.0
1701711064.6236265,-6.0,3.0,0.0,-3.0,-2.0,-2.0,-1.0,-4.0
1701711064.6236265,-6.0,-1.0,-1.0,0.0,-2.0,2.0,-1.0,-4.0
1701711064.663602,-2.0,1.0,-2.0,-1.0,-3.0,0.0,-2.0,-2.0
1701711064.663602,-2.0,0.0,-1.0,0.0,-2.0,1.0,-5.0,-2.0
1701711064.663602,0.0,0.0,-1.0,1.0,-2.0,-1.0,-2.0,1.0
1701711064.663602,0.0,-2.0,-2.0,0.0,0.0,-1.0,-2.0,2.0
1701711064.663602,-1.0,-3.0,-1.0,-1.0,-3.0,0.0,-2.0,0.0
1701711064.663602,-1.0,-1.0,-2.0,-2.0,0.0,0.0,-4.0,0.0
1701711064.6736007,-2.0,-4.0,-1.0,0.0,3.0,2.0,-2.0,-1.0
1701711064.6736007,1.0,0.0,-1.0,-4.0,-1.0,-3.0,-3.0,0.0
1701711064.6838849,-1.0,-4.0,0.0,-1.0,2.0,2.0,-2.0,1.0
1701711064.6838849,0.0,-3.0,-1.0,-2.0,1.0,2.0,-1.0,0.0
1701711064.6838849,-1.0,-3.0,0.0,-2.0,2.0,1.0,-1.0,1.0
1701711064.6838849,0.0,0.0,-2.0,0.0,0.0,-1.0,-2.0,0.0
1701711064.7040963,-2.0,-3.0,1.0,0.0,1.0,-1.0,-2.0,-2.0
1701711064.7040963,1.0,-3.0,-1.0,-1.0,0.0,-1.0,-1.0,0.0
1701711064.7040963,0.0,-1.0,-1.0,-2.0,0.0,0.0,1.0,-2.0
1701711064.7040963,0.0,-1.0,-1.0,-2.0,-1.0,0.0,0.0,-2.0
1701711064.7241082,0.0,-1.0,0.0,0.0,1.0,-1.0,-2.0,0.0
1701711064.7241082,-2.0,-1.0,-2.0,-2.0,-1.0,-1.0,0.0,0.0
1701711064.7241082,1.0,-2.0,0.0,0.0,-1.0,-3.0,-3.0,-2.0
1701711064.7241082,0.0,-3.0,-2.0,0.0,0.0,-1.0,0.0,0.0
1701711064.7445672,-1.0,-2.0,-1.0,0.0,1.0,0.0,0.0,-1.0
1701711064.7445672,0.0,-1.0,-3.0,-2.0,0.0,-2.0,-2.0,-1.0
1701711064.7445672,-1.0,-2.0,-3.0,-1.0,-1.0,-2.0,-2.0,0.0
1701711064.7445672,0.0,-3.0,0.0,-1.0,-1.0,-2.0,-1.0,0.0
1701711064.7644582,-1.0,-1.0,-2.0,-1.0,1.0,0.0,-1.0,-1.0
1701711064.7644582,1.0,-1.0,0.0,1.0,0.0,-1.0,-1.0,0.0
1701711064.7644582,-1.0,0.0,-3.0,0.0,-3.0,1.0,-1.0,1.0
1701711064.7644582,-1.0,0.0,-1.0,-1.0,-1.0,-1.0,-2.0,-1.0
1701711064.784108,-1.0,-1.0,-2.0,-2.0,0.0,-1.0,-2.0,-2.0
1701711064.784108,-2.0,1.0,1.0,-1.0,-3.0,-3.0,-1.0,-1.0
1701711064.784108,-1.0,-3.0,-1.0,0.0,1.0,0.0,-1.0,0.0
1701711064.784108,1.0,-1.0,0.0,-2.0,-2.0,0.0,-1.0,0.0
1701711064.804416,0.0,-3.0,0.0,0.0,0.0,-1.0,-2.0,-1.0
1701711064.804416,-2.0,-1.0,1.0,1.0,2.0,0.0,-1.0,-3.0
1701711064.804416,0.0,-3.0,-1.0,-2.0,0.0,-2.0,-1.0,0.0
1701711064.804416,0.0,-1.0,-1.0,-2.0,-1.0,0.0,-2.0,-1.0
1701711064.8241088,1.0,-1.0,-3.0,-1.0,0.0,-3.0,-1.0,1.0
1701711064.8241088,3.0,-2.0,-3.0,-3.0,-3.0,-4.0,-2.0,0.0
1701711064.8241088,0.0,-3.0,0.0,0.0,-2.0,-1.0,0.0,0.0
1701711064.8241088,-3.0,-3.0,0.0,3.0,2.0,0.0,-1.0,-3.0
1701711064.834107,0.0,-2.0,0.0,-2.0,-2.0,-2.0,-1.0,-2.0
1701711064.834107,4.0,3.0,-4.0,-7.0,-3.0,-4.0,0.0,3.0
1701711064.8441536,-1.0,0.0,1.0,0.0,1.0,-1.0,-1.0,-4.0
1701711064.8441536,1.0,-2.0,-2.0,0.0,-2.0,0.0,-1.0,0.0
1701711064.8644633,-3.0,1.0,0.0,1.0,0.0,1.0,-2.0,-1.0
1701711064.8644633,-2.0,-3.0,-2.0,0.0,-1.0,0.0,-1.0,-1.0
1701711064.8644633,5.0,4.0,-3.0,-4.0,-5.0,-3.0,-1.0,3.0
1701711064.8644633,-5.0,-3.0,0.0,2.0,1.0,2.0,1.0,-2.0
1701711064.884342,-2.0,-2.0,-1.0,-1.0,-1.0,0.0,0.0,-1.0
1701711064.884342,-3.0,-2.0,0.0,0.0,0.0,-1.0,0.0,-1.0
1701711064.8941703,-1.0,0.0,-2.0,0.0,-1.0,-1.0,1.0,-2.0
1701711064.8941703,1.0,3.0,0.0,-5.0,-5.0,-3.0,-2.0,-3.0
1701711064.8941703,0.0,0.0,-2.0,-1.0,-3.0,-1.0,0.0,1.0
1701711064.8941703,-2.0,-2.0,-1.0,1.0,-1.0,0.0,-2.0,-2.0
1701711064.9241145,-4.0,-2.0,0.0,0.0,2.0,1.0,1.0,-2.0
1701711064.9241145,1.0,1.0,-2.0,-3.0,0.0,-2.0,-2.0,0.0
1701711064.9341085,-1.0,-1.0,0.0,-1.0,-1.0,0.0,-1.0,-2.0
1701711064.9341085,-1.0,-1.0,-1.0,1.0,0.0,1.0,-2.0,-1.0
1701711064.9341085,0.0,-1.0,-1.0,-1.0,-3.0,-4.0,-3.0,-2.0
1701711064.9341085,0.0,0.0,-2.0,-2.0,-3.0,0.0,-1.0,0.0
1701711064.9541109,-1.0,1.0,-1.0,-2.0,-3.0,-2.0,-1.0,0.0
1701711064.9541109,-1.0,0.0,-2.0,0.0,1.0,-1.0,-2.0,-1.0
1701711064.9541109,-3.0,-2.0,-1.0,-2.0,-2.0,0.0,-2.0,-2.0
1701711064.9541109,-1.0,-2.0,-1.0,0.0,2.0,3.0,0.0,0.0
1701711064.9541109,-2.0,-2.0,0.0,1.0,0.0,1.0,1.0,-2.0
1701711064.9541109,0.0,0.0,-1.0,-2.0,-2.0,-2.0,1.0,-2.0
1701711064.9644659,-2.0,0.0,-1.0,-3.0,-4.0,-1.0,-1.0,-2.0
1701711064.9644659,-4.0,0.0,-1.0,-2.0,-1.0,-1.0,-1.0,0.0
1701711064.9845538,-2.0,0.0,-1.0,-1.0,-3.0,-2.0,-2.0,0.0
1701711064.9845538,-3.0,-2.0,-1.0,1.0,0.0,1.0,-1.0,-2.0
1701711064.9845538,-1.0,-1.0,-3.0,-1.0,-1.0,0.0,0.0,-1.0
1701711064.9845538,-3.0,2.0,-3.0,-1.0,-1.0,-3.0,-2.0,-2.0
1701711065.0141072,-3.0,-2.0,-2.0,0.0,0.0,2.0,0.0,-2.0
1701711065.0141072,-5.0,0.0,2.0,-2.0,-2.0,-2.0,-1.0,0.0
1701711065.0141072,-4.0,-1.0,-1.0,0.0,-1.0,0.0,-1.0,-1.0
1701711065.0141072,1.0,1.0,-1.0,-4.0,-5.0,-3.0,0.0,0.0
1701711065.0141072,-5.0,2.0,-1.0,0.0,-2.0,-1.0,-1.0,-2.0
1701711065.0141072,-4.0,1.0,-1.0,0.0,0.0,0.0,-1.0,-4.0
1701711065.0244553,-1.0,2.0,0.0,-1.0,-4.0,-2.0,-2.0,-1.0
1701711065.0244553,-3.0,-1.0,1.0,-1.0,-1.0,1.0,-1.0,-1.0
1701711065.0445638,-2.0,1.0,-1.0,0.0,-4.0,0.0,-1.0,-2.0
1701711065.0445638,-4.0,0.0,-2.0,-2.0,-2.0,1.0,-5.0,1.0
1701711065.0445638,-1.0,-1.0,-3.0,-2.0,0.0,1.0,-8.0,-2.0
1701711065.0445638,-2.0,-5.0,-1.0,0.0,1.0,0.0,-10.0,-1.0
1701711065.0741067,6.0,-6.0,-2.0,-4.0,0.0,-3.0,-12.0,1.0
1701711065.0741067,18.0,-13.0,-4.0,-1.0,6.0,-1.0,-4.0,6.0
1701711065.0741067,27.0,-16.0,-5.0,-3.0,12.0,-2.0,-2.0,11.0
1701711065.0741067,33.0,-21.0,-5.0,-3.0,15.0,-1.0,0.0,12.0
1701711065.0741067,28.0,-16.0,-5.0,-4.0,13.0,-1.0,0.0,11.0
1701711065.0741067,20.0,-11.0,-3.0,-4.0,8.0,-2.0,1.0,5.0
1701711065.0843472,13.0,-4.0,-1.0,-3.0,4.0,-1.0,2.0,0.0
1701711065.0843472,4.0,-2.0,-2.0,-2.0,-1.0,-4.0,3.0,-3.0
1701711065.1363723,-1.0,1.0,-1.0,0.0,-2.0,-5.0,0.0,-5.0
1701711065.1373725,-8.0,5.0,1.0,0.0,-7.0,-3.0,1.0,-7.0
1701711065.1373725,-16.0,7.0,3.0,2.0,-8.0,-2.0,4.0,-8.0
1701711065.1373725,-16.0,8.0,3.0,1.0,-11.0,-3.0,5.0,-7.0
1701711065.1373725,-12.0,5.0,1.0,0.0,-7.0,-3.0,4.0,-2.0
1701711065.1373725,-7.0,5.0,1.0,1.0,-5.0,-6.0,0.0,0.0
1701711065.1373725,-8.0,2.0,1.0,1.0,-3.0,-3.0,-2.0,-3.0
1701711065.1373725,-9.0,4.0,1.0,1.0,-4.0,-4.0,-2.0,-6.0
1701711065.1460261,-11.0,6.0,0.0,0.0,-8.0,-1.0,2.0,-5.0
1701711065.1460261,-15.0,7.0,1.0,0.0,-8.0,-2.0,4.0,-5.0
1701711065.1460261,-16.0,8.0,1.0,0.0,-6.0,-2.0,4.0,-5.0
1701711065.1460261,-15.0,7.0,1.0,1.0,-9.0,-2.0,3.0,-5.0
1701711065.1563268,-15.0,5.0,3.0,0.0,-8.0,-1.0,4.0,-7.0
1701711065.1563268,-12.0,4.0,1.0,0.0,-5.0,0.0,2.0,-6.0
1701711065.176027,-12.0,3.0,-1.0,0.0,-5.0,-1.0,0.0,-7.0
1701711065.176027,-9.0,2.0,0.0,0.0,-4.0,1.0,1.0,-5.0
1701711065.18603,-6.0,0.0,-1.0,-1.0,1.0,2.0,-2.0,-4.0
1701711065.18603,-2.0,-3.0,-2.0,0.0,-1.0,1.0,-5.0,-1.0
1701711065.18603,3.0,-3.0,-2.0,-2.0,1.0,1.0,-2.0,1.0
1701711065.18603,3.0,-3.0,-1.0,-1.0,3.0,-1.0,-5.0,2.0
1701711065.2064648,3.0,-3.0,-3.0,-3.0,1.0,-1.0,-6.0,0.0
1701711065.2064648,3.0,-6.0,-3.0,-2.0,3.0,2.0,-3.0,1.0
1701711065.2064648,3.0,-5.0,-2.0,-1.0,2.0,1.0,-3.0,2.0
1701711065.2064648,4.0,-4.0,-3.0,-3.0,2.0,0.0,-3.0,3.0
1701711065.2164013,4.0,-4.0,1.0,-1.0,0.0,0.0,-3.0,2.0
1701711065.2164013,4.0,-4.0,-2.0,-2.0,1.0,0.0,-5.0,2.0
1701711065.2360268,2.0,-2.0,0.0,-2.0,2.0,1.0,-4.0,0.0
1701711065.2360268,1.0,-3.0,-4.0,-1.0,2.0,0.0,-1.0,0.0
1701711065.2464144,1.0,-2.0,-2.0,-1.0,2.0,1.0,-1.0,-1.0
1701711065.2464144,1.0,-1.0,-1.0,-4.0,0.0,-1.0,0.0,-1.0
1701711065.2464144,2.0,-2.0,0.0,0.0,-2.0,-2.0,-2.0,0.0
1701711065.2464144,-1.0,-2.0,0.0,-1.0,1.0,-1.0,-3.0,-1.0
1701711065.2664654,0.0,-1.0,-2.0,-2.0,0.0,0.0,1.0,1.0
1701711065.2664654,0.0,-1.0,-3.0,-1.0,0.0,-1.0,0.0,-1.0
1701711065.2664654,1.0,0.0,-1.0,0.0,-1.0,-1.0,-2.0,-1.0
1701711065.2664654,-1.0,-3.0,1.0,0.0,-1.0,0.0,-2.0,-3.0
1701711065.2763903,-1.0,-1.0,-1.0,0.0,-2.0,-2.0,0.0,-3.0
1701711065.2763903,-1.0,-2.0,-1.0,0.0,0.0,0.0,2.0,0.0
1701711065.2960694,-1.0,-1.0,-3.0,-2.0,-2.0,1.0,-2.0,0.0
1701711065.2960694,0.0,-1.0,0.0,-1.0,-1.0,-1.0,-2.0,0.0
1701711065.3161364,-1.0,0.0,-2.0,-1.0,1.0,0.0,-2.0,0.0
1701711065.3161364,-1.0,0.0,0.0,-2.0,-2.0,-1.0,-1.0,0.0
1701711065.3161364,-3.0,-1.0,-2.0,-1.0,-1.0,-1.0,1.0,0.0
1701711065.3161364,0.0,-1.0,-2.0,-1.0,-2.0,-3.0,-5.0,0.0
1701711065.3265114,-1.0,-1.0,-1.0,-1.0,-1.0,-1.0,0.0,-2.0
1701711065.3265114,-1.0,-2.0,-1.0,-1.0,-1.0,-3.0,-4.0,-3.0
1701711065.3265114,1.0,-2.0,-1.0,-1.0,-1.0,-2.0,0.0,-1.0
1701711065.3265114,-1.0,-1.0,-1.0,-1.0,0.0,1.0,1.0,-2.0
1701711065.3360817,0.0,-3.0,-1.0,0.0,-1.0,0.0,-1.0,0.0
1701711065.3360817,-1.0,-1.0,-1.0,1.0,0.0,0.0,0.0,-1.0
1701711065.3461964,-1.0,-2.0,-2.0,-2.0,-2.0,-2.0,-2.0,-3.0
1701711065.3461964,-1.0,-2.0,-1.0,-1.0,1.0,-2.0,-1.0,1.0
1701711065.3664749,1.0,0.0,-1.0,0.0,0.0,-1.0,0.0,-2.0
1701711065.3664749,1.0,-3.0,-1.0,-1.0,-3.0,1.0,-1.0,-1.0
1701711065.3664749,0.0,-2.0,-1.0,-1.0,-2.0,-2.0,-3.0,-1.0
1701711065.3664749,0.0,-3.0,1.0,1.0,0.0,-7.0,-5.0,-2.0
1701711065.386108,0.0,-1.0,-2.0,-1.0,-2.0,10.0,3.0,1.0
1701711065.386108,1.0,1.0,1.0,1.0,5.0,4.0,2.0,1.0
1701711065.386108,1.0,0.0,-1.0,1.0,2.0,-2.0,-1.0,-1.0
1701711065.386108,-1.0,0.0,-2.0,0.0,0.0,3.0,2.0,-1.0
1701711065.396082,-1.0,-2.0,1.0,-1.0,0.0,-7.0,-7.0,-1.0
1701711065.396082,-1.0,-2.0,-1.0,-2.0,-5.0,-4.0,-2.0,-1.0
1701711065.4061947,-1.0,-1.0,0.0,0.0,1.0,3.0,3.0,-1.0
1701711065.4061947,2.0,2.0,-2.0,-1.0,-1.0,-9.0,-9.0,-1.0
1701711065.4260793,-5.0,-1.0,-2.0,-1.0,-4.0,-12.0,2.0,-4.0
1701711065.4260793,2.0,2.0,0.0,3.0,10.0,43.0,17.0,8.0
1701711065.4260793,-1.0,-2.0,-1.0,-2.0,0.0,2.0,5.0,0.0
1701711065.4260793,-3.0,1.0,-2.0,-3.0,-3.0,-3.0,0.0,-1.0
1701711065.4463708,0.0,0.0,0.0,1.0,1.0,6.0,3.0,-1.0
1701711065.4463708,-3.0,-2.0,-3.0,-3.0,-6.0,-19.0,-7.0,-7.0
1701711065.4463708,-4.0,-2.0,-1.0,0.0,-3.0,-1.0,-2.0,-1.0
1701711065.4463708,0.0,0.0,-1.0,2.0,1.0,7.0,4.0,-1.0
1701711065.4761128,-1.0,-1.0,-1.0,0.0,-2.0,-9.0,-4.0,-2.0
1701711065.4761128,-1.0,-2.0,-1.0,-2.0,-4.0,-9.0,-4.0,-2.0
1701711065.4761128,2.0,-1.0,-1.0,-2.0,-2.0,-1.0,-4.0,1.0
1701711065.4761128,-3.0,-2.0,-2.0,-2.0,0.0,-4.0,-3.0,-1.0
1701711065.4863753,-2.0,-3.0,0.0,0.0,2.0,1.0,-1.0,0.0
1701711065.4863753,-2.0,0.0,-2.0,-1.0,-2.0,-6.0,-3.0,-1.0
1701711065.4863753,0.0,0.0,0.0,-2.0,-1.0,-2.0,-1.0,0.0
1701711065.4863753,0.0,0.0,1.0,-1.0,-2.0,0.0,1.0,-1.0
1701711065.5060818,-1.0,-2.0,-2.0,-1.0,-1.0,2.0,0.0,1.0
1701711065.5060818,1.0,-1.0,1.0,0.0,-2.0,-3.0,-3.0,-3.0
1701711065.5060818,-3.0,-1.0,0.0,-2.0,-4.0,-6.0,-4.0,-2.0
1701711065.5060818,-1.0,-2.0,-2.0,-2.0,-2.0,2.0,3.0,-1.0
1701711065.526082,-2.0,0.0,0.0,-3.0,-1.0,0.0,-1.0,0.0
1701711065.526082,-2.0,0.0,1.0,0.0,-2.0,-7.0,-4.0,-5.0
1701711065.526082,-1.0,0.0,-3.0,-2.0,2.0,-2.0,1.0,0.0
1701711065.526082,-1.0,-2.0,-1.0,-2.0,-1.0,0.0,0.0,-2.0
1701711065.546405,0.0,0.0,-2.0,0.0,-2.0,-1.0,-2.0,-1.0
1701711065.546405,-1.0,-2.0,-1.0,-4.0,-5.0,-12.0,-5.0,-3.0
1701711065.546405,-2.0,-1.0,-1.0,-1.0,0.0,5.0,-2.0,-2.0
1701711065.546405,-1.0,0.0,-1.0,-1.0,-2.0,-1.0,-2.0,0.0
1701711065.5660815,0.0,-2.0,-2.0,1.0,1.0,-3.0,-3.0,-2.0
1701711065.5660815,-2.0,-1.0,-2.0,0.0,-1.0,0.0,0.0,-2.0
1701711065.5660815,-2.0,-2.0,0.0,-2.0,-3.0,-2.0,-1.0,-1.0
1701711065.5660815,-1.0,-1.0,-2.0,-3.0,-2.0,-2.0,-1.0,0.0
1701711065.5865142,-1.0,1.0,-1.0,-2.0,-1.0,-1.0,1.0,-2.0
1701711065.5865142,-1.0,-1.0,-1.0,-2.0,-1.0,-6.0,-3.0,-1.0
1701711065.5865142,-2.0,0.0,-3.0,-2.0,0.0,-3.0,-2.0,-2.0
1701711065.5865142,-1.0,-1.0,0.0,0.0,0.0,3.0,-1.0,-1.0
1701711065.6064827,0.0,-1.0,1.0,-1.0,-2.0,0.0,0.0,0.0
1701711065.6064827,-1.0,-1.0,-2.0,-1.0,-1.0,1.0,0.0,-3.0
1701711065.6064827,-1.0,-2.0,0.0,1.0,-1.0,-2.0,0.0,-1.0
1701711065.6064827,-1.0,-1.0,0.0,0.0,-2.0,-1.0,-1.0,-1.0
1701711065.6260953,-1.0,-1.0,-2.0,-1.0,0.0,0.0,-4.0,1.0
1701711065.6260953,-1.0,0.0,-1.0,-1.0,-1.0,-1.0,-1.0,1.0
1701711065.6260953,-2.0,0.0,-1.0,-1.0,-1.0,-1.0,1.0,-2.0
1701711065.6260953,1.0,-2.0,-1.0,-1.0,-2.0,-4.0,-4.0,-1.0
1701711065.6527047,0.0,-2.0,0.0,0.0,-1.0,-2.0,-2.0,-2.0
1701711065.6527047,2.0,0.0,-2.0,-2.0,-3.0,2.0,0.0,0.0
1701711065.6527047,0.0,-1.0,-1.0,-1.0,0.0,-2.0,-1.0,-1.0
1701711065.6527047,-7.0,-2.0,1.0,1.0,2.0,0.0,1.0,-1.0
1701711065.667643,-1.0,0.0,-1.0,0.0,1.0,1.0,0.0,2.0
1701711065.667643,-1.0,0.0,-1.0,-2.0,-1.0,0.0,-2.0,-1.0
1701711065.667643,-1.0,-3.0,-1.0,-1.0,-2.0,-2.0,-2.0,-4.0
1701711065.667643,2.0,-1.0,-4.0,-2.0,-3.0,-3.0,-2.0,0.0
1701711065.6807437,2.0,1.0,-2.0,-2.0,-2.0,-1.0,-4.0,1.0
1701711065.6807437,-1.0,-3.0,-1.0,-2.0,-1.0,-3.0,-1.0,2.0
1701711065.6910179,0.0,2.0,-2.0,-3.0,-2.0,-3.0,-1.0,0.0
1701711065.6910179,-1.0,-1.0,0.0,-1.0,0.0,0.0,0.0,1.0
1701711065.7116485,-2.0,-1.0,-1.0,-2.0,-1.0,-1.0,0.0,-3.0
1701711065.7116485,-1.0,0.0,-1.0,-1.0,-2.0,0.0,-2.0,-1.0
1701711065.7116485,0.0,0.0,-1.0,0.0,-2.0,-1.0,0.0,0.0
1701711065.7116485,0.0,1.0,-1.0,-1.0,-2.0,-2.0,0.0,-1.0
1701711065.7311919,-3.0,-1.0,-3.0,-2.0,-1.0,-2.0,1.0,-2.0
1701711065.7311919,-3.0,-2.0,-2.0,-2.0,-3.0,-1.0,1.0,-1.0
1701711065.7311919,-1.0,-2.0,-1.0,-1.0,-2.0,-1.0,-2.0,0.0
1701711065.7311919,-1.0,-3.0,-1.0,-2.0,0.0,-1.0,-1.0,-2.0
1701711065.741568,-1.0,-1.0,-1.0,-3.0,-1.0,-3.0,-1.0,-1.0
1701711065.741568,-3.0,-1.0,-1.0,1.0,0.0,-1.0,-2.0,-1.0
1701711065.741568,0.0,-3.0,-1.0,0.0,-1.0,-1.0,-2.0,-1.0
1701711065.741568,1.0,-1.0,-2.0,0.0,0.0,0.0,0.0,-1.0
1701711065.7716148,0.0,-3.0,-1.0,-1.0,-2.0,-4.0,-2.0,-2.0
1701711065.7716148,1.0,-4.0,0.0,-1.0,3.0,0.0,0.0,0.0
1701711065.7716148,-1.0,-2.0,-3.0,0.0,-1.0,0.0,-1.0,-1.0
1701711065.7716148,1.0,0.0,-2.0,0.0,-1.0,-1.0,-1.0,1.0
1701711065.7812636,0.0,-2.0,-1.0,-1.0,-1.0,0.0,-1.0,-1.0
1701711065.7812636,-2.0,-1.0,-3.0,1.0,-3.0,-2.0,0.0,-1.0
1701711065.7812636,0.0,-2.0,-1.0,1.0,0.0,0.0,-2.0,-1.0
1701711065.7812636,0.0,0.0,-2.0,-1.0,1.0,-1.0,1.0,-2.0
1701711065.80119,-1.0,-1.0,0.0,-1.0,-1.0,0.0,-2.0,-1.0
1701711065.80119,-1.0,1.0,-1.0,-1.0,-1.0,-1.0,-2.0,-2.0
1701711065.8111925,-2.0,1.0,1.0,-1.0,-1.0,0.0,-1.0,0.0
1701711065.8111925,-2.0,0.0,0.0,-3.0,-3.0,-3.0,0.0,0.0
1701711065.8315327,-2.0,1.0,0.0,1.0,1.0,-3.0,0.0,-1.0
1701711065.8315327,-2.0,-2.0,1.0,-1.0,-1.0,-2.0,-1.0,-2.0
1701711065.8315327,-3.0,-1.0,1.0,-2.0,-3.0,-3.0,-1.0,-3.0
1701711065.8315327,-1.0,-1.0,-1.0,-1.0,0.0,-1.0,-1.0,-1.0
1701711065.8611925,-3.0,-1.0,-2.0,-3.0,-3.0,-2.0,0.0,-2.0
1701711065.8611925,-1.0,1.0,0.0,-1.0,-2.0,-1.0,1.0,0.0
1701711065.8611925,-2.0,-1.0,-1.0,2.0,-2.0,-2.0,0.0,-1.0
1701711065.8611925,-2.0,-1.0,0.0,-1.0,-2.0,-1.0,-1.0,-2.0
1701711065.8611925,-2.0,-1.0,0.0,0.0,-1.0,2.0,0.0,-2.0
1701711065.8611925,-1.0,-1.0,-3.0,-2.0,0.0,0.0,-1.0,-3.0
1701711065.871195,-3.0,-1.0,-1.0,-2.0,-1.0,-1.0,-4.0,-3.0
1701711065.871195,-3.0,-1.0,0.0,-2.0,-1.0,3.0,1.0,0.0
1701711065.8911974,-2.0,-1.0,-2.0,0.0,0.0,-1.0,-1.0,-1.0
1701711065.8911974,-2.0,0.0,-2.0,-2.0,-2.0,-1.0,-2.0,0.0
1701711065.8911974,1.0,-1.0,0.0,-1.0,1.0,-6.0,-4.0,-1.0
1701711065.8911974,-2.0,-2.0,0.0,0.0,1.0,0.0,1.0,-1.0
1701711065.91119,0.0,-1.0,-1.0,2.0,0.0,0.0,2.0,1.0
1701711065.91119,-1.0,-1.0,0.0,-2.0,-1.0,-3.0,-1.0,0.0
1701711065.91119,-3.0,0.0,-1.0,1.0,2.0,2.0,-3.0,-2.0
1701711065.91119,-3.0,0.0,0.0,0.0,-2.0,-9.0,-8.0,-3.0
1701711065.9214458,-1.0,-1.0,-3.0,-2.0,0.0,3.0,1.0,1.0
1701711065.9214458,-1.0,1.0,-2.0,1.0,-2.0,0.0,-1.0,-1.0
1701711065.9311948,0.0,-2.0,-2.0,-1.0,-1.0,-1.0,-1.0,0.0
1701711065.9311948,0.0,-2.0,-1.0,-4.0,0.0,0.0,-1.0,-2.0
1701711065.9611902,-2.0,-2.0,0.0,4.0,-2.0,1.0,-1.0,-2.0
1701711065.9611902,0.0,-5.0,-1.0,-3.0,2.0,-2.0,-4.0,-2.0
1701711065.9611902,1.0,-1.0,-2.0,-3.0,-5.0,0.0,1.0,-1.0
1701711065.9611902,0.0,0.0,-1.0,1.0,-1.0,1.0,-1.0,-1.0
1701711065.9611902,0.0,-1.0,-2.0,-5.0,-3.0,-3.0,-1.0,-1.0
1701711065.9611902,0.0,0.0,-1.0,0.0,-3.0,-5.0,-1.0,-1.0
1701711065.9611902,0.0,-1.0,-2.0,0.0,2.0,2.0,1.0,0.0
1701711065.9611902,-1.0,-2.0,-2.0,0.0,0.0,-1.0,1.0,0.0
1701711065.9815965,0.0,-1.0,0.0,-1.0,0.0,-3.0,-3.0,-1.0
1701711065.9815965,-1.0,1.0,-1.0,-1.0,1.0,0.0,0.0,-2.0
1701711065.9815965,0.0,-1.0,-2.0,-4.0,-2.0,0.0,0.0,0.0
1701711065.9815965,1.0,0.0,-2.0,-3.0,-4.0,-1.0,-2.0,0.0
1701711066.0111923,0.0,1.0,1.0,-1.0,0.0,-2.0,-1.0,-1.0
1701711066.0111923,-1.0,-3.0,0.0,1.0,2.0,1.0,-2.0,0.0
1701711066.0111923,-1.0,-2.0,-2.0,-1.0,-2.0,-2.0,-1.0,-1.0
1701711066.0111923,0.0,-2.0,-3.0,-1.0,2.0,0.0,-1.0,-1.0
1701711066.0212162,0.0,-1.0,0.0,-2.0,-3.0,-2.0,0.0,-2.0
1701711066.0212162,0.0,-1.0,-4.0,-3.0,-2.0,-1.0,1.0,0.0
1701711066.0212162,-1.0,2.0,1.0,1.0,-1.0,-2.0,-2.0,-1.0
1701711066.0212162,-1.0,-4.0,-2.0,-3.0,-3.0,-1.0,-1.0,0.0
1701711066.0511923,-2.0,-1.0,1.0,1.0,-1.0,-2.0,0.0,0.0
1701711066.0511923,-3.0,0.0,-3.0,-4.0,-2.0,1.0,-1.0,-2.0
1701711066.0511923,-1.0,-2.0,0.0,-1.0,-3.0,0.0,0.0,-3.0
1701711066.0511923,-1.0,-1.0,4.0,0.0,-1.0,-1.0,0.0,-3.0
1701711066.0711906,0.0,-1.0,-11.0,-1.0,-2.0,-1.0,-2.0,-3.0
1701711066.0711906,1.0,-1.0,-5.0,-4.0,-2.0,-2.0,-2.0,-2.0
1701711066.0711906,-1.0,-3.0,-2.0,-2.0,1.0,1.0,1.0,0.0
1701711066.0711906,-1.0,0.0,5.0,5.0,-1.0,-2.0,-1.0,-1.0
1701711066.0811965,-4.0,-5.0,-8.0,-23.0,-5.0,-3.0,-2.0,-2.0
1701711066.0811965,-2.0,0.0,6.0,4.0,-1.0,-1.0,0.0,-1.0
1701711066.0811965,-2.0,-1.0,-11.0,-4.0,-3.0,-2.0,-1.0,0.0
1701711066.0811965,-2.0,-3.0,-5.0,-6.0,-1.0,0.0,0.0,0.0
1701711066.111645,-1.0,-2.0,6.0,12.0,0.0,0.0,-4.0,-2.0
1701711066.111645,-2.0,-1.0,0.0,0.0,-1.0,-1.0,-3.0,0.0
1701711066.111645,-1.0,-1.0,2.0,-1.0,-2.0,-2.0,-1.0,-1.0
1701711066.111645,-1.0,-2.0,-2.0,1.0,-1.0,-1.0,-2.0,-1.0
1701711066.1311936,0.0,0.0,-1.0,0.0,3.0,2.0,-1.0,-1.0
1701711066.1311936,2.0,-2.0,3.0,0.0,-1.0,2.0,0.0,-1.0
1701711066.1311936,-2.0,-2.0,-8.0,-2.0,-3.0,-1.0,-2.0,-1.0
1701711066.1311936,2.0,2.0,1.0,2.0,-2.0,-3.0,-3.0,0.0
1701711066.1412265,-3.0,-1.0,-3.0,0.0,0.0,-1.0,-1.0,-2.0
1701711066.1412265,-4.0,-2.0,-4.0,2.0,0.0,-1.0,0.0,-3.0
1701711066.1412265,-1.0,1.0,5.0,1.0,0.0,-2.0,0.0,-2.0
1701711066.1412265,-3.0,-3.0,-6.0,-2.0,0.0,3.0,2.0,0.0
1701711066.16159,-1.0,1.0,1.0,-4.0,-2.0,-2.0,-1.0,-1.0
1701711066.16159,-1.0,-1.0,0.0,0.0,0.0,-2.0,0.0,-1.0
1701711066.16159,-1.0,-1.0,-4.0,-14.0,-3.0,-2.0,0.0,-1.0
1701711066.16159,-1.0,0.0,5.0,11.0,0.0,-3.0,-1.0,-3.0
1701711066.1925128,0.0,-1.0,6.0,10.0,1.0,-1.0,-1.0,0.0
1701711066.193534,-4.0,-3.0,-5.0,-4.0,-2.0,-1.0,-1.0,1.0
1701711066.193534,-2.0,1.0,4.0,0.0,-1.0,-1.0,1.0,-2.0
1701711066.193534,-1.0,1.0,-2.0,-8.0,-4.0,0.0,0.0,-1.0
1701711066.2076135,-2.0,-1.0,-5.0,-6.0,-2.0,0.0,1.0,-2.0
1701711066.2086358,-1.0,1.0,0.0,2.0,-3.0,-2.0,-3.0,-1.0
1701711066.2086358,-1.0,0.0,-3.0,-5.0,-3.0,-1.0,-1.0,1.0
1701711066.2086358,-4.0,3.0,-1.0,0.0,-2.0,-3.0,-4.0,-4.0
1701711066.2222707,-2.0,1.0,-1.0,4.0,0.0,2.0,-1.0,-1.0
1701711066.2222707,-2.0,0.0,-2.0,-3.0,-5.0,-2.0,1.0,0.0
1701711066.2222707,-3.0,0.0,1.0,6.0,1.0,0.0,0.0,-1.0
1701711066.2222707,-2.0,0.0,-4.0,-4.0,-4.0,-1.0,-1.0,-1.0
1701711066.2519772,-3.0,-2.0,3.0,1.0,-3.0,-1.0,-1.0,-1.0
1701711066.2519772,-3.0,1.0,0.0,0.0,-3.0,1.0,-2.0,-3.0
1701711066.2519772,-4.0,0.0,0.0,1.0,-1.0,1.0,0.0,-2.0
1701711066.2519772,-5.0,1.0,0.0,-1.0,-1.0,0.0,1.0,-2.0
1701711066.2619755,-7.0,3.0,-2.0,-4.0,-4.0,-2.0,0.0,-3.0
1701711066.2619755,-7.0,2.0,1.0,-1.0,-3.0,-1.0,1.0,-4.0
1701711066.2619755,-9.0,3.0,2.0,4.0,-3.0,0.0,1.0,-5.0
1701711066.2619755,-9.0,2.0,-1.0,-3.0,-4.0,1.0,2.0,-4.0
1701711066.282396,-11.0,2.0,2.0,1.0,-3.0,0.0,1.0,-4.0
1701711066.282396,-13.0,4.0,-2.0,-1.0,-6.0,1.0,-1.0,-4.0
1701711066.282396,-6.0,0.0,0.0,2.0,-4.0,0.0,-6.0,-1.0
1701711066.282396,3.0,-7.0,-4.0,-3.0,1.0,1.0,-15.0,1.0
1701711066.3121612,23.0,-16.0,-4.0,-1.0,9.0,1.0,-18.0,13.0
1701711066.3121612,38.0,-23.0,-5.0,-3.0,15.0,1.0,-18.0,15.0
1701711066.3121612,43.0,-25.0,-8.0,-4.0,21.0,1.0,-13.0,16.0
1701711066.3121612,38.0,-21.0,-8.0,-6.0,17.0,2.0,-12.0,13.0
1701711066.322259,25.0,-11.0,-5.0,-8.0,10.0,0.0,-5.0,5.0
1701711066.322259,16.0,-8.0,-2.0,-4.0,9.0,-1.0,6.0,1.0
1701711066.322259,13.0,-5.0,-1.0,-1.0,3.0,-5.0,12.0,-1.0
1701711066.322259,14.0,-4.0,-3.0,-3.0,3.0,-8.0,10.0,2.0
1701711066.341975,12.0,-4.0,-2.0,-1.0,1.0,-7.0,11.0,-1.0
1701711066.341975,4.0,-1.0,1.0,-3.0,-2.0,-5.0,3.0,-5.0
1701711066.341975,-3.0,4.0,1.0,-1.0,-6.0,-6.0,3.0,-10.0
1701711066.341975,-13.0,6.0,4.0,-1.0,-7.0,-3.0,6.0,-8.0
1701711066.3723896,-16.0,10.0,2.0,0.0,-11.0,-5.0,6.0,0.0
1701711066.3723896,-18.0,8.0,-1.0,0.0,-9.0,-5.0,-1.0,2.0
1701711066.3723896,-17.0,10.0,1.0,2.0,-10.0,-6.0,-6.0,1.0
1701711066.3723896,-21.0,11.0,2.0,1.0,-12.0,-3.0,-4.0,1.0
1701711066.3919766,-26.0,13.0,6.0,4.0,-13.0,-5.0,4.0,-7.0
1701711066.3919766,-27.0,15.0,-3.0,-3.0,-18.0,-5.0,10.0,-11.0
1701711066.3919766,-30.0,15.0,3.0,2.0,-15.0,-3.0,7.0,-16.0
1701711066.3919766,-25.0,13.0,3.0,2.0,-14.0,-2.0,5.0,-19.0
1701711066.4019783,-22.0,10.0,2.0,3.0,-12.0,-2.0,1.0,-12.0
1701711066.4019783,-14.0,6.0,3.0,5.0,-6.0,2.0,-5.0,-9.0
1701711066.4019783,-6.0,0.0,1.0,0.0,-6.0,2.0,-6.0,-3.0
1701711066.4019783,-1.0,-4.0,-2.0,-2.0,-2.0,1.0,-5.0,-1.0
1701711066.432426,3.0,-8.0,1.0,3.0,6.0,5.0,-8.0,2.0
1701711066.432426,9.0,-9.0,-6.0,-4.0,4.0,5.0,-8.0,4.0
1701711066.432426,11.0,-10.0,-4.0,-1.0,9.0,5.0,-6.0,8.0
1701711066.432426,13.0,-11.0,-4.0,-2.0,9.0,3.0,-3.0,6.0
1701711066.4423187,15.0,-11.0,-5.0,-3.0,6.0,0.0,-3.0,5.0
1701711066.4423187,9.0,-7.0,-2.0,-2.0,7.0,1.0,0.0,3.0
1701711066.4423187,5.0,-5.0,3.0,1.0,4.0,1.0,0.0,4.0
1701711066.4423187,3.0,-1.0,-12.0,-6.0,0.0,-1.0,1.0,2.0
1701711066.4619787,0.0,-2.0,-1.0,-3.0,-3.0,-2.0,1.0,-1.0
1701711066.4619787,0.0,-1.0,1.0,0.0,-1.0,-4.0,2.0,-1.0
1701711066.4619787,-3.0,-2.0,-3.0,1.0,-1.0,0.0,2.0,1.0
1701711066.4619787,-3.0,2.0,3.0,1.0,-3.0,-2.0,0.0,-2.0
1701711066.4923189,-3.0,2.0,0.0,-1.0,-1.0,-1.0,1.0,-4.0
1701711066.4923189,-3.0,1.0,0.0,-2.0,-2.0,-2.0,1.0,-3.0
1701711066.4923189,-6.0,0.0,0.0,-1.0,-1.0,-1.0,-1.0,-2.0
1701711066.4923189,-4.0,-1.0,0.0,-1.0,-1.0,1.0,-1.0,-1.0
1701711066.5020409,-3.0,0.0,-2.0,-1.0,-1.0,2.0,-1.0,-1.0
1701711066.5020409,-1.0,1.0,2.0,2.0,-4.0,-1.0,-2.0,-1.0
1701711066.5020409,-4.0,-2.0,-1.0,-2.0,-1.0,-1.0,0.0,-3.0
1701711066.5020409,-2.0,-1.0,-1.0,0.0,1.0,0.0,0.0,-2.0
1701711066.5219758,0.0,-1.0,-2.0,-1.0,-2.0,-2.0,-2.0,-1.0
1701711066.5219758,-2.0,-1.0,1.0,0.0,0.0,-1.0,-1.0,-1.0
1701711066.531975,0.0,-2.0,1.0,0.0,0.0,-1.0,-1.0,0.0
1701711066.531975,-1.0,-2.0,-3.0,-2.0,-3.0,-2.0,0.0,-1.0
1701711066.55233,1.0,-2.0,-1.0,-4.0,0.0,-1.0,-2.0,0.0
1701711066.55233,-1.0,-3.0,-1.0,0.0,0.0,1.0,-3.0,-1.0
1701711066.55233,2.0,-2.0,-3.0,-2.0,-3.0,0.0,-2.0,1.0
1701711066.55233,1.0,-2.0,2.0,0.0,0.0,-2.0,-3.0,0.0
1701711066.5622396,0.0,-3.0,-1.0,-1.0,1.0,1.0,-2.0,0.0
1701711066.5622396,-2.0,-2.0,-1.0,-2.0,0.0,0.0,-1.0,-1.0
1701711066.581978,-1.0,-2.0,0.0,0.0,0.0,-1.0,-1.0,-1.0
1701711066.581978,-1.0,-1.0,3.0,3.0,-2.0,-1.0,0.0,-2.0
1701711066.5919735,0.0,0.0,0.0,1.0,-1.0,-1.0,-1.0,-2.0
1701711066.5919735,1.0,-1.0,-2.0,-1.0,-1.0,-1.0,-1.0,-2.0
1701711066.5919735,-1.0,0.0,-1.0,-2.0,-1.0,-1.0,-3.0,-1.0
1701711066.5919735,-1.0,-1.0,-1.0,0.0,0.0,0.0,0.0,0.0
1701711066.6123233,0.0,-2.0,0.0,0.0,0.0,-2.0,1.0,-1.0
1701711066.6123233,0.0,-4.0,0.0,0.0,0.0,-2.0,-1.0,1.0
1701711066.6123233,1.0,-1.0,-2.0,0.0,1.0,-1.0,0.0,-3.0
1701711066.6123233,-2.0,0.0,0.0,0.0,0.0,-2.0,0.0,0.0
1701711066.641974,-2.0,-2.0,-1.0,-1.0,-2.0,0.0,0.0,-3.0
1701711066.641974,0.0,-1.0,0.0,-1.0,-1.0,-6.0,-5.0,-1.0
1701711066.641974,0.0,0.0,-3.0,-1.0,1.0,6.0,2.0,0.0
1701711066.641974,0.0,-2.0,-1.0,-3.0,-1.0,0.0,0.0,-1.0
1701711066.641974,-2.0,-1.0,-3.0,-1.0,-4.0,-13.0,-7.0,-1.0
1701711066.641974,-1.0,0.0,-3.0,-2.0,-1.0,3.0,4.0,-1.0
1701711066.641974,0.0,-1.0,0.0,-1.0,0.0,-5.0,-2.0,0.0
1701711066.641974,0.0,0.0,-2.0,1.0,-2.0,2.0,1.0,-1.0
1701711066.6719797,-3.0,-1.0,-3.0,-2.0,0.0,0.0,0.0,-1.0
1701711066.6719797,-1.0,-2.0,-2.0,-1.0,-1.0,0.0,1.0,-1.0
1701711066.6719797,0.0,-1.0,0.0,-1.0,-3.0,-2.0,0.0,-1.0
1701711066.6719797,-1.0,-2.0,-3.0,-2.0,1.0,-1.0,-2.0,-1.0
1701711066.691979,-2.0,-1.0,-2.0,-1.0,0.0,0.0,0.0,-3.0
1701711066.691979,-2.0,1.0,-1.0,-1.0,-3.0,-2.0,-3.0,-2.0
1701711066.7020092,-2.0,0.0,-2.0,-2.0,-1.0,-3.0,-2.0,-2.0
1701711066.7020092,0.0,-1.0,1.0,-2.0,0.0,7.0,7.0,0.0
1701711066.7020092,0.0,0.0,-2.0,-2.0,-2.0,2.0,2.0,-1.0
1701711066.7020092,0.0,-1.0,-2.0,0.0,0.0,1.0,1.0,0.0
1701711066.7020092,0.0,-3.0,-1.0,0.0,0.0,-4.0,-3.0,-2.0
1701711066.7020092,0.0,-1.0,-1.0,0.0,-2.0,-3.0,-3.0,-1.0
1701711066.733321,-2.0,0.0,0.0,-2.0,-1.0,0.0,0.0,-2.0
1701711066.733321,-1.0,0.0,1.0,0.0,-1.0,-1.0,0.0,-2.0
1701711066.7362604,-1.0,1.0,-1.0,-1.0,-1.0,-2.0,0.0,-1.0
1701711066.7372603,-1.0,-1.0,0.0,-1.0,-2.0,-3.0,-3.0,-2.0
1701711066.7445526,0.0,-1.0,-1.0,-1.0,0.0,2.0,1.0,1.0
1701711066.7445526,-2.0,0.0,-1.0,0.0,-1.0,-2.0,-5.0,-2.0
1701711066.7547443,-3.0,-1.0,-1.0,0.0,-2.0,1.0,-1.0,-3.0
1701711066.7547443,-1.0,-2.0,-1.0,0.0,-1.0,-1.0,-1.0,-1.0
1701711066.7647786,-1.0,0.0,0.0,0.0,-1.0,0.0,1.0,-1.0
1701711066.7647786,-2.0,-1.0,-1.0,-1.0,-1.0,-2.0,-1.0,-1.0
1701711066.7647786,-1.0,-1.0,-1.0,0.0,-1.0,0.0,-1.0,1.0
1701711066.7647786,-1.0,-1.0,-1.0,-2.0,0.0,-2.0,-1.0,-1.0
1701711066.8045545,1.0,0.0,0.0,-1.0,0.0,-1.0,-2.0,1.0
1701711066.8045545,1.0,-2.0,-1.0,1.0,2.0,0.0,-3.0,-1.0
1701711066.8045545,1.0,-2.0,0.0,-1.0,-1.0,-1.0,0.0,-1.0
1701711066.8045545,0.0,0.0,-1.0,0.0,0.0,-4.0,-6.0,-1.0
1701711066.8045545,1.0,-1.0,-1.0,0.0,1.0,-1.0,-3.0,-1.0
1701711066.8045545,1.0,-1.0,-4.0,-3.0,-1.0,-1.0,-1.0,-1.0
1701711066.814595,-1.0,-2.0,-2.0,0.0,-3.0,-2.0,0.0,-4.0
1701711066.814595,-4.0,0.0,-1.0,-2.0,-3.0,0.0,-1.0,-3.0
1701711066.8247318,-4.0,1.0,-1.0,-1.0,-2.0,0.0,0.0,-4.0
1701711066.8247318,-5.0,1.0,2.0,-1.0,-3.0,0.0,2.0,-4.0
1701711066.8247318,-4.0,2.0,0.0,-1.0,-2.0,-1.0,3.0,-1.0
1701711066.8247318,-3.0,2.0,-1.0,0.0,-3.0,-1.0,2.0,-3.0
1701711066.8645682,-6.0,2.0,0.0,0.0,-5.0,0.0,2.0,0.0
1701711066.8645682,-5.0,1.0,-1.0,0.0,-4.0,-2.0,0.0,4.0
1701711066.8645682,-2.0,0.0,-1.0,0.0,-2.0,0.0,-1.0,6.0
1701711066.8645682,1.0,-3.0,-3.0,0.0,0.0,-1.0,-4.0,8.0
1701711066.8645682,4.0,-6.0,-1.0,0.0,3.0,0.0,-5.0,6.0
1701711066.8645682,9.0,-6.0,-4.0,0.0,2.0,0.0,-5.0,6.0
1701711066.8746595,8.0,-7.0,-3.0,-3.0,5.0,0.0,-6.0,2.0
1701711066.8746595,11.0,-9.0,-3.0,-2.0,6.0,-1.0,-5.0,-1.0
1701711066.8849227,11.0,-7.0,-4.0,-5.0,6.0,0.0,-4.0,-5.0
1701711066.8849227,10.0,-7.0,-3.0,-3.0,5.0,-2.0,-4.0,-10.0
1701711066.8849227,12.0,-8.0,-2.0,-2.0,4.0,-1.0,-5.0,-12.0
1701711066.8849227,11.0,-4.0,-3.0,-3.0,5.0,-2.0,-5.0,-10.0
1701711066.904607,7.0,-3.0,-1.0,-2.0,1.0,-2.0,-5.0,-6.0
1701711066.904607,2.0,-2.0,0.0,-3.0,2.0,-2.0,-4.0,-2.0
1701711066.904607,0.0,3.0,0.0,-2.0,-3.0,-3.0,-6.0,0.0
1701711066.904607,-5.0,2.0,2.0,0.0,-4.0,-4.0,-2.0,2.0
1701711066.924907,-6.0,3.0,-2.0,-3.0,-5.0,-4.0,-1.0,3.0
1701711066.924907,-8.0,5.0,2.0,-1.0,-6.0,-4.0,0.0,2.0
1701711066.9349284,-11.0,2.0,-1.0,-1.0,-8.0,-4.0,3.0,1.0
1701711066.9349284,-11.0,5.0,3.0,0.0,-6.0,-3.0,6.0,-2.0
1701711066.9449449,-8.0,3.0,2.0,1.0,-5.0,-3.0,7.0,-2.0
1701711066.9449449,-9.0,2.0,0.0,1.0,-4.0,-4.0,5.0,-1.0
1701711066.9449449,-7.0,3.0,0.0,0.0,-4.0,-1.0,6.0,-3.0
1701711066.9449449,-6.0,2.0,-1.0,1.0,-4.0,-2.0,2.0,-2.0
1701711066.9749193,-7.0,0.0,-2.0,1.0,-2.0,0.0,3.0,-1.0
1701711066.9749193,-3.0,1.0,-1.0,0.0,-3.0,0.0,1.0,-4.0
1701711066.9749193,-3.0,-2.0,-1.0,0.0,-1.0,1.0,1.0,0.0
1701711066.9749193,-2.0,0.0,-1.0,-1.0,-4.0,0.0,0.0,-1.0
1701711066.9852772,-3.0,0.0,0.0,0.0,-2.0,-1.0,-1.0,-3.0
1701711066.9852772,-2.0,-2.0,1.0,0.0,0.0,3.0,0.0,0.0
1701711066.9852772,-2.0,-2.0,-2.0,-3.0,-1.0,-1.0,-1.0,-1.0
1701711066.9852772,0.0,-3.0,-1.0,-1.0,0.0,-1.0,-2.0,-2.0
1701711067.0052562,0.0,-3.0,-2.0,-2.0,0.0,-1.0,-3.0,-1.0
1701711067.0052562,0.0,-2.0,-3.0,-1.0,0.0,0.0,-1.0,-2.0
1701711067.0052562,1.0,0.0,0.0,1.0,-1.0,0.0,-4.0,-1.0
1701711067.0052562,-1.0,-1.0,-2.0,-1.0,0.0,0.0,-1.0,-1.0
1701711067.0250254,0.0,-1.0,-1.0,-1.0,0.0,0.0,-1.0,0.0
1701711067.0250254,1.0,-1.0,-1.0,0.0,0.0,-1.0,-1.0,0.0
1701711067.0250254,-1.0,-2.0,-2.0,-1.0,0.0,-1.0,-1.0,1.0
1701711067.0250254,-2.0,-2.0,0.0,-1.0,-2.0,-1.0,-2.0,0.0
1701711067.0451086,0.0,-1.0,0.0,-2.0,1.0,1.0,-1.0,-2.0
1701711067.0451086,-1.0,0.0,-2.0,-4.0,-3.0,-1.0,-1.0,-2.0
1701711067.055146,0.0,-1.0,1.0,-1.0,0.0,-1.0,0.0,-3.0
1701711067.055146,-3.0,0.0,2.0,0.0,-2.0,-3.0,-2.0,-1.0
1701711067.0655408,-3.0,0.0,-3.0,-3.0,-3.0,-1.0,-1.0,-2.0
1701711067.0655408,-4.0,0.0,2.0,2.0,-2.0,-1.0,0.0,-4.0
1701711067.0655408,-1.0,2.0,-1.0,0.0,0.0,0.0,0.0,0.0
1701711067.0655408,-1.0,-1.0,0.0,1.0,-1.0,-2.0,0.0,-3.0
1701711067.0855536,-2.0,0.0,0.0,0.0,-1.0,-2.0,-2.0,-1.0
1701711067.0855536,-3.0,-1.0,-1.0,-3.0,-3.0,-2.0,0.0,0.0
1701711067.0855536,-4.0,0.0,-1.0,-2.0,-3.0,-1.0,-2.0,-2.0
1701711067.0855536,-2.0,-1.0,-3.0,-1.0,-1.0,1.0,-1.0,-1.0
1701711067.1059313,-1.0,-1.0,-2.0,-1.0,-1.0,-1.0,-1.0,-1.0
1701711067.115557,-1.0,0.0,-2.0,-1.0,-1.0,0.0,-1.0,-1.0
1701711067.115557,-2.0,-1.0,6.0,2.0,0.0,0.0,-1.0,-1.0
1701711067.115557,1.0,-2.0,-7.0,-5.0,1.0,-1.0,-2.0,-2.0
1701711067.1258652,0.0,0.0,0.0,1.0,0.0,-2.0,-2.0,-1.0
1701711067.1258652,1.0,-1.0,-1.0,-1.0,-1.0,0.0,-3.0,-2.0
1701711067.1258652,0.0,-2.0,-2.0,-2.0,1.0,1.0,-1.0,1.0
1701711067.1258652,1.0,0.0,5.0,-1.0,1.0,0.0,-2.0,1.0
1701711067.1455882,0.0,-2.0,0.0,1.0,0.0,1.0,0.0,-1.0
1701711067.1455882,0.0,-1.0,9.0,9.0,0.0,-1.0,-1.0,-1.0
1701711067.1455882,1.0,-2.0,-17.0,-17.0,-4.0,-3.0,-1.0,0.0
1701711067.1455882,-1.0,-1.0,-1.0,1.0,1.0,0.0,-3.0,-1.0
1701711067.1658933,0.0,-3.0,1.0,2.0,-3.0,-2.0,-1.0,0.0
1701711067.1658933,-1.0,-1.0,-5.0,-10.0,-2.0,0.0,-2.0,1.0
1701711067.1755528,-1.0,-2.0,3.0,11.0,-1.0,0.0,1.0,-1.0
1701711067.1755528,0.0,-1.0,-5.0,-6.0,-3.0,-3.0,-2.0,-1.0
1701711067.1855536,-1.0,-3.0,1.0,5.0,-1.0,1.0,-1.0,0.0
1701711067.1855536,0.0,-2.0,2.0,-1.0,0.0,-1.0,-3.0,-1.0
1701711067.195778,-1.0,-1.0,-7.0,-6.0,0.0,-1.0,-1.0,-2.0
1701711067.195778,-2.0,-1.0,-3.0,-1.0,0.0,-1.0,-1.0,0.0
1701711067.2056203,-1.0,-2.0,2.0,1.0,-2.0,-1.0,0.0,-1.0
1701711067.2056203,-2.0,-1.0,-4.0,-3.0,-1.0,-2.0,-1.0,-2.0
1701711067.2056203,-1.0,1.0,7.0,-2.0,1.0,-2.0,-2.0,-2.0
1701711067.2056203,1.0,-3.0,-6.0,7.0,0.0,0.0,0.0,-1.0
1701711067.235557,0.0,1.0,0.0,0.0,0.0,-2.0,-2.0,0.0
1701711067.235557,-2.0,-1.0,-7.0,-8.0,-2.0,-2.0,-1.0,1.0
1701711067.2363067,-1.0,-1.0,0.0,-2.0,-2.0,-1.0,-1.0,0.0
1701711067.2363067,-2.0,-2.0,-2.0,-6.0,-4.0,-3.0,-1.0,-3.0
1701711067.2605453,-2.0,0.0,0.0,-2.0,-1.0,-1.0,-2.0,-1.0
1701711067.2605453,-1.0,0.0,-1.0,1.0,-1.0,-1.0,1.0,1.0
1701711067.2605453,-1.0,-1.0,4.0,4.0,1.0,-1.0,-2.0,0.0
1701711067.2605453,-1.0,-1.0,-10.0,-4.0,-1.0,0.0,1.0,0.0
1701711067.2705493,0.0,-2.0,-5.0,-4.0,0.0,-1.0,-1.0,0.0
1701711067.2705493,2.0,-1.0,1.0,4.0,-2.0,0.0,-2.0,-2.0
1701711067.2705493,0.0,-2.0,0.0,0.0,-1.0,0.0,-2.0,0.0
1701711067.2705493,-1.0,-2.0,9.0,3.0,0.0,0.0,-3.0,-1.0
1701711067.2909255,-1.0,2.0,-4.0,-2.0,0.0,0.0,-2.0,0.0
1701711067.2909255,-1.0,-1.0,-2.0,3.0,0.0,-1.0,0.0,0.0
1701711067.2909255,0.0,-1.0,0.0,1.0,-1.0,-3.0,1.0,-2.0
1701711067.2909255,0.0,-2.0,-2.0,-2.0,0.0,-3.0,0.0,0.0
1701711067.300858,0.0,-2.0,-2.0,-4.0,-1.0,-1.0,-3.0,-1.0
1701711067.300858,0.0,-2.0,-4.0,-6.0,0.0,-1.0,-2.0,-1.0
1701711067.3105526,0.0,0.0,-2.0,0.0,-1.0,0.0,-1.0,-1.0
1701711067.3105526,-1.0,-1.0,4.0,-2.0,-1.0,0.0,0.0,-1.0
1701711067.3305485,0.0,-2.0,-13.0,-4.0,-1.0,0.0,-1.0,-2.0
1701711067.3305485,-1.0,-1.0,3.0,4.0,-2.0,-1.0,-2.0,0.0
1701711067.3305485,0.0,-1.0,-1.0,0.0,0.0,0.0,-2.0,-2.0
1701711067.3305485,0.0,-1.0,2.0,-1.0,-1.0,0.0,0.0,0.0
1701711067.350933,0.0,0.0,2.0,-2.0,0.0,0.0,0.0,-2.0
1701711067.350933,0.0,-2.0,-2.0,-1.0,1.0,0.0,1.0,0.0
1701711067.360905,0.0,0.0,-7.0,-6.0,-2.0,-1.0,-2.0,-1.0
1701711067.360905,-2.0,0.0,2.0,0.0,0.0,-1.0,-1.0,0.0
1701711067.360905,-1.0,0.0,5.0,2.0,0.0,-2.0,-2.0,0.0
1701711067.360905,-3.0,-1.0,-12.0,-7.0,-1.0,-2.0,-1.0,-1.0
1701711067.3705509,-1.0,-2.0,3.0,1.0,-2.0,-2.0,-1.0,-1.0
1701711067.3705509,1.0,-1.0,-2.0,-1.0,-1.0,1.0,-1.0,0.0
1701711067.3908737,-1.0,-2.0,-1.0,-1.0,-2.0,-2.0,0.0,-2.0
1701711067.3908737,1.0,-1.0,3.0,2.0,2.0,-1.0,-1.0,-3.0
1701711067.3908737,0.0,-1.0,-1.0,-1.0,0.0,-3.0,-1.0,0.0
1701711067.3908737,0.0,1.0,-2.0,-1.0,-2.0,-1.0,0.0,-1.0
1701711067.4105482,-1.0,-2.0,0.0,-3.0,-1.0,-1.0,0.0,-1.0
1701711067.4105482,-3.0,-1.0,3.0,1.0,-1.0,-1.0,-1.0,-2.0
1701711067.4105482,-3.0,0.0,-3.0,-1.0,-4.0,-1.0,-1.0,-2.0
1701711067.4105482,-4.0,0.0,1.0,-1.0,-3.0,1.0,0.0,-4.0
1701711067.4306512,-1.0,2.0,2.0,-2.0,-2.0,-1.0,1.0,0.0
1701711067.4306512,-3.0,0.0,1.0,1.0,-1.0,1.0,1.0,0.0
1701711067.4306512,-5.0,0.0,-7.0,-4.0,-3.0,-1.0,0.0,-2.0
1701711067.4306512,-2.0,1.0,1.0,-1.0,-2.0,-2.0,-1.0,-1.0
1701711067.451194,-6.0,-2.0,-2.0,0.0,-1.0,-1.0,-2.0,-3.0
1701711067.451194,-4.0,-1.0,3.0,2.0,-1.0,-2.0,-1.0,-3.0
1701711067.451194,-3.0,0.0,3.0,1.0,-2.0,1.0,-1.0,-1.0
1701711067.451194,-5.0,0.0,-2.0,1.0,-2.0,-2.0,1.0,-3.0
1701711067.4908805,-4.0,0.0,-1.0,-2.0,-2.0,1.0,1.0,-2.0
1701711067.4908805,-1.0,1.0,-2.0,-2.0,-3.0,-1.0,-1.0,0.0
1701711067.4908805,2.0,-3.0,-2.0,-1.0,2.0,1.0,-4.0,0.0
1701711067.4908805,5.0,-5.0,-3.0,-1.0,2.0,0.0,-5.0,4.0
1701711067.4908805,11.0,-6.0,0.0,1.0,4.0,-1.0,-9.0,4.0
1701711067.4908805,13.0,-9.0,-5.0,-3.0,5.0,1.0,-7.0,4.0
1701711067.4908805,10.0,-6.0,1.0,-1.0,5.0,2.0,-3.0,3.0
1701711067.4908805,9.0,-4.0,-7.0,-5.0,3.0,-3.0,-4.0,3.0
1701711067.511211,0.0,-5.0,3.0,-1.0,5.0,0.0,0.0,-2.0
1701711067.511211,4.0,1.0,3.0,0.0,-2.0,-7.0,-2.0,-1.0
1701711067.511211,1.0,-4.0,-4.0,0.0,1.0,-2.0,1.0,-3.0
1701711067.511211,0.0,-2.0,0.0,0.0,0.0,-1.0,0.0,-2.0
1701711067.540907,0.0,1.0,-3.0,-2.0,-3.0,-2.0,1.0,-2.0
1701711067.540907,-2.0,1.0,6.0,-3.0,-4.0,-4.0,2.0,-3.0
1701711067.540907,-7.0,0.0,-10.0,-2.0,-4.0,-4.0,4.0,-5.0
1701711067.540907,-3.0,1.0,-1.0,-1.0,-3.0,-5.0,2.0,-4.0
1701711067.540907,-3.0,1.0,1.0,-1.0,-3.0,-1.0,1.0,-3.0
1701711067.540907,-6.0,-1.0,-3.0,0.0,-2.0,0.0,2.0,-4.0
1701711067.540907,-6.0,3.0,2.0,-6.0,-4.0,-4.0,2.0,-2.0
1701711067.540907,-11.0,3.0,-2.0,0.0,-4.0,1.0,4.0,-4.0
1701711067.5712821,-11.0,5.0,-1.0,0.0,-6.0,-4.0,5.0,-6.0
1701711067.5712821,-11.0,3.0,0.0,4.0,-2.0,2.0,3.0,-5.0
1701711067.5712821,-7.0,3.0,4.0,2.0,-5.0,-3.0,1.0,-2.0
1701711067.5712821,-3.0,0.0,-1.0,-1.0,-3.0,-1.0,-4.0,-2.0
1701711067.600919,-1.0,1.0,2.0,0.0,-1.0,-1.0,-6.0,1.0
1701711067.600919,1.0,-2.0,-2.0,-4.0,-2.0,-2.0,-7.0,2.0
1701711067.600919,4.0,-2.0,-5.0,0.0,2.0,-2.0,-6.0,6.0
1701711067.600919,5.0,-2.0,-3.0,-3.0,0.0,1.0,-7.0,4.0
1701711067.600919,6.0,-4.0,1.0,-1.0,0.0,0.0,-3.0,1.0
1701711067.600919,1.0,-2.0,0.0,2.0,2.0,1.0,-3.0,0.0
1701711067.600919,3.0,2.0,2.0,-3.0,-5.0,-1.0,-2.0,-2.0
1701711067.600919,-4.0,0.0,-4.0,-3.0,-1.0,-2.0,1.0,-4.0
1701711067.6309202,-3.0,0.0,-1.0,6.0,0.0,-1.0,1.0,-3.0
1701711067.6309202,-2.0,-1.0,-7.0,-7.0,-2.0,0.0,2.0,-4.0
1701711067.6309202,-3.0,-2.0,4.0,3.0,1.0,1.0,0.0,-4.0
1701711067.6309202,-3.0,0.0,3.0,3.0,-2.0,-2.0,1.0,-2.0
1701711067.6512265,-2.0,-2.0,-3.0,-7.0,-3.0,0.0,-1.0,-2.0
1701711067.6512265,-3.0,-3.0,0.0,1.0,2.0,0.0,1.0,0.0
1701711067.6512265,-4.0,-2.0,1.0,1.0,0.0,-1.0,0.0,-1.0
1701711067.6512265,-2.0,-4.0,-1.0,1.0,-2.0,0.0,1.0,-1.0
1701711067.661199,1.0,1.0,-2.0,-1.0,0.0,0.0,1.0,1.0
1701711067.661199,-2.0,0.0,6.0,4.0,0.0,-1.0,-1.0,0.0
1701711067.6710904,1.0,0.0,-5.0,-2.0,0.0,-2.0,-3.0,-1.0
1701711067.6710904,0.0,-1.0,1.0,-2.0,2.0,1.0,-1.0,0.0
1701711067.710919,0.0,-1.0,4.0,-3.0,0.0,-1.0,0.0,1.0
1701711067.710919,2.0,-1.0,-20.0,-9.0,-3.0,0.0,-2.0,0.0
1701711067.710919,-2.0,-3.0,6.0,3.0,2.0,1.0,-1.0,-1.0
1701711067.710919,2.0,0.0,-6.0,-10.0,-1.0,0.0,-3.0,2.0
1701711067.710919,-1.0,-3.0,0.0,0.0,0.0,-1.0,-3.0,-1.0
1701711067.710919,3.0,-1.0,0.0,-3.0,-3.0,-2.0,-1.0,0.0
1701711067.710919,1.0,1.0,-1.0,-3.0,-2.0,-1.0,-1.0,0.0
1701711067.710919,-1.0,-3.0,6.0,6.0,1.0,2.0,2.0,-1.0
1701711067.7212927,1.0,-1.0,-9.0,-4.0,-2.0,-2.0,-3.0,0.0
1701711067.7212927,0.0,1.0,0.0,-1.0,-1.0,-1.0,-3.0,-1.0
1701711067.731168,0.0,-1.0,-3.0,-1.0,0.0,-2.0,-1.0,-2.0
1701711067.731168,1.0,1.0,5.0,2.0,-1.0,-3.0,-3.0,-2.0
1701711067.7509208,1.0,0.0,-5.0,-2.0,-2.0,0.0,0.0,1.0
1701711067.7509208,0.0,-1.0,-3.0,-2.0,0.0,-1.0,1.0,0.0
1701711067.7509208,-2.0,0.0,0.0,0.0,-2.0,0.0,-1.0,-3.0
1701711067.7509208,1.0,1.0,-2.0,-1.0,-2.0,-2.0,-2.0,0.0
1701711067.775692,-5.0,-4.0,-2.0,2.0,-1.0,0.0,0.0,-3.0
1701711067.775692,-2.0,0.0,6.0,3.0,-1.0,-2.0,-2.0,-2.0
1701711067.7767048,-1.0,-2.0,2.0,-1.0,0.0,2.0,-2.0,-3.0
1701711067.7767048,-4.0,-2.0,-10.0,-3.0,0.0,-1.0,-1.0,-3.0
1701711067.7938166,0.0,-1.0,-6.0,-3.0,-2.0,-3.0,-1.0,0.0
1701711067.7938166,1.0,1.0,0.0,-1.0,-3.0,0.0,1.0,-1.0
1701711067.7938166,-4.0,-3.0,1.0,0.0,1.0,1.0,-1.0,0.0
1701711067.7938166,-2.0,0.0,1.0,3.0,0.0,1.0,0.0,0.0
1701711067.8138149,-1.0,-1.0,-1.0,-2.0,-1.0,-1.0,0.0,-2.0
1701711067.8138149,-1.0,-2.0,-2.0,-2.0,1.0,0.0,-2.0,2.0
1701711067.8138149,-1.0,1.0,-5.0,-2.0,-2.0,-2.0,-1.0,-1.0
1701711067.8138149,2.0,0.0,-2.0,-2.0,-3.0,-2.0,-1.0,-2.0
1701711067.8341956,-1.0,0.0,1.0,1.0,1.0,0.0,-2.0,-3.0
1701711067.8341956,-3.0,-2.0,-1.0,-1.0,1.0,0.0,-1.0,-3.0
1701711067.8341956,-2.0,-3.0,0.0,1.0,-1.0,1.0,-1.0,-1.0
1701711067.8341956,-2.0,0.0,-1.0,-2.0,0.0,-2.0,-1.0,-1.0
1701711067.8442106,-1.0,0.0,1.0,0.0,0.0,1.0,3.0,1.0
1701711067.8442106,0.0,-3.0,1.0,0.0,-2.0,-4.0,0.0,-2.0
1701711067.8542228,1.0,1.0,-3.0,-4.0,-3.0,-2.0,-3.0,2.0
1701711067.8542228,0.0,-2.0,-1.0,-1.0,-1.0,-2.0,1.0,-1.0
1701711067.874221,-2.0,-1.0,0.0,2.0,0.0,0.0,-1.0,-3.0
1701711067.874221,-1.0,0.0,-1.0,0.0,1.0,-2.0,-2.0,0.0
1701711067.874221,-1.0,-2.0,-2.0,1.0,0.0,0.0,0.0,2.0
1701711067.874221,-3.0,0.0,1.0,-2.0,-1.0,0.0,-3.0,-1.0
1701711067.8944976,1.0,0.0,0.0,-4.0,-1.0,-2.0,-3.0,0.0
1701711067.8944976,0.0,-2.0,-4.0,1.0,0.0,0.0,1.0,-2.0
1701711067.8944976,0.0,-2.0,-2.0,-1.0,0.0,-2.0,1.0,-1.0
1701711067.8944976,-1.0,0.0,-1.0,0.0,-1.0,0.0,-1.0,0.0
1701711067.904461,-2.0,0.0,0.0,-1.0,-1.0,-1.0,-2.0,0.0
1701711067.904461,-2.0,-2.0,-1.0,-1.0,0.0,0.0,0.0,0.0
1701711067.934224,-2.0,-1.0,0.0,-1.0,0.0,0.0,0.0,-1.0
1701711067.934224,-3.0,0.0,1.0,0.0,-2.0,0.0,-1.0,0.0
1701711067.934224,2.0,0.0,-2.0,-5.0,-6.0,-3.0,-3.0,-2.0
1701711067.934224,-1.0,0.0,-1.0,-3.0,-1.0,-1.0,-1.0,-3.0
1701711067.934224,3.0,3.0,-2.0,-3.0,-6.0,-6.0,-1.0,1.0
1701711067.934224,-1.0,-2.0,-1.0,-1.0,0.0,-2.0,-1.0,-1.0
1701711067.9546835,-1.0,-1.0,-4.0,0.0,1.0,1.0,1.0,0.0
1701711067.9546835,-5.0,-3.0,0.0,0.0,-1.0,1.0,-1.0,-1.0
1701711067.9546835,-1.0,-2.0,-1.0,0.0,-1.0,0.0,0.0,-1.0
1701711067.9546835,-1.0,-2.0,0.0,-1.0,-1.0,-1.0,-2.0,-1.0
1701711067.9645646,-1.0,-2.0,0.0,0.0,0.0,-1.0,0.0,-2.0
1701711067.9645646,0.0,0.0,-1.0,-2.0,-1.0,-1.0,-2.0,0.0
1701711067.9842536,-1.0,-2.0,-1.0,0.0,1.0,0.0,-1.0,-1.0
1701711067.9842536,-1.0,-1.0,-1.0,-1.0,0.0,-2.0,-1.0,-1.0
1701711067.9842536,2.0,1.0,-1.0,-1.0,0.0,-1.0,-4.0,-1.0
1701711067.9842536,0.0,-3.0,-2.0,-2.0,0.0,-1.0,-3.0,0.0
1701711067.9842536,-1.0,-3.0,0.0,-1.0,1.0,0.0,-3.0,-2.0
1701711067.9842536,0.0,-2.0,-3.0,-2.0,0.0,-1.0,0.0,0.0
1701711068.0143611,1.0,-1.0,0.0,-3.0,-3.0,-1.0,-1.0,1.0
1701711068.0143611,0.0,1.0,-1.0,1.0,2.0,1.0,-1.0,-1.0
1701711068.0143611,0.0,-2.0,0.0,1.0,1.0,-1.0,-1.0,-2.0
1701711068.0143611,-1.0,-2.0,0.0,-1.0,1.0,1.0,-1.0,-1.0
1701711068.034491,-2.0,-1.0,-1.0,-2.0,-1.0,-1.0,-1.0,-2.0
1701711068.034491,-3.0,0.0,0.0,-1.0,-3.0,-1.0,1.0,-2.0
1701711068.034491,-1.0,1.0,0.0,0.0,-1.0,-2.0,1.0,0.0
1701711068.034491,-1.0,0.0,0.0,-1.0,-2.0,-1.0,0.0,0.0
1701711068.054566,-1.0,-1.0,-1.0,0.0,-1.0,-2.0,0.0,-1.0
1701711068.054566,-1.0,1.0,0.0,-3.0,-1.0,-1.0,1.0,0.0
1701711068.054566,-3.0,0.0,0.0,-1.0,0.0,-1.0,-2.0,-1.0
1701711068.054566,0.0,-1.0,-2.0,0.0,-1.0,0.0,0.0,-1.0
1701711068.0743554,-1.0,-2.0,-2.0,-1.0,1.0,-1.0,0.0,-1.0
1701711068.0743554,-1.0,-1.0,-1.0,-1.0,-1.0,-3.0,-1.0,-1.0
1701711068.0743554,0.0,-1.0,-3.0,-3.0,0.0,1.0,0.0,-2.0
1701711068.0743554,1.0,-2.0,-1.0,1.0,0.0,-2.0,-3.0,-1.0
1701711068.094222,-1.0,-4.0,-1.0,-1.0,1.0,0.0,-2.0,-2.0
1701711068.094222,-1.0,-2.0,-2.0,-2.0,-1.0,-1.0,-1.0,-5.0
1701711068.094222,-2.0,-1.0,0.0,0.0,0.0,0.0,-3.0,-4.0
1701711068.094222,-2.0,-1.0,-1.0,-1.0,-3.0,-1.0,0.0,-4.0
1701711068.104255,-3.0,2.0,-1.0,-2.0,-3.0,-2.0,-3.0,-5.0
1701711068.104255,-4.0,0.0,-2.0,0.0,-3.0,-1.0,-4.0,-3.0
1701711068.104255,-3.0,-1.0,-2.0,-2.0,-3.0,-2.0,-9.0,-2.0
1701711068.104255,2.0,-1.0,-2.0,-1.0,-1.0,-2.0,-13.0,2.0
1701711068.1344564,4.0,-3.0,-3.0,2.0,1.0,-1.0,-14.0,5.0
1701711068.1344564,7.0,-4.0,-2.0,-2.0,0.0,-3.0,-11.0,6.0
1701711068.1344564,7.0,-6.0,-3.0,0.0,4.0,0.0,-5.0,6.0
1701711068.1344564,8.0,-5.0,-1.0,-1.0,2.0,-4.0,0.0,5.0
1701711068.1544394,8.0,-3.0,-4.0,-4.0,2.0,-3.0,5.0,4.0
1701711068.1544394,3.0,-7.0,0.0,0.0,3.0,-3.0,6.0,2.0
1701711068.1544394,6.0,-3.0,0.0,-2.0,0.0,-5.0,9.0,0.0
1701711068.1544394,3.0,-2.0,-3.0,-3.0,1.0,-6.0,10.0,-1.0
1701711068.1644557,2.0,-2.0,0.0,-2.0,1.0,-2.0,9.0,-1.0
1701711068.1644557,0.0,-1.0,-1.0,-1.0,-1.0,-3.0,7.0,-4.0
1701711068.1644557,-1.0,0.0,0.0,-2.0,-3.0,-1.0,4.0,-2.0
1701711068.1742313,-5.0,0.0,0.0,0.0,-3.0,1.0,2.0,-6.0
1701711068.2042217,-6.0,2.0,-1.0,-2.0,-3.0,1.0,3.0,-4.0
1701711068.2042217,-7.0,3.0,1.0,1.0,-2.0,3.0,2.0,-2.0
1701711068.2042217,-9.0,4.0,0.0,-1.0,-7.0,-1.0,1.0,-6.0
1701711068.2042217,-10.0,1.0,0.0,1.0,-3.0,2.0,0.0,-6.0
1701711068.2142603,-8.0,4.0,2.0,0.0,-7.0,0.0,-2.0,-4.0
1701711068.2142603,-8.0,3.0,0.0,-1.0,-6.0,-2.0,-2.0,-7.0
1701711068.2142603,-9.0,2.0,0.0,1.0,-2.0,2.0,-1.0,-3.0
1701711068.2142603,-9.0,5.0,0.0,1.0,-5.0,-2.0,-2.0,-3.0
1701711068.2244987,-8.0,3.0,0.0,-1.0,-4.0,-4.0,0.0,-2.0
1701711068.2244987,-5.0,2.0,-2.0,-1.0,-4.0,2.0,0.0,0.0
1701711068.2244987,-6.0,3.0,-1.0,-1.0,-4.0,0.0,-2.0,-2.0
1701711068.2342312,-5.0,1.0,-2.0,-1.0,-2.0,0.0,-3.0,-1.0
1701711068.2642198,-6.0,-1.0,-1.0,0.0,-1.0,2.0,-2.0,0.0
1701711068.2642198,-2.0,0.0,0.0,1.0,-1.0,-1.0,-3.0,-2.0
1701711068.2642198,-2.0,-2.0,-2.0,-1.0,-1.0,0.0,-1.0,-1.0
1701711068.2642198,0.0,0.0,-2.0,-1.0,-2.0,0.0,-1.0,-1.0
1701711068.274602,0.0,-2.0,-1.0,-1.0,0.0,0.0,-4.0,-1.0
1701711068.274602,1.0,-2.0,-2.0,-3.0,-2.0,0.0,-4.0,-2.0
1701711068.274602,2.0,-1.0,-1.0,-2.0,-1.0,-1.0,-2.0,1.0
1701711068.274602,1.0,-4.0,-1.0,-2.0,3.0,2.0,-1.0,0.0
1701711068.284602,1.0,-1.0,-2.0,-1.0,-3.0,-2.0,-2.0,0.0
1701711068.284602,1.0,-1.0,0.0,-1.0,2.0,-1.0,-2.0,1.0
1701711068.284602,1.0,-3.0,0.0,-2.0,1.0,-1.0,-4.0,0.0
1701711068.284602,0.0,-2.0,-1.0,-2.0,-2.0,-2.0,-4.0,1.0
1701711068.3184588,0.0,-2.0,-2.0,0.0,-1.0,2.0,-2.0,-2.0
1701711068.3194597,2.0,1.0,-3.0,0.0,-1.0,-1.0,-3.0,0.0
1701711068.3194597,1.0,-3.0,-2.0,0.0,1.0,1.0,0.0,-1.0
1701711068.3194597,2.0,-2.0,-1.0,-1.0,-1.0,-1.0,-2.0,0.0
1701711068.3366842,1.0,-3.0,-1.0,-1.0,1.0,-2.0,0.0,-1.0
1701711068.3366842,0.0,-2.0,-1.0,-1.0,-1.0,-1.0,0.0,0.0
1701711068.3366842,2.0,-2.0,-1.0,-1.0,0.0,0.0,-1.0,-1.0
1701711068.3366842,-2.0,-1.0,0.0,-1.0,-1.0,-1.0,1.0,1.0
1701711068.3467135,-1.0,-1.0,-2.0,-1.0,0.0,0.0,-1.0,2.0
1701711068.3467135,-1.0,-3.0,0.0,1.0,2.0,0.0,-1.0,-3.0
1701711068.3467135,-1.0,-3.0,-1.0,-2.0,1.0,-1.0,-3.0,-1.0
1701711068.3467135,0.0,-1.0,0.0,-1.0,0.0,-1.0,-1.0,-1.0
1701711068.3663883,1.0,0.0,1.0,-3.0,0.0,0.0,-2.0,-3.0
1701711068.3663883,2.0,0.0,-3.0,-4.0,-1.0,-4.0,0.0,1.0
1701711068.3663883,-1.0,0.0,-2.0,-1.0,0.0,-2.0,1.0,-1.0
1701711068.3663883,-1.0,0.0,-1.0,-1.0,-1.0,-1.0,-2.0,-1.0
1701711068.3967848,-3.0,-2.0,-2.0,1.0,2.0,1.0,-1.0,-2.0
1701711068.3967848,-1.0,-2.0,-1.0,-2.0,-4.0,-1.0,-3.0,0.0
1701711068.3967848,-1.0,-1.0,0.0,-1.0,-2.0,0.0,-1.0,-1.0
1701711068.3967848,-1.0,-1.0,-1.0,-2.0,-1.0,-2.0,-1.0,0.0
1701711068.4066563,-1.0,-1.0,1.0,0.0,-2.0,-3.0,-1.0,-1.0
1701711068.4066563,-1.0,-2.0,-1.0,-2.0,-1.0,0.0,-1.0,-1.0
1701711068.4066563,0.0,-1.0,-2.0,0.0,-1.0,-1.0,0.0,-1.0
1701711068.4066563,-2.0,-1.0,-1.0,-1.0,-2.0,-4.0,-3.0,1.0
1701711068.4263885,-1.0,-3.0,1.0,0.0,-1.0,2.0,0.0,-1.0
1701711068.4263885,-2.0,-2.0,-1.0,-2.0,-4.0,-6.0,-4.0,-3.0
1701711068.4263885,-1.0,0.0,-1.0,1.0,0.0,-1.0,-2.0,0.0
1701711068.4263885,1.0,-1.0,-1.0,0.0,-2.0,-5.0,-1.0,-3.0
1701711068.4566774,1.0,-2.0,-2.0,-1.0,-1.0,1.0,-7.0,-1.0
1701711068.4566774,0.0,-3.0,0.0,2.0,4.0,11.0,13.0,1.0
1701711068.4566774,1.0,-1.0,-3.0,-2.0,-3.0,-2.0,-1.0,0.0
1701711068.4566774,-3.0,-2.0,-1.0,-2.0,1.0,1.0,0.0,-1.0
1701711068.4863913,0.0,1.0,-1.0,0.0,-1.0,-3.0,-1.0,-2.0
1701711068.4863913,-1.0,0.0,-2.0,-1.0,-2.0,-2.0,-5.0,-1.0
1701711068.4863913,-1.0,0.0,-2.0,0.0,-1.0,-1.0,-2.0,-1.0
1701711068.4863913,1.0,0.0,-1.0,1.0,2.0,1.0,0.0,-1.0
1701711068.4863913,-1.0,-1.0,-1.0,-1.0,-1.0,-4.0,-2.0,-2.0
1701711068.4863913,0.0,-1.0,-3.0,-3.0,-2.0,-1.0,-2.0,0.0
1701711068.4863913,-3.0,0.0,-1.0,-2.0,-1.0,-1.0,0.0,-2.0
1701711068.4863913,-1.0,0.0,-2.0,0.0,-2.0,0.0,-2.0,0.0
1701711068.5166767,-4.0,-3.0,-1.0,1.0,2.0,1.0,1.0,-3.0
1701711068.5166767,-2.0,0.0,2.0,-1.0,-2.0,-3.0,-2.0,-1.0
1701711068.5166767,0.0,-2.0,-1.0,-2.0,-1.0,-3.0,-2.0,-3.0
1701711068.5166767,-3.0,-4.0,-1.0,0.0,0.0,-3.0,-4.0,-5.0
1701711068.546388,1.0,2.0,-2.0,-2.0,-2.0,10.0,6.0,2.0
1701711068.546388,-1.0,-2.0,-1.0,1.0,-2.0,-2.0,-1.0,-3.0
1701711068.546388,-2.0,-2.0,-1.0,0.0,0.0,0.0,0.0,-2.0
1701711068.546388,-1.0,1.0,1.0,0.0,-1.0,2.0,3.0,1.0
1701711068.546388,-3.0,0.0,0.0,-3.0,-3.0,-5.0,-3.0,-1.0
1701711068.546388,-3.0,-1.0,-1.0,-2.0,-1.0,-3.0,-2.0,-3.0
1701711068.546388,-2.0,-1.0,0.0,-2.0,-2.0,-1.0,2.0,-1.0
1701711068.546388,-3.0,1.0,-1.0,0.0,-3.0,-3.0,-3.0,-3.0
1701711068.5767705,-4.0,0.0,-1.0,-1.0,-3.0,-4.0,-1.0,0.0
1701711068.5767705,-2.0,-1.0,-1.0,-1.0,-2.0,1.0,-1.0,0.0
1701711068.5767705,-2.0,-1.0,-1.0,0.0,0.0,-2.0,-1.0,-1.0
1701711068.5767705,-3.0,-1.0,0.0,0.0,-1.0,2.0,1.0,0.0
1701711068.5963905,-2.0,-1.0,1.0,-1.0,1.0,0.0,-1.0,-2.0
1701711068.5963905,-1.0,0.0,0.0,2.0,1.0,-1.0,-2.0,-2.0
1701711068.616472,-1.0,-2.0,-1.0,0.0,-2.0,-1.0,-1.0,0.0
1701711068.616472,1.0,-1.0,-2.0,-3.0,-1.0,0.0,-2.0,0.0
1701711068.616472,0.0,-3.0,-2.0,1.0,0.0,-2.0,-2.0,0.0
1701711068.616472,1.0,-2.0,-3.0,-1.0,-1.0,-3.0,-3.0,-2.0
1701711068.616472,-1.0,-2.0,-1.0,-1.0,1.0,1.0,1.0,-1.0
1701711068.616472,2.0,-2.0,-1.0,-3.0,0.0,1.0,-2.0,0.0
1701711068.6367598,2.0,-2.0,-2.0,-2.0,0.0,-2.0,1.0,0.0
1701711068.6367598,-1.0,-2.0,-2.0,-3.0,0.0,-4.0,-5.0,0.0
1701711068.6367598,-2.0,-2.0,0.0,-1.0,0.0,5.0,0.0,-1.0
1701711068.6367598,1.0,-3.0,0.0,1.0,-1.0,-2.0,-3.0,-1.0
1701711068.6563876,-1.0,-1.0,-1.0,-1.0,-1.0,-1.0,-2.0,-1.0
1701711068.6563876,0.0,0.0,-1.0,-2.0,-1.0,-4.0,-1.0,0.0
1701711068.6563876,0.0,-2.0,-1.0,-3.0,-2.0,-2.0,-3.0,0.0
1701711068.6563876,0.0,-2.0,-3.0,-2.0,1.0,-2.0,-3.0,0.0
1701711068.6666112,6.0,-4.0,-3.0,-1.0,1.0,-4.0,-6.0,1.0
1701711068.6666112,10.0,-7.0,-3.0,0.0,4.0,0.0,-5.0,6.0
1701711068.6763933,13.0,-8.0,-3.0,-1.0,4.0,-4.0,-10.0,2.0
1701711068.6763933,14.0,-7.0,-1.0,-3.0,3.0,0.0,2.0,4.0
1701711068.7163863,9.0,-3.0,-2.0,-5.0,0.0,-5.0,-2.0,-1.0
1701711068.7163863,-1.0,-2.0,-1.0,-3.0,1.0,2.0,6.0,-4.0
1701711068.7163863,-4.0,3.0,1.0,-3.0,-4.0,-4.0,3.0,-4.0
1701711068.7163863,-6.0,4.0,-1.0,-1.0,-5.0,-5.0,3.0,-5.0
1701711068.7163863,-11.0,6.0,1.0,-2.0,-7.0,-2.0,5.0,-6.0
1701711068.7163863,-13.0,5.0,2.0,1.0,-7.0,0.0,5.0,-6.0
1701711068.7163863,-8.0,2.0,0.0,2.0,-2.0,-3.0,1.0,-3.0
1701711068.7163863,-3.0,-2.0,-2.0,0.0,-3.0,-1.0,0.0,-1.0
1701711068.726624,0.0,-3.0,-1.0,0.0,1.0,-1.0,-5.0,3.0
1701711068.726624,4.0,-1.0,-1.0,1.0,0.0,-3.0,-7.0,4.0
1701711068.7363932,2.0,-2.0,0.0,-2.0,-2.0,0.0,-2.0,4.0
1701711068.7363932,-4.0,0.0,0.0,1.0,-1.0,-1.0,-1.0,0.0
1701711068.7763863,-5.0,-1.0,0.0,0.0,-3.0,1.0,1.0,-3.0
1701711068.7763863,-7.0,2.0,0.0,-1.0,-3.0,-1.0,1.0,-4.0
1701711068.7763863,-11.0,2.0,2.0,-1.0,-4.0,-1.0,0.0,-7.0
1701711068.7763863,-9.0,3.0,-1.0,1.0,-2.0,0.0,2.0,-5.0
1701711068.7763863,-7.0,2.0,1.0,0.0,-4.0,1.0,1.0,-4.0
1701711068.7763863,-6.0,2.0,-2.0,-1.0,-3.0,1.0,0.0,-3.0
1701711068.7763863,-6.0,-1.0,0.0,0.0,-2.0,-1.0,0.0,-2.0
1701711068.7763863,-7.0,-3.0,1.0,2.0,-1.0,0.0,-3.0,-3.0
1701711068.7867053,-2.0,0.0,-2.0,1.0,2.0,2.0,-1.0,-1.0
1701711068.7867053,-1.0,0.0,-1.0,-2.0,0.0,-1.0,-3.0,0.0
1701711068.7867053,0.0,-2.0,-2.0,1.0,2.0,0.0,-1.0,1.0
1701711068.7867053,2.0,-1.0,-3.0,-5.0,-1.0,0.0,-2.0,1.0
1701711068.8163896,1.0,-2.0,-1.0,0.0,0.0,-1.0,-1.0,1.0
1701711068.8163896,2.0,-5.0,-2.0,-2.0,-1.0,1.0,-1.0,0.0
1701711068.8163896,2.0,-2.0,-2.0,-3.0,1.0,0.0,-2.0,2.0
1701711068.8163896,2.0,-2.0,0.0,-1.0,-1.0,0.0,-3.0,0.0
1701711068.8309004,1.0,-1.0,-3.0,0.0,0.0,-1.0,-1.0,1.0
1701711068.8309004,2.0,-2.0,0.0,-1.0,0.0,-2.0,-2.0,0.0
1701711068.8476264,1.0,0.0,-1.0,-3.0,-1.0,-3.0,-4.0,0.0
1701711068.8476264,0.0,0.0,0.0,-2.0,-1.0,1.0,0.0,1.0
1701711068.8546293,-4.0,-2.0,0.0,0.0,-1.0,0.0,-1.0,-3.0
1701711068.8546293,1.0,-1.0,-1.0,-2.0,-1.0,1.0,0.0,2.0
1701711068.8556347,2.0,1.0,1.0,0.0,0.0,1.0,0.0,-1.0
1701711068.8556347,0.0,-2.0,0.0,1.0,-2.0,-2.0,-2.0,-1.0
1701711068.86914,0.0,-1.0,-1.0,-2.0,-2.0,-1.0,-1.0,1.0
1701711068.86914,0.0,0.0,0.0,0.0,0.0,-1.0,0.0,-1.0
1701711068.86914,-1.0,-1.0,-2.0,0.0,0.0,0.0,-2.0,-2.0
1701711068.8791664,1.0,1.0,0.0,-1.0,-2.0,-1.0,-1.0,-1.0
1701711068.8891237,-1.0,-1.0,0.0,-2.0,0.0,-1.0,-2.0,-1.0
1701711068.8891237,1.0,-1.0,-1.0,-2.0,0.0,0.0,-2.0,0.0
1701711068.8994396,0.0,-2.0,-1.0,-1.0,-2.0,0.0,0.0,0.0
1701711068.8994396,-1.0,-2.0,-1.0,-1.0,1.0,0.0,-1.0,-1.0
1701711068.9194221,-1.0,-3.0,-3.0,0.0,0.0,0.0,-3.0,-1.0
1701711068.9194221,-1.0,0.0,-1.0,-2.0,-2.0,-2.0,-2.0,-1.0
1701711068.9194221,-2.0,0.0,-4.0,0.0,-1.0,0.0,-2.0,-1.0
1701711068.9194221,0.0,-1.0,-1.0,-2.0,-1.0,0.0,-1.0,0.0
1701711068.9391136,-2.0,0.0,1.0,0.0,-1.0,-1.0,0.0,-1.0
1701711068.9391136,-3.0,-2.0,-5.0,-4.0,-2.0,-1.0,-2.0,-1.0
1701711068.9391136,-3.0,-2.0,-2.0,-2.0,0.0,0.0,0.0,-1.0
1701711068.9391136,-2.0,-2.0,-3.0,0.0,-4.0,0.0,-1.0,-2.0
1701711068.9595225,-2.0,-2.0,2.0,2.0,0.0,-1.0,-1.0,-2.0
1701711068.9595225,-1.0,0.0,-1.0,0.0,-1.0,2.0,-1.0,0.0
1701711068.9595225,0.0,0.0,-1.0,-3.0,-1.0,0.0,-2.0,-2.0
1701711068.9595225,0.0,0.0,-2.0,-3.0,-3.0,-3.0,-2.0,-3.0
1701711068.9697826,0.0,-2.0,0.0,-2.0,0.0,-1.0,-1.0,-1.0
1701711068.9697826,0.0,-1.0,0.0,0.0,0.0,0.0,0.0,-1.0
1701711068.9697826,-1.0,-1.0,-3.0,-1.0,0.0,0.0,-1.0,0.0
1701711068.9697826,0.0,-1.0,0.0,-1.0,-1.0,0.0,-2.0,1.0
1701711068.9995387,2.0,0.0,-1.0,-2.0,-2.0,-1.0,0.0,1.0
1701711068.9995387,0.0,0.0,-2.0,-2.0,-3.0,-1.0,-1.0,-2.0
1701711068.9995387,-2.0,-2.0,-2.0,1.0,0.0,0.0,2.0,-1.0
1701711068.9995387,-1.0,0.0,-2.0,1.0,-1.0,-3.0,1.0,-1.0
1701711069.0198338,-1.0,-1.0,-1.0,-1.0,-1.0,-1.0,-1.0,-4.0
1701711069.0198338,-1.0,-2.0,1.0,-1.0,-1.0,-1.0,-1.0,0.0
1701711069.0198338,2.0,2.0,2.0,-1.0,-3.0,-3.0,-2.0,0.0
1701711069.0198338,0.0,-2.0,1.0,-2.0,1.0,0.0,-1.0,-2.0
1701711069.0298076,0.0,0.0,2.0,0.0,1.0,2.0,0.0,0.0
1701711069.0298076,-1.0,0.0,-4.0,-1.0,-2.0,-3.0,-3.0,-3.0
1701711069.0298076,-2.0,-3.0,-3.0,-3.0,-1.0,0.0,-2.0,-1.0
1701711069.0298076,1.0,1.0,-2.0,-4.0,-1.0,-1.0,0.0,0.0
1701711069.0695426,0.0,0.0,1.0,-2.0,-2.0,-2.0,-2.0,2.0
1701711069.0695426,0.0,-1.0,1.0,1.0,2.0,-2.0,-1.0,-1.0
1701711069.0695426,-2.0,-3.0,-3.0,-1.0,-1.0,-2.0,-2.0,-2.0
1701711069.0695426,-3.0,-2.0,-2.0,-1.0,-1.0,1.0,0.0,-2.0
1701711069.0795398,0.0,-1.0,-4.0,-1.0,-2.0,-1.0,0.0,-1.0
1701711069.0795398,-2.0,-1.0,-6.0,-5.0,-1.0,-2.0,0.0,-2.0
1701711069.0795398,0.0,2.0,-1.0,-1.0,-1.0,-4.0,-2.0,0.0
1701711069.0795398,1.0,0.0,0.0,-1.0,-1.0,0.0,-1.0,1.0
1701711069.0895402,0.0,-2.0,1.0,0.0,-1.0,-3.0,-3.0,-1.0
1701711069.0895402,-1.0,-1.0,1.0,1.0,-1.0,1.0,1.0,-1.0
1701711069.0895402,0.0,-2.0,1.0,-1.0,-1.0,0.0,-1.0,-2.0
1701711069.0895402,-1.0,-2.0,0.0,1.0,1.0,-1.0,-2.0,-2.0
1701711069.1099157,0.0,-2.0,-4.0,-2.0,-4.0,-2.0,-1.0,-1.0
1701711069.1099157,-2.0,-1.0,1.0,1.0,1.0,-1.0,-3.0,-1.0
1701711069.1099157,1.0,0.0,-2.0,-4.0,-5.0,-2.0,0.0,0.0
1701711069.1099157,-3.0,-2.0,0.0,4.0,3.0,0.0,0.0,0.0
1701711069.1395407,-1.0,-2.0,-2.0,-2.0,-4.0,-1.0,-2.0,-1.0
1701711069.1395407,-3.0,-3.0,-1.0,0.0,-1.0,-1.0,2.0,-2.0
1701711069.1395407,0.0,-3.0,0.0,-1.0,1.0,-1.0,0.0,0.0
1701711069.1395407,2.0,1.0,-6.0,-8.0,-6.0,-2.0,-2.0,1.0
1701711069.1495378,-2.0,-2.0,0.0,1.0,4.0,0.0,0.0,-2.0
1701711069.1495378,0.0,0.0,1.0,0.0,-2.0,-2.0,-3.0,-1.0
1701711069.1495378,-1.0,0.0,0.0,2.0,-5.0,0.0,0.0,-2.0
1701711069.1495378,-1.0,-3.0,0.0,-1.0,0.0,-1.0,0.0,-1.0
1701711069.1695442,0.0,0.0,-3.0,-2.0,-3.0,0.0,0.0,0.0
1701711069.1695442,-3.0,-2.0,4.0,0.0,3.0,1.0,-1.0,-1.0
1701711069.1695442,-1.0,-2.0,-11.0,0.0,0.0,-3.0,-2.0,0.0
1701711069.1695442,-4.0,-3.0,1.0,1.0,1.0,0.0,-1.0,1.0
1701711069.1995518,-1.0,-1.0,-2.0,-3.0,2.0,-2.0,0.0,-1.0
1701711069.1995518,0.0,-1.0,1.0,3.0,-4.0,0.0,1.0,0.0
1701711069.1995518,0.0,0.0,2.0,0.0,-1.0,0.0,0.0,0.0
1701711069.1995518,-2.0,1.0,-1.0,-3.0,-4.0,-2.0,-1.0,-2.0
1701711069.2195485,-1.0,-1.0,-3.0,0.0,1.0,-1.0,-3.0,-2.0
1701711069.2195485,-1.0,-1.0,-2.0,-4.0,-3.0,-3.0,-1.0,0.0
1701711069.229539,-2.0,-2.0,1.0,1.0,0.0,0.0,-1.0,-2.0
1701711069.229539,2.0,-1.0,-1.0,-2.0,-1.0,-2.0,-2.0,-1.0
1701711069.229539,-1.0,-1.0,0.0,0.0,-4.0,-1.0,1.0,-1.0
1701711069.229539,1.0,-1.0,-2.0,-1.0,-2.0,-1.0,0.0,-1.0
1701711069.229539,-2.0,-1.0,-1.0,-2.0,-2.0,0.0,1.0,0.0
1701711069.229539,-1.0,-2.0,-1.0,0.0,-1.0,1.0,-1.0,-4.0
1701711069.25955,-1.0,-1.0,-1.0,-2.0,-2.0,0.0,-2.0,1.0
1701711069.25955,0.0,0.0,-1.0,-1.0,-1.0,0.0,-2.0,-1.0
1701711069.25955,-1.0,0.0,3.0,0.0,0.0,-2.0,-2.0,-1.0
1701711069.25955,-1.0,-1.0,0.0,1.0,-2.0,0.0,-1.0,-3.0
1701711069.2795403,-2.0,-1.0,-2.0,-1.0,-1.0,-1.0,-2.0,-1.0
1701711069.2795403,0.0,-1.0,-2.0,-3.0,-2.0,-2.0,0.0,0.0
1701711069.2795403,-1.0,-3.0,-2.0,-3.0,2.0,-1.0,-1.0,1.0
1701711069.2795403,-3.0,0.0,2.0,5.0,3.0,0.0,1.0,-2.0
1701711069.2895687,0.0,-2.0,0.0,-2.0,-1.0,-1.0,0.0,-3.0
1701711069.2895687,-1.0,-1.0,-1.0,0.0,1.0,-1.0,-2.0,-2.0
1701711069.2895687,-2.0,-1.0,0.0,-1.0,-2.0,0.0,-1.0,-4.0
1701711069.2895687,-1.0,0.0,-4.0,-1.0,-2.0,-1.0,-1.0,0.0
1701711069.3195903,0.0,0.0,-1.0,-2.0,-2.0,-2.0,-1.0,-1.0
1701711069.3195903,-1.0,-1.0,-1.0,-2.0,-3.0,-1.0,1.0,-1.0
1701711069.3195903,-3.0,0.0,1.0,0.0,-2.0,-1.0,-2.0,-2.0
1701711069.3195903,-2.0,1.0,-3.0,-4.0,-3.0,-3.0,1.0,-2.0
1701711069.3295398,-4.0,0.0,1.0,0.0,-4.0,-2.0,0.0,-3.0
1701711069.3295398,-5.0,2.0,0.0,-1.0,-4.0,-1.0,1.0,-3.0
1701711069.3295398,-5.0,5.0,1.0,0.0,-4.0,0.0,3.0,-3.0
1701711069.3295398,-8.0,2.0,0.0,-2.0,-2.0,-1.0,4.0,-3.0
1701711069.3498614,-7.0,3.0,-1.0,2.0,-3.0,0.0,2.0,-3.0
1701711069.3498614,-5.0,3.0,-1.0,-1.0,-4.0,0.0,-1.0,-2.0
1701711069.3498614,-4.0,-1.0,0.0,1.0,-1.0,-2.0,-2.0,-1.0
1701711069.3498614,-2.0,1.0,-1.0,-2.0,-3.0,-2.0,-3.0,-1.0
1701711069.3803363,-3.0,-1.0,-2.0,0.0,0.0,1.0,-2.0,1.0
1701711069.3803363,2.0,-1.0,-2.0,0.0,0.0,-1.0,-2.0,-1.0
1701711069.3814623,4.0,-3.0,-2.0,1.0,0.0,1.0,-4.0,3.0
1701711069.3814623,7.0,-5.0,-2.0,0.0,2.0,0.0,-4.0,7.0
1701711069.3919127,6.0,-5.0,-3.0,-2.0,3.0,-1.0,-3.0,5.0
1701711069.3919127,4.0,-6.0,-2.0,-2.0,4.0,1.0,-1.0,6.0
1701711069.3919127,3.0,-4.0,-1.0,-4.0,0.0,-1.0,-3.0,10.0
1701711069.3919127,5.0,-6.0,-3.0,-3.0,3.0,1.0,-4.0,8.0
1701711069.4122605,8.0,-5.0,-3.0,-4.0,4.0,-2.0,-6.0,4.0
1701711069.4122605,10.0,-7.0,-3.0,-4.0,6.0,0.0,-7.0,-4.0
1701711069.4122605,11.0,-6.0,-3.0,-4.0,4.0,-1.0,-4.0,-13.0
1701711069.4122605,4.0,-4.0,-1.0,0.0,4.0,1.0,-2.0,-17.0
1701711069.4319265,2.0,-2.0,-1.0,-2.0,0.0,-2.0,-1.0,-13.0
1701711069.4319265,2.0,-2.0,0.0,-1.0,-1.0,-2.0,-2.0,-5.0
1701711069.4319265,4.0,-4.0,-2.0,-1.0,0.0,-3.0,-9.0,2.0
1701711069.4319265,7.0,-3.0,-2.0,-2.0,-1.0,-3.0,-13.0,7.0
1701711069.4521928,9.0,-5.0,-1.0,-1.0,1.0,-1.0,-15.0,7.0
1701711069.4521928,8.0,-3.0,-1.0,-1.0,2.0,-5.0,-12.0,8.0
1701711069.4521928,4.0,-1.0,-2.0,-3.0,-2.0,-6.0,-8.0,4.0
1701711069.4521928,1.0,-2.0,0.0,-5.0,0.0,-5.0,-2.0,1.0
1701711069.4723103,-5.0,2.0,0.0,-1.0,-4.0,-4.0,6.0,0.0
1701711069.4723103,-9.0,2.0,2.0,1.0,-3.0,-5.0,9.0,-2.0
1701711069.4723103,-13.0,5.0,1.0,2.0,-4.0,-3.0,15.0,-3.0
1701711069.4723103,-11.0,6.0,0.0,-1.0,-7.0,-5.0,13.0,-5.0
1701711069.502329,-12.0,5.0,0.0,1.0,-6.0,-3.0,13.0,-4.0
1701711069.502329,-12.0,3.0,1.0,2.0,-6.0,-1.0,11.0,-7.0
1701711069.502329,-8.0,5.0,1.0,1.0,-4.0,-2.0,6.0,-5.0
1701711069.502329,-9.0,3.0,0.0,1.0,-4.0,-1.0,7.0,-4.0
1701711069.512326,-5.0,3.0,0.0,-2.0,-3.0,0.0,2.0,-5.0
1701711069.512326,-6.0,2.0,-1.0,0.0,-4.0,1.0,1.0,-4.0
1701711069.5225708,0.0,2.0,-4.0,-4.0,-5.0,-2.0,-2.0,0.0
1701711069.5225708,-6.0,-4.0,1.0,3.0,0.0,1.0,-1.0,-3.0
1701711069.5423267,-4.0,-3.0,2.0,0.0,-1.0,2.0,-3.0,-2.0
1701711069.5423267,-1.0,0.0,-1.0,-3.0,-2.0,-1.0,-4.0,-2.0
1701711069.5423267,-2.0,-1.0,0.0,-1.0,2.0,3.0,-2.0,-1.0
1701711069.5423267,-1.0,0.0,-1.0,-2.0,-1.0,-1.0,-2.0,0.0
1701711069.5525904,-2.0,-1.0,-1.0,-4.0,-3.0,-2.0,-2.0,0.0
1701711069.5525904,-8.0,-4.0,0.0,3.0,3.0,3.0,-3.0,-3.0
1701711069.5623317,-3.0,-1.0,-1.0,-1.0,-1.0,-1.0,-2.0,-1.0
1701711069.5623317,-2.0,-1.0,-1.0,0.0,-1.0,1.0,-1.0,-1.0
1701711069.5726268,-3.0,-2.0,-2.0,0.0,0.0,2.0,0.0,-1.0
1701711069.5726268,3.0,0.0,-2.0,-3.0,-2.0,-2.0,-4.0,1.0
1701711069.5824943,-3.0,-4.0,-1.0,-2.0,0.0,1.0,-1.0,-1.0
1701711069.5824943,-3.0,-3.0,-1.0,1.0,1.0,1.0,-3.0,0.0
1701711069.6123316,3.0,0.0,-2.0,-3.0,-2.0,-1.0,-2.0,1.0
1701711069.6123316,-4.0,0.0,0.0,-1.0,1.0,1.0,0.0,-2.0
1701711069.6123316,-4.0,-4.0,-2.0,0.0,-1.0,0.0,-2.0,-2.0
1701711069.6123316,1.0,2.0,0.0,-2.0,-1.0,-1.0,-4.0,0.0
1701711069.622326,5.0,-2.0,-2.0,-1.0,2.0,1.0,-1.0,-1.0
1701711069.622326,-14.0,-4.0,-2.0,1.0,0.0,1.0,1.0,-2.0
1701711069.622326,9.0,2.0,-2.0,-4.0,-1.0,0.0,1.0,4.0
1701711069.622326,-3.0,-1.0,0.0,-3.0,0.0,0.0,0.0,-2.0
1701711069.632396,0.0,0.0,-2.0,-1.0,3.0,-1.0,-1.0,-1.0
1701711069.632396,2.0,-1.0,-2.0,-2.0,0.0,-2.0,-1.0,-1.0
1701711069.642329,3.0,5.0,-2.0,-5.0,-4.0,-5.0,-3.0,5.0
1701711069.642329,-6.0,-5.0,1.0,4.0,4.0,4.0,-3.0,-5.0
1701711069.6526396,-6.0,-4.0,-1.0,0.0,0.0,0.0,1.0,-7.0
1701711069.6526396,2.0,-3.0,-1.0,0.0,1.0,-1.0,0.0,-3.0
1701711069.6526396,-5.0,-2.0,0.0,3.0,2.0,2.0,2.0,0.0
1701711069.6526396,4.0,1.0,-4.0,-2.0,-3.0,-2.0,0.0,3.0
1701711069.6723268,-5.0,-3.0,-1.0,0.0,-1.0,-1.0,-3.0,-1.0
1701711069.6723268,8.0,-1.0,-3.0,-2.0,-2.0,0.0,-1.0,3.0
1701711069.6723268,-11.0,-9.0,1.0,3.0,7.0,4.0,1.0,-6.0
1701711069.6823313,-8.0,0.0,-2.0,-3.0,-2.0,-3.0,-2.0,-1.0
1701711069.6923323,5.0,1.0,-2.0,-2.0,-1.0,0.0,-1.0,3.0
1701711069.6923323,1.0,-1.0,-1.0,-3.0,0.0,-1.0,-2.0,1.0
1701711069.7123296,0.0,-4.0,-1.0,2.0,2.0,1.0,-2.0,-3.0
1701711069.7123296,1.0,-1.0,-2.0,-3.0,-3.0,-3.0,-2.0,0.0
1701711069.7123296,-3.0,-2.0,-1.0,0.0,1.0,1.0,-2.0,-1.0
1701711069.7123296,-1.0,0.0,-3.0,-3.0,0.0,-1.0,-1.0,2.0
1701711069.7225506,-4.0,-3.0,-2.0,-2.0,-3.0,-5.0,-6.0,-7.0
1701711069.7225506,7.0,0.0,-1.0,-1.0,-2.0,0.0,0.0,-2.0
1701711069.732608,1.0,-1.0,0.0,-1.0,-3.0,-7.0,-5.0,0.0
1701711069.732608,9.0,0.0,-1.0,-2.0,-2.0,-3.0,3.0,11.0
1701711069.7423317,-20.0,-4.0,-1.0,-3.0,-4.0,-17.0,-23.0,-20.0
1701711069.7423317,2.0,-4.0,0.0,0.0,2.0,17.0,21.0,18.0
1701711069.7523336,-20.0,-5.0,-5.0,-6.0,-5.0,-16.0,-15.0,-23.0
1701711069.7523336,-2.0,1.0,2.0,3.0,5.0,17.0,10.0,-1.0
1701711069.7723317,5.0,4.0,-2.0,-1.0,-1.0,4.0,4.0,6.0
1701711069.7723317,2.0,-2.0,-1.0,0.0,-3.0,-7.0,-6.0,-5.0
1701711069.7823257,-6.0,-3.0,1.0,-1.0,-1.0,-1.0,3.0,3.0
1701711069.7823257,2.0,-3.0,-1.0,0.0,-2.0,-8.0,-5.0,-3.0
1701711069.7823257,0.0,-3.0,-1.0,-1.0,-1.0,-1.0,1.0,-1.0
1701711069.7823257,0.0,2.0,-3.0,-3.0,-4.0,-5.0,-4.0,0.0
1701711069.7927303,3.0,-1.0,1.0,1.0,2.0,7.0,3.0,5.0
1701711069.7927303,-6.0,-2.0,-2.0,-1.0,-2.0,-7.0,-8.0,-7.0
1701711069.7927303,7.0,1.0,-1.0,-1.0,0.0,5.0,6.0,6.0
1701711069.7927303,1.0,0.0,-3.0,-3.0,-4.0,-6.0,-4.0,-2.0
1701711069.8123798,1.0,-2.0,-3.0,-1.0,0.0,1.0,-1.0,0.0
1701711069.8123798,-2.0,-1.0,0.0,0.0,-1.0,-2.0,-2.0,-4.0
1701711069.8223271,1.0,2.0,0.0,-3.0,-3.0,-2.0,2.0,4.0
1701711069.8223271,-5.0,-4.0,0.0,-1.0,0.0,-1.0,-3.0,-5.0
1701711069.8326614,-2.0,2.0,-1.0,0.0,-3.0,0.0,1.0,-3.0
1701711069.8326614,-2.0,0.0,0.0,-1.0,-2.0,-2.0,0.0,-10.0
1701711069.8326614,4.0,-3.0,-1.0,1.0,2.0,5.0,4.0,9.0
1701711069.8326614,1.0,2.0,1.0,0.0,-3.0,-8.0,-6.0,-4.0
1701711069.8526464,3.0,0.0,0.0,-1.0,-1.0,4.0,3.0,0.0
1701711069.8526464,-3.0,-1.0,-1.0,1.0,-1.0,-2.0,0.0,4.0
1701711069.8526464,-3.0,0.0,-2.0,0.0,-1.0,-5.0,-1.0,-4.0
1701711069.8526464,-1.0,0.0,-1.0,-1.0,-2.0,5.0,0.0,-3.0
1701711069.882328,0.0,1.0,-1.0,-1.0,0.0,0.0,5.0,7.0
1701711069.882328,-5.0,1.0,0.0,-3.0,-3.0,-5.0,-5.0,-4.0
1701711069.882328,7.0,-4.0,-3.0,-3.0,-4.0,-8.0,-12.0,19.0
1701711069.882328,-18.0,2.0,1.0,1.0,1.0,9.0,16.0,-18.0
1701711069.8975954,-4.0,1.0,-1.0,0.0,0.0,-3.0,0.0,4.0
1701711069.8975954,0.0,-3.0,-1.0,-2.0,-1.0,6.0,-4.0,-4.0
1701711069.8975954,-3.0,0.0,1.0,0.0,0.0,-8.0,-5.0,0.0
1701711069.8975954,2.0,-5.0,-4.0,-2.0,-2.0,-7.0,-10.0,5.0
1701711069.92658,2.0,0.0,-1.0,0.0,-2.0,-2.0,-2.0,-3.0
1701711069.92658,-1.0,-1.0,-2.0,-2.0,-2.0,-3.0,0.0,2.0
1701711069.92658,-2.0,-1.0,-2.0,-1.0,-2.0,1.0,2.0,-4.0
1701711069.92658,5.0,-2.0,-1.0,-4.0,-2.0,-2.0,-3.0,0.0
1701711069.9366107,1.0,-3.0,0.0,0.0,2.0,0.0,-1.0,-5.0
1701711069.9366107,1.0,-1.0,-3.0,0.0,-1.0,-3.0,-3.0,4.0
1701711069.9366107,-2.0,-3.0,-1.0,-1.0,4.0,6.0,6.0,-5.0
1701711069.9366107,1.0,-1.0,0.0,-2.0,0.0,-3.0,-3.0,-1.0
1701711069.9574025,2.0,1.0,1.0,1.0,0.0,0.0,-3.0,3.0
1701711069.9574025,-1.0,-4.0,-1.0,-1.0,-1.0,0.0,0.0,0.0
1701711069.9574025,0.0,0.0,0.0,0.0,-1.0,2.0,1.0,-4.0
1701711069.9574025,0.0,0.0,-1.0,0.0,-2.0,-3.0,-2.0,1.0
1701711069.9769404,-1.0,-1.0,-2.0,-4.0,-3.0,-1.0,-3.0,0.0
1701711069.9769404,-2.0,2.0,-1.0,-1.0,1.0,-1.0,0.0,-2.0
1701711069.9769404,4.0,2.0,0.0,0.0,-1.0,1.0,2.0,-6.0
1701711069.9769404,-8.0,-3.0,-3.0,-1.0,0.0,-3.0,-4.0,13.0
1701711069.9972756,-3.0,-2.0,-1.0,-3.0,-5.0,-1.0,-2.0,-26.0
1701711069.9972756,-5.0,1.0,-1.0,-2.0,0.0,0.0,0.0,-5.0
1701711069.9972756,0.0,0.0,0.0,0.0,-2.0,0.0,0.0,4.0
1701711069.9972756,1.0,0.0,1.0,2.0,3.0,2.0,0.0,-3.0
1701711070.0171332,-2.0,-1.0,-2.0,1.0,0.0,-1.0,-1.0,4.0
1701711070.0171332,4.0,0.0,0.0,0.0,0.0,-1.0,0.0,3.0
1701711070.0171332,-4.0,-1.0,1.0,-1.0,-1.0,-1.0,-1.0,-8.0
1701711070.0171332,2.0,-3.0,-1.0,-1.0,-1.0,-2.0,-4.0,0.0
1701711070.0369406,-3.0,0.0,-1.0,-2.0,-2.0,-3.0,-1.0,1.0
1701711070.0369406,1.0,-2.0,-3.0,-1.0,0.0,-1.0,-3.0,-3.0
1701711070.0369406,-2.0,-2.0,-2.0,-2.0,-1.0,-1.0,-1.0,0.0
1701711070.0369406,0.0,-1.0,-1.0,1.0,1.0,2.0,-1.0,-2.0
1701711070.0569873,3.0,1.0,-1.0,-2.0,0.0,-2.0,-3.0,4.0
1701711070.0569873,-1.0,-1.0,-1.0,-1.0,-2.0,-2.0,-2.0,-1.0
1701711070.0569873,-1.0,-2.0,-2.0,-4.0,0.0,-4.0,-5.0,-1.0
1701711070.0569873,-1.0,-1.0,-1.0,-5.0,-2.0,5.0,8.0,-6.0
1701711070.077288,0.0,-3.0,0.0,0.0,0.0,-2.0,-14.0,1.0
1701711070.077288,-2.0,-2.0,0.0,-1.0,-1.0,5.0,8.0,1.0
1701711070.077288,-4.0,0.0,0.0,-1.0,-2.0,-1.0,-1.0,-2.0
1701711070.077288,-3.0,-1.0,-3.0,-2.0,-2.0,0.0,-1.0,-2.0
1701711070.097096,-2.0,0.0,-1.0,-2.0,-1.0,3.0,4.0,0.0
1701711070.097096,-2.0,-1.0,0.0,-1.0,-3.0,0.0,-4.0,-2.0
1701711070.097096,-2.0,1.0,-1.0,-1.0,0.0,5.0,4.0,-2.0
1701711070.097096,0.0,-1.0,1.0,2.0,-3.0,-4.0,-5.0,-1.0
1701711070.1269412,4.0,-3.0,-3.0,-1.0,2.0,0.0,-1.0,3.0
1701711070.1269412,4.0,-5.0,-3.0,-3.0,1.0,-1.0,-4.0,2.0
1701711070.1269412,10.0,-3.0,-1.0,-2.0,2.0,0.0,-1.0,1.0
1701711070.1269412,-4.0,-5.0,-1.0,-4.0,1.0,-5.0,-3.0,2.0
1701711070.136945,3.0,-5.0,-1.0,-2.0,1.0,-9.0,-2.0,-1.0
1701711070.136945,3.0,-1.0,0.0,-2.0,1.0,2.0,0.0,-1.0
1701711070.136945,1.0,-3.0,-3.0,-1.0,3.0,-1.0,8.0,-1.0
1701711070.136945,4.0,-3.0,-3.0,-1.0,0.0,-8.0,0.0,-3.0
1701711070.1569395,1.0,0.0,0.0,0.0,0.0,-1.0,-7.0,2.0
1701711070.1569395,-2.0,-2.0,-3.0,-2.0,-1.0,-7.0,3.0,-2.0
1701711070.1569395,-2.0,-1.0,0.0,-1.0,-1.0,-5.0,-5.0,-3.0
1701711070.1569395,0.0,1.0,-1.0,0.0,-1.0,-4.0,-2.0,-1.0
1701711070.1773775,-3.0,0.0,0.0,0.0,-3.0,-4.0,2.0,-1.0
1701711070.1773775,-3.0,2.0,4.0,2.0,-2.0,-4.0,-4.0,-3.0
1701711070.1773775,-6.0,0.0,0.0,0.0,-2.0,-1.0,-2.0,-3.0
1701711070.1773775,-4.0,2.0,0.0,-1.0,-3.0,-3.0,-2.0,-3.0
1701711070.1973736,-3.0,-2.0,-1.0,1.0,-4.0,-8.0,-7.0,-2.0
1701711070.1973736,-3.0,-1.0,-3.0,0.0,-5.0,-17.0,-8.0,-3.0
1701711070.1973736,-3.0,0.0,-1.0,-1.0,-1.0,1.0,-15.0,-2.0
1701711070.1973736,0.0,2.0,1.0,1.0,2.0,21.0,29.0,2.0
1701711070.21694,0.0,1.0,-1.0,-2.0,0.0,2.0,1.0,0.0
1701711070.21694,-1.0,1.0,-2.0,1.0,-1.0,3.0,7.0,-2.0
1701711070.21694,-4.0,-2.0,-1.0,-1.0,-3.0,-7.0,-7.0,-3.0
1701711070.21694,1.0,0.0,-2.0,-1.0,-2.0,-5.0,-12.0,-1.0
1701711070.237383,-3.0,-2.0,0.0,0.0,-2.0,2.0,5.0,-2.0
1701711070.237383,-1.0,-1.0,-1.0,-2.0,-2.0,-2.0,-7.0,0.0
1701711070.237383,-2.0,0.0,0.0,-1.0,-4.0,-5.0,6.0,-2.0
1701711070.237383,-1.0,-2.0,-2.0,-1.0,0.0,8.0,-10.0,-1.0
1701711070.2571747,1.0,1.0,0.0,1.0,2.0,10.0,15.0,1.0
1701711070.2571747,-3.0,-1.0,-2.0,-3.0,-5.0,-5.0,-10.0,-3.0
1701711070.2571747,-2.0,-3.0,-4.0,-3.0,1.0,-3.0,4.0,-1.0
1701711070.2571747,-1.0,-1.0,0.0,-2.0,-5.0,-13.0,-1.0,-2.0
1701711070.2769737,-3.0,1.0,-1.0,-4.0,-3.0,-2.0,-1.0,-4.0
1701711070.2769737,-4.0,0.0,0.0,1.0,0.0,-2.0,-8.0,-2.0
1701711070.2769737,-1.0,0.0,0.0,-1.0,0.0,3.0,5.0,1.0
1701711070.2769737,2.0,0.0,-3.0,-2.0,-3.0,-10.0,-10.0,-1.0
1701711070.2972734,3.0,-3.0,-4.0,-1.0,1.0,0.0,3.0,1.0
1701711070.2972734,-1.0,-3.0,-1.0,-3.0,-1.0,-3.0,3.0,-2.0
1701711070.2972734,2.0,-2.0,-1.0,1.0,-1.0,1.0,-3.0,1.0
1701711070.2972734,1.0,2.0,-1.0,-2.0,-2.0,4.0,9.0,0.0
1701711070.3172882,-6.0,2.0,2.0,-2.0,-3.0,-5.0,0.0,-4.0
1701711070.3172882,-6.0,2.0,-1.0,-2.0,-3.0,0.0,5.0,-5.0
1701711070.3172882,-5.0,2.0,-1.0,-2.0,-4.0,0.0,-4.0,0.0
1701711070.3172882,-2.0,2.0,-1.0,1.0,-4.0,-1.0,-8.0,-1.0
1701711070.3469386,-1.0,2.0,-2.0,-3.0,-4.0,2.0,0.0,-1.0
1701711070.3469386,-6.0,-2.0,1.0,2.0,0.0,5.0,-3.0,-3.0
1701711070.3469386,-1.0,3.0,-1.0,-2.0,-2.0,1.0,-4.0,-1.0
1701711070.3469386,-8.0,-3.0,1.0,5.0,4.0,3.0,-10.0,-6.0
1701711070.3571148,1.0,0.0,0.0,0.0,-3.0,0.0,-13.0,3.0
1701711070.3571148,2.0,-1.0,-5.0,-6.0,1.0,4.0,-16.0,3.0
1701711070.3571148,1.0,-2.0,-1.0,0.0,1.0,4.0,-11.0,2.0
1701711070.3571148,1.0,-2.0,-2.0,-2.0,-1.0,-4.0,-15.0,0.0
1701711070.376946,4.0,0.0,0.0,-2.0,-1.0,-2.0,-12.0,0.0
1701711070.376946,3.0,-4.0,2.0,2.0,2.0,5.0,-9.0,1.0
1701711070.376946,-2.0,-4.0,-2.0,1.0,1.0,-1.0,-11.0,-3.0
1701711070.376946,1.0,-5.0,-2.0,-2.0,-1.0,1.0,-2.0,1.0
1701711070.3969367,-2.0,-3.0,-3.0,-1.0,2.0,1.0,5.0,-2.0
1701711070.3969367,0.0,0.0,-1.0,-1.0,-2.0,1.0,16.0,-1.0
1701711070.3969367,-4.0,0.0,-1.0,2.0,0.0,1.0,17.0,-7.0
1701711070.3969367,-3.0,1.0,0.0,0.0,0.0,-4.0,13.0,-7.0
1701711070.423424,-2.0,-2.0,-2.0,1.0,2.0,-1.0,10.0,-5.0
1701711070.423424,2.0,-1.0,-2.0,-1.0,1.0,0.0,12.0,-3.0
1701711070.4244378,0.0,-4.0,1.0,0.0,1.0,-3.0,8.0,-5.0
1701711070.4244378,2.0,-5.0,-7.0,-4.0,-2.0,-5.0,1.0,0.0
1701711070.4509003,1.0,-4.0,-3.0,0.0,2.0,-4.0,-1.0,1.0
1701711070.4509003,0.0,-2.0,-1.0,-1.0,1.0,3.0,4.0,3.0
1701711070.4509003,1.0,-1.0,0.0,-1.0,-3.0,-3.0,4.0,4.0
1701711070.4509003,0.0,0.0,-1.0,-2.0,-2.0,-4.0,3.0,4.0
1701711070.4609578,-1.0,-4.0,-1.0,-1.0,0.0,-1.0,-2.0,2.0
1701711070.4609578,1.0,1.0,-1.0,0.0,-2.0,-4.0,-2.0,1.0
1701711070.4609578,-1.0,-4.0,0.0,1.0,1.0,0.0,-2.0,-1.0
1701711070.4609578,2.0,0.0,-2.0,-1.0,-1.0,0.0,-4.0,-1.0
1701711070.481193,-5.0,-4.0,2.0,1.0,2.0,-1.0,-5.0,-4.0
1701711070.481193,2.0,0.0,2.0,-1.0,0.0,-2.0,-4.0,0.0
1701711070.481193,2.0,-2.0,-2.0,-3.0,-1.0,-2.0,-5.0,-1.0
1701711070.481193,2.0,-2.0,-1.0,-2.0,-2.0,-3.0,-3.0,0.0
1701711070.5109017,3.0,-1.0,-2.0,-4.0,-4.0,-1.0,-2.0,2.0
1701711070.5109017,1.0,1.0,0.0,-1.0,-2.0,-3.0,-2.0,2.0
1701711070.5109017,0.0,-2.0,-3.0,-3.0,-2.0,-1.0,-2.0,1.0
1701711070.5109017,1.0,3.0,-1.0,-4.0,-3.0,-4.0,-4.0,0.0
1701711070.5109017,0.0,0.0,0.0,-1.0,-3.0,-1.0,0.0,1.0
1701711070.5109017,-3.0,-3.0,-2.0,0.0,-2.0,-1.0,1.0,-1.0
1701711070.5208995,-1.0,0.0,-1.0,-2.0,-3.0,-3.0,-1.0,-3.0
1701711070.5208995,-4.0,0.0,3.0,1.0,-2.0,1.0,2.0,-2.0
1701711070.5608993,-1.0,4.0,0.0,-3.0,-5.0,-5.0,0.0,0.0
1701711070.5608993,-3.0,3.0,1.0,-2.0,-3.0,-2.0,2.0,-2.0
1701711070.5608993,-5.0,0.0,-2.0,0.0,2.0,1.0,2.0,-4.0
1701711070.5608993,-4.0,-2.0,2.0,3.0,0.0,1.0,1.0,-4.0
1701711070.5608993,-3.0,2.0,-2.0,-2.0,-2.0,0.0,-1.0,-5.0
1701711070.5608993,-3.0,0.0,0.0,1.0,-2.0,-2.0,0.0,-2.0
1701711070.5608993,-1.0,5.0,1.0,-3.0,-4.0,-2.0,-1.0,-1.0
1701711070.5608993,-2.0,0.0,-3.0,-1.0,-2.0,0.0,-1.0,0.0
1701711070.571246,-8.0,-6.0,2.0,3.0,2.0,2.0,0.0,-5.0
1701711070.571246,-4.0,-1.0,-1.0,-1.0,-1.0,0.0,-2.0,-4.0
1701711070.571246,-1.0,1.0,2.0,-2.0,-2.0,-1.0,-2.0,0.0
1701711070.571246,-3.0,-2.0,3.0,4.0,2.0,1.0,0.0,-3.0
1701711070.6009026,-1.0,2.0,-2.0,-2.0,-4.0,0.0,-3.0,-1.0
1701711070.6009026,2.0,-2.0,-3.0,-3.0,-2.0,0.0,-1.0,2.0
1701711070.6009026,2.0,0.0,-2.0,-1.0,-2.0,0.0,-3.0,3.0
1701711070.6009026,0.0,-2.0,2.0,-4.0,-3.0,0.0,-4.0,-2.0
1701711070.6109252,-3.0,1.0,0.0,0.0,1.0,2.0,0.0,-3.0
1701711070.6109252,-1.0,-2.0,-8.0,-7.0,-1.0,0.0,-1.0,-1.0
1701711070.6211681,-1.0,-3.0,-2.0,-2.0,-4.0,-1.0,1.0,0.0
1701711070.6211681,1.0,-1.0,-2.0,-1.0,-1.0,0.0,-1.0,0.0
1701711070.6311743,-1.0,-7.0,-4.0,2.0,2.0,1.0,-3.0,-3.0
1701711070.6311743,-2.0,1.0,4.0,3.0,4.0,0.0,-2.0,-2.0
1701711070.6409588,-3.0,-5.0,-5.0,-1.0,0.0,0.0,-1.0,-2.0
1701711070.6409588,2.0,1.0,6.0,1.0,-2.0,-2.0,-1.0,0.0
1701711070.6712382,-1.0,-3.0,-1.0,-4.0,-1.0,0.0,1.0,1.0
1701711070.6712382,2.0,-1.0,0.0,1.0,-3.0,-3.0,-3.0,1.0
1701711070.6712382,-1.0,-5.0,1.0,0.0,1.0,0.0,-1.0,0.0
1701711070.6712382,-2.0,-2.0,-4.0,-1.0,1.0,-3.0,-1.0,-2.0
1701711070.6712382,-1.0,-2.0,-3.0,-1.0,-2.0,-2.0,-1.0,1.0
1701711070.6712382,-1.0,-2.0,1.0,-1.0,0.0,-2.0,-1.0,1.0
1701711070.6812713,-2.0,-1.0,6.0,1.0,0.0,-1.0,0.0,-2.0
1701711070.6812713,2.0,-1.0,-13.0,-4.0,-2.0,-1.0,-3.0,0.0
1701711070.6915185,2.0,2.0,-1.0,-8.0,-3.0,-2.0,-1.0,1.0
1701711070.6915185,2.0,-1.0,-2.0,0.0,-1.0,0.0,0.0,0.0
1701711070.7012427,-1.0,-3.0,0.0,-2.0,0.0,0.0,0.0,-1.0
1701711070.7012427,-3.0,-1.0,-4.0,2.0,-1.0,-1.0,-1.0,-2.0
1701711070.7412364,1.0,-1.0,2.0,2.0,-1.0,-1.0,-1.0,-1.0
1701711070.7412364,-1.0,0.0,-1.0,0.0,0.0,-2.0,-2.0,-4.0
1701711070.7412364,1.0,3.0,0.0,-2.0,-2.0,-3.0,-3.0,-1.0
1701711070.7412364,-3.0,-3.0,6.0,1.0,3.0,0.0,2.0,-2.0
1701711070.7412364,-1.0,-1.0,-2.0,-2.0,1.0,-3.0,0.0,-1.0
1701711070.7412364,-2.0,-4.0,1.0,-3.0,0.0,0.0,0.0,-1.0
1701711070.7412364,1.0,1.0,0.0,3.0,-2.0,-3.0,0.0,1.0
1701711070.7412364,0.0,-1.0,-3.0,-4.0,0.0,-1.0,-1.0,-1.0
1701711070.781238,-2.0,-1.0,-3.0,0.0,-1.0,0.0,0.0,0.0
1701711070.781238,-3.0,-3.0,0.0,1.0,0.0,0.0,-2.0,-2.0
1701711070.781238,0.0,-1.0,-3.0,-2.0,0.0,1.0,0.0,1.0
1701711070.781238,0.0,2.0,0.0,-3.0,-4.0,-1.0,-1.0,0.0
1701711070.781238,-2.0,-1.0,1.0,1.0,0.0,-3.0,-2.0,-2.0
1701711070.781238,-2.0,-1.0,1.0,-1.0,-2.0,0.0,0.0,-1.0
1701711070.781238,-3.0,-1.0,-2.0,-2.0,0.0,-2.0,-1.0,-4.0
1701711070.781238,0.0,-2.0,0.0,-1.0,0.0,0.0,0.0,-1.0
1701711070.7916024,0.0,1.0,0.0,-1.0,-2.0,-2.0,-2.0,-2.0
1701711070.7916024,-2.0,-1.0,1.0,1.0,-1.0,0.0,-1.0,-1.0
1701711070.8016245,-5.0,-3.0,-6.0,0.0,-1.0,-1.0,-1.0,-3.0
1701711070.8016245,-2.0,-1.0,-2.0,-2.0,-2.0,-3.0,-1.0,-3.0
1701711070.811635,-2.0,-1.0,-1.0,-1.0,-4.0,-2.0,-2.0,-2.0
1701711070.811635,-6.0,-3.0,2.0,2.0,1.0,0.0,-1.0,-3.0
1701711070.8312376,-2.0,1.0,-4.0,-2.0,-2.0,0.0,0.0,-1.0
1701711070.8312376,-4.0,0.0,1.0,2.0,0.0,0.0,0.0,-4.0
1701711070.8416388,-2.0,1.0,-2.0,-2.0,-2.0,-1.0,1.0,-3.0
1701711070.8416388,-1.0,-1.0,-1.0,-1.0,-3.0,-1.0,1.0,-2.0
1701711070.8416388,-3.0,1.0,-2.0,-1.0,-4.0,-1.0,1.0,-3.0
1701711070.8416388,-3.0,-2.0,1.0,1.0,-2.0,-1.0,1.0,-3.0
1701711070.861563,-2.0,-1.0,-1.0,0.0,-3.0,1.0,-1.0,-2.0
1701711070.861563,-7.0,-1.0,-1.0,1.0,0.0,-1.0,0.0,-4.0
1701711070.861563,-1.0,-1.0,0.0,-1.0,-2.0,-1.0,0.0,-2.0
1701711070.861563,-2.0,-1.0,-3.0,0.0,0.0,2.0,1.0,0.0
1701711070.871537,4.0,-2.0,-3.0,-1.0,-2.0,-1.0,-4.0,2.0
1701711070.871537,6.0,-3.0,-2.0,-2.0,0.0,-3.0,-6.0,2.0
1701711070.891239,7.0,-5.0,-2.0,-1.0,2.0,0.0,-6.0,5.0
1701711070.891239,12.0,-5.0,-4.0,-3.0,5.0,0.0,-9.0,13.0
1701711070.9015863,14.0,-6.0,-2.0,-3.0,5.0,-1.0,-6.0,15.0
1701711070.9015863,11.0,-7.0,-5.0,-2.0,4.0,1.0,-4.0,16.0
1701711070.9015863,7.0,-5.0,-1.0,-2.0,2.0,-1.0,-5.0,13.0
1701711070.9015863,6.0,-4.0,-1.0,-3.0,2.0,-3.0,-3.0,5.0
1701711070.92158,-1.0,-6.0,0.0,1.0,5.0,1.0,-2.0,-8.0
1701711070.92158,4.0,0.0,-1.0,-2.0,1.0,-3.0,-2.0,-4.0
1701711070.92158,-1.0,-1.0,0.0,-2.0,-2.0,-1.0,0.0,-4.0
1701711070.92158,-2.0,0.0,1.0,-1.0,-2.0,-2.0,-1.0,-6.0
1701711070.931521,-8.0,5.0,1.0,0.0,-5.0,-2.0,3.0,-11.0
1701711070.931521,-12.0,6.0,0.0,0.0,-6.0,-2.0,7.0,-15.0
1701711070.9546306,-18.0,7.0,3.0,3.0,-7.0,-3.0,6.0,-17.0
1701711070.9546306,-8.0,4.0,0.0,-1.0,-8.0,-4.0,3.0,-11.0
1701711070.9632993,-7.0,3.0,-1.0,1.0,-5.0,0.0,-5.0,-11.0
1701711070.9632993,-7.0,3.0,0.0,0.0,-8.0,0.0,-21.0,-6.0
1701711070.9645472,-1.0,0.0,0.0,0.0,-2.0,-2.0,-9.0,4.0
1701711070.9645472,0.0,-2.0,-1.0,0.0,0.0,-1.0,-1.0,6.0
1701711070.9837544,1.0,0.0,1.0,-3.0,-3.0,-2.0,3.0,8.0
1701711070.9837544,5.0,-3.0,0.0,0.0,2.0,-4.0,9.0,8.0
1701711070.9837544,9.0,-5.0,-4.0,-4.0,3.0,-3.0,11.0,5.0
1701711070.9837544,10.0,-8.0,-3.0,-1.0,5.0,-4.0,15.0,4.0
1701711070.9937522,15.0,-8.0,-4.0,-4.0,4.0,-4.0,9.0,7.0
1701711070.9937522,12.0,-8.0,-3.0,-2.0,4.0,0.0,0.0,3.0
1701711071.0041075,16.0,-7.0,-1.0,-2.0,5.0,-3.0,-9.0,1.0
1701711071.0041075,10.0,-5.0,-2.0,-5.0,4.0,-2.0,-9.0,-2.0
1701711071.0238225,4.0,-3.0,-2.0,-1.0,2.0,3.0,-3.0,-2.0
1701711071.0238225,0.0,-1.0,0.0,-1.0,0.0,1.0,3.0,-3.0
1701711071.0238225,-6.0,2.0,2.0,0.0,-2.0,1.0,6.0,-6.0
1701711071.0238225,-9.0,3.0,1.0,1.0,-6.0,0.0,4.0,-7.0
1701711071.0438225,-11.0,7.0,1.0,0.0,-5.0,-3.0,3.0,-6.0
1701711071.0438225,-8.0,4.0,-1.0,0.0,-6.0,-3.0,2.0,-5.0
1701711071.0438225,-8.0,2.0,2.0,0.0,-4.0,-2.0,-3.0,-4.0
1701711071.0438225,-8.0,2.0,1.0,-1.0,-6.0,-4.0,-7.0,-4.0
1701711071.0538218,-5.0,0.0,0.0,0.0,-1.0,0.0,-5.0,-2.0
1701711071.0538218,-3.0,2.0,-1.0,-2.0,-4.0,-3.0,0.0,-1.0
1701711071.064166,-2.0,-1.0,0.0,-1.0,-3.0,-3.0,-2.0,-1.0
1701711071.064166,-4.0,0.0,0.0,0.0,-4.0,0.0,-3.0,-1.0
1701711071.0838232,0.0,0.0,-1.0,0.0,-4.0,-2.0,-4.0,1.0
1701711071.0838232,-3.0,1.0,-1.0,-3.0,-1.0,0.0,-2.0,-2.0
1701711071.0838232,-7.0,2.0,0.0,0.0,-2.0,-1.0,0.0,-4.0
1701711071.0838232,-9.0,4.0,1.0,0.0,-3.0,-1.0,-1.0,-5.0
1701711071.1038237,-12.0,4.0,-1.0,0.0,-8.0,-1.0,1.0,-4.0
1701711071.1038237,-14.0,2.0,2.0,0.0,-5.0,0.0,3.0,-6.0
1701711071.1138213,-11.0,5.0,-2.0,2.0,-5.0,1.0,2.0,-3.0
1701711071.1138213,-11.0,3.0,1.0,0.0,-4.0,1.0,1.0,-4.0
1701711071.1138213,-7.0,-2.0,-2.0,1.0,-3.0,-1.0,0.0,-2.0
1701711071.1138213,-2.0,0.0,-2.0,-1.0,-2.0,-2.0,-2.0,0.0
1701711071.1238477,-3.0,-3.0,-3.0,-1.0,-1.0,1.0,-4.0,-1.0
1701711071.1238477,-2.0,-3.0,-1.0,1.0,2.0,2.0,-3.0,0.0
1701711071.143823,0.0,-4.0,-3.0,-1.0,1.0,2.0,-1.0,2.0
1701711071.143823,2.0,-4.0,-1.0,-3.0,1.0,0.0,-3.0,3.0
1701711071.143823,2.0,-4.0,-1.0,-3.0,3.0,2.0,-3.0,0.0
1701711071.143823,1.0,-4.0,-2.0,0.0,3.0,1.0,-4.0,0.0
1701711071.1638234,1.0,-3.0,-2.0,0.0,2.0,-1.0,-4.0,1.0
1701711071.1638234,4.0,-2.0,-2.0,-1.0,1.0,-1.0,0.0,0.0
1701711071.1638234,3.0,-3.0,0.0,-2.0,2.0,0.0,-2.0,0.0
1701711071.1638234,0.0,-2.0,-2.0,-2.0,1.0,0.0,-1.0,1.0
1701711071.1738212,2.0,-2.0,0.0,-2.0,1.0,1.0,-1.0,1.0
1701711071.1738212,0.0,-3.0,-1.0,1.0,0.0,2.0,0.0,0.0
1701711071.184038,2.0,-2.0,-2.0,-1.0,1.0,1.0,-1.0,0.0
1701711071.184038,0.0,-3.0,-1.0,-2.0,0.0,0.0,0.0,-1.0
1701711071.203826,1.0,-3.0,0.0,-1.0,1.0,-3.0,-3.0,0.0
1701711071.203826,2.0,-2.0,-4.0,-1.0,-1.0,1.0,0.0,1.0
1701711071.203826,0.0,-2.0,-2.0,-1.0,1.0,2.0,0.0,0.0
1701711071.203826,1.0,-2.0,-1.0,-3.0,0.0,-2.0,-1.0,-1.0
1701711071.2338212,0.0,0.0,-1.0,-2.0,-3.0,-2.0,0.0,0.0
1701711071.2338212,-2.0,0.0,0.0,-1.0,-1.0,-1.0,-1.0,-2.0
1701711071.2338212,0.0,0.0,-1.0,-2.0,-4.0,-5.0,-1.0,1.0
1701711071.2338212,-2.0,-3.0,-2.0,-1.0,-3.0,-1.0,-1.0,-2.0
1701711071.2338212,-2.0,-2.0,0.0,-2.0,0.0,-1.0,-1.0,-2.0
1701711071.2338212,-1.0,-2.0,-3.0,-1.0,-1.0,0.0,-2.0,0.0
1701711071.2438574,1.0,-1.0,0.0,-1.0,0.0,-2.0,1.0,-1.0
1701711071.2438574,0.0,0.0,-1.0,0.0,-1.0,-2.0,-2.0,0.0
1701711071.2638228,1.0,0.0,0.0,-2.0,0.0,-1.0,-1.0,-1.0
1701711071.2638228,-1.0,0.0,-1.0,-2.0,0.0,0.0,-1.0,-2.0
1701711071.2638228,-1.0,-1.0,-2.0,-1.0,-1.0,0.0,-1.0,-1.0
1701711071.2638228,-1.0,-1.0,-2.0,-2.0,-2.0,0.0,-2.0,1.0
1701711071.283821,-3.0,-3.0,-2.0,0.0,1.0,0.0,0.0,-1.0
1701711071.283821,1.0,-3.0,0.0,-1.0,1.0,-1.0,-2.0,1.0
1701711071.283821,-2.0,-2.0,-1.0,0.0,-1.0,-2.0,-2.0,0.0
1701711071.283821,-1.0,0.0,-2.0,1.0,-1.0,-2.0,-1.0,-2.0
1701711071.2942355,-1.0,0.0,-3.0,-1.0,-2.0,-1.0,-1.0,-1.0
1701711071.2942355,0.0,0.0,0.0,-2.0,-2.0,-1.0,-1.0,-3.0
1701711071.3041737,2.0,-1.0,0.0,-1.0,-2.0,-1.0,-1.0,-1.0
1701711071.3041737,-1.0,-3.0,0.0,-1.0,-1.0,-1.0,-1.0,0.0
1701711071.3141935,-3.0,-2.0,0.0,0.0,-1.0,-6.0,-6.0,-4.0
1701711071.3141935,-2.0,-1.0,-1.0,-1.0,0.0,4.0,0.0,-1.0
1701711071.3238385,-1.0,-1.0,0.0,-1.0,-1.0,-3.0,-3.0,-3.0
1701711071.3238385,-2.0,2.0,-1.0,-1.0,-1.0,-1.0,2.0,-1.0
1701711071.3538218,-2.0,1.0,-3.0,-3.0,-3.0,-1.0,1.0,0.0
1701711071.3538218,-2.0,-1.0,-1.0,-1.0,-3.0,-6.0,-2.0,-1.0
1701711071.3538218,-2.0,-1.0,-2.0,-1.0,-1.0,-2.0,1.0,-3.0
1701711071.3538218,0.0,0.0,-1.0,-1.0,-3.0,2.0,0.0,-1.0
1701711071.3538218,-2.0,-3.0,1.0,0.0,-2.0,-5.0,-3.0,0.0
1701711071.3538218,-5.0,-1.0,0.0,2.0,-1.0,-2.0,1.0,-2.0
1701711071.3638234,-5.0,1.0,-1.0,-1.0,-1.0,1.0,2.0,-1.0
1701711071.3638234,-3.0,1.0,1.0,-1.0,-2.0,-2.0,0.0,-3.0
1701711071.3838205,-3.0,0.0,-2.0,0.0,-4.0,1.0,1.0,-1.0
1701711071.3838205,-5.0,0.0,0.0,-2.0,-2.0,1.0,0.0,-2.0
1701711071.3838205,-6.0,0.0,0.0,-1.0,-2.0,0.0,0.0,-2.0
1701711071.3838205,-5.0,0.0,-1.0,-1.0,-5.0,-3.0,1.0,-3.0
1701711071.404129,-6.0,0.0,0.0,-1.0,-1.0,3.0,-2.0,-2.0
1701711071.404129,-6.0,1.0,-1.0,-1.0,-3.0,-2.0,-1.0,-2.0
1701711071.404129,-5.0,0.0,1.0,1.0,-4.0,0.0,0.0,-3.0
1701711071.404129,-4.0,1.0,-2.0,-1.0,-2.0,0.0,0.0,-1.0
1701711071.4141004,-3.0,2.0,-2.0,-1.0,-1.0,1.0,-1.0,-4.0
1701711071.4141004,2.0,-2.0,-2.0,1.0,-1.0,-1.0,-4.0,2.0
1701711071.424085,5.0,-6.0,-2.0,0.0,3.0,-1.0,-7.0,1.0
1701711071.424085,11.0,-8.0,-3.0,-1.0,4.0,1.0,-8.0,5.0
1701711071.4538243,17.0,-10.0,-2.0,-1.0,8.0,1.0,-10.0,5.0
1701711071.4538243,14.0,-10.0,-5.0,-1.0,8.0,2.0,-8.0,4.0
1701711071.4538243,13.0,-6.0,-5.0,-4.0,5.0,3.0,-8.0,3.0
1701711071.4538243,11.0,-6.0,-5.0,-2.0,4.0,1.0,-13.0,3.0
1701711071.4638555,12.0,-7.0,-3.0,-3.0,5.0,-3.0,-14.0,3.0
1701711071.4638555,13.0,-8.0,-3.0,-4.0,5.0,-5.0,-15.0,2.0
1701711071.4638555,16.0,-8.0,-3.0,-3.0,4.0,-7.0,2.0,4.0
1701711071.4638555,16.0,-8.0,-1.0,-3.0,5.0,-7.0,17.0,3.0
1701711071.4741054,14.0,-6.0,-3.0,-3.0,2.0,-4.0,27.0,5.0
1701711071.4741054,10.0,-7.0,-3.0,-1.0,3.0,-5.0,29.0,2.0
1701711071.4895957,7.0,-4.0,-3.0,-2.0,2.0,-6.0,8.0,1.0
1701711071.4895957,7.0,-4.0,-1.0,-2.0,1.0,-3.0,0.0,-1.0
1701711071.5065377,-1.0,3.0,1.0,-1.0,-4.0,-4.0,-5.0,-7.0
1701711071.5065377,-10.0,7.0,3.0,-4.0,-9.0,-2.0,-2.0,-12.0
1701711071.5065377,-20.0,11.0,3.0,0.0,-10.0,-3.0,-3.0,-8.0
1701711071.5065377,-22.0,8.0,4.0,1.0,-8.0,-4.0,-5.0,-4.0
1701711071.5165749,-16.0,6.0,3.0,1.0,-9.0,-3.0,-7.0,1.0
1701711071.5265477,-13.0,7.0,1.0,0.0,-9.0,-4.0,-4.0,3.0
1701711071.5265477,-13.0,4.0,2.0,2.0,-7.0,-1.0,3.0,-1.0
1701711071.5265477,-11.0,6.0,0.0,1.0,-8.0,-2.0,2.0,-4.0
1701711071.536797,-14.0,5.0,-1.0,2.0,-7.0,-2.0,7.0,-9.0
1701711071.536797,-12.0,4.0,1.0,1.0,-6.0,-2.0,3.0,-9.0
1701711071.5467923,-11.0,5.0,1.0,-1.0,-9.0,-3.0,2.0,-7.0
1701711071.5467923,-13.0,7.0,2.0,2.0,-6.0,0.0,3.0,-9.0
1701711071.5665421,-11.0,2.0,-1.0,1.0,-5.0,1.0,2.0,-8.0
1701711071.5665421,-13.0,0.0,1.0,0.0,-1.0,2.0,2.0,-6.0
1701711071.5665421,-5.0,0.0,-1.0,1.0,-1.0,1.0,-2.0,-3.0
1701711071.5665421,-6.0,1.0,-1.0,1.0,-2.0,0.0,-1.0,-3.0
1701711071.5765648,-2.0,-3.0,-2.0,0.0,0.0,2.0,-1.0,0.0
1701711071.5765648,1.0,-1.0,-1.0,-1.0,-2.0,0.0,-4.0,3.0
1701711071.5868256,-1.0,-2.0,-2.0,-2.0,2.0,2.0,-3.0,1.0
1701711071.5868256,0.0,-3.0,-2.0,0.0,2.0,2.0,-4.0,1.0
1701711071.596694,2.0,-2.0,-1.0,-2.0,3.0,1.0,-2.0,2.0
1701711071.596694,3.0,-4.0,-3.0,-1.0,3.0,0.0,-5.0,1.0
1701711071.6065395,4.0,-6.0,-1.0,-1.0,3.0,0.0,-3.0,2.0
1701711071.6065395,4.0,-2.0,-4.0,-3.0,0.0,0.0,-4.0,5.0
1701711071.6168196,3.0,-3.0,-1.0,-1.0,1.0,0.0,-2.0,1.0
1701711071.6168196,2.0,-2.0,-2.0,-2.0,-1.0,-1.0,-1.0,1.0
1701711071.6168196,0.0,-1.0,-2.0,-1.0,1.0,-1.0,-1.0,-1.0
1701711071.6168196,4.0,-3.0,-3.0,-5.0,0.0,1.0,-1.0,1.0
1701711071.636932,-1.0,-2.0,0.0,-1.0,1.0,0.0,-3.0,-1.0
1701711071.636932,4.0,0.0,-3.0,-3.0,-1.0,-2.0,-2.0,1.0
1701711071.646542,1.0,-2.0,-1.0,-1.0,0.0,0.0,-1.0,-2.0
1701711071.646542,0.0,-3.0,-2.0,-1.0,1.0,-1.0,-1.0,1.0
1701711071.656737,0.0,-2.0,-1.0,0.0,-1.0,0.0,0.0,-1.0
1701711071.656737,1.0,-2.0,2.0,0.0,-2.0,0.0,-1.0,0.0
1701711071.6665425,2.0,-1.0,-4.0,-4.0,-2.0,-1.0,-3.0,1.0
1701711071.6665425,-2.0,-4.0,-1.0,0.0,0.0,-1.0,0.0,-2.0
1701711071.6765769,1.0,1.0,-1.0,-1.0,-1.0,-1.0,-2.0,0.0
1701711071.6765769,-4.0,-1.0,0.0,0.0,-1.0,0.0,-2.0,-1.0
1701711071.6866863,-2.0,-3.0,0.0,1.0,1.0,-3.0,0.0,-2.0
1701711071.6866863,0.0,0.0,-1.0,-2.0,-1.0,-2.0,0.0,-1.0
1701711071.696824,-2.0,-1.0,-1.0,-1.0,2.0,-2.0,-2.0,-3.0
1701711071.696824,-3.0,-2.0,-2.0,0.0,1.0,-1.0,1.0,-2.0
1701711071.7065437,-1.0,0.0,1.0,0.0,0.0,-1.0,-1.0,-1.0
1701711071.7065437,-1.0,-1.0,0.0,-1.0,-1.0,-1.0,-1.0,-3.0
1701711071.7166789,0.0,-2.0,-1.0,0.0,-2.0,-2.0,-3.0,-1.0
1701711071.7166789,1.0,1.0,-1.0,-1.0,-1.0,1.0,-1.0,-1.0
1701711071.7265425,-1.0,0.0,1.0,0.0,1.0,-1.0,-2.0,-1.0
1701711071.7265425,-1.0,1.0,-1.0,0.0,-1.0,-3.0,0.0,0.0
1701711071.7365746,-1.0,0.0,1.0,-1.0,-2.0,-2.0,-2.0,0.0
1701711071.7365746,-1.0,-3.0,-3.0,-2.0,0.0,0.0,-2.0,-3.0
1701711071.7468357,-1.0,0.0,-2.0,-1.0,-3.0,-1.0,1.0,-2.0
1701711071.7468357,-2.0,-2.0,-2.0,-2.0,-1.0,2.0,0.0,-2.0
1701711071.7568734,-2.0,-1.0,-1.0,-1.0,-2.0,-2.0,1.0,-1.0
1701711071.7568734,-2.0,0.0,-1.0,0.0,0.0,1.0,-2.0,1.0
1701711071.7665434,-2.0,-1.0,-3.0,0.0,0.0,0.0,-1.0,-1.0
1701711071.7665434,0.0,-2.0,1.0,0.0,0.0,-1.0,0.0,-1.0
1701711071.7865868,-3.0,-1.0,-3.0,-3.0,-2.0,-1.0,1.0,0.0
1701711071.7865868,-1.0,-1.0,0.0,0.0,-1.0,-3.0,-1.0,-3.0
1701711071.7865868,0.0,-2.0,-2.0,1.0,1.0,1.0,1.0,-1.0
1701711071.7865868,0.0,-1.0,1.0,-2.0,-2.0,0.0,-3.0,0.0
1701711071.7967803,-4.0,-2.0,0.0,-2.0,0.0,1.0,-1.0,-1.0
1701711071.7967803,1.0,0.0,-2.0,-2.0,-2.0,-3.0,-1.0,-1.0
1701711071.8067575,-2.0,-1.0,0.0,0.0,-2.0,-2.0,-2.0,-1.0
1701711071.8067575,-4.0,-3.0,-1.0,3.0,1.0,-1.0,0.0,-3.0
1701711071.8265455,1.0,0.0,0.0,-3.0,-1.0,0.0,0.0,-1.0
1701711071.8265455,-2.0,-1.0,0.0,1.0,1.0,0.0,0.0,-1.0
1701711071.8365486,-1.0,-1.0,-2.0,-2.0,-1.0,1.0,-1.0,0.0
1701711071.8365486,0.0,0.0,-1.0,-1.0,-3.0,-1.0,-2.0,-2.0
1701711071.8465402,0.0,-1.0,-1.0,-1.0,-3.0,-1.0,-1.0,0.0
1701711071.8465402,-1.0,-1.0,-1.0,-1.0,-1.0,-1.0,-1.0,-1.0
1701711071.8465402,0.0,0.0,0.0,-3.0,0.0,1.0,1.0,-1.0
1701711071.8465402,0.0,2.0,-1.0,-3.0,0.0,-3.0,-1.0,1.0
1701711071.85654,0.0,-1.0,-2.0,-1.0,-1.0,-2.0,-3.0,-1.0
1701711071.85654,1.0,-1.0,-2.0,-3.0,-3.0,-4.0,-2.0,0.0
1701711071.8668435,0.0,-1.0,-2.0,-2.0,-3.0,-1.0,-2.0,0.0
1701711071.8668435,-3.0,-1.0,-1.0,1.0,-3.0,1.0,1.0,-1.0
1701711071.876855,-2.0,0.0,-2.0,1.0,1.0,0.0,0.0,-2.0
1701711071.876855,-1.0,1.0,0.0,0.0,0.0,-1.0,-3.0,-1.0
1701711071.88654,0.0,-1.0,-2.0,-3.0,0.0,-1.0,-2.0,1.0
1701711071.88654,0.0,-1.0,0.0,-1.0,-1.0,-1.0,-2.0,-1.0
1701711071.9065716,1.0,-1.0,-2.0,-3.0,-1.0,-2.0,-1.0,0.0
1701711071.9065716,0.0,-3.0,-1.0,0.0,0.0,1.0,-1.0,-2.0
1701711071.9065716,1.0,-2.0,0.0,-1.0,-1.0,0.0,-1.0,-2.0
1701711071.9065716,2.0,-2.0,-2.0,-3.0,-1.0,-1.0,-1.0,2.0
1701711071.9169095,-1.0,-3.0,0.0,0.0,-1.0,-1.0,-1.0,-2.0
1701711071.9169095,1.0,-2.0,-1.0,-2.0,1.0,1.0,-2.0,0.0
1701711071.9268653,-1.0,-3.0,0.0,-1.0,0.0,-3.0,-2.0,-2.0
1701711071.9268653,-2.0,-2.0,-1.0,-1.0,1.0,1.0,-1.0,-2.0
1701711071.9368565,0.0,-1.0,-2.0,-1.0,0.0,-1.0,-1.0,-2.0
1701711071.9368565,0.0,-3.0,-2.0,-2.0,0.0,-2.0,0.0,-1.0
1701711071.9465427,-1.0,-1.0,-1.0,0.0,0.0,-1.0,0.0,0.0
1701711071.9465427,1.0,0.0,-2.0,-2.0,-2.0,-2.0,-2.0,0.0
1701711071.966901,-1.0,-1.0,-1.0,-2.0,-2.0,-2.0,-1.0,0.0
1701711071.966901,1.0,1.0,-1.0,-1.0,-2.0,-1.0,-1.0,-2.0
1701711071.966901,1.0,-2.0,-1.0,-1.0,-3.0,-2.0,-2.0,1.0
1701711071.966901,0.0,0.0,-2.0,-2.0,-2.0,-2.0,-1.0,-5.0
1701711071.9769077,1.0,1.0,-1.0,0.0,0.0,-1.0,-1.0,-3.0
1701711071.9769077,-2.0,-1.0,-2.0,1.0,-3.0,0.0,0.0,-1.0
1701711071.9868631,-3.0,-1.0,-1.0,-1.0,-1.0,-1.0,-1.0,-2.0
1701711071.9868631,-1.0,-1.0,0.0,-2.0,-2.0,-1.0,-2.0,-1.0
1701711071.996881,-1.0,-1.0,-1.0,-2.0,-1.0,-1.0,-3.0,-1.0
1701711071.996881,-2.0,-1.0,-2.0,0.0,-3.0,-1.0,-3.0,0.0
1701711072.007141,-4.0,-1.0,0.0,0.0,-1.0,0.0,1.0,-2.0
1701711072.007141,-5.0,-2.0,0.0,0.0,0.0,1.0,0.0,-2.0
1701711072.0281928,-5.0,1.0,0.0,0.0,-3.0,-1.0,-1.0,-4.0
1701711072.0292146,-3.0,-2.0,-1.0,0.0,-1.0,-2.0,3.0,-4.0
1701711072.0302093,-6.0,0.0,-1.0,-1.0,-3.0,-1.0,0.0,-6.0
1701711072.0302093,-2.0,1.0,-2.0,-2.0,-1.0,-3.0,2.0,-7.0
1701711072.0395947,-3.0,0.0,1.0,0.0,-3.0,1.0,3.0,-10.0
1701711072.0395947,-4.0,3.0,-1.0,-1.0,-3.0,0.0,2.0,-11.0
1701711072.0495985,-4.0,3.0,-1.0,-2.0,-4.0,-1.0,3.0,-10.0
1701711072.0495985,-6.0,3.0,0.0,1.0,-2.0,0.0,0.0,-10.0
1701711072.069592,-7.0,1.0,0.0,1.0,-5.0,1.0,0.0,4.0
1701711072.069592,-1.0,-2.0,0.0,0.0,-2.0,-1.0,-5.0,21.0
1701711072.069592,8.0,-6.0,-2.0,-3.0,2.0,0.0,-10.0,25.0
1701711072.069592,14.0,-10.0,-2.0,-2.0,5.0,-1.0,-14.0,22.0
1701711072.079642,12.0,-9.0,-4.0,-4.0,6.0,-2.0,-12.0,11.0
1701711072.079642,9.0,-5.0,-3.0,-4.0,4.0,0.0,-10.0,10.0
1701711072.0895963,3.0,-1.0,-1.0,-3.0,-1.0,-2.0,-8.0,-2.0
1701711072.0895963,-6.0,-1.0,-3.0,-1.0,-1.0,-1.0,-1.0,-7.0
1701711072.0998762,-4.0,1.0,-1.0,0.0,-3.0,-2.0,-4.0,-13.0
1701711072.0998762,-6.0,1.0,-1.0,0.0,-2.0,-4.0,-16.0,-16.0
1701711072.1095989,4.0,-3.0,-3.0,-1.0,2.0,-1.0,-9.0,-3.0
1701711072.1095989,9.0,-5.0,-1.0,-1.0,2.0,-3.0,-1.0,2.0
1701711072.1295953,11.0,-8.0,-3.0,-2.0,3.0,-4.0,20.0,3.0
1701711072.1295953,10.0,-8.0,-3.0,-1.0,6.0,-1.0,29.0,2.0
1701711072.1295953,6.0,-3.0,-3.0,-1.0,2.0,-1.0,23.0,-2.0
1701711072.1295953,5.0,-2.0,-2.0,-2.0,2.0,-2.0,16.0,-3.0
1701711072.1396177,1.0,0.0,-2.0,-5.0,0.0,-3.0,3.0,0.0
1701711072.1396177,0.0,0.0,0.0,-2.0,-2.0,-4.0,-2.0,-4.0
1701711072.1495929,-4.0,1.0,1.0,0.0,-4.0,-2.0,-5.0,-5.0
1701711072.1495929,-4.0,1.0,0.0,-1.0,-4.0,-3.0,-8.0,-3.0
1701711072.1599948,-4.0,1.0,0.0,-1.0,-3.0,-2.0,-8.0,-2.0
1701711072.1599948,-3.0,1.0,-1.0,-1.0,-2.0,-2.0,-4.0,-5.0
1701711072.1696005,-6.0,0.0,-1.0,-1.0,-4.0,0.0,-3.0,-3.0
1701711072.1696005,-4.0,3.0,0.0,-2.0,-3.0,-2.0,-2.0,-3.0
1701711072.1795926,-6.0,1.0,1.0,-2.0,-3.0,-1.0,-3.0,0.0
1701711072.1795926,-7.0,1.0,0.0,-1.0,-3.0,1.0,0.0,-4.0
1701711072.1795926,-7.0,1.0,0.0,0.0,-4.0,-2.0,0.0,-4.0
1701711072.1795926,-9.0,3.0,0.0,2.0,-6.0,-1.0,-1.0,-4.0
1701711072.1998768,-8.0,3.0,0.0,2.0,-1.0,-1.0,-3.0,-4.0
1701711072.1998768,-6.0,3.0,0.0,-1.0,-3.0,1.0,1.0,-3.0
1701711072.2095964,-7.0,1.0,0.0,0.0,-3.0,-1.0,1.0,-3.0
1701711072.2095964,-7.0,1.0,-1.0,1.0,-2.0,1.0,1.0,-2.0
1701711072.239595,-6.0,1.0,2.0,0.0,-4.0,1.0,-1.0,-2.0
1701711072.239595,-7.0,2.0,1.0,-1.0,-3.0,0.0,-1.0,-2.0
1701711072.239595,-6.0,1.0,-1.0,0.0,-2.0,1.0,-2.0,-1.0
1701711072.239595,-4.0,-2.0,-1.0,-2.0,-1.0,0.0,0.0,-2.0
1701711072.249907,-2.0,1.0,0.0,2.0,-2.0,0.0,-2.0,-1.0
1701711072.249907,-1.0,-1.0,-2.0,-1.0,0.0,-1.0,-4.0,0.0
1701711072.249907,1.0,0.0,-1.0,-2.0,-2.0,0.0,-4.0,0.0
1701711072.249907,-1.0,1.0,0.0,-1.0,1.0,0.0,-1.0,2.0
1701711072.2599452,-1.0,-1.0,-1.0,-2.0,-1.0,1.0,-1.0,0.0
1701711072.2599452,0.0,-2.0,-1.0,0.0,-1.0,-1.0,-3.0,-1.0
1701711072.2695923,-1.0,-3.0,-2.0,-2.0,1.0,-1.0,0.0,1.0
1701711072.2695923,0.0,-2.0,0.0,0.0,-1.0,-1.0,-1.0,-2.0
1701711072.2795923,1.0,-2.0,-5.0,-2.0,0.0,1.0,1.0,0.0
1701711072.2795923,0.0,-2.0,-1.0,-1.0,0.0,0.0,-2.0,1.0
1701711072.2896273,1.0,1.0,1.0,-2.0,1.0,-1.0,0.0,-1.0
1701711072.2896273,3.0,-1.0,-1.0,-1.0,0.0,0.0,-2.0,1.0
1701711072.2999551,1.0,0.0,-1.0,-3.0,-1.0,1.0,-1.0,1.0
1701711072.2999551,0.0,-4.0,-1.0,-2.0,0.0,0.0,-2.0,0.0
1701711072.2999551,0.0,-1.0,-1.0,-1.0,-1.0,1.0,-1.0,-1.0
1701711072.2999551,-2.0,-3.0,-1.0,-1.0,-2.0,-2.0,1.0,-1.0
1701711072.3199635,2.0,-2.0,-3.0,-1.0,0.0,-1.0,-2.0,0.0
1701711072.3199635,2.0,0.0,0.0,-1.0,-1.0,-1.0,-1.0,1.0
1701711072.329592,1.0,-2.0,-1.0,0.0,0.0,-2.0,0.0,-3.0
1701711072.329592,0.0,-1.0,-1.0,-2.0,-2.0,-1.0,-1.0,0.0
1701711072.3495953,0.0,-3.0,-3.0,-3.0,-2.0,-3.0,-2.0,1.0
1701711072.3595903,-1.0,-3.0,-3.0,-2.0,-2.0,-1.0,0.0,-1.0
1701711072.3595903,0.0,-1.0,-3.0,-3.0,-1.0,0.0,-1.0,-1.0
1701711072.3595903,0.0,-2.0,-1.0,-1.0,-2.0,-3.0,-2.0,0.0
1701711072.3595903,-1.0,-2.0,1.0,1.0,1.0,-2.0,-2.0,-1.0
1701711072.3595903,1.0,-2.0,-1.0,0.0,2.0,0.0,1.0,-3.0
1701711072.3595903,-1.0,-2.0,-1.0,0.0,0.0,0.0,-1.0,0.0
1701711072.3595903,1.0,0.0,-2.0,-1.0,-1.0,0.0,0.0,-1.0
1701711072.3799307,-1.0,-4.0,-1.0,0.0,0.0,-2.0,2.0,-1.0
1701711072.3799307,-1.0,0.0,-1.0,0.0,0.0,-1.0,-2.0,1.0
1701711072.3895917,0.0,-2.0,-1.0,-1.0,-1.0,-2.0,-2.0,0.0
1701711072.3895917,-1.0,-2.0,-2.0,-2.0,-1.0,-1.0,-1.0,-1.0
1701711072.399594,1.0,0.0,1.0,0.0,-2.0,-1.0,-2.0,0.0
1701711072.399594,0.0,0.0,-1.0,0.0,-1.0,-1.0,1.0,-2.0
1701711072.4096289,-1.0,0.0,-1.0,-3.0,-1.0,-1.0,-1.0,-2.0
1701711072.4096289,-1.0,-1.0,0.0,-1.0,-1.0,-1.0,-4.0,-1.0
1701711072.4298816,-2.0,0.0,0.0,-2.0,-1.0,-1.0,-1.0,-1.0
1701711072.4298816,-1.0,-2.0,-1.0,-1.0,0.0,-1.0,0.0,1.0
1701711072.4298816,0.0,-2.0,-1.0,0.0,-1.0,-1.0,-1.0,-1.0
1701711072.4298816,-1.0,-2.0,0.0,-2.0,-1.0,-2.0,0.0,-3.0
1701711072.4595928,-1.0,-2.0,-3.0,0.0,-2.0,-1.0,-2.0,0.0
1701711072.4595928,-1.0,-2.0,-2.0,-1.0,0.0,0.0,-1.0,-1.0
1701711072.4595928,-1.0,-1.0,0.0,0.0,-1.0,0.0,0.0,-1.0
1701711072.4595928,-1.0,2.0,-2.0,-2.0,-2.0,-2.0,0.0,1.0
1701711072.4595928,-2.0,0.0,-1.0,-1.0,-2.0,-3.0,-1.0,-4.0
1701711072.4595928,0.0,0.0,-1.0,-2.0,-3.0,-2.0,-2.0,-3.0
1701711072.4696252,-2.0,1.0,-1.0,-3.0,-1.0,-1.0,-3.0,0.0
1701711072.4696252,-1.0,0.0,-2.0,-2.0,-2.0,-1.0,-3.0,-1.0
1701711072.479842,-1.0,1.0,-1.0,-1.0,0.0,-1.0,-1.0,-1.0
1701711072.479842,-3.0,-2.0,-1.0,-2.0,-2.0,-1.0,0.0,0.0
1701711072.479842,-2.0,0.0,-1.0,-2.0,0.0,0.0,0.0,-2.0
1701711072.479842,-3.0,0.0,0.0,1.0,-1.0,0.0,0.0,-1.0
1701711072.519597,-1.0,0.0,1.0,-1.0,0.0,-1.0,0.0,-3.0
1701711072.519597,-5.0,-1.0,-1.0,2.0,-2.0,-2.0,-1.0,0.0
1701711072.519597,-2.0,-2.0,-1.0,0.0,-3.0,-3.0,-1.0,-1.0
1701711072.519597,-2.0,-1.0,-2.0,-2.0,-1.0,-2.0,0.0,-2.0
1701711072.519597,1.0,-3.0,-2.0,-1.0,0.0,0.0,0.0,3.0
1701711072.519597,1.0,-3.0,-1.0,0.0,0.0,1.0,-1.0,1.0
1701711072.529627,0.0,-1.0,-1.0,-1.0,-1.0,-2.0,-3.0,0.0
1701711072.529627,2.0,-3.0,-2.0,-1.0,1.0,-2.0,-1.0,1.0
1701711072.5449986,2.0,-3.0,-1.0,-1.0,1.0,-1.0,-2.0,0.0
1701711072.5449986,3.0,-2.0,0.0,-3.0,-1.0,-3.0,-3.0,1.0
1701711072.5516074,2.0,-3.0,0.0,0.0,-2.0,-2.0,-1.0,-1.0
1701711072.5516074,0.0,-5.0,-1.0,1.0,4.0,1.0,-2.0,-1.0
1701711072.5719218,0.0,-1.0,-1.0,-2.0,-1.0,-2.0,-2.0,-2.0
1701711072.5719218,-1.0,-3.0,-1.0,0.0,1.0,1.0,-1.0,-1.0
1701711072.5719218,-1.0,0.0,-2.0,-1.0,-2.0,0.0,1.0,-2.0
1701711072.5719218,-4.0,2.0,0.0,0.0,-3.0,-2.0,2.0,-2.0
1701711072.5819352,-7.0,-1.0,0.0,1.0,-2.0,-2.0,0.0,-2.0
1701711072.5819352,-3.0,2.0,1.0,-2.0,-3.0,0.0,-2.0,-1.0
1701711072.5819352,-4.0,-1.0,0.0,-1.0,0.0,-2.0,-2.0,1.0
1701711072.5819352,0.0,0.0,-2.0,-1.0,-1.0,0.0,-4.0,-2.0
1701711072.6021612,0.0,-1.0,-2.0,-1.0,-1.0,0.0,-1.0,-2.0
1701711072.6021612,5.0,-3.0,-3.0,-1.0,-2.0,-1.0,-2.0,-2.0
1701711072.6021612,5.0,-7.0,-2.0,-1.0,2.0,-4.0,-4.0,2.0
1701711072.6021612,12.0,-7.0,-3.0,-2.0,3.0,-1.0,-6.0,5.0
1701711072.6419272,8.0,-5.0,-3.0,-3.0,3.0,0.0,-4.0,3.0
1701711072.6419272,3.0,-1.0,0.0,-2.0,1.0,-4.0,-3.0,0.0
1701711072.6419272,-3.0,0.0,-1.0,-1.0,0.0,-1.0,2.0,-2.0
1701711072.6419272,-6.0,2.0,1.0,-2.0,-4.0,-4.0,3.0,-4.0
1701711072.6419272,-4.0,2.0,0.0,-2.0,-5.0,-4.0,2.0,0.0
1701711072.6419272,-1.0,1.0,-1.0,0.0,-3.0,-4.0,2.0,-2.0
1701711072.6419272,0.0,0.0,0.0,0.0,0.0,-1.0,2.0,-2.0
1701711072.6419272,-2.0,0.0,-1.0,-2.0,-2.0,-4.0,5.0,-3.0
1701711072.662095,-3.0,0.0,1.0,1.0,-3.0,-1.0,3.0,-5.0
1701711072.662095,-5.0,0.0,0.0,-2.0,-3.0,-2.0,2.0,-4.0
1701711072.6819274,-1.0,2.0,0.0,0.0,-2.0,-1.0,-3.0,-3.0
1701711072.6819274,-1.0,-2.0,-1.0,0.0,-1.0,0.0,-5.0,-1.0
1701711072.6819274,4.0,-2.0,-1.0,-2.0,1.0,-1.0,-6.0,4.0
1701711072.6819274,4.0,-3.0,-3.0,-2.0,1.0,-3.0,-6.0,7.0
1701711072.6819274,3.0,-3.0,-1.0,-1.0,1.0,-1.0,-5.0,6.0
1701711072.6819274,0.0,0.0,-1.0,-2.0,-2.0,-1.0,-3.0,1.0
1701711072.7019289,-6.0,3.0,-1.0,0.0,-4.0,-1.0,1.0,-4.0
1701711072.7019289,-8.0,4.0,0.0,-1.0,-5.0,0.0,4.0,-6.0
1701711072.7019289,-9.0,4.0,1.0,0.0,-7.0,-2.0,3.0,-6.0
1701711072.7019289,-10.0,4.0,1.0,2.0,-5.0,0.0,1.0,-7.0
1701711072.721927,-9.0,2.0,0.0,1.0,-4.0,1.0,3.0,-8.0
1701711072.721927,-9.0,2.0,0.0,1.0,-4.0,2.0,1.0,-8.0
1701711072.731925,-6.0,3.0,-1.0,0.0,-2.0,0.0,1.0,-5.0
1701711072.731925,-5.0,-1.0,0.0,-1.0,-2.0,-1.0,0.0,-2.0
1701711072.7419503,-1.0,2.0,0.0,-2.0,-2.0,0.0,-5.0,1.0
1701711072.7419503,0.0,-3.0,-1.0,-1.0,0.0,0.0,-2.0,0.0
1701711072.7419503,0.0,-3.0,-1.0,-2.0,1.0,1.0,-3.0,0.0
1701711072.7419503,1.0,-3.0,-1.0,-1.0,-1.0,1.0,-3.0,1.0
1701711072.7725837,0.0,-2.0,-2.0,-2.0,2.0,-1.0,-3.0,1.0
1701711072.7725837,0.0,-3.0,-3.0,0.0,2.0,0.0,0.0,1.0
1701711072.7725837,-2.0,-3.0,0.0,-1.0,0.0,0.0,-2.0,-1.0
1701711072.7725837,-1.0,-3.0,-1.0,-1.0,1.0,1.0,-1.0,0.0
1701711072.7823195,0.0,-3.0,-2.0,-1.0,0.0,0.0,-2.0,0.0
1701711072.7823195,-1.0,-2.0,-2.0,-1.0,1.0,0.0,0.0,0.0
1701711072.8022466,2.0,-1.0,-2.0,-2.0,0.0,0.0,1.0,0.0
1701711072.8022466,0.0,0.0,-2.0,0.0,0.0,1.0,0.0,0.0
1701711072.8022466,-1.0,-5.0,-2.0,0.0,-1.0,0.0,-2.0,-1.0
1701711072.8022466,-1.0,-2.0,0.0,-1.0,-1.0,0.0,0.0,-3.0
1701711072.8022466,-1.0,-2.0,-2.0,-3.0,-2.0,-1.0,-2.0,-1.0
1701711072.8022466,0.0,-1.0,-1.0,-3.0,-1.0,-1.0,-2.0,0.0
1701711072.8225396,-3.0,-1.0,1.0,-1.0,-2.0,-3.0,-1.0,-1.0
1701711072.8225396,0.0,0.0,-1.0,-2.0,-3.0,0.0,-1.0,1.0
1701711072.8322506,2.0,-2.0,0.0,0.0,-3.0,-2.0,-2.0,0.0
1701711072.8322506,0.0,-1.0,-3.0,-2.0,1.0,0.0,-1.0,1.0
1701711072.8423092,-1.0,-1.0,0.0,0.0,-1.0,-2.0,-2.0,0.0
1701711072.8423092,0.0,-2.0,-1.0,1.0,-2.0,-3.0,-1.0,-1.0
1701711072.862246,-3.0,-2.0,-1.0,-1.0,-1.0,0.0,0.0,-1.0
1701711072.862246,-1.0,-2.0,-2.0,-1.0,0.0,-2.0,-2.0,-2.0
1701711072.862246,2.0,0.0,-1.0,-3.0,-1.0,-1.0,0.0,0.0
1701711072.862246,1.0,-1.0,-1.0,-1.0,-1.0,-2.0,-2.0,-1.0
1701711072.862246,-2.0,-2.0,-1.0,-1.0,0.0,0.0,-2.0,-1.0
1701711072.862246,-1.0,1.0,-1.0,1.0,0.0,-2.0,0.0,-2.0
1701711072.882578,-3.0,-1.0,-1.0,1.0,0.0,1.0,0.0,-2.0
1701711072.882578,-1.0,-1.0,-2.0,-4.0,-3.0,-2.0,-2.0,-1.0
1701711072.882578,-2.0,-2.0,-2.0,1.0,0.0,-1.0,-1.0,-1.0
1701711072.8922462,2.0,-1.0,-1.0,-3.0,-2.0,-2.0,-3.0,1.0
1701711072.9024613,-1.0,-2.0,-2.0,-1.0,-1.0,-2.0,-1.0,-1.0
1701711072.9024613,1.0,0.0,0.0,-2.0,-2.0,1.0,-2.0,1.0
1701711072.9122465,-1.0,-1.0,-1.0,-1.0,-2.0,0.0,-1.0,-2.0
1701711072.9122465,-1.0,-1.0,-1.0,-1.0,-1.0,-1.0,-1.0,0.0
1701711072.922252,0.0,0.0,0.0,-2.0,-2.0,-1.0,-3.0,-1.0
1701711072.922252,-1.0,-2.0,0.0,1.0,0.0,1.0,-1.0,-1.0
1701711072.922252,0.0,0.0,-2.0,-1.0,0.0,-1.0,0.0,-1.0
1701711072.922252,-1.0,0.0,0.0,0.0,0.0,-1.0,-1.0,-2.0
1701711072.9425843,-2.0,-2.0,-1.0,-1.0,-4.0,-2.0,-2.0,-1.0
1701711072.9425843,-4.0,-3.0,-2.0,-1.0,-1.0,-1.0,0.0,-2.0
1701711072.9522507,-3.0,-1.0,-1.0,-2.0,-1.0,0.0,0.0,-1.0
1701711072.9522507,-2.0,-3.0,0.0,-1.0,-2.0,-1.0,-1.0,-3.0
1701711072.9722471,-1.0,0.0,-1.0,-1.0,0.0,0.0,-2.0,-2.0
1701711072.9722471,-1.0,-2.0,0.0,-2.0,0.0,-2.0,-1.0,-2.0
1701711072.9722471,0.0,-2.0,-1.0,0.0,-4.0,-2.0,-1.0,1.0
1701711072.9722471,-1.0,-2.0,-2.0,0.0,-2.0,-1.0,-1.0,1.0
1701711072.9822881,-2.0,-3.0,-1.0,0.0,0.0,-1.0,-1.0,-1.0
1701711072.9822881,-1.0,0.0,-1.0,0.0,-2.0,-1.0,0.0,-1.0
1701711072.9822881,1.0,-1.0,-2.0,-1.0,-2.0,1.0,-2.0,-1.0
1701711072.9822881,-2.0,-2.0,-1.0,-2.0,-2.0,0.0,-2.0,-1.0
1701711073.0026906,0.0,0.0,-2.0,0.0,-1.0,0.0,-2.0,0.0
1701711073.0026906,-2.0,0.0,-1.0,-2.0,1.0,0.0,-2.0,0.0
1701711073.0122468,-1.0,-2.0,-2.0,-2.0,1.0,-2.0,-1.0,-2.0
1701711073.0122468,-1.0,-1.0,-2.0,-1.0,-2.0,0.0,-1.0,0.0
1701711073.0222452,0.0,-1.0,-2.0,-1.0,0.0,-1.0,2.0,-1.0
1701711073.0222452,-2.0,-1.0,0.0,0.0,-2.0,-2.0,-2.0,-3.0
1701711073.032502,-1.0,0.0,-2.0,-2.0,-2.0,-1.0,-1.0,-1.0
1701711073.032502,-2.0,-2.0,0.0,-1.0,0.0,-1.0,-2.0,0.0
1701711073.0523171,0.0,1.0,0.0,-2.0,1.0,0.0,0.0,0.0
1701711073.0523171,-1.0,-2.0,0.0,0.0,0.0,-1.0,-1.0,0.0
1701711073.0523171,-1.0,-1.0,-1.0,-1.0,-1.0,-1.0,1.0,0.0
1701711073.0523171,-2.0,0.0,0.0,0.0,-2.0,-3.0,2.0,-1.0
1701711073.0861578,-1.0,-1.0,-2.0,0.0,-2.0,-4.0,-1.0,-1.0
1701711073.0861578,-2.0,-2.0,-1.0,1.0,0.0,1.0,0.0,-3.0
1701711073.0861578,-3.0,-1.0,0.0,0.0,0.0,-3.0,-1.0,0.0
1701711073.0861578,-1.0,-1.0,-2.0,-2.0,-2.0,0.0,-2.0,-1.0
1701711073.0861578,-1.0,-2.0,-2.0,-2.0,-1.0,0.0,-2.0,0.0
1701711073.0861578,-1.0,-2.0,0.0,0.0,0.0,0.0,-3.0,-2.0
1701711073.0882702,0.0,-1.0,-1.0,1.0,-1.0,0.0,-1.0,-1.0
1701711073.0882702,-1.0,-1.0,-1.0,0.0,0.0,0.0,-2.0,-2.0
1701711073.1082764,-2.0,-1.0,0.0,-2.0,-1.0,-1.0,-1.0,-1.0
1701711073.1082764,0.0,-2.0,-3.0,-2.0,0.0,0.0,-2.0,-1.0
1701711073.1082764,1.0,-1.0,-1.0,-1.0,-1.0,-1.0,-2.0,0.0
1701711073.1082764,1.0,-3.0,-1.0,-1.0,-1.0,-4.0,0.0,0.0
1701711073.138275,1.0,-2.0,-1.0,0.0,0.0,-1.0,-2.0,-3.0
1701711073.138275,-2.0,-2.0,0.0,-1.0,-1.0,-3.0,0.0,1.0
1701711073.138275,-1.0,-1.0,-1.0,-2.0,-3.0,1.0,-2.0,-3.0
1701711073.138275,-3.0,-1.0,-2.0,-1.0,-2.0,-1.0,0.0,0.0
1701711073.138275,0.0,-1.0,0.0,-2.0,-1.0,-2.0,-2.0,-3.0
1701711073.138275,0.0,-1.0,-1.0,0.0,0.0,-2.0,0.0,-1.0
1701711073.1486342,0.0,-1.0,-1.0,0.0,-1.0,-1.0,-1.0,-1.0
1701711073.1486342,1.0,-1.0,-2.0,0.0,-3.0,-1.0,0.0,-2.0
1701711073.1683223,-1.0,-3.0,0.0,1.0,1.0,1.0,0.0,0.0
1701711073.1683223,-1.0,-1.0,-1.0,0.0,-2.0,-4.0,-4.0,0.0
1701711073.1683223,-2.0,0.0,-1.0,1.0,1.0,-1.0,-2.0,1.0
1701711073.1683223,0.0,-1.0,-1.0,0.0,1.0,-1.0,-2.0,-1.0
1701711073.1883044,0.0,0.0,-2.0,-1.0,1.0,-3.0,0.0,-1.0
1701711073.1883044,0.0,-1.0,-2.0,-1.0,0.0,-2.0,-1.0,-2.0
1701711073.1883044,-2.0,-1.0,1.0,-2.0,-1.0,-3.0,0.0,1.0
1701711073.1883044,-2.0,2.0,0.0,-1.0,-2.0,-2.0,1.0,-1.0
1701711073.198673,-3.0,-1.0,-1.0,-1.0,-4.0,0.0,0.0,-3.0
1701711073.198673,-2.0,-2.0,-2.0,-1.0,-2.0,-1.0,1.0,-2.0
1701711073.2086422,-2.0,-1.0,-2.0,-2.0,-2.0,0.0,-1.0,-3.0
1701711073.2086422,-3.0,-1.0,-2.0,-2.0,0.0,0.0,0.0,-1.0
1701711073.228329,-3.0,1.0,-1.0,-1.0,-3.0,-1.0,0.0,0.0
1701711073.228329,-1.0,2.0,-1.0,-2.0,-2.0,-1.0,-1.0,-1.0
1701711073.228329,-2.0,0.0,-2.0,-1.0,-1.0,0.0,1.0,-3.0
1701711073.228329,-2.0,-1.0,0.0,-1.0,-3.0,0.0,-3.0,-4.0
1701711073.2483053,-3.0,0.0,0.0,0.0,-1.0,-1.0,-2.0,-3.0
1701711073.2483053,-2.0,-2.0,-1.0,-1.0,-2.0,-1.0,1.0,-4.0
1701711073.2483053,-1.0,-2.0,-2.0,-2.0,-1.0,-1.0,0.0,-6.0
1701711073.2483053,-1.0,-3.0,-3.0,-3.0,-1.0,-4.0,-6.0,-8.0
1701711073.2585042,0.0,-1.0,-1.0,-1.0,0.0,1.0,3.0,-5.0
1701711073.2585042,2.0,-2.0,0.0,-1.0,-1.0,1.0,-3.0,-1.0
1701711073.268281,5.0,-4.0,-2.0,1.0,1.0,-2.0,-6.0,13.0
1701711073.268281,4.0,-6.0,0.0,1.0,3.0,1.0,-1.0,12.0
1701711073.2982733,4.0,0.0,-2.0,-3.0,-2.0,-4.0,-3.0,5.0
1701711073.2982733,-6.0,1.0,-1.0,-1.0,-3.0,2.0,7.0,-5.0
1701711073.2982733,-6.0,1.0,0.0,-1.0,-4.0,0.0,0.0,-9.0
1701711073.2982733,-1.0,1.0,1.0,-1.0,-1.0,-3.0,-14.0,1.0
1701711073.3083048,3.0,-4.0,-3.0,-1.0,2.0,-2.0,-24.0,3.0
1701711073.3083048,7.0,-6.0,-2.0,-2.0,4.0,-1.0,-23.0,7.0
1701711073.3083048,8.0,-4.0,-1.0,-3.0,2.0,0.0,-13.0,6.0
1701711073.3083048,8.0,-4.0,-3.0,-3.0,2.0,0.0,0.0,1.0
1701711073.318555,7.0,-5.0,-3.0,-1.0,2.0,-1.0,8.0,2.0
1701711073.318555,9.0,-3.0,-2.0,-3.0,1.0,-5.0,11.0,1.0
1701711073.328278,5.0,-4.0,-2.0,-1.0,1.0,-2.0,9.0,-1.0
1701711073.328278,2.0,-2.0,-2.0,-1.0,-1.0,-2.0,10.0,-1.0
1701711073.358273,-3.0,0.0,0.0,0.0,-1.0,-4.0,8.0,-4.0
1701711073.358273,-4.0,0.0,0.0,2.0,-2.0,-3.0,7.0,-4.0
1701711073.358273,-2.0,1.0,-1.0,0.0,-1.0,-4.0,8.0,-4.0
1701711073.358273,-2.0,-1.0,1.0,-1.0,-3.0,-3.0,7.0,-6.0
1701711073.3686802,-4.0,1.0,1.0,0.0,-3.0,-4.0,5.0,-4.0
1701711073.3686802,-1.0,2.0,-1.0,-1.0,-1.0,-2.0,1.0,-1.0
1701711073.3686802,-5.0,2.0,0.0,1.0,-5.0,-2.0,0.0,-5.0
1701711073.3686802,-5.0,3.0,-1.0,0.0,-2.0,-1.0,3.0,-6.0
1701711073.378613,-9.0,3.0,1.0,0.0,-6.0,1.0,2.0,-5.0
1701711073.378613,-9.0,4.0,0.0,0.0,-4.0,0.0,1.0,-3.0
1701711073.3885772,-9.0,5.0,2.0,1.0,-7.0,-1.0,-2.0,-3.0
1701711073.3885772,-9.0,3.0,1.0,0.0,-5.0,-2.0,-4.0,-5.0
1701711073.4082723,-8.0,-1.0,0.0,-1.0,-3.0,0.0,-1.0,-3.0
1701711073.4082723,-7.0,1.0,0.0,1.0,-3.0,-1.0,-4.0,-2.0
1701711073.4082723,-5.0,1.0,-2.0,0.0,-3.0,-2.0,-6.0,-4.0
1701711073.4082723,-7.0,1.0,0.0,0.0,-3.0,1.0,-3.0,1.0
1701711073.4285555,-6.0,1.0,-1.0,0.0,-2.0,1.0,0.0,-2.0
1701711073.4285555,-3.0,0.0,-2.0,-2.0,-2.0,1.0,-2.0,0.0
1701711073.4285555,-2.0,-1.0,-1.0,-2.0,-2.0,-1.0,-3.0,-2.0
1701711073.4285555,-2.0,-2.0,-1.0,-1.0,-2.0,0.0,1.0,-1.0
1701711073.4385576,-2.0,-2.0,-1.0,-1.0,-1.0,1.0,-1.0,-1.0
1701711073.4385576,-1.0,-1.0,0.0,0.0,-1.0,2.0,-2.0,1.0
1701711073.4485335,-2.0,-2.0,-2.0,-1.0,1.0,2.0,-1.0,0.0
1701711073.4485335,0.0,-1.0,-2.0,-2.0,-2.0,-1.0,-3.0,-2.0
1701711073.478273,-2.0,-2.0,-1.0,-1.0,1.0,1.0,-1.0,-1.0
1701711073.478273,-1.0,-2.0,-1.0,0.0,0.0,-1.0,-1.0,-1.0
1701711073.478273,2.0,-3.0,-1.0,-2.0,0.0,1.0,-1.0,2.0
1701711073.478273,0.0,-2.0,-2.0,-1.0,0.0,1.0,-1.0,0.0
1701711073.4883068,-1.0,-1.0,-1.0,0.0,0.0,1.0,-2.0,0.0
1701711073.4883068,-1.0,-2.0,-1.0,0.0,1.0,-1.0,-4.0,-2.0
1701711073.4883068,0.0,-1.0,-2.0,0.0,0.0,-1.0,0.0,0.0
1701711073.4883068,1.0,-1.0,-2.0,0.0,2.0,0.0,0.0,2.0
1701711073.5182722,2.0,-1.0,-2.0,0.0,-2.0,-3.0,-3.0,0.0
1701711073.5182722,-1.0,-1.0,0.0,-1.0,0.0,0.0,-2.0,0.0
1701711073.5182722,-1.0,-2.0,-1.0,-1.0,0.0,0.0,-3.0,-1.0
1701711073.5182722,0.0,-1.0,-2.0,-1.0,0.0,0.0,-2.0,-1.0
1701711073.5182722,2.0,-4.0,-1.0,-2.0,0.0,-2.0,-3.0,-1.0
1701711073.5282848,2.0,-2.0,-1.0,-3.0,-3.0,0.0,-3.0,0.0
1701711073.5282848,1.0,-1.0,1.0,-1.0,4.0,2.0,0.0,0.0
1701711073.5282848,0.0,0.0,-2.0,0.0,-2.0,-1.0,-2.0,1.0
1701711073.548602,-2.0,-3.0,-3.0,1.0,0.0,2.0,0.0,0.0
1701711073.548602,-2.0,0.0,-3.0,-2.0,-2.0,0.0,-1.0,-1.0
1701711073.548602,-2.0,-2.0,-3.0,-3.0,-2.0,-1.0,-1.0,0.0
1701711073.548602,-1.0,-1.0,-1.0,-2.0,1.0,-1.0,-1.0,0.0
1701711073.5585485,0.0,1.0,-2.0,-2.0,-1.0,0.0,-1.0,-1.0
1701711073.5585485,1.0,-1.0,-1.0,-2.0,-2.0,-2.0,0.0,0.0
1701711073.588273,-2.0,0.0,-1.0,1.0,-2.0,-1.0,-2.0,-2.0
1701711073.588273,1.0,-3.0,0.0,-2.0,0.0,-1.0,-1.0,-1.0
1701711073.588273,-1.0,-1.0,1.0,-1.0,-1.0,-3.0,0.0,1.0
1701711073.588273,2.0,1.0,-1.0,0.0,-1.0,-1.0,-1.0,1.0
1701711073.6113672,-3.0,0.0,-2.0,0.0,2.0,1.0,0.0,-1.0
1701711073.6113672,-1.0,-3.0,0.0,-2.0,-3.0,-2.0,1.0,-1.0
1701711073.6123846,0.0,-1.0,-2.0,-7.0,-2.0,-4.0,-2.0,-1.0
1701711073.6123846,-4.0,-3.0,-2.0,-1.0,0.0,-1.0,-1.0,-2.0
1701711073.6143615,-1.0,-1.0,1.0,2.0,-5.0,0.0,0.0,2.0
1701711073.6143615,-2.0,-1.0,0.0,1.0,1.0,0.0,1.0,-1.0
1701711073.621493,-1.0,-1.0,-1.0,1.0,1.0,0.0,-2.0,-1.0
1701711073.621493,0.0,0.0,-1.0,-2.0,-2.0,-4.0,-2.0,-1.0
1701711073.6315238,-4.0,-5.0,-1.0,-1.0,2.0,0.0,0.0,-3.0
1701711073.6315238,-1.0,-2.0,0.0,-1.0,-1.0,0.0,-2.0,-4.0
1701711073.6415195,-1.0,-1.0,-2.0,-2.0,-2.0,-1.0,-2.0,-1.0
1701711073.6415195,-1.0,-3.0,-5.0,-10.0,3.0,-3.0,-2.0,0.0
1701711073.6516893,0.0,-2.0,-4.0,-12.0,-28.0,-12.0,-3.0,-1.0
1701711073.6516893,4.0,2.0,6.0,28.0,43.0,18.0,5.0,2.0
1701711073.661833,2.0,-2.0,0.0,-1.0,3.0,-1.0,-1.0,0.0
1701711073.661833,0.0,1.0,2.0,3.0,-2.0,-1.0,-1.0,0.0
1701711073.6715388,0.0,1.0,-1.0,-7.0,0.0,-2.0,-1.0,-4.0
1701711073.6715388,-2.0,-5.0,-5.0,-13.0,-15.0,-8.0,-3.0,-2.0
1701711073.6914976,0.0,-1.0,-4.0,1.0,-2.0,0.0,-4.0,0.0
1701711073.6914976,-2.0,0.0,1.0,2.0,6.0,-1.0,0.0,-3.0
1701711073.6914976,2.0,1.0,-1.0,-3.0,0.0,0.0,0.0,1.0
1701711073.6914976,0.0,2.0,-4.0,-6.0,-10.0,-4.0,-3.0,-1.0
1701711073.7015805,-2.0,0.0,3.0,2.0,4.0,0.0,1.0,-2.0
1701711073.7015805,2.0,0.0,-1.0,-3.0,-13.0,-3.0,1.0,1.0
1701711073.7119105,-2.0,-2.0,-1.0,1.0,8.0,1.0,1.0,-2.0
1701711073.7119105,-1.0,1.0,-1.0,-1.0,-7.0,-2.0,-2.0,-2.0
1701711073.7219431,-1.0,0.0,-2.0,-6.0,-7.0,-3.0,-1.0,-2.0
1701711073.7219431,0.0,1.0,-1.0,0.0,-1.0,-2.0,0.0,0.0
1701711073.7315934,-2.0,-2.0,-3.0,4.0,5.0,0.0,-1.0,-1.0
1701711073.7315934,-3.0,-2.0,0.0,-5.0,-4.0,-3.0,-2.0,-1.0
1701711073.7519457,-3.0,-3.0,2.0,-1.0,-2.0,-2.0,-1.0,-1.0
1701711073.7519457,-2.0,-3.0,0.0,0.0,-6.0,2.0,0.0,-1.0
1701711073.7519457,3.0,0.0,0.0,9.0,16.0,3.0,-2.0,0.0
1701711073.7519457,0.0,-1.0,-2.0,-7.0,-8.0,-5.0,-3.0,0.0
1701711073.7616236,0.0,-2.0,-3.0,0.0,0.0,-1.0,-3.0,1.0
1701711073.7616236,-4.0,-5.0,-1.0,-1.0,2.0,1.0,0.0,-3.0
1701711073.7719226,0.0,-2.0,1.0,-3.0,-5.0,-4.0,-3.0,-3.0
1701711073.7719226,-1.0,-1.0,-6.0,-5.0,-2.0,-1.0,-1.0,0.0
1701711073.781913,-1.0,1.0,0.0,0.0,0.0,0.0,0.0,-2.0
1701711073.781913,1.0,-1.0,-1.0,0.0,2.0,1.0,1.0,0.0
1701711073.791594,-2.0,0.0,0.0,-2.0,-3.0,-2.0,-2.0,1.0
1701711073.791594,-2.0,1.0,0.0,-2.0,-4.0,-3.0,0.0,-2.0
1701711073.8119438,-3.0,-2.0,0.0,0.0,-1.0,1.0,0.0,-2.0
1701711073.8119438,-5.0,-1.0,0.0,0.0,0.0,-2.0,-2.0,-3.0
1701711073.8119438,-4.0,-1.0,0.0,2.0,-2.0,2.0,2.0,0.0
1701711073.8119438,-2.0,0.0,2.0,-1.0,-5.0,-2.0,0.0,-2.0
1701711073.821934,-2.0,1.0,-1.0,-4.0,-4.0,-1.0,0.0,1.0
1701711073.821934,-5.0,-1.0,1.0,5.0,3.0,1.0,-1.0,-4.0
1701711073.831939,-3.0,0.0,0.0,0.0,2.0,0.0,-1.0,-2.0
1701711073.831939,-5.0,-1.0,0.0,-1.0,-4.0,-2.0,-2.0,-2.0
1701711073.841933,-2.0,0.0,-1.0,-1.0,-1.0,-1.0,1.0,-1.0
1701711073.841933,-2.0,1.0,2.0,-2.0,-1.0,0.0,-3.0,1.0
1701711073.8515937,0.0,1.0,-1.0,-1.0,-3.0,-1.0,-2.0,-1.0
1701711073.8515937,-3.0,-2.0,0.0,0.0,2.0,2.0,0.0,-1.0
1701711073.8719347,0.0,1.0,1.0,0.0,0.0,1.0,-1.0,-4.0
1701711073.8719347,-1.0,0.0,-2.0,-1.0,-2.0,0.0,-1.0,0.0
1701711073.8719347,0.0,-1.0,-2.0,-3.0,-1.0,0.0,-2.0,-1.0
1701711073.8719347,2.0,-2.0,-1.0,-2.0,-1.0,-2.0,-2.0,2.0
1701711073.8818383,2.0,-4.0,-3.0,-1.0,2.0,0.0,0.0,1.0
1701711073.8818383,1.0,-3.0,-1.0,-2.0,2.0,-4.0,-3.0,-3.0
1701711073.891632,4.0,-3.0,-1.0,-1.0,1.0,-1.0,-2.0,-1.0
1701711073.891632,4.0,-7.0,-4.0,-2.0,3.0,-1.0,-1.0,2.0
1701711073.9015925,7.0,-6.0,0.0,0.0,3.0,-3.0,-4.0,5.0
1701711073.9015925,10.0,-5.0,-2.0,-2.0,4.0,-3.0,-4.0,3.0
1701711073.9115903,7.0,-7.0,-4.0,-3.0,5.0,-2.0,-2.0,3.0
1701711073.9115903,7.0,-3.0,-2.0,2.0,6.0,-2.0,-2.0,-1.0
1701711073.931883,3.0,-2.0,-1.0,0.0,1.0,-1.0,-2.0,-3.0
1701711073.931883,2.0,-1.0,-2.0,-1.0,-1.0,-1.0,1.0,0.0
1701711073.931883,0.0,0.0,0.0,-2.0,-2.0,-1.0,-1.0,-1.0
1701711073.931883,-1.0,1.0,-1.0,-3.0,-3.0,-3.0,1.0,-2.0
1701711073.9419408,-3.0,0.0,-2.0,-1.0,-3.0,-1.0,2.0,-5.0
1701711073.9419408,0.0,-1.0,1.0,-1.0,-2.0,-1.0,-3.0,-3.0
1701711073.9517033,5.0,-2.0,-3.0,-1.0,0.0,-2.0,-8.0,0.0
1701711073.9517033,9.0,-5.0,-1.0,-2.0,0.0,-3.0,-11.0,3.0
1701711073.9616349,8.0,-4.0,-2.0,-1.0,1.0,-3.0,-5.0,3.0
1701711073.9616349,2.0,-3.0,-3.0,-3.0,0.0,2.0,2.0,7.0
1701711073.971702,-3.0,0.0,1.0,0.0,-2.0,-2.0,6.0,3.0
1701711073.971702,-6.0,3.0,1.0,0.0,-2.0,-3.0,4.0,-1.0
1701711073.9920495,-7.0,1.0,-3.0,-3.0,-4.0,-3.0,2.0,0.0
1701711073.9920495,-7.0,2.0,0.0,-2.0,-4.0,-2.0,5.0,-1.0
1701711073.9920495,-6.0,2.0,-2.0,0.0,-6.0,-3.0,4.0,-2.0
1701711073.9920495,-9.0,3.0,0.0,-1.0,-3.0,-1.0,5.0,-2.0
1701711074.0019932,-8.0,4.0,2.0,-1.0,-5.0,-2.0,2.0,-8.0
1701711074.0019932,-9.0,4.0,0.0,-1.0,-3.0,-1.0,4.0,-8.0
1701711074.0117211,-11.0,2.0,3.0,1.0,-6.0,-2.0,3.0,-10.0
1701711074.0117211,-10.0,3.0,-4.0,-4.0,-8.0,-3.0,0.0,-9.0
1701711074.03166,-9.0,3.0,-1.0,0.0,-5.0,-1.0,0.0,-5.0
1701711074.03166,-6.0,3.0,-2.0,1.0,-5.0,-2.0,1.0,-6.0
1701711074.03166,-7.0,2.0,3.0,0.0,-2.0,-1.0,-1.0,-4.0
1701711074.03166,-4.0,2.0,1.0,2.0,-4.0,0.0,1.0,-4.0
1701711074.0520175,-6.0,0.0,0.0,1.0,-2.0,1.0,-4.0,0.0
1701711074.0520175,-4.0,-3.0,-2.0,0.0,-2.0,1.0,-3.0,0.0
1701711074.0520175,-2.0,1.0,1.0,0.0,0.0,0.0,-3.0,0.0
1701711074.0520175,-2.0,-1.0,0.0,-2.0,1.0,1.0,-4.0,0.0
1701711074.062326,1.0,-3.0,0.0,-1.0,1.0,2.0,-3.0,2.0
1701711074.062326,1.0,-2.0,-1.0,0.0,1.0,0.0,-4.0,0.0
1701711074.0722096,0.0,-4.0,-2.0,-1.0,3.0,1.0,-2.0,1.0
1701711074.0722096,1.0,-4.0,-1.0,-1.0,-1.0,1.0,-3.0,2.0
1701711074.092035,2.0,-3.0,0.0,1.0,1.0,0.0,-2.0,-1.0
1701711074.092035,2.0,-4.0,-8.0,-6.0,1.0,0.0,-3.0,2.0
1701711074.092035,3.0,-3.0,-2.0,-3.0,1.0,0.0,-1.0,0.0
1701711074.092035,0.0,-2.0,-3.0,-2.0,2.0,-1.0,-2.0,1.0
1701711074.1124482,2.0,-2.0,0.0,0.0,1.0,-1.0,0.0,1.0
1701711074.1124482,0.0,-1.0,2.0,0.0,1.0,-2.0,-2.0,0.0
1701711074.1124482,0.0,-2.0,-3.0,-1.0,0.0,0.0,-3.0,0.0
1701711074.1124482,0.0,-3.0,-2.0,0.0,0.0,0.0,-3.0,-1.0
1701711074.132891,1.0,-2.0,-3.0,0.0,2.0,0.0,-1.0,-1.0
1701711074.132891,1.0,-2.0,1.0,0.0,1.0,-1.0,-1.0,-1.0
1701711074.1348913,1.0,-3.0,-2.0,-1.0,-1.0,-1.0,0.0,1.0
1701711074.1348913,2.0,-2.0,0.0,-1.0,0.0,-2.0,1.0,-1.0
1701711074.1512792,3.0,-1.0,-2.0,-5.0,1.0,-1.0,1.0,0.0
1701711074.1512792,0.0,-1.0,0.0,0.0,0.0,-1.0,0.0,-1.0
1701711074.1522884,-3.0,-2.0,-1.0,-2.0,-1.0,-2.0,0.0,0.0
1701711074.1522884,-2.0,-1.0,1.0,-1.0,-2.0,-1.0,-2.0,2.0
1701711074.1742291,-2.0,-1.0,-3.0,-1.0,-2.0,-3.0,-2.0,-2.0
1701711074.1742291,0.0,-2.0,-1.0,-1.0,-2.0,-2.0,-2.0,0.0
1701711074.1742291,1.0,0.0,1.0,-2.0,-1.0,-1.0,-3.0,-2.0
1701711074.1742291,-1.0,-1.0,1.0,0.0,0.0,0.0,0.0,-1.0
1701711074.1842282,-1.0,-1.0,-1.0,0.0,-1.0,-4.0,1.0,0.0
1701711074.1842282,0.0,0.0,1.0,2.0,0.0,-3.0,-1.0,-2.0
1701711074.1942618,-3.0,-2.0,-2.0,-2.0,-1.0,0.0,0.0,-2.0
1701711074.1942618,1.0,1.0,0.0,-1.0,-1.0,-8.0,-6.0,-1.0
1701711074.2046375,-2.0,2.0,2.0,1.0,0.0,2.0,1.0,-3.0
1701711074.2046375,-2.0,-2.0,-6.0,-6.0,-3.0,-3.0,-7.0,-1.0
1701711074.2146,0.0,0.0,0.0,2.0,2.0,5.0,6.0,0.0
1701711074.2146,-1.0,-2.0,-2.0,-1.0,-2.0,1.0,0.0,-2.0
1701711074.2246447,-1.0,1.0,1.0,-2.0,-2.0,-6.0,-2.0,-2.0
1701711074.2246447,-2.0,0.0,0.0,0.0,-3.0,-8.0,-6.0,-3.0
1701711074.2342303,1.0,0.0,0.0,0.0,1.0,15.0,11.0,2.0
1701711074.2342303,0.0,-2.0,-1.0,-2.0,-1.0,3.0,0.0,-2.0
1701711074.2442315,0.0,-3.0,-2.0,-1.0,1.0,1.0,-2.0,0.0
1701711074.2442315,0.0,-2.0,-2.0,-1.0,-1.0,1.0,3.0,-1.0
1701711074.2542262,-1.0,-3.0,-2.0,-4.0,0.0,-8.0,-9.0,-1.0
1701711074.2542262,-1.0,-3.0,-1.0,0.0,0.0,-2.0,2.0,-2.0
1701711074.264503,1.0,0.0,-1.0,-3.0,-2.0,1.0,-1.0,-1.0
1701711074.264503,1.0,2.0,1.0,0.0,2.0,0.0,0.0,0.0
1701711074.264503,0.0,-1.0,-1.0,-1.0,-1.0,-5.0,-4.0,-2.0
1701711074.264503,-1.0,0.0,-2.0,-1.0,-2.0,2.0,0.0,1.0
1701711074.2845335,0.0,-3.0,-1.0,0.0,-2.0,-5.0,-4.0,-2.0
1701711074.2845335,-1.0,-2.0,0.0,-1.0,0.0,-3.0,-1.0,0.0
1701711074.2944524,-1.0,2.0,-1.0,0.0,-1.0,1.0,-1.0,-1.0
1701711074.2944524,-2.0,1.0,-1.0,-1.0,-1.0,5.0,4.0,1.0
1701711074.3242311,-4.0,-2.0,-1.0,-1.0,-2.0,1.0,0.0,-1.0
1701711074.3242311,-3.0,0.0,0.0,2.0,-1.0,-2.0,0.0,-2.0
1701711074.3242311,-2.0,-1.0,-2.0,-2.0,-4.0,-4.0,-1.0,-2.0
1701711074.3242311,-4.0,0.0,-1.0,-1.0,-3.0,-3.0,-1.0,-3.0
1701711074.3242311,-4.0,0.0,0.0,-1.0,0.0,1.0,0.0,0.0
1701711074.3242311,-4.0,2.0,-1.0,-1.0,-3.0,2.0,3.0,-2.0
1701711074.3242311,-4.0,-1.0,1.0,-1.0,-2.0,-4.0,-1.0,-3.0
1701711074.3242311,-3.0,0.0,-1.0,0.0,-2.0,0.0,-2.0,-2.0
1701711074.3542268,-2.0,-1.0,-1.0,-1.0,-3.0,-2.0,-1.0,0.0
1701711074.3542268,-2.0,-2.0,0.0,-1.0,-1.0,0.0,-2.0,1.0
1701711074.3542268,-2.0,-2.0,0.0,2.0,-1.0,-2.0,-2.0,1.0
1701711074.3542268,1.0,0.0,-1.0,-1.0,1.0,-4.0,-1.0,5.0
1701711074.3644795,0.0,-3.0,-2.0,-1.0,-1.0,0.0,-1.0,5.0
1701711074.3644795,1.0,-3.0,-2.0,0.0,0.0,3.0,1.0,3.0
1701711074.374386,3.0,-2.0,-2.0,-1.0,0.0,-2.0,-5.0,-1.0
1701711074.374386,5.0,-4.0,1.0,-1.0,2.0,1.0,-3.0,-6.0
1701711074.3844426,5.0,-5.0,-3.0,0.0,1.0,-1.0,-4.0,-7.0
1701711074.3844426,6.0,-4.0,0.0,-1.0,1.0,1.0,-1.0,-5.0
1701711074.3844426,5.0,-4.0,-1.0,-2.0,0.0,-1.0,-2.0,-2.0
1701711074.3844426,1.0,-1.0,0.0,-1.0,-1.0,-3.0,-1.0,3.0
1701711074.4045358,0.0,-2.0,-2.0,-1.0,-1.0,0.0,1.0,5.0
1701711074.4045358,-2.0,-2.0,-1.0,-2.0,-2.0,-1.0,0.0,6.0
1701711074.414229,-2.0,0.0,-1.0,-1.0,-1.0,-1.0,0.0,4.0
1701711074.414229,-2.0,-3.0,-1.0,-2.0,0.0,1.0,0.0,6.0
1701711074.42455,0.0,0.0,-1.0,-1.0,0.0,-2.0,-1.0,6.0
1701711074.42455,0.0,-2.0,-1.0,0.0,1.0,0.0,0.0,4.0
1701711074.444227,1.0,-1.0,0.0,-3.0,0.0,-3.0,-4.0,-5.0
1701711074.444227,-1.0,-2.0,-3.0,-2.0,-1.0,-2.0,-1.0,-12.0
1701711074.444227,0.0,-3.0,-1.0,-1.0,0.0,-3.0,-4.0,-15.0
1701711074.444227,1.0,-1.0,-1.0,-2.0,0.0,-1.0,-1.0,-14.0
1701711074.4542627,0.0,0.0,0.0,0.0,-2.0,0.0,0.0,-11.0
1701711074.4542627,-1.0,0.0,-2.0,0.0,-2.0,-2.0,0.0,-14.0
1701711074.4742277,-2.0,0.0,-2.0,-3.0,-2.0,-2.0,0.0,-17.0
1701711074.4742277,-4.0,0.0,-1.0,-2.0,-5.0,-2.0,-1.0,-13.0
1701711074.4742277,-7.0,4.0,-2.0,-1.0,-6.0,-2.0,10.0,-6.0
1701711074.4742277,-15.0,7.0,2.0,1.0,-6.0,2.0,16.0,0.0
1701711074.484473,-15.0,9.0,1.0,1.0,-10.0,-2.0,5.0,-9.0
1701711074.484473,-13.0,5.0,1.0,1.0,-6.0,-1.0,9.0,3.0
1701711074.4945223,-14.0,4.0,0.0,0.0,-7.0,3.0,20.0,6.0
1701711074.4945223,-17.0,7.0,1.0,1.0,-10.0,2.0,22.0,7.0
1701711074.5045424,-20.0,10.0,1.0,1.0,-10.0,3.0,-7.0,13.0
1701711074.5045424,-7.0,3.0,-1.0,3.0,-3.0,1.0,-55.0,18.0
1701711074.5144844,11.0,-9.0,-3.0,1.0,3.0,1.0,-96.0,21.0
1701711074.5144844,26.0,-17.0,-5.0,3.0,10.0,-3.0,-107.0,21.0
1701711074.5542262,31.0,-19.0,-8.0,-3.0,16.0,-3.0,-59.0,13.0
1701711074.5542262,25.0,-14.0,-4.0,-5.0,12.0,-8.0,-5.0,6.0
1701711074.5542262,20.0,-11.0,-4.0,-4.0,10.0,-12.0,29.0,2.0
1701711074.5542262,9.0,-7.0,-5.0,-7.0,4.0,-15.0,46.0,-8.0
1701711074.5542262,8.0,-5.0,-1.0,-2.0,3.0,-6.0,60.0,-1.0
1701711074.5542262,6.0,-1.0,-1.0,-1.0,1.0,4.0,75.0,-4.0
1701711074.5542262,3.0,-2.0,-1.0,-4.0,-1.0,1.0,59.0,-6.0
1701711074.5542262,4.0,-3.0,-1.0,0.0,1.0,6.0,37.0,-4.0
1701711074.5645032,4.0,-2.0,-3.0,-3.0,-1.0,4.0,9.0,-3.0
1701711074.5645032,1.0,-2.0,0.0,-2.0,-1.0,2.0,-2.0,-4.0
1701711074.574233,-3.0,0.0,-1.0,-1.0,-3.0,3.0,-11.0,-4.0
1701711074.574233,-3.0,1.0,-2.0,0.0,-5.0,0.0,-19.0,-6.0
1701711074.594226,-6.0,0.0,0.0,0.0,-2.0,1.0,-15.0,0.0
1701711074.594226,-5.0,2.0,-1.0,-1.0,-4.0,0.0,-13.0,-5.0
1701711074.594226,-10.0,5.0,3.0,1.0,-6.0,-1.0,-11.0,-7.0
1701711074.594226,-11.0,6.0,1.0,-1.0,-7.0,-2.0,-7.0,-4.0
1701711074.6045024,-10.0,6.0,1.0,1.0,-7.0,-1.0,-1.0,-4.0
1701711074.6045024,-15.0,5.0,0.0,-1.0,-8.0,-2.0,-1.0,-7.0
1701711074.6145277,-17.0,7.0,2.0,1.0,-8.0,-4.0,-4.0,-6.0
1701711074.6145277,-12.0,4.0,1.0,-1.0,-6.0,-4.0,1.0,-6.0
1701711074.624542,-12.0,4.0,2.0,1.0,-5.0,0.0,2.0,-4.0
1701711074.624542,-10.0,4.0,0.0,1.0,-5.0,-3.0,-3.0,-6.0
1701711074.6542306,-8.0,2.0,0.0,0.0,-2.0,0.0,-2.0,-4.0
1701711074.6542306,-4.0,1.0,0.0,1.0,-1.0,0.0,-1.0,0.0
1701711074.6542306,-6.0,-2.0,-2.0,0.0,-4.0,0.0,1.0,-1.0
1701711074.6542306,-4.0,-2.0,0.0,-1.0,-2.0,-1.0,-7.0,-1.0
1701711074.6542306,-3.0,-1.0,-2.0,0.0,1.0,3.0,1.0,0.0
1701711074.6542306,1.0,-3.0,-3.0,-6.0,-3.0,1.0,-1.0,-1.0
1701711074.675629,0.0,-3.0,0.0,5.0,4.0,2.0,0.0,1.0
1701711074.6766493,1.0,-4.0,-3.0,-2.0,3.0,2.0,-2.0,1.0
1701711074.677645,1.0,-1.0,-1.0,-4.0,-5.0,0.0,-1.0,-1.0
1701711074.677645,1.0,-4.0,0.0,2.0,1.0,-1.0,-2.0,0.0
1701711074.6872497,2.0,-5.0,-4.0,-6.0,-5.0,0.0,-3.0,0.0
1701711074.6872497,1.0,-2.0,-3.0,0.0,6.0,-2.0,-3.0,2.0
1701711074.70725,3.0,-2.0,-3.0,-2.0,0.0,1.0,-1.0,0.0
1701711074.70725,-1.0,-3.0,-1.0,-7.0,-7.0,-2.0,-4.0,-1.0
1701711074.717247,2.0,-1.0,2.0,5.0,12.0,1.0,-2.0,2.0
1701711074.717247,2.0,-2.0,0.0,-1.0,-2.0,0.0,-1.0,0.0
1701711074.717247,2.0,-3.0,-5.0,-5.0,-3.0,-2.0,-3.0,2.0
1701711074.717247,2.0,-1.0,-3.0,-2.0,5.0,0.0,-3.0,0.0
1701711074.7275612,1.0,-3.0,-1.0,-6.0,-7.0,-2.0,-1.0,1.0
1701711074.7275612,1.0,-3.0,-1.0,-3.0,-2.0,0.0,-4.0,1.0
1701711074.7372658,0.0,0.0,-2.0,0.0,4.0,-2.0,-2.0,-2.0
1701711074.7372658,-1.0,-2.0,0.0,-1.0,2.0,0.0,-1.0,0.0
1701711074.7472494,0.0,0.0,-2.0,-1.0,1.0,-1.0,-2.0,-2.0
1701711074.7472494,0.0,-3.0,-3.0,-1.0,2.0,1.0,2.0,1.0
1701711074.7572603,0.0,-3.0,0.0,1.0,-2.0,-1.0,-1.0,-1.0
1701711074.7572603,0.0,0.0,0.0,-1.0,0.0,0.0,0.0,0.0
1701711074.7672513,1.0,-2.0,-1.0,0.0,-4.0,-1.0,-2.0,0.0
1701711074.7672513,-1.0,-1.0,-1.0,-2.0,-4.0,-2.0,-2.0,-2.0
1701711074.7672513,-1.0,-2.0,-2.0,-1.0,3.0,1.0,-1.0,-1.0
1701711074.7672513,-1.0,-1.0,0.0,-1.0,-1.0,-1.0,-1.0,0.0
1701711074.7876163,-1.0,-2.0,-2.0,-4.0,0.0,0.0,-1.0,0.0
1701711074.7876163,1.0,-1.0,-2.0,-2.0,-3.0,0.0,-2.0,-1.0
1701711074.7972505,0.0,0.0,0.0,-1.0,0.0,-3.0,-1.0,-1.0
1701711074.7972505,0.0,-1.0,1.0,1.0,-5.0,-4.0,-3.0,-3.0
1701711074.8072562,0.0,1.0,-1.0,3.0,6.0,2.0,0.0,0.0
1701711074.8072562,0.0,1.0,1.0,4.0,-3.0,1.0,2.0,0.0
1701711074.817463,-2.0,-1.0,-1.0,1.0,2.0,0.0,-2.0,-2.0
1701711074.817463,-2.0,1.0,-1.0,-1.0,-1.0,-2.0,1.0,0.0
1701711074.827577,-3.0,-1.0,1.0,-6.0,-9.0,-5.0,-2.0,-2.0
1701711074.827577,0.0,-1.0,0.0,4.0,2.0,0.0,0.0,-1.0
1701711074.827577,1.0,-2.0,1.0,-1.0,0.0,-2.0,-2.0,0.0
1701711074.827577,1.0,-1.0,-5.0,-2.0,0.0,0.0,1.0,0.0
1701711074.8475802,0.0,-1.0,0.0,-2.0,-2.0,1.0,0.0,0.0
1701711074.8475802,-1.0,-2.0,-1.0,-3.0,-3.0,-3.0,0.0,-1.0
1701711074.8572667,-1.0,-2.0,2.0,0.0,-2.0,0.0,-1.0,-2.0
1701711074.8572667,0.0,-2.0,-5.0,-4.0,-1.0,-2.0,-3.0,-1.0
1701711074.877255,-1.0,-2.0,-1.0,-2.0,-4.0,-2.0,-1.0,-1.0
1701711074.877255,-1.0,-1.0,-1.0,1.0,5.0,0.0,-1.0,-2.0
1701711074.877255,0.0,-1.0,0.0,-1.0,-1.0,0.0,0.0,-1.0
1701711074.877255,1.0,-1.0,1.0,1.0,-5.0,1.0,1.0,1.0
1701711074.8872788,-1.0,0.0,-1.0,-1.0,-1.0,-1.0,-1.0,-1.0
1701711074.8872788,0.0,-2.0,-1.0,-6.0,-3.0,-2.0,-2.0,-1.0
1701711074.8872788,-1.0,-1.0,-2.0,-4.0,-3.0,-2.0,0.0,-1.0
1701711074.8872788,-2.0,-3.0,0.0,2.0,2.0,0.0,-1.0,-1.0
1701711074.9073741,1.0,-2.0,-2.0,-2.0,-3.0,-3.0,-1.0,-2.0
1701711074.9073741,0.0,-1.0,-3.0,-1.0,2.0,1.0,0.0,0.0
1701711074.9272494,0.0,0.0,-1.0,-1.0,-1.0,-1.0,-1.0,0.0
1701711074.9272494,-1.0,-1.0,0.0,0.0,-2.0,-1.0,-2.0,0.0
1701711074.9272494,-1.0,1.0,0.0,0.0,6.0,1.0,-1.0,0.0
1701711074.9272494,-3.0,0.0,-1.0,-2.0,0.0,-2.0,-3.0,-3.0
1701711074.9375186,-2.0,-2.0,-6.0,-6.0,-3.0,-1.0,1.0,0.0
1701711074.9375186,0.0,0.0,0.0,3.0,1.0,1.0,0.0,0.0
1701711074.9475503,-2.0,-2.0,-2.0,-2.0,-2.0,-2.0,-1.0,-3.0
1701711074.9475503,-2.0,0.0,-1.0,-1.0,-4.0,0.0,-1.0,-1.0
1701711074.9475503,0.0,-1.0,3.0,-1.0,-5.0,0.0,0.0,0.0
1701711074.9475503,-1.0,0.0,-1.0,-4.0,-7.0,-4.0,0.0,-2.0
1701711074.9775429,-2.0,-1.0,1.0,1.0,-1.0,-1.0,0.0,-3.0
1701711074.9775429,-2.0,-2.0,-2.0,0.0,3.0,-1.0,-1.0,-1.0
1701711074.9775429,-3.0,-2.0,-2.0,1.0,5.0,-2.0,1.0,-4.0
1701711074.9775429,-2.0,0.0,0.0,-2.0,0.0,-1.0,-3.0,-1.0
1701711074.9972746,-1.0,0.0,0.0,-1.0,-3.0,-2.0,-2.0,0.0
