1701711490.196681,-10.0,-4.0,6.0,28.0,25.0,3.0,1.0,-11.0
1701711490.196681,12.0,4.0,13.0,11.0,-6.0,-6.0,-5.0,10.0
1701711490.2066834,-2.0,-2.0,-18.0,-17.0,-13.0,-4.0,0.0,7.0
1701711490.2066834,3.0,-4.0,-4.0,9.0,9.0,1.0,-1.0,0.0
1701711490.226721,-11.0,2.0,13.0,-59.0,-29.0,-12.0,-9.0,-8.0
1701711490.226721,-10.0,-9.0,-1.0,31.0,-1.0,6.0,4.0,-6.0
1701711490.226721,9.0,2.0,9.0,7.0,5.0,-1.0,0.0,2.0
1701711490.226721,-1.0,-7.0,-25.0,-10.0,-8.0,-8.0,-3.0,1.0
1701711490.246687,6.0,-2.0,-5.0,-1.0,-2.0,-4.0,-1.0,2.0
1701711490.246687,-2.0,0.0,-41.0,-29.0,-2.0,5.0,0.0,-3.0
1701711490.246687,-5.0,1.0,21.0,13.0,6.0,-4.0,-4.0,-5.0
1701711490.246687,0.0,6.0,0.0,31.0,24.0,11.0,13.0,0.0
1701711490.2567012,1.0,-8.0,-8.0,11.0,-7.0,-4.0,-2.0,2.0
1701711490.2567012,1.0,7.0,4.0,-19.0,9.0,-3.0,-12.0,1.0
1701711490.2766824,-7.0,-11.0,-21.0,-31.0,-40.0,-10.0,-6.0,-10.0
1701711490.2766824,8.0,15.0,86.0,15.0,1.0,-5.0,-4.0,-2.0
1701711490.2867942,0.0,-2.0,-107.0,23.0,19.0,13.0,14.0,14.0
1701711490.2867942,-5.0,-9.0,16.0,-25.0,-14.0,2.0,18.0,-4.0
1701711490.2867942,-4.0,-3.0,-6.0,38.0,31.0,-3.0,-27.0,-3.0
1701711490.2867942,3.0,2.0,-15.0,-48.0,-23.0,-10.0,3.0,5.0
1701711490.306819,-7.0,13.0,127.0,41.0,4.0,2.0,-12.0,-11.0
1701711490.306819,4.0,-7.0,-42.0,16.0,18.0,1.0,4.0,-5.0
1701711490.306819,-17.0,-10.0,-35.0,-38.0,-22.0,-7.0,-2.0,-4.0
1701711490.306819,-6.0,-8.0,-35.0,62.0,20.0,8.0,17.0,-17.0
1701711490.3168333,16.0,9.0,75.0,-60.0,-22.0,-8.0,-9.0,36.0
1701711490.3168333,-3.0,-6.0,21.0,51.0,9.0,1.0,2.0,-6.0
1701711490.3366868,1.0,2.0,15.0,-34.0,8.0,0.0,11.0,3.0
1701711490.3366868,-1.0,-5.0,-38.0,-41.0,-17.0,10.0,-26.0,-12.0
1701711490.3467224,2.0,-9.0,19.0,-2.0,-7.0,-10.0,10.0,-5.0
1701711490.3467224,3.0,-17.0,-39.0,45.0,12.0,-2.0,3.0,8.0
1701711490.3467224,-4.0,-2.0,6.0,-14.0,-6.0,-1.0,8.0,-1.0
1701711490.3467224,-1.0,-6.0,8.0,-61.0,-1.0,-2.0,2.0,-3.0
1701711490.367077,-12.0,-13.0,-105.0,0.0,-11.0,-3.0,-15.0,-18.0
1701711490.367077,22.0,25.0,8.0,-45.0,2.0,6.0,-2.0,24.0
1701711490.367077,2.0,-3.0,-12.0,40.0,9.0,4.0,18.0,-3.0
1701711490.367077,-5.0,1.0,35.0,21.0,-6.0,-38.0,-24.0,-2.0
1701711490.3770235,15.0,9.0,-4.0,27.0,29.0,49.0,25.0,14.0
1701711490.3770235,-1.0,2.0,-14.0,-78.0,-17.0,-2.0,-5.0,-8.0
1701711490.3966827,-15.0,-31.0,-81.0,-10.0,-21.0,-7.0,-8.0,-5.0
1701711490.3966827,-1.0,7.0,24.0,-44.0,-10.0,8.0,11.0,3.0
1701711490.4069028,-7.0,-8.0,-32.0,-1.0,10.0,-16.0,-4.0,-12.0
1701711490.4069028,-12.0,6.0,7.0,105.0,25.0,-8.0,-23.0,-22.0
1701711490.4069028,3.0,2.0,32.0,-63.0,-42.0,4.0,9.0,-6.0
1701711490.4069028,-3.0,-10.0,3.0,47.0,15.0,-5.0,-6.0,9.0
1701711490.4269133,-3.0,1.0,-29.0,-63.0,-41.0,-24.0,-6.0,-10.0
1701711490.4269133,-2.0,-9.0,3.0,-55.0,47.0,24.0,-14.0,-1.0
1701711490.4269133,1.0,-6.0,20.0,117.0,22.0,-19.0,-20.0,-14.0
1701711490.4269133,13.0,-1.0,0.0,-37.0,6.0,7.0,42.0,40.0
1701711490.4369023,2.0,-9.0,-12.0,62.0,-12.0,1.0,-3.0,0.0
1701711490.4369023,-10.0,-4.0,11.0,-57.0,-44.0,-3.0,-9.0,-13.0
1701711490.4468818,0.0,21.0,41.0,48.0,29.0,4.0,-1.0,-7.0
1701711490.4468818,-13.0,-15.0,-100.0,22.0,4.0,2.0,-4.0,-7.0
1701711490.486708,10.0,12.0,55.0,12.0,-17.0,-7.0,36.0,19.0
1701711490.486708,-2.0,-3.0,-18.0,-109.0,-46.0,-26.0,-13.0,-5.0
1701711490.486708,-2.0,-2.0,-14.0,23.0,16.0,7.0,-1.0,-2.0
1701711490.486708,-2.0,-4.0,2.0,-31.0,-44.0,-2.0,-13.0,-11.0
1701711490.486708,6.0,13.0,19.0,17.0,51.0,13.0,3.0,6.0
1701711490.486708,-8.0,-9.0,-11.0,127.0,-6.0,-14.0,10.0,-3.0
1701711490.486708,13.0,23.0,32.0,-69.0,47.0,24.0,8.0,1.0
1701711490.486708,3.0,8.0,3.0,44.0,-20.0,-10.0,-4.0,22.0
1701711490.4967191,-12.0,-10.0,15.0,-50.0,-18.0,-13.0,-23.0,-20.0
1701711490.4967191,0.0,6.0,11.0,-16.0,-19.0,0.0,9.0,-2.0
1701711490.5070863,-2.0,-1.0,-14.0,20.0,43.0,10.0,3.0,14.0
1701711490.5070863,1.0,5.0,22.0,-6.0,-6.0,8.0,-3.0,-8.0
1701711490.5267212,-9.0,-5.0,-15.0,61.0,26.0,2.0,1.0,-9.0
1701711490.5267212,13.0,13.0,16.0,-38.0,-15.0,4.0,19.0,15.0
1701711490.5267212,4.0,-8.0,-9.0,-48.0,-42.0,-21.0,-11.0,6.0
1701711490.5267212,-12.0,-8.0,4.0,3.0,23.0,13.0,-5.0,-19.0
1701711490.5471616,6.0,-4.0,2.0,66.0,14.0,4.0,-3.0,14.0
1701711490.5471616,-10.0,-8.0,13.0,-40.0,9.0,-3.0,-7.0,-23.0
1701711490.5471616,2.0,2.0,25.0,2.0,-9.0,24.0,22.0,15.0
1701711490.5471616,7.0,9.0,-15.0,-14.0,15.0,-1.0,-6.0,-4.0
1701711490.5567226,3.0,-9.0,10.0,82.0,21.0,8.0,-11.0,-1.0
1701711490.5567226,-3.0,10.0,20.0,-26.0,-2.0,-9.0,3.0,6.0
1701711490.5667195,-3.0,-1.0,4.0,-32.0,-9.0,-12.0,-10.0,-1.0
1701711490.5667195,-16.0,2.0,4.0,37.0,-14.0,-10.0,1.0,-10.0
1701711490.5867212,-7.0,4.0,-23.0,-92.0,-17.0,-4.0,0.0,-25.0
1701711490.5867212,9.0,-12.0,5.0,97.0,22.0,9.0,-8.0,27.0
1701711490.5867212,4.0,-5.0,3.0,31.0,-6.0,-10.0,0.0,-4.0
1701711490.5867212,-1.0,2.0,-10.0,3.0,11.0,-2.0,-4.0,12.0
1701711490.6071641,-1.0,5.0,-37.0,-62.0,-19.0,-1.0,1.0,-20.0
1701711490.6071641,-2.0,-3.0,25.0,37.0,18.0,1.0,8.0,2.0
1701711490.6071641,-22.0,-13.0,-21.0,-19.0,-26.0,-15.0,-32.0,-26.0
1701711490.6071641,4.0,-7.0,-25.0,8.0,30.0,10.0,1.0,0.0
1701711490.6167233,-6.0,-4.0,-4.0,-58.0,-24.0,1.0,9.0,1.0
1701711490.6167233,4.0,5.0,-3.0,-19.0,-17.0,15.0,10.0,12.0
1701711490.6267447,-23.0,-16.0,-19.0,-23.0,6.0,-3.0,-14.0,-11.0
1701711490.6267447,15.0,7.0,12.0,28.0,-4.0,-14.0,10.0,11.0
1701711490.637117,6.0,10.0,-3.0,-49.0,-30.0,-12.0,-5.0,12.0
1701711490.637117,-12.0,-7.0,-12.0,7.0,14.0,3.0,1.0,-10.0
1701711490.6467218,17.0,3.0,1.0,17.0,9.0,1.0,5.0,8.0
1701711490.6467218,-10.0,13.0,10.0,-10.0,11.0,1.0,-7.0,-9.0
1701711490.6671689,-2.0,-1.0,27.0,21.0,-2.0,-11.0,-5.0,3.0
1701711490.6671689,-2.0,-4.0,-55.0,-33.0,-36.0,-14.0,-8.0,-3.0
1701711490.6671689,-8.0,-16.0,21.0,27.0,23.0,5.0,0.0,1.0
1701711490.6671689,-2.0,-15.0,19.0,6.0,-6.0,-13.0,-7.0,-8.0
1701711490.68672,10.0,4.0,-12.0,5.0,-4.0,-4.0,-4.0,18.0
1701711490.68672,-15.0,-4.0,-6.0,1.0,1.0,-30.0,-18.0,-39.0
1701711490.68672,7.0,10.0,-9.0,-12.0,-14.0,16.0,-7.0,15.0
1701711490.68672,18.0,-1.0,5.0,4.0,4.0,18.0,27.0,-2.0
1701711490.7072291,4.0,-7.0,26.0,-4.0,12.0,45.0,31.0,22.0
1701711490.7072291,-1.0,2.0,6.0,16.0,18.0,24.0,26.0,-6.0
1701711490.7132518,6.0,6.0,-10.0,-12.0,-15.0,-12.0,-9.0,-1.0
1701711490.7132518,-10.0,0.0,8.0,3.0,-11.0,-8.0,-14.0,-14.0
1701711490.7295368,-14.0,-15.0,-12.0,-28.0,-9.0,-26.0,-21.0,-13.0
1701711490.7295368,6.0,8.0,-4.0,-30.0,-33.0,-10.0,-7.0,12.0
1701711490.730693,5.0,4.0,-6.0,65.0,63.0,22.0,18.0,4.0
1701711490.730693,3.0,-6.0,4.0,-10.0,-26.0,2.0,-5.0,9.0
1701711490.751028,-12.0,-5.0,12.0,60.0,-22.0,-18.0,-12.0,-10.0
1701711490.751028,4.0,16.0,8.0,-5.0,32.0,2.0,-8.0,1.0
1701711490.751028,-9.0,-2.0,-21.0,-74.0,-28.0,-7.0,4.0,-2.0
1701711490.751028,40.0,16.0,-1.0,-14.0,7.0,2.0,4.0,12.0
1701711490.7610874,-6.0,-9.0,40.0,24.0,16.0,3.0,-16.0,-13.0
1701711490.7610874,-11.0,-12.0,-32.0,-3.0,-17.0,-13.0,-3.0,-5.0
1701711490.7710407,-9.0,-4.0,2.0,13.0,-8.0,-1.0,13.0,1.0
1701711490.7710407,-9.0,20.0,23.0,-30.0,1.0,-3.0,-4.0,-8.0
1701711490.7806985,3.0,-19.0,-47.0,-3.0,-12.0,-15.0,-8.0,-5.0
1701711490.7806985,-7.0,-5.0,23.0,-29.0,-16.0,16.0,0.0,-17.0
1701711490.7906945,18.0,8.0,16.0,21.0,-43.0,-19.0,-5.0,14.0
1701711490.7906945,-24.0,-18.0,13.0,15.0,65.0,22.0,6.0,-7.0
1701711490.8111033,1.0,8.0,11.0,45.0,-31.0,-9.0,-3.0,-3.0
1701711490.8111033,-1.0,-3.0,3.0,-15.0,24.0,9.0,3.0,1.0
1701711490.8111033,1.0,-7.0,-30.0,-41.0,-26.0,-16.0,-5.0,-7.0
1701711490.8111033,0.0,5.0,-28.0,-60.0,-44.0,-4.0,-6.0,-2.0
1701711490.8214598,-6.0,-2.0,-8.0,-14.0,16.0,1.0,-2.0,-2.0
1701711490.8214598,-4.0,-2.0,14.0,51.0,20.0,-3.0,-4.0,6.0
1701711490.8314347,18.0,0.0,-15.0,-28.0,-18.0,2.0,23.0,12.0
1701711490.8314347,-6.0,-5.0,-12.0,30.0,-15.0,-17.0,-10.0,3.0
1701711490.8414557,-11.0,-3.0,-5.0,-22.0,16.0,0.0,-19.0,-19.0
1701711490.8414557,5.0,1.0,-3.0,5.0,-12.0,-8.0,1.0,-2.0
1701711490.8511372,-6.0,2.0,8.0,52.0,10.0,-1.0,-13.0,-2.0
1701711490.8511372,-4.0,-5.0,9.0,-22.0,-1.0,4.0,8.0,-5.0
1701711490.8711364,3.0,0.0,-8.0,8.0,1.0,0.0,-2.0,8.0
1701711490.8711364,1.0,0.0,-3.0,-6.0,3.0,4.0,3.0,2.0
1701711490.8711364,-11.0,5.0,17.0,-17.0,-13.0,-10.0,-5.0,-9.0
1701711490.8711364,-1.0,-22.0,-12.0,-35.0,-21.0,1.0,-2.0,3.0
1701711490.8915803,-7.0,10.0,11.0,54.0,29.0,-3.0,-4.0,-8.0
1701711490.8915803,20.0,9.0,-16.0,-38.0,-29.0,0.0,0.0,11.0
1701711490.8915803,-1.0,-2.0,-8.0,-34.0,39.0,14.0,13.0,3.0
1701711490.8915803,-5.0,-1.0,-5.0,66.0,-6.0,-6.0,-10.0,-3.0
1701711490.9111543,3.0,2.0,-14.0,-28.0,8.0,0.0,1.0,0.0
1701711490.9111543,-4.0,-20.0,7.0,19.0,-7.0,-12.0,-6.0,0.0
1701711490.9111543,-8.0,7.0,2.0,-12.0,-9.0,-6.0,-14.0,-10.0
1701711490.9111543,-5.0,3.0,8.0,6.0,17.0,18.0,9.0,-22.0
1701711490.9315922,3.0,-1.0,14.0,17.0,2.0,9.0,18.0,43.0
1701711490.9315922,10.0,0.0,-16.0,2.0,-11.0,2.0,10.0,12.0
1701711490.9315922,-1.0,7.0,7.0,-27.0,-8.0,-1.0,-10.0,4.0
1701711490.9315922,1.0,-4.0,6.0,-12.0,-19.0,-7.0,0.0,-13.0
1701711490.9511368,-16.0,2.0,32.0,22.0,20.0,8.0,2.0,-16.0
1701711490.9511368,10.0,27.0,16.0,31.0,-2.0,-9.0,-6.0,-4.0
1701711490.9511368,1.0,-21.0,-5.0,-11.0,-4.0,13.0,0.0,5.0
1701711490.9511368,0.0,-33.0,-24.0,-24.0,-10.0,-15.0,10.0,20.0
1701711490.961469,3.0,0.0,-14.0,7.0,-9.0,5.0,-1.0,-1.0
1701711490.961469,1.0,10.0,13.0,-6.0,2.0,-8.0,-4.0,5.0
1701711490.9711945,8.0,5.0,-9.0,18.0,-39.0,-6.0,10.0,-1.0
1701711490.9711945,-2.0,9.0,31.0,69.0,68.0,17.0,-7.0,-1.0
1701711490.9915864,-3.0,-14.0,-51.0,-57.0,-25.0,-10.0,0.0,-11.0
1701711490.9915864,-9.0,-1.0,6.0,-32.0,2.0,0.0,-9.0,-4.0
1701711490.9915864,-7.0,-1.0,10.0,24.0,-1.0,-5.0,-7.0,-10.0
1701711490.9915864,3.0,-4.0,-12.0,-39.0,-15.0,-3.0,0.0,3.0
1701711491.0111365,4.0,-2.0,-24.0,-27.0,-8.0,-4.0,-8.0,-7.0
1701711491.0111365,-4.0,-7.0,-5.0,-9.0,14.0,2.0,-1.0,0.0
1701711491.0111365,1.0,5.0,13.0,39.0,4.0,-10.0,-3.0,-6.0
1701711491.0111365,-5.0,0.0,36.0,33.0,-5.0,-16.0,-24.0,-1.0
1701711491.021381,3.0,4.0,-37.0,-41.0,2.0,25.0,24.0,7.0
1701711491.021381,2.0,-10.0,-3.0,28.0,-6.0,-2.0,8.0,7.0
1701711491.0311413,-16.0,-12.0,-32.0,-18.0,4.0,-1.0,2.0,-14.0
1701711491.0311413,6.0,-2.0,17.0,36.0,-7.0,-9.0,-10.0,-11.0
1701711491.0511413,0.0,-5.0,-15.0,-44.0,4.0,-13.0,-7.0,1.0
1701711491.0511413,-9.0,-2.0,22.0,29.0,-13.0,0.0,-8.0,-10.0
1701711491.0511413,5.0,-3.0,-4.0,1.0,11.0,-2.0,-1.0,6.0
1701711491.0511413,-3.0,25.0,-9.0,16.0,6.0,0.0,1.0,2.0
1701711491.0811353,0.0,-16.0,-10.0,2.0,-30.0,-18.0,-11.0,-7.0
1701711491.0811353,-4.0,-3.0,3.0,37.0,22.0,8.0,4.0,4.0
1701711491.0811353,5.0,8.0,-11.0,-33.0,-4.0,-6.0,-6.0,3.0
1701711491.0811353,-7.0,3.0,-12.0,-6.0,3.0,4.0,-1.0,-5.0
1701711491.0811353,9.0,11.0,13.0,2.0,-3.0,-3.0,0.0,-1.0
1701711491.0811353,-8.0,-18.0,-19.0,-2.0,-6.0,-1.0,0.0,0.0
1701711491.0911403,3.0,-2.0,47.0,38.0,4.0,-6.0,-5.0,-19.0
1701711491.0911403,-12.0,-6.0,-79.0,-27.0,-8.0,-3.0,-1.0,25.0
1701711491.12114,-2.0,12.0,30.0,46.0,0.0,4.0,3.0,-3.0
1701711491.12114,-8.0,-9.0,1.0,-19.0,15.0,10.0,1.0,-3.0
1701711491.12114,15.0,3.0,-18.0,-38.0,-1.0,2.0,-2.0,-11.0
1701711491.12114,-9.0,-11.0,-13.0,-44.0,-17.0,-10.0,6.0,8.0
1701711491.12114,13.0,26.0,39.0,51.0,7.0,-2.0,-3.0,-5.0
1701711491.12114,-7.0,-5.0,-5.0,6.0,6.0,-5.0,-7.0,5.0
1701711491.1313019,3.0,-7.0,-23.0,-9.0,0.0,-5.0,-1.0,3.0
1701711491.1313019,-6.0,10.0,34.0,98.0,11.0,7.0,-5.0,-8.0
1701711491.1414282,11.0,22.0,39.0,-92.0,-32.0,-14.0,4.0,10.0
1701711491.1414282,-4.0,-7.0,-12.0,-2.0,0.0,5.0,0.0,-7.0
1701711491.1511416,-1.0,8.0,-6.0,-40.0,-7.0,1.0,-1.0,5.0
1701711491.1511416,5.0,2.0,9.0,5.0,-4.0,3.0,1.0,-4.0
1701711491.1911397,-8.0,-12.0,-22.0,25.0,15.0,3.0,-4.0,-3.0
1701711491.1911397,6.0,8.0,29.0,13.0,4.0,-6.0,-2.0,-5.0
1701711491.1911397,-4.0,9.0,11.0,-31.0,4.0,4.0,-2.0,-5.0
1701711491.1911397,-5.0,-6.0,-17.0,-66.0,-55.0,-5.0,9.0,4.0
1701711491.1911397,15.0,-2.0,-1.0,19.0,52.0,10.0,-8.0,-4.0
1701711491.1911397,-3.0,-3.0,9.0,-13.0,-15.0,-1.0,8.0,5.0
1701711491.1911397,15.0,10.0,-11.0,72.0,37.0,18.0,14.0,19.0
1701711491.1911397,-1.0,-5.0,-1.0,-45.0,-7.0,-9.0,-23.0,-21.0
1701711491.2013855,-16.0,-8.0,-17.0,-43.0,-38.0,-22.0,-13.0,-20.0
1701711491.2013855,1.0,-15.0,-19.0,2.0,24.0,11.0,28.0,18.0
1701711491.211172,-5.0,2.0,17.0,-9.0,-27.0,-2.0,-22.0,-11.0
1701711491.211172,13.0,7.0,9.0,5.0,22.0,7.0,30.0,14.0
1701711491.238624,-12.0,-14.0,-7.0,-6.0,-7.0,-14.0,-21.0,5.0
1701711491.238624,-2.0,3.0,0.0,-6.0,3.0,-5.0,-2.0,-22.0
1701711491.238624,-19.0,-26.0,-38.0,-29.0,-3.0,-10.0,-2.0,-8.0
1701711491.238624,11.0,21.0,3.0,23.0,17.0,25.0,-2.0,2.0
1701711491.2461538,-21.0,-30.0,-15.0,20.0,-3.0,8.0,6.0,-3.0
1701711491.2461538,20.0,41.0,35.0,-14.0,0.0,-5.0,-17.0,5.0
1701711491.254154,4.0,-15.0,-2.0,24.0,25.0,22.0,14.0,8.0
1701711491.254154,13.0,18.0,49.0,-24.0,-9.0,-14.0,-16.0,-11.0
1701711491.263672,-1.0,-9.0,-23.0,5.0,-6.0,0.0,15.0,7.0
1701711491.263672,6.0,6.0,-1.0,68.0,-2.0,4.0,6.0,15.0
1701711491.263672,-10.0,-11.0,-15.0,-47.0,-12.0,13.0,-12.0,0.0
1701711491.263672,10.0,10.0,29.0,33.0,22.0,11.0,29.0,21.0
1701711491.2936738,-4.0,-6.0,7.0,-51.0,-18.0,-5.0,-16.0,-19.0
1701711491.2936738,3.0,7.0,9.0,-9.0,-6.0,-7.0,-11.0,2.0
1701711491.2936738,-1.0,1.0,5.0,52.0,7.0,-13.0,-6.0,-7.0
1701711491.2936738,-7.0,-15.0,-17.0,-2.0,18.0,4.0,1.0,7.0
1701711491.3036802,13.0,17.0,2.0,0.0,-13.0,-3.0,6.0,5.0
1701711491.3036802,-20.0,-15.0,7.0,18.0,9.0,2.0,-10.0,-18.0
1701711491.313925,-3.0,1.0,-5.0,-10.0,-13.0,-13.0,3.0,0.0
1701711491.313925,-12.0,-26.0,-46.0,-85.0,-25.0,-8.0,-9.0,-16.0
1701711491.3239508,18.0,16.0,51.0,43.0,33.0,3.0,-1.0,14.0
1701711491.3239508,-12.0,-54.0,-71.0,-78.0,-24.0,-10.0,-9.0,-10.0
1701711491.3239508,9.0,33.0,13.0,52.0,1.0,1.0,7.0,7.0
1701711491.3239508,-7.0,-15.0,-29.0,-50.0,-12.0,-19.0,-20.0,-7.0
1701711491.3536725,5.0,-3.0,9.0,-10.0,-3.0,12.0,14.0,-1.0
1701711491.3536725,5.0,7.0,17.0,45.0,31.0,13.0,13.0,-4.0
1701711491.3536725,-12.0,-12.0,4.0,79.0,-5.0,-22.0,-8.0,-5.0
1701711491.3536725,-16.0,-15.0,-16.0,9.0,-3.0,4.0,-8.0,-6.0
1701711491.3640034,17.0,15.0,-29.0,-79.0,-6.0,-5.0,1.0,-1.0
1701711491.3640034,-9.0,-22.0,14.0,56.0,13.0,1.0,5.0,-2.0
1701711491.3736975,15.0,12.0,12.0,-74.0,-20.0,31.0,7.0,6.0
1701711491.3736975,-12.0,14.0,20.0,23.0,12.0,-5.0,-6.0,-11.0
1701711491.3839927,4.0,-2.0,-7.0,27.0,1.0,-9.0,-18.0,-13.0
1701711491.3839927,-2.0,9.0,-14.0,5.0,6.0,5.0,34.0,32.0
1701711491.3839927,-19.0,-21.0,-14.0,-61.0,-11.0,2.0,-26.0,-39.0
1701711491.3839927,14.0,4.0,12.0,22.0,-6.0,-1.0,26.0,58.0
1701711491.4037042,-24.0,-28.0,-23.0,8.0,9.0,-8.0,-14.0,-39.0
1701711491.4037042,12.0,18.0,3.0,-25.0,-22.0,-14.0,-43.0,-33.0
1701711491.413779,11.0,9.0,22.0,21.0,24.0,-5.0,27.0,38.0
1701711491.413779,-4.0,-17.0,0.0,-42.0,-25.0,-12.0,-6.0,-4.0
1701711491.4240603,0.0,2.0,-10.0,21.0,11.0,30.0,-9.0,0.0
1701711491.4240603,0.0,8.0,4.0,-34.0,-2.0,2.0,25.0,8.0
1701711491.4336884,-7.0,-6.0,3.0,-17.0,0.0,-10.0,-27.0,-16.0
1701711491.4336884,-2.0,-5.0,7.0,38.0,0.0,-2.0,-11.0,-4.0
1701711491.4438436,-7.0,20.0,-8.0,-28.0,-6.0,-9.0,3.0,-5.0
1701711491.4438436,-15.0,-19.0,-13.0,6.0,-3.0,3.0,-3.0,-10.0
1701711491.4438436,8.0,9.0,27.0,-1.0,-5.0,4.0,6.0,20.0
1701711491.4438436,7.0,21.0,-11.0,-1.0,11.0,-7.0,-6.0,-25.0
1701711491.4636729,-18.0,-36.0,5.0,1.0,-38.0,-1.0,6.0,6.0
1701711491.4636729,10.0,12.0,-52.0,-113.0,-15.0,1.0,-9.0,3.0
1701711491.473674,-2.0,-4.0,23.0,61.0,-15.0,-27.0,-2.0,1.0
1701711491.473674,-1.0,44.0,17.0,33.0,85.0,34.0,0.0,-6.0
1701711491.4840877,5.0,-18.0,12.0,58.0,-38.0,-1.0,22.0,13.0
1701711491.4840877,-5.0,-8.0,-76.0,-40.0,-23.0,-12.0,-4.0,3.0
1701711491.4940212,-1.0,-4.0,75.0,25.0,1.0,19.0,11.0,-5.0
1701711491.4940212,16.0,2.0,2.0,4.0,50.0,21.0,10.0,5.0
1701711491.5040362,4.0,-7.0,-27.0,13.0,-16.0,-24.0,1.0,14.0
1701711491.5040362,-9.0,-3.0,9.0,-16.0,-8.0,-8.0,-20.0,-9.0
1701711491.5236719,-10.0,-11.0,-53.0,-89.0,-51.0,-6.0,5.0,-4.0
1701711491.5236719,-23.0,-35.0,22.0,35.0,-9.0,-22.0,-29.0,-24.0
1701711491.5236719,1.0,11.0,-28.0,10.0,22.0,8.0,8.0,4.0
1701711491.5236719,-2.0,-4.0,27.0,20.0,9.0,7.0,6.0,4.0
1701711491.533677,-2.0,-4.0,-49.0,-26.0,11.0,-20.0,-2.0,-7.0
1701711491.533677,-15.0,-1.0,18.0,20.0,-44.0,4.0,-3.0,-17.0
1701711491.5440772,7.0,11.0,29.0,47.0,27.0,5.0,-9.0,13.0
1701711491.5440772,1.0,1.0,21.0,-6.0,-17.0,4.0,6.0,0.0
1701711491.5536945,7.0,10.0,-1.0,19.0,31.0,25.0,7.0,11.0
1701711491.5536945,6.0,-7.0,-21.0,29.0,-25.0,-10.0,9.0,-14.0
1701711491.5636754,-10.0,0.0,-3.0,-74.0,-14.0,-9.0,2.0,-19.0
1701711491.5636754,17.0,7.0,-19.0,-13.0,-9.0,-9.0,-13.0,28.0
1701711491.5739605,-20.0,-22.0,-8.0,84.0,7.0,-19.0,-11.0,-8.0
1701711491.5739605,6.0,-4.0,-28.0,-31.0,-11.0,3.0,12.0,12.0
1701711491.5840447,-9.0,-21.0,-29.0,-103.0,-8.0,-11.0,-12.0,-16.0
1701711491.5840447,1.0,24.0,27.0,-17.0,10.0,-1.0,-3.0,-10.0
1701711491.5936742,6.0,16.0,22.0,19.0,-2.0,-10.0,-9.0,0.0
1701711491.5936742,-11.0,-1.0,-2.0,-13.0,-6.0,-6.0,-19.0,-19.0
1701711491.6040668,-12.0,39.0,22.0,52.0,23.0,9.0,10.0,14.0
1701711491.6040668,23.0,-8.0,-26.0,-22.0,-15.0,3.0,11.0,4.0
1701711491.6139405,-17.0,-26.0,-6.0,-26.0,-1.0,0.0,0.0,-6.0
1701711491.6139405,-7.0,-8.0,-2.0,29.0,-18.0,-24.0,-6.0,-2.0
1701711491.6240335,30.0,25.0,14.0,20.0,22.0,22.0,-1.0,19.0
1701711491.6240335,-19.0,-6.0,38.0,37.0,-20.0,-24.0,-5.0,-13.0
1701711491.6240335,-14.0,0.0,-6.0,-41.0,-17.0,18.0,21.0,-11.0
1701711491.6240335,-6.0,-25.0,-35.0,-83.0,-3.0,5.0,-11.0,10.0
1701711491.6437063,36.0,35.0,43.0,79.0,64.0,5.0,-11.0,-6.0
1701711491.6437063,-18.0,-14.0,-5.0,47.0,3.0,-15.0,-15.0,-11.0
1701711491.6536791,3.0,-15.0,-40.0,-66.0,-5.0,-6.0,-4.0,-1.0
1701711491.6536791,-8.0,17.0,5.0,-72.0,-35.0,0.0,4.0,-13.0
1701711491.6736803,-9.0,1.0,5.0,43.0,-6.0,-9.0,2.0,27.0
1701711491.6736803,-4.0,-12.0,-5.0,-11.0,2.0,8.0,-4.0,-8.0
1701711491.6736803,-1.0,1.0,-18.0,19.0,17.0,-3.0,-5.0,-12.0
1701711491.6736803,15.0,0.0,30.0,-46.0,-6.0,5.0,11.0,25.0
1701711491.7036765,-8.0,-17.0,-59.0,-43.0,3.0,-5.0,7.0,-19.0
1701711491.7036765,9.0,14.0,69.0,34.0,9.0,19.0,7.0,11.0
1701711491.7036765,7.0,-3.0,-34.0,2.0,-3.0,-26.0,-28.0,13.0
1701711491.7036765,6.0,5.0,11.0,-11.0,37.0,30.0,44.0,37.0
1701711491.7036765,-10.0,3.0,26.0,86.0,-21.0,-13.0,-9.0,-34.0
1701711491.7036765,8.0,2.0,-7.0,-119.0,-17.0,-11.0,-12.0,12.0
1701711491.7137003,-13.0,24.0,27.0,68.0,19.0,11.0,7.0,-25.0
1701711491.7137003,5.0,0.0,-10.0,39.0,-4.0,-13.0,-15.0,-11.0
1701711491.7336922,-30.0,-18.0,14.0,42.0,-14.0,-8.0,-14.0,5.0
1701711491.7336922,4.0,7.0,3.0,17.0,7.0,3.0,-15.0,-25.0
1701711491.7336922,19.0,-10.0,6.0,-4.0,1.0,1.0,12.0,14.0
1701711491.7336922,-4.0,-16.0,-39.0,5.0,-7.0,-5.0,12.0,18.0
1701711491.7436736,-21.0,-31.0,-15.0,-103.0,-12.0,11.0,12.0,6.0
1701711491.7436736,29.0,14.0,28.0,93.0,21.0,1.0,-7.0,-10.0
1701711491.753844,-11.0,4.0,10.0,-27.0,-6.0,0.0,9.0,-11.0
1701711491.753844,-28.0,-19.0,-27.0,-14.0,-17.0,-11.0,-42.0,-28.0
1701711491.7737381,14.0,29.0,9.0,8.0,-6.0,6.0,6.0,8.0
1701711491.7737381,35.0,-9.0,4.0,38.0,-7.0,8.0,39.0,27.0
1701711491.7737381,8.0,2.0,-4.0,-56.0,39.0,38.0,39.0,35.0
1701711491.7737381,5.0,13.0,34.0,59.0,-19.0,-21.0,-2.0,-11.0
1701711491.805367,-11.0,-12.0,-16.0,-23.0,15.0,7.0,-15.0,-5.0
1701711491.805367,-25.0,-1.0,-25.0,-43.0,-11.0,-10.0,-23.0,-23.0
1701711491.805367,2.0,-2.0,15.0,88.0,-23.0,-15.0,-12.0,-8.0
1701711491.805367,2.0,-2.0,33.0,13.0,16.0,15.0,6.0,1.0
1701711491.805367,2.0,-6.0,-14.0,-127.0,-31.0,-11.0,-9.0,-5.0
1701711491.805367,-7.0,2.0,-1.0,35.0,28.0,7.0,15.0,0.0
1701711491.8156874,4.0,-7.0,-22.0,5.0,-1.0,1.0,-1.0,3.0
1701711491.8156874,-9.0,-2.0,43.0,91.0,29.0,5.0,-16.0,-5.0
1701711491.8253667,5.0,-6.0,-22.0,19.0,-15.0,7.0,9.0,7.0
1701711491.8253667,-14.0,-9.0,-4.0,-45.0,15.0,-10.0,-4.0,3.0
1701711491.8253667,4.0,13.0,14.0,-36.0,-50.0,0.0,-12.0,-11.0
1701711491.8253667,5.0,8.0,-28.0,-21.0,1.0,-10.0,-3.0,-13.0
1701711491.8453655,0.0,-13.0,12.0,18.0,13.0,3.0,-4.0,2.0
1701711491.8453655,-5.0,5.0,-31.0,-30.0,-20.0,-3.0,2.0,13.0
1701711491.8553636,-11.0,-18.0,7.0,14.0,11.0,-8.0,-19.0,-14.0
1701711491.8553636,5.0,-11.0,-41.0,-49.0,-9.0,-4.0,-6.0,-3.0
1701711491.8656795,-5.0,8.0,10.0,8.0,2.0,-49.0,-27.0,-18.0
1701711491.8656795,4.0,-3.0,-8.0,19.0,1.0,36.0,45.0,31.0
1701711491.8757768,8.0,4.0,-22.0,-7.0,8.0,-11.0,-10.0,8.0
1701711491.8757768,-13.0,-13.0,-29.0,-42.0,-23.0,-8.0,-7.0,-17.0
1701711491.8857043,13.0,22.0,-1.0,-17.0,8.0,-1.0,12.0,21.0
1701711491.8857043,4.0,1.0,11.0,92.0,11.0,-5.0,-15.0,-11.0
1701711491.8957043,26.0,14.0,8.0,-41.0,-3.0,8.0,17.0,8.0
1701711491.8957043,-4.0,19.0,32.0,-9.0,-5.0,19.0,14.0,-2.0
1701711491.915697,-10.0,-10.0,-19.0,37.0,18.0,12.0,5.0,-1.0
1701711491.915697,-12.0,3.0,-29.0,-89.0,-45.0,-27.0,-18.0,-18.0
1701711491.915697,-1.0,-28.0,-27.0,18.0,17.0,20.0,1.0,7.0
1701711491.915697,10.0,2.0,-12.0,-7.0,20.0,-1.0,4.0,9.0
1701711491.9260602,-11.0,2.0,56.0,67.0,-17.0,-7.0,-5.0,-7.0
1701711491.9260602,-3.0,-4.0,-8.0,-30.0,11.0,11.0,5.0,-3.0
1701711491.9358075,-12.0,4.0,3.0,-89.0,-10.0,-17.0,-30.0,-12.0
1701711491.9358075,20.0,-3.0,4.0,69.0,8.0,6.0,27.0,23.0
1701711491.9556983,-6.0,-1.0,-22.0,-16.0,16.0,8.0,-6.0,-32.0
1701711491.9556983,-2.0,-16.0,15.0,63.0,9.0,-3.0,-4.0,28.0
1701711491.9556983,3.0,16.0,13.0,-29.0,-26.0,-9.0,16.0,1.0
1701711491.9556983,-9.0,-7.0,-19.0,23.0,-4.0,-23.0,6.0,-6.0
1701711491.9660347,12.0,1.0,-6.0,-73.0,-12.0,33.0,-8.0,-12.0
1701711491.9660347,7.0,7.0,26.0,64.0,29.0,3.0,6.0,28.0
1701711491.975703,-5.0,-1.0,17.0,-24.0,-16.0,1.0,23.0,-2.0
1701711491.975703,8.0,-4.0,-60.0,-23.0,41.0,4.0,-14.0,1.0
1701711491.9861028,-12.0,-1.0,42.0,17.0,1.0,-11.0,10.0,2.0
1701711491.9861028,-18.0,-15.0,21.0,0.0,-15.0,1.0,-22.0,-41.0
1701711491.9960384,-6.0,8.0,-28.0,-5.0,10.0,-4.0,-6.0,4.0
1701711491.9960384,-3.0,-1.0,17.0,23.0,-23.0,-3.0,0.0,-8.0
1701711492.0156982,-3.0,-14.0,-34.0,-1.0,3.0,-1.0,-10.0,-2.0
1701711492.0156982,-8.0,-4.0,7.0,56.0,29.0,5.0,-4.0,-9.0
1701711492.0156982,8.0,11.0,0.0,-72.0,-74.0,-27.0,3.0,4.0
1701711492.0156982,-7.0,7.0,5.0,37.0,9.0,14.0,2.0,-2.0
1701711492.0257812,-3.0,-10.0,10.0,-40.0,65.0,12.0,4.0,8.0
1701711492.0357027,8.0,8.0,-22.0,-31.0,-12.0,-17.0,3.0,-1.0
1701711492.0357027,-6.0,-1.0,52.0,127.0,30.0,27.0,-9.0,-7.0
1701711492.0357027,-15.0,18.0,45.0,-28.0,-40.0,-17.0,-26.0,-20.0
1701711492.045969,31.0,-2.0,-10.0,24.0,-43.0,-11.0,24.0,32.0
1701711492.045969,-6.0,5.0,24.0,-13.0,46.0,7.0,0.0,-12.0
1701711492.0657034,-44.0,-23.0,-12.0,-21.0,-16.0,-9.0,-23.0,-46.0
1701711492.0657034,49.0,8.0,-18.0,1.0,11.0,14.0,-1.0,45.0
1701711492.0956993,-12.0,-8.0,-4.0,-44.0,-33.0,-21.0,-17.0,-17.0
1701711492.0956993,1.0,1.0,-3.0,-12.0,-15.0,3.0,10.0,3.0
1701711492.0956993,3.0,1.0,-11.0,10.0,23.0,36.0,90.0,53.0
1701711492.0956993,-3.0,1.0,34.0,24.0,14.0,0.0,-34.0,-5.0
1701711492.0956993,-15.0,-33.0,-59.0,-37.0,-7.0,-14.0,-6.0,-12.0
1701711492.0956993,11.0,3.0,6.0,-26.0,-12.0,-3.0,-19.0,-9.0
1701711492.0956993,-4.0,14.0,4.0,40.0,24.0,-25.0,-33.0,-15.0
1701711492.0956993,-18.0,-24.0,-35.0,-70.0,-22.0,-15.0,11.0,17.0
1701711492.1159825,7.0,7.0,39.0,39.0,4.0,22.0,13.0,1.0
1701711492.1159825,-35.0,-21.0,-69.0,-79.0,-31.0,-18.0,-22.0,-23.0
1701711492.1159825,16.0,16.0,53.0,32.0,12.0,1.0,0.0,-2.0
1701711492.1159825,9.0,6.0,18.0,3.0,0.0,2.0,7.0,1.0
1701711492.1456974,-10.0,-17.0,-21.0,-44.0,-15.0,-5.0,-11.0,-6.0
1701711492.1456974,-2.0,9.0,18.0,27.0,2.0,1.0,13.0,1.0
1701711492.1456974,2.0,-22.0,-21.0,2.0,14.0,-11.0,-15.0,4.0
1701711492.1456974,3.0,16.0,43.0,71.0,28.0,29.0,17.0,-4.0
1701711492.1456974,-6.0,18.0,28.0,-10.0,-58.0,-21.0,-4.0,1.0
1701711492.1456974,4.0,-6.0,-17.0,51.0,24.0,20.0,18.0,8.0
1701711492.1556995,-3.0,18.0,2.0,4.0,75.0,-5.0,-32.0,-9.0
1701711492.1556995,-17.0,-24.0,-20.0,15.0,25.0,9.0,-3.0,-18.0
1701711492.166006,16.0,0.0,55.0,8.0,-18.0,12.0,20.0,16.0
1701711492.166006,9.0,-5.0,-47.0,-15.0,-43.0,-15.0,19.0,15.0
1701711492.1756997,11.0,8.0,-10.0,-13.0,-27.0,-2.0,1.0,-3.0
1701711492.1756997,-4.0,20.0,-1.0,-83.0,-11.0,-14.0,-8.0,-12.0
1701711492.1857007,-5.0,15.0,6.0,-19.0,41.0,12.0,0.0,0.0
1701711492.1857007,-15.0,-13.0,-77.0,-32.0,-31.0,-27.0,-30.0,-24.0
1701711492.1857007,-20.0,-21.0,14.0,12.0,-41.0,-48.0,-39.0,-6.0
1701711492.1857007,16.0,-5.0,-6.0,-14.0,15.0,46.0,47.0,24.0
1701711492.2156963,-14.0,2.0,-37.0,-56.0,-9.0,-16.0,-22.0,-14.0
1701711492.2156963,23.0,22.0,110.0,73.0,21.0,30.0,18.0,19.0
1701711492.2156963,-7.0,-15.0,-100.0,-50.0,-16.0,-9.0,-9.0,-17.0
1701711492.2156963,-11.0,-11.0,-8.0,43.0,-23.0,-38.0,-25.0,-25.0
1701711492.226066,10.0,3.0,4.0,41.0,44.0,36.0,-16.0,17.0
1701711492.226066,-13.0,-5.0,6.0,-73.0,-13.0,-9.0,23.0,-2.0
1701711492.2356975,10.0,7.0,-3.0,-31.0,-10.0,8.0,-4.0,12.0
1701711492.2356975,-2.0,-4.0,10.0,-41.0,-15.0,-8.0,4.0,-13.0
1701711492.2457345,0.0,-4.0,-61.0,-14.0,-4.0,-26.0,-27.0,1.0
1701711492.2457345,1.0,12.0,80.0,79.0,20.0,-4.0,-6.0,0.0
1701711492.2457345,8.0,-13.0,-12.0,12.0,-3.0,17.0,19.0,2.0
1701711492.2457345,4.0,3.0,-51.0,-108.0,-23.0,-13.0,-3.0,11.0
1701711492.2760231,-32.0,-19.0,25.0,111.0,-10.0,-17.0,-8.0,-22.0
1701711492.2760231,29.0,11.0,18.0,29.0,11.0,5.0,0.0,3.0
1701711492.2760231,15.0,31.0,18.0,-44.0,4.0,19.0,18.0,32.0
1701711492.2760231,2.0,-27.0,-55.0,-21.0,0.0,-8.0,-4.0,-3.0
1701711492.2859156,1.0,0.0,31.0,10.0,-6.0,-6.0,-2.0,-2.0
1701711492.2859156,-33.0,-17.0,-74.0,-42.0,6.0,5.0,2.0,-33.0
1701711492.3068514,4.0,13.0,30.0,60.0,1.0,-29.0,-21.0,7.0
1701711492.3068514,5.0,-5.0,-16.0,-74.0,-5.0,12.0,-20.0,9.0
1701711492.311882,8.0,2.0,-14.0,36.0,3.0,8.0,36.0,17.0
1701711492.311882,-8.0,2.0,1.0,-12.0,4.0,7.0,-17.0,-6.0
1701711492.3138542,-6.0,-31.0,-36.0,-74.0,-13.0,-16.0,-14.0,-33.0
1701711492.3138542,-14.0,13.0,41.0,7.0,-19.0,-15.0,9.0,-4.0
1701711492.3281965,10.0,-2.0,-24.0,8.0,12.0,-9.0,-9.0,6.0
1701711492.3281965,-10.0,-8.0,-1.0,-37.0,3.0,10.0,-5.0,-11.0
1701711492.3281965,-1.0,12.0,50.0,74.0,14.0,29.0,24.0,8.0
1701711492.3281965,-15.0,-30.0,-20.0,-53.0,-25.0,-12.0,-21.0,-34.0
1701711492.348198,29.0,-10.0,12.0,65.0,18.0,-2.0,28.0,35.0
1701711492.348198,16.0,36.0,2.0,-40.0,-7.0,-1.0,38.0,53.0
1701711492.348198,-48.0,-14.0,20.0,13.0,0.0,1.0,-39.0,-41.0
1701711492.348198,27.0,37.0,-41.0,-8.0,25.0,-4.0,2.0,10.0
1701711492.3685656,-15.0,-22.0,-18.0,-100.0,-15.0,-9.0,-2.0,-28.0
1701711492.3685656,11.0,9.0,54.0,92.0,4.0,10.0,-27.0,7.0
1701711492.3685656,2.0,2.0,-14.0,3.0,51.0,37.0,65.0,28.0
1701711492.3685656,-9.0,-2.0,23.0,10.0,-22.0,-8.0,-21.0,-24.0
1701711492.388642,7.0,11.0,3.0,-30.0,-17.0,-3.0,29.0,15.0
1701711492.388642,0.0,-3.0,-13.0,-22.0,-9.0,3.0,-5.0,-10.0
1701711492.388642,5.0,-7.0,-2.0,35.0,9.0,-7.0,-8.0,3.0
1701711492.388642,-10.0,-11.0,-8.0,-15.0,-21.0,-37.0,-7.0,4.0
1701711492.4081972,11.0,19.0,-12.0,-43.0,9.0,66.0,28.0,3.0
1701711492.4081972,-8.0,-9.0,-7.0,-40.0,-25.0,-17.0,-20.0,-6.0
1701711492.4081972,1.0,-26.0,-75.0,-81.0,-21.0,21.0,16.0,-2.0
1701711492.4081972,5.0,7.0,97.0,127.0,49.0,8.0,5.0,-11.0
1701711492.4286504,-7.0,22.0,10.0,6.0,-11.0,-18.0,-3.0,30.0
1701711492.4286504,2.0,6.0,-17.0,0.0,20.0,4.0,-6.0,-17.0
1701711492.4384449,0.0,8.0,45.0,-46.0,-5.0,-10.0,-23.0,-16.0
1701711492.4384449,6.0,-4.0,19.0,116.0,3.0,11.0,15.0,28.0
1701711492.4486375,-5.0,-16.0,-75.0,-66.0,3.0,-4.0,-6.0,-12.0
1701711492.4486375,-9.0,-16.0,23.0,-56.0,-21.0,-12.0,-17.0,-1.0
1701711492.4486375,8.0,4.0,-12.0,-22.0,-23.0,-18.0,-10.0,-9.0
1701711492.4486375,-10.0,-9.0,-27.0,22.0,0.0,-2.0,12.0,-3.0
1701711492.4681973,-9.0,0.0,26.0,22.0,2.0,-3.0,-57.0,-27.0
1701711492.4681973,11.0,-3.0,-15.0,-19.0,3.0,38.0,45.0,34.0
1701711492.4782028,-7.0,-1.0,-6.0,10.0,-11.0,-32.0,17.0,-26.0
1701711492.4782028,1.0,12.0,16.0,-20.0,10.0,1.0,-14.0,20.0
1701711492.4882524,16.0,0.0,14.0,56.0,-5.0,-1.0,18.0,7.0
1701711492.4882524,-34.0,-16.0,-39.0,-16.0,1.0,-12.0,-6.0,-21.0
1701711492.498367,12.0,19.0,51.0,32.0,4.0,17.0,11.0,24.0
1701711492.498367,20.0,10.0,9.0,-36.0,-23.0,-10.0,-15.0,0.0
1701711492.5085256,-14.0,0.0,1.0,31.0,-2.0,0.0,-2.0,-13.0
1701711492.5085256,8.0,-33.0,-23.0,-22.0,17.0,-19.0,0.0,4.0
1701711492.5085256,-7.0,3.0,32.0,72.0,7.0,6.0,-12.0,3.0
1701711492.5085256,-13.0,-15.0,-8.0,-21.0,-19.0,-10.0,-10.0,-13.0
1701711492.538198,9.0,14.0,-2.0,29.0,-5.0,-11.0,-8.0,-2.0
1701711492.538198,-13.0,-13.0,-5.0,36.0,5.0,20.0,6.0,-11.0
1701711492.538198,7.0,8.0,-8.0,-25.0,-2.0,-5.0,-9.0,5.0
1701711492.538198,-4.0,7.0,14.0,-44.0,-16.0,4.0,5.0,0.0
1701711492.5482073,-16.0,-19.0,-6.0,31.0,8.0,-10.0,-9.0,-10.0
1701711492.5482073,-7.0,-8.0,-25.0,-25.0,-2.0,-14.0,-8.0,-12.0
1701711492.5482073,18.0,1.0,-1.0,14.0,17.0,25.0,-6.0,7.0
1701711492.5482073,-11.0,10.0,-23.0,-17.0,-17.0,-13.0,19.0,9.0
1701711492.568617,3.0,3.0,0.0,-88.0,-10.0,-12.0,23.0,-6.0
1701711492.568617,3.0,-2.0,6.0,113.0,2.0,-16.0,-36.0,-3.0
1701711492.568617,-8.0,-18.0,-7.0,-45.0,-3.0,-8.0,-4.0,-3.0
1701711492.568617,-6.0,-25.0,-75.0,-73.0,6.0,20.0,-1.0,-20.0
1701711492.588198,-12.0,12.0,56.0,39.0,9.0,4.0,-9.0,3.0
1701711492.588198,16.0,13.0,28.0,-4.0,-12.0,-8.0,12.0,11.0
1701711492.5982006,-1.0,-2.0,-48.0,-42.0,-10.0,-12.0,-11.0,-22.0
1701711492.5982006,10.0,0.0,26.0,95.0,30.0,9.0,-19.0,11.0
1701711492.608505,9.0,6.0,47.0,55.0,-9.0,-7.0,21.0,2.0
1701711492.608505,-7.0,-2.0,-27.0,-76.0,-19.0,10.0,-10.0,0.0
1701711492.608505,-1.0,3.0,28.0,10.0,-5.0,-6.0,1.0,12.0
1701711492.608505,-14.0,-4.0,-18.0,66.0,15.0,1.0,2.0,-9.0
1701711492.6281986,12.0,-29.0,-44.0,-61.0,11.0,1.0,-4.0,23.0
1701711492.6281986,-9.0,3.0,25.0,6.0,-5.0,-21.0,-26.0,-44.0
1701711492.6281986,-10.0,16.0,35.0,23.0,-6.0,5.0,18.0,39.0
1701711492.6281986,1.0,-23.0,-41.0,-11.0,-9.0,9.0,10.0,1.0
1701711492.648391,-5.0,-7.0,-4.0,-16.0,5.0,-14.0,-34.0,-22.0
1701711492.648391,-1.0,-21.0,-22.0,-55.0,-33.0,-7.0,-15.0,-31.0
1701711492.6582022,-27.0,-20.0,18.0,0.0,31.0,0.0,24.0,-26.0
1701711492.6582022,49.0,40.0,53.0,53.0,15.0,-23.0,-51.0,54.0
1701711492.6684976,-11.0,-1.0,-52.0,-69.0,-43.0,19.0,22.0,-13.0
1701711492.6684976,-8.0,-5.0,27.0,29.0,7.0,-7.0,13.0,12.0
1701711492.6684976,7.0,-18.0,-58.0,17.0,21.0,7.0,-4.0,-14.0
1701711492.6684976,-27.0,6.0,16.0,-43.0,-15.0,6.0,3.0,-16.0
1701711492.7082002,-4.0,-1.0,9.0,-14.0,-9.0,-5.0,-13.0,-15.0
1701711492.7082002,4.0,33.0,-13.0,5.0,-9.0,-6.0,-5.0,5.0
1701711492.7082002,-3.0,-25.0,-69.0,31.0,-17.0,-12.0,-10.0,-2.0
1701711492.7082002,-17.0,-4.0,-1.0,-11.0,-19.0,-17.0,-14.0,-18.0
1701711492.718379,-7.0,4.0,-12.0,39.0,23.0,-7.0,-9.0,-7.0
1701711492.718379,-6.0,10.0,36.0,28.0,-15.0,-16.0,3.0,-7.0
1701711492.718379,2.0,-1.0,26.0,81.0,19.0,14.0,-5.0,0.0
1701711492.718379,16.0,0.0,-86.0,-79.0,16.0,25.0,30.0,25.0
1701711492.7285357,-10.0,-10.0,25.0,-64.0,-19.0,-8.0,0.0,-11.0
1701711492.7285357,16.0,20.0,47.0,31.0,1.0,-2.0,4.0,32.0
1701711492.7285357,4.0,4.0,-7.0,-39.0,-20.0,0.0,-9.0,-9.0
1701711492.7285357,-15.0,4.0,16.0,-15.0,-8.0,-35.0,-18.0,-61.0
1701711492.7482004,-13.0,-17.0,22.0,25.0,-1.0,13.0,17.0,28.0
1701711492.7482004,18.0,-25.0,-43.0,-36.0,9.0,18.0,-16.0,13.0
1701711492.7482004,3.0,6.0,-2.0,-3.0,-16.0,8.0,7.0,7.0
1701711492.7482004,-8.0,-18.0,-14.0,10.0,0.0,-11.0,0.0,-19.0
1701711492.7685995,-12.0,-12.0,-8.0,34.0,26.0,17.0,9.0,-19.0
1701711492.7685995,15.0,25.0,43.0,2.0,10.0,0.0,2.0,-4.0
1701711492.7782,27.0,23.0,12.0,-24.0,6.0,3.0,-3.0,4.0
1701711492.7782,-36.0,-16.0,-12.0,-17.0,-9.0,-15.0,0.0,-3.0
1701711492.798197,9.0,-16.0,-1.0,-43.0,-35.0,-2.0,12.0,-8.0
1701711492.798197,-3.0,5.0,-55.0,-28.0,-17.0,-49.0,-53.0,3.0
1701711492.798197,-2.0,9.0,5.0,-66.0,-3.0,-3.0,5.0,7.0
1701711492.798197,-10.0,-27.0,59.0,51.0,33.0,17.0,-14.0,-5.0
1701711492.808478,25.0,14.0,-60.0,-21.0,-3.0,1.0,-1.0,6.0
1701711492.808478,-24.0,-19.0,-20.0,32.0,2.0,19.0,22.0,-1.0
1701711492.808478,12.0,3.0,-48.0,-39.0,-13.0,-49.0,-27.0,5.0
1701711492.808478,-6.0,7.0,42.0,54.0,-18.0,-8.0,-1.0,-10.0
1701711492.8380604,-12.0,-3.0,-21.0,-14.0,6.0,49.0,12.0,10.0
1701711492.8380604,-15.0,-5.0,19.0,-6.0,22.0,8.0,16.0,-7.0
1701711492.8390477,-8.0,-15.0,-33.0,-43.0,-44.0,-37.0,-37.0,-16.0
1701711492.8390477,14.0,17.0,28.0,86.0,14.0,62.0,60.0,31.0
1701711492.8613594,-4.0,-1.0,17.0,44.0,57.0,-5.0,-11.0,6.0
1701711492.8613594,14.0,23.0,0.0,-78.0,-19.0,8.0,7.0,-18.0
1701711492.8613594,-11.0,-2.0,-5.0,38.0,2.0,10.0,7.0,17.0
1701711492.8613594,14.0,-6.0,-3.0,-32.0,8.0,-7.0,-4.0,5.0
1701711492.8715854,4.0,3.0,-37.0,5.0,-11.0,-15.0,-7.0,10.0
1701711492.8715854,-6.0,-20.0,-6.0,56.0,3.0,4.0,3.0,-2.0
1701711492.8715854,1.0,8.0,-9.0,-70.0,-6.0,-29.0,-22.0,-18.0
1701711492.8715854,3.0,7.0,6.0,25.0,-10.0,30.0,26.0,5.0
1701711492.8915164,5.0,17.0,49.0,44.0,17.0,-1.0,-17.0,-10.0
1701711492.8915164,3.0,-12.0,30.0,30.0,9.0,-28.0,-18.0,0.0
1701711492.8915164,6.0,29.0,58.0,23.0,20.0,66.0,60.0,10.0
1701711492.8915164,7.0,-2.0,-38.0,-33.0,-9.0,-5.0,-9.0,-1.0
1701711492.9313607,-2.0,9.0,8.0,-60.0,11.0,-7.0,21.0,10.0
1701711492.9313607,-28.0,-14.0,-16.0,35.0,-27.0,-27.0,-36.0,-13.0
1701711492.9313607,-1.0,17.0,50.0,42.0,-9.0,12.0,-1.0,-16.0
1701711492.9313607,-2.0,-49.0,-80.0,-125.0,-49.0,-10.0,-10.0,6.0
1701711492.9313607,-23.0,11.0,11.0,44.0,72.0,29.0,31.0,-5.0
1701711492.9313607,64.0,14.0,13.0,-1.0,10.0,-11.0,5.0,27.0
1701711492.9313607,-27.0,-21.0,-28.0,-35.0,-28.0,-6.0,-17.0,-8.0
1701711492.9313607,5.0,-4.0,19.0,-12.0,-2.0,34.0,29.0,3.0
1701711492.9517732,-6.0,-10.0,16.0,-14.0,-19.0,-23.0,-29.0,-7.0
1701711492.9517732,-15.0,-10.0,-5.0,39.0,17.0,22.0,13.0,-8.0
1701711492.9517732,4.0,14.0,44.0,-16.0,4.0,1.0,16.0,11.0
1701711492.9517732,-18.0,-15.0,-65.0,-51.0,2.0,-29.0,-25.0,0.0
1701711492.971362,6.0,0.0,-7.0,82.0,-21.0,-14.0,-3.0,-1.0
1701711492.971362,-8.0,16.0,9.0,-82.0,6.0,20.0,18.0,-4.0
1701711492.971362,-8.0,-27.0,-55.0,53.0,-17.0,-13.0,-15.0,-16.0
1701711492.971362,-2.0,9.0,-1.0,-7.0,-11.0,-20.0,-3.0,8.0
1701711492.9916174,16.0,25.0,35.0,18.0,0.0,-1.0,-5.0,8.0
1701711492.9916174,-17.0,-43.0,-83.0,-83.0,-23.0,-1.0,3.0,4.0
1701711492.9916174,-6.0,-17.0,-8.0,50.0,-5.0,-19.0,-13.0,-19.0
1701711492.9916174,0.0,11.0,18.0,-22.0,23.0,7.0,-5.0,6.0
1701711493.0313656,-10.0,-27.0,47.0,-3.0,-47.0,-10.0,-8.0,-23.0
1701711493.0313656,20.0,66.0,17.0,68.0,38.0,6.0,-7.0,-2.0
1701711493.0313656,7.0,1.0,92.0,-14.0,-24.0,13.0,17.0,17.0
1701711493.0313656,3.0,-29.0,-63.0,10.0,-13.0,-24.0,6.0,-6.0
1701711493.0313656,5.0,21.0,63.0,24.0,36.0,36.0,-3.0,3.0
1701711493.0313656,-9.0,-10.0,-65.0,-50.0,-23.0,-9.0,59.0,21.0
1701711493.0313656,-3.0,-25.0,-6.0,-12.0,-12.0,4.0,-33.0,-2.0
1701711493.0313656,7.0,24.0,41.0,48.0,69.0,3.0,-1.0,-8.0
1701711493.051716,19.0,11.0,-65.0,-61.0,-62.0,-34.0,-19.0,10.0
1701711493.051716,-5.0,-13.0,26.0,49.0,60.0,30.0,17.0,12.0
1701711493.051716,15.0,13.0,-22.0,15.0,-12.0,-10.0,12.0,7.0
1701711493.051716,0.0,-1.0,-25.0,-69.0,-23.0,-5.0,8.0,-6.0
1701711493.0813613,-6.0,-4.0,-98.0,-46.0,-1.0,-3.0,-9.0,-7.0
1701711493.0813613,-8.0,0.0,57.0,-8.0,4.0,25.0,9.0,3.0
1701711493.0813613,-17.0,7.0,48.0,26.0,21.0,18.0,5.0,-13.0
1701711493.0813613,6.0,18.0,-3.0,74.0,20.0,15.0,0.0,-9.0
1701711493.0913634,9.0,3.0,45.0,45.0,8.0,-18.0,-5.0,25.0
1701711493.0913634,-25.0,-51.0,-53.0,-96.0,-57.0,-40.0,-34.0,-24.0
1701711493.0913634,13.0,20.0,48.0,51.0,27.0,8.0,6.0,6.0
1701711493.0913634,-19.0,-1.0,36.0,-25.0,-9.0,-4.0,-4.0,-31.0
1701711493.1117363,-8.0,14.0,13.0,2.0,-1.0,-38.0,-27.0,-2.0
1701711493.1117363,7.0,-2.0,-35.0,-43.0,-23.0,-9.0,-14.0,-7.0
1701711493.1117363,-24.0,-10.0,-33.0,35.0,19.0,19.0,33.0,28.0
1701711493.1117363,32.0,13.0,28.0,30.0,-6.0,55.0,58.0,32.0
1701711493.1413648,-25.0,-20.0,-1.0,46.0,6.0,-7.0,-27.0,-36.0
1701711493.1413648,-3.0,-2.0,0.0,15.0,6.0,-6.0,-36.0,-6.0
1701711493.1413648,-22.0,-8.0,-9.0,-16.0,10.0,-31.0,15.0,-19.0
1701711493.1413648,33.0,8.0,27.0,12.0,-5.0,6.0,19.0,33.0
1701711493.151366,-5.0,-5.0,-22.0,-19.0,-2.0,4.0,0.0,-7.0
1701711493.151366,-4.0,22.0,44.0,4.0,-30.0,-6.0,-36.0,-6.0
1701711493.151366,28.0,9.0,-43.0,5.0,62.0,-2.0,-20.0,-3.0
1701711493.151366,-38.0,-13.0,111.0,46.0,-4.0,-20.0,-22.0,8.0
1701711493.1716197,46.0,-8.0,-90.0,-50.0,4.0,-9.0,17.0,30.0
1701711493.1716197,8.0,7.0,27.0,29.0,49.0,18.0,8.0,-7.0
1701711493.1716197,-2.0,-13.0,4.0,8.0,-18.0,-11.0,19.0,15.0
1701711493.1716197,-10.0,0.0,-20.0,-77.0,-59.0,-7.0,-50.0,-23.0
1701711493.211363,-24.0,-14.0,-28.0,52.0,10.0,18.0,16.0,-5.0
1701711493.211363,7.0,3.0,23.0,12.0,-15.0,-28.0,-3.0,1.0
1701711493.211363,1.0,0.0,-14.0,-5.0,31.0,3.0,-17.0,-4.0
1701711493.211363,-14.0,-14.0,42.0,65.0,6.0,-26.0,-19.0,-22.0
1701711493.211363,-6.0,5.0,29.0,-65.0,-31.0,19.0,11.0,0.0
1701711493.211363,-12.0,-25.0,-97.0,3.0,-22.0,-3.0,7.0,-7.0
1701711493.211363,-1.0,-19.0,-6.0,4.0,-11.0,-1.0,-18.0,-6.0
1701711493.211363,7.0,41.0,53.0,-11.0,-8.0,-23.0,-14.0,-14.0
1701711493.231693,-13.0,-25.0,20.0,22.0,20.0,4.0,1.0,10.0
1701711493.231693,-11.0,-8.0,57.0,10.0,7.0,-4.0,1.0,-1.0
1701711493.231693,-2.0,-9.0,-6.0,-71.0,-27.0,-1.0,-4.0,-33.0
1701711493.231693,-2.0,-4.0,-34.0,-12.0,14.0,9.0,5.0,35.0
1701711493.2513938,12.0,-21.0,41.0,16.0,-21.0,-8.0,1.0,4.0
1701711493.2513938,15.0,32.0,28.0,27.0,31.0,23.0,21.0,-8.0
1701711493.2513938,-23.0,-40.0,-62.0,-113.0,-52.0,-28.0,-28.0,9.0
1701711493.2513938,-5.0,-1.0,-36.0,97.0,21.0,5.0,2.0,-24.0
1701711493.2616673,-2.0,13.0,35.0,-33.0,9.0,2.0,-17.0,-4.0
1701711493.2616673,-30.0,20.0,37.0,14.0,1.0,-29.0,11.0,-6.0
1701711493.2713647,25.0,47.0,1.0,-16.0,9.0,60.0,15.0,41.0
1701711493.2713647,-31.0,-22.0,-49.0,-6.0,-4.0,-14.0,-2.0,-59.0
1701711493.2917576,6.0,16.0,78.0,23.0,-4.0,-19.0,-7.0,12.0
1701711493.2917576,-7.0,26.0,-7.0,32.0,-17.0,-8.0,-6.0,-11.0
1701711493.2917576,17.0,-10.0,-33.0,25.0,15.0,-18.0,-30.0,-7.0
1701711493.2917576,-38.0,-23.0,-57.0,-108.0,-52.0,-43.0,-11.0,-6.0
1701711493.3115408,14.0,28.0,9.0,17.0,26.0,25.0,-1.0,3.0
1701711493.3115408,25.0,-59.0,-1.0,62.0,53.0,-8.0,1.0,11.0
1701711493.3115408,-2.0,9.0,46.0,63.0,5.0,-13.0,17.0,19.0
1701711493.3115408,42.0,20.0,6.0,5.0,47.0,38.0,6.0,29.0
1701711493.3313615,-48.0,-24.0,-15.0,-33.0,-65.0,-10.0,14.0,-4.0
1701711493.3313615,49.0,12.0,-33.0,-83.0,-23.0,13.0,10.0,17.0
1701711493.3313615,-1.0,5.0,-45.0,-39.0,-3.0,-4.0,3.0,-1.0
1701711493.3313615,-2.0,-11.0,63.0,103.0,14.0,6.0,8.0,4.0
1701711493.351638,0.0,15.0,9.0,-2.0,2.0,-7.0,-9.0,-7.0
1701711493.351638,-3.0,9.0,-7.0,-89.0,0.0,24.0,12.0,5.0
1701711493.351638,-25.0,-44.0,-44.0,47.0,-37.0,-14.0,-2.0,-24.0
1701711493.351638,0.0,-16.0,30.0,-87.0,-4.0,26.0,-19.0,11.0
1701711493.3777933,15.0,66.0,54.0,90.0,13.0,13.0,16.0,-29.0
1701711493.3777933,-14.0,-19.0,-12.0,-81.0,-32.0,-13.0,-18.0,1.0
1701711493.378832,11.0,13.0,52.0,77.0,51.0,3.0,7.0,19.0
1701711493.378832,-5.0,16.0,-88.0,-123.0,-57.0,-20.0,-1.0,-23.0
1701711493.3915334,5.0,-50.0,-9.0,-69.0,22.0,-4.0,-6.0,22.0
1701711493.3915334,-15.0,9.0,97.0,113.0,20.0,9.0,4.0,-14.0
1701711493.4241073,-3.0,3.0,27.0,-37.0,-2.0,6.0,8.0,-2.0
1701711493.4241073,16.0,4.0,23.0,-50.0,-1.0,-5.0,1.0,12.0
1701711493.4241073,4.0,17.0,59.0,4.0,8.0,6.0,1.0,-18.0
1701711493.4241073,-9.0,-41.0,-73.0,22.0,0.0,4.0,10.0,14.0
1701711493.4241073,4.0,41.0,50.0,39.0,13.0,13.0,-12.0,-9.0
1701711493.4241073,-13.0,-7.0,1.0,-2.0,-65.0,-53.0,-32.0,-21.0
1701711493.4341042,-2.0,-12.0,-8.0,80.0,87.0,66.0,15.0,-9.0
1701711493.4341042,4.0,24.0,-9.0,-71.0,-50.0,-16.0,66.0,0.0
1701711493.4341042,2.0,-8.0,-12.0,-2.0,5.0,2.0,-70.0,-38.0
1701711493.4341042,-34.0,-64.0,-40.0,-44.0,-6.0,-31.0,-34.0,-26.0
1701711493.4441903,78.0,62.0,36.0,16.0,-4.0,18.0,96.0,94.0
1701711493.4441903,1.0,23.0,-28.0,44.0,42.0,9.0,-48.0,46.0
1701711493.4645824,-59.0,-55.0,-12.0,-50.0,-41.0,-32.0,-12.0,-42.0
1701711493.4645824,58.0,40.0,33.0,55.0,27.0,25.0,25.0,6.0
1701711493.4742112,-40.0,-34.0,-38.0,-53.0,-29.0,-30.0,-46.0,-43.0
1701711493.4742112,-10.0,-3.0,-1.0,-10.0,20.0,22.0,-2.0,-11.0
1701711493.4942071,-3.0,7.0,5.0,38.0,1.0,-2.0,12.0,-22.0
1701711493.4942071,5.0,17.0,-44.0,3.0,4.0,-1.0,-13.0,36.0
1701711493.4942071,-8.0,-14.0,-49.0,-35.0,-14.0,-18.0,-10.0,-14.0
1701711493.4942071,19.0,26.0,62.0,33.0,-9.0,0.0,-2.0,-3.0
1701711493.4942071,-6.0,-8.0,-24.0,1.0,16.0,9.0,3.0,10.0
1701711493.4942071,-1.0,2.0,26.0,29.0,-10.0,-1.0,14.0,6.0
1701711493.5146046,-4.0,-16.0,-76.0,-62.0,10.0,7.0,-2.0,-19.0
1701711493.5146046,-16.0,-36.0,-33.0,-72.0,-45.0,-15.0,-15.0,-16.0
1701711493.5146046,21.0,15.0,24.0,-41.0,-16.0,-14.0,12.0,33.0
1701711493.5146046,12.0,8.0,27.0,84.0,46.0,43.0,26.0,2.0
1701711493.5242102,-17.0,-3.0,-16.0,-25.0,-22.0,-36.0,-25.0,-27.0
1701711493.5242102,-24.0,-26.0,-1.0,40.0,10.0,-27.0,-47.0,-7.0
1701711493.544608,29.0,10.0,5.0,-9.0,1.0,2.0,37.0,16.0
1701711493.544608,-18.0,13.0,1.0,-12.0,5.0,3.0,-3.0,25.0
1701711493.5545905,25.0,4.0,-18.0,4.0,-13.0,-5.0,-4.0,-41.0
1701711493.5545905,-13.0,-4.0,-8.0,26.0,1.0,0.0,-33.0,-44.0
1701711493.5545905,25.0,10.0,-20.0,-22.0,-10.0,4.0,42.0,82.0
1701711493.5545905,-14.0,-13.0,12.0,27.0,20.0,12.0,-21.0,-3.0
1701711493.5746462,-8.0,-18.0,11.0,-3.0,-12.0,-11.0,10.0,23.0
1701711493.5746462,15.0,10.0,4.0,-46.0,-14.0,-26.0,-2.0,7.0
1701711493.5746462,-8.0,-9.0,3.0,-21.0,-23.0,-2.0,-5.0,-21.0
1701711493.5746462,1.0,0.0,13.0,13.0,-24.0,-4.0,-11.0,-6.0
1701711493.5942614,-26.0,-22.0,18.0,-20.0,17.0,-14.0,-23.0,-2.0
1701711493.5942614,35.0,25.0,-3.0,50.0,59.0,54.0,32.0,5.0
1701711493.5942614,-13.0,2.0,1.0,15.0,37.0,-1.0,-7.0,-13.0
1701711493.5942614,-18.0,-19.0,-41.0,-49.0,-93.0,-58.0,-23.0,-21.0
1701711493.614217,9.0,2.0,-24.0,-27.0,68.0,57.0,30.0,9.0
1701711493.614217,-2.0,-2.0,9.0,46.0,-13.0,7.0,24.0,5.0
1701711493.614217,-4.0,5.0,-13.0,-34.0,-8.0,5.0,-1.0,-16.0
1701711493.614217,-6.0,3.0,20.0,8.0,15.0,-19.0,-21.0,-10.0
1701711493.6442115,-10.0,-5.0,-17.0,25.0,-12.0,10.0,-6.0,-16.0
1701711493.6442115,-3.0,-3.0,1.0,-58.0,-9.0,6.0,6.0,7.0
1701711493.6442115,-5.0,-15.0,-4.0,-43.0,-33.0,-15.0,-12.0,-9.0
1701711493.6442115,6.0,5.0,-10.0,24.0,0.0,8.0,40.0,8.0
1701711493.6442115,-24.0,-23.0,-51.0,-106.0,-49.0,-32.0,-25.0,-1.0
1701711493.6442115,7.0,15.0,58.0,82.0,40.0,6.0,13.0,4.0
1701711493.6745937,-2.0,5.0,18.0,58.0,11.0,22.0,1.0,-2.0
1701711493.6745937,-1.0,2.0,-15.0,4.0,40.0,2.0,5.0,-5.0
1701711493.6745937,14.0,6.0,-7.0,-52.0,-36.0,-13.0,-8.0,7.0
1701711493.6745937,-16.0,-30.0,-82.0,-55.0,-37.0,-2.0,-2.0,-5.0
1701711493.6745937,3.0,4.0,-24.0,-28.0,-31.0,-13.0,-8.0,-3.0
1701711493.6745937,-9.0,-1.0,54.0,50.0,30.0,12.0,10.0,3.0
1701711493.694208,14.0,16.0,25.0,69.0,0.0,-9.0,1.0,7.0
1701711493.694208,-3.0,-6.0,-19.0,-12.0,-40.0,-19.0,-15.0,-20.0
1701711493.694208,-8.0,-13.0,-12.0,6.0,13.0,-4.0,-5.0,19.0
1701711493.694208,8.0,-3.0,5.0,39.0,25.0,46.0,13.0,22.0
1701711493.714211,5.0,19.0,-7.0,60.0,-18.0,1.0,5.0,-23.0
1701711493.714211,-9.0,-8.0,55.0,-42.0,-19.0,-14.0,-6.0,-4.0
1701711493.714211,-21.0,-1.0,-4.0,44.0,13.0,3.0,-6.0,-36.0
1701711493.714211,35.0,24.0,-9.0,-9.0,5.0,-5.0,15.0,31.0
1701711493.7344263,-17.0,-35.0,-17.0,30.0,4.0,-3.0,-11.0,-7.0
1701711493.7344263,-5.0,-10.0,32.0,-11.0,-3.0,0.0,8.0,28.0
1701711493.7344263,12.0,12.0,-53.0,-75.0,-15.0,-12.0,-18.0,-21.0
1701711493.7344263,-11.0,3.0,15.0,-30.0,-11.0,2.0,-3.0,-13.0
1701711493.754578,0.0,-10.0,-7.0,96.0,2.0,-8.0,-9.0,7.0
1701711493.754578,-8.0,5.0,-23.0,-14.0,7.0,-1.0,13.0,-6.0
1701711493.7642095,3.0,-5.0,24.0,40.0,-8.0,-3.0,-4.0,8.0
1701711493.7642095,-1.0,10.0,4.0,-36.0,16.0,2.0,4.0,5.0
1701711493.7642095,4.0,-14.0,-19.0,-98.0,-15.0,-13.0,-9.0,-23.0
1701711493.7642095,-16.0,-1.0,46.0,101.0,15.0,3.0,-8.0,2.0
1701711493.7742336,11.0,0.0,-44.0,-85.0,-36.0,-2.0,19.0,4.0
1701711493.7742336,-11.0,-7.0,-14.0,24.0,36.0,16.0,-13.0,-6.0
1701711493.7946386,-19.0,-8.0,-1.0,-18.0,-11.0,-2.0,-2.0,-14.0
1701711493.7946386,38.0,20.0,-11.0,5.0,-2.0,-2.0,5.0,6.0
1701711493.8042092,-11.0,-1.0,17.0,-45.0,1.0,0.0,-9.0,-6.0
1701711493.8042092,6.0,6.0,43.0,50.0,11.0,-7.0,-10.0,-11.0
1701711493.8142085,-25.0,-14.0,6.0,-68.0,-65.0,-17.0,-15.0,-7.0
1701711493.8142085,-12.0,-2.0,-3.0,77.0,87.0,8.0,0.0,-3.0
1701711493.8142085,0.0,-16.0,-4.0,-26.0,-53.0,-8.0,-17.0,-7.0
1701711493.8142085,8.0,3.0,15.0,32.0,61.0,16.0,26.0,4.0
1701711493.834212,19.0,28.0,22.0,-39.0,-19.0,-8.0,8.0,27.0
1701711493.834212,-8.0,12.0,-19.0,-17.0,-13.0,-3.0,-9.0,-19.0
1701711493.834212,-11.0,-12.0,7.0,48.0,17.0,-15.0,-15.0,-2.0
1701711493.834212,-20.0,-1.0,-12.0,-51.0,-32.0,-4.0,-11.0,-17.0
1701711493.8545425,10.0,-25.0,-89.0,-14.0,-6.0,8.0,0.0,7.0
1701711493.8545425,8.0,3.0,0.0,15.0,1.0,-4.0,10.0,29.0
1701711493.8545425,-2.0,15.0,56.0,100.0,36.0,3.0,-5.0,-17.0
1701711493.8545425,-5.0,-25.0,-103.0,-78.0,-45.0,-40.0,-18.0,11.0
1701711493.89433,1.0,14.0,-27.0,-8.0,41.0,31.0,14.0,6.0
1701711493.89433,0.0,6.0,21.0,-7.0,-24.0,-7.0,-11.0,-12.0
1701711493.89433,-5.0,4.0,51.0,4.0,21.0,14.0,2.0,-1.0
1701711493.89433,-17.0,-9.0,-19.0,62.0,-18.0,-18.0,-4.0,5.0
1701711493.89433,-11.0,2.0,13.0,-40.0,16.0,4.0,9.0,1.0
1701711493.89433,27.0,-4.0,5.0,61.0,4.0,6.0,7.0,22.0
1701711493.9023333,8.0,-3.0,-38.0,-57.0,-3.0,6.0,11.0,8.0
1701711493.9023333,-6.0,12.0,14.0,-14.0,-1.0,0.0,-26.0,-23.0
1701711493.9302278,21.0,14.0,63.0,53.0,33.0,5.0,20.0,23.0
1701711493.9302278,-15.0,-54.0,-97.0,-109.0,-34.0,7.0,-11.0,-16.0
1701711493.9302278,25.0,21.0,19.0,-35.0,-3.0,4.0,13.0,11.0
1701711493.9302278,-1.0,-20.0,10.0,-15.0,-2.0,-4.0,-3.0,-13.0
1701711493.9302278,-10.0,7.0,-29.0,32.0,-1.0,-9.0,-3.0,-16.0
1701711493.9302278,-14.0,-3.0,55.0,-53.0,-3.0,-4.0,-5.0,20.0
1701711493.9404602,-4.0,20.0,6.0,-11.0,-2.0,6.0,0.0,-9.0
1701711493.9404602,23.0,-8.0,-45.0,-94.0,-15.0,17.0,19.0,9.0
1701711493.9507113,-38.0,-20.0,3.0,26.0,-14.0,-24.0,-25.0,-30.0
1701711493.9507113,-19.0,14.0,4.0,11.0,8.0,-14.0,0.0,-8.0
1701711493.9607332,40.0,-35.0,-53.0,36.0,4.0,33.0,16.0,3.0
1701711493.9607332,27.0,38.0,16.0,-8.0,-1.0,15.0,13.0,32.0
1701711493.9904766,-15.0,6.0,-20.0,12.0,-14.0,1.0,1.0,-3.0
1701711493.9904766,20.0,-8.0,-32.0,-15.0,-7.0,-26.0,-7.0,8.0
1701711493.9904766,-27.0,2.0,-4.0,16.0,26.0,13.0,-14.0,2.0
1701711493.9904766,-5.0,-17.0,24.0,-1.0,-29.0,19.0,65.0,3.0
1701711494.0007935,10.0,3.0,13.0,56.0,53.0,0.0,-13.0,7.0
1701711494.0007935,-11.0,2.0,-20.0,-38.0,-30.0,-9.0,-26.0,-23.0
1701711494.0007935,-24.0,5.0,26.0,-3.0,12.0,-20.0,0.0,-7.0
1701711494.0007935,45.0,29.0,19.0,38.0,7.0,1.0,-7.0,21.0
1701711494.0107646,-20.0,-31.0,44.0,82.0,-8.0,0.0,-23.0,2.0
1701711494.0107646,4.0,0.0,-33.0,-61.0,-16.0,-5.0,11.0,11.0
1701711494.0208194,0.0,12.0,36.0,-12.0,-10.0,-16.0,-13.0,-10.0
1701711494.0208194,-25.0,5.0,66.0,30.0,22.0,11.0,-3.0,-27.0
1701711494.0306025,8.0,-18.0,-27.0,-74.0,-22.0,-7.0,-4.0,38.0
1701711494.0306025,0.0,7.0,-20.0,90.0,12.0,7.0,6.0,-60.0
1701711494.0306025,13.0,17.0,28.0,33.0,-5.0,-7.0,-9.0,39.0
1701711494.0306025,-9.0,-14.0,-63.0,42.0,28.0,-1.0,4.0,9.0
1701711494.0604804,20.0,28.0,83.0,16.0,-28.0,-2.0,12.0,-2.0
1701711494.0604804,-16.0,-11.0,-45.0,-4.0,15.0,16.0,-6.0,-5.0
1701711494.0604804,2.0,-10.0,2.0,-25.0,-1.0,-5.0,7.0,-11.0
1701711494.0604804,-22.0,-20.0,-56.0,9.0,1.0,-9.0,-12.0,-27.0
1701711494.0707424,24.0,13.0,-73.0,-23.0,6.0,-3.0,-6.0,-2.0
1701711494.0707424,-22.0,-11.0,65.0,-34.0,-15.0,-13.0,-10.0,-20.0
1701711494.100475,-6.0,9.0,-5.0,66.0,6.0,3.0,-2.0,61.0
1701711494.100475,1.0,-26.0,-39.0,-92.0,-21.0,-40.0,-29.0,-28.0
1701711494.100475,-16.0,10.0,-1.0,-31.0,2.0,16.0,-28.0,-59.0
1701711494.100475,-15.0,36.0,1.0,29.0,5.0,6.0,47.0,29.0
1701711494.100475,31.0,-45.0,-6.0,-42.0,-5.0,-14.0,-23.0,19.0
1701711494.100475,-22.0,-14.0,24.0,32.0,5.0,-26.0,-16.0,1.0
1701711494.1107993,11.0,16.0,70.0,-25.0,-7.0,7.0,-14.0,8.0
1701711494.1107993,-9.0,15.0,-15.0,-24.0,-12.0,3.0,-1.0,-15.0
1701711494.1204782,-5.0,10.0,8.0,69.0,-3.0,-18.0,4.0,-29.0
1701711494.1204782,-3.0,-43.0,-34.0,-19.0,-16.0,0.0,-13.0,12.0
1701711494.130851,19.0,16.0,6.0,61.0,31.0,3.0,9.0,-1.0
1701711494.130851,9.0,0.0,22.0,-71.0,-29.0,-2.0,-3.0,8.0
1701711494.1404781,-5.0,7.0,-13.0,-45.0,0.0,15.0,2.0,-14.0
1701711494.1404781,12.0,22.0,38.0,92.0,72.0,20.0,21.0,16.0
1701711494.150509,-5.0,-16.0,1.0,49.0,-17.0,-1.0,11.0,10.0
1701711494.150509,18.0,0.0,2.0,-14.0,-6.0,0.0,-14.0,11.0
1701711494.150509,-15.0,-16.0,-23.0,-15.0,23.0,4.0,18.0,6.0
1701711494.150509,-3.0,12.0,23.0,-19.0,-30.0,2.0,-6.0,-17.0
1701711494.1708531,-14.0,-8.0,-44.0,-9.0,9.0,-29.0,-2.0,1.0
1701711494.1708531,24.0,-7.0,49.0,56.0,30.0,-11.0,-15.0,17.0
1701711494.180478,-15.0,-26.0,-29.0,-19.0,-19.0,23.0,19.0,-39.0
1701711494.180478,7.0,33.0,9.0,-20.0,-18.0,4.0,1.0,4.0
1701711494.1908543,-8.0,-14.0,13.0,2.0,25.0,-18.0,4.0,21.0
1701711494.1908543,0.0,-23.0,51.0,50.0,-32.0,1.0,-12.0,-12.0
1701711494.2004766,-10.0,3.0,-55.0,8.0,1.0,-11.0,-11.0,-11.0
1701711494.2004766,4.0,9.0,77.0,-8.0,-4.0,0.0,-2.0,-16.0
1701711494.2208228,16.0,27.0,-3.0,-59.0,5.0,11.0,16.0,29.0
1701711494.2208228,-11.0,14.0,14.0,93.0,-1.0,-3.0,-11.0,-3.0
1701711494.2208228,2.0,-30.0,-71.0,-73.0,0.0,-1.0,6.0,-4.0
1701711494.2208228,-18.0,-15.0,-77.0,10.0,-2.0,3.0,-6.0,-27.0
1701711494.230799,30.0,-11.0,44.0,34.0,4.0,2.0,6.0,31.0
1701711494.230799,-9.0,8.0,-8.0,-39.0,20.0,21.0,-2.0,-9.0
1701711494.240479,-5.0,2.0,-11.0,-2.0,4.0,5.0,21.0,3.0
1701711494.240479,19.0,21.0,10.0,-36.0,-28.0,-18.0,-34.0,11.0
1701711494.250777,-30.0,-12.0,-5.0,-11.0,0.0,13.0,1.0,-54.0
1701711494.250777,10.0,-43.0,-57.0,-35.0,8.0,-2.0,-1.0,33.0
1701711494.2604785,-10.0,33.0,16.0,20.0,-15.0,-12.0,-3.0,-7.0
1701711494.2604785,-2.0,7.0,-6.0,-1.0,1.0,-3.0,-16.0,-3.0
1701711494.2705095,-4.0,-26.0,-31.0,-31.0,-16.0,-8.0,39.0,-3.0
1701711494.2705095,-18.0,35.0,65.0,20.0,23.0,10.0,18.0,24.0
1701711494.2705095,10.0,-14.0,12.0,-19.0,-14.0,1.0,-2.0,-18.0
1701711494.2705095,-13.0,-31.0,0.0,22.0,-3.0,-8.0,4.0,4.0
1701711494.2908719,-8.0,18.0,8.0,-17.0,-32.0,-8.0,-54.0,-14.0
1701711494.2908719,22.0,-9.0,-59.0,-88.0,-83.0,-21.0,-4.0,-18.0
1701711494.3004785,4.0,28.0,42.0,80.0,100.0,-3.0,2.0,10.0
1701711494.3004785,3.0,-1.0,3.0,47.0,10.0,34.0,17.0,-2.0
1701711494.3104763,-20.0,-5.0,35.0,-23.0,-17.0,0.0,13.0,7.0
1701711494.3104763,8.0,-9.0,-47.0,11.0,7.0,-9.0,-27.0,-16.0
1701711494.3206773,-7.0,-14.0,38.0,-42.0,-69.0,-37.0,-14.0,6.0
1701711494.3206773,13.0,25.0,44.0,-55.0,-21.0,5.0,12.0,6.0
1701711494.330736,-2.0,8.0,-10.0,66.0,23.0,7.0,-4.0,-5.0
1701711494.330736,-14.0,1.0,-63.0,-79.0,-19.0,-16.0,-4.0,-9.0
1701711494.330736,-15.0,-7.0,7.0,2.0,-9.0,-1.0,-16.0,-29.0
1701711494.330736,6.0,-2.0,-41.0,67.0,19.0,12.0,3.0,23.0
1701711494.350758,8.0,-17.0,-19.0,-19.0,-36.0,18.0,6.0,1.0
1701711494.360483,14.0,39.0,96.0,49.0,31.0,29.0,31.0,-2.0
1701711494.360483,2.0,15.0,14.0,18.0,-6.0,19.0,2.0,8.0
1701711494.360483,-11.0,-14.0,-19.0,-13.0,0.0,-19.0,-5.0,-17.0
1701711494.3904943,-4.0,-2.0,-3.0,-77.0,-29.0,-26.0,-19.0,-9.0
1701711494.3904943,-17.0,-27.0,-21.0,99.0,28.0,2.0,0.0,42.0
1701711494.3904943,-11.0,7.0,26.0,-48.0,-7.0,12.0,-32.0,-59.0
1701711494.3904943,3.0,5.0,21.0,10.0,-2.0,14.0,46.0,36.0
1701711494.3904943,22.0,31.0,-9.0,6.0,27.0,18.0,17.0,18.0
1701711494.3904943,-7.0,-27.0,49.0,42.0,13.0,-7.0,7.0,-12.0
1701711494.4005055,-8.0,0.0,-8.0,-2.0,-16.0,-16.0,-21.0,21.0
1701711494.4005055,-26.0,-20.0,-19.0,-14.0,-21.0,-22.0,-24.0,-41.0
1701711494.4204772,3.0,-13.0,-15.0,-28.0,-4.0,-9.0,-9.0,10.0
1701711494.4204772,2.0,16.0,-43.0,-120.0,-24.0,-5.0,6.0,2.0
1701711494.4284754,12.0,-6.0,75.0,127.0,43.0,5.0,4.0,10.0
1701711494.4284754,-11.0,-5.0,-113.0,-128.0,-29.0,-7.0,-12.0,-22.0
1701711494.440957,-3.0,-9.0,8.0,-6.0,17.0,3.0,7.0,0.0
1701711494.440957,19.0,29.0,45.0,30.0,17.0,17.0,3.0,13.0
1701711494.4419754,-17.0,1.0,-51.0,-55.0,-11.0,-19.0,-12.0,-12.0
1701711494.4425223,21.0,22.0,54.0,-22.0,-8.0,-11.0,2.0,11.0
1701711494.45288,0.0,-16.0,-8.0,67.0,4.0,24.0,8.0,8.0
1701711494.45288,-34.0,-36.0,-95.0,-86.0,-40.0,-33.0,-25.0,-24.0
1701711494.45288,40.0,19.0,6.0,116.0,94.0,36.0,41.0,23.0
1701711494.45288,-3.0,9.0,70.0,45.0,-9.0,8.0,7.0,6.0
1701711494.4725266,1.0,7.0,-29.0,-41.0,-28.0,-26.0,-17.0,-14.0
1701711494.4725266,-6.0,-32.0,8.0,11.0,5.0,16.0,40.0,-7.0
1701711494.4725266,7.0,1.0,-23.0,-53.0,-12.0,11.0,6.0,34.0
1701711494.4725266,-6.0,-9.0,3.0,-14.0,-36.0,-32.0,-14.0,-12.0
1701711494.502591,18.0,21.0,9.0,27.0,53.0,40.0,19.0,1.0
1701711494.502591,-8.0,-1.0,-30.0,-22.0,-7.0,1.0,-14.0,-31.0
1701711494.502591,-4.0,-1.0,45.0,2.0,-28.0,-15.0,7.0,56.0
1701711494.502591,11.0,-1.0,-43.0,-37.0,9.0,17.0,7.0,-6.0
1701711494.5127847,-15.0,-24.0,-2.0,-30.0,-2.0,-3.0,5.0,-8.0
1701711494.5127847,-2.0,-13.0,-46.0,-17.0,-3.0,-3.0,-23.0,-21.0
1701711494.5127847,-18.0,-21.0,57.0,13.0,-8.0,2.0,-6.0,-32.0
1701711494.5127847,-1.0,20.0,2.0,13.0,19.0,-7.0,-16.0,5.0
1701711494.552527,10.0,25.0,52.0,44.0,-27.0,-12.0,-5.0,12.0
1701711494.552527,11.0,-12.0,61.0,20.0,-2.0,-12.0,-4.0,19.0
1701711494.552527,-20.0,-29.0,-81.0,-87.0,-22.0,-4.0,-5.0,-27.0
1701711494.552527,4.0,7.0,25.0,63.0,19.0,3.0,3.0,8.0
1701711494.5625849,-6.0,-23.0,-46.0,-28.0,-6.0,-14.0,-4.0,-20.0
1701711494.5625849,-2.0,23.0,54.0,40.0,0.0,-7.0,-4.0,5.0
1701711494.5625849,6.0,-1.0,-14.0,103.0,-8.0,-22.0,-26.0,9.0
1701711494.5625849,1.0,-4.0,60.0,10.0,21.0,20.0,48.0,4.0
1701711494.5725288,-7.0,26.0,-17.0,-29.0,1.0,-12.0,-20.0,-13.0
1701711494.5725288,5.0,-9.0,-12.0,0.0,14.0,19.0,7.0,-8.0
1701711494.5725288,-21.0,8.0,3.0,-49.0,-15.0,-49.0,-35.0,-10.0
1701711494.5725288,-14.0,-10.0,-36.0,-1.0,2.0,23.0,-12.0,-10.0
1701711494.612523,8.0,25.0,21.0,-3.0,-5.0,-29.0,22.0,36.0
1701711494.612523,24.0,-33.0,42.0,35.0,15.0,10.0,9.0,-16.0
1701711494.612523,-5.0,-9.0,-71.0,-60.0,-23.0,4.0,-4.0,-10.0
1701711494.612523,-15.0,-19.0,4.0,-18.0,-27.0,-10.0,-10.0,-2.0
1701711494.622581,2.0,10.0,17.0,24.0,22.0,17.0,-34.0,-14.0
1701711494.622581,-12.0,2.0,12.0,1.0,-29.0,-1.0,9.0,1.0
1701711494.622581,24.0,15.0,19.0,5.0,34.0,28.0,22.0,20.0
1701711494.622581,-3.0,8.0,50.0,77.0,9.0,-2.0,34.0,33.0
1701711494.642664,1.0,-28.0,-56.0,-70.0,-9.0,-8.0,-2.0,-11.0
1701711494.642664,-1.0,17.0,-11.0,8.0,-9.0,-4.0,-9.0,6.0
1701711494.642664,-9.0,-13.0,22.0,-39.0,-32.0,1.0,-22.0,-21.0
1701711494.642664,5.0,-2.0,-46.0,-61.0,27.0,-13.0,-17.0,-19.0
1701711494.662555,-9.0,-14.0,27.0,83.0,-6.0,21.0,13.0,9.0
1701711494.662555,2.0,47.0,11.0,-64.0,15.0,-2.0,5.0,21.0
1701711494.662555,-8.0,-13.0,-47.0,46.0,-7.0,3.0,-7.0,-21.0
1701711494.662555,2.0,10.0,4.0,-26.0,3.0,-30.0,-18.0,-6.0
1701711494.6825836,-11.0,-10.0,21.0,31.0,-12.0,16.0,29.0,-2.0
1701711494.6825836,8.0,-13.0,-25.0,21.0,34.0,18.0,-19.0,3.0
1701711494.6825836,-8.0,-2.0,-37.0,-27.0,-11.0,-18.0,7.0,-32.0
1701711494.6825836,13.0,27.0,18.0,41.0,-10.0,-2.0,-27.0,27.0
1701711494.712524,-1.0,-13.0,-42.0,19.0,14.0,-7.0,-3.0,9.0
1701711494.712524,-25.0,4.0,-15.0,-11.0,9.0,2.0,18.0,1.0
1701711494.712524,28.0,5.0,18.0,-44.0,-38.0,-2.0,9.0,6.0
1701711494.712524,6.0,-8.0,-11.0,19.0,59.0,34.0,22.0,-1.0
1701711494.712524,-14.0,-17.0,-37.0,-108.0,-64.0,-21.0,-20.0,-15.0
1701711494.712524,-2.0,7.0,61.0,64.0,63.0,33.0,10.0,-5.0
1701711494.712524,-2.0,-11.0,-87.0,-95.0,-28.0,-27.0,-29.0,0.0
1701711494.712524,-39.0,-24.0,35.0,34.0,-32.0,5.0,-28.0,-44.0
1701711494.7427807,20.0,-2.0,12.0,-10.0,-2.0,4.0,62.0,42.0
1701711494.7427807,0.0,-17.0,-35.0,-12.0,-17.0,-26.0,-15.0,-22.0
1701711494.7427807,15.0,8.0,5.0,-1.0,1.0,-18.0,-14.0,-3.0
1701711494.7427807,-16.0,-23.0,-8.0,5.0,0.0,49.0,6.0,5.0
1701711494.7627776,-10.0,13.0,19.0,28.0,12.0,-23.0,-23.0,-38.0
1701711494.7627776,14.0,5.0,22.0,5.0,-14.0,-8.0,3.0,6.0
1701711494.7627776,-5.0,-7.0,26.0,1.0,12.0,-16.0,23.0,33.0
1701711494.7627776,21.0,10.0,15.0,29.0,2.0,39.0,9.0,-9.0
1701711494.7728252,-7.0,-16.0,-48.0,-8.0,-9.0,-19.0,-79.0,1.0
1701711494.7728252,-2.0,-9.0,-26.0,-93.0,-3.0,34.0,50.0,-2.0
1701711494.7728252,-20.0,11.0,52.0,127.0,5.0,-7.0,-12.0,-34.0
1701711494.7728252,-6.0,-11.0,-53.0,-30.0,18.0,-21.0,-4.0,-1.0
1701711494.8027816,12.0,12.0,20.0,20.0,-3.0,1.0,-1.0,8.0
1701711494.8027816,4.0,-9.0,-18.0,28.0,-14.0,-19.0,-19.0,1.0
1701711494.8027816,-12.0,-18.0,10.0,7.0,16.0,28.0,19.0,11.0
1701711494.8027816,11.0,17.0,72.0,68.0,24.0,-11.0,8.0,13.0
1701711494.8327801,0.0,-9.0,11.0,-6.0,-14.0,9.0,5.0,-7.0
1701711494.8327801,-16.0,-17.0,-10.0,-8.0,-69.0,-27.0,-23.0,-3.0
1701711494.8327801,12.0,17.0,-23.0,-65.0,38.0,28.0,24.0,20.0
1701711494.8327801,-6.0,25.0,41.0,39.0,-42.0,-29.0,-17.0,-7.0
1701711494.8327801,-8.0,-27.0,-21.0,-8.0,22.0,9.0,10.0,-2.0
1701711494.8327801,-26.0,-12.0,20.0,5.0,-13.0,-12.0,-22.0,-19.0
1701711494.8327801,23.0,45.0,46.0,0.0,20.0,8.0,-2.0,7.0
1701711494.8327801,1.0,-17.0,-128.0,-121.0,-57.0,-35.0,-39.0,-23.0
1701711494.8627787,-5.0,-1.0,54.0,71.0,27.0,10.0,15.0,-6.0
1701711494.8627787,-2.0,-14.0,7.0,-32.0,-7.0,-11.0,7.0,25.0
1701711494.8627787,-11.0,-9.0,27.0,12.0,-9.0,5.0,1.0,-20.0
1701711494.8627787,2.0,-22.0,-45.0,-46.0,7.0,-36.0,-14.0,15.0
1701711494.8731306,-20.0,11.0,50.0,-2.0,9.0,34.0,17.0,-10.0
1701711494.8731306,23.0,14.0,-31.0,-20.0,15.0,-3.0,7.0,-7.0
1701711494.88283,-5.0,3.0,5.0,72.0,18.0,9.0,7.0,16.0
1701711494.88283,6.0,-7.0,5.0,-30.0,-36.0,-1.0,5.0,-11.0
1701711494.8927772,-3.0,-3.0,-76.0,-16.0,9.0,-26.0,-11.0,-22.0
1701711494.8927772,-7.0,7.0,71.0,59.0,16.0,-3.0,-35.0,9.0
1701711494.8927772,-2.0,-1.0,24.0,-14.0,-10.0,35.0,45.0,-1.0
1701711494.8927772,-1.0,5.0,10.0,30.0,7.0,-1.0,2.0,20.0
1701711494.9227777,8.0,6.0,-34.0,-53.0,-8.0,-1.0,16.0,20.0
1701711494.9227777,-6.0,17.0,22.0,79.0,34.0,15.0,-12.0,-29.0
1701711494.9227777,0.0,-12.0,-44.0,-109.0,-35.0,-44.0,-19.0,-9.0
1701711494.9227777,-7.0,-22.0,24.0,90.0,26.0,30.0,4.0,-10.0
1701711494.932929,-3.0,3.0,8.0,-73.0,-15.0,2.0,18.0,6.0
1701711494.932929,4.0,22.0,-26.0,17.0,31.0,-1.0,2.0,19.0
1701711494.9430604,22.0,-26.0,-18.0,-19.0,-17.0,11.0,-5.0,6.0
1701711494.9430604,9.0,24.0,10.0,-104.0,-2.0,7.0,27.0,5.0
1701711494.9594185,-27.0,-20.0,-1.0,68.0,-8.0,-26.0,-24.0,-5.0
1701711494.9604368,29.0,35.0,16.0,21.0,33.0,17.0,2.0,-32.0
1701711494.9614358,-18.0,-8.0,16.0,-32.0,-1.0,-1.0,-19.0,28.0
1701711494.9614358,13.0,10.0,-5.0,2.0,13.0,1.0,18.0,-5.0
1701711494.995854,5.0,12.0,11.0,-23.0,-24.0,-6.0,-16.0,17.0
1701711494.995854,-10.0,-8.0,-60.0,-42.0,-26.0,-6.0,-32.0,-25.0
1701711494.995854,2.0,4.0,-4.0,43.0,0.0,-3.0,46.0,-6.0
1701711494.995854,-8.0,12.0,42.0,-11.0,-6.0,-4.0,-20.0,29.0
1701711494.995854,3.0,1.0,1.0,-7.0,9.0,12.0,25.0,10.0
1701711494.995854,-8.0,-21.0,-19.0,48.0,-10.0,-44.0,-15.0,2.0
1701711494.995854,-13.0,-13.0,1.0,-89.0,-14.0,20.0,-16.0,-6.0
1701711494.995854,-4.0,-21.0,-49.0,-19.0,-14.0,-9.0,20.0,-1.0
1701711495.0161378,-20.0,-10.0,-25.0,-55.0,6.0,-3.0,-17.0,-20.0
1701711495.0161378,6.0,14.0,28.0,35.0,-13.0,21.0,12.0,8.0
1701711495.0161378,-21.0,7.0,-25.0,-13.0,-28.0,-8.0,10.0,-2.0
1701711495.0161378,16.0,15.0,19.0,55.0,45.0,13.0,-8.0,-14.0
1701711495.0562127,-33.0,5.0,0.0,-35.0,-70.0,-40.0,-47.0,-19.0
1701711495.0562127,44.0,18.0,54.0,20.0,76.0,34.0,58.0,33.0
1701711495.0562127,-26.0,16.0,-10.0,3.0,16.0,-8.0,-4.0,-7.0
1701711495.0562127,11.0,-13.0,-56.0,-30.0,-24.0,-19.0,-52.0,-18.0
1701711495.0562127,12.0,4.0,-11.0,-14.0,-44.0,0.0,30.0,7.0
1701711495.0562127,-31.0,-29.0,-8.0,-8.0,-24.0,-52.0,-34.0,-1.0
1701711495.0562127,23.0,17.0,42.0,78.0,57.0,33.0,14.0,12.0
1701711495.0562127,-31.0,-15.0,-54.0,-80.0,-55.0,-31.0,-19.0,-13.0
1701711495.0765114,5.0,0.0,-11.0,-17.0,37.0,-18.0,-29.0,-22.0
1701711495.0765114,-9.0,-21.0,-32.0,-119.0,-55.0,34.0,32.0,-4.0
1701711495.0765114,12.0,10.0,19.0,127.0,30.0,18.0,5.0,28.0
1701711495.0765114,-20.0,-10.0,78.0,-55.0,7.0,1.0,7.0,-18.0
1701711495.1162145,20.0,-15.0,-70.0,-51.0,15.0,13.0,-2.0,15.0
1701711495.1162145,-3.0,13.0,87.0,89.0,1.0,-10.0,-4.0,-1.0
1701711495.1162145,5.0,2.0,-74.0,-95.0,-16.0,-10.0,-10.0,-1.0
1701711495.1162145,1.0,-14.0,1.0,118.0,13.0,9.0,13.0,-2.0
1701711495.1162145,4.0,18.0,42.0,-22.0,7.0,8.0,-2.0,-34.0
1701711495.1162145,16.0,28.0,42.0,43.0,2.0,4.0,9.0,61.0
1701711495.12621,-26.0,-37.0,-4.0,60.0,-9.0,-41.0,-29.0,-69.0
1701711495.12621,25.0,0.0,-6.0,-44.0,12.0,4.0,-4.0,97.0
1701711495.136243,8.0,10.0,34.0,38.0,19.0,70.0,52.0,-2.0
1701711495.136243,-12.0,-30.0,-51.0,-21.0,2.0,-20.0,-13.0,-5.0
1701711495.136243,-2.0,7.0,11.0,-25.0,-26.0,-16.0,-11.0,-28.0
1701711495.136243,-19.0,2.0,3.0,43.0,11.0,-6.0,-12.0,-26.0
1701711495.156243,-3.0,-10.0,15.0,36.0,17.0,-11.0,-19.0,7.0
1701711495.156243,17.0,24.0,53.0,-28.0,1.0,30.0,25.0,12.0
1701711495.156243,11.0,-10.0,-3.0,-17.0,-10.0,-1.0,-5.0,33.0
1701711495.156243,-8.0,-1.0,-15.0,2.0,15.0,-1.0,21.0,-54.0
1701711495.1762125,3.0,14.0,-5.0,20.0,-11.0,-24.0,-54.0,-10.0
1701711495.1762125,-17.0,-14.0,-46.0,-42.0,-76.0,-37.0,-20.0,-13.0
1701711495.1762125,-28.0,-5.0,51.0,6.0,93.0,41.0,11.0,4.0
1701711495.1762125,28.0,22.0,-40.0,-14.0,-20.0,-8.0,19.0,18.0
1701711495.196665,-27.0,1.0,44.0,76.0,36.0,37.0,32.0,19.0
1701711495.196665,50.0,9.0,-90.0,-111.0,-15.0,-28.0,-27.0,-3.0
1701711495.196665,39.0,26.0,-7.0,13.0,-61.0,-5.0,6.0,13.0
1701711495.196665,6.0,-1.0,78.0,83.0,14.0,15.0,14.0,3.0
1701711495.2162447,-6.0,3.0,-34.0,-59.0,-12.0,-17.0,2.0,6.0
1701711495.2162447,-35.0,15.0,-32.0,-74.0,-18.0,-19.0,-50.0,-31.0
1701711495.2162447,9.0,-25.0,-11.0,100.0,14.0,48.0,51.0,15.0
1701711495.2162447,-3.0,-3.0,19.0,-17.0,0.0,6.0,10.0,15.0
1701711495.236213,14.0,31.0,-22.0,-33.0,-10.0,-20.0,-3.0,11.0
1701711495.236213,-24.0,-4.0,76.0,80.0,48.0,15.0,-12.0,-61.0
1701711495.236213,8.0,0.0,-4.0,6.0,-22.0,-30.0,-19.0,7.0
1701711495.236213,-5.0,16.0,9.0,36.0,0.0,19.0,1.0,-5.0
1701711495.256534,-11.0,-50.0,-19.0,-46.0,-6.0,-2.0,3.0,-7.0
1701711495.256534,19.0,6.0,-11.0,-1.0,10.0,13.0,19.0,25.0
1701711495.256534,-8.0,-35.0,-3.0,-44.0,-10.0,-19.0,-15.0,10.0
1701711495.256534,-19.0,15.0,64.0,25.0,-9.0,-7.0,-10.0,-41.0
1701711495.2762444,10.0,-15.0,9.0,-41.0,4.0,-13.0,-11.0,0.0
1701711495.2762444,13.0,-28.0,-32.0,1.0,3.0,8.0,21.0,27.0
1701711495.2866,-8.0,12.0,-39.0,-65.0,-13.0,-13.0,-13.0,-42.0
1701711495.2866,0.0,-22.0,43.0,39.0,17.0,-2.0,-8.0,38.0
1701711495.2962124,7.0,8.0,49.0,124.0,32.0,17.0,-5.0,-28.0
1701711495.2962124,-31.0,-18.0,-70.0,-73.0,-73.0,-9.0,7.0,-7.0
1701711495.2962124,14.0,47.0,89.0,39.0,37.0,25.0,33.0,22.0
1701711495.2962124,13.0,-41.0,-60.0,-92.0,-23.0,-10.0,-11.0,-18.0
1701711495.3162136,-41.0,30.0,24.0,25.0,44.0,7.0,-15.0,-35.0
1701711495.3162136,23.0,-67.0,20.0,20.0,27.0,-23.0,-27.0,42.0
1701711495.336543,-15.0,1.0,-15.0,-22.0,-72.0,-14.0,4.0,-15.0
1701711495.336543,-59.0,-21.0,-38.0,-78.0,-60.0,-46.0,-42.0,-40.0
1701711495.336543,73.0,23.0,74.0,127.0,101.0,18.0,-4.0,38.0
1701711495.336543,19.0,20.0,-10.0,-3.0,-7.0,25.0,53.0,20.0
1701711495.336543,-20.0,-34.0,-49.0,-81.0,-6.0,-20.0,-29.0,-12.0
1701711495.3462164,-8.0,3.0,-34.0,28.0,-11.0,-7.0,4.0,16.0
1701711495.3562152,-28.0,-4.0,24.0,26.0,-40.0,-23.0,-32.0,-32.0
1701711495.3562152,-37.0,-17.0,-77.0,-43.0,1.0,-12.0,-17.0,-32.0
1701711495.3562152,14.0,-1.0,5.0,11.0,17.0,10.0,8.0,31.0
1701711495.3562152,20.0,32.0,-10.0,5.0,12.0,18.0,14.0,-5.0
1701711495.3862138,11.0,3.0,34.0,-25.0,-21.0,-12.0,4.0,11.0
1701711495.3862138,-8.0,-6.0,42.0,84.0,23.0,11.0,7.0,3.0
1701711495.3862138,-10.0,28.0,11.0,-20.0,-10.0,-16.0,-26.0,-20.0
1701711495.3862138,10.0,-24.0,-14.0,-68.0,-2.0,29.0,21.0,17.0
1701711495.4066176,15.0,-26.0,-41.0,-100.0,-35.0,-5.0,15.0,11.0
1701711495.4066176,-10.0,11.0,50.0,62.0,1.0,5.0,2.0,1.0
1701711495.4162133,-25.0,-14.0,19.0,44.0,12.0,-5.0,-23.0,-22.0
1701711495.4162133,19.0,17.0,-73.0,14.0,11.0,-10.0,-5.0,-13.0
1701711495.4162133,-9.0,-5.0,-9.0,6.0,-12.0,-14.0,-3.0,2.0
1701711495.4162133,4.0,8.0,-13.0,-47.0,4.0,28.0,15.0,0.0
1701711495.426211,-16.0,-20.0,5.0,1.0,10.0,5.0,0.0,-55.0
1701711495.426211,-5.0,23.0,-6.0,12.0,22.0,14.0,5.0,7.0
1701711495.4362118,53.0,9.0,-13.0,-25.0,4.0,7.0,30.0,67.0
1701711495.4362118,-13.0,2.0,-27.0,24.0,11.0,-11.0,-21.0,19.0
1701711495.4362118,38.0,8.0,-24.0,-100.0,-13.0,51.0,29.0,10.0
1701711495.4362118,-24.0,6.0,22.0,18.0,3.0,-9.0,-7.0,-17.0
1701711495.4665453,-43.0,-12.0,11.0,24.0,0.0,2.0,-2.0,-30.0
1701711495.4665453,18.0,7.0,16.0,-94.0,-10.0,-11.0,-5.0,-7.0
1701711495.4665453,-39.0,-17.0,23.0,47.0,-5.0,-37.0,-27.0,-11.0
1701711495.4665453,40.0,17.0,-60.0,-43.0,-55.0,2.0,26.0,13.0
1701711495.4850268,-15.0,-23.0,0.0,34.0,43.0,4.0,-25.0,-23.0
1701711495.4850268,-12.0,-11.0,4.0,-11.0,0.0,-12.0,2.0,-33.0
1701711495.4870155,19.0,3.0,19.0,42.0,39.0,-7.0,13.0,59.0
1701711495.4870155,-16.0,-16.0,-3.0,-46.0,-8.0,-12.0,-43.0,-3.0
1701711495.5082202,11.0,5.0,-9.0,27.0,8.0,-23.0,11.0,5.0
1701711495.5082202,7.0,8.0,-18.0,-24.0,-19.0,0.0,1.0,10.0
1701711495.5082202,-19.0,4.0,-62.0,-76.0,-23.0,-10.0,-17.0,-24.0
1701711495.5082202,-14.0,-18.0,-19.0,89.0,17.0,-1.0,-2.0,6.0
1701711495.5182185,13.0,23.0,72.0,37.0,8.0,10.0,-6.0,1.0
1701711495.5182185,-28.0,-9.0,-4.0,-25.0,0.0,-10.0,-16.0,-37.0
1701711495.5182185,11.0,6.0,-18.0,-83.0,-30.0,-5.0,4.0,28.0
1701711495.5182185,-4.0,-27.0,-86.0,-3.0,22.0,12.0,2.0,-30.0
1701711495.5386455,-6.0,-19.0,-31.0,-91.0,-36.0,-2.0,6.0,17.0
1701711495.5386455,-6.0,-2.0,71.0,104.0,11.0,5.0,6.0,-23.0
1701711495.5386455,38.0,40.0,111.0,115.0,2.0,-1.0,8.0,43.0
1701711495.5386455,5.0,-4.0,21.0,-83.0,1.0,-6.0,3.0,8.0
1701711495.5582218,-26.0,-15.0,-37.0,28.0,1.0,-3.0,-12.0,-44.0
1701711495.5582218,8.0,30.0,49.0,-44.0,-23.0,8.0,9.0,14.0
1701711495.5582218,12.0,-22.0,-60.0,50.0,11.0,-11.0,-19.0,-54.0
1701711495.5582218,13.0,25.0,86.0,6.0,6.0,-1.0,12.0,62.0
1701711495.5785482,15.0,-28.0,-82.0,-38.0,-14.0,12.0,14.0,-7.0
1701711495.5785482,-22.0,3.0,-8.0,37.0,24.0,17.0,1.0,-8.0
1701711495.5785482,-1.0,-5.0,6.0,16.0,11.0,11.0,-7.0,-12.0
1701711495.5785482,-4.0,15.0,6.0,-16.0,3.0,3.0,-1.0,-20.0
1701711495.6285522,-8.0,-8.0,-70.0,-99.0,-42.0,-15.0,-6.0,13.0
1701711495.6285522,19.0,16.0,45.0,89.0,15.0,-13.0,5.0,-6.0
1701711495.6285522,-18.0,0.0,21.0,-24.0,-1.0,5.0,16.0,12.0
1701711495.6285522,-1.0,-28.0,-46.0,-3.0,4.0,-8.0,-15.0,-11.0
1701711495.6285522,-21.0,18.0,44.0,32.0,10.0,11.0,21.0,3.0
1701711495.6285522,19.0,-34.0,-90.0,-30.0,-11.0,-17.0,-36.0,6.0
1701711495.6285522,-15.0,8.0,81.0,21.0,12.0,-11.0,-1.0,-2.0
1701711495.6285522,7.0,18.0,-23.0,-50.0,-20.0,25.0,17.0,13.0
1701711495.6385877,21.0,0.0,80.0,54.0,14.0,8.0,-5.0,-1.0
1701711495.6385877,-31.0,-11.0,-18.0,-32.0,-36.0,0.0,6.0,-5.0
1701711495.6385877,17.0,4.0,-68.0,-47.0,-21.0,4.0,3.0,9.0
1701711495.6385877,-15.0,5.0,87.0,53.0,61.0,11.0,-11.0,-23.0
1701711495.6589437,-11.0,-2.0,34.0,34.0,-37.0,1.0,9.0,5.0
1701711495.6685512,6.0,-3.0,-67.0,-60.0,5.0,0.0,5.0,11.0
1701711495.6685512,3.0,-5.0,-52.0,-40.0,-34.0,-6.0,-9.0,-32.0
1701711495.6685512,0.0,-1.0,41.0,49.0,-7.0,-15.0,-9.0,52.0
1701711495.6785502,-19.0,0.0,-38.0,-39.0,-10.0,-11.0,-5.0,-41.0
1701711495.6785502,20.0,17.0,23.0,35.0,13.0,12.0,5.0,9.0
1701711495.6785502,-4.0,6.0,5.0,6.0,8.0,-14.0,-14.0,-12.0
1701711495.6785502,-5.0,-12.0,-21.0,-26.0,-18.0,-24.0,-3.0,-9.0
1701711495.6985888,-5.0,-11.0,-2.0,27.0,18.0,44.0,34.0,10.0
1701711495.6985888,28.0,-7.0,-40.0,-14.0,9.0,1.0,-7.0,20.0
1701711495.6985888,-34.0,-5.0,-2.0,-2.0,9.0,40.0,24.0,3.0
1701711495.6985888,-22.0,-25.0,23.0,7.0,-16.0,-10.0,-7.0,-30.0
1701711495.718737,31.0,25.0,13.0,-13.0,4.0,8.0,1.0,27.0
1701711495.718737,-30.0,-6.0,14.0,-6.0,5.0,24.0,36.0,12.0
1701711495.718737,67.0,11.0,-6.0,-11.0,-11.0,-33.0,-9.0,14.0
1701711495.718737,-9.0,-5.0,9.0,0.0,-23.0,-6.0,-6.0,1.0
1701711495.738555,-3.0,28.0,-36.0,-77.0,-40.0,-17.0,-27.0,-10.0
1701711495.738555,-26.0,-31.0,66.0,98.0,51.0,-19.0,-18.0,-8.0
1701711495.738555,-32.0,2.0,-33.0,-22.0,44.0,41.0,34.0,22.0
1701711495.738555,56.0,20.0,-64.0,-53.0,-50.0,-29.0,-36.0,-9.0
1701711495.7585523,-13.0,2.0,22.0,69.0,44.0,-16.0,1.0,9.0
1701711495.7685502,-3.0,19.0,44.0,16.0,7.0,-8.0,21.0,-2.0
1701711495.7685502,4.0,-32.0,-6.0,91.0,12.0,4.0,-12.0,4.0
1701711495.7685502,-12.0,16.0,14.0,-4.0,13.0,8.0,4.0,-14.0
1701711495.7788029,7.0,4.0,-49.0,-84.0,-38.0,-8.0,-3.0,-2.0
1701711495.7788029,0.0,23.0,27.0,18.0,-28.0,-9.0,-16.0,-15.0
1701711495.7788029,-10.0,-13.0,-38.0,4.0,-13.0,-4.0,-2.0,-4.0
1701711495.7788029,-9.0,-18.0,-3.0,13.0,21.0,0.0,21.0,-4.0
1701711495.7985556,-12.0,-16.0,8.0,1.0,-31.0,-16.0,-23.0,-3.0
1701711495.7985556,2.0,-2.0,-24.0,-44.0,-9.0,-10.0,-16.0,-3.0
1701711495.7985556,3.0,10.0,13.0,-17.0,-11.0,25.0,17.0,4.0
1701711495.7985556,-4.0,-17.0,-12.0,13.0,18.0,-18.0,-9.0,-25.0
1701711495.8385558,-9.0,-17.0,-10.0,3.0,-8.0,9.0,12.0,3.0
1701711495.8385558,6.0,7.0,-14.0,0.0,26.0,17.0,5.0,-5.0
1701711495.8385558,15.0,13.0,56.0,76.0,-18.0,-16.0,2.0,23.0
1701711495.8385558,-18.0,0.0,-10.0,58.0,-10.0,-6.0,-22.0,-34.0
1701711495.8385558,4.0,-2.0,-20.0,-58.0,-7.0,1.0,1.0,15.0
1701711495.8385558,4.0,24.0,-50.0,-97.0,-42.0,-10.0,-15.0,-30.0
1701711495.8385558,-8.0,-25.0,-14.0,73.0,15.0,-4.0,-8.0,-10.0
1701711495.8385558,-14.0,2.0,44.0,17.0,-15.0,-4.0,17.0,16.0
1701711495.8585553,14.0,1.0,-4.0,59.0,32.0,3.0,-11.0,-10.0
1701711495.8585553,7.0,12.0,-27.0,-45.0,-32.0,-14.0,-2.0,7.0
1701711495.8585553,-13.0,-11.0,4.0,-26.0,18.0,27.0,24.0,9.0
1701711495.8585553,-4.0,-10.0,-41.0,-21.0,-6.0,3.0,-14.0,-25.0
1701711495.8785617,6.0,11.0,41.0,-43.0,-15.0,-13.0,-16.0,24.0
1701711495.8785617,-9.0,-38.0,-3.0,47.0,11.0,-8.0,-1.0,6.0
1701711495.898553,-5.0,15.0,12.0,-70.0,5.0,-10.0,-27.0,-31.0
1701711495.898553,14.0,-14.0,38.0,72.0,20.0,17.0,47.0,40.0
1701711495.898553,-18.0,4.0,-19.0,-63.0,-26.0,2.0,-13.0,-27.0
1701711495.898553,-2.0,-15.0,-20.0,-18.0,-2.0,-9.0,-12.0,-12.0
1701711495.898553,-22.0,-22.0,-21.0,-51.0,-13.0,-19.0,-35.0,-10.0
1701711495.898553,-8.0,-4.0,-22.0,-38.0,7.0,34.0,44.0,0.0
1701711495.9185684,27.0,23.0,25.0,48.0,8.0,-5.0,-19.0,-3.0
1701711495.9185684,4.0,-14.0,-25.0,2.0,21.0,18.0,28.0,14.0
1701711495.9185684,-8.0,3.0,61.0,36.0,0.0,-27.0,-20.0,-3.0
1701711495.9185684,9.0,11.0,22.0,-36.0,20.0,27.0,24.0,11.0
1701711495.9485512,-16.0,-9.0,0.0,18.0,-7.0,-9.0,2.0,-11.0
1701711495.9485512,-7.0,4.0,-20.0,-2.0,1.0,11.0,-31.0,-4.0
1701711495.9485512,21.0,10.0,2.0,-3.0,5.0,9.0,39.0,23.0
1701711495.9485512,-7.0,-5.0,-19.0,-36.0,-16.0,-31.0,-27.0,-13.0
1701711495.9588947,-10.0,3.0,-1.0,40.0,10.0,-19.0,-6.0,1.0
1701711495.9588947,6.0,-7.0,12.0,-25.0,-6.0,-6.0,-19.0,1.0
1701711495.9588947,-4.0,9.0,-23.0,-49.0,-17.0,8.0,-4.0,-6.0
1701711495.9588947,8.0,14.0,43.0,65.0,-3.0,7.0,1.0,11.0
1701711495.9785535,-1.0,-40.0,-9.0,-9.0,13.0,0.0,17.0,-2.0
1701711495.9785535,-41.0,-11.0,-25.0,-36.0,-7.0,-6.0,3.0,-21.0
1701711495.9885514,13.0,-1.0,16.0,26.0,-23.0,-19.0,-15.0,30.0
1701711495.9885514,12.0,5.0,65.0,88.0,42.0,7.0,-7.0,-19.0
1701711495.9987168,-12.0,-1.0,-93.0,-59.0,-5.0,-8.0,-12.0,0.0
1701711495.9987168,4.0,-19.0,-17.0,-57.0,-18.0,10.0,11.0,-3.0
1701711495.9987168,-14.0,10.0,-17.0,-38.0,-10.0,-23.0,-3.0,-8.0
1701711495.9987168,4.0,-12.0,-11.0,-56.0,-25.0,7.0,-33.0,-4.0
1701711496.0246646,12.0,12.0,43.0,76.0,27.0,2.0,42.0,22.0
1701711496.0246646,6.0,12.0,17.0,-43.0,8.0,22.0,-1.0,2.0
1701711496.0266593,-5.0,-15.0,-75.0,-43.0,13.0,10.0,15.0,-16.0
1701711496.0266593,-7.0,16.0,-2.0,-39.0,-27.0,-15.0,-12.0,-11.0
1701711496.038746,-14.0,-26.0,-10.0,61.0,10.0,-5.0,-16.0,-16.0
1701711496.038746,5.0,36.0,33.0,-61.0,-36.0,-15.0,-1.0,17.0
1701711496.0711703,18.0,3.0,24.0,86.0,21.0,4.0,4.0,3.0
1701711496.0711703,-6.0,0.0,-5.0,-30.0,-4.0,-9.0,-1.0,15.0
1701711496.0711703,-2.0,-19.0,11.0,34.0,0.0,12.0,11.0,-4.0
1701711496.0711703,-1.0,2.0,7.0,75.0,16.0,2.0,1.0,-1.0
1701711496.0711703,1.0,3.0,40.0,-24.0,-10.0,-8.0,-12.0,-5.0
1701711496.0711703,-6.0,11.0,8.0,11.0,22.0,4.0,3.0,0.0
1701711496.08156,2.0,11.0,-16.0,-62.0,-8.0,-2.0,-2.0,1.0
1701711496.08156,-1.0,-21.0,-27.0,-14.0,-9.0,-10.0,-11.0,-4.0
1701711496.08156,-5.0,-8.0,11.0,32.0,-4.0,13.0,-5.0,-17.0
1701711496.08156,5.0,-9.0,-1.0,7.0,6.0,17.0,23.0,9.0
1701711496.0915596,5.0,18.0,16.0,-16.0,-5.0,16.0,30.0,27.0
1701711496.0915596,7.0,4.0,-4.0,40.0,19.0,-3.0,1.0,-7.0
1701711496.1111724,1.0,-3.0,-3.0,-52.0,5.0,-15.0,-11.0,-18.0
1701711496.1111724,-20.0,1.0,28.0,64.0,-41.0,-9.0,-12.0,-2.0
1701711496.1215053,-9.0,-20.0,5.0,33.0,18.0,0.0,-8.0,-8.0
1701711496.1215053,-6.0,-14.0,4.0,61.0,14.0,7.0,4.0,-2.0
1701711496.1215053,-1.0,-32.0,14.0,64.0,50.0,12.0,7.0,10.0
1701711496.1215053,-9.0,22.0,23.0,37.0,-19.0,-14.0,-4.0,-17.0
1701711496.1417935,14.0,13.0,37.0,26.0,41.0,17.0,-5.0,11.0
1701711496.1417935,6.0,-19.0,9.0,-28.0,-57.0,-29.0,-15.0,-10.0
1701711496.1417935,-7.0,21.0,-1.0,-22.0,-11.0,-8.0,-5.0,-1.0
1701711496.1417935,1.0,-23.0,-96.0,0.0,6.0,-18.0,-10.0,-9.0
1701711496.171521,-21.0,5.0,8.0,-9.0,-13.0,7.0,-16.0,-4.0
1701711496.171521,3.0,15.0,27.0,12.0,29.0,19.0,27.0,2.0
1701711496.171521,29.0,15.0,6.0,-27.0,-21.0,-13.0,8.0,8.0
1701711496.171521,4.0,-1.0,-17.0,-37.0,12.0,-3.0,7.0,5.0
1701711496.181814,-8.0,6.0,-39.0,-24.0,-19.0,-23.0,-31.0,-7.0
1701711496.181814,24.0,-1.0,-11.0,-15.0,1.0,21.0,7.0,5.0
1701711496.181814,-9.0,6.0,7.0,-3.0,-10.0,-15.0,-7.0,-4.0
1701711496.181814,-12.0,-30.0,-12.0,-67.0,-8.0,-9.0,-9.0,4.0
1701711496.201905,23.0,17.0,6.0,-8.0,17.0,1.0,4.0,-9.0
1701711496.201905,-8.0,-7.0,20.0,10.0,-5.0,6.0,-3.0,-4.0
1701711496.201905,0.0,3.0,-12.0,1.0,3.0,7.0,22.0,25.0
1701711496.201905,9.0,0.0,3.0,-5.0,9.0,1.0,1.0,-1.0
1701711496.2115223,-9.0,-15.0,-5.0,-29.0,-22.0,0.0,-5.0,-7.0
1701711496.2115223,-1.0,7.0,9.0,14.0,21.0,7.0,13.0,16.0
1701711496.2215564,4.0,1.0,-47.0,-36.0,-26.0,-19.0,-11.0,-23.0
1701711496.2215564,-3.0,-15.0,-10.0,13.0,17.0,57.0,22.0,31.0
1701711496.241621,4.0,13.0,10.0,-97.0,-27.0,-4.0,13.0,-12.0
1701711496.241621,4.0,36.0,55.0,119.0,38.0,1.0,-17.0,11.0
1701711496.251737,-9.0,-18.0,-26.0,-42.0,-11.0,2.0,-9.0,-6.0
1701711496.251737,7.0,-1.0,0.0,24.0,-10.0,-15.0,-1.0,1.0
1701711496.2615552,6.0,9.0,16.0,27.0,27.0,8.0,2.0,15.0
1701711496.2615552,-20.0,-25.0,-108.0,-112.0,-37.0,-5.0,-8.0,-20.0
1701711496.2615552,18.0,15.0,109.0,100.0,37.0,10.0,-5.0,1.0
1701711496.2615552,-3.0,26.0,-31.0,-103.0,-9.0,-14.0,-13.0,-1.0
1701711496.2718139,-12.0,-32.0,-2.0,31.0,0.0,-3.0,3.0,-5.0
1701711496.2718139,-9.0,-3.0,-7.0,-42.0,-44.0,-27.0,-6.0,-4.0
1701711496.2915223,-2.0,-7.0,-14.0,-10.0,11.0,0.0,-11.0,4.0
1701711496.2915223,12.0,16.0,35.0,3.0,30.0,11.0,7.0,5.0
1701711496.301635,-14.0,-23.0,4.0,17.0,-44.0,-13.0,-7.0,-15.0
1701711496.301635,2.0,21.0,59.0,47.0,37.0,10.0,1.0,-9.0
1701711496.301635,2.0,-8.0,-44.0,-43.0,-45.0,5.0,6.0,6.0
1701711496.301635,-15.0,-6.0,0.0,-42.0,-9.0,-28.0,-19.0,-24.0
1701711496.3215704,-1.0,5.0,9.0,62.0,13.0,19.0,9.0,6.0
1701711496.3215704,8.0,-2.0,-4.0,-37.0,-22.0,-19.0,-8.0,-12.0
1701711496.3215704,6.0,3.0,1.0,-9.0,14.0,19.0,7.0,36.0
1701711496.3215704,-3.0,-7.0,-24.0,31.0,16.0,-6.0,1.0,-14.0
1701711496.3315246,-2.0,-11.0,-35.0,36.0,-16.0,-24.0,-16.0,-9.0
1701711496.3315246,-5.0,-1.0,21.0,-3.0,5.0,-16.0,-21.0,-6.0
1701711496.3415582,-7.0,5.0,-11.0,-43.0,-8.0,12.0,7.0,-14.0
1701711496.3415582,11.0,-3.0,40.0,19.0,-14.0,8.0,25.0,26.0
1701711496.3616095,-9.0,-4.0,-13.0,45.0,24.0,0.0,-16.0,-19.0
1701711496.3616095,-8.0,-22.0,-84.0,-47.0,-20.0,-13.0,-2.0,-8.0
1701711496.3616095,-25.0,-10.0,24.0,49.0,-32.0,-37.0,-30.0,-5.0
1701711496.3616095,7.0,8.0,-4.0,-5.0,27.0,50.0,19.0,3.0
1701711496.391523,29.0,33.0,22.0,28.0,2.0,-16.0,13.0,11.0
1701711496.391523,-4.0,-20.0,4.0,-60.0,-34.0,2.0,7.0,4.0
1701711496.391523,2.0,2.0,-10.0,30.0,14.0,3.0,-8.0,9.0
1701711496.391523,-9.0,7.0,10.0,-21.0,2.0,-14.0,-8.0,-7.0
1701711496.4015589,17.0,1.0,-5.0,-46.0,6.0,17.0,2.0,27.0
1701711496.4015589,-1.0,2.0,-26.0,14.0,-5.0,4.0,11.0,-3.0
1701711496.4015589,-6.0,-27.0,17.0,-12.0,7.0,10.0,15.0,9.0
1701711496.4015589,-1.0,11.0,-17.0,33.0,-10.0,-28.0,-23.0,5.0
1701711496.421525,-13.0,8.0,-14.0,-54.0,-8.0,-25.0,-26.0,-11.0
1701711496.421525,7.0,-8.0,36.0,86.0,32.0,30.0,19.0,15.0
1701711496.421525,-5.0,-2.0,-18.0,-70.0,-21.0,-10.0,-14.0,-22.0
1701711496.421525,4.0,-6.0,-16.0,14.0,0.0,-4.0,-6.0,0.0
1701711496.451527,-20.0,-16.0,5.0,-20.0,-10.0,-4.0,13.0,4.0
1701711496.451527,9.0,3.0,7.0,72.0,28.0,14.0,3.0,18.0
1701711496.451527,-7.0,4.0,0.0,-23.0,0.0,-12.0,-25.0,-42.0
1701711496.451527,2.0,7.0,-33.0,-51.0,-16.0,-4.0,11.0,21.0
1701711496.4615233,12.0,-15.0,8.0,-20.0,5.0,12.0,-4.0,-5.0
1701711496.4615233,8.0,7.0,-30.0,-9.0,-2.0,-13.0,11.0,18.0
1701711496.4615233,2.0,-5.0,2.0,-12.0,2.0,4.0,-2.0,4.0
1701711496.4615233,-12.0,-20.0,-15.0,15.0,-49.0,-12.0,9.0,-10.0
1701711496.4819245,-30.0,-6.0,20.0,8.0,43.0,25.0,-9.0,-21.0
1701711496.4819245,0.0,0.0,11.0,-18.0,-4.0,-5.0,8.0,-6.0
1701711496.4819245,14.0,33.0,-18.0,51.0,60.0,4.0,16.0,-3.0
1701711496.4819245,-18.0,-21.0,6.0,-38.0,-40.0,-17.0,-48.0,-10.0
1701711496.501522,7.0,13.0,-14.0,-43.0,14.0,0.0,2.0,-11.0
1701711496.501522,-5.0,-5.0,29.0,80.0,43.0,18.0,23.0,15.0
1701711496.501522,-4.0,3.0,-9.0,7.0,-4.0,4.0,0.0,-9.0
1701711496.501522,9.0,14.0,10.0,-34.0,2.0,-9.0,2.0,-9.0
1701711496.5217524,0.0,1.0,45.0,-18.0,-29.0,-13.0,-3.0,0.0
1701711496.5217524,-14.0,3.0,-2.0,4.0,-6.0,-29.0,-39.0,-23.0
1701711496.5217524,-16.0,-12.0,20.0,48.0,-3.0,22.0,22.0,15.0
1701711496.5217524,20.0,-6.0,-10.0,-25.0,15.0,24.0,-10.0,0.0
1701711496.5418634,3.0,18.0,13.0,25.0,-21.0,-9.0,2.0,-1.0
1701711496.5418634,-1.0,-2.0,32.0,-6.0,14.0,-5.0,3.0,8.0
1701711496.5482333,-6.0,3.0,-12.0,-18.0,-1.0,31.0,17.0,-6.0
1701711496.5493004,4.0,11.0,72.0,-4.0,8.0,-5.0,-5.0,0.0
1701711496.5773237,5.0,0.0,11.0,56.0,-1.0,7.0,6.0,2.0
1701711496.5773237,-17.0,-29.0,-93.0,-93.0,-28.0,-8.0,-11.0,-8.0
1701711496.5773237,-14.0,-8.0,-23.0,51.0,-13.0,-24.0,-17.0,-38.0
1701711496.5773237,-10.0,2.0,12.0,14.0,12.0,3.0,3.0,17.0
1701711496.58733,9.0,-14.0,-14.0,89.0,13.0,5.0,12.0,42.0
1701711496.58733,13.0,12.0,58.0,3.0,-8.0,-6.0,-20.0,-17.0
1701711496.58733,-40.0,4.0,-11.0,-45.0,-15.0,-1.0,16.0,-21.0
1701711496.58733,32.0,-20.0,-43.0,-35.0,5.0,18.0,16.0,-6.0
1701711496.6173227,14.0,14.0,1.0,-36.0,-17.0,-4.0,-5.0,20.0
1701711496.6173227,16.0,20.0,-20.0,25.0,9.0,21.0,10.0,-3.0
1701711496.6173227,-21.0,-29.0,-21.0,-25.0,9.0,-18.0,-5.0,-18.0
1701711496.6173227,-11.0,2.0,-2.0,23.0,15.0,16.0,22.0,10.0
1701711496.6173227,-3.0,2.0,3.0,-18.0,-11.0,-14.0,-7.0,-11.0
1701711496.6173227,6.0,6.0,3.0,-13.0,-2.0,26.0,13.0,4.0
1701711496.6173227,-10.0,-30.0,-17.0,-60.0,-21.0,-13.0,-24.0,-14.0
1701711496.6173227,-8.0,11.0,3.0,6.0,17.0,-8.0,13.0,-8.0
1701711496.6373582,5.0,6.0,-36.0,-67.0,-43.0,9.0,9.0,8.0
1701711496.6373582,18.0,-1.0,49.0,73.0,66.0,-5.0,10.0,23.0
1701711496.6473339,28.0,19.0,-8.0,-40.0,-40.0,5.0,-5.0,20.0
1701711496.6473339,-24.0,-17.0,-33.0,34.0,58.0,-16.0,2.0,-3.0
1701711496.6573842,5.0,-3.0,-33.0,-107.0,4.0,14.0,-2.0,-11.0
1701711496.6573842,-6.0,22.0,63.0,73.0,-60.0,-16.0,-16.0,-6.0
1701711496.6673217,8.0,-11.0,-8.0,51.0,30.0,20.0,19.0,18.0
1701711496.6673217,3.0,0.0,49.0,56.0,3.0,19.0,-2.0,2.0
1701711496.677707,0.0,48.0,60.0,41.0,-34.0,-21.0,2.0,-10.0
1701711496.677707,-25.0,-22.0,-27.0,-48.0,-9.0,-9.0,-15.0,-13.0
1701711496.677707,9.0,-25.0,-68.0,-2.0,-20.0,-9.0,-4.0,14.0
1701711496.677707,-6.0,7.0,41.0,55.0,8.0,1.0,-9.0,-16.0
1701711496.7073262,-14.0,-22.0,-1.0,18.0,6.0,-8.0,-4.0,-10.0
1701711496.7073262,8.0,-13.0,-49.0,2.0,1.0,-10.0,-1.0,-1.0
1701711496.7073262,-5.0,23.0,48.0,-60.0,-22.0,16.0,11.0,23.0
1701711496.7073262,-17.0,-9.0,-15.0,58.0,-9.0,-31.0,-49.0,-30.0
1701711496.727323,22.0,0.0,-18.0,1.0,24.0,60.0,20.0,31.0
1701711496.727323,-16.0,2.0,4.0,-1.0,14.0,17.0,24.0,-32.0
1701711496.727323,16.0,-2.0,-9.0,-13.0,27.0,-6.0,-28.0,-7.0
1701711496.727323,19.0,16.0,20.0,-62.0,-44.0,-13.0,26.0,9.0
1701711496.7375557,14.0,-22.0,-37.0,3.0,12.0,-5.0,5.0,24.0
1701711496.7375557,-3.0,25.0,53.0,-18.0,-8.0,-15.0,-26.0,4.0
1701711496.7375557,-2.0,-9.0,-48.0,31.0,1.0,11.0,4.0,-21.0
1701711496.7375557,-1.0,5.0,-14.0,-7.0,-12.0,-4.0,-11.0,-2.0
1701711496.7673247,-21.0,-20.0,20.0,35.0,4.0,-13.0,-18.0,-16.0
1701711496.7673247,-3.0,8.0,-32.0,-33.0,-3.0,0.0,20.0,-25.0
1701711496.7673247,10.0,8.0,61.0,72.0,-8.0,-30.0,-3.0,32.0
1701711496.7673247,9.0,16.0,-24.0,-15.0,9.0,19.0,8.0,11.0
1701711496.7873216,6.0,-7.0,-111.0,-62.0,-4.0,-10.0,3.0,6.0
1701711496.7873216,-4.0,7.0,78.0,100.0,11.0,-4.0,-17.0,-17.0
1701711496.7873216,-11.0,-8.0,3.0,30.0,20.0,14.0,9.0,-10.0
1701711496.7873216,-13.0,-14.0,-44.0,-85.0,-38.0,-1.0,1.0,5.0
1701711496.7974784,-13.0,1.0,-21.0,-48.0,25.0,1.0,-3.0,-23.0
1701711496.7974784,1.0,-8.0,31.0,32.0,-12.0,0.0,-1.0,20.0
1701711496.7974784,-8.0,16.0,-46.0,-47.0,-1.0,-26.0,-25.0,-21.0
1701711496.7974784,12.0,-22.0,-46.0,-21.0,-67.0,-14.0,-2.0,3.0
1701711496.8473217,-24.0,-12.0,53.0,123.0,62.0,1.0,14.0,-3.0
1701711496.8473217,2.0,9.0,21.0,50.0,52.0,10.0,0.0,11.0
1701711496.8473217,11.0,-15.0,-20.0,-51.0,-70.0,-4.0,13.0,13.0
1701711496.8473217,32.0,34.0,83.0,107.0,93.0,39.0,14.0,13.0
1701711496.8473217,-33.0,-32.0,-77.0,-71.0,-74.0,-11.0,-18.0,-31.0
1701711496.8473217,-5.0,-20.0,-68.0,-26.0,-19.0,-15.0,-4.0,3.0
1701711496.8473217,-8.0,20.0,68.0,7.0,30.0,8.0,7.0,1.0
1701711496.8473217,3.0,-3.0,-48.0,-94.0,-59.0,-25.0,-15.0,-10.0
1701711496.8575385,-4.0,8.0,50.0,47.0,1.0,-40.0,-36.0,-14.0
1701711496.8575385,-6.0,-27.0,-59.0,-85.0,11.0,38.0,13.0,7.0
1701711496.8575385,0.0,-16.0,-56.0,-40.0,-24.0,-33.0,-36.0,-9.0
1701711496.8575385,-12.0,-8.0,42.0,62.0,23.0,27.0,45.0,-10.0
1701711496.8873231,-14.0,-13.0,-14.0,-62.0,-12.0,-24.0,-14.0,-4.0
1701711496.8873231,6.0,6.0,-46.0,-46.0,-23.0,5.0,-39.0,17.0
1701711496.8873231,-4.0,19.0,47.0,66.0,6.0,-28.0,4.0,-17.0
1701711496.8873231,17.0,3.0,25.0,13.0,21.0,-7.0,-3.0,5.0
1701711496.907756,-17.0,-12.0,-19.0,-41.0,0.0,24.0,8.0,7.0
1701711496.907756,17.0,-20.0,-67.0,-10.0,-15.0,-19.0,2.0,3.0
1701711496.907756,3.0,6.0,51.0,9.0,-10.0,-10.0,3.0,-18.0
1701711496.907756,-12.0,-27.0,-1.0,-20.0,4.0,-10.0,-40.0,13.0
1701711496.917704,1.0,9.0,23.0,21.0,13.0,6.0,34.0,2.0
1701711496.917704,11.0,18.0,-19.0,-38.0,2.0,2.0,-6.0,13.0
1701711496.917704,-7.0,-12.0,-20.0,47.0,28.0,40.0,12.0,3.0
1701711496.917704,-10.0,-14.0,-51.0,-91.0,-45.0,-38.0,1.0,-17.0
1701711496.9477205,8.0,22.0,83.0,82.0,32.0,16.0,2.0,8.0
1701711496.9477205,-10.0,-10.0,-40.0,-68.0,-104.0,-24.0,2.0,-11.0
1701711496.9477205,14.0,-2.0,-6.0,52.0,101.0,26.0,25.0,19.0
1701711496.9477205,-1.0,19.0,54.0,107.0,-31.0,3.0,-14.0,4.0
1701711496.9677181,14.0,-13.0,-20.0,-63.0,-31.0,13.0,6.0,-3.0
1701711496.9677181,3.0,26.0,33.0,-9.0,10.0,-4.0,2.0,-16.0
1701711496.9677181,-14.0,-19.0,-12.0,-75.0,-25.0,10.0,14.0,12.0
1701711496.9677181,10.0,18.0,24.0,84.0,49.0,3.0,4.0,4.0
1701711496.978071,-2.0,-22.0,-22.0,30.0,-16.0,-37.0,-8.0,-5.0
1701711496.978071,-19.0,-10.0,34.0,27.0,14.0,33.0,1.0,-9.0
1701711496.978071,9.0,-5.0,3.0,-32.0,-30.0,-20.0,-9.0,8.0
1701711496.978071,-3.0,9.0,-22.0,-26.0,26.0,21.0,7.0,12.0
1701711496.9977164,-3.0,19.0,61.0,58.0,4.0,-22.0,-37.0,-69.0
1701711496.9977164,-16.0,-6.0,-63.0,-78.0,-3.0,22.0,33.0,24.0
1701711496.9977164,11.0,-1.0,-23.0,88.0,5.0,12.0,-6.0,38.0
1701711497.0077217,-16.0,-17.0,26.0,-27.0,-30.0,-18.0,-3.0,-21.0
1701711497.0280793,-5.0,-13.0,-90.0,-37.0,3.0,6.0,-1.0,23.0
1701711497.0280793,1.0,-11.0,45.0,104.0,0.0,-34.0,-22.0,-42.0
1701711497.0280793,9.0,25.0,49.0,8.0,-7.0,26.0,6.0,-2.0
1701711497.0280793,-5.0,-13.0,-65.0,-123.0,-20.0,-4.0,6.0,9.0
1701711497.0380526,13.0,48.0,75.0,95.0,4.0,6.0,2.0,9.0
1701711497.0380526,-20.0,-32.0,15.0,56.0,18.0,-16.0,-6.0,-8.0
1701711497.0380526,-2.0,-28.0,-84.0,-51.0,-19.0,-22.0,-2.0,-1.0
1701711497.0380526,3.0,11.0,56.0,-44.0,-4.0,-1.0,-24.0,-7.0
1701711497.0691886,-16.0,0.0,10.0,-70.0,3.0,16.0,30.0,-11.0
1701711497.0691886,53.0,14.0,36.0,-51.0,14.0,23.0,26.0,27.0
1701711497.0691886,-40.0,-16.0,-40.0,111.0,-20.0,-24.0,-36.0,-30.0
1701711497.0691886,14.0,27.0,-10.0,-8.0,6.0,8.0,12.0,5.0
1701711497.0890973,-84.0,-25.0,6.0,-92.0,-8.0,-8.0,-39.0,-38.0
1701711497.0890973,94.0,58.0,55.0,8.0,0.0,-18.0,22.0,34.0
1701711497.0901918,-13.0,-61.0,-58.0,-104.0,-29.0,-15.0,-14.0,-17.0
1701711497.0901918,-7.0,-9.0,36.0,72.0,-45.0,-12.0,-10.0,-26.0
1701711497.1005673,-8.0,-2.0,-76.0,-43.0,44.0,13.0,-9.0,4.0
1701711497.1005673,-44.0,-6.0,20.0,-6.0,23.0,-15.0,-20.0,-8.0
1701711497.1005673,22.0,31.0,35.0,-22.0,-43.0,-17.0,1.0,18.0
1701711497.1005673,-9.0,-19.0,-62.0,27.0,7.0,19.0,23.0,8.0
1701711497.1301928,43.0,54.0,31.0,23.0,-22.0,-15.0,9.0,12.0
1701711497.1301928,-23.0,-20.0,-71.0,-96.0,-40.0,-11.0,-23.0,1.0
1701711497.1301928,18.0,23.0,22.0,-40.0,16.0,-3.0,-9.0,-14.0
1701711497.1301928,-28.0,-39.0,28.0,24.0,10.0,-6.0,-13.0,4.0
1701711497.1405897,10.0,4.0,-10.0,44.0,-9.0,-11.0,-20.0,-20.0
1701711497.1405897,3.0,-14.0,-25.0,-36.0,4.0,30.0,30.0,26.0
1701711497.1405897,8.0,36.0,35.0,101.0,17.0,3.0,17.0,23.0
1701711497.1405897,-5.0,1.0,17.0,-13.0,2.0,-13.0,-23.0,-26.0
1701711497.1605678,23.0,-8.0,6.0,-1.0,7.0,7.0,6.0,16.0
1701711497.1605678,-40.0,-10.0,-23.0,56.0,4.0,-20.0,-16.0,-48.0
1701711497.1605678,-6.0,-36.0,-33.0,-59.0,7.0,10.0,-3.0,24.0
1701711497.1605678,14.0,32.0,69.0,34.0,21.0,9.0,11.0,21.0
1701711497.1802301,26.0,-4.0,7.0,31.0,-19.0,-1.0,11.0,24.0
1701711497.1802301,-13.0,-23.0,-92.0,-10.0,8.0,2.0,-6.0,-32.0
1701711497.1802301,-7.0,43.0,89.0,-57.0,23.0,13.0,14.0,36.0
1701711497.1802301,0.0,-13.0,-128.0,-114.0,-19.0,-13.0,-3.0,-22.0
1701711497.2005296,-6.0,-21.0,4.0,-19.0,-11.0,-29.0,-22.0,30.0
1701711497.2005296,10.0,29.0,75.0,56.0,37.0,71.0,29.0,-15.0
1701711497.2101989,13.0,28.0,4.0,-54.0,-2.0,20.0,6.0,-39.0
1701711497.2101989,-13.0,-26.0,72.0,4.0,1.0,-23.0,1.0,22.0
1701711497.2301931,20.0,-3.0,2.0,25.0,-15.0,-18.0,-5.0,11.0
1701711497.2301931,-46.0,15.0,-1.0,-2.0,-42.0,-11.0,-16.0,-11.0
1701711497.2301931,74.0,-43.0,12.0,-20.0,-9.0,-27.0,14.0,36.0
1701711497.2301931,-21.0,-3.0,-8.0,62.0,54.0,34.0,23.0,-13.0
1701711497.2402277,-12.0,8.0,-14.0,-23.0,-3.0,-17.0,-15.0,-8.0
1701711497.2402277,3.0,-13.0,30.0,-11.0,-23.0,-29.0,-28.0,-18.0
1701711497.2402277,4.0,-17.0,-25.0,24.0,19.0,12.0,11.0,0.0
1701711497.2402277,9.0,33.0,-35.0,-77.0,-15.0,-11.0,-24.0,-4.0
1701711497.260595,-17.0,-43.0,-76.0,77.0,18.0,26.0,21.0,-6.0
1701711497.260595,-13.0,12.0,42.0,3.0,3.0,-8.0,-13.0,0.0
1701711497.260595,-26.0,6.0,17.0,-40.0,-39.0,-18.0,-19.0,6.0
1701711497.270198,20.0,-4.0,5.0,98.0,20.0,17.0,21.0,-25.0
1701711497.2801943,2.0,19.0,9.0,-7.0,0.0,17.0,10.0,6.0
1701711497.2801943,-5.0,-36.0,-68.0,-62.0,1.0,-8.0,2.0,22.0
1701711497.2801943,-10.0,12.0,1.0,13.0,-11.0,4.0,0.0,-32.0
1701711497.2801943,18.0,-41.0,-81.0,14.0,-7.0,-9.0,-7.0,-3.0
1701711497.3006234,-10.0,13.0,65.0,-24.0,-11.0,4.0,-3.0,-26.0
1701711497.3006234,34.0,15.0,33.0,96.0,20.0,-6.0,1.0,31.0
1701711497.3006234,-36.0,-15.0,-20.0,-61.0,-4.0,-12.0,-11.0,-20.0
1701711497.3006234,-14.0,2.0,5.0,-49.0,-2.0,10.0,-6.0,29.0
1701711497.320594,25.0,-11.0,-1.0,1.0,-2.0,0.0,3.0,-22.0
1701711497.320594,-3.0,4.0,2.0,-9.0,16.0,9.0,17.0,33.0
1701711497.320594,-30.0,15.0,6.0,46.0,13.0,1.0,-12.0,-62.0
1701711497.320594,21.0,-5.0,64.0,-1.0,-14.0,-15.0,-10.0,37.0
1701711497.3405278,18.0,0.0,21.0,15.0,11.0,23.0,16.0,-1.0
1701711497.3405278,27.0,14.0,14.0,-20.0,10.0,8.0,4.0,4.0
1701711497.3601918,-8.0,-3.0,7.0,20.0,2.0,9.0,2.0,11.0
1701711497.3601918,-25.0,15.0,8.0,14.0,-5.0,-12.0,-9.0,-32.0
1701711497.3601918,-15.0,-18.0,-27.0,-30.0,-9.0,-11.0,-11.0,4.0
1701711497.3601918,1.0,0.0,-10.0,-19.0,-20.0,-24.0,-12.0,7.0
1701711497.3601918,-4.0,16.0,27.0,36.0,19.0,11.0,11.0,-9.0
1701711497.3601918,-9.0,10.0,-8.0,-17.0,-8.0,-1.0,2.0,-9.0
1701711497.3804243,1.0,-17.0,-42.0,-7.0,1.0,7.0,-4.0,7.0
1701711497.3804243,-21.0,-6.0,10.0,-7.0,-1.0,4.0,-4.0,-14.0
1701711497.3804243,9.0,1.0,0.0,10.0,-2.0,-6.0,-3.0,3.0
1701711497.3804243,-2.0,-13.0,-5.0,2.0,8.0,0.0,-1.0,5.0
1701711497.400193,0.0,5.0,2.0,-21.0,-5.0,2.0,3.0,6.0
1701711497.400193,-3.0,-6.0,8.0,2.0,-1.0,-8.0,-7.0,-16.0
1701711497.400193,1.0,-3.0,9.0,-4.0,-2.0,-3.0,-3.0,6.0
1701711497.400193,-12.0,0.0,-9.0,4.0,12.0,8.0,4.0,0.0
1701711497.4206371,11.0,11.0,9.0,0.0,-27.0,-3.0,2.0,-3.0
1701711497.4206371,-2.0,-15.0,-5.0,-7.0,-4.0,-1.0,4.0,1.0
1701711497.4206371,0.0,3.0,1.0,-1.0,-6.0,0.0,-1.0,11.0
1701711497.4206371,0.0,1.0,-15.0,-7.0,-10.0,-4.0,-2.0,0.0
1701711497.440194,-5.0,0.0,9.0,5.0,16.0,-3.0,0.0,-4.0
1701711497.440194,-12.0,-11.0,-9.0,-8.0,1.0,0.0,1.0,-4.0
1701711497.440194,8.0,12.0,3.0,4.0,0.0,-3.0,-4.0,2.0
1701711497.440194,-1.0,-3.0,-10.0,7.0,-1.0,-3.0,-5.0,-10.0
1701711497.4605887,0.0,-4.0,2.0,-3.0,6.0,2.0,4.0,10.0
1701711497.4605887,-7.0,5.0,-3.0,-7.0,-11.0,0.0,-3.0,-9.0
1701711497.4705918,-5.0,-2.0,3.0,10.0,9.0,0.0,-5.0,-6.0
1701711497.4705918,1.0,5.0,-5.0,-4.0,-4.0,-2.0,0.0,2.0
1701711497.4805775,-4.0,7.0,3.0,-4.0,-3.0,0.0,0.0,1.0
1701711497.4805775,-1.0,1.0,-4.0,-4.0,-6.0,-4.0,0.0,4.0
1701711497.4805775,-3.0,-5.0,-1.0,6.0,3.0,-2.0,-4.0,-3.0
1701711497.4805775,-4.0,0.0,0.0,-3.0,-6.0,-4.0,-4.0,-1.0
1701711497.5001938,-1.0,-7.0,0.0,2.0,3.0,2.0,4.0,1.0
1701711497.5001938,-2.0,-6.0,10.0,5.0,3.0,-2.0,-3.0,-4.0
1701711497.5001938,-3.0,-6.0,1.0,-2.0,1.0,0.0,-4.0,-1.0
1701711497.5001938,7.0,3.0,-6.0,-3.0,-2.0,4.0,5.0,7.0
1701711497.5306015,-2.0,2.0,3.0,-4.0,-4.0,-3.0,-2.0,-3.0
1701711497.5306015,2.0,14.0,3.0,1.0,-2.0,-2.0,2.0,-1.0
1701711497.5306015,-2.0,15.0,-5.0,-4.0,-6.0,-1.0,0.0,1.0
1701711497.5306015,1.0,2.0,-4.0,-3.0,1.0,-1.0,-2.0,-2.0
1701711497.5405784,0.0,-12.0,2.0,1.0,-2.0,-1.0,-1.0,-4.0
1701711497.5405784,0.0,-17.0,0.0,-3.0,1.0,0.0,1.0,2.0
1701711497.5405784,-7.0,-29.0,-13.0,5.0,0.0,-5.0,-6.0,-6.0
1701711497.5405784,0.0,-10.0,3.0,-6.0,-8.0,-3.0,-2.0,-2.0
1701711497.560196,-3.0,-7.0,-24.0,-33.0,-15.0,-2.0,1.0,1.0
1701711497.560196,-1.0,15.0,29.0,31.0,23.0,4.0,-3.0,-6.0
1701711497.560196,-2.0,7.0,12.0,2.0,3.0,1.0,0.0,-2.0
1701711497.560196,1.0,2.0,-2.0,-8.0,-9.0,-2.0,-1.0,0.0
1701711497.580573,-4.0,7.0,64.0,13.0,-4.0,-3.0,-4.0,-2.0
1701711497.580573,1.0,1.0,-28.0,-4.0,-4.0,-2.0,1.0,0.0
1701711497.5906048,0.0,9.0,18.0,-26.0,4.0,2.0,0.0,-2.0
1701711497.5906048,2.0,2.0,27.0,25.0,3.0,4.0,2.0,-1.0
1701711497.6060364,-4.0,-1.0,-46.0,-4.0,-5.0,-3.0,-2.0,0.0
1701711497.6060364,-4.0,-12.0,-38.0,-48.0,-7.0,-5.0,-1.0,5.0
1701711497.606973,2.0,1.0,58.0,31.0,0.0,0.0,-4.0,-10.0
1701711497.606973,-1.0,0.0,-21.0,-11.0,-3.0,-5.0,-1.0,-1.0
1701711497.6334367,4.0,-8.0,-31.0,-48.0,-3.0,2.0,4.0,1.0
1701711497.6334367,-4.0,-7.0,75.0,73.0,10.0,0.0,-4.0,-3.0
1701711497.6334367,0.0,-15.0,-59.0,-33.0,-17.0,-11.0,-1.0,2.0
1701711497.6334367,5.0,1.0,-8.0,0.0,3.0,-17.0,-9.0,-1.0
1701711497.6432507,-1.0,2.0,4.0,32.0,14.0,23.0,9.0,9.0
1701711497.6432507,-1.0,5.0,-19.0,4.0,-2.0,1.0,-1.0,1.0
1701711497.6432507,10.0,4.0,-1.0,0.0,4.0,2.0,0.0,2.0
1701711497.6432507,-8.0,-22.0,-1.0,-2.0,-6.0,-8.0,-7.0,-10.0
1701711497.6831932,5.0,-15.0,-1.0,20.0,6.0,-12.0,-6.0,-1.0
1701711497.6831932,-2.0,-12.0,-16.0,-34.0,-10.0,0.0,1.0,-3.0
1701711497.6831932,-4.0,0.0,-27.0,18.0,-1.0,-2.0,0.0,-2.0
1701711497.6831932,-5.0,15.0,-23.0,-24.0,-6.0,1.0,-1.0,2.0
1701711497.6831932,-3.0,36.0,27.0,24.0,7.0,-2.0,-5.0,-4.0
1701711497.6831932,2.0,26.0,26.0,-20.0,-10.0,-10.0,-4.0,0.0
1701711497.6831932,1.0,20.0,74.0,7.0,-15.0,12.0,3.0,6.0
1701711497.6831932,-9.0,-12.0,-89.0,11.0,-11.0,2.0,1.0,-3.0
1701711497.7034786,-2.0,-11.0,-27.0,-63.0,-32.0,-10.0,3.0,-3.0
1701711497.7034786,-5.0,-18.0,43.0,54.0,15.0,-14.0,-17.0,-6.0
1701711497.7034786,10.0,-6.0,-10.0,-9.0,15.0,41.0,17.0,15.0
1701711497.7034786,4.0,-11.0,29.0,0.0,-4.0,-11.0,-3.0,4.0
1701711497.7331932,-8.0,-10.0,7.0,27.0,12.0,-6.0,-10.0,-7.0
1701711497.7331932,-3.0,-8.0,-54.0,-46.0,-14.0,12.0,12.0,-1.0
1701711497.7331932,-5.0,-9.0,-25.0,-58.0,-35.0,-32.0,-15.0,-5.0
1701711497.7331932,5.0,0.0,7.0,66.0,63.0,24.0,6.0,6.0
1701711497.7435784,-1.0,3.0,4.0,2.0,-28.0,-6.0,7.0,-2.0
1701711497.7435784,3.0,8.0,3.0,21.0,14.0,-3.0,-5.0,0.0
1701711497.7435784,-4.0,-5.0,5.0,-19.0,17.0,-4.0,-3.0,-3.0
1701711497.7435784,-2.0,4.0,34.0,23.0,31.0,14.0,4.0,-2.0
1701711497.7631977,-1.0,4.0,-1.0,-14.0,-23.0,-14.0,-10.0,-4.0
1701711497.7631977,-3.0,-12.0,-18.0,-8.0,-2.0,5.0,3.0,-4.0
1701711497.7631977,-2.0,-1.0,-18.0,-16.0,-10.0,-28.0,-16.0,-4.0
1701711497.7631977,-1.0,6.0,0.0,-19.0,-15.0,-9.0,-5.0,-3.0
1701711497.7831926,-5.0,-5.0,20.0,26.0,31.0,17.0,7.0,-1.0
1701711497.7831926,3.0,1.0,-14.0,-34.0,-39.0,-8.0,2.0,0.0
1701711497.7831926,0.0,0.0,26.0,29.0,51.0,17.0,4.0,1.0
1701711497.7831926,-6.0,-6.0,-24.0,-10.0,-17.0,-13.0,-2.0,-3.0
1701711497.8036034,-1.0,-6.0,6.0,-7.0,16.0,7.0,1.0,1.0
1701711497.8036034,1.0,1.0,-3.0,-6.0,-16.0,-4.0,-4.0,1.0
1701711497.8036034,-2.0,-7.0,-6.0,15.0,-18.0,-12.0,-4.0,-4.0
1701711497.8036034,1.0,-32.0,14.0,-4.0,-6.0,9.0,4.0,-1.0
1701711497.8236387,3.0,-28.0,2.0,-23.0,-5.0,-5.0,-4.0,-1.0
1701711497.8236387,-3.0,-22.0,-10.0,29.0,19.0,12.0,8.0,0.0
1701711497.833636,3.0,2.0,-11.0,0.0,-24.0,-1.0,1.0,1.0
1701711497.833636,-4.0,16.0,10.0,18.0,13.0,-2.0,-5.0,-4.0
1701711497.8436694,-2.0,23.0,-4.0,-3.0,1.0,-6.0,-6.0,-2.0
1701711497.8436694,6.0,29.0,32.0,-12.0,4.0,-2.0,-2.0,2.0
1701711497.8436694,-3.0,8.0,-41.0,9.0,10.0,3.0,1.0,1.0
1701711497.8436694,1.0,23.0,17.0,-32.0,-22.0,-3.0,-1.0,-2.0
1701711497.864035,-5.0,1.0,-20.0,4.0,-14.0,-6.0,-3.0,-4.0
1701711497.864035,-2.0,9.0,26.0,10.0,22.0,-4.0,-4.0,-1.0
1701711497.864035,5.0,0.0,-16.0,-3.0,4.0,6.0,-2.0,3.0
1701711497.864035,-4.0,1.0,19.0,-24.0,-17.0,3.0,-1.0,-3.0
1701711497.8836389,5.0,5.0,30.0,17.0,5.0,1.0,6.0,25.0
1701711497.8836389,-5.0,-6.0,-32.0,-16.0,-10.0,1.0,-12.0,-26.0
1701711497.8836389,-7.0,-15.0,-37.0,-12.0,-13.0,-12.0,-5.0,-10.0
1701711497.8836389,-1.0,-5.0,19.0,15.0,10.0,-1.0,-4.0,-3.0
1701711497.9036384,2.0,8.0,21.0,-1.0,2.0,-2.0,-2.0,0.0
1701711497.9036384,-5.0,-5.0,-24.0,-8.0,1.0,1.0,2.0,4.0
1701711497.9036384,-7.0,-11.0,-9.0,4.0,-15.0,-6.0,-5.0,-3.0
1701711497.9036384,5.0,3.0,-3.0,-10.0,-9.0,-9.0,-2.0,0.0
1701711497.9239113,1.0,3.0,-6.0,15.0,1.0,9.0,4.0,-3.0
1701711497.9239113,5.0,6.0,3.0,-9.0,1.0,-6.0,-1.0,5.0
1701711497.9239113,-3.0,-2.0,8.0,9.0,2.0,1.0,-1.0,-5.0
1701711497.9239113,-6.0,-1.0,8.0,-9.0,-7.0,1.0,5.0,0.0
1701711497.9436405,-2.0,-7.0,-27.0,-3.0,-6.0,0.0,-3.0,-4.0
1701711497.9436405,1.0,-1.0,-3.0,1.0,-17.0,-5.0,-1.0,0.0
1701711497.9436405,2.0,5.0,13.0,18.0,25.0,10.0,7.0,5.0
1701711497.9436405,1.0,-2.0,-9.0,-25.0,-12.0,-5.0,-2.0,1.0
1701711497.983635,-2.0,-4.0,-6.0,13.0,14.0,-7.0,-5.0,-7.0
1701711497.983635,0.0,4.0,29.0,-4.0,-10.0,0.0,-4.0,1.0
1701711497.983635,-3.0,-33.0,-16.0,5.0,-17.0,0.0,3.0,0.0
1701711497.983635,-1.0,-22.0,-6.0,-24.0,-18.0,-1.0,-1.0,1.0
1701711497.983635,-3.0,-2.0,-5.0,19.0,26.0,4.0,3.0,-5.0
1701711497.983635,0.0,-2.0,-8.0,7.0,1.0,0.0,1.0,4.0
1701711497.99397,0.0,14.0,15.0,-1.0,2.0,9.0,5.0,2.0
1701711497.99397,1.0,9.0,-7.0,-3.0,-1.0,1.0,-1.0,-4.0
1701711498.0036392,-1.0,11.0,-3.0,-10.0,-7.0,3.0,4.0,0.0
1701711498.0036392,-3.0,10.0,15.0,-1.0,-8.0,-7.0,-8.0,-4.0
1701711498.0136385,-2.0,2.0,3.0,9.0,4.0,5.0,8.0,1.0
1701711498.0136385,0.0,5.0,-24.0,-2.0,-12.0,-8.0,-5.0,-1.0
1701711498.023942,-5.0,-6.0,-28.0,-24.0,5.0,-1.0,-3.0,-5.0
1701711498.023942,5.0,2.0,-2.0,11.0,21.0,7.0,9.0,1.0
1701711498.023942,-15.0,-4.0,9.0,-1.0,-22.0,1.0,2.0,-7.0
1701711498.023942,0.0,-1.0,5.0,15.0,31.0,16.0,5.0,2.0
1701711498.0440395,0.0,-2.0,-2.0,-29.0,-35.0,-16.0,-16.0,-1.0
1701711498.0440395,-3.0,-3.0,-8.0,13.0,22.0,8.0,4.0,3.0
1701711498.0440395,1.0,-3.0,-8.0,-14.0,-14.0,-17.0,-8.0,-2.0
1701711498.0440395,5.0,6.0,8.0,25.0,16.0,5.0,8.0,2.0
1701711498.0636349,4.0,-1.0,9.0,8.0,5.0,-2.0,-2.0,18.0
1701711498.0636349,-4.0,-13.0,-27.0,-28.0,-18.0,-6.0,-11.0,-25.0
1701711498.0636349,-6.0,6.0,68.0,15.0,7.0,-1.0,6.0,-5.0
1701711498.0636349,-4.0,-16.0,-73.0,-27.0,-10.0,-2.0,-16.0,1.0
1701711498.0838768,-1.0,-1.0,2.0,14.0,9.0,1.0,-3.0,-7.0
1701711498.0838768,-5.0,-5.0,2.0,-23.0,-14.0,1.0,2.0,13.0
1701711498.0838768,14.0,10.0,-7.0,6.0,12.0,-3.0,2.0,3.0
1701711498.0838768,3.0,4.0,35.0,1.0,-6.0,-6.0,-4.0,-5.0
1701711498.103695,-5.0,-3.0,-10.0,8.0,-7.0,0.0,8.0,1.0
1701711498.103695,-9.0,-6.0,9.0,-1.0,-1.0,-3.0,0.0,-8.0
1701711498.103695,1.0,-9.0,-46.0,5.0,11.0,1.0,-1.0,-4.0
1701711498.103695,-9.0,-7.0,29.0,14.0,-2.0,0.0,1.0,2.0
1701711498.1312735,15.0,8.0,3.0,-9.0,-2.0,-3.0,-1.0,-5.0
1701711498.1312735,-2.0,-7.0,-30.0,5.0,5.0,0.0,5.0,2.0
1701711498.1318939,1.0,5.0,-1.0,1.0,-4.0,4.0,-5.0,3.0
1701711498.1318939,-6.0,-4.0,9.0,-2.0,-17.0,-10.0,0.0,17.0
1701711498.147406,-8.0,-4.0,-14.0,-14.0,3.0,-3.0,-6.0,-34.0
1701711498.147406,14.0,11.0,20.0,-35.0,-29.0,7.0,0.0,8.0
1701711498.147406,-1.0,-3.0,9.0,28.0,31.0,-2.0,-6.0,3.0
1701711498.147406,-10.0,4.0,12.0,8.0,-3.0,2.0,6.0,-7.0
1701711498.1661844,3.0,-5.0,-26.0,9.0,-14.0,-11.0,-4.0,-2.0
1701711498.1661844,-10.0,-7.0,-18.0,-39.0,-6.0,-5.0,-4.0,4.0
1701711498.1661844,8.0,8.0,17.0,27.0,12.0,5.0,-7.0,-2.0
1701711498.1661844,-8.0,-11.0,-56.0,-43.0,-17.0,5.0,11.0,-4.0
1701711498.1858344,-9.0,-5.0,-16.0,-28.0,-4.0,-4.0,-1.0,-5.0
1701711498.1858344,-10.0,21.0,33.0,47.0,14.0,-3.0,3.0,-9.0
1701711498.1858344,19.0,-29.0,-69.0,-7.0,-6.0,-2.0,3.0,25.0
1701711498.1858344,-10.0,4.0,36.0,48.0,17.0,0.0,-7.0,-41.0
1701711498.205854,28.0,21.0,12.0,9.0,3.0,7.0,6.0,42.0
1701711498.205854,-17.0,-16.0,-32.0,-25.0,-2.0,-3.0,-3.0,-13.0
1701711498.205854,-8.0,8.0,33.0,21.0,-7.0,-7.0,-8.0,-6.0
1701711498.205854,20.0,0.0,-14.0,-58.0,-12.0,0.0,3.0,15.0
1701711498.2291734,-11.0,-6.0,18.0,56.0,29.0,10.0,-4.0,-20.0
1701711498.2291734,13.0,2.0,3.0,15.0,-27.0,-7.0,2.0,12.0
1701711498.2291734,-12.0,0.0,-2.0,-37.0,-34.0,-18.0,-8.0,-9.0
1701711498.2291734,2.0,6.0,22.0,3.0,18.0,4.0,-4.0,1.0
1701711498.2513475,-6.0,-4.0,-11.0,-36.0,-1.0,5.0,7.0,2.0
1701711498.2513475,0.0,-2.0,7.0,-1.0,6.0,-10.0,-20.0,-6.0
1701711498.2513475,-7.0,-6.0,-3.0,-11.0,-33.0,-15.0,-5.0,-8.0
1701711498.2513475,-2.0,-6.0,-40.0,-32.0,9.0,8.0,5.0,0.0
1701711498.265766,-3.0,2.0,45.0,48.0,16.0,3.0,-2.0,3.0
1701711498.265766,4.0,2.0,25.0,75.0,9.0,0.0,5.0,-2.0
1701711498.2667649,-3.0,-3.0,-21.0,-62.0,-1.0,6.0,1.0,-8.0
1701711498.2667649,-9.0,-5.0,1.0,-66.0,-35.0,-18.0,-15.0,-10.0
1701711498.2881165,-5.0,0.0,10.0,36.0,-74.0,-9.0,-18.0,-2.0
1701711498.2881165,6.0,0.0,-6.0,19.0,82.0,22.0,8.0,0.0
1701711498.2891045,4.0,10.0,6.0,0.0,1.0,-4.0,16.0,23.0
1701711498.2891045,3.0,0.0,5.0,23.0,2.0,5.0,8.0,6.0
1701711498.31157,-14.0,-17.0,-37.0,-16.0,11.0,4.0,-12.0,-15.0
1701711498.31157,-1.0,2.0,15.0,-18.0,0.0,-3.0,9.0,-5.0
1701711498.3125706,-3.0,8.0,4.0,-31.0,-14.0,9.0,-7.0,-6.0
1701711498.3125706,11.0,1.0,39.0,17.0,-16.0,-14.0,6.0,3.0
1701711498.3263812,1.0,-5.0,-6.0,-36.0,1.0,-5.0,-2.0,12.0
1701711498.3263812,-6.0,-9.0,-26.0,102.0,16.0,0.0,-10.0,0.0
1701711498.3273902,-3.0,8.0,30.0,-39.0,-11.0,2.0,6.0,-13.0
1701711498.3273902,9.0,4.0,-1.0,1.0,9.0,8.0,14.0,19.0
1701711498.3483891,1.0,3.0,19.0,-7.0,-8.0,-5.0,-2.0,-10.0
1701711498.3483891,-4.0,-7.0,-39.0,-3.0,7.0,2.0,-1.0,20.0
1701711498.349416,-3.0,-2.0,14.0,-36.0,-19.0,-8.0,-12.0,-19.0
1701711498.349416,-8.0,-6.0,-5.0,74.0,18.0,-3.0,-8.0,-12.0
1701711498.371907,2.0,9.0,11.0,89.0,28.0,5.0,6.0,5.0
1701711498.371907,1.0,0.0,-2.0,-128.0,-44.0,-11.0,-5.0,3.0
1701711498.372908,-15.0,-10.0,11.0,10.0,-6.0,-5.0,-2.0,-15.0
1701711498.372908,12.0,11.0,27.0,39.0,40.0,15.0,3.0,20.0
1701711498.3883784,-1.0,0.0,-31.0,-49.0,-7.0,-5.0,7.0,-4.0
1701711498.389345,-3.0,-4.0,13.0,26.0,-6.0,-1.0,2.0,1.0
1701711498.389345,13.0,7.0,1.0,-2.0,9.0,7.0,4.0,12.0
1701711498.389345,-15.0,-9.0,-26.0,38.0,-8.0,-10.0,-10.0,-23.0
1701711498.424733,1.0,0.0,3.0,-28.0,-3.0,7.0,1.0,2.0
1701711498.424733,-5.0,1.0,-7.0,-13.0,-10.0,-6.0,-3.0,-4.0
1701711498.424733,5.0,-8.0,-9.0,42.0,10.0,-7.0,-9.0,7.0
1701711498.424733,-10.0,-9.0,-8.0,10.0,6.0,9.0,14.0,-6.0
1701711498.4315155,14.0,25.0,56.0,8.0,13.0,6.0,18.0,19.0
1701711498.4315155,0.0,2.0,-5.0,-23.0,-19.0,-2.0,-4.0,0.0
1701711498.4315155,-4.0,-8.0,-33.0,-38.0,15.0,-3.0,-2.0,-8.0
1701711498.4315155,-4.0,-2.0,8.0,40.0,3.0,-3.0,-18.0,-3.0
1701711498.4460993,-6.0,-5.0,7.0,-22.0,-17.0,0.0,14.0,3.0
1701711498.4460993,3.0,2.0,19.0,32.0,10.0,12.0,11.0,-5.0
1701711498.4470768,2.0,5.0,-28.0,-60.0,3.0,-5.0,2.0,5.0
1701711498.4470768,-5.0,1.0,-23.0,-29.0,-5.0,-13.0,-21.0,-11.0
1701711498.4682095,-8.0,-4.0,-7.0,-12.0,-12.0,-7.0,-45.0,-21.0
1701711498.4682095,-6.0,-9.0,16.0,7.0,1.0,2.0,37.0,-9.0
1701711498.4692082,12.0,3.0,10.0,38.0,13.0,6.0,-19.0,16.0
1701711498.4692082,2.0,2.0,-8.0,-44.0,-9.0,9.0,32.0,21.0
1701711498.4920166,-6.0,-10.0,-20.0,-15.0,0.0,-7.0,6.0,7.0
1701711498.4920166,-9.0,-15.0,-34.0,1.0,-13.0,-10.0,-24.0,-22.0
1701711498.4920166,-8.0,8.0,53.0,47.0,9.0,3.0,2.0,-6.0
1701711498.4920166,7.0,2.0,-14.0,-76.0,-50.0,-12.0,-9.0,-7.0
1701711498.5277598,5.0,-1.0,1.0,46.0,-1.0,2.0,5.0,15.0
1701711498.5277598,5.0,4.0,-11.0,-23.0,33.0,1.0,-8.0,-5.0
1701711498.5277598,-10.0,-12.0,-21.0,-7.0,-29.0,-5.0,5.0,-2.0
1701711498.5277598,-4.0,-3.0,3.0,51.0,28.0,10.0,-8.0,-1.0
1701711498.5287592,9.0,5.0,-7.0,-56.0,-26.0,-5.0,10.0,-3.0
1701711498.5287592,5.0,-1.0,22.0,43.0,4.0,6.0,-9.0,6.0
1701711498.5287592,-7.0,-2.0,-17.0,13.0,-5.0,-18.0,-8.0,-12.0
1701711498.5297613,-11.0,-3.0,-14.0,-15.0,10.0,13.0,0.0,-6.0
1701711498.551115,0.0,-16.0,-8.0,-43.0,-26.0,-13.0,-5.0,-15.0
1701711498.551115,10.0,4.0,7.0,29.0,-3.0,2.0,11.0,20.0
1701711498.5521154,-6.0,2.0,-11.0,50.0,48.0,-17.0,-5.0,-3.0
1701711498.5521154,6.0,-3.0,29.0,-47.0,-25.0,30.0,21.0,13.0
1701711498.576045,-4.0,-8.0,-20.0,-3.0,28.0,11.0,27.0,7.0
1701711498.576045,-8.0,0.0,1.0,-29.0,-46.0,-12.0,-18.0,-40.0
1701711498.576045,7.0,-2.0,19.0,17.0,-2.0,10.0,5.0,29.0
1701711498.576045,-11.0,4.0,-8.0,1.0,23.0,-30.0,-14.0,-17.0
1701711498.5893598,7.0,1.0,7.0,20.0,18.0,14.0,-4.0,1.0
1701711498.5893598,-2.0,-8.0,-20.0,-27.0,-15.0,-3.0,-2.0,7.0
1701711498.5893598,-1.0,-13.0,-33.0,-30.0,-16.0,2.0,9.0,-7.0
1701711498.5903654,-4.0,15.0,23.0,43.0,16.0,-3.0,-10.0,-3.0
1701711498.6190703,1.0,4.0,12.0,-38.0,-50.0,-12.0,-9.0,3.0
1701711498.6190703,8.0,7.0,-17.0,25.0,81.0,16.0,3.0,12.0
1701711498.6200895,-12.0,-11.0,-3.0,-11.0,-10.0,-1.0,-4.0,-10.0
1701711498.6200895,11.0,9.0,-3.0,19.0,-4.0,-18.0,-6.0,11.0
1701711498.6330664,-24.0,-26.0,-13.0,-5.0,8.0,4.0,-2.0,-14.0
1701711498.6330664,4.0,14.0,13.0,15.0,-14.0,-4.0,-11.0,-10.0
1701711498.6330664,7.0,0.0,7.0,-20.0,-8.0,-5.0,-5.0,2.0
1701711498.6330664,1.0,-14.0,-17.0,48.0,21.0,13.0,0.0,2.0
1701711498.6487062,-9.0,23.0,39.0,17.0,-17.0,-21.0,-10.0,-14.0
1701711498.6487062,0.0,-18.0,0.0,-9.0,16.0,6.0,-1.0,18.0
1701711498.6494746,-2.0,-5.0,-11.0,3.0,8.0,9.0,-2.0,-3.0
1701711498.6494746,7.0,12.0,-1.0,-38.0,-11.0,-1.0,1.0,-1.0
1701711498.6805341,0.0,-5.0,3.0,58.0,12.0,2.0,-2.0,2.0
1701711498.6805341,-4.0,0.0,-18.0,-43.0,-15.0,-7.0,6.0,9.0
1701711498.6805341,0.0,8.0,5.0,-4.0,-16.0,1.0,-1.0,-8.0
1701711498.6805341,-1.0,-8.0,11.0,17.0,2.0,-4.0,-2.0,-7.0
1701711498.6867878,-5.0,-6.0,-26.0,-1.0,12.0,-4.0,-11.0,-20.0
1701711498.6867878,6.0,20.0,50.0,-14.0,-15.0,-16.0,-2.0,23.0
1701711498.7015674,12.0,-6.0,-48.0,-17.0,5.0,18.0,-2.0,8.0
1701711498.7015674,2.0,-6.0,21.0,4.0,-18.0,-13.0,4.0,2.0
1701711498.708718,3.0,-3.0,-32.0,-41.0,28.0,16.0,5.0,6.0
1701711498.708718,3.0,2.0,11.0,-12.0,-35.0,6.0,-1.0,-7.0
1701711498.70973,-18.0,-14.0,-25.0,54.0,24.0,3.0,8.0,-12.0
1701711498.70973,-2.0,0.0,13.0,-39.0,-16.0,-4.0,-11.0,3.0
1701711498.7416708,-10.0,3.0,4.0,36.0,7.0,-8.0,-6.0,-8.0
1701711498.7416708,-1.0,1.0,16.0,-63.0,-21.0,-10.0,-3.0,-9.0
1701711498.7426713,5.0,-15.0,-33.0,19.0,17.0,-1.0,6.0,7.0
1701711498.7426713,-1.0,1.0,-19.0,-7.0,-21.0,-6.0,-3.0,-3.0
1701711498.74569,-6.0,-10.0,-14.0,44.0,-6.0,-9.0,-7.0,4.0
1701711498.74569,-3.0,-2.0,-6.0,-70.0,1.0,5.0,-1.0,12.0
1701711498.7466722,5.0,30.0,61.0,23.0,15.0,20.0,14.0,-17.0
1701711498.7466722,-7.0,-32.0,-20.0,20.0,7.0,-19.0,-19.0,-10.0
1701711498.7688308,2.0,0.0,-31.0,-88.0,-18.0,-9.0,-7.0,1.0
1701711498.7688308,-2.0,1.0,-26.0,-25.0,-2.0,-10.0,4.0,-4.0
1701711498.769785,-12.0,-5.0,52.0,28.0,-13.0,13.0,2.0,1.0
1701711498.769785,9.0,3.0,-21.0,-43.0,11.0,6.0,15.0,32.0
1701711498.8038905,1.0,3.0,39.0,41.0,-1.0,-7.0,-21.0,-24.0
1701711498.8038905,-14.0,-8.0,3.0,32.0,-2.0,15.0,20.0,13.0
1701711498.8038905,5.0,-3.0,-43.0,-101.0,0.0,-17.0,-8.0,-17.0
1701711498.8038905,-9.0,9.0,34.0,90.0,-12.0,-1.0,-14.0,-10.0
1701711498.8068933,0.0,2.0,-21.0,-52.0,0.0,4.0,2.0,1.0
1701711498.8068933,-8.0,-22.0,19.0,-24.0,-19.0,-15.0,-14.0,-9.0
1701711498.8068933,3.0,16.0,64.0,29.0,-4.0,-12.0,4.0,21.0
1701711498.8068933,-2.0,-22.0,-33.0,-16.0,13.0,2.0,-2.0,-26.0
1701711498.8283725,4.0,0.0,7.0,33.0,15.0,9.0,7.0,8.0
1701711498.8283725,-15.0,-16.0,4.0,66.0,15.0,5.0,3.0,-16.0
1701711498.8293738,-10.0,1.0,-25.0,-57.0,-29.0,3.0,6.0,3.0
1701711498.8293738,-9.0,-11.0,-1.0,-61.0,-13.0,-3.0,-6.0,-13.0
1701711498.8512757,12.0,16.0,35.0,83.0,70.0,18.0,29.0,22.0
1701711498.8512757,4.0,7.0,14.0,72.0,36.0,6.0,-8.0,3.0
1701711498.8512757,11.0,18.0,-23.0,-52.0,2.0,-7.0,-16.0,-14.0
1701711498.8512757,19.0,-3.0,28.0,17.0,-4.0,24.0,24.0,34.0
1701711498.865494,5.0,3.0,-46.0,-89.0,-38.0,-18.0,39.0,12.0
1701711498.865494,-8.0,-5.0,9.0,25.0,4.0,-24.0,-52.0,-29.0
1701711498.8734925,0.0,3.0,10.0,26.0,6.0,21.0,27.0,36.0
1701711498.8734925,10.0,21.0,20.0,13.0,37.0,48.0,30.0,3.0
1701711498.8886175,-9.0,-17.0,-14.0,-24.0,-19.0,-9.0,-11.0,-11.0
1701711498.8896286,-6.0,4.0,-13.0,-37.0,-6.0,-17.0,-6.0,-5.0
1701711498.8896286,-2.0,-10.0,21.0,77.0,-7.0,-10.0,-15.0,-3.0
1701711498.8896286,-2.0,9.0,1.0,-59.0,-16.0,-6.0,-14.0,-12.0
1701711498.911233,-8.0,-18.0,-19.0,53.0,20.0,-14.0,-22.0,-2.0
1701711498.9120073,17.0,28.0,29.0,-41.0,-19.0,9.0,16.0,0.0
1701711498.9130025,-12.0,-3.0,55.0,108.0,28.0,3.0,-10.0,-17.0
1701711498.9130025,2.0,22.0,-33.0,-11.0,-32.0,-25.0,-13.0,-27.0
1701711498.931309,16.0,13.0,45.0,-16.0,-16.0,-2.0,1.0,34.0
1701711498.931309,13.0,-7.0,-11.0,51.0,-8.0,-1.0,2.0,23.0
1701711498.933328,-14.0,-23.0,-90.0,-118.0,-25.0,-8.0,2.0,-9.0
1701711498.933328,11.0,16.0,-10.0,68.0,6.0,-9.0,7.0,-15.0
1701711498.9486234,-14.0,-12.0,46.0,59.0,16.0,1.0,-23.0,-12.0
1701711498.9486234,2.0,14.0,9.0,-40.0,-27.0,9.0,-5.0,-6.0
1701711498.9496145,4.0,-1.0,-28.0,-21.0,13.0,-1.0,3.0,-9.0
1701711498.9496145,-21.0,-27.0,-25.0,-11.0,-23.0,-9.0,1.0,38.0
1701711498.971274,13.0,8.0,-26.0,2.0,8.0,-6.0,-4.0,-30.0
1701711498.971274,4.0,-21.0,-14.0,-12.0,-7.0,12.0,-1.0,11.0
1701711498.97233,-18.0,-1.0,-1.0,43.0,-3.0,-16.0,-1.0,-40.0
1701711498.97233,9.0,9.0,2.0,-32.0,-9.0,-12.0,12.0,37.0
1701711498.985786,2.0,-2.0,14.0,23.0,4.0,13.0,-32.0,7.0
1701711498.985786,-11.0,-6.0,-26.0,5.0,-4.0,-17.0,21.0,-4.0
1701711499.0010364,20.0,8.0,18.0,38.0,1.0,-8.0,-22.0,2.0
1701711499.0017996,-9.0,-8.0,6.0,-23.0,-22.0,-7.0,8.0,-8.0
1701711499.008513,-11.0,-1.0,-7.0,-74.0,-38.0,19.0,28.0,-2.0
1701711499.008513,5.0,10.0,6.0,57.0,89.0,19.0,-14.0,-16.0
1701711499.009524,-16.0,-23.0,-20.0,-17.0,-20.0,-17.0,-32.0,-4.0
1701711499.009524,16.0,7.0,24.0,35.0,-6.0,13.0,19.0,17.0
1701711499.0315304,-1.0,1.0,-24.0,-22.0,-1.0,4.0,6.0,1.0
1701711499.0315304,-17.0,-12.0,-38.0,-49.0,-27.0,-15.0,1.0,-2.0
1701711499.0315304,-7.0,-3.0,37.0,-3.0,5.0,1.0,4.0,-8.0
1701711499.0315304,-3.0,-7.0,-20.0,16.0,17.0,14.0,-9.0,-14.0
1701711499.04504,13.0,-13.0,-10.0,12.0,-26.0,-2.0,-1.0,14.0
1701711499.0460405,-5.0,-12.0,-34.0,-59.0,-14.0,6.0,19.0,13.0
1701711499.0530725,-4.0,15.0,45.0,0.0,11.0,-1.0,-5.0,0.0
1701711499.0540376,-6.0,-17.0,-34.0,37.0,-5.0,-17.0,-18.0,-7.0
1701711499.0780637,-11.0,-13.0,-38.0,-87.0,8.0,3.0,3.0,-17.0
1701711499.0780637,2.0,22.0,25.0,-5.0,-31.0,-8.0,-6.0,-5.0
1701711499.0780637,9.0,-18.0,-21.0,-17.0,-9.0,-6.0,9.0,16.0
1701711499.0780637,-13.0,13.0,10.0,43.0,0.0,-11.0,-41.0,-22.0
1701711499.091041,-6.0,30.0,50.0,30.0,8.0,-14.0,19.0,3.0
1701711499.091041,4.0,-30.0,-28.0,7.0,5.0,11.0,-22.0,-19.0
1701711499.0920408,25.0,52.0,16.0,-17.0,-1.0,33.0,44.0,4.0
1701711499.0920408,10.0,-5.0,15.0,-13.0,18.0,19.0,37.0,26.0
1701711499.1141493,-1.0,-5.0,7.0,52.0,8.0,-8.0,28.0,55.0
1701711499.1141493,-5.0,13.0,14.0,78.0,4.0,-20.0,-35.0,-20.0
1701711499.1150415,-10.0,-30.0,-11.0,-18.0,-8.0,-18.0,-21.0,-2.0
1701711499.1150415,8.0,6.0,13.0,-12.0,19.0,22.0,2.0,-14.0
1701711499.1300652,-13.0,0.0,-20.0,61.0,4.0,-4.0,-4.0,-30.0
1701711499.1300652,-6.0,-17.0,12.0,-46.0,-16.0,-7.0,0.0,8.0
1701711499.1300652,-9.0,3.0,-12.0,67.0,13.0,9.0,-1.0,10.0
1701711499.1300652,-8.0,0.0,35.0,2.0,15.0,-10.0,-3.0,-24.0
1701711499.1514542,-17.0,-30.0,-63.0,-128.0,-64.0,-11.0,-22.0,-4.0
1701711499.1514542,9.0,8.0,6.0,117.0,47.0,5.0,4.0,-7.0
1701711499.1522627,13.0,-1.0,61.0,49.0,-35.0,-2.0,-12.0,8.0
1701711499.1522627,-7.0,-16.0,-61.0,-41.0,1.0,-13.0,-6.0,3.0
1701711499.16544,-3.0,-6.0,-2.0,83.0,42.0,-1.0,-14.0,-22.0
1701711499.16544,20.0,46.0,5.0,-70.0,-45.0,18.0,30.0,37.0
1701711499.1743991,-8.0,-10.0,-24.0,24.0,27.0,-2.0,-1.0,-8.0
1701711499.1743991,-6.0,-7.0,0.0,-51.0,-32.0,-9.0,-16.0,-10.0
1701711499.1892688,1.0,7.0,27.0,-7.0,-6.0,-4.0,-6.0,-8.0
1701711499.1892688,-21.0,-22.0,-12.0,-8.0,-38.0,-5.0,6.0,-8.0
1701711499.1892688,29.0,23.0,11.0,54.0,44.0,13.0,27.0,19.0
1701711499.1902835,-2.0,24.0,46.0,0.0,-34.0,-24.0,-45.0,-7.0
1701711499.2266634,-1.0,-1.0,13.0,63.0,-24.0,-16.0,8.0,-1.0
1701711499.2266634,10.0,-14.0,-1.0,6.0,61.0,32.0,21.0,13.0
1701711499.227533,-26.0,-26.0,-33.0,-128.0,-59.0,-27.0,-2.0,-16.0
1701711499.227533,0.0,9.0,-17.0,68.0,78.0,8.0,3.0,-18.0
1701711499.234639,7.0,-13.0,39.0,67.0,-23.0,-6.0,-35.0,11.0
1701711499.234639,-16.0,4.0,11.0,-9.0,-18.0,-25.0,-7.0,-69.0
1701711499.234639,56.0,19.0,-6.0,-30.0,20.0,37.0,47.0,112.0
1701711499.234639,-18.0,-10.0,-19.0,-26.0,-12.0,-10.0,15.0,-22.0
1701711499.2496269,-3.0,15.0,-8.0,-73.0,8.0,7.0,-25.0,-14.0
1701711499.2496269,-36.0,-22.0,-58.0,-55.0,-26.0,-20.0,-1.0,-51.0
1701711499.2496269,3.0,-14.0,37.0,45.0,19.0,39.0,-31.0,11.0
1701711499.2496269,-5.0,6.0,9.0,23.0,-25.0,-6.0,8.0,11.0
1701711499.2714694,-1.0,-9.0,-11.0,-69.0,1.0,-9.0,-3.0,5.0
1701711499.2714694,9.0,23.0,35.0,-42.0,-20.0,-19.0,-11.0,-9.0
1701711499.272479,-19.0,-6.0,22.0,30.0,-18.0,-3.0,2.0,-42.0
1701711499.272479,25.0,-18.0,-30.0,32.0,2.0,4.0,7.0,47.0
1701711499.294275,-7.0,2.0,2.0,-73.0,-3.0,11.0,8.0,-18.0
1701711499.294275,1.0,-29.0,-57.0,-53.0,-18.0,-16.0,-8.0,28.0
1701711499.2953384,-13.0,7.0,7.0,63.0,12.0,-14.0,-13.0,-33.0
1701711499.2953384,4.0,17.0,44.0,49.0,19.0,12.0,4.0,26.0
1701711499.3134146,0.0,-4.0,-40.0,-53.0,-17.0,1.0,15.0,-5.0
1701711499.3134146,4.0,5.0,28.0,60.0,10.0,-13.0,-23.0,8.0
1701711499.3134146,-4.0,-1.0,-50.0,-32.0,2.0,32.0,31.0,0.0
1701711499.3134146,-9.0,-14.0,-29.0,-32.0,13.0,12.0,-22.0,-26.0
1701711499.3314657,14.0,32.0,42.0,39.0,20.0,0.0,18.0,-3.0
1701711499.3314657,-4.0,-10.0,4.0,33.0,21.0,31.0,24.0,29.0
1701711499.3322158,-8.0,-17.0,-42.0,-13.0,-22.0,-50.0,-37.0,-14.0
1701711499.3322158,-14.0,-12.0,1.0,-54.0,-17.0,-12.0,-9.0,-22.0
1701711499.354207,6.0,13.0,1.0,-85.0,-16.0,4.0,14.0,8.0
1701711499.354207,18.0,-21.0,45.0,64.0,51.0,8.0,-1.0,19.0
1701711499.3562224,1.0,11.0,22.0,30.0,12.0,-9.0,-5.0,-4.0
1701711499.3562224,-10.0,-10.0,-19.0,-66.0,-11.0,23.0,64.0,6.0
1701711499.3691294,-6.0,-5.0,-35.0,-53.0,0.0,-7.0,-50.0,-23.0
1701711499.3691294,7.0,16.0,13.0,20.0,-6.0,0.0,28.0,37.0
1701711499.3691294,4.0,7.0,13.0,0.0,-6.0,-29.0,-37.0,-16.0
1701711499.3691294,1.0,2.0,-35.0,-93.0,-28.0,6.0,19.0,1.0
1701711499.3915591,-2.0,-4.0,54.0,127.0,30.0,5.0,1.0,12.0
1701711499.3915591,-3.0,2.0,-23.0,-28.0,-20.0,-4.0,-10.0,-39.0
1701711499.3915591,-7.0,9.0,30.0,5.0,-6.0,-9.0,-11.0,-6.0
1701711499.3915591,8.0,16.0,70.0,-20.0,-17.0,-14.0,14.0,0.0
1701711499.419078,12.0,-15.0,-87.0,-49.0,18.0,8.0,-14.0,-6.0
1701711499.419078,-3.0,6.0,16.0,-3.0,-12.0,8.0,8.0,19.0
1701711499.426079,-15.0,-23.0,-14.0,-59.0,-21.0,-9.0,0.0,-23.0
1701711499.426079,-40.0,-12.0,5.0,99.0,30.0,-12.0,-25.0,-59.0
1701711499.4281015,33.0,-22.0,-7.0,-43.0,-27.0,2.0,16.0,32.0
1701711499.4290805,-18.0,-13.0,-63.0,16.0,4.0,0.0,7.0,34.0
1701711499.4290805,29.0,76.0,79.0,-27.0,-18.0,-2.0,-5.0,-15.0
1701711499.4290805,2.0,-6.0,-34.0,65.0,1.0,-36.0,-56.0,-24.0
1701711499.4510393,-24.0,-15.0,61.0,46.0,5.0,17.0,36.0,1.0
1701711499.4510393,29.0,7.0,-45.0,32.0,18.0,5.0,0.0,21.0
1701711499.451819,-14.0,-8.0,-10.0,23.0,-6.0,-5.0,-5.0,14.0
1701711499.451819,10.0,2.0,-8.0,-58.0,-5.0,5.0,3.0,14.0
1701711499.4767609,-5.0,8.0,9.0,18.0,5.0,-4.0,15.0,14.0
1701711499.4767609,-1.0,-5.0,18.0,-31.0,-15.0,-5.0,-26.0,-24.0
1701711499.4767609,-33.0,-32.0,-27.0,23.0,9.0,-16.0,-22.0,-27.0
1701711499.4767609,22.0,11.0,8.0,-85.0,-1.0,5.0,-7.0,16.0
1701711499.489952,-35.0,-18.0,-33.0,-4.0,-89.0,-40.0,-17.0,-22.0
1701711499.490921,21.0,-14.0,31.0,76.0,86.0,49.0,45.0,17.0
1701711499.490921,9.0,-10.0,-37.0,-16.0,11.0,6.0,-1.0,2.0
1701711499.490921,-1.0,10.0,-11.0,10.0,-17.0,1.0,-1.0,3.0
1701711499.5115297,-13.0,-6.0,17.0,37.0,2.0,-2.0,-15.0,-15.0
1701711499.5115297,-14.0,8.0,28.0,10.0,-13.0,-4.0,-17.0,-14.0
1701711499.5125403,-13.0,-4.0,-6.0,-47.0,-100.0,-39.0,8.0,0.0
1701711499.5125403,19.0,-14.0,20.0,79.0,104.0,61.0,19.0,19.0
1701711499.5370822,1.0,15.0,1.0,15.0,-44.0,10.0,4.0,-2.0
1701711499.5370822,-3.0,7.0,-38.0,-20.0,-47.0,-16.0,-9.0,-13.0
1701711499.5370822,0.0,-17.0,10.0,-24.0,5.0,-11.0,-26.0,-5.0
1701711499.5370822,-13.0,9.0,26.0,-18.0,-25.0,7.0,17.0,-2.0
1701711499.5487452,1.0,-1.0,-56.0,-56.0,19.0,-5.0,3.0,4.0
1701711499.5487452,14.0,23.0,44.0,23.0,28.0,0.0,2.0,5.0
1701711499.5497253,5.0,-26.0,-53.0,-48.0,-5.0,24.0,1.0,16.0
1701711499.5497253,-22.0,7.0,24.0,82.0,0.0,8.0,9.0,-4.0
1701711499.5814734,30.0,32.0,54.0,78.0,60.0,30.0,20.0,-6.0
1701711499.5814734,-17.0,-9.0,-35.0,-107.0,-65.0,-55.0,-48.0,-20.0
1701711499.5814734,11.0,-3.0,-28.0,-10.0,16.0,14.0,28.0,13.0
1701711499.5814734,7.0,-10.0,-17.0,35.0,-5.0,-25.0,-35.0,6.0
1701711499.593537,-15.0,-4.0,-4.0,13.0,6.0,3.0,9.0,-3.0
1701711499.593537,-26.0,-31.0,-6.0,57.0,3.0,-8.0,13.0,-15.0
1701711499.5945168,18.0,41.0,32.0,-76.0,26.0,0.0,-3.0,6.0
1701711499.5945168,1.0,-10.0,-10.0,-12.0,-64.0,-6.0,2.0,12.0
1701711499.608987,-12.0,-11.0,-18.0,-41.0,-37.0,-18.0,-40.0,-28.0
1701711499.608987,12.0,22.0,40.0,94.0,105.0,20.0,-4.0,1.0
1701711499.608987,-30.0,-20.0,-37.0,-30.0,-7.0,-3.0,17.0,-8.0
1701711499.608987,25.0,6.0,6.0,-7.0,-57.0,-8.0,18.0,18.0
1701711499.6403334,-2.0,-1.0,-9.0,18.0,-23.0,-3.0,9.0,10.0
1701711499.6403334,-7.0,-5.0,3.0,-45.0,-66.0,-8.0,-13.0,-10.0
1701711499.6403334,-2.0,-1.0,12.0,5.0,26.0,25.0,18.0,1.0
1701711499.6403334,-16.0,3.0,-10.0,-43.0,0.0,-33.0,-21.0,-7.0
1701711499.6545627,1.0,-16.0,-16.0,-64.0,11.0,-6.0,-27.0,-17.0
1701711499.6555655,-8.0,8.0,17.0,84.0,-24.0,-4.0,19.0,6.0
1701711499.6565633,8.0,12.0,24.0,61.0,20.0,28.0,-9.0,15.0
1701711499.6565633,-18.0,-15.0,-64.0,-92.0,4.0,9.0,11.0,-24.0
1701711499.6691537,43.0,24.0,72.0,76.0,12.0,0.0,13.0,55.0
1701711499.6691537,-23.0,-30.0,-18.0,13.0,-18.0,-5.0,-7.0,-20.0
1701711499.6701312,-6.0,-17.0,-48.0,-47.0,-24.0,-25.0,-7.0,-13.0
1701711499.6701312,-3.0,-4.0,-25.0,21.0,26.0,13.0,6.0,5.0
1701711499.702526,-1.0,5.0,15.0,102.0,27.0,9.0,4.0,-9.0
1701711499.702526,3.0,10.0,20.0,17.0,18.0,8.0,-3.0,-9.0
1701711499.704529,0.0,-16.0,-32.0,4.0,-28.0,-1.0,11.0,7.0
1701711499.704529,-8.0,1.0,34.0,22.0,7.0,-8.0,-20.0,-4.0
1701711499.7154999,-7.0,-5.0,-47.0,-128.0,-12.0,2.0,6.0,-8.0
1701711499.7154999,22.0,29.0,34.0,-7.0,-6.0,-4.0,6.0,16.0
1701711499.7164986,-2.0,10.0,24.0,45.0,20.0,7.0,-2.0,6.0
1701711499.7164986,-3.0,-8.0,-12.0,-58.0,-18.0,-29.0,-19.0,-22.0
1701711499.7290382,-14.0,4.0,33.0,34.0,15.0,17.0,-19.0,-17.0
1701711499.7290382,37.0,11.0,-30.0,-128.0,0.0,15.0,51.0,68.0
1701711499.7290382,-22.0,-17.0,-6.0,-24.0,-3.0,-4.0,-23.0,-25.0
1701711499.7290382,-13.0,1.0,28.0,48.0,2.0,-15.0,-14.0,-23.0
1701711499.751276,8.0,-14.0,-9.0,30.0,-27.0,-6.0,-3.0,-3.0
1701711499.751276,-28.0,-6.0,-35.0,-104.0,-96.0,-27.0,-40.0,-24.0
1701711499.751276,11.0,-17.0,10.0,57.0,98.0,39.0,21.0,0.0
1701711499.7522821,-7.0,-12.0,-7.0,13.0,-11.0,-5.0,0.0,11.0
1701711499.7743826,12.0,28.0,33.0,24.0,7.0,8.0,34.0,21.0
1701711499.7743826,9.0,-6.0,-35.0,-43.0,-7.0,-6.0,-8.0,-3.0
1701711499.774989,-13.0,-6.0,-15.0,20.0,-16.0,2.0,-2.0,-2.0
1701711499.774989,2.0,1.0,58.0,15.0,16.0,-2.0,-13.0,-12.0
1701711499.7887268,-1.0,19.0,-35.0,-28.0,29.0,-10.0,-7.0,5.0
1701711499.7887268,-6.0,-2.0,-42.0,69.0,-14.0,57.0,62.0,-19.0
1701711499.7897239,14.0,20.0,29.0,-49.0,-17.0,-26.0,-25.0,20.0
1701711499.7897239,-1.0,-24.0,25.0,64.0,20.0,24.0,30.0,19.0
1701711499.8112745,-8.0,3.0,-2.0,-16.0,-15.0,-10.0,-14.0,-5.0
1701711499.8112745,17.0,5.0,-14.0,-58.0,5.0,21.0,-1.0,4.0
1701711499.8120015,-3.0,15.0,57.0,68.0,-9.0,-16.0,2.0,-21.0
1701711499.8120015,4.0,13.0,-56.0,-26.0,-19.0,0.0,-2.0,10.0
1701711499.833575,1.0,-15.0,25.0,1.0,0.0,-12.0,-14.0,-10.0
1701711499.833575,-28.0,-16.0,-2.0,51.0,21.0,-9.0,-20.0,-20.0
1701711499.8344996,6.0,0.0,-5.0,4.0,-12.0,12.0,28.0,9.0
1701711499.8344996,15.0,10.0,-25.0,-47.0,24.0,-13.0,-40.0,-18.0
1701711499.8497546,-11.0,-5.0,-54.0,-85.0,-47.0,-9.0,38.0,20.0
1701711499.8497546,-3.0,2.0,27.0,58.0,17.0,-9.0,-31.0,-3.0
1701711499.8652072,8.0,-3.0,-16.0,28.0,13.0,11.0,19.0,15.0
1701711499.8652072,-5.0,5.0,10.0,-43.0,-16.0,-13.0,-12.0,-8.0
1701711499.8716986,5.0,-19.0,-44.0,-44.0,16.0,23.0,-2.0,-6.0
1701711499.8716986,-6.0,-3.0,54.0,23.0,9.0,1.0,22.0,11.0
1701711499.8726912,-26.0,4.0,2.0,-68.0,-35.0,-22.0,-22.0,-21.0
1701711499.8726912,11.0,5.0,-22.0,63.0,-2.0,4.0,8.0,23.0
1701711499.9021637,-5.0,-18.0,35.0,61.0,17.0,6.0,-23.0,-3.0
1701711499.9021637,12.0,18.0,54.0,-50.0,10.0,-9.0,-8.0,9.0
1701711499.9021637,-3.0,-6.0,4.0,5.0,-13.0,6.0,1.0,-37.0
1701711499.9021637,11.0,10.0,20.0,21.0,20.0,20.0,19.0,44.0
1701711499.9082484,-15.0,-6.0,-54.0,-28.0,-31.0,-17.0,-9.0,-18.0
1701711499.9082484,25.0,-2.0,19.0,59.0,7.0,-3.0,8.0,32.0
1701711499.9243362,-1.0,2.0,-5.0,39.0,16.0,6.0,-2.0,-4.0
1701711499.9243362,-15.0,-24.0,14.0,39.0,-34.0,-27.0,-12.0,-11.0
1701711499.9314532,2.0,2.0,2.0,24.0,21.0,16.0,5.0,-11.0
1701711499.9314532,-1.0,23.0,18.0,-34.0,5.0,-4.0,-4.0,10.0
1701711499.9325316,-4.0,-20.0,-77.0,-71.0,-28.0,-18.0,-52.0,-29.0
1701711499.9325316,-10.0,-13.0,-26.0,-79.0,-8.0,12.0,44.0,0.0
1701711499.9478016,37.0,32.0,51.0,74.0,-4.0,10.0,16.0,36.0
1701711499.9478016,-15.0,-16.0,-47.0,-50.0,-19.0,-23.0,-40.0,-37.0
1701711499.9478016,-13.0,-3.0,25.0,-11.0,-29.0,-21.0,0.0,8.0
1701711499.9478016,-8.0,-14.0,0.0,65.0,39.0,15.0,-39.0,-26.0
1701711499.9678144,-13.0,-30.0,-48.0,-111.0,-43.0,-33.0,7.0,-11.0
1701711499.9678144,24.0,25.0,34.0,68.0,11.0,23.0,31.0,29.0
1701711499.9678144,-5.0,-14.0,-51.0,-29.0,-41.0,-21.0,3.0,16.0
1701711499.9678144,-14.0,-7.0,7.0,-41.0,-28.0,-1.0,-11.0,-31.0
1701711499.9878192,-2.0,25.0,32.0,21.0,10.0,-24.0,-22.0,8.0
1701711499.9878192,-5.0,-28.0,-31.0,-2.0,5.0,13.0,18.0,-6.0
1701711499.9878192,-1.0,10.0,62.0,110.0,7.0,22.0,28.0,15.0
1701711499.9878192,-5.0,-23.0,-76.0,-106.0,-22.0,-8.0,0.0,-19.0
1701711500.0078647,17.0,11.0,16.0,-10.0,7.0,0.0,2.0,21.0
1701711500.0078647,-27.0,-14.0,18.0,27.0,1.0,-26.0,-27.0,-22.0
1701711500.0078647,4.0,-3.0,-37.0,-15.0,12.0,10.0,-5.0,3.0
1701711500.0078647,13.0,17.0,-4.0,-15.0,-4.0,2.0,17.0,18.0
1701711500.0278182,-20.0,-24.0,-10.0,-17.0,15.0,15.0,1.0,-19.0
1701711500.0278182,-18.0,-2.0,20.0,-4.0,2.0,-14.0,-17.0,-24.0
1701711500.0361152,9.0,16.0,49.0,-45.0,-28.0,-1.0,8.0,-1.0
1701711500.0361152,25.0,7.0,22.0,69.0,10.0,-3.0,-5.0,18.0
1701711500.0571995,-36.0,-25.0,-33.0,-75.0,-12.0,-26.0,0.0,-22.0
1701711500.0571995,14.0,12.0,24.0,11.0,12.0,-19.0,-33.0,15.0
1701711500.0571995,9.0,-19.0,-72.0,-60.0,-3.0,49.0,31.0,10.0
1701711500.0571995,-4.0,-3.0,17.0,11.0,-7.0,-8.0,12.0,18.0
1701711500.074631,4.0,11.0,47.0,17.0,22.0,29.0,-9.0,-16.0
1701711500.074631,12.0,-4.0,-24.0,-7.0,-2.0,6.0,1.0,-23.0
1701711500.0756323,-4.0,20.0,44.0,34.0,19.0,-11.0,31.0,20.0
1701711500.0756323,-6.0,-2.0,11.0,-9.0,9.0,-9.0,-25.0,-8.0
1701711500.087927,15.0,13.0,-28.0,-12.0,-17.0,-5.0,8.0,-5.0
1701711500.087927,-45.0,-11.0,-67.0,-65.0,-15.0,-34.0,-36.0,6.0
1701711500.1019611,50.0,2.0,49.0,60.0,63.0,17.0,11.0,10.0
1701711500.1019611,-30.0,21.0,-32.0,-36.0,-47.0,-13.0,-5.0,-16.0
1701711500.1110063,-5.0,-13.0,13.0,96.0,82.0,-15.0,-2.0,1.0
1701711500.1117876,-39.0,-7.0,42.0,67.0,-38.0,6.0,-15.0,-23.0
1701711500.1117876,19.0,24.0,-43.0,-81.0,-47.0,-20.0,-14.0,1.0
1701711500.1117876,25.0,-7.0,-2.0,-66.0,-12.0,-19.0,7.0,9.0
1701711500.1348999,-14.0,-41.0,-30.0,46.0,-12.0,0.0,-20.0,-19.0
1701711500.1348999,8.0,5.0,-15.0,-105.0,-7.0,7.0,22.0,4.0
1701711500.1348999,-31.0,-22.0,61.0,53.0,17.0,-5.0,-18.0,-7.0
1701711500.1348999,-2.0,20.0,36.0,86.0,8.0,24.0,14.0,-28.0
