1702323595.0979483,2.0,71.0,-16.0,4.0,6.0,-1.0,-1.0,3.0
1702323595.0979483,6.0,-17.0,-1.0,-14.0,-7.0,10.0,-6.0,-12.0
1702323595.0979483,28.0,39.0,-25.0,8.0,8.0,16.0,16.0,23.0
1702323595.0979483,5.0,11.0,34.0,9.0,-1.0,-9.0,-9.0,-8.0
1702323595.1279185,-8.0,-12.0,-13.0,-2.0,2.0,0.0,-4.0,-2.0
1702323595.1279185,-15.0,-43.0,11.0,3.0,-6.0,-6.0,-3.0,-1.0
1702323595.1279185,7.0,43.0,34.0,11.0,4.0,-11.0,4.0,10.0
1702323595.1279185,14.0,27.0,-5.0,-13.0,-6.0,-10.0,2.0,3.0
1702323595.137945,-7.0,-24.0,-9.0,-1.0,-6.0,9.0,0.0,-1.0
1702323595.137945,9.0,-7.0,37.0,9.0,5.0,1.0,6.0,-3.0
1702323595.147922,-6.0,-12.0,7.0,-6.0,-6.0,-8.0,-4.0,5.0
1702323595.147922,10.0,28.0,4.0,-6.0,-5.0,-4.0,-3.0,-2.0
1702323595.176941,-11.0,-19.0,-24.0,-10.0,-6.0,-5.0,2.0,2.0
1702323595.176941,4.0,-6.0,-22.0,4.0,0.0,4.0,1.0,0.0
1702323595.176941,-15.0,0.0,37.0,16.0,11.0,8.0,1.0,-12.0
1702323595.176941,5.0,0.0,-14.0,-8.0,-2.0,3.0,-2.0,-5.0
1702323595.176941,11.0,8.0,-3.0,-5.0,0.0,1.0,0.0,4.0
1702323595.176941,-4.0,6.0,-7.0,1.0,-1.0,4.0,-2.0,-3.0
1702323595.176941,-10.0,-14.0,-35.0,-13.0,-6.0,-5.0,0.0,2.0
1702323595.176941,14.0,21.0,35.0,2.0,-5.0,-2.0,-4.0,-3.0
1702323595.196992,-17.0,-9.0,-11.0,-10.0,-4.0,-4.0,-2.0,-1.0
1702323595.196992,14.0,11.0,42.0,13.0,6.0,-1.0,1.0,3.0
1702323595.2069905,-11.0,-5.0,-7.0,7.0,4.0,1.0,-1.0,-3.0
1702323595.2069905,3.0,7.0,3.0,-3.0,-5.0,1.0,-1.0,0.0
1702323595.2369542,-2.0,-7.0,-26.0,-15.0,0.0,4.0,2.0,3.0
1702323595.2369542,-1.0,-1.0,38.0,8.0,11.0,6.0,0.0,2.0
1702323595.2369542,22.0,19.0,-21.0,-3.0,-4.0,-5.0,-3.0,-4.0
1702323595.2369542,-14.0,-4.0,-11.0,10.0,4.0,5.0,1.0,1.0
1702323595.2369542,0.0,-58.0,-44.0,-14.0,-18.0,-11.0,-2.0,1.0
1702323595.2369542,-26.0,-12.0,33.0,-3.0,2.0,-6.0,-2.0,-6.0
1702323595.2369542,9.0,-13.0,-40.0,-10.0,5.0,6.0,3.0,5.0
1702323595.2369542,9.0,5.0,8.0,16.0,2.0,-4.0,4.0,-12.0
1702323595.2570524,-11.0,14.0,50.0,12.0,2.0,0.0,-10.0,-5.0
1702323595.2570524,6.0,7.0,10.0,4.0,-7.0,-3.0,0.0,5.0
1702323595.266958,-16.0,-19.0,-14.0,-23.0,-7.0,-3.0,-2.0,-4.0
1702323595.266958,12.0,11.0,3.0,-8.0,-7.0,-2.0,-3.0,4.0
1702323595.289925,-14.0,-18.0,-16.0,-1.0,4.0,3.0,0.0,-7.0
1702323595.289925,2.0,7.0,35.0,9.0,4.0,3.0,2.0,-2.0
1702323595.289925,-7.0,-5.0,4.0,1.0,-7.0,-6.0,-8.0,-2.0
1702323595.289925,-10.0,-42.0,-47.0,-17.0,-9.0,-2.0,-7.0,-3.0
1702323595.3055575,4.0,17.0,41.0,3.0,-3.0,3.0,5.0,0.0
1702323595.3062212,-3.0,-1.0,-30.0,-3.0,2.0,-9.0,-7.0,-1.0
1702323595.306907,-1.0,5.0,17.0,10.0,13.0,10.0,5.0,0.0
1702323595.306907,-16.0,-25.0,-26.0,-6.0,5.0,-2.0,-3.0,-5.0
1702323595.311271,14.0,3.0,-15.0,6.0,-2.0,-6.0,0.0,0.0
1702323595.311271,-5.0,6.0,-15.0,-9.0,-6.0,1.0,0.0,-5.0
1702323595.3312669,-3.0,14.0,43.0,1.0,-7.0,-4.0,-1.0,6.0
1702323595.3312669,-2.0,-25.0,-21.0,9.0,5.0,4.0,-1.0,0.0
1702323595.3414354,2.0,35.0,17.0,-1.0,5.0,6.0,0.0,-1.0
1702323595.3414354,-3.0,-26.0,-22.0,-14.0,-8.0,-4.0,-3.0,-5.0
1702323595.3414354,5.0,2.0,10.0,1.0,-1.0,-1.0,-2.0,1.0
1702323595.3414354,14.0,19.0,4.0,0.0,0.0,4.0,12.0,3.0
1702323595.3613353,10.0,7.0,16.0,-2.0,-9.0,-9.0,-10.0,8.0
1702323595.3613353,0.0,-6.0,-7.0,0.0,8.0,11.0,10.0,6.0
1702323595.3613353,-14.0,-9.0,-8.0,-6.0,-1.0,2.0,0.0,-5.0
1702323595.3613353,2.0,-5.0,15.0,1.0,2.0,-2.0,0.0,0.0
1702323595.3715415,7.0,18.0,-2.0,8.0,10.0,4.0,4.0,1.0
1702323595.3715415,3.0,-8.0,-14.0,-9.0,-10.0,-4.0,-5.0,-3.0
1702323595.3815045,-11.0,-17.0,-15.0,2.0,3.0,1.0,0.0,0.0
1702323595.3815045,9.0,39.0,72.0,9.0,2.0,-2.0,-6.0,1.0
1702323595.421611,-12.0,-37.0,-64.0,-6.0,1.0,0.0,2.0,-3.0
1702323595.421611,-3.0,7.0,-16.0,7.0,5.0,5.0,2.0,8.0
1702323595.421611,17.0,10.0,11.0,-1.0,-7.0,-6.0,6.0,-1.0
1702323595.421611,-16.0,-26.0,-2.0,2.0,2.0,0.0,-5.0,-2.0
1702323595.421611,4.0,5.0,-2.0,3.0,0.0,0.0,0.0,1.0
1702323595.421611,1.0,18.0,33.0,3.0,-7.0,-6.0,-4.0,-8.0
1702323595.421611,17.0,26.0,-12.0,3.0,0.0,-3.0,-1.0,3.0
1702323595.421611,-17.0,-27.0,-17.0,-7.0,-2.0,-3.0,-4.0,-5.0
1702323595.4318783,9.0,8.0,1.0,-5.0,-7.0,-4.0,-2.0,-2.0
1702323595.4318783,9.0,3.0,-21.0,-5.0,2.0,3.0,2.0,2.0
1702323595.4516098,-23.0,-40.0,-10.0,-6.0,0.0,-1.0,-1.0,-5.0
1702323595.4516098,25.0,31.0,15.0,7.0,-5.0,-6.0,-4.0,5.0
1702323595.4618313,-22.0,-19.0,-10.0,-9.0,-5.0,-6.0,-3.0,-7.0
1702323595.4618313,-16.0,-25.0,-13.0,-9.0,-5.0,-4.0,-3.0,-6.0
1702323595.4618313,33.0,36.0,7.0,5.0,-1.0,-2.0,-2.0,3.0
1702323595.4618313,-12.0,2.0,6.0,-9.0,-6.0,-2.0,-2.0,-3.0
1702323595.481876,-25.0,-41.0,-19.0,-6.0,3.0,5.0,2.0,-2.0
1702323595.481876,-4.0,6.0,2.0,0.0,1.0,1.0,2.0,2.0
1702323595.481876,6.0,8.0,18.0,7.0,-1.0,-1.0,-1.0,1.0
1702323595.481876,-31.0,-60.0,-41.0,4.0,8.0,6.0,4.0,2.0
1702323595.511611,9.0,13.0,15.0,1.0,-2.0,-3.0,-2.0,-2.0
1702323595.511611,16.0,10.0,8.0,5.0,-1.0,-2.0,0.0,0.0
1702323595.511611,-19.0,-40.0,19.0,1.0,1.0,2.0,0.0,-4.0
1702323595.511611,13.0,26.0,-27.0,10.0,0.0,-2.0,-2.0,3.0
1702323595.5218506,-14.0,-14.0,21.0,-3.0,0.0,1.0,-2.0,-1.0
1702323595.5218506,-19.0,-22.0,-1.0,-8.0,-5.0,-6.0,-3.0,-4.0
1702323595.5218506,2.0,9.0,-55.0,-16.0,-8.0,-6.0,-7.0,-3.0
1702323595.5218506,35.0,46.0,34.0,9.0,5.0,6.0,2.0,6.0
1702323595.5419335,-7.0,5.0,-16.0,-2.0,2.0,3.0,1.0,0.0
1702323595.5419335,10.0,21.0,10.0,10.0,6.0,5.0,4.0,4.0
1702323595.5419335,17.0,57.0,84.0,12.0,3.0,3.0,1.0,4.0
1702323595.5419335,-19.0,-46.0,-71.0,-24.0,-13.0,-7.0,-8.0,-9.0
1702323595.5616105,15.0,15.0,-37.0,0.0,0.0,-1.0,1.0,2.0
1702323595.5616105,-3.0,15.0,49.0,-3.0,-5.0,-6.0,-2.0,-4.0
1702323595.5616105,-14.0,-28.0,-37.0,-6.0,-5.0,-7.0,-3.0,-5.0
1702323595.5616105,29.0,54.0,39.0,17.0,12.0,7.0,5.0,8.0
1702323595.5819826,-13.0,-21.0,-7.0,1.0,0.0,-1.0,-3.0,-7.0
1702323595.5819826,-5.0,-6.0,-28.0,-3.0,-3.0,-2.0,-2.0,-2.0
1702323595.5819826,-2.0,-8.0,6.0,0.0,-6.0,-5.0,-4.0,-3.0
1702323595.5819826,-12.0,-3.0,43.0,-4.0,-5.0,-2.0,-1.0,-3.0
1702323595.6019213,7.0,16.0,7.0,1.0,-5.0,-8.0,-6.0,-3.0
1702323595.6019213,-8.0,-16.0,-28.0,-11.0,-16.0,-5.0,-5.0,-6.0
1702323595.6019213,10.0,37.0,15.0,3.0,10.0,3.0,2.0,3.0
1702323595.6019213,-2.0,-8.0,-3.0,-14.0,-8.0,-4.0,-4.0,-3.0
1702323595.6216087,8.0,22.0,40.0,11.0,5.0,2.0,-1.0,1.0
1702323595.6216087,3.0,0.0,5.0,5.0,8.0,6.0,8.0,6.0
1702323595.6319969,-10.0,-18.0,-27.0,-2.0,-13.0,-3.0,-1.0,-4.0
1702323595.6319969,0.0,6.0,9.0,1.0,14.0,2.0,1.0,2.0
1702323595.6416123,8.0,0.0,42.0,6.0,3.0,-2.0,-1.0,-2.0
1702323595.6416123,-1.0,0.0,-30.0,-1.0,-1.0,-1.0,-7.0,-2.0
1702323595.6416123,-18.0,-36.0,-38.0,-14.0,-9.0,-5.0,-5.0,-15.0
1702323595.6416123,-2.0,-2.0,-13.0,-4.0,-9.0,-6.0,-5.0,5.0
1702323595.6618562,6.0,6.0,9.0,-3.0,-11.0,-19.0,3.0,9.0
1702323595.6618562,-2.0,9.0,11.0,-2.0,11.0,-1.0,-7.0,-29.0
1702323595.6618562,3.0,-14.0,4.0,6.0,9.0,18.0,8.0,37.0
1702323595.6618562,-4.0,21.0,-1.0,2.0,-2.0,10.0,3.0,-7.0
1702323595.6716125,-4.0,-57.0,-13.0,-13.0,-6.0,-6.0,8.0,7.0
1702323595.6716125,-3.0,6.0,-49.0,3.0,-9.0,6.0,8.0,4.0
1702323595.681646,-4.0,-11.0,19.0,-13.0,-11.0,-8.0,-13.0,-1.0
1702323595.681646,5.0,12.0,6.0,3.0,13.0,-8.0,12.0,-10.0
1702323595.7018967,10.0,14.0,-23.0,1.0,-5.0,15.0,-9.0,2.0
1702323595.7018967,-3.0,-18.0,13.0,5.0,8.0,10.0,-7.0,-19.0
1702323595.7018967,-5.0,-14.0,14.0,1.0,-1.0,-7.0,-12.0,7.0
1702323595.7018967,-3.0,16.0,-41.0,-7.0,0.0,5.0,0.0,2.0
1702323595.7316113,7.0,20.0,37.0,14.0,10.0,-15.0,-2.0,-19.0
1702323595.7316113,-4.0,-46.0,15.0,-2.0,3.0,7.0,7.0,20.0
1702323595.7316113,9.0,30.0,-12.0,2.0,0.0,-1.0,-11.0,-10.0
1702323595.7316113,-4.0,15.0,-14.0,-13.0,-23.0,-24.0,-15.0,18.0
1702323595.7416086,10.0,63.0,30.0,1.0,-6.0,12.0,9.0,22.0
1702323595.7416086,10.0,18.0,-11.0,-7.0,-7.0,-8.0,-11.0,-36.0
1702323595.7416086,-47.0,-14.0,-3.0,-3.0,4.0,-4.0,9.0,14.0
1702323595.7416086,2.0,13.0,8.0,-3.0,-5.0,-4.0,5.0,-9.0
1702323595.7618413,5.0,12.0,-8.0,2.0,0.0,3.0,-10.0,18.0
1702323595.7618413,8.0,7.0,7.0,-4.0,0.0,-2.0,-8.0,-16.0
1702323595.7618413,10.0,18.0,-13.0,-4.0,-2.0,-7.0,1.0,-9.0
1702323595.7618413,4.0,-4.0,43.0,10.0,7.0,0.0,3.0,21.0
1702323595.7916133,-12.0,0.0,-64.0,-13.0,-4.0,12.0,0.0,-9.0
1702323595.7916133,1.0,39.0,3.0,-3.0,-2.0,-3.0,0.0,7.0
1702323595.7916133,9.0,28.0,16.0,4.0,-2.0,0.0,5.0,0.0
1702323595.7916133,-11.0,12.0,8.0,4.0,3.0,1.0,-1.0,-2.0
1702323595.7916133,6.0,-39.0,-23.0,-2.0,10.0,-2.0,-7.0,-27.0
1702323595.7916133,-29.0,-71.0,18.0,-4.0,-5.0,-8.0,6.0,24.0
1702323595.8016443,1.0,54.0,-13.0,-8.0,-4.0,0.0,6.0,-10.0
1702323595.8016443,0.0,-22.0,13.0,10.0,1.0,11.0,0.0,-10.0
1702323595.8230548,-30.0,-87.0,-7.0,-5.0,-3.0,-4.0,-2.0,-7.0
1702323595.8230548,0.0,35.0,32.0,8.0,4.0,0.0,4.0,13.0
1702323595.8294103,16.0,-57.0,-53.0,-9.0,-5.0,-4.0,-9.0,-29.0
1702323595.8294103,0.0,12.0,-5.0,-3.0,-5.0,-9.0,-9.0,-11.0
1702323595.843859,30.0,46.0,21.0,-2.0,1.0,2.0,-10.0,-11.0
1702323595.843859,0.0,-28.0,41.0,6.0,1.0,0.0,22.0,57.0
1702323595.843859,3.0,-38.0,-29.0,-9.0,-1.0,1.0,20.0,-9.0
1702323595.843859,4.0,27.0,-1.0,-3.0,-6.0,-1.0,-11.0,4.0
1702323595.8538957,-9.0,-43.0,-19.0,10.0,16.0,6.0,8.0,18.0
1702323595.8538957,18.0,7.0,18.0,-3.0,-14.0,-33.0,-25.0,-13.0
1702323595.86406,-10.0,-1.0,17.0,7.0,5.0,8.0,1.0,11.0
1702323595.86406,-4.0,-46.0,-22.0,-5.0,4.0,2.0,15.0,-1.0
1702323595.8838663,-7.0,-7.0,34.0,0.0,-7.0,6.0,-12.0,-2.0
1702323595.8838663,-33.0,-6.0,-40.0,-19.0,-12.0,-25.0,-12.0,-17.0
1702323595.8838663,15.0,-13.0,-7.0,12.0,17.0,33.0,25.0,17.0
1702323595.8838663,-38.0,-39.0,-26.0,-11.0,-10.0,-19.0,-25.0,-54.0
1702323595.9018712,9.0,32.0,35.0,-7.0,-4.0,10.0,3.0,37.0
1702323595.9018712,14.0,41.0,9.0,5.0,4.0,6.0,3.0,7.0
1702323595.9018712,-38.0,-18.0,-7.0,-11.0,-8.0,-12.0,-15.0,0.0
1702323595.9018712,4.0,-46.0,7.0,6.0,10.0,21.0,14.0,4.0
1702323595.9118783,-2.0,26.0,-33.0,0.0,1.0,8.0,11.0,4.0
1702323595.9118783,-9.0,-23.0,7.0,-2.0,-12.0,-13.0,-5.0,-28.0
1702323595.9221666,6.0,87.0,45.0,15.0,5.0,-11.0,-13.0,0.0
1702323595.9221666,4.0,-35.0,-4.0,-10.0,-8.0,-21.0,-1.0,14.0
1702323595.9418788,1.0,49.0,-4.0,-3.0,-1.0,0.0,-6.0,-10.0
1702323595.9418788,11.0,-35.0,-44.0,-2.0,6.0,21.0,14.0,15.0
1702323595.9418788,-3.0,-44.0,11.0,-1.0,-1.0,0.0,-19.0,-7.0
1702323595.9418788,15.0,5.0,51.0,8.0,7.0,20.0,8.0,-1.0
1702323595.961909,-7.0,-64.0,-29.0,-12.0,-13.0,-14.0,-5.0,8.0
1702323595.961909,4.0,79.0,-9.0,2.0,7.0,6.0,-14.0,-18.0
1702323595.961909,-7.0,-31.0,-49.0,-7.0,-5.0,-26.0,-4.0,-8.0
1702323595.961909,5.0,12.0,35.0,-2.0,2.0,14.0,-8.0,13.0
1702323595.972196,-11.0,-13.0,12.0,2.0,0.0,0.0,5.0,-28.0
1702323595.972196,14.0,49.0,15.0,5.0,0.0,-4.0,11.0,18.0
1702323595.9821615,-8.0,-50.0,14.0,-9.0,-6.0,28.0,10.0,-6.0
1702323595.9821615,-7.0,-7.0,-63.0,0.0,2.0,-6.0,-10.0,-7.0
1702323596.0018797,8.0,26.0,-1.0,4.0,2.0,-19.0,1.0,-3.0
1702323596.0018797,-21.0,30.0,16.0,2.0,4.0,-9.0,-1.0,-14.0
1702323596.0018797,0.0,-58.0,15.0,6.0,1.0,22.0,6.0,14.0
1702323596.0018797,19.0,21.0,-60.0,-24.0,-11.0,-10.0,-6.0,5.0
1702323596.0220585,3.0,15.0,23.0,2.0,-3.0,-22.0,0.0,-4.0
1702323596.0220585,5.0,-42.0,-100.0,-12.0,-1.0,9.0,8.0,13.0
1702323596.0220585,-11.0,39.0,58.0,26.0,6.0,-10.0,2.0,-4.0
1702323596.0220585,-6.0,-5.0,-9.0,0.0,-4.0,-11.0,2.0,-2.0
1702323596.0320847,-4.0,-20.0,-21.0,-6.0,-2.0,17.0,-1.0,-2.0
1702323596.0320847,3.0,-50.0,29.0,0.0,-3.0,-6.0,-3.0,-2.0
1702323596.0420659,7.0,77.0,7.0,-13.0,-12.0,-19.0,-7.0,-7.0
1702323596.0420659,-12.0,-46.0,-23.0,-5.0,-9.0,-14.0,-4.0,-3.0
1702323596.0718782,13.0,35.0,-3.0,2.0,7.0,13.0,12.0,3.0
1702323596.0718782,0.0,12.0,20.0,16.0,7.0,7.0,-7.0,3.0
1702323596.0718782,7.0,20.0,-13.0,0.0,-1.0,-1.0,-6.0,-2.0
1702323596.0718782,-13.0,-20.0,11.0,-3.0,1.0,3.0,5.0,-1.0
1702323596.0821724,-4.0,36.0,34.0,-12.0,-15.0,-19.0,-9.0,-16.0
1702323596.0821724,-4.0,-61.0,-2.0,-2.0,1.0,-3.0,0.0,-1.0
1702323596.0821724,-15.0,-4.0,-41.0,3.0,3.0,1.0,0.0,-1.0
1702323596.0821724,-1.0,-13.0,32.0,-4.0,2.0,-2.0,-4.0,-4.0
1702323596.091879,11.0,14.0,-34.0,-1.0,-4.0,-10.0,-3.0,11.0
1702323596.091879,-33.0,-40.0,49.0,-2.0,-6.0,5.0,-7.0,-23.0
1702323596.1020603,8.0,-11.0,-55.0,-15.0,0.0,-1.0,2.0,-1.0
1702323596.1020603,0.0,14.0,22.0,-6.0,-5.0,2.0,0.0,4.0
1702323596.121881,-15.0,4.0,36.0,12.0,7.0,0.0,-1.0,6.0
1702323596.121881,9.0,6.0,-2.0,15.0,3.0,8.0,6.0,-5.0
1702323596.121881,6.0,3.0,12.0,4.0,2.0,-4.0,-2.0,-5.0
1702323596.121881,-1.0,27.0,15.0,1.0,-4.0,5.0,4.0,2.0
1702323596.1418777,8.0,-28.0,-49.0,-21.0,-8.0,-6.0,-4.0,-3.0
1702323596.1418777,-12.0,-1.0,28.0,6.0,7.0,1.0,-5.0,2.0
1702323596.1418777,10.0,7.0,11.0,-3.0,-4.0,-5.0,-3.0,0.0
1702323596.1418777,-15.0,14.0,-17.0,4.0,0.0,-2.0,-1.0,-2.0
1702323596.1522088,3.0,-7.0,8.0,1.0,0.0,2.0,-1.0,-3.0
1702323596.1522088,3.0,10.0,-16.0,-9.0,-2.0,4.0,3.0,2.0
1702323596.1718786,6.0,7.0,49.0,6.0,-3.0,0.0,1.0,-2.0
1702323596.1718786,8.0,7.0,-5.0,13.0,1.0,-1.0,-5.0,0.0
1702323596.1820407,-10.0,24.0,36.0,7.0,5.0,0.0,-5.0,-9.0
1702323596.1820407,-5.0,-60.0,-50.0,-24.0,-11.0,0.0,0.0,0.0
1702323596.1918843,-4.0,-11.0,19.0,-1.0,2.0,-6.0,0.0,2.0
1702323596.1918843,14.0,29.0,63.0,17.0,9.0,4.0,3.0,0.0
1702323596.2021346,-28.0,-50.0,-94.0,-13.0,-5.0,-2.0,-2.0,-9.0
1702323596.2021346,29.0,44.0,36.0,-1.0,-2.0,-2.0,-1.0,2.0
1702323596.2021346,-9.0,-18.0,-49.0,0.0,-8.0,-6.0,-6.0,-2.0
1702323596.2021346,-1.0,-10.0,-10.0,-4.0,1.0,1.0,-1.0,1.0
1702323596.2518787,-5.0,3.0,-7.0,-2.0,1.0,0.0,-3.0,-8.0
1702323596.2518787,2.0,3.0,10.0,-7.0,-4.0,-2.0,0.0,2.0
1702323596.2518787,8.0,-3.0,7.0,-5.0,-3.0,-3.0,-2.0,1.0
1702323596.2518787,-18.0,14.0,-9.0,9.0,9.0,4.0,-1.0,-1.0
1702323596.2518787,2.0,-35.0,-20.0,4.0,-1.0,0.0,-4.0,-7.0
1702323596.2518787,11.0,30.0,4.0,0.0,-2.0,-3.0,6.0,3.0
1702323596.2518787,-6.0,2.0,39.0,5.0,4.0,4.0,0.0,-11.0
1702323596.2518787,6.0,-16.0,-75.0,-8.0,-7.0,1.0,4.0,1.0
1702323596.262057,9.0,23.0,52.0,12.0,-1.0,-4.0,-5.0,16.0
1702323596.262057,-5.0,-12.0,-48.0,-13.0,-2.0,-2.0,-3.0,-17.0
1702323596.262057,10.0,6.0,-5.0,0.0,4.0,-4.0,0.0,0.0
1702323596.262057,-13.0,-11.0,2.0,-2.0,-4.0,-4.0,-5.0,-3.0
1702323596.301884,1.0,4.0,10.0,4.0,5.0,3.0,6.0,5.0
1702323596.301884,-4.0,11.0,6.0,-4.0,-8.0,1.0,-2.0,4.0
1702323596.301884,0.0,5.0,-29.0,-4.0,-3.0,-5.0,-3.0,-1.0
1702323596.301884,3.0,1.0,13.0,-6.0,-4.0,-2.0,-7.0,-10.0
1702323596.301884,20.0,29.0,16.0,4.0,-3.0,0.0,-1.0,4.0
1702323596.301884,-18.0,-22.0,13.0,1.0,1.0,-1.0,-8.0,-6.0
1702323596.301884,5.0,6.0,-15.0,-7.0,5.0,4.0,1.0,-2.0
1702323596.301884,5.0,5.0,23.0,3.0,0.0,0.0,1.0,6.0
1702323596.3222094,-2.0,-9.0,-27.0,-8.0,-5.0,-2.0,0.0,-2.0
1702323596.3222094,19.0,23.0,-4.0,4.0,1.0,2.0,-2.0,4.0
1702323596.3222094,-11.0,-8.0,11.0,-12.0,-7.0,0.0,1.0,1.0
1702323596.3222094,-4.0,-5.0,-14.0,-5.0,-4.0,-5.0,-6.0,-4.0
1702323596.3430877,1.0,-12.0,5.0,-3.0,0.0,-2.0,-4.0,-2.0
1702323596.3430877,25.0,31.0,21.0,15.0,7.0,5.0,4.0,11.0
1702323596.3430877,-35.0,-23.0,-28.0,-8.0,-6.0,-7.0,-12.0,-15.0
1702323596.3430877,21.0,23.0,29.0,0.0,-3.0,-1.0,12.0,5.0
1702323596.353399,2.0,10.0,48.0,7.0,-8.0,-10.0,-16.0,-2.0
1702323596.353399,-10.0,13.0,-36.0,3.0,2.0,-1.0,-8.0,-2.0
1702323596.3701007,-3.0,-19.0,-30.0,0.0,3.0,3.0,5.0,5.0
1702323596.3701007,-14.0,-20.0,23.0,-7.0,-1.0,1.0,-1.0,-2.0
1702323596.3808632,-34.0,-39.0,-30.0,-14.0,-2.0,3.0,3.0,-17.0
1702323596.3808632,9.0,21.0,22.0,11.0,0.0,-4.0,-2.0,3.0
1702323596.3808632,-4.0,-32.0,-32.0,-9.0,-2.0,-3.0,-2.0,-1.0
1702323596.3808632,-52.0,-55.0,-31.0,-25.0,4.0,6.0,-1.0,-7.0
1702323596.4008634,-1.0,-9.0,-12.0,-5.0,1.0,4.0,6.0,5.0
1702323596.4008634,2.0,21.0,-8.0,0.0,-2.0,-2.0,-2.0,3.0
1702323596.4008634,-15.0,-11.0,26.0,-1.0,0.0,-1.0,-1.0,-3.0
1702323596.4008634,19.0,24.0,6.0,11.0,-9.0,-11.0,-8.0,4.0
1702323596.4208663,-14.0,-8.0,-2.0,-3.0,-3.0,-4.0,-2.0,-7.0
1702323596.4208663,2.0,-23.0,-34.0,-4.0,8.0,10.0,6.0,4.0
1702323596.4208663,33.0,30.0,25.0,2.0,-2.0,-4.0,2.0,7.0
1702323596.4208663,-1.0,12.0,0.0,1.0,2.0,1.0,-2.0,-2.0
1702323596.4412184,-17.0,-15.0,-18.0,-3.0,-2.0,-5.0,-2.0,-8.0
1702323596.4412184,7.0,15.0,-10.0,-1.0,-4.0,-4.0,-1.0,1.0
1702323596.4412184,-4.0,-4.0,71.0,5.0,3.0,2.0,-1.0,3.0
1702323596.4412184,5.0,-9.0,-67.0,-1.0,3.0,1.0,0.0,2.0
1702323596.46089,-1.0,-35.0,-13.0,-8.0,-3.0,0.0,0.0,-2.0
1702323596.46089,-2.0,-8.0,29.0,-2.0,0.0,0.0,-1.0,0.0
1702323596.46089,12.0,8.0,-34.0,-2.0,-5.0,-5.0,-2.0,-1.0
1702323596.46089,9.0,14.0,22.0,8.0,1.0,2.0,-2.0,0.0
1702323596.4808645,4.0,21.0,24.0,3.0,-4.0,-6.0,-3.0,-2.0
1702323596.4808645,-12.0,11.0,-14.0,-4.0,2.0,2.0,-1.0,-2.0
1702323596.4911566,-5.0,22.0,-4.0,3.0,3.0,1.0,-1.0,-1.0
1702323596.4911566,5.0,-8.0,-12.0,-3.0,-4.0,-3.0,-1.0,-2.0
1702323596.5014863,6.0,14.0,4.0,4.0,-1.0,0.0,2.0,3.0
1702323596.5014863,1.0,25.0,15.0,0.0,-6.0,-7.0,-7.0,-5.0
1702323596.5014863,-7.0,8.0,40.0,4.0,2.0,2.0,-1.0,-2.0
1702323596.5014863,1.0,3.0,-23.0,-6.0,-2.0,-1.0,-3.0,-1.0
1702323596.5212178,7.0,13.0,19.0,5.0,6.0,5.0,4.0,1.0
1702323596.5212178,-10.0,-8.0,-54.0,-14.0,-4.0,-2.0,-2.0,-3.0
1702323596.5212178,3.0,3.0,-12.0,-5.0,-4.0,-5.0,-3.0,-3.0
1702323596.5212178,3.0,12.0,40.0,13.0,3.0,0.0,-2.0,1.0
1702323596.541562,-5.0,-12.0,-8.0,-4.0,-8.0,-2.0,-3.0,-1.0
1702323596.541562,-2.0,-10.0,8.0,2.0,2.0,-2.0,-2.0,-3.0
1702323596.541562,4.0,4.0,-25.0,2.0,3.0,0.0,-1.0,2.0
1702323596.541562,-2.0,-17.0,25.0,-3.0,4.0,-2.0,-2.0,8.0
1702323596.5611854,-2.0,-9.0,-31.0,-1.0,-1.0,-1.0,6.0,-11.0
1702323596.5611854,-3.0,2.0,38.0,4.0,-3.0,2.0,13.0,-7.0
1702323596.5611854,-2.0,-13.0,-15.0,-6.0,-5.0,1.0,0.0,-2.0
1702323596.5611854,0.0,7.0,-4.0,3.0,2.0,13.0,3.0,-1.0
1702323596.5815706,9.0,6.0,5.0,0.0,3.0,7.0,3.0,16.0
1702323596.5815706,-4.0,-14.0,1.0,-5.0,-5.0,-2.0,-6.0,-5.0
1702323596.5815706,1.0,4.0,10.0,1.0,-1.0,-12.0,-3.0,1.0
1702323596.5815706,-5.0,-15.0,-20.0,-9.0,-13.0,-10.0,-6.0,-9.0
1702323596.6015275,-2.0,-12.0,-7.0,-5.0,2.0,-4.0,-5.0,-4.0
1702323596.6015275,-5.0,-6.0,7.0,1.0,5.0,-3.0,-4.0,1.0
1702323596.6015275,2.0,-4.0,-22.0,-1.0,8.0,4.0,3.0,0.0
1702323596.6015275,0.0,7.0,11.0,6.0,9.0,1.0,-2.0,-2.0
1702323596.6211843,1.0,28.0,8.0,3.0,1.0,-5.0,-4.0,-15.0
1702323596.6211843,-3.0,6.0,8.0,0.0,-6.0,-2.0,-6.0,-1.0
1702323596.6211843,-2.0,6.0,-54.0,-13.0,-11.0,-4.0,7.0,13.0
1702323596.6211843,4.0,18.0,34.0,-3.0,-7.0,-6.0,-2.0,-15.0
1702323596.6414332,-11.0,15.0,1.0,-2.0,-3.0,-1.0,-1.0,-3.0
1702323596.6414332,-6.0,-27.0,-31.0,-8.0,-3.0,-5.0,-4.0,-4.0
1702323596.6414332,0.0,0.0,20.0,6.0,-3.0,4.0,-9.0,-9.0
1702323596.6414332,-10.0,-34.0,-19.0,-6.0,0.0,0.0,3.0,13.0
1702323596.6613686,-2.0,-14.0,5.0,4.0,5.0,4.0,1.0,1.0
1702323596.6613686,-2.0,-30.0,-9.0,-1.0,3.0,4.0,3.0,5.0
1702323596.671191,-1.0,13.0,-15.0,-2.0,-2.0,-3.0,-4.0,0.0
1702323596.671191,2.0,29.0,-2.0,-1.0,-2.0,1.0,0.0,-3.0
1702323596.7011836,3.0,26.0,24.0,4.0,-8.0,-4.0,-4.0,2.0
1702323596.7011836,-9.0,-20.0,-11.0,-2.0,8.0,0.0,1.0,-7.0
1702323596.7011836,2.0,-6.0,19.0,2.0,3.0,4.0,1.0,-3.0
1702323596.7011836,1.0,-6.0,-8.0,-5.0,2.0,-5.0,-2.0,-1.0
1702323596.7011836,1.0,-9.0,-18.0,2.0,-4.0,1.0,-1.0,2.0
1702323596.7011836,-1.0,-4.0,7.0,-1.0,-6.0,0.0,-2.0,1.0
1702323596.7011836,-2.0,-10.0,6.0,-3.0,0.0,-2.0,-3.0,-3.0
1702323596.7011836,1.0,-3.0,-3.0,2.0,-3.0,-1.0,-1.0,-1.0
1702323596.721524,-2.0,-15.0,6.0,-4.0,3.0,-2.0,0.0,2.0
1702323596.721524,0.0,-4.0,4.0,-5.0,-4.0,-5.0,-3.0,-1.0
1702323596.721524,0.0,-8.0,26.0,0.0,1.0,2.0,-1.0,-4.0
1702323596.721524,0.0,-13.0,-26.0,-13.0,-3.0,2.0,1.0,-2.0
1702323596.7411852,3.0,-2.0,13.0,24.0,13.0,3.0,2.0,1.0
1702323596.7411852,1.0,-1.0,-12.0,-3.0,-1.0,-1.0,-1.0,-1.0
1702323596.7411852,-5.0,5.0,8.0,3.0,-1.0,-2.0,1.0,-1.0
1702323596.7411852,-9.0,-23.0,18.0,-1.0,-4.0,-4.0,-3.0,-3.0
1702323596.7711897,-3.0,-9.0,-15.0,-13.0,-6.0,-2.0,-1.0,-1.0
1702323596.7711897,6.0,15.0,17.0,13.0,3.0,-1.0,-1.0,0.0
1702323596.7711897,7.0,-2.0,4.0,4.0,-1.0,-1.0,-2.0,-1.0
1702323596.7711897,-7.0,-6.0,-32.0,-4.0,-1.0,-3.0,-1.0,-2.0
1702323596.7911878,0.0,-12.0,-13.0,-1.0,5.0,1.0,0.0,0.0
1702323596.7911878,2.0,14.0,23.0,-2.0,-2.0,0.0,-3.0,0.0
1702323596.8011868,0.0,0.0,-22.0,-8.0,-2.0,1.0,0.0,-1.0
1702323596.8011868,1.0,7.0,-23.0,0.0,-3.0,-3.0,1.0,-1.0
1702323596.8011868,-3.0,-2.0,21.0,-5.0,-5.0,-3.0,-2.0,1.0
1702323596.8011868,4.0,17.0,-45.0,-14.0,-6.0,-2.0,-2.0,1.0
1702323596.8011868,-9.0,-21.0,3.0,-3.0,2.0,0.0,-1.0,-2.0
1702323596.8011868,-7.0,-2.0,-1.0,2.0,0.0,0.0,0.0,-1.0
1702323596.8215466,4.0,6.0,34.0,9.0,5.0,1.0,-1.0,0.0
1702323596.8215466,-11.0,-11.0,-67.0,-16.0,-4.0,-1.0,-2.0,-4.0
1702323596.8215466,1.0,16.0,25.0,5.0,-2.0,-1.0,-2.0,-1.0
1702323596.8215466,6.0,-8.0,5.0,2.0,0.0,-1.0,-1.0,-1.0
1702323596.8411865,2.0,17.0,-5.0,-10.0,-5.0,-2.0,-2.0,-1.0
1702323596.8411865,-11.0,-19.0,26.0,9.0,3.0,0.0,2.0,0.0
1702323596.8511846,1.0,10.0,-7.0,-19.0,-3.0,-2.0,2.0,-1.0
1702323596.8511846,-2.0,26.0,45.0,12.0,1.0,-1.0,-2.0,-2.0
1702323596.861498,-4.0,-13.0,-54.0,-7.0,-1.0,-1.0,0.0,-1.0
1702323596.861498,-2.0,-18.0,-3.0,1.0,-3.0,-2.0,-3.0,-1.0
1702323596.872277,3.0,-10.0,-17.0,-6.0,-5.0,-2.0,-2.0,1.0
1702323596.872277,7.0,10.0,19.0,-5.0,-3.0,-2.0,-1.0,1.0
1702323596.8876905,-3.0,17.0,-4.0,-2.0,-2.0,-1.0,-2.0,-2.0
1702323596.8876905,10.0,7.0,23.0,4.0,2.0,-1.0,0.0,1.0
1702323596.8896375,-15.0,-29.0,-20.0,0.0,0.0,-1.0,-1.0,-1.0
1702323596.8896375,4.0,7.0,7.0,-2.0,1.0,-1.0,-1.0,0.0
1702323596.8938506,0.0,-1.0,22.0,1.0,-3.0,-3.0,-2.0,-2.0
1702323596.8938506,1.0,7.0,-20.0,-3.0,0.0,2.0,0.0,-1.0
1702323596.904115,6.0,5.0,12.0,-1.0,-3.0,-3.0,-1.0,0.0
1702323596.904115,0.0,-1.0,-3.0,-8.0,-2.0,-1.0,0.0,-1.0
1702323596.9218886,-8.0,-21.0,-50.0,6.0,1.0,-1.0,0.0,-2.0
1702323596.9218886,0.0,15.0,26.0,13.0,2.0,-1.0,-1.0,-1.0
1702323596.931917,7.0,13.0,14.0,5.0,2.0,0.0,0.0,2.0
1702323596.931917,-2.0,-21.0,-26.0,0.0,1.0,1.0,0.0,-2.0
1702323596.942267,0.0,-1.0,26.0,-18.0,-2.0,-2.0,-2.0,-3.0
1702323596.942267,4.0,8.0,54.0,19.0,0.0,-2.0,1.0,-1.0
1702323596.942267,-7.0,-9.0,-35.0,1.0,-3.0,-3.0,-2.0,-2.0
1702323596.942267,-2.0,-4.0,-56.0,-11.0,1.0,-1.0,-1.0,1.0
1702323596.9619088,1.0,-18.0,15.0,3.0,0.0,-1.0,-2.0,1.0
1702323596.9619088,0.0,-11.0,-23.0,-12.0,-3.0,0.0,-1.0,-1.0
1702323596.9619088,-5.0,5.0,24.0,1.0,-1.0,-3.0,-2.0,-4.0
1702323596.9619088,15.0,34.0,2.0,0.0,-3.0,0.0,0.0,0.0
1702323596.982251,-18.0,-17.0,21.0,-3.0,-4.0,-4.0,-3.0,-2.0
1702323596.982251,-4.0,-11.0,-35.0,-4.0,-1.0,-1.0,1.0,0.0
1702323596.9919157,4.0,12.0,28.0,6.0,4.0,1.0,-2.0,-1.0
1702323596.9919157,-8.0,-6.0,-26.0,-6.0,-3.0,-2.0,-2.0,-3.0
1702323597.0119076,8.0,12.0,18.0,0.0,-2.0,-2.0,0.0,-2.0
1702323597.0119076,-2.0,0.0,14.0,-5.0,-2.0,-1.0,-1.0,-1.0
1702323597.0119076,1.0,0.0,6.0,4.0,1.0,1.0,0.0,0.0
1702323597.0119076,-4.0,-5.0,-32.0,-4.0,0.0,0.0,0.0,-2.0
1702323597.0119076,3.0,1.0,-2.0,-5.0,-6.0,-3.0,-3.0,1.0
1702323597.0119076,-2.0,11.0,5.0,2.0,0.0,0.0,-1.0,-1.0
1702323597.0218964,-5.0,-17.0,-10.0,-4.0,-1.0,0.0,-1.0,-3.0
1702323597.0218964,3.0,6.0,31.0,3.0,-1.0,-2.0,-2.0,2.0
1702323597.0422661,0.0,9.0,-2.0,12.0,3.0,0.0,-1.0,1.0
1702323597.0422661,0.0,-16.0,-31.0,-13.0,-6.0,-5.0,-3.0,-3.0
1702323597.051898,-4.0,7.0,-9.0,-1.0,0.0,0.0,0.0,-1.0
1702323597.051898,-2.0,-12.0,-4.0,-12.0,-3.0,-2.0,-1.0,0.0
1702323597.071897,-7.0,4.0,-2.0,17.0,7.0,2.0,1.0,-1.0
1702323597.071897,-1.0,-11.0,4.0,1.0,-3.0,-2.0,-3.0,-2.0
1702323597.071897,7.0,14.0,-5.0,-4.0,0.0,0.0,0.0,0.0
1702323597.071897,-2.0,-9.0,7.0,-2.0,1.0,-1.0,-1.0,0.0
1702323597.0819054,-4.0,4.0,-8.0,-12.0,-5.0,-2.0,-2.0,-3.0
1702323597.0819054,-6.0,8.0,24.0,8.0,2.0,1.0,-2.0,-1.0
1702323597.0819054,-2.0,-12.0,1.0,-4.0,-4.0,-4.0,-3.0,-1.0
1702323597.0919137,5.0,10.0,9.0,7.0,3.0,1.0,1.0,3.0
1702323597.102062,3.0,1.0,6.0,-8.0,-3.0,-1.0,-2.0,0.0
1702323597.102062,-6.0,-5.0,-11.0,-5.0,-4.0,-1.0,-3.0,-4.0
1702323597.1119053,1.0,-5.0,16.0,-1.0,-2.0,-1.0,1.0,0.0
1702323597.1119053,-3.0,-9.0,-1.0,5.0,-1.0,-1.0,0.0,-2.0
1702323597.131897,-2.0,-6.0,-2.0,1.0,1.0,-1.0,1.0,-1.0
1702323597.131897,-3.0,-5.0,1.0,-6.0,-2.0,-1.0,1.0,1.0
1702323597.131897,1.0,8.0,-3.0,3.0,2.0,0.0,1.0,-2.0
1702323597.131897,-6.0,-10.0,-15.0,4.0,-1.0,-1.0,-1.0,-3.0
1702323597.1418984,-4.0,-1.0,3.0,-5.0,-3.0,-1.0,0.0,-2.0
1702323597.1418984,1.0,5.0,11.0,-3.0,-1.0,-1.0,-1.0,0.0
1702323597.1418984,-1.0,-3.0,-4.0,4.0,-1.0,0.0,-1.0,-1.0
1702323597.1418984,-14.0,-15.0,-8.0,-4.0,-3.0,-2.0,-3.0,-4.0
1702323597.1622114,10.0,19.0,9.0,-8.0,-2.0,1.0,0.0,0.0
1702323597.1622114,-8.0,-32.0,-17.0,15.0,6.0,1.0,1.0,-2.0
1702323597.1719456,-2.0,-9.0,-3.0,-3.0,1.0,0.0,0.0,1.0
1702323597.1719456,3.0,19.0,42.0,-2.0,-1.0,-3.0,-2.0,-1.0
1702323597.1820006,-1.0,-10.0,-26.0,1.0,-3.0,-4.0,-1.0,1.0
1702323597.1820006,-1.0,10.0,-14.0,-9.0,-1.0,-1.0,-1.0,-1.0
1702323597.1820006,-9.0,-19.0,-8.0,0.0,-1.0,-3.0,-2.0,-4.0
1702323597.1820006,4.0,10.0,24.0,5.0,1.0,0.0,0.0,0.0
1702323597.2024643,-1.0,3.0,36.0,3.0,1.0,1.0,0.0,1.0
1702323597.2024643,6.0,2.0,-49.0,-11.0,-2.0,0.0,0.0,-1.0
1702323597.2121973,-4.0,-4.0,-6.0,0.0,-5.0,-2.0,-3.0,-2.0
1702323597.2121973,-7.0,4.0,-8.0,-4.0,1.0,-2.0,-1.0,-1.0
1702323597.2223825,-6.0,-17.0,-4.0,0.0,-1.0,-1.0,0.0,-4.0
1702323597.2223825,1.0,3.0,17.0,1.0,0.0,-2.0,-1.0,-1.0
1702323597.2321947,-8.0,-7.0,-18.0,-4.0,0.0,2.0,0.0,-1.0
1702323597.2321947,-1.0,5.0,5.0,-4.0,-7.0,-4.0,-2.0,-1.0
1702323597.2421901,3.0,3.0,-14.0,-2.0,-1.0,-2.0,-1.0,-1.0
1702323597.2421901,0.0,3.0,19.0,-3.0,-3.0,-1.0,-2.0,2.0
1702323597.2421901,1.0,16.0,-6.0,2.0,5.0,-1.0,0.0,0.0
1702323597.2421901,-1.0,-14.0,-7.0,9.0,7.0,4.0,1.0,0.0
1702323597.2623923,3.0,5.0,-17.0,-2.0,-1.0,1.0,-1.0,1.0
1702323597.2623923,-2.0,-8.0,20.0,-3.0,-6.0,-3.0,-3.0,-3.0
1702323597.272194,6.0,15.0,16.0,2.0,-3.0,-1.0,-1.0,0.0
1702323597.272194,-5.0,-14.0,14.0,-1.0,0.0,-3.0,-2.0,-1.0
1702323597.2824388,6.0,13.0,-18.0,-5.0,-3.0,-2.0,0.0,1.0
1702323597.2824388,-8.0,-28.0,-12.0,-3.0,-2.0,-2.0,-1.0,-3.0
1702323597.30219,1.0,2.0,19.0,0.0,-4.0,-3.0,-1.0,1.0
1702323597.30219,3.0,0.0,16.0,1.0,-4.0,-1.0,-2.0,-1.0
1702323597.30219,-1.0,-8.0,-25.0,1.0,2.0,0.0,-1.0,-2.0
1702323597.30219,-1.0,0.0,-2.0,2.0,3.0,0.0,0.0,0.0
1702323597.30219,0.0,-6.0,-4.0,1.0,3.0,0.0,-1.0,-2.0
1702323597.30219,2.0,6.0,1.0,-2.0,-2.0,-1.0,-1.0,-1.0
1702323597.3224351,-4.0,3.0,-3.0,-1.0,-1.0,0.0,-2.0,-1.0
1702323597.3224351,-1.0,6.0,16.0,-4.0,0.0,-2.0,1.0,0.0
1702323597.3321943,-3.0,-15.0,-29.0,-5.0,-3.0,-1.0,-1.0,1.0
1702323597.3321943,1.0,9.0,2.0,0.0,-1.0,0.0,-2.0,-10.0
1702323597.3422644,4.0,-1.0,2.0,-1.0,-3.0,0.0,4.0,4.0
1702323597.3422644,-7.0,0.0,14.0,-1.0,-1.0,0.0,-2.0,-2.0
1702323597.3721898,0.0,-2.0,18.0,3.0,2.0,1.0,-1.0,-1.0
1702323597.3721898,-2.0,-5.0,-31.0,-4.0,-1.0,-1.0,-1.0,0.0
1702323597.3721898,-6.0,-11.0,-8.0,-2.0,-1.0,-2.0,-5.0,-2.0
1702323597.3721898,2.0,7.0,4.0,2.0,1.0,-2.0,-1.0,-1.0
1702323597.3721898,3.0,9.0,-3.0,-2.0,1.0,-1.0,-1.0,0.0
1702323597.3721898,-2.0,0.0,20.0,2.0,1.0,-2.0,-2.0,1.0
1702323597.3823786,0.0,1.0,6.0,0.0,0.0,0.0,0.0,-2.0
1702323597.3823786,-3.0,1.0,8.0,-2.0,-3.0,-1.0,-3.0,0.0
1702323597.3921916,-2.0,-4.0,-30.0,-5.0,-3.0,0.0,-3.0,-1.0
1702323597.3921916,1.0,2.0,-5.0,-2.0,0.0,0.0,0.0,1.0
1702323597.4021924,-2.0,0.0,12.0,0.0,-1.0,-3.0,-3.0,-2.0
1702323597.4021924,1.0,4.0,1.0,0.0,-2.0,-1.0,-1.0,1.0
1702323597.4131877,-3.0,-4.0,-11.0,0.0,-1.0,-1.0,-2.0,-4.0
1702323597.4131877,1.0,-8.0,-16.0,-1.0,0.0,-2.0,-1.0,0.0
1702323597.4278655,-2.0,1.0,0.0,-2.0,-1.0,-3.0,-2.0,-2.0
1702323597.4278655,1.0,9.0,19.0,2.0,-2.0,2.0,1.0,-3.0
1702323597.429917,-2.0,4.0,8.0,-1.0,-2.0,1.0,-1.0,-2.0
1702323597.429917,-1.0,-3.0,-8.0,-2.0,0.0,0.0,1.0,0.0
1702323597.442687,0.0,1.0,5.0,1.0,1.0,0.0,-2.0,-3.0
1702323597.442687,-1.0,-8.0,-6.0,0.0,2.0,-1.0,-2.0,-1.0
1702323597.442687,-5.0,-2.0,-3.0,-6.0,-6.0,-4.0,-3.0,-3.0
1702323597.442687,-2.0,0.0,-3.0,1.0,1.0,-2.0,1.0,0.0
1702323597.462685,-1.0,3.0,0.0,-1.0,-1.0,1.0,-1.0,2.0
1702323597.462685,1.0,7.0,14.0,2.0,0.0,-1.0,-1.0,1.0
1702323597.4727342,0.0,-11.0,4.0,-3.0,0.0,-1.0,-3.0,0.0
1702323597.4727342,-2.0,6.0,33.0,1.0,-3.0,1.0,-3.0,-2.0
1702323597.482982,0.0,-6.0,-15.0,-2.0,-2.0,-3.0,-1.0,-2.0
1702323597.482982,3.0,4.0,3.0,1.0,-1.0,-3.0,-1.0,-1.0
1702323597.5027888,0.0,-4.0,10.0,0.0,-2.0,-2.0,1.0,0.0
1702323597.5027888,0.0,-2.0,-11.0,-1.0,1.0,0.0,-1.0,0.0
1702323597.5027888,2.0,4.0,7.0,2.0,-2.0,-1.0,-1.0,0.0
1702323597.5027888,0.0,-3.0,-17.0,-3.0,-3.0,0.0,-1.0,0.0
1702323597.512789,1.0,13.0,14.0,2.0,1.0,-1.0,0.0,0.0
1702323597.512789,-4.0,-4.0,17.0,1.0,-4.0,0.0,-3.0,-5.0
1702323597.5427816,-2.0,-7.0,-54.0,-11.0,-3.0,-1.0,-2.0,-1.0
1702323597.5427816,-1.0,-3.0,0.0,0.0,0.0,0.0,0.0,-1.0
1702323597.5427816,2.0,6.0,8.0,0.0,0.0,-2.0,-1.0,-1.0
1702323597.5427816,-2.0,-8.0,-6.0,0.0,-2.0,-1.0,0.0,1.0
1702323597.5427816,-3.0,-3.0,23.0,2.0,1.0,0.0,-1.0,-1.0
1702323597.5427816,-1.0,-6.0,8.0,-7.0,-2.0,0.0,-2.0,-3.0
1702323597.5427816,-2.0,6.0,-13.0,1.0,0.0,-1.0,0.0,1.0
1702323597.5427816,1.0,1.0,-16.0,-2.0,-1.0,1.0,1.0,2.0
1702323597.582783,-4.0,-12.0,-6.0,-3.0,-3.0,-1.0,-2.0,-3.0
1702323597.582783,1.0,1.0,-9.0,1.0,1.0,-3.0,-1.0,0.0
1702323597.582783,0.0,-1.0,9.0,0.0,0.0,1.0,1.0,-1.0
1702323597.582783,-2.0,2.0,-6.0,-5.0,-1.0,-3.0,-2.0,-2.0
1702323597.582783,-5.0,-16.0,-2.0,-1.0,-2.0,-1.0,0.0,-3.0
1702323597.582783,-1.0,4.0,-2.0,2.0,1.0,1.0,-1.0,0.0
1702323597.5927832,0.0,-1.0,-10.0,-4.0,-3.0,-2.0,-1.0,0.0
1702323597.5927832,-4.0,-3.0,-5.0,1.0,0.0,0.0,-2.0,-1.0
1702323597.6028216,0.0,-11.0,-15.0,-5.0,-1.0,-2.0,0.0,0.0
1702323597.6028216,-4.0,-6.0,6.0,2.0,-2.0,-1.0,0.0,-4.0
1702323597.6028216,1.0,9.0,4.0,2.0,1.0,0.0,0.0,2.0
1702323597.6028216,-2.0,-11.0,-23.0,-5.0,-3.0,-4.0,-4.0,-10.0
1702323597.6227834,-1.0,4.0,8.0,-2.0,-1.0,-1.0,-1.0,-1.0
1702323597.6227834,-1.0,-1.0,0.0,0.0,-1.0,-2.0,1.0,0.0
1702323597.6227834,-3.0,-5.0,-49.0,-11.0,-4.0,-2.0,-1.0,-3.0
1702323597.6227834,0.0,9.0,13.0,2.0,-1.0,1.0,1.0,3.0
1702323597.6429906,0.0,-1.0,-3.0,0.0,-1.0,-1.0,-2.0,-2.0
1702323597.6429906,-3.0,-9.0,-15.0,-3.0,-2.0,-2.0,-1.0,-2.0
1702323597.652787,-1.0,-4.0,18.0,1.0,1.0,0.0,-1.0,0.0
1702323597.652787,3.0,7.0,0.0,0.0,0.0,0.0,-1.0,1.0
1702323597.6629965,-3.0,8.0,3.0,1.0,0.0,-1.0,0.0,-1.0
1702323597.6629965,2.0,-1.0,9.0,2.0,0.0,1.0,0.0,3.0
1702323597.6629965,-9.0,-14.0,7.0,-2.0,-4.0,-4.0,-3.0,-5.0
1702323597.6629965,-1.0,3.0,10.0,-1.0,-1.0,-1.0,0.0,-1.0
1702323597.7027814,-2.0,1.0,-3.0,0.0,-3.0,1.0,-1.0,1.0
1702323597.7027814,0.0,3.0,-34.0,-6.0,-2.0,-2.0,-2.0,-2.0
1702323597.7027814,0.0,-6.0,-2.0,0.0,0.0,1.0,1.0,-1.0
1702323597.7027814,1.0,-2.0,-4.0,-2.0,-1.0,-3.0,-3.0,1.0
1702323597.7027814,-2.0,13.0,24.0,2.0,-2.0,-1.0,-2.0,-1.0
1702323597.7027814,-2.0,-16.0,-27.0,-3.0,-4.0,-1.0,-3.0,-1.0
1702323597.7127838,-1.0,3.0,2.0,-4.0,-3.0,-1.0,-2.0,-1.0
1702323597.7127838,1.0,-24.0,-26.0,-3.0,-2.0,-1.0,0.0,0.0
1702323597.723142,2.0,9.0,8.0,2.0,3.0,1.0,0.0,2.0
1702323597.723142,-3.0,-3.0,0.0,-2.0,-3.0,-2.0,-2.0,0.0
1702323597.723142,-2.0,-6.0,4.0,2.0,-1.0,-1.0,-1.0,-4.0
1702323597.723142,1.0,15.0,2.0,-1.0,-2.0,-2.0,0.0,2.0
1702323597.742813,5.0,-4.0,-1.0,-1.0,-1.0,-2.0,-1.0,-1.0
1702323597.742813,-5.0,4.0,5.0,-2.0,-2.0,0.0,-2.0,-3.0
1702323597.742813,0.0,-16.0,-26.0,-5.0,-3.0,-3.0,-2.0,0.0
1702323597.742813,0.0,0.0,-6.0,-1.0,0.0,1.0,0.0,-2.0
1702323597.773272,-2.0,-8.0,-1.0,3.0,-1.0,-1.0,-2.0,0.0
1702323597.773272,1.0,21.0,14.0,1.0,0.0,-1.0,0.0,-1.0
1702323597.773272,2.0,15.0,-1.0,2.0,0.0,0.0,0.0,1.0
1702323597.773272,-8.0,-10.0,-1.0,-4.0,-2.0,-2.0,-2.0,-3.0
1702323597.783648,0.0,13.0,5.0,-3.0,0.0,-3.0,-1.0,-3.0
1702323597.783648,-1.0,5.0,5.0,3.0,-1.0,-1.0,-1.0,1.0
1702323597.783648,-1.0,3.0,27.0,3.0,1.0,-1.0,0.0,0.0
1702323597.783648,-5.0,-6.0,-20.0,-6.0,-2.0,0.0,-1.0,-2.0
1702323597.8132706,1.0,8.0,13.0,2.0,0.0,-1.0,1.0,-1.0
1702323597.8132706,-1.0,-6.0,-5.0,-4.0,-2.0,-1.0,0.0,-1.0
1702323597.8132706,-3.0,-3.0,-2.0,1.0,1.0,-1.0,-1.0,-1.0
1702323597.8132706,2.0,7.0,16.0,3.0,0.0,0.0,-1.0,0.0
1702323597.8235555,-1.0,-10.0,-7.0,-2.0,-2.0,1.0,-2.0,-1.0
1702323597.8235555,-4.0,-12.0,-33.0,-5.0,-1.0,-1.0,-2.0,0.0
1702323597.8332772,0.0,-12.0,7.0,5.0,1.0,1.0,-2.0,-2.0
1702323597.8332772,4.0,-10.0,13.0,2.0,0.0,-1.0,0.0,1.0
1702323597.863274,-2.0,1.0,12.0,6.0,0.0,-2.0,-2.0,-1.0
1702323597.863274,0.0,-13.0,-11.0,-4.0,-3.0,0.0,-1.0,-4.0
1702323597.863274,-1.0,0.0,-2.0,-2.0,-2.0,-2.0,1.0,-1.0
1702323597.863274,4.0,-1.0,-6.0,-2.0,0.0,-2.0,0.0,0.0
1702323597.863274,-2.0,3.0,2.0,-4.0,-2.0,-2.0,-3.0,-3.0
1702323597.863274,1.0,-1.0,11.0,2.0,0.0,-2.0,0.0,1.0
1702323597.863274,-4.0,-6.0,12.0,-1.0,0.0,0.0,0.0,-2.0
1702323597.863274,-1.0,0.0,-8.0,-1.0,-3.0,-1.0,-1.0,-1.0
1702323597.8836339,1.0,-2.0,1.0,2.0,-1.0,0.0,0.0,-1.0
1702323597.8836339,-4.0,-25.0,-36.0,-8.0,-2.0,0.0,0.0,-3.0
1702323597.8932838,-1.0,2.0,1.0,-4.0,-3.0,-4.0,-2.0,-1.0
1702323597.8932838,-8.0,-18.0,-11.0,-5.0,-2.0,-2.0,0.0,-2.0
1702323597.9132712,1.0,-6.0,-25.0,-6.0,-2.0,-1.0,-1.0,1.0
1702323597.9132712,4.0,20.0,17.0,0.0,1.0,-2.0,-1.0,1.0
1702323597.9132712,-8.0,-21.0,-9.0,3.0,-2.0,0.0,-1.0,-5.0
1702323597.9132712,2.0,3.0,5.0,1.0,0.0,-1.0,-1.0,0.0
1702323597.9236417,-4.0,-3.0,2.0,1.0,1.0,1.0,0.0,-2.0
1702323597.9236417,0.0,5.0,10.0,-1.0,-1.0,-1.0,-3.0,-1.0
1702323597.9236417,-1.0,8.0,-8.0,-3.0,-2.0,-2.0,-2.0,1.0
1702323597.9236417,1.0,11.0,-7.0,-2.0,0.0,0.0,-2.0,0.0
1702323597.944271,-3.0,0.0,5.0,-5.0,-3.0,-1.0,-2.0,-1.0
1702323597.944271,-1.0,-16.0,-32.0,-3.0,-1.0,1.0,1.0,-2.0
1702323597.9523456,0.0,8.0,9.0,0.0,-1.0,-1.0,1.0,0.0
1702323597.9523456,1.0,0.0,-8.0,4.0,1.0,-2.0,1.0,0.0
1702323597.9688065,1.0,12.0,14.0,-3.0,-2.0,-2.0,1.0,-1.0
1702323597.9688065,-4.0,-7.0,-15.0,3.0,0.0,0.0,-1.0,0.0
1702323597.9688065,-2.0,-6.0,-6.0,-6.0,-2.0,0.0,-2.0,-1.0
1702323597.9688065,0.0,11.0,12.0,3.0,1.0,-1.0,-1.0,3.0
1702323597.9892042,-5.0,-11.0,-12.0,-2.0,-1.0,-2.0,-2.0,-11.0
1702323597.9892042,0.0,5.0,19.0,-1.0,0.0,-2.0,0.0,0.0
1702323597.9892042,3.0,-3.0,-10.0,-1.0,-1.0,0.0,-1.0,0.0
1702323597.9892042,-2.0,12.0,20.0,0.0,-3.0,0.0,-3.0,-2.0
1702323597.9991837,-4.0,-19.0,-26.0,-5.0,-1.0,-2.0,0.0,2.0
1702323597.9991837,1.0,21.0,28.0,2.0,-1.0,-1.0,-2.0,-2.0
1702323598.0088077,-4.0,-23.0,-14.0,-1.0,0.0,-1.0,-2.0,-3.0
1702323598.0088077,-1.0,6.0,16.0,1.0,2.0,1.0,0.0,-1.0
1702323598.0188081,3.0,-5.0,-4.0,0.0,-1.0,-3.0,-1.0,1.0
1702323598.0188081,-4.0,-2.0,-21.0,-3.0,-1.0,-2.0,-1.0,-4.0
1702323598.0291095,4.0,11.0,10.0,-1.0,2.0,-6.0,-1.0,2.0
1702323598.0291095,-5.0,-13.0,-6.0,-3.0,-4.0,2.0,-3.0,-5.0
1702323598.0491838,0.0,6.0,9.0,0.0,1.0,1.0,1.0,2.0
1702323598.0491838,-4.0,-7.0,-5.0,-2.0,-2.0,-3.0,-2.0,-1.0
1702323598.0491838,0.0,17.0,14.0,-1.0,-2.0,-1.0,-1.0,0.0
1702323598.0491838,1.0,4.0,-11.0,0.0,1.0,-3.0,0.0,0.0
1702323598.0590606,-4.0,-17.0,7.0,-1.0,-1.0,-2.0,-1.0,0.0
1702323598.0590606,2.0,12.0,0.0,0.0,-2.0,0.0,-2.0,-3.0
1702323598.0788069,0.0,-5.0,-4.0,-1.0,-1.0,-1.0,0.0,0.0
1702323598.0788069,0.0,-2.0,11.0,-5.0,-3.0,-2.0,-1.0,-4.0
1702323598.0788069,2.0,7.0,-12.0,0.0,-1.0,0.0,-2.0,0.0
1702323598.0788069,-8.0,-13.0,20.0,4.0,2.0,0.0,0.0,0.0
1702323598.0888128,2.0,-4.0,-4.0,-4.0,-2.0,1.0,0.0,-1.0
1702323598.0888128,-2.0,2.0,5.0,3.0,1.0,2.0,2.0,1.0
1702323598.1088145,0.0,14.0,-6.0,-1.0,-2.0,-1.0,-4.0,-2.0
1702323598.1088145,-3.0,-18.0,-5.0,-6.0,-4.0,-3.0,-3.0,-2.0
1702323598.1088145,-2.0,5.0,-15.0,-3.0,-3.0,0.0,-2.0,-2.0
1702323598.1088145,1.0,-1.0,3.0,-2.0,0.0,1.0,-1.0,0.0
1702323598.1388068,1.0,-6.0,1.0,-3.0,-1.0,0.0,-2.0,1.0
1702323598.1388068,-1.0,17.0,0.0,-1.0,-3.0,-1.0,-1.0,-1.0
1702323598.1388068,2.0,5.0,1.0,4.0,1.0,0.0,-1.0,0.0
1702323598.1388068,-4.0,-11.0,-1.0,1.0,0.0,-3.0,-2.0,-2.0
1702323598.1388068,-3.0,-7.0,-15.0,0.0,2.0,-1.0,0.0,-1.0
1702323598.1388068,7.0,12.0,18.0,6.0,6.0,3.0,1.0,3.0
1702323598.1488152,-11.0,-35.0,-4.0,-9.0,-5.0,-3.0,-2.0,-3.0
1702323598.1488152,0.0,3.0,-16.0,-2.0,-2.0,0.0,-1.0,-2.0
1702323598.1692064,0.0,3.0,15.0,2.0,0.0,-1.0,-1.0,0.0
1702323598.1692064,-1.0,-6.0,-5.0,-2.0,-1.0,-1.0,0.0,-1.0
1702323598.1692064,3.0,19.0,3.0,4.0,0.0,0.0,0.0,2.0
1702323598.1692064,-5.0,-18.0,-13.0,-8.0,-4.0,-4.0,-2.0,-3.0
1702323598.188807,-2.0,2.0,4.0,-2.0,-1.0,-1.0,0.0,-1.0
1702323598.188807,2.0,4.0,9.0,0.0,-1.0,0.0,0.0,1.0
1702323598.188807,1.0,5.0,-10.0,-3.0,-1.0,0.0,0.0,-1.0
1702323598.188807,3.0,5.0,1.0,0.0,-1.0,-1.0,-2.0,-1.0
1702323598.1991575,-1.0,1.0,-3.0,0.0,0.0,-1.0,0.0,0.0
1702323598.1991575,-2.0,-2.0,3.0,-1.0,0.0,-1.0,-1.0,-2.0
1702323598.219204,0.0,1.0,18.0,-2.0,-1.0,0.0,-1.0,1.0
1702323598.219204,3.0,9.0,-5.0,3.0,1.0,-1.0,-2.0,2.0
1702323598.229134,-4.0,-7.0,-15.0,-9.0,-4.0,0.0,0.0,-3.0
1702323598.229134,3.0,4.0,1.0,1.0,0.0,-2.0,-2.0,1.0
1702323598.229134,1.0,1.0,16.0,4.0,3.0,1.0,0.0,1.0
1702323598.229134,-10.0,-22.0,-22.0,-1.0,2.0,-1.0,-1.0,-3.0
1702323598.248839,2.0,5.0,5.0,5.0,0.0,1.0,-1.0,1.0
1702323598.248839,-4.0,-17.0,-9.0,-6.0,-5.0,-1.0,-1.0,-1.0
1702323598.248839,2.0,7.0,-3.0,-5.0,-1.0,-2.0,-2.0,0.0
1702323598.248839,1.0,6.0,12.0,0.0,1.0,-2.0,1.0,0.0
1702323598.2688098,-2.0,-7.0,-4.0,-1.0,-1.0,-2.0,-1.0,-3.0
1702323598.2688098,-5.0,5.0,7.0,-2.0,1.0,-1.0,-2.0,-1.0
1702323598.2688098,0.0,-8.0,-11.0,0.0,0.0,0.0,-1.0,-2.0
1702323598.2688098,0.0,-1.0,-4.0,-1.0,-3.0,-2.0,0.0,-2.0
1702323598.289124,0.0,11.0,23.0,2.0,0.0,-2.0,0.0,-1.0
1702323598.289124,2.0,-8.0,-26.0,0.0,1.0,-1.0,0.0,0.0
1702323598.289124,-4.0,-8.0,-19.0,-6.0,-4.0,-3.0,-3.0,-4.0
1702323598.289124,0.0,-7.0,-18.0,-5.0,-2.0,0.0,0.0,1.0
1702323598.3188057,-4.0,-4.0,1.0,-4.0,-3.0,0.0,-1.0,0.0
1702323598.3188057,2.0,7.0,12.0,4.0,-1.0,1.0,1.0,-1.0
1702323598.3188057,0.0,-3.0,4.0,3.0,2.0,0.0,-3.0,0.0
1702323598.3188057,-2.0,-1.0,-13.0,-5.0,-4.0,-3.0,-1.0,-2.0
1702323598.3188057,1.0,4.0,-3.0,3.0,1.0,0.0,-1.0,0.0
1702323598.3188057,-1.0,9.0,10.0,-4.0,1.0,0.0,-1.0,1.0
1702323598.3288093,-5.0,-12.0,-28.0,2.0,-1.0,-3.0,0.0,-3.0
1702323598.3288093,-1.0,-10.0,7.0,-4.0,-3.0,-2.0,-1.0,1.0
1702323598.3491957,-1.0,4.0,-8.0,-4.0,-1.0,-2.0,-1.0,-2.0
1702323598.3491957,-1.0,-3.0,7.0,0.0,-1.0,-1.0,-3.0,-2.0
1702323598.3491957,0.0,3.0,2.0,-1.0,0.0,-1.0,0.0,0.0
1702323598.3491957,0.0,0.0,-2.0,-1.0,0.0,-1.0,-3.0,0.0
1702323598.3688397,-1.0,-6.0,-6.0,-1.0,-3.0,-1.0,-1.0,-1.0
1702323598.3688397,-2.0,-4.0,0.0,-4.0,-4.0,-2.0,0.0,-3.0
1702323598.3688397,0.0,5.0,4.0,-1.0,-2.0,-3.0,-3.0,-1.0
1702323598.3688397,0.0,3.0,13.0,5.0,2.0,2.0,1.0,0.0
1702323598.3791504,-1.0,-10.0,3.0,-2.0,2.0,-1.0,-1.0,0.0
1702323598.3791504,1.0,2.0,-9.0,2.0,-1.0,0.0,1.0,0.0
1702323598.3890646,-2.0,0.0,12.0,2.0,0.0,0.0,0.0,-1.0
1702323598.3890646,-3.0,-7.0,-16.0,-2.0,0.0,0.0,-2.0,-1.0
1702323598.4091032,-3.0,-4.0,2.0,-3.0,-3.0,-1.0,-3.0,-3.0
1702323598.4091032,-2.0,3.0,-5.0,-3.0,-4.0,-3.0,-2.0,-1.0
1702323598.4091032,-3.0,4.0,12.0,-6.0,-2.0,-3.0,-3.0,-2.0
1702323598.4091032,0.0,9.0,16.0,5.0,0.0,-1.0,0.0,1.0
1702323598.428839,-1.0,3.0,-2.0,-1.0,-2.0,0.0,-2.0,1.0
1702323598.428839,-2.0,-12.0,-7.0,1.0,1.0,0.0,-1.0,-2.0
1702323598.428839,2.0,14.0,8.0,1.0,0.0,1.0,1.0,1.0
1702323598.428839,-1.0,-2.0,-7.0,2.0,1.0,0.0,-1.0,-1.0
1702323598.4391725,-4.0,-12.0,-12.0,-3.0,-2.0,-3.0,-3.0,-4.0
1702323598.4391725,-2.0,0.0,9.0,-4.0,-3.0,-3.0,-2.0,-2.0
1702323598.449106,-3.0,-7.0,-27.0,-4.0,-3.0,-1.0,3.0,0.0
1702323598.449106,-3.0,-5.0,9.0,0.0,-1.0,1.0,0.0,-1.0
1702323598.4701006,1.0,-2.0,-6.0,5.0,2.0,0.0,0.0,1.0
1702323598.4701006,-4.0,-4.0,-2.0,0.0,3.0,-2.0,0.0,-1.0
1702323598.471792,0.0,7.0,14.0,-1.0,-1.0,-1.0,-2.0,-1.0
1702323598.471792,-3.0,-10.0,-19.0,-6.0,-10.0,-4.0,-3.0,-2.0
1702323598.491567,0.0,3.0,9.0,1.0,-1.0,0.0,0.0,-2.0
1702323598.491567,0.0,-5.0,3.0,-3.0,1.0,-3.0,-2.0,0.0
1702323598.491567,0.0,0.0,0.0,3.0,2.0,0.0,1.0,2.0
1702323598.491567,1.0,15.0,9.0,3.0,3.0,1.0,0.0,0.0
1702323598.501917,-1.0,-12.0,-35.0,-4.0,-3.0,-1.0,-1.0,2.0
1702323598.501917,-3.0,-1.0,11.0,-1.0,-3.0,-1.0,-1.0,-2.0
1702323598.5121312,-5.0,-10.0,-26.0,-7.0,-4.0,-4.0,-3.0,-3.0
1702323598.5121312,2.0,12.0,21.0,-2.0,-1.0,-3.0,1.0,-2.0
1702323598.539451,-4.0,-8.0,-3.0,0.0,-1.0,-2.0,-1.0,-1.0
1702323598.539451,-1.0,0.0,-8.0,3.0,1.0,-1.0,-2.0,-1.0
1702323598.539451,2.0,4.0,-1.0,0.0,0.0,-1.0,-2.0,-4.0
1702323598.539451,-2.0,-5.0,0.0,-6.0,-3.0,-4.0,-3.0,-4.0
1702323598.5494947,1.0,10.0,15.0,2.0,-3.0,-1.0,0.0,0.0
1702323598.5494947,-1.0,3.0,-2.0,0.0,2.0,1.0,-1.0,0.0
1702323598.5494947,-1.0,-7.0,15.0,4.0,4.0,1.0,1.0,0.0
1702323598.5494947,0.0,-3.0,2.0,1.0,-1.0,0.0,0.0,0.0
1702323598.5597935,-2.0,11.0,10.0,-5.0,-4.0,-4.0,-2.0,0.0
1702323598.5597935,-3.0,-14.0,-19.0,-5.0,-5.0,-1.0,-2.0,-1.0
1702323598.569787,0.0,-7.0,8.0,3.0,1.0,0.0,-2.0,0.0
1702323598.569787,2.0,11.0,22.0,4.0,3.0,0.0,0.0,0.0
1702323598.589461,-3.0,-15.0,-6.0,1.0,-4.0,0.0,-1.0,0.0
1702323598.589461,1.0,7.0,4.0,0.0,0.0,-2.0,-3.0,-2.0
1702323598.589461,2.0,2.0,2.0,3.0,2.0,0.0,2.0,0.0
1702323598.589461,-3.0,-4.0,-20.0,-8.0,-4.0,-1.0,-4.0,-3.0
1702323598.609696,-2.0,2.0,7.0,-6.0,-7.0,-3.0,-1.0,-3.0
1702323598.609696,-2.0,3.0,-16.0,-8.0,-8.0,-4.0,-2.0,-2.0
1702323598.609696,-3.0,-9.0,7.0,-5.0,-8.0,-4.0,-3.0,-3.0
1702323598.609696,0.0,2.0,-5.0,5.0,8.0,0.0,-3.0,0.0
1702323598.6197248,1.0,1.0,17.0,9.0,11.0,6.0,4.0,2.0
1702323598.6197248,1.0,-5.0,4.0,11.0,12.0,3.0,2.0,1.0
1702323598.6296995,4.0,19.0,9.0,2.0,-5.0,-1.0,-1.0,0.0
1702323598.6296995,-6.0,-19.0,-8.0,-7.0,-10.0,-2.0,0.0,-2.0
1702323598.6494608,-1.0,17.0,4.0,-14.0,-8.0,-6.0,-5.0,-4.0
1702323598.6494608,5.0,4.0,-13.0,-6.0,-6.0,-1.0,-3.0,-4.0
1702323598.6494608,-12.0,-18.0,4.0,-3.0,1.0,-2.0,-3.0,-3.0
1702323598.6494608,3.0,1.0,-12.0,5.0,3.0,3.0,2.0,3.0
1702323598.669875,-1.0,-1.0,-3.0,3.0,4.0,3.0,3.0,2.0
1702323598.669875,2.0,3.0,4.0,2.0,-4.0,-3.0,0.0,1.0
1702323598.669875,4.0,4.0,1.0,-3.0,-2.0,-1.0,-2.0,1.0
1702323598.669875,-2.0,8.0,1.0,-9.0,-11.0,-5.0,-3.0,-3.0
1702323598.689461,-1.0,-2.0,19.0,1.0,-5.0,-4.0,-4.0,-4.0
1702323598.689461,-2.0,-2.0,-12.0,-6.0,6.0,2.0,0.0,1.0
1702323598.689461,-1.0,-2.0,1.0,8.0,6.0,4.0,0.0,2.0
1702323598.689461,-2.0,-2.0,2.0,5.0,4.0,4.0,-1.0,-1.0
1702323598.7098053,0.0,-3.0,-11.0,-4.0,-8.0,-3.0,-3.0,0.0
1702323598.7098053,-5.0,-6.0,0.0,-5.0,-5.0,-7.0,-4.0,-5.0
1702323598.7098053,-1.0,11.0,-1.0,-14.0,-13.0,-5.0,-3.0,0.0
1702323598.7098053,-4.0,-21.0,14.0,1.0,2.0,0.0,0.0,1.0
1702323598.7298362,0.0,-2.0,-17.0,16.0,12.0,-1.0,1.0,3.0
1702323598.7298362,-2.0,2.0,18.0,8.0,8.0,5.0,-2.0,-2.0
1702323598.7298362,-1.0,4.0,-12.0,3.0,4.0,0.0,2.0,-1.0
1702323598.7298362,10.0,-2.0,-14.0,-9.0,-8.0,2.0,-2.0,-3.0
1702323598.7494638,-3.0,-8.0,-9.0,-12.0,-15.0,-7.0,-6.0,-4.0
1702323598.7494638,-3.0,-8.0,-25.0,-8.0,0.0,-3.0,-1.0,1.0
1702323598.7494638,8.0,11.0,0.0,1.0,12.0,-2.0,-2.0,-2.0
1702323598.7494638,-3.0,-10.0,-5.0,11.0,6.0,5.0,2.0,2.0
1702323598.769876,5.0,21.0,-5.0,-4.0,0.0,-2.0,1.0,0.0
1702323598.769876,-5.0,-4.0,17.0,3.0,-11.0,1.0,-1.0,-1.0
1702323598.769876,-11.0,-9.0,-6.0,-11.0,-11.0,-9.0,-15.0,-2.0
1702323598.769876,-3.0,-4.0,-8.0,-6.0,-1.0,-5.0,0.0,-5.0
1702323598.7898066,2.0,3.0,17.0,0.0,1.0,4.0,3.0,1.0
1702323598.7898066,-1.0,-2.0,-7.0,1.0,-5.0,-4.0,1.0,3.0
1702323598.7898066,-4.0,-8.0,-6.0,-5.0,-3.0,-3.0,-6.0,-7.0
1702323598.7898066,-2.0,4.0,3.0,2.0,2.0,-2.0,-4.0,-2.0
1702323598.8094633,2.0,-1.0,1.0,1.0,8.0,4.0,-1.0,0.0
1702323598.8094633,-4.0,-2.0,-17.0,-2.0,1.0,-1.0,-3.0,-7.0
1702323598.8094633,5.0,6.0,-4.0,6.0,-4.0,-3.0,5.0,1.0
1702323598.8094633,-11.0,-20.0,-11.0,-7.0,-4.0,3.0,3.0,3.0
1702323598.8298407,-6.0,-1.0,6.0,-2.0,-1.0,-2.0,2.0,-3.0
1702323598.8298407,4.0,-13.0,5.0,1.0,2.0,4.0,1.0,3.0
1702323598.8298407,-24.0,-20.0,5.0,0.0,-2.0,0.0,3.0,-3.0
1702323598.8298407,3.0,24.0,-2.0,-5.0,-2.0,-5.0,-2.0,-1.0
1702323598.859711,2.0,10.0,-5.0,-5.0,-6.0,0.0,-3.0,-2.0
1702323598.859711,-3.0,-8.0,5.0,-3.0,-3.0,-5.0,-1.0,1.0
1702323598.859711,7.0,-3.0,-12.0,-1.0,1.0,1.0,-1.0,-6.0
1702323598.859711,1.0,0.0,4.0,2.0,4.0,1.0,-2.0,5.0
1702323598.859711,-5.0,-9.0,-3.0,8.0,6.0,0.0,5.0,2.0
1702323598.859711,5.0,17.0,36.0,4.0,-1.0,-3.0,-1.0,1.0
1702323598.8797233,6.0,2.0,-34.0,-5.0,-3.0,5.0,3.0,2.0
1702323598.8797233,1.0,-14.0,-15.0,-9.0,-3.0,-8.0,-4.0,-4.0
1702323598.8898845,2.0,-5.0,-12.0,-3.0,-1.0,2.0,2.0,2.0
1702323598.8898845,-4.0,0.0,-5.0,-6.0,-9.0,-3.0,-2.0,5.0
1702323598.8898845,2.0,7.0,16.0,-1.0,-3.0,0.0,-3.0,-3.0
1702323598.8898845,-2.0,2.0,13.0,0.0,4.0,1.0,-3.0,-5.0
1702323598.929712,1.0,5.0,1.0,3.0,4.0,0.0,1.0,0.0
1702323598.929712,3.0,-23.0,-11.0,0.0,-6.0,-2.0,5.0,6.0
1702323598.929712,-7.0,1.0,2.0,0.0,9.0,3.0,-3.0,13.0
1702323598.929712,-4.0,26.0,33.0,18.0,2.0,2.0,3.0,-13.0
1702323598.929712,-5.0,-46.0,-29.0,-3.0,-1.0,-1.0,-4.0,1.0
1702323598.929712,0.0,23.0,14.0,-4.0,-2.0,1.0,-4.0,-8.0
1702323598.929712,-4.0,2.0,-21.0,-4.0,-5.0,-3.0,10.0,12.0
1702323598.929712,-6.0,-23.0,-3.0,-11.0,-6.0,-4.0,-9.0,4.0
1702323598.9499493,3.0,16.0,-7.0,-2.0,-3.0,-5.0,-11.0,-22.0
1702323598.9499493,-8.0,-26.0,-22.0,-2.0,1.0,2.0,-2.0,4.0
1702323598.9499493,5.0,6.0,6.0,-2.0,-2.0,0.0,3.0,4.0
1702323598.9499493,0.0,6.0,6.0,3.0,1.0,-1.0,-2.0,-1.0
1702323598.9797115,19.0,1.0,7.0,-2.0,-1.0,-1.0,8.0,5.0
1702323598.9797115,3.0,11.0,-1.0,-4.0,-2.0,-2.0,-4.0,-8.0
1702323598.9797115,0.0,1.0,20.0,2.0,0.0,-1.0,-9.0,-11.0
1702323598.9797115,6.0,9.0,-8.0,1.0,0.0,0.0,1.0,-1.0
1702323598.9797115,-7.0,-18.0,1.0,-2.0,-1.0,-3.0,-5.0,2.0
1702323598.9797115,-2.0,-13.0,-17.0,1.0,2.0,0.0,2.0,-4.0
1702323598.9900715,3.0,2.0,-12.0,0.0,0.0,1.0,-2.0,-7.0
1702323598.9900715,-11.0,13.0,-13.0,-7.0,-7.0,-4.0,-2.0,0.0
1702323599.009862,-1.0,0.0,0.0,1.0,-1.0,0.0,-1.0,4.0
1702323599.009862,-4.0,-6.0,-7.0,2.0,2.0,0.0,3.0,2.0
1702323599.0177357,-4.0,-19.0,2.0,0.0,-1.0,0.0,-3.0,-4.0
1702323599.0177357,4.0,-8.0,8.0,0.0,-2.0,-3.0,0.0,2.0
1702323599.0258257,-10.0,11.0,4.0,0.0,0.0,0.0,-4.0,-3.0
1702323599.0258257,3.0,-2.0,6.0,-2.0,-2.0,-2.0,-4.0,-1.0
1702323599.0258257,-1.0,-10.0,-1.0,-1.0,0.0,-1.0,3.0,0.0
1702323599.0258257,1.0,6.0,8.0,-4.0,-2.0,-2.0,2.0,5.0
1702323599.055831,-1.0,-3.0,6.0,0.0,1.0,0.0,1.0,1.0
1702323599.055831,-9.0,16.0,-3.0,-2.0,1.0,-3.0,-7.0,-4.0
1702323599.055831,1.0,-13.0,5.0,2.0,-1.0,1.0,0.0,-1.0
1702323599.055831,0.0,3.0,-4.0,-1.0,4.0,4.0,11.0,12.0
1702323599.066232,5.0,-14.0,-17.0,-2.0,-5.0,-3.0,-18.0,-33.0
1702323599.066232,1.0,19.0,22.0,3.0,1.0,-2.0,4.0,4.0
1702323599.0762424,-4.0,-8.0,-36.0,-8.0,-3.0,-4.0,-6.0,1.0
1702323599.0762424,-11.0,19.0,5.0,3.0,-2.0,0.0,1.0,-2.0
1702323599.0862436,-4.0,-19.0,-5.0,-4.0,-2.0,-1.0,2.0,1.0
1702323599.0862436,5.0,-3.0,-8.0,-2.0,3.0,2.0,-3.0,-17.0
1702323599.0862436,-13.0,-6.0,12.0,1.0,1.0,0.0,2.0,3.0
1702323599.0862436,13.0,11.0,-6.0,-1.0,-3.0,-4.0,-10.0,0.0
1702323599.106511,-18.0,0.0,-21.0,-5.0,-2.0,-2.0,0.0,-4.0
1702323599.116247,5.0,9.0,-1.0,0.0,0.0,0.0,-1.0,2.0
1702323599.116247,8.0,5.0,27.0,5.0,1.0,1.0,3.0,10.0
1702323599.116247,2.0,-3.0,2.0,0.0,-1.0,-4.0,-1.0,-3.0
1702323599.1265867,-16.0,6.0,12.0,-2.0,-3.0,-1.0,1.0,5.0
1702323599.1265867,-2.0,-31.0,-29.0,-7.0,-1.0,-2.0,-4.0,-7.0
1702323599.136243,-3.0,20.0,19.0,3.0,1.0,1.0,4.0,2.0
1702323599.136243,2.0,-16.0,-13.0,-1.0,-2.0,-3.0,2.0,-6.0
1702323599.156402,-21.0,-7.0,-8.0,-4.0,-1.0,0.0,-1.0,1.0
1702323599.156402,2.0,3.0,2.0,3.0,1.0,0.0,-6.0,2.0
1702323599.156402,6.0,7.0,-15.0,-3.0,-1.0,-1.0,4.0,-2.0
1702323599.156402,-25.0,-34.0,4.0,-1.0,-2.0,-1.0,-3.0,-5.0
1702323599.1762483,11.0,15.0,3.0,0.0,0.0,0.0,3.0,3.0
1702323599.1762483,0.0,2.0,10.0,2.0,0.0,1.0,3.0,5.0
1702323599.1762483,6.0,10.0,-19.0,-1.0,-1.0,-2.0,-6.0,-8.0
1702323599.1762483,-4.0,-19.0,-18.0,-5.0,-3.0,0.0,0.0,-4.0
1702323599.186545,-7.0,14.0,-3.0,0.0,0.0,0.0,-1.0,5.0
1702323599.186545,-9.0,-8.0,37.0,0.0,-1.0,-1.0,0.0,1.0
1702323599.2062488,6.0,0.0,-11.0,0.0,-2.0,-3.0,-5.0,-7.0
1702323599.2062488,9.0,20.0,-7.0,-4.0,-1.0,1.0,0.0,3.0
1702323599.216245,7.0,1.0,11.0,4.0,3.0,0.0,-3.0,-6.0
1702323599.216245,-4.0,12.0,13.0,0.0,-1.0,0.0,2.0,9.0
1702323599.216245,-10.0,-14.0,-2.0,2.0,0.0,0.0,-3.0,1.0
1702323599.216245,-22.0,-14.0,-24.0,-5.0,-1.0,-1.0,-4.0,-6.0
1702323599.2362444,17.0,-1.0,-1.0,0.0,1.0,-2.0,4.0,15.0
1702323599.2362444,2.0,9.0,7.0,-4.0,-4.0,-3.0,-10.0,-8.0
1702323599.2362444,0.0,-16.0,-19.0,1.0,1.0,2.0,12.0,-1.0
1702323599.2362444,1.0,15.0,14.0,0.0,-3.0,-2.0,-7.0,7.0
1702323599.2466226,25.0,27.0,39.0,-3.0,-1.0,-2.0,-9.0,4.0
1702323599.2466226,-2.0,-4.0,-17.0,-2.0,-1.0,-2.0,4.0,-1.0
1702323599.2562437,-12.0,-5.0,2.0,-4.0,-1.0,1.0,-4.0,-6.0
1702323599.2562437,4.0,9.0,5.0,0.0,0.0,0.0,2.0,-4.0
1702323599.2662427,-6.0,-11.0,4.0,-1.0,-3.0,-3.0,2.0,8.0
1702323599.2662427,16.0,7.0,15.0,1.0,0.0,1.0,1.0,3.0
1702323599.2662427,6.0,-13.0,-6.0,-8.0,-5.0,-5.0,-10.0,-4.0
1702323599.2662427,11.0,19.0,7.0,4.0,2.0,0.0,2.0,-14.0
1702323599.2865927,-11.0,-22.0,-2.0,-4.0,-1.0,-2.0,-5.0,-8.0
1702323599.2865927,-23.0,-7.0,-6.0,1.0,0.0,1.0,1.0,-3.0
1702323599.2962432,-1.0,0.0,2.0,-6.0,-3.0,-1.0,3.0,7.0
1702323599.2962432,-3.0,-15.0,8.0,-2.0,-1.0,1.0,-5.0,-1.0
1702323599.3162413,11.0,25.0,-1.0,1.0,-1.0,1.0,3.0,0.0
1702323599.3162413,-3.0,-30.0,-37.0,-5.0,-1.0,-1.0,-1.0,-3.0
1702323599.3162413,-12.0,9.0,12.0,6.0,3.0,0.0,-3.0,-5.0
1702323599.3162413,1.0,-19.0,-5.0,-4.0,-3.0,-2.0,3.0,17.0
1702323599.326596,-1.0,0.0,-9.0,-4.0,-5.0,-6.0,-25.0,-34.0
1702323599.326596,4.0,4.0,10.0,-1.0,0.0,0.0,1.0,0.0
1702323599.326596,-6.0,-21.0,-11.0,-4.0,-3.0,-1.0,-2.0,-3.0
1702323599.326596,6.0,15.0,18.0,2.0,-1.0,0.0,-8.0,-7.0
1702323599.3466184,-11.0,-25.0,-41.0,-6.0,-2.0,-2.0,11.0,7.0
1702323599.3466184,3.0,12.0,7.0,-1.0,-1.0,-2.0,-3.0,-1.0
1702323599.3562453,-8.0,-6.0,-11.0,0.0,-2.0,-1.0,-5.0,-7.0
1702323599.3562453,24.0,33.0,16.0,2.0,-1.0,-1.0,6.0,8.0
1702323599.3666363,-3.0,-11.0,5.0,-1.0,0.0,0.0,1.0,4.0
1702323599.3666363,-7.0,-2.0,0.0,0.0,-3.0,-2.0,-2.0,-12.0
1702323599.376246,6.0,16.0,1.0,-3.0,0.0,0.0,3.0,4.0
1702323599.376246,-5.0,-11.0,3.0,4.0,3.0,2.0,-1.0,-4.0
1702323599.3862414,5.0,12.0,-6.0,-1.0,0.0,0.0,2.0,3.0
1702323599.3862414,23.0,14.0,27.0,-2.0,-5.0,-4.0,-2.0,-6.0
1702323599.3862414,-22.0,-5.0,-55.0,-4.0,-1.0,-1.0,-3.0,-3.0
1702323599.3862414,0.0,-18.0,-6.0,-4.0,-3.0,-2.0,-4.0,-10.0
1702323599.4066415,4.0,21.0,20.0,3.0,0.0,1.0,5.0,2.0
1702323599.4066415,-9.0,-8.0,1.0,1.0,2.0,2.0,5.0,3.0
1702323599.416245,-1.0,-15.0,22.0,-1.0,-3.0,-4.0,-8.0,6.0
1702323599.416245,1.0,9.0,-13.0,-3.0,-3.0,-4.0,1.0,6.0
1702323599.4362435,3.0,-4.0,-2.0,2.0,0.0,1.0,4.0,3.0
1702323599.4362435,-2.0,-5.0,6.0,-3.0,-2.0,-1.0,1.0,22.0
1702323599.4362435,7.0,-5.0,8.0,2.0,0.0,0.0,-3.0,-9.0
1702323599.4362435,-9.0,-3.0,0.0,-2.0,0.0,1.0,-2.0,1.0
1702323599.4462934,-1.0,4.0,-5.0,-1.0,-1.0,-2.0,1.0,-1.0
1702323599.4462934,-4.0,1.0,-25.0,3.0,1.0,-1.0,-3.0,-1.0
1702323599.4462934,-9.0,1.0,-16.0,-4.0,-4.0,0.0,3.0,1.0
1702323599.4462934,5.0,-2.0,6.0,1.0,1.0,-2.0,-1.0,5.0
1702323599.4665866,2.0,10.0,4.0,2.0,0.0,1.0,1.0,-2.0
1702323599.4665866,1.0,-21.0,-18.0,-9.0,-5.0,-2.0,-4.0,-3.0
1702323599.476243,7.0,16.0,19.0,3.0,1.0,0.0,1.0,-2.0
1702323599.476243,-6.0,-18.0,-34.0,-4.0,-4.0,-2.0,-1.0,-8.0
1702323599.4862435,0.0,12.0,0.0,1.0,1.0,-1.0,-4.0,0.0
1702323599.4862435,6.0,-8.0,-18.0,-6.0,-4.0,-1.0,4.0,-9.0
1702323599.4964707,17.0,20.0,51.0,6.0,2.0,1.0,0.0,6.0
1702323599.4964707,-5.0,-38.0,-10.0,-3.0,0.0,-1.0,-2.0,-4.0
1702323599.5065298,-6.0,5.0,-21.0,-6.0,-2.0,-4.0,-1.0,-2.0
1702323599.5065298,0.0,25.0,15.0,-1.0,-1.0,1.0,-1.0,1.0
1702323599.5065298,-3.0,-22.0,-50.0,-6.0,-3.0,-2.0,2.0,-9.0
1702323599.5065298,9.0,35.0,13.0,6.0,2.0,2.0,-4.0,-4.0
1702323599.55363,-18.0,-73.0,-14.0,-3.0,-4.0,-2.0,11.0,6.0
1702323599.55363,-7.0,2.0,4.0,0.0,2.0,-1.0,-12.0,-9.0
1702323599.554631,10.0,13.0,12.0,-1.0,-1.0,-1.0,4.0,14.0
1702323599.554631,-10.0,7.0,-4.0,0.0,0.0,-2.0,1.0,-10.0
1702323599.554631,-4.0,0.0,-23.0,-5.0,-2.0,-3.0,-3.0,-5.0
1702323599.554631,1.0,8.0,-9.0,0.0,0.0,-2.0,-2.0,5.0
1702323599.5568955,1.0,-4.0,8.0,0.0,0.0,-2.0,-3.0,3.0
1702323599.5568955,-19.0,14.0,9.0,1.0,-3.0,-2.0,1.0,2.0
1702323599.5671349,-1.0,-31.0,-5.0,-3.0,1.0,0.0,-3.0,-9.0
1702323599.5671349,-8.0,-12.0,-11.0,0.0,-1.0,0.0,2.0,1.0
1702323599.5671349,7.0,11.0,8.0,-1.0,-1.0,-1.0,-3.0,-4.0
1702323599.5671349,3.0,1.0,11.0,-1.0,0.0,0.0,6.0,-1.0
1702323599.6068976,-2.0,-7.0,21.0,1.0,1.0,2.0,-5.0,0.0
1702323599.6068976,-7.0,-11.0,-12.0,-1.0,-2.0,-3.0,1.0,-4.0
1702323599.6068976,-12.0,-2.0,1.0,2.0,1.0,1.0,-2.0,-4.0
1702323599.6068976,6.0,-2.0,0.0,-5.0,-3.0,-3.0,-1.0,-5.0
1702323599.6068976,4.0,11.0,30.0,9.0,1.0,2.0,0.0,6.0
1702323599.6068976,-2.0,-19.0,-21.0,-7.0,-1.0,-1.0,1.0,-3.0
1702323599.6168985,1.0,21.0,1.0,-6.0,-4.0,-2.0,-5.0,-11.0
1702323599.6168985,-18.0,-12.0,-4.0,-1.0,-2.0,-2.0,-2.0,8.0
1702323599.6272144,0.0,4.0,2.0,-2.0,0.0,-2.0,-3.0,2.0
1702323599.6272144,0.0,15.0,19.0,5.0,-1.0,1.0,2.0,-3.0
1702323599.6272144,-1.0,-10.0,-10.0,1.0,-1.0,-1.0,1.0,-3.0
1702323599.6272144,-2.0,-9.0,-8.0,-2.0,0.0,-1.0,-2.0,-5.0
1702323599.6469,2.0,24.0,12.0,0.0,-2.0,-2.0,-6.0,-4.0
1702323599.6469,-6.0,-17.0,-14.0,2.0,1.0,-2.0,6.0,3.0
1702323599.6568966,-5.0,-9.0,13.0,-3.0,0.0,-1.0,-5.0,2.0
1702323599.6568966,-1.0,-19.0,-28.0,-6.0,-2.0,-1.0,-1.0,-14.0
1702323599.6672463,-8.0,-2.0,-7.0,-1.0,0.0,0.0,1.0,1.0
1702323599.6672463,14.0,19.0,11.0,1.0,-1.0,0.0,-1.0,-2.0
1702323599.6772215,-3.0,3.0,-3.0,-1.0,-3.0,-2.0,-5.0,-5.0
1702323599.6772215,3.0,-6.0,1.0,-2.0,-1.0,-2.0,-1.0,2.0
1702323599.696898,-1.0,0.0,-15.0,-2.0,-3.0,1.0,-4.0,-3.0
1702323599.696898,-1.0,-7.0,-8.0,-3.0,1.0,0.0,-1.0,2.0
1702323599.696898,-4.0,23.0,27.0,5.0,1.0,0.0,-4.0,-11.0
1702323599.696898,3.0,12.0,-5.0,1.0,0.0,2.0,12.0,24.0
1702323599.7169037,-2.0,-12.0,-7.0,-1.0,-2.0,-3.0,-3.0,-37.0
1702323599.7169037,-6.0,-4.0,13.0,-4.0,-3.0,-2.0,-2.0,-1.0
1702323599.7169037,-3.0,-5.0,3.0,-2.0,-1.0,-1.0,3.0,1.0
1702323599.7169037,2.0,6.0,17.0,-2.0,-1.0,-2.0,-6.0,0.0
1702323599.7271132,1.0,4.0,-2.0,-2.0,-3.0,0.0,4.0,5.0
1702323599.7271132,2.0,2.0,2.0,4.0,2.0,2.0,-3.0,2.0
1702323599.7371316,0.0,-2.0,-3.0,-2.0,0.0,-1.0,1.0,-4.0
1702323599.7371316,-1.0,3.0,-12.0,0.0,-3.0,-2.0,1.0,0.0
1702323599.7768984,2.0,3.0,22.0,2.0,0.0,-1.0,0.0,-2.0
1702323599.7768984,-4.0,-14.0,-45.0,-7.0,-2.0,-2.0,1.0,0.0
1702323599.7768984,-2.0,-12.0,-1.0,-2.0,-3.0,-1.0,-2.0,-1.0
1702323599.7768984,2.0,3.0,3.0,-2.0,0.0,-1.0,-1.0,3.0
1702323599.7768984,-1.0,3.0,-1.0,-2.0,-2.0,-1.0,-1.0,2.0
1702323599.7768984,-4.0,2.0,19.0,2.0,0.0,-3.0,-4.0,-3.0
1702323599.7768984,2.0,-10.0,-7.0,1.0,2.0,2.0,0.0,2.0
1702323599.7768984,-11.0,-10.0,23.0,3.0,2.0,1.0,5.0,-2.0
1702323599.7870886,10.0,13.0,-11.0,-3.0,-1.0,-1.0,-2.0,11.0
1702323599.7870886,0.0,19.0,4.0,3.0,-1.0,-2.0,1.0,8.0
1702323599.7971618,-6.0,-32.0,-16.0,-7.0,-6.0,-2.0,0.0,-24.0
1702323599.7971618,2.0,3.0,-2.0,2.0,0.0,0.0,-4.0,-1.0
1702323599.8070478,-4.0,-1.0,-5.0,-4.0,1.0,-1.0,-2.0,2.0
1702323599.8070478,2.0,3.0,7.0,2.0,-2.0,-1.0,3.0,20.0
1702323599.8168998,-3.0,8.0,0.0,0.0,-1.0,-1.0,2.0,3.0
1702323599.8168998,1.0,-3.0,-6.0,-3.0,-2.0,-1.0,-5.0,-11.0
1702323599.8268967,-4.0,-6.0,7.0,0.0,0.0,-2.0,12.0,15.0
1702323599.8268967,4.0,14.0,0.0,-1.0,0.0,0.0,0.0,-4.0
1702323599.836902,-2.0,-11.0,-1.0,-2.0,1.0,-1.0,-2.0,13.0
1702323599.836902,2.0,2.0,-16.0,-3.0,-1.0,0.0,-4.0,-12.0
1702323599.8471682,3.0,-15.0,2.0,-1.0,-2.0,-1.0,-5.0,4.0
1702323599.8471682,-5.0,-5.0,13.0,1.0,-1.0,-2.0,-4.0,-10.0
1702323599.8569021,3.0,15.0,-5.0,-1.0,-3.0,-1.0,0.0,12.0
1702323599.8569021,2.0,-3.0,-6.0,-1.0,-1.0,-1.0,-6.0,-5.0
1702323599.8669581,-11.0,-3.0,4.0,-2.0,-1.0,-1.0,4.0,-5.0
1702323599.8669581,-1.0,9.0,-7.0,0.0,1.0,-1.0,-4.0,-6.0
1702323599.8669581,-4.0,-16.0,-12.0,-1.0,-1.0,-1.0,1.0,-2.0
1702323599.8669581,1.0,-9.0,3.0,1.0,1.0,-1.0,-2.0,-1.0
1702323599.8968973,0.0,14.0,7.0,1.0,0.0,-1.0,-3.0,1.0
1702323599.8968973,-5.0,-9.0,-12.0,-3.0,-3.0,2.0,6.0,-6.0
1702323599.8968973,-4.0,17.0,19.0,1.0,1.0,0.0,10.0,17.0
1702323599.8968973,-7.0,-36.0,-8.0,0.0,-2.0,-2.0,-21.0,-23.0
1702323599.9069,12.0,29.0,-22.0,-4.0,-2.0,1.0,5.0,15.0
1702323599.9069,-6.0,-20.0,17.0,-2.0,0.0,-1.0,-2.0,-19.0
1702323599.9168987,1.0,7.0,-8.0,0.0,-1.0,-1.0,0.0,-3.0
1702323599.9168987,1.0,6.0,13.0,2.0,-1.0,-1.0,4.0,16.0
1702323599.9268978,1.0,-6.0,-8.0,-1.0,-4.0,0.0,-2.0,0.0
1702323599.9268978,2.0,9.0,8.0,1.0,-1.0,-3.0,-6.0,-6.0
1702323599.9268978,2.0,-9.0,-17.0,0.0,-1.0,-1.0,-3.0,7.0
1702323599.9268978,-3.0,-3.0,3.0,-4.0,-3.0,-2.0,3.0,-11.0
1702323599.9472413,-1.0,-3.0,-3.0,-1.0,-1.0,-2.0,-8.0,-7.0
1702323599.9472413,0.0,12.0,5.0,0.0,-1.0,1.0,5.0,5.0
1702323599.9568985,4.0,-8.0,-1.0,-1.0,-3.0,-1.0,-9.0,-11.0
1702323599.9568985,2.0,5.0,16.0,-1.0,-1.0,-1.0,1.0,4.0
1702323599.9769006,-5.0,-9.0,-8.0,0.0,-2.0,-2.0,0.0,9.0
1702323599.9769006,6.0,-8.0,-9.0,-4.0,-3.0,-1.0,-1.0,-13.0
1702323599.9769006,2.0,8.0,-3.0,0.0,2.0,-2.0,-1.0,1.0
1702323599.9769006,1.0,15.0,4.0,2.0,0.0,0.0,2.0,4.0
1702323599.986931,-6.0,-14.0,8.0,-1.0,-1.0,-3.0,-2.0,-6.0
1702323599.986931,-5.0,-15.0,-17.0,-4.0,-1.0,-2.0,0.0,3.0
1702323599.986931,-5.0,-1.0,0.0,-2.0,-3.0,-3.0,0.0,-4.0
1702323599.986931,0.0,10.0,2.0,-1.0,-2.0,0.0,-7.0,-8.0
1702323600.006907,3.0,3.0,19.0,2.0,2.0,0.0,17.0,6.0
1702323600.006907,-7.0,-1.0,-22.0,-2.0,0.0,-2.0,-15.0,-4.0
1702323600.0169053,-4.0,-2.0,8.0,-3.0,0.0,-1.0,0.0,-5.0
1702323600.0169053,-1.0,1.0,-8.0,-2.0,0.0,-1.0,2.0,4.0
1702323600.0468986,-2.0,13.0,0.0,-1.0,-1.0,0.0,-5.0,-5.0
1702323600.0468986,1.0,-20.0,11.0,2.0,-1.0,0.0,3.0,3.0
1702323600.0468986,-8.0,7.0,24.0,2.0,-3.0,-2.0,-1.0,-7.0
1702323600.0468986,-1.0,-8.0,-16.0,-4.0,-1.0,-4.0,1.0,6.0
1702323600.0468986,1.0,-8.0,-15.0,-2.0,-3.0,-4.0,-18.0,-10.0
1702323600.0468986,0.0,13.0,28.0,0.0,-2.0,-1.0,-2.0,9.0
1702323600.0468986,-6.0,-13.0,-36.0,-6.0,-1.0,0.0,-6.0,-21.0
1702323600.0468986,-1.0,-6.0,13.0,0.0,-4.0,0.0,6.0,13.0
1702323600.0755064,-8.0,-4.0,-26.0,-5.0,-1.0,1.0,-5.0,-12.0
1702323600.0755064,1.0,-5.0,3.0,-1.0,-1.0,-1.0,4.0,1.0
1702323600.0774226,-2.0,5.0,9.0,2.0,2.0,2.0,-1.0,-1.0
1702323600.0774226,-3.0,-11.0,-14.0,-6.0,-3.0,-1.0,-3.0,-2.0
1702323600.1000738,6.0,-17.0,-8.0,-2.0,0.0,1.0,-2.0,-4.0
1702323600.1000738,0.0,5.0,-24.0,-1.0,0.0,-1.0,-1.0,6.0
1702323600.1000738,3.0,3.0,7.0,-2.0,-1.0,-1.0,0.0,3.0
1702323600.1000738,3.0,-3.0,-5.0,0.0,0.0,-1.0,0.0,-1.0
1702323600.1101089,-11.0,5.0,30.0,5.0,0.0,-2.0,-1.0,-4.0
1702323600.1101089,-4.0,-9.0,-20.0,-4.0,-2.0,-1.0,-3.0,-3.0
1702323600.1101089,1.0,0.0,13.0,1.0,0.0,-1.0,4.0,6.0
1702323600.1101089,-2.0,1.0,-3.0,-1.0,1.0,0.0,-1.0,-1.0
1702323600.1304343,-6.0,-28.0,-38.0,-5.0,-2.0,-1.0,-4.0,0.0
1702323600.1304343,-1.0,6.0,20.0,0.0,-1.0,-1.0,7.0,-7.0
1702323600.1304343,-12.0,1.0,9.0,3.0,-1.0,-3.0,-3.0,12.0
1702323600.1304343,5.0,6.0,-18.0,0.0,0.0,0.0,1.0,6.0
1702323600.1571095,-3.0,3.0,15.0,4.0,2.0,-2.0,-1.0,-3.0
1702323600.1571095,-3.0,-3.0,0.0,-1.0,-2.0,0.0,-3.0,-7.0
1702323600.1571095,-6.0,-1.0,-11.0,-2.0,-1.0,0.0,1.0,1.0
1702323600.1571095,3.0,6.0,12.0,6.0,2.0,3.0,0.0,-1.0
1702323600.1671333,-6.0,-1.0,-2.0,-6.0,-6.0,-3.0,7.0,10.0
1702323600.1671333,-1.0,15.0,-16.0,-8.0,-3.0,-2.0,-18.0,-13.0
1702323600.1773264,6.0,-23.0,-14.0,-1.0,-2.0,-2.0,5.0,13.0
1702323600.1773264,0.0,10.0,23.0,1.0,0.0,0.0,-8.0,-16.0
1702323600.1875017,3.0,19.0,13.0,1.0,-1.0,0.0,-1.0,6.0
1702323600.1875017,3.0,-1.0,-10.0,0.0,1.0,0.0,1.0,2.0
1702323600.197132,4.0,-6.0,6.0,1.0,1.0,0.0,-2.0,-3.0
1702323600.197132,-7.0,-7.0,-11.0,-3.0,-2.0,-1.0,-3.0,-2.0
1702323600.2173321,-4.0,4.0,8.0,0.0,-1.0,0.0,-2.0,-8.0
1702323600.2173321,-3.0,-16.0,-19.0,-4.0,-2.0,-4.0,1.0,2.0
1702323600.2173321,4.0,9.0,-1.0,-3.0,-1.0,-4.0,-8.0,-4.0
1702323600.2173321,10.0,4.0,-3.0,-1.0,-1.0,0.0,6.0,7.0
1702323600.227371,-14.0,-23.0,-3.0,-1.0,-1.0,-1.0,-2.0,-8.0
1702323600.227371,0.0,3.0,-17.0,-4.0,-1.0,-1.0,-1.0,4.0
1702323600.2373433,-6.0,-14.0,8.0,0.0,-2.0,1.0,-2.0,-4.0
1702323600.2373433,-3.0,12.0,2.0,-2.0,-2.0,-2.0,-2.0,1.0
1702323600.2473927,10.0,-22.0,7.0,-1.0,-1.0,-2.0,-4.0,-1.0
1702323600.2473927,1.0,9.0,10.0,0.0,-1.0,0.0,2.0,17.0
1702323600.2571373,0.0,-8.0,-6.0,1.0,1.0,1.0,-1.0,-25.0
1702323600.2571373,-5.0,13.0,-1.0,-7.0,-5.0,-6.0,-4.0,16.0
1702323600.2871335,6.0,3.0,-7.0,1.0,1.0,1.0,0.0,2.0
1702323600.2871335,-8.0,-8.0,7.0,4.0,1.0,0.0,7.0,-21.0
1702323600.2871335,6.0,-3.0,-2.0,-3.0,-3.0,0.0,1.0,10.0
1702323600.2871335,-7.0,1.0,-1.0,3.0,-1.0,0.0,-2.0,-10.0
1702323600.2871335,4.0,2.0,-17.0,-5.0,0.0,-2.0,1.0,7.0
1702323600.2871335,-4.0,-14.0,12.0,0.0,-2.0,0.0,0.0,1.0
1702323600.2974763,11.0,23.0,5.0,-4.0,-1.0,-2.0,-7.0,2.0
1702323600.2974763,-5.0,-16.0,-16.0,1.0,0.0,-2.0,13.0,-8.0
1702323600.3074067,-4.0,13.0,0.0,-4.0,-2.0,-1.0,-3.0,5.0
1702323600.3074067,1.0,-14.0,6.0,2.0,3.0,3.0,0.0,1.0
1702323600.3074067,-6.0,0.0,-10.0,-1.0,-4.0,-2.0,-2.0,0.0
1702323600.3074067,3.0,-9.0,2.0,-4.0,0.0,0.0,2.0,6.0
1702323600.337334,5.0,1.0,1.0,-2.0,-2.0,-1.0,-5.0,-12.0
1702323600.337334,-1.0,16.0,29.0,6.0,2.0,-1.0,-7.0,-2.0
1702323600.337334,6.0,-4.0,-28.0,-5.0,-3.0,-1.0,-6.0,3.0
1702323600.337334,-3.0,0.0,-3.0,0.0,-2.0,-4.0,-11.0,-8.0
1702323600.3474493,-7.0,25.0,8.0,0.0,-1.0,-2.0,3.0,17.0
1702323600.3474493,1.0,-28.0,-6.0,-4.0,-3.0,-3.0,-8.0,-48.0
1702323600.3573759,-8.0,5.0,2.0,-1.0,1.0,1.0,-5.0,8.0
1702323600.3573759,2.0,-4.0,4.0,-4.0,-1.0,-2.0,2.0,-1.0
1702323600.3671334,-2.0,-20.0,-16.0,1.0,1.0,0.0,-4.0,-9.0
1702323600.3671334,-1.0,21.0,15.0,4.0,1.0,-2.0,2.0,19.0
1702323600.3671334,-17.0,-24.0,-28.0,-8.0,-5.0,-3.0,5.0,7.0
1702323600.3671334,0.0,1.0,-4.0,-1.0,-1.0,-2.0,-6.0,-19.0
1702323600.397377,0.0,2.0,5.0,0.0,-1.0,-1.0,-1.0,5.0
1702323600.397377,-2.0,-26.0,-3.0,-4.0,-2.0,-1.0,14.0,7.0
1702323600.397377,6.0,14.0,24.0,3.0,0.0,-1.0,-14.0,-9.0
1702323600.397377,-15.0,-13.0,-12.0,0.0,0.0,1.0,-5.0,6.0
1702323600.4073217,3.0,-7.0,-3.0,-1.0,-1.0,-3.0,0.0,-1.0
1702323600.4073217,-1.0,11.0,1.0,-3.0,-2.0,-1.0,1.0,3.0
1702323600.4173572,1.0,18.0,-2.0,-1.0,-1.0,-1.0,3.0,-10.0
1702323600.4173572,1.0,-29.0,-10.0,-3.0,-2.0,0.0,1.0,2.0
1702323600.4471316,4.0,16.0,19.0,1.0,1.0,2.0,-1.0,-6.0
1702323600.4471316,-3.0,4.0,1.0,-2.0,0.0,-1.0,2.0,-1.0
1702323600.4471316,0.0,-1.0,9.0,0.0,2.0,-1.0,-2.0,21.0
1702323600.4471316,-2.0,8.0,-4.0,0.0,-1.0,-3.0,1.0,-39.0
1702323600.4574292,-10.0,-20.0,-10.0,0.0,-1.0,1.0,-5.0,-13.0
1702323600.4574292,7.0,16.0,-5.0,1.0,-1.0,2.0,0.0,13.0
1702323600.4574292,4.0,5.0,15.0,-1.0,1.0,1.0,5.0,-10.0
1702323600.4574292,-3.0,-19.0,-1.0,0.0,0.0,-1.0,2.0,10.0
1702323600.4674828,1.0,8.0,3.0,-2.0,-4.0,-3.0,-5.0,-3.0
1702323600.4674828,-3.0,-7.0,-5.0,3.0,1.0,-1.0,-6.0,-6.0
1702323600.4774592,12.0,2.0,-23.0,0.0,-1.0,-1.0,-4.0,0.0
1702323600.4774592,-1.0,4.0,24.0,-3.0,-1.0,-1.0,-7.0,3.0
1702323600.4871342,-3.0,1.0,-10.0,-1.0,1.0,0.0,2.0,-2.0
1702323600.4871342,-1.0,-13.0,-12.0,-3.0,-4.0,-3.0,-1.0,2.0
1702323600.4971488,1.0,-17.0,-14.0,0.0,-2.0,-1.0,5.0,-5.0
1702323600.4971488,12.0,32.0,8.0,0.0,0.0,1.0,2.0,13.0
1702323600.5171359,-8.0,-18.0,0.0,-2.0,-2.0,-1.0,-1.0,-5.0
1702323600.5171359,-4.0,2.0,-4.0,-3.0,-2.0,-1.0,-5.0,0.0
1702323600.5171359,5.0,-19.0,5.0,-1.0,-2.0,-1.0,0.0,-2.0
1702323600.5171359,-7.0,-6.0,-16.0,-1.0,0.0,1.0,-4.0,-2.0
1702323600.5274491,-5.0,6.0,5.0,0.0,0.0,-1.0,2.0,-2.0
1702323600.5274491,0.0,-5.0,-5.0,-3.0,-2.0,-1.0,-3.0,6.0
1702323600.5471325,-2.0,10.0,7.0,-2.0,-2.0,-2.0,3.0,-6.0
1702323600.5471325,10.0,5.0,2.0,0.0,0.0,0.0,-2.0,7.0
1702323600.5571322,0.0,-12.0,6.0,-3.0,-2.0,-1.0,0.0,1.0
1702323600.5571322,0.0,28.0,-7.0,1.0,0.0,1.0,-7.0,-5.0
1702323600.5571322,-4.0,-5.0,9.0,-1.0,-2.0,-2.0,6.0,2.0
1702323600.5571322,-9.0,-4.0,-17.0,-4.0,-3.0,0.0,6.0,3.0
1702323600.577134,-1.0,1.0,2.0,0.0,-1.0,-2.0,-3.0,1.0
1702323600.577134,-17.0,7.0,20.0,1.0,0.0,0.0,-5.0,-3.0
1702323600.577134,2.0,-14.0,1.0,0.0,0.0,-1.0,-2.0,-2.0
1702323600.577134,-2.0,6.0,-7.0,-1.0,-1.0,1.0,-2.0,-2.0
1702323600.5989144,0.0,-7.0,-8.0,-4.0,-3.0,0.0,3.0,5.0
1702323600.5989144,2.0,5.0,-3.0,-5.0,-2.0,0.0,3.0,3.0
1702323600.5999155,-5.0,4.0,1.0,6.0,4.0,0.0,-1.0,-2.0
1702323600.5999155,-4.0,-5.0,12.0,0.0,0.0,0.0,5.0,1.0
1702323600.6062224,3.0,-5.0,-13.0,-2.0,0.0,0.0,3.0,5.0
1702323600.6162152,-3.0,12.0,13.0,-1.0,-2.0,-1.0,0.0,-10.0
1702323600.6162152,-5.0,-4.0,-14.0,-5.0,-4.0,-2.0,1.0,6.0
1702323600.6162152,2.0,-20.0,-4.0,-2.0,-3.0,-2.0,-4.0,-2.0
1702323600.6366475,0.0,-1.0,-25.0,-1.0,0.0,-1.0,-3.0,-8.0
1702323600.6366475,7.0,6.0,11.0,1.0,0.0,1.0,5.0,15.0
1702323600.6366475,1.0,-15.0,-10.0,3.0,2.0,-1.0,-4.0,-16.0
1702323600.6366475,-6.0,3.0,-5.0,-1.0,0.0,-1.0,-2.0,1.0
1702323600.6562078,-3.0,5.0,8.0,-1.0,1.0,-1.0,-1.0,-4.0
1702323600.6562078,-1.0,-22.0,-7.0,-6.0,-4.0,-3.0,-11.0,-5.0
1702323600.6562078,-13.0,11.0,-10.0,-1.0,-2.0,-2.0,-4.0,2.0
1702323600.6562078,-7.0,-4.0,12.0,0.0,-1.0,-2.0,-6.0,-6.0
1702323600.666279,-1.0,-7.0,-18.0,-4.0,-4.0,-4.0,3.0,5.0
1702323600.666279,10.0,16.0,10.0,2.0,0.0,-1.0,4.0,1.0
1702323600.676265,2.0,8.0,9.0,-2.0,0.0,0.0,0.0,-1.0
1702323600.676265,-9.0,-10.0,-10.0,-2.0,-2.0,0.0,-1.0,1.0
1702323600.6965632,-2.0,-3.0,4.0,0.0,-1.0,-2.0,-3.0,2.0
1702323600.6965632,-4.0,5.0,-2.0,1.0,-4.0,-2.0,-5.0,-4.0
1702323600.6965632,1.0,5.0,27.0,-1.0,-3.0,-2.0,-3.0,-6.0
1702323600.6965632,4.0,-3.0,-20.0,-1.0,1.0,-2.0,1.0,9.0
1702323600.7265828,2.0,10.0,18.0,1.0,0.0,-4.0,-4.0,-1.0
1702323600.7265828,-3.0,0.0,-19.0,-3.0,-2.0,2.0,-1.0,-6.0
1702323600.736583,-5.0,-14.0,-5.0,-1.0,1.0,-1.0,1.0,5.0
1702323600.736583,4.0,9.0,14.0,0.0,-5.0,-3.0,-2.0,2.0
1702323600.736583,9.0,1.0,-21.0,-6.0,-5.0,0.0,-4.0,-4.0
1702323600.736583,-2.0,-1.0,1.0,5.0,6.0,0.0,-3.0,-4.0
1702323600.736583,-7.0,-5.0,-10.0,3.0,3.0,1.0,-1.0,-5.0
1702323600.736583,7.0,13.0,12.0,2.0,2.0,1.0,2.0,6.0
1702323600.7565825,-1.0,2.0,-6.0,-4.0,-2.0,-3.0,0.0,-1.0
1702323600.7565825,-1.0,-21.0,0.0,-4.0,-5.0,-1.0,-3.0,-2.0
1702323600.7565825,0.0,-14.0,-18.0,-7.0,-5.0,-1.0,-1.0,7.0
1702323600.7565825,0.0,-3.0,-5.0,-4.0,-5.0,-3.0,-6.0,-7.0
1702323600.7764704,2.0,16.0,7.0,3.0,3.0,1.0,6.0,-3.0
1702323600.7764704,-2.0,-1.0,-15.0,-1.0,-1.0,-1.0,2.0,16.0
1702323600.7764704,3.0,5.0,15.0,5.0,0.0,2.0,0.0,-6.0
1702323600.7764704,-8.0,-4.0,-4.0,-1.0,1.0,0.0,-3.0,-3.0
1702323600.7868626,-5.0,-2.0,10.0,-2.0,-6.0,-2.0,-7.0,-8.0
1702323600.7868626,-2.0,0.0,-1.0,-3.0,1.0,-1.0,5.0,12.0
1702323600.7968047,-6.0,-12.0,-11.0,-4.0,-1.0,-4.0,-2.0,-2.0
1702323600.7968047,-1.0,3.0,0.0,-3.0,-7.0,2.0,-2.0,-4.0
1702323600.816481,-7.0,-2.0,10.0,8.0,9.0,4.0,3.0,5.0
1702323600.816481,6.0,-2.0,0.0,9.0,8.0,1.0,5.0,-4.0
1702323600.826479,-1.0,23.0,23.0,2.0,2.0,-2.0,-3.0,7.0
1702323600.826479,-14.0,-21.0,-27.0,-4.0,0.0,-2.0,1.0,-7.0
1702323600.826479,0.0,2.0,10.0,-5.0,-6.0,-1.0,-2.0,-4.0
1702323600.826479,-2.0,-10.0,-15.0,-4.0,-7.0,-1.0,-2.0,5.0
1702323600.8367243,2.0,19.0,1.0,-1.0,-1.0,-2.0,-4.0,-18.0
1702323600.8367243,-2.0,-15.0,7.0,0.0,0.0,-1.0,0.0,0.0
1702323600.8467498,-5.0,-10.0,-1.0,-2.0,-2.0,-1.0,1.0,9.0
1702323600.8467498,-6.0,1.0,13.0,-1.0,0.0,0.0,-7.0,3.0
1702323600.8564851,1.0,0.0,-7.0,-3.0,-1.0,-5.0,-3.0,-10.0
1702323600.8564851,11.0,23.0,3.0,5.0,0.0,-1.0,19.0,11.0
1702323600.89648,-6.0,-17.0,7.0,1.0,2.0,4.0,-15.0,-13.0
1702323600.89648,0.0,-8.0,-11.0,-3.0,-1.0,-2.0,-2.0,-1.0
1702323600.9064775,5.0,13.0,3.0,-6.0,-7.0,-8.0,6.0,15.0
1702323600.9064775,0.0,-9.0,5.0,0.0,-2.0,4.0,-7.0,-7.0
1702323600.9064775,-10.0,2.0,-2.0,1.0,4.0,3.0,7.0,10.0
1702323600.9064775,-3.0,2.0,2.0,-2.0,-4.0,-1.0,-2.0,-31.0
1702323600.9064775,-3.0,-2.0,0.0,1.0,2.0,5.0,1.0,2.0
1702323600.9064775,10.0,2.0,-2.0,-5.0,-2.0,-11.0,-9.0,-2.0
1702323600.9064775,3.0,8.0,6.0,2.0,4.0,-2.0,5.0,4.0
1702323600.9064775,1.0,-8.0,-19.0,-1.0,3.0,-2.0,0.0,0.0
1702323600.9167936,-1.0,-5.0,-8.0,5.0,3.0,-1.0,3.0,4.0
1702323600.9167936,-1.0,-2.0,10.0,-4.0,-3.0,0.0,-1.0,-5.0
1702323600.936481,-4.0,-12.0,-25.0,-6.0,-9.0,-4.0,-5.0,-4.0
1702323600.946478,-5.0,4.0,7.0,-5.0,-5.0,-4.0,-3.0,-5.0
1702323600.946478,-2.0,-5.0,5.0,5.0,0.0,2.0,-1.0,-1.0
1702323600.946478,-1.0,5.0,6.0,3.0,4.0,3.0,2.0,26.0
1702323600.9568088,-1.0,-6.0,8.0,0.0,-1.0,-3.0,-6.0,-28.0
1702323600.9568088,3.0,-10.0,-12.0,-6.0,-3.0,-2.0,1.0,5.0
1702323600.9568088,0.0,-3.0,-4.0,-3.0,-1.0,2.0,-2.0,1.0
1702323600.9568088,-8.0,-7.0,-8.0,-5.0,-2.0,-2.0,-3.0,-4.0
1702323600.966849,4.0,12.0,0.0,1.0,-1.0,-2.0,-3.0,1.0
1702323600.966849,-11.0,5.0,5.0,2.0,0.0,-1.0,3.0,0.0
1702323600.9864786,9.0,15.0,11.0,-3.0,-2.0,-4.0,-1.0,-5.0
1702323600.9864786,-17.0,-36.0,-8.0,-5.0,1.0,1.0,-4.0,-6.0
1702323600.996722,-1.0,0.0,8.0,2.0,1.0,1.0,1.0,4.0
1702323600.996722,-1.0,6.0,-9.0,-1.0,-1.0,-2.0,-4.0,-2.0
1702323600.996722,-6.0,-9.0,8.0,-1.0,1.0,-2.0,-5.0,8.0
1702323600.996722,7.0,16.0,-16.0,1.0,1.0,-1.0,6.0,-2.0
1702323601.0167387,0.0,-7.0,-7.0,-2.0,-3.0,0.0,-1.0,2.0
1702323601.0167387,-3.0,-26.0,18.0,1.0,2.0,0.0,-1.0,-1.0
1702323601.0167387,3.0,2.0,8.0,-3.0,-4.0,-1.0,0.0,4.0
1702323601.0167387,-2.0,4.0,-3.0,5.0,4.0,-1.0,-3.0,-10.0
1702323601.0267367,6.0,8.0,4.0,-1.0,-1.0,-1.0,-2.0,4.0
1702323601.0267367,7.0,10.0,-14.0,-4.0,-2.0,-2.0,4.0,5.0
1702323601.05648,-17.0,-2.0,3.0,0.0,-1.0,3.0,1.0,-1.0
1702323601.05648,7.0,23.0,10.0,-4.0,-2.0,-2.0,-2.0,0.0
1702323601.0664773,-12.0,-16.0,-33.0,-3.0,-4.0,-3.0,-3.0,-2.0
1702323601.0664773,0.0,1.0,11.0,4.0,1.0,-1.0,-3.0,-6.0
1702323601.0664773,-9.0,-1.0,-4.0,-3.0,-1.0,2.0,3.0,-4.0
1702323601.0664773,13.0,8.0,3.0,3.0,-2.0,-5.0,-9.0,-5.0
1702323601.0767472,12.0,10.0,24.0,-3.0,-2.0,-3.0,3.0,7.0
1702323601.0767472,-29.0,-9.0,-15.0,-4.0,3.0,2.0,-3.0,-8.0
1702323601.0867498,5.0,-3.0,7.0,3.0,-3.0,-3.0,-4.0,-3.0
1702323601.0867498,2.0,0.0,0.0,-4.0,0.0,1.0,2.0,1.0
1702323601.0867498,11.0,8.0,-1.0,-4.0,-4.0,-2.0,7.0,9.0
1702323601.0867498,-7.0,0.0,11.0,5.0,2.0,1.0,-4.0,-13.0
1702323601.1234515,0.0,-4.0,-6.0,-6.0,-1.0,-1.0,-3.0,-4.0
1702323601.1234515,1.0,-5.0,-14.0,-3.0,0.0,1.0,1.0,4.0
1702323601.1234515,-18.0,-12.0,21.0,2.0,0.0,-2.0,-10.0,-13.0
1702323601.1234515,15.0,9.0,-17.0,-4.0,-5.0,-6.0,-2.0,7.0
1702323601.1234515,-3.0,-2.0,-7.0,-4.0,-1.0,0.0,-1.0,-4.0
1702323601.1234515,1.0,-5.0,-19.0,-4.0,-4.0,-3.0,-1.0,-2.0
1702323601.1388142,-15.0,4.0,-5.0,-3.0,0.0,-2.0,-2.0,0.0
1702323601.1388142,1.0,-23.0,7.0,4.0,2.0,2.0,0.0,-4.0
1702323601.1388142,13.0,3.0,-4.0,1.0,-1.0,-3.0,-6.0,-3.0
1702323601.1388142,-19.0,-8.0,-9.0,-1.0,-1.0,-2.0,4.0,11.0
1702323601.1490645,24.0,19.0,-5.0,1.0,-2.0,-1.0,-2.0,-4.0
1702323601.1490645,22.0,12.0,-4.0,-3.0,-4.0,-3.0,0.0,5.0
1702323601.1688082,-13.0,-24.0,-22.0,-9.0,-2.0,1.0,1.0,3.0
1702323601.1688082,-4.0,-2.0,14.0,10.0,4.0,1.0,-2.0,-4.0
1702323601.1768987,6.0,17.0,5.0,-7.0,-3.0,-2.0,-1.0,1.0
1702323601.1768987,0.0,-2.0,-2.0,-8.0,-4.0,-3.0,-1.0,-2.0
1702323601.1768987,7.0,16.0,2.0,3.0,-1.0,-4.0,-2.0,0.0
1702323601.1768987,-4.0,11.0,16.0,9.0,7.0,1.0,-6.0,-19.0
1702323601.1971767,0.0,-19.0,-22.0,0.0,0.0,1.0,-2.0,-6.0
1702323601.1971767,-19.0,-16.0,5.0,1.0,1.0,3.0,-1.0,2.0
1702323601.1971767,4.0,1.0,1.0,-6.0,-5.0,-4.0,3.0,3.0
1702323601.1971767,-14.0,-11.0,1.0,0.0,3.0,7.0,3.0,-9.0
1702323601.226909,-3.0,1.0,-5.0,4.0,-3.0,-8.0,-1.0,5.0
1702323601.226909,-6.0,-5.0,7.0,-3.0,-2.0,4.0,3.0,5.0
1702323601.226909,1.0,-2.0,1.0,9.0,2.0,-4.0,-6.0,-4.0
1702323601.226909,0.0,0.0,0.0,-2.0,0.0,4.0,2.0,-1.0
1702323601.237132,20.0,-8.0,-2.0,-2.0,0.0,0.0,-6.0,-2.0
1702323601.237132,15.0,-10.0,-17.0,-5.0,0.0,0.0,5.0,1.0
1702323601.237132,-5.0,8.0,-2.0,0.0,-1.0,-3.0,-2.0,-1.0
1702323601.237132,36.0,-9.0,6.0,1.0,-3.0,-5.0,-2.0,0.0
1702323601.2570977,-11.0,-1.0,2.0,0.0,4.0,5.0,2.0,-1.0
1702323601.2570977,-34.0,-12.0,27.0,14.0,11.0,5.0,-2.0,-8.0
1702323601.2570977,17.0,-7.0,-32.0,-11.0,-8.0,-4.0,2.0,9.0
1702323601.2570977,-61.0,-19.0,-16.0,-18.0,-14.0,-7.0,-2.0,4.0
1702323601.267132,58.0,14.0,9.0,12.0,10.0,7.0,-2.0,-15.0
1702323601.267132,41.0,19.0,-14.0,-3.0,-5.0,-6.0,1.0,8.0
1702323601.2969108,23.0,37.0,37.0,2.0,-3.0,-2.0,-4.0,-4.0
1702323601.2969108,-9.0,-3.0,0.0,-6.0,-5.0,-4.0,0.0,1.0
1702323601.2969108,-102.0,-25.0,-7.0,-6.0,-6.0,-4.0,3.0,3.0
1702323601.2969108,37.0,3.0,-21.0,4.0,2.0,0.0,3.0,0.0
1702323601.2969108,2.0,3.0,-7.0,-7.0,-2.0,3.0,-1.0,-2.0
1702323601.2969108,3.0,-9.0,-5.0,-3.0,-4.0,-4.0,-1.0,5.0
1702323601.3171413,-13.0,-23.0,-21.0,-8.0,-2.0,2.0,13.0,5.0
1702323601.3171413,-16.0,-3.0,24.0,10.0,5.0,-1.0,-12.0,-23.0
1702323601.3171413,-7.0,-7.0,5.0,6.0,7.0,5.0,-7.0,5.0
1702323601.3171413,-1.0,-12.0,-13.0,-13.0,-7.0,-2.0,7.0,0.0
1702323601.33691,47.0,20.0,3.0,9.0,4.0,1.0,-1.0,-4.0
1702323601.33691,-29.0,-26.0,1.0,-8.0,-8.0,-2.0,0.0,18.0
1702323601.33691,37.0,-9.0,-18.0,0.0,3.0,3.0,2.0,-5.0
1702323601.33691,22.0,35.0,27.0,4.0,2.0,-4.0,-9.0,1.0
1702323601.3572104,-28.0,-26.0,-5.0,-4.0,-3.0,1.0,4.0,4.0
1702323601.3572104,24.0,16.0,17.0,-5.0,-10.0,-9.0,-3.0,7.0
1702323601.3572104,-22.0,-8.0,-13.0,0.0,3.0,6.0,2.0,-6.0
1702323601.3572104,23.0,28.0,-10.0,5.0,1.0,-3.0,0.0,-7.0
1702323601.376911,-23.0,-12.0,-20.0,-3.0,0.0,0.0,-7.0,-9.0
1702323601.376911,-27.0,-1.0,-14.0,-5.0,-4.0,-4.0,-4.0,-3.0
1702323601.376911,-7.0,3.0,16.0,1.0,0.0,-1.0,-5.0,-3.0
1702323601.376911,-3.0,3.0,19.0,4.0,0.0,0.0,-4.0,4.0
1702323601.386936,2.0,-5.0,7.0,0.0,-4.0,-5.0,-5.0,-3.0
1702323601.386936,-14.0,8.0,-7.0,-1.0,-2.0,-2.0,-3.0,-2.0
1702323601.397215,-9.0,-11.0,5.0,-1.0,2.0,6.0,5.0,-5.0
1702323601.397215,3.0,3.0,-4.0,-1.0,0.0,2.0,-1.0,-4.0
1702323601.417269,1.0,-7.0,5.0,-3.0,-2.0,-4.0,-3.0,4.0
1702323601.417269,3.0,16.0,3.0,-2.0,-2.0,-1.0,1.0,-3.0
1702323601.417269,-19.0,-24.0,-22.0,-10.0,-7.0,-2.0,5.0,7.0
1702323601.417269,17.0,0.0,3.0,-4.0,-4.0,-2.0,-3.0,6.0
1702323601.4372308,7.0,20.0,2.0,7.0,3.0,1.0,-4.0,-14.0
1702323601.4372308,4.0,4.0,1.0,-5.0,-4.0,-1.0,-1.0,2.0
1702323601.4372308,-10.0,-14.0,-3.0,0.0,-2.0,-2.0,-1.0,-3.0
1702323601.4372308,-8.0,-28.0,-35.0,-4.0,0.0,1.0,-3.0,-1.0
1702323601.4472053,-2.0,6.0,1.0,-9.0,-4.0,-3.0,2.0,4.0
1702323601.4472053,-1.0,-2.0,-1.0,-6.0,0.0,0.0,0.0,-4.0
1702323601.4569113,0.0,8.0,-7.0,5.0,1.0,-5.0,-5.0,1.0
1702323601.4569113,-2.0,3.0,8.0,1.0,-1.0,-1.0,0.0,-6.0
1702323601.4772449,1.0,12.0,-1.0,-6.0,-7.0,-2.0,4.0,8.0
1702323601.4772449,9.0,1.0,2.0,2.0,-2.0,1.0,-2.0,1.0
1702323601.4772449,-7.0,4.0,-24.0,-11.0,-9.0,-3.0,8.0,2.0
1702323601.4772449,9.0,2.0,7.0,-1.0,-2.0,-3.0,-5.0,-4.0
1702323601.5070992,11.0,9.0,4.0,1.0,2.0,-1.0,0.0,2.0
1702323601.5070992,-4.0,-1.0,10.0,4.0,1.0,-1.0,-3.0,-7.0
1702323601.5070992,-14.0,-7.0,1.0,6.0,2.0,-1.0,-4.0,-7.0
1702323601.5070992,-7.0,-12.0,5.0,-8.0,-4.0,-3.0,1.0,3.0
1702323601.5070992,-12.0,-14.0,-11.0,-6.0,-5.0,-2.0,-5.0,-5.0
1702323601.5070992,23.0,-4.0,-14.0,-4.0,-2.0,-1.0,3.0,0.0
1702323601.5171134,-1.0,3.0,15.0,3.0,-2.0,-3.0,-3.0,-2.0
1702323601.5171134,-4.0,9.0,-3.0,0.0,0.0,1.0,0.0,-1.0
1702323601.5369713,19.0,21.0,22.0,6.0,3.0,-1.0,0.0,2.0
1702323601.5369713,-13.0,-28.0,-20.0,-4.0,-2.0,-3.0,-4.0,-1.0
1702323601.5369713,5.0,5.0,9.0,0.0,-1.0,-1.0,-2.0,-4.0
1702323601.5369713,5.0,42.0,32.0,7.0,4.0,3.0,3.0,-2.0
1702323601.5669088,-7.0,-67.0,-55.0,-10.0,-5.0,-1.0,-2.0,0.0
1702323601.5669088,-5.0,21.0,6.0,2.0,3.0,2.0,2.0,3.0
1702323601.5669088,-9.0,-28.0,-7.0,-1.0,0.0,0.0,-2.0,-1.0
1702323601.5669088,-8.0,2.0,4.0,0.0,0.0,-2.0,-3.0,-1.0
1702323601.5669088,3.0,12.0,6.0,2.0,2.0,2.0,-3.0,-2.0
1702323601.5669088,-3.0,1.0,6.0,-3.0,-3.0,-3.0,-3.0,-4.0
1702323601.5772202,-3.0,-10.0,-7.0,-4.0,-3.0,-3.0,-6.0,0.0
1702323601.5772202,1.0,0.0,-3.0,3.0,1.0,0.0,-7.0,-4.0
1702323601.5969133,-1.0,6.0,16.0,0.0,0.0,-1.0,5.0,-1.0
1702323601.5969133,1.0,-11.0,-16.0,-7.0,-4.0,-4.0,-3.0,4.0
1702323601.5969133,-5.0,22.0,21.0,3.0,1.0,1.0,2.0,-5.0
1702323601.5969133,-12.0,-19.0,-25.0,-5.0,-3.0,-3.0,-2.0,-2.0
1702323601.617139,3.0,8.0,13.0,0.0,1.0,-1.0,-2.0,-1.0
1702323601.617139,3.0,17.0,12.0,-1.0,-2.0,0.0,3.0,3.0
1702323601.617139,-16.0,-6.0,-15.0,3.0,2.0,-1.0,-3.0,-11.0
1702323601.617139,-22.0,-25.0,-5.0,-2.0,-1.0,1.0,-2.0,1.0
1702323601.6271236,0.0,7.0,12.0,1.0,0.0,1.0,3.0,-1.0
1702323601.6271236,-10.0,14.0,7.0,1.0,0.0,1.0,-1.0,-4.0
1702323601.637117,11.0,1.0,-1.0,-2.0,-2.0,0.0,1.0,6.0
1702323601.637117,9.0,4.0,1.0,-2.0,-1.0,0.0,1.0,2.0
1702323601.6586003,-4.0,8.0,6.0,-1.0,-1.0,-4.0,-2.0,0.0
1702323601.6586003,0.0,-16.0,-15.0,2.0,3.0,0.0,0.0,-2.0
1702323601.6596518,6.0,12.0,13.0,-4.0,-5.0,-4.0,-5.0,1.0
1702323601.6596518,-7.0,-7.0,-11.0,-3.0,-4.0,-3.0,-2.0,-2.0
1702323601.677093,5.0,2.0,13.0,-2.0,-3.0,-2.0,-1.0,3.0
1702323601.677093,-1.0,9.0,-17.0,-3.0,-2.0,-2.0,-1.0,-2.0
1702323601.677093,7.0,-1.0,-1.0,-1.0,-1.0,1.0,3.0,1.0
1702323601.677093,30.0,7.0,3.0,1.0,-1.0,-1.0,1.0,-1.0
1702323601.6871104,-13.0,-7.0,-2.0,3.0,-1.0,-3.0,-7.0,-7.0
1702323601.6871104,13.0,10.0,3.0,-1.0,-2.0,1.0,0.0,2.0
1702323601.697302,-26.0,-20.0,-5.0,-7.0,-4.0,-2.0,2.0,1.0
1702323601.697302,0.0,4.0,6.0,4.0,2.0,1.0,1.0,-5.0
1702323601.7371142,3.0,-4.0,-1.0,-1.0,-1.0,-1.0,-3.0,0.0
1702323601.7371142,-6.0,1.0,1.0,1.0,-1.0,-2.0,-4.0,-9.0
1702323601.7371142,3.0,0.0,10.0,5.0,1.0,1.0,-3.0,2.0
1702323601.7371142,-4.0,-7.0,-10.0,-4.0,-4.0,-1.0,2.0,2.0
1702323601.7371142,0.0,-13.0,-35.0,-4.0,0.0,0.0,-1.0,-2.0
1702323601.7371142,-14.0,-1.0,12.0,-1.0,-3.0,-1.0,-1.0,-2.0
1702323601.7371142,14.0,9.0,3.0,0.0,-1.0,0.0,1.0,1.0
1702323601.7371142,-13.0,-7.0,8.0,0.0,-1.0,-1.0,-3.0,-2.0
1702323601.7474077,1.0,0.0,-8.0,0.0,0.0,0.0,1.0,-2.0
1702323601.7474077,-4.0,-20.0,2.0,0.0,-2.0,0.0,-1.0,-5.0
1702323601.757417,7.0,15.0,-1.0,0.0,-1.0,0.0,1.0,-2.0
1702323601.757417,-3.0,-9.0,-7.0,-1.0,0.0,0.0,-4.0,-2.0
1702323601.7771115,-1.0,-3.0,-4.0,-4.0,-3.0,0.0,0.0,-4.0
1702323601.7771115,1.0,1.0,5.0,-1.0,0.0,1.0,2.0,4.0
1702323601.7771115,4.0,-2.0,-1.0,-3.0,-1.0,-1.0,0.0,-2.0
1702323601.7771115,2.0,3.0,0.0,2.0,2.0,0.0,-1.0,0.0
1702323601.7974422,8.0,18.0,16.0,-2.0,-5.0,-2.0,1.0,1.0
1702323601.7974422,-18.0,-4.0,-2.0,3.0,3.0,1.0,-4.0,-6.0
1702323601.7974422,1.0,-32.0,-21.0,-4.0,0.0,-3.0,-3.0,-3.0
1702323601.7974422,-8.0,0.0,-1.0,-1.0,0.0,0.0,-2.0,-4.0
1702323601.8074064,3.0,7.0,12.0,2.0,1.0,0.0,1.0,3.0
1702323601.8074064,5.0,-9.0,0.0,1.0,-1.0,-1.0,-3.0,-1.0
1702323601.8271117,-5.0,-9.0,-14.0,-7.0,-5.0,-4.0,4.0,0.0
1702323601.8271117,1.0,-5.0,0.0,-1.0,-1.0,1.0,0.0,-1.0
1702323601.837388,-9.0,-10.0,0.0,-2.0,-1.0,0.0,-1.0,1.0
1702323601.837388,3.0,1.0,-1.0,-1.0,0.0,-1.0,0.0,0.0
1702323601.837388,0.0,21.0,-2.0,1.0,-2.0,-1.0,-10.0,-10.0
1702323601.837388,0.0,-10.0,-7.0,0.0,-1.0,0.0,-1.0,-5.0
1702323601.8576648,4.0,6.0,-9.0,-6.0,-5.0,-2.0,2.0,4.0
1702323601.8576648,-13.0,-5.0,-2.0,0.0,-4.0,-1.0,0.0,-2.0
1702323601.8576648,-5.0,9.0,4.0,2.0,-1.0,0.0,-1.0,-1.0
1702323601.8576648,-8.0,-2.0,12.0,1.0,1.0,1.0,0.0,2.0
1702323601.867674,5.0,-8.0,-21.0,-4.0,-2.0,-1.0,-6.0,0.0
1702323601.867674,4.0,-3.0,-4.0,0.0,1.0,0.0,-1.0,-4.0
1702323601.877339,-3.0,-4.0,8.0,-1.0,-2.0,-3.0,-4.0,-1.0
1702323601.877339,5.0,4.0,-7.0,-2.0,-4.0,-2.0,5.0,-2.0
1702323601.9073522,-6.0,4.0,7.0,1.0,0.0,-3.0,-7.0,-1.0
1702323601.9073522,5.0,13.0,5.0,-4.0,-4.0,-2.0,-3.0,0.0
1702323601.9073522,2.0,3.0,-6.0,-1.0,-1.0,0.0,0.0,2.0
1702323601.9073522,-4.0,-16.0,-10.0,-3.0,-1.0,0.0,-1.0,-1.0
1702323601.9173856,-2.0,-3.0,3.0,1.0,1.0,0.0,1.0,-2.0
1702323601.9173856,1.0,13.0,11.0,0.0,0.0,-3.0,-1.0,-1.0
1702323601.9173856,-5.0,-30.0,-9.0,-2.0,-2.0,-1.0,-1.0,1.0
1702323601.9173856,2.0,13.0,11.0,-2.0,-3.0,-3.0,-1.0,0.0
1702323601.9473505,-4.0,-2.0,-1.0,0.0,-1.0,-1.0,-3.0,-3.0
1702323601.9473505,2.0,-5.0,-16.0,-3.0,-2.0,-2.0,1.0,6.0
1702323601.9473505,-8.0,5.0,1.0,-2.0,1.0,2.0,2.0,-2.0
1702323601.9473505,7.0,8.0,11.0,5.0,0.0,-2.0,-4.0,1.0
1702323601.9573963,-4.0,-23.0,-6.0,-2.0,-2.0,-2.0,-1.0,-3.0
1702323601.9573963,-11.0,-14.0,-18.0,-3.0,-1.0,-1.0,-1.0,-1.0
1702323601.9573963,7.0,19.0,18.0,1.0,1.0,1.0,2.0,0.0
1702323601.9573963,-1.0,-16.0,-22.0,-6.0,-1.0,-1.0,0.0,0.0
1702323601.9776092,1.0,7.0,9.0,-2.0,-2.0,0.0,-1.0,-2.0
1702323601.9776092,4.0,-3.0,0.0,1.0,0.0,0.0,2.0,1.0
1702323601.9776092,-2.0,7.0,2.0,4.0,1.0,1.0,-3.0,-6.0
1702323601.9776092,3.0,-2.0,4.0,3.0,1.0,0.0,-2.0,-1.0
1702323601.997953,2.0,18.0,7.0,1.0,0.0,-1.0,2.0,1.0
1702323601.997953,-1.0,-11.0,-9.0,-6.0,-2.0,-2.0,-2.0,-4.0
1702323601.997953,5.0,7.0,-1.0,-2.0,1.0,-3.0,3.0,4.0
1702323601.997953,-5.0,-4.0,19.0,0.0,-3.0,-2.0,-3.0,-3.0
1702323602.0276167,-1.0,-6.0,-13.0,-4.0,-3.0,-2.0,-1.0,1.0
1702323602.0276167,1.0,1.0,9.0,1.0,0.0,0.0,0.0,-2.0
1702323602.0276167,1.0,7.0,-3.0,-2.0,-2.0,-2.0,-4.0,-1.0
1702323602.0276167,-4.0,1.0,-9.0,0.0,0.0,-1.0,-1.0,-2.0
1702323602.037618,-4.0,-6.0,7.0,1.0,1.0,0.0,0.0,-2.0
1702323602.037618,14.0,5.0,7.0,-1.0,-1.0,-1.0,0.0,2.0
1702323602.037618,4.0,-11.0,-27.0,-4.0,-1.0,-1.0,-1.0,3.0
1702323602.037618,-15.0,-3.0,-6.0,-3.0,-2.0,-1.0,0.0,1.0
1702323602.0576203,-1.0,-4.0,0.0,-1.0,-1.0,-3.0,-1.0,-5.0
1702323602.0576203,12.0,4.0,-3.0,-1.0,-2.0,0.0,-1.0,2.0
1702323602.0576203,-12.0,-7.0,-8.0,-1.0,-1.0,-3.0,0.0,-1.0
1702323602.0576203,5.0,15.0,9.0,1.0,-1.0,-2.0,-1.0,-1.0
1702323602.0776196,-8.0,-14.0,-23.0,-3.0,0.0,-2.0,-3.0,-2.0
1702323602.0776196,-1.0,11.0,1.0,-1.0,-2.0,0.0,-1.0,-3.0
1702323602.0776196,1.0,-11.0,-12.0,-6.0,-3.0,1.0,2.0,0.0
1702323602.0776196,-7.0,-6.0,4.0,3.0,-1.0,0.0,-1.0,-3.0
1702323602.098027,1.0,5.0,5.0,-2.0,-1.0,-2.0,-1.0,0.0
1702323602.098027,-3.0,0.0,-7.0,-3.0,-3.0,-4.0,-1.0,1.0
1702323602.098027,-1.0,-2.0,4.0,-1.0,0.0,1.0,0.0,-2.0
1702323602.098027,1.0,-6.0,-3.0,0.0,0.0,-1.0,-2.0,-1.0
1702323602.1176503,1.0,5.0,10.0,0.0,0.0,0.0,-3.0,0.0
1702323602.1176503,-4.0,-11.0,-11.0,-2.0,-1.0,-3.0,1.0,-5.0
1702323602.1279945,-7.0,0.0,16.0,2.0,0.0,0.0,-2.0,-2.0
1702323602.1279945,6.0,11.0,-22.0,-7.0,-3.0,-1.0,1.0,2.0
1702323602.1376202,-4.0,-4.0,-2.0,3.0,1.0,-2.0,-2.0,-7.0
1702323602.1376202,-7.0,5.0,9.0,0.0,0.0,-3.0,-3.0,-1.0
1702323602.1376202,4.0,6.0,-1.0,0.0,-2.0,-2.0,-1.0,-2.0
1702323602.1376202,-10.0,-16.0,10.0,2.0,0.0,-1.0,0.0,-3.0
1702323602.1579509,-1.0,6.0,-10.0,-6.0,-4.0,-1.0,-2.0,0.0
1702323602.1579509,-4.0,-1.0,3.0,-1.0,2.0,0.0,-1.0,-1.0
1702323602.1579509,3.0,-9.0,15.0,4.0,0.0,-1.0,-3.0,-3.0
1702323602.1579509,6.0,0.0,-17.0,-5.0,-4.0,0.0,-2.0,0.0
1702323602.182614,2.0,11.0,9.0,0.0,-1.0,0.0,0.0,2.0
1702323602.18367,-6.0,-23.0,-8.0,2.0,2.0,1.0,-2.0,-5.0
1702323602.184702,-2.0,7.0,11.0,-4.0,-4.0,-1.0,-3.0,0.0
1702323602.184702,1.0,4.0,1.0,2.0,2.0,0.0,0.0,-1.0
1702323602.197746,-2.0,-8.0,-8.0,-2.0,-3.0,-1.0,-2.0,2.0
1702323602.197746,-1.0,12.0,5.0,2.0,1.0,2.0,2.0,-1.0
1702323602.2047698,-3.0,-13.0,-8.0,-2.0,-1.0,-1.0,-1.0,-5.0
1702323602.2047698,-1.0,12.0,3.0,-2.0,-2.0,-2.0,-1.0,-1.0
1702323602.2247694,3.0,2.0,3.0,1.0,1.0,0.0,-1.0,-1.0
1702323602.2247694,-10.0,-22.0,0.0,-2.0,0.0,0.0,-2.0,-2.0
1702323602.2247694,0.0,-1.0,1.0,-1.0,-2.0,-1.0,-1.0,2.0
1702323602.2247694,0.0,-7.0,-5.0,-2.0,-1.0,-1.0,-1.0,-1.0
1702323602.2348056,3.0,4.0,10.0,3.0,1.0,0.0,2.0,1.0
1702323602.2348056,1.0,0.0,3.0,-2.0,-2.0,-4.0,-3.0,-8.0
1702323602.2447698,-4.0,-6.0,-14.0,-2.0,-1.0,0.0,1.0,2.0
1702323602.2447698,2.0,1.0,9.0,-2.0,-2.0,0.0,-1.0,0.0
1702323602.255031,-4.0,-10.0,-7.0,-3.0,-3.0,-2.0,0.0,-1.0
1702323602.255031,0.0,-6.0,1.0,3.0,1.0,1.0,-3.0,2.0
1702323602.255031,3.0,-7.0,5.0,0.0,-2.0,-2.0,-3.0,-4.0
1702323602.2647748,-5.0,7.0,-8.0,-3.0,-2.0,-1.0,-3.0,-2.0
1702323602.2747684,4.0,8.0,12.0,2.0,0.0,-3.0,-3.0,-1.0
1702323602.2747684,-3.0,-15.0,-17.0,-3.0,-3.0,-2.0,3.0,2.0
1702323602.2747684,-9.0,-17.0,-8.0,-4.0,-1.0,-1.0,0.0,-1.0
1702323602.2747684,5.0,0.0,10.0,3.0,1.0,1.0,1.0,0.0
1702323602.2951648,-10.0,-17.0,-8.0,-2.0,1.0,0.0,-1.0,-3.0
1702323602.2951648,3.0,17.0,8.0,0.0,-1.0,0.0,-1.0,1.0
1702323602.2951648,3.0,-3.0,-16.0,-1.0,-1.0,-2.0,-2.0,0.0
1702323602.2951648,-2.0,4.0,-6.0,-1.0,-2.0,-2.0,-2.0,-2.0
1702323602.3151827,2.0,8.0,23.0,1.0,-1.0,-1.0,-3.0,-2.0
1702323602.3151827,-12.0,-18.0,-14.0,-3.0,-1.0,0.0,2.0,-2.0
1702323602.3151827,4.0,15.0,15.0,-2.0,-1.0,-1.0,0.0,0.0
1702323602.3247757,-7.0,-10.0,-18.0,-1.0,-2.0,0.0,-3.0,-1.0
1702323602.3347685,-1.0,2.0,1.0,2.0,1.0,-1.0,-1.0,-2.0
1702323602.3347685,4.0,12.0,12.0,-1.0,-2.0,-1.0,-2.0,0.0
1702323602.3347685,1.0,12.0,-5.0,-1.0,-1.0,-1.0,-1.0,2.0
1702323602.3347685,-1.0,-29.0,11.0,-1.0,0.0,-1.0,0.0,1.0
1702323602.355028,-2.0,-1.0,-11.0,0.0,-1.0,-1.0,1.0,-1.0
1702323602.355028,-5.0,20.0,3.0,-7.0,-6.0,-3.0,-5.0,-4.0
1702323602.364769,-4.0,5.0,-1.0,-1.0,0.0,-1.0,0.0,-1.0
1702323602.364769,2.0,7.0,10.0,3.0,2.0,0.0,0.0,0.0
1702323602.3750885,-3.0,-4.0,-7.0,-1.0,0.0,0.0,0.0,-1.0
1702323602.3750885,4.0,2.0,-2.0,-2.0,-1.0,-1.0,1.0,2.0
1702323602.3750885,5.0,5.0,10.0,0.0,-1.0,-1.0,-3.0,-3.0
1702323602.3847747,-10.0,8.0,-2.0,2.0,-1.0,-2.0,-2.0,-2.0
1702323602.3947685,-9.0,-9.0,-12.0,-5.0,1.0,1.0,-1.0,-6.0
1702323602.3947685,1.0,1.0,6.0,3.0,1.0,1.0,-2.0,0.0
1702323602.3947685,2.0,-1.0,-1.0,1.0,0.0,-1.0,1.0,0.0
1702323602.3947685,2.0,-9.0,-12.0,-5.0,-1.0,-2.0,0.0,-1.0
1702323602.4150417,2.0,3.0,-15.0,-2.0,-2.0,0.0,0.0,-3.0
1702323602.4150417,0.0,9.0,5.0,1.0,-1.0,-1.0,0.0,-5.0
1702323602.4247735,-6.0,-20.0,-7.0,-2.0,-2.0,0.0,0.0,5.0
1702323602.4247735,3.0,15.0,13.0,2.0,1.0,0.0,-1.0,-1.0
1702323602.4447722,-3.0,-10.0,-17.0,-6.0,-2.0,-3.0,-1.0,3.0
1702323602.4447722,4.0,17.0,2.0,0.0,2.0,0.0,5.0,8.0
1702323602.454812,-4.0,-6.0,6.0,2.0,-2.0,-2.0,-3.0,-7.0
1702323602.454812,0.0,-1.0,-4.0,-2.0,-1.0,-2.0,-1.0,0.0
1702323602.454812,2.0,10.0,14.0,1.0,-2.0,-1.0,-2.0,-2.0
1702323602.454812,2.0,-6.0,-5.0,1.0,0.0,0.0,-1.0,-1.0
1702323602.454812,-2.0,3.0,6.0,0.0,-1.0,-2.0,-1.0,-1.0
1702323602.454812,3.0,12.0,2.0,-1.0,-1.0,-1.0,-3.0,-1.0
1702323602.475336,0.0,-5.0,-13.0,-2.0,-2.0,-1.0,1.0,4.0
1702323602.475336,-3.0,1.0,-1.0,-3.0,-2.0,-1.0,-2.0,-5.0
1702323602.4851494,-4.0,-13.0,-9.0,0.0,0.0,1.0,-2.0,-2.0
1702323602.4851494,-5.0,3.0,1.0,-3.0,-2.0,-1.0,-1.0,-2.0
1702323602.4951627,-3.0,3.0,18.0,2.0,2.0,1.0,-2.0,-1.0
1702323602.4951627,1.0,-6.0,-24.0,-4.0,-2.0,-1.0,-4.0,1.0
1702323602.5051632,1.0,-7.0,3.0,1.0,0.0,0.0,-1.0,-3.0
1702323602.5051632,1.0,-2.0,-6.0,-3.0,-3.0,0.0,2.0,-4.0
1702323602.5151913,1.0,-3.0,11.0,0.0,-2.0,-3.0,-5.0,1.0
1702323602.5151913,-2.0,-14.0,-9.0,-3.0,-1.0,-2.0,-7.0,1.0
1702323602.5151913,4.0,12.0,-2.0,-3.0,-3.0,-3.0,7.0,2.0
1702323602.5151913,0.0,-21.0,7.0,4.0,1.0,-1.0,5.0,7.0
1702323602.535506,-7.0,25.0,6.0,-6.0,-6.0,-3.0,-4.0,-12.0
1702323602.535506,1.0,-12.0,-10.0,0.0,0.0,-1.0,0.0,0.0
1702323602.535506,-9.0,-3.0,-17.0,-4.0,-2.0,0.0,-6.0,-9.0
1702323602.535506,3.0,-7.0,8.0,0.0,-1.0,-1.0,0.0,7.0
1702323602.565158,1.0,14.0,1.0,-4.0,-5.0,-1.0,12.0,-1.0
1702323602.565158,-3.0,-8.0,4.0,1.0,1.0,-3.0,-11.0,-1.0
1702323602.565158,0.0,6.0,0.0,0.0,2.0,0.0,0.0,1.0
1702323602.565158,0.0,7.0,4.0,-1.0,0.0,1.0,-2.0,-2.0
1702323602.5753598,0.0,-13.0,-12.0,-1.0,-1.0,-1.0,0.0,-4.0
1702323602.5753598,-2.0,5.0,17.0,0.0,-3.0,-2.0,1.0,8.0
1702323602.5753598,-1.0,5.0,0.0,1.0,-1.0,2.0,-4.0,-9.0
1702323602.5753598,-8.0,-19.0,9.0,-1.0,0.0,-2.0,-6.0,-9.0
1702323602.596061,0.0,-9.0,-32.0,-5.0,-2.0,1.0,1.0,2.0
1702323602.596061,0.0,0.0,2.0,-1.0,-2.0,0.0,10.0,5.0
1702323602.596061,-2.0,-1.0,17.0,3.0,2.0,-5.0,-4.0,5.0
1702323602.596061,-2.0,-7.0,-29.0,-8.0,-4.0,-3.0,-1.0,0.0
1702323602.6259704,1.0,1.0,22.0,3.0,0.0,1.0,3.0,5.0
1702323602.6359682,-2.0,7.0,10.0,-1.0,-5.0,-7.0,-9.0,-18.0
1702323602.6359682,-3.0,-1.0,-7.0,-3.0,0.0,1.0,15.0,10.0
1702323602.6359682,-3.0,-7.0,-15.0,-4.0,-2.0,6.0,-28.0,-22.0
1702323602.6359682,5.0,0.0,-6.0,6.0,6.0,9.0,9.0,8.0
1702323602.6359682,3.0,2.0,3.0,1.0,2.0,1.0,15.0,26.0
1702323602.646003,-1.0,0.0,-7.0,5.0,4.0,-11.0,-5.0,-7.0
1702323602.646003,2.0,12.0,-1.0,-6.0,-5.0,-7.0,4.0,12.0
1702323602.6562023,-8.0,-11.0,-3.0,-7.0,-8.0,-4.0,-4.0,-5.0
1702323602.6562023,3.0,12.0,15.0,11.0,3.0,3.0,4.0,-5.0
1702323602.6562023,-7.0,-18.0,-15.0,-11.0,-6.0,-2.0,3.0,-10.0
1702323602.6562023,0.0,0.0,-4.0,4.0,8.0,5.0,6.0,11.0
1702323602.6760066,-5.0,4.0,-33.0,-16.0,-6.0,-4.0,-21.0,7.0
1702323602.6760066,-8.0,10.0,37.0,-11.0,-20.0,-6.0,12.0,3.0
1702323602.6859665,4.0,-12.0,-1.0,3.0,2.0,-19.0,-38.0,-27.0
1702323602.6859665,15.0,34.0,40.0,18.0,8.0,28.0,39.0,26.0
1702323602.6961825,-1.0,-7.0,-20.0,-1.0,6.0,-22.0,-39.0,15.0
1702323602.6961825,0.0,11.0,16.0,9.0,4.0,22.0,9.0,-26.0
1702323602.706853,1.0,-8.0,6.0,10.0,2.0,4.0,6.0,-12.0
1702323602.706853,-7.0,-36.0,-83.0,-25.0,-18.0,-8.0,-4.0,33.0
1702323602.7302585,2.0,-32.0,-88.0,-2.0,6.0,-6.0,8.0,-13.0
1702323602.7302585,-1.0,30.0,84.0,-4.0,-1.0,-3.0,-5.0,10.0
1702323602.7302585,-4.0,8.0,-39.0,-9.0,1.0,-13.0,-4.0,-25.0
1702323602.7302585,5.0,-11.0,-30.0,-5.0,-5.0,18.0,1.0,-65.0
1702323602.7373877,11.0,51.0,110.0,18.0,0.0,9.0,18.0,11.0
1702323602.7373877,-14.0,-43.0,-27.0,0.0,7.0,-1.0,-7.0,7.0
1702323602.7373877,0.0,27.0,9.0,-7.0,0.0,13.0,12.0,18.0
1702323602.7373877,-12.0,0.0,-20.0,6.0,-6.0,-18.0,-17.0,-4.0
1702323602.7573876,5.0,11.0,16.0,1.0,4.0,29.0,1.0,-19.0
1702323602.7573876,9.0,15.0,0.0,9.0,-2.0,-33.0,-22.0,26.0
1702323602.7673874,4.0,-30.0,-17.0,-17.0,0.0,-5.0,-3.0,30.0
1702323602.7673874,6.0,27.0,-11.0,-1.0,2.0,-25.0,-35.0,-39.0
1702323602.7773821,-20.0,-17.0,-36.0,-14.0,-9.0,11.0,11.0,-27.0
1702323602.7773821,0.0,-4.0,-19.0,13.0,10.0,23.0,23.0,8.0
1702323602.7773821,2.0,-36.0,-99.0,-16.0,-9.0,-1.0,-20.0,3.0
1702323602.7773821,-5.0,-8.0,86.0,2.0,-4.0,-1.0,24.0,27.0
1702323602.7873824,33.0,21.0,89.0,0.0,-9.0,-8.0,9.0,-12.0
1702323602.7973883,-49.0,-28.0,-47.0,-20.0,-6.0,-16.0,-41.0,-16.0
1702323602.7973883,19.0,14.0,-62.0,17.0,8.0,13.0,66.0,19.0
1702323602.7973883,6.0,29.0,118.0,23.0,13.0,12.0,22.0,-25.0
1702323602.8171134,-5.0,-47.0,-113.0,-9.0,1.0,-23.0,-19.0,6.0
1702323602.8171134,-8.0,0.0,-17.0,-7.0,-13.0,17.0,5.0,-21.0
1702323602.8267713,-14.0,40.0,126.0,2.0,-11.0,-10.0,-7.0,-6.0
1702323602.8267713,24.0,4.0,-39.0,-2.0,4.0,-1.0,-13.0,1.0
1702323602.8467305,-23.0,-19.0,22.0,10.0,9.0,8.0,17.0,43.0
1702323602.8467305,29.0,5.0,-18.0,-3.0,4.0,1.0,14.0,-33.0
1702323602.8467305,-38.0,-6.0,-30.0,-7.0,-10.0,-3.0,-14.0,-6.0
1702323602.8467305,-24.0,-10.0,6.0,-1.0,0.0,-4.0,12.0,30.0
1702323602.8569684,19.0,16.0,11.0,-1.0,-3.0,-12.0,-13.0,-25.0
1702323602.8569684,8.0,3.0,3.0,0.0,8.0,3.0,-3.0,1.0
1702323602.866737,-16.0,-9.0,43.0,3.0,-4.0,6.0,-11.0,-6.0
1702323602.866737,7.0,-13.0,-25.0,-12.0,-7.0,-6.0,22.0,27.0
1702323602.877026,-7.0,-1.0,-3.0,2.0,-3.0,9.0,55.0,4.0
1702323602.877026,-15.0,-15.0,6.0,-12.0,0.0,-4.0,-4.0,11.0
1702323602.8867924,18.0,2.0,28.0,22.0,10.0,10.0,0.0,-4.0
1702323602.8867924,35.0,8.0,-46.0,-17.0,9.0,-1.0,-31.0,-7.0
1702323602.9167297,-41.0,-6.0,30.0,3.0,-13.0,-5.0,-103.0,-27.0
1702323602.9167297,-17.0,-42.0,-20.0,39.0,4.0,-14.0,-39.0,-16.0
1702323602.9167297,-20.0,7.0,8.0,-4.0,1.0,-10.0,-39.0,-3.0
1702323602.9167297,9.0,-11.0,-3.0,1.0,-1.0,5.0,72.0,24.0
1702323602.9167297,54.0,14.0,28.0,4.0,16.0,16.0,121.0,22.0
1702323602.9167297,-33.0,-10.0,-24.0,-36.0,-17.0,26.0,18.0,9.0
1702323602.9267333,13.0,14.0,-9.0,20.0,-3.0,-11.0,-26.0,0.0
1702323602.9267333,-30.0,-15.0,-5.0,-13.0,-25.0,-49.0,-128.0,-69.0
1702323602.9369118,20.0,10.0,-6.0,-18.0,-25.0,-46.0,-106.0,-34.0
1702323602.9369118,9.0,0.0,-15.0,-5.0,-2.0,2.0,66.0,4.0
1702323602.9567297,5.0,13.0,17.0,-10.0,4.0,32.0,101.0,42.0
1702323602.9567297,-11.0,-30.0,2.0,-13.0,3.0,30.0,96.0,28.0
1702323602.9567297,4.0,-25.0,-4.0,10.0,15.0,17.0,86.0,13.0
1702323602.9567297,-20.0,20.0,-2.0,4.0,1.0,-11.0,-83.0,-17.0
1702323602.9567297,29.0,11.0,4.0,1.0,10.0,-12.0,-21.0,-2.0
1702323602.9567297,-19.0,5.0,16.0,5.0,-3.0,-7.0,3.0,4.0
1702323602.9767356,-17.0,-10.0,-13.0,-5.0,-10.0,0.0,-23.0,3.0
1702323602.9867392,39.0,0.0,-6.0,0.0,-1.0,-12.0,2.0,5.0
1702323602.9867392,5.0,17.0,8.0,-32.0,-5.0,5.0,3.0,-6.0
1702323602.9867392,-14.0,-12.0,-16.0,12.0,-2.0,1.0,-24.0,-3.0
1702323602.9970217,-7.0,11.0,3.0,-14.0,-2.0,-7.0,1.0,1.0
1702323602.9970217,24.0,-18.0,4.0,30.0,25.0,17.0,17.0,11.0
1702323603.0167334,-17.0,-15.0,-10.0,-2.0,-19.0,-28.0,-39.0,-21.0
1702323603.0167334,12.0,45.0,8.0,0.0,5.0,7.0,10.0,-1.0
1702323603.0267308,6.0,43.0,42.0,6.0,0.0,5.0,-12.0,4.0
1702323603.0267308,8.0,7.0,-47.0,2.0,-3.0,-9.0,9.0,1.0
1702323603.0267308,-6.0,-17.0,15.0,-7.0,-6.0,3.0,-2.0,-2.0
1702323603.0267308,-10.0,-54.0,-28.0,-26.0,-15.0,-5.0,-9.0,0.0
1702323603.036813,-21.0,52.0,5.0,6.0,7.0,5.0,-11.0,-16.0
1702323603.036813,-3.0,-16.0,-15.0,-6.0,-8.0,-21.0,-13.0,-11.0
1702323603.0467436,-18.0,-76.0,-30.0,-2.0,0.0,-4.0,13.0,0.0
1702323603.0467436,5.0,66.0,-8.0,17.0,10.0,0.0,0.0,3.0
1702323603.056731,9.0,77.0,74.0,-1.0,0.0,-3.0,-9.0,9.0
1702323603.056731,14.0,27.0,-11.0,7.0,5.0,8.0,12.0,0.0
1702323603.0671175,-1.0,51.0,-41.0,-17.0,-11.0,0.0,-3.0,-1.0
1702323603.0671175,-3.0,-33.0,18.0,-7.0,6.0,-1.0,9.0,17.0
1702323603.0771246,-16.0,-58.0,-10.0,10.0,8.0,7.0,-4.0,-11.0
1702323603.0771246,5.0,8.0,64.0,-2.0,1.0,13.0,9.0,7.0
1702323603.0771246,5.0,51.0,103.0,14.0,-1.0,-10.0,-5.0,-8.0
1702323603.0771246,4.0,-56.0,-79.0,-6.0,4.0,2.0,-2.0,-10.0
1702323603.097145,-12.0,-15.0,-2.0,-9.0,-10.0,-1.0,6.0,23.0
1702323603.097145,-5.0,-35.0,1.0,-3.0,-2.0,-6.0,-2.0,-20.0
1702323603.1066587,14.0,-19.0,29.0,12.0,6.0,8.0,5.0,30.0
1702323603.1066587,-6.0,87.0,56.0,1.0,-10.0,-5.0,-16.0,-19.0
1702323603.1166704,12.0,-25.0,-121.0,8.0,5.0,0.0,-3.0,-7.0
1702323603.1166704,-20.0,-37.0,-25.0,-11.0,0.0,-12.0,-9.0,-14.0
1702323603.1269999,14.0,25.0,66.0,17.0,13.0,10.0,0.0,-7.0
1702323603.1269999,-13.0,-55.0,-73.0,-17.0,-9.0,-13.0,-6.0,0.0
1702323603.1366787,0.0,-3.0,45.0,-1.0,-6.0,4.0,-5.0,-9.0
1702323603.1366787,10.0,41.0,33.0,6.0,2.0,-8.0,23.0,19.0
1702323603.1366787,6.0,18.0,-7.0,19.0,9.0,11.0,9.0,-5.0
1702323603.1366787,-15.0,-36.0,-24.0,-11.0,-2.0,9.0,-10.0,12.0
1702323603.166678,-10.0,-36.0,-84.0,-8.0,-10.0,-12.0,-17.0,-41.0
1702323603.166678,2.0,7.0,43.0,-13.0,-9.0,-4.0,-6.0,-10.0
1702323603.166678,-15.0,-12.0,33.0,-30.0,-10.0,-19.0,-13.0,-39.0
1702323603.166678,13.0,9.0,-42.0,33.0,18.0,25.0,20.0,5.0
1702323603.1766696,-6.0,-8.0,79.0,-2.0,2.0,0.0,31.0,38.0
1702323603.1766696,22.0,36.0,-48.0,26.0,16.0,12.0,-5.0,16.0
1702323603.1866775,-7.0,-12.0,34.0,-8.0,-13.0,-2.0,9.0,2.0
1702323603.1866775,-2.0,15.0,62.0,-11.0,-17.0,-21.0,-27.0,-27.0
1702323603.196898,6.0,-11.0,-73.0,-31.0,-1.0,1.0,3.0,12.0
1702323603.196898,-25.0,2.0,54.0,-10.0,-12.0,-9.0,-4.0,-22.0
1702323603.196898,5.0,-1.0,-92.0,5.0,2.0,-12.0,-21.0,3.0
1702323603.196898,1.0,-18.0,30.0,-5.0,-1.0,13.0,12.0,12.0
1702323603.217021,-17.0,-29.0,-77.0,10.0,7.0,10.0,21.0,46.0
1702323603.217021,29.0,17.0,112.0,-9.0,-12.0,-4.0,-6.0,18.0
1702323603.2266705,0.0,-49.0,-128.0,-28.0,-8.0,-2.0,-18.0,-35.0
1702323603.2266705,-13.0,24.0,59.0,12.0,3.0,-9.0,-5.0,-7.0
1702323603.2400248,-32.0,20.0,94.0,17.0,2.0,-23.0,-26.0,-39.0
1702323603.2400248,-44.0,-36.0,-5.0,-11.0,-4.0,3.0,-13.0,-16.0
1702323603.2483304,10.0,-5.0,-1.0,-2.0,-3.0,6.0,15.0,42.0
1702323603.2483304,30.0,26.0,60.0,4.0,-1.0,-6.0,-14.0,-31.0
1702323603.2631528,10.0,-14.0,19.0,-11.0,-2.0,0.0,-2.0,17.0
1702323603.2641747,4.0,-4.0,-39.0,-2.0,1.0,-7.0,24.0,22.0
1702323603.26517,9.0,-1.0,-55.0,14.0,9.0,3.0,-5.0,-5.0
1702323603.26517,2.0,1.0,53.0,9.0,5.0,-1.0,17.0,4.0
1702323603.3004103,-36.0,-3.0,-52.0,-12.0,-11.0,-8.0,-19.0,-7.0
1702323603.3004103,28.0,36.0,108.0,8.0,-8.0,-13.0,-4.0,12.0
1702323603.3004103,-24.0,-2.0,10.0,-4.0,0.0,22.0,13.0,1.0
1702323603.3004103,17.0,-13.0,-30.0,1.0,0.0,-3.0,-6.0,7.0
1702323603.3004103,8.0,13.0,94.0,18.0,7.0,7.0,-12.0,-10.0
1702323603.3004103,-34.0,1.0,-49.0,-11.0,-6.0,-7.0,-16.0,-6.0
1702323603.3069427,-15.0,-42.0,-83.0,-3.0,1.0,6.0,23.0,5.0
1702323603.3069427,-24.0,18.0,17.0,2.0,0.0,-6.0,7.0,-1.0
1702323603.317373,68.0,42.0,25.0,2.0,-2.0,1.0,9.0,55.0
1702323603.317373,43.0,-32.0,-44.0,-13.0,-4.0,3.0,5.0,-24.0
1702323603.317373,-61.0,-14.0,89.0,12.0,2.0,-6.0,6.0,10.0
1702323603.317373,8.0,-11.0,-58.0,-16.0,3.0,4.0,-14.0,5.0
1702323603.337386,-85.0,14.0,-3.0,1.0,-8.0,-9.0,-12.0,-47.0
1702323603.337386,47.0,-33.0,-69.0,-10.0,-12.0,-2.0,19.0,10.0
1702323603.337386,12.0,38.0,71.0,21.0,8.0,7.0,54.0,20.0
1702323603.337386,-5.0,-11.0,-20.0,-4.0,3.0,-8.0,-72.0,1.0
1702323603.3576517,2.0,-11.0,-19.0,-4.0,-5.0,-11.0,-29.0,-11.0
1702323603.3576517,10.0,69.0,17.0,18.0,13.0,6.0,-24.0,-6.0
1702323603.3673942,30.0,-50.0,2.0,-9.0,0.0,0.0,33.0,-17.0
1702323603.3673942,-48.0,-65.0,-8.0,-5.0,-9.0,-3.0,-18.0,18.0
1702323603.3776882,31.0,-29.0,-20.0,-8.0,-6.0,10.0,54.0,-33.0
1702323603.3776882,-30.0,7.0,-26.0,-8.0,-6.0,11.0,-25.0,3.0
1702323603.3776882,29.0,35.0,28.0,1.0,0.0,-12.0,-37.0,2.0
1702323603.3776882,6.0,37.0,-5.0,-4.0,3.0,-7.0,21.0,9.0
1702323603.4177485,8.0,-4.0,4.0,7.0,-2.0,6.0,9.0,7.0
1702323603.4177485,-20.0,-58.0,-17.0,0.0,8.0,8.0,5.0,-2.0
1702323603.4177485,-3.0,5.0,5.0,-16.0,-5.0,-18.0,-3.0,-1.0
1702323603.4177485,-8.0,12.0,12.0,15.0,-7.0,-7.0,-1.0,-12.0
1702323603.4177485,29.0,54.0,7.0,9.0,2.0,-1.0,-17.0,-10.0
1702323603.4177485,-8.0,-17.0,-9.0,-1.0,-1.0,11.0,34.0,3.0
1702323603.4277074,-12.0,-48.0,2.0,-2.0,1.0,-1.0,-59.0,-1.0
1702323603.4277074,9.0,-6.0,1.0,10.0,5.0,1.0,28.0,3.0
1702323603.4379675,-30.0,-11.0,-8.0,-8.0,-5.0,31.0,29.0,-2.0
1702323603.4379675,16.0,52.0,11.0,-1.0,1.0,-18.0,-13.0,-22.0
1702323603.4379675,-31.0,-79.0,-28.0,-14.0,-9.0,-6.0,-28.0,24.0
1702323603.4379675,30.0,47.0,-2.0,-2.0,-5.0,-12.0,10.0,-18.0
1702323603.4577062,4.0,-16.0,-8.0,-8.0,6.0,-1.0,0.0,12.0
1702323603.4577062,-3.0,-29.0,17.0,6.0,1.0,1.0,-14.0,-2.0
1702323603.4577062,16.0,89.0,52.0,17.0,7.0,32.0,11.0,-5.0
1702323603.4577062,-11.0,-75.0,-66.0,-19.0,-5.0,-8.0,13.0,-9.0
1702323603.478116,-1.0,-29.0,4.0,11.0,5.0,-14.0,-30.0,-1.0
1702323603.478116,-24.0,5.0,-17.0,-22.0,-10.0,-8.0,1.0,-10.0
1702323603.4877067,20.0,44.0,32.0,5.0,5.0,-1.0,-2.0,0.0
1702323603.4877067,1.0,105.0,58.0,25.0,9.0,17.0,17.0,17.0
1702323603.4977076,-12.0,-108.0,-42.0,-22.0,1.0,7.0,-6.0,-8.0
1702323603.4977076,3.0,72.0,5.0,11.0,6.0,-6.0,9.0,14.0
1702323603.4977076,-3.0,-71.0,-12.0,-12.0,-9.0,-14.0,-2.0,-11.0
1702323603.4977076,-13.0,-10.0,-13.0,2.0,-5.0,5.0,-1.0,-6.0
1702323603.5177052,-2.0,4.0,42.0,2.0,-2.0,-9.0,-1.0,-2.0
1702323603.5177052,4.0,42.0,-36.0,2.0,1.0,0.0,10.0,24.0
1702323603.5277104,-14.0,-23.0,-63.0,-19.0,-16.0,-8.0,-11.0,-22.0
1702323603.5277104,-5.0,-20.0,68.0,-2.0,4.0,11.0,2.0,-8.0
1702323603.5379527,23.0,107.0,-18.0,-4.0,-10.0,-8.0,-2.0,6.0
1702323603.5379527,-20.0,-111.0,-8.0,-2.0,11.0,23.0,24.0,5.0
1702323603.5477097,-10.0,37.0,-13.0,1.0,-7.0,-15.0,-12.0,-9.0
1702323603.5477097,28.0,85.0,79.0,22.0,3.0,2.0,10.0,1.0
1702323603.5777082,-17.0,-89.0,-7.0,-6.0,-3.0,-6.0,-5.0,-5.0
1702323603.5777082,-5.0,5.0,-8.0,-16.0,-1.0,-7.0,-9.0,5.0
1702323603.5777082,2.0,-17.0,-35.0,10.0,11.0,14.0,3.0,14.0
1702323603.5777082,4.0,19.0,30.0,-5.0,-5.0,-7.0,-2.0,-17.0
1702323603.5777082,6.0,35.0,-11.0,7.0,4.0,-1.0,-2.0,18.0
1702323603.5777082,-22.0,-92.0,-6.0,-8.0,-2.0,-5.0,-6.0,-20.0
1702323603.5777082,12.0,6.0,59.0,17.0,6.0,3.0,14.0,6.0
1702323603.5777082,7.0,-26.0,-22.0,-12.0,-3.0,2.0,6.0,17.0
1702323603.598014,-2.0,20.0,28.0,5.0,0.0,-4.0,-8.0,-8.0
1702323603.598014,10.0,38.0,0.0,-3.0,-10.0,-10.0,10.0,-1.0
1702323603.6077116,-23.0,-49.0,-53.0,-25.0,-9.0,-3.0,-10.0,-27.0
1702323603.6077116,-9.0,-80.0,-117.0,-13.0,-1.0,-5.0,-17.0,-7.0
1702323603.6177092,2.0,41.0,90.0,19.0,4.0,-7.0,17.0,15.0
1702323603.6177092,-7.0,-51.0,-76.0,-11.0,-4.0,-6.0,-6.0,-2.0
1702323603.6277065,12.0,26.0,20.0,-3.0,-1.0,-3.0,-5.0,11.0
1702323603.6277065,-10.0,5.0,-93.0,-15.0,-7.0,8.0,3.0,-23.0
1702323603.6377385,18.0,28.0,69.0,16.0,7.0,-1.0,-5.0,46.0
1702323603.6377385,-12.0,-24.0,-85.0,-6.0,-6.0,-8.0,-11.0,14.0
1702323603.6477118,16.0,43.0,6.0,18.0,10.0,5.0,24.0,-16.0
1702323603.6477118,-10.0,-48.0,-22.0,-15.0,-2.0,2.0,-2.0,6.0
1702323603.6579797,8.0,44.0,-17.0,6.0,3.0,-1.0,-6.0,-23.0
1702323603.6579797,6.0,41.0,127.0,17.0,-7.0,-25.0,-14.0,-9.0
1702323603.6677105,8.0,7.0,-84.0,4.0,4.0,17.0,1.0,11.0
1702323603.6677105,6.0,7.0,69.0,-2.0,-8.0,-4.0,-6.0,-13.0
1702323603.6977067,9.0,-20.0,-38.0,-12.0,-6.0,-11.0,-19.0,-4.0
1702323603.6977067,-36.0,9.0,-5.0,4.0,5.0,18.0,11.0,-23.0
1702323603.6977067,-36.0,1.0,48.0,2.0,-2.0,-11.0,-1.0,-13.0
1702323603.6977067,-4.0,-7.0,-105.0,-7.0,4.0,-3.0,11.0,17.0
1702323603.6977067,11.0,-11.0,107.0,-3.0,-6.0,3.0,19.0,5.0
1702323603.6977067,43.0,-14.0,-106.0,-18.0,-3.0,-12.0,-36.0,18.0
1702323603.6977067,-25.0,21.0,-22.0,-5.0,-4.0,8.0,12.0,-16.0
1702323603.6977067,-24.0,19.0,76.0,8.0,-1.0,-4.0,-9.0,-1.0
1702323603.7180388,-22.0,-9.0,33.0,-18.0,-13.0,-21.0,-22.0,-18.0
1702323603.7180388,7.0,12.0,14.0,8.0,11.0,28.0,16.0,-10.0
1702323603.7277086,38.0,23.0,35.0,-1.0,-7.0,-15.0,-18.0,1.0
1702323603.7277086,-8.0,-8.0,-38.0,10.0,12.0,9.0,6.0,14.0
1702323603.737733,28.0,2.0,-59.0,13.0,-10.0,-6.0,-5.0,-20.0
1702323603.737733,-13.0,-1.0,-55.0,-9.0,-4.0,-7.0,-9.0,0.0
1702323603.747967,15.0,0.0,41.0,-4.0,-3.0,-5.0,9.0,-1.0
1702323603.747967,-74.0,-17.0,33.0,7.0,-2.0,-10.0,-16.0,-8.0
1702323603.7579768,-24.0,-32.0,-31.0,-8.0,-4.0,-37.0,-42.0,-4.0
1702323603.7579768,11.0,22.0,63.0,-5.0,-5.0,-3.0,39.0,8.0
1702323603.7677124,21.0,7.0,6.0,11.0,14.0,65.0,16.0,-13.0
1702323603.7677124,32.0,-12.0,-10.0,-10.0,-4.0,1.0,5.0,1.0
1702323603.8047054,-17.0,-29.0,-79.0,0.0,4.0,20.0,1.0,-8.0
1702323603.8047054,13.0,30.0,127.0,3.0,-14.0,-39.0,-46.0,-43.0
1702323603.8047054,9.0,-21.0,-92.0,-21.0,-5.0,-17.0,1.0,47.0
1702323603.8047054,11.0,22.0,55.0,16.0,12.0,5.0,6.0,-6.0
1702323603.8047054,9.0,-6.0,-17.0,-3.0,2.0,1.0,4.0,16.0
1702323603.8047054,16.0,5.0,-7.0,0.0,-2.0,4.0,-6.0,16.0
1702323603.807985,-45.0,-29.0,24.0,-7.0,-8.0,-14.0,0.0,2.0
1702323603.807985,-23.0,0.0,5.0,-14.0,-11.0,-4.0,7.0,-7.0
1702323603.8183463,7.0,-10.0,-65.0,-2.0,8.0,7.0,-20.0,1.0
1702323603.8183463,-12.0,-13.0,-1.0,-1.0,-2.0,6.0,-10.0,-1.0
1702323603.8183463,12.0,13.0,29.0,2.0,-3.0,-2.0,5.0,22.0
1702323603.8183463,43.0,18.0,-19.0,-12.0,-1.0,-10.0,9.0,-2.0
1702323603.8481276,-31.0,-11.0,29.0,36.0,17.0,19.0,16.0,-15.0
1702323603.8481276,0.0,14.0,39.0,8.0,-1.0,9.0,34.0,22.0
1702323603.8481276,-37.0,4.0,-17.0,-4.0,-2.0,-10.0,-53.0,-23.0
1702323603.8481276,46.0,-12.0,-8.0,2.0,-2.0,-11.0,-18.0,-20.0
1702323603.8581607,-12.0,0.0,-15.0,-25.0,-8.0,-4.0,-8.0,-5.0
1702323603.8581607,-26.0,19.0,7.0,15.0,8.0,20.0,57.0,9.0
1702323603.878127,4.0,10.0,11.0,3.0,-2.0,1.0,-11.0,-14.0
1702323603.878127,-13.0,34.0,6.0,-8.0,-13.0,-23.0,-37.0,-2.0
1702323603.878127,23.0,-21.0,-37.0,-13.0,-4.0,9.0,57.0,39.0
1702323603.878127,-44.0,-21.0,-12.0,-8.0,-6.0,10.0,-6.0,-24.0
1702323603.878127,-5.0,-13.0,17.0,1.0,3.0,-25.0,-66.0,-12.0
1702323603.878127,2.0,7.0,-3.0,10.0,3.0,3.0,17.0,17.0
1702323603.9081275,15.0,1.0,11.0,-9.0,-6.0,5.0,39.0,-3.0
1702323603.9081275,3.0,4.0,-13.0,-2.0,9.0,11.0,19.0,18.0
1702323603.9081275,11.0,5.0,13.0,-2.0,0.0,-8.0,-1.0,-18.0
1702323603.9081275,-3.0,-35.0,7.0,4.0,2.0,19.0,-55.0,12.0
1702323603.918163,-36.0,-53.0,-19.0,0.0,-6.0,-13.0,10.0,-15.0
1702323603.918163,2.0,26.0,-1.0,-6.0,-9.0,-16.0,-25.0,-1.0
1702323603.928486,-3.0,-28.0,2.0,-1.0,-5.0,-2.0,5.0,-2.0
1702323603.928486,4.0,-13.0,-2.0,1.0,-2.0,1.0,30.0,9.0
1702323603.938405,3.0,20.0,0.0,-4.0,10.0,33.0,13.0,7.0
1702323603.938405,10.0,-13.0,-10.0,1.0,-1.0,-1.0,-31.0,-15.0
1702323603.938405,4.0,17.0,10.0,-3.0,-13.0,-28.0,-23.0,3.0
1702323603.938405,-15.0,9.0,-4.0,-9.0,-7.0,-11.0,-1.0,-16.0
1702323603.9681525,13.0,1.0,-1.0,3.0,7.0,14.0,12.0,18.0
1702323603.9681525,12.0,-1.0,-2.0,-1.0,0.0,-7.0,-24.0,-12.0
1702323603.9681525,14.0,13.0,0.0,10.0,7.0,3.0,32.0,16.0
1702323603.9681525,-13.0,-10.0,0.0,5.0,5.0,14.0,14.0,8.0
1702323603.9783883,-12.0,6.0,-4.0,-1.0,-4.0,-7.0,-32.0,-22.0
1702323603.9783883,8.0,0.0,-6.0,-1.0,-2.0,-3.0,-10.0,-6.0
1702323603.98834,11.0,-5.0,5.0,-5.0,1.0,15.0,87.0,19.0
1702323603.98834,-26.0,17.0,-3.0,-5.0,-9.0,-9.0,-34.0,-10.0
1702323603.9983797,3.0,-4.0,-6.0,-13.0,-9.0,-21.0,-46.0,-13.0
1702323603.9983797,21.0,5.0,-4.0,9.0,8.0,8.0,25.0,31.0
1702323603.9983797,-12.0,-2.0,10.0,5.0,-3.0,4.0,5.0,24.0
1702323603.9983797,8.0,5.0,3.0,7.0,6.0,1.0,18.0,-16.0
1702323604.0281277,1.0,47.0,11.0,-1.0,3.0,2.0,11.0,10.0
1702323604.0281277,-4.0,-5.0,-23.0,-14.0,-8.0,-8.0,-22.0,-3.0
1702323604.0281277,10.0,-39.0,10.0,15.0,7.0,7.0,29.0,8.0
1702323604.0281277,-2.0,4.0,15.0,-3.0,0.0,-1.0,-7.0,-7.0
1702323604.0381522,5.0,22.0,7.0,8.0,-1.0,-5.0,-12.0,-16.0
1702323604.0381522,2.0,18.0,-1.0,12.0,7.0,18.0,13.0,3.0
1702323604.048388,-12.0,10.0,3.0,-15.0,-14.0,-20.0,-25.0,-9.0
1702323604.048388,16.0,91.0,23.0,-10.0,-2.0,-7.0,1.0,5.0
1702323604.0583093,-9.0,-18.0,7.0,-10.0,-2.0,-6.0,-4.0,-24.0
1702323604.0583093,-9.0,-13.0,28.0,16.0,2.0,9.0,2.0,3.0
1702323604.088126,-19.0,-64.0,-103.0,-19.0,-12.0,-19.0,-17.0,-23.0
1702323604.088126,-6.0,10.0,24.0,-18.0,-11.0,-6.0,3.0,1.0
1702323604.088126,14.0,70.0,22.0,11.0,6.0,3.0,7.0,21.0
1702323604.088126,-14.0,-43.0,20.0,-8.0,-1.0,-4.0,-8.0,-16.0
1702323604.088126,4.0,75.0,90.0,14.0,1.0,-9.0,-11.0,-53.0
1702323604.088126,4.0,-46.0,-107.0,-11.0,0.0,-1.0,16.0,32.0
1702323604.0982847,-13.0,-100.0,16.0,4.0,6.0,18.0,2.0,-9.0
1702323604.0982847,-2.0,5.0,-5.0,-6.0,-4.0,8.0,-4.0,33.0
1702323604.1084628,-4.0,74.0,39.0,5.0,-3.0,-16.0,4.0,-17.0
1702323604.1084628,-27.0,-63.0,-84.0,-32.0,-14.0,-16.0,-8.0,-13.0
1702323604.1181293,-1.0,-17.0,6.0,10.0,-4.0,-7.0,-9.0,0.0
1702323604.1181293,23.0,95.0,87.0,3.0,-2.0,-1.0,10.0,7.0
1702323604.1181293,-17.0,-78.0,-70.0,-21.0,-4.0,3.0,-17.0,-5.0
1702323604.1181293,8.0,3.0,-1.0,14.0,4.0,4.0,4.0,-1.0
1702323604.148152,15.0,80.0,59.0,11.0,8.0,0.0,-1.0,7.0
1702323604.148152,-23.0,-111.0,-49.0,-10.0,-2.0,-11.0,-3.0,-13.0
1702323604.148152,11.0,70.0,48.0,8.0,-1.0,9.0,-4.0,-1.0
1702323604.148152,10.0,6.0,-26.0,0.0,-14.0,0.0,-4.0,9.0
1702323604.1583757,-13.0,-64.0,-88.0,-19.0,-9.0,-7.0,-1.0,3.0
1702323604.1583757,5.0,47.0,-33.0,2.0,13.0,-5.0,-8.0,-15.0
1702323604.1683671,3.0,27.0,104.0,32.0,30.0,36.0,18.0,21.0
1702323604.1683671,3.0,-69.0,-76.0,-7.0,-2.0,-23.0,6.0,-4.0
1702323604.1981266,18.0,127.0,127.0,10.0,-6.0,14.0,-17.0,-21.0
1702323604.1981266,-20.0,-69.0,-86.0,-15.0,-18.0,1.0,6.0,-8.0
1702323604.1981266,-3.0,-23.0,5.0,-13.0,-3.0,3.0,2.0,4.0
1702323604.1981266,-9.0,-45.0,-46.0,-7.0,-1.0,-9.0,-1.0,-10.0
1702323604.2081304,-6.0,-27.0,-24.0,-14.0,-6.0,-13.0,-9.0,-8.0
1702323604.2081304,12.0,57.0,88.0,16.0,0.0,3.0,3.0,12.0
1702323604.2081304,13.0,-5.0,15.0,14.0,4.0,5.0,3.0,-5.0
1702323604.2081304,-13.0,-22.0,-24.0,-13.0,-1.0,0.0,-13.0,-8.0
1702323604.2184339,-13.0,-42.0,-107.0,-18.0,0.0,-8.0,7.0,4.0
1702323604.2184339,3.0,1.0,58.0,12.0,7.0,-9.0,-23.0,-24.0
1702323604.2284377,5.0,30.0,15.0,4.0,-5.0,-5.0,13.0,24.0
1702323604.2284377,11.0,58.0,127.0,16.0,5.0,9.0,8.0,27.0
1702323604.2481267,-15.0,-46.0,-37.0,-17.0,-3.0,17.0,3.0,-7.0
1702323604.2481267,3.0,21.0,11.0,-6.0,-10.0,-27.0,-3.0,-19.0
1702323604.2481267,2.0,-6.0,12.0,4.0,3.0,-3.0,6.0,26.0
1702323604.2481267,-2.0,-24.0,25.0,12.0,7.0,5.0,-5.0,-23.0
1702323604.2681277,2.0,-14.0,-90.0,-4.0,-3.0,-7.0,-2.0,16.0
1702323604.2681277,-2.0,21.0,111.0,-3.0,3.0,7.0,20.0,14.0
1702323604.2681277,0.0,-33.0,-98.0,-8.0,-3.0,-4.0,-14.0,3.0
1702323604.2681277,5.0,20.0,-36.0,-7.0,4.0,14.0,16.0,18.0
1702323604.2784522,-5.0,23.0,77.0,25.0,-10.0,-23.0,-10.0,-21.0
1702323604.2784522,-13.0,-12.0,-60.0,5.0,5.0,7.0,-10.0,1.0
1702323604.2905605,2.0,-19.0,-21.0,-31.0,-3.0,-4.0,-8.0,-5.0
1702323604.2905605,11.0,47.0,127.0,27.0,1.0,15.0,1.0,14.0
1702323604.3049953,16.0,-27.0,-91.0,-4.0,5.0,-13.0,5.0,-11.0
1702323604.3049953,-2.0,19.0,83.0,1.0,-6.0,-8.0,-9.0,-12.0
1702323604.3069956,-25.0,-30.0,-111.0,5.0,4.0,15.0,20.0,0.0
1702323604.3069956,-9.0,1.0,-4.0,-14.0,-6.0,-2.0,-27.0,-24.0
1702323604.3193088,12.0,-28.0,-45.0,-1.0,2.0,-17.0,22.0,22.0
1702323604.3193088,1.0,5.0,22.0,4.0,-2.0,20.0,11.0,4.0
1702323604.3293123,-14.0,-17.0,4.0,-22.0,-11.0,4.0,-26.0,-1.0
1702323604.3293123,27.0,-10.0,-89.0,0.0,5.0,-4.0,-1.0,-22.0
1702323604.358341,-32.0,27.0,121.0,9.0,-7.0,8.0,1.0,56.0
1702323604.358341,21.0,-12.0,-1.0,-6.0,-1.0,-3.0,9.0,6.0
1702323604.358341,-18.0,21.0,123.0,12.0,-1.0,2.0,-5.0,-54.0
1702323604.358341,-1.0,-16.0,-89.0,-19.0,-9.0,-15.0,-1.0,-16.0
1702323604.358341,9.0,-9.0,15.0,-10.0,1.0,-6.0,4.0,-7.0
1702323604.358341,11.0,-2.0,-16.0,6.0,-1.0,-9.0,-13.0,23.0
1702323604.358341,14.0,6.0,-18.0,-2.0,-7.0,-3.0,4.0,24.0
1702323604.358341,3.0,18.0,14.0,6.0,1.0,-4.0,6.0,4.0
1702323604.3883388,0.0,-24.0,-67.0,-8.0,6.0,6.0,4.0,-29.0
1702323604.3883388,-65.0,-29.0,-33.0,0.0,1.0,2.0,-1.0,-3.0
1702323604.3883388,74.0,20.0,-13.0,2.0,3.0,-9.0,-13.0,6.0
1702323604.3883388,-1.0,-46.0,22.0,12.0,4.0,6.0,14.0,-1.0
1702323604.4083374,-63.0,-10.0,16.0,4.0,-5.0,4.0,-16.0,-22.0
1702323604.4083374,-18.0,-24.0,-67.0,-15.0,-4.0,-13.0,-2.0,4.0
1702323604.4083374,10.0,-11.0,-31.0,-4.0,-1.0,3.0,6.0,10.0
1702323604.4083374,50.0,65.0,41.0,4.0,-3.0,1.0,-32.0,16.0
1702323604.4184413,19.0,3.0,32.0,12.0,11.0,24.0,25.0,12.0
1702323604.4184413,-36.0,-36.0,-37.0,-4.0,4.0,8.0,41.0,-3.0
1702323604.4285865,19.0,-12.0,-41.0,-5.0,0.0,-4.0,-23.0,1.0
1702323604.4285865,-51.0,-38.0,53.0,9.0,-7.0,-14.0,-46.0,-15.0
1702323604.4385881,23.0,2.0,-12.0,-11.0,-18.0,-25.0,-55.0,-14.0
1702323604.448343,-31.0,16.0,-42.0,-8.0,-1.0,-11.0,-7.0,-58.0
1702323604.448343,11.0,-44.0,5.0,8.0,5.0,12.0,25.0,29.0
1702323604.448343,-28.0,15.0,10.0,-2.0,-1.0,1.0,50.0,4.0
1702323604.4783413,37.0,-8.0,12.0,0.0,1.0,4.0,-40.0,24.0
1702323604.4783413,-19.0,21.0,-44.0,-8.0,-6.0,8.0,30.0,-9.0
1702323604.4783413,1.0,36.0,14.0,-8.0,-12.0,-22.0,-92.0,-18.0
1702323604.4783413,9.0,21.0,13.0,5.0,-1.0,-16.0,-12.0,-14.0
1702323604.4783413,-37.0,-60.0,-20.0,-7.0,-4.0,2.0,48.0,-11.0
1702323604.4783413,39.0,-5.0,2.0,4.0,7.0,6.0,33.0,25.0
1702323604.4783413,-15.0,-8.0,-9.0,6.0,15.0,21.0,71.0,25.0
1702323604.4783413,9.0,47.0,2.0,-3.0,-4.0,-9.0,-38.0,-11.0
1702323604.5087163,3.0,25.0,5.0,-5.0,-2.0,10.0,58.0,-10.0
1702323604.5087163,6.0,16.0,-10.0,0.0,-4.0,-3.0,-61.0,27.0
1702323604.5087163,-62.0,-53.0,-10.0,-12.0,-20.0,-32.0,-85.0,-44.0
1702323604.5087163,3.0,12.0,12.0,12.0,10.0,7.0,-11.0,-22.0
1702323604.5283391,10.0,-3.0,6.0,0.0,1.0,-14.0,-1.0,-4.0
1702323604.5283391,17.0,-3.0,-14.0,-9.0,-6.0,0.0,5.0,-41.0
1702323604.5283391,-2.0,37.0,-5.0,7.0,-2.0,6.0,35.0,2.0
1702323604.5283391,7.0,-33.0,12.0,-1.0,1.0,14.0,39.0,24.0
1702323604.5384858,-5.0,15.0,-1.0,-3.0,1.0,6.0,2.0,3.0
1702323604.5384858,6.0,-11.0,-14.0,1.0,2.0,0.0,10.0,18.0
1702323604.5384858,25.0,14.0,5.0,-6.0,-2.0,-5.0,18.0,6.0
1702323604.5384858,-16.0,-4.0,5.0,5.0,3.0,3.0,-3.0,-4.0
1702323604.5883403,-13.0,-22.0,3.0,0.0,-3.0,0.0,18.0,12.0
1702323604.5883403,17.0,36.0,-13.0,-7.0,-9.0,-18.0,-55.0,-20.0
1702323604.5883403,-14.0,-5.0,1.0,10.0,7.0,-11.0,-2.0,3.0
1702323604.5883403,-6.0,-31.0,4.0,2.0,-1.0,13.0,15.0,16.0
1702323604.5883403,15.0,50.0,3.0,-3.0,5.0,15.0,-12.0,-1.0
1702323604.5883403,15.0,-16.0,0.0,1.0,0.0,2.0,3.0,-7.0
1702323604.5883403,14.0,68.0,-3.0,-1.0,3.0,10.0,3.0,-3.0
1702323604.5883403,-52.0,-82.0,-6.0,-1.0,0.0,-8.0,10.0,-8.0
1702323604.5983646,-19.0,89.0,-4.0,-1.0,-5.0,-9.0,-12.0,-2.0
1702323604.5983646,14.0,-50.0,-13.0,-11.0,-7.0,-3.0,-9.0,3.0
1702323604.5983646,-10.0,32.0,28.0,2.0,0.0,-5.0,-7.0,-16.0
1702323604.5983646,38.0,40.0,0.0,7.0,-4.0,1.0,6.0,7.0
1702323604.6184616,-14.0,-69.0,-26.0,-7.0,-5.0,-7.0,-7.0,-23.0
1702323604.6184616,13.0,92.0,74.0,20.0,11.0,-13.0,-3.0,5.0
1702323604.6184616,-41.0,-108.0,-94.0,-25.0,-18.0,8.0,13.0,16.0
1702323604.6184616,-14.0,55.0,56.0,-18.0,-1.0,21.0,-18.0,-58.0
1702323604.6483374,-9.0,-70.0,-66.0,8.0,-1.0,-4.0,-19.0,-1.0
1702323604.6483374,3.0,68.0,-49.0,-9.0,-4.0,-10.0,3.0,-8.0
1702323604.6483374,-13.0,-94.0,75.0,9.0,1.0,-11.0,4.0,0.0
1702323604.6483374,20.0,28.0,12.0,10.0,7.0,16.0,14.0,29.0
1702323604.6586618,-29.0,-6.0,-54.0,-26.0,-15.0,-23.0,-23.0,-32.0
1702323604.6586618,14.0,-43.0,69.0,11.0,0.0,-3.0,-11.0,13.0
1702323604.668455,24.0,127.0,72.0,17.0,12.0,6.0,10.0,24.0
1702323604.668455,-14.0,-99.0,-60.0,-13.0,1.0,17.0,-5.0,-1.0
1702323604.6883378,9.0,32.0,28.0,12.0,4.0,-14.0,15.0,32.0
1702323604.6883378,-3.0,12.0,-22.0,-7.0,-8.0,3.0,-11.0,10.0
1702323604.6883378,6.0,41.0,74.0,7.0,6.0,-5.0,10.0,38.0
1702323604.6883378,1.0,6.0,43.0,2.0,-5.0,12.0,1.0,3.0
1702323604.7086751,-17.0,-49.0,-27.0,-30.0,-20.0,-3.0,-12.0,-18.0
1702323604.7086751,-13.0,-40.0,-45.0,-16.0,1.0,-5.0,-4.0,-9.0
1702323604.7086751,11.0,13.0,1.0,16.0,13.0,1.0,6.0,-3.0
1702323604.7086751,-4.0,30.0,-37.0,1.0,5.0,-16.0,0.0,-4.0
1702323604.718402,33.0,30.0,73.0,17.0,3.0,10.0,8.0,11.0
1702323604.718402,-24.0,-84.0,-55.0,-1.0,-6.0,0.0,7.0,0.0
1702323604.718402,-11.0,9.0,-7.0,-20.0,-10.0,-1.0,-10.0,-37.0
1702323604.718402,8.0,64.0,51.0,10.0,-1.0,-17.0,-1.0,8.0
1702323604.7383394,-4.0,-21.0,-44.0,13.0,17.0,7.0,-1.0,-14.0
1702323604.7383394,7.0,-34.0,25.0,6.0,-3.0,-2.0,-3.0,-10.0
1702323604.7383394,7.0,-9.0,-47.0,-4.0,-9.0,-21.0,-6.0,5.0
1702323604.7383394,-4.0,28.0,18.0,-1.0,-1.0,8.0,-9.0,3.0
1702323604.7684145,-4.0,-7.0,-33.0,-20.0,-8.0,18.0,11.0,-14.0
1702323604.7684145,9.0,11.0,51.0,6.0,3.0,11.0,26.0,30.0
1702323604.7684145,-6.0,-24.0,-5.0,-10.0,-2.0,10.0,5.0,-9.0
1702323604.7684145,-2.0,6.0,-52.0,-11.0,-3.0,-14.0,0.0,0.0
1702323604.798337,24.0,66.0,106.0,31.0,17.0,2.0,-3.0,1.0
1702323604.798337,-10.0,-85.0,-126.0,-37.0,-8.0,-11.0,-14.0,-19.0
1702323604.798337,-2.0,-7.0,50.0,10.0,-6.0,7.0,-4.0,-2.0
1702323604.798337,-16.0,-78.0,-23.0,-11.0,-8.0,-10.0,4.0,1.0
1702323604.8083436,0.0,23.0,15.0,-2.0,2.0,-3.0,-4.0,8.0
1702323604.8083436,13.0,66.0,67.0,19.0,9.0,8.0,11.0,4.0
1702323604.8083436,-6.0,-6.0,-66.0,-11.0,0.0,1.0,8.0,-1.0
1702323604.8083436,12.0,5.0,68.0,14.0,3.0,-17.0,-1.0,13.0
1702323604.8308985,-11.0,-47.0,-92.0,-21.0,-6.0,-6.0,-10.0,0.0
1702323604.8308985,-5.0,15.0,110.0,-4.0,-15.0,-4.0,-43.0,-17.0
1702323604.8308985,4.0,-8.0,-61.0,-8.0,2.0,15.0,12.0,-5.0
1702323604.8308985,-6.0,26.0,121.0,7.0,-6.0,-3.0,5.0,-1.0
1702323604.8451538,9.0,-18.0,-78.0,-6.0,2.0,6.0,-12.0,3.0
1702323604.8451538,-22.0,19.0,-4.0,0.0,0.0,-2.0,23.0,-29.0
1702323604.8589563,14.0,-3.0,77.0,13.0,0.0,7.0,-19.0,31.0
1702323604.8589563,1.0,11.0,17.0,12.0,3.0,9.0,-10.0,-16.0
1702323604.8689718,-14.0,22.0,32.0,-7.0,-3.0,2.0,7.0,10.0
1702323604.8689718,39.0,-7.0,-62.0,0.0,1.0,-17.0,-16.0,-8.0
1702323604.8689718,-40.0,-12.0,-52.0,-17.0,-10.0,-5.0,-4.0,4.0
1702323604.8689718,45.0,2.0,-63.0,1.0,-2.0,-6.0,12.0,-21.0
1702323604.8891516,-44.0,4.0,45.0,-9.0,1.0,1.0,1.0,43.0
1702323604.8891516,-23.0,9.0,53.0,20.0,-4.0,7.0,7.0,80.0
1702323604.8891516,48.0,-13.0,-101.0,-3.0,1.0,-6.0,-4.0,-92.0
1702323604.8891516,-60.0,3.0,77.0,-13.0,-2.0,-5.0,4.0,22.0
1702323604.9189696,24.0,7.0,-9.0,2.0,-4.0,-10.0,-19.0,-11.0
1702323604.9189696,-50.0,-4.0,-94.0,-8.0,1.0,10.0,-9.0,-33.0
1702323604.9189696,-11.0,-4.0,-22.0,-14.0,-3.0,-6.0,20.0,3.0
1702323604.9189696,45.0,-48.0,-58.0,3.0,-1.0,-3.0,-11.0,-12.0
1702323604.9189696,17.0,8.0,31.0,11.0,0.0,-4.0,24.0,17.0
1702323604.9189696,34.0,42.0,97.0,9.0,2.0,8.0,6.0,20.0
1702323604.9189696,-9.0,-12.0,-54.0,-1.0,0.0,-10.0,-1.0,-32.0
1702323604.9189696,-34.0,-4.0,-59.0,-11.0,5.0,11.0,1.0,-24.0
1702323604.949337,-5.0,6.0,10.0,4.0,-9.0,-4.0,-5.0,8.0
1702323604.949337,-11.0,-16.0,-23.0,3.0,1.0,-9.0,-8.0,-27.0
1702323604.949337,-22.0,14.0,85.0,-11.0,-12.0,-22.0,-26.0,19.0
1702323604.949337,33.0,14.0,-15.0,-8.0,2.0,21.0,11.0,-67.0
1702323604.95913,-15.0,-38.0,-23.0,2.0,6.0,11.0,16.0,5.0
1702323604.95913,30.0,15.0,1.0,1.0,5.0,-5.0,-5.0,-8.0
1702323604.9791412,10.0,38.0,15.0,3.0,1.0,5.0,-7.0,2.0
1702323604.9791412,-62.0,-67.0,-92.0,-19.0,-3.0,-5.0,6.0,42.0
1702323604.9891443,70.0,32.0,90.0,16.0,-2.0,-3.0,13.0,-12.0
1702323604.9891443,4.0,-13.0,-29.0,-18.0,-8.0,0.0,-1.0,-33.0
1702323604.9891443,-52.0,4.0,-21.0,-10.0,-6.0,0.0,-10.0,-5.0
1702323604.9891443,21.0,18.0,-9.0,6.0,2.0,1.0,48.0,50.0
1702323605.0094018,-12.0,-1.0,20.0,6.0,8.0,1.0,-44.0,-21.0
1702323605.0094018,29.0,-4.0,-11.0,2.0,-1.0,-19.0,-45.0,-5.0
1702323605.0094018,16.0,-10.0,25.0,3.0,-4.0,5.0,27.0,16.0
1702323605.0094018,9.0,10.0,-1.0,-10.0,7.0,10.0,21.0,-16.0
1702323605.0191455,-49.0,1.0,2.0,-3.0,4.0,12.0,63.0,12.0
1702323605.0191455,-19.0,-7.0,-4.0,-2.0,-4.0,15.0,-48.0,-2.0
1702323605.0491402,15.0,-21.0,3.0,-1.0,-14.0,-30.0,-58.0,-9.0
1702323605.0491402,8.0,20.0,2.0,-2.0,1.0,-5.0,70.0,20.0
1702323605.0491402,27.0,21.0,-3.0,0.0,-1.0,-3.0,-89.0,-15.0
1702323605.0491402,-9.0,12.0,-7.0,-1.0,6.0,7.0,92.0,18.0
1702323605.0491402,8.0,-5.0,9.0,2.0,1.0,-16.0,-99.0,-4.0
1702323605.0491402,-7.0,15.0,5.0,6.0,-1.0,-15.0,-48.0,-5.0
1702323605.0692337,6.0,33.0,7.0,0.0,-5.0,6.0,87.0,-13.0
1702323605.0692337,-11.0,9.0,-1.0,0.0,3.0,8.0,-11.0,43.0
1702323605.0692337,-6.0,-48.0,0.0,-1.0,-5.0,-3.0,16.0,-29.0
1702323605.0692337,20.0,6.0,9.0,3.0,0.0,2.0,-8.0,51.0
1702323605.079141,6.0,-9.0,-10.0,-8.0,-8.0,-20.0,-19.0,-18.0
1702323605.079141,0.0,21.0,7.0,-1.0,-6.0,-7.0,18.0,-8.0
1702323605.0891738,12.0,7.0,5.0,8.0,14.0,37.0,64.0,17.0
1702323605.0891738,4.0,0.0,-5.0,2.0,2.0,7.0,-65.0,0.0
1702323605.0992482,-12.0,-14.0,2.0,-4.0,-7.0,-6.0,-20.0,-5.0
1702323605.0992482,1.0,11.0,0.0,6.0,6.0,4.0,6.0,3.0
1702323605.0992482,-4.0,-58.0,-5.0,-3.0,7.0,-21.0,10.0,13.0
1702323605.0992482,-17.0,19.0,-7.0,-3.0,-15.0,-5.0,31.0,-39.0
1702323605.1293068,20.0,24.0,11.0,5.0,4.0,16.0,-37.0,11.0
1702323605.1293068,-9.0,-15.0,-3.0,-14.0,-5.0,-18.0,-11.0,43.0
1702323605.1293068,-5.0,18.0,-7.0,-1.0,-4.0,0.0,-2.0,-41.0
1702323605.1293068,-1.0,-5.0,3.0,5.0,-1.0,-6.0,-12.0,11.0
1702323605.13914,4.0,-2.0,-3.0,-4.0,0.0,7.0,15.0,-10.0
1702323605.13914,-12.0,-20.0,-20.0,-14.0,-6.0,-9.0,-1.0,-19.0
1702323605.1595082,6.0,40.0,10.0,11.0,2.0,-1.0,21.0,25.0
1702323605.1595082,-1.0,-31.0,-5.0,-14.0,-6.0,-3.0,-14.0,11.0
1702323605.1595082,-22.0,-20.0,1.0,14.0,12.0,-1.0,3.0,1.0
1702323605.1595082,13.0,29.0,1.0,-2.0,1.0,1.0,-11.0,-21.0
1702323605.1595082,-3.0,-14.0,12.0,0.0,-4.0,4.0,16.0,19.0
1702323605.1595082,-13.0,-20.0,1.0,-3.0,-1.0,10.0,-5.0,1.0
1702323605.1891387,-2.0,-52.0,-62.0,-23.0,-16.0,-24.0,-14.0,-9.0
1702323605.1891387,-9.0,-12.0,6.0,-5.0,-8.0,-7.0,2.0,-28.0
1702323605.1891387,23.0,92.0,52.0,16.0,12.0,9.0,2.0,24.0
1702323605.1891387,0.0,6.0,21.0,5.0,-3.0,-29.0,-16.0,21.0
1702323605.199438,-11.0,-26.0,-67.0,-13.0,-6.0,4.0,-5.0,36.0
1702323605.199438,-14.0,-89.0,-22.0,-8.0,-9.0,-5.0,5.0,-8.0
1702323605.199438,-15.0,27.0,40.0,-9.0,-2.0,10.0,-1.0,-12.0
1702323605.199438,-5.0,0.0,-34.0,-11.0,-2.0,6.0,-3.0,22.0
1702323605.2193675,11.0,3.0,39.0,10.0,1.0,-14.0,-13.0,12.0
1702323605.2193675,2.0,-32.0,9.0,3.0,-3.0,-4.0,15.0,-7.0
1702323605.2193675,13.0,21.0,-34.0,8.0,10.0,16.0,2.0,-18.0
1702323605.2193675,-3.0,5.0,90.0,5.0,-2.0,-1.0,-3.0,-27.0
1702323605.2491388,-24.0,-55.0,-79.0,-27.0,-11.0,7.0,0.0,-15.0
1702323605.2491388,-5.0,70.0,79.0,-2.0,1.0,1.0,-5.0,21.0
1702323605.2491388,-3.0,-115.0,-25.0,0.0,-1.0,1.0,7.0,-2.0
1702323605.2491388,0.0,-2.0,-58.0,-15.0,-9.0,-16.0,-12.0,-13.0
1702323605.2594533,14.0,99.0,112.0,39.0,14.0,14.0,16.0,-2.0
1702323605.2594533,-7.0,-22.0,-86.0,-19.0,-9.0,3.0,-7.0,-3.0
1702323605.2594533,-11.0,-47.0,-31.0,-6.0,-8.0,-7.0,3.0,-2.0
1702323605.2594533,1.0,-5.0,7.0,7.0,10.0,7.0,-3.0,-16.0
1702323605.2795043,4.0,33.0,42.0,13.0,1.0,-2.0,2.0,-14.0
1702323605.2795043,-8.0,-69.0,-36.0,13.0,5.0,5.0,-3.0,-11.0
1702323605.2795043,7.0,80.0,75.0,12.0,5.0,-4.0,14.0,19.0
1702323605.2795043,-11.0,-67.0,-115.0,-25.0,-7.0,7.0,-8.0,-8.0
1702323605.309139,1.0,41.0,-7.0,-10.0,-5.0,-15.0,-6.0,-18.0
1702323605.309139,-2.0,-26.0,14.0,-11.0,-7.0,-11.0,19.0,32.0
1702323605.309139,-11.0,-17.0,5.0,-10.0,-14.0,-3.0,-15.0,-18.0
1702323605.309139,-4.0,-31.0,-26.0,5.0,-3.0,-1.0,-7.0,3.0
1702323605.3295238,4.0,34.0,76.0,3.0,7.0,2.0,8.0,-4.0
1702323605.3295238,9.0,22.0,-5.0,15.0,7.0,7.0,0.0,7.0
1702323605.3295238,-3.0,52.0,-16.0,-20.0,-3.0,1.0,-2.0,5.0
1702323605.3295238,-3.0,-19.0,63.0,15.0,9.0,0.0,7.0,-2.0
1702323605.3392003,6.0,-26.0,-71.0,7.0,0.0,-1.0,-1.0,4.0
1702323605.3392003,-8.0,-25.0,76.0,0.0,-3.0,-1.0,-11.0,-18.0
1702323605.3392003,-9.0,-10.0,-23.0,-20.0,-7.0,-5.0,-9.0,-1.0
1702323605.3392003,14.0,52.0,4.0,2.0,-4.0,-8.0,9.0,7.0
1702323605.3696613,-2.0,10.0,67.0,3.0,0.0,4.0,-13.0,4.0
1702323605.3696613,8.0,18.0,-52.0,5.0,6.0,1.0,-2.0,-7.0
1702323605.3696613,-5.0,-2.0,-38.0,7.0,1.0,-1.0,15.0,11.0
1702323605.3696613,-2.0,-14.0,-81.0,-12.0,-8.0,-3.0,-24.0,-18.0
1702323605.3898587,-11.0,-31.0,61.0,-14.0,-6.0,0.0,2.0,-7.0
1702323605.3898587,8.0,32.0,-29.0,4.0,0.0,5.0,7.0,1.0
1702323605.3898587,-9.0,-17.0,-15.0,-6.0,-1.0,1.0,-4.0,5.0
1702323605.3898587,9.0,13.0,51.0,12.0,8.0,9.0,11.0,6.0
1702323605.4098547,0.0,-7.0,-1.0,-1.0,0.0,-2.0,3.0,10.0
1702323605.4098547,5.0,1.0,-62.0,-4.0,1.0,3.0,1.0,-5.0
1702323605.4098547,6.0,16.0,110.0,11.0,-7.0,-6.0,-6.0,3.0
1702323605.4098547,-4.0,0.0,-69.0,0.0,0.0,-7.0,12.0,4.0
1702323605.4299264,6.0,-7.0,70.0,-11.0,-1.0,6.0,10.0,-2.0
1702323605.4299264,2.0,19.0,6.0,20.0,8.0,8.0,5.0,15.0
1702323605.4299264,-1.0,-26.0,-82.0,-17.0,-2.0,1.0,-2.0,-2.0
