1702324372.6479127,6.0,-2.0,6.0,0.0,-5.0,-1.0,-1.0,-2.0
1702324372.6479127,9.0,18.0,6.0,-1.0,4.0,4.0,3.0,9.0
1702324372.6579173,1.0,4.0,-4.0,10.0,2.0,-2.0,1.0,-1.0
1702324372.6579173,-15.0,-3.0,-5.0,-4.0,-1.0,2.0,-7.0,-12.0
1702324372.6779172,7.0,2.0,0.0,-2.0,12.0,11.0,5.0,-2.0
1702324372.6779172,-36.0,-2.0,-7.0,-9.0,-16.0,-5.0,-2.0,-1.0
1702324372.6779172,-22.0,-5.0,-7.0,1.0,4.0,0.0,0.0,3.0
1702324372.6779172,-2.0,19.0,10.0,-2.0,-7.0,-3.0,3.0,1.0
1702324372.6980023,35.0,4.0,-14.0,-9.0,-12.0,-9.0,-7.0,-10.0
1702324372.6980023,8.0,14.0,20.0,6.0,10.0,5.0,4.0,9.0
1702324372.6980023,34.0,-5.0,-14.0,-19.0,-9.0,-9.0,-8.0,10.0
1702324372.6980023,-107.0,-44.0,-51.0,-6.0,-1.0,-9.0,-4.0,-37.0
1702324372.7080157,-16.0,-2.0,10.0,-9.0,-9.0,-12.0,-10.0,-25.0
1702324372.7080157,36.0,8.0,-9.0,4.0,-3.0,-1.0,8.0,65.0
1702324372.7179182,30.0,27.0,4.0,6.0,4.0,-2.0,1.0,-8.0
1702324372.7179182,51.0,29.0,29.0,3.0,4.0,1.0,15.0,36.0
1702324372.7379134,14.0,-10.0,-13.0,3.0,4.0,23.0,-12.0,15.0
1702324372.7379134,-62.0,-7.0,-3.0,-12.0,-20.0,6.0,-7.0,-84.0
1702324372.7379134,-28.0,-35.0,-7.0,-3.0,-11.0,-17.0,-37.0,-34.0
1702324372.7379134,15.0,23.0,9.0,4.0,1.0,-6.0,-6.0,24.0
1702324372.7479522,7.0,8.0,11.0,-2.0,3.0,11.0,32.0,24.0
1702324372.7479522,37.0,11.0,-1.0,2.0,13.0,9.0,6.0,-2.0
1702324372.7479522,-16.0,4.0,4.0,-3.0,-7.0,1.0,-3.0,7.0
1702324372.7479522,-6.0,-2.0,2.0,-1.0,-5.0,-22.0,-12.0,-60.0
1702324372.7679129,13.0,9.0,13.0,2.0,0.0,-16.0,-10.0,15.0
1702324372.7679129,-4.0,-10.0,-19.0,-4.0,-1.0,6.0,0.0,-6.0
1702324372.7679129,-19.0,-9.0,-9.0,-2.0,4.0,8.0,2.0,-11.0
1702324372.7679129,13.0,7.0,18.0,-2.0,-2.0,-7.0,-5.0,18.0
1702324372.7979143,-4.0,8.0,-8.0,0.0,1.0,-4.0,7.0,5.0
1702324372.7979143,-9.0,-6.0,5.0,-1.0,3.0,-5.0,-2.0,-2.0
1702324372.7979143,6.0,14.0,-18.0,1.0,3.0,7.0,4.0,7.0
1702324372.7979143,7.0,2.0,17.0,3.0,-1.0,-2.0,-8.0,6.0
1702324372.808228,-19.0,-28.0,2.0,-8.0,-11.0,-14.0,1.0,-28.0
1702324372.808228,4.0,19.0,-9.0,2.0,0.0,4.0,-3.0,4.0
1702324372.808228,3.0,-9.0,-5.0,0.0,2.0,-13.0,1.0,-2.0
1702324372.808228,8.0,6.0,1.0,1.0,1.0,22.0,-6.0,13.0
1702324372.8279133,-13.0,3.0,-11.0,-5.0,-6.0,2.0,22.0,1.0
1702324372.8279133,7.0,-4.0,3.0,-4.0,-4.0,-1.0,-2.0,13.0
1702324372.8279133,4.0,12.0,-5.0,-3.0,11.0,8.0,10.0,8.0
1702324372.8279133,-4.0,-4.0,-12.0,-7.0,-2.0,-3.0,-3.0,-9.0
1702324372.85823,-24.0,-13.0,10.0,27.0,7.0,-7.0,-19.0,-6.0
1702324372.85823,9.0,0.0,8.0,-2.0,-3.0,-9.0,1.0,0.0
1702324372.85823,-4.0,18.0,10.0,-3.0,-15.0,-13.0,-6.0,-8.0
1702324372.85823,-2.0,-32.0,0.0,-4.0,5.0,28.0,7.0,2.0
1702324372.8681853,9.0,40.0,2.0,-9.0,0.0,-37.0,-38.0,7.0
1702324372.8681853,1.0,-34.0,45.0,43.0,17.0,22.0,17.0,-4.0
1702324372.8681853,-15.0,-83.0,-86.0,-22.0,-10.0,31.0,38.0,-14.0
1702324372.8681853,8.0,22.0,62.0,-8.0,-10.0,-23.0,9.0,0.0
1702324372.8879132,-10.0,25.0,85.0,-16.0,-7.0,27.0,9.0,9.0
1702324372.8879132,-7.0,-21.0,-97.0,-20.0,4.0,-5.0,-12.0,2.0
1702324372.8879132,9.0,18.0,39.0,13.0,-5.0,-17.0,-8.0,33.0
1702324372.8879132,14.0,13.0,-43.0,-1.0,8.0,8.0,-6.0,-2.0
1702324372.9181223,-13.0,-36.0,-17.0,6.0,5.0,1.0,-7.0,-1.0
1702324372.9181223,8.0,29.0,35.0,15.0,3.0,-58.0,-8.0,-2.0
1702324372.9181223,-8.0,7.0,10.0,12.0,-3.0,-19.0,-70.0,-35.0
1702324372.9181223,12.0,22.0,-1.0,0.0,-1.0,86.0,97.0,16.0
1702324372.9379466,-5.0,5.0,-13.0,-3.0,-14.0,-24.0,-8.0,-23.0
1702324372.9379466,-5.0,-15.0,-33.0,-29.0,-11.0,0.0,19.0,-3.0
1702324372.9379466,1.0,-2.0,-1.0,-8.0,4.0,4.0,15.0,12.0
1702324372.9379466,-5.0,-8.0,12.0,9.0,3.0,-17.0,-39.0,-5.0
1702324372.9482508,2.0,2.0,-12.0,3.0,9.0,21.0,5.0,-9.0
1702324372.9482508,0.0,-8.0,-8.0,-4.0,-8.0,5.0,-14.0,0.0
1702324372.9482508,8.0,9.0,22.0,0.0,1.0,-20.0,13.0,5.0
1702324372.9482508,-7.0,2.0,-6.0,-2.0,-5.0,-30.0,-26.0,-7.0
1702324372.9782424,10.0,-8.0,-20.0,-11.0,-10.0,12.0,10.0,1.0
1702324372.9782424,-4.0,6.0,1.0,-13.0,-14.0,-16.0,-19.0,7.0
1702324372.9782424,-5.0,8.0,1.0,-25.0,5.0,9.0,27.0,4.0
1702324372.9782424,13.0,-9.0,-4.0,20.0,1.0,4.0,1.0,-2.0
1702324372.9879138,22.0,-4.0,-4.0,17.0,8.0,-4.0,-34.0,11.0
1702324372.9879138,-46.0,-2.0,8.0,0.0,-3.0,-2.0,-12.0,-14.0
1702324372.9879138,-9.0,5.0,6.0,10.0,5.0,8.0,-1.0,-12.0
1702324372.9879138,-27.0,-9.0,-14.0,-16.0,1.0,-4.0,15.0,-8.0
1702324373.0083063,13.0,1.0,-3.0,-3.0,1.0,-8.0,4.0,0.0
1702324373.0083063,25.0,8.0,2.0,-6.0,-9.0,0.0,-11.0,16.0
1702324373.0083063,48.0,5.0,6.0,-7.0,-9.0,13.0,7.0,1.0
1702324373.0083063,-39.0,-3.0,-1.0,-1.0,-8.0,-19.0,-16.0,-1.0
1702324373.038155,-21.0,-2.0,4.0,6.0,8.0,3.0,11.0,-8.0
1702324373.038155,3.0,3.0,9.0,-2.0,2.0,9.0,12.0,14.0
1702324373.038155,4.0,0.0,-44.0,3.0,2.0,5.0,0.0,10.0
1702324373.038155,30.0,-1.0,20.0,10.0,2.0,-8.0,-15.0,0.0
1702324373.057912,-26.0,-10.0,-10.0,-26.0,-24.0,-8.0,1.0,-19.0
1702324373.057912,-1.0,2.0,-11.0,-15.0,-4.0,4.0,5.0,-11.0
1702324373.057912,4.0,7.0,27.0,27.0,15.0,5.0,2.0,18.0
1702324373.057912,11.0,7.0,-19.0,-14.0,2.0,-8.0,-10.0,-6.0
1702324373.0682044,-23.0,-11.0,25.0,27.0,2.0,3.0,4.0,-1.0
1702324373.0682044,-10.0,-7.0,-15.0,0.0,-1.0,2.0,-7.0,-7.0
1702324373.0682044,13.0,-3.0,21.0,4.0,-7.0,-1.0,1.0,-7.0
1702324373.0682044,5.0,3.0,-10.0,-5.0,-5.0,-2.0,3.0,4.0
1702324373.0982103,29.0,7.0,-7.0,-4.0,1.0,-5.0,-1.0,9.0
1702324373.0982103,12.0,25.0,9.0,-12.0,4.0,0.0,5.0,-1.0
1702324373.0982103,-30.0,0.0,-13.0,12.0,-7.0,3.0,4.0,-1.0
1702324373.0982103,-13.0,-74.0,-15.0,-8.0,4.0,-1.0,-6.0,-3.0
1702324373.120381,-8.0,5.0,28.0,6.0,3.0,4.0,-9.0,-1.0
1702324373.120381,11.0,5.0,-30.0,3.0,1.0,-6.0,-3.0,-4.0
1702324373.120381,-3.0,22.0,-3.0,-19.0,-10.0,-1.0,4.0,-1.0
1702324373.120381,-8.0,10.0,-3.0,1.0,-7.0,-8.0,-13.0,-4.0
1702324373.1362257,3.0,-3.0,-1.0,-2.0,4.0,0.0,6.0,2.0
1702324373.1362257,-2.0,-2.0,13.0,8.0,4.0,4.0,-1.0,-4.0
1702324373.1362257,-6.0,-2.0,1.0,-11.0,-6.0,-8.0,-5.0,-4.0
1702324373.1362257,-3.0,2.0,-4.0,4.0,-6.0,-5.0,1.0,-2.0
1702324373.1600885,-1.0,7.0,-9.0,-20.0,1.0,2.0,-1.0,2.0
1702324373.1600885,-4.0,-34.0,-4.0,23.0,10.0,3.0,5.0,-8.0
1702324373.1600885,-3.0,24.0,16.0,7.0,2.0,-2.0,-2.0,1.0
1702324373.1600885,-2.0,-11.0,3.0,-5.0,-17.0,-10.0,-2.0,-2.0
1702324373.170422,-3.0,6.0,-46.0,-23.0,-7.0,3.0,2.0,-2.0
1702324373.170422,-5.0,6.0,4.0,0.0,13.0,-10.0,-4.0,-3.0
1702324373.180474,3.0,-34.0,34.0,25.0,24.0,-5.0,-23.0,4.0
1702324373.180474,1.0,29.0,13.0,10.0,10.0,7.0,8.0,-7.0
1702324373.1905508,-11.0,-11.0,-36.0,-19.0,-12.0,28.0,15.0,-26.0
1702324373.1905508,5.0,-4.0,5.0,-8.0,-16.0,5.0,-3.0,16.0
1702324373.1905508,-4.0,11.0,0.0,0.0,2.0,-1.0,6.0,-5.0
1702324373.1905508,10.0,35.0,17.0,5.0,2.0,-46.0,-70.0,8.0
1702324373.220567,-5.0,-13.0,-9.0,3.0,0.0,13.0,20.0,-6.0
1702324373.220567,-3.0,7.0,4.0,-1.0,-3.0,39.0,53.0,0.0
1702324373.220567,0.0,5.0,1.0,-2.0,-2.0,28.0,1.0,-6.0
1702324373.220567,-2.0,-15.0,-13.0,-6.0,-6.0,1.0,-2.0,7.0
1702324373.228601,2.0,0.0,5.0,7.0,1.0,-16.0,-15.0,5.0
1702324373.228601,1.0,0.0,1.0,-10.0,-6.0,-21.0,-23.0,-7.0
1702324373.2408288,-7.0,-6.0,-4.0,-24.0,-15.0,-6.0,6.0,0.0
1702324373.2408288,-1.0,-17.0,-20.0,20.0,9.0,1.0,14.0,-4.0
1702324373.2555935,0.0,-6.0,9.0,10.0,5.0,-11.0,-8.0,6.0
1702324373.2555935,-6.0,-43.0,6.0,9.0,9.0,0.0,-1.0,0.0
1702324373.2565935,16.0,29.0,-10.0,-12.0,-12.0,-15.0,-10.0,-1.0
1702324373.2565935,-10.0,-30.0,-4.0,-14.0,-13.0,6.0,3.0,-8.0
1702324373.2825894,9.0,44.0,15.0,23.0,20.0,-1.0,1.0,7.0
1702324373.2835894,-7.0,-30.0,-9.0,29.0,16.0,4.0,-3.0,-2.0
1702324373.2835894,8.0,8.0,-14.0,-21.0,-6.0,-5.0,1.0,1.0
1702324373.2835894,1.0,-58.0,8.0,-4.0,-4.0,4.0,8.0,5.0
1702324373.2925937,2.0,89.0,34.0,11.0,-6.0,-2.0,2.0,6.0
1702324373.2925937,14.0,37.0,-19.0,-28.0,-17.0,-14.0,-9.0,-9.0
1702324373.300694,-17.0,-94.0,-44.0,-22.0,0.0,-2.0,0.0,-1.0
1702324373.300694,16.0,47.0,16.0,6.0,1.0,9.0,13.0,1.0
1702324373.3156931,-51.0,-96.0,-31.0,-12.0,-26.0,-17.0,-14.0,-13.0
1702324373.3156931,0.0,6.0,38.0,76.0,37.0,11.0,-2.0,1.0
1702324373.3166986,-3.0,18.0,4.0,5.0,22.0,7.0,4.0,2.0
1702324373.3166986,24.0,-1.0,18.0,-4.0,3.0,6.0,6.0,-8.0
1702324373.3381057,0.0,55.0,-13.0,-16.0,8.0,0.0,-4.0,-2.0
1702324373.3381057,-13.0,-7.0,-37.0,-31.0,-19.0,-8.0,-8.0,-8.0
1702324373.3381057,-5.0,-11.0,-28.0,2.0,-8.0,-4.0,3.0,6.0
1702324373.3391173,21.0,61.0,55.0,5.0,0.0,1.0,9.0,14.0
1702324373.3562212,16.0,-14.0,29.0,10.0,4.0,-1.0,4.0,10.0
1702324373.3562212,-6.0,-35.0,30.0,-16.0,-10.0,0.0,-3.0,1.0
1702324373.360495,-19.0,-21.0,13.0,7.0,-5.0,-7.0,-11.0,-31.0
1702324373.360495,1.0,5.0,-90.0,-26.0,-9.0,-6.0,-1.0,1.0
1702324373.3754144,15.0,6.0,38.0,10.0,3.0,-2.0,12.0,6.0
1702324373.3754144,-7.0,-34.0,-36.0,-19.0,-12.0,-7.0,0.0,6.0
1702324373.3763025,6.0,31.0,17.0,14.0,7.0,8.0,-2.0,7.0
1702324373.3763025,-20.0,-32.0,-15.0,6.0,10.0,-8.0,0.0,0.0
1702324373.4013646,-3.0,-20.0,12.0,1.0,-3.0,2.0,-36.0,-13.0
1702324373.4013646,-28.0,15.0,-39.0,-5.0,5.0,26.0,43.0,16.0
1702324373.4013646,39.0,12.0,118.0,20.0,-1.0,6.0,14.0,4.0
1702324373.4013646,-37.0,-5.0,-53.0,-14.0,-15.0,17.0,-6.0,-22.0
1702324373.4128428,44.0,6.0,-62.0,-12.0,-7.0,-47.0,-51.0,-11.0
1702324373.4128428,5.0,35.0,37.0,-8.0,-16.0,-53.0,38.0,-3.0
1702324373.420651,-12.0,5.0,-41.0,-2.0,8.0,53.0,18.0,20.0
1702324373.420651,-63.0,-47.0,4.0,2.0,8.0,1.0,-13.0,12.0
1702324373.4353685,-85.0,-83.0,8.0,-10.0,-5.0,27.0,19.0,-11.0
1702324373.4362206,1.0,-7.0,-19.0,-3.0,4.0,9.0,-31.0,-1.0
1702324373.4362206,37.0,-25.0,-30.0,-1.0,0.0,-69.0,-5.0,-10.0
1702324373.4382367,38.0,103.0,28.0,-2.0,-5.0,51.0,16.0,20.0
1702324373.4504735,19.0,-38.0,-8.0,11.0,15.0,0.0,30.0,11.0
1702324373.4504735,-10.0,-11.0,6.0,-7.0,-3.0,24.0,-70.0,-3.0
1702324373.4504735,1.0,9.0,14.0,-1.0,-6.0,-2.0,55.0,11.0
1702324373.4504735,41.0,53.0,-6.0,-4.0,-4.0,-30.0,-8.0,-12.0
1702324373.4705203,22.0,25.0,5.0,-5.0,-5.0,17.0,49.0,18.0
1702324373.4705203,-12.0,39.0,18.0,7.0,6.0,-8.0,-22.0,-15.0
1702324373.4807394,-20.0,52.0,-2.0,-13.0,-12.0,-20.0,-28.0,-30.0
1702324373.4807394,11.0,-8.0,2.0,4.0,-3.0,-22.0,-41.0,-29.0
1702324373.4907095,1.0,-21.0,-19.0,-3.0,2.0,0.0,-3.0,29.0
1702324373.4907095,4.0,-46.0,4.0,-8.0,1.0,11.0,44.0,10.0
1702324373.5005417,41.0,33.0,-5.0,-15.0,-2.0,-11.0,-36.0,4.0
1702324373.5005417,-73.0,-45.0,-1.0,49.0,19.0,-3.0,-5.0,-19.0
1702324373.5204782,34.0,61.0,14.0,-8.0,-9.0,1.0,-2.0,25.0
1702324373.5204782,-43.0,-25.0,8.0,14.0,-6.0,-9.0,-9.0,-27.0
1702324373.5204782,-22.0,-62.0,-14.0,3.0,11.0,8.0,-4.0,-9.0
1702324373.5204782,-7.0,34.0,-13.0,-19.0,-11.0,-5.0,13.0,-8.0
1702324373.540296,-18.0,8.0,-8.0,3.0,-3.0,-1.0,-4.0,-23.0
1702324373.540296,32.0,44.0,7.0,5.0,3.0,-10.0,-11.0,8.0
1702324373.540296,3.0,-17.0,1.0,2.0,-8.0,5.0,7.0,10.0
1702324373.540296,27.0,-7.0,-47.0,-18.0,-9.0,0.0,13.0,9.0
1702324373.550035,-28.0,-15.0,-29.0,-19.0,-14.0,-18.0,-19.0,-11.0
1702324373.550035,7.0,20.0,13.0,-15.0,-3.0,-8.0,2.0,-2.0
1702324373.560365,-12.0,22.0,8.0,19.0,12.0,26.0,11.0,1.0
1702324373.560365,0.0,-37.0,26.0,-8.0,-1.0,5.0,10.0,14.0
1702324373.5703886,-6.0,-11.0,0.0,0.0,-15.0,-12.0,-21.0,-16.0
1702324373.5703886,22.0,7.0,-2.0,1.0,14.0,5.0,28.0,-2.0
1702324373.5703886,-33.0,-17.0,3.0,21.0,12.0,2.0,-12.0,-2.0
1702324373.5703886,-3.0,-18.0,11.0,9.0,2.0,-11.0,-24.0,2.0
1702324373.6004398,6.0,-6.0,-27.0,-17.0,-7.0,-7.0,-10.0,-10.0
1702324373.6004398,10.0,19.0,-3.0,-8.0,-6.0,-4.0,-11.0,-6.0
1702324373.6004398,-14.0,-22.0,-13.0,-4.0,-14.0,-7.0,-4.0,2.0
1702324373.6004398,2.0,7.0,4.0,-8.0,3.0,5.0,23.0,7.0
1702324373.6103985,5.0,7.0,11.0,3.0,-2.0,1.0,5.0,-6.0
1702324373.6103985,3.0,-14.0,1.0,-11.0,-2.0,1.0,-6.0,-2.0
1702324373.6103985,-3.0,-4.0,-15.0,-11.0,-4.0,-3.0,-2.0,0.0
1702324373.6103985,-5.0,-6.0,4.0,-9.0,-11.0,-7.0,0.0,-3.0
1702324373.6303475,4.0,6.0,23.0,-12.0,2.0,1.0,-1.0,-4.0
1702324373.6303475,5.0,-11.0,-34.0,29.0,18.0,6.0,0.0,4.0
1702324373.6303475,-7.0,1.0,-9.0,9.0,0.0,2.0,0.0,5.0
1702324373.6303475,1.0,9.0,51.0,26.0,12.0,4.0,2.0,-4.0
1702324373.6608062,2.0,-1.0,-56.0,-11.0,2.0,-2.0,-1.0,-1.0
1702324373.6608062,5.0,10.0,24.0,-26.0,-22.0,-8.0,-9.0,-1.0
1702324373.6608062,-4.0,4.0,8.0,-14.0,-10.0,0.0,0.0,-3.0
1702324373.6608062,7.0,-17.0,-25.0,-3.0,5.0,5.0,3.0,3.0
1702324373.676978,23.0,48.0,38.0,3.0,9.0,6.0,9.0,5.0
1702324373.676978,-44.0,-49.0,11.0,-6.0,-32.0,-13.0,-14.0,-15.0
1702324373.676978,-10.0,-11.0,-20.0,-11.0,2.0,-7.0,-7.0,0.0
1702324373.676978,2.0,-8.0,-6.0,-7.0,5.0,-4.0,0.0,-1.0
1702324373.697309,3.0,-16.0,-18.0,17.0,22.0,12.0,10.0,7.0
1702324373.697309,21.0,31.0,11.0,22.0,13.0,12.0,7.0,5.0
1702324373.697309,-1.0,-16.0,17.0,-2.0,-10.0,-7.0,-12.0,-1.0
1702324373.697309,1.0,1.0,-40.0,-21.0,-20.0,-10.0,1.0,-1.0
1702324373.7170537,-8.0,1.0,71.0,-4.0,-7.0,-5.0,-9.0,-7.0
1702324373.7170537,-3.0,8.0,-29.0,10.0,7.0,0.0,-2.0,0.0
1702324373.7170537,-7.0,10.0,4.0,-33.0,-21.0,-5.0,-3.0,-5.0
1702324373.7170537,1.0,5.0,14.0,36.0,7.0,-1.0,0.0,2.0
1702324373.7270734,-4.0,-1.0,53.0,5.0,9.0,0.0,-2.0,0.0
1702324373.7270734,1.0,49.0,-38.0,23.0,18.0,12.0,7.0,5.0
1702324373.7270734,-8.0,-53.0,-10.0,-4.0,7.0,4.0,-6.0,-7.0
1702324373.7270734,1.0,-14.0,-19.0,-16.0,-6.0,1.0,9.0,-2.0
1702324373.7574658,-5.0,-35.0,-3.0,-4.0,-14.0,-9.0,-16.0,-3.0
1702324373.7574658,-20.0,-17.0,17.0,-22.0,-13.0,-9.0,4.0,-9.0
1702324373.7574658,32.0,88.0,-6.0,11.0,8.0,-1.0,-2.0,12.0
1702324373.7574658,-20.0,-39.0,33.0,-2.0,2.0,-5.0,-11.0,-27.0
1702324373.7770638,35.0,47.0,6.0,17.0,8.0,21.0,36.0,43.0
1702324373.7770638,-11.0,-57.0,-12.0,-6.0,2.0,4.0,-12.0,-14.0
1702324373.7770638,-13.0,83.0,-14.0,0.0,-5.0,-1.0,2.0,-27.0
1702324373.7770638,-22.0,55.0,6.0,-18.0,-15.0,-16.0,-28.0,-5.0
1702324373.797066,-11.0,15.0,-32.0,8.0,3.0,-9.0,-8.0,16.0
1702324373.797066,-28.0,17.0,5.0,-9.0,1.0,-1.0,-15.0,-7.0
1702324373.797066,32.0,2.0,17.0,15.0,6.0,1.0,12.0,5.0
1702324373.797066,-7.0,22.0,11.0,-2.0,7.0,17.0,14.0,4.0
1702324373.8173087,-25.0,-44.0,-19.0,-5.0,-4.0,5.0,0.0,-28.0
1702324373.8173087,30.0,32.0,8.0,1.0,-15.0,-30.0,-3.0,25.0
1702324373.8173087,1.0,-37.0,12.0,-3.0,-6.0,13.0,-1.0,-9.0
1702324373.8173087,41.0,-24.0,-19.0,7.0,12.0,5.0,15.0,21.0
1702324373.8370988,11.0,-10.0,-22.0,-9.0,-10.0,-5.0,-14.0,-9.0
1702324373.8370988,-16.0,-20.0,7.0,-3.0,0.0,-6.0,-5.0,-28.0
1702324373.8370988,-16.0,-2.0,-3.0,-1.0,-2.0,-18.0,-8.0,8.0
1702324373.8370988,-5.0,-21.0,-7.0,-10.0,1.0,6.0,9.0,2.0
1702324373.8474302,-1.0,3.0,-13.0,4.0,2.0,-1.0,-8.0,-1.0
1702324373.8474302,7.0,8.0,9.0,4.0,2.0,-6.0,-10.0,-3.0
1702324373.8474302,-6.0,-15.0,-4.0,-18.0,-6.0,38.0,18.0,13.0
1702324373.8474302,-6.0,14.0,-5.0,-24.0,-13.0,-11.0,-9.0,-7.0
1702324373.8773637,-20.0,-16.0,9.0,-2.0,-7.0,-7.0,4.0,-12.0
1702324373.8773637,10.0,-10.0,-21.0,13.0,14.0,2.0,0.0,14.0
1702324373.8773637,-6.0,-14.0,5.0,7.0,-2.0,-10.0,-5.0,-2.0
1702324373.8773637,10.0,-1.0,-15.0,2.0,2.0,10.0,1.0,-3.0
1702324373.897078,-18.0,4.0,21.0,-17.0,-11.0,-19.0,-6.0,-11.0
1702324373.897078,17.0,2.0,-9.0,13.0,-7.0,-4.0,3.0,6.0
1702324373.897078,-8.0,-11.0,-10.0,7.0,7.0,-4.0,-5.0,-2.0
1702324373.897078,0.0,-1.0,12.0,-22.0,-12.0,2.0,-1.0,0.0
1702324373.90725,2.0,-2.0,-4.0,-9.0,-2.0,-7.0,-1.0,-1.0
1702324373.90725,5.0,10.0,34.0,52.0,15.0,16.0,5.0,2.0
1702324373.91707,-4.0,-6.0,26.0,0.0,2.0,-5.0,-4.0,-4.0
1702324373.91707,1.0,-1.0,3.0,16.0,2.0,-8.0,-7.0,-1.0
1702324373.937305,-3.0,-14.0,-68.0,-18.0,-3.0,7.0,3.0,-3.0
1702324373.937305,4.0,23.0,46.0,-5.0,-7.0,2.0,4.0,-3.0
1702324373.937305,0.0,21.0,-11.0,-5.0,-5.0,-11.0,-8.0,-1.0
1702324373.937305,-5.0,5.0,64.0,12.0,4.0,-9.0,-3.0,-1.0
1702324373.9571052,-10.0,-6.0,-50.0,-1.0,0.0,5.0,-6.0,-7.0
1702324373.9571052,3.0,-8.0,-81.0,-40.0,-10.0,-7.0,8.0,-2.0
1702324373.9670734,-26.0,-65.0,20.0,9.0,-1.0,3.0,-5.0,-9.0
1702324373.9670734,9.0,25.0,-16.0,3.0,3.0,-2.0,-3.0,11.0
1702324373.9870622,17.0,36.0,1.0,17.0,9.0,2.0,2.0,0.0
1702324373.9870622,20.0,-16.0,64.0,-14.0,-3.0,-2.0,-1.0,1.0
1702324373.9870622,-20.0,-16.0,-83.0,-10.0,-3.0,-7.0,-5.0,8.0
1702324373.9870622,7.0,19.0,70.0,6.0,-3.0,-2.0,-6.0,-29.0
1702324373.997092,11.0,-35.0,3.0,7.0,3.0,-2.0,0.0,15.0
1702324373.997092,42.0,12.0,3.0,-5.0,1.0,7.0,7.0,22.0
1702324373.997092,-45.0,-27.0,-25.0,-8.0,-5.0,-8.0,-20.0,-34.0
1702324373.997092,12.0,16.0,-21.0,12.0,13.0,27.0,25.0,26.0
1702324374.017405,-7.0,-3.0,13.0,0.0,0.0,-3.0,-1.0,-15.0
1702324374.017405,13.0,-8.0,-5.0,-16.0,-9.0,-2.0,6.0,11.0
1702324374.017405,-3.0,1.0,8.0,5.0,-1.0,-8.0,0.0,0.0
1702324374.017405,13.0,0.0,-15.0,-3.0,-8.0,-6.0,0.0,1.0
1702324374.027462,28.0,-8.0,38.0,2.0,2.0,-2.0,-6.0,-11.0
1702324374.027462,-55.0,2.0,-21.0,-7.0,2.0,-1.0,-2.0,3.0
1702324374.027462,10.0,-31.0,11.0,9.0,6.0,11.0,11.0,5.0
1702324374.027462,7.0,18.0,-6.0,-4.0,-10.0,-10.0,-1.0,-16.0
1702324374.057103,3.0,21.0,6.0,7.0,12.0,14.0,15.0,35.0
1702324374.057103,2.0,-32.0,-11.0,-10.0,-11.0,-5.0,-3.0,-2.0
1702324374.057103,16.0,18.0,4.0,-5.0,3.0,-4.0,-3.0,8.0
1702324374.057103,-20.0,-11.0,1.0,12.0,1.0,-7.0,-7.0,2.0
1702324374.08753,12.0,9.0,8.0,-2.0,-7.0,0.0,7.0,5.0
1702324374.08753,20.0,10.0,-11.0,-4.0,-9.0,0.0,23.0,5.0
1702324374.08753,-27.0,28.0,2.0,-14.0,4.0,5.0,-1.0,-10.0
1702324374.08753,0.0,-9.0,-13.0,-19.0,-8.0,-18.0,-39.0,-4.0
1702324374.08753,-69.0,-25.0,-23.0,0.0,-4.0,-3.0,-14.0,-26.0
1702324374.08753,-36.0,7.0,25.0,56.0,31.0,10.0,-7.0,-3.0
1702324374.0978913,30.0,19.0,7.0,-34.0,-10.0,-6.0,13.0,10.0
1702324374.0978913,13.0,-16.0,-18.0,30.0,14.0,8.0,14.0,10.0
1702324374.1175425,2.0,-1.0,15.0,13.0,2.0,-2.0,-7.0,-1.0
1702324374.1175425,-2.0,-5.0,-4.0,-17.0,-9.0,1.0,-1.0,-11.0
1702324374.1175425,0.0,22.0,2.0,7.0,-6.0,-8.0,1.0,-2.0
1702324374.1175425,-15.0,16.0,-5.0,-23.0,2.0,4.0,-2.0,-7.0
1702324374.137831,7.0,-5.0,-17.0,-21.0,-12.0,-7.0,2.0,-1.0
1702324374.137831,-12.0,-11.0,-10.0,20.0,9.0,5.0,-3.0,-8.0
1702324374.137831,22.0,61.0,6.0,2.0,7.0,1.0,-3.0,0.0
1702324374.137831,-15.0,-20.0,-17.0,2.0,2.0,3.0,0.0,-1.0
1702324374.1476133,-3.0,2.0,20.0,12.0,1.0,0.0,3.0,-1.0
1702324374.1476133,6.0,25.0,22.0,-29.0,-10.0,-4.0,-5.0,-4.0
1702324374.1573622,1.0,-52.0,-66.0,-5.0,-5.0,-2.0,-7.0,1.0
1702324374.1573622,5.0,9.0,6.0,-3.0,-5.0,-5.0,-2.0,-1.0
1702324374.193588,-1.0,-9.0,26.0,15.0,2.0,2.0,-5.0,-9.0
1702324374.193588,-5.0,-8.0,2.0,-14.0,-2.0,-1.0,-9.0,3.0
1702324374.193588,8.0,8.0,26.0,18.0,3.0,4.0,11.0,2.0
1702324374.193588,-6.0,-37.0,-54.0,-20.0,-5.0,2.0,2.0,-4.0
1702324374.1989183,-5.0,17.0,-3.0,-8.0,-1.0,0.0,1.0,5.0
1702324374.1989183,17.0,34.0,8.0,-7.0,-3.0,-3.0,-6.0,-2.0
1702324374.1989183,0.0,6.0,-16.0,1.0,-8.0,-7.0,-12.0,-10.0
1702324374.1989183,-1.0,-34.0,-10.0,-3.0,-5.0,-2.0,11.0,-20.0
1702324374.2091854,-19.0,5.0,16.0,-6.0,-4.0,-6.0,-15.0,2.0
1702324374.2091854,23.0,42.0,-16.0,12.0,9.0,8.0,11.0,-3.0
1702324374.218921,16.0,20.0,-1.0,8.0,7.0,3.0,-10.0,2.0
1702324374.218921,-13.0,33.0,5.0,-4.0,-3.0,-6.0,5.0,19.0
1702324374.2289205,16.0,41.0,-20.0,0.0,-2.0,-8.0,-20.0,-28.0
1702324374.2289205,6.0,-9.0,13.0,-10.0,-12.0,-12.0,6.0,-10.0
1702324374.2389195,-38.0,-35.0,10.0,-4.0,-6.0,13.0,10.0,7.0
1702324374.2389195,-30.0,-3.0,0.0,-2.0,-3.0,-3.0,-6.0,-25.0
1702324374.2578723,-9.0,-19.0,-5.0,-2.0,-5.0,1.0,0.0,13.0
1702324374.2578723,21.0,-2.0,-11.0,-2.0,-4.0,-7.0,-12.0,7.0
1702324374.2578723,27.0,38.0,-2.0,5.0,-4.0,-3.0,14.0,22.0
1702324374.2578723,19.0,0.0,54.0,3.0,7.0,6.0,6.0,4.0
1702324374.2678823,-9.0,0.0,6.0,3.0,6.0,-1.0,1.0,-5.0
1702324374.2678823,-24.0,-46.0,-35.0,-5.0,12.0,4.0,-5.0,-7.0
1702324374.277893,8.0,-15.0,5.0,6.0,-2.0,-9.0,-8.0,15.0
1702324374.277893,5.0,0.0,-8.0,4.0,-6.0,8.0,-3.0,5.0
1702324374.2982004,6.0,0.0,-3.0,-3.0,9.0,-1.0,10.0,3.0
1702324374.2982004,4.0,-7.0,2.0,6.0,7.0,-2.0,-19.0,-5.0
1702324374.2982004,-1.0,-6.0,13.0,-4.0,-15.0,-28.0,3.0,-13.0
1702324374.2982004,17.0,12.0,-8.0,-6.0,-11.0,-5.0,18.0,15.0
1702324374.3181596,-35.0,-39.0,-33.0,-32.0,-18.0,17.0,-16.0,-20.0
1702324374.3181596,-38.0,-21.0,-21.0,-19.0,-7.0,13.0,12.0,-7.0
1702324374.3181596,-5.0,-4.0,23.0,14.0,12.0,0.0,-2.0,-7.0
1702324374.3181596,1.0,-25.0,-5.0,-6.0,-7.0,-22.0,-22.0,-5.0
1702324374.3278835,19.0,16.0,52.0,69.0,21.0,-2.0,12.0,6.0
1702324374.3278835,-5.0,2.0,-27.0,-12.0,-3.0,-6.0,-7.0,1.0
1702324374.3381171,2.0,-13.0,-20.0,-22.0,-6.0,3.0,-2.0,4.0
1702324374.3381171,2.0,14.0,8.0,-4.0,9.0,8.0,3.0,2.0
1702324374.3578827,13.0,2.0,10.0,-3.0,-10.0,-6.0,-1.0,2.0
1702324374.3578827,-2.0,-4.0,-19.0,-3.0,-2.0,0.0,-3.0,5.0
1702324374.3578827,0.0,2.0,-11.0,-17.0,-2.0,2.0,-2.0,-5.0
1702324374.3578827,-13.0,-12.0,19.0,-6.0,-4.0,1.0,-7.0,-2.0
1702324374.3778875,3.0,7.0,9.0,-16.0,-6.0,-4.0,2.0,3.0
1702324374.3778875,2.0,-2.0,10.0,-4.0,-6.0,-7.0,0.0,1.0
1702324374.3778875,-2.0,-7.0,13.0,-9.0,-2.0,4.0,-3.0,-5.0
1702324374.3778875,4.0,21.0,-32.0,-2.0,1.0,2.0,-1.0,0.0
1702324374.4078813,-8.0,-25.0,-13.0,-3.0,-1.0,-5.0,-1.0,0.0
1702324374.4078813,3.0,15.0,65.0,-14.0,-7.0,-2.0,1.0,-3.0
1702324374.4078813,-5.0,-29.0,-35.0,35.0,9.0,5.0,-2.0,-2.0
1702324374.4078813,7.0,57.0,-6.0,22.0,11.0,2.0,-6.0,4.0
1702324374.4180677,14.0,-8.0,-4.0,-1.0,2.0,-5.0,7.0,-2.0
1702324374.4180677,0.0,12.0,13.0,-8.0,-10.0,-3.0,1.0,2.0
1702324374.4180677,-7.0,-32.0,11.0,-10.0,-3.0,4.0,7.0,-1.0
1702324374.4180677,9.0,-3.0,15.0,1.0,-5.0,-10.0,-4.0,5.0
1702324374.4378881,-10.0,-19.0,-46.0,0.0,8.0,19.0,34.0,15.0
1702324374.4378881,6.0,19.0,-2.0,5.0,-1.0,-4.0,-30.0,-16.0
1702324374.4378881,-9.0,2.0,49.0,3.0,-1.0,-3.0,-6.0,-5.0
1702324374.4378881,-11.0,-38.0,-35.0,0.0,-2.0,-5.0,-4.0,-7.0
1702324374.4578848,16.0,31.0,30.0,-11.0,-5.0,-7.0,-4.0,7.0
1702324374.4578848,11.0,11.0,-19.0,10.0,4.0,5.0,11.0,13.0
1702324374.4578848,24.0,-29.0,8.0,12.0,10.0,4.0,1.0,0.0
1702324374.4578848,5.0,6.0,-15.0,-11.0,-6.0,-3.0,-5.0,-24.0
1702324374.4782007,-32.0,-21.0,-35.0,-11.0,-8.0,-9.0,-20.0,-19.0
1702324374.4782007,-42.0,-31.0,24.0,-3.0,-8.0,-10.0,11.0,16.0
1702324374.4782007,1.0,8.0,3.0,6.0,2.0,8.0,-7.0,-3.0
1702324374.4782007,32.0,42.0,-6.0,9.0,12.0,12.0,20.0,15.0
1702324374.498153,11.0,5.0,-27.0,-7.0,-5.0,-5.0,-8.0,-3.0
1702324374.498153,25.0,41.0,30.0,4.0,-1.0,3.0,9.0,-6.0
1702324374.498153,-39.0,-28.0,-15.0,-14.0,-12.0,-10.0,0.0,10.0
1702324374.498153,-10.0,-97.0,24.0,2.0,1.0,2.0,0.0,1.0
1702324374.518202,-3.0,25.0,-12.0,4.0,10.0,3.0,-3.0,-1.0
1702324374.518202,1.0,-32.0,-31.0,-2.0,0.0,7.0,1.0,7.0
1702324374.518202,23.0,21.0,7.0,10.0,18.0,-10.0,-5.0,-7.0
1702324374.518202,-18.0,11.0,18.0,8.0,5.0,6.0,-2.0,4.0
1702324374.5382195,27.0,-8.0,-6.0,-14.0,-13.0,-8.0,-2.0,14.0
1702324374.5382195,-71.0,-14.0,-7.0,-1.0,-14.0,-3.0,-16.0,-20.0
1702324374.5382195,-19.0,21.0,1.0,-12.0,-6.0,-2.0,-7.0,-17.0
1702324374.5382195,-22.0,-6.0,-12.0,-4.0,4.0,27.0,14.0,1.0
1702324374.5581336,14.0,2.0,12.0,-9.0,-5.0,0.0,1.0,7.0
1702324374.5581336,14.0,-6.0,-3.0,27.0,8.0,-1.0,5.0,-4.0
1702324374.5581336,24.0,9.0,-14.0,-19.0,-7.0,-7.0,-9.0,0.0
1702324374.5581336,-4.0,-3.0,16.0,19.0,-3.0,-20.0,-12.0,-5.0
1702324374.587884,11.0,-4.0,14.0,-4.0,0.0,-3.0,-2.0,-6.0
1702324374.587884,4.0,-27.0,-32.0,-5.0,1.0,0.0,-3.0,3.0
1702324374.587884,2.0,22.0,-9.0,-16.0,-7.0,-7.0,-2.0,-3.0
1702324374.587884,6.0,-1.0,5.0,-12.0,-7.0,-4.0,-3.0,-1.0
1702324374.5979154,-3.0,9.0,19.0,-1.0,-4.0,2.0,0.0,-2.0
1702324374.5979154,12.0,1.0,0.0,0.0,0.0,-5.0,-4.0,0.0
1702324374.5979154,-14.0,2.0,8.0,-10.0,1.0,5.0,1.0,-4.0
1702324374.5979154,-1.0,-1.0,-15.0,-2.0,-4.0,0.0,-2.0,-1.0
1702324374.6282153,-5.0,6.0,34.0,48.0,12.0,3.0,-2.0,-2.0
1702324374.6282153,3.0,-1.0,10.0,-15.0,-6.0,-6.0,-2.0,-6.0
1702324374.6282153,5.0,-10.0,-37.0,-8.0,3.0,7.0,3.0,6.0
1702324374.6282153,12.0,21.0,12.0,-18.0,-4.0,-1.0,-2.0,1.0
1702324374.6382637,-35.0,8.0,5.0,4.0,1.0,-4.0,-1.0,-9.0
1702324374.6382637,10.0,8.0,-9.0,-5.0,-2.0,2.0,-2.0,-4.0
1702324374.6382637,-5.0,0.0,39.0,10.0,-2.0,1.0,0.0,-1.0
1702324374.6382637,-4.0,-6.0,-103.0,-14.0,-6.0,-13.0,-14.0,3.0
1702324374.6582596,2.0,-17.0,-39.0,-16.0,1.0,8.0,15.0,-6.0
1702324374.6582596,6.0,7.0,19.0,-2.0,3.0,1.0,5.0,10.0
1702324374.6582596,5.0,25.0,58.0,9.0,-6.0,1.0,2.0,0.0
1702324374.6582596,-14.0,-12.0,24.0,-1.0,-2.0,-6.0,-10.0,-11.0
1702324374.677881,4.0,-7.0,-29.0,3.0,0.0,3.0,-3.0,3.0
1702324374.677881,1.0,-15.0,-33.0,-5.0,1.0,5.0,14.0,12.0
1702324374.677881,-5.0,-5.0,-28.0,12.0,6.0,3.0,-3.0,-9.0
1702324374.677881,8.0,10.0,53.0,9.0,2.0,5.0,11.0,13.0
1702324374.7038155,-2.0,36.0,-11.0,-16.0,-6.0,-3.0,-6.0,4.0
1702324374.7038155,12.0,-45.0,23.0,6.0,3.0,0.0,5.0,-3.0
1702324374.7038155,-10.0,-27.0,-32.0,5.0,2.0,-4.0,-17.0,-10.0
1702324374.7048273,1.0,3.0,-8.0,-7.0,-4.0,-6.0,-5.0,-17.0
1702324374.718223,19.0,25.0,16.0,-5.0,-3.0,-4.0,3.0,4.0
1702324374.718223,-17.0,21.0,-13.0,-3.0,-4.0,2.0,2.0,16.0
1702324374.718223,1.0,29.0,9.0,8.0,1.0,-3.0,11.0,3.0
1702324374.718223,-20.0,-74.0,5.0,-10.0,-11.0,-11.0,-20.0,-15.0
1702324374.733137,-16.0,-5.0,2.0,-2.0,1.0,-5.0,-11.0,-18.0
1702324374.733137,19.0,12.0,7.0,1.0,-8.0,-7.0,1.0,9.0
1702324374.733137,1.0,-32.0,-16.0,3.0,10.0,9.0,9.0,16.0
1702324374.733137,32.0,42.0,3.0,5.0,0.0,-2.0,1.0,-3.0
1702324374.763147,-17.0,-39.0,-3.0,-1.0,10.0,1.0,2.0,-1.0
1702324374.763147,-4.0,11.0,0.0,1.0,-13.0,-4.0,-20.0,-21.0
1702324374.763147,-3.0,16.0,1.0,3.0,6.0,9.0,13.0,-2.0
1702324374.763147,-5.0,-15.0,0.0,7.0,8.0,2.0,1.0,-1.0
1702324374.7735162,4.0,-4.0,12.0,-3.0,-8.0,-7.0,-9.0,3.0
1702324374.7735162,3.0,23.0,7.0,-7.0,-13.0,-5.0,3.0,-5.0
1702324374.7735162,-14.0,-19.0,-13.0,-11.0,-9.0,6.0,0.0,-10.0
1702324374.7735162,4.0,6.0,-4.0,-21.0,-2.0,-1.0,-4.0,12.0
1702324374.803539,14.0,-12.0,-10.0,-6.0,-5.0,1.0,2.0,-7.0
1702324374.803539,7.0,4.0,30.0,72.0,23.0,-6.0,-8.0,4.0
1702324374.803539,-37.0,8.0,19.0,18.0,-4.0,-9.0,-11.0,-13.0
1702324374.803539,-22.0,-9.0,-37.0,-9.0,3.0,3.0,2.0,-4.0
1702324374.8237927,-1.0,-5.0,-11.0,-18.0,-8.0,-4.0,-4.0,2.0
1702324374.8237927,11.0,-10.0,-15.0,-14.0,1.0,-4.0,-3.0,-10.0
1702324374.8237927,28.0,17.0,42.0,-1.0,-4.0,-3.0,1.0,9.0
1702324374.8237927,-13.0,-15.0,-25.0,19.0,7.0,6.0,2.0,-1.0
1702324374.8435335,8.0,6.0,19.0,-17.0,-9.0,-3.0,2.0,4.0
1702324374.8435335,-4.0,5.0,-50.0,-24.0,-2.0,5.0,1.0,-3.0
1702324374.8435335,-24.0,-69.0,7.0,15.0,-1.0,-9.0,-9.0,-13.0
1702324374.8435335,21.0,81.0,31.0,-20.0,-2.0,2.0,5.0,3.0
1702324374.8537703,-22.0,-54.0,8.0,30.0,3.0,-3.0,-2.0,-7.0
1702324374.8537703,-18.0,-33.0,3.0,6.0,6.0,3.0,-4.0,-7.0
1702324374.8537703,8.0,24.0,-25.0,-17.0,-7.0,-3.0,-4.0,6.0
1702324374.8537703,7.0,-8.0,17.0,14.0,-2.0,-4.0,2.0,3.0
1702324374.8837624,1.0,22.0,-14.0,-13.0,2.0,2.0,-3.0,3.0
1702324374.8837624,-7.0,-1.0,6.0,-7.0,1.0,-6.0,3.0,-2.0
1702324374.8837624,7.0,-19.0,-32.0,-11.0,-5.0,-5.0,-4.0,-3.0
1702324374.8837624,-3.0,14.0,21.0,3.0,-3.0,-5.0,4.0,-24.0
1702324374.9135067,0.0,20.0,66.0,7.0,0.0,14.0,-7.0,17.0
1702324374.9135067,-9.0,-8.0,-13.0,-11.0,-5.0,-4.0,-6.0,3.0
1702324374.9135067,31.0,80.0,-16.0,0.0,2.0,-3.0,-1.0,8.0
1702324374.9135067,-35.0,-17.0,-46.0,2.0,-3.0,-3.0,17.0,-4.0
1702324374.9135067,-6.0,-29.0,19.0,2.0,-2.0,-13.0,-27.0,2.0
1702324374.9135067,5.0,-7.0,1.0,-1.0,1.0,7.0,5.0,-5.0
1702324374.9135067,26.0,48.0,26.0,-2.0,-1.0,-6.0,-4.0,-19.0
1702324374.9135067,4.0,-22.0,-31.0,-11.0,-5.0,5.0,-13.0,4.0
1702324374.9439547,40.0,18.0,-1.0,4.0,-1.0,1.0,9.0,14.0
1702324374.9439547,-86.0,-30.0,-21.0,-9.0,-3.0,-9.0,-12.0,-31.0
1702324374.9439547,-4.0,-18.0,-2.0,4.0,3.0,1.0,-5.0,13.0
1702324374.9439547,3.0,-6.0,14.0,-4.0,-7.0,-3.0,29.0,1.0
1702324374.9635055,30.0,-11.0,-19.0,-13.0,-22.0,-7.0,-19.0,6.0
1702324374.9635055,3.0,10.0,3.0,-2.0,4.0,16.0,4.0,7.0
1702324374.9635055,-14.0,-10.0,-6.0,7.0,20.0,4.0,3.0,0.0
1702324374.9635055,11.0,-7.0,31.0,16.0,21.0,3.0,-15.0,-4.0
1702324374.9737928,-9.0,25.0,-6.0,17.0,8.0,-5.0,43.0,-1.0
1702324374.9737928,26.0,1.0,-5.0,-7.0,-9.0,-16.0,-19.0,-21.0
1702324374.9737928,-22.0,-9.0,8.0,-5.0,-19.0,-11.0,-11.0,11.0
1702324374.9737928,4.0,0.0,7.0,-10.0,-7.0,38.0,15.0,16.0
1702324375.003804,-14.0,-7.0,-42.0,-29.0,-2.0,-6.0,-4.0,-10.0
1702324375.003804,1.0,10.0,4.0,-3.0,6.0,2.0,6.0,7.0
1702324375.003804,3.0,-24.0,22.0,35.0,14.0,-7.0,6.0,0.0
1702324375.003804,13.0,1.0,6.0,40.0,3.0,-13.0,-17.0,-1.0
1702324375.0335066,-21.0,0.0,-17.0,0.0,-3.0,-2.0,0.0,-13.0
1702324375.0335066,-11.0,2.0,21.0,-11.0,-7.0,-2.0,3.0,5.0
1702324375.0335066,-17.0,-4.0,-21.0,-5.0,-1.0,3.0,-5.0,-9.0
1702324375.0335066,-22.0,-18.0,-34.0,-34.0,-4.0,-2.0,-6.0,0.0
1702324375.0335066,12.0,20.0,26.0,23.0,4.0,9.0,3.0,2.0
1702324375.0335066,20.0,-4.0,11.0,7.0,-10.0,-7.0,-3.0,7.0
1702324375.0335066,-7.0,-23.0,-37.0,-17.0,-8.0,1.0,4.0,4.0
1702324375.0335066,-29.0,49.0,36.0,-46.0,-18.0,-10.0,-7.0,-7.0
1702324375.0638325,-6.0,-19.0,-25.0,36.0,11.0,0.0,0.0,-8.0
1702324375.0638325,-8.0,-43.0,-11.0,-5.0,-4.0,-3.0,-8.0,-9.0
1702324375.0638325,4.0,-8.0,28.0,0.0,-3.0,3.0,4.0,-4.0
1702324375.0638325,1.0,4.0,-20.0,-13.0,-6.0,-6.0,-6.0,1.0
1702324375.0735068,-5.0,14.0,3.0,-19.0,-6.0,-2.0,-1.0,-16.0
1702324375.0735068,8.0,26.0,28.0,2.0,3.0,4.0,7.0,16.0
1702324375.083532,2.0,-31.0,-79.0,-15.0,-5.0,2.0,11.0,-3.0
1702324375.083532,13.0,-6.0,-15.0,7.0,1.0,-11.0,-26.0,8.0
1702324375.093917,-14.0,4.0,37.0,-7.0,-5.0,2.0,-2.0,-21.0
1702324375.093917,12.0,10.0,-23.0,11.0,8.0,8.0,11.0,30.0
1702324375.093917,16.0,5.0,15.0,-22.0,-9.0,-5.0,12.0,-3.0
1702324375.093917,-4.0,-56.0,3.0,13.0,8.0,4.0,1.0,-2.0
1702324375.1235077,-9.0,-6.0,-14.0,7.0,5.0,3.0,-4.0,9.0
1702324375.1235077,6.0,15.0,8.0,-4.0,2.0,-1.0,-2.0,2.0
1702324375.1235077,-3.0,10.0,26.0,-2.0,1.0,7.0,0.0,0.0
1702324375.1235077,-3.0,-10.0,-4.0,14.0,0.0,-3.0,2.0,5.0
1702324375.143935,-3.0,-36.0,30.0,-6.0,-1.0,-7.0,-1.0,-15.0
1702324375.143935,19.0,-7.0,-91.0,-19.0,-6.0,-5.0,7.0,-13.0
1702324375.143935,-12.0,20.0,37.0,1.0,-5.0,-14.0,-3.0,4.0
1702324375.143935,2.0,7.0,-4.0,11.0,2.0,23.0,-5.0,11.0
1702324375.153906,-59.0,-11.0,-7.0,-9.0,0.0,3.0,4.0,15.0
1702324375.153906,-2.0,-44.0,25.0,-2.0,-1.0,-8.0,-5.0,-32.0
1702324375.153906,-10.0,10.0,-10.0,-1.0,-2.0,-9.0,-32.0,-37.0
1702324375.153906,2.0,-22.0,5.0,5.0,0.0,3.0,12.0,16.0
1702324375.1838183,31.0,43.0,-8.0,-5.0,-5.0,4.0,14.0,25.0
1702324375.1838183,-4.0,-8.0,6.0,4.0,9.0,-1.0,0.0,-16.0
1702324375.1838183,12.0,48.0,-2.0,1.0,0.0,0.0,6.0,20.0
1702324375.1838183,-3.0,-19.0,19.0,3.0,8.0,-10.0,-6.0,-16.0
1702324375.203505,17.0,15.0,-10.0,7.0,12.0,9.0,4.0,7.0
1702324375.203505,-6.0,16.0,9.0,-5.0,-6.0,2.0,-2.0,12.0
1702324375.203505,20.0,4.0,4.0,-7.0,-11.0,0.0,1.0,-8.0
1702324375.203505,-14.0,1.0,-4.0,3.0,-1.0,-3.0,6.0,-1.0
1702324375.2139003,-6.0,-17.0,-7.0,14.0,3.0,0.0,-1.0,-3.0
1702324375.2139003,4.0,14.0,16.0,1.0,1.0,2.0,-5.0,-1.0
1702324375.2139003,1.0,-27.0,-22.0,0.0,-7.0,2.0,-3.0,8.0
1702324375.2139003,-1.0,11.0,-6.0,-16.0,-6.0,-6.0,1.0,0.0
1702324375.2440715,-21.0,1.0,1.0,38.0,5.0,-4.0,-7.0,-18.0
1702324375.2440715,-6.0,11.0,5.0,-10.0,-5.0,-1.0,-13.0,-7.0
1702324375.2440715,-7.0,-5.0,21.0,11.0,4.0,6.0,2.0,9.0
1702324375.2440715,3.0,19.0,-20.0,-16.0,0.0,-4.0,0.0,-3.0
1702324375.257555,22.0,10.0,-30.0,-36.0,-9.0,-6.0,-2.0,-8.0
1702324375.257555,-3.0,4.0,25.0,40.0,8.0,5.0,4.0,7.0
1702324375.2646537,1.0,-38.0,3.0,-24.0,-7.0,-3.0,0.0,7.0
1702324375.2646537,-3.0,49.0,25.0,44.0,16.0,3.0,2.0,-5.0
1702324375.2750943,-16.0,-65.0,14.0,-29.0,-7.0,-2.0,-7.0,-8.0
1702324375.2750943,-5.0,3.0,-51.0,-17.0,-7.0,-1.0,-1.0,1.0
1702324375.2750943,3.0,31.0,2.0,-20.0,4.0,2.0,0.0,6.0
1702324375.2750943,5.0,2.0,-13.0,37.0,6.0,1.0,2.0,1.0
1702324375.2946877,3.0,-6.0,55.0,13.0,-4.0,-1.0,-3.0,-1.0
1702324375.3046563,-4.0,2.0,0.0,-18.0,-10.0,-8.0,2.0,3.0
1702324375.3046563,-1.0,5.0,0.0,9.0,3.0,-4.0,-23.0,-15.0
1702324375.3046563,2.0,1.0,-37.0,-33.0,-15.0,-9.0,1.0,-5.0
1702324375.314687,1.0,5.0,-11.0,-7.0,1.0,0.0,-17.0,-3.0
1702324375.314687,0.0,-20.0,20.0,1.0,2.0,-5.0,7.0,19.0
1702324375.3247042,-11.0,1.0,1.0,-5.0,-5.0,4.0,4.0,1.0
1702324375.3247042,-3.0,-23.0,7.0,4.0,2.0,-3.0,-9.0,-7.0
1702324375.3348422,5.0,2.0,-14.0,0.0,5.0,-8.0,-16.0,2.0
1702324375.3348422,-3.0,3.0,24.0,8.0,8.0,20.0,12.0,-11.0
1702324375.3348422,27.0,-7.0,-51.0,6.0,1.0,-11.0,-10.0,31.0
1702324375.3348422,-4.0,11.0,14.0,-7.0,-7.0,18.0,13.0,-29.0
1702324375.364203,-18.0,-31.0,-14.0,-12.0,-10.0,1.0,9.0,-31.0
1702324375.364203,2.0,24.0,-2.0,-7.0,-7.0,-11.0,-2.0,19.0
1702324375.364203,11.0,78.0,33.0,16.0,9.0,5.0,12.0,13.0
1702324375.364203,-25.0,-47.0,4.0,-7.0,-9.0,-23.0,-26.0,-46.0
1702324375.3746414,-5.0,25.0,-24.0,-6.0,-3.0,-3.0,4.0,30.0
1702324375.3746414,-8.0,28.0,-4.0,-2.0,0.0,11.0,12.0,-22.0
1702324375.3845673,4.0,-42.0,-3.0,-2.0,-6.0,0.0,4.0,11.0
1702324375.3845673,16.0,-2.0,4.0,-6.0,-12.0,-6.0,1.0,23.0
1702324375.394606,-1.0,2.0,-7.0,6.0,2.0,1.0,-3.0,-7.0
1702324375.394606,-9.0,-10.0,1.0,6.0,16.0,-5.0,-7.0,-5.0
1702324375.394606,-9.0,-30.0,-1.0,5.0,12.0,6.0,2.0,-7.0
1702324375.394606,13.0,18.0,8.0,0.0,-7.0,-32.0,-37.0,16.0
1702324375.4242158,-6.0,-14.0,-5.0,-2.0,-8.0,35.0,51.0,-2.0
1702324375.4242158,14.0,-5.0,-3.0,2.0,-4.0,-1.0,-3.0,16.0
1702324375.4242158,-15.0,-7.0,-8.0,-13.0,-10.0,14.0,11.0,-37.0
1702324375.4242158,-17.0,-31.0,-18.0,-30.0,-10.0,6.0,-1.0,1.0
1702324375.444483,-4.0,5.0,-7.0,12.0,6.0,-18.0,-21.0,2.0
1702324375.444483,6.0,3.0,-6.0,-15.0,-8.0,-10.0,-12.0,-7.0
1702324375.444483,6.0,18.0,13.0,5.0,1.0,-4.0,-4.0,-7.0
1702324375.444483,-12.0,0.0,30.0,15.0,4.0,-8.0,2.0,2.0
1702324375.4542143,19.0,2.0,-15.0,-14.0,1.0,-2.0,-8.0,4.0
1702324375.4542143,3.0,-11.0,-54.0,-38.0,-18.0,-4.0,-1.0,-1.0
1702324375.4542143,-11.0,-24.0,12.0,45.0,14.0,-5.0,-5.0,2.0
1702324375.4542143,10.0,5.0,-7.0,-2.0,-2.0,12.0,10.0,5.0
1702324375.4842148,10.0,-8.0,-27.0,-3.0,-1.0,-4.0,-3.0,0.0
1702324375.4842148,7.0,15.0,13.0,-23.0,-8.0,-3.0,-8.0,-2.0
1702324375.4842148,-4.0,14.0,16.0,-28.0,-19.0,-6.0,-2.0,-2.0
1702324375.4842148,9.0,13.0,8.0,4.0,10.0,9.0,8.0,2.0
1702324375.504505,-15.0,-24.0,29.0,35.0,8.0,-2.0,-1.0,1.0
1702324375.504505,-9.0,13.0,-15.0,1.0,0.0,-6.0,-9.0,-9.0
1702324375.504505,-4.0,-19.0,-26.0,21.0,9.0,4.0,6.0,-2.0
1702324375.504505,5.0,9.0,6.0,-3.0,0.0,4.0,8.0,-11.0
1702324375.5142176,-14.0,33.0,23.0,-18.0,-9.0,-10.0,2.0,1.0
1702324375.5142176,-3.0,4.0,41.0,12.0,2.0,0.0,-13.0,-4.0
1702324375.5242188,-8.0,-21.0,-15.0,-7.0,-5.0,-4.0,-4.0,-16.0
1702324375.5242188,1.0,-41.0,-13.0,4.0,5.0,0.0,-3.0,2.0
1702324375.5442154,8.0,19.0,-7.0,-5.0,0.0,2.0,-1.0,-13.0
1702324375.5442154,11.0,-12.0,0.0,10.0,-3.0,-2.0,14.0,10.0
1702324375.5442154,-13.0,1.0,4.0,-3.0,3.0,-2.0,-14.0,-5.0
1702324375.5442154,10.0,18.0,4.0,2.0,-3.0,-8.0,1.0,-1.0
1702324375.564136,14.0,26.0,-8.0,-12.0,2.0,23.0,-8.0,2.0
1702324375.564136,-35.0,-51.0,10.0,16.0,5.0,11.0,12.0,-5.0
1702324375.564136,33.0,26.0,-8.0,-13.0,-8.0,-11.0,-8.0,6.0
1702324375.564136,-34.0,-21.0,-16.0,-8.0,-3.0,1.0,12.0,4.0
1702324375.5741463,-2.0,21.0,5.0,8.0,2.0,-21.0,-13.0,15.0
1702324375.5741463,19.0,8.0,14.0,11.0,6.0,9.0,-15.0,-51.0
1702324375.5741463,-13.0,3.0,-19.0,-6.0,-5.0,13.0,-3.0,-14.0
1702324375.5741463,31.0,6.0,3.0,1.0,2.0,-5.0,3.0,26.0
1702324375.594495,-10.0,-29.0,14.0,-15.0,-16.0,-7.0,-8.0,-22.0
1702324375.594495,-11.0,12.0,-27.0,0.0,-4.0,-9.0,2.0,10.0
1702324375.594495,-7.0,-50.0,1.0,1.0,12.0,1.0,7.0,7.0
1702324375.594495,1.0,7.0,2.0,0.0,3.0,3.0,2.0,-6.0
1702324375.6241462,2.0,-4.0,1.0,8.0,11.0,-3.0,1.0,-11.0
1702324375.6241462,-1.0,-1.0,-2.0,3.0,1.0,-14.0,-9.0,23.0
1702324375.6241462,1.0,0.0,3.0,-1.0,-2.0,15.0,18.0,-2.0
1702324375.6241462,4.0,13.0,4.0,-5.0,-7.0,-15.0,-6.0,22.0
1702324375.634398,22.0,11.0,-1.0,-10.0,-7.0,5.0,14.0,13.0
1702324375.634398,-13.0,-10.0,-15.0,-22.0,-16.0,3.0,-12.0,-18.0
1702324375.634398,11.0,5.0,-16.0,-28.0,-10.0,4.0,-15.0,-4.0
1702324375.634398,-40.0,-15.0,22.0,55.0,15.0,6.0,-4.0,-23.0
1702324375.6641552,47.0,18.0,-12.0,-25.0,-1.0,-7.0,6.0,28.0
1702324375.6641552,-34.0,-1.0,40.0,57.0,19.0,-2.0,1.0,-19.0
1702324375.6641552,-5.0,-4.0,44.0,-8.0,-9.0,-10.0,0.0,7.0
1702324375.6641552,11.0,-5.0,-88.0,-49.0,-15.0,1.0,-2.0,-1.0
1702324375.6941495,-9.0,-8.0,-18.0,9.0,-4.0,-7.0,-5.0,-7.0
1702324375.6941495,22.0,6.0,2.0,-5.0,5.0,6.0,5.0,18.0
1702324375.6941495,-2.0,-9.0,13.0,17.0,0.0,-6.0,-5.0,-1.0
1702324375.6941495,-4.0,9.0,31.0,-3.0,-4.0,-2.0,-6.0,-12.0
1702324375.6941495,3.0,8.0,-19.0,-33.0,-2.0,4.0,2.0,1.0
1702324375.6941495,18.0,15.0,29.0,11.0,-2.0,-1.0,0.0,11.0
1702324375.6941495,-30.0,-35.0,-17.0,60.0,19.0,-1.0,-2.0,-6.0
1702324375.6941495,14.0,30.0,19.0,-21.0,-9.0,-1.0,-2.0,1.0
1702324375.7141502,-11.0,6.0,-45.0,-11.0,7.0,3.0,0.0,-1.0
1702324375.7141502,9.0,-18.0,19.0,19.0,-3.0,-2.0,-1.0,-1.0
1702324375.7141502,11.0,28.0,-8.0,-13.0,0.0,-4.0,4.0,6.0
1702324375.7241526,4.0,-18.0,21.0,1.0,0.0,-1.0,-5.0,-1.0
1702324375.744194,-5.0,11.0,15.0,4.0,-1.0,-4.0,-2.0,3.0
1702324375.744194,-7.0,-40.0,-53.0,-25.0,-7.0,-3.0,-6.0,-1.0
1702324375.744194,-19.0,9.0,5.0,-12.0,-5.0,-4.0,2.0,-2.0
1702324375.744194,6.0,8.0,12.0,2.0,0.0,-3.0,-17.0,-28.0
1702324375.7542982,2.0,33.0,-4.0,6.0,-5.0,-1.0,0.0,13.0
1702324375.7542982,-4.0,-8.0,3.0,-9.0,-2.0,-5.0,-4.0,-10.0
1702324375.7542982,-2.0,-28.0,4.0,8.0,8.0,3.0,2.0,11.0
1702324375.7542982,1.0,-24.0,-11.0,0.0,1.0,10.0,26.0,47.0
1702324375.807357,-7.0,-19.0,-8.0,14.0,4.0,-6.0,-7.0,-7.0
1702324375.807357,-7.0,-7.0,-25.0,-12.0,-10.0,-26.0,-10.0,7.0
1702324375.807357,11.0,21.0,-15.0,-15.0,-8.0,-28.0,-37.0,-10.0
1702324375.807357,2.0,-2.0,21.0,7.0,10.0,71.0,42.0,-18.0
1702324375.807357,-19.0,-27.0,18.0,11.0,1.0,-2.0,-22.0,-4.0
1702324375.807357,3.0,-22.0,-22.0,-10.0,1.0,33.0,41.0,12.0
1702324375.807357,-34.0,8.0,12.0,-12.0,-10.0,-11.0,-10.0,-36.0
1702324375.807357,-18.0,-30.0,-16.0,-2.0,-8.0,-39.0,-19.0,1.0
1702324375.8177345,-2.0,-47.0,-24.0,-3.0,-3.0,5.0,4.0,-7.0
1702324375.8177345,25.0,51.0,29.0,0.0,3.0,-8.0,-2.0,-11.0
1702324375.8177345,-12.0,11.0,-1.0,3.0,9.0,-1.0,4.0,0.0
1702324375.8177345,-8.0,26.0,-2.0,1.0,1.0,-3.0,-1.0,-3.0
1702324375.837767,-5.0,-23.0,18.0,5.0,-6.0,-1.0,0.0,-14.0
1702324375.837767,-4.0,1.0,-15.0,-6.0,0.0,-9.0,-15.0,-1.0
1702324375.837767,13.0,-10.0,13.0,1.0,-8.0,13.0,15.0,12.0
1702324375.837767,1.0,21.0,1.0,-1.0,-1.0,-5.0,-4.0,-4.0
1702324375.8644772,3.0,15.0,-11.0,-46.0,-5.0,-10.0,-3.0,1.0
1702324375.8644772,-1.0,-10.0,11.0,46.0,9.0,10.0,0.0,3.0
1702324375.8644772,11.0,-7.0,-10.0,6.0,-4.0,2.0,8.0,5.0
1702324375.8644772,-5.0,-2.0,-31.0,-12.0,-6.0,-9.0,-7.0,-3.0
1702324375.874705,20.0,18.0,34.0,16.0,0.0,2.0,2.0,5.0
1702324375.874705,-20.0,-17.0,-44.0,-63.0,-13.0,-3.0,-4.0,-7.0
1702324375.8844898,7.0,16.0,12.0,10.0,6.0,6.0,6.0,-1.0
1702324375.8844898,-15.0,-5.0,15.0,14.0,2.0,-6.0,-8.0,0.0
1702324375.8946073,2.0,-2.0,-27.0,-10.0,2.0,2.0,0.0,-2.0
1702324375.8946073,0.0,23.0,34.0,-4.0,0.0,3.0,2.0,2.0
1702324375.904545,1.0,3.0,16.0,-7.0,-7.0,1.0,1.0,3.0
1702324375.904545,16.0,4.0,3.0,5.0,8.0,-2.0,-2.0,5.0
1702324375.9244893,-16.0,-7.0,-46.0,-38.0,-18.0,-5.0,-1.0,-7.0
1702324375.9244893,2.0,-13.0,-12.0,13.0,2.0,2.0,-1.0,0.0
1702324375.9244893,8.0,21.0,42.0,5.0,6.0,1.0,0.0,9.0
1702324375.9244893,13.0,-49.0,-35.0,-18.0,-7.0,-3.0,-2.0,2.0
1702324375.9345171,-12.0,27.0,36.0,18.0,-6.0,-3.0,-1.0,-7.0
1702324375.9345171,1.0,33.0,3.0,-29.0,-8.0,-7.0,-8.0,-2.0
1702324375.9345171,2.0,-53.0,-36.0,-12.0,-4.0,0.0,-4.0,-8.0
1702324375.9345171,-9.0,-7.0,25.0,-6.0,-11.0,-13.0,-14.0,-10.0
1702324375.9644866,-2.0,-42.0,-14.0,16.0,8.0,6.0,-2.0,1.0
1702324375.9644866,3.0,9.0,16.0,11.0,3.0,0.0,23.0,-9.0
1702324375.9644866,20.0,56.0,-6.0,3.0,2.0,2.0,11.0,34.0
1702324375.9644866,-30.0,-60.0,2.0,5.0,2.0,2.0,0.0,2.0
1702324375.9852982,17.0,11.0,-12.0,5.0,5.0,0.0,-7.0,15.0
1702324375.9852982,-15.0,18.0,29.0,22.0,8.0,6.0,-3.0,11.0
1702324375.9852982,19.0,8.0,-14.0,-9.0,1.0,-11.0,-14.0,-20.0
1702324375.9852982,-25.0,8.0,-4.0,-5.0,-9.0,-23.0,0.0,-9.0
1702324375.9953146,25.0,18.0,11.0,9.0,4.0,31.0,21.0,0.0
1702324375.9953146,-9.0,-48.0,-48.0,-6.0,-1.0,-4.0,-8.0,63.0
1702324375.9953146,-28.0,4.0,30.0,0.0,-4.0,8.0,2.0,-39.0
1702324375.9953146,-12.0,13.0,-7.0,5.0,1.0,-8.0,0.0,27.0
1702324376.0249577,0.0,3.0,31.0,21.0,7.0,-1.0,-5.0,-6.0
1702324376.0249577,19.0,18.0,-11.0,-6.0,-3.0,-5.0,16.0,-13.0
1702324376.0249577,9.0,-26.0,-24.0,-11.0,-5.0,-14.0,-17.0,21.0
1702324376.0249577,-7.0,30.0,4.0,7.0,6.0,18.0,9.0,-3.0
1702324376.0453591,-6.0,3.0,12.0,3.0,-2.0,-12.0,3.0,-30.0
1702324376.0453591,0.0,30.0,1.0,-4.0,3.0,8.0,-9.0,-8.0
1702324376.0453591,2.0,-4.0,-14.0,5.0,6.0,-1.0,5.0,11.0
1702324376.0453591,29.0,24.0,7.0,-5.0,-1.0,6.0,6.0,-10.0
1702324376.0553222,-2.0,-2.0,-3.0,-1.0,-2.0,-5.0,3.0,10.0
1702324376.0553222,-19.0,-20.0,1.0,-1.0,-5.0,-3.0,-12.0,-16.0
1702324376.0648317,-17.0,-13.0,-5.0,-4.0,-3.0,-4.0,-5.0,-17.0
1702324376.0648317,13.0,26.0,-5.0,-11.0,2.0,1.0,2.0,13.0
1702324376.0748746,1.0,-9.0,10.0,1.0,3.0,0.0,-4.0,-7.0
1702324376.0748746,3.0,-8.0,-4.0,5.0,2.0,0.0,-7.0,-8.0
1702324376.0748746,-18.0,-6.0,-11.0,-2.0,-5.0,4.0,12.0,1.0
1702324376.0748746,5.0,-7.0,-6.0,3.0,-5.0,4.0,-4.0,-6.0
1702324376.1051762,3.0,-7.0,-14.0,-10.0,9.0,-1.0,-2.0,12.0
1702324376.1051762,7.0,5.0,2.0,-2.0,-4.0,-4.0,-4.0,-16.0
1702324376.1051762,0.0,4.0,-10.0,-2.0,5.0,4.0,4.0,10.0
1702324376.1051762,-12.0,-11.0,-4.0,-9.0,-10.0,-9.0,-12.0,-18.0
1702324376.1150925,-26.0,-8.0,16.0,8.0,-6.0,-8.0,-7.0,-12.0
1702324376.1150925,6.0,-17.0,-29.0,-19.0,-6.0,0.0,-1.0,3.0
1702324376.1248405,27.0,14.0,11.0,8.0,8.0,4.0,3.0,2.0
1702324376.1248405,15.0,7.0,7.0,4.0,-3.0,-2.0,0.0,0.0
1702324376.1348882,-12.0,-2.0,-13.0,-1.0,3.0,1.0,1.0,0.0
1702324376.1348882,-4.0,-29.0,27.0,3.0,-2.0,-3.0,-1.0,-8.0
1702324376.1348882,13.0,76.0,-25.0,9.0,5.0,2.0,2.0,5.0
1702324376.1448512,5.0,-56.0,3.0,-5.0,-6.0,-1.0,-3.0,-5.0
1702324376.165041,-25.0,-14.0,-27.0,6.0,-3.0,-7.0,-6.0,-3.0
1702324376.165041,4.0,4.0,22.0,-11.0,-5.0,-3.0,-4.0,-2.0
1702324376.165041,-5.0,12.0,-4.0,-12.0,-8.0,0.0,-1.0,0.0
1702324376.165041,-5.0,-22.0,-16.0,-1.0,6.0,0.0,-6.0,-6.0
1702324376.1750991,1.0,4.0,17.0,-8.0,-2.0,-2.0,-7.0,1.0
1702324376.1750991,-8.0,-31.0,-9.0,6.0,-3.0,-8.0,-10.0,-3.0
1702324376.2048407,-13.0,-11.0,5.0,-8.0,-4.0,4.0,4.0,-17.0
1702324376.2048407,14.0,17.0,-11.0,-1.0,2.0,-1.0,2.0,7.0
1702324376.2048407,-3.0,-26.0,-6.0,-2.0,-7.0,-8.0,4.0,-10.0
1702324376.2048407,2.0,32.0,14.0,21.0,14.0,7.0,1.0,4.0
1702324376.2048407,-5.0,-35.0,-2.0,-6.0,-5.0,6.0,3.0,13.0
1702324376.2048407,5.0,49.0,3.0,7.0,5.0,0.0,-16.0,-2.0
1702324376.225144,10.0,-11.0,30.0,2.0,-7.0,-5.0,7.0,8.0
1702324376.225144,-12.0,22.0,-13.0,-5.0,-5.0,-20.0,0.0,-1.0
1702324376.225144,9.0,-19.0,-16.0,-4.0,-4.0,-5.0,0.0,8.0
1702324376.225144,-1.0,2.0,-10.0,6.0,6.0,20.0,6.0,-20.0
1702324376.2350786,21.0,46.0,5.0,-3.0,-1.0,20.0,0.0,-31.0
1702324376.2350786,-17.0,-8.0,-13.0,-2.0,0.0,12.0,13.0,-14.0
1702324376.2648401,-38.0,3.0,20.0,-2.0,-3.0,-11.0,0.0,16.0
1702324376.2648401,2.0,-1.0,13.0,4.0,-3.0,-11.0,-11.0,-1.0
1702324376.2648401,9.0,-4.0,4.0,2.0,5.0,-6.0,8.0,23.0
1702324376.2648401,6.0,-4.0,-7.0,-4.0,-8.0,-7.0,-12.0,0.0
1702324376.2648401,0.0,-14.0,-6.0,-2.0,-1.0,-6.0,6.0,5.0
1702324376.2648401,3.0,12.0,-1.0,-3.0,-7.0,-4.0,-7.0,-14.0
1702324376.2848423,-9.0,-5.0,-6.0,0.0,3.0,-2.0,-6.0,-4.0
1702324376.2848423,17.0,17.0,1.0,3.0,3.0,7.0,4.0,6.0
1702324376.2848423,-4.0,-14.0,-1.0,3.0,8.0,4.0,-5.0,2.0
1702324376.2848423,0.0,9.0,5.0,-1.0,5.0,-1.0,10.0,9.0
1702324376.2995932,4.0,3.0,-9.0,-12.0,-10.0,-9.0,-3.0,2.0
1702324376.2995932,-14.0,-9.0,5.0,-9.0,-3.0,4.0,0.0,-2.0
1702324376.3082314,10.0,3.0,19.0,22.0,-9.0,-5.0,-15.0,-13.0
1702324376.3082314,-18.0,-24.0,-16.0,-2.0,-1.0,1.0,7.0,-3.0
1702324376.3236651,-8.0,3.0,13.0,-4.0,1.0,-4.0,-7.0,1.0
1702324376.3236651,15.0,2.0,-39.0,-7.0,11.0,2.0,-1.0,9.0
1702324376.3236651,4.0,-15.0,4.0,8.0,-6.0,-3.0,-3.0,-12.0
1702324376.3236651,-5.0,4.0,-21.0,-9.0,-5.0,-3.0,3.0,8.0
1702324376.343902,-35.0,-6.0,6.0,8.0,0.0,-2.0,-7.0,0.0
1702324376.343902,-3.0,4.0,14.0,-34.0,-12.0,-5.0,0.0,-4.0
1702324376.343902,-2.0,-5.0,14.0,-2.0,-7.0,1.0,-3.0,-10.0
1702324376.343902,18.0,0.0,-11.0,26.0,10.0,1.0,2.0,7.0
1702324376.3637052,7.0,-6.0,-13.0,-14.0,-5.0,-2.0,0.0,0.0
1702324376.3637052,8.0,2.0,-1.0,-8.0,-6.0,-2.0,-2.0,-1.0
1702324376.3637052,3.0,4.0,6.0,1.0,6.0,0.0,-2.0,-6.0
1702324376.3637052,-7.0,-16.0,-54.0,-21.0,-2.0,-3.0,-1.0,3.0
1702324376.383728,9.0,0.0,1.0,9.0,5.0,3.0,4.0,5.0
1702324376.383728,-4.0,19.0,34.0,12.0,0.0,0.0,-3.0,-5.0
1702324376.383728,-3.0,2.0,5.0,-23.0,-11.0,-5.0,-5.0,-4.0
1702324376.383728,-17.0,-5.0,17.0,9.0,6.0,7.0,15.0,8.0
1702324376.4040303,19.0,36.0,-7.0,-8.0,-3.0,-6.0,-19.0,-3.0
1702324376.4040303,-1.0,-47.0,-26.0,9.0,1.0,2.0,-3.0,6.0
1702324376.4040303,-17.0,-22.0,11.0,-6.0,-3.0,-2.0,1.0,-26.0
1702324376.4040303,3.0,7.0,-11.0,3.0,2.0,-1.0,4.0,11.0
1702324376.4437237,0.0,10.0,13.0,-4.0,-1.0,0.0,-9.0,-21.0
1702324376.4437237,-4.0,18.0,13.0,1.0,-5.0,-6.0,28.0,8.0
1702324376.4437237,-8.0,3.0,-19.0,7.0,5.0,1.0,-32.0,-10.0
1702324376.4437237,8.0,-11.0,11.0,-8.0,-4.0,2.0,1.0,0.0
1702324376.4437237,6.0,-18.0,-22.0,1.0,0.0,-5.0,14.0,5.0
1702324376.4437237,5.0,35.0,47.0,10.0,1.0,-4.0,-34.0,-17.0
1702324376.4437237,-12.0,-36.0,-40.0,-15.0,-2.0,-5.0,3.0,-10.0
1702324376.4437237,-18.0,22.0,24.0,-4.0,-8.0,-14.0,-12.0,-10.0
1702324376.46373,-2.0,13.0,-12.0,7.0,0.0,-8.0,-11.0,6.0
1702324376.46373,-4.0,-12.0,2.0,6.0,4.0,37.0,18.0,-16.0
1702324376.4737258,22.0,18.0,-12.0,-1.0,0.0,3.0,11.0,27.0
1702324376.4737258,14.0,20.0,13.0,-4.0,-5.0,-2.0,-6.0,-8.0
1702324376.4837255,-10.0,20.0,-8.0,2.0,-8.0,-14.0,6.0,1.0
1702324376.4837255,-6.0,-21.0,-14.0,0.0,-2.0,-8.0,-9.0,25.0
1702324376.4837255,10.0,39.0,11.0,-1.0,2.0,1.0,6.0,1.0
1702324376.4837255,1.0,13.0,3.0,4.0,7.0,5.0,-8.0,-9.0
1702324376.4940596,0.0,-28.0,2.0,-3.0,-2.0,5.0,14.0,21.0
1702324376.5037346,-2.0,25.0,-7.0,4.0,2.0,-3.0,-16.0,-5.0
1702324376.5037346,-4.0,-19.0,-5.0,1.0,-2.0,-3.0,-2.0,-10.0
1702324376.5037346,-5.0,-16.0,5.0,-4.0,-10.0,-1.0,1.0,9.0
1702324376.523771,0.0,-4.0,4.0,-3.0,5.0,3.0,-3.0,-6.0
1702324376.523771,2.0,-2.0,5.0,2.0,5.0,-3.0,2.0,-6.0
1702324376.523771,7.0,3.0,-3.0,-10.0,-3.0,1.0,2.0,11.0
1702324376.523771,-14.0,-6.0,4.0,3.0,-1.0,-1.0,-2.0,-19.0
1702324376.544073,-7.0,-14.0,-3.0,6.0,-3.0,3.0,1.0,-4.0
1702324376.544073,-2.0,-7.0,16.0,27.0,-6.0,-7.0,2.0,0.0
1702324376.544073,-5.0,-13.0,-36.0,-26.0,-2.0,-5.0,-1.0,3.0
1702324376.544073,14.0,4.0,9.0,-14.0,-5.0,-4.0,1.0,5.0
1702324376.5637283,-5.0,-8.0,-1.0,-24.0,-1.0,7.0,1.0,-3.0
1702324376.5637283,-12.0,-11.0,-14.0,8.0,-2.0,-10.0,-1.0,5.0
1702324376.5637283,5.0,3.0,-20.0,-6.0,2.0,3.0,1.0,3.0
1702324376.5637283,-8.0,3.0,17.0,-7.0,-3.0,1.0,-2.0,-5.0
1702324376.5839362,-16.0,14.0,44.0,-6.0,-5.0,-2.0,-4.0,-6.0
1702324376.5839362,19.0,2.0,-24.0,6.0,13.0,1.0,2.0,1.0
1702324376.5937228,9.0,3.0,38.0,8.0,-5.0,0.0,4.0,2.0
1702324376.5937228,2.0,13.0,-44.0,28.0,6.0,2.0,2.0,5.0
1702324376.6037555,-1.0,-18.0,-22.0,-6.0,7.0,1.0,-1.0,-3.0
1702324376.6037555,-4.0,15.0,22.0,-23.0,-10.0,-4.0,-5.0,-8.0
1702324376.6037555,12.0,3.0,-16.0,25.0,4.0,5.0,4.0,5.0
1702324376.6037555,-53.0,-88.0,13.0,-21.0,-7.0,-9.0,-11.0,-14.0
1702324376.6237247,-3.0,-19.0,-2.0,8.0,-3.0,-5.0,-7.0,0.0
1702324376.6237247,-5.0,-20.0,-42.0,-8.0,-2.0,3.0,6.0,4.0
1702324376.6237247,-6.0,2.0,15.0,-9.0,-3.0,-5.0,-22.0,-38.0
1702324376.6237247,20.0,30.0,-11.0,6.0,3.0,3.0,10.0,23.0
1702324376.6437538,1.0,-3.0,15.0,1.0,-6.0,-8.0,-8.0,-12.0
1702324376.6437538,-1.0,-20.0,-26.0,-5.0,0.0,-8.0,-4.0,8.0
1702324376.6437538,1.0,25.0,16.0,7.0,3.0,4.0,6.0,1.0
1702324376.6437538,4.0,-28.0,25.0,13.0,11.0,20.0,0.0,-7.0
1702324376.6640337,-7.0,9.0,-25.0,-3.0,-5.0,-18.0,12.0,31.0
1702324376.6640337,14.0,45.0,24.0,7.0,3.0,3.0,-8.0,-6.0
1702324376.6640337,7.0,3.0,1.0,-4.0,-6.0,-13.0,22.0,-17.0
1702324376.6640337,13.0,-1.0,24.0,2.0,-1.0,-3.0,-12.0,-24.0
1702324376.6740897,-11.0,-1.0,-45.0,3.0,5.0,6.0,3.0,1.0
1702324376.6740897,-24.0,-26.0,-3.0,-5.0,-6.0,9.0,-20.0,-31.0
1702324376.6839757,-4.0,2.0,-4.0,-3.0,-2.0,-3.0,3.0,9.0
1702324376.6839757,23.0,24.0,14.0,-8.0,-13.0,-15.0,8.0,14.0
1702324376.7038774,-33.0,-28.0,3.0,2.0,6.0,13.0,1.0,-10.0
1702324376.7038774,-5.0,-6.0,-5.0,-3.0,-4.0,-9.0,3.0,2.0
1702324376.7038774,-7.0,0.0,4.0,6.0,11.0,14.0,-4.0,0.0
1702324376.7038774,12.0,10.0,-17.0,-3.0,2.0,-7.0,1.0,3.0
1702324376.724179,28.0,10.0,8.0,3.0,-4.0,-4.0,-3.0,-1.0
1702324376.724179,-9.0,3.0,8.0,5.0,2.0,0.0,-3.0,7.0
1702324376.724179,-5.0,-15.0,1.0,-8.0,-1.0,0.0,2.0,5.0
1702324376.724179,-2.0,13.0,-6.0,-1.0,-3.0,-8.0,-6.0,-3.0
1702324376.7437768,12.0,13.0,9.0,2.0,3.0,7.0,3.0,7.0
1702324376.7437768,-3.0,-22.0,-15.0,-34.0,-15.0,-9.0,0.0,1.0
1702324376.7437768,-1.0,1.0,4.0,-8.0,-8.0,-20.0,-15.0,-3.0
1702324376.7437768,-10.0,1.0,6.0,33.0,1.0,18.0,10.0,1.0
1702324376.7639434,-5.0,-4.0,-2.0,-6.0,0.0,1.0,-5.0,-14.0
1702324376.7639434,14.0,-1.0,-19.0,-10.0,-2.0,-6.0,1.0,0.0
1702324376.7639434,-12.0,-18.0,-9.0,12.0,1.0,-4.0,-5.0,6.0
1702324376.7639434,-2.0,15.0,-24.0,-37.0,-8.0,-4.0,3.0,9.0
1702324376.7839952,0.0,-1.0,40.0,47.0,8.0,5.0,-2.0,-3.0
1702324376.7839952,4.0,3.0,-3.0,-1.0,-2.0,-4.0,2.0,0.0
1702324376.7839952,-14.0,-8.0,16.0,-2.0,-3.0,0.0,-2.0,4.0
1702324376.7839952,6.0,15.0,46.0,15.0,13.0,8.0,1.0,1.0
1702324376.8137767,10.0,-13.0,-95.0,1.0,12.0,4.0,-1.0,-2.0
1702324376.8137767,-7.0,13.0,9.0,-23.0,-1.0,0.0,3.0,-3.0
1702324376.8137767,0.0,12.0,6.0,3.0,-1.0,5.0,-1.0,0.0
1702324376.8137767,-5.0,8.0,20.0,9.0,2.0,-1.0,-1.0,1.0
1702324376.8262575,-9.0,-51.0,1.0,-31.0,-9.0,-5.0,-5.0,-4.0
1702324376.8262575,10.0,9.0,17.0,47.0,8.0,1.0,3.0,3.0
1702324376.8276427,-21.0,-60.0,-8.0,-4.0,-2.0,2.0,1.0,0.0
1702324376.8276427,1.0,30.0,-11.0,-9.0,0.0,-3.0,-1.0,3.0
1702324376.8465989,31.0,97.0,34.0,0.0,-5.0,-9.0,-16.0,-7.0
1702324376.8465989,-44.0,-82.0,-58.0,-21.0,-11.0,-1.0,-9.0,-16.0
1702324376.8465989,25.0,75.0,16.0,1.0,-3.0,-4.0,5.0,-5.0
1702324376.8465989,-20.0,-98.0,-10.0,-1.0,0.0,2.0,-4.0,-8.0
1702324376.8665988,-18.0,-5.0,2.0,-7.0,-3.0,0.0,-8.0,-4.0
1702324376.8665988,22.0,27.0,14.0,-5.0,-5.0,-13.0,-7.0,-17.0
1702324376.8665988,-20.0,-31.0,-5.0,8.0,4.0,-4.0,7.0,17.0
1702324376.8665988,-1.0,6.0,-23.0,-3.0,4.0,9.0,-1.0,-13.0
1702324376.8846009,16.0,56.0,54.0,12.0,1.0,5.0,-14.0,19.0
1702324376.8846009,-10.0,14.0,-6.0,3.0,3.0,-5.0,-10.0,-28.0
1702324376.8846009,-5.0,-40.0,-34.0,-7.0,-8.0,16.0,31.0,17.0
1702324376.8846009,27.0,40.0,-17.0,-13.0,-4.0,-13.0,-15.0,18.0
1702324376.9148934,-16.0,-10.0,-5.0,-5.0,-11.0,-28.0,-27.0,-5.0
1702324376.9148934,39.0,37.0,32.0,21.0,15.0,43.0,34.0,35.0
1702324376.9148934,-5.0,33.0,-16.0,-10.0,0.0,-17.0,-21.0,-20.0
1702324376.9148934,-36.0,-5.0,-3.0,-7.0,-11.0,0.0,-22.0,-14.0
1702324376.9148934,-9.0,-17.0,-1.0,-4.0,-11.0,1.0,27.0,-6.0
1702324376.9148934,-2.0,-18.0,-7.0,-13.0,-22.0,1.0,4.0,10.0
1702324376.9249158,34.0,4.0,-4.0,-4.0,12.0,-2.0,-9.0,-9.0
1702324376.9249158,-9.0,-2.0,10.0,8.0,16.0,12.0,11.0,9.0
1702324376.9455533,-2.0,-17.0,-1.0,12.0,15.0,-16.0,-11.0,-2.0
1702324376.9455533,30.0,6.0,-3.0,-2.0,-9.0,-12.0,-6.0,7.0
1702324376.9455533,-23.0,-12.0,0.0,-4.0,-8.0,15.0,11.0,5.0
1702324376.9455533,-3.0,15.0,9.0,-1.0,1.0,-13.0,-10.0,-20.0
1702324376.97519,-7.0,-13.0,-21.0,-43.0,-7.0,9.0,9.0,4.0
1702324376.97519,-12.0,1.0,9.0,16.0,-6.0,-7.0,3.0,3.0
1702324376.97519,17.0,16.0,29.0,52.0,21.0,7.0,-9.0,1.0
1702324376.97519,3.0,-16.0,-40.0,-21.0,-7.0,-11.0,2.0,6.0
1702324376.97519,-2.0,3.0,15.0,10.0,1.0,11.0,8.0,-6.0
1702324376.97519,-16.0,-10.0,1.0,-17.0,5.0,5.0,1.0,0.0
1702324376.9846992,-9.0,-7.0,-24.0,-29.0,-14.0,-11.0,-12.0,-4.0
1702324376.9846992,1.0,6.0,39.0,10.0,-13.0,-8.0,0.0,-8.0
1702324377.0049355,-1.0,-1.0,-10.0,12.0,5.0,12.0,13.0,3.0
1702324377.0049355,7.0,7.0,-13.0,11.0,12.0,-4.0,-6.0,0.0
1702324377.0049355,-2.0,2.0,-13.0,-31.0,-11.0,-3.0,-1.0,4.0
1702324377.0049355,0.0,26.0,-11.0,10.0,1.0,4.0,10.0,1.0
1702324377.0250683,4.0,-54.0,-16.0,-5.0,-1.0,3.0,-2.0,1.0
1702324377.0250683,-14.0,1.0,2.0,6.0,3.0,-7.0,-5.0,2.0
1702324377.0250683,19.0,-14.0,0.0,-6.0,-1.0,2.0,2.0,2.0
1702324377.0250683,17.0,48.0,9.0,-36.0,-15.0,-2.0,1.0,1.0
1702324377.0547087,-6.0,-11.0,7.0,5.0,-4.0,-7.0,-5.0,-2.0
1702324377.0547087,-12.0,-4.0,-9.0,12.0,6.0,5.0,2.0,1.0
1702324377.0547087,-1.0,-4.0,13.0,-8.0,0.0,-1.0,1.0,-11.0
1702324377.0547087,-1.0,-41.0,-18.0,2.0,-5.0,-10.0,-11.0,1.0
1702324377.0650818,-7.0,18.0,8.0,5.0,-1.0,-1.0,-2.0,-16.0
1702324377.0650818,-3.0,-65.0,-11.0,-5.0,6.0,7.0,15.0,35.0
1702324377.0650818,-13.0,0.0,2.0,-4.0,-5.0,-3.0,-3.0,0.0
1702324377.0650818,-13.0,-64.0,-4.0,0.0,-1.0,5.0,11.0,-10.0
1702324377.0845618,9.0,58.0,12.0,8.0,0.0,10.0,-7.0,4.0
1702324377.0845618,-5.0,-28.0,-6.0,-12.0,2.0,-8.0,-13.0,-23.0
1702324377.0845618,11.0,6.0,4.0,11.0,-1.0,-12.0,-10.0,-1.0
1702324377.0845618,-36.0,-25.0,8.0,17.0,3.0,-6.0,6.0,-42.0
1702324377.0946038,22.0,-10.0,10.0,-13.0,-4.0,-6.0,5.0,18.0
1702324377.0946038,-14.0,-12.0,-1.0,-11.0,-7.0,24.0,4.0,-38.0
1702324377.104831,0.0,-8.0,-3.0,18.0,5.0,12.0,-13.0,34.0
1702324377.104831,19.0,0.0,17.0,3.0,5.0,3.0,6.0,1.0
1702324377.1247332,-2.0,50.0,0.0,-3.0,1.0,6.0,9.0,7.0
1702324377.1247332,16.0,24.0,15.0,1.0,-9.0,-27.0,-5.0,-2.0
1702324377.1345718,-47.0,-42.0,-23.0,-4.0,-6.0,-11.0,-16.0,-26.0
1702324377.1345718,26.0,9.0,-14.0,-11.0,2.0,-10.0,-17.0,26.0
1702324377.1448348,2.0,-14.0,3.0,5.0,0.0,3.0,14.0,6.0
1702324377.1448348,13.0,41.0,5.0,11.0,12.0,4.0,6.0,10.0
1702324377.1448348,1.0,8.0,-1.0,-4.0,-5.0,-1.0,5.0,4.0
1702324377.1448348,-2.0,19.0,5.0,-2.0,-2.0,-7.0,-5.0,11.0
1702324377.154838,-7.0,-22.0,-10.0,-7.0,-5.0,-10.0,-9.0,-15.0
1702324377.154838,-5.0,16.0,1.0,-7.0,-2.0,9.0,-1.0,-11.0
1702324377.164733,9.0,11.0,6.0,-11.0,-4.0,8.0,11.0,7.0
1702324377.1745749,-10.0,6.0,-7.0,-7.0,-4.0,0.0,-1.0,3.0
1702324377.184634,5.0,-15.0,4.0,56.0,13.0,-1.0,-7.0,-8.0
1702324377.184634,-12.0,1.0,9.0,1.0,2.0,-4.0,-1.0,5.0
1702324377.204573,15.0,23.0,20.0,4.0,-1.0,-4.0,-2.0,-7.0
1702324377.204573,11.0,-8.0,-33.0,-23.0,-4.0,-4.0,-1.0,5.0
1702324377.204573,-9.0,-10.0,-8.0,-23.0,-3.0,7.0,5.0,-4.0
1702324377.204573,-5.0,5.0,-3.0,7.0,0.0,-4.0,-3.0,4.0
1702324377.204573,21.0,6.0,-10.0,-25.0,3.0,1.0,4.0,2.0
1702324377.204573,-5.0,14.0,30.0,58.0,6.0,4.0,2.0,0.0
1702324377.2145748,7.0,-1.0,-11.0,-3.0,-2.0,-5.0,-2.0,3.0
1702324377.2145748,-18.0,-1.0,26.0,9.0,6.0,-1.0,-4.0,-2.0
1702324377.2249138,10.0,47.0,-17.0,-30.0,0.0,3.0,0.0,-6.0
1702324377.2249138,11.0,15.0,-45.0,-21.0,-9.0,-4.0,-1.0,-3.0
1702324377.244621,-33.0,-24.0,74.0,30.0,1.0,-2.0,-4.0,-6.0
1702324377.244621,33.0,14.0,-28.0,8.0,1.0,0.0,1.0,8.0
1702324377.2545702,-52.0,-30.0,26.0,1.0,-6.0,-7.0,-3.0,-10.0
1702324377.2545702,9.0,53.0,-42.0,-18.0,-5.0,1.0,0.0,3.0
1702324377.264931,-3.0,-15.0,58.0,-16.0,-6.0,-1.0,13.0,3.0
1702324377.264931,3.0,27.0,-47.0,-15.0,-8.0,-10.0,-17.0,-5.0
1702324377.264931,3.0,-16.0,-21.0,10.0,3.0,2.0,-3.0,-2.0
1702324377.264931,-16.0,-12.0,3.0,3.0,0.0,-6.0,-2.0,-10.0
1702324377.2749515,4.0,-5.0,-23.0,-13.0,-5.0,-4.0,-5.0,-1.0
1702324377.2749515,-14.0,-6.0,14.0,-2.0,0.0,-14.0,-24.0,-22.0
1702324377.2849083,5.0,4.0,-26.0,5.0,-6.0,-22.0,31.0,-16.0
1702324377.2849083,-15.0,20.0,31.0,3.0,15.0,73.0,27.0,15.0
1702324377.3047454,12.0,6.0,-17.0,4.0,6.0,-1.0,5.0,17.0
1702324377.3047454,3.0,-30.0,26.0,-5.0,-4.0,5.0,2.0,2.0
1702324377.3145702,-3.0,-19.0,-4.0,15.0,1.0,-13.0,-13.0,13.0
1702324377.3145702,-8.0,19.0,14.0,-8.0,-9.0,-47.0,-56.0,-63.0
1702324377.3249507,10.0,34.0,-29.0,-25.0,-16.0,-19.0,-17.0,17.0
1702324377.3249507,5.0,11.0,-1.0,8.0,10.0,61.0,54.0,58.0
1702324377.3249507,2.0,3.0,25.0,16.0,10.0,15.0,19.0,2.0
1702324377.3249507,-22.0,-105.0,-10.0,-4.0,-6.0,8.0,-6.0,5.0
1702324377.3450217,-1.0,0.0,-10.0,-6.0,3.0,-9.0,-14.0,-9.0
1702324377.3450217,-3.0,20.0,-7.0,-8.0,-17.0,-40.0,-23.0,-23.0
1702324377.360032,-8.0,-70.0,-6.0,-7.0,-8.0,-2.0,-11.0,9.0
1702324377.360032,20.0,20.0,16.0,6.0,6.0,-1.0,9.0,13.0
1702324377.3652024,-7.0,2.0,-24.0,-3.0,2.0,-6.0,-6.0,-24.0
1702324377.3652024,0.0,-18.0,9.0,-23.0,-3.0,-1.0,0.0,-1.0
1702324377.3726478,1.0,24.0,17.0,26.0,2.0,9.0,1.0,5.0
1702324377.3726478,10.0,0.0,-3.0,-12.0,-5.0,-14.0,-2.0,5.0
1702324377.385078,-11.0,-22.0,-9.0,-2.0,-7.0,6.0,5.0,-7.0
1702324377.385078,-1.0,-3.0,-1.0,-7.0,-3.0,0.0,-1.0,7.0
1702324377.385078,3.0,8.0,-18.0,-3.0,8.0,6.0,-9.0,-5.0
1702324377.385078,-1.0,6.0,-9.0,-16.0,-5.0,-2.0,5.0,0.0
1702324377.4050891,-5.0,-3.0,-17.0,-6.0,-2.0,6.0,3.0,0.0
1702324377.4050891,-6.0,-6.0,-9.0,-1.0,9.0,3.0,-1.0,-8.0
1702324377.41509,6.0,14.0,22.0,-14.0,-14.0,-11.0,-11.0,-7.0
1702324377.41509,5.0,-17.0,-19.0,27.0,15.0,8.0,12.0,17.0
1702324377.425091,8.0,1.0,-18.0,-21.0,-7.0,3.0,5.0,0.0
1702324377.425091,11.0,-3.0,13.0,-5.0,-8.0,-13.0,-8.0,-5.0
1702324377.425091,-18.0,5.0,2.0,22.0,5.0,4.0,-6.0,-9.0
1702324377.425091,4.0,7.0,22.0,0.0,-6.0,-3.0,5.0,5.0
1702324377.445407,-7.0,-7.0,-27.0,19.0,9.0,4.0,-4.0,-2.0
1702324377.445407,19.0,5.0,6.0,0.0,-1.0,-5.0,-2.0,-3.0
1702324377.445407,15.0,37.0,6.0,-2.0,-4.0,1.0,-2.0,4.0
1702324377.445407,-13.0,8.0,24.0,-5.0,-9.0,-8.0,-3.0,-2.0
1702324377.465322,7.0,8.0,-12.0,9.0,4.0,2.0,3.0,0.0
1702324377.465322,-17.0,-52.0,-11.0,2.0,-3.0,-3.0,8.0,-10.0
1702324377.485096,8.0,13.0,-2.0,-8.0,0.0,4.0,-11.0,4.0
1702324377.485096,-24.0,12.0,-13.0,-9.0,-5.0,-11.0,3.0,-7.0
1702324377.485096,12.0,-10.0,30.0,-7.0,-3.0,7.0,4.0,-1.0
1702324377.485096,-25.0,-9.0,-27.0,0.0,-1.0,-4.0,2.0,0.0
1702324377.485096,-1.0,81.0,25.0,1.0,2.0,-1.0,-12.0,-17.0
1702324377.485096,6.0,12.0,-32.0,0.0,6.0,7.0,10.0,1.0
1702324377.5054805,-8.0,4.0,11.0,-6.0,-7.0,-6.0,-8.0,-1.0
1702324377.5054805,4.0,28.0,48.0,11.0,-1.0,-10.0,-6.0,-2.0
1702324377.5054805,9.0,12.0,-34.0,-5.0,3.0,24.0,18.0,3.0
1702324377.5054805,25.0,-17.0,2.0,6.0,2.0,-6.0,-4.0,-14.0
1702324377.5254986,-3.0,26.0,1.0,-3.0,0.0,-2.0,-3.0,36.0
1702324377.5254986,5.0,17.0,6.0,-1.0,-5.0,2.0,-6.0,-63.0
1702324377.5350888,-27.0,-20.0,-4.0,-7.0,-2.0,6.0,33.0,26.0
1702324377.5350888,55.0,36.0,12.0,0.0,1.0,6.0,12.0,12.0
1702324377.5350888,-30.0,-61.0,-9.0,2.0,0.0,-2.0,-4.0,-7.0
1702324377.5350888,17.0,16.0,-8.0,2.0,5.0,4.0,1.0,1.0
1702324377.545088,-4.0,6.0,5.0,5.0,-1.0,-7.0,-1.0,10.0
1702324377.545088,-14.0,-28.0,-6.0,-4.0,-3.0,-2.0,-12.0,1.0
1702324377.5653064,27.0,28.0,5.0,-3.0,-6.0,1.0,14.0,-3.0
1702324377.5653064,-2.0,-9.0,-5.0,0.0,-9.0,-3.0,-13.0,10.0
1702324377.5653064,-8.0,-11.0,-2.0,-3.0,6.0,-5.0,-8.0,-17.0
1702324377.5653064,-14.0,-12.0,7.0,2.0,3.0,-9.0,-11.0,5.0
1702324377.5950887,3.0,9.0,2.0,2.0,6.0,4.0,-4.0,-14.0
1702324377.5950887,-12.0,13.0,2.0,3.0,3.0,4.0,3.0,14.0
1702324377.5950887,5.0,-17.0,5.0,-6.0,-3.0,-6.0,-6.0,-3.0
1702324377.5950887,5.0,3.0,-4.0,-16.0,-8.0,4.0,3.0,1.0
1702324377.5950887,-15.0,-24.0,11.0,14.0,-15.0,-14.0,-8.0,-14.0
1702324377.6050878,-15.0,-3.0,-23.0,19.0,13.0,4.0,0.0,9.0
1702324377.6050878,8.0,-19.0,-23.0,-45.0,-8.0,-2.0,-3.0,-1.0
1702324377.6050878,-18.0,-30.0,4.0,25.0,-3.0,-3.0,-6.0,-8.0
1702324377.625134,-2.0,10.0,-8.0,-13.0,2.0,6.0,2.0,-8.0
1702324377.625134,-6.0,-8.0,-10.0,-8.0,-10.0,-10.0,-7.0,12.0
1702324377.625134,-3.0,-12.0,26.0,13.0,4.0,-9.0,-10.0,-10.0
1702324377.625134,-13.0,-2.0,-22.0,-32.0,-6.0,2.0,3.0,1.0
1702324377.6550884,-3.0,8.0,-3.0,-17.0,-9.0,-1.0,-3.0,-5.0
1702324377.6550884,20.0,17.0,40.0,38.0,3.0,-6.0,1.0,12.0
1702324377.6550884,-9.0,-23.0,-42.0,-15.0,-10.0,-5.0,-3.0,-7.0
1702324377.6550884,13.0,5.0,12.0,-27.0,-5.0,1.0,1.0,5.0
1702324377.6550884,-18.0,-7.0,-64.0,28.0,12.0,-1.0,-1.0,0.0
1702324377.6650903,22.0,-2.0,-4.0,-25.0,0.0,0.0,1.0,3.0
1702324377.6650903,0.0,19.0,53.0,17.0,-6.0,0.0,-3.0,-1.0
1702324377.6650903,-5.0,20.0,-20.0,11.0,0.0,-3.0,-8.0,-2.0
1702324377.6854482,7.0,-1.0,33.0,-11.0,-4.0,0.0,6.0,-14.0
1702324377.6854482,4.0,-1.0,-7.0,-16.0,-3.0,-6.0,-20.0,3.0
1702324377.6854482,-13.0,-73.0,-13.0,8.0,-3.0,2.0,-19.0,-5.0
1702324377.6854482,-9.0,10.0,5.0,2.0,4.0,2.0,11.0,15.0
1702324377.705088,7.0,27.0,-8.0,-7.0,2.0,5.0,-5.0,-18.0
1702324377.705088,-22.0,-48.0,0.0,1.0,-3.0,-16.0,-6.0,-3.0
1702324377.705088,16.0,12.0,-5.0,1.0,3.0,28.0,19.0,15.0
1702324377.705088,0.0,-6.0,6.0,6.0,0.0,-5.0,-2.0,-4.0
1702324377.7250936,7.0,12.0,1.0,2.0,2.0,9.0,-5.0,5.0
1702324377.7250936,-6.0,-34.0,4.0,0.0,-1.0,-19.0,9.0,-24.0
1702324377.7250936,-39.0,10.0,-15.0,-3.0,-5.0,-20.0,-42.0,-41.0
1702324377.7250936,-7.0,-33.0,-3.0,-2.0,-8.0,3.0,0.0,28.0
1702324377.74509,1.0,28.0,25.0,7.0,7.0,24.0,18.0,29.0
1702324377.74509,1.0,12.0,-3.0,2.0,5.0,25.0,22.0,-43.0
1702324377.74509,10.0,-14.0,-13.0,-3.0,-7.0,-18.0,-4.0,-11.0
1702324377.74509,8.0,13.0,8.0,6.0,4.0,-23.0,-17.0,2.0
1702324377.7654102,4.0,-10.0,0.0,-7.0,-4.0,13.0,10.0,24.0
1702324377.7654102,16.0,24.0,-14.0,-3.0,-4.0,11.0,-11.0,3.0
1702324377.7654102,-15.0,-52.0,-4.0,0.0,-2.0,-6.0,9.0,9.0
1702324377.7654102,-13.0,0.0,10.0,5.0,-5.0,-9.0,-15.0,-50.0
1702324377.785141,14.0,-10.0,-8.0,-7.0,-6.0,-24.0,-16.0,0.0
1702324377.785141,-26.0,2.0,-3.0,-11.0,0.0,5.0,10.0,10.0
1702324377.785141,15.0,34.0,5.0,3.0,9.0,8.0,2.0,7.0
1702324377.785141,3.0,8.0,7.0,-2.0,4.0,-5.0,0.0,3.0
1702324377.8050914,0.0,-27.0,20.0,49.0,17.0,-1.0,4.0,14.0
1702324377.8050914,-18.0,3.0,-12.0,18.0,-2.0,4.0,-4.0,-8.0
1702324377.8050914,-4.0,2.0,8.0,1.0,-7.0,-19.0,-5.0,7.0
1702324377.8050914,6.0,-2.0,-17.0,18.0,5.0,9.0,4.0,5.0
1702324377.8254626,-7.0,-6.0,-39.0,-66.0,-17.0,-6.0,-3.0,-31.0
1702324377.8254626,7.0,6.0,34.0,17.0,-8.0,-10.0,-5.0,18.0
1702324377.8254626,-4.0,5.0,-33.0,24.0,10.0,4.0,7.0,3.0
1702324377.8254626,6.0,6.0,6.0,-13.0,-7.0,5.0,8.0,-4.0
1702324377.8450918,-12.0,2.0,2.0,5.0,3.0,-2.0,-3.0,-5.0
1702324377.8450918,2.0,8.0,10.0,-28.0,-9.0,-11.0,-11.0,7.0
1702324377.8450918,0.0,3.0,26.0,-7.0,-8.0,-2.0,4.0,-3.0
1702324377.8450918,3.0,-9.0,-57.0,-23.0,2.0,12.0,6.0,-1.0
1702324377.8650892,1.0,8.0,12.0,-6.0,-3.0,-12.0,-7.0,-1.0
1702324377.8650892,-13.0,11.0,20.0,10.0,-4.0,-1.0,-1.0,3.0
1702324377.8650892,23.0,17.0,4.0,9.0,1.0,4.0,4.0,0.0
1702324377.8650892,3.0,-30.0,11.0,-1.0,0.0,-2.0,-1.0,6.0
1702324377.8914099,4.0,3.0,-47.0,-6.0,-6.0,-6.0,-6.0,-6.0
1702324377.8914099,-21.0,-11.0,-9.0,-21.0,-4.0,1.0,8.0,-17.0
1702324377.8929029,7.0,-8.0,17.0,1.0,3.0,1.0,-1.0,-2.0
1702324377.8929029,6.0,-6.0,13.0,10.0,0.0,4.0,8.0,9.0
1702324377.9049127,-13.0,-48.0,5.0,-12.0,-9.0,-9.0,-3.0,-6.0
1702324377.9049127,8.0,45.0,14.0,7.0,8.0,13.0,13.0,14.0
1702324377.9121115,19.0,-18.0,-25.0,0.0,1.0,1.0,9.0,5.0
1702324377.9121115,-16.0,-4.0,4.0,-2.0,-5.0,-3.0,-4.0,-9.0
1702324377.9221478,12.0,41.0,6.0,16.0,4.0,6.0,-4.0,-15.0
1702324377.9221478,-13.0,-29.0,-10.0,0.0,9.0,-20.0,-11.0,45.0
1702324377.9221478,8.0,37.0,5.0,-11.0,-7.0,6.0,9.0,-6.0
1702324377.9221478,0.0,12.0,15.0,1.0,-5.0,-34.0,11.0,-42.0
1702324377.9425187,23.0,8.0,11.0,5.0,1.0,34.0,-12.0,0.0
1702324377.9425187,-10.0,31.0,-16.0,-2.0,4.0,27.0,26.0,48.0
1702324377.952116,-4.0,13.0,-10.0,-4.0,3.0,10.0,-12.0,-6.0
1702324377.952116,-12.0,-1.0,-1.0,2.0,-6.0,-11.0,-6.0,9.0
1702324377.9621148,14.0,44.0,13.0,-2.0,-2.0,-21.0,-3.0,-10.0
1702324377.9621148,4.0,-48.0,-20.0,-4.0,-6.0,-28.0,-22.0,2.0
1702324377.972113,3.0,9.0,17.0,3.0,-2.0,-1.0,1.0,14.0
1702324377.972113,-27.0,-40.0,-5.0,2.0,2.0,25.0,26.0,-14.0
1702324377.9822013,-20.0,-5.0,3.0,3.0,-1.0,-13.0,-21.0,-29.0
1702324377.9822013,20.0,10.0,-8.0,-10.0,-7.0,14.0,8.0,27.0
1702324377.9822013,-17.0,3.0,-4.0,-2.0,4.0,-14.0,-13.0,-31.0
1702324377.9822013,3.0,17.0,8.0,9.0,11.0,3.0,-3.0,4.0
1702324378.0121586,-7.0,-23.0,-8.0,-2.0,-1.0,-20.0,1.0,13.0
1702324378.0121586,5.0,-7.0,3.0,-9.0,-6.0,4.0,-1.0,-19.0
1702324378.0121586,-1.0,-19.0,-13.0,-33.0,-12.0,2.0,8.0,14.0
1702324378.0121586,-6.0,-15.0,6.0,40.0,7.0,16.0,-4.0,4.0
1702324378.02212,-6.0,-8.0,-2.0,7.0,0.0,6.0,14.0,16.0
1702324378.02212,11.0,6.0,-22.0,0.0,-5.0,-18.0,-16.0,-25.0
1702324378.0421138,-9.0,3.0,3.0,-10.0,-5.0,-4.0,-3.0,-5.0
1702324378.0421138,1.0,3.0,-15.0,-41.0,-4.0,4.0,-5.0,10.0
1702324378.0421138,-17.0,-10.0,6.0,3.0,-3.0,-7.0,-3.0,2.0
1702324378.0421138,25.0,8.0,9.0,-12.0,-6.0,-1.0,-2.0,-7.0
1702324378.0421138,-6.0,-17.0,-46.0,-26.0,-9.0,-1.0,4.0,5.0
1702324378.0421138,2.0,18.0,42.0,19.0,1.0,-1.0,-4.0,5.0
1702324378.0621169,14.0,3.0,12.0,-4.0,3.0,-1.0,6.0,8.0
1702324378.0621169,-10.0,-11.0,-15.0,7.0,0.0,1.0,-5.0,-23.0
1702324378.0721157,-3.0,6.0,15.0,3.0,-2.0,-6.0,1.0,8.0
1702324378.0721157,16.0,-19.0,-36.0,-43.0,-17.0,-5.0,-10.0,3.0
1702324378.0821602,-15.0,-34.0,6.0,6.0,-2.0,2.0,0.0,-6.0
1702324378.0821602,-7.0,15.0,-1.0,12.0,8.0,7.0,5.0,-9.0
1702324378.0921128,-16.0,-24.0,-3.0,10.0,-1.0,-5.0,-7.0,-3.0
1702324378.0921128,5.0,33.0,9.0,7.0,-3.0,-1.0,-3.0,-3.0
1702324378.102385,0.0,-1.0,18.0,1.0,6.0,5.0,13.0,-26.0
1702324378.102385,-5.0,-20.0,-7.0,-1.0,-1.0,-2.0,10.0,16.0
1702324378.112346,-2.0,19.0,3.0,12.0,-1.0,-5.0,0.0,-5.0
1702324378.112346,1.0,15.0,-5.0,6.0,4.0,5.0,-5.0,4.0
1702324378.1321156,9.0,4.0,2.0,-10.0,-6.0,-9.0,0.0,-4.0
1702324378.1321156,-10.0,18.0,4.0,-6.0,-2.0,1.0,0.0,-16.0
1702324378.1321156,32.0,13.0,15.0,25.0,15.0,8.0,9.0,0.0
1702324378.1321156,-23.0,-26.0,13.0,4.0,0.0,-15.0,-16.0,14.0
1702324378.142115,32.0,56.0,-42.0,-7.0,2.0,28.0,17.0,8.0
1702324378.142115,-62.0,-51.0,-11.0,-4.0,-4.0,-29.0,-25.0,-37.0
1702324378.1521146,2.0,26.0,4.0,-5.0,-8.0,0.0,-35.0,-35.0
1702324378.1521146,-11.0,-35.0,16.0,1.0,-2.0,25.0,16.0,-25.0
1702324378.1621168,-24.0,-5.0,-11.0,4.0,-1.0,-9.0,-9.0,-3.0
1702324378.1621168,22.0,26.0,13.0,-2.0,-3.0,-16.0,-15.0,-9.0
1702324378.1721148,10.0,-22.0,-4.0,1.0,1.0,11.0,31.0,51.0
1702324378.1721148,24.0,40.0,3.0,-3.0,-10.0,-15.0,-14.0,12.0
1702324378.1824336,-24.0,-30.0,0.0,-6.0,-1.0,-5.0,-14.0,-29.0
1702324378.1824336,12.0,2.0,-8.0,3.0,-4.0,-4.0,2.0,47.0
1702324378.192117,-21.0,-2.0,-7.0,-2.0,-6.0,-10.0,-9.0,-22.0
1702324378.192117,14.0,5.0,-3.0,1.0,5.0,-2.0,3.0,-24.0
1702324378.2021508,-9.0,-17.0,-5.0,-3.0,5.0,-6.0,5.0,36.0
1702324378.2021508,5.0,1.0,-5.0,-13.0,-4.0,14.0,-5.0,-17.0
1702324378.212372,-5.0,-10.0,-6.0,-7.0,-7.0,-2.0,1.0,4.0
1702324378.212372,-2.0,2.0,6.0,14.0,11.0,0.0,5.0,2.0
1702324378.2225096,-5.0,-12.0,9.0,27.0,5.0,8.0,2.0,11.0
1702324378.2225096,19.0,18.0,22.0,16.0,5.0,2.0,5.0,0.0
1702324378.2324245,-4.0,-16.0,-23.0,-17.0,-7.0,0.0,-4.0,-4.0
1702324378.2324245,-3.0,15.0,0.0,0.0,-1.0,0.0,-2.0,8.0
1702324378.2521174,-1.0,-8.0,-27.0,-53.0,-20.0,-20.0,-11.0,5.0
1702324378.2521174,-8.0,-10.0,21.0,53.0,12.0,7.0,3.0,-9.0
1702324378.2621117,0.0,-3.0,-10.0,-12.0,1.0,-1.0,6.0,6.0
1702324378.2621117,-1.0,-3.0,6.0,22.0,-2.0,-6.0,-4.0,8.0
1702324378.2723556,7.0,24.0,9.0,18.0,15.0,9.0,4.0,4.0
1702324378.2723556,-15.0,-18.0,14.0,-20.0,-13.0,1.0,-3.0,-14.0
1702324378.2723556,9.0,9.0,-15.0,-20.0,-5.0,-3.0,-2.0,4.0
1702324378.2723556,-11.0,-24.0,7.0,-45.0,-9.0,-4.0,0.0,5.0
1702324378.2823296,-7.0,22.0,-45.0,33.0,-5.0,-2.0,-2.0,-7.0
1702324378.2823296,-1.0,-1.0,-8.0,-12.0,-2.0,1.0,2.0,2.0
1702324378.2921197,-4.0,39.0,41.0,33.0,10.0,-4.0,-1.0,-3.0
1702324378.2921197,2.0,21.0,20.0,-13.0,0.0,1.0,-2.0,-1.0
1702324378.3221128,12.0,-9.0,5.0,-31.0,-7.0,0.0,17.0,7.0
1702324378.3221128,-10.0,-25.0,-4.0,25.0,6.0,-1.0,-13.0,-1.0
1702324378.3221128,-27.0,-24.0,-8.0,3.0,-5.0,-12.0,7.0,-22.0
1702324378.3221128,0.0,6.0,-22.0,4.0,0.0,4.0,-18.0,9.0
1702324378.3323767,-8.0,-47.0,4.0,-4.0,1.0,-1.0,-9.0,-35.0
1702324378.3323767,44.0,87.0,4.0,-13.0,-3.0,6.0,25.0,36.0
1702324378.3323767,-7.0,9.0,13.0,-3.0,-2.0,-1.0,2.0,17.0
1702324378.3323767,-40.0,-37.0,-2.0,4.0,-3.0,1.0,-2.0,-17.0
1702324378.342464,7.0,16.0,-6.0,4.0,-4.0,-9.0,-6.0,11.0
1702324378.342464,-18.0,-28.0,-33.0,-4.0,9.0,23.0,-8.0,-45.0
1702324378.352432,39.0,44.0,44.0,11.0,5.0,-9.0,-22.0,6.0
1702324378.352432,-2.0,25.0,-14.0,-12.0,-16.0,-8.0,4.0,-5.0
1702324378.3721273,17.0,-32.0,23.0,6.0,2.0,0.0,-15.0,5.0
1702324378.3721273,-13.0,-13.0,-9.0,-6.0,-3.0,-24.0,0.0,29.0
1702324378.3721273,-42.0,-88.0,-25.0,0.0,-1.0,7.0,-1.0,-32.0
1702324378.3721273,50.0,112.0,6.0,7.0,-1.0,20.0,-1.0,43.0
1702324378.3923595,-35.0,-19.0,4.0,-9.0,-9.0,-2.0,16.0,-1.0
1702324378.3923595,9.0,9.0,-8.0,-11.0,-2.0,10.0,8.0,-23.0
1702324378.3923595,10.0,-15.0,-4.0,2.0,3.0,1.0,12.0,-3.0
1702324378.3923595,-22.0,-58.0,-3.0,4.0,0.0,-10.0,-7.0,-22.0
1702324378.402352,11.0,14.0,0.0,-3.0,-11.0,-3.0,-7.0,-1.0
1702324378.402352,10.0,16.0,-1.0,-2.0,0.0,-13.0,-3.0,18.0
1702324378.4213738,6.0,8.0,7.0,3.0,5.0,5.0,-6.0,-10.0
1702324378.4233732,5.0,-14.0,-12.0,2.0,3.0,1.0,6.0,-3.0
1702324378.4425337,3.0,19.0,7.0,2.0,6.0,-16.0,-28.0,1.0
1702324378.4425337,-3.0,-1.0,12.0,0.0,-5.0,3.0,16.0,-18.0
1702324378.4425337,-4.0,-14.0,-21.0,-30.0,-11.0,12.0,8.0,20.0
1702324378.4425337,-14.0,-19.0,-8.0,6.0,1.0,3.0,0.0,-8.0
1702324378.454571,4.0,16.0,8.0,-5.0,-2.0,-1.0,-2.0,5.0
1702324378.454571,-12.0,-28.0,15.0,7.0,-2.0,-12.0,-10.0,10.0
1702324378.454571,10.0,-2.0,-18.0,-17.0,1.0,0.0,-3.0,3.0
1702324378.454571,-7.0,-6.0,-23.0,15.0,5.0,-4.0,2.0,-6.0
1702324378.4648316,-6.0,6.0,16.0,-5.0,6.0,-1.0,0.0,0.0
1702324378.4648316,6.0,6.0,-1.0,-4.0,-6.0,3.0,-6.0,-8.0
1702324378.4745846,14.0,12.0,7.0,2.0,-4.0,0.0,3.0,6.0
1702324378.4745846,-8.0,0.0,35.0,-22.0,-15.0,-9.0,-5.0,-9.0
1702324378.4945672,-16.0,-29.0,-82.0,-8.0,-10.0,-2.0,4.0,-1.0
1702324378.4945672,-9.0,-7.0,-14.0,-22.0,-4.0,4.0,-3.0,-7.0
1702324378.4945672,-6.0,1.0,4.0,5.0,-1.0,-4.0,-8.0,1.0
1702324378.4945672,14.0,16.0,55.0,30.0,3.0,-3.0,3.0,5.0
1702324378.5045898,18.0,1.0,-35.0,-18.0,-5.0,3.0,1.0,-3.0
1702324378.5146086,-5.0,20.0,6.0,-2.0,-2.0,1.0,-3.0,-4.0
1702324378.5146086,3.0,-3.0,29.0,25.0,5.0,-4.0,-3.0,4.0
1702324378.5146086,-15.0,-57.0,-59.0,-28.0,-3.0,-3.0,-2.0,-8.0
1702324378.5230412,2.0,-1.0,19.0,27.0,3.0,8.0,3.0,-3.0
1702324378.5230412,7.0,30.0,15.0,-3.0,-1.0,-10.0,-2.0,7.0
1702324378.5332348,-1.0,7.0,-30.0,-1.0,1.0,0.0,3.0,7.0
1702324378.5332348,-11.0,4.0,-11.0,-5.0,2.0,-3.0,1.0,3.0
1702324378.5430496,-10.0,20.0,1.0,-5.0,-3.0,-2.0,-3.0,-11.0
1702324378.5430496,10.0,-14.0,1.0,1.0,9.0,11.0,1.0,-9.0
1702324378.5530949,-23.0,-3.0,44.0,9.0,-2.0,-3.0,2.0,25.0
1702324378.5530949,8.0,-26.0,-17.0,0.0,2.0,-1.0,-3.0,-14.0
1702324378.573898,28.0,60.0,9.0,5.0,2.0,-11.0,5.0,47.0
1702324378.573898,-22.0,-42.0,-2.0,1.0,1.0,1.0,10.0,-16.0
1702324378.573898,-1.0,0.0,-29.0,-4.0,-2.0,10.0,8.0,-17.0
1702324378.573898,40.0,77.0,-7.0,-6.0,-6.0,-17.0,-31.0,2.0
1702324378.5834327,-39.0,-30.0,6.0,-6.0,0.0,34.0,38.0,24.0
1702324378.5834327,-22.0,-64.0,4.0,4.0,0.0,5.0,-42.0,-50.0
1702324378.593467,12.0,20.0,-6.0,4.0,2.0,-3.0,2.0,3.0
1702324378.593467,42.0,-19.0,22.0,0.0,-1.0,-5.0,2.0,-2.0
1702324378.603834,1.0,55.0,28.0,8.0,0.0,-17.0,-6.0,-4.0
1702324378.603834,19.0,-33.0,-17.0,-2.0,2.0,8.0,11.0,32.0
1702324378.603834,-28.0,22.0,-18.0,-6.0,-6.0,-4.0,-5.0,-35.0
1702324378.603834,-1.0,90.0,10.0,6.0,7.0,4.0,15.0,16.0
1702324378.6339116,12.0,10.0,10.0,-2.0,-4.0,4.0,-15.0,-15.0
1702324378.6339116,-13.0,25.0,-7.0,-3.0,-4.0,0.0,-13.0,29.0
1702324378.6339116,-2.0,-43.0,7.0,3.0,7.0,-4.0,-3.0,-33.0
1702324378.6339116,-2.0,-34.0,-4.0,4.0,4.0,-9.0,12.0,-3.0
1702324378.6435761,-1.0,-23.0,5.0,-1.0,1.0,1.0,-5.0,-8.0
1702324378.6435761,1.0,34.0,-10.0,-15.0,-6.0,2.0,5.0,11.0
1702324378.6536043,11.0,22.0,6.0,-32.0,-11.0,-8.0,-7.0,9.0
1702324378.6536043,-30.0,-11.0,-1.0,6.0,-12.0,-4.0,-5.0,1.0
1702324378.663931,-31.0,-50.0,-1.0,28.0,16.0,-3.0,-6.0,-18.0
1702324378.663931,29.0,-4.0,-35.0,-15.0,-6.0,-7.0,-2.0,-10.0
1702324378.663931,15.0,14.0,57.0,7.0,-14.0,-8.0,-2.0,13.0
1702324378.663931,-10.0,-38.0,-70.0,-4.0,16.0,14.0,7.0,-5.0
1702324378.6939812,1.0,-7.0,5.0,-2.0,-8.0,-3.0,-4.0,-1.0
1702324378.6939812,-2.0,-12.0,1.0,-44.0,-15.0,-10.0,6.0,4.0
1702324378.6939812,14.0,1.0,-32.0,27.0,6.0,0.0,-5.0,5.0
1702324378.6939812,-2.0,4.0,14.0,-31.0,-13.0,-1.0,-2.0,4.0
1702324378.7035952,3.0,-11.0,21.0,63.0,17.0,2.0,1.0,-7.0
1702324378.7035952,4.0,25.0,-3.0,-17.0,-2.0,-3.0,3.0,3.0
1702324378.7136326,9.0,-31.0,-32.0,-32.0,-11.0,-1.0,5.0,10.0
1702324378.7136326,-7.0,24.0,65.0,10.0,-6.0,-6.0,-14.0,-14.0
1702324378.7240245,14.0,24.0,8.0,-21.0,-9.0,-13.0,-4.0,-5.0
1702324378.7240245,11.0,12.0,37.0,11.0,-2.0,5.0,9.0,4.0
1702324378.7240245,17.0,-104.0,-26.0,7.0,14.0,3.0,-27.0,2.0
1702324378.7240245,-16.0,-8.0,-30.0,-3.0,0.0,9.0,18.0,36.0
1702324378.7540176,28.0,71.0,2.0,-29.0,-6.0,-1.0,7.0,8.0
1702324378.7540176,-26.0,-46.0,-6.0,11.0,-8.0,-17.0,-23.0,-9.0
1702324378.7540176,30.0,22.0,16.0,8.0,7.0,8.0,12.0,4.0
1702324378.7540176,-18.0,-40.0,-15.0,7.0,3.0,-4.0,-12.0,21.0
1702324378.7736046,-8.0,18.0,-4.0,-10.0,-10.0,-10.0,-27.0,-11.0
1702324378.7736046,17.0,-38.0,1.0,15.0,13.0,18.0,32.0,-10.0
1702324378.7736046,-34.0,-61.0,-9.0,15.0,5.0,-4.0,9.0,69.0
1702324378.7736046,9.0,11.0,5.0,-7.0,-7.0,-16.0,-40.0,-40.0
1702324378.7838778,-29.0,-37.0,-3.0,-12.0,-5.0,35.0,44.0,18.0
1702324378.7838778,31.0,17.0,4.0,12.0,6.0,8.0,-12.0,-4.0
1702324378.7838778,-24.0,82.0,14.0,0.0,-2.0,-3.0,8.0,-53.0
1702324378.7936587,10.0,-13.0,3.0,8.0,3.0,4.0,4.0,33.0
1702324378.8236065,-4.0,-34.0,-7.0,-14.0,-6.0,-16.0,-20.0,-35.0
1702324378.8236065,10.0,33.0,2.0,18.0,11.0,2.0,14.0,23.0
1702324378.8236065,-15.0,2.0,2.0,5.0,-1.0,5.0,-1.0,11.0
1702324378.8236065,-6.0,7.0,-6.0,-5.0,-5.0,-8.0,20.0,-19.0
1702324378.8236065,-5.0,-10.0,-6.0,-2.0,0.0,-2.0,-17.0,-16.0
1702324378.8236065,-18.0,-8.0,-11.0,-7.0,-5.0,-8.0,-11.0,16.0
1702324378.833631,-2.0,31.0,1.0,-1.0,1.0,-6.0,17.0,-16.0
1702324378.833631,11.0,32.0,5.0,6.0,7.0,14.0,-12.0,-1.0
1702324378.8440301,8.0,-50.0,2.0,-3.0,-5.0,-10.0,12.0,24.0
1702324378.8440301,-34.0,4.0,3.0,3.0,-8.0,-3.0,-9.0,-19.0
1702324378.8440301,-11.0,4.0,-6.0,-6.0,2.0,-3.0,-7.0,4.0
1702324378.8440301,8.0,13.0,-2.0,-23.0,-20.0,-1.0,7.0,-15.0
1702324378.8736923,-17.0,-14.0,-9.0,5.0,10.0,8.0,-4.0,-10.0
1702324378.8736923,-10.0,15.0,12.0,24.0,12.0,-4.0,15.0,8.0
1702324378.8736923,11.0,20.0,-19.0,-36.0,-5.0,0.0,-12.0,-6.0
1702324378.8736923,-3.0,-13.0,16.0,32.0,-8.0,-5.0,-1.0,-5.0
1702324378.883692,-2.0,16.0,21.0,38.0,29.0,9.0,-3.0,3.0
1702324378.883692,2.0,-9.0,-18.0,-16.0,-14.0,-13.0,-5.0,-12.0
1702324378.8941054,-17.0,-9.0,-2.0,-10.0,-7.0,-1.0,10.0,-6.0
1702324378.8941054,-16.0,-30.0,-45.0,-42.0,-6.0,-1.0,-17.0,-15.0
1702324378.9041097,10.0,20.0,36.0,28.0,5.0,-1.0,-1.0,4.0
1702324378.9041097,14.0,28.0,15.0,8.0,3.0,4.0,2.0,-1.0
1702324378.9041097,-12.0,-6.0,4.0,3.0,4.0,6.0,-5.0,-8.0
1702324378.9041097,-8.0,-12.0,-3.0,5.0,0.0,-2.0,4.0,3.0
1702324378.933692,-3.0,-15.0,-33.0,-18.0,-6.0,1.0,4.0,3.0
1702324378.933692,2.0,11.0,4.0,-7.0,4.0,0.0,-2.0,0.0
1702324378.933692,6.0,5.0,13.0,2.0,-10.0,-7.0,-9.0,1.0
1702324378.933692,2.0,0.0,-18.0,13.0,7.0,0.0,6.0,1.0
1702324378.9471478,-6.0,-10.0,10.0,-24.0,-14.0,-6.0,0.0,-1.0
1702324378.9471478,-4.0,-6.0,-16.0,10.0,-1.0,-5.0,-9.0,-10.0
1702324378.956216,-11.0,22.0,14.0,1.0,0.0,2.0,-3.0,-2.0
1702324378.956216,2.0,0.0,28.0,12.0,8.0,6.0,10.0,1.0
1702324378.971282,1.0,4.0,-55.0,-13.0,-5.0,-6.0,-4.0,-5.0
1702324378.971282,3.0,-1.0,29.0,-8.0,-10.0,-5.0,-5.0,1.0
1702324378.9732783,-1.0,-32.0,-75.0,30.0,4.0,-3.0,-6.0,-2.0
1702324378.9732783,-1.0,-4.0,18.0,-4.0,2.0,6.0,4.0,2.0
1702324378.9877772,4.0,19.0,84.0,10.0,-7.0,-3.0,-1.0,-1.0
1702324378.9877772,-20.0,0.0,9.0,-19.0,-8.0,-5.0,-9.0,-11.0
1702324378.9877772,5.0,-5.0,-20.0,9.0,4.0,3.0,-1.0,1.0
1702324378.9877772,0.0,-8.0,-18.0,-8.0,7.0,-2.0,6.0,1.0
1702324379.0081587,2.0,-9.0,-36.0,-15.0,2.0,-7.0,-3.0,1.0
1702324379.0081587,0.0,6.0,20.0,9.0,9.0,12.0,37.0,6.0
1702324379.0081587,6.0,11.0,55.0,11.0,8.0,16.0,-23.0,-9.0
1702324379.0081587,0.0,-1.0,-43.0,-7.0,-6.0,-3.0,1.0,-14.0
1702324379.028352,-4.0,-5.0,-1.0,-13.0,-15.0,-19.0,-24.0,-11.0
1702324379.028352,-1.0,-5.0,-21.0,-4.0,-6.0,7.0,4.0,2.0
1702324379.028352,4.0,2.0,2.0,-13.0,-9.0,-2.0,17.0,11.0
1702324379.028352,-11.0,-15.0,-11.0,1.0,3.0,3.0,8.0,-2.0
1702324379.048189,1.0,-17.0,-50.0,-5.0,-1.0,1.0,-3.0,3.0
1702324379.048189,-4.0,27.0,75.0,-10.0,-9.0,-16.0,-12.0,-13.0
1702324379.048189,3.0,14.0,-3.0,2.0,1.0,-4.0,-4.0,-2.0
1702324379.048189,2.0,4.0,20.0,4.0,0.0,-1.0,-8.0,-1.0
1702324379.0681581,4.0,-10.0,-41.0,-13.0,-6.0,0.0,9.0,2.0
1702324379.0681581,-1.0,-20.0,-51.0,3.0,6.0,2.0,-11.0,0.0
1702324379.0784726,-1.0,0.0,20.0,10.0,1.0,-3.0,0.0,1.0
1702324379.0784726,1.0,-2.0,14.0,-5.0,-4.0,-6.0,-4.0,1.0
1702324379.0882885,-3.0,3.0,-2.0,-2.0,-5.0,-1.0,3.0,-2.0
1702324379.0882885,6.0,-7.0,-13.0,10.0,10.0,8.0,1.0,3.0
1702324379.0981567,-2.0,17.0,18.0,-2.0,-1.0,-2.0,-4.0,-6.0
1702324379.0981567,-5.0,-7.0,-14.0,-1.0,-2.0,-7.0,0.0,4.0
1702324379.1085074,7.0,18.0,14.0,-7.0,-7.0,0.0,-4.0,-5.0
1702324379.1085074,-18.0,-2.0,-16.0,-12.0,-7.0,-9.0,-14.0,-4.0
1702324379.1085074,7.0,-7.0,-7.0,-13.0,-6.0,-11.0,1.0,2.0
1702324379.1085074,6.0,-12.0,22.0,11.0,2.0,7.0,4.0,11.0
1702324379.118447,-13.0,2.0,28.0,9.0,14.0,15.0,10.0,3.0
1702324379.118447,5.0,14.0,-6.0,4.0,4.0,-2.0,-2.0,2.0
1702324379.128158,-2.0,16.0,-17.0,-5.0,-3.0,-2.0,3.0,-3.0
1702324379.128158,-2.0,-25.0,3.0,-2.0,-1.0,-3.0,-9.0,-5.0
1702324379.1481564,3.0,4.0,8.0,-9.0,-10.0,-9.0,-5.0,-2.0
1702324379.1481564,8.0,-7.0,-17.0,-2.0,0.0,0.0,8.0,4.0
1702324379.1481564,10.0,-4.0,12.0,-6.0,-7.0,-6.0,1.0,5.0
1702324379.1481564,-10.0,-7.0,5.0,-3.0,-5.0,-2.0,0.0,5.0
1702324379.1685786,-4.0,10.0,2.0,3.0,3.0,1.0,-1.0,-2.0
1702324379.1685786,5.0,7.0,-4.0,0.0,2.0,2.0,2.0,0.0
1702324379.1685786,-17.0,-70.0,-24.0,-4.0,-2.0,-3.0,-4.0,-5.0
1702324379.1685786,-4.0,-17.0,0.0,-1.0,2.0,1.0,3.0,-2.0
1702324379.1881583,17.0,17.0,30.0,4.0,-1.0,1.0,0.0,-6.0
1702324379.1881583,40.0,93.0,-6.0,0.0,-1.0,-2.0,-6.0,-1.0
1702324379.1984928,-65.0,-63.0,3.0,0.0,0.0,-1.0,-4.0,5.0
1702324379.1984928,22.0,23.0,-17.0,-3.0,0.0,0.0,-1.0,-10.0
1702324379.208288,-24.0,-41.0,-23.0,-7.0,-2.0,-2.0,-5.0,2.0
1702324379.208288,0.0,-10.0,1.0,-5.0,-4.0,0.0,1.0,-9.0
1702324379.2181613,24.0,68.0,3.0,0.0,1.0,6.0,8.0,11.0
1702324379.2181613,-11.0,-11.0,-3.0,-3.0,-5.0,-4.0,-17.0,-12.0
1702324379.2281835,16.0,30.0,24.0,9.0,-4.0,-3.0,9.0,14.0
1702324379.2281835,-18.0,-26.0,2.0,6.0,6.0,2.0,-13.0,-1.0
1702324379.2281835,-31.0,-21.0,-20.0,-6.0,0.0,-6.0,-7.0,-1.0
1702324379.2281835,-7.0,7.0,3.0,-1.0,1.0,-2.0,1.0,5.0
1702324379.2485394,-2.0,-11.0,-16.0,-11.0,-2.0,1.0,-7.0,-9.0
1702324379.2485394,6.0,-4.0,-4.0,2.0,-2.0,-2.0,14.0,2.0
1702324379.2581594,20.0,-19.0,-12.0,-9.0,-7.0,-7.0,-15.0,-15.0
1702324379.2581594,1.0,15.0,3.0,0.0,3.0,3.0,2.0,0.0
1702324379.2681553,-1.0,-4.0,-8.0,-2.0,-1.0,-2.0,1.0,1.0
1702324379.2681553,-16.0,-26.0,-2.0,-3.0,-3.0,-2.0,0.0,-1.0
1702324379.278163,0.0,-3.0,-5.0,-11.0,-6.0,-3.0,0.0,-8.0
1702324379.278163,-15.0,-6.0,3.0,1.0,2.0,2.0,1.0,-5.0
1702324379.288161,-6.0,-5.0,2.0,15.0,4.0,2.0,7.0,4.0
1702324379.288161,-10.0,-23.0,-3.0,3.0,-2.0,-7.0,-9.0,-5.0
1702324379.288161,24.0,30.0,15.0,9.0,5.0,3.0,2.0,0.0
1702324379.288161,-6.0,8.0,0.0,9.0,15.0,8.0,10.0,8.0
1702324379.3085034,-23.0,-33.0,-18.0,-15.0,1.0,2.0,2.0,-6.0
1702324379.3085034,-11.0,-19.0,-15.0,-11.0,-7.0,-3.0,-10.0,-7.0
1702324379.3381562,17.0,23.0,8.0,-3.0,-9.0,-5.0,2.0,-1.0
1702324379.3381562,-3.0,4.0,6.0,-2.0,-6.0,0.0,3.0,-2.0
1702324379.3381562,13.0,11.0,3.0,6.0,12.0,6.0,5.0,2.0
1702324379.3381562,0.0,-2.0,5.0,3.0,-1.0,-5.0,-21.0,-7.0
1702324379.3381562,0.0,-1.0,-1.0,-1.0,5.0,2.0,3.0,0.0
1702324379.3381562,5.0,6.0,-2.0,-10.0,-23.0,-9.0,-6.0,-1.0
1702324379.3483746,5.0,8.0,-3.0,-13.0,-20.0,-11.0,-1.0,-2.0
1702324379.3483746,-1.0,-1.0,0.0,-3.0,4.0,-1.0,4.0,2.0
1702324379.3585336,0.0,7.0,10.0,11.0,11.0,3.0,1.0,-1.0
1702324379.3585336,1.0,1.0,-3.0,14.0,0.0,-7.0,-2.0,-2.0
1702324379.3685963,5.0,-1.0,-9.0,-21.0,-61.0,-24.0,-6.0,2.0
1702324379.378173,-13.0,-12.0,-16.0,-22.0,-26.0,-6.0,-6.0,-8.0
1702324379.378173,-1.0,-4.0,4.0,-10.0,38.0,18.0,3.0,-4.0
1702324379.378173,6.0,12.0,18.0,60.0,89.0,9.0,5.0,1.0
1702324379.3881557,3.0,13.0,29.0,60.0,67.0,35.0,4.0,7.0
1702324379.3881557,7.0,-4.0,9.0,8.0,1.0,5.0,-12.0,5.0
1702324379.3981595,3.0,7.0,-2.0,-19.0,-51.0,-93.0,-37.0,-20.0
1702324379.3981595,-12.0,-5.0,-22.0,-42.0,-50.0,66.0,31.0,-44.0
1702324379.4084759,26.0,0.0,-12.0,-23.0,-22.0,58.0,7.0,34.0
1702324379.4084759,-8.0,-4.0,-6.0,-4.0,-4.0,26.0,21.0,38.0
1702324379.4084759,45.0,-6.0,-8.0,-6.0,-9.0,-12.0,-4.0,-33.0
1702324379.4084759,-82.0,-17.0,-6.0,-15.0,-15.0,-61.0,-29.0,12.0
1702324379.4381576,-17.0,-7.0,-4.0,-1.0,3.0,-57.0,-14.0,-53.0
1702324379.4381576,8.0,7.0,1.0,1.0,13.0,15.0,3.0,-16.0
1702324379.4381576,18.0,-1.0,-7.0,-2.0,-4.0,15.0,-3.0,6.0
1702324379.4381576,22.0,14.0,11.0,4.0,-1.0,-17.0,-9.0,-7.0
1702324379.448156,4.0,-9.0,-5.0,-5.0,3.0,-1.0,-2.0,16.0
1702324379.448156,-4.0,3.0,6.0,7.0,8.0,-11.0,7.0,4.0
1702324379.4582117,-12.0,-2.0,1.0,8.0,-2.0,-5.0,4.0,-11.0
1702324379.4582117,19.0,-1.0,0.0,-7.0,-4.0,-8.0,-2.0,34.0
1702324379.474074,-9.0,-1.0,4.0,1.0,13.0,-5.0,16.0,6.0
1702324379.474074,6.0,-3.0,-4.0,-1.0,0.0,-14.0,-25.0,-34.0
1702324379.4752715,-15.0,-2.0,0.0,4.0,1.0,82.0,35.0,60.0
1702324379.4752715,27.0,-1.0,-4.0,-11.0,-7.0,3.0,15.0,6.0
1702324379.4942772,0.0,4.0,-4.0,-2.0,3.0,-7.0,10.0,-12.0
1702324379.4942772,-24.0,-3.0,0.0,6.0,2.0,-19.0,-14.0,-3.0
1702324379.4942772,-10.0,0.0,-1.0,4.0,3.0,-63.0,-39.0,-16.0
1702324379.4942772,13.0,7.0,7.0,1.0,3.0,94.0,45.0,19.0
1702324379.5046852,1.0,-5.0,-5.0,-8.0,-8.0,-15.0,-1.0,46.0
1702324379.5046852,5.0,-3.0,-7.0,-3.0,-5.0,25.0,17.0,-33.0
1702324379.5147133,-23.0,1.0,1.0,0.0,-13.0,-13.0,-29.0,-18.0
1702324379.5147133,9.0,4.0,4.0,-3.0,0.0,-40.0,-18.0,-5.0
1702324379.525118,-7.0,-10.0,-6.0,0.0,2.0,-12.0,-1.0,-36.0
1702324379.525118,7.0,-4.0,9.0,1.0,5.0,11.0,3.0,19.0
1702324379.5347273,-2.0,0.0,5.0,0.0,8.0,-13.0,3.0,17.0
1702324379.5347273,2.0,-1.0,-1.0,8.0,4.0,1.0,-4.0,-19.0
1702324379.5547738,-3.0,19.0,2.0,7.0,-2.0,7.0,-12.0,-14.0
1702324379.5547738,-5.0,-21.0,-18.0,-8.0,-7.0,-26.0,-6.0,13.0
1702324379.5547738,4.0,1.0,-1.0,5.0,0.0,28.0,24.0,5.0
1702324379.5547738,8.0,21.0,24.0,-5.0,-5.0,-6.0,-9.0,-3.0
1702324379.5650039,-10.0,-2.0,26.0,-1.0,-3.0,-8.0,-21.0,-3.0
1702324379.5650039,-2.0,-29.0,-20.0,-32.0,-18.0,-21.0,5.0,-8.0
1702324379.5749931,-13.0,-14.0,-45.0,1.0,-9.0,2.0,5.0,-7.0
1702324379.5749931,-3.0,17.0,27.0,0.0,-3.0,7.0,12.0,5.0
1702324379.5849886,14.0,17.0,11.0,7.0,10.0,-5.0,-17.0,0.0
1702324379.5849886,-1.0,8.0,-21.0,25.0,26.0,21.0,-12.0,-11.0
1702324379.5947309,2.0,1.0,30.0,-13.0,-3.0,16.0,18.0,-4.0
1702324379.5947309,-10.0,10.0,-3.0,9.0,-2.0,-31.0,-20.0,-3.0
1702324379.6247237,7.0,38.0,67.0,23.0,-3.0,-20.0,5.0,-4.0
1702324379.6247237,0.0,13.0,-20.0,-15.0,-17.0,6.0,0.0,1.0
1702324379.6247237,-11.0,-4.0,-69.0,-19.0,-5.0,9.0,9.0,0.0
1702324379.6247237,-3.0,-37.0,-32.0,-21.0,-4.0,-4.0,-14.0,7.0
1702324379.6247237,-11.0,-21.0,-29.0,-15.0,-1.0,20.0,14.0,-7.0
1702324379.6247237,7.0,17.0,19.0,8.0,2.0,-15.0,-8.0,3.0
1702324379.6347258,0.0,7.0,33.0,8.0,-4.0,-14.0,2.0,7.0
1702324379.6347258,6.0,1.0,21.0,2.0,2.0,5.0,3.0,-3.0
1702324379.6547277,-8.0,-15.0,-34.0,-3.0,3.0,-1.0,-10.0,-6.0
1702324379.6547277,1.0,13.0,20.0,13.0,8.0,-3.0,7.0,10.0
1702324379.6547277,8.0,17.0,18.0,2.0,5.0,-1.0,0.0,-3.0
1702324379.6547277,-6.0,-10.0,14.0,10.0,1.0,-3.0,1.0,-7.0
1702324379.675101,1.0,-20.0,-41.0,-19.0,3.0,14.0,-4.0,3.0
1702324379.675101,-1.0,-1.0,-1.0,-4.0,-10.0,1.0,8.0,-1.0
1702324379.675101,-4.0,-7.0,10.0,2.0,2.0,-6.0,-1.0,0.0
1702324379.675101,-1.0,-15.0,-28.0,-13.0,-12.0,-23.0,-22.0,-7.0
1702324379.6851256,-3.0,3.0,6.0,0.0,-3.0,31.0,20.0,8.0
1702324379.6851256,-1.0,1.0,9.0,-4.0,-2.0,1.0,20.0,1.0
1702324379.695058,-7.0,-11.0,-10.0,-7.0,2.0,6.0,-14.0,-14.0
1702324379.695058,9.0,8.0,2.0,18.0,2.0,-13.0,32.0,10.0
1702324379.714724,15.0,2.0,-3.0,-12.0,-10.0,-3.0,-38.0,6.0
1702324379.714724,6.0,-6.0,1.0,-5.0,-7.0,-19.0,-47.0,-4.0
1702324379.714724,-6.0,-3.0,9.0,12.0,8.0,0.0,25.0,8.0
1702324379.714724,-33.0,-1.0,-9.0,0.0,1.0,8.0,-5.0,-21.0
1702324379.7351444,11.0,-9.0,-3.0,-1.0,-2.0,-20.0,-44.0,-5.0
1702324379.7351444,-34.0,-10.0,-11.0,-15.0,-5.0,2.0,2.0,-21.0
1702324379.7351444,40.0,2.0,8.0,11.0,0.0,0.0,-10.0,-9.0
1702324379.7351444,-29.0,-4.0,-13.0,-14.0,-8.0,-4.0,18.0,4.0
1702324379.7450593,4.0,-6.0,-4.0,0.0,0.0,3.0,28.0,3.0
1702324379.7450593,-12.0,4.0,6.0,4.0,1.0,2.0,4.0,20.0
1702324379.7550864,-9.0,4.0,7.0,10.0,10.0,7.0,11.0,-2.0
1702324379.7550864,23.0,6.0,2.0,2.0,3.0,2.0,1.0,14.0
1702324379.7747235,56.0,7.0,-2.0,0.0,1.0,0.0,22.0,20.0
1702324379.7747235,95.0,9.0,2.0,3.0,0.0,-3.0,-5.0,17.0
1702324379.7747235,-97.0,-16.0,-7.0,-10.0,-8.0,4.0,-19.0,-42.0
1702324379.7747235,-13.0,-23.0,-13.0,-11.0,-15.0,-2.0,-29.0,-22.0
1702324379.7950733,-90.0,-6.0,-12.0,-4.0,-3.0,-15.0,-2.0,21.0
1702324379.7950733,46.0,7.0,25.0,10.0,10.0,10.0,21.0,-27.0
1702324379.7950733,78.0,26.0,12.0,6.0,10.0,15.0,11.0,37.0
1702324379.7950733,5.0,-39.0,-11.0,-6.0,-7.0,-17.0,-7.0,8.0
1702324379.8051374,-77.0,-23.0,-3.0,-5.0,-9.0,7.0,-21.0,-28.0
1702324379.8051374,-50.0,1.0,-38.0,-5.0,-1.0,-2.0,32.0,9.0
1702324379.815104,25.0,-9.0,5.0,0.0,1.0,-2.0,-13.0,5.0
1702324379.815104,23.0,25.0,7.0,-3.0,-3.0,-5.0,-24.0,-25.0
1702324379.8347247,29.0,1.0,13.0,-1.0,-3.0,-10.0,0.0,4.0
1702324379.8347247,-40.0,-2.0,7.0,4.0,1.0,-4.0,-10.0,-7.0
1702324379.8347247,6.0,16.0,-7.0,-3.0,-3.0,-9.0,-3.0,-5.0
1702324379.8347247,38.0,6.0,4.0,0.0,6.0,14.0,30.0,26.0
1702324379.8550837,-18.0,-33.0,0.0,-2.0,-2.0,-4.0,0.0,-20.0
1702324379.8550837,-25.0,36.0,4.0,-4.0,-4.0,-15.0,-13.0,-4.0
1702324379.8550837,-12.0,-8.0,-11.0,-11.0,-9.0,4.0,10.0,13.0
1702324379.8550837,11.0,12.0,1.0,26.0,16.0,-28.0,-7.0,-1.0
1702324379.8651078,33.0,10.0,3.0,5.0,3.0,28.0,8.0,2.0
1702324379.8651078,-12.0,-18.0,-1.0,1.0,-2.0,-3.0,1.0,8.0
1702324379.874725,-17.0,-9.0,-3.0,-4.0,-7.0,0.0,-7.0,-22.0
1702324379.874725,-29.0,-1.0,-7.0,-6.0,-2.0,10.0,-3.0,-1.0
1702324379.884757,19.0,4.0,1.0,3.0,-1.0,-17.0,-6.0,-6.0
1702324379.884757,10.0,-4.0,7.0,7.0,6.0,2.0,-1.0,9.0
1702324379.8947258,-4.0,-1.0,-4.0,-6.0,-7.0,-17.0,-20.0,9.0
1702324379.8947258,-5.0,-2.0,-3.0,-6.0,-3.0,-3.0,7.0,-3.0
1702324379.9150898,3.0,11.0,2.0,6.0,7.0,32.0,27.0,-1.0
1702324379.9150898,6.0,2.0,5.0,-5.0,-3.0,6.0,0.0,-4.0
1702324379.9150898,2.0,12.0,11.0,7.0,2.0,-11.0,-14.0,19.0
1702324379.9150898,-2.0,6.0,-5.0,-7.0,-1.0,-12.0,0.0,-21.0
1702324379.9251008,-10.0,-23.0,-32.0,-11.0,-7.0,-6.0,-4.0,11.0
1702324379.9251008,-7.0,-13.0,-14.0,-5.0,-9.0,-18.0,-24.0,-29.0
1702324379.9347274,5.0,-18.0,9.0,5.0,4.0,32.0,40.0,4.0
1702324379.9347274,-2.0,32.0,15.0,2.0,2.0,7.0,-6.0,28.0
1702324379.9447582,1.0,-3.0,7.0,1.0,-2.0,1.0,18.0,-7.0
1702324379.9447582,3.0,6.0,-11.0,-9.0,-4.0,-13.0,-17.0,-1.0
1702324379.9550512,-11.0,-27.0,-7.0,-5.0,4.0,-2.0,-6.0,-13.0
1702324379.9550512,-3.0,-22.0,3.0,-18.0,-11.0,6.0,-11.0,-10.0
1702324379.9751742,9.0,6.0,-19.0,-12.0,-1.0,-8.0,-16.0,-6.0
1702324379.9751742,7.0,-4.0,21.0,27.0,-1.0,0.0,7.0,11.0
1702324379.9751742,5.0,65.0,17.0,11.0,3.0,-5.0,-4.0,2.0
1702324379.9751742,-11.0,-82.0,-20.0,-13.0,-4.0,5.0,-1.0,3.0
1702324379.9850545,-2.0,38.0,-4.0,12.0,-6.0,-26.0,-15.0,-13.0
1702324379.9850545,3.0,-66.0,-28.0,-18.0,8.0,11.0,13.0,8.0
1702324379.9947264,21.0,70.0,13.0,10.0,-18.0,0.0,4.0,3.0
1702324379.9947264,-11.0,-32.0,13.0,68.0,30.0,0.0,-12.0,-7.0
1702324380.0123878,38.0,5.0,-7.0,-24.0,-3.0,-1.0,12.0,5.0
1702324380.0133877,-76.0,-72.0,1.0,2.0,-6.0,-1.0,-5.0,-17.0
1702324380.0193892,37.0,70.0,-20.0,-7.0,10.0,4.0,0.0,10.0
1702324380.0193892,-12.0,90.0,11.0,-74.0,-56.0,-15.0,-5.0,1.0
1702324380.0266237,4.0,23.0,52.0,71.0,16.0,1.0,-2.0,-7.0
1702324380.0266237,4.0,18.0,-16.0,4.0,22.0,15.0,7.0,11.0
1702324380.03669,-21.0,41.0,42.0,-49.0,-10.0,-1.0,0.0,-1.0
1702324380.03669,13.0,-29.0,-1.0,-9.0,-4.0,0.0,2.0,-3.0
1702324380.0469167,-6.0,-16.0,-87.0,-32.0,-10.0,-2.0,2.0,4.0
1702324380.0469167,8.0,26.0,16.0,18.0,-2.0,0.0,-3.0,3.0
1702324380.0566537,6.0,-76.0,70.0,18.0,3.0,0.0,4.0,-16.0
1702324380.0566537,-7.0,-31.0,-23.0,-15.0,-2.0,-1.0,-6.0,12.0
1702324380.0669873,-29.0,-9.0,48.0,-10.0,-6.0,-11.0,-2.0,5.0
1702324380.0669873,-17.0,-24.0,-62.0,6.0,0.0,4.0,-1.0,-28.0
1702324380.0766556,-15.0,-66.0,-15.0,-5.0,-4.0,-10.0,0.0,9.0
1702324380.0766556,16.0,65.0,15.0,4.0,4.0,5.0,-8.0,-8.0
1702324380.0954962,13.0,-61.0,-14.0,8.0,1.0,-36.0,11.0,4.0
1702324380.0954962,25.0,93.0,-3.0,-14.0,-7.0,34.0,7.0,8.0
1702324380.0954962,13.0,60.0,43.0,10.0,1.0,-2.0,-20.0,-8.0
1702324380.0954962,-58.0,-97.0,-85.0,-10.0,2.0,-11.0,-8.0,6.0
1702324380.1054962,-9.0,57.0,9.0,4.0,5.0,39.0,-4.0,-25.0
1702324380.1054962,17.0,0.0,18.0,2.0,6.0,-24.0,27.0,3.0
1702324380.1155274,-3.0,-36.0,7.0,-9.0,-2.0,26.0,38.0,-23.0
1702324380.1155274,15.0,49.0,1.0,12.0,-10.0,24.0,2.0,-10.0
1702324380.125496,-17.0,10.0,-35.0,-13.0,-2.0,-17.0,-20.0,-13.0
1702324380.125496,6.0,6.0,71.0,0.0,-5.0,-12.0,-15.0,34.0
1702324380.1357594,26.0,-37.0,-51.0,9.0,6.0,-18.0,-14.0,14.0
1702324380.1357594,39.0,97.0,6.0,13.0,15.0,-5.0,12.0,5.0
1702324380.1554964,36.0,13.0,77.0,-9.0,-12.0,-10.0,-3.0,5.0
1702324380.1554964,-68.0,-24.0,14.0,9.0,3.0,-49.0,-72.0,-24.0
1702324380.1654942,22.0,-25.0,-20.0,-4.0,-13.0,37.0,46.0,-9.0
1702324380.1654942,21.0,10.0,-28.0,-1.0,-4.0,-34.0,-6.0,35.0
1702324380.175761,-52.0,23.0,-28.0,-7.0,-8.0,38.0,9.0,-9.0
1702324380.175761,124.0,21.0,-8.0,-6.0,6.0,1.0,44.0,15.0
1702324380.175761,19.0,8.0,-14.0,9.0,0.0,5.0,-22.0,5.0
1702324380.175761,-14.0,35.0,29.0,10.0,9.0,10.0,9.0,-21.0
1702324380.1857708,12.0,-26.0,-23.0,-31.0,-9.0,-17.0,-13.0,3.0
1702324380.1857708,-121.0,-38.0,-4.0,-1.0,-8.0,-14.0,-17.0,-37.0
1702324380.1957068,-86.0,-85.0,-31.0,9.0,7.0,-7.0,-17.0,6.0
1702324380.1957068,127.0,104.0,28.0,33.0,14.0,14.0,17.0,6.0
1702324380.2155013,-38.0,72.0,27.0,12.0,12.0,-8.0,5.0,14.0
1702324380.2155013,27.0,-35.0,8.0,-27.0,-20.0,12.0,4.0,-14.0
1702324380.2354949,42.0,64.0,19.0,36.0,14.0,-6.0,-30.0,2.0
1702324380.2354949,36.0,35.0,-4.0,-48.0,-16.0,1.0,2.0,16.0
1702324380.2354949,42.0,-35.0,-20.0,77.0,30.0,3.0,-4.0,-5.0
1702324380.2354949,-22.0,-50.0,-23.0,-44.0,-6.0,18.0,14.0,5.0
1702324380.2354949,-10.0,65.0,4.0,22.0,-10.0,-16.0,2.0,5.0
1702324380.2354949,-49.0,-83.0,-13.0,3.0,10.0,-3.0,-6.0,-6.0
1702324380.245522,39.0,-28.0,-7.0,9.0,11.0,8.0,8.0,-4.0
1702324380.245522,19.0,9.0,20.0,18.0,1.0,8.0,1.0,6.0
1702324380.2556736,-12.0,-24.0,-14.0,-29.0,-4.0,-15.0,-7.0,3.0
1702324380.2654982,-33.0,-31.0,-11.0,-32.0,-34.0,-1.0,-4.0,-19.0
1702324380.2754967,-12.0,-31.0,38.0,9.0,-5.0,-3.0,4.0,0.0
1702324380.2754967,0.0,-4.0,-71.0,-35.0,12.0,7.0,-3.0,9.0
1702324380.2754967,-17.0,8.0,2.0,0.0,-6.0,-6.0,-5.0,-6.0
1702324380.2754967,-18.0,-31.0,7.0,25.0,23.0,6.0,4.0,-7.0
1702324380.2958724,-8.0,-4.0,12.0,-16.0,6.0,2.0,1.0,8.0
1702324380.2958724,8.0,19.0,13.0,44.0,-4.0,-9.0,-4.0,0.0
1702324380.2958724,-1.0,-21.0,-56.0,-29.0,6.0,2.0,13.0,-4.0
1702324380.2958724,-12.0,-10.0,31.0,17.0,8.0,-3.0,-15.0,-6.0
1702324380.3058798,-11.0,-20.0,-4.0,-18.0,-38.0,-14.0,-13.0,2.0
1702324380.3058798,14.0,25.0,2.0,-33.0,-22.0,-5.0,-7.0,-4.0
1702324380.3157895,-11.0,-54.0,-87.0,-53.0,-33.0,-11.0,1.0,0.0
1702324380.3157895,-27.0,-3.0,32.0,35.0,14.0,11.0,11.0,-2.0
1702324380.335527,-1.0,31.0,105.0,14.0,34.0,20.0,2.0,3.0
1702324380.335527,9.0,13.0,-60.0,15.0,13.0,-2.0,-4.0,-1.0
1702324380.335527,-5.0,-34.0,-48.0,16.0,8.0,-7.0,8.0,17.0
1702324380.335527,-2.0,-14.0,-15.0,-14.0,5.0,5.0,-6.0,-5.0
1702324380.3559442,-3.0,10.0,43.0,26.0,3.0,6.0,2.0,-22.0
1702324380.3559442,9.0,8.0,-16.0,-29.0,-22.0,-1.0,7.0,-6.0
1702324380.3559442,-2.0,6.0,63.0,9.0,-3.0,-9.0,-15.0,-20.0
1702324380.3559442,-9.0,3.0,-15.0,-14.0,-29.0,-9.0,4.0,15.0
1702324380.3658292,-3.0,-40.0,-106.0,-57.0,-11.0,-6.0,8.0,4.0
1702324380.3658292,1.0,-18.0,57.0,38.0,23.0,8.0,0.0,16.0
1702324380.3755724,-15.0,12.0,-30.0,-27.0,-7.0,-20.0,-26.0,-24.0
1702324380.3755724,-3.0,-17.0,1.0,4.0,1.0,8.0,1.0,-17.0
1702324380.3957925,1.0,4.0,-119.0,-15.0,-15.0,-7.0,-7.0,-11.0
1702324380.3957925,19.0,4.0,-2.0,-3.0,-7.0,-4.0,3.0,18.0
1702324380.3957925,-7.0,-45.0,-11.0,0.0,2.0,4.0,2.0,-15.0
1702324380.3957925,-1.0,-25.0,11.0,-4.0,-1.0,-4.0,-4.0,12.0
1702324380.4154942,3.0,-5.0,-3.0,-21.0,-10.0,-7.0,-23.0,-28.0
1702324380.4154942,-2.0,22.0,22.0,5.0,-3.0,-18.0,0.0,38.0
1702324380.4154942,10.0,22.0,36.0,22.0,14.0,27.0,10.0,38.0
1702324380.4154942,44.0,-7.0,-32.0,1.0,2.0,3.0,6.0,-24.0
1702324380.4255016,-48.0,36.0,52.0,4.0,4.0,2.0,19.0,21.0
1702324380.4255016,-20.0,18.0,-54.0,0.0,2.0,2.0,20.0,-35.0
1702324380.4455028,-56.0,-9.0,39.0,-1.0,-10.0,-39.0,-63.0,-41.0
1702324380.4455028,-17.0,-44.0,-9.0,6.0,8.0,-9.0,-25.0,-4.0
1702324380.465496,40.0,51.0,31.0,-1.0,-2.0,15.0,34.0,48.0
1702324380.465496,51.0,63.0,32.0,13.0,7.0,1.0,4.0,13.0
1702324380.465496,-25.0,-69.0,-27.0,-10.0,-8.0,2.0,20.0,12.0
1702324380.465496,-10.0,-65.0,-57.0,-11.0,-2.0,6.0,8.0,-14.0
1702324380.475831,-1.0,-31.0,34.0,-2.0,-6.0,-16.0,-15.0,6.0
1702324380.475831,-13.0,-25.0,3.0,-11.0,-7.0,4.0,-2.0,-1.0
1702324380.475831,0.0,6.0,-12.0,-4.0,-3.0,-1.0,6.0,-5.0
1702324380.475831,-11.0,-18.0,39.0,-10.0,-8.0,-11.0,-17.0,-18.0
1702324380.4954948,27.0,12.0,-12.0,8.0,8.0,8.0,6.0,1.0
1702324380.4954948,-49.0,-38.0,0.0,-13.0,-4.0,2.0,-8.0,-16.0
1702324380.4954948,10.0,89.0,7.0,22.0,1.0,2.0,-1.0,-3.0
1702324380.4954948,-8.0,-44.0,-21.0,43.0,37.0,11.0,10.0,9.0
1702324380.515501,13.0,31.0,15.0,-11.0,-1.0,-1.0,-2.0,-3.0
1702324380.515501,13.0,-18.0,26.0,15.0,4.0,0.0,-11.0,-13.0
1702324380.515501,17.0,-4.0,-2.0,-1.0,-1.0,5.0,10.0,9.0
1702324380.515501,-53.0,27.0,-5.0,-29.0,-22.0,-6.0,0.0,-4.0
1702324380.5389454,-19.0,-22.0,-49.0,0.0,5.0,-3.0,-9.0,-16.0
1702324380.5399675,-15.0,24.0,-21.0,-25.0,-19.0,-8.0,-12.0,-4.0
1702324380.5409615,-2.0,-10.0,37.0,45.0,23.0,20.0,13.0,16.0
1702324380.5409615,5.0,14.0,17.0,-26.0,-12.0,-1.0,-1.0,5.0
1702324380.5693374,16.0,7.0,12.0,22.0,-3.0,-6.0,-11.0,-11.0
1702324380.5693374,-9.0,-9.0,32.0,-7.0,-11.0,-4.0,-5.0,-9.0
1702324380.5693374,39.0,62.0,-17.0,-26.0,-6.0,1.0,4.0,2.0
1702324380.5693374,-18.0,15.0,1.0,5.0,-13.0,-3.0,-1.0,-3.0
1702324380.5693374,-2.0,-10.0,-7.0,-17.0,-4.0,-6.0,-1.0,0.0
1702324380.5693374,7.0,-6.0,-2.0,-2.0,13.0,9.0,2.0,3.0
1702324380.5693374,6.0,0.0,3.0,20.0,11.0,2.0,-1.0,-5.0
1702324380.5693374,15.0,16.0,18.0,-9.0,-2.0,-1.0,3.0,8.0
1702324380.5993397,-23.0,-43.0,-40.0,18.0,-11.0,-3.0,0.0,-3.0
1702324380.5993397,12.0,17.0,32.0,4.0,5.0,0.0,-4.0,0.0
1702324380.5993397,-15.0,-55.0,-6.0,-10.0,0.0,-34.0,-36.0,4.0
1702324380.5993397,-6.0,8.0,-2.0,-5.0,-1.0,-15.0,-3.0,-15.0
1702324380.606161,2.0,13.0,-4.0,-31.0,-34.0,39.0,31.0,6.0
1702324380.606161,5.0,9.0,-7.0,9.0,4.0,16.0,4.0,8.0
1702324380.6261714,-5.0,4.0,-9.0,-25.0,1.0,12.0,9.0,-13.0
1702324380.6261714,15.0,24.0,24.0,60.0,43.0,-23.0,-25.0,16.0
1702324380.6363015,8.0,2.0,7.0,4.0,9.0,5.0,15.0,-3.0
1702324380.6363015,6.0,-20.0,-11.0,-10.0,-3.0,42.0,12.0,-17.0
1702324380.6363015,-13.0,11.0,-1.0,-21.0,-17.0,-23.0,-11.0,0.0
1702324380.6363015,4.0,9.0,-2.0,-17.0,-23.0,-2.0,-1.0,5.0
1702324380.6566248,-14.0,-14.0,15.0,0.0,3.0,-2.0,2.0,-4.0
1702324380.6566248,-9.0,-4.0,-42.0,-8.0,-10.0,-17.0,-12.0,-6.0
1702324380.6566248,12.0,27.0,41.0,13.0,13.0,-61.0,-39.0,-5.0
1702324380.6566248,-6.0,-2.0,-52.0,-32.0,-36.0,10.0,5.0,-14.0
1702324380.6664672,0.0,-24.0,-6.0,-16.0,2.0,1.0,11.0,10.0
1702324380.6664672,1.0,4.0,9.0,29.0,-6.0,-22.0,-9.0,7.0
1702324380.68617,1.0,1.0,20.0,3.0,-1.0,33.0,21.0,-10.0
1702324380.68617,12.0,16.0,14.0,1.0,16.0,-3.0,-11.0,-3.0
1702324380.696416,-7.0,-9.0,-24.0,4.0,-6.0,-10.0,-10.0,-8.0
1702324380.696416,7.0,14.0,10.0,-10.0,3.0,-5.0,-8.0,8.0
1702324380.696416,-2.0,-15.0,-38.0,2.0,1.0,5.0,9.0,-18.0
1702324380.696416,4.0,9.0,6.0,-10.0,-7.0,5.0,-1.0,-7.0
1702324380.7161708,4.0,12.0,24.0,-1.0,5.0,-2.0,-9.0,-3.0
1702324380.7161708,1.0,-3.0,-25.0,0.0,4.0,-12.0,-4.0,-4.0
1702324380.7161708,-49.0,-21.0,9.0,5.0,-2.0,16.0,4.0,10.0
1702324380.7161708,-11.0,7.0,10.0,0.0,-1.0,-1.0,11.0,-1.0
1702324380.7261832,11.0,14.0,0.0,0.0,3.0,6.0,-8.0,3.0
1702324380.7261832,21.0,2.0,5.0,3.0,-2.0,23.0,18.0,17.0
1702324380.7364707,-7.0,-15.0,9.0,-7.0,-4.0,3.0,-12.0,-7.0
1702324380.7364707,-11.0,66.0,13.0,3.0,3.0,-1.0,21.0,-4.0
1702324380.7561865,-47.0,-85.0,-78.0,-13.0,-9.0,-40.0,-17.0,0.0
1702324380.7561865,-11.0,-38.0,-8.0,-6.0,3.0,-14.0,-17.0,-20.0
1702324380.7561865,24.0,16.0,1.0,2.0,5.0,61.0,50.0,4.0
1702324380.7561865,24.0,17.0,20.0,12.0,9.0,18.0,6.0,28.0
1702324380.7761724,6.0,-23.0,38.0,2.0,-7.0,-25.0,-41.0,-13.0
1702324380.7761724,-8.0,-12.0,-60.0,-4.0,2.0,12.0,19.0,11.0
1702324380.7761724,16.0,25.0,-2.0,-2.0,-5.0,3.0,-11.0,-12.0
1702324380.7761724,-3.0,-4.0,1.0,5.0,5.0,1.0,3.0,-9.0
1702324380.78622,14.0,50.0,36.0,8.0,10.0,15.0,5.0,14.0
1702324380.78622,-5.0,-62.0,45.0,-6.0,-8.0,-10.0,7.0,19.0
1702324380.7964292,14.0,6.0,-71.0,-4.0,-4.0,-40.0,-31.0,0.0
1702324380.7964292,2.0,-1.0,10.0,-5.0,-1.0,22.0,29.0,23.0
1702324380.8162568,-20.0,21.0,-45.0,-8.0,-3.0,10.0,-17.0,-40.0
1702324380.8162568,-20.0,12.0,2.0,-1.0,-1.0,-12.0,-24.0,-7.0
1702324380.8162568,1.0,8.0,34.0,-8.0,-17.0,-34.0,19.0,12.0
1702324380.8162568,-11.0,-33.0,4.0,3.0,4.0,12.0,1.0,9.0
1702324380.8561704,9.0,30.0,-7.0,2.0,5.0,-13.0,4.0,-42.0
1702324380.8561704,14.0,23.0,2.0,3.0,1.0,-8.0,-2.0,-8.0
1702324380.8561704,10.0,3.0,-12.0,-3.0,-5.0,-26.0,-31.0,11.0
1702324380.8561704,10.0,-7.0,-40.0,-9.0,-4.0,38.0,45.0,-5.0
1702324380.8561704,-6.0,4.0,78.0,9.0,6.0,-8.0,-7.0,10.0
1702324380.8561704,-11.0,22.0,0.0,5.0,-7.0,12.0,5.0,-10.0
1702324380.8561704,3.0,-34.0,5.0,3.0,1.0,0.0,-10.0,-3.0
1702324380.8561704,12.0,33.0,-11.0,-9.0,-6.0,-46.0,-49.0,-1.0
1702324380.876175,-17.0,-54.0,-47.0,-4.0,9.0,26.0,40.0,15.0
1702324380.876175,-5.0,7.0,31.0,1.0,0.0,1.0,-5.0,-1.0
1702324380.876175,3.0,-7.0,1.0,-10.0,-10.0,22.0,15.0,5.0
1702324380.876175,-17.0,-14.0,45.0,33.0,4.0,-14.0,-29.0,-18.0
1702324380.8961701,15.0,34.0,2.0,-2.0,-4.0,24.0,23.0,12.0
1702324380.8961701,1.0,29.0,3.0,3.0,1.0,-12.0,5.0,-4.0
1702324380.8961701,8.0,-32.0,-16.0,-6.0,5.0,2.0,8.0,9.0
1702324380.8961701,-9.0,-20.0,-20.0,-19.0,-9.0,-3.0,11.0,-12.0
1702324380.906204,-1.0,-5.0,5.0,7.0,-5.0,-43.0,-70.0,-20.0
1702324380.906204,-5.0,6.0,-9.0,1.0,9.0,46.0,20.0,18.0
1702324380.916542,4.0,38.0,-4.0,8.0,-2.0,14.0,50.0,10.0
1702324380.916542,-6.0,-28.0,48.0,-49.0,-9.0,-6.0,23.0,6.0
1702324380.9361718,36.0,20.0,-51.0,15.0,3.0,-24.0,-95.0,-11.0
1702324380.9361718,-1.0,31.0,-26.0,-13.0,-2.0,-28.0,6.0,-8.0
1702324380.9361718,-64.0,-44.0,28.0,44.0,11.0,5.0,-21.0,-18.0
1702324380.9361718,9.0,37.0,53.0,31.0,15.0,15.0,25.0,2.0
1702324380.9561698,-14.0,18.0,26.0,-2.0,-5.0,9.0,29.0,6.0
1702324380.9561698,20.0,8.0,36.0,-15.0,-2.0,-15.0,-19.0,1.0
1702324380.9561698,9.0,-25.0,3.0,-20.0,-3.0,15.0,18.0,22.0
1702324380.9561698,22.0,4.0,-31.0,9.0,-8.0,-24.0,-32.0,-10.0
1702324380.9665272,-17.0,-64.0,4.0,-12.0,-1.0,19.0,51.0,13.0
1702324380.9665272,4.0,38.0,35.0,17.0,1.0,9.0,4.0,-8.0
1702324380.9764905,13.0,-60.0,-44.0,-26.0,-11.0,-43.0,-67.0,-10.0
1702324380.9764905,-5.0,61.0,-37.0,-5.0,-5.0,32.0,41.0,2.0
1702324380.9865572,2.0,41.0,26.0,-18.0,-10.0,-16.0,-12.0,2.0
1702324380.9865572,8.0,-121.0,8.0,24.0,13.0,4.0,12.0,1.0
1702324381.0061705,-8.0,93.0,6.0,1.0,10.0,23.0,1.0,-4.0
1702324381.0061705,5.0,2.0,-1.0,-7.0,-2.0,-65.0,-84.0,3.0
1702324381.0262353,-1.0,14.0,-31.0,-4.0,-12.0,19.0,34.0,-25.0
1702324381.0262353,16.0,99.0,12.0,-10.0,-8.0,11.0,3.0,8.0
1702324381.0262353,22.0,-46.0,31.0,6.0,5.0,45.0,59.0,15.0
1702324381.0262353,-31.0,-74.0,-71.0,-14.0,-8.0,-7.0,11.0,-7.0
1702324381.0262353,-2.0,117.0,5.0,-7.0,2.0,-10.0,26.0,31.0
1702324381.0262353,-40.0,-94.0,-6.0,12.0,2.0,-22.0,-23.0,-16.0
1702324381.0363572,17.0,-10.0,-4.0,5.0,2.0,-15.0,-22.0,-7.0
1702324381.0363572,-53.0,36.0,-16.0,-4.0,-10.0,-2.0,-42.0,-36.0
1702324381.0561793,16.0,-66.0,4.0,-4.0,-8.0,-5.0,-13.0,10.0
1702324381.0561793,6.0,100.0,-16.0,25.0,27.0,7.0,3.0,-1.0
1702324381.083032,-13.0,11.0,2.0,-10.0,-15.0,-18.0,3.0,7.0
1702324381.0840318,38.0,6.0,5.0,5.0,5.0,23.0,27.0,14.0
1702324381.0840318,-22.0,-27.0,7.0,-6.0,2.0,2.0,11.0,-2.0
1702324381.0840318,18.0,83.0,11.0,8.0,1.0,-9.0,-23.0,-2.0
1702324381.0840318,9.0,111.0,-10.0,-2.0,-2.0,3.0,5.0,0.0
1702324381.0840318,47.0,-38.0,3.0,-28.0,-20.0,-25.0,-52.0,-17.0
1702324381.0924342,-3.0,-11.0,-15.0,0.0,3.0,17.0,5.0,1.0
1702324381.1024349,5.0,52.0,-4.0,-2.0,-6.0,6.0,47.0,15.0
1702324381.11243,4.0,9.0,13.0,1.0,6.0,-2.0,2.0,-6.0
1702324381.11243,-49.0,-89.0,-36.0,-18.0,-21.0,-28.0,-11.0,-12.0
1702324381.11243,8.0,38.0,21.0,13.0,10.0,-1.0,-2.0,-11.0
1702324381.11243,-14.0,-53.0,-78.0,-28.0,-16.0,-17.0,-35.0,-15.0
1702324381.1224294,16.0,-59.0,19.0,11.0,10.0,9.0,29.0,13.0
1702324381.1224294,0.0,80.0,21.0,25.0,24.0,30.0,27.0,24.0
1702324381.142674,18.0,-50.0,-8.0,4.0,0.0,-14.0,-16.0,4.0
1702324381.142674,-46.0,-23.0,4.0,-25.0,-23.0,-13.0,-1.0,-20.0
1702324381.142674,-10.0,-24.0,-12.0,-9.0,-2.0,-4.0,24.0,10.0
1702324381.142674,25.0,25.0,9.0,15.0,-8.0,-3.0,-11.0,0.0
1702324381.162434,-23.0,-17.0,11.0,10.0,8.0,-1.0,-7.0,-7.0
1702324381.162434,-3.0,-29.0,-2.0,-10.0,-3.0,13.0,-46.0,3.0
1702324381.162434,-4.0,11.0,-15.0,-14.0,-24.0,-27.0,-18.0,-37.0
1702324381.162434,58.0,-27.0,11.0,7.0,15.0,18.0,28.0,27.0
1702324381.172464,-27.0,12.0,-1.0,-5.0,3.0,14.0,29.0,23.0
1702324381.172464,14.0,-30.0,-4.0,-1.0,2.0,-4.0,41.0,15.0
1702324381.182625,-45.0,24.0,0.0,-13.0,-2.0,7.0,-39.0,-12.0
1702324381.182625,13.0,-9.0,5.0,11.0,-2.0,-13.0,-31.0,-24.0
1702324381.1924314,35.0,1.0,-3.0,9.0,13.0,5.0,12.0,7.0
1702324381.1924314,23.0,-27.0,-2.0,-3.0,-3.0,-12.0,2.0,-4.0
1702324381.1924314,-27.0,13.0,7.0,7.0,8.0,9.0,16.0,13.0
1702324381.1924314,-22.0,-74.0,-33.0,-15.0,-2.0,-2.0,3.0,-13.0
1702324381.2127345,33.0,5.0,7.0,-20.0,-20.0,-14.0,-9.0,14.0
1702324381.2127345,23.0,-13.0,-9.0,-11.0,-13.0,-6.0,-7.0,4.0
1702324381.2224374,-67.0,14.0,6.0,2.0,6.0,20.0,2.0,-30.0
1702324381.2224374,-34.0,9.0,9.0,9.0,8.0,1.0,30.0,18.0
1702324381.2324293,-55.0,-22.0,-15.0,-3.0,-8.0,-13.0,-19.0,-20.0
1702324381.2324293,5.0,29.0,13.0,-14.0,1.0,-4.0,5.0,6.0
1702324381.2424314,32.0,-1.0,-1.0,12.0,-23.0,-13.0,-45.0,-9.0
1702324381.2424314,26.0,4.0,15.0,50.0,64.0,23.0,-4.0,3.0
1702324381.2524307,10.0,0.0,2.0,-6.0,-7.0,-8.0,-7.0,-8.0
1702324381.2524307,-24.0,-68.0,-21.0,10.0,2.0,8.0,12.0,-2.0
1702324381.2524307,19.0,-12.0,8.0,-4.0,20.0,6.0,19.0,7.0
1702324381.2524307,-7.0,93.0,3.0,6.0,-5.0,3.0,0.0,1.0
1702324381.2924287,7.0,30.0,54.0,8.0,-4.0,-7.0,-9.0,-3.0
1702324381.2924287,19.0,-22.0,-7.0,-10.0,-7.0,0.0,1.0,-3.0
1702324381.2924287,7.0,4.0,-27.0,0.0,-9.0,-7.0,2.0,7.0
1702324381.2924287,-3.0,73.0,-30.0,-21.0,-13.0,-3.0,-2.0,1.0
1702324381.3028207,20.0,48.0,72.0,-23.0,-10.0,-3.0,6.0,7.0
1702324381.3028207,-26.0,62.0,-37.0,-3.0,-11.0,-4.0,-6.0,-23.0
1702324381.3028207,-32.0,-93.0,-91.0,6.0,20.0,2.0,-7.0,-5.0
1702324381.3028207,0.0,24.0,-35.0,-16.0,0.0,8.0,12.0,9.0
1702324381.312813,-4.0,10.0,50.0,23.0,5.0,-2.0,-6.0,-15.0
1702324381.312813,0.0,-2.0,29.0,10.0,7.0,-1.0,-10.0,4.0
1702324381.312813,19.0,99.0,72.0,-7.0,-9.0,-8.0,-8.0,1.0
1702324381.312813,29.0,-14.0,52.0,-1.0,-14.0,-5.0,1.0,8.0
1702324381.3330975,-71.0,-32.0,-56.0,-9.0,1.0,4.0,1.0,-15.0
1702324381.3330975,8.0,-85.0,-13.0,2.0,1.0,1.0,-2.0,-2.0
1702324381.342679,0.0,-55.0,-122.0,-18.0,-5.0,-13.0,-1.0,-8.0
1702324381.342679,-74.0,-48.0,10.0,-6.0,-8.0,9.0,3.0,-16.0
1702324381.352674,34.0,45.0,9.0,8.0,3.0,6.0,10.0,29.0
1702324381.352674,-3.0,45.0,-12.0,14.0,8.0,-1.0,-3.0,7.0
1702324381.3630419,49.0,13.0,74.0,10.0,0.0,3.0,5.0,17.0
1702324381.3630419,-43.0,-115.0,-66.0,-25.0,-13.0,-11.0,-10.0,-23.0
1702324381.3726778,18.0,-6.0,-39.0,-29.0,-11.0,-1.0,-4.0,-2.0
1702324381.3726778,3.0,17.0,27.0,-1.0,-14.0,1.0,2.0,3.0
1702324381.3726778,-1.0,18.0,35.0,3.0,1.0,1.0,3.0,0.0
1702324381.3726778,2.0,-6.0,21.0,14.0,6.0,1.0,0.0,3.0
1702324381.3926897,-3.0,-4.0,-73.0,9.0,14.0,4.0,0.0,1.0
1702324381.3926897,6.0,-5.0,-5.0,5.0,7.0,-4.0,1.0,-2.0
1702324381.4026785,1.0,21.0,88.0,17.0,-10.0,-11.0,-7.0,-7.0
1702324381.4026785,0.0,16.0,7.0,-10.0,-8.0,9.0,-5.0,0.0
1702324381.4230392,12.0,-31.0,-63.0,-14.0,-12.0,-2.0,-2.0,-1.0
1702324381.4230392,-21.0,11.0,-3.0,-17.0,-9.0,-4.0,-11.0,-11.0
1702324381.4230392,-6.0,-9.0,-30.0,-10.0,-2.0,7.0,11.0,1.0
1702324381.4230392,10.0,14.0,-23.0,3.0,2.0,-15.0,-10.0,13.0
1702324381.4329896,-1.0,-4.0,49.0,6.0,1.0,30.0,39.0,10.0
1702324381.4329896,-4.0,5.0,16.0,6.0,-1.0,-6.0,-2.0,-9.0
1702324381.4329896,-7.0,0.0,1.0,0.0,4.0,5.0,4.0,1.0
1702324381.4329896,-1.0,8.0,52.0,15.0,3.0,-4.0,1.0,-2.0
1702324381.4726732,-8.0,-14.0,-42.0,1.0,1.0,-14.0,-19.0,-6.0
1702324381.4726732,1.0,10.0,-33.0,4.0,14.0,8.0,7.0,11.0
1702324381.4726732,-3.0,-1.0,21.0,-6.0,-2.0,0.0,0.0,0.0
1702324381.4726732,-3.0,19.0,65.0,-21.0,-19.0,-12.0,-7.0,-9.0
1702324381.4726732,-1.0,-15.0,-15.0,-4.0,-6.0,-10.0,-14.0,-8.0
1702324381.4726732,7.0,5.0,-14.0,15.0,8.0,7.0,8.0,4.0
1702324381.4830666,0.0,5.0,-5.0,23.0,14.0,0.0,-3.0,2.0
1702324381.4830666,-8.0,-20.0,31.0,0.0,-5.0,-6.0,1.0,-5.0
1702324381.4930024,1.0,12.0,24.0,2.0,-5.0,-6.0,-6.0,-7.0
1702324381.4930024,-6.0,-25.0,-35.0,-16.0,-2.0,-2.0,-7.0,-2.0
1702324381.4930024,10.0,-2.0,6.0,-6.0,0.0,0.0,-1.0,3.0
1702324381.4930024,14.0,11.0,-37.0,5.0,0.0,16.0,10.0,6.0
1702324381.512675,-22.0,-14.0,-39.0,1.0,7.0,-5.0,-3.0,-8.0
1702324381.512675,-12.0,-6.0,21.0,-7.0,-7.0,-8.0,-8.0,-7.0
1702324381.522678,0.0,1.0,-16.0,-2.0,-2.0,-5.0,-3.0,-2.0
1702324381.522678,15.0,8.0,-10.0,-2.0,-1.0,2.0,4.0,2.0
1702324381.5326893,7.0,-9.0,16.0,5.0,-9.0,-13.0,-14.0,-6.0
1702324381.5326893,-7.0,7.0,27.0,8.0,4.0,8.0,5.0,1.0
1702324381.5430012,3.0,-15.0,-21.0,2.0,2.0,5.0,5.0,4.0
1702324381.5430012,-3.0,16.0,36.0,-18.0,-16.0,-14.0,-10.0,-10.0
1702324381.553048,4.0,18.0,43.0,19.0,2.0,-3.0,-7.0,-1.0
1702324381.553048,-8.0,-4.0,-9.0,-7.0,-5.0,-6.0,-3.0,0.0
1702324381.553048,7.0,-1.0,-8.0,-9.0,-1.0,-3.0,-1.0,-2.0
1702324381.553048,-4.0,-13.0,-10.0,20.0,9.0,6.0,2.0,3.0
1702324381.582681,-19.0,-4.0,14.0,5.0,7.0,2.0,0.0,-2.0
1702324381.582681,14.0,12.0,11.0,-4.0,-5.0,-1.0,2.0,3.0
1702324381.582681,-18.0,-5.0,-24.0,-8.0,-4.0,2.0,-5.0,-8.0
1702324381.582681,24.0,2.0,-15.0,6.0,1.0,2.0,0.0,0.0
1702324381.5956383,-7.0,-10.0,-2.0,-6.0,-3.0,-2.0,-1.0,-2.0
1702324381.5956383,-16.0,-9.0,-14.0,-2.0,0.0,-2.0,-1.0,-2.0
1702324381.6042604,-3.0,-1.0,1.0,-9.0,-7.0,-2.0,-2.0,-5.0
1702324381.6042604,-8.0,4.0,-13.0,-6.0,-4.0,-10.0,2.0,0.0
1702324381.6326175,4.0,3.0,4.0,7.0,3.0,0.0,0.0,2.0
1702324381.6326175,14.0,4.0,13.0,-11.0,-2.0,4.0,2.0,2.0
1702324381.6326175,17.0,4.0,14.0,11.0,-3.0,-1.0,-4.0,1.0
1702324381.6326175,-11.0,-5.0,-12.0,-8.0,-8.0,-2.0,-1.0,-3.0
1702324381.6326175,11.0,2.0,-9.0,-2.0,1.0,0.0,-1.0,2.0
1702324381.6326175,-3.0,4.0,34.0,9.0,13.0,-2.0,2.0,2.0
1702324381.642627,-1.0,-8.0,-60.0,-8.0,-3.0,-7.0,0.0,-4.0
1702324381.642627,-1.0,3.0,7.0,9.0,17.0,16.0,2.0,1.0
1702324381.6531398,-3.0,-8.0,-12.0,-10.0,-8.0,-2.0,-1.0,-1.0
1702324381.6531398,0.0,8.0,17.0,5.0,-1.0,5.0,-7.0,-8.0
1702324381.6632133,1.0,0.0,11.0,-1.0,5.0,-5.0,-5.0,7.0
1702324381.6632133,10.0,-9.0,-19.0,-6.0,-6.0,-28.0,-2.0,24.0
1702324381.6734862,-11.0,-6.0,-19.0,-7.0,0.0,38.0,3.0,-26.0
1702324381.6734862,-26.0,10.0,19.0,9.0,1.0,15.0,12.0,0.0
1702324381.6734862,13.0,-6.0,5.0,-4.0,-13.0,-24.0,-13.0,15.0
1702324381.6734862,11.0,-2.0,-13.0,-8.0,-3.0,8.0,-14.0,-20.0
1702324381.6931503,-4.0,-10.0,-8.0,-6.0,5.0,-12.0,3.0,6.0
1702324381.6931503,7.0,-2.0,-18.0,-5.0,-10.0,-37.0,-49.0,9.0
1702324381.6931503,-12.0,-1.0,13.0,-11.0,-11.0,-1.0,-25.0,-32.0
1702324381.703153,-2.0,-17.0,10.0,15.0,15.0,48.0,62.0,20.0
1702324381.713534,21.0,11.0,-5.0,3.0,0.0,0.0,-10.0,16.0
1702324381.713534,2.0,6.0,-14.0,-11.0,-2.0,-13.0,8.0,-12.0
1702324381.7232518,-23.0,-4.0,-6.0,-6.0,-4.0,-55.0,-43.0,-72.0
1702324381.7232518,8.0,-16.0,-7.0,-9.0,-6.0,74.0,37.0,27.0
1702324381.7327645,9.0,-7.0,-7.0,-8.0,-14.0,-83.0,-77.0,8.0
1702324381.7327645,4.0,8.0,17.0,14.0,-7.0,81.0,88.0,76.0
1702324381.7327645,39.0,30.0,13.0,10.0,24.0,24.0,2.0,65.0
1702324381.7327645,-59.0,23.0,-8.0,-4.0,-10.0,-102.0,-41.0,-61.0
1702324381.7531338,-8.0,-71.0,-8.0,2.0,2.0,34.0,-18.0,-50.0
1702324381.7531338,0.0,-23.0,-6.0,-7.0,-5.0,-52.0,-7.0,-17.0
1702324381.7628894,-64.0,4.0,-20.0,-17.0,-21.0,-31.0,-24.0,-20.0
1702324381.7628894,25.0,8.0,1.0,-2.0,-7.0,-48.0,-18.0,8.0
1702324381.7727768,0.0,-40.0,6.0,10.0,12.0,-42.0,34.0,81.0
1702324381.7727768,13.0,81.0,4.0,-1.0,5.0,37.0,-19.0,-83.0
1702324381.7831318,-18.0,-1.0,14.0,17.0,9.0,19.0,74.0,-3.0
1702324381.7831318,21.0,-5.0,-8.0,-1.0,8.0,54.0,4.0,14.0
1702324381.7927752,-3.0,-15.0,-8.0,-6.0,-20.0,-59.0,10.0,-20.0
1702324381.7927752,-50.0,-76.0,-20.0,-18.0,-8.0,-5.0,-34.0,-12.0
1702324381.7927752,6.0,12.0,10.0,6.0,11.0,19.0,15.0,-13.0
1702324381.7927752,33.0,80.0,6.0,-10.0,3.0,28.0,23.0,29.0
1702324381.8130124,-46.0,-39.0,-6.0,10.0,11.0,39.0,12.0,-6.0
1702324381.8130124,86.0,14.0,3.0,-15.0,1.0,-10.0,69.0,22.0
1702324381.8227801,-65.0,26.0,-15.0,59.0,11.0,-6.0,-4.0,-1.0
1702324381.8227801,-7.0,-23.0,7.0,4.0,2.0,-53.0,-69.0,-45.0
1702324381.8327813,-40.0,-21.0,-18.0,-15.0,-17.0,25.0,-69.0,-48.0
1702324381.8327813,-2.0,96.0,21.0,-13.0,-12.0,-22.0,-30.0,-6.0
1702324381.8627734,-29.0,-68.0,-14.0,10.0,-1.0,-2.0,68.0,15.0
1702324381.8627734,24.0,36.0,34.0,-4.0,-9.0,4.0,33.0,33.0
1702324381.8627734,0.0,96.0,-66.0,-12.0,1.0,14.0,-47.0,-15.0
1702324381.8627734,-7.0,-5.0,26.0,-18.0,1.0,-20.0,-13.0,-17.0
1702324381.8627734,74.0,50.0,-23.0,-8.0,-2.0,6.0,-1.0,15.0
1702324381.8627734,-47.0,-61.0,25.0,16.0,7.0,4.0,-4.0,-23.0
1702324381.8730237,24.0,-4.0,-1.0,3.0,22.0,-16.0,21.0,-47.0
1702324381.8730237,-17.0,0.0,2.0,18.0,9.0,26.0,-4.0,-5.0
1702324381.882781,45.0,5.0,-4.0,-12.0,-8.0,19.0,37.0,44.0
1702324381.882781,-49.0,-48.0,-23.0,-43.0,-28.0,-4.0,24.0,-16.0
1702324381.8927813,31.0,24.0,30.0,-5.0,-13.0,-10.0,9.0,18.0
1702324381.8927813,-5.0,-31.0,-17.0,30.0,22.0,14.0,8.0,19.0
1702324381.9127777,1.0,6.0,45.0,8.0,24.0,-16.0,-37.0,-29.0
1702324381.9127777,-30.0,-1.0,-53.0,23.0,-8.0,-8.0,-70.0,-36.0
1702324381.9127777,4.0,26.0,31.0,-26.0,-7.0,36.0,79.0,21.0
1702324381.9127777,-11.0,-34.0,-4.0,34.0,2.0,5.0,23.0,19.0
1702324381.9230745,9.0,-17.0,-28.0,-29.0,-14.0,-3.0,-44.0,-51.0
1702324381.9230745,31.0,13.0,-21.0,-1.0,-2.0,-21.0,5.0,27.0
1702324381.9331574,4.0,-6.0,27.0,-5.0,-4.0,12.0,24.0,-14.0
1702324381.9331574,-4.0,12.0,9.0,-16.0,-15.0,-38.0,-15.0,73.0
1702324381.9427752,-5.0,26.0,40.0,-2.0,-1.0,-6.0,2.0,-28.0
1702324381.9427752,7.0,-2.0,21.0,-12.0,-13.0,-75.0,-10.0,-30.0
1702324381.9528117,-37.0,-84.0,-110.0,-15.0,1.0,77.0,19.0,12.0
1702324381.9528117,13.0,25.0,-4.0,-12.0,-4.0,-4.0,-11.0,-13.0
1702324381.9631288,12.0,35.0,59.0,22.0,16.0,46.0,-1.0,-34.0
1702324381.9631288,0.0,-15.0,-13.0,25.0,22.0,-20.0,10.0,11.0
1702324381.973175,-31.0,45.0,127.0,41.0,12.0,-35.0,6.0,-48.0
1702324381.973175,30.0,-19.0,-17.0,2.0,7.0,77.0,14.0,23.0
1702324381.9827769,4.0,-42.0,-26.0,-44.0,-22.0,-21.0,-38.0,39.0
1702324381.9827769,4.0,25.0,39.0,5.0,14.0,14.0,34.0,18.0
1702324381.9929662,23.0,29.0,20.0,-4.0,-8.0,-48.0,-47.0,9.0
1702324381.9929662,12.0,5.0,-70.0,-10.0,4.0,-72.0,-87.0,-38.0
1702324382.0027757,-10.0,5.0,39.0,0.0,-36.0,127.0,95.0,-9.0
1702324382.0027757,-23.0,-41.0,-6.0,-13.0,-10.0,-67.0,72.0,15.0
1702324382.012774,26.0,27.0,-4.0,6.0,7.0,-28.0,20.0,22.0
1702324382.012774,-19.0,-25.0,39.0,14.0,3.0,-41.0,-6.0,-10.0
1702324382.0228162,-4.0,77.0,-45.0,-9.0,4.0,-64.0,-8.0,5.0
1702324382.0228162,-14.0,-34.0,-26.0,-10.0,-12.0,45.0,-60.0,-25.0
1702324382.0331397,19.0,17.0,10.0,30.0,20.0,68.0,29.0,30.0
1702324382.0331397,-32.0,-55.0,-63.0,-43.0,-28.0,-39.0,-7.0,-14.0
1702324382.0430758,-6.0,-28.0,-47.0,-11.0,-5.0,-26.0,-35.0,13.0
1702324382.0430758,24.0,66.0,18.0,22.0,24.0,42.0,1.0,3.0
1702324382.0531485,2.0,60.0,71.0,52.0,18.0,-22.0,-10.0,18.0
1702324382.0531485,-8.0,-55.0,48.0,28.0,2.0,41.0,13.0,-14.0
1702324382.0628228,-10.0,-40.0,-51.0,-22.0,-5.0,-46.0,-18.0,2.0
1702324382.0628228,13.0,47.0,-29.0,12.0,3.0,12.0,-6.0,6.0
1702324382.082775,9.0,-10.0,-49.0,-43.0,-8.0,-37.0,2.0,6.0
1702324382.082775,-3.0,68.0,50.0,15.0,3.0,45.0,33.0,-6.0
1702324382.082775,-19.0,-111.0,-36.0,-6.0,-15.0,-2.0,-35.0,5.0
1702324382.082775,7.0,23.0,10.0,-12.0,-7.0,25.0,44.0,21.0
1702324382.0929718,1.0,-2.0,-32.0,-13.0,-14.0,-62.0,-35.0,-15.0
1702324382.0929718,25.0,61.0,13.0,-9.0,-8.0,73.0,29.0,-11.0
1702324382.102993,-29.0,-13.0,-15.0,-18.0,3.0,-12.0,-24.0,9.0
1702324382.102993,-4.0,21.0,44.0,5.0,-10.0,-14.0,-56.0,-19.0
1702324382.1130145,-13.0,-3.0,19.0,-2.0,-1.0,7.0,15.0,12.0
1702324382.1232991,32.0,68.0,-66.0,-6.0,9.0,-52.0,-6.0,7.0
1702324382.1434379,-9.0,-72.0,54.0,-15.0,-17.0,15.0,-17.0,-21.0
1702324382.1434379,-27.0,-1.0,86.0,-36.0,-16.0,3.0,16.0,-11.0
1702324382.1434379,4.0,-28.0,-91.0,19.0,5.0,14.0,7.0,7.0
1702324382.1434379,-3.0,-34.0,36.0,10.0,11.0,-16.0,-6.0,-1.0
1702324382.1434379,20.0,54.0,-11.0,22.0,17.0,2.0,23.0,18.0
1702324382.1434379,1.0,-8.0,6.0,0.0,-3.0,-1.0,-13.0,-4.0
1702324382.1577172,1.0,10.0,2.0,-17.0,-20.0,3.0,-8.0,1.0
1702324382.1577172,-21.0,-55.0,-28.0,-4.0,-4.0,-13.0,1.0,13.0
1702324382.1662538,15.0,9.0,41.0,7.0,5.0,-3.0,6.0,-4.0
1702324382.1662538,8.0,-14.0,-31.0,-5.0,-4.0,3.0,23.0,2.0
1702324382.174148,-15.0,1.0,23.0,-2.0,-4.0,14.0,-24.0,-3.0
1702324382.174148,-17.0,-1.0,-9.0,-3.0,-4.0,-17.0,19.0,-13.0
1702324382.174148,1.0,28.0,11.0,10.0,8.0,-7.0,-22.0,3.0
1702324382.174148,12.0,-21.0,-26.0,7.0,6.0,-6.0,-35.0,-6.0
1702324382.204611,-5.0,3.0,-16.0,-7.0,1.0,5.0,20.0,4.0
1702324382.204611,-41.0,-17.0,30.0,-7.0,-13.0,6.0,-36.0,-35.0
1702324382.204611,0.0,9.0,-24.0,-8.0,-4.0,2.0,26.0,7.0
1702324382.204611,33.0,54.0,-37.0,-7.0,4.0,0.0,14.0,15.0
1702324382.2150235,19.0,-30.0,0.0,-3.0,-8.0,-6.0,3.0,14.0
1702324382.2150235,-36.0,24.0,-14.0,-4.0,5.0,-9.0,1.0,2.0
1702324382.2246108,21.0,-27.0,56.0,-7.0,-2.0,-3.0,14.0,16.0
1702324382.2246108,-1.0,-1.0,-22.0,1.0,0.0,4.0,-12.0,-7.0
1702324382.2336178,50.0,30.0,7.0,4.0,14.0,9.0,-6.0,-25.0
1702324382.2336178,26.0,7.0,5.0,20.0,-6.0,-6.0,-3.0,6.0
1702324382.2336178,-58.0,27.0,1.0,8.0,6.0,2.0,4.0,3.0
1702324382.2336178,-12.0,-60.0,-10.0,10.0,3.0,1.0,-13.0,-9.0
1702324382.2636554,-73.0,-20.0,-8.0,-15.0,-2.0,10.0,5.0,4.0
1702324382.2636554,-20.0,21.0,-30.0,-13.0,-4.0,-11.0,-7.0,-14.0
1702324382.2636554,28.0,0.0,39.0,5.0,0.0,-4.0,1.0,-5.0
1702324382.2636554,99.0,8.0,31.0,1.0,-5.0,4.0,-4.0,16.0
1702324382.2739923,68.0,-29.0,-26.0,13.0,5.0,7.0,13.0,36.0
1702324382.2739923,-74.0,37.0,28.0,-6.0,-4.0,-12.0,-17.0,-24.0
1702324382.2838874,-83.0,-79.0,-54.0,-18.0,-2.0,-4.0,-12.0,-33.0
1702324382.2838874,-110.0,-18.0,12.0,-6.0,-5.0,-2.0,-6.0,-29.0
1702324382.2936258,61.0,22.0,-15.0,-5.0,2.0,4.0,2.0,8.0
1702324382.2936258,123.0,59.0,44.0,5.0,-5.0,-6.0,8.0,23.0
1702324382.2936258,35.0,50.0,-1.0,6.0,-1.0,1.0,-13.0,18.0
1702324382.2936258,20.0,-50.0,-29.0,2.0,5.0,3.0,2.0,13.0
1702324382.3240378,-45.0,0.0,-2.0,-11.0,-11.0,-5.0,-8.0,-14.0
1702324382.3240378,-28.0,-60.0,7.0,-13.0,2.0,-1.0,-4.0,-2.0
1702324382.3240378,19.0,32.0,-40.0,19.0,5.0,3.0,6.0,-4.0
1702324382.3240378,-21.0,-4.0,42.0,15.0,5.0,3.0,-1.0,4.0
1702324382.3335536,-16.0,28.0,-24.0,-1.0,-8.0,-2.0,-2.0,0.0
1702324382.3335536,-5.0,-43.0,9.0,1.0,7.0,2.0,1.0,-9.0
1702324382.3435628,23.0,29.0,64.0,-7.0,-3.0,-1.0,1.0,3.0
1702324382.3435628,-11.0,-5.0,-68.0,-9.0,-1.0,1.0,-2.0,10.0
1702324382.3537939,-8.0,5.0,36.0,3.0,2.0,0.0,0.0,-9.0
1702324382.3537939,-2.0,-59.0,-86.0,-20.0,-7.0,-3.0,-4.0,-3.0
1702324382.3635664,5.0,-49.0,54.0,-5.0,-2.0,-1.0,4.0,9.0
1702324382.3635664,20.0,-3.0,7.0,21.0,1.0,1.0,0.0,-2.0
1702324382.3838367,-81.0,-23.0,-37.0,3.0,4.0,-3.0,-5.0,-21.0
1702324382.3838367,15.0,-20.0,-1.0,-6.0,-4.0,0.0,-3.0,3.0
1702324382.3838367,-6.0,20.0,43.0,4.0,-5.0,-3.0,-1.0,0.0
1702324382.3838367,20.0,43.0,-36.0,-16.0,1.0,-2.0,0.0,4.0
1702324382.3937633,-10.0,-14.0,30.0,-9.0,-10.0,-3.0,-1.0,-4.0
1702324382.3937633,-11.0,3.0,8.0,12.0,3.0,-4.0,-5.0,2.0
1702324382.4135675,19.0,3.0,-57.0,-3.0,-1.0,0.0,3.0,-3.0
1702324382.4135675,-27.0,4.0,83.0,-11.0,-8.0,-3.0,-7.0,-10.0
1702324382.4335651,7.0,31.0,-13.0,-1.0,-1.0,-3.0,-4.0,6.0
1702324382.4335651,3.0,-1.0,-10.0,-2.0,0.0,-1.0,5.0,9.0
1702324382.4335651,5.0,13.0,-6.0,13.0,10.0,7.0,2.0,-1.0
1702324382.4335651,5.0,-18.0,-39.0,-3.0,3.0,4.0,2.0,2.0
1702324382.4436033,9.0,-14.0,101.0,8.0,-2.0,-1.0,-4.0,4.0
1702324382.4436033,19.0,-53.0,-62.0,-14.0,-11.0,-5.0,-2.0,-13.0
1702324382.4436033,-18.0,18.0,10.0,-6.0,-2.0,-3.0,-2.0,-3.0
1702324382.4436033,-23.0,-15.0,-18.0,-2.0,-4.0,-3.0,-3.0,-5.0
1702324382.4535992,23.0,17.0,72.0,9.0,-13.0,0.0,5.0,-1.0
1702324382.4535992,17.0,3.0,-73.0,-6.0,11.0,5.0,6.0,15.0
1702324382.4637146,-37.0,17.0,-7.0,-4.0,3.0,0.0,1.0,5.0
1702324382.4637146,-22.0,-35.0,10.0,2.0,4.0,-6.0,-4.0,-8.0
1702324382.4739263,32.0,-8.0,-17.0,-9.0,0.0,5.0,3.0,0.0
1702324382.4739263,-36.0,4.0,59.0,14.0,-2.0,-5.0,-4.0,-9.0
1702324382.4836583,-12.0,28.0,5.0,-9.0,-15.0,-6.0,-5.0,-5.0
1702324382.4836583,-12.0,1.0,-41.0,-14.0,-23.0,-8.0,2.0,2.0
1702324382.5136094,16.0,29.0,-13.0,9.0,10.0,7.0,-1.0,-5.0
1702324382.5136094,107.0,-6.0,33.0,-11.0,-24.0,1.0,7.0,10.0
1702324382.5136094,-74.0,-7.0,-20.0,11.0,24.0,8.0,8.0,17.0
1702324382.5136094,-48.0,-5.0,69.0,11.0,4.0,3.0,-11.0,-31.0
1702324382.5136094,20.0,11.0,-48.0,11.0,19.0,19.0,6.0,-9.0
1702324382.5136094,-10.0,25.0,104.0,31.0,46.0,-9.0,4.0,4.0
1702324382.5236697,108.0,-8.0,-113.0,-29.0,-11.0,-11.0,-7.0,8.0
1702324382.5236697,4.0,13.0,-18.0,-15.0,-23.0,-6.0,23.0,7.0
1702324382.533921,-125.0,-36.0,-3.0,-22.0,-52.0,-22.0,-37.0,-44.0
1702324382.533921,-21.0,12.0,-7.0,-9.0,-5.0,-20.0,-13.0,-1.0
1702324382.533921,-37.0,-4.0,31.0,-11.0,-1.0,-14.0,0.0,-13.0
1702324382.533921,46.0,4.0,2.0,17.0,27.0,13.0,-18.0,1.0
1702324382.563971,40.0,8.0,-14.0,6.0,15.0,5.0,19.0,22.0
1702324382.563971,-49.0,4.0,7.0,0.0,-12.0,17.0,26.0,2.0
1702324382.5939896,18.0,-13.0,6.0,-5.0,19.0,-7.0,-25.0,2.0
1702324382.5939896,31.0,7.0,-50.0,-28.0,-22.0,-41.0,-16.0,8.0
1702324382.5939896,14.0,27.0,42.0,-14.0,-53.0,-19.0,-2.0,-1.0
1702324382.5939896,-39.0,-35.0,-96.0,-3.0,0.0,22.0,-15.0,-28.0
1702324382.5939896,-13.0,-30.0,9.0,28.0,56.0,26.0,23.0,-3.0
1702324382.5939896,6.0,28.0,44.0,99.0,82.0,50.0,22.0,14.0
1702324382.5939896,20.0,-10.0,-6.0,14.0,10.0,-17.0,-7.0,11.0
1702324382.5939896,43.0,37.0,-7.0,-41.0,-45.0,-21.0,18.0,28.0
1702324382.5939896,-6.0,15.0,2.0,19.0,-49.0,-32.0,-39.0,-38.0
1702324382.5939896,-13.0,-38.0,-24.0,-47.0,-20.0,17.0,-12.0,-8.0
1702324382.6239877,-40.0,-53.0,-41.0,-32.0,-8.0,-5.0,7.0,4.0
1702324382.6239877,10.0,0.0,38.0,-7.0,-2.0,-8.0,-17.0,-3.0
1702324382.6239877,1.0,-16.0,-48.0,-27.0,-19.0,-11.0,-9.0,-8.0
1702324382.6239877,7.0,18.0,36.0,-12.0,-21.0,-23.0,-4.0,-7.0
1702324382.6341498,-9.0,7.0,13.0,47.0,49.0,18.0,4.0,4.0
1702324382.6341498,-6.0,23.0,-14.0,-7.0,3.0,-9.0,5.0,-5.0
1702324382.6440558,32.0,3.0,36.0,-39.0,-35.0,4.0,19.0,9.0
1702324382.6440558,-12.0,-21.0,-59.0,30.0,17.0,19.0,-1.0,0.0
1702324382.6610873,15.0,4.0,63.0,-28.0,8.0,13.0,-11.0,0.0
1702324382.6610873,-10.0,32.0,7.0,16.0,2.0,-8.0,-24.0,-12.0
1702324382.6630487,5.0,-76.0,-13.0,12.0,-6.0,-16.0,8.0,9.0
1702324382.6630487,-8.0,22.0,-3.0,-83.0,-37.0,-14.0,0.0,-4.0
1702324382.6841407,17.0,27.0,-68.0,28.0,23.0,2.0,13.0,9.0
1702324382.6841407,3.0,4.0,55.0,19.0,0.0,10.0,9.0,7.0
1702324382.6841407,31.0,41.0,51.0,41.0,8.0,6.0,3.0,6.0
1702324382.6841407,-6.0,-1.0,31.0,1.0,-10.0,-9.0,-20.0,-20.0
1702324382.694497,-48.0,-17.0,-13.0,9.0,33.0,22.0,-1.0,-6.0
1702324382.694497,14.0,22.0,-102.0,-80.0,-13.0,-3.0,-13.0,-4.0
1702324382.7045436,-7.0,-66.0,-1.0,20.0,-6.0,-10.0,10.0,14.0
1702324382.7045436,-9.0,79.0,35.0,27.0,8.0,0.0,10.0,-2.0
1702324382.714551,-24.0,-31.0,-50.0,-50.0,-18.0,-18.0,-16.0,-20.0
1702324382.714551,-17.0,6.0,-2.0,27.0,6.0,-10.0,-3.0,7.0
1702324382.714551,55.0,77.0,18.0,-31.0,-24.0,-13.0,-14.0,-24.0
1702324382.714551,-5.0,-36.0,-6.0,1.0,-1.0,24.0,30.0,29.0
1702324382.744138,12.0,-11.0,43.0,18.0,-12.0,13.0,14.0,4.0
1702324382.744138,-5.0,25.0,-1.0,-9.0,11.0,-4.0,-3.0,-7.0
1702324382.744138,18.0,38.0,91.0,42.0,3.0,-15.0,0.0,12.0
1702324382.744138,-31.0,-6.0,-18.0,-22.0,-8.0,-16.0,-19.0,-20.0
1702324382.7543814,16.0,-27.0,-26.0,-18.0,-10.0,5.0,5.0,3.0
1702324382.7543814,-30.0,-82.0,2.0,22.0,-14.0,-8.0,-6.0,-1.0
1702324382.7644274,5.0,58.0,25.0,43.0,16.0,21.0,6.0,8.0
1702324382.7644274,10.0,34.0,57.0,28.0,23.0,-28.0,4.0,12.0
1702324382.7741451,13.0,-23.0,10.0,-5.0,-10.0,2.0,-4.0,-5.0
1702324382.7741451,-25.0,27.0,35.0,0.0,0.0,3.0,-1.0,2.0
1702324382.8041394,-19.0,11.0,-38.0,-25.0,2.0,38.0,5.0,-6.0
1702324382.8041394,3.0,29.0,-15.0,12.0,21.0,17.0,10.0,9.0
1702324382.8041394,4.0,-69.0,-13.0,-16.0,-20.0,-35.0,-15.0,-12.0
1702324382.8041394,52.0,35.0,10.0,11.0,8.0,11.0,9.0,31.0
