1702323934.036634,-3.0,-1.0,-2.0,2.0,5.0,5.0,2.0,0.0
1702323934.036634,-1.0,-3.0,-1.0,1.0,2.0,0.0,2.0,1.0
1702323934.057001,0.0,-1.0,3.0,3.0,-4.0,-4.0,-2.0,-3.0
1702323934.057001,0.0,9.0,1.0,-2.0,-6.0,3.0,1.0,-1.0
1702323934.057001,3.0,-1.0,-5.0,-4.0,-1.0,-6.0,-4.0,-3.0
1702323934.057001,-1.0,14.0,4.0,0.0,1.0,5.0,5.0,0.0
1702323934.076626,-2.0,-4.0,6.0,19.0,5.0,4.0,2.0,1.0
1702323934.076626,-5.0,-22.0,-1.0,0.0,1.0,-2.0,0.0,-1.0
1702323934.076626,0.0,-3.0,-4.0,-5.0,-6.0,-2.0,4.0,2.0
1702323934.076626,-4.0,-4.0,-5.0,-5.0,-5.0,-6.0,-6.0,-1.0
1702323934.08696,4.0,10.0,-4.0,-7.0,-6.0,-1.0,-3.0,-1.0
1702323934.08696,-2.0,4.0,1.0,0.0,5.0,-3.0,-5.0,-2.0
1702323934.08696,-5.0,-4.0,-6.0,-12.0,-9.0,3.0,5.0,1.0
1702323934.08696,-1.0,-2.0,4.0,5.0,3.0,-2.0,2.0,-1.0
1702323934.1169968,0.0,0.0,-1.0,-1.0,0.0,5.0,2.0,0.0
1702323934.1169968,2.0,-1.0,-5.0,-1.0,-5.0,-9.0,-4.0,-2.0
1702323934.1169968,1.0,0.0,2.0,0.0,0.0,-1.0,25.0,3.0
1702323934.1169968,0.0,-4.0,-5.0,-6.0,-7.0,-2.0,-35.0,-1.0
1702323934.1266747,-5.0,-1.0,-4.0,-10.0,-8.0,-8.0,-1.0,-10.0
1702323934.1266747,-1.0,2.0,2.0,6.0,6.0,2.0,-1.0,4.0
1702323934.1366262,0.0,3.0,2.0,4.0,5.0,4.0,2.0,-3.0
1702323934.1366262,1.0,-3.0,-1.0,-2.0,-2.0,5.0,15.0,-2.0
1702323934.1469524,1.0,-1.0,-2.0,0.0,3.0,1.0,21.0,3.0
1702323934.1469524,1.0,2.0,-1.0,-5.0,-9.0,-3.0,-34.0,-4.0
1702323934.1469524,-12.0,-5.0,0.0,4.0,3.0,-7.0,-10.0,-5.0
1702323934.1469524,10.0,4.0,4.0,5.0,5.0,-1.0,1.0,2.0
1702323934.176516,-4.0,-4.0,-3.0,-1.0,3.0,0.0,-2.0,1.0
1702323934.176516,0.0,0.0,0.0,-4.0,-3.0,-2.0,16.0,0.0
1702323934.1909354,-4.0,-3.0,-1.0,1.0,0.0,4.0,-8.0,-1.0
1702323934.1909354,-4.0,-6.0,-4.0,-5.0,-7.0,-3.0,2.0,0.0
1702323934.1909354,9.0,2.0,1.0,-3.0,-1.0,-4.0,-3.0,-1.0
1702323934.1909354,-6.0,-3.0,-2.0,0.0,0.0,4.0,5.0,3.0
1702323934.1991413,1.0,-2.0,-1.0,0.0,6.0,-4.0,-8.0,2.0
1702323934.1991413,-4.0,-2.0,-8.0,-6.0,-3.0,-2.0,14.0,-1.0
1702323934.2131479,-1.0,-2.0,3.0,-1.0,-4.0,-2.0,-14.0,1.0
1702323934.2131479,1.0,1.0,4.0,2.0,-2.0,4.0,15.0,0.0
1702323934.2131479,5.0,1.0,-3.0,14.0,9.0,6.0,-25.0,-5.0
1702323934.2131479,-10.0,-1.0,2.0,4.0,0.0,-7.0,4.0,-2.0
1702323934.2431495,4.0,0.0,-3.0,-2.0,1.0,-1.0,-8.0,1.0
1702323934.2431495,10.0,2.0,4.0,1.0,-3.0,-2.0,4.0,2.0
1702323934.2431495,-4.0,0.0,-4.0,-8.0,-4.0,0.0,5.0,0.0
1702323934.2431495,-1.0,-2.0,-6.0,-3.0,2.0,3.0,1.0,-2.0
1702323934.2431495,-9.0,-2.0,0.0,1.0,-6.0,-5.0,0.0,-1.0
1702323934.2431495,-7.0,-1.0,-5.0,-10.0,1.0,-5.0,-11.0,-3.0
1702323934.25344,1.0,0.0,8.0,0.0,-4.0,-5.0,0.0,-9.0
1702323934.25344,1.0,-3.0,-4.0,0.0,-6.0,0.0,-5.0,1.0
1702323934.2733214,-1.0,0.0,-5.0,5.0,13.0,4.0,7.0,4.0
1702323934.2733214,1.0,2.0,-2.0,3.0,2.0,1.0,7.0,1.0
1702323934.2733214,0.0,-2.0,-2.0,0.0,-1.0,1.0,-3.0,4.0
1702323934.2733214,-4.0,3.0,4.0,-3.0,-1.0,-1.0,-2.0,-5.0
1702323934.2931497,-2.0,-2.0,3.0,11.0,0.0,2.0,-10.0,-4.0
1702323934.2931497,-2.0,1.0,-6.0,-6.0,-4.0,-5.0,17.0,1.0
1702323934.2931497,0.0,5.0,-1.0,-7.0,-10.0,-1.0,-10.0,2.0
1702323934.2931497,7.0,-3.0,2.0,7.0,4.0,0.0,-5.0,-4.0
1702323934.3131497,-14.0,-3.0,1.0,-2.0,6.0,4.0,-3.0,-3.0
1702323934.3131497,5.0,-1.0,-6.0,-4.0,-3.0,1.0,-10.0,-7.0
1702323934.3131497,-7.0,-4.0,-8.0,-14.0,-7.0,-1.0,9.0,0.0
1702323934.3131497,0.0,-1.0,6.0,6.0,2.0,1.0,6.0,2.0
1702323934.3334792,1.0,1.0,0.0,-3.0,-5.0,-3.0,-6.0,-2.0
1702323934.3334792,-4.0,0.0,0.0,-3.0,-1.0,-3.0,-3.0,-2.0
1702323934.3334792,-3.0,-6.0,-7.0,-10.0,-10.0,-6.0,2.0,1.0
1702323934.3334792,-1.0,0.0,6.0,5.0,5.0,6.0,-7.0,2.0
1702323934.3531497,-3.0,1.0,-10.0,-10.0,4.0,-6.0,6.0,-6.0
1702323934.3531497,-5.0,0.0,8.0,19.0,5.0,2.0,-9.0,-11.0
1702323934.3531497,6.0,0.0,-10.0,-9.0,-2.0,-4.0,-5.0,1.0
1702323934.3531497,-1.0,-2.0,16.0,25.0,2.0,-1.0,-1.0,3.0
1702323934.3731725,2.0,-2.0,-4.0,-11.0,-10.0,-2.0,3.0,2.0
1702323934.3731725,-1.0,-2.0,-1.0,1.0,4.0,3.0,2.0,-2.0
1702323934.3731725,0.0,1.0,2.0,4.0,1.0,-2.0,-3.0,0.0
1702323934.3731725,-3.0,-1.0,-9.0,-15.0,-4.0,-6.0,-2.0,-4.0
1702323934.393216,-1.0,0.0,-3.0,-8.0,-6.0,-2.0,0.0,-3.0
1702323934.393216,3.0,0.0,4.0,2.0,2.0,0.0,-6.0,1.0
1702323934.393216,-2.0,1.0,5.0,8.0,4.0,7.0,41.0,4.0
1702323934.393216,-4.0,-6.0,-11.0,-17.0,-3.0,1.0,-33.0,0.0
1702323934.4231486,1.0,-5.0,1.0,3.0,-8.0,-11.0,-13.0,-6.0
1702323934.4231486,0.0,-1.0,4.0,-10.0,-6.0,-4.0,-9.0,2.0
1702323934.4231486,-4.0,0.0,-22.0,0.0,-4.0,-5.0,0.0,-2.0
1702323934.4231486,2.0,0.0,-2.0,-4.0,-4.0,-2.0,17.0,3.0
1702323934.4231486,0.0,0.0,2.0,1.0,13.0,12.0,7.0,3.0
1702323934.4231486,0.0,-5.0,3.0,6.0,3.0,-2.0,-9.0,-4.0
1702323934.433411,0.0,1.0,8.0,4.0,2.0,0.0,0.0,1.0
1702323934.433411,-4.0,-1.0,-6.0,-10.0,-10.0,-5.0,6.0,0.0
1702323934.4537518,4.0,1.0,-8.0,-12.0,-2.0,-2.0,-10.0,-1.0
1702323934.4537518,-5.0,-1.0,9.0,6.0,1.0,-2.0,4.0,-1.0
1702323934.4537518,-1.0,1.0,6.0,7.0,2.0,5.0,-11.0,-4.0
1702323934.4537518,1.0,-1.0,-9.0,-2.0,0.0,3.0,1.0,-2.0
1702323934.4834316,1.0,0.0,14.0,11.0,3.0,-1.0,3.0,1.0
1702323934.4834316,1.0,1.0,-18.0,-16.0,-3.0,-1.0,1.0,3.0
1702323934.4834316,-1.0,-2.0,3.0,-1.0,-3.0,-2.0,-6.0,-7.0
1702323934.4834316,-2.0,0.0,-4.0,-3.0,-4.0,-2.0,3.0,1.0
1702323934.4934652,-1.0,-1.0,-14.0,-17.0,-4.0,2.0,24.0,3.0
1702323934.4934652,-1.0,4.0,12.0,19.0,4.0,2.0,-14.0,-3.0
1702323934.4934652,3.0,-2.0,6.0,6.0,7.0,2.0,-14.0,1.0
1702323934.4934652,-1.0,-3.0,2.0,-1.0,-2.0,-4.0,-15.0,-2.0
1702323934.51365,-1.0,-2.0,-7.0,-7.0,-3.0,-4.0,-5.0,0.0
1702323934.51365,-4.0,-1.0,-3.0,-5.0,-2.0,5.0,4.0,-7.0
1702323934.51365,-6.0,1.0,1.0,-4.0,-2.0,-9.0,4.0,-2.0
1702323934.51365,2.0,1.0,3.0,3.0,0.0,0.0,8.0,-3.0
1702323934.54343,-1.0,-4.0,-1.0,2.0,-4.0,-2.0,-5.0,-2.0
1702323934.54343,-1.0,-3.0,-7.0,-6.0,-3.0,-1.0,2.0,-1.0
1702323934.54343,2.0,-1.0,5.0,-1.0,-4.0,2.0,-3.0,0.0
1702323934.54343,-1.0,-2.0,-9.0,-7.0,-2.0,-3.0,3.0,-2.0
1702323934.5537012,-2.0,-1.0,9.0,4.0,-2.0,0.0,-4.0,1.0
1702323934.5537012,-1.0,-1.0,-9.0,-2.0,1.0,-3.0,0.0,1.0
1702323934.5537012,-1.0,-4.0,-4.0,-12.0,-5.0,-2.0,-2.0,-2.0
1702323934.5537012,-1.0,1.0,3.0,11.0,4.0,-2.0,-1.0,0.0
1702323934.5737753,-3.0,-2.0,5.0,6.0,-2.0,-1.0,-5.0,-4.0
1702323934.5737753,-2.0,-3.0,-1.0,0.0,-1.0,-1.0,0.0,1.0
1702323934.5737753,2.0,7.0,-2.0,-5.0,1.0,1.0,-1.0,-1.0
1702323934.5737753,-2.0,-1.0,-4.0,-7.0,-3.0,-4.0,-1.0,-5.0
1702323934.6133015,2.0,-4.0,-5.0,0.0,-2.0,-2.0,-4.0,0.0
1702323934.6133015,0.0,1.0,-7.0,-4.0,-1.0,-1.0,2.0,1.0
1702323934.6133015,-3.0,-7.0,1.0,-7.0,-13.0,-7.0,-3.0,-3.0
1702323934.6133015,0.0,3.0,2.0,-5.0,3.0,-3.0,1.0,0.0
1702323934.6133015,-1.0,0.0,1.0,5.0,7.0,5.0,1.0,0.0
1702323934.6133015,1.0,-2.0,-6.0,-6.0,3.0,1.0,-1.0,1.0
1702323934.6133015,3.0,1.0,6.0,10.0,2.0,4.0,0.0,0.0
1702323934.6133015,-1.0,0.0,6.0,-7.0,-7.0,-7.0,0.0,-1.0
1702323934.6338763,-1.0,1.0,5.0,-3.0,-10.0,-4.0,-5.0,-3.0
1702323934.6338763,-6.0,-14.0,-46.0,-10.0,-3.0,-2.0,-3.0,-3.0
1702323934.635877,-1.0,1.0,7.0,9.0,9.0,5.0,-1.0,2.0
1702323934.635877,0.0,0.0,-7.0,-1.0,-2.0,0.0,1.0,-3.0
1702323934.6568768,-1.0,4.0,13.0,4.0,-1.0,-4.0,-2.0,1.0
1702323934.6568768,1.0,2.0,17.0,4.0,-7.0,-2.0,-1.0,-1.0
1702323934.657981,-1.0,-4.0,-14.0,-15.0,-5.0,-4.0,-1.0,-1.0
1702323934.657981,3.0,3.0,11.0,20.0,9.0,6.0,2.0,1.0
1702323934.6794512,2.0,2.0,-3.0,2.0,5.0,2.0,-1.0,0.0
1702323934.6794512,-5.0,0.0,3.0,-2.0,-8.0,-3.0,-1.0,0.0
1702323934.6804478,0.0,0.0,3.0,-7.0,-1.0,-4.0,-3.0,0.0
1702323934.6804478,-2.0,-2.0,-3.0,-4.0,-2.0,-3.0,-2.0,0.0
1702323934.694177,-4.0,-2.0,-4.0,-5.0,-3.0,1.0,-1.0,-2.0
1702323934.694177,-2.0,-1.0,-4.0,-8.0,-6.0,-3.0,-2.0,-3.0
1702323934.700335,-1.0,-2.0,10.0,9.0,6.0,1.0,0.0,-2.0
1702323934.700335,-2.0,-2.0,-2.0,-1.0,0.0,0.0,-1.0,-1.0
1702323934.7164454,-1.0,0.0,-1.0,5.0,0.0,-1.0,0.0,1.0
1702323934.7164454,1.0,0.0,-2.0,0.0,1.0,-2.0,-2.0,0.0
1702323934.7186682,-1.0,-2.0,-3.0,-7.0,-5.0,4.0,0.0,-2.0
1702323934.7186682,0.0,-1.0,-4.0,-5.0,1.0,-6.0,1.0,-1.0
1702323934.7395108,-1.0,2.0,18.0,5.0,3.0,0.0,-2.0,-2.0
1702323934.7395108,0.0,0.0,-6.0,0.0,3.0,1.0,1.0,2.0
1702323934.7410784,-2.0,-7.0,-22.0,0.0,-2.0,0.0,-1.0,-3.0
1702323934.7410784,-1.0,0.0,6.0,-6.0,-12.0,-1.0,-2.0,-2.0
1702323934.758286,-1.0,-2.0,-1.0,-7.0,-2.0,-3.0,-4.0,-1.0
1702323934.758286,-1.0,3.0,13.0,1.0,5.0,4.0,0.0,-2.0
1702323934.760322,0.0,-2.0,-16.0,5.0,5.0,1.0,0.0,1.0
1702323934.760322,-3.0,-1.0,-7.0,-1.0,-3.0,-2.0,-3.0,-3.0
1702323934.7774544,0.0,-1.0,2.0,-3.0,-4.0,1.0,1.0,0.0
1702323934.7774544,0.0,-2.0,-3.0,-1.0,-4.0,-3.0,-1.0,0.0
1702323934.7785106,0.0,-2.0,-5.0,-1.0,-3.0,-2.0,-2.0,-1.0
1702323934.779427,-2.0,-3.0,-1.0,0.0,2.0,0.0,-3.0,0.0
1702323934.799474,0.0,3.0,12.0,0.0,-6.0,-2.0,1.0,-2.0
1702323934.799474,0.0,-4.0,-36.0,-4.0,-1.0,-1.0,3.0,2.0
1702323934.8009925,-1.0,9.0,20.0,0.0,-4.0,-4.0,-2.0,4.0
1702323934.8009925,-1.0,-1.0,-1.0,1.0,5.0,2.0,2.0,-2.0
1702323934.8120778,-2.0,-2.0,-4.0,-3.0,-1.0,-4.0,-4.0,-4.0
1702323934.8120778,-1.0,-1.0,1.0,-4.0,-2.0,-2.0,-3.0,-1.0
1702323934.8120778,-3.0,-2.0,9.0,3.0,0.0,-3.0,-1.0,-6.0
1702323934.8120778,-2.0,-1.0,-6.0,2.0,0.0,1.0,-6.0,-2.0
1702323934.8324172,-1.0,-1.0,-7.0,0.0,0.0,2.0,5.0,10.0
1702323934.8324172,1.0,0.0,7.0,-2.0,-2.0,-2.0,0.0,-6.0
1702323934.8324172,3.0,0.0,7.0,1.0,1.0,-2.0,0.0,13.0
1702323934.8324172,-2.0,-4.0,-21.0,-7.0,-2.0,1.0,0.0,-6.0
1702323934.852449,-2.0,-4.0,-8.0,-1.0,-1.0,-5.0,-3.0,-6.0
1702323934.852449,-3.0,0.0,11.0,-2.0,-4.0,-5.0,1.0,-1.0
1702323934.852449,-1.0,0.0,2.0,-1.0,0.0,-1.0,-1.0,-4.0
1702323934.852449,-1.0,-3.0,3.0,-3.0,-1.0,-1.0,0.0,0.0
1702323934.87208,-1.0,-4.0,-10.0,-5.0,-3.0,-4.0,-4.0,0.0
1702323934.87208,0.0,2.0,19.0,4.0,2.0,-2.0,0.0,6.0
1702323934.8820813,-2.0,-4.0,-26.0,-4.0,-2.0,-1.0,-4.0,-8.0
1702323934.8820813,-1.0,0.0,0.0,-2.0,1.0,-2.0,4.0,-4.0
1702323934.89229,2.0,-2.0,-10.0,-5.0,-4.0,-2.0,4.0,13.0
1702323934.89229,1.0,0.0,7.0,2.0,-3.0,2.0,0.0,2.0
1702323934.89229,0.0,1.0,6.0,2.0,4.0,1.0,2.0,3.0
1702323934.89229,-1.0,-1.0,-2.0,-3.0,-4.0,-4.0,-1.0,2.0
1702323934.9320831,-2.0,-2.0,-5.0,1.0,3.0,0.0,-4.0,-9.0
1702323934.9320831,-1.0,0.0,3.0,6.0,1.0,0.0,-2.0,-2.0
1702323934.9320831,-1.0,0.0,-2.0,-4.0,-7.0,-4.0,-1.0,-3.0
1702323934.9320831,-2.0,-2.0,4.0,-1.0,-3.0,-2.0,-7.0,-4.0
1702323934.9320831,0.0,0.0,-1.0,1.0,2.0,1.0,-2.0,-9.0
1702323934.9320831,-2.0,-3.0,-5.0,0.0,-1.0,-2.0,-11.0,-5.0
1702323934.9320831,0.0,-2.0,3.0,3.0,2.0,3.0,11.0,3.0
1702323934.9320831,0.0,1.0,14.0,0.0,-3.0,2.0,14.0,2.0
1702323934.9524639,0.0,-1.0,-2.0,-3.0,-4.0,-3.0,-11.0,2.0
1702323934.9524639,-2.0,0.0,-2.0,-6.0,-7.0,-1.0,5.0,16.0
1702323934.9524639,-3.0,-2.0,-6.0,-3.0,1.0,-2.0,-9.0,-22.0
1702323934.9524639,-1.0,0.0,9.0,3.0,2.0,3.0,6.0,16.0
1702323934.982081,-2.0,1.0,5.0,5.0,4.0,1.0,-6.0,-9.0
1702323934.982081,-2.0,-5.0,-12.0,-3.0,-2.0,-2.0,8.0,10.0
1702323934.982081,0.0,3.0,7.0,-5.0,-3.0,-3.0,-6.0,-1.0
1702323934.982081,-1.0,-1.0,6.0,0.0,0.0,-4.0,10.0,5.0
1702323934.9923139,-4.0,-3.0,-18.0,-1.0,1.0,-1.0,9.0,15.0
1702323934.9923139,-5.0,-4.0,21.0,3.0,-1.0,-8.0,-24.0,-23.0
1702323934.9923139,-3.0,-6.0,-48.0,-9.0,-5.0,0.0,-2.0,-18.0
1702323934.9923139,2.0,10.0,5.0,0.0,-1.0,-2.0,-16.0,-8.0
1702323935.0220892,3.0,-10.0,-14.0,-4.0,-5.0,1.0,-1.0,24.0
1702323935.0220892,3.0,14.0,29.0,0.0,4.0,-1.0,0.0,11.0
1702323935.0220892,2.0,12.0,17.0,5.0,3.0,0.0,-1.0,-6.0
1702323935.0220892,-15.0,-51.0,-25.0,-6.0,-7.0,-6.0,-15.0,-43.0
1702323935.0420864,7.0,26.0,21.0,2.0,-1.0,2.0,11.0,23.0
1702323935.0420864,-2.0,-4.0,-27.0,-3.0,0.0,2.0,7.0,-4.0
1702323935.0420864,1.0,1.0,5.0,-4.0,0.0,-2.0,-3.0,-2.0
1702323935.0420864,2.0,13.0,-1.0,6.0,0.0,2.0,0.0,-5.0
1702323935.0520833,-5.0,-8.0,24.0,-2.0,0.0,-3.0,-6.0,-7.0
1702323935.0520833,2.0,-3.0,-36.0,-3.0,2.0,4.0,5.0,-2.0
1702323935.0620825,3.0,3.0,-33.0,-2.0,0.0,-1.0,-1.0,6.0
1702323935.0620825,0.0,5.0,13.0,-2.0,-2.0,0.0,-2.0,5.0
1702323935.0820804,2.0,-4.0,-8.0,-5.0,-3.0,-3.0,-1.0,-6.0
1702323935.0820804,-6.0,-4.0,7.0,3.0,2.0,2.0,-4.0,-13.0
1702323935.0820804,-12.0,-5.0,23.0,5.0,2.0,0.0,-3.0,1.0
1702323935.0820804,5.0,7.0,-3.0,-1.0,0.0,-3.0,-6.0,4.0
1702323935.0923085,-1.0,-5.0,-4.0,-9.0,-10.0,-2.0,6.0,-11.0
1702323935.0923085,0.0,6.0,-17.0,-5.0,3.0,-1.0,-1.0,4.0
1702323935.0923085,0.0,-11.0,13.0,6.0,3.0,3.0,4.0,5.0
1702323935.0923085,-3.0,4.0,2.0,3.0,4.0,3.0,2.0,10.0
1702323935.1120818,-3.0,5.0,-7.0,-4.0,-5.0,-4.0,-12.0,-14.0
1702323935.1120818,3.0,-10.0,-1.0,-6.0,-8.0,-5.0,-3.0,-6.0
1702323935.122081,-10.0,-10.0,6.0,-1.0,-2.0,-1.0,7.0,3.0
1702323935.122081,6.0,6.0,6.0,0.0,-1.0,2.0,-1.0,2.0
1702323935.1321812,-8.0,0.0,12.0,3.0,5.0,3.0,7.0,15.0
1702323935.1321812,-9.0,1.0,-27.0,-3.0,-2.0,-1.0,-1.0,-6.0
1702323935.1321812,6.0,1.0,4.0,0.0,-3.0,1.0,-1.0,8.0
1702323935.1321812,6.0,0.0,-17.0,-4.0,-3.0,-3.0,-4.0,-2.0
1702323935.1521144,-6.0,-3.0,14.0,4.0,8.0,0.0,-2.0,-16.0
1702323935.1521144,0.0,-3.0,9.0,1.0,-4.0,1.0,-2.0,11.0
1702323935.1521144,-2.0,0.0,-26.0,-8.0,-10.0,-7.0,-4.0,5.0
1702323935.1521144,-3.0,8.0,18.0,2.0,4.0,2.0,1.0,0.0
1702323935.173318,0.0,-14.0,-3.0,-4.0,-3.0,-5.0,-9.0,-15.0
1702323935.173318,2.0,-1.0,-6.0,3.0,1.0,1.0,10.0,5.0
1702323935.1818607,-1.0,-9.0,3.0,-4.0,-6.0,-3.0,-4.0,-5.0
1702323935.1818607,1.0,0.0,-6.0,-6.0,-4.0,-3.0,-1.0,2.0
1702323935.204958,2.0,7.0,3.0,2.0,2.0,1.0,-2.0,-3.0
1702323935.2059577,-1.0,-8.0,-7.0,-2.0,1.0,2.0,-1.0,0.0
1702323935.2069583,2.0,7.0,2.0,2.0,2.0,0.0,3.0,3.0
1702323935.2069583,-6.0,-7.0,6.0,-1.0,3.0,-3.0,-6.0,-6.0
1702323935.219718,0.0,5.0,3.0,1.0,-5.0,-1.0,-10.0,-8.0
1702323935.219718,-4.0,-8.0,-12.0,-3.0,-3.0,-2.0,9.0,-20.0
1702323935.2211587,4.0,6.0,11.0,0.0,-1.0,-1.0,0.0,30.0
1702323935.2211587,-3.0,-1.0,-14.0,-8.0,-1.0,-2.0,0.0,-1.0
1702323935.2332444,-1.0,-5.0,-13.0,1.0,-3.0,-1.0,-3.0,-6.0
1702323935.2332444,3.0,2.0,21.0,4.0,4.0,1.0,-3.0,-12.0
1702323935.2422879,-1.0,5.0,6.0,-1.0,1.0,0.0,-4.0,-5.0
1702323935.2422879,-9.0,-7.0,-11.0,-5.0,-7.0,-8.0,1.0,-3.0
1702323935.2660208,0.0,-2.0,-5.0,-3.0,-2.0,-3.0,-3.0,-11.0
1702323935.2660208,3.0,11.0,23.0,3.0,2.0,-2.0,-6.0,7.0
1702323935.2670202,0.0,-11.0,-43.0,1.0,4.0,0.0,0.0,-13.0
1702323935.2670202,-3.0,-2.0,-7.0,-1.0,-1.0,1.0,-5.0,-3.0
1702323935.2802699,-3.0,19.0,10.0,2.0,5.0,3.0,3.0,-26.0
1702323935.2802699,-2.0,4.0,16.0,3.0,2.0,0.0,-6.0,1.0
1702323935.2822707,-10.0,-37.0,-16.0,-11.0,-9.0,-3.0,-3.0,7.0
1702323935.2822707,3.0,5.0,-4.0,-5.0,-4.0,-2.0,0.0,4.0
1702323935.2941465,7.0,-6.0,-13.0,-2.0,-6.0,-3.0,11.0,34.0
1702323935.2941465,4.0,15.0,31.0,2.0,0.0,-1.0,0.0,-12.0
1702323935.305435,-9.0,10.0,2.0,2.0,5.0,-1.0,-7.0,-15.0
1702323935.305435,-4.0,10.0,1.0,6.0,5.0,4.0,2.0,1.0
1702323935.3349936,-8.0,-18.0,-4.0,-5.0,-2.0,-3.0,3.0,1.0
1702323935.3349936,2.0,-9.0,-5.0,-2.0,-6.0,5.0,2.0,18.0
1702323935.3349936,9.0,12.0,10.0,-1.0,1.0,-10.0,-3.0,0.0
1702323935.3349936,-3.0,2.0,10.0,1.0,3.0,1.0,5.0,13.0
1702323935.3390615,4.0,6.0,-7.0,1.0,3.0,-1.0,-7.0,-9.0
1702323935.3390615,-13.0,-3.0,-4.0,-3.0,-10.0,-4.0,-5.0,-15.0
1702323935.3410444,-3.0,-14.0,-2.0,-7.0,-1.0,-3.0,-12.0,-7.0
1702323935.3410444,18.0,16.0,18.0,10.0,8.0,6.0,14.0,13.0
1702323935.352826,-2.0,-3.0,1.0,1.0,-2.0,-3.0,-7.0,-1.0
1702323935.352826,-1.0,-5.0,-15.0,-3.0,-5.0,-4.0,4.0,-7.0
1702323935.3776052,-8.0,-5.0,7.0,-5.0,-2.0,-1.0,4.0,10.0
1702323935.3776052,-4.0,9.0,5.0,-2.0,-3.0,-2.0,-4.0,-3.0
1702323935.3776052,-3.0,-33.0,-21.0,-6.0,-8.0,-2.0,-1.0,0.0
1702323935.3776052,3.0,1.0,-4.0,0.0,4.0,3.0,-3.0,2.0
1702323935.3786101,3.0,24.0,26.0,1.0,-3.0,-6.0,-3.0,-3.0
1702323935.3786101,4.0,-25.0,-11.0,1.0,1.0,0.0,-6.0,-16.0
1702323935.3988636,-8.0,-1.0,-18.0,0.0,5.0,1.0,-2.0,3.0
1702323935.3988636,-6.0,9.0,-15.0,-2.0,-3.0,0.0,-3.0,0.0
1702323935.400864,7.0,0.0,10.0,-2.0,-7.0,0.0,2.0,-4.0
1702323935.400864,-8.0,-9.0,-2.0,-10.0,-9.0,-3.0,-4.0,11.0
1702323935.4127367,6.0,32.0,16.0,3.0,2.0,0.0,1.0,-7.0
1702323935.4127367,-5.0,-17.0,10.0,5.0,6.0,-1.0,-4.0,-6.0
1702323935.4217627,1.0,2.0,-16.0,1.0,2.0,3.0,5.0,-1.0
1702323935.4217627,5.0,-4.0,-21.0,-4.0,-6.0,-4.0,-1.0,3.0
1702323935.4480066,-5.0,-2.0,-1.0,-4.0,-4.0,-3.0,0.0,-2.0
1702323935.4480066,-2.0,-8.0,3.0,-8.0,-2.0,-6.0,-12.0,-5.0
1702323935.4480066,-6.0,-4.0,21.0,5.0,2.0,1.0,10.0,-6.0
1702323935.4480066,-2.0,-5.0,-44.0,-2.0,-1.0,0.0,-3.0,-1.0
1702323935.4590096,3.0,5.0,12.0,5.0,2.0,2.0,1.0,1.0
1702323935.4590096,-3.0,-8.0,-18.0,-4.0,2.0,4.0,1.0,4.0
1702323935.4610054,2.0,-2.0,21.0,-1.0,-5.0,-6.0,-5.0,-3.0
1702323935.4610054,-3.0,1.0,-9.0,-6.0,-2.0,-2.0,0.0,-4.0
1702323935.4870052,-3.0,-4.0,1.0,-3.0,-5.0,-3.0,-3.0,4.0
1702323935.4870052,4.0,2.0,-16.0,0.0,3.0,-2.0,1.0,10.0
1702323935.48939,1.0,-11.0,-4.0,-1.0,2.0,4.0,2.0,1.0
1702323935.48939,-5.0,-7.0,15.0,0.0,-9.0,-2.0,-2.0,-2.0
1702323935.4964392,3.0,5.0,8.0,-5.0,5.0,-1.0,-2.0,-7.0
1702323935.4964392,-9.0,4.0,15.0,3.0,4.0,-3.0,0.0,0.0
1702323935.498122,-5.0,-15.0,-46.0,-4.0,-5.0,-1.0,-2.0,-1.0
1702323935.498122,-2.0,-1.0,22.0,0.0,-2.0,-5.0,-6.0,-4.0
1702323935.5196483,0.0,-3.0,-5.0,-5.0,-6.0,0.0,-2.0,2.0
1702323935.5196483,5.0,5.0,11.0,-3.0,-6.0,-4.0,0.0,-1.0
1702323935.5206618,-2.0,0.0,-1.0,7.0,7.0,4.0,-6.0,-13.0
1702323935.5206618,1.0,0.0,10.0,4.0,2.0,3.0,6.0,9.0
1702323935.5421026,-3.0,-1.0,0.0,-1.0,-1.0,-4.0,-5.0,-4.0
1702323935.5431247,-1.0,11.0,9.0,-4.0,-2.0,-4.0,0.0,-1.0
1702323935.544121,0.0,-8.0,-15.0,-2.0,-6.0,2.0,4.0,2.0
1702323935.544121,-3.0,1.0,7.0,3.0,2.0,4.0,-8.0,-9.0
1702323935.5577672,-1.0,-3.0,-6.0,1.0,4.0,-2.0,0.0,4.0
1702323935.5577672,3.0,-4.0,-4.0,-1.0,0.0,1.0,6.0,4.0
1702323935.5588114,2.0,10.0,29.0,-1.0,1.0,-2.0,-5.0,0.0
1702323935.5588114,-2.0,-13.0,-38.0,-7.0,-1.0,1.0,1.0,-4.0
1702323935.580154,-5.0,-5.0,-9.0,-1.0,-3.0,0.0,0.0,-1.0
1702323935.580154,-3.0,-4.0,10.0,-3.0,-4.0,-2.0,-8.0,-7.0
1702323935.581168,2.0,5.0,23.0,-1.0,-3.0,1.0,1.0,7.0
1702323935.581168,1.0,-2.0,-40.0,-2.0,-1.0,0.0,-3.0,1.0
1702323935.6132398,-2.0,-5.0,-17.0,2.0,1.0,0.0,5.0,1.0
1702323935.6132398,2.0,-8.0,-13.0,0.0,1.0,0.0,-3.0,-4.0
1702323935.6132398,-4.0,-1.0,7.0,-1.0,0.0,1.0,-5.0,-2.0
1702323935.6132398,-2.0,11.0,21.0,-6.0,-3.0,-5.0,2.0,2.0
1702323935.61668,-3.0,-7.0,1.0,-1.0,-3.0,-1.0,-2.0,-3.0
1702323935.61668,0.0,4.0,18.0,-2.0,-6.0,-3.0,-1.0,3.0
1702323935.6183152,3.0,2.0,-10.0,0.0,-3.0,-1.0,2.0,1.0
1702323935.6183152,-14.0,-11.0,10.0,5.0,5.0,-13.0,-13.0,-15.0
1702323935.6401343,12.0,1.0,-10.0,1.0,5.0,3.0,4.0,8.0
1702323935.6401343,-6.0,-9.0,-24.0,-4.0,-3.0,0.0,0.0,-1.0
1702323935.6411319,-4.0,5.0,8.0,-3.0,-5.0,-2.0,-2.0,2.0
1702323935.6411319,3.0,0.0,7.0,-2.0,-2.0,0.0,6.0,3.0
1702323935.667969,-5.0,1.0,7.0,-2.0,-8.0,-3.0,-3.0,-7.0
1702323935.667969,7.0,5.0,3.0,1.0,0.0,-2.0,-2.0,2.0
1702323935.667969,-1.0,-1.0,-15.0,-2.0,1.0,0.0,-3.0,-2.0
1702323935.667969,-2.0,3.0,8.0,1.0,-2.0,1.0,-2.0,-5.0
1702323935.6762307,-3.0,6.0,9.0,0.0,1.0,2.0,-2.0,-1.0
1702323935.6762307,0.0,-11.0,6.0,0.0,-3.0,0.0,1.0,-1.0
1702323935.6833,-6.0,-11.0,-40.0,-3.0,0.0,-3.0,-3.0,-2.0
1702323935.6833,2.0,-4.0,10.0,0.0,2.0,3.0,0.0,-10.0
1702323935.699637,2.0,3.0,5.0,4.0,2.0,0.0,-4.0,-2.0
1702323935.699637,-1.0,9.0,10.0,-5.0,0.0,2.0,2.0,0.0
1702323935.7006087,-2.0,0.0,1.0,1.0,-3.0,-5.0,0.0,-4.0
1702323935.7006087,2.0,-1.0,-1.0,0.0,-4.0,-6.0,-2.0,1.0
1702323935.723016,-3.0,-5.0,-17.0,-8.0,-7.0,-2.0,1.0,1.0
1702323935.723016,0.0,1.0,4.0,5.0,7.0,3.0,-2.0,-2.0
1702323935.7240114,0.0,-1.0,2.0,2.0,3.0,0.0,1.0,2.0
1702323935.7240114,0.0,-1.0,2.0,1.0,2.0,2.0,-4.0,-3.0
1702323935.7362738,-2.0,0.0,6.0,1.0,-3.0,-1.0,-1.0,-6.0
1702323935.7373343,-1.0,-2.0,-5.0,-6.0,-6.0,-6.0,2.0,4.0
1702323935.7433364,0.0,-9.0,-5.0,-4.0,1.0,2.0,0.0,-2.0
1702323935.7433364,-2.0,8.0,-2.0,0.0,-2.0,0.0,-1.0,1.0
1702323935.7756517,-4.0,-6.0,-13.0,-2.0,0.0,0.0,-1.0,-2.0
1702323935.7756517,-1.0,0.0,1.0,-5.0,-5.0,-4.0,-4.0,-4.0
1702323935.7776525,-2.0,-3.0,6.0,-4.0,-4.0,-2.0,-4.0,-4.0
1702323935.7776525,2.0,0.0,1.0,3.0,4.0,-2.0,3.0,2.0
1702323935.7817037,-1.0,-2.0,0.0,1.0,0.0,-2.0,0.0,3.0
1702323935.7817037,0.0,2.0,19.0,0.0,4.0,2.0,-1.0,-3.0
1702323935.7835991,5.0,7.0,-8.0,3.0,3.0,1.0,0.0,-2.0
1702323935.7835991,1.0,-6.0,4.0,0.0,0.0,-2.0,5.0,12.0
1702323935.7956607,-2.0,-5.0,5.0,-3.0,1.0,-2.0,-4.0,-1.0
1702323935.796655,-1.0,-3.0,3.0,-1.0,-5.0,2.0,-2.0,-2.0
1702323935.8032217,0.0,5.0,10.0,0.0,-2.0,-1.0,-3.0,-3.0
1702323935.8032217,-2.0,0.0,-14.0,-5.0,-5.0,-1.0,-1.0,-6.0
1702323935.820261,1.0,-1.0,1.0,1.0,0.0,-1.0,1.0,4.0
1702323935.820261,-4.0,0.0,-8.0,-6.0,-3.0,-4.0,-3.0,-7.0
1702323935.820261,-3.0,-6.0,-10.0,-3.0,2.0,1.0,1.0,-6.0
1702323935.820261,3.0,1.0,4.0,5.0,1.0,2.0,2.0,2.0
1702323935.8427036,-1.0,1.0,4.0,-6.0,-8.0,-3.0,-2.0,-6.0
1702323935.8427036,-4.0,-3.0,-20.0,-6.0,-5.0,-3.0,0.0,1.0
1702323935.8437507,-3.0,2.0,1.0,3.0,5.0,0.0,-1.0,3.0
1702323935.8437507,3.0,-2.0,13.0,8.0,6.0,3.0,-3.0,-4.0
1702323935.85758,-5.0,4.0,-6.0,-3.0,3.0,-1.0,-3.0,-1.0
1702323935.85758,-1.0,-6.0,-4.0,0.0,-4.0,-1.0,-3.0,4.0
1702323935.8633077,-2.0,-1.0,-4.0,-5.0,-6.0,-1.0,0.0,2.0
1702323935.8633077,0.0,-2.0,-9.0,-6.0,-3.0,-2.0,0.0,0.0
1702323935.891146,2.0,2.0,3.0,1.0,-4.0,-2.0,-3.0,-1.0
1702323935.891146,-3.0,0.0,14.0,3.0,1.0,-1.0,-2.0,0.0
1702323935.891146,-3.0,-3.0,-8.0,-3.0,-5.0,-9.0,-3.0,-7.0
1702323935.891146,-1.0,-1.0,7.0,0.0,-1.0,1.0,0.0,-1.0
1702323935.9020872,0.0,2.0,-2.0,0.0,-2.0,0.0,-1.0,-3.0
1702323935.9020872,-3.0,-8.0,-6.0,3.0,-1.0,-3.0,-1.0,-4.0
1702323935.9036252,2.0,0.0,6.0,0.0,4.0,6.0,4.0,1.0
1702323935.9036252,-2.0,0.0,-1.0,1.0,-3.0,-3.0,-3.0,7.0
1702323935.9236317,0.0,-2.0,10.0,-2.0,0.0,2.0,0.0,-3.0
1702323935.9236317,0.0,0.0,-21.0,4.0,2.0,1.0,-2.0,2.0
1702323935.9246316,0.0,4.0,7.0,2.0,-2.0,-1.0,-4.0,-4.0
1702323935.9246316,0.0,0.0,-8.0,-11.0,-11.0,-4.0,-1.0,-4.0
1702323935.9398217,0.0,0.0,17.0,3.0,3.0,2.0,3.0,6.0
1702323935.9398217,-2.0,-1.0,-13.0,3.0,4.0,2.0,0.0,-4.0
1702323935.9407835,-2.0,-5.0,-33.0,-3.0,-2.0,7.0,1.0,2.0
1702323935.9407835,-1.0,3.0,1.0,-2.0,-2.0,-4.0,0.0,-2.0
1702323935.962105,-3.0,-8.0,8.0,0.0,-1.0,-2.0,-5.0,-3.0
1702323935.962105,1.0,0.0,-15.0,-6.0,-5.0,-1.0,1.0,1.0
1702323935.9635367,2.0,8.0,15.0,0.0,-3.0,-5.0,-2.0,2.0
1702323935.9635367,-1.0,-1.0,15.0,-3.0,-3.0,0.0,1.0,2.0
1702323935.978547,-4.0,-7.0,-19.0,2.0,2.0,2.0,-2.0,-9.0
1702323935.978547,-1.0,2.0,0.0,-1.0,1.0,1.0,-2.0,6.0
1702323935.9872603,-1.0,0.0,9.0,3.0,1.0,-1.0,3.0,-4.0
1702323935.9872603,2.0,-3.0,-9.0,-4.0,-2.0,0.0,-3.0,-1.0
1702323935.9996948,-4.0,3.0,8.0,-1.0,-5.0,-3.0,-1.0,-1.0
1702323935.9996948,2.0,4.0,10.0,4.0,1.0,-1.0,-3.0,-3.0
1702323936.0007045,-3.0,-1.0,-7.0,-6.0,-1.0,-5.0,-6.0,-1.0
1702323936.0007045,-3.0,-5.0,6.0,-3.0,-2.0,-1.0,0.0,-4.0
1702323936.0220802,3.0,3.0,2.0,0.0,1.0,0.0,3.0,5.0
1702323936.0220802,-2.0,-11.0,-25.0,-3.0,1.0,1.0,-3.0,-6.0
1702323936.0235903,-4.0,4.0,16.0,0.0,-6.0,-1.0,1.0,3.0
1702323936.0235903,-4.0,-5.0,-19.0,-1.0,3.0,-2.0,-4.0,-4.0
1702323936.037773,-2.0,-3.0,-1.0,0.0,0.0,-1.0,0.0,-9.0
1702323936.037773,1.0,-7.0,-18.0,-4.0,-4.0,-4.0,-1.0,-1.0
1702323936.037773,0.0,-2.0,17.0,5.0,0.0,1.0,0.0,4.0
1702323936.037773,0.0,4.0,-5.0,-2.0,2.0,-8.0,-3.0,-2.0
1702323936.0581672,1.0,0.0,-2.0,3.0,1.0,0.0,-2.0,0.0
1702323936.0581672,1.0,4.0,17.0,0.0,-2.0,-2.0,2.0,-3.0
1702323936.0581672,1.0,-5.0,-11.0,-7.0,-8.0,-3.0,-5.0,-1.0
1702323936.0581672,-1.0,4.0,2.0,0.0,-2.0,2.0,-3.0,-5.0
1702323936.0784967,0.0,-5.0,-12.0,-3.0,0.0,-1.0,-1.0,-1.0
1702323936.0784967,-3.0,1.0,12.0,-2.0,0.0,1.0,1.0,0.0
1702323936.0784967,-1.0,-8.0,-9.0,0.0,0.0,1.0,-1.0,0.0
1702323936.0784967,0.0,3.0,16.0,3.0,1.0,2.0,1.0,1.0
1702323936.0957463,0.0,4.0,2.0,-1.0,1.0,0.0,-1.0,2.0
1702323936.0957463,3.0,-2.0,-10.0,-1.0,-7.0,0.0,0.0,1.0
1702323936.1057682,-4.0,9.0,6.0,-2.0,1.0,-2.0,-1.0,-4.0
1702323936.1057682,-3.0,-2.0,5.0,-4.0,-3.0,-1.0,-1.0,-3.0
1702323936.1157622,2.0,-1.0,-13.0,-1.0,0.0,6.0,2.0,2.0
1702323936.1157622,3.0,2.0,14.0,0.0,2.0,-11.0,-1.0,-2.0
1702323936.1157622,-1.0,3.0,-1.0,-1.0,1.0,-1.0,0.0,0.0
1702323936.1157622,-1.0,-3.0,-2.0,4.0,1.0,1.0,2.0,-2.0
1702323936.136084,0.0,-1.0,-6.0,-2.0,-5.0,-2.0,-1.0,-3.0
1702323936.136084,-3.0,1.0,1.0,-1.0,3.0,3.0,0.0,1.0
1702323936.136084,-1.0,-5.0,13.0,3.0,1.0,2.0,1.0,-3.0
1702323936.136084,1.0,-2.0,-12.0,-5.0,-3.0,-4.0,-6.0,-4.0
1702323936.1557631,-2.0,-1.0,1.0,-7.0,-7.0,-3.0,3.0,5.0
1702323936.1557631,-1.0,2.0,-3.0,2.0,-1.0,0.0,-4.0,-3.0
1702323936.1557631,-4.0,-4.0,5.0,-2.0,-3.0,-2.0,-1.0,-1.0
1702323936.1557631,-1.0,-1.0,3.0,2.0,5.0,5.0,1.0,-1.0
1702323936.1760225,1.0,0.0,-8.0,-2.0,0.0,-4.0,-4.0,-2.0
1702323936.1760225,-1.0,-2.0,13.0,0.0,-3.0,-1.0,-2.0,-5.0
1702323936.1760225,0.0,0.0,-12.0,0.0,-1.0,-1.0,-2.0,-1.0
1702323936.1760225,2.0,4.0,3.0,2.0,-2.0,0.0,1.0,0.0
1702323936.2157655,-4.0,-9.0,-24.0,-2.0,4.0,-1.0,-3.0,-2.0
1702323936.2157655,-4.0,-5.0,20.0,-1.0,-3.0,-3.0,0.0,-1.0
1702323936.2257628,4.0,3.0,-7.0,-6.0,-5.0,-4.0,-5.0,1.0
1702323936.2257628,-7.0,-5.0,-32.0,-7.0,-1.0,-2.0,-1.0,-1.0
1702323936.2257628,-5.0,-6.0,32.0,13.0,10.0,3.0,1.0,-4.0
1702323936.2257628,2.0,-2.0,-33.0,-3.0,-1.0,5.0,0.0,1.0
1702323936.2257628,0.0,-2.0,-1.0,-2.0,0.0,-2.0,2.0,-6.0
1702323936.2257628,4.0,4.0,11.0,-4.0,-8.0,-5.0,1.0,10.0
1702323936.2359877,-1.0,1.0,-5.0,-5.0,-1.0,0.0,-1.0,-2.0
1702323936.2359877,-3.0,-4.0,8.0,2.0,2.0,-1.0,0.0,0.0
1702323936.2359877,2.0,0.0,1.0,2.0,-3.0,-2.0,0.0,0.0
1702323936.2359877,-1.0,-2.0,2.0,-1.0,0.0,0.0,-4.0,-3.0
1702323936.255983,-1.0,-7.0,-9.0,-6.0,-6.0,-4.0,-2.0,-1.0
1702323936.255983,-2.0,-3.0,-2.0,-1.0,1.0,1.0,-2.0,-2.0
1702323936.255983,-1.0,-2.0,-4.0,2.0,4.0,-1.0,-1.0,-1.0
1702323936.255983,0.0,-2.0,8.0,4.0,5.0,7.0,1.0,-3.0
1702323936.2757661,-1.0,3.0,-8.0,-4.0,-6.0,-6.0,-4.0,-5.0
1702323936.2757661,-1.0,4.0,35.0,3.0,-3.0,-4.0,-3.0,3.0
1702323936.295762,-5.0,-10.0,-55.0,-9.0,3.0,2.0,9.0,-2.0
1702323936.295762,2.0,-1.0,3.0,5.0,4.0,4.0,2.0,3.0
1702323936.295762,-2.0,-2.0,-16.0,-6.0,-2.0,-3.0,-5.0,-2.0
1702323936.295762,-1.0,8.0,9.0,-4.0,-3.0,-1.0,-2.0,-6.0
1702323936.295762,-2.0,-1.0,23.0,3.0,-2.0,-1.0,-6.0,-3.0
1702323936.295762,-1.0,-2.0,-5.0,-6.0,-2.0,-1.0,4.0,7.0
1702323936.3314393,0.0,6.0,14.0,3.0,1.0,0.0,-1.0,-11.0
1702323936.3314393,-1.0,-5.0,-15.0,2.0,0.0,-2.0,-2.0,-1.0
1702323936.3314393,2.0,5.0,38.0,4.0,-2.0,-1.0,-1.0,1.0
1702323936.3314393,-9.0,-13.0,-39.0,-7.0,-3.0,0.0,-3.0,-8.0
1702323936.3354433,1.0,3.0,18.0,-2.0,-7.0,-13.0,-1.0,8.0
1702323936.3354433,1.0,-6.0,-28.0,-3.0,-2.0,1.0,1.0,0.0
1702323936.3446121,1.0,1.0,20.0,1.0,2.0,0.0,-3.0,-5.0
1702323936.3446121,-3.0,-4.0,-8.0,0.0,-5.0,-2.0,-2.0,2.0
1702323936.354925,-4.0,-7.0,-9.0,-1.0,1.0,2.0,-3.0,-1.0
1702323936.354925,-1.0,8.0,10.0,1.0,2.0,0.0,-3.0,-1.0
1702323936.354925,0.0,-8.0,-14.0,-5.0,-11.0,-5.0,4.0,5.0
1702323936.354925,1.0,8.0,14.0,-1.0,-1.0,-4.0,-2.0,-1.0
1702323936.3846068,3.0,-2.0,5.0,1.0,0.0,5.0,1.0,1.0
1702323936.3846068,-1.0,3.0,-20.0,1.0,5.0,-1.0,-1.0,3.0
1702323936.3846068,-10.0,-4.0,0.0,1.0,4.0,1.0,-6.0,-9.0
1702323936.3846068,4.0,-2.0,-3.0,-1.0,-2.0,-3.0,-2.0,-6.0
1702323936.4046888,2.0,3.0,7.0,-3.0,-4.0,2.0,3.0,0.0
1702323936.4046888,-3.0,-3.0,15.0,-5.0,-6.0,-8.0,-5.0,-2.0
1702323936.4046888,-3.0,2.0,-4.0,1.0,3.0,0.0,-7.0,3.0
1702323936.4046888,-1.0,-10.0,-19.0,-6.0,-5.0,-4.0,-5.0,-4.0
1702323936.4149036,-4.0,1.0,33.0,3.0,-1.0,-1.0,2.0,1.0
1702323936.4149036,-1.0,-5.0,-34.0,-7.0,-1.0,1.0,6.0,8.0
1702323936.4249284,5.0,4.0,-22.0,-3.0,1.0,-1.0,1.0,7.0
1702323936.4249284,-7.0,-4.0,11.0,1.0,1.0,-2.0,-6.0,-5.0
1702323936.4446063,0.0,8.0,1.0,-1.0,-6.0,-5.0,-11.0,-14.0
1702323936.4446063,-3.0,-17.0,3.0,0.0,1.0,2.0,7.0,6.0
1702323936.4446063,3.0,3.0,0.0,-4.0,-4.0,-1.0,0.0,2.0
1702323936.4446063,0.0,0.0,18.0,4.0,4.0,3.0,-2.0,-3.0
1702323936.464729,-8.0,-4.0,-31.0,-2.0,2.0,1.0,-7.0,-6.0
1702323936.464729,-7.0,0.0,6.0,2.0,-4.0,-10.0,-3.0,-5.0
1702323936.464729,9.0,5.0,17.0,-5.0,-1.0,-2.0,1.0,1.0
1702323936.464729,-5.0,-3.0,-13.0,-2.0,-2.0,-1.0,-1.0,-3.0
1702323936.4750311,6.0,2.0,45.0,3.0,4.0,0.0,-2.0,6.0
1702323936.4750311,-8.0,-4.0,-74.0,-11.0,1.0,0.0,-2.0,-8.0
1702323936.4750311,-3.0,-4.0,1.0,3.0,-1.0,2.0,2.0,0.0
1702323936.4750311,-1.0,4.0,21.0,-2.0,-1.0,-7.0,-2.0,4.0
1702323936.4946074,2.0,-10.0,-31.0,-4.0,-4.0,2.0,12.0,3.0
1702323936.4946074,1.0,7.0,9.0,1.0,-1.0,1.0,-3.0,-5.0
1702323936.4946074,-1.0,1.0,9.0,0.0,0.0,-2.0,-3.0,-2.0
1702323936.4946074,-2.0,-2.0,-12.0,-2.0,2.0,1.0,-1.0,-6.0
1702323936.5246503,-4.0,-1.0,9.0,6.0,4.0,0.0,-3.0,-4.0
1702323936.5246503,9.0,0.0,17.0,4.0,1.0,3.0,3.0,8.0
1702323936.5246503,-6.0,-1.0,-4.0,-4.0,-3.0,-2.0,2.0,1.0
1702323936.5246503,1.0,2.0,2.0,0.0,-3.0,2.0,4.0,7.0
1702323936.5346458,-3.0,-9.0,6.0,-1.0,-5.0,-12.0,-3.0,-1.0
1702323936.5346458,-1.0,3.0,5.0,0.0,-2.0,1.0,-3.0,-8.0
1702323936.5346458,-3.0,-3.0,5.0,0.0,3.0,0.0,-2.0,-2.0
1702323936.5346458,2.0,1.0,-11.0,0.0,3.0,1.0,1.0,-3.0
1702323936.555113,-2.0,6.0,1.0,-2.0,-1.0,1.0,2.0,3.0
1702323936.555113,-3.0,-3.0,7.0,-4.0,-4.0,-1.0,-2.0,-2.0
1702323936.555113,4.0,-2.0,5.0,0.0,-3.0,-2.0,-2.0,-2.0
1702323936.555113,-5.0,-3.0,-17.0,-3.0,-2.0,-4.0,-2.0,-7.0
1702323936.5847182,1.0,-2.0,1.0,-3.0,-1.0,1.0,0.0,0.0
1702323936.5847182,0.0,-3.0,-17.0,3.0,0.0,-4.0,-4.0,1.0
1702323936.5847182,-8.0,-1.0,0.0,-2.0,-5.0,0.0,-1.0,-2.0
1702323936.5847182,1.0,2.0,7.0,-2.0,-4.0,-4.0,0.0,2.0
1702323936.5946567,7.0,2.0,-18.0,-5.0,-2.0,4.0,-1.0,-2.0
1702323936.5946567,-8.0,-6.0,20.0,4.0,1.0,5.0,0.0,-5.0
1702323936.60477,1.0,-2.0,-7.0,-3.0,0.0,-3.0,3.0,3.0
1702323936.60477,-2.0,1.0,4.0,2.0,3.0,6.0,1.0,-7.0
1702323936.615041,-1.0,5.0,-4.0,1.0,-2.0,-10.0,-4.0,-1.0
1702323936.615041,0.0,-11.0,11.0,-4.0,-9.0,-2.0,-1.0,-10.0
1702323936.615041,-5.0,-3.0,-13.0,-1.0,1.0,1.0,-3.0,-5.0
1702323936.615041,0.0,6.0,45.0,1.0,-2.0,-1.0,-1.0,2.0
1702323936.6448753,2.0,-4.0,-25.0,-3.0,-1.0,3.0,2.0,0.0
1702323936.6448753,0.0,0.0,-10.0,0.0,2.0,0.0,-4.0,-2.0
1702323936.6448753,-9.0,-9.0,-39.0,-4.0,-3.0,-6.0,-4.0,-7.0
1702323936.6448753,2.0,1.0,19.0,-4.0,-1.0,-2.0,2.0,1.0
1702323936.6548312,-5.0,-3.0,0.0,2.0,2.0,2.0,-2.0,-1.0
1702323936.6548312,0.0,8.0,1.0,0.0,1.0,-2.0,0.0,4.0
1702323936.6649473,7.0,1.0,18.0,1.0,-4.0,-1.0,-2.0,1.0
1702323936.6649473,-1.0,-1.0,-13.0,-6.0,-9.0,-3.0,-3.0,-3.0
1702323936.6752236,-4.0,-4.0,-16.0,-6.0,0.0,-2.0,1.0,3.0
1702323936.6752236,2.0,3.0,21.0,5.0,6.0,3.0,5.0,2.0
1702323936.6752236,2.0,6.0,-9.0,2.0,1.0,4.0,1.0,0.0
1702323936.6752236,-3.0,-12.0,-10.0,0.0,2.0,-6.0,-3.0,0.0
1702323936.7048895,-1.0,-3.0,27.0,0.0,-4.0,-1.0,-1.0,2.0
1702323936.7048895,0.0,-8.0,-71.0,-14.0,-6.0,-3.0,-2.0,-5.0
1702323936.7048895,3.0,3.0,23.0,3.0,3.0,3.0,-1.0,0.0
1702323936.7048895,-7.0,-5.0,-31.0,-2.0,-3.0,1.0,3.0,1.0
1702323936.7148309,-9.0,-6.0,-12.0,-6.0,-7.0,-4.0,-1.0,0.0
1702323936.7148309,2.0,2.0,24.0,2.0,3.0,-1.0,-2.0,-3.0
1702323936.7249463,1.0,1.0,-6.0,1.0,4.0,1.0,1.0,0.0
1702323936.7249463,4.0,3.0,9.0,0.0,-2.0,-2.0,-2.0,-1.0
1702323936.7348905,3.0,4.0,15.0,0.0,-1.0,-1.0,0.0,1.0
1702323936.7348905,-5.0,-3.0,-18.0,-5.0,-7.0,-2.0,-1.0,-2.0
1702323936.7348905,-4.0,-5.0,-20.0,-1.0,1.0,-3.0,-1.0,-1.0
1702323936.7348905,-2.0,-4.0,-5.0,-2.0,0.0,-1.0,-3.0,0.0
1702323936.7651765,1.0,1.0,-13.0,-2.0,0.0,2.0,-1.0,-3.0
1702323936.7651765,4.0,7.0,34.0,4.0,3.0,-3.0,-2.0,0.0
1702323936.7651765,-4.0,-8.0,20.0,5.0,3.0,5.0,2.0,1.0
1702323936.7651765,-1.0,-5.0,-30.0,-1.0,0.0,-2.0,0.0,0.0
1702323936.7755811,0.0,0.0,-5.0,-2.0,-7.0,-3.0,-3.0,-1.0
1702323936.7755811,-3.0,-1.0,7.0,-5.0,-6.0,-1.0,-3.0,1.0
1702323936.7855859,0.0,3.0,22.0,1.0,2.0,-3.0,-2.0,-2.0
1702323936.7855859,1.0,1.0,-4.0,-1.0,1.0,3.0,1.0,-1.0
1702323936.7955282,-8.0,4.0,13.0,2.0,0.0,-1.0,-1.0,-7.0
1702323936.7955282,3.0,-4.0,-7.0,-2.0,2.0,0.0,2.0,1.0
1702323936.7955282,-2.0,-3.0,-13.0,-5.0,-5.0,-2.0,-3.0,-2.0
1702323936.7955282,3.0,-5.0,8.0,-3.0,-4.0,-2.0,-1.0,0.0
1702323936.8251772,-1.0,-3.0,3.0,0.0,-3.0,0.0,-4.0,1.0
1702323936.8251772,-6.0,2.0,13.0,0.0,8.0,1.0,0.0,-1.0
1702323936.8251772,-3.0,-5.0,-4.0,-2.0,-5.0,-5.0,-4.0,-3.0
1702323936.8251772,1.0,2.0,-9.0,-4.0,-2.0,2.0,-1.0,-1.0
1702323936.835553,2.0,0.0,18.0,6.0,4.0,-1.0,-2.0,-2.0
1702323936.835553,-3.0,-4.0,-16.0,-5.0,-6.0,-1.0,-1.0,-2.0
1702323936.8461921,-1.0,-2.0,-3.0,-2.0,-4.0,-3.0,0.0,0.0
1702323936.8461921,-1.0,9.0,41.0,5.0,0.0,-2.0,-1.0,-3.0
1702323936.8622768,0.0,-6.0,-34.0,-7.0,2.0,0.0,1.0,1.0
1702323936.8622768,-4.0,-3.0,10.0,0.0,-3.0,-4.0,-4.0,-4.0
1702323936.8637526,3.0,4.0,5.0,5.0,3.0,2.0,2.0,6.0
1702323936.8637526,-4.0,-6.0,-2.0,0.0,1.0,1.0,-2.0,-14.0
1702323936.888374,-1.0,-2.0,-8.0,-3.0,0.0,0.0,-1.0,4.0
1702323936.888374,3.0,4.0,9.0,3.0,-1.0,1.0,1.0,0.0
1702323936.888374,-2.0,-4.0,7.0,-4.0,-1.0,-1.0,-2.0,-1.0
1702323936.888374,-4.0,-3.0,-18.0,-4.0,-4.0,-2.0,-2.0,2.0
1702323936.8987415,-2.0,0.0,-7.0,-2.0,-3.0,-2.0,-2.0,-5.0
1702323936.8987415,2.0,1.0,0.0,1.0,0.0,-2.0,1.0,-4.0
1702323936.8987415,0.0,4.0,16.0,-4.0,-5.0,-1.0,-2.0,-2.0
1702323936.8987415,3.0,9.0,4.0,3.0,-2.0,0.0,-1.0,5.0
1702323936.9186592,2.0,-6.0,5.0,3.0,6.0,1.0,0.0,-8.0
1702323936.9186592,-5.0,-10.0,-54.0,-7.0,-3.0,-7.0,3.0,7.0
1702323936.9186592,-1.0,3.0,-3.0,-3.0,-7.0,-6.0,-2.0,-5.0
1702323936.9186592,0.0,-8.0,-7.0,-7.0,-6.0,0.0,-2.0,1.0
1702323936.945208,-5.0,-2.0,-11.0,-4.0,-1.0,1.0,-2.0,2.0
1702323936.945208,1.0,7.0,49.0,5.0,1.0,2.0,-3.0,-1.0
1702323936.945208,0.0,-2.0,-26.0,2.0,7.0,1.0,0.0,-2.0
1702323936.945208,-2.0,-3.0,-30.0,-5.0,-4.0,-6.0,-3.0,1.0
1702323936.955483,2.0,7.0,9.0,-2.0,1.0,1.0,2.0,2.0
1702323936.955483,-2.0,-3.0,14.0,1.0,2.0,2.0,-1.0,-1.0
1702323936.9654849,-3.0,-1.0,20.0,-1.0,-4.0,-3.0,1.0,0.0
1702323936.9654849,-1.0,-4.0,-15.0,2.0,3.0,0.0,-2.0,-3.0
1702323936.9952147,2.0,7.0,4.0,3.0,-3.0,-1.0,-3.0,-2.0
1702323936.9952147,-2.0,-9.0,-1.0,-6.0,-7.0,-2.0,-4.0,-2.0
1702323937.0052078,-8.0,-6.0,-17.0,-6.0,-1.0,0.0,-2.0,2.0
1702323937.0052078,-2.0,-1.0,11.0,1.0,1.0,1.0,0.0,0.0
1702323937.0052078,-5.0,-5.0,0.0,-1.0,1.0,-3.0,-1.0,-11.0
1702323937.0052078,4.0,9.0,-4.0,-1.0,-3.0,-2.0,-1.0,4.0
1702323937.0052078,3.0,-5.0,0.0,2.0,2.0,6.0,2.0,3.0
1702323937.0052078,-6.0,-2.0,16.0,-1.0,0.0,-13.0,-4.0,-7.0
1702323937.0155556,-3.0,2.0,-25.0,-8.0,-3.0,0.0,10.0,7.0
1702323937.0155556,-1.0,2.0,28.0,6.0,2.0,1.0,-4.0,-1.0
1702323937.0254416,-1.0,0.0,0.0,4.0,1.0,2.0,3.0,0.0
1702323937.0254416,2.0,1.0,-29.0,1.0,0.0,2.0,-2.0,0.0
1702323937.0454643,-2.0,-15.0,-42.0,-8.0,-3.0,-2.0,-6.0,-2.0
1702323937.0454643,-1.0,0.0,-2.0,-1.0,-4.0,-2.0,-1.0,-5.0
1702323937.0454643,-2.0,0.0,4.0,-5.0,1.0,-2.0,-1.0,-3.0
1702323937.0454643,10.0,7.0,18.0,5.0,6.0,6.0,3.0,4.0
1702323937.0655339,-7.0,-2.0,10.0,1.0,-4.0,-4.0,-5.0,-2.0
1702323937.0655339,-5.0,-1.0,0.0,-5.0,-4.0,1.0,1.0,-5.0
1702323937.0655339,-2.0,-10.0,-22.0,-5.0,-3.0,-2.0,-4.0,1.0
1702323937.0655339,-3.0,0.0,21.0,6.0,1.0,1.0,1.0,0.0
1702323937.0757933,6.0,6.0,31.0,5.0,-1.0,-1.0,-2.0,1.0
1702323937.0757933,-3.0,-3.0,-13.0,-4.0,-2.0,-4.0,-3.0,-2.0
1702323937.0857508,-3.0,-3.0,-11.0,-5.0,-5.0,-2.0,-1.0,-7.0
1702323937.0857508,1.0,-3.0,5.0,0.0,1.0,-2.0,-3.0,-1.0
1702323937.1154804,3.0,5.0,13.0,7.0,5.0,3.0,3.0,4.0
1702323937.1154804,-4.0,-1.0,7.0,-2.0,-2.0,-1.0,-2.0,-1.0
1702323937.1254785,-1.0,0.0,4.0,-5.0,-8.0,-9.0,-6.0,-9.0
1702323937.1254785,0.0,-8.0,-24.0,-9.0,-7.0,-4.0,-3.0,-2.0
1702323937.1254785,-2.0,-8.0,18.0,-2.0,-9.0,0.0,-3.0,0.0
1702323937.1254785,3.0,3.0,8.0,3.0,7.0,3.0,1.0,-5.0
1702323937.1254785,-5.0,0.0,-17.0,1.0,7.0,4.0,3.0,2.0
1702323937.1254785,-2.0,1.0,37.0,6.0,2.0,3.0,0.0,0.0
1702323937.135537,1.0,2.0,-65.0,-10.0,-8.0,-5.0,-7.0,-4.0
1702323937.135537,2.0,-5.0,-10.0,1.0,3.0,2.0,1.0,0.0
1702323937.1458168,2.0,10.0,17.0,0.0,-2.0,-1.0,-3.0,0.0
1702323937.1458168,-9.0,-6.0,10.0,-1.0,-5.0,-3.0,-1.0,-2.0
1702323937.1557927,3.0,-3.0,-17.0,-5.0,-1.0,-3.0,-2.0,-4.0
1702323937.1557927,0.0,-2.0,13.0,3.0,3.0,2.0,2.0,1.0
1702323937.1557927,2.0,1.0,-12.0,2.0,1.0,-2.0,-1.0,1.0
1702323937.1557927,-4.0,-1.0,40.0,-1.0,-3.0,-1.0,-5.0,-5.0
1702323937.195554,-4.0,-3.0,-29.0,-8.0,-3.0,-5.0,-1.0,1.0
1702323937.195554,-2.0,-3.0,-2.0,-1.0,-2.0,-4.0,0.0,1.0
1702323937.195554,1.0,1.0,-2.0,1.0,0.0,0.0,0.0,-5.0
1702323937.195554,0.0,-1.0,-17.0,-2.0,0.0,0.0,-1.0,4.0
1702323937.195554,-2.0,-2.0,9.0,2.0,5.0,2.0,1.0,-1.0
1702323937.195554,0.0,-3.0,-14.0,-5.0,-3.0,-3.0,-4.0,-4.0
1702323937.215553,-1.0,1.0,21.0,2.0,-1.0,0.0,-3.0,-3.0
1702323937.215553,4.0,2.0,-30.0,-1.0,-1.0,3.0,6.0,8.0
1702323937.215553,0.0,3.0,11.0,3.0,1.0,-1.0,-2.0,-4.0
1702323937.215553,-1.0,0.0,21.0,1.0,1.0,2.0,1.0,0.0
1702323937.215553,-1.0,-2.0,-16.0,2.0,0.0,-1.0,-1.0,-1.0
1702323937.215553,-2.0,-4.0,-4.0,-2.0,1.0,0.0,2.0,-3.0
1702323937.2355592,5.0,4.0,27.0,-1.0,-5.0,0.0,1.0,2.0
1702323937.2355592,-6.0,-2.0,-23.0,-4.0,-7.0,-3.0,-6.0,-2.0
1702323937.245556,2.0,-3.0,4.0,-3.0,-2.0,-12.0,1.0,4.0
1702323937.245556,-8.0,-2.0,-23.0,-6.0,2.0,-1.0,-2.0,-7.0
1702323937.2560177,1.0,0.0,17.0,4.0,1.0,0.0,0.0,-1.0
1702323937.2560177,1.0,1.0,-10.0,-1.0,-2.0,0.0,1.0,0.0
1702323937.275553,0.0,6.0,-9.0,-4.0,0.0,3.0,-4.0,-4.0
1702323937.275553,-1.0,-6.0,-6.0,-2.0,1.0,-3.0,-2.0,1.0
1702323937.275553,-2.0,-4.0,9.0,-3.0,-3.0,-1.0,-1.0,0.0
1702323937.275553,-5.0,-6.0,-12.0,-2.0,-3.0,0.0,-3.0,-1.0
1702323937.275553,-1.0,-8.0,-32.0,-6.0,-6.0,-1.0,-2.0,0.0
1702323937.275553,7.0,9.0,16.0,5.0,6.0,2.0,0.0,0.0
1702323937.3055587,-4.0,-6.0,-4.0,8.0,4.0,0.0,0.0,-2.0
1702323937.3055587,2.0,7.0,16.0,4.0,4.0,0.0,2.0,1.0
1702323937.3055587,-5.0,-8.0,-15.0,-6.0,-4.0,-1.0,-2.0,-1.0
1702323937.3055587,-6.0,-9.0,-7.0,-8.0,-13.0,-5.0,-3.0,-4.0
1702323937.31585,-2.0,1.0,2.0,-6.0,-4.0,-1.0,-4.0,-3.0
1702323937.31585,6.0,9.0,13.0,1.0,2.0,-12.0,4.0,5.0
1702323937.3455558,-2.0,-1.0,5.0,2.0,-1.0,4.0,4.0,-2.0
1702323937.3455558,-2.0,1.0,-6.0,2.0,4.0,2.0,-3.0,-3.0
1702323937.3555558,-3.0,0.0,-4.0,-2.0,1.0,2.0,0.0,12.0
1702323937.3555558,-4.0,-12.0,3.0,-1.0,-4.0,-1.0,0.0,-7.0
1702323937.3555558,0.0,1.0,-3.0,-5.0,-3.0,-2.0,-3.0,-2.0
1702323937.3555558,3.0,7.0,33.0,5.0,-2.0,-2.0,-1.0,7.0
1702323937.3555558,0.0,-1.0,-8.0,2.0,0.0,-2.0,-1.0,-5.0
1702323937.3555558,-2.0,-2.0,-13.0,-5.0,-7.0,0.0,-3.0,0.0
1702323937.3655562,2.0,4.0,25.0,4.0,5.0,-3.0,-2.0,-1.0
1702323937.3655562,-3.0,3.0,0.0,-2.0,-2.0,0.0,-1.0,-4.0
1702323937.3871295,0.0,1.0,4.0,0.0,1.0,-1.0,0.0,-2.0
1702323937.3871295,-5.0,-18.0,-19.0,-4.0,-1.0,1.0,-3.0,-2.0
1702323937.3881302,-2.0,1.0,20.0,5.0,1.0,0.0,-2.0,2.0
1702323937.3881302,4.0,3.0,14.0,-5.0,-12.0,-8.0,2.0,-3.0
1702323937.4022443,-7.0,-12.0,-70.0,-10.0,0.0,1.0,1.0,-1.0
1702323937.4022443,3.0,8.0,7.0,2.0,2.0,1.0,-1.0,0.0
1702323937.4038002,-5.0,-1.0,25.0,0.0,-2.0,-1.0,-6.0,-2.0
1702323937.4038002,-3.0,3.0,-28.0,-5.0,-3.0,-2.0,-4.0,-8.0
1702323937.4200356,3.0,-5.0,19.0,-1.0,-2.0,-3.0,0.0,0.0
1702323937.4200356,0.0,4.0,4.0,4.0,0.0,2.0,1.0,-2.0
1702323937.4200356,-4.0,-6.0,-12.0,-3.0,1.0,0.0,-1.0,-1.0
1702323937.4200356,0.0,0.0,1.0,-1.0,0.0,0.0,1.0,1.0
1702323937.439664,-4.0,-2.0,9.0,0.0,-4.0,-2.0,-1.0,-5.0
1702323937.439664,2.0,7.0,-18.0,-6.0,-6.0,-3.0,-1.0,3.0
1702323937.439664,-1.0,-15.0,23.0,0.0,-4.0,-6.0,-2.0,-7.0
1702323937.439664,0.0,-3.0,-32.0,-2.0,3.0,2.0,0.0,2.0
1702323937.459672,-2.0,0.0,-19.0,-6.0,-5.0,-4.0,-3.0,-2.0
1702323937.459672,-1.0,3.0,23.0,6.0,5.0,-1.0,-2.0,2.0
1702323937.459672,2.0,-5.0,-41.0,-2.0,1.0,4.0,3.0,1.0
1702323937.459672,-2.0,-2.0,23.0,1.0,-1.0,-9.0,-4.0,-2.0
1702323937.479928,1.0,-2.0,3.0,-2.0,-1.0,1.0,-1.0,-1.0
1702323937.479928,-1.0,4.0,3.0,-2.0,-7.0,-1.0,-4.0,-9.0
1702323937.479928,-6.0,4.0,-7.0,-6.0,-5.0,-3.0,0.0,-2.0
1702323937.479928,2.0,1.0,23.0,7.0,11.0,5.0,-1.0,1.0
1702323937.5196636,6.0,2.0,-34.0,0.0,6.0,6.0,0.0,2.0
1702323937.5196636,-4.0,-2.0,21.0,3.0,-8.0,-4.0,-1.0,0.0
1702323937.5196636,-3.0,-4.0,-28.0,-3.0,2.0,3.0,2.0,0.0
1702323937.5196636,1.0,2.0,-2.0,-2.0,-2.0,0.0,-1.0,1.0
1702323937.5196636,-3.0,-1.0,26.0,2.0,-2.0,-3.0,-1.0,-3.0
1702323937.5196636,1.0,-1.0,-4.0,-7.0,-2.0,2.0,1.0,0.0
1702323937.5196636,0.0,0.0,1.0,-5.0,-9.0,-5.0,-2.0,-1.0
1702323937.5196636,-3.0,-2.0,-10.0,-3.0,-3.0,-2.0,1.0,-1.0
1702323937.5396786,2.0,14.0,37.0,15.0,10.0,7.0,5.0,2.0
1702323937.5396786,-2.0,-13.0,-18.0,0.0,1.0,-7.0,2.0,1.0
1702323937.5596664,-2.0,-1.0,-6.0,-5.0,-2.0,-4.0,-5.0,-2.0
1702323937.5596664,-3.0,-3.0,-37.0,-11.0,-11.0,-2.0,6.0,9.0
1702323937.5596664,4.0,1.0,50.0,1.0,-2.0,-1.0,0.0,1.0
1702323937.5596664,-8.0,0.0,-49.0,-6.0,2.0,2.0,-1.0,0.0
1702323937.5596664,6.0,8.0,20.0,2.0,0.0,4.0,0.0,2.0
1702323937.5596664,-3.0,-8.0,8.0,1.0,-2.0,-2.0,-3.0,-7.0
1702323937.5800579,0.0,1.0,-11.0,0.0,-5.0,-3.0,-2.0,-1.0
1702323937.5800579,0.0,3.0,9.0,-3.0,-1.0,-2.0,-5.0,1.0
1702323937.5800579,-1.0,-3.0,-6.0,-1.0,0.0,-1.0,-2.0,1.0
1702323937.5800579,0.0,0.0,-6.0,2.0,4.0,5.0,0.0,-3.0
1702323937.5996666,-2.0,4.0,5.0,3.0,2.0,2.0,1.0,0.0
1702323937.5996666,1.0,4.0,6.0,5.0,3.0,3.0,1.0,-3.0
1702323937.5996666,3.0,15.0,42.0,2.0,-2.0,-1.0,0.0,2.0
1702323937.5996666,-7.0,-21.0,-73.0,-17.0,-7.0,1.0,-5.0,3.0
1702323937.620053,-5.0,-7.0,-6.0,-8.0,-12.0,-9.0,-3.0,-1.0
1702323937.620053,-1.0,-3.0,-2.0,-5.0,2.0,0.0,-4.0,-6.0
1702323937.620053,1.0,7.0,20.0,3.0,-1.0,-1.0,2.0,8.0
1702323937.620053,5.0,6.0,19.0,3.0,4.0,3.0,1.0,-1.0
1702323937.6396658,-7.0,-3.0,-7.0,0.0,1.0,-1.0,-1.0,-3.0
1702323937.6396658,-2.0,-3.0,-10.0,-4.0,-4.0,0.0,-1.0,1.0
1702323937.6396658,1.0,-2.0,4.0,1.0,-1.0,-1.0,-1.0,-4.0
1702323937.6396658,-4.0,-2.0,16.0,1.0,4.0,-3.0,-3.0,-5.0
1702323937.6700187,0.0,-1.0,-4.0,1.0,-1.0,0.0,-2.0,0.0
1702323937.6700187,3.0,9.0,8.0,6.0,8.0,3.0,4.0,-3.0
1702323937.6700187,-3.0,-10.0,-10.0,0.0,0.0,1.0,0.0,-3.0
1702323937.6700187,-1.0,-6.0,-13.0,-5.0,-6.0,-5.0,-3.0,-3.0
1702323937.689664,-4.0,-2.0,-10.0,-9.0,-10.0,-7.0,-4.0,-4.0
1702323937.689664,-2.0,-4.0,23.0,-1.0,3.0,-1.0,-1.0,0.0
1702323937.689664,1.0,2.0,-33.0,-2.0,-1.0,-2.0,-2.0,-2.0
1702323937.689664,-2.0,4.0,14.0,0.0,-2.0,2.0,1.0,0.0
1702323937.699666,4.0,-1.0,2.0,-1.0,0.0,2.0,-1.0,-3.0
1702323937.699666,-2.0,-2.0,-6.0,-8.0,-9.0,-13.0,-2.0,0.0
1702323937.7096658,-2.0,-2.0,11.0,1.0,1.0,-2.0,-3.0,-1.0
1702323937.7096658,-1.0,0.0,-15.0,2.0,2.0,0.0,-1.0,-2.0
1702323937.719664,-4.0,0.0,-17.0,-2.0,0.0,0.0,-4.0,-9.0
1702323937.719664,-1.0,-4.0,-5.0,0.0,1.0,1.0,0.0,6.0
1702323937.719664,0.0,-3.0,-1.0,-2.0,-1.0,1.0,4.0,-2.0
1702323937.719664,4.0,5.0,24.0,3.0,-5.0,-4.0,-4.0,1.0
1702323937.7400117,-5.0,1.0,-17.0,-6.0,0.0,2.0,-2.0,-1.0
1702323937.7400117,-2.0,-16.0,-16.0,-3.0,-1.0,-2.0,-3.0,0.0
1702323937.7400117,-1.0,-1.0,5.0,3.0,0.0,-1.0,-3.0,-3.0
1702323937.7400117,-1.0,2.0,18.0,5.0,3.0,4.0,3.0,5.0
1702323937.7596705,-3.0,-3.0,-21.0,-3.0,0.0,-5.0,-1.0,-3.0
1702323937.7596705,0.0,5.0,17.0,1.0,-1.0,1.0,-1.0,-2.0
1702323937.7596705,2.0,-4.0,-9.0,-6.0,-5.0,-3.0,0.0,1.0
1702323937.7596705,-5.0,-1.0,-10.0,-2.0,-4.0,-2.0,-2.0,-5.0
1702323937.799665,-4.0,-3.0,28.0,4.0,-2.0,-1.0,0.0,-1.0
1702323937.799665,1.0,-2.0,-33.0,-5.0,-1.0,3.0,-1.0,1.0
1702323937.799665,-2.0,2.0,27.0,4.0,2.0,0.0,-1.0,-1.0
1702323937.799665,-3.0,-9.0,-24.0,-1.0,0.0,-3.0,-3.0,-7.0
1702323937.799665,2.0,-1.0,14.0,2.0,-1.0,-6.0,-1.0,6.0
1702323937.799665,-2.0,0.0,0.0,-3.0,-5.0,2.0,-1.0,-2.0
1702323937.799665,1.0,2.0,-1.0,1.0,2.0,3.0,2.0,2.0
1702323937.799665,1.0,9.0,15.0,-1.0,-3.0,-3.0,-1.0,0.0
1702323937.819906,-2.0,-10.0,-1.0,-2.0,1.0,0.0,0.0,-3.0
1702323937.819906,2.0,-4.0,5.0,3.0,4.0,0.0,-2.0,0.0
1702323937.829664,-2.0,-2.0,-42.0,-2.0,-7.0,-3.0,-3.0,-7.0
1702323937.829664,-5.0,-5.0,-24.0,-7.0,-5.0,-4.0,-2.0,-1.0
1702323937.8400636,0.0,1.0,7.0,-4.0,-3.0,-1.0,-1.0,-6.0
1702323937.8400636,-1.0,5.0,35.0,4.0,-5.0,-3.0,-3.0,0.0
1702323937.8400636,-6.0,-2.0,-21.0,-5.0,-6.0,-2.0,-1.0,-9.0
1702323937.8400636,1.0,-3.0,8.0,3.0,7.0,8.0,2.0,0.0
1702323937.8599222,2.0,2.0,-3.0,3.0,4.0,-9.0,-3.0,2.0
1702323937.8599222,-2.0,-1.0,5.0,1.0,-2.0,0.0,-2.0,-1.0
1702323937.8599222,-3.0,-2.0,0.0,-3.0,-5.0,-2.0,-4.0,-1.0
1702323937.8599222,2.0,9.0,10.0,2.0,4.0,0.0,1.0,1.0
1702323937.8798084,5.0,-3.0,9.0,0.0,-1.0,5.0,1.0,3.0
1702323937.8798084,-5.0,4.0,11.0,4.0,2.0,-2.0,-1.0,-3.0
1702323937.8896706,-4.0,-7.0,-2.0,-4.0,-5.0,-4.0,-2.0,-2.0
1702323937.8896706,0.0,-6.0,-47.0,-5.0,-5.0,-1.0,1.0,-2.0
1702323937.9041653,-1.0,1.0,3.0,-1.0,4.0,-1.0,-3.0,-4.0
1702323937.9041653,1.0,2.0,-19.0,-4.0,-2.0,-1.0,-4.0,-1.0
1702323937.9061239,-2.0,-4.0,5.0,-3.0,-1.0,-2.0,-3.0,2.0
1702323937.9061239,-3.0,-1.0,21.0,-1.0,-3.0,-4.0,-1.0,-1.0
1702323937.9259956,0.0,2.0,-9.0,-3.0,-6.0,-1.0,-1.0,0.0
1702323937.9259956,0.0,-1.0,-3.0,1.0,-5.0,2.0,1.0,2.0
1702323937.9259956,1.0,1.0,6.0,6.0,10.0,3.0,3.0,2.0
1702323937.9259956,0.0,2.0,31.0,3.0,-5.0,-3.0,0.0,-2.0
1702323937.9360397,-2.0,0.0,-30.0,-1.0,1.0,2.0,0.0,2.0
1702323937.9360397,-1.0,2.0,45.0,1.0,-2.0,-11.0,-3.0,-5.0
1702323937.9459958,1.0,-1.0,-52.0,-5.0,-3.0,1.0,1.0,3.0
1702323937.9459958,-2.0,-4.0,2.0,-4.0,-2.0,-1.0,-3.0,1.0
1702323937.9561598,-1.0,0.0,7.0,1.0,-3.0,0.0,1.0,-3.0
1702323937.9561598,-8.0,-2.0,6.0,-1.0,0.0,1.0,-2.0,-3.0
1702323937.9660015,3.0,1.0,4.0,0.0,0.0,-2.0,-1.0,0.0
1702323937.9660015,-3.0,-2.0,6.0,0.0,-1.0,-3.0,-3.0,-5.0
1702323937.9862688,0.0,0.0,2.0,-3.0,-5.0,-1.0,-2.0,6.0
1702323937.9862688,0.0,2.0,-24.0,-3.0,0.0,-1.0,0.0,0.0
1702323937.9862688,-4.0,6.0,23.0,4.0,-1.0,-3.0,-4.0,-1.0
1702323937.9862688,-1.0,0.0,-4.0,-4.0,2.0,2.0,0.0,-1.0
1702323937.9960642,0.0,-5.0,-2.0,3.0,4.0,2.0,3.0,0.0
1702323937.9960642,-3.0,-4.0,-4.0,1.0,-2.0,0.0,1.0,-2.0
1702323938.025995,-2.0,-4.0,-9.0,-6.0,-6.0,-2.0,0.0,0.0
1702323938.025995,0.0,-2.0,1.0,-3.0,-5.0,-1.0,-3.0,-2.0
1702323938.025995,-1.0,9.0,9.0,1.0,0.0,-1.0,2.0,-1.0
1702323938.025995,0.0,-18.0,-31.0,-5.0,1.0,2.0,-1.0,-1.0
1702323938.025995,-1.0,1.0,13.0,4.0,2.0,-1.0,-2.0,-2.0
1702323938.025995,-1.0,-4.0,-12.0,-3.0,-5.0,0.0,-1.0,-5.0
1702323938.0560033,-2.0,3.0,8.0,0.0,4.0,-1.0,-4.0,-1.0
1702323938.0560033,1.0,6.0,3.0,1.0,0.0,4.0,1.0,2.0
1702323938.0560033,1.0,5.0,16.0,6.0,4.0,1.0,-1.0,1.0
1702323938.0560033,-1.0,-1.0,5.0,2.0,2.0,-1.0,-2.0,-3.0
1702323938.066033,-2.0,-2.0,-24.0,-5.0,-6.0,-2.0,-1.0,-3.0
1702323938.066033,-1.0,-6.0,-13.0,-9.0,-8.0,-7.0,-5.0,-1.0
1702323938.066033,-2.0,3.0,13.0,-4.0,-2.0,-2.0,-2.0,-2.0
1702323938.066033,-1.0,-7.0,-17.0,2.0,4.0,0.0,0.0,5.0
1702323938.0760033,3.0,-1.0,15.0,1.0,2.0,1.0,1.0,-7.0
1702323938.0760033,0.0,3.0,-5.0,-3.0,-5.0,-1.0,0.0,5.0
1702323938.086,-6.0,2.0,-3.0,2.0,-1.0,0.0,0.0,-3.0
1702323938.086,2.0,1.0,21.0,6.0,7.0,1.0,1.0,0.0
1702323938.115997,-1.0,-1.0,-1.0,-1.0,-2.0,1.0,1.0,3.0
1702323938.115997,2.0,-1.0,-6.0,-5.0,-4.0,-5.0,-5.0,-4.0
1702323938.1259944,-2.0,-7.0,2.0,-4.0,-3.0,-4.0,-3.0,-1.0
1702323938.1259944,-3.0,2.0,-12.0,-3.0,-2.0,-2.0,-2.0,-1.0
1702323938.1259944,-1.0,0.0,5.0,3.0,1.0,-3.0,-4.0,-2.0
1702323938.1259944,-1.0,5.0,-6.0,0.0,-2.0,1.0,1.0,-1.0
1702323938.1259944,-1.0,-5.0,6.0,-3.0,-4.0,-1.0,-1.0,-2.0
1702323938.1259944,-1.0,-3.0,4.0,1.0,1.0,0.0,1.0,-1.0
1702323938.1363504,-3.0,-7.0,-6.0,-3.0,3.0,3.0,-1.0,-1.0
1702323938.1363504,-1.0,1.0,3.0,0.0,-2.0,-4.0,-1.0,-1.0
1702323938.1460042,-3.0,0.0,-15.0,-4.0,-4.0,-1.0,1.0,-3.0
1702323938.1460042,-2.0,-5.0,-12.0,-3.0,-6.0,-1.0,0.0,1.0
1702323938.1759956,-1.0,3.0,13.0,-3.0,-4.0,-3.0,-1.0,0.0
1702323938.1759956,-2.0,-4.0,-12.0,0.0,6.0,3.0,1.0,-2.0
1702323938.1759956,0.0,-3.0,6.0,1.0,-1.0,-2.0,-4.0,-2.0
1702323938.1759956,0.0,2.0,1.0,1.0,0.0,-5.0,-3.0,-5.0
1702323938.1759956,-3.0,-1.0,5.0,-2.0,-2.0,4.0,3.0,2.0
1702323938.1759956,1.0,-1.0,2.0,1.0,-1.0,-1.0,0.0,1.0
1702323938.186343,0.0,-3.0,-6.0,-3.0,-4.0,0.0,1.0,-1.0
1702323938.186343,-1.0,1.0,3.0,-4.0,-3.0,-5.0,-2.0,1.0
1702323938.1963253,0.0,-6.0,-10.0,-2.0,-5.0,-1.0,-6.0,-1.0
1702323938.1963253,-3.0,5.0,5.0,4.0,3.0,3.0,1.0,-7.0
1702323938.2059963,-4.0,-4.0,14.0,6.0,4.0,1.0,1.0,3.0
1702323938.2059963,3.0,7.0,0.0,-1.0,0.0,1.0,-1.0,-1.0
1702323938.2261498,-4.0,-4.0,2.0,0.0,-3.0,-6.0,-3.0,-3.0
1702323938.2261498,0.0,-6.0,-31.0,-7.0,-7.0,-1.0,1.0,0.0
1702323938.2261498,0.0,4.0,2.0,-1.0,-3.0,-1.0,1.0,-1.0
1702323938.2261498,-3.0,2.0,9.0,1.0,-1.0,0.0,-1.0,0.0
1702323938.2362473,-1.0,-2.0,-4.0,-2.0,7.0,1.0,1.0,0.0
1702323938.2362473,-2.0,-2.0,7.0,3.0,0.0,-1.0,-4.0,-1.0
1702323938.2462163,1.0,3.0,-4.0,-1.0,-1.0,-1.0,-1.0,1.0
1702323938.2462163,-1.0,4.0,4.0,-2.0,-3.0,-1.0,0.0,-3.0
1702323938.2562256,-2.0,-16.0,-17.0,-8.0,-14.0,-5.0,-4.0,-1.0
1702323938.2562256,-3.0,2.0,18.0,2.0,9.0,-5.0,-4.0,-1.0
1702323938.2660017,-2.0,-3.0,-3.0,-1.0,-1.0,-1.0,6.0,10.0
1702323938.2660017,-3.0,-2.0,-24.0,-2.0,-2.0,0.0,-1.0,5.0
1702323938.295998,-1.0,1.0,-23.0,-6.0,-3.0,-2.0,1.0,-1.0
1702323938.295998,-1.0,-1.0,6.0,0.0,-2.0,-1.0,-3.0,-3.0
1702323938.295998,1.0,1.0,-3.0,-2.0,2.0,3.0,-2.0,-2.0
1702323938.295998,2.0,1.0,17.0,5.0,0.0,-2.0,-3.0,-1.0
1702323938.295998,-5.0,4.0,10.0,4.0,-2.0,1.0,1.0,-2.0
1702323938.295998,-5.0,-8.0,-11.0,-7.0,-4.0,-2.0,-5.0,-3.0
1702323938.3063085,1.0,4.0,0.0,-2.0,3.0,-1.0,0.0,0.0
1702323938.3063085,-2.0,-1.0,4.0,2.0,2.0,2.0,1.0,3.0
1702323938.3163466,3.0,1.0,0.0,2.0,2.0,-1.0,-4.0,1.0
1702323938.3163466,-3.0,3.0,4.0,0.0,-2.0,-2.0,-1.0,-12.0
1702323938.3259976,-3.0,-12.0,-9.0,-6.0,-8.0,-5.0,-3.0,-5.0
1702323938.3259976,0.0,0.0,4.0,-2.0,0.0,-1.0,-1.0,-1.0
1702323938.346024,0.0,3.0,14.0,1.0,1.0,0.0,1.0,1.0
1702323938.346024,0.0,0.0,-26.0,-4.0,-4.0,4.0,-1.0,-1.0
1702323938.346024,4.0,-2.0,-6.0,3.0,5.0,1.0,0.0,-1.0
1702323938.346024,-6.0,-2.0,6.0,-3.0,-1.0,-3.0,-1.0,-4.0
1702323938.3663623,-1.0,-1.0,-4.0,-3.0,-2.0,-3.0,0.0,1.0
1702323938.3663623,-2.0,-5.0,-10.0,-4.0,-3.0,0.0,-1.0,-5.0
1702323938.3663623,-1.0,0.0,-6.0,-2.0,-4.0,-2.0,-2.0,7.0
1702323938.3663623,1.0,7.0,-5.0,0.0,-1.0,1.0,0.0,-1.0
1702323938.3759978,-1.0,0.0,17.0,4.0,3.0,0.0,1.0,-3.0
1702323938.3759978,-2.0,0.0,19.0,3.0,-3.0,-2.0,1.0,3.0
1702323938.3759978,-1.0,-3.0,-17.0,-7.0,-1.0,-4.0,-4.0,-5.0
1702323938.3759978,-1.0,-3.0,0.0,-1.0,-5.0,-1.0,0.0,0.0
1702323938.4061484,-1.0,4.0,-1.0,2.0,5.0,1.0,0.0,1.0
1702323938.4061484,1.0,1.0,11.0,2.0,1.0,1.0,3.0,0.0
1702323938.4061484,-1.0,-8.0,-20.0,-5.0,-6.0,-2.0,-1.0,-5.0
1702323938.4061484,-8.0,-3.0,5.0,-4.0,-1.0,-7.0,-5.0,-2.0
1702323938.4289138,3.0,-2.0,-11.0,1.0,1.0,-2.0,-1.0,0.0
1702323938.4289138,2.0,-1.0,3.0,1.0,1.0,-1.0,2.0,3.0
1702323938.4299119,0.0,6.0,13.0,-2.0,-2.0,1.0,4.0,1.0
1702323938.4299119,0.0,3.0,1.0,-3.0,-6.0,-2.0,-8.0,3.0
1702323938.4439905,-6.0,-17.0,-36.0,-13.0,-7.0,-4.0,-6.0,-26.0
1702323938.4439905,2.0,-2.0,4.0,-2.0,0.0,-2.0,8.0,6.0
1702323938.4439905,-1.0,1.0,6.0,7.0,4.0,3.0,1.0,-1.0
1702323938.4439905,0.0,-6.0,-6.0,-2.0,1.0,0.0,0.0,-9.0
1702323938.460368,0.0,6.0,8.0,1.0,0.0,1.0,-3.0,6.0
1702323938.460368,1.0,0.0,-2.0,-2.0,-6.0,-2.0,-1.0,3.0
1702323938.460368,-2.0,-2.0,2.0,1.0,4.0,-1.0,-4.0,-8.0
1702323938.460368,0.0,-3.0,3.0,3.0,-1.0,-1.0,0.0,-1.0
1702323938.4807546,1.0,2.0,25.0,1.0,-1.0,-1.0,1.0,0.0
1702323938.4807546,2.0,-3.0,-30.0,-3.0,2.0,0.0,0.0,0.0
1702323938.4807546,0.0,-2.0,0.0,1.0,-1.0,-2.0,-2.0,-1.0
1702323938.4807546,1.0,2.0,1.0,-2.0,-4.0,-1.0,2.0,1.0
1702323938.5003724,-1.0,1.0,-1.0,-3.0,0.0,-4.0,-1.0,3.0
1702323938.5003724,3.0,5.0,18.0,1.0,-2.0,-1.0,-5.0,-2.0
1702323938.5003724,-5.0,-15.0,-25.0,-9.0,-5.0,-5.0,-5.0,-4.0
1702323938.5003724,-4.0,0.0,-3.0,0.0,1.0,3.0,2.0,-1.0
1702323938.520599,0.0,2.0,-3.0,-1.0,-1.0,2.0,2.0,1.0
1702323938.520599,-5.0,-3.0,3.0,5.0,9.0,0.0,0.0,4.0
1702323938.520599,2.0,8.0,4.0,2.0,-1.0,1.0,1.0,-8.0
1702323938.520599,-1.0,-6.0,14.0,-3.0,-5.0,-1.0,1.0,0.0
1702323938.5407157,-2.0,2.0,-19.0,-5.0,-6.0,-2.0,-1.0,3.0
1702323938.5407157,0.0,-1.0,2.0,-4.0,-5.0,-3.0,-6.0,-3.0
1702323938.5503755,2.0,0.0,-3.0,1.0,4.0,1.0,8.0,10.0
1702323938.5503755,-5.0,-5.0,-6.0,1.0,3.0,1.0,-2.0,-2.0
1702323938.5803697,0.0,3.0,17.0,6.0,1.0,3.0,0.0,1.0
1702323938.5803697,4.0,1.0,-3.0,-2.0,-3.0,-3.0,-1.0,1.0
1702323938.5803697,-4.0,-3.0,-4.0,-3.0,-7.0,-10.0,-4.0,-8.0
1702323938.5803697,-3.0,-2.0,-6.0,-4.0,-6.0,-1.0,-4.0,5.0
1702323938.5803697,-3.0,-9.0,-16.0,-4.0,1.0,-2.0,0.0,-1.0
1702323938.5803697,0.0,0.0,13.0,3.0,0.0,-1.0,-1.0,0.0
1702323938.5803697,0.0,7.0,5.0,-2.0,2.0,1.0,-1.0,-2.0
1702323938.5803697,7.0,0.0,-6.0,-2.0,-4.0,-4.0,-1.0,-3.0
1702323938.6006827,-12.0,-4.0,2.0,0.0,-4.0,-5.0,-1.0,-4.0
1702323938.6006827,0.0,-1.0,-6.0,-3.0,-5.0,3.0,1.0,9.0
1702323938.6006827,1.0,6.0,21.0,2.0,2.0,-2.0,-3.0,-2.0
1702323938.6006827,-1.0,-6.0,-22.0,-2.0,2.0,0.0,0.0,-2.0
1702323938.6303706,4.0,6.0,17.0,4.0,0.0,1.0,-4.0,3.0
1702323938.6303706,-4.0,-5.0,-17.0,-1.0,-1.0,-1.0,0.0,-11.0
1702323938.6303706,-3.0,-1.0,-2.0,-4.0,-4.0,-2.0,-5.0,-4.0
1702323938.6303706,5.0,3.0,19.0,4.0,4.0,2.0,4.0,6.0
1702323938.640409,-3.0,-4.0,-11.0,1.0,1.0,1.0,0.0,0.0
1702323938.640409,-5.0,0.0,10.0,2.0,2.0,-2.0,-4.0,-3.0
1702323938.640409,1.0,-1.0,-6.0,0.0,0.0,5.0,0.0,-1.0
1702323938.640409,-3.0,-1.0,-7.0,-6.0,-5.0,-7.0,-1.0,-3.0
1702323938.6703036,2.0,0.0,6.0,0.0,-2.0,-1.0,1.0,-2.0
1702323938.6703036,0.0,-3.0,-2.0,2.0,0.0,-2.0,-3.0,-3.0
1702323938.6703036,-7.0,-2.0,-2.0,2.0,3.0,2.0,-1.0,-4.0
1702323938.6703036,1.0,-1.0,9.0,1.0,-3.0,0.0,-4.0,1.0
1702323938.6803508,-3.0,0.0,-20.0,-7.0,0.0,-1.0,-1.0,-4.0
1702323938.6803508,-1.0,-2.0,-3.0,-2.0,1.0,1.0,2.0,4.0
1702323938.6905968,-1.0,-3.0,3.0,3.0,-4.0,-7.0,-5.0,0.0
1702323938.6905968,-1.0,-3.0,8.0,0.0,-2.0,0.0,0.0,-4.0
1702323938.7006242,3.0,-2.0,-3.0,-1.0,0.0,-2.0,-1.0,0.0
1702323938.7006242,-1.0,0.0,1.0,2.0,4.0,1.0,1.0,-3.0
1702323938.7006242,-2.0,0.0,-2.0,-2.0,-1.0,-2.0,0.0,2.0
1702323938.7006242,-4.0,5.0,4.0,0.0,-1.0,2.0,-1.0,-1.0
1702323938.740303,0.0,-11.0,8.0,0.0,-7.0,1.0,-2.0,-1.0
1702323938.740303,-4.0,-8.0,-24.0,-4.0,-3.0,-11.0,-5.0,-3.0
1702323938.740303,2.0,0.0,6.0,-2.0,-6.0,-3.0,-1.0,2.0
1702323938.740303,1.0,-3.0,-13.0,-4.0,0.0,-1.0,0.0,-3.0
1702323938.740303,-4.0,9.0,36.0,6.0,4.0,2.0,0.0,-2.0
1702323938.740303,3.0,-1.0,-34.0,-4.0,0.0,4.0,0.0,-1.0
1702323938.7503371,1.0,-4.0,4.0,4.0,0.0,-1.0,-2.0,-8.0
1702323938.7503371,-3.0,0.0,-19.0,-4.0,2.0,-4.0,-3.0,-7.0
1702323938.7605724,0.0,0.0,-6.0,-3.0,-4.0,-1.0,0.0,5.0
1702323938.7605724,-3.0,-2.0,13.0,-3.0,-1.0,-1.0,-1.0,-6.0
1702323938.7605724,1.0,0.0,-2.0,1.0,4.0,0.0,1.0,0.0
1702323938.7605724,0.0,-3.0,-5.0,-1.0,0.0,0.0,0.0,3.0
1702323938.7803376,0.0,2.0,4.0,0.0,-1.0,-3.0,0.0,-3.0
1702323938.7803376,-4.0,2.0,8.0,-1.0,-2.0,-2.0,-2.0,0.0
1702323938.7903092,-3.0,-5.0,-7.0,-4.0,-4.0,-1.0,0.0,1.0
1702323938.7903092,1.0,3.0,8.0,4.0,0.0,2.0,0.0,-1.0
1702323938.800571,-4.0,1.0,-10.0,-1.0,6.0,-1.0,-2.0,0.0
1702323938.800571,0.0,-2.0,37.0,3.0,-3.0,1.0,-1.0,1.0
1702323938.8103197,-2.0,-5.0,-68.0,-10.0,-2.0,5.0,2.0,-1.0
1702323938.8103197,-5.0,-7.0,-2.0,-1.0,-2.0,-9.0,-2.0,-2.0
1702323938.820309,1.0,1.0,-4.0,-3.0,-3.0,0.0,1.0,0.0
1702323938.820309,-2.0,4.0,14.0,-1.0,-2.0,0.0,-3.0,-3.0
1702323938.820309,7.0,2.0,-2.0,-2.0,1.0,0.0,-2.0,3.0
1702323938.820309,-10.0,-1.0,-2.0,0.0,-3.0,2.0,0.0,-1.0
1702323938.860304,0.0,-1.0,-8.0,0.0,2.0,-4.0,-2.0,-3.0
1702323938.860304,-6.0,-2.0,3.0,-3.0,-3.0,0.0,2.0,-4.0
1702323938.860304,-5.0,-2.0,15.0,2.0,-1.0,-2.0,-1.0,1.0
1702323938.860304,4.0,-5.0,-8.0,0.0,0.0,-2.0,0.0,-2.0
1702323938.860304,-2.0,-3.0,11.0,-2.0,-3.0,-2.0,0.0,-1.0
1702323938.860304,0.0,-3.0,-29.0,-3.0,4.0,1.0,1.0,1.0
1702323938.870338,0.0,1.0,10.0,2.0,-2.0,-1.0,-1.0,1.0
1702323938.870338,1.0,7.0,8.0,-2.0,-2.0,1.0,-2.0,-1.0
1702323938.8803556,-3.0,-11.0,21.0,-1.0,-4.0,-3.0,-1.0,-4.0
1702323938.8803556,3.0,-3.0,-44.0,-5.0,-2.0,-1.0,1.0,1.0
1702323938.8803556,-4.0,-3.0,6.0,3.0,1.0,4.0,-3.0,-4.0
1702323938.8803556,1.0,-1.0,-2.0,-2.0,-1.0,-6.0,4.0,1.0
1702323938.9003043,-5.0,1.0,-1.0,-4.0,-6.0,0.0,0.0,-3.0
1702323938.9003043,1.0,4.0,28.0,7.0,2.0,1.0,-1.0,3.0
1702323938.9003043,-1.0,-5.0,-13.0,-1.0,3.0,1.0,-3.0,1.0
1702323938.9003043,-1.0,0.0,9.0,2.0,-1.0,4.0,-1.0,0.0
1702323938.9206796,2.0,-1.0,-10.0,0.0,0.0,-4.0,-5.0,-2.0
1702323938.9206796,-2.0,0.0,7.0,3.0,-2.0,-5.0,0.0,-3.0
1702323938.9307027,-2.0,2.0,9.0,-3.0,-7.0,-2.0,1.0,-1.0
1702323938.9307027,3.0,-4.0,-1.0,2.0,2.0,0.0,-2.0,0.0
1702323938.9546025,3.0,4.0,-8.0,-8.0,-6.0,-3.0,-1.0,-1.0
1702323938.9546025,-6.0,-8.0,4.0,-5.0,-3.0,1.0,-1.0,-1.0
1702323938.9546025,-1.0,3.0,24.0,5.0,2.0,-4.0,0.0,-1.0
1702323938.9546025,0.0,-2.0,-24.0,-5.0,-2.0,1.0,-2.0,0.0
1702323938.967989,2.0,5.0,-7.0,3.0,1.0,-1.0,-2.0,-2.0
1702323938.9689667,-1.0,3.0,1.0,-2.0,3.0,-1.0,-2.0,2.0
1702323938.9689667,0.0,-1.0,19.0,2.0,-2.0,-4.0,0.0,-2.0
1702323938.9689667,-1.0,-3.0,-38.0,-7.0,-4.0,-1.0,-1.0,-1.0
1702323938.9853272,5.0,1.0,0.0,-2.0,0.0,-1.0,-3.0,1.0
1702323938.9853272,-7.0,0.0,1.0,0.0,-1.0,6.0,0.0,-2.0
1702323938.9853272,3.0,6.0,0.0,-1.0,0.0,-8.0,0.0,-1.0
1702323938.9853272,-6.0,-13.0,13.0,-2.0,-1.0,0.0,-2.0,-5.0
1702323939.0049665,1.0,-1.0,3.0,3.0,-4.0,0.0,1.0,-2.0
1702323939.0049665,0.0,-7.0,-26.0,-9.0,-7.0,-6.0,-4.0,-3.0
1702323939.0149634,-2.0,-2.0,-5.0,-1.0,5.0,2.0,0.0,3.0
1702323939.0149634,2.0,8.0,16.0,12.0,11.0,4.0,2.0,0.0
1702323939.0250018,0.0,1.0,-5.0,1.0,0.0,2.0,1.0,0.0
1702323939.0250018,-1.0,-2.0,13.0,-4.0,-7.0,-7.0,-2.0,-2.0
1702323939.0250018,-5.0,-4.0,-23.0,-10.0,-6.0,-1.0,0.0,-3.0
1702323939.0250018,0.0,-5.0,-3.0,-5.0,-2.0,-5.0,-2.0,0.0
1702323939.0351875,-3.0,-2.0,-3.0,0.0,0.0,1.0,-2.0,1.0
1702323939.0351875,2.0,5.0,2.0,1.0,-3.0,-5.0,-3.0,-1.0
1702323939.045118,0.0,-1.0,3.0,-4.0,-5.0,-2.0,-1.0,-1.0
1702323939.045118,-1.0,-6.0,11.0,0.0,0.0,2.0,1.0,-3.0
1702323939.070976,-3.0,-5.0,-17.0,-5.0,3.0,2.0,1.0,4.0
1702323939.070976,-4.0,-4.0,10.0,7.0,3.0,1.0,-2.0,-4.0
1702323939.070976,4.0,2.0,6.0,0.0,-4.0,-4.0,-2.0,-2.0
1702323939.070976,-6.0,0.0,3.0,-3.0,0.0,1.0,-1.0,0.0
1702323939.1009886,-5.0,-1.0,1.0,-3.0,-7.0,-8.0,-3.0,-4.0
1702323939.1009886,5.0,1.0,-4.0,-5.0,-3.0,-2.0,-1.0,-1.0
1702323939.1009886,-4.0,-4.0,-4.0,1.0,2.0,1.0,-1.0,-1.0
1702323939.1009886,2.0,1.0,0.0,2.0,1.0,-3.0,-1.0,-3.0
1702323939.1009886,0.0,3.0,2.0,-1.0,-1.0,4.0,0.0,4.0
1702323939.1009886,0.0,-4.0,16.0,2.0,3.0,2.0,2.0,5.0
1702323939.1109922,-3.0,-1.0,-11.0,0.0,1.0,-2.0,-1.0,0.0
1702323939.1109922,-1.0,2.0,5.0,-2.0,-3.0,2.0,-1.0,1.0
1702323939.1309838,0.0,-1.0,1.0,-3.0,0.0,-2.0,-2.0,-3.0
1702323939.1309838,-3.0,-1.0,2.0,-2.0,-1.0,-2.0,-3.0,-2.0
1702323939.1309838,-1.0,-3.0,-6.0,-1.0,0.0,0.0,0.0,0.0
1702323939.1309838,-2.0,-3.0,2.0,-1.0,-2.0,-2.0,1.0,-2.0
1702323939.1409903,-2.0,-3.0,-8.0,2.0,3.0,1.0,1.0,-2.0
1702323939.1409903,4.0,5.0,1.0,2.0,-1.0,-3.0,-1.0,-3.0
1702323939.1409903,1.0,-4.0,10.0,-2.0,-3.0,-3.0,-3.0,-2.0
1702323939.1409903,-8.0,3.0,-12.0,-3.0,-1.0,0.0,-2.0,0.0
1702323939.1612782,2.0,5.0,3.0,1.0,2.0,4.0,0.0,3.0
1702323939.1612782,2.0,-7.0,-11.0,-5.0,-8.0,-11.0,3.0,4.0
1702323939.1709883,-5.0,3.0,7.0,-2.0,-5.0,-3.0,-2.0,-4.0
1702323939.1709883,1.0,2.0,5.0,-1.0,-3.0,-2.0,-1.0,0.0
1702323939.1810322,-3.0,-4.0,5.0,-2.0,2.0,0.0,-3.0,-3.0
1702323939.1810322,-2.0,5.0,5.0,2.0,7.0,6.0,0.0,-1.0
1702323939.1810322,0.0,-7.0,-28.0,-4.0,-3.0,-1.0,1.0,4.0
1702323939.1810322,-1.0,-3.0,-16.0,-7.0,-7.0,-5.0,-5.0,-5.0
1702323939.2013257,-3.0,0.0,-1.0,-4.0,-3.0,-3.0,-2.0,-3.0
1702323939.2013257,1.0,6.0,3.0,0.0,-2.0,1.0,-2.0,-1.0
1702323939.2013257,-2.0,2.0,23.0,0.0,-1.0,-1.0,-1.0,-1.0
1702323939.2013257,-2.0,-2.0,-15.0,2.0,-1.0,3.0,1.0,2.0
1702323939.2212942,1.0,-5.0,-8.0,5.0,4.0,-1.0,-1.0,-1.0
1702323939.2212942,-1.0,1.0,4.0,-1.0,-7.0,1.0,-2.0,-3.0
1702323939.2309892,-4.0,0.0,1.0,-2.0,7.0,6.0,0.0,0.0
1702323939.2309892,2.0,1.0,9.0,-3.0,-2.0,-1.0,-1.0,1.0
1702323939.2409868,0.0,-4.0,-13.0,-3.0,-4.0,-4.0,-6.0,-5.0
1702323939.2409868,-2.0,0.0,-7.0,1.0,0.0,2.0,3.0,1.0
1702323939.2409868,-2.0,2.0,0.0,4.0,1.0,2.0,-1.0,-1.0
1702323939.2409868,1.0,3.0,20.0,-2.0,-6.0,-1.0,-3.0,0.0
1702323939.261328,-1.0,-11.0,-10.0,-3.0,-2.0,-6.0,2.0,0.0
1702323939.261328,1.0,2.0,-31.0,-4.0,2.0,5.0,0.0,-1.0
1702323939.261328,-2.0,-11.0,0.0,-1.0,-3.0,-2.0,-1.0,0.0
1702323939.261328,0.0,5.0,8.0,-3.0,-4.0,-4.0,-2.0,-6.0
1702323939.291121,-2.0,0.0,-1.0,-2.0,-1.0,-2.0,-2.0,-2.0
1702323939.291121,-1.0,1.0,5.0,4.0,3.0,1.0,2.0,3.0
1702323939.291121,-3.0,3.0,3.0,-1.0,-4.0,-4.0,-4.0,-8.0
1702323939.291121,2.0,-6.0,-8.0,-4.0,-8.0,-11.0,-3.0,3.0
1702323939.30143,-3.0,-4.0,-16.0,-6.0,-7.0,0.0,-2.0,-2.0
1702323939.30143,-6.0,0.0,1.0,-2.0,7.0,0.0,-3.0,-7.0
1702323939.30143,4.0,2.0,-1.0,0.0,-2.0,-3.0,-3.0,-2.0
1702323939.30143,-1.0,1.0,6.0,2.0,4.0,5.0,2.0,0.0
1702323939.3214998,1.0,-1.0,3.0,3.0,1.0,1.0,1.0,0.0
1702323939.3214998,-1.0,1.0,10.0,1.0,-2.0,-4.0,-2.0,0.0
1702323939.3214998,-3.0,-5.0,-22.0,-7.0,-6.0,-1.0,-1.0,0.0
1702323939.3214998,-1.0,2.0,0.0,1.0,2.0,-1.0,0.0,0.0
1702323939.3511047,-2.0,0.0,12.0,-4.0,-3.0,-3.0,-2.0,-2.0
1702323939.3511047,-6.0,-6.0,-29.0,3.0,2.0,2.0,1.0,-3.0
1702323939.3511047,1.0,1.0,8.0,-4.0,-3.0,1.0,1.0,0.0
1702323939.3511047,-6.0,-4.0,-9.0,-2.0,-1.0,-1.0,-3.0,-2.0
1702323939.3613195,-1.0,3.0,-5.0,0.0,1.0,0.0,-1.0,-1.0
1702323939.3613195,3.0,-4.0,9.0,-2.0,-2.0,-2.0,-4.0,-3.0
1702323939.3613195,-5.0,0.0,-2.0,0.0,1.0,0.0,-1.0,-1.0
1702323939.3613195,-2.0,-6.0,-8.0,-4.0,-3.0,1.0,-1.0,-3.0
1702323939.3813813,0.0,0.0,5.0,-4.0,-4.0,-1.0,0.0,0.0
1702323939.3813813,2.0,0.0,-3.0,1.0,-4.0,-2.0,-1.0,0.0
1702323939.3813813,0.0,1.0,3.0,0.0,7.0,1.0,2.0,1.0
1702323939.3813813,0.0,0.0,9.0,10.0,2.0,-1.0,2.0,2.0
1702323939.4211056,1.0,-2.0,0.0,3.0,-4.0,2.0,-6.0,2.0
1702323939.4211056,-5.0,-2.0,-1.0,-8.0,0.0,1.0,0.0,-2.0
1702323939.4211056,1.0,-1.0,4.0,14.0,4.0,0.0,-1.0,-1.0
1702323939.4211056,-1.0,1.0,-4.0,-4.0,-1.0,0.0,1.0,0.0
1702323939.4211056,0.0,-1.0,-3.0,-7.0,-3.0,2.0,2.0,0.0
1702323939.4211056,0.0,0.0,-2.0,0.0,-1.0,-5.0,-2.0,2.0
1702323939.4211056,-7.0,-2.0,5.0,-10.0,-5.0,-2.0,1.0,0.0
1702323939.4211056,0.0,-3.0,-6.0,3.0,0.0,-1.0,-2.0,-9.0
1702323939.4411116,0.0,1.0,1.0,7.0,4.0,0.0,0.0,-1.0
1702323939.4411116,0.0,-2.0,-2.0,-5.0,-3.0,-1.0,-2.0,-2.0
1702323939.461103,-1.0,0.0,-2.0,0.0,-2.0,-3.0,-2.0,-2.0
1702323939.461103,1.0,-2.0,-3.0,0.0,-7.0,0.0,-3.0,0.0
1702323939.4711025,0.0,3.0,0.0,-5.0,5.0,-1.0,5.0,3.0
1702323939.4711025,-3.0,-7.0,5.0,0.0,-2.0,-4.0,-6.0,-8.0
1702323939.4711025,-2.0,1.0,-2.0,2.0,-1.0,-1.0,0.0,-3.0
1702323939.4711025,1.0,0.0,19.0,1.0,4.0,1.0,-4.0,2.0
1702323939.486189,-5.0,1.0,-9.0,-1.0,-4.0,-4.0,4.0,-3.0
1702323939.486189,0.0,-1.0,-27.0,-8.0,-6.0,-2.0,7.0,9.0
1702323939.4871476,-1.0,-2.0,3.0,-1.0,-1.0,0.0,-1.0,4.0
1702323939.4871476,5.0,16.0,7.0,-3.0,4.0,2.0,-1.0,3.0
1702323939.5082934,-11.0,-24.0,26.0,0.0,-2.0,-3.0,-8.0,1.0
1702323939.5082934,2.0,3.0,-24.0,-4.0,-1.0,-2.0,-6.0,-20.0
1702323939.5082934,6.0,5.0,-2.0,-4.0,-4.0,1.0,10.0,34.0
1702323939.5082934,-5.0,-2.0,-4.0,-2.0,-1.0,-2.0,-7.0,-11.0
1702323939.5286822,1.0,4.0,-12.0,-3.0,-1.0,-2.0,0.0,-1.0
1702323939.5286822,-1.0,-2.0,10.0,3.0,2.0,2.0,4.0,10.0
1702323939.5286822,1.0,1.0,9.0,-4.0,0.0,0.0,-9.0,-5.0
1702323939.5286822,-1.0,3.0,19.0,0.0,1.0,-1.0,6.0,3.0
1702323939.538296,1.0,2.0,-11.0,2.0,0.0,-1.0,-3.0,-6.0
1702323939.538296,-3.0,-8.0,-19.0,-6.0,-2.0,-1.0,-1.0,-2.0
1702323939.538296,0.0,2.0,-1.0,1.0,-1.0,-4.0,-1.0,-10.0
1702323939.538296,-2.0,-4.0,-6.0,-3.0,-4.0,-3.0,-3.0,3.0
1702323939.5687108,-2.0,0.0,4.0,-3.0,0.0,0.0,-3.0,-6.0
1702323939.5687108,4.0,1.0,12.0,-6.0,-6.0,-4.0,0.0,2.0
1702323939.5687108,-5.0,-4.0,1.0,3.0,1.0,1.0,-6.0,-5.0
1702323939.5687108,-5.0,-4.0,-18.0,-1.0,2.0,1.0,0.0,-3.0
1702323939.588321,6.0,1.0,8.0,11.0,4.0,2.0,3.0,2.0
1702323939.588321,-2.0,-1.0,7.0,3.0,3.0,2.0,-1.0,1.0
1702323939.588321,0.0,0.0,-16.0,-10.0,-7.0,-5.0,-4.0,-8.0
1702323939.588321,-3.0,-16.0,-5.0,-10.0,-5.0,-3.0,0.0,1.0
1702323939.5982969,-1.0,3.0,-5.0,-7.0,-2.0,2.0,-1.0,-2.0
1702323939.5982969,-3.0,0.0,9.0,8.0,-1.0,-10.0,-1.0,2.0
1702323939.5982969,-4.0,-3.0,12.0,1.0,-2.0,-5.0,-2.0,-6.0
1702323939.5982969,-1.0,1.0,-23.0,-1.0,-2.0,0.0,6.0,1.0
1702323939.6282966,0.0,1.0,5.0,1.0,0.0,-1.0,-7.0,1.0
1702323939.6282966,2.0,-1.0,2.0,-2.0,-4.0,1.0,-7.0,-6.0
1702323939.6282966,-1.0,-2.0,0.0,-3.0,1.0,1.0,-1.0,-4.0
1702323939.6282966,0.0,2.0,0.0,-2.0,-1.0,-2.0,-1.0,0.0
1702323939.6487224,-1.0,-1.0,-7.0,-2.0,1.0,1.0,4.0,1.0
1702323939.6487224,-2.0,5.0,14.0,4.0,6.0,4.0,-4.0,1.0
1702323939.6487224,4.0,1.0,-2.0,5.0,4.0,1.0,8.0,-8.0
1702323939.6487224,0.0,3.0,13.0,1.0,0.0,-1.0,-2.0,-1.0
1702323939.6663573,-1.0,-2.0,-11.0,-5.0,-8.0,-4.0,3.0,-3.0
1702323939.6663573,-10.0,-21.0,-46.0,-9.0,-9.0,-4.0,-13.0,-8.0
1702323939.6663573,-2.0,-2.0,3.0,-2.0,1.0,3.0,12.0,0.0
1702323939.6674128,0.0,2.0,3.0,4.0,0.0,0.0,3.0,0.0
1702323939.6905053,2.0,11.0,13.0,6.0,-1.0,-3.0,-4.0,4.0
1702323939.6905053,-1.0,1.0,3.0,-10.0,-6.0,-2.0,1.0,-6.0
1702323939.6905053,-2.0,-4.0,-34.0,-2.0,-1.0,1.0,-2.0,-2.0
1702323939.6905053,-2.0,-4.0,-3.0,-1.0,-1.0,-4.0,-1.0,1.0
1702323939.7108097,3.0,0.0,9.0,-4.0,-5.0,0.0,-1.0,4.0
1702323939.7108097,2.0,3.0,17.0,2.0,-1.0,1.0,4.0,2.0
1702323939.7108097,-1.0,1.0,-4.0,-2.0,0.0,-3.0,-7.0,-3.0
1702323939.7108097,1.0,2.0,9.0,6.0,6.0,3.0,-2.0,-2.0
1702323939.7305663,-2.0,4.0,6.0,0.0,4.0,1.0,-1.0,-3.0
1702323939.7305663,-1.0,-4.0,-8.0,2.0,-3.0,0.0,2.0,0.0
1702323939.7305663,-3.0,-3.0,-2.0,-5.0,-6.0,-3.0,-4.0,0.0
1702323939.7305663,1.0,-3.0,-3.0,-2.0,-6.0,-5.0,-6.0,-1.0
1702323939.7405767,-3.0,-4.0,-12.0,-7.0,-2.0,1.0,0.0,-2.0
1702323939.7405767,0.0,4.0,14.0,9.0,2.0,0.0,1.0,1.0
1702323939.750571,-5.0,-1.0,15.0,-4.0,-2.0,-3.0,-1.0,2.0
1702323939.750571,6.0,-3.0,-13.0,-8.0,-4.0,0.0,-2.0,-2.0
1702323939.770869,-5.0,-4.0,-6.0,1.0,-1.0,-2.0,0.0,-3.0
1702323939.770869,0.0,2.0,11.0,2.0,1.0,0.0,2.0,4.0
1702323939.770869,2.0,-1.0,-3.0,3.0,1.0,2.0,-2.0,0.0
1702323939.770869,-5.0,0.0,-6.0,-6.0,0.0,0.0,0.0,-3.0
1702323939.788241,-1.0,-2.0,-5.0,-3.0,3.0,0.0,0.0,-3.0
1702323939.788241,-1.0,0.0,3.0,-1.0,1.0,0.0,0.0,-2.0
1702323939.788241,1.0,-4.0,-2.0,-1.0,0.0,-2.0,-4.0,-1.0
1702323939.788241,3.0,1.0,-1.0,-5.0,-5.0,-2.0,-1.0,0.0
1702323939.8082523,-4.0,-4.0,3.0,0.0,2.0,-3.0,-3.0,-2.0
1702323939.8082523,-2.0,-2.0,1.0,0.0,2.0,5.0,-3.0,1.0
1702323939.8082523,0.0,6.0,3.0,1.0,-5.0,-8.0,1.0,-4.0
1702323939.8082523,-2.0,-9.0,9.0,1.0,-1.0,-2.0,-3.0,2.0
1702323939.828458,-2.0,-2.0,-3.0,-1.0,-2.0,1.0,1.0,-5.0
1702323939.828458,-3.0,-4.0,-41.0,-5.0,1.0,0.0,-2.0,-5.0
1702323939.828458,-1.0,-8.0,6.0,-2.0,-1.0,1.0,-5.0,4.0
1702323939.828458,-2.0,-1.0,-15.0,-3.0,0.0,0.0,-4.0,-8.0
1702323939.8482502,8.0,13.0,33.0,7.0,2.0,-1.0,8.0,17.0
1702323939.8482502,-8.0,-7.0,-6.0,-7.0,-9.0,-8.0,-5.0,-17.0
1702323939.8482502,5.0,4.0,0.0,-3.0,3.0,7.0,12.0,18.0
1702323939.8482502,-3.0,1.0,45.0,8.0,-1.0,-1.0,-5.0,-5.0
1702323939.868711,-6.0,-12.0,-63.0,-10.0,2.0,0.0,-4.0,-3.0
1702323939.868711,3.0,8.0,1.0,0.0,2.0,-2.0,0.0,3.0
1702323939.868711,-1.0,-4.0,-6.0,0.0,-2.0,-2.0,-9.0,-6.0
1702323939.868711,0.0,3.0,8.0,0.0,3.0,2.0,3.0,0.0
1702323939.8882532,0.0,1.0,12.0,4.0,2.0,2.0,-2.0,-4.0
1702323939.8882532,0.0,1.0,17.0,3.0,-2.0,-3.0,-2.0,4.0
1702323939.8882532,-4.0,-2.0,-7.0,-3.0,-2.0,1.0,-3.0,-7.0
1702323939.8882532,0.0,-1.0,-15.0,-8.0,-6.0,-3.0,0.0,2.0
1702323939.8982518,-2.0,-3.0,0.0,-9.0,-7.0,-3.0,-2.0,-5.0
1702323939.8982518,1.0,-1.0,-4.0,-1.0,2.0,-1.0,-1.0,2.0
1702323939.908278,-2.0,-4.0,9.0,6.0,0.0,4.0,-1.0,1.0
1702323939.908278,-6.0,-1.0,-8.0,5.0,2.0,-7.0,-1.0,-2.0
1702323939.928527,0.0,-1.0,-5.0,-2.0,-4.0,-1.0,-2.0,-2.0
1702323939.928527,2.0,-1.0,10.0,-6.0,-4.0,-1.0,3.0,4.0
1702323939.928527,1.0,1.0,1.0,0.0,1.0,-1.0,-1.0,-3.0
1702323939.928527,-5.0,-2.0,-12.0,0.0,-2.0,2.0,-1.0,1.0
1702323939.9682515,-4.0,-4.0,-1.0,-6.0,-3.0,-5.0,-3.0,-3.0
1702323939.9682515,-1.0,2.0,8.0,8.0,5.0,3.0,5.0,3.0
1702323939.9682515,1.0,0.0,-3.0,3.0,3.0,2.0,4.0,-1.0
1702323939.9682515,-1.0,-1.0,-12.0,-3.0,4.0,2.0,0.0,-1.0
1702323939.9682515,0.0,1.0,7.0,3.0,-3.0,-1.0,0.0,-2.0
1702323939.9682515,-1.0,3.0,10.0,-9.0,-6.0,-4.0,-2.0,-2.0
1702323939.9682515,-5.0,-4.0,-10.0,-1.0,-1.0,-2.0,-2.0,-3.0
1702323939.9682515,1.0,-1.0,15.0,2.0,0.0,0.0,-1.0,1.0
1702323939.988547,7.0,-2.0,-16.0,0.0,-1.0,2.0,2.0,2.0
1702323939.988547,-5.0,-6.0,-23.0,-3.0,-3.0,-1.0,-3.0,-4.0
1702323939.988547,1.0,4.0,14.0,-2.0,-2.0,-4.0,-3.0,0.0
1702323939.988547,-3.0,-2.0,2.0,-2.0,0.0,2.0,1.0,8.0
1702323940.0086422,1.0,0.0,-13.0,0.0,-4.0,-2.0,5.0,3.0
1702323940.0086422,-4.0,-6.0,7.0,-4.0,0.0,2.0,12.0,4.0
1702323940.021273,0.0,-4.0,-2.0,-1.0,3.0,-3.0,-3.0,0.0
1702323940.021273,3.0,3.0,30.0,4.0,1.0,0.0,-1.0,-2.0
1702323940.026215,-8.0,-12.0,-50.0,-6.0,-2.0,-3.0,-6.0,-4.0
1702323940.026215,-1.0,4.0,13.0,-2.0,-4.0,-3.0,-6.0,-5.0
1702323940.0350447,-4.0,0.0,-7.0,-2.0,-2.0,1.0,-3.0,-3.0
1702323940.0350447,2.0,6.0,10.0,1.0,1.0,-3.0,-5.0,-1.0
1702323940.0408769,-2.0,1.0,20.0,3.0,2.0,-1.0,-5.0,-7.0
1702323940.0408769,-1.0,0.0,2.0,-3.0,-3.0,0.0,1.0,0.0
1702323940.0408769,-2.0,-11.0,-2.0,-1.0,0.0,0.0,0.0,-1.0
1702323940.0408769,-1.0,-2.0,-30.0,-3.0,0.0,-2.0,-1.0,-3.0
1702323940.080876,-4.0,1.0,13.0,0.0,-3.0,-2.0,1.0,1.0
1702323940.080876,-1.0,2.0,-1.0,3.0,0.0,0.0,-3.0,1.0
1702323940.0888882,0.0,4.0,9.0,-5.0,-5.0,4.0,0.0,-2.0
1702323940.0888882,-2.0,-6.0,-12.0,-3.0,-2.0,-10.0,0.0,-2.0
1702323940.0888882,-1.0,-5.0,1.0,2.0,-2.0,-1.0,-1.0,1.0
1702323940.0888882,3.0,1.0,11.0,0.0,2.0,1.0,-1.0,0.0
1702323940.0888882,-3.0,0.0,-6.0,-1.0,-4.0,-3.0,0.0,-3.0
1702323940.0888882,1.0,-6.0,-15.0,0.0,0.0,2.0,-1.0,-3.0
1702323940.108899,0.0,3.0,6.0,-4.0,-1.0,-3.0,-5.0,-4.0
1702323940.108899,0.0,1.0,0.0,-2.0,-4.0,-4.0,-2.0,0.0
1702323940.108899,-1.0,-1.0,-4.0,-2.0,-2.0,0.0,2.0,0.0
1702323940.108899,-1.0,-2.0,-9.0,-2.0,0.0,4.0,-7.0,-1.0
1702323940.1288981,-6.0,4.0,16.0,4.0,6.0,-3.0,-2.0,-3.0
1702323940.1288981,-1.0,-2.0,-1.0,5.0,3.0,4.0,-1.0,-1.0
1702323940.1288981,-1.0,-1.0,-10.0,-2.0,-5.0,-4.0,0.0,0.0
1702323940.1288981,3.0,-1.0,-2.0,-10.0,-1.0,-3.0,1.0,-1.0
1702323940.1389053,2.0,0.0,10.0,11.0,2.0,6.0,3.0,2.0
1702323940.1389053,-2.0,-2.0,-7.0,-2.0,-1.0,-3.0,-2.0,0.0
1702323940.149224,0.0,-1.0,-2.0,0.0,2.0,0.0,1.0,-1.0
1702323940.149224,0.0,3.0,1.0,1.0,-5.0,2.0,3.0,-2.0
1702323940.1689558,-4.0,-4.0,-2.0,-5.0,-3.0,-1.0,-1.0,-3.0
1702323940.1689558,-2.0,0.0,8.0,-2.0,-2.0,-3.0,-6.0,0.0
1702323940.1689558,-4.0,-4.0,-27.0,-5.0,-3.0,-4.0,-6.0,-7.0
1702323940.1689558,-1.0,0.0,-9.0,-4.0,-1.0,0.0,3.0,-1.0
1702323940.198897,-4.0,-11.0,-7.0,-5.0,-1.0,-2.0,-5.0,-4.0
1702323940.198897,5.0,2.0,7.0,3.0,-1.0,1.0,12.0,16.0
1702323940.198897,2.0,0.0,-13.0,-3.0,-2.0,-1.0,-2.0,-14.0
1702323940.198897,-7.0,-2.0,5.0,0.0,-2.0,0.0,-4.0,6.0
1702323940.198897,4.0,9.0,28.0,0.0,-1.0,1.0,2.0,2.0
1702323940.198897,0.0,1.0,-9.0,-9.0,-6.0,-3.0,-6.0,-6.0
1702323940.2092175,-1.0,1.0,-6.0,-1.0,4.0,-2.0,-4.0,-3.0
1702323940.2092175,-4.0,-3.0,7.0,9.0,3.0,-1.0,0.0,-5.0
1702323940.2290263,3.0,1.0,9.0,5.0,4.0,1.0,0.0,1.0
1702323940.2290263,-1.0,-1.0,6.0,-3.0,-1.0,0.0,-2.0,-2.0
1702323940.2290263,2.0,5.0,7.0,1.0,0.0,-1.0,-1.0,4.0
1702323940.2290263,-1.0,-2.0,-12.0,-8.0,-7.0,-2.0,-1.0,-5.0
1702323940.2489235,-2.0,0.0,3.0,-1.0,-1.0,-1.0,-4.0,3.0
1702323940.2489235,0.0,-3.0,-13.0,0.0,-3.0,2.0,1.0,-2.0
1702323940.2489235,-3.0,-1.0,-1.0,1.0,-1.0,-2.0,-1.0,0.0
1702323940.2489235,-2.0,1.0,5.0,-4.0,-2.0,-2.0,0.0,0.0
1702323940.2690973,-1.0,-2.0,-5.0,-3.0,-5.0,0.0,1.0,-2.0
1702323940.2690973,-3.0,-4.0,-11.0,-2.0,-3.0,-9.0,-5.0,-5.0
1702323940.2690973,-1.0,-2.0,14.0,0.0,2.0,0.0,-2.0,1.0
1702323940.2690973,0.0,-3.0,-3.0,1.0,2.0,2.0,0.0,-1.0
1702323940.289011,0.0,-1.0,-8.0,2.0,-2.0,-4.0,-1.0,-1.0
1702323940.289011,-3.0,0.0,-1.0,-5.0,-1.0,2.0,-2.0,-5.0
1702323940.289011,0.0,-4.0,2.0,-4.0,-2.0,-4.0,-2.0,3.0
1702323940.289011,0.0,1.0,2.0,1.0,-2.0,-4.0,0.0,-3.0
1702323940.308927,1.0,-1.0,-7.0,-1.0,8.0,3.0,2.0,0.0
1702323940.308927,-2.0,-1.0,5.0,14.0,11.0,5.0,6.0,2.0
1702323940.308927,0.0,1.0,4.0,-1.0,-3.0,-2.0,-6.0,0.0
1702323940.308927,-7.0,-5.0,-11.0,-9.0,-9.0,-2.0,-5.0,-6.0
1702323940.3291547,-1.0,-1.0,0.0,-8.0,-6.0,-1.0,-1.0,-1.0
1702323940.3291547,-4.0,-3.0,-2.0,-2.0,-1.0,-2.0,-1.0,-1.0
1702323940.3291547,-1.0,-1.0,3.0,3.0,-2.0,2.0,3.0,0.0
1702323940.3291547,0.0,1.0,-6.0,-1.0,-1.0,-1.0,0.0,-3.0
1702323940.3588986,0.0,0.0,2.0,-2.0,0.0,-1.0,-3.0,-1.0
1702323940.3588986,3.0,3.0,-1.0,-1.0,3.0,-1.0,2.0,0.0
1702323940.3588986,-4.0,-6.0,-12.0,0.0,-1.0,-1.0,-2.0,-1.0
1702323940.3588986,0.0,1.0,16.0,1.0,-4.0,-1.0,-3.0,-2.0
1702323940.368934,-4.0,-2.0,-29.0,-9.0,-3.0,-5.0,-1.0,-1.0
1702323940.368934,1.0,0.0,6.0,-2.0,1.0,3.0,-4.0,-7.0
1702323940.368934,-3.0,-6.0,0.0,2.0,1.0,-2.0,-1.0,-1.0
1702323940.368934,4.0,3.0,-2.0,1.0,1.0,-4.0,11.0,15.0
1702323940.3892162,3.0,11.0,16.0,1.0,-2.0,1.0,-14.0,-12.0
1702323940.3892162,-13.0,-16.0,-8.0,-8.0,-8.0,-6.0,-6.0,-2.0
1702323940.3892162,3.0,-3.0,-9.0,-2.0,2.0,3.0,13.0,9.0
1702323940.3892162,-3.0,1.0,14.0,6.0,8.0,4.0,-3.0,-8.0
1702323940.4188979,-1.0,-2.0,-4.0,4.0,2.0,1.0,7.0,7.0
1702323940.4188979,1.0,4.0,2.0,-3.0,-3.0,-2.0,-9.0,-6.0
1702323940.4188979,-2.0,2.0,17.0,0.0,-4.0,-2.0,-4.0,-6.0
1702323940.4188979,0.0,4.0,-7.0,2.0,2.0,-1.0,2.0,1.0
1702323940.4292185,-2.0,-7.0,1.0,1.0,-2.0,-1.0,-3.0,-5.0
1702323940.4292185,0.0,-1.0,-7.0,-5.0,-8.0,-1.0,2.0,1.0
1702323940.4292185,-1.0,2.0,0.0,-4.0,2.0,-2.0,1.0,1.0
1702323940.4292185,1.0,-2.0,4.0,0.0,3.0,3.0,-1.0,-2.0
1702323940.4492848,-2.0,-5.0,-10.0,-1.0,-5.0,-4.0,-2.0,-1.0
1702323940.4492848,-1.0,-1.0,-2.0,1.0,0.0,1.0,3.0,2.0
1702323940.4492848,0.0,0.0,-1.0,-7.0,-6.0,-7.0,-3.0,0.0
1702323940.4492848,-3.0,-2.0,-3.0,-2.0,-4.0,0.0,-7.0,-3.0
1702323940.4688983,-1.0,-1.0,7.0,-3.0,4.0,4.0,1.0,0.0
1702323940.4688983,2.0,0.0,-2.0,3.0,-3.0,-3.0,3.0,1.0
1702323940.4688983,-1.0,4.0,1.0,1.0,2.0,4.0,-1.0,-3.0
1702323940.4688983,-2.0,-5.0,-7.0,-3.0,-4.0,-5.0,-6.0,-2.0
1702323940.4892118,-1.0,-3.0,-2.0,-1.0,-1.0,2.0,2.0,2.0
1702323940.4892118,2.0,0.0,-5.0,0.0,3.0,0.0,-2.0,-1.0
1702323940.4892118,0.0,-2.0,2.0,-1.0,-6.0,-3.0,-4.0,-2.0
1702323940.4892118,0.0,-5.0,-10.0,-11.0,-9.0,-1.0,-1.0,1.0
1702323940.5091033,-1.0,-2.0,-2.0,3.0,3.0,-2.0,-1.0,0.0
1702323940.5091033,0.0,0.0,0.0,0.0,7.0,0.0,-2.0,-1.0
1702323940.5091033,0.0,0.0,5.0,5.0,5.0,4.0,1.0,1.0
1702323940.5091033,-4.0,-4.0,-6.0,0.0,-5.0,-2.0,-1.0,-1.0
1702323940.5499134,-1.0,0.0,-2.0,-3.0,-6.0,-6.0,-2.0,-2.0
1702323940.5499134,0.0,1.0,-3.0,-3.0,-2.0,-4.0,-3.0,-1.0
1702323940.5499134,-3.0,-3.0,-4.0,-5.0,-5.0,-1.0,-2.0,-2.0
1702323940.5499134,0.0,3.0,4.0,3.0,-1.0,0.0,-1.0,-2.0
1702323940.5509753,-1.0,-1.0,-3.0,-2.0,-1.0,-4.0,-2.0,-1.0
1702323940.5509753,-4.0,-4.0,-3.0,-3.0,-5.0,-1.0,0.0,-2.0
1702323940.551761,-1.0,-3.0,-5.0,-2.0,0.0,0.0,-3.0,-1.0
1702323940.551761,-1.0,2.0,19.0,4.0,2.0,-5.0,-1.0,-7.0
1702323940.5734427,3.0,2.0,-16.0,0.0,3.0,4.0,3.0,1.0
1702323940.5734427,-3.0,-3.0,26.0,1.0,-3.0,0.0,3.0,3.0
1702323940.5734427,-1.0,2.0,-35.0,-8.0,-6.0,-4.0,-5.0,-5.0
1702323940.5734427,-5.0,-18.0,-7.0,-2.0,-4.0,-3.0,-7.0,0.0
1702323940.5834384,-1.0,1.0,20.0,3.0,4.0,-2.0,0.0,-4.0
1702323940.5834384,2.0,0.0,-5.0,-1.0,0.0,0.0,9.0,12.0
1702323940.5834384,-2.0,2.0,-3.0,4.0,-4.0,1.0,-2.0,-3.0
1702323940.5834384,0.0,4.0,-8.0,-3.0,3.0,-1.0,1.0,1.0
1702323940.6034484,-3.0,-2.0,2.0,-1.0,-3.0,-4.0,-4.0,-3.0
1702323940.6034484,0.0,0.0,2.0,-3.0,0.0,0.0,-4.0,-4.0
1702323940.6034484,-3.0,-3.0,11.0,1.0,1.0,-2.0,0.0,0.0
1702323940.6034484,1.0,1.0,-11.0,-1.0,0.0,1.0,-1.0,0.0
1702323940.6434395,-2.0,-3.0,0.0,-5.0,-5.0,-3.0,-1.0,1.0
1702323940.6434395,0.0,1.0,-7.0,-1.0,3.0,-1.0,-3.0,-6.0
1702323940.6434395,-1.0,-3.0,1.0,1.0,-1.0,-2.0,0.0,-2.0
1702323940.6434395,0.0,1.0,-1.0,-4.0,-3.0,2.0,-1.0,-2.0
1702323940.6434395,-1.0,-1.0,8.0,0.0,-4.0,-2.0,-1.0,-1.0
1702323940.6434395,-2.0,-8.0,-32.0,1.0,3.0,-1.0,-4.0,-4.0
1702323940.6434395,3.0,7.0,15.0,0.0,1.0,2.0,3.0,1.0
1702323940.6434395,-1.0,-8.0,-2.0,0.0,0.0,-1.0,0.0,1.0
1702323940.6638107,-3.0,-4.0,-15.0,-6.0,-4.0,0.0,1.0,-2.0
1702323940.6638107,-2.0,0.0,3.0,2.0,0.0,1.0,-4.0,-4.0
1702323940.6638107,-2.0,-1.0,7.0,8.0,4.0,1.0,-1.0,0.0
1702323940.6638107,1.0,3.0,2.0,1.0,0.0,-2.0,-1.0,-1.0
1702323940.703359,-3.0,-3.0,-1.0,-5.0,-10.0,-1.0,0.0,0.0
1702323940.703359,1.0,1.0,-1.0,-5.0,-2.0,3.0,-3.0,-4.0
1702323940.703359,-5.0,-8.0,-1.0,-2.0,-2.0,-3.0,-2.0,-2.0
1702323940.703359,1.0,2.0,-2.0,3.0,2.0,2.0,4.0,2.0
1702323940.703359,-1.0,0.0,12.0,-1.0,-1.0,-5.0,-1.0,-2.0
1702323940.703359,-3.0,-2.0,-13.0,-4.0,-3.0,-3.0,-3.0,0.0
1702323940.703359,1.0,0.0,2.0,-3.0,0.0,-3.0,-4.0,-4.0
1702323940.703359,0.0,-1.0,0.0,-2.0,2.0,1.0,3.0,8.0
1702323940.7333624,-1.0,-5.0,-5.0,1.0,1.0,-1.0,2.0,2.0
1702323940.7333624,1.0,4.0,21.0,4.0,-2.0,5.0,2.0,-11.0
1702323940.7333624,-2.0,-6.0,-32.0,-7.0,-1.0,-5.0,-1.0,5.0
1702323940.7333624,-2.0,-11.0,6.0,-1.0,1.0,-2.0,-2.0,-1.0
1702323940.753361,1.0,5.0,-3.0,5.0,5.0,2.0,-2.0,1.0
1702323940.753361,0.0,2.0,4.0,3.0,3.0,1.0,1.0,5.0
1702323940.753361,0.0,3.0,10.0,-3.0,-7.0,-2.0,-3.0,-9.0
1702323940.753361,0.0,-2.0,-8.0,-2.0,-4.0,0.0,-2.0,-4.0
1702323940.7637343,-2.0,2.0,1.0,0.0,-2.0,1.0,-1.0,1.0
1702323940.7637343,-1.0,-3.0,-2.0,-3.0,-5.0,-5.0,-2.0,-1.0
1702323940.77336,-2.0,-3.0,28.0,6.0,-2.0,3.0,-1.0,-1.0
1702323940.77336,-4.0,1.0,-29.0,-7.0,-1.0,-3.0,0.0,0.0
1702323940.7932715,-1.0,-2.0,-1.0,-6.0,-2.0,-3.0,1.0,0.0
1702323940.7932715,2.0,5.0,1.0,3.0,1.0,0.0,-1.0,3.0
1702323940.7932715,-3.0,1.0,10.0,-3.0,-5.0,-2.0,0.0,-5.0
1702323940.7932715,-2.0,3.0,-5.0,-2.0,-5.0,0.0,-3.0,-1.0
1702323940.8137064,-1.0,-14.0,-18.0,-4.0,-1.0,-3.0,-4.0,-5.0
1702323940.8137064,-2.0,-1.0,1.0,-2.0,1.0,-1.0,0.0,4.0
1702323940.8137064,2.0,0.0,9.0,2.0,3.0,3.0,0.0,4.0
1702323940.8137064,0.0,4.0,-1.0,1.0,4.0,3.0,0.0,4.0
1702323940.823282,1.0,2.0,-2.0,3.0,-3.0,-3.0,2.0,0.0
1702323940.823282,-2.0,-5.0,-2.0,-6.0,-6.0,-6.0,-5.0,-2.0
1702323940.8336666,-1.0,-4.0,-8.0,-2.0,-1.0,-1.0,1.0,-1.0
1702323940.8336666,-2.0,1.0,10.0,2.0,-2.0,-2.0,-3.0,-5.0
1702323940.8532841,0.0,3.0,8.0,0.0,-2.0,-1.0,-1.0,1.0
1702323940.8532841,0.0,-4.0,-14.0,-3.0,0.0,3.0,0.0,-2.0
1702323940.8532841,0.0,-1.0,2.0,0.0,1.0,-9.0,-1.0,5.0
1702323940.8532841,0.0,2.0,10.0,3.0,6.0,1.0,-1.0,-4.0
1702323940.8732827,-2.0,-5.0,-34.0,-6.0,0.0,-1.0,-2.0,3.0
1702323940.8732827,-3.0,-4.0,7.0,4.0,3.0,1.0,1.0,-7.0
1702323940.8732827,0.0,0.0,-8.0,-4.0,1.0,0.0,0.0,0.0
1702323940.8732827,-1.0,3.0,6.0,-3.0,-4.0,-2.0,-1.0,-1.0
1702323940.8836248,-2.0,2.0,13.0,0.0,-1.0,-1.0,-1.0,-8.0
1702323940.8836248,1.0,1.0,-3.0,-4.0,-2.0,-3.0,-1.0,1.0
1702323940.893284,0.0,2.0,-7.0,-3.0,-1.0,0.0,-1.0,-1.0
1702323940.893284,0.0,-5.0,16.0,3.0,0.0,-1.0,1.0,-1.0
1702323940.9032824,0.0,2.0,-17.0,0.0,4.0,3.0,0.0,-1.0
1702323940.9032824,-2.0,-2.0,-1.0,-1.0,1.0,-1.0,-4.0,-3.0
1702323940.9032824,-4.0,-5.0,14.0,4.0,-2.0,0.0,0.0,-3.0
1702323940.9032824,-1.0,-2.0,-27.0,-10.0,-12.0,-4.0,-1.0,-1.0
1702323940.9337425,-2.0,-1.0,12.0,-3.0,0.0,-1.0,-3.0,-2.0
1702323940.9337425,0.0,-2.0,-8.0,0.0,0.0,1.0,2.0,0.0
1702323940.9337425,1.0,-2.0,-1.0,-2.0,2.0,1.0,0.0,3.0
1702323940.9337425,1.0,-1.0,0.0,-2.0,-4.0,2.0,-2.0,-4.0
1702323940.9432795,-1.0,-1.0,6.0,-4.0,-7.0,-6.0,-5.0,-1.0
1702323940.9432795,-2.0,1.0,2.0,0.0,-3.0,-4.0,-3.0,-1.0
1702323940.96328,3.0,8.0,-3.0,6.0,10.0,5.0,-2.0,0.0
1702323940.96328,-2.0,-13.0,-7.0,4.0,6.0,2.0,6.0,5.0
1702323940.96328,1.0,-1.0,-1.0,-2.0,-1.0,1.0,-1.0,-4.0
1702323940.96328,2.0,4.0,8.0,0.0,-5.0,-4.0,1.0,-3.0
1702323940.96328,-4.0,-8.0,-20.0,-6.0,-4.0,0.0,-2.0,3.0
1702323940.96328,2.0,8.0,6.0,0.0,-4.0,-4.0,-5.0,-2.0
1702323940.9935908,-2.0,-1.0,6.0,-1.0,-5.0,-1.0,-1.0,-1.0
1702323940.9935908,-1.0,-5.0,-17.0,-11.0,-8.0,-7.0,-3.0,2.0
1702323940.9935908,-4.0,-4.0,3.0,0.0,3.0,2.0,2.0,-5.0
1702323940.9935908,-1.0,-1.0,-2.0,-2.0,4.0,0.0,1.0,-2.0
1702323941.0035286,0.0,1.0,1.0,5.0,1.0,0.0,0.0,0.0
1702323941.0035286,2.0,3.0,14.0,4.0,3.0,2.0,0.0,2.0
1702323941.0232847,2.0,4.0,3.0,-5.0,-8.0,-3.0,0.0,-1.0
1702323941.0232847,-3.0,2.0,-20.0,-2.0,-3.0,-5.0,-2.0,-2.0
1702323941.0232847,-4.0,-13.0,-25.0,-6.0,0.0,-2.0,-1.0,2.0
1702323941.0232847,-4.0,-4.0,-3.0,1.0,1.0,0.0,1.0,-1.0
1702323941.0232847,0.0,-1.0,3.0,-1.0,-2.0,2.0,-1.0,-1.0
1702323941.0232847,-4.0,-2.0,16.0,-2.0,-6.0,-13.0,-3.0,-2.0
1702323941.0536423,1.0,2.0,7.0,-2.0,-3.0,-2.0,-2.0,-2.0
1702323941.0536423,0.0,-1.0,-3.0,0.0,0.0,0.0,0.0,1.0
1702323941.0536423,0.0,-2.0,-5.0,-3.0,-1.0,-3.0,1.0,0.0
1702323941.0536423,0.0,4.0,5.0,1.0,0.0,4.0,-1.0,-2.0
1702323941.0632899,-1.0,2.0,3.0,4.0,1.0,-1.0,1.0,0.0
1702323941.0632899,0.0,3.0,10.0,-2.0,-4.0,-3.0,-1.0,1.0
1702323941.0734444,-5.0,-8.0,-11.0,-4.0,1.0,-1.0,-6.0,-3.0
1702323941.0734444,1.0,-6.0,-1.0,2.0,5.0,0.0,-3.0,-13.0
1702323941.1059043,-2.0,-3.0,6.0,4.0,2.0,1.0,-1.0,0.0
1702323941.1059043,0.0,6.0,-22.0,-4.0,-6.0,2.0,2.0,1.0
1702323941.1059043,0.0,-14.0,-5.0,-4.0,-3.0,-5.0,-2.0,-2.0
1702323941.1059043,-2.0,-2.0,-1.0,3.0,3.0,1.0,-2.0,1.0
1702323941.1059043,-2.0,0.0,2.0,-3.0,-3.0,-4.0,-4.0,-4.0
1702323941.1059043,-1.0,1.0,6.0,-2.0,-2.0,-1.0,-3.0,-5.0
1702323941.1059043,0.0,5.0,-2.0,5.0,5.0,4.0,3.0,-1.0
1702323941.1059043,1.0,-2.0,-3.0,1.0,-3.0,3.0,1.0,1.0
1702323941.126246,1.0,5.0,3.0,1.0,1.0,1.0,-1.0,0.0
1702323941.126246,-1.0,-3.0,-4.0,-2.0,1.0,-3.0,-1.0,0.0
1702323941.1359127,-1.0,-2.0,-3.0,-2.0,-5.0,-4.0,-2.0,-1.0
1702323941.1359127,-1.0,-1.0,-11.0,-4.0,-2.0,6.0,1.0,1.0
1702323941.1459057,0.0,4.0,11.0,2.0,-1.0,-5.0,-1.0,0.0
1702323941.1459057,-5.0,-6.0,15.0,0.0,-7.0,-3.0,-2.0,-3.0
1702323941.1459057,-1.0,0.0,-25.0,-3.0,4.0,4.0,1.0,0.0
1702323941.1459057,-4.0,-8.0,-4.0,-1.0,2.0,-1.0,-1.0,-2.0
1702323941.1661787,1.0,2.0,-6.0,-1.0,-2.0,0.0,-2.0,-1.0
1702323941.1661787,-3.0,-5.0,3.0,-3.0,-1.0,-4.0,-2.0,-4.0
1702323941.1661787,0.0,3.0,14.0,0.0,-2.0,2.0,0.0,0.0
1702323941.1661787,-1.0,3.0,-4.0,-3.0,-6.0,-2.0,0.0,2.0
1702323941.2143395,0.0,2.0,-2.0,-5.0,2.0,1.0,-1.0,-3.0
1702323941.2143395,-2.0,-5.0,-2.0,6.0,4.0,3.0,1.0,0.0
1702323941.2143395,0.0,4.0,2.0,-1.0,-4.0,-7.0,-5.0,-1.0
1702323941.2143395,-1.0,-3.0,-7.0,-7.0,-2.0,-4.0,-1.0,-1.0
1702323941.2243357,-1.0,0.0,-3.0,0.0,-1.0,0.0,1.0,2.0
1702323941.2243357,-1.0,-2.0,-2.0,-1.0,2.0,8.0,-2.0,-2.0
1702323941.2243357,0.0,-3.0,4.0,0.0,0.0,-5.0,1.0,-1.0
1702323941.2243357,0.0,0.0,-10.0,-2.0,-6.0,-4.0,-2.0,-1.0
1702323941.2343411,-3.0,-1.0,14.0,-8.0,-5.0,-2.0,-1.0,-2.0
1702323941.2343411,2.0,4.0,-12.0,1.0,4.0,4.0,1.0,1.0
1702323941.2343411,-1.0,0.0,4.0,8.0,10.0,3.0,0.0,-1.0
1702323941.2343411,1.0,2.0,10.0,7.0,-3.0,-2.0,-2.0,1.0
1702323941.274335,-1.0,-4.0,-10.0,-4.0,2.0,-1.0,0.0,-1.0
1702323941.274335,0.0,1.0,9.0,-2.0,0.0,-4.0,-1.0,0.0
1702323941.274335,-4.0,-4.0,-9.0,-8.0,-7.0,-2.0,-2.0,-5.0
1702323941.274335,0.0,0.0,7.0,-1.0,2.0,1.0,1.0,1.0
1702323941.274335,-1.0,-7.0,-5.0,3.0,-6.0,-4.0,-2.0,-1.0
1702323941.274335,0.0,3.0,8.0,-2.0,-3.0,-3.0,-2.0,-1.0
1702323941.274335,3.0,2.0,-1.0,-3.0,0.0,1.0,0.0,2.0
1702323941.274335,-4.0,-5.0,-3.0,0.0,5.0,2.0,4.0,7.0
1702323941.294234,-1.0,5.0,3.0,2.0,2.0,2.0,1.0,-1.0
1702323941.294234,1.0,1.0,4.0,0.0,-2.0,-3.0,-2.0,3.0
1702323941.294234,-4.0,-11.0,-20.0,-6.0,-9.0,-5.0,-3.0,-7.0
1702323941.294234,-2.0,-2.0,-16.0,-10.0,-5.0,-4.0,-5.0,-5.0
1702323941.314254,1.0,-1.0,-2.0,0.0,-2.0,0.0,1.0,1.0
1702323941.314254,-1.0,2.0,2.0,1.0,-2.0,-3.0,-2.0,-1.0
1702323941.314254,-1.0,-1.0,5.0,7.0,8.0,5.0,2.0,-1.0
1702323941.314254,0.0,2.0,12.0,0.0,3.0,-10.0,-2.0,0.0
1702323941.3245704,-3.0,-6.0,-5.0,-4.0,-4.0,-3.0,-3.0,-4.0
1702323941.3245704,0.0,1.0,-8.0,0.0,1.0,-2.0,-1.0,-2.0
1702323941.3245704,2.0,4.0,5.0,-6.0,-9.0,-4.0,-3.0,2.0
1702323941.3245704,-2.0,-2.0,-2.0,-2.0,-3.0,2.0,-1.0,-3.0
1702323941.354245,2.0,2.0,-1.0,-1.0,2.0,3.0,2.0,2.0
1702323941.354245,1.0,2.0,0.0,2.0,1.0,-2.0,-1.0,-1.0
1702323941.354245,-4.0,-13.0,-14.0,-5.0,-1.0,-1.0,-3.0,-3.0
1702323941.354245,-1.0,4.0,10.0,3.0,3.0,3.0,2.0,2.0
1702323941.3742425,-1.0,2.0,30.0,-1.0,-2.0,-1.0,0.0,-1.0
1702323941.3742425,-7.0,-14.0,-63.0,-12.0,-9.0,-4.0,-1.0,-5.0
1702323941.3742425,0.0,4.0,8.0,2.0,0.0,-4.0,0.0,0.0
1702323941.3742425,-1.0,0.0,-2.0,-2.0,-4.0,-2.0,-3.0,0.0
1702323941.38462,-4.0,-4.0,13.0,2.0,3.0,0.0,-2.0,-3.0
1702323941.38462,-1.0,-1.0,7.0,0.0,1.0,1.0,1.0,0.0
1702323941.38462,2.0,8.0,2.0,0.0,-4.0,-2.0,1.0,0.0
1702323941.38462,0.0,-9.0,2.0,2.0,3.0,1.0,0.0,-4.0
1702323941.414244,-1.0,-1.0,-13.0,0.0,1.0,2.0,-2.0,1.0
1702323941.414244,0.0,0.0,8.0,-1.0,-1.0,-12.0,-3.0,-2.0
1702323941.414244,-1.0,-2.0,-8.0,-2.0,-3.0,0.0,0.0,1.0
1702323941.414244,0.0,-1.0,9.0,-5.0,-1.0,1.0,0.0,-4.0
1702323941.4342763,-3.0,-3.0,-7.0,4.0,-1.0,-3.0,-1.0,-2.0
1702323941.4342763,-1.0,-3.0,3.0,-3.0,1.0,3.0,2.0,-1.0
1702323941.4342763,1.0,8.0,12.0,0.0,-4.0,-2.0,0.0,1.0
1702323941.4342763,1.0,-4.0,-13.0,-6.0,-3.0,-4.0,-4.0,0.0
1702323941.4445198,-3.0,-4.0,2.0,-5.0,-3.0,-3.0,-3.0,-9.0
1702323941.4445198,-1.0,2.0,-6.0,-2.0,3.0,2.0,0.0,0.0
1702323941.4445198,-1.0,-1.0,12.0,4.0,1.0,-4.0,-3.0,-1.0
1702323941.4445198,1.0,1.0,-1.0,2.0,2.0,2.0,2.0,1.0
1702323941.474243,-1.0,-1.0,-7.0,-2.0,-3.0,-2.0,-4.0,-1.0
1702323941.474243,-1.0,0.0,13.0,4.0,3.0,1.0,-1.0,-2.0
1702323941.474243,-4.0,-4.0,-11.0,-5.0,-4.0,0.0,-3.0,-5.0
1702323941.474243,1.0,4.0,-1.0,-7.0,-4.0,-2.0,-4.0,-1.0
1702323941.494522,-2.0,-7.0,-9.0,4.0,3.0,-3.0,-1.0,1.0
1702323941.494522,-2.0,-2.0,4.0,0.0,-4.0,0.0,1.0,-3.0
1702323941.494522,-1.0,-1.0,3.0,-2.0,0.0,0.0,-1.0,0.0
1702323941.494522,-1.0,3.0,9.0,1.0,-4.0,1.0,2.0,-1.0
1702323941.5045178,-1.0,0.0,-16.0,-5.0,5.0,4.0,-1.0,1.0
1702323941.5045178,-1.0,-3.0,9.0,-1.0,-5.0,-10.0,-4.0,-1.0
1702323941.5045178,-2.0,-4.0,-10.0,0.0,-4.0,-4.0,-1.0,-3.0
1702323941.5045178,-3.0,0.0,8.0,2.0,1.0,-3.0,-3.0,-5.0
1702323941.544244,3.0,1.0,-5.0,-2.0,-5.0,-1.0,-1.0,1.0
1702323941.544244,-1.0,0.0,-5.0,0.0,0.0,3.0,-2.0,-4.0
1702323941.544244,0.0,-8.0,9.0,1.0,5.0,2.0,1.0,2.0
1702323941.544244,0.0,1.0,-2.0,-1.0,-4.0,-4.0,0.0,0.0
1702323941.5543938,0.0,-2.0,-11.0,-2.0,-4.0,-2.0,-3.0,-3.0
1702323941.5543938,-1.0,-4.0,-5.0,-6.0,-1.0,-1.0,-3.0,0.0
1702323941.5543938,-3.0,-3.0,3.0,2.0,-6.0,-2.0,-1.0,-2.0
1702323941.5543938,-2.0,0.0,-20.0,-4.0,2.0,1.0,0.0,-1.0
1702323941.564546,0.0,-1.0,-6.0,0.0,1.0,-4.0,-2.0,0.0
1702323941.564546,-1.0,1.0,12.0,0.0,-2.0,1.0,-1.0,-1.0
1702323941.564546,2.0,5.0,3.0,-1.0,1.0,2.0,1.0,0.0
1702323941.564546,-3.0,-11.0,-22.0,-1.0,0.0,-1.0,-2.0,-2.0
1702323941.5943136,-1.0,4.0,8.0,-5.0,-8.0,-2.0,0.0,-3.0
1702323941.5943136,0.0,4.0,-7.0,0.0,2.0,-1.0,-1.0,0.0
1702323941.5943136,-1.0,-13.0,2.0,2.0,3.0,-1.0,-1.0,1.0
1702323941.5943136,-3.0,-1.0,4.0,1.0,-4.0,-6.0,-4.0,-7.0
1702323941.616679,0.0,-1.0,-1.0,-5.0,-3.0,-2.0,2.0,2.0
1702323941.616679,-3.0,-4.0,-5.0,-1.0,-2.0,-2.0,0.0,0.0
1702323941.61746,3.0,7.0,8.0,-4.0,1.0,2.0,0.0,-1.0
1702323941.61746,-2.0,-2.0,-24.0,1.0,-2.0,2.0,-3.0,-1.0
1702323941.636591,1.0,1.0,0.0,4.0,2.0,2.0,1.0,1.0
1702323941.636591,-1.0,-1.0,6.0,3.0,2.0,3.0,1.0,0.0
1702323941.6397367,1.0,-3.0,-10.0,-2.0,5.0,1.0,2.0,2.0
1702323941.6397367,-1.0,1.0,7.0,-2.0,0.0,-2.0,1.0,-1.0
1702323941.6502008,-1.0,3.0,6.0,-4.0,-8.0,-3.0,-1.0,-3.0
1702323941.6502008,1.0,-1.0,-4.0,-2.0,-3.0,-1.0,-2.0,-2.0
1702323941.6502008,-3.0,-1.0,-8.0,-3.0,0.0,-1.0,3.0,1.0
1702323941.6502008,1.0,1.0,12.0,2.0,4.0,2.0,-1.0,1.0
1702323941.6702127,-3.0,-2.0,6.0,-1.0,-2.0,-2.0,-2.0,2.0
1702323941.6702127,2.0,-2.0,-8.0,0.0,4.0,1.0,1.0,-4.0
1702323941.6702127,-2.0,3.0,-10.0,-3.0,-3.0,-5.0,-3.0,-4.0
1702323941.6702127,0.0,-2.0,5.0,2.0,-2.0,2.0,1.0,0.0
1702323941.690262,0.0,-1.0,-2.0,0.0,1.0,-1.0,0.0,-1.0
1702323941.690262,-4.0,0.0,0.0,-7.0,-15.0,2.0,-2.0,-1.0
1702323941.690262,0.0,4.0,15.0,4.0,5.0,-11.0,-3.0,-4.0
1702323941.690262,-3.0,0.0,-15.0,1.0,2.0,-3.0,-3.0,0.0
1702323941.7106128,1.0,1.0,1.0,0.0,5.0,2.0,0.0,-1.0
1702323941.7106128,-2.0,-2.0,-1.0,0.0,1.0,1.0,-1.0,-1.0
1702323941.7106128,-1.0,1.0,0.0,-4.0,-8.0,2.0,0.0,2.0
1702323941.7106128,0.0,-2.0,7.0,-7.0,-9.0,-6.0,-1.0,-2.0
1702323941.7306385,-4.0,-6.0,-9.0,-4.0,-6.0,-4.0,-2.0,-5.0
1702323941.7306385,1.0,4.0,6.0,5.0,7.0,0.0,0.0,4.0
1702323941.7306385,-1.0,0.0,7.0,5.0,5.0,4.0,0.0,-1.0
1702323941.7306385,1.0,0.0,-19.0,-2.0,0.0,-3.0,-2.0,-3.0
1702323941.750217,-2.0,1.0,6.0,-7.0,-8.0,-3.0,-2.0,-1.0
1702323941.750217,-4.0,-17.0,-28.0,-6.0,-7.0,-4.0,-3.0,-3.0
1702323941.7602127,1.0,2.0,4.0,1.0,4.0,-1.0,-4.0,-1.0
1702323941.7602127,-2.0,-3.0,10.0,9.0,6.0,3.0,6.0,-2.0
1702323941.7704744,3.0,5.0,-7.0,0.0,3.0,1.0,1.0,-2.0
1702323941.7704744,1.0,4.0,4.0,-3.0,-5.0,-2.0,0.0,-1.0
1702323941.7704744,-1.0,-9.0,-14.0,-5.0,-4.0,-2.0,-3.0,1.0
1702323941.7704744,-2.0,0.0,7.0,-7.0,-7.0,-2.0,-3.0,-1.0
1702323941.810213,0.0,-1.0,-1.0,-2.0,-3.0,-3.0,-2.0,0.0
1702323941.810213,-1.0,-3.0,3.0,2.0,5.0,6.0,1.0,-2.0
1702323941.8202155,-1.0,-1.0,-7.0,2.0,-3.0,-8.0,-1.0,-3.0
1702323941.8202155,0.0,-2.0,6.0,-2.0,0.0,3.0,1.0,0.0
1702323941.8202155,0.0,-2.0,-3.0,4.0,8.0,2.0,-1.0,-1.0
1702323941.8202155,-1.0,0.0,7.0,-4.0,-3.0,-4.0,-2.0,0.0
1702323941.8202155,-2.0,-1.0,-21.0,-7.0,-4.0,3.0,1.0,-2.0
1702323941.8202155,2.0,8.0,2.0,4.0,0.0,-5.0,0.0,1.0
1702323941.8305993,-2.0,-14.0,-3.0,-2.0,-4.0,-3.0,0.0,-1.0
1702323941.8305993,0.0,3.0,15.0,0.0,-2.0,-3.0,-1.0,0.0
1702323941.8405504,-2.0,-6.0,-23.0,-7.0,-4.0,0.0,0.0,-1.0
1702323941.8405504,-2.0,-2.0,-6.0,-2.0,-2.0,-1.0,-1.0,-2.0
1702323941.8502147,-1.0,5.0,-3.0,3.0,5.0,4.0,-3.0,-1.0
1702323941.8502147,-1.0,0.0,9.0,1.0,1.0,-2.0,-2.0,-2.0
1702323941.8502147,-1.0,-2.0,-2.0,-7.0,-8.0,0.0,0.0,-3.0
1702323941.8502147,0.0,3.0,3.0,-1.0,2.0,2.0,0.0,-2.0
1702323941.8702123,-2.0,2.0,4.0,1.0,-2.0,2.0,3.0,-1.0
1702323941.8702123,-1.0,0.0,-2.0,0.0,-4.0,-5.0,-1.0,-1.0
1702323941.8702123,0.0,1.0,6.0,-2.0,0.0,-2.0,-3.0,-2.0
1702323941.8702123,0.0,-7.0,19.0,4.0,1.0,1.0,-2.0,1.0
1702323941.8904526,3.0,7.0,-27.0,-6.0,-2.0,-1.0,1.0,0.0
1702323941.8904526,-4.0,-11.0,3.0,-1.0,7.0,1.0,-1.0,0.0
1702323941.8904526,2.0,3.0,1.0,3.0,1.0,2.0,0.0,0.0
1702323941.8904526,-2.0,-9.0,-9.0,-1.0,-3.0,-3.0,-1.0,-1.0
1702323941.9302175,0.0,0.0,13.0,4.0,-2.0,-1.0,-1.0,0.0
1702323941.9302175,-1.0,2.0,-4.0,-1.0,-3.0,2.0,-2.0,-3.0
1702323941.9302175,0.0,5.0,10.0,-2.0,0.0,-10.0,-2.0,-1.0
1702323941.9302175,-1.0,-5.0,-5.0,-4.0,-9.0,-2.0,1.0,0.0
1702323941.9302175,-5.0,-1.0,-5.0,-7.0,0.0,-4.0,-5.0,-6.0
1702323941.9302175,0.0,0.0,-10.0,2.0,0.0,0.0,0.0,-1.0
1702323941.9302175,0.0,0.0,22.0,4.0,4.0,7.0,0.0,2.0
1702323941.9302175,3.0,12.0,5.0,5.0,5.0,2.0,0.0,1.0
1702323941.9506412,-3.0,-17.0,-20.0,-3.0,-1.0,-1.0,-1.0,1.0
1702323941.9506412,-1.0,1.0,-2.0,-1.0,-1.0,-2.0,1.0,-1.0
1702323941.9506412,-3.0,-5.0,-1.0,-4.0,-6.0,-2.0,-3.0,-4.0
1702323941.9506412,-2.0,-1.0,-7.0,-4.0,-3.0,-3.0,-3.0,-3.0
1702323941.9702134,2.0,3.0,7.0,1.0,1.0,1.0,0.0,1.0
1702323941.9702134,-1.0,0.0,7.0,-1.0,-2.0,-3.0,-5.0,0.0
1702323941.9702134,-2.0,-1.0,-5.0,-1.0,-2.0,0.0,0.0,-3.0
1702323941.9702134,0.0,0.0,0.0,-3.0,2.0,1.0,-1.0,-1.0
1702323941.9902115,1.0,4.0,10.0,-2.0,-8.0,-5.0,-4.0,-2.0
1702323941.9902115,-2.0,-9.0,-19.0,-1.0,3.0,0.0,0.0,3.0
1702323941.9902115,-2.0,-4.0,1.0,5.0,7.0,4.0,2.0,-3.0
1702323941.9902115,-2.0,-2.0,16.0,1.0,2.0,0.0,-3.0,0.0
1702323942.0106053,-1.0,-3.0,-24.0,-4.0,-9.0,-6.0,-4.0,-2.0
1702323942.0106053,1.0,4.0,3.0,-1.0,-1.0,-2.0,1.0,1.0
1702323942.0106053,-2.0,2.0,5.0,2.0,1.0,0.0,-2.0,0.0
1702323942.0106053,4.0,3.0,-4.0,-4.0,2.0,2.0,5.0,4.0
1702323942.0308044,-1.0,-10.0,6.0,0.0,-2.0,3.0,2.0,0.0
1702323942.0308044,0.0,-1.0,-8.0,-3.0,-7.0,-5.0,-2.0,-2.0
1702323942.0308044,1.0,2.0,3.0,0.0,-5.0,-4.0,-3.0,-1.0
1702323942.0308044,-3.0,0.0,4.0,-3.0,-2.0,0.0,-4.0,-8.0
1702323942.0504892,-2.0,-1.0,12.0,5.0,5.0,1.0,2.0,2.0
1702323942.0504892,1.0,0.0,-11.0,2.0,6.0,2.0,1.0,-1.0
1702323942.0504892,1.0,-2.0,1.0,0.0,-1.0,3.0,1.0,1.0
1702323942.0504892,-2.0,-5.0,-3.0,-4.0,-5.0,-6.0,-3.0,-3.0
1702323942.0708275,-1.0,-1.0,-19.0,-6.0,-2.0,-3.0,-3.0,-3.0
1702323942.0708275,-1.0,1.0,10.0,1.0,3.0,0.0,-1.0,-4.0
1702323942.0708275,2.0,15.0,8.0,1.0,0.0,-1.0,-1.0,3.0
1702323942.0708275,-9.0,-30.0,-40.0,-9.0,-6.0,-1.0,-1.0,-8.0
1702323942.10049,-2.0,-1.0,15.0,1.0,1.0,2.0,1.0,-2.0
1702323942.10049,1.0,-1.0,0.0,1.0,2.0,-3.0,-2.0,-2.0
1702323942.10049,-1.0,1.0,-14.0,-1.0,-2.0,-2.0,-1.0,1.0
1702323942.10049,-1.0,6.0,14.0,-4.0,-2.0,-2.0,-4.0,2.0
1702323942.1204937,2.0,4.0,6.0,6.0,2.0,1.0,1.0,1.0
1702323942.1204937,-4.0,-6.0,-19.0,-6.0,-6.0,0.0,0.0,-5.0
1702323942.1204937,0.0,-4.0,3.0,-3.0,-4.0,-3.0,-2.0,0.0
1702323942.1204937,1.0,3.0,3.0,-2.0,0.0,-4.0,-3.0,0.0
1702323942.1346486,-1.0,-3.0,-1.0,2.0,2.0,2.0,-1.0,-2.0
1702323942.1346486,-1.0,2.0,17.0,-3.0,-3.0,-3.0,0.0,0.0
1702323942.1346486,-2.0,-7.0,-15.0,-4.0,-3.0,-1.0,-2.0,-3.0
1702323942.1346486,1.0,6.0,5.0,1.0,-1.0,2.0,3.0,-1.0
1702323942.154918,0.0,5.0,10.0,0.0,1.0,-1.0,-3.0,1.0
1702323942.154918,0.0,-6.0,-9.0,-5.0,-1.0,3.0,3.0,2.0
1702323942.154918,0.0,-5.0,-8.0,0.0,0.0,0.0,1.0,0.0
1702323942.154918,-2.0,-1.0,-1.0,2.0,-2.0,-1.0,-3.0,-1.0
1702323942.1751986,-1.0,9.0,12.0,-3.0,-7.0,-4.0,1.0,-1.0
1702323942.1751986,-1.0,1.0,2.0,-1.0,2.0,1.0,-3.0,-2.0
1702323942.1751986,-1.0,-3.0,-2.0,3.0,1.0,-1.0,0.0,-3.0
1702323942.1751986,3.0,3.0,0.0,2.0,5.0,3.0,1.0,3.0
1702323942.1852114,-1.0,-6.0,-16.0,-1.0,1.0,-2.0,-4.0,-3.0
1702323942.1852114,-2.0,-5.0,-7.0,-2.0,-8.0,-4.0,-2.0,-2.0
1702323942.1852114,-3.0,0.0,-5.0,-4.0,-5.0,-4.0,-4.0,-2.0
1702323942.1852114,1.0,3.0,19.0,4.0,4.0,0.0,2.0,1.0
1702323942.2149239,-2.0,-6.0,-11.0,-2.0,1.0,0.0,1.0,-1.0
1702323942.2149239,0.0,8.0,7.0,-1.0,-3.0,0.0,-1.0,0.0
1702323942.2149239,0.0,-9.0,-5.0,-1.0,-2.0,2.0,1.0,0.0
1702323942.2149239,-2.0,-2.0,-16.0,-2.0,-3.0,-3.0,-2.0,-1.0
1702323942.2351933,-1.0,-1.0,2.0,-6.0,-2.0,0.0,-2.0,-2.0
1702323942.2351933,-1.0,-2.0,3.0,3.0,2.0,-1.0,-1.0,-3.0
1702323942.2351933,0.0,2.0,2.0,-3.0,-2.0,-2.0,-2.0,0.0
1702323942.2351933,-2.0,-2.0,12.0,-2.0,-7.0,-4.0,-4.0,-3.0
1702323942.2649226,-2.0,-6.0,-29.0,0.0,6.0,1.0,3.0,-2.0
1702323942.2649226,-1.0,1.0,8.0,3.0,2.0,1.0,1.0,9.0
1702323942.2649226,1.0,-2.0,7.0,-1.0,1.0,-1.0,1.0,-4.0
1702323942.2649226,-2.0,-3.0,-4.0,4.0,-2.0,-2.0,-4.0,-2.0
1702323942.2749453,0.0,4.0,4.0,-4.0,-6.0,-3.0,0.0,-2.0
1702323942.2749453,0.0,3.0,32.0,0.0,-1.0,-1.0,-2.0,0.0
1702323942.2749453,-3.0,-5.0,-48.0,-8.0,-1.0,1.0,-1.0,-3.0
1702323942.2749453,1.0,4.0,-5.0,2.0,6.0,9.0,3.0,-1.0
1702323942.2955337,-1.0,-12.0,12.0,2.0,4.0,-7.0,0.0,-1.0
1702323942.2955337,3.0,3.0,7.0,1.0,-3.0,-3.0,-1.0,-4.0
1702323942.2955337,-1.0,1.0,1.0,1.0,-3.0,-2.0,-3.0,3.0
1702323942.2955337,-1.0,-1.0,-14.0,-6.0,-4.0,-3.0,-2.0,-11.0
1702323942.305234,-1.0,1.0,2.0,0.0,-1.0,3.0,4.0,6.0
1702323942.305234,-3.0,-2.0,-5.0,-5.0,-3.0,-1.0,-2.0,-3.0
1702323942.3152332,-3.0,2.0,14.0,-3.0,-4.0,-3.0,0.0,3.0
1702323942.3152332,-1.0,-8.0,-13.0,-2.0,0.0,-3.0,-3.0,-3.0
1702323942.3452258,-1.0,6.0,21.0,-1.0,-4.0,1.0,-3.0,-2.0
1702323942.3452258,-2.0,-7.0,-23.0,-1.0,-1.0,-3.0,-2.0,-8.0
1702323942.3452258,-1.0,5.0,0.0,0.0,-2.0,-2.0,-2.0,6.0
1702323942.3452258,-3.0,-10.0,0.0,-1.0,1.0,0.0,0.0,2.0
1702323942.3552334,-1.0,0.0,4.0,5.0,2.0,1.0,0.0,-2.0
1702323942.3552334,-3.0,0.0,-6.0,-3.0,-1.0,-1.0,-1.0,-1.0
1702323942.3552334,-2.0,-5.0,4.0,-3.0,-1.0,-1.0,-3.0,-8.0
1702323942.3552334,0.0,3.0,11.0,1.0,-2.0,-6.0,0.0,1.0
1702323942.3852274,0.0,2.0,-6.0,-1.0,-1.0,-2.0,-4.0,-4.0
1702323942.3852274,-1.0,-4.0,-8.0,-2.0,-4.0,-1.0,-3.0,-3.0
1702323942.3852274,1.0,0.0,-2.0,1.0,-3.0,2.0,5.0,-2.0
1702323942.3852274,-7.0,-3.0,15.0,-4.0,1.0,-1.0,-2.0,0.0
1702323942.3956177,-1.0,2.0,-7.0,7.0,3.0,4.0,-2.0,0.0
1702323942.3956177,-3.0,-6.0,-15.0,-5.0,-4.0,-11.0,-4.0,-1.0
1702323942.3956177,-1.0,4.0,13.0,-4.0,-8.0,-2.0,1.0,-1.0
1702323942.3956177,0.0,-14.0,-17.0,1.0,1.0,0.0,-5.0,1.0
1702323942.425226,0.0,0.0,8.0,0.0,4.0,-2.0,0.0,-10.0
1702323942.425226,2.0,3.0,10.0,2.0,2.0,3.0,0.0,-1.0
1702323942.425226,0.0,-3.0,-12.0,1.0,-3.0,-2.0,2.0,-2.0
1702323942.425226,-2.0,2.0,1.0,-5.0,-6.0,-5.0,-3.0,-1.0
1702323942.425226,-2.0,-4.0,-2.0,-5.0,-5.0,0.0,-3.0,1.0
1702323942.425226,-2.0,-3.0,2.0,1.0,1.0,1.0,1.0,2.0
1702323942.425226,-2.0,-6.0,5.0,2.0,-1.0,-2.0,-3.0,-2.0
1702323942.425226,3.0,7.0,-25.0,-2.0,5.0,1.0,0.0,0.0
1702323942.4554887,-2.0,-1.0,8.0,1.0,1.0,1.0,-1.0,1.0
1702323942.4554887,-5.0,-4.0,-23.0,-2.0,-3.0,-2.0,0.0,-6.0
1702323942.4554887,-2.0,0.0,10.0,-5.0,1.0,0.0,-2.0,2.0
1702323942.4554887,-2.0,1.0,-6.0,0.0,-5.0,-3.0,2.0,1.0
1702323942.4752278,-1.0,-1.0,2.0,-4.0,-3.0,-4.0,-4.0,-1.0
1702323942.4752278,0.0,2.0,5.0,0.0,-5.0,-1.0,-1.0,2.0
1702323942.4752278,-1.0,-3.0,-15.0,-1.0,0.0,-3.0,-2.0,-5.0
1702323942.4752278,1.0,1.0,1.0,-3.0,-1.0,4.0,1.0,0.0
1702323942.4852521,0.0,2.0,-1.0,-2.0,-1.0,-10.0,-2.0,1.0
1702323942.4852521,0.0,-1.0,9.0,3.0,5.0,2.0,-2.0,0.0
1702323942.4852521,-2.0,-5.0,-22.0,-3.0,1.0,0.0,-2.0,-2.0
1702323942.4852521,1.0,4.0,16.0,4.0,-4.0,0.0,1.0,1.0
1702323942.5152738,-1.0,-3.0,-13.0,-7.0,-5.0,1.0,-2.0,-1.0
1702323942.5152738,-2.0,-2.0,-8.0,-6.0,-4.0,-3.0,-3.0,-2.0
1702323942.5152738,-4.0,-5.0,7.0,3.0,5.0,-1.0,-1.0,-3.0
1702323942.5152738,-1.0,0.0,0.0,-5.0,-1.0,0.0,0.0,-2.0
1702323942.5352268,0.0,-3.0,-2.0,2.0,0.0,0.0,0.0,4.0
1702323942.5352268,2.0,1.0,3.0,2.0,0.0,1.0,1.0,-2.0
1702323942.5352268,0.0,3.0,13.0,-1.0,-2.0,0.0,0.0,0.0
1702323942.5352268,-2.0,-8.0,-28.0,-8.0,-6.0,-4.0,-3.0,3.0
1702323942.5452273,0.0,4.0,3.0,3.0,-2.0,0.0,1.0,-6.0
1702323942.5452273,-3.0,-8.0,-4.0,-3.0,-1.0,0.0,-5.0,-3.0
1702323942.5552313,-1.0,1.0,17.0,4.0,5.0,0.0,0.0,0.0
1702323942.5552313,1.0,-1.0,-4.0,1.0,-2.0,1.0,1.0,-3.0
1702323942.5754938,0.0,-1.0,-7.0,-2.0,-2.0,0.0,-2.0,1.0
1702323942.5754938,-1.0,1.0,0.0,-1.0,1.0,0.0,-1.0,0.0
1702323942.5754938,1.0,-2.0,-1.0,-2.0,-3.0,-1.0,0.0,-3.0
1702323942.5754938,-3.0,-4.0,2.0,-3.0,-4.0,-4.0,-2.0,-2.0
1702323942.615227,-2.0,-1.0,-4.0,1.0,-1.0,-1.0,-1.0,-1.0
1702323942.615227,1.0,6.0,16.0,1.0,-4.0,2.0,1.0,1.0
1702323942.615227,-4.0,-4.0,-20.0,-1.0,1.0,-1.0,-5.0,-4.0
1702323942.615227,0.0,4.0,25.0,6.0,5.0,2.0,3.0,-1.0
1702323942.615227,0.0,-5.0,-10.0,-2.0,3.0,0.0,0.0,0.0
1702323942.615227,-1.0,-2.0,-3.0,-1.0,-1.0,-2.0,0.0,1.0
1702323942.615227,1.0,6.0,8.0,-4.0,-6.0,-4.0,-1.0,1.0
1702323942.615227,-5.0,-9.0,-12.0,-5.0,-5.0,-5.0,-5.0,-3.0
1702323942.6356323,-2.0,-5.0,4.0,-4.0,-4.0,0.0,-2.0,-4.0
1702323942.6356323,-2.0,-3.0,2.0,-2.0,-1.0,0.0,1.0,2.0
1702323942.6356323,1.0,2.0,4.0,1.0,2.0,1.0,2.0,1.0
1702323942.6356323,-1.0,2.0,-2.0,6.0,7.0,1.0,-2.0,0.0
1702323942.6552284,2.0,2.0,4.0,4.0,2.0,1.0,2.0,3.0
1702323942.6552284,-1.0,-3.0,-3.0,-1.0,-2.0,-2.0,-1.0,-1.0
1702323942.6552284,-1.0,-3.0,-21.0,-5.0,-2.0,0.0,-2.0,1.0
1702323942.6552284,-1.0,1.0,3.0,1.0,-2.0,-2.0,-2.0,-6.0
1702323942.6653764,-4.0,-3.0,10.0,-9.0,-8.0,-5.0,-1.0,-3.0
1702323942.6653764,-2.0,-5.0,-29.0,-4.0,-4.0,-2.0,-3.0,-2.0
1702323942.6752322,-1.0,-1.0,14.0,6.0,6.0,2.0,3.0,3.0
1702323942.6752322,3.0,4.0,0.0,8.0,7.0,4.0,0.0,4.0
1702323942.7145245,-1.0,2.0,-1.0,-3.0,-3.0,-3.0,-3.0,-1.0
1702323942.7145245,0.0,-1.0,9.0,-3.0,-1.0,-1.0,0.0,-2.0
1702323942.7145245,-2.0,-8.0,-6.0,-7.0,-9.0,-2.0,-4.0,-5.0
1702323942.7145245,0.0,2.0,1.0,-3.0,0.0,-2.0,0.0,-1.0
1702323942.7145245,-3.0,-5.0,1.0,1.0,-1.0,-1.0,-1.0,0.0
1702323942.7145245,0.0,4.0,-8.0,-4.0,-14.0,-3.0,-1.0,-1.0
1702323942.7145245,-2.0,1.0,9.0,1.0,6.0,-2.0,-3.0,-2.0
1702323942.7145245,1.0,3.0,6.0,3.0,1.0,2.0,3.0,1.0
1702323942.7245474,1.0,5.0,-7.0,1.0,-1.0,-1.0,0.0,-2.0
1702323942.7245474,-3.0,-9.0,-11.0,-2.0,1.0,-2.0,-1.0,-1.0
1702323942.7345266,-1.0,0.0,-2.0,-4.0,-7.0,-6.0,-1.0,-2.0
1702323942.7345266,-1.0,-4.0,7.0,-6.0,-5.0,-3.0,3.0,-1.0
1702323942.7745235,0.0,2.0,3.0,-3.0,0.0,-3.0,-5.0,-3.0
1702323942.7745235,1.0,1.0,-4.0,4.0,4.0,2.0,-2.0,-2.0
1702323942.7745235,-1.0,2.0,19.0,1.0,-2.0,3.0,3.0,5.0
1702323942.7745235,-2.0,-2.0,-22.0,-3.0,-1.0,0.0,0.0,1.0
1702323942.7745235,0.0,3.0,-4.0,2.0,2.0,4.0,-1.0,0.0
1702323942.7745235,-2.0,-10.0,-1.0,-2.0,1.0,-1.0,-3.0,-5.0
1702323942.7845464,2.0,2.0,2.0,2.0,4.0,-2.0,-1.0,-2.0
1702323942.7845464,-2.0,-5.0,-4.0,-4.0,-4.0,-2.0,-4.0,0.0
1702323942.7845464,0.0,-1.0,13.0,0.0,-2.0,2.0,1.0,3.0
1702323942.7845464,0.0,3.0,-14.0,-2.0,1.0,-1.0,1.0,0.0
1702323942.804523,-4.0,-5.0,-6.0,-2.0,-2.0,-1.0,-1.0,-3.0
1702323942.804523,0.0,-1.0,-3.0,-6.0,-7.0,-2.0,-5.0,-4.0
1702323942.814518,-3.0,-3.0,2.0,2.0,4.0,-3.0,-2.0,-2.0
1702323942.814518,-2.0,0.0,11.0,2.0,0.0,1.0,0.0,0.0
1702323942.814518,1.0,1.0,-9.0,-2.0,-2.0,-1.0,2.0,-2.0
1702323942.814518,0.0,0.0,-6.0,-1.0,-2.0,-4.0,-4.0,-3.0
1702323942.8347583,-1.0,-5.0,-7.0,-2.0,-4.0,0.0,7.0,3.0
1702323942.8347583,-1.0,2.0,9.0,-3.0,-4.0,-5.0,-3.0,0.0
1702323942.8347583,-2.0,0.0,-4.0,2.0,6.0,2.0,-2.0,-2.0
1702323942.8347583,-1.0,-1.0,-6.0,-1.0,1.0,1.0,-2.0,-1.0
1702323942.8448606,-2.0,3.0,-3.0,-4.0,-4.0,-8.0,-5.0,-9.0
1702323942.8448606,1.0,-6.0,2.0,1.0,1.0,-1.0,3.0,7.0
1702323942.8648715,0.0,-8.0,-16.0,-3.0,0.0,0.0,-2.0,1.0
1702323942.8648715,0.0,2.0,28.0,1.0,-3.0,-1.0,3.0,0.0
1702323942.875076,-2.0,-4.0,-31.0,-4.0,-3.0,0.0,-2.0,-3.0
1702323942.875076,-1.0,6.0,9.0,-4.0,0.0,3.0,0.0,-3.0
1702323942.875076,0.0,-1.0,-10.0,2.0,0.0,-4.0,-3.0,-1.0
1702323942.875076,-1.0,0.0,10.0,4.0,-3.0,-2.0,-2.0,-1.0
1702323942.8950522,0.0,-3.0,0.0,-2.0,2.0,2.0,0.0,-2.0
1702323942.8950522,0.0,2.0,4.0,4.0,2.0,4.0,0.0,-2.0
1702323942.8950522,1.0,-1.0,4.0,0.0,-2.0,0.0,2.0,0.0
1702323942.8950522,-1.0,-2.0,-9.0,-5.0,-4.0,-2.0,1.0,0.0
1702323942.9051347,-2.0,-4.0,10.0,-1.0,-6.0,-14.0,-8.0,3.0
1702323942.9051347,-3.0,-3.0,-10.0,0.0,1.0,-3.0,1.0,-4.0
1702323942.924871,0.0,1.0,5.0,-1.0,-1.0,3.0,4.0,2.0
1702323942.924871,-2.0,-1.0,1.0,2.0,3.0,0.0,-1.0,2.0
1702323942.9349358,0.0,-2.0,-7.0,-2.0,-2.0,1.0,0.0,0.0
1702323942.9349358,-1.0,2.0,2.0,-3.0,-2.0,-5.0,-6.0,1.0
1702323942.9349358,-1.0,1.0,15.0,0.0,-4.0,-3.0,-3.0,0.0
1702323942.9349358,-1.0,1.0,-17.0,-1.0,1.0,3.0,1.0,-4.0
1702323942.9550235,-1.0,1.0,9.0,1.0,2.0,2.0,-5.0,-7.0
1702323942.9550235,-1.0,-7.0,-17.0,-4.0,-5.0,-1.0,2.0,3.0
1702323942.9550235,-1.0,-3.0,-6.0,-7.0,-8.0,-9.0,1.0,0.0
1702323942.9550235,-2.0,4.0,9.0,-1.0,4.0,-2.0,-1.0,-2.0
1702323942.9848754,1.0,-6.0,-16.0,4.0,5.0,5.0,4.0,0.0
1702323942.9848754,-1.0,2.0,7.0,2.0,3.0,-2.0,-3.0,-1.0
1702323942.9848754,1.0,-1.0,0.0,-1.0,0.0,1.0,-5.0,-3.0
1702323942.9848754,0.0,-1.0,13.0,0.0,-4.0,-2.0,0.0,-1.0
1702323943.0048707,-3.0,2.0,-11.0,-4.0,-3.0,-3.0,1.0,-4.0
1702323943.0048707,1.0,-1.0,9.0,-2.0,-5.0,2.0,0.0,3.0
1702323943.0048707,-1.0,-5.0,-7.0,1.0,-2.0,-1.0,-1.0,-6.0
1702323943.0048707,-1.0,0.0,9.0,0.0,-2.0,-4.0,-3.0,-3.0
1702323943.0150855,-2.0,0.0,1.0,0.0,2.0,6.0,4.0,8.0
1702323943.0150855,2.0,1.0,5.0,1.0,1.0,2.0,6.0,4.0
1702323943.0150855,0.0,2.0,-6.0,2.0,3.0,2.0,3.0,4.0
1702323943.0150855,2.0,1.0,40.0,3.0,1.0,-1.0,-9.0,3.0
1702323943.025103,-3.0,-2.0,-48.0,-10.0,-7.0,-7.0,-5.0,-11.0
1702323943.025103,1.0,-2.0,3.0,3.0,3.0,3.0,2.0,0.0
1702323943.0350566,-2.0,2.0,8.0,-3.0,-6.0,-3.0,-5.0,-7.0
1702323943.0350566,-2.0,1.0,-6.0,0.0,-1.0,-3.0,-1.0,-3.0
1702323943.074871,1.0,-3.0,13.0,1.0,-3.0,0.0,0.0,2.0
1702323943.074871,-2.0,5.0,6.0,-1.0,1.0,0.0,-5.0,-8.0
1702323943.0848699,-2.0,-4.0,-20.0,3.0,3.0,3.0,4.0,1.0
1702323943.0848699,-1.0,-4.0,-18.0,-1.0,4.0,3.0,1.0,0.0
1702323943.0848699,4.0,6.0,15.0,3.0,-2.0,0.0,1.0,2.0
1702323943.0848699,-4.0,-2.0,3.0,0.0,-5.0,-4.0,-1.0,1.0
1702323943.0848699,0.0,-6.0,-10.0,0.0,0.0,1.0,-1.0,0.0
1702323943.0848699,-3.0,-3.0,-2.0,-5.0,-4.0,0.0,0.0,-1.0
1702323943.0949056,-3.0,-4.0,-9.0,1.0,-2.0,-6.0,-1.0,-1.0
1702323943.0949056,0.0,2.0,2.0,-4.0,-1.0,-3.0,-2.0,-2.0
1702323943.0949056,-1.0,0.0,1.0,-5.0,-1.0,-3.0,-3.0,0.0
1702323943.0949056,0.0,-1.0,-12.0,0.0,-1.0,-3.0,1.0,-1.0
1702323943.115157,-3.0,-3.0,10.0,-2.0,-3.0,0.0,-2.0,-4.0
1702323943.115157,0.0,1.0,-11.0,-2.0,0.0,-2.0,-1.0,-3.0
1702323943.115157,0.0,1.0,-4.0,-2.0,2.0,0.0,-1.0,0.0
1702323943.115157,-1.0,-4.0,-7.0,1.0,-1.0,1.0,-1.0,-1.0
1702323943.1350498,1.0,2.0,17.0,9.0,0.0,2.0,0.0,2.0
1702323943.1350498,0.0,-2.0,-8.0,0.0,-4.0,-1.0,-2.0,-3.0
1702323943.1350498,-3.0,-2.0,1.0,0.0,-3.0,-3.0,-4.0,-4.0
1702323943.1350498,-1.0,-1.0,-8.0,-6.0,-2.0,-6.0,-3.0,1.0
1702323943.1648726,-1.0,1.0,13.0,-3.0,2.0,3.0,3.0,2.0
1702323943.1648726,-1.0,4.0,-3.0,3.0,3.0,0.0,3.0,-2.0
1702323943.1648726,-1.0,-3.0,-5.0,-1.0,1.0,0.0,-4.0,-3.0
1702323943.1648726,0.0,0.0,-11.0,0.0,2.0,0.0,-6.0,-3.0
1702323943.1752074,-1.0,-3.0,1.0,-1.0,-2.0,-4.0,-4.0,-4.0
1702323943.1752074,0.0,4.0,2.0,-4.0,-2.0,0.0,-5.0,-5.0
1702323943.1752074,-1.0,10.0,17.0,-5.0,-6.0,-3.0,0.0,-7.0
1702323943.1752074,-4.0,-19.0,-3.0,-4.0,-6.0,-2.0,0.0,-2.0
1702323943.199645,2.0,-2.0,-4.0,-5.0,-1.0,1.0,2.0,-8.0
1702323943.199645,-7.0,-17.0,-15.0,-1.0,-1.0,0.0,8.0,5.0
1702323943.199645,1.0,4.0,-4.0,0.0,2.0,0.0,2.0,6.0
1702323943.199645,1.0,2.0,-12.0,-2.0,2.0,4.0,0.0,0.0
1702323943.2209136,0.0,3.0,-14.0,-5.0,-1.0,-6.0,-4.0,-1.0
1702323943.2209136,0.0,-3.0,34.0,4.0,0.0,-2.0,-8.0,-1.0
1702323943.2209136,0.0,0.0,-1.0,-2.0,-1.0,-1.0,1.0,-5.0
1702323943.2209136,0.0,5.0,-5.0,-4.0,-5.0,-1.0,0.0,0.0
1702323943.2311745,0.0,-1.0,13.0,0.0,-6.0,0.0,-3.0,2.0
1702323943.2311745,-2.0,-3.0,-4.0,2.0,10.0,3.0,-1.0,-5.0
1702323943.2311745,0.0,-6.0,-13.0,3.0,8.0,6.0,1.0,3.0
1702323943.2311745,3.0,9.0,20.0,4.0,1.0,0.0,4.0,0.0
1702323943.251214,-2.0,-4.0,-11.0,-5.0,-5.0,-1.0,-1.0,-1.0
1702323943.251214,0.0,0.0,-11.0,-7.0,-6.0,-6.0,-3.0,2.0
1702323943.261237,0.0,-3.0,3.0,-4.0,-3.0,-3.0,-3.0,1.0
1702323943.261237,-1.0,-1.0,3.0,-2.0,-1.0,-1.0,-2.0,-4.0
1702323943.291231,-2.0,-4.0,-16.0,-1.0,4.0,3.0,2.0,4.0
1702323943.291231,0.0,0.0,-6.0,-1.0,-3.0,-1.0,-4.0,-3.0
1702323943.291231,-2.0,-3.0,-6.0,-2.0,-5.0,3.0,-2.0,-1.0
1702323943.291231,1.0,0.0,8.0,0.0,-2.0,-5.0,1.0,1.0
1702323943.291231,0.0,0.0,7.0,2.0,1.0,2.0,-2.0,0.0
1702323943.291231,0.0,-1.0,-7.0,2.0,1.0,0.0,1.0,-2.0
1702323943.301603,-2.0,0.0,6.0,0.0,-2.0,-3.0,-2.0,-2.0
1702323943.301603,-3.0,-4.0,-8.0,-4.0,-8.0,-5.0,-2.0,-1.0
1702323943.321231,-1.0,-3.0,4.0,-2.0,2.0,0.0,-1.0,2.0
1702323943.321231,0.0,1.0,-10.0,-3.0,-2.0,2.0,0.0,0.0
1702323943.321231,0.0,-1.0,7.0,1.0,1.0,-3.0,-1.0,0.0
1702323943.321231,-1.0,0.0,4.0,7.0,0.0,0.0,-1.0,-1.0
1702323943.3411589,-1.0,-2.0,-20.0,0.0,3.0,-1.0,0.0,0.0
1702323943.3411589,-1.0,1.0,3.0,2.0,2.0,-2.0,-3.0,-1.0
1702323943.3411589,-1.0,-3.0,0.0,-4.0,-3.0,0.0,-1.0,-1.0
1702323943.3411589,-1.0,-2.0,-6.0,-7.0,-5.0,-2.0,-2.0,-2.0
1702323943.3515584,-1.0,-5.0,2.0,5.0,0.0,6.0,-3.0,-4.0
1702323943.3515584,0.0,-1.0,-1.0,-4.0,-5.0,-6.0,0.0,0.0
1702323943.3515584,0.0,-1.0,-1.0,0.0,1.0,-1.0,0.0,0.0
1702323943.3515584,-1.0,-2.0,-9.0,-2.0,-1.0,0.0,0.0,-2.0
1702323943.381167,0.0,1.0,9.0,0.0,2.0,0.0,-3.0,0.0
1702323943.381167,-3.0,-1.0,-7.0,-3.0,-2.0,0.0,-3.0,-1.0
1702323943.381167,-3.0,-1.0,-2.0,-3.0,-7.0,-3.0,-1.0,0.0
1702323943.381167,-1.0,6.0,2.0,-1.0,0.0,-2.0,0.0,0.0
1702323943.4016206,1.0,-2.0,7.0,0.0,3.0,0.0,-2.0,0.0
1702323943.4016206,2.0,2.0,12.0,4.0,3.0,1.0,-5.0,-8.0
1702323943.4016206,2.0,-1.0,-14.0,2.0,2.0,-1.0,1.0,7.0
1702323943.4016206,-5.0,-8.0,-10.0,-5.0,-5.0,-2.0,-2.0,-11.0
1702323943.4214926,-2.0,-4.0,-12.0,-9.0,-5.0,-6.0,-4.0,-4.0
1702323943.4214926,6.0,8.0,1.0,-2.0,0.0,3.0,0.0,6.0
1702323943.4214926,-8.0,-11.0,9.0,0.0,1.0,-3.0,0.0,-7.0
1702323943.4214926,4.0,5.0,-20.0,1.0,4.0,3.0,5.0,7.0
1702323943.4411736,-2.0,-2.0,8.0,-2.0,-7.0,-6.0,-4.0,4.0
1702323943.4411736,-1.0,-4.0,5.0,-2.0,-2.0,-1.0,2.0,-2.0
1702323943.4411736,0.0,-3.0,-17.0,-3.0,-1.0,-1.0,-5.0,-2.0
1702323943.4411736,-2.0,-3.0,7.0,5.0,3.0,1.0,-2.0,-4.0
1702323943.4611728,-1.0,7.0,4.0,2.0,1.0,0.0,4.0,-2.0
1702323943.4611728,-1.0,0.0,4.0,3.0,-1.0,-1.0,-5.0,1.0
1702323943.4611728,-4.0,-3.0,-3.0,-4.0,-9.0,-6.0,-3.0,-4.0
1702323943.4611728,-1.0,2.0,-10.0,-2.0,2.0,-3.0,0.0,0.0
1702323943.4811764,0.0,0.0,10.0,-1.0,0.0,2.0,3.0,-1.0
1702323943.4811764,-3.0,1.0,-1.0,-3.0,-1.0,-4.0,-1.0,-2.0
1702323943.4911692,5.0,4.0,8.0,8.0,3.0,1.0,0.0,0.0
1702323943.4911692,-1.0,-4.0,9.0,-2.0,-1.0,6.0,-2.0,1.0
1702323943.5011678,0.0,1.0,-6.0,-4.0,-6.0,-10.0,-2.0,-3.0
1702323943.5011678,-1.0,-7.0,-11.0,-7.0,-2.0,-1.0,-1.0,-1.0
1702323943.5011678,0.0,1.0,5.0,-3.0,2.0,2.0,3.0,0.0
1702323943.5011678,0.0,-2.0,-4.0,3.0,0.0,0.0,-2.0,1.0
1702323943.521427,0.0,-1.0,-1.0,-4.0,-2.0,1.0,1.0,-1.0
1702323943.521427,-3.0,-3.0,-11.0,-2.0,-5.0,-2.0,-1.0,-1.0
1702323943.521427,-2.0,-1.0,0.0,-1.0,0.0,-3.0,-3.0,-2.0
1702323943.521427,-2.0,-2.0,9.0,-4.0,-3.0,1.0,-2.0,0.0
1702323943.531219,-1.0,-3.0,-16.0,3.0,3.0,0.0,-3.0,-4.0
1702323943.531219,-2.0,-3.0,0.0,-1.0,-4.0,-4.0,-1.0,-2.0
1702323943.531219,-1.0,2.0,1.0,-3.0,-1.0,1.0,-1.0,-1.0
1702323943.531219,0.0,0.0,2.0,0.0,3.0,-6.0,1.0,1.0
1702323943.5512018,-1.0,0.0,6.0,5.0,4.0,1.0,1.0,0.0
1702323943.5512018,0.0,-2.0,-8.0,2.0,0.0,2.0,0.0,0.0
1702323943.5512018,0.0,-1.0,-2.0,-1.0,-9.0,-7.0,-4.0,-2.0
1702323943.5512018,-3.0,-2.0,0.0,-7.0,-7.0,-1.0,-2.0,-1.0
1702323943.581621,-3.0,-2.0,0.0,-4.0,-5.0,-4.0,-3.0,-1.0
1702323943.581621,0.0,1.0,1.0,2.0,8.0,0.0,0.0,0.0
1702323943.581621,0.0,2.0,11.0,0.0,0.0,2.0,-2.0,0.0
1702323943.581621,0.0,-1.0,-9.0,-2.0,-4.0,-2.0,-3.0,-2.0
1702323943.5911832,-1.0,7.0,13.0,1.0,-1.0,0.0,1.0,0.0
1702323943.5911832,-4.0,-18.0,-42.0,-6.0,-4.0,-2.0,-3.0,0.0
1702323943.6011713,-4.0,-9.0,-5.0,0.0,-2.0,-1.0,5.0,0.0
1702323943.6011713,0.0,5.0,21.0,2.0,1.0,-3.0,-2.0,-1.0
1702323943.6111677,0.0,-3.0,-16.0,-6.0,-1.0,-4.0,-5.0,8.0
1702323943.6111677,2.0,9.0,19.0,2.0,-2.0,3.0,1.0,-6.0
1702323943.6111677,-2.0,-3.0,0.0,0.0,0.0,-2.0,-1.0,6.0
1702323943.6111677,-2.0,-9.0,-1.0,0.0,-1.0,-1.0,1.0,-11.0
1702323943.6411288,6.0,16.0,35.0,1.0,0.0,-1.0,1.0,3.0
1702323943.6411288,-8.0,-14.0,-52.0,-8.0,-4.0,-2.0,-7.0,-9.0
1702323943.6411288,3.0,2.0,9.0,4.0,3.0,0.0,2.0,-1.0
1702323943.6411288,-1.0,6.0,9.0,3.0,5.0,0.0,-2.0,-1.0
1702323943.6511383,2.0,-2.0,-6.0,5.0,3.0,2.0,1.0,-2.0
1702323943.6511383,2.0,5.0,6.0,-2.0,-4.0,-2.0,-1.0,0.0
1702323943.661178,-2.0,-8.0,-3.0,-6.0,-7.0,-5.0,-6.0,-10.0
1702323943.661178,-1.0,-1.0,-7.0,-1.0,-3.0,-1.0,-1.0,3.0
1702323943.671434,-1.0,-6.0,-1.0,3.0,1.0,0.0,1.0,-5.0
1702323943.671434,-1.0,5.0,14.0,-3.0,-3.0,-3.0,-3.0,0.0
1702323943.671434,-2.0,0.0,-5.0,-3.0,-3.0,-1.0,-2.0,-1.0
1702323943.671434,-3.0,-3.0,0.0,0.0,4.0,5.0,1.0,2.0
1702323943.7011409,-6.0,-5.0,-12.0,-3.0,-2.0,-11.0,-3.0,-2.0
1702323943.7011409,-1.0,-1.0,12.0,3.0,3.0,1.0,-1.0,-3.0
1702323943.7011409,1.0,3.0,-2.0,-2.0,2.0,0.0,-3.0,2.0
1702323943.7011409,-1.0,-3.0,-9.0,-5.0,-4.0,-1.0,-3.0,2.0
1702323943.7111394,-4.0,-2.0,-2.0,1.0,-3.0,2.0,-1.0,-5.0
1702323943.7111394,-2.0,-1.0,3.0,-4.0,-2.0,-2.0,2.0,0.0
1702323943.7308257,0.0,2.0,-2.0,0.0,1.0,-6.0,-1.0,0.0
1702323943.7318528,-2.0,-1.0,-7.0,-4.0,-9.0,-3.0,-3.0,0.0
1702323943.7396593,-1.0,-3.0,-3.0,-2.0,4.0,4.0,0.0,0.0
1702323943.7405999,2.0,2.0,11.0,7.0,4.0,-1.0,3.0,-1.0
1702323943.7415936,0.0,3.0,-1.0,2.0,1.0,2.0,-1.0,-2.0
1702323943.7415936,-2.0,-5.0,-4.0,0.0,-4.0,3.0,0.0,-1.0
1702323943.7736595,-1.0,-3.0,-2.0,-6.0,-5.0,-12.0,-2.0,-1.0
1702323943.7736595,0.0,0.0,11.0,-6.0,-5.0,-2.0,-3.0,2.0
1702323943.7736595,0.0,1.0,-20.0,0.0,1.0,0.0,-1.0,-3.0
1702323943.7736595,-1.0,-2.0,-6.0,-3.0,-5.0,-3.0,-1.0,-2.0
1702323943.7736595,-1.0,-1.0,-3.0,-5.0,-1.0,3.0,-1.0,-2.0
1702323943.7736595,0.0,-1.0,9.0,4.0,0.0,2.0,1.0,2.0
1702323943.783712,-3.0,3.0,8.0,3.0,0.0,-2.0,-1.0,-1.0
1702323943.783712,-1.0,-3.0,-8.0,1.0,3.0,-1.0,0.0,-2.0
1702323943.7937672,-2.0,-5.0,-3.0,0.0,-3.0,-2.0,-3.0,-3.0
1702323943.7937672,0.0,0.0,-3.0,-1.0,-1.0,-2.0,0.0,1.0
1702323943.7937672,1.0,-3.0,-1.0,-1.0,1.0,0.0,1.0,-1.0
1702323943.7937672,-4.0,-4.0,-2.0,-4.0,2.0,-4.0,-3.0,-3.0
1702323943.8340948,-1.0,0.0,31.0,-1.0,-1.0,2.0,-1.0,2.0
1702323943.8340948,-4.0,-10.0,-45.0,-6.0,-5.0,-5.0,-3.0,-4.0
1702323943.8340948,0.0,1.0,5.0,-3.0,-2.0,-1.0,2.0,1.0
1702323943.8340948,-1.0,1.0,3.0,1.0,1.0,-4.0,-7.0,-4.0
1702323943.8340948,1.0,4.0,12.0,0.0,-1.0,1.0,7.0,6.0
1702323943.8340948,-4.0,-13.0,-13.0,3.0,2.0,3.0,3.0,3.0
1702323943.8416345,2.0,4.0,8.0,0.0,-3.0,0.0,-3.0,-5.0
1702323943.8416345,-2.0,-2.0,9.0,0.0,-2.0,-3.0,-3.0,-9.0
1702323943.85205,-3.0,-2.0,-14.0,-2.0,-2.0,3.0,-1.0,0.0
1702323943.85205,1.0,7.0,-14.0,-6.0,-2.0,-4.0,-1.0,-5.0
1702323943.85205,-5.0,-6.0,-4.0,-4.0,-2.0,3.0,2.0,1.0
1702323943.85205,0.0,4.0,12.0,3.0,1.0,0.0,-1.0,1.0
1702323943.8816645,-1.0,0.0,-8.0,5.0,-2.0,-2.0,-2.0,-6.0
1702323943.8816645,2.0,2.0,9.0,-1.0,2.0,-2.0,-1.0,0.0
1702323943.8916526,-4.0,-2.0,-1.0,2.0,-3.0,-2.0,-6.0,-6.0
1702323943.8916526,5.0,8.0,14.0,-3.0,0.0,0.0,3.0,4.0
1702323943.8916526,-5.0,-8.0,-25.0,-3.0,-1.0,1.0,-3.0,-2.0
1702323943.8916526,-1.0,-4.0,5.0,-2.0,-1.0,-1.0,0.0,0.0
1702323943.901911,-2.0,-2.0,-2.0,-2.0,1.0,-1.0,-1.0,1.0
1702323943.901911,0.0,0.0,-5.0,-2.0,-4.0,-2.0,2.0,1.0
1702323943.9116628,2.0,-1.0,9.0,0.0,-2.0,5.0,0.0,-4.0
1702323943.9116628,-1.0,9.0,-10.0,-3.0,-3.0,-6.0,-4.0,-1.0
1702323943.9116628,-2.0,-9.0,-2.0,0.0,4.0,-1.0,-2.0,0.0
1702323943.9116628,-2.0,-3.0,-3.0,-2.0,0.0,-3.0,-1.0,-1.0
1702323943.9419208,-3.0,-1.0,-3.0,-4.0,0.0,1.0,-2.0,-3.0
1702323943.9419208,-1.0,1.0,16.0,3.0,3.0,1.0,-5.0,-1.0
1702323943.9419208,-1.0,2.0,0.0,-1.0,-3.0,-1.0,3.0,1.0
1702323943.9419208,0.0,1.0,-11.0,-1.0,-3.0,0.0,0.0,0.0
1702323943.952072,-2.0,-3.0,-5.0,-3.0,-5.0,-4.0,0.0,-1.0
1702323943.952072,-2.0,1.0,9.0,2.0,1.0,-1.0,-1.0,-3.0
1702323943.9620426,0.0,2.0,0.0,1.0,-1.0,2.0,1.0,-2.0
1702323943.9620426,0.0,-6.0,-7.0,-2.0,1.0,3.0,0.0,4.0
1702323943.972001,0.0,1.0,-5.0,0.0,2.0,-2.0,-1.0,-1.0
1702323943.972001,1.0,2.0,9.0,-2.0,-3.0,-1.0,0.0,-2.0
1702323943.972001,0.0,-1.0,-3.0,-2.0,-1.0,-1.0,-2.0,-1.0
1702323943.972001,-1.0,3.0,-1.0,1.0,1.0,-2.0,-4.0,-2.0
1702323944.0018785,-2.0,-2.0,7.0,0.0,-2.0,0.0,0.0,-1.0
1702323944.0018785,0.0,-2.0,-11.0,-3.0,-1.0,-2.0,-2.0,0.0
1702323944.0018785,0.0,2.0,-8.0,-2.0,3.0,-1.0,-1.0,1.0
1702323944.0018785,-2.0,-3.0,2.0,3.0,3.0,-3.0,-2.0,-1.0
1702323944.0218334,1.0,2.0,-2.0,-1.0,1.0,-3.0,-3.0,4.0
1702323944.0218334,-2.0,-2.0,8.0,-1.0,-3.0,2.0,1.0,-9.0
1702323944.0218334,0.0,1.0,1.0,-3.0,-8.0,-13.0,-3.0,-4.0
1702323944.0218334,-1.0,0.0,0.0,0.0,-1.0,2.0,3.0,0.0
1702323944.0319805,1.0,-2.0,-3.0,-2.0,3.0,1.0,-2.0,2.0
1702323944.0319805,0.0,2.0,12.0,3.0,-1.0,0.0,-3.0,1.0
1702323944.0319805,0.0,-1.0,-3.0,-4.0,-1.0,0.0,-1.0,-2.0
1702323944.0319805,-3.0,-2.0,-4.0,-2.0,-4.0,-2.0,-1.0,-3.0
1702323944.062022,-3.0,-6.0,8.0,-2.0,-3.0,-3.0,-3.0,-8.0
1702323944.062022,-1.0,-9.0,-25.0,-4.0,0.0,1.0,1.0,0.0
1702323944.062022,-1.0,5.0,8.0,5.0,5.0,4.0,0.0,0.0
1702323944.062022,1.0,2.0,-4.0,-3.0,-6.0,-4.0,1.0,-3.0
1702323944.0820706,-8.0,-12.0,-13.0,-8.0,-7.0,-5.0,-6.0,0.0
1702323944.0820706,1.0,2.0,17.0,3.0,-1.0,-5.0,-1.0,2.0
1702323944.0820706,-2.0,-6.0,3.0,1.0,7.0,3.0,1.0,0.0
1702323944.0820706,2.0,4.0,-6.0,4.0,3.0,2.0,-2.0,3.0
1702323944.091654,3.0,6.0,3.0,2.0,-1.0,-1.0,1.0,-10.0
1702323944.091654,-3.0,0.0,2.0,-2.0,-4.0,1.0,1.0,-2.0
1702323944.1016538,0.0,0.0,7.0,-4.0,-7.0,-3.0,-5.0,-2.0
1702323944.1016538,-2.0,-3.0,-3.0,-4.0,-1.0,1.0,-2.0,-2.0
1702323944.1220138,0.0,-2.0,-3.0,-1.0,0.0,-4.0,-2.0,-1.0
1702323944.1220138,-4.0,-6.0,-10.0,1.0,-2.0,0.0,-4.0,-2.0
1702323944.1220138,0.0,3.0,-10.0,-1.0,-3.0,1.0,0.0,-1.0
1702323944.1220138,-1.0,-2.0,6.0,-4.0,1.0,-1.0,-2.0,0.0
1702323944.1420434,0.0,-1.0,1.0,1.0,1.0,3.0,1.0,0.0
1702323944.1420434,1.0,3.0,2.0,0.0,0.0,2.0,1.0,1.0
1702323944.1420434,0.0,2.0,16.0,2.0,-3.0,-2.0,-3.0,-1.0
1702323944.1420434,-2.0,-8.0,-14.0,-6.0,-4.0,0.0,-1.0,-4.0
1702323944.1516578,0.0,0.0,-10.0,-6.0,-8.0,-9.0,-4.0,-1.0
1702323944.1516578,-1.0,2.0,8.0,6.0,14.0,2.0,-3.0,0.0
1702323944.172015,0.0,-2.0,-4.0,4.0,4.0,3.0,5.0,-1.0
1702323944.172015,-1.0,2.0,4.0,5.0,0.0,-1.0,1.0,-1.0
1702323944.1820734,1.0,1.0,-3.0,-5.0,-3.0,3.0,3.0,0.0
1702323944.1820734,-2.0,-2.0,13.0,-2.0,-8.0,-3.0,-1.0,-1.0
1702323944.1820734,-2.0,-3.0,-14.0,-6.0,-4.0,-6.0,-4.0,-1.0
1702323944.1820734,-5.0,-5.0,2.0,-4.0,-2.0,-2.0,-3.0,-2.0
1702323944.2020972,2.0,9.0,8.0,1.0,-1.0,1.0,2.0,-1.0
1702323944.2020972,-3.0,-13.0,-18.0,-4.0,-2.0,-1.0,-3.0,-3.0
1702323944.2020972,1.0,3.0,18.0,0.0,2.0,1.0,0.0,1.0
1702323944.2020972,-3.0,-3.0,-22.0,-3.0,1.0,-1.0,-2.0,-2.0
1702323944.2216537,-1.0,2.0,5.0,1.0,4.0,-2.0,2.0,5.0
1702323944.2216537,-1.0,0.0,-5.0,-2.0,-8.0,-3.0,2.0,0.0
1702323944.2216537,-3.0,-6.0,3.0,-7.0,-12.0,-2.0,1.0,-3.0
1702323944.2216537,-1.0,0.0,4.0,-2.0,6.0,-2.0,-3.0,-1.0
1702323944.2420473,-1.0,-1.0,-2.0,5.0,7.0,6.0,-3.0,-2.0
1702323944.2420473,2.0,2.0,7.0,2.0,3.0,-5.0,4.0,-2.0
1702323944.2420473,0.0,3.0,-7.0,4.0,0.0,2.0,-2.0,-3.0
1702323944.2420473,0.0,1.0,13.0,1.0,-5.0,0.0,1.0,3.0
1702323944.2630377,-3.0,-6.0,-22.0,-6.0,-5.0,-6.0,-2.0,-9.0
1702323944.2630377,3.0,0.0,3.0,-3.0,-3.0,0.0,1.0,0.0
1702323944.2630377,-2.0,-4.0,-1.0,-1.0,-1.0,-2.0,-4.0,-2.0
1702323944.2630377,1.0,2.0,-6.0,2.0,0.0,0.0,-1.0,-2.0
1702323944.2730358,-1.0,-1.0,7.0,0.0,6.0,2.0,-1.0,-4.0
1702323944.2730358,-1.0,-3.0,-5.0,2.0,-1.0,-1.0,-2.0,0.0
1702323944.2863915,0.0,0.0,-3.0,-1.0,-1.0,-3.0,0.0,-1.0
1702323944.2863915,-1.0,-1.0,0.0,-3.0,-2.0,-1.0,-1.0,-1.0
1702323944.302232,1.0,0.0,-4.0,-2.0,-7.0,-3.0,0.0,2.0
1702323944.302232,0.0,7.0,13.0,-2.0,2.0,-2.0,-2.0,0.0
1702323944.3031592,-3.0,-6.0,-18.0,0.0,-1.0,3.0,-3.0,0.0
1702323944.3031592,0.0,-6.0,-3.0,0.0,1.0,-2.0,0.0,1.0
1702323944.3231492,-1.0,-2.0,-3.0,0.0,-3.0,-3.0,0.0,-2.0
1702323944.3231492,-1.0,0.0,12.0,-1.0,0.0,-3.0,-3.0,-1.0
1702323944.3231492,-2.0,-1.0,-1.0,0.0,0.0,-3.0,-1.0,1.0
1702323944.3231492,-3.0,-1.0,2.0,-4.0,-7.0,-3.0,-4.0,-5.0
1702323944.333355,-3.0,-1.0,1.0,-4.0,-3.0,-2.0,-4.0,-1.0
1702323944.333355,0.0,0.0,-4.0,2.0,2.0,4.0,1.0,-1.0
1702323944.34261,0.0,-1.0,5.0,1.0,2.0,-2.0,-3.0,-3.0
1702323944.34261,2.0,2.0,-6.0,-2.0,-2.0,3.0,3.0,9.0
1702323944.3626254,0.0,1.0,6.0,2.0,3.0,-9.0,-2.0,3.0
1702323944.3626254,-1.0,-1.0,20.0,-3.0,-6.0,-2.0,-4.0,-2.0
1702323944.3626254,-3.0,-7.0,-45.0,-11.0,-4.0,-2.0,-2.0,-4.0
1702323944.3626254,0.0,-2.0,3.0,1.0,5.0,0.0,0.0,-3.0
1702323944.4026246,1.0,1.0,-2.0,1.0,2.0,2.0,1.0,1.0
1702323944.4026246,-1.0,2.0,10.0,0.0,-1.0,1.0,1.0,1.0
1702323944.4026246,1.0,0.0,7.0,-2.0,0.0,-2.0,-2.0,1.0
1702323944.4026246,0.0,7.0,15.0,2.0,-4.0,-4.0,-4.0,-2.0
1702323944.4026246,-2.0,-7.0,-17.0,-1.0,-4.0,-1.0,-1.0,-2.0
1702323944.4026246,-2.0,-4.0,-22.0,-5.0,-7.0,-3.0,-2.0,0.0
1702323944.4026246,0.0,-2.0,7.0,2.0,6.0,2.0,0.0,1.0
1702323944.4026246,0.0,3.0,4.0,2.0,1.0,2.0,1.0,2.0
1702323944.422622,-5.0,-4.0,1.0,-1.0,0.0,2.0,-1.0,-4.0
1702323944.422622,-5.0,-4.0,-20.0,-4.0,-7.0,-5.0,-2.0,-3.0
1702323944.422622,-2.0,-1.0,0.0,-5.0,-4.0,-2.0,0.0,1.0
1702323944.422622,0.0,-2.0,7.0,-2.0,-3.0,-3.0,-3.0,-4.0
1702323944.4526246,1.0,0.0,3.0,-2.0,-1.0,-1.0,-3.0,0.0
1702323944.4526246,1.0,5.0,-3.0,2.0,4.0,2.0,2.0,0.0
1702323944.4526246,1.0,7.0,22.0,3.0,4.0,0.0,0.0,1.0
1702323944.4526246,-4.0,-10.0,-19.0,-1.0,-1.0,-4.0,2.0,0.0
1702323944.4526246,0.0,-1.0,-3.0,-4.0,-4.0,1.0,-2.0,1.0
1702323944.4526246,-1.0,-2.0,-6.0,-3.0,-2.0,-2.0,-2.0,-3.0
1702323944.4629197,0.0,2.0,-4.0,-2.0,4.0,-4.0,1.0,0.0
1702323944.4629197,-1.0,3.0,9.0,-3.0,-4.0,-4.0,-4.0,-4.0
1702323944.4826212,-4.0,-4.0,-5.0,-3.0,-3.0,0.0,0.0,2.0
1702323944.4826212,1.0,2.0,3.0,-2.0,-4.0,-1.0,-2.0,1.0
1702323944.4826212,-1.0,0.0,2.0,-1.0,0.0,1.0,-2.0,0.0
1702323944.4826212,-1.0,-1.0,1.0,1.0,2.0,2.0,-2.0,0.0
1702323944.5026202,0.0,-1.0,10.0,7.0,4.0,0.0,-2.0,-2.0
1702323944.5026202,0.0,-2.0,-29.0,-2.0,2.0,1.0,-2.0,-1.0
1702323944.5026202,-2.0,-1.0,15.0,1.0,-9.0,-2.0,-2.0,0.0
1702323944.5026202,-2.0,-8.0,-29.0,-7.0,-1.0,-2.0,-1.0,-3.0
1702323944.512773,0.0,-1.0,8.0,-1.0,3.0,1.0,2.0,3.0
1702323944.512773,0.0,0.0,9.0,-1.0,0.0,1.0,-1.0,0.0
1702323944.5228221,-1.0,-3.0,-9.0,-3.0,-4.0,-3.0,1.0,-1.0
1702323944.5228221,-2.0,0.0,3.0,-3.0,-7.0,-5.0,-3.0,-2.0
1702323944.5426252,0.0,4.0,1.0,-2.0,-4.0,-2.0,-1.0,-3.0
1702323944.5426252,0.0,4.0,5.0,2.0,9.0,0.0,-1.0,3.0
1702323944.5426252,-2.0,-11.0,-1.0,6.0,3.0,4.0,0.0,-3.0
1702323944.5426252,0.0,0.0,-1.0,1.0,2.0,4.0,2.0,-2.0
1702323944.5826192,-2.0,-1.0,-3.0,-1.0,-3.0,5.0,-2.0,3.0
1702323944.5826192,-4.0,-1.0,-3.0,-8.0,-9.0,-15.0,-4.0,-8.0
1702323944.5826192,-1.0,0.0,-2.0,-4.0,-3.0,0.0,-3.0,-3.0
1702323944.5826192,1.0,0.0,-20.0,1.0,-1.0,1.0,0.0,0.0
1702323944.5826192,-1.0,-1.0,-5.0,-4.0,-7.0,-1.0,0.0,-6.0
1702323944.5826192,-2.0,-1.0,6.0,3.0,2.0,2.0,-1.0,0.0
1702323944.5826192,0.0,4.0,14.0,2.0,4.0,1.0,-2.0,-2.0
1702323944.5826192,-1.0,-6.0,-17.0,-2.0,0.0,1.0,0.0,0.0
1702323944.6026313,-1.0,0.0,-2.0,0.0,-1.0,-4.0,-2.0,-3.0
1702323944.6026313,1.0,0.0,2.0,-4.0,-5.0,0.0,0.0,-1.0
1702323944.6026313,-1.0,-7.0,-16.0,-6.0,-4.0,-3.0,-2.0,2.0
1702323944.6026313,-1.0,2.0,13.0,-2.0,-2.0,-2.0,-1.0,-1.0
1702323944.6230023,-1.0,-1.0,-1.0,2.0,5.0,-1.0,0.0,-1.0
1702323944.6230023,-1.0,-2.0,-1.0,3.0,2.0,3.0,1.0,1.0
1702323944.6230023,-2.0,-3.0,-3.0,-3.0,-8.0,-3.0,-1.0,-1.0
1702323944.6230023,-1.0,1.0,6.0,-5.0,-1.0,-3.0,-2.0,-2.0
1702323944.632623,-1.0,0.0,-4.0,2.0,0.0,-1.0,2.0,3.0
1702323944.632623,-1.0,-3.0,9.0,0.0,1.0,3.0,2.0,-3.0
1702323944.6429145,1.0,6.0,-24.0,-1.0,0.0,-3.0,-1.0,-2.0
