1702323793.8640308,4.0,8.0,-20.0,13.0,4.0,17.0,4.0,3.0
1702323793.8640308,-23.0,13.0,0.0,-7.0,-8.0,-4.0,-14.0,-28.0
1702323793.8640308,0.0,-48.0,-11.0,-18.0,-4.0,-11.0,-2.0,8.0
1702323793.8640308,-12.0,-30.0,-65.0,-10.0,-5.0,7.0,0.0,5.0
1702323793.873953,5.0,17.0,67.0,15.0,8.0,5.0,10.0,11.0
1702323793.873953,4.0,15.0,44.0,4.0,3.0,0.0,5.0,12.0
1702323793.8840318,12.0,24.0,-3.0,7.0,0.0,-10.0,-6.0,-9.0
1702323793.8840318,-2.0,-3.0,-16.0,-4.0,-2.0,9.0,-3.0,1.0
1702323793.9040363,-30.0,-20.0,10.0,1.0,2.0,-11.0,1.0,7.0
1702323793.9040363,-6.0,-4.0,-12.0,-2.0,1.0,11.0,2.0,-2.0
1702323793.9040363,14.0,13.0,25.0,4.0,-3.0,-7.0,-7.0,20.0
1702323793.9040363,-5.0,-17.0,-5.0,-6.0,1.0,-1.0,1.0,-10.0
1702323793.9339492,29.0,12.0,-11.0,3.0,1.0,9.0,1.0,6.0
1702323793.9339492,-10.0,-2.0,1.0,0.0,-2.0,-7.0,12.0,43.0
1702323793.9339492,3.0,36.0,35.0,7.0,-2.0,-14.0,-11.0,-42.0
1702323793.9339492,-19.0,-10.0,2.0,-7.0,-2.0,-7.0,-10.0,-8.0
1702323793.9339492,8.0,-1.0,-3.0,-4.0,-6.0,14.0,-5.0,6.0
1702323793.9339492,10.0,9.0,7.0,5.0,5.0,15.0,18.0,-11.0
1702323793.9442072,7.0,-6.0,-18.0,4.0,5.0,-20.0,12.0,24.0
1702323793.9442072,-8.0,-5.0,-2.0,-5.0,3.0,41.0,5.0,-16.0
1702323793.9645758,26.0,10.0,25.0,4.0,1.0,-3.0,38.0,-5.0
1702323793.9645758,-46.0,-15.0,-9.0,0.0,-3.0,-2.0,-19.0,-27.0
1702323793.9742186,11.0,-2.0,-12.0,-3.0,-4.0,2.0,-27.0,4.0
1702323793.9742186,50.0,2.0,8.0,-3.0,-2.0,-22.0,2.0,5.0
1702323793.984556,-35.0,-1.0,14.0,-7.0,-9.0,-25.0,-89.0,-32.0
1702323793.984556,40.0,-4.0,-54.0,-12.0,-3.0,-1.0,4.0,0.0
1702323793.984556,-117.0,-18.0,39.0,8.0,4.0,9.0,-1.0,-23.0
1702323793.984556,-3.0,3.0,43.0,4.0,-2.0,0.0,15.0,11.0
1702323793.9946127,16.0,2.0,-22.0,2.0,2.0,5.0,27.0,4.0
1702323793.9946127,34.0,5.0,-27.0,-8.0,-4.0,-23.0,1.0,8.0
1702323794.0045898,37.0,18.0,17.0,-1.0,2.0,37.0,4.0,9.0
1702323794.0045898,-13.0,-25.0,10.0,4.0,5.0,19.0,13.0,-6.0
1702323794.0242286,8.0,-6.0,-37.0,2.0,6.0,-8.0,-5.0,15.0
1702323794.0242286,-6.0,18.0,52.0,7.0,-4.0,-11.0,-2.0,-20.0
1702323794.0242286,-2.0,-49.0,-74.0,-17.0,-5.0,-18.0,1.0,10.0
1702323794.0242286,-1.0,4.0,9.0,-5.0,-10.0,-19.0,-1.0,-5.0
1702323794.0486372,-6.0,2.0,3.0,-2.0,6.0,21.0,-11.0,-28.0
1702323794.0486372,2.0,2.0,1.0,-4.0,-4.0,-4.0,-6.0,14.0
1702323794.0506363,-12.0,-3.0,-53.0,-10.0,-3.0,-3.0,6.0,-9.0
1702323794.0506363,-11.0,13.0,73.0,23.0,-3.0,-3.0,-11.0,-4.0
1702323794.0656345,-13.0,3.0,6.0,24.0,24.0,-3.0,8.0,7.0
1702323794.0666442,6.0,0.0,18.0,6.0,-1.0,6.0,-3.0,-2.0
1702323794.0667977,24.0,18.0,13.0,-30.0,4.0,15.0,6.0,-2.0
1702323794.0667977,2.0,-15.0,-56.0,-14.0,-13.0,-13.0,-8.0,5.0
1702323794.086793,7.0,19.0,77.0,4.0,-13.0,-9.0,5.0,-3.0
1702323794.086793,-15.0,-7.0,-51.0,-4.0,4.0,11.0,-4.0,0.0
1702323794.086793,13.0,5.0,25.0,7.0,6.0,-3.0,1.0,4.0
1702323794.086793,-3.0,-12.0,-72.0,-14.0,-1.0,-8.0,-5.0,3.0
1702323794.1070783,-5.0,-9.0,7.0,-14.0,-11.0,-4.0,5.0,-2.0
1702323794.1070783,-6.0,-7.0,7.0,-7.0,-7.0,-1.0,-6.0,-5.0
1702323794.1070783,8.0,8.0,-4.0,7.0,-4.0,-7.0,0.0,4.0
1702323794.1070783,-4.0,-4.0,9.0,-3.0,2.0,-1.0,-1.0,0.0
1702323794.1148689,-4.0,-4.0,-4.0,-5.0,-5.0,0.0,-2.0,-8.0
1702323794.1148689,4.0,-1.0,13.0,9.0,1.0,-3.0,-4.0,-1.0
1702323794.1250947,3.0,2.0,-8.0,5.0,-1.0,-14.0,-2.0,12.0
1702323794.1250947,-15.0,-5.0,15.0,1.0,-1.0,20.0,-7.0,-33.0
1702323794.134945,4.0,39.0,-7.0,-3.0,-3.0,-3.0,0.0,-5.0
1702323794.144887,-17.0,-70.0,-24.0,-6.0,1.0,5.0,5.0,7.0
1702323794.1548796,6.0,-13.0,20.0,12.0,1.0,-3.0,-14.0,-3.0
1702323794.1548796,-2.0,-28.0,-12.0,-7.0,-1.0,-14.0,7.0,26.0
1702323794.1652167,-5.0,15.0,-17.0,-5.0,-3.0,-2.0,-2.0,-8.0
1702323794.1652167,1.0,25.0,-14.0,-7.0,-2.0,-2.0,-1.0,-5.0
1702323794.1652167,2.0,2.0,14.0,12.0,3.0,4.0,5.0,0.0
1702323794.1652167,-3.0,-5.0,-8.0,-5.0,2.0,-4.0,-5.0,1.0
1702323794.1748843,4.0,13.0,-11.0,-3.0,-1.0,3.0,0.0,13.0
1702323794.1748843,-3.0,-35.0,17.0,1.0,-6.0,-1.0,-1.0,-5.0
1702323794.1948798,0.0,-12.0,18.0,-2.0,-10.0,-10.0,-6.0,-5.0
1702323794.1948798,7.0,27.0,-48.0,3.0,3.0,5.0,1.0,3.0
1702323794.2048845,-1.0,-4.0,67.0,16.0,4.0,-2.0,5.0,2.0
1702323794.2048845,9.0,-12.0,-103.0,-29.0,-6.0,-2.0,-4.0,3.0
1702323794.2048845,-18.0,13.0,27.0,8.0,-4.0,5.0,2.0,-7.0
1702323794.2048845,-7.0,-4.0,7.0,-15.0,-6.0,-7.0,-7.0,-10.0
1702323794.225161,1.0,-13.0,-18.0,9.0,2.0,-2.0,-1.0,2.0
1702323794.225161,6.0,28.0,79.0,24.0,12.0,7.0,-1.0,-4.0
1702323794.225161,9.0,3.0,-23.0,-7.0,1.0,3.0,5.0,-6.0
1702323794.225161,-3.0,2.0,7.0,14.0,4.0,-5.0,-2.0,2.0
1702323794.2448845,2.0,-33.0,-23.0,-15.0,-9.0,-1.0,-3.0,0.0
1702323794.2448845,-5.0,11.0,15.0,1.0,-1.0,2.0,2.0,3.0
1702323794.2648797,-7.0,32.0,2.0,1.0,-4.0,-1.0,2.0,-3.0
1702323794.2648797,0.0,-9.0,-22.0,-3.0,-1.0,-4.0,-4.0,2.0
1702323794.2648797,-5.0,-41.0,-4.0,4.0,3.0,1.0,2.0,5.0
1702323794.2648797,10.0,47.0,8.0,-2.0,-4.0,-4.0,-7.0,-12.0
1702323794.2648797,-7.0,-36.0,10.0,2.0,2.0,2.0,17.0,-2.0
1702323794.2648797,6.0,17.0,1.0,-2.0,0.0,-15.0,-11.0,-3.0
1702323794.2850685,-12.0,-37.0,-22.0,-4.0,0.0,3.0,-14.0,-15.0
1702323794.2850685,8.0,13.0,28.0,-5.0,-6.0,-15.0,15.0,12.0
1702323794.2850685,1.0,-12.0,3.0,2.0,4.0,-1.0,-14.0,-5.0
1702323794.2850685,9.0,45.0,-5.0,2.0,1.0,23.0,20.0,10.0
1702323794.314881,-13.0,-41.0,11.0,-7.0,-3.0,-10.0,0.0,-11.0
1702323794.314881,3.0,8.0,-22.0,5.0,5.0,12.0,4.0,-3.0
1702323794.314881,-11.0,-11.0,-10.0,-12.0,-7.0,-8.0,-16.0,-9.0
1702323794.314881,1.0,15.0,63.0,10.0,3.0,2.0,6.0,1.0
1702323794.3248796,3.0,19.0,-94.0,-13.0,-5.0,-4.0,1.0,9.0
1702323794.3248796,-3.0,31.0,43.0,13.0,3.0,-5.0,-7.0,11.0
1702323794.3248796,-6.0,-72.0,-74.0,-17.0,-9.0,-11.0,4.0,1.0
1702323794.3248796,-11.0,-32.0,32.0,-2.0,-1.0,7.0,-10.0,1.0
1702323794.3452766,8.0,26.0,-5.0,-14.0,-16.0,-3.0,4.0,0.0
1702323794.3452766,-9.0,-26.0,40.0,18.0,9.0,0.0,-7.0,-3.0
1702323794.3452766,6.0,35.0,-53.0,2.0,10.0,3.0,0.0,2.0
1702323794.3452766,-7.0,1.0,-13.0,-14.0,-9.0,-10.0,-5.0,-9.0
1702323794.3648791,4.0,7.0,35.0,15.0,6.0,2.0,3.0,3.0
1702323794.3648791,-6.0,-12.0,-33.0,-9.0,-7.0,0.0,-3.0,-6.0
1702323794.3648791,2.0,4.0,30.0,13.0,3.0,5.0,3.0,11.0
1702323794.3648791,2.0,-19.0,-17.0,-14.0,-2.0,-4.0,2.0,5.0
1702323794.374906,2.0,21.0,5.0,-8.0,-6.0,-4.0,-8.0,-14.0
1702323794.374906,-11.0,-14.0,-7.0,-7.0,-9.0,-2.0,-4.0,-29.0
1702323794.3851058,11.0,27.0,23.0,2.0,-3.0,-1.0,4.0,5.0
1702323794.3851058,-2.0,3.0,18.0,-1.0,-4.0,-15.0,-10.0,-5.0
1702323794.4148803,-4.0,-31.0,-64.0,-11.0,1.0,3.0,7.0,7.0
1702323794.4148803,-6.0,1.0,26.0,9.0,3.0,18.0,-6.0,-2.0
1702323794.4148803,11.0,31.0,18.0,1.0,-3.0,-3.0,0.0,15.0
1702323794.4148803,-1.0,-3.0,-22.0,1.0,4.0,7.0,3.0,-1.0
1702323794.4252162,0.0,-4.0,25.0,1.0,-4.0,-3.0,12.0,0.0
1702323794.4252162,-12.0,-17.0,-21.0,-4.0,0.0,-6.0,-11.0,-14.0
1702323794.4252162,5.0,0.0,0.0,-4.0,-2.0,-3.0,-1.0,22.0
1702323794.4252162,-7.0,-10.0,4.0,7.0,3.0,-9.0,-9.0,-5.0
1702323794.4449475,3.0,3.0,23.0,-1.0,-6.0,-1.0,3.0,9.0
1702323794.4449475,0.0,3.0,-10.0,-4.0,-2.0,2.0,-4.0,2.0
1702323794.4449475,-8.0,1.0,9.0,6.0,2.0,5.0,0.0,-5.0
1702323794.4449475,-5.0,-29.0,-17.0,0.0,-4.0,-19.0,4.0,1.0
1702323794.464882,-5.0,39.0,-11.0,-4.0,6.0,7.0,-2.0,-2.0
1702323794.464882,8.0,-14.0,25.0,0.0,-3.0,21.0,11.0,15.0
1702323794.4748793,-7.0,-6.0,10.0,-3.0,-5.0,-1.0,-7.0,-36.0
1702323794.4748793,3.0,-6.0,-19.0,0.0,0.0,-5.0,3.0,4.0
1702323794.485084,-1.0,20.0,8.0,-3.0,-2.0,-13.0,-4.0,-2.0
1702323794.485084,-6.0,-9.0,-39.0,-1.0,1.0,1.0,5.0,6.0
1702323794.485084,-1.0,-5.0,-5.0,-1.0,-2.0,-11.0,-6.0,-16.0
1702323794.485084,-7.0,15.0,35.0,6.0,4.0,3.0,7.0,-5.0
1702323794.4949365,0.0,-3.0,8.0,-1.0,-1.0,9.0,-14.0,4.0
1702323794.5048928,3.0,13.0,3.0,-4.0,1.0,-4.0,3.0,5.0
1702323794.5048928,-3.0,-5.0,-27.0,-6.0,-4.0,3.0,3.0,-3.0
1702323794.5048928,-3.0,-24.0,2.0,-6.0,-12.0,-6.0,-7.0,-3.0
1702323794.5348892,-5.0,-2.0,-2.0,3.0,-1.0,-3.0,-3.0,-9.0
1702323794.5348892,-4.0,-6.0,-13.0,10.0,9.0,-8.0,-1.0,3.0
1702323794.5448825,6.0,10.0,1.0,6.0,10.0,8.0,8.0,9.0
1702323794.5448825,3.0,24.0,-1.0,10.0,2.0,5.0,-3.0,-4.0
1702323794.5448825,0.0,-17.0,29.0,6.0,1.0,-3.0,1.0,0.0
1702323794.5448825,16.0,9.0,9.0,-16.0,-6.0,-6.0,-2.0,6.0
1702323794.5448825,-24.0,-5.0,-14.0,-18.0,-16.0,-8.0,-3.0,-7.0
1702323794.5448825,2.0,13.0,-43.0,13.0,13.0,14.0,2.0,0.0
1702323794.5663278,-16.0,-31.0,9.0,-13.0,-6.0,-3.0,-3.0,-9.0
1702323794.5663278,-8.0,39.0,28.0,8.0,0.0,-8.0,-2.0,-1.0
1702323794.5663278,14.0,-28.0,-1.0,-6.0,0.0,6.0,1.0,4.0
1702323794.5663278,0.0,-15.0,-1.0,-6.0,-10.0,-1.0,-5.0,-2.0
1702323794.58634,8.0,39.0,-7.0,6.0,2.0,1.0,5.0,5.0
1702323794.58634,9.0,0.0,-12.0,-7.0,-3.0,-6.0,-1.0,-10.0
1702323794.58634,-9.0,-4.0,11.0,2.0,-1.0,-4.0,0.0,3.0
1702323794.58634,-8.0,17.0,-5.0,-2.0,-1.0,9.0,-2.0,3.0
1702323794.6094296,-6.0,-44.0,8.0,1.0,1.0,-4.0,0.0,-4.0
1702323794.6094296,5.0,-12.0,-6.0,-5.0,-3.0,0.0,4.0,-4.0
1702323794.6094296,1.0,13.0,2.0,2.0,-1.0,4.0,-1.0,3.0
1702323794.6094296,-3.0,-7.0,15.0,2.0,1.0,-2.0,-1.0,-2.0
1702323794.6161983,-18.0,0.0,-13.0,-5.0,-2.0,-1.0,-5.0,-13.0
1702323794.6161983,0.0,-23.0,-7.0,-2.0,-3.0,-4.0,-2.0,3.0
1702323794.63495,13.0,30.0,0.0,1.0,-2.0,-2.0,-2.0,1.0
1702323794.63495,4.0,-32.0,13.0,-1.0,1.0,2.0,1.0,5.0
1702323794.6450608,-3.0,35.0,-10.0,-1.0,0.0,-2.0,-4.0,-2.0
1702323794.6450608,7.0,5.0,17.0,-7.0,-3.0,-3.0,-1.0,0.0
1702323794.6450608,3.0,19.0,4.0,4.0,1.0,-2.0,0.0,-5.0
1702323794.6450608,2.0,-12.0,-17.0,1.0,-1.0,0.0,-4.0,0.0
1702323794.6650484,11.0,-19.0,-19.0,2.0,-4.0,-3.0,-2.0,1.0
1702323794.6650484,-21.0,7.0,-3.0,-7.0,-3.0,-5.0,-4.0,-1.0
1702323794.6650484,4.0,-9.0,-1.0,2.0,4.0,2.0,-1.0,-3.0
1702323794.6650484,-3.0,17.0,13.0,-5.0,-2.0,-1.0,0.0,-2.0
1702323794.6752825,5.0,33.0,19.0,10.0,5.0,2.0,2.0,0.0
1702323794.6752825,7.0,-8.0,-15.0,-4.0,-4.0,0.0,0.0,15.0
1702323794.695076,-16.0,-78.0,-24.0,-4.0,-3.0,-1.0,0.0,-11.0
1702323794.695076,3.0,9.0,2.0,3.0,-4.0,-1.0,-2.0,-1.0
1702323794.7050667,4.0,-4.0,2.0,-10.0,-2.0,-1.0,3.0,2.0
1702323794.7050667,0.0,26.0,8.0,6.0,-1.0,-1.0,-4.0,0.0
1702323794.7050667,-3.0,39.0,14.0,-3.0,1.0,-1.0,-2.0,1.0
1702323794.7050667,-2.0,-29.0,-8.0,-7.0,-8.0,-3.0,-1.0,-1.0
1702323794.7254095,-7.0,-2.0,-7.0,5.0,3.0,0.0,-2.0,6.0
1702323794.7254095,-7.0,-11.0,-13.0,-4.0,-5.0,-2.0,1.0,-1.0
1702323794.7254095,1.0,-8.0,12.0,1.0,-3.0,-1.0,0.0,9.0
1702323794.7254095,1.0,18.0,11.0,8.0,8.0,1.0,-2.0,-3.0
1702323794.75524,-3.0,-3.0,-2.0,-8.0,-3.0,-3.0,1.0,5.0
1702323794.75524,-3.0,-20.0,-60.0,0.0,3.0,-1.0,-3.0,-5.0
1702323794.75524,-1.0,-2.0,33.0,-5.0,-3.0,-3.0,0.0,-6.0
1702323794.75524,4.0,16.0,1.0,-11.0,-9.0,-4.0,-6.0,-8.0
1702323794.765243,2.0,-7.0,10.0,-4.0,-4.0,-7.0,0.0,22.0
1702323794.765243,-6.0,-7.0,2.0,7.0,6.0,0.0,-12.0,-37.0
1702323794.765243,8.0,12.0,13.0,6.0,1.0,3.0,2.0,2.0
1702323794.765243,18.0,8.0,-6.0,2.0,3.0,0.0,3.0,15.0
1702323794.7855017,-2.0,-10.0,4.0,7.0,-10.0,3.0,-16.0,-28.0
1702323794.7855017,-22.0,-11.0,-18.0,-34.0,-13.0,-9.0,-5.0,7.0
1702323794.7952461,-5.0,7.0,7.0,-4.0,1.0,0.0,4.0,-11.0
1702323794.7952461,-8.0,3.0,26.0,-11.0,-1.0,-1.0,-6.0,-5.0
1702323794.8152394,0.0,-29.0,-75.0,54.0,33.0,6.0,5.0,5.0
1702323794.8152394,-1.0,12.0,85.0,8.0,3.0,3.0,6.0,12.0
1702323794.8152394,-20.0,-16.0,-45.0,-5.0,-9.0,-12.0,-5.0,-4.0
1702323794.8152394,21.0,11.0,21.0,-2.0,-10.0,0.0,-1.0,1.0
1702323794.8254817,1.0,23.0,-41.0,-10.0,-8.0,-5.0,7.0,-2.0
1702323794.8254817,-17.0,18.0,74.0,3.0,16.0,-2.0,0.0,-8.0
1702323794.8254817,10.0,-18.0,-2.0,-4.0,-12.0,-3.0,-11.0,14.0
1702323794.8254817,-18.0,-9.0,-75.0,-9.0,1.0,-11.0,-6.0,16.0
1702323794.845578,13.0,13.0,15.0,-5.0,-3.0,-13.0,-3.0,-15.0
1702323794.845578,10.0,-30.0,-32.0,13.0,-8.0,36.0,7.0,-21.0
1702323794.845578,15.0,17.0,-9.0,-8.0,5.0,-5.0,-2.0,18.0
1702323794.845578,-8.0,18.0,19.0,-1.0,-6.0,1.0,1.0,-5.0
1702323794.8652384,3.0,-4.0,73.0,5.0,9.0,4.0,2.0,4.0
1702323794.8652384,-3.0,7.0,-48.0,8.0,8.0,-18.0,-3.0,1.0
1702323794.8652384,-2.0,4.0,70.0,15.0,6.0,15.0,6.0,0.0
1702323794.8652384,11.0,-11.0,-92.0,-11.0,-2.0,0.0,4.0,-11.0
1702323794.8852756,-12.0,0.0,-81.0,-43.0,-13.0,0.0,-4.0,10.0
1702323794.8852756,-11.0,-46.0,15.0,-14.0,-19.0,-13.0,-2.0,6.0
1702323794.8852756,3.0,5.0,-62.0,5.0,-1.0,0.0,-1.0,-11.0
1702323794.8852756,-14.0,-1.0,53.0,8.0,6.0,-8.0,-2.0,-18.0
1702323794.9055276,1.0,-5.0,69.0,0.0,-4.0,15.0,-1.0,4.0
1702323794.9055276,9.0,-10.0,-13.0,5.0,1.0,-10.0,6.0,1.0
1702323794.9055276,-2.0,17.0,-34.0,-6.0,-4.0,2.0,-12.0,42.0
1702323794.9055276,-9.0,-13.0,47.0,10.0,8.0,2.0,7.0,-72.0
1702323794.9352388,-5.0,-16.0,-20.0,-13.0,-11.0,1.0,-11.0,-6.0
1702323794.9352388,5.0,-1.0,-31.0,-2.0,-1.0,-3.0,-1.0,-10.0
1702323794.9352388,2.0,45.0,42.0,18.0,10.0,-1.0,2.0,-27.0
1702323794.9352388,-27.0,-80.0,-19.0,-28.0,-17.0,-22.0,-7.0,15.0
1702323794.9452713,13.0,6.0,35.0,13.0,9.0,8.0,2.0,13.0
1702323794.9452713,3.0,70.0,0.0,-1.0,-1.0,7.0,-9.0,2.0
1702323794.9452713,0.0,29.0,-10.0,-12.0,-7.0,-15.0,9.0,-2.0
1702323794.9452713,-1.0,8.0,35.0,10.0,4.0,13.0,-15.0,35.0
1702323794.965688,7.0,10.0,-37.0,5.0,-1.0,-4.0,-4.0,-7.0
1702323794.965688,2.0,-6.0,53.0,7.0,4.0,-11.0,-18.0,58.0
1702323794.965688,-7.0,-41.0,-48.0,-8.0,1.0,20.0,24.0,-28.0
1702323794.965688,8.0,32.0,-8.0,5.0,1.0,1.0,17.0,22.0
1702323794.9852393,-12.0,-27.0,39.0,-4.0,-2.0,2.0,-1.0,-22.0
1702323794.9852393,4.0,5.0,-3.0,-3.0,-4.0,-6.0,-5.0,2.0
1702323794.9852393,-6.0,-7.0,5.0,-4.0,-4.0,-17.0,-11.0,-13.0
1702323794.9852393,1.0,-4.0,-24.0,-7.0,1.0,19.0,0.0,-3.0
1702323795.0055234,0.0,21.0,23.0,7.0,2.0,-4.0,6.0,8.0
1702323795.0055234,1.0,-1.0,-25.0,2.0,-2.0,1.0,0.0,-14.0
1702323795.0055234,-1.0,-23.0,-15.0,-30.0,-16.0,-14.0,-1.0,0.0
1702323795.0055234,-1.0,10.0,-6.0,3.0,-1.0,-5.0,10.0,4.0
1702323795.0452366,-9.0,1.0,-12.0,-14.0,-3.0,-7.0,-23.0,-14.0
1702323795.0452366,1.0,-15.0,0.0,24.0,22.0,25.0,2.0,-5.0
1702323795.0452366,-1.0,-13.0,12.0,6.0,2.0,8.0,1.0,1.0
1702323795.0452366,7.0,25.0,10.0,4.0,1.0,-16.0,-12.0,17.0
1702323795.0452366,-4.0,-3.0,25.0,2.0,-6.0,15.0,13.0,-6.0
1702323795.0452366,-2.0,20.0,-34.0,-21.0,-10.0,-1.0,1.0,5.0
1702323795.0452366,-5.0,-48.0,-21.0,-10.0,-6.0,-1.0,-3.0,-9.0
1702323795.0452366,2.0,1.0,6.0,4.0,8.0,10.0,-6.0,-2.0
1702323795.0654864,0.0,16.0,11.0,0.0,-6.0,-25.0,-5.0,-19.0
1702323795.0654864,3.0,-21.0,-2.0,-2.0,-6.0,0.0,-2.0,5.0
1702323795.0654864,-6.0,14.0,15.0,3.0,2.0,-2.0,-1.0,7.0
1702323795.0654864,0.0,2.0,-11.0,1.0,0.0,-1.0,5.0,4.0
1702323795.085238,-3.0,-18.0,2.0,4.0,3.0,2.0,3.0,6.0
1702323795.085238,2.0,28.0,5.0,-17.0,-11.0,-3.0,6.0,-12.0
1702323795.085238,-3.0,14.0,21.0,2.0,-11.0,-5.0,-9.0,-2.0
1702323795.085238,-4.0,-36.0,-38.0,22.0,6.0,3.0,0.0,-7.0
1702323795.112661,4.0,16.0,9.0,-1.0,6.0,5.0,2.0,9.0
1702323795.112661,-2.0,-28.0,-33.0,0.0,13.0,-3.0,2.0,-8.0
1702323795.112661,7.0,18.0,71.0,12.0,13.0,5.0,3.0,7.0
1702323795.1136656,-6.0,4.0,-23.0,-10.0,-6.0,0.0,-4.0,-6.0
1702323795.1260805,8.0,10.0,2.0,-11.0,-14.0,-7.0,-3.0,1.0
1702323795.1260805,11.0,-17.0,-101.0,-22.0,-13.0,-6.0,2.0,3.0
1702323795.1260805,-7.0,1.0,82.0,-3.0,-4.0,-1.0,-7.0,-5.0
1702323795.1260805,-6.0,8.0,4.0,20.0,6.0,2.0,2.0,-3.0
1702323795.1654377,-8.0,-3.0,12.0,27.0,5.0,-6.0,-2.0,-4.0
1702323795.1654377,0.0,-7.0,21.0,3.0,2.0,-1.0,2.0,-2.0
1702323795.1654377,5.0,-11.0,-33.0,-6.0,2.0,3.0,-3.0,3.0
1702323795.1654377,-2.0,7.0,6.0,-18.0,-12.0,-5.0,-4.0,-2.0
1702323795.1754327,-2.0,-15.0,-67.0,-14.0,0.0,-1.0,3.0,4.0
1702323795.1754327,6.0,-1.0,60.0,11.0,0.0,0.0,0.0,-2.0
1702323795.1754327,-8.0,15.0,-33.0,6.0,5.0,0.0,-2.0,-2.0
1702323795.1754327,-7.0,-34.0,22.0,-7.0,-4.0,-1.0,-2.0,1.0
1702323795.1857674,4.0,-5.0,-24.0,-6.0,-1.0,1.0,0.0,-1.0
1702323795.1857674,-9.0,7.0,10.0,-1.0,-6.0,-2.0,-1.0,-8.0
1702323795.1857674,2.0,-10.0,-19.0,0.0,0.0,-2.0,-2.0,4.0
1702323795.1857674,7.0,9.0,6.0,-1.0,0.0,0.0,-2.0,0.0
1702323795.205434,-5.0,2.0,-2.0,-1.0,-3.0,1.0,0.0,3.0
1702323795.205434,1.0,14.0,6.0,-6.0,2.0,-2.0,0.0,-2.0
1702323795.205434,-7.0,-67.0,-16.0,0.0,-1.0,-2.0,-2.0,-4.0
1702323795.205434,3.0,8.0,-8.0,-3.0,-1.0,-2.0,-2.0,9.0
1702323795.2258613,-1.0,-28.0,3.0,2.0,-1.0,-1.0,1.0,2.0
1702323795.2258613,-1.0,27.0,16.0,-1.0,-5.0,-4.0,-1.0,-3.0
1702323795.2258613,-3.0,9.0,-19.0,5.0,0.0,0.0,-5.0,-7.0
1702323795.2258613,5.0,-7.0,-2.0,0.0,0.0,1.0,5.0,3.0
1702323795.255435,-6.0,5.0,5.0,-9.0,-4.0,-3.0,3.0,-9.0
1702323795.255435,-6.0,-8.0,-4.0,-9.0,-7.0,-6.0,-3.0,-4.0
1702323795.255435,4.0,9.0,-9.0,-11.0,-3.0,1.0,1.0,4.0
1702323795.255435,4.0,-4.0,-3.0,4.0,1.0,-1.0,-5.0,-9.0
1702323795.2654426,-3.0,11.0,10.0,-5.0,-4.0,-2.0,-1.0,1.0
1702323795.2654426,-13.0,-13.0,-8.0,4.0,0.0,-3.0,0.0,-1.0
1702323795.2654426,8.0,12.0,-11.0,3.0,6.0,1.0,0.0,0.0
1702323795.2654426,-3.0,5.0,14.0,-5.0,1.0,1.0,0.0,-5.0
1702323795.2856576,-4.0,8.0,8.0,-8.0,-2.0,-3.0,-3.0,-1.0
1702323795.2856576,-1.0,-26.0,-32.0,0.0,-3.0,-1.0,-2.0,2.0
1702323795.2856576,3.0,9.0,10.0,4.0,-3.0,0.0,-2.0,0.0
1702323795.2856576,-9.0,-29.0,-28.0,-12.0,0.0,-4.0,-3.0,-8.0
1702323795.3057086,2.0,5.0,1.0,7.0,8.0,2.0,2.0,6.0
1702323795.3057086,0.0,6.0,15.0,6.0,-3.0,-4.0,-2.0,0.0
1702323795.3057086,0.0,21.0,-4.0,1.0,-4.0,-3.0,-2.0,-2.0
1702323795.3057086,-2.0,0.0,10.0,-2.0,-5.0,-3.0,-2.0,-2.0
1702323795.3354347,-1.0,3.0,-7.0,-3.0,-3.0,0.0,-1.0,-8.0
1702323795.3354347,-2.0,-9.0,13.0,-9.0,-1.0,2.0,0.0,0.0
1702323795.3354347,-1.0,-3.0,-18.0,4.0,-2.0,-4.0,-1.0,-1.0
1702323795.3354347,-4.0,8.0,9.0,4.0,1.0,1.0,-2.0,-4.0
1702323795.345466,1.0,-2.0,-6.0,-10.0,-1.0,-1.0,-3.0,4.0
1702323795.345466,5.0,8.0,9.0,6.0,4.0,4.0,3.0,2.0
1702323795.345466,2.0,10.0,11.0,2.0,1.0,-2.0,-2.0,-2.0
1702323795.345466,-1.0,-19.0,-32.0,-10.0,-6.0,1.0,-2.0,-1.0
1702323795.3754337,-3.0,-4.0,4.0,2.0,-6.0,-12.0,-4.0,-2.0
1702323795.3754337,0.0,8.0,5.0,4.0,3.0,12.0,-1.0,-3.0
1702323795.3754337,-6.0,-19.0,-4.0,-5.0,-3.0,0.0,-1.0,0.0
1702323795.3754337,0.0,14.0,7.0,-8.0,-2.0,-10.0,0.0,3.0
1702323795.3856988,1.0,-2.0,-6.0,7.0,1.0,9.0,1.0,0.0
1702323795.3856988,13.0,3.0,10.0,17.0,6.0,-2.0,2.0,5.0
1702323795.3856988,3.0,-8.0,-15.0,-10.0,-3.0,-3.0,0.0,-1.0
1702323795.3856988,-21.0,10.0,23.0,7.0,0.0,3.0,0.0,-9.0
1702323795.42544,-11.0,-4.0,-2.0,-3.0,-3.0,-3.0,-3.0,-3.0
1702323795.42544,-2.0,-5.0,-9.0,-6.0,1.0,-5.0,-4.0,-5.0
1702323795.435434,2.0,-2.0,1.0,7.0,0.0,1.0,-2.0,-1.0
1702323795.435434,11.0,9.0,4.0,-8.0,-1.0,-3.0,1.0,0.0
1702323795.435434,0.0,-4.0,-7.0,6.0,9.0,5.0,0.0,1.0
1702323795.435434,-8.0,-6.0,2.0,8.0,5.0,-2.0,-2.0,-3.0
1702323795.435434,1.0,-4.0,4.0,13.0,4.0,5.0,1.0,1.0
1702323795.435434,5.0,6.0,0.0,-15.0,-1.0,1.0,1.0,-1.0
1702323795.4456468,1.0,-1.0,0.0,11.0,-8.0,-4.0,-3.0,1.0
1702323795.4456468,-5.0,5.0,20.0,4.0,3.0,-1.0,-2.0,-1.0
1702323795.4456468,-3.0,-4.0,2.0,-6.0,-1.0,-3.0,-2.0,0.0
1702323795.4456468,1.0,7.0,-2.0,1.0,-6.0,-1.0,-4.0,-7.0
1702323795.4754374,4.0,-6.0,-16.0,-13.0,-3.0,0.0,-1.0,0.0
1702323795.4754374,-6.0,-10.0,-27.0,-12.0,-10.0,-4.0,0.0,-2.0
1702323795.4854364,7.0,3.0,22.0,0.0,1.0,0.0,0.0,-2.0
1702323795.4854364,-11.0,13.0,29.0,7.0,3.0,4.0,1.0,4.0
1702323795.4854364,-2.0,-9.0,-27.0,-5.0,1.0,-2.0,-1.0,-2.0
1702323795.4854364,-5.0,6.0,-4.0,-4.0,-5.0,-1.0,-3.0,-1.0
1702323795.4854364,-4.0,-23.0,-9.0,-6.0,-5.0,-2.0,-1.0,1.0
1702323795.4854364,11.0,0.0,1.0,10.0,2.0,1.0,-1.0,1.0
1702323795.5058682,1.0,7.0,7.0,-1.0,6.0,0.0,1.0,-1.0
1702323795.5058682,4.0,2.0,-24.0,-7.0,-4.0,-2.0,0.0,1.0
1702323795.5058682,-6.0,3.0,11.0,-7.0,-2.0,-2.0,-2.0,-3.0
1702323795.5058682,2.0,0.0,-10.0,1.0,-2.0,-1.0,-1.0,1.0
1702323795.5154505,-4.0,-4.0,10.0,-3.0,-5.0,1.0,-1.0,1.0
1702323795.5154505,1.0,-6.0,1.0,-1.0,0.0,-3.0,-1.0,0.0
1702323795.5154505,-1.0,3.0,-7.0,11.0,0.0,-1.0,-2.0,-2.0
1702323795.5154505,-2.0,-7.0,-13.0,-6.0,0.0,1.0,-1.0,-2.0
1702323795.5354338,-1.0,6.0,5.0,-6.0,-9.0,-5.0,-3.0,-2.0
1702323795.5354338,9.0,15.0,19.0,-13.0,-8.0,0.0,-1.0,-2.0
1702323795.545481,-15.0,-29.0,-40.0,-3.0,4.0,1.0,-1.0,-2.0
1702323795.545481,0.0,-4.0,-11.0,-6.0,2.0,-2.0,-1.0,1.0
1702323795.5555978,-1.0,1.0,22.0,4.0,7.0,3.0,0.0,0.0
1702323795.5555978,7.0,15.0,-2.0,6.0,-2.0,1.0,2.0,-1.0
1702323795.5654414,-8.0,-14.0,3.0,-3.0,-4.0,-2.0,-4.0,-4.0
1702323795.5654414,4.0,1.0,-14.0,-4.0,-3.0,-2.0,-2.0,0.0
1702323795.5757213,-4.0,-13.0,1.0,-1.0,-5.0,-4.0,-1.0,-2.0
1702323795.5757213,-5.0,5.0,17.0,1.0,-1.0,-3.0,-3.0,-3.0
1702323795.5854404,1.0,0.0,3.0,-9.0,-3.0,-1.0,0.0,1.0
1702323795.5854404,-1.0,-13.0,-31.0,23.0,5.0,2.0,-2.0,-2.0
1702323795.6154373,0.0,8.0,2.0,-17.0,-6.0,-3.0,-4.0,-3.0
1702323795.6154373,-4.0,-16.0,-30.0,3.0,7.0,2.0,0.0,-1.0
1702323795.6154373,1.0,1.0,25.0,-9.0,-5.0,-3.0,0.0,-2.0
1702323795.6154373,14.0,14.0,-3.0,8.0,-1.0,-3.0,1.0,3.0
1702323795.6154373,-6.0,-14.0,31.0,0.0,2.0,0.0,0.0,-2.0
1702323795.6154373,-10.0,-23.0,-37.0,-10.0,-4.0,-1.0,-2.0,1.0
1702323795.6287093,4.0,0.0,-29.0,-5.0,-3.0,-2.0,-3.0,-19.0
1702323795.6287093,4.0,-4.0,7.0,-5.0,-2.0,-3.0,-1.0,2.0
1702323795.6450791,7.0,17.0,22.0,12.0,5.0,4.0,-7.0,-8.0
1702323795.6450791,-5.0,-10.0,20.0,-6.0,-4.0,-6.0,6.0,4.0
1702323795.6450791,-2.0,13.0,4.0,9.0,4.0,-14.0,-2.0,8.0
1702323795.6450791,3.0,1.0,-3.0,1.0,-3.0,16.0,3.0,-8.0
1702323795.6561358,-3.0,-7.0,-20.0,-2.0,2.0,1.0,-1.0,3.0
1702323795.6561358,3.0,-4.0,9.0,-1.0,-3.0,-23.0,-1.0,-3.0
1702323795.6662233,0.0,9.0,-3.0,5.0,3.0,29.0,4.0,-5.0
1702323795.6662233,-1.0,-3.0,10.0,-2.0,-3.0,-29.0,-29.0,9.0
1702323795.676445,8.0,-2.0,-9.0,-5.0,-5.0,16.0,31.0,10.0
1702323795.676445,-10.0,2.0,4.0,3.0,2.0,16.0,23.0,-1.0
1702323795.6864767,7.0,8.0,-5.0,1.0,0.0,-17.0,6.0,6.0
1702323795.6864767,-9.0,-9.0,5.0,-5.0,2.0,8.0,-33.0,-4.0
1702323795.706173,2.0,0.0,-24.0,2.0,0.0,-11.0,-4.0,21.0
1702323795.706173,28.0,7.0,27.0,6.0,-5.0,-4.0,-14.0,-1.0
1702323795.706173,-33.0,17.0,4.0,-7.0,-8.0,-10.0,-55.0,-12.0
1702323795.706173,-20.0,-3.0,14.0,4.0,3.0,5.0,8.0,-29.0
1702323795.7164326,-18.0,-27.0,-41.0,-20.0,-7.0,-10.0,-2.0,-1.0
1702323795.7164326,-20.0,-12.0,-10.0,9.0,-1.0,5.0,23.0,0.0
1702323795.7261982,-4.0,-1.0,18.0,1.0,1.0,0.0,21.0,12.0
1702323795.7261982,28.0,3.0,-22.0,0.0,-6.0,-2.0,15.0,12.0
1702323795.7364466,8.0,31.0,50.0,12.0,11.0,4.0,0.0,-10.0
1702323795.7364466,7.0,-17.0,-92.0,-27.0,-6.0,-2.0,-9.0,-1.0
1702323795.7464705,0.0,-26.0,-3.0,-5.0,-1.0,3.0,1.0,-5.0
1702323795.7464705,-16.0,2.0,-6.0,-3.0,0.0,-3.0,3.0,-3.0
1702323795.7661824,11.0,16.0,52.0,5.0,-3.0,-17.0,8.0,7.0
1702323795.7661824,7.0,8.0,8.0,-1.0,2.0,13.0,-8.0,5.0
1702323795.7661824,16.0,17.0,-13.0,13.0,8.0,6.0,12.0,11.0
1702323795.7661824,-11.0,-34.0,-45.0,-19.0,-4.0,7.0,22.0,1.0
1702323795.7867844,3.0,-4.0,-3.0,3.0,-2.0,3.0,-19.0,-5.0
1702323795.7867844,-13.0,11.0,9.0,4.0,3.0,-4.0,-8.0,-3.0
1702323795.7867844,10.0,10.0,59.0,7.0,-3.0,1.0,-1.0,-4.0
1702323795.7867844,-25.0,9.0,7.0,7.0,4.0,0.0,4.0,-2.0
1702323795.796771,6.0,29.0,-53.0,-11.0,-6.0,-3.0,-13.0,-9.0
1702323795.796771,-19.0,-51.0,13.0,3.0,1.0,-14.0,-10.0,-17.0
1702323795.8067472,-9.0,-20.0,-43.0,-6.0,1.0,15.0,5.0,-15.0
1702323795.8067472,10.0,20.0,34.0,8.0,-1.0,-13.0,-2.0,-7.0
1702323795.8263872,16.0,11.0,11.0,-2.0,-3.0,7.0,-1.0,61.0
1702323795.8263872,-8.0,-19.0,17.0,6.0,1.0,1.0,-3.0,-13.0
1702323795.8263872,-4.0,-13.0,-38.0,-11.0,-6.0,-20.0,-2.0,-8.0
1702323795.8263872,1.0,2.0,-9.0,-4.0,-2.0,8.0,-2.0,-15.0
1702323795.8366575,1.0,9.0,15.0,3.0,3.0,14.0,-9.0,-29.0
1702323795.8366575,-1.0,0.0,23.0,-11.0,-5.0,-10.0,-3.0,3.0
1702323795.8463933,6.0,22.0,-60.0,-2.0,2.0,5.0,5.0,-4.0
1702323795.8463933,-19.0,-43.0,19.0,-1.0,-1.0,-4.0,-5.0,7.0
1702323795.8763888,3.0,-25.0,13.0,11.0,3.0,-12.0,4.0,-11.0
1702323795.8763888,11.0,49.0,6.0,-17.0,-11.0,0.0,-6.0,-7.0
1702323795.8763888,-18.0,34.0,25.0,0.0,0.0,1.0,-7.0,3.0
1702323795.8763888,18.0,-15.0,-8.0,-2.0,3.0,-3.0,3.0,7.0
1702323795.8763888,-22.0,-13.0,11.0,-3.0,4.0,2.0,1.0,-12.0
1702323795.8763888,-22.0,14.0,-32.0,9.0,-3.0,0.0,-7.0,2.0
1702323795.896392,5.0,-10.0,1.0,-2.0,-5.0,-6.0,0.0,0.0
1702323795.896392,5.0,26.0,46.0,18.0,0.0,1.0,1.0,0.0
1702323795.906515,0.0,-23.0,-44.0,-15.0,-5.0,-1.0,-1.0,-3.0
1702323795.906515,12.0,-1.0,3.0,2.0,8.0,6.0,1.0,4.0
1702323795.906515,10.0,8.0,-19.0,-14.0,-3.0,-2.0,2.0,7.0
1702323795.906515,-2.0,14.0,21.0,-3.0,-5.0,-6.0,-5.0,-2.0
1702323795.9363885,-4.0,-1.0,18.0,1.0,1.0,0.0,21.0,12.0
1702323795.9363885,28.0,3.0,-22.0,0.0,-6.0,-2.0,15.0,12.0
1702323795.9363885,8.0,31.0,50.0,12.0,11.0,4.0,0.0,-10.0
1702323795.9363885,7.0,-17.0,-92.0,-27.0,-6.0,-2.0,-9.0,-1.0
1702323795.9363885,0.0,-26.0,-3.0,-5.0,-1.0,3.0,1.0,-5.0
1702323795.9363885,-16.0,2.0,-6.0,-3.0,0.0,-3.0,3.0,-3.0
1702323795.9363885,10.0,18.0,36.0,-7.0,-6.0,-9.0,1.0,1.0
1702323795.9363885,-5.0,-35.0,-8.0,-2.0,0.0,-9.0,-3.0,3.0
1702323795.9363885,-5.0,-12.0,-11.0,6.0,4.0,4.0,-3.0,-4.0
1702323795.9363885,-5.0,-25.0,4.0,1.0,1.0,-5.0,12.0,-8.0
1702323795.9467485,15.0,5.0,-7.0,0.0,1.0,-10.0,-4.0,6.0
1702323795.9467485,-3.0,-4.0,-16.0,-9.0,-7.0,3.0,0.0,-16.0
1702323795.9667346,-3.0,-15.0,-20.0,-2.0,-5.0,-1.0,-3.0,-2.0
1702323795.9667346,-10.0,-7.0,35.0,-1.0,-2.0,8.0,-21.0,23.0
1702323795.9667346,4.0,-11.0,43.0,15.0,6.0,16.0,19.0,-11.0
1702323795.9667346,1.0,40.0,-32.0,0.0,-1.0,-2.0,-7.0,-1.0
1702323795.986392,-1.0,-3.0,27.0,-4.0,-7.0,-6.0,-4.0,-3.0
1702323795.986392,0.0,18.0,11.0,0.0,1.0,0.0,8.0,-4.0
1702323795.986392,-6.0,-27.0,-9.0,-5.0,-1.0,3.0,-1.0,8.0
1702323795.986392,6.0,22.0,7.0,-8.0,-9.0,4.0,-3.0,5.0
1702323795.9963892,0.0,3.0,10.0,27.0,25.0,5.0,5.0,-4.0
1702323795.9963892,5.0,10.0,-8.0,-17.0,-6.0,-8.0,-4.0,-7.0
1702323796.0067437,-10.0,-19.0,-13.0,9.0,5.0,-2.0,-8.0,-4.0
1702323796.0067437,6.0,-7.0,-2.0,-24.0,6.0,4.0,12.0,5.0
1702323796.0268066,1.0,12.0,-15.0,29.0,11.0,-5.0,-3.0,3.0
1702323796.0268066,4.0,4.0,18.0,9.0,-4.0,-8.0,5.0,21.0
1702323796.0268066,1.0,24.0,2.0,8.0,-3.0,4.0,-7.0,-44.0
1702323796.0268066,-18.0,-32.0,-3.0,-8.0,-16.0,-12.0,-8.0,52.0
1702323796.036707,2.0,-7.0,-2.0,-13.0,-15.0,1.0,4.0,-19.0
1702323796.036707,1.0,-1.0,-38.0,-13.0,0.0,2.0,14.0,-9.0
1702323796.0467274,-6.0,-25.0,-9.0,-7.0,-7.0,-8.0,-21.0,10.0
1702323796.0467274,7.0,13.0,9.0,2.0,-1.0,-3.0,0.0,26.0
1702323796.0663877,-5.0,15.0,-5.0,-8.0,-7.0,-5.0,-4.0,-23.0
1702323796.0663877,-21.0,-24.0,0.0,4.0,3.0,2.0,-4.0,-5.0
1702323796.0663877,3.0,31.0,-5.0,-12.0,-4.0,-1.0,2.0,-1.0
1702323796.0663877,-15.0,-31.0,0.0,10.0,2.0,-3.0,0.0,-28.0
1702323796.086389,9.0,13.0,18.0,-3.0,-3.0,-6.0,-7.0,8.0
1702323796.086389,12.0,-1.0,-26.0,-5.0,-2.0,-2.0,0.0,5.0
1702323796.086389,-11.0,-40.0,-18.0,-11.0,-3.0,3.0,3.0,19.0
1702323796.086389,1.0,-3.0,18.0,11.0,6.0,-1.0,3.0,4.0
1702323796.0963874,13.0,40.0,-34.0,-8.0,-3.0,11.0,4.0,-11.0
1702323796.0963874,8.0,27.0,23.0,1.0,1.0,-2.0,-10.0,-2.0
1702323796.1066396,-16.0,-52.0,3.0,2.0,1.0,-9.0,8.0,10.0
1702323796.1066396,9.0,25.0,-48.0,-8.0,-2.0,2.0,-8.0,-32.0
1702323796.1163938,-12.0,-49.0,-3.0,-3.0,-1.0,9.0,4.0,-1.0
1702323796.1163938,7.0,21.0,70.0,3.0,0.0,4.0,0.0,13.0
1702323796.1266208,13.0,-18.0,-67.0,9.0,7.0,-6.0,1.0,4.0
1702323796.1266208,-29.0,-16.0,42.0,-8.0,-8.0,-2.0,-8.0,-22.0
1702323796.1626494,0.0,35.0,31.0,0.0,-2.0,-8.0,0.0,-2.0
1702323796.1636496,0.0,-21.0,-75.0,-6.0,-7.0,-8.0,-4.0,1.0
1702323796.169648,-6.0,-1.0,68.0,3.0,1.0,6.0,7.0,8.0
1702323796.1706483,19.0,12.0,-26.0,-9.0,-3.0,11.0,3.0,-6.0
1702323796.1736474,-8.0,-15.0,32.0,7.0,-1.0,-9.0,-6.0,6.0
1702323796.1736474,-11.0,-20.0,-5.0,9.0,15.0,3.0,-3.0,-3.0
1702323796.1736474,14.0,27.0,-1.0,-5.0,-1.0,-14.0,-4.0,-7.0
1702323796.1736474,0.0,-2.0,6.0,5.0,0.0,3.0,1.0,-1.0
1702323796.1813574,-11.0,-21.0,-27.0,-26.0,-6.0,21.0,4.0,13.0
1702323796.1813574,9.0,2.0,16.0,14.0,-4.0,-11.0,-4.0,-17.0
1702323796.191355,33.0,17.0,-4.0,2.0,1.0,2.0,-3.0,-16.0
1702323796.191355,-43.0,-44.0,-12.0,1.0,1.0,-9.0,1.0,13.0
1702323796.221352,-36.0,-8.0,-17.0,-6.0,-6.0,-4.0,0.0,-5.0
1702323796.221352,-21.0,19.0,-6.0,-10.0,-1.0,-1.0,-2.0,-2.0
1702323796.221352,23.0,15.0,7.0,0.0,-1.0,-2.0,-11.0,-5.0
1702323796.221352,10.0,-1.0,-5.0,-3.0,-6.0,1.0,7.0,-1.0
1702323796.221352,11.0,37.0,1.0,9.0,-9.0,-11.0,-2.0,5.0
1702323796.221352,-10.0,-57.0,-14.0,-10.0,5.0,7.0,7.0,5.0
1702323796.221352,-11.0,36.0,15.0,-3.0,0.0,0.0,-4.0,1.0
1702323796.221352,17.0,12.0,6.0,-6.0,3.0,-1.0,1.0,5.0
1702323796.2416272,7.0,1.0,-15.0,3.0,-13.0,-6.0,0.0,4.0
1702323796.2416272,14.0,20.0,24.0,18.0,3.0,-4.0,-5.0,-2.0
1702323796.251356,-18.0,-35.0,-10.0,3.0,-2.0,5.0,-1.0,4.0
1702323796.251356,3.0,2.0,7.0,7.0,11.0,-2.0,-1.0,0.0
1702323796.2713518,4.0,-6.0,-8.0,-17.0,-7.0,-3.0,0.0,0.0
1702323796.2713518,7.0,18.0,7.0,-11.0,-5.0,-2.0,-4.0,-7.0
1702323796.2713518,-18.0,-45.0,-18.0,10.0,2.0,0.0,0.0,-2.0
1702323796.2713518,7.0,30.0,3.0,2.0,0.0,2.0,3.0,0.0
1702323796.2713518,2.0,-26.0,11.0,1.0,5.0,-7.0,-2.0,-5.0
1702323796.2713518,2.0,-11.0,-49.0,-16.0,-12.0,-4.0,-5.0,9.0
1702323796.2813644,-1.0,36.0,11.0,-6.0,-5.0,3.0,14.0,9.0
1702323796.2813644,1.0,-30.0,-17.0,-5.0,-5.0,-4.0,-3.0,-3.0
1702323796.3017251,9.0,13.0,10.0,4.0,5.0,-12.0,-2.0,-1.0
1702323796.3017251,-9.0,-15.0,10.0,3.0,-1.0,10.0,0.0,-3.0
1702323796.3113546,-4.0,7.0,-6.0,-7.0,-5.0,4.0,-6.0,0.0
1702323796.3113546,2.0,9.0,4.0,0.0,-7.0,-4.0,-3.0,-5.0
1702323796.3213515,-4.0,-7.0,5.0,11.0,12.0,6.0,2.0,9.0
1702323796.3213515,0.0,-4.0,-20.0,2.0,6.0,-2.0,1.0,-7.0
1702323796.3213515,-6.0,12.0,25.0,2.0,-4.0,-5.0,-3.0,1.0
1702323796.3213515,-2.0,2.0,-15.0,5.0,-2.0,-2.0,-2.0,-2.0
1702323796.3418121,-1.0,-3.0,14.0,-2.0,2.0,-2.0,-2.0,-2.0
1702323796.3418121,0.0,3.0,-29.0,-18.0,-9.0,-7.0,-2.0,-6.0
1702323796.3418121,-6.0,-2.0,13.0,-1.0,-1.0,-1.0,-1.0,1.0
1702323796.3418121,-1.0,-18.0,-2.0,5.0,-1.0,-1.0,-2.0,1.0
1702323796.3617244,-4.0,1.0,4.0,-2.0,-3.0,-4.0,-4.0,-4.0
1702323796.3617244,10.0,16.0,-11.0,-2.0,3.0,1.0,2.0,-2.0
1702323796.371232,1.0,6.0,-1.0,-7.0,-2.0,1.0,1.0,3.0
1702323796.371232,8.0,14.0,-11.0,-4.0,2.0,-1.0,0.0,-5.0
1702323796.3812423,-16.0,-44.0,-21.0,-9.0,-7.0,-4.0,-3.0,0.0
1702323796.3812423,-3.0,-9.0,26.0,3.0,-1.0,-4.0,-1.0,-6.0
1702323796.3812423,1.0,6.0,-26.0,-8.0,-1.0,-1.0,-3.0,-1.0
1702323796.3812423,3.0,7.0,28.0,12.0,2.0,-2.0,0.0,2.0
1702323796.401544,0.0,13.0,-22.0,0.0,1.0,2.0,1.0,1.0
1702323796.401544,-2.0,-1.0,24.0,4.0,-5.0,-4.0,-1.0,-1.0
1702323796.401544,-4.0,-10.0,-4.0,-8.0,-3.0,-4.0,-1.0,0.0
1702323796.401544,0.0,4.0,-7.0,9.0,11.0,4.0,0.0,-1.0
1702323796.4312427,0.0,5.0,8.0,5.0,-2.0,4.0,0.0,-2.0
1702323796.4312427,-5.0,-4.0,-10.0,-6.0,-1.0,0.0,0.0,-1.0
1702323796.4312427,-2.0,-1.0,16.0,7.0,2.0,0.0,-2.0,-2.0
1702323796.4312427,-1.0,0.0,-6.0,-9.0,-4.0,-1.0,-5.0,-2.0
1702323796.4515107,-3.0,3.0,-11.0,-8.0,0.0,-1.0,2.0,-2.0
1702323796.4515107,7.0,-1.0,17.0,-3.0,-4.0,-3.0,-2.0,-3.0
1702323796.4515107,-2.0,-3.0,-22.0,-10.0,-2.0,-1.0,1.0,0.0
1702323796.4515107,-1.0,-2.0,14.0,6.0,-2.0,-3.0,-3.0,-8.0
1702323796.4615092,1.0,-4.0,5.0,-2.0,0.0,0.0,-2.0,-2.0
1702323796.4615092,-3.0,-4.0,-27.0,-1.0,-2.0,0.0,-3.0,-4.0
1702323796.4615092,-3.0,-5.0,6.0,5.0,4.0,0.0,-1.0,-1.0
1702323796.4615092,2.0,2.0,11.0,-8.0,-3.0,0.0,0.0,1.0
1702323796.5112455,-2.0,9.0,-12.0,-5.0,-4.0,-4.0,-2.0,-2.0
1702323796.5112455,5.0,12.0,17.0,-8.0,-6.0,-3.0,-3.0,-2.0
1702323796.5112455,-15.0,-36.0,-6.0,9.0,3.0,0.0,-2.0,-3.0
1702323796.5112455,1.0,7.0,-7.0,-8.0,-5.0,1.0,0.0,3.0
1702323796.5112455,6.0,2.0,-7.0,19.0,12.0,2.0,0.0,1.0
1702323796.5112455,-3.0,0.0,28.0,8.0,7.0,2.0,0.0,1.0
1702323796.5112455,1.0,4.0,-28.0,-4.0,0.0,-1.0,0.0,-1.0
1702323796.5112455,-6.0,-8.0,-15.0,-13.0,-3.0,-2.0,-1.0,-4.0
1702323796.5214453,-1.0,-2.0,21.0,0.0,-1.0,0.0,-1.0,2.0
1702323796.5214453,-2.0,2.0,-20.0,-5.0,-6.0,0.0,0.0,-8.0
1702323796.5214453,4.0,7.0,20.0,6.0,1.0,-3.0,0.0,7.0
1702323796.5214453,-10.0,-3.0,-9.0,-5.0,-5.0,1.0,0.0,-4.0
1702323796.551476,5.0,0.0,13.0,1.0,-2.0,-2.0,-1.0,11.0
1702323796.551476,-5.0,-9.0,-44.0,-10.0,-3.0,-2.0,-2.0,-3.0
1702323796.551476,0.0,9.0,7.0,-3.0,-4.0,0.0,1.0,11.0
1702323796.551476,2.0,-3.0,-11.0,-2.0,-2.0,-3.0,1.0,0.0
1702323796.571547,1.0,6.0,9.0,-2.0,-2.0,-10.0,-4.0,-3.0
1702323796.571547,1.0,-11.0,8.0,10.0,4.0,20.0,1.0,6.0
1702323796.571547,-1.0,-3.0,7.0,0.0,-1.0,-9.0,1.0,-3.0
1702323796.571547,-5.0,-14.0,-32.0,-8.0,-3.0,1.0,-3.0,-2.0
1702323796.581304,-1.0,17.0,71.0,2.0,4.0,4.0,-3.0,-2.0
1702323796.581304,-5.0,5.0,0.0,7.0,-1.0,-9.0,-1.0,-3.0
1702323796.581304,1.0,-4.0,-30.0,-9.0,-2.0,8.0,-2.0,-10.0
1702323796.591254,-9.0,3.0,32.0,10.0,1.0,-6.0,5.0,16.0
1702323796.6212475,3.0,4.0,-79.0,-14.0,-3.0,2.0,0.0,-2.0
1702323796.6212475,0.0,5.0,64.0,-2.0,-7.0,-14.0,-7.0,-1.0
1702323796.6212475,-2.0,-18.0,-3.0,3.0,3.0,-1.0,-2.0,-12.0
1702323796.6212475,1.0,-2.0,16.0,4.0,1.0,-4.0,-3.0,-6.0
1702323796.6312695,4.0,-12.0,-26.0,-5.0,-3.0,4.0,0.0,-6.0
1702323796.6312695,-2.0,-3.0,-56.0,-5.0,0.0,1.0,2.0,2.0
1702323796.6312695,1.0,10.0,40.0,13.0,3.0,-5.0,-4.0,-1.0
1702323796.6312695,3.0,3.0,-24.0,-19.0,-4.0,-1.0,-1.0,-1.0
1702323796.6412487,-4.0,-1.0,11.0,21.0,-1.0,-2.0,0.0,-1.0
1702323796.6412487,7.0,-6.0,-9.0,-3.0,11.0,3.0,2.0,-3.0
1702323796.6412487,0.0,6.0,0.0,4.0,-1.0,3.0,1.0,-6.0
1702323796.6412487,-5.0,5.0,28.0,6.0,2.0,2.0,-2.0,-4.0
1702323796.6715932,-1.0,-1.0,-19.0,-15.0,-7.0,-4.0,-1.0,0.0
1702323796.6715932,-17.0,-9.0,0.0,-5.0,-4.0,-4.0,0.0,-1.0
1702323796.6715932,0.0,-3.0,-24.0,-11.0,-1.0,-3.0,-5.0,3.0
1702323796.6715932,1.0,7.0,19.0,2.0,3.0,3.0,-2.0,-5.0
1702323796.694251,4.0,-9.0,-5.0,0.0,-4.0,-2.0,1.0,1.0
1702323796.694251,3.0,1.0,14.0,5.0,-4.0,-2.0,-4.0,1.0
1702323796.6952872,-2.0,-1.0,15.0,-4.0,-3.0,0.0,-1.0,0.0
1702323796.6952872,10.0,24.0,-14.0,5.0,3.0,-1.0,-1.0,-2.0
1702323796.709252,-5.0,-23.0,-6.0,-2.0,1.0,0.0,-1.0,-3.0
1702323796.709252,5.0,36.0,17.0,4.0,0.0,-1.0,2.0,3.0
1702323796.709252,0.0,-41.0,3.0,0.0,-4.0,-3.0,-4.0,-4.0
1702323796.7102952,5.0,33.0,-4.0,-7.0,-5.0,-3.0,1.0,12.0
1702323796.7242715,11.0,-11.0,-28.0,-6.0,2.0,-1.0,-6.0,-15.0
1702323796.7242715,-10.0,63.0,17.0,6.0,2.0,-1.0,0.0,-4.0
1702323796.7345786,5.0,-63.0,-4.0,-11.0,-8.0,-4.0,-1.0,10.0
1702323796.7345786,-7.0,-13.0,-8.0,-1.0,-1.0,-4.0,-10.0,-15.0
1702323796.754603,4.0,44.0,24.0,3.0,3.0,0.0,-1.0,5.0
1702323796.754603,-10.0,-48.0,-6.0,-2.0,-2.0,-1.0,-2.0,-10.0
1702323796.754603,-1.0,30.0,-22.0,-2.0,-1.0,-2.0,0.0,2.0
1702323796.754603,-3.0,-16.0,-8.0,1.0,0.0,1.0,0.0,2.0
1702323796.78162,-6.0,9.0,63.0,8.0,1.0,1.0,1.0,1.0
1702323796.78162,6.0,-18.0,-43.0,-3.0,0.0,-1.0,-1.0,-2.0
1702323796.78162,-6.0,51.0,25.0,-1.0,-3.0,-1.0,-1.0,4.0
1702323796.78162,13.0,-38.0,0.0,6.0,4.0,1.0,5.0,7.0
1702323796.791732,-16.0,21.0,-30.0,-5.0,0.0,2.0,8.0,-16.0
1702323796.791732,-20.0,16.0,25.0,0.0,-4.0,-7.0,8.0,41.0
1702323796.791732,20.0,56.0,32.0,-3.0,-5.0,-11.0,-21.0,-38.0
1702323796.791732,12.0,60.0,-54.0,-6.0,-3.0,8.0,9.0,51.0
1702323796.8119552,-19.0,-34.0,-41.0,-11.0,-3.0,0.0,-20.0,-20.0
1702323796.8119552,8.0,-39.0,18.0,10.0,2.0,3.0,21.0,44.0
1702323796.8119552,-12.0,-41.0,-23.0,-7.0,-2.0,-4.0,0.0,-13.0
1702323796.8119552,24.0,7.0,24.0,4.0,2.0,-5.0,1.0,-14.0
1702323796.8416188,-18.0,-13.0,2.0,-3.0,-3.0,-1.0,1.0,31.0
1702323796.8416188,20.0,21.0,-19.0,-3.0,-7.0,-2.0,-16.0,-22.0
1702323796.8416188,-19.0,-10.0,-22.0,-1.0,4.0,8.0,42.0,11.0
1702323796.8416188,-4.0,3.0,10.0,-4.0,-2.0,1.0,5.0,-18.0
1702323796.8519258,15.0,2.0,21.0,-1.0,-2.0,3.0,6.0,2.0
1702323796.8519258,-25.0,-27.0,15.0,8.0,7.0,-5.0,-38.0,-20.0
1702323796.8519258,-10.0,41.0,4.0,7.0,3.0,0.0,-17.0,2.0
1702323796.8519258,-8.0,-2.0,-53.0,-11.0,-7.0,-11.0,-19.0,-17.0
1702323796.871893,0.0,-20.0,-9.0,-11.0,-8.0,-16.0,6.0,-7.0
1702323796.871893,1.0,55.0,22.0,-2.0,-4.0,12.0,-1.0,-10.0
1702323796.871893,-1.0,-73.0,0.0,8.0,-2.0,1.0,4.0,7.0
1702323796.871893,-19.0,3.0,53.0,5.0,10.0,0.0,7.0,1.0
1702323796.8819041,12.0,9.0,-48.0,-3.0,0.0,3.0,5.0,3.0
1702323796.8819041,15.0,-12.0,-23.0,-2.0,-4.0,1.0,5.0,-12.0
1702323796.8919294,4.0,31.0,-2.0,-4.0,1.0,-4.0,-1.0,9.0
1702323796.8919294,-3.0,-10.0,13.0,11.0,2.0,13.0,-3.0,0.0
1702323796.9119458,10.0,10.0,76.0,-10.0,-19.0,-18.0,0.0,-3.0
1702323796.9119458,-10.0,-37.0,-81.0,-28.0,-12.0,-2.0,1.0,-2.0
1702323796.9119458,-3.0,6.0,-4.0,7.0,11.0,14.0,2.0,4.0
1702323796.9119458,-7.0,-23.0,3.0,0.0,-3.0,-13.0,-5.0,-9.0
1702323796.932158,-1.0,6.0,9.0,22.0,12.0,5.0,-7.0,-2.0
1702323796.932158,2.0,10.0,-2.0,-2.0,-4.0,-2.0,6.0,4.0
1702323796.932158,9.0,20.0,15.0,-2.0,-3.0,-7.0,-6.0,-1.0
1702323796.932158,-10.0,-9.0,-8.0,-24.0,-4.0,-3.0,-2.0,1.0
1702323796.9419022,-6.0,-16.0,-53.0,-14.0,-1.0,3.0,-3.0,0.0
1702323796.9419022,7.0,8.0,72.0,26.0,18.0,5.0,3.0,-7.0
1702323796.9519365,0.0,-2.0,-47.0,11.0,3.0,-4.0,-3.0,0.0
1702323796.9519365,-12.0,-6.0,4.0,21.0,2.0,3.0,-3.0,-10.0
1702323796.971978,-20.0,-18.0,-16.0,-11.0,1.0,0.0,1.0,1.0
1702323796.971978,12.0,4.0,3.0,-8.0,-9.0,-6.0,0.0,-2.0
1702323796.971978,-18.0,1.0,7.0,-12.0,-6.0,-7.0,-5.0,-11.0
1702323796.971978,-1.0,-5.0,8.0,12.0,2.0,6.0,2.0,6.0
1702323797.011914,5.0,4.0,-17.0,-2.0,-1.0,2.0,-4.0,-4.0
1702323797.011914,2.0,-10.0,7.0,1.0,0.0,-2.0,-3.0,-6.0
1702323797.011914,5.0,7.0,-7.0,-3.0,-3.0,1.0,-1.0,4.0
1702323797.011914,4.0,-5.0,-2.0,-15.0,-9.0,-7.0,1.0,5.0
1702323797.011914,2.0,-3.0,7.0,3.0,0.0,-9.0,-5.0,8.0
1702323797.011914,7.0,6.0,11.0,-5.0,0.0,7.0,0.0,-12.0
1702323797.011914,-15.0,4.0,3.0,4.0,1.0,-3.0,-3.0,-12.0
1702323797.011914,0.0,-13.0,-9.0,0.0,-2.0,-1.0,1.0,9.0
1702323797.032248,14.0,8.0,12.0,4.0,4.0,5.0,0.0,-8.0
1702323797.032248,-15.0,6.0,-4.0,-4.0,2.0,4.0,3.0,0.0
1702323797.032248,1.0,-15.0,-13.0,-11.0,-10.0,-7.0,-9.0,10.0
1702323797.032248,4.0,-5.0,5.0,2.0,4.0,-6.0,6.0,-2.0
1702323797.0519023,-13.0,15.0,5.0,-1.0,-2.0,5.0,0.0,-12.0
1702323797.0519023,10.0,-16.0,6.0,3.0,1.0,-14.0,-7.0,-3.0
1702323797.0519023,-11.0,13.0,-11.0,-2.0,-2.0,-5.0,-6.0,19.0
1702323797.0519023,-8.0,-41.0,-5.0,-9.0,-4.0,19.0,17.0,-25.0
1702323797.0622063,-9.0,-13.0,-10.0,-5.0,-5.0,0.0,4.0,3.0
1702323797.0622063,-2.0,-7.0,3.0,6.0,2.0,8.0,2.0,1.0
1702323797.0722106,12.0,19.0,15.0,-3.0,2.0,2.0,5.0,-10.0
1702323797.0722106,-11.0,-10.0,-21.0,-14.0,-11.0,-23.0,-32.0,-12.0
1702323797.091904,4.0,5.0,16.0,4.0,-1.0,-8.0,-3.0,14.0
1702323797.091904,1.0,12.0,-27.0,-9.0,-7.0,-2.0,6.0,-1.0
1702323797.091904,1.0,-12.0,12.0,-10.0,-4.0,-4.0,-8.0,-1.0
1702323797.091904,-3.0,5.0,-3.0,4.0,-1.0,2.0,-2.0,2.0
1702323797.112274,2.0,1.0,19.0,-1.0,-2.0,4.0,-1.0,-9.0
1702323797.112274,-7.0,-9.0,8.0,5.0,-1.0,-9.0,-5.0,3.0
1702323797.112274,11.0,-8.0,-14.0,11.0,11.0,10.0,2.0,1.0
1702323797.112274,4.0,19.0,13.0,-8.0,8.0,4.0,3.0,4.0
1702323797.132188,-8.0,2.0,-21.0,-13.0,-1.0,0.0,-1.0,1.0
1702323797.132188,3.0,0.0,8.0,12.0,2.0,-5.0,1.0,0.0
1702323797.142222,2.0,-11.0,19.0,-10.0,-1.0,4.0,1.0,-7.0
1702323797.142222,-8.0,3.0,15.0,14.0,-9.0,-5.0,-3.0,-3.0
1702323797.1619003,-2.0,-17.0,-29.0,16.0,10.0,-3.0,-3.0,4.0
1702323797.1619003,-8.0,-15.0,-17.0,-12.0,-3.0,1.0,-1.0,-1.0
1702323797.1619003,9.0,13.0,3.0,9.0,-4.0,-1.0,-1.0,-5.0
1702323797.1619003,-1.0,9.0,9.0,-5.0,0.0,-1.0,-1.0,8.0
1702323797.172133,4.0,17.0,95.0,15.0,0.0,-1.0,-1.0,-3.0
1702323797.172133,-7.0,-18.0,-104.0,-27.0,-6.0,-1.0,-3.0,-6.0
1702323797.172133,3.0,2.0,23.0,-1.0,2.0,1.0,2.0,1.0
1702323797.172133,1.0,-2.0,6.0,5.0,0.0,-2.0,-1.0,1.0
1702323797.1922097,0.0,-1.0,-18.0,-4.0,-2.0,0.0,-1.0,-1.0
1702323797.1922097,-2.0,11.0,52.0,9.0,4.0,0.0,-3.0,-6.0
1702323797.1922097,-5.0,-3.0,-12.0,-3.0,-3.0,-1.0,0.0,5.0
1702323797.1922097,-9.0,-8.0,-19.0,-5.0,1.0,0.0,-1.0,-7.0
1702323797.212664,5.0,3.0,-23.0,-5.0,-2.0,-4.0,-3.0,-8.0
1702323797.212664,-2.0,5.0,40.0,3.0,3.0,-3.0,-2.0,-2.0
1702323797.2137642,-4.0,-3.0,-16.0,-7.0,-5.0,-13.0,1.0,13.0
1702323797.2137642,1.0,10.0,10.0,4.0,1.0,2.0,-3.0,-16.0
1702323797.2339623,1.0,-22.0,-26.0,-7.0,-4.0,11.0,-10.0,2.0
1702323797.2339623,4.0,-16.0,1.0,1.0,-3.0,8.0,-2.0,17.0
1702323797.2477834,6.0,10.0,8.0,2.0,-1.0,-10.0,-1.0,-19.0
1702323797.2488,2.0,6.0,-10.0,-2.0,1.0,6.0,7.0,14.0
1702323797.2648938,13.0,-2.0,0.0,-1.0,-3.0,-15.0,-14.0,3.0
1702323797.2648938,7.0,9.0,7.0,0.0,0.0,-2.0,13.0,14.0
1702323797.2648938,-32.0,-15.0,-4.0,-4.0,-3.0,3.0,4.0,-20.0
1702323797.2648938,5.0,-2.0,-15.0,-7.0,-2.0,-9.0,46.0,2.0
1702323797.2723994,-5.0,0.0,-12.0,0.0,2.0,26.0,-33.0,3.0
1702323797.2723994,2.0,-6.0,0.0,-1.0,-3.0,-17.0,-51.0,-15.0
1702323797.2723994,11.0,5.0,9.0,-6.0,-3.0,1.0,8.0,9.0
1702323797.2723994,-11.0,2.0,-3.0,-5.0,0.0,2.0,3.0,3.0
1702323797.292839,-1.0,-3.0,3.0,-13.0,-9.0,-15.0,10.0,0.0
1702323797.292839,-10.0,6.0,-16.0,-14.0,-7.0,-4.0,5.0,-4.0
1702323797.292839,-1.0,-1.0,11.0,28.0,15.0,7.0,-6.0,-6.0
1702323797.292839,-4.0,-1.0,17.0,-3.0,1.0,-5.0,-8.0,5.0
1702323797.3224082,2.0,4.0,-5.0,-9.0,3.0,-5.0,15.0,4.0
1702323797.3224082,0.0,-12.0,-34.0,9.0,8.0,7.0,2.0,-5.0
1702323797.3224082,-8.0,-7.0,10.0,-17.0,-4.0,5.0,1.0,-1.0
1702323797.3224082,4.0,22.0,27.0,10.0,-4.0,-1.0,-5.0,3.0
1702323797.3224082,-3.0,-37.0,-54.0,-16.0,-13.0,-8.0,-4.0,-5.0
1702323797.3224082,2.0,12.0,27.0,1.0,-7.0,0.0,7.0,-3.0
1702323797.332409,8.0,0.0,-20.0,-2.0,3.0,2.0,6.0,8.0
1702323797.332409,5.0,3.0,29.0,3.0,-2.0,-3.0,-17.0,-1.0
1702323797.3527944,-4.0,19.0,-23.0,-9.0,-4.0,-5.0,1.0,4.0
1702323797.3527944,-8.0,-36.0,-30.0,-9.0,0.0,1.0,8.0,-7.0
1702323797.3527944,2.0,10.0,-11.0,0.0,-2.0,0.0,-3.0,0.0
1702323797.3527944,3.0,1.0,25.0,24.0,9.0,1.0,-11.0,-1.0
1702323797.3824105,-3.0,0.0,-17.0,-1.0,0.0,-1.0,5.0,-4.0
1702323797.3824105,-4.0,6.0,44.0,19.0,6.0,-2.0,5.0,0.0
1702323797.3824105,-1.0,-5.0,-18.0,-16.0,-11.0,-3.0,-8.0,-2.0
1702323797.3824105,2.0,-13.0,-56.0,-18.0,-4.0,-1.0,-8.0,-1.0
1702323797.392407,-6.0,1.0,29.0,1.0,5.0,0.0,8.0,0.0
1702323797.392407,2.0,14.0,12.0,3.0,-2.0,-2.0,1.0,3.0
1702323797.392407,-3.0,-8.0,4.0,-3.0,-3.0,-6.0,-7.0,-4.0
1702323797.392407,4.0,8.0,-13.0,-1.0,-1.0,12.0,-2.0,0.0
1702323797.4127111,1.0,-2.0,21.0,23.0,5.0,0.0,4.0,-1.0
1702323797.4127111,-6.0,35.0,-13.0,-18.0,-4.0,-4.0,-5.0,-7.0
1702323797.4127111,-10.0,-51.0,9.0,12.0,-4.0,-1.0,1.0,4.0
1702323797.4127111,12.0,9.0,-17.0,-8.0,1.0,-7.0,-5.0,-5.0
1702323797.4424074,-5.0,4.0,9.0,1.0,-2.0,2.0,0.0,-2.0
1702323797.4424074,14.0,4.0,3.0,-8.0,-7.0,-1.0,-2.0,1.0
1702323797.4424074,0.0,15.0,2.0,20.0,7.0,1.0,2.0,-2.0
1702323797.4424074,-3.0,-11.0,-3.0,-8.0,-5.0,-2.0,-5.0,0.0
1702323797.4524124,-2.0,-12.0,6.0,10.0,-3.0,-4.0,-3.0,1.0
1702323797.4524124,1.0,-7.0,1.0,11.0,8.0,2.0,5.0,5.0
1702323797.4524124,6.0,27.0,15.0,-6.0,-1.0,2.0,-3.0,2.0
1702323797.4524124,-7.0,-45.0,-23.0,12.0,0.0,-2.0,-3.0,-4.0
1702323797.4727347,7.0,44.0,4.0,4.0,13.0,3.0,3.0,-1.0
1702323797.4727347,-9.0,10.0,9.0,-9.0,-8.0,-4.0,-2.0,0.0
1702323797.4727347,1.0,-34.0,-11.0,1.0,4.0,3.0,0.0,2.0
1702323797.4727347,-1.0,25.0,10.0,-6.0,-6.0,-3.0,-1.0,0.0
1702323797.5224104,-5.0,-17.0,5.0,0.0,-2.0,-2.0,-2.0,-6.0
1702323797.5224104,1.0,1.0,5.0,-2.0,-3.0,0.0,-1.0,1.0
1702323797.5224104,0.0,4.0,6.0,-3.0,-4.0,-1.0,-4.0,0.0
1702323797.5224104,-3.0,-2.0,-14.0,-11.0,-4.0,-5.0,-3.0,-6.0
1702323797.5224104,3.0,-4.0,-9.0,0.0,-2.0,1.0,0.0,0.0
1702323797.5224104,-10.0,-26.0,-4.0,-8.0,0.0,0.0,-1.0,-8.0
1702323797.5224104,-3.0,14.0,-8.0,-1.0,0.0,0.0,-1.0,-3.0
1702323797.5224104,3.0,7.0,2.0,1.0,-1.0,-1.0,0.0,4.0
1702323797.5327785,1.0,-5.0,2.0,-1.0,-4.0,-2.0,-1.0,-2.0
1702323797.5327785,-6.0,-10.0,-16.0,-8.0,-5.0,-4.0,0.0,-5.0
1702323797.5327785,6.0,24.0,6.0,-1.0,1.0,-1.0,-1.0,3.0
1702323797.5327785,2.0,-6.0,5.0,9.0,3.0,0.0,1.0,2.0
1702323797.5524077,-3.0,3.0,-11.0,-13.0,-5.0,-2.0,0.0,-8.0
1702323797.5524077,1.0,2.0,18.0,8.0,-3.0,-3.0,-5.0,4.0
1702323797.5524077,-15.0,-1.0,4.0,1.0,0.0,0.0,6.0,5.0
1702323797.5524077,-7.0,-6.0,-19.0,-11.0,-6.0,-2.0,-3.0,-15.0
1702323797.5724099,4.0,-4.0,-16.0,-1.0,-2.0,-5.0,-4.0,-1.0
1702323797.5724099,0.0,0.0,-26.0,-1.0,1.0,6.0,-1.0,-3.0
1702323797.5724099,5.0,8.0,44.0,1.0,-4.0,-15.0,4.0,3.0
1702323797.5724099,-2.0,-4.0,-16.0,-1.0,0.0,9.0,-1.0,23.0
1702323797.5928378,-3.0,4.0,52.0,6.0,3.0,4.0,2.0,-14.0
1702323797.5928378,-9.0,-12.0,-9.0,-8.0,-2.0,10.0,-2.0,5.0
1702323797.5928378,12.0,6.0,-46.0,-4.0,-3.0,-8.0,-3.0,3.0
1702323797.5928378,-4.0,8.0,36.0,3.0,3.0,-3.0,14.0,6.0
1702323797.6124442,-8.0,1.0,-38.0,-12.0,-7.0,-10.0,-18.0,10.0
1702323797.6124442,9.0,1.0,15.0,7.0,3.0,4.0,1.0,2.0
1702323797.6124442,5.0,-1.0,-25.0,-8.0,-2.0,4.0,1.0,-14.0
1702323797.6124442,-6.0,-2.0,8.0,-3.0,-4.0,-11.0,-4.0,13.0
1702323797.63241,2.0,17.0,30.0,2.0,-1.0,-4.0,4.0,6.0
1702323797.63241,13.0,14.0,0.0,5.0,2.0,4.0,5.0,6.0
1702323797.63241,1.0,9.0,3.0,-2.0,0.0,6.0,-1.0,1.0
1702323797.63241,-11.0,-18.0,-8.0,-1.0,-2.0,-1.0,0.0,-9.0
1702323797.6527984,-2.0,-5.0,7.0,-5.0,-2.0,-4.0,3.0,-4.0
1702323797.6527984,-1.0,38.0,3.0,15.0,5.0,-1.0,-2.0,1.0
1702323797.6527984,2.0,-12.0,-5.0,-4.0,-2.0,0.0,-2.0,-14.0
1702323797.6527984,-15.0,-28.0,-4.0,-2.0,-4.0,-2.0,-6.0,-8.0
1702323797.6724427,7.0,3.0,2.0,9.0,4.0,4.0,4.0,3.0
1702323797.6724427,8.0,16.0,8.0,-9.0,-3.0,-2.0,2.0,-7.0
1702323797.6724427,2.0,-4.0,0.0,3.0,0.0,2.0,-2.0,5.0
1702323797.6724427,7.0,-4.0,-3.0,-7.0,-6.0,-4.0,-2.0,6.0
1702323797.692411,-1.0,9.0,-11.0,-7.0,-3.0,2.0,0.0,-1.0
1702323797.692411,-16.0,-22.0,-11.0,-1.0,-1.0,-6.0,-3.0,-16.0
1702323797.692411,-11.0,-5.0,6.0,-5.0,-2.0,-2.0,-9.0,-12.0
1702323797.692411,-6.0,6.0,32.0,-1.0,-4.0,-1.0,-7.0,-5.0
1702323797.7128346,0.0,-12.0,-46.0,3.0,0.0,-8.0,17.0,-23.0
1702323797.7128346,7.0,-4.0,-24.0,-6.0,-1.0,-1.0,-7.0,23.0
1702323797.7128346,-10.0,-26.0,9.0,-7.0,-5.0,-13.0,0.0,1.0
1702323797.7128346,5.0,24.0,20.0,2.0,1.0,24.0,-6.0,-8.0
1702323797.7324405,-5.0,-32.0,-26.0,-9.0,-5.0,-36.0,2.0,13.0
1702323797.7324405,-7.0,-6.0,-10.0,12.0,7.0,38.0,1.0,-2.0
1702323797.7324405,-3.0,6.0,-30.0,-12.0,-1.0,-2.0,-2.0,-1.0
1702323797.7324405,12.0,18.0,22.0,5.0,2.0,-4.0,6.0,2.0
1702323797.7539816,4.0,9.0,8.0,-2.0,-1.0,0.0,-9.0,24.0
1702323797.7539816,-12.0,-21.0,31.0,0.0,-3.0,-12.0,3.0,0.0
1702323797.758983,0.0,-36.0,-10.0,6.0,1.0,-18.0,-1.0,-13.0
1702323797.758983,-2.0,15.0,-12.0,3.0,4.0,17.0,0.0,-9.0
1702323797.7732663,2.0,0.0,8.0,4.0,0.0,4.0,-5.0,-13.0
1702323797.7732663,-19.0,-22.0,12.0,-14.0,-8.0,-4.0,-3.0,-1.0
1702323797.7732663,4.0,14.0,-12.0,0.0,-3.0,11.0,-3.0,-5.0
1702323797.7732663,-2.0,-28.0,3.0,-2.0,-2.0,-13.0,1.0,0.0
1702323797.7931504,7.0,8.0,13.0,-1.0,-2.0,4.0,0.0,1.0
1702323797.7931504,16.0,11.0,-8.0,-2.0,0.0,-8.0,-1.0,0.0
1702323797.7931504,-3.0,13.0,13.0,0.0,-3.0,4.0,3.0,6.0
1702323797.7931504,6.0,-12.0,-19.0,2.0,0.0,-6.0,-3.0,-6.0
1702323797.812876,-6.0,-2.0,20.0,11.0,8.0,13.0,0.0,3.0
1702323797.812876,7.0,18.0,-29.0,-18.0,-7.0,-16.0,-1.0,-11.0
1702323797.812876,-3.0,24.0,56.0,13.0,1.0,4.0,-4.0,2.0
1702323797.812876,-4.0,-25.0,-44.0,1.0,3.0,-1.0,-2.0,-4.0
1702323797.83278,-3.0,-8.0,18.0,-3.0,0.0,8.0,-1.0,-4.0
1702323797.83278,-10.0,4.0,4.0,3.0,-2.0,-5.0,-1.0,-10.0
1702323797.83278,7.0,-22.0,-17.0,-13.0,-7.0,-2.0,-5.0,6.0
1702323797.83278,-5.0,26.0,2.0,-6.0,-1.0,-2.0,-1.0,11.0
1702323797.8534443,-8.0,-21.0,5.0,2.0,-1.0,-1.0,1.0,-17.0
1702323797.8534443,7.0,-9.0,-14.0,-1.0,1.0,-2.0,2.0,0.0
1702323797.8534443,-6.0,3.0,-1.0,-5.0,-6.0,0.0,1.0,2.0
1702323797.8534443,1.0,7.0,-4.0,-11.0,-8.0,-8.0,0.0,-6.0
1702323797.8631783,-4.0,-4.0,-19.0,-4.0,2.0,5.0,-2.0,6.0
1702323797.8631783,0.0,4.0,7.0,6.0,6.0,-3.0,-1.0,-1.0
1702323797.8734448,-2.0,-7.0,-11.0,17.0,-1.0,1.0,-1.0,-6.0
1702323797.8734448,-2.0,-5.0,12.0,3.0,-5.0,-5.0,-3.0,-1.0
1702323797.893003,1.0,10.0,-11.0,-21.0,-1.0,2.0,0.0,1.0
1702323797.893003,-1.0,-2.0,6.0,-1.0,0.0,2.0,1.0,1.0
1702323797.893003,-1.0,-11.0,-12.0,0.0,6.0,1.0,0.0,4.0
1702323797.893003,3.0,11.0,0.0,-12.0,-9.0,-6.0,-2.0,-6.0
1702323797.9130046,-4.0,30.0,11.0,18.0,-1.0,0.0,-4.0,3.0
1702323797.9130046,1.0,-42.0,-14.0,-14.0,-6.0,-5.0,0.0,0.0
1702323797.9130046,2.0,10.0,3.0,2.0,-2.0,0.0,-1.0,1.0
1702323797.9130046,-1.0,-15.0,-6.0,-3.0,0.0,-2.0,-1.0,-3.0
1702323797.933002,-8.0,-11.0,-13.0,-9.0,-2.0,-2.0,0.0,-4.0
1702323797.933002,16.0,37.0,21.0,23.0,9.0,4.0,5.0,6.0
1702323797.933002,3.0,46.0,-11.0,-17.0,-3.0,3.0,-1.0,-3.0
1702323797.933002,-10.0,-44.0,-11.0,-12.0,1.0,-2.0,0.0,-2.0
1702323797.9532447,-2.0,11.0,8.0,3.0,-4.0,-5.0,-4.0,-6.0
1702323797.9532447,-3.0,-21.0,0.0,2.0,-8.0,5.0,-4.0,-1.0
1702323797.9532447,-1.0,14.0,26.0,7.0,1.0,2.0,-2.0,-1.0
1702323797.9532447,5.0,18.0,-47.0,-4.0,0.0,15.0,3.0,6.0
1702323797.9733024,1.0,-34.0,20.0,1.0,-1.0,-14.0,2.0,8.0
1702323797.9733024,-1.0,22.0,-7.0,-4.0,-3.0,12.0,0.0,-2.0
1702323797.9733024,-3.0,-28.0,-6.0,0.0,2.0,-19.0,-10.0,-19.0
1702323797.9733024,5.0,37.0,28.0,4.0,6.0,16.0,-3.0,7.0
1702323797.993007,0.0,-21.0,-3.0,-2.0,0.0,23.0,17.0,11.0
1702323797.993007,-1.0,-1.0,-12.0,1.0,0.0,-2.0,5.0,-2.0
1702323798.0130024,-4.0,-6.0,12.0,-2.0,2.0,6.0,8.0,1.0
1702323798.0130024,-1.0,-7.0,-25.0,0.0,-1.0,-18.0,-13.0,-10.0
1702323798.0130024,-1.0,6.0,2.0,1.0,-6.0,-4.0,-9.0,-6.0
1702323798.0130024,-5.0,-5.0,12.0,3.0,-1.0,-9.0,2.0,2.0
1702323798.0130024,0.0,7.0,-16.0,-16.0,-2.0,1.0,-6.0,1.0
1702323798.0130024,-3.0,-10.0,7.0,-4.0,-6.0,-12.0,-1.0,-2.0
1702323798.0332103,7.0,10.0,5.0,20.0,6.0,-1.0,-2.0,-1.0
1702323798.0332103,-14.0,-26.0,-9.0,-9.0,0.0,-4.0,-1.0,0.0
1702323798.0332103,2.0,-6.0,-4.0,13.0,-13.0,-5.0,-2.0,1.0
1702323798.0332103,-5.0,1.0,-8.0,-11.0,7.0,2.0,1.0,-4.0
1702323798.053006,0.0,2.0,-4.0,-8.0,-2.0,-2.0,2.0,0.0
1702323798.053006,2.0,21.0,4.0,10.0,5.0,-4.0,-6.0,-5.0
1702323798.0730026,-3.0,-6.0,0.0,-9.0,5.0,4.0,3.0,3.0
1702323798.0730026,-4.0,-5.0,13.0,9.0,-3.0,-2.0,4.0,1.0
1702323798.0730026,-3.0,8.0,-15.0,-8.0,-9.0,0.0,-6.0,-6.0
1702323798.0730026,-4.0,-6.0,2.0,-2.0,-3.0,-5.0,-2.0,-1.0
1702323798.0730026,0.0,-20.0,-9.0,-15.0,-13.0,-3.0,-1.0,1.0
1702323798.0730026,-8.0,9.0,8.0,17.0,6.0,-1.0,3.0,1.0
1702323798.0933838,2.0,19.0,-10.0,-7.0,1.0,-1.0,-3.0,-1.0
1702323798.0933838,-2.0,-12.0,13.0,7.0,-2.0,-1.0,-2.0,-2.0
1702323798.0933838,0.0,-48.0,-10.0,-3.0,2.0,1.0,3.0,4.0
1702323798.0933838,7.0,39.0,3.0,-11.0,-1.0,-1.0,-4.0,-7.0
1702323798.1130042,5.0,-8.0,6.0,8.0,-2.0,0.0,-2.0,0.0
1702323798.1130042,0.0,7.0,12.0,-5.0,0.0,-3.0,0.0,-1.0
1702323798.1130042,6.0,63.0,-24.0,4.0,4.0,3.0,1.0,3.0
1702323798.1130042,-5.0,-94.0,-14.0,1.0,-2.0,-3.0,-3.0,-6.0
1702323798.1333294,-1.0,31.0,30.0,-1.0,0.0,2.0,2.0,-1.0
1702323798.1333294,-19.0,-50.0,-72.0,-23.0,-10.0,-9.0,-10.0,-14.0
1702323798.1333294,-4.0,-4.0,54.0,4.0,2.0,-2.0,3.0,0.0
1702323798.1333294,31.0,50.0,-10.0,18.0,7.0,5.0,5.0,16.0
1702323798.163002,-44.0,-51.0,34.0,-18.0,-13.0,-14.0,-25.0,-24.0
1702323798.163002,11.0,32.0,-27.0,8.0,0.0,-5.0,0.0,12.0
1702323798.163002,6.0,5.0,-33.0,-13.0,-9.0,-5.0,-4.0,22.0
1702323798.163002,-8.0,-50.0,14.0,12.0,7.0,6.0,1.0,-3.0
1702323798.173289,13.0,-4.0,-94.0,-17.0,-3.0,6.0,-10.0,-9.0
1702323798.173289,-2.0,58.0,101.0,4.0,-3.0,2.0,4.0,17.0
1702323798.173289,-21.0,-36.0,-34.0,0.0,1.0,-4.0,-14.0,-9.0
1702323798.173289,20.0,6.0,-24.0,6.0,5.0,2.0,7.0,2.0
1702323798.1933942,5.0,26.0,32.0,7.0,3.0,0.0,4.0,3.0
1702323798.1933942,0.0,-48.0,-23.0,-5.0,-1.0,-6.0,-8.0,-17.0
1702323798.1933942,4.0,13.0,3.0,3.0,-2.0,-2.0,10.0,10.0
1702323798.1933942,-3.0,5.0,13.0,-7.0,-6.0,-1.0,-13.0,0.0
1702323798.2230039,4.0,-7.0,-6.0,5.0,2.0,6.0,15.0,3.0
1702323798.2230039,-10.0,1.0,-10.0,-8.0,-1.0,-4.0,1.0,-9.0
1702323798.2230039,1.0,3.0,21.0,4.0,-3.0,4.0,-2.0,-1.0
1702323798.2230039,-13.0,21.0,2.0,-3.0,-4.0,0.0,7.0,-18.0
1702323798.2333407,7.0,-20.0,-17.0,-10.0,-8.0,-19.0,-2.0,8.0
1702323798.2333407,3.0,4.0,0.0,-6.0,-2.0,22.0,25.0,12.0
1702323798.2333407,-19.0,15.0,5.0,5.0,9.0,1.0,-36.0,-14.0
1702323798.2333407,-13.0,-21.0,0.0,9.0,10.0,-5.0,-16.0,-11.0
1702323798.253347,0.0,32.0,12.0,8.0,-6.0,-4.0,-28.0,-7.0
1702323798.253347,24.0,2.0,6.0,2.0,18.0,-1.0,2.0,-1.0
1702323798.253347,-12.0,-6.0,-3.0,-7.0,-11.0,-1.0,19.0,-5.0
1702323798.253347,-1.0,24.0,8.0,-2.0,-13.0,-9.0,-1.0,0.0
1702323798.2856147,11.0,23.0,36.0,12.0,0.0,5.0,16.0,8.0
1702323798.2856147,1.0,13.0,53.0,-14.0,-11.0,-7.0,1.0,3.0
1702323798.2856147,11.0,-15.0,-46.0,4.0,6.0,12.0,11.0,5.0
1702323798.2856147,11.0,73.0,57.0,-12.0,-1.0,0.0,0.0,-3.0
1702323798.2960603,-2.0,7.0,7.0,10.0,3.0,0.0,2.0,1.0
1702323798.2960603,-10.0,-28.0,-54.0,-10.0,-8.0,0.0,-4.0,-3.0
1702323798.2960603,2.0,11.0,24.0,1.0,7.0,0.0,-1.0,-5.0
1702323798.2960603,-8.0,-36.0,-10.0,8.0,-3.0,-4.0,0.0,-1.0
1702323798.3061166,6.0,17.0,-2.0,1.0,4.0,5.0,7.0,6.0
1702323798.3061166,6.0,3.0,10.0,-2.0,0.0,0.0,3.0,11.0
1702323798.3061166,-3.0,-35.0,-9.0,-4.0,4.0,-4.0,-10.0,-20.0
1702323798.3061166,6.0,5.0,-10.0,-11.0,-12.0,-40.0,-24.0,-7.0
1702323798.3460605,-4.0,-7.0,7.0,0.0,4.0,27.0,1.0,5.0
1702323798.3460605,5.0,0.0,-10.0,11.0,2.0,1.0,26.0,60.0
1702323798.3560529,15.0,3.0,-6.0,3.0,5.0,26.0,41.0,-16.0
1702323798.3560529,-9.0,2.0,2.0,-1.0,1.0,34.0,48.0,30.0
1702323798.3560529,0.0,0.0,-25.0,-14.0,-11.0,-23.0,-89.0,-9.0
1702323798.3560529,-8.0,-13.0,4.0,14.0,0.0,-4.0,-16.0,-45.0
1702323798.3560529,5.0,66.0,21.0,2.0,-7.0,-15.0,2.0,44.0
1702323798.3560529,-36.0,-40.0,-40.0,-18.0,-4.0,-13.0,-23.0,-15.0
1702323798.3661578,-7.0,-1.0,-16.0,5.0,5.0,-4.0,15.0,8.0
1702323798.3661578,17.0,-46.0,-19.0,-24.0,-19.0,-14.0,-26.0,-21.0
1702323798.3661578,3.0,27.0,50.0,-2.0,-1.0,-9.0,-1.0,11.0
1702323798.3661578,-10.0,-21.0,5.0,11.0,-10.0,13.0,12.0,-6.0
1702323798.3937068,-8.0,-22.0,-83.0,0.0,7.0,-2.0,12.0,0.0
1702323798.3937068,5.0,28.0,4.0,9.0,31.0,6.0,-4.0,6.0
1702323798.3937068,5.0,-14.0,-76.0,-13.0,-12.0,-7.0,3.0,-15.0
1702323798.3937068,10.0,-23.0,56.0,22.0,11.0,8.0,-4.0,5.0
1702323798.4140542,-2.0,-36.0,19.0,-11.0,-1.0,6.0,16.0,-3.0
1702323798.4140542,-2.0,30.0,17.0,-6.0,-8.0,-6.0,0.0,-2.0
1702323798.4140542,-7.0,17.0,31.0,12.0,2.0,2.0,-10.0,-2.0
1702323798.4140542,-16.0,13.0,-51.0,-15.0,-10.0,8.0,-13.0,-19.0
1702323798.4340417,-8.0,-17.0,3.0,-10.0,-11.0,13.0,8.0,7.0
1702323798.4340417,-18.0,-6.0,-8.0,-5.0,-5.0,-7.0,-9.0,-23.0
1702323798.4340417,9.0,-3.0,12.0,-3.0,-6.0,-1.0,-8.0,-4.0
1702323798.4340417,3.0,-25.0,14.0,3.0,3.0,11.0,11.0,9.0
1702323798.4538126,19.0,55.0,12.0,4.0,0.0,-40.0,2.0,-30.0
1702323798.4538126,-9.0,15.0,-4.0,1.0,-8.0,-7.0,-12.0,-6.0
1702323798.4538126,1.0,-32.0,12.0,4.0,0.0,-3.0,-4.0,-10.0
1702323798.4538126,3.0,13.0,-40.0,-16.0,-4.0,-2.0,-3.0,12.0
1702323798.4840093,9.0,32.0,9.0,-4.0,-3.0,18.0,10.0,8.0
1702323798.4840093,-1.0,0.0,-3.0,5.0,12.0,13.0,6.0,1.0
1702323798.4840093,-11.0,1.0,13.0,20.0,1.0,-14.0,-8.0,-15.0
1702323798.4840093,9.0,14.0,8.0,-15.0,-1.0,-2.0,1.0,0.0
1702323798.4942467,-8.0,-18.0,3.0,-6.0,2.0,4.0,6.0,4.0
1702323798.4942467,-3.0,-4.0,-11.0,-1.0,-18.0,-8.0,-8.0,-1.0
1702323798.4942467,-6.0,-21.0,-4.0,22.0,26.0,11.0,5.0,10.0
1702323798.4942467,-6.0,8.0,7.0,-6.0,3.0,-8.0,-6.0,-7.0
1702323798.5240197,-7.0,-19.0,-6.0,7.0,0.0,-2.0,1.0,-2.0
1702323798.5240197,-13.0,-1.0,-2.0,-33.0,0.0,7.0,5.0,7.0
1702323798.5240197,10.0,2.0,-5.0,0.0,-3.0,1.0,-7.0,-7.0
1702323798.5240197,0.0,9.0,-6.0,-3.0,0.0,-5.0,-3.0,-8.0
1702323798.5343125,-12.0,-9.0,17.0,10.0,-1.0,-4.0,1.0,-3.0
1702323798.5343125,8.0,1.0,1.0,3.0,-11.0,-2.0,-1.0,1.0
1702323798.5343125,-7.0,-6.0,-14.0,-22.0,-12.0,-2.0,0.0,7.0
1702323798.5343125,21.0,16.0,11.0,12.0,1.0,-6.0,0.0,0.0
1702323798.5543582,-16.0,-12.0,1.0,1.0,0.0,1.0,1.0,-5.0
1702323798.5543582,-1.0,-19.0,-19.0,2.0,-6.0,-5.0,-6.0,-3.0
1702323798.5543582,-4.0,1.0,2.0,-2.0,-3.0,-3.0,-2.0,-1.0
1702323798.5543582,2.0,25.0,6.0,-1.0,0.0,-2.0,1.0,-4.0
1702323798.5741308,8.0,-18.0,1.0,-5.0,2.0,3.0,3.0,5.0
1702323798.5741308,-15.0,2.0,-12.0,-7.0,-5.0,-2.0,-1.0,-4.0
1702323798.5741308,-2.0,0.0,-3.0,-11.0,-6.0,-4.0,-3.0,-7.0
1702323798.5741308,0.0,11.0,4.0,8.0,4.0,1.0,-1.0,1.0
1702323798.594415,-3.0,-3.0,-6.0,-2.0,1.0,-4.0,1.0,1.0
1702323798.594415,6.0,0.0,-19.0,9.0,10.0,5.0,2.0,1.0
1702323798.594415,-2.0,-1.0,0.0,-27.0,-6.0,-2.0,-1.0,-3.0
1702323798.594415,-2.0,6.0,-1.0,9.0,-8.0,-5.0,-3.0,-2.0
1702323798.6140518,6.0,0.0,5.0,-1.0,-5.0,1.0,1.0,2.0
1702323798.6140518,-7.0,-49.0,8.0,11.0,5.0,1.0,0.0,-7.0
1702323798.6140518,-1.0,3.0,5.0,-3.0,-4.0,-6.0,-3.0,0.0
1702323798.6140518,5.0,2.0,-38.0,-18.0,-4.0,-4.0,0.0,2.0
1702323798.6345804,-6.0,-13.0,11.0,-4.0,0.0,0.0,-1.0,-5.0
1702323798.6345804,6.0,18.0,1.0,11.0,5.0,5.0,3.0,1.0
1702323798.6345804,-5.0,-9.0,-3.0,-1.0,-1.0,-2.0,-7.0,-5.0
1702323798.6345804,-5.0,-10.0,22.0,0.0,2.0,0.0,3.0,10.0
1702323798.6543057,0.0,7.0,-17.0,-4.0,-4.0,-2.0,8.0,-5.0
1702323798.6543057,0.0,5.0,-5.0,2.0,-5.0,-16.0,-5.0,10.0
1702323798.6543057,-1.0,2.0,11.0,-3.0,-3.0,12.0,2.0,-3.0
1702323798.6543057,3.0,10.0,45.0,6.0,2.0,-6.0,-2.0,2.0
1702323798.6842954,-2.0,-17.0,-52.0,-6.0,-1.0,5.0,-3.0,1.0
1702323798.6842954,3.0,26.0,20.0,6.0,2.0,-6.0,-5.0,-8.0
1702323798.6842954,-4.0,-15.0,0.0,-1.0,0.0,4.0,-7.0,-11.0
1702323798.6842954,-2.0,-15.0,-25.0,-6.0,-3.0,0.0,-9.0,-3.0
1702323798.6945155,3.0,15.0,9.0,-4.0,-6.0,-5.0,2.0,1.0
1702323798.6945155,-8.0,-13.0,12.0,3.0,-5.0,0.0,3.0,-8.0
1702323798.6945155,-6.0,20.0,5.0,-1.0,-1.0,-3.0,2.0,3.0
1702323798.6945155,-2.0,-31.0,9.0,4.0,7.0,2.0,2.0,-5.0
1702323798.714548,5.0,8.0,36.0,25.0,21.0,4.0,0.0,7.0
1702323798.714548,-12.0,-65.0,-80.0,-16.0,-1.0,7.0,0.0,2.0
1702323798.714548,24.0,48.0,26.0,10.0,5.0,-3.0,-1.0,3.0
1702323798.714548,-35.0,-83.0,2.0,3.0,-5.0,3.0,0.0,-10.0
1702323798.7442994,26.0,46.0,67.0,4.0,-1.0,-4.0,2.0,24.0
1702323798.7442994,-33.0,-8.0,-2.0,-7.0,-8.0,-15.0,-13.0,-25.0
1702323798.7442994,1.0,14.0,-49.0,-12.0,-7.0,1.0,1.0,19.0
1702323798.7442994,3.0,57.0,20.0,-3.0,0.0,2.0,-10.0,-17.0
1702323798.7645268,-13.0,-70.0,-4.0,5.0,3.0,-7.0,-12.0,-14.0
1702323798.7645268,-19.0,-57.0,26.0,6.0,-2.0,14.0,8.0,-14.0
1702323798.7645268,13.0,57.0,-21.0,-17.0,-7.0,-31.0,-29.0,38.0
1702323798.7645268,14.0,20.0,-53.0,-1.0,-5.0,12.0,32.0,-24.0
1702323798.7942963,-5.0,10.0,25.0,-2.0,-3.0,-8.0,23.0,-25.0
1702323798.7942963,6.0,29.0,41.0,5.0,3.0,17.0,2.0,7.0
1702323798.7942963,-31.0,-17.0,35.0,19.0,0.0,-20.0,5.0,-17.0
1702323798.7942963,5.0,-30.0,-73.0,-25.0,-14.0,10.0,-19.0,24.0
1702323798.7942963,8.0,7.0,-29.0,8.0,2.0,-15.0,-25.0,-8.0
1702323798.7942963,28.0,11.0,25.0,-36.0,-3.0,9.0,22.0,27.0
1702323798.7942963,-1.0,-5.0,31.0,14.0,-1.0,-6.0,3.0,-10.0
1702323798.7942963,27.0,-17.0,-59.0,-3.0,8.0,-7.0,-12.0,9.0
1702323798.8171782,-1.0,13.0,-19.0,13.0,5.0,14.0,4.0,-1.0
1702323798.8171782,-21.0,67.0,20.0,8.0,-3.0,-4.0,-1.0,7.0
1702323798.8171782,-12.0,-55.0,7.0,-10.0,-11.0,-15.0,-17.0,-18.0
1702323798.8171782,-10.0,3.0,2.0,10.0,-2.0,9.0,20.0,10.0
1702323798.839066,2.0,1.0,-17.0,-28.0,-13.0,-15.0,-3.0,-1.0
1702323798.839066,14.0,38.0,23.0,13.0,7.0,-24.0,5.0,9.0
1702323798.839066,-2.0,-46.0,-28.0,-5.0,0.0,33.0,9.0,3.0
1702323798.839066,3.0,11.0,1.0,0.0,0.0,1.0,-4.0,-19.0
1702323798.8493626,-5.0,-14.0,-6.0,-9.0,-3.0,-5.0,-2.0,1.0
1702323798.8493626,15.0,18.0,20.0,18.0,7.0,4.0,-18.0,5.0
1702323798.8593886,-1.0,-33.0,-53.0,-5.0,-2.0,-8.0,12.0,0.0
1702323798.8593886,0.0,28.0,31.0,1.0,0.0,-12.0,-3.0,-3.0
1702323798.8695126,-26.0,14.0,23.0,-5.0,-2.0,16.0,-5.0,39.0
1702323798.8695126,2.0,-14.0,-52.0,-7.0,-10.0,7.0,-2.0,-17.0
1702323798.8695126,0.0,-5.0,26.0,-17.0,5.0,7.0,4.0,0.0
1702323798.8695126,-4.0,22.0,31.0,19.0,16.0,2.0,1.0,-5.0
1702323798.9093823,14.0,5.0,6.0,12.0,6.0,-3.0,-2.0,2.0
1702323798.9093823,7.0,30.0,-28.0,28.0,10.0,-1.0,-7.0,3.0
1702323798.9093823,-13.0,-10.0,-14.0,-33.0,-13.0,-7.0,-7.0,-14.0
1702323798.9093823,8.0,-11.0,14.0,3.0,10.0,-2.0,3.0,12.0
1702323798.9093823,-25.0,1.0,-32.0,-12.0,-3.0,5.0,-4.0,-12.0
1702323798.9093823,-1.0,-13.0,24.0,-10.0,-6.0,-8.0,-5.0,-6.0
1702323798.9197395,10.0,32.0,13.0,25.0,1.0,5.0,7.0,1.0
1702323798.9197395,-5.0,4.0,4.0,-14.0,-6.0,-7.0,-5.0,-2.0
1702323798.9296324,4.0,-6.0,-27.0,3.0,3.0,5.0,1.0,-6.0
1702323798.9296324,5.0,26.0,41.0,2.0,-1.0,3.0,0.0,-3.0
1702323798.9296324,-4.0,-34.0,-38.0,-2.0,5.0,0.0,0.0,0.0
1702323798.9296324,-9.0,16.0,26.0,0.0,-9.0,-10.0,-5.0,2.0
1702323798.9593797,0.0,-23.0,-6.0,-3.0,-5.0,-2.0,-2.0,-5.0
1702323798.9593797,-5.0,-4.0,-7.0,-4.0,3.0,-1.0,2.0,2.0
1702323798.9593797,3.0,9.0,9.0,7.0,4.0,3.0,-2.0,-5.0
1702323798.9593797,0.0,17.0,9.0,1.0,-1.0,0.0,-3.0,4.0
1702323798.9696531,5.0,16.0,-4.0,-13.0,-8.0,-2.0,3.0,-9.0
1702323798.9696531,-15.0,5.0,-8.0,-5.0,-5.0,-3.0,-5.0,10.0
1702323798.9796007,7.0,38.0,-2.0,5.0,5.0,5.0,4.0,0.0
1702323798.9796007,-9.0,-23.0,-16.0,-10.0,-6.0,-4.0,-5.0,6.0
1702323798.9895635,-11.0,-6.0,24.0,6.0,3.0,1.0,-1.0,-15.0
1702323798.9895635,10.0,-7.0,-13.0,1.0,-1.0,-2.0,0.0,-4.0
1702323798.9895635,-5.0,15.0,48.0,14.0,5.0,6.0,9.0,-13.0
1702323798.9895635,-9.0,27.0,-48.0,-7.0,-4.0,0.0,-5.0,-24.0
1702323799.0197706,3.0,-22.0,31.0,-8.0,-5.0,-6.0,-3.0,39.0
1702323799.0197706,6.0,-1.0,10.0,-3.0,1.0,11.0,8.0,13.0
1702323799.0197706,18.0,29.0,33.0,14.0,3.0,13.0,-2.0,-20.0
1702323799.0197706,-9.0,-37.0,-33.0,-5.0,-1.0,-5.0,13.0,26.0
1702323799.0398266,-6.0,73.0,-3.0,-2.0,-2.0,0.0,-20.0,-47.0
1702323799.0398266,3.0,5.0,5.0,-5.0,-2.0,-9.0,-4.0,28.0
1702323799.0398266,-4.0,-3.0,13.0,-8.0,-3.0,-8.0,-3.0,2.0
1702323799.0398266,15.0,63.0,45.0,16.0,4.0,4.0,5.0,10.0
1702323799.0497565,-1.0,-46.0,-23.0,-12.0,-6.0,-1.0,-4.0,5.0
1702323799.0497565,4.0,-6.0,-46.0,-6.0,-2.0,-4.0,-5.0,-11.0
1702323799.0497565,4.0,12.0,-19.0,5.0,1.0,1.0,-3.0,-4.0
1702323799.0497565,-9.0,-40.0,18.0,-2.0,-3.0,-6.0,-6.0,-22.0
1702323799.0793815,-2.0,2.0,16.0,1.0,-3.0,1.0,7.0,7.0
1702323799.0793815,4.0,-18.0,2.0,-1.0,-2.0,-2.0,-4.0,-30.0
1702323799.0793815,-3.0,-19.0,-41.0,-8.0,-3.0,-2.0,-1.0,15.0
1702323799.0793815,-1.0,-10.0,7.0,-7.0,-7.0,-8.0,-3.0,5.0
1702323799.099653,1.0,4.0,2.0,-1.0,-7.0,1.0,3.0,-15.0
1702323799.099653,1.0,-6.0,1.0,9.0,7.0,7.0,7.0,-4.0
1702323799.099653,-1.0,-14.0,-19.0,-2.0,5.0,-3.0,8.0,13.0
1702323799.099653,-20.0,-2.0,10.0,-1.0,-1.0,1.0,0.0,-40.0
1702323799.1293867,20.0,-1.0,1.0,7.0,2.0,3.0,8.0,23.0
1702323799.1293867,-12.0,-7.0,-19.0,-5.0,-4.0,2.0,42.0,2.0
1702323799.1393797,-15.0,-16.0,12.0,-19.0,-7.0,-1.0,-44.0,0.0
1702323799.1393797,-5.0,-8.0,-13.0,-11.0,-14.0,-23.0,-69.0,-43.0
1702323799.1393797,-21.0,8.0,30.0,29.0,13.0,-8.0,2.0,12.0
1702323799.1393797,14.0,14.0,23.0,-1.0,-9.0,5.0,7.0,-7.0
1702323799.1393797,-7.0,-17.0,-41.0,7.0,22.0,8.0,-4.0,-4.0
1702323799.1393797,24.0,2.0,9.0,-4.0,-2.0,5.0,15.0,21.0
1702323799.1597142,-25.0,-18.0,-35.0,-4.0,-1.0,-7.0,-5.0,-13.0
1702323799.1597142,-4.0,-32.0,19.0,-11.0,-14.0,-14.0,-3.0,5.0
1702323799.1597142,0.0,26.0,-9.0,10.0,-4.0,1.0,16.0,-5.0
1702323799.1597142,12.0,4.0,3.0,10.0,10.0,3.0,4.0,18.0
1702323799.1893811,-17.0,-9.0,32.0,-17.0,-8.0,-4.0,-5.0,-12.0
1702323799.1893811,-6.0,1.0,22.0,15.0,10.0,-1.0,-4.0,8.0
1702323799.1893811,9.0,-20.0,-75.0,-27.0,-20.0,-3.0,-2.0,2.0
1702323799.1893811,-2.0,9.0,34.0,3.0,-6.0,-10.0,2.0,6.0
1702323799.199379,9.0,15.0,10.0,2.0,7.0,7.0,8.0,2.0
1702323799.199379,0.0,8.0,-30.0,-2.0,10.0,7.0,-12.0,10.0
1702323799.199379,-9.0,-18.0,39.0,31.0,1.0,2.0,-3.0,-5.0
1702323799.199379,3.0,5.0,51.0,10.0,13.0,6.0,18.0,15.0
1702323799.22938,-1.0,20.0,-26.0,-6.0,6.0,5.0,2.0,10.0
1702323799.22938,2.0,-19.0,24.0,-3.0,0.0,-6.0,-15.0,-9.0
1702323799.22938,11.0,-1.0,-28.0,-2.0,-2.0,1.0,6.0,17.0
1702323799.22938,8.0,-16.0,-14.0,3.0,-12.0,-1.0,9.0,-9.0
1702323799.22938,8.0,-8.0,-15.0,-19.0,-11.0,-7.0,-7.0,3.0
1702323799.22938,-29.0,12.0,-23.0,-13.0,-5.0,-2.0,-11.0,-8.0
1702323799.22938,-16.0,-3.0,39.0,6.0,-1.0,-5.0,8.0,-14.0
1702323799.22938,-8.0,-35.0,8.0,-3.0,-4.0,3.0,2.0,29.0
1702323799.259729,-2.0,15.0,-56.0,-9.0,-2.0,-3.0,1.0,-22.0
1702323799.259729,10.0,-22.0,-7.0,0.0,-5.0,-8.0,-13.0,13.0
1702323799.259729,-10.0,19.0,-10.0,-11.0,-5.0,-7.0,-3.0,-10.0
1702323799.259729,-4.0,-65.0,-9.0,1.0,4.0,7.0,-6.0,31.0
1702323799.289382,51.0,67.0,30.0,6.0,1.0,-3.0,-5.0,18.0
1702323799.289382,-16.0,41.0,28.0,1.0,-1.0,-5.0,10.0,25.0
1702323799.289382,-9.0,-36.0,-20.0,-7.0,1.0,8.0,10.0,-12.0
1702323799.289382,20.0,38.0,11.0,-9.0,0.0,3.0,-3.0,47.0
1702323799.289382,14.0,8.0,33.0,9.0,-1.0,-22.0,15.0,13.0
1702323799.289382,5.0,-4.0,-8.0,0.0,1.0,31.0,-2.0,-4.0
1702323799.289382,36.0,12.0,21.0,15.0,5.0,-10.0,-9.0,8.0
1702323799.289382,-48.0,7.0,-31.0,-14.0,-6.0,3.0,8.0,-29.0
1702323799.3196795,-10.0,-63.0,-30.0,-6.0,-1.0,9.0,-35.0,-43.0
1702323799.3196795,29.0,25.0,59.0,21.0,7.0,-15.0,13.0,42.0
1702323799.3196795,-44.0,-33.0,-67.0,-26.0,-13.0,7.0,10.0,0.0
1702323799.3196795,-1.0,6.0,-13.0,20.0,3.0,-14.0,-6.0,14.0
1702323799.3613145,5.0,-2.0,-3.0,-35.0,-5.0,8.0,4.0,-14.0
1702323799.3613145,-20.0,-24.0,-25.0,29.0,9.0,-3.0,-23.0,-47.0
1702323799.3613145,-5.0,16.0,36.0,4.0,-4.0,-20.0,-11.0,-8.0
1702323799.3613145,3.0,19.0,9.0,-6.0,-7.0,3.0,-5.0,-18.0
1702323799.3613145,-4.0,-13.0,-8.0,13.0,6.0,8.0,11.0,22.0
1702323799.3613145,20.0,-9.0,-18.0,-5.0,4.0,1.0,1.0,-4.0
1702323799.3613145,3.0,4.0,34.0,8.0,-5.0,-5.0,-2.0,8.0
1702323799.3613145,1.0,25.0,-31.0,-2.0,-1.0,-6.0,0.0,-37.0
1702323799.3713403,-12.0,-47.0,7.0,-9.0,1.0,11.0,5.0,31.0
1702323799.3713403,4.0,16.0,42.0,1.0,-9.0,-4.0,-6.0,-24.0
1702323799.3813198,-13.0,-23.0,-65.0,-19.0,-3.0,-4.0,-8.0,-8.0
1702323799.3813198,5.0,8.0,6.0,-15.0,-4.0,-4.0,8.0,-5.0
1702323799.4197335,2.0,33.0,11.0,8.0,-13.0,-7.0,-7.0,-12.0
1702323799.4197335,-23.0,-53.0,-49.0,-19.0,-1.0,-10.0,-9.0,-6.0
1702323799.4197335,6.0,9.0,21.0,-6.0,0.0,-2.0,2.0,8.0
1702323799.4197335,5.0,-13.0,8.0,3.0,18.0,13.0,4.0,-4.0
1702323799.4197335,-19.0,1.0,19.0,5.0,-1.0,-4.0,1.0,-3.0
1702323799.4197335,-1.0,-18.0,-52.0,-20.0,-14.0,-4.0,-1.0,-3.0
1702323799.4197335,14.0,13.0,27.0,27.0,44.0,9.0,6.0,3.0
1702323799.4197335,-11.0,-7.0,-3.0,1.0,-8.0,-1.0,-5.0,-9.0
1702323799.439754,-3.0,-2.0,-2.0,5.0,2.0,-2.0,-2.0,-3.0
1702323799.439754,3.0,22.0,7.0,-8.0,-13.0,-5.0,-1.0,-4.0
1702323799.439754,6.0,-8.0,11.0,-12.0,-14.0,-7.0,-5.0,-1.0
1702323799.439754,-13.0,13.0,-11.0,-5.0,-2.0,-14.0,-7.0,-5.0
1702323799.4597642,-4.0,-9.0,-7.0,3.0,-5.0,8.0,0.0,9.0
1702323799.4597642,-6.0,-2.0,-1.0,0.0,-2.0,1.0,-13.0,-9.0
1702323799.4597642,-3.0,33.0,9.0,-4.0,-1.0,10.0,1.0,-35.0
1702323799.4597642,-1.0,-35.0,7.0,4.0,0.0,-7.0,-7.0,21.0
1702323799.4700027,3.0,33.0,-28.0,-10.0,-7.0,11.0,26.0,-1.0
1702323799.4700027,3.0,13.0,2.0,0.0,3.0,-8.0,-5.0,-2.0
1702323799.4700027,-6.0,-24.0,-22.0,-1.0,1.0,20.0,6.0,-8.0
1702323799.4700027,2.0,-7.0,32.0,0.0,-6.0,-12.0,-1.0,4.0
1702323799.4997575,1.0,-22.0,35.0,12.0,5.0,-11.0,-11.0,-12.0
1702323799.4997575,-11.0,20.0,-68.0,-26.0,-7.0,-16.0,1.0,14.0
1702323799.4997575,18.0,-19.0,27.0,10.0,-2.0,1.0,-1.0,8.0
1702323799.4997575,-2.0,4.0,-40.0,-12.0,-10.0,-3.0,-4.0,-4.0
1702323799.5297327,-8.0,-18.0,-2.0,7.0,6.0,1.0,2.0,-8.0
1702323799.5297327,12.0,21.0,24.0,2.0,-1.0,0.0,3.0,-5.0
1702323799.5297327,-15.0,-2.0,26.0,2.0,-6.0,-8.0,-1.0,17.0
1702323799.5297327,7.0,-8.0,9.0,-13.0,-10.0,2.0,5.0,-9.0
1702323799.5297327,1.0,5.0,-46.0,-6.0,-3.0,-4.0,-7.0,3.0
1702323799.5297327,-8.0,-8.0,49.0,32.0,20.0,10.0,5.0,4.0
1702323799.5297327,1.0,0.0,-33.0,-3.0,-4.0,-9.0,-5.0,1.0
1702323799.5297327,-1.0,10.0,16.0,9.0,6.0,10.0,4.0,-9.0
1702323799.559789,1.0,3.0,19.0,-5.0,-7.0,-10.0,-4.0,-5.0
1702323799.559789,7.0,-8.0,-15.0,-9.0,-6.0,0.0,-1.0,-1.0
1702323799.559789,4.0,5.0,13.0,-7.0,-3.0,-2.0,-2.0,2.0
1702323799.559789,-4.0,-4.0,-26.0,1.0,2.0,1.0,-1.0,-8.0
1702323799.579736,0.0,-13.0,-29.0,-6.0,-2.0,-1.0,-2.0,0.0
1702323799.579736,-4.0,-5.0,26.0,-4.0,-2.0,1.0,2.0,-9.0
1702323799.579736,-2.0,4.0,-9.0,-5.0,-4.0,-4.0,-1.0,7.0
1702323799.579736,6.0,8.0,-9.0,3.0,-2.0,-2.0,0.0,-3.0
1702323799.590039,0.0,-4.0,-6.0,2.0,-1.0,1.0,-4.0,2.0
1702323799.590039,3.0,2.0,-16.0,1.0,5.0,4.0,-1.0,-3.0
1702323799.599879,2.0,34.0,38.0,7.0,-3.0,-40.0,2.0,20.0
1702323799.599879,-9.0,-45.0,-11.0,-10.0,2.0,43.0,8.0,-2.0
1702323799.619733,-2.0,-21.0,7.0,-3.0,-2.0,-19.0,-11.0,-3.0
1702323799.619733,2.0,-16.0,-33.0,-10.0,-3.0,22.0,2.0,0.0
1702323799.619733,6.0,42.0,-8.0,-6.0,-3.0,-4.0,-2.0,0.0
1702323799.619733,-7.0,0.0,8.0,6.0,5.0,-10.0,-3.0,-12.0
1702323799.6399245,-3.0,13.0,6.0,3.0,0.0,-6.0,1.0,11.0
1702323799.6399245,-2.0,-26.0,4.0,-7.0,-9.0,-4.0,2.0,-29.0
1702323799.6399245,3.0,-6.0,7.0,7.0,5.0,4.0,-3.0,-4.0
1702323799.6399245,2.0,13.0,-4.0,5.0,4.0,2.0,2.0,10.0
1702323799.650072,-8.0,-9.0,7.0,-2.0,-2.0,5.0,-2.0,-12.0
1702323799.650072,1.0,20.0,1.0,6.0,1.0,-9.0,-1.0,4.0
1702323799.6600826,-6.0,-24.0,-27.0,-12.0,-5.0,4.0,-1.0,-10.0
1702323799.6600826,1.0,10.0,9.0,-10.0,-13.0,-7.0,-5.0,-3.0
1702323799.6797333,0.0,-4.0,-17.0,-7.0,2.0,0.0,2.0,4.0
1702323799.6797333,-1.0,4.0,16.0,20.0,4.0,3.0,2.0,3.0
1702323799.6797333,-2.0,-6.0,29.0,27.0,14.0,7.0,0.0,3.0
1702323799.6797333,-2.0,-3.0,-15.0,-13.0,1.0,-8.0,-4.0,1.0
1702323799.7001293,1.0,12.0,32.0,9.0,-1.0,3.0,1.0,0.0
1702323799.7001293,-1.0,-2.0,-30.0,-2.0,1.0,-1.0,-1.0,2.0
1702323799.7001293,-4.0,-12.0,-7.0,-8.0,-6.0,3.0,-1.0,-5.0
1702323799.7001293,29.0,47.0,-7.0,-12.0,-1.0,-6.0,2.0,2.0
1702323799.710125,-40.0,-74.0,-12.0,7.0,-4.0,0.0,0.0,-6.0
1702323799.710125,-26.0,-8.0,3.0,-9.0,-7.0,-4.0,-2.0,-2.0
1702323799.7200909,2.0,45.0,3.0,-9.0,-6.0,0.0,-3.0,3.0
1702323799.7200909,-17.0,-36.0,5.0,14.0,1.0,-6.0,-4.0,-9.0
1702323799.7397342,20.0,23.0,-12.0,-13.0,-1.0,3.0,-2.0,-4.0
1702323799.7397342,7.0,-2.0,11.0,11.0,6.0,0.0,2.0,3.0
1702323799.7397342,-4.0,-12.0,-1.0,-3.0,-3.0,1.0,-1.0,3.0
1702323799.7397342,4.0,12.0,-6.0,-5.0,-4.0,-16.0,-6.0,-13.0
1702323799.76018,4.0,7.0,-6.0,-5.0,1.0,10.0,0.0,-2.0
1702323799.76018,-5.0,-11.0,-3.0,-8.0,-4.0,2.0,-6.0,-5.0
1702323799.76018,2.0,-3.0,0.0,-8.0,-8.0,4.0,-1.0,-4.0
1702323799.76018,-2.0,1.0,10.0,22.0,-1.0,-2.0,0.0,0.0
1702323799.76977,-6.0,-2.0,-14.0,-14.0,10.0,-3.0,0.0,0.0
1702323799.76977,3.0,6.0,2.0,-3.0,-1.0,-4.0,-1.0,-1.0
1702323799.7897317,-1.0,-7.0,-4.0,-4.0,2.0,1.0,0.0,2.0
1702323799.7897317,-5.0,-2.0,13.0,8.0,4.0,3.0,-1.0,1.0
1702323799.800121,0.0,5.0,-16.0,1.0,-7.0,-5.0,-2.0,-1.0
1702323799.800121,4.0,1.0,-6.0,-13.0,-7.0,-5.0,-2.0,3.0
1702323799.800121,-2.0,-7.0,1.0,-5.0,1.0,-1.0,0.0,-4.0
1702323799.800121,-6.0,-8.0,-7.0,-4.0,-5.0,-4.0,-1.0,1.0
1702323799.8201532,5.0,9.0,12.0,6.0,4.0,3.0,0.0,0.0
1702323799.8201532,1.0,-1.0,-5.0,1.0,0.0,-1.0,1.0,0.0
1702323799.8201532,-4.0,-10.0,-5.0,4.0,-2.0,-2.0,0.0,-3.0
1702323799.8201532,0.0,-5.0,-11.0,-12.0,-4.0,2.0,3.0,1.0
1702323799.8397362,2.0,7.0,8.0,12.0,11.0,0.0,0.0,2.0
1702323799.8397362,1.0,-3.0,-6.0,-3.0,-5.0,-2.0,-1.0,-1.0
1702323799.8397362,1.0,5.0,26.0,3.0,4.0,2.0,-2.0,-1.0
1702323799.8397362,-5.0,-10.0,-32.0,-8.0,-8.0,-2.0,-1.0,-1.0
1702323799.8597395,4.0,5.0,6.0,10.0,0.0,2.0,2.0,1.0
1702323799.8597395,-3.0,9.0,19.0,-8.0,2.0,-1.0,-3.0,-1.0
1702323799.8597395,1.0,-9.0,-20.0,-8.0,3.0,0.0,0.0,0.0
1702323799.8597395,1.0,12.0,10.0,0.0,-3.0,1.0,-2.0,3.0
1702323799.8834255,-2.0,-5.0,-5.0,-5.0,-2.0,-5.0,-2.0,-1.0
1702323799.8834255,4.0,4.0,-6.0,-8.0,3.0,0.0,-3.0,0.0
1702323799.8844187,-4.0,-3.0,9.0,15.0,6.0,3.0,-2.0,-3.0
1702323799.8844187,-1.0,5.0,2.0,2.0,2.0,0.0,0.0,2.0
1702323799.894594,-3.0,-8.0,-8.0,-4.0,-9.0,-4.0,-4.0,-2.0
1702323799.894594,-1.0,-1.0,1.0,-13.0,-14.0,-5.0,-1.0,-2.0
1702323799.9103997,-1.0,-5.0,-16.0,-8.0,-2.0,-2.0,-3.0,0.0
1702323799.9103997,2.0,9.0,14.0,13.0,9.0,2.0,1.0,2.0
1702323799.930344,4.0,4.0,-1.0,6.0,-1.0,0.0,0.0,-1.0
1702323799.930344,-10.0,-15.0,-1.0,-5.0,-2.0,-3.0,-2.0,-2.0
1702323799.930344,0.0,6.0,41.0,-5.0,-15.0,-8.0,-1.0,-1.0
1702323799.930344,-2.0,-4.0,-21.0,2.0,8.0,1.0,0.0,-2.0
1702323799.9403694,-16.0,-10.0,14.0,0.0,8.0,1.0,-1.0,-1.0
1702323799.9403694,9.0,7.0,-28.0,3.0,0.0,1.0,1.0,1.0
1702323799.9403694,-7.0,-16.0,-8.0,-10.0,-6.0,0.0,0.0,-3.0
1702323799.9403694,-2.0,-26.0,12.0,2.0,-1.0,-1.0,-2.0,1.0
1702323799.9606707,-6.0,9.0,-14.0,-7.0,-7.0,-1.0,-2.0,-2.0
1702323799.9606707,2.0,23.0,5.0,-8.0,1.0,-1.0,0.0,-1.0
1702323799.97034,-3.0,-5.0,-20.0,11.0,1.0,0.0,0.0,-1.0
1702323799.97034,3.0,8.0,-5.0,-9.0,-3.0,-3.0,-2.0,-2.0
1702323799.97034,1.0,-7.0,1.0,-4.0,-4.0,0.0,-3.0,-2.0
1702323799.97034,-5.0,-16.0,1.0,7.0,1.0,-4.0,-1.0,-2.0
1702323799.9803855,5.0,15.0,5.0,-4.0,1.0,-1.0,0.0,2.0
1702323799.9803855,-4.0,-4.0,-11.0,0.0,-1.0,0.0,-4.0,-1.0
1702323800.0007327,7.0,5.0,-2.0,3.0,0.0,-1.0,-1.0,-1.0
1702323800.0007327,-1.0,4.0,47.0,12.0,1.0,0.0,-3.0,-20.0
1702323800.0007327,-5.0,-25.0,-60.0,-13.0,-5.0,-2.0,1.0,9.0
1702323800.0007327,-1.0,11.0,0.0,7.0,4.0,1.0,-3.0,-2.0
1702323800.0207434,1.0,15.0,25.0,-10.0,-6.0,-5.0,5.0,-12.0
1702323800.0207434,-1.0,-19.0,-27.0,0.0,1.0,1.0,-5.0,3.0
1702323800.0207434,3.0,18.0,40.0,9.0,3.0,-14.0,1.0,-7.0
1702323800.0207434,-3.0,-19.0,9.0,-10.0,-6.0,15.0,-12.0,6.0
1702323800.0307753,-1.0,-15.0,-32.0,-8.0,-5.0,-13.0,0.0,12.0
1702323800.0407462,-3.0,13.0,-6.0,1.0,-1.0,15.0,-1.0,9.0
1702323800.0407462,6.0,3.0,-3.0,2.0,4.0,-1.0,-3.0,-13.0
1702323800.0407462,4.0,22.0,32.0,2.0,2.0,-8.0,6.0,36.0
1702323800.0607524,1.0,35.0,16.0,-1.0,-4.0,14.0,0.0,6.0
1702323800.0607524,-9.0,-66.0,-18.0,-3.0,-2.0,-15.0,-2.0,-14.0
1702323800.070743,3.0,-9.0,-22.0,-2.0,-2.0,0.0,8.0,19.0
1702323800.070743,1.0,12.0,7.0,-2.0,-2.0,9.0,11.0,-2.0
1702323800.08112,2.0,-5.0,1.0,3.0,2.0,4.0,13.0,1.0
1702323800.08112,2.0,3.0,0.0,1.0,-2.0,-17.0,-4.0,12.0
1702323800.08112,4.0,26.0,18.0,2.0,2.0,23.0,11.0,-5.0
1702323800.08112,1.0,-19.0,-18.0,2.0,-1.0,-13.0,-2.0,4.0
1702323800.0911133,-9.0,-16.0,-18.0,-17.0,-12.0,-7.0,-10.0,-1.0
1702323800.0911133,-2.0,2.0,13.0,7.0,14.0,5.0,-6.0,-14.0
1702323800.1007144,-8.0,11.0,14.0,19.0,-5.0,-9.0,-17.0,-1.0
1702323800.1007144,2.0,-7.0,-18.0,-10.0,2.0,1.0,2.0,1.0
1702323800.1307292,-5.0,-36.0,1.0,8.0,-2.0,1.0,-7.0,-13.0
1702323800.1307292,4.0,41.0,5.0,-4.0,-4.0,-8.0,2.0,-6.0
1702323800.1307292,-20.0,-33.0,1.0,-7.0,-6.0,-3.0,-7.0,-4.0
1702323800.1307292,1.0,10.0,4.0,-13.0,-1.0,3.0,2.0,-8.0
1702323800.1510313,14.0,22.0,-29.0,12.0,3.0,0.0,2.0,-1.0
1702323800.1510313,-8.0,-7.0,47.0,-2.0,0.0,1.0,2.0,3.0
1702323800.1510313,5.0,0.0,-27.0,-6.0,1.0,5.0,3.0,2.0
1702323800.1510313,2.0,0.0,-12.0,-6.0,-10.0,-6.0,-5.0,-13.0
1702323800.1510313,2.0,2.0,22.0,-5.0,0.0,-8.0,-3.0,1.0
1702323800.1510313,2.0,4.0,-46.0,-5.0,-1.0,7.0,4.0,7.0
1702323800.1607587,4.0,4.0,30.0,2.0,0.0,4.0,-1.0,1.0
1702323800.1607587,-13.0,-15.0,-17.0,17.0,0.0,-7.0,-3.0,-12.0
1702323800.2007318,26.0,10.0,27.0,-2.0,2.0,1.0,-2.0,7.0
1702323800.2007318,-10.0,1.0,-19.0,2.0,0.0,2.0,2.0,0.0
1702323800.2007318,-17.0,-5.0,-13.0,-2.0,1.0,-2.0,-2.0,-3.0
1702323800.2007318,-10.0,-22.0,0.0,-21.0,-6.0,-4.0,-4.0,-10.0
1702323800.2007318,-10.0,1.0,6.0,3.0,-1.0,-1.0,-3.0,-7.0
1702323800.2007318,11.0,7.0,-11.0,-6.0,-1.0,0.0,-1.0,-1.0
1702323800.2007318,4.0,-5.0,-31.0,-22.0,-9.0,-6.0,-4.0,3.0
1702323800.2007318,-5.0,8.0,29.0,22.0,2.0,-2.0,-1.0,-4.0
1702323800.2109125,0.0,-5.0,-10.0,-2.0,0.0,0.0,-3.0,1.0
1702323800.2109125,-4.0,3.0,21.0,-1.0,1.0,3.0,3.0,0.0
1702323800.2209997,3.0,1.0,-3.0,-4.0,-2.0,-3.0,-4.0,-7.0
1702323800.2209997,4.0,-2.0,-7.0,-2.0,-4.0,0.0,3.0,2.0
1702323800.2507281,-4.0,27.0,10.0,0.0,-4.0,0.0,-1.0,3.0
1702323800.2507281,-2.0,-27.0,-4.0,7.0,3.0,-4.0,3.0,3.0
1702323800.2507281,-2.0,-6.0,20.0,-8.0,-2.0,0.0,-2.0,-4.0
1702323800.2507281,1.0,-15.0,-11.0,5.0,13.0,2.0,-1.0,-8.0
1702323800.26073,5.0,37.0,-15.0,-7.0,-4.0,8.0,2.0,0.0
1702323800.26073,6.0,18.0,20.0,1.0,-3.0,0.0,0.0,2.0
1702323800.26073,20.0,14.0,2.0,2.0,-3.0,2.0,0.0,3.0
1702323800.26073,-12.0,-10.0,-16.0,-8.0,0.0,-7.0,-4.0,-5.0
1702323800.271094,-29.0,-18.0,25.0,29.0,11.0,-1.0,-4.0,-16.0
1702323800.271094,-3.0,20.0,-14.0,-5.0,-6.0,-1.0,-3.0,-2.0
1702323800.290729,-1.0,-23.0,-3.0,8.0,5.0,-3.0,0.0,1.0
1702323800.290729,10.0,21.0,0.0,-16.0,-7.0,0.0,-2.0,-6.0
1702323800.301061,6.0,2.0,11.0,-8.0,-8.0,-6.0,1.0,3.0
1702323800.301061,7.0,-4.0,-22.0,-6.0,-5.0,-2.0,-3.0,1.0
1702323800.301061,-11.0,-2.0,5.0,1.0,0.0,-3.0,-1.0,0.0
1702323800.301061,10.0,9.0,17.0,1.0,0.0,2.0,0.0,5.0
1702323800.3211489,-10.0,-35.0,-29.0,-2.0,4.0,0.0,-4.0,-6.0
1702323800.3211489,-9.0,40.0,17.0,-3.0,-2.0,-1.0,1.0,-1.0
1702323800.3211489,4.0,-13.0,-28.0,-1.0,0.0,0.0,-1.0,0.0
1702323800.3211489,-3.0,-2.0,-8.0,-6.0,-7.0,0.0,-3.0,-3.0
1702323800.3311,-2.0,-15.0,-28.0,-29.0,-12.0,-7.0,-1.0,2.0
1702323800.3311,5.0,-15.0,69.0,24.0,11.0,2.0,-2.0,-2.0
1702323800.3408957,-8.0,9.0,-16.0,-3.0,-5.0,-2.0,-1.0,-6.0
1702323800.3408957,4.0,1.0,18.0,30.0,14.0,4.0,1.0,5.0
1702323800.3607588,10.0,-10.0,-9.0,10.0,3.0,-2.0,2.0,5.0
1702323800.3607588,5.0,-11.0,-43.0,-18.0,-6.0,0.0,-4.0,-7.0
1702323800.3607588,1.0,8.0,40.0,14.0,12.0,4.0,2.0,-4.0
1702323800.3607588,-27.0,-4.0,-2.0,-1.0,-4.0,-3.0,-3.0,-4.0
1702323800.3810995,-4.0,-13.0,-8.0,-6.0,1.0,-2.0,-1.0,-3.0
1702323800.3810995,19.0,21.0,20.0,1.0,-6.0,-2.0,0.0,10.0
1702323800.3810995,36.0,10.0,-12.0,-7.0,-6.0,-3.0,0.0,6.0
1702323800.3810995,-55.0,-28.0,-3.0,-9.0,-7.0,-7.0,-4.0,-12.0
1702323800.3992488,-28.0,-29.0,-14.0,-11.0,-8.0,-4.0,-9.0,-14.0
1702323800.3992488,-9.0,-7.0,-46.0,-3.0,0.0,0.0,-1.0,2.0
1702323800.4102116,6.0,-6.0,2.0,-1.0,1.0,8.0,0.0,-10.0
1702323800.4102116,39.0,28.0,4.0,2.0,-1.0,-10.0,6.0,26.0
1702323800.4202256,3.0,12.0,15.0,3.0,2.0,2.0,-6.0,8.0
1702323800.4202256,-3.0,-22.0,-4.0,-2.0,-4.0,-6.0,-13.0,-7.0
1702323800.4202256,6.0,4.0,1.0,7.0,5.0,0.0,14.0,1.0
1702323800.4202256,8.0,8.0,-5.0,-6.0,2.0,15.0,12.0,10.0
1702323800.440654,-1.0,-13.0,-11.0,-2.0,0.0,-13.0,-6.0,-12.0
1702323800.440654,-9.0,0.0,12.0,2.0,-2.0,4.0,2.0,-8.0
1702323800.440654,-10.0,9.0,10.0,0.0,-3.0,-5.0,-7.0,13.0
1702323800.440654,7.0,-13.0,-22.0,-8.0,-4.0,-8.0,13.0,-10.0
1702323800.450523,12.0,35.0,26.0,-1.0,0.0,9.0,0.0,5.0
1702323800.450523,4.0,6.0,-14.0,0.0,-2.0,-8.0,0.0,15.0
1702323800.470214,-46.0,-78.0,-21.0,-8.0,-2.0,5.0,-10.0,-13.0
1702323800.470214,20.0,33.0,18.0,2.0,-4.0,-11.0,29.0,13.0
1702323800.480594,13.0,10.0,-9.0,4.0,1.0,5.0,-13.0,7.0
1702323800.480594,-3.0,-20.0,4.0,-2.0,1.0,-1.0,-20.0,1.0
1702323800.480594,9.0,27.0,-16.0,-9.0,-13.0,-12.0,-29.0,-22.0
1702323800.480594,-41.0,11.0,17.0,3.0,6.0,3.0,-24.0,-8.0
1702323800.5005672,34.0,24.0,42.0,18.0,1.0,-5.0,18.0,11.0
1702323800.5005672,-1.0,4.0,-14.0,-11.0,-1.0,5.0,9.0,-18.0
1702323800.510218,-30.0,-32.0,-40.0,6.0,3.0,-2.0,13.0,0.0
1702323800.510218,6.0,-10.0,-10.0,-19.0,-9.0,0.0,-8.0,-5.0
1702323800.510218,-19.0,23.0,37.0,7.0,1.0,1.0,-1.0,-9.0
1702323800.510218,6.0,-14.0,5.0,13.0,1.0,-4.0,3.0,-2.0
1702323800.5302153,7.0,-30.0,-59.0,-35.0,-10.0,-6.0,-3.0,-2.0
1702323800.5302153,10.0,21.0,33.0,11.0,0.0,9.0,2.0,-7.0
1702323800.5402513,-14.0,-21.0,-38.0,2.0,4.0,-3.0,6.0,9.0
1702323800.5402513,-10.0,9.0,-15.0,-23.0,-10.0,-12.0,0.0,18.0
1702323800.5402513,-2.0,1.0,62.0,16.0,8.0,5.0,-7.0,-1.0
1702323800.5402513,0.0,14.0,-7.0,-2.0,-9.0,1.0,-46.0,-9.0
1702323800.5602999,-25.0,-67.0,-61.0,-18.0,-7.0,1.0,34.0,11.0
1702323800.5602999,-3.0,-39.0,-58.0,-11.0,-4.0,18.0,16.0,-13.0
1702323800.5602999,-8.0,1.0,26.0,3.0,-4.0,-27.0,4.0,-14.0
1702323800.5602999,25.0,8.0,-24.0,0.0,7.0,21.0,15.0,12.0
1702323800.5802145,20.0,43.0,55.0,15.0,3.0,-13.0,-29.0,4.0
1702323800.5802145,-16.0,-33.0,-15.0,-5.0,-5.0,-1.0,-6.0,12.0
1702323800.5802145,4.0,16.0,3.0,4.0,5.0,15.0,7.0,3.0
1702323800.5802145,3.0,-22.0,25.0,-2.0,-5.0,-18.0,-17.0,-7.0
1702323800.6005125,0.0,5.0,-19.0,-9.0,2.0,16.0,25.0,-6.0
1702323800.6005125,-2.0,12.0,10.0,5.0,-1.0,-9.0,4.0,-3.0
1702323800.6005125,8.0,10.0,-7.0,-15.0,-11.0,0.0,-8.0,7.0
1702323800.6005125,-10.0,-7.0,7.0,18.0,11.0,-3.0,0.0,-16.0
1702323800.6205304,1.0,2.0,-7.0,-4.0,1.0,0.0,-11.0,2.0
1702323800.6205304,-2.0,-3.0,25.0,21.0,0.0,-1.0,-8.0,-4.0
1702323800.6205304,4.0,12.0,24.0,9.0,24.0,4.0,2.0,2.0
1702323800.6205304,2.0,-8.0,-22.0,-17.0,-6.0,4.0,3.0,10.0
1702323800.650215,-3.0,-12.0,-11.0,-23.0,-14.0,-7.0,-6.0,-11.0
1702323800.650215,-2.0,-1.0,14.0,26.0,-1.0,-7.0,-8.0,-6.0
1702323800.650215,2.0,16.0,6.0,-6.0,-12.0,3.0,2.0,6.0
1702323800.650215,-4.0,5.0,-7.0,13.0,6.0,-2.0,6.0,-2.0
1702323800.66024,1.0,-3.0,3.0,-7.0,-1.0,-1.0,-8.0,-5.0
1702323800.66024,3.0,-10.0,3.0,-15.0,-7.0,-3.0,-1.0,-7.0
1702323800.66024,-3.0,-3.0,-12.0,0.0,-3.0,-2.0,-4.0,3.0
1702323800.66024,-4.0,-10.0,-8.0,-13.0,-2.0,-4.0,-3.0,-9.0
1702323800.6802146,1.0,9.0,2.0,2.0,-9.0,-5.0,-6.0,-7.0
1702323800.6802146,7.0,22.0,7.0,-2.0,4.0,6.0,4.0,3.0
1702323800.6802146,-16.0,-40.0,-6.0,3.0,2.0,4.0,2.0,1.0
1702323800.6802146,12.0,31.0,13.0,0.0,-6.0,-2.0,-1.0,4.0
1702323800.6902244,0.0,14.0,1.0,4.0,-2.0,-1.0,-2.0,-5.0
1702323800.6902244,-7.0,-70.0,-12.0,-12.0,2.0,-3.0,-2.0,-5.0
1702323800.7003798,14.0,-3.0,5.0,-1.0,-6.0,-3.0,-1.0,4.0
1702323800.7003798,-9.0,-4.0,-33.0,-4.0,0.0,-2.0,-2.0,-11.0
1702323800.720225,-4.0,13.0,31.0,-7.0,10.0,-2.0,-7.0,-3.0
1702323800.720225,-2.0,83.0,19.0,15.0,16.0,5.0,10.0,17.0
1702323800.720225,-8.0,-14.0,-8.0,-13.0,-8.0,-2.0,-11.0,-14.0
1702323800.720225,9.0,-24.0,8.0,9.0,-4.0,0.0,4.0,12.0
1702323800.7402234,-10.0,-79.0,-24.0,0.0,-4.0,-8.0,-3.0,3.0
1702323800.7402234,-6.0,23.0,21.0,-2.0,1.0,8.0,-5.0,10.0
1702323800.7602165,16.0,85.0,-4.0,-2.0,0.0,-9.0,2.0,-15.0
1702323800.7602165,-19.0,-59.0,-27.0,-16.0,-9.0,6.0,-1.0,-7.0
1702323800.7602165,28.0,37.0,7.0,10.0,5.0,-1.0,5.0,14.0
1702323800.7602165,-28.0,-82.0,-3.0,-18.0,-11.0,-6.0,-14.0,-35.0
1702323800.770246,7.0,67.0,-15.0,14.0,3.0,1.0,5.0,19.0
1702323800.770246,-2.0,-48.0,51.0,6.0,2.0,0.0,-2.0,-4.0
1702323800.7805848,-14.0,14.0,-82.0,-24.0,-11.0,-16.0,-7.0,-5.0
1702323800.7805848,-23.0,-58.0,-26.0,-11.0,-7.0,-1.0,-21.0,-18.0
1702323800.7805848,21.0,-25.0,37.0,10.0,5.0,6.0,-2.0,-23.0
1702323800.7805848,-25.0,26.0,-36.0,-9.0,-4.0,-16.0,5.0,12.0
1702323800.800216,-7.0,-20.0,94.0,15.0,2.0,13.0,8.0,3.0
1702323800.800216,27.0,38.0,-82.0,-11.0,-5.0,-14.0,4.0,32.0
1702323800.800216,-15.0,-8.0,17.0,-4.0,0.0,2.0,-1.0,-36.0
1702323800.800216,-17.0,-13.0,-36.0,-11.0,-7.0,-12.0,-6.0,22.0
1702323800.81022,-17.0,6.0,19.0,-15.0,-8.0,10.0,-2.0,-21.0
1702323800.8202274,36.0,28.0,21.0,29.0,20.0,1.0,4.0,-19.0
1702323800.8202274,-22.0,16.0,32.0,17.0,-5.0,10.0,6.0,21.0
1702323800.8202274,3.0,-7.0,-1.0,-15.0,3.0,-16.0,2.0,-9.0
1702323800.8405395,14.0,-1.0,-37.0,9.0,2.0,12.0,7.0,16.0
1702323800.8405395,-28.0,7.0,6.0,-2.0,-4.0,-10.0,-11.0,-6.0
1702323800.8405395,18.0,-24.0,-31.0,-3.0,-4.0,-8.0,-5.0,1.0
1702323800.8405395,27.0,98.0,53.0,19.0,6.0,-8.0,3.0,3.0
1702323800.8802128,-16.0,-59.0,-43.0,-16.0,-10.0,7.0,-12.0,-16.0
1702323800.8802128,9.0,-19.0,5.0,-16.0,-7.0,-1.0,7.0,6.0
1702323800.8802128,0.0,70.0,67.0,14.0,5.0,9.0,-5.0,14.0
1702323800.8802128,-21.0,-68.0,-69.0,-15.0,-12.0,-5.0,-3.0,-12.0
1702323800.8802128,10.0,19.0,17.0,1.0,5.0,-9.0,1.0,-5.0
1702323800.8802128,3.0,7.0,-23.0,7.0,0.0,-5.0,4.0,4.0
1702323800.8802128,-15.0,-21.0,11.0,-19.0,-3.0,-11.0,5.0,3.0
1702323800.8802128,17.0,10.0,-2.0,7.0,3.0,20.0,-1.0,-4.0
1702323800.9102142,13.0,21.0,47.0,24.0,6.0,-9.0,0.0,19.0
1702323800.9102142,-10.0,-11.0,-17.0,-16.0,-7.0,-4.0,9.0,10.0
1702323800.9102142,2.0,8.0,-34.0,-7.0,1.0,8.0,-2.0,12.0
1702323800.9102142,7.0,18.0,36.0,0.0,-3.0,14.0,3.0,1.0
1702323800.9206161,-6.0,-16.0,-1.0,10.0,6.0,-7.0,-2.0,-6.0
1702323800.9206161,20.0,34.0,50.0,3.0,-1.0,-9.0,7.0,66.0
1702323800.9206161,-24.0,-87.0,-32.0,-2.0,2.0,-17.0,0.0,-15.0
1702323800.9206161,-14.0,-26.0,4.0,3.0,3.0,24.0,12.0,1.0
1702323800.9474862,0.0,-32.0,-54.0,-11.0,-5.0,0.0,-1.0,-5.0
1702323800.9474862,-6.0,25.0,37.0,1.0,-3.0,3.0,4.0,17.0
1702323800.9484859,6.0,-25.0,-28.0,-4.0,-3.0,9.0,-6.0,15.0
1702323800.9484859,12.0,8.0,11.0,7.0,4.0,-4.0,-5.0,0.0
1702323800.9603302,-3.0,22.0,7.0,4.0,1.0,2.0,1.0,-20.0
1702323800.9603302,5.0,20.0,22.0,-1.0,-1.0,-5.0,-3.0,-26.0
1702323800.9703286,-2.0,11.0,4.0,-15.0,-11.0,-16.0,-4.0,-3.0
1702323800.9703286,0.0,17.0,-1.0,4.0,-2.0,0.0,-4.0,-7.0
1702323800.9805899,5.0,25.0,13.0,6.0,-3.0,3.0,-1.0,14.0
1702323800.9805899,-10.0,-29.0,-16.0,-11.0,-3.0,-4.0,-6.0,-16.0
1702323800.9805899,-6.0,-8.0,-15.0,7.0,5.0,3.0,-2.0,-2.0
1702323800.9805899,15.0,55.0,12.0,6.0,6.0,1.0,-5.0,0.0
1702323801.0009656,-14.0,-74.0,-27.0,-25.0,-6.0,-9.0,1.0,-2.0
1702323801.0009656,7.0,29.0,16.0,9.0,-12.0,6.0,-3.0,-23.0
1702323801.0009656,2.0,-10.0,-1.0,-10.0,-1.0,3.0,4.0,0.0
1702323801.0104854,3.0,45.0,2.0,-2.0,-3.0,-9.0,-3.0,-8.0
1702323801.0305128,1.0,-17.0,16.0,2.0,0.0,-1.0,-1.0,1.0
1702323801.0305128,-5.0,10.0,-4.0,-6.0,-4.0,1.0,-5.0,-13.0
1702323801.0405004,-5.0,-34.0,-6.0,3.0,4.0,1.0,0.0,-1.0
1702323801.0405004,-3.0,-1.0,-13.0,-1.0,3.0,-4.0,-2.0,0.0
1702323801.0405004,10.0,13.0,2.0,-2.0,-1.0,1.0,-3.0,-1.0
1702323801.0405004,-3.0,25.0,12.0,2.0,0.0,18.0,1.0,-1.0
1702323801.0405004,-13.0,-38.0,-40.0,-5.0,-6.0,-5.0,-1.0,-1.0
1702323801.0405004,7.0,-38.0,-2.0,-3.0,-5.0,-14.0,-10.0,-10.0
1702323801.0607173,-2.0,57.0,22.0,4.0,-2.0,6.0,4.0,11.0
1702323801.0607173,-17.0,-17.0,-12.0,-3.0,1.0,-12.0,4.0,-7.0
1702323801.0607173,-9.0,-4.0,5.0,4.0,-5.0,-4.0,-5.0,-23.0
1702323801.0607173,-8.0,4.0,-1.0,-10.0,-3.0,17.0,6.0,-4.0
1702323801.0805173,3.0,-26.0,20.0,6.0,2.0,-11.0,-23.0,30.0
1702323801.0805173,4.0,8.0,-36.0,-3.0,3.0,-9.0,-5.0,-51.0
1702323801.1004999,10.0,26.0,19.0,2.0,5.0,30.0,27.0,10.0
1702323801.1004999,-9.0,-36.0,-9.0,-1.0,-1.0,-1.0,9.0,-7.0
1702323801.1004999,3.0,21.0,-11.0,1.0,-2.0,-4.0,-4.0,-7.0
1702323801.1004999,5.0,-20.0,16.0,4.0,-5.0,3.0,0.0,12.0
1702323801.1004999,0.0,12.0,2.0,-10.0,-1.0,-19.0,-18.0,-4.0
1702323801.1004999,6.0,6.0,9.0,-13.0,3.0,-1.0,-7.0,1.0
1702323801.130501,-10.0,-9.0,-21.0,9.0,1.0,4.0,6.0,-8.0
1702323801.130501,-5.0,-22.0,-15.0,-12.0,1.0,-7.0,-9.0,4.0
1702323801.130501,1.0,26.0,16.0,20.0,-6.0,-6.0,-2.0,-2.0
1702323801.130501,-2.0,-4.0,21.0,15.0,1.0,-1.0,-3.0,7.0
1702323801.1405,-2.0,6.0,-16.0,-11.0,-2.0,-9.0,-3.0,-10.0
1702323801.1405,0.0,-9.0,4.0,1.0,-2.0,5.0,3.0,0.0
1702323801.1405,6.0,4.0,-8.0,-13.0,-5.0,-6.0,-4.0,5.0
1702323801.1405,1.0,18.0,3.0,-19.0,-10.0,-5.0,1.0,4.0
1702323801.1608217,-12.0,-7.0,-9.0,2.0,2.0,0.0,-1.0,-14.0
1702323801.1608217,0.0,-12.0,-7.0,2.0,2.0,3.0,1.0,2.0
1702323801.1608217,5.0,13.0,11.0,-10.0,1.0,0.0,-4.0,4.0
1702323801.1608217,-9.0,-19.0,-12.0,0.0,-5.0,-9.0,-9.0,-5.0
1702323801.1807337,5.0,1.0,-3.0,0.0,8.0,6.0,6.0,-3.0
1702323801.1807337,6.0,12.0,9.0,3.0,5.0,3.0,3.0,9.0
1702323801.1807337,-3.0,-1.0,26.0,19.0,2.0,-4.0,1.0,2.0
1702323801.1807337,3.0,2.0,-19.0,-8.0,2.0,-1.0,-1.0,-3.0
1702323801.2104986,3.0,38.0,-8.0,-1.0,-5.0,-3.0,-2.0,-3.0
1702323801.2104986,-9.0,5.0,27.0,-3.0,1.0,3.0,1.0,-1.0
1702323801.2104986,3.0,16.0,-77.0,-9.0,-5.0,-4.0,-3.0,0.0
1702323801.2104986,1.0,-22.0,32.0,19.0,1.0,-5.0,-7.0,-5.0
1702323801.2208686,6.0,28.0,14.0,-8.0,3.0,4.0,3.0,3.0
1702323801.2208686,-5.0,-12.0,-58.0,3.0,3.0,-1.0,-1.0,-2.0
1702323801.2208686,4.0,3.0,68.0,2.0,0.0,-1.0,-1.0,-3.0
1702323801.2208686,-7.0,8.0,-19.0,7.0,-1.0,-1.0,-2.0,0.0
1702323801.2407508,-4.0,-25.0,-9.0,1.0,-2.0,-2.0,-3.0,-4.0
1702323801.2407508,1.0,1.0,-8.0,5.0,-4.0,-1.0,-3.0,0.0
1702323801.2504997,-3.0,-14.0,-10.0,-14.0,3.0,2.0,2.0,-1.0
1702323801.2504997,2.0,6.0,36.0,3.0,1.0,-2.0,-2.0,0.0
1702323801.2604992,-5.0,-10.0,-3.0,-4.0,-7.0,-7.0,0.0,-12.0
1702323801.2604992,5.0,-11.0,-10.0,-1.0,-1.0,1.0,-3.0,-8.0
1702323801.2604992,6.0,15.0,-13.0,4.0,7.0,7.0,10.0,28.0
1702323801.2705054,7.0,-9.0,-3.0,2.0,4.0,3.0,-2.0,-9.0
1702323801.2808905,-28.0,-12.0,-9.0,-9.0,-8.0,-3.0,-11.0,-8.0
1702323801.2808905,-7.0,5.0,17.0,9.0,-1.0,1.0,11.0,19.0
1702323801.2808905,-24.0,-3.0,26.0,-5.0,-5.0,-9.0,-3.0,-20.0
1702323801.2808905,23.0,-11.0,-21.0,3.0,1.0,2.0,2.0,10.0
1702323801.300533,-4.0,19.0,21.0,-1.0,1.0,1.0,-1.0,-7.0
1702323801.300533,21.0,16.0,3.0,-4.0,-11.0,-8.0,-4.0,5.0
1702323801.300533,-8.0,-24.0,-33.0,-4.0,1.0,-4.0,-8.0,-7.0
1702323801.300533,-19.0,-35.0,3.0,38.0,8.0,1.0,4.0,6.0
1702323801.3208556,-3.0,2.0,-64.0,-14.0,3.0,-1.0,-6.0,-10.0
1702323801.3208556,-6.0,-6.0,40.0,13.0,9.0,3.0,-5.0,-1.0
1702323801.3208556,14.0,3.0,20.0,-4.0,-2.0,1.0,2.0,-1.0
1702323801.3208556,4.0,47.0,-14.0,-15.0,-13.0,-5.0,0.0,-3.0
1702323801.3408768,3.0,-7.0,30.0,9.0,7.0,3.0,3.0,8.0
1702323801.3408768,-12.0,-9.0,-7.0,-13.0,-6.0,-7.0,-4.0,-6.0
1702323801.3408768,-1.0,9.0,-5.0,-1.0,-3.0,-1.0,-4.0,0.0
1702323801.3408768,14.0,-11.0,-6.0,-9.0,-4.0,-6.0,-1.0,2.0
1702323801.360501,2.0,-2.0,34.0,6.0,-3.0,-4.0,1.0,3.0
1702323801.360501,-21.0,-4.0,-29.0,-13.0,-2.0,5.0,-5.0,-7.0
1702323801.360501,-6.0,-5.0,-10.0,8.0,0.0,-2.0,-3.0,-10.0
1702323801.360501,-16.0,-9.0,8.0,-9.0,-5.0,-2.0,-4.0,-2.0
1702323801.3805032,17.0,3.0,15.0,1.0,-1.0,0.0,3.0,4.0
1702323801.3805032,13.0,-8.0,-35.0,-6.0,0.0,-2.0,2.0,1.0
1702323801.3805032,-2.0,6.0,2.0,9.0,1.0,-1.0,0.0,3.0
1702323801.3805032,-5.0,-3.0,5.0,-18.0,-8.0,-2.0,-4.0,-2.0
1702323801.400848,14.0,30.0,16.0,6.0,1.0,-1.0,1.0,4.0
1702323801.400848,-19.0,-7.0,7.0,17.0,6.0,0.0,0.0,-6.0
1702323801.400848,9.0,-18.0,7.0,8.0,4.0,5.0,1.0,8.0
1702323801.400848,-17.0,-47.0,-42.0,-16.0,-3.0,1.0,-3.0,-12.0
1702323801.420532,-5.0,-16.0,-2.0,1.0,-2.0,-2.0,0.0,7.0
1702323801.420532,6.0,24.0,19.0,-6.0,-4.0,0.0,1.0,3.0
1702323801.420532,3.0,15.0,1.0,-2.0,-1.0,-1.0,-2.0,-15.0
1702323801.420532,-1.0,7.0,-11.0,-6.0,0.0,-2.0,-5.0,6.0
1702323801.4409394,-9.0,-18.0,-17.0,-1.0,-2.0,-2.0,-7.0,-15.0
1702323801.4409394,-3.0,-62.0,-12.0,-10.0,-5.0,-2.0,-5.0,10.0
1702323801.4577599,3.0,19.0,-19.0,-3.0,-1.0,3.0,2.0,3.0
1702323801.4577599,-1.0,9.0,22.0,7.0,0.0,-1.0,1.0,1.0
1702323801.4698324,0.0,0.0,11.0,-2.0,-3.0,-1.0,-1.0,-4.0
1702323801.4698324,10.0,20.0,-4.0,-1.0,-1.0,1.0,3.0,-1.0
1702323801.4698324,-5.0,-6.0,2.0,3.0,1.0,-2.0,-2.0,-1.0
1702323801.4698324,5.0,10.0,-33.0,-7.0,0.0,0.0,1.0,0.0
1702323801.4863849,-2.0,-2.0,31.0,10.0,2.0,-1.0,0.0,4.0
1702323801.4863849,5.0,15.0,13.0,1.0,-1.0,1.0,0.0,-5.0
1702323801.4863849,-5.0,-18.0,-18.0,-21.0,-13.0,-4.0,-5.0,4.0
1702323801.4863849,-8.0,4.0,-6.0,1.0,6.0,1.0,-2.0,-13.0
1702323801.4963036,-4.0,-6.0,-22.0,6.0,3.0,3.0,2.0,3.0
1702323801.4963036,-2.0,17.0,4.0,9.0,4.0,0.0,0.0,-3.0
1702323801.5063105,2.0,-14.0,-2.0,-1.0,-5.0,-2.0,-3.0,-1.0
1702323801.5063105,-17.0,-3.0,1.0,-7.0,-8.0,-2.0,-2.0,-2.0
1702323801.5260973,11.0,7.0,-6.0,-4.0,-1.0,-1.0,0.0,9.0
1702323801.5260973,10.0,95.0,36.0,9.0,4.0,-1.0,-2.0,-10.0
1702323801.5360856,-51.0,-84.0,-74.0,-24.0,-12.0,-10.0,-5.0,-22.0
1702323801.5360856,2.0,27.0,8.0,0.0,0.0,-2.0,-5.0,-29.0
1702323801.5463119,-4.0,-4.0,-14.0,-6.0,-3.0,-6.0,-1.0,-2.0
1702323801.5463119,2.0,19.0,6.0,3.0,2.0,6.0,1.0,6.0
1702323801.5463119,17.0,10.0,42.0,12.0,8.0,0.0,6.0,13.0
1702323801.5463119,-3.0,-7.0,-1.0,-7.0,-2.0,-6.0,-1.0,4.0
1702323801.5566418,-7.0,-15.0,-40.0,-9.0,-4.0,5.0,-3.0,-6.0
1702323801.5566418,5.0,-29.0,-13.0,-1.0,1.0,0.0,11.0,18.0
1702323801.5666208,13.0,34.0,59.0,14.0,2.0,3.0,-5.0,-12.0
1702323801.5666208,7.0,-7.0,18.0,-7.0,-6.0,0.0,1.0,6.0
1702323801.5863304,-2.0,4.0,-8.0,6.0,5.0,-5.0,2.0,-4.0
1702323801.5863304,-8.0,-32.0,-25.0,-22.0,-13.0,-10.0,-5.0,0.0
1702323801.5863304,-3.0,3.0,-14.0,20.0,11.0,12.0,0.0,9.0
1702323801.5863304,-25.0,1.0,27.0,7.0,-3.0,-6.0,-11.0,8.0
1702323801.6066217,10.0,7.0,37.0,0.0,-10.0,2.0,-2.0,-11.0
1702323801.6066217,-10.0,-2.0,3.0,-8.0,-6.0,-5.0,-4.0,-2.0
1702323801.6066217,20.0,14.0,8.0,-7.0,0.0,-7.0,-8.0,3.0
1702323801.6066217,-27.0,7.0,-19.0,-3.0,12.0,6.0,23.0,5.0
1702323801.616621,17.0,-9.0,-21.0,2.0,4.0,-10.0,6.0,30.0
1702323801.616621,-1.0,-15.0,18.0,-12.0,-1.0,23.0,7.0,-6.0
1702323801.6261382,5.0,27.0,88.0,17.0,-10.0,0.0,-21.0,-3.0
1702323801.6261382,-24.0,-27.0,-75.0,-18.0,-26.0,-6.0,-5.0,-6.0
1702323801.6561482,0.0,4.0,28.0,-20.0,2.0,-5.0,-8.0,2.0
1702323801.6561482,8.0,-17.0,-26.0,8.0,-23.0,-16.0,-3.0,-5.0
1702323801.6561482,11.0,9.0,11.0,-14.0,10.0,-9.0,-5.0,-7.0
1702323801.6561482,13.0,14.0,34.0,22.0,23.0,7.0,-1.0,-2.0
1702323801.6664715,-10.0,11.0,-1.0,17.0,4.0,4.0,-6.0,-6.0
1702323801.6664715,12.0,21.0,20.0,-4.0,-3.0,-10.0,-7.0,-3.0
1702323801.6664715,-2.0,-26.0,-21.0,53.0,28.0,21.0,19.0,5.0
1702323801.6664715,9.0,8.0,33.0,-28.0,-4.0,-15.0,-6.0,8.0
1702323801.67615,-7.0,-5.0,-10.0,25.0,24.0,19.0,8.0,-2.0
1702323801.67615,-3.0,-7.0,-3.0,-8.0,6.0,-11.0,-4.0,-4.0
1702323801.6864293,3.0,34.0,-40.0,-31.0,-27.0,-20.0,-5.0,2.0
1702323801.6864293,-11.0,-75.0,-18.0,4.0,-2.0,20.0,-2.0,-1.0
1702323801.6961527,9.0,22.0,-16.0,-19.0,-23.0,0.0,1.0,7.0
1702323801.6961527,-20.0,-13.0,20.0,0.0,3.0,-15.0,-8.0,-20.0
1702323801.7061484,-3.0,-1.0,-6.0,2.0,0.0,3.0,5.0,4.0
1702323801.7061484,9.0,9.0,-15.0,-5.0,-7.0,2.0,4.0,-3.0
1702323801.7261558,24.0,8.0,22.0,-5.0,-3.0,-10.0,6.0,21.0
1702323801.7261558,-17.0,-33.0,-2.0,11.0,2.0,1.0,-10.0,-10.0
1702323801.7261558,1.0,36.0,-12.0,-13.0,-3.0,-9.0,7.0,12.0
1702323801.7261558,25.0,20.0,18.0,8.0,3.0,1.0,1.0,-13.0
1702323801.7461603,-26.0,-26.0,-14.0,-4.0,-5.0,0.0,-2.0,-8.0
1702323801.7461603,8.0,42.0,7.0,5.0,7.0,-2.0,5.0,3.0
1702323801.756149,-1.0,-43.0,-14.0,-4.0,-3.0,10.0,0.0,-6.0
1702323801.756149,1.0,37.0,8.0,7.0,5.0,-3.0,-3.0,5.0
1702323801.756149,-8.0,-3.0,4.0,3.0,-3.0,-10.0,-5.0,-13.0
1702323801.756149,9.0,-3.0,-15.0,-3.0,2.0,10.0,-3.0,-2.0
1702323801.7661486,-16.0,-2.0,-15.0,-16.0,-6.0,-12.0,-3.0,-1.0
1702323801.7661486,-1.0,-3.0,20.0,9.0,0.0,13.0,-3.0,-10.0
1702323801.7865474,-5.0,11.0,-22.0,-6.0,-4.0,-5.0,-4.0,-11.0
1702323801.7865474,-2.0,11.0,-2.0,-1.0,-1.0,0.0,4.0,13.0
1702323801.7865474,3.0,-3.0,-9.0,-14.0,-9.0,-5.0,1.0,2.0
1702323801.7865474,2.0,-21.0,-4.0,-7.0,2.0,-5.0,-6.0,-3.0
1702323801.806148,-6.0,21.0,4.0,-5.0,-3.0,1.0,-1.0,-8.0
1702323801.806148,5.0,-1.0,-3.0,-1.0,-3.0,1.0,-2.0,3.0
1702323801.806148,-4.0,-12.0,8.0,4.0,3.0,2.0,0.0,-4.0
1702323801.806148,5.0,-2.0,0.0,-3.0,-2.0,-7.0,-3.0,-1.0
1702323801.8164437,-2.0,0.0,7.0,2.0,1.0,0.0,-6.0,-10.0
1702323801.8164437,-1.0,-28.0,-29.0,-11.0,-6.0,-5.0,5.0,9.0
1702323801.8261485,6.0,40.0,5.0,4.0,-3.0,13.0,-1.0,3.0
1702323801.8261485,-2.0,-3.0,5.0,1.0,9.0,-1.0,5.0,2.0
1702323801.8464582,-4.0,-20.0,5.0,12.0,9.0,3.0,0.0,0.0
1702323801.8464582,1.0,-9.0,8.0,-4.0,4.0,4.0,1.0,0.0
1702323801.8464582,-3.0,-11.0,0.0,14.0,-2.0,-6.0,1.0,-3.0
1702323801.8464582,-1.0,2.0,-10.0,6.0,-3.0,-7.0,-2.0,4.0
1702323801.8761475,1.0,0.0,5.0,0.0,-2.0,0.0,0.0,0.0
1702323801.8761475,-2.0,6.0,-9.0,-10.0,10.0,2.0,-3.0,-6.0
1702323801.8761475,-5.0,-8.0,5.0,4.0,1.0,0.0,0.0,-2.0
1702323801.8761475,6.0,19.0,2.0,5.0,-8.0,-4.0,-2.0,4.0
1702323801.8761475,-5.0,-8.0,-7.0,-19.0,-6.0,-1.0,0.0,3.0
1702323801.8761475,-4.0,-10.0,6.0,16.0,-1.0,0.0,-3.0,-6.0
1702323801.8864415,-3.0,-9.0,-5.0,-12.0,7.0,1.0,-1.0,-1.0
1702323801.8864415,1.0,7.0,10.0,13.0,1.0,-1.0,2.0,2.0
1702323801.9061487,0.0,-13.0,-10.0,-8.0,0.0,-3.0,-1.0,-3.0
1702323801.9061487,-6.0,-6.0,-1.0,-3.0,-15.0,-3.0,-4.0,-3.0
1702323801.9061487,-1.0,0.0,5.0,2.0,10.0,0.0,-1.0,-2.0
1702323801.9061487,0.0,-7.0,-18.0,-21.0,-14.0,-5.0,-3.0,-1.0
1702323801.9264696,-1.0,17.0,7.0,19.0,8.0,-2.0,1.0,-2.0
1702323801.9264696,-6.0,6.0,-6.0,19.0,10.0,4.0,-1.0,1.0
1702323801.9264696,-4.0,-13.0,-5.0,-4.0,-6.0,-5.0,-2.0,-2.0
1702323801.9264696,1.0,-2.0,6.0,3.0,-3.0,-1.0,-1.0,-1.0
1702323801.936487,-4.0,5.0,5.0,-22.0,-6.0,-1.0,-3.0,-2.0
1702323801.936487,6.0,0.0,0.0,1.0,-1.0,0.0,0.0,0.0
1702323801.9464252,-6.0,-6.0,1.0,-21.0,-7.0,-5.0,-6.0,-7.0
1702323801.9464252,-12.0,-15.0,-32.0,6.0,2.0,-1.0,0.0,-1.0
1702323801.9661493,14.0,-2.0,18.0,2.0,-6.0,1.0,-3.0,1.0
1702323801.9661493,-7.0,7.0,30.0,11.0,6.0,1.0,0.0,-12.0
1702323801.9761467,-3.0,5.0,8.0,-4.0,-2.0,-3.0,1.0,16.0
1702323801.9761467,13.0,11.0,-15.0,-5.0,1.0,-8.0,7.0,1.0
1702323801.9901698,-26.0,-16.0,-19.0,4.0,-2.0,7.0,-5.0,-10.0
1702323801.9901698,18.0,-7.0,3.0,-8.0,-3.0,-15.0,-1.0,24.0
1702323801.9911807,-4.0,-6.0,-2.0,-1.0,2.0,26.0,-4.0,-15.0
1702323801.9911807,-12.0,8.0,29.0,4.0,3.0,-4.0,17.0,34.0
1702323802.0031784,6.0,-16.0,-29.0,1.0,2.0,10.0,13.0,2.0
1702323802.0031784,-42.0,-1.0,7.0,-7.0,-2.0,-2.0,-7.0,-14.0
1702323802.0095973,19.0,1.0,4.0,1.0,-3.0,-16.0,10.0,9.0
1702323802.0095973,13.0,0.0,-29.0,-26.0,-14.0,-7.0,-26.0,-14.0
1702323802.0267015,4.0,0.0,28.0,-11.0,-13.0,-6.0,-3.0,-2.0
1702323802.0267015,8.0,11.0,49.0,40.0,16.0,11.0,3.0,-2.0
1702323802.0267015,-20.0,-18.0,-77.0,-12.0,4.0,-2.0,-3.0,-3.0
1702323802.0267015,-3.0,30.0,19.0,-18.0,0.0,1.0,-2.0,-9.0
1702323802.0471566,-11.0,-47.0,3.0,10.0,6.0,-3.0,-5.0,-1.0
1702323802.0471566,7.0,-22.0,-62.0,-53.0,-15.0,-2.0,-4.0,-2.0
1702323802.0471566,16.0,31.0,54.0,47.0,14.0,5.0,-3.0,0.0
1702323802.0471566,-3.0,-19.0,-23.0,4.0,-6.0,-11.0,1.0,-8.0
1702323802.0575142,2.0,1.0,-4.0,-13.0,-8.0,-11.0,-1.0,0.0
1702323802.0575142,5.0,22.0,16.0,1.0,-3.0,11.0,0.0,8.0
1702323802.067498,-9.0,-2.0,7.0,-11.0,-5.0,3.0,0.0,-9.0
1702323802.067498,3.0,-36.0,-33.0,-1.0,1.0,0.0,1.0,10.0
1702323802.0871682,9.0,26.0,5.0,4.0,-1.0,5.0,-8.0,-14.0
1702323802.0871682,-8.0,-16.0,0.0,4.0,3.0,-7.0,0.0,-12.0
1702323802.0871682,-7.0,2.0,-17.0,-12.0,-8.0,-2.0,-10.0,-4.0
1702323802.0871682,-1.0,12.0,26.0,13.0,3.0,0.0,8.0,6.0
1702323802.1074135,-1.0,-8.0,-16.0,-3.0,0.0,-5.0,-14.0,-14.0
1702323802.1074135,-19.0,3.0,-8.0,-9.0,-6.0,-25.0,11.0,1.0
1702323802.1074135,7.0,6.0,-7.0,0.0,-3.0,-11.0,3.0,32.0
1702323802.1074135,21.0,-5.0,13.0,4.0,0.0,28.0,18.0,-23.0
1702323802.1173909,-7.0,10.0,10.0,3.0,4.0,13.0,-4.0,7.0
1702323802.1173909,-2.0,-10.0,-15.0,-4.0,-2.0,-9.0,-6.0,9.0
1702323802.1470523,-10.0,5.0,-7.0,-5.0,-2.0,-8.0,-3.0,-66.0
1702323802.1470523,-1.0,-26.0,12.0,6.0,1.0,3.0,-30.0,4.0
1702323802.1570485,23.0,13.0,-16.0,-10.0,-4.0,-11.0,-25.0,6.0
1702323802.1570485,-12.0,-1.0,-9.0,1.0,-2.0,3.0,-13.0,-6.0
1702323802.1570485,0.0,-4.0,-1.0,-22.0,-5.0,-9.0,-5.0,-2.0
1702323802.1570485,-27.0,13.0,8.0,14.0,-8.0,-5.0,11.0,-4.0
1702323802.1673722,2.0,2.0,14.0,18.0,10.0,4.0,18.0,-4.0
1702323802.1673722,21.0,8.0,-21.0,-7.0,6.0,6.0,3.0,6.0
1702323802.1673722,-4.0,-21.0,-13.0,6.0,17.0,8.0,7.0,7.0
1702323802.1673722,1.0,20.0,78.0,-9.0,2.0,-2.0,1.0,0.0
1702323802.177051,-2.0,-4.0,-39.0,-11.0,-8.0,-11.0,0.0,15.0
1702323802.177051,6.0,-17.0,-25.0,2.0,-11.0,1.0,-1.0,-5.0
1702323802.1970503,3.0,-10.0,11.0,8.0,-3.0,3.0,5.0,12.0
1702323802.1970503,8.0,19.0,-48.0,-11.0,1.0,-4.0,-11.0,-1.0
1702323802.2073183,-29.0,-28.0,65.0,16.0,-1.0,-1.0,3.0,0.0
1702323802.2073183,-17.0,11.0,9.0,-12.0,-6.0,3.0,-2.0,-10.0
1702323802.2073183,1.0,-3.0,-47.0,-12.0,-10.0,-4.0,-5.0,-3.0
1702323802.2073183,7.0,-14.0,6.0,17.0,5.0,-2.0,-5.0,4.0
1702323802.2272,9.0,25.0,14.0,-8.0,0.0,1.0,4.0,5.0
1702323802.2272,9.0,-3.0,-13.0,-4.0,0.0,5.0,3.0,-6.0
1702323802.2272,-12.0,0.0,35.0,3.0,-3.0,-2.0,-3.0,13.0
1702323802.2272,0.0,5.0,-45.0,0.0,0.0,-5.0,-3.0,-2.0
1702323802.237518,-7.0,2.0,-14.0,-8.0,-4.0,-4.0,4.0,7.0
1702323802.237518,-1.0,-5.0,23.0,3.0,0.0,0.0,-4.0,-12.0
1702323802.2472103,4.0,5.0,6.0,-6.0,-3.0,-1.0,-5.0,-7.0
1702323802.2472103,-3.0,-1.0,1.0,-19.0,-4.0,5.0,7.0,13.0
1702323802.2672093,0.0,-10.0,-14.0,19.0,4.0,3.0,-2.0,-14.0
1702323802.2672093,2.0,-1.0,4.0,-12.0,-5.0,-5.0,-5.0,-3.0
1702323802.2672093,-9.0,4.0,3.0,13.0,0.0,-1.0,1.0,-3.0
1702323802.2672093,-2.0,16.0,-4.0,4.0,9.0,1.0,-3.0,-8.0
1702323802.287654,1.0,-25.0,-8.0,-7.0,-2.0,-4.0,1.0,2.0
1702323802.287654,17.0,61.0,12.0,7.0,-1.0,2.0,0.0,13.0
1702323802.287654,-10.0,-66.0,-20.0,-9.0,-7.0,-4.0,-7.0,-5.0
1702323802.287654,-2.0,27.0,12.0,-5.0,-6.0,-2.0,-3.0,-2.0
1702323802.2972314,2.0,-5.0,-6.0,-3.0,1.0,-2.0,1.0,3.0
1702323802.2972314,4.0,20.0,6.0,8.0,7.0,3.0,-1.0,3.0
1702323802.3072486,-3.0,-34.0,1.0,-5.0,-4.0,0.0,1.0,1.0
1702323802.3072486,2.0,29.0,16.0,19.0,3.0,-4.0,-4.0,-5.0
1702323802.3292117,-14.0,-31.0,-25.0,-13.0,7.0,1.0,3.0,-5.0
1702323802.3292117,-1.0,-11.0,-1.0,-9.0,-4.0,1.0,-1.0,-3.0
1702323802.3292117,0.0,11.0,9.0,12.0,3.0,-2.0,-1.0,2.0
1702323802.3292117,3.0,-19.0,0.0,1.0,-1.0,1.0,0.0,0.0
1702323802.3474839,1.0,19.0,-6.0,-19.0,-9.0,-4.0,-3.0,-3.0
1702323802.3474839,-6.0,-32.0,1.0,15.0,11.0,6.0,2.0,-2.0
1702323802.3474839,4.0,22.0,3.0,-19.0,-10.0,-4.0,-2.0,0.0
1702323802.3474839,-1.0,-20.0,1.0,0.0,-3.0,-2.0,-1.0,-3.0
1702323802.3772845,2.0,29.0,-14.0,-7.0,-5.0,-1.0,-2.0,-3.0
1702323802.3772845,-6.0,-40.0,4.0,13.0,9.0,1.0,0.0,0.0
1702323802.3772845,13.0,35.0,9.0,4.0,-2.0,-1.0,2.0,1.0
1702323802.3772845,-8.0,9.0,1.0,-3.0,0.0,0.0,-1.0,-4.0
1702323802.3876278,-11.0,-67.0,5.0,-13.0,-3.0,-2.0,-1.0,-2.0
1702323802.3876278,19.0,16.0,-14.0,4.0,-3.0,1.0,0.0,2.0
1702323802.3876278,-23.0,-24.0,2.0,1.0,0.0,-2.0,-2.0,-2.0
1702323802.3876278,8.0,41.0,6.0,-7.0,-2.0,-1.0,-2.0,0.0
1702323802.4080951,-2.0,-13.0,-12.0,2.0,3.0,0.0,1.0,5.0
1702323802.4080951,-4.0,12.0,2.0,-7.0,-4.0,-2.0,-3.0,-2.0
1702323802.4080951,3.0,-1.0,2.0,3.0,2.0,1.0,-1.0,1.0
1702323802.4080951,-16.0,-21.0,-6.0,1.0,-2.0,-1.0,-2.0,-4.0
1702323802.4177635,6.0,40.0,4.0,1.0,-1.0,-1.0,-3.0,-6.0
1702323802.4177635,-9.0,-41.0,0.0,-3.0,-2.0,-2.0,-1.0,1.0
1702323802.4277964,0.0,48.0,8.0,5.0,4.0,2.0,-1.0,2.0
1702323802.4277964,2.0,-24.0,7.0,-4.0,-2.0,-3.0,3.0,-4.0
1702323802.4477043,5.0,19.0,-24.0,5.0,-1.0,3.0,-8.0,-3.0
1702323802.4477043,-8.0,-13.0,12.0,-8.0,-10.0,-34.0,-3.0,-16.0
1702323802.4477043,12.0,7.0,-14.0,3.0,2.0,30.0,-11.0,-3.0
1702323802.4477043,-5.0,-20.0,-49.0,-2.0,-2.0,-9.0,13.0,8.0
1702323802.4680336,1.0,24.0,51.0,2.0,-4.0,7.0,-3.0,-6.0
1702323802.4680336,-4.0,2.0,1.0,-6.0,-1.0,8.0,21.0,6.0
1702323802.4680336,3.0,2.0,17.0,-3.0,-4.0,0.0,-4.0,-20.0
1702323802.4680336,-8.0,5.0,-5.0,2.0,4.0,-2.0,-19.0,-6.0
1702323802.4777148,6.0,22.0,-8.0,10.0,4.0,8.0,9.0,0.0
1702323802.4777148,-9.0,-19.0,-28.0,-14.0,-11.0,-4.0,-5.0,-13.0
1702323802.4877114,-4.0,22.0,10.0,1.0,0.0,-5.0,-2.0,4.0
1702323802.4877114,8.0,-5.0,-4.0,-4.0,-2.0,0.0,2.0,10.0
1702323802.5077143,-7.0,43.0,-4.0,-3.0,-6.0,-16.0,-9.0,-5.0
1702323802.5077143,0.0,-5.0,25.0,2.0,2.0,2.0,-7.0,-3.0
1702323802.5077143,5.0,10.0,-15.0,-11.0,-9.0,-5.0,5.0,6.0
1702323802.5077143,-5.0,-40.0,2.0,4.0,-2.0,-2.0,-7.0,-4.0
1702323802.5297356,2.0,26.0,25.0,31.0,24.0,5.0,6.0,1.0
1702323802.5297356,-2.0,14.0,-5.0,-14.0,-2.0,4.0,-4.0,0.0
1702323802.5317445,4.0,-38.0,-18.0,36.0,5.0,-6.0,2.0,6.0
1702323802.5317445,-7.0,27.0,-8.0,-41.0,-10.0,-3.0,-2.0,-7.0
1702323802.5418541,-4.0,-30.0,-5.0,10.0,-14.0,-2.0,0.0,0.0
1702323802.5418541,2.0,0.0,-6.0,-2.0,11.0,4.0,-3.0,7.0
1702323802.5478945,-1.0,6.0,13.0,-2.0,0.0,-7.0,-1.0,2.0
1702323802.5478945,-16.0,7.0,7.0,6.0,1.0,5.0,0.0,-11.0
1702323802.567914,-1.0,-43.0,-15.0,-15.0,-7.0,-6.0,-4.0,0.0
1702323802.567914,-6.0,23.0,-10.0,-2.0,-7.0,-1.0,1.0,3.0
1702323802.567914,-7.0,10.0,3.0,-8.0,-3.0,-6.0,-4.0,-15.0
1702323802.567914,4.0,-7.0,21.0,10.0,2.0,1.0,2.0,-12.0
1702323802.587915,13.0,27.0,-5.0,-8.0,1.0,-1.0,4.0,19.0
1702323802.587915,4.0,-8.0,-23.0,2.0,-4.0,-16.0,-3.0,19.0
1702323802.587915,7.0,-22.0,1.0,-10.0,-3.0,4.0,-1.0,-18.0
1702323802.587915,1.0,2.0,30.0,7.0,4.0,9.0,-1.0,12.0
1702323802.5982363,-7.0,2.0,-11.0,-2.0,-3.0,-1.0,0.0,-14.0
1702323802.5982363,3.0,17.0,49.0,9.0,-1.0,13.0,-8.0,-13.0
1702323802.6080465,-2.0,-26.0,-56.0,-13.0,-2.0,-19.0,-5.0,10.0
1702323802.6080465,7.0,27.0,14.0,0.0,-3.0,-3.0,-2.0,10.0
1702323802.627915,6.0,1.0,-35.0,-14.0,-7.0,-3.0,-4.0,-26.0
1702323802.627915,-27.0,-30.0,11.0,5.0,3.0,9.0,-2.0,0.0
1702323802.627915,-7.0,-11.0,27.0,1.0,2.0,1.0,-1.0,0.0
1702323802.627915,7.0,-9.0,6.0,4.0,2.0,-7.0,-3.0,6.0
1702323802.6479135,-1.0,-1.0,-23.0,-3.0,-1.0,3.0,11.0,-1.0
1702323802.6479135,-7.0,0.0,-34.0,-2.0,-3.0,-6.0,-2.0,-14.0
1702323802.6479135,5.0,23.0,21.0,-2.0,1.0,-3.0,7.0,4.0
1702323802.6479135,-2.0,-14.0,-7.0,-1.0,-2.0,-3.0,-8.0,3.0
1702323802.6579776,2.0,-9.0,16.0,-5.0,-7.0,-7.0,-2.0,8.0
1702323802.6579776,6.0,7.0,2.0,9.0,4.0,1.0,1.0,0.0
1702323802.6679208,4.0,2.0,-13.0,-7.0,1.0,1.0,-4.0,7.0
1702323802.6679208,-2.0,-2.0,24.0,24.0,-3.0,-4.0,1.0,-6.0
1702323802.6879177,-9.0,-8.0,1.0,5.0,17.0,8.0,-3.0,1.0
1702323802.6879177,4.0,-1.0,-15.0,-7.0,3.0,-2.0,-2.0,-1.0
1702323802.6879177,-3.0,18.0,7.0,-1.0,-3.0,-4.0,-1.0,-1.0
1702323802.6879177,-2.0,-22.0,-17.0,-9.0,-5.0,2.0,1.0,-9.0
1702323802.717915,-4.0,11.0,1.0,-6.0,-4.0,-4.0,0.0,3.0
1702323802.717915,5.0,-14.0,9.0,7.0,-1.0,-1.0,-4.0,4.0
1702323802.717915,-1.0,5.0,-16.0,-9.0,-3.0,0.0,2.0,-1.0
1702323802.717915,-4.0,-9.0,-17.0,-8.0,-7.0,-2.0,1.0,-2.0
1702323802.717915,-1.0,19.0,20.0,6.0,-1.0,-3.0,-7.0,2.0
1702323802.717915,4.0,-7.0,-11.0,-4.0,3.0,1.0,1.0,2.0
1702323802.7279134,-4.0,-2.0,1.0,-5.0,0.0,1.0,0.0,-4.0
1702323802.7279134,12.0,20.0,-6.0,5.0,0.0,-2.0,0.0,-1.0
1702323802.7381415,-19.0,-60.0,-2.0,2.0,2.0,-5.0,-5.0,-4.0
1702323802.74792,5.0,28.0,4.0,0.0,2.0,2.0,1.0,-1.0
1702323802.74792,0.0,1.0,-1.0,-10.0,-7.0,-3.0,3.0,8.0
1702323802.74792,0.0,-10.0,-12.0,0.0,2.0,1.0,-3.0,-8.0
1702323802.777976,2.0,2.0,6.0,-3.0,-1.0,1.0,4.0,2.0
1702323802.777976,4.0,11.0,5.0,14.0,-1.0,-2.0,-1.0,-2.0
1702323802.777976,-6.0,-8.0,-4.0,-2.0,-1.0,0.0,-1.0,0.0
1702323802.777976,1.0,18.0,3.0,-16.0,1.0,1.0,2.0,2.0
1702323802.777976,-1.0,-33.0,-30.0,-7.0,-4.0,0.0,-4.0,-3.0
1702323802.777976,-3.0,-1.0,5.0,0.0,-4.0,0.0,-1.0,-3.0
1702323802.7880023,1.0,-3.0,-3.0,-2.0,-3.0,-2.0,-2.0,-3.0
1702323802.7880023,-3.0,-14.0,-5.0,-3.0,2.0,1.0,0.0,-1.0
1702323802.8179808,2.0,-14.0,10.0,-5.0,-6.0,-1.0,-2.0,1.0
1702323802.8179808,8.0,47.0,9.0,3.0,2.0,0.0,0.0,5.0
1702323802.8279753,-6.0,1.0,12.0,9.0,1.0,0.0,0.0,-4.0
1702323802.8279753,-3.0,-7.0,-6.0,-3.0,0.0,-2.0,-1.0,-5.0
1702323802.8279753,5.0,-27.0,-9.0,-8.0,-3.0,0.0,-1.0,3.0
1702323802.8279753,-2.0,-13.0,-8.0,-4.0,-5.0,-2.0,-2.0,-3.0
1702323802.8279753,0.0,26.0,7.0,5.0,3.0,0.0,-4.0,-4.0
1702323802.8279753,-14.0,-8.0,15.0,-4.0,-3.0,-1.0,2.0,-2.0
1702323802.848308,-2.0,14.0,-3.0,0.0,-4.0,-14.0,-13.0,6.0
1702323802.848308,-1.0,-28.0,21.0,-1.0,-4.0,1.0,5.0,-24.0
1702323802.848308,7.0,24.0,-33.0,-4.0,-5.0,-15.0,-8.0,-5.0
1702323802.848308,11.0,-4.0,-32.0,-1.0,8.0,40.0,30.0,8.0
1702323802.867978,-4.0,19.0,20.0,3.0,1.0,-5.0,-5.0,5.0
1702323802.867978,-4.0,16.0,11.0,-5.0,-4.0,11.0,-16.0,-13.0
1702323802.867978,0.0,-25.0,-26.0,1.0,-3.0,-22.0,-4.0,-9.0
1702323802.867978,2.0,13.0,28.0,8.0,2.0,-12.0,0.0,9.0
1702323802.8884094,-2.0,4.0,0.0,3.0,4.0,17.0,4.0,-14.0
1702323802.8884094,-2.0,-8.0,-37.0,-8.0,-3.0,-13.0,-6.0,2.0
1702323802.8884094,7.0,12.0,9.0,2.0,3.0,6.0,3.0,8.0
1702323802.8884094,-13.0,-18.0,11.0,-4.0,-4.0,-2.0,-10.0,-13.0
1702323802.9080482,-14.0,-54.0,-16.0,0.0,-3.0,3.0,1.0,-1.0
1702323802.9080482,7.0,8.0,54.0,-4.0,-1.0,-10.0,-5.0,3.0
1702323802.9080482,-3.0,5.0,47.0,-5.0,-5.0,5.0,1.0,-8.0
1702323802.9080482,6.0,0.0,-51.0,-2.0,0.0,-6.0,-6.0,9.0
1702323802.928045,-3.0,34.0,14.0,-11.0,-6.0,-9.0,-1.0,-3.0
1702323802.928045,-6.0,-17.0,-41.0,29.0,10.0,2.0,1.0,0.0
1702323802.928045,3.0,-9.0,3.0,1.0,2.0,8.0,4.0,11.0
1702323802.928045,-1.0,10.0,40.0,-4.0,-1.0,-5.0,-7.0,-4.0
1702323802.9483922,8.0,21.0,-8.0,16.0,5.0,2.0,1.0,7.0
1702323802.9483922,-6.0,-40.0,-20.0,-24.0,-12.0,-2.0,2.0,9.0
1702323802.9483922,-7.0,7.0,-11.0,5.0,0.0,3.0,0.0,-16.0
1702323802.9483922,-16.0,-42.0,-16.0,-12.0,-5.0,-11.0,-11.0,4.0
1702323802.9680471,-1.0,15.0,18.0,-11.0,-10.0,-10.0,-3.0,-18.0
1702323802.9680471,7.0,1.0,-29.0,-8.0,-3.0,-14.0,-1.0,-2.0
1702323802.9680471,-5.0,-23.0,-5.0,-1.0,2.0,11.0,-3.0,-9.0
1702323802.9680471,6.0,40.0,7.0,1.0,-1.0,8.0,0.0,26.0
1702323802.988046,-4.0,-31.0,-26.0,-2.0,1.0,-4.0,-4.0,4.0
1702323802.988046,3.0,61.0,60.0,9.0,4.0,5.0,-13.0,-4.0
1702323802.988046,-10.0,-63.0,-29.0,-6.0,0.0,-1.0,4.0,21.0
1702323802.988046,3.0,16.0,-23.0,1.0,0.0,3.0,14.0,-21.0
1702323803.0080495,7.0,-8.0,16.0,4.0,2.0,-5.0,11.0,15.0
1702323803.0080495,1.0,23.0,-6.0,0.0,4.0,7.0,3.0,16.0
1702323803.0080495,-4.0,11.0,7.0,-3.0,-4.0,2.0,-9.0,-3.0
1702323803.0080495,3.0,2.0,12.0,3.0,1.0,-11.0,-4.0,4.0
1702323803.0380456,3.0,10.0,-3.0,1.0,4.0,9.0,-1.0,-8.0
1702323803.0380456,8.0,-16.0,-15.0,-14.0,-3.0,-1.0,-2.0,-1.0
1702323803.0380456,-8.0,1.0,9.0,-14.0,-6.0,-2.0,-5.0,4.0
1702323803.0380456,-27.0,-39.0,-19.0,11.0,-8.0,-14.0,-14.0,-22.0
1702323803.0380456,6.0,14.0,22.0,5.0,11.0,3.0,2.0,-6.0
1702323803.0380456,-8.0,-22.0,-24.0,5.0,3.0,10.0,11.0,3.0
1702323803.053832,7.0,14.0,-13.0,-9.0,4.0,-6.0,5.0,3.0
1702323803.053832,11.0,14.0,-11.0,-3.0,-4.0,8.0,0.0,2.0
1702323803.0702796,-1.0,-17.0,-23.0,-1.0,1.0,3.0,3.0,8.0
1702323803.0702796,-3.0,9.0,41.0,-1.0,-7.0,-4.0,2.0,-1.0
1702323803.0712392,7.0,20.0,75.0,14.0,2.0,-2.0,-1.0,-2.0
1702323803.0712392,1.0,-9.0,-52.0,-13.0,-3.0,-4.0,-3.0,-4.0
1702323803.094767,-1.0,25.0,-23.0,-5.0,-4.0,2.0,-3.0,-1.0
1702323803.094767,-7.0,-29.0,58.0,9.0,2.0,-4.0,0.0,-5.0
1702323803.094767,-7.0,12.0,30.0,-2.0,-5.0,-4.0,-3.0,-8.0
1702323803.094767,5.0,2.0,-8.0,3.0,1.0,2.0,-4.0,5.0
1702323803.1048715,-5.0,-7.0,-18.0,-6.0,-6.0,-1.0,-3.0,0.0
1702323803.1048715,5.0,-7.0,-81.0,-12.0,-2.0,-3.0,0.0,5.0
1702323803.1048715,-1.0,-4.0,36.0,18.0,10.0,2.0,1.0,-1.0
1702323803.1048715,-2.0,9.0,35.0,11.0,-1.0,-3.0,-4.0,-6.0
1702323803.1250186,-3.0,-16.0,-32.0,-8.0,-4.0,-3.0,1.0,-4.0
1702323803.1250186,-28.0,1.0,-19.0,-13.0,-7.0,-1.0,-2.0,-9.0
1702323803.1250186,2.0,-23.0,-36.0,-12.0,-2.0,0.0,-1.0,1.0
1702323803.1250186,14.0,3.0,-1.0,13.0,5.0,-1.0,3.0,1.0
1702323803.144767,-2.0,15.0,34.0,2.0,-6.0,-6.0,-6.0,-1.0
1702323803.144767,-4.0,-20.0,-10.0,-20.0,-4.0,1.0,-1.0,-3.0
1702323803.144767,-4.0,-6.0,-10.0,20.0,4.0,0.0,-1.0,0.0
1702323803.144767,1.0,4.0,-6.0,-20.0,-4.0,-4.0,-1.0,-1.0
1702323803.1651742,10.0,11.0,15.0,1.0,10.0,7.0,0.0,3.0
1702323803.1651742,-1.0,0.0,13.0,7.0,4.0,1.0,2.0,2.0
1702323803.1651742,-12.0,-12.0,-38.0,-3.0,-3.0,-1.0,0.0,2.0
1702323803.1651742,4.0,-5.0,32.0,5.0,-3.0,-4.0,0.0,-8.0
1702323803.1852484,-18.0,4.0,9.0,7.0,-3.0,-2.0,-2.0,-6.0
1702323803.1852484,11.0,-1.0,-23.0,-8.0,-1.0,0.0,0.0,4.0
1702323803.1852484,0.0,13.0,-1.0,-2.0,-5.0,-2.0,3.0,13.0
1702323803.1852484,0.0,13.0,2.0,-5.0,-4.0,0.0,-2.0,3.0
1702323803.2048545,-8.0,-31.0,1.0,0.0,-3.0,-1.0,-5.0,-9.0
1702323803.2048545,-2.0,6.0,-4.0,4.0,-1.0,-2.0,0.0,2.0
1702323803.2048545,4.0,4.0,-8.0,-2.0,-2.0,3.0,0.0,-5.0
1702323803.2048545,-4.0,-19.0,2.0,0.0,2.0,-1.0,0.0,3.0
1702323803.2251196,11.0,33.0,6.0,-3.0,-2.0,0.0,1.0,15.0
1702323803.2251196,-1.0,1.0,2.0,1.0,-2.0,-5.0,-4.0,-11.0
1702323803.2251196,-5.0,-56.0,-1.0,7.0,0.0,-1.0,-3.0,-7.0
1702323803.2251196,1.0,8.0,-29.0,-13.0,-2.0,-2.0,-1.0,-3.0
1702323803.2451684,-2.0,6.0,15.0,0.0,-2.0,-3.0,-1.0,-2.0
1702323803.2451684,8.0,18.0,18.0,18.0,3.0,2.0,1.0,8.0
1702323803.2451684,-1.0,-7.0,-11.0,-6.0,-2.0,-1.0,-1.0,-15.0
1702323803.2451684,-7.0,-12.0,6.0,2.0,1.0,1.0,-3.0,-2.0
1702323803.2648528,6.0,9.0,-6.0,-7.0,-6.0,-3.0,-2.0,3.0
1702323803.2648528,1.0,-5.0,3.0,4.0,1.0,0.0,-3.0,5.0
1702323803.2748573,-2.0,24.0,-1.0,0.0,4.0,1.0,6.0,-4.0
1702323803.2748573,-4.0,-12.0,10.0,7.0,2.0,-4.0,-2.0,-1.0
1702323803.2851355,-3.0,7.0,11.0,-1.0,-1.0,-1.0,-2.0,-8.0
1702323803.2851355,1.0,-8.0,-17.0,-6.0,-2.0,-2.0,-1.0,-2.0
1702323803.2851355,2.0,1.0,-5.0,-5.0,-6.0,-1.0,-5.0,3.0
1702323803.2851355,-5.0,9.0,0.0,-4.0,-6.0,-2.0,-4.0,-7.0
1702323803.3048666,-4.0,-16.0,-23.0,-12.0,-8.0,-3.0,0.0,0.0
1702323803.3048666,-1.0,-5.0,1.0,7.0,7.0,3.0,1.0,-2.0
1702323803.3048666,7.0,18.0,-3.0,-17.0,1.0,1.0,-4.0,1.0
1702323803.3048666,-1.0,-4.0,11.0,12.0,3.0,3.0,1.0,-1.0
1702323803.324857,0.0,0.0,11.0,17.0,5.0,0.0,-1.0,1.0
1702323803.324857,-5.0,-9.0,-13.0,-3.0,-5.0,-3.0,-1.0,-5.0
1702323803.324857,3.0,9.0,-5.0,2.0,-2.0,-3.0,0.0,2.0
1702323803.324857,-2.0,-5.0,-2.0,-19.0,-1.0,-2.0,-2.0,0.0
1702323803.3451903,-3.0,-13.0,-10.0,0.0,-4.0,-5.0,-4.0,-4.0
1702323803.3451903,6.0,23.0,15.0,5.0,2.0,2.0,1.0,1.0
1702323803.3548665,-4.0,-23.0,-25.0,-10.0,-5.0,-2.0,-1.0,-2.0
1702323803.3548665,0.0,-1.0,-8.0,-2.0,-2.0,-1.0,-2.0,-2.0
1702323803.365207,-6.0,0.0,8.0,11.0,5.0,0.0,1.0,-1.0
1702323803.365207,1.0,-6.0,-1.0,-11.0,-1.0,0.0,-1.0,-2.0
1702323803.365207,3.0,9.0,-1.0,-3.0,-4.0,-3.0,-2.0,-1.0
1702323803.365207,-5.0,-7.0,3.0,-1.0,-4.0,-1.0,-2.0,-2.0
1702323803.384853,10.0,10.0,-3.0,-4.0,-1.0,0.0,0.0,3.0
1702323803.384853,-3.0,-3.0,3.0,-3.0,-5.0,-4.0,-2.0,-3.0
1702323803.395144,-4.0,-41.0,-5.0,-8.0,-2.0,-2.0,-2.0,1.0
1702323803.395144,3.0,2.0,0.0,-7.0,3.0,2.0,-2.0,-6.0
1702323803.4048557,-16.0,12.0,14.0,10.0,1.0,0.0,5.0,-1.0
1702323803.4048557,4.0,-2.0,-8.0,-3.0,-3.0,-1.0,-1.0,2.0
1702323803.414856,10.0,51.0,8.0,0.0,-1.0,-2.0,0.0,2.0
1702323803.414856,1.0,-31.0,-29.0,-7.0,-4.0,-2.0,-1.0,-1.0
1702323803.4248536,12.0,6.0,27.0,18.0,4.0,2.0,-2.0,-6.0
1702323803.4248536,-17.0,-20.0,-29.0,-11.0,-5.0,-3.0,-4.0,-5.0
1702323803.4248536,-2.0,11.0,11.0,7.0,-1.0,-1.0,0.0,2.0
1702323803.4248536,-24.0,-1.0,13.0,-5.0,-2.0,-5.0,2.0,7.0
1702323803.4448555,-1.0,-3.0,-20.0,-10.0,-5.0,-7.0,-5.0,-1.0
1702323803.4448555,10.0,5.0,-4.0,3.0,1.0,14.0,-9.0,8.0
1702323803.4448555,0.0,1.0,33.0,6.0,5.0,-3.0,7.0,-1.0
1702323803.4448555,15.0,33.0,-24.0,-4.0,-3.0,-26.0,-18.0,-4.0
1702323803.4651983,-23.0,-55.0,2.0,-2.0,-4.0,18.0,-2.0,-8.0
1702323803.4651983,2.0,36.0,12.0,4.0,4.0,-2.0,26.0,-3.0
1702323803.4748542,-12.0,16.0,-15.0,4.0,6.0,23.0,4.0,-4.0
1702323803.4748542,-3.0,-47.0,38.0,5.0,-2.0,-3.0,2.0,19.0
1702323803.4848535,17.0,23.0,-33.0,-11.0,0.0,1.0,1.0,-6.0
1702323803.4848535,-18.0,0.0,-14.0,-7.0,-8.0,-12.0,-8.0,-2.0
1702323803.4848535,19.0,0.0,31.0,13.0,1.0,-7.0,-15.0,-12.0
1702323803.4848535,1.0,25.0,-5.0,3.0,-1.0,2.0,9.0,-1.0
1702323803.5051336,-53.0,-18.0,-3.0,-10.0,-6.0,-13.0,-5.0,-5.0
1702323803.5051336,5.0,-24.0,0.0,-8.0,-1.0,6.0,1.0,1.0
1702323803.5051336,7.0,14.0,-12.0,14.0,-4.0,-13.0,-3.0,-1.0
1702323803.5051336,8.0,25.0,7.0,11.0,0.0,6.0,-2.0,0.0
1702323803.5250182,17.0,-59.0,-24.0,-3.0,5.0,1.0,3.0,3.0
1702323803.5250182,2.0,21.0,26.0,0.0,4.0,0.0,-3.0,-6.0
1702323803.534858,-12.0,-44.0,4.0,-6.0,-4.0,-4.0,-3.0,2.0
1702323803.534858,9.0,39.0,-23.0,-5.0,-3.0,1.0,1.0,-5.0
1702323803.5648518,5.0,14.0,11.0,-5.0,-5.0,3.0,-1.0,1.0
1702323803.5648518,-4.0,-5.0,-3.0,12.0,-2.0,-8.0,-3.0,-3.0
1702323803.5648518,-2.0,-5.0,-6.0,-6.0,1.0,-1.0,0.0,3.0
1702323803.5648518,-4.0,-10.0,9.0,-3.0,-4.0,7.0,1.0,-4.0
1702323803.5648518,-2.0,-19.0,-13.0,-7.0,-7.0,-9.0,-2.0,-2.0
1702323803.5648518,-7.0,-15.0,0.0,-8.0,-5.0,-5.0,-7.0,-1.0
1702323803.5648518,-3.0,-7.0,-5.0,4.0,-7.0,0.0,0.0,-6.0
1702323803.5648518,0.0,2.0,-8.0,-17.0,5.0,6.0,1.0,-4.0
1702323803.5862174,11.0,30.0,12.0,4.0,-1.0,-3.0,1.0,8.0
1702323803.5862174,3.0,25.0,-1.0,-9.0,-2.0,-2.0,1.0,1.0
1702323803.5953007,-9.0,-44.0,-9.0,3.0,-7.0,-1.0,-4.0,-5.0
1702323803.5953007,-10.0,-16.0,-13.0,-16.0,-3.0,-2.0,-1.0,-7.0
1702323803.6172223,11.0,16.0,2.0,-6.0,3.0,-1.0,-1.0,4.0
1702323803.6172223,-2.0,-11.0,4.0,11.0,-2.0,0.0,-1.0,-3.0
1702323803.6172223,-1.0,23.0,-14.0,-9.0,0.0,-2.0,4.0,1.0
1702323803.6172223,3.0,1.0,20.0,11.0,3.0,2.0,0.0,0.0
1702323803.6274822,-1.0,-13.0,-2.0,-9.0,-4.0,-4.0,-3.0,-2.0
1702323803.6274822,1.0,5.0,14.0,0.0,-1.0,-4.0,-3.0,-5.0
1702323803.6274822,-1.0,-11.0,-56.0,-11.0,-3.0,-22.0,-4.0,2.0
1702323803.6274822,-10.0,-16.0,-8.0,-5.0,-2.0,17.0,1.0,-1.0
1702323803.6475635,12.0,50.0,54.0,16.0,3.0,1.0,6.0,-6.0
1702323803.6475635,-12.0,-70.0,-63.0,-22.0,-13.0,-15.0,-10.0,-8.0
1702323803.6650755,-1.0,5.0,14.0,1.0,3.0,13.0,-2.0,-11.0
1702323803.6650755,5.0,3.0,13.0,7.0,0.0,-11.0,-4.0,34.0
1702323803.675187,6.0,4.0,-41.0,5.0,5.0,-2.0,1.0,16.0
1702323803.675187,-2.0,3.0,23.0,1.0,0.0,2.0,2.0,1.0
1702323803.675187,1.0,15.0,-5.0,-5.0,2.0,-5.0,5.0,-6.0
1702323803.675187,-4.0,-19.0,0.0,5.0,-2.0,-7.0,0.0,2.0
1702323803.6853406,5.0,24.0,17.0,1.0,-1.0,1.0,-8.0,1.0
1702323803.6853406,7.0,-20.0,-5.0,4.0,2.0,0.0,-2.0,18.0
1702323803.6853406,-6.0,-2.0,-16.0,-3.0,0.0,3.0,-3.0,0.0
1702323803.6853406,5.0,3.0,8.0,4.0,2.0,4.0,0.0,-8.0
1702323803.7051318,11.0,-4.0,-2.0,-4.0,-4.0,-3.0,-2.0,-6.0
1702323803.7051318,-11.0,12.0,5.0,4.0,-1.0,-4.0,9.0,-3.0
1702323803.7150831,-1.0,5.0,8.0,-2.0,1.0,0.0,1.0,-1.0
1702323803.7150831,-13.0,6.0,-1.0,0.0,-1.0,9.0,3.0,-6.0
1702323803.7252667,7.0,-13.0,-1.0,0.0,3.0,21.0,33.0,1.0
1702323803.7252667,1.0,4.0,-7.0,1.0,3.0,-4.0,-37.0,-9.0
1702323803.7252667,-25.0,1.0,12.0,2.0,-3.0,-7.0,-32.0,1.0
1702323803.7252667,-19.0,-8.0,-18.0,-14.0,-12.0,-8.0,-16.0,-17.0
1702323803.7453132,5.0,13.0,-11.0,-12.0,-4.0,-4.0,2.0,-3.0
1702323803.7453132,2.0,-29.0,15.0,24.0,3.0,4.0,23.0,-2.0
1702323803.7550898,22.0,11.0,30.0,23.0,22.0,8.0,11.0,13.0
1702323803.7550898,-4.0,38.0,12.0,4.0,-8.0,-14.0,-11.0,-25.0
1702323803.7850857,-9.0,-89.0,-43.0,-12.0,3.0,-2.0,1.0,2.0
1702323803.7850857,7.0,81.0,94.0,12.0,-5.0,5.0,5.0,1.0
1702323803.7850857,-21.0,-89.0,-80.0,-30.0,-14.0,-12.0,-9.0,-7.0
1702323803.7850857,5.0,4.0,-3.0,-2.0,1.0,4.0,8.0,2.0
1702323803.7850857,7.0,77.0,46.0,14.0,7.0,1.0,-2.0,2.0
1702323803.7850857,-18.0,-69.0,-15.0,-22.0,-12.0,-9.0,-15.0,-12.0
1702323803.7951162,3.0,15.0,51.0,2.0,-5.0,-4.0,2.0,-2.0
1702323803.7951162,15.0,-28.0,-18.0,-1.0,2.0,4.0,11.0,15.0
1702323803.8050852,-1.0,33.0,-6.0,-6.0,-4.0,-15.0,-21.0,-4.0
1702323803.8050852,10.0,28.0,8.0,6.0,2.0,0.0,16.0,4.0
1702323803.8050852,2.0,27.0,3.0,-5.0,-1.0,2.0,-12.0,16.0
1702323803.8050852,1.0,-21.0,-10.0,1.0,-1.0,-33.0,1.0,-15.0
1702323803.8350825,-7.0,4.0,20.0,8.0,4.0,25.0,19.0,4.0
1702323803.8350825,1.0,-12.0,-31.0,-10.0,-6.0,-25.0,9.0,-1.0
1702323803.8350825,3.0,-3.0,-13.0,2.0,3.0,60.0,53.0,44.0
1702323803.8350825,7.0,18.0,16.0,9.0,6.0,-8.0,-46.0,-56.0
1702323803.8454242,-10.0,-29.0,-4.0,2.0,0.0,20.0,69.0,66.0
1702323803.8454242,-25.0,-2.0,-28.0,-10.0,-1.0,3.0,-28.0,-54.0
1702323803.8554099,0.0,12.0,-7.0,-5.0,-7.0,-27.0,6.0,-10.0
1702323803.8554099,13.0,4.0,19.0,10.0,5.0,20.0,-11.0,41.0
1702323803.8750825,6.0,-9.0,-7.0,-10.0,-11.0,-21.0,-40.0,-39.0
1702323803.8750825,18.0,4.0,-26.0,-4.0,0.0,7.0,13.0,24.0
1702323803.8750825,13.0,19.0,8.0,2.0,8.0,-9.0,-25.0,2.0
1702323803.8750825,-19.0,-16.0,44.0,23.0,-1.0,-4.0,9.0,-8.0
1702323803.8950865,8.0,9.0,-9.0,-7.0,-4.0,-11.0,-20.0,-15.0
1702323803.8950865,2.0,-15.0,-44.0,-13.0,7.0,19.0,11.0,22.0
1702323803.8950865,-21.0,24.0,9.0,30.0,-9.0,-18.0,-18.0,-31.0
1702323803.8950865,-6.0,19.0,25.0,-8.0,12.0,8.0,13.0,-5.0
1702323803.9053557,-18.0,-40.0,-84.0,-29.0,-19.0,-6.0,-7.0,-2.0
1702323803.9053557,21.0,22.0,69.0,31.0,23.0,5.0,-10.0,3.0
1702323803.9153292,11.0,-4.0,-21.0,-15.0,2.0,7.0,8.0,-3.0
1702323803.9153292,6.0,-5.0,-19.0,-6.0,-3.0,6.0,17.0,10.0
1702323803.945084,-22.0,3.0,48.0,7.0,-2.0,-12.0,-23.0,-11.0
1702323803.945084,-4.0,1.0,-51.0,-16.0,-11.0,-5.0,-3.0,-7.0
1702323803.9550812,-1.0,-14.0,5.0,-10.0,-6.0,-2.0,1.0,-6.0
1702323803.9550812,13.0,8.0,-2.0,0.0,-2.0,4.0,5.0,10.0
1702323803.9550812,-17.0,-7.0,7.0,2.0,0.0,-6.0,-12.0,-14.0
1702323803.9550812,-10.0,-9.0,4.0,-4.0,-5.0,-1.0,-3.0,0.0
1702323803.9550812,7.0,9.0,9.0,5.0,1.0,7.0,7.0,2.0
1702323803.9550812,-8.0,-7.0,-17.0,-2.0,-3.0,-6.0,-5.0,-2.0
1702323803.9653149,8.0,-7.0,1.0,2.0,-1.0,-1.0,-1.0,-6.0
1702323803.9653149,-9.0,2.0,7.0,7.0,4.0,7.0,5.0,4.0
1702323803.975272,-1.0,2.0,-1.0,-10.0,-5.0,-6.0,-11.0,-6.0
1702323803.975272,-1.0,-8.0,-18.0,-14.0,-4.0,-3.0,0.0,0.0
1702323803.9950824,-5.0,-7.0,14.0,16.0,4.0,-1.0,-4.0,-3.0
1702323803.9950824,-1.0,7.0,-1.0,-4.0,-5.0,0.0,0.0,1.0
1702323803.9950824,1.0,-3.0,-8.0,-2.0,-2.0,-1.0,-3.0,-7.0
1702323803.9950824,-7.0,-12.0,-5.0,-3.0,0.0,0.0,5.0,5.0
1702323804.0151389,1.0,11.0,-1.0,-6.0,-3.0,-1.0,-1.0,0.0
1702323804.0151389,7.0,5.0,21.0,6.0,6.0,-2.0,-5.0,2.0
1702323804.0151389,-7.0,-19.0,-24.0,-5.0,-3.0,-4.0,-2.0,-11.0
1702323804.0151389,1.0,0.0,-12.0,-2.0,-3.0,2.0,0.0,2.0
1702323804.0253942,0.0,-8.0,0.0,-7.0,-3.0,-3.0,-6.0,1.0
1702323804.0253942,4.0,2.0,-8.0,-8.0,-4.0,-2.0,1.0,4.0
1702323804.0350878,-2.0,5.0,18.0,18.0,3.0,-1.0,2.0,0.0
1702323804.0350878,-3.0,-4.0,-1.0,2.0,0.0,-2.0,1.0,0.0
1702323804.0450845,3.0,5.0,-4.0,-5.0,0.0,-1.0,-3.0,-2.0
1702323804.0450845,-6.0,15.0,6.0,14.0,-4.0,-1.0,-4.0,-3.0
1702323804.0450845,-1.0,-18.0,-4.0,-14.0,2.0,4.0,4.0,4.0
1702323804.0450845,2.0,1.0,-1.0,0.0,-2.0,0.0,-2.0,-1.0
1702323804.075135,-10.0,-11.0,-26.0,-6.0,-2.0,-2.0,-4.0,-7.0
1702323804.075135,1.0,-2.0,21.0,-2.0,-5.0,-2.0,-1.0,-3.0
1702323804.075135,1.0,11.0,-16.0,-2.0,-2.0,-2.0,-2.0,-1.0
1702323804.075135,-4.0,-1.0,4.0,3.0,-1.0,-1.0,-1.0,0.0
1702323804.085409,2.0,1.0,10.0,2.0,-2.0,1.0,0.0,1.0
1702323804.085409,-4.0,0.0,-9.0,-5.0,-2.0,-1.0,-1.0,-2.0
1702323804.095092,4.0,3.0,43.0,14.0,1.0,-3.0,-1.0,0.0
1702323804.095092,-12.0,5.0,-35.0,-7.0,-1.0,-4.0,-4.0,-4.0
1702323804.1074853,4.0,26.0,5.0,4.0,2.0,0.0,4.0,-2.0
1702323804.1074853,-4.0,-44.0,-17.0,-5.0,-1.0,-1.0,-4.0,0.0
1702323804.1074853,0.0,33.0,11.0,-6.0,-1.0,1.0,0.0,-1.0
1702323804.1074853,6.0,-7.0,5.0,0.0,-2.0,0.0,1.0,4.0
1702323804.1348257,-11.0,-49.0,-10.0,5.0,1.0,0.0,-3.0,3.0
1702323804.1348257,6.0,80.0,19.0,4.0,2.0,-1.0,-2.0,-31.0
1702323804.1358736,0.0,-16.0,-31.0,-10.0,-5.0,-5.0,-6.0,-3.0
1702323804.1358736,0.0,27.0,23.0,4.0,-1.0,-1.0,-2.0,-3.0
1702323804.1452153,-34.0,-60.0,-80.0,-21.0,-9.0,-6.0,-6.0,-34.0
1702323804.1452153,7.0,-43.0,41.0,9.0,4.0,0.0,0.0,33.0
1702323804.1552675,7.0,89.0,39.0,7.0,2.0,1.0,-1.0,-3.0
