1702323640.851267,-2.0,-4.0,0.0,0.0,-1.0,0.0,-1.0,-2.0
1702323640.851267,-3.0,-2.0,0.0,-1.0,-2.0,-1.0,1.0,-3.0
1702323640.876921,0.0,0.0,-2.0,-1.0,-2.0,0.0,0.0,-1.0
1702323640.876921,-1.0,-1.0,-1.0,0.0,-1.0,0.0,-3.0,0.0
1702323640.8829207,1.0,0.0,-1.0,-1.0,-1.0,-2.0,-3.0,-2.0
1702323640.8831494,0.0,-1.0,-2.0,-1.0,-2.0,-1.0,-2.0,1.0
1702323640.8831494,-1.0,-1.0,-1.0,0.0,-1.0,-1.0,0.0,-1.0
1702323640.8831494,-1.0,-1.0,0.0,-1.0,-2.0,0.0,-1.0,-2.0
1702323640.9034529,-3.0,-1.0,-1.0,-3.0,0.0,-1.0,1.0,-1.0
1702323640.9034529,0.0,-1.0,-1.0,-2.0,0.0,-2.0,0.0,-2.0
1702323640.9034529,-1.0,-1.0,0.0,-2.0,-2.0,-2.0,-1.0,-1.0
1702323640.9034529,-1.0,0.0,1.0,1.0,-2.0,-1.0,-1.0,-1.0
1702323640.9114716,-2.0,-1.0,-2.0,0.0,-2.0,-1.0,0.0,-1.0
1702323640.9114716,-2.0,-1.0,-2.0,-1.0,-1.0,1.0,0.0,2.0
1702323640.9215167,-1.0,0.0,-1.0,0.0,-1.0,0.0,-2.0,0.0
1702323640.9215167,0.0,-1.0,-1.0,-1.0,0.0,-1.0,0.0,-1.0
1702323640.9418857,0.0,-1.0,-1.0,-1.0,-2.0,1.0,-2.0,-1.0
1702323640.9418857,0.0,-2.0,-3.0,-2.0,-1.0,-3.0,-3.0,-2.0
1702323640.9418857,-1.0,-1.0,0.0,2.0,0.0,-2.0,-1.0,0.0
1702323640.9418857,-3.0,0.0,-1.0,-2.0,-2.0,0.0,-2.0,-2.0
1702323640.9618459,0.0,-2.0,-2.0,-2.0,-2.0,-1.0,0.0,-1.0
1702323640.9618459,-2.0,-1.0,-1.0,0.0,-1.0,0.0,-1.0,-3.0
1702323640.9618459,-1.0,-2.0,-3.0,-2.0,-2.0,-1.0,-2.0,-2.0
1702323640.9618459,-1.0,-2.0,-2.0,-1.0,0.0,-1.0,-1.0,0.0
1702323640.9714825,-1.0,-1.0,-2.0,-1.0,1.0,-2.0,1.0,1.0
1702323640.9714825,0.0,-1.0,-2.0,0.0,-1.0,0.0,0.0,0.0
1702323640.9815183,-3.0,-2.0,0.0,-1.0,-1.0,1.0,-2.0,-3.0
1702323640.9815183,0.0,-1.0,0.0,0.0,-1.0,-2.0,-1.0,-2.0
1702323641.0018222,-2.0,-2.0,-2.0,-2.0,-2.0,0.0,1.0,-1.0
1702323641.0018222,-1.0,-2.0,1.0,2.0,-1.0,-1.0,-1.0,-1.0
1702323641.0018222,0.0,2.0,0.0,-1.0,-3.0,-1.0,-2.0,-1.0
1702323641.0018222,-2.0,-2.0,-1.0,-1.0,-2.0,-1.0,-1.0,-1.0
1702323641.0213897,-1.0,-2.0,3.0,0.0,0.0,0.0,-2.0,-1.0
1702323641.0213897,-2.0,-1.0,-3.0,0.0,-1.0,0.0,-1.0,-1.0
1702323641.0213897,-1.0,-1.0,-3.0,-1.0,1.0,-1.0,-2.0,-1.0
1702323641.0213897,-1.0,-3.0,-1.0,-1.0,-1.0,-1.0,-2.0,-1.0
1702323641.0314283,0.0,0.0,-2.0,-2.0,-1.0,0.0,-1.0,-2.0
1702323641.0314283,-3.0,-5.0,2.0,2.0,-1.0,-2.0,0.0,-2.0
1702323641.041732,2.0,0.0,1.0,0.0,1.0,-1.0,-1.0,0.0
1702323641.041732,0.0,-2.0,-3.0,-1.0,-2.0,-1.0,-1.0,0.0
1702323641.0613902,1.0,1.0,0.0,0.0,-2.0,-2.0,-1.0,-2.0
1702323641.0613902,-1.0,-1.0,-3.0,-4.0,1.0,-1.0,-1.0,-1.0
1702323641.0613902,-1.0,1.0,-4.0,-4.0,-1.0,1.0,0.0,-1.0
1702323641.0613902,-1.0,-1.0,2.0,0.0,-1.0,-1.0,-1.0,-1.0
1702323641.0813904,-5.0,3.0,4.0,3.0,-4.0,-2.0,-1.0,-2.0
1702323641.0813904,0.0,0.0,-4.0,2.0,3.0,0.0,0.0,0.0
1702323641.0813904,-1.0,-2.0,1.0,0.0,-3.0,-2.0,-1.0,0.0
1702323641.0813904,-2.0,5.0,-5.0,-1.0,0.0,0.0,-1.0,-1.0
1702323641.1016371,-3.0,-5.0,1.0,-5.0,-3.0,-1.0,-1.0,-2.0
1702323641.1016371,-1.0,3.0,11.0,-5.0,-2.0,-2.0,-2.0,1.0
1702323641.1016371,-3.0,-9.0,-23.0,4.0,0.0,-2.0,-1.0,0.0
1702323641.1016371,1.0,2.0,2.0,5.0,1.0,0.0,-1.0,1.0
1702323641.121674,0.0,-4.0,-3.0,-1.0,0.0,-1.0,-1.0,2.0
1702323641.121674,-1.0,-2.0,-9.0,-6.0,-2.0,-1.0,-2.0,-1.0
1702323641.121674,-1.0,-1.0,11.0,2.0,1.0,-1.0,0.0,0.0
1702323641.121674,-1.0,-3.0,0.0,-1.0,-2.0,0.0,-1.0,-2.0
1702323641.1613917,-2.0,-3.0,-4.0,-3.0,-1.0,-1.0,-1.0,1.0
1702323641.1613917,0.0,-3.0,0.0,-2.0,-2.0,0.0,0.0,-1.0
1702323641.1613917,3.0,3.0,-1.0,-1.0,0.0,-1.0,-1.0,0.0
1702323641.1613917,-1.0,-6.0,-2.0,-3.0,-1.0,-2.0,-2.0,-2.0
1702323641.1613917,-1.0,3.0,-1.0,1.0,0.0,-1.0,-1.0,-1.0
1702323641.1613917,-2.0,-8.0,-5.0,-3.0,-4.0,-2.0,-2.0,-1.0
1702323641.1613917,-2.0,-3.0,0.0,-2.0,-2.0,-1.0,-1.0,-2.0
1702323641.1613917,-1.0,0.0,2.0,-2.0,0.0,-1.0,0.0,0.0
1702323641.1817167,-1.0,-2.0,-4.0,-2.0,-1.0,-1.0,0.0,0.0
1702323641.1817167,1.0,4.0,-1.0,1.0,0.0,-2.0,-1.0,0.0
1702323641.1817167,-2.0,0.0,2.0,-1.0,-2.0,-1.0,-2.0,-3.0
1702323641.1817167,-1.0,-2.0,8.0,0.0,-1.0,-2.0,-1.0,-1.0
1702323641.2013888,-1.0,2.0,-7.0,-5.0,0.0,0.0,-1.0,-1.0
1702323641.2013888,0.0,0.0,-4.0,0.0,0.0,-1.0,-1.0,-2.0
1702323641.2013888,-3.0,-3.0,3.0,0.0,0.0,0.0,-1.0,0.0
1702323641.2013888,0.0,-2.0,-3.0,0.0,-1.0,-2.0,-1.0,-2.0
1702323641.211429,-2.0,-1.0,4.0,2.0,0.0,-2.0,-1.0,-1.0
1702323641.211429,-1.0,1.0,1.0,2.0,0.0,0.0,0.0,-1.0
1702323641.2217333,-2.0,0.0,-4.0,-4.0,-2.0,-2.0,0.0,-1.0
1702323641.2217333,-3.0,-2.0,-2.0,-1.0,-1.0,0.0,-1.0,1.0
1702323641.2413943,-1.0,-1.0,-4.0,0.0,1.0,-1.0,-2.0,-2.0
1702323641.2413943,-1.0,-1.0,-1.0,-4.0,0.0,0.0,-1.0,-1.0
1702323641.2413943,0.0,0.0,-1.0,-1.0,-2.0,1.0,0.0,-1.0
1702323641.2413943,0.0,-1.0,-4.0,-2.0,-1.0,0.0,0.0,0.0
1702323641.2614226,1.0,-1.0,-1.0,-1.0,-1.0,0.0,-1.0,-1.0
1702323641.2614226,-3.0,-1.0,-3.0,-1.0,-1.0,-1.0,-2.0,0.0
1702323641.2614226,0.0,0.0,2.0,-2.0,0.0,0.0,0.0,-2.0
1702323641.2614226,-2.0,-1.0,-2.0,-1.0,-1.0,-2.0,-3.0,-1.0
1702323641.271769,0.0,0.0,-3.0,-1.0,-1.0,-1.0,0.0,-3.0
1702323641.271769,-1.0,-1.0,1.0,1.0,-1.0,0.0,0.0,0.0
1702323641.2817304,-2.0,-1.0,0.0,-1.0,-1.0,-1.0,-2.0,0.0
1702323641.2817304,-1.0,-1.0,-1.0,-3.0,-1.0,0.0,0.0,-3.0
1702323641.3013942,-2.0,-2.0,-1.0,-1.0,-1.0,1.0,-2.0,-1.0
1702323641.3013942,-2.0,-2.0,-1.0,0.0,-1.0,-1.0,-1.0,-2.0
1702323641.3113887,-1.0,0.0,-2.0,-1.0,0.0,-2.0,-1.0,-1.0
1702323641.3113887,-3.0,-2.0,-3.0,0.0,1.0,-3.0,-2.0,-1.0
1702323641.321787,0.0,1.0,0.0,0.0,-1.0,-3.0,-1.0,0.0
1702323641.321787,-1.0,0.0,3.0,3.0,2.0,0.0,1.0,0.0
1702323641.321787,-2.0,-1.0,-5.0,-3.0,-2.0,0.0,0.0,1.0
1702323641.321787,0.0,1.0,-2.0,-3.0,-1.0,0.0,1.0,-2.0
1702323641.3317628,-1.0,-1.0,0.0,0.0,0.0,-2.0,-1.0,-1.0
1702323641.3317628,-1.0,-2.0,-1.0,-4.0,-1.0,-2.0,-1.0,0.0
1702323641.3417227,-1.0,-1.0,0.0,0.0,-2.0,0.0,-1.0,-1.0
1702323641.3417227,-2.0,-2.0,-2.0,-1.0,-1.0,0.0,-2.0,-1.0
1702323641.3713884,-2.0,-1.0,-2.0,-2.0,-2.0,0.0,-2.0,-1.0
1702323641.3713884,0.0,-1.0,-1.0,-2.0,-1.0,-1.0,-3.0,-1.0
1702323641.3713884,-1.0,-1.0,-1.0,-2.0,1.0,-1.0,-2.0,0.0
1702323641.3713884,-1.0,0.0,-2.0,-2.0,-1.0,-1.0,-2.0,-1.0
1702323641.38163,-2.0,0.0,2.0,-2.0,-2.0,1.0,-1.0,-1.0
1702323641.38163,-2.0,-1.0,-1.0,-1.0,1.0,-1.0,-1.0,-2.0
1702323641.38163,-1.0,-2.0,0.0,-2.0,-2.0,-2.0,0.0,-1.0
1702323641.38163,0.0,0.0,0.0,0.0,-1.0,-1.0,0.0,-1.0
1702323641.3996618,-1.0,-2.0,-1.0,1.0,-2.0,-1.0,-1.0,-1.0
1702323641.3996618,0.0,-1.0,-2.0,0.0,-3.0,-1.0,0.0,-1.0
1702323641.4076586,0.0,1.0,-1.0,-2.0,-1.0,-1.0,-1.0,-2.0
1702323641.4076586,0.0,0.0,-1.0,-3.0,0.0,-2.0,-1.0,0.0
1702323641.4317076,0.0,-1.0,0.0,-2.0,-1.0,-1.0,-2.0,-1.0
1702323641.4317076,-2.0,-2.0,-2.0,-2.0,-2.0,-1.0,0.0,-1.0
1702323641.4317076,-1.0,-3.0,-2.0,-1.0,-1.0,-2.0,-1.0,0.0
1702323641.4317076,0.0,0.0,-1.0,-2.0,-1.0,-2.0,1.0,-1.0
1702323641.4420526,0.0,1.0,-2.0,-1.0,0.0,-1.0,-1.0,1.0
1702323641.4420526,0.0,0.0,-1.0,0.0,-1.0,-1.0,-1.0,0.0
1702323641.4420526,-1.0,-3.0,-1.0,-1.0,-2.0,-2.0,0.0,-2.0
1702323641.4420526,0.0,-1.0,-2.0,0.0,-2.0,-1.0,-2.0,-1.0
1702323641.4621334,-1.0,-1.0,-1.0,-2.0,-1.0,0.0,1.0,0.0
1702323641.4621334,-2.0,1.0,-1.0,-2.0,-2.0,-3.0,-2.0,-2.0
1702323641.4621334,-2.0,0.0,0.0,-1.0,-2.0,0.0,-2.0,0.0
1702323641.4621334,-2.0,0.0,-1.0,-1.0,-2.0,0.0,-1.0,-1.0
1702323641.4917696,-1.0,0.0,-1.0,0.0,0.0,0.0,0.0,-1.0
1702323641.4917696,0.0,-1.0,0.0,-3.0,-1.0,0.0,-1.0,0.0
1702323641.4917696,-2.0,0.0,0.0,1.0,1.0,-2.0,-1.0,-3.0
1702323641.4917696,0.0,-1.0,-1.0,-2.0,0.0,-2.0,-1.0,0.0
1702323641.5020287,0.0,-1.0,-1.0,1.0,0.0,-2.0,-2.0,0.0
1702323641.5020287,-2.0,-1.0,-1.0,0.0,0.0,0.0,-1.0,-1.0
1702323641.5020287,-1.0,-1.0,-1.0,-2.0,-1.0,0.0,0.0,-1.0
1702323641.5020287,0.0,-2.0,-1.0,0.0,0.0,1.0,-1.0,-2.0
1702323641.512033,0.0,-1.0,-1.0,0.0,-1.0,-2.0,0.0,-3.0
1702323641.512033,-2.0,0.0,-2.0,-1.0,-5.0,0.0,-1.0,-2.0
1702323641.5517704,-2.0,-2.0,-1.0,-2.0,-1.0,0.0,-1.0,0.0
1702323641.5517704,0.0,0.0,-2.0,-1.0,-2.0,-2.0,1.0,-2.0
1702323641.5517704,0.0,-2.0,-1.0,-2.0,-1.0,-2.0,-2.0,-1.0
1702323641.5517704,-1.0,-1.0,0.0,1.0,1.0,-1.0,0.0,-1.0
1702323641.5517704,-2.0,0.0,1.0,0.0,-1.0,-2.0,-2.0,-1.0
1702323641.5517704,-3.0,0.0,0.0,-3.0,-2.0,-1.0,-2.0,0.0
1702323641.5620778,-3.0,-2.0,-2.0,-2.0,-1.0,-1.0,-2.0,1.0
1702323641.5620778,-1.0,-2.0,-1.0,-1.0,-2.0,1.0,0.0,0.0
1702323641.5620778,0.0,-2.0,0.0,-2.0,-1.0,-2.0,0.0,0.0
1702323641.5620778,-1.0,0.0,-2.0,1.0,0.0,0.0,0.0,-1.0
1702323641.5723243,1.0,1.0,-1.0,-1.0,0.0,-1.0,-1.0,-1.0
1702323641.5723243,-1.0,0.0,-1.0,-1.0,-1.0,-3.0,-1.0,-1.0
1702323641.602096,-4.0,-1.0,-2.0,-1.0,-2.0,0.0,-2.0,0.0
1702323641.602096,-2.0,0.0,-1.0,-2.0,0.0,-1.0,0.0,-1.0
1702323641.602096,-2.0,0.0,-1.0,0.0,-2.0,-1.0,0.0,-1.0
1702323641.602096,0.0,-2.0,-2.0,-3.0,0.0,0.0,0.0,-1.0
1702323641.602096,-1.0,-1.0,-3.0,-1.0,-2.0,0.0,0.0,0.0
1702323641.602096,0.0,-2.0,-1.0,-1.0,-2.0,-1.0,-3.0,-3.0
1702323641.6321647,-2.0,-1.0,-3.0,-1.0,-1.0,-1.0,-1.0,-2.0
1702323641.6321647,0.0,-1.0,0.0,1.0,0.0,-2.0,0.0,1.0
1702323641.6321647,-1.0,-1.0,-2.0,-1.0,0.0,0.0,0.0,0.0
1702323641.6321647,-2.0,-1.0,-1.0,0.0,-1.0,0.0,-2.0,-1.0
1702323641.6321647,-1.0,0.0,-1.0,-1.0,0.0,-1.0,0.0,-2.0
1702323641.6321647,0.0,1.0,-3.0,-4.0,-1.0,-2.0,-2.0,-3.0
1702323641.6520972,-1.0,0.0,1.0,2.0,-2.0,-1.0,0.0,-1.0
1702323641.6520972,-3.0,-1.0,-1.0,0.0,0.0,-3.0,-1.0,-1.0
1702323641.6620939,0.0,-2.0,0.0,-1.0,-3.0,0.0,-1.0,-1.0
1702323641.6620939,-1.0,0.0,0.0,-2.0,-3.0,-1.0,-2.0,-1.0
1702323641.6620939,1.0,-1.0,0.0,-1.0,0.0,-1.0,0.0,-1.0
1702323641.6620939,0.0,-2.0,0.0,-1.0,-1.0,0.0,-3.0,-1.0
1702323641.682176,0.0,-1.0,0.0,1.0,-2.0,-1.0,-1.0,0.0
1702323641.682176,-2.0,-2.0,-1.0,-1.0,-1.0,-2.0,-1.0,-1.0
1702323641.682176,-1.0,0.0,-2.0,-2.0,-1.0,-1.0,-2.0,-2.0
1702323641.682176,-1.0,-1.0,-1.0,0.0,-1.0,-1.0,-2.0,1.0
1702323641.7021534,-1.0,-2.0,-3.0,-2.0,2.0,-1.0,-1.0,-2.0
1702323641.7021534,1.0,0.0,0.0,0.0,-1.0,-1.0,-1.0,0.0
1702323641.7021534,-1.0,0.0,-2.0,-2.0,-1.0,-1.0,-1.0,-1.0
1702323641.7021534,-1.0,-2.0,0.0,0.0,0.0,-2.0,0.0,0.0
1702323641.7320955,-3.0,0.0,1.0,-2.0,-1.0,-1.0,-1.0,0.0
1702323641.7320955,-2.0,0.0,-1.0,0.0,0.0,0.0,-2.0,0.0
1702323641.7320955,-1.0,-1.0,0.0,-1.0,0.0,1.0,1.0,-3.0
1702323641.7320955,0.0,-1.0,-2.0,-2.0,0.0,1.0,0.0,-1.0
1702323641.7424266,-1.0,-2.0,-1.0,-1.0,-1.0,0.0,-3.0,0.0
1702323641.7424266,0.0,-1.0,-1.0,-3.0,1.0,-2.0,0.0,-1.0
1702323641.7424266,-3.0,-1.0,-1.0,1.0,-1.0,-2.0,-3.0,0.0
1702323641.7424266,0.0,0.0,-1.0,-2.0,-1.0,-1.0,0.0,-3.0
1702323641.7720942,-1.0,-1.0,-2.0,-1.0,0.0,-2.0,0.0,-2.0
1702323641.7720942,0.0,-2.0,-1.0,0.0,1.0,1.0,1.0,-1.0
1702323641.7720942,1.0,-1.0,-3.0,-3.0,-1.0,-1.0,-1.0,-1.0
1702323641.7720942,-2.0,-2.0,1.0,-1.0,0.0,-2.0,0.0,0.0
1702323641.7821963,0.0,0.0,0.0,0.0,-1.0,-2.0,-1.0,-2.0
1702323641.7821963,-3.0,-2.0,0.0,-1.0,-1.0,0.0,-2.0,-2.0
1702323641.7821963,1.0,2.0,0.0,-1.0,0.0,-2.0,1.0,0.0
1702323641.7821963,-1.0,-1.0,-3.0,-2.0,-2.0,-1.0,-2.0,-1.0
1702323641.8023968,-1.0,-2.0,-2.0,0.0,-1.0,0.0,-2.0,0.0
1702323641.8023968,-1.0,-1.0,-1.0,0.0,-1.0,0.0,-1.0,-1.0
1702323641.8023968,0.0,-2.0,-1.0,-1.0,-1.0,-2.0,0.0,-1.0
1702323641.8023968,-1.0,0.0,2.0,0.0,-1.0,1.0,-1.0,-2.0
1702323641.8221278,-4.0,0.0,1.0,-1.0,-1.0,-1.0,-1.0,-2.0
1702323641.8221278,0.0,-2.0,0.0,0.0,-1.0,-2.0,0.0,-1.0
1702323641.8221278,1.0,0.0,-1.0,0.0,2.0,0.0,-1.0,1.0
1702323641.8221278,-3.0,-1.0,-4.0,-1.0,-2.0,-2.0,0.0,-3.0
1702323641.8422868,-1.0,-1.0,-1.0,-1.0,-1.0,-1.0,0.0,1.0
1702323641.8422868,-2.0,-1.0,-1.0,-1.0,0.0,-2.0,-2.0,-1.0
1702323641.8422868,0.0,2.0,1.0,2.0,0.0,-1.0,-3.0,-1.0
1702323641.8422868,0.0,-1.0,0.0,-1.0,-1.0,-3.0,0.0,0.0
1702323641.8720956,-2.0,-2.0,-1.0,-1.0,0.0,-1.0,-1.0,0.0
1702323641.8720956,-1.0,-2.0,-10.0,-1.0,-2.0,0.0,0.0,0.0
1702323641.8720956,-1.0,8.0,0.0,-2.0,-2.0,0.0,-1.0,0.0
1702323641.8720956,1.0,-3.0,-2.0,-2.0,-3.0,-1.0,0.0,0.0
1702323641.8821013,3.0,4.0,5.0,0.0,-2.0,-1.0,0.0,0.0
1702323641.8821013,-4.0,-4.0,-6.0,0.0,-1.0,-2.0,-2.0,-2.0
1702323641.8821013,-1.0,-3.0,2.0,-2.0,-1.0,-2.0,0.0,-1.0
1702323641.8821013,-5.0,-1.0,2.0,0.0,0.0,-1.0,-2.0,-2.0
1702323641.9020958,1.0,-6.0,0.0,-1.0,-2.0,0.0,0.0,0.0
1702323641.9020958,-4.0,-6.0,-16.0,-5.0,-5.0,-1.0,-1.0,-1.0
1702323641.9020958,-1.0,2.0,-3.0,3.0,-2.0,0.0,0.0,-2.0
1702323641.9020958,-1.0,-4.0,-9.0,-2.0,0.0,-1.0,-1.0,0.0
1702323641.9220955,1.0,6.0,5.0,-2.0,-1.0,-1.0,-1.0,0.0
1702323641.9220955,2.0,11.0,-1.0,-3.0,-1.0,-1.0,1.0,-2.0
1702323641.9220955,-6.0,-8.0,4.0,-4.0,-2.0,-3.0,0.0,-1.0
1702323641.9220955,7.0,4.0,22.0,1.0,-1.0,-1.0,0.0,0.0
1702323641.948575,-6.0,-12.0,-10.0,1.0,-3.0,-2.0,-2.0,-2.0
1702323641.948575,10.0,34.0,8.0,0.0,-1.0,-2.0,-1.0,1.0
1702323641.9506345,-16.0,-44.0,-14.0,-3.0,-1.0,-2.0,-2.0,-5.0
1702323641.9506345,-2.0,-3.0,-11.0,-4.0,-1.0,-1.0,-2.0,-1.0
1702323641.9627545,0.0,3.0,6.0,1.0,1.0,1.0,0.0,0.0
1702323641.9627545,1.0,-4.0,4.0,0.0,-1.0,-3.0,-1.0,0.0
1702323641.9658465,2.0,12.0,10.0,-4.0,-2.0,-2.0,-2.0,-1.0
1702323641.9658465,3.0,-4.0,0.0,3.0,0.0,0.0,-1.0,-1.0
1702323641.9958441,-3.0,-9.0,-23.0,0.0,-1.0,-2.0,-1.0,-1.0
1702323641.9958441,-3.0,-4.0,5.0,-2.0,-1.0,-1.0,-2.0,-1.0
1702323641.9958441,3.0,8.0,2.0,1.0,0.0,0.0,1.0,0.0
1702323641.9958441,-4.0,-1.0,6.0,-1.0,0.0,-1.0,-2.0,-1.0
1702323642.0058749,2.0,7.0,-2.0,-3.0,-1.0,-2.0,-1.0,-2.0
1702323642.0058749,-4.0,-10.0,16.0,3.0,1.0,2.0,0.0,0.0
1702323642.0058749,0.0,-6.0,-14.0,-2.0,-1.0,0.0,0.0,0.0
1702323642.0058749,-1.0,5.0,1.0,0.0,-2.0,-2.0,-2.0,-2.0
1702323642.0161417,-2.0,1.0,-6.0,0.0,-3.0,-2.0,-1.0,-3.0
1702323642.0161417,-2.0,-9.0,0.0,1.0,-2.0,-3.0,-2.0,-1.0
1702323642.026163,-2.0,2.0,-2.0,-1.0,0.0,-1.0,1.0,0.0
1702323642.026163,-2.0,4.0,-6.0,-3.0,-1.0,-2.0,-1.0,0.0
1702323642.0422275,-5.0,-9.0,6.0,-2.0,0.0,-2.0,-1.0,-1.0
1702323642.0422275,0.0,0.0,-2.0,-2.0,-1.0,-2.0,0.0,-1.0
1702323642.0422275,2.0,9.0,-3.0,-2.0,-1.0,1.0,-2.0,0.0
1702323642.0422275,-10.0,-10.0,-9.0,2.0,0.0,0.0,-1.0,-2.0
1702323642.0624874,0.0,5.0,4.0,-1.0,-1.0,-1.0,-1.0,-1.0
1702323642.0624874,-3.0,-3.0,-2.0,0.0,-1.0,0.0,-2.0,-1.0
1702323642.0624874,1.0,9.0,0.0,-3.0,-1.0,-1.0,-2.0,-1.0
1702323642.0624874,-3.0,-12.0,0.0,-1.0,1.0,-1.0,-1.0,-1.0
1702323642.0822344,-2.0,5.0,0.0,-2.0,-1.0,1.0,0.0,-1.0
1702323642.0822344,-4.0,-4.0,-4.0,0.0,0.0,1.0,0.0,-1.0
1702323642.1122282,0.0,-1.0,-1.0,0.0,-1.0,-2.0,-1.0,-1.0
1702323642.1122282,2.0,6.0,1.0,0.0,-2.0,-1.0,-1.0,0.0
1702323642.1122282,2.0,0.0,1.0,-1.0,1.0,-1.0,-2.0,0.0
1702323642.1122282,-2.0,-6.0,-5.0,-2.0,-1.0,-2.0,-2.0,-1.0
1702323642.122228,0.0,-2.0,0.0,2.0,1.0,0.0,-1.0,-3.0
1702323642.122228,-2.0,3.0,-2.0,-2.0,-2.0,-1.0,-2.0,-1.0
1702323642.122228,-1.0,-5.0,-1.0,-3.0,-1.0,-2.0,-2.0,-1.0
1702323642.122228,-2.0,-3.0,-1.0,0.0,-1.0,1.0,0.0,0.0
1702323642.122228,0.0,1.0,-7.0,-1.0,-1.0,-2.0,-2.0,-2.0
1702323642.122228,1.0,3.0,6.0,0.0,-1.0,0.0,-1.0,0.0
1702323642.14223,-2.0,-1.0,1.0,0.0,-1.0,-1.0,-1.0,0.0
1702323642.14223,-2.0,-1.0,1.0,-1.0,0.0,-1.0,-2.0,1.0
1702323642.1522262,-3.0,-2.0,-2.0,-1.0,-2.0,-1.0,-2.0,-1.0
1702323642.1522262,0.0,-2.0,-9.0,-1.0,-1.0,-1.0,1.0,1.0
1702323642.1624804,0.0,0.0,1.0,-1.0,-1.0,-1.0,-1.0,-2.0
1702323642.1624804,-1.0,-1.0,-1.0,-4.0,0.0,-2.0,0.0,-1.0
1702323642.1624804,-2.0,-2.0,-2.0,1.0,-1.0,-3.0,-1.0,-1.0
1702323642.1624804,-1.0,1.0,-1.0,0.0,0.0,-1.0,0.0,-1.0
1702323642.1822345,0.0,-2.0,0.0,0.0,-1.0,-1.0,-1.0,0.0
1702323642.1822345,-1.0,-2.0,-3.0,-1.0,-2.0,-3.0,-1.0,-2.0
1702323642.1822345,-1.0,-1.0,1.0,-2.0,-1.0,0.0,-1.0,0.0
1702323642.1822345,-3.0,-1.0,0.0,-2.0,-1.0,-1.0,-1.0,0.0
1702323642.2122343,-2.0,-1.0,-1.0,1.0,-1.0,-3.0,-1.0,-1.0
1702323642.2122343,0.0,-3.0,-3.0,-1.0,0.0,-2.0,-1.0,-1.0
1702323642.222227,0.0,-4.0,3.0,0.0,1.0,-2.0,-2.0,1.0
1702323642.222227,2.0,11.0,-2.0,-1.0,-1.0,-2.0,-2.0,-1.0
1702323642.222227,-3.0,-6.0,-1.0,-1.0,-1.0,0.0,0.0,-3.0
1702323642.222227,1.0,-3.0,-1.0,1.0,-1.0,-1.0,0.0,-1.0
1702323642.222227,2.0,6.0,3.0,-1.0,-2.0,-1.0,-1.0,-1.0
1702323642.222227,-2.0,13.0,-3.0,-2.0,-3.0,-2.0,-3.0,-1.0
1702323642.252486,-4.0,-29.0,-3.0,-2.0,0.0,-1.0,-2.0,-1.0
1702323642.252486,-1.0,-2.0,0.0,1.0,0.0,-1.0,-2.0,-1.0
1702323642.252486,-1.0,-4.0,-5.0,-1.0,1.0,-1.0,0.0,-3.0
1702323642.252486,-1.0,-5.0,-1.0,0.0,-1.0,-1.0,-2.0,0.0
1702323642.262237,-2.0,6.0,0.0,-2.0,-1.0,-1.0,0.0,-1.0
1702323642.2722294,-2.0,-1.0,-1.0,-2.0,-1.0,-1.0,-2.0,0.0
1702323642.2722294,1.0,-4.0,0.0,-1.0,-2.0,0.0,0.0,-2.0
1702323642.2722294,-1.0,0.0,1.0,0.0,0.0,-3.0,-1.0,-1.0
1702323642.2824848,-1.0,4.0,0.0,-2.0,-1.0,0.0,-2.0,0.0
1702323642.2824848,-2.0,-3.0,-2.0,-1.0,0.0,-2.0,-1.0,-1.0
1702323642.2824848,-1.0,4.0,-1.0,-1.0,-1.0,-1.0,-1.0,-1.0
1702323642.2824848,-3.0,-7.0,-1.0,-1.0,-1.0,1.0,0.0,-2.0
1702323642.302603,-1.0,-1.0,0.0,2.0,-2.0,-3.0,-2.0,0.0
1702323642.302603,-2.0,4.0,-3.0,-2.0,-1.0,-2.0,1.0,-2.0
1702323642.302603,-1.0,-2.0,-2.0,-1.0,-1.0,-1.0,-1.0,3.0
1702323642.302603,2.0,11.0,-1.0,-1.0,0.0,-2.0,0.0,0.0
1702323642.3222275,-4.0,-16.0,0.0,1.0,-1.0,-1.0,-1.0,-1.0
1702323642.3222275,-1.0,-4.0,-2.0,-1.0,-1.0,-1.0,0.0,-1.0
1702323642.3322542,-3.0,-2.0,2.0,1.0,-2.0,-2.0,-1.0,-1.0
1702323642.3322542,2.0,3.0,-1.0,-2.0,-1.0,-1.0,0.0,-1.0
1702323642.342613,1.0,9.0,-1.0,-2.0,-1.0,-2.0,-2.0,-1.0
1702323642.342613,-2.0,-6.0,5.0,3.0,-1.0,0.0,-2.0,-1.0
1702323642.342613,-1.0,4.0,-2.0,-4.0,-2.0,-2.0,-1.0,-2.0
1702323642.342613,2.0,3.0,-2.0,-3.0,1.0,-1.0,-1.0,-2.0
1702323642.3622293,-2.0,-2.0,-3.0,-1.0,-3.0,-1.0,0.0,-1.0
1702323642.3622293,0.0,4.0,6.0,1.0,1.0,0.0,0.0,0.0
1702323642.3622293,-4.0,-7.0,-12.0,-2.0,0.0,1.0,0.0,-1.0
1702323642.3622293,0.0,-3.0,0.0,0.0,-1.0,-1.0,-2.0,-1.0
1702323642.3722281,4.0,2.0,-2.0,-4.0,-1.0,-1.0,0.0,-1.0
1702323642.3722281,1.0,2.0,-3.0,0.0,-3.0,0.0,-1.0,0.0
1702323642.3822541,-2.0,-2.0,4.0,-3.0,-2.0,-1.0,-2.0,-1.0
1702323642.3822541,-1.0,-12.0,-2.0,1.0,0.0,-1.0,-1.0,-2.0
1702323642.4026031,-1.0,10.0,2.0,2.0,1.0,0.0,-1.0,0.0
1702323642.4026031,-3.0,-8.0,-4.0,-3.0,-3.0,-1.0,0.0,-1.0
1702323642.4026031,-3.0,2.0,-1.0,1.0,0.0,-1.0,-1.0,-1.0
1702323642.4026031,-4.0,-8.0,-3.0,-3.0,-3.0,-1.0,0.0,0.0
1702323642.4225812,-1.0,1.0,-2.0,-3.0,1.0,-1.0,-1.0,-2.0
1702323642.4225812,0.0,4.0,-2.0,-1.0,-1.0,-2.0,-1.0,0.0
1702323642.4225812,1.0,3.0,2.0,-2.0,-2.0,-1.0,0.0,-1.0
1702323642.4225812,-4.0,-11.0,-1.0,-2.0,0.0,-2.0,1.0,-2.0
1702323642.4425933,1.0,3.0,-3.0,0.0,-1.0,-2.0,-2.0,-1.0
1702323642.4425933,-1.0,-3.0,-1.0,-2.0,-1.0,-2.0,-1.0,0.0
1702323642.464599,1.0,-3.0,0.0,1.0,-2.0,0.0,-2.0,0.0
1702323642.464599,-2.0,0.0,-2.0,-1.0,1.0,0.0,-1.0,0.0
1702323642.464599,-1.0,2.0,-1.0,-1.0,-1.0,0.0,-1.0,-1.0
1702323642.464599,-2.0,-5.0,0.0,-1.0,-1.0,-2.0,-2.0,-2.0
1702323642.4726696,-1.0,1.0,1.0,-2.0,-1.0,-2.0,-1.0,1.0
1702323642.4726696,-1.0,2.0,0.0,1.0,-1.0,-1.0,0.0,-3.0
1702323642.5119436,-1.0,-5.0,-5.0,-2.0,-2.0,-1.0,-2.0,-2.0
1702323642.5119436,-1.0,2.0,-3.0,0.0,-1.0,0.0,-1.0,-2.0
1702323642.5119436,-2.0,-4.0,0.0,-1.0,-3.0,-1.0,0.0,-1.0
1702323642.5119436,-2.0,-4.0,-2.0,-2.0,-2.0,0.0,-1.0,0.0
1702323642.5119436,-2.0,0.0,0.0,0.0,0.0,-1.0,0.0,-1.0
1702323642.5119436,-1.0,-3.0,-1.0,-2.0,-1.0,-1.0,-2.0,-3.0
1702323642.5119436,-1.0,0.0,-1.0,0.0,1.0,1.0,0.0,-1.0
1702323642.5119436,0.0,-2.0,-1.0,-3.0,0.0,0.0,-3.0,-1.0
1702323642.5221496,0.0,3.0,3.0,2.0,-1.0,1.0,-1.0,0.0
1702323642.5221496,-1.0,1.0,-3.0,-1.0,0.0,-2.0,0.0,-1.0
1702323642.53195,-1.0,-4.0,-1.0,-1.0,-1.0,-2.0,0.0,-1.0
1702323642.53195,-2.0,-1.0,0.0,-2.0,-2.0,0.0,0.0,-1.0
1702323642.5419436,-1.0,-1.0,-1.0,-2.0,1.0,-1.0,0.0,-1.0
1702323642.5419436,-2.0,-1.0,0.0,-2.0,1.0,0.0,-1.0,-1.0
1702323642.5419436,-1.0,-3.0,-1.0,0.0,0.0,-1.0,-2.0,0.0
1702323642.5419436,0.0,-1.0,-1.0,-1.0,-2.0,-2.0,-1.0,0.0
1702323642.5620072,0.0,-1.0,-2.0,-1.0,-2.0,-2.0,0.0,1.0
1702323642.5620072,-1.0,-2.0,0.0,-1.0,-1.0,-1.0,-1.0,0.0
1702323642.5620072,-1.0,0.0,0.0,-1.0,-1.0,-2.0,-1.0,-3.0
1702323642.5620072,-1.0,-2.0,-2.0,0.0,-1.0,-1.0,-1.0,3.0
1702323642.5821826,-1.0,-2.0,-1.0,-2.0,-2.0,-2.0,-2.0,-2.0
1702323642.5821826,0.0,0.0,-2.0,1.0,0.0,-1.0,0.0,-2.0
1702323642.602039,-2.0,0.0,0.0,-2.0,-1.0,-1.0,-2.0,-1.0
1702323642.602039,-2.0,-1.0,0.0,0.0,0.0,-3.0,-7.0,-7.0
1702323642.6120315,1.0,-1.0,-1.0,-2.0,-1.0,0.0,-1.0,-2.0
1702323642.6120315,-1.0,-2.0,-3.0,-1.0,-1.0,-1.0,1.0,-1.0
1702323642.6120315,-2.0,0.0,-1.0,-2.0,0.0,2.0,-2.0,-2.0
1702323642.6120315,-1.0,-1.0,-2.0,-1.0,-1.0,0.0,1.0,-2.0
1702323642.622033,0.0,-1.0,-2.0,-1.0,-1.0,0.0,-1.0,1.0
1702323642.622033,-1.0,-2.0,-2.0,0.0,0.0,-3.0,-1.0,-4.0
1702323642.622033,-2.0,-1.0,-3.0,1.0,-1.0,-4.0,-2.0,4.0
1702323642.622033,-2.0,-1.0,-1.0,0.0,-1.0,-1.0,-1.0,0.0
1702323642.6422186,-1.0,-1.0,-1.0,-2.0,1.0,-2.0,0.0,-1.0
1702323642.6422186,0.0,1.0,-1.0,-2.0,-1.0,-1.0,0.0,3.0
1702323642.6622286,0.0,-2.0,0.0,0.0,-1.0,-4.0,-5.0,-9.0
1702323642.6622286,0.0,-2.0,-1.0,0.0,0.0,-1.0,-4.0,3.0
1702323642.6622286,0.0,-1.0,-2.0,0.0,-3.0,1.0,4.0,-1.0
1702323642.6622286,-1.0,0.0,0.0,-1.0,-1.0,0.0,-2.0,-2.0
1702323642.6622286,-1.0,-1.0,-2.0,-4.0,-3.0,-1.0,-2.0,1.0
1702323642.6622286,-2.0,0.0,-1.0,0.0,1.0,-1.0,0.0,1.0
1702323642.6824648,-2.0,-1.0,-1.0,-2.0,-2.0,-3.0,-5.0,-2.0
1702323642.6824648,-1.0,-1.0,-3.0,-2.0,-4.0,-6.0,-3.0,1.0
1702323642.6922278,0.0,0.0,0.0,0.0,-2.0,0.0,-2.0,-3.0
1702323642.6922278,-1.0,-2.0,-2.0,-1.0,-2.0,-6.0,-6.0,-2.0
1702323642.702524,1.0,-2.0,0.0,1.0,0.0,8.0,7.0,2.0
1702323642.702524,-1.0,-1.0,-1.0,0.0,-2.0,-2.0,-2.0,-1.0
1702323642.7122698,0.0,-4.0,-2.0,0.0,0.0,0.0,2.0,0.0
1702323642.7122698,-1.0,-1.0,-1.0,0.0,-1.0,-3.0,-3.0,-1.0
1702323642.732228,-2.0,-2.0,-2.0,0.0,0.0,-2.0,-4.0,-1.0
1702323642.732228,-3.0,-1.0,-2.0,-1.0,0.0,1.0,-1.0,-1.0
1702323642.732228,0.0,-1.0,0.0,-1.0,-2.0,-1.0,0.0,0.0
1702323642.732228,-1.0,-1.0,-2.0,-2.0,-1.0,2.0,2.0,-1.0
1702323642.7422535,0.0,1.0,-2.0,-2.0,-1.0,-5.0,-5.0,-3.0
1702323642.7422535,1.0,-1.0,-1.0,0.0,-2.0,0.0,1.0,-1.0
1702323642.7422535,1.0,-1.0,-2.0,-1.0,1.0,-2.0,1.0,0.0
1702323642.752232,1.0,0.0,-1.0,-2.0,0.0,4.0,2.0,-1.0
1702323642.7622275,-1.0,-2.0,0.0,-2.0,-2.0,-4.0,-2.0,0.0
1702323642.7622275,-3.0,-1.0,-1.0,-2.0,0.0,0.0,-1.0,-1.0
1702323642.7722318,-1.0,0.0,-2.0,-2.0,-1.0,-3.0,0.0,1.0
1702323642.7722318,-1.0,-1.0,0.0,-2.0,-3.0,0.0,1.0,-1.0
1702323642.7824893,-2.0,0.0,-1.0,-1.0,-1.0,2.0,-1.0,0.0
1702323642.7824893,0.0,-2.0,0.0,1.0,-2.0,0.0,-3.0,0.0
1702323642.7824893,-2.0,-2.0,-1.0,-1.0,-1.0,1.0,0.0,0.0
1702323642.7824893,-2.0,-3.0,-1.0,0.0,-2.0,-1.0,1.0,0.0
1702323642.8222272,-2.0,-1.0,0.0,-2.0,-1.0,-4.0,-4.0,-1.0
1702323642.8222272,-2.0,0.0,-1.0,-3.0,-2.0,-1.0,-2.0,-2.0
1702323642.8222272,-1.0,-1.0,-1.0,0.0,0.0,-2.0,-1.0,-1.0
1702323642.8222272,-1.0,0.0,0.0,0.0,0.0,-2.0,0.0,-2.0
1702323642.8222272,-1.0,-2.0,-2.0,0.0,1.0,-2.0,-1.0,-2.0
1702323642.8222272,1.0,-2.0,-1.0,1.0,-1.0,-1.0,0.0,-1.0
1702323642.8322847,-1.0,0.0,-2.0,-1.0,-2.0,-1.0,-1.0,0.0
1702323642.8322847,-3.0,-1.0,-3.0,-3.0,-3.0,-1.0,-1.0,0.0
1702323642.8426452,-1.0,-1.0,0.0,1.0,-1.0,-1.0,-1.0,-1.0
1702323642.8426452,-1.0,1.0,0.0,-3.0,-2.0,-2.0,1.0,1.0
1702323642.8426452,-1.0,0.0,-2.0,0.0,0.0,0.0,-1.0,0.0
1702323642.8426452,-1.0,0.0,0.0,0.0,-1.0,-1.0,0.0,-1.0
1702323642.862627,-2.0,0.0,-1.0,-2.0,-2.0,-2.0,0.0,-2.0
1702323642.862627,-1.0,-1.0,1.0,1.0,0.0,-1.0,-2.0,0.0
1702323642.862627,-1.0,-2.0,-1.0,-1.0,0.0,1.0,-2.0,-2.0
1702323642.862627,-2.0,-1.0,0.0,-2.0,-1.0,-2.0,-1.0,-1.0
1702323642.8822277,-1.0,0.0,0.0,1.0,-1.0,0.0,-3.0,-1.0
1702323642.8822277,-1.0,-2.0,0.0,0.0,0.0,0.0,-1.0,-3.0
1702323642.8922272,0.0,-1.0,0.0,-2.0,0.0,1.0,0.0,1.0
1702323642.8922272,-1.0,-2.0,-2.0,0.0,-1.0,-1.0,0.0,-1.0
1702323642.9026191,0.0,0.0,-1.0,0.0,-1.0,-2.0,-3.0,-2.0
1702323642.9026191,-2.0,-1.0,-1.0,0.0,-1.0,-1.0,0.0,1.0
1702323642.9026191,0.0,-2.0,1.0,-3.0,-1.0,-1.0,0.0,-1.0
1702323642.9026191,-1.0,-3.0,0.0,-1.0,-2.0,-1.0,-1.0,-2.0
1702323642.922632,-1.0,-2.0,-2.0,-1.0,-1.0,-1.0,1.0,-1.0
1702323642.922632,0.0,0.0,-1.0,-1.0,-1.0,-3.0,-1.0,-2.0
1702323642.922632,-2.0,-1.0,0.0,-1.0,-1.0,1.0,-1.0,-2.0
1702323642.922632,-3.0,-1.0,-1.0,-3.0,-2.0,1.0,0.0,-1.0
1702323642.9422271,1.0,-1.0,1.0,3.0,0.0,-1.0,-3.0,-3.0
1702323642.9422271,-2.0,-2.0,-4.0,-3.0,-1.0,0.0,-3.0,0.0
1702323642.9522903,-1.0,-2.0,-1.0,1.0,-3.0,-2.0,0.0,0.0
1702323642.9522903,-2.0,1.0,0.0,0.0,0.0,-2.0,0.0,-1.0
1702323642.962657,-2.0,-1.0,-1.0,-3.0,-3.0,-1.0,0.0,2.0
1702323642.962657,-2.0,2.0,2.0,-1.0,0.0,-2.0,1.0,-1.0
1702323642.962657,0.0,-1.0,-1.0,0.0,-1.0,-1.0,-2.0,-3.0
1702323642.962657,1.0,-1.0,-2.0,-1.0,0.0,1.0,-3.0,-1.0
1702323642.9962974,-1.0,-1.0,0.0,-1.0,-2.0,-2.0,-1.0,0.0
1702323642.9962974,-2.0,-1.0,-3.0,1.0,0.0,1.0,0.0,-1.0
1702323642.9962974,-2.0,1.0,0.0,0.0,-1.0,-3.0,0.0,-1.0
1702323642.9962974,-2.0,-2.0,-1.0,0.0,1.0,-1.0,-4.0,-3.0
1702323643.0042067,-2.0,-1.0,-2.0,-1.0,-1.0,0.0,1.0,-1.0
1702323643.0042067,0.0,-1.0,-2.0,-1.0,-1.0,1.0,0.0,-2.0
1702323643.0123894,0.0,-2.0,-2.0,-2.0,-1.0,-2.0,0.0,-1.0
1702323643.0123894,0.0,-1.0,0.0,-1.0,0.0,-1.0,0.0,-2.0
1702323643.0248737,-2.0,-2.0,-2.0,-2.0,-2.0,-1.0,-1.0,0.0
1702323643.0248737,-4.0,-1.0,-2.0,-2.0,-2.0,-1.0,-1.0,0.0
1702323643.0248737,-4.0,-1.0,-2.0,-1.0,0.0,-2.0,-1.0,-1.0
1702323643.0248737,1.0,-1.0,-2.0,-1.0,-2.0,-2.0,-1.0,0.0
1702323643.0447338,-2.0,-2.0,-2.0,-2.0,-1.0,1.0,-3.0,-1.0
1702323643.0447338,-1.0,-1.0,0.0,0.0,-1.0,0.0,-1.0,1.0
1702323643.0447338,-2.0,0.0,-2.0,-1.0,-1.0,0.0,-1.0,-2.0
1702323643.0447338,0.0,-2.0,-1.0,-2.0,-2.0,0.0,-1.0,1.0
1702323643.0625362,-2.0,0.0,-2.0,0.0,0.0,0.0,0.0,-2.0
1702323643.0625362,1.0,-2.0,0.0,-2.0,-1.0,0.0,-1.0,-2.0
1702323643.0722587,-2.0,-1.0,-1.0,-1.0,-1.0,-2.0,0.0,-1.0
1702323643.0722587,-1.0,-2.0,-1.0,-1.0,-1.0,0.0,0.0,-2.0
1702323643.0824788,1.0,0.0,-2.0,-3.0,-1.0,-1.0,-1.0,-2.0
1702323643.0824788,0.0,-1.0,-1.0,-1.0,-1.0,-1.0,1.0,-3.0
1702323643.0824788,0.0,-1.0,0.0,-1.0,0.0,-1.0,-1.0,0.0
1702323643.0824788,-1.0,0.0,1.0,-1.0,-1.0,0.0,-1.0,0.0
1702323643.1025202,-2.0,-1.0,0.0,-1.0,1.0,-1.0,-1.0,1.0
1702323643.1025202,-1.0,1.0,-1.0,-2.0,-2.0,-2.0,-3.0,-1.0
1702323643.1122541,-2.0,-1.0,-1.0,0.0,-1.0,-1.0,-3.0,0.0
1702323643.1122541,0.0,-1.0,0.0,0.0,-1.0,-3.0,-1.0,0.0
1702323643.1422462,-1.0,0.0,-1.0,-2.0,-1.0,0.0,0.0,-2.0
1702323643.1422462,-1.0,-1.0,-1.0,1.0,-2.0,-2.0,-2.0,0.0
1702323643.1422462,1.0,-2.0,-1.0,-1.0,-2.0,-1.0,1.0,0.0
1702323643.1422462,-2.0,-1.0,-1.0,0.0,0.0,-2.0,-2.0,-2.0
1702323643.1422462,0.0,-1.0,0.0,0.0,-1.0,-2.0,-2.0,-1.0
1702323643.1422462,0.0,-1.0,-3.0,-3.0,-1.0,-3.0,-1.0,-1.0
1702323643.1422462,0.0,-1.0,-2.0,0.0,0.0,0.0,-1.0,-1.0
1702323643.1422462,-1.0,-1.0,-1.0,-1.0,-2.0,-1.0,-1.0,-1.0
1702323643.1626675,-2.0,0.0,-3.0,-1.0,-2.0,-1.0,0.0,0.0
1702323643.1626675,-3.0,-3.0,1.0,-1.0,-2.0,0.0,-1.0,1.0
1702323643.1626675,-2.0,0.0,-1.0,1.0,-1.0,0.0,-1.0,-2.0
1702323643.1722515,-2.0,-1.0,0.0,-1.0,-1.0,1.0,1.0,-1.0
1702323643.1822464,-1.0,1.0,-3.0,-1.0,-1.0,-1.0,-1.0,-3.0
1702323643.1822464,1.0,-3.0,-1.0,0.0,0.0,-2.0,1.0,0.0
1702323643.1922948,-2.0,0.0,-1.0,-2.0,0.0,-1.0,-2.0,-1.0
1702323643.1922948,-2.0,-1.0,-1.0,-1.0,-1.0,-1.0,-1.0,0.0
1702323643.2122462,-1.0,-1.0,1.0,-2.0,-2.0,-2.0,-1.0,-1.0
1702323643.2122462,0.0,0.0,0.0,0.0,-1.0,-1.0,-1.0,-2.0
1702323643.2122462,-1.0,-2.0,0.0,-3.0,-1.0,-2.0,1.0,0.0
1702323643.2122462,0.0,0.0,-1.0,-1.0,-2.0,-2.0,-2.0,0.0
1702323643.2226186,-2.0,-1.0,0.0,-1.0,-1.0,0.0,-1.0,0.0
1702323643.2226186,-2.0,0.0,-2.0,-2.0,-2.0,-2.0,0.0,0.0
1702323643.2226186,-1.0,-1.0,-1.0,0.0,0.0,-1.0,-1.0,-1.0
1702323643.2226186,-1.0,-1.0,-2.0,-2.0,0.0,0.0,-1.0,-2.0
1702323643.2426717,0.0,-1.0,0.0,-1.0,0.0,-1.0,-1.0,-2.0
1702323643.2426717,-1.0,-2.0,-2.0,-1.0,-1.0,1.0,0.0,-3.0
1702323643.252304,-2.0,0.0,-1.0,1.0,-2.0,-2.0,-2.0,0.0
1702323643.252304,0.0,0.0,-2.0,-2.0,0.0,-2.0,-1.0,-1.0
1702323643.2722461,-1.0,-2.0,-1.0,0.0,-2.0,0.0,-3.0,-2.0
1702323643.2722461,-1.0,-2.0,-2.0,-1.0,0.0,0.0,-3.0,0.0
1702323643.2722461,-1.0,-2.0,-2.0,0.0,0.0,0.0,-1.0,0.0
1702323643.2722461,0.0,0.0,-2.0,0.0,-1.0,0.0,0.0,-2.0
1702323643.282419,0.0,0.0,-1.0,-1.0,-1.0,0.0,0.0,0.0
1702323643.282419,-1.0,1.0,-1.0,-2.0,-1.0,-1.0,-1.0,0.0
1702323643.2922513,-1.0,-1.0,-2.0,-1.0,-2.0,-2.0,-1.0,0.0
1702323643.2922513,-1.0,-1.0,-4.0,0.0,0.0,-1.0,-1.0,-1.0
1702323643.302498,2.0,0.0,-1.0,-2.0,0.0,-1.0,-1.0,1.0
1702323643.302498,3.0,6.0,0.0,-2.0,0.0,-1.0,-1.0,-2.0
1702323643.312253,-3.0,-11.0,-2.0,-3.0,-3.0,0.0,-1.0,-4.0
1702323643.312253,-1.0,-3.0,0.0,0.0,-2.0,-1.0,1.0,0.0
1702323643.3422508,0.0,9.0,0.0,0.0,0.0,-1.0,-1.0,-1.0
1702323643.3422508,1.0,-3.0,0.0,-1.0,0.0,-2.0,-1.0,1.0
1702323643.3422508,4.0,10.0,0.0,0.0,1.0,0.0,0.0,0.0
1702323643.3422508,-11.0,-9.0,-2.0,1.0,-1.0,-1.0,-1.0,-3.0
1702323643.3422508,-1.0,-3.0,-1.0,-2.0,0.0,0.0,0.0,0.0
1702323643.3422508,-2.0,-2.0,-1.0,1.0,0.0,0.0,-1.0,-1.0
1702323643.3422508,3.0,24.0,-1.0,-1.0,0.0,0.0,-2.0,-2.0
1702323643.3422508,1.0,-18.0,-1.0,-1.0,-1.0,-1.0,-1.0,1.0
1702323643.3625305,-3.0,-4.0,0.0,0.0,0.0,1.0,-1.0,0.0
1702323643.3625305,-2.0,3.0,0.0,0.0,0.0,-1.0,1.0,-2.0
1702323643.372258,-4.0,-9.0,-1.0,-2.0,-2.0,-1.0,-2.0,-3.0
1702323643.372258,3.0,10.0,0.0,0.0,-2.0,-1.0,-2.0,-2.0
1702323643.402247,-4.0,-5.0,-1.0,-1.0,-1.0,-1.0,0.0,-1.0
1702323643.402247,0.0,6.0,0.0,-1.0,-1.0,0.0,-1.0,-1.0
1702323643.402247,-5.0,-21.0,-3.0,-2.0,-1.0,-1.0,-2.0,-1.0
1702323643.402247,3.0,12.0,1.0,-2.0,0.0,0.0,-2.0,-1.0
1702323643.402247,-3.0,-5.0,-2.0,-2.0,-2.0,-1.0,-1.0,-2.0
1702323643.402247,-3.0,-11.0,-2.0,-2.0,0.0,0.0,-3.0,-2.0
1702323643.402247,-2.0,2.0,4.0,1.0,-1.0,-1.0,-1.0,-1.0
1702323643.402247,5.0,-4.0,-9.0,-1.0,-1.0,0.0,0.0,0.0
1702323643.4225376,-11.0,-1.0,-1.0,1.0,-1.0,-3.0,-2.0,-2.0
1702323643.4225376,3.0,8.0,-1.0,-2.0,0.0,-2.0,-1.0,0.0
1702323643.4522462,-5.0,-14.0,-1.0,0.0,-1.0,-1.0,-1.0,0.0
1702323643.4522462,2.0,6.0,4.0,-1.0,1.0,-1.0,0.0,0.0
1702323643.4522462,1.0,-6.0,-3.0,1.0,-2.0,-1.0,0.0,0.0
1702323643.4522462,1.0,11.0,0.0,-2.0,0.0,-2.0,-2.0,1.0
1702323643.4522462,0.0,4.0,1.0,-2.0,-1.0,-2.0,-2.0,0.0
1702323643.4522462,-3.0,-1.0,-1.0,0.0,2.0,-2.0,-1.0,-4.0
1702323643.462247,1.0,5.0,0.0,-1.0,-1.0,0.0,0.0,0.0
1702323643.462247,-2.0,-13.0,0.0,-3.0,-2.0,-3.0,1.0,-2.0
1702323643.4722476,-4.0,2.0,-2.0,-2.0,-1.0,-2.0,0.0,-1.0
1702323643.4722476,-3.0,4.0,-1.0,1.0,-1.0,-1.0,-2.0,0.0
1702323643.482583,1.0,-2.0,-3.0,-1.0,-2.0,-2.0,-3.0,-2.0
1702323643.482583,-3.0,-8.0,-3.0,-1.0,-2.0,-1.0,-1.0,-1.0
1702323643.4922466,1.0,6.0,0.0,-1.0,0.0,0.0,-1.0,0.0
1702323643.4922466,0.0,-2.0,-1.0,-3.0,-2.0,-1.0,-1.0,-1.0
1702323643.5022812,-4.0,-7.0,-1.0,-2.0,-1.0,-1.0,-2.0,-3.0
1702323643.5022812,0.0,8.0,-1.0,0.0,-1.0,0.0,0.0,0.0
1702323643.5125065,-3.0,-4.0,-3.0,-1.0,-1.0,0.0,-2.0,-1.0
1702323643.5125065,-3.0,-6.0,0.0,0.0,1.0,0.0,-2.0,-1.0
1702323643.5309038,4.0,6.0,1.0,-2.0,1.0,-1.0,0.0,1.0
1702323643.5309038,-6.0,-7.0,-2.0,-1.0,-1.0,0.0,-2.0,3.0
1702323643.5329509,1.0,1.0,-2.0,-1.0,-1.0,-1.0,2.0,1.0
1702323643.5329509,-1.0,-8.0,-1.0,-1.0,-2.0,-1.0,-1.0,-2.0
1702323643.543946,1.0,-5.0,-2.0,-3.0,-1.0,-1.0,-1.0,-2.0
1702323643.5450075,-2.0,-2.0,-2.0,0.0,0.0,-1.0,0.0,1.0
1702323643.5775926,1.0,-6.0,1.0,1.0,-1.0,-1.0,-3.0,-2.0
1702323643.5775926,0.0,5.0,-3.0,-3.0,-2.0,-1.0,-3.0,-2.0
1702323643.5775926,3.0,6.0,6.0,1.0,-1.0,0.0,-2.0,0.0
1702323643.5775926,1.0,4.0,0.0,-2.0,-1.0,0.0,-2.0,-3.0
1702323643.5775926,-3.0,-14.0,-10.0,-3.0,-1.0,-1.0,-1.0,-1.0
1702323643.5775926,-1.0,0.0,-1.0,-1.0,-2.0,-2.0,-1.0,-1.0
1702323643.587865,-2.0,-4.0,-4.0,-1.0,0.0,0.0,-1.0,-1.0
1702323643.587865,-2.0,-3.0,6.0,0.0,-3.0,0.0,-1.0,-3.0
1702323643.587865,1.0,2.0,2.0,-3.0,0.0,-2.0,-2.0,0.0
1702323643.587865,0.0,0.0,0.0,3.0,-2.0,-1.0,-1.0,0.0
1702323643.6075969,-1.0,-3.0,-1.0,-1.0,-3.0,-1.0,1.0,-1.0
1702323643.6075969,-3.0,-1.0,-5.0,-1.0,-1.0,-2.0,-1.0,-1.0
1702323643.6075969,3.0,3.0,-3.0,-1.0,-2.0,-1.0,1.0,-1.0
1702323643.6075969,-1.0,-6.0,0.0,-3.0,-2.0,0.0,-4.0,0.0
1702323643.6276364,-5.0,2.0,0.0,0.0,-2.0,-2.0,-1.0,-1.0
1702323643.6276364,-2.0,-3.0,-4.0,-2.0,0.0,0.0,-1.0,-2.0
1702323643.637855,-2.0,0.0,-1.0,-1.0,0.0,0.0,0.0,-2.0
1702323643.637855,-2.0,1.0,0.0,-2.0,0.0,-1.0,1.0,-2.0
1702323643.6478481,-2.0,-2.0,-3.0,-1.0,-2.0,-1.0,-1.0,-2.0
1702323643.6478481,0.0,-5.0,-1.0,-2.0,-1.0,-1.0,-2.0,-2.0
1702323643.6478481,-2.0,-3.0,0.0,0.0,-1.0,0.0,-1.0,0.0
1702323643.6478481,-1.0,6.0,-1.0,-1.0,-2.0,-1.0,-2.0,-1.0
1702323643.6676426,2.0,-1.0,-2.0,-1.0,0.0,-1.0,-2.0,0.0
1702323643.6676426,-1.0,-4.0,-2.0,0.0,-1.0,-2.0,-2.0,-3.0
1702323643.6676426,1.0,4.0,-1.0,-1.0,1.0,0.0,-3.0,-1.0
1702323643.6676426,-2.0,-3.0,-3.0,-2.0,-1.0,-1.0,-2.0,-1.0
1702323643.6876493,-1.0,-2.0,-2.0,-3.0,0.0,-1.0,-1.0,1.0
1702323643.6876493,0.0,0.0,-1.0,0.0,1.0,-1.0,-2.0,0.0
1702323643.6876493,-5.0,-4.0,-2.0,-1.0,-1.0,-1.0,0.0,-3.0
1702323643.6876493,-1.0,-2.0,-2.0,-4.0,0.0,-1.0,0.0,0.0
1702323643.7081003,-1.0,0.0,-2.0,-2.0,-1.0,-1.0,-1.0,-1.0
1702323643.7081003,0.0,-3.0,-1.0,0.0,-1.0,-1.0,-1.0,0.0
1702323643.7081003,0.0,4.0,-1.0,-1.0,-2.0,-2.0,-2.0,-1.0
1702323643.7081003,-2.0,-2.0,-3.0,-1.0,-1.0,-2.0,-1.0,-2.0
1702323643.7377987,0.0,0.0,0.0,-2.0,0.0,-1.0,-1.0,-1.0
1702323643.7377987,-2.0,-3.0,-2.0,1.0,-3.0,1.0,0.0,0.0
1702323643.7377987,-1.0,-2.0,0.0,0.0,0.0,-1.0,-1.0,-1.0
1702323643.7377987,-1.0,-1.0,0.0,0.0,1.0,0.0,0.0,-1.0
1702323643.7377987,0.0,-1.0,-2.0,0.0,-1.0,-2.0,-1.0,0.0
1702323643.7377987,-1.0,-2.0,-3.0,-2.0,0.0,-1.0,-2.0,-2.0
1702323643.7478235,-1.0,-1.0,0.0,0.0,-2.0,-1.0,-1.0,-2.0
1702323643.7478235,-1.0,-2.0,-1.0,0.0,1.0,0.0,-1.0,-1.0
1702323643.7683904,-1.0,0.0,0.0,-1.0,-2.0,-1.0,-1.0,0.0
1702323643.7683904,-2.0,0.0,-1.0,0.0,0.0,1.0,0.0,-2.0
1702323643.7683904,0.0,0.0,-1.0,-1.0,-2.0,1.0,0.0,0.0
1702323643.7683904,-1.0,-2.0,0.0,-2.0,-3.0,-2.0,0.0,0.0
1702323643.7879086,-2.0,1.0,-3.0,-2.0,0.0,-2.0,0.0,-2.0
1702323643.7879086,-2.0,-1.0,-2.0,0.0,1.0,-2.0,0.0,-1.0
1702323643.7879086,0.0,0.0,0.0,-2.0,-2.0,-3.0,-2.0,0.0
1702323643.7879086,-2.0,-3.0,-3.0,0.0,-2.0,-2.0,-2.0,-1.0
1702323643.7981005,-1.0,-1.0,-1.0,-3.0,0.0,-1.0,-3.0,-1.0
1702323643.7981005,-2.0,0.0,-1.0,1.0,-2.0,-1.0,-2.0,-2.0
1702323643.807914,-1.0,-1.0,0.0,1.0,0.0,0.0,-1.0,-2.0
1702323643.807914,-1.0,0.0,0.0,0.0,-2.0,0.0,-1.0,-3.0
1702323643.8282053,-2.0,0.0,-2.0,0.0,-2.0,-1.0,-1.0,-1.0
1702323643.8282053,2.0,-1.0,-2.0,-4.0,-1.0,-1.0,-2.0,-1.0
1702323643.84791,0.0,0.0,-2.0,0.0,-1.0,-1.0,0.0,-1.0
1702323643.84791,-2.0,0.0,0.0,0.0,-1.0,-2.0,-3.0,-1.0
1702323643.8579066,-1.0,-1.0,-1.0,1.0,0.0,-1.0,0.0,-1.0
1702323643.8579066,-3.0,-3.0,1.0,-1.0,0.0,-2.0,1.0,0.0
1702323643.8579066,0.0,0.0,-2.0,-1.0,0.0,-1.0,0.0,-1.0
1702323643.8579066,-1.0,-1.0,0.0,-1.0,-1.0,-1.0,0.0,2.0
1702323643.8579066,1.0,-1.0,-1.0,-2.0,-2.0,0.0,-2.0,-3.0
1702323643.8579066,-2.0,-1.0,-1.0,4.0,-2.0,-2.0,-2.0,-1.0
1702323643.8679295,-1.0,-2.0,-2.0,-2.0,0.0,-2.0,0.0,-3.0
1702323643.8679295,-1.0,-1.0,-1.0,-2.0,-1.0,0.0,1.0,-1.0
1702323643.8979108,0.0,-2.0,0.0,-3.0,0.0,-2.0,0.0,0.0
1702323643.8979108,-1.0,-2.0,1.0,-4.0,-1.0,1.0,-1.0,-1.0
1702323643.907912,-1.0,-1.0,-1.0,1.0,1.0,-1.0,-1.0,0.0
1702323643.907912,-1.0,0.0,-1.0,-1.0,-1.0,0.0,-1.0,-1.0
1702323643.907912,-2.0,-3.0,-3.0,0.0,-1.0,-1.0,-1.0,-1.0
1702323643.907912,-1.0,0.0,-2.0,-2.0,0.0,-3.0,-1.0,0.0
1702323643.907912,-1.0,1.0,0.0,0.0,0.0,0.0,-2.0,0.0
1702323643.907912,-1.0,-1.0,-2.0,-1.0,-1.0,-1.0,-1.0,-3.0
1702323643.9182136,-1.0,-1.0,-1.0,1.0,-1.0,-2.0,0.0,-1.0
1702323643.9182136,0.0,0.0,-1.0,0.0,-2.0,0.0,-1.0,0.0
1702323643.9281597,-2.0,-2.0,-1.0,-4.0,0.0,0.0,0.0,-1.0
1702323643.9281597,0.0,-1.0,-2.0,0.0,0.0,-1.0,-2.0,0.0
1702323643.9479103,-1.0,-1.0,0.0,-2.0,-1.0,0.0,-1.0,-1.0
1702323643.9479103,-2.0,-2.0,-2.0,-2.0,-1.0,-2.0,-1.0,0.0
1702323643.9479103,-1.0,0.0,-1.0,-2.0,-3.0,-1.0,-1.0,0.0
1702323643.9479103,1.0,-1.0,2.0,1.0,-2.0,1.0,-2.0,-2.0
1702323643.9681337,-2.0,-1.0,-2.0,-1.0,0.0,2.0,-1.0,0.0
1702323643.9681337,-3.0,0.0,-2.0,-2.0,-1.0,0.0,-1.0,-1.0
1702323643.9681337,-2.0,-1.0,0.0,-2.0,0.0,-1.0,-2.0,-1.0
1702323643.9681337,0.0,0.0,-3.0,-2.0,-2.0,-1.0,-2.0,-1.0
1702323643.978119,-1.0,0.0,0.0,0.0,0.0,-1.0,-3.0,-2.0
1702323643.978119,1.0,-1.0,-3.0,-2.0,-2.0,-1.0,1.0,0.0
1702323643.9879231,-1.0,0.0,-2.0,-1.0,-1.0,-2.0,-1.0,-2.0
1702323643.9879231,0.0,-1.0,-1.0,-2.0,-1.0,-1.0,1.0,0.0
1702323644.017909,-2.0,-2.0,0.0,-2.0,0.0,-1.0,-1.0,-1.0
1702323644.017909,0.0,-3.0,0.0,-1.0,-1.0,-1.0,-2.0,-1.0
1702323644.017909,1.0,-2.0,-2.0,-2.0,0.0,0.0,0.0,-1.0
1702323644.017909,-2.0,-1.0,0.0,1.0,0.0,-3.0,0.0,0.0
1702323644.0279403,-1.0,-1.0,0.0,-2.0,-1.0,-2.0,-1.0,1.0
1702323644.0279403,-1.0,-2.0,0.0,0.0,-1.0,-2.0,0.0,-2.0
1702323644.0279403,0.0,0.0,0.0,-1.0,-2.0,1.0,0.0,-3.0
1702323644.0279403,-1.0,-1.0,-2.0,-2.0,-3.0,-2.0,-1.0,-2.0
1702323644.0556097,-2.0,0.0,0.0,1.0,-1.0,0.0,0.0,-1.0
1702323644.0556097,-1.0,-1.0,-2.0,-1.0,-2.0,-2.0,-3.0,-1.0
1702323644.0556097,-2.0,-1.0,-2.0,-1.0,-1.0,0.0,0.0,1.0
1702323644.0556097,-2.0,-1.0,-2.0,-1.0,-1.0,-2.0,-2.0,-1.0
1702323644.070408,0.0,-1.0,-1.0,0.0,-2.0,-2.0,0.0,-1.0
1702323644.070408,-1.0,-2.0,0.0,-2.0,-1.0,0.0,-2.0,-1.0
1702323644.071912,-2.0,0.0,-1.0,-2.0,-2.0,-4.0,-2.0,0.0
1702323644.071912,-1.0,-1.0,-1.0,-1.0,-2.0,-1.0,-1.0,-1.0
1702323644.0902262,-1.0,-2.0,-1.0,-1.0,-2.0,0.0,0.0,-2.0
1702323644.0902262,-1.0,-1.0,-1.0,-1.0,0.0,1.0,-2.0,-1.0
1702323644.0902262,-2.0,-1.0,-1.0,-1.0,-2.0,-2.0,-2.0,-2.0
1702323644.0902262,0.0,0.0,0.0,-1.0,-1.0,0.0,-1.0,1.0
1702323644.1102226,0.0,-2.0,-2.0,-2.0,-1.0,0.0,-1.0,0.0
1702323644.1102226,-1.0,-1.0,0.0,1.0,-2.0,-2.0,0.0,-1.0
1702323644.1102226,0.0,0.0,0.0,2.0,-1.0,1.0,-1.0,-2.0
1702323644.1102226,-2.0,-1.0,0.0,0.0,0.0,-1.0,-1.0,-2.0
1702323644.1302264,0.0,-1.0,-1.0,-1.0,-1.0,-1.0,0.0,-2.0
1702323644.1302264,-2.0,0.0,-1.0,-1.0,-1.0,0.0,-2.0,0.0
1702323644.1302264,0.0,-1.0,-1.0,0.0,-1.0,-2.0,-2.0,0.0
1702323644.1302264,-1.0,-3.0,-1.0,1.0,1.0,-1.0,0.0,-2.0
1702323644.150587,-1.0,-1.0,0.0,-2.0,1.0,0.0,0.0,-1.0
1702323644.150587,1.0,-1.0,-1.0,-2.0,-1.0,-2.0,1.0,-1.0
1702323644.150587,-1.0,-3.0,1.0,-2.0,0.0,-2.0,0.0,-1.0
1702323644.150587,1.0,-1.0,-1.0,-1.0,-3.0,0.0,0.0,-2.0
1702323644.1702237,-3.0,-2.0,0.0,-1.0,-2.0,-2.0,-3.0,-3.0
1702323644.1702237,-1.0,-1.0,-2.0,-1.0,-2.0,-1.0,-1.0,-2.0
1702323644.1702237,-1.0,-1.0,0.0,-1.0,0.0,-1.0,-1.0,-2.0
1702323644.1702237,-1.0,-2.0,0.0,0.0,0.0,-1.0,-2.0,-1.0
1702323644.1886826,-1.0,0.0,-3.0,0.0,-1.0,-2.0,-2.0,0.0
1702323644.1886826,-1.0,0.0,-1.0,-1.0,-1.0,0.0,-1.0,1.0
1702323644.1886826,-2.0,-1.0,-2.0,-2.0,-1.0,-2.0,1.0,-1.0
1702323644.1886826,-1.0,-3.0,-2.0,0.0,0.0,0.0,0.0,0.0
1702323644.208287,0.0,-1.0,1.0,-2.0,-1.0,-1.0,-2.0,-1.0
1702323644.208287,-2.0,0.0,0.0,-1.0,-2.0,-1.0,-2.0,-1.0
1702323644.208287,-1.0,-1.0,-2.0,-1.0,-1.0,-2.0,-2.0,-2.0
1702323644.208287,0.0,0.0,-1.0,0.0,1.0,-1.0,-1.0,-1.0
1702323644.2282856,0.0,-1.0,-1.0,-2.0,-1.0,-2.0,-1.0,-2.0
1702323644.2282856,-2.0,-2.0,0.0,-1.0,-2.0,-1.0,-1.0,-2.0
1702323644.2282856,-3.0,-1.0,-1.0,-1.0,-1.0,1.0,-2.0,-1.0
1702323644.2282856,-1.0,-1.0,-1.0,-1.0,0.0,0.0,1.0,-1.0
1702323644.2486289,-1.0,-1.0,1.0,5.0,1.0,0.0,-2.0,0.0
1702323644.2486289,-1.0,0.0,0.0,0.0,0.0,-1.0,0.0,-3.0
1702323644.2486289,0.0,0.0,-3.0,-2.0,-1.0,-2.0,0.0,-1.0
1702323644.2486289,-1.0,0.0,-2.0,-4.0,-3.0,-1.0,0.0,0.0
1702323644.2782855,-1.0,-2.0,-4.0,-5.0,-2.0,-3.0,-2.0,-1.0
1702323644.2782855,-1.0,-1.0,0.0,-1.0,0.0,-1.0,-3.0,-1.0
1702323644.2782855,-2.0,-2.0,-2.0,0.0,-2.0,-1.0,-2.0,0.0
1702323644.2782855,1.0,-1.0,-2.0,-2.0,-1.0,-1.0,-2.0,-1.0
1702323644.2782855,0.0,0.0,0.0,-2.0,-3.0,-2.0,-1.0,0.0
1702323644.2782855,-1.0,0.0,0.0,0.0,-2.0,-2.0,0.0,0.0
1702323644.2886155,1.0,-1.0,0.0,0.0,1.0,-1.0,1.0,-1.0
1702323644.2886155,-2.0,-4.0,-2.0,-1.0,-1.0,0.0,-1.0,-1.0
1702323644.308638,-2.0,0.0,-1.0,0.0,0.0,0.0,0.0,-1.0
1702323644.308638,-1.0,-1.0,-3.0,0.0,0.0,0.0,1.0,-4.0
1702323644.308638,0.0,3.0,-2.0,-4.0,-2.0,0.0,-1.0,-3.0
1702323644.308638,-2.0,1.0,0.0,1.0,-1.0,-3.0,0.0,-1.0
1702323644.3382852,-2.0,-2.0,0.0,-1.0,-1.0,-1.0,0.0,0.0
1702323644.3382852,0.0,-3.0,-1.0,-1.0,-2.0,0.0,0.0,1.0
1702323644.3382852,0.0,-2.0,-1.0,-1.0,-1.0,1.0,0.0,0.0
1702323644.3382852,-2.0,-1.0,0.0,-1.0,-1.0,-2.0,-1.0,-2.0
1702323644.3382852,0.0,-1.0,-1.0,-1.0,-1.0,0.0,0.0,1.0
1702323644.3382852,-1.0,-2.0,-1.0,-1.0,-1.0,-1.0,-1.0,0.0
1702323644.3485055,0.0,-1.0,-1.0,-3.0,0.0,-1.0,-2.0,-1.0
1702323644.3485055,-2.0,-2.0,0.0,-2.0,-2.0,-2.0,-1.0,-2.0
1702323644.3685632,-2.0,-1.0,-2.0,-1.0,-2.0,-3.0,-4.0,-2.0
1702323644.3685632,-2.0,0.0,-2.0,-1.0,3.0,0.0,0.0,1.0
1702323644.3685632,-2.0,-1.0,0.0,2.0,0.0,0.0,-1.0,0.0
1702323644.3685632,1.0,0.0,-1.0,-1.0,-1.0,0.0,1.0,0.0
1702323644.418285,-3.0,-1.0,-1.0,-1.0,-3.0,-1.0,-1.0,-2.0
1702323644.418285,0.0,-1.0,-2.0,-3.0,-4.0,0.0,-2.0,0.0
1702323644.418285,-1.0,-3.0,-1.0,-2.0,-2.0,-2.0,-1.0,-2.0
1702323644.418285,-2.0,0.0,0.0,-1.0,-3.0,-3.0,-2.0,-1.0
1702323644.418285,0.0,-1.0,-3.0,-2.0,0.0,0.0,1.0,-1.0
1702323644.418285,0.0,0.0,0.0,0.0,0.0,-1.0,-1.0,-2.0
1702323644.418285,-1.0,0.0,1.0,1.0,1.0,-1.0,0.0,1.0
1702323644.418285,-1.0,-3.0,-1.0,-1.0,-2.0,0.0,-2.0,-1.0
1702323644.4285243,-1.0,-2.0,-2.0,-3.0,-1.0,0.0,0.0,-2.0
1702323644.4285243,-2.0,-1.0,-1.0,-1.0,1.0,1.0,-2.0,-2.0
1702323644.4382863,-1.0,-1.0,-1.0,-1.0,-2.0,-2.0,-2.0,-2.0
1702323644.4382863,-1.0,-1.0,-2.0,0.0,-1.0,-1.0,0.0,-1.0
1702323644.4482837,0.0,-1.0,-1.0,-3.0,0.0,-1.0,-1.0,0.0
1702323644.4482837,0.0,-2.0,-1.0,0.0,-1.0,-1.0,0.0,-1.0
1702323644.4482837,1.0,0.0,-4.0,-1.0,-2.0,0.0,0.0,0.0
1702323644.4482837,-2.0,-2.0,-2.0,0.0,0.0,1.0,0.0,1.0
1702323644.4586663,-2.0,-3.0,1.0,0.0,-2.0,-1.0,-1.0,-3.0
1702323644.4586663,-3.0,0.0,-1.0,-1.0,-2.0,-1.0,0.0,-1.0
1702323644.4686217,-2.0,-2.0,-1.0,-2.0,-1.0,-1.0,-3.0,-1.0
1702323644.4686217,-2.0,-1.0,-1.0,-2.0,-1.0,0.0,-1.0,-1.0
1702323644.4887178,0.0,0.0,0.0,0.0,-1.0,0.0,0.0,0.0
1702323644.4887178,0.0,-1.0,-1.0,-1.0,-3.0,-2.0,0.0,-1.0
1702323644.4982865,-2.0,0.0,1.0,-1.0,-3.0,0.0,0.0,-1.0
1702323644.4982865,0.0,-2.0,-2.0,-2.0,-1.0,-4.0,-2.0,-1.0
1702323644.5083184,-2.0,-2.0,-1.0,-1.0,-1.0,0.0,-2.0,-1.0
1702323644.5083184,-1.0,0.0,1.0,3.0,-1.0,-2.0,-2.0,-1.0
1702323644.5083184,0.0,-2.0,-1.0,0.0,-1.0,0.0,-1.0,-1.0
1702323644.5083184,-1.0,0.0,0.0,1.0,0.0,-1.0,-2.0,-4.0
1702323644.5185833,-2.0,-3.0,-2.0,-2.0,0.0,0.0,0.0,-2.0
1702323644.5185833,-2.0,-3.0,-3.0,-2.0,-1.0,-1.0,-1.0,-1.0
1702323644.5285401,0.0,1.0,-1.0,-2.0,-1.0,-2.0,-2.0,0.0
1702323644.5285401,-2.0,-1.0,-3.0,-3.0,-1.0,0.0,-1.0,-1.0
1702323644.5485451,1.0,3.0,0.0,-1.0,-2.0,-2.0,0.0,-1.0
1702323644.5485451,-1.0,-7.0,-1.0,-1.0,0.0,0.0,-1.0,-2.0
1702323644.5582852,0.0,0.0,0.0,0.0,-2.0,0.0,0.0,-1.0
1702323644.5582852,1.0,-2.0,-1.0,-2.0,-2.0,-2.0,-1.0,0.0
1702323644.5682838,0.0,1.0,-1.0,2.0,0.0,-1.0,0.0,-2.0
1702323644.5682838,0.0,-2.0,-2.0,-2.0,-1.0,-2.0,0.0,-3.0
1702323644.5682838,-1.0,-3.0,-1.0,-1.0,0.0,-1.0,1.0,-2.0
1702323644.5682838,-2.0,0.0,-1.0,-1.0,-2.0,0.0,-2.0,0.0
1702323644.5998147,-1.0,0.0,2.0,2.0,0.0,-1.0,-1.0,0.0
1702323644.5998147,-1.0,-2.0,0.0,-1.0,-3.0,-1.0,-3.0,-2.0
1702323644.5998147,-2.0,-2.0,-2.0,0.0,0.0,-1.0,-1.0,-2.0
1702323644.5998147,-2.0,6.0,-1.0,-1.0,-1.0,-1.0,-1.0,-1.0
1702323644.609491,1.0,-1.0,-2.0,-2.0,0.0,-1.0,-1.0,0.0
1702323644.609491,-7.0,4.0,0.0,0.0,0.0,-2.0,0.0,-1.0
1702323644.6251733,1.0,-3.0,-3.0,-2.0,-1.0,-1.0,-2.0,-1.0
1702323644.6251733,0.0,-4.0,0.0,0.0,0.0,-1.0,-1.0,-1.0
1702323644.6401186,0.0,0.0,-3.0,-1.0,-1.0,0.0,-2.0,-1.0
1702323644.6401186,0.0,1.0,-2.0,-2.0,-1.0,-1.0,0.0,0.0
1702323644.6401186,-2.0,-4.0,0.0,0.0,-2.0,0.0,0.0,0.0
1702323644.6401186,0.0,4.0,-1.0,-1.0,-1.0,-2.0,0.0,0.0
1702323644.6500418,-4.0,-10.0,-2.0,-1.0,0.0,-1.0,-1.0,-1.0
1702323644.6500418,0.0,1.0,-1.0,-3.0,-1.0,0.0,-1.0,-1.0
1702323644.6500418,-2.0,8.0,0.0,2.0,-2.0,-1.0,-1.0,-1.0
1702323644.6500418,-2.0,-12.0,-1.0,-2.0,0.0,-2.0,0.0,-3.0
1702323644.6696897,-1.0,0.0,-1.0,0.0,-1.0,-2.0,0.0,-1.0
1702323644.6696897,-3.0,-4.0,0.0,0.0,-1.0,0.0,-1.0,1.0
1702323644.6696897,6.0,-6.0,-1.0,-1.0,0.0,-2.0,-1.0,-1.0
1702323644.6696897,-9.0,10.0,-3.0,-2.0,-2.0,-1.0,-2.0,-1.0
1702323644.6894646,-7.0,-2.0,2.0,0.0,-2.0,-2.0,0.0,-1.0
1702323644.6894646,1.0,-7.0,-2.0,-2.0,-1.0,-1.0,1.0,-1.0
1702323644.6894646,-3.0,16.0,-1.0,0.0,0.0,-1.0,-1.0,0.0
1702323644.6894646,0.0,0.0,0.0,-2.0,0.0,-1.0,-2.0,-2.0
1702323644.709446,3.0,10.0,-6.0,-1.0,-1.0,-1.0,-1.0,-1.0
1702323644.709446,-6.0,-2.0,7.0,0.0,0.0,-1.0,-2.0,-1.0
1702323644.709446,8.0,2.0,14.0,1.0,-2.0,-3.0,0.0,0.0
1702323644.709446,-14.0,-10.0,-1.0,-3.0,-1.0,-1.0,-2.0,-2.0
1702323644.7290857,-5.0,8.0,1.0,0.0,-2.0,-1.0,-1.0,-1.0
1702323644.7290857,-1.0,-17.0,-6.0,-2.0,-2.0,-1.0,-1.0,-2.0
1702323644.7290857,-6.0,-12.0,8.0,0.0,0.0,-1.0,0.0,0.0
1702323644.7290857,16.0,19.0,-3.0,1.0,0.0,0.0,-1.0,2.0
1702323644.7494066,-10.0,-27.0,-23.0,-4.0,-4.0,0.0,-1.0,0.0
1702323644.7494066,0.0,12.0,-4.0,-1.0,-1.0,-1.0,-2.0,-1.0
1702323644.7494066,-4.0,-9.0,-5.0,-2.0,0.0,0.0,0.0,-1.0
1702323644.7494066,1.0,0.0,1.0,0.0,0.0,-1.0,-1.0,1.0
1702323644.7790864,2.0,2.0,9.0,-1.0,0.0,-1.0,-1.0,-1.0
1702323644.7790864,4.0,19.0,0.0,0.0,0.0,-1.0,-2.0,0.0
1702323644.7790864,-5.0,-2.0,-5.0,-2.0,-2.0,-1.0,-3.0,-2.0
1702323644.7790864,2.0,4.0,0.0,-4.0,-2.0,0.0,0.0,-2.0
1702323644.7891538,0.0,0.0,2.0,1.0,-1.0,0.0,-2.0,-3.0
1702323644.7891538,-6.0,-35.0,3.0,0.0,-1.0,-2.0,-1.0,-1.0
1702323644.7891538,-5.0,-2.0,-2.0,0.0,0.0,-2.0,-2.0,-2.0
1702323644.7891538,2.0,-6.0,-2.0,-2.0,0.0,-1.0,-1.0,-2.0
1702323644.8094335,-1.0,-5.0,2.0,-3.0,-1.0,-3.0,-2.0,0.0
1702323644.8094335,-3.0,5.0,-2.0,-2.0,-1.0,-2.0,-1.0,-3.0
1702323644.8094335,-1.0,-2.0,-6.0,0.0,0.0,1.0,-1.0,-1.0
1702323644.8094335,1.0,-11.0,-3.0,0.0,-1.0,0.0,0.0,-1.0
1702323644.8291974,-1.0,8.0,3.0,-1.0,1.0,-1.0,0.0,1.0
1702323644.8291974,0.0,0.0,-2.0,-1.0,-2.0,-2.0,0.0,-1.0
1702323644.8291974,-2.0,3.0,-5.0,-2.0,-1.0,0.0,0.0,1.0
1702323644.8291974,-1.0,0.0,3.0,0.0,-1.0,1.0,-1.0,-1.0
1702323644.8491423,3.0,2.0,0.0,-1.0,-2.0,-3.0,-2.0,1.0
1702323644.8491423,0.0,0.0,-4.0,-1.0,-1.0,-1.0,-2.0,0.0
1702323644.8491423,-2.0,-5.0,-10.0,-2.0,-1.0,-3.0,0.0,0.0
1702323644.8491423,-1.0,-2.0,5.0,1.0,-1.0,0.0,-2.0,-1.0
1702323644.869487,-1.0,-3.0,2.0,1.0,-1.0,-2.0,0.0,-1.0
1702323644.869487,-2.0,1.0,-1.0,-1.0,0.0,0.0,-1.0,0.0
1702323644.869487,-2.0,1.0,-1.0,-1.0,-1.0,-1.0,-3.0,-1.0
1702323644.869487,-2.0,-3.0,-4.0,0.0,-1.0,-1.0,1.0,-2.0
1702323644.889482,0.0,-4.0,-3.0,-1.0,-1.0,0.0,-3.0,-3.0
1702323644.889482,1.0,4.0,2.0,-2.0,-1.0,-1.0,0.0,0.0
1702323644.889482,0.0,-1.0,-3.0,-1.0,0.0,0.0,0.0,-2.0
1702323644.889482,-2.0,-4.0,-2.0,-3.0,0.0,-1.0,-2.0,-1.0
1702323644.9091744,-1.0,-1.0,1.0,-2.0,-1.0,1.0,-2.0,-1.0
1702323644.9091744,0.0,3.0,-2.0,-2.0,-1.0,-1.0,-2.0,0.0
1702323644.9091744,-1.0,0.0,0.0,-1.0,-2.0,0.0,0.0,-2.0
1702323644.9091744,-3.0,-7.0,0.0,0.0,-1.0,-1.0,-1.0,-2.0
1702323644.9291828,0.0,5.0,-1.0,-2.0,-1.0,0.0,-1.0,-2.0
1702323644.9291828,-1.0,-1.0,-4.0,-2.0,0.0,-1.0,-1.0,0.0
1702323644.9291828,-1.0,2.0,-1.0,-1.0,-1.0,-1.0,-1.0,-1.0
1702323644.9291828,-2.0,-15.0,-3.0,1.0,0.0,-1.0,0.0,0.0
1702323644.9692118,0.0,12.0,-3.0,-3.0,-1.0,-1.0,-1.0,0.0
1702323644.9692118,0.0,-9.0,-2.0,0.0,-2.0,-1.0,0.0,-1.0
1702323644.9692118,-1.0,-2.0,-1.0,-1.0,0.0,-1.0,-2.0,0.0
1702323644.9692118,-2.0,2.0,-1.0,-2.0,-4.0,-2.0,-2.0,0.0
1702323644.9692118,-3.0,-6.0,-1.0,-2.0,0.0,0.0,0.0,1.0
1702323644.9692118,-2.0,3.0,-1.0,-1.0,-2.0,1.0,-1.0,-2.0
1702323644.9692118,1.0,0.0,0.0,-1.0,-2.0,0.0,-2.0,-1.0
1702323644.9692118,2.0,3.0,0.0,-2.0,-1.0,0.0,-1.0,-1.0
1702323644.9895308,-2.0,-7.0,1.0,0.0,-2.0,0.0,0.0,-1.0
1702323644.9895308,0.0,24.0,2.0,0.0,0.0,0.0,-1.0,-1.0
1702323644.9895308,-6.0,-24.0,-1.0,0.0,-3.0,-1.0,-2.0,-3.0
1702323644.9895308,1.0,7.0,0.0,0.0,-1.0,-2.0,-1.0,0.0
1702323645.0192115,-6.0,-6.0,0.0,-1.0,-2.0,-1.0,-1.0,-3.0
1702323645.0192115,-1.0,-4.0,0.0,-2.0,0.0,0.0,-1.0,-2.0
1702323645.0192115,1.0,4.0,-1.0,-1.0,0.0,0.0,-1.0,0.0
1702323645.0192115,-1.0,2.0,-2.0,0.0,-1.0,-1.0,-1.0,0.0
1702323645.0293026,0.0,-1.0,0.0,-1.0,0.0,-1.0,-1.0,-2.0
1702323645.0293026,0.0,-1.0,-1.0,0.0,-2.0,-2.0,1.0,0.0
1702323645.0392385,-1.0,0.0,-2.0,-3.0,-1.0,-1.0,-3.0,-1.0
1702323645.0392385,-2.0,-5.0,0.0,-1.0,-1.0,-4.0,-2.0,0.0
1702323645.049476,-1.0,-2.0,-2.0,0.0,0.0,-2.0,-2.0,-1.0
1702323645.049476,0.0,-1.0,0.0,0.0,1.0,-2.0,-1.0,-2.0
1702323645.049476,1.0,5.0,1.0,-2.0,-1.0,0.0,1.0,-2.0
1702323645.049476,-2.0,0.0,-1.0,0.0,-2.0,0.0,0.0,-3.0
1702323645.069435,1.0,0.0,-2.0,0.0,-1.0,-1.0,0.0,-2.0
1702323645.069435,-2.0,-7.0,-2.0,1.0,-1.0,0.0,0.0,-1.0
1702323645.069435,-2.0,1.0,-1.0,-1.0,-1.0,-1.0,-3.0,-1.0
1702323645.069435,-2.0,0.0,-1.0,1.0,1.0,-1.0,-1.0,-1.0
1702323645.1116872,-1.0,-4.0,0.0,-2.0,-1.0,-1.0,-3.0,-3.0
1702323645.1116872,-1.0,-4.0,-2.0,-2.0,-2.0,-2.0,-2.0,0.0
1702323645.1116872,-2.0,1.0,-4.0,-2.0,-1.0,-1.0,0.0,-1.0
1702323645.1116872,-1.0,-5.0,-1.0,2.0,0.0,0.0,-1.0,1.0
1702323645.1196883,3.0,15.0,0.0,0.0,0.0,0.0,-1.0,0.0
1702323645.1196883,1.0,-6.0,-3.0,1.0,0.0,0.0,0.0,-1.0
1702323645.1196883,-3.0,1.0,-1.0,-2.0,-1.0,-1.0,0.0,-1.0
1702323645.1196883,-1.0,-2.0,-2.0,-3.0,-2.0,1.0,-2.0,-2.0
1702323645.1292815,-2.0,-5.0,-4.0,0.0,-1.0,0.0,-1.0,0.0
1702323645.1292815,-1.0,1.0,-1.0,-2.0,-2.0,0.0,-1.0,1.0
1702323645.1292815,0.0,0.0,-1.0,0.0,-1.0,-1.0,-2.0,-2.0
1702323645.1292815,-1.0,-1.0,-2.0,-2.0,-1.0,-1.0,0.0,-1.0
1702323645.1492832,-1.0,-3.0,-1.0,-1.0,-1.0,-1.0,0.0,0.0
1702323645.1492832,0.0,1.0,-2.0,-2.0,0.0,-1.0,-1.0,-2.0
1702323645.1492832,-1.0,-2.0,1.0,0.0,-1.0,-3.0,-1.0,-1.0
1702323645.1492832,-2.0,2.0,-1.0,-1.0,-1.0,1.0,-2.0,-2.0
1702323645.189277,1.0,-1.0,0.0,-3.0,-1.0,-2.0,-1.0,1.0
1702323645.189277,-2.0,-4.0,-2.0,-1.0,-1.0,-2.0,-1.0,-1.0
1702323645.189277,1.0,0.0,-3.0,0.0,-1.0,-2.0,0.0,0.0
1702323645.189277,-1.0,6.0,-2.0,-2.0,-1.0,0.0,-1.0,-1.0
1702323645.189277,-4.0,-4.0,-1.0,0.0,-1.0,0.0,-2.0,-3.0
1702323645.189277,2.0,1.0,1.0,-2.0,-1.0,-2.0,0.0,-1.0
1702323645.189277,0.0,7.0,0.0,-4.0,0.0,-2.0,-1.0,-1.0
1702323645.189277,-2.0,-5.0,-3.0,0.0,-1.0,-2.0,0.0,-2.0
1702323645.2092824,-7.0,-22.0,-4.0,0.0,-1.0,-3.0,1.0,-2.0
1702323645.2092824,-1.0,3.0,1.0,0.0,-1.0,-2.0,-1.0,0.0
1702323645.2392771,-3.0,-4.0,0.0,1.0,-1.0,-1.0,0.0,-2.0
1702323645.2392771,0.0,5.0,0.0,-4.0,0.0,-1.0,-1.0,-1.0
1702323645.2392771,0.0,4.0,1.0,0.0,-1.0,1.0,1.0,1.0
1702323645.2392771,-4.0,-6.0,-2.0,0.0,-1.0,0.0,-1.0,-1.0
1702323645.2392771,-2.0,-3.0,0.0,-2.0,-1.0,1.0,0.0,0.0
1702323645.2392771,0.0,4.0,1.0,1.0,-1.0,-1.0,-2.0,-1.0
1702323645.2496555,1.0,1.0,3.0,-2.0,-1.0,0.0,-1.0,-2.0
1702323645.2496555,-4.0,0.0,2.0,-1.0,-3.0,1.0,-1.0,-4.0
1702323645.2496555,0.0,-6.0,-15.0,0.0,-2.0,0.0,0.0,-3.0
1702323645.2496555,-3.0,-4.0,-1.0,0.0,-2.0,0.0,-1.0,-2.0
1702323645.2692819,3.0,2.0,0.0,-2.0,-2.0,-3.0,-2.0,-1.0
1702323645.2692819,-2.0,0.0,4.0,-1.0,0.0,-1.0,-2.0,1.0
1702323645.2792788,1.0,1.0,0.0,0.0,-2.0,-1.0,-1.0,0.0
1702323645.2792788,-2.0,-9.0,-2.0,-2.0,-1.0,-2.0,1.0,0.0
1702323645.289312,0.0,20.0,-2.0,-5.0,0.0,-2.0,-1.0,-1.0
1702323645.289312,-1.0,-16.0,-3.0,1.0,0.0,-2.0,-1.0,-1.0
1702323645.289312,-1.0,1.0,2.0,-1.0,-2.0,-1.0,-1.0,-1.0
1702323645.289312,0.0,-6.0,-3.0,-1.0,-1.0,-1.0,-1.0,-1.0
1702323645.309621,-6.0,-9.0,-1.0,-1.0,1.0,-1.0,-2.0,-2.0
1702323645.309621,2.0,19.0,-1.0,-3.0,-1.0,-1.0,0.0,-1.0
1702323645.309621,-6.0,-17.0,-1.0,0.0,-1.0,-3.0,0.0,-1.0
1702323645.309621,0.0,3.0,2.0,-2.0,-2.0,-2.0,-2.0,-2.0
1702323645.3192801,0.0,-4.0,-3.0,0.0,-3.0,1.0,-1.0,-2.0
1702323645.3192801,1.0,1.0,-2.0,0.0,0.0,0.0,-1.0,0.0
1702323645.3392808,-3.0,1.0,2.0,0.0,-1.0,0.0,-2.0,-1.0
1702323645.3392808,-2.0,-4.0,-1.0,0.0,-1.0,-1.0,-1.0,0.0
1702323645.3493295,-1.0,0.0,-2.0,-2.0,0.0,-2.0,0.0,-1.0
1702323645.3493295,-4.0,-6.0,-2.0,-2.0,-1.0,-2.0,-3.0,-1.0
1702323645.3592834,4.0,3.0,4.0,-1.0,0.0,1.0,0.0,0.0
1702323645.3592834,0.0,1.0,-2.0,0.0,-1.0,0.0,-1.0,-1.0
1702323645.3695698,0.0,-2.0,0.0,0.0,-2.0,-1.0,-1.0,-1.0
1702323645.3695698,-1.0,-1.0,-3.0,-3.0,-2.0,-1.0,-2.0,-1.0
1702323645.3695698,-1.0,5.0,-1.0,-2.0,0.0,0.0,0.0,-2.0
1702323645.3695698,-3.0,2.0,3.0,-1.0,-3.0,-1.0,-1.0,-1.0
1702323645.3892837,1.0,-3.0,-3.0,-1.0,-2.0,-1.0,1.0,-1.0
1702323645.3892837,-3.0,-3.0,-5.0,-3.0,-1.0,-1.0,0.0,-1.0
1702323645.40934,2.0,1.0,-2.0,0.0,1.0,-2.0,-2.0,-1.0
1702323645.40934,-3.0,-4.0,-2.0,0.0,-2.0,-1.0,0.0,-1.0
1702323645.40934,1.0,2.0,2.0,2.0,-1.0,-1.0,-1.0,-3.0
1702323645.40934,0.0,1.0,0.0,1.0,-1.0,-1.0,-2.0,0.0
1702323645.40934,0.0,0.0,-2.0,-4.0,-1.0,-1.0,-1.0,-2.0
1702323645.40934,-1.0,-2.0,1.0,1.0,0.0,0.0,-2.0,-1.0
1702323645.4296696,-1.0,-2.0,1.0,-2.0,0.0,-1.0,-1.0,0.0
1702323645.4296696,2.0,0.0,-17.0,-3.0,-1.0,-1.0,-1.0,0.0
1702323645.4296696,-1.0,-1.0,0.0,0.0,-1.0,-2.0,0.0,-2.0
1702323645.4296696,-1.0,-3.0,6.0,-1.0,0.0,-2.0,-1.0,0.0
1702323645.4493594,-1.0,4.0,3.0,-2.0,-2.0,1.0,0.0,0.0
1702323645.4493594,-1.0,1.0,3.0,0.0,0.0,-1.0,-1.0,-1.0
1702323645.459355,-2.0,-3.0,-4.0,-2.0,-1.0,-1.0,-2.0,1.0
1702323645.459355,0.0,-2.0,-6.0,-1.0,-2.0,-1.0,-1.0,-1.0
1702323645.4694047,1.0,-1.0,2.0,2.0,-1.0,-1.0,0.0,1.0
1702323645.4694047,-1.0,-6.0,-3.0,0.0,-2.0,-2.0,-1.0,-1.0
1702323645.4694047,-1.0,2.0,-2.0,0.0,-2.0,-1.0,0.0,0.0
1702323645.479404,-1.0,2.0,-3.0,-1.0,-1.0,0.0,-1.0,-2.0
1702323645.4897754,-4.0,-3.0,-3.0,-1.0,-1.0,-1.0,-1.0,-2.0
1702323645.4897754,-1.0,-3.0,2.0,0.0,-1.0,-2.0,-2.0,-1.0
1702323645.5093546,-2.0,-1.0,0.0,-1.0,0.0,-1.0,-1.0,-1.0
1702323645.5093546,-1.0,-1.0,-2.0,-2.0,-1.0,-1.0,-1.0,0.0
1702323645.5093546,2.0,6.0,-1.0,-1.0,-2.0,-1.0,-1.0,-1.0
1702323645.5093546,-2.0,-12.0,4.0,-1.0,-1.0,-2.0,0.0,-1.0
1702323645.519501,-2.0,-4.0,-11.0,-1.0,-1.0,-2.0,-2.0,-1.0
1702323645.519501,-1.0,3.0,-3.0,-2.0,-1.0,-1.0,-2.0,-1.0
1702323645.529665,-1.0,-1.0,-2.0,0.0,0.0,0.0,-2.0,-1.0
1702323645.529665,-1.0,6.0,5.0,1.0,0.0,-1.0,0.0,-1.0
1702323645.539395,0.0,0.0,3.0,0.0,0.0,-2.0,-1.0,-1.0
1702323645.539395,0.0,-1.0,-3.0,-2.0,-2.0,-2.0,0.0,-3.0
1702323645.5496655,-1.0,-4.0,-3.0,-1.0,-1.0,-1.0,-1.0,-1.0
1702323645.5496655,-1.0,0.0,-1.0,-1.0,-1.0,-2.0,0.0,0.0
1702323645.5496655,-2.0,-1.0,0.0,-2.0,0.0,-1.0,-1.0,0.0
1702323645.5496655,-1.0,0.0,-2.0,-2.0,0.0,-1.0,-1.0,1.0
1702323645.5795703,-4.0,-4.0,1.0,-2.0,-1.0,-2.0,-2.0,-1.0
1702323645.5795703,-2.0,-1.0,-1.0,0.0,0.0,0.0,-2.0,-2.0
1702323645.5795703,-1.0,-1.0,1.0,0.0,-2.0,0.0,0.0,-2.0
1702323645.5795703,-1.0,-4.0,-1.0,1.0,0.0,-1.0,0.0,0.0
1702323645.589656,-1.0,-2.0,-1.0,0.0,-2.0,-1.0,-2.0,-1.0
1702323645.589656,1.0,-1.0,-3.0,-3.0,1.0,0.0,-2.0,-1.0
1702323645.5997899,-2.0,1.0,1.0,2.0,-2.0,-1.0,-1.0,-2.0
1702323645.5997899,-3.0,-1.0,-2.0,-1.0,-1.0,-1.0,-1.0,-1.0
1702323645.6099064,0.0,-1.0,-2.0,-2.0,-1.0,-1.0,-2.0,0.0
1702323645.6099064,-3.0,1.0,-2.0,-1.0,0.0,-1.0,-2.0,-1.0
1702323645.6099064,-1.0,-1.0,0.0,0.0,0.0,-1.0,-1.0,-3.0
1702323645.6099064,0.0,-2.0,-2.0,0.0,0.0,1.0,-1.0,-1.0
1702323645.647195,-3.0,-2.0,-3.0,-2.0,-1.0,0.0,-2.0,-1.0
1702323645.647195,-1.0,-1.0,0.0,-2.0,-2.0,-1.0,-1.0,-1.0
1702323645.647195,-2.0,-2.0,-1.0,-2.0,-1.0,1.0,-3.0,-1.0
1702323645.647195,1.0,0.0,-2.0,-2.0,-1.0,-1.0,-1.0,-2.0
1702323645.6512337,-1.0,-3.0,-1.0,-1.0,0.0,0.0,-2.0,-2.0
1702323645.6512337,-1.0,0.0,0.0,-1.0,-3.0,-1.0,-1.0,-2.0
1702323645.660874,-1.0,-2.0,-1.0,-2.0,-2.0,-1.0,-1.0,-1.0
1702323645.660874,-2.0,-1.0,4.0,0.0,-1.0,-1.0,-2.0,0.0
1702323645.672234,-2.0,-5.0,-11.0,-2.0,-1.0,-1.0,-2.0,1.0
1702323645.672234,0.0,0.0,2.0,0.0,0.0,0.0,-1.0,-1.0
1702323645.672234,-2.0,1.0,0.0,0.0,-2.0,0.0,0.0,1.0
1702323645.672234,-2.0,1.0,-1.0,-1.0,-2.0,-1.0,-2.0,-1.0
1702323645.6998117,-1.0,1.0,4.0,0.0,-1.0,-1.0,0.0,-2.0
1702323645.6998117,-2.0,-4.0,-4.0,0.0,-1.0,-1.0,-1.0,-1.0
1702323645.6998117,0.0,0.0,-2.0,-1.0,-1.0,-1.0,0.0,0.0
1702323645.6998117,-1.0,-2.0,0.0,-1.0,-1.0,1.0,0.0,-2.0
1702323645.7099142,-1.0,-1.0,-2.0,1.0,-1.0,-3.0,0.0,-1.0
1702323645.7099142,0.0,0.0,0.0,-1.0,-1.0,-2.0,-2.0,-1.0
1702323645.7198098,-1.0,-2.0,1.0,0.0,-2.0,-1.0,-1.0,0.0
1702323645.7198098,0.0,-2.0,-2.0,-1.0,-1.0,-3.0,-2.0,-1.0
1702323645.7298083,-2.0,0.0,1.0,-1.0,-1.0,-1.0,-1.0,-1.0
1702323645.7298083,-1.0,-3.0,-1.0,-1.0,-2.0,0.0,-1.0,0.0
1702323645.7298083,0.0,-2.0,0.0,-2.0,0.0,-2.0,0.0,-1.0
1702323645.7298083,-1.0,-1.0,-2.0,0.0,-2.0,-2.0,0.0,0.0
1702323645.750047,0.0,1.0,-1.0,-1.0,0.0,-2.0,-1.0,-2.0
1702323645.750047,0.0,-1.0,-1.0,-2.0,-1.0,-2.0,-2.0,-1.0
1702323645.7598135,-2.0,0.0,-1.0,-1.0,-1.0,-1.0,-1.0,-1.0
1702323645.7598135,-2.0,-1.0,-1.0,-1.0,-1.0,0.0,-1.0,-1.0
1702323645.7799861,-1.0,-1.0,-1.0,-1.0,-2.0,-1.0,0.0,-1.0
1702323645.7799861,-3.0,-1.0,-3.0,0.0,1.0,0.0,-1.0,-1.0
1702323645.7799861,-1.0,1.0,0.0,-3.0,-1.0,-2.0,-2.0,-2.0
1702323645.7799861,-1.0,0.0,1.0,-1.0,0.0,-2.0,-2.0,0.0
1702323645.7998085,-3.0,-1.0,-1.0,-1.0,-3.0,-1.0,-1.0,-2.0
1702323645.7998085,-1.0,0.0,-1.0,-1.0,-2.0,-1.0,-2.0,-2.0
1702323645.7998085,-1.0,-2.0,-2.0,-1.0,-1.0,-1.0,0.0,1.0
1702323645.7998085,0.0,0.0,0.0,0.0,-1.0,0.0,-2.0,-1.0
1702323645.810034,-1.0,-2.0,-1.0,-1.0,-1.0,-1.0,-1.0,-1.0
1702323645.810034,-1.0,0.0,-1.0,0.0,-2.0,-1.0,-3.0,0.0
1702323645.8198142,-2.0,-1.0,-2.0,1.0,-1.0,-1.0,-1.0,-2.0
1702323645.8198142,0.0,-1.0,-2.0,-1.0,-1.0,-1.0,1.0,-1.0
1702323645.8300219,2.0,-2.0,-1.0,0.0,-1.0,-1.0,-2.0,-2.0
1702323645.8300219,-1.0,-2.0,1.0,-1.0,-1.0,0.0,0.0,-1.0
1702323645.8398128,-1.0,-1.0,-3.0,-1.0,0.0,-1.0,-2.0,-1.0
1702323645.8398128,2.0,5.0,-3.0,-2.0,1.0,-2.0,-2.0,-2.0
1702323645.8698077,-4.0,-12.0,-3.0,-1.0,-1.0,0.0,-1.0,0.0
1702323645.8698077,0.0,-1.0,-1.0,-1.0,-1.0,0.0,0.0,1.0
1702323645.8698077,-3.0,-4.0,0.0,0.0,-2.0,1.0,-2.0,-1.0
1702323645.8698077,-1.0,-2.0,-2.0,-2.0,-2.0,-3.0,1.0,-1.0
1702323645.8698077,1.0,6.0,-1.0,-1.0,0.0,-2.0,-2.0,-1.0
1702323645.8698077,-1.0,-3.0,0.0,-1.0,-2.0,-1.0,-1.0,-2.0
1702323645.8698077,4.0,3.0,3.0,-2.0,-2.0,0.0,0.0,0.0
1702323645.8698077,-3.0,-2.0,-1.0,-1.0,-1.0,-1.0,-3.0,-2.0
1702323645.88981,0.0,-1.0,0.0,-2.0,-1.0,-3.0,0.0,-3.0
1702323645.88981,1.0,-1.0,1.0,-1.0,0.0,-3.0,-1.0,1.0
1702323645.8998096,-2.0,0.0,-1.0,1.0,-1.0,-3.0,-1.0,-1.0
1702323645.8998096,-1.0,0.0,-2.0,-1.0,-1.0,0.0,-1.0,0.0
1702323645.9098089,-2.0,0.0,-1.0,-2.0,-1.0,-1.0,-1.0,0.0
1702323645.9098089,-1.0,0.0,-4.0,-1.0,0.0,0.0,-1.0,-3.0
1702323645.9098089,1.0,-6.0,-1.0,-1.0,0.0,0.0,0.0,-2.0
1702323645.9098089,-4.0,-2.0,0.0,-1.0,-1.0,-2.0,-1.0,-2.0
1702323645.9300435,3.0,6.0,0.0,-2.0,0.0,0.0,-1.0,0.0
1702323645.9300435,-1.0,2.0,0.0,-1.0,-1.0,-1.0,0.0,0.0
1702323645.9398127,-1.0,1.0,3.0,0.0,-1.0,-2.0,-2.0,-2.0
1702323645.9398127,0.0,-2.0,-3.0,-1.0,-1.0,-2.0,-1.0,-2.0
1702323645.9598165,0.0,0.0,-3.0,-1.0,0.0,0.0,-2.0,-1.0
1702323645.9598165,-2.0,6.0,1.0,1.0,-2.0,1.0,0.0,-2.0
1702323645.9698074,-3.0,-15.0,-3.0,-3.0,0.0,0.0,0.0,2.0
1702323645.9698074,1.0,0.0,1.0,1.0,-2.0,0.0,0.0,-1.0
1702323645.9698074,1.0,-2.0,2.0,0.0,0.0,-2.0,-2.0,-1.0
1702323645.9698074,-2.0,-5.0,-10.0,-3.0,-3.0,-1.0,-3.0,-1.0
1702323645.9698074,0.0,5.0,9.0,0.0,-1.0,-1.0,-1.0,0.0
1702323645.9698074,-1.0,1.0,8.0,0.0,0.0,-2.0,0.0,1.0
1702323645.990224,-4.0,-10.0,-31.0,-3.0,-2.0,-1.0,0.0,0.0
1702323645.990224,-1.0,-4.0,4.0,-1.0,-1.0,0.0,-2.0,-1.0
1702323645.990224,-1.0,4.0,0.0,-1.0,0.0,0.0,-1.0,0.0
1702323645.990224,-4.0,-3.0,-3.0,-2.0,0.0,1.0,-1.0,0.0
1702323646.0198114,-1.0,15.0,6.0,-2.0,-1.0,-1.0,-1.0,-3.0
1702323646.0198114,-1.0,-10.0,6.0,6.0,0.0,-2.0,1.0,-2.0
1702323646.0198114,-2.0,-2.0,-26.0,-4.0,0.0,-1.0,-1.0,1.0
1702323646.0198114,1.0,12.0,15.0,2.0,-1.0,-2.0,-1.0,-2.0
1702323646.0300195,-3.0,4.0,3.0,-1.0,1.0,-2.0,-2.0,-2.0
1702323646.0300195,-1.0,10.0,6.0,0.0,-1.0,-1.0,-1.0,-1.0
1702323646.0300195,1.0,-3.0,8.0,0.0,0.0,-1.0,-1.0,-1.0
1702323646.0300195,1.0,-3.0,-15.0,0.0,1.0,0.0,0.0,2.0
1702323646.0598176,-7.0,-18.0,-11.0,-4.0,-4.0,0.0,-2.0,-1.0
1702323646.0598176,1.0,3.0,12.0,-3.0,-2.0,-1.0,-3.0,1.0
1702323646.0598176,3.0,4.0,0.0,-3.0,-4.0,-3.0,-1.0,-2.0
1702323646.0598176,1.0,0.0,12.0,5.0,1.0,1.0,-2.0,1.0
1702323646.0798092,-2.0,-4.0,-11.0,-4.0,-2.0,-1.0,-3.0,-1.0
1702323646.0798092,-3.0,-9.0,-13.0,-5.0,1.0,-1.0,-1.0,0.0
1702323646.0798092,3.0,8.0,17.0,2.0,-1.0,1.0,-1.0,-2.0
1702323646.0798092,-4.0,-5.0,-13.0,-6.0,-3.0,-3.0,-3.0,0.0
1702323646.0901115,-2.0,-13.0,10.0,5.0,0.0,0.0,2.0,0.0
1702323646.0901115,1.0,9.0,0.0,-3.0,-2.0,0.0,-1.0,-2.0
1702323646.0901115,-4.0,1.0,-3.0,-2.0,0.0,-1.0,-2.0,-2.0
1702323646.0901115,4.0,2.0,3.0,0.0,-1.0,0.0,0.0,0.0
1702323646.1198084,1.0,23.0,5.0,1.0,-1.0,0.0,-1.0,0.0
1702323646.1198084,-5.0,-27.0,3.0,-2.0,-1.0,-1.0,-1.0,-1.0
1702323646.1198084,1.0,-6.0,-30.0,0.0,-1.0,-1.0,-1.0,0.0
1702323646.1198084,-7.0,-6.0,1.0,2.0,0.0,0.0,0.0,-1.0
1702323646.1301663,2.0,2.0,-1.0,-1.0,-2.0,-1.0,0.0,0.0
1702323646.1301663,3.0,10.0,6.0,1.0,0.0,-1.0,-1.0,-2.0
1702323646.139941,-6.0,-2.0,10.0,-1.0,-1.0,-2.0,-3.0,-2.0
1702323646.139941,0.0,0.0,-4.0,-4.0,-2.0,-1.0,0.0,-3.0
1702323646.1501613,-1.0,-6.0,-8.0,-1.0,0.0,-1.0,0.0,-2.0
1702323646.1501613,1.0,9.0,-12.0,0.0,0.0,-1.0,0.0,-1.0
1702323646.1601546,-2.0,-2.0,4.0,-3.0,-1.0,-2.0,0.0,-1.0
1702323646.1601546,-2.0,5.0,0.0,-2.0,-2.0,-2.0,-2.0,-2.0
1702323646.177873,1.0,-2.0,12.0,1.0,-2.0,-1.0,1.0,1.0
1702323646.177873,-2.0,0.0,-2.0,-1.0,-2.0,-1.0,1.0,-1.0
1702323646.1788723,-3.0,0.0,-16.0,-4.0,-2.0,0.0,0.0,0.0
1702323646.1788723,-1.0,-6.0,3.0,-1.0,-1.0,-1.0,-1.0,-2.0
1702323646.1944518,0.0,-3.0,-1.0,0.0,0.0,-1.0,-1.0,0.0
1702323646.1944518,-3.0,-8.0,-11.0,-3.0,-2.0,-2.0,-2.0,1.0
1702323646.1944518,0.0,1.0,1.0,2.0,-1.0,0.0,-2.0,-1.0
1702323646.1944518,-1.0,-4.0,-1.0,-3.0,1.0,-2.0,-1.0,-1.0
1702323646.2148097,-2.0,-2.0,7.0,0.0,-1.0,-1.0,-1.0,-1.0
1702323646.2148097,2.0,7.0,-1.0,0.0,0.0,0.0,-1.0,0.0
1702323646.2148097,1.0,-2.0,1.0,-2.0,0.0,1.0,-1.0,-1.0
1702323646.2148097,-6.0,-3.0,-6.0,-2.0,-1.0,-2.0,-1.0,0.0
1702323646.2444541,-2.0,-1.0,3.0,2.0,0.0,0.0,-2.0,0.0
1702323646.2444541,-2.0,-3.0,-3.0,-1.0,-1.0,-1.0,0.0,-2.0
1702323646.2444541,0.0,-2.0,-6.0,-1.0,-1.0,-3.0,-2.0,-1.0
1702323646.2444541,1.0,-2.0,10.0,0.0,-3.0,0.0,0.0,0.0
1702323646.2444541,0.0,-4.0,-10.0,-2.0,-3.0,-1.0,-1.0,-3.0
1702323646.2444541,-3.0,2.0,-2.0,-1.0,-3.0,-1.0,-2.0,-1.0
1702323646.2547688,-2.0,-2.0,3.0,0.0,1.0,-1.0,-1.0,-1.0
1702323646.2547688,0.0,-7.0,-9.0,-1.0,-2.0,-1.0,-2.0,1.0
1702323646.274862,-3.0,2.0,3.0,-1.0,0.0,-2.0,-1.0,-1.0
1702323646.274862,-2.0,-5.0,-4.0,-1.0,0.0,-1.0,0.0,0.0
1702323646.274862,-1.0,6.0,2.0,0.0,-1.0,-2.0,0.0,1.0
1702323646.274862,-2.0,-13.0,-2.0,-1.0,-3.0,-2.0,-3.0,-1.0
1702323646.2949378,3.0,-2.0,0.0,-2.0,-1.0,-2.0,-1.0,0.0
1702323646.2949378,-1.0,-2.0,-5.0,-1.0,-1.0,-1.0,1.0,-2.0
1702323646.2949378,-1.0,2.0,1.0,-4.0,-2.0,0.0,-1.0,-1.0
1702323646.2949378,2.0,1.0,-4.0,2.0,-1.0,0.0,-1.0,0.0
1702323646.314787,-2.0,-2.0,4.0,-1.0,-2.0,-1.0,-1.0,0.0
1702323646.314787,0.0,1.0,-5.0,-1.0,-2.0,-2.0,-2.0,-1.0
1702323646.314787,0.0,-3.0,2.0,1.0,-1.0,-1.0,-1.0,0.0
1702323646.314787,-4.0,-1.0,-3.0,-5.0,-1.0,0.0,0.0,-4.0
1702323646.3350556,1.0,0.0,0.0,-3.0,-2.0,-1.0,-2.0,-3.0
1702323646.3350556,-1.0,-1.0,1.0,-1.0,0.0,-3.0,-1.0,-1.0
1702323646.3350556,-2.0,-2.0,-3.0,0.0,-1.0,0.0,0.0,0.0
1702323646.3350556,-1.0,2.0,-5.0,-1.0,-1.0,0.0,-2.0,0.0
1702323646.3548255,-2.0,0.0,-2.0,-1.0,0.0,1.0,1.0,-1.0
1702323646.3548255,-1.0,-2.0,2.0,-1.0,-1.0,0.0,-2.0,-1.0
1702323646.3548255,-3.0,-4.0,-4.0,0.0,-3.0,-1.0,-2.0,0.0
1702323646.3548255,-1.0,1.0,4.0,1.0,0.0,0.0,-1.0,-1.0
1702323646.3647866,0.0,1.0,-5.0,-1.0,-1.0,-1.0,-1.0,1.0
1702323646.3647866,-1.0,-1.0,-1.0,-2.0,0.0,-1.0,0.0,2.0
1702323646.374947,-2.0,-1.0,-3.0,0.0,-1.0,0.0,-1.0,-3.0
1702323646.374947,-1.0,0.0,-1.0,-1.0,-1.0,-1.0,0.0,-1.0
1702323646.3947926,-1.0,0.0,4.0,0.0,-1.0,2.0,-1.0,-1.0
1702323646.3947926,-1.0,-1.0,-1.0,-1.0,0.0,-1.0,-3.0,-2.0
1702323646.4147873,-3.0,0.0,1.0,-2.0,-1.0,-1.0,0.0,-1.0
1702323646.4147873,0.0,0.0,4.0,0.0,-1.0,-3.0,-1.0,-2.0
1702323646.4247851,-2.0,-6.0,-17.0,-2.0,-1.0,-2.0,-2.0,-1.0
1702323646.4247851,-1.0,1.0,-1.0,0.0,0.0,0.0,-1.0,0.0
1702323646.4247851,-1.0,-3.0,0.0,0.0,-1.0,-2.0,-2.0,-2.0
1702323646.4247851,1.0,0.0,-3.0,-3.0,-1.0,-1.0,0.0,1.0
1702323646.4350574,-1.0,0.0,3.0,-2.0,-1.0,-2.0,-1.0,0.0
1702323646.4350574,0.0,-1.0,1.0,-2.0,-3.0,0.0,-1.0,-1.0
1702323646.4350574,-1.0,-3.0,0.0,0.0,1.0,-1.0,-1.0,-2.0
1702323646.4350574,1.0,0.0,-3.0,-1.0,-2.0,-1.0,-1.0,-3.0
1702323646.4547918,-1.0,0.0,2.0,-1.0,-2.0,0.0,-1.0,-2.0
1702323646.4547918,-1.0,-3.0,0.0,-1.0,-1.0,-1.0,-1.0,-1.0
1702323646.474792,0.0,-2.0,0.0,-2.0,-1.0,0.0,-1.0,-1.0
1702323646.474792,-2.0,0.0,-5.0,0.0,0.0,0.0,-1.0,0.0
1702323646.4847853,-2.0,-1.0,2.0,0.0,-2.0,-1.0,-1.0,-1.0
1702323646.4847853,0.0,-1.0,0.0,0.0,0.0,-3.0,-2.0,-2.0
1702323646.4847853,0.0,-1.0,-1.0,-2.0,-1.0,-1.0,-2.0,-1.0
1702323646.4847853,-2.0,-3.0,-3.0,0.0,-2.0,-1.0,-2.0,0.0
1702323646.495052,-2.0,-1.0,0.0,-2.0,-1.0,-1.0,0.0,-1.0
1702323646.495052,-4.0,-1.0,-2.0,0.0,-1.0,-1.0,0.0,0.0
1702323646.495052,-1.0,-2.0,0.0,-2.0,-1.0,-2.0,0.0,-1.0
1702323646.495052,-1.0,-1.0,-4.0,-3.0,-2.0,1.0,0.0,-1.0
1702323646.5147884,1.0,0.0,0.0,0.0,1.0,-2.0,-3.0,0.0
1702323646.5147884,-1.0,-1.0,-1.0,0.0,-1.0,-1.0,0.0,0.0
1702323646.5247862,0.0,-2.0,-1.0,0.0,-1.0,0.0,-1.0,-2.0
1702323646.5247862,-1.0,0.0,-1.0,0.0,0.0,-2.0,-1.0,0.0
1702323646.5450542,-1.0,-2.0,0.0,0.0,0.0,-1.0,-1.0,-1.0
1702323646.5450542,0.0,-2.0,-1.0,-2.0,0.0,0.0,-1.0,-1.0
1702323646.5450542,0.0,-1.0,-2.0,1.0,-2.0,-1.0,-2.0,1.0
1702323646.5450542,-1.0,0.0,-1.0,-1.0,-1.0,-1.0,1.0,0.0
1702323646.5551867,-1.0,-2.0,1.0,1.0,-1.0,0.0,-1.0,0.0
1702323646.5551867,-1.0,0.0,-1.0,-1.0,-2.0,-2.0,-1.0,-2.0
1702323646.5551867,-1.0,-2.0,-1.0,-1.0,-1.0,0.0,-1.0,0.0
1702323646.5551867,-1.0,-2.0,-2.0,-1.0,-1.0,-2.0,-1.0,-2.0
1702323646.5747871,-1.0,-1.0,1.0,-1.0,-2.0,-2.0,-1.0,1.0
1702323646.5747871,-1.0,-2.0,-2.0,-2.0,0.0,-1.0,0.0,-1.0
1702323646.5747871,-2.0,1.0,-1.0,-1.0,-1.0,0.0,0.0,-1.0
1702323646.5747871,0.0,0.0,-1.0,0.0,0.0,-2.0,-3.0,-2.0
1702323646.5947945,0.0,0.0,-1.0,-1.0,-2.0,-2.0,0.0,-3.0
1702323646.5947945,-1.0,-3.0,-1.0,0.0,-1.0,-1.0,-2.0,0.0
1702323646.5947945,1.0,-1.0,-1.0,-1.0,-3.0,-1.0,-1.0,-1.0
1702323646.5947945,-1.0,-1.0,-1.0,-1.0,-1.0,0.0,1.0,0.0
1702323646.615011,-1.0,-2.0,-1.0,-1.0,0.0,0.0,-1.0,-2.0
1702323646.615011,0.0,-1.0,-1.0,-2.0,0.0,-2.0,-1.0,0.0
1702323646.615011,-1.0,-1.0,-1.0,-1.0,1.0,-3.0,-1.0,1.0
1702323646.615011,0.0,-3.0,-2.0,-1.0,-1.0,-1.0,-2.0,-2.0
1702323646.6447916,0.0,-3.0,-3.0,-2.0,-3.0,-1.0,-1.0,-1.0
1702323646.6447916,-2.0,-1.0,-1.0,-1.0,-2.0,-1.0,-1.0,-2.0
1702323646.6447916,0.0,-1.0,-2.0,0.0,-1.0,-2.0,-1.0,-3.0
1702323646.6447916,0.0,-2.0,-1.0,-2.0,-1.0,-2.0,-1.0,-2.0
1702323646.6548207,-1.0,-1.0,-2.0,-1.0,1.0,0.0,-1.0,-2.0
1702323646.6548207,-2.0,-2.0,-1.0,0.0,-1.0,1.0,-1.0,-1.0
1702323646.6548207,-2.0,0.0,-3.0,-2.0,-2.0,1.0,-2.0,-1.0
1702323646.6548207,-2.0,-1.0,0.0,-2.0,-1.0,-1.0,-2.0,-1.0
1702323646.6847873,0.0,0.0,-2.0,0.0,-1.0,-2.0,-1.0,-1.0
1702323646.6847873,-1.0,-1.0,-1.0,-2.0,-1.0,0.0,-2.0,-1.0
1702323646.6847873,-1.0,-1.0,-1.0,-1.0,-1.0,-1.0,-1.0,-1.0
1702323646.6847873,-2.0,-1.0,0.0,-1.0,-1.0,0.0,-2.0,0.0
1702323646.6947896,0.0,-2.0,0.0,-2.0,-2.0,0.0,-1.0,1.0
1702323646.6947896,-1.0,-1.0,-3.0,-1.0,-2.0,-2.0,0.0,-2.0
1702323646.7022748,-1.0,-1.0,0.0,-1.0,-1.0,-1.0,-1.0,0.0
1702323646.7022748,-1.0,1.0,-1.0,-3.0,-2.0,-1.0,0.0,0.0
1702323646.7180934,-1.0,0.0,0.0,-1.0,-1.0,-2.0,-1.0,0.0
1702323646.7180934,-1.0,1.0,-1.0,0.0,-2.0,-1.0,0.0,0.0
1702323646.7190912,-1.0,-1.0,-3.0,0.0,-1.0,-2.0,-2.0,-1.0
1702323646.7190912,-2.0,-2.0,0.0,-2.0,-1.0,-1.0,-2.0,-1.0
1702323646.7374666,-1.0,1.0,-1.0,-1.0,0.0,1.0,-3.0,1.0
1702323646.7374666,-1.0,-2.0,-1.0,-1.0,-1.0,0.0,-1.0,-1.0
1702323646.7374666,-2.0,0.0,0.0,-1.0,-1.0,-2.0,0.0,1.0
1702323646.7374666,0.0,0.0,0.0,-1.0,-2.0,0.0,0.0,-1.0
1702323646.7478364,-1.0,0.0,-1.0,-2.0,-2.0,-1.0,0.0,-3.0
1702323646.7478364,0.0,-1.0,-1.0,-1.0,-1.0,-1.0,-2.0,-1.0
1702323646.7578197,-1.0,0.0,-2.0,-1.0,0.0,2.0,0.0,-2.0
1702323646.7578197,-1.0,-2.0,-3.0,0.0,-2.0,0.0,0.0,-2.0
1702323646.77747,0.0,0.0,0.0,0.0,0.0,0.0,-2.0,0.0
1702323646.77747,-2.0,1.0,-1.0,-2.0,-1.0,2.0,0.0,-1.0
1702323646.77747,0.0,-2.0,1.0,-2.0,0.0,2.0,-1.0,-2.0
1702323646.77747,-1.0,0.0,-1.0,-1.0,-1.0,-1.0,-1.0,-1.0
1702323646.7974648,-2.0,-1.0,-1.0,-1.0,-2.0,-3.0,0.0,-2.0
1702323646.7974648,-1.0,-2.0,0.0,-2.0,-1.0,-2.0,-1.0,-2.0
1702323646.7974648,0.0,-2.0,-1.0,-1.0,-1.0,-4.0,-1.0,-3.0
1702323646.7974648,-2.0,0.0,-1.0,0.0,0.0,-2.0,0.0,-1.0
1702323646.805495,-1.0,0.0,0.0,-1.0,-1.0,-2.0,1.0,-1.0
1702323646.805495,-1.0,-1.0,-1.0,0.0,0.0,-3.0,0.0,-2.0
1702323646.8157248,-2.0,-1.0,-2.0,-2.0,-2.0,-2.0,-1.0,0.0
1702323646.8157248,0.0,-2.0,-3.0,0.0,-2.0,-1.0,-1.0,-2.0
1702323646.8358579,-2.0,-1.0,-1.0,-1.0,-1.0,-2.0,-1.0,-1.0
1702323646.8358579,-1.0,-3.0,1.0,-1.0,-1.0,-1.0,-3.0,0.0
1702323646.8358579,-2.0,-1.0,-2.0,-1.0,1.0,-1.0,0.0,-2.0
1702323646.8358579,-2.0,-2.0,0.0,0.0,1.0,0.0,-1.0,2.0
1702323646.8555174,0.0,-1.0,-3.0,-1.0,0.0,-2.0,-2.0,-1.0
1702323646.8555174,-1.0,-1.0,-1.0,1.0,1.0,-1.0,-1.0,-1.0
1702323646.8555174,0.0,-1.0,-2.0,-1.0,-2.0,-2.0,-1.0,-2.0
1702323646.8555174,-1.0,1.0,-2.0,-1.0,0.0,0.0,-1.0,-1.0
1702323646.865677,-1.0,0.0,-1.0,-3.0,0.0,-2.0,-2.0,-2.0
1702323646.865677,-1.0,-1.0,-1.0,0.0,-2.0,-2.0,0.0,-1.0
1702323646.8858309,-1.0,0.0,0.0,1.0,-1.0,-1.0,2.0,1.0
1702323646.8858309,-1.0,-3.0,-2.0,-2.0,-1.0,1.0,0.0,-2.0
1702323646.8960497,-1.0,-2.0,-1.0,0.0,0.0,-1.0,-2.0,0.0
1702323646.8960497,-1.0,-1.0,0.0,-2.0,0.0,-2.0,0.0,1.0
1702323646.8960497,-1.0,-1.0,0.0,0.0,-1.0,-2.0,-1.0,-1.0
1702323646.8960497,-1.0,-1.0,0.0,0.0,-1.0,-2.0,0.0,-1.0
1702323646.9356704,1.0,-1.0,-1.0,-1.0,-1.0,0.0,-3.0,-1.0
1702323646.9356704,-1.0,-2.0,-4.0,-3.0,-1.0,0.0,0.0,0.0
1702323646.9356704,-3.0,-1.0,2.0,5.0,-1.0,0.0,0.0,0.0
1702323646.9356704,-2.0,0.0,-1.0,-3.0,-1.0,-2.0,-2.0,-1.0
1702323646.9356704,-3.0,0.0,-3.0,-1.0,-1.0,-1.0,0.0,-3.0
1702323646.9356704,-1.0,1.0,-1.0,-3.0,-3.0,-3.0,-3.0,-1.0
1702323646.9356704,-1.0,-1.0,-2.0,-3.0,0.0,0.0,-2.0,-2.0
1702323646.9356704,0.0,2.0,0.0,2.0,0.0,2.0,1.0,0.0
1702323646.9656703,-1.0,-2.0,-1.0,-1.0,-1.0,-1.0,1.0,-1.0
1702323646.9656703,-1.0,-2.0,-1.0,-1.0,0.0,-1.0,-1.0,-1.0
1702323646.9656703,-1.0,-1.0,-3.0,-3.0,-1.0,-2.0,-2.0,-2.0
1702323646.9656703,-1.0,-2.0,0.0,0.0,-3.0,-2.0,-2.0,-1.0
1702323646.976026,-1.0,-1.0,-3.0,-4.0,-3.0,0.0,-1.0,-1.0
1702323646.976026,-2.0,0.0,-1.0,-1.0,0.0,0.0,-1.0,-1.0
1702323646.976026,-2.0,-1.0,3.0,2.0,2.0,-1.0,-1.0,2.0
1702323646.976026,0.0,-2.0,3.0,-3.0,-1.0,-3.0,-2.0,0.0
1702323646.9860346,-1.0,-4.0,-13.0,0.0,0.0,0.0,0.0,0.0
1702323646.9860346,-3.0,-1.0,-1.0,-2.0,-3.0,-1.0,-1.0,-1.0
1702323646.9960105,-1.0,-3.0,-1.0,-5.0,-4.0,0.0,-3.0,0.0
1702323646.9960105,-1.0,-3.0,-6.0,-1.0,-2.0,-1.0,0.0,-1.0
1702323647.0256712,-1.0,-1.0,4.0,-1.0,0.0,0.0,-1.0,-1.0
1702323647.0256712,-2.0,0.0,1.0,2.0,0.0,0.0,0.0,-2.0
1702323647.0256712,1.0,0.0,-1.0,1.0,1.0,-1.0,0.0,-2.0
1702323647.0256712,-2.0,-2.0,-1.0,-4.0,-1.0,-1.0,-2.0,-2.0
1702323647.0359426,-2.0,-3.0,-2.0,-3.0,-3.0,-1.0,-2.0,-1.0
1702323647.0359426,0.0,0.0,1.0,1.0,0.0,-1.0,0.0,0.0
1702323647.0359426,-2.0,0.0,2.0,-3.0,-1.0,-1.0,-3.0,-1.0
1702323647.0359426,-1.0,0.0,-3.0,-1.0,0.0,-1.0,-2.0,1.0
1702323647.0459108,0.0,1.0,-1.0,1.0,-1.0,-1.0,-1.0,-1.0
1702323647.0459108,-1.0,-2.0,-1.0,0.0,-1.0,-1.0,-1.0,-1.0
1702323647.055829,1.0,-1.0,-3.0,-2.0,-2.0,0.0,1.0,-1.0
1702323647.055829,0.0,-2.0,0.0,0.0,-2.0,-1.0,-2.0,-2.0
1702323647.0956724,0.0,0.0,2.0,-1.0,0.0,-1.0,-2.0,-1.0
1702323647.0956724,0.0,-1.0,-5.0,-2.0,-1.0,-1.0,-1.0,1.0
1702323647.0956724,-1.0,0.0,-3.0,-2.0,-2.0,-2.0,0.0,-1.0
1702323647.0956724,0.0,-1.0,-1.0,-1.0,-1.0,-2.0,-1.0,0.0
1702323647.0956724,-2.0,0.0,3.0,2.0,2.0,0.0,-1.0,-2.0
1702323647.0956724,-1.0,1.0,3.0,0.0,-2.0,-3.0,-2.0,-1.0
1702323647.0956724,-2.0,0.0,-1.0,-1.0,-1.0,-1.0,-3.0,0.0
1702323647.0956724,0.0,0.0,3.0,-2.0,-1.0,0.0,1.0,0.0
1702323647.1057065,-1.0,-6.0,-15.0,-2.0,0.0,-2.0,-1.0,-1.0
1702323647.1057065,-1.0,-2.0,0.0,3.0,-1.0,0.0,-1.0,0.0
1702323647.1159937,0.0,-1.0,-2.0,-1.0,-1.0,0.0,0.0,-3.0
1702323647.1159937,0.0,3.0,2.0,0.0,-1.0,0.0,-1.0,-1.0
1702323647.1356723,-1.0,-3.0,3.0,-1.0,0.0,-1.0,-2.0,0.0
1702323647.1356723,-1.0,-3.0,-2.0,-3.0,0.0,0.0,-1.0,-1.0
1702323647.1456707,-1.0,-1.0,0.0,-2.0,-2.0,-2.0,-1.0,1.0
1702323647.1456707,-2.0,1.0,-1.0,-1.0,0.0,0.0,-1.0,0.0
1702323647.1557183,0.0,-5.0,0.0,-2.0,-1.0,-2.0,0.0,-1.0
1702323647.1557183,1.0,3.0,-1.0,-2.0,-2.0,-1.0,-1.0,-1.0
1702323647.1557183,0.0,-2.0,-2.0,0.0,-1.0,0.0,-1.0,-2.0
1702323647.1557183,-1.0,1.0,-4.0,-2.0,0.0,-2.0,-3.0,-2.0
1702323647.1659303,0.0,2.0,2.0,2.0,0.0,-1.0,-1.0,1.0
1702323647.1659303,-2.0,-1.0,0.0,-1.0,-2.0,-1.0,-1.0,-1.0
1702323647.205686,3.0,2.0,1.0,-2.0,-2.0,0.0,-1.0,0.0
1702323647.205686,-4.0,-8.0,-4.0,0.0,-2.0,-1.0,-1.0,1.0
1702323647.205686,-4.0,-7.0,1.0,-1.0,-2.0,-1.0,0.0,-1.0
1702323647.205686,0.0,1.0,0.0,-2.0,-1.0,0.0,-2.0,-2.0
1702323647.205686,-2.0,3.0,-2.0,0.0,1.0,-1.0,0.0,1.0
1702323647.205686,0.0,-2.0,-1.0,0.0,0.0,-1.0,0.0,-2.0
1702323647.2159343,-2.0,0.0,3.0,0.0,-1.0,-1.0,-1.0,-1.0
1702323647.2159343,-1.0,5.0,-2.0,0.0,0.0,0.0,-2.0,-1.0
1702323647.2159343,-2.0,-12.0,-3.0,-1.0,-1.0,-1.0,0.0,-1.0
1702323647.2159343,0.0,3.0,0.0,0.0,0.0,-1.0,-3.0,-2.0
1702323647.2259254,-3.0,2.0,0.0,-1.0,-1.0,-1.0,0.0,0.0
1702323647.2259254,-1.0,-7.0,-2.0,-1.0,-1.0,-1.0,-2.0,-2.0
1702323647.2636034,0.0,5.0,-3.0,-5.0,-2.0,0.0,-2.0,-1.0
1702323647.2636034,2.0,-2.0,0.0,2.0,-1.0,-1.0,-1.0,-1.0
1702323647.2636034,-1.0,2.0,-1.0,-1.0,-2.0,-3.0,-1.0,-1.0
1702323647.2636034,-1.0,-1.0,0.0,-1.0,-1.0,-1.0,-1.0,-1.0
1702323647.2636034,0.0,0.0,-1.0,-2.0,-1.0,-1.0,-1.0,0.0
1702323647.2636034,1.0,0.0,-2.0,-2.0,-1.0,-1.0,0.0,1.0
1702323647.2773314,2.0,26.0,0.0,-2.0,0.0,0.0,-2.0,-2.0
1702323647.2773314,-3.0,-34.0,-4.0,0.0,0.0,-3.0,-1.0,-1.0
1702323647.2773314,-2.0,-12.0,-3.0,1.0,-2.0,-2.0,0.0,-5.0
1702323647.2773314,-5.0,-9.0,-1.0,-1.0,0.0,-2.0,-1.0,-3.0
1702323647.2877107,-2.0,-8.0,-1.0,1.0,-1.0,-1.0,-1.0,-1.0
1702323647.2877107,3.0,13.0,0.0,-2.0,-3.0,-2.0,0.0,1.0
1702323647.297333,-1.0,-1.0,-1.0,-1.0,0.0,0.0,-2.0,-2.0
1702323647.297333,-4.0,-1.0,5.0,4.0,0.0,1.0,0.0,-1.0
1702323647.3160913,3.0,-11.0,-15.0,-1.0,-3.0,-2.0,0.0,-1.0
1702323647.3160913,-4.0,14.0,1.0,-2.0,-1.0,1.0,0.0,-1.0
1702323647.3160913,4.0,10.0,2.0,-2.0,-1.0,0.0,-1.0,0.0
1702323647.3160913,-6.0,3.0,1.0,-2.0,-2.0,-1.0,0.0,0.0
1702323647.3364415,2.0,-2.0,-1.0,-1.0,0.0,0.0,-3.0,-1.0
1702323647.3364415,0.0,-15.0,-4.0,-2.0,-1.0,-1.0,-1.0,-2.0
1702323647.3364415,-2.0,2.0,-2.0,0.0,-3.0,-1.0,-1.0,0.0
1702323647.3364415,-1.0,3.0,0.0,-1.0,-1.0,0.0,0.0,-1.0
1702323647.3660915,-3.0,-5.0,2.0,-1.0,-1.0,-1.0,0.0,-2.0
1702323647.3660915,-2.0,2.0,-4.0,0.0,-1.0,-1.0,-1.0,-1.0
1702323647.3660915,-6.0,-4.0,2.0,1.0,0.0,-1.0,0.0,-1.0
1702323647.3660915,8.0,4.0,-4.0,-3.0,-1.0,-2.0,-2.0,-1.0
1702323647.376262,-3.0,3.0,-1.0,-1.0,-2.0,-1.0,-2.0,0.0
1702323647.376262,1.0,-1.0,0.0,-1.0,0.0,-1.0,-1.0,-3.0
1702323647.376262,-3.0,2.0,-2.0,0.0,-1.0,-3.0,-3.0,-1.0
1702323647.376262,-2.0,-9.0,-3.0,0.0,-2.0,0.0,-1.0,-1.0
1702323647.3961022,3.0,13.0,5.0,-2.0,-2.0,-1.0,-2.0,0.0
1702323647.3961022,0.0,16.0,4.0,-1.0,-1.0,-1.0,-2.0,0.0
1702323647.3961022,1.0,0.0,0.0,5.0,0.0,-1.0,-1.0,0.0
1702323647.3961022,2.0,5.0,-7.0,-3.0,-2.0,-2.0,0.0,-1.0
1702323647.416098,-1.0,1.0,2.0,1.0,-1.0,0.0,-1.0,-2.0
1702323647.416098,-3.0,-10.0,-4.0,-2.0,-1.0,1.0,1.0,0.0
1702323647.416098,-6.0,1.0,5.0,-1.0,-2.0,-1.0,-2.0,-2.0
1702323647.416098,-1.0,-7.0,-2.0,1.0,-1.0,0.0,-1.0,-1.0
1702323647.436325,-2.0,-7.0,1.0,-1.0,-1.0,1.0,0.0,-1.0
1702323647.436325,-4.0,-2.0,-4.0,-1.0,0.0,-1.0,-1.0,-1.0
1702323647.436325,-1.0,-5.0,-3.0,-5.0,-3.0,-2.0,-3.0,-2.0
1702323647.436325,0.0,1.0,1.0,0.0,-1.0,-2.0,0.0,-1.0
1702323647.4563694,-5.0,6.0,1.0,0.0,1.0,-1.0,0.0,-1.0
1702323647.4563694,1.0,-13.0,-1.0,-1.0,-3.0,-2.0,-1.0,-1.0
1702323647.4563694,-2.0,-5.0,-4.0,-1.0,0.0,1.0,-1.0,-1.0
1702323647.4563694,3.0,16.0,-5.0,-2.0,-1.0,1.0,0.0,-1.0
1702323647.4960945,-10.0,-16.0,3.0,1.0,0.0,-1.0,-2.0,-3.0
1702323647.4960945,-7.0,9.0,2.0,-1.0,-2.0,-2.0,-2.0,-1.0
1702323647.4960945,-1.0,-16.0,-2.0,-3.0,0.0,-1.0,-1.0,0.0
1702323647.4960945,-3.0,3.0,2.0,-2.0,0.0,-1.0,-2.0,0.0
1702323647.4960945,2.0,-7.0,-4.0,0.0,0.0,-1.0,1.0,0.0
1702323647.4960945,0.0,7.0,-2.0,0.0,-1.0,1.0,-1.0,-1.0
1702323647.4960945,-1.0,7.0,2.0,1.0,-2.0,0.0,-1.0,-4.0
1702323647.4960945,0.0,-5.0,-5.0,-1.0,-2.0,-1.0,-2.0,0.0
1702323647.5360925,-2.0,-3.0,-2.0,-1.0,-2.0,-1.0,-1.0,-1.0
1702323647.5360925,-2.0,-4.0,0.0,0.0,-1.0,-1.0,-2.0,1.0
1702323647.5360925,2.0,3.0,-1.0,-3.0,0.0,0.0,0.0,-1.0
1702323647.5360925,-2.0,-11.0,2.0,1.0,-1.0,-1.0,0.0,-1.0
1702323647.5360925,1.0,-1.0,1.0,0.0,-1.0,0.0,0.0,-2.0
1702323647.5360925,-1.0,3.0,-1.0,-1.0,-2.0,-3.0,-1.0,-2.0
1702323647.5360925,2.0,8.0,-1.0,1.0,-2.0,-1.0,0.0,-1.0
1702323647.5360925,-6.0,-13.0,-1.0,-2.0,-1.0,-1.0,-2.0,-1.0
1702323647.5563853,2.0,0.0,-2.0,-2.0,-2.0,-1.0,-1.0,-2.0
1702323647.5563853,4.0,6.0,1.0,-1.0,1.0,0.0,0.0,-1.0
1702323647.5662813,-4.0,-6.0,-4.0,-2.0,1.0,0.0,-1.0,-1.0
1702323647.5662813,-2.0,-1.0,-1.0,0.0,-2.0,-3.0,-1.0,-2.0
1702323647.5763023,4.0,3.0,-1.0,-1.0,-1.0,-2.0,1.0,-1.0
1702323647.5763023,-3.0,-5.0,-1.0,1.0,-1.0,0.0,1.0,0.0
1702323647.5763023,-3.0,-4.0,-3.0,-1.0,1.0,-1.0,-1.0,-1.0
1702323647.5763023,0.0,3.0,0.0,0.0,-3.0,-2.0,-1.0,0.0
1702323647.6060922,0.0,-1.0,-2.0,-1.0,-2.0,-2.0,-1.0,1.0
1702323647.6060922,-2.0,-1.0,-2.0,0.0,0.0,-1.0,-1.0,-1.0
1702323647.6060922,-1.0,-2.0,-3.0,-1.0,-1.0,-2.0,-1.0,-1.0
1702323647.6060922,-4.0,-5.0,-1.0,0.0,1.0,0.0,-1.0,-3.0
1702323647.6160924,1.0,-1.0,0.0,-4.0,0.0,0.0,-1.0,-2.0
1702323647.6160924,-1.0,0.0,5.0,1.0,-1.0,-1.0,-1.0,0.0
1702323647.6160924,-1.0,-3.0,-3.0,2.0,0.0,-1.0,-2.0,-2.0
1702323647.6160924,-1.0,-3.0,-2.0,-3.0,-1.0,-2.0,-3.0,-1.0
1702323647.636092,-1.0,16.0,-1.0,-2.0,-2.0,-2.0,0.0,-2.0
1702323647.636092,-4.0,-37.0,-4.0,-1.0,-1.0,-1.0,-2.0,-3.0
1702323647.636092,2.0,8.0,4.0,-1.0,-2.0,-2.0,-1.0,1.0
1702323647.636092,-3.0,-4.0,0.0,-2.0,-1.0,0.0,1.0,-1.0
1702323647.6564853,-1.0,0.0,-4.0,-2.0,-2.0,-1.0,-2.0,0.0
1702323647.6564853,3.0,24.0,3.0,-2.0,0.0,-3.0,-1.0,0.0
1702323647.6564853,-4.0,-22.0,-3.0,0.0,-2.0,-2.0,0.0,-1.0
1702323647.6564853,-1.0,-9.0,-2.0,0.0,-1.0,0.0,-2.0,0.0
1702323647.6764398,-4.0,-6.0,-2.0,1.0,0.0,-1.0,-1.0,0.0
1702323647.6764398,0.0,8.0,-2.0,-2.0,-2.0,0.0,-2.0,-2.0
1702323647.6764398,0.0,3.0,-2.0,-2.0,-1.0,0.0,0.0,-1.0
1702323647.6764398,0.0,8.0,-3.0,-3.0,-1.0,0.0,-3.0,-1.0
1702323647.6960917,-1.0,-7.0,1.0,1.0,-1.0,1.0,-2.0,-1.0
1702323647.6960917,0.0,-2.0,-4.0,-1.0,-1.0,0.0,0.0,-1.0
1702323647.6960917,-1.0,4.0,-1.0,-1.0,-1.0,0.0,0.0,-1.0
1702323647.6960917,-2.0,0.0,-2.0,-1.0,0.0,-1.0,-2.0,0.0
1702323647.716329,-7.0,-7.0,-2.0,-2.0,-2.0,-2.0,-1.0,-1.0
1702323647.716329,-2.0,-4.0,-3.0,-2.0,-1.0,-3.0,-1.0,-2.0
1702323647.716329,0.0,4.0,-1.0,-2.0,0.0,-2.0,-1.0,0.0
1702323647.716329,0.0,6.0,-1.0,0.0,0.0,-3.0,0.0,-2.0
1702323647.7363703,0.0,-1.0,-2.0,-2.0,0.0,-2.0,-2.0,-1.0
1702323647.7363703,-3.0,-4.0,-5.0,-2.0,-2.0,-1.0,-1.0,-1.0
1702323647.7460961,0.0,0.0,0.0,-2.0,-2.0,0.0,-2.0,0.0
1702323647.7460961,1.0,0.0,0.0,1.0,-2.0,-1.0,1.0,0.0
1702323647.7763426,1.0,-1.0,-2.0,-1.0,-1.0,0.0,-2.0,0.0
1702323647.7763426,-3.0,-5.0,-1.0,-1.0,0.0,0.0,-1.0,-2.0
1702323647.7763426,-1.0,3.0,-1.0,-2.0,-2.0,-2.0,-2.0,-2.0
1702323647.7763426,0.0,-5.0,-2.0,-1.0,-1.0,0.0,-1.0,-1.0
1702323647.7763426,0.0,-2.0,0.0,-2.0,0.0,-2.0,1.0,-1.0
1702323647.7763426,1.0,3.0,1.0,-1.0,-1.0,0.0,-1.0,-1.0
1702323647.7763426,-3.0,-2.0,-2.0,0.0,-1.0,-1.0,-1.0,0.0
1702323647.7763426,0.0,6.0,-1.0,-2.0,-1.0,-1.0,-1.0,1.0
1702323647.7963476,-1.0,-4.0,-1.0,-1.0,-2.0,0.0,-1.0,-1.0
1702323647.7963476,-2.0,1.0,-2.0,0.0,-1.0,-1.0,-1.0,0.0
1702323647.7963476,1.0,0.0,-1.0,-1.0,0.0,-1.0,-3.0,-1.0
1702323647.7963476,-2.0,3.0,0.0,1.0,-2.0,0.0,-1.0,-2.0
1702323647.8167353,-1.0,5.0,-1.0,-2.0,-1.0,1.0,-2.0,0.0
1702323647.8167353,0.0,0.0,-2.0,-1.0,-1.0,-1.0,1.0,-1.0
1702323647.8167353,-2.0,-5.0,1.0,0.0,-1.0,-1.0,0.0,0.0
1702323647.8167353,5.0,6.0,0.0,-1.0,-1.0,-2.0,-1.0,0.0
1702323647.8366442,-4.0,-2.0,-2.0,-1.0,-2.0,-1.0,-1.0,-1.0
1702323647.8366442,-15.0,-11.0,-1.0,-1.0,0.0,0.0,-2.0,0.0
1702323647.8366442,-5.0,6.0,1.0,2.0,0.0,0.0,-1.0,-1.0
1702323647.8366442,-2.0,-4.0,-1.0,-1.0,0.0,0.0,1.0,-1.0
1702323647.8663418,4.0,20.0,2.0,0.0,1.0,-1.0,-1.0,0.0
1702323647.8663418,-3.0,-40.0,-7.0,-4.0,-1.0,-1.0,-2.0,-3.0
1702323647.8663418,-1.0,-5.0,-4.0,-3.0,0.0,-1.0,0.0,-1.0
1702323647.8663418,-3.0,-7.0,-2.0,0.0,-2.0,-1.0,-2.0,-2.0
1702323647.8763466,0.0,-3.0,-1.0,-1.0,-1.0,0.0,-2.0,-2.0
1702323647.8763466,2.0,15.0,2.0,1.0,-1.0,-2.0,0.0,1.0
1702323647.8763466,-1.0,-3.0,-1.0,-1.0,-2.0,-1.0,-2.0,-1.0
1702323647.8763466,-3.0,5.0,1.0,-2.0,0.0,-2.0,-1.0,-1.0
1702323647.8965213,2.0,0.0,-2.0,0.0,-1.0,-2.0,1.0,-1.0
1702323647.8965213,3.0,8.0,0.0,1.0,-2.0,-1.0,-1.0,-1.0
1702323647.8965213,-3.0,-8.0,-2.0,-1.0,-1.0,-1.0,-1.0,-1.0
1702323647.8965213,-2.0,-2.0,-2.0,0.0,-1.0,-2.0,0.0,1.0
1702323647.9163442,-3.0,-8.0,-1.0,-1.0,-1.0,-1.0,-2.0,-1.0
1702323647.9163442,0.0,3.0,1.0,-1.0,-1.0,-1.0,0.0,-1.0
1702323647.9163442,4.0,5.0,0.0,-1.0,-1.0,-2.0,0.0,-1.0
1702323647.9163442,-4.0,-3.0,-2.0,-2.0,-1.0,0.0,-2.0,0.0
1702323647.9367068,-1.0,8.0,0.0,-1.0,-1.0,1.0,-3.0,-1.0
1702323647.9367068,0.0,-2.0,-2.0,-1.0,-2.0,0.0,-2.0,-1.0
1702323647.9367068,1.0,1.0,-1.0,-3.0,0.0,1.0,-1.0,-1.0
1702323647.9367068,-4.0,-7.0,-5.0,-3.0,-1.0,0.0,-2.0,0.0
1702323647.956749,-2.0,-1.0,2.0,1.0,-1.0,-2.0,-2.0,0.0
1702323647.956749,1.0,6.0,0.0,0.0,1.0,-1.0,-1.0,0.0
1702323647.956749,-2.0,-3.0,-1.0,0.0,-1.0,0.0,-1.0,-1.0
1702323647.956749,1.0,0.0,0.0,0.0,0.0,1.0,-2.0,-1.0
1702323647.9863436,1.0,-9.0,-2.0,0.0,-1.0,-2.0,-1.0,-1.0
1702323647.9863436,-1.0,9.0,-1.0,0.0,-2.0,0.0,-2.0,-2.0
1702323647.9863436,-7.0,-13.0,-2.0,-2.0,-1.0,-1.0,-2.0,-1.0
1702323647.9863436,2.0,5.0,0.0,-1.0,-1.0,-1.0,0.0,-2.0
1702323647.9967136,-2.0,-5.0,0.0,-2.0,-1.0,-1.0,-1.0,-1.0
1702323647.9967136,2.0,-6.0,0.0,-2.0,0.0,-1.0,0.0,-1.0
1702323647.9967136,1.0,11.0,0.0,0.0,-1.0,-1.0,0.0,-1.0
1702323647.9967136,1.0,3.0,-1.0,-3.0,-2.0,-1.0,-2.0,-3.0
1702323648.0263464,-2.0,-13.0,-2.0,-1.0,-2.0,-1.0,-1.0,-1.0
1702323648.0263464,-2.0,-2.0,-5.0,-3.0,-2.0,-1.0,-3.0,-1.0
1702323648.0263464,0.0,3.0,0.0,2.0,-1.0,0.0,0.0,-1.0
1702323648.0263464,-1.0,-8.0,1.0,-1.0,1.0,0.0,0.0,0.0
1702323648.0365038,4.0,6.0,0.0,0.0,-2.0,-2.0,0.0,0.0
1702323648.0365038,-1.0,-3.0,-2.0,-2.0,-1.0,-1.0,0.0,-1.0
1702323648.046349,1.0,2.0,-1.0,-3.0,-3.0,-1.0,-1.0,0.0
1702323648.046349,1.0,1.0,0.0,0.0,-1.0,0.0,-2.0,-1.0
1702323648.0566554,-5.0,-5.0,-3.0,-1.0,0.0,-1.0,-1.0,-3.0
1702323648.0566554,-1.0,1.0,-1.0,1.0,-2.0,-1.0,-1.0,0.0
1702323648.0665686,-2.0,-4.0,-1.0,0.0,-1.0,-1.0,0.0,-2.0
1702323648.0665686,-1.0,-4.0,0.0,0.0,-1.0,-1.0,-1.0,-1.0
1702323648.1063447,-2.0,0.0,-2.0,0.0,0.0,0.0,0.0,-1.0
1702323648.1063447,-3.0,-8.0,0.0,0.0,0.0,-1.0,0.0,0.0
1702323648.1063447,1.0,11.0,-2.0,-1.0,-2.0,0.0,-2.0,-1.0
1702323648.1063447,-2.0,-1.0,-1.0,-2.0,-1.0,-1.0,0.0,0.0
1702323648.1063447,-2.0,-3.0,-2.0,-2.0,-1.0,-1.0,-2.0,-2.0
1702323648.1063447,3.0,13.0,-2.0,-2.0,1.0,-1.0,-1.0,-2.0
1702323648.1063447,-5.0,-33.0,-3.0,-1.0,-1.0,-2.0,1.0,0.0
1702323648.1063447,-3.0,0.0,-2.0,-2.0,-1.0,-1.0,0.0,0.0
1702323648.116377,-1.0,-7.0,1.0,-1.0,0.0,-3.0,-3.0,-1.0
1702323648.116377,-2.0,5.0,-2.0,-1.0,-2.0,-2.0,-1.0,-2.0
1702323648.126347,-2.0,-3.0,-2.0,-2.0,-1.0,-2.0,-2.0,0.0
1702323648.126347,2.0,2.0,-2.0,-2.0,-1.0,-1.0,-3.0,-1.0
1702323648.146345,-6.0,-5.0,-1.0,0.0,-2.0,0.0,0.0,-2.0
1702323648.146345,-1.0,-4.0,0.0,0.0,-2.0,1.0,-1.0,-1.0
1702323648.146345,0.0,8.0,1.0,-2.0,1.0,-1.0,-1.0,-1.0
1702323648.146345,-2.0,-5.0,-1.0,0.0,1.0,-1.0,-1.0,-1.0
1702323648.1563456,0.0,3.0,-3.0,0.0,-2.0,0.0,-1.0,-1.0
1702323648.1563456,1.0,2.0,-1.0,-1.0,-1.0,-2.0,-1.0,-1.0
1702323648.1663494,-2.0,2.0,-3.0,0.0,-1.0,-1.0,-1.0,-3.0
1702323648.1663494,-1.0,-2.0,-1.0,0.0,-2.0,-2.0,-1.0,-2.0
1702323648.1763508,-1.0,1.0,0.0,-1.0,-1.0,0.0,-1.0,-2.0
1702323648.1763508,-2.0,-3.0,-1.0,-1.0,-1.0,0.0,0.0,-1.0
1702323648.1865838,1.0,2.0,0.0,-1.0,0.0,0.0,-1.0,0.0
1702323648.1865838,-1.0,-4.0,-4.0,-1.0,-2.0,-1.0,-3.0,-3.0
1702323648.2263422,0.0,0.0,-1.0,-3.0,-1.0,0.0,1.0,0.0
1702323648.2263422,-2.0,-3.0,1.0,1.0,0.0,0.0,-1.0,-2.0
1702323648.2263422,-2.0,2.0,-1.0,-1.0,-2.0,0.0,-1.0,0.0
1702323648.2263422,-1.0,0.0,-2.0,-1.0,-2.0,-2.0,-1.0,-1.0
1702323648.2263422,2.0,0.0,-1.0,-2.0,-1.0,-2.0,-1.0,-1.0
1702323648.2263422,-3.0,-5.0,-2.0,-1.0,-1.0,-2.0,-1.0,-1.0
1702323648.2263422,0.0,1.0,0.0,0.0,0.0,-1.0,0.0,0.0
1702323648.2263422,-1.0,0.0,0.0,-1.0,-1.0,0.0,0.0,-1.0
1702323648.236725,-1.0,-6.0,-1.0,-1.0,-4.0,-1.0,-1.0,-1.0
1702323648.236725,-2.0,-2.0,-1.0,0.0,-1.0,-2.0,-2.0,0.0
1702323648.2463448,0.0,2.0,0.0,-1.0,-1.0,-2.0,-2.0,0.0
1702323648.2463448,-2.0,-3.0,-2.0,0.0,2.0,0.0,-1.0,-1.0
1702323648.2563424,-1.0,1.0,1.0,1.0,2.0,0.0,1.0,-1.0
1702323648.2563424,0.0,0.0,0.0,1.0,1.0,-1.0,0.0,-1.0
1702323648.2563424,0.0,-3.0,-1.0,-1.0,-2.0,-3.0,-1.0,-1.0
1702323648.2563424,-1.0,2.0,-1.0,-1.0,-1.0,-2.0,0.0,0.0
1702323648.276346,-1.0,-3.0,-3.0,-4.0,-2.0,-1.0,-1.0,-1.0
1702323648.276346,-1.0,5.0,-2.0,-1.0,-3.0,-1.0,0.0,-1.0
1702323648.276346,-1.0,-14.0,-3.0,-1.0,-2.0,-1.0,-2.0,-3.0
1702323648.276346,-2.0,2.0,-1.0,0.0,0.0,-1.0,0.0,-1.0
1702323648.299428,0.0,-1.0,-2.0,3.0,1.0,-1.0,-1.0,0.0
1702323648.299428,0.0,-3.0,0.0,-3.0,0.0,-1.0,1.0,1.0
1702323648.3065264,0.0,4.0,1.0,-3.0,-6.0,-1.0,-2.0,0.0
1702323648.3065264,-1.0,-4.0,0.0,-2.0,-5.0,-3.0,-3.0,-2.0
1702323648.3263185,-2.0,-3.0,-3.0,-3.0,-4.0,-2.0,-2.0,0.0
1702323648.3263185,1.0,1.0,0.0,1.0,9.0,2.0,0.0,-1.0
1702323648.3263185,-3.0,2.0,-1.0,2.0,4.0,1.0,2.0,-1.0
1702323648.3263185,0.0,-1.0,-1.0,1.0,2.0,-3.0,-2.0,-2.0
1702323648.336351,-1.0,2.0,-1.0,-1.0,-6.0,-3.0,0.0,-1.0
1702323648.336351,-1.0,-2.0,-2.0,-2.0,-6.0,-2.0,-1.0,-2.0
1702323648.3463707,-2.0,1.0,-1.0,-2.0,-1.0,0.0,0.0,0.0
1702323648.3463707,-2.0,-5.0,-1.0,-1.0,0.0,1.0,-2.0,0.0
1702323648.356679,-1.0,1.0,-2.0,0.0,1.0,-3.0,-3.0,-1.0
1702323648.356679,-1.0,-3.0,1.0,2.0,-3.0,-2.0,-1.0,0.0
1702323648.3663256,-1.0,-2.0,-1.0,-1.0,2.0,0.0,0.0,-2.0
1702323648.3663256,1.0,-1.0,-1.0,-1.0,1.0,-1.0,1.0,0.0
1702323648.3763516,-2.0,-2.0,-1.0,-1.0,1.0,-3.0,-4.0,-3.0
1702323648.3763516,-1.0,-3.0,1.0,-3.0,-3.0,0.0,-2.0,0.0
1702323648.3763516,1.0,4.0,-1.0,-1.0,-1.0,-3.0,-1.0,-2.0
1702323648.3763516,-1.0,-2.0,-2.0,0.0,-2.0,0.0,1.0,-1.0
1702323648.3966334,-2.0,0.0,-2.0,-2.0,-1.0,-1.0,-1.0,-1.0
1702323648.3966334,-1.0,0.0,-1.0,-2.0,-4.0,0.0,-2.0,-2.0
1702323648.4063292,0.0,-5.0,-1.0,-1.0,0.0,-1.0,-2.0,0.0
1702323648.4063292,-1.0,10.0,-1.0,0.0,-1.0,-1.0,2.0,0.0
1702323648.4163275,0.0,6.0,-2.0,-1.0,2.0,-1.0,1.0,0.0
1702323648.4163275,-2.0,-6.0,-2.0,-1.0,-1.0,-2.0,-2.0,-1.0
1702323648.4263263,1.0,2.0,-3.0,-7.0,-8.0,-1.0,-1.0,-2.0
1702323648.4263263,-2.0,-3.0,0.0,2.0,5.0,0.0,-2.0,-1.0
1702323648.4366062,-1.0,0.0,0.0,3.0,6.0,3.0,1.0,-1.0
1702323648.4366062,-2.0,0.0,-1.0,-1.0,0.0,1.0,1.0,-1.0
1702323648.4366062,0.0,3.0,-2.0,-1.0,1.0,0.0,-1.0,-2.0
1702323648.4366062,-8.0,-9.0,-3.0,-3.0,-6.0,-3.0,-3.0,-3.0
1702323648.4569604,1.0,4.0,0.0,0.0,0.0,-1.0,-2.0,0.0
1702323648.4569604,-1.0,-4.0,-2.0,1.0,1.0,-3.0,1.0,0.0
1702323648.4666524,2.0,7.0,1.0,1.0,1.0,1.0,0.0,0.0
1702323648.4666524,6.0,5.0,2.0,-2.0,-2.0,-1.0,0.0,0.0
1702323648.4768684,-11.0,-12.0,-5.0,-2.0,-3.0,-2.0,-3.0,-1.0
1702323648.4768684,-1.0,-1.0,-3.0,-4.0,-2.0,-2.0,-3.0,-2.0
1702323648.506647,-6.0,-2.0,0.0,2.0,-1.0,-2.0,-1.0,0.0
1702323648.506647,-1.0,-3.0,-1.0,-1.0,-1.0,-1.0,-3.0,-1.0
1702323648.506647,0.0,1.0,1.0,-2.0,-1.0,0.0,-1.0,-1.0
1702323648.506647,1.0,4.0,1.0,0.0,-1.0,-3.0,-1.0,2.0
1702323648.506647,-1.0,-4.0,-3.0,-1.0,-1.0,-1.0,-1.0,-2.0
1702323648.506647,4.0,10.0,1.0,-2.0,1.0,-1.0,-1.0,1.0
1702323648.516646,-5.0,0.0,-2.0,-3.0,-3.0,-1.0,0.0,-2.0
1702323648.516646,-2.0,1.0,-1.0,0.0,-1.0,-2.0,-2.0,-1.0
1702323648.5266514,-1.0,0.0,0.0,0.0,0.0,-2.0,-1.0,-2.0
1702323648.5266514,1.0,-1.0,-1.0,-2.0,-2.0,0.0,-1.0,1.0
1702323648.5366488,3.0,1.0,-1.0,-2.0,-2.0,-1.0,0.0,-1.0
1702323648.5366488,-1.0,-3.0,-1.0,0.0,-1.0,-2.0,-1.0,-2.0
1702323648.5466897,4.0,6.0,0.0,0.0,0.0,0.0,-1.0,1.0
1702323648.5466897,-8.0,-6.0,-3.0,-1.0,-3.0,1.0,-1.0,-2.0
1702323648.5566561,-1.0,-8.0,1.0,-1.0,-2.0,0.0,-1.0,0.0
1702323648.5566561,0.0,1.0,-2.0,-2.0,-1.0,0.0,-1.0,-1.0
1702323648.5566561,-1.0,1.0,-3.0,-2.0,0.0,0.0,0.0,-2.0
1702323648.5566561,1.0,-5.0,-2.0,-3.0,-1.0,-1.0,-2.0,-3.0
1702323648.5966458,3.0,5.0,0.0,-1.0,-1.0,1.0,-1.0,-1.0
1702323648.5966458,4.0,9.0,1.0,0.0,2.0,0.0,-1.0,0.0
1702323648.5966458,-4.0,-17.0,-1.0,-2.0,-1.0,-1.0,0.0,-1.0
1702323648.5966458,0.0,-4.0,0.0,-1.0,-1.0,-2.0,1.0,-1.0
1702323648.5966458,-3.0,-3.0,-1.0,0.0,0.0,-1.0,-1.0,-2.0
1702323648.5966458,3.0,7.0,2.0,0.0,-1.0,-1.0,-3.0,-1.0
1702323648.606994,-1.0,-2.0,-2.0,-2.0,-1.0,-1.0,-2.0,-1.0
1702323648.606994,-3.0,-1.0,-2.0,-1.0,0.0,0.0,0.0,-1.0
1702323648.617056,2.0,5.0,1.0,1.0,-1.0,-1.0,-1.0,0.0
1702323648.617056,-4.0,-8.0,-3.0,-2.0,-2.0,-1.0,-2.0,-2.0
1702323648.617056,-2.0,-3.0,-1.0,0.0,0.0,0.0,-1.0,0.0
1702323648.617056,-3.0,-3.0,0.0,-1.0,-1.0,-2.0,0.0,-2.0
1702323648.6468897,2.0,2.0,-1.0,0.0,-2.0,-1.0,-1.0,0.0
1702323648.6468897,-1.0,-3.0,-1.0,-1.0,-1.0,1.0,0.0,-2.0
1702323648.6468897,-5.0,-7.0,0.0,0.0,-2.0,-1.0,-1.0,-1.0
1702323648.6468897,0.0,15.0,-3.0,-2.0,0.0,0.0,0.0,-2.0
1702323648.657231,-3.0,-1.0,-2.0,-1.0,-2.0,-1.0,0.0,1.0
1702323648.657231,0.0,1.0,-2.0,0.0,-1.0,0.0,-1.0,-1.0
1702323648.6672525,4.0,-4.0,0.0,-2.0,-2.0,-2.0,0.0,1.0
1702323648.6672525,-3.0,3.0,-1.0,1.0,-1.0,-1.0,-2.0,0.0
1702323648.6771555,7.0,-3.0,-1.0,-3.0,-2.0,0.0,-2.0,-1.0
1702323648.6771555,-8.0,-15.0,0.0,1.0,-1.0,-1.0,0.0,0.0
1702323648.6771555,1.0,8.0,0.0,1.0,0.0,0.0,-1.0,-2.0
1702323648.6771555,-4.0,-25.0,-2.0,0.0,2.0,0.0,-1.0,-2.0
1702323648.6968935,-1.0,-7.0,-2.0,-1.0,0.0,-1.0,1.0,-3.0
1702323648.6968935,2.0,7.0,0.0,-3.0,-2.0,-1.0,-2.0,0.0
1702323648.6968935,-6.0,-3.0,-3.0,-1.0,-1.0,0.0,0.0,-3.0
1702323648.6968935,2.0,-1.0,0.0,-1.0,-3.0,-1.0,0.0,0.0
1702323648.7271302,-6.0,-10.0,-2.0,0.0,0.0,-1.0,-2.0,-1.0
1702323648.7271302,4.0,4.0,0.0,-1.0,1.0,-2.0,-1.0,0.0
1702323648.7271302,0.0,9.0,-3.0,-1.0,-1.0,-1.0,-1.0,-1.0
1702323648.7271302,-11.0,-3.0,7.0,0.0,1.0,-2.0,-1.0,-3.0
1702323648.7370875,-2.0,-4.0,-7.0,-1.0,-2.0,-2.0,2.0,-1.0
1702323648.7370875,-3.0,-5.0,-4.0,-1.0,-2.0,-2.0,-2.0,-1.0
1702323648.7370875,3.0,1.0,-1.0,-2.0,-1.0,-1.0,-2.0,-1.0
1702323648.7370875,0.0,2.0,-4.0,-2.0,-2.0,-2.0,-1.0,-3.0
1702323648.7668893,0.0,5.0,2.0,-2.0,-2.0,-2.0,0.0,-2.0
1702323648.7668893,-3.0,1.0,-1.0,0.0,-1.0,-2.0,0.0,-1.0
1702323648.7668893,-4.0,-18.0,-3.0,-2.0,-2.0,-1.0,-1.0,-1.0
1702323648.7668893,0.0,-1.0,1.0,1.0,-1.0,0.0,-1.0,-1.0
1702323648.787216,7.0,17.0,1.0,0.0,-1.0,1.0,-1.0,-1.0
1702323648.787216,-5.0,-10.0,-2.0,-2.0,1.0,1.0,0.0,-2.0
1702323648.787216,0.0,1.0,-1.0,-3.0,0.0,0.0,-1.0,-2.0
1702323648.787216,3.0,15.0,-1.0,2.0,-1.0,-2.0,-2.0,-1.0
1702323648.7972164,1.0,2.0,2.0,1.0,-2.0,-2.0,-2.0,0.0
1702323648.7972164,1.0,12.0,15.0,1.0,-2.0,-1.0,-2.0,0.0
1702323648.7972164,-5.0,-9.0,-1.0,1.0,0.0,-1.0,-1.0,-3.0
1702323648.7972164,3.0,-13.0,-31.0,-5.0,-1.0,-1.0,0.0,0.0
1702323648.8328805,-7.0,-17.0,-5.0,-3.0,-1.0,-1.0,-1.0,-3.0
1702323648.8335636,-1.0,4.0,17.0,1.0,-2.0,-3.0,0.0,-2.0
1702323648.8335636,-2.0,4.0,11.0,0.0,1.0,-2.0,-1.0,0.0
1702323648.8335636,4.0,-2.0,11.0,1.0,-1.0,0.0,-1.0,-1.0
1702323648.842476,-1.0,5.0,-5.0,-1.0,0.0,0.0,0.0,1.0
1702323648.842476,-2.0,-12.0,-9.0,-3.0,-1.0,1.0,0.0,-1.0
1702323648.842476,2.0,4.0,-1.0,-2.0,-2.0,-2.0,0.0,-1.0
1702323648.842476,-3.0,4.0,-1.0,-1.0,-1.0,-2.0,0.0,-1.0
1702323648.8624723,0.0,5.0,-1.0,0.0,-1.0,1.0,-1.0,-2.0
1702323648.8624723,-3.0,-29.0,-4.0,-2.0,-2.0,0.0,0.0,0.0
1702323648.8624723,-9.0,-3.0,-6.0,-1.0,-1.0,0.0,-1.0,-1.0
1702323648.8624723,-1.0,6.0,-2.0,-2.0,-2.0,-1.0,-2.0,-1.0
1702323648.8824716,2.0,-8.0,10.0,-2.0,0.0,-1.0,0.0,-2.0
1702323648.8824716,0.0,2.0,-20.0,-4.0,-2.0,-3.0,-2.0,-1.0
1702323648.8824716,2.0,3.0,1.0,4.0,-1.0,-1.0,0.0,0.0
1702323648.8824716,-5.0,-14.0,-15.0,-3.0,-1.0,-1.0,0.0,-1.0
1702323648.912821,0.0,4.0,6.0,0.0,-2.0,-1.0,-2.0,-1.0
1702323648.912821,0.0,13.0,-2.0,0.0,0.0,-1.0,-1.0,-1.0
1702323648.912821,0.0,2.0,9.0,-1.0,-1.0,-2.0,0.0,-1.0
1702323648.912821,-1.0,4.0,7.0,0.0,-1.0,-1.0,-1.0,-2.0
1702323648.922475,0.0,0.0,1.0,-1.0,-2.0,-1.0,-2.0,0.0
1702323648.922475,-1.0,-1.0,-4.0,-2.0,-2.0,0.0,0.0,-1.0
1702323648.922475,-2.0,2.0,-16.0,-4.0,0.0,-2.0,-2.0,-2.0
1702323648.922475,0.0,-3.0,7.0,0.0,0.0,0.0,-1.0,-1.0
1702323648.9426312,-1.0,-1.0,-7.0,-3.0,1.0,-1.0,-1.0,-1.0
1702323648.9426312,-2.0,2.0,6.0,0.0,0.0,0.0,-2.0,-3.0
1702323648.9426312,2.0,1.0,1.0,0.0,0.0,-1.0,0.0,0.0
1702323648.9426312,0.0,0.0,0.0,0.0,-2.0,-1.0,0.0,-1.0
1702323648.9627357,-2.0,-4.0,1.0,-2.0,-1.0,0.0,-2.0,0.0
1702323648.9627357,0.0,-1.0,-3.0,-1.0,-1.0,-1.0,-1.0,-1.0
1702323648.9627357,-1.0,1.0,-4.0,-3.0,-1.0,0.0,-2.0,-1.0
1702323648.9627357,0.0,-3.0,0.0,-1.0,-2.0,0.0,0.0,-1.0
1702323649.0024717,-2.0,2.0,-1.0,0.0,-1.0,-2.0,-1.0,0.0
1702323649.0024717,3.0,0.0,-2.0,-1.0,-2.0,-2.0,0.0,0.0
1702323649.0024717,-3.0,7.0,-2.0,-1.0,0.0,1.0,-1.0,-1.0
1702323649.0024717,-8.0,-33.0,5.0,-2.0,-1.0,-1.0,-1.0,-1.0
1702323649.0024717,-3.0,0.0,-3.0,-3.0,-2.0,0.0,1.0,-1.0
1702323649.0024717,1.0,3.0,-6.0,0.0,-1.0,-1.0,-1.0,-1.0
1702323649.0024717,-3.0,-4.0,0.0,-1.0,-1.0,-3.0,-1.0,-2.0
1702323649.0024717,3.0,15.0,2.0,-2.0,-1.0,-2.0,-2.0,-1.0
1702323649.022756,-2.0,-6.0,-4.0,0.0,0.0,-1.0,-2.0,-1.0
1702323649.022756,-2.0,-4.0,2.0,0.0,1.0,0.0,-1.0,1.0
1702323649.0327384,1.0,-2.0,-7.0,-1.0,0.0,0.0,-3.0,0.0
1702323649.0327384,-1.0,-3.0,1.0,-1.0,0.0,1.0,-1.0,2.0
1702323649.0426931,-2.0,11.0,-1.0,-1.0,-2.0,-1.0,-1.0,0.0
1702323649.0426931,-2.0,0.0,1.0,-1.0,-1.0,-2.0,-1.0,-1.0
1702323649.0426931,5.0,7.0,3.0,-1.0,-3.0,0.0,-2.0,-1.0
1702323649.0426931,1.0,3.0,-1.0,-2.0,0.0,0.0,0.0,-1.0
1702323649.072472,-5.0,-2.0,1.0,-2.0,-1.0,-1.0,-2.0,-2.0
1702323649.072472,-2.0,-2.0,0.0,0.0,2.0,-2.0,-1.0,0.0
1702323649.072472,-1.0,-1.0,-4.0,-3.0,-2.0,-1.0,-1.0,0.0
1702323649.072472,0.0,1.0,-1.0,0.0,-2.0,-2.0,-1.0,-1.0
1702323649.0924723,0.0,-11.0,-1.0,1.0,-1.0,0.0,-1.0,0.0
1702323649.0924723,-2.0,8.0,-1.0,-1.0,-1.0,-1.0,-1.0,-2.0
1702323649.0924723,-2.0,-6.0,2.0,-1.0,-2.0,-3.0,0.0,-3.0
1702323649.0924723,0.0,6.0,-1.0,-1.0,-2.0,-1.0,-2.0,-1.0
1702323649.1028244,-2.0,-9.0,-2.0,0.0,-1.0,-1.0,1.0,-2.0
1702323649.1028244,0.0,0.0,-4.0,-2.0,-1.0,0.0,-2.0,-2.0
1702323649.1127193,-5.0,-18.0,0.0,-2.0,0.0,0.0,-1.0,-2.0
1702323649.1127193,1.0,6.0,1.0,-1.0,-1.0,-1.0,-1.0,-1.0
1702323649.1228817,1.0,2.0,0.0,0.0,-2.0,0.0,-1.0,-1.0
1702323649.1228817,-2.0,-10.0,-3.0,-1.0,-1.0,1.0,0.0,0.0
1702323649.1228817,0.0,3.0,2.0,1.0,-1.0,-2.0,-1.0,-1.0
1702323649.1228817,0.0,7.0,0.0,-1.0,1.0,-1.0,-2.0,-2.0
1702323649.1524713,-1.0,-4.0,-3.0,-1.0,-1.0,0.0,-1.0,-2.0
1702323649.1524713,-2.0,1.0,-2.0,-1.0,-2.0,-1.0,0.0,0.0
1702323649.1524713,-1.0,5.0,1.0,0.0,-2.0,0.0,0.0,1.0
1702323649.1524713,-2.0,-10.0,-2.0,-2.0,-2.0,-3.0,-1.0,-1.0
1702323649.162473,-1.0,4.0,-1.0,0.0,0.0,-2.0,-2.0,-3.0
1702323649.162473,0.0,2.0,0.0,-1.0,0.0,-1.0,-1.0,-3.0
1702323649.162473,-1.0,1.0,1.0,-1.0,-1.0,-1.0,0.0,-1.0
1702323649.162473,-3.0,-9.0,-1.0,-1.0,-2.0,-1.0,-1.0,-1.0
1702323649.1827989,4.0,7.0,0.0,-1.0,-1.0,-1.0,-1.0,-1.0
1702323649.1827989,-1.0,11.0,1.0,0.0,-2.0,-1.0,-2.0,0.0
1702323649.1827989,-3.0,-22.0,2.0,0.0,-1.0,-1.0,-2.0,-1.0
1702323649.1827989,-1.0,-10.0,-9.0,-3.0,-2.0,-1.0,-1.0,-1.0
1702323649.2124712,-1.0,-3.0,-1.0,0.0,-1.0,-1.0,1.0,-1.0
1702323649.2124712,0.0,-2.0,-1.0,0.0,-2.0,-1.0,-1.0,-1.0
1702323649.2124712,3.0,9.0,3.0,-1.0,-1.0,-2.0,0.0,-2.0
1702323649.2124712,-5.0,7.0,2.0,0.0,0.0,0.0,-1.0,-2.0
1702323649.2224755,-3.0,-31.0,-3.0,-3.0,-2.0,-1.0,0.0,0.0
1702323649.2224755,-1.0,-6.0,-2.0,-1.0,0.0,-2.0,-1.0,-1.0
1702323649.2224755,-5.0,4.0,-2.0,-5.0,-1.0,0.0,0.0,-3.0
1702323649.2224755,2.0,0.0,-2.0,2.0,-2.0,-2.0,0.0,-1.0
1702323649.2426913,-2.0,6.0,-3.0,-1.0,-1.0,-2.0,-2.0,-2.0
1702323649.2426913,1.0,-5.0,0.0,0.0,-1.0,0.0,-1.0,1.0
1702323649.2426913,-4.0,-7.0,-5.0,-3.0,-2.0,-1.0,-2.0,-1.0
1702323649.2426913,-2.0,1.0,-1.0,-2.0,-2.0,0.0,1.0,-2.0
1702323649.272471,0.0,5.0,-2.0,-1.0,-2.0,-1.0,1.0,-2.0
1702323649.272471,0.0,-5.0,-2.0,0.0,-3.0,-1.0,-1.0,-1.0
1702323649.272471,1.0,9.0,-2.0,-2.0,-1.0,1.0,-1.0,-1.0
1702323649.272471,0.0,-10.0,0.0,-1.0,-2.0,-1.0,-1.0,-2.0
1702323649.2824726,5.0,23.0,2.0,3.0,0.0,-1.0,-1.0,0.0
1702323649.2824726,-7.0,-27.0,0.0,-2.0,0.0,-1.0,-1.0,-3.0
1702323649.2824726,4.0,0.0,2.0,1.0,0.0,-3.0,-1.0,-1.0
1702323649.2824726,-5.0,-1.0,-5.0,-1.0,-1.0,-2.0,-1.0,-2.0
1702323649.3029065,-1.0,-4.0,-1.0,-1.0,-1.0,-2.0,-1.0,0.0
1702323649.3029065,2.0,17.0,-3.0,-3.0,-1.0,-1.0,-1.0,-1.0
1702323649.3029065,0.0,3.0,3.0,-1.0,-2.0,-1.0,0.0,0.0
1702323649.3029065,-1.0,2.0,5.0,3.0,1.0,-1.0,-2.0,-1.0
1702323649.3225055,0.0,13.0,-5.0,-1.0,2.0,1.0,0.0,1.0
1702323649.3225055,0.0,6.0,4.0,-2.0,-1.0,-2.0,2.0,0.0
1702323649.3225055,-7.0,-12.0,-9.0,1.0,-2.0,-1.0,-2.0,0.0
1702323649.3225055,2.0,0.0,0.0,-1.0,0.0,-2.0,0.0,1.0
1702323649.3424737,-4.0,0.0,-3.0,0.0,-1.0,-2.0,0.0,-2.0
1702323649.3424737,-4.0,-1.0,-1.0,-2.0,-1.0,-1.0,-1.0,1.0
1702323649.34328,3.0,2.0,2.0,-3.0,-2.0,0.0,-1.0,0.0
1702323649.34328,-2.0,3.0,1.0,-1.0,-2.0,-1.0,0.0,-1.0
1702323649.3647757,-2.0,-11.0,2.0,-2.0,-1.0,0.0,-2.0,0.0
1702323649.3647757,4.0,0.0,-2.0,-1.0,-2.0,-2.0,-1.0,-2.0
1702323649.3647757,-6.0,-10.0,-1.0,3.0,0.0,0.0,-1.0,-3.0
1702323649.3647757,2.0,9.0,1.0,-1.0,0.0,-1.0,-1.0,-1.0
1702323649.387124,-2.0,-9.0,-2.0,-4.0,-2.0,-2.0,-1.0,-1.0
1702323649.387124,2.0,14.0,-3.0,-3.0,-2.0,0.0,-2.0,-2.0
1702323649.387124,3.0,-16.0,-2.0,1.0,-1.0,-1.0,0.0,0.0
1702323649.387124,-6.0,-2.0,-1.0,-1.0,-1.0,2.0,-2.0,0.0
1702323649.397095,0.0,4.0,2.0,-1.0,1.0,0.0,-1.0,-3.0
1702323649.397095,-8.0,-28.0,-3.0,0.0,-3.0,0.0,-1.0,-2.0
1702323649.397095,5.0,6.0,2.0,3.0,1.0,0.0,-1.0,-1.0
1702323649.397095,1.0,-8.0,-3.0,-3.0,-2.0,-1.0,-1.0,0.0
1702323649.4174056,-1.0,-6.0,-2.0,-2.0,-1.0,-1.0,-1.0,-1.0
1702323649.4174056,-3.0,4.0,-4.0,-1.0,1.0,0.0,-2.0,0.0
1702323649.4174056,-2.0,6.0,-2.0,-4.0,0.0,-1.0,-1.0,-2.0
1702323649.4174056,-1.0,-9.0,2.0,1.0,-1.0,-1.0,-2.0,-2.0
1702323649.4435894,1.0,13.0,1.0,1.0,-1.0,-1.0,-2.0,1.0
1702323649.4435894,1.0,4.0,-1.0,1.0,-1.0,-1.0,0.0,-1.0
1702323649.4435894,-4.0,-5.0,-4.0,-3.0,-2.0,0.0,0.0,-1.0
1702323649.4435894,0.0,2.0,-3.0,-2.0,0.0,-2.0,-1.0,-1.0
1702323649.463991,0.0,-7.0,0.0,-1.0,-1.0,-2.0,-1.0,-2.0
1702323649.463991,-2.0,7.0,0.0,2.0,0.0,-2.0,-2.0,-3.0
1702323649.463991,-2.0,-13.0,-2.0,-1.0,-4.0,-2.0,-2.0,0.0
1702323649.463991,0.0,5.0,0.0,-1.0,1.0,-2.0,-1.0,-3.0
1702323649.4836087,-3.0,-8.0,-2.0,0.0,-1.0,0.0,0.0,-2.0
1702323649.4836087,-1.0,-7.0,-2.0,0.0,0.0,-1.0,3.0,1.0
1702323649.4836087,2.0,12.0,0.0,-2.0,-1.0,-2.0,-1.0,0.0
1702323649.4836087,-1.0,-3.0,-1.0,2.0,-1.0,0.0,-3.0,0.0
1702323649.5040271,-1.0,-4.0,-1.0,-2.0,-2.0,-1.0,1.0,0.0
1702323649.5040271,-2.0,0.0,-1.0,-1.0,-2.0,-3.0,-1.0,-2.0
1702323649.5040271,-2.0,-2.0,-1.0,-1.0,-2.0,0.0,0.0,0.0
1702323649.5040271,2.0,21.0,0.0,-2.0,0.0,0.0,0.0,0.0
1702323649.5139265,-5.0,-29.0,-2.0,0.0,-2.0,-2.0,-3.0,-1.0
1702323649.5139265,0.0,1.0,0.0,-1.0,-2.0,-1.0,-3.0,-2.0
1702323649.523844,-3.0,13.0,-5.0,-1.0,-2.0,-2.0,0.0,-2.0
1702323649.523844,1.0,0.0,0.0,-1.0,-1.0,1.0,0.0,-1.0
1702323649.5436103,0.0,4.0,-1.0,-2.0,0.0,-1.0,-3.0,1.0
1702323649.5436103,-2.0,-3.0,-1.0,-2.0,-2.0,-1.0,-3.0,-2.0
1702323649.5436103,-2.0,-4.0,-3.0,-1.0,-1.0,0.0,-2.0,-1.0
1702323649.5436103,-2.0,-3.0,-1.0,0.0,-1.0,-2.0,0.0,-2.0
1702323649.5638916,2.0,0.0,-1.0,-1.0,-1.0,-1.0,-3.0,-2.0
1702323649.5638916,1.0,0.0,-1.0,-1.0,0.0,-2.0,0.0,0.0
1702323649.5638916,-5.0,-1.0,-1.0,-1.0,0.0,-2.0,-1.0,-1.0
1702323649.5638916,-1.0,-6.0,-2.0,-2.0,-2.0,-1.0,-1.0,-1.0
1702323649.5738971,-2.0,2.0,0.0,-1.0,-2.0,0.0,0.0,-1.0
1702323649.5738971,2.0,3.0,-3.0,-1.0,-1.0,1.0,-1.0,0.0
1702323649.5838282,0.0,-1.0,1.0,3.0,0.0,-1.0,0.0,1.0
1702323649.5838282,1.0,0.0,-1.0,-1.0,-2.0,-2.0,1.0,-1.0
1702323649.6136165,-2.0,4.0,-1.0,0.0,-1.0,-2.0,-1.0,-1.0
1702323649.6136165,-3.0,-6.0,0.0,0.0,0.0,0.0,-2.0,-1.0
1702323649.6136165,-1.0,-4.0,-2.0,-1.0,0.0,-2.0,-1.0,-2.0
1702323649.6136165,-2.0,-2.0,-2.0,-2.0,-2.0,0.0,-3.0,-2.0
1702323649.6236444,1.0,6.0,1.0,0.0,-2.0,-2.0,0.0,0.0
1702323649.6236444,-3.0,-1.0,1.0,0.0,-1.0,-1.0,-1.0,0.0
1702323649.6236444,0.0,1.0,-1.0,-2.0,-1.0,0.0,-2.0,-1.0
1702323649.6236444,0.0,-2.0,0.0,0.0,-1.0,-1.0,0.0,-1.0
1702323649.6435134,-1.0,-2.0,-1.0,0.0,-1.0,0.0,-1.0,-2.0
1702323649.6435134,-2.0,0.0,-1.0,-2.0,0.0,-1.0,0.0,-1.0
1702323649.6535213,-2.0,-2.0,-2.0,0.0,-1.0,-2.0,0.0,-2.0
1702323649.6535213,-1.0,-1.0,-3.0,-1.0,-2.0,-1.0,0.0,-1.0
1702323649.6637995,-2.0,-2.0,-1.0,-1.0,-1.0,-1.0,-1.0,-1.0
1702323649.6637995,-1.0,-2.0,-1.0,1.0,0.0,-1.0,-1.0,0.0
1702323649.6637995,2.0,10.0,0.0,-2.0,-2.0,-2.0,-3.0,-2.0
1702323649.6637995,-3.0,-4.0,-3.0,-3.0,-1.0,-2.0,-1.0,1.0
1702323649.683834,-4.0,-24.0,-2.0,-2.0,-3.0,-2.0,0.0,-1.0
1702323649.683834,1.0,-1.0,-1.0,-4.0,-1.0,-2.0,-1.0,-2.0
1702323649.683834,0.0,-2.0,1.0,0.0,-2.0,-2.0,1.0,-1.0
1702323649.683834,3.0,-2.0,0.0,-1.0,0.0,-1.0,-1.0,-2.0
1702323649.7035263,-3.0,4.0,0.0,0.0,-3.0,1.0,0.0,-1.0
1702323649.7035263,-3.0,-6.0,-2.0,-2.0,-2.0,-1.0,-2.0,-2.0
1702323649.723525,2.0,2.0,1.0,-2.0,-2.0,-1.0,-1.0,0.0
1702323649.723525,1.0,5.0,0.0,0.0,-1.0,-2.0,-1.0,0.0
1702323649.723525,-2.0,2.0,-3.0,-1.0,-2.0,-2.0,-2.0,-1.0
1702323649.723525,2.0,0.0,0.0,1.0,-1.0,-1.0,1.0,-1.0
1702323649.723525,0.0,1.0,0.0,-1.0,1.0,-1.0,0.0,0.0
1702323649.723525,-3.0,-3.0,1.0,0.0,1.0,-1.0,-1.0,-1.0
1702323649.7539463,0.0,2.0,0.0,-2.0,0.0,-1.0,0.0,-1.0
1702323649.7539463,0.0,-3.0,0.0,1.0,-2.0,-2.0,0.0,-1.0
1702323649.7539463,0.0,-4.0,-1.0,3.0,-2.0,-1.0,-1.0,0.0
1702323649.7539463,-1.0,-3.0,-2.0,-2.0,-2.0,0.0,1.0,-1.0
1702323649.763522,0.0,0.0,-2.0,-1.0,-1.0,-1.0,0.0,-1.0
1702323649.763522,-2.0,0.0,-1.0,-2.0,-1.0,-1.0,0.0,-2.0
1702323649.763522,-1.0,-2.0,-1.0,-3.0,0.0,-1.0,-1.0,-1.0
1702323649.763522,-1.0,-2.0,-1.0,-1.0,-1.0,-2.0,-2.0,-1.0
1702323649.7838752,1.0,4.0,-1.0,0.0,1.0,-1.0,-1.0,-1.0
1702323649.7838752,-2.0,-2.0,0.0,0.0,-2.0,1.0,-1.0,-1.0
1702323649.7838752,-3.0,-1.0,-1.0,-1.0,-1.0,0.0,0.0,-1.0
1702323649.7838752,-1.0,0.0,0.0,-1.0,-3.0,1.0,-1.0,-2.0
1702323649.8035243,-2.0,-2.0,-1.0,-2.0,-1.0,-1.0,-1.0,-2.0
1702323649.8035243,1.0,1.0,3.0,3.0,1.0,-2.0,-3.0,1.0
1702323649.8035243,0.0,-4.0,0.0,-4.0,-1.0,-2.0,-2.0,-2.0
1702323649.8035243,-2.0,-1.0,-1.0,-1.0,-1.0,-1.0,-1.0,0.0
1702323649.8335228,1.0,2.0,1.0,-1.0,-1.0,-2.0,0.0,-1.0
1702323649.8335228,3.0,16.0,-1.0,-2.0,0.0,-1.0,-1.0,-1.0
1702323649.8335228,1.0,7.0,-4.0,-3.0,-2.0,-1.0,-1.0,-2.0
1702323649.8335228,-4.0,-24.0,-1.0,-1.0,-1.0,-2.0,-1.0,-1.0
1702323649.8435562,-2.0,-4.0,-2.0,0.0,-1.0,-2.0,0.0,-2.0
1702323649.8435562,-4.0,-5.0,-1.0,-3.0,0.0,-2.0,-2.0,-1.0
1702323649.8435562,-1.0,2.0,0.0,1.0,1.0,-2.0,-2.0,0.0
1702323649.8435562,0.0,6.0,-2.0,-2.0,0.0,1.0,1.0,-3.0
1702323649.8639107,0.0,-1.0,-1.0,-1.0,-1.0,0.0,-2.0,-1.0
1702323649.8639107,1.0,-4.0,0.0,-2.0,-1.0,1.0,0.0,-2.0
1702323649.8639107,-3.0,-5.0,-2.0,-2.0,-3.0,-1.0,-3.0,-1.0
1702323649.8639107,0.0,4.0,0.0,0.0,0.0,-1.0,-1.0,0.0
1702323649.891061,-2.0,-5.0,-1.0,-1.0,-2.0,-3.0,-2.0,-1.0
1702323649.891061,0.0,0.0,-2.0,-1.0,-1.0,-1.0,-2.0,-1.0
1702323649.891061,-5.0,-3.0,-1.0,-1.0,-1.0,-1.0,-1.0,-2.0
1702323649.891061,-4.0,1.0,0.0,0.0,-1.0,-1.0,1.0,-1.0
1702323649.9046865,-2.0,-1.0,-2.0,-2.0,0.0,0.0,0.0,-1.0
1702323649.9046865,-3.0,-2.0,-2.0,-1.0,-1.0,-1.0,0.0,-1.0
1702323649.9046865,1.0,0.0,-2.0,0.0,0.0,1.0,0.0,-1.0
1702323649.9057007,2.0,-3.0,-3.0,0.0,-1.0,-1.0,-4.0,-1.0
1702323649.9279456,-1.0,3.0,1.0,-1.0,0.0,0.0,-2.0,0.0
1702323649.9279456,-1.0,-5.0,-2.0,0.0,-2.0,-3.0,-3.0,0.0
1702323649.9279456,-1.0,-5.0,0.0,-1.0,-1.0,-1.0,0.0,0.0
1702323649.9279456,-2.0,9.0,-1.0,-3.0,-2.0,-2.0,-1.0,-1.0
1702323649.937966,2.0,7.0,1.0,3.0,0.0,0.0,-1.0,0.0
1702323649.937966,-6.0,-15.0,-2.0,-1.0,-1.0,-1.0,1.0,-1.0
1702323649.9481838,0.0,0.0,-3.0,0.0,-2.0,0.0,-1.0,0.0
1702323649.9481838,-2.0,0.0,-1.0,-1.0,-1.0,0.0,-1.0,-1.0
1702323649.964708,-1.0,-3.0,-1.0,-2.0,-1.0,0.0,-1.0,-1.0
1702323649.964708,3.0,23.0,2.0,2.0,-1.0,0.0,-2.0,0.0
1702323649.964708,-8.0,-41.0,-6.0,0.0,-1.0,-1.0,-2.0,-3.0
1702323649.964708,0.0,-1.0,1.0,-2.0,0.0,-2.0,-1.0,-2.0
1702323650.0044346,1.0,1.0,0.0,1.0,-1.0,-3.0,-3.0,-1.0
1702323650.0044346,-1.0,0.0,-3.0,-1.0,-1.0,-1.0,-1.0,-1.0
1702323650.0044346,2.0,10.0,0.0,-1.0,-1.0,-1.0,0.0,1.0
1702323650.0044346,1.0,2.0,0.0,0.0,-1.0,-3.0,-2.0,-2.0
1702323650.0044346,-2.0,-4.0,-2.0,-3.0,-1.0,-1.0,-2.0,-2.0
1702323650.0044346,-3.0,-4.0,-2.0,-3.0,-1.0,-1.0,-1.0,-2.0
1702323650.0044346,-1.0,2.0,0.0,1.0,-1.0,-2.0,1.0,-1.0
1702323650.0044346,3.0,-6.0,-1.0,-1.0,-1.0,-1.0,-1.0,1.0
1702323650.0244315,-3.0,10.0,0.0,0.0,-2.0,-1.0,-1.0,0.0
1702323650.0244315,1.0,-5.0,0.0,0.0,0.0,-1.0,-2.0,-1.0
1702323650.0244315,1.0,6.0,-1.0,-2.0,0.0,-1.0,-1.0,-3.0
1702323650.0244315,-2.0,-4.0,-3.0,-3.0,1.0,0.0,-1.0,0.0
1702323650.0544298,1.0,-3.0,1.0,2.0,-2.0,0.0,0.0,0.0
1702323650.0544298,0.0,-2.0,-2.0,-2.0,-1.0,1.0,1.0,-1.0
1702323650.0544298,3.0,2.0,1.0,1.0,-2.0,-1.0,-1.0,-1.0
1702323650.0544298,-1.0,2.0,0.0,0.0,-1.0,1.0,-1.0,-3.0
1702323650.0646966,-4.0,-6.0,-1.0,-3.0,-1.0,0.0,-2.0,-1.0
1702323650.0646966,1.0,-5.0,-2.0,-1.0,-1.0,-2.0,1.0,0.0
1702323650.0646966,1.0,11.0,2.0,-1.0,-1.0,0.0,-2.0,0.0
1702323650.0646966,-8.0,-21.0,-6.0,-2.0,-1.0,-1.0,0.0,-2.0
1702323650.084471,-3.0,0.0,3.0,0.0,-1.0,0.0,1.0,-1.0
1702323650.084471,5.0,5.0,3.0,0.0,-1.0,-1.0,-1.0,0.0
1702323650.084471,-4.0,-15.0,-15.0,-3.0,-1.0,-1.0,0.0,-1.0
1702323650.084471,2.0,11.0,1.0,-3.0,-1.0,0.0,-1.0,0.0
1702323650.1044312,-2.0,-5.0,-2.0,-2.0,0.0,-3.0,-2.0,-3.0
1702323650.1044312,-2.0,-3.0,3.0,0.0,-1.0,-2.0,0.0,-2.0
1702323650.1044312,5.0,15.0,4.0,1.0,1.0,1.0,0.0,1.0
1702323650.1044312,-5.0,-4.0,-5.0,-2.0,-2.0,0.0,0.0,-2.0
1702323650.1348197,6.0,-4.0,-16.0,-6.0,-1.0,-2.0,0.0,0.0
1702323650.1348197,-9.0,6.0,7.0,-4.0,-1.0,-1.0,-2.0,-2.0
1702323650.1348197,0.0,4.0,26.0,5.0,0.0,-2.0,-1.0,-2.0
1702323650.1348197,3.0,2.0,-15.0,2.0,0.0,-2.0,-2.0,0.0
1702323650.1444774,-3.0,-5.0,4.0,-5.0,-2.0,-1.0,-1.0,-1.0
1702323650.1444774,13.0,41.0,-4.0,11.0,7.0,3.0,1.0,1.0
1702323650.1444774,-16.0,-49.0,2.0,-4.0,-2.0,0.0,-2.0,-4.0
1702323650.1444774,1.0,4.0,-5.0,3.0,1.0,1.0,-1.0,-1.0
1702323650.1644359,-4.0,-4.0,-1.0,0.0,-1.0,-1.0,-1.0,-2.0
1702323650.1644359,-4.0,-4.0,9.0,-5.0,-5.0,-2.0,-2.0,0.0
1702323650.1644359,12.0,32.0,12.0,2.0,-2.0,-2.0,-3.0,0.0
1702323650.1644359,-9.0,-2.0,10.0,7.0,4.0,2.0,1.0,2.0
1702323650.1844385,-2.0,-4.0,-22.0,-14.0,-7.0,-2.0,-4.0,-3.0
1702323650.1844385,-3.0,-13.0,29.0,22.0,5.0,1.0,-1.0,-1.0
1702323650.1844385,-3.0,1.0,9.0,2.0,2.0,1.0,-1.0,0.0
1702323650.1844385,0.0,-11.0,-27.0,-5.0,-5.0,-4.0,-1.0,0.0
1702323650.2044406,2.0,14.0,3.0,0.0,0.0,-1.0,-2.0,0.0
1702323650.2044406,-5.0,-20.0,-21.0,-10.0,-4.0,-3.0,-2.0,-1.0
1702323650.2044406,1.0,9.0,-10.0,-1.0,-3.0,-1.0,-1.0,-2.0
1702323650.2044406,5.0,4.0,20.0,2.0,-1.0,-1.0,0.0,0.0
1702323650.2344284,-1.0,13.0,-5.0,2.0,2.0,2.0,0.0,0.0
1702323650.2344284,-4.0,-34.0,-3.0,-6.0,-2.0,-4.0,-2.0,-2.0
1702323650.2344284,-7.0,-5.0,-16.0,-5.0,-3.0,-2.0,0.0,-3.0
1702323650.2344284,0.0,0.0,2.0,-3.0,-2.0,0.0,-1.0,-2.0
1702323650.2448156,3.0,7.0,3.0,1.0,-1.0,-1.0,-2.0,1.0
1702323650.2448156,-8.0,-23.0,-1.0,-2.0,-3.0,-1.0,-2.0,-3.0
1702323650.2448156,0.0,9.0,-7.0,-2.0,-1.0,-1.0,-1.0,1.0
1702323650.2448156,-3.0,-3.0,9.0,0.0,-2.0,-1.0,-2.0,-2.0
1702323650.264665,0.0,-3.0,5.0,2.0,0.0,-1.0,-1.0,0.0
1702323650.264665,0.0,5.0,-12.0,-4.0,-3.0,-2.0,-1.0,-1.0
1702323650.264665,-1.0,0.0,-10.0,-6.0,-1.0,-1.0,-2.0,-1.0
1702323650.264665,1.0,4.0,2.0,-1.0,-2.0,-2.0,-2.0,-1.0
1702323650.2847283,-1.0,-4.0,5.0,1.0,1.0,0.0,-2.0,0.0
1702323650.2847283,3.0,5.0,-5.0,-4.0,-1.0,1.0,-2.0,1.0
1702323650.2847283,-4.0,-5.0,-7.0,0.0,-1.0,-1.0,-2.0,-1.0
1702323650.2847283,-7.0,1.0,-3.0,-3.0,-2.0,-1.0,-1.0,-2.0
1702323650.304829,-1.0,-3.0,6.0,0.0,-1.0,-1.0,0.0,0.0
1702323650.304829,-4.0,0.0,-8.0,-2.0,-3.0,0.0,1.0,-1.0
1702323650.304829,4.0,1.0,3.0,-1.0,-1.0,-1.0,-3.0,-1.0
1702323650.304829,0.0,-2.0,-2.0,-1.0,-1.0,-3.0,-1.0,-2.0
1702323650.3346672,-3.0,-6.0,-4.0,1.0,-1.0,-1.0,0.0,-2.0
1702323650.3346672,2.0,4.0,-3.0,-4.0,-3.0,-3.0,0.0,0.0
1702323650.3346672,0.0,-2.0,0.0,0.0,-1.0,0.0,0.0,-1.0
1702323650.3346672,0.0,2.0,0.0,-2.0,-2.0,-1.0,-1.0,0.0
1702323650.3447633,-3.0,-3.0,-2.0,0.0,-2.0,0.0,-2.0,-1.0
1702323650.3447633,0.0,6.0,-1.0,0.0,-1.0,0.0,-2.0,-1.0
1702323650.3447633,-2.0,-2.0,-3.0,-2.0,-1.0,0.0,0.0,-2.0
1702323650.3447633,0.0,-2.0,-1.0,-1.0,-1.0,-1.0,-2.0,-1.0
1702323650.3650665,-2.0,13.0,3.0,0.0,-1.0,-2.0,-1.0,-2.0
1702323650.3650665,-5.0,-11.0,-5.0,-2.0,-1.0,-1.0,-1.0,-1.0
1702323650.3650665,-2.0,-5.0,-2.0,-1.0,-1.0,-3.0,-1.0,0.0
1702323650.3650665,1.0,0.0,1.0,0.0,-1.0,-2.0,-1.0,-2.0
1702323650.384663,3.0,-5.0,1.0,-1.0,-1.0,-1.0,-1.0,0.0
1702323650.384663,-6.0,5.0,-5.0,-6.0,-3.0,0.0,-1.0,-4.0
1702323650.384663,-1.0,-1.0,-3.0,0.0,-1.0,-1.0,-1.0,1.0
1702323650.384663,0.0,-1.0,3.0,0.0,2.0,-1.0,0.0,-1.0
1702323650.4067388,0.0,-2.0,-2.0,-1.0,-1.0,-1.0,-1.0,-1.0
1702323650.4067388,1.0,2.0,-4.0,-1.0,0.0,-2.0,-3.0,-2.0
1702323650.4077914,-3.0,4.0,-1.0,-2.0,-2.0,0.0,-1.0,0.0
1702323650.4077914,1.0,2.0,-2.0,-4.0,0.0,-1.0,0.0,-3.0
1702323650.4240255,-2.0,-5.0,0.0,1.0,-1.0,0.0,-1.0,-2.0
1702323650.4240255,1.0,-2.0,-1.0,-4.0,0.0,-1.0,1.0,0.0
1702323650.4240255,0.0,0.0,0.0,0.0,1.0,-2.0,-1.0,-2.0
1702323650.4240255,3.0,7.0,-1.0,-4.0,-3.0,-1.0,-1.0,0.0
1702323650.4440274,-8.0,-12.0,-1.0,1.0,-1.0,-1.0,-1.0,-3.0
1702323650.4440274,2.0,2.0,0.0,0.0,0.0,-2.0,-1.0,-1.0
1702323650.4440274,-1.0,2.0,-3.0,-4.0,-1.0,-2.0,-1.0,-1.0
1702323650.4440274,-3.0,-7.0,-2.0,4.0,1.0,-1.0,-1.0,2.0
1702323650.4741797,3.0,7.0,0.0,-3.0,-2.0,-2.0,0.0,-2.0
1702323650.4741797,-1.0,-3.0,-4.0,-3.0,1.0,-1.0,-2.0,-2.0
1702323650.4741797,-1.0,-4.0,-1.0,-2.0,0.0,0.0,-1.0,-2.0
1702323650.4741797,-2.0,-6.0,-2.0,-3.0,-2.0,0.0,-1.0,0.0
1702323650.5242002,5.0,-3.0,0.0,0.0,-1.0,-2.0,-1.0,0.0
1702323650.5242002,-6.0,4.0,-1.0,2.0,-2.0,1.0,-1.0,-1.0
1702323650.5242002,1.0,1.0,1.0,-1.0,-1.0,-2.0,-1.0,-1.0
1702323650.5242002,1.0,2.0,0.0,-1.0,-3.0,-1.0,-1.0,-2.0
1702323650.5242002,-3.0,-2.0,-5.0,-4.0,-1.0,-1.0,-1.0,-1.0
1702323650.5242002,3.0,3.0,1.0,2.0,-1.0,-1.0,-1.0,0.0
1702323650.5242002,1.0,4.0,-2.0,-2.0,-1.0,1.0,-2.0,-1.0
1702323650.5242002,-5.0,-21.0,2.0,0.0,-3.0,-1.0,-3.0,-3.0
1702323650.5242002,3.0,-2.0,-1.0,-4.0,0.0,-2.0,1.0,0.0
1702323650.5242002,2.0,-3.0,3.0,1.0,-2.0,-1.0,0.0,-1.0
1702323650.5242002,-2.0,-2.0,-8.0,-2.0,-2.0,-1.0,0.0,-2.0
1702323650.5242002,0.0,4.0,-1.0,2.0,0.0,-1.0,-1.0,0.0
1702323650.5541975,-3.0,-2.0,-4.0,-1.0,-3.0,0.0,0.0,1.0
1702323650.5541975,-1.0,-4.0,-2.0,-2.0,0.0,1.0,-1.0,1.0
1702323650.5541975,-2.0,-4.0,3.0,1.0,-1.0,-1.0,-1.0,-1.0
1702323650.5541975,0.0,8.0,2.0,-1.0,-1.0,0.0,1.0,-1.0
1702323650.5644438,-3.0,-3.0,-2.0,-2.0,0.0,-2.0,-2.0,-4.0
1702323650.5644438,-1.0,0.0,-1.0,-3.0,-1.0,-1.0,0.0,0.0
1702323650.5644438,2.0,-3.0,0.0,0.0,-2.0,-2.0,0.0,2.0
1702323650.5644438,-4.0,-6.0,-4.0,-3.0,-1.0,-1.0,-1.0,-2.0
1702323650.584518,-1.0,-3.0,2.0,-1.0,0.0,-2.0,-1.0,-1.0
1702323650.584518,0.0,-8.0,-1.0,2.0,-2.0,-2.0,-1.0,-2.0
1702323650.584518,-1.0,-1.0,-2.0,-1.0,0.0,0.0,0.0,-2.0
1702323650.584518,0.0,7.0,-1.0,-1.0,-1.0,-1.0,-1.0,0.0
1702323650.6142015,0.0,3.0,-1.0,-1.0,-1.0,-1.0,0.0,-1.0
1702323650.6142015,-3.0,-1.0,1.0,-2.0,-1.0,0.0,-1.0,-2.0
1702323650.6142015,-3.0,-6.0,-3.0,-4.0,-1.0,0.0,0.0,-1.0
1702323650.6142015,-2.0,16.0,7.0,1.0,-1.0,-2.0,-2.0,0.0
1702323650.6244092,3.0,-3.0,-5.0,-1.0,-2.0,1.0,0.0,-2.0
1702323650.6244092,-1.0,4.0,-2.0,-1.0,-1.0,-2.0,-1.0,0.0
1702323650.6244092,-2.0,0.0,3.0,1.0,-3.0,0.0,-2.0,0.0
1702323650.6244092,2.0,-1.0,-4.0,-1.0,-2.0,-1.0,0.0,-2.0
1702323650.6445851,-5.0,1.0,0.0,1.0,0.0,-2.0,-2.0,0.0
1702323650.6445851,0.0,-2.0,-2.0,-5.0,-1.0,-1.0,1.0,0.0
1702323650.6445851,-1.0,3.0,-3.0,1.0,0.0,-2.0,-1.0,0.0
1702323650.6445851,-1.0,-8.0,0.0,-4.0,-2.0,-2.0,-1.0,0.0
1702323650.6741989,-1.0,10.0,4.0,3.0,-1.0,-2.0,1.0,-2.0
1702323650.6741989,-3.0,-17.0,-5.0,-3.0,0.0,-2.0,-2.0,-3.0
1702323650.6741989,1.0,0.0,-1.0,-3.0,-3.0,-2.0,0.0,-1.0
1702323650.6741989,-3.0,-7.0,-3.0,-1.0,-1.0,0.0,0.0,-2.0
1702323650.684579,-4.0,0.0,-2.0,0.0,1.0,0.0,2.0,0.0
1702323650.684579,7.0,14.0,0.0,-1.0,0.0,0.0,-2.0,0.0
1702323650.684579,-6.0,-9.0,-2.0,0.0,0.0,-1.0,-3.0,-1.0
1702323650.684579,-2.0,-4.0,-4.0,-3.0,-2.0,0.0,-2.0,0.0
1702323650.7046185,-2.0,-2.0,1.0,2.0,1.0,-1.0,-2.0,-1.0
1702323650.7046185,2.0,7.0,1.0,-1.0,1.0,-1.0,-1.0,-2.0
1702323650.7046185,0.0,-2.0,-1.0,-1.0,-1.0,0.0,-1.0,-3.0
1702323650.7046185,-1.0,0.0,-1.0,0.0,1.0,-2.0,0.0,-1.0
1702323650.7242024,-3.0,-5.0,-2.0,-2.0,0.0,0.0,-2.0,0.0
1702323650.7242024,-2.0,-1.0,-1.0,0.0,-1.0,0.0,1.0,-1.0
1702323650.7242024,1.0,-4.0,2.0,1.0,0.0,-3.0,-1.0,0.0
1702323650.7242024,-1.0,1.0,-2.0,0.0,-1.0,-1.0,-1.0,-2.0
1702323650.744473,1.0,-5.0,-2.0,-2.0,-2.0,-1.0,-1.0,0.0
1702323650.744473,-2.0,-5.0,0.0,0.0,-1.0,1.0,0.0,-1.0
1702323650.744473,-2.0,3.0,-2.0,-1.0,-1.0,-2.0,-2.0,-2.0
1702323650.744473,1.0,12.0,-3.0,-1.0,-3.0,-1.0,0.0,-2.0
1702323650.7642071,-2.0,-3.0,-2.0,-1.0,-2.0,0.0,-3.0,-1.0
1702323650.7642071,-2.0,0.0,1.0,-1.0,-2.0,-1.0,-3.0,0.0
1702323650.7642071,-3.0,-2.0,3.0,0.0,1.0,0.0,-1.0,-2.0
1702323650.7642071,-3.0,-1.0,-7.0,-2.0,1.0,0.0,-3.0,-2.0
1702323650.7941978,-1.0,-2.0,1.0,1.0,-1.0,0.0,0.0,-2.0
1702323650.7941978,-3.0,-2.0,-4.0,-2.0,-1.0,-1.0,-2.0,-1.0
1702323650.7941978,4.0,4.0,2.0,0.0,0.0,0.0,-1.0,0.0
1702323650.7941978,-4.0,-8.0,1.0,-2.0,0.0,-3.0,0.0,0.0
1702323650.8043876,-1.0,-1.0,-2.0,-2.0,-2.0,0.0,-1.0,0.0
1702323650.8043876,0.0,-3.0,0.0,1.0,-1.0,-3.0,-2.0,-2.0
1702323650.8043876,0.0,0.0,-4.0,-1.0,-1.0,-2.0,0.0,-1.0
1702323650.8043876,-1.0,-2.0,1.0,-2.0,0.0,1.0,1.0,-2.0
1702323650.8342006,-2.0,-2.0,-2.0,0.0,-1.0,-1.0,-2.0,-1.0
1702323650.8342006,-1.0,11.0,1.0,-2.0,-1.0,-1.0,-1.0,-1.0
1702323650.8342006,-2.0,-13.0,-2.0,-2.0,-1.0,-1.0,0.0,-1.0
1702323650.8342006,-1.0,-1.0,0.0,-1.0,0.0,-1.0,-1.0,0.0
1702323650.8445387,-1.0,-3.0,-1.0,-3.0,0.0,-1.0,-2.0,0.0
1702323650.8445387,0.0,-1.0,-2.0,-2.0,-1.0,0.0,-1.0,-1.0
1702323650.8445387,-2.0,0.0,-3.0,-2.0,-2.0,0.0,-1.0,-3.0
1702323650.8445387,-2.0,-2.0,0.0,-1.0,-2.0,-1.0,-2.0,-1.0
1702323650.8644962,1.0,0.0,-2.0,0.0,-3.0,-2.0,-1.0,-2.0
1702323650.8644962,-2.0,-4.0,-2.0,0.0,0.0,-1.0,1.0,-2.0
1702323650.8644962,0.0,1.0,-2.0,0.0,-2.0,-2.0,-1.0,0.0
1702323650.8644962,-1.0,-1.0,2.0,-1.0,0.0,0.0,-1.0,0.0
1702323650.8842013,-2.0,1.0,-2.0,-2.0,0.0,-1.0,-1.0,-1.0
1702323650.8842013,0.0,-3.0,-2.0,-1.0,-1.0,0.0,0.0,-1.0
1702323650.8842013,-1.0,1.0,-1.0,0.0,-1.0,0.0,-1.0,0.0
1702323650.8842013,-1.0,0.0,-1.0,0.0,0.0,-1.0,-1.0,-1.0
1702323650.9042342,0.0,-1.0,0.0,-1.0,-1.0,-2.0,0.0,-1.0
1702323650.9042342,-2.0,-1.0,-1.0,-2.0,-1.0,0.0,0.0,0.0
1702323650.9042342,-1.0,0.0,0.0,-2.0,0.0,0.0,-2.0,0.0
1702323650.9042342,0.0,-2.0,-2.0,-2.0,-2.0,-1.0,-1.0,0.0
1702323650.9242043,-1.0,-2.0,0.0,-2.0,-1.0,-1.0,1.0,-1.0
1702323650.9242043,-2.0,-4.0,-1.0,0.0,-2.0,-1.0,-1.0,-1.0
1702323650.9586294,0.0,0.0,0.0,-1.0,-2.0,-2.0,0.0,-2.0
1702323650.9596329,-1.0,-2.0,-2.0,-1.0,-1.0,-4.0,-1.0,-1.0
1702323650.961637,-1.0,-1.0,0.0,0.0,-1.0,1.0,1.0,2.0
1702323650.961637,-2.0,-1.0,-2.0,-1.0,0.0,0.0,-1.0,0.0
1702323650.961637,-2.0,-1.0,-2.0,1.0,-1.0,0.0,-2.0,-2.0
1702323650.961637,0.0,-3.0,1.0,0.0,0.0,1.0,-1.0,-1.0
1702323650.9700959,1.0,-3.0,0.0,-1.0,0.0,-1.0,-1.0,-2.0
1702323650.9700959,-1.0,-2.0,-2.0,-1.0,0.0,0.0,0.0,0.0
1702323650.9700959,0.0,0.0,-2.0,-1.0,-1.0,-1.0,2.0,1.0
1702323650.9711094,-1.0,-1.0,-1.0,-1.0,-2.0,1.0,0.0,-1.0
1702323650.9838707,-2.0,-1.0,-3.0,-1.0,0.0,-2.0,-2.0,-1.0
1702323650.9838707,-1.0,0.0,-1.0,-1.0,-1.0,-2.0,-3.0,-2.0
1702323650.9935763,-2.0,-2.0,0.0,0.0,-1.0,-3.0,-1.0,-2.0
1702323650.9935763,-1.0,0.0,-1.0,-2.0,-2.0,0.0,-1.0,-3.0
1702323651.0037155,-2.0,-1.0,0.0,-1.0,1.0,0.0,0.0,-3.0
1702323651.0037155,0.0,-1.0,-1.0,1.0,-2.0,-1.0,0.0,0.0
1702323651.0037155,0.0,1.0,-2.0,-1.0,-2.0,-1.0,-1.0,1.0
1702323651.0037155,0.0,0.0,-3.0,-1.0,-1.0,-2.0,-2.0,-1.0
1702323651.023646,-1.0,0.0,-1.0,-2.0,-2.0,-2.0,0.0,-1.0
1702323651.023646,-2.0,-1.0,-1.0,-1.0,-2.0,0.0,0.0,-1.0
1702323651.023646,0.0,-1.0,0.0,0.0,0.0,0.0,-1.0,-1.0
1702323651.023646,-2.0,-2.0,-1.0,-2.0,0.0,0.0,1.0,-1.0
1702323651.0440416,1.0,0.0,-1.0,-1.0,0.0,1.0,-2.0,-1.0
1702323651.0440416,-1.0,0.0,1.0,0.0,-1.0,1.0,1.0,0.0
1702323651.0536594,-1.0,-1.0,-2.0,-2.0,-2.0,0.0,-2.0,-1.0
1702323651.0536594,0.0,-1.0,-1.0,-1.0,-2.0,0.0,0.0,0.0
1702323651.0637069,-3.0,-2.0,-2.0,-1.0,0.0,-2.0,-2.0,0.0
1702323651.0637069,0.0,0.0,-2.0,-2.0,-2.0,-3.0,-1.0,-2.0
1702323651.0637069,-1.0,-3.0,-1.0,0.0,-1.0,-2.0,-1.0,1.0
1702323651.0637069,-2.0,-2.0,-2.0,-1.0,-1.0,-3.0,-1.0,-3.0
1702323651.083958,0.0,-1.0,-2.0,-2.0,-4.0,-3.0,-1.0,-1.0
1702323651.083958,-1.0,0.0,-3.0,-2.0,0.0,-1.0,0.0,-2.0
1702323651.083958,-1.0,0.0,-3.0,-5.0,-1.0,-2.0,-1.0,-1.0
1702323651.083958,-3.0,0.0,-1.0,0.0,0.0,-2.0,0.0,-1.0
1702323651.1039474,-1.0,0.0,2.0,3.0,0.0,2.0,0.0,-1.0
1702323651.1039474,-1.0,0.0,-1.0,-1.0,1.0,-1.0,-2.0,-2.0
1702323651.1236656,-1.0,0.0,1.0,0.0,0.0,-1.0,-1.0,0.0
1702323651.1236656,-1.0,-1.0,-2.0,-3.0,-1.0,-3.0,-2.0,0.0
1702323651.133655,-1.0,0.0,-1.0,-1.0,-4.0,-1.0,-2.0,-1.0
1702323651.133655,-1.0,-2.0,0.0,2.0,0.0,1.0,1.0,-1.0
1702323651.133655,-2.0,0.0,-2.0,-1.0,-1.0,0.0,-1.0,-2.0
1702323651.133655,-1.0,-2.0,-1.0,0.0,-1.0,-1.0,-1.0,1.0
1702323651.1439993,0.0,-1.0,-1.0,-2.0,-2.0,-2.0,-2.0,-2.0
1702323651.1439993,-2.0,-3.0,-1.0,-2.0,-2.0,-3.0,-4.0,-1.0
1702323651.1439993,1.0,0.0,0.0,-1.0,0.0,-1.0,0.0,0.0
1702323651.1439993,-2.0,-1.0,-1.0,-3.0,-1.0,-3.0,0.0,-1.0
1702323651.1636567,-3.0,0.0,2.0,1.0,-3.0,-1.0,-2.0,-1.0
1702323651.1636567,0.0,-1.0,-3.0,-2.0,-2.0,-3.0,-2.0,-2.0
1702323651.1736553,-1.0,-3.0,-2.0,0.0,1.0,-1.0,-1.0,-2.0
1702323651.1736553,-1.0,0.0,0.0,-1.0,0.0,0.0,0.0,-1.0
1702323651.184085,-1.0,-1.0,-3.0,-2.0,1.0,1.0,-2.0,-1.0
1702323651.184085,-2.0,0.0,-1.0,-2.0,-1.0,-1.0,0.0,-1.0
1702323651.184085,-1.0,-1.0,-1.0,-1.0,-2.0,-1.0,1.0,-1.0
1702323651.184085,-2.0,-2.0,-1.0,0.0,-2.0,0.0,-1.0,-1.0
1702323651.2040534,-1.0,-1.0,-2.0,-2.0,0.0,0.0,0.0,-1.0
1702323651.2040534,-1.0,-1.0,-1.0,-1.0,-2.0,-2.0,0.0,1.0
1702323651.2040534,-1.0,-1.0,-3.0,-2.0,-2.0,-1.0,-1.0,-1.0
1702323651.2040534,0.0,0.0,0.0,-1.0,-2.0,-2.0,0.0,-2.0
1702323651.223657,-1.0,1.0,-1.0,-1.0,1.0,0.0,-1.0,0.0
1702323651.223657,-2.0,-2.0,0.0,0.0,-1.0,-1.0,0.0,-1.0
1702323651.2336557,-2.0,-1.0,-1.0,-1.0,-1.0,-1.0,-1.0,-1.0
1702323651.2336557,-1.0,-1.0,-2.0,0.0,-2.0,-1.0,-1.0,0.0
1702323651.244029,-2.0,-2.0,0.0,0.0,0.0,-1.0,0.0,-2.0
1702323651.244029,0.0,1.0,-2.0,-4.0,-2.0,-1.0,-2.0,0.0
1702323651.244029,-1.0,0.0,0.0,0.0,-1.0,-1.0,1.0,0.0
1702323651.244029,-2.0,-1.0,-1.0,-1.0,-2.0,-1.0,-1.0,-1.0
1702323651.2640505,-1.0,-1.0,1.0,1.0,-2.0,-1.0,-1.0,1.0
1702323651.2640505,-1.0,-2.0,-3.0,-1.0,-2.0,0.0,-1.0,-1.0
1702323651.283865,-2.0,-1.0,-1.0,0.0,-1.0,-1.0,0.0,-3.0
1702323651.283865,-2.0,0.0,-1.0,0.0,0.0,-2.0,-3.0,-2.0
1702323651.283865,-1.0,-1.0,-2.0,-3.0,0.0,-4.0,0.0,-1.0
1702323651.283865,-1.0,-2.0,1.0,2.0,1.0,0.0,-2.0,-2.0
1702323651.283865,-3.0,-1.0,-1.0,-1.0,0.0,1.0,-2.0,0.0
1702323651.283865,-1.0,-1.0,-1.0,-1.0,0.0,0.0,0.0,-2.0
1702323651.3042278,-1.0,0.0,-2.0,-2.0,-2.0,-3.0,-1.0,-2.0
1702323651.3042278,0.0,1.0,0.0,0.0,1.0,0.0,-1.0,-1.0
1702323651.3042278,-1.0,0.0,-1.0,0.0,-1.0,-1.0,-1.0,-1.0
1702323651.3042278,-1.0,-3.0,0.0,0.0,0.0,1.0,-1.0,0.0
1702323651.324129,-2.0,-1.0,-1.0,-3.0,-1.0,-1.0,0.0,-2.0
1702323651.324129,-1.0,0.0,1.0,-1.0,-2.0,-1.0,-3.0,0.0
1702323651.324129,-1.0,-1.0,-1.0,-1.0,-1.0,-1.0,0.0,0.0
1702323651.324129,-1.0,2.0,-2.0,-2.0,-2.0,0.0,0.0,0.0
1702323651.3538706,0.0,0.0,-2.0,-3.0,-1.0,-1.0,0.0,-2.0
1702323651.3538706,2.0,0.0,0.0,3.0,1.0,-1.0,0.0,-1.0
1702323651.3538706,-4.0,4.0,1.0,0.0,-1.0,-1.0,0.0,-1.0
1702323651.3538706,-4.0,-13.0,-2.0,-2.0,-2.0,-1.0,-2.0,-1.0
1702323651.3641162,2.0,3.0,-2.0,-1.0,-2.0,0.0,-2.0,-1.0
1702323651.3641162,-6.0,-3.0,-1.0,-4.0,-3.0,-1.0,0.0,-3.0
1702323651.3641162,0.0,-1.0,-1.0,-1.0,0.0,0.0,-1.0,-2.0
1702323651.3641162,-1.0,6.0,0.0,-1.0,0.0,-2.0,0.0,0.0
1702323651.393864,-2.0,0.0,0.0,-1.0,-1.0,-2.0,-1.0,0.0
1702323651.393864,-3.0,-9.0,-2.0,-2.0,-1.0,-2.0,-1.0,0.0
