1702324082.5248864,7.0,23.0,2.0,-1.0,-2.0,-4.0,0.0,-1.0
1702324082.5248864,-12.0,-40.0,-20.0,-4.0,-2.0,-3.0,-2.0,-9.0
1702324082.5248864,-2.0,17.0,3.0,1.0,0.0,-1.0,2.0,7.0
1702324082.5248864,-4.0,-22.0,8.0,-1.0,-3.0,-4.0,-2.0,2.0
1702324082.554852,0.0,-5.0,-7.0,0.0,-1.0,-1.0,-3.0,-5.0
1702324082.554852,8.0,11.0,5.0,0.0,0.0,0.0,0.0,2.0
1702324082.554852,-12.0,-12.0,-1.0,-2.0,-2.0,-3.0,-4.0,-3.0
1702324082.554852,2.0,21.0,9.0,2.0,0.0,0.0,-1.0,-7.0
1702324082.554852,-8.0,-7.0,8.0,-3.0,-2.0,-1.0,-3.0,0.0
1702324082.554852,4.0,-14.0,-20.0,-4.0,-1.0,1.0,0.0,1.0
1702324082.56485,-1.0,-1.0,-3.0,1.0,-2.0,-1.0,-2.0,-2.0
1702324082.56485,7.0,22.0,4.0,2.0,0.0,-1.0,1.0,1.0
1702324082.5947506,-6.0,-16.0,3.0,-2.0,-1.0,-2.0,-1.0,-1.0
1702324082.5957568,3.0,4.0,8.0,2.0,1.0,3.0,0.0,-3.0
1702324082.6097522,2.0,-4.0,-26.0,-6.0,-3.0,-3.0,0.0,2.0
1702324082.6097522,-9.0,1.0,9.0,-1.0,0.0,1.0,1.0,-3.0
1702324082.6117504,4.0,6.0,-5.0,-4.0,-2.0,1.0,0.0,3.0
1702324082.6117504,-5.0,6.0,16.0,3.0,0.0,-2.0,-2.0,1.0
1702324082.6117504,-4.0,-16.0,3.0,-4.0,-1.0,-1.0,-1.0,-5.0
1702324082.6117504,6.0,-2.0,-5.0,1.0,0.0,1.0,-1.0,1.0
1702324082.6178665,5.0,-4.0,-1.0,0.0,-2.0,-1.0,-1.0,1.0
1702324082.6178665,-3.0,7.0,1.0,-2.0,-2.0,0.0,-2.0,0.0
1702324082.6279912,-2.0,-7.0,3.0,1.0,-2.0,-1.0,-2.0,-7.0
1702324082.6279912,-2.0,-23.0,-4.0,0.0,-4.0,-2.0,-3.0,0.0
1702324082.654884,-2.0,-7.0,-25.0,-7.0,-2.0,1.0,0.0,-2.0
1702324082.654884,4.0,10.0,8.0,-1.0,-1.0,1.0,1.0,2.0
1702324082.6648958,-4.0,7.0,2.0,-1.0,-1.0,-3.0,-1.0,-2.0
1702324082.6648958,-3.0,-4.0,4.0,1.0,-1.0,-2.0,-2.0,-1.0
1702324082.6748931,1.0,5.0,4.0,2.0,1.0,1.0,-1.0,-3.0
1702324082.6748931,0.0,3.0,10.0,2.0,-1.0,-1.0,-1.0,-1.0
1702324082.6748931,-1.0,3.0,10.0,-1.0,-1.0,3.0,-1.0,0.0
1702324082.6748931,7.0,-3.0,-20.0,-5.0,-2.0,-6.0,-1.0,0.0
1702324082.6748931,-10.0,-7.0,-14.0,-5.0,-1.0,-3.0,-3.0,-7.0
1702324082.6748931,-5.0,-7.0,3.0,0.0,1.0,-1.0,-2.0,-2.0
1702324082.684904,4.0,6.0,15.0,4.0,-1.0,-1.0,-1.0,3.0
1702324082.684904,-3.0,2.0,-5.0,-5.0,-2.0,-1.0,1.0,0.0
1702324082.714896,6.0,5.0,14.0,3.0,0.0,-1.0,0.0,3.0
1702324082.714896,1.0,3.0,-9.0,-1.0,2.0,1.0,0.0,1.0
1702324082.714896,-7.0,-16.0,-12.0,-3.0,-3.0,-2.0,-4.0,-10.0
1702324082.714896,2.0,5.0,0.0,-2.0,0.0,-1.0,1.0,0.0
1702324082.7251315,0.0,-2.0,13.0,3.0,-2.0,-2.0,-1.0,-2.0
1702324082.7251315,1.0,-21.0,-18.0,-1.0,1.0,1.0,1.0,1.0
1702324082.7251315,-2.0,11.0,-9.0,0.0,1.0,-2.0,0.0,-2.0
1702324082.7251315,-3.0,5.0,-9.0,-4.0,-3.0,-1.0,-3.0,-1.0
1702324082.7350674,3.0,2.0,5.0,-5.0,-4.0,-4.0,-1.0,-2.0
1702324082.7350674,2.0,5.0,15.0,1.0,-4.0,-2.0,-2.0,-1.0
1702324082.7448997,5.0,3.0,-2.0,2.0,1.0,2.0,-2.0,2.0
1702324082.7448997,-1.0,2.0,7.0,1.0,0.0,-3.0,-1.0,1.0
1702324082.7749002,1.0,-2.0,-11.0,-1.0,1.0,-1.0,1.0,0.0
1702324082.7749002,-8.0,0.0,1.0,1.0,-1.0,-2.0,-4.0,-4.0
1702324082.7948923,-2.0,10.0,14.0,2.0,2.0,-1.0,0.0,-1.0
1702324082.7948923,-2.0,-13.0,-20.0,-4.0,-2.0,-1.0,-3.0,-5.0
1702324082.7948923,-6.0,-6.0,-12.0,-1.0,-4.0,0.0,0.0,2.0
1702324082.7948923,-3.0,2.0,3.0,-1.0,-1.0,-2.0,1.0,2.0
1702324082.7948923,5.0,0.0,2.0,-2.0,-2.0,-7.0,0.0,1.0
1702324082.7948923,-6.0,11.0,-3.0,1.0,1.0,5.0,-1.0,-1.0
1702324082.7948923,-2.0,-4.0,20.0,1.0,-2.0,-4.0,-2.0,0.0
1702324082.7948923,6.0,10.0,-15.0,4.0,-2.0,0.0,-1.0,-1.0
1702324082.8048983,2.0,-8.0,2.0,-11.0,-4.0,-5.0,-1.0,1.0
1702324082.8048983,7.0,5.0,8.0,10.0,0.0,-1.0,-1.0,1.0
1702324082.824893,-9.0,-19.0,-25.0,-6.0,0.0,2.0,-4.0,-8.0
1702324082.824893,-9.0,-4.0,22.0,4.0,-1.0,-2.0,0.0,-2.0
1702324082.824893,1.0,-1.0,-6.0,-1.0,2.0,-1.0,-1.0,2.0
1702324082.824893,4.0,22.0,-17.0,-3.0,-3.0,-2.0,-1.0,3.0
1702324082.8449342,-6.0,-18.0,-4.0,-3.0,-1.0,-1.0,1.0,-2.0
1702324082.8449342,-1.0,2.0,3.0,-3.0,-2.0,-2.0,-1.0,-5.0
1702324082.8449342,0.0,-2.0,1.0,-2.0,-2.0,1.0,-1.0,-1.0
1702324082.8449342,-2.0,-2.0,0.0,-4.0,0.0,3.0,0.0,-4.0
1702324082.8552399,-3.0,8.0,12.0,3.0,2.0,0.0,0.0,3.0
1702324082.8552399,3.0,-15.0,-43.0,-10.0,-3.0,0.0,-3.0,2.0
1702324082.8748946,0.0,7.0,20.0,4.0,1.0,-11.0,1.0,0.0
1702324082.8748946,-1.0,-1.0,23.0,3.0,0.0,8.0,-3.0,-2.0
1702324082.8851964,6.0,0.0,-5.0,0.0,0.0,5.0,0.0,-2.0
1702324082.8851964,1.0,4.0,-15.0,-2.0,-1.0,0.0,-1.0,2.0
1702324082.8851964,-5.0,-5.0,-11.0,-1.0,-1.0,3.0,-4.0,-2.0
1702324082.8851964,-4.0,-12.0,9.0,-5.0,-2.0,-8.0,0.0,1.0
1702324082.9052324,1.0,14.0,11.0,-2.0,3.0,1.0,2.0,2.0
1702324082.9052324,-2.0,-8.0,1.0,-8.0,-5.0,-3.0,-3.0,-7.0
1702324082.9052324,-6.0,4.0,-14.0,15.0,5.0,4.0,-1.0,0.0
1702324082.9052324,-11.0,-1.0,8.0,1.0,0.0,-5.0,-1.0,-3.0
1702324082.915196,1.0,1.0,-7.0,9.0,2.0,-1.0,-1.0,2.0
1702324082.915196,4.0,10.0,7.0,-2.0,1.0,-1.0,0.0,1.0
1702324082.934894,-3.0,-14.0,-3.0,-9.0,-4.0,0.0,-1.0,-2.0
1702324082.934894,-4.0,2.0,27.0,-4.0,-2.0,0.0,0.0,0.0
1702324082.9450614,-2.0,-3.0,-42.0,-8.0,-5.0,-4.0,-4.0,-4.0
1702324082.9450614,-7.0,1.0,12.0,2.0,-2.0,-3.0,-3.0,-3.0
1702324082.9450614,4.0,4.0,-4.0,-1.0,-2.0,4.0,-1.0,-2.0
1702324082.9450614,1.0,-7.0,-20.0,-2.0,0.0,4.0,0.0,1.0
1702324082.965205,-3.0,-1.0,20.0,-3.0,-3.0,2.0,0.0,0.0
1702324082.965205,-3.0,-9.0,3.0,-4.0,-2.0,-3.0,0.0,-2.0
1702324082.965205,3.0,6.0,-14.0,0.0,-2.0,0.0,-1.0,-4.0
1702324082.965205,2.0,8.0,0.0,1.0,-2.0,-4.0,-2.0,0.0
1702324082.984894,1.0,-9.0,0.0,-1.0,1.0,-2.0,-2.0,0.0
1702324082.984894,3.0,1.0,2.0,-5.0,-3.0,1.0,-1.0,-2.0
1702324082.984894,-6.0,-15.0,13.0,6.0,2.0,1.0,3.0,2.0
1702324082.984894,4.0,2.0,4.0,-8.0,-2.0,-3.0,-2.0,-3.0
1702324083.0052495,-13.0,-10.0,-28.0,-2.0,-5.0,-4.0,-3.0,-8.0
1702324083.0052495,3.0,6.0,10.0,20.0,12.0,2.0,0.0,3.0
1702324083.0052495,3.0,0.0,-13.0,-11.0,-2.0,-2.0,-1.0,-1.0
1702324083.0052495,1.0,18.0,20.0,6.0,-1.0,-1.0,-1.0,-2.0
1702324083.0250807,-5.0,-17.0,8.0,-2.0,-4.0,-4.0,-2.0,0.0
1702324083.0250807,3.0,1.0,11.0,-4.0,-5.0,-2.0,-1.0,-1.0
1702324083.0250807,6.0,3.0,1.0,1.0,2.0,0.0,-2.0,2.0
1702324083.0250807,-9.0,2.0,-12.0,-4.0,-2.0,-2.0,-2.0,-5.0
1702324083.0448935,0.0,-5.0,-9.0,-7.0,-4.0,-1.0,-1.0,0.0
1702324083.0448935,-1.0,4.0,4.0,-6.0,-4.0,-1.0,-3.0,-4.0
1702324083.0448935,1.0,2.0,18.0,7.0,-1.0,1.0,0.0,2.0
1702324083.0448935,-8.0,-8.0,-43.0,-1.0,2.0,-1.0,-1.0,-2.0
1702324083.0651488,3.0,15.0,23.0,1.0,-1.0,-4.0,-1.0,-1.0
1702324083.0651488,1.0,-6.0,-6.0,0.0,-2.0,-2.0,-1.0,-2.0
1702324083.0651488,1.0,-1.0,1.0,-2.0,0.0,3.0,0.0,1.0
1702324083.0651488,-2.0,-3.0,14.0,1.0,-1.0,3.0,1.0,1.0
1702324083.0850747,-2.0,5.0,-12.0,-2.0,-2.0,-5.0,-2.0,-3.0
1702324083.0850747,-3.0,-9.0,-7.0,-2.0,-3.0,-1.0,-1.0,-1.0
1702324083.0850747,1.0,-3.0,-11.0,-6.0,-2.0,4.0,-1.0,-4.0
1702324083.0850747,4.0,6.0,5.0,3.0,1.0,-2.0,-2.0,2.0
1702324083.1272514,6.0,-10.0,-7.0,2.0,2.0,3.0,1.0,1.0
1702324083.1272514,2.0,-5.0,19.0,-7.0,-2.0,-4.0,0.0,0.0
1702324083.1272514,-7.0,-8.0,-46.0,5.0,0.0,-4.0,-1.0,-4.0
1702324083.1272514,3.0,-9.0,3.0,-5.0,-3.0,-3.0,-2.0,-2.0
1702324083.1272514,-1.0,12.0,3.0,-6.0,0.0,0.0,0.0,1.0
1702324083.1272514,-6.0,3.0,0.0,8.0,-1.0,-4.0,-3.0,-7.0
1702324083.1272514,2.0,15.0,6.0,-1.0,-1.0,-2.0,-1.0,2.0
1702324083.1272514,-2.0,-15.0,-5.0,-1.0,-2.0,0.0,1.0,-1.0
1702324083.1482322,0.0,-2.0,7.0,-3.0,-5.0,-2.0,-2.0,-3.0
1702324083.1482322,-1.0,7.0,-5.0,-2.0,1.0,3.0,2.0,5.0
1702324083.1501641,-10.0,-13.0,10.0,-6.0,-3.0,-4.0,-5.0,-7.0
1702324083.1501641,5.0,0.0,-3.0,2.0,2.0,1.0,-1.0,1.0
1702324083.166084,2.0,8.0,2.0,-1.0,2.0,0.0,-1.0,-1.0
1702324083.166084,0.0,0.0,-6.0,0.0,-1.0,2.0,-1.0,2.0
1702324083.1710832,-4.0,-7.0,-14.0,-6.0,-5.0,-1.0,0.0,-1.0
1702324083.1710832,-4.0,-8.0,6.0,1.0,-2.0,-3.0,-1.0,-6.0
1702324083.1866539,5.0,-4.0,-10.0,0.0,-2.0,0.0,1.0,3.0
1702324083.1866539,-3.0,7.0,2.0,1.0,1.0,-2.0,0.0,-1.0
1702324083.188257,-7.0,1.0,13.0,1.0,0.0,-1.0,-1.0,-2.0
1702324083.188257,0.0,-3.0,-8.0,-3.0,-1.0,-2.0,-2.0,1.0
1702324083.2115915,-8.0,-8.0,-4.0,1.0,-1.0,-2.0,-2.0,-1.0
1702324083.2115915,2.0,0.0,-5.0,-2.0,-1.0,-2.0,-1.0,-2.0
1702324083.2115915,-3.0,1.0,29.0,1.0,-3.0,-1.0,-1.0,0.0
1702324083.2115915,0.0,-10.0,-3.0,1.0,-2.0,0.0,0.0,-1.0
1702324083.223954,0.0,5.0,-4.0,-9.0,-3.0,-1.0,-2.0,-3.0
1702324083.223954,-6.0,-7.0,8.0,5.0,1.0,-1.0,1.0,-1.0
1702324083.2329502,1.0,1.0,-13.0,-6.0,-1.0,-4.0,0.0,-2.0
1702324083.2329502,-3.0,-6.0,-15.0,-3.0,2.0,1.0,-1.0,2.0
1702324083.2476013,-2.0,6.0,13.0,0.0,0.0,1.0,-1.0,-2.0
1702324083.2476013,0.0,-4.0,1.0,5.0,0.0,-2.0,0.0,-2.0
1702324083.2485938,3.0,-4.0,0.0,-1.0,1.0,1.0,0.0,3.0
1702324083.2485938,-5.0,-4.0,-4.0,-6.0,-3.0,-5.0,-4.0,-3.0
1702324083.2875276,-2.0,-12.0,-3.0,5.0,1.0,0.0,0.0,1.0
1702324083.2875276,-1.0,4.0,-6.0,-8.0,-4.0,-2.0,-1.0,0.0
1702324083.2875276,-1.0,5.0,3.0,2.0,-1.0,-3.0,-4.0,-2.0
1702324083.2875276,0.0,-4.0,-2.0,-2.0,-2.0,-1.0,-2.0,0.0
1702324083.2875276,-4.0,-3.0,7.0,-6.0,-1.0,-2.0,-1.0,-1.0
1702324083.2875276,1.0,-1.0,-14.0,1.0,-3.0,3.0,1.0,-2.0
1702324083.2915292,2.0,-6.0,-3.0,4.0,2.0,-2.0,1.0,5.0
1702324083.2915292,-2.0,3.0,6.0,0.0,-1.0,-2.0,-1.0,-3.0
1702324083.3070993,-1.0,13.0,6.0,0.0,-2.0,0.0,-3.0,-1.0
1702324083.3070993,0.0,-7.0,0.0,-2.0,1.0,-2.0,0.0,2.0
1702324083.3080993,-3.0,-10.0,-11.0,-10.0,-3.0,-1.0,-1.0,-1.0
1702324083.309105,-2.0,6.0,7.0,1.0,0.0,-2.0,0.0,-1.0
1702324083.3471854,0.0,4.0,-9.0,-5.0,-1.0,0.0,1.0,0.0
1702324083.3471854,-3.0,1.0,-13.0,-18.0,-6.0,-4.0,-2.0,-1.0
1702324083.3471854,4.0,-3.0,-5.0,17.0,5.0,1.0,-1.0,-3.0
1702324083.3471854,-2.0,-3.0,6.0,5.0,0.0,-1.0,1.0,-1.0
1702324083.3471854,1.0,-2.0,4.0,5.0,-1.0,0.0,0.0,2.0
1702324083.3471854,-5.0,8.0,0.0,-5.0,-4.0,-4.0,-4.0,-8.0
1702324083.3471854,0.0,-10.0,-18.0,-19.0,-8.0,-3.0,-3.0,-1.0
1702324083.3471854,-3.0,3.0,5.0,-1.0,-4.0,-1.0,-2.0,-2.0
1702324083.3575969,1.0,0.0,-6.0,-1.0,2.0,0.0,-2.0,-1.0
1702324083.3661437,-5.0,-12.0,1.0,8.0,0.0,1.0,-2.0,0.0
1702324083.3661437,2.0,10.0,11.0,3.0,0.0,-1.0,-2.0,-1.0
1702324083.3661437,2.0,1.0,11.0,0.0,0.0,-1.0,0.0,2.0
1702324083.3861558,-3.0,-4.0,-30.0,-1.0,1.0,2.0,1.0,-1.0
1702324083.3861558,2.0,2.0,13.0,11.0,2.0,2.0,-1.0,1.0
1702324083.3861558,-3.0,0.0,-5.0,-13.0,-5.0,-3.0,-1.0,-2.0
1702324083.3861558,0.0,-2.0,-9.0,13.0,-1.0,-1.0,-1.0,1.0
1702324083.406539,-3.0,1.0,33.0,0.0,-2.0,-3.0,0.0,-3.0
1702324083.406539,3.0,-5.0,-24.0,-6.0,-3.0,-1.0,-1.0,0.0
1702324083.406539,-2.0,-1.0,-7.0,-5.0,1.0,1.0,-1.0,-1.0
1702324083.406539,-1.0,5.0,11.0,1.0,-3.0,0.0,0.0,0.0
1702324083.426159,2.0,-2.0,-15.0,-3.0,-4.0,-5.0,-4.0,-2.0
1702324083.426159,-6.0,-14.0,-4.0,-12.0,-3.0,-1.0,0.0,-3.0
1702324083.426159,-1.0,5.0,8.0,7.0,8.0,1.0,-2.0,0.0
1702324083.426159,-1.0,-4.0,-20.0,-20.0,-7.0,-3.0,-1.0,-3.0
1702324083.4462337,1.0,3.0,6.0,-5.0,1.0,1.0,0.0,0.0
1702324083.4462337,0.0,1.0,15.0,48.0,9.0,1.0,2.0,3.0
1702324083.4462337,-1.0,4.0,-5.0,-2.0,9.0,1.0,0.0,0.0
1702324083.4462337,-3.0,-7.0,-12.0,-1.0,2.0,0.0,0.0,0.0
1702324083.4666674,0.0,6.0,-10.0,-16.0,-8.0,-2.0,-2.0,1.0
1702324083.4666674,-1.0,-4.0,16.0,-22.0,-10.0,-4.0,-4.0,-2.0
1702324083.4666674,-3.0,-8.0,0.0,1.0,-6.0,-2.0,-2.0,-2.0
1702324083.4666674,-2.0,5.0,2.0,-3.0,-1.0,-1.0,-2.0,-8.0
1702324083.476613,-1.0,2.0,-4.0,-2.0,-3.0,-3.0,0.0,0.0
1702324083.476613,1.0,-5.0,-12.0,-4.0,1.0,2.0,-1.0,0.0
1702324083.496234,1.0,5.0,12.0,10.0,-3.0,2.0,0.0,0.0
1702324083.496234,-3.0,-8.0,-13.0,-15.0,-2.0,-3.0,-3.0,1.0
1702324083.5066447,-1.0,-1.0,1.0,7.0,4.0,-2.0,-3.0,-5.0
1702324083.5066447,-4.0,-1.0,7.0,2.0,0.0,-3.0,-2.0,-2.0
1702324083.5066447,0.0,11.0,-8.0,-3.0,-10.0,-4.0,-1.0,3.0
1702324083.5066447,5.0,-11.0,-7.0,1.0,6.0,0.0,-1.0,2.0
1702324083.5262349,4.0,-2.0,12.0,8.0,-3.0,2.0,2.0,2.0
1702324083.5262349,1.0,13.0,3.0,-2.0,15.0,2.0,1.0,1.0
1702324083.5262349,-16.0,-28.0,-7.0,-13.0,-2.0,0.0,-3.0,-8.0
1702324083.5262349,-2.0,-7.0,-5.0,7.0,2.0,4.0,2.0,1.0
1702324083.5362332,0.0,-6.0,0.0,-11.0,-1.0,-4.0,-1.0,-3.0
1702324083.5362332,2.0,-1.0,-20.0,-22.0,-9.0,-3.0,0.0,2.0
1702324083.5462348,5.0,12.0,7.0,6.0,2.0,0.0,1.0,3.0
1702324083.5462348,0.0,5.0,12.0,0.0,-4.0,-3.0,-3.0,-4.0
1702324083.5664039,0.0,4.0,-12.0,0.0,-5.0,-3.0,-5.0,-8.0
1702324083.5664039,-13.0,-13.0,-4.0,-7.0,-4.0,-1.0,0.0,0.0
1702324083.5664039,5.0,9.0,2.0,2.0,-1.0,-4.0,-3.0,0.0
1702324083.5664039,1.0,5.0,3.0,5.0,2.0,0.0,-1.0,-6.0
1702324083.5962377,-3.0,-14.0,3.0,5.0,0.0,1.0,-1.0,5.0
1702324083.5962377,-7.0,-34.0,-7.0,0.0,-3.0,-6.0,-4.0,-1.0
1702324083.6062362,6.0,26.0,3.0,-2.0,-3.0,-5.0,-10.0,-2.0
1702324083.6062362,-11.0,-9.0,0.0,0.0,-1.0,10.0,9.0,1.0
1702324083.6062362,9.0,24.0,1.0,1.0,2.0,3.0,1.0,0.0
1702324083.6062362,13.0,-6.0,-1.0,4.0,1.0,3.0,3.0,4.0
1702324083.6062362,-11.0,3.0,-4.0,2.0,1.0,-1.0,1.0,1.0
1702324083.6062362,5.0,5.0,-12.0,-3.0,-3.0,-7.0,-6.0,0.0
1702324083.6265423,-3.0,3.0,23.0,3.0,2.0,0.0,0.0,-1.0
1702324083.6265423,4.0,8.0,5.0,1.0,1.0,-2.0,-1.0,-4.0
1702324083.6265423,-3.0,-14.0,-21.0,-5.0,-4.0,-1.0,0.0,-2.0
1702324083.6265423,-9.0,-19.0,-2.0,-4.0,-2.0,-3.0,-4.0,-1.0
1702324083.6570659,-5.0,-5.0,-20.0,1.0,-1.0,2.0,-1.0,-2.0
1702324083.6570659,-3.0,-11.0,15.0,-4.0,-6.0,-9.0,-5.0,-3.0
1702324083.6630669,-2.0,-3.0,7.0,-6.0,-3.0,0.0,-2.0,-3.0
1702324083.6630669,8.0,24.0,16.0,4.0,4.0,5.0,4.0,2.0
1702324083.6739955,-3.0,-29.0,9.0,6.0,2.0,1.0,1.0,-4.0
1702324083.6739955,-1.0,7.0,-18.0,-4.0,-3.0,-2.0,-2.0,-4.0
1702324083.67479,0.0,-28.0,-12.0,0.0,-2.0,0.0,1.0,-1.0
1702324083.67479,-2.0,10.0,3.0,-2.0,-3.0,-8.0,-5.0,-1.0
1702324083.6881797,-10.0,-3.0,4.0,2.0,-2.0,-3.0,-1.0,3.0
1702324083.6881797,13.0,30.0,6.0,-1.0,-3.0,0.0,-5.0,-1.0
1702324083.6892765,-9.0,-7.0,-7.0,-18.0,-5.0,-4.0,6.0,-1.0
1702324083.6892765,3.0,-6.0,-5.0,5.0,1.0,3.0,0.0,-1.0
1702324083.714069,6.0,12.0,-14.0,22.0,5.0,-7.0,-7.0,-8.0
1702324083.714069,-13.0,5.0,49.0,-7.0,-1.0,7.0,3.0,-1.0
1702324083.7200668,-2.0,-2.0,-10.0,-5.0,-1.0,0.0,-3.0,-2.0
1702324083.7200668,1.0,-9.0,-18.0,-4.0,-1.0,1.0,-2.0,-1.0
1702324083.7250812,0.0,5.0,12.0,-7.0,-6.0,-7.0,-1.0,2.0
1702324083.7250812,-3.0,-5.0,-40.0,-4.0,-4.0,-2.0,-1.0,-1.0
1702324083.7334123,0.0,-2.0,8.0,-4.0,0.0,-1.0,-2.0,-2.0
1702324083.7334123,-11.0,-5.0,-5.0,-11.0,-11.0,-4.0,-2.0,-3.0
1702324083.7478564,1.0,-5.0,1.0,5.0,4.0,-5.0,-4.0,0.0
1702324083.7478564,7.0,14.0,19.0,3.0,0.0,9.0,4.0,2.0
1702324083.7573001,-9.0,-7.0,6.0,1.0,-2.0,3.0,-5.0,-4.0
1702324083.7573001,1.0,-2.0,0.0,1.0,0.0,-2.0,0.0,2.0
1702324083.7713075,-3.0,1.0,-15.0,-3.0,-2.0,2.0,4.0,-4.0
1702324083.7713075,3.0,4.0,-14.0,-5.0,0.0,-4.0,1.0,-3.0
1702324083.7713075,-2.0,-8.0,2.0,3.0,0.0,1.0,1.0,1.0
1702324083.7713075,-2.0,14.0,13.0,5.0,1.0,-1.0,0.0,2.0
1702324083.7848804,7.0,-6.0,-5.0,-20.0,-7.0,-4.0,-5.0,2.0
1702324083.7848804,-17.0,-11.0,8.0,18.0,3.0,-2.0,-3.0,-3.0
1702324083.79356,-2.0,6.0,-16.0,-7.0,-1.0,-1.0,-1.0,-7.0
1702324083.79356,-2.0,-5.0,8.0,9.0,2.0,-2.0,-2.0,1.0
1702324083.8085697,-6.0,0.0,3.0,7.0,3.0,6.0,2.0,2.0
1702324083.8085697,9.0,1.0,-12.0,-2.0,-4.0,-3.0,-4.0,0.0
1702324083.8085697,6.0,10.0,10.0,7.0,0.0,-1.0,-1.0,3.0
1702324083.8085697,-4.0,-4.0,4.0,-9.0,-4.0,-4.0,-4.0,-4.0
1702324083.8391783,2.0,6.0,-8.0,-8.0,-1.0,3.0,2.0,0.0
1702324083.8391783,3.0,26.0,-12.0,4.0,4.0,-1.0,2.0,2.0
1702324083.8391783,-13.0,-32.0,8.0,-3.0,-3.0,-1.0,-3.0,-11.0
1702324083.8391783,-2.0,-16.0,-29.0,-12.0,-5.0,-3.0,-2.0,-3.0
1702324083.8447719,-5.0,-11.0,-2.0,1.0,-1.0,-4.0,-5.0,-5.0
1702324083.845579,-13.0,0.0,14.0,-1.0,0.0,-1.0,-1.0,1.0
1702324083.8527675,12.0,10.0,-13.0,4.0,-3.0,-3.0,0.0,5.0
1702324083.8527675,-2.0,-3.0,18.0,4.0,2.0,3.0,4.0,-1.0
1702324083.867963,-7.0,-6.0,6.0,-4.0,-3.0,-1.0,-5.0,-7.0
1702324083.867963,10.0,16.0,-11.0,-4.0,-1.0,-2.0,-8.0,1.0
1702324083.8690095,-10.0,-2.0,5.0,4.0,1.0,1.0,10.0,0.0
1702324083.8690095,13.0,4.0,8.0,3.0,0.0,-1.0,-2.0,-1.0
1702324083.8901968,-6.0,6.0,6.0,-6.0,-4.0,-1.0,-1.0,-2.0
1702324083.8911963,4.0,-10.0,-15.0,-6.0,-1.0,-4.0,-4.0,-6.0
1702324083.8931963,8.0,17.0,0.0,7.0,2.0,-1.0,-2.0,1.0
1702324083.8931963,-1.0,-6.0,-11.0,2.0,0.0,0.0,-2.0,2.0
1702324083.905349,3.0,-11.0,10.0,11.0,5.0,-2.0,1.0,-3.0
1702324083.905349,-5.0,-29.0,-24.0,-8.0,-4.0,-4.0,-1.0,-2.0
1702324083.9128964,4.0,16.0,0.0,-2.0,0.0,-1.0,-2.0,-1.0
1702324083.9128964,0.0,1.0,-21.0,-15.0,-1.0,2.0,1.0,1.0
1702324083.928491,-2.0,9.0,-8.0,-10.0,-6.0,-3.0,-1.0,2.0
1702324083.9294446,6.0,0.0,21.0,19.0,7.0,1.0,-3.0,5.0
1702324083.9294446,1.0,11.0,15.0,17.0,5.0,2.0,10.0,-3.0
1702324083.9294446,-4.0,4.0,13.0,5.0,-1.0,-3.0,-6.0,-1.0
1702324083.9508336,4.0,2.0,-37.0,-17.0,-6.0,3.0,0.0,2.0
1702324083.9508336,-14.0,4.0,-4.0,-11.0,-5.0,-4.0,-1.0,-6.0
1702324083.9508336,-3.0,-9.0,10.0,-11.0,-8.0,-4.0,-7.0,1.0
1702324083.9508336,1.0,1.0,-10.0,2.0,4.0,0.0,0.0,-1.0
1702324083.9652412,4.0,-2.0,13.0,25.0,3.0,-1.0,3.0,0.0
1702324083.9659843,0.0,0.0,4.0,-4.0,2.0,4.0,0.0,1.0
1702324083.9729834,6.0,-6.0,6.0,-1.0,-2.0,-2.0,-7.0,0.0
1702324083.9729834,-4.0,-4.0,-5.0,-13.0,-8.0,-6.0,0.0,0.0
1702324083.9881933,-6.0,1.0,10.0,-6.0,-2.0,-5.0,-6.0,-2.0
1702324083.9881933,5.0,-6.0,-4.0,1.0,0.0,1.0,4.0,0.0
1702324083.9889534,-1.0,10.0,-3.0,-3.0,3.0,6.0,6.0,0.0
1702324083.9889534,8.0,-13.0,16.0,3.0,0.0,4.0,3.0,-1.0
1702324084.0105662,-3.0,2.0,-15.0,-1.0,3.0,0.0,0.0,1.0
1702324084.0105662,-17.0,-5.0,-1.0,7.0,-3.0,-4.0,-3.0,-5.0
1702324084.0116093,16.0,16.0,-2.0,-1.0,2.0,-6.0,-3.0,3.0
1702324084.0116093,-2.0,26.0,21.0,0.0,-4.0,-4.0,-1.0,-2.0
1702324084.0254962,3.0,-9.0,-13.0,-11.0,-3.0,0.0,-1.0,-5.0
1702324084.0254962,-15.0,-27.0,-14.0,-19.0,-7.0,-6.0,-3.0,-5.0
1702324084.032589,4.0,-5.0,-4.0,3.0,2.0,2.0,-1.0,0.0
1702324084.0334597,6.0,24.0,26.0,16.0,5.0,0.0,-1.0,0.0
1702324084.0510333,-3.0,3.0,16.0,0.0,0.0,-2.0,-1.0,1.0
1702324084.0510333,9.0,13.0,-2.0,-3.0,-2.0,-6.0,1.0,2.0
1702324084.0510333,-8.0,7.0,-11.0,-8.0,-5.0,1.0,-5.0,-6.0
1702324084.0510333,-6.0,-21.0,-7.0,-9.0,-2.0,0.0,-1.0,-1.0
1702324084.0711086,-4.0,-16.0,-7.0,-3.0,-1.0,2.0,-2.0,-3.0
1702324084.0711086,4.0,11.0,-3.0,-1.0,-1.0,3.0,4.0,2.0
1702324084.0711086,-5.0,-17.0,-3.0,-2.0,-5.0,-9.0,-11.0,-4.0
1702324084.0711086,4.0,-7.0,20.0,13.0,5.0,1.0,7.0,1.0
1702324084.0847306,-2.0,-1.0,-49.0,-3.0,-1.0,4.0,2.0,2.0
1702324084.0847306,1.0,-3.0,13.0,0.0,0.0,-3.0,0.0,-1.0
1702324084.0927851,-6.0,-11.0,-11.0,0.0,-1.0,0.0,-3.0,2.0
1702324084.0927851,-15.0,0.0,-5.0,-10.0,-4.0,1.0,-6.0,-4.0
1702324084.1083472,3.0,17.0,11.0,4.0,0.0,-3.0,-1.0,1.0
1702324084.1083472,-1.0,-9.0,19.0,0.0,-2.0,2.0,-2.0,-10.0
1702324084.1091194,2.0,-8.0,-18.0,-2.0,1.0,-5.0,-5.0,-2.0
1702324084.1091194,2.0,0.0,-6.0,-1.0,-3.0,-3.0,-2.0,-5.0
1702324084.13059,-6.0,3.0,15.0,-1.0,0.0,0.0,0.0,4.0
1702324084.131584,-2.0,-35.0,0.0,-2.0,-3.0,-1.0,0.0,-3.0
1702324084.1350155,-6.0,-4.0,8.0,0.0,-1.0,0.0,-1.0,0.0
1702324084.1350155,4.0,3.0,-35.0,-10.0,-1.0,-3.0,-5.0,-1.0
1702324084.1452093,0.0,-27.0,2.0,4.0,-1.0,-2.0,-2.0,2.0
1702324084.1452093,-5.0,11.0,-2.0,3.0,1.0,0.0,-2.0,0.0
1702324084.1528566,-4.0,8.0,19.0,-2.0,-3.0,-5.0,0.0,-2.0
1702324084.1528566,1.0,0.0,-7.0,1.0,0.0,0.0,-1.0,-4.0
1702324084.1684086,1.0,0.0,-10.0,-5.0,-1.0,1.0,3.0,-1.0
1702324084.1684086,3.0,4.0,-6.0,-1.0,-2.0,1.0,-3.0,2.0
1702324084.1684086,3.0,3.0,-2.0,1.0,1.0,3.0,4.0,0.0
1702324084.1684086,-1.0,-6.0,-18.0,-4.0,-2.0,-10.0,1.0,0.0
1702324084.1910663,-11.0,-6.0,17.0,3.0,2.0,5.0,-3.0,-7.0
1702324084.1910663,2.0,11.0,-5.0,-1.0,-3.0,-5.0,-7.0,0.0
1702324084.1910663,0.0,-2.0,5.0,-1.0,0.0,2.0,6.0,1.0
1702324084.1910663,5.0,-7.0,-14.0,3.0,-4.0,-1.0,-1.0,-2.0
1702324084.2055757,-9.0,6.0,18.0,1.0,-1.0,-3.0,3.0,7.0
1702324084.2055757,0.0,-1.0,-17.0,-2.0,1.0,0.0,1.0,4.0
1702324084.2128747,7.0,5.0,5.0,-3.0,-1.0,-1.0,-5.0,-2.0
1702324084.2135692,-7.0,9.0,11.0,7.0,0.0,0.0,1.0,2.0
1702324084.230754,-9.0,-15.0,2.0,-6.0,-3.0,-1.0,0.0,-2.0
1702324084.230754,3.0,6.0,-9.0,-9.0,-3.0,-3.0,-3.0,-4.0
1702324084.230754,8.0,-6.0,-7.0,-4.0,-2.0,0.0,-1.0,-1.0
1702324084.230754,-5.0,-6.0,6.0,-2.0,0.0,0.0,-2.0,-4.0
1702324084.2512584,6.0,13.0,21.0,8.0,1.0,-1.0,-3.0,-5.0
1702324084.2512584,-6.0,2.0,13.0,2.0,0.0,0.0,2.0,3.0
1702324084.2522223,-3.0,-5.0,-8.0,-5.0,-3.0,-4.0,-5.0,-3.0
1702324084.253222,7.0,0.0,-23.0,-21.0,-3.0,-1.0,2.0,4.0
1702324084.2810025,-2.0,-3.0,-12.0,12.0,2.0,5.0,-4.0,-1.0
1702324084.2810025,0.0,-4.0,8.0,11.0,6.0,6.0,6.0,-1.0
1702324084.2810025,-4.0,-1.0,9.0,5.0,0.0,0.0,-2.0,-2.0
1702324084.2810025,-4.0,7.0,3.0,-2.0,-1.0,-7.0,-7.0,-1.0
1702324084.2885756,6.0,7.0,6.0,-11.0,-4.0,-1.0,4.0,1.0
1702324084.2885756,-1.0,-18.0,-1.0,-3.0,-2.0,-1.0,-3.0,-4.0
1702324084.2885756,-4.0,2.0,-8.0,3.0,0.0,0.0,1.0,-2.0
1702324084.2885756,-3.0,-8.0,-3.0,6.0,2.0,0.0,-1.0,4.0
1702324084.3114276,7.0,-2.0,-30.0,-13.0,-4.0,-4.0,-2.0,-2.0
1702324084.3114276,6.0,8.0,1.0,2.0,-2.0,-2.0,0.0,3.0
1702324084.3114276,-5.0,-1.0,7.0,-3.0,2.0,-2.0,-2.0,-2.0
1702324084.3114276,-15.0,2.0,20.0,-3.0,-3.0,-7.0,-3.0,-3.0
1702324084.335551,7.0,-4.0,-6.0,2.0,1.0,4.0,1.0,-12.0
1702324084.335551,-1.0,0.0,-17.0,-7.0,-3.0,3.0,-10.0,6.0
1702324084.335551,-4.0,-3.0,-5.0,-3.0,-4.0,-4.0,11.0,-7.0
1702324084.335551,5.0,-3.0,5.0,3.0,2.0,3.0,-1.0,-2.0
1702324084.349531,0.0,4.0,-2.0,4.0,1.0,-7.0,0.0,6.0
1702324084.349531,-2.0,3.0,1.0,-2.0,-3.0,1.0,-4.0,2.0
1702324084.3505247,-8.0,-4.0,-16.0,0.0,0.0,-9.0,-10.0,-10.0
1702324084.3505247,2.0,7.0,23.0,4.0,1.0,7.0,2.0,-4.0
1702324084.3719063,0.0,-15.0,1.0,-6.0,-1.0,4.0,7.0,-1.0
1702324084.3719063,10.0,19.0,23.0,4.0,0.0,-5.0,4.0,6.0
1702324084.3719063,3.0,-12.0,8.0,0.0,0.0,1.0,0.0,10.0
1702324084.3719063,0.0,0.0,4.0,1.0,-2.0,1.0,-2.0,0.0
1702324084.3952103,3.0,-1.0,-25.0,0.0,-3.0,-6.0,-10.0,-2.0
1702324084.3952103,-8.0,1.0,8.0,4.0,0.0,-1.0,5.0,-3.0
1702324084.3952103,1.0,25.0,-10.0,-2.0,-3.0,2.0,-1.0,2.0
1702324084.3952103,-8.0,-35.0,-14.0,1.0,1.0,-5.0,-5.0,-9.0
1702324084.4085062,-3.0,7.0,14.0,-3.0,-1.0,-1.0,-3.0,0.0
1702324084.4085062,1.0,-18.0,-34.0,-4.0,0.0,-3.0,-3.0,-5.0
1702324084.4085062,1.0,6.0,7.0,-1.0,0.0,-2.0,-6.0,5.0
1702324084.4085062,-3.0,2.0,-10.0,-4.0,-3.0,1.0,7.0,-11.0
1702324084.4305732,-5.0,0.0,20.0,0.0,-1.0,-7.0,-6.0,-3.0
1702324084.4305732,1.0,-3.0,-15.0,-3.0,0.0,4.0,3.0,3.0
1702324084.4315763,11.0,7.0,10.0,0.0,1.0,1.0,-3.0,6.0
1702324084.4315763,-8.0,-9.0,-10.0,-4.0,-3.0,0.0,-3.0,0.0
1702324084.4525583,-7.0,-11.0,-20.0,-7.0,0.0,-2.0,-2.0,-8.0
1702324084.4525583,-2.0,12.0,38.0,9.0,-3.0,-12.0,-7.0,-1.0
1702324084.453559,2.0,-6.0,-24.0,1.0,2.0,19.0,12.0,2.0
1702324084.453559,-1.0,1.0,-2.0,0.0,-2.0,6.0,0.0,4.0
1702324084.4682016,-2.0,9.0,-17.0,1.0,-1.0,-6.0,-2.0,0.0
1702324084.4682016,-7.0,-18.0,-13.0,-19.0,-8.0,-3.0,-5.0,-7.0
1702324084.4689012,-6.0,-4.0,14.0,3.0,-3.0,-6.0,-2.0,-4.0
1702324084.4689012,-1.0,3.0,10.0,14.0,3.0,-3.0,-1.0,1.0
1702324084.493886,8.0,3.0,-21.0,-5.0,-1.0,3.0,1.0,4.0
1702324084.493886,-5.0,15.0,24.0,8.0,4.0,0.0,-2.0,-4.0
1702324084.4978855,-6.0,-23.0,-12.0,-13.0,-4.0,-2.0,0.0,-1.0
1702324084.4978855,1.0,12.0,10.0,-7.0,-5.0,-6.0,-2.0,-1.0
1702324084.513539,7.0,-3.0,-2.0,4.0,1.0,4.0,-1.0,5.0
1702324084.513539,-7.0,4.0,-7.0,-3.0,-1.0,3.0,2.0,-5.0
1702324084.513539,-1.0,16.0,20.0,-1.0,0.0,-1.0,-2.0,0.0
1702324084.513539,-8.0,-23.0,-12.0,-1.0,-3.0,-6.0,-4.0,8.0
1702324084.5264373,4.0,7.0,18.0,0.0,-2.0,1.0,10.0,4.0
1702324084.5264373,-1.0,-22.0,-29.0,-2.0,0.0,-1.0,0.0,-6.0
1702324084.5264373,-9.0,-5.0,2.0,2.0,-1.0,-1.0,-2.0,-8.0
1702324084.5264373,8.0,-2.0,-8.0,1.0,2.0,0.0,0.0,2.0
1702324084.54615,-8.0,-1.0,7.0,-8.0,-5.0,-3.0,-8.0,-1.0
1702324084.54615,-2.0,-11.0,-16.0,-4.0,-1.0,1.0,5.0,1.0
1702324084.5560944,-1.0,14.0,13.0,7.0,0.0,-1.0,-4.0,-4.0
1702324084.5560944,3.0,-1.0,-9.0,-6.0,-2.0,-2.0,-1.0,2.0
1702324084.5661254,4.0,-2.0,19.0,-4.0,-3.0,2.0,1.0,0.0
1702324084.5661254,-4.0,2.0,4.0,11.0,5.0,1.0,1.0,2.0
1702324084.5661254,-5.0,-16.0,-19.0,0.0,-3.0,-3.0,-5.0,-4.0
1702324084.5661254,3.0,5.0,7.0,-6.0,-3.0,-2.0,-2.0,-9.0
1702324084.5863774,-1.0,-2.0,8.0,12.0,2.0,0.0,0.0,-1.0
1702324084.5863774,4.0,-1.0,-13.0,-11.0,-4.0,-1.0,-3.0,-3.0
1702324084.5863774,-2.0,-12.0,-11.0,-4.0,-2.0,1.0,1.0,1.0
1702324084.5863774,0.0,6.0,9.0,4.0,1.0,0.0,-1.0,1.0
1702324084.606134,3.0,16.0,11.0,-6.0,-3.0,-1.0,1.0,2.0
1702324084.606134,10.0,-2.0,-2.0,5.0,0.0,-1.0,0.0,2.0
1702324084.6160927,-11.0,-24.0,-16.0,-3.0,1.0,-1.0,2.0,-1.0
1702324084.6160927,-7.0,7.0,-1.0,-4.0,-3.0,-1.0,-3.0,-4.0
1702324084.6262615,-6.0,-10.0,-24.0,-4.0,-1.0,-2.0,-3.0,-5.0
1702324084.6262615,3.0,9.0,15.0,0.0,-1.0,-4.0,-3.0,-2.0
1702324084.6262615,8.0,8.0,7.0,-1.0,0.0,3.0,1.0,1.0
1702324084.6262615,2.0,0.0,-23.0,-1.0,1.0,-2.0,-2.0,-1.0
1702324084.6461043,-2.0,-17.0,10.0,-4.0,-4.0,-4.0,1.0,-1.0
1702324084.6461043,-7.0,6.0,-11.0,-5.0,-4.0,-2.0,0.0,-3.0
1702324084.6461043,-3.0,-10.0,-6.0,0.0,1.0,-2.0,-2.0,-4.0
1702324084.6461043,2.0,-15.0,2.0,-2.0,-2.0,-1.0,-1.0,0.0
1702324084.6760921,-4.0,8.0,10.0,0.0,-2.0,-3.0,-4.0,-10.0
1702324084.6760921,-3.0,-3.0,-1.0,-2.0,0.0,1.0,1.0,5.0
1702324084.6760921,8.0,8.0,-11.0,-2.0,0.0,-1.0,0.0,4.0
1702324084.6760921,9.0,7.0,-3.0,4.0,0.0,3.0,-1.0,-1.0
1702324084.6862817,-9.0,-7.0,23.0,0.0,-3.0,-2.0,-4.0,-3.0
1702324084.6862817,1.0,-1.0,1.0,0.0,-2.0,-4.0,-4.0,-4.0
1702324084.6862817,1.0,4.0,0.0,-5.0,-2.0,1.0,-1.0,-3.0
1702324084.6862817,-3.0,-5.0,-8.0,-2.0,-2.0,-1.0,-3.0,1.0
1702324084.7081263,1.0,-1.0,-27.0,-3.0,1.0,0.0,0.0,2.0
1702324084.709123,-5.0,3.0,17.0,-2.0,-1.0,0.0,0.0,-2.0
1702324084.709123,-4.0,-3.0,-3.0,-3.0,-3.0,-4.0,0.0,-2.0
1702324084.709123,-3.0,6.0,4.0,-2.0,-2.0,-2.0,0.0,-2.0
1702324084.7321706,-4.0,-7.0,-1.0,-1.0,-1.0,-3.0,-3.0,-2.0
1702324084.7321706,4.0,-3.0,2.0,-1.0,-4.0,-2.0,-7.0,-1.0
1702324084.7321706,2.0,12.0,21.0,2.0,0.0,1.0,6.0,8.0
1702324084.7321706,3.0,2.0,-18.0,-2.0,0.0,1.0,-2.0,4.0
1702324084.752544,-8.0,-14.0,-3.0,0.0,-1.0,4.0,-5.0,0.0
1702324084.752544,-1.0,-7.0,-9.0,-1.0,2.0,6.0,10.0,-5.0
1702324084.752544,-3.0,2.0,-1.0,-2.0,0.0,1.0,-1.0,-1.0
1702324084.752544,4.0,9.0,9.0,1.0,-3.0,-4.0,-2.0,4.0
1702324084.7625098,-12.0,-10.0,-14.0,-4.0,2.0,-1.0,1.0,4.0
1702324084.7625098,-1.0,6.0,9.0,4.0,-2.0,-5.0,-5.0,-1.0
1702324084.7721717,0.0,-4.0,2.0,0.0,-1.0,-1.0,-4.0,-7.0
1702324084.7721717,-4.0,-4.0,6.0,0.0,1.0,-3.0,2.0,-3.0
1702324084.7821708,2.0,2.0,-2.0,0.0,-1.0,-1.0,-1.0,0.0
1702324084.7922227,-5.0,1.0,-9.0,-6.0,-2.0,-2.0,-1.0,-4.0
1702324084.7922227,-4.0,-12.0,-2.0,-12.0,1.0,-3.0,-1.0,-1.0
1702324084.7922227,-2.0,-3.0,-2.0,3.0,-4.0,2.0,0.0,-4.0
1702324084.812879,2.0,7.0,10.0,4.0,1.0,-1.0,2.0,-3.0
1702324084.812879,2.0,3.0,-11.0,-1.0,-1.0,0.0,0.0,0.0
1702324084.812879,0.0,2.0,-2.0,4.0,-3.0,-3.0,-6.0,-2.0
1702324084.812879,-3.0,-6.0,-16.0,-8.0,1.0,0.0,2.0,0.0
1702324084.8227608,3.0,5.0,21.0,0.0,-1.0,1.0,0.0,2.0
1702324084.8227608,-5.0,10.0,1.0,-1.0,-3.0,-2.0,-1.0,-8.0
1702324084.8227608,3.0,-25.0,-15.0,-5.0,-4.0,-3.0,-3.0,-1.0
1702324084.8227608,-8.0,-4.0,0.0,-3.0,-4.0,-4.0,-3.0,-5.0
1702324084.8625333,-2.0,8.0,-15.0,-3.0,0.0,0.0,-1.0,-3.0
1702324084.8625333,-3.0,3.0,5.0,2.0,-1.0,-2.0,-2.0,2.0
1702324084.8625333,-6.0,13.0,12.0,5.0,0.0,0.0,1.0,0.0
1702324084.8625333,1.0,7.0,10.0,-1.0,0.0,0.0,0.0,-1.0
1702324084.872797,0.0,-13.0,-19.0,-4.0,-3.0,0.0,0.0,0.0
1702324084.872797,-2.0,-4.0,8.0,-2.0,-1.0,-2.0,-1.0,2.0
1702324084.872797,-1.0,-2.0,-8.0,-2.0,1.0,2.0,2.0,-1.0
1702324084.872797,-4.0,-4.0,-14.0,-3.0,-1.0,1.0,0.0,2.0
1702324084.8825397,4.0,5.0,-7.0,-1.0,0.0,-3.0,-2.0,1.0
1702324084.8825397,0.0,-25.0,-18.0,-11.0,-3.0,0.0,-1.0,-9.0
1702324084.8927438,-2.0,14.0,31.0,8.0,0.0,-2.0,-3.0,1.0
1702324084.8927438,-6.0,-11.0,-28.0,4.0,1.0,0.0,-1.0,-4.0
1702324084.9125373,8.0,25.0,7.0,1.0,-2.0,-5.0,-3.0,-2.0
1702324084.9125373,2.0,-12.0,0.0,1.0,-1.0,1.0,0.0,1.0
1702324084.9225366,-2.0,-12.0,3.0,-6.0,-3.0,-2.0,-2.0,-1.0
1702324084.9225366,0.0,7.0,12.0,-4.0,0.0,0.0,1.0,4.0
1702324084.9327383,1.0,-3.0,-3.0,2.0,-1.0,-1.0,-2.0,-7.0
1702324084.9327383,-1.0,9.0,11.0,7.0,1.0,-4.0,0.0,-1.0
1702324084.9327383,-3.0,3.0,-3.0,1.0,-2.0,1.0,0.0,2.0
1702324084.9327383,1.0,-6.0,14.0,0.0,0.0,-1.0,-2.0,-2.0
1702324084.9525306,-3.0,2.0,-15.0,-3.0,-3.0,-1.0,-1.0,-2.0
1702324084.9525306,-2.0,3.0,4.0,0.0,-3.0,-3.0,-1.0,-2.0
1702324084.9525306,5.0,1.0,3.0,7.0,2.0,-1.0,-1.0,-3.0
1702324084.9525306,3.0,11.0,42.0,0.0,0.0,-3.0,-1.0,-1.0
1702324084.9627829,-5.0,-10.0,-28.0,-7.0,-3.0,-2.0,-1.0,-2.0
1702324084.9627829,-3.0,-7.0,-3.0,7.0,1.0,0.0,-1.0,-2.0
1702324084.9627829,2.0,2.0,-8.0,-1.0,-1.0,-1.0,-1.0,2.0
1702324084.97254,-2.0,3.0,-9.0,-2.0,-1.0,1.0,0.0,-7.0
1702324084.9928734,-2.0,-12.0,27.0,0.0,0.0,-1.0,-1.0,0.0
1702324084.9928734,-1.0,3.0,-16.0,-3.0,-1.0,0.0,-1.0,2.0
1702324084.9928734,-1.0,0.0,-3.0,-3.0,-4.0,-5.0,1.0,-1.0
1702324084.9928734,6.0,-2.0,-1.0,-1.0,0.0,9.0,0.0,0.0
1702324085.0225341,-4.0,0.0,-4.0,-1.0,-2.0,0.0,-1.0,-2.0
1702324085.0225341,-2.0,-7.0,4.0,2.0,1.0,4.0,-2.0,1.0
1702324085.0225341,-5.0,5.0,15.0,5.0,0.0,-5.0,-2.0,-3.0
1702324085.0225341,-2.0,0.0,-3.0,-5.0,-5.0,-7.0,-1.0,-3.0
1702324085.0225341,-2.0,2.0,-4.0,5.0,0.0,-1.0,-1.0,-2.0
1702324085.0225341,5.0,7.0,-4.0,-4.0,0.0,-2.0,2.0,1.0
1702324085.0225341,-7.0,-11.0,-11.0,-5.0,-2.0,2.0,-4.0,-4.0
1702324085.0225341,-2.0,2.0,15.0,2.0,-3.0,-10.0,-2.0,0.0
1702324085.0529058,2.0,-4.0,-6.0,0.0,0.0,10.0,1.0,-1.0
1702324085.0529058,-3.0,-9.0,-14.0,-6.0,-2.0,-6.0,-2.0,0.0
1702324085.0529058,3.0,4.0,4.0,-8.0,-4.0,1.0,0.0,4.0
1702324085.0529058,-4.0,-7.0,-9.0,1.0,-1.0,6.0,0.0,-8.0
1702324085.0625322,-6.0,3.0,13.0,-4.0,2.0,2.0,4.0,-1.0
1702324085.0725305,-2.0,3.0,6.0,4.0,0.0,-10.0,-21.0,-4.0
1702324085.0725305,1.0,-3.0,-11.0,-1.0,3.0,18.0,20.0,-3.0
1702324085.0725305,-1.0,-2.0,-19.0,-6.0,-2.0,-3.0,-2.0,6.0
1702324085.0828068,-4.0,1.0,18.0,4.0,0.0,-6.0,-5.0,-2.0
1702324085.0828068,-2.0,3.0,10.0,0.0,-1.0,-1.0,2.0,-1.0
1702324085.0828068,4.0,2.0,-4.0,-7.0,-5.0,-16.0,-10.0,-2.0
1702324085.0828068,2.0,3.0,9.0,4.0,-1.0,2.0,-1.0,0.0
1702324085.1125317,-1.0,0.0,-17.0,1.0,-2.0,-2.0,-1.0,2.0
1702324085.1125317,5.0,-4.0,-11.0,-1.0,1.0,6.0,4.0,3.0
1702324085.1125317,-4.0,1.0,3.0,-5.0,-1.0,-2.0,-4.0,-9.0
1702324085.1125317,3.0,4.0,2.0,4.0,-3.0,-12.0,-5.0,1.0
1702324085.122768,-2.0,2.0,-3.0,2.0,2.0,7.0,10.0,0.0
1702324085.122768,-1.0,-1.0,12.0,10.0,2.0,-13.0,-1.0,3.0
1702324085.1327405,-1.0,-11.0,-16.0,-8.0,0.0,19.0,3.0,-7.0
1702324085.1327405,-6.0,-10.0,-9.0,-10.0,-2.0,0.0,0.0,-2.0
1702324085.1428142,-3.0,-2.0,-5.0,12.0,3.0,-5.0,-8.0,-1.0
1702324085.1428142,6.0,7.0,11.0,1.0,0.0,0.0,1.0,-2.0
1702324085.1525378,1.0,10.0,8.0,7.0,-2.0,-15.0,-6.0,2.0
1702324085.1525378,2.0,-14.0,-5.0,-6.0,-3.0,5.0,0.0,1.0
1702324085.1925318,5.0,21.0,19.0,-2.0,-3.0,-9.0,-6.0,-2.0
1702324085.1925318,-11.0,-15.0,-22.0,-9.0,-1.0,1.0,11.0,-4.0
1702324085.1925318,-3.0,-10.0,-6.0,-2.0,-3.0,3.0,-9.0,-1.0
1702324085.1925318,-2.0,-2.0,-3.0,-1.0,-1.0,1.0,1.0,2.0
1702324085.1925318,2.0,-4.0,-7.0,-5.0,-1.0,0.0,-1.0,3.0
1702324085.1925318,-8.0,5.0,6.0,-2.0,-2.0,-2.0,-4.0,-3.0
1702324085.1925318,1.0,-7.0,-3.0,-2.0,-1.0,-3.0,0.0,0.0
1702324085.1925318,-2.0,-3.0,1.0,1.0,0.0,0.0,0.0,-4.0
1702324085.2027552,4.0,0.0,6.0,8.0,-2.0,2.0,2.0,1.0
1702324085.2027552,2.0,4.0,12.0,-14.0,1.0,-2.0,-4.0,2.0
1702324085.2027552,0.0,-3.0,-17.0,6.0,0.0,-4.0,-2.0,-7.0
1702324085.2027552,-7.0,6.0,17.0,1.0,0.0,1.0,-1.0,2.0
1702324085.2333446,5.0,-5.0,-10.0,-4.0,-2.0,-6.0,-5.0,0.0
1702324085.2333446,-1.0,-4.0,-9.0,-9.0,-5.0,5.0,0.0,-4.0
1702324085.2333446,1.0,-4.0,-9.0,-2.0,0.0,-2.0,-2.0,-1.0
1702324085.2333446,-1.0,-2.0,3.0,1.0,0.0,-1.0,-2.0,-1.0
1702324085.2565184,-2.0,9.0,-9.0,-7.0,-2.0,-1.0,0.0,1.0
1702324085.2565184,-3.0,-20.0,-7.0,0.0,-1.0,3.0,-2.0,-1.0
1702324085.2565184,5.0,3.0,1.0,-2.0,0.0,-1.0,-1.0,4.0
1702324085.2575586,-3.0,-13.0,-14.0,-3.0,-4.0,-4.0,-4.0,-3.0
1702324085.2650688,-1.0,6.0,11.0,1.0,0.0,-3.0,-1.0,1.0
1702324085.2650688,-3.0,-1.0,-19.0,-5.0,-3.0,2.0,-2.0,-2.0
1702324085.2750688,-3.0,5.0,6.0,2.0,1.0,-2.0,0.0,0.0
1702324085.2750688,5.0,15.0,8.0,1.0,1.0,-1.0,-1.0,-3.0
1702324085.2851179,-12.0,-46.0,5.0,4.0,1.0,3.0,1.0,1.0
1702324085.2851179,-2.0,18.0,10.0,-6.0,-2.0,0.0,0.0,2.0
1702324085.2950752,-2.0,-10.0,7.0,12.0,2.0,-3.0,-4.0,-8.0
1702324085.2950752,-1.0,6.0,-33.0,-7.0,2.0,-3.0,-2.0,3.0
1702324085.3136485,8.0,-19.0,-4.0,-11.0,-3.0,-2.0,0.0,-3.0
1702324085.3136485,0.0,8.0,7.0,13.0,0.0,-1.0,-3.0,-1.0
1702324085.3136485,-4.0,13.0,13.0,-4.0,-4.0,-4.0,-4.0,2.0
1702324085.3136485,4.0,-2.0,-10.0,0.0,1.0,3.0,1.0,0.0
1702324085.3533058,-3.0,-3.0,-5.0,0.0,0.0,0.0,-2.0,-2.0
1702324085.3533058,4.0,-4.0,2.0,-8.0,-2.0,0.0,1.0,0.0
1702324085.3533058,-3.0,4.0,-35.0,4.0,1.0,0.0,0.0,1.0
1702324085.3533058,0.0,8.0,67.0,5.0,1.0,-1.0,0.0,0.0
1702324085.3533058,-6.0,-7.0,-37.0,-20.0,-3.0,-3.0,-3.0,-4.0
1702324085.3533058,5.0,11.0,3.0,19.0,2.0,-1.0,-2.0,-4.0
1702324085.3533058,3.0,9.0,3.0,-8.0,-2.0,-1.0,1.0,2.0
1702324085.3533058,-10.0,-28.0,-30.0,-3.0,-4.0,1.0,1.0,0.0
1702324085.373309,-2.0,-24.0,7.0,1.0,0.0,-4.0,-2.0,-6.0
1702324085.373309,-1.0,-5.0,-5.0,-8.0,-4.0,-8.0,1.0,1.0
1702324085.373309,6.0,11.0,-1.0,1.0,0.0,8.0,1.0,3.0
1702324085.373309,-8.0,16.0,23.0,-5.0,-7.0,-4.0,-3.0,-2.0
1702324085.393603,3.0,9.0,-18.0,0.0,1.0,3.0,-1.0,-3.0
1702324085.393603,0.0,-5.0,-18.0,-4.0,-1.0,-2.0,1.0,1.0
1702324085.393603,-2.0,-13.0,2.0,5.0,0.0,-1.0,-3.0,2.0
1702324085.393603,-3.0,6.0,12.0,4.0,3.0,0.0,1.0,-2.0
1702324085.4132998,-7.0,-22.0,-14.0,-10.0,-7.0,-5.0,-6.0,-4.0
1702324085.4132998,4.0,6.0,-14.0,2.0,0.0,3.0,0.0,-1.0
1702324085.4132998,-14.0,-44.0,-3.0,-22.0,-6.0,-5.0,-1.0,0.0
1702324085.4132998,8.0,14.0,-11.0,19.0,4.0,1.0,-1.0,-3.0
1702324085.4336486,1.0,8.0,15.0,4.0,0.0,-1.0,2.0,2.0
1702324085.4336486,0.0,3.0,7.0,-5.0,-4.0,-2.0,-1.0,1.0
1702324085.4336486,0.0,-11.0,-9.0,-4.0,-3.0,-5.0,-3.0,-1.0
1702324085.4336486,-3.0,10.0,-20.0,-2.0,0.0,-1.0,-2.0,-8.0
1702324085.453303,-4.0,52.0,38.0,1.0,1.0,0.0,0.0,2.0
1702324085.453303,-1.0,-32.0,-1.0,0.0,-1.0,0.0,-3.0,0.0
1702324085.453303,3.0,13.0,6.0,-1.0,-1.0,-2.0,0.0,-1.0
1702324085.453303,-5.0,-49.0,-28.0,-14.0,-6.0,-5.0,-2.0,-2.0
1702324085.4736013,3.0,1.0,-20.0,5.0,2.0,1.0,2.0,3.0
1702324085.4736013,-3.0,20.0,24.0,3.0,3.0,4.0,0.0,-3.0
1702324085.4736013,1.0,6.0,12.0,1.0,0.0,-2.0,0.0,-2.0
1702324085.4736013,-8.0,0.0,-5.0,-8.0,-5.0,-2.0,-3.0,1.0
1702324085.503301,19.0,13.0,-6.0,1.0,1.0,0.0,1.0,6.0
1702324085.503301,-3.0,4.0,9.0,-3.0,-2.0,-2.0,-2.0,-8.0
1702324085.503301,-5.0,-9.0,-6.0,5.0,-2.0,-3.0,-1.0,-5.0
1702324085.503301,-12.0,-11.0,4.0,-2.0,0.0,-4.0,-3.0,-1.0
1702324085.503301,-9.0,14.0,17.0,-3.0,-4.0,-6.0,0.0,-2.0
1702324085.503301,19.0,-13.0,-12.0,-2.0,1.0,10.0,-2.0,5.0
1702324085.503301,3.0,13.0,4.0,9.0,4.0,0.0,0.0,-1.0
1702324085.503301,0.0,-1.0,6.0,-15.0,-4.0,-1.0,-1.0,-1.0
1702324085.5334172,8.0,8.0,-14.0,23.0,4.0,1.0,2.0,-1.0
1702324085.5334172,-15.0,-5.0,9.0,1.0,0.0,-6.0,-2.0,-2.0
1702324085.5334172,-3.0,16.0,1.0,-9.0,-5.0,-1.0,-1.0,0.0
1702324085.5334172,-1.0,-15.0,-19.0,0.0,-1.0,-2.0,-2.0,0.0
1702324085.563303,3.0,7.0,4.0,-9.0,2.0,4.0,1.0,-1.0
1702324085.563303,6.0,14.0,29.0,13.0,1.0,-1.0,-1.0,4.0
1702324085.563303,-4.0,-11.0,12.0,-1.0,-1.0,-4.0,-4.0,-9.0
1702324085.563303,-6.0,1.0,-16.0,-1.0,1.0,3.0,3.0,3.0
1702324085.563303,-4.0,-2.0,8.0,-3.0,-4.0,-2.0,-3.0,1.0
1702324085.563303,1.0,0.0,-4.0,-2.0,-3.0,1.0,1.0,-4.0
1702324085.563303,-2.0,-2.0,8.0,-5.0,-4.0,-9.0,-6.0,0.0
1702324085.563303,5.0,0.0,-18.0,-5.0,-6.0,-3.0,-1.0,-6.0
1702324085.5935013,-8.0,-24.0,-12.0,-6.0,-4.0,5.0,-1.0,-2.0
1702324085.5935013,-9.0,-3.0,-17.0,-1.0,3.0,-4.0,-1.0,0.0
1702324085.5935013,16.0,7.0,15.0,8.0,3.0,4.0,5.0,8.0
1702324085.5935013,1.0,8.0,6.0,8.0,7.0,4.0,-1.0,-5.0
1702324085.6233006,-6.0,-3.0,-13.0,-4.0,-3.0,4.0,3.0,-8.0
1702324085.6233006,-13.0,-8.0,7.0,-9.0,-8.0,-10.0,-5.0,-3.0
1702324085.6233006,-14.0,-13.0,-3.0,-1.0,-1.0,1.0,-1.0,-7.0
1702324085.6233006,11.0,21.0,-4.0,0.0,-2.0,-1.0,-4.0,5.0
1702324085.6233006,5.0,-10.0,4.0,-16.0,-3.0,-1.0,-3.0,1.0
1702324085.6233006,-3.0,-4.0,-27.0,5.0,1.0,2.0,0.0,-1.0
1702324085.6233006,1.0,1.0,6.0,1.0,1.0,-3.0,-1.0,-1.0
1702324085.6233006,-4.0,3.0,-5.0,-1.0,-3.0,-10.0,-18.0,2.0
1702324085.6533766,-4.0,11.0,16.0,0.0,-3.0,-3.0,15.0,-5.0
1702324085.6533766,-2.0,-12.0,-7.0,-8.0,-8.0,3.0,-1.0,-9.0
1702324085.6533766,2.0,1.0,-26.0,-4.0,5.0,5.0,7.0,0.0
1702324085.6533766,8.0,12.0,29.0,3.0,6.0,3.0,-3.0,-6.0
1702324085.6833165,1.0,-11.0,-1.0,0.0,1.0,-5.0,-6.0,1.0
1702324085.6833165,-15.0,-11.0,-14.0,-8.0,-6.0,-10.0,-6.0,1.0
1702324085.6933045,-7.0,-12.0,-23.0,2.0,-2.0,-4.0,-7.0,0.0
1702324085.6933045,-1.0,-4.0,26.0,2.0,-1.0,13.0,13.0,3.0
1702324085.7033045,8.0,-4.0,-25.0,-1.0,2.0,-14.0,-6.0,-2.0
1702324085.7033045,-1.0,10.0,13.0,4.0,2.0,10.0,4.0,0.0
1702324085.7033045,-7.0,-2.0,3.0,-1.0,-5.0,-22.0,-17.0,-4.0
1702324085.7033045,-1.0,5.0,3.0,-8.0,-8.0,-6.0,4.0,-1.0
1702324085.7133605,0.0,0.0,26.0,6.0,1.0,25.0,9.0,6.0
1702324085.7133605,15.0,7.0,-13.0,-2.0,2.0,-7.0,-1.0,7.0
1702324085.7133605,-2.0,-11.0,-17.0,-5.0,-1.0,-5.0,-1.0,-3.0
1702324085.7133605,-25.0,-2.0,7.0,-1.0,-3.0,-6.0,3.0,-13.0
1702324085.7436223,-1.0,-24.0,-49.0,-5.0,-2.0,2.0,-3.0,-3.0
1702324085.7436223,1.0,0.0,0.0,-7.0,-1.0,-1.0,-6.0,-12.0
1702324085.7436223,6.0,3.0,13.0,-7.0,-3.0,6.0,5.0,5.0
1702324085.7436223,18.0,2.0,18.0,9.0,5.0,-4.0,-1.0,7.0
1702324085.7436223,-22.0,-14.0,-2.0,8.0,-2.0,-6.0,-11.0,-10.0
1702324085.7436223,1.0,6.0,7.0,-4.0,-4.0,-6.0,-1.0,8.0
1702324085.7436223,8.0,7.0,7.0,14.0,4.0,6.0,4.0,0.0
1702324085.7436223,0.0,-4.0,-5.0,4.0,5.0,1.0,-1.0,2.0
1702324085.7741544,3.0,13.0,20.0,-8.0,-2.0,-4.0,-3.0,1.0
1702324085.7741544,2.0,-8.0,-18.0,-4.0,-4.0,-14.0,-7.0,-4.0
1702324085.77519,-3.0,0.0,-5.0,-11.0,-9.0,5.0,8.0,3.0
1702324085.77519,4.0,-7.0,-17.0,0.0,1.0,3.0,-12.0,1.0
1702324085.7976644,1.0,8.0,48.0,7.0,3.0,7.0,10.0,-4.0
1702324085.7976644,-12.0,-7.0,6.0,-4.0,-4.0,-3.0,-9.0,-6.0
1702324085.7976644,-8.0,19.0,19.0,-2.0,-1.0,6.0,-2.0,-4.0
1702324085.7976644,8.0,-35.0,-75.0,-5.0,2.0,0.0,4.0,0.0
1702324085.8076673,-2.0,8.0,4.0,7.0,5.0,-11.0,-8.0,-3.0
1702324085.8076673,21.0,13.0,-4.0,-3.0,3.0,8.0,15.0,25.0
1702324085.8179238,-21.0,-38.0,12.0,-5.0,-3.0,-3.0,-2.0,-2.0
1702324085.8179238,-8.0,19.0,-1.0,-7.0,-7.0,-1.0,3.0,-1.0
1702324085.8279827,0.0,-2.0,-18.0,-10.0,-8.0,-9.0,-9.0,-5.0
1702324085.8279827,1.0,-15.0,4.0,10.0,11.0,3.0,5.0,-3.0
1702324085.8279827,12.0,14.0,-1.0,9.0,1.0,-3.0,-4.0,1.0
1702324085.8279827,-5.0,21.0,25.0,0.0,0.0,0.0,3.0,-2.0
1702324085.8676648,2.0,-24.0,8.0,-2.0,-13.0,-22.0,-30.0,0.0
1702324085.8676648,-7.0,13.0,8.0,8.0,-1.0,-4.0,18.0,-9.0
1702324085.8676648,5.0,0.0,-16.0,-6.0,2.0,8.0,7.0,0.0
1702324085.8676648,4.0,-16.0,5.0,4.0,12.0,1.0,-9.0,-9.0
1702324085.8676648,1.0,18.0,-6.0,1.0,8.0,44.0,21.0,2.0
1702324085.8676648,-11.0,-23.0,-22.0,-12.0,-7.0,0.0,-2.0,1.0
1702324085.8779342,-3.0,-13.0,6.0,-8.0,-11.0,-11.0,-8.0,-4.0
1702324085.8779342,-12.0,8.0,-4.0,1.0,-5.0,-8.0,4.0,2.0
1702324085.9079502,-4.0,24.0,-19.0,-8.0,-8.0,-16.0,-11.0,-4.0
1702324085.9079502,7.0,-43.0,-10.0,-3.0,7.0,0.0,-8.0,-2.0
1702324085.9079502,14.0,48.0,4.0,-7.0,-2.0,-2.0,6.0,4.0
1702324085.9079502,-3.0,0.0,29.0,5.0,-8.0,-10.0,-12.0,-7.0
1702324085.9079502,-9.0,-6.0,-8.0,-4.0,3.0,2.0,3.0,-4.0
1702324085.9079502,0.0,27.0,9.0,-1.0,-3.0,-1.0,-2.0,-1.0
1702324085.9079502,10.0,11.0,-10.0,2.0,3.0,9.0,1.0,0.0
1702324085.9079502,-6.0,-26.0,11.0,-5.0,-6.0,-9.0,-3.0,1.0
1702324085.928283,0.0,31.0,14.0,4.0,-1.0,-3.0,-2.0,0.0
1702324085.928283,3.0,4.0,-4.0,-8.0,-4.0,-2.0,9.0,-1.0
1702324085.9383197,-14.0,-22.0,-7.0,6.0,2.0,-4.0,-5.0,-4.0
1702324085.9383197,16.0,36.0,-10.0,0.0,1.0,3.0,1.0,-2.0
1702324085.9479516,-11.0,-58.0,-2.0,-6.0,0.0,-1.0,6.0,4.0
1702324085.9479516,-5.0,34.0,13.0,4.0,-7.0,-7.0,-14.0,-8.0
1702324085.9479516,-8.0,-8.0,-14.0,-3.0,6.0,4.0,-1.0,-2.0
1702324085.9479516,6.0,11.0,21.0,7.0,2.0,8.0,8.0,7.0
1702324085.9682827,20.0,-2.0,-17.0,-10.0,-1.0,-3.0,0.0,2.0
1702324085.9682827,-21.0,6.0,5.0,-3.0,-1.0,-4.0,-3.0,-2.0
1702324085.9682827,-2.0,-6.0,-19.0,4.0,2.0,4.0,0.0,-1.0
1702324085.9682827,-3.0,4.0,28.0,1.0,-1.0,5.0,2.0,-2.0
1702324085.987951,10.0,7.0,-11.0,3.0,-2.0,-14.0,-2.0,5.0
1702324085.987951,9.0,4.0,2.0,-10.0,-1.0,9.0,-2.0,-4.0
1702324085.9981904,-21.0,-11.0,-26.0,-1.0,-7.0,-7.0,-4.0,-9.0
1702324085.9981904,-5.0,-12.0,4.0,0.0,2.0,-1.0,-1.0,0.0
1702324086.0079541,2.0,-25.0,12.0,5.0,-1.0,1.0,1.0,1.0
1702324086.0079541,2.0,34.0,4.0,10.0,7.0,1.0,-1.0,-1.0
1702324086.0079541,-15.0,-73.0,-6.0,-10.0,-4.0,-6.0,-4.0,3.0
1702324086.0079541,2.0,-5.0,-14.0,-4.0,-3.0,1.0,3.0,-5.0
1702324086.028333,-1.0,5.0,5.0,2.0,-1.0,2.0,2.0,-4.0
1702324086.028333,-3.0,-3.0,7.0,-1.0,1.0,-4.0,-5.0,-1.0
1702324086.028333,10.0,24.0,12.0,-4.0,-2.0,0.0,4.0,19.0
1702324086.028333,-9.0,-18.0,-13.0,-2.0,-2.0,-2.0,-4.0,-14.0
1702324086.0482106,-8.0,0.0,3.0,1.0,-1.0,-2.0,1.0,1.0
1702324086.0482106,6.0,-20.0,2.0,4.0,0.0,7.0,4.0,-4.0
1702324086.0583227,-6.0,29.0,-2.0,1.0,-1.0,-11.0,-2.0,-2.0
1702324086.0583227,1.0,-16.0,-10.0,-5.0,-3.0,2.0,-7.0,5.0
1702324086.0679522,-7.0,19.0,1.0,1.0,3.0,-1.0,-9.0,0.0
1702324086.0679522,5.0,-16.0,-8.0,1.0,-1.0,5.0,11.0,-1.0
1702324086.0679522,15.0,12.0,38.0,7.0,4.0,5.0,3.0,-2.0
1702324086.0679522,-9.0,-8.0,-68.0,-10.0,-3.0,-5.0,-2.0,5.0
1702324086.0883248,-9.0,13.0,16.0,1.0,-1.0,-2.0,-1.0,-11.0
1702324086.0883248,1.0,2.0,18.0,2.0,-3.0,-1.0,-7.0,3.0
1702324086.0883248,9.0,-10.0,-4.0,-3.0,0.0,4.0,-6.0,-2.0
1702324086.0883248,2.0,4.0,16.0,1.0,0.0,-1.0,14.0,-6.0
1702324086.1082067,4.0,0.0,-23.0,-1.0,-2.0,-2.0,-7.0,-1.0
1702324086.1082067,-19.0,-17.0,-17.0,-5.0,0.0,-4.0,-4.0,-8.0
1702324086.1179528,3.0,5.0,15.0,2.0,-2.0,-13.0,-3.0,-5.0
1702324086.1179528,2.0,-13.0,-5.0,-6.0,-3.0,7.0,-4.0,6.0
1702324086.128285,-2.0,3.0,-1.0,1.0,-1.0,-2.0,3.0,6.0
1702324086.128285,9.0,4.0,8.0,1.0,-3.0,5.0,1.0,-1.0
1702324086.128285,-3.0,19.0,1.0,-4.0,-3.0,5.0,3.0,-2.0
1702324086.128285,0.0,3.0,24.0,1.0,-3.0,-40.0,-15.0,-2.0
1702324086.1481993,-18.0,-26.0,-35.0,-5.0,0.0,44.0,18.0,3.0
1702324086.1481993,5.0,-5.0,-14.0,-2.0,-1.0,-1.0,-3.0,-2.0
1702324086.1481993,5.0,10.0,17.0,0.0,-3.0,0.0,-3.0,-4.0
1702324086.1481993,5.0,-1.0,19.0,6.0,8.0,2.0,3.0,4.0
1702324086.1779509,0.0,-4.0,-3.0,0.0,4.0,-17.0,-10.0,-1.0
1702324086.1779509,-7.0,2.0,-15.0,-2.0,0.0,-5.0,-4.0,2.0
1702324086.1779509,-17.0,-3.0,18.0,9.0,0.0,-3.0,1.0,-10.0
1702324086.1779509,7.0,11.0,6.0,2.0,2.0,9.0,-2.0,-1.0
1702324086.1882436,5.0,-4.0,-3.0,-4.0,-4.0,-17.0,-5.0,-3.0
1702324086.1882436,3.0,4.0,-12.0,0.0,4.0,18.0,12.0,8.0
1702324086.1882436,-11.0,-24.0,-5.0,-6.0,-6.0,-6.0,-5.0,-3.0
1702324086.1882436,-4.0,25.0,10.0,-3.0,-2.0,12.0,6.0,2.0
1702324086.2083187,-2.0,-2.0,-5.0,0.0,0.0,-10.0,-10.0,-2.0
1702324086.2083187,7.0,-10.0,2.0,-9.0,-7.0,-17.0,-3.0,-9.0
1702324086.2083187,-3.0,-41.0,-5.0,-1.0,1.0,-5.0,1.0,1.0
1702324086.2083187,0.0,17.0,17.0,12.0,-6.0,-16.0,-7.0,-2.0
1702324086.2379513,-2.0,2.0,-16.0,-22.0,-4.0,14.0,9.0,1.0
1702324086.2379513,-13.0,-12.0,-20.0,10.0,2.0,-4.0,-14.0,-1.0
1702324086.2379513,4.0,15.0,-7.0,-4.0,4.0,-9.0,3.0,-1.0
1702324086.2379513,-7.0,-8.0,4.0,-1.0,4.0,26.0,8.0,-5.0
1702324086.2482011,15.0,13.0,19.0,5.0,3.0,-1.0,1.0,-5.0
1702324086.2482011,-1.0,39.0,9.0,-2.0,-4.0,-1.0,-1.0,-1.0
1702324086.2482011,7.0,-40.0,-7.0,-9.0,-2.0,0.0,-5.0,0.0
1702324086.2482011,-9.0,-28.0,-74.0,-12.0,-6.0,2.0,-2.0,2.0
1702324086.2682776,4.0,30.0,54.0,12.0,-1.0,-18.0,-3.0,-2.0
1702324086.2682776,-8.0,-38.0,-5.0,6.0,10.0,23.0,7.0,0.0
1702324086.2682776,-14.0,41.0,4.0,-2.0,-2.0,-16.0,-16.0,-3.0
1702324086.2682776,-2.0,10.0,-18.0,-15.0,-5.0,-13.0,3.0,-5.0
1702324086.3024287,8.0,-8.0,6.0,7.0,-7.0,0.0,1.0,1.0
1702324086.3024287,-3.0,-32.0,-11.0,3.0,5.0,-4.0,-2.0,2.0
1702324086.3024287,9.0,28.0,9.0,12.0,9.0,11.0,4.0,0.0
1702324086.3024287,5.0,18.0,10.0,-3.0,-1.0,-3.0,-5.0,-1.0
1702324086.314207,-34.0,-31.0,-17.0,3.0,-4.0,-5.0,-2.0,-4.0
1702324086.314207,8.0,24.0,13.0,-10.0,-8.0,-3.0,1.0,5.0
1702324086.3152087,6.0,-28.0,-23.0,6.0,3.0,6.0,5.0,-1.0
1702324086.3152087,4.0,13.0,30.0,-2.0,1.0,-3.0,-7.0,-3.0
1702324086.3310518,-2.0,-24.0,-33.0,-6.0,-5.0,-3.0,-8.0,-6.0
1702324086.3310518,13.0,-3.0,14.0,-4.0,-5.0,-2.0,1.0,3.0
1702324086.3380697,-8.0,3.0,-33.0,-12.0,-3.0,-2.0,-16.0,-4.0
1702324086.3380697,-3.0,14.0,15.0,7.0,5.0,13.0,16.0,4.0
1702324086.3580875,10.0,9.0,16.0,-2.0,-2.0,1.0,4.0,0.0
1702324086.3580875,-16.0,-72.0,-20.0,-20.0,-8.0,-7.0,-10.0,-7.0
1702324086.3580875,10.0,41.0,6.0,9.0,1.0,-11.0,3.0,0.0
1702324086.3580875,-4.0,-48.0,-21.0,-1.0,-6.0,4.0,-8.0,-4.0
1702324086.3680813,8.0,-1.0,-10.0,-15.0,-1.0,0.0,-1.0,2.0
1702324086.3680813,0.0,18.0,5.0,9.0,2.0,-8.0,-2.0,-1.0
1702324086.3680813,1.0,9.0,-9.0,0.0,-1.0,4.0,-1.0,2.0
1702324086.3680813,3.0,-13.0,0.0,-11.0,-4.0,-6.0,-7.0,0.0
1702324086.3884664,-4.0,-1.0,-11.0,8.0,5.0,5.0,10.0,0.0
1702324086.3884664,-9.0,17.0,32.0,7.0,0.0,-3.0,-6.0,-4.0
1702324086.398084,2.0,-3.0,16.0,-1.0,-1.0,7.0,5.0,3.0
1702324086.398084,-19.0,7.0,-29.0,-1.0,-3.0,-23.0,2.0,-2.0
1702324086.4183936,17.0,12.0,5.0,-5.0,1.0,16.0,-6.0,7.0
1702324086.4183936,-3.0,21.0,10.0,-3.0,-1.0,0.0,-6.0,0.0
1702324086.4183936,12.0,-40.0,-23.0,-6.0,-5.0,1.0,8.0,-2.0
1702324086.4183936,-16.0,-4.0,11.0,2.0,5.0,4.0,0.0,-1.0
1702324086.4286427,0.0,-5.0,10.0,2.0,-3.0,-16.0,-6.0,-1.0
1702324086.4286427,10.0,18.0,30.0,7.0,2.0,3.0,11.0,10.0
1702324086.4286427,-10.0,7.0,-44.0,-10.0,-4.0,-4.0,-6.0,-10.0
1702324086.4286427,16.0,-4.0,2.0,-3.0,-7.0,-18.0,-12.0,-1.0
1702324086.4583824,-16.0,-13.0,-9.0,2.0,5.0,24.0,11.0,-5.0
1702324086.4583824,-7.0,7.0,-6.0,3.0,1.0,-2.0,-1.0,-4.0
1702324086.4683805,6.0,10.0,24.0,-1.0,2.0,12.0,-6.0,3.0
1702324086.4683805,3.0,5.0,22.0,4.0,-1.0,2.0,2.0,-4.0
1702324086.478382,6.0,-2.0,12.0,-9.0,-7.0,-22.0,-9.0,-3.0
1702324086.478382,10.0,-1.0,-46.0,-14.0,-7.0,7.0,9.0,2.0
1702324086.478382,-7.0,3.0,24.0,10.0,3.0,-4.0,-3.0,7.0
1702324086.478382,-1.0,-9.0,-29.0,4.0,3.0,-7.0,0.0,-5.0
1702324086.4885056,-20.0,-9.0,15.0,1.0,2.0,15.0,0.0,-4.0
1702324086.4885056,-2.0,-10.0,-2.0,-4.0,-4.0,-18.0,-7.0,-10.0
1702324086.4885056,-9.0,3.0,4.0,-8.0,-6.0,5.0,6.0,-1.0
1702324086.4885056,16.0,9.0,11.0,2.0,3.0,2.0,-5.0,2.0
1702324086.5183787,3.0,11.0,-14.0,-4.0,-3.0,-6.0,-7.0,-2.0
1702324086.5183787,-17.0,15.0,-30.0,-9.0,-1.0,-2.0,7.0,-4.0
1702324086.5183787,0.0,-45.0,3.0,11.0,4.0,4.0,4.0,1.0
1702324086.5183787,10.0,-9.0,9.0,-3.0,1.0,12.0,1.0,4.0
1702324086.5388045,1.0,-6.0,-13.0,2.0,-1.0,-17.0,-7.0,-9.0
1702324086.5388045,-27.0,-13.0,20.0,-6.0,-4.0,-11.0,-9.0,-7.0
1702324086.5388045,-3.0,14.0,-3.0,-5.0,-7.0,7.0,-4.0,5.0
1702324086.5388045,-2.0,-12.0,-8.0,-5.0,-3.0,8.0,7.0,-3.0
1702324086.5487006,14.0,20.0,13.0,12.0,7.0,-20.0,-2.0,8.0
1702324086.5487006,6.0,6.0,-3.0,5.0,5.0,33.0,6.0,-7.0
1702324086.5487006,-7.0,-1.0,5.0,-9.0,0.0,-11.0,4.0,1.0
1702324086.5487006,2.0,-3.0,-20.0,-8.0,-8.0,-1.0,-6.0,6.0
1702324086.5683787,-4.0,11.0,3.0,0.0,-5.0,-4.0,-1.0,-8.0
1702324086.5683787,-2.0,6.0,13.0,0.0,2.0,-11.0,-2.0,4.0
1702324086.5683787,5.0,0.0,-24.0,-9.0,3.0,3.0,1.0,0.0
1702324086.5683787,5.0,18.0,16.0,17.0,2.0,-4.0,-3.0,-11.0
1702324086.598614,-27.0,7.0,20.0,-2.0,-5.0,-7.0,-5.0,-4.0
1702324086.598614,3.0,-15.0,-40.0,-8.0,-5.0,-10.0,-4.0,2.0
1702324086.598614,-27.0,-33.0,17.0,-4.0,0.0,14.0,0.0,-4.0
1702324086.598614,27.0,53.0,0.0,-5.0,3.0,-17.0,7.0,-3.0
1702324086.6086884,-29.0,-63.0,-2.0,4.0,3.0,12.0,-5.0,1.0
1702324086.6086884,5.0,-3.0,1.0,-8.0,-4.0,-3.0,-2.0,-4.0
1702324086.6086884,9.0,14.0,-10.0,10.0,-1.0,-9.0,-5.0,-1.0
1702324086.6086884,-33.0,-6.0,-2.0,-11.0,0.0,14.0,7.0,0.0
1702324086.6383834,17.0,25.0,30.0,1.0,-5.0,1.0,-2.0,0.0
1702324086.6383834,4.0,18.0,-14.0,3.0,5.0,0.0,-4.0,-1.0
1702324086.6483812,5.0,-18.0,-12.0,1.0,-6.0,-17.0,-3.0,-2.0
1702324086.6483812,8.0,-37.0,18.0,-1.0,0.0,11.0,-5.0,-1.0
1702324086.6583788,0.0,4.0,-14.0,-6.0,-6.0,-4.0,1.0,-4.0
1702324086.6583788,-4.0,-5.0,-13.0,0.0,1.0,4.0,1.0,4.0
1702324086.6583788,2.0,13.0,25.0,0.0,1.0,0.0,3.0,-4.0
1702324086.6583788,-13.0,-56.0,-31.0,-17.0,-4.0,-5.0,-12.0,-6.0
1702324086.6684136,-1.0,1.0,-14.0,-3.0,-4.0,-5.0,11.0,4.0
1702324086.6684136,-13.0,-17.0,25.0,16.0,-2.0,-20.0,-14.0,-3.0
1702324086.6684136,2.0,4.0,-31.0,-5.0,-2.0,17.0,-2.0,1.0
1702324086.6684136,7.0,24.0,12.0,-1.0,-3.0,-5.0,7.0,3.0
1702324086.6883788,-8.0,-12.0,-8.0,-7.0,-2.0,-1.0,-3.0,-12.0
1702324086.6883788,18.0,8.0,0.0,2.0,0.0,22.0,8.0,4.0
1702324086.6883788,0.0,-19.0,25.0,-4.0,-1.0,-12.0,-2.0,-6.0
1702324086.6883788,-8.0,13.0,14.0,9.0,-1.0,2.0,-4.0,1.0
1702324086.7185628,15.0,-8.0,-45.0,-7.0,-1.0,-4.0,-2.0,-1.0
1702324086.7185628,2.0,3.0,11.0,-4.0,-2.0,-7.0,-10.0,0.0
1702324086.7185628,2.0,6.0,-2.0,9.0,0.0,-3.0,4.0,-2.0
1702324086.7185628,-4.0,2.0,10.0,0.0,-1.0,-5.0,-4.0,-4.0
1702324086.7287278,3.0,1.0,5.0,11.0,6.0,1.0,2.0,3.0
1702324086.7287278,3.0,-19.0,-52.0,-9.0,-3.0,2.0,-4.0,0.0
1702324086.7287278,-5.0,30.0,52.0,2.0,-2.0,4.0,-5.0,-8.0
1702324086.7287278,2.0,3.0,-16.0,-3.0,-2.0,4.0,-2.0,-2.0
1702324086.7483783,-9.0,8.0,32.0,-1.0,-1.0,0.0,-3.0,6.0
1702324086.7483783,5.0,-2.0,-3.0,-1.0,-2.0,-11.0,1.0,-4.0
1702324086.7483783,-9.0,-3.0,-58.0,-14.0,-2.0,-3.0,-2.0,-3.0
1702324086.7483783,3.0,9.0,4.0,7.0,0.0,0.0,2.0,1.0
1702324086.778834,7.0,-21.0,-2.0,-6.0,-2.0,-2.0,-2.0,-4.0
1702324086.778834,-17.0,16.0,25.0,7.0,4.0,14.0,4.0,-3.0
1702324086.778834,3.0,-16.0,-4.0,-1.0,1.0,1.0,-4.0,-1.0
1702324086.778834,-5.0,-16.0,-2.0,-1.0,-7.0,-17.0,-5.0,-6.0
1702324086.7883792,0.0,-3.0,-17.0,1.0,4.0,5.0,3.0,3.0
1702324086.7883792,2.0,7.0,18.0,-2.0,-3.0,3.0,0.0,7.0
1702324086.7984078,-4.0,15.0,-9.0,3.0,-3.0,-9.0,-5.0,-1.0
1702324086.7984078,-3.0,-30.0,-32.0,3.0,6.0,3.0,-5.0,4.0
1702324086.8086734,9.0,12.0,18.0,-6.0,-2.0,-1.0,4.0,1.0
1702324086.8086734,-2.0,-19.0,7.0,-2.0,0.0,-1.0,6.0,-3.0
1702324086.8086734,-1.0,4.0,13.0,9.0,2.0,-1.0,-4.0,-1.0
1702324086.8086734,4.0,11.0,12.0,-5.0,-6.0,-3.0,0.0,1.0
1702324086.8303585,0.0,20.0,29.0,7.0,2.0,11.0,0.0,1.0
1702324086.8303585,-4.0,-3.0,-32.0,7.0,8.0,-1.0,-2.0,-4.0
1702324086.8403606,-15.0,-18.0,1.0,-11.0,-9.0,-8.0,-9.0,0.0
1702324086.8403606,-18.0,-20.0,-14.0,-5.0,-2.0,3.0,12.0,-5.0
1702324086.869924,6.0,6.0,-18.0,5.0,-2.0,3.0,-1.0,3.0
1702324086.869924,16.0,11.0,38.0,0.0,-2.0,-3.0,3.0,2.0
1702324086.869924,21.0,6.0,-5.0,-1.0,2.0,-2.0,1.0,-2.0
1702324086.869924,-10.0,9.0,14.0,12.0,9.0,9.0,1.0,-2.0
1702324086.87495,-13.0,1.0,-23.0,-14.0,-4.0,-10.0,-8.0,6.0
1702324086.8759265,3.0,-7.0,0.0,-1.0,-3.0,-2.0,9.0,-3.0
1702324086.8759265,-6.0,2.0,-27.0,-13.0,-3.0,6.0,3.0,0.0
1702324086.8759265,20.0,28.0,20.0,3.0,-1.0,5.0,-2.0,2.0
1702324086.9003491,-16.0,-36.0,-24.0,-9.0,-10.0,-25.0,-22.0,-6.0
1702324086.9003491,-8.0,6.0,7.0,16.0,3.0,21.0,6.0,1.0
1702324086.9003491,11.0,5.0,-5.0,1.0,6.0,8.0,9.0,-2.0
1702324086.9003491,-6.0,-8.0,3.0,0.0,0.0,-8.0,3.0,4.0
1702324086.9105701,-13.0,2.0,6.0,-4.0,2.0,4.0,-3.0,-10.0
1702324086.9105701,6.0,25.0,-1.0,-9.0,-4.0,-4.0,-9.0,3.0
1702324086.9206452,3.0,-53.0,-5.0,3.0,-5.0,-21.0,-3.0,0.0
1702324086.9206452,-5.0,18.0,-5.0,-3.0,-4.0,16.0,11.0,-1.0
1702324086.930356,26.0,22.0,8.0,-3.0,-3.0,-16.0,-2.0,3.0
1702324086.930356,-11.0,-28.0,9.0,6.0,5.0,6.0,-6.0,-4.0
1702324086.930356,-3.0,33.0,6.0,3.0,4.0,13.0,17.0,3.0
1702324086.930356,-4.0,-9.0,-21.0,1.0,-1.0,-13.0,-14.0,-2.0
1702324086.9688592,-7.0,-8.0,-2.0,-1.0,-2.0,2.0,4.0,-12.0
1702324086.9688592,5.0,20.0,-3.0,-9.0,-7.0,-25.0,-16.0,-4.0
1702324086.9688592,15.0,36.0,-4.0,27.0,14.0,30.0,16.0,8.0
1702324086.9688592,-25.0,-74.0,-14.0,-15.0,-9.0,-7.0,-6.0,-3.0
1702324086.9688592,0.0,22.0,16.0,3.0,3.0,16.0,13.0,3.0
1702324086.9688592,2.0,-10.0,-38.0,-10.0,-7.0,-5.0,-6.0,-3.0
1702324086.978856,-7.0,-8.0,31.0,-25.0,-13.0,-28.0,-18.0,-9.0
1702324086.978856,9.0,49.0,16.0,12.0,0.0,-11.0,-13.0,-2.0
1702324086.9890752,-5.0,-43.0,-30.0,-3.0,4.0,42.0,21.0,3.0
1702324086.9890752,2.0,4.0,28.0,7.0,-3.0,-30.0,-1.0,0.0
1702324086.9890752,-11.0,-17.0,-24.0,-16.0,-5.0,-5.0,-8.0,-4.0
1702324086.9890752,2.0,21.0,6.0,4.0,6.0,8.0,10.0,-2.0
1702324087.018858,4.0,-21.0,-43.0,-15.0,-7.0,-14.0,-8.0,0.0
1702324087.018858,-7.0,-37.0,-18.0,-8.0,-3.0,10.0,1.0,-4.0
1702324087.018858,-6.0,-24.0,11.0,-3.0,-7.0,7.0,-4.0,1.0
1702324087.018858,29.0,11.0,-2.0,0.0,0.0,-3.0,0.0,7.0
1702324087.0292065,-5.0,46.0,44.0,19.0,6.0,-16.0,-13.0,-4.0
1702324087.0292065,-9.0,-49.0,-16.0,-2.0,0.0,18.0,16.0,-1.0
1702324087.0391521,11.0,22.0,-4.0,-7.0,0.0,-5.0,-10.0,-2.0
1702324087.0391521,-6.0,-20.0,-3.0,-8.0,-6.0,5.0,2.0,-4.0
1702324087.0491145,0.0,2.0,-15.0,5.0,2.0,-8.0,5.0,9.0
1702324087.0491145,-11.0,31.0,8.0,-3.0,1.0,5.0,-7.0,-5.0
1702324087.0491145,-7.0,-14.0,8.0,1.0,0.0,7.0,0.0,0.0
1702324087.0491145,-4.0,-37.0,-48.0,-8.0,-4.0,-1.0,5.0,-1.0
1702324087.078857,7.0,16.0,5.0,-2.0,-3.0,-2.0,-2.0,-1.0
1702324087.078857,-1.0,21.0,23.0,7.0,3.0,-13.0,-8.0,1.0
1702324087.078857,-2.0,8.0,6.0,12.0,1.0,6.0,7.0,4.0
1702324087.078857,-1.0,12.0,32.0,6.0,0.0,-1.0,-1.0,-3.0
1702324087.0991745,5.0,14.0,-17.0,-13.0,-5.0,6.0,2.0,-7.0
1702324087.0991745,-12.0,-42.0,-3.0,-15.0,-4.0,-13.0,-5.0,4.0
1702324087.0991745,10.0,12.0,-27.0,2.0,-2.0,-1.0,4.0,3.0
1702324087.0991745,-20.0,-11.0,34.0,14.0,6.0,0.0,-8.0,-5.0
1702324087.1092079,2.0,-1.0,31.0,4.0,-3.0,-24.0,-14.0,-4.0
1702324087.1092079,12.0,16.0,23.0,10.0,0.0,27.0,11.0,4.0
1702324087.1092079,-13.0,-3.0,-17.0,-11.0,-3.0,-6.0,-2.0,-3.0
1702324087.1092079,11.0,7.0,-13.0,-13.0,-5.0,5.0,-5.0,-6.0
1702324087.1388586,-14.0,-26.0,-14.0,10.0,7.0,-17.0,-6.0,0.0
1702324087.1388586,6.0,4.0,-19.0,-7.0,-3.0,13.0,0.0,-6.0
1702324087.1388586,-11.0,2.0,19.0,2.0,-4.0,-8.0,-11.0,-2.0
1702324087.1388586,7.0,2.0,2.0,-4.0,0.0,8.0,1.0,5.0
1702324087.159262,8.0,5.0,-11.0,-3.0,-1.0,9.0,11.0,0.0
1702324087.159262,2.0,-3.0,-4.0,2.0,0.0,-11.0,0.0,-5.0
1702324087.159262,-15.0,4.0,12.0,2.0,0.0,-8.0,-7.0,-5.0
1702324087.159262,-5.0,8.0,1.0,-5.0,-3.0,0.0,-4.0,4.0
1702324087.1692028,5.0,-9.0,3.0,-4.0,0.0,6.0,4.0,-2.0
1702324087.1692028,-3.0,10.0,1.0,5.0,4.0,-7.0,0.0,3.0
1702324087.1788576,-6.0,3.0,5.0,4.0,3.0,0.0,0.0,-1.0
1702324087.1788576,-2.0,-8.0,11.0,-2.0,-4.0,-10.0,-9.0,-4.0
1702324087.1988597,3.0,9.0,-2.0,-2.0,-5.0,4.0,5.0,3.0
1702324087.1988597,-2.0,-1.0,16.0,-14.0,-11.0,-8.0,-7.0,-7.0
1702324087.1988597,10.0,-17.0,-44.0,17.0,4.0,-4.0,-5.0,0.0
1702324087.1988597,4.0,16.0,4.0,14.0,10.0,7.0,12.0,6.0
1702324087.2192075,-7.0,-11.0,4.0,-1.0,2.0,14.0,0.0,-2.0
1702324087.2192075,-8.0,-9.0,-7.0,-6.0,-5.0,-16.0,-23.0,-9.0
1702324087.2192075,-4.0,35.0,22.0,-13.0,-9.0,-8.0,19.0,1.0
1702324087.2192075,0.0,-41.0,-13.0,-1.0,3.0,14.0,3.0,-3.0
1702324087.2291963,0.0,-6.0,3.0,3.0,-5.0,-12.0,-2.0,-6.0
1702324087.2291963,13.0,12.0,7.0,5.0,0.0,-1.0,1.0,8.0
1702324087.23886,0.0,-11.0,-13.0,-9.0,7.0,16.0,2.0,9.0
1702324087.23886,-14.0,0.0,0.0,4.0,-5.0,-19.0,-10.0,-9.0
1702324087.2588618,6.0,-15.0,-1.0,-7.0,-1.0,15.0,1.0,0.0
1702324087.2588618,-10.0,20.0,-3.0,-4.0,-5.0,-1.0,0.0,-2.0
1702324087.2588618,13.0,-39.0,-3.0,9.0,6.0,4.0,-3.0,-4.0
1702324087.2588618,-5.0,40.0,-1.0,3.0,-3.0,-22.0,-4.0,-4.0
1702324087.278867,-7.0,-34.0,-5.0,0.0,1.0,2.0,-1.0,-3.0
1702324087.278867,1.0,27.0,2.0,-6.0,-4.0,4.0,2.0,0.0
1702324087.278867,10.0,15.0,-3.0,0.0,-5.0,-9.0,-3.0,3.0
1702324087.278867,12.0,-45.0,1.0,-6.0,-2.0,7.0,12.0,4.0
1702324087.2988617,3.0,-1.0,-22.0,-2.0,1.0,-4.0,-8.0,-8.0
1702324087.2988617,-28.0,4.0,3.0,5.0,-5.0,-5.0,1.0,-1.0
1702324087.3088632,10.0,35.0,26.0,10.0,1.0,2.0,0.0,-4.0
1702324087.3088632,-6.0,5.0,-19.0,-11.0,-2.0,-1.0,-7.0,-1.0
1702324087.31886,2.0,23.0,13.0,13.0,-1.0,-4.0,-2.0,3.0
1702324087.31886,9.0,-41.0,-58.0,-1.0,7.0,6.0,7.0,1.0
1702324087.31886,-3.0,-1.0,50.0,-24.0,-21.0,-11.0,-8.0,-7.0
1702324087.31886,-13.0,17.0,27.0,-12.0,-11.0,-2.0,-3.0,0.0
1702324087.3392706,1.0,4.0,15.0,13.0,5.0,4.0,-5.0,1.0
1702324087.3392706,7.0,-2.0,-42.0,-14.0,12.0,1.0,5.0,3.0
1702324087.3392706,-6.0,-23.0,-23.0,-7.0,0.0,3.0,-1.0,-4.0
1702324087.3392706,7.0,23.0,8.0,6.0,10.0,-2.0,0.0,-1.0
1702324087.3588574,-5.0,-12.0,7.0,-30.0,-2.0,3.0,3.0,1.0
1702324087.3593636,-2.0,-26.0,-8.0,33.0,0.0,0.0,-1.0,-4.0
1702324087.3643622,4.0,-5.0,-29.0,-3.0,1.0,2.0,0.0,2.0
1702324087.3643622,-2.0,8.0,24.0,0.0,-11.0,-3.0,-4.0,-3.0
1702324087.3793764,-13.0,-6.0,18.0,2.0,-3.0,-4.0,-5.0,-3.0
1702324087.3793764,7.0,10.0,16.0,-14.0,-6.0,-3.0,-1.0,-2.0
1702324087.3798633,-2.0,26.0,37.0,11.0,4.0,4.0,2.0,-3.0
1702324087.3798633,-6.0,-43.0,-39.0,3.0,0.0,-1.0,-1.0,0.0
1702324087.409866,-1.0,9.0,-55.0,-5.0,-3.0,-6.0,-1.0,2.0
1702324087.409866,-1.0,-12.0,18.0,-15.0,-9.0,2.0,3.0,-1.0
1702324087.419858,-17.0,1.0,-12.0,-5.0,-3.0,-3.0,-3.0,-8.0
1702324087.419858,1.0,17.0,15.0,0.0,3.0,0.0,-1.0,0.0
1702324087.419858,7.0,21.0,18.0,7.0,1.0,-7.0,-1.0,0.0
1702324087.419858,-7.0,-27.0,-15.0,-3.0,0.0,-3.0,-11.0,-8.0
1702324087.419858,3.0,-11.0,-5.0,1.0,0.0,9.0,19.0,22.0
1702324087.419858,3.0,12.0,-19.0,0.0,1.0,3.0,1.0,-3.0
1702324087.429888,-4.0,-15.0,0.0,-5.0,-5.0,3.0,2.0,2.0
1702324087.429888,6.0,15.0,11.0,6.0,1.0,-5.0,-1.0,-4.0
1702324087.429888,5.0,7.0,-8.0,-2.0,-1.0,-5.0,-10.0,-2.0
1702324087.429888,-7.0,-1.0,4.0,-2.0,2.0,0.0,-2.0,-11.0
1702324087.4591994,0.0,13.0,22.0,2.0,-4.0,-5.0,-1.0,3.0
1702324087.4591994,-2.0,0.0,-4.0,-1.0,2.0,-1.0,0.0,1.0
1702324087.4591994,4.0,-5.0,-18.0,-4.0,-4.0,-1.0,-1.0,-4.0
1702324087.4591994,1.0,-10.0,-13.0,-5.0,1.0,-1.0,2.0,5.0
1702324087.4695306,-1.0,2.0,17.0,12.0,7.0,-1.0,-4.0,-5.0
1702324087.4695306,-8.0,-19.0,-26.0,0.0,-2.0,-3.0,-2.0,1.0
1702324087.4695306,3.0,-6.0,10.0,3.0,-6.0,-4.0,-4.0,-7.0
1702324087.4695306,-9.0,18.0,-4.0,-10.0,-1.0,-1.0,-1.0,1.0
1702324087.489244,2.0,-13.0,-8.0,-5.0,0.0,0.0,-1.0,-1.0
1702324087.489244,14.0,22.0,15.0,5.0,0.0,-1.0,3.0,3.0
1702324087.499212,-12.0,-22.0,-17.0,-9.0,0.0,-2.0,-3.0,-5.0
1702324087.499212,0.0,-17.0,-13.0,4.0,-8.0,-6.0,-6.0,-2.0
1702324087.5192091,-2.0,-4.0,8.0,-1.0,-7.0,2.0,1.0,0.0
1702324087.5192091,1.0,7.0,15.0,-5.0,5.0,-1.0,2.0,0.0
1702324087.529208,0.0,-1.0,4.0,-2.0,0.0,-1.0,-3.0,-4.0
1702324087.529208,-4.0,-3.0,-14.0,-1.0,1.0,-1.0,-1.0,2.0
1702324087.529208,-5.0,-6.0,-2.0,-1.0,-5.0,-1.0,-1.0,-2.0
1702324087.529208,3.0,1.0,-34.0,-4.0,-5.0,-3.0,-1.0,-1.0
1702324087.529208,-1.0,3.0,26.0,-3.0,1.0,0.0,-1.0,-1.0
1702324087.529208,6.0,2.0,-2.0,-6.0,2.0,2.0,1.0,0.0
1702324087.559209,2.0,0.0,-12.0,-4.0,-4.0,0.0,-1.0,4.0
1702324087.559209,0.0,-4.0,12.0,-1.0,1.0,1.0,-1.0,0.0
1702324087.559209,-8.0,1.0,-4.0,9.0,3.0,-2.0,-3.0,-8.0
1702324087.559209,1.0,-8.0,-13.0,-18.0,-5.0,-2.0,-1.0,-1.0
1702324087.5892093,3.0,12.0,9.0,23.0,6.0,0.0,0.0,0.0
1702324087.5892093,-5.0,9.0,29.0,-2.0,-2.0,2.0,1.0,0.0
1702324087.5892093,4.0,10.0,6.0,5.0,2.0,0.0,0.0,2.0
1702324087.5892093,-13.0,-20.0,-11.0,-4.0,-4.0,-4.0,-1.0,-1.0
1702324087.5995588,2.0,-2.0,8.0,-14.0,-7.0,-9.0,-5.0,-2.0
1702324087.5995588,6.0,9.0,-6.0,1.0,-3.0,4.0,0.0,3.0
1702324087.5995588,-1.0,-6.0,-11.0,2.0,0.0,0.0,0.0,1.0
1702324087.5995588,7.0,8.0,13.0,8.0,3.0,2.0,3.0,-2.0
1702324087.619228,-6.0,-2.0,-18.0,-11.0,-2.0,-4.0,-4.0,-3.0
1702324087.619228,-1.0,-6.0,12.0,-2.0,-4.0,-6.0,-3.0,0.0
1702324087.619228,-5.0,-6.0,-12.0,3.0,-1.0,-2.0,-2.0,-4.0
1702324087.619228,2.0,1.0,19.0,-4.0,2.0,3.0,1.0,0.0
1702324087.6392095,1.0,-1.0,-10.0,-18.0,-8.0,-6.0,0.0,2.0
1702324087.6392095,-2.0,0.0,13.0,12.0,-5.0,-1.0,-3.0,-1.0
1702324087.6392095,3.0,-8.0,-6.0,-2.0,5.0,-1.0,-3.0,-2.0
1702324087.6392095,-3.0,-8.0,-14.0,-3.0,-6.0,-3.0,-4.0,-1.0
1702324087.6495166,-3.0,7.0,24.0,14.0,15.0,7.0,2.0,-1.0
1702324087.6495166,2.0,2.0,-8.0,-21.0,-8.0,-5.0,-2.0,-1.0
1702324087.6495166,-3.0,-7.0,-9.0,-4.0,-3.0,-2.0,0.0,1.0
1702324087.6495166,-5.0,-4.0,-7.0,2.0,-5.0,-2.0,-1.0,-2.0
1702324087.6792686,6.0,-1.0,-20.0,-14.0,-6.0,-4.0,-1.0,-1.0
1702324087.6792686,-10.0,-2.0,21.0,4.0,0.0,0.0,0.0,-4.0
1702324087.6792686,-5.0,-6.0,-13.0,-5.0,-2.0,-2.0,0.0,0.0
1702324087.6792686,9.0,9.0,4.0,3.0,3.0,1.0,-2.0,3.0
1702324087.69924,-6.0,-12.0,-3.0,3.0,-3.0,2.0,-1.0,-1.0
1702324087.69924,-1.0,-1.0,-5.0,0.0,2.0,-1.0,0.0,-7.0
1702324087.69924,-4.0,3.0,9.0,-1.0,-2.0,-1.0,-3.0,-1.0
1702324087.69924,-1.0,-2.0,-4.0,0.0,-2.0,-5.0,-1.0,3.0
1702324087.709601,1.0,0.0,0.0,2.0,2.0,2.0,3.0,0.0
1702324087.709601,2.0,10.0,-6.0,2.0,1.0,-1.0,-2.0,-2.0
1702324087.719586,9.0,3.0,3.0,-4.0,-5.0,-6.0,-2.0,-2.0
1702324087.719586,-10.0,-9.0,0.0,3.0,1.0,7.0,1.0,3.0
1702324087.7392614,-2.0,-10.0,-5.0,-1.0,-2.0,-3.0,0.0,-2.0
1702324087.7392614,2.0,26.0,9.0,3.0,2.0,-1.0,-1.0,-4.0
1702324087.7392614,-10.0,-22.0,-14.0,-6.0,-5.0,3.0,-3.0,-4.0
1702324087.7392614,5.0,1.0,-33.0,-15.0,-8.0,-1.0,4.0,1.0
1702324087.759239,-5.0,9.0,19.0,2.0,3.0,1.0,-2.0,0.0
1702324087.759239,-3.0,10.0,24.0,27.0,9.0,-1.0,1.0,2.0
1702324087.759239,4.0,20.0,9.0,-18.0,-13.0,-7.0,-6.0,0.0
1702324087.759239,-3.0,-23.0,28.0,34.0,1.0,0.0,-2.0,-3.0
1702324087.769615,4.0,3.0,-32.0,-26.0,8.0,-1.0,1.0,-1.0
1702324087.769615,6.0,-16.0,-13.0,29.0,26.0,9.0,3.0,7.0
1702324087.779225,-11.0,7.0,22.0,13.0,14.0,6.0,1.0,-3.0
1702324087.779225,-1.0,2.0,-9.0,-1.0,-4.0,-2.0,-3.0,-6.0
1702324087.7992082,-4.0,1.0,12.0,-7.0,-12.0,-6.0,-2.0,0.0
1702324087.7992082,-6.0,-17.0,-24.0,-11.0,-12.0,-6.0,-5.0,-1.0
1702324087.7992082,4.0,-11.0,-33.0,-6.0,-5.0,0.0,2.0,0.0
1702324087.7992082,10.0,14.0,7.0,-7.0,-5.0,-8.0,-4.0,-4.0
1702324087.8195062,-2.0,-10.0,2.0,7.0,-5.0,-2.0,-2.0,-4.0
1702324087.8195062,-11.0,7.0,4.0,-20.0,-7.0,1.0,-1.0,0.0
1702324087.8195062,-9.0,-12.0,-7.0,0.0,-2.0,-1.0,0.0,1.0
1702324087.8195062,-6.0,-9.0,2.0,-2.0,3.0,-8.0,-3.0,-2.0
1702324087.8292174,13.0,35.0,8.0,9.0,5.0,17.0,1.0,-2.0
1702324087.8292174,-8.0,-41.0,-8.0,-8.0,-3.0,1.0,4.0,-2.0
1702324087.8394673,-3.0,4.0,0.0,2.0,0.0,-3.0,-2.0,0.0
1702324087.8394673,-2.0,-4.0,4.0,-1.0,3.0,-3.0,-5.0,1.0
1702324087.8692086,7.0,6.0,-20.0,3.0,-1.0,-6.0,6.0,-1.0
1702324087.8692086,-10.0,-26.0,14.0,-7.0,-7.0,-4.0,-4.0,-4.0
1702324087.8692086,-2.0,4.0,-7.0,-3.0,-5.0,-3.0,-1.0,-2.0
1702324087.8692086,-1.0,21.0,4.0,-14.0,-3.0,-1.0,-3.0,1.0
1702324087.8792074,2.0,-21.0,-2.0,18.0,6.0,3.0,-1.0,4.0
1702324087.8792074,12.0,-3.0,0.0,-6.0,-7.0,0.0,0.0,1.0
1702324087.8792074,-11.0,-9.0,6.0,-1.0,-6.0,-6.0,-1.0,-5.0
1702324087.8792074,-7.0,-2.0,-22.0,9.0,15.0,6.0,4.0,-1.0
1702324087.896395,-5.0,-4.0,4.0,6.0,-13.0,-6.0,-4.0,-2.0
1702324087.896395,7.0,10.0,13.0,-7.0,0.0,-6.0,-2.0,-4.0
1702324087.903527,1.0,8.0,23.0,3.0,5.0,4.0,1.0,-5.0
1702324087.9045467,3.0,-1.0,-16.0,-14.0,-2.0,-1.0,1.0,1.0
1702324087.9126518,-5.0,-6.0,-1.0,4.0,5.0,0.0,1.0,-1.0
1702324087.9126518,7.0,5.0,2.0,2.0,-5.0,4.0,-1.0,3.0
1702324087.9126518,6.0,9.0,-12.0,-2.0,-5.0,-3.0,-2.0,2.0
1702324087.9126518,-12.0,-27.0,0.0,-11.0,-7.0,-1.0,-2.0,-3.0
1702324087.9426484,-6.0,-19.0,-34.0,-14.0,-5.0,-4.0,-5.0,-4.0
1702324087.9426484,-6.0,14.0,6.0,-3.0,-5.0,-3.0,-3.0,-2.0
1702324087.9426484,4.0,-6.0,-17.0,0.0,0.0,-5.0,3.0,2.0
1702324087.9426484,11.0,31.0,22.0,9.0,5.0,6.0,-5.0,4.0
1702324087.9528809,-6.0,-11.0,4.0,-3.0,-2.0,1.0,5.0,-8.0
1702324087.9528809,1.0,11.0,-10.0,-2.0,0.0,0.0,-2.0,-2.0
1702324087.9626544,3.0,-19.0,12.0,4.0,4.0,3.0,1.0,2.0
1702324087.9626544,0.0,-11.0,-13.0,-1.0,-5.0,-12.0,-3.0,-1.0
1702324087.9891777,-9.0,3.0,6.0,-5.0,-1.0,-6.0,-7.0,0.0
1702324087.9891777,-5.0,3.0,-7.0,1.0,2.0,5.0,3.0,1.0
1702324087.9891777,11.0,3.0,-4.0,-3.0,-1.0,7.0,-1.0,-2.0
1702324087.9891777,-4.0,4.0,13.0,4.0,0.0,0.0,1.0,-3.0
1702324087.999529,0.0,-6.0,-3.0,-10.0,-4.0,-3.0,-4.0,1.0
1702324087.999529,-4.0,-6.0,-28.0,8.0,6.0,-3.0,4.0,-1.0
1702324087.999529,6.0,8.0,10.0,4.0,1.0,-1.0,-2.0,-2.0
1702324087.999529,2.0,-3.0,6.0,0.0,-3.0,2.0,0.0,-1.0
1702324088.0095754,-4.0,4.0,1.0,-4.0,1.0,-2.0,0.0,-1.0
1702324088.0095754,-4.0,-22.0,-3.0,-7.0,-4.0,-5.0,-3.0,-3.0
1702324088.0291765,0.0,10.0,-14.0,1.0,-1.0,-2.0,0.0,2.0
1702324088.0291765,0.0,15.0,8.0,-7.0,-1.0,0.0,1.0,-2.0
1702324088.0391831,-7.0,-8.0,-11.0,8.0,6.0,0.0,0.0,0.0
1702324088.0391831,6.0,5.0,13.0,-5.0,-5.0,-1.0,-3.0,0.0
1702324088.0391831,-3.0,-5.0,14.0,1.0,-1.0,-6.0,-5.0,-2.0
1702324088.0391831,10.0,5.0,9.0,3.0,0.0,4.0,9.0,2.0
1702324088.0595193,-5.0,-3.0,-8.0,-4.0,-7.0,-6.0,-2.0,1.0
1702324088.0595193,-3.0,7.0,-31.0,-28.0,-1.0,-1.0,-2.0,-1.0
1702324088.0595193,0.0,-24.0,26.0,42.0,16.0,10.0,5.0,2.0
1702324088.0595193,0.0,-4.0,0.0,4.0,-3.0,-2.0,-4.0,-7.0
1702324088.0991807,-10.0,13.0,22.0,4.0,-3.0,-3.0,-4.0,-4.0
1702324088.0991807,2.0,-24.0,-49.0,-20.0,-7.0,-1.0,-1.0,2.0
1702324088.0991807,-23.0,-3.0,-19.0,-29.0,-11.0,-9.0,-6.0,-3.0
1702324088.0991807,9.0,2.0,-40.0,-15.0,6.0,4.0,1.0,0.0
1702324088.0991807,-1.0,0.0,48.0,22.0,5.0,3.0,-2.0,-1.0
1702324088.0991807,0.0,24.0,30.0,18.0,7.0,-8.0,-1.0,-1.0
1702324088.0991807,9.0,-2.0,2.0,-8.0,-4.0,9.0,-3.0,-1.0
1702324088.0991807,-10.0,-16.0,9.0,1.0,-5.0,-4.0,-7.0,2.0
1702324088.1195846,7.0,15.0,-47.0,-25.0,-6.0,0.0,5.0,1.0
1702324088.1195846,-1.0,-22.0,3.0,4.0,-3.0,-3.0,-2.0,-2.0
1702324088.1195846,-12.0,-34.0,-21.0,-5.0,-3.0,-10.0,-5.0,-4.0
1702324088.1195846,-4.0,6.0,25.0,3.0,1.0,7.0,9.0,1.0
1702324088.1391785,9.0,1.0,-3.0,-3.0,3.0,4.0,0.0,1.0
1702324088.1391785,-2.0,18.0,21.0,7.0,1.0,-1.0,-1.0,-3.0
1702324088.1391785,12.0,32.0,-7.0,0.0,1.0,-6.0,-3.0,-1.0
1702324088.1391785,2.0,-5.0,-1.0,-2.0,-2.0,0.0,-3.0,-1.0
1702324088.159184,-21.0,-40.0,-7.0,-9.0,-5.0,-3.0,-4.0,-2.0
1702324088.159184,5.0,-5.0,-7.0,6.0,1.0,0.0,-2.0,-5.0
1702324088.159184,-12.0,8.0,20.0,-1.0,-3.0,-6.0,-4.0,-2.0
1702324088.159184,-6.0,11.0,-11.0,1.0,-2.0,0.0,0.0,-3.0
1702324088.1791852,13.0,9.0,3.0,2.0,2.0,1.0,3.0,2.0
1702324088.1791852,-2.0,1.0,5.0,7.0,6.0,6.0,1.0,-1.0
1702324088.1791852,0.0,-10.0,-14.0,-9.0,-4.0,-3.0,-6.0,-2.0
1702324088.1791852,-1.0,-11.0,-21.0,-18.0,-5.0,0.0,4.0,-1.0
1702324088.219177,-2.0,-6.0,4.0,13.0,-2.0,0.0,-4.0,-4.0
1702324088.219177,-14.0,-8.0,-7.0,-13.0,-11.0,-5.0,-4.0,-6.0
1702324088.219177,9.0,18.0,14.0,11.0,-1.0,-2.0,2.0,3.0
1702324088.219177,-3.0,-10.0,-3.0,3.0,2.0,-4.0,-6.0,-1.0
1702324088.219177,1.0,-9.0,13.0,-4.0,1.0,-3.0,-8.0,2.0
1702324088.219177,1.0,11.0,-4.0,4.0,1.0,1.0,7.0,0.0
1702324088.219177,-3.0,6.0,-16.0,-7.0,-2.0,5.0,3.0,-6.0
1702324088.219177,0.0,5.0,11.0,8.0,-2.0,-4.0,-4.0,0.0
1702324088.2491834,7.0,0.0,-3.0,-10.0,-1.0,1.0,1.0,-2.0
1702324088.2491834,-2.0,-5.0,17.0,11.0,0.0,-3.0,-6.0,0.0
1702324088.2491834,-9.0,-3.0,6.0,-3.0,-1.0,4.0,2.0,-2.0
1702324088.2491834,2.0,0.0,-4.0,4.0,-3.0,-17.0,-2.0,0.0
1702324088.2591772,1.0,5.0,-2.0,1.0,7.0,22.0,1.0,1.0
1702324088.2591772,3.0,5.0,7.0,-2.0,2.0,5.0,2.0,2.0
1702324088.2591772,3.0,-8.0,-34.0,-19.0,-3.0,4.0,0.0,1.0
1702324088.2591772,-6.0,9.0,17.0,5.0,-4.0,-7.0,-2.0,-3.0
1702324088.279183,-4.0,-8.0,-13.0,-3.0,-5.0,-7.0,-4.0,-2.0
1702324088.279183,1.0,5.0,52.0,-4.0,-3.0,-6.0,-5.0,-2.0
1702324088.279183,-4.0,26.0,10.0,5.0,-2.0,0.0,3.0,-1.0
1702324088.279183,-7.0,-43.0,-45.0,-12.0,-4.0,-2.0,-5.0,-5.0
1702324088.3092465,7.0,12.0,-26.0,-6.0,-5.0,-5.0,-2.0,-1.0
1702324088.3092465,2.0,-10.0,-23.0,-1.0,-1.0,0.0,0.0,1.0
1702324088.3192632,0.0,33.0,26.0,8.0,3.0,-1.0,1.0,-3.0
1702324088.3192632,-5.0,-38.0,7.0,0.0,5.0,3.0,0.0,-1.0
1702324088.3192632,-1.0,35.0,8.0,2.0,0.0,-1.0,0.0,1.0
1702324088.3192632,4.0,-11.0,-9.0,5.0,3.0,-3.0,1.0,1.0
1702324088.3192632,2.0,-5.0,2.0,-5.0,-5.0,-2.0,-1.0,2.0
1702324088.3192632,-1.0,12.0,-6.0,6.0,-4.0,-1.0,-2.0,-2.0
1702324088.329488,4.0,5.0,24.0,8.0,5.0,-2.0,-1.0,-2.0
1702324088.3392675,0.0,4.0,3.0,13.0,0.0,-2.0,-3.0,0.0
1702324088.3392675,-10.0,-16.0,-11.0,-6.0,-1.0,-5.0,0.0,-6.0
1702324088.3392675,3.0,14.0,3.0,-6.0,1.0,11.0,1.0,3.0
1702324088.3692646,-9.0,-12.0,-11.0,-7.0,-7.0,-10.0,1.0,-2.0
1702324088.3692646,-1.0,-1.0,-5.0,-10.0,-5.0,-7.0,-7.0,-4.0
1702324088.3692646,-5.0,-11.0,-8.0,1.0,4.0,9.0,6.0,-1.0
1702324088.3692646,4.0,3.0,5.0,1.0,4.0,2.0,-1.0,1.0
1702324088.389364,0.0,-10.0,-1.0,-1.0,-4.0,-8.0,-5.0,-3.0
1702324088.389364,1.0,4.0,5.0,-3.0,0.0,-4.0,-1.0,0.0
1702324088.389364,8.0,-7.0,-8.0,-4.0,-5.0,5.0,2.0,1.0
1702324088.389364,-3.0,4.0,-2.0,-1.0,-2.0,-4.0,-1.0,-2.0
1702324088.399322,-5.0,-1.0,-6.0,3.0,1.0,6.0,5.0,-2.0
1702324088.399322,-7.0,-10.0,11.0,-14.0,-7.0,-8.0,-8.0,-9.0
1702324088.399322,-14.0,-26.0,24.0,5.0,-4.0,-8.0,-10.0,-4.0
1702324088.399322,11.0,10.0,-37.0,-4.0,-2.0,1.0,2.0,1.0
1702324088.4331868,5.0,1.0,-10.0,6.0,6.0,-2.0,1.0,2.0
1702324088.4341905,-5.0,-10.0,-15.0,-16.0,0.0,5.0,3.0,0.0
1702324088.440188,5.0,17.0,13.0,22.0,3.0,-2.0,-2.0,-6.0
1702324088.440188,-12.0,-32.0,20.0,1.0,-1.0,1.0,0.0,-4.0
1702324088.4449883,-6.0,9.0,10.0,-2.0,-5.0,1.0,-4.0,-2.0
1702324088.4449883,-2.0,-6.0,-16.0,-4.0,-1.0,-6.0,2.0,-2.0
1702324088.4449883,13.0,-6.0,-17.0,-7.0,0.0,3.0,1.0,6.0
1702324088.4449883,-5.0,14.0,-16.0,1.0,1.0,2.0,-3.0,1.0
1702324088.4553452,2.0,1.0,27.0,1.0,0.0,-4.0,-3.0,-3.0
1702324088.4553452,-4.0,-3.0,11.0,3.0,0.0,12.0,5.0,3.0
1702324088.4553452,-2.0,16.0,5.0,1.0,0.0,-10.0,-8.0,0.0
1702324088.4553452,0.0,-6.0,-3.0,-3.0,-4.0,-1.0,0.0,-6.0
1702324088.47499,-6.0,-12.0,-2.0,-6.0,-3.0,1.0,7.0,6.0
1702324088.47499,17.0,14.0,-17.0,3.0,-1.0,0.0,1.0,2.0
1702324088.47499,-22.0,-35.0,14.0,-4.0,-3.0,-4.0,-3.0,-2.0
1702324088.47499,-5.0,18.0,21.0,-3.0,-1.0,-4.0,-6.0,2.0
1702324088.4951136,3.0,-3.0,-28.0,-3.0,-5.0,-3.0,-5.0,-7.0
1702324088.4951136,-2.0,7.0,4.0,3.0,-2.0,1.0,-2.0,-5.0
1702324088.5049932,-5.0,-18.0,5.0,0.0,1.0,-3.0,0.0,0.0
1702324088.5049932,4.0,8.0,24.0,-6.0,-1.0,-3.0,-1.0,-4.0
1702324088.5152864,-7.0,1.0,-31.0,-2.0,1.0,-3.0,0.0,1.0
1702324088.5152864,4.0,0.0,11.0,7.0,-1.0,3.0,0.0,-4.0
1702324088.5152864,5.0,12.0,-14.0,-4.0,-1.0,2.0,-1.0,1.0
1702324088.5152864,3.0,0.0,17.0,5.0,-4.0,-9.0,-5.0,-5.0
1702324088.5349903,3.0,1.0,5.0,-7.0,-2.0,7.0,-1.0,0.0
1702324088.5349903,-5.0,3.0,-39.0,-8.0,-3.0,-4.0,7.0,2.0
1702324088.5349903,11.0,-8.0,10.0,-1.0,3.0,0.0,-1.0,-1.0
1702324088.5349903,-7.0,3.0,14.0,5.0,2.0,-1.0,-1.0,-1.0
1702324088.555395,-4.0,7.0,-2.0,-1.0,-3.0,-3.0,-6.0,-4.0
1702324088.555395,-13.0,-7.0,-16.0,-1.0,1.0,1.0,-4.0,-2.0
1702324088.5649934,5.0,-3.0,-4.0,2.0,1.0,3.0,7.0,2.0
1702324088.5649934,10.0,12.0,-11.0,-6.0,-3.0,-6.0,0.0,2.0
1702324088.575296,-9.0,-20.0,1.0,-7.0,-6.0,-5.0,-4.0,-2.0
1702324088.575296,-4.0,-5.0,18.0,8.0,0.0,-3.0,-6.0,-5.0
1702324088.575296,9.0,-5.0,-20.0,3.0,8.0,-1.0,0.0,1.0
1702324088.575296,-5.0,39.0,3.0,0.0,1.0,4.0,1.0,-2.0
1702324088.6049893,7.0,-22.0,20.0,7.0,3.0,2.0,1.0,0.0
1702324088.6049893,0.0,-8.0,8.0,-15.0,-3.0,0.0,0.0,7.0
1702324088.6049893,11.0,7.0,-47.0,-2.0,-6.0,-2.0,-3.0,-2.0
1702324088.6049893,-2.0,-8.0,2.0,7.0,0.0,-2.0,-2.0,-3.0
1702324088.6153028,-19.0,6.0,11.0,1.0,1.0,4.0,3.0,-5.0
1702324088.6153028,-1.0,-7.0,-8.0,7.0,-1.0,-7.0,-9.0,3.0
1702324088.624993,10.0,6.0,27.0,-7.0,-2.0,-1.0,8.0,-2.0
1702324088.624993,-1.0,-8.0,-10.0,2.0,-1.0,-3.0,-1.0,2.0
1702324088.6349916,7.0,5.0,-13.0,-5.0,-3.0,-2.0,-5.0,1.0
1702324088.6349916,-6.0,-5.0,1.0,-3.0,-1.0,6.0,1.0,-3.0
1702324088.6349916,-8.0,14.0,27.0,2.0,0.0,0.0,-5.0,1.0
1702324088.6349916,3.0,-7.0,-1.0,-3.0,-3.0,1.0,-1.0,-1.0
1702324088.6552832,-3.0,25.0,-22.0,0.0,1.0,-4.0,3.0,4.0
1702324088.6552832,-9.0,-18.0,-3.0,-4.0,-2.0,-3.0,-1.0,-1.0
1702324088.6651752,0.0,-19.0,-17.0,-13.0,-7.0,-4.0,-5.0,1.0
1702324088.6651752,0.0,-1.0,-5.0,-2.0,0.0,1.0,1.0,-3.0
1702324088.6849957,-3.0,19.0,30.0,5.0,3.0,0.0,-2.0,3.0
1702324088.6849957,2.0,-20.0,-20.0,-7.0,-3.0,3.0,-8.0,-3.0
1702324088.6849957,-5.0,22.0,5.0,3.0,-2.0,-6.0,5.0,-2.0
1702324088.6849957,1.0,-20.0,11.0,-3.0,-1.0,0.0,-7.0,1.0
1702324088.7149885,4.0,5.0,-10.0,0.0,-1.0,-12.0,-4.0,-5.0
1702324088.7149885,-5.0,24.0,10.0,2.0,-2.0,-20.0,7.0,4.0
1702324088.7149885,-1.0,-53.0,-54.0,-14.0,-4.0,31.0,-11.0,1.0
1702324088.7149885,-14.0,-5.0,-9.0,-3.0,-1.0,-10.0,0.0,-1.0
1702324088.7149885,17.0,-9.0,-5.0,-21.0,-3.0,28.0,13.0,-7.0
1702324088.7149885,-4.0,9.0,8.0,0.0,-8.0,-6.0,-1.0,-3.0
1702324088.7149885,-30.0,12.0,-14.0,20.0,16.0,-4.0,4.0,4.0
1702324088.7149885,-8.0,8.0,46.0,11.0,-3.0,-4.0,-8.0,-1.0
1702324088.7449958,11.0,-9.0,-14.0,-16.0,1.0,-13.0,-8.0,2.0
1702324088.7449958,14.0,13.0,8.0,14.0,14.0,7.0,8.0,4.0
1702324088.7449958,-1.0,3.0,-4.0,-2.0,0.0,-1.0,-4.0,-5.0
1702324088.7449958,8.0,9.0,-15.0,13.0,9.0,6.0,2.0,2.0
1702324088.7552226,-16.0,-33.0,7.0,-4.0,-9.0,-12.0,-2.0,-2.0
1702324088.7552226,7.0,1.0,-8.0,-16.0,-10.0,2.0,-4.0,-1.0
1702324088.774989,4.0,20.0,24.0,-3.0,-10.0,-5.0,-3.0,-1.0
1702324088.774989,-7.0,-31.0,-21.0,-9.0,-9.0,-5.0,-1.0,-6.0
1702324088.774989,5.0,8.0,-1.0,3.0,-2.0,-2.0,1.0,-3.0
1702324088.774989,-5.0,-13.0,-13.0,-4.0,2.0,2.0,-2.0,-1.0
1702324088.774989,-2.0,6.0,23.0,0.0,-2.0,-3.0,-2.0,-3.0
1702324088.774989,6.0,11.0,8.0,-7.0,-3.0,2.0,4.0,0.0
1702324088.7949939,-8.0,-23.0,-1.0,2.0,0.0,-3.0,-7.0,-2.0
1702324088.7949939,-7.0,20.0,-9.0,3.0,-2.0,3.0,-1.0,-4.0
1702324088.8049936,18.0,36.0,13.0,3.0,-2.0,-4.0,3.0,5.0
1702324088.8049936,13.0,7.0,-9.0,3.0,4.0,8.0,3.0,7.0
1702324088.814993,-17.0,19.0,5.0,4.0,3.0,-1.0,-1.0,-2.0
1702324088.814993,9.0,-30.0,10.0,10.0,5.0,0.0,-1.0,-6.0
1702324088.8250377,-16.0,4.0,19.0,-12.0,-6.0,-5.0,-2.0,-1.0
1702324088.8250377,-6.0,-8.0,-44.0,12.0,3.0,3.0,1.0,-1.0
1702324088.8352413,8.0,1.0,19.0,-4.0,-1.0,-2.0,-1.0,-1.0
1702324088.8352413,6.0,17.0,16.0,6.0,-4.0,-4.0,0.0,-1.0
1702324088.8352413,-9.0,-16.0,-2.0,-4.0,1.0,-1.0,-8.0,-5.0
1702324088.8352413,-4.0,-16.0,-23.0,-9.0,-5.0,0.0,3.0,2.0
1702324088.874991,-1.0,4.0,20.0,7.0,0.0,-14.0,4.0,1.0
1702324088.874991,1.0,-2.0,-23.0,-10.0,-2.0,15.0,-3.0,-1.0
1702324088.874991,4.0,-12.0,-9.0,-2.0,-5.0,-6.0,-5.0,-3.0
1702324088.874991,-4.0,-2.0,6.0,-5.0,-3.0,-5.0,-3.0,-3.0
1702324088.8849893,5.0,-11.0,-12.0,4.0,0.0,-1.0,-7.0,-2.0
1702324088.8849893,0.0,13.0,5.0,-4.0,1.0,7.0,10.0,2.0
1702324088.8849893,-5.0,-2.0,3.0,4.0,1.0,0.0,0.0,-2.0
1702324088.8849893,0.0,-6.0,-25.0,-2.0,-2.0,2.0,0.0,-4.0
1702324088.8952415,2.0,7.0,56.0,-6.0,-4.0,-5.0,-4.0,1.0
1702324088.8952415,-7.0,-10.0,-28.0,6.0,-2.0,-8.0,-7.0,-2.0
1702324088.8952415,-7.0,-8.0,17.0,-1.0,1.0,0.0,2.0,-2.0
1702324088.8952415,-5.0,11.0,-1.0,5.0,3.0,-4.0,1.0,-1.0
1702324088.9249902,9.0,0.0,-13.0,9.0,-2.0,-2.0,-7.0,3.0
1702324088.9249902,-22.0,0.0,2.0,-9.0,-1.0,-1.0,-2.0,-6.0
1702324088.9249902,6.0,30.0,-22.0,-13.0,-2.0,0.0,4.0,-4.0
1702324088.9249902,-12.0,-32.0,37.0,3.0,-5.0,-3.0,-6.0,-5.0
1702324088.935023,-9.0,-35.0,-22.0,-6.0,3.0,4.0,-2.0,-3.0
1702324088.935023,1.0,1.0,-20.0,0.0,-2.0,-4.0,-3.0,2.0
1702324088.9449923,8.0,0.0,-15.0,-5.0,-3.0,-5.0,-4.0,0.0
1702324088.9449923,-1.0,20.0,16.0,-7.0,-1.0,3.0,0.0,2.0
1702324088.961795,6.0,-8.0,-9.0,-1.0,0.0,5.0,5.0,1.0
1702324088.961795,-2.0,-9.0,33.0,-2.0,0.0,-4.0,-3.0,-3.0
1702324088.9630811,-4.0,4.0,-14.0,3.0,-3.0,-1.0,0.0,-3.0
1702324088.9630811,17.0,15.0,27.0,26.0,10.0,3.0,-2.0,2.0
1702324088.9794104,-5.0,-1.0,-26.0,0.0,1.0,-5.0,-4.0,1.0
1702324088.9794104,-4.0,11.0,8.0,0.0,0.0,4.0,11.0,-1.0
1702324088.9794104,-8.0,-14.0,-2.0,-6.0,-2.0,14.0,0.0,0.0
1702324088.9794104,-3.0,-1.0,4.0,-15.0,-4.0,-3.0,-1.0,1.0
1702324089.0060127,-1.0,-2.0,-4.0,-3.0,-5.0,0.0,-5.0,-6.0
1702324089.0060127,15.0,6.0,-3.0,-11.0,-4.0,-9.0,-3.0,-3.0
1702324089.0060127,4.0,-17.0,17.0,21.0,4.0,-4.0,-2.0,0.0
1702324089.0060127,1.0,6.0,-10.0,-1.0,-2.0,1.0,1.0,-5.0
1702324089.0159423,-17.0,15.0,4.0,1.0,0.0,1.0,2.0,6.0
1702324089.0159423,8.0,-21.0,-27.0,-13.0,-5.0,-9.0,-9.0,-5.0
1702324089.0159423,-1.0,5.0,9.0,0.0,-1.0,-1.0,2.0,4.0
1702324089.0159423,-1.0,-10.0,2.0,8.0,10.0,1.0,1.0,-1.0
1702324089.0360005,-12.0,6.0,7.0,0.0,-6.0,-1.0,2.0,-2.0
1702324089.0360005,-6.0,-10.0,-16.0,11.0,4.0,1.0,-4.0,-3.0
1702324089.0360005,6.0,10.0,27.0,-1.0,-3.0,-6.0,-3.0,-1.0
1702324089.0360005,8.0,8.0,-7.0,-11.0,-6.0,-5.0,-4.0,0.0
1702324089.0663254,6.0,3.0,16.0,8.0,5.0,4.0,2.0,-3.0
1702324089.0663254,6.0,-25.0,-7.0,3.0,4.0,-2.0,-13.0,-1.0
1702324089.0663254,-8.0,-33.0,-26.0,-4.0,0.0,-9.0,1.0,9.0
1702324089.0663254,1.0,-4.0,0.0,-11.0,-7.0,5.0,7.0,-25.0
1702324089.0859988,-11.0,-4.0,-13.0,-2.0,-4.0,-3.0,-7.0,0.0
1702324089.0859988,5.0,11.0,24.0,5.0,-2.0,4.0,17.0,6.0
1702324089.0859988,4.0,-10.0,8.0,0.0,1.0,4.0,-3.0,3.0
1702324089.0859988,-9.0,7.0,-18.0,-13.0,-6.0,-7.0,-6.0,-3.0
1702324089.0962837,-6.0,5.0,-8.0,-2.0,-1.0,-1.0,-3.0,-6.0
1702324089.0962837,-2.0,-8.0,0.0,-4.0,-5.0,-4.0,-7.0,1.0
1702324089.106001,3.0,-1.0,9.0,-1.0,-2.0,-4.0,-1.0,-5.0
1702324089.106001,-4.0,-9.0,-19.0,-2.0,-1.0,1.0,3.0,5.0
1702324089.1264052,10.0,6.0,-1.0,0.0,-1.0,-1.0,1.0,-2.0
1702324089.1264052,-14.0,11.0,-12.0,-2.0,0.0,-1.0,-3.0,1.0
1702324089.1264052,1.0,0.0,9.0,-1.0,-2.0,-1.0,0.0,-5.0
1702324089.1264052,1.0,-9.0,-11.0,-10.0,-4.0,-2.0,-6.0,3.0
1702324089.1361368,2.0,10.0,6.0,10.0,2.0,3.0,2.0,2.0
1702324089.1361368,-3.0,8.0,4.0,-5.0,-4.0,-3.0,-1.0,-3.0
1702324089.146,4.0,-15.0,-20.0,2.0,0.0,-1.0,1.0,-4.0
1702324089.146,-2.0,-42.0,-13.0,-3.0,-1.0,-13.0,-10.0,4.0
1702324089.156031,-9.0,13.0,-8.0,-7.0,-3.0,6.0,3.0,-11.0
1702324089.156031,7.0,-6.0,12.0,0.0,1.0,3.0,2.0,1.0
1702324089.1660013,-4.0,24.0,3.0,5.0,2.0,-3.0,1.0,3.0
1702324089.1660013,-10.0,-6.0,-43.0,-10.0,-3.0,-1.0,-6.0,-5.0
1702324089.1862955,-3.0,-1.0,17.0,7.0,1.0,1.0,11.0,0.0
1702324089.1862955,-2.0,11.0,8.0,3.0,1.0,-1.0,0.0,0.0
1702324089.1862955,6.0,13.0,-5.0,-5.0,-1.0,-3.0,-3.0,-5.0
1702324089.1862955,11.0,0.0,31.0,2.0,-3.0,0.0,1.0,11.0
1702324089.2060041,-13.0,-11.0,-19.0,0.0,0.0,0.0,-4.0,0.0
1702324089.2060041,-4.0,7.0,6.0,-3.0,-1.0,-2.0,3.0,-1.0
1702324089.2060041,-1.0,-20.0,-13.0,0.0,-2.0,-1.0,-2.0,-4.0
1702324089.2060041,-6.0,17.0,21.0,-3.0,-1.0,-1.0,1.0,-1.0
1702324089.2159984,21.0,-1.0,-3.0,3.0,3.0,2.0,-3.0,3.0
1702324089.2159984,-9.0,-8.0,1.0,-3.0,-1.0,-4.0,-3.0,-1.0
1702324089.226004,-1.0,6.0,15.0,6.0,1.0,1.0,-4.0,-2.0
1702324089.226004,6.0,9.0,-14.0,2.0,-3.0,-6.0,-3.0,-5.0
1702324089.2461908,-5.0,-27.0,-24.0,-19.0,-8.0,-13.0,-20.0,5.0
1702324089.2461908,-5.0,-2.0,-25.0,1.0,-1.0,5.0,14.0,1.0
1702324089.2461908,0.0,8.0,-4.0,0.0,3.0,14.0,11.0,-5.0
1702324089.2461908,-10.0,2.0,21.0,6.0,1.0,3.0,-1.0,23.0
1702324089.2660055,12.0,-6.0,11.0,3.0,4.0,-7.0,7.0,-7.0
1702324089.2660055,-4.0,13.0,9.0,-2.0,0.0,5.0,2.0,0.0
1702324089.2859993,-6.0,-29.0,-28.0,-8.0,-8.0,-11.0,-8.0,-4.0
1702324089.2859993,11.0,13.0,8.0,-1.0,-3.0,2.0,6.0,-1.0
1702324089.2859993,4.0,13.0,11.0,3.0,-1.0,-1.0,-6.0,5.0
1702324089.2859993,-4.0,-6.0,-37.0,-9.0,-3.0,-5.0,-10.0,-7.0
1702324089.2859993,-12.0,13.0,11.0,0.0,1.0,-6.0,1.0,-1.0
1702324089.2859993,8.0,1.0,-14.0,-1.0,1.0,4.0,-2.0,-3.0
1702324089.3063507,-10.0,2.0,13.0,-2.0,-3.0,1.0,2.0,-1.0
1702324089.3063507,8.0,-3.0,16.0,9.0,2.0,0.0,-2.0,-4.0
1702324089.3063507,-3.0,-5.0,-2.0,-5.0,-3.0,-1.0,-2.0,3.0
1702324089.3063507,-2.0,-6.0,-15.0,-19.0,-6.0,-5.0,-3.0,-5.0
1702324089.3259985,2.0,0.0,-4.0,24.0,1.0,2.0,1.0,-3.0
1702324089.3259985,-3.0,-3.0,6.0,-4.0,-1.0,-3.0,-5.0,2.0
1702324089.3259985,7.0,-3.0,-3.0,3.0,2.0,-2.0,0.0,-1.0
1702324089.3259985,-7.0,15.0,42.0,9.0,5.0,4.0,3.0,-4.0
1702324089.3361526,-10.0,-8.0,-7.0,-11.0,-1.0,0.0,1.0,2.0
1702324089.3361526,7.0,4.0,1.0,0.0,-2.0,-1.0,0.0,3.0
1702324089.3460042,5.0,-5.0,-54.0,-10.0,-6.0,0.0,4.0,14.0
1702324089.3460042,4.0,20.0,12.0,-1.0,-2.0,-2.0,-2.0,-11.0
1702324089.3760073,-6.0,-33.0,-28.0,-11.0,-6.0,-5.0,-1.0,-2.0
1702324089.3760073,-9.0,-5.0,32.0,2.0,-2.0,-3.0,-6.0,-3.0
1702324089.3860476,-7.0,8.0,10.0,-2.0,4.0,-1.0,-4.0,1.0
1702324089.3860476,1.0,3.0,-1.0,9.0,5.0,-1.0,-2.0,-7.0
1702324089.3860476,15.0,37.0,24.0,4.0,0.0,6.0,7.0,4.0
1702324089.3860476,-4.0,-32.0,-19.0,-9.0,-3.0,-5.0,-5.0,-3.0
1702324089.3860476,-5.0,-14.0,3.0,12.0,3.0,4.0,-1.0,-3.0
1702324089.3860476,-7.0,-4.0,17.0,-1.0,0.0,1.0,-1.0,2.0
1702324089.3961673,2.0,-14.0,-52.0,-2.0,0.0,-3.0,-6.0,-2.0
1702324089.3961673,4.0,12.0,14.0,6.0,3.0,3.0,0.0,-1.0
1702324089.4061186,4.0,6.0,-3.0,-4.0,-3.0,0.0,0.0,1.0
1702324089.4061186,-10.0,-8.0,11.0,-3.0,0.0,-6.0,-1.0,0.0
1702324089.4260628,-2.0,6.0,5.0,1.0,-4.0,3.0,1.0,-6.0
1702324089.4260628,2.0,0.0,-8.0,-1.0,-2.0,-2.0,-1.0,-2.0
1702324089.4360914,-10.0,-11.0,-16.0,-10.0,-7.0,-3.0,-7.0,-7.0
1702324089.4360914,6.0,-3.0,-4.0,9.0,-1.0,1.0,-2.0,-1.0
1702324089.4360914,9.0,5.0,4.0,-3.0,0.0,-1.0,-2.0,3.0
1702324089.4360914,-9.0,6.0,-11.0,-9.0,-4.0,0.0,4.0,1.0
1702324089.4463463,-16.0,-6.0,46.0,5.0,1.0,-1.0,0.0,-7.0
1702324089.4463463,6.0,-12.0,-39.0,-9.0,-5.0,-4.0,0.0,-1.0
1702324089.4566746,-5.0,28.0,20.0,4.0,-1.0,-2.0,-1.0,2.0
1702324089.4566746,-2.0,-6.0,-17.0,-8.0,-1.0,-2.0,-8.0,-5.0
1702324089.4663684,7.0,-19.0,19.0,-1.0,0.0,0.0,0.0,2.0
1702324089.4663684,-19.0,7.0,-3.0,2.0,-1.0,2.0,5.0,-3.0
1702324089.4878387,-2.0,-41.0,1.0,-4.0,0.0,-2.0,-3.0,3.0
1702324089.4878387,7.0,36.0,7.0,-12.0,-6.0,-4.0,-1.0,2.0
1702324089.4878387,-4.0,18.0,-8.0,14.0,1.0,1.0,1.0,-5.0
1702324089.4878387,-14.0,-5.0,-2.0,-8.0,2.0,-2.0,-12.0,-10.0
1702324089.4978693,-2.0,-4.0,-15.0,-10.0,-4.0,-2.0,8.0,-1.0
1702324089.4978693,11.0,36.0,40.0,5.0,7.0,0.0,-1.0,4.0
1702324089.5081892,8.0,-8.0,-8.0,-5.0,-7.0,-3.0,-3.0,-5.0
1702324089.5081892,-5.0,11.0,-6.0,5.0,-1.0,0.0,1.0,4.0
1702324089.5237014,-8.0,4.0,1.0,-8.0,-5.0,-1.0,-4.0,-1.0
1702324089.5237014,10.0,-14.0,-45.0,-5.0,-1.0,-1.0,1.0,1.0
1702324089.5255766,-1.0,13.0,14.0,-3.0,0.0,2.0,-3.0,1.0
1702324089.5255766,7.0,16.0,34.0,12.0,4.0,-10.0,-6.0,0.0
1702324089.5376258,-4.0,-18.0,-18.0,-10.0,-4.0,2.0,2.0,-6.0
1702324089.5476563,-4.0,-16.0,18.0,8.0,-2.0,-1.0,2.0,-1.0
1702324089.5476563,5.0,2.0,-17.0,-9.0,-2.0,-3.0,-1.0,-3.0
1702324089.5476563,2.0,-14.0,-12.0,7.0,2.0,-2.0,-3.0,1.0
1702324089.557924,10.0,4.0,10.0,-4.0,1.0,4.0,7.0,1.0
1702324089.557924,-20.0,-20.0,-8.0,21.0,3.0,1.0,-7.0,-19.0
1702324089.5678895,-24.0,-6.0,-40.0,-2.0,2.0,-1.0,-2.0,21.0
1702324089.5678895,-7.0,16.0,13.0,-2.0,-5.0,0.0,3.0,-6.0
1702324089.577618,1.0,-19.0,-14.0,-7.0,-2.0,-11.0,-6.0,-1.0
1702324089.577618,23.0,25.0,29.0,8.0,2.0,3.0,4.0,1.0
1702324089.577618,-8.0,-57.0,-1.0,-1.0,0.0,-5.0,-1.0,-6.0
1702324089.577618,-5.0,-16.0,-9.0,-7.0,1.0,3.0,-2.0,0.0
1702324089.6075983,-4.0,14.0,24.0,9.0,0.0,-1.0,-3.0,-1.0
1702324089.6075983,0.0,-19.0,-58.0,-19.0,-7.0,-2.0,-2.0,3.0
1702324089.6075983,4.0,23.0,30.0,-3.0,-4.0,-3.0,-5.0,-5.0
1702324089.6075983,9.0,-4.0,6.0,1.0,-2.0,-1.0,2.0,-1.0
1702324089.6169682,-9.0,-2.0,-1.0,-1.0,3.0,5.0,0.0,-4.0
1702324089.6169682,-2.0,-1.0,18.0,6.0,-1.0,-5.0,-9.0,4.0
1702324089.6272454,7.0,35.0,-4.0,-6.0,-2.0,-8.0,3.0,-2.0
1702324089.6272454,3.0,-22.0,-14.0,-11.0,-3.0,15.0,14.0,5.0
1702324089.6374323,1.0,9.0,20.0,8.0,-1.0,0.0,-2.0,-6.0
1702324089.6374323,0.0,-18.0,-17.0,1.0,-3.0,-6.0,-5.0,-3.0
1702324089.6374323,2.0,10.0,12.0,7.0,-1.0,-1.0,-3.0,-7.0
1702324089.6374323,-12.0,0.0,-15.0,-6.0,-3.0,-3.0,-4.0,-1.0
1702324089.6574442,-2.0,-5.0,-13.0,-4.0,-2.0,-4.0,-2.0,-2.0
1702324089.6574442,2.0,7.0,-29.0,6.0,1.0,-1.0,1.0,4.0
1702324089.6674466,3.0,2.0,24.0,-8.0,-2.0,-1.0,-2.0,-2.0
1702324089.6674466,6.0,-5.0,-1.0,5.0,-3.0,-2.0,2.0,2.0
1702324089.6774454,-7.0,8.0,-10.0,-14.0,-7.0,-3.0,-3.0,-2.0
1702324089.6774454,-5.0,-15.0,12.0,3.0,3.0,-2.0,0.0,-1.0
1702324089.6878424,-1.0,11.0,-6.0,0.0,1.0,0.0,-1.0,-1.0
1702324089.6878424,-8.0,-29.0,-11.0,-7.0,-3.0,-5.0,-4.0,-3.0
1702324089.6974454,6.0,25.0,14.0,2.0,0.0,0.0,-3.0,3.0
1702324089.6974454,-5.0,-28.0,-23.0,-6.0,0.0,2.0,3.0,0.0
1702324089.6974454,4.0,17.0,13.0,9.0,-1.0,-1.0,-1.0,-3.0
1702324089.6974454,-12.0,-25.0,-16.0,-2.0,2.0,-3.0,-1.0,-3.0
1702324089.7271776,6.0,2.0,3.0,-1.0,1.0,3.0,-3.0,1.0
1702324089.7271776,-2.0,8.0,-2.0,-9.0,-6.0,-4.0,0.0,-1.0
1702324089.7271776,-4.0,3.0,34.0,2.0,3.0,-2.0,-3.0,-7.0
1702324089.7271776,2.0,-2.0,-59.0,-1.0,-1.0,2.0,7.0,2.0
1702324089.7375467,1.0,-20.0,-10.0,-3.0,-4.0,-2.0,-4.0,-3.0
1702324089.7375467,-1.0,15.0,31.0,7.0,3.0,3.0,3.0,4.0
1702324089.7474735,0.0,-6.0,-24.0,-5.0,-1.0,-1.0,-2.0,-1.0
1702324089.7474735,14.0,4.0,6.0,1.0,1.0,2.0,0.0,3.0
1702324089.757176,4.0,10.0,30.0,-2.0,-3.0,-4.0,0.0,1.0
1702324089.757176,-15.0,-14.0,-11.0,-8.0,-9.0,-5.0,-7.0,-6.0
1702324089.757176,1.0,-13.0,-1.0,6.0,2.0,-5.0,-2.0,1.0
1702324089.757176,3.0,19.0,7.0,-2.0,0.0,3.0,-1.0,-5.0
1702324089.787175,9.0,46.0,0.0,6.0,6.0,2.0,2.0,4.0
1702324089.787175,0.0,-12.0,36.0,3.0,0.0,-2.0,-1.0,-1.0
1702324089.787175,-19.0,-23.0,-56.0,-10.0,-3.0,-3.0,0.0,-3.0
1702324089.787175,-4.0,14.0,23.0,0.0,-2.0,-5.0,-5.0,-2.0
1702324089.7975059,-5.0,-28.0,-67.0,-14.0,-5.0,-7.0,-1.0,-8.0
1702324089.7975059,8.0,25.0,41.0,6.0,1.0,0.0,-2.0,-6.0
1702324089.8075666,-7.0,-22.0,-12.0,-4.0,1.0,6.0,4.0,-3.0
1702324089.8075666,5.0,17.0,5.0,-5.0,-5.0,-6.0,-1.0,4.0
1702324089.8173633,-3.0,-16.0,-1.0,5.0,0.0,-4.0,-6.0,-2.0
1702324089.8173633,2.0,6.0,-7.0,-3.0,-1.0,-2.0,-3.0,1.0
1702324089.8173633,11.0,-4.0,24.0,5.0,-1.0,-4.0,-4.0,2.0
1702324089.8173633,0.0,7.0,21.0,0.0,0.0,7.0,2.0,-6.0
1702324089.8473768,-11.0,-1.0,-30.0,-4.0,-3.0,-3.0,-1.0,-1.0
1702324089.8473768,-9.0,-29.0,10.0,0.0,-3.0,-2.0,0.0,0.0
1702324089.8473768,17.0,32.0,4.0,1.0,2.0,2.0,-1.0,1.0
1702324089.8473768,-18.0,-14.0,-10.0,0.0,-2.0,-7.0,-6.0,1.0
1702324089.857441,-3.0,-8.0,-1.0,-2.0,-6.0,-2.0,-1.0,-8.0
1702324089.857441,-3.0,-4.0,-22.0,-10.0,0.0,0.0,-4.0,2.0
1702324089.8873713,9.0,-20.0,12.0,3.0,1.0,2.0,13.0,6.0
1702324089.8873713,-1.0,-11.0,19.0,6.0,2.0,1.0,-2.0,0.0
1702324089.8873713,-22.0,-1.0,2.0,-8.0,-3.0,-5.0,-7.0,-9.0
1702324089.8873713,0.0,3.0,3.0,5.0,-1.0,2.0,2.0,-4.0
1702324089.8873713,1.0,4.0,-2.0,-6.0,0.0,1.0,-9.0,1.0
1702324089.8873713,16.0,15.0,-1.0,6.0,1.0,-4.0,1.0,6.0
1702324089.9073763,-10.0,-29.0,-5.0,1.0,2.0,18.0,21.0,1.0
1702324089.9073763,1.0,37.0,17.0,-7.0,-3.0,-4.0,-2.0,-1.0
1702324089.9073763,-10.0,-31.0,-19.0,-11.0,-6.0,7.0,0.0,-4.0
1702324089.9073763,9.0,3.0,10.0,15.0,2.0,-17.0,-20.0,0.0
1702324089.917451,-8.0,5.0,8.0,7.0,5.0,13.0,7.0,2.0
1702324089.917451,-3.0,8.0,-17.0,-4.0,-4.0,-7.0,8.0,4.0
1702324089.9373732,16.0,7.0,-25.0,-13.0,-1.0,1.0,2.0,-2.0
1702324089.9373732,-33.0,-2.0,8.0,-4.0,3.0,16.0,-6.0,-14.0
1702324089.9373732,33.0,33.0,69.0,12.0,-3.0,-27.0,-5.0,12.0
1702324089.9373732,-17.0,-30.0,-70.0,-2.0,6.0,9.0,-12.0,-9.0
1702324089.9373732,-15.0,-17.0,9.0,1.0,2.0,-5.0,17.0,8.0
1702324089.9373732,20.0,6.0,-8.0,-2.0,-1.0,7.0,11.0,6.0
1702324089.967375,-11.0,-5.0,-1.0,-9.0,2.0,20.0,4.0,-6.0
1702324089.967375,1.0,-6.0,3.0,1.0,-7.0,-30.0,-5.0,-2.0
1702324089.967375,2.0,22.0,30.0,11.0,3.0,4.0,-6.0,-1.0
1702324089.967375,1.0,-5.0,-9.0,-15.0,-7.0,-12.0,1.0,-12.0
1702324089.9873724,4.0,2.0,-15.0,18.0,6.0,-7.0,3.0,6.0
1702324089.9873724,0.0,-51.0,3.0,-11.0,-7.0,9.0,-4.0,1.0
1702324089.9873724,11.0,20.0,-26.0,-18.0,-9.0,-5.0,-5.0,-1.0
1702324089.9873724,0.0,15.0,30.0,7.0,-8.0,-13.0,-5.0,-1.0
1702324089.9977574,-11.0,1.0,-14.0,-5.0,5.0,-9.0,-11.0,-4.0
1702324089.9977574,16.0,17.0,17.0,6.0,6.0,6.0,5.0,1.0
1702324089.9977574,-15.0,-4.0,6.0,9.0,6.0,8.0,-7.0,0.0
1702324089.9977574,22.0,3.0,-27.0,-19.0,-5.0,-6.0,1.0,6.0
1702324090.027283,-6.0,40.0,4.0,1.0,-3.0,1.0,-7.0,-11.0
1702324090.027283,-25.0,-19.0,-6.0,6.0,3.0,-1.0,5.0,-2.0
1702324090.027283,3.0,-5.0,-9.0,-4.0,-5.0,-22.0,-7.0,-6.0
1702324090.027283,5.0,-4.0,6.0,4.0,1.0,24.0,2.0,2.0
1702324090.0572793,3.0,-4.0,2.0,-3.0,-1.0,2.0,-3.0,2.0
1702324090.0572793,3.0,28.0,-19.0,13.0,6.0,7.0,8.0,3.0
1702324090.0572793,-3.0,12.0,64.0,1.0,-8.0,-12.0,-22.0,-8.0
1702324090.0572793,-14.0,-15.0,-27.0,-14.0,-7.0,-10.0,14.0,-5.0
1702324090.067278,15.0,-4.0,-54.0,0.0,-5.0,-6.0,-1.0,3.0
1702324090.067278,-16.0,-26.0,3.0,-18.0,-7.0,4.0,-3.0,-5.0
1702324090.067278,-11.0,-14.0,1.0,-2.0,3.0,-3.0,5.0,-1.0
1702324090.067278,-1.0,8.0,-1.0,11.0,5.0,-2.0,-4.0,1.0
1702324090.0872827,-10.0,-59.0,12.0,-5.0,1.0,8.0,1.0,2.0
1702324090.0872827,9.0,27.0,8.0,-10.0,-8.0,-8.0,-2.0,-4.0
1702324090.0872827,-1.0,8.0,-48.0,1.0,1.0,3.0,-1.0,-5.0
1702324090.0872827,-11.0,-16.0,9.0,2.0,0.0,0.0,-4.0,-3.0
1702324090.1172829,-2.0,27.0,10.0,-5.0,-3.0,-10.0,-2.0,2.0
1702324090.1172829,10.0,23.0,8.0,3.0,0.0,5.0,-4.0,-2.0
1702324090.1172829,7.0,-11.0,13.0,13.0,3.0,7.0,10.0,4.0
1702324090.1172829,-6.0,-8.0,-17.0,-7.0,-1.0,3.0,-7.0,0.0
1702324090.1172829,-11.0,-11.0,-21.0,0.0,0.0,-5.0,1.0,-5.0
1702324090.1172829,-1.0,2.0,30.0,0.0,-3.0,-16.0,-12.0,-7.0
1702324090.13769,11.0,20.0,-13.0,-5.0,-2.0,25.0,18.0,13.0
1702324090.13769,-11.0,-6.0,5.0,0.0,1.0,-6.0,-3.0,-2.0
1702324090.1472788,0.0,-4.0,-2.0,-3.0,-3.0,-4.0,-5.0,-3.0
1702324090.1472788,5.0,16.0,20.0,6.0,2.0,0.0,4.0,8.0
1702324090.1472788,-20.0,-34.0,-31.0,-9.0,-7.0,-11.0,-8.0,-9.0
1702324090.1472788,11.0,13.0,10.0,-4.0,-6.0,-5.0,-2.0,-4.0
1702324090.1676948,-17.0,-22.0,19.0,5.0,6.0,0.0,-4.0,-6.0
1702324090.1676948,0.0,-26.0,7.0,7.0,4.0,2.0,2.0,3.0
1702324090.1676948,6.0,-3.0,-21.0,-6.0,0.0,2.0,0.0,2.0
1702324090.1676948,3.0,16.0,31.0,-1.0,-2.0,-2.0,1.0,2.0
1702324090.1772785,18.0,5.0,-7.0,6.0,-3.0,-3.0,-2.0,0.0
1702324090.1772785,-5.0,0.0,8.0,-3.0,2.0,4.0,3.0,-3.0
1702324090.1875806,-9.0,7.0,-14.0,10.0,5.0,2.0,1.0,-1.0
1702324090.1875806,-23.0,-40.0,-23.0,-8.0,-4.0,-1.0,-1.0,-7.0
1702324090.2072792,12.0,14.0,3.0,-5.0,-3.0,-5.0,-3.0,0.0
1702324090.2072792,15.0,-3.0,10.0,0.0,1.0,1.0,-10.0,1.0
1702324090.2072792,-9.0,9.0,-4.0,-4.0,1.0,-5.0,-1.0,1.0
1702324090.2072792,-8.0,-12.0,-35.0,-2.0,2.0,3.0,3.0,-7.0
1702324090.2275558,2.0,4.0,8.0,1.0,-1.0,2.0,-1.0,5.0
1702324090.2275558,-1.0,-28.0,-22.0,-8.0,-4.0,-2.0,-1.0,-1.0
1702324090.2275558,3.0,21.0,22.0,3.0,-4.0,-9.0,-3.0,-7.0
1702324090.2275558,6.0,4.0,-3.0,-2.0,-5.0,7.0,-4.0,3.0
1702324090.2376714,-16.0,8.0,15.0,-5.0,-4.0,1.0,-2.0,-3.0
1702324090.2376714,1.0,-4.0,-19.0,1.0,-3.0,1.0,1.0,-1.0
1702324090.2476537,-1.0,18.0,-1.0,2.0,-2.0,1.0,-2.0,3.0
1702324090.2476537,-3.0,-1.0,6.0,2.0,2.0,-8.0,0.0,1.0
1702324090.2672818,1.0,-5.0,-1.0,-25.0,-1.0,4.0,0.0,-5.0
1702324090.2672818,6.0,46.0,16.0,13.0,-4.0,-6.0,-1.0,0.0
1702324090.277281,-5.0,-34.0,3.0,3.0,4.0,-4.0,-1.0,-4.0
1702324090.277281,5.0,-15.0,-26.0,9.0,0.0,0.0,-1.0,1.0
1702324090.2875574,-5.0,14.0,19.0,-2.0,-2.0,-1.0,-1.0,-2.0
1702324090.2875574,-12.0,7.0,-46.0,-23.0,-7.0,-3.0,-1.0,-2.0
1702324090.2875574,18.0,3.0,12.0,9.0,2.0,0.0,-3.0,-2.0
1702324090.2875574,5.0,37.0,32.0,-5.0,-1.0,0.0,-1.0,2.0
1702324090.2975492,1.0,-26.0,-8.0,3.0,1.0,-3.0,-2.0,-1.0
1702324090.2975492,7.0,11.0,-36.0,-4.0,2.0,2.0,2.0,0.0
1702324090.3272796,-22.0,-50.0,23.0,-6.0,-8.0,-5.0,-5.0,-3.0
1702324090.3272796,-13.0,-11.0,-13.0,-1.0,1.0,-2.0,-7.0,-3.0
1702324090.3272796,5.0,-1.0,-15.0,0.0,-5.0,0.0,8.0,-1.0
1702324090.3272796,3.0,29.0,-3.0,1.0,3.0,4.0,6.0,4.0
1702324090.3272796,7.0,-14.0,15.0,-3.0,-1.0,0.0,2.0,-2.0
1702324090.3272796,7.0,2.0,-4.0,-3.0,-4.0,-10.0,-5.0,-4.0
1702324090.347677,-8.0,4.0,8.0,4.0,0.0,2.0,-5.0,6.0
1702324090.347677,-5.0,-33.0,9.0,5.0,2.0,2.0,4.0,-8.0
1702324090.347677,14.0,71.0,-15.0,-9.0,-5.0,-1.0,0.0,5.0
1702324090.347677,3.0,-34.0,0.0,-1.0,-1.0,2.0,0.0,-4.0
1702324090.3576798,9.0,-20.0,-15.0,2.0,-1.0,-2.0,-4.0,-4.0
1702324090.3576798,-8.0,11.0,7.0,-1.0,0.0,-3.0,-3.0,0.0
1702324090.3772788,-9.0,-1.0,13.0,-10.0,-6.0,4.0,-3.0,0.0
1702324090.3772788,1.0,19.0,-8.0,-4.0,0.0,-6.0,-2.0,-2.0
1702324090.3772788,-3.0,9.0,32.0,15.0,4.0,6.0,0.0,0.0
1702324090.3872817,-1.0,-22.0,-8.0,16.0,4.0,-3.0,0.0,1.0
1702324090.3872817,1.0,-5.0,1.0,3.0,-2.0,-11.0,-6.0,-8.0
1702324090.3872817,6.0,5.0,5.0,-3.0,-1.0,6.0,8.0,8.0
1702324090.407687,-14.0,-11.0,-11.0,-11.0,-12.0,-3.0,-9.0,-2.0
1702324090.407687,2.0,11.0,10.0,-11.0,-3.0,-1.0,1.0,-7.0
1702324090.407687,-10.0,-18.0,-25.0,3.0,2.0,-5.0,-4.0,-8.0
1702324090.407687,-5.0,-6.0,10.0,5.0,2.0,0.0,4.0,1.0
1702324090.4172804,9.0,31.0,32.0,6.0,1.0,-4.0,1.0,3.0
1702324090.4172804,-6.0,-21.0,-37.0,-3.0,-3.0,-5.0,-5.0,2.0
1702324090.427536,-3.0,-4.0,2.0,-4.0,-1.0,5.0,-6.0,-3.0
1702324090.427536,1.0,9.0,7.0,0.0,-4.0,-3.0,-7.0,-1.0
1702324090.4372787,9.0,-4.0,-16.0,-3.0,-3.0,6.0,8.0,-2.0
1702324090.4472837,-22.0,-1.0,-2.0,-10.0,-9.0,-9.0,-6.0,-4.0
1702324090.4472837,-16.0,-3.0,-39.0,-25.0,0.0,3.0,7.0,2.0
1702324090.4472837,5.0,-9.0,14.0,4.0,-2.0,-4.0,-7.0,-5.0
1702324090.4676945,0.0,5.0,15.0,1.0,1.0,1.0,1.0,-1.0
1702324090.4676945,10.0,6.0,19.0,26.0,11.0,3.0,1.0,4.0
1702324090.4676945,-4.0,-20.0,-55.0,-14.0,-6.0,-5.0,-5.0,-5.0
1702324090.4676945,-8.0,4.0,16.0,-3.0,-4.0,2.0,1.0,-1.0
1702324090.4775445,2.0,-9.0,-12.0,-7.0,-1.0,-8.0,-2.0,0.0
1702324090.4775445,12.0,15.0,22.0,-10.0,-10.0,-3.0,-2.0,2.0
1702324090.4972827,-25.0,-11.0,-40.0,0.0,-2.0,4.0,3.0,0.0
1702324090.4972827,2.0,19.0,6.0,-1.0,2.0,2.0,4.0,2.0
1702324090.4972827,-8.0,-10.0,0.0,3.0,0.0,0.0,-3.0,-2.0
1702324090.4972827,-11.0,-59.0,-20.0,-9.0,-4.0,1.0,-11.0,-4.0
1702324090.5072773,17.0,11.0,14.0,5.0,0.0,2.0,17.0,5.0
1702324090.5072773,-10.0,-6.0,15.0,6.0,3.0,0.0,2.0,4.0
1702324090.5275166,-7.0,-5.0,-27.0,-5.0,-1.0,-13.0,-4.0,-10.0
1702324090.5275166,-7.0,7.0,22.0,-11.0,-2.0,7.0,-3.0,-2.0
1702324090.5275166,16.0,3.0,17.0,17.0,4.0,6.0,-3.0,1.0
1702324090.5275166,0.0,3.0,6.0,0.0,-5.0,-13.0,-1.0,2.0
1702324090.5460858,5.0,11.0,8.0,15.0,4.0,-4.0,-2.0,-1.0
1702324090.5460858,-13.0,-2.0,-4.0,-10.0,5.0,1.0,5.0,-3.0
1702324090.5510867,24.0,-3.0,-12.0,-4.0,-4.0,-1.0,-2.0,4.0
1702324090.5510867,-8.0,44.0,43.0,4.0,1.0,-3.0,-4.0,-6.0
1702324090.5601604,-4.0,-63.0,-62.0,-9.0,-2.0,-3.0,-10.0,-4.0
1702324090.5601604,-4.0,4.0,-25.0,-1.0,-3.0,6.0,1.0,0.0
1702324090.5601604,3.0,20.0,27.0,7.0,2.0,-4.0,5.0,-2.0
1702324090.5601604,2.0,-17.0,-33.0,-3.0,1.0,7.0,0.0,-1.0
1702324090.5804741,18.0,33.0,36.0,3.0,0.0,-4.0,1.0,3.0
1702324090.5804741,5.0,-22.0,17.0,0.0,0.0,-2.0,-1.0,3.0
1702324090.5901637,-13.0,-3.0,2.0,-5.0,-4.0,-3.0,-9.0,-8.0
1702324090.5901637,-27.0,-9.0,-6.0,-11.0,-4.0,1.0,1.0,-6.0
1702324090.600175,7.0,18.0,8.0,-7.0,-5.0,-14.0,-3.0,-4.0
1702324090.600175,16.0,-13.0,-13.0,8.0,-1.0,7.0,-9.0,-1.0
1702324090.6103694,-13.0,8.0,29.0,7.0,2.0,0.0,10.0,0.0
1702324090.6103694,2.0,-26.0,-49.0,-3.0,0.0,5.0,0.0,1.0
1702324090.6204703,-12.0,-8.0,-13.0,-11.0,-2.0,1.0,9.0,-3.0
1702324090.6204703,0.0,35.0,24.0,-1.0,-3.0,-2.0,-2.0,-1.0
1702324090.6204703,9.0,4.0,39.0,9.0,4.0,-4.0,-8.0,0.0
1702324090.6204703,17.0,15.0,-43.0,-2.0,-1.0,7.0,8.0,3.0
1702324090.647508,2.0,11.0,14.0,1.0,-2.0,-2.0,2.0,3.0
1702324090.647508,-1.0,-45.0,-14.0,-2.0,-1.0,-9.0,-1.0,-4.0
1702324090.647508,5.0,24.0,1.0,-11.0,-4.0,6.0,-1.0,4.0
1702324090.647508,-2.0,12.0,3.0,-4.0,-2.0,-3.0,-2.0,2.0
1702324090.6675003,-7.0,-8.0,4.0,19.0,3.0,3.0,2.0,1.0
1702324090.6675003,13.0,43.0,2.0,-10.0,1.0,-5.0,-1.0,-5.0
1702324090.6675003,-25.0,-12.0,-11.0,-4.0,-7.0,-4.0,-6.0,-3.0
1702324090.6675003,14.0,-32.0,15.0,0.0,3.0,-3.0,1.0,3.0
1702324090.6879158,-6.0,-37.0,-24.0,3.0,1.0,5.0,-4.0,-2.0
1702324090.6879158,-6.0,32.0,14.0,-2.0,-4.0,-3.0,-1.0,-3.0
1702324090.6879158,-5.0,-20.0,11.0,3.0,-4.0,-4.0,-3.0,-5.0
1702324090.6879158,-10.0,-11.0,-2.0,1.0,0.0,0.0,-6.0,-6.0
1702324090.7079494,25.0,59.0,40.0,2.0,3.0,3.0,-2.0,6.0
1702324090.7079494,2.0,-69.0,-33.0,-7.0,-5.0,0.0,-3.0,1.0
1702324090.7079494,-28.0,12.0,-21.0,-3.0,6.0,1.0,3.0,-5.0
1702324090.7079494,17.0,3.0,17.0,3.0,-3.0,-4.0,-3.0,-7.0
1702324090.7175016,-10.0,6.0,-37.0,-6.0,-2.0,10.0,-4.0,-1.0
1702324090.7175016,10.0,-10.0,6.0,4.0,-1.0,-9.0,3.0,6.0
1702324090.7275255,-2.0,0.0,0.0,-5.0,-5.0,-1.0,-4.0,-5.0
1702324090.7275255,-8.0,5.0,-4.0,-1.0,1.0,-8.0,0.0,1.0
1702324090.737889,-11.0,-51.0,15.0,-2.0,-2.0,-9.0,-5.0,-3.0
1702324090.737889,14.0,14.0,-28.0,5.0,0.0,1.0,-6.0,4.0
1702324090.7478216,-4.0,2.0,30.0,14.0,0.0,-6.0,-3.0,-6.0
1702324090.7478216,5.0,27.0,-14.0,-8.0,4.0,18.0,21.0,3.0
1702324090.7674992,-14.0,9.0,-1.0,-4.0,-3.0,12.0,0.0,-5.0
1702324090.7674992,0.0,-8.0,4.0,2.0,1.0,-8.0,-1.0,-8.0
1702324090.7674992,-2.0,-2.0,-3.0,-4.0,1.0,-11.0,-10.0,3.0
1702324090.7674992,3.0,-1.0,-4.0,8.0,-1.0,9.0,-7.0,3.0
1702324090.7777255,-7.0,10.0,-3.0,-3.0,-2.0,-18.0,1.0,2.0
1702324090.7777255,-16.0,2.0,16.0,-6.0,-1.0,3.0,6.0,-2.0
1702324090.7875185,12.0,7.0,17.0,1.0,-2.0,7.0,-9.0,-1.0
1702324090.7875185,-15.0,-21.0,-36.0,-15.0,-8.0,-7.0,-2.0,-4.0
1702324090.7975087,8.0,-12.0,-9.0,-10.0,1.0,6.0,0.0,1.0
1702324090.7975087,-14.0,19.0,30.0,32.0,4.0,-1.0,-1.0,-7.0
1702324090.807505,7.0,-3.0,-29.0,-4.0,5.0,-15.0,-3.0,3.0
1702324090.807505,2.0,-7.0,-9.0,-13.0,2.0,10.0,-3.0,-1.0
1702324090.8475018,0.0,25.0,-1.0,2.0,3.0,2.0,0.0,-8.0
1702324090.8475018,-4.0,-10.0,-7.0,-7.0,-8.0,-14.0,-4.0,4.0
1702324090.8475018,8.0,16.0,10.0,-9.0,-19.0,13.0,13.0,4.0
1702324090.8475018,-3.0,-14.0,20.0,8.0,5.0,-14.0,-6.0,-1.0
1702324090.8475018,0.0,41.0,10.0,-8.0,7.0,2.0,-4.0,-3.0
1702324090.8475018,-5.0,-22.0,-31.0,11.0,3.0,3.0,5.0,2.0
1702324090.8475018,-1.0,-7.0,-25.0,3.0,1.0,-2.0,-2.0,-3.0
1702324090.8475018,3.0,-34.0,9.0,-5.0,-9.0,-7.0,-5.0,1.0
1702324090.8578763,-12.0,10.0,-7.0,-9.0,-10.0,-7.0,-6.0,-6.0
1702324090.8578763,-6.0,28.0,7.0,-22.0,-18.0,-1.0,2.0,-3.0
1702324090.8677647,7.0,14.0,-2.0,-5.0,6.0,-4.0,-2.0,0.0
1702324090.8677647,6.0,16.0,30.0,0.0,2.0,-3.0,-5.0,-4.0
1702324090.8875012,6.0,-46.0,-6.0,15.0,8.0,8.0,8.0,8.0
1702324090.8875012,-4.0,-4.0,-5.0,-4.0,7.0,6.0,-3.0,-1.0
1702324090.8875012,4.0,-2.0,4.0,1.0,-2.0,-5.0,-4.0,2.0
1702324090.8875012,-9.0,-5.0,9.0,-10.0,-11.0,0.0,7.0,-1.0
1702324090.9079466,-2.0,-10.0,1.0,-4.0,-4.0,-6.0,-7.0,2.0
1702324090.9079466,-15.0,3.0,-12.0,-4.0,-7.0,3.0,5.0,-7.0
1702324090.9079466,-6.0,-24.0,-8.0,-9.0,3.0,-5.0,-7.0,-5.0
1702324090.9079466,-2.0,5.0,-9.0,7.0,2.0,-2.0,-5.0,-2.0
1702324090.917885,14.0,-9.0,13.0,4.0,-4.0,-1.0,-3.0,-1.0
1702324090.917885,8.0,15.0,24.0,5.0,0.0,0.0,0.0,4.0
1702324090.927756,-1.0,10.0,9.0,-1.0,-1.0,-3.0,-2.0,-4.0
1702324090.927756,-8.0,12.0,-33.0,4.0,2.0,-3.0,-1.0,-1.0
1702324090.9474995,9.0,-31.0,-15.0,1.0,-6.0,-1.0,1.0,0.0
1702324090.9474995,-5.0,-16.0,6.0,-16.0,8.0,6.0,2.0,4.0
1702324090.9474995,2.0,-3.0,-17.0,-5.0,-1.0,4.0,0.0,-2.0
1702324090.9474995,9.0,27.0,18.0,5.0,-4.0,-4.0,-3.0,-2.0
1702324090.9777355,-13.0,18.0,28.0,-4.0,-2.0,-2.0,0.0,-2.0
1702324090.9777355,2.0,-33.0,1.0,11.0,2.0,-1.0,-3.0,-3.0
1702324090.9777355,1.0,4.0,2.0,-9.0,-2.0,3.0,3.0,2.0
1702324090.9777355,-6.0,-22.0,-29.0,7.0,-3.0,-5.0,-2.0,-3.0
1702324090.9975047,-3.0,0.0,0.0,-4.0,-3.0,0.0,1.0,-1.0
1702324090.9975047,-3.0,10.0,-4.0,-7.0,-1.0,-2.0,-1.0,1.0
1702324091.0074992,2.0,-10.0,-12.0,7.0,4.0,0.0,2.0,0.0
1702324091.0074992,2.0,7.0,9.0,-3.0,2.0,-1.0,-1.0,0.0
1702324091.0074992,-5.0,-3.0,-3.0,13.0,11.0,5.0,2.0,-2.0
1702324091.0074992,3.0,22.0,18.0,-14.0,-1.0,1.0,0.0,-2.0
1702324091.0074992,9.0,-1.0,-17.0,-3.0,-8.0,1.0,2.0,2.0
1702324091.0074992,-8.0,6.0,19.0,12.0,7.0,2.0,-2.0,-2.0
1702324091.0278418,-12.0,-17.0,-18.0,-3.0,5.0,-7.0,-5.0,-3.0
1702324091.0278418,4.0,12.0,3.0,-9.0,-6.0,-2.0,5.0,-2.0
1702324091.0278418,-3.0,-8.0,1.0,6.0,-6.0,-1.0,-3.0,-2.0
1702324091.0278418,0.0,-4.0,13.0,-11.0,-9.0,-5.0,-3.0,-1.0
1702324091.0378828,-3.0,-6.0,-21.0,-7.0,-11.0,-5.0,-1.0,-4.0
1702324091.0378828,-3.0,7.0,-19.0,-1.0,5.0,1.0,-7.0,-3.0
1702324091.0473912,-3.0,-12.0,4.0,-7.0,-1.0,0.0,2.0,1.0
1702324091.0473912,-4.0,4.0,-2.0,11.0,1.0,1.0,1.0,1.0
1702324091.0685432,0.0,25.0,6.0,0.0,-2.0,0.0,-1.0,-4.0
1702324091.069545,11.0,22.0,25.0,2.0,-5.0,-5.0,-5.0,1.0
1702324091.0705366,-16.0,-29.0,-27.0,1.0,5.0,1.0,-3.0,-3.0
1702324091.0705366,5.0,-3.0,12.0,0.0,2.0,2.0,1.0,-3.0
1702324091.091677,-4.0,2.0,-18.0,-5.0,-3.0,-6.0,-2.0,1.0
1702324091.091677,12.0,25.0,2.0,2.0,-2.0,3.0,3.0,-3.0
1702324091.0928626,-7.0,-6.0,13.0,4.0,1.0,-1.0,-1.0,-2.0
1702324091.0928626,5.0,0.0,10.0,-1.0,1.0,1.0,0.0,1.0
1702324091.1030827,-5.0,-10.0,-19.0,-4.0,-1.0,3.0,0.0,-1.0
1702324091.1030827,-3.0,17.0,7.0,-7.0,-4.0,-5.0,-3.0,-3.0
1702324091.1128657,6.0,1.0,2.0,-4.0,-1.0,-3.0,-2.0,0.0
1702324091.1128657,-5.0,-10.0,7.0,35.0,12.0,4.0,3.0,-1.0
1702324091.1230795,5.0,-11.0,25.0,16.0,3.0,2.0,1.0,1.0
1702324091.1230795,-12.0,-14.0,-33.0,-4.0,0.0,-6.0,-2.0,0.0
1702324091.1230795,-4.0,1.0,-2.0,-12.0,-3.0,0.0,0.0,-6.0
1702324091.1230795,-1.0,9.0,4.0,-21.0,-9.0,-7.0,-7.0,-2.0
1702324091.1529078,3.0,-1.0,14.0,-2.0,-2.0,4.0,2.0,1.0
1702324091.1529078,-8.0,-11.0,2.0,2.0,-1.0,0.0,-2.0,-6.0
1702324091.1529078,7.0,2.0,7.0,-1.0,-2.0,-2.0,-1.0,4.0
1702324091.1529078,-12.0,-7.0,-42.0,-9.0,0.0,-1.0,-1.0,-6.0
1702324091.1728637,9.0,12.0,2.0,-3.0,-3.0,-7.0,-7.0,-1.0
1702324091.1728637,9.0,27.0,3.0,2.0,2.0,4.0,-3.0,-1.0
1702324091.1728637,-14.0,-78.0,-7.0,1.0,-2.0,0.0,12.0,-3.0
1702324091.1728637,-4.0,2.0,-16.0,-11.0,-8.0,-6.0,-4.0,13.0
1702324091.183235,-2.0,8.0,7.0,4.0,2.0,2.0,4.0,-1.0
1702324091.183235,1.0,13.0,15.0,10.0,4.0,0.0,-2.0,3.0
1702324091.183235,12.0,34.0,15.0,9.0,3.0,3.0,-3.0,-1.0
1702324091.183235,1.0,-22.0,-32.0,-26.0,-12.0,-3.0,-2.0,0.0
1702324091.213261,-8.0,-26.0,-15.0,5.0,2.0,-3.0,-4.0,-3.0
1702324091.213261,-6.0,-7.0,12.0,-2.0,-9.0,-4.0,-2.0,0.0
1702324091.213261,2.0,20.0,32.0,50.0,28.0,14.0,4.0,0.0
1702324091.213261,-4.0,-7.0,-1.0,-4.0,7.0,-1.0,0.0,-6.0
1702324091.2232919,8.0,19.0,10.0,-3.0,8.0,6.0,2.0,0.0
1702324091.2232919,-1.0,-20.0,-29.0,-5.0,-1.0,-2.0,1.0,-4.0
1702324091.2335317,-2.0,6.0,-14.0,-21.0,-16.0,-8.0,-4.0,1.0
1702324091.2335317,-3.0,-5.0,3.0,-6.0,-10.0,-5.0,-3.0,-4.0
1702324091.243489,6.0,14.0,-5.0,-8.0,-5.0,-5.0,-1.0,3.0
1702324091.243489,-9.0,-12.0,3.0,1.0,2.0,0.0,1.0,-1.0
1702324091.243489,11.0,22.0,0.0,-10.0,-5.0,-7.0,-8.0,0.0
1702324091.243489,4.0,62.0,-2.0,6.0,3.0,2.0,-4.0,-4.0
1702324091.2831697,-6.0,-32.0,3.0,-3.0,-3.0,7.0,11.0,3.0
1702324091.2831697,-3.0,-15.0,7.0,2.0,-1.0,-8.0,-11.0,6.0
1702324091.2931662,-5.0,3.0,-37.0,-8.0,1.0,9.0,17.0,-5.0
1702324091.2931662,4.0,8.0,19.0,6.0,2.0,6.0,3.0,0.0
1702324091.2931662,-5.0,-18.0,-19.0,-7.0,-6.0,-4.0,0.0,3.0
1702324091.2931662,6.0,21.0,3.0,-2.0,-3.0,-5.0,-4.0,-12.0
1702324091.2931662,-3.0,-14.0,7.0,2.0,1.0,-2.0,-10.0,1.0
1702324091.2931662,-3.0,-11.0,46.0,9.0,5.0,0.0,1.0,-1.0
1702324091.3031986,0.0,4.0,-27.0,-10.0,-8.0,-3.0,-4.0,-5.0
1702324091.3031986,-3.0,-9.0,-6.0,3.0,5.0,2.0,2.0,8.0
1702324091.3031986,-1.0,18.0,32.0,-6.0,-6.0,-5.0,-6.0,-3.0
1702324091.3031986,-13.0,-2.0,0.0,9.0,-3.0,-8.0,-3.0,-10.0
1702324091.333167,3.0,0.0,-14.0,-5.0,3.0,6.0,3.0,3.0
1702324091.333167,2.0,3.0,7.0,4.0,1.0,1.0,-1.0,-3.0
1702324091.333167,-11.0,-5.0,-18.0,-9.0,-4.0,-2.0,-1.0,-1.0
1702324091.333167,6.0,11.0,5.0,-8.0,-5.0,0.0,-1.0,2.0
1702324091.343192,-4.0,3.0,8.0,3.0,-3.0,-10.0,-7.0,0.0
1702324091.343192,1.0,-4.0,-12.0,-4.0,-1.0,6.0,5.0,1.0
1702324091.3533976,0.0,6.0,-1.0,-3.0,-2.0,-2.0,-9.0,0.0
1702324091.3533976,4.0,-22.0,-17.0,-1.0,-1.0,-1.0,9.0,3.0
1702324091.3634362,-3.0,1.0,7.0,0.0,-2.0,-4.0,-7.0,-3.0
1702324091.3634362,-9.0,-15.0,-22.0,-4.0,-2.0,-1.0,1.0,-10.0
1702324091.3634362,4.0,7.0,15.0,1.0,-1.0,-1.0,-2.0,1.0
1702324091.3634362,0.0,-11.0,-23.0,-11.0,-1.0,6.0,1.0,3.0
1702324091.393167,-4.0,9.0,47.0,2.0,1.0,-1.0,-1.0,-3.0
1702324091.393167,2.0,2.0,20.0,26.0,4.0,0.0,-2.0,2.0
1702324091.393167,-2.0,2.0,6.0,-5.0,-5.0,-6.0,-5.0,-4.0
1702324091.393167,4.0,3.0,-10.0,-2.0,-4.0,-4.0,-1.0,-1.0
1702324091.403198,-2.0,0.0,-25.0,0.0,3.0,5.0,2.0,0.0
1702324091.403198,-4.0,-23.0,5.0,0.0,3.0,-3.0,-2.0,-5.0
1702324091.413548,1.0,0.0,-42.0,-6.0,-4.0,-6.0,-4.0,0.0
1702324091.413548,-14.0,19.0,-30.0,-13.0,-5.0,0.0,0.0,-2.0
1702324091.4236007,-2.0,-31.0,15.0,9.0,2.0,0.0,-2.0,-2.0
1702324091.4236007,7.0,-22.0,12.0,-1.0,-1.0,-13.0,-17.0,-1.0
1702324091.4236007,-10.0,-1.0,-8.0,-4.0,-2.0,9.0,9.0,2.0
1702324091.4236007,5.0,-4.0,6.0,-2.0,0.0,1.0,7.0,-1.0
1702324091.4531693,-4.0,10.0,-7.0,-3.0,-4.0,2.0,1.0,-1.0
1702324091.4531693,-13.0,13.0,-9.0,-5.0,-3.0,-4.0,2.0,-9.0
1702324091.4531693,17.0,-16.0,9.0,3.0,2.0,1.0,-7.0,9.0
1702324091.4531693,-3.0,2.0,4.0,4.0,1.0,1.0,-7.0,2.0
1702324091.4634454,-19.0,6.0,-7.0,-5.0,0.0,-2.0,0.0,-5.0
1702324091.4634454,18.0,-7.0,-4.0,-3.0,0.0,2.0,4.0,5.0
1702324091.4734814,-15.0,11.0,8.0,3.0,-1.0,-7.0,-3.0,-2.0
1702324091.4734814,-4.0,-8.0,-6.0,3.0,-2.0,-2.0,-2.0,-9.0
1702324091.4834762,11.0,-14.0,-1.0,-6.0,-3.0,-4.0,-2.0,0.0
1702324091.4834762,-5.0,12.0,-1.0,-6.0,-1.0,1.0,0.0,3.0
1702324091.4834762,-3.0,5.0,-17.0,1.0,-1.0,2.0,2.0,-2.0
1702324091.4834762,-6.0,-19.0,20.0,-8.0,2.0,-1.0,-3.0,-1.0
1702324091.5131679,5.0,14.0,-15.0,5.0,-3.0,-5.0,-2.0,-3.0
1702324091.5131679,3.0,2.0,27.0,17.0,7.0,-2.0,0.0,2.0
1702324091.5131679,3.0,-2.0,-24.0,-11.0,-4.0,3.0,2.0,-1.0
1702324091.5131679,2.0,0.0,26.0,19.0,9.0,0.0,-1.0,0.0
1702324091.5231993,4.0,4.0,-30.0,-10.0,-3.0,-7.0,-14.0,-1.0
1702324091.5231993,0.0,9.0,18.0,-10.0,-5.0,4.0,15.0,2.0
1702324091.5335815,-8.0,-12.0,7.0,1.0,1.0,-1.0,0.0,-3.0
1702324091.5335815,2.0,-3.0,-20.0,-12.0,-8.0,-5.0,-7.0,-2.0
1702324091.5531666,3.0,12.0,18.0,6.0,2.0,4.0,6.0,-1.0
1702324091.5531666,5.0,17.0,-17.0,3.0,3.0,4.0,0.0,3.0
1702324091.5531666,-9.0,-30.0,24.0,1.0,1.0,-9.0,-3.0,-2.0
1702324091.5531666,4.0,-10.0,-49.0,-9.0,-7.0,-3.0,-2.0,0.0
1702324091.5635538,-9.0,-3.0,15.0,-8.0,-4.0,1.0,0.0,1.0
1702324091.5635538,2.0,-2.0,-3.0,-3.0,-4.0,-1.0,-4.0,-1.0
1702324091.5731673,8.0,16.0,18.0,9.0,4.0,2.0,3.0,-5.0
1702324091.5731673,-1.0,-8.0,-11.0,-5.0,-4.0,-6.0,-2.0,2.0
1702324091.5835779,-18.0,-5.0,-9.0,0.0,-10.0,-18.0,-16.0,-7.0
1702324091.5835779,1.0,7.0,7.0,10.0,10.0,13.0,3.0,3.0
1702324091.5934303,0.0,-8.0,-9.0,0.0,2.0,0.0,15.0,1.0
1702324091.5934303,4.0,11.0,13.0,3.0,6.0,21.0,3.0,0.0
1702324091.6108015,9.0,3.0,4.0,1.0,2.0,5.0,3.0,-1.0
1702324091.6108015,-8.0,-26.0,-32.0,-16.0,-12.0,-11.0,-9.0,-1.0
1702324091.6108015,11.0,3.0,1.0,-2.0,-5.0,-9.0,-10.0,0.0
1702324091.6108015,-9.0,-1.0,-1.0,-4.0,0.0,1.0,1.0,1.0
1702324091.625327,-3.0,7.0,16.0,4.0,-1.0,-5.0,4.0,-1.0
1702324091.625327,-6.0,-2.0,-3.0,-1.0,-1.0,1.0,-3.0,-4.0
1702324091.625327,2.0,3.0,-4.0,-1.0,0.0,-3.0,-3.0,-1.0
1702324091.625327,-3.0,1.0,4.0,-4.0,-5.0,-9.0,-2.0,0.0
1702324091.6453247,9.0,8.0,14.0,-2.0,2.0,0.0,-1.0,4.0
1702324091.6453247,-8.0,-8.0,-28.0,-4.0,-3.0,5.0,5.0,0.0
1702324091.6553252,-3.0,9.0,6.0,-12.0,-6.0,0.0,-2.0,-4.0
1702324091.6553252,-10.0,0.0,18.0,23.0,5.0,-2.0,-3.0,-2.0
1702324091.6838517,3.0,-3.0,-33.0,-1.0,4.0,0.0,0.0,3.0
1702324091.6838517,2.0,-27.0,-21.0,-13.0,-3.0,-3.0,-2.0,-2.0
1702324091.6838517,7.0,38.0,29.0,7.0,-3.0,4.0,1.0,-7.0
1702324091.6838517,-22.0,-25.0,18.0,-2.0,-7.0,-5.0,-3.0,-2.0
1702324091.6838517,12.0,5.0,0.0,9.0,5.0,0.0,2.0,-1.0
1702324091.6838517,-4.0,1.0,-2.0,-2.0,-1.0,-2.0,-3.0,2.0
1702324091.6938555,0.0,2.0,-6.0,-3.0,1.0,1.0,0.0,2.0
1702324091.6938555,12.0,-23.0,-30.0,-13.0,-7.0,2.0,1.0,-1.0
1702324091.7041569,-4.0,17.0,18.0,-4.0,-4.0,0.0,-1.0,-3.0
1702324091.7041569,-2.0,-15.0,-28.0,-6.0,-3.0,3.0,-1.0,-3.0
1702324091.713856,-9.0,2.0,9.0,-8.0,-4.0,-5.0,-4.0,-4.0
1702324091.713856,11.0,9.0,-5.0,6.0,4.0,-1.0,-1.0,2.0
1702324091.7338555,-3.0,-20.0,-9.0,-12.0,-6.0,0.0,0.0,-1.0
1702324091.7338555,-9.0,14.0,15.0,-2.0,-4.0,-9.0,-5.0,-1.0
1702324091.7338555,-2.0,-4.0,13.0,8.0,0.0,0.0,-2.0,1.0
1702324091.7338555,1.0,13.0,-12.0,5.0,4.0,4.0,5.0,-1.0
1702324091.7438772,-1.0,-24.0,-15.0,-1.0,4.0,0.0,0.0,-7.0
1702324091.7438772,0.0,9.0,17.0,3.0,4.0,-2.0,1.0,-1.0
1702324091.7438772,-9.0,-9.0,-23.0,-18.0,-5.0,-7.0,-9.0,2.0
1702324091.7438772,0.0,3.0,4.0,8.0,0.0,-1.0,1.0,-5.0
1702324091.763905,3.0,5.0,18.0,2.0,-8.0,1.0,1.0,-2.0
1702324091.763905,0.0,8.0,3.0,16.0,11.0,5.0,5.0,-1.0
1702324091.7738533,-1.0,-9.0,-4.0,-4.0,5.0,2.0,-2.0,-1.0
1702324091.7738533,5.0,-1.0,11.0,-5.0,-5.0,-7.0,-4.0,-1.0
1702324091.7838511,4.0,14.0,-6.0,-2.0,2.0,0.0,-1.0,0.0
1702324091.7838511,-19.0,-22.0,0.0,-9.0,-11.0,-4.0,-1.0,-5.0
1702324091.7838511,-5.0,-12.0,7.0,1.0,-6.0,-6.0,-4.0,-5.0
1702324091.7838511,1.0,-9.0,-3.0,-7.0,-3.0,-4.0,-3.0,-1.0
1702324091.8042665,-7.0,16.0,-2.0,-3.0,-6.0,0.0,-1.0,0.0
1702324091.8042665,10.0,-1.0,-23.0,-7.0,-2.0,-2.0,-4.0,1.0
1702324091.8042665,6.0,3.0,-6.0,8.0,2.0,3.0,7.0,4.0
1702324091.8042665,-6.0,14.0,16.0,-2.0,-3.0,-6.0,-3.0,-1.0
1702324091.8239105,-2.0,-6.0,-4.0,-13.0,0.0,1.0,-1.0,-4.0
1702324091.8239105,4.0,13.0,10.0,8.0,2.0,1.0,2.0,0.0
1702324091.8338528,-16.0,-18.0,-4.0,15.0,4.0,4.0,0.0,0.0
1702324091.8338528,5.0,-1.0,5.0,-2.0,0.0,-2.0,-2.0,0.0
1702324091.8441641,3.0,2.0,9.0,14.0,4.0,2.0,2.0,2.0
1702324091.8441641,1.0,4.0,-15.0,1.0,-2.0,-3.0,-1.0,-3.0
1702324091.8441641,2.0,-17.0,-14.0,-12.0,-1.0,-2.0,-1.0,-6.0
1702324091.8441641,5.0,14.0,4.0,-11.0,0.0,1.0,-3.0,2.0
1702324091.8642163,-5.0,-17.0,-25.0,-5.0,-3.0,-2.0,1.0,0.0
1702324091.8642163,-4.0,5.0,56.0,8.0,-7.0,0.0,-1.0,-2.0
1702324091.8642163,7.0,22.0,-17.0,3.0,2.0,-2.0,1.0,0.0
1702324091.8642163,-4.0,-1.0,1.0,0.0,0.0,-1.0,-2.0,-1.0
1702324091.903853,-3.0,-33.0,-6.0,-13.0,-3.0,-2.0,-4.0,-2.0
1702324091.903853,-1.0,-13.0,-33.0,1.0,1.0,-2.0,-1.0,-1.0
1702324091.903853,4.0,-1.0,3.0,4.0,3.0,1.0,-4.0,1.0
1702324091.903853,-8.0,7.0,-1.0,-6.0,-4.0,-4.0,-1.0,-2.0
1702324091.903853,1.0,8.0,-7.0,1.0,0.0,0.0,1.0,-7.0
1702324091.903853,1.0,4.0,35.0,-1.0,-3.0,-5.0,-2.0,-3.0
1702324091.903853,-3.0,-16.0,-41.0,-7.0,-2.0,0.0,-1.0,-1.0
1702324091.903853,2.0,-7.0,-19.0,-1.0,0.0,-2.0,-1.0,1.0
1702324091.92422,-2.0,6.0,16.0,-2.0,0.0,-1.0,1.0,2.0
1702324091.92422,-4.0,-6.0,-4.0,6.0,3.0,1.0,0.0,-1.0
1702324091.92422,-10.0,14.0,32.0,3.0,-2.0,-1.0,-1.0,1.0
1702324091.92422,1.0,-17.0,0.0,1.0,-2.0,0.0,1.0,-3.0
1702324091.9538524,2.0,-2.0,-5.0,-4.0,-5.0,-4.0,-3.0,-1.0
1702324091.9538524,2.0,-2.0,-8.0,-15.0,-3.0,-6.0,-2.0,-2.0
1702324091.9538524,10.0,23.0,8.0,1.0,-2.0,-4.0,-1.0,5.0
1702324091.9538524,-5.0,-12.0,-22.0,-5.0,-3.0,7.0,10.0,0.0
1702324091.964198,-6.0,5.0,15.0,6.0,1.0,2.0,-3.0,-4.0
1702324091.964198,-6.0,-4.0,0.0,-6.0,-1.0,1.0,-3.0,-1.0
1702324091.964198,-5.0,-14.0,-5.0,2.0,-1.0,-2.0,-3.0,1.0
1702324091.964198,7.0,15.0,3.0,-1.0,-2.0,-4.0,-2.0,-1.0
1702324091.9938521,0.0,-3.0,-4.0,-3.0,-1.0,-5.0,-2.0,2.0
1702324091.9938521,8.0,6.0,9.0,21.0,9.0,5.0,3.0,-3.0
1702324091.9938521,2.0,-1.0,0.0,-3.0,-3.0,-3.0,-3.0,-3.0
1702324091.9938521,-6.0,1.0,-4.0,3.0,1.0,-1.0,-3.0,-2.0
1702324092.014128,-3.0,-1.0,4.0,-6.0,-4.0,-3.0,-1.0,2.0
1702324092.014128,1.0,10.0,4.0,-12.0,-6.0,-5.0,-3.0,1.0
1702324092.014128,0.0,-7.0,11.0,0.0,-4.0,-2.0,-1.0,-7.0
1702324092.014128,4.0,-2.0,-19.0,-5.0,1.0,-2.0,2.0,0.0
1702324092.024237,-6.0,8.0,37.0,23.0,7.0,8.0,0.0,-2.0
1702324092.024237,-6.0,-16.0,-22.0,-14.0,-7.0,-3.0,-6.0,-1.0
1702324092.0341878,-8.0,-2.0,-8.0,-6.0,-4.0,-4.0,-9.0,-1.0
1702324092.0341878,6.0,-8.0,6.0,-5.0,-2.0,-7.0,9.0,-1.0
1702324092.0538554,-4.0,11.0,-11.0,4.0,0.0,0.0,-1.0,1.0
1702324092.0538554,3.0,4.0,2.0,-5.0,3.0,1.0,1.0,0.0
1702324092.0538554,3.0,5.0,8.0,0.0,0.0,7.0,1.0,0.0
1702324092.0538554,1.0,-20.0,2.0,-8.0,-4.0,-6.0,-13.0,-6.0
1702324092.0740683,-7.0,0.0,-19.0,2.0,0.0,5.0,4.0,2.0
1702324092.0740683,-2.0,1.0,0.0,0.0,-1.0,-2.0,2.0,0.0
1702324092.0740683,3.0,2.0,-9.0,-1.0,-1.0,-1.0,0.0,-1.0
1702324092.0740683,4.0,29.0,15.0,4.0,1.0,0.0,-5.0,-4.0
1702324092.0841305,-11.0,-57.0,-13.0,-13.0,-4.0,-7.0,-4.0,-3.0
1702324092.0841305,1.0,8.0,3.0,-2.0,-4.0,3.0,-2.0,-1.0
1702324092.0941226,-5.0,-10.0,-21.0,-14.0,-11.0,-8.0,0.0,0.0
1702324092.0941226,0.0,6.0,11.0,27.0,7.0,-5.0,-1.0,1.0
1702324092.1138518,9.0,15.0,12.0,0.0,2.0,5.0,-1.0,0.0
1702324092.1138518,-3.0,-13.0,-11.0,10.0,8.0,5.0,1.0,-1.0
1702324092.1138518,4.0,-4.0,8.0,-9.0,-1.0,4.0,3.0,3.0
1702324092.1138518,-14.0,9.0,-8.0,0.0,1.0,0.0,-2.0,-2.0
1702324092.1250956,-4.0,11.0,18.0,10.0,2.0,-6.0,-3.0,-6.0
1702324092.1250956,-8.0,-16.0,-9.0,-13.0,-7.0,-5.0,-1.0,1.0
1702324092.1351004,6.0,0.0,1.0,7.0,2.0,-3.0,-3.0,0.0
1702324092.1351004,-1.0,-14.0,-7.0,-12.0,-11.0,1.0,2.0,3.0
1702324092.1454067,10.0,11.0,-21.0,-9.0,-5.0,2.0,4.0,2.0
1702324092.1454067,-1.0,1.0,14.0,-7.0,-1.0,2.0,3.0,-2.0
1702324092.1550984,-10.0,-3.0,18.0,11.0,-3.0,-3.0,-5.0,-5.0
1702324092.1550984,-10.0,7.0,-21.0,-6.0,2.0,0.0,-2.0,0.0
1702324092.1711526,1.0,-14.0,-1.0,3.0,2.0,-3.0,-4.0,-5.0
1702324092.1711526,9.0,23.0,3.0,5.0,0.0,0.0,0.0,1.0
1702324092.1731365,0.0,-42.0,-22.0,-12.0,-6.0,-5.0,2.0,-3.0
1702324092.1731365,-6.0,13.0,3.0,8.0,1.0,-5.0,-6.0,0.0
1702324092.1854112,-3.0,-15.0,-12.0,-1.0,-8.0,-4.0,-4.0,1.0
1702324092.1854112,-6.0,4.0,-4.0,-2.0,-1.0,-2.0,-1.0,0.0
1702324092.1956322,0.0,13.0,5.0,-2.0,1.0,2.0,1.0,-1.0
1702324092.1956322,7.0,-7.0,13.0,-2.0,2.0,2.0,1.0,-1.0
1702324092.2058682,2.0,-4.0,-11.0,-7.0,-2.0,-2.0,-1.0,0.0
1702324092.2058682,-1.0,4.0,1.0,-6.0,-2.0,-4.0,-1.0,-1.0
1702324092.215427,3.0,3.0,19.0,9.0,0.0,0.0,-1.0,-2.0
1702324092.215427,5.0,-1.0,-8.0,-9.0,1.0,3.0,0.0,0.0
1702324092.2254217,-10.0,-4.0,-13.0,7.0,1.0,-7.0,-2.0,-2.0
1702324092.2254217,4.0,-13.0,-7.0,-13.0,-6.0,-3.0,-4.0,-3.0
1702324092.2254217,-12.0,-9.0,-20.0,-2.0,2.0,1.0,2.0,-1.0
1702324092.2254217,-4.0,-9.0,27.0,6.0,-3.0,-4.0,-3.0,-3.0
1702324092.24561,7.0,10.0,-1.0,3.0,2.0,0.0,1.0,2.0
1702324092.24561,-4.0,6.0,-17.0,-12.0,-1.0,-3.0,-1.0,-1.0
1702324092.255423,-5.0,-9.0,-3.0,2.0,-2.0,-1.0,-1.0,0.0
1702324092.255423,7.0,-10.0,1.0,12.0,3.0,2.0,1.0,2.0
1702324092.274224,-2.0,11.0,9.0,-11.0,-2.0,0.0,-1.0,-1.0
1702324092.274224,-1.0,-1.0,6.0,9.0,-5.0,-2.0,-3.0,-3.0
1702324092.274224,-3.0,-3.0,-21.0,-18.0,1.0,0.0,3.0,0.0
1702324092.274224,1.0,15.0,26.0,-3.0,-2.0,-2.0,-3.0,2.0
1702324092.2842314,8.0,-9.0,-32.0,-3.0,1.0,-1.0,1.0,2.0
1702324092.2842314,-16.0,-38.0,-2.0,-9.0,-3.0,-1.0,-1.0,-3.0
1702324092.2842314,23.0,33.0,12.0,12.0,2.0,-1.0,0.0,0.0
1702324092.2842314,-8.0,-2.0,-7.0,3.0,-1.0,2.0,-1.0,-2.0
1702324092.314237,7.0,0.0,0.0,-3.0,-3.0,-6.0,-5.0,-2.0
1702324092.314237,3.0,14.0,13.0,6.0,0.0,-2.0,-2.0,3.0
1702324092.314237,-9.0,-9.0,0.0,0.0,0.0,-4.0,8.0,0.0
1702324092.314237,8.0,8.0,-2.0,-4.0,-1.0,2.0,-1.0,-1.0
1702324092.3245552,-3.0,18.0,15.0,1.0,1.0,-5.0,3.0,1.0
1702324092.3245552,-4.0,-16.0,-19.0,1.0,-1.0,22.0,-2.0,-3.0
1702324092.33424,-3.0,3.0,8.0,0.0,-1.0,-1.0,-6.0,-2.0
1702324092.33424,0.0,-6.0,-9.0,-4.0,-4.0,-4.0,1.0,1.0
1702324092.3542337,-4.0,-3.0,-6.0,-4.0,-1.0,-7.0,-4.0,-3.0
1702324092.3542337,0.0,-4.0,8.0,5.0,-1.0,-6.0,-1.0,1.0
1702324092.3542337,2.0,6.0,3.0,6.0,1.0,2.0,0.0,-2.0
1702324092.3542337,-9.0,-9.0,-25.0,-8.0,-1.0,-3.0,-2.0,-3.0
1702324092.3742807,1.0,-10.0,1.0,-14.0,-3.0,0.0,-2.0,-3.0
1702324092.3742807,0.0,16.0,7.0,15.0,2.0,-3.0,-1.0,-2.0
1702324092.3742807,1.0,0.0,0.0,0.0,-5.0,0.0,-5.0,-2.0
1702324092.3742807,-3.0,-5.0,10.0,-13.0,-4.0,1.0,2.0,-1.0
1702324092.3845966,-2.0,-5.0,-4.0,9.0,2.0,4.0,2.0,-1.0
1702324092.3845966,13.0,12.0,2.0,-2.0,3.0,-2.0,3.0,3.0
1702324092.394234,-6.0,7.0,-2.0,9.0,3.0,0.0,-4.0,1.0
1702324092.394234,-19.0,-30.0,-18.0,-5.0,-3.0,-5.0,-4.0,-9.0
1702324092.404232,2.0,16.0,1.0,-5.0,-5.0,1.0,-2.0,-2.0
1702324092.404232,-2.0,-29.0,-6.0,-3.0,-3.0,-3.0,-3.0,-1.0
1702324092.404232,6.0,6.0,-4.0,-1.0,1.0,1.0,6.0,0.0
1702324092.404232,5.0,8.0,5.0,-3.0,-1.0,5.0,-2.0,-1.0
1702324092.4342592,-9.0,-4.0,1.0,-7.0,-5.0,0.0,1.0,0.0
1702324092.4342592,0.0,5.0,-13.0,8.0,0.0,-1.0,-1.0,0.0
1702324092.4342592,-2.0,8.0,15.0,-4.0,-1.0,-20.0,-4.0,-4.0
1702324092.4342592,0.0,-8.0,7.0,3.0,1.0,14.0,-2.0,-2.0
1702324092.444234,-20.0,-15.0,-12.0,-4.0,0.0,-1.0,0.0,-1.0
1702324092.444234,6.0,3.0,-6.0,-10.0,-3.0,-7.0,-4.0,-2.0
1702324092.4542654,0.0,-8.0,-6.0,-8.0,-5.0,1.0,-2.0,-7.0
1702324092.4542654,5.0,3.0,4.0,5.0,3.0,-3.0,0.0,6.0
1702324092.464636,-13.0,-5.0,30.0,24.0,4.0,1.0,-3.0,-2.0
1702324092.464636,0.0,35.0,21.0,10.0,5.0,-1.0,-2.0,-8.0
1702324092.464636,-9.0,-36.0,-27.0,-15.0,-5.0,-1.0,-2.0,2.0
1702324092.464636,3.0,3.0,5.0,-4.0,-5.0,-6.0,-3.0,-3.0
1702324092.4942331,7.0,-19.0,-12.0,-14.0,-3.0,2.0,-1.0,1.0
1702324092.4942331,-1.0,32.0,-17.0,0.0,-1.0,-3.0,1.0,1.0
1702324092.4942331,4.0,-18.0,8.0,4.0,2.0,2.0,-1.0,-1.0
1702324092.4942331,-4.0,10.0,6.0,0.0,-2.0,-2.0,-2.0,-2.0
1702324092.5042346,1.0,-18.0,17.0,-7.0,-3.0,-1.0,-1.0,3.0
1702324092.5042346,8.0,-13.0,-20.0,-4.0,-5.0,-6.0,0.0,-1.0
1702324092.5144138,-6.0,35.0,-1.0,6.0,5.0,5.0,-1.0,-4.0
1702324092.5144138,2.0,-15.0,-16.0,-1.0,1.0,-3.0,1.0,1.0
1702324092.5243053,-1.0,26.0,14.0,3.0,-2.0,0.0,-2.0,-3.0
1702324092.5243053,-11.0,-14.0,9.0,-7.0,-4.0,1.0,0.0,-1.0
1702324092.5243053,6.0,-8.0,-19.0,-1.0,-2.0,0.0,-1.0,2.0
1702324092.5243053,-1.0,-8.0,-1.0,-7.0,-2.0,-2.0,-1.0,-1.0
1702324092.5542324,6.0,12.0,0.0,11.0,5.0,-17.0,-6.0,-2.0
1702324092.5542324,1.0,-6.0,1.0,-4.0,3.0,16.0,3.0,4.0
1702324092.5542324,-7.0,-7.0,-10.0,-7.0,0.0,-2.0,0.0,-2.0
1702324092.5542324,-8.0,17.0,25.0,13.0,-2.0,-1.0,6.0,-4.0
1702324092.5642335,5.0,-14.0,-19.0,-15.0,-4.0,-1.0,-2.0,-5.0
1702324092.5642335,-3.0,-8.0,2.0,8.0,6.0,4.0,0.0,1.0
1702324092.5742855,1.0,14.0,16.0,2.0,0.0,0.0,0.0,2.0
1702324092.5742855,-1.0,-11.0,-27.0,5.0,2.0,-6.0,-2.0,-2.0
1702324092.5845718,12.0,8.0,-25.0,-5.0,-3.0,6.0,-1.0,2.0
1702324092.5845718,-4.0,-2.0,14.0,-9.0,-8.0,-11.0,-4.0,-9.0
1702324092.5845718,-3.0,6.0,12.0,-7.0,-6.0,1.0,0.0,0.0
1702324092.5845718,-9.0,8.0,12.0,15.0,7.0,0.0,-1.0,1.0
1702324092.6142328,4.0,-21.0,-1.0,2.0,-6.0,-2.0,2.0,2.0
1702324092.6142328,3.0,-1.0,-15.0,-11.0,-5.0,-3.0,-1.0,1.0
1702324092.6142328,-6.0,11.0,14.0,17.0,8.0,3.0,0.0,-7.0
1702324092.6142328,18.0,8.0,5.0,-12.0,-4.0,-2.0,-2.0,1.0
1702324092.624232,-20.0,-11.0,-5.0,9.0,3.0,3.0,1.0,-2.0
1702324092.624232,-17.0,-6.0,5.0,-10.0,-7.0,-2.0,-1.0,-3.0
1702324092.6342576,5.0,2.0,-12.0,-12.0,-10.0,-8.0,-4.0,2.0
1702324092.6342576,-4.0,-11.0,-18.0,-2.0,0.0,0.0,-1.0,0.0
1702324092.6446133,10.0,14.0,14.0,-3.0,-5.0,0.0,-2.0,-1.0
1702324092.6446133,3.0,2.0,26.0,6.0,5.0,-1.0,2.0,0.0
1702324092.6446133,-7.0,-6.0,-34.0,-2.0,2.0,1.0,0.0,-1.0
1702324092.6446133,8.0,30.0,7.0,1.0,3.0,2.0,-1.0,0.0
1702324092.6752832,-6.0,-54.0,-27.0,-12.0,-7.0,-3.0,-1.0,-3.0
1702324092.6752832,-7.0,-4.0,3.0,3.0,-5.0,-6.0,-4.0,-5.0
1702324092.6752832,2.0,-4.0,11.0,2.0,2.0,0.0,-1.0,0.0
1702324092.6752832,3.0,-1.0,-9.0,-16.0,-10.0,-4.0,1.0,-1.0
1702324092.6855648,-3.0,20.0,10.0,-5.0,-6.0,1.0,0.0,-2.0
1702324092.6855648,0.0,-1.0,-3.0,3.0,3.0,-1.0,-2.0,-1.0
1702324092.695552,0.0,-1.0,11.0,5.0,5.0,2.0,1.0,1.0
1702324092.695552,-6.0,-12.0,-14.0,-9.0,-4.0,-2.0,-5.0,-2.0
1702324092.7056782,-1.0,10.0,13.0,4.0,2.0,-1.0,-2.0,-1.0
1702324092.7056782,2.0,-5.0,-11.0,-1.0,2.0,1.0,1.0,1.0
1702324092.7056782,5.0,4.0,-5.0,-7.0,-3.0,0.0,-1.0,4.0
1702324092.7056782,1.0,-3.0,3.0,6.0,-2.0,-3.0,0.0,0.0
1702324092.7456965,4.0,59.0,9.0,4.0,4.0,-1.0,0.0,0.0
1702324092.7456965,-26.0,-77.0,-16.0,-5.0,-4.0,-7.0,-4.0,-8.0
1702324092.7456965,-10.0,-1.0,2.0,-10.0,-5.0,3.0,-6.0,-5.0
1702324092.7456965,-7.0,-8.0,6.0,2.0,-5.0,0.0,5.0,-4.0
1702324092.7456965,6.0,-8.0,-2.0,-1.0,-1.0,4.0,2.0,2.0
1702324092.7456965,14.0,40.0,-12.0,-8.0,-3.0,-4.0,-1.0,2.0
1702324092.755695,2.0,-1.0,1.0,-2.0,-2.0,0.0,-1.0,2.0
1702324092.755695,5.0,-22.0,-8.0,-2.0,3.0,0.0,-3.0,-1.0
1702324092.7659712,-5.0,11.0,14.0,-4.0,-3.0,-5.0,-4.0,-5.0
1702324092.7659712,3.0,7.0,5.0,5.0,3.0,-2.0,1.0,-1.0
1702324092.7659712,-1.0,-19.0,-6.0,-6.0,-5.0,-5.0,-3.0,-4.0
1702324092.7659712,-7.0,27.0,-1.0,2.0,-1.0,-1.0,0.0,2.0
1702324092.8044972,0.0,-25.0,-9.0,5.0,6.0,2.0,2.0,0.0
1702324092.8044972,1.0,-15.0,-5.0,-4.0,-3.0,2.0,-4.0,2.0
1702324092.8044972,-1.0,7.0,3.0,-1.0,-5.0,-6.0,3.0,-2.0
1702324092.8044972,12.0,23.0,18.0,-1.0,1.0,0.0,0.0,-1.0
1702324092.8147185,-9.0,-28.0,-14.0,5.0,0.0,-2.0,0.0,-1.0
1702324092.8147185,-2.0,-11.0,-9.0,-12.0,-6.0,-1.0,1.0,-4.0
1702324092.8147185,-1.0,-4.0,3.0,13.0,-2.0,-11.0,-6.0,-1.0
1702324092.8147185,-1.0,-4.0,1.0,7.0,6.0,7.0,-2.0,-3.0
1702324092.8344977,-6.0,15.0,14.0,-5.0,1.0,3.0,2.0,2.0
1702324092.8344977,9.0,16.0,-3.0,-2.0,-3.0,-2.0,-5.0,1.0
1702324092.8445003,1.0,-7.0,-12.0,-10.0,-4.0,-6.0,1.0,-3.0
1702324092.8544946,-7.0,-19.0,-2.0,-4.0,-3.0,0.0,1.0,1.0
1702324092.8544946,-9.0,1.0,5.0,7.0,8.0,-2.0,-6.0,-11.0
1702324092.8544946,8.0,9.0,10.0,0.0,-1.0,-1.0,1.0,3.0
1702324092.8544946,-9.0,0.0,16.0,10.0,-2.0,1.0,-2.0,-3.0
1702324092.8544946,6.0,1.0,-5.0,-13.0,-2.0,-1.0,0.0,-1.0
1702324092.8743975,-1.0,-5.0,-16.0,-4.0,-6.0,1.0,2.0,3.0
1702324092.8743975,3.0,4.0,-8.0,6.0,2.0,-3.0,-1.0,0.0
1702324092.8743975,-8.0,-5.0,-4.0,-8.0,-4.0,-3.0,-3.0,-8.0
1702324092.8743975,-1.0,13.0,4.0,2.0,-1.0,1.0,-3.0,1.0
1702324092.8848073,5.0,-18.0,-5.0,-9.0,-2.0,0.0,2.0,2.0
1702324092.8848073,-1.0,-4.0,-6.0,6.0,-1.0,0.0,-2.0,-2.0
1702324092.894406,1.0,-9.0,-5.0,4.0,2.0,-5.0,4.0,4.0
1702324092.894406,-7.0,-5.0,-10.0,-7.0,-1.0,4.0,-4.0,-3.0
1702324092.9144053,0.0,10.0,7.0,6.0,1.0,-5.0,-4.0,-4.0
1702324092.9144053,-2.0,3.0,3.0,6.0,1.0,3.0,3.0,3.0
1702324092.9144053,1.0,25.0,11.0,2.0,-1.0,-5.0,-5.0,1.0
1702324092.9144053,1.0,-22.0,-17.0,-8.0,-3.0,0.0,2.0,-2.0
1702324092.934869,6.0,-3.0,-3.0,-2.0,-1.0,-1.0,-1.0,5.0
1702324092.934869,-15.0,-13.0,-5.0,-2.0,1.0,0.0,-3.0,-7.0
1702324092.934869,-1.0,13.0,2.0,1.0,2.0,8.0,3.0,-1.0
1702324092.934869,-1.0,3.0,1.0,-7.0,-5.0,-8.0,-4.0,-3.0
1702324092.9447927,14.0,12.0,18.0,16.0,4.0,-1.0,-3.0,2.0
1702324092.9447927,-13.0,-6.0,-17.0,-4.0,-2.0,0.0,2.0,0.0
