1706276877.4622464,-33.0,-28.0,17.0,2.0,-13.0,-1.0,0.0,-36.0
1706276877.4622464,-15.0,-17.0,-5.0,-31.0,-16.0,-45.0,-34.0,2.0
1706276877.4722807,24.0,31.0,67.0,22.0,6.0,10.0,-4.0,11.0
1706276877.4722807,-14.0,27.0,-40.0,-33.0,-5.0,10.0,13.0,-19.0
1706276877.4722807,25.0,9.0,-4.0,-3.0,-3.0,8.0,-26.0,25.0
1706276877.4722807,-29.0,-25.0,-30.0,-15.0,-3.0,1.0,23.0,-21.0
1706276877.5222447,-39.0,-44.0,-10.0,16.0,0.0,-9.0,-32.0,-20.0
1706276877.5222447,3.0,44.0,23.0,-28.0,-23.0,-24.0,12.0,-40.0
1706276877.5222447,22.0,-12.0,-27.0,13.0,10.0,-3.0,26.0,62.0
1706276877.5222447,20.0,18.0,9.0,-9.0,2.0,-15.0,-1.0,20.0
1706276877.5222447,28.0,24.0,9.0,12.0,14.0,44.0,-20.0,-32.0
1706276877.5222447,-5.0,-14.0,2.0,10.0,-7.0,-33.0,22.0,49.0
1706276877.5222447,-40.0,-14.0,30.0,-4.0,-10.0,-6.0,-23.0,-85.0
1706276877.5222447,9.0,9.0,3.0,9.0,-11.0,-24.0,36.0,44.0
1706276877.5322914,13.0,42.0,-3.0,-13.0,-1.0,22.0,56.0,-3.0
1706276877.5322914,51.0,-8.0,18.0,11.0,11.0,24.0,-45.0,28.0
1706276877.5322914,7.0,-22.0,0.0,8.0,8.0,3.0,19.0,-5.0
1706276877.5322914,-29.0,-35.0,-4.0,2.0,0.0,-30.0,-71.0,-85.0
1706276877.5622478,3.0,11.0,10.0,-6.0,-7.0,2.0,46.0,49.0
1706276877.5622478,-17.0,-24.0,-8.0,-9.0,1.0,16.0,18.0,5.0
1706276877.5622478,5.0,17.0,-3.0,-34.0,-21.0,9.0,-5.0,-14.0
1706276877.5622478,8.0,12.0,28.0,46.0,28.0,-6.0,-111.0,-24.0
1706276877.5722408,28.0,10.0,3.0,17.0,15.0,13.0,95.0,70.0
1706276877.5722408,-46.0,-56.0,10.0,7.0,5.0,-9.0,-51.0,-66.0
1706276877.5722408,-1.0,6.0,13.0,16.0,12.0,15.0,42.0,7.0
1706276877.5722408,1.0,0.0,-15.0,-34.0,-18.0,17.0,78.0,27.0
1706276877.5924618,-45.0,-52.0,2.0,-14.0,-14.0,-49.0,-107.0,-42.0
1706276877.5924618,0.0,6.0,17.0,35.0,23.0,24.0,88.0,19.0
1706276877.5924618,-15.0,-8.0,-12.0,-8.0,-6.0,-6.0,20.0,18.0
1706276877.5924618,9.0,-2.0,-14.0,-15.0,-19.0,-17.0,-13.0,-24.0
1706276877.6222422,2.0,8.0,4.0,13.0,17.0,20.0,18.0,-31.0
1706276877.6222422,5.0,-1.0,4.0,7.0,12.0,7.0,-59.0,-10.0
1706276877.6222422,-57.0,-90.0,-42.0,-6.0,-3.0,0.0,-2.0,4.0
1706276877.6222422,37.0,36.0,27.0,7.0,-1.0,3.0,-26.0,33.0
1706276877.6322775,20.0,32.0,-7.0,-10.0,-8.0,11.0,71.0,30.0
1706276877.6322775,20.0,19.0,-16.0,-12.0,-19.0,-64.0,-99.0,-34.0
1706276877.6425953,23.0,-3.0,31.0,15.0,11.0,38.0,81.0,50.0
1706276877.6425953,-15.0,-12.0,-9.0,-81.0,-44.0,-12.0,-15.0,8.0
1706276877.6522417,3.0,-41.0,-18.0,10.0,-3.0,-27.0,-10.0,-8.0
1706276877.6522417,7.0,2.0,-27.0,37.0,14.0,12.0,3.0,15.0
1706276877.6522417,-33.0,-28.0,17.0,2.0,-13.0,-1.0,0.0,-36.0
1706276877.6522417,-15.0,-17.0,-5.0,-31.0,-16.0,-45.0,-34.0,2.0
1706276877.6522417,24.0,31.0,67.0,22.0,6.0,10.0,-4.0,11.0
1706276877.6522417,-14.0,27.0,-40.0,-33.0,-5.0,10.0,13.0,-19.0
1706276877.6522417,-20.0,-4.0,-8.0,21.0,-4.0,-11.0,19.0,1.0
1706276877.6522417,-12.0,-1.0,1.0,21.0,12.0,6.0,19.0,-11.0
1706276877.6622436,3.0,33.0,-2.0,48.0,48.0,-13.0,-82.0,-44.0
1706276877.6622436,-4.0,-24.0,-6.0,-3.0,3.0,-7.0,55.0,13.0
1706276877.6722422,-8.0,23.0,0.0,-32.0,-25.0,-6.0,-63.0,-42.0
1706276877.6722422,-31.0,5.0,-43.0,-44.0,-43.0,-31.0,-13.0,-23.0
1706276877.6722422,41.0,-12.0,39.0,28.0,17.0,29.0,94.0,76.0
1706276877.6722422,-6.0,7.0,13.0,16.0,10.0,6.0,-21.0,-23.0
1706276877.6936798,-6.0,2.0,-13.0,-18.0,-10.0,-22.0,-37.0,-33.0
1706276877.6936798,-20.0,3.0,17.0,12.0,4.0,25.0,9.0,-6.0
1706276877.7019212,7.0,53.0,-27.0,-25.0,-17.0,-18.0,-36.0,4.0
1706276877.7019212,5.0,-15.0,-4.0,21.0,14.0,19.0,36.0,25.0
1706276877.7154155,-32.0,-18.0,-6.0,-7.0,-3.0,-4.0,-36.0,-25.0
1706276877.7154155,41.0,20.0,18.0,16.0,20.0,27.0,64.0,46.0
1706276877.7154155,-28.0,-1.0,6.0,-12.0,-12.0,-2.0,-14.0,-14.0
1706276877.7154155,-19.0,37.0,5.0,-7.0,-2.0,-10.0,-47.0,-44.0
1706276877.735439,-6.0,-72.0,14.0,-11.0,-18.0,-1.0,-6.0,16.0
1706276877.735439,13.0,17.0,-34.0,-25.0,17.0,1.0,17.0,9.0
1706276877.735439,52.0,2.0,-17.0,13.0,-30.0,-7.0,-11.0,-6.0
1706276877.735439,-20.0,-67.0,10.0,38.0,45.0,15.0,19.0,7.0
1706276877.7457414,16.0,-12.0,-17.0,27.0,25.0,9.0,-9.0,-5.0
1706276877.7457414,13.0,48.0,40.0,7.0,2.0,2.0,23.0,23.0
1706276877.7557147,12.0,-19.0,-40.0,-1.0,1.0,-15.0,-31.0,-20.0
1706276877.7557147,-1.0,10.0,-11.0,-75.0,-71.0,-27.0,-8.0,-5.0
1706276877.7754242,-44.0,-55.0,-53.0,78.0,66.0,32.0,29.0,14.0
1706276877.7754242,44.0,5.0,8.0,-5.0,-5.0,-14.0,-29.0,4.0
1706276877.7754242,-17.0,13.0,63.0,14.0,12.0,1.0,-7.0,-8.0
1706276877.7754242,-21.0,-26.0,-9.0,-48.0,-31.0,-11.0,-3.0,-13.0
1706276877.805712,35.0,68.0,28.0,-37.0,-16.0,1.0,3.0,22.0
1706276877.805712,-16.0,-30.0,-29.0,-4.0,-19.0,-17.0,-10.0,-3.0
1706276877.805712,-15.0,1.0,48.0,13.0,4.0,6.0,-8.0,-16.0
1706276877.805712,21.0,21.0,-11.0,29.0,20.0,14.0,25.0,17.0
1706276877.805712,15.0,-7.0,67.0,5.0,10.0,8.0,3.0,9.0
1706276877.805712,-37.0,-59.0,-10.0,5.0,4.0,1.0,-9.0,-12.0
1706276877.8156111,-14.0,-3.0,-30.0,-35.0,-18.0,-4.0,0.0,-3.0
1706276877.8156111,10.0,6.0,-39.0,-7.0,12.0,5.0,-3.0,0.0
1706276877.8654048,-1.0,20.0,80.0,32.0,-1.0,-15.0,-10.0,-6.0
1706276877.8654048,9.0,28.0,-67.0,-40.0,-25.0,-6.0,-2.0,3.0
1706276877.8654048,-8.0,-3.0,44.0,-6.0,8.0,12.0,3.0,1.0
1706276877.8654048,20.0,37.0,5.0,3.0,-4.0,-7.0,1.0,3.0
1706276877.8654048,0.0,-14.0,-18.0,-34.0,-14.0,-4.0,-2.0,-1.0
1706276877.8654048,10.0,31.0,13.0,20.0,-4.0,-7.0,1.0,3.0
1706276877.8654048,-17.0,-47.0,-14.0,-28.0,-17.0,-14.0,-15.0,-15.0
1706276877.8654048,28.0,74.0,48.0,54.0,28.0,17.0,13.0,13.0
1706276877.8654048,-6.0,-9.0,-36.0,-16.0,-18.0,-17.0,-11.0,-14.0
1706276877.8654048,-21.0,-62.0,9.0,-6.0,0.0,4.0,-5.0,-2.0
1706276877.8757217,-6.0,-7.0,-67.0,10.0,0.0,-4.0,-3.0,-5.0
1706276877.8757217,16.0,54.0,60.0,8.0,2.0,-5.0,-2.0,-2.0
1706276877.8954058,26.0,24.0,-69.0,-25.0,-7.0,4.0,7.0,19.0
1706276877.8954058,-9.0,-23.0,-35.0,-24.0,-9.0,-11.0,-8.0,-3.0
1706276877.8954058,18.0,49.0,100.0,93.0,34.0,21.0,11.0,9.0
1706276877.8954058,-22.0,-25.0,-86.0,-97.0,-23.0,-21.0,-14.0,-16.0
1706276877.9157126,12.0,11.0,-7.0,-1.0,-3.0,-2.0,-3.0,4.0
1706276877.9157126,13.0,24.0,55.0,32.0,-8.0,5.0,6.0,5.0
1706276877.9157126,2.0,28.0,-11.0,-33.0,14.0,5.0,2.0,2.0
1706276877.9157126,-11.0,-31.0,-24.0,45.0,7.0,0.0,-4.0,-4.0
1706276877.9256313,-21.0,-45.0,-55.0,-64.0,-12.0,-5.0,-6.0,-7.0
1706276877.9256313,14.0,58.0,57.0,68.0,18.0,5.0,0.0,0.0
1706276877.935591,-32.0,-62.0,-70.0,-40.0,-30.0,-16.0,-15.0,-17.0
1706276877.935591,-2.0,-4.0,-3.0,35.0,20.0,11.0,6.0,0.0
1706276877.975403,-17.0,-24.0,-5.0,-27.0,-24.0,-17.0,-12.0,-11.0
1706276877.975403,26.0,40.0,21.0,-3.0,18.0,14.0,15.0,17.0
1706276877.975403,-8.0,-30.0,-28.0,14.0,0.0,2.0,-1.0,-2.0
1706276877.975403,-21.0,-54.0,-68.0,-23.0,2.0,3.0,1.0,-2.0
1706276877.975403,-6.0,-3.0,67.0,4.0,-7.0,-2.0,-2.0,-2.0
1706276877.975403,6.0,20.0,-36.0,-34.0,-1.0,-5.0,-5.0,1.0
1706276877.975403,-16.0,-36.0,51.0,-9.0,-9.0,-5.0,-4.0,-7.0
1706276877.975403,10.0,1.0,-18.0,8.0,6.0,8.0,5.0,6.0
1706276877.9958096,9.0,22.0,-10.0,28.0,2.0,-5.0,-3.0,-1.0
1706276877.9958096,-1.0,-11.0,-12.0,-15.0,-2.0,4.0,1.0,0.0
1706276877.9958096,14.0,22.0,17.0,4.0,-4.0,2.0,5.0,9.0
1706276877.9958096,-3.0,-3.0,26.0,7.0,9.0,-5.0,-5.0,-1.0
1706276878.0154045,9.0,12.0,97.0,4.0,10.0,6.0,4.0,6.0
1706276878.0154045,-8.0,-14.0,1.0,2.0,-7.0,-2.0,0.0,0.0
1706276878.0154045,9.0,38.0,73.0,-8.0,-3.0,-5.0,-3.0,-1.0
1706276878.0154045,-9.0,-35.0,31.0,32.0,2.0,9.0,8.0,2.0
1706276878.0357082,13.0,29.0,31.0,59.0,12.0,2.0,3.0,4.0
1706276878.0357082,-13.0,-19.0,5.0,-71.0,-15.0,-9.0,-6.0,-5.0
1706276878.0357082,-10.0,-39.0,-31.0,13.0,1.0,7.0,4.0,4.0
1706276878.0357082,14.0,8.0,-84.0,-4.0,-2.0,7.0,5.0,2.0
1706276878.0654085,13.0,53.0,-14.0,-35.0,-4.0,-5.0,-4.0,1.0
1706276878.0654085,-25.0,-56.0,21.0,28.0,6.0,2.0,-5.0,-18.0
1706276878.0654085,5.0,18.0,-38.0,-35.0,-11.0,-7.0,2.0,10.0
1706276878.0654085,-4.0,8.0,16.0,21.0,1.0,-3.0,-6.0,-12.0
1706276878.085405,1.0,9.0,23.0,39.0,10.0,4.0,5.0,9.0
1706276878.085405,-6.0,-26.0,-23.0,11.0,-1.0,-2.0,-12.0,-18.0
1706276878.085405,4.0,31.0,-7.0,-13.0,2.0,0.0,1.0,5.0
1706276878.085405,-14.0,-42.0,13.0,-21.0,-6.0,0.0,8.0,4.0
1706276878.0954385,-14.0,12.0,-58.0,-8.0,-2.0,4.0,-1.0,-18.0
1706276878.0954385,6.0,31.0,34.0,6.0,-4.0,-7.0,3.0,27.0
1706276878.0954385,-19.0,-61.0,-37.0,-6.0,-1.0,1.0,-5.0,-39.0
1706276878.0954385,-2.0,-2.0,25.0,22.0,4.0,2.0,15.0,38.0
1706276878.1154048,-10.0,-3.0,5.0,-2.0,2.0,6.0,-19.0,14.0
1706276878.1154048,25.0,-12.0,-22.0,-17.0,-6.0,-7.0,0.0,8.0
1706276878.1154048,33.0,-8.0,8.0,13.0,11.0,9.0,11.0,41.0
1706276878.1154048,-35.0,30.0,9.0,-6.0,-10.0,-5.0,-1.0,-57.0
1706276878.135853,-45.0,-91.0,-77.0,-19.0,-2.0,-1.0,0.0,43.0
1706276878.135853,31.0,75.0,32.0,3.0,-5.0,-8.0,-16.0,-43.0
1706276878.135853,38.0,37.0,11.0,2.0,-2.0,-4.0,7.0,59.0
1706276878.135853,-9.0,-35.0,17.0,-3.0,-3.0,-4.0,3.0,-1.0
1706276878.155808,15.0,-25.0,-3.0,1.0,9.0,9.0,-6.0,-16.0
1706276878.155808,-4.0,29.0,16.0,13.0,6.0,11.0,17.0,-13.0
1706276878.155808,-21.0,-17.0,-37.0,-13.0,-18.0,-23.0,3.0,-4.0
1706276878.155808,20.0,-12.0,12.0,-4.0,-1.0,-8.0,-13.0,2.0
1706276878.1754084,-11.0,16.0,-17.0,-7.0,0.0,-1.0,-2.0,-32.0
1706276878.1754084,-10.0,-27.0,-6.0,9.0,7.0,3.0,3.0,28.0
1706276878.1754084,10.0,41.0,3.0,-3.0,2.0,2.0,-10.0,-32.0
1706276878.1754084,-11.0,-4.0,19.0,7.0,7.0,5.0,-45.0,-30.0
1706276878.195794,7.0,-53.0,-6.0,-15.0,-18.0,-12.0,6.0,-25.0
1706276878.195794,29.0,3.0,1.0,21.0,6.0,5.0,12.0,42.0
1706276878.205411,-8.0,20.0,3.0,5.0,7.0,10.0,2.0,-10.0
1706276878.205411,-20.0,11.0,12.0,-1.0,-9.0,-18.0,-15.0,-31.0
1706276878.2154238,49.0,67.0,-1.0,1.0,16.0,36.0,13.0,48.0
1706276878.2154238,-47.0,-77.0,-43.0,-10.0,-9.0,-9.0,-2.0,-15.0
1706276878.2154238,3.0,15.0,-5.0,0.0,6.0,4.0,-3.0,-7.0
1706276878.2154238,22.0,27.0,6.0,1.0,0.0,9.0,16.0,16.0
1706276878.2413275,-3.0,11.0,-1.0,-1.0,-2.0,-14.0,-23.0,-18.0
1706276878.2423465,-33.0,-20.0,-15.0,-20.0,-24.0,-21.0,16.0,-4.0
1706276878.2433796,-3.0,-22.0,-6.0,-5.0,-9.0,-6.0,-13.0,-19.0
1706276878.2433796,16.0,13.0,3.0,1.0,10.0,1.0,-3.0,26.0
1706276878.2482326,-10.0,3.0,6.0,6.0,3.0,2.0,23.0,12.0
1706276878.2482326,-4.0,-3.0,-2.0,0.0,5.0,9.0,-10.0,-26.0
1706276878.258582,-13.0,-11.0,1.0,-5.0,-8.0,-23.0,-24.0,-7.0
1706276878.258582,4.0,13.0,4.0,-2.0,-2.0,11.0,-4.0,0.0
1706276878.2782326,18.0,-3.0,-10.0,-10.0,-13.0,-17.0,-1.0,-3.0
1706276878.2782326,2.0,-19.0,-4.0,1.0,0.0,-2.0,-2.0,3.0
1706276878.2782326,0.0,17.0,-1.0,-3.0,2.0,16.0,17.0,0.0
1706276878.2782326,4.0,-8.0,-5.0,-6.0,-7.0,-17.0,5.0,12.0
1706276878.2986345,-28.0,-12.0,8.0,8.0,3.0,10.0,19.0,11.0
1706276878.2986345,-8.0,1.0,-3.0,-2.0,4.0,-4.0,-28.0,-28.0
1706276878.2986345,-3.0,-14.0,2.0,-1.0,-11.0,-5.0,-13.0,-2.0
1706276878.2986345,-6.0,24.0,3.0,6.0,15.0,7.0,-4.0,3.0
1706276878.3086114,36.0,2.0,1.0,-5.0,-8.0,-13.0,13.0,-10.0
1706276878.3086114,-4.0,-3.0,-1.0,3.0,8.0,9.0,-10.0,-10.0
1706276878.3185897,-13.0,-5.0,-4.0,-6.0,-6.0,-5.0,-11.0,-18.0
1706276878.3185897,8.0,-5.0,-5.0,-8.0,-10.0,4.0,12.0,12.0
1706276878.3382907,-20.0,-14.0,-3.0,0.0,3.0,-12.0,-17.0,-11.0
1706276878.3382907,6.0,10.0,1.0,5.0,9.0,4.0,6.0,6.0
1706276878.3382907,-4.0,-17.0,5.0,4.0,1.0,3.0,1.0,9.0
1706276878.3382907,0.0,1.0,-13.0,-11.0,-6.0,-2.0,3.0,1.0
1706276878.3585963,9.0,29.0,2.0,-3.0,-3.0,6.0,5.0,-2.0
1706276878.3585963,-13.0,-29.0,0.0,-4.0,-7.0,-7.0,-10.0,-1.0
1706276878.3585963,-13.0,-8.0,0.0,-8.0,-6.0,-8.0,4.0,-5.0
1706276878.3585963,12.0,10.0,11.0,10.0,-1.0,2.0,1.0,10.0
1706276878.368639,0.0,7.0,1.0,3.0,5.0,6.0,-8.0,-6.0
1706276878.368639,2.0,5.0,1.0,-8.0,-5.0,-8.0,2.0,7.0
1706276878.3786612,-5.0,3.0,-10.0,-4.0,2.0,1.0,-4.0,-4.0
1706276878.3786612,12.0,9.0,6.0,-6.0,-5.0,0.0,4.0,0.0
1706276878.4086568,-6.0,-13.0,-12.0,1.0,2.0,-8.0,-1.0,-1.0
1706276878.4086568,-20.0,-30.0,-2.0,-6.0,-8.0,-2.0,-4.0,-4.0
1706276878.4086568,17.0,35.0,12.0,17.0,19.0,10.0,10.0,1.0
1706276878.4086568,-7.0,-25.0,11.0,6.0,10.0,6.0,4.0,-1.0
1706276878.4186914,3.0,22.0,2.0,-5.0,-3.0,-4.0,-5.0,-4.0
1706276878.4186914,-1.0,2.0,-12.0,-13.0,-15.0,-14.0,-5.0,-1.0
1706276878.4186914,0.0,2.0,-7.0,-6.0,-13.0,-6.0,-7.0,-1.0
1706276878.4186914,-1.0,-1.0,21.0,13.0,14.0,7.0,4.0,1.0
1706276878.4289892,-12.0,-21.0,-6.0,-1.0,-5.0,-9.0,-7.0,-7.0
1706276878.4289892,-1.0,-2.0,2.0,4.0,6.0,9.0,6.0,4.0
1706276878.4389732,9.0,24.0,6.0,4.0,1.0,-1.0,0.0,2.0
1706276878.4389732,-7.0,-4.0,-14.0,-4.0,-5.0,-4.0,-2.0,-5.0
1706276878.4586573,1.0,9.0,13.0,0.0,-2.0,5.0,2.0,1.0
1706276878.4586573,0.0,4.0,-8.0,-36.0,-15.0,-5.0,-5.0,2.0
1706276878.4586573,-3.0,-11.0,-13.0,1.0,-12.0,-8.0,-3.0,-2.0
1706276878.4586573,-2.0,-10.0,-8.0,8.0,8.0,5.0,5.0,0.0
1706276878.4886591,-3.0,6.0,25.0,21.0,-8.0,-1.0,-4.0,-5.0
1706276878.4886591,5.0,11.0,-19.0,10.0,28.0,1.0,1.0,2.0
1706276878.4886591,-3.0,-11.0,3.0,-3.0,-3.0,7.0,2.0,4.0
1706276878.4886591,3.0,11.0,-11.0,-37.0,-27.0,-14.0,-9.0,-7.0
1706276878.4886591,-6.0,-17.0,-19.0,-22.0,-13.0,-5.0,-4.0,-2.0
1706276878.4886591,4.0,16.0,13.0,35.0,24.0,10.0,3.0,4.0
1706276878.508656,-14.0,-32.0,-12.0,-12.0,-11.0,-1.0,-1.0,-5.0
1706276878.508656,2.0,5.0,49.0,33.0,22.0,5.0,3.0,3.0
1706276878.5189552,-10.0,-16.0,-70.0,-41.0,-26.0,-12.0,-9.0,-8.0
1706276878.5189552,4.0,17.0,40.0,-2.0,-13.0,-3.0,-1.0,1.0
1706276878.5189552,-8.0,-24.0,5.0,9.0,18.0,3.0,-2.0,-2.0
1706276878.5189552,4.0,7.0,-2.0,-25.0,-9.0,-1.0,1.0,2.0
1706276878.538996,-2.0,-6.0,20.0,8.0,-3.0,1.0,2.0,2.0
1706276878.538996,-8.0,-20.0,-32.0,-5.0,-7.0,-5.0,-3.0,-3.0
1706276878.538996,1.0,4.0,-40.0,0.0,-2.0,0.0,1.0,0.0
1706276878.538996,2.0,0.0,24.0,-9.0,1.0,1.0,2.0,1.0
1706276878.5489712,4.0,15.0,10.0,-6.0,3.0,-1.0,-1.0,1.0
1706276878.5489712,0.0,5.0,-14.0,-2.0,-10.0,2.0,2.0,-1.0
1706276878.5686562,5.0,12.0,48.0,10.0,22.0,7.0,5.0,5.0
1706276878.5686562,-16.0,-32.0,-50.0,-29.0,-17.0,-12.0,-11.0,-13.0
1706276878.578896,6.0,12.0,13.0,-8.0,-12.0,-5.0,-2.0,3.0
1706276878.578896,-16.0,-34.0,-46.0,8.0,-6.0,-9.0,-7.0,-9.0
1706276878.578896,1.0,13.0,-1.0,19.0,-12.0,-5.0,-3.0,-2.0
1706276878.578896,-6.0,-16.0,18.0,21.0,-1.0,-2.0,1.0,-1.0
1706276878.5989695,9.0,21.0,26.0,-45.0,-12.0,4.0,4.0,5.0
1706276878.5989695,-5.0,-11.0,-11.0,-26.0,17.0,5.0,-1.0,-2.0
1706276878.5989695,3.0,7.0,1.0,-14.0,-10.0,-5.0,-1.0,-1.0
1706276878.5989695,8.0,17.0,-31.0,-31.0,-11.0,-6.0,-3.0,-1.0
1706276878.6088822,-23.0,-46.0,1.0,6.0,-11.0,-12.0,-11.0,-15.0
1706276878.6088822,3.0,7.0,30.0,65.0,-2.0,0.0,2.0,3.0
1706276878.6486564,3.0,6.0,-24.0,-39.0,0.0,-1.0,-1.0,-1.0
1706276878.6486564,11.0,17.0,0.0,-35.0,-14.0,-1.0,2.0,7.0
1706276878.6486564,12.0,8.0,-42.0,47.0,44.0,25.0,17.0,13.0
1706276878.6486564,-4.0,1.0,7.0,-18.0,-10.0,-3.0,-5.0,-5.0
1706276878.6486564,-3.0,13.0,69.0,67.0,20.0,-9.0,-10.0,-9.0
1706276878.6486564,-6.0,-13.0,-68.0,7.0,3.0,0.0,0.0,-1.0
1706276878.6786568,-5.0,-3.0,7.0,-55.0,-16.0,-9.0,-6.0,-5.0
1706276878.6786568,4.0,2.0,16.0,-14.0,-8.0,-1.0,-2.0,-1.0
1706276878.6786568,-1.0,-1.0,-34.0,-24.0,-11.0,-2.0,-2.0,-1.0
1706276878.6786568,-2.0,-3.0,-7.0,19.0,-2.0,-1.0,-5.0,-3.0
1706276878.6786568,7.0,22.0,37.0,18.0,3.0,0.0,2.0,0.0
1706276878.6786568,-3.0,-10.0,12.0,-13.0,-5.0,-1.0,1.0,0.0
1706276878.6786568,-22.0,-28.0,6.0,11.0,1.0,-10.0,-18.0,-17.0
1706276878.6786568,4.0,17.0,15.0,-40.0,-7.0,-6.0,-1.0,1.0
1706276878.6989536,2.0,-5.0,42.0,24.0,8.0,4.0,-1.0,-1.0
1706276878.6989536,-2.0,-1.0,-22.0,-42.0,-11.0,-7.0,-5.0,-5.0
1706276878.6989536,4.0,0.0,16.0,-8.0,-6.0,2.0,6.0,9.0
1706276878.6989536,-16.0,-6.0,-25.0,33.0,14.0,6.0,-4.0,-10.0
1706276878.718993,-3.0,-27.0,15.0,-6.0,-3.0,-10.0,-3.0,-1.0
1706276878.718993,3.0,42.0,50.0,12.0,-4.0,-1.0,-5.0,-4.0
1706276878.718993,-12.0,-14.0,-13.0,-10.0,-5.0,-6.0,0.0,-3.0
1706276878.718993,1.0,-13.0,2.0,17.0,-3.0,-1.0,0.0,4.0
1706276878.728659,-1.0,2.0,4.0,-21.0,-5.0,-3.0,3.0,5.0
1706276878.728659,7.0,5.0,4.0,40.0,21.0,8.0,5.0,2.0
1706276878.7506185,-3.0,-8.0,-38.0,-20.0,-1.0,5.0,5.0,3.0
1706276878.7506185,-1.0,-39.0,2.0,7.0,-4.0,-5.0,4.0,11.0
1706276878.759883,6.0,20.0,-36.0,24.0,18.0,11.0,1.0,-1.0
1706276878.759883,25.0,31.0,55.0,2.0,-6.0,-3.0,2.0,14.0
1706276878.7608812,-13.0,-28.0,8.0,11.0,19.0,10.0,5.0,-9.0
1706276878.7608812,-3.0,20.0,-14.0,-7.0,-5.0,-4.0,-1.0,-3.0
1706276878.7810657,-4.0,8.0,13.0,14.0,3.0,-4.0,-2.0,-3.0
1706276878.7810657,30.0,40.0,27.0,5.0,8.0,0.0,-8.0,-4.0
1706276878.791065,-3.0,-37.0,-19.0,-16.0,-6.0,-1.0,7.0,22.0
1706276878.791065,20.0,20.0,12.0,17.0,14.0,6.0,6.0,8.0
1706276878.791065,16.0,32.0,9.0,8.0,-1.0,-4.0,1.0,12.0
1706276878.791065,-10.0,32.0,13.0,9.0,21.0,16.0,4.0,-4.0
1706276878.801441,-22.0,-34.0,-79.0,-19.0,-4.0,-6.0,-8.0,-9.0
1706276878.801441,0.0,-16.0,-17.0,-6.0,-15.0,-11.0,-10.0,-13.0
1706276878.8114758,-1.0,-3.0,-32.0,-25.0,-11.0,-12.0,0.0,17.0
1706276878.8114758,-20.0,-55.0,-39.0,-5.0,-11.0,-2.0,0.0,-11.0
1706276878.8210661,15.0,32.0,5.0,3.0,10.0,5.0,-1.0,4.0
1706276878.8210661,-1.0,14.0,23.0,7.0,5.0,-8.0,-9.0,5.0
1706276878.8413491,21.0,27.0,-7.0,10.0,9.0,32.0,8.0,-25.0
1706276878.8413491,-6.0,-21.0,-18.0,-17.0,-25.0,-13.0,-1.0,16.0
1706276878.8510656,2.0,40.0,15.0,-9.0,-9.0,-9.0,-3.0,-6.0
1706276878.8510656,-5.0,-14.0,5.0,6.0,11.0,24.0,7.0,-10.0
1706276878.8510656,1.0,-17.0,-7.0,9.0,-2.0,-9.0,-12.0,-1.0
1706276878.8510656,-4.0,-6.0,-9.0,-5.0,2.0,1.0,18.0,19.0
1706276878.8611147,5.0,-1.0,16.0,1.0,-9.0,-16.0,-17.0,-22.0
1706276878.8611147,-21.0,-20.0,2.0,-2.0,-6.0,-1.0,-7.0,-9.0
1706276878.871265,-7.0,-9.0,0.0,-2.0,-6.0,-11.0,-6.0,-11.0
1706276878.871265,-13.0,-17.0,-23.0,-3.0,6.0,-13.0,-10.0,-21.0
1706276878.8812773,4.0,8.0,16.0,6.0,4.0,10.0,10.0,23.0
1706276878.8812773,12.0,2.0,-6.0,-5.0,-9.0,-13.0,2.0,9.0
1706276878.911068,-10.0,-21.0,0.0,9.0,13.0,24.0,8.0,12.0
1706276878.911068,-12.0,-3.0,-6.0,1.0,9.0,17.0,6.0,3.0
1706276878.911068,-21.0,-2.0,14.0,0.0,-11.0,-30.0,-47.0,-79.0
1706276878.911068,27.0,24.0,18.0,10.0,11.0,14.0,3.0,9.0
1706276878.9211144,-15.0,-6.0,-10.0,-2.0,-1.0,-10.0,-4.0,0.0
1706276878.9211144,-2.0,-8.0,-13.0,-8.0,-14.0,-20.0,-9.0,7.0
1706276878.9211144,1.0,-6.0,-10.0,-5.0,0.0,4.0,10.0,17.0
1706276878.9211144,1.0,-5.0,0.0,-7.0,-12.0,-9.0,-4.0,-4.0
1706276878.931371,-9.0,1.0,-5.0,10.0,9.0,4.0,-1.0,-9.0
1706276878.931371,-7.0,-7.0,-7.0,-8.0,-1.0,-3.0,-19.0,-15.0
1706276878.9413047,6.0,-3.0,10.0,5.0,9.0,14.0,25.0,16.0
1706276878.9413047,-23.0,-4.0,4.0,-6.0,-4.0,-17.0,-14.0,-14.0
1706276878.961067,8.0,8.0,-4.0,-5.0,-8.0,-10.0,0.0,7.0
1706276878.961067,-3.0,-5.0,1.0,5.0,3.0,7.0,6.0,-5.0
1706276878.961067,24.0,26.0,-1.0,1.0,0.0,13.0,3.0,16.0
1706276878.961067,-9.0,-1.0,20.0,2.0,2.0,-5.0,-4.0,-1.0
1706276878.9815035,-17.0,-20.0,-20.0,-6.0,1.0,-4.0,1.0,-5.0
1706276878.9815035,-1.0,-8.0,-2.0,7.0,2.0,6.0,-4.0,-6.0
1706276878.9815035,8.0,13.0,-9.0,-9.0,-5.0,-2.0,3.0,6.0
1706276878.9815035,3.0,20.0,-6.0,-1.0,-2.0,5.0,8.0,4.0
1706276878.9914262,16.0,29.0,-2.0,-6.0,3.0,2.0,-3.0,-5.0
1706276878.9914262,-12.0,-34.0,-1.0,2.0,-6.0,-5.0,0.0,-3.0
1706276879.001386,-14.0,-23.0,15.0,5.0,-2.0,-2.0,-2.0,1.0
1706276879.001386,-6.0,-4.0,7.0,8.0,9.0,8.0,-2.0,-1.0
1706276879.0210655,-4.0,-4.0,-9.0,-11.0,-11.0,-11.0,-12.0,-6.0
1706276879.0210655,2.0,8.0,0.0,3.0,2.0,6.0,12.0,5.0
1706276879.0210655,1.0,2.0,6.0,5.0,-1.0,-3.0,-6.0,0.0
1706276879.0210655,-12.0,-29.0,-5.0,-5.0,1.0,3.0,3.0,-2.0
1706276879.0414743,-1.0,7.0,8.0,10.0,-1.0,-4.0,-3.0,-7.0
1706276879.0414743,7.0,16.0,-5.0,-2.0,7.0,5.0,1.0,3.0
1706276879.0414743,7.0,1.0,7.0,-3.0,-4.0,1.0,7.0,3.0
1706276879.0414743,14.0,23.0,-15.0,-8.0,0.0,-2.0,1.0,3.0
1706276879.0514417,-25.0,-39.0,8.0,9.0,0.0,-8.0,-6.0,-7.0
1706276879.0514417,-8.0,-18.0,0.0,4.0,6.0,11.0,7.0,0.0
1706276879.0613766,5.0,4.0,6.0,9.0,11.0,8.0,4.0,7.0
1706276879.0613766,3.0,-4.0,-11.0,-13.0,0.0,0.0,1.0,1.0
1706276879.0810647,-6.0,-13.0,-12.0,-2.0,-8.0,-12.0,-7.0,-6.0
1706276879.0810647,4.0,4.0,8.0,1.0,-5.0,-2.0,-1.0,1.0
1706276879.0810647,7.0,25.0,-3.0,-11.0,-7.0,-3.0,-4.0,-2.0
1706276879.0810647,2.0,9.0,3.0,11.0,2.0,0.0,3.0,-1.0
1706276879.101522,-2.0,-5.0,-13.0,-21.0,-13.0,-5.0,-2.0,-1.0
1706276879.101522,2.0,-1.0,4.0,-8.0,0.0,6.0,3.0,1.0
1706276879.101522,-6.0,-12.0,21.0,34.0,5.0,1.0,-1.0,-3.0
1706276879.101522,-1.0,8.0,-14.0,-18.0,2.0,-2.0,-1.0,-3.0
1706276879.121065,3.0,9.0,0.0,-20.0,-16.0,0.0,1.0,3.0
1706276879.121065,2.0,5.0,-6.0,21.0,17.0,-1.0,-3.0,-2.0
1706276879.121065,-10.0,-35.0,-9.0,-31.0,-12.0,3.0,4.0,1.0
1706276879.121065,-19.0,-38.0,-10.0,5.0,-27.0,-11.0,-9.0,-9.0
1706276879.1413193,17.0,38.0,32.0,56.0,64.0,32.0,16.0,11.0
1706276879.1413193,-1.0,-1.0,-42.0,-47.0,-7.0,-9.0,-8.0,-6.0
1706276879.1413193,-5.0,-2.0,-7.0,15.0,-22.0,-15.0,-10.0,-8.0
1706276879.1413193,0.0,-3.0,42.0,42.0,45.0,17.0,6.0,5.0
1706276879.161405,-3.0,-24.0,-16.0,-35.0,-24.0,-6.0,0.0,3.0
1706276879.161405,2.0,20.0,-22.0,-14.0,-21.0,-15.0,-10.0,-7.0
1706276879.161405,12.0,30.0,-6.0,-16.0,-15.0,-12.0,-6.0,-2.0
1706276879.161405,-2.0,-2.0,-13.0,-25.0,-25.0,-11.0,-8.0,-4.0
1706276879.1712663,8.0,23.0,10.0,26.0,9.0,1.0,-1.0,0.0
1706276879.1712663,-3.0,-7.0,4.0,-7.0,-4.0,-2.0,0.0,0.0
1706276879.2010636,-12.0,-36.0,-8.0,-19.0,7.0,4.0,1.0,0.0
1706276879.2010636,1.0,8.0,14.0,7.0,-17.0,-8.0,-3.0,-3.0
1706276879.2010636,-2.0,-6.0,-6.0,-15.0,0.0,0.0,1.0,-2.0
1706276879.2010636,-13.0,-26.0,1.0,1.0,-11.0,-8.0,-6.0,-7.0
1706276879.2010636,9.0,21.0,11.0,-28.0,-17.0,0.0,3.0,5.0
1706276879.2010636,2.0,10.0,24.0,95.0,62.0,14.0,3.0,2.0
1706276879.2214417,-1.0,0.0,-35.0,-88.0,-38.0,-20.0,-8.0,-5.0
1706276879.2214417,0.0,-8.0,13.0,67.0,21.0,8.0,6.0,6.0
1706276879.2214417,4.0,10.0,-11.0,-22.0,-5.0,0.0,1.0,0.0
1706276879.2214417,4.0,4.0,0.0,-15.0,-7.0,-6.0,-1.0,-3.0
1706276879.2410655,7.0,10.0,16.0,29.0,18.0,12.0,5.0,6.0
1706276879.2410655,-7.0,-15.0,-20.0,-29.0,-11.0,-5.0,-4.0,-2.0
1706276879.2410655,-2.0,-1.0,-9.0,-8.0,-6.0,-7.0,-4.0,-3.0
1706276879.2410655,-14.0,-27.0,-30.0,-18.0,-19.0,-9.0,-5.0,-7.0
1706276879.2614036,-4.0,-11.0,-6.0,-27.0,-14.0,2.0,2.0,0.0
1706276879.2614036,2.0,4.0,1.0,26.0,16.0,6.0,0.0,1.0
1706276879.2614036,9.0,19.0,21.0,0.0,15.0,6.0,2.0,4.0
1706276879.2614036,-5.0,-16.0,-18.0,-19.0,8.0,1.0,-1.0,-2.0
1706276879.3071103,-12.0,-29.0,25.0,76.0,-1.0,-10.0,-6.0,-7.0
1706276879.3071103,17.0,36.0,2.0,-24.0,0.0,2.0,4.0,6.0
1706276879.3071103,-7.0,-7.0,2.0,-7.0,-9.0,-3.0,1.0,-3.0
1706276879.3071103,1.0,10.0,27.0,-1.0,7.0,3.0,1.0,0.0
1706276879.3071103,-9.0,-20.0,-15.0,-6.0,-2.0,1.0,1.0,-3.0
1706276879.3071103,-6.0,-6.0,-4.0,-20.0,-10.0,-7.0,-6.0,-5.0
1706276879.3071103,9.0,20.0,-11.0,6.0,8.0,0.0,0.0,0.0
1706276879.3071103,-3.0,1.0,1.0,-18.0,-15.0,-8.0,-6.0,-4.0
1706276879.3173852,-5.0,-16.0,-6.0,20.0,6.0,4.0,1.0,-1.0
1706276879.3173852,2.0,7.0,15.0,48.0,12.0,1.0,1.0,-1.0
1706276879.3173852,-7.0,-14.0,-21.0,-3.0,2.0,0.0,-4.0,-2.0
1706276879.3173852,-3.0,2.0,-16.0,-47.0,-31.0,-3.0,-2.0,-3.0
1706276879.3571134,0.0,12.0,41.0,13.0,14.0,-2.0,-2.0,-2.0
1706276879.3571134,1.0,2.0,-19.0,0.0,-5.0,-6.0,-3.0,-1.0
1706276879.3571134,-4.0,-6.0,20.0,26.0,6.0,0.0,3.0,1.0
1706276879.3571134,4.0,4.0,-9.0,-4.0,-9.0,3.0,2.0,1.0
1706276879.3571134,-6.0,-9.0,-20.0,-33.0,-16.0,-6.0,-3.0,-3.0
1706276879.3571134,4.0,10.0,25.0,-16.0,-4.0,0.0,1.0,1.0
1706276879.3671458,-5.0,-8.0,-9.0,20.0,17.0,2.0,-1.0,-1.0
1706276879.3671458,1.0,1.0,-14.0,-9.0,-3.0,0.0,0.0,1.0
1706276879.3775682,1.0,5.0,-15.0,-11.0,-2.0,-6.0,-3.0,-2.0
1706276879.3775682,3.0,7.0,9.0,-1.0,-5.0,5.0,3.0,3.0
1706276879.3775682,-3.0,-9.0,7.0,-5.0,-4.0,-3.0,-3.0,-3.0
1706276879.3775682,-1.0,-1.0,-2.0,15.0,8.0,0.0,1.0,1.0
1706276879.4071114,-4.0,-12.0,-10.0,-26.0,-11.0,-6.0,-4.0,-3.0
1706276879.4071114,-2.0,-4.0,-4.0,2.0,-11.0,-6.0,-3.0,-3.0
1706276879.4071114,-3.0,-1.0,-11.0,6.0,5.0,5.0,1.0,-1.0
1706276879.4071114,0.0,7.0,11.0,-6.0,0.0,-3.0,-1.0,-2.0
1706276879.4174523,2.0,5.0,3.0,24.0,3.0,1.0,-1.0,1.0
1706276879.4174523,-3.0,-10.0,-5.0,-20.0,-13.0,-6.0,-3.0,-3.0
1706276879.4271548,-1.0,0.0,8.0,17.0,13.0,6.0,2.0,1.0
1706276879.4271548,0.0,2.0,0.0,-1.0,0.0,-2.0,-1.0,-1.0
1706276879.4376159,-3.0,-6.0,-5.0,-8.0,-4.0,-8.0,-7.0,-4.0
1706276879.4376159,1.0,0.0,2.0,10.0,14.0,9.0,4.0,1.0
1706276879.4376159,-3.0,-8.0,-9.0,-19.0,-14.0,-8.0,0.0,-1.0
1706276879.4376159,0.0,3.0,7.0,14.0,9.0,6.0,8.0,18.0
1706276879.4676511,-17.0,-1.0,-5.0,4.0,-2.0,-7.0,-8.0,-21.0
1706276879.4676511,-7.0,-18.0,-3.0,-17.0,-7.0,-4.0,-7.0,-7.0
1706276879.4676511,14.0,29.0,9.0,13.0,2.0,1.0,1.0,10.0
1706276879.4676511,8.0,6.0,0.0,-3.0,-1.0,1.0,1.0,-8.0
1706276879.4777396,-4.0,-6.0,-2.0,1.0,2.0,0.0,-2.0,1.0
1706276879.4777396,-4.0,-6.0,0.0,-1.0,-1.0,-4.0,-3.0,-3.0
1706276879.4876544,-10.0,-6.0,-1.0,0.0,-1.0,0.0,-2.0,-6.0
1706276879.4876544,-7.0,-12.0,-9.0,-4.0,-3.0,-3.0,-2.0,-8.0
1706276879.49805,3.0,3.0,0.0,-3.0,0.0,-1.0,-2.0,0.0
1706276879.49805,3.0,7.0,6.0,0.0,-3.0,-1.0,0.0,-3.0
1706276879.49805,1.0,-12.0,-7.0,2.0,1.0,1.0,-1.0,2.0
1706276879.49805,-4.0,2.0,-2.0,-5.0,-7.0,-5.0,-5.0,-3.0
1706276879.5176532,4.0,16.0,5.0,5.0,2.0,3.0,6.0,3.0
1706276879.5176532,-1.0,21.0,10.0,-2.0,-2.0,-3.0,4.0,10.0
1706276879.5176532,2.0,-34.0,-11.0,10.0,13.0,8.0,-8.0,-6.0
1706276879.5176532,-10.0,14.0,-4.0,-8.0,-5.0,-4.0,4.0,2.0
1706276879.5376525,27.0,10.0,-9.0,3.0,1.0,1.0,3.0,29.0
1706276879.5376525,-14.0,-6.0,-7.0,-6.0,-5.0,-7.0,-20.0,-46.0
1706276879.5376525,6.0,14.0,7.0,-4.0,-10.0,-9.0,-6.0,1.0
1706276879.5376525,-9.0,-17.0,-2.0,-1.0,-3.0,1.0,-13.0,-26.0
1706276879.5580804,-15.0,-18.0,-5.0,-1.0,3.0,3.0,3.0,-5.0
1706276879.5580804,11.0,10.0,3.0,3.0,4.0,1.0,4.0,15.0
1706276879.5580804,-8.0,-4.0,-3.0,2.0,0.0,-2.0,6.0,-4.0
1706276879.5580804,1.0,-8.0,-5.0,-4.0,-1.0,-2.0,-2.0,-5.0
1706276879.5776865,5.0,2.0,2.0,-4.0,-6.0,-1.0,-1.0,1.0
1706276879.5776865,-4.0,-6.0,-3.0,-5.0,-6.0,-6.0,3.0,8.0
1706276879.5776865,-18.0,-10.0,-6.0,-9.0,-13.0,-7.0,-10.0,-13.0
1706276879.5776865,21.0,11.0,6.0,5.0,4.0,7.0,6.0,15.0
1706276879.5978556,-7.0,2.0,4.0,7.0,15.0,5.0,5.0,-1.0
1706276879.5978556,15.0,-2.0,-6.0,1.0,11.0,5.0,3.0,21.0
1706276879.6076581,-4.0,-2.0,-4.0,-10.0,-20.0,-14.0,-2.0,-1.0
1706276879.6076581,-20.0,-15.0,-8.0,-6.0,-22.0,-14.0,-6.0,0.0
1706276879.6179512,9.0,10.0,10.0,5.0,8.0,18.0,11.0,13.0
1706276879.6179512,3.0,-1.0,5.0,10.0,32.0,17.0,0.0,8.0
1706276879.6179512,9.0,4.0,2.0,8.0,22.0,7.0,5.0,2.0
1706276879.6179512,10.0,2.0,-1.0,-1.0,-8.0,-7.0,-4.0,-3.0
1706276879.6476557,-3.0,-4.0,-3.0,-5.0,-9.0,-10.0,-4.0,-1.0
1706276879.6476557,-8.0,-5.0,-6.0,-9.0,-12.0,-7.0,0.0,-2.0
1706276879.6476557,-10.0,-3.0,-4.0,-10.0,-19.0,-9.0,-4.0,-4.0
1706276879.6476557,1.0,2.0,1.0,-6.0,-18.0,-1.0,2.0,6.0
1706276879.65765,-2.0,0.0,2.0,8.0,14.0,13.0,3.0,-7.0
1706276879.65765,-1.0,-3.0,1.0,2.0,7.0,-1.0,1.0,0.0
1706276879.65765,-1.0,-2.0,-1.0,6.0,20.0,10.0,-1.0,-3.0
1706276879.65765,-3.0,-5.0,-5.0,-2.0,6.0,-4.0,-7.0,-6.0
1706276879.6780684,1.0,4.0,-8.0,-7.0,-20.0,-15.0,-6.0,-4.0
1706276879.6780684,-10.0,-10.0,3.0,3.0,-2.0,-1.0,-1.0,-9.0
1706276879.6780684,0.0,-5.0,-2.0,-3.0,3.0,3.0,3.0,6.0
1706276879.6780684,-1.0,2.0,2.0,3.0,2.0,-1.0,1.0,2.0
1706276879.6976838,-2.0,1.0,-2.0,-3.0,-1.0,-1.0,-3.0,-7.0
1706276879.6976838,-1.0,3.0,-5.0,-3.0,-7.0,-3.0,-2.0,0.0
1706276879.6976838,-1.0,2.0,3.0,0.0,-6.0,2.0,3.0,-1.0
1706276879.6976838,4.0,6.0,-1.0,4.0,10.0,6.0,1.0,1.0
1706276879.7179585,-2.0,-4.0,-6.0,-6.0,-8.0,-12.0,-7.0,-6.0
1706276879.7179585,-2.0,17.0,-13.0,-11.0,-14.0,-8.0,-7.0,-13.0
1706276879.7179585,-6.0,-29.0,11.0,-17.0,-9.0,1.0,5.0,9.0
1706276879.7179585,-1.0,-6.0,-3.0,10.0,7.0,1.0,-3.0,-2.0
1706276879.7376506,-6.0,-5.0,8.0,11.0,9.0,4.0,3.0,1.0
1706276879.7376506,0.0,-2.0,-3.0,5.0,1.0,0.0,1.0,2.0
1706276879.7376506,-6.0,-5.0,0.0,6.0,4.0,0.0,-3.0,-5.0
1706276879.7376506,20.0,42.0,-18.0,-22.0,-10.0,-7.0,-3.0,4.0
1706276879.7579513,-16.0,-27.0,3.0,-4.0,-4.0,0.0,-2.0,-6.0
1706276879.7579513,-8.0,-23.0,-2.0,-4.0,-7.0,4.0,4.0,-1.0
1706276879.7579513,-1.0,4.0,8.0,10.0,11.0,4.0,0.0,-1.0
1706276879.7579513,-10.0,-21.0,7.0,8.0,8.0,4.0,2.0,-1.0
1706276879.777891,6.0,20.0,-3.0,0.0,-4.0,-2.0,-3.0,-3.0
1706276879.777891,6.0,10.0,1.0,-3.0,-4.0,-6.0,-3.0,1.0
1706276879.7876573,6.0,13.0,-5.0,4.0,-4.0,-5.0,-3.0,0.0
1706276879.7876573,-10.0,-27.0,8.0,2.0,4.0,3.0,1.0,-1.0
1706276879.820071,-16.0,-14.0,1.0,2.0,1.0,3.0,1.0,-4.0
1706276879.820071,-5.0,-15.0,2.0,-1.0,-2.0,-2.0,0.0,0.0
1706276879.820071,1.0,8.0,-2.0,-1.0,-3.0,-2.0,-1.0,-2.0
1706276879.820071,6.0,16.0,-11.0,-3.0,3.0,0.0,0.0,1.0
1706276879.8241017,-9.0,-25.0,2.0,-9.0,-2.0,-4.0,-5.0,-6.0
1706276879.8241017,7.0,13.0,-5.0,0.0,-6.0,-3.0,0.0,1.0
1706276879.8260806,4.0,21.0,-19.0,-11.0,-9.0,-9.0,-8.0,-6.0
1706276879.8260806,15.0,7.0,-4.0,-6.0,-4.0,0.0,1.0,4.0
1706276879.8302586,-13.0,-29.0,7.0,1.0,2.0,-3.0,-2.0,-1.0
1706276879.8302586,-40.0,-43.0,16.0,-44.0,-37.0,1.0,4.0,-5.0
1706276879.8406758,4.0,11.0,-4.0,71.0,39.0,5.0,0.0,-2.0
1706276879.8406758,1.0,6.0,16.0,36.0,36.0,9.0,2.0,2.0
1706276879.8606899,6.0,5.0,-10.0,0.0,-5.0,-1.0,1.0,2.0
1706276879.8606899,4.0,-4.0,0.0,-5.0,7.0,-2.0,-3.0,-4.0
1706276879.8606899,-11.0,-28.0,3.0,-13.0,-20.0,-7.0,0.0,0.0
1706276879.8606899,-7.0,1.0,13.0,-11.0,-16.0,0.0,2.0,-1.0
1706276879.8809376,8.0,11.0,-8.0,3.0,-5.0,-4.0,-5.0,0.0
1706276879.8809376,-1.0,-14.0,-5.0,35.0,28.0,3.0,-1.0,0.0
1706276879.8809376,-10.0,-27.0,-3.0,-9.0,2.0,4.0,2.0,2.0
1706276879.8809376,-5.0,5.0,-5.0,-7.0,2.0,-2.0,-3.0,-5.0
1706276879.9006937,21.0,42.0,-13.0,-27.0,-14.0,-7.0,-3.0,0.0
1706276879.9006937,-22.0,-57.0,-7.0,-21.0,-24.0,-11.0,-9.0,-10.0
1706276879.9006937,2.0,-6.0,16.0,2.0,-6.0,3.0,3.0,4.0
1706276879.9006937,0.0,2.0,-6.0,7.0,9.0,-2.0,-3.0,-3.0
1706276879.9306872,-1.0,7.0,-7.0,-43.0,-24.0,-3.0,1.0,2.0
1706276879.9306872,-11.0,4.0,5.0,27.0,1.0,-11.0,-8.0,-5.0
1706276879.9306872,-16.0,-40.0,-14.0,-20.0,-14.0,0.0,0.0,-3.0
1706276879.9306872,-13.0,-17.0,-9.0,-31.0,-28.0,-11.0,-7.0,-6.0
1706276879.9410293,4.0,4.0,10.0,99.0,76.0,24.0,10.0,7.0
1706276879.9410293,20.0,40.0,-13.0,-22.0,-26.0,-11.0,-4.0,4.0
1706276879.9410293,18.0,39.0,1.0,-48.0,-12.0,-9.0,-5.0,-2.0
1706276879.9410293,3.0,13.0,-34.0,29.0,-1.0,-6.0,-3.0,-2.0
1706276879.960689,-8.0,-24.0,32.0,6.0,1.0,1.0,1.0,-1.0
1706276879.960689,-7.0,-24.0,-35.0,-65.0,-17.0,-4.0,-5.0,-4.0
1706276879.960689,11.0,30.0,3.0,50.0,11.0,2.0,0.0,0.0
1706276879.960689,-1.0,3.0,12.0,-16.0,-20.0,-7.0,-3.0,-2.0
1706276879.9809675,20.0,53.0,-2.0,-13.0,-7.0,-8.0,-6.0,-3.0
1706276879.9809675,8.0,18.0,1.0,-8.0,-1.0,4.0,3.0,3.0
1706276879.9809675,3.0,1.0,-15.0,-17.0,-6.0,-3.0,-5.0,-1.0
1706276879.9809675,-11.0,-34.0,-7.0,-21.0,7.0,9.0,7.0,2.0
1706276880.0009725,-3.0,9.0,-22.0,12.0,-14.0,-10.0,-9.0,-8.0
1706276880.0009725,4.0,1.0,20.0,-4.0,6.0,3.0,5.0,6.0
1706276880.0009725,-12.0,-23.0,0.0,-36.0,-29.0,-6.0,-4.0,-5.0
1706276880.0009725,-3.0,-13.0,6.0,31.0,40.0,16.0,9.0,7.0
1706276880.0206902,4.0,6.0,3.0,-75.0,-30.0,-11.0,-6.0,-1.0
1706276880.0206902,-34.0,-40.0,-1.0,51.0,-31.0,-2.0,1.0,-10.0
1706276880.0206902,20.0,37.0,35.0,54.0,76.0,29.0,14.0,14.0
1706276880.0206902,-6.0,-4.0,8.0,-42.0,-16.0,-6.0,-3.0,-5.0
1706276880.0407457,-10.0,-21.0,-5.0,-55.0,-7.0,4.0,2.0,0.0
1706276880.0407457,18.0,34.0,5.0,26.0,21.0,2.0,0.0,3.0
1706276880.0407457,-9.0,-1.0,-24.0,34.0,-17.0,-15.0,-10.0,-12.0
1706276880.0407457,12.0,29.0,26.0,25.0,18.0,6.0,0.0,3.0
1706276880.0607245,0.0,-14.0,-41.0,4.0,7.0,1.0,0.0,1.0
1706276880.0607245,4.0,25.0,37.0,-19.0,-17.0,-4.0,-2.0,-2.0
1706276880.0607245,-1.0,-9.0,-83.0,-42.0,-24.0,-12.0,-12.0,-9.0
1706276880.0607245,22.0,25.0,76.0,63.0,0.0,5.0,7.0,12.0
1706276880.0806882,-15.0,-55.0,-38.0,-23.0,-26.0,-11.0,-3.0,-4.0
1706276880.0806882,16.0,29.0,-2.0,80.0,55.0,15.0,4.0,4.0
1706276880.0806882,-8.0,-34.0,-55.0,20.0,21.0,0.0,3.0,1.0
1706276880.0806882,2.0,8.0,-69.0,0.0,-6.0,-6.0,-3.0,-5.0
1706276880.090689,8.0,50.0,123.0,-30.0,-49.0,-7.0,-3.0,2.0
1706276880.090689,1.0,-35.0,-46.0,85.0,92.0,29.0,14.0,15.0
1706276880.100721,-3.0,-4.0,41.0,-41.0,-44.0,-16.0,-8.0,-1.0
1706276880.100721,-16.0,-63.0,-73.0,8.0,19.0,5.0,1.0,-2.0
1706276880.1207252,-1.0,42.0,9.0,-1.0,-1.0,1.0,-1.0,-6.0
1706276880.1207252,12.0,34.0,-26.0,-101.0,-45.0,-18.0,-10.0,-9.0
1706276880.1207252,3.0,47.0,90.0,43.0,21.0,13.0,9.0,6.0
1706276880.1207252,-15.0,-13.0,48.0,-51.0,-32.0,-13.0,-8.0,-7.0
1706276880.1406877,22.0,0.0,-30.0,33.0,17.0,7.0,9.0,13.0
1706276880.1406877,-50.0,-87.0,-52.0,-30.0,-26.0,-20.0,-20.0,-27.0
1706276880.1406877,5.0,19.0,7.0,-15.0,7.0,10.0,10.0,8.0
1706276880.1406877,-12.0,-21.0,6.0,-24.0,-23.0,-17.0,-12.0,-13.0
1706276880.1506896,21.0,17.0,-9.0,12.0,16.0,7.0,3.0,4.0
1706276880.1506896,1.0,8.0,65.0,46.0,14.0,5.0,2.0,3.0
1706276880.1607335,-2.0,-11.0,-67.0,-38.0,-20.0,-7.0,-2.0,4.0
1706276880.1607335,-11.0,-30.0,9.0,-2.0,2.0,3.0,-3.0,-8.0
1706276880.190687,-11.0,-13.0,-4.0,35.0,17.0,5.0,-1.0,-5.0
1706276880.190687,30.0,38.0,-21.0,-34.0,-14.0,-3.0,0.0,10.0
1706276880.190687,11.0,3.0,-9.0,0.0,-5.0,-5.0,-5.0,-3.0
1706276880.190687,2.0,41.0,27.0,2.0,1.0,3.0,4.0,15.0
1706276880.200725,-40.0,-113.0,-63.0,-4.0,-2.0,-8.0,-8.0,-31.0
1706276880.200725,37.0,95.0,51.0,6.0,3.0,6.0,6.0,11.0
1706276880.200725,-12.0,-22.0,7.0,-9.0,-5.0,-3.0,-3.0,-13.0
1706276880.200725,-10.0,-31.0,-56.0,-7.0,-4.0,-3.0,-17.0,-34.0
1706276880.2206903,9.0,35.0,23.0,12.0,5.0,0.0,-2.0,-28.0
1706276880.2206903,12.0,11.0,4.0,-10.0,-3.0,4.0,52.0,109.0
1706276880.2206903,-20.0,-23.0,21.0,-1.0,-6.0,-10.0,-44.0,-53.0
1706276880.2206903,15.0,-30.0,-10.0,-8.0,-6.0,-6.0,0.0,15.0
1706276880.250689,-46.0,15.0,11.0,10.0,6.0,5.0,5.0,-53.0
1706276880.250689,27.0,4.0,10.0,-1.0,-3.0,-2.0,-8.0,22.0
1706276880.250689,32.0,15.0,22.0,4.0,6.0,6.0,21.0,59.0
1706276880.250689,-16.0,5.0,-3.0,2.0,1.0,5.0,7.0,-25.0
1706276880.261029,-13.0,-1.0,-7.0,-8.0,-4.0,-1.0,35.0,64.0
1706276880.261029,16.0,-22.0,17.0,14.0,9.0,4.0,-10.0,2.0
1706276880.261029,-22.0,-12.0,1.0,-2.0,1.0,2.0,-12.0,-56.0
1706276880.261029,54.0,42.0,8.0,-4.0,-4.0,-3.0,-3.0,20.0
1706276880.2806942,-17.0,-9.0,-16.0,-1.0,0.0,-1.0,11.0,53.0
1706276880.2806942,-20.0,-2.0,-5.0,-12.0,-3.0,-1.0,-14.0,-105.0
1706276880.2806942,31.0,23.0,8.0,-4.0,-6.0,-1.0,10.0,61.0
1706276880.2806942,-11.0,13.0,29.0,11.0,3.0,6.0,10.0,-9.0
1706276880.300688,0.0,-42.0,-5.0,-1.0,-1.0,-5.0,-10.0,12.0
1706276880.300688,-21.0,-5.0,-17.0,-15.0,-10.0,-3.0,10.0,30.0
1706276880.300688,2.0,-19.0,-6.0,-4.0,-5.0,-4.0,-8.0,-44.0
1706276880.300688,-5.0,-10.0,-6.0,1.0,3.0,-2.0,8.0,28.0
1706276880.320979,16.0,1.0,5.0,3.0,-2.0,-5.0,-15.0,2.0
1706276880.320979,-25.0,8.0,7.0,-4.0,-3.0,-2.0,-18.0,-51.0
1706276880.320979,-6.0,-10.0,-1.0,-1.0,1.0,-1.0,9.0,8.0
1706276880.320979,-6.0,38.0,-1.0,-7.0,-11.0,-7.0,-5.0,-2.0
1706276880.341407,32.0,-11.0,-25.0,-6.0,-7.0,-6.0,-12.0,4.0
1706276880.341407,1.0,-39.0,-32.0,-18.0,-9.0,-5.0,-5.0,-11.0
1706276880.3726585,5.0,50.0,10.0,1.0,5.0,5.0,13.0,15.0
1706276880.3726585,-17.0,-18.0,2.0,-4.0,-2.0,-5.0,-11.0,-17.0
1706276880.3726585,1.0,14.0,-18.0,-17.0,-24.0,-10.0,-17.0,-29.0
1706276880.3726585,-9.0,-27.0,0.0,43.0,37.0,13.0,5.0,5.0
1706276880.3726585,-9.0,4.0,3.0,-2.0,-4.0,-5.0,-3.0,-2.0
1706276880.3726585,21.0,-8.0,-3.0,-7.0,-14.0,-6.0,-7.0,3.0
1706276880.3828826,5.0,17.0,17.0,-51.0,-20.0,-4.0,-3.0,-3.0
1706276880.3828826,-14.0,-5.0,-13.0,32.0,-5.0,-10.0,-9.0,-9.0
1706276880.3828826,-4.0,-7.0,-17.0,4.0,28.0,2.0,-1.0,2.0
1706276880.3828826,10.0,27.0,14.0,19.0,15.0,11.0,9.0,3.0
1706276880.392875,-8.0,-2.0,9.0,10.0,1.0,-3.0,-5.0,-5.0
1706276880.392875,-6.0,-8.0,0.0,-41.0,-42.0,-10.0,-8.0,-9.0
1706276880.4227428,-4.0,-7.0,0.0,-5.0,-10.0,-2.0,2.0,1.0
1706276880.4227428,-24.0,-60.0,-52.0,-19.0,-6.0,-8.0,-6.0,-7.0
1706276880.4227428,24.0,41.0,21.0,17.0,17.0,8.0,5.0,5.0
1706276880.4227428,2.0,22.0,8.0,-6.0,0.0,-9.0,-5.0,1.0
1706276880.4227428,-8.0,-12.0,7.0,6.0,-2.0,0.0,2.0,0.0
1706276880.4227428,-4.0,-17.0,-3.0,-19.0,-12.0,0.0,-1.0,-2.0
1706276880.4527464,4.0,-4.0,-5.0,-15.0,-6.0,-5.0,-4.0,-4.0
1706276880.4527464,-4.0,-17.0,20.0,52.0,55.0,21.0,11.0,7.0
1706276880.4527464,-1.0,15.0,13.0,12.0,3.0,0.0,0.0,0.0
1706276880.4527464,-1.0,11.0,4.0,6.0,16.0,5.0,3.0,-1.0
1706276880.4627445,6.0,-2.0,-21.0,27.0,-15.0,-11.0,-10.0,-12.0
1706276880.4627445,4.0,4.0,-19.0,-105.0,-37.0,-9.0,-4.0,0.0
1706276880.4627445,-19.0,-60.0,-13.0,31.0,-3.0,-1.0,-2.0,-3.0
1706276880.4627445,-7.0,32.0,16.0,-27.0,2.0,2.0,0.0,4.0
1706276880.4831638,-1.0,-9.0,-12.0,-51.0,-28.0,-4.0,-2.0,-3.0
1706276880.4831638,-14.0,-14.0,8.0,73.0,37.0,4.0,-1.0,-3.0
1706276880.4831638,-13.0,-32.0,-1.0,-43.0,-65.0,-14.0,-5.0,-4.0
1706276880.4831638,1.0,3.0,-2.0,-7.0,-27.0,-4.0,-1.0,-1.0
1706276880.5031865,9.0,21.0,50.0,94.0,56.0,22.0,9.0,9.0
1706276880.5031865,18.0,40.0,-20.0,8.0,-59.0,-22.0,-13.0,-9.0
1706276880.5031865,7.0,16.0,3.0,2.0,79.0,24.0,10.0,5.0
1706276880.5031865,-10.0,-4.0,-5.0,-71.0,-76.0,-23.0,-9.0,-5.0
1706276880.532745,-3.0,8.0,16.0,78.0,88.0,19.0,4.0,0.0
1706276880.532745,21.0,42.0,-2.0,-53.0,-52.0,-13.0,-7.0,-1.0
1706276880.532745,8.0,7.0,-14.0,-69.0,-42.0,-12.0,-5.0,-3.0
1706276880.532745,18.0,28.0,47.0,93.0,61.0,21.0,10.0,12.0
1706276880.5427775,-13.0,1.0,5.0,-3.0,20.0,3.0,-1.0,-3.0
1706276880.5427775,0.0,-9.0,-12.0,-74.0,-44.0,-11.0,0.0,1.0
1706276880.5427775,12.0,33.0,12.0,35.0,24.0,2.0,-1.0,2.0
1706276880.5427775,-6.0,-3.0,-17.0,-78.0,-28.0,-2.0,2.0,0.0
1706276880.563195,-1.0,-5.0,8.0,-23.0,-59.0,-13.0,-7.0,-5.0
1706276880.563195,-16.0,-42.0,-22.0,45.0,65.0,9.0,-1.0,-5.0
1706276880.563195,-14.0,-4.0,-21.0,-84.0,-14.0,-1.0,-5.0,-8.0
1706276880.563195,-5.0,-21.0,-32.0,-5.0,-10.0,-10.0,-9.0,-10.0
1706276880.582746,-19.0,-12.0,31.0,-2.0,-35.0,-10.0,-3.0,-2.0
1706276880.582746,-25.0,-51.0,-65.0,71.0,80.0,23.0,4.0,-8.0
1706276880.582746,2.0,18.0,20.0,-77.0,-100.0,-29.0,-12.0,-5.0
1706276880.582746,2.0,40.0,61.0,127.0,127.0,33.0,8.0,3.0
1706276880.60282,-1.0,6.0,-50.0,-128.0,-111.0,-26.0,-9.0,-8.0
1706276880.60282,14.0,3.0,86.0,-2.0,29.0,16.0,11.0,9.0
1706276880.61275,-15.0,-26.0,-34.0,71.0,26.0,1.0,-2.0,-6.0
1706276880.61275,-18.0,-20.0,13.0,-119.0,-117.0,-32.0,-13.0,-10.0
1706276880.6231785,6.0,-9.0,-22.0,20.0,64.0,22.0,12.0,5.0
1706276880.6231785,-7.0,-15.0,17.0,-12.0,-2.0,-1.0,-1.0,3.0
1706276880.6231785,23.0,44.0,35.0,111.0,71.0,25.0,9.0,7.0
1706276880.6231785,38.0,75.0,81.0,-57.0,-64.0,-3.0,7.0,16.0
1706276880.6527436,-23.0,-39.0,-80.0,16.0,52.0,3.0,-3.0,-9.0
1706276880.6527436,9.0,36.0,46.0,12.0,-26.0,-11.0,-7.0,-3.0
1706276880.6527436,6.0,5.0,-72.0,-32.0,3.0,-2.0,3.0,6.0
1706276880.6527436,-38.0,-84.0,-44.0,102.0,33.0,-1.0,-8.0,-15.0
1706276880.662778,8.0,-2.0,-9.0,-33.0,-14.0,1.0,0.0,4.0
1706276880.662778,21.0,34.0,48.0,14.0,-22.0,-3.0,1.0,5.0
1706276880.662778,-29.0,-15.0,17.0,-101.0,-65.0,-3.0,1.0,-4.0
1706276880.662778,-14.0,-21.0,15.0,123.0,85.0,15.0,2.0,-2.0
1706276880.6927452,-12.0,-7.0,40.0,10.0,-35.0,-16.0,-10.0,-7.0
1706276880.6927452,-21.0,-51.0,-84.0,-64.0,-28.0,-5.0,0.0,-1.0
1706276880.6927452,11.0,35.0,84.0,67.0,31.0,6.0,1.0,4.0
1706276880.6927452,14.0,25.0,-18.0,-62.0,-14.0,-3.0,2.0,5.0
1706276880.7027783,12.0,39.0,60.0,21.0,15.0,3.0,0.0,1.0
1706276880.7027783,-12.0,-34.0,-75.0,25.0,10.0,-2.0,-1.0,-2.0
1706276880.7027783,-9.0,-5.0,26.0,51.0,28.0,7.0,4.0,0.0
1706276880.7027783,1.0,-38.0,-88.0,-68.0,-26.0,-7.0,-1.0,0.0
1706276880.7231991,16.0,-1.0,90.0,77.0,29.0,9.0,6.0,7.0
1706276880.7231991,-17.0,-9.0,-46.0,4.0,-1.0,-7.0,-9.0,-13.0
1706276880.7231991,1.0,-23.0,-15.0,-24.0,-19.0,-5.0,-3.0,-1.0
1706276880.7231991,-4.0,-10.0,3.0,-5.0,1.0,-4.0,-6.0,-8.0
1706276880.7431445,11.0,-10.0,-14.0,-15.0,3.0,7.0,6.0,7.0
1706276880.7431445,-10.0,-57.0,-19.0,-49.0,-18.0,-3.0,-3.0,-4.0
1706276880.7431445,-8.0,-27.0,-1.0,36.0,7.0,-3.0,-2.0,-5.0
1706276880.7431445,5.0,40.0,5.0,0.0,3.0,5.0,6.0,3.0
1706276880.7627778,-24.0,-46.0,-94.0,-42.0,-10.0,-10.0,-9.0,-10.0
1706276880.7627778,-7.0,7.0,69.0,-16.0,-19.0,-5.0,-1.0,-3.0
1706276880.7627778,1.0,-23.0,-25.0,-10.0,4.0,-3.0,-1.0,1.0
1706276880.7627778,3.0,4.0,-27.0,-1.0,0.0,0.0,1.0,1.0
1706276880.7830627,-22.0,-28.0,-2.0,-8.0,-4.0,-1.0,-1.0,-3.0
1706276880.7830627,0.0,42.0,33.0,11.0,5.0,2.0,0.0,-1.0
1706276880.7927487,-5.0,-19.0,-9.0,-6.0,-11.0,-4.0,-2.0,-3.0
1706276880.7927487,11.0,8.0,3.0,-10.0,-1.0,-4.0,-1.0,0.0
1706276880.803016,-26.0,-36.0,-33.0,-4.0,-15.0,-12.0,-12.0,-16.0
1706276880.803016,12.0,37.0,23.0,-13.0,-6.0,0.0,-1.0,3.0
1706276880.803016,10.0,45.0,33.0,2.0,5.0,2.0,1.0,3.0
1706276880.803016,-16.0,-58.0,-31.0,-17.0,-8.0,-5.0,-6.0,-11.0
1706276880.8327427,7.0,-6.0,-18.0,-29.0,-20.0,-9.0,-3.0,-3.0
1706276880.8327427,22.0,58.0,9.0,29.0,22.0,8.0,8.0,9.0
1706276880.8327427,-11.0,-14.0,-20.0,-17.0,-12.0,-5.0,-4.0,-2.0
1706276880.8327427,2.0,-3.0,19.0,9.0,3.0,1.0,-2.0,1.0
1706276880.8431304,-2.0,24.0,-15.0,11.0,4.0,3.0,3.0,1.0
1706276880.8431304,-5.0,-36.0,4.0,-13.0,-12.0,-5.0,-3.0,-3.0
1706276880.8431304,-5.0,-10.0,-25.0,-6.0,-2.0,-2.0,-1.0,-7.0
1706276880.8431304,3.0,10.0,3.0,-4.0,0.0,0.0,-2.0,10.0
1706276880.8681462,17.0,21.0,18.0,6.0,-1.0,0.0,3.0,3.0
1706276880.8681462,-5.0,-7.0,-36.0,-15.0,-12.0,-5.0,-3.0,-2.0
1706276880.8681462,3.0,-7.0,12.0,-1.0,0.0,-2.0,-5.0,-11.0
1706276880.8681462,-19.0,0.0,1.0,-2.0,5.0,0.0,1.0,-1.0
1706276880.8887246,4.0,17.0,7.0,3.0,4.0,-4.0,-5.0,-2.0
1706276880.8887246,23.0,17.0,30.0,7.0,-7.0,-2.0,0.0,3.0
1706276880.8887246,3.0,0.0,-14.0,-6.0,3.0,2.0,3.0,4.0
1706276880.8887246,-4.0,10.0,7.0,0.0,1.0,1.0,-3.0,-8.0
1706276880.895725,-7.0,6.0,8.0,7.0,7.0,4.0,-1.0,-12.0
1706276880.895725,4.0,9.0,-5.0,-6.0,-3.0,-4.0,-2.0,8.0
1706276880.895725,1.0,2.0,0.0,-7.0,-10.0,-5.0,-4.0,3.0
1706276880.895725,-2.0,8.0,-14.0,-4.0,-5.0,-4.0,-2.0,-6.0
1706276880.925722,-2.0,18.0,8.0,-5.0,-12.0,-4.0,3.0,2.0
1706276880.925722,0.0,2.0,15.0,3.0,6.0,6.0,5.0,14.0
1706276880.925722,-4.0,2.0,0.0,4.0,13.0,9.0,8.0,11.0
1706276880.925722,-5.0,-2.0,9.0,6.0,2.0,0.0,-2.0,-19.0
1706276880.9461377,14.0,9.0,-2.0,2.0,0.0,-3.0,0.0,9.0
1706276880.9461377,-6.0,-2.0,-2.0,-12.0,-9.0,-4.0,-3.0,-9.0
1706276880.9461377,-4.0,4.0,11.0,5.0,-1.0,0.0,-2.0,-1.0
1706276880.9461377,2.0,2.0,-14.0,-7.0,0.0,-1.0,2.0,10.0
1706276880.9661586,-14.0,-17.0,2.0,1.0,-1.0,1.0,-2.0,-15.0
1706276880.9661586,7.0,2.0,-2.0,-6.0,-1.0,-3.0,1.0,4.0
1706276880.9661586,5.0,7.0,1.0,-2.0,-3.0,-5.0,-6.0,-7.0
1706276880.9661586,-9.0,-17.0,4.0,4.0,1.0,2.0,-3.0,-6.0
1706276880.9862766,5.0,42.0,22.0,6.0,2.0,3.0,-1.0,-10.0
1706276880.9862766,10.0,12.0,14.0,3.0,2.0,0.0,2.0,7.0
1706276880.9862766,-3.0,5.0,-4.0,-4.0,-3.0,-2.0,3.0,7.0
1706276880.9862766,12.0,2.0,-5.0,-8.0,-7.0,-3.0,-3.0,11.0
1706276881.006153,-2.0,-8.0,0.0,2.0,3.0,2.0,1.0,1.0
1706276881.006153,-5.0,-2.0,3.0,2.0,2.0,2.0,-2.0,-1.0
1706276881.006153,-2.0,4.0,-7.0,-10.0,-4.0,-3.0,-1.0,-4.0
1706276881.006153,3.0,7.0,6.0,-2.0,-4.0,-4.0,-2.0,6.0
1706276881.0261483,-1.0,-14.0,3.0,2.0,3.0,2.0,1.0,4.0
1706276881.0261483,-3.0,-6.0,-1.0,-2.0,0.0,0.0,1.0,-8.0
1706276881.0261483,0.0,-10.0,-1.0,2.0,-3.0,-3.0,-3.0,4.0
1706276881.0261483,-9.0,0.0,-2.0,-2.0,-4.0,-3.0,0.0,-10.0
1706276881.0466013,0.0,0.0,4.0,2.0,5.0,2.0,0.0,-3.0
1706276881.0466013,-3.0,-6.0,-14.0,-3.0,-4.0,-2.0,-9.0,-13.0
1706276881.0466013,-6.0,-2.0,9.0,-5.0,0.0,3.0,0.0,4.0
1706276881.0466013,-1.0,0.0,-2.0,1.0,-1.0,-4.0,-2.0,-5.0
1706276881.0665953,-1.0,-5.0,4.0,3.0,-1.0,1.0,0.0,4.0
1706276881.0665953,2.0,1.0,-5.0,2.0,6.0,3.0,1.0,-6.0
1706276881.0665953,-7.0,-8.0,-5.0,-6.0,-6.0,-6.0,-8.0,-11.0
1706276881.0665953,2.0,10.0,11.0,2.0,-2.0,-1.0,0.0,7.0
1706276881.0861485,13.0,-11.0,-11.0,-5.0,-4.0,-3.0,-4.0,14.0
1706276881.0861485,-6.0,0.0,-5.0,-1.0,0.0,1.0,0.0,-6.0
1706276881.0861485,4.0,1.0,-5.0,-1.0,-3.0,0.0,-1.0,-4.0
1706276881.0861485,-5.0,-9.0,-6.0,-6.0,-2.0,-1.0,-2.0,-5.0
1706276881.106246,5.0,0.0,-6.0,0.0,-4.0,-5.0,-2.0,1.0
1706276881.106246,0.0,1.0,3.0,-2.0,-5.0,-3.0,0.0,8.0
1706276881.106246,6.0,-6.0,-5.0,2.0,3.0,1.0,1.0,1.0
1706276881.106246,2.0,-4.0,-4.0,0.0,4.0,3.0,2.0,14.0
1706276881.126598,2.0,-2.0,1.0,0.0,2.0,0.0,0.0,4.0
1706276881.126598,-3.0,1.0,0.0,-8.0,-8.0,-5.0,-2.0,-6.0
1706276881.126598,-9.0,-8.0,1.0,1.0,-8.0,-1.0,1.0,-2.0
1706276881.126598,12.0,3.0,-10.0,-3.0,4.0,-4.0,-11.0,-11.0
1706276881.1461518,-5.0,-2.0,1.0,-3.0,0.0,-5.0,-3.0,-5.0
1706276881.1461518,-4.0,-3.0,-5.0,-4.0,-17.0,-6.0,-2.0,-1.0
1706276881.1461518,3.0,5.0,1.0,8.0,16.0,11.0,4.0,-1.0
1706276881.1461518,-4.0,1.0,13.0,8.0,16.0,10.0,6.0,3.0
1706276881.1662562,-4.0,-10.0,-6.0,0.0,1.0,-1.0,1.0,0.0
1706276881.1662562,2.0,1.0,-7.0,-4.0,-1.0,-5.0,-6.0,-12.0
1706276881.1662562,-2.0,2.0,-1.0,-9.0,-20.0,-11.0,-4.0,-2.0
1706276881.1662562,-1.0,5.0,-4.0,-6.0,-10.0,-3.0,-2.0,-3.0
1706276881.1961472,0.0,3.0,-1.0,0.0,2.0,1.0,-2.0,-2.0
1706276881.1961472,-3.0,-2.0,0.0,-1.0,-3.0,1.0,-2.0,2.0
1706276881.1961472,3.0,-5.0,-6.0,-2.0,1.0,-3.0,-1.0,-1.0
1706276881.1961472,-1.0,-2.0,-5.0,-4.0,-6.0,-4.0,0.0,-3.0
1706276881.1961472,-2.0,-3.0,4.0,-1.0,-3.0,1.0,3.0,-1.0
1706276881.1961472,2.0,28.0,3.0,-2.0,7.0,3.0,1.0,3.0
1706276881.206399,-6.0,-14.0,6.0,9.0,3.0,-3.0,-3.0,-5.0
1706276881.206399,0.0,-8.0,-6.0,-2.0,2.0,-1.0,0.0,1.0
1706276881.2264764,-4.0,-9.0,-11.0,-1.0,-2.0,0.0,-1.0,0.0
1706276881.2264764,-4.0,5.0,8.0,0.0,-3.0,-1.0,-1.0,-3.0
1706276881.2264764,3.0,4.0,1.0,-5.0,-3.0,0.0,0.0,0.0
1706276881.2264764,-2.0,2.0,1.0,2.0,2.0,-1.0,1.0,0.0
1706276881.2561476,0.0,-12.0,-11.0,-24.0,-14.0,-4.0,-2.0,-3.0
1706276881.2561476,-4.0,-13.0,-2.0,2.0,-3.0,-5.0,-4.0,-7.0
1706276881.2561476,-3.0,1.0,-5.0,21.0,20.0,1.0,-2.0,-5.0
1706276881.2561476,0.0,-9.0,-5.0,7.0,-18.0,-3.0,3.0,3.0
1706276881.2561476,13.0,12.0,0.0,3.0,16.0,13.0,3.0,4.0
1706276881.2561476,-16.0,-4.0,9.0,19.0,32.0,6.0,4.0,-2.0
1706276881.2663658,-5.0,-7.0,-3.0,-9.0,-8.0,0.0,0.0,0.0
1706276881.2663658,3.0,2.0,-2.0,5.0,-7.0,-5.0,-4.0,-2.0
1706276881.2862198,-5.0,1.0,2.0,-6.0,1.0,-3.0,-2.0,0.0
1706276881.2862198,3.0,-3.0,-4.0,-23.0,-23.0,-9.0,-3.0,0.0
1706276881.2862198,4.0,-6.0,-2.0,11.0,12.0,1.0,0.0,2.0
1706276881.2862198,-2.0,1.0,-1.0,-17.0,-9.0,-2.0,0.0,-2.0
1706276881.306393,-11.0,-13.0,-1.0,-13.0,-16.0,-6.0,-3.0,-5.0
1706276881.306393,-1.0,-24.0,8.0,28.0,31.0,12.0,5.0,2.0
1706276881.306393,12.0,40.0,27.0,11.0,-12.0,1.0,5.0,5.0
1706276881.306393,-3.0,-3.0,-7.0,3.0,13.0,7.0,1.0,1.0
1706276881.3361511,3.0,8.0,-1.0,2.0,5.0,-2.0,0.0,0.0
1706276881.3361511,-5.0,-2.0,-9.0,-1.0,3.0,-1.0,-3.0,-4.0
1706276881.3361511,-5.0,-13.0,-7.0,-27.0,-21.0,-10.0,-5.0,-4.0
1706276881.3361511,-5.0,0.0,3.0,-10.0,-16.0,-6.0,-3.0,-5.0
1706276881.3461504,-1.0,0.0,3.0,28.0,24.0,8.0,2.0,2.0
1706276881.3461504,5.0,3.0,-4.0,-9.0,-6.0,-1.0,0.0,4.0
1706276881.3461504,4.0,2.0,-7.0,-2.0,4.0,0.0,-1.0,-2.0
1706276881.3461504,-8.0,-6.0,-5.0,-9.0,-5.0,-7.0,-5.0,-6.0
1706276881.3661804,-4.0,1.0,-4.0,-11.0,-23.0,-10.0,-4.0,-3.0
1706276881.3661804,1.0,1.0,-2.0,2.0,-4.0,4.0,1.0,0.0
1706276881.3661804,-1.0,-1.0,-4.0,-13.0,1.0,0.0,0.0,-1.0
1706276881.3661804,1.0,1.0,5.0,15.0,15.0,9.0,3.0,3.0
1706276881.3761613,-4.0,2.0,-3.0,5.0,18.0,-1.0,-3.0,-4.0
1706276881.3761613,2.0,1.0,-5.0,-13.0,-15.0,-14.0,-6.0,-3.0
1706276881.3863473,1.0,1.0,-7.0,-15.0,-54.0,-8.0,0.0,0.0
1706276881.3863473,-7.0,-18.0,6.0,6.0,21.0,11.0,4.0,0.0
1706276881.4064317,0.0,4.0,5.0,13.0,25.0,7.0,2.0,0.0
1706276881.4064317,4.0,8.0,-8.0,-5.0,4.0,-1.0,-5.0,-2.0
1706276881.4134505,-6.0,2.0,-9.0,-4.0,5.0,-7.0,-6.0,-7.0
1706276881.4141002,-1.0,-4.0,-2.0,-9.0,-22.0,-9.0,-5.0,-5.0
1706276881.4397573,5.0,9.0,0.0,-3.0,-15.0,-2.0,1.0,0.0
1706276881.4397573,-8.0,-12.0,4.0,0.0,1.0,4.0,3.0,4.0
1706276881.4397573,2.0,0.0,-1.0,-7.0,-1.0,-2.0,-1.0,2.0
1706276881.4397573,0.0,2.0,-3.0,4.0,1.0,-1.0,0.0,-1.0
1706276881.4397573,4.0,9.0,1.0,2.0,-2.0,-3.0,-3.0,-2.0
1706276881.4397573,1.0,-7.0,-6.0,-7.0,-11.0,-3.0,2.0,0.0
1706276881.4497838,-6.0,-9.0,2.0,-4.0,0.0,0.0,-3.0,-3.0
1706276881.4497838,6.0,16.0,9.0,26.0,32.0,7.0,2.0,2.0
1706276881.4600883,-4.0,-5.0,-1.0,-7.0,-15.0,-6.0,0.0,-2.0
1706276881.4600883,4.0,7.0,4.0,4.0,-4.0,1.0,1.0,-1.0
1706276881.4600883,-2.0,-5.0,-3.0,-5.0,8.0,3.0,-1.0,-1.0
1706276881.4600883,-2.0,0.0,-4.0,-11.0,-8.0,-6.0,-5.0,-4.0
1706276881.4797578,-3.0,-3.0,-4.0,-3.0,-11.0,-4.0,-2.0,0.0
1706276881.4797578,-12.0,-17.0,10.0,7.0,7.0,6.0,3.0,2.0
1706276881.4797578,-3.0,-7.0,1.0,9.0,10.0,1.0,0.0,-1.0
1706276881.4797578,-1.0,2.0,-2.0,-8.0,-7.0,-3.0,-2.0,-1.0
1706276881.5001216,-1.0,-4.0,1.0,4.0,-1.0,2.0,2.0,2.0
1706276881.5001216,4.0,6.0,-10.0,-9.0,-6.0,-3.0,-1.0,-2.0
1706276881.510084,-6.0,-7.0,-6.0,1.0,4.0,-2.0,-4.0,-3.0
1706276881.510084,0.0,-1.0,-2.0,-4.0,-5.0,-1.0,1.0,1.0
1706276881.5200589,-3.0,0.0,-4.0,-8.0,-8.0,-5.0,-3.0,-4.0
1706276881.5200589,3.0,11.0,1.0,1.0,0.0,-1.0,-3.0,-2.0
1706276881.5200589,-1.0,-4.0,-1.0,7.0,4.0,1.0,1.0,-1.0
1706276881.5200589,1.0,1.0,-5.0,-6.0,-5.0,-3.0,-3.0,-1.0
1706276881.5400693,-2.0,-4.0,-4.0,0.0,2.0,2.0,-2.0,0.0
1706276881.5400693,1.0,3.0,1.0,-3.0,-6.0,-5.0,-5.0,-5.0
1706276881.5500767,-3.0,-6.0,8.0,8.0,7.0,1.0,2.0,0.0
1706276881.5500767,-5.0,-7.0,1.0,-4.0,-3.0,0.0,1.0,-1.0
1706276881.5603373,-2.0,-4.0,1.0,0.0,-3.0,-1.0,-1.0,-1.0
1706276881.5603373,-1.0,0.0,0.0,2.0,1.0,1.0,1.0,-1.0
1706276881.5700796,2.0,3.0,-4.0,-2.0,2.0,0.0,0.0,-1.0
1706276881.5700796,-2.0,-4.0,-6.0,-3.0,0.0,-3.0,-5.0,-3.0
1706276881.5900788,-2.0,-4.0,5.0,4.0,0.0,-3.0,-1.0,-3.0
1706276881.5900788,1.0,-2.0,-4.0,-5.0,-5.0,-2.0,-1.0,-1.0
1706276881.6000705,4.0,4.0,-1.0,1.0,1.0,1.0,-2.0,1.0
1706276881.6000705,-2.0,0.0,-5.0,-5.0,-7.0,-3.0,-2.0,1.0
1706276881.6000705,1.0,5.0,-3.0,-3.0,-2.0,-1.0,0.0,0.0
1706276881.6000705,-7.0,-13.0,-3.0,0.0,2.0,-1.0,0.0,-1.0
1706276881.6000705,-3.0,-2.0,1.0,0.0,1.0,-1.0,-2.0,0.0
1706276881.6000705,3.0,5.0,0.0,-1.0,-2.0,-3.0,-2.0,-2.0
1706276881.6204581,-8.0,-14.0,-5.0,-12.0,-8.0,-3.0,-4.0,-2.0
1706276881.6204581,3.0,9.0,-2.0,12.0,5.0,-1.0,0.0,1.0
1706276881.6300719,-3.0,-3.0,7.0,8.0,9.0,1.0,2.0,0.0
1706276881.6300719,0.0,-1.0,-3.0,-1.0,-3.0,-4.0,-2.0,0.0
1706276881.640072,-2.0,-11.0,7.0,7.0,4.0,2.0,2.0,3.0
1706276881.640072,0.0,0.0,-5.0,-7.0,-5.0,-1.0,-1.0,-1.0
1706276881.640072,-2.0,2.0,-2.0,-2.0,-4.0,-1.0,0.0,-3.0
1706276881.640072,1.0,-1.0,12.0,4.0,0.0,1.0,1.0,1.0
1706276881.6603615,-1.0,-2.0,9.0,4.0,-1.0,-2.0,0.0,-2.0
1706276881.6603615,1.0,1.0,4.0,0.0,-1.0,-2.0,-3.0,0.0
1706276881.670076,-2.0,-6.0,-27.0,-9.0,-2.0,0.0,-1.0,0.0
1706276881.670076,2.0,3.0,-6.0,-5.0,0.0,2.0,3.0,2.0
1706276881.6903665,-4.0,-2.0,25.0,0.0,-2.0,-3.0,-4.0,-5.0
1706276881.6903665,-8.0,-16.0,-28.0,-5.0,-2.0,-3.0,-1.0,-4.0
1706276881.6903665,3.0,6.0,13.0,4.0,-3.0,-2.0,0.0,0.0
1706276881.6903665,-3.0,1.0,-3.0,-6.0,-4.0,-4.0,-6.0,-5.0
1706276881.7002878,2.0,2.0,-20.0,-3.0,-1.0,1.0,2.0,3.0
1706276881.7002878,0.0,6.0,58.0,11.0,-2.0,-4.0,-3.0,-2.0
1706276881.7002878,-1.0,-3.0,26.0,6.0,-3.0,-1.0,-3.0,-1.0
1706276881.7002878,-5.0,-11.0,-60.0,-16.0,-8.0,-6.0,-3.0,-4.0
1706276881.7400682,-3.0,-7.0,-11.0,-2.0,2.0,3.0,2.0,1.0
1706276881.7400682,-4.0,-1.0,18.0,2.0,-1.0,-3.0,-6.0,-5.0
1706276881.7400682,1.0,6.0,9.0,0.0,-1.0,-1.0,-2.0,2.0
1706276881.7400682,1.0,3.0,12.0,2.0,-2.0,-2.0,0.0,-4.0
1706276881.7502794,-4.0,-6.0,-16.0,-1.0,1.0,-1.0,-6.0,-5.0
1706276881.7502794,-4.0,-8.0,-12.0,-7.0,-2.0,1.0,2.0,1.0
1706276881.7502794,0.0,-5.0,-13.0,-7.0,-1.0,-1.0,1.0,7.0
1706276881.7502794,-1.0,-2.0,-7.0,-3.0,0.0,1.0,0.0,-1.0
1706276881.760308,4.0,10.0,11.0,-6.0,-4.0,-3.0,-1.0,-2.0
1706276881.760308,3.0,2.0,-4.0,0.0,2.0,0.0,1.0,1.0
1706276881.760308,1.0,-1.0,-3.0,-1.0,-1.0,-1.0,-5.0,-1.0
1706276881.760308,-3.0,-6.0,13.0,4.0,-1.0,-2.0,-2.0,1.0
1706276881.7900681,0.0,1.0,-7.0,0.0,-2.0,-2.0,1.0,-2.0
1706276881.7900681,2.0,0.0,-7.0,-6.0,-3.0,1.0,-1.0,1.0
1706276881.7900681,-2.0,-1.0,-12.0,-6.0,-2.0,0.0,-2.0,-11.0
1706276881.7900681,2.0,6.0,7.0,4.0,0.0,1.0,1.0,2.0
1706276881.8300772,13.0,29.0,9.0,3.0,-2.0,-2.0,-1.0,3.0
1706276881.8300772,-21.0,-36.0,-25.0,-12.0,0.0,0.0,-4.0,-11.0
1706276881.8300772,-9.0,-3.0,-8.0,-10.0,-2.0,-2.0,-1.0,-8.0
1706276881.8300772,-2.0,-15.0,5.0,0.0,-3.0,-3.0,-3.0,0.0
1706276881.8300772,8.0,9.0,2.0,0.0,-1.0,-1.0,2.0,33.0
1706276881.8300772,32.0,17.0,3.0,4.0,0.0,0.0,9.0,19.0
1706276881.8300772,-6.0,4.0,0.0,2.0,0.0,-1.0,-4.0,-21.0
1706276881.8300772,-4.0,-9.0,2.0,-3.0,-3.0,-3.0,-5.0,-3.0
1706276881.840068,-7.0,-24.0,-7.0,1.0,-3.0,-3.0,-3.0,4.0
1706276881.840068,-14.0,-2.0,2.0,4.0,1.0,1.0,1.0,-1.0
1706276881.850076,0.0,-8.0,-8.0,-4.0,0.0,-1.0,0.0,14.0
1706276881.850076,12.0,15.0,5.0,4.0,2.0,0.0,2.0,10.0
1706276881.8800683,-9.0,1.0,0.0,5.0,0.0,1.0,1.0,-1.0
1706276881.8800683,2.0,-2.0,0.0,-4.0,-2.0,0.0,-8.0,-16.0
1706276881.8800683,-18.0,-18.0,-8.0,-5.0,0.0,2.0,0.0,-5.0
1706276881.8800683,16.0,16.0,10.0,7.0,4.0,6.0,16.0,33.0
1706276881.8800683,6.0,3.0,0.0,3.0,-3.0,-3.0,-3.0,-11.0
1706276881.8800683,46.0,50.0,12.0,8.0,-4.0,-2.0,0.0,34.0
1706276881.8800683,-5.0,-12.0,2.0,12.0,9.0,9.0,11.0,13.0
1706276881.8800683,24.0,-4.0,-22.0,-32.0,-7.0,-3.0,-16.0,-19.0
1706276881.9004867,-21.0,1.0,-4.0,-6.0,-4.0,-4.0,2.0,3.0
1706276881.9004867,26.0,19.0,-1.0,0.0,3.0,5.0,7.0,19.0
1706276881.9004867,7.0,32.0,8.0,-5.0,-19.0,-24.0,-3.0,-20.0
1706276881.9004867,2.0,-4.0,-30.0,-26.0,-12.0,-8.0,-20.0,-11.0
1706276881.931803,-19.0,-46.0,-9.0,-9.0,7.0,7.0,-6.0,-27.0
1706276881.931803,-18.0,-14.0,-2.0,3.0,6.0,9.0,10.0,-3.0
1706276881.931803,-14.0,7.0,6.0,7.0,3.0,0.0,2.0,0.0
1706276881.931803,11.0,42.0,5.0,-7.0,-17.0,-27.0,-10.0,-19.0
1706276881.944364,-23.0,-48.0,13.0,22.0,4.0,0.0,-26.0,-18.0
1706276881.944364,-15.0,-24.0,-24.0,-32.0,-6.0,0.0,18.0,1.0
1706276881.944364,1.0,-34.0,-4.0,-2.0,3.0,1.0,-12.0,15.0
1706276881.944364,-39.0,-13.0,2.0,5.0,4.0,3.0,17.0,-7.0
1706276881.9646661,35.0,64.0,4.0,2.0,-5.0,-5.0,0.0,6.0
1706276881.9646661,-10.0,7.0,-6.0,-10.0,-16.0,-15.0,-15.0,-20.0
1706276881.9646661,-19.0,-32.0,-8.0,-6.0,-4.0,0.0,-2.0,-6.0
1706276881.9646661,0.0,3.0,7.0,4.0,0.0,1.0,-8.0,4.0
1706276881.9843707,-20.0,-46.0,-12.0,-14.0,0.0,7.0,6.0,-23.0
1706276881.9843707,-16.0,0.0,17.0,18.0,0.0,-9.0,-9.0,-8.0
1706276881.9843707,-2.0,-20.0,32.0,32.0,19.0,17.0,4.0,-7.0
1706276881.9843707,-5.0,-5.0,11.0,11.0,3.0,6.0,3.0,4.0
1706276882.004711,13.0,11.0,-15.0,-12.0,-8.0,-7.0,4.0,12.0
1706276882.004711,-3.0,-2.0,-5.0,-10.0,0.0,2.0,-1.0,-3.0
1706276882.004711,11.0,12.0,-2.0,3.0,-2.0,-3.0,-8.0,0.0
1706276882.004711,7.0,10.0,8.0,8.0,7.0,5.0,6.0,4.0
1706276882.034365,7.0,19.0,13.0,13.0,12.0,12.0,13.0,9.0
1706276882.034365,-11.0,1.0,-11.0,-14.0,-15.0,-16.0,-19.0,-16.0
1706276882.034365,13.0,23.0,-6.0,-12.0,-7.0,-6.0,-1.0,0.0
1706276882.034365,-11.0,-8.0,0.0,-1.0,-1.0,2.0,2.0,-4.0
1706276882.0443716,2.0,-1.0,3.0,4.0,3.0,3.0,4.0,0.0
1706276882.0443716,-4.0,-5.0,-6.0,2.0,6.0,4.0,-2.0,-1.0
1706276882.0443716,8.0,11.0,-11.0,-13.0,-7.0,-5.0,-2.0,4.0
1706276882.0443716,-6.0,-10.0,2.0,5.0,3.0,4.0,2.0,-2.0
1706276882.064571,-7.0,-11.0,-8.0,-10.0,-10.0,-10.0,-9.0,-8.0
1706276882.064571,-2.0,-10.0,2.0,5.0,1.0,1.0,-1.0,-1.0
1706276882.064571,0.0,2.0,0.0,1.0,0.0,0.0,0.0,1.0
1706276882.064571,-9.0,-27.0,-4.0,4.0,2.0,1.0,-1.0,-3.0
1706276882.1043692,7.0,16.0,-1.0,-5.0,-2.0,-3.0,1.0,0.0
1706276882.1043692,-5.0,-7.0,-3.0,2.0,2.0,2.0,1.0,-2.0
1706276882.1043692,5.0,9.0,-8.0,-6.0,-4.0,-3.0,-3.0,-2.0
1706276882.1043692,-9.0,-25.0,-8.0,1.0,1.0,2.0,0.0,-3.0
1706276882.1043692,2.0,22.0,6.0,-7.0,-5.0,-5.0,-2.0,0.0
1706276882.1043692,-2.0,-3.0,-5.0,3.0,2.0,1.0,-1.0,-3.0
1706276882.1043692,3.0,1.0,3.0,-1.0,0.0,-2.0,-3.0,1.0
1706276882.1043692,0.0,-8.0,0.0,1.0,1.0,1.0,1.0,2.0
1706276882.12474,6.0,2.0,-5.0,1.0,2.0,3.0,3.0,5.0
1706276882.12474,-3.0,14.0,22.0,3.0,0.0,-2.0,-2.0,-2.0
1706276882.12474,6.0,14.0,-4.0,-1.0,-3.0,-3.0,-2.0,0.0
1706276882.12474,4.0,-8.0,1.0,8.0,7.0,8.0,5.0,5.0
1706276882.1443648,-12.0,-16.0,-1.0,-7.0,-8.0,-8.0,-6.0,-7.0
1706276882.1443648,1.0,-35.0,-4.0,9.0,6.0,4.0,4.0,3.0
1706276882.154712,-2.0,47.0,-16.0,-15.0,-12.0,-9.0,1.0,3.0
1706276882.154712,19.0,12.0,6.0,8.0,5.0,4.0,-8.0,-7.0
1706276882.1647263,-27.0,-8.0,-7.0,-6.0,-3.0,-1.0,14.0,11.0
1706276882.1647263,16.0,-27.0,-6.0,-7.0,-4.0,-4.0,-4.0,16.0
1706276882.1746678,-12.0,-40.0,-5.0,2.0,3.0,2.0,3.0,-1.0
1706276882.1746678,-8.0,-3.0,-3.0,-4.0,-5.0,-6.0,-6.0,-3.0
1706276882.1846867,11.0,41.0,2.0,-3.0,-3.0,-2.0,2.0,20.0
1706276882.1846867,10.0,-18.0,-11.0,-5.0,-3.0,-5.0,-9.0,-8.0
1706276882.1846867,-10.0,7.0,-6.0,2.0,2.0,5.0,12.0,-15.0
1706276882.1846867,11.0,27.0,8.0,-4.0,-7.0,-9.0,-15.0,35.0
1706276882.214365,9.0,-8.0,1.0,3.0,5.0,0.0,-8.0,-21.0
1706276882.214365,-20.0,8.0,1.0,2.0,0.0,-1.0,-5.0,-13.0
1706276882.214365,21.0,-6.0,3.0,2.0,2.0,2.0,0.0,7.0
1706276882.214365,-28.0,-9.0,-6.0,-5.0,-5.0,-5.0,2.0,-17.0
1706276882.2447553,14.0,7.0,5.0,4.0,4.0,-1.0,-6.0,-17.0
1706276882.2447553,7.0,3.0,-3.0,-3.0,-6.0,-5.0,-3.0,23.0
1706276882.2447553,-7.0,-7.0,-2.0,-1.0,-1.0,-1.0,-7.0,-7.0
1706276882.2447553,-23.0,3.0,-8.0,-8.0,-3.0,-4.0,6.0,6.0
1706276882.2447553,17.0,-27.0,-3.0,0.0,-7.0,-6.0,-21.0,-44.0
1706276882.2447553,3.0,15.0,2.0,3.0,6.0,3.0,0.0,-26.0
1706276882.2543647,-21.0,-16.0,-10.0,-10.0,-2.0,-1.0,8.0,32.0
1706276882.2543647,14.0,10.0,4.0,-1.0,-1.0,3.0,12.0,-1.0
1706276882.2646348,-8.0,0.0,-8.0,-2.0,-5.0,-8.0,-5.0,9.0
1706276882.2646348,19.0,49.0,25.0,27.0,10.0,7.0,22.0,12.0
1706276882.2646348,1.0,-1.0,-7.0,-14.0,-2.0,3.0,-17.0,-46.0
1706276882.2646348,-18.0,-61.0,-37.0,-22.0,-9.0,0.0,43.0,37.0
1706276882.2847412,-49.0,-14.0,14.0,18.0,3.0,-8.0,-15.0,65.0
1706276882.2847412,26.0,44.0,39.0,22.0,3.0,13.0,-7.0,-75.0
1706276882.2847412,11.0,6.0,-25.0,-29.0,-5.0,-1.0,7.0,5.0
1706276882.2847412,-27.0,-21.0,12.0,15.0,7.0,8.0,27.0,-6.0
1706276882.3143673,64.0,26.0,5.0,0.0,-4.0,-7.0,1.0,14.0
1706276882.3143673,-22.0,-17.0,-14.0,-2.0,20.0,51.0,59.0,87.0
1706276882.3143673,10.0,17.0,42.0,27.0,4.0,-4.0,8.0,43.0
1706276882.3143673,-11.0,17.0,-22.0,-17.0,-8.0,-7.0,-42.0,-51.0
1706276882.324399,15.0,11.0,19.0,12.0,-3.0,-5.0,19.0,9.0
1706276882.324399,17.0,9.0,-33.0,-35.0,-16.0,-18.0,-23.0,-5.0
1706276882.324399,3.0,4.0,6.0,6.0,-9.0,-14.0,-12.0,-16.0
1706276882.324399,-27.0,-43.0,4.0,7.0,11.0,15.0,22.0,41.0
1706276882.3447382,-8.0,0.0,2.0,0.0,1.0,2.0,2.0,-19.0
1706276882.3447382,-17.0,-2.0,-17.0,-8.0,-13.0,-22.0,-25.0,-25.0
1706276882.3447382,-16.0,-16.0,8.0,13.0,10.0,13.0,-1.0,-19.0
1706276882.3447382,32.0,56.0,23.0,7.0,-8.0,-15.0,-28.0,-19.0
1706276882.3647122,-30.0,-36.0,-56.0,-35.0,-7.0,-1.0,-5.0,-21.0
1706276882.3647122,-8.0,-38.0,25.0,16.0,3.0,-4.0,-3.0,-13.0
1706276882.374367,7.0,35.0,20.0,12.0,-10.0,-10.0,-8.0,9.0
1706276882.374367,-6.0,-24.0,27.0,29.0,17.0,12.0,-6.0,-11.0
1706276882.3843992,13.0,17.0,-26.0,-29.0,-4.0,6.0,7.0,1.0
1706276882.3843992,-17.0,-1.0,-11.0,-20.0,-15.0,-11.0,2.0,20.0
1706276882.3843992,10.0,7.0,-23.0,-5.0,4.0,1.0,-4.0,-6.0
1706276882.3843992,6.0,-11.0,-12.0,-10.0,-9.0,-8.0,-12.0,-15.0
1706276882.4047399,-14.0,-4.0,12.0,7.0,-6.0,-7.0,-5.0,-11.0
1706276882.4047399,-9.0,-8.0,3.0,2.0,5.0,-3.0,-7.0,-3.0
1706276882.4047399,2.0,-4.0,2.0,-3.0,3.0,2.0,1.0,-2.0
1706276882.4047399,18.0,10.0,-2.0,10.0,4.0,1.0,-1.0,-5.0
1706276882.4246976,-14.0,-29.0,-7.0,-7.0,0.0,1.0,0.0,4.0
1706276882.4246976,-3.0,-2.0,0.0,-2.0,-6.0,-9.0,-6.0,-2.0
1706276882.4343655,2.0,-15.0,-6.0,-6.0,0.0,0.0,0.0,0.0
1706276882.4343655,-3.0,-1.0,-1.0,-1.0,-2.0,-3.0,0.0,5.0
1706276882.4443958,3.0,10.0,5.0,4.0,3.0,3.0,0.0,-4.0
1706276882.4443958,-2.0,-1.0,-13.0,-5.0,-1.0,-1.0,-5.0,-3.0
1706276882.4443958,-17.0,-33.0,3.0,8.0,3.0,6.0,2.0,-4.0
1706276882.4443958,9.0,11.0,-5.0,-10.0,-6.0,-5.0,-6.0,-1.0
1706276882.4781744,3.0,9.0,7.0,6.0,3.0,4.0,1.0,-3.0
1706276882.4781744,0.0,-6.0,-5.0,0.0,3.0,1.0,0.0,-2.0
1706276882.4781744,-3.0,-10.0,-6.0,-6.0,1.0,-4.0,-1.0,3.0
1706276882.4781744,11.0,24.0,7.0,-3.0,-3.0,-5.0,-4.0,1.0
1706276882.4882104,0.0,-7.0,0.0,4.0,6.0,8.0,4.0,0.0
1706276882.4882104,-13.0,-22.0,-8.0,-4.0,-2.0,0.0,-1.0,-1.0
1706276882.4882104,1.0,6.0,-3.0,-5.0,-6.0,-6.0,-3.0,-3.0
1706276882.4882104,-1.0,-24.0,-17.0,-6.0,-1.0,1.0,-3.0,-6.0
1706276882.5081782,-7.0,29.0,18.0,-2.0,-3.0,-5.0,-6.0,-8.0
1706276882.5081782,0.0,6.0,-3.0,-2.0,0.0,-2.0,-2.0,0.0
1706276882.5081782,-2.0,2.0,-2.0,-2.0,-2.0,-2.0,-2.0,-3.0
1706276882.5081782,0.0,-16.0,-3.0,1.0,1.0,2.0,0.0,-2.0
1706276882.5285532,7.0,-4.0,6.0,4.0,5.0,5.0,6.0,7.0
1706276882.5285532,-10.0,12.0,-11.0,-4.0,-4.0,-5.0,-6.0,-7.0
1706276882.5285532,7.0,16.0,12.0,3.0,1.0,2.0,0.0,1.0
1706276882.5285532,-9.0,-41.0,-4.0,-2.0,-2.0,0.0,-1.0,-2.0
1706276882.5481782,13.0,39.0,8.0,4.0,2.0,3.0,2.0,4.0
1706276882.5481782,-18.0,-32.0,-15.0,-8.0,-5.0,-4.0,-4.0,-8.0
1706276882.5481782,15.0,49.0,2.0,2.0,1.0,1.0,1.0,4.0
1706276882.5481782,-13.0,-19.0,5.0,-2.0,-3.0,-4.0,-5.0,-4.0
1706276882.568617,-7.0,-21.0,-8.0,-2.0,-2.0,-3.0,-2.0,-4.0
1706276882.568617,3.0,-8.0,3.0,1.0,2.0,0.0,0.0,2.0
1706276882.568617,-1.0,0.0,-3.0,1.0,0.0,-1.0,-2.0,-1.0
1706276882.568617,8.0,27.0,1.0,-2.0,-2.0,-1.0,0.0,0.0
1706276882.5886092,-4.0,-2.0,1.0,-1.0,-1.0,0.0,-2.0,-3.0
1706276882.5886092,2.0,-10.0,-7.0,2.0,0.0,-2.0,-1.0,3.0
1706276882.5886092,-3.0,-2.0,0.0,-6.0,-3.0,-3.0,-1.0,-3.0
1706276882.5886092,10.0,28.0,8.0,5.0,2.0,2.0,1.0,3.0
1706276882.5981784,-6.0,-7.0,0.0,0.0,-2.0,-1.0,-2.0,-2.0
1706276882.5981784,3.0,5.0,-3.0,-1.0,-1.0,0.0,0.0,0.0
1706276882.6181772,-5.0,-22.0,-4.0,-5.0,-6.0,-2.0,-2.0,-4.0
1706276882.6181772,-2.0,6.0,-2.0,-4.0,-3.0,-2.0,-2.0,-4.0
1706276882.6281767,0.0,-1.0,-6.0,-1.0,1.0,-1.0,1.0,1.0
1706276882.6281767,2.0,3.0,5.0,2.0,-1.0,-1.0,-2.0,1.0
1706276882.6281767,-3.0,-12.0,-3.0,-2.0,-1.0,-1.0,-1.0,0.0
1706276882.6281767,1.0,12.0,0.0,-1.0,-1.0,0.0,-2.0,-1.0
1706276882.648177,0.0,-11.0,-6.0,-1.0,-1.0,1.0,0.0,0.0
1706276882.648177,1.0,3.0,4.0,1.0,1.0,-2.0,0.0,-1.0
1706276882.648177,-7.0,-18.0,-5.0,-2.0,-2.0,-1.0,-3.0,-3.0
1706276882.648177,5.0,11.0,-1.0,-2.0,-2.0,-3.0,-1.0,0.0
1706276882.668514,-1.0,-7.0,-6.0,-2.0,0.0,-3.0,-3.0,-1.0
1706276882.668514,0.0,-1.0,1.0,-2.0,-2.0,-3.0,-1.0,-2.0
1706276882.668514,-4.0,-4.0,-3.0,1.0,0.0,0.0,-2.0,-1.0
1706276882.668514,-4.0,2.0,0.0,0.0,-1.0,-2.0,-2.0,-1.0
1706276882.6881855,-1.0,-7.0,-2.0,0.0,2.0,1.0,2.0,1.0
1706276882.6881855,1.0,10.0,5.0,0.0,1.0,1.0,1.0,0.0
1706276882.6881855,-2.0,-5.0,0.0,-4.0,-3.0,-3.0,0.0,0.0
1706276882.6881855,-1.0,-3.0,-8.0,1.0,2.0,-2.0,-2.0,-3.0
1706276882.7181816,1.0,1.0,1.0,-1.0,-5.0,-2.0,-3.0,-2.0
1706276882.7181816,-2.0,-2.0,-5.0,-1.0,0.0,1.0,-1.0,-1.0
1706276882.7181816,-5.0,-25.0,-2.0,0.0,1.0,1.0,-2.0,-4.0
1706276882.7181816,0.0,5.0,-6.0,-6.0,-2.0,-2.0,-2.0,-1.0
1706276882.7282252,2.0,12.0,1.0,-2.0,-1.0,-1.0,0.0,1.0
1706276882.7282252,0.0,-1.0,3.0,-1.0,-3.0,-1.0,-1.0,-2.0
1706276882.7282252,-2.0,-3.0,-6.0,-1.0,-5.0,0.0,0.0,-4.0
1706276882.7282252,-2.0,-1.0,3.0,0.0,-1.0,-1.0,-2.0,-1.0
1706276882.7485235,1.0,-5.0,-6.0,-1.0,-1.0,0.0,-1.0,0.0
1706276882.7485235,-10.0,-17.0,4.0,0.0,-1.0,0.0,-1.0,-1.0
1706276882.7485235,-3.0,-3.0,-5.0,-7.0,-12.0,-8.0,-3.0,-2.0
1706276882.7485235,1.0,3.0,-2.0,-11.0,-19.0,-16.0,-6.0,-3.0
1706276882.768176,0.0,2.0,-5.0,-5.0,-16.0,-3.0,-2.0,-1.0
1706276882.768176,5.0,5.0,8.0,18.0,62.0,23.0,4.0,3.0
1706276882.768176,3.0,6.0,3.0,6.0,-12.0,-3.0,3.0,2.0
1706276882.768176,0.0,0.0,5.0,9.0,22.0,14.0,3.0,1.0
1706276882.7886264,-6.0,-13.0,-2.0,-2.0,-5.0,-5.0,-3.0,-4.0
1706276882.7886264,3.0,13.0,-6.0,-9.0,-19.0,-7.0,-2.0,-1.0
1706276882.7886264,-5.0,-7.0,2.0,-3.0,2.0,-2.0,-2.0,-3.0
1706276882.7886264,1.0,5.0,2.0,-5.0,-18.0,-8.0,-2.0,0.0
1706276882.8085902,-5.0,-13.0,-6.0,-6.0,-7.0,-5.0,-1.0,-2.0
1706276882.8085902,-2.0,1.0,-4.0,-9.0,-13.0,-5.0,-3.0,0.0
1706276882.8085902,4.0,9.0,2.0,-2.0,-4.0,0.0,-1.0,1.0
1706276882.8085902,1.0,3.0,3.0,3.0,-4.0,0.0,1.0,0.0
1706276882.828177,0.0,-2.0,-2.0,10.0,40.0,17.0,1.0,1.0
1706276882.828177,1.0,0.0,1.0,9.0,4.0,4.0,3.0,0.0
1706276882.828177,0.0,2.0,1.0,2.0,4.0,-3.0,-2.0,0.0
1706276882.828177,-4.0,-3.0,-2.0,0.0,10.0,4.0,0.0,-3.0
1706276882.8483853,-3.0,-2.0,-3.0,-9.0,-41.0,-16.0,-3.0,-2.0
1706276882.8483853,1.0,1.0,-1.0,-6.0,-4.0,-7.0,-3.0,0.0
1706276882.8483853,-1.0,-7.0,-2.0,1.0,3.0,2.0,0.0,2.0
1706276882.8483853,2.0,4.0,1.0,1.0,8.0,11.0,1.0,0.0
1706276882.8781757,-2.0,-5.0,-4.0,1.0,-3.0,-2.0,-1.0,-2.0
1706276882.8781757,-1.0,0.0,-1.0,1.0,6.0,-1.0,-2.0,-3.0
1706276882.8781757,2.0,0.0,-1.0,-1.0,-3.0,-4.0,0.0,0.0
1706276882.8781757,-3.0,-2.0,-1.0,1.0,13.0,3.0,-2.0,-3.0
1706276882.8883736,3.0,11.0,32.0,-9.0,-27.0,-12.0,-3.0,0.0
1706276882.8883736,-10.0,-25.0,-60.0,-34.0,-66.0,-20.0,-8.0,-7.0
1706276882.8883736,7.0,15.0,32.0,15.0,33.0,10.0,3.0,3.0
1706276882.8883736,-10.0,-34.0,-71.0,5.0,61.0,26.0,5.0,-1.0
1706276882.9086168,4.0,5.0,14.0,18.0,30.0,18.0,7.0,4.0
1706276882.9086168,5.0,13.0,33.0,10.0,11.0,0.0,1.0,1.0
1706276882.9086168,-6.0,-12.0,-22.0,-16.0,-34.0,-15.0,-5.0,-4.0
1706276882.9086168,1.0,6.0,7.0,-11.0,-39.0,-20.0,-5.0,-4.0
1706276882.9281774,-1.0,4.0,-5.0,-4.0,-6.0,-8.0,-4.0,-2.0
1706276882.9281774,-3.0,-6.0,-4.0,-6.0,-4.0,2.0,-2.0,-3.0
1706276882.9281774,-2.0,0.0,0.0,-5.0,-11.0,-2.0,-1.0,-1.0
1706276882.9281774,1.0,-3.0,12.0,-10.0,-17.0,-12.0,-3.0,1.0
1706276882.9485624,-3.0,1.0,-9.0,1.0,-9.0,2.0,1.0,-3.0
1706276882.9485624,2.0,-3.0,18.0,19.0,53.0,20.0,5.0,3.0
1706276882.9485624,-2.0,15.0,-5.0,10.0,30.0,11.0,0.0,-2.0
1706276882.9485624,-3.0,-19.0,7.0,5.0,-10.0,-3.0,-2.0,-1.0
1706276882.9686317,-3.0,-8.0,-8.0,-7.0,-6.0,-5.0,-2.0,0.0
1706276882.9686317,-4.0,-3.0,-4.0,-9.0,-23.0,-12.0,-2.0,-1.0
1706276882.9686317,-1.0,-7.0,-6.0,-10.0,-22.0,-9.0,-3.0,-1.0
1706276882.9686317,1.0,7.0,6.0,0.0,4.0,3.0,0.0,0.0
1706276882.9992993,0.0,-1.0,-4.0,1.0,14.0,3.0,-1.0,-1.0
1706276882.9992993,-2.0,1.0,6.0,5.0,4.0,2.0,1.0,2.0
1706276882.9992993,-1.0,4.0,3.0,0.0,3.0,2.0,1.0,-3.0
1706276882.9992993,0.0,6.0,10.0,1.0,-23.0,-9.0,-2.0,-2.0
1706276883.0099585,-6.0,-6.0,-17.0,-15.0,9.0,1.0,-3.0,-4.0
1706276883.0099585,0.0,1.0,-14.0,-3.0,-6.0,-2.0,-1.0,0.0
1706276883.0099585,-4.0,-8.0,4.0,9.0,11.0,-3.0,-4.0,-2.0
1706276883.0099585,1.0,9.0,11.0,2.0,-8.0,-2.0,0.0,1.0
1706276883.0302355,3.0,-5.0,-10.0,-4.0,17.0,9.0,2.0,1.0
1706276883.0302355,-2.0,4.0,20.0,7.0,-12.0,-4.0,-1.0,0.0
1706276883.0302355,-4.0,-19.0,-13.0,-21.0,-14.0,0.0,-1.0,-1.0
1706276883.0302355,1.0,11.0,9.0,27.0,26.0,3.0,1.0,0.0
1706276883.049994,-6.0,-16.0,-4.0,2.0,4.0,-3.0,-1.0,-3.0
1706276883.049994,-1.0,7.0,-7.0,-22.0,-24.0,-11.0,-6.0,-4.0
1706276883.049994,2.0,1.0,-2.0,8.0,8.0,3.0,0.0,0.0
1706276883.049994,-3.0,-3.0,-3.0,-10.0,-13.0,-5.0,-3.0,-1.0
1706276883.0800486,-3.0,-7.0,-4.0,0.0,-7.0,-2.0,-3.0,-1.0
1706276883.0800486,1.0,1.0,4.0,3.0,12.0,2.0,0.0,0.0
1706276883.0800486,-1.0,1.0,-6.0,-24.0,-14.0,-3.0,-1.0,-2.0
1706276883.0800486,2.0,1.0,-9.0,-40.0,-28.0,-10.0,-4.0,-1.0
1706276883.1199913,3.0,11.0,17.0,50.0,30.0,9.0,1.0,1.0
1706276883.1199913,0.0,-1.0,2.0,18.0,17.0,-4.0,-3.0,-2.0
1706276883.1199913,1.0,4.0,0.0,20.0,25.0,8.0,3.0,1.0
1706276883.1199913,0.0,3.0,-2.0,-24.0,-16.0,1.0,0.0,1.0
1706276883.1199913,-3.0,-2.0,1.0,-5.0,-6.0,-1.0,-2.0,-3.0
1706276883.1199913,2.0,2.0,9.0,12.0,6.0,2.0,5.0,2.0
1706276883.1199913,-4.0,-7.0,-7.0,10.0,-13.0,-5.0,-5.0,-3.0
1706276883.1199913,1.0,0.0,2.0,6.0,5.0,-4.0,-2.0,-2.0
1706276883.1303983,-1.0,1.0,-7.0,-31.0,-30.0,-14.0,-5.0,-2.0
1706276883.1303983,-2.0,-3.0,-11.0,-16.0,-3.0,0.0,-1.0,0.0
1706276883.1303983,-3.0,-6.0,-2.0,-2.0,-8.0,-4.0,-3.0,-2.0
1706276883.1303983,-1.0,12.0,4.0,10.0,6.0,3.0,1.0,-1.0
1706276883.1599936,2.0,-6.0,-3.0,-7.0,2.0,0.0,2.0,1.0
1706276883.1599936,2.0,7.0,-4.0,-13.0,-13.0,-3.0,0.0,0.0
1706276883.1599936,0.0,7.0,2.0,5.0,4.0,1.0,0.0,-1.0
1706276883.1599936,-3.0,-16.0,6.0,14.0,4.0,3.0,-1.0,-2.0
1706276883.1599936,4.0,7.0,-7.0,-4.0,0.0,-5.0,-2.0,2.0
1706276883.1599936,-8.0,-17.0,-2.0,-3.0,-1.0,1.0,-3.0,-3.0
1706276883.1599936,-1.0,3.0,2.0,-4.0,4.0,4.0,2.0,0.0
1706276883.1599936,-2.0,1.0,1.0,10.0,8.0,0.0,-1.0,-1.0
1706276883.190024,-3.0,3.0,0.0,-6.0,-7.0,-5.0,-2.0,-1.0
1706276883.190024,2.0,14.0,1.0,-7.0,-7.0,0.0,-1.0,-1.0
1706276883.190024,-1.0,-11.0,-1.0,-5.0,-3.0,-2.0,-3.0,1.0
1706276883.190024,0.0,3.0,-12.0,-2.0,1.0,-1.0,-4.0,-4.0
1706276883.2199926,2.0,1.0,6.0,1.0,6.0,6.0,2.0,1.0
1706276883.2199926,-11.0,4.0,-2.0,3.0,1.0,0.0,-3.0,-3.0
1706276883.2199926,12.0,-8.0,-4.0,-4.0,3.0,0.0,3.0,3.0
1706276883.2199926,-6.0,-3.0,-3.0,-5.0,-3.0,2.0,2.0,1.0
1706276883.230002,-5.0,-7.0,-2.0,-3.0,-8.0,-5.0,-7.0,-5.0
1706276883.230002,-4.0,-7.0,-3.0,1.0,-3.0,-3.0,-2.0,1.0
1706276883.230002,-5.0,12.0,3.0,-1.0,3.0,1.0,0.0,-3.0
1706276883.230002,1.0,-12.0,-2.0,-3.0,-2.0,-2.0,0.0,1.0
1706276883.2504175,8.0,5.0,-1.0,1.0,1.0,1.0,-1.0,0.0
1706276883.2504175,-3.0,-11.0,1.0,1.0,-5.0,-5.0,3.0,4.0
1706276883.2504175,-4.0,2.0,0.0,-6.0,-16.0,-7.0,-3.0,-3.0
1706276883.2504175,-3.0,4.0,3.0,3.0,12.0,1.0,0.0,-4.0
1706276883.2703528,2.0,3.0,3.0,3.0,-8.0,0.0,-1.0,-2.0
1706276883.2703528,3.0,5.0,-11.0,-5.0,9.0,1.0,-2.0,-5.0
1706276883.2703528,8.0,4.0,6.0,1.0,-4.0,8.0,4.0,4.0
1706276883.2703528,-4.0,5.0,1.0,3.0,13.0,2.0,1.0,2.0
1706276883.2903588,3.0,3.0,-7.0,-15.0,-14.0,-3.0,2.0,3.0
1706276883.2903588,3.0,-1.0,-11.0,-46.0,-28.0,-16.0,-7.0,-4.0
1706276883.2903588,4.0,10.0,12.0,44.0,40.0,11.0,6.0,3.0
1706276883.2903588,1.0,2.0,12.0,39.0,35.0,13.0,4.0,-2.0
1706276883.3104253,0.0,1.0,-13.0,-12.0,-40.0,-12.0,-5.0,-3.0
1706276883.3104253,6.0,6.0,9.0,-24.0,17.0,5.0,3.0,5.0
1706276883.3104253,-15.0,-7.0,-33.0,-79.0,-84.0,-34.0,-17.0,-13.0
1706276883.3104253,6.0,0.0,-11.0,21.0,-4.0,12.0,3.0,2.0
1706276883.330354,-6.0,-3.0,16.0,39.0,16.0,0.0,1.0,2.0
1706276883.330354,-11.0,-20.0,2.0,127.0,-9.0,3.0,-2.0,-6.0
1706276883.330354,16.0,15.0,32.0,-40.0,34.0,31.0,12.0,7.0
1706276883.330354,-5.0,-3.0,-24.0,-128.0,-107.0,-32.0,-13.0,-7.0
1706276883.3505673,14.0,22.0,-19.0,80.0,32.0,-3.0,-9.0,-8.0
1706276883.3505673,2.0,6.0,-5.0,-102.0,-68.0,-20.0,-6.0,-2.0
1706276883.3505673,-20.0,-28.0,-14.0,125.0,3.0,-10.0,-9.0,-12.0
1706276883.3505673,-7.0,-3.0,8.0,-93.0,-39.0,-13.0,-4.0,0.0
1706276883.370647,0.0,-1.0,-14.0,-14.0,6.0,4.0,0.0,-1.0
1706276883.370647,-3.0,22.0,-35.0,12.0,-50.0,-19.0,-13.0,-13.0
1706276883.370647,34.0,13.0,80.0,-33.0,60.0,76.0,43.0,39.0
1706276883.370647,14.0,58.0,52.0,41.0,30.0,12.0,7.0,6.0
1706276883.410354,16.0,34.0,16.0,-34.0,-17.0,-8.0,-5.0,0.0
1706276883.410354,-32.0,-50.0,-30.0,-108.0,-44.0,-22.0,-14.0,-16.0
1706276883.410354,-19.0,-29.0,-53.0,-80.0,-71.0,-32.0,-15.0,-13.0
1706276883.410354,-10.0,-22.0,-18.0,100.0,38.0,5.0,0.0,-3.0
1706276883.410354,12.0,7.0,43.0,-33.0,-1.0,5.0,6.0,11.0
1706276883.410354,4.0,-6.0,11.0,61.0,44.0,18.0,8.0,5.0
1706276883.410354,-7.0,16.0,-6.0,-22.0,-25.0,-23.0,-14.0,-8.0
1706276883.410354,9.0,-14.0,-11.0,5.0,20.0,12.0,5.0,5.0
1706276883.4304163,-16.0,-7.0,-33.0,-22.0,-26.0,-9.0,-7.0,-9.0
1706276883.4304163,8.0,-2.0,28.0,-14.0,19.0,14.0,8.0,9.0
1706276883.4304163,-7.0,1.0,-4.0,40.0,20.0,-3.0,-2.0,-4.0
1706276883.4304163,2.0,-3.0,-50.0,-36.0,-29.0,-15.0,-2.0,-1.0
1706276883.450354,-18.0,-20.0,39.0,5.0,9.0,7.0,2.0,-3.0
1706276883.450354,7.0,39.0,35.0,28.0,13.0,5.0,2.0,3.0
1706276883.450354,4.0,15.0,-14.0,-20.0,-9.0,-10.0,-7.0,-4.0
1706276883.450354,-7.0,-33.0,11.0,23.0,6.0,1.0,-4.0,-5.0
1706276883.4603515,-10.0,-5.0,-2.0,-25.0,-11.0,-1.0,2.0,2.0
1706276883.4603515,13.0,-12.0,-14.0,1.0,21.0,11.0,4.0,4.0
1706276883.4706671,-14.0,18.0,14.0,0.0,-22.0,-17.0,0.0,10.0
1706276883.4706671,25.0,-3.0,-2.0,-20.0,-9.0,-7.0,-13.0,2.0
1706276883.4904025,-3.0,-23.0,-16.0,6.0,16.0,5.0,-5.0,-16.0
1706276883.4904025,5.0,18.0,13.0,-4.0,-3.0,1.0,8.0,8.0
1706276883.4904025,-2.0,-3.0,-4.0,3.0,13.0,2.0,0.0,4.0
1706276883.4904025,-20.0,-10.0,-2.0,-1.0,-6.0,-13.0,-20.0,-29.0
1706276883.513676,-18.0,-6.0,-9.0,-14.0,-3.0,18.0,24.0,22.0
1706276883.5146897,10.0,4.0,5.0,11.0,5.0,13.0,-2.0,-6.0
1706276883.5146897,-8.0,-16.0,-16.0,-10.0,-6.0,-1.0,-1.0,-5.0
1706276883.5146897,3.0,16.0,21.0,22.0,12.0,5.0,6.0,3.0
1706276883.5296695,2.0,-2.0,-12.0,-18.0,-24.0,-24.0,-16.0,-13.0
1706276883.5296695,-16.0,-10.0,-11.0,-12.0,19.0,5.0,-1.0,-9.0
1706276883.5366688,-1.0,-14.0,3.0,21.0,-14.0,-5.0,-1.0,-4.0
1706276883.5366688,-4.0,7.0,-17.0,-58.0,-20.0,-4.0,-3.0,2.0
1706276883.5630283,-3.0,-8.0,-4.0,-43.0,-67.0,-13.0,-2.0,0.0
1706276883.5630283,14.0,2.0,23.0,46.0,88.0,57.0,28.0,24.0
1706276883.5630283,9.0,3.0,-13.0,-96.0,-54.0,-21.0,-14.0,-6.0
1706276883.5630283,12.0,28.0,-3.0,-44.0,-3.0,-5.0,3.0,8.0
1706276883.5730276,-8.0,-21.0,15.0,68.0,36.0,16.0,5.0,-1.0
1706276883.5730276,3.0,0.0,-21.0,-101.0,-41.0,-24.0,-10.0,-1.0
1706276883.5730276,-17.0,-10.0,-7.0,67.0,-43.0,-13.0,-11.0,-20.0
1706276883.5730276,19.0,17.0,7.0,-119.0,-31.0,0.0,8.0,9.0
1706276883.5833876,-13.0,-10.0,40.0,81.0,87.0,45.0,17.0,9.0
1706276883.5833876,-13.0,-11.0,9.0,32.0,31.0,8.0,-1.0,-6.0
1706276883.593419,-9.0,-22.0,-31.0,-68.0,-32.0,-19.0,-8.0,-7.0
1706276883.593419,-17.0,-31.0,-40.0,-115.0,-123.0,-54.0,-17.0,-11.0
1706276883.6030285,4.0,-40.0,6.0,93.0,79.0,21.0,5.0,4.0
1706276883.6030285,12.0,73.0,52.0,50.0,57.0,10.0,5.0,7.0
1706276883.6030285,-12.0,-61.0,-38.0,-23.0,-26.0,-17.0,-10.0,-6.0
1706276883.6030285,-3.0,63.0,52.0,41.0,30.0,9.0,0.0,-4.0
1706276883.633033,-5.0,-49.0,-61.0,-112.0,-53.0,-17.0,-5.0,-6.0
1706276883.633033,-6.0,-16.0,-22.0,-18.0,-16.0,-7.0,-6.0,-8.0
1706276883.633033,2.0,12.0,10.0,-36.0,-7.0,0.0,-2.0,-2.0
1706276883.633033,-12.0,-38.0,-18.0,19.0,-6.0,10.0,1.0,-3.0
1706276883.6431775,14.0,40.0,9.0,-4.0,-19.0,-11.0,-7.0,-1.0
1706276883.6431775,-9.0,-13.0,-13.0,-43.0,-53.0,-19.0,-5.0,3.0
1706276883.6630313,2.0,27.0,22.0,20.0,34.0,17.0,7.0,6.0
1706276883.6630313,0.0,-14.0,12.0,63.0,20.0,9.0,3.0,2.0
1706276883.6630313,5.0,13.0,-12.0,-41.0,-14.0,-11.0,-8.0,-7.0
1706276883.6630313,6.0,-6.0,-3.0,14.0,-7.0,-4.0,-2.0,-1.0
1706276883.6630313,7.0,7.0,10.0,6.0,21.0,9.0,3.0,1.0
1706276883.6630313,-15.0,-15.0,3.0,43.0,28.0,6.0,-3.0,-4.0
1706276883.6933591,0.0,17.0,-3.0,-31.0,-23.0,-6.0,0.0,1.0
1706276883.6933591,1.0,-16.0,-14.0,-15.0,-20.0,-7.0,0.0,-1.0
1706276883.6933591,7.0,11.0,9.0,19.0,4.0,-7.0,-6.0,-3.0
1706276883.6933591,-10.0,-10.0,4.0,14.0,22.0,11.0,7.0,1.0
1706276883.7230322,-12.0,-4.0,-8.0,-22.0,-13.0,-8.0,-8.0,-7.0
1706276883.7230322,-9.0,-25.0,-9.0,-8.0,-30.0,-13.0,0.0,-2.0
1706276883.7230322,9.0,17.0,13.0,12.0,26.0,11.0,5.0,0.0
1706276883.7230322,3.0,-8.0,-2.0,14.0,-1.0,-7.0,-2.0,2.0
1706276883.7230322,3.0,0.0,-3.0,-23.0,-16.0,-10.0,-1.0,1.0
1706276883.7230322,-2.0,-9.0,-2.0,8.0,3.0,13.0,6.0,0.0
1706276883.7230322,-4.0,6.0,-4.0,-4.0,9.0,-1.0,-2.0,-3.0
1706276883.7230322,9.0,3.0,0.0,6.0,-4.0,5.0,-5.0,0.0
1706276883.7534804,-13.0,-24.0,-11.0,-15.0,-16.0,-8.0,-5.0,-4.0
1706276883.7534804,2.0,2.0,3.0,-5.0,-11.0,-26.0,-12.0,-8.0
1706276883.7534804,2.0,-11.0,-15.0,-14.0,0.0,12.0,3.0,3.0
1706276883.7534804,0.0,-2.0,4.0,32.0,14.0,9.0,4.0,5.0
1706276883.7730281,2.0,9.0,-7.0,-20.0,17.0,10.0,7.0,2.0
1706276883.7730281,-6.0,-9.0,-5.0,27.0,-21.0,-14.0,-11.0,-8.0
1706276883.7730281,-1.0,2.0,8.0,19.0,10.0,5.0,2.0,1.0
1706276883.7730281,-9.0,-11.0,-12.0,-26.0,-39.0,-23.0,-9.0,-7.0
1706276883.7831035,4.0,10.0,6.0,19.0,-24.0,-5.0,-2.0,0.0
1706276883.7831035,3.0,1.0,-13.0,-115.0,-63.0,-22.0,-8.0,-4.0
1706276883.7831035,1.0,11.0,5.0,38.0,71.0,15.0,2.0,-1.0
1706276883.7831035,-21.0,-6.0,4.0,-54.0,-23.0,-2.0,1.0,-2.0
1706276883.8130305,-1.0,1.0,-9.0,-63.0,-17.0,-3.0,0.0,-3.0
1706276883.8130305,2.0,2.0,-2.0,64.0,26.0,8.0,-4.0,0.0
1706276883.8130305,1.0,-19.0,17.0,51.0,59.0,23.0,13.0,9.0
1706276883.8130305,6.0,28.0,21.0,-1.0,49.0,11.0,5.0,2.0
1706276883.833397,-3.0,-41.0,-12.0,-62.0,-8.0,-6.0,-4.0,-3.0
1706276883.833397,-8.0,27.0,-11.0,-8.0,-25.0,-8.0,-5.0,-8.0
1706276883.833397,22.0,38.0,15.0,-74.0,-26.0,-6.0,3.0,10.0
1706276883.833397,1.0,25.0,-6.0,127.0,38.0,9.0,0.0,-5.0
1706276883.8433995,-9.0,26.0,2.0,-82.0,-72.0,-21.0,-11.0,-8.0
1706276883.8433995,15.0,-9.0,39.0,62.0,100.0,45.0,19.0,15.0
1706276883.8433995,-16.0,-33.0,-46.0,-51.0,-43.0,-16.0,-7.0,-9.0
1706276883.8433995,11.0,39.0,31.0,-26.0,-2.0,1.0,2.0,3.0
1706276883.873031,4.0,1.0,15.0,12.0,-2.0,-2.0,-1.0,1.0
1706276883.873031,-9.0,-7.0,-22.0,-24.0,-17.0,-5.0,-4.0,-4.0
1706276883.873031,-2.0,-8.0,1.0,15.0,5.0,1.0,-2.0,-1.0
1706276883.873031,3.0,-15.0,-4.0,-23.0,-4.0,1.0,3.0,2.0
1706276883.8930285,5.0,9.0,1.0,48.0,23.0,1.0,-6.0,-2.0
1706276883.8930285,0.0,-13.0,4.0,-7.0,-15.0,-6.0,-3.0,-2.0
1706276883.8930285,-3.0,-5.0,1.0,14.0,-9.0,-2.0,1.0,0.0
1706276883.8930285,0.0,-14.0,-14.0,-3.0,-15.0,-4.0,-2.0,1.0
1706276883.903409,3.0,9.0,15.0,36.0,23.0,10.0,6.0,3.0
1706276883.903409,2.0,25.0,2.0,-18.0,-6.0,-6.0,-5.0,-3.0
1706276883.903409,-3.0,-14.0,-2.0,-27.0,-26.0,-11.0,-2.0,-4.0
1706276883.903409,18.0,29.0,11.0,-3.0,-1.0,4.0,9.0,11.0
1706276883.9333994,-1.0,-10.0,-11.0,6.0,-3.0,-19.0,-14.0,1.0
1706276883.9333994,-2.0,-4.0,2.0,-13.0,-1.0,3.0,-4.0,13.0
1706276883.9333994,-12.0,5.0,2.0,13.0,11.0,11.0,15.0,-24.0
1706276883.9333994,1.0,-24.0,-3.0,-1.0,0.0,-6.0,-16.0,-18.0
1706276883.953403,22.0,30.0,10.0,17.0,11.0,15.0,18.0,51.0
1706276883.953403,-28.0,-14.0,-4.0,-4.0,-4.0,11.0,0.0,-21.0
1706276883.953403,20.0,17.0,8.0,0.0,-11.0,-10.0,-5.0,15.0
1706276883.953403,-10.0,-25.0,-18.0,-14.0,-14.0,-24.0,-10.0,-24.0
1706276883.973027,-3.0,-4.0,-4.0,1.0,13.0,6.0,1.0,6.0
1706276883.973027,4.0,-3.0,-1.0,-3.0,9.0,23.0,16.0,3.0
1706276883.973027,-6.0,-11.0,-3.0,2.0,1.0,7.0,3.0,8.0
1706276883.973027,-1.0,-7.0,-9.0,-9.0,-8.0,-8.0,-3.0,4.0
1706276884.00303,-11.0,0.0,8.0,20.0,5.0,-7.0,-10.0,-16.0
1706276884.00303,-2.0,-15.0,-13.0,-8.0,1.0,-10.0,-1.0,-1.0
1706276884.0130267,-2.0,2.0,5.0,3.0,5.0,1.0,-9.0,-6.0
1706276884.0130267,-1.0,-12.0,-14.0,-15.0,-7.0,3.0,-7.0,-5.0
1706276884.0130267,2.0,0.0,-4.0,-24.0,-2.0,-2.0,6.0,-3.0
1706276884.0130267,2.0,-9.0,17.0,64.0,13.0,13.0,2.0,3.0
1706276884.0130267,1.0,7.0,2.0,30.0,28.0,10.0,0.0,0.0
1706276884.0130267,-4.0,-4.0,-5.0,-22.0,6.0,-3.0,2.0,7.0
1706276884.0232732,-13.0,-6.0,-13.0,-61.0,-70.0,-25.0,-18.0,-25.0
1706276884.0232732,12.0,11.0,14.0,27.0,57.0,19.0,12.0,10.0
1706276884.0232732,-11.0,-6.0,-34.0,-57.0,-74.0,-37.0,-22.0,-16.0
1706276884.0232732,-9.0,-20.0,29.0,127.0,106.0,51.0,19.0,6.0
1706276884.0704236,6.0,-3.0,-25.0,-85.0,-73.0,-16.0,-4.0,-3.0
1706276884.0704236,-3.0,6.0,-25.0,-46.0,-71.0,-30.0,-13.0,-9.0
1706276884.0704236,-17.0,-16.0,11.0,4.0,-26.0,-5.0,-4.0,-4.0
1706276884.0704236,4.0,1.0,-26.0,-73.0,-46.0,-3.0,0.0,3.0
1706276884.0756671,11.0,29.0,10.0,-33.0,11.0,2.0,1.0,-4.0
1706276884.0756671,12.0,25.0,17.0,29.0,46.0,4.0,0.0,4.0
1706276884.0756671,6.0,12.0,13.0,-85.0,-23.0,-5.0,1.0,5.0
1706276884.0756671,-9.0,-1.0,8.0,39.0,26.0,8.0,6.0,3.0
1706276884.0860224,-8.0,-82.0,-5.0,38.0,34.0,10.0,0.0,-3.0
1706276884.0860224,-4.0,46.0,-8.0,-50.0,-42.0,-20.0,-13.0,-9.0
1706276884.0860224,21.0,62.0,23.0,76.0,39.0,8.0,0.0,4.0
1706276884.0860224,-17.0,-70.0,-24.0,-33.0,-22.0,-9.0,-6.0,-8.0
1706276884.1156714,-1.0,25.0,16.0,63.0,17.0,6.0,3.0,-3.0
1706276884.1156714,-8.0,-50.0,-16.0,-10.0,-1.0,-2.0,-2.0,0.0
1706276884.1156714,-7.0,-13.0,-16.0,6.0,10.0,2.0,2.0,0.0
1706276884.1156714,4.0,13.0,4.0,-17.0,-30.0,-11.0,-2.0,1.0
1706276884.1359165,-18.0,-24.0,-23.0,41.0,19.0,2.0,-4.0,-10.0
1706276884.1359165,-2.0,-16.0,-11.0,-38.0,-40.0,-18.0,-8.0,-4.0
1706276884.1359165,-2.0,1.0,9.0,0.0,14.0,3.0,-2.0,0.0
1706276884.1359165,4.0,10.0,5.0,-26.0,-25.0,-7.0,2.0,2.0
1706276884.1459236,15.0,31.0,11.0,3.0,30.0,17.0,13.0,7.0
1706276884.1459236,4.0,6.0,10.0,4.0,5.0,-2.0,-3.0,-1.0
1706276884.1459236,-13.0,-66.0,-11.0,-3.0,-5.0,-1.0,3.0,-4.0
1706276884.1459236,-4.0,2.0,-9.0,1.0,7.0,7.0,7.0,5.0
1706276884.17567,5.0,19.0,23.0,20.0,11.0,1.0,-11.0,-15.0
1706276884.17567,-14.0,-35.0,-8.0,-2.0,-8.0,-6.0,-12.0,-12.0
1706276884.17567,11.0,21.0,6.0,13.0,5.0,-11.0,-3.0,4.0
1706276884.17567,28.0,18.0,1.0,-15.0,-16.0,-1.0,11.0,10.0
1706276884.1960387,-6.0,-8.0,-5.0,-6.0,-6.0,9.0,-2.0,-2.0
1706276884.1960387,8.0,1.0,-1.0,-8.0,-8.0,-29.0,-14.0,3.0
1706276884.1960387,-15.0,-2.0,1.0,-11.0,3.0,32.0,7.0,-13.0
1706276884.1960387,-6.0,5.0,5.0,1.0,9.0,5.0,-5.0,-12.0
1706276884.206026,-2.0,5.0,-6.0,1.0,-3.0,-15.0,-4.0,-19.0
1706276884.206026,23.0,7.0,2.0,7.0,11.0,12.0,-1.0,-9.0
1706276884.206026,-10.0,-4.0,-7.0,0.0,-4.0,-10.0,2.0,19.0
1706276884.206026,-1.0,2.0,2.0,2.0,-15.0,-22.0,-10.0,10.0
1706276884.2256682,-13.0,-12.0,-10.0,0.0,-7.0,7.0,10.0,7.0
1706276884.2256682,-6.0,-5.0,2.0,5.0,26.0,24.0,3.0,-6.0
1706276884.2256682,8.0,11.0,-6.0,-5.0,0.0,-3.0,-5.0,-13.0
1706276884.2256682,-2.0,-3.0,-1.0,-5.0,-6.0,6.0,3.0,5.0
1706276884.2560556,6.0,12.0,8.0,6.0,7.0,-7.0,-5.0,0.0
1706276884.2560556,-12.0,-8.0,0.0,2.0,0.0,0.0,5.0,0.0
1706276884.2560556,12.0,10.0,-12.0,-16.0,5.0,9.0,5.0,7.0
1706276884.2560556,-4.0,2.0,-21.0,-95.0,-47.0,-26.0,-15.0,-8.0
1706276884.2856686,-10.0,-3.0,9.0,85.0,36.0,15.0,7.0,2.0
1706276884.2856686,3.0,16.0,-21.0,-96.0,-88.0,-25.0,-3.0,0.0
1706276884.2856686,-18.0,-32.0,29.0,-57.0,8.0,9.0,9.0,9.0
1706276884.2856686,7.0,6.0,31.0,19.0,68.0,14.0,6.0,5.0
1706276884.2856686,-13.0,-14.0,-32.0,-36.0,-55.0,-8.0,-6.0,-9.0
1706276884.2856686,-2.0,-10.0,11.0,-48.0,27.0,9.0,8.0,7.0
1706276884.2856686,1.0,-2.0,6.0,110.0,58.0,9.0,-1.0,0.0
1706276884.2856686,-2.0,3.0,-4.0,3.0,18.0,9.0,4.0,-1.0
1706276884.315954,-2.0,27.0,9.0,-94.0,-22.0,-9.0,-7.0,-5.0
1706276884.315954,12.0,25.0,29.0,-55.0,-11.0,2.0,10.0,17.0
1706276884.315954,-3.0,-49.0,-30.0,-104.0,-46.0,-17.0,-7.0,-2.0
1706276884.315954,-2.0,56.0,25.0,89.0,8.0,10.0,-2.0,-8.0
1706276884.3260252,-3.0,-17.0,-2.0,55.0,41.0,2.0,-2.0,0.0
1706276884.3260252,-18.0,-31.0,-16.0,49.0,13.0,2.0,-2.0,-6.0
1706276884.3456705,10.0,42.0,5.0,-2.0,-14.0,-10.0,-4.0,-2.0
1706276884.3456705,-17.0,-63.0,-30.0,-69.0,-64.0,-16.0,-9.0,-8.0
1706276884.3456705,0.0,-1.0,2.0,-23.0,11.0,1.0,1.0,2.0
1706276884.3456705,1.0,16.0,0.0,30.0,1.0,0.0,0.0,0.0
1706276884.3456705,-5.0,-6.0,-8.0,7.0,-16.0,-8.0,-7.0,-7.0
1706276884.3456705,0.0,-5.0,2.0,19.0,17.0,4.0,0.0,0.0
1706276884.375927,3.0,-5.0,-2.0,0.0,-6.0,-2.0,4.0,6.0
1706276884.375927,0.0,-2.0,-2.0,13.0,12.0,10.0,5.0,3.0
1706276884.375927,1.0,9.0,-4.0,17.0,2.0,-2.0,-5.0,-3.0
1706276884.375927,-7.0,-22.0,-11.0,-14.0,-15.0,-7.0,-2.0,-4.0
1706276884.385846,6.0,4.0,8.0,11.0,17.0,13.0,8.0,6.0
1706276884.385846,-11.0,-4.0,-6.0,5.0,-9.0,-5.0,-11.0,-19.0
1706276884.3956676,0.0,3.0,-4.0,-22.0,-28.0,-38.0,-23.0,2.0
1706276884.3956676,-11.0,-2.0,-6.0,-1.0,-8.0,-11.0,-15.0,-9.0
1706276884.405998,-13.0,-4.0,-3.0,-17.0,-9.0,9.0,-2.0,-51.0
1706276884.405998,25.0,2.0,5.0,21.0,19.0,36.0,24.0,50.0
1706276884.405998,-20.0,-4.0,-1.0,10.0,1.0,7.0,10.0,-6.0
1706276884.405998,7.0,8.0,2.0,-4.0,8.0,22.0,-1.0,8.0
1706276884.4356716,-10.0,-8.0,-4.0,1.0,-4.0,-33.0,-29.0,-5.0
1706276884.4356716,-42.0,-14.0,-8.0,0.0,-13.0,-15.0,-6.0,-18.0
1706276884.4356716,23.0,8.0,-1.0,2.0,1.0,-2.0,-3.0,-7.0
1706276884.4356716,1.0,5.0,-1.0,1.0,-3.0,13.0,14.0,8.0
1706276884.4456692,12.0,-2.0,1.0,-5.0,9.0,11.0,3.0,17.0
1706276884.4456692,-5.0,1.0,0.0,17.0,7.0,-3.0,1.0,-18.0
1706276884.4557168,-3.0,-16.0,-11.0,-13.0,-21.0,-8.0,1.0,15.0
1706276884.4557168,-1.0,9.0,4.0,5.0,6.0,-6.0,-2.0,-12.0
1706276884.4659069,4.0,-10.0,7.0,11.0,15.0,12.0,6.0,11.0
1706276884.4659069,-3.0,-4.0,-5.0,-6.0,-2.0,-16.0,-7.0,-5.0
1706276884.4659069,11.0,12.0,4.0,-9.0,-12.0,11.0,3.0,2.0
1706276884.4659069,3.0,3.0,-17.0,-49.0,-2.0,-4.0,1.0,3.0
1706276884.5156732,-2.0,5.0,19.0,48.0,12.0,7.0,8.0,5.0
1706276884.5156732,7.0,3.0,2.0,61.0,-3.0,-9.0,-8.0,1.0
1706276884.5156732,-9.0,-9.0,10.0,17.0,65.0,13.0,3.0,-8.0
1706276884.5156732,9.0,15.0,-12.0,-35.0,-68.0,-20.0,-7.0,-5.0
1706276884.5156732,7.0,14.0,-10.0,-91.0,-28.0,-13.0,-1.0,10.0
1706276884.5156732,1.0,7.0,11.0,52.0,64.0,16.0,5.0,-1.0
1706276884.5156732,-2.0,2.0,-6.0,57.0,-19.0,0.0,-5.0,-6.0
1706276884.5156732,-3.0,-28.0,-8.0,18.0,-32.0,-11.0,-2.0,-2.0
1706276884.5257041,6.0,33.0,10.0,47.0,54.0,9.0,2.0,1.0
1706276884.5257041,2.0,8.0,-24.0,-28.0,-4.0,-7.0,-6.0,-2.0
1706276884.5257041,4.0,32.0,9.0,-48.0,-31.0,-9.0,-3.0,-1.0
1706276884.5257041,-2.0,-4.0,5.0,-59.0,3.0,-4.0,-3.0,0.0
1706276884.5656679,-5.0,-32.0,-4.0,78.0,7.0,4.0,0.0,-2.0
1706276884.5656679,-5.0,-26.0,-5.0,-21.0,-27.0,-10.0,-5.0,-3.0
1706276884.5656679,3.0,13.0,-2.0,8.0,6.0,6.0,3.0,2.0
1706276884.5656679,-12.0,-23.0,-6.0,-17.0,7.0,-6.0,-5.0,-8.0
1706276884.5656679,7.0,2.0,2.0,9.0,3.0,5.0,3.0,8.0
1706276884.5656679,-1.0,1.0,2.0,-32.0,-27.0,-9.0,-3.0,-2.0
1706276884.5786014,-5.0,-35.0,-20.0,-11.0,-4.0,-3.0,-4.0,-4.0
1706276884.5786014,1.0,32.0,20.0,49.0,20.0,9.0,5.0,2.0
1706276884.593591,-11.0,-30.0,-26.0,-56.0,-37.0,-17.0,-7.0,-4.0
1706276884.593591,6.0,-7.0,4.0,18.0,26.0,15.0,7.0,6.0
1706276884.593591,-2.0,6.0,0.0,-17.0,-13.0,-3.0,0.0,-2.0
1706276884.5945408,1.0,-1.0,0.0,13.0,18.0,4.0,5.0,0.0
1706276884.609013,-1.0,14.0,1.0,-11.0,-11.0,-8.0,-2.0,1.0
1706276884.609013,1.0,-5.0,-3.0,-30.0,-25.0,-8.0,-4.0,-5.0
1706276884.609013,-6.0,-2.0,8.0,11.0,18.0,9.0,8.0,11.0
1706276884.609013,-7.0,10.0,-12.0,7.0,1.0,-3.0,3.0,3.0
1706276884.6394253,-7.0,-5.0,6.0,-10.0,-10.0,4.0,7.0,-15.0
1706276884.6394253,-7.0,-6.0,-3.0,-7.0,-12.0,-16.0,-19.0,-14.0
1706276884.6394253,-12.0,-19.0,-9.0,-17.0,-14.0,-16.0,-14.0,11.0
1706276884.6394253,10.0,11.0,11.0,26.0,29.0,25.0,10.0,-23.0
1706276884.6494825,-23.0,-10.0,-8.0,-23.0,-20.0,-6.0,7.0,-8.0
1706276884.6494825,-3.0,7.0,3.0,-8.0,2.0,14.0,15.0,28.0
1706276884.6494825,17.0,9.0,4.0,6.0,-3.0,-6.0,1.0,-13.0
1706276884.6494825,1.0,-9.0,1.0,3.0,10.0,16.0,-8.0,2.0
1706276884.669496,18.0,11.0,6.0,2.0,7.0,4.0,5.0,-6.0
1706276884.669496,-16.0,-6.0,-2.0,-9.0,-16.0,-20.0,5.0,27.0
1706276884.669496,10.0,-5.0,-3.0,2.0,4.0,7.0,-14.0,-9.0
1706276884.669496,-7.0,-8.0,-4.0,4.0,-3.0,-12.0,3.0,14.0
1706276884.6995246,0.0,2.0,-3.0,-15.0,-17.0,-8.0,-8.0,-8.0
1706276884.6995246,-2.0,2.0,-1.0,0.0,2.0,-7.0,-6.0,-14.0
1706276884.6995246,-4.0,1.0,6.0,2.0,-1.0,-1.0,4.0,-2.0
1706276884.6995246,8.0,10.0,-4.0,-1.0,2.0,-5.0,-7.0,-3.0
1706276884.7098587,-12.0,-7.0,-4.0,-4.0,-5.0,2.0,0.0,7.0
1706276884.7098587,11.0,2.0,8.0,1.0,5.0,10.0,3.0,-5.0
1706276884.7098587,-10.0,-1.0,-7.0,-21.0,-12.0,-5.0,0.0,-11.0
1706276884.7098587,4.0,7.0,5.0,14.0,16.0,4.0,0.0,-1.0
1706276884.7294958,-3.0,-4.0,-10.0,-34.0,-18.0,-11.0,-10.0,1.0
1706276884.7294958,6.0,9.0,13.0,39.0,31.0,14.0,5.0,-1.0
1706276884.7395272,2.0,-1.0,-5.0,-46.0,-17.0,-5.0,-1.0,-3.0
1706276884.7395272,-6.0,-10.0,14.0,83.0,39.0,6.0,3.0,6.0
1706276884.7594957,13.0,9.0,-9.0,-21.0,-12.0,-8.0,-6.0,12.0
1706276884.7594957,2.0,-5.0,-31.0,-70.0,-31.0,-9.0,-3.0,-6.0
1706276884.7594957,-13.0,-11.0,11.0,95.0,17.0,2.0,-3.0,-4.0
1706276884.7594957,-3.0,1.0,-2.0,-55.0,-58.0,-20.0,-10.0,-7.0
1706276884.7794921,14.0,14.0,-7.0,6.0,15.0,13.0,4.0,9.0
1706276884.7794921,-3.0,-6.0,75.0,100.0,62.0,18.0,5.0,-8.0
1706276884.7794921,-6.0,-11.0,-25.0,-30.0,-8.0,-5.0,1.0,-4.0
1706276884.7794921,-6.0,-27.0,18.0,-79.0,-62.0,-26.0,-14.0,-7.0
1706276884.789717,-6.0,15.0,62.0,26.0,3.0,-1.0,-6.0,-3.0
1706276884.789717,-6.0,-33.0,-17.0,-11.0,-23.0,-4.0,-4.0,-2.0
1706276884.789717,16.0,40.0,9.0,24.0,27.0,23.0,20.0,22.0
1706276884.789717,-26.0,-68.0,-68.0,-61.0,-19.0,-30.0,-21.0,-11.0
1706276884.8195136,2.0,4.0,16.0,-18.0,3.0,10.0,4.0,-2.0
1706276884.8195136,-24.0,4.0,30.0,-2.0,-15.0,-16.0,-3.0,-6.0
1706276884.8195136,25.0,13.0,34.0,1.0,16.0,17.0,1.0,-8.0
1706276884.8195136,4.0,22.0,7.0,28.0,14.0,6.0,10.0,28.0
1706276884.8394933,-27.0,-46.0,-103.0,-25.0,-21.0,-19.0,-6.0,-7.0
1706276884.8394933,2.0,26.0,54.0,3.0,6.0,7.0,7.0,-12.0
1706276884.8394933,-6.0,-48.0,-57.0,-23.0,-14.0,-37.0,-33.0,14.0
1706276884.8394933,-5.0,9.0,71.0,12.0,4.0,16.0,15.0,22.0
1706276884.8496993,1.0,-1.0,-5.0,-10.0,9.0,18.0,8.0,-6.0
1706276884.8496993,-28.0,-48.0,-90.0,-34.0,-15.0,-15.0,-16.0,-31.0
1706276884.8496993,1.0,28.0,71.0,-18.0,-8.0,-8.0,-1.0,0.0
1706276884.8496993,-27.0,-20.0,4.0,24.0,9.0,-19.0,-10.0,-25.0
1706276884.8794975,7.0,16.0,-1.0,19.0,6.0,-8.0,-5.0,-3.0
1706276884.8794975,13.0,-28.0,-78.0,-29.0,-12.0,13.0,10.0,27.0
1706276884.8794975,1.0,9.0,-6.0,16.0,11.0,10.0,12.0,2.0
1706276884.8794975,23.0,16.0,-19.0,3.0,5.0,7.0,0.0,2.0
1706276884.9094934,5.0,8.0,31.0,23.0,13.0,9.0,6.0,0.0
1706276884.9094934,-4.0,14.0,-14.0,-18.0,-19.0,-11.0,-7.0,-19.0
1706276884.9094934,-1.0,-11.0,-5.0,-15.0,-19.0,-13.0,-3.0,18.0
1706276884.9094934,18.0,20.0,23.0,26.0,19.0,8.0,6.0,9.0
1706276884.9094934,1.0,-3.0,-10.0,15.0,17.0,24.0,0.0,-6.0
1706276884.9094934,14.0,22.0,26.0,4.0,3.0,2.0,-4.0,-5.0
1706276884.9094934,6.0,3.0,12.0,3.0,-5.0,1.0,1.0,9.0
1706276884.9094934,-8.0,-5.0,-29.0,-29.0,-5.0,6.0,6.0,-15.0
1706276884.9394994,-8.0,-5.0,16.0,30.0,2.0,-3.0,-3.0,3.0
1706276884.9394994,-5.0,10.0,22.0,-12.0,-11.0,-5.0,-4.0,3.0
1706276884.9394994,-3.0,6.0,17.0,4.0,9.0,14.0,5.0,-12.0
1706276884.9394994,-2.0,-5.0,-39.0,60.0,19.0,2.0,-5.0,-24.0
1706276884.9494965,1.0,0.0,22.0,-76.0,-25.0,-17.0,-2.0,1.0
1706276884.9494965,8.0,23.0,23.0,2.0,0.0,8.0,2.0,8.0
1706276884.9494965,-22.0,-37.0,-56.0,20.0,9.0,-6.0,-3.0,-13.0
1706276884.9494965,11.0,25.0,40.0,-10.0,-2.0,4.0,1.0,8.0
1706276884.9697425,4.0,2.0,11.0,26.0,5.0,-2.0,-4.0,5.0
1706276884.9697425,4.0,-4.0,-15.0,-11.0,-2.0,-8.0,-3.0,3.0
1706276884.9697425,-1.0,6.0,18.0,21.0,3.0,7.0,6.0,9.0
1706276884.9697425,21.0,27.0,44.0,26.0,9.0,5.0,0.0,0.0
1706276884.9994977,-9.0,-21.0,-39.0,3.0,9.0,1.0,-1.0,-2.0
1706276884.9994977,-5.0,-4.0,-20.0,-28.0,-26.0,-14.0,-12.0,-8.0
1706276884.9994977,1.0,12.0,8.0,8.0,11.0,6.0,3.0,-4.0
1706276884.9994977,-17.0,-16.0,-27.0,-42.0,-14.0,-6.0,-1.0,-2.0
1706276885.0294936,14.0,21.0,42.0,-5.0,-16.0,-6.0,-1.0,9.0
1706276885.0294936,7.0,10.0,37.0,7.0,-18.0,-7.0,-5.0,-3.0
1706276885.0294936,-3.0,2.0,17.0,51.0,46.0,10.0,4.0,3.0
1706276885.0294936,-6.0,-22.0,-21.0,-74.0,-20.0,-9.0,-12.0,-8.0
1706276885.0294936,4.0,6.0,-11.0,54.0,36.0,8.0,4.0,6.0
1706276885.0294936,1.0,10.0,4.0,-23.0,-14.0,1.0,2.0,3.0
1706276885.0294936,-12.0,-42.0,-97.0,-43.0,-19.0,-7.0,-4.0,1.0
1706276885.0294936,-4.0,5.0,10.0,-15.0,9.0,4.0,-1.0,-2.0
1706276885.0594962,1.0,5.0,-29.0,-21.0,-27.0,-11.0,-8.0,-2.0
1706276885.0594962,5.0,7.0,45.0,26.0,32.0,13.0,5.0,5.0
1706276885.0594962,10.0,23.0,-5.0,-23.0,-3.0,-3.0,-4.0,-2.0
1706276885.0594962,0.0,-4.0,-8.0,38.0,6.0,3.0,3.0,2.0
1706276885.0695271,-15.0,-25.0,-20.0,-20.0,-18.0,-11.0,-5.0,-4.0
1706276885.0695271,1.0,-1.0,-14.0,9.0,7.0,-2.0,-2.0,0.0
1706276885.0695271,-5.0,-3.0,13.0,-17.0,-20.0,-5.0,-4.0,-11.0
1706276885.0695271,-4.0,-5.0,-6.0,3.0,-1.0,-1.0,-3.0,-7.0
1706276885.089764,-4.0,0.0,27.0,12.0,5.0,-1.0,-2.0,-4.0
1706276885.089764,3.0,-5.0,-5.0,10.0,2.0,1.0,3.0,3.0
1706276885.089764,-15.0,-8.0,20.0,5.0,-3.0,1.0,5.0,-8.0
1706276885.089764,12.0,11.0,9.0,2.0,-2.0,-1.0,-2.0,-3.0
1706276885.125915,-8.0,-6.0,8.0,0.0,13.0,10.0,-7.0,-18.0
1706276885.125915,3.0,5.0,5.0,19.0,-3.0,-4.0,2.0,-7.0
1706276885.1269166,-3.0,2.0,-3.0,-29.0,-8.0,2.0,9.0,1.0
1706276885.1269166,-3.0,2.0,-20.0,-21.0,-9.0,-6.0,-1.0,6.0
1706276885.133686,8.0,11.0,8.0,-31.0,-3.0,-1.0,-5.0,10.0
1706276885.134751,-16.0,-35.0,-38.0,45.0,23.0,10.0,8.0,-2.0
1706276885.134751,2.0,2.0,32.0,-23.0,-14.0,-7.0,-9.0,-9.0
1706276885.134751,5.0,21.0,13.0,43.0,4.0,7.0,13.0,9.0
1706276885.151682,-2.0,-12.0,-3.0,13.0,3.0,2.0,3.0,1.0
1706276885.151682,2.0,-9.0,-15.0,4.0,-6.0,-11.0,-8.0,4.0
1706276885.151682,2.0,8.0,10.0,5.0,-8.0,-4.0,-1.0,-2.0
1706276885.151682,-1.0,0.0,-39.0,-14.0,0.0,-4.0,-6.0,-1.0
1706276885.2017124,-2.0,-7.0,23.0,11.0,-3.0,0.0,12.0,1.0
1706276885.2017124,-1.0,6.0,14.0,-23.0,-8.0,-8.0,-12.0,-4.0
1706276885.2017124,-3.0,3.0,-44.0,-11.0,3.0,2.0,-4.0,-8.0
1706276885.2017124,-16.0,-23.0,6.0,-21.0,-15.0,-14.0,-14.0,-22.0
1706276885.2017124,7.0,11.0,-5.0,8.0,10.0,2.0,-5.0,0.0
1706276885.2017124,3.0,-17.0,-29.0,-37.0,-14.0,3.0,20.0,17.0
1706276885.2017124,-4.0,13.0,39.0,2.0,7.0,-10.0,-21.0,-14.0
1706276885.2017124,-17.0,-33.0,-4.0,26.0,-14.0,-10.0,-7.0,-7.0
1706276885.211972,-15.0,-31.0,-38.0,-66.0,-33.0,-17.0,-5.0,0.0
1706276885.211972,5.0,31.0,60.0,-19.0,-19.0,-6.0,-11.0,-9.0
1706276885.211972,3.0,7.0,-5.0,36.0,12.0,5.0,11.0,8.0
1706276885.211972,-7.0,-14.0,-43.0,-48.0,5.0,-1.0,-7.0,0.0
1706276885.241712,-2.0,-12.0,-45.0,9.0,15.0,4.0,4.0,0.0
1706276885.241712,6.0,5.0,-10.0,-4.0,-1.0,-3.0,-1.0,3.0
1706276885.241712,-1.0,-5.0,5.0,-10.0,-17.0,-5.0,-2.0,-1.0
1706276885.241712,8.0,13.0,33.0,20.0,0.0,2.0,4.0,5.0
1706276885.2517152,1.0,10.0,27.0,-1.0,-12.0,-6.0,-3.0,-1.0
1706276885.2517152,-3.0,-3.0,-17.0,-2.0,12.0,7.0,-1.0,-3.0
1706276885.2617624,4.0,3.0,3.0,20.0,13.0,4.0,3.0,3.0
1706276885.2617624,0.0,6.0,-1.0,-8.0,6.0,2.0,-3.0,-1.0
1706276885.2721498,-2.0,-11.0,-14.0,8.0,-3.0,-1.0,0.0,-4.0
1706276885.2721498,-8.0,-14.0,-11.0,36.0,9.0,-3.0,-14.0,-6.0
1706276885.2721498,-7.0,-28.0,-10.0,3.0,-8.0,-2.0,-1.0,1.0
1706276885.2721498,7.0,21.0,29.0,-10.0,0.0,14.0,11.0,5.0
1706276885.291747,-13.0,3.0,-12.0,-41.0,-18.0,-34.0,-1.0,-10.0
1706276885.291747,0.0,9.0,4.0,7.0,1.0,3.0,-2.0,4.0
1706276885.291747,-1.0,-16.0,11.0,14.0,-2.0,2.0,6.0,8.0
1706276885.291747,-6.0,3.0,-16.0,-44.0,-6.0,-7.0,0.0,-3.0
1706276885.3121572,15.0,9.0,-2.0,25.0,4.0,6.0,-8.0,-13.0
1706276885.3121572,9.0,-8.0,-2.0,7.0,1.0,-3.0,-4.0,15.0
1706276885.3217564,-4.0,9.0,13.0,-5.0,-8.0,0.0,9.0,-10.0
1706276885.3217564,-2.0,3.0,4.0,33.0,12.0,7.0,-1.0,3.0
1706276885.332095,-3.0,-1.0,8.0,6.0,1.0,1.0,-2.0,-3.0
1706276885.332095,0.0,1.0,-2.0,-11.0,5.0,-1.0,2.0,5.0
1706276885.332095,-3.0,-14.0,-65.0,-34.0,-6.0,-3.0,-7.0,-5.0
1706276885.332095,11.0,27.0,104.0,54.0,3.0,-4.0,2.0,5.0
1706276885.3517475,-9.0,-28.0,9.0,-22.0,-9.0,-4.0,-12.0,0.0
1706276885.3517475,-2.0,-10.0,18.0,2.0,4.0,4.0,7.0,-5.0
1706276885.3517475,-3.0,-14.0,-39.0,2.0,6.0,3.0,-8.0,-2.0
1706276885.3517475,11.0,3.0,33.0,24.0,6.0,5.0,3.0,2.0
1706276885.3721569,-3.0,-5.0,-63.0,-27.0,-6.0,-3.0,5.0,5.0
1706276885.3721569,0.0,11.0,15.0,-20.0,-5.0,4.0,-7.0,-7.0
1706276885.3721569,-2.0,1.0,-25.0,0.0,3.0,-8.0,-7.0,-8.0
1706276885.3721569,-3.0,-14.0,-20.0,-4.0,-9.0,-8.0,1.0,6.0
1706276885.3917143,12.0,19.0,29.0,30.0,15.0,13.0,2.0,8.0
1706276885.3917143,-3.0,3.0,-21.0,20.0,15.0,2.0,1.0,-6.0
1706276885.4019213,-2.0,-2.0,40.0,-8.0,-8.0,-1.0,-1.0,3.0
1706276885.4019213,3.0,21.0,-24.0,-11.0,-3.0,-3.0,0.0,-1.0
1706276885.4118807,-5.0,-24.0,-3.0,1.0,-6.0,-3.0,-5.0,-1.0
1706276885.4118807,1.0,42.0,21.0,-11.0,-8.0,2.0,-4.0,-13.0
1706276885.4118807,-3.0,6.0,22.0,10.0,-5.0,-8.0,4.0,8.0
1706276885.4118807,2.0,-20.0,-15.0,-4.0,6.0,2.0,-11.0,5.0
1706276885.4317794,13.0,32.0,44.0,58.0,9.0,-5.0,9.0,18.0
1706276885.4317794,-16.0,-21.0,-27.0,-48.0,-12.0,1.0,-8.0,-21.0
1706276885.4417331,9.0,27.0,21.0,-47.0,-8.0,-8.0,18.0,14.0
1706276885.4417331,-8.0,-16.0,-38.0,-20.0,-7.0,5.0,6.0,-4.0
1706276885.4617116,1.0,31.0,31.0,10.0,12.0,8.0,0.0,-6.0
1706276885.4617116,-5.0,-11.0,-10.0,-7.0,-12.0,-14.0,-12.0,-9.0
1706276885.4617116,7.0,7.0,37.0,54.0,17.0,11.0,-1.0,0.0
1706276885.4617116,-19.0,-25.0,-41.0,-28.0,-22.0,-16.0,-7.0,-10.0
1706276885.4719942,19.0,21.0,64.0,12.0,13.0,11.0,4.0,8.0
1706276885.4719942,-19.0,-57.0,-87.0,-20.0,-9.0,-9.0,-5.0,-5.0
1706276885.4719942,9.0,18.0,111.0,53.0,21.0,10.0,4.0,1.0
1706276885.4719942,16.0,29.0,-22.0,-17.0,3.0,4.0,7.0,13.0
1706276885.4920552,-17.0,-27.0,-7.0,-2.0,-7.0,-3.0,-14.0,-13.0
1706276885.4920552,-5.0,-9.0,-65.0,-34.0,-11.0,-9.0,-1.0,3.0
1706276885.5017192,21.0,54.0,74.0,28.0,16.0,18.0,16.0,15.0
1706276885.5017192,-17.0,-45.0,-76.0,-30.0,-3.0,-9.0,-8.0,-12.0
1706276885.5217142,9.0,21.0,-15.0,11.0,4.0,8.0,6.0,5.0
1706276885.5217142,2.0,-1.0,-40.0,4.0,4.0,2.0,7.0,10.0
1706276885.5217142,-11.0,-23.0,-24.0,-28.0,-18.0,-11.0,-10.0,-9.0
1706276885.5217142,7.0,16.0,54.0,61.0,22.0,12.0,0.0,-1.0
1706276885.531748,-5.0,13.0,5.0,-23.0,-13.0,-5.0,-2.0,-5.0
1706276885.531748,9.0,-1.0,5.0,-2.0,7.0,3.0,6.0,11.0
1706276885.531748,5.0,14.0,-24.0,-5.0,-8.0,-4.0,-10.0,-5.0
1706276885.531748,-25.0,-32.0,-9.0,-2.0,-5.0,-4.0,-2.0,-9.0
1706276885.5617151,1.0,-35.0,-22.0,-1.0,-3.0,-5.0,1.0,4.0
1706276885.5617151,-1.0,19.0,52.0,27.0,4.0,4.0,-5.0,-3.0
1706276885.5617151,-19.0,-30.0,-57.0,-16.0,-4.0,11.0,11.0,-10.0
1706276885.5617151,16.0,14.0,40.0,-14.0,-4.0,-30.0,-16.0,7.0
1706276885.5717137,4.0,26.0,29.0,31.0,3.0,1.0,3.0,-6.0
1706276885.5717137,-10.0,5.0,20.0,-26.0,3.0,7.0,7.0,-10.0
1706276885.5717137,-18.0,-37.0,-51.0,29.0,-3.0,3.0,4.0,-6.0
1706276885.5717137,16.0,-5.0,-9.0,-10.0,-10.0,-7.0,-7.0,6.0
1706276885.5920267,-10.0,-20.0,-12.0,21.0,-4.0,4.0,11.0,3.0
1706276885.5920267,6.0,12.0,30.0,0.0,9.0,-2.0,-9.0,-2.0
1706276885.5920267,-6.0,2.0,-25.0,-32.0,-20.0,-8.0,-12.0,-10.0
1706276885.5920267,-3.0,9.0,12.0,22.0,18.0,10.0,2.0,-6.0
1706276885.6377125,-1.0,0.0,-6.0,-20.0,-13.0,-9.0,-9.0,4.0
1706276885.6377125,8.0,11.0,41.0,67.0,40.0,22.0,17.0,8.0
1706276885.6377125,4.0,-13.0,-24.0,-28.0,-1.0,-9.0,-6.0,-2.0
1706276885.6377125,-4.0,-12.0,-24.0,8.0,7.0,8.0,5.0,2.0
1706276885.6377125,0.0,-3.0,27.0,-31.0,-1.0,1.0,4.0,0.0
1706276885.6377125,-9.0,-11.0,-65.0,-2.0,-25.0,-19.0,-10.0,-4.0
1706276885.6377125,4.0,-5.0,28.0,-21.0,-7.0,-6.0,-8.0,-4.0
1706276885.6377125,7.0,21.0,59.0,33.0,5.0,10.0,6.0,1.0
1706276885.6579266,-16.0,-24.0,-49.0,-10.0,-4.0,-1.0,-3.0,-9.0
1706276885.6579266,16.0,31.0,77.0,24.0,-6.0,0.0,7.0,11.0
1706276885.6579266,-10.0,-17.0,-38.0,-25.0,-10.0,-14.0,-13.0,-3.0
1706276885.6579266,-6.0,-2.0,-2.0,2.0,-8.0,2.0,-2.0,-7.0
1706276885.6879275,2.0,2.0,1.0,0.0,3.0,4.0,0.0,0.0
1706276885.6879275,6.0,6.0,32.0,21.0,6.0,2.0,-1.0,4.0
1706276885.6879275,1.0,8.0,8.0,-7.0,-9.0,-6.0,-4.0,0.0
1706276885.6879275,-6.0,-10.0,-6.0,4.0,4.0,4.0,4.0,0.0
1706276885.6879275,3.0,11.0,-4.0,-23.0,-7.0,-4.0,-1.0,0.0
1706276885.6879275,-1.0,-12.0,-15.0,0.0,-4.0,-2.0,-3.0,-3.0
1706276885.6879275,-2.0,-1.0,9.0,16.0,9.0,-1.0,-2.0,0.0
1706276885.6879275,-1.0,1.0,-19.0,-20.0,-10.0,-2.0,0.0,-1.0
1706276885.7183697,-6.0,-10.0,-6.0,-6.0,-5.0,-5.0,-5.0,-3.0
1706276885.7183697,-5.0,-11.0,-8.0,-4.0,-8.0,-6.0,-1.0,-4.0
1706276885.7183697,-1.0,-1.0,0.0,-5.0,-1.0,-1.0,-3.0,-4.0
1706276885.7183697,-7.0,-11.0,7.0,2.0,1.0,0.0,-2.0,-4.0
1706276885.737924,8.0,7.0,2.0,4.0,0.0,-1.0,1.0,6.0
1706276885.737924,-13.0,-1.0,-8.0,-4.0,-1.0,-2.0,-7.0,-10.0
1706276885.737924,9.0,0.0,-8.0,11.0,-4.0,-8.0,-11.0,1.0
1706276885.737924,0.0,7.0,-10.0,-18.0,-6.0,7.0,30.0,8.0
1706276885.7481518,0.0,-16.0,6.0,7.0,-8.0,-11.0,-30.0,-15.0
1706276885.7481518,1.0,-11.0,-18.0,-31.0,-7.0,-4.0,11.0,11.0
1706276885.758162,2.0,20.0,25.0,20.0,4.0,3.0,-4.0,-1.0
1706276885.758162,-1.0,5.0,-1.0,-9.0,-4.0,-7.0,3.0,-1.0
1706276885.7782602,-5.0,-8.0,-7.0,-16.0,20.0,15.0,10.0,0.0
1706276885.7782602,2.0,4.0,-4.0,14.0,-6.0,-4.0,-8.0,-3.0
1706276885.7782602,-1.0,1.0,-8.0,-3.0,-12.0,-7.0,1.0,0.0
1706276885.7782602,-1.0,-15.0,-10.0,-8.0,-8.0,-3.0,-7.0,-1.0
1706276885.8179226,-2.0,7.0,5.0,3.0,-14.0,-7.0,2.0,3.0
1706276885.8179226,1.0,-5.0,-25.0,-8.0,-4.0,1.0,-3.0,0.0
1706276885.8179226,-3.0,-5.0,7.0,7.0,21.0,17.0,8.0,2.0
1706276885.8179226,0.0,5.0,38.0,20.0,4.0,1.0,-1.0,2.0
1706276885.8179226,6.0,12.0,2.0,-2.0,4.0,-2.0,-10.0,-4.0
1706276885.8179226,-9.0,-27.0,-5.0,-8.0,-13.0,-7.0,4.0,-4.0
1706276885.8179226,7.0,21.0,6.0,5.0,4.0,2.0,3.0,4.0
1706276885.8179226,-1.0,7.0,-40.0,-15.0,-9.0,-5.0,-9.0,-5.0
1706276885.8379264,-9.0,-15.0,-24.0,-18.0,-4.0,-4.0,-3.0,-3.0
1706276885.8379264,5.0,11.0,-9.0,1.0,8.0,4.0,3.0,4.0
1706276885.8379264,1.0,-2.0,-10.0,-8.0,-5.0,-1.0,-1.0,-1.0
1706276885.8379264,-4.0,1.0,10.0,13.0,4.0,-1.0,-8.0,-5.0
1706276885.858221,1.0,3.0,3.0,4.0,3.0,4.0,9.0,3.0
1706276885.858221,1.0,5.0,0.0,-5.0,-2.0,1.0,-4.0,-4.0
1706276885.858221,-9.0,-17.0,-5.0,-12.0,-4.0,-4.0,-5.0,-5.0
1706276885.858221,0.0,1.0,-3.0,-1.0,-6.0,-3.0,-3.0,-1.0
1706276885.868191,-1.0,-6.0,-3.0,1.0,3.0,2.0,2.0,-1.0
1706276885.868191,2.0,2.0,22.0,13.0,7.0,5.0,0.0,0.0
1706276885.8780856,-3.0,-2.0,-5.0,-2.0,-4.0,-3.0,-1.0,1.0
1706276885.8780856,2.0,1.0,5.0,-5.0,-4.0,-2.0,-4.0,-5.0
1706276885.8979332,-11.0,-1.0,-8.0,-3.0,0.0,-1.0,2.0,0.0
1706276885.8979332,4.0,2.0,9.0,-1.0,-6.0,-2.0,-1.0,0.0
1706276885.8979332,-1.0,-2.0,0.0,0.0,3.0,3.0,-2.0,-1.0
1706276885.8979332,-2.0,-4.0,-6.0,1.0,1.0,-4.0,-9.0,-6.0
1706276885.9179237,4.0,2.0,3.0,8.0,5.0,2.0,-3.0,-2.0
1706276885.9179237,-1.0,2.0,10.0,2.0,1.0,3.0,6.0,7.0
1706276885.9179237,-7.0,-6.0,-11.0,-13.0,-10.0,-3.0,14.0,2.0
1706276885.9179237,4.0,-2.0,7.0,1.0,-4.0,-4.0,-18.0,-5.0
1706276885.9283159,3.0,4.0,-6.0,-6.0,-5.0,-8.0,-12.0,-5.0
1706276885.9283159,1.0,-7.0,2.0,9.0,0.0,0.0,2.0,0.0
1706276885.9382782,1.0,2.0,-4.0,-16.0,1.0,0.0,2.0,-1.0
1706276885.9382782,-3.0,-2.0,2.0,0.0,-5.0,2.0,3.0,0.0
1706276885.9579265,3.0,2.0,5.0,30.0,-3.0,-4.0,4.0,0.0
1706276885.9579265,5.0,5.0,-3.0,-13.0,24.0,10.0,-7.0,-1.0
1706276885.9579265,-12.0,-19.0,4.0,-6.0,5.0,-2.0,-3.0,-4.0
1706276885.9579265,0.0,7.0,-6.0,1.0,4.0,1.0,2.0,1.0
1706276885.9783409,-10.0,-19.0,-3.0,-15.0,-17.0,-7.0,-4.0,-6.0
1706276885.9783409,-3.0,1.0,0.0,6.0,-10.0,-5.0,1.0,-3.0
1706276885.9783409,-2.0,1.0,-6.0,-4.0,-3.0,-3.0,-6.0,-2.0
1706276885.9783409,-1.0,-1.0,5.0,0.0,4.0,5.0,4.0,2.0
1706276885.9882984,0.0,4.0,-9.0,-1.0,-1.0,-2.0,-1.0,-1.0
1706276885.9882984,-2.0,1.0,8.0,6.0,-2.0,-3.0,-3.0,-1.0
1706276886.0079234,0.0,-5.0,-5.0,-8.0,-2.0,1.0,-1.0,-1.0
1706276886.0079234,2.0,3.0,12.0,21.0,9.0,0.0,1.0,-1.0
1706276886.0181794,-2.0,-5.0,1.0,-55.0,-29.0,-4.0,1.0,0.0
1706276886.0181794,0.0,7.0,40.0,55.0,21.0,5.0,-2.0,-3.0
1706276886.0181794,9.0,37.0,42.0,-1.0,15.0,4.0,2.0,6.0
1706276886.0181794,-10.0,-31.0,-71.0,48.0,49.0,10.0,1.0,-5.0
1706276886.0382087,-10.0,-21.0,-21.0,2.0,24.0,9.0,-1.0,-5.0
1706276886.0382087,1.0,-4.0,-19.0,-42.0,-42.0,-14.0,-5.0,-3.0
1706276886.0382087,4.0,-4.0,-50.0,-18.0,-23.0,-8.0,-2.0,0.0
1706276886.0382087,-5.0,0.0,43.0,-28.0,-23.0,-7.0,-1.0,-3.0
1706276886.0580823,1.0,6.0,-34.0,-58.0,-18.0,-2.0,-2.0,-1.0
1706276886.0580823,-12.0,-21.0,-12.0,5.0,-2.0,-7.0,-11.0,-11.0
1706276886.0580823,-3.0,1.0,-4.0,27.0,7.0,-4.0,-10.0,-6.0
1706276886.0580823,7.0,12.0,19.0,-26.0,-22.0,-4.0,0.0,3.0
1706276886.0879252,7.0,10.0,-25.0,38.0,13.0,0.0,3.0,3.0
1706276886.0879252,1.0,4.0,23.0,-22.0,-19.0,-1.0,4.0,2.0
1706276886.0879252,1.0,-8.0,-43.0,41.0,34.0,10.0,2.0,2.0
1706276886.0879252,-2.0,3.0,4.0,-1.0,-1.0,-9.0,-6.0,-3.0
1706276886.097972,-15.0,-15.0,-10.0,-16.0,-20.0,-13.0,-3.0,1.0
1706276886.097972,17.0,9.0,43.0,12.0,7.0,6.0,-2.0,0.0
1706276886.097972,-4.0,1.0,26.0,-4.0,-20.0,-5.0,1.0,5.0
1706276886.097972,6.0,-8.0,-30.0,-3.0,-5.0,-4.0,-9.0,-6.0
1706276886.1082184,15.0,18.0,31.0,19.0,0.0,-3.0,-1.0,4.0
1706276886.1082184,-5.0,-1.0,-20.0,-26.0,-1.0,-4.0,5.0,19.0
1706276886.137923,17.0,-12.0,-1.0,-23.0,-10.0,-1.0,0.0,2.0
1706276886.137923,-5.0,7.0,28.0,13.0,3.0,2.0,6.0,-9.0
1706276886.137923,12.0,10.0,24.0,63.0,20.0,7.0,7.0,6.0
1706276886.137923,2.0,0.0,7.0,-20.0,4.0,6.0,0.0,5.0
1706276886.137923,-4.0,-5.0,-4.0,-30.0,-18.0,-29.0,-13.0,-21.0
1706276886.137923,2.0,-4.0,-10.0,3.0,-2.0,12.0,28.0,21.0
1706276886.1581683,-3.0,1.0,-4.0,-58.0,-6.0,-3.0,-33.0,-4.0
1706276886.1581683,-1.0,-13.0,-20.0,65.0,9.0,0.0,22.0,12.0
1706276886.1581683,-30.0,-18.0,4.0,-40.0,-11.0,-1.0,-10.0,-16.0
1706276886.1581683,0.0,6.0,7.0,-1.0,2.0,10.0,22.0,-13.0
1706276886.175103,-11.0,-22.0,4.0,0.0,0.0,-13.0,-23.0,1.0
1706276886.175103,3.0,12.0,6.0,34.0,2.0,-7.0,-10.0,0.0
1706276886.191259,11.0,38.0,0.0,-21.0,-3.0,3.0,-3.0,0.0
1706276886.191259,-10.0,-39.0,-6.0,15.0,3.0,-1.0,-1.0,1.0
1706276886.191259,6.0,2.0,30.0,12.0,11.0,17.0,19.0,-5.0
1706276886.191259,-10.0,34.0,-32.0,-40.0,-34.0,-19.0,-16.0,-17.0
1706276886.191259,5.0,-13.0,14.0,43.0,12.0,9.0,9.0,10.0
1706276886.191259,10.0,14.0,-7.0,-28.0,-17.0,-2.0,-10.0,4.0
1706276886.221267,-5.0,-2.0,2.0,7.0,8.0,5.0,12.0,1.0
1706276886.221267,-11.0,-30.0,-23.0,-23.0,0.0,1.0,-7.0,-11.0
1706276886.221267,-1.0,9.0,-20.0,-2.0,-7.0,4.0,16.0,9.0
1706276886.221267,11.0,39.0,59.0,20.0,3.0,-4.0,-10.0,-4.0
1706276886.2412605,-17.0,-51.0,-69.0,-14.0,0.0,3.0,8.0,-4.0
1706276886.2412605,1.0,-12.0,-27.0,-13.0,4.0,4.0,5.0,3.0
1706276886.2412605,-3.0,9.0,61.0,30.0,8.0,4.0,0.0,7.0
1706276886.2412605,-7.0,-9.0,-25.0,-47.0,-3.0,-1.0,-8.0,0.0
1706276886.2512589,-1.0,6.0,43.0,19.0,-9.0,-12.0,3.0,-1.0
1706276886.2512589,-9.0,-3.0,22.0,-18.0,9.0,4.0,-14.0,-20.0
1706276886.2512589,-4.0,-19.0,-42.0,18.0,-10.0,-9.0,-8.0,-5.0
1706276886.2512589,1.0,13.0,26.0,-23.0,-23.0,-8.0,-8.0,3.0
1706276886.2815163,10.0,18.0,25.0,85.0,82.0,27.0,14.0,4.0
1706276886.2815163,0.0,3.0,15.0,-12.0,-2.0,-3.0,-1.0,0.0
1706276886.2815163,-2.0,1.0,18.0,-1.0,-12.0,-6.0,-10.0,-5.0
1706276886.2815163,-8.0,-14.0,-26.0,-11.0,-9.0,-7.0,-5.0,-4.0
1706276886.2914839,-4.0,-3.0,-30.0,-29.0,-24.0,-4.0,-3.0,-7.0
1706276886.2914839,-1.0,-8.0,-18.0,-7.0,4.0,2.0,3.0,0.0
1706276886.3018084,4.0,5.0,6.0,1.0,9.0,5.0,-1.0,0.0
1706276886.3018084,1.0,1.0,-23.0,12.0,5.0,0.0,-2.0,5.0
1706276886.3118052,3.0,18.0,15.0,-5.0,-8.0,-3.0,2.0,-1.0
1706276886.3118052,7.0,16.0,20.0,51.0,16.0,5.0,0.0,8.0
1706276886.3118052,-9.0,-44.0,-16.0,-37.0,-15.0,-8.0,-8.0,-10.0
1706276886.3118052,-5.0,0.0,9.0,12.0,3.0,-5.0,-1.0,-9.0
1706276886.3514862,-6.0,-8.0,7.0,29.0,-9.0,1.0,9.0,1.0
1706276886.3514862,-4.0,6.0,-1.0,-99.0,-22.0,-2.0,7.0,0.0
1706276886.3514862,-12.0,-21.0,-16.0,28.0,5.0,-7.0,-8.0,-12.0
1706276886.3514862,6.0,39.0,-4.0,40.0,13.0,13.0,8.0,-7.0
1706276886.3514862,2.0,-26.0,-2.0,-27.0,-4.0,-10.0,-6.0,8.0
1706276886.3514862,-10.0,5.0,1.0,26.0,-2.0,-8.0,0.0,-4.0
1706276886.3615317,2.0,14.0,-1.0,-22.0,0.0,10.0,6.0,4.0
1706276886.3615317,-4.0,-19.0,-8.0,-3.0,1.0,-8.0,6.0,17.0
1706276886.371492,-5.0,6.0,-24.0,-3.0,-12.0,-1.0,-6.0,-15.0
1706276886.371492,2.0,-22.0,3.0,30.0,23.0,13.0,3.0,1.0
1706276886.381488,8.0,4.0,8.0,-2.0,6.0,3.0,2.0,3.0
1706276886.381488,-6.0,-26.0,-50.0,-5.0,17.0,9.0,-5.0,-2.0
1706276886.4115055,-3.0,-14.0,-6.0,1.0,8.0,9.0,1.0,2.0
1706276886.4115055,6.0,13.0,-9.0,10.0,12.0,11.0,4.0,1.0
1706276886.4115055,-9.0,-27.0,-9.0,1.0,-4.0,-3.0,-3.0,-8.0
1706276886.4115055,-1.0,-11.0,-84.0,-37.0,-18.0,-18.0,-17.0,-6.0
1706276886.4115055,6.0,32.0,95.0,17.0,-3.0,-3.0,-1.0,2.0
1706276886.4115055,-8.0,-25.0,-73.0,-15.0,-11.0,-4.0,-1.0,-4.0
1706276886.421581,-5.0,25.0,26.0,-12.0,-13.0,-8.0,-8.0,-6.0
1706276886.421581,-8.0,-14.0,28.0,13.0,-12.0,-15.0,-11.0,-5.0
1706276886.4318628,6.0,22.0,18.0,0.0,-13.0,-8.0,-4.0,1.0
1706276886.4318628,7.0,11.0,14.0,6.0,9.0,3.0,4.0,5.0
1706276886.441807,7.0,6.0,9.0,10.0,6.0,4.0,4.0,4.0
1706276886.441807,-3.0,-13.0,-29.0,-27.0,-1.0,-1.0,-1.0,0.0
1706276886.4715981,-4.0,-13.0,7.0,-18.0,-12.0,-6.0,-4.0,-5.0
1706276886.4715981,-6.0,-18.0,-22.0,0.0,-8.0,-8.0,-5.0,-5.0
1706276886.4815953,-6.0,-11.0,-31.0,-12.0,-1.0,-2.0,1.0,-4.0
1706276886.4815953,8.0,24.0,53.0,10.0,9.0,8.0,4.0,5.0
1706276886.4815953,0.0,-6.0,-30.0,-24.0,-9.0,4.0,4.0,2.0
1706276886.4815953,-6.0,-18.0,6.0,-4.0,-10.0,-8.0,-7.0,-7.0
1706276886.4815953,-4.0,-8.0,-11.0,37.0,11.0,5.0,1.0,0.0
1706276886.4815953,-6.0,-10.0,12.0,4.0,3.0,-1.0,-1.0,-1.0
1706276886.4919558,-7.0,11.0,-47.0,-11.0,3.0,3.0,-2.0,-5.0
1706276886.4919558,-2.0,-19.0,8.0,-6.0,-11.0,-7.0,-4.0,-2.0
1706276886.5019135,-2.0,-5.0,0.0,7.0,-5.0,-5.0,-3.0,-1.0
1706276886.5019135,2.0,20.0,21.0,-7.0,-8.0,-1.0,-5.0,-3.0
1706276886.521596,-4.0,-13.0,-14.0,-14.0,-7.0,0.0,-2.0,-4.0
1706276886.521596,5.0,27.0,23.0,-34.0,-16.0,-8.0,3.0,4.0
1706276886.521596,-1.0,4.0,0.0,16.0,8.0,2.0,-7.0,-4.0
1706276886.521596,-3.0,-3.0,-6.0,-26.0,-6.0,3.0,10.0,3.0
1706276886.5418582,3.0,8.0,22.0,27.0,4.0,-5.0,-8.0,1.0
1706276886.5418582,-10.0,6.0,7.0,-12.0,0.0,0.0,6.0,-3.0
1706276886.5418582,2.0,12.0,7.0,25.0,10.0,2.0,-8.0,-2.0
1706276886.5418582,1.0,-7.0,7.0,13.0,8.0,5.0,1.0,-4.0
1706276886.5519416,2.0,1.0,-9.0,-14.0,-9.0,-5.0,5.0,3.0
1706276886.5519416,2.0,7.0,8.0,34.0,10.0,4.0,7.0,8.0
1706276886.561913,11.0,14.0,3.0,-25.0,-15.0,-8.0,2.0,8.0
1706276886.561913,-11.0,-22.0,-13.0,-9.0,-17.0,-7.0,-11.0,-12.0
1706276886.581597,-3.0,-8.0,-16.0,-20.0,-2.0,3.0,2.0,-3.0
1706276886.581597,-2.0,1.0,28.0,24.0,29.0,5.0,-4.0,-5.0
1706276886.581597,-2.0,7.0,-21.0,-43.0,-50.0,-15.0,0.0,-3.0
1706276886.581597,4.0,6.0,12.0,20.0,22.0,14.0,7.0,5.0
1706276886.601857,1.0,7.0,-23.0,57.0,45.0,5.0,-3.0,-2.0
1706276886.601857,4.0,7.0,15.0,-9.0,-13.0,-8.0,-9.0,-3.0
1706276886.601857,4.0,15.0,2.0,-17.0,-20.0,-4.0,-1.0,0.0
1706276886.601857,-7.0,-20.0,-19.0,-18.0,-10.0,-4.0,-2.0,-2.0
1706276886.6118364,-12.0,-18.0,7.0,-32.0,-42.0,-16.0,-8.0,-7.0
1706276886.6118364,5.0,6.0,5.0,0.0,-14.0,-1.0,-4.0,-1.0
1706276886.6217802,3.0,13.0,62.0,20.0,19.0,10.0,7.0,4.0
1706276886.6217802,-15.0,-33.0,-48.0,18.0,27.0,-11.0,-10.0,-10.0
1706276886.6516032,7.0,14.0,78.0,19.0,24.0,11.0,6.0,3.0
1706276886.6516032,3.0,5.0,41.0,23.0,14.0,3.0,0.0,0.0
1706276886.6516032,-8.0,-13.0,-53.0,-64.0,-23.0,-9.0,-4.0,-7.0
1706276886.6516032,1.0,-1.0,18.0,18.0,3.0,5.0,1.0,1.0
1706276886.6617794,-1.0,1.0,-34.0,-27.0,-24.0,-9.0,-4.0,0.0
1706276886.6617794,-8.0,-6.0,-68.0,-15.0,21.0,14.0,0.0,0.0
1706276886.6617794,-6.0,-9.0,15.0,43.0,30.0,10.0,3.0,-4.0
1706276886.6617794,-1.0,7.0,6.0,-16.0,-15.0,-10.0,-7.0,-7.0
1706276886.6965022,7.0,-3.0,-42.0,-21.0,0.0,-1.0,2.0,21.0
1706276886.6965022,-7.0,-18.0,-61.0,-15.0,-9.0,-1.0,1.0,-5.0
1706276886.6985023,36.0,6.0,19.0,6.0,16.0,-2.0,-1.0,9.0
1706276886.6985023,-2.0,8.0,5.0,10.0,-3.0,1.0,4.0,6.0
1706276886.702503,11.0,13.0,63.0,7.0,-11.0,-5.0,-3.0,1.0
1706276886.702503,-6.0,-12.0,-24.0,0.0,0.0,-4.0,-3.0,-3.0
1706276886.7035065,-11.0,-12.0,-5.0,-10.0,-2.0,-3.0,1.0,0.0
1706276886.7035065,3.0,6.0,17.0,-4.0,-15.0,-31.0,-15.0,-3.0
1706276886.7231686,10.0,-2.0,-4.0,7.0,14.0,50.0,21.0,17.0
1706276886.7231686,8.0,9.0,24.0,-4.0,-9.0,-7.0,-10.0,-7.0
1706276886.7231686,-10.0,-11.0,-16.0,4.0,4.0,-3.0,1.0,-10.0
1706276886.7231686,12.0,23.0,23.0,0.0,-3.0,7.0,2.0,4.0
1706276886.7431684,-15.0,-12.0,-37.0,-8.0,1.0,-18.0,-11.0,-13.0
1706276886.7431684,0.0,-5.0,12.0,6.0,-9.0,-5.0,-2.0,4.0
1706276886.7431684,-3.0,1.0,0.0,2.0,2.0,9.0,4.0,3.0
1706276886.7431684,-4.0,-2.0,-10.0,12.0,3.0,-4.0,0.0,2.0
1706276886.753426,0.0,6.0,17.0,-12.0,-10.0,-7.0,-1.0,-4.0
1706276886.753426,0.0,12.0,-1.0,-21.0,-1.0,2.0,-9.0,-7.0
1706276886.7631733,4.0,27.0,9.0,41.0,6.0,-8.0,3.0,7.0
1706276886.7631733,1.0,-4.0,15.0,-7.0,-7.0,0.0,5.0,3.0
1706276886.7834942,-8.0,-20.0,19.0,-15.0,5.0,5.0,6.0,-7.0
1706276886.7834942,-2.0,-6.0,-1.0,34.0,-4.0,-1.0,8.0,2.0
1706276886.7834942,-8.0,-12.0,-12.0,20.0,3.0,0.0,-6.0,-6.0
1706276886.7834942,-1.0,7.0,4.0,-36.0,-6.0,-12.0,-9.0,-2.0
1706276886.813171,5.0,10.0,-22.0,16.0,1.0,4.0,6.0,0.0
1706276886.813171,-6.0,-6.0,57.0,8.0,-6.0,-4.0,3.0,-1.0
1706276886.8231676,-11.0,-28.0,-34.0,2.0,-8.0,-7.0,-14.0,-4.0
1706276886.8231676,-1.0,3.0,27.0,-3.0,-1.0,6.0,8.0,-1.0
1706276886.8231676,-13.0,-24.0,-29.0,24.0,0.0,-11.0,-13.0,-10.0
1706276886.8231676,4.0,8.0,-8.0,-13.0,20.0,4.0,3.0,2.0
1706276886.8231676,-7.0,-9.0,-3.0,-20.0,0.0,4.0,2.0,-3.0
1706276886.8231676,10.0,21.0,-3.0,-40.0,-29.0,-2.0,-4.0,-1.0
1706276886.8435526,-1.0,17.0,49.0,63.0,32.0,-1.0,-2.0,-4.0
1706276886.8435526,-2.0,-15.0,-1.0,-20.0,-25.0,-12.0,-5.0,-3.0
1706276886.8435526,-1.0,21.0,12.0,18.0,-8.0,-4.0,0.0,-4.0
1706276886.8435526,-24.0,-80.0,-119.0,-97.0,-21.0,-12.0,-4.0,-6.0
1706276886.8631687,-3.0,20.0,70.0,-2.0,-12.0,-9.0,-13.0,-6.0
1706276886.8631687,-2.0,-7.0,5.0,-15.0,-1.0,-2.0,-1.0,2.0
1706276886.8631687,2.0,-3.0,-12.0,-24.0,6.0,0.0,-3.0,-1.0
1706276886.8631687,10.0,16.0,-2.0,44.0,12.0,13.0,6.0,10.0
1706276886.873371,-14.0,-13.0,-60.0,-29.0,-12.0,-6.0,5.0,-5.0
1706276886.873371,-6.0,-6.0,-28.0,-6.0,-6.0,-12.0,-20.0,-18.0
1706276886.8831701,8.0,9.0,17.0,-19.0,-3.0,3.0,7.0,13.0
1706276886.8831701,5.0,12.0,7.0,39.0,18.0,12.0,4.0,2.0
1706276886.9035518,-3.0,-12.0,-36.0,-13.0,-3.0,-3.0,-2.0,0.0
1706276886.9035518,-1.0,9.0,24.0,0.0,-11.0,-7.0,1.0,-1.0
1706276886.9035518,-4.0,-11.0,-25.0,-5.0,3.0,7.0,8.0,1.0
1706276886.9035518,2.0,37.0,46.0,42.0,7.0,-3.0,-5.0,-8.0
1706276886.9131837,-2.0,-23.0,-13.0,-10.0,3.0,-5.0,-3.0,-2.0
1706276886.9131837,7.0,15.0,12.0,3.0,-3.0,2.0,5.0,5.0
1706276886.9232023,-2.0,-5.0,5.0,19.0,2.0,-1.0,-4.0,-3.0
1706276886.9232023,-5.0,-4.0,-2.0,-29.0,-14.0,-1.0,-2.0,-3.0
1706276886.933568,-4.0,-15.0,-18.0,-36.0,-12.0,-4.0,-6.0,-5.0
1706276886.933568,1.0,15.0,30.0,52.0,13.0,7.0,-14.0,-7.0
1706276886.9433768,-2.0,-16.0,-23.0,-84.0,-19.0,-14.0,2.0,5.0
1706276886.9433768,9.0,38.0,40.0,66.0,30.0,16.0,15.0,14.0
1706276886.963169,1.0,-7.0,18.0,88.0,4.0,-9.0,-21.0,-9.0
1706276886.963169,-19.0,-54.0,-64.0,-109.0,-29.0,-14.0,-1.0,-6.0
1706276886.963169,0.0,36.0,26.0,2.0,-11.0,-7.0,-11.0,-22.0
1706276886.963169,7.0,7.0,46.0,59.0,19.0,7.0,-11.0,-5.0
1706276886.9732044,4.0,16.0,-5.0,-48.0,-13.0,-2.0,8.0,10.0
1706276886.9732044,-2.0,-1.0,-19.0,35.0,17.0,13.0,8.0,2.0
1706276886.9835522,1.0,4.0,30.0,25.0,7.0,5.0,5.0,5.0
1706276886.9835522,-14.0,-1.0,12.0,-20.0,-5.0,-1.0,0.0,-24.0
1706276886.9935706,-4.0,12.0,7.0,11.0,2.0,-1.0,-2.0,-3.0
1706276886.9935706,1.0,-6.0,-14.0,0.0,-2.0,-6.0,-10.0,-5.0
1706276887.0031693,-16.0,-28.0,-55.0,-7.0,13.0,8.0,3.0,-15.0
1706276887.0031693,2.0,-16.0,-13.0,8.0,3.0,1.0,-1.0,3.0
1706276887.0231698,12.0,42.0,-27.0,-32.0,-1.0,2.0,4.0,4.0
1706276887.0231698,3.0,6.0,-13.0,3.0,-1.0,-1.0,8.0,8.0
1706276887.0231698,-2.0,-5.0,47.0,23.0,5.0,1.0,1.0,11.0
1706276887.0231698,-8.0,-9.0,-78.0,-51.0,-13.0,-9.0,-8.0,-4.0
1706276887.0332024,7.0,-11.0,28.0,-1.0,-1.0,0.0,7.0,17.0
1706276887.0332024,-2.0,-11.0,35.0,-30.0,-21.0,-8.0,7.0,4.0
1706276887.0435612,7.0,33.0,84.0,39.0,11.0,1.0,-10.0,-7.0
1706276887.0435612,-12.0,-38.0,-91.0,-57.0,-20.0,-13.0,-9.0,-2.0
1706276887.0535774,0.0,8.0,20.0,11.0,7.0,5.0,-2.0,-10.0
1706276887.0535774,3.0,5.0,-25.0,8.0,7.0,2.0,2.0,2.0
1706276887.063171,-1.0,-12.0,14.0,5.0,-6.0,0.0,3.0,1.0
1706276887.063171,4.0,7.0,29.0,14.0,3.0,2.0,4.0,5.0
1706276887.083171,-10.0,-14.0,-5.0,-9.0,-8.0,-3.0,-2.0,-6.0
1706276887.083171,4.0,14.0,18.0,32.0,11.0,3.0,-6.0,-4.0
1706276887.083171,-11.0,-32.0,-55.0,-21.0,-5.0,-4.0,-1.0,-1.0
1706276887.083171,-10.0,-35.0,-8.0,-6.0,-6.0,-5.0,-1.0,-1.0
1706276887.0935879,0.0,-1.0,-9.0,0.0,-3.0,-3.0,-6.0,-5.0
1706276887.0935879,2.0,9.0,20.0,8.0,4.0,5.0,4.0,4.0
1706276887.1035395,7.0,1.0,-11.0,13.0,14.0,5.0,4.0,7.0
1706276887.1035395,3.0,6.0,28.0,11.0,1.0,3.0,3.0,1.0
1706276887.113544,7.0,17.0,30.0,28.0,0.0,0.0,-1.0,1.0
1706276887.113544,-14.0,-22.0,-15.0,-81.0,-26.0,-18.0,-18.0,-9.0
1706276887.1231694,4.0,9.0,7.0,19.0,2.0,7.0,21.0,9.0
1706276887.1231694,-22.0,-44.0,-24.0,14.0,-8.0,-13.0,-20.0,-16.0
1706276887.1434066,6.0,12.0,-4.0,-26.0,0.0,6.0,16.0,4.0
1706276887.1434066,2.0,3.0,-16.0,-6.0,-5.0,-7.0,-13.0,-3.0
1706276887.1434066,7.0,9.0,-1.0,17.0,12.0,-1.0,-10.0,-1.0
1706276887.1434066,8.0,18.0,41.0,-5.0,4.0,9.0,20.0,6.0
1706276887.1534731,-7.0,-6.0,-23.0,-5.0,-5.0,0.0,4.0,3.0
1706276887.1534731,5.0,4.0,-9.0,13.0,4.0,3.0,-2.0,-4.0
1706276887.1634438,-3.0,-3.0,8.0,2.0,3.0,2.0,-6.0,-3.0
1706276887.1634438,7.0,13.0,21.0,28.0,5.0,1.0,-2.0,4.0
1706276887.1931689,-9.0,-20.0,-38.0,-12.0,-1.0,-5.0,-7.0,-6.0
1706276887.1931689,0.0,1.0,14.0,30.0,3.0,8.0,8.0,1.0
1706276887.1931689,-5.0,-4.0,-15.0,-36.0,-15.0,-9.0,-8.0,-5.0
1706276887.1931689,4.0,3.0,-35.0,9.0,22.0,10.0,6.0,3.0
1706276887.2033868,7.0,16.0,42.0,-13.0,-9.0,-2.0,1.0,3.0
1706276887.2033868,-8.0,-35.0,-25.0,65.0,79.0,21.0,9.0,6.0
1706276887.2033868,-5.0,2.0,42.0,-25.0,-19.0,-6.0,-3.0,-3.0
1706276887.2033868,2.0,8.0,-35.0,-58.0,-22.0,-6.0,-4.0,2.0
1706276887.2134876,0.0,6.0,23.0,23.0,-21.0,-9.0,-7.0,-6.0
1706276887.2134876,1.0,1.0,19.0,24.0,18.0,7.0,8.0,4.0
1706276887.2271981,4.0,11.0,-37.0,-32.0,-23.0,-3.0,-1.0,-2.0
1706276887.2271981,-7.0,-13.0,-18.0,17.0,34.0,8.0,5.0,1.0
1706276887.2415829,0.0,-6.0,10.0,9.0,2.0,5.0,1.0,1.0
1706276887.242549,-4.0,4.0,3.0,-16.0,-30.0,-13.0,-11.0,-11.0
1706276887.2435727,5.0,0.0,-41.0,11.0,14.0,7.0,2.0,6.0
1706276887.2435727,1.0,12.0,-11.0,-27.0,-18.0,-5.0,-3.0,0.0
1706276887.257598,-11.0,-21.0,-31.0,-5.0,-2.0,-5.0,-9.0,-9.0
1706276887.257598,3.0,9.0,21.0,-8.0,3.0,4.0,4.0,3.0
1706276887.257598,-3.0,-7.0,-24.0,1.0,4.0,0.0,-2.0,0.0
1706276887.257598,4.0,8.0,47.0,24.0,-4.0,-3.0,-2.0,0.0
1706276887.2778876,3.0,-1.0,1.0,-5.0,7.0,-4.0,-4.0,2.0
1706276887.2778876,2.0,11.0,-7.0,-2.0,-13.0,1.0,2.0,4.0
1706276887.2778876,-5.0,-4.0,26.0,10.0,0.0,3.0,-1.0,-5.0
1706276887.2778876,-1.0,-4.0,12.0,2.0,0.0,-7.0,0.0,-3.0
1706276887.307844,-3.0,-6.0,0.0,-1.0,1.0,-8.0,-7.0,-3.0
1706276887.307844,-6.0,3.0,-1.0,-17.0,-17.0,8.0,4.0,0.0
1706276887.307844,10.0,-7.0,-16.0,-12.0,-1.0,-2.0,-1.0,5.0
1706276887.307844,8.0,-3.0,4.0,2.0,-8.0,-4.0,-6.0,7.0
1706276887.3178933,-4.0,-1.0,-7.0,-12.0,2.0,1.0,1.0,0.0
1706276887.3178933,3.0,6.0,2.0,15.0,-2.0,-5.0,-1.0,-3.0
1706276887.3178933,-9.0,-4.0,-3.0,8.0,6.0,3.0,3.0,-4.0
1706276887.3178933,4.0,13.0,26.0,-5.0,-5.0,-1.0,-7.0,2.0
1706276887.3378484,-4.0,-8.0,-2.0,19.0,1.0,-5.0,-2.0,-4.0
1706276887.3378484,10.0,16.0,18.0,14.0,1.0,3.0,17.0,14.0
1706276887.3378484,-3.0,36.0,-5.0,-43.0,-12.0,-5.0,-7.0,-8.0
1706276887.3378484,1.0,0.0,21.0,46.0,7.0,2.0,1.0,-1.0
1706276887.3578446,-6.0,-14.0,-30.0,-36.0,-13.0,-4.0,-9.0,-8.0
1706276887.3578446,-6.0,-21.0,-6.0,-4.0,-6.0,-10.0,-13.0,-4.0
1706276887.367899,0.0,-2.0,1.0,6.0,4.0,-5.0,-1.0,2.0
1706276887.367899,7.0,6.0,22.0,16.0,-8.0,4.0,11.0,7.0
1706276887.377845,4.0,17.0,6.0,20.0,38.0,20.0,7.0,3.0
1706276887.377845,5.0,-15.0,30.0,-6.0,15.0,7.0,2.0,1.0
1706276887.377845,-17.0,-20.0,-75.0,-34.0,-19.0,-21.0,-17.0,-16.0
1706276887.377845,-6.0,-4.0,5.0,-64.0,-49.0,-13.0,-9.0,-8.0
1706276887.397888,-5.0,-26.0,-20.0,56.0,40.0,15.0,11.0,4.0
1706276887.397888,-4.0,3.0,-7.0,-70.0,-36.0,-17.0,-8.0,-5.0
1706276887.4178443,7.0,10.0,82.0,93.0,50.0,17.0,12.0,10.0
1706276887.4178443,5.0,-5.0,-47.0,10.0,25.0,12.0,4.0,2.0
1706276887.4178443,6.0,55.0,70.0,-5.0,-24.0,-12.0,-3.0,-1.0
1706276887.4178443,-14.0,-39.0,-68.0,11.0,7.0,-3.0,-2.0,-4.0
1706276887.4278464,-5.0,-16.0,37.0,-8.0,-26.0,-8.0,-9.0,-15.0
1706276887.4278464,4.0,28.0,94.0,-7.0,-11.0,-7.0,-4.0,-4.0
1706276887.4381614,-13.0,-34.0,-67.0,-29.0,-10.0,-5.0,-8.0,-8.0
1706276887.4381614,0.0,-2.0,-18.0,-17.0,-2.0,3.0,1.0,0.0
1706276887.4381614,4.0,14.0,4.0,-41.0,-26.0,-14.0,-1.0,7.0
1706276887.4381614,-1.0,-3.0,-39.0,13.0,24.0,11.0,4.0,1.0
1706276887.458189,-5.0,-6.0,28.0,23.0,1.0,-8.0,-9.0,-7.0
1706276887.458189,0.0,1.0,-11.0,-3.0,-9.0,-6.0,0.0,-4.0
1706276887.467849,-10.0,-18.0,11.0,0.0,4.0,12.0,8.0,0.0
1706276887.467849,-2.0,-1.0,-30.0,-6.0,11.0,4.0,-2.0,-6.0
1706276887.487845,3.0,1.0,4.0,-7.0,-9.0,4.0,8.0,8.0
1706276887.487845,1.0,7.0,-17.0,9.0,1.0,-2.0,-4.0,-1.0
1706276887.487845,-1.0,-3.0,-16.0,-7.0,-2.0,-3.0,0.0,1.0
1706276887.487845,-11.0,-11.0,-6.0,-2.0,-3.0,-7.0,-6.0,-4.0
1706276887.4978795,4.0,4.0,4.0,-14.0,-8.0,2.0,2.0,1.0
1706276887.4978795,3.0,27.0,21.0,16.0,2.0,-2.0,-2.0,-1.0
1706276887.4978795,4.0,-5.0,-24.0,12.0,6.0,1.0,-1.0,2.0
1706276887.4978795,-6.0,25.0,28.0,4.0,-2.0,-2.0,-1.0,-2.0
1706276887.527843,-8.0,-29.0,-35.0,-37.0,-15.0,-4.0,3.0,-5.0
1706276887.527843,8.0,15.0,14.0,-10.0,-4.0,-7.0,-12.0,-3.0
1706276887.527843,1.0,12.0,4.0,-12.0,-1.0,-1.0,4.0,5.0
1706276887.527843,1.0,-33.0,-5.0,46.0,20.0,0.0,-8.0,-1.0
1706276887.5378432,0.0,8.0,17.0,-54.0,-18.0,5.0,10.0,-2.0
1706276887.5378432,-10.0,-15.0,-35.0,59.0,12.0,-10.0,6.0,2.0
1706276887.5479293,-2.0,-3.0,2.0,-78.0,-21.0,-6.0,-20.0,-5.0
1706276887.5479293,7.0,13.0,24.0,-31.0,-9.0,-2.0,28.0,12.0
1706276887.5582774,0.0,1.0,-13.0,23.0,8.0,-4.0,-27.0,-6.0
1706276887.5582774,1.0,-4.0,28.0,42.0,4.0,8.0,10.0,2.0
1706276887.5582774,-14.0,-21.0,-16.0,41.0,18.0,6.0,1.0,-11.0
1706276887.5582774,5.0,10.0,-8.0,-5.0,-3.0,0.0,-5.0,1.0
1706276887.577888,10.0,11.0,28.0,9.0,-5.0,6.0,4.0,1.0
1706276887.577888,-5.0,-2.0,-20.0,-38.0,-11.0,-8.0,-7.0,-6.0
1706276887.5879312,-3.0,-7.0,0.0,-3.0,-12.0,-11.0,-7.0,0.0
1706276887.5879312,-5.0,9.0,-23.0,-15.0,2.0,-1.0,-1.0,-4.0
1706276887.598298,-9.0,-22.0,18.0,19.0,0.0,-3.0,7.0,0.0
1706276887.598298,4.0,-8.0,-40.0,-30.0,0.0,3.0,-4.0,3.0
1706276887.6079743,-1.0,-22.0,0.0,16.0,6.0,8.0,12.0,4.0
1706276887.6079743,2.0,6.0,45.0,7.0,-1.0,-2.0,-2.0,4.0
1706276887.6279006,2.0,28.0,59.0,41.0,9.0,1.0,3.0,-1.0
1706276887.6279006,-21.0,-43.0,-26.0,-22.0,-12.0,-10.0,-17.0,-23.0
1706276887.6279006,-5.0,-17.0,-80.0,-62.0,-17.0,-4.0,1.0,0.0
1706276887.6279006,-15.0,-7.0,47.0,41.0,-11.0,-10.0,-7.0,-8.0
1706276887.6380124,0.0,-7.0,-53.0,-5.0,4.0,1.0,0.0,5.0
1706276887.6380124,5.0,26.0,-20.0,-53.0,-22.0,-4.0,1.0,1.0
1706276887.6479018,13.0,29.0,18.0,-12.0,-20.0,2.0,6.0,4.0
1706276887.6479018,-8.0,-21.0,5.0,80.0,85.0,19.0,4.0,-2.0
