1706277627.5981236,-5.0,-5.0,-9.0,-4.0,-2.0,-1.0,0.0,-3.0
1706277627.5981236,0.0,2.0,-1.0,2.0,1.0,0.0,0.0,-6.0
1706277627.5981236,0.0,-6.0,-4.0,-4.0,-3.0,-4.0,-2.0,0.0
1706277627.5981236,2.0,-1.0,-1.0,2.0,-2.0,0.0,-1.0,-1.0
1706277627.608134,-2.0,0.0,-5.0,-2.0,-2.0,-1.0,0.0,-2.0
1706277627.608134,-3.0,-3.0,-3.0,-3.0,-1.0,-1.0,0.0,-2.0
1706277627.618134,-4.0,-7.0,-3.0,-3.0,-1.0,-2.0,-2.0,-1.0
1706277627.618134,1.0,3.0,0.0,3.0,0.0,-1.0,0.0,1.0
1706277627.6281948,-1.0,0.0,-1.0,-4.0,-2.0,1.0,1.0,0.0
1706277627.6281948,-1.0,2.0,0.0,5.0,2.0,0.0,0.0,0.0
1706277627.6281948,0.0,1.0,-2.0,0.0,-2.0,-1.0,-3.0,-2.0
1706277627.6281948,2.0,4.0,5.0,-2.0,-2.0,-1.0,-1.0,0.0
1706277627.6581187,-1.0,-2.0,-1.0,2.0,4.0,2.0,1.0,0.0
1706277627.6581187,1.0,5.0,21.0,7.0,-1.0,1.0,1.0,1.0
1706277627.6581187,-4.0,-8.0,-39.0,-5.0,1.0,-1.0,0.0,-4.0
1706277627.6581187,0.0,1.0,10.0,3.0,2.0,0.0,-2.0,0.0
1706277627.6682978,-4.0,-5.0,-10.0,-14.0,-7.0,-6.0,-3.0,-4.0
1706277627.6682978,-1.0,1.0,7.0,-1.0,-1.0,1.0,2.0,-1.0
1706277627.6780891,1.0,5.0,11.0,5.0,1.0,0.0,1.0,0.0
1706277627.6780891,0.0,0.0,-1.0,-2.0,-4.0,-2.0,-1.0,-2.0
1706277627.698087,-1.0,0.0,-6.0,4.0,-1.0,-2.0,-1.0,-2.0
1706277627.698087,-1.0,-2.0,-4.0,-3.0,7.0,1.0,0.0,-1.0
1706277627.698087,-1.0,0.0,3.0,4.0,1.0,-1.0,-1.0,-1.0
1706277627.698087,0.0,-2.0,-7.0,-3.0,3.0,2.0,2.0,-1.0
1706277627.7081466,-3.0,-6.0,4.0,-5.0,-6.0,0.0,-1.0,-2.0
1706277627.7081466,0.0,19.0,-7.0,-9.0,-13.0,-7.0,-5.0,-1.0
1706277627.7181442,2.0,7.0,-1.0,-2.0,2.0,1.0,1.0,-1.0
1706277627.7181442,2.0,5.0,-7.0,1.0,3.0,-1.0,0.0,-1.0
1706277627.7284184,5.0,8.0,18.0,10.0,2.0,1.0,0.0,2.0
1706277627.7284184,-5.0,-19.0,-31.0,-9.0,-5.0,-3.0,-2.0,-4.0
1706277627.7384408,-6.0,-8.0,2.0,-5.0,-4.0,-3.0,-2.0,-3.0
1706277627.7384408,-1.0,4.0,0.0,-5.0,-6.0,-2.0,-2.0,0.0
1706277627.7684422,0.0,1.0,3.0,3.0,1.0,0.0,1.0,1.0
1706277627.7684422,0.0,-3.0,1.0,6.0,2.0,2.0,1.0,-2.0
1706277627.7784364,0.0,2.0,4.0,-2.0,-2.0,-1.0,0.0,-2.0
1706277627.7784364,-2.0,-9.0,-4.0,-2.0,-2.0,0.0,0.0,0.0
1706277627.7784364,-3.0,-4.0,-7.0,-3.0,-2.0,-1.0,-2.0,-4.0
1706277627.7784364,-1.0,-3.0,2.0,-1.0,0.0,1.0,1.0,-1.0
1706277627.7784364,-1.0,-3.0,-1.0,-1.0,-2.0,-2.0,-2.0,0.0
1706277627.7784364,1.0,1.0,7.0,2.0,0.0,0.0,-1.0,0.0
1706277627.788769,-1.0,2.0,-17.0,-5.0,0.0,-1.0,-2.0,-2.0
1706277627.788769,-3.0,-3.0,6.0,-4.0,-3.0,-3.0,-3.0,-3.0
1706277627.7984385,0.0,-4.0,-5.0,3.0,1.0,0.0,1.0,0.0
1706277627.7984385,-3.0,-2.0,0.0,-2.0,-2.0,-3.0,-1.0,0.0
1706277627.8184366,-2.0,-2.0,1.0,-1.0,-1.0,-2.0,0.0,0.0
1706277627.8184366,-2.0,-2.0,-2.0,0.0,-1.0,0.0,-2.0,0.0
1706277627.8184366,0.0,2.0,4.0,0.0,0.0,1.0,-1.0,-1.0
1706277627.8184366,0.0,0.0,1.0,0.0,-1.0,-2.0,-2.0,0.0
1706277627.8287547,-3.0,-7.0,-3.0,-2.0,-1.0,-2.0,-2.0,0.0
1706277627.8287547,2.0,10.0,15.0,10.0,5.0,0.0,2.0,0.0
1706277627.8287547,0.0,3.0,19.0,-3.0,-8.0,-1.0,0.0,-1.0
1706277627.8287547,-7.0,-14.0,-65.0,-15.0,-1.0,-5.0,-4.0,-4.0
1706277627.8488302,1.0,6.0,26.0,9.0,5.0,4.0,3.0,1.0
1706277627.8488302,-3.0,-12.0,-8.0,-2.0,0.0,-1.0,-2.0,-2.0
1706277627.8584394,1.0,1.0,11.0,2.0,-5.0,-2.0,1.0,0.0
1706277627.8584394,1.0,6.0,15.0,3.0,-1.0,1.0,0.0,1.0
1706277627.8684356,-2.0,-4.0,-7.0,0.0,-2.0,-1.0,-2.0,-2.0
1706277627.8684356,1.0,1.0,-5.0,-4.0,-4.0,-1.0,-2.0,-1.0
1706277627.8787673,-2.0,1.0,-11.0,-1.0,1.0,0.0,-2.0,-2.0
1706277627.8787673,-1.0,0.0,14.0,2.0,0.0,2.0,0.0,0.0
1706277627.888799,0.0,-3.0,-8.0,-3.0,-2.0,-3.0,1.0,0.0
1706277627.888799,-3.0,-2.0,5.0,0.0,-3.0,-2.0,0.0,-1.0
1706277627.888799,-2.0,-4.0,-9.0,-5.0,-2.0,-1.0,-1.0,-1.0
1706277627.888799,-3.0,-4.0,3.0,0.0,1.0,-1.0,2.0,-2.0
1706277627.90965,1.0,1.0,-3.0,-3.0,-3.0,-1.0,0.0,0.0
1706277627.90965,-3.0,2.0,-5.0,5.0,2.0,0.0,0.0,-3.0
1706277627.9285278,1.0,-2.0,-6.0,-7.0,-2.0,-3.0,-1.0,0.0
1706277627.9285278,0.0,-3.0,6.0,2.0,-1.0,0.0,0.0,-1.0
1706277627.930939,-1.0,0.0,-5.0,-1.0,1.0,0.0,-1.0,-2.0
1706277627.930939,-2.0,-7.0,-2.0,-3.0,-2.0,-1.0,-2.0,0.0
1706277627.930939,-1.0,3.0,1.0,-1.0,0.0,-1.0,0.0,-1.0
1706277627.930939,0.0,4.0,0.0,-5.0,-6.0,-1.0,-3.0,-1.0
1706277627.9513152,-3.0,-5.0,-4.0,5.0,3.0,0.0,-1.0,-1.0
1706277627.9513152,-1.0,-2.0,-3.0,-3.0,-2.0,0.0,-1.0,0.0
1706277627.9513152,1.0,6.0,4.0,1.0,0.0,-1.0,-2.0,-2.0
1706277627.9513152,-7.0,-18.0,-9.0,-4.0,-1.0,-2.0,-1.0,-1.0
1706277627.9612985,-1.0,4.0,-2.0,-3.0,-1.0,-1.0,0.0,-1.0
1706277627.9612985,1.0,3.0,-4.0,-1.0,0.0,-1.0,0.0,0.0
1706277627.9711757,-2.0,-3.0,10.0,-1.0,0.0,0.0,-1.0,0.0
1706277627.9711757,-2.0,-4.0,0.0,-2.0,-2.0,0.0,-2.0,-2.0
1706277627.990942,-2.0,-7.0,-20.0,-5.0,-3.0,-2.0,-3.0,-3.0
1706277627.990942,-1.0,-4.0,2.0,0.0,2.0,1.0,-1.0,-1.0
1706277627.990942,-2.0,-3.0,-16.0,-7.0,-2.0,-3.0,-2.0,-2.0
1706277627.990942,1.0,4.0,14.0,5.0,1.0,-3.0,0.0,1.0
1706277628.0111964,1.0,4.0,8.0,-2.0,-1.0,1.0,-1.0,1.0
1706277628.0111964,-3.0,0.0,-6.0,-4.0,-2.0,-3.0,-1.0,-2.0
1706277628.0111964,-2.0,-4.0,-5.0,0.0,-2.0,-1.0,-1.0,-1.0
1706277628.0111964,1.0,4.0,1.0,-2.0,-2.0,-1.0,-1.0,-1.0
1706277628.0212092,1.0,1.0,3.0,3.0,1.0,-1.0,-2.0,0.0
1706277628.0212092,1.0,0.0,1.0,-3.0,-4.0,-1.0,0.0,-2.0
1706277628.0410135,-2.0,-3.0,-1.0,0.0,0.0,1.0,-2.0,1.0
1706277628.0410135,0.0,1.0,-1.0,0.0,-1.0,-1.0,-2.0,-1.0
1706277628.0511649,-3.0,0.0,4.0,-2.0,-3.0,-3.0,-2.0,-1.0
1706277628.0511649,-1.0,-3.0,5.0,-2.0,-4.0,-3.0,-1.0,-1.0
1706277628.0511649,0.0,-2.0,-23.0,-1.0,0.0,-1.0,1.0,-1.0
1706277628.0511649,2.0,7.0,11.0,-5.0,-1.0,-1.0,0.0,-1.0
1706277628.0713394,-3.0,-4.0,-6.0,-2.0,-4.0,-4.0,-2.0,-3.0
1706277628.0713394,-2.0,2.0,-8.0,-19.0,-2.0,-3.0,-3.0,-2.0
1706277628.0713394,-6.0,-18.0,-15.0,-4.0,-10.0,-6.0,-4.0,-4.0
1706277628.0713394,-2.0,2.0,6.0,22.0,14.0,1.0,0.0,0.0
1706277628.1010103,-2.0,-5.0,-10.0,-3.0,2.0,3.0,1.0,0.0
1706277628.1010103,0.0,-1.0,0.0,-2.0,-5.0,-2.0,-1.0,-1.0
1706277628.1010103,1.0,-2.0,4.0,-4.0,-2.0,2.0,2.0,0.0
1706277628.1010103,2.0,-6.0,-15.0,-22.0,-17.0,-5.0,-2.0,0.0
1706277628.111245,2.0,28.0,20.0,16.0,6.0,-1.0,0.0,-2.0
1706277628.111245,-10.0,-28.0,4.0,9.0,10.0,2.0,-2.0,-4.0
1706277628.111245,3.0,2.0,-3.0,-1.0,0.0,2.0,1.0,1.0
1706277628.111245,-1.0,-4.0,-12.0,-7.0,-6.0,-2.0,-2.0,-1.0
1706277628.1312575,0.0,1.0,-11.0,-9.0,-6.0,-1.0,-2.0,0.0
1706277628.1312575,1.0,2.0,9.0,3.0,-4.0,-1.0,1.0,2.0
1706277628.1312575,-1.0,4.0,-2.0,1.0,1.0,2.0,0.0,-1.0
1706277628.1312575,1.0,8.0,1.0,-20.0,-3.0,0.0,-1.0,-1.0
1706277628.1749847,-2.0,-3.0,-14.0,15.0,2.0,-1.0,-3.0,-3.0
1706277628.1749847,2.0,10.0,21.0,5.0,-1.0,-2.0,-3.0,0.0
1706277628.1749847,-1.0,-3.0,-3.0,8.0,19.0,5.0,0.0,1.0
1706277628.1749847,0.0,24.0,37.0,27.0,3.0,1.0,-1.0,-3.0
1706277628.1749847,0.0,-7.0,-26.0,-24.0,-5.0,-2.0,1.0,-2.0
1706277628.1749847,4.0,9.0,-6.0,-8.0,-6.0,-3.0,-1.0,0.0
1706277628.1806557,-5.0,3.0,10.0,6.0,-2.0,-5.0,-3.0,-4.0
1706277628.1806557,-1.0,-6.0,13.0,5.0,3.0,2.0,2.0,2.0
1706277628.1957836,-3.0,-5.0,-17.0,8.0,10.0,5.0,0.0,-2.0
1706277628.1957836,2.0,5.0,11.0,29.0,9.0,5.0,3.0,3.0
1706277628.197514,-7.0,-7.0,-3.0,-49.0,-22.0,-12.0,-8.0,-8.0
1706277628.197514,-2.0,-8.0,-30.0,-16.0,-10.0,-2.0,0.0,0.0
1706277628.2181034,2.0,-1.0,1.0,22.0,-1.0,-2.0,0.0,1.0
1706277628.2181034,2.0,6.0,18.0,-13.0,-6.0,-2.0,-1.0,-1.0
1706277628.2198722,4.0,1.0,-29.0,28.0,10.0,6.0,3.0,5.0
1706277628.2198722,-8.0,-13.0,-44.0,-50.0,-1.0,-2.0,-2.0,-5.0
1706277628.2318816,-6.0,-21.0,-38.0,1.0,4.0,1.0,0.0,1.0
1706277628.2318816,2.0,-3.0,-13.0,-35.0,-17.0,-3.0,0.0,0.0
1706277628.240331,4.0,9.0,59.0,24.0,3.0,1.0,0.0,4.0
1706277628.240331,0.0,-4.0,-5.0,-7.0,-6.0,-4.0,-4.0,-3.0
1706277628.2553186,-3.0,-18.0,-31.0,9.0,0.0,2.0,4.0,2.0
1706277628.2562208,1.0,10.0,-8.0,-1.0,-2.0,-3.0,-4.0,-3.0
1706277628.2572196,-1.0,-15.0,20.0,10.0,3.0,1.0,4.0,3.0
1706277628.2572196,1.0,-1.0,17.0,30.0,7.0,5.0,1.0,4.0
1706277628.2795415,2.0,11.0,47.0,16.0,1.0,-3.0,-4.0,-4.0
1706277628.2795415,-2.0,-11.0,20.0,-4.0,-2.0,-3.0,-6.0,0.0
1706277628.2805383,-9.0,8.0,7.0,-6.0,2.0,4.0,7.0,1.0
1706277628.2805383,-16.0,-33.0,-46.0,-39.0,-10.0,-10.0,-23.0,-33.0
1706277628.2933693,-11.0,12.0,33.0,-10.0,-10.0,-12.0,-8.0,-1.0
1706277628.294371,-15.0,-20.0,-34.0,-32.0,-11.0,-3.0,-5.0,-15.0
1706277628.3013322,15.0,30.0,-4.0,8.0,1.0,3.0,-2.0,-11.0
1706277628.3013322,-3.0,-7.0,5.0,12.0,0.0,0.0,6.0,14.0
1706277628.3223248,1.0,8.0,10.0,16.0,3.0,1.0,2.0,6.0
1706277628.3223248,1.0,-11.0,-60.0,-7.0,2.0,-3.0,-3.0,5.0
1706277628.3223248,8.0,0.0,-24.0,11.0,6.0,2.0,3.0,5.0
1706277628.3223248,-2.0,12.0,25.0,26.0,-1.0,-1.0,0.0,-1.0
1706277628.3385684,4.0,1.0,33.0,1.0,-1.0,2.0,2.0,-6.0
1706277628.3385684,10.0,16.0,19.0,11.0,2.0,1.0,5.0,13.0
1706277628.340409,-14.0,-22.0,-9.0,8.0,-3.0,-7.0,-6.0,-7.0
1706277628.340409,5.0,11.0,-18.0,-10.0,0.0,2.0,4.0,4.0
1706277628.35241,-1.0,-1.0,16.0,-9.0,-7.0,-2.0,-4.0,-3.0
1706277628.35241,9.0,0.0,-8.0,-16.0,-2.0,2.0,1.0,4.0
1706277628.3604047,-13.0,-14.0,-12.0,-18.0,-3.0,2.0,-1.0,1.0
1706277628.3604047,7.0,8.0,18.0,11.0,1.0,-2.0,4.0,4.0
1706277628.378386,-3.0,-3.0,-11.0,-26.0,-9.0,-8.0,-5.0,-9.0
1706277628.378386,-20.0,-1.0,12.0,17.0,7.0,-3.0,-3.0,-15.0
1706277628.378386,11.0,-4.0,-4.0,-1.0,-2.0,0.0,-1.0,6.0
1706277628.378386,13.0,10.0,39.0,10.0,-2.0,-7.0,-2.0,7.0
1706277628.3919055,-1.0,-10.0,-7.0,-22.0,-12.0,-12.0,-13.0,-12.0
1706277628.3919055,-5.0,4.0,4.0,22.0,5.0,15.0,14.0,7.0
1706277628.3919055,2.0,6.0,13.0,-8.0,1.0,4.0,1.0,-3.0
1706277628.3919055,-17.0,-19.0,7.0,17.0,15.0,14.0,6.0,-4.0
1706277628.4122658,11.0,-2.0,-3.0,-2.0,0.0,-5.0,0.0,14.0
1706277628.4122658,7.0,4.0,9.0,6.0,-2.0,-10.0,-7.0,4.0
1706277628.4122658,0.0,1.0,21.0,0.0,0.0,0.0,2.0,3.0
1706277628.4122658,-16.0,-14.0,-16.0,-8.0,-9.0,-8.0,-4.0,-9.0
1706277628.4386628,-9.0,-10.0,-8.0,-7.0,0.0,0.0,-2.0,1.0
1706277628.4386628,2.0,18.0,16.0,11.0,6.0,3.0,-8.0,-6.0
1706277628.4386628,-17.0,-25.0,-47.0,-25.0,-13.0,-6.0,2.0,-2.0
1706277628.4386628,-1.0,11.0,-1.0,3.0,0.0,1.0,17.0,13.0
1706277628.458133,18.0,4.0,-9.0,-4.0,-2.0,3.0,-3.0,-8.0
1706277628.458133,4.0,-1.0,8.0,1.0,2.0,6.0,8.0,6.0
1706277628.4601624,-19.0,-4.0,-27.0,-4.0,-7.0,-9.0,-13.0,-17.0
1706277628.4601624,8.0,-15.0,-7.0,-7.0,-3.0,-3.0,-5.0,-4.0
1706277628.4738665,-23.0,-15.0,-7.0,-4.0,-5.0,-4.0,-3.0,-9.0
1706277628.4738665,-5.0,-16.0,-15.0,-4.0,2.0,-4.0,-4.0,-5.0
1706277628.4738665,4.0,1.0,10.0,0.0,-2.0,-3.0,-4.0,-1.0
1706277628.4738665,2.0,23.0,28.0,12.0,4.0,1.0,1.0,3.0
1706277628.4943044,-3.0,-13.0,-16.0,-8.0,4.0,6.0,4.0,1.0
1706277628.4943044,2.0,-6.0,-54.0,-13.0,-8.0,-6.0,-3.0,-3.0
1706277628.4943044,-4.0,2.0,13.0,4.0,5.0,1.0,1.0,2.0
1706277628.4943044,10.0,16.0,21.0,30.0,9.0,5.0,-1.0,2.0
1706277628.5143235,7.0,26.0,28.0,5.0,0.0,2.0,-1.0,-1.0
1706277628.5143235,-14.0,-34.0,15.0,-4.0,-6.0,-1.0,-1.0,-6.0
1706277628.5143235,7.0,15.0,-1.0,-15.0,-9.0,-4.0,-2.0,0.0
1706277628.5143235,2.0,9.0,43.0,20.0,12.0,4.0,-4.0,-3.0
1706277628.534004,12.0,19.0,51.0,30.0,5.0,4.0,8.0,8.0
1706277628.534004,-13.0,-22.0,-47.0,-28.0,-14.0,-13.0,-9.0,-14.0
1706277628.534004,-32.0,-20.0,5.0,2.0,5.0,1.0,1.0,-2.0
1706277628.534004,4.0,-32.0,-1.0,-15.0,-12.0,-7.0,-6.0,-3.0
1706277628.5544388,5.0,-6.0,16.0,-2.0,-13.0,-9.0,-6.0,2.0
1706277628.5544388,10.0,16.0,7.0,3.0,8.0,6.0,7.0,8.0
1706277628.5544388,6.0,8.0,10.0,0.0,-8.0,-5.0,-8.0,-4.0
1706277628.5544388,-3.0,20.0,-10.0,-8.0,-2.0,0.0,-2.0,-5.0
1706277628.5744395,-6.0,14.0,-7.0,-14.0,-7.0,-1.0,2.0,-1.0
1706277628.5744395,10.0,24.0,22.0,33.0,12.0,5.0,4.0,6.0
1706277628.5744395,1.0,-8.0,-38.0,-23.0,-8.0,-6.0,-5.0,-5.0
1706277628.5744395,-7.0,-2.0,-1.0,-7.0,-1.0,-2.0,-2.0,-2.0
1706277628.584356,2.0,-6.0,-17.0,-11.0,1.0,2.0,1.0,0.0
1706277628.584356,-4.0,1.0,-5.0,5.0,1.0,-2.0,0.0,-1.0
1706277628.5940077,8.0,13.0,24.0,17.0,5.0,2.0,3.0,9.0
1706277628.5940077,2.0,-3.0,-18.0,-9.0,-4.0,-1.0,-5.0,-3.0
1706277628.614044,-10.0,-10.0,-7.0,-3.0,3.0,0.0,0.0,-2.0
1706277628.614044,0.0,4.0,13.0,2.0,-3.0,-4.0,-10.0,-12.0
1706277628.614044,6.0,-6.0,0.0,-2.0,-3.0,-3.0,-2.0,-4.0
1706277628.614044,-9.0,-10.0,-33.0,-11.0,-5.0,-3.0,-2.0,-2.0
1706277628.6344361,-3.0,-3.0,-15.0,-5.0,1.0,-1.0,3.0,-1.0
1706277628.6344361,2.0,6.0,22.0,4.0,1.0,0.0,3.0,3.0
1706277628.6344361,8.0,1.0,-12.0,-4.0,-2.0,-1.0,-1.0,-1.0
1706277628.6344361,2.0,6.0,-12.0,-2.0,1.0,1.0,-1.0,-2.0
1706277628.6540053,-4.0,-2.0,13.0,1.0,-2.0,-3.0,-1.0,-2.0
1706277628.6540053,-1.0,-3.0,0.0,-4.0,-2.0,1.0,0.0,1.0
1706277628.6540053,4.0,0.0,8.0,7.0,0.0,-1.0,0.0,1.0
1706277628.6540053,-3.0,1.0,-11.0,-2.0,-1.0,-2.0,2.0,-1.0
1706277628.6744165,-7.0,-2.0,-1.0,6.0,2.0,1.0,-1.0,-1.0
1706277628.6744165,1.0,-12.0,4.0,10.0,1.0,-1.0,0.0,3.0
1706277628.6744165,-2.0,6.0,15.0,2.0,-1.0,0.0,0.0,-3.0
1706277628.6744165,1.0,-7.0,-11.0,-5.0,-5.0,-2.0,-1.0,0.0
1706277628.7074792,1.0,3.0,2.0,-1.0,3.0,1.0,0.0,0.0
1706277628.7074792,-2.0,1.0,-11.0,8.0,7.0,4.0,1.0,1.0
1706277628.7074792,0.0,-3.0,-6.0,-16.0,-5.0,-2.0,-1.0,-4.0
1706277628.7074792,4.0,11.0,3.0,0.0,-5.0,-2.0,-5.0,-3.0
1706277628.71169,-4.0,-9.0,-10.0,-10.0,-2.0,-1.0,-3.0,-2.0
1706277628.71169,-15.0,-10.0,-5.0,-7.0,-4.0,-4.0,-2.0,-6.0
1706277628.7206542,5.0,5.0,19.0,13.0,3.0,0.0,-1.0,-2.0
1706277628.7206542,-1.0,0.0,-8.0,-3.0,-3.0,-3.0,-3.0,-1.0
1706277628.7349143,-1.0,-2.0,-9.0,-5.0,-2.0,-2.0,1.0,3.0
1706277628.7349143,0.0,4.0,4.0,-5.0,-1.0,-2.0,1.0,-9.0
1706277628.7422457,-1.0,2.0,0.0,0.0,-1.0,0.0,1.0,1.0
1706277628.7422457,-3.0,-3.0,-1.0,-12.0,-3.0,-2.0,0.0,0.0
1706277628.760435,1.0,1.0,-5.0,2.0,1.0,-1.0,-1.0,1.0
1706277628.760435,-1.0,3.0,-1.0,-3.0,-3.0,2.0,4.0,-3.0
1706277628.760435,0.0,-3.0,-1.0,-1.0,0.0,0.0,-4.0,1.0
1706277628.760435,-1.0,1.0,-1.0,4.0,1.0,0.0,4.0,-4.0
1706277628.7754326,-2.0,3.0,-5.0,-3.0,-1.0,-2.0,1.0,2.0
1706277628.7764323,9.0,6.0,18.0,1.0,1.0,-1.0,1.0,5.0
1706277628.783433,19.0,-17.0,-29.0,15.0,2.0,1.0,2.0,12.0
1706277628.783433,-12.0,-4.0,7.0,-1.0,-2.0,-3.0,-4.0,-9.0
1706277628.7964685,-21.0,-29.0,-11.0,-3.0,-3.0,-2.0,-6.0,-20.0
1706277628.7964685,3.0,1.0,-1.0,0.0,-1.0,0.0,-2.0,-1.0
1706277628.798486,7.0,15.0,10.0,1.0,-1.0,0.0,1.0,9.0
1706277628.798486,2.0,1.0,2.0,3.0,0.0,2.0,2.0,8.0
1706277628.8417974,1.0,-3.0,-7.0,-2.0,-2.0,0.0,0.0,-4.0
1706277628.8417974,-4.0,0.0,-2.0,3.0,0.0,-1.0,-2.0,0.0
1706277628.846797,-5.0,-1.0,2.0,-8.0,0.0,-1.0,0.0,-1.0
1706277628.846797,1.0,-2.0,-6.0,-1.0,-1.0,0.0,-2.0,2.0
1706277628.846797,1.0,-1.0,-4.0,-8.0,-4.0,-1.0,-3.0,1.0
1706277628.846797,0.0,-6.0,-22.0,-11.0,-2.0,-2.0,0.0,0.0
1706277628.846797,-6.0,6.0,9.0,-1.0,1.0,0.0,1.0,-3.0
1706277628.846797,-5.0,-8.0,-8.0,-2.0,0.0,1.0,14.0,2.0
1706277628.8550713,8.0,-3.0,-12.0,3.0,4.0,-1.0,-17.0,-1.0
1706277628.8560894,-1.0,-9.0,0.0,-2.0,-4.0,-3.0,3.0,-2.0
1706277628.8622372,-4.0,-2.0,-4.0,-3.0,0.0,0.0,-1.0,-5.0
1706277628.8632617,2.0,4.0,2.0,-2.0,-1.0,2.0,0.0,-1.0
1706277628.8978205,6.0,6.0,2.0,-1.0,-1.0,1.0,4.0,7.0
1706277628.8988194,-13.0,-6.0,-2.0,-1.0,-3.0,-1.0,-2.0,-3.0
1706277628.9055421,-1.0,2.0,5.0,0.0,0.0,-1.0,-4.0,-7.0
1706277628.9055421,2.0,-5.0,-1.0,-3.0,-1.0,-1.0,-3.0,2.0
1706277628.9055421,6.0,10.0,1.0,-5.0,-3.0,-2.0,9.0,18.0
1706277628.9055421,-13.0,-4.0,2.0,-2.0,-1.0,-3.0,-10.0,-17.0
1706277628.9055421,-18.0,-11.0,-1.0,-3.0,-2.0,-1.0,5.0,-18.0
1706277628.9055421,3.0,16.0,11.0,1.0,1.0,0.0,-11.0,-6.0
1706277628.9145496,-6.0,-26.0,-21.0,-3.0,0.0,0.0,1.0,-10.0
1706277628.9155433,10.0,10.0,2.0,-1.0,0.0,1.0,4.0,18.0
1706277628.9253979,-17.0,2.0,13.0,2.0,-1.0,-3.0,0.0,-5.0
1706277628.9253979,-9.0,-25.0,-26.0,-7.0,-4.0,-8.0,-14.0,-9.0
1706277628.9384658,-13.0,8.0,16.0,4.0,2.0,0.0,0.0,-6.0
1706277628.9384658,0.0,3.0,3.0,0.0,-2.0,0.0,-2.0,-4.0
1706277628.9405305,-9.0,-10.0,-7.0,-1.0,-3.0,0.0,14.0,9.0
1706277628.9405305,26.0,-13.0,-1.0,-1.0,-1.0,-3.0,-20.0,5.0
1706277628.952148,14.0,16.0,0.0,-6.0,-2.0,-5.0,7.0,5.0
1706277628.9532206,0.0,2.0,-2.0,1.0,0.0,-1.0,3.0,4.0
1706277628.961479,3.0,16.0,-1.0,-6.0,-4.0,-3.0,-7.0,-6.0
1706277628.961479,-20.0,-11.0,1.0,5.0,2.0,4.0,1.0,-1.0
1706277628.975939,9.0,16.0,-2.0,-2.0,-1.0,-2.0,-2.0,-7.0
1706277628.975939,2.0,22.0,16.0,-2.0,-4.0,-2.0,3.0,-3.0
1706277628.9907975,-2.0,-10.0,-24.0,-4.0,-2.0,-1.0,-7.0,1.0
1706277628.9907975,-3.0,-4.0,4.0,1.0,-1.0,-2.0,5.0,0.0
1706277629.0017934,6.0,-9.0,-3.0,-1.0,0.0,-1.0,-2.0,2.0
1706277629.0017934,3.0,14.0,3.0,-1.0,-2.0,-1.0,-3.0,3.0
1706277629.0017934,2.0,1.0,-1.0,-3.0,-3.0,-2.0,-2.0,-1.0
1706277629.0017934,3.0,2.0,-6.0,0.0,-1.0,1.0,4.0,2.0
1706277629.0211804,-4.0,2.0,5.0,2.0,-2.0,-1.0,-2.0,-3.0
1706277629.0211804,-4.0,-14.0,-7.0,-3.0,-2.0,-2.0,-3.0,-3.0
1706277629.0222242,10.0,-6.0,-3.0,-1.0,0.0,-1.0,-3.0,10.0
1706277629.0222242,-7.0,5.0,1.0,-2.0,0.0,0.0,6.0,-12.0
1706277629.0353093,-7.0,-1.0,5.0,1.0,1.0,0.0,-5.0,-3.0
1706277629.0353093,-1.0,-9.0,-13.0,-4.0,-2.0,-4.0,-11.0,-7.0
1706277629.04616,8.0,3.0,8.0,5.0,4.0,2.0,-2.0,3.0
1706277629.04616,-6.0,-1.0,7.0,-2.0,0.0,-1.0,7.0,7.0
1706277629.0584373,-2.0,0.0,9.0,-3.0,-2.0,0.0,-6.0,-1.0
1706277629.0584373,-10.0,-19.0,-15.0,-2.0,-3.0,-4.0,-7.0,-25.0
1706277629.0599864,1.0,7.0,9.0,3.0,2.0,-1.0,0.0,-5.0
1706277629.0599864,-6.0,-10.0,4.0,-1.0,-1.0,-1.0,-2.0,4.0
1706277629.080722,-3.0,-7.0,-12.0,-4.0,-2.0,-3.0,-5.0,-4.0
1706277629.080722,2.0,-10.0,-2.0,-3.0,-2.0,-1.0,-1.0,5.0
1706277629.082345,-2.0,0.0,1.0,0.0,-1.0,0.0,5.0,-7.0
1706277629.082345,2.0,0.0,-5.0,0.0,1.0,0.0,2.0,5.0
1706277629.103435,6.0,3.0,6.0,2.0,2.0,1.0,4.0,12.0
1706277629.103435,4.0,11.0,1.0,-2.0,-1.0,-4.0,-7.0,3.0
1706277629.103435,-9.0,-17.0,-3.0,2.0,-1.0,-3.0,-3.0,-4.0
1706277629.103435,6.0,3.0,3.0,-2.0,-2.0,2.0,3.0,6.0
1706277629.119343,-1.0,-4.0,-6.0,-2.0,-1.0,-2.0,0.0,-3.0
1706277629.1203275,5.0,13.0,14.0,0.0,3.0,5.0,11.0,14.0
1706277629.1203275,9.0,20.0,4.0,2.0,3.0,0.0,-11.0,1.0
1706277629.1203275,-8.0,9.0,1.0,-7.0,-7.0,-9.0,-4.0,-8.0
1706277629.1405468,-8.0,-4.0,-6.0,-2.0,-2.0,-1.0,-1.0,-4.0
1706277629.1405468,-4.0,-9.0,-1.0,0.0,2.0,1.0,-1.0,-2.0
1706277629.1423972,-4.0,-6.0,-14.0,-6.0,-3.0,-2.0,2.0,-1.0
1706277629.1423972,-7.0,-6.0,-4.0,-2.0,0.0,0.0,-3.0,-6.0
1706277629.1579852,0.0,5.0,4.0,1.0,1.0,3.0,1.0,-1.0
1706277629.1579852,2.0,-1.0,-2.0,0.0,-1.0,0.0,4.0,7.0
1706277629.163991,-7.0,-5.0,5.0,0.0,0.0,0.0,-2.0,-18.0
1706277629.163991,5.0,-1.0,-3.0,0.0,-1.0,-4.0,-3.0,10.0
1706277629.1796045,4.0,0.0,0.0,0.0,-2.0,-2.0,-4.0,-3.0
1706277629.1796045,-5.0,-10.0,-3.0,3.0,1.0,-1.0,-1.0,0.0
1706277629.1816113,-1.0,3.0,-7.0,-10.0,-3.0,-1.0,2.0,3.0
1706277629.1816113,1.0,-6.0,-25.0,-8.0,-3.0,-2.0,-6.0,-3.0
1706277629.201805,-13.0,-8.0,4.0,6.0,1.0,1.0,3.0,-14.0
1706277629.201805,-1.0,-1.0,2.0,-2.0,-3.0,-2.0,-6.0,-1.0
1706277629.202802,4.0,5.0,1.0,10.0,1.0,0.0,4.0,8.0
1706277629.202802,-2.0,0.0,-5.0,-3.0,0.0,1.0,-6.0,-8.0
1706277629.2152958,4.0,15.0,19.0,-19.0,-11.0,-3.0,10.0,8.0
1706277629.2152958,3.0,-3.0,-4.0,5.0,3.0,1.0,-24.0,-2.0
1706277629.2434375,-10.0,-20.0,-2.0,2.0,1.0,-2.0,3.0,1.0
1706277629.2434375,1.0,2.0,4.0,5.0,2.0,0.0,2.0,-2.0
1706277629.2434375,1.0,1.0,-8.0,0.0,-2.0,-2.0,-6.0,-6.0
1706277629.2434375,10.0,-2.0,-8.0,-1.0,1.0,-1.0,4.0,6.0
1706277629.2434375,-1.0,-2.0,9.0,-15.0,-11.0,-3.0,0.0,5.0
1706277629.2434375,-3.0,-3.0,-6.0,1.0,0.0,-1.0,-5.0,-2.0
1706277629.2692206,-2.0,-3.0,-1.0,5.0,2.0,0.0,2.0,3.0
1706277629.2692206,-2.0,1.0,-4.0,-4.0,-5.0,-2.0,7.0,1.0
1706277629.2692206,5.0,5.0,-10.0,-3.0,-1.0,0.0,-6.0,1.0
1706277629.2692206,1.0,4.0,23.0,14.0,3.0,-1.0,5.0,-4.0
1706277629.2752826,-2.0,-6.0,-11.0,-4.0,0.0,0.0,-4.0,0.0
1706277629.2752826,-4.0,2.0,10.0,10.0,3.0,0.0,5.0,-1.0
1706277629.2833838,5.0,3.0,19.0,3.0,4.0,3.0,2.0,2.0
1706277629.284383,-1.0,2.0,-13.0,-16.0,-3.0,-1.0,3.0,0.0
1706277629.2982836,-3.0,-4.0,-3.0,3.0,-2.0,-3.0,-3.0,-1.0
1706277629.2992828,-3.0,-4.0,3.0,-5.0,-5.0,-4.0,-2.0,-2.0
1706277629.3002818,5.0,0.0,0.0,3.0,12.0,6.0,1.0,3.0
1706277629.3002818,0.0,4.0,-12.0,1.0,0.0,-1.0,0.0,-4.0
1706277629.338781,0.0,-1.0,5.0,2.0,-8.0,-2.0,-2.0,3.0
1706277629.338781,-3.0,-2.0,-10.0,-9.0,-3.0,-1.0,2.0,-3.0
1706277629.339781,-2.0,-1.0,13.0,11.0,1.0,4.0,-1.0,0.0
1706277629.339781,1.0,3.0,4.0,-5.0,-10.0,-4.0,-1.0,2.0
1706277629.339781,-1.0,-2.0,12.0,28.0,16.0,2.0,-1.0,-2.0
1706277629.339781,-2.0,-1.0,-18.0,10.0,20.0,6.0,2.0,-1.0
1706277629.3434772,-9.0,-12.0,-34.0,-19.0,-13.0,-11.0,-8.0,-8.0
1706277629.3434772,-4.0,-5.0,-2.0,-4.0,-7.0,-2.0,-4.0,-2.0
1706277629.358552,0.0,0.0,3.0,-2.0,-1.0,-1.0,0.0,-1.0
1706277629.358552,0.0,2.0,12.0,6.0,0.0,-2.0,0.0,-1.0
1706277629.3596194,2.0,3.0,-1.0,-1.0,0.0,-1.0,-3.0,-1.0
1706277629.3596194,1.0,0.0,1.0,2.0,2.0,2.0,2.0,1.0
1706277629.3830621,-3.0,-6.0,-20.0,-10.0,-4.0,-1.0,-1.0,-3.0
1706277629.3830621,-3.0,-1.0,3.0,0.0,-2.0,-1.0,1.0,-1.0
1706277629.3830621,-3.0,0.0,-8.0,-5.0,-3.0,-1.0,-1.0,-2.0
1706277629.3830621,-1.0,-1.0,0.0,-4.0,-3.0,-3.0,-4.0,-2.0
1706277629.3955142,-3.0,0.0,9.0,2.0,2.0,0.0,0.0,0.0
1706277629.3955142,-3.0,0.0,-2.0,-1.0,-3.0,-2.0,0.0,-1.0
1706277629.4046934,-1.0,0.0,-2.0,-3.0,-5.0,-2.0,-1.0,-3.0
1706277629.4046934,1.0,0.0,10.0,3.0,-1.0,-3.0,-2.0,0.0
1706277629.4209752,-2.0,-1.0,-5.0,-3.0,0.0,1.0,-1.0,0.0
1706277629.4209752,1.0,-2.0,-5.0,-8.0,-10.0,-2.0,0.0,0.0
1706277629.4209752,-2.0,-1.0,-1.0,-5.0,-6.0,-3.0,-2.0,-1.0
1706277629.4209752,-2.0,0.0,0.0,1.0,4.0,2.0,0.0,0.0
1706277629.4566653,-2.0,-2.0,-7.0,-8.0,-2.0,-2.0,-1.0,-3.0
1706277629.4566653,-1.0,-2.0,-2.0,-10.0,-8.0,-3.0,-4.0,-3.0
1706277629.4566653,-2.0,2.0,12.0,11.0,2.0,-3.0,-3.0,-2.0
1706277629.4566653,-1.0,-2.0,-6.0,3.0,2.0,0.0,-1.0,0.0
1706277629.4566653,1.0,1.0,0.0,-6.0,0.0,-1.0,-2.0,2.0
1706277629.4566653,-4.0,-3.0,-3.0,-9.0,-10.0,-3.0,0.0,-1.0
1706277629.4636889,-1.0,3.0,16.0,16.0,3.0,1.0,0.0,-1.0
1706277629.4636889,-1.0,-1.0,-4.0,-2.0,4.0,2.0,0.0,-1.0
1706277629.4784348,-2.0,0.0,-3.0,5.0,-4.0,-3.0,-3.0,-1.0
1706277629.4784348,0.0,1.0,-1.0,-17.0,-7.0,-1.0,0.0,0.0
1706277629.4793236,-3.0,-4.0,-4.0,7.0,3.0,-2.0,-3.0,-2.0
1706277629.4793236,-2.0,-1.0,3.0,-3.0,-5.0,-2.0,-1.0,-1.0
1706277629.5043442,1.0,1.0,11.0,13.0,4.0,0.0,-1.0,0.0
1706277629.5043442,-4.0,-2.0,3.0,10.0,12.0,-1.0,-1.0,-1.0
1706277629.5043442,-2.0,-1.0,-1.0,-12.0,-9.0,-3.0,-5.0,-2.0
1706277629.5043442,-1.0,-1.0,-6.0,-3.0,-4.0,1.0,-1.0,-1.0
1706277629.514451,-1.0,-3.0,-4.0,-5.0,-2.0,-3.0,0.0,0.0
1706277629.514451,0.0,-3.0,-2.0,-3.0,-5.0,-2.0,0.0,-2.0
1706277629.523389,0.0,0.0,-3.0,-1.0,1.0,1.0,0.0,-1.0
1706277629.523389,-1.0,-1.0,3.0,3.0,3.0,-2.0,-1.0,-1.0
1706277629.5384374,0.0,1.0,-8.0,-13.0,-8.0,-2.0,0.0,-1.0
1706277629.5384374,1.0,2.0,-1.0,8.0,2.0,1.0,0.0,2.0
1706277629.5394747,-2.0,-3.0,-9.0,-8.0,-3.0,-1.0,-2.0,-1.0
1706277629.5394747,1.0,1.0,12.0,1.0,-1.0,1.0,0.0,0.0
1706277629.5609396,-1.0,-6.0,-15.0,3.0,0.0,-2.0,1.0,-3.0
1706277629.5609396,-1.0,2.0,2.0,-2.0,-2.0,0.0,0.0,0.0
1706277629.5630658,1.0,1.0,2.0,1.0,-3.0,-2.0,-2.0,0.0
1706277629.5630658,-3.0,0.0,0.0,-3.0,-2.0,-2.0,0.0,0.0
1706277629.573444,-2.0,-1.0,0.0,0.0,2.0,-1.0,-3.0,-1.0
1706277629.573444,-2.0,-1.0,1.0,0.0,-1.0,-1.0,0.0,-1.0
1706277629.5831153,-2.0,0.0,-7.0,-3.0,-1.0,0.0,-1.0,1.0
1706277629.5831153,1.0,-2.0,-5.0,3.0,1.0,-2.0,1.0,-3.0
1706277629.603068,-2.0,1.0,14.0,-3.0,-1.0,0.0,-1.0,-1.0
1706277629.603068,-1.0,-4.0,-17.0,-7.0,-2.0,-1.0,-1.0,-4.0
1706277629.603068,0.0,-1.0,-5.0,-5.0,-1.0,-2.0,2.0,1.0
1706277629.603068,0.0,1.0,-1.0,2.0,1.0,0.0,-1.0,-1.0
1706277629.6132987,-1.0,-1.0,3.0,-7.0,-4.0,-3.0,-3.0,-1.0
1706277629.6132987,-3.0,-2.0,1.0,-1.0,-1.0,-1.0,-2.0,-2.0
1706277629.623118,-1.0,2.0,2.0,2.0,2.0,0.0,1.0,-3.0
1706277629.623118,-1.0,-2.0,-2.0,-3.0,-5.0,-3.0,-1.0,-1.0
1706277629.6333885,-2.0,-2.0,-8.0,-1.0,-3.0,-2.0,-1.0,-2.0
1706277629.6333885,0.0,0.0,4.0,0.0,-5.0,-3.0,-3.0,-2.0
1706277629.6431272,0.0,-3.0,-3.0,-2.0,1.0,-2.0,0.0,0.0
1706277629.6431272,-1.0,-1.0,-16.0,-1.0,0.0,-1.0,-1.0,0.0
1706277629.6731129,-2.0,2.0,10.0,-3.0,-2.0,-2.0,0.0,-1.0
1706277629.6731129,-1.0,-4.0,4.0,7.0,1.0,0.0,-1.0,1.0
1706277629.68308,-1.0,0.0,3.0,-2.0,-1.0,1.0,0.0,-2.0
1706277629.68308,-2.0,0.0,-3.0,-2.0,1.0,-2.0,-1.0,0.0
1706277629.68308,0.0,-2.0,-8.0,1.0,0.0,0.0,-1.0,1.0
1706277629.68308,-1.0,0.0,7.0,4.0,0.0,1.0,-1.0,0.0
1706277629.68308,-1.0,-2.0,-5.0,0.0,-1.0,-2.0,0.0,0.0
1706277629.68308,0.0,0.0,9.0,0.0,-2.0,-1.0,-2.0,0.0
1706277629.6930919,1.0,1.0,-9.0,-5.0,-1.0,-2.0,0.0,0.0
1706277629.6930919,-1.0,1.0,7.0,0.0,-3.0,-1.0,-1.0,-1.0
1706277629.7030716,0.0,-3.0,-2.0,-4.0,-1.0,-1.0,-3.0,-1.0
1706277629.7030716,0.0,-2.0,-2.0,1.0,4.0,0.0,-1.0,-3.0
1706277629.7230692,-1.0,0.0,1.0,-2.0,-4.0,0.0,0.0,-1.0
1706277629.7230692,1.0,0.0,-6.0,0.0,1.0,-2.0,0.0,-1.0
1706277629.7230692,-1.0,-1.0,0.0,-1.0,-3.0,-1.0,-1.0,0.0
1706277629.7230692,-1.0,-1.0,3.0,0.0,1.0,0.0,-2.0,-2.0
1706277629.733297,-1.0,-1.0,-2.0,-13.0,-6.0,-2.0,-2.0,0.0
1706277629.733297,-3.0,-2.0,-1.0,7.0,-3.0,0.0,-1.0,-2.0
1706277629.7430725,0.0,0.0,0.0,-1.0,1.0,0.0,0.0,-1.0
1706277629.7430725,0.0,-1.0,-6.0,-7.0,-7.0,-2.0,-2.0,1.0
1706277629.753425,-3.0,-3.0,-2.0,3.0,6.0,1.0,-3.0,-1.0
1706277629.753425,-2.0,-1.0,-2.0,-8.0,-1.0,-3.0,-1.0,0.0
1706277629.7634585,-2.0,-3.0,-3.0,0.0,-3.0,-2.0,-1.0,-1.0
1706277629.7634585,-1.0,2.0,1.0,-4.0,-5.0,-1.0,0.0,-2.0
1706277629.7734916,-1.0,-1.0,0.0,3.0,1.0,1.0,0.0,-1.0
1706277629.7734916,1.0,0.0,3.0,-1.0,1.0,-1.0,0.0,1.0
1706277629.7837868,-3.0,-5.0,-18.0,-3.0,-2.0,-2.0,-2.0,-2.0
1706277629.7837868,0.0,-4.0,-15.0,-17.0,-4.0,-1.0,-1.0,-2.0
1706277629.7938263,-3.0,-4.0,-4.0,1.0,-1.0,-1.0,-1.0,-3.0
1706277629.7938263,-2.0,0.0,6.0,0.0,1.0,0.0,0.0,-1.0
1706277629.7938263,0.0,-2.0,0.0,0.0,0.0,-1.0,-3.0,-2.0
1706277629.7938263,-1.0,-1.0,2.0,3.0,0.0,-1.0,-3.0,0.0
1706277629.8138454,0.0,-1.0,-4.0,-3.0,-1.0,-1.0,1.0,0.0
1706277629.8138454,-1.0,-1.0,-5.0,-4.0,-2.0,-1.0,-1.0,-1.0
1706277629.8234622,-2.0,0.0,4.0,-1.0,-3.0,-2.0,-2.0,-1.0
1706277629.8234622,-2.0,-2.0,2.0,6.0,3.0,1.0,0.0,-1.0
1706277629.833492,0.0,2.0,6.0,2.0,3.0,1.0,1.0,0.0
1706277629.833492,-1.0,0.0,-9.0,-2.0,-2.0,-2.0,-1.0,-2.0
1706277629.843786,-1.0,0.0,9.0,-2.0,-1.0,-1.0,-2.0,1.0
1706277629.843786,-4.0,-2.0,-8.0,-3.0,-3.0,-3.0,-2.0,-1.0
1706277629.8537788,1.0,-4.0,-4.0,-3.0,-4.0,-4.0,-1.0,-2.0
1706277629.8537788,-1.0,-1.0,-3.0,-3.0,-2.0,0.0,0.0,-2.0
1706277629.8537788,-2.0,-1.0,2.0,0.0,2.0,0.0,1.0,-2.0
1706277629.8537788,0.0,-3.0,3.0,1.0,1.0,-2.0,-1.0,0.0
1706277629.8737633,-1.0,2.0,0.0,-1.0,-2.0,0.0,0.0,1.0
1706277629.8737633,-1.0,-3.0,-5.0,-4.0,-4.0,-1.0,-3.0,-1.0
1706277629.883459,-1.0,-2.0,0.0,-1.0,-1.0,-2.0,-1.0,0.0
1706277629.883459,0.0,-1.0,7.0,4.0,6.0,-1.0,0.0,-2.0
1706277629.9035401,2.0,3.0,-5.0,11.0,6.0,2.0,1.0,2.0
1706277629.9035401,-5.0,-5.0,3.0,-9.0,-6.0,-4.0,-5.0,-3.0
1706277629.9035401,0.0,2.0,2.0,-2.0,-3.0,0.0,-1.0,-1.0
1706277629.9035401,2.0,0.0,-2.0,1.0,-3.0,-1.0,1.0,0.0
1706277629.9138258,-1.0,0.0,4.0,-3.0,1.0,-1.0,0.0,-1.0
1706277629.9138258,-1.0,-1.0,-3.0,1.0,3.0,1.0,0.0,-1.0
1706277629.9138258,-2.0,-1.0,-4.0,1.0,0.0,-2.0,-1.0,-1.0
1706277629.9138258,-3.0,-1.0,1.0,-4.0,-4.0,-4.0,-2.0,-2.0
1706277629.933509,1.0,-4.0,-2.0,-4.0,-4.0,-3.0,-3.0,-1.0
1706277629.933509,1.0,1.0,-1.0,4.0,-3.0,-1.0,0.0,-2.0
1706277629.9435875,-2.0,-2.0,-3.0,3.0,1.0,-1.0,0.0,-2.0
1706277629.9435875,-1.0,1.0,-1.0,-1.0,-1.0,-1.0,-1.0,-1.0
1706277629.9537876,-1.0,-4.0,-6.0,-4.0,-2.0,1.0,-2.0,0.0
1706277629.9537876,-1.0,1.0,16.0,3.0,2.0,1.0,-1.0,-2.0
1706277629.9637737,0.0,1.0,3.0,-4.0,-5.0,-3.0,-2.0,-1.0
1706277629.9637737,0.0,0.0,2.0,1.0,-1.0,1.0,-1.0,-1.0
1706277629.9741066,-1.0,-2.0,-3.0,-1.0,1.0,-3.0,-1.0,-2.0
1706277629.9741066,0.0,0.0,1.0,2.0,2.0,-1.0,1.0,0.0
1706277629.9741066,-2.0,0.0,-5.0,-1.0,-3.0,-1.0,-2.0,1.0
1706277629.9838111,0.0,0.0,0.0,-1.0,-2.0,0.0,-4.0,-1.0
1706277630.0037932,-3.0,-1.0,2.0,0.0,1.0,-1.0,-1.0,-1.0
1706277630.0037932,0.0,-2.0,-8.0,0.0,2.0,0.0,1.0,1.0
1706277630.0037932,1.0,-1.0,-6.0,-1.0,2.0,0.0,-1.0,0.0
1706277630.0037932,-2.0,-2.0,5.0,-5.0,-4.0,-2.0,1.0,-1.0
1706277630.017819,-2.0,0.0,-9.0,2.0,0.0,-1.0,-2.0,-1.0
1706277630.017819,-1.0,-1.0,-2.0,-3.0,-3.0,-2.0,-3.0,-1.0
1706277630.0246089,-2.0,-1.0,-12.0,-6.0,1.0,-1.0,0.0,-2.0
1706277630.0246089,-1.0,0.0,8.0,1.0,1.0,0.0,-1.0,-2.0
1706277630.040914,-2.0,-2.0,-3.0,-3.0,-5.0,-3.0,-1.0,-1.0
1706277630.040914,0.0,0.0,-1.0,-1.0,-1.0,-2.0,-1.0,-1.0
1706277630.0429235,1.0,0.0,2.0,-1.0,-3.0,-1.0,0.0,-1.0
1706277630.0429235,0.0,0.0,-2.0,1.0,0.0,0.0,0.0,-1.0
1706277630.0570545,-1.0,-3.0,-6.0,-4.0,-2.0,-1.0,2.0,-2.0
1706277630.0570545,-1.0,-1.0,-2.0,-2.0,-4.0,0.0,-1.0,-1.0
1706277630.0570545,-2.0,-2.0,-7.0,-4.0,-4.0,-3.0,-2.0,-2.0
1706277630.0570545,-1.0,-1.0,-6.0,0.0,-6.0,-4.0,-1.0,0.0
1706277630.0773773,-1.0,1.0,2.0,-1.0,1.0,0.0,0.0,1.0
1706277630.0773773,-1.0,0.0,0.0,0.0,3.0,-1.0,-2.0,-1.0
1706277630.0773773,-1.0,0.0,2.0,0.0,3.0,2.0,-1.0,-2.0
1706277630.0773773,-1.0,-1.0,-1.0,0.0,-1.0,0.0,-2.0,0.0
1706277630.0973809,-3.0,-4.0,-8.0,-4.0,-3.0,-3.0,-2.0,-2.0
1706277630.0973809,-1.0,0.0,1.0,0.0,-2.0,-2.0,-1.0,-1.0
1706277630.0973809,0.0,-1.0,1.0,-3.0,-1.0,0.0,-1.0,-1.0
1706277630.0973809,-2.0,-1.0,-4.0,-4.0,-2.0,-4.0,-2.0,-2.0
1706277630.1270552,0.0,1.0,3.0,0.0,-2.0,1.0,-1.0,-2.0
1706277630.1270552,-1.0,-2.0,-5.0,-2.0,0.0,1.0,0.0,-1.0
1706277630.1270552,0.0,0.0,-1.0,2.0,2.0,1.0,-1.0,-1.0
1706277630.1270552,0.0,0.0,0.0,-1.0,1.0,-1.0,0.0,0.0
1706277630.1370895,-2.0,0.0,6.0,-1.0,-2.0,-2.0,-2.0,-2.0
1706277630.1370895,-1.0,-4.0,-11.0,-4.0,-2.0,1.0,-2.0,-2.0
1706277630.1370895,0.0,0.0,2.0,1.0,-5.0,-3.0,0.0,1.0
1706277630.1370895,0.0,-2.0,-1.0,1.0,3.0,2.0,-1.0,-2.0
1706277630.1570542,-1.0,-1.0,3.0,-2.0,-3.0,-2.0,-3.0,-1.0
1706277630.1570542,-1.0,0.0,-2.0,0.0,-3.0,-3.0,-1.0,-1.0
1706277630.1570542,-2.0,-1.0,0.0,-3.0,-4.0,0.0,0.0,-1.0
1706277630.1570542,-1.0,-1.0,1.0,2.0,4.0,0.0,-1.0,-1.0
1706277630.1775024,-2.0,-2.0,-3.0,-4.0,-5.0,-4.0,-1.0,-2.0
1706277630.1775024,-1.0,-2.0,3.0,0.0,-7.0,-1.0,1.0,0.0
1706277630.1775024,-1.0,-2.0,0.0,2.0,9.0,5.0,0.0,0.0
1706277630.1775024,0.0,-1.0,1.0,-3.0,-7.0,-3.0,-1.0,-1.0
1706277630.1972892,-1.0,2.0,4.0,2.0,2.0,0.0,-2.0,-1.0
1706277630.1972892,-3.0,-4.0,-7.0,-7.0,-1.0,-3.0,-1.0,-2.0
1706277630.1972892,-1.0,1.0,5.0,4.0,-5.0,-1.0,0.0,-1.0
1706277630.1972892,-2.0,-1.0,-5.0,-2.0,3.0,0.0,0.0,0.0
1706277630.2170937,-1.0,-2.0,2.0,4.0,5.0,3.0,-1.0,-1.0
1706277630.2170937,-1.0,-1.0,-6.0,-6.0,2.0,-3.0,-1.0,-2.0
1706277630.2270536,-1.0,-8.0,0.0,-1.0,-6.0,-6.0,-2.0,-2.0
1706277630.2270536,1.0,2.0,1.0,5.0,2.0,5.0,1.0,-1.0
1706277630.2372515,1.0,-1.0,-5.0,-16.0,0.0,-1.0,1.0,0.0
1706277630.2372515,0.0,6.0,0.0,7.0,-2.0,4.0,-2.0,-1.0
1706277630.2372515,-3.0,-7.0,-4.0,-8.0,2.0,-2.0,-2.0,-2.0
1706277630.2372515,-4.0,-7.0,-8.0,2.0,-11.0,-4.0,-2.0,-3.0
1706277630.257059,2.0,4.0,8.0,18.0,18.0,6.0,2.0,1.0
1706277630.257059,0.0,3.0,-6.0,-15.0,-9.0,-5.0,-1.0,-1.0
1706277630.257059,1.0,0.0,3.0,-2.0,-1.0,0.0,-1.0,0.0
1706277630.257059,0.0,5.0,-6.0,-8.0,-9.0,-6.0,-5.0,-2.0
1706277630.2773676,-3.0,-5.0,-9.0,-34.0,-16.0,0.0,-1.0,-1.0
1706277630.2773676,-7.0,-6.0,-1.0,24.0,3.0,-6.0,-4.0,-5.0
1706277630.2870536,-1.0,-8.0,2.0,12.0,-9.0,0.0,2.0,1.0
1706277630.2870536,1.0,-2.0,1.0,-6.0,-2.0,2.0,4.0,2.0
1706277630.2973948,3.0,4.0,-4.0,24.0,22.0,3.0,1.0,-1.0
1706277630.2973948,3.0,7.0,-4.0,-26.0,5.0,5.0,0.0,1.0
1706277630.2973948,-6.0,-4.0,-3.0,-2.0,-6.0,-2.0,-3.0,-3.0
1706277630.2973948,-5.0,-6.0,-8.0,-13.0,-13.0,-9.0,-4.0,-2.0
1706277630.3172684,0.0,-3.0,1.0,5.0,2.0,3.0,0.0,0.0
1706277630.3172684,-2.0,6.0,10.0,2.0,0.0,-1.0,-2.0,-3.0
1706277630.3172684,4.0,15.0,-6.0,-37.0,-21.0,-9.0,-4.0,-2.0
1706277630.3172684,-1.0,1.0,-10.0,-25.0,-11.0,-8.0,-3.0,-1.0
1706277630.337054,-9.0,-14.0,-12.0,28.0,-32.0,-9.0,-4.0,-5.0
1706277630.337054,9.0,11.0,15.0,51.0,52.0,18.0,8.0,5.0
1706277630.337054,-14.0,-30.0,-14.0,12.0,15.0,2.0,-2.0,-4.0
1706277630.337054,7.0,25.0,23.0,-12.0,-6.0,-1.0,0.0,2.0
1706277630.3573139,4.0,8.0,9.0,-14.0,-23.0,-10.0,-3.0,0.0
1706277630.3573139,-1.0,1.0,-3.0,-20.0,-17.0,-6.0,-3.0,-3.0
1706277630.3573139,-10.0,-33.0,-26.0,-12.0,-13.0,-4.0,-3.0,-6.0
1706277630.3573139,-3.0,0.0,-7.0,-8.0,0.0,-2.0,-4.0,-6.0
1706277630.377069,-9.0,-15.0,0.0,27.0,35.0,7.0,2.0,0.0
1706277630.377069,2.0,-4.0,10.0,5.0,2.0,6.0,5.0,4.0
1706277630.4070537,5.0,16.0,7.0,0.0,15.0,4.0,1.0,1.0
1706277630.4070537,-6.0,-14.0,-3.0,10.0,6.0,1.0,-2.0,-4.0
1706277630.4070537,4.0,2.0,1.0,-20.0,-17.0,-4.0,-3.0,-1.0
1706277630.4070537,2.0,19.0,-4.0,-28.0,-16.0,-6.0,-4.0,-3.0
1706277630.4070537,-12.0,-23.0,-4.0,28.0,-6.0,-6.0,-8.0,-5.0
1706277630.4070537,-3.0,-13.0,5.0,23.0,22.0,10.0,4.0,3.0
1706277630.4174354,-2.0,3.0,10.0,3.0,5.0,-3.0,-1.0,0.0
1706277630.4174354,-2.0,-9.0,0.0,-12.0,-15.0,-5.0,-1.0,1.0
1706277630.4174354,9.0,21.0,3.0,12.0,21.0,11.0,2.0,3.0
1706277630.4174354,-4.0,-12.0,-5.0,3.0,-1.0,1.0,-3.0,-2.0
1706277630.437058,1.0,7.0,-1.0,-15.0,-6.0,-6.0,-4.0,-2.0
1706277630.437058,-5.0,-12.0,-4.0,-14.0,-18.0,-8.0,-2.0,-3.0
1706277630.447054,4.0,11.0,7.0,-8.0,-2.0,-3.0,2.0,0.0
1706277630.447054,0.0,0.0,-9.0,-1.0,6.0,0.0,1.0,-1.0
1706277630.457457,2.0,1.0,-6.0,3.0,-3.0,-1.0,-2.0,-2.0
1706277630.457457,-3.0,-14.0,-7.0,6.0,2.0,-1.0,0.0,-1.0
1706277630.457457,8.0,30.0,14.0,4.0,2.0,-1.0,1.0,2.0
1706277630.457457,-3.0,-8.0,1.0,-2.0,-3.0,-2.0,-1.0,-3.0
1706277630.4774735,-2.0,6.0,0.0,-12.0,-14.0,-5.0,-4.0,-3.0
1706277630.4774735,1.0,2.0,2.0,1.0,-5.0,-2.0,-1.0,1.0
1706277630.4774735,-5.0,-17.0,-17.0,-7.0,-1.0,-1.0,1.0,-1.0
1706277630.4774735,5.0,18.0,6.0,6.0,-2.0,1.0,1.0,3.0
1706277630.4970589,-3.0,-6.0,1.0,-4.0,0.0,2.0,-1.0,-4.0
1706277630.4970589,-2.0,-8.0,-1.0,1.0,0.0,-2.0,-2.0,-3.0
1706277630.507053,-1.0,1.0,0.0,-3.0,-2.0,0.0,2.0,0.0
1706277630.507053,0.0,2.0,-2.0,0.0,4.0,3.0,-1.0,0.0
1706277630.517433,1.0,0.0,-5.0,2.0,3.0,0.0,0.0,2.0
1706277630.517433,-5.0,-8.0,-8.0,-5.0,0.0,-2.0,-1.0,-3.0
1706277630.5270703,0.0,10.0,12.0,-12.0,-12.0,-5.0,-2.0,0.0
1706277630.5270703,4.0,14.0,-11.0,3.0,-7.0,-2.0,-1.0,1.0
1706277630.537398,-6.0,-12.0,-4.0,5.0,12.0,1.0,-1.0,-1.0
1706277630.537398,1.0,3.0,1.0,-5.0,-9.0,-1.0,-2.0,-2.0
1706277630.537398,2.0,1.0,0.0,2.0,0.0,-1.0,-2.0,0.0
1706277630.537398,-2.0,1.0,9.0,2.0,5.0,1.0,0.0,0.0
1706277630.5577412,1.0,7.0,2.0,0.0,0.0,2.0,2.0,1.0
1706277630.5577412,-6.0,-15.0,-15.0,-1.0,2.0,-3.0,-4.0,-3.0
1706277630.5682204,5.0,18.0,3.0,-1.0,-1.0,-1.0,-1.0,-1.0
1706277630.5682204,-2.0,-5.0,-4.0,0.0,-1.0,-3.0,0.0,-2.0
1706277630.5786073,-2.0,-6.0,-8.0,-8.0,-5.0,-1.0,-1.0,-2.0
1706277630.5786073,-4.0,-9.0,-3.0,1.0,2.0,0.0,-1.0,0.0
1706277630.5786073,-3.0,-8.0,0.0,5.0,2.0,-1.0,-1.0,-1.0
1706277630.5786073,-4.0,-9.0,-4.0,-6.0,-3.0,-1.0,-2.0,-1.0
1706277630.6086078,-6.0,-10.0,-2.0,-3.0,-2.0,1.0,-3.0,-4.0
1706277630.6086078,-1.0,-13.0,-1.0,4.0,1.0,-3.0,0.0,1.0
1706277630.6086078,-6.0,-7.0,3.0,-6.0,-1.0,-2.0,-3.0,-2.0
1706277630.6086078,5.0,-2.0,-2.0,3.0,1.0,-1.0,1.0,0.0
1706277630.6086078,-5.0,-12.0,-7.0,-6.0,-6.0,-4.0,-2.0,-4.0
1706277630.6086078,-7.0,-2.0,-5.0,-8.0,-17.0,-11.0,-6.0,-7.0
1706277630.6186156,8.0,7.0,9.0,12.0,20.0,11.0,7.0,8.0
1706277630.6186156,-4.0,-7.0,-5.0,-4.0,-2.0,-1.0,-4.0,-1.0
1706277630.6386192,2.0,3.0,6.0,3.0,0.0,-2.0,-2.0,-1.0
1706277630.6386192,-1.0,6.0,-8.0,-4.0,-5.0,-2.0,0.0,0.0
1706277630.6386192,-1.0,-10.0,-4.0,-3.0,-7.0,-5.0,-4.0,-2.0
1706277630.6386192,-5.0,-1.0,-1.0,0.0,-2.0,-1.0,-1.0,-1.0
1706277630.6786783,8.0,7.0,-3.0,-4.0,0.0,-1.0,-1.0,3.0
1706277630.6786783,-4.0,3.0,8.0,7.0,4.0,3.0,0.0,-3.0
1706277630.688675,-2.0,3.0,1.0,-2.0,-5.0,-3.0,-1.0,-1.0
1706277630.688675,2.0,-9.0,-2.0,-2.0,-3.0,0.0,-1.0,1.0
1706277630.688675,-4.0,4.0,-1.0,-3.0,-4.0,-3.0,-2.0,-3.0
1706277630.688675,2.0,3.0,6.0,1.0,6.0,2.0,1.0,1.0
1706277630.688675,0.0,3.0,-10.0,-3.0,-4.0,-2.0,-3.0,-2.0
1706277630.688675,-1.0,14.0,7.0,-2.0,-5.0,-3.0,-1.0,-3.0
1706277630.6989777,-6.0,-15.0,-7.0,-5.0,0.0,-1.0,0.0,-3.0
1706277630.6989777,7.0,6.0,0.0,1.0,-1.0,0.0,-3.0,-2.0
1706277630.6989777,-10.0,-6.0,-4.0,-3.0,1.0,3.0,1.0,-2.0
1706277630.6989777,-2.0,-6.0,-2.0,-6.0,-10.0,-6.0,-2.0,-1.0
1706277630.7289953,1.0,7.0,-1.0,-5.0,-1.0,1.0,2.0,2.0
1706277630.7289953,8.0,6.0,1.0,17.0,20.0,12.0,6.0,6.0
1706277630.7289953,1.0,-3.0,2.0,4.0,3.0,2.0,-1.0,1.0
1706277630.7289953,-1.0,0.0,5.0,1.0,-2.0,-2.0,-2.0,-3.0
1706277630.7289953,0.0,-2.0,-22.0,-16.0,-6.0,-5.0,-2.0,-5.0
1706277630.7289953,-2.0,-4.0,4.0,-4.0,-2.0,1.0,-1.0,0.0
1706277630.7393448,-2.0,-4.0,-7.0,-11.0,-23.0,-11.0,-3.0,-4.0
1706277630.7393448,1.0,-1.0,5.0,33.0,37.0,14.0,6.0,1.0
1706277630.7594068,1.0,5.0,6.0,2.0,0.0,2.0,0.0,1.0
1706277630.7594068,-2.0,-1.0,-5.0,-6.0,-1.0,-4.0,0.0,-1.0
1706277630.7689972,-1.0,-2.0,-6.0,-4.0,4.0,2.0,-2.0,-2.0
1706277630.7689972,-1.0,-4.0,-1.0,-13.0,-12.0,-9.0,-4.0,-5.0
1706277630.7790277,-10.0,-1.0,-8.0,-11.0,-35.0,-14.0,-9.0,-6.0
1706277630.7790277,0.0,-2.0,-1.0,1.0,0.0,0.0,1.0,-1.0
1706277630.7790277,7.0,8.0,12.0,15.0,39.0,18.0,4.0,2.0
1706277630.7790277,0.0,-6.0,-2.0,3.0,12.0,8.0,8.0,7.0
1706277630.7892482,3.0,2.0,8.0,11.0,22.0,9.0,0.0,2.0
1706277630.7892482,-5.0,-6.0,-7.0,-10.0,-16.0,-10.0,-4.0,2.0
1706277630.7992132,-1.0,-2.0,-4.0,-11.0,-28.0,-15.0,-9.0,-5.0
1706277630.7992132,-5.0,-3.0,-3.0,-1.0,-4.0,-7.0,-19.0,-8.0
1706277630.8193142,-11.0,1.0,5.0,7.0,0.0,5.0,7.0,-8.0
1706277630.8193142,6.0,-2.0,4.0,4.0,5.0,7.0,12.0,14.0
1706277630.8290002,3.0,-2.0,-3.0,-2.0,6.0,-1.0,5.0,6.0
1706277630.8290002,22.0,4.0,-5.0,-10.0,-10.0,-9.0,-11.0,19.0
1706277630.8489957,-18.0,-4.0,0.0,-5.0,-2.0,-11.0,-13.0,-39.0
1706277630.8489957,-27.0,-5.0,2.0,11.0,3.0,2.0,-4.0,-7.0
1706277630.8489957,15.0,0.0,2.0,5.0,1.0,-1.0,2.0,14.0
1706277630.8489957,-20.0,-9.0,-12.0,-22.0,-13.0,-1.0,-2.0,-22.0
1706277630.8489957,5.0,2.0,-4.0,-11.0,-15.0,-5.0,6.0,2.0
1706277630.8489957,13.0,3.0,0.0,8.0,20.0,5.0,1.0,2.0
1706277630.8590283,-18.0,-6.0,-1.0,-2.0,-2.0,-12.0,-4.0,0.0
1706277630.8590283,0.0,1.0,4.0,10.0,1.0,11.0,6.0,1.0
1706277630.8792868,5.0,-2.0,2.0,6.0,6.0,2.0,-1.0,6.0
1706277630.8792868,-5.0,0.0,-2.0,-9.0,-11.0,-9.0,-7.0,-8.0
1706277630.8890042,-4.0,-6.0,-10.0,-15.0,-12.0,-5.0,-4.0,-1.0
1706277630.8890042,-2.0,-3.0,0.0,-2.0,-8.0,-9.0,-3.0,-5.0
1706277630.9089942,3.0,-1.0,1.0,2.0,9.0,3.0,-3.0,6.0
1706277630.9089942,3.0,2.0,0.0,-1.0,-5.0,-2.0,1.0,2.0
1706277630.9089942,-1.0,1.0,3.0,1.0,-12.0,-6.0,-3.0,-3.0
1706277630.9089942,2.0,1.0,1.0,3.0,18.0,7.0,6.0,0.0
1706277630.9192688,2.0,0.0,0.0,1.0,3.0,0.0,2.0,9.0
1706277630.9192688,1.0,-1.0,-2.0,-3.0,-6.0,-6.0,-10.0,-6.0
1706277630.9192688,-3.0,-2.0,-2.0,-1.0,-1.0,0.0,4.0,-6.0
1706277630.9192688,-2.0,1.0,-1.0,-3.0,-5.0,-1.0,-4.0,-2.0
1706277630.9393165,-1.0,-3.0,1.0,4.0,-3.0,1.0,2.0,6.0
1706277630.9393165,7.0,0.0,-1.0,-4.0,-1.0,1.0,-2.0,-1.0
1706277630.9490068,-8.0,0.0,0.0,-3.0,-3.0,2.0,0.0,-5.0
1706277630.9490068,1.0,0.0,1.0,4.0,3.0,1.0,2.0,2.0
1706277630.9689956,2.0,0.0,-1.0,0.0,4.0,-1.0,-6.0,1.0
1706277630.9689956,-5.0,-2.0,-3.0,-6.0,-8.0,-7.0,0.0,-3.0
1706277630.9689956,0.0,-1.0,3.0,4.0,5.0,3.0,-1.0,-4.0
1706277630.9689956,-1.0,0.0,-1.0,0.0,-6.0,-6.0,-3.0,0.0
1706277630.9792123,3.0,0.0,0.0,-2.0,2.0,2.0,0.0,2.0
1706277630.9792123,-3.0,-2.0,-2.0,-2.0,4.0,1.0,0.0,-3.0
1706277630.9890046,-1.0,-1.0,-1.0,-2.0,-2.0,1.0,-2.0,-2.0
1706277630.9890046,-3.0,-2.0,-2.0,-2.0,-3.0,-7.0,1.0,0.0
1706277631.0089948,1.0,-2.0,-2.0,-3.0,-3.0,0.0,0.0,1.0
1706277631.0089948,0.0,0.0,-2.0,-1.0,-3.0,2.0,0.0,0.0
1706277631.0089948,2.0,1.0,0.0,3.0,2.0,-1.0,-2.0,-1.0
1706277631.0089948,-1.0,0.0,1.0,1.0,-3.0,0.0,2.0,0.0
1706277631.0189977,0.0,0.0,-1.0,1.0,6.0,1.0,-1.0,2.0
1706277631.0189977,-1.0,-1.0,-1.0,0.0,1.0,-1.0,-3.0,-4.0
1706277631.0189977,0.0,-2.0,-2.0,-5.0,-4.0,0.0,0.0,-4.0
1706277631.0189977,-3.0,-2.0,-2.0,-4.0,-9.0,-4.0,-4.0,-2.0
1706277631.039358,-1.0,-1.0,1.0,0.0,0.0,-2.0,3.0,1.0
1706277631.039358,4.0,1.0,1.0,0.0,0.0,1.0,-2.0,0.0
1706277631.039358,-9.0,-2.0,0.0,-1.0,-1.0,-1.0,-3.0,-4.0
1706277631.039358,-1.0,-1.0,0.0,-1.0,0.0,1.0,0.0,-1.0
1706277631.0593948,1.0,0.0,-1.0,0.0,0.0,-1.0,-1.0,1.0
1706277631.0593948,-2.0,-1.0,-1.0,-2.0,1.0,0.0,-1.0,-3.0
1706277631.068996,2.0,0.0,0.0,-1.0,-1.0,-2.0,1.0,1.0
1706277631.068996,-1.0,-1.0,0.0,0.0,0.0,-2.0,-1.0,-1.0
1706277631.083288,-2.0,-1.0,1.0,-3.0,-2.0,0.0,0.0,-1.0
1706277631.083288,-2.0,-1.0,-3.0,-4.0,-7.0,-4.0,-2.0,-2.0
1706277631.0842612,2.0,-2.0,1.0,-1.0,0.0,-4.0,-1.0,0.0
1706277631.0842612,0.0,0.0,-2.0,0.0,9.0,6.0,2.0,1.0
1706277631.105858,1.0,0.0,2.0,3.0,1.0,1.0,-1.0,0.0
1706277631.105858,0.0,-1.0,0.0,3.0,1.0,-1.0,2.0,2.0
1706277631.1074288,-1.0,-2.0,-2.0,3.0,1.0,2.0,-3.0,-4.0
1706277631.1074288,-1.0,-1.0,-3.0,-1.0,-5.0,-5.0,0.0,-2.0
1706277631.1216753,0.0,1.0,-2.0,-4.0,-4.0,-3.0,-3.0,0.0
1706277631.1216753,-3.0,-3.0,-2.0,-4.0,-1.0,-2.0,-3.0,-1.0
1706277631.1216753,0.0,0.0,-3.0,-6.0,-8.0,-2.0,-3.0,-3.0
1706277631.1216753,-2.0,0.0,-1.0,-3.0,-6.0,-3.0,1.0,-2.0
1706277631.1421008,0.0,-1.0,-1.0,0.0,3.0,0.0,-2.0,-1.0
1706277631.1421008,-1.0,1.0,3.0,-1.0,-4.0,-2.0,-2.0,0.0
1706277631.1421008,-1.0,-1.0,-3.0,4.0,5.0,2.0,0.0,0.0
1706277631.1421008,-1.0,-2.0,-2.0,0.0,0.0,-1.0,0.0,-1.0
1706277631.1621058,-1.0,-1.0,-3.0,-3.0,-4.0,-3.0,-1.0,-2.0
1706277631.1621058,-3.0,-1.0,-2.0,1.0,-1.0,-1.0,-3.0,0.0
1706277631.1621058,0.0,-3.0,-1.0,6.0,6.0,1.0,1.0,0.0
1706277631.1621058,-3.0,0.0,2.0,2.0,0.0,-2.0,-4.0,-3.0
1706277631.1816747,0.0,-1.0,1.0,-2.0,-2.0,0.0,1.0,-1.0
1706277631.1816747,-3.0,-12.0,-6.0,-4.0,-9.0,-4.0,-3.0,-3.0
1706277631.1816747,2.0,6.0,4.0,-4.0,5.0,3.0,1.0,0.0
1706277631.1816747,0.0,-1.0,3.0,8.0,7.0,2.0,-1.0,1.0
1706277631.2019925,-1.0,-3.0,0.0,0.0,-2.0,-1.0,-1.0,-3.0
1706277631.2019925,-1.0,0.0,1.0,-2.0,1.0,1.0,0.0,-1.0
1706277631.2019925,-1.0,-5.0,-5.0,-4.0,0.0,0.0,0.0,-1.0
1706277631.2019925,-1.0,-1.0,-3.0,-7.0,-3.0,-2.0,-1.0,-2.0
1706277631.2220032,-2.0,-1.0,-2.0,-5.0,-7.0,-6.0,-2.0,1.0
1706277631.2220032,-1.0,1.0,1.0,2.0,-2.0,-1.0,1.0,-1.0
1706277631.2220032,-2.0,1.0,2.0,2.0,1.0,0.0,-2.0,0.0
1706277631.2220032,-2.0,0.0,-2.0,-5.0,-3.0,-2.0,0.0,0.0
1706277631.2516763,-1.0,-1.0,-1.0,0.0,0.0,-1.0,-2.0,-2.0
1706277631.2516763,0.0,1.0,0.0,-4.0,-1.0,-3.0,0.0,0.0
1706277631.2516763,0.0,-3.0,-3.0,-1.0,-5.0,-4.0,0.0,-1.0
1706277631.2516763,1.0,5.0,3.0,4.0,4.0,1.0,1.0,-1.0
1706277631.2617106,1.0,-6.0,-2.0,0.0,-3.0,-4.0,-1.0,-1.0
1706277631.2617106,-7.0,0.0,-2.0,0.0,0.0,2.0,-1.0,1.0
1706277631.2617106,-4.0,1.0,1.0,-4.0,-3.0,-2.0,0.0,-2.0
1706277631.2617106,-3.0,-8.0,-2.0,-3.0,-6.0,-1.0,-2.0,-1.0
1706277631.2816758,-1.0,0.0,-4.0,-2.0,0.0,-2.0,0.0,0.0
1706277631.2816758,2.0,1.0,1.0,5.0,1.0,-3.0,-1.0,-1.0
1706277631.2816758,-1.0,-3.0,-2.0,-1.0,1.0,0.0,-1.0,1.0
1706277631.2816758,-1.0,-1.0,-3.0,-5.0,-5.0,-2.0,0.0,-2.0
1706277631.2917564,-2.0,-1.0,1.0,3.0,2.0,0.0,-1.0,-2.0
1706277631.2917564,1.0,-4.0,-5.0,-7.0,-1.0,-2.0,0.0,-2.0
1706277631.3019013,1.0,3.0,0.0,1.0,-4.0,-2.0,-2.0,-2.0
1706277631.3019013,1.0,0.0,-1.0,-3.0,-3.0,-1.0,-2.0,0.0
1706277631.3219938,-3.0,-1.0,-1.0,-1.0,3.0,1.0,-1.0,-1.0
1706277631.3219938,2.0,2.0,-1.0,-8.0,3.0,0.0,-1.0,-1.0
1706277631.3219938,-1.0,-1.0,1.0,15.0,11.0,0.0,1.0,-1.0
1706277631.3219938,1.0,-1.0,2.0,6.0,2.0,-1.0,1.0,0.0
1706277631.3418381,0.0,0.0,0.0,2.0,4.0,2.0,0.0,-1.0
1706277631.3418381,0.0,2.0,1.0,-4.0,-7.0,-2.0,1.0,-1.0
1706277631.3418381,-2.0,-2.0,0.0,-5.0,3.0,3.0,-1.0,0.0
1706277631.3418381,-2.0,-4.0,-1.0,-2.0,1.0,0.0,-2.0,-1.0
1706277631.361676,-1.0,1.0,1.0,7.0,-1.0,-1.0,0.0,-1.0
1706277631.361676,-2.0,-3.0,-3.0,-1.0,-7.0,-6.0,-2.0,-2.0
1706277631.361676,0.0,-3.0,-3.0,-9.0,-3.0,-2.0,-2.0,-2.0
1706277631.361676,0.0,1.0,0.0,2.0,-4.0,-2.0,0.0,-1.0
1706277631.3816838,1.0,1.0,-4.0,-12.0,-6.0,-2.0,-2.0,-1.0
1706277631.3816838,0.0,1.0,2.0,13.0,16.0,5.0,1.0,0.0
1706277631.3816838,-2.0,-2.0,3.0,5.0,-14.0,-5.0,-1.0,-2.0
1706277631.3816838,0.0,-2.0,-1.0,2.0,13.0,5.0,0.0,0.0
1706277631.4019036,-2.0,0.0,-3.0,-8.0,-7.0,-6.0,-3.0,-2.0
1706277631.4019036,-1.0,-3.0,-3.0,-4.0,-3.0,0.0,-2.0,-2.0
1706277631.4019036,-1.0,2.0,-1.0,-8.0,-13.0,-5.0,-2.0,0.0
1706277631.4019036,0.0,-1.0,-2.0,-4.0,1.0,-2.0,0.0,-1.0
1706277631.411942,0.0,-1.0,2.0,0.0,1.0,5.0,4.0,2.0
1706277631.411942,-1.0,-1.0,0.0,10.0,8.0,2.0,-1.0,-1.0
1706277631.421903,-1.0,-2.0,-2.0,-3.0,-1.0,-3.0,-2.0,-1.0
1706277631.421903,-2.0,-3.0,-3.0,-6.0,-9.0,-3.0,-4.0,-1.0
1706277631.4616778,-1.0,-2.0,-4.0,-5.0,-5.0,-5.0,-3.0,-3.0
1706277631.4616778,-1.0,3.0,2.0,-2.0,-3.0,-3.0,0.0,1.0
1706277631.4616778,1.0,2.0,0.0,-11.0,-4.0,-1.0,0.0,0.0
1706277631.4616778,0.0,0.0,1.0,9.0,1.0,-2.0,0.0,2.0
1706277631.4616778,-1.0,-7.0,-7.0,-9.0,-1.0,0.0,-1.0,-1.0
1706277631.4616778,0.0,2.0,9.0,29.0,30.0,9.0,2.0,-1.0
1706277631.4616778,0.0,-5.0,-2.0,1.0,7.0,-1.0,-2.0,-3.0
1706277631.4616778,0.0,8.0,2.0,-10.0,-14.0,-7.0,0.0,-2.0
1706277631.4717102,-3.0,3.0,1.0,-2.0,-4.0,-1.0,-2.0,-3.0
1706277631.4717102,-1.0,-2.0,0.0,-5.0,-2.0,0.0,-2.0,-1.0
1706277631.492041,-2.0,-1.0,-4.0,-9.0,-6.0,-3.0,-3.0,0.0
1706277631.492041,-1.0,-8.0,-7.0,-11.0,-9.0,-6.0,-5.0,-1.0
1706277631.511676,0.0,4.0,10.0,19.0,15.0,5.0,3.0,1.0
1706277631.511676,-3.0,-3.0,-3.0,2.0,-7.0,1.0,0.0,-2.0
1706277631.511676,1.0,2.0,1.0,3.0,9.0,5.0,0.0,1.0
1706277631.511676,-1.0,-3.0,-5.0,-16.0,-7.0,-4.0,-3.0,-2.0
1706277631.5220883,0.0,1.0,2.0,-1.0,1.0,-3.0,-1.0,-1.0
1706277631.5220883,2.0,-4.0,0.0,17.0,20.0,6.0,3.0,1.0
1706277631.5220883,0.0,3.0,-8.0,-23.0,-15.0,-6.0,-2.0,-2.0
1706277631.5220883,-3.0,-5.0,-8.0,3.0,-19.0,-4.0,-2.0,-3.0
1706277631.5320296,-4.0,-2.0,1.0,1.0,11.0,1.0,-2.0,-2.0
1706277631.5320296,-2.0,-2.0,-1.0,-16.0,-18.0,-10.0,-6.0,-3.0
1706277631.541994,2.0,0.0,1.0,9.0,4.0,-2.0,-1.0,0.0
1706277631.541994,1.0,7.0,1.0,-15.0,-8.0,0.0,0.0,-2.0
1706277631.5617213,-3.0,-5.0,-8.0,-1.0,-5.0,-3.0,-3.0,-1.0
1706277631.5617213,-1.0,-2.0,0.0,-8.0,-11.0,-7.0,-2.0,-2.0
1706277631.5716753,-3.0,-7.0,-9.0,1.0,-5.0,-3.0,-2.0,-1.0
1706277631.5716753,-3.0,-5.0,-1.0,-3.0,4.0,3.0,-1.0,-2.0
1706277631.5820475,1.0,6.0,5.0,7.0,3.0,1.0,0.0,-1.0
1706277631.5820475,-2.0,-2.0,-4.0,-4.0,-7.0,-5.0,-2.0,-2.0
1706277631.5820475,-1.0,-2.0,-2.0,-11.0,-1.0,-2.0,-1.0,-1.0
1706277631.5820475,1.0,6.0,2.0,22.0,13.0,-1.0,-1.0,0.0
1706277631.5920415,-3.0,-10.0,-1.0,-17.0,-9.0,-2.0,1.0,-1.0
1706277631.5920415,-2.0,8.0,1.0,5.0,-4.0,0.0,-2.0,-3.0
1706277631.6170752,-2.0,-2.0,0.0,7.0,8.0,-3.0,1.0,-3.0
1706277631.6170752,-1.0,-4.0,-4.0,-12.0,0.0,5.0,2.0,2.0
1706277631.6236727,-2.0,-1.0,-6.0,-8.0,-9.0,-5.0,-5.0,-4.0
1706277631.6236727,0.0,-2.0,-9.0,6.0,0.0,-2.0,-1.0,-1.0
1706277631.6250424,-1.0,-2.0,8.0,-1.0,-7.0,-7.0,-1.0,-1.0
1706277631.6250424,-1.0,1.0,-5.0,-2.0,3.0,3.0,1.0,-1.0
1706277631.6444027,-3.0,-15.0,-8.0,-1.0,-3.0,0.0,0.0,-2.0
1706277631.6444027,-2.0,1.0,-5.0,-19.0,-13.0,-7.0,-3.0,-2.0
1706277631.6444027,0.0,0.0,2.0,9.0,10.0,6.0,1.0,-1.0
1706277631.6444027,1.0,-2.0,3.0,-2.0,6.0,-1.0,1.0,1.0
1706277631.654435,3.0,8.0,12.0,24.0,9.0,3.0,0.0,2.0
1706277631.654435,-1.0,-4.0,-7.0,-8.0,-2.0,0.0,-2.0,-1.0
1706277631.6744041,-2.0,-3.0,2.0,-2.0,-10.0,-4.0,-4.0,-1.0
1706277631.6744041,3.0,5.0,2.0,0.0,-2.0,-3.0,-2.0,0.0
1706277631.6744041,-1.0,-4.0,-3.0,-16.0,-6.0,0.0,-2.0,0.0
1706277631.6744041,0.0,-1.0,1.0,8.0,11.0,2.0,1.0,0.0
1706277631.6844728,0.0,1.0,-6.0,4.0,0.0,1.0,1.0,-2.0
1706277631.6844728,-1.0,0.0,1.0,-1.0,0.0,0.0,-2.0,-1.0
1706277631.7045941,-6.0,-17.0,-9.0,-7.0,-6.0,-7.0,-3.0,-3.0
1706277631.7045941,-4.0,3.0,7.0,-15.0,-20.0,-8.0,-4.0,-1.0
1706277631.7045941,-3.0,-3.0,-10.0,-6.0,0.0,2.0,1.0,-1.0
1706277631.7045941,-5.0,4.0,2.0,33.0,4.0,-1.0,-2.0,-3.0
1706277631.7144122,1.0,7.0,-1.0,-6.0,-2.0,-1.0,0.0,0.0
1706277631.7144122,-4.0,-12.0,-7.0,-21.0,2.0,1.0,0.0,-4.0
1706277631.7344077,-2.0,2.0,3.0,24.0,3.0,0.0,-3.0,-1.0
1706277631.7344077,-5.0,-6.0,-3.0,-6.0,-7.0,-5.0,-1.0,-4.0
1706277631.7444363,0.0,2.0,-9.0,-29.0,-19.0,-4.0,-4.0,-1.0
1706277631.7444363,0.0,3.0,9.0,40.0,22.0,10.0,4.0,2.0
1706277631.7444363,3.0,5.0,-6.0,-16.0,1.0,0.0,0.0,1.0
1706277631.7444363,-1.0,-6.0,1.0,4.0,0.0,-1.0,-3.0,0.0
1706277631.7646625,1.0,9.0,-1.0,9.0,8.0,-3.0,-1.0,2.0
1706277631.7646625,-3.0,-6.0,-3.0,-14.0,-11.0,-5.0,-3.0,-2.0
1706277631.7646625,-3.0,2.0,4.0,-3.0,-4.0,-1.0,-3.0,-4.0
1706277631.7646625,-5.0,-6.0,-21.0,-19.0,-5.0,-5.0,-4.0,-3.0
1706277631.7747388,-3.0,-3.0,5.0,18.0,3.0,3.0,1.0,-2.0
1706277631.7747388,2.0,2.0,-3.0,-3.0,-1.0,0.0,2.0,0.0
1706277631.7944312,-2.0,-5.0,4.0,5.0,0.0,-2.0,-1.0,-2.0
1706277631.7944312,1.0,2.0,0.0,-7.0,-2.0,-2.0,0.0,1.0
1706277631.7944312,1.0,-1.0,2.0,5.0,-1.0,1.0,1.0,0.0
1706277631.7944312,-2.0,-3.0,-5.0,-9.0,0.0,2.0,0.0,-1.0
1706277631.8047037,2.0,5.0,6.0,-2.0,-7.0,-1.0,1.0,1.0
1706277631.8047037,0.0,-6.0,1.0,0.0,8.0,2.0,2.0,1.0
1706277631.8247166,-4.0,-5.0,0.0,1.0,-3.0,-4.0,-3.0,-2.0
1706277631.8247166,1.0,2.0,-3.0,-5.0,-6.0,-2.0,-2.0,1.0
1706277631.8247166,-4.0,-7.0,3.0,-1.0,-6.0,-3.0,0.0,-2.0
1706277631.8247166,-1.0,-1.0,-11.0,-2.0,-2.0,1.0,0.0,0.0
1706277631.8344433,1.0,5.0,18.0,18.0,14.0,2.0,0.0,0.0
1706277631.8344433,-1.0,-6.0,-13.0,-12.0,6.0,-3.0,0.0,-1.0
1706277631.8545988,2.0,6.0,7.0,7.0,3.0,1.0,0.0,0.0
1706277631.8545988,1.0,0.0,7.0,2.0,-3.0,-1.0,-1.0,0.0
1706277631.8545988,-3.0,-5.0,-10.0,-10.0,-13.0,-8.0,-4.0,-2.0
1706277631.8545988,-1.0,-2.0,4.0,1.0,0.0,6.0,-1.0,-1.0
1706277631.8647013,1.0,0.0,-3.0,0.0,15.0,3.0,-1.0,0.0
1706277631.8647013,-6.0,-11.0,-16.0,-5.0,0.0,-3.0,-3.0,-5.0
1706277631.8848312,1.0,-3.0,-14.0,-5.0,-6.0,-1.0,-1.0,-1.0
1706277631.8848312,1.0,3.0,8.0,-3.0,-7.0,-6.0,-2.0,-1.0
1706277631.8848312,-2.0,-1.0,0.0,-4.0,-3.0,-2.0,0.0,-1.0
1706277631.8848312,1.0,6.0,12.0,8.0,5.0,0.0,0.0,-1.0
1706277631.9048765,-1.0,0.0,4.0,-4.0,0.0,-3.0,-1.0,-1.0
1706277631.9048765,1.0,5.0,7.0,5.0,-2.0,3.0,1.0,0.0
1706277631.9048765,-2.0,-9.0,-10.0,-1.0,-8.0,-4.0,-4.0,1.0
1706277631.9048765,-3.0,-4.0,11.0,-1.0,-8.0,-4.0,-3.0,-8.0
1706277631.9151073,-1.0,-2.0,-27.0,-5.0,6.0,5.0,1.0,-1.0
1706277631.9151073,-3.0,1.0,12.0,-8.0,-1.0,-1.0,0.0,-1.0
1706277631.9248488,2.0,6.0,5.0,22.0,15.0,4.0,1.0,2.0
1706277631.9248488,-7.0,-12.0,-15.0,-22.0,-17.0,-9.0,-5.0,-1.0
1706277631.94516,-2.0,-1.0,3.0,19.0,-1.0,-1.0,-1.0,-1.0
1706277631.94516,-7.0,-7.0,-17.0,-22.0,-10.0,-8.0,-6.0,-4.0
1706277631.94516,0.0,-2.0,8.0,10.0,8.0,2.0,1.0,1.0
1706277631.94516,3.0,6.0,9.0,6.0,-2.0,-1.0,3.0,3.0
1706277631.9748428,1.0,2.0,-2.0,-1.0,2.0,2.0,0.0,-2.0
1706277631.9748428,3.0,8.0,0.0,-3.0,-1.0,-1.0,0.0,0.0
1706277631.9748428,1.0,2.0,-5.0,-11.0,-12.0,-5.0,-3.0,-2.0
1706277631.9748428,-3.0,-8.0,-10.0,-8.0,0.0,-4.0,-1.0,-1.0
1706277631.9748428,3.0,5.0,9.0,0.0,-5.0,-6.0,-1.0,3.0
1706277631.9748428,-3.0,-6.0,-11.0,9.0,6.0,-1.0,-2.0,-8.0
1706277631.9850783,-1.0,-4.0,-9.0,-13.0,-7.0,6.0,2.0,0.0
1706277631.9850783,5.0,14.0,19.0,24.0,14.0,8.0,2.0,1.0
1706277632.0051787,-7.0,-14.0,-12.0,-9.0,8.0,4.0,0.0,-2.0
1706277632.0051787,2.0,-1.0,1.0,16.0,4.0,-1.0,1.0,3.0
1706277632.0051787,-4.0,-2.0,1.0,-29.0,-15.0,-9.0,-6.0,-5.0
1706277632.0051787,2.0,5.0,9.0,11.0,1.0,0.0,1.0,2.0
1706277632.024847,8.0,18.0,-3.0,-18.0,-14.0,-10.0,-4.0,0.0
1706277632.024847,-12.0,-26.0,-3.0,-3.0,-7.0,2.0,-3.0,-3.0
1706277632.024847,4.0,3.0,-3.0,-1.0,-1.0,-2.0,-1.0,1.0
1706277632.024847,-13.0,-21.0,7.0,20.0,17.0,7.0,1.0,-3.0
1706277632.0348766,0.0,2.0,11.0,0.0,-1.0,0.0,1.0,-1.0
1706277632.0348766,2.0,1.0,-10.0,0.0,-4.0,0.0,0.0,1.0
1706277632.0451915,7.0,14.0,7.0,-5.0,-5.0,-3.0,0.0,2.0
1706277632.0451915,5.0,8.0,-11.0,-17.0,-8.0,-6.0,-4.0,-2.0
1706277632.0652688,-9.0,-17.0,8.0,4.0,1.0,0.0,-2.0,-1.0
1706277632.0652688,0.0,2.0,-6.0,-8.0,-8.0,-7.0,-5.0,-1.0
1706277632.0748413,-3.0,2.0,10.0,19.0,8.0,5.0,-1.0,-14.0
1706277632.0748413,2.0,5.0,-12.0,-16.0,-11.0,-3.0,-1.0,-2.0
1706277632.0850933,4.0,0.0,-8.0,-3.0,8.0,3.0,2.0,4.0
1706277632.0850933,0.0,4.0,46.0,12.0,-1.0,-2.0,2.0,-2.0
1706277632.0850933,-1.0,-6.0,-36.0,-11.0,-9.0,-7.0,-4.0,3.0
1706277632.0850933,-5.0,-5.0,12.0,-9.0,-1.0,1.0,-2.0,-5.0
1706277632.0951204,1.0,5.0,15.0,3.0,-4.0,-5.0,-3.0,-4.0
1706277632.0951204,-4.0,-5.0,-5.0,8.0,5.0,7.0,0.0,-1.0
1706277632.1050813,-2.0,-4.0,-24.0,-19.0,1.0,-2.0,2.0,3.0
1706277632.1050813,9.0,24.0,23.0,-9.0,-7.0,-4.0,-2.0,1.0
1706277632.1348429,-6.0,-20.0,-36.0,12.0,7.0,2.0,0.0,-1.0
1706277632.1348429,13.0,34.0,50.0,0.0,-4.0,-2.0,-1.0,3.0
1706277632.1348429,-16.0,-36.0,-28.0,-8.0,-6.0,-7.0,-5.0,-6.0
1706277632.1348429,-1.0,-5.0,-20.0,-19.0,-4.0,0.0,1.0,0.0
1706277632.1480684,2.0,12.0,34.0,27.0,0.0,-2.0,-2.0,0.0
1706277632.1480684,1.0,4.0,3.0,20.0,12.0,5.0,2.0,0.0
1706277632.1500227,-4.0,-12.0,-39.0,-55.0,-16.0,-4.0,-4.0,-4.0
1706277632.1500227,-6.0,-10.0,14.0,53.0,6.0,0.0,-1.0,0.0
1706277632.162278,0.0,6.0,20.0,-14.0,-8.0,-5.0,-2.0,-2.0
1706277632.162278,-1.0,0.0,12.0,48.0,7.0,6.0,5.0,2.0
1706277632.1704419,14.0,27.0,98.0,35.0,16.0,6.0,4.0,8.0
1706277632.1704419,-10.0,-15.0,-46.0,-42.0,-18.0,-9.0,-7.0,-8.0
1706277632.1789427,-12.0,-16.0,-4.0,-19.0,-1.0,-1.0,-3.0,-7.0
1706277632.1789427,5.0,8.0,-6.0,-9.0,-3.0,0.0,2.0,4.0
1706277632.1789427,-6.0,0.0,13.0,8.0,3.0,4.0,2.0,-3.0
1706277632.1789427,9.0,8.0,-3.0,14.0,6.0,4.0,2.0,5.0
1706277632.2089458,10.0,18.0,2.0,-7.0,-3.0,3.0,2.0,2.0
1706277632.2089458,-6.0,-9.0,-30.0,-37.0,-10.0,-8.0,-5.0,-3.0
1706277632.2089458,-3.0,-16.0,-27.0,-17.0,-11.0,-2.0,1.0,0.0
1706277632.2089458,12.0,34.0,41.0,66.0,22.0,8.0,6.0,5.0
1706277632.2193632,-8.0,-13.0,-55.0,-74.0,-38.0,-12.0,-10.0,-7.0
1706277632.2193632,-12.0,-33.0,-42.0,45.0,11.0,1.0,1.0,-4.0
1706277632.2293367,9.0,26.0,24.0,-24.0,-18.0,0.0,2.0,5.0
1706277632.2293367,-9.0,-5.0,-2.0,-9.0,-11.0,-9.0,-7.0,-7.0
1706277632.2489443,10.0,17.0,59.0,7.0,34.0,9.0,4.0,2.0
1706277632.2489443,0.0,-1.0,-14.0,-26.0,-4.0,-4.0,-1.0,1.0
1706277632.2489443,-8.0,-13.0,26.0,19.0,6.0,-5.0,-7.0,-9.0
1706277632.2489443,-1.0,4.0,6.0,-36.0,-16.0,-2.0,0.0,2.0
1706277632.2689471,-5.0,-7.0,-18.0,-19.0,-12.0,-9.0,-4.0,-4.0
1706277632.2689471,2.0,5.0,-11.0,-29.0,-7.0,-1.0,-5.0,-2.0
1706277632.2689471,1.0,5.0,-12.0,2.0,1.0,-1.0,0.0,-1.0
1706277632.2689471,2.0,-4.0,5.0,7.0,1.0,-1.0,3.0,1.0
1706277632.2790763,-11.0,-15.0,-8.0,21.0,3.0,3.0,2.0,-2.0
1706277632.2790763,4.0,5.0,-20.0,-13.0,-3.0,-4.0,-1.0,0.0
1706277632.2889447,-13.0,-17.0,-43.0,12.0,-5.0,-5.0,-5.0,-5.0
1706277632.2889447,-3.0,-12.0,29.0,5.0,8.0,2.0,-1.0,-1.0
1706277632.2992222,6.0,1.0,-17.0,11.0,-2.0,-1.0,-2.0,0.0
1706277632.2992222,-2.0,-4.0,-1.0,-38.0,-13.0,-2.0,-2.0,-3.0
1706277632.2992222,-2.0,-7.0,-5.0,28.0,6.0,2.0,-5.0,-1.0
1706277632.2992222,0.0,-7.0,-18.0,-8.0,5.0,2.0,4.0,0.0
1706277632.3289466,-7.0,-9.0,-13.0,-6.0,-2.0,1.0,2.0,3.0
1706277632.3289466,-7.0,-6.0,6.0,10.0,6.0,1.0,-2.0,-7.0
1706277632.3289466,9.0,0.0,-7.0,-26.0,-7.0,-3.0,2.0,6.0
1706277632.3289466,-7.0,1.0,-4.0,-33.0,-15.0,2.0,-1.0,-4.0
1706277632.3391676,-3.0,-17.0,-11.0,36.0,18.0,5.0,4.0,-4.0
1706277632.3391676,14.0,43.0,63.0,-54.0,-20.0,-9.0,-5.0,1.0
1706277632.348945,-4.0,-16.0,-48.0,9.0,-3.0,-4.0,-3.0,-3.0
1706277632.348945,0.0,-6.0,-9.0,-7.0,-1.0,0.0,0.0,-1.0
1706277632.359187,0.0,12.0,18.0,-12.0,-20.0,-8.0,-4.0,-4.0
1706277632.359187,0.0,-3.0,-4.0,9.0,1.0,6.0,4.0,3.0
1706277632.359187,-9.0,-21.0,-28.0,-5.0,7.0,-2.0,-2.0,-4.0
1706277632.359187,4.0,9.0,10.0,5.0,1.0,-2.0,-6.0,-2.0
1706277632.38895,-4.0,2.0,-17.0,-23.0,-8.0,-1.0,-3.0,-1.0
1706277632.38895,-6.0,-11.0,-19.0,0.0,0.0,-4.0,-2.0,-4.0
1706277632.38895,13.0,20.0,47.0,30.0,4.0,-2.0,-3.0,1.0
1706277632.38895,-3.0,-15.0,-24.0,-27.0,-10.0,-3.0,-1.0,0.0
1706277632.3990521,-26.0,-12.0,6.0,11.0,5.0,2.0,10.0,-3.0
1706277632.3990521,3.0,-2.0,0.0,32.0,11.0,-4.0,-3.0,0.0
1706277632.4289439,-6.0,3.0,24.0,-5.0,-3.0,-1.0,-3.0,-7.0
1706277632.4289439,-1.0,-7.0,-2.0,-2.0,-2.0,-3.0,-5.0,-2.0
1706277632.4289439,16.0,22.0,19.0,11.0,10.0,4.0,3.0,4.0
1706277632.4289439,-10.0,-21.0,-7.0,14.0,3.0,4.0,1.0,-3.0
1706277632.4289439,-7.0,-3.0,-2.0,4.0,-10.0,-3.0,1.0,-2.0
1706277632.4289439,9.0,27.0,12.0,2.0,-5.0,-2.0,-2.0,1.0
1706277632.4489443,-2.0,-7.0,-10.0,-9.0,-6.0,-2.0,-3.0,0.0
1706277632.4489443,-10.0,-20.0,-54.0,-45.0,-7.0,-8.0,-6.0,-8.0
1706277632.4489443,5.0,22.0,37.0,25.0,11.0,5.0,1.0,3.0
1706277632.4489443,-3.0,-12.0,-3.0,-49.0,-27.0,-10.0,-3.0,1.0
1706277632.4591203,-2.0,1.0,9.0,57.0,-6.0,3.0,-2.0,-3.0
1706277632.4591203,8.0,10.0,13.0,27.0,13.0,7.0,6.0,4.0
1706277632.4692547,0.0,-2.0,3.0,-2.0,4.0,4.0,5.0,1.0
1706277632.4692547,-3.0,0.0,-5.0,6.0,10.0,0.0,-1.0,-1.0
1706277632.4789453,3.0,-4.0,-49.0,-26.0,-10.0,-7.0,-5.0,-1.0
1706277632.4789453,-2.0,-1.0,12.0,-35.0,-14.0,-2.0,2.0,2.0
1706277632.4789453,6.0,11.0,85.0,98.0,44.0,15.0,8.0,8.0
1706277632.4789453,-9.0,-18.0,-63.0,34.0,8.0,-1.0,-2.0,-5.0
1706277632.5089462,9.0,5.0,-15.0,16.0,8.0,0.0,-1.0,2.0
1706277632.5089462,-12.0,-26.0,-39.0,-74.0,-32.0,-16.0,-10.0,-8.0
1706277632.5089462,-4.0,-2.0,-34.0,-70.0,-26.0,-8.0,-5.0,-4.0
1706277632.5089462,-2.0,-3.0,-36.0,-5.0,0.0,2.0,2.0,0.0
1706277632.518945,6.0,13.0,41.0,31.0,14.0,6.0,2.0,4.0
1706277632.518945,-3.0,-7.0,4.0,8.0,-11.0,-11.0,-6.0,-3.0
1706277632.5289464,-5.0,-9.0,-27.0,-52.0,-23.0,-10.0,-7.0,-2.0
1706277632.5289464,-4.0,1.0,34.0,25.0,22.0,14.0,6.0,-3.0
1706277632.5391972,-3.0,-5.0,-13.0,-21.0,3.0,1.0,-3.0,-2.0
1706277632.5391972,13.0,13.0,23.0,17.0,-12.0,-2.0,-6.0,0.0
1706277632.5391972,-20.0,-10.0,-23.0,-13.0,6.0,-5.0,0.0,-6.0
1706277632.5391972,5.0,5.0,13.0,19.0,17.0,3.0,2.0,1.0
1706277632.5889463,0.0,-10.0,-11.0,-29.0,-20.0,-17.0,-15.0,-4.0
1706277632.5889463,0.0,12.0,1.0,-9.0,7.0,15.0,21.0,8.0
1706277632.5889463,8.0,28.0,16.0,17.0,-5.0,-5.0,-10.0,-7.0
1706277632.5889463,-4.0,-5.0,-3.0,13.0,14.0,-2.0,0.0,-1.0
1706277632.5889463,12.0,21.0,14.0,23.0,14.0,0.0,1.0,3.0
1706277632.5889463,1.0,-6.0,-10.0,29.0,20.0,-1.0,-6.0,0.0
1706277632.5889463,-4.0,-15.0,23.0,63.0,32.0,18.0,14.0,7.0
1706277632.5889463,-1.0,1.0,17.0,5.0,-5.0,-4.0,0.0,-2.0
1706277632.5989792,2.0,8.0,7.0,-25.0,-9.0,-12.0,-9.0,-4.0
1706277632.5989792,-1.0,2.0,-3.0,21.0,11.0,-1.0,-4.0,-2.0
1706277632.6091645,3.0,-4.0,-25.0,-38.0,-7.0,0.0,2.0,-1.0
1706277632.6091645,-6.0,-1.0,43.0,65.0,25.0,10.0,2.0,2.0
1706277632.6289475,-6.0,-21.0,-13.0,15.0,-5.0,3.0,1.0,-2.0
1706277632.6289475,-11.0,-17.0,-42.0,-22.0,-9.0,-7.0,-5.0,-7.0
1706277632.6289475,3.0,0.0,-22.0,-26.0,-12.0,-5.0,-3.0,-1.0
1706277632.6289475,3.0,-7.0,-37.0,-12.0,8.0,1.0,0.0,1.0
1706277632.639065,-18.0,-25.0,-22.0,-40.0,-21.0,-6.0,-2.0,-6.0
1706277632.639065,19.0,60.0,99.0,-2.0,5.0,6.0,8.0,6.0
1706277632.6493409,-22.0,-54.0,-85.0,-78.0,-22.0,-16.0,-12.0,-10.0
1706277632.6493409,7.0,17.0,53.0,35.0,9.0,3.0,-1.0,0.0
1706277632.6593623,-3.0,5.0,48.0,58.0,32.0,13.0,5.0,-1.0
1706277632.6593623,-3.0,-12.0,-6.0,1.0,-21.0,-5.0,-8.0,-7.0
1706277632.6720297,-15.0,-6.0,15.0,16.0,19.0,6.0,4.0,1.0
1706277632.6720297,-8.0,-10.0,-53.0,-80.0,-46.0,-19.0,-16.0,-9.0
1706277632.689238,11.0,8.0,-2.0,-18.0,3.0,0.0,2.0,7.0
1706277632.689238,2.0,-5.0,-17.0,32.0,16.0,4.0,7.0,5.0
1706277632.6905196,15.0,29.0,2.0,-39.0,-15.0,-3.0,-5.0,-2.0
1706277632.6905196,-14.0,-16.0,24.0,20.0,-9.0,-5.0,-2.0,-6.0
1706277632.7031822,-5.0,0.0,-49.0,-9.0,19.0,7.0,1.0,-2.0
1706277632.7031822,-21.0,-36.0,-14.0,60.0,6.0,-1.0,-4.0,-9.0
1706277632.7031822,13.0,15.0,54.0,17.0,-35.0,-16.0,-7.0,2.0
1706277632.7031822,5.0,2.0,-41.0,-31.0,-10.0,-3.0,-1.0,1.0
1706277632.723451,0.0,7.0,44.0,-5.0,-4.0,2.0,0.0,-5.0
1706277632.723451,8.0,20.0,34.0,47.0,22.0,13.0,8.0,6.0
1706277632.7331858,4.0,2.0,5.0,15.0,-2.0,-3.0,-4.0,-1.0
1706277632.7331858,-16.0,-30.0,-50.0,-53.0,-23.0,-9.0,-1.0,-1.0
1706277632.7531817,7.0,20.0,-19.0,-36.0,-6.0,-7.0,0.0,-1.0
1706277632.7531817,8.0,4.0,32.0,74.0,19.0,8.0,5.0,6.0
1706277632.7531817,1.0,4.0,48.0,62.0,27.0,21.0,11.0,5.0
1706277632.7531817,9.0,13.0,9.0,-39.0,-34.0,-10.0,1.0,3.0
1706277632.7531817,-6.0,-5.0,-35.0,-67.0,-14.0,-4.0,0.0,-1.0
1706277632.7531817,-12.0,-7.0,-48.0,-84.0,-36.0,-28.0,-20.0,-13.0
1706277632.7635226,7.0,19.0,15.0,8.0,17.0,-2.0,-3.0,0.0
1706277632.7635226,-7.0,-6.0,-30.0,-39.0,15.0,-2.0,-2.0,-6.0
1706277632.7834861,3.0,0.0,-4.0,1.0,6.0,-8.0,-5.0,0.0
1706277632.7834861,-16.0,-20.0,-4.0,-21.0,2.0,7.0,-4.0,-12.0
1706277632.7834861,-16.0,-31.0,16.0,21.0,1.0,-1.0,2.0,5.0
1706277632.7834861,2.0,1.0,-44.0,-45.0,3.0,-4.0,-5.0,-5.0
1706277632.8031836,5.0,7.0,-37.0,-36.0,-63.0,-23.0,-12.0,-8.0
1706277632.8031836,7.0,2.0,66.0,65.0,93.0,46.0,25.0,16.0
1706277632.8031836,1.0,1.0,-27.0,1.0,-1.0,-5.0,-4.0,-4.0
1706277632.8031836,-7.0,-15.0,37.0,-19.0,-4.0,-2.0,-4.0,-3.0
1706277632.823429,0.0,-13.0,-4.0,45.0,2.0,2.0,-1.0,2.0
1706277632.823429,5.0,13.0,14.0,-51.0,-45.0,-28.0,-13.0,-4.0
1706277632.8331864,-9.0,0.0,2.0,2.0,-48.0,-7.0,-2.0,-7.0
1706277632.8331864,15.0,15.0,10.0,56.0,-37.0,-19.0,-7.0,4.0
1706277632.8435094,4.0,7.0,-3.0,10.0,63.0,31.0,14.0,6.0
1706277632.8435094,-5.0,-12.0,-36.0,-39.0,-43.0,10.0,14.0,8.0
1706277632.8731823,-6.0,-12.0,-80.0,-52.0,-14.0,-25.0,-11.0,-8.0
1706277632.8731823,-3.0,19.0,21.0,-89.0,-44.0,-5.0,-1.0,-3.0
1706277632.8731823,-7.0,-21.0,8.0,85.0,5.0,16.0,12.0,7.0
1706277632.8731823,-1.0,-3.0,1.0,56.0,40.0,3.0,-4.0,-6.0
1706277632.8731823,-3.0,-4.0,-41.0,-46.0,-27.0,-7.0,-3.0,0.0
1706277632.8731823,-1.0,8.0,19.0,58.0,35.0,4.0,-2.0,-2.0
1706277632.8831809,1.0,-9.0,15.0,-13.0,21.0,8.0,7.0,4.0
1706277632.8831809,-3.0,-18.0,-107.0,-111.0,-20.0,-10.0,-10.0,-2.0
1706277632.8831809,9.0,10.0,59.0,118.0,51.0,32.0,16.0,7.0
1706277632.8831809,-13.0,-25.0,-38.0,-72.0,-19.0,-12.0,-6.0,-5.0
1706277632.903608,-4.0,-10.0,-2.0,21.0,-16.0,-12.0,-10.0,-5.0
1706277632.903608,-6.0,2.0,-27.0,-69.0,-45.0,-32.0,-13.0,-10.0
1706277632.9131818,-7.0,6.0,36.0,-18.0,-49.0,-14.0,-6.0,-8.0
1706277632.9131818,5.0,-12.0,28.0,117.0,56.0,48.0,27.0,15.0
1706277632.923209,-4.0,13.0,-6.0,-81.0,-11.0,-19.0,-12.0,-10.0
1706277632.923209,-4.0,-7.0,44.0,18.0,-22.0,-10.0,-7.0,-4.0
1706277632.923209,4.0,-4.0,-5.0,-35.0,5.0,2.0,4.0,1.0
1706277632.923209,1.0,0.0,-11.0,2.0,12.0,1.0,-1.0,-1.0
1706277632.9436245,-7.0,-8.0,-14.0,-95.0,-83.0,-33.0,-15.0,-3.0
1706277632.9436245,1.0,-16.0,5.0,43.0,24.0,2.0,-3.0,-3.0
1706277632.9436245,6.0,-12.0,-40.0,-20.0,20.0,7.0,1.0,3.0
1706277632.9436245,6.0,5.0,6.0,16.0,-3.0,-9.0,-4.0,0.0
1706277632.963182,-9.0,2.0,32.0,46.0,35.0,1.0,-4.0,-7.0
1706277632.963182,4.0,14.0,-7.0,-26.0,-22.0,-16.0,-4.0,2.0
1706277632.9731865,1.0,3.0,16.0,18.0,49.0,24.0,12.0,7.0
1706277632.9731865,2.0,-3.0,-12.0,-33.0,-26.0,-10.0,0.0,1.0
1706277632.9834838,7.0,4.0,15.0,18.0,26.0,23.0,17.0,8.0
1706277632.9834838,7.0,14.0,41.0,69.0,74.0,47.0,21.0,12.0
1706277632.9834838,-5.0,14.0,14.0,26.0,9.0,-3.0,-2.0,-5.0
1706277632.9834838,-4.0,-1.0,11.0,-9.0,5.0,-7.0,-6.0,-3.0
1706277633.0034971,4.0,6.0,1.0,-1.0,6.0,7.0,2.0,3.0
1706277633.0034971,-2.0,8.0,5.0,-22.0,-9.0,-6.0,-2.0,-2.0
1706277633.0131881,4.0,8.0,-22.0,-44.0,-13.0,-13.0,-8.0,0.0
1706277633.0131881,12.0,2.0,-18.0,28.0,60.0,28.0,13.0,12.0
1706277633.0431848,-10.0,-7.0,6.0,4.0,3.0,-3.0,-3.0,-5.0
1706277633.0431848,6.0,6.0,-1.0,52.0,21.0,5.0,4.0,3.0
1706277633.0431848,-4.0,-10.0,-18.0,-12.0,4.0,1.0,-1.0,-5.0
1706277633.0431848,1.0,9.0,33.0,10.0,-27.0,-16.0,-6.0,-2.0
1706277633.0431848,-8.0,-13.0,18.0,37.0,1.0,7.0,3.0,-3.0
1706277633.0431848,0.0,-7.0,-36.0,-63.0,-24.0,-12.0,-4.0,-1.0
1706277633.0431848,1.0,-7.0,-34.0,-34.0,0.0,-11.0,-8.0,-2.0
1706277633.0431848,0.0,-3.0,15.0,13.0,14.0,14.0,3.0,0.0
1706277633.0635817,0.0,4.0,17.0,9.0,7.0,19.0,10.0,1.0
1706277633.0635817,-7.0,-8.0,0.0,8.0,-16.0,-5.0,-6.0,-3.0
1706277633.0635817,2.0,-5.0,4.0,-18.0,-15.0,-5.0,0.0,-1.0
1706277633.0635817,4.0,10.0,9.0,4.0,0.0,-5.0,-4.0,-2.0
1706277633.0831819,-3.0,-2.0,-11.0,-35.0,-7.0,0.0,-1.0,1.0
1706277633.0831819,2.0,2.0,9.0,17.0,-10.0,-4.0,-3.0,0.0
1706277633.093183,-7.0,3.0,12.0,15.0,-2.0,-3.0,-5.0,-5.0
1706277633.093183,-6.0,1.0,-10.0,-55.0,-25.0,-15.0,-8.0,-8.0
1706277633.103587,9.0,5.0,22.0,49.0,26.0,8.0,6.0,5.0
1706277633.103587,3.0,-1.0,-1.0,11.0,1.0,8.0,4.0,3.0
1706277633.103587,8.0,3.0,17.0,-24.0,-13.0,2.0,6.0,6.0
1706277633.103587,-6.0,-11.0,17.0,80.0,13.0,-2.0,-1.0,-1.0
1706277633.123182,1.0,3.0,19.0,-1.0,-4.0,5.0,3.0,1.0
1706277633.123182,-5.0,1.0,-14.0,-5.0,11.0,4.0,1.0,-3.0
1706277633.123182,-3.0,-9.0,-45.0,-48.0,-8.0,3.0,2.0,1.0
1706277633.123182,-7.0,-7.0,-11.0,-20.0,-23.0,-8.0,-7.0,-6.0
1706277633.1435943,-1.0,-3.0,-8.0,-3.0,-25.0,-17.0,-10.0,-6.0
1706277633.1435943,-3.0,-3.0,-4.0,10.0,3.0,-1.0,-3.0,-2.0
1706277633.153183,0.0,4.0,9.0,10.0,3.0,-2.0,-3.0,0.0
1706277633.153183,2.0,-3.0,-13.0,-9.0,0.0,1.0,2.0,1.0
1706277633.1636038,-9.0,-3.0,-7.0,-3.0,-7.0,-9.0,-7.0,-3.0
1706277633.1636038,-1.0,1.0,3.0,-2.0,-5.0,-5.0,-1.0,-2.0
1706277633.1636038,-2.0,-1.0,-3.0,-1.0,-10.0,-1.0,-3.0,-3.0
1706277633.1636038,-2.0,-4.0,-4.0,-3.0,0.0,8.0,4.0,4.0
1706277633.1834962,2.0,-2.0,5.0,12.0,-1.0,-5.0,-3.0,0.0
1706277633.1834962,-4.0,-6.0,-7.0,-17.0,-3.0,-6.0,-4.0,-4.0
1706277633.1834962,-3.0,-8.0,-2.0,1.0,-11.0,-6.0,-4.0,-1.0
1706277633.1834962,-1.0,-13.0,1.0,-18.0,-7.0,-2.0,-1.0,-2.0
1706277633.2130992,-1.0,-30.0,-9.0,-6.0,-2.0,-5.0,-4.0,-2.0
1706277633.2130992,-2.0,-35.0,0.0,-30.0,-17.0,-6.0,-3.0,-1.0
1706277633.2150896,-2.0,-47.0,-7.0,28.0,12.0,3.0,1.0,-1.0
1706277633.2150896,-1.0,-28.0,20.0,13.0,-1.0,-1.0,1.0,-2.0
1706277633.22621,-1.0,-46.0,-11.0,-15.0,-10.0,-5.0,-2.0,-2.0
1706277633.22621,-1.0,-48.0,12.0,-6.0,-6.0,-4.0,-2.0,-2.0
1706277633.22621,1.0,-28.0,10.0,13.0,9.0,3.0,-2.0,0.0
1706277633.22621,-3.0,-11.0,-8.0,4.0,5.0,-1.0,-4.0,-2.0
1706277633.2462115,0.0,31.0,-3.0,-6.0,-9.0,-4.0,-3.0,-2.0
1706277633.2462115,0.0,39.0,-6.0,1.0,1.0,1.0,1.0,0.0
1706277633.2462115,-2.0,38.0,1.0,-17.0,-13.0,-7.0,-6.0,-2.0
1706277633.2462115,1.0,33.0,10.0,47.0,46.0,16.0,5.0,1.0
1706277633.2562597,-7.0,7.0,-15.0,-6.0,-8.0,-3.0,-4.0,-4.0
1706277633.2562597,-1.0,28.0,-9.0,-7.0,-7.0,-5.0,-3.0,-4.0
1706277633.2662685,0.0,40.0,5.0,6.0,3.0,2.0,0.0,0.0
1706277633.2662685,-1.0,37.0,-8.0,-16.0,-10.0,-3.0,-3.0,0.0
1706277633.306212,3.0,34.0,8.0,8.0,4.0,1.0,0.0,0.0
1706277633.306212,0.0,24.0,2.0,7.0,7.0,2.0,-1.0,0.0
1706277633.306212,-4.0,16.0,1.0,3.0,-6.0,-4.0,-3.0,-3.0
1706277633.306212,-2.0,12.0,-8.0,-11.0,-11.0,-6.0,-4.0,-3.0
1706277633.306212,1.0,18.0,-2.0,-3.0,-1.0,-2.0,-2.0,-1.0
1706277633.306212,-1.0,16.0,6.0,-3.0,-10.0,-3.0,0.0,-1.0
1706277633.306212,-1.0,7.0,-2.0,5.0,7.0,3.0,2.0,1.0
1706277633.306212,-6.0,-1.0,-15.0,-7.0,-7.0,-3.0,-1.0,0.0
1706277633.3165526,0.0,2.0,7.0,-21.0,-13.0,-6.0,-1.0,-4.0
1706277633.3165526,1.0,8.0,1.0,0.0,0.0,-4.0,-4.0,-1.0
1706277633.3265092,9.0,0.0,0.0,12.0,7.0,0.0,1.0,2.0
1706277633.3265092,-6.0,-2.0,6.0,1.0,0.0,-2.0,-3.0,-11.0
1706277633.3562112,-3.0,-5.0,-13.0,0.0,2.0,0.0,0.0,1.0
1706277633.3562112,3.0,-3.0,13.0,13.0,6.0,2.0,3.0,6.0
1706277633.3562112,-6.0,-7.0,13.0,-3.0,-3.0,0.0,-2.0,-4.0
1706277633.3562112,3.0,-5.0,9.0,-2.0,-5.0,-2.0,0.0,3.0
1706277633.3665617,-1.0,-8.0,-20.0,-9.0,-2.0,-2.0,0.0,2.0
1706277633.3665617,-5.0,-5.0,3.0,1.0,-3.0,-1.0,-1.0,-3.0
1706277633.3665617,-2.0,-5.0,-10.0,-7.0,-2.0,-2.0,-2.0,-1.0
1706277633.3665617,2.0,-2.0,12.0,-2.0,0.0,-2.0,-1.0,3.0
1706277633.3765528,-1.0,-3.0,6.0,13.0,5.0,-1.0,-3.0,-4.0
1706277633.3765528,-1.0,-2.0,3.0,-1.0,-5.0,-4.0,-4.0,-3.0
1706277633.3865128,-4.0,-5.0,-2.0,-1.0,-2.0,-1.0,-2.0,-5.0
1706277633.3865128,-4.0,-7.0,-10.0,-10.0,-17.0,-8.0,-5.0,2.0
1706277633.416213,-2.0,-11.0,-1.0,5.0,6.0,2.0,-1.0,-3.0
1706277633.416213,1.0,7.0,-5.0,-1.0,0.0,-2.0,-3.0,-1.0
1706277633.416213,-5.0,-4.0,4.0,0.0,-3.0,-1.0,-2.0,-1.0
1706277633.416213,-1.0,-7.0,0.0,0.0,-3.0,-1.0,-1.0,-2.0
1706277633.4264421,0.0,5.0,5.0,3.0,-1.0,-3.0,-2.0,2.0
1706277633.4264421,-4.0,-23.0,-6.0,-6.0,-3.0,-4.0,-2.0,-3.0
1706277633.4264421,-3.0,-4.0,-5.0,3.0,0.0,0.0,-1.0,-2.0
1706277633.4264421,2.0,5.0,2.0,-3.0,-2.0,0.0,2.0,1.0
1706277633.4364412,-4.0,1.0,1.0,-4.0,-2.0,-2.0,-2.0,-2.0
1706277633.4364412,-1.0,-4.0,-3.0,-3.0,-1.0,0.0,0.0,-2.0
1706277633.4463928,-1.0,-6.0,-4.0,-2.0,1.0,1.0,-1.0,0.0
1706277633.4463928,0.0,-4.0,1.0,-2.0,-1.0,0.0,-1.0,-2.0
1706277633.4862132,-6.0,-8.0,-13.0,-4.0,-3.0,-5.0,-3.0,-6.0
1706277633.4862132,-1.0,-2.0,-11.0,3.0,-1.0,-1.0,-1.0,-1.0
1706277633.4962103,-5.0,-16.0,-12.0,-6.0,-3.0,-3.0,-1.0,-2.0
1706277633.4962103,3.0,5.0,13.0,4.0,1.0,1.0,1.0,0.0
1706277633.4962103,-2.0,-6.0,7.0,1.0,-4.0,-2.0,0.0,-1.0
1706277633.4962103,0.0,4.0,-7.0,-6.0,0.0,-1.0,-1.0,-1.0
1706277633.4962103,0.0,-1.0,0.0,3.0,-1.0,0.0,2.0,1.0
1706277633.4962103,-2.0,-3.0,-4.0,1.0,4.0,1.0,-2.0,-2.0
1706277633.5162137,2.0,7.0,10.0,2.0,0.0,1.0,-2.0,1.0
1706277633.5162137,-2.0,-5.0,3.0,-2.0,-1.0,1.0,-1.0,1.0
1706277633.5162137,2.0,2.0,-2.0,-1.0,-1.0,1.0,0.0,-1.0
1706277633.5162137,-2.0,-6.0,-8.0,-2.0,-3.0,-3.0,-2.0,-2.0
1706277633.5262465,0.0,-1.0,0.0,0.0,1.0,0.0,0.0,-1.0
1706277633.5262465,-3.0,0.0,3.0,-8.0,-7.0,-3.0,-2.0,-1.0
1706277633.5262465,-2.0,-1.0,1.0,0.0,6.0,0.0,-2.0,0.0
1706277633.5262465,-2.0,0.0,-3.0,7.0,-7.0,-2.0,-3.0,-2.0
1706277633.5466118,5.0,1.0,1.0,12.0,13.0,1.0,-1.0,2.0
1706277633.5466118,1.0,-2.0,1.0,-5.0,-5.0,-1.0,0.0,0.0
1706277633.5466118,0.0,5.0,3.0,-1.0,-1.0,2.0,0.0,1.0
1706277633.5466118,-1.0,-6.0,-10.0,-9.0,4.0,1.0,0.0,-1.0
1706277633.5562167,-3.0,-5.0,4.0,-1.0,-2.0,-1.0,0.0,0.0
1706277633.5562167,0.0,-1.0,-18.0,-6.0,-3.0,-2.0,-2.0,-3.0
1706277633.5663824,1.0,10.0,18.0,0.0,-3.0,-1.0,0.0,0.0
1706277633.5663824,-3.0,-8.0,-11.0,-4.0,0.0,0.0,-1.0,-2.0
1706277633.586213,-1.0,-8.0,8.0,3.0,-4.0,-2.0,1.0,-2.0
1706277633.586213,2.0,5.0,-2.0,4.0,5.0,1.0,1.0,0.0
1706277633.586213,-6.0,-15.0,-8.0,-6.0,-5.0,-5.0,-3.0,-4.0
1706277633.586213,-1.0,-3.0,1.0,-1.0,2.0,0.0,1.0,0.0
1706277633.6065912,0.0,2.0,-3.0,-2.0,-5.0,0.0,-1.0,-1.0
1706277633.6065912,-3.0,-2.0,10.0,5.0,-4.0,-3.0,-1.0,-2.0
1706277633.6065912,0.0,1.0,-6.0,-1.0,0.0,-5.0,-1.0,0.0
1706277633.6065912,-1.0,-1.0,6.0,1.0,5.0,4.0,-1.0,0.0
1706277633.616537,-1.0,-1.0,-10.0,-4.0,-1.0,-3.0,-2.0,-2.0
1706277633.616537,-3.0,-3.0,3.0,-7.0,-3.0,-2.0,-1.0,-1.0
1706277633.636214,2.0,2.0,0.0,4.0,-1.0,1.0,1.0,0.0
1706277633.636214,-4.0,-6.0,-7.0,-4.0,3.0,-2.0,-3.0,-2.0
1706277633.646244,0.0,4.0,-8.0,-5.0,-6.0,-3.0,-1.0,-1.0
1706277633.646244,-4.0,-9.0,-2.0,-5.0,-5.0,-3.0,-4.0,-3.0
1706277633.646244,3.0,1.0,6.0,2.0,2.0,2.0,1.0,1.0
1706277633.646244,0.0,1.0,4.0,7.0,1.0,-1.0,-1.0,1.0
1706277633.6666162,-3.0,-2.0,-1.0,-7.0,-2.0,0.0,-1.0,-1.0
1706277633.6666162,-3.0,4.0,25.0,4.0,-7.0,-3.0,-3.0,-5.0
1706277633.6666162,-3.0,-7.0,-3.0,4.0,3.0,-1.0,0.0,0.0
1706277633.6666162,-1.0,0.0,-18.0,-14.0,-8.0,-1.0,0.0,0.0
1706277633.67655,-1.0,3.0,6.0,16.0,3.0,-1.0,-3.0,-3.0
1706277633.67655,1.0,0.0,8.0,9.0,9.0,3.0,0.0,3.0
1706277633.6962156,-3.0,-8.0,-6.0,-6.0,-11.0,-1.0,-1.0,0.0
1706277633.6962156,0.0,3.0,10.0,5.0,2.0,-4.0,-1.0,-1.0
1706277633.7062454,-1.0,0.0,3.0,-18.0,-9.0,0.0,2.0,5.0
1706277633.7062454,-2.0,-1.0,-14.0,-1.0,-3.0,-3.0,-6.0,-6.0
1706277633.7062454,3.0,2.0,-21.0,-3.0,0.0,-1.0,0.0,6.0
1706277633.7062454,3.0,1.0,7.0,17.0,-3.0,-2.0,-1.0,-3.0
1706277633.726512,-1.0,-5.0,-2.0,-25.0,-8.0,-3.0,-1.0,0.0
1706277633.726512,-1.0,2.0,11.0,13.0,0.0,-1.0,-1.0,-1.0
1706277633.726512,-1.0,-3.0,2.0,-20.0,-3.0,-1.0,-1.0,-2.0
1706277633.726512,-3.0,-1.0,-12.0,-2.0,-4.0,-2.0,-1.0,-2.0
1706277633.7533052,2.0,4.0,-24.0,-6.0,3.0,0.0,-2.0,-2.0
1706277633.7533052,3.0,-1.0,-4.0,5.0,1.0,2.0,4.0,2.0
1706277633.7543085,-2.0,-1.0,0.0,-1.0,3.0,2.0,0.0,-4.0
1706277633.7543085,-1.0,-2.0,-14.0,-7.0,0.0,0.0,0.0,0.0
1706277633.758823,-5.0,-9.0,6.0,8.0,-2.0,-3.0,-3.0,-5.0
1706277633.758823,-3.0,0.0,-14.0,-18.0,-3.0,0.0,2.0,5.0
1706277633.7688339,-2.0,-10.0,-17.0,18.0,2.0,-2.0,-4.0,-4.0
1706277633.7688339,2.0,3.0,18.0,-2.0,-8.0,-1.0,-1.0,8.0
1706277633.789257,-14.0,1.0,13.0,-2.0,1.0,-5.0,-10.0,-23.0
1706277633.789257,1.0,-5.0,2.0,9.0,2.0,1.0,0.0,6.0
1706277633.789257,-2.0,0.0,-21.0,-10.0,-1.0,-3.0,-1.0,-6.0
1706277633.789257,0.0,4.0,-2.0,-10.0,-7.0,-1.0,1.0,1.0
1706277633.8088574,3.0,-8.0,27.0,27.0,4.0,3.0,4.0,6.0
1706277633.8088574,-3.0,0.0,11.0,-4.0,-1.0,1.0,0.0,-1.0
1706277633.8088574,5.0,13.0,-22.0,-31.0,-2.0,-2.0,-3.0,-4.0
1706277633.8088574,-9.0,-17.0,-9.0,-3.0,2.0,1.0,2.0,-2.0
1706277633.819131,5.0,8.0,7.0,6.0,-3.0,-1.0,2.0,6.0
1706277633.819131,-1.0,-5.0,-12.0,7.0,-2.0,-4.0,-1.0,-4.0
1706277633.8288257,1.0,5.0,15.0,11.0,6.0,2.0,-1.0,4.0
1706277633.8288257,-2.0,0.0,44.0,17.0,2.0,3.0,2.0,0.0
1706277633.8491974,1.0,-4.0,-31.0,-32.0,-7.0,-3.0,0.0,2.0
1706277633.8491974,-2.0,-5.0,6.0,2.0,-2.0,-1.0,-6.0,-10.0
1706277633.8491974,-4.0,-7.0,-21.0,19.0,5.0,3.0,3.0,-1.0
1706277633.8491974,1.0,0.0,47.0,14.0,4.0,0.0,1.0,3.0
1706277633.868853,-8.0,4.0,-13.0,0.0,-2.0,-1.0,0.0,-9.0
1706277633.868853,0.0,1.0,50.0,34.0,9.0,1.0,-2.0,-6.0
1706277633.868853,-3.0,13.0,39.0,-5.0,-9.0,-6.0,-5.0,-2.0
1706277633.868853,-4.0,-9.0,-59.0,4.0,1.0,-4.0,-3.0,-8.0
1706277633.8791854,-2.0,-6.0,-14.0,-27.0,-8.0,-4.0,-8.0,2.0
1706277633.8791854,9.0,-6.0,-29.0,-15.0,3.0,1.0,1.0,14.0
1706277633.8888707,-7.0,-2.0,25.0,16.0,2.0,0.0,8.0,12.0
1706277633.8888707,17.0,4.0,-20.0,-39.0,-10.0,-2.0,-8.0,-19.0
1706277633.9093628,2.0,0.0,9.0,28.0,6.0,-2.0,-2.0,4.0
1706277633.9093628,-2.0,-3.0,-29.0,-18.0,3.0,8.0,4.0,7.0
1706277633.9093628,3.0,8.0,16.0,-2.0,-6.0,-3.0,-1.0,6.0
1706277633.9093628,-9.0,-19.0,-18.0,-1.0,1.0,-1.0,0.0,-1.0
1706277633.9293997,-5.0,-17.0,0.0,9.0,5.0,3.0,5.0,6.0
1706277633.9293997,-14.0,-17.0,5.0,-10.0,-3.0,-1.0,0.0,-3.0
1706277633.9293997,-1.0,-2.0,12.0,11.0,4.0,2.0,2.0,3.0
1706277633.9293997,0.0,8.0,-3.0,0.0,-1.0,-2.0,-4.0,-5.0
1706277633.9395595,-6.0,-8.0,-10.0,-15.0,-4.0,0.0,-2.0,-6.0
1706277633.9395595,-1.0,5.0,5.0,6.0,0.0,-2.0,2.0,11.0
1706277633.9496343,3.0,-12.0,0.0,-2.0,-2.0,-1.0,-10.0,-18.0
1706277633.9496343,-11.0,18.0,6.0,-4.0,-3.0,-4.0,1.0,-4.0
1706277633.9693732,6.0,0.0,-6.0,-3.0,-2.0,0.0,3.0,2.0
1706277633.9693732,-10.0,-5.0,-35.0,-22.0,-8.0,-5.0,-7.0,-7.0
1706277633.9693732,11.0,7.0,6.0,-5.0,-2.0,-4.0,-5.0,-3.0
1706277633.9693732,-7.0,-2.0,13.0,-4.0,-1.0,-2.0,-1.0,-4.0
1706277633.989613,-6.0,-5.0,-17.0,-2.0,-4.0,-5.0,-10.0,-9.0
1706277633.989613,5.0,-2.0,-18.0,-11.0,-7.0,-7.0,-3.0,1.0
1706277633.989613,-13.0,-7.0,-10.0,4.0,3.0,0.0,-5.0,-9.0
1706277633.989613,13.0,8.0,9.0,0.0,-2.0,-1.0,1.0,5.0
1706277634.009383,-7.0,8.0,9.0,3.0,1.0,2.0,3.0,6.0
1706277634.009383,-4.0,-11.0,-5.0,-2.0,1.0,-3.0,-5.0,-14.0
1706277634.009383,-2.0,5.0,0.0,0.0,-1.0,2.0,3.0,2.0
1706277634.009383,2.0,1.0,-5.0,2.0,0.0,0.0,0.0,5.0
1706277634.0394208,-4.0,-4.0,-5.0,3.0,0.0,0.0,-1.0,0.0
1706277634.0394208,-11.0,17.0,-7.0,-6.0,-5.0,-4.0,-6.0,-12.0
1706277634.0394208,11.0,16.0,-7.0,-7.0,-8.0,-5.0,-3.0,0.0
1706277634.0394208,-22.0,-10.0,-6.0,2.0,-2.0,-5.0,-13.0,-35.0
1706277634.0494883,12.0,-5.0,2.0,-2.0,-3.0,-1.0,4.0,17.0
1706277634.0494883,4.0,-2.0,-6.0,2.0,2.0,2.0,0.0,-4.0
1706277634.0494883,-4.0,-30.0,-17.0,-9.0,-5.0,-4.0,0.0,-7.0
1706277634.0494883,18.0,38.0,-3.0,-3.0,-3.0,-2.0,2.0,9.0
1706277634.059722,4.0,14.0,-12.0,0.0,0.0,-1.0,-3.0,1.0
1706277634.059722,6.0,20.0,7.0,-2.0,-1.0,-1.0,0.0,-3.0
1706277634.0699914,-7.0,-21.0,-5.0,8.0,4.0,1.0,2.0,4.0
1706277634.0699914,-11.0,-5.0,6.0,1.0,0.0,-1.0,4.0,6.0
1706277634.0997388,3.0,-7.0,-8.0,-2.0,0.0,2.0,-1.0,-3.0
1706277634.0997388,2.0,-9.0,9.0,4.0,3.0,3.0,5.0,8.0
1706277634.0997388,6.0,56.0,61.0,4.0,2.0,-1.0,4.0,14.0
1706277634.0997388,-4.0,-23.0,-13.0,2.0,2.0,1.0,-2.0,-4.0
1706277634.1100984,8.0,5.0,10.0,4.0,-1.0,-4.0,-1.0,-3.0
1706277634.1100984,-6.0,-3.0,-9.0,-5.0,-2.0,0.0,-3.0,-3.0
1706277634.1100984,10.0,17.0,5.0,-2.0,1.0,1.0,3.0,2.0
1706277634.1100984,-8.0,-37.0,-14.0,-7.0,-1.0,-2.0,3.0,8.0
1706277634.1200466,-2.0,12.0,8.0,1.0,0.0,1.0,1.0,0.0
1706277634.1297386,19.0,19.0,-2.0,-1.0,-2.0,-2.0,-8.0,0.0
1706277634.1297386,-22.0,-36.0,-14.0,2.0,-1.0,-3.0,-2.0,-2.0
1706277634.1297386,11.0,12.0,0.0,-2.0,0.0,1.0,-1.0,-5.0
1706277634.1501527,-3.0,-11.0,-4.0,2.0,0.0,1.0,2.0,3.0
1706277634.1501527,2.0,-5.0,10.0,5.0,-1.0,-1.0,3.0,11.0
1706277634.1501527,2.0,-2.0,-12.0,-3.0,0.0,0.0,4.0,0.0
1706277634.1501527,11.0,0.0,1.0,2.0,-3.0,-2.0,-7.0,1.0
1706277634.1701565,-5.0,-6.0,6.0,1.0,-3.0,-2.0,-5.0,-6.0
1706277634.1701565,-15.0,4.0,-6.0,-12.0,-3.0,-2.0,-2.0,-20.0
1706277634.1701565,12.0,-3.0,-16.0,-12.0,0.0,-3.0,0.0,12.0
1706277634.1701565,-26.0,-27.0,-7.0,2.0,-3.0,-2.0,0.0,-6.0
1706277634.1897378,23.0,51.0,20.0,1.0,0.0,1.0,5.0,6.0
1706277634.1897378,-7.0,-7.0,3.0,3.0,2.0,0.0,0.0,-6.0
1706277634.1897378,-8.0,-18.0,-12.0,2.0,-1.0,-2.0,-5.0,-3.0
1706277634.1897378,8.0,10.0,-2.0,-8.0,-5.0,-2.0,-3.0,-6.0
1706277634.210027,-10.0,-2.0,-2.0,-1.0,-2.0,-2.0,-2.0,-6.0
1706277634.210027,-6.0,-4.0,-10.0,3.0,0.0,-1.0,0.0,1.0
1706277634.210027,-16.0,-14.0,12.0,5.0,-1.0,0.0,0.0,-13.0
1706277634.210027,5.0,6.0,5.0,4.0,3.0,2.0,6.0,15.0
1706277634.230041,-9.0,-7.0,1.0,-5.0,1.0,-1.0,-3.0,-7.0
1706277634.230041,-2.0,-9.0,2.0,1.0,-4.0,-2.0,-4.0,-9.0
1706277634.230041,-5.0,-1.0,-1.0,0.0,-1.0,-1.0,-4.0,-5.0
1706277634.230041,-7.0,3.0,-2.0,-3.0,-1.0,1.0,2.0,5.0
1706277634.2497425,5.0,-11.0,3.0,6.0,-1.0,-2.0,1.0,-2.0
1706277634.2497425,3.0,5.0,-4.0,-5.0,-3.0,-3.0,5.0,15.0
1706277634.2749636,9.0,28.0,7.0,-1.0,1.0,-1.0,-4.0,-17.0
1706277634.2749636,-7.0,-23.0,-9.0,3.0,4.0,5.0,1.0,1.0
1706277634.2749636,0.0,-15.0,18.0,11.0,-1.0,0.0,1.0,11.0
1706277634.2749636,23.0,26.0,-10.0,-16.0,-5.0,-1.0,1.0,1.0
1706277634.2749636,2.0,0.0,-13.0,-2.0,-1.0,2.0,1.0,2.0
1706277634.2749636,3.0,21.0,17.0,5.0,-1.0,-2.0,-3.0,1.0
1706277634.2916768,-8.0,-10.0,-7.0,-3.0,1.0,0.0,1.0,-4.0
1706277634.2916768,-3.0,-9.0,4.0,7.0,0.0,2.0,6.0,10.0
1706277634.2916768,-3.0,-3.0,-9.0,-4.0,-1.0,-2.0,-3.0,-6.0
1706277634.2916768,2.0,0.0,-4.0,-6.0,-1.0,-3.0,-3.0,-1.0
1706277634.3016768,-13.0,-5.0,-7.0,5.0,-1.0,-1.0,-1.0,-6.0
1706277634.3016768,-16.0,-10.0,6.0,3.0,1.0,-2.0,-12.0,-23.0
1706277634.3119423,2.0,-12.0,-6.0,-3.0,0.0,0.0,-1.0,7.0
1706277634.3119423,-3.0,11.0,13.0,1.0,-2.0,-2.0,4.0,-2.0
1706277634.322066,16.0,2.0,-18.0,-5.0,-2.0,0.0,-3.0,1.0
1706277634.322066,1.0,-14.0,14.0,8.0,1.0,0.0,2.0,7.0
1706277634.331713,-7.0,-8.0,-4.0,-7.0,-3.0,-2.0,-4.0,-2.0
1706277634.331713,4.0,5.0,2.0,-2.0,0.0,1.0,5.0,26.0
1706277634.3616772,2.0,3.0,-1.0,0.0,-1.0,-1.0,-1.0,0.0
1706277634.3616772,-4.0,-1.0,-7.0,-5.0,1.0,1.0,1.0,-2.0
1706277634.3616772,3.0,2.0,8.0,2.0,-3.0,-1.0,-3.0,0.0
1706277634.3616772,4.0,-5.0,-1.0,-8.0,-4.0,-2.0,1.0,5.0
1706277634.3616772,-4.0,-4.0,-12.0,-9.0,-1.0,-2.0,-2.0,-3.0
1706277634.3616772,-3.0,5.0,3.0,3.0,1.0,-1.0,-1.0,-2.0
1706277634.3717132,2.0,-14.0,-15.0,-3.0,-4.0,-1.0,-2.0,-6.0
1706277634.3717132,-4.0,-10.0,-23.0,-7.0,-1.0,0.0,-4.0,-3.0
1706277634.3820207,-16.0,-12.0,8.0,2.0,0.0,-3.0,-2.0,-7.0
1706277634.3820207,4.0,1.0,-1.0,2.0,0.0,-3.0,-5.0,-6.0
1706277634.3920434,-4.0,18.0,-1.0,-5.0,0.0,0.0,2.0,1.0
1706277634.3920434,3.0,6.0,1.0,6.0,1.0,1.0,-2.0,-8.0
1706277634.4320378,4.0,-5.0,-2.0,-9.0,-2.0,-1.0,-1.0,4.0
1706277634.4320378,1.0,-3.0,0.0,5.0,1.0,1.0,0.0,5.0
1706277634.4320378,-3.0,-1.0,7.0,-2.0,-4.0,-3.0,-7.0,-7.0
1706277634.4320378,-8.0,-8.0,3.0,2.0,-2.0,-2.0,-4.0,-8.0
1706277634.4320378,2.0,0.0,-16.0,-5.0,-4.0,-4.0,-6.0,-5.0
1706277634.4320378,1.0,1.0,-6.0,-8.0,-4.0,-5.0,0.0,9.0
1706277634.4320378,1.0,-3.0,1.0,1.0,-2.0,1.0,1.0,2.0
1706277634.4320378,-3.0,-5.0,13.0,5.0,-1.0,-4.0,-4.0,-6.0
1706277634.4420805,-7.0,-1.0,3.0,-6.0,-2.0,0.0,1.0,4.0
1706277634.452046,-2.0,-3.0,2.0,-3.0,-1.0,0.0,-1.0,-11.0
1706277634.452046,-1.0,-1.0,-8.0,-1.0,0.0,-2.0,1.0,2.0
1706277634.452046,2.0,11.0,-1.0,0.0,0.0,0.0,-1.0,0.0
1706277634.4820418,3.0,4.0,0.0,4.0,1.0,0.0,2.0,2.0
1706277634.4920394,-4.0,-15.0,-6.0,1.0,-2.0,0.0,-1.0,-9.0
1706277634.4920394,2.0,2.0,-6.0,2.0,1.0,0.0,6.0,26.0
1706277634.4920394,11.0,11.0,13.0,-4.0,-4.0,-3.0,-5.0,-17.0
1706277634.4920394,-7.0,-9.0,3.0,5.0,2.0,1.0,-1.0,0.0
1706277634.4920394,-3.0,13.0,-15.0,-7.0,-3.0,-4.0,-1.0,0.0
1706277634.4920394,3.0,-3.0,-2.0,-4.0,0.0,2.0,-5.0,-9.0
1706277634.4920394,-15.0,-5.0,-5.0,-1.0,2.0,2.0,0.0,-4.0
1706277634.5020719,8.0,-2.0,-5.0,-2.0,0.0,0.0,1.0,0.0
1706277634.5020719,-3.0,-7.0,15.0,5.0,-2.0,-4.0,-2.0,2.0
1706277634.5122693,0.0,4.0,2.0,-1.0,-1.0,-3.0,-1.0,-1.0
1706277634.5122693,0.0,0.0,-6.0,0.0,-1.0,-2.0,-1.0,4.0
1706277634.5520425,-4.0,6.0,-6.0,-7.0,-2.0,0.0,-4.0,-10.0
1706277634.5520425,-2.0,2.0,-1.0,-3.0,0.0,-1.0,-3.0,-4.0
1706277634.5520425,-6.0,-3.0,2.0,-1.0,-4.0,-1.0,-1.0,-3.0
1706277634.5520425,2.0,-7.0,-7.0,-3.0,-2.0,-2.0,1.0,9.0
1706277634.5520425,-4.0,-6.0,-3.0,-1.0,-1.0,-2.0,-2.0,-12.0
1706277634.5520425,-4.0,-4.0,0.0,0.0,0.0,-1.0,-4.0,-5.0
1706277634.5520425,6.0,0.0,-5.0,0.0,-2.0,-3.0,2.0,12.0
1706277634.5520425,0.0,1.0,2.0,0.0,0.0,1.0,-4.0,0.0
1706277634.5620885,-12.0,-2.0,6.0,2.0,1.0,0.0,1.0,-1.0
1706277634.5620885,5.0,-1.0,-4.0,-3.0,0.0,-1.0,-2.0,4.0
1706277634.5720446,-5.0,-5.0,1.0,3.0,0.0,-1.0,-2.0,-6.0
1706277634.582045,-7.0,-7.0,-5.0,0.0,0.0,-2.0,-2.0,-8.0
1706277634.5920413,3.0,6.0,5.0,-3.0,-3.0,-2.0,2.0,1.0
1706277634.5920413,0.0,-5.0,-7.0,-2.0,0.0,1.0,-2.0,-5.0
1706277634.5920413,-4.0,-3.0,0.0,3.0,0.0,2.0,5.0,5.0
1706277634.5920413,1.0,-1.0,-2.0,-1.0,-1.0,0.0,6.0,5.0
1706277634.6020706,-2.0,1.0,-3.0,-1.0,-3.0,-1.0,-4.0,-4.0
1706277634.6020706,2.0,-5.0,7.0,0.0,-1.0,-1.0,-1.0,3.0
1706277634.6124196,0.0,-1.0,8.0,2.0,-1.0,-2.0,-5.0,-6.0
1706277634.6124196,1.0,2.0,-10.0,-2.0,-1.0,-3.0,-4.0,-4.0
1706277634.6224346,11.0,12.0,3.0,-4.0,-3.0,-4.0,-1.0,4.0
1706277634.6224346,-7.0,-6.0,-2.0,2.0,2.0,1.0,-2.0,-4.0
1706277634.6321468,-8.0,-7.0,-7.0,-2.0,0.0,-1.0,0.0,-6.0
1706277634.6321468,6.0,3.0,2.0,-1.0,-1.0,0.0,0.0,1.0
1706277634.6520395,-3.0,1.0,0.0,0.0,-1.0,0.0,0.0,0.0
1706277634.6520395,-3.0,-3.0,-9.0,-5.0,-5.0,-1.0,5.0,7.0
1706277634.6520395,-6.0,-5.0,3.0,-2.0,-1.0,-2.0,-8.0,-14.0
1706277634.6520395,-5.0,-5.0,3.0,1.0,-1.0,-1.0,-7.0,-9.0
1706277634.662087,-1.0,0.0,-2.0,0.0,1.0,1.0,-2.0,-1.0
1706277634.662087,0.0,-2.0,3.0,1.0,-1.0,-2.0,0.0,-3.0
1706277634.6722407,-5.0,-1.0,-1.0,-1.0,1.0,-1.0,0.0,-2.0
1706277634.6722407,-1.0,-4.0,-9.0,-4.0,-2.0,-1.0,-1.0,-1.0
1706277634.6824222,-5.0,-2.0,-1.0,-2.0,-1.0,-1.0,-2.0,-5.0
1706277634.6824222,-1.0,4.0,5.0,2.0,0.0,0.0,2.0,4.0
1706277634.6922462,-2.0,-3.0,-5.0,-2.0,-1.0,-3.0,-2.0,-1.0
1706277634.6922462,-4.0,-6.0,3.0,1.0,2.0,0.0,1.0,0.0
1706277634.712038,-1.0,1.0,3.0,1.0,0.0,-1.0,0.0,5.0
1706277634.712038,6.0,8.0,-6.0,-3.0,-2.0,-3.0,-2.0,-3.0
1706277634.712038,-1.0,-3.0,-8.0,-1.0,-1.0,-1.0,-1.0,-1.0
1706277634.712038,0.0,0.0,2.0,-3.0,-4.0,-3.0,2.0,7.0
1706277634.732462,-2.0,-8.0,4.0,2.0,1.0,-1.0,-3.0,-6.0
1706277634.732462,-3.0,-6.0,-4.0,-3.0,-2.0,0.0,-1.0,-2.0
1706277634.732462,3.0,3.0,-2.0,4.0,2.0,3.0,3.0,4.0
1706277634.732462,-2.0,2.0,-3.0,-4.0,-1.0,1.0,-1.0,-5.0
1706277634.7424293,-1.0,-4.0,-3.0,-2.0,1.0,-3.0,-3.0,-3.0
1706277634.7424293,-4.0,-3.0,4.0,0.0,-1.0,1.0,4.0,3.0
1706277634.7520998,5.0,6.0,-1.0,-1.0,-1.0,0.0,-4.0,0.0
1706277634.7620387,1.0,-5.0,-6.0,-3.0,-1.0,-3.0,1.0,21.0
1706277634.772071,2.0,-4.0,-2.0,0.0,-2.0,1.0,-2.0,-2.0
1706277634.772071,2.0,10.0,7.0,1.0,1.0,1.0,-2.0,-6.0
1706277634.772071,1.0,-3.0,1.0,-2.0,-2.0,-2.0,0.0,-2.0
1706277634.772071,-2.0,-3.0,-2.0,0.0,-1.0,-1.0,-3.0,-4.0
1706277634.7958653,0.0,-1.0,0.0,1.0,-1.0,-1.0,0.0,1.0
1706277634.7958653,-3.0,-2.0,-2.0,-1.0,-2.0,-6.0,-3.0,2.0
1706277634.7975936,-1.0,-3.0,0.0,-1.0,-1.0,0.0,3.0,1.0
1706277634.7975936,2.0,2.0,-1.0,1.0,-2.0,-4.0,-6.0,-4.0
1706277634.8126004,-4.0,-3.0,2.0,-4.0,0.0,2.0,3.0,-2.0
1706277634.8126004,-2.0,-2.0,-3.0,2.0,0.0,3.0,1.0,-4.0
1706277634.8166904,-3.0,-3.0,-3.0,-6.0,-2.0,-3.0,-1.0,0.0
1706277634.8166904,-5.0,-2.0,-1.0,2.0,1.0,-1.0,1.0,-6.0
1706277634.8244836,-1.0,0.0,-3.0,-1.0,-2.0,-2.0,-3.0,-1.0
1706277634.8244836,0.0,0.0,6.0,9.0,2.0,0.0,-2.0,-5.0
1706277634.8344753,-3.0,-1.0,-3.0,-8.0,-4.0,-2.0,-1.0,-2.0
1706277634.8344753,0.0,2.0,0.0,-4.0,1.0,2.0,2.0,1.0
1706277634.854797,-5.0,-10.0,-39.0,-15.0,-6.0,-5.0,-3.0,-3.0
1706277634.854797,3.0,6.0,27.0,3.0,1.0,0.0,-3.0,3.0
1706277634.854797,0.0,-3.0,-14.0,9.0,2.0,1.0,-1.0,-2.0
1706277634.854797,-4.0,-4.0,-8.0,-13.0,-5.0,-4.0,-4.0,-7.0
1706277634.864476,0.0,0.0,-5.0,0.0,0.0,-2.0,-1.0,-1.0
1706277634.864476,-2.0,-5.0,-11.0,2.0,2.0,0.0,2.0,1.0
1706277634.8745081,-2.0,2.0,12.0,3.0,0.0,0.0,0.0,1.0
1706277634.8745081,-3.0,-7.0,-35.0,-14.0,-6.0,-3.0,-2.0,-3.0
1706277634.8848228,1.0,2.0,-7.0,-1.0,0.0,0.0,-2.0,1.0
1706277634.8848228,-1.0,-3.0,-1.0,-5.0,-5.0,-3.0,0.0,2.0
1706277634.894517,4.0,4.0,5.0,13.0,4.0,3.0,-1.0,-2.0
1706277634.894517,1.0,2.0,17.0,-4.0,-2.0,-1.0,-1.0,-3.0
1706277634.9153554,5.0,9.0,27.0,5.0,0.0,-1.0,4.0,4.0
1706277634.9153554,-7.0,-12.0,-31.0,-11.0,-4.0,-2.0,-4.0,-5.0
1706277634.9153554,-2.0,-2.0,-5.0,4.0,-1.0,-1.0,-1.0,-1.0
1706277634.9153554,-1.0,1.0,8.0,-2.0,0.0,-1.0,-3.0,-5.0
1706277634.9249296,0.0,0.0,2.0,1.0,0.0,-3.0,-2.0,0.0
1706277634.9249296,1.0,2.0,7.0,6.0,5.0,10.0,8.0,2.0
1706277634.9349597,-2.0,-2.0,-3.0,-13.0,-5.0,-3.0,-3.0,0.0
1706277634.9349597,2.0,2.0,13.0,6.0,-1.0,1.0,0.0,-1.0
1706277634.9449282,-3.0,-11.0,-55.0,-5.0,-2.0,0.0,-2.0,-2.0
1706277634.9449282,-3.0,-6.0,1.0,-14.0,-7.0,-6.0,-5.0,-3.0
1706277634.9449282,-3.0,-4.0,-10.0,-4.0,-3.0,-4.0,-4.0,-4.0
1706277634.9449282,-2.0,-3.0,1.0,2.0,1.0,0.0,-2.0,-2.0
1706277634.974926,1.0,5.0,18.0,3.0,0.0,1.0,1.0,-1.0
1706277634.974926,-1.0,0.0,-7.0,7.0,2.0,0.0,-2.0,-3.0
1706277634.974926,-2.0,-2.0,8.0,-15.0,-9.0,-3.0,-1.0,-2.0
1706277634.974926,-1.0,0.0,4.0,5.0,1.0,-2.0,1.0,0.0
1706277634.9952543,-1.0,0.0,10.0,3.0,1.0,3.0,0.0,2.0
1706277634.9952543,-1.0,-3.0,-11.0,-3.0,0.0,-2.0,-1.0,0.0
1706277634.9952543,-3.0,-2.0,19.0,6.0,-4.0,-5.0,-4.0,-2.0
1706277634.9952543,-2.0,-7.0,-39.0,7.0,5.0,1.0,-1.0,0.0
1706277635.0149305,-7.0,-4.0,19.0,0.0,-7.0,-5.0,-4.0,-6.0
1706277635.0149305,-1.0,-8.0,-59.0,-22.0,-3.0,0.0,1.0,1.0
1706277635.0149305,-2.0,-3.0,-12.0,-13.0,-5.0,-3.0,-2.0,-1.0
1706277635.0149305,3.0,8.0,28.0,8.0,1.0,1.0,1.0,1.0
1706277635.0549319,1.0,-4.0,-5.0,8.0,5.0,0.0,1.0,1.0
1706277635.0549319,0.0,-2.0,-24.0,-14.0,-6.0,-5.0,-4.0,-1.0
1706277635.0549319,0.0,3.0,32.0,10.0,-4.0,-1.0,0.0,0.0
1706277635.0549319,-2.0,3.0,30.0,3.0,-4.0,-2.0,-2.0,-3.0
1706277635.0549319,-2.0,-3.0,-22.0,-33.0,-13.0,0.0,2.0,-1.0
1706277635.0549319,-2.0,4.0,31.0,18.0,6.0,0.0,-1.0,-1.0
1706277635.0549319,-2.0,-5.0,-14.0,-2.0,19.0,4.0,0.0,0.0
1706277635.0549319,-2.0,2.0,-24.0,-13.0,-8.0,-4.0,-1.0,-1.0
1706277635.0649295,-1.0,1.0,-2.0,7.0,-5.0,-4.0,-3.0,-3.0
1706277635.0649295,1.0,1.0,31.0,-3.0,8.0,2.0,1.0,3.0
1706277635.0649295,-1.0,-1.0,-18.0,0.0,1.0,0.0,-1.0,-2.0
1706277635.0649295,-3.0,-9.0,3.0,4.0,4.0,-1.0,1.0,-2.0
1706277635.0949292,1.0,0.0,9.0,-9.0,-7.0,-4.0,-1.0,-1.0
1706277635.0949292,-2.0,-4.0,2.0,-9.0,-6.0,-5.0,-2.0,-3.0
1706277635.0949292,-1.0,-3.0,-3.0,8.0,1.0,0.0,1.0,0.0
1706277635.0949292,0.0,-2.0,3.0,2.0,-3.0,-2.0,0.0,1.0
1706277635.1152086,2.0,5.0,9.0,-1.0,1.0,0.0,-1.0,0.0
1706277635.1152086,2.0,0.0,6.0,9.0,-4.0,-1.0,-3.0,-1.0
1706277635.1152086,0.0,-5.0,1.0,-12.0,-6.0,-2.0,-2.0,-4.0
1706277635.1152086,-5.0,6.0,-5.0,-8.0,-2.0,-1.0,-2.0,-3.0
1706277635.1349294,-2.0,-6.0,13.0,12.0,1.0,2.0,-2.0,-1.0
1706277635.1349294,0.0,6.0,9.0,15.0,15.0,1.0,0.0,1.0
1706277635.1349294,2.0,-9.0,-13.0,6.0,0.0,-1.0,2.0,1.0
1706277635.1349294,2.0,-1.0,0.0,9.0,10.0,4.0,-1.0,0.0
1706277635.1549263,-6.0,-7.0,-15.0,-38.0,-11.0,-7.0,-4.0,-5.0
1706277635.1549263,6.0,4.0,23.0,37.0,30.0,9.0,2.0,3.0
1706277635.1549263,-6.0,7.0,3.0,-8.0,-13.0,-5.0,-4.0,-3.0
1706277635.1549263,1.0,0.0,7.0,-27.0,-15.0,-4.0,-1.0,3.0
1706277635.174988,-7.0,-6.0,-5.0,7.0,10.0,1.0,0.0,-2.0
1706277635.174988,-2.0,-1.0,-5.0,-4.0,-8.0,-5.0,-4.0,-1.0
1706277635.174988,5.0,3.0,1.0,-2.0,0.0,0.0,0.0,1.0
1706277635.174988,-10.0,-16.0,-9.0,7.0,2.0,-1.0,-2.0,-3.0
1706277635.1949263,12.0,18.0,10.0,-7.0,-6.0,0.0,0.0,2.0
1706277635.1949263,-18.0,-18.0,-20.0,-17.0,-13.0,-4.0,-2.0,-7.0
1706277635.1949263,0.0,2.0,-3.0,4.0,-1.0,-1.0,-1.0,-1.0
1706277635.1949263,-1.0,4.0,3.0,-1.0,1.0,-1.0,0.0,-3.0
1706277635.2152488,-1.0,-3.0,5.0,14.0,6.0,0.0,0.0,1.0
1706277635.2152488,-4.0,1.0,-4.0,-8.0,-9.0,-2.0,-1.0,-3.0
1706277635.2152488,-4.0,-4.0,2.0,-2.0,-5.0,-2.0,-2.0,-2.0
1706277635.2152488,4.0,3.0,-4.0,12.0,1.0,-1.0,0.0,-1.0
1706277635.2452505,1.0,3.0,7.0,0.0,-1.0,-3.0,-3.0,0.0
1706277635.2452505,2.0,-3.0,2.0,2.0,-1.0,0.0,-2.0,1.0
1706277635.2452505,-8.0,-4.0,-9.0,-8.0,-6.0,-4.0,-2.0,1.0
1706277635.2452505,-1.0,-6.0,-12.0,-9.0,-2.0,0.0,-3.0,-3.0
1706277635.2452505,0.0,-1.0,-4.0,-8.0,0.0,-2.0,-2.0,-1.0
1706277635.2452505,4.0,2.0,7.0,-11.0,-16.0,-5.0,-2.0,1.0
1706277635.2452505,-5.0,-5.0,-3.0,6.0,10.0,2.0,-1.0,-4.0
1706277635.2452505,1.0,2.0,2.0,10.0,2.0,2.0,1.0,0.0
1706277635.2849288,-1.0,2.0,-6.0,15.0,0.0,-1.0,-2.0,1.0
1706277635.2849288,1.0,-1.0,-4.0,-14.0,-7.0,-3.0,-3.0,-1.0
1706277635.2849288,-1.0,7.0,14.0,3.0,0.0,0.0,0.0,-2.0
1706277635.2849288,4.0,10.0,2.0,20.0,5.0,1.0,0.0,1.0
1706277635.2952578,-5.0,-8.0,3.0,-9.0,-4.0,-2.0,-2.0,-4.0
1706277635.2952578,-2.0,-1.0,-4.0,-1.0,-2.0,-1.0,-1.0,-2.0
1706277635.2952578,3.0,-3.0,-8.0,1.0,1.0,-1.0,-1.0,0.0
1706277635.2952578,-5.0,-3.0,2.0,-3.0,-2.0,-1.0,0.0,-1.0
1706277635.3209386,0.0,-6.0,-4.0,7.0,4.0,0.0,2.0,0.0
1706277635.3209386,-6.0,2.0,5.0,0.0,-2.0,-1.0,0.0,-2.0
1706277635.3229365,-4.0,-9.0,-1.0,-2.0,-3.0,-1.0,-2.0,-2.0
1706277635.3229365,3.0,2.0,-3.0,-10.0,-4.0,-2.0,0.0,3.0
1706277635.3353484,2.0,7.0,1.0,5.0,4.0,1.0,-1.0,0.0
1706277635.3353484,2.0,0.0,-4.0,-2.0,0.0,-1.0,-2.0,0.0
1706277635.3353484,-1.0,5.0,3.0,-1.0,0.0,-1.0,0.0,0.0
1706277635.3353484,3.0,1.0,-2.0,4.0,-1.0,-5.0,-1.0,-2.0
1706277635.3511171,-5.0,2.0,-4.0,-11.0,-1.0,1.0,1.0,-1.0
1706277635.3511171,-1.0,-2.0,0.0,15.0,-2.0,-3.0,-1.0,-4.0
1706277635.3511171,4.0,2.0,-1.0,-3.0,-2.0,-1.0,-1.0,-1.0
1706277635.3511171,0.0,-5.0,9.0,-6.0,-2.0,-2.0,-3.0,0.0
1706277635.3710144,-8.0,-3.0,-11.0,-6.0,-3.0,-2.0,-2.0,-6.0
1706277635.3710144,-5.0,-15.0,-11.0,5.0,4.0,1.0,0.0,-2.0
1706277635.3807895,-2.0,-7.0,2.0,7.0,0.0,0.0,-1.0,0.0
1706277635.3807895,-1.0,-3.0,-1.0,6.0,2.0,0.0,-1.0,-3.0
1706277635.3911633,-1.0,12.0,-8.0,-14.0,-5.0,-4.0,-4.0,-2.0
1706277635.3911633,0.0,6.0,10.0,14.0,1.0,0.0,0.0,-2.0
1706277635.3911633,3.0,-2.0,-7.0,-13.0,-3.0,-1.0,-1.0,-2.0
1706277635.3911633,2.0,-6.0,-1.0,8.0,2.0,0.0,-1.0,-1.0
1706277635.410912,-6.0,0.0,-3.0,-5.0,0.0,2.0,2.0,-1.0
1706277635.410912,1.0,5.0,14.0,-21.0,-14.0,-5.0,-1.0,-1.0
1706277635.410912,-3.0,-2.0,-9.0,-13.0,-4.0,-2.0,-2.0,-2.0
1706277635.410912,-10.0,3.0,-3.0,4.0,2.0,1.0,0.0,-4.0
1706277635.430919,7.0,-9.0,-9.0,2.0,6.0,0.0,-1.0,1.0
1706277635.430919,13.0,18.0,15.0,0.0,-4.0,-5.0,-2.0,2.0
1706277635.4407794,-8.0,-5.0,-2.0,0.0,-1.0,0.0,-1.0,0.0
1706277635.4407794,-2.0,-9.0,-5.0,-12.0,-4.0,1.0,1.0,-1.0
1706277635.4511704,0.0,4.0,1.0,12.0,2.0,0.0,-2.0,-1.0
1706277635.4511704,-1.0,-29.0,12.0,16.0,6.0,4.0,2.0,1.0
1706277635.4511704,9.0,36.0,9.0,-13.0,-6.0,-5.0,-5.0,-2.0
1706277635.4511704,-18.0,-12.0,-26.0,5.0,0.0,-1.0,-4.0,-8.0
1706277635.4807816,11.0,15.0,-4.0,-11.0,-5.0,-1.0,1.0,3.0
1706277635.4807816,-6.0,-3.0,-29.0,-7.0,1.0,0.0,-2.0,-3.0
1706277635.4807816,-1.0,-4.0,7.0,2.0,-1.0,-4.0,-1.0,0.0
1706277635.4807816,-5.0,-13.0,-8.0,-13.0,-3.0,0.0,-3.0,1.0
1706277635.4908054,-1.0,-1.0,31.0,24.0,1.0,-1.0,-1.0,-2.0
1706277635.4908054,-2.0,-6.0,-16.0,-13.0,3.0,4.0,0.0,0.0
1706277635.4908054,-9.0,-16.0,22.0,13.0,2.0,2.0,1.0,2.0
1706277635.4908054,-2.0,0.0,-1.0,-7.0,3.0,0.0,-2.0,-2.0
1706277635.5107903,3.0,6.0,-1.0,18.0,3.0,1.0,0.0,-2.0
1706277635.5107903,-12.0,-4.0,3.0,1.0,1.0,1.0,2.0,0.0
1706277635.5107903,4.0,-10.0,-21.0,-26.0,-2.0,0.0,0.0,0.0
1706277635.5107903,5.0,5.0,7.0,-11.0,-15.0,-6.0,-1.0,0.0
1706277635.5507877,-4.0,-15.0,-1.0,8.0,7.0,1.0,-1.0,-1.0
1706277635.5507877,4.0,20.0,15.0,-9.0,-8.0,-4.0,-4.0,-3.0
1706277635.5607798,-2.0,-6.0,-6.0,15.0,3.0,1.0,-2.0,-4.0
1706277635.5607798,10.0,25.0,0.0,-9.0,-1.0,1.0,1.0,2.0
1706277635.5607798,-3.0,0.0,-1.0,-18.0,-11.0,-5.0,-6.0,-3.0
1706277635.5607798,-1.0,-14.0,-20.0,1.0,0.0,-3.0,0.0,0.0
1706277635.5607798,-9.0,-9.0,-10.0,18.0,3.0,-1.0,-2.0,-2.0
1706277635.5607798,4.0,2.0,9.0,0.0,3.0,2.0,0.0,0.0
1706277635.5710342,-4.0,-12.0,0.0,4.0,-3.0,0.0,0.0,-1.0
1706277635.5710342,-7.0,-17.0,-10.0,-6.0,-4.0,-2.0,-2.0,-1.0
1706277635.5710342,5.0,32.0,20.0,8.0,-3.0,-2.0,-1.0,0.0
1706277635.5710342,5.0,0.0,-2.0,-11.0,-7.0,-1.0,1.0,4.0
1706277635.6007824,8.0,2.0,-48.0,5.0,19.0,7.0,4.0,7.0
1706277635.6007824,-10.0,-43.0,6.0,3.0,0.0,-2.0,-3.0,-3.0
1706277635.6007824,5.0,9.0,6.0,-6.0,0.0,1.0,0.0,1.0
1706277635.6007824,-5.0,-10.0,-6.0,2.0,1.0,0.0,-1.0,-2.0
1706277635.6108127,-11.0,-12.0,15.0,0.0,-4.0,-2.0,-1.0,-4.0
1706277635.6108127,6.0,21.0,2.0,-15.0,-12.0,-4.0,-1.0,-1.0
1706277635.6108127,-4.0,-11.0,-18.0,-8.0,-3.0,-2.0,2.0,0.0
1706277635.6108127,-3.0,-4.0,7.0,23.0,6.0,-2.0,-2.0,-3.0
1706277635.631214,-3.0,1.0,12.0,-25.0,-10.0,-6.0,-4.0,-3.0
1706277635.631214,1.0,12.0,-8.0,-1.0,11.0,5.0,0.0,-1.0
1706277635.631214,1.0,-5.0,0.0,-8.0,-9.0,-4.0,-3.0,-3.0
1706277635.631214,6.0,5.0,-6.0,6.0,1.0,0.0,-1.0,0.0
1706277635.650782,0.0,3.0,6.0,-11.0,-5.0,-1.0,-1.0,-1.0
1706277635.650782,-3.0,7.0,-8.0,-2.0,6.0,3.0,3.0,0.0
1706277635.650782,-1.0,-6.0,8.0,9.0,1.0,-1.0,-1.0,-2.0
1706277635.650782,-8.0,-3.0,5.0,-21.0,-8.0,-3.0,-1.0,-4.0
1706277635.6710575,1.0,-3.0,-1.0,16.0,3.0,0.0,1.0,2.0
1706277635.6710575,-1.0,7.0,-2.0,-7.0,-6.0,-3.0,-4.0,-3.0
1706277635.6710575,0.0,-2.0,-4.0,1.0,4.0,3.0,-1.0,1.0
1706277635.6710575,0.0,-4.0,-9.0,9.0,-2.0,-2.0,-1.0,-1.0
1706277635.6911063,-1.0,2.0,20.0,1.0,-5.0,-3.0,-2.0,-1.0
1706277635.6911063,4.0,2.0,7.0,-2.0,-3.0,-1.0,-1.0,1.0
1706277635.6911063,0.0,1.0,-6.0,1.0,2.0,1.0,0.0,-1.0
1706277635.6911063,6.0,-8.0,2.0,3.0,4.0,4.0,3.0,5.0
1706277635.7207844,-19.0,-16.0,-5.0,-18.0,-8.0,-2.0,-3.0,-4.0
1706277635.7207844,3.0,-1.0,-7.0,20.0,8.0,-2.0,-1.0,-2.0
1706277635.7207844,3.0,-10.0,-8.0,-5.0,-7.0,-3.0,-2.0,-2.0
1706277635.7207844,1.0,-5.0,-5.0,-9.0,0.0,0.0,-3.0,0.0
1706277635.7308152,-11.0,-14.0,-5.0,7.0,2.0,-1.0,0.0,-2.0
1706277635.7308152,-8.0,5.0,5.0,2.0,6.0,1.0,0.0,0.0
1706277635.7308152,-5.0,0.0,0.0,2.0,-1.0,-3.0,-1.0,-2.0
1706277635.7308152,1.0,10.0,4.0,-18.0,-12.0,-6.0,-1.0,0.0
1706277635.7512097,5.0,4.0,-5.0,7.0,5.0,2.0,7.0,0.0
1706277635.7512097,9.0,7.0,-10.0,-8.0,-12.0,-5.0,-19.0,-7.0
1706277635.7512097,2.0,0.0,-3.0,41.0,31.0,14.0,15.0,8.0
1706277635.7512097,0.0,8.0,18.0,-38.0,-12.0,-5.0,-1.0,-2.0
1706277635.7707796,4.0,5.0,-4.0,-11.0,-8.0,-6.0,-3.0,-1.0
1706277635.7707796,0.0,6.0,10.0,9.0,-10.0,-3.0,3.0,-1.0
1706277635.7707796,0.0,-5.0,-11.0,4.0,-4.0,0.0,-2.0,-1.0
1706277635.7707796,-5.0,-9.0,-29.0,28.0,12.0,1.0,-1.0,-3.0
1706277635.7910502,0.0,-5.0,-11.0,-1.0,4.0,3.0,3.0,2.0
1706277635.7910502,7.0,10.0,37.0,25.0,0.0,0.0,3.0,2.0
1706277635.7910502,-2.0,1.0,8.0,33.0,1.0,2.0,-5.0,-2.0
1706277635.7910502,-4.0,-1.0,8.0,-64.0,-15.0,-6.0,-5.0,-3.0
1706277635.8107846,4.0,3.0,-1.0,15.0,3.0,4.0,-2.0,-2.0
1706277635.8107846,-2.0,-12.0,-30.0,59.0,17.0,4.0,5.0,1.0
1706277635.8207839,-6.0,5.0,28.0,-108.0,-38.0,-14.0,-7.0,-7.0
1706277635.8207839,-1.0,3.0,0.0,44.0,2.0,-1.0,1.0,0.0
1706277635.8307805,3.0,0.0,3.0,-1.0,-4.0,-3.0,-2.0,0.0
1706277635.8307805,3.0,10.0,9.0,-28.0,-7.0,-1.0,-1.0,-1.0
1706277635.8307805,-7.0,-12.0,-17.0,16.0,10.0,1.0,1.0,-3.0
1706277635.8307805,-7.0,0.0,-3.0,0.0,3.0,0.0,3.0,1.0
1706277635.852471,2.0,-2.0,0.0,-41.0,-14.0,-8.0,-7.0,-2.0
1706277635.852471,-4.0,-11.0,-11.0,-6.0,2.0,0.0,5.0,0.0
1706277635.8534825,2.0,4.0,-15.0,16.0,5.0,-2.0,-6.0,-2.0
1706277635.8534825,-6.0,-7.0,4.0,-31.0,-7.0,-1.0,-3.0,-6.0
1706277635.8740873,1.0,5.0,6.0,24.0,3.0,2.0,-1.0,1.0
1706277635.8740873,-9.0,-16.0,-6.0,5.0,1.0,0.0,-1.0,-1.0
1706277635.8740873,5.0,15.0,3.0,-41.0,-12.0,-5.0,-3.0,-1.0
1706277635.8740873,1.0,0.0,11.0,7.0,-1.0,1.0,-2.0,-1.0
1706277635.8944733,-2.0,-2.0,-9.0,-9.0,2.0,-1.0,-1.0,-3.0
1706277635.8944733,3.0,8.0,28.0,-18.0,-5.0,-2.0,-2.0,0.0
1706277635.8944733,-5.0,-12.0,-10.0,11.0,-5.0,-5.0,-4.0,-4.0
1706277635.8944733,1.0,-3.0,-4.0,24.0,7.0,2.0,2.0,0.0
1706277635.904479,-1.0,-11.0,-11.0,-12.0,-1.0,1.0,1.0,2.0
1706277635.904479,0.0,12.0,10.0,1.0,0.0,1.0,1.0,-1.0
1706277635.904479,2.0,-9.0,1.0,31.0,13.0,7.0,5.0,5.0
1706277635.904479,0.0,-4.0,-30.0,7.0,4.0,-2.0,-4.0,-3.0
1706277635.9343884,4.0,6.0,29.0,-11.0,-9.0,-3.0,-1.0,0.0
1706277635.9343884,-4.0,3.0,22.0,-44.0,-23.0,-10.0,-7.0,-4.0
1706277635.9343884,0.0,1.0,-4.0,9.0,4.0,1.0,-1.0,-1.0
1706277635.9343884,-1.0,-2.0,-17.0,6.0,2.0,-1.0,-2.0,-1.0
1706277635.9546497,-2.0,-2.0,-11.0,-1.0,3.0,0.0,-1.0,-2.0
1706277635.9546497,-3.0,-7.0,-29.0,-22.0,1.0,-1.0,1.0,-1.0
1706277635.9546497,-2.0,-3.0,-11.0,8.0,-1.0,-2.0,-1.0,-3.0
1706277635.9546497,0.0,3.0,31.0,-11.0,3.0,2.0,-1.0,0.0
1706277635.9743917,-8.0,-15.0,-67.0,-22.0,-5.0,-4.0,0.0,-3.0
1706277635.9743917,-1.0,-2.0,9.0,8.0,-7.0,-6.0,-3.0,0.0
1706277635.9743917,0.0,18.0,48.0,-85.0,-35.0,-10.0,-6.0,-5.0
1706277635.9743917,-5.0,-11.0,-37.0,14.0,9.0,3.0,-1.0,1.0
1706277636.0043879,4.0,6.0,17.0,20.0,3.0,0.0,0.0,1.0
1706277636.0043879,3.0,-3.0,-12.0,-1.0,8.0,4.0,11.0,7.0
1706277636.0043879,-4.0,-13.0,-24.0,14.0,5.0,1.0,-1.0,-3.0
1706277636.0043879,0.0,6.0,-2.0,23.0,9.0,1.0,1.0,0.0
1706277636.0144362,-1.0,3.0,32.0,6.0,-3.0,0.0,-2.0,-3.0
1706277636.0144362,-4.0,-3.0,-12.0,12.0,7.0,0.0,-2.0,-1.0
1706277636.0144362,2.0,-2.0,9.0,14.0,6.0,0.0,0.0,-1.0
1706277636.0144362,3.0,1.0,-10.0,-7.0,-3.0,2.0,0.0,1.0
1706277636.0443883,7.0,1.0,5.0,28.0,3.0,-2.0,-3.0,-1.0
1706277636.0443883,-9.0,-8.0,-6.0,-5.0,-3.0,-1.0,-4.0,-5.0
1706277636.0443883,-3.0,1.0,-13.0,1.0,-1.0,-5.0,1.0,1.0
1706277636.0443883,0.0,2.0,4.0,1.0,0.0,-2.0,0.0,-1.0
1706277636.054419,0.0,1.0,9.0,4.0,0.0,0.0,-1.0,0.0
1706277636.054419,4.0,2.0,-9.0,0.0,3.0,2.0,-1.0,0.0
1706277636.054419,-6.0,-9.0,-8.0,-15.0,-1.0,-1.0,-4.0,-4.0
1706277636.054419,0.0,1.0,16.0,-10.0,-11.0,-4.0,-2.0,-2.0
1706277636.0746498,0.0,-3.0,-7.0,4.0,-2.0,-1.0,-1.0,0.0
1706277636.0746498,0.0,0.0,17.0,19.0,6.0,1.0,0.0,0.0
1706277636.0746498,-1.0,-1.0,-13.0,-13.0,-23.0,-8.0,-2.0,-1.0
1706277636.0746498,0.0,-1.0,13.0,43.0,32.0,12.0,2.0,-1.0
1706277636.1043947,-4.0,0.0,9.0,10.0,5.0,-4.0,-3.0,-4.0
1706277636.1043947,-1.0,-3.0,-30.0,1.0,3.0,1.0,-2.0,-1.0
1706277636.114387,1.0,2.0,9.0,0.0,0.0,-1.0,-1.0,2.0
1706277636.114387,-3.0,-5.0,-5.0,-9.0,-17.0,-9.0,-4.0,-1.0
1706277636.114387,-4.0,0.0,-14.0,-14.0,-9.0,-2.0,-2.0,-3.0
1706277636.114387,0.0,0.0,-6.0,-5.0,3.0,0.0,2.0,0.0
1706277636.114387,-1.0,0.0,2.0,20.0,6.0,1.0,-1.0,-1.0
1706277636.114387,-1.0,2.0,11.0,-9.0,-8.0,-4.0,-4.0,-4.0
1706277636.134398,-2.0,1.0,0.0,27.0,21.0,8.0,6.0,2.0
1706277636.134398,-1.0,-1.0,1.0,-24.0,-15.0,-6.0,0.0,0.0
1706277636.1445854,-1.0,-5.0,-8.0,11.0,6.0,3.0,-2.0,-1.0
1706277636.1445854,0.0,0.0,-6.0,-15.0,-6.0,-2.0,-2.0,0.0
1706277636.1643898,0.0,2.0,7.0,-9.0,-7.0,-5.0,-4.0,-2.0
1706277636.1643898,-4.0,0.0,-14.0,11.0,9.0,0.0,0.0,-5.0
1706277636.1643898,1.0,3.0,7.0,11.0,7.0,1.0,-1.0,-2.0
1706277636.1643898,-3.0,-4.0,-2.0,3.0,1.0,0.0,-2.0,-1.0
1706277636.1745706,-3.0,-5.0,-3.0,-1.0,-2.0,-3.0,-2.0,-2.0
1706277636.1745706,-2.0,-3.0,-3.0,-13.0,-14.0,-5.0,-4.0,-3.0
1706277636.1745706,-1.0,4.0,-1.0,4.0,9.0,3.0,2.0,1.0
1706277636.1745706,-1.0,3.0,0.0,-10.0,-9.0,-8.0,-2.0,-3.0
1706277636.1946907,-3.0,-7.0,-6.0,-7.0,-5.0,-3.0,-2.0,-1.0
1706277636.1946907,1.0,-1.0,1.0,-10.0,-2.0,3.0,0.0,1.0
1706277636.1946907,2.0,0.0,8.0,7.0,7.0,0.0,1.0,0.0
1706277636.1946907,-1.0,-1.0,-7.0,-1.0,-1.0,-1.0,0.0,-2.0
1706277636.2045376,-2.0,2.0,4.0,-25.0,-12.0,-5.0,-3.0,-3.0
1706277636.2045376,-1.0,-1.0,-5.0,-7.0,6.0,-2.0,-4.0,-2.0
1706277636.2145898,-1.0,-1.0,9.0,-1.0,-13.0,2.0,1.0,0.0
1706277636.2145898,-1.0,-2.0,-4.0,-24.0,-6.0,0.0,0.0,1.0
1706277636.2443879,0.0,2.0,3.0,12.0,4.0,2.0,0.0,1.0
1706277636.2443879,-3.0,-2.0,3.0,-10.0,-6.0,-5.0,-5.0,-2.0
1706277636.2443879,-1.0,-4.0,-2.0,-4.0,1.0,-2.0,-3.0,-2.0
1706277636.2443879,-3.0,-10.0,-10.0,0.0,-3.0,-1.0,-1.0,-3.0
1706277636.2643962,-2.0,2.0,-8.0,-3.0,-2.0,-3.0,-1.0,-3.0
1706277636.2643962,-1.0,8.0,7.0,3.0,0.0,0.0,-3.0,-4.0
1706277636.2643962,-2.0,-5.0,-13.0,0.0,4.0,-2.0,2.0,0.0
1706277636.2643962,2.0,9.0,10.0,8.0,-1.0,-1.0,-3.0,0.0
1706277636.2643962,-1.0,-11.0,0.0,3.0,3.0,1.0,0.0,0.0
1706277636.2643962,0.0,-5.0,5.0,11.0,2.0,3.0,-3.0,0.0
1706277636.2744133,-2.0,2.0,-4.0,-2.0,2.0,3.0,0.0,0.0
1706277636.2744133,1.0,5.0,3.0,4.0,-3.0,-5.0,-2.0,0.0
1706277636.294723,-3.0,-4.0,-3.0,-5.0,-3.0,-2.0,-1.0,-2.0
1706277636.294723,-4.0,-15.0,-2.0,0.0,0.0,-2.0,0.0,0.0
1706277636.294723,2.0,6.0,1.0,-10.0,-7.0,-3.0,-5.0,-1.0
1706277636.294723,-5.0,-7.0,0.0,6.0,2.0,-1.0,0.0,-2.0
1706277636.3146582,1.0,7.0,-4.0,2.0,8.0,5.0,2.0,5.0
1706277636.3146582,-4.0,1.0,3.0,3.0,-3.0,0.0,0.0,-2.0
1706277636.3243873,-1.0,3.0,3.0,-1.0,7.0,0.0,-1.0,-1.0
1706277636.3243873,0.0,-8.0,-4.0,-14.0,-11.0,-5.0,-1.0,-1.0
1706277636.3345966,-3.0,-5.0,9.0,4.0,-5.0,-4.0,-3.0,-3.0
1706277636.3345966,2.0,1.0,-8.0,6.0,3.0,-2.0,-1.0,-1.0
1706277636.3345966,2.0,-1.0,-1.0,-14.0,-11.0,-3.0,0.0,0.0
1706277636.3345966,-4.0,3.0,1.0,10.0,1.0,1.0,-2.0,-1.0
1706277636.3546858,0.0,-1.0,-7.0,-19.0,-11.0,-6.0,-5.0,-3.0
1706277636.3546858,-3.0,-9.0,-4.0,4.0,1.0,-1.0,-4.0,0.0
1706277636.3546858,-3.0,-3.0,-6.0,5.0,3.0,-2.0,0.0,-1.0
1706277636.3546858,1.0,4.0,3.0,-4.0,-4.0,-1.0,1.0,1.0
1706277636.3863432,0.0,0.0,-5.0,19.0,13.0,6.0,1.0,1.0
1706277636.3863432,1.0,10.0,9.0,-5.0,-8.0,-2.0,1.0,0.0
1706277636.3863432,-4.0,-3.0,-6.0,-1.0,-3.0,-3.0,-3.0,-4.0
1706277636.3863432,-1.0,-2.0,3.0,2.0,2.0,1.0,-3.0,-2.0
1706277636.3923686,0.0,3.0,1.0,-18.0,-4.0,0.0,0.0,0.0
1706277636.3923686,2.0,3.0,5.0,-2.0,-5.0,1.0,-4.0,0.0
1706277636.3995664,-3.0,-9.0,-2.0,4.0,1.0,-3.0,-2.0,-3.0
1706277636.400594,-1.0,2.0,-2.0,-4.0,-3.0,-1.0,0.0,0.0
1706277636.4162111,-2.0,-7.0,-1.0,7.0,0.0,-2.0,-2.0,-2.0
1706277636.4162111,2.0,7.0,-1.0,-3.0,-2.0,-1.0,-1.0,0.0
1706277636.4162111,-4.0,-11.0,-2.0,-6.0,-4.0,1.0,-1.0,-2.0
1706277636.4162111,-2.0,-5.0,-4.0,-7.0,-5.0,-3.0,-3.0,-1.0
1706277636.446214,-2.0,1.0,-2.0,5.0,5.0,0.0,0.0,-2.0
1706277636.446214,-2.0,-3.0,4.0,-2.0,2.0,1.0,0.0,-2.0
1706277636.456207,-1.0,-1.0,-10.0,1.0,2.0,2.0,1.0,2.0
1706277636.456207,-1.0,-1.0,4.0,-2.0,3.0,-1.0,-1.0,0.0
1706277636.466204,0.0,-1.0,2.0,14.0,-2.0,0.0,1.0,1.0
1706277636.466204,0.0,-5.0,-8.0,-10.0,0.0,-2.0,2.0,0.0
1706277636.466204,0.0,7.0,5.0,2.0,-2.0,0.0,-3.0,-2.0
1706277636.466204,1.0,-2.0,-5.0,-4.0,-2.0,0.0,-1.0,1.0
1706277636.4762125,-3.0,5.0,9.0,-6.0,1.0,-2.0,-1.0,-2.0
1706277636.4762125,0.0,-1.0,-4.0,1.0,0.0,-2.0,-3.0,-2.0
1706277636.4762125,1.0,-2.0,-3.0,0.0,-2.0,-4.0,-3.0,-2.0
1706277636.4762125,-5.0,-6.0,-4.0,5.0,2.0,0.0,-1.0,-2.0
1706277636.4962056,2.0,8.0,5.0,3.0,-4.0,-1.0,-1.0,0.0
1706277636.4962056,-1.0,0.0,-6.0,-6.0,-1.0,0.0,1.0,0.0
1706277636.4962056,-4.0,-15.0,-5.0,-5.0,0.0,-3.0,-3.0,-1.0
1706277636.4962056,3.0,12.0,5.0,10.0,2.0,0.0,-2.0,-2.0
1706277636.5063527,3.0,2.0,-5.0,-11.0,-5.0,-2.0,0.0,0.0
1706277636.5063527,-4.0,-4.0,-4.0,2.0,0.0,-1.0,-1.0,-3.0
1706277636.5163996,2.0,3.0,-1.0,3.0,-3.0,-1.0,-1.0,-1.0
1706277636.5163996,-2.0,-6.0,-10.0,-11.0,-2.0,-1.0,-2.0,0.0
1706277636.5265567,-11.0,-7.0,-9.0,3.0,-2.0,0.0,-2.0,-3.0
1706277636.5265567,0.0,4.0,6.0,-3.0,-7.0,-4.0,-2.0,1.0
1706277636.5362144,1.0,2.0,10.0,4.0,-2.0,1.0,2.0,0.0
1706277636.5362144,-2.0,-11.0,-2.0,5.0,3.0,1.0,0.0,-1.0
1706277636.5565207,-1.0,-3.0,-1.0,-7.0,-2.0,-2.0,-2.0,-2.0
1706277636.5565207,0.0,-5.0,-9.0,-17.0,-5.0,-4.0,-4.0,-2.0
1706277636.5565207,-2.0,1.0,9.0,11.0,6.0,1.0,0.0,0.0
1706277636.5565207,-2.0,1.0,0.0,-3.0,-7.0,-1.0,-1.0,-1.0
1706277636.56651,-3.0,-3.0,-2.0,-4.0,0.0,-2.0,-2.0,-3.0
1706277636.56651,0.0,-1.0,0.0,5.0,0.0,0.0,0.0,-1.0
1706277636.5765421,3.0,1.0,-5.0,0.0,0.0,1.0,-1.0,2.0
1706277636.5765421,2.0,5.0,12.0,10.0,9.0,2.0,0.0,-1.0
1706277636.5865471,-5.0,-8.0,-8.0,-4.0,-4.0,-2.0,-2.0,0.0
1706277636.5865471,0.0,8.0,5.0,3.0,-1.0,0.0,0.0,-1.0
1706277636.5962083,-2.0,2.0,-2.0,-8.0,-2.0,-2.0,-3.0,-3.0
1706277636.5962083,-4.0,-5.0,-6.0,-2.0,-1.0,-2.0,-1.0,-1.0
1706277636.616255,1.0,-1.0,0.0,-11.0,-3.0,0.0,1.0,-1.0
1706277636.616255,-5.0,-8.0,-4.0,15.0,7.0,-1.0,-2.0,-2.0
1706277636.616255,-4.0,-5.0,1.0,1.0,-1.0,0.0,1.0,1.0
1706277636.616255,5.0,3.0,2.0,0.0,-1.0,0.0,-2.0,-2.0
1706277636.6362083,-3.0,4.0,-3.0,0.0,0.0,-2.0,-1.0,-1.0
1706277636.6362083,-3.0,-9.0,-3.0,-7.0,-5.0,-1.0,1.0,0.0
1706277636.6362083,-4.0,0.0,-1.0,7.0,2.0,0.0,-3.0,-2.0
1706277636.6362083,2.0,1.0,-3.0,-6.0,-5.0,-1.0,0.0,1.0
1706277636.6662045,2.0,0.0,1.0,8.0,9.0,1.0,-2.0,-1.0
1706277636.6662045,1.0,5.0,7.0,-3.0,-4.0,-3.0,0.0,-1.0
1706277636.6662045,-2.0,-1.0,-6.0,-5.0,-3.0,-4.0,-3.0,-2.0
1706277636.6662045,-2.0,1.0,0.0,-13.0,-5.0,-3.0,-3.0,-4.0
1706277636.6765704,-2.0,-4.0,-3.0,0.0,-4.0,-1.0,-2.0,-1.0
1706277636.6765704,-1.0,-6.0,1.0,9.0,5.0,-1.0,1.0,-2.0
1706277636.6765704,1.0,3.0,-5.0,-10.0,-3.0,-3.0,0.0,1.0
1706277636.6765704,-4.0,-3.0,-2.0,2.0,0.0,-2.0,-1.0,-1.0
1706277636.6966121,4.0,3.0,0.0,0.0,3.0,2.0,0.0,1.0
1706277636.6966121,-2.0,-4.0,-6.0,-7.0,-2.0,1.0,-2.0,0.0
1706277636.6966121,-1.0,0.0,7.0,5.0,0.0,-1.0,-2.0,-3.0
1706277636.6966121,-6.0,-4.0,-6.0,-4.0,-5.0,-4.0,-2.0,-2.0
1706277636.7162054,0.0,-3.0,2.0,-3.0,-6.0,-1.0,-1.0,-1.0
1706277636.7162054,0.0,0.0,-4.0,-4.0,-4.0,-3.0,-1.0,-1.0
1706277636.7162054,1.0,-2.0,-6.0,-1.0,-2.0,0.0,2.0,1.0
1706277636.7162054,2.0,3.0,3.0,1.0,2.0,0.0,0.0,0.0
1706277636.7365835,-2.0,-8.0,-4.0,5.0,3.0,-1.0,-1.0,-1.0
1706277636.7365835,7.0,10.0,1.0,2.0,0.0,-1.0,-3.0,-1.0
1706277636.7365835,-12.0,2.0,-1.0,-10.0,0.0,0.0,1.0,-4.0
1706277636.7365835,1.0,0.0,5.0,11.0,2.0,-1.0,2.0,0.0
1706277636.7565622,0.0,1.0,2.0,-1.0,-2.0,-1.0,-1.0,-1.0
1706277636.7565622,-2.0,-6.0,-8.0,-7.0,-4.0,-2.0,-1.0,-2.0
1706277636.7565622,4.0,2.0,0.0,-2.0,2.0,-1.0,0.0,1.0
1706277636.7565622,-2.0,-1.0,-3.0,-4.0,-4.0,0.0,0.0,1.0
1706277636.7762198,-1.0,3.0,2.0,1.0,1.0,-1.0,-1.0,0.0
1706277636.7762198,-1.0,0.0,-1.0,-4.0,-2.0,-1.0,0.0,-2.0
1706277636.7762198,0.0,-3.0,2.0,14.0,5.0,2.0,-2.0,-1.0
1706277636.7762198,-3.0,1.0,0.0,-1.0,1.0,0.0,0.0,-3.0
1706277636.7965035,2.0,-3.0,-2.0,-6.0,-9.0,-5.0,-3.0,-2.0
1706277636.7965035,0.0,0.0,-3.0,0.0,4.0,2.0,1.0,2.0
1706277636.7965035,0.0,3.0,-1.0,-2.0,-2.0,0.0,-1.0,-1.0
1706277636.7965035,-2.0,2.0,-1.0,-3.0,-2.0,-3.0,0.0,1.0
1706277636.8165035,-4.0,-4.0,-3.0,-7.0,-6.0,-3.0,0.0,-1.0
1706277636.8165035,3.0,1.0,0.0,-7.0,-6.0,-3.0,-2.0,0.0
1706277636.8165035,-7.0,-5.0,-1.0,3.0,5.0,0.0,-1.0,-2.0
1706277636.8165035,1.0,0.0,-3.0,0.0,-2.0,0.0,-3.0,-1.0
1706277636.8462057,-4.0,-1.0,4.0,8.0,1.0,1.0,0.0,0.0
1706277636.8462057,-1.0,0.0,-2.0,-8.0,-4.0,-2.0,-1.0,-1.0
1706277636.8462057,1.0,-7.0,-2.0,-2.0,-4.0,-2.0,0.0,1.0
1706277636.8462057,2.0,1.0,2.0,3.0,3.0,0.0,0.0,-2.0
1706277636.856241,0.0,1.0,-5.0,-4.0,-2.0,-2.0,-2.0,-2.0
1706277636.856241,-1.0,1.0,0.0,7.0,-1.0,0.0,-1.0,0.0
1706277636.856241,1.0,-2.0,1.0,-2.0,0.0,-1.0,-2.0,0.0
1706277636.856241,-4.0,-5.0,-6.0,-8.0,-6.0,-2.0,-1.0,-2.0
1706277636.8862047,5.0,9.0,5.0,2.0,1.0,-1.0,-2.0,-1.0
1706277636.8862047,-4.0,-2.0,5.0,5.0,5.0,0.0,0.0,-1.0
1706277636.8862047,3.0,3.0,-4.0,-6.0,-5.0,-1.0,0.0,-1.0
1706277636.8862047,-7.0,-6.0,1.0,4.0,2.0,1.0,0.0,0.0
1706277636.8962135,-3.0,-5.0,-5.0,-8.0,-6.0,-6.0,-2.0,-3.0
1706277636.8962135,-2.0,-1.0,-2.0,4.0,6.0,0.0,-1.0,-2.0
1706277636.8962135,6.0,4.0,1.0,-1.0,-5.0,-1.0,-2.0,-1.0
1706277636.8962135,-4.0,-4.0,-3.0,-2.0,-3.0,0.0,-1.0,0.0
1706277636.9180162,-1.0,0.0,-1.0,2.0,-7.0,-2.0,-3.0,-4.0
1706277636.9180162,-1.0,4.0,0.0,-1.0,-3.0,1.0,-1.0,0.0
1706277636.9180162,-3.0,-10.0,-1.0,-3.0,1.0,-1.0,-1.0,-2.0
1706277636.9180162,5.0,3.0,2.0,9.0,-1.0,-3.0,0.0,0.0
1706277636.9406226,-2.0,-2.0,0.0,4.0,3.0,0.0,1.0,-1.0
1706277636.9406226,-2.0,1.0,0.0,-2.0,-4.0,0.0,-2.0,-3.0
1706277636.9406226,1.0,2.0,-2.0,-5.0,-3.0,-1.0,0.0,1.0
1706277636.9406226,-3.0,-3.0,-1.0,-3.0,1.0,-2.0,-3.0,-1.0
1706277636.9506516,0.0,-3.0,-3.0,-6.0,-3.0,0.0,0.0,-1.0
1706277636.9506516,-3.0,-1.0,1.0,-4.0,-4.0,-3.0,-2.0,-4.0
1706277636.9506516,-4.0,-1.0,1.0,11.0,6.0,1.0,0.0,0.0
1706277636.9506516,1.0,-3.0,-7.0,-6.0,-3.0,-3.0,-1.0,-2.0
1706277636.970915,-1.0,3.0,1.0,4.0,2.0,-1.0,0.0,-2.0
1706277636.970915,-2.0,1.0,2.0,-4.0,1.0,0.0,-1.0,0.0
1706277636.970915,-3.0,-1.0,-2.0,-5.0,-4.0,-2.0,-2.0,-1.0
1706277636.970915,0.0,-5.0,-4.0,-3.0,-2.0,-2.0,-3.0,-3.0
1706277637.0209928,-3.0,-5.0,-4.0,-4.0,-3.0,0.0,-1.0,-2.0
1706277637.0209928,-3.0,-6.0,-2.0,3.0,1.0,-1.0,0.0,0.0
1706277637.0209928,1.0,5.0,1.0,-1.0,-4.0,-1.0,0.0,-1.0
1706277637.0209928,0.0,2.0,1.0,0.0,-5.0,-1.0,-1.0,-1.0
1706277637.0209928,-1.0,0.0,-1.0,-2.0,2.0,0.0,0.0,0.0
1706277637.0209928,2.0,-6.0,0.0,4.0,-1.0,-1.0,-1.0,-2.0
1706277637.0209928,2.0,0.0,-2.0,-9.0,-1.0,1.0,-1.0,-1.0
1706277637.0209928,-1.0,2.0,2.0,10.0,3.0,0.0,-1.0,-1.0
1706277637.0313275,-3.0,-8.0,-3.0,0.0,-2.0,-3.0,-1.0,-1.0
1706277637.0313275,2.0,8.0,3.0,4.0,4.0,0.0,0.0,-1.0
1706277637.0313275,-3.0,-8.0,-8.0,-9.0,-6.0,-4.0,-4.0,-4.0
1706277637.0313275,-1.0,-3.0,-1.0,-7.0,-4.0,1.0,1.0,0.0
1706277637.0713456,2.0,6.0,5.0,-1.0,4.0,0.0,2.0,2.0
1706277637.0713456,1.0,-7.0,-3.0,7.0,0.0,-4.0,-4.0,-1.0
1706277637.0713456,-3.0,-4.0,-2.0,-10.0,-8.0,-3.0,-2.0,-1.0
1706277637.0713456,-2.0,11.0,1.0,-4.0,-3.0,-1.0,0.0,-4.0
1706277637.0713456,0.0,-4.0,-1.0,-2.0,1.0,-1.0,-1.0,0.0
1706277637.0713456,-4.0,-1.0,-1.0,-2.0,-4.0,-1.0,-2.0,-1.0
1706277637.0713456,1.0,-3.0,1.0,1.0,-1.0,-3.0,-1.0,1.0
1706277637.0713456,-2.0,-6.0,-7.0,-3.0,-1.0,-2.0,-2.0,0.0
1706277637.0913515,-2.0,0.0,0.0,-1.0,-1.0,1.0,-2.0,-1.0
1706277637.0913515,3.0,1.0,-2.0,-3.0,-2.0,-1.0,1.0,0.0
1706277637.1013534,-5.0,-1.0,-3.0,2.0,1.0,-1.0,-1.0,-4.0
1706277637.1013534,-1.0,-3.0,0.0,-1.0,0.0,-1.0,-2.0,2.0
1706277637.1213481,-2.0,-3.0,-6.0,-4.0,0.0,-2.0,-2.0,-1.0
1706277637.1213481,-2.0,-4.0,-1.0,-1.0,2.0,-1.0,-1.0,-1.0
1706277637.1213481,-1.0,-1.0,-3.0,1.0,1.0,1.0,1.0,2.0
1706277637.1213481,2.0,1.0,-2.0,-10.0,-6.0,-2.0,-3.0,-3.0
1706277637.1314976,1.0,0.0,1.0,17.0,5.0,1.0,-2.0,-1.0
1706277637.1314976,-1.0,-5.0,-5.0,-9.0,-6.0,0.0,2.0,1.0
1706277637.1314976,-3.0,8.0,8.0,10.0,4.0,0.0,0.0,0.0
1706277637.1314976,-2.0,-3.0,1.0,-2.0,5.0,0.0,-2.0,-2.0
1706277637.151398,1.0,6.0,1.0,-4.0,-2.0,-1.0,-2.0,1.0
1706277637.151398,-2.0,-7.0,-6.0,1.0,-3.0,-3.0,-3.0,-3.0
1706277637.151398,0.0,-2.0,0.0,-4.0,-3.0,-1.0,-2.0,-1.0
1706277637.151398,-2.0,-3.0,-1.0,1.0,1.0,-2.0,-1.0,-2.0
1706277637.1713471,-2.0,-4.0,-5.0,-3.0,-4.0,-1.0,0.0,-2.0
1706277637.1713471,-2.0,0.0,2.0,-3.0,-1.0,-1.0,-1.0,1.0
1706277637.181349,-1.0,1.0,-1.0,-1.0,-1.0,-2.0,0.0,-2.0
1706277637.181349,1.0,0.0,0.0,1.0,-1.0,-2.0,-2.0,-2.0
1706277637.1916518,-5.0,-2.0,-1.0,-10.0,-7.0,-2.0,-4.0,-3.0
1706277637.1916518,1.0,1.0,2.0,6.0,14.0,7.0,2.0,1.0
1706277637.1916518,-2.0,-5.0,-1.0,8.0,3.0,1.0,-1.0,0.0
1706277637.1916518,1.0,-2.0,1.0,3.0,2.0,1.0,0.0,0.0
1706277637.221345,0.0,-3.0,-1.0,-3.0,-2.0,-2.0,3.0,0.0
1706277637.221345,-4.0,-3.0,-3.0,-8.0,-9.0,-5.0,-3.0,-2.0
1706277637.221345,-1.0,5.0,-7.0,-6.0,-6.0,-2.0,0.0,-1.0
1706277637.221345,-1.0,-9.0,2.0,3.0,3.0,0.0,1.0,2.0
1706277637.2316325,-2.0,1.0,2.0,-4.0,-5.0,0.0,-3.0,-2.0
1706277637.2316325,-1.0,2.0,3.0,5.0,1.0,-1.0,-2.0,-1.0
1706277637.2316325,1.0,-6.0,-3.0,0.0,1.0,1.0,1.0,-1.0
1706277637.2413511,-2.0,-1.0,-2.0,-6.0,-6.0,-1.0,-2.0,-1.0
1706277637.2514443,-1.0,-1.0,-4.0,0.0,1.0,1.0,3.0,0.0
1706277637.2514443,3.0,1.0,2.0,4.0,3.0,1.0,-1.0,-2.0
1706277637.2615166,0.0,-4.0,-4.0,3.0,-2.0,-2.0,-2.0,-2.0
1706277637.2615166,-6.0,-10.0,-9.0,-15.0,-5.0,-2.0,0.0,-2.0
1706277637.2813458,1.0,15.0,7.0,8.0,-3.0,-4.0,-4.0,-3.0
1706277637.2813458,1.0,9.0,5.0,6.0,11.0,5.0,2.0,1.0
1706277637.2813458,2.0,-4.0,1.0,-5.0,-3.0,-2.0,-2.0,-1.0
1706277637.2813458,-1.0,-10.0,-14.0,1.0,0.0,-2.0,-1.0,0.0
1706277637.2913518,-6.0,-6.0,-5.0,-11.0,-3.0,-2.0,-2.0,-3.0
1706277637.301353,-7.0,-5.0,-5.0,-8.0,-11.0,-4.0,-1.0,-2.0
1706277637.301353,2.0,12.0,10.0,4.0,4.0,0.0,-1.0,-1.0
1706277637.301353,-3.0,-2.0,-8.0,-2.0,-1.0,-2.0,-1.0,-3.0
1706277637.3115478,3.0,-11.0,-2.0,0.0,1.0,-2.0,1.0,1.0
1706277637.3115478,3.0,11.0,3.0,-2.0,-7.0,-2.0,-1.0,0.0
1706277637.3313484,-7.0,-10.0,-6.0,0.0,-2.0,-1.0,-2.0,0.0
1706277637.3313484,1.0,-1.0,-1.0,-1.0,-5.0,0.0,-2.0,-1.0
1706277637.3413465,1.0,0.0,-3.0,-2.0,0.0,1.0,0.0,-1.0
1706277637.3413465,1.0,-3.0,-3.0,-1.0,-4.0,-3.0,0.0,1.0
1706277637.3413465,2.0,6.0,7.0,-4.0,-2.0,-1.0,0.0,2.0
1706277637.3413465,-2.0,-10.0,1.0,8.0,3.0,0.0,-2.0,-4.0
1706277637.3513796,-1.0,1.0,-3.0,-3.0,-7.0,-3.0,-4.0,0.0
1706277637.3613524,-3.0,-8.0,-3.0,-8.0,-4.0,-5.0,-2.0,-4.0
1706277637.3613524,1.0,3.0,4.0,-6.0,1.0,1.0,2.0,0.0
1706277637.3613524,-1.0,3.0,5.0,10.0,3.0,1.0,-1.0,-1.0
1706277637.371662,2.0,7.0,5.0,-1.0,3.0,0.0,-1.0,0.0
1706277637.371662,-6.0,-23.0,-23.0,-1.0,-5.0,-2.0,-2.0,-2.0
1706277637.3813498,2.0,14.0,2.0,-8.0,-8.0,-5.0,-3.0,-3.0
1706277637.3813498,-5.0,-3.0,5.0,5.0,6.0,0.0,-1.0,0.0
1706277637.3913443,-3.0,-4.0,0.0,-5.0,-2.0,-1.0,0.0,0.0
1706277637.3913443,-1.0,3.0,2.0,1.0,-1.0,0.0,-1.0,0.0
1706277637.3913443,-2.0,4.0,-4.0,-3.0,-1.0,-3.0,-1.0,-2.0
1706277637.3913443,4.0,7.0,2.0,-3.0,-2.0,0.0,0.0,0.0
1706277637.411536,0.0,1.0,-5.0,1.0,1.0,0.0,0.0,-1.0
1706277637.411536,-1.0,-3.0,-3.0,-4.0,-2.0,-2.0,-3.0,-1.0
1706277637.411536,-2.0,-6.0,-3.0,0.0,2.0,0.0,1.0,0.0
1706277637.411536,1.0,9.0,4.0,-1.0,-1.0,-1.0,0.0,-1.0
1706277637.4316347,2.0,8.0,1.0,0.0,0.0,-1.0,1.0,1.0
1706277637.4316347,-2.0,5.0,2.0,2.0,0.0,0.0,-2.0,-2.0
1706277637.4483428,3.0,6.0,3.0,-1.0,3.0,2.0,2.0,2.0
1706277637.4483428,-2.0,-4.0,-4.0,9.0,7.0,-2.0,0.0,0.0
1706277637.4573598,-2.0,-1.0,2.0,1.0,2.0,-1.0,-2.0,-2.0
1706277637.4573598,3.0,3.0,-4.0,-3.0,2.0,2.0,-1.0,1.0
1706277637.458347,-5.0,-11.0,-5.0,-7.0,-8.0,-3.0,-4.0,-4.0
1706277637.458347,1.0,6.0,-5.0,1.0,-1.0,0.0,0.0,0.0
1706277637.4719443,-2.0,-7.0,-3.0,-3.0,-3.0,-2.0,-2.0,0.0
1706277637.4719443,0.0,-1.0,0.0,-22.0,-13.0,-4.0,-1.0,-2.0
1706277637.4719443,0.0,6.0,8.0,32.0,14.0,4.0,1.0,1.0
1706277637.4719443,-1.0,3.0,-3.0,-9.0,-5.0,-3.0,-1.0,-1.0
1706277637.491947,-1.0,5.0,2.0,3.0,-1.0,-1.0,-2.0,-3.0
1706277637.491947,-3.0,-15.0,-1.0,-4.0,-3.0,-2.0,0.0,0.0
1706277637.5019903,1.0,4.0,-4.0,-8.0,-4.0,-1.0,-1.0,0.0
1706277637.5019903,0.0,-1.0,0.0,-3.0,-3.0,-2.0,-1.0,-2.0
1706277637.5123446,-5.0,-14.0,-4.0,-5.0,-5.0,-1.0,-1.0,-1.0
1706277637.5123446,-2.0,3.0,-4.0,6.0,2.0,-1.0,0.0,-2.0
1706277637.5123446,-4.0,1.0,0.0,-6.0,-4.0,-2.0,-3.0,-4.0
1706277637.5123446,-1.0,-4.0,-5.0,-5.0,-3.0,-2.0,0.0,-1.0
1706277637.5323353,1.0,4.0,-4.0,2.0,-1.0,-1.0,-1.0,-3.0
1706277637.5323353,-9.0,-9.0,-7.0,-4.0,-6.0,-3.0,-4.0,-4.0
1706277637.5323353,-1.0,-14.0,-2.0,6.0,13.0,4.0,0.0,0.0
1706277637.5323353,0.0,3.0,4.0,0.0,0.0,0.0,-1.0,1.0
1706277637.5622175,4.0,7.0,2.0,-1.0,0.0,-1.0,1.0,1.0
1706277637.5622175,1.0,10.0,1.0,7.0,1.0,0.0,-1.0,-1.0
1706277637.5622175,-7.0,-13.0,-5.0,-9.0,-6.0,-3.0,-1.0,-2.0
1706277637.5622175,-3.0,-11.0,-9.0,-9.0,-3.0,-2.0,-3.0,-2.0
1706277637.5722294,-2.0,6.0,6.0,7.0,5.0,0.0,-1.0,1.0
1706277637.5722294,2.0,-6.0,4.0,-6.0,-4.0,-3.0,1.0,0.0
1706277637.5722294,-2.0,-4.0,-4.0,-9.0,-8.0,-3.0,0.0,0.0
1706277637.5722294,1.0,4.0,5.0,10.0,7.0,1.0,-1.0,-1.0
1706277637.5923493,-3.0,-4.0,-7.0,9.0,1.0,1.0,-2.0,-5.0
1706277637.5923493,-1.0,-7.0,-2.0,-6.0,-2.0,-1.0,1.0,2.0
1706277637.5923493,-5.0,-7.0,-1.0,-2.0,-4.0,-2.0,-3.0,-4.0
1706277637.5923493,0.0,-4.0,-1.0,-6.0,-4.0,-3.0,0.0,1.0
1706277637.6220956,-3.0,-3.0,2.0,-5.0,-2.0,0.0,1.0,2.0
1706277637.6220956,-2.0,-1.0,1.0,5.0,3.0,1.0,1.0,-1.0
1706277637.6220956,2.0,7.0,-3.0,-2.0,-3.0,-3.0,-1.0,-1.0
1706277637.6220956,3.0,14.0,3.0,0.0,-4.0,1.0,-3.0,2.0
1706277637.6419532,-5.0,1.0,8.0,-6.0,-2.0,-4.0,-3.0,-2.0
1706277637.6419532,4.0,9.0,2.0,2.0,1.0,0.0,-2.0,2.0
1706277637.6419532,-1.0,-5.0,-4.0,-1.0,-1.0,0.0,-1.0,0.0
1706277637.6419532,5.0,12.0,-1.0,-6.0,-3.0,-2.0,-2.0,-4.0
1706277637.652174,-13.0,-24.0,7.0,0.0,1.0,1.0,2.0,-4.0
1706277637.652174,-2.0,2.0,1.0,8.0,10.0,3.0,1.0,1.0
1706277637.6620035,5.0,4.0,-8.0,-6.0,-6.0,-4.0,0.0,0.0
1706277637.6620035,-1.0,-4.0,4.0,3.0,0.0,1.0,0.0,0.0
1706277637.6819456,6.0,8.0,-3.0,-6.0,-3.0,-2.0,0.0,0.0
1706277637.6819456,-2.0,-7.0,-1.0,1.0,-3.0,-1.0,-1.0,-3.0
1706277637.6819456,1.0,-2.0,-12.0,-10.0,-7.0,-3.0,-4.0,-3.0
1706277637.6819456,-2.0,7.0,-3.0,0.0,0.0,0.0,1.0,0.0
1706277637.6922357,1.0,-15.0,-1.0,-4.0,0.0,-1.0,-2.0,-1.0
1706277637.6922357,0.0,2.0,1.0,-3.0,-1.0,0.0,-2.0,-2.0
1706277637.6922357,3.0,16.0,10.0,2.0,-7.0,-4.0,-3.0,0.0
1706277637.6922357,-4.0,-12.0,1.0,12.0,12.0,5.0,3.0,1.0
1706277637.7322524,0.0,0.0,-4.0,0.0,-3.0,-1.0,-1.0,-1.0
1706277637.7322524,0.0,2.0,-3.0,-5.0,-1.0,-3.0,0.0,-1.0
1706277637.7322524,-6.0,-22.0,-14.0,-5.0,-1.0,-2.0,-1.0,-3.0
1706277637.7322524,-1.0,-1.0,-6.0,-7.0,-7.0,-4.0,-1.0,-3.0
1706277637.7422593,-4.0,-22.0,-1.0,3.0,2.0,1.0,1.0,0.0
1706277637.7422593,1.0,-6.0,3.0,1.0,0.0,-2.0,0.0,1.0
1706277637.7422593,3.0,4.0,6.0,5.0,1.0,2.0,0.0,1.0
1706277637.7422593,-6.0,-10.0,-5.0,-6.0,-4.0,-2.0,0.0,-3.0
1706277637.7523084,2.0,-9.0,-20.0,-5.0,0.0,-1.0,1.0,5.0
1706277637.762256,2.0,10.0,12.0,1.0,-3.0,-2.0,-1.0,-3.0
1706277637.762256,-3.0,-23.0,2.0,5.0,2.0,-2.0,-4.0,0.0
1706277637.762256,-6.0,-5.0,-19.0,-10.0,-4.0,1.0,-4.0,-11.0
1706277637.7822537,-5.0,11.0,10.0,0.0,-2.0,-2.0,-4.0,-3.0
1706277637.7822537,4.0,0.0,-4.0,7.0,-2.0,0.0,-4.0,-1.0
1706277637.7822537,0.0,9.0,-2.0,-11.0,1.0,1.0,0.0,4.0
1706277637.7822537,3.0,5.0,10.0,1.0,-6.0,-7.0,-9.0,5.0
1706277637.8024845,-7.0,3.0,-7.0,2.0,0.0,1.0,5.0,-8.0
1706277637.8024845,1.0,1.0,15.0,6.0,3.0,1.0,1.0,18.0
1706277637.8024845,-14.0,-1.0,2.0,5.0,8.0,4.0,0.0,-26.0
1706277637.8024845,1.0,-2.0,-11.0,3.0,0.0,-2.0,3.0,8.0
1706277637.8124435,-8.0,-7.0,-5.0,-20.0,-2.0,0.0,1.0,-9.0
1706277637.8124435,-2.0,5.0,16.0,4.0,-2.0,0.0,4.0,11.0
1706277637.8124435,0.0,3.0,-1.0,12.0,3.0,2.0,0.0,-2.0
1706277637.8124435,-7.0,-11.0,-16.0,-16.0,-6.0,-3.0,-1.0,-7.0
1706277637.8522532,0.0,6.0,13.0,19.0,6.0,3.0,-3.0,4.0
1706277637.8522532,1.0,1.0,-12.0,-4.0,-1.0,-2.0,-2.0,-2.0
1706277637.8522532,-12.0,-1.0,28.0,9.0,5.0,1.0,-5.0,-18.0
1706277637.8522532,-14.0,-4.0,-14.0,-1.0,-3.0,-4.0,-1.0,-15.0
1706277637.8624182,4.0,-9.0,-18.0,-2.0,0.0,0.0,6.0,17.0
1706277637.8624182,4.0,17.0,-2.0,-14.0,-8.0,-3.0,-5.0,-10.0
1706277637.8624182,1.0,-6.0,-22.0,-1.0,-1.0,-2.0,2.0,10.0
1706277637.8624182,4.0,-9.0,21.0,-7.0,0.0,0.0,1.0,5.0
1706277637.8722942,3.0,16.0,-14.0,-3.0,-3.0,-2.0,-7.0,-6.0
1706277637.8722942,-19.0,-28.0,-1.0,5.0,1.0,-2.0,-8.0,-29.0
1706277637.8722942,3.0,9.0,8.0,1.0,-1.0,-3.0,1.0,4.0
1706277637.8722942,13.0,16.0,51.0,30.0,10.0,5.0,5.0,9.0
1706277637.892252,-5.0,-22.0,-29.0,-25.0,-10.0,-7.0,-9.0,-14.0
1706277637.892252,-1.0,1.0,8.0,11.0,2.0,-1.0,-5.0,-15.0
1706277637.892252,10.0,6.0,-2.0,-9.0,-5.0,-1.0,0.0,22.0
1706277637.892252,-1.0,-3.0,0.0,-1.0,0.0,0.0,-3.0,-10.0
1706277637.9226513,8.0,10.0,14.0,6.0,0.0,-1.0,-1.0,1.0
1706277637.9226513,2.0,-3.0,-15.0,-1.0,1.0,0.0,1.0,4.0
1706277637.9226513,-2.0,-5.0,-6.0,-8.0,-3.0,-2.0,-1.0,-2.0
1706277637.9226513,-1.0,15.0,-11.0,-3.0,-3.0,-2.0,-2.0,-3.0
1706277637.9422526,7.0,8.0,1.0,4.0,0.0,0.0,2.0,6.0
1706277637.9422526,-5.0,1.0,-24.0,-7.0,-2.0,-2.0,-1.0,-1.0
1706277637.9422526,-2.0,-4.0,7.0,-1.0,-1.0,1.0,-6.0,-11.0
1706277637.9422526,-1.0,-1.0,-5.0,6.0,0.0,-2.0,-1.0,4.0
1706277637.9525733,5.0,6.0,2.0,-22.0,-6.0,-3.0,-2.0,7.0
1706277637.9525733,-5.0,0.0,17.0,5.0,2.0,2.0,-1.0,-18.0
1706277637.9525733,-2.0,-4.0,-5.0,-8.0,-2.0,-3.0,-1.0,2.0
1706277637.9525733,-2.0,-13.0,-35.0,-3.0,-4.0,-4.0,-3.0,0.0
1706277637.983677,0.0,-1.0,6.0,5.0,-1.0,-3.0,-4.0,-20.0
1706277637.983677,6.0,-4.0,-6.0,0.0,3.0,2.0,5.0,25.0
1706277637.983677,3.0,8.0,11.0,5.0,-3.0,-3.0,-3.0,1.0
1706277637.983677,-14.0,-2.0,8.0,-6.0,-6.0,-3.0,-5.0,-18.0
1706277638.0001922,4.0,-4.0,4.0,9.0,2.0,0.0,-3.0,-3.0
1706277638.0001922,5.0,1.0,0.0,-10.0,-2.0,-1.0,1.0,11.0
1706277638.0001922,-8.0,-4.0,-6.0,6.0,2.0,-1.0,-3.0,-16.0
1706277638.0001922,1.0,-2.0,19.0,5.0,-2.0,-1.0,1.0,10.0
1706277638.014486,-11.0,-4.0,-23.0,-5.0,-1.0,-2.0,-8.0,-29.0
1706277638.014486,0.0,0.0,1.0,-2.0,-3.0,-1.0,-2.0,-4.0
1706277638.014486,-1.0,-4.0,-6.0,-2.0,-1.0,1.0,4.0,6.0
1706277638.014486,10.0,9.0,29.0,4.0,2.0,3.0,-1.0,2.0
1706277638.035251,-3.0,-2.0,-7.0,2.0,-1.0,-1.0,3.0,11.0
1706277638.035251,-8.0,-8.0,-15.0,-5.0,-5.0,-3.0,-1.0,-7.0
1706277638.035251,-1.0,-3.0,-14.0,-6.0,-1.0,-3.0,0.0,-3.0
1706277638.035251,3.0,2.0,-3.0,-4.0,-1.0,2.0,6.0,9.0
1706277638.054878,4.0,5.0,21.0,3.0,-3.0,0.0,5.0,14.0
1706277638.054878,-1.0,-2.0,-10.0,-3.0,-1.0,-2.0,-3.0,-2.0
1706277638.054878,-1.0,-1.0,-3.0,3.0,0.0,0.0,-2.0,-1.0
1706277638.054878,10.0,8.0,26.0,14.0,3.0,1.0,-2.0,2.0
