1706277271.6367924,-3.0,-4.0,-1.0,-1.0,-3.0,-4.0,-1.0,-2.0
1706277271.6468189,0.0,1.0,-3.0,2.0,0.0,-2.0,-2.0,1.0
1706277271.6468189,4.0,10.0,9.0,3.0,2.0,1.0,2.0,3.0
1706277271.6468189,1.0,6.0,1.0,-3.0,-4.0,2.0,1.0,1.0
1706277271.6468189,0.0,2.0,3.0,1.0,-2.0,-4.0,-5.0,-3.0
1706277271.6468189,-4.0,-6.0,-4.0,0.0,3.0,-1.0,-1.0,-2.0
1706277271.6468189,2.0,2.0,1.0,-1.0,2.0,0.0,0.0,0.0
1706277271.6468189,-2.0,-5.0,-5.0,-5.0,-5.0,-3.0,-1.0,0.0
1706277271.66683,2.0,7.0,5.0,6.0,1.0,2.0,2.0,2.0
1706277271.66683,3.0,10.0,2.0,2.0,1.0,0.0,0.0,-1.0
1706277271.676793,0.0,-13.0,1.0,-2.0,-1.0,0.0,0.0,0.0
1706277271.676793,2.0,8.0,-8.0,0.0,2.0,-1.0,0.0,-1.0
1706277271.7167926,-6.0,-13.0,-13.0,-7.0,-4.0,-6.0,-3.0,-4.0
1706277271.7167926,-17.0,-37.0,-14.0,-5.0,-3.0,-2.0,-4.0,-5.0
1706277271.7167926,4.0,1.0,1.0,0.0,-5.0,-1.0,0.0,1.0
1706277271.7167926,11.0,23.0,4.0,-2.0,0.0,-1.0,-2.0,2.0
1706277271.7167926,1.0,-3.0,4.0,9.0,3.0,-1.0,0.0,0.0
1706277271.7167926,-1.0,-4.0,-2.0,-1.0,-4.0,-2.0,-2.0,-2.0
1706277271.7167926,-5.0,-6.0,-5.0,0.0,2.0,-1.0,-1.0,-2.0
1706277271.7167926,0.0,4.0,5.0,-3.0,-4.0,-2.0,0.0,1.0
1706277271.72686,-3.0,-10.0,1.0,-2.0,-2.0,-2.0,-4.0,-2.0
1706277271.72686,1.0,4.0,2.0,1.0,0.0,1.0,-2.0,-2.0
1706277271.72686,-4.0,-5.0,-3.0,1.0,0.0,-5.0,-5.0,-2.0
1706277271.72686,-2.0,-5.0,4.0,2.0,2.0,0.0,0.0,-2.0
1706277271.7578783,1.0,3.0,-3.0,-3.0,-3.0,-1.0,-1.0,1.0
1706277271.7578783,-5.0,-6.0,-4.0,-4.0,-2.0,-3.0,-2.0,-2.0
1706277271.758932,2.0,6.0,3.0,2.0,-3.0,-3.0,-2.0,-1.0
1706277271.758932,-3.0,-10.0,-7.0,-3.0,2.0,5.0,2.0,2.0
1706277271.773248,0.0,4.0,5.0,-3.0,-5.0,-13.0,-7.0,-3.0
1706277271.773248,0.0,0.0,-2.0,0.0,2.0,6.0,4.0,0.0
1706277271.773248,-2.0,0.0,-3.0,0.0,-1.0,0.0,4.0,-1.0
1706277271.7741814,-2.0,-7.0,-1.0,0.0,-1.0,-5.0,-5.0,-5.0
1706277271.7904465,-2.0,0.0,-4.0,-2.0,-2.0,-2.0,0.0,0.0
1706277271.7904465,5.0,9.0,7.0,1.0,-2.0,-9.0,-6.0,0.0
1706277271.7904465,0.0,1.0,1.0,-6.0,1.0,11.0,4.0,0.0
1706277271.7904465,-2.0,-6.0,3.0,3.0,1.0,-4.0,-2.0,-1.0
1706277271.8100083,0.0,1.0,-5.0,-3.0,-1.0,2.0,0.0,0.0
1706277271.8100083,-2.0,0.0,-7.0,-1.0,1.0,-3.0,-2.0,-2.0
1706277271.8200138,-2.0,-2.0,4.0,3.0,-4.0,-2.0,-1.0,-1.0
1706277271.8200138,-1.0,1.0,-5.0,0.0,0.0,0.0,0.0,0.0
1706277271.8302903,-2.0,2.0,14.0,2.0,4.0,3.0,0.0,-2.0
1706277271.8302903,-3.0,-5.0,-13.0,-8.0,-2.0,0.0,3.0,3.0
1706277271.8302903,0.0,0.0,-2.0,5.0,0.0,-4.0,-2.0,-1.0
1706277271.8302903,-1.0,1.0,3.0,-14.0,-6.0,-6.0,-4.0,-4.0
1706277271.8500104,-1.0,0.0,-9.0,-3.0,2.0,6.0,3.0,0.0
1706277271.8500104,2.0,3.0,11.0,8.0,3.0,3.0,1.0,0.0
1706277271.8500104,-1.0,-2.0,-11.0,-7.0,-1.0,-2.0,-3.0,-4.0
1706277271.8500104,-1.0,0.0,7.0,7.0,-6.0,-6.0,-4.0,-2.0
1706277271.8800082,-2.0,-2.0,-1.0,0.0,1.0,3.0,1.0,-1.0
1706277271.8800082,-1.0,-1.0,-5.0,-11.0,-3.0,1.0,-2.0,-1.0
1706277271.8800082,1.0,3.0,4.0,9.0,3.0,1.0,1.0,3.0
1706277271.8800082,-1.0,-2.0,-4.0,1.0,2.0,2.0,2.0,0.0
1706277271.8901563,-3.0,-6.0,-14.0,-6.0,-7.0,-5.0,-3.0,-2.0
1706277271.8901563,3.0,4.0,6.0,5.0,7.0,10.0,3.0,1.0
1706277271.8901563,-1.0,-2.0,-6.0,0.0,-4.0,-7.0,-4.0,-1.0
1706277271.8901563,0.0,-2.0,1.0,1.0,1.0,-2.0,-2.0,0.0
1706277271.9200134,-1.0,-3.0,-6.0,-6.0,-5.0,-5.0,-6.0,-1.0
1706277271.9200134,-3.0,-7.0,-3.0,-2.0,-2.0,-4.0,0.0,-1.0
1706277271.9200134,-1.0,3.0,1.0,-3.0,-2.0,-2.0,-1.0,0.0
1706277271.9200134,-3.0,-2.0,-2.0,0.0,1.0,3.0,0.0,-2.0
1706277271.9300973,-1.0,3.0,-1.0,-4.0,-8.0,-5.0,-3.0,-1.0
1706277271.9300973,-3.0,-3.0,-5.0,-3.0,1.0,1.0,0.0,-3.0
1706277271.9300973,-1.0,1.0,6.0,-2.0,0.0,-2.0,-3.0,0.0
1706277271.9400184,0.0,-2.0,-10.0,1.0,3.0,2.0,1.0,0.0
1706277271.9502807,0.0,-2.0,9.0,14.0,7.0,0.0,-1.0,0.0
1706277271.9502807,-3.0,-2.0,5.0,-19.0,-16.0,-9.0,-5.0,-2.0
1706277271.9603026,-2.0,1.0,-2.0,3.0,1.0,-2.0,-2.0,0.0
1706277271.9603026,-3.0,-5.0,-5.0,-3.0,-6.0,-6.0,-4.0,-1.0
1706277271.9703274,-3.0,-4.0,-5.0,0.0,2.0,-2.0,-1.0,-2.0
1706277271.9703274,0.0,-1.0,-2.0,3.0,2.0,7.0,0.0,-2.0
1706277271.9703274,1.0,3.0,5.0,-5.0,-8.0,-7.0,-3.0,-1.0
1706277271.9703274,0.0,-1.0,3.0,-7.0,0.0,6.0,4.0,1.0
1706277272.0100095,1.0,1.0,3.0,4.0,0.0,0.0,0.0,0.0
1706277272.0100095,-2.0,-3.0,0.0,-1.0,0.0,-7.0,-3.0,-3.0
1706277272.0100095,-2.0,-3.0,-5.0,-11.0,-5.0,-2.0,0.0,-3.0
1706277272.0100095,-1.0,-3.0,-6.0,2.0,-1.0,-7.0,-6.0,-3.0
1706277272.0100095,-1.0,1.0,3.0,-5.0,-8.0,-7.0,-1.0,-2.0
1706277272.0100095,2.0,4.0,-10.0,0.0,-3.0,-2.0,1.0,-1.0
1706277272.0100095,-3.0,-8.0,-4.0,-2.0,4.0,8.0,1.0,-1.0
1706277272.0100095,-2.0,-1.0,-6.0,-3.0,-1.0,-3.0,0.0,-1.0
1706277272.030011,-2.0,-2.0,-1.0,-3.0,-1.0,1.0,0.0,0.0
1706277272.030011,-3.0,-4.0,-15.0,0.0,-1.0,-7.0,-4.0,-1.0
1706277272.030011,-1.0,3.0,13.0,-8.0,-6.0,-6.0,-3.0,-2.0
1706277272.030011,-1.0,0.0,0.0,2.0,2.0,-1.0,-1.0,-2.0
1706277272.0504324,2.0,4.0,2.0,0.0,1.0,5.0,0.0,2.0
1706277272.0504324,0.0,-1.0,4.0,3.0,-4.0,-3.0,0.0,-1.0
1706277272.0504324,0.0,-2.0,-7.0,-1.0,4.0,4.0,1.0,0.0
1706277272.0504324,-2.0,-3.0,3.0,-3.0,0.0,2.0,1.0,0.0
1706277272.070202,0.0,0.0,-3.0,-1.0,2.0,0.0,-1.0,-2.0
1706277272.070202,1.0,1.0,6.0,12.0,-2.0,-2.0,-2.0,1.0
1706277272.070202,0.0,0.0,-6.0,-15.0,6.0,6.0,3.0,0.0
1706277272.070202,-2.0,-1.0,-2.0,-5.0,-9.0,-6.0,-6.0,-4.0
1706277272.0900345,2.0,5.0,9.0,0.0,10.0,6.0,4.0,2.0
1706277272.0900345,-4.0,-6.0,-12.0,0.0,-9.0,-4.0,-4.0,-3.0
1706277272.0900345,0.0,-3.0,-13.0,11.0,2.0,-2.0,-3.0,0.0
1706277272.0900345,1.0,5.0,20.0,0.0,-1.0,0.0,0.0,1.0
1706277272.110421,0.0,-3.0,-7.0,-6.0,-1.0,0.0,-2.0,-1.0
1706277272.110421,-2.0,0.0,7.0,-5.0,-5.0,-3.0,0.0,0.0
1706277272.110421,-1.0,-1.0,-4.0,2.0,-2.0,-1.0,-1.0,0.0
1706277272.110421,-1.0,0.0,-5.0,-3.0,-2.0,-1.0,1.0,0.0
1706277272.1301453,-1.0,-1.0,2.0,-1.0,-2.0,2.0,-1.0,-1.0
1706277272.1301453,1.0,1.0,3.0,6.0,10.0,2.0,1.0,4.0
1706277272.1301453,-1.0,-3.0,-4.0,3.0,-3.0,-3.0,0.0,-3.0
1706277272.1301453,0.0,0.0,8.0,3.0,-1.0,-1.0,-3.0,1.0
1706277272.160009,-2.0,-2.0,-6.0,-6.0,-2.0,-1.0,-1.0,0.0
1706277272.160009,-1.0,1.0,-3.0,1.0,1.0,0.0,0.0,-2.0
1706277272.160009,-1.0,0.0,3.0,0.0,-1.0,1.0,-1.0,-2.0
1706277272.160009,-2.0,-1.0,-8.0,-1.0,1.0,-4.0,-2.0,-2.0
1706277272.1702805,-2.0,-3.0,-3.0,2.0,-3.0,-2.0,-2.0,-2.0
1706277272.1702805,0.0,0.0,-5.0,-5.0,0.0,0.0,-1.0,-1.0
1706277272.1702805,2.0,1.0,7.0,5.0,2.0,1.0,1.0,2.0
1706277272.1800134,-3.0,0.0,2.0,4.0,-5.0,-10.0,-5.0,-4.0
1706277272.2100136,-3.0,-8.0,-15.0,-2.0,-2.0,4.0,-1.0,-4.0
1706277272.2100136,1.0,1.0,7.0,-11.0,-5.0,0.0,1.0,-1.0
1706277272.2100136,2.0,9.0,27.0,6.0,1.0,-5.0,-2.0,0.0
1706277272.2100136,-3.0,-7.0,-19.0,-14.0,0.0,3.0,2.0,-1.0
1706277272.2100136,0.0,5.0,8.0,-2.0,-2.0,0.0,3.0,1.0
1706277272.2100136,-3.0,-6.0,-14.0,4.0,-1.0,-6.0,-7.0,-5.0
1706277272.2100136,2.0,6.0,22.0,-2.0,2.0,4.0,3.0,3.0
1706277272.2100136,-3.0,-7.0,-4.0,1.0,4.0,9.0,2.0,-2.0
1706277272.23849,-3.0,0.0,-4.0,2.0,-4.0,-6.0,-2.0,-2.0
1706277272.23849,0.0,4.0,8.0,-6.0,-3.0,-1.0,-2.0,-1.0
1706277272.23849,-2.0,-7.0,-14.0,-4.0,-1.0,-3.0,-5.0,-2.0
1706277272.23849,5.0,7.0,5.0,3.0,0.0,-1.0,0.0,-1.0
1706277272.2644894,-4.0,-13.0,-3.0,-1.0,-7.0,-5.0,-4.0,-3.0
1706277272.2644894,-1.0,-3.0,0.0,4.0,3.0,2.0,2.0,2.0
1706277272.2644894,-4.0,8.0,-11.0,-5.0,-6.0,-4.0,-3.0,-3.0
1706277272.2644894,0.0,-1.0,-1.0,3.0,2.0,0.0,1.0,1.0
1706277272.2756026,1.0,1.0,1.0,0.0,-2.0,-4.0,-3.0,-2.0
1706277272.2756026,0.0,4.0,0.0,-3.0,-2.0,0.0,0.0,-2.0
1706277272.2756026,-3.0,-10.0,-6.0,2.0,-1.0,0.0,-1.0,-2.0
1706277272.2766516,2.0,-2.0,-1.0,0.0,-2.0,-1.0,-4.0,0.0
1706277272.2985137,1.0,5.0,6.0,2.0,2.0,-1.0,1.0,0.0
1706277272.2985137,-3.0,-5.0,-1.0,1.0,3.0,2.0,1.0,-3.0
1706277272.2985137,-5.0,-7.0,-8.0,-4.0,-4.0,-1.0,-2.0,-2.0
1706277272.2985137,3.0,11.0,6.0,0.0,-3.0,0.0,1.0,1.0
1706277272.3123503,-3.0,1.0,5.0,-2.0,-1.0,0.0,-3.0,-2.0
1706277272.3123503,0.0,0.0,-6.0,1.0,4.0,-1.0,-1.0,-2.0
1706277272.3205974,-2.0,-6.0,-7.0,-2.0,-6.0,-8.0,-4.0,-3.0
1706277272.3205974,-4.0,-8.0,-2.0,-2.0,-1.0,6.0,3.0,-1.0
1706277272.33563,-4.0,-11.0,-9.0,-2.0,-2.0,-1.0,-1.0,0.0
1706277272.33563,-1.0,3.0,5.0,0.0,2.0,2.0,-2.0,1.0
1706277272.3364358,2.0,7.0,0.0,0.0,2.0,0.0,4.0,2.0
1706277272.3364358,1.0,5.0,5.0,0.0,2.0,0.0,-2.0,-1.0
1706277272.358296,9.0,22.0,11.0,1.0,-1.0,-2.0,-1.0,3.0
1706277272.358296,-4.0,-14.0,-8.0,-4.0,-4.0,-5.0,-3.0,-4.0
1706277272.358296,-3.0,-8.0,-3.0,2.0,4.0,12.0,5.0,1.0
1706277272.358296,-6.0,-10.0,-10.0,-1.0,-4.0,-4.0,-5.0,-2.0
1706277272.3764803,-2.0,-1.0,-3.0,-4.0,-1.0,-1.0,-1.0,-1.0
1706277272.3764803,5.0,8.0,5.0,2.0,-1.0,-2.0,0.0,3.0
1706277272.3805404,-2.0,-4.0,-1.0,-1.0,3.0,-3.0,-4.0,-4.0
1706277272.3805404,-1.0,-2.0,-6.0,0.0,-2.0,-4.0,-3.0,0.0
1706277272.396519,-2.0,-4.0,2.0,-3.0,-4.0,-2.0,-2.0,-3.0
1706277272.396519,4.0,9.0,4.0,1.0,-4.0,-6.0,-1.0,0.0
1706277272.3975227,-10.0,-23.0,-15.0,-6.0,-5.0,5.0,0.0,-4.0
1706277272.3975227,1.0,4.0,0.0,-1.0,-1.0,-2.0,-1.0,-2.0
1706277272.4425802,-3.0,-6.0,-4.0,-4.0,3.0,-1.0,0.0,0.0
1706277272.4425802,3.0,5.0,3.0,0.0,-3.0,0.0,-2.0,1.0
1706277272.4425802,3.0,8.0,-6.0,2.0,1.0,-3.0,-2.0,0.0
1706277272.4425802,-1.0,-1.0,11.0,3.0,1.0,0.0,1.0,-3.0
1706277272.4425802,0.0,-2.0,0.0,3.0,-1.0,1.0,-1.0,-1.0
1706277272.4425802,-7.0,-8.0,0.0,-6.0,-4.0,-5.0,-3.0,-2.0
1706277272.4425802,4.0,7.0,6.0,3.0,3.0,5.0,3.0,2.0
1706277272.4425802,-5.0,-7.0,-6.0,-5.0,-4.0,-7.0,-5.0,-2.0
1706277272.452609,-2.0,4.0,1.0,1.0,1.0,0.0,0.0,1.0
1706277272.452609,-3.0,-8.0,-5.0,-11.0,-2.0,4.0,-3.0,-3.0
1706277272.452609,-1.0,0.0,-1.0,5.0,-3.0,-8.0,-8.0,-4.0
1706277272.452609,-1.0,2.0,3.0,11.0,1.0,1.0,3.0,0.0
1706277272.482581,0.0,-3.0,-15.0,-5.0,2.0,-2.0,0.0,-1.0
1706277272.482581,-4.0,0.0,22.0,-1.0,-2.0,2.0,0.0,-2.0
1706277272.482581,0.0,3.0,7.0,-5.0,-3.0,-2.0,-1.0,-2.0
1706277272.482581,-1.0,-5.0,-18.0,-1.0,1.0,2.0,0.0,-2.0
1706277272.492764,-2.0,-3.0,-10.0,-3.0,-1.0,-5.0,-6.0,-3.0
1706277272.492764,-2.0,-3.0,-2.0,10.0,0.0,-1.0,0.0,0.0
1706277272.5026276,0.0,1.0,-8.0,-7.0,-5.0,-9.0,-4.0,-1.0
1706277272.5026276,0.0,1.0,24.0,-1.0,-1.0,-2.0,-1.0,0.0
1706277272.512737,0.0,0.0,13.0,15.0,2.0,-1.0,1.0,1.0
1706277272.512737,-1.0,-4.0,-20.0,-11.0,-2.0,-3.0,0.0,-3.0
1706277272.512737,0.0,3.0,10.0,3.0,3.0,4.0,1.0,1.0
1706277272.512737,-1.0,-4.0,-11.0,-3.0,-8.0,-9.0,-5.0,-3.0
1706277272.5525866,-2.0,-4.0,-9.0,-4.0,-4.0,1.0,-1.0,0.0
1706277272.5525866,0.0,0.0,-1.0,8.0,2.0,1.0,-1.0,1.0
1706277272.5625834,-1.0,1.0,8.0,-6.0,-4.0,-6.0,-3.0,-2.0
1706277272.5625834,-1.0,1.0,-1.0,-6.0,-1.0,2.0,-2.0,-2.0
1706277272.5625834,-1.0,-5.0,-4.0,-2.0,4.0,4.0,1.0,-1.0
1706277272.5625834,-1.0,-1.0,-9.0,-5.0,1.0,-1.0,-2.0,0.0
1706277272.5625834,-2.0,-7.0,-14.0,-1.0,-2.0,-3.0,-1.0,-2.0
1706277272.5625834,-1.0,0.0,5.0,10.0,3.0,-1.0,0.0,2.0
1706277272.572918,-1.0,3.0,4.0,-12.0,-5.0,-4.0,-5.0,-2.0
1706277272.572918,-1.0,0.0,2.0,9.0,4.0,5.0,2.0,-1.0
1706277272.572918,1.0,-3.0,-13.0,-1.0,2.0,-1.0,1.0,1.0
1706277272.572918,-2.0,2.0,17.0,-16.0,-5.0,-4.0,-5.0,-4.0
1706277272.5926068,-3.0,-7.0,-24.0,12.0,-2.0,-4.0,-3.0,0.0
1706277272.5926068,-2.0,2.0,19.0,-19.0,-8.0,-7.0,-2.0,-2.0
1706277272.5926068,2.0,-1.0,-4.0,-1.0,3.0,6.0,2.0,2.0
1706277272.5926068,0.0,-2.0,-1.0,25.0,5.0,-3.0,0.0,2.0
1706277272.612583,0.0,2.0,-5.0,-20.0,-6.0,-6.0,-4.0,-4.0
1706277272.612583,-2.0,-3.0,-4.0,0.0,-1.0,5.0,1.0,-1.0
1706277272.612583,2.0,-1.0,9.0,7.0,-1.0,-5.0,0.0,4.0
1706277272.612583,-8.0,-8.0,-11.0,-5.0,-2.0,3.0,1.0,-3.0
1706277272.6333213,0.0,2.0,22.0,15.0,-2.0,-10.0,-7.0,-3.0
1706277272.6333213,0.0,-4.0,-14.0,-4.0,3.0,9.0,2.0,-2.0
1706277272.6333213,-2.0,6.0,11.0,-6.0,-7.0,-5.0,-2.0,1.0
1706277272.6333213,-4.0,-15.0,-42.0,-28.0,-2.0,0.0,-3.0,-4.0
1706277272.6529424,1.0,0.0,17.0,6.0,-1.0,0.0,0.0,3.0
1706277272.6529424,-4.0,-4.0,-6.0,3.0,-3.0,-5.0,-4.0,-3.0
1706277272.6529424,0.0,4.0,9.0,9.0,6.0,4.0,2.0,1.0
1706277272.6529424,2.0,1.0,4.0,-6.0,-4.0,-4.0,0.0,1.0
1706277272.6732767,1.0,1.0,0.0,1.0,2.0,6.0,2.0,0.0
1706277272.6732767,1.0,-2.0,-2.0,-2.0,-1.0,-7.0,-5.0,8.0
1706277272.6732767,-9.0,-10.0,-3.0,10.0,0.0,4.0,-8.0,-25.0
1706277272.6732767,0.0,8.0,14.0,-15.0,-6.0,-5.0,-4.0,-2.0
1706277272.6929417,-2.0,-23.0,-61.0,-26.0,-4.0,0.0,-2.0,2.0
1706277272.6929417,-6.0,-6.0,-1.0,-4.0,-6.0,-9.0,-12.0,-12.0
1706277272.6929417,2.0,3.0,-31.0,-8.0,-2.0,-5.0,-2.0,8.0
1706277272.6929417,-8.0,-11.0,-18.0,0.0,3.0,5.0,1.0,-5.0
1706277272.7229416,-15.0,4.0,5.0,-5.0,1.0,10.0,4.0,-16.0
1706277272.7229416,8.0,2.0,12.0,10.0,0.0,-3.0,0.0,0.0
1706277272.7229416,-1.0,-16.0,-7.0,-4.0,-9.0,-7.0,-5.0,-7.0
1706277272.7229416,18.0,15.0,9.0,1.0,-2.0,-5.0,-8.0,5.0
1706277272.7332036,0.0,7.0,10.0,8.0,3.0,1.0,2.0,6.0
1706277272.7332036,-7.0,-5.0,0.0,1.0,-3.0,-5.0,1.0,0.0
1706277272.7332036,-3.0,0.0,0.0,-2.0,1.0,-1.0,-7.0,-4.0
1706277272.7332036,-11.0,-5.0,-4.0,-10.0,-4.0,-5.0,3.0,-4.0
1706277272.7732167,1.0,-2.0,16.0,19.0,4.0,1.0,-5.0,-13.0
1706277272.7742145,3.0,2.0,-21.0,-24.0,-4.0,5.0,7.0,10.0
1706277272.7742145,0.0,14.0,42.0,-9.0,-6.0,-5.0,0.0,4.0
1706277272.7742145,0.0,1.0,-18.0,22.0,3.0,-1.0,0.0,-1.0
1706277272.778215,-2.0,-17.0,-5.0,-31.0,-10.0,-7.0,-5.0,5.0
1706277272.778215,-1.0,-3.0,2.0,11.0,5.0,6.0,5.0,3.0
1706277272.778215,-1.0,5.0,-10.0,1.0,1.0,-6.0,-3.0,-1.0
1706277272.778215,-4.0,-5.0,17.0,15.0,12.0,22.0,7.0,-5.0
1706277272.8009,0.0,-3.0,7.0,12.0,1.0,-4.0,2.0,4.0
1706277272.8009,3.0,19.0,-1.0,3.0,-5.0,-7.0,-5.0,-4.0
1706277272.8009,-9.0,-33.0,-22.0,-6.0,-1.0,3.0,1.0,-1.0
1706277272.8009,-4.0,-8.0,12.0,9.0,-5.0,-13.0,-12.0,-6.0
1706277272.8189423,-2.0,5.0,12.0,-20.0,-8.0,0.0,-3.0,-11.0
1706277272.8189423,-5.0,2.0,6.0,7.0,3.0,2.0,1.0,12.0
1706277272.8189423,17.0,3.0,-18.0,19.0,5.0,1.0,3.0,5.0
1706277272.8189423,3.0,5.0,1.0,-17.0,-3.0,4.0,6.0,12.0
1706277272.8383105,-1.0,-6.0,-22.0,19.0,7.0,5.0,7.0,4.0
1706277272.839332,6.0,0.0,24.0,-6.0,-3.0,-4.0,-6.0,-3.0
1706277272.839332,0.0,7.0,5.0,4.0,-1.0,1.0,1.0,1.0
1706277272.839332,1.0,-2.0,-18.0,4.0,1.0,-3.0,-4.0,-2.0
1706277272.8615794,2.0,12.0,10.0,4.0,-3.0,-3.0,-3.0,-1.0
1706277272.8615794,6.0,3.0,12.0,3.0,2.0,1.0,1.0,1.0
1706277272.8615794,-21.0,-30.0,-10.0,-31.0,-5.0,1.0,-3.0,-5.0
1706277272.8615794,4.0,4.0,-2.0,-9.0,-7.0,-6.0,-2.0,-3.0
1706277272.8921695,3.0,9.0,-3.0,-1.0,-2.0,-2.0,0.0,3.0
1706277272.8921695,-5.0,-7.0,-21.0,3.0,0.0,1.0,-3.0,-10.0
1706277272.8921695,4.0,18.0,26.0,12.0,3.0,3.0,3.0,-1.0
1706277272.8921695,-7.0,-8.0,20.0,1.0,5.0,4.0,2.0,0.0
1706277272.8981695,-3.0,-10.0,-7.0,1.0,-2.0,-4.0,0.0,-1.0
1706277272.8981695,0.0,-5.0,-11.0,-4.0,-3.0,-4.0,-5.0,-6.0
1706277272.8981695,-4.0,5.0,-3.0,-7.0,-8.0,-10.0,-4.0,-4.0
1706277272.8981695,5.0,11.0,-6.0,5.0,3.0,-5.0,-1.0,0.0
1706277272.921296,-7.0,-10.0,-3.0,-6.0,-6.0,1.0,2.0,3.0
1706277272.921296,1.0,-4.0,-2.0,18.0,3.0,0.0,0.0,-4.0
1706277272.921296,1.0,7.0,9.0,-26.0,-11.0,2.0,0.0,0.0
1706277272.922287,0.0,-3.0,0.0,20.0,-4.0,2.0,0.0,2.0
1706277272.9362416,3.0,7.0,19.0,18.0,19.0,5.0,1.0,0.0
1706277272.9362416,0.0,3.0,-9.0,-13.0,-8.0,-7.0,-3.0,-3.0
1706277272.9443338,-6.0,-5.0,-5.0,7.0,1.0,2.0,0.0,1.0
1706277272.9453356,-4.0,1.0,2.0,-21.0,-13.0,-6.0,-5.0,-2.0
1706277272.9597657,5.0,6.0,-10.0,-18.0,-8.0,-5.0,-2.0,-3.0
1706277272.9597657,-8.0,-5.0,-16.0,-14.0,-6.0,0.0,2.0,0.0
1706277272.9597657,1.0,-2.0,14.0,10.0,5.0,2.0,-1.0,0.0
1706277272.9607658,3.0,-6.0,-27.0,-22.0,-10.0,-6.0,-4.0,-2.0
1706277272.9874766,-1.0,2.0,-9.0,8.0,1.0,-1.0,-1.0,0.0
1706277272.9874766,-9.0,-4.0,0.0,-30.0,-7.0,-1.0,-1.0,-2.0
1706277272.9874766,2.0,-1.0,-6.0,4.0,0.0,1.0,-1.0,-1.0
1706277272.9874766,0.0,6.0,3.0,17.0,8.0,3.0,-1.0,1.0
1706277272.9961202,-5.0,-11.0,1.0,-4.0,-2.0,-1.0,-1.0,-1.0
1706277272.9961202,7.0,12.0,15.0,10.0,-2.0,-13.0,-5.0,1.0
1706277272.9961202,-7.0,-5.0,-13.0,0.0,-5.0,2.0,-1.0,-3.0
1706277272.9961202,-2.0,2.0,9.0,-10.0,2.0,8.0,5.0,1.0
1706277273.0181978,8.0,14.0,22.0,-1.0,3.0,6.0,4.0,4.0
1706277273.0181978,-7.0,-13.0,13.0,-4.0,-4.0,-10.0,-6.0,-8.0
1706277273.0189662,-4.0,-11.0,-27.0,-5.0,2.0,-5.0,-6.0,1.0
1706277273.0189662,5.0,11.0,28.0,11.0,0.0,-2.0,-1.0,-2.0
1706277273.0399816,4.0,8.0,15.0,17.0,5.0,2.0,1.0,1.0
1706277273.0399816,-10.0,-24.0,-56.0,-13.0,-3.0,-4.0,-5.0,-6.0
1706277273.0409818,11.0,22.0,38.0,1.0,3.0,-5.0,-4.0,2.0
1706277273.0409818,-6.0,-29.0,-53.0,-19.0,-5.0,-3.0,0.0,-1.0
1706277273.0560117,-6.0,-18.0,-29.0,-6.0,5.0,14.0,6.0,2.0
1706277273.0560117,2.0,0.0,57.0,28.0,9.0,7.0,3.0,3.0
1706277273.0570083,-5.0,-7.0,-48.0,-14.0,-4.0,-1.0,0.0,-5.0
1706277273.0570083,1.0,5.0,7.0,9.0,3.0,-7.0,-6.0,-3.0
1706277273.0794697,-1.0,0.0,35.0,9.0,-2.0,-5.0,-5.0,-3.0
1706277273.0794697,-1.0,-12.0,-37.0,-5.0,3.0,8.0,5.0,0.0
1706277273.080464,2.0,5.0,20.0,10.0,1.0,0.0,1.0,2.0
1706277273.080464,2.0,7.0,6.0,-16.0,1.0,1.0,2.0,1.0
1706277273.1014771,-9.0,-15.0,-21.0,-28.0,-19.0,-11.0,-6.0,-5.0
1706277273.1014771,6.0,16.0,7.0,-4.0,-3.0,3.0,1.0,2.0
1706277273.1014771,0.0,0.0,7.0,20.0,3.0,0.0,1.0,0.0
1706277273.1024878,-4.0,-3.0,-9.0,1.0,-3.0,-1.0,-1.0,-3.0
1706277273.1294727,-2.0,-6.0,-3.0,19.0,2.0,0.0,0.0,-1.0
1706277273.1294727,1.0,0.0,-8.0,-11.0,-4.0,-2.0,0.0,1.0
1706277273.1294727,0.0,5.0,4.0,-5.0,-7.0,-2.0,-1.0,-2.0
1706277273.1294727,-5.0,-11.0,-33.0,-19.0,-6.0,0.0,1.0,-2.0
1706277273.138137,-2.0,7.0,6.0,-12.0,-5.0,-8.0,-7.0,-3.0
1706277273.138137,1.0,5.0,12.0,9.0,3.0,2.0,-2.0,0.0
1706277273.1391587,-3.0,-11.0,-4.0,-7.0,-3.0,-2.0,-1.0,0.0
1706277273.1391587,1.0,6.0,28.0,-12.0,-4.0,-2.0,-1.0,-1.0
1706277273.172167,2.0,0.0,-21.0,-4.0,-4.0,-6.0,-1.0,0.0
1706277273.172167,-2.0,2.0,11.0,8.0,1.0,0.0,-2.0,-1.0
1706277273.172167,-2.0,1.0,5.0,5.0,11.0,8.0,3.0,2.0
1706277273.172167,1.0,3.0,5.0,12.0,6.0,-2.0,-2.0,0.0
1706277273.1751676,2.0,10.0,23.0,10.0,6.0,0.0,-2.0,-3.0
1706277273.1751676,-7.0,-16.0,-26.0,-4.0,-1.0,3.0,0.0,-1.0
1706277273.1832724,6.0,7.0,-4.0,-11.0,-5.0,-2.0,1.0,0.0
1706277273.1832724,-6.0,-7.0,-1.0,7.0,-5.0,-8.0,-5.0,-4.0
1706277273.2070951,-1.0,6.0,1.0,2.0,1.0,0.0,3.0,-1.0
1706277273.2070951,2.0,-2.0,-18.0,-5.0,-1.0,1.0,-1.0,-1.0
1706277273.2070951,-1.0,1.0,16.0,-3.0,-1.0,-3.0,-3.0,-3.0
1706277273.2070951,-2.0,-1.0,-3.0,-1.0,1.0,-1.0,-2.0,1.0
1706277273.2205582,3.0,2.0,-10.0,0.0,-2.0,-4.0,-1.0,-2.0
1706277273.2205582,-3.0,2.0,6.0,-4.0,-3.0,0.0,1.0,0.0
1706277273.2212806,-1.0,-10.0,3.0,9.0,8.0,12.0,8.0,2.0
1706277273.2212806,2.0,3.0,-8.0,-2.0,-1.0,-2.0,0.0,-2.0
1706277273.2351472,-3.0,-2.0,-11.0,0.0,-4.0,-4.0,-3.0,-3.0
1706277273.2351472,-5.0,-3.0,-1.0,-3.0,1.0,-2.0,-3.0,-4.0
1706277273.2433176,-2.0,-1.0,-2.0,0.0,-6.0,-7.0,-5.0,-3.0
1706277273.2433176,-2.0,-5.0,0.0,-8.0,-1.0,3.0,-1.0,1.0
1706277273.258198,-5.0,-6.0,-21.0,-10.0,-1.0,-2.0,-4.0,-2.0
1706277273.258198,2.0,4.0,19.0,1.0,1.0,2.0,1.0,1.0
1706277273.2589924,-1.0,-5.0,4.0,-17.0,-11.0,-3.0,-1.0,-1.0
1706277273.2589924,1.0,11.0,6.0,18.0,-2.0,2.0,2.0,1.0
1706277273.2808924,4.0,7.0,4.0,22.0,28.0,10.0,1.0,1.0
1706277273.2808924,0.0,-2.0,3.0,12.0,1.0,-2.0,-1.0,0.0
1706277273.2808924,0.0,3.0,-8.0,0.0,6.0,0.0,-1.0,-2.0
1706277273.2808924,0.0,0.0,3.0,-11.0,-8.0,-3.0,0.0,-3.0
1706277273.2941763,-4.0,-13.0,0.0,-7.0,-6.0,-2.0,-1.0,-2.0
1706277273.2951796,4.0,10.0,4.0,2.0,-1.0,0.0,1.0,0.0
1706277273.3033113,-3.0,-3.0,3.0,-13.0,-3.0,-3.0,-3.0,-3.0
1706277273.3033113,-6.0,-12.0,-33.0,-11.0,1.0,-2.0,-3.0,-3.0
1706277273.3261442,2.0,-3.0,20.0,1.0,-5.0,-1.0,0.0,-1.0
1706277273.3261442,1.0,2.0,3.0,9.0,2.0,1.0,-1.0,1.0
1706277273.3261442,7.0,21.0,-16.0,-15.0,-1.0,0.0,-1.0,1.0
1706277273.3261442,-8.0,-17.0,12.0,8.0,2.0,-1.0,0.0,-2.0
1706277273.3406014,-2.0,-3.0,-8.0,-14.0,-14.0,-9.0,-4.0,-2.0
1706277273.3406014,0.0,3.0,-6.0,-12.0,-3.0,-2.0,-1.0,-2.0
1706277273.3406014,0.0,-3.0,4.0,31.0,11.0,1.0,2.0,3.0
1706277273.3416567,2.0,4.0,4.0,7.0,2.0,-2.0,0.0,-3.0
1706277273.3548503,1.0,3.0,-3.0,-7.0,-3.0,0.0,-1.0,0.0
1706277273.3548503,-5.0,-7.0,-4.0,4.0,-2.0,-2.0,-1.0,-3.0
1706277273.363057,-3.0,-4.0,1.0,-7.0,-5.0,-2.0,-1.0,-1.0
1706277273.363057,3.0,3.0,3.0,-2.0,0.0,1.0,-1.0,1.0
1706277273.3864264,-3.0,-5.0,-12.0,5.0,-7.0,-4.0,-2.0,-1.0
1706277273.3864264,3.0,6.0,22.0,-7.0,1.0,2.0,0.0,-1.0
1706277273.3864264,-6.0,-8.0,0.0,0.0,-2.0,-4.0,-5.0,-4.0
1706277273.3864264,0.0,1.0,-4.0,-1.0,2.0,1.0,0.0,1.0
1706277273.4004765,0.0,5.0,-1.0,-7.0,-3.0,-1.0,-1.0,0.0
1706277273.4004765,0.0,0.0,-1.0,6.0,5.0,3.0,1.0,-2.0
1706277273.4014893,-1.0,-4.0,-7.0,6.0,-6.0,-5.0,-1.0,-3.0
1706277273.4014893,-2.0,-3.0,9.0,8.0,10.0,5.0,1.0,0.0
1706277273.4148886,-2.0,-5.0,-4.0,-8.0,-3.0,-2.0,-2.0,-1.0
1706277273.4148886,-3.0,-9.0,-2.0,-1.0,-2.0,-1.0,0.0,1.0
1706277273.4317234,3.0,-1.0,-2.0,-2.0,-3.0,0.0,1.0,-1.0
1706277273.4317234,1.0,13.0,-2.0,-5.0,-4.0,-3.0,-3.0,-3.0
1706277273.438264,-7.0,-15.0,-7.0,-3.0,2.0,1.0,2.0,-1.0
1706277273.4392855,2.0,7.0,-1.0,-1.0,3.0,0.0,-3.0,0.0
1706277273.4392855,-5.0,-11.0,-3.0,4.0,-3.0,-2.0,-3.0,-2.0
1706277273.4392855,11.0,22.0,15.0,3.0,-2.0,1.0,3.0,4.0
1706277273.4619796,7.0,6.0,2.0,6.0,6.0,2.0,2.0,1.0
1706277273.4619796,-18.0,-31.0,-21.0,-7.0,-7.0,-8.0,-5.0,-7.0
1706277273.4619796,0.0,-4.0,-4.0,-10.0,-1.0,-2.0,-1.0,-1.0
1706277273.4629855,0.0,7.0,1.0,-1.0,0.0,1.0,-1.0,-4.0
1706277273.505407,-1.0,1.0,11.0,4.0,1.0,3.0,4.0,5.0
1706277273.505407,4.0,8.0,-2.0,0.0,1.0,0.0,-1.0,1.0
1706277273.505407,-12.0,-21.0,-24.0,-9.0,-4.0,-4.0,-4.0,-5.0
1706277273.505407,13.0,18.0,18.0,9.0,1.0,2.0,2.0,5.0
1706277273.505407,-20.0,-39.0,-27.0,-13.0,-9.0,-6.0,-6.0,-12.0
1706277273.505407,13.0,24.0,18.0,14.0,7.0,3.0,4.0,3.0
1706277273.505407,-7.0,-6.0,-11.0,-4.0,-7.0,-12.0,-8.0,-4.0
1706277273.505407,-12.0,-24.0,-6.0,-9.0,-2.0,9.0,-3.0,-10.0
1706277273.5208302,16.0,51.0,17.0,-1.0,6.0,10.0,8.0,11.0
1706277273.5208302,-9.0,-21.0,-30.0,-7.0,0.0,-2.0,-4.0,-6.0
1706277273.5208302,10.0,15.0,30.0,12.0,3.0,2.0,2.0,3.0
1706277273.5208302,2.0,2.0,2.0,4.0,-3.0,-11.0,-5.0,0.0
1706277273.552583,-4.0,-12.0,-5.0,2.0,-1.0,-2.0,-5.0,-4.0
1706277273.552583,-1.0,2.0,-12.0,-5.0,-2.0,0.0,1.0,0.0
1706277273.552583,3.0,11.0,4.0,-3.0,0.0,-2.0,-1.0,0.0
1706277273.552583,-12.0,-26.0,-30.0,2.0,-2.0,-6.0,-4.0,-3.0
1706277273.557604,6.0,13.0,33.0,0.0,-1.0,-1.0,-1.0,1.0
1706277273.557604,-2.0,-3.0,-1.0,2.0,-1.0,-1.0,1.0,0.0
1706277273.55861,0.0,0.0,-6.0,-1.0,0.0,2.0,2.0,-2.0
1706277273.55861,-1.0,-4.0,-3.0,2.0,-1.0,-1.0,2.0,2.0
1706277273.5806422,-2.0,0.0,-5.0,-4.0,-2.0,-1.0,-3.0,-5.0
1706277273.5806422,0.0,0.0,2.0,-1.0,-3.0,-3.0,-6.0,-1.0
1706277273.5806422,-1.0,2.0,13.0,4.0,2.0,0.0,-1.0,-2.0
1706277273.5806422,-1.0,-4.0,-21.0,-8.0,1.0,2.0,0.0,0.0
1706277273.6039205,-3.0,0.0,2.0,-5.0,-5.0,-4.0,-2.0,-3.0
1706277273.6039205,-1.0,-2.0,2.0,-8.0,-7.0,-6.0,-6.0,1.0
1706277273.6039205,4.0,10.0,4.0,-2.0,2.0,12.0,6.0,5.0
1706277273.6039205,-1.0,1.0,19.0,6.0,2.0,-4.0,-2.0,-3.0
1706277273.618264,-5.0,-13.0,-33.0,-9.0,-6.0,-8.0,-8.0,-5.0
1706277273.618264,1.0,6.0,16.0,8.0,3.0,2.0,3.0,2.0
1706277273.618264,-1.0,0.0,-7.0,-1.0,-2.0,-4.0,-3.0,1.0
1706277273.618264,0.0,0.0,6.0,-8.0,-3.0,-2.0,-1.0,0.0
1706277273.6388829,-2.0,-6.0,3.0,10.0,3.0,1.0,0.0,0.0
1706277273.6388829,0.0,4.0,-2.0,-5.0,-5.0,-3.0,-2.0,-3.0
1706277273.6388829,-2.0,-2.0,-10.0,-3.0,0.0,1.0,-1.0,-1.0
1706277273.6388829,-4.0,-4.0,-5.0,-5.0,-4.0,-3.0,-1.0,-1.0
1706277273.6587827,2.0,3.0,7.0,5.0,2.0,-1.0,-1.0,0.0
1706277273.6587827,1.0,1.0,-6.0,0.0,2.0,-1.0,0.0,-3.0
1706277273.6587827,-3.0,-5.0,-4.0,0.0,0.0,-1.0,-1.0,-2.0
1706277273.6587827,2.0,1.0,4.0,3.0,0.0,1.0,0.0,1.0
1706277273.6787345,0.0,-4.0,-12.0,-9.0,-6.0,-4.0,-4.0,-1.0
1706277273.6787345,-1.0,2.0,16.0,3.0,4.0,0.0,-1.0,-2.0
1706277273.6787345,-4.0,-5.0,-15.0,-10.0,-8.0,-3.0,-1.0,0.0
1706277273.6787345,-1.0,1.0,2.0,5.0,0.0,0.0,0.0,0.0
1706277273.6991081,-1.0,3.0,-3.0,-12.0,-7.0,-5.0,-3.0,0.0
1706277273.6991081,0.0,7.0,13.0,4.0,2.0,2.0,0.0,1.0
1706277273.6991081,2.0,19.0,20.0,23.0,9.0,1.0,0.0,1.0
1706277273.6991081,-8.0,3.0,-41.0,-10.0,-3.0,-4.0,-4.0,-4.0
1706277273.718766,-1.0,9.0,-6.0,1.0,-1.0,-1.0,1.0,-1.0
1706277273.718766,0.0,4.0,10.0,-2.0,-5.0,-2.0,0.0,-1.0
1706277273.718766,-1.0,-4.0,-12.0,-15.0,-5.0,-1.0,-2.0,-2.0
1706277273.718766,0.0,-5.0,16.0,-2.0,1.0,-2.0,0.0,0.0
1706277273.7290962,0.0,-1.0,15.0,10.0,3.0,3.0,0.0,0.0
1706277273.7290962,3.0,-1.0,0.0,-1.0,-1.0,2.0,0.0,0.0
1706277273.738731,-3.0,-9.0,-5.0,-4.0,-4.0,-6.0,-2.0,-1.0
1706277273.738731,-1.0,-2.0,6.0,0.0,-1.0,1.0,1.0,0.0
1706277273.759084,-4.0,-6.0,-9.0,-6.0,-5.0,-3.0,-3.0,-3.0
1706277273.759084,-1.0,-9.0,-5.0,9.0,10.0,5.0,1.0,1.0
1706277273.759084,1.0,-7.0,3.0,-4.0,2.0,2.0,0.0,0.0
1706277273.759084,1.0,-6.0,-12.0,-1.0,0.0,-2.0,-2.0,-1.0
1706277273.778765,-1.0,-8.0,19.0,0.0,-5.0,-3.0,0.0,-2.0
1706277273.778765,-2.0,-9.0,-16.0,-14.0,-5.0,-3.0,-2.0,-1.0
1706277273.778765,-3.0,-3.0,2.0,-5.0,-1.0,-2.0,-3.0,-4.0
1706277273.778765,-1.0,-1.0,2.0,7.0,2.0,2.0,0.0,1.0
1706277273.7987852,1.0,0.0,-10.0,0.0,-1.0,-4.0,-1.0,0.0
1706277273.7987852,-3.0,-5.0,-8.0,-3.0,-8.0,-2.0,-1.0,-3.0
1706277273.7987852,-2.0,-5.0,-13.0,0.0,2.0,-3.0,-1.0,-1.0
1706277273.7987852,-1.0,-3.0,5.0,-1.0,-2.0,-1.0,-3.0,-2.0
1706277273.818732,-1.0,3.0,12.0,9.0,3.0,1.0,0.0,0.0
1706277273.818732,-3.0,-5.0,-12.0,-4.0,-2.0,-3.0,-2.0,0.0
1706277273.818732,0.0,-2.0,-5.0,0.0,1.0,-2.0,-1.0,-1.0
1706277273.818732,-1.0,0.0,0.0,-9.0,-6.0,-2.0,-1.0,-2.0
1706277273.838994,0.0,1.0,-11.0,-1.0,0.0,0.0,-2.0,-2.0
1706277273.838994,-4.0,-5.0,-8.0,-1.0,-1.0,-1.0,-1.0,-1.0
1706277273.838994,1.0,8.0,22.0,0.0,-2.0,1.0,-1.0,0.0
1706277273.838994,-2.0,-3.0,-12.0,-2.0,0.0,-3.0,-2.0,-2.0
1706277273.8587375,-1.0,-3.0,-3.0,-4.0,1.0,2.0,0.0,0.0
1706277273.8587375,1.0,3.0,5.0,-3.0,-6.0,-2.0,-1.0,-2.0
1706277273.8587375,-1.0,-1.0,-9.0,-1.0,-4.0,1.0,1.0,0.0
1706277273.8587375,-1.0,2.0,7.0,-1.0,1.0,1.0,1.0,-1.0
1706277273.8941746,1.0,1.0,6.0,0.0,0.0,0.0,0.0,0.0
1706277273.8941746,-2.0,1.0,6.0,8.0,-2.0,-3.0,-2.0,-1.0
1706277273.8941746,0.0,-2.0,-10.0,-4.0,4.0,1.0,1.0,-1.0
1706277273.8941746,-1.0,2.0,23.0,0.0,-2.0,-4.0,-2.0,1.0
1706277273.8941746,-1.0,-1.0,-6.0,-3.0,0.0,0.0,-2.0,-2.0
1706277273.8941746,-1.0,-1.0,-7.0,4.0,-1.0,-1.0,-2.0,-2.0
1706277273.9042163,-1.0,-2.0,1.0,4.0,-1.0,2.0,1.0,-2.0
1706277273.9042163,-1.0,-2.0,-4.0,-4.0,0.0,0.0,1.0,-2.0
1706277273.9242265,-2.0,2.0,-2.0,3.0,1.0,1.0,0.0,0.0
1706277273.9242265,0.0,2.0,5.0,-3.0,1.0,-1.0,-1.0,0.0
1706277273.9242265,-3.0,-4.0,1.0,2.0,-1.0,-1.0,-2.0,0.0
1706277273.9242265,0.0,-2.0,-9.0,-4.0,-4.0,-2.0,0.0,0.0
1706277273.9342601,0.0,1.0,3.0,-3.0,0.0,-1.0,-1.0,0.0
1706277273.9342601,1.0,8.0,-1.0,-1.0,-1.0,-1.0,2.0,-1.0
1706277273.9342601,3.0,-4.0,6.0,5.0,3.0,1.0,-1.0,0.0
1706277273.9342601,-1.0,-7.0,6.0,-1.0,-4.0,-1.0,-2.0,-2.0
1706277273.964228,-3.0,-4.0,-9.0,0.0,-2.0,-2.0,-3.0,-3.0
1706277273.964228,3.0,4.0,14.0,5.0,-1.0,0.0,-1.0,1.0
1706277273.964228,-2.0,-18.0,14.0,11.0,5.0,3.0,1.0,-1.0
1706277273.964228,3.0,13.0,-27.0,7.0,3.0,-1.0,-1.0,2.0
1706277273.974591,-6.0,-7.0,6.0,-8.0,-3.0,-4.0,-3.0,-4.0
1706277273.974591,-5.0,-17.0,-19.0,-6.0,-3.0,1.0,-2.0,-4.0
1706277273.974591,0.0,10.0,2.0,-7.0,-6.0,-5.0,-4.0,-1.0
1706277273.974591,-3.0,-7.0,-3.0,-2.0,2.0,1.0,0.0,-2.0
1706277273.994569,-2.0,-5.0,-13.0,2.0,0.0,0.0,3.0,0.0
1706277273.994569,-2.0,3.0,-1.0,-1.0,-3.0,-3.0,-1.0,0.0
1706277274.0042276,0.0,4.0,-6.0,-1.0,1.0,0.0,0.0,0.0
1706277274.0042276,0.0,4.0,8.0,2.0,1.0,1.0,0.0,-1.0
1706277274.0242279,-1.0,-5.0,-6.0,0.0,2.0,1.0,-2.0,-2.0
1706277274.0242279,-8.0,-13.0,7.0,-6.0,-3.0,-2.0,-2.0,-1.0
1706277274.0242279,4.0,10.0,-5.0,-7.0,-3.0,-2.0,-1.0,-1.0
1706277274.0242279,-1.0,-1.0,-6.0,-4.0,-9.0,-2.0,-1.0,-1.0
1706277274.0345614,-1.0,2.0,15.0,10.0,10.0,4.0,2.0,2.0
1706277274.0345614,2.0,-6.0,-21.0,2.0,1.0,0.0,-2.0,-1.0
1706277274.0345614,3.0,16.0,12.0,-20.0,-12.0,-4.0,-3.0,0.0
1706277274.0345614,-9.0,-17.0,-6.0,13.0,7.0,3.0,-1.0,-3.0
1706277274.054226,-2.0,5.0,11.0,3.0,-2.0,-2.0,1.0,0.0
1706277274.054226,-3.0,-18.0,-20.0,6.0,9.0,3.0,1.0,0.0
1706277274.054226,-3.0,2.0,-3.0,-16.0,-11.0,-5.0,-2.0,-2.0
1706277274.054226,4.0,11.0,0.0,-7.0,-2.0,-3.0,-4.0,-2.0
1706277274.0842273,-1.0,-10.0,-8.0,0.0,-2.0,0.0,0.0,0.0
1706277274.0842273,-4.0,8.0,0.0,-1.0,-4.0,-4.0,-3.0,-4.0
1706277274.0842273,-4.0,-16.0,-25.0,4.0,0.0,-2.0,-2.0,-4.0
1706277274.0842273,1.0,15.0,23.0,-13.0,-3.0,1.0,0.0,0.0
1706277274.1042268,1.0,2.0,10.0,8.0,3.0,-2.0,-4.0,-2.0
1706277274.1042268,0.0,-4.0,-14.0,-19.0,-4.0,-2.0,-1.0,0.0
1706277274.1042268,1.0,-1.0,3.0,13.0,-3.0,0.0,2.0,0.0
1706277274.1042268,0.0,3.0,-14.0,-10.0,-1.0,-3.0,-1.0,-2.0
1706277274.1146073,4.0,11.0,5.0,7.0,-3.0,-3.0,-4.0,-3.0
1706277274.1146073,2.0,20.0,6.0,-56.0,-13.0,-5.0,-1.0,-2.0
1706277274.1146073,-2.0,-4.0,7.0,-12.0,-2.0,-1.0,1.0,-1.0
1706277274.1146073,2.0,-7.0,-4.0,5.0,2.0,0.0,0.0,3.0
1706277274.1442406,12.0,15.0,4.0,9.0,6.0,2.0,3.0,6.0
1706277274.1442406,-6.0,-14.0,-17.0,7.0,-1.0,1.0,-1.0,-2.0
1706277274.1442406,-3.0,15.0,8.0,23.0,11.0,3.0,-3.0,-3.0
1706277274.1442406,3.0,24.0,28.0,-8.0,-3.0,-2.0,0.0,2.0
1706277274.1642263,-9.0,-31.0,-25.0,-8.0,-5.0,-4.0,-4.0,-5.0
1706277274.1642263,2.0,4.0,11.0,11.0,-5.0,-2.0,-1.0,-3.0
1706277274.1642263,1.0,-14.0,-10.0,-4.0,-4.0,1.0,0.0,1.0
1706277274.1642263,-6.0,-17.0,-12.0,18.0,8.0,1.0,0.0,-2.0
1706277274.1744227,3.0,14.0,9.0,-2.0,-3.0,0.0,2.0,2.0
1706277274.1744227,-11.0,-31.0,-7.0,2.0,0.0,0.0,-1.0,-4.0
1706277274.1744227,-17.0,-49.0,-21.0,-27.0,-10.0,-9.0,-8.0,-5.0
1706277274.1744227,-9.0,-11.0,-23.0,-2.0,-12.0,-6.0,-6.0,-7.0
1706277274.204227,3.0,13.0,10.0,-6.0,0.0,-3.0,-1.0,-2.0
1706277274.204227,9.0,22.0,22.0,36.0,10.0,2.0,2.0,4.0
1706277274.204227,0.0,12.0,-9.0,-7.0,-4.0,-1.0,-1.0,-3.0
1706277274.204227,-5.0,-17.0,-32.0,-6.0,-6.0,-1.0,-2.0,-5.0
1706277274.2242258,-15.0,-37.0,-14.0,-55.0,-15.0,-7.0,-8.0,-6.0
1706277274.2242258,-9.0,-50.0,-29.0,8.0,-5.0,-4.0,-3.0,-4.0
1706277274.2242258,25.0,35.0,42.0,14.0,7.0,4.0,4.0,10.0
1706277274.2242258,-23.0,-68.0,-30.0,-6.0,-7.0,-9.0,-8.0,-8.0
1706277274.2344937,1.0,15.0,-8.0,3.0,-5.0,-2.0,-1.0,0.0
1706277274.2344937,3.0,14.0,-2.0,-14.0,0.0,1.0,-1.0,-2.0
1706277274.2344937,0.0,-5.0,7.0,16.0,17.0,7.0,5.0,3.0
1706277274.2344937,5.0,8.0,4.0,-10.0,-10.0,-5.0,-1.0,1.0
1706277274.264228,3.0,-5.0,2.0,-43.0,-1.0,1.0,0.0,0.0
1706277274.264228,-6.0,-8.0,12.0,57.0,13.0,4.0,0.0,-1.0
1706277274.264228,-3.0,3.0,-5.0,38.0,-4.0,-3.0,-5.0,-3.0
1706277274.264228,-3.0,5.0,29.0,-2.0,5.0,1.0,4.0,0.0
1706277274.2742596,-21.0,-24.0,-24.0,-27.0,2.0,-5.0,-5.0,-7.0
1706277274.2742596,9.0,58.0,23.0,22.0,-15.0,0.0,-2.0,-1.0
1706277274.284613,-6.0,18.0,-28.0,-35.0,-20.0,-9.0,-5.0,-3.0
1706277274.284613,15.0,55.0,23.0,31.0,19.0,6.0,0.0,3.0
1706277274.2946432,18.0,38.0,-4.0,31.0,-1.0,0.0,2.0,3.0
1706277274.2946432,6.0,12.0,19.0,-51.0,-13.0,-5.0,0.0,2.0
1706277274.2946432,-7.0,-13.0,-26.0,-4.0,13.0,5.0,2.0,1.0
1706277274.2946432,5.0,20.0,17.0,6.0,1.0,1.0,2.0,1.0
1706277274.32423,1.0,17.0,5.0,-8.0,-5.0,-3.0,-1.0,-2.0
1706277274.32423,-3.0,-3.0,-15.0,-3.0,6.0,0.0,-2.0,0.0
1706277274.32423,-4.0,-9.0,4.0,-11.0,-10.0,-5.0,-3.0,-4.0
1706277274.32423,1.0,0.0,-2.0,-6.0,0.0,1.0,-1.0,1.0
1706277274.3342605,-1.0,-12.0,5.0,33.0,-2.0,1.0,1.0,1.0
1706277274.3342605,4.0,-3.0,13.0,0.0,6.0,3.0,2.0,3.0
1706277274.3446288,-3.0,-3.0,-2.0,-4.0,5.0,3.0,1.0,-1.0
1706277274.3446288,-1.0,-11.0,-12.0,-6.0,0.0,3.0,2.0,-1.0
1706277274.3546455,-9.0,-21.0,-7.0,17.0,5.0,-1.0,0.0,-2.0
1706277274.3546455,3.0,6.0,2.0,-4.0,-9.0,-21.0,-9.0,-1.0
1706277274.3546455,-3.0,-1.0,-1.0,5.0,-4.0,-6.0,-6.0,-8.0
1706277274.3546455,14.0,22.0,-1.0,-15.0,4.0,13.0,14.0,10.0
1706277274.3742285,-10.0,-13.0,-1.0,-3.0,-6.0,2.0,-1.0,-8.0
1706277274.3742285,6.0,10.0,34.0,9.0,9.0,-1.0,0.0,0.0
1706277274.3742285,-22.0,-47.0,-57.0,-32.0,-12.0,-19.0,-14.0,-10.0
1706277274.3742285,-6.0,-5.0,-2.0,-4.0,-15.0,-12.0,-6.0,-5.0
1706277274.4062595,6.0,11.0,25.0,17.0,-2.0,-26.0,-12.0,-7.0
1706277274.4062595,12.0,23.0,12.0,13.0,19.0,52.0,33.0,25.0
1706277274.4070961,-11.0,-8.0,-43.0,-20.0,10.0,14.0,9.0,1.0
1706277274.4070961,-11.0,-15.0,-19.0,-4.0,-11.0,-16.0,-13.0,-15.0
1706277274.4206717,-7.0,-10.0,-18.0,2.0,-7.0,-11.0,-10.0,-5.0
1706277274.4206717,3.0,4.0,14.0,3.0,-6.0,-12.0,-8.0,-6.0
1706277274.421682,10.0,32.0,24.0,17.0,7.0,6.0,2.0,-1.0
1706277274.421682,5.0,16.0,25.0,-10.0,-1.0,11.0,9.0,8.0
1706277274.4369977,5.0,5.0,10.0,12.0,9.0,6.0,2.0,4.0
1706277274.4369977,-7.0,-12.0,-22.0,-10.0,-4.0,-13.0,-6.0,-5.0
1706277274.4369977,-5.0,-10.0,10.0,-1.0,-2.0,10.0,3.0,2.0
1706277274.4369977,0.0,-17.0,13.0,15.0,5.0,-3.0,-4.0,1.0
1706277274.4577854,5.0,0.0,-8.0,-7.0,-4.0,4.0,2.0,6.0
1706277274.4577854,-12.0,-13.0,-14.0,-19.0,-7.0,-7.0,-3.0,-11.0
1706277274.467434,5.0,3.0,14.0,8.0,2.0,9.0,6.0,0.0
1706277274.467434,0.0,-7.0,9.0,17.0,4.0,-4.0,-5.0,-3.0
1706277274.4778056,-1.0,-1.0,-7.0,-5.0,1.0,7.0,5.0,5.0
1706277274.4778056,-5.0,-15.0,-22.0,-12.0,0.0,4.0,-1.0,-6.0
1706277274.4778056,3.0,-6.0,8.0,10.0,-1.0,-12.0,-6.0,1.0
1706277274.4778056,0.0,-5.0,-3.0,-4.0,-4.0,-3.0,2.0,5.0
1706277274.4974291,1.0,-4.0,-7.0,-7.0,2.0,13.0,4.0,-1.0
1706277274.4974291,-6.0,-11.0,-8.0,-1.0,-7.0,-15.0,-11.0,-5.0
1706277274.4974291,5.0,11.0,14.0,2.0,-3.0,-5.0,-3.0,-4.0
1706277274.4974291,1.0,-6.0,-13.0,-12.0,-4.0,-4.0,-3.0,4.0
1706277274.5177758,-7.0,-5.0,-5.0,-3.0,3.0,8.0,5.0,-5.0
1706277274.5177758,-6.0,-9.0,-13.0,0.0,-2.0,-7.0,-5.0,-4.0
1706277274.5177758,3.0,-1.0,4.0,-7.0,-8.0,-6.0,-2.0,2.0
1706277274.5274363,4.0,0.0,7.0,1.0,3.0,7.0,2.0,3.0
1706277274.5377805,-1.0,-7.0,11.0,7.0,5.0,0.0,0.0,1.0
1706277274.5377805,0.0,1.0,-3.0,-3.0,2.0,2.0,-1.0,-2.0
1706277274.5377805,0.0,2.0,2.0,-2.0,-5.0,-5.0,-2.0,1.0
1706277274.5377805,-7.0,-9.0,-23.0,-10.0,-2.0,-2.0,-4.0,-7.0
1706277274.5574307,4.0,3.0,4.0,4.0,-2.0,1.0,1.0,2.0
1706277274.5574307,-5.0,7.0,13.0,-1.0,1.0,-2.0,-3.0,-5.0
1706277274.5574307,2.0,5.0,10.0,0.0,3.0,0.0,0.0,-1.0
1706277274.5574307,-1.0,2.0,-3.0,0.0,-2.0,2.0,1.0,-2.0
1706277274.577668,4.0,8.0,3.0,-3.0,-2.0,0.0,-1.0,-1.0
1706277274.577668,-1.0,-2.0,4.0,-2.0,-1.0,-1.0,1.0,0.0
1706277274.5874362,0.0,3.0,5.0,5.0,4.0,0.0,0.0,-2.0
1706277274.5874362,-4.0,-5.0,8.0,3.0,2.0,3.0,0.0,-2.0
1706277274.5976977,-1.0,-1.0,-19.0,0.0,0.0,-5.0,-1.0,-2.0
1706277274.5976977,1.0,0.0,7.0,-7.0,-7.0,-3.0,-3.0,-1.0
1706277274.5976977,1.0,4.0,7.0,4.0,-2.0,-1.0,1.0,0.0
1706277274.5976977,-2.0,2.0,3.0,-7.0,-5.0,-5.0,-2.0,-5.0
1706277274.627433,-2.0,-1.0,5.0,3.0,0.0,2.0,0.0,2.0
1706277274.627433,-2.0,-6.0,-11.0,0.0,5.0,4.0,1.0,0.0
1706277274.627433,-1.0,2.0,6.0,-4.0,-2.0,-3.0,-4.0,-4.0
1706277274.627433,2.0,2.0,-8.0,-5.0,0.0,1.0,2.0,-1.0
1706277274.637468,-10.0,-17.0,-15.0,-9.0,-6.0,-4.0,-4.0,-3.0
1706277274.637468,3.0,4.0,8.0,-1.0,-1.0,0.0,-2.0,1.0
1706277274.6474345,0.0,-2.0,-5.0,2.0,1.0,0.0,0.0,1.0
1706277274.6474345,-1.0,-1.0,6.0,-4.0,-3.0,-4.0,-3.0,-4.0
1706277274.657432,2.0,6.0,9.0,0.0,3.0,4.0,2.0,-1.0
1706277274.657432,-1.0,-6.0,-16.0,-6.0,-3.0,-2.0,-3.0,-3.0
1706277274.657432,-2.0,0.0,6.0,-2.0,0.0,0.0,-3.0,0.0
1706277274.657432,1.0,1.0,3.0,3.0,0.0,1.0,-1.0,0.0
1706277274.677679,1.0,6.0,9.0,1.0,0.0,-1.0,-1.0,1.0
1706277274.677679,-4.0,-9.0,-11.0,-4.0,-3.0,-1.0,0.0,-2.0
1706277274.677679,-2.0,-7.0,-17.0,-4.0,-1.0,1.0,-1.0,-3.0
1706277274.677679,-4.0,-2.0,-10.0,-1.0,0.0,0.0,-1.0,-2.0
1706277274.6974337,4.0,8.0,10.0,-2.0,-3.0,-3.0,0.0,-2.0
1706277274.6974337,4.0,8.0,9.0,0.0,0.0,0.0,0.0,2.0
1706277274.6974337,-1.0,-4.0,-6.0,0.0,0.0,0.0,-1.0,0.0
1706277274.7074337,0.0,2.0,-3.0,0.0,-1.0,-2.0,-2.0,0.0
1706277274.717431,-2.0,-6.0,-10.0,5.0,0.0,-1.0,0.0,-3.0
1706277274.717431,1.0,4.0,8.0,3.0,1.0,0.0,0.0,1.0
1706277274.717431,0.0,-1.0,3.0,-10.0,-1.0,-1.0,1.0,1.0
1706277274.717431,-2.0,-2.0,0.0,3.0,0.0,0.0,0.0,0.0
1706277274.7376957,0.0,-1.0,-3.0,-4.0,-1.0,-4.0,-1.0,-1.0
1706277274.7376957,-6.0,-14.0,-23.0,-1.0,-1.0,0.0,0.0,-5.0
1706277274.7376957,-1.0,0.0,7.0,2.0,-3.0,-7.0,-4.0,-6.0
1706277274.7376957,1.0,2.0,5.0,3.0,4.0,9.0,5.0,4.0
1706277274.7574399,-1.0,4.0,10.0,1.0,0.0,-1.0,-4.0,-2.0
1706277274.7574399,-1.0,-1.0,1.0,-5.0,-5.0,-8.0,-2.0,9.0
1706277274.7674358,-2.0,-1.0,-3.0,-4.0,-2.0,-1.0,-5.0,-10.0
1706277274.7674358,0.0,-2.0,5.0,2.0,0.0,6.0,2.0,0.0
1706277274.7874296,-2.0,-3.0,-13.0,-8.0,-5.0,-2.0,0.0,2.0
1706277274.7874296,-1.0,0.0,11.0,3.0,1.0,-2.0,-1.0,-2.0
1706277274.7874296,2.0,7.0,2.0,3.0,1.0,-2.0,3.0,7.0
1706277274.7874296,-3.0,-7.0,-9.0,-2.0,-1.0,-4.0,-1.0,-2.0
1706277274.7977123,-4.0,-6.0,-25.0,-7.0,-2.0,-1.0,-2.0,-3.0
1706277274.7977123,8.0,9.0,6.0,12.0,7.0,6.0,3.0,3.0
1706277274.7977123,-6.0,-2.0,-8.0,-7.0,-8.0,-7.0,-3.0,-2.0
1706277274.7977123,-3.0,-8.0,10.0,-3.0,-1.0,-1.0,-4.0,-5.0
1706277274.8177502,-2.0,-4.0,0.0,-2.0,-1.0,-2.0,0.0,2.0
1706277274.8177502,-2.0,-5.0,-12.0,-5.0,-2.0,0.0,0.0,-2.0
1706277274.8177502,-1.0,-1.0,9.0,6.0,3.0,1.0,-1.0,0.0
1706277274.8177502,3.0,9.0,2.0,-2.0,-3.0,-5.0,-2.0,1.0
1706277274.8374293,1.0,-1.0,-8.0,6.0,0.0,0.0,-2.0,0.0
1706277274.8374293,-5.0,3.0,13.0,-13.0,-7.0,-6.0,-3.0,-5.0
1706277274.8374293,0.0,-3.0,-9.0,1.0,1.0,2.0,2.0,1.0
1706277274.8374293,-2.0,-1.0,7.0,-2.0,0.0,-3.0,-3.0,-1.0
1706277274.8577971,0.0,-1.0,0.0,3.0,3.0,-1.0,-1.0,-3.0
1706277274.8577971,-4.0,-5.0,-6.0,2.0,1.0,0.0,0.0,-4.0
1706277274.8577971,-5.0,-15.0,-10.0,-6.0,-4.0,-2.0,0.0,-3.0
1706277274.8577971,5.0,11.0,15.0,4.0,1.0,-2.0,0.0,1.0
1706277274.88743,-8.0,-18.0,-62.0,-17.0,-7.0,-6.0,-4.0,-4.0
1706277274.88743,-2.0,5.0,9.0,1.0,-1.0,-1.0,-3.0,0.0
1706277274.88743,0.0,3.0,8.0,-2.0,-2.0,0.0,2.0,-2.0
1706277274.88743,-1.0,-2.0,-10.0,0.0,0.0,-1.0,0.0,3.0
1706277274.897631,-2.0,7.0,8.0,-1.0,1.0,2.0,1.0,-3.0
1706277274.897631,-3.0,-1.0,-3.0,-1.0,-3.0,0.0,-2.0,-2.0
1706277274.897631,1.0,7.0,-3.0,3.0,0.0,-1.0,-2.0,1.0
1706277274.897631,-2.0,-4.0,-14.0,-6.0,-4.0,-5.0,-2.0,-3.0
1706277274.917783,-1.0,5.0,25.0,5.0,3.0,4.0,2.0,3.0
1706277274.917783,-2.0,-8.0,-12.0,-3.0,4.0,-1.0,-1.0,-3.0
1706277274.917783,0.0,8.0,20.0,6.0,0.0,-2.0,-2.0,0.0
1706277274.917783,-3.0,-5.0,1.0,2.0,0.0,-4.0,-2.0,-2.0
1706277274.9486368,-1.0,-4.0,-6.0,1.0,-3.0,-2.0,-3.0,1.0
1706277274.9486368,1.0,6.0,8.0,-1.0,-3.0,-4.0,-2.0,-4.0
1706277274.9486368,-1.0,-5.0,-7.0,-6.0,0.0,-1.0,-1.0,-3.0
1706277274.9486368,0.0,-1.0,-8.0,0.0,-4.0,-2.0,-2.0,-1.0
1706277274.960036,-1.0,-1.0,7.0,1.0,1.0,2.0,-1.0,0.0
1706277274.960036,-2.0,-2.0,-4.0,-1.0,0.0,1.0,1.0,2.0
1706277274.960036,2.0,2.0,-5.0,-2.0,0.0,-1.0,1.0,1.0
1706277274.960036,-2.0,2.0,-3.0,-1.0,0.0,-1.0,-2.0,-2.0
1706277274.9802933,1.0,2.0,8.0,-9.0,-6.0,-2.0,-2.0,0.0
1706277274.9802933,0.0,0.0,-9.0,-10.0,-5.0,1.0,0.0,-1.0
1706277274.9802933,-1.0,-1.0,7.0,9.0,4.0,2.0,1.0,0.0
1706277274.9802933,0.0,-2.0,-6.0,-1.0,1.0,-1.0,-2.0,-1.0
1706277275.0100317,-1.0,6.0,10.0,-2.0,-1.0,-1.0,1.0,-1.0
1706277275.0100317,-2.0,0.0,-1.0,4.0,-3.0,-3.0,-2.0,-2.0
1706277275.0100317,0.0,4.0,-2.0,1.0,1.0,2.0,-2.0,-1.0
1706277275.0100317,-2.0,-7.0,-4.0,-6.0,-1.0,0.0,0.0,-2.0
1706277275.0200324,3.0,6.0,7.0,-3.0,-3.0,-6.0,-3.0,-2.0
1706277275.0200324,-1.0,-2.0,-1.0,-1.0,-5.0,-3.0,-2.0,-1.0
1706277275.0200324,-1.0,-8.0,-17.0,-2.0,-1.0,-1.0,0.0,-2.0
1706277275.0200324,-5.0,-4.0,-15.0,2.0,3.0,4.0,-1.0,-1.0
1706277275.0400424,-4.0,-4.0,1.0,-1.0,-1.0,1.0,-2.0,-4.0
1706277275.0400424,1.0,-3.0,4.0,-2.0,1.0,-2.0,0.0,0.0
1706277275.0400424,-1.0,-4.0,-3.0,-7.0,-1.0,3.0,-1.0,2.0
1706277275.0400424,0.0,0.0,1.0,-2.0,-3.0,-1.0,-2.0,-2.0
1706277275.0600338,-1.0,-5.0,4.0,6.0,-1.0,-1.0,1.0,0.0
1706277275.0600338,-1.0,4.0,2.0,-1.0,0.0,0.0,-3.0,-2.0
1706277275.0600338,0.0,7.0,2.0,-2.0,-5.0,-3.0,-2.0,0.0
1706277275.0600338,-2.0,-4.0,3.0,-2.0,0.0,1.0,-2.0,-1.0
1706277275.080214,1.0,1.0,1.0,1.0,2.0,-1.0,-1.0,0.0
1706277275.080214,-1.0,-1.0,-8.0,-1.0,1.0,0.0,0.0,1.0
1706277275.080214,1.0,7.0,12.0,-2.0,0.0,-1.0,1.0,0.0
1706277275.080214,-7.0,-13.0,-25.0,-13.0,-6.0,-7.0,-3.0,-4.0
1706277275.110066,1.0,0.0,15.0,-1.0,-5.0,-1.0,-1.0,-1.0
1706277275.110066,-3.0,-8.0,-1.0,-2.0,1.0,-1.0,-2.0,-4.0
1706277275.110066,-3.0,-8.0,-7.0,-4.0,-1.0,-3.0,-2.0,-2.0
1706277275.110066,3.0,4.0,6.0,4.0,3.0,10.0,5.0,2.0
1706277275.1202679,-3.0,-5.0,-5.0,-4.0,-1.0,-2.0,-2.0,0.0
1706277275.1202679,0.0,-4.0,-5.0,0.0,-2.0,-1.0,-2.0,-1.0
1706277275.1202679,-2.0,-6.0,0.0,0.0,-2.0,-3.0,-3.0,-3.0
1706277275.1202679,0.0,3.0,2.0,3.0,0.0,-2.0,0.0,-1.0
1706277275.1400337,0.0,-4.0,-10.0,-2.0,-2.0,0.0,-2.0,-2.0
1706277275.1400337,1.0,4.0,1.0,3.0,3.0,3.0,2.0,2.0
1706277275.1400337,0.0,-8.0,-17.0,0.0,0.0,0.0,0.0,2.0
1706277275.1400337,-1.0,16.0,11.0,-1.0,-3.0,-3.0,-4.0,-1.0
1706277275.160084,0.0,-1.0,9.0,7.0,-1.0,-1.0,0.0,1.0
1706277275.160084,0.0,-4.0,-11.0,5.0,0.0,-2.0,-2.0,-1.0
1706277275.160084,0.0,1.0,4.0,-16.0,-1.0,2.0,0.0,0.0
1706277275.160084,-1.0,-4.0,-3.0,1.0,-2.0,-3.0,-1.0,-1.0
1706277275.1800594,0.0,2.0,-7.0,-2.0,1.0,-1.0,0.0,-4.0
1706277275.1800594,2.0,6.0,13.0,8.0,3.0,-1.0,1.0,3.0
1706277275.1800594,-7.0,-13.0,-21.0,-5.0,-5.0,-4.0,-2.0,-2.0
1706277275.1800594,-2.0,-11.0,-9.0,-3.0,-2.0,0.0,-1.0,-1.0
1706277275.200268,1.0,3.0,2.0,-3.0,-1.0,0.0,-1.0,-3.0
1706277275.200268,1.0,7.0,4.0,-2.0,0.0,-1.0,-1.0,-2.0
1706277275.200268,0.0,3.0,5.0,1.0,-1.0,-1.0,0.0,-2.0
1706277275.200268,-2.0,-9.0,6.0,0.0,-3.0,-2.0,-3.0,0.0
1706277275.2300317,0.0,1.0,-4.0,-1.0,0.0,-1.0,1.0,1.0
1706277275.2300317,-6.0,-18.0,-10.0,-6.0,1.0,2.0,1.0,-1.0
1706277275.2300317,6.0,32.0,10.0,5.0,2.0,-1.0,0.0,0.0
1706277275.2300317,2.0,13.0,-1.0,0.0,-2.0,-4.0,-3.0,-3.0
1706277275.2403615,-4.0,-9.0,5.0,2.0,0.0,-1.0,-1.0,-1.0
1706277275.2403615,2.0,6.0,-6.0,-10.0,-3.0,-2.0,-1.0,-1.0
1706277275.2403615,0.0,14.0,0.0,-1.0,-3.0,-2.0,-5.0,-3.0
1706277275.2403615,-1.0,-6.0,-3.0,1.0,-1.0,-2.0,0.0,0.0
1706277275.2603843,0.0,1.0,-2.0,-8.0,-4.0,-2.0,-2.0,-1.0
1706277275.2603843,1.0,10.0,2.0,2.0,0.0,1.0,1.0,-1.0
1706277275.2603843,-3.0,-4.0,5.0,0.0,-3.0,-1.0,-2.0,-2.0
1706277275.2603843,-4.0,1.0,-5.0,-3.0,0.0,0.0,0.0,-2.0
1706277275.3003788,-1.0,-9.0,5.0,5.0,1.0,-1.0,1.0,2.0
1706277275.3003788,-5.0,8.0,3.0,-8.0,-5.0,-4.0,-4.0,-4.0
1706277275.3003788,-3.0,-18.0,-9.0,-3.0,-1.0,0.0,-1.0,0.0
1706277275.3003788,1.0,4.0,12.0,-2.0,-2.0,-3.0,-2.0,-3.0
1706277275.3003788,3.0,10.0,-5.0,1.0,1.0,2.0,-1.0,2.0
1706277275.3003788,-3.0,-8.0,-7.0,-4.0,-4.0,-1.0,-1.0,-2.0
1706277275.3003788,-3.0,-9.0,1.0,2.0,-3.0,-2.0,-2.0,-1.0
1706277275.3003788,5.0,0.0,1.0,10.0,7.0,2.0,4.0,3.0
1706277275.3303819,-1.0,10.0,-22.0,-11.0,-6.0,-3.0,-3.0,-5.0
1706277275.3303819,-7.0,-17.0,-9.0,-4.0,-5.0,-5.0,-5.0,-3.0
1706277275.3303819,0.0,4.0,4.0,8.0,4.0,1.0,1.0,0.0
1706277275.3303819,-1.0,-5.0,1.0,-8.0,-2.0,0.0,-1.0,1.0
1706277275.340405,1.0,5.0,17.0,11.0,4.0,4.0,3.0,2.0
1706277275.340405,-1.0,2.0,-24.0,-30.0,-8.0,-2.0,-2.0,-2.0
1706277275.340405,1.0,-3.0,14.0,29.0,7.0,2.0,0.0,2.0
1706277275.340405,3.0,-11.0,-3.0,0.0,-1.0,2.0,2.0,2.0
1706277275.360779,4.0,30.0,19.0,7.0,3.0,0.0,1.0,0.0
1706277275.360779,6.0,16.0,8.0,4.0,1.0,2.0,1.0,0.0
1706277275.360779,-11.0,-25.0,-16.0,-20.0,-5.0,-4.0,-3.0,-6.0
1706277275.360779,-7.0,-17.0,4.0,-3.0,-6.0,-6.0,-4.0,-2.0
1706277275.390379,-6.0,-23.0,-3.0,7.0,2.0,0.0,0.0,-3.0
1706277275.390379,0.0,-13.0,-1.0,18.0,2.0,4.0,3.0,3.0
1706277275.390379,-8.0,4.0,-1.0,5.0,-1.0,-2.0,-2.0,-3.0
1706277275.390379,0.0,10.0,7.0,3.0,2.0,1.0,0.0,-2.0
1706277275.4003785,-4.0,-10.0,-18.0,-8.0,-4.0,-3.0,-1.0,-2.0
1706277275.4003785,-3.0,-4.0,4.0,-5.0,1.0,0.0,0.0,0.0
1706277275.4003785,1.0,-5.0,7.0,-5.0,0.0,0.0,1.0,0.0
1706277275.4003785,0.0,5.0,-9.0,-9.0,-7.0,-6.0,-4.0,-3.0
1706277275.420783,-5.0,-8.0,-6.0,-5.0,-3.0,-2.0,-3.0,-2.0
1706277275.420783,1.0,3.0,-3.0,6.0,-1.0,0.0,-1.0,-1.0
1706277275.420783,6.0,12.0,3.0,-6.0,-1.0,-1.0,1.0,2.0
1706277275.420783,1.0,20.0,4.0,2.0,-2.0,-1.0,0.0,0.0
1706277275.457639,-3.0,-17.0,-11.0,-6.0,4.0,2.0,0.0,0.0
1706277275.457639,-1.0,-1.0,4.0,7.0,1.0,-4.0,-1.0,0.0
1706277275.457639,-1.0,-4.0,2.0,-11.0,-5.0,-1.0,-2.0,-1.0
1706277275.457639,1.0,10.0,-7.0,0.0,1.0,-2.0,-1.0,-1.0
1706277275.4629083,3.0,14.0,7.0,-1.0,-6.0,-2.0,-2.0,-2.0
1706277275.4629083,0.0,4.0,-2.0,-2.0,2.0,-1.0,-2.0,-3.0
1706277275.463763,-4.0,-14.0,-3.0,1.0,-5.0,-2.0,-1.0,0.0
1706277275.463763,0.0,-5.0,-4.0,-2.0,-2.0,-2.0,-1.0,0.0
1706277275.4865,-3.0,-5.0,-3.0,-3.0,-1.0,-3.0,-3.0,-3.0
1706277275.4865,-4.0,-8.0,-1.0,-7.0,-1.0,-1.0,-1.0,-1.0
1706277275.4865,7.0,14.0,0.0,-3.0,2.0,2.0,1.0,1.0
1706277275.4865,-6.0,-14.0,2.0,18.0,0.0,-1.0,-3.0,-4.0
1706277275.5062027,-3.0,-8.0,-11.0,-10.0,-4.0,-4.0,-3.0,-1.0
1706277275.5062027,4.0,1.0,-1.0,4.0,4.0,5.0,2.0,2.0
1706277275.5062027,-7.0,-11.0,-9.0,4.0,4.0,-1.0,-1.0,-2.0
1706277275.5062027,-3.0,-10.0,-5.0,-9.0,-10.0,-4.0,-1.0,-2.0
1706277275.5162206,1.0,5.0,11.0,-6.0,2.0,-2.0,-1.0,-1.0
1706277275.5162206,-3.0,-4.0,4.0,8.0,3.0,-1.0,0.0,0.0
1706277275.5162206,2.0,2.0,-13.0,-8.0,-5.0,0.0,1.0,1.0
1706277275.5162206,3.0,10.0,1.0,3.0,9.0,0.0,1.0,1.0
1706277275.5463405,5.0,14.0,6.0,-1.0,-3.0,-1.0,-1.0,-2.0
1706277275.5463405,-11.0,-16.0,-1.0,-4.0,-4.0,-2.0,-2.0,-5.0
1706277275.5463405,-1.0,3.0,4.0,2.0,-1.0,0.0,-1.0,-2.0
1706277275.5463405,-2.0,-4.0,-2.0,-2.0,-3.0,-2.0,-2.0,-1.0
1706277275.576185,-2.0,5.0,6.0,5.0,1.0,1.0,0.0,1.0
1706277275.576185,9.0,19.0,1.0,3.0,0.0,1.0,2.0,3.0
1706277275.576185,-5.0,-18.0,-14.0,-4.0,-3.0,-4.0,-3.0,-3.0
1706277275.576185,0.0,9.0,4.0,-5.0,1.0,1.0,1.0,-1.0
1706277275.576185,-2.0,-10.0,0.0,2.0,2.0,0.0,-1.0,1.0
1706277275.576185,-1.0,-5.0,-2.0,-1.0,-2.0,-2.0,-3.0,-2.0
1706277275.576185,2.0,7.0,3.0,2.0,6.0,1.0,0.0,-1.0
1706277275.576185,-4.0,-9.0,-6.0,-9.0,-8.0,-1.0,-1.0,-2.0
1706277275.6063871,-1.0,-4.0,-8.0,-2.0,-3.0,-2.0,-1.0,-2.0
1706277275.6063871,-2.0,-1.0,0.0,-2.0,0.0,-5.0,-3.0,-3.0
1706277275.6063871,1.0,1.0,1.0,-3.0,-6.0,-3.0,-2.0,0.0
1706277275.6063871,-3.0,-4.0,3.0,-1.0,2.0,2.0,0.0,-2.0
1706277275.6262336,-2.0,-6.0,-4.0,0.0,1.0,-2.0,-1.0,-1.0
1706277275.6262336,-4.0,-6.0,-9.0,-7.0,-8.0,-4.0,0.0,-2.0
1706277275.6262336,3.0,7.0,19.0,16.0,5.0,0.0,-1.0,0.0
1706277275.6262336,-1.0,-3.0,-20.0,-21.0,-1.0,4.0,1.0,1.0
1706277275.636471,-4.0,-5.0,2.0,-3.0,-7.0,-8.0,-5.0,-3.0
1706277275.636471,2.0,3.0,11.0,4.0,5.0,4.0,2.0,0.0
1706277275.636471,-1.0,-3.0,-1.0,0.0,1.0,-3.0,-1.0,0.0
1706277275.636471,0.0,-2.0,7.0,6.0,0.0,-5.0,-3.0,-1.0
1706277275.66625,3.0,16.0,5.0,6.0,2.0,1.0,1.0,1.0
1706277275.66625,-5.0,-12.0,-7.0,-6.0,-5.0,-5.0,-5.0,-3.0
1706277275.66625,-2.0,-1.0,-3.0,-2.0,-1.0,2.0,-1.0,-4.0
1706277275.66625,-1.0,-5.0,-2.0,1.0,-2.0,-2.0,-1.0,-2.0
1706277275.6961844,-2.0,-3.0,-6.0,-5.0,-3.0,0.0,1.0,-1.0
1706277275.6961844,2.0,4.0,2.0,1.0,1.0,-2.0,-1.0,2.0
1706277275.6961844,-3.0,-1.0,-4.0,-6.0,-6.0,-18.0,-12.0,-4.0
1706277275.6961844,4.0,4.0,4.0,11.0,17.0,43.0,20.0,7.0
1706277275.6961844,-2.0,-6.0,-7.0,2.0,-1.0,-4.0,-3.0,-4.0
1706277275.6961844,-7.0,-13.0,-28.0,-12.0,-6.0,1.0,0.0,-4.0
1706277275.6961844,2.0,2.0,5.0,4.0,2.0,0.0,0.0,3.0
1706277275.6961844,-6.0,-10.0,-18.0,-19.0,-9.0,-15.0,-8.0,-8.0
1706277275.7261834,2.0,2.0,2.0,-1.0,-1.0,2.0,1.0,-1.0
1706277275.7261834,1.0,4.0,11.0,3.0,2.0,2.0,0.0,4.0
1706277275.7261834,-6.0,-7.0,-22.0,-6.0,-5.0,-2.0,1.0,-3.0
1706277275.7261834,-2.0,-1.0,8.0,4.0,-7.0,-12.0,-7.0,-5.0
1706277275.7465293,0.0,13.0,3.0,0.0,0.0,3.0,1.0,0.0
1706277275.7465293,-9.0,-13.0,-7.0,-7.0,-4.0,-5.0,-5.0,-8.0
1706277275.7465293,-1.0,2.0,4.0,1.0,0.0,2.0,0.0,1.0
1706277275.7465293,-2.0,-5.0,4.0,2.0,-5.0,-4.0,-1.0,0.0
1706277275.7564087,-2.0,-10.0,-8.0,-3.0,0.0,-2.0,-4.0,-4.0
1706277275.7564087,6.0,8.0,9.0,3.0,3.0,0.0,0.0,3.0
1706277275.7564087,-5.0,-11.0,-8.0,-4.0,-5.0,0.0,0.0,-1.0
1706277275.7564087,1.0,3.0,-1.0,-3.0,-1.0,-3.0,-3.0,-1.0
1706277275.7961855,-4.0,-3.0,5.0,-8.0,1.0,-1.0,-1.0,-1.0
1706277275.7961855,2.0,5.0,7.0,25.0,4.0,0.0,0.0,0.0
1706277275.7961855,4.0,8.0,7.0,22.0,15.0,8.0,4.0,1.0
1706277275.7961855,-1.0,0.0,1.0,2.0,-5.0,-8.0,-4.0,-1.0
1706277275.806186,-1.0,-9.0,-6.0,-5.0,-5.0,-3.0,-2.0,-2.0
1706277275.806186,-1.0,-3.0,3.0,-2.0,1.0,2.0,0.0,-1.0
1706277275.806186,0.0,2.0,-4.0,-13.0,-6.0,-1.0,-1.0,-2.0
1706277275.806186,-1.0,-2.0,-4.0,4.0,0.0,-3.0,-2.0,1.0
1706277275.8165863,-4.0,-6.0,-2.0,-5.0,-2.0,-1.0,1.0,0.0
1706277275.8165863,5.0,18.0,-2.0,-6.0,-5.0,-1.0,0.0,0.0
1706277275.8165863,-1.0,0.0,0.0,-6.0,-2.0,1.0,0.0,-1.0
1706277275.8165863,-2.0,-5.0,3.0,-4.0,-4.0,-5.0,-2.0,-3.0
1706277275.8463333,-4.0,-9.0,-6.0,3.0,1.0,3.0,0.0,0.0
1706277275.8463333,3.0,-2.0,-2.0,-1.0,3.0,-1.0,0.0,-1.0
1706277275.8463333,0.0,-1.0,-2.0,6.0,3.0,-1.0,-2.0,-1.0
1706277275.8463333,1.0,2.0,-1.0,-2.0,-3.0,-4.0,-2.0,-2.0
1706277275.8665214,1.0,5.0,4.0,7.0,0.0,2.0,-2.0,-1.0
1706277275.8665214,-2.0,-9.0,0.0,-1.0,-3.0,-4.0,-1.0,1.0
1706277275.8665214,1.0,3.0,0.0,-9.0,-5.0,-2.0,2.0,-2.0
1706277275.8665214,-1.0,-5.0,-5.0,3.0,3.0,-1.0,-3.0,-1.0
1706277275.8761857,0.0,-6.0,-3.0,1.0,-6.0,-2.0,-2.0,3.0
1706277275.8761857,-1.0,2.0,7.0,-16.0,-3.0,0.0,0.0,-1.0
1706277275.8761857,-3.0,-3.0,3.0,0.0,0.0,-3.0,-2.0,-3.0
1706277275.8761857,4.0,13.0,13.0,0.0,2.0,2.0,0.0,0.0
1706277275.9064877,5.0,0.0,-17.0,10.0,7.0,2.0,1.0,2.0
1706277275.9064877,1.0,4.0,11.0,-11.0,-12.0,-5.0,-1.0,0.0
1706277275.9064877,-3.0,-3.0,-1.0,9.0,5.0,1.0,0.0,-1.0
1706277275.9064877,-11.0,-17.0,-14.0,-34.0,-12.0,-8.0,-5.0,-6.0
1706277275.9265754,-1.0,-6.0,-10.0,3.0,2.0,2.0,0.0,2.0
1706277275.9265754,10.0,34.0,30.0,15.0,3.0,0.0,0.0,0.0
1706277275.9265754,-7.0,-8.0,-26.0,-21.0,-12.0,-10.0,-8.0,-4.0
1706277275.9265754,5.0,10.0,-4.0,8.0,-2.0,-5.0,-3.0,-1.0
1706277275.946184,-3.0,-11.0,5.0,2.0,6.0,7.0,2.0,-2.0
1706277275.946184,-4.0,-10.0,1.0,-8.0,-4.0,-2.0,-2.0,1.0
1706277275.946184,4.0,11.0,16.0,7.0,2.0,3.0,0.0,0.0
1706277275.946184,-1.0,-2.0,-8.0,6.0,1.0,-3.0,-1.0,1.0
1706277275.9666097,-2.0,5.0,-1.0,-10.0,-6.0,-5.0,-3.0,-2.0
1706277275.9666097,-4.0,-9.0,-15.0,3.0,6.0,2.0,-2.0,-6.0
1706277275.9666097,0.0,-4.0,3.0,-4.0,-2.0,-3.0,0.0,0.0
1706277275.9666097,0.0,-8.0,-8.0,3.0,2.0,3.0,2.0,1.0
1706277275.9890249,0.0,4.0,4.0,-7.0,-5.0,-9.0,-3.0,-3.0
1706277275.9890249,-4.0,-6.0,-7.0,1.0,-1.0,2.0,0.0,-1.0
1706277275.9890249,-3.0,-5.0,-2.0,-4.0,-1.0,2.0,3.0,-1.0
1706277275.9890249,2.0,2.0,-1.0,0.0,4.0,3.0,1.0,1.0
1706277276.0026171,0.0,0.0,-2.0,1.0,-2.0,-1.0,-1.0,-1.0
1706277276.0026171,-4.0,-8.0,0.0,4.0,0.0,-1.0,-1.0,-3.0
1706277276.0089617,-1.0,-2.0,7.0,-8.0,-6.0,0.0,-3.0,-1.0
1706277276.0089617,0.0,2.0,7.0,8.0,4.0,4.0,2.0,0.0
1706277276.0189526,-4.0,0.0,3.0,-5.0,-2.0,-1.0,-1.0,-1.0
1706277276.0189526,-3.0,-5.0,-17.0,-8.0,-3.0,-5.0,-4.0,-3.0
1706277276.0189526,2.0,1.0,-4.0,-1.0,3.0,6.0,3.0,-1.0
1706277276.0189526,-3.0,-2.0,2.0,-3.0,-1.0,-1.0,-1.0,-2.0
1706277276.049518,0.0,0.0,-5.0,-5.0,-5.0,-5.0,-1.0,-1.0
1706277276.049518,-2.0,-6.0,-4.0,2.0,1.0,0.0,0.0,1.0
1706277276.049518,1.0,3.0,-2.0,-2.0,-2.0,-3.0,-2.0,-1.0
1706277276.049518,1.0,4.0,12.0,-2.0,-2.0,-2.0,-1.0,-2.0
1706277276.069482,-3.0,-7.0,-18.0,-2.0,0.0,-4.0,-2.0,-3.0
1706277276.069482,-6.0,-9.0,-15.0,5.0,2.0,0.0,-2.0,-2.0
1706277276.069482,2.0,3.0,2.0,-2.0,-3.0,-4.0,-2.0,2.0
1706277276.069482,0.0,-2.0,17.0,3.0,0.0,3.0,2.0,5.0
1706277276.0796993,1.0,-3.0,3.0,0.0,-4.0,-3.0,-1.0,-2.0
1706277276.0796993,-1.0,6.0,-3.0,-3.0,-2.0,-2.0,-1.0,-1.0
1706277276.0796993,-3.0,-6.0,-10.0,2.0,2.0,1.0,-1.0,0.0
1706277276.0796993,-1.0,-1.0,-6.0,-4.0,-3.0,-4.0,-2.0,-4.0
1706277276.12948,2.0,7.0,15.0,-1.0,-4.0,3.0,0.0,2.0
1706277276.12948,2.0,-4.0,1.0,6.0,0.0,1.0,1.0,1.0
1706277276.12948,-2.0,-6.0,-2.0,-10.0,0.0,-2.0,-1.0,-2.0
1706277276.12948,-1.0,-1.0,5.0,3.0,-7.0,-2.0,-2.0,-2.0
1706277276.12948,-1.0,-4.0,-9.0,1.0,4.0,2.0,1.0,0.0
1706277276.12948,-1.0,0.0,-1.0,1.0,5.0,-1.0,0.0,-1.0
1706277276.12948,0.0,14.0,3.0,1.0,-3.0,-1.0,0.0,-1.0
1706277276.12948,-3.0,-6.0,-7.0,4.0,7.0,1.0,-2.0,-2.0
1706277276.1396444,-5.0,-6.0,-6.0,-8.0,-5.0,-2.0,-2.0,-2.0
1706277276.1396444,-1.0,-5.0,-4.0,-4.0,-6.0,-4.0,-3.0,0.0
1706277276.1494813,-1.0,-4.0,-5.0,-12.0,-1.0,3.0,3.0,-1.0
1706277276.1494813,1.0,1.0,-11.0,-2.0,-1.0,-4.0,-3.0,0.0
1706277276.1794834,0.0,5.0,15.0,4.0,0.0,0.0,-1.0,-2.0
1706277276.1794834,-2.0,-4.0,-8.0,-2.0,0.0,0.0,0.0,0.0
1706277276.1794834,-2.0,-2.0,13.0,4.0,-1.0,-1.0,-2.0,-2.0
1706277276.1794834,0.0,1.0,-2.0,-4.0,-4.0,-3.0,0.0,-2.0
1706277276.1794834,-1.0,-2.0,-2.0,-1.0,1.0,-2.0,-2.0,0.0
1706277276.1794834,-1.0,-4.0,-1.0,-2.0,-3.0,0.0,-1.0,-1.0
1706277276.1896353,1.0,-3.0,-5.0,5.0,-1.0,-1.0,-2.0,-1.0
1706277276.1896353,-2.0,-3.0,3.0,1.0,3.0,3.0,2.0,1.0
1706277276.1999528,-1.0,-3.0,-1.0,-5.0,-1.0,-3.0,-1.0,-1.0
1706277276.1999528,-2.0,-7.0,-11.0,-9.0,-7.0,-6.0,-4.0,-3.0
1706277276.1999528,-1.0,-3.0,6.0,8.0,0.0,0.0,0.0,0.0
1706277276.1999528,-1.0,-1.0,-3.0,-2.0,0.0,0.0,-2.0,-2.0
1706277276.229652,-2.0,-3.0,4.0,-2.0,-3.0,-2.0,3.0,2.0
1706277276.229652,-2.0,-1.0,-4.0,-4.0,-1.0,0.0,-2.0,-2.0
1706277276.229652,0.0,-5.0,-4.0,-10.0,-3.0,-5.0,-2.0,-3.0
1706277276.229652,0.0,-6.0,5.0,1.0,-2.0,-1.0,-2.0,-2.0
1706277276.2396872,-2.0,-3.0,6.0,3.0,2.0,0.0,-3.0,-4.0
1706277276.2396872,-4.0,-1.0,2.0,1.0,-1.0,1.0,1.0,-1.0
1706277276.249937,-1.0,1.0,-6.0,1.0,-1.0,1.0,1.0,1.0
1706277276.249937,0.0,5.0,-5.0,-2.0,1.0,-2.0,-2.0,0.0
1706277276.2596612,0.0,4.0,-8.0,-4.0,0.0,-1.0,-2.0,-2.0
1706277276.2596612,0.0,10.0,8.0,2.0,-1.0,0.0,1.0,0.0
1706277276.2596612,2.0,6.0,-14.0,-2.0,-4.0,1.0,-2.0,0.0
1706277276.2596612,-3.0,13.0,20.0,4.0,0.0,0.0,1.0,-1.0
1706277276.2996507,-1.0,4.0,-26.0,-1.0,2.0,-1.0,-2.0,-2.0
1706277276.2996507,-2.0,4.0,1.0,-3.0,2.0,1.0,-2.0,-8.0
1706277276.2996507,-1.0,1.0,1.0,0.0,-1.0,1.0,1.0,1.0
1706277276.2996507,0.0,-5.0,-8.0,-2.0,-1.0,1.0,0.0,1.0
1706277276.3099186,5.0,0.0,29.0,9.0,1.0,-1.0,0.0,3.0
1706277276.3099186,-6.0,-21.0,-27.0,-12.0,-5.0,-3.0,-3.0,-2.0
1706277276.3099186,0.0,-8.0,6.0,6.0,0.0,-2.0,0.0,-3.0
1706277276.3099186,-2.0,0.0,-12.0,-12.0,-4.0,-2.0,0.0,-3.0
1706277276.3199365,0.0,2.0,5.0,1.0,-1.0,0.0,1.0,1.0
1706277276.3199365,3.0,4.0,14.0,-1.0,-2.0,0.0,0.0,2.0
1706277276.349657,-1.0,5.0,-1.0,1.0,-1.0,-2.0,-3.0,2.0
1706277276.349657,-5.0,-6.0,2.0,4.0,-1.0,1.0,-3.0,-17.0
1706277276.349657,2.0,14.0,-8.0,2.0,-1.0,-1.0,-2.0,7.0
1706277276.349657,4.0,1.0,3.0,-2.0,1.0,-2.0,-6.0,-9.0
1706277276.349657,-1.0,2.0,15.0,4.0,1.0,0.0,1.0,-1.0
1706277276.349657,-1.0,-7.0,-10.0,-7.0,-1.0,-1.0,-2.0,6.0
1706277276.3699617,-1.0,-9.0,-16.0,0.0,-6.0,-7.0,-5.0,0.0
1706277276.3699617,-3.0,-10.0,7.0,-7.0,-7.0,-4.0,0.0,1.0
1706277276.3699617,9.0,19.0,12.0,22.0,9.0,6.0,1.0,-4.0
1706277276.3699617,-1.0,-14.0,-9.0,-19.0,-4.0,-9.0,0.0,6.0
1706277276.3799381,2.0,5.0,10.0,1.0,0.0,5.0,6.0,-2.0
1706277276.3799381,-2.0,-5.0,-14.0,3.0,-4.0,-5.0,-3.0,3.0
1706277276.3799381,-6.0,-14.0,-7.0,-3.0,-2.0,-6.0,-4.0,-5.0
1706277276.3799381,3.0,10.0,4.0,8.0,5.0,6.0,5.0,5.0
1706277276.4296505,-1.0,-2.0,1.0,0.0,0.0,-2.0,-3.0,-4.0
1706277276.4296505,4.0,7.0,-2.0,-9.0,-3.0,-1.0,-1.0,-1.0
1706277276.4296505,3.0,23.0,-3.0,-12.0,-7.0,-3.0,0.0,4.0
1706277276.4296505,-14.0,-21.0,-10.0,3.0,-2.0,-3.0,-3.0,-15.0
1706277276.4296505,7.0,11.0,11.0,-7.0,3.0,4.0,10.0,33.0
1706277276.4296505,-20.0,-2.0,3.0,6.0,3.0,3.0,-3.0,-25.0
1706277276.4296505,6.0,-4.0,-8.0,6.0,0.0,2.0,5.0,18.0
1706277276.4296505,-3.0,1.0,-4.0,-26.0,-7.0,-5.0,-4.0,-8.0
1706277276.4399168,-1.0,1.0,-10.0,8.0,-1.0,-2.0,-4.0,-4.0
1706277276.4399168,-3.0,-6.0,16.0,4.0,2.0,0.0,-1.0,0.0
1706277276.4696507,-7.0,-14.0,9.0,7.0,-1.0,-2.0,-2.0,-4.0
1706277276.4696507,2.0,4.0,0.0,19.0,6.0,-1.0,-2.0,4.0
1706277276.4696507,-5.0,-13.0,-35.0,-51.0,-11.0,-5.0,-2.0,-13.0
1706277276.4696507,0.0,1.0,10.0,5.0,2.0,-2.0,0.0,11.0
1706277276.4696507,-8.0,-15.0,-13.0,23.0,6.0,3.0,-2.0,-13.0
1706277276.4696507,7.0,12.0,48.0,0.0,-7.0,-5.0,-4.0,10.0
1706277276.49009,-5.0,-11.0,-21.0,-3.0,3.0,-1.0,1.0,-9.0
1706277276.49009,6.0,4.0,7.0,6.0,-2.0,0.0,-1.0,5.0
1706277276.49009,0.0,2.0,-20.0,-44.0,-9.0,-2.0,-1.0,2.0
1706277276.49009,0.0,-6.0,-4.0,24.0,2.0,-1.0,-5.0,-5.0
1706277276.5000708,-12.0,-5.0,8.0,3.0,-3.0,-1.0,-3.0,-12.0
1706277276.5000708,8.0,8.0,-9.0,-11.0,-4.0,-3.0,1.0,5.0
1706277276.5219846,0.0,-1.0,16.0,32.0,19.0,5.0,2.0,1.0
1706277276.5219846,-4.0,-6.0,-15.0,3.0,-2.0,3.0,2.0,-2.0
1706277276.528985,-3.0,-2.0,5.0,9.0,-3.0,-7.0,-8.0,-12.0
1706277276.528985,8.0,6.0,3.0,-9.0,0.0,1.0,6.0,19.0
1706277276.5299888,-9.0,-1.0,-13.0,-61.0,-17.0,-9.0,-11.0,-13.0
1706277276.5299888,3.0,0.0,-8.0,0.0,4.0,3.0,4.0,9.0
1706277276.5517888,0.0,2.0,-2.0,9.0,-1.0,-1.0,1.0,-1.0
1706277276.5517888,-5.0,1.0,4.0,8.0,-4.0,0.0,-2.0,-7.0
1706277276.5517888,2.0,-3.0,-10.0,-4.0,-2.0,0.0,-2.0,-1.0
1706277276.5517888,0.0,5.0,10.0,9.0,2.0,-2.0,-1.0,-1.0
1706277276.5617862,0.0,-3.0,6.0,-11.0,-2.0,0.0,-2.0,-4.0
1706277276.5617862,-1.0,8.0,19.0,31.0,11.0,1.0,0.0,-3.0
1706277276.572146,-3.0,-8.0,-12.0,-9.0,-1.0,-1.0,-3.0,-1.0
1706277276.572146,-3.0,-4.0,-17.0,-2.0,-3.0,0.0,-2.0,-5.0
1706277276.5821888,3.0,-1.0,0.0,7.0,1.0,1.0,-1.0,4.0
1706277276.5821888,-3.0,-12.0,-22.0,-16.0,-6.0,-4.0,-2.0,-4.0
1706277276.5921597,-1.0,1.0,23.0,7.0,-1.0,-3.0,0.0,-2.0
1706277276.5921597,-4.0,-4.0,-2.0,-6.0,0.0,1.0,0.0,0.0
1706277276.6117883,0.0,-7.0,-15.0,13.0,7.0,2.0,0.0,0.0
1706277276.6117883,0.0,-1.0,-2.0,-19.0,-8.0,0.0,1.0,-1.0
1706277276.6117883,-2.0,-5.0,19.0,27.0,2.0,0.0,-1.0,-1.0
1706277276.6117883,0.0,-1.0,-11.0,-41.0,-9.0,-2.0,-2.0,-2.0
1706277276.6217883,0.0,6.0,4.0,14.0,3.0,0.0,-2.0,-1.0
1706277276.6217883,-3.0,-2.0,-11.0,-3.0,2.0,0.0,-2.0,-3.0
1706277276.6317885,-3.0,-8.0,-15.0,0.0,-3.0,-1.0,-2.0,1.0
1706277276.6317885,0.0,6.0,14.0,-23.0,-9.0,-4.0,-2.0,-4.0
1706277276.6417882,0.0,0.0,13.0,-4.0,0.0,-1.0,-1.0,-1.0
1706277276.6417882,-1.0,7.0,-2.0,-19.0,-6.0,-5.0,-2.0,-2.0
1706277276.6417882,-1.0,6.0,4.0,-5.0,-4.0,-3.0,-2.0,-4.0
1706277276.6417882,3.0,7.0,-16.0,14.0,2.0,0.0,-1.0,6.0
1706277276.671787,-1.0,4.0,6.0,-7.0,-3.0,-2.0,-6.0,-4.0
1706277276.671787,1.0,-1.0,0.0,4.0,-3.0,1.0,-1.0,-1.0
1706277276.671787,-3.0,-8.0,-6.0,-2.0,2.0,2.0,5.0,0.0
1706277276.671787,-1.0,2.0,7.0,7.0,1.0,2.0,6.0,3.0
1706277276.6821916,0.0,5.0,11.0,6.0,0.0,-3.0,-4.0,-3.0
1706277276.6821916,-2.0,-4.0,-8.0,4.0,1.0,-2.0,-3.0,-1.0
1706277276.7017846,3.0,-1.0,-3.0,3.0,-4.0,-4.0,-7.0,-4.0
1706277276.7017846,-1.0,-4.0,4.0,-4.0,-1.0,-1.0,0.0,-2.0
1706277276.7017846,-3.0,-8.0,-14.0,9.0,2.0,4.0,2.0,-1.0
1706277276.7017846,2.0,-2.0,20.0,20.0,3.0,-2.0,-2.0,-1.0
1706277276.7017846,-2.0,-5.0,-4.0,-32.0,-9.0,-5.0,0.0,-1.0
1706277276.7017846,-6.0,-12.0,-8.0,8.0,-1.0,0.0,-3.0,-5.0
1706277276.7220945,9.0,-2.0,2.0,-4.0,-3.0,0.0,1.0,5.0
1706277276.7317908,-10.0,-7.0,10.0,22.0,2.0,-4.0,-3.0,-5.0
1706277276.7317908,-2.0,-6.0,-18.0,2.0,1.0,-1.0,-4.0,0.0
1706277276.7317908,4.0,2.0,1.0,2.0,-1.0,-2.0,0.0,0.0
1706277276.742118,-7.0,-10.0,-13.0,-14.0,1.0,4.0,8.0,0.0
1706277276.742118,2.0,-2.0,-9.0,0.0,3.0,1.0,-2.0,-1.0
1706277276.7517855,3.0,-2.0,14.0,-1.0,-4.0,-1.0,1.0,0.0
1706277276.7517855,-8.0,4.0,-9.0,-3.0,-2.0,-5.0,-7.0,-5.0
1706277276.7617881,0.0,-6.0,-3.0,2.0,-4.0,-4.0,-6.0,-1.0
1706277276.7617881,-1.0,0.0,3.0,-11.0,-1.0,1.0,4.0,2.0
1706277276.7617881,-5.0,0.0,1.0,8.0,3.0,-4.0,-3.0,-1.0
1706277276.7617881,3.0,0.0,-1.0,3.0,2.0,1.0,-1.0,-2.0
1706277276.781787,-2.0,1.0,4.0,-2.0,-4.0,-2.0,-2.0,-1.0
1706277276.781787,-1.0,-1.0,-15.0,-14.0,-4.0,-1.0,-2.0,-1.0
1706277276.791786,-1.0,4.0,0.0,-2.0,-6.0,-4.0,-3.0,-3.0
1706277276.791786,-4.0,-4.0,-6.0,19.0,10.0,-1.0,1.0,4.0
1706277276.8020706,-7.0,3.0,8.0,-17.0,0.0,-1.0,-5.0,-5.0
1706277276.8020706,7.0,14.0,-4.0,-11.0,-5.0,-1.0,2.0,0.0
1706277276.812079,3.0,-4.0,-5.0,-3.0,6.0,6.0,6.0,5.0
1706277276.812079,1.0,-2.0,-11.0,-11.0,-2.0,0.0,-1.0,0.0
1706277276.8220847,0.0,3.0,9.0,20.0,2.0,-3.0,-5.0,-2.0
1706277276.8220847,-5.0,-5.0,1.0,0.0,-4.0,0.0,-3.0,-4.0
1706277276.8220847,-2.0,-2.0,-3.0,0.0,5.0,2.0,-1.0,-2.0
1706277276.8220847,-1.0,-1.0,-4.0,8.0,5.0,1.0,0.0,-2.0
1706277276.8617895,-1.0,-3.0,3.0,-14.0,-9.0,-4.0,-2.0,-3.0
1706277276.8617895,3.0,-3.0,-7.0,-17.0,0.0,1.0,-1.0,1.0
1706277276.8617895,-8.0,-5.0,-8.0,9.0,-11.0,-4.0,-2.0,-6.0
1706277276.8617895,-3.0,-7.0,7.0,6.0,-2.0,0.0,3.0,0.0
1706277276.8617895,3.0,4.0,2.0,4.0,-7.0,-1.0,-5.0,2.0
1706277276.8617895,-5.0,-7.0,-5.0,1.0,2.0,-1.0,3.0,-1.0
1706277276.8717902,1.0,2.0,-7.0,-9.0,-4.0,2.0,-1.0,1.0
1706277276.8717902,-3.0,-1.0,8.0,-13.0,-3.0,-5.0,-7.0,-6.0
1706277276.8819835,0.0,0.0,3.0,3.0,-4.0,-5.0,-1.0,-1.0
1706277276.8819835,0.0,-4.0,-8.0,-9.0,-3.0,-2.0,-1.0,-1.0
1706277276.8819835,-3.0,0.0,0.0,7.0,3.0,-6.0,-3.0,-2.0
1706277276.8819835,2.0,10.0,31.0,-17.0,-11.0,-5.0,-3.0,-3.0
1706277276.901807,9.0,14.0,34.0,12.0,19.0,18.0,8.0,6.0
1706277276.901807,-13.0,-29.0,-84.0,-11.0,-6.0,-5.0,-2.0,-4.0
1706277276.911819,-5.0,6.0,54.0,-3.0,-2.0,-3.0,-4.0,-6.0
1706277276.911819,3.0,4.0,-3.0,-5.0,-10.0,-23.0,-7.0,1.0
1706277276.922066,-6.0,-7.0,-22.0,7.0,11.0,18.0,6.0,2.0
1706277276.922066,0.0,-2.0,25.0,0.0,2.0,7.0,4.0,0.0
1706277276.9318476,0.0,-12.0,-33.0,6.0,0.0,1.0,1.0,-4.0
1706277276.9318476,7.0,18.0,20.0,-13.0,-2.0,-2.0,-4.0,-1.0
1706277276.9717844,0.0,-3.0,-5.0,-8.0,-8.0,-13.0,-3.0,0.0
1706277276.9717844,-5.0,-14.0,-3.0,13.0,5.0,-1.0,-3.0,-4.0
1706277276.9717844,5.0,11.0,-21.0,-12.0,2.0,-1.0,1.0,4.0
1706277276.9717844,-6.0,-21.0,-37.0,8.0,-2.0,3.0,-1.0,-3.0
1706277276.9717844,0.0,4.0,-7.0,-12.0,-3.0,-5.0,-3.0,-3.0
1706277276.9717844,3.0,11.0,39.0,16.0,4.0,-2.0,-2.0,1.0
1706277276.9717844,1.0,6.0,14.0,2.0,-4.0,-3.0,-1.0,0.0
1706277276.9717844,-6.0,-22.0,-36.0,2.0,-1.0,-1.0,-1.0,-2.0
1706277276.982056,-3.0,5.0,2.0,-8.0,-1.0,-1.0,0.0,-4.0
1706277276.982056,3.0,-2.0,-4.0,7.0,-1.0,-4.0,-4.0,-2.0
1706277276.9920712,1.0,10.0,28.0,-3.0,4.0,6.0,4.0,3.0
1706277276.9920712,4.0,8.0,1.0,-2.0,-2.0,3.0,-2.0,0.0
1706277277.001793,-7.0,-10.0,-1.0,0.0,-3.0,1.0,1.0,-1.0
1706277277.001793,0.0,2.0,12.0,0.0,-3.0,-7.0,-4.0,-1.0
1706277277.001793,-2.0,-10.0,-14.0,2.0,0.0,4.0,1.0,-4.0
1706277277.001793,0.0,-4.0,-10.0,-3.0,-3.0,-4.0,0.0,3.0
1706277277.0441937,-4.0,-3.0,16.0,-9.0,-14.0,-17.0,-13.0,-8.0
1706277277.0441937,0.0,9.0,0.0,6.0,8.0,12.0,11.0,1.0
1706277277.0441937,0.0,-4.0,-12.0,-3.0,-1.0,-3.0,-3.0,4.0
1706277277.0441937,-3.0,-4.0,-2.0,6.0,-1.0,0.0,3.0,-3.0
1706277277.0441937,-2.0,-4.0,-9.0,7.0,4.0,-1.0,-3.0,-1.0
1706277277.0441937,-2.0,6.0,5.0,0.0,-2.0,-12.0,-10.0,-2.0
1706277277.0546901,-1.0,-1.0,-2.0,-9.0,-11.0,-6.0,-3.0,-1.0
1706277277.0546901,0.0,4.0,18.0,11.0,10.0,8.0,3.0,1.0
1706277277.0845466,1.0,-5.0,-8.0,-9.0,-10.0,-7.0,-2.0,-2.0
1706277277.0845466,1.0,0.0,-4.0,-2.0,0.0,6.0,0.0,2.0
1706277277.0845466,-1.0,-3.0,-5.0,14.0,11.0,4.0,3.0,0.0
1706277277.0845466,2.0,3.0,5.0,-9.0,-2.0,1.0,-3.0,1.0
1706277277.0845466,-3.0,-6.0,2.0,8.0,-2.0,-2.0,2.0,-1.0
1706277277.0845466,2.0,4.0,5.0,9.0,5.0,-2.0,-2.0,1.0
1706277277.0845466,-3.0,-5.0,-7.0,-4.0,-1.0,0.0,-1.0,-1.0
1706277277.0845466,2.0,4.0,3.0,0.0,-8.0,-3.0,-3.0,0.0
1706277277.1048763,-1.0,-2.0,7.0,-4.0,0.0,0.0,-1.0,-2.0
1706277277.1048763,0.0,2.0,7.0,-8.0,-3.0,3.0,1.0,3.0
1706277277.1048763,-2.0,0.0,-1.0,0.0,0.0,-3.0,-3.0,-3.0
1706277277.1048763,-4.0,-4.0,-5.0,2.0,1.0,0.0,-4.0,-2.0
1706277277.1345472,0.0,-4.0,-8.0,-1.0,7.0,15.0,9.0,2.0
1706277277.1345472,-1.0,1.0,-9.0,1.0,0.0,-5.0,-3.0,-4.0
1706277277.1345472,2.0,4.0,28.0,17.0,2.0,-1.0,-2.0,-1.0
1706277277.1345472,-2.0,-5.0,-14.0,-3.0,1.0,7.0,4.0,0.0
1706277277.1448169,-2.0,-3.0,-7.0,-23.0,-10.0,-8.0,-2.0,4.0
1706277277.1448169,-2.0,1.0,10.0,7.0,2.0,1.0,0.0,-6.0
1706277277.1448169,-9.0,-20.0,-40.0,-19.0,-7.0,-6.0,-5.0,-3.0
1706277277.1448169,1.0,3.0,11.0,12.0,1.0,-1.0,0.0,-3.0
1706277277.1651702,-1.0,0.0,0.0,1.0,-4.0,-8.0,-6.0,-1.0
1706277277.1651702,1.0,0.0,9.0,-5.0,0.0,4.0,0.0,0.0
1706277277.194837,2.0,9.0,5.0,1.0,-1.0,-5.0,-3.0,0.0
1706277277.194837,0.0,0.0,7.0,-4.0,-1.0,2.0,2.0,0.0
1706277277.194837,-1.0,-7.0,-19.0,-3.0,-5.0,-2.0,-1.0,-2.0
1706277277.194837,-3.0,1.0,4.0,-5.0,-6.0,-3.0,-4.0,-1.0
1706277277.194837,-1.0,-2.0,2.0,-1.0,1.0,2.0,1.0,-1.0
1706277277.194837,1.0,-6.0,-20.0,-1.0,1.0,0.0,0.0,2.0
1706277277.205209,-2.0,6.0,19.0,13.0,2.0,-2.0,-1.0,-4.0
1706277277.205209,-2.0,-5.0,-14.0,-16.0,-7.0,-4.0,-2.0,-1.0
1706277277.205209,1.0,1.0,1.0,0.0,-1.0,1.0,-3.0,0.0
1706277277.205209,-2.0,-5.0,-3.0,-2.0,1.0,-1.0,0.0,-3.0
1706277277.2252495,4.0,-2.0,-12.0,-4.0,1.0,0.0,1.0,2.0
1706277277.2252495,-3.0,-2.0,-1.0,-1.0,-1.0,-4.0,-5.0,0.0
1706277277.2252495,-8.0,-2.0,-1.0,5.0,1.0,1.0,3.0,-2.0
1706277277.2252495,1.0,2.0,12.0,1.0,-4.0,-1.0,-2.0,-1.0
1706277277.2548327,0.0,-2.0,-3.0,-5.0,-4.0,-4.0,-2.0,-3.0
1706277277.2548327,3.0,0.0,-3.0,-8.0,-1.0,0.0,0.0,2.0
1706277277.2548327,1.0,0.0,4.0,-3.0,-5.0,-2.0,-3.0,-2.0
1706277277.2548327,-2.0,0.0,2.0,8.0,5.0,0.0,1.0,-2.0
1706277277.265166,1.0,1.0,6.0,-3.0,1.0,-2.0,1.0,-1.0
1706277277.265166,-3.0,-4.0,-10.0,3.0,2.0,0.0,1.0,-1.0
1706277277.265166,-1.0,-1.0,-3.0,-7.0,-3.0,-3.0,-2.0,-1.0
1706277277.265166,-1.0,2.0,3.0,-4.0,1.0,-2.0,-2.0,0.0
1706277277.2852666,-2.0,-2.0,-8.0,1.0,-3.0,-5.0,-1.0,-3.0
1706277277.2852666,-2.0,-2.0,-1.0,-1.0,-1.0,0.0,0.0,0.0
1706277277.2948372,-2.0,0.0,4.0,1.0,1.0,-2.0,-2.0,-2.0
1706277277.2948372,1.0,3.0,3.0,0.0,1.0,1.0,-2.0,1.0
1706277277.3148339,-3.0,-3.0,-9.0,3.0,1.0,-1.0,-2.0,-2.0
1706277277.3148339,-1.0,-3.0,-1.0,1.0,-4.0,-4.0,-1.0,-1.0
1706277277.3148339,-2.0,-4.0,-7.0,-3.0,-6.0,-4.0,-2.0,-3.0
1706277277.3148339,1.0,2.0,21.0,-12.0,-5.0,-3.0,-3.0,-2.0
1706277277.3252242,-2.0,-1.0,-6.0,0.0,2.0,2.0,-1.0,-1.0
1706277277.3252242,-1.0,-2.0,2.0,-1.0,-2.0,-3.0,-2.0,-2.0
1706277277.3351886,2.0,0.0,2.0,8.0,1.0,0.0,0.0,0.0
1706277277.3351886,-2.0,-2.0,-14.0,-2.0,-2.0,-4.0,-2.0,0.0
1706277277.3548365,-1.0,2.0,5.0,1.0,0.0,2.0,0.0,-1.0
1706277277.3548365,2.0,1.0,0.0,4.0,0.0,0.0,0.0,-1.0
1706277277.3548365,0.0,3.0,5.0,-10.0,-3.0,-3.0,-2.0,0.0
1706277277.3548365,-7.0,-10.0,-16.0,2.0,2.0,1.0,1.0,-3.0
1706277277.3648667,-3.0,-3.0,7.0,-5.0,-4.0,-2.0,-1.0,1.0
1706277277.3648667,-2.0,1.0,1.0,4.0,4.0,-1.0,0.0,-2.0
1706277277.3648667,1.0,-1.0,-7.0,-6.0,-1.0,0.0,-3.0,1.0
1706277277.3648667,-2.0,-4.0,-7.0,-2.0,-2.0,0.0,2.0,1.0
1706277277.3848395,-3.0,3.0,14.0,3.0,0.0,-2.0,-5.0,-4.0
1706277277.3848395,-4.0,-13.0,-21.0,-12.0,-2.0,0.0,2.0,1.0
1706277277.3848395,2.0,1.0,0.0,1.0,1.0,0.0,0.0,0.0
1706277277.3848395,6.0,7.0,6.0,4.0,-4.0,1.0,-1.0,-1.0
1706277277.4148335,3.0,10.0,16.0,8.0,2.0,1.0,0.0,3.0
1706277277.4148335,-3.0,-3.0,4.0,4.0,-2.0,-3.0,-5.0,-3.0
1706277277.4148335,-4.0,-11.0,-18.0,-7.0,-4.0,-2.0,-3.0,-3.0
1706277277.4148335,-4.0,-2.0,0.0,0.0,-2.0,-1.0,-4.0,-1.0
1706277277.4250546,-7.0,-11.0,-16.0,-11.0,-3.0,-3.0,-2.0,-4.0
1706277277.4250546,-5.0,-3.0,-3.0,-3.0,-5.0,-2.0,-1.0,-2.0
1706277277.4350767,2.0,5.0,5.0,-2.0,2.0,3.0,2.0,2.0
1706277277.4350767,-1.0,4.0,6.0,2.0,2.0,1.0,-3.0,-3.0
1706277277.4451566,2.0,1.0,-17.0,2.0,4.0,2.0,3.0,2.0
1706277277.4451566,2.0,7.0,23.0,-3.0,-3.0,-3.0,-1.0,0.0
1706277277.4451566,0.0,-1.0,0.0,-2.0,-1.0,-2.0,0.0,-1.0
1706277277.4451566,1.0,-3.0,-2.0,-5.0,-6.0,-1.0,1.0,0.0
1706277277.474842,-8.0,-6.0,-12.0,3.0,3.0,1.0,-1.0,-2.0
1706277277.474842,3.0,4.0,16.0,31.0,7.0,1.0,-2.0,0.0
1706277277.474842,-1.0,-4.0,-10.0,-11.0,-7.0,-2.0,0.0,1.0
1706277277.474842,-5.0,-6.0,-8.0,1.0,2.0,-2.0,-2.0,-2.0
1706277277.5048385,3.0,14.0,9.0,-7.0,-4.0,-5.0,-1.0,0.0
1706277277.5048385,1.0,1.0,-10.0,0.0,0.0,1.0,2.0,1.0
1706277277.5048385,0.0,1.0,18.0,22.0,4.0,0.0,-2.0,-2.0
1706277277.5048385,-3.0,3.0,0.0,-20.0,-5.0,-2.0,0.0,-1.0
1706277277.5048385,-3.0,-5.0,9.0,13.0,3.0,2.0,1.0,-2.0
1706277277.5048385,0.0,7.0,14.0,-11.0,-5.0,-1.0,-1.0,1.0
1706277277.5048385,2.0,0.0,-19.0,10.0,5.0,2.0,3.0,0.0
1706277277.5048385,-9.0,-14.0,0.0,-7.0,-6.0,-7.0,-7.0,-5.0
1706277277.5348396,-1.0,-4.0,-10.0,-7.0,-4.0,-2.0,-1.0,-2.0
1706277277.5348396,2.0,-4.0,-19.0,-5.0,0.0,3.0,2.0,0.0
1706277277.5348396,-7.0,7.0,33.0,2.0,-4.0,-4.0,-2.0,-3.0
1706277277.5348396,5.0,4.0,-1.0,-3.0,1.0,0.0,1.0,2.0
1706277277.5451534,-1.0,-1.0,1.0,-15.0,-5.0,-4.0,-1.0,-2.0
1706277277.5451534,1.0,4.0,-2.0,4.0,1.0,-2.0,-2.0,-1.0
1706277277.5551198,-7.0,-8.0,-11.0,-23.0,-10.0,-3.0,-2.0,-5.0
1706277277.5551198,1.0,0.0,-8.0,6.0,6.0,0.0,0.0,0.0
1706277277.571247,2.0,0.0,1.0,1.0,0.0,-1.0,-3.0,-1.0
1706277277.5722702,-2.0,-2.0,1.0,-6.0,-2.0,1.0,0.0,-1.0
1706277277.5732634,-2.0,-5.0,-8.0,0.0,0.0,-2.0,-2.0,-2.0
1706277277.5732634,0.0,0.0,-3.0,3.0,-2.0,1.0,1.0,0.0
1706277277.6107578,-3.0,-1.0,5.0,0.0,-2.0,-2.0,0.0,-2.0
1706277277.6107578,-2.0,0.0,-8.0,0.0,2.0,-1.0,-5.0,-2.0
1706277277.6107578,1.0,0.0,-1.0,1.0,-7.0,-12.0,-6.0,-2.0
1706277277.6107578,1.0,0.0,5.0,5.0,14.0,20.0,9.0,4.0
1706277277.6107578,0.0,-8.0,-13.0,-7.0,-8.0,-6.0,-1.0,5.0
1706277277.6107578,-3.0,-7.0,-3.0,-2.0,4.0,5.0,3.0,-5.0
1706277277.6207576,-2.0,1.0,1.0,3.0,-2.0,-5.0,-5.0,-10.0
1706277277.6207576,1.0,-1.0,1.0,4.0,4.0,1.0,0.0,-2.0
1706277277.6307833,0.0,1.0,11.0,2.0,-5.0,-6.0,-5.0,-2.0
1706277277.6307833,-2.0,-3.0,-4.0,-16.0,-6.0,-8.0,-5.0,-1.0
1706277277.6307833,6.0,1.0,-4.0,8.0,4.0,8.0,6.0,5.0
1706277277.6307833,-1.0,1.0,4.0,7.0,-6.0,-10.0,-5.0,-2.0
1706277277.6510906,-6.0,-14.0,-27.0,-18.0,-4.0,2.0,-2.0,-5.0
1706277277.6510906,0.0,0.0,7.0,2.0,-7.0,-5.0,-2.0,-1.0
1706277277.6510906,-2.0,-1.0,-7.0,5.0,7.0,6.0,0.0,2.0
1706277277.6510906,-1.0,-1.0,0.0,-11.0,-5.0,-6.0,-1.0,0.0
1706277277.6610334,1.0,1.0,0.0,11.0,6.0,0.0,0.0,-1.0
1706277277.6610334,2.0,1.0,4.0,10.0,-2.0,0.0,0.0,2.0
1706277277.7010636,-2.0,1.0,4.0,-21.0,1.0,1.0,-1.0,1.0
1706277277.7010636,-3.0,-2.0,-10.0,2.0,-3.0,-4.0,-2.0,-3.0
1706277277.7010636,4.0,4.0,8.0,1.0,-2.0,3.0,2.0,1.0
1706277277.7010636,-3.0,-2.0,-10.0,-4.0,-8.0,-8.0,-4.0,-4.0
1706277277.7010636,-3.0,-4.0,5.0,1.0,-4.0,-1.0,3.0,1.0
1706277277.7010636,-2.0,-3.0,-3.0,2.0,4.0,7.0,1.0,-1.0
1706277277.7112582,-2.0,-1.0,-2.0,1.0,-1.0,-1.0,1.0,-1.0
1706277277.7112582,1.0,-1.0,-1.0,0.0,3.0,0.0,-1.0,-1.0
1706277277.7112582,-2.0,-5.0,-8.0,-5.0,-7.0,-12.0,-7.0,-2.0
1706277277.7112582,-1.0,1.0,-1.0,-7.0,-8.0,-10.0,-4.0,-2.0
1706277277.7213452,1.0,2.0,6.0,5.0,3.0,2.0,0.0,-1.0
1706277277.7213452,2.0,4.0,0.0,-1.0,5.0,1.0,0.0,1.0
1706277277.7410629,-6.0,-14.0,-6.0,-5.0,-2.0,-2.0,-4.0,-3.0
1706277277.7410629,0.0,-1.0,7.0,1.0,-2.0,0.0,1.0,1.0
1706277277.7510707,2.0,2.0,-7.0,0.0,1.0,1.0,0.0,-1.0
1706277277.7510707,-6.0,-5.0,1.0,-2.0,-1.0,-1.0,-1.0,-1.0
1706277277.7610672,2.0,4.0,-4.0,6.0,1.0,3.0,3.0,0.0
1706277277.7610672,2.0,7.0,14.0,-11.0,-5.0,-1.0,0.0,-1.0
1706277277.7713711,3.0,9.0,2.0,-1.0,2.0,1.0,1.0,-1.0
1706277277.7713711,3.0,13.0,10.0,1.0,-3.0,-1.0,0.0,1.0
1706277277.7713711,-8.0,-24.0,-19.0,5.0,2.0,0.0,-2.0,-3.0
1706277277.7713711,2.0,9.0,-5.0,-4.0,0.0,-4.0,-4.0,-4.0
1706277277.791073,-2.0,2.0,10.0,-5.0,-4.0,-1.0,-1.0,-1.0
1706277277.791073,-2.0,-6.0,-1.0,-7.0,-4.0,1.0,-2.0,0.0
1706277277.8110619,3.0,7.0,1.0,6.0,5.0,2.0,8.0,2.0
1706277277.8110619,3.0,3.0,9.0,4.0,-5.0,-3.0,-4.0,0.0
1706277277.8110619,-4.0,-8.0,-11.0,-6.0,-1.0,-3.0,-1.0,-3.0
1706277277.8110619,-4.0,-5.0,-17.0,-13.0,-3.0,1.0,-1.0,-2.0
1706277277.8110619,1.0,6.0,7.0,1.0,-2.0,-4.0,-6.0,-3.0
1706277277.8110619,-2.0,-7.0,-2.0,12.0,7.0,3.0,2.0,2.0
1706277277.8315089,-3.0,0.0,-2.0,-14.0,-12.0,-2.0,-4.0,-4.0
1706277277.8315089,2.0,0.0,-3.0,19.0,13.0,4.0,1.0,1.0
1706277277.8315089,-1.0,-7.0,-4.0,-8.0,-7.0,-2.0,-1.0,-2.0
1706277277.8315089,4.0,9.0,-4.0,-22.0,-5.0,1.0,2.0,-1.0
1706277277.8510637,-6.0,-10.0,5.0,32.0,18.0,5.0,1.0,0.0
1706277277.8510637,4.0,-2.0,3.0,8.0,-3.0,-4.0,1.0,-1.0
1706277277.8510637,0.0,7.0,3.0,1.0,2.0,3.0,0.0,1.0
1706277277.8510637,-2.0,-11.0,2.0,-11.0,-5.0,-3.0,-1.0,-2.0
1706277277.8713257,3.0,7.0,3.0,11.0,-1.0,-4.0,-4.0,-1.0
1706277277.8713257,-5.0,-9.0,-8.0,-8.0,-5.0,-3.0,3.0,0.0
1706277277.8713257,2.0,3.0,4.0,-6.0,-7.0,-2.0,-3.0,0.0
1706277277.8713257,-4.0,-9.0,-18.0,3.0,2.0,1.0,1.0,-1.0
1706277277.8913755,4.0,7.0,26.0,-6.0,-3.0,0.0,0.0,-1.0
1706277277.8913755,-2.0,-1.0,6.0,-2.0,0.0,2.0,-1.0,-2.0
1706277277.8913755,-2.0,0.0,-2.0,-3.0,-5.0,-4.0,-1.0,-1.0
1706277277.8913755,-7.0,-4.0,-3.0,10.0,-2.0,-1.0,-3.0,-3.0
1706277277.911066,-1.0,-9.0,-37.0,-8.0,-5.0,-4.0,-2.0,0.0
1706277277.911066,-4.0,-9.0,-21.0,-9.0,-1.0,-2.0,-5.0,-4.0
1706277277.911066,2.0,6.0,18.0,3.0,3.0,6.0,3.0,0.0
1706277277.911066,-6.0,-12.0,-10.0,-3.0,-8.0,-14.0,-11.0,-5.0
1706277277.9314864,8.0,13.0,43.0,9.0,12.0,15.0,13.0,11.0
1706277277.9314864,-6.0,-7.0,-32.0,-15.0,-9.0,-8.0,-6.0,-8.0
1706277277.9314864,-5.0,-7.0,-14.0,-1.0,-3.0,-6.0,-3.0,-5.0
1706277277.9314864,4.0,9.0,25.0,9.0,0.0,-5.0,-2.0,0.0
1706277277.9515035,-11.0,-24.0,-29.0,-13.0,-5.0,-2.0,-7.0,-6.0
1706277277.9515035,-1.0,7.0,19.0,0.0,-3.0,-1.0,2.0,3.0
1706277277.9515035,5.0,3.0,-7.0,4.0,4.0,-1.0,-3.0,-2.0
1706277277.9515035,-4.0,-9.0,-15.0,-9.0,-6.0,1.0,2.0,-1.0
1706277277.9710636,2.0,9.0,12.0,1.0,1.0,-2.0,-2.0,-1.0
1706277277.9710636,6.0,11.0,29.0,10.0,-2.0,-2.0,1.0,3.0
1706277277.9811108,-7.0,-3.0,-5.0,1.0,4.0,3.0,-3.0,-8.0
1706277277.9811108,0.0,1.0,-2.0,6.0,1.0,-2.0,-1.0,-1.0
1706277277.991071,0.0,-3.0,-12.0,-19.0,-7.0,-4.0,-2.0,-1.0
1706277277.991071,-4.0,-4.0,3.0,-10.0,-8.0,-8.0,-5.0,-3.0
1706277277.991071,3.0,6.0,9.0,2.0,1.0,-4.0,1.0,6.0
1706277277.991071,-1.0,-1.0,-17.0,2.0,2.0,4.0,2.0,0.0
1706277278.0310657,-2.0,1.0,11.0,4.0,2.0,1.0,-2.0,-2.0
1706277278.0310657,0.0,-4.0,-21.0,7.0,0.0,-13.0,-7.0,-3.0
1706277278.0310657,4.0,3.0,14.0,-5.0,2.0,13.0,8.0,5.0
1706277278.0310657,-4.0,-8.0,-5.0,3.0,1.0,-1.0,-2.0,-3.0
1706277278.0310657,-2.0,-4.0,-19.0,-4.0,-6.0,-7.0,-6.0,-3.0
1706277278.0310657,-2.0,-1.0,-7.0,-3.0,2.0,10.0,3.0,2.0
1706277278.0414197,-1.0,4.0,24.0,-3.0,-2.0,1.0,-2.0,-1.0
1706277278.0414197,-4.0,-3.0,1.0,-7.0,-4.0,-6.0,-4.0,-3.0
1706277278.0513334,1.0,-1.0,2.0,9.0,4.0,2.0,3.0,3.0
1706277278.0513334,-1.0,0.0,0.0,0.0,2.0,6.0,4.0,0.0
1706277278.0513334,-2.0,-4.0,-8.0,-2.0,-1.0,-5.0,-2.0,-1.0
1706277278.0513334,2.0,5.0,15.0,-7.0,-9.0,2.0,-1.0,0.0
1706277278.0810633,0.0,4.0,0.0,2.0,-5.0,-8.0,-4.0,-4.0
1706277278.0810633,-8.0,-13.0,-9.0,-4.0,0.0,1.0,-1.0,-4.0
1706277278.0810633,-1.0,0.0,-6.0,-6.0,-2.0,-1.0,1.0,3.0
1706277278.0810633,-1.0,1.0,0.0,-1.0,2.0,-2.0,-1.0,-2.0
1706277278.0810633,-2.0,-2.0,-10.0,-1.0,0.0,1.0,0.0,-1.0
1706277278.0810633,1.0,4.0,10.0,-2.0,-4.0,0.0,1.0,-1.0
1706277278.0913124,1.0,-1.0,-8.0,2.0,0.0,-1.0,-3.0,0.0
1706277278.0913124,0.0,2.0,-1.0,-5.0,0.0,-1.0,0.0,-1.0
1706277278.1115441,-3.0,-1.0,7.0,0.0,-2.0,-2.0,-1.0,-3.0
1706277278.112568,1.0,-1.0,1.0,0.0,2.0,3.0,1.0,-1.0
1706277278.113562,-3.0,-2.0,0.0,-5.0,-2.0,-7.0,-3.0,-4.0
1706277278.113562,-1.0,-1.0,-8.0,0.0,-1.0,1.0,1.0,-1.0
1706277278.1637359,0.0,-1.0,4.0,1.0,-1.0,1.0,2.0,0.0
1706277278.1637359,-1.0,-2.0,1.0,0.0,-2.0,-3.0,-3.0,0.0
1706277278.1637359,-4.0,-5.0,-12.0,-7.0,-4.0,-1.0,-3.0,-2.0
1706277278.1637359,0.0,1.0,1.0,-1.0,0.0,1.0,2.0,0.0
1706277278.1637359,-3.0,-5.0,-15.0,-3.0,1.0,2.0,-1.0,-1.0
1706277278.1637359,0.0,4.0,24.0,6.0,-1.0,-3.0,-3.0,-2.0
1706277278.1637359,-1.0,0.0,-5.0,-8.0,-3.0,-2.0,-1.0,0.0
1706277278.1637359,0.0,1.0,5.0,4.0,0.0,-1.0,-2.0,0.0
1706277278.1637359,-2.0,-5.0,-14.0,0.0,-1.0,-3.0,-5.0,-2.0
1706277278.1637359,-1.0,-5.0,-11.0,-6.0,-4.0,-5.0,-3.0,-1.0
1706277278.1637359,-2.0,-3.0,-6.0,3.0,1.0,3.0,-3.0,-2.0
1706277278.1637359,-1.0,0.0,4.0,0.0,-1.0,4.0,0.0,1.0
1706277278.1937342,0.0,-1.0,-4.0,1.0,0.0,-3.0,2.0,-2.0
1706277278.1937342,5.0,11.0,16.0,19.0,8.0,7.0,4.0,3.0
1706277278.1937342,-10.0,-16.0,-23.0,-20.0,-5.0,-7.0,-4.0,-5.0
1706277278.1937342,-3.0,-1.0,5.0,-10.0,-3.0,0.0,-1.0,-2.0
1706277278.2141685,-2.0,0.0,7.0,3.0,0.0,-2.0,-2.0,-1.0
1706277278.2141685,0.0,1.0,-14.0,-1.0,0.0,-3.0,-2.0,-1.0
1706277278.2141685,3.0,6.0,21.0,12.0,-1.0,2.0,1.0,0.0
1706277278.2141685,0.0,-3.0,-4.0,-7.0,1.0,-3.0,-1.0,0.0
1706277278.2241273,0.0,8.0,6.0,0.0,-2.0,1.0,0.0,-2.0
1706277278.2241273,-3.0,-5.0,-4.0,-12.0,-3.0,-4.0,-3.0,-3.0
1706277278.2241273,5.0,6.0,2.0,6.0,1.0,3.0,2.0,2.0
1706277278.2241273,-6.0,-13.0,-6.0,10.0,5.0,-2.0,-3.0,-2.0
1706277278.2540543,-3.0,0.0,-3.0,-14.0,-11.0,-6.0,-2.0,-2.0
1706277278.2540543,-5.0,-24.0,-16.0,-4.0,2.0,1.0,3.0,0.0
1706277278.2540543,3.0,22.0,7.0,-1.0,-2.0,-3.0,0.0,-1.0
1706277278.2540543,7.0,23.0,11.0,0.0,0.0,0.0,1.0,1.0
1706277278.2741878,-1.0,-7.0,-4.0,-5.0,3.0,3.0,1.0,0.0
1706277278.2741878,-8.0,-10.0,3.0,-6.0,-4.0,-3.0,-4.0,-3.0
1706277278.2741878,-3.0,-26.0,-10.0,10.0,5.0,-1.0,-1.0,0.0
1706277278.2741878,2.0,5.0,-2.0,1.0,-4.0,-3.0,1.0,0.0
1706277278.2841084,-6.0,-14.0,-15.0,-8.0,-1.0,-1.0,0.0,-3.0
1706277278.2841084,1.0,9.0,7.0,3.0,-2.0,2.0,-3.0,-2.0
1706277278.2841084,-4.0,-3.0,1.0,-4.0,2.0,-4.0,-3.0,-2.0
1706277278.2841084,0.0,-8.0,-17.0,-8.0,-5.0,-2.0,-2.0,-1.0
1706277278.3139448,2.0,-1.0,7.0,6.0,4.0,1.0,-2.0,1.0
1706277278.3139448,3.0,8.0,1.0,-3.0,-2.0,-1.0,-1.0,-1.0
1706277278.3139448,-9.0,-6.0,-6.0,-12.0,-8.0,-4.0,-2.0,-4.0
1706277278.3139448,5.0,0.0,-2.0,14.0,6.0,-2.0,0.0,0.0
1706277278.33407,-10.0,-5.0,-4.0,-13.0,-10.0,-3.0,-2.0,-5.0
1706277278.33407,0.0,2.0,0.0,-8.0,-7.0,-1.0,-1.0,0.0
1706277278.33407,-2.0,-2.0,6.0,28.0,12.0,1.0,0.0,0.0
1706277278.33407,-2.0,-3.0,-4.0,-7.0,-2.0,2.0,-2.0,-1.0
1706277278.3440046,-1.0,1.0,4.0,3.0,-4.0,-4.0,0.0,-3.0
1706277278.3440046,-2.0,1.0,-11.0,-33.0,-20.0,-10.0,-4.0,-3.0
1706277278.3637385,3.0,-4.0,0.0,11.0,13.0,5.0,3.0,2.0
1706277278.3637385,-3.0,-5.0,2.0,-6.0,-1.0,0.0,1.0,-2.0
1706277278.373735,-1.0,2.0,5.0,15.0,4.0,-1.0,-1.0,0.0
1706277278.373735,0.0,3.0,-2.0,9.0,4.0,4.0,2.0,1.0
1706277278.373735,-2.0,2.0,7.0,-1.0,1.0,-3.0,-3.0,-2.0
1706277278.373735,-2.0,-4.0,-12.0,-3.0,-2.0,0.0,-3.0,-2.0
1706277278.3940222,1.0,0.0,1.0,-15.0,-3.0,-4.0,-2.0,-1.0
1706277278.3940222,-3.0,-4.0,-14.0,3.0,0.0,-3.0,-3.0,-4.0
1706277278.3940222,0.0,4.0,8.0,-8.0,-9.0,1.0,0.0,-2.0
1706277278.3940222,-1.0,-2.0,4.0,6.0,1.0,-1.0,-1.0,-1.0
1706277278.404022,1.0,4.0,6.0,4.0,5.0,2.0,0.0,1.0
1706277278.404022,-3.0,-8.0,-18.0,-3.0,3.0,1.0,-2.0,-1.0
1706277278.4337397,0.0,2.0,1.0,-7.0,-7.0,-4.0,-3.0,-2.0
1706277278.4337397,-4.0,-5.0,-2.0,-1.0,-4.0,-4.0,-3.0,-3.0
1706277278.4337397,2.0,9.0,16.0,6.0,-1.0,-3.0,0.0,0.0
1706277278.4337397,0.0,-4.0,-8.0,5.0,0.0,-5.0,-3.0,-1.0
1706277278.4337397,1.0,-2.0,-5.0,-6.0,3.0,5.0,2.0,1.0
1706277278.4337397,-5.0,1.0,8.0,2.0,-3.0,-2.0,1.0,-1.0
1706277278.4541547,5.0,1.0,7.0,-4.0,-3.0,4.0,0.0,0.0
1706277278.4541547,-5.0,-3.0,-5.0,2.0,4.0,-5.0,-1.0,-3.0
1706277278.4541547,-6.0,-5.0,2.0,-7.0,-9.0,-3.0,-4.0,-5.0
1706277278.4541547,2.0,8.0,6.0,0.0,4.0,10.0,4.0,2.0
1706277278.4637372,-8.0,-17.0,-22.0,-11.0,-3.0,-4.0,-3.0,-5.0
1706277278.4637372,1.0,1.0,10.0,-4.0,2.0,1.0,1.0,-1.0
1706277278.4737687,3.0,7.0,6.0,13.0,1.0,-4.0,-2.0,0.0
1706277278.4737687,-2.0,-6.0,-10.0,-8.0,-7.0,-8.0,-3.0,-3.0
1706277278.4939945,1.0,9.0,16.0,5.0,-3.0,-4.0,-5.0,2.0
1706277278.4939945,-1.0,-1.0,5.0,-3.0,-1.0,1.0,-1.0,0.0
1706277278.4939945,2.0,3.0,-10.0,-7.0,-5.0,-5.0,0.0,-1.0
1706277278.4939945,2.0,4.0,12.0,8.0,4.0,5.0,1.0,2.0
1706277278.5138738,-3.0,-7.0,-12.0,-3.0,-8.0,-8.0,-4.0,-4.0
1706277278.5138738,-2.0,-1.0,0.0,12.0,4.0,1.0,1.0,0.0
1706277278.5138738,3.0,4.0,-4.0,-8.0,1.0,5.0,-1.0,2.0
1706277278.5138738,-4.0,-4.0,-4.0,-4.0,-6.0,-5.0,-1.0,-4.0
1706277278.523734,3.0,1.0,-14.0,4.0,7.0,10.0,4.0,2.0
1706277278.523734,-4.0,-3.0,7.0,-4.0,-3.0,-8.0,-3.0,-4.0
1706277278.533769,1.0,4.0,4.0,3.0,0.0,2.0,3.0,1.0
1706277278.533769,-4.0,-6.0,-8.0,-10.0,0.0,-10.0,-8.0,-5.0
1706277278.5539021,-3.0,-4.0,-12.0,3.0,-3.0,-8.0,-5.0,-3.0
1706277278.5539021,4.0,8.0,14.0,5.0,5.0,7.0,6.0,5.0
1706277278.5539021,3.0,5.0,5.0,4.0,-1.0,-7.0,-5.0,-1.0
1706277278.5539021,-13.0,-27.0,-13.0,-7.0,-2.0,1.0,-1.0,-5.0
1706277278.5740476,1.0,6.0,15.0,6.0,1.0,4.0,0.0,-1.0
1706277278.5740476,-3.0,-8.0,-14.0,-2.0,0.0,-1.0,-2.0,0.0
1706277278.5740476,2.0,4.0,1.0,-6.0,-2.0,-1.0,-2.0,0.0
1706277278.5740476,4.0,9.0,10.0,5.0,-2.0,-2.0,-1.0,1.0
1706277278.6037366,1.0,-2.0,-12.0,-4.0,4.0,3.0,4.0,0.0
1706277278.6037366,0.0,5.0,7.0,-1.0,-2.0,-3.0,-1.0,-3.0
1706277278.6037366,-6.0,-13.0,-16.0,-6.0,0.0,0.0,1.0,-2.0
1706277278.6037366,-1.0,8.0,5.0,8.0,-2.0,-6.0,-2.0,-2.0
1706277278.613917,-2.0,-2.0,-4.0,-6.0,-5.0,-1.0,-2.0,0.0
1706277278.613917,-2.0,3.0,3.0,-6.0,-3.0,-2.0,-2.0,-4.0
1706277278.613917,-1.0,-4.0,-1.0,-2.0,-4.0,-2.0,-2.0,-2.0
1706277278.613917,1.0,0.0,4.0,7.0,9.0,3.0,0.0,1.0
1706277278.6360924,-2.0,0.0,0.0,-10.0,-9.0,0.0,-2.0,3.0
1706277278.6360924,1.0,-1.0,-3.0,16.0,11.0,4.0,1.0,0.0
1706277278.638106,-5.0,-4.0,-1.0,-6.0,-7.0,0.0,-2.0,-2.0
1706277278.638106,1.0,-2.0,-1.0,-5.0,0.0,0.0,-1.0,0.0
1706277278.650623,-2.0,-2.0,-8.0,-3.0,1.0,-5.0,-2.0,-2.0
1706277278.650623,0.0,-2.0,-5.0,-8.0,-8.0,-12.0,-6.0,-2.0
1706277278.6663187,-1.0,-2.0,0.0,-5.0,3.0,10.0,3.0,1.0
1706277278.6663187,-1.0,5.0,5.0,-10.0,-9.0,-8.0,-5.0,-1.0
1706277278.6663187,1.0,-2.0,-1.0,5.0,6.0,11.0,8.0,2.0
1706277278.6663187,-2.0,0.0,-15.0,-2.0,-2.0,-5.0,-3.0,-1.0
1706277278.6663187,0.0,4.0,32.0,9.0,6.0,4.0,3.0,1.0
1706277278.6663187,-5.0,-4.0,-9.0,3.0,-6.0,-10.0,-6.0,-4.0
1706277278.6963172,2.0,4.0,33.0,15.0,4.0,-4.0,-3.0,-1.0
1706277278.6963172,-5.0,-7.0,-15.0,-13.0,-5.0,3.0,3.0,-1.0
1706277278.6963172,-2.0,-3.0,-2.0,-13.0,-10.0,-13.0,-9.0,-4.0
1706277278.6963172,2.0,0.0,-16.0,3.0,3.0,7.0,5.0,1.0
1706277278.706535,-5.0,-11.0,-5.0,-7.0,-5.0,-3.0,-3.0,-4.0
1706277278.706535,2.0,6.0,16.0,4.0,1.0,2.0,-1.0,0.0
1706277278.7165368,-7.0,-7.0,-16.0,-1.0,-3.0,-4.0,0.0,-2.0
1706277278.7165368,1.0,3.0,13.0,0.0,-1.0,1.0,-1.0,0.0
1706277278.7363217,2.0,4.0,-9.0,0.0,1.0,-5.0,-4.0,0.0
1706277278.7363217,-3.0,-4.0,2.0,-4.0,-3.0,1.0,1.0,-1.0
1706277278.7363217,0.0,1.0,-10.0,0.0,-1.0,0.0,2.0,0.0
1706277278.7363217,-1.0,-3.0,-5.0,-6.0,-3.0,-4.0,-2.0,-2.0
1706277278.7564037,0.0,2.0,8.0,9.0,10.0,5.0,3.0,0.0
1706277278.7564037,0.0,-3.0,-5.0,-5.0,-2.0,2.0,-2.0,-1.0
1706277278.7564037,-1.0,-2.0,0.0,7.0,-3.0,-1.0,-2.0,-1.0
1706277278.7564037,1.0,-1.0,-3.0,-8.0,5.0,5.0,4.0,0.0
1706277278.766317,-3.0,-4.0,-5.0,8.0,-4.0,-5.0,-3.0,-2.0
1706277278.766317,1.0,6.0,18.0,0.0,-5.0,-2.0,-2.0,0.0
1706277278.7766163,0.0,-2.0,-11.0,5.0,2.0,3.0,2.0,2.0
1706277278.7766163,-3.0,-5.0,3.0,-6.0,-6.0,-4.0,-2.0,-1.0
1706277278.7866724,-3.0,-3.0,-10.0,-4.0,0.0,-2.0,-1.0,-2.0
1706277278.7866724,0.0,1.0,3.0,3.0,0.0,0.0,-1.0,-1.0
1706277278.7866724,-2.0,-2.0,-11.0,-8.0,-5.0,-7.0,-4.0,-1.0
1706277278.7866724,3.0,2.0,4.0,5.0,-2.0,-3.0,-4.0,1.0
1706277278.8164394,1.0,1.0,9.0,-2.0,6.0,14.0,9.0,3.0
1706277278.8164394,0.0,-3.0,-3.0,-8.0,-2.0,-4.0,-2.0,-1.0
1706277278.8164394,0.0,-2.0,-5.0,-10.0,-1.0,-5.0,0.0,0.0
1706277278.8164394,-2.0,-3.0,-8.0,8.0,-2.0,1.0,-1.0,0.0
1706277278.826317,-2.0,1.0,7.0,-3.0,-4.0,-6.0,-3.0,-1.0
1706277278.826317,-1.0,-1.0,-6.0,-12.0,-2.0,-1.0,-1.0,0.0
1706277278.8365345,1.0,0.0,4.0,16.0,0.0,-2.0,0.0,0.0
1706277278.8365345,-1.0,0.0,-4.0,1.0,0.0,4.0,2.0,-1.0
1706277278.846476,-2.0,-3.0,-9.0,-8.0,-4.0,-7.0,-4.0,-1.0
1706277278.8563213,0.0,0.0,6.0,2.0,-1.0,3.0,2.0,1.0
1706277278.8563213,-2.0,0.0,2.0,-8.0,-2.0,-3.0,-3.0,-3.0
1706277278.8563213,-2.0,-2.0,-5.0,-3.0,1.0,0.0,1.0,0.0
1706277278.8763177,-2.0,-1.0,-4.0,-1.0,-3.0,-5.0,-4.0,-4.0
1706277278.8763177,-2.0,-3.0,-14.0,-8.0,-6.0,-3.0,-3.0,-2.0
1706277278.8763177,-3.0,-1.0,8.0,5.0,1.0,2.0,-2.0,0.0
1706277278.8763177,-2.0,-2.0,3.0,-1.0,-4.0,-3.0,-1.0,-1.0
1706277278.886343,1.0,-2.0,-7.0,-9.0,-3.0,-4.0,-3.0,-1.0
1706277278.886343,0.0,1.0,0.0,-2.0,9.0,2.0,2.0,1.0
1706277278.8966527,1.0,0.0,1.0,12.0,-3.0,-1.0,2.0,0.0
1706277278.8966527,-1.0,-3.0,-7.0,-10.0,0.0,0.0,0.0,-1.0
1706277278.916317,-2.0,-2.0,-4.0,0.0,-5.0,-3.0,-3.0,-1.0
1706277278.916317,-2.0,-1.0,2.0,2.0,1.0,1.0,-3.0,0.0
1706277278.916317,-2.0,-2.0,-4.0,-16.0,-3.0,-2.0,-3.0,-3.0
1706277278.916317,2.0,0.0,2.0,12.0,7.0,3.0,0.0,0.0
1706277278.9367435,-3.0,0.0,-5.0,-11.0,-11.0,-4.0,-2.0,-3.0
1706277278.9367435,-2.0,-1.0,2.0,10.0,3.0,3.0,1.0,0.0
1706277278.9367435,-3.0,-1.0,-6.0,-5.0,-2.0,-1.0,1.0,-2.0
1706277278.9367435,-1.0,0.0,1.0,0.0,-1.0,-2.0,0.0,0.0
1706277278.946681,-3.0,-2.0,-5.0,0.0,2.0,0.0,-1.0,-1.0
1706277278.946681,0.0,-2.0,6.0,2.0,-4.0,-2.0,-1.0,1.0
1706277278.9566746,-3.0,-5.0,-11.0,-3.0,-1.0,-5.0,-4.0,-4.0
1706277278.9566746,-2.0,-2.0,5.0,6.0,2.0,2.0,2.0,-1.0
1706277278.9763172,0.0,1.0,-1.0,-8.0,-2.0,-4.0,-5.0,-1.0
1706277278.9763172,-3.0,-4.0,-5.0,0.0,-4.0,-5.0,-2.0,-1.0
1706277278.9763172,4.0,6.0,9.0,3.0,2.0,7.0,5.0,4.0
1706277278.9763172,-5.0,-7.0,-27.0,-1.0,1.0,1.0,0.0,-1.0
1706277278.996612,2.0,7.0,23.0,-6.0,-3.0,-2.0,-1.0,1.0
1706277278.996612,-1.0,1.0,13.0,20.0,0.0,-1.0,-2.0,-2.0
1706277278.996612,0.0,7.0,25.0,-6.0,-2.0,-5.0,-5.0,-3.0
1706277278.996612,-6.0,-20.0,-56.0,-10.0,1.0,6.0,3.0,0.0
1706277279.0066884,-3.0,-8.0,-1.0,1.0,-2.0,-3.0,-2.0,-2.0
1706277279.0066884,6.0,19.0,38.0,-4.0,0.0,-3.0,1.0,3.0
1706277279.0163176,-7.0,-21.0,-25.0,-4.0,-3.0,-2.0,-5.0,-3.0
1706277279.0163176,2.0,9.0,22.0,15.0,6.0,0.0,-1.0,2.0
1706277279.0363164,-1.0,-4.0,0.0,-2.0,-2.0,0.0,-1.0,-2.0
1706277279.0363164,-2.0,-7.0,-15.0,-8.0,0.0,1.0,-1.0,-3.0
1706277279.0363164,4.0,7.0,8.0,7.0,1.0,-1.0,0.0,1.0
1706277279.0363164,-7.0,1.0,4.0,-16.0,-7.0,-2.0,-2.0,-3.0
1706277279.056558,0.0,-2.0,-16.0,12.0,4.0,0.0,1.0,0.0
1706277279.056558,-1.0,-7.0,-6.0,1.0,-3.0,-2.0,0.0,1.0
1706277279.056558,-1.0,1.0,3.0,-3.0,-1.0,-2.0,-2.0,-1.0
1706277279.056558,0.0,2.0,2.0,-8.0,-7.0,-6.0,-3.0,-3.0
1706277279.066688,-3.0,-8.0,1.0,0.0,-1.0,1.0,3.0,2.0
1706277279.066688,3.0,15.0,-18.0,-7.0,-3.0,-2.0,-4.0,-6.0
1706277279.0863168,-6.0,-15.0,-16.0,-30.0,-10.0,-4.0,-2.0,-1.0
1706277279.0863168,5.0,10.0,20.0,21.0,6.0,-1.0,-4.0,1.0
1706277279.0863168,0.0,3.0,-2.0,-6.0,6.0,4.0,1.0,1.0
1706277279.0863168,-9.0,-14.0,-8.0,2.0,-2.0,-3.0,-4.0,-6.0
1706277279.0863168,2.0,6.0,6.0,-7.0,-3.0,-3.0,-1.0,-1.0
1706277279.0863168,2.0,-1.0,-1.0,-16.0,-11.0,-4.0,-3.0,-1.0
1706277279.1166995,3.0,1.0,-2.0,7.0,-2.0,-1.0,1.0,0.0
1706277279.1166995,-1.0,-5.0,-9.0,11.0,6.0,0.0,0.0,1.0
1706277279.1166995,-4.0,4.0,1.0,-9.0,-5.0,-2.0,-3.0,-1.0
1706277279.1166995,-2.0,-1.0,2.0,-8.0,-3.0,-3.0,-1.0,-2.0
1706277279.1266706,-3.0,-5.0,-7.0,7.0,1.0,-1.0,-2.0,1.0
1706277279.1266706,-1.0,1.0,2.0,-22.0,-8.0,-2.0,-1.0,-3.0
1706277279.1463163,-2.0,-4.0,-3.0,9.0,7.0,3.0,0.0,-3.0
1706277279.1463163,2.0,3.0,2.0,9.0,-1.0,-2.0,-1.0,2.0
1706277279.1463163,-5.0,1.0,-18.0,-20.0,-8.0,-3.0,-3.0,-3.0
1706277279.1463163,2.0,-3.0,-7.0,14.0,3.0,2.0,-1.0,3.0
1706277279.1463163,-1.0,2.0,7.0,4.0,3.0,2.0,0.0,-2.0
1706277279.1463163,0.0,4.0,17.0,-13.0,-9.0,-6.0,-4.0,-2.0
1706277279.1776917,-1.0,-1.0,6.0,15.0,-8.0,-5.0,-3.0,-3.0
1706277279.1776917,0.0,0.0,-4.0,13.0,17.0,9.0,5.0,3.0
1706277279.1787317,1.0,3.0,-4.0,9.0,2.0,-1.0,1.0,0.0
1706277279.1787317,-2.0,-5.0,-17.0,-3.0,1.0,-1.0,2.0,-2.0
1706277279.209288,-2.0,3.0,16.0,-5.0,-6.0,-5.0,-4.0,-3.0
1706277279.209288,-4.0,0.0,21.0,2.0,-6.0,-2.0,-2.0,-2.0
1706277279.209288,0.0,1.0,-18.0,2.0,-4.0,-8.0,-4.0,-1.0
1706277279.209288,1.0,3.0,21.0,-1.0,0.0,2.0,1.0,1.0
1706277279.209288,-5.0,-10.0,-4.0,-7.0,4.0,16.0,9.0,0.0
1706277279.209288,7.0,7.0,-10.0,0.0,-3.0,-10.0,-5.0,3.0
1706277279.209288,-1.0,13.0,66.0,25.0,7.0,3.0,0.0,-4.0
1706277279.209288,-3.0,-9.0,-72.0,-22.0,-9.0,-21.0,-11.0,4.0
1706277279.2295794,-23.0,-38.0,-52.0,-25.0,3.0,27.0,0.0,-18.0
1706277279.2295794,4.0,14.0,27.0,4.0,-6.0,-7.0,-4.0,-2.0
1706277279.2295794,2.0,-7.0,-26.0,-10.0,-8.0,-7.0,-4.0,5.0
1706277279.2295794,-2.0,5.0,22.0,8.0,-1.0,-2.0,-3.0,-12.0
1706277279.2596025,4.0,9.0,16.0,11.0,2.0,-9.0,-2.0,2.0
1706277279.2596025,-8.0,-14.0,-18.0,-12.0,-1.0,2.0,-1.0,-4.0
1706277279.2596025,-3.0,-2.0,-7.0,-6.0,-9.0,-6.0,-4.0,-2.0
1706277279.2596025,-2.0,-4.0,7.0,4.0,2.0,6.0,0.0,-3.0
1706277279.2799745,9.0,13.0,-5.0,2.0,3.0,-5.0,0.0,5.0
1706277279.2799745,-3.0,-1.0,20.0,-1.0,-5.0,5.0,2.0,0.0
1706277279.2799745,-1.0,-1.0,-8.0,0.0,3.0,1.0,1.0,1.0
1706277279.2799745,0.0,-6.0,2.0,-2.0,1.0,7.0,2.0,3.0
1706277279.2903821,2.0,7.0,-5.0,-1.0,-5.0,-9.0,0.0,-2.0
1706277279.2903821,3.0,5.0,2.0,-2.0,-2.0,-5.0,-5.0,2.0
1706277279.2903821,2.0,3.0,-13.0,6.0,6.0,14.0,6.0,1.0
1706277279.2903821,-8.0,-13.0,0.0,-9.0,-4.0,4.0,1.0,-3.0
1706277279.3099875,6.0,3.0,3.0,-6.0,-12.0,-18.0,-5.0,7.0
1706277279.3099875,-11.0,-24.0,-32.0,-17.0,-1.0,5.0,1.0,-9.0
1706277279.3199883,2.0,4.0,9.0,5.0,-2.0,-10.0,-7.0,-3.0
1706277279.3199883,-3.0,4.0,13.0,-1.0,-3.0,-6.0,-5.0,-4.0
1706277279.3303745,-4.0,-5.0,2.0,7.0,7.0,2.0,-1.0,-3.0
1706277279.3303745,-4.0,-9.0,-15.0,-4.0,-10.0,-12.0,-4.0,0.0
1706277279.3404086,-1.0,-2.0,-10.0,-6.0,3.0,9.0,5.0,0.0
1706277279.3404086,0.0,5.0,12.0,-3.0,-8.0,-13.0,-8.0,-2.0
1706277279.350351,1.0,6.0,11.0,5.0,5.0,9.0,3.0,2.0
1706277279.350351,-2.0,1.0,-4.0,-4.0,-2.0,-3.0,0.0,-2.0
1706277279.350351,-7.0,-11.0,-4.0,0.0,1.0,-3.0,-4.0,-8.0
1706277279.350351,2.0,3.0,-4.0,3.0,4.0,3.0,2.0,2.0
1706277279.369986,-7.0,-8.0,-3.0,-3.0,-3.0,-3.0,-5.0,-2.0
1706277279.369986,3.0,8.0,2.0,-2.0,0.0,3.0,1.0,0.0
1706277279.379988,-1.0,-1.0,5.0,-1.0,-2.0,-2.0,0.0,0.0
1706277279.379988,0.0,-5.0,-15.0,-10.0,-3.0,2.0,1.0,0.0
1706277279.3904257,0.0,-3.0,-1.0,-2.0,-2.0,-11.0,-6.0,-1.0
1706277279.3904257,-1.0,6.0,13.0,1.0,3.0,2.0,-1.0,-1.0
1706277279.4003859,-2.0,-3.0,-14.0,1.0,2.0,-6.0,-6.0,2.0
1706277279.4003859,6.0,4.0,20.0,9.0,10.0,23.0,15.0,4.0
1706277279.410372,3.0,9.0,1.0,-10.0,-7.0,-6.0,-6.0,-1.0
1706277279.410372,0.0,-4.0,-18.0,-4.0,0.0,0.0,0.0,3.0
1706277279.410372,0.0,-8.0,-15.0,-2.0,3.0,5.0,1.0,-2.0
1706277279.410372,0.0,3.0,3.0,4.0,3.0,0.0,-3.0,-1.0
1706277279.429986,1.0,4.0,11.0,5.0,-4.0,-1.0,-1.0,2.0
1706277279.429986,-3.0,-5.0,-2.0,-1.0,-1.0,-7.0,-1.0,-2.0
1706277279.4399881,-2.0,-1.0,4.0,-7.0,-2.0,8.0,5.0,-1.0
1706277279.4399881,1.0,0.0,-7.0,-1.0,0.0,0.0,-5.0,0.0
1706277279.4504094,-7.0,-7.0,-5.0,2.0,2.0,0.0,0.0,-1.0
1706277279.4504094,-1.0,-3.0,8.0,0.0,-2.0,-5.0,-5.0,-3.0
1706277279.4603937,0.0,3.0,5.0,-3.0,-3.0,-2.0,0.0,-1.0
1706277279.4603937,-4.0,-3.0,-3.0,2.0,0.0,-3.0,-3.0,-3.0
1706277279.4799852,0.0,1.0,1.0,-5.0,1.0,0.0,0.0,-4.0
1706277279.4799852,1.0,1.0,6.0,0.0,2.0,2.0,1.0,1.0
1706277279.4799852,-3.0,-2.0,0.0,2.0,0.0,1.0,0.0,0.0
1706277279.4799852,-3.0,-6.0,-9.0,-9.0,0.0,7.0,1.0,-4.0
1706277279.4999971,4.0,5.0,4.0,3.0,-2.0,-8.0,0.0,3.0
1706277279.4999971,-4.0,-6.0,-9.0,-1.0,-2.0,2.0,0.0,-3.0
1706277279.4999971,2.0,3.0,6.0,-4.0,-4.0,-3.0,1.0,1.0
1706277279.4999971,2.0,2.0,-2.0,2.0,1.0,-5.0,-3.0,-1.0
1706277279.5103028,0.0,0.0,7.0,29.0,2.0,-2.0,-2.0,-1.0
1706277279.5103028,-4.0,-9.0,-19.0,-30.0,-3.0,1.0,-1.0,-1.0
1706277279.5202785,0.0,2.0,5.0,1.0,-3.0,-4.0,-4.0,-3.0
1706277279.5202785,1.0,2.0,-3.0,-5.0,-2.0,-2.0,0.0,-2.0
1706277279.5302644,-3.0,-3.0,-6.0,8.0,4.0,0.0,-1.0,-2.0
1706277279.5302644,-1.0,0.0,7.0,7.0,0.0,0.0,1.0,0.0
1706277279.5599895,-2.0,-5.0,-5.0,-4.0,-1.0,-2.0,-3.0,1.0
1706277279.5599895,-3.0,-2.0,-1.0,6.0,0.0,-4.0,-1.0,0.0
1706277279.5599895,4.0,5.0,5.0,-14.0,-1.0,4.0,2.0,0.0
1706277279.5599895,0.0,5.0,6.0,8.0,0.0,-3.0,-1.0,-3.0
1706277279.5599895,-3.0,-8.0,-7.0,-5.0,-3.0,0.0,-1.0,-1.0
1706277279.5599895,-5.0,-8.0,-3.0,-7.0,-5.0,-3.0,-3.0,-2.0
1706277279.5700192,-3.0,-8.0,-13.0,-9.0,-3.0,0.0,-1.0,-3.0
1706277279.5700192,2.0,4.0,0.0,7.0,-1.0,-1.0,-3.0,1.0
1706277279.5802069,-1.0,2.0,13.0,-17.0,-2.0,3.0,0.0,-3.0
1706277279.5802069,3.0,3.0,6.0,7.0,4.0,2.0,2.0,4.0
1706277279.5899887,1.0,-1.0,1.0,-2.0,4.0,4.0,5.0,0.0
1706277279.5899887,0.0,-1.0,-17.0,6.0,-8.0,-9.0,-3.0,-1.0
1706277279.5899887,-2.0,-5.0,-4.0,4.0,-5.0,-3.0,-3.0,-2.0
1706277279.5899887,0.0,0.0,-2.0,0.0,-6.0,-3.0,-3.0,0.0
1706277279.6104202,1.0,6.0,13.0,0.0,-4.0,-1.0,-3.0,0.0
1706277279.6104202,0.0,-2.0,-2.0,0.0,6.0,7.0,3.0,0.0
1706277279.6199884,-2.0,-6.0,-7.0,-6.0,-5.0,-10.0,-4.0,0.0
1706277279.6199884,-1.0,-3.0,3.0,1.0,0.0,0.0,0.0,0.0
1706277279.6301887,1.0,0.0,-5.0,0.0,-1.0,-3.0,-1.0,0.0
1706277279.6301887,-3.0,2.0,4.0,-2.0,-4.0,0.0,-1.0,-3.0
1706277279.6403716,1.0,3.0,-4.0,2.0,1.0,-3.0,-3.0,-2.0
1706277279.6403716,-3.0,0.0,-5.0,-4.0,-3.0,-4.0,-2.0,-1.0
1706277279.649986,-1.0,0.0,-6.0,-5.0,2.0,-1.0,-1.0,-2.0
1706277279.649986,-2.0,-1.0,7.0,-14.0,-3.0,1.0,0.0,0.0
1706277279.649986,-2.0,-2.0,-8.0,12.0,-1.0,4.0,3.0,-1.0
1706277279.649986,-3.0,-7.0,1.0,5.0,0.0,-6.0,-3.0,-3.0
1706277279.670411,1.0,9.0,9.0,-10.0,-11.0,-4.0,-3.0,-1.0
1706277279.670411,1.0,4.0,1.0,12.0,6.0,1.0,0.0,-1.0
1706277279.679988,-2.0,-3.0,-18.0,0.0,-2.0,-5.0,-2.0,-1.0
1706277279.679988,1.0,-1.0,-5.0,-1.0,3.0,-1.0,0.0,0.0
1706277279.7002735,-1.0,-2.0,0.0,1.0,-2.0,-3.0,-3.0,-1.0
1706277279.7002735,-1.0,-1.0,-10.0,-17.0,-6.0,-1.0,-1.0,-2.0
1706277279.7012737,-2.0,-3.0,2.0,6.0,-3.0,-4.0,-2.0,-3.0
1706277279.7012737,2.0,2.0,-2.0,6.0,5.0,1.0,1.0,-2.0
1706277279.716587,-1.0,-8.0,-8.0,-8.0,1.0,0.0,-2.0,-1.0
1706277279.716587,1.0,2.0,8.0,12.0,1.0,-1.0,-2.0,0.0
1706277279.7180321,2.0,1.0,0.0,0.0,2.0,3.0,1.0,1.0
1706277279.7180321,0.0,4.0,1.0,-6.0,-5.0,-2.0,-1.0,0.0
1706277279.7324262,-3.0,-3.0,-3.0,8.0,6.0,1.0,0.0,0.0
1706277279.7324262,-3.0,-4.0,6.0,-1.0,3.0,2.0,-2.0,-2.0
1706277279.7324262,-1.0,-5.0,-4.0,1.0,-6.0,-4.0,-1.0,-1.0
1706277279.7324262,2.0,2.0,6.0,-4.0,-8.0,-4.0,-3.0,-1.0
1706277279.7619588,-3.0,-2.0,5.0,-5.0,0.0,-1.0,-1.0,-3.0
1706277279.7619588,-2.0,-1.0,4.0,-1.0,-4.0,-9.0,-3.0,-1.0
1706277279.7619588,-2.0,-2.0,-14.0,-2.0,-6.0,-20.0,-13.0,-6.0
1706277279.7619588,4.0,6.0,15.0,4.0,19.0,44.0,27.0,10.0
1706277279.7723653,-4.0,-9.0,-32.0,-7.0,-7.0,-10.0,-5.0,-2.0
1706277279.7723653,1.0,10.0,33.0,4.0,5.0,6.0,2.0,0.0
1706277279.7723653,-5.0,-12.0,-17.0,-13.0,-6.0,-4.0,-3.0,-1.0
1706277279.7723653,-3.0,-4.0,-15.0,1.0,-9.0,-16.0,-8.0,-6.0
1706277279.792366,3.0,6.0,15.0,1.0,4.0,4.0,3.0,2.0
1706277279.792366,-4.0,-6.0,-19.0,-4.0,-4.0,-1.0,-2.0,-2.0
1706277279.792366,0.0,4.0,9.0,4.0,7.0,8.0,2.0,2.0
1706277279.792366,-1.0,-3.0,-2.0,-3.0,-3.0,-6.0,-4.0,-3.0
1706277279.8119638,-3.0,-1.0,3.0,-5.0,-2.0,6.0,0.0,-1.0
1706277279.8119638,0.0,-2.0,-6.0,2.0,-5.0,-9.0,-5.0,-3.0
1706277279.821959,5.0,13.0,17.0,0.0,3.0,7.0,6.0,1.0
1706277279.821959,-8.0,-10.0,-14.0,-8.0,-5.0,-8.0,-7.0,-6.0
1706277279.8320146,-3.0,-3.0,4.0,-2.0,-7.0,-19.0,-6.0,-4.0
1706277279.8320146,-1.0,-3.0,-9.0,-1.0,7.0,19.0,7.0,1.0
1706277279.8320146,-2.0,-5.0,-9.0,-7.0,-2.0,-5.0,-3.0,0.0
1706277279.8320146,3.0,9.0,12.0,-1.0,-8.0,-11.0,-7.0,-3.0
1706277279.852292,-4.0,-8.0,-14.0,0.0,5.0,16.0,6.0,2.0
1706277279.852292,-7.0,-11.0,-17.0,-6.0,-9.0,-11.0,-5.0,-2.0
1706277279.852292,1.0,-1.0,9.0,7.0,9.0,15.0,8.0,-1.0
1706277279.852292,6.0,9.0,16.0,8.0,4.0,4.0,-1.0,9.0
1706277279.8819668,-2.0,1.0,10.0,15.0,-1.0,-2.0,1.0,-3.0
1706277279.8819668,2.0,3.0,0.0,-19.0,-5.0,-11.0,-7.0,9.0
1706277279.9019597,-8.0,-6.0,-17.0,-9.0,-11.0,-3.0,1.0,-8.0
1706277279.9019597,-2.0,-9.0,9.0,2.0,1.0,-7.0,0.0,2.0
1706277279.9019597,5.0,10.0,15.0,9.0,4.0,8.0,1.0,0.0
1706277279.9019597,-2.0,-10.0,-16.0,-4.0,-1.0,-4.0,2.0,0.0
1706277279.9019597,5.0,9.0,19.0,4.0,1.0,-7.0,-2.0,6.0
1706277279.9019597,-10.0,-18.0,-26.0,-12.0,-5.0,-4.0,-7.0,-14.0
1706277279.9119859,-14.0,-26.0,-21.0,-23.0,-7.0,-6.0,-5.0,-7.0
1706277279.9119859,3.0,6.0,12.0,12.0,4.0,-2.0,0.0,0.0
1706277279.9119859,1.0,7.0,12.0,2.0,1.0,3.0,-3.0,-3.0
1706277279.9119859,4.0,12.0,3.0,1.0,-3.0,-2.0,2.0,0.0
1706277279.9319603,3.0,8.0,4.0,1.0,-1.0,-4.0,-4.0,0.0
1706277279.9319603,-4.0,-3.0,-7.0,2.0,-2.0,-1.0,-2.0,-4.0
1706277279.9419625,2.0,3.0,7.0,-7.0,1.0,4.0,1.0,2.0
1706277279.9419625,-1.0,1.0,-2.0,2.0,2.0,0.0,-1.0,0.0
1706277279.9523954,-4.0,-6.0,-7.0,-5.0,-5.0,-6.0,-3.0,-2.0
1706277279.9523954,-2.0,-2.0,3.0,-4.0,-1.0,4.0,3.0,-2.0
1706277279.9523954,-1.0,-1.0,-1.0,0.0,0.0,2.0,-1.0,0.0
1706277279.9523954,-4.0,-5.0,-7.0,-7.0,-5.0,-7.0,-4.0,-5.0
1706277279.9722133,2.0,2.0,-4.0,6.0,7.0,5.0,2.0,1.0
1706277279.9722133,0.0,5.0,7.0,4.0,-2.0,0.0,-1.0,-4.0
1706277279.9722133,-1.0,-4.0,-1.0,-2.0,-6.0,-4.0,-2.0,-2.0
1706277279.9722133,-8.0,-11.0,-12.0,-10.0,-4.0,-7.0,-4.0,-4.0
1706277279.99196,3.0,4.0,4.0,5.0,-1.0,-4.0,0.0,0.0
1706277279.99196,5.0,5.0,4.0,0.0,5.0,5.0,-1.0,2.0
1706277280.0019648,2.0,6.0,19.0,9.0,9.0,16.0,9.0,2.0
1706277280.0019648,-2.0,-11.0,-37.0,-9.0,-7.0,-12.0,-6.0,-1.0
1706277280.0119634,2.0,4.0,-2.0,-6.0,0.0,5.0,4.0,3.0
1706277280.0119634,-4.0,-4.0,7.0,-8.0,-8.0,-7.0,-5.0,-6.0
1706277280.0119634,-1.0,-2.0,-8.0,-4.0,4.0,-6.0,-4.0,-2.0
1706277280.0119634,-2.0,0.0,7.0,6.0,-5.0,-3.0,1.0,1.0
1706277280.0319667,2.0,4.0,0.0,5.0,3.0,6.0,0.0,1.0
1706277280.0319667,1.0,3.0,-9.0,-4.0,-1.0,-3.0,-2.0,-2.0
1706277280.0319667,2.0,3.0,9.0,6.0,1.0,-2.0,-1.0,0.0
1706277280.0319667,-3.0,-5.0,0.0,0.0,5.0,3.0,0.0,0.0
1706277280.0719595,-3.0,-6.0,-10.0,-6.0,-4.0,-7.0,-4.0,-3.0
1706277280.0719595,-2.0,-1.0,5.0,6.0,4.0,5.0,2.0,0.0
1706277280.0719595,-1.0,-5.0,-12.0,-6.0,-10.0,-13.0,-8.0,-3.0
1706277280.0719595,2.0,7.0,5.0,3.0,4.0,8.0,5.0,-1.0
1706277280.0719595,3.0,9.0,23.0,3.0,-5.0,-11.0,-12.0,-1.0
1706277280.0719595,-6.0,-19.0,-30.0,-7.0,5.0,21.0,14.0,3.0
1706277280.0719595,-7.0,-15.0,-32.0,-10.0,-1.0,-5.0,-2.0,-2.0
1706277280.0719595,1.0,5.0,13.0,0.0,-7.0,-7.0,-5.0,0.0
1706277280.10196,-1.0,-3.0,-3.0,-4.0,0.0,3.0,1.0,-1.0
1706277280.10196,2.0,5.0,13.0,4.0,-9.0,-9.0,-6.0,-3.0
1706277280.10196,-2.0,2.0,8.0,3.0,1.0,-1.0,-1.0,-2.0
1706277280.10196,-5.0,-10.0,-14.0,-7.0,2.0,3.0,0.0,-1.0
1706277280.1219637,0.0,4.0,2.0,-4.0,-4.0,-5.0,-3.0,-2.0
1706277280.1219637,-2.0,-6.0,-13.0,4.0,-1.0,-9.0,-8.0,-4.0
1706277280.1219637,-1.0,-2.0,4.0,-8.0,-7.0,1.0,2.0,1.0
1706277280.1219637,-1.0,2.0,9.0,4.0,0.0,-3.0,-2.0,-1.0
1706277280.1322646,1.0,0.0,-4.0,4.0,0.0,3.0,1.0,2.0
1706277280.1322646,-2.0,-1.0,3.0,-1.0,-3.0,-1.0,-2.0,-3.0
1706277280.1322646,2.0,4.0,5.0,2.0,0.0,0.0,0.0,-3.0
1706277280.1322646,-1.0,0.0,4.0,4.0,0.0,-4.0,-3.0,-1.0
1706277280.1719615,-5.0,-11.0,-23.0,-20.0,-3.0,0.0,-2.0,-3.0
1706277280.1719615,-1.0,5.0,12.0,16.0,0.0,-1.0,0.0,0.0
1706277280.1719615,-2.0,-2.0,1.0,-2.0,-3.0,-6.0,-4.0,-2.0
1706277280.1719615,-3.0,-6.0,-5.0,-1.0,2.0,6.0,1.0,-1.0
1706277280.1719615,-2.0,-1.0,3.0,1.0,-1.0,-4.0,0.0,-2.0
1706277280.1719615,0.0,-1.0,-1.0,-2.0,-2.0,-2.0,-1.0,2.0
1706277280.181958,-1.0,0.0,-6.0,-11.0,3.0,2.0,1.0,1.0
1706277280.181958,2.0,7.0,6.0,10.0,-5.0,-1.0,0.0,-1.0
1706277280.192277,-2.0,-3.0,7.0,8.0,11.0,4.0,1.0,-1.0
1706277280.192277,0.0,1.0,-4.0,-7.0,-5.0,-3.0,-2.0,-3.0
1706277280.2176778,-1.0,-3.0,-2.0,10.0,-2.0,-5.0,-3.0,-2.0
1706277280.218678,0.0,-4.0,-2.0,-8.0,-5.0,1.0,1.0,1.0
1706277280.2256744,-1.0,1.0,-1.0,0.0,0.0,1.0,0.0,-1.0
1706277280.2256744,-1.0,0.0,2.0,-2.0,2.0,3.0,-1.0,0.0
1706277280.2256744,-2.0,-5.0,-9.0,-7.0,-1.0,1.0,0.0,-2.0
1706277280.2256744,0.0,4.0,2.0,-6.0,-11.0,-27.0,-21.0,-6.0
1706277280.2381904,7.0,7.0,6.0,12.0,21.0,52.0,29.0,12.0
1706277280.2381904,0.0,4.0,9.0,2.0,0.0,-10.0,-7.0,-2.0
1706277280.2381904,-9.0,-13.0,-18.0,-8.0,-4.0,-3.0,0.0,-6.0
1706277280.2381904,0.0,1.0,-2.0,-4.0,1.0,3.0,2.0,2.0
1706277280.2485075,-2.0,-4.0,-8.0,-5.0,-9.0,-16.0,-9.0,-5.0
1706277280.2485075,-2.0,1.0,11.0,-6.0,-4.0,-3.0,-2.0,0.0
1706277280.26819,3.0,9.0,13.0,11.0,2.0,2.0,-3.0,1.0
1706277280.26819,-6.0,-11.0,-13.0,-5.0,3.0,3.0,1.0,-2.0
1706277280.2784498,-2.0,0.0,-6.0,-10.0,-8.0,-11.0,-1.0,-2.0
1706277280.2784498,-5.0,-11.0,-8.0,3.0,-2.0,2.0,0.0,-3.0
1706277280.2784498,-3.0,-4.0,-6.0,-3.0,-2.0,-5.0,-4.0,-1.0
1706277280.2784498,2.0,4.0,8.0,-1.0,-1.0,4.0,4.0,-1.0
1706277280.2984633,-2.0,0.0,2.0,-2.0,-4.0,-6.0,-5.0,0.0
1706277280.2984633,0.0,-4.0,-15.0,-6.0,2.0,-1.0,0.0,1.0
1706277280.3281896,0.0,2.0,7.0,2.0,-1.0,1.0,1.0,1.0
1706277280.3281896,-1.0,5.0,5.0,11.0,10.0,9.0,5.0,2.0
1706277280.3281896,-3.0,-7.0,-6.0,-1.0,-1.0,-5.0,-6.0,-5.0
1706277280.3281896,0.0,-1.0,-1.0,-10.0,-5.0,-3.0,-1.0,-2.0
1706277280.3281896,-1.0,-3.0,-2.0,-3.0,-6.0,-2.0,-2.0,0.0
1706277280.3281896,-1.0,-1.0,-2.0,-3.0,-2.0,0.0,1.0,0.0
1706277280.3385975,-4.0,-3.0,1.0,-3.0,-8.0,-11.0,-5.0,-2.0
1706277280.3385975,-1.0,0.0,-2.0,7.0,10.0,2.0,-1.0,0.0
1706277280.3385975,-2.0,-2.0,-3.0,-9.0,-6.0,-5.0,-3.0,-1.0
1706277280.3385975,1.0,1.0,3.0,-1.0,1.0,3.0,1.0,-2.0
1706277280.3586216,1.0,3.0,4.0,2.0,0.0,-7.0,-4.0,-2.0
1706277280.3586216,-5.0,-7.0,-12.0,-13.0,-8.0,4.0,2.0,-3.0
1706277280.3586216,1.0,2.0,3.0,1.0,-1.0,-3.0,-1.0,0.0
1706277280.3586216,-5.0,-6.0,-7.0,-5.0,-7.0,-6.0,-2.0,-2.0
1706277280.3681915,2.0,3.0,4.0,5.0,1.0,1.0,2.0,1.0
1706277280.3681915,-4.0,-5.0,3.0,-4.0,-2.0,-7.0,-3.0,-3.0
1706277280.378225,1.0,0.0,0.0,10.0,3.0,3.0,1.0,0.0
1706277280.378225,4.0,8.0,11.0,3.0,-1.0,-2.0,0.0,2.0
1706277280.398614,-4.0,-9.0,-18.0,-7.0,-1.0,-1.0,-2.0,-3.0
1706277280.398614,0.0,4.0,1.0,6.0,-4.0,-4.0,-6.0,-6.0
1706277280.398614,3.0,6.0,13.0,-1.0,0.0,0.0,0.0,2.0
1706277280.398614,-1.0,-3.0,-6.0,-1.0,-1.0,-4.0,-5.0,-2.0
1706277280.4185658,-4.0,-5.0,-8.0,-4.0,-8.0,-7.0,-3.0,-4.0
1706277280.4185658,-1.0,-4.0,-23.0,-8.0,-1.0,1.0,0.0,3.0
1706277280.4185658,2.0,5.0,14.0,4.0,8.0,8.0,4.0,2.0
1706277280.4185658,-3.0,-7.0,-18.0,-1.0,-3.0,3.0,0.0,-2.0
1706277280.4282515,-2.0,-1.0,-1.0,-1.0,-3.0,-7.0,-7.0,-3.0
1706277280.4282515,1.0,3.0,6.0,-6.0,-2.0,0.0,1.0,1.0
1706277280.4382896,-1.0,1.0,-2.0,9.0,-4.0,-2.0,0.0,-1.0
1706277280.4382896,1.0,5.0,13.0,0.0,0.0,-1.0,-2.0,-2.0
1706277280.4586563,-4.0,-9.0,-11.0,-22.0,-11.0,-6.0,-3.0,-4.0
1706277280.4586563,-1.0,-3.0,3.0,21.0,3.0,1.0,1.0,-1.0
1706277280.4586563,-4.0,-6.0,-12.0,-8.0,-1.0,-3.0,-4.0,-2.0
1706277280.4586563,1.0,2.0,0.0,-14.0,-4.0,0.0,1.0,0.0
1706277280.4782646,2.0,2.0,6.0,30.0,14.0,3.0,0.0,1.0
1706277280.4782646,0.0,2.0,-1.0,-19.0,-6.0,-1.0,-1.0,0.0
1706277280.4782646,-1.0,-1.0,6.0,6.0,-1.0,-4.0,-3.0,-1.0
1706277280.4782646,-4.0,-6.0,-13.0,-12.0,-3.0,2.0,1.0,-1.0
1706277280.4882882,0.0,0.0,-3.0,-11.0,-7.0,-4.0,-1.0,0.0
1706277280.4882882,1.0,2.0,0.0,7.0,2.0,3.0,1.0,0.0
1706277280.498656,-3.0,-6.0,-6.0,-5.0,-4.0,-8.0,-5.0,-2.0
1706277280.498656,0.0,2.0,11.0,0.0,0.0,-1.0,-4.0,-2.0
1706277280.5190053,-2.0,-3.0,-16.0,-2.0,1.0,5.0,4.0,0.0
1706277280.5190053,0.0,2.0,8.0,5.0,3.0,3.0,3.0,3.0
1706277280.5190053,-1.0,-4.0,-9.0,-8.0,-2.0,1.0,-3.0,-3.0
1706277280.5190053,-2.0,-1.0,2.0,0.0,-7.0,-11.0,-7.0,-3.0
1706277280.5386665,1.0,0.0,10.0,11.0,5.0,8.0,2.0,1.0
1706277280.5386665,2.0,4.0,9.0,-10.0,-1.0,-4.0,-1.0,1.0
1706277280.5386665,-5.0,-6.0,-16.0,-5.0,-2.0,4.0,5.0,-1.0
1706277280.5386665,0.0,1.0,6.0,9.0,-3.0,-13.0,-7.0,-3.0
1706277280.5490284,-3.0,0.0,-3.0,-13.0,-5.0,7.0,3.0,-2.0
1706277280.5490284,-1.0,-1.0,5.0,3.0,-1.0,-3.0,0.0,1.0
1706277280.5590231,-4.0,-11.0,-16.0,-1.0,-1.0,-4.0,-4.0,-4.0
1706277280.5590231,0.0,-5.0,-13.0,-3.0,1.0,2.0,1.0,1.0
1706277280.578667,-4.0,-5.0,-3.0,-8.0,-8.0,-6.0,-4.0,-1.0
1706277280.578667,4.0,9.0,15.0,11.0,5.0,6.0,2.0,2.0
1706277280.578667,1.0,4.0,5.0,-1.0,-4.0,-1.0,-3.0,-1.0
1706277280.578667,0.0,-1.0,-2.0,0.0,-2.0,2.0,2.0,-1.0
1706277280.598667,0.0,-1.0,4.0,-3.0,0.0,-2.0,-2.0,0.0
1706277280.598667,-4.0,-4.0,-9.0,-1.0,-5.0,-5.0,-4.0,-5.0
1706277280.598667,0.0,2.0,2.0,2.0,-1.0,-1.0,0.0,0.0
1706277280.598667,1.0,-1.0,-9.0,-6.0,0.0,3.0,2.0,1.0
1706277280.6089504,1.0,7.0,15.0,4.0,-4.0,-4.0,-3.0,0.0
1706277280.6089504,0.0,-1.0,-11.0,-10.0,-3.0,-4.0,-5.0,-3.0
1706277280.6190288,-4.0,-3.0,4.0,12.0,5.0,3.0,1.0,-1.0
1706277280.6190288,-3.0,-1.0,1.0,1.0,0.0,1.0,1.0,0.0
1706277280.639049,0.0,-1.0,-5.0,-9.0,-3.0,-5.0,-2.0,-1.0
1706277280.639049,-1.0,-3.0,1.0,11.0,-3.0,-3.0,-3.0,-2.0
1706277280.639049,1.0,2.0,-2.0,-11.0,-1.0,1.0,0.0,0.0
1706277280.639049,0.0,0.0,3.0,-1.0,3.0,1.0,-1.0,0.0
1706277280.6586673,-2.0,-5.0,-3.0,-8.0,-4.0,-5.0,-3.0,-2.0
1706277280.6586673,-4.0,-5.0,-6.0,6.0,-2.0,-4.0,-2.0,-4.0
1706277280.6586673,4.0,3.0,0.0,2.0,2.0,0.0,1.0,1.0
1706277280.6586673,-4.0,1.0,-2.0,3.0,2.0,2.0,1.0,0.0
1706277280.668914,2.0,1.0,4.0,2.0,-3.0,-1.0,-3.0,0.0
1706277280.668914,-7.0,-5.0,-1.0,-11.0,-5.0,-3.0,-2.0,-6.0
1706277280.6789227,1.0,4.0,7.0,-8.0,3.0,3.0,2.0,1.0
1706277280.6789227,-3.0,-5.0,-9.0,7.0,-6.0,-8.0,-2.0,-3.0
1706277280.6989138,2.0,2.0,1.0,4.0,3.0,2.0,3.0,2.0
1706277280.6989138,1.0,3.0,3.0,-3.0,1.0,0.0,-5.0,1.0
1706277280.6989138,3.0,4.0,12.0,6.0,9.0,2.0,4.0,3.0
1706277280.6989138,-1.0,-4.0,-11.0,-10.0,-3.0,3.0,-1.0,-2.0
1706277280.7286687,-6.0,-3.0,0.0,1.0,3.0,-2.0,-4.0,-2.0
1706277280.7286687,3.0,1.0,-1.0,1.0,0.0,3.0,3.0,3.0
1706277280.7286687,-2.0,0.0,0.0,-6.0,-5.0,-6.0,-3.0,-1.0
1706277280.7286687,1.0,-2.0,2.0,2.0,1.0,2.0,0.0,-1.0
1706277280.7286687,0.0,0.0,-1.0,-3.0,-6.0,-2.0,0.0,-2.0
1706277280.7286687,-5.0,-7.0,-18.0,-12.0,-5.0,0.0,-1.0,-3.0
1706277280.7514346,0.0,-1.0,7.0,4.0,-1.0,-2.0,-2.0,-2.0
1706277280.7514346,2.0,5.0,10.0,4.0,2.0,1.0,1.0,-1.0
1706277280.7586641,0.0,-2.0,-10.0,-14.0,-7.0,-5.0,-1.0,0.0
1706277280.7586641,-2.0,-4.0,4.0,12.0,7.0,3.0,0.0,-2.0
1706277280.7596507,-1.0,-1.0,-8.0,0.0,-2.0,-2.0,-1.0,1.0
1706277280.7606506,0.0,0.0,2.0,4.0,2.0,1.0,-1.0,1.0
1706277280.7810059,-1.0,2.0,3.0,2.0,-3.0,-1.0,-2.0,0.0
1706277280.7810059,0.0,1.0,0.0,-7.0,0.0,-1.0,-1.0,-2.0
1706277280.7810059,-1.0,-2.0,-8.0,-10.0,-8.0,-1.0,-1.0,-2.0
1706277280.7810059,0.0,-1.0,4.0,19.0,5.0,2.0,0.0,0.0
1706277280.8009892,0.0,2.0,6.0,1.0,0.0,-2.0,-2.0,-2.0
1706277280.8009892,-5.0,-6.0,-7.0,-10.0,-9.0,-6.0,-3.0,-3.0
1706277280.8009892,-2.0,-8.0,-13.0,-18.0,-3.0,4.0,-2.0,-3.0
1706277280.8009892,-1.0,1.0,6.0,2.0,0.0,-2.0,0.0,0.0
1706277280.820691,1.0,0.0,6.0,1.0,-5.0,-3.0,-2.0,-3.0
1706277280.820691,2.0,-2.0,-4.0,7.0,6.0,1.0,2.0,1.0
1706277280.820691,0.0,2.0,1.0,-9.0,-7.0,-6.0,-4.0,-2.0
1706277280.820691,-3.0,-1.0,0.0,-8.0,0.0,4.0,4.0,0.0
1706277280.8410025,1.0,-2.0,-5.0,9.0,7.0,2.0,0.0,2.0
1706277280.8410025,0.0,5.0,4.0,1.0,2.0,-1.0,0.0,-1.0
1706277280.8410025,-1.0,-2.0,8.0,3.0,-6.0,-7.0,2.0,-2.0
1706277280.8410025,-6.0,-10.0,-29.0,-19.0,-3.0,3.0,-3.0,-6.0
1706277280.8509848,-5.0,-6.0,2.0,3.0,2.0,-5.0,-3.0,-4.0
1706277280.8509848,4.0,9.0,12.0,13.0,5.0,6.0,3.0,5.0
1706277280.8610315,-10.0,-14.0,-21.0,-13.0,-9.0,-12.0,-8.0,-7.0
1706277280.8610315,-1.0,-1.0,1.0,-4.0,-2.0,1.0,1.0,3.0
1706277280.901053,-2.0,1.0,5.0,-6.0,0.0,2.0,0.0,-5.0
1706277280.901053,3.0,3.0,6.0,4.0,-4.0,-4.0,-2.0,2.0
1706277280.901053,-2.0,-3.0,-10.0,4.0,3.0,-1.0,-2.0,-3.0
1706277280.901053,2.0,6.0,9.0,-6.0,-6.0,-4.0,-1.0,1.0
1706277280.901053,-3.0,-6.0,-12.0,-3.0,-3.0,0.0,-2.0,-1.0
1706277280.901053,1.0,-4.0,-13.0,-5.0,-2.0,2.0,-1.0,-2.0
1706277280.901053,-2.0,-2.0,12.0,12.0,3.0,2.0,-1.0,0.0
1706277280.901053,1.0,7.0,20.0,-1.0,0.0,-1.0,0.0,2.0
1706277280.9113824,-5.0,-10.0,-18.0,-6.0,-1.0,0.0,-1.0,-2.0
1706277280.9113824,-3.0,2.0,2.0,-10.0,-1.0,-5.0,-2.0,-1.0
1706277280.9214404,-3.0,0.0,0.0,16.0,1.0,3.0,1.0,2.0
1706277280.9214404,4.0,1.0,0.0,-8.0,-3.0,-1.0,-2.0,-1.0
1706277280.9410486,5.0,18.0,22.0,30.0,10.0,2.0,3.0,4.0
1706277280.9410486,-4.0,-8.0,-4.0,0.0,0.0,-3.0,-2.0,-4.0
1706277280.9410486,1.0,3.0,-6.0,-5.0,-2.0,2.0,1.0,0.0
1706277280.9410486,-3.0,-4.0,0.0,-7.0,-7.0,-4.0,-2.0,-3.0
1706277280.9613225,2.0,6.0,4.0,7.0,5.0,1.0,-1.0,1.0
1706277280.9613225,-4.0,-7.0,-9.0,-16.0,-9.0,-6.0,-4.0,-5.0
1706277280.9613225,1.0,3.0,4.0,5.0,2.0,3.0,0.0,1.0
1706277280.9613225,3.0,1.0,-7.0,5.0,1.0,-3.0,-1.0,-1.0
1706277280.9713604,-11.0,-12.0,-7.0,-8.0,-8.0,-9.0,-5.0,-5.0
1706277280.9713604,-1.0,-2.0,-5.0,-4.0,1.0,1.0,-1.0,0.0
1706277281.0010524,0.0,1.0,9.0,1.0,-2.0,-1.0,-1.0,-1.0
1706277281.0010524,-1.0,-1.0,-10.0,-6.0,0.0,1.0,-2.0,0.0
1706277281.0010524,1.0,-3.0,0.0,-7.0,-5.0,-3.0,-2.0,0.0
1706277281.0010524,0.0,0.0,-2.0,6.0,2.0,-1.0,0.0,0.0
1706277281.0010524,1.0,2.0,4.0,-2.0,0.0,0.0,0.0,0.0
1706277281.0010524,-4.0,-10.0,-15.0,1.0,1.0,1.0,1.0,-1.0
1706277281.021052,1.0,0.0,2.0,-10.0,0.0,1.0,-1.0,0.0
1706277281.021052,-1.0,-3.0,2.0,3.0,-2.0,-7.0,-6.0,-4.0
1706277281.021052,2.0,3.0,-5.0,-2.0,8.0,11.0,7.0,6.0
1706277281.021052,1.0,4.0,7.0,13.0,4.0,5.0,0.0,-2.0
1706277281.0510488,-5.0,-1.0,29.0,-15.0,-11.0,-12.0,-6.0,-6.0
1706277281.0510488,0.0,-5.0,-15.0,-7.0,0.0,9.0,3.0,0.0
1706277281.0510488,-5.0,-9.0,3.0,-1.0,-11.0,-13.0,-6.0,-6.0
1706277281.0510488,-2.0,-5.0,-11.0,-10.0,-3.0,-2.0,0.0,-1.0
1706277281.0510488,11.0,8.0,1.0,5.0,3.0,5.0,3.0,6.0
1706277281.0510488,-4.0,4.0,12.0,-3.0,-4.0,-5.0,-3.0,-2.0
1706277281.0610533,1.0,13.0,-11.0,-2.0,0.0,-2.0,-3.0,0.0
1706277281.0610533,-3.0,-2.0,7.0,1.0,1.0,-2.0,0.0,1.0
1706277281.0811765,-5.0,-11.0,-26.0,-7.0,-5.0,-8.0,-3.0,-3.0
1706277281.0811765,1.0,-3.0,3.0,-2.0,-9.0,-1.0,0.0,1.0
1706277281.0811765,-7.0,-8.0,-9.0,19.0,10.0,7.0,2.0,-1.0
1706277281.0811765,-3.0,1.0,20.0,15.0,0.0,-9.0,-4.0,-4.0
1706277281.121047,-2.0,-5.0,-18.0,-12.0,-4.0,3.0,-1.0,-1.0
1706277281.121047,0.0,5.0,-3.0,-5.0,-5.0,-5.0,0.0,-1.0
1706277281.121047,2.0,2.0,13.0,2.0,1.0,0.0,-3.0,0.0
1706277281.121047,0.0,-1.0,-13.0,-9.0,-5.0,-2.0,-2.0,-2.0
1706277281.121047,-5.0,-8.0,-6.0,-13.0,-11.0,-1.0,0.0,-2.0
1706277281.121047,-8.0,-5.0,-8.0,1.0,7.0,-1.0,1.0,-2.0
1706277281.121047,-3.0,-8.0,-9.0,-32.0,-9.0,-4.0,-3.0,-5.0
1706277281.121047,4.0,-1.0,6.0,26.0,12.0,2.0,1.0,3.0
1706277281.1410537,6.0,4.0,-5.0,0.0,1.0,2.0,1.0,2.0
1706277281.1410537,-1.0,1.0,-3.0,-7.0,-11.0,-6.0,-5.0,-2.0
1706277281.1410537,-1.0,-4.0,-5.0,-2.0,-2.0,-2.0,0.0,0.0
1706277281.1410537,-3.0,4.0,3.0,-11.0,-2.0,-2.0,1.0,-2.0
1706277281.1710472,-5.0,-4.0,-4.0,4.0,0.0,0.0,-1.0,-4.0
1706277281.1710472,3.0,2.0,5.0,-1.0,6.0,6.0,4.0,2.0
1706277281.1710472,-3.0,-4.0,2.0,3.0,-6.0,-12.0,-9.0,-7.0
1706277281.1710472,6.0,5.0,5.0,-4.0,5.0,14.0,5.0,7.0
1706277281.1710472,-5.0,-8.0,-10.0,13.0,2.0,0.0,-4.0,-2.0
1706277281.1710472,-6.0,-11.0,3.0,-1.0,-1.0,1.0,2.0,-2.0
1706277281.1710472,3.0,4.0,-9.0,-5.0,-6.0,-7.0,-4.0,-1.0
1706277281.1710472,-4.0,-7.0,-2.0,-2.0,-9.0,-9.0,-3.0,-1.0
1706277281.2012265,0.0,-1.0,0.0,1.0,0.0,-3.0,-6.0,-2.0
1706277281.2012265,0.0,1.0,1.0,3.0,8.0,11.0,5.0,2.0
1706277281.2012265,3.0,3.0,6.0,-1.0,2.0,5.0,2.0,2.0
1706277281.2012265,0.0,5.0,3.0,-1.0,-2.0,-2.0,-1.0,-2.0
1706277281.23105,5.0,9.0,3.0,0.0,2.0,0.0,2.0,2.0
1706277281.23105,-4.0,-4.0,-4.0,5.0,-8.0,-10.0,-7.0,-3.0
1706277281.23105,-3.0,-6.0,-10.0,0.0,-2.0,-3.0,1.0,-3.0
1706277281.23105,-4.0,0.0,8.0,-5.0,-4.0,-3.0,-1.0,-1.0
1706277281.23105,-3.0,-2.0,10.0,0.0,-2.0,-1.0,0.0,-3.0
1706277281.23105,0.0,-1.0,0.0,3.0,-5.0,-2.0,-1.0,-2.0
1706277281.2410817,-3.0,0.0,-8.0,-7.0,-4.0,0.0,-1.0,1.0
1706277281.2410817,-6.0,-13.0,-24.0,0.0,3.0,-2.0,-3.0,-4.0
1706277281.2610564,3.0,6.0,-2.0,4.0,3.0,1.0,0.0,1.0
1706277281.2610564,0.0,9.0,15.0,-7.0,-9.0,-4.0,0.0,2.0
1706277281.2610564,1.0,-4.0,2.0,4.0,6.0,1.0,1.0,1.0
1706277281.2610564,-4.0,-3.0,0.0,4.0,2.0,0.0,-3.0,-3.0
1706277281.2844365,-1.0,4.0,5.0,4.0,6.0,1.0,2.0,2.0
1706277281.2844365,3.0,-3.0,1.0,10.0,-5.0,-1.0,0.0,0.0
1706277281.2854364,-1.0,6.0,-1.0,6.0,3.0,1.0,0.0,-1.0
1706277281.2854364,-4.0,-4.0,-2.0,-8.0,-4.0,-5.0,-4.0,-4.0
1706277281.2982852,-2.0,-4.0,-18.0,-12.0,-4.0,-6.0,-2.0,-2.0
1706277281.2992313,1.0,2.0,5.0,-3.0,1.0,2.0,-1.0,-1.0
1706277281.3039925,-3.0,-6.0,1.0,-2.0,-4.0,-1.0,-1.0,-2.0
1706277281.3039925,-2.0,-1.0,1.0,-3.0,-4.0,-2.0,-3.0,-1.0
1706277281.3139958,3.0,7.0,10.0,4.0,1.0,2.0,2.0,2.0
1706277281.3139958,-4.0,-4.0,-14.0,-8.0,-3.0,-5.0,-3.0,-4.0
1706277281.3139958,0.0,-5.0,2.0,0.0,-4.0,-1.0,0.0,0.0
1706277281.3139958,-3.0,-5.0,-11.0,-8.0,-1.0,-1.0,-1.0,-2.0
1706277281.3440003,2.0,5.0,10.0,8.0,3.0,-3.0,-3.0,-1.0
1706277281.3440003,2.0,2.0,-2.0,-2.0,2.0,2.0,0.0,5.0
1706277281.3440003,-7.0,-13.0,-6.0,1.0,0.0,-1.0,-2.0,-4.0
1706277281.3440003,-3.0,-2.0,2.0,-7.0,-8.0,-9.0,-4.0,-2.0
1706277281.354351,0.0,-5.0,-3.0,-1.0,1.0,13.0,6.0,-2.0
1706277281.354351,3.0,7.0,13.0,15.0,9.0,-3.0,0.0,0.0
1706277281.3646233,5.0,8.0,-4.0,-8.0,1.0,5.0,1.0,3.0
1706277281.3646233,-3.0,-5.0,3.0,-2.0,-7.0,-6.0,-7.0,-3.0
1706277281.3843687,-1.0,0.0,-4.0,2.0,2.0,2.0,1.0,0.0
1706277281.3843687,-1.0,-3.0,-5.0,-1.0,-1.0,-4.0,-3.0,-4.0
1706277281.3843687,2.0,6.0,6.0,3.0,0.0,-6.0,-4.0,1.0
1706277281.3843687,0.0,-6.0,-3.0,4.0,3.0,9.0,3.0,-1.0
1706277281.4044266,-3.0,-7.0,-8.0,-9.0,0.0,0.0,1.0,-1.0
1706277281.4044266,3.0,3.0,5.0,3.0,4.0,1.0,0.0,-1.0
1706277281.4044266,0.0,-1.0,10.0,2.0,-1.0,-2.0,0.0,1.0
1706277281.4044266,-3.0,-4.0,-27.0,-9.0,-10.0,-5.0,-4.0,-3.0
1706277281.4145138,2.0,2.0,12.0,1.0,1.0,0.0,0.0,1.0
1706277281.4145138,-5.0,-12.0,-22.0,0.0,4.0,0.0,-1.0,2.0
1706277281.4245796,4.0,2.0,14.0,6.0,1.0,4.0,3.0,2.0
1706277281.4245796,4.0,13.0,-11.0,-17.0,-6.0,-5.0,0.0,1.0
1706277281.444368,-4.0,-4.0,6.0,12.0,2.0,-3.0,0.0,-2.0
1706277281.444368,-4.0,-1.0,-6.0,-20.0,-7.0,-1.0,-4.0,-5.0
1706277281.444368,0.0,6.0,4.0,-6.0,-3.0,0.0,0.0,0.0
1706277281.444368,-3.0,-7.0,15.0,24.0,9.0,4.0,1.0,-2.0
1706277281.4644132,-4.0,-1.0,-6.0,3.0,1.0,-4.0,-4.0,-3.0
1706277281.4644132,2.0,1.0,-5.0,-4.0,-3.0,1.0,1.0,0.0
1706277281.4644132,-5.0,-7.0,-11.0,-8.0,-5.0,-3.0,-2.0,-3.0
1706277281.4644132,0.0,0.0,4.0,-16.0,-9.0,-3.0,-1.0,-1.0
1706277281.4746392,-1.0,0.0,5.0,-5.0,-1.0,-1.0,-1.0,-1.0
1706277281.4746392,0.0,-5.0,4.0,13.0,3.0,0.0,1.0,1.0
1706277281.484597,-3.0,1.0,-7.0,-11.0,-7.0,-4.0,-1.0,-3.0
1706277281.484597,-3.0,0.0,0.0,-9.0,-3.0,-4.0,-1.0,0.0
1706277281.5043676,0.0,1.0,6.0,12.0,-2.0,-4.0,-3.0,-1.0
1706277281.5043676,1.0,-1.0,-6.0,-2.0,1.0,0.0,0.0,0.0
1706277281.5043676,-2.0,-12.0,-14.0,-3.0,3.0,2.0,-2.0,-2.0
1706277281.5043676,4.0,8.0,2.0,4.0,-1.0,-3.0,1.0,1.0
1706277281.52442,-8.0,-15.0,-13.0,-17.0,0.0,13.0,7.0,-2.0
1706277281.52442,3.0,8.0,11.0,1.0,-1.0,-10.0,-4.0,1.0
1706277281.52442,-3.0,-5.0,0.0,9.0,1.0,-5.0,-3.0,-3.0
1706277281.52442,2.0,5.0,3.0,0.0,7.0,11.0,4.0,2.0
1706277281.5346825,3.0,8.0,9.0,-3.0,-5.0,-3.0,0.0,3.0
1706277281.5346825,-4.0,-4.0,-9.0,0.0,-2.0,-5.0,-3.0,-2.0
1706277281.5449824,0.0,3.0,0.0,-1.0,2.0,6.0,3.0,1.0
1706277281.5449824,-2.0,-6.0,-2.0,-1.0,-6.0,-12.0,-8.0,-4.0
1706277281.5647008,3.0,6.0,12.0,2.0,-1.0,2.0,3.0,1.0
1706277281.5647008,-10.0,-14.0,-17.0,-6.0,-3.0,-3.0,-3.0,-5.0
1706277281.5647008,1.0,4.0,16.0,5.0,-1.0,-2.0,-3.0,-2.0
1706277281.5647008,-3.0,-5.0,-14.0,3.0,0.0,-4.0,-2.0,1.0
1706277281.5847735,-4.0,-12.0,-15.0,-29.0,-12.0,-9.0,-6.0,-1.0
1706277281.5847735,2.0,6.0,9.0,13.0,-1.0,-3.0,-2.0,-2.0
1706277281.5847735,-2.0,1.0,8.0,5.0,-1.0,0.0,1.0,-2.0
1706277281.5847735,-1.0,-6.0,-9.0,-2.0,0.0,2.0,1.0,-1.0
1706277281.6047068,-4.0,-8.0,-12.0,-12.0,-5.0,-11.0,-5.0,-3.0
1706277281.6047068,3.0,9.0,14.0,8.0,0.0,4.0,3.0,4.0
1706277281.6047068,0.0,-2.0,-11.0,-24.0,-9.0,-7.0,-4.0,-1.0
1706277281.6047068,-2.0,2.0,15.0,20.0,11.0,7.0,4.0,1.0
1706277281.6148047,1.0,6.0,9.0,11.0,10.0,2.0,0.0,2.0
1706277281.6148047,-5.0,-11.0,-12.0,-5.0,0.0,2.0,-2.0,-1.0
1706277281.6148047,2.0,5.0,9.0,19.0,0.0,0.0,4.0,1.0
1706277281.6148047,1.0,-9.0,-7.0,-23.0,-5.0,-4.0,-4.0,-1.0
1706277281.6351428,-5.0,-4.0,-3.0,12.0,-4.0,-4.0,-5.0,-5.0
1706277281.6351428,2.0,2.0,9.0,-9.0,-3.0,-1.0,0.0,-1.0
1706277281.6447055,1.0,2.0,-7.0,0.0,1.0,-5.0,-2.0,1.0
1706277281.6447055,-6.0,-6.0,2.0,-6.0,-6.0,-4.0,-3.0,-4.0
1706277281.6647027,1.0,5.0,-4.0,-7.0,-4.0,-4.0,-1.0,0.0
1706277281.6647027,-3.0,-7.0,-14.0,-5.0,-2.0,-4.0,-2.0,-5.0
1706277281.6647027,-2.0,-3.0,0.0,2.0,0.0,3.0,-1.0,0.0
1706277281.6647027,0.0,-2.0,2.0,1.0,-2.0,-7.0,2.0,-2.0
1706277281.6750808,1.0,4.0,7.0,2.0,1.0,9.0,5.0,1.0
1706277281.6750808,0.0,4.0,6.0,7.0,3.0,-1.0,-1.0,0.0
1706277281.6750808,-2.0,0.0,-1.0,-6.0,-4.0,-2.0,-3.0,0.0
1706277281.6750808,-1.0,4.0,6.0,0.0,-5.0,-4.0,0.0,-4.0
1706277281.7047544,-3.0,-9.0,-13.0,-2.0,-7.0,-7.0,-7.0,-3.0
1706277281.7047544,0.0,0.0,1.0,-4.0,1.0,6.0,4.0,0.0
1706277281.7047544,0.0,-3.0,-9.0,-3.0,-3.0,-3.0,-3.0,-1.0
1706277281.7047544,1.0,4.0,7.0,8.0,1.0,2.0,-2.0,1.0
1706277281.7247064,-2.0,1.0,-7.0,3.0,-5.0,-6.0,-4.0,-3.0
1706277281.7247064,-1.0,-3.0,6.0,-1.0,2.0,4.0,-2.0,-2.0
1706277281.7247064,-1.0,-1.0,0.0,0.0,1.0,-2.0,1.0,0.0
1706277281.7247064,0.0,1.0,1.0,-3.0,1.0,3.0,-2.0,-1.0
1706277281.7347348,-1.0,-3.0,-6.0,-8.0,-7.0,-2.0,-1.0,0.0
1706277281.7347348,-3.0,-1.0,1.0,4.0,2.0,1.0,-3.0,1.0
1706277281.7347348,-3.0,-3.0,8.0,-3.0,-1.0,-7.0,-4.0,-3.0
1706277281.7347348,3.0,4.0,0.0,5.0,10.0,15.0,7.0,6.0
1706277281.7553408,-3.0,-3.0,-14.0,-11.0,-11.0,-7.0,-5.0,-3.0
1706277281.7553408,-1.0,-1.0,4.0,-3.0,2.0,4.0,1.0,1.0
1706277281.7650173,-1.0,-1.0,-5.0,-7.0,-3.0,-2.0,-4.0,-3.0
1706277281.7650173,-2.0,2.0,1.0,11.0,1.0,-2.0,-4.0,1.0
1706277281.7850106,3.0,3.0,8.0,8.0,6.0,-4.0,-3.0,1.0
1706277281.7850106,-2.0,-3.0,-7.0,-6.0,-8.0,-4.0,1.0,-1.0
1706277281.7850106,0.0,0.0,2.0,-2.0,-2.0,3.0,1.0,1.0
1706277281.7850106,-1.0,-2.0,-12.0,-17.0,-7.0,-6.0,-4.0,-3.0
1706277281.7952614,-3.0,-3.0,5.0,21.0,-4.0,-1.0,1.0,1.0
1706277281.7952614,0.0,0.0,-1.0,0.0,1.0,-1.0,-2.0,-2.0
1706277281.7952614,0.0,-2.0,0.0,-4.0,3.0,1.0,-2.0,-1.0
1706277281.7952614,0.0,0.0,0.0,0.0,0.0,-3.0,-3.0,-3.0
1706277281.8364613,-5.0,-1.0,1.0,18.0,14.0,1.0,1.0,-1.0
1706277281.8364613,2.0,0.0,-11.0,-14.0,-8.0,-5.0,-1.0,0.0
1706277281.8364613,-2.0,-2.0,1.0,2.0,2.0,4.0,2.0,-1.0
1706277281.8364613,-1.0,0.0,-2.0,-7.0,-5.0,-9.0,-4.0,-2.0
1706277281.8364613,1.0,-1.0,-3.0,-4.0,10.0,15.0,6.0,1.0
1706277281.8364613,-3.0,-5.0,-8.0,7.0,6.0,4.0,1.0,-1.0
1706277281.8464599,0.0,2.0,2.0,-9.0,-5.0,-1.0,0.0,-1.0
1706277281.8464599,-1.0,-1.0,7.0,-2.0,-5.0,-5.0,-3.0,-2.0
1706277281.856783,-1.0,-4.0,-18.0,-4.0,-4.0,-5.0,-4.0,-2.0
1706277281.856783,2.0,11.0,7.0,-1.0,-3.0,-2.0,-3.0,1.0
1706277281.856783,-4.0,-9.0,-14.0,-2.0,-2.0,-1.0,1.0,-2.0
1706277281.856783,-6.0,-8.0,1.0,4.0,1.0,-3.0,-4.0,-3.0
1706277281.8767426,2.0,6.0,4.0,2.0,0.0,2.0,0.0,0.0
1706277281.8767426,-2.0,-2.0,-2.0,-4.0,-3.0,-1.0,-1.0,-2.0
1706277281.8767426,-2.0,2.0,1.0,2.0,-1.0,-2.0,-3.0,-1.0
1706277281.8767426,1.0,4.0,-2.0,-2.0,-1.0,0.0,1.0,0.0
1706277281.906461,-1.0,-4.0,-1.0,-10.0,-3.0,0.0,0.0,-2.0
1706277281.906461,1.0,1.0,2.0,13.0,0.0,-4.0,-2.0,0.0
1706277281.906461,-2.0,1.0,-2.0,-2.0,-2.0,-2.0,-3.0,-1.0
1706277281.906461,0.0,1.0,0.0,6.0,-1.0,3.0,2.0,1.0
1706277281.9166546,-1.0,1.0,1.0,-20.0,-8.0,-3.0,-2.0,-1.0
1706277281.9166546,-5.0,-6.0,-8.0,-7.0,-8.0,-3.0,0.0,-3.0
1706277281.9166546,-2.0,-3.0,3.0,9.0,6.0,-1.0,0.0,0.0
1706277281.9166546,-3.0,0.0,-1.0,-11.0,-5.0,0.0,0.0,0.0
1706277281.9664605,0.0,-6.0,-5.0,0.0,-1.0,-2.0,-1.0,-2.0
1706277281.9664605,0.0,1.0,10.0,13.0,4.0,1.0,-2.0,0.0
1706277281.9664605,0.0,-7.0,-24.0,-10.0,-2.0,1.0,0.0,-2.0
1706277281.9664605,-3.0,-5.0,-8.0,-2.0,1.0,0.0,0.0,-2.0
1706277281.9664605,3.0,13.0,47.0,9.0,1.0,-2.0,1.0,1.0
1706277281.9664605,-3.0,-9.0,-44.0,-19.0,-9.0,-10.0,-6.0,-4.0
1706277281.9664605,-3.0,2.0,6.0,9.0,0.0,-1.0,-3.0,2.0
1706277281.9664605,1.0,-3.0,-12.0,7.0,13.0,19.0,11.0,4.0
1706277281.9766822,1.0,2.0,13.0,7.0,2.0,-1.0,-1.0,1.0
1706277281.9766822,3.0,0.0,-15.0,-8.0,0.0,-3.0,2.0,3.0
1706277281.9766822,11.0,24.0,37.0,0.0,-2.0,8.0,2.0,2.0
1706277281.9766822,-3.0,-2.0,-18.0,-7.0,-6.0,-8.0,-4.0,-2.0
1706277282.0064604,-3.0,-23.0,-1.0,7.0,0.0,-5.0,-3.0,-4.0
1706277282.0064604,-15.0,-28.0,-12.0,-19.0,-9.0,-4.0,-6.0,-7.0
1706277282.0064604,3.0,4.0,-16.0,-14.0,-4.0,-5.0,-2.0,0.0
1706277282.0064604,0.0,-5.0,8.0,-4.0,0.0,2.0,-2.0,-2.0
1706277282.026529,2.0,6.0,-1.0,-4.0,-2.0,0.0,-2.0,0.0
1706277282.026529,5.0,3.0,33.0,36.0,5.0,2.0,0.0,3.0
1706277282.026529,-7.0,-13.0,-4.0,4.0,-5.0,-3.0,-1.0,-2.0
1706277282.026529,-1.0,-1.0,2.0,-9.0,-1.0,-4.0,-4.0,-3.0
1706277282.03673,-5.0,-7.0,-18.0,-1.0,-1.0,-3.0,-2.0,-2.0
1706277282.03673,1.0,-3.0,-2.0,-15.0,-7.0,-1.0,-1.0,-1.0
1706277282.03673,-5.0,-12.0,-16.0,-6.0,-4.0,-5.0,0.0,-4.0
1706277282.03673,5.0,5.0,9.0,14.0,4.0,-2.0,-1.0,4.0
1706277282.0664644,-3.0,1.0,-5.0,-6.0,1.0,1.0,-2.0,-2.0
1706277282.0664644,0.0,10.0,5.0,-5.0,-2.0,2.0,0.0,0.0
1706277282.0664644,0.0,1.0,7.0,5.0,0.0,0.0,-3.0,-1.0
1706277282.0664644,-3.0,-1.0,-2.0,5.0,-1.0,-4.0,-3.0,-2.0
1706277282.0864844,-1.0,5.0,-3.0,-4.0,-3.0,1.0,1.0,-2.0
1706277282.0864844,2.0,8.0,12.0,-2.0,8.0,4.0,0.0,2.0
1706277282.0864844,-4.0,-4.0,-17.0,-6.0,-5.0,-10.0,-5.0,-2.0
1706277282.0864844,-4.0,-8.0,-11.0,1.0,0.0,5.0,1.0,-1.0
1706277282.0967984,8.0,19.0,17.0,5.0,1.0,-2.0,0.0,4.0
1706277282.0967984,-16.0,-26.0,-23.0,-15.0,-7.0,-5.0,-5.0,-8.0
1706277282.0967984,3.0,3.0,8.0,0.0,1.0,7.0,4.0,2.0
1706277282.0967984,0.0,3.0,6.0,4.0,-2.0,-3.0,-2.0,-1.0
1706277282.1164963,0.0,-1.0,-7.0,-7.0,-5.0,-3.0,-3.0,-1.0
1706277282.1164963,6.0,11.0,11.0,5.0,3.0,-3.0,-1.0,1.0
1706277282.1164963,1.0,2.0,5.0,8.0,8.0,4.0,-1.0,-2.0
1706277282.1164963,-1.0,2.0,5.0,-19.0,-7.0,-5.0,-3.0,1.0
1706277282.146616,-4.0,-5.0,-10.0,3.0,-7.0,-4.0,-3.0,-4.0
1706277282.146616,1.0,5.0,12.0,9.0,9.0,2.0,0.0,1.0
1706277282.146616,-5.0,-6.0,-4.0,9.0,-4.0,-3.0,1.0,0.0
1706277282.146616,-1.0,1.0,-4.0,-6.0,-4.0,-1.0,-1.0,-1.0
1706277282.1568391,2.0,6.0,4.0,-2.0,0.0,3.0,1.0,2.0
1706277282.1568391,0.0,-2.0,-8.0,-3.0,-2.0,1.0,1.0,0.0
1706277282.1764605,-3.0,0.0,4.0,3.0,1.0,1.0,1.0,-2.0
1706277282.1764605,-2.0,-5.0,-1.0,-11.0,-8.0,-6.0,-4.0,-4.0
1706277282.1764605,-4.0,-5.0,-15.0,9.0,7.0,3.0,0.0,0.0
1706277282.1764605,1.0,1.0,14.0,-5.0,-6.0,-5.0,-1.0,0.0
