1706277131.9866123,-6.0,-3.0,-13.0,-8.0,-2.0,1.0,-1.0,-4.0
1706277131.9866123,0.0,1.0,-3.0,-1.0,-4.0,-2.0,-2.0,-2.0
1706277131.9866123,-5.0,-14.0,-6.0,0.0,-2.0,0.0,0.0,0.0
1706277131.9866123,1.0,0.0,5.0,-1.0,1.0,-1.0,-1.0,0.0
1706277131.996622,2.0,4.0,19.0,12.0,6.0,3.0,3.0,3.0
1706277131.996622,-2.0,-17.0,-32.0,-17.0,-8.0,-4.0,-2.0,-2.0
1706277132.0066273,-6.0,-3.0,2.0,8.0,1.0,-1.0,-1.0,-4.0
1706277132.0066273,-1.0,12.0,1.0,-13.0,-1.0,3.0,2.0,-3.0
1706277132.0265713,-6.0,-10.0,-26.0,10.0,2.0,1.0,-2.0,-4.0
1706277132.0265713,-10.0,-23.0,-32.0,-37.0,-18.0,-9.0,-8.0,-9.0
1706277132.0265713,14.0,47.0,45.0,29.0,14.0,9.0,4.0,3.0
1706277132.0265713,0.0,10.0,17.0,4.0,-8.0,-8.0,-3.0,3.0
1706277132.0466163,6.0,-20.0,11.0,-11.0,-6.0,-3.0,0.0,-1.0
1706277132.0466163,-11.0,-15.0,-21.0,-3.0,5.0,1.0,2.0,5.0
1706277132.0466163,-7.0,-11.0,-10.0,-3.0,5.0,2.0,3.0,-2.0
1706277132.0466163,-8.0,-16.0,-86.0,-22.0,-3.0,-3.0,-2.0,-4.0
1706277132.05662,12.0,20.0,69.0,1.0,3.0,3.0,1.0,1.0
1706277132.05662,3.0,24.0,57.0,39.0,12.0,7.0,8.0,12.0
1706277132.0666165,-12.0,-23.0,-10.0,-31.0,-7.0,-3.0,-3.0,-7.0
1706277132.0666165,16.0,19.0,33.0,46.0,19.0,5.0,4.0,21.0
1706277132.086509,-24.0,-13.0,7.0,-25.0,-12.0,-12.0,2.0,-3.0
1706277132.086509,9.0,6.0,-9.0,8.0,5.0,10.0,-12.0,-5.0
1706277132.086509,38.0,39.0,57.0,40.0,9.0,1.0,-2.0,1.0
1706277132.086509,-15.0,-37.0,-41.0,-29.0,-22.0,-22.0,-20.0,-24.0
1706277132.109187,4.0,-4.0,-41.0,0.0,8.0,1.0,-4.0,14.0
1706277132.109187,2.0,29.0,47.0,-30.0,-10.0,2.0,6.0,4.0
1706277132.1102006,-17.0,-27.0,-24.0,-3.0,-5.0,-7.0,-4.0,-7.0
1706277132.1102006,11.0,15.0,28.0,12.0,8.0,13.0,7.0,7.0
1706277132.1166155,2.0,-4.0,-13.0,-4.0,-11.0,-22.0,-12.0,-8.0
1706277132.1166155,-2.0,-7.0,-12.0,-16.0,-6.0,4.0,1.0,-7.0
1706277132.1269112,5.0,-3.0,-20.0,5.0,-5.0,-3.0,-3.0,3.0
1706277132.1269112,-16.0,-11.0,5.0,9.0,0.0,-2.0,2.0,-5.0
1706277132.1368964,-2.0,2.0,-28.0,-6.0,16.0,14.0,4.0,0.0
1706277132.1368964,-2.0,-2.0,15.0,19.0,0.0,-7.0,-2.0,-8.0
1706277132.1466181,-21.0,-19.0,-29.0,-26.0,-15.0,-5.0,-1.0,-1.0
1706277132.1466181,15.0,19.0,34.0,3.0,0.0,-4.0,-6.0,-7.0
1706277132.1669216,0.0,8.0,21.0,11.0,0.0,5.0,-6.0,-13.0
1706277132.1669216,-15.0,-34.0,-66.0,-10.0,-10.0,-11.0,-4.0,-1.0
1706277132.1669216,0.0,-10.0,-50.0,-17.0,-4.0,-6.0,-5.0,-4.0
1706277132.1669216,3.0,-11.0,-28.0,-10.0,-4.0,0.0,-2.0,-6.0
1706277132.1866186,1.0,2.0,28.0,-6.0,-4.0,-4.0,1.0,5.0
1706277132.1866186,8.0,6.0,-7.0,5.0,8.0,1.0,4.0,-2.0
1706277132.1866186,-8.0,11.0,-1.0,-6.0,-1.0,2.0,0.0,-2.0
1706277132.1866186,10.0,7.0,12.0,16.0,4.0,10.0,11.0,10.0
1706277132.196656,17.0,1.0,-19.0,-12.0,6.0,9.0,2.0,15.0
1706277132.2066243,-17.0,0.0,23.0,-6.0,-7.0,-8.0,-13.0,-34.0
1706277132.2066243,-5.0,0.0,48.0,16.0,6.0,2.0,1.0,-4.0
1706277132.2066243,0.0,11.0,12.0,-6.0,-1.0,-1.0,0.0,-2.0
1706277132.226846,-11.0,-16.0,-8.0,16.0,3.0,-1.0,-5.0,-14.0
1706277132.226846,-1.0,4.0,20.0,7.0,2.0,0.0,5.0,12.0
1706277132.226846,-6.0,-24.0,-35.0,-19.0,-7.0,-6.0,-2.0,0.0
1706277132.226846,-8.0,-4.0,19.0,2.0,-1.0,-3.0,-5.0,-9.0
1706277132.2666175,0.0,0.0,-39.0,0.0,-4.0,0.0,4.0,8.0
1706277132.2666175,3.0,4.0,22.0,-3.0,-2.0,-3.0,-3.0,0.0
1706277132.2666175,4.0,6.0,11.0,5.0,-1.0,1.0,1.0,4.0
1706277132.2666175,-5.0,-8.0,-12.0,-9.0,-2.0,-1.0,0.0,3.0
1706277132.2666175,7.0,15.0,9.0,4.0,-2.0,2.0,-1.0,-11.0
1706277132.2666175,-5.0,-6.0,26.0,26.0,-1.0,-11.0,-5.0,2.0
1706277132.2666175,-3.0,-17.0,-35.0,-37.0,-9.0,-5.0,-1.0,-3.0
1706277132.2666175,-6.0,5.0,7.0,-8.0,-6.0,-10.0,-9.0,-4.0
1706277132.2866254,-15.0,-48.0,-11.0,-17.0,-23.0,-21.0,-9.0,-7.0
1706277132.2866254,21.0,46.0,87.0,20.0,7.0,6.0,4.0,6.0
1706277132.2866254,-11.0,-44.0,-48.0,19.0,8.0,3.0,-1.0,0.0
1706277132.2866254,-9.0,2.0,4.0,4.0,8.0,5.0,-4.0,-4.0
1706277132.3066182,-3.0,3.0,4.0,-1.0,-6.0,1.0,-1.0,-5.0
1706277132.3066182,4.0,-4.0,-16.0,-3.0,-2.0,1.0,2.0,9.0
1706277132.3066182,-2.0,-6.0,24.0,13.0,6.0,3.0,2.0,1.0
1706277132.3066182,3.0,-7.0,-14.0,-5.0,-4.0,4.0,5.0,3.0
1706277132.326623,5.0,11.0,2.0,3.0,2.0,-2.0,-1.0,0.0
1706277132.326623,-3.0,-22.0,-45.0,7.0,-5.0,2.0,4.0,4.0
1706277132.326623,7.0,31.0,28.0,-58.0,-17.0,-7.0,-5.0,0.0
1706277132.326623,-9.0,-25.0,-37.0,-15.0,-4.0,-4.0,3.0,-6.0
1706277132.3666186,-5.0,6.0,9.0,4.0,0.0,0.0,1.0,0.0
1706277132.3666186,6.0,9.0,-14.0,1.0,7.0,1.0,-1.0,2.0
1706277132.3666186,-16.0,6.0,14.0,32.0,4.0,-17.0,-13.0,-32.0
1706277132.3666186,-6.0,0.0,28.0,7.0,6.0,24.0,9.0,17.0
1706277132.3666186,-20.0,3.0,-19.0,-17.0,-4.0,3.0,-15.0,-40.0
1706277132.3666186,30.0,18.0,-1.0,-8.0,4.0,4.0,2.0,-22.0
1706277132.3769093,21.0,11.0,-17.0,0.0,-8.0,-12.0,-3.0,11.0
1706277132.3769093,-11.0,-13.0,-1.0,-7.0,-4.0,-9.0,-5.0,-15.0
1706277132.3769093,-13.0,18.0,8.0,17.0,9.0,7.0,9.0,-3.0
1706277132.3769093,-20.0,-26.0,-19.0,-14.0,-7.0,-5.0,-6.0,-3.0
1706277132.386621,15.0,32.0,38.0,12.0,3.0,2.0,0.0,1.0
1706277132.386621,2.0,-20.0,-26.0,-5.0,-5.0,-12.0,-3.0,8.0
1706277132.4166155,10.0,10.0,31.0,15.0,5.0,0.0,2.0,15.0
1706277132.4166155,-13.0,-16.0,1.0,3.0,0.0,-5.0,-1.0,1.0
1706277132.4166155,4.0,6.0,46.0,5.0,2.0,5.0,8.0,9.0
1706277132.4166155,0.0,3.0,-19.0,-10.0,-3.0,5.0,-1.0,0.0
1706277132.426845,9.0,10.0,32.0,24.0,13.0,8.0,5.0,6.0
1706277132.426845,-5.0,1.0,4.0,6.0,-10.0,-4.0,-7.0,-6.0
1706277132.426845,-10.0,-15.0,-18.0,-38.0,-17.0,-4.0,-4.0,0.0
1706277132.426845,7.0,16.0,37.0,20.0,9.0,3.0,3.0,3.0
1706277132.4466243,1.0,-8.0,-36.0,1.0,7.0,0.0,-1.0,2.0
1706277132.4466243,7.0,15.0,3.0,19.0,8.0,-1.0,-2.0,7.0
1706277132.4466243,-4.0,-8.0,-31.0,11.0,-3.0,3.0,3.0,2.0
1706277132.4466243,-6.0,-13.0,-14.0,-32.0,1.0,-4.0,-2.0,-7.0
1706277132.4861584,2.0,7.0,54.0,1.0,-10.0,-8.0,-2.0,2.0
1706277132.4861584,-14.0,-38.0,-88.0,-25.0,-9.0,-4.0,-1.0,-1.0
1706277132.4861584,1.0,14.0,10.0,16.0,8.0,6.0,4.0,2.0
1706277132.4861584,2.0,8.0,8.0,2.0,-8.0,-4.0,-3.0,-6.0
1706277132.4902582,-2.0,-13.0,-17.0,-4.0,-1.0,0.0,1.0,4.0
1706277132.4902582,4.0,11.0,28.0,-3.0,0.0,4.0,1.0,3.0
1706277132.4996133,-5.0,-10.0,-10.0,-1.0,0.0,2.0,-4.0,-1.0
1706277132.4996133,7.0,16.0,-7.0,0.0,-6.0,-9.0,-4.0,5.0
1706277132.4996133,2.0,4.0,-7.0,-13.0,-4.0,-2.0,-1.0,0.0
1706277132.4996133,1.0,5.0,-3.0,-9.0,-4.0,-3.0,0.0,1.0
1706277132.4996133,-6.0,-8.0,-13.0,2.0,5.0,2.0,0.0,0.0
1706277132.4996133,1.0,0.0,5.0,-6.0,1.0,2.0,-1.0,-1.0
1706277132.5296104,2.0,-3.0,-11.0,6.0,-2.0,-1.0,-2.0,2.0
1706277132.5296104,-1.0,0.0,4.0,-4.0,-1.0,-2.0,0.0,0.0
1706277132.5296104,2.0,1.0,-3.0,6.0,6.0,2.0,2.0,4.0
1706277132.5296104,-13.0,-49.0,-12.0,0.0,0.0,-2.0,-3.0,-6.0
1706277132.5499296,-2.0,2.0,-11.0,-11.0,-6.0,-4.0,-2.0,-2.0
1706277132.5499296,5.0,20.0,-8.0,-3.0,4.0,0.0,-3.0,-1.0
1706277132.5499296,-15.0,-44.0,-6.0,-6.0,-7.0,-3.0,-2.0,-2.0
1706277132.5499296,3.0,1.0,-29.0,6.0,11.0,7.0,-1.0,1.0
1706277132.5750902,-6.0,-8.0,-19.0,-5.0,-4.0,-3.0,-4.0,-3.0
1706277132.5750902,-3.0,-16.0,-29.0,-11.0,-3.0,-1.0,1.0,0.0
1706277132.5750902,6.0,25.0,46.0,22.0,4.0,3.0,2.0,1.0
1706277132.5750902,-1.0,10.0,-19.0,-3.0,-4.0,-1.0,-1.0,-3.0
1706277132.5889158,-3.0,-9.0,-3.0,-1.0,-2.0,-3.0,0.0,1.0
1706277132.5889158,3.0,12.0,12.0,3.0,4.0,2.0,2.0,2.0
1706277132.5899153,4.0,9.0,4.0,-1.0,-2.0,0.0,1.0,-1.0
1706277132.5899153,-3.0,-2.0,-2.0,-20.0,-29.0,-18.0,-7.0,-7.0
1706277132.6099176,-1.0,3.0,3.0,8.0,12.0,7.0,1.0,-1.0
1706277132.6109478,-4.0,-7.0,-2.0,-8.0,-19.0,-9.0,-5.0,-3.0
1706277132.6189196,-2.0,1.0,1.0,-7.0,11.0,2.0,-2.0,-3.0
1706277132.6189196,5.0,12.0,15.0,9.0,6.0,4.0,3.0,4.0
1706277132.6246314,6.0,6.0,-6.0,0.0,1.0,-1.0,1.0,2.0
1706277132.6246314,-5.0,1.0,11.0,3.0,7.0,4.0,-1.0,0.0
1706277132.6425629,0.0,-5.0,-22.0,0.0,-3.0,-1.0,-1.0,0.0
1706277132.6425629,6.0,12.0,13.0,0.0,-3.0,-1.0,-1.0,0.0
1706277132.6481285,-1.0,12.0,5.0,-6.0,-6.0,-2.0,-1.0,0.0
1706277132.6481285,-1.0,-3.0,4.0,1.0,3.0,2.0,0.0,1.0
1706277132.654827,-9.0,-35.0,-20.0,-7.0,-5.0,-1.0,0.0,0.0
1706277132.654827,-2.0,33.0,24.0,1.0,-4.0,-5.0,-4.0,-4.0
1706277132.671597,2.0,3.0,-6.0,-4.0,-6.0,-2.0,-3.0,-3.0
1706277132.671597,-3.0,-9.0,-17.0,-4.0,1.0,-3.0,-1.0,0.0
1706277132.6726062,4.0,29.0,19.0,0.0,-1.0,1.0,-1.0,-2.0
1706277132.67361,5.0,21.0,21.0,6.0,6.0,3.0,3.0,1.0
1706277132.6846058,-16.0,-58.0,-52.0,-9.0,-5.0,-4.0,-2.0,-5.0
1706277132.6846058,5.0,14.0,5.0,-2.0,1.0,0.0,1.0,1.0
1706277132.7023647,-1.0,2.0,3.0,6.0,-1.0,0.0,-2.0,-1.0
1706277132.7023647,-3.0,-16.0,-16.0,-7.0,-4.0,0.0,1.0,0.0
1706277132.7095118,2.0,24.0,42.0,13.0,4.0,0.0,-1.0,-1.0
1706277132.7095118,-3.0,-11.0,-57.0,-10.0,2.0,0.0,-1.0,-2.0
1706277132.7155085,-4.0,-7.0,-4.0,2.0,-2.0,-1.0,-3.0,-2.0
1706277132.7155085,0.0,0.0,-4.0,-2.0,-6.0,-5.0,-3.0,0.0
1706277132.7315059,-3.0,-34.0,8.0,5.0,0.0,0.0,2.0,2.0
1706277132.7315059,-5.0,0.0,3.0,-5.0,0.0,-1.0,-4.0,-4.0
1706277132.733529,-1.0,9.0,-5.0,-5.0,-2.0,-2.0,-1.0,0.0
1706277132.733529,0.0,-4.0,-4.0,4.0,1.0,-1.0,1.0,0.0
1706277132.7452343,8.0,15.0,-20.0,-15.0,-8.0,-3.0,0.0,2.0
1706277132.7452343,-13.0,-23.0,34.0,0.0,-4.0,-1.0,-2.0,-2.0
1706277132.762063,2.0,16.0,-6.0,10.0,9.0,4.0,4.0,1.0
1706277132.762063,2.0,-1.0,17.0,11.0,6.0,5.0,2.0,3.0
1706277132.7686772,8.0,5.0,-17.0,-7.0,-4.0,-5.0,-4.0,2.0
1706277132.7686772,10.0,30.0,20.0,5.0,-2.0,0.0,-2.0,0.0
1706277132.7705781,-2.0,0.0,1.0,-5.0,-3.0,-1.0,1.0,-1.0
1706277132.7705781,-5.0,-17.0,-7.0,4.0,2.0,1.0,-1.0,0.0
1706277132.7914827,0.0,-2.0,10.0,0.0,-1.0,-1.0,1.0,0.0
1706277132.7914827,6.0,8.0,3.0,0.0,-2.0,-2.0,-1.0,2.0
1706277132.793039,-3.0,-9.0,-13.0,-15.0,-5.0,-3.0,-4.0,-3.0
1706277132.793039,-3.0,2.0,7.0,18.0,6.0,2.0,1.0,-3.0
1706277132.8057463,-1.0,0.0,-10.0,-23.0,-4.0,-2.0,-4.0,-1.0
1706277132.8057463,1.0,-2.0,14.0,6.0,2.0,6.0,2.0,1.0
1706277132.813675,1.0,-6.0,-6.0,-7.0,-4.0,-1.0,1.0,-1.0
1706277132.813675,-8.0,0.0,0.0,14.0,0.0,0.0,0.0,-2.0
1706277132.8265483,-3.0,10.0,7.0,4.0,6.0,1.0,-1.0,-2.0
1706277132.8265483,-4.0,-10.0,-2.0,2.0,-2.0,-4.0,-1.0,0.0
1706277132.836562,6.0,7.0,1.0,-19.0,-9.0,-5.0,-3.0,0.0
1706277132.836562,-9.0,-18.0,-8.0,-12.0,-1.0,-1.0,-3.0,-4.0
1706277132.8469439,0.0,13.0,9.0,28.0,5.0,-1.0,0.0,3.0
1706277132.8469439,-13.0,-37.0,-45.0,-19.0,2.0,2.0,0.0,-4.0
1706277132.8469439,3.0,9.0,6.0,7.0,-6.0,-8.0,-4.0,-4.0
1706277132.8469439,-5.0,-16.0,-17.0,-8.0,-1.0,0.0,-1.0,-2.0
1706277132.8665576,4.0,11.0,12.0,-16.0,-7.0,-3.0,0.0,0.0
1706277132.8665576,-1.0,-9.0,-28.0,5.0,4.0,1.0,-1.0,1.0
1706277132.8665576,-7.0,-5.0,9.0,4.0,-5.0,-4.0,-6.0,-4.0
1706277132.8665576,2.0,-1.0,6.0,24.0,-2.0,-3.0,-1.0,-3.0
1706277132.8869383,-8.0,1.0,5.0,-27.0,-3.0,2.0,2.0,0.0
1706277132.8869383,-4.0,-6.0,9.0,-1.0,-4.0,-4.0,-2.0,-1.0
1706277132.8965614,0.0,0.0,-4.0,-1.0,5.0,2.0,1.0,2.0
1706277132.8965614,-1.0,6.0,6.0,10.0,5.0,0.0,-1.0,-2.0
1706277132.9069505,2.0,-1.0,-5.0,8.0,1.0,3.0,0.0,1.0
1706277132.9069505,-2.0,2.0,1.0,-12.0,-6.0,-7.0,-5.0,-3.0
1706277132.9069505,1.0,2.0,-6.0,-1.0,4.0,3.0,1.0,-1.0
1706277132.9069505,-10.0,-19.0,2.0,-7.0,-1.0,-1.0,-2.0,0.0
1706277132.916565,-6.0,-8.0,2.0,3.0,-3.0,-1.0,-2.0,-4.0
1706277132.916565,1.0,10.0,14.0,-1.0,-3.0,-1.0,-1.0,-3.0
1706277132.926594,2.0,0.0,-1.0,12.0,6.0,5.0,3.0,4.0
1706277132.926594,4.0,7.0,4.0,-13.0,-7.0,-6.0,-4.0,-1.0
1706277132.9465613,-1.0,-7.0,-15.0,-8.0,2.0,1.0,-1.0,0.0
1706277132.9465613,1.0,3.0,15.0,12.0,-3.0,-2.0,-1.0,2.0
1706277132.9465613,-2.0,-1.0,-10.0,-1.0,-6.0,-5.0,-1.0,-2.0
1706277132.9465613,0.0,9.0,9.0,-26.0,-5.0,0.0,2.0,0.0
1706277132.9668741,-1.0,-6.0,-11.0,17.0,9.0,-5.0,-5.0,-4.0
1706277132.9668741,-4.0,4.0,-11.0,-2.0,1.0,6.0,3.0,-5.0
1706277132.9668741,5.0,9.0,-3.0,6.0,2.0,1.0,0.0,3.0
1706277132.9668741,-1.0,-13.0,-15.0,-30.0,-8.0,-5.0,-2.0,-2.0
1706277132.9766026,-2.0,-4.0,-2.0,1.0,-6.0,0.0,0.0,-4.0
1706277132.9766026,5.0,12.0,14.0,-5.0,-1.0,-4.0,-2.0,1.0
1706277132.98656,-2.0,-9.0,-10.0,-2.0,4.0,3.0,2.0,-1.0
1706277132.98656,7.0,19.0,-1.0,15.0,5.0,-4.0,-3.0,-2.0
1706277133.0094244,-3.0,-4.0,17.0,14.0,16.0,4.0,0.0,1.0
1706277133.0094244,1.0,-6.0,-18.0,-1.0,-4.0,-2.0,-2.0,2.0
1706277133.0155776,-3.0,-2.0,20.0,-2.0,1.0,-1.0,-4.0,-4.0
1706277133.0155776,1.0,5.0,1.0,0.0,-2.0,-3.0,-5.0,1.0
1706277133.0255764,4.0,9.0,-7.0,-11.0,-13.0,-5.0,3.0,3.0
1706277133.0255764,-7.0,-14.0,-7.0,9.0,2.0,-2.0,-1.0,-2.0
1706277133.03569,2.0,3.0,2.0,4.0,2.0,5.0,0.0,-1.0
1706277133.03569,0.0,-2.0,15.0,14.0,13.0,8.0,4.0,0.0
1706277133.0456161,2.0,11.0,43.0,15.0,-2.0,-1.0,0.0,-2.0
1706277133.0456161,-1.0,-2.0,2.0,-29.0,-11.0,-5.0,-1.0,0.0
1706277133.0456161,-7.0,-14.0,-42.0,-21.0,-15.0,-13.0,-9.0,-2.0
1706277133.0456161,4.0,-11.0,-6.0,3.0,-1.0,8.0,4.0,-2.0
1706277133.0662558,-2.0,0.0,-13.0,11.0,11.0,4.0,-3.0,-1.0
1706277133.0662558,5.0,11.0,20.0,7.0,3.0,-1.0,1.0,4.0
1706277133.0662558,-1.0,3.0,34.0,18.0,-3.0,-5.0,-3.0,-4.0
1706277133.0662558,3.0,4.0,-25.0,6.0,9.0,2.0,0.0,3.0
1706277133.0858908,-2.0,-1.0,11.0,-19.0,-11.0,-13.0,-5.0,-6.0
1706277133.0858908,2.0,0.0,-8.0,-7.0,2.0,16.0,4.0,2.0
1706277133.0858908,-5.0,-12.0,-9.0,1.0,6.0,14.0,5.0,4.0
1706277133.0858908,8.0,-3.0,-25.0,-16.0,-6.0,1.0,2.0,6.0
1706277133.1063223,-23.0,0.0,5.0,12.0,-3.0,0.0,10.0,2.0
1706277133.1063223,20.0,6.0,8.0,1.0,-3.0,-10.0,-9.0,-11.0
1706277133.1063223,-12.0,-1.0,32.0,4.0,-1.0,-3.0,18.0,30.0
1706277133.1063223,19.0,8.0,-15.0,-1.0,-1.0,3.0,-7.0,-7.0
1706277133.1292226,5.0,7.0,-25.0,-10.0,0.0,-1.0,-6.0,-2.0
1706277133.1292226,-12.0,-4.0,-4.0,5.0,-8.0,-30.0,-16.0,-1.0
1706277133.130232,-18.0,0.0,-8.0,-3.0,7.0,28.0,19.0,-34.0
1706277133.130232,-17.0,3.0,35.0,6.0,-1.0,2.0,2.0,6.0
1706277133.151229,10.0,-23.0,-18.0,-5.0,-8.0,-21.0,-21.0,-15.0
1706277133.151229,-8.0,-9.0,4.0,13.0,17.0,28.0,22.0,8.0
1706277133.1585689,0.0,5.0,-4.0,-8.0,-4.0,-11.0,-23.0,-13.0
1706277133.1585689,7.0,19.0,21.0,9.0,6.0,0.0,10.0,30.0
1706277133.173994,9.0,-23.0,-31.0,-15.0,-7.0,1.0,1.0,-18.0
1706277133.173994,-3.0,10.0,22.0,11.0,1.0,10.0,1.0,27.0
1706277133.175568,-2.0,-12.0,-31.0,-15.0,-7.0,-5.0,0.0,-4.0
1706277133.175568,-4.0,1.0,3.0,-11.0,-16.0,-5.0,-5.0,-10.0
1706277133.1955748,-3.0,-6.0,-2.0,3.0,5.0,5.0,-1.0,13.0
1706277133.1955748,-5.0,1.0,4.0,-5.0,4.0,2.0,4.0,-9.0
1706277133.1955748,4.0,-1.0,-35.0,-25.0,-14.0,-4.0,-6.0,2.0
1706277133.1955748,-13.0,-5.0,22.0,48.0,17.0,-8.0,-13.0,-16.0
1706277133.2118576,6.0,9.0,-7.0,-29.0,-5.0,2.0,5.0,7.0
1706277133.2118576,-5.0,6.0,42.0,-6.0,-29.0,-14.0,-6.0,-9.0
1706277133.2138553,7.0,6.0,16.0,41.0,58.0,11.0,0.0,4.0
1706277133.2138553,-4.0,-12.0,-32.0,28.0,-16.0,-17.0,-11.0,-15.0
1706277133.234248,-2.0,5.0,19.0,-42.0,-11.0,3.0,6.0,8.0
1706277133.234248,3.0,11.0,-17.0,9.0,7.0,-3.0,-5.0,-6.0
1706277133.2352464,11.0,-1.0,-9.0,-23.0,-21.0,-10.0,-3.0,7.0
1706277133.2362463,-4.0,-12.0,-20.0,-25.0,-16.0,0.0,-2.0,1.0
1706277133.2673736,-4.0,6.0,1.0,11.0,4.0,4.0,7.0,1.0
1706277133.2673736,-3.0,-14.0,-21.0,-18.0,-8.0,-6.0,-5.0,-7.0
1706277133.2753725,6.0,9.0,10.0,-5.0,-16.0,-12.0,-7.0,-2.0
1706277133.2753725,-2.0,-7.0,-8.0,-11.0,9.0,1.0,0.0,-2.0
1706277133.2753725,-2.0,-7.0,2.0,4.0,-5.0,3.0,-2.0,13.0
1706277133.2753725,-4.0,0.0,4.0,1.0,4.0,4.0,5.0,-3.0
1706277133.279003,2.0,-4.0,-6.0,18.0,5.0,8.0,3.0,5.0
1706277133.279003,-3.0,11.0,24.0,-16.0,-2.0,-1.0,1.0,-1.0
1706277133.2937665,6.0,1.0,8.0,14.0,6.0,0.0,-4.0,2.0
1706277133.2947836,-1.0,-5.0,-21.0,7.0,4.0,-4.0,-1.0,-3.0
1706277133.2958202,-8.0,-4.0,13.0,-4.0,-3.0,-4.0,-4.0,-3.0
1706277133.2958202,1.0,10.0,-11.0,-20.0,-6.0,-1.0,1.0,-2.0
1706277133.3260365,-2.0,-12.0,-9.0,2.0,-9.0,-1.0,-1.0,-2.0
1706277133.3260365,-3.0,-4.0,7.0,12.0,14.0,3.0,0.0,0.0
1706277133.3290355,-1.0,0.0,-8.0,-12.0,-6.0,-8.0,-5.0,-4.0
1706277133.3290355,3.0,5.0,13.0,-2.0,-5.0,-3.0,0.0,-2.0
1706277133.33106,-3.0,3.0,17.0,28.0,13.0,3.0,1.0,-2.0
1706277133.33106,1.0,-1.0,1.0,-11.0,-7.0,-6.0,-5.0,-5.0
1706277133.3330355,-1.0,-10.0,5.0,-1.0,-3.0,-4.0,-2.0,-2.0
1706277133.3330355,-13.0,-5.0,-18.0,-5.0,-1.0,3.0,5.0,-1.0
1706277133.3539433,23.0,-2.0,-8.0,-1.0,-5.0,-7.0,-9.0,6.0
1706277133.3539433,-7.0,5.0,-11.0,-4.0,-1.0,1.0,1.0,2.0
1706277133.3558471,4.0,4.0,8.0,3.0,-2.0,-1.0,4.0,-2.0
1706277133.3558471,-10.0,-27.0,-16.0,-9.0,-1.0,-1.0,-5.0,-3.0
1706277133.3795285,-17.0,-14.0,5.0,2.0,-4.0,-6.0,-6.0,-8.0
1706277133.3795285,11.0,12.0,0.0,3.0,5.0,11.0,5.0,6.0
1706277133.3805282,-2.0,2.0,-10.0,1.0,-4.0,-5.0,-6.0,-4.0
1706277133.3805282,0.0,2.0,11.0,2.0,0.0,-6.0,-4.0,2.0
1706277133.3916352,-2.0,12.0,-4.0,-10.0,-2.0,5.0,3.0,3.0
1706277133.392658,0.0,-4.0,1.0,3.0,1.0,-4.0,-4.0,-4.0
1706277133.3936615,-4.0,8.0,13.0,6.0,3.0,3.0,0.0,-1.0
1706277133.3936615,2.0,-7.0,-13.0,-6.0,1.0,0.0,-2.0,0.0
1706277133.414699,-8.0,2.0,-13.0,4.0,-2.0,-1.0,-2.0,-8.0
1706277133.414699,1.0,2.0,-2.0,-2.0,-5.0,-3.0,-3.0,-3.0
1706277133.416722,3.0,2.0,16.0,-8.0,-2.0,1.0,1.0,2.0
1706277133.416722,0.0,0.0,-1.0,7.0,9.0,3.0,0.0,-4.0
1706277133.436343,-3.0,3.0,9.0,14.0,7.0,-3.0,-2.0,-4.0
1706277133.436343,1.0,-5.0,-5.0,0.0,-4.0,-3.0,0.0,3.0
1706277133.4373426,-3.0,-3.0,4.0,4.0,-2.0,-3.0,-1.0,1.0
1706277133.4373426,2.0,-2.0,-16.0,-15.0,-4.0,5.0,3.0,-1.0
1706277133.451577,0.0,15.0,2.0,-8.0,-4.0,-3.0,-1.0,-2.0
1706277133.451577,-10.0,-21.0,-8.0,-6.0,-4.0,-5.0,-2.0,-4.0
1706277133.4536273,-4.0,-9.0,-5.0,5.0,6.0,-1.0,0.0,0.0
1706277133.4536273,-4.0,8.0,3.0,-2.0,-3.0,-3.0,-1.0,-3.0
1706277133.4809558,2.0,12.0,8.0,-2.0,-5.0,-6.0,-7.0,-1.0
1706277133.4809558,6.0,9.0,0.0,0.0,4.0,7.0,4.0,1.0
1706277133.4809558,0.0,-13.0,-4.0,-1.0,-3.0,-1.0,-1.0,10.0
1706277133.4809558,-2.0,-1.0,4.0,-2.0,-2.0,-1.0,-3.0,-9.0
1706277133.488598,-2.0,1.0,-7.0,0.0,1.0,-2.0,-2.0,-4.0
1706277133.488598,-4.0,-2.0,-11.0,-7.0,-6.0,-4.0,-3.0,-6.0
1706277133.494496,-2.0,-2.0,6.0,8.0,1.0,-1.0,-3.0,-4.0
1706277133.494496,4.0,1.0,0.0,-9.0,-4.0,-3.0,0.0,-1.0
1706277133.5113902,-9.0,-10.0,0.0,1.0,-1.0,1.0,1.0,-2.0
1706277133.5113902,-3.0,-1.0,-2.0,2.0,-2.0,-1.0,-1.0,-5.0
1706277133.5131276,4.0,6.0,-3.0,-6.0,-2.0,-2.0,-3.0,-3.0
1706277133.5131276,2.0,5.0,16.0,1.0,-2.0,-5.0,-3.0,-1.0
1706277133.5410702,0.0,-3.0,-2.0,3.0,2.0,9.0,2.0,0.0
1706277133.5410702,0.0,-4.0,-9.0,3.0,1.0,-5.0,-1.0,0.0
1706277133.5410702,0.0,0.0,-3.0,-5.0,-7.0,-5.0,-5.0,-1.0
1706277133.5410702,-2.0,-4.0,-16.0,-8.0,-5.0,0.0,-1.0,0.0
1706277133.5493934,1.0,4.0,11.0,-2.0,-1.0,-3.0,-1.0,0.0
1706277133.5493934,-2.0,3.0,9.0,4.0,-2.0,-6.0,-8.0,-3.0
1706277133.556317,0.0,5.0,-17.0,-7.0,-3.0,-3.0,3.0,-2.0
1706277133.556317,-7.0,-20.0,8.0,-1.0,-2.0,0.0,2.0,6.0
1706277133.5723147,1.0,6.0,-5.0,3.0,0.0,2.0,-1.0,-3.0
1706277133.5723147,-1.0,0.0,6.0,-7.0,-3.0,-4.0,-2.0,-1.0
1706277133.573312,-5.0,-5.0,-13.0,3.0,-1.0,0.0,-3.0,-6.0
1706277133.573312,1.0,3.0,-3.0,-6.0,1.0,-2.0,1.0,2.0
1706277133.6033547,-2.0,-4.0,9.0,-1.0,-1.0,-3.0,0.0,-3.0
1706277133.6033547,4.0,10.0,8.0,2.0,0.0,-5.0,-2.0,3.0
1706277133.6033547,-1.0,-5.0,1.0,-4.0,-2.0,2.0,0.0,1.0
1706277133.6033547,-4.0,9.0,2.0,4.0,-3.0,-2.0,0.0,-4.0
1706277133.6073751,0.0,-9.0,-21.0,-4.0,1.0,5.0,4.0,7.0
1706277133.6073751,4.0,4.0,6.0,-2.0,-1.0,1.0,-2.0,-7.0
1706277133.6163566,-7.0,-11.0,-2.0,0.0,-3.0,-3.0,-3.0,-4.0
1706277133.6163566,-4.0,-7.0,-14.0,-3.0,-1.0,0.0,-1.0,-3.0
1706277133.631315,-1.0,-1.0,1.0,-1.0,-2.0,-6.0,0.0,0.0
1706277133.631315,-7.0,-7.0,3.0,1.0,-1.0,-2.0,-2.0,3.0
1706277133.6323187,4.0,10.0,2.0,1.0,5.0,6.0,5.0,-2.0
1706277133.6323187,2.0,0.0,-7.0,-2.0,-2.0,0.0,-3.0,-1.0
1706277133.652881,-4.0,1.0,-2.0,3.0,-1.0,-6.0,-4.0,-2.0
1706277133.652881,0.0,-9.0,0.0,-3.0,1.0,5.0,2.0,2.0
1706277133.6610725,-1.0,2.0,-1.0,11.0,-2.0,-6.0,-2.0,-1.0
1706277133.6610725,-3.0,-3.0,11.0,-17.0,-1.0,-2.0,-3.0,-2.0
1706277133.6676843,-1.0,-5.0,-18.0,-3.0,1.0,6.0,2.0,-2.0
1706277133.6676843,-2.0,-3.0,-8.0,-11.0,-4.0,-5.0,-3.0,-2.0
1706277133.6766865,-3.0,-4.0,5.0,-1.0,-2.0,-2.0,-3.0,-1.0
1706277133.6766865,6.0,7.0,14.0,14.0,4.0,5.0,0.0,0.0
1706277133.6917233,0.0,-11.0,-5.0,-10.0,-6.0,-3.0,-3.0,-2.0
1706277133.6917233,-1.0,-5.0,-3.0,2.0,4.0,2.0,-2.0,-3.0
1706277133.6927338,-7.0,-8.0,-8.0,-4.0,0.0,0.0,2.0,1.0
1706277133.6927338,10.0,18.0,31.0,13.0,0.0,-4.0,-2.0,0.0
1706277133.7137501,-5.0,-4.0,-23.0,-9.0,0.0,-1.0,-3.0,-2.0
1706277133.7137501,-2.0,7.0,11.0,0.0,-6.0,-10.0,-11.0,-3.0
1706277133.7147763,0.0,-1.0,1.0,0.0,3.0,15.0,12.0,-2.0
1706277133.7157812,2.0,-6.0,-18.0,-6.0,-4.0,-5.0,-1.0,6.0
1706277133.7272513,4.0,12.0,22.0,13.0,0.0,-5.0,-2.0,-3.0
1706277133.7272513,-1.0,-5.0,-13.0,-11.0,0.0,5.0,4.0,3.0
1706277133.7362893,-3.0,-2.0,-4.0,-14.0,-6.0,-6.0,-8.0,-2.0
1706277133.7362893,-2.0,2.0,1.0,-6.0,-1.0,1.0,-1.0,-2.0
1706277133.7512085,-1.0,1.0,-4.0,5.0,-1.0,-4.0,0.0,-3.0
1706277133.7512085,-2.0,-5.0,-9.0,2.0,2.0,3.0,1.0,1.0
1706277133.7531042,3.0,11.0,3.0,2.0,-1.0,-5.0,-4.0,-2.0
1706277133.7531042,-2.0,-12.0,-26.0,-5.0,-2.0,3.0,3.0,0.0
1706277133.7736535,-2.0,-3.0,24.0,-1.0,-4.0,-4.0,-4.0,-3.0
1706277133.7736535,-2.0,-3.0,-13.0,-1.0,-4.0,-6.0,-2.0,-4.0
1706277133.77563,4.0,5.0,2.0,-3.0,3.0,4.0,0.0,6.0
1706277133.77563,-5.0,-11.0,-2.0,4.0,0.0,-1.0,-1.0,-4.0
1706277133.7877455,-2.0,2.0,2.0,-3.0,-4.0,-1.0,-4.0,-2.0
1706277133.7877455,-1.0,3.0,1.0,3.0,-1.0,3.0,6.0,-3.0
1706277133.795853,-1.0,5.0,11.0,-4.0,-7.0,-9.0,-6.0,-1.0
1706277133.795853,-1.0,-4.0,-9.0,5.0,4.0,13.0,5.0,1.0
1706277133.8116689,0.0,-1.0,-14.0,-11.0,-5.0,-3.0,-3.0,-2.0
1706277133.8116689,1.0,-3.0,3.0,-2.0,-1.0,0.0,0.0,-1.0
1706277133.8126702,-2.0,-4.0,0.0,-2.0,-1.0,-5.0,-3.0,-1.0
1706277133.8126702,-3.0,8.0,13.0,4.0,-1.0,-4.0,-2.0,6.0
1706277133.8339882,-6.0,-6.0,0.0,2.0,2.0,0.0,-3.0,-10.0
1706277133.8339882,9.0,21.0,7.0,2.0,1.0,0.0,-7.0,6.0
1706277133.8355615,0.0,1.0,1.0,-3.0,-8.0,-18.0,-16.0,-22.0
1706277133.8355615,8.0,-20.0,-8.0,-4.0,2.0,15.0,14.0,11.0
1706277133.8477876,6.0,3.0,-1.0,6.0,7.0,12.0,11.0,14.0
1706277133.8477876,-13.0,-19.0,11.0,-5.0,-8.0,-13.0,8.0,12.0
1706277133.8565214,8.0,2.0,-20.0,-6.0,-1.0,-1.0,-3.0,-9.0
1706277133.8565214,-2.0,5.0,12.0,1.0,-9.0,-24.0,-13.0,-15.0
1706277133.8722458,-10.0,-5.0,-6.0,0.0,7.0,12.0,4.0,2.0
1706277133.8722458,-3.0,1.0,-7.0,-1.0,-2.0,1.0,1.0,-19.0
1706277133.8722458,-12.0,-5.0,1.0,0.0,0.0,5.0,1.0,1.0
1706277133.8722458,-4.0,1.0,1.0,-4.0,-1.0,2.0,2.0,-13.0
1706277133.8964963,0.0,-12.0,-14.0,-20.0,-17.0,-10.0,-4.0,3.0
1706277133.8964963,2.0,3.0,10.0,15.0,22.0,10.0,3.0,6.0
1706277133.8964963,-6.0,-14.0,-11.0,3.0,-9.0,-8.0,-3.0,3.0
1706277133.8964963,1.0,14.0,26.0,15.0,12.0,4.0,-2.0,-1.0
1706277133.9086337,4.0,-8.0,-27.0,-45.0,-16.0,-2.0,1.0,2.0
1706277133.9086337,-2.0,-2.0,-40.0,22.0,4.0,7.0,1.0,-7.0
1706277133.9177635,-4.0,-18.0,-32.0,-25.0,-22.0,-9.0,0.0,4.0
1706277133.9177635,1.0,14.0,23.0,26.0,16.0,2.0,-8.0,-9.0
1706277133.9486277,-10.0,-5.0,32.0,22.0,4.0,-7.0,-9.0,-10.0
1706277133.9486277,7.0,1.0,-15.0,-31.0,-27.0,-18.0,-10.0,12.0
1706277133.9486277,-2.0,3.0,-2.0,26.0,30.0,23.0,12.0,-6.0
1706277133.9486277,7.0,6.0,-37.0,-30.0,-22.0,-13.0,-10.0,1.0
1706277133.9538713,-8.0,1.0,24.0,2.0,-4.0,-4.0,0.0,-4.0
1706277133.9538713,7.0,5.0,-1.0,-12.0,-8.0,-4.0,0.0,0.0
1706277133.9555054,-9.0,-4.0,20.0,14.0,9.0,3.0,-1.0,2.0
1706277133.9555054,5.0,-4.0,-10.0,-11.0,-12.0,-26.0,-12.0,9.0
1706277133.9676301,7.0,3.0,1.0,13.0,16.0,13.0,3.0,0.0
1706277133.9676301,-12.0,-8.0,0.0,-2.0,0.0,8.0,4.0,-4.0
1706277133.975971,18.0,9.0,2.0,-6.0,-4.0,-5.0,-1.0,5.0
1706277133.975971,2.0,12.0,13.0,1.0,-4.0,-5.0,-2.0,-3.0
1706277133.9915013,0.0,-1.0,-11.0,0.0,1.0,-4.0,0.0,5.0
1706277133.9915013,-5.0,-5.0,18.0,4.0,3.0,0.0,0.0,-3.0
1706277133.9915013,-1.0,2.0,-3.0,-9.0,-5.0,-3.0,-4.0,2.0
1706277133.9915013,-5.0,-14.0,-13.0,3.0,6.0,9.0,6.0,-6.0
1706277134.0117543,-3.0,-3.0,6.0,4.0,-3.0,-2.0,-1.0,-4.0
1706277134.0117543,1.0,9.0,29.0,7.0,7.0,2.0,1.0,-1.0
1706277134.0117543,-1.0,8.0,-6.0,-1.0,2.0,6.0,3.0,0.0
1706277134.0117543,-7.0,-14.0,-11.0,-7.0,-1.0,4.0,4.0,4.0
1706277134.031453,3.0,4.0,-5.0,2.0,-2.0,-5.0,-4.0,-3.0
1706277134.031453,-2.0,-2.0,4.0,-8.0,-5.0,-6.0,-4.0,-7.0
1706277134.031453,4.0,8.0,14.0,9.0,0.0,-2.0,-2.0,3.0
1706277134.031453,-6.0,-3.0,-3.0,-6.0,-4.0,-2.0,-2.0,-2.0
1706277134.0514586,-1.0,5.0,1.0,0.0,-4.0,-1.0,-9.0,-1.0
1706277134.0514586,3.0,-6.0,-16.0,-3.0,-4.0,-4.0,-6.0,-4.0
1706277134.0514586,-4.0,-6.0,5.0,-2.0,-3.0,0.0,0.0,0.0
1706277134.0514586,0.0,4.0,3.0,-3.0,-1.0,2.0,1.0,-5.0
1706277134.0738037,0.0,-3.0,-9.0,-2.0,1.0,-3.0,1.0,-2.0
1706277134.0738037,-3.0,-4.0,0.0,10.0,1.0,1.0,0.0,-1.0
1706277134.0757298,0.0,7.0,15.0,-2.0,-3.0,-5.0,-4.0,1.0
1706277134.0757298,-1.0,-8.0,0.0,-3.0,-6.0,-4.0,-1.0,1.0
1706277134.091067,4.0,5.0,-7.0,-3.0,-2.0,0.0,-1.0,-2.0
1706277134.091067,1.0,2.0,-6.0,-2.0,0.0,0.0,1.0,2.0
1706277134.091067,-5.0,-5.0,20.0,8.0,2.0,-1.0,2.0,0.0
1706277134.091067,0.0,2.0,-11.0,-1.0,6.0,4.0,0.0,2.0
1706277134.1111338,-2.0,2.0,19.0,4.0,-6.0,-6.0,-3.0,-4.0
1706277134.1111338,-3.0,-4.0,-4.0,-3.0,-1.0,-1.0,0.0,-2.0
1706277134.1111338,-3.0,-7.0,-2.0,-1.0,-2.0,-6.0,-1.0,-3.0
1706277134.1111338,-1.0,0.0,2.0,1.0,1.0,-1.0,0.0,0.0
1706277134.131345,-3.0,-1.0,-8.0,-2.0,0.0,-4.0,0.0,0.0
1706277134.131345,1.0,0.0,4.0,0.0,0.0,3.0,-2.0,-2.0
1706277134.131345,0.0,-2.0,-9.0,-9.0,-4.0,-3.0,0.0,-2.0
1706277134.131345,-4.0,-1.0,2.0,1.0,1.0,1.0,-1.0,1.0
1706277134.1510768,5.0,2.0,-7.0,-2.0,0.0,-1.0,0.0,0.0
1706277134.1510768,-2.0,-3.0,-3.0,-1.0,-2.0,-4.0,-4.0,-1.0
1706277134.1810713,-2.0,-9.0,4.0,-3.0,-2.0,0.0,-1.0,0.0
1706277134.1810713,-4.0,-5.0,-17.0,-3.0,-1.0,0.0,0.0,-5.0
1706277134.1810713,2.0,14.0,4.0,-1.0,-1.0,0.0,1.0,0.0
1706277134.1810713,-2.0,5.0,-6.0,3.0,1.0,-2.0,-1.0,-2.0
1706277134.1810713,-9.0,-27.0,-20.0,-3.0,-3.0,0.0,-1.0,-3.0
1706277134.1810713,0.0,3.0,7.0,-2.0,-3.0,4.0,-1.0,-1.0
1706277134.1910923,-2.0,-5.0,-1.0,3.0,0.0,-1.0,0.0,-1.0
1706277134.1910923,-5.0,3.0,5.0,-14.0,-4.0,-5.0,-3.0,-8.0
1706277134.1910923,1.0,10.0,4.0,5.0,1.0,4.0,1.0,-1.0
1706277134.1910923,-1.0,-6.0,-1.0,0.0,1.0,-3.0,-1.0,-2.0
1706277134.2114966,1.0,0.0,-5.0,-1.0,0.0,0.0,-2.0,-2.0
1706277134.2114966,0.0,0.0,6.0,4.0,0.0,0.0,0.0,6.0
1706277134.2114966,2.0,4.0,-8.0,-8.0,-2.0,-2.0,-2.0,1.0
1706277134.2114966,-5.0,-9.0,4.0,-4.0,-5.0,-3.0,-2.0,-3.0
1706277134.2210689,-1.0,1.0,8.0,3.0,2.0,2.0,0.0,-1.0
1706277134.2210689,-4.0,-6.0,-8.0,-1.0,-2.0,-2.0,-1.0,-3.0
1706277134.231068,-1.0,0.0,-9.0,-7.0,-1.0,-4.0,-3.0,0.0
1706277134.231068,3.0,7.0,11.0,2.0,-3.0,-1.0,-2.0,-1.0
1706277134.2610679,-5.0,-12.0,-11.0,-5.0,-2.0,-2.0,0.0,-2.0
1706277134.2610679,-3.0,-5.0,-1.0,3.0,-1.0,-2.0,-5.0,-3.0
1706277134.2610679,-1.0,1.0,4.0,-7.0,-3.0,2.0,0.0,1.0
1706277134.2610679,-2.0,-3.0,-3.0,0.0,1.0,-2.0,-2.0,-1.0
1706277134.2715373,-2.0,-1.0,-2.0,5.0,3.0,4.0,0.0,-1.0
1706277134.2715373,0.0,-4.0,-2.0,-2.0,-1.0,-1.0,-3.0,-3.0
1706277134.2715373,3.0,3.0,2.0,-2.0,1.0,3.0,3.0,3.0
1706277134.2715373,-4.0,-1.0,-5.0,-1.0,-1.0,0.0,-1.0,-2.0
1706277134.2818606,1.0,-1.0,-6.0,-8.0,-3.0,-3.0,-1.0,2.0
1706277134.291554,-1.0,-14.0,2.0,4.0,0.0,0.0,1.0,-1.0
1706277134.291554,1.0,10.0,5.0,5.0,3.0,-3.0,-3.0,-1.0
1706277134.291554,-1.0,-3.0,-6.0,-4.0,1.0,1.0,0.0,-1.0
1706277134.3215508,-3.0,-5.0,-2.0,-4.0,-3.0,-2.0,-2.0,-2.0
1706277134.3215508,5.0,-1.0,5.0,12.0,3.0,2.0,1.0,1.0
1706277134.3215508,-7.0,-6.0,-17.0,-6.0,-4.0,-4.0,-2.0,-4.0
1706277134.3215508,0.0,2.0,1.0,0.0,-3.0,-1.0,-1.0,0.0
1706277134.331782,2.0,10.0,14.0,1.0,-3.0,-2.0,0.0,-1.0
1706277134.331782,-7.0,-13.0,-5.0,-12.0,-6.0,-2.0,-3.0,-4.0
1706277134.331782,3.0,7.0,17.0,5.0,-13.0,-5.0,-4.0,-4.0
1706277134.331782,-4.0,-14.0,-20.0,28.0,27.0,11.0,4.0,1.0
1706277134.3515553,2.0,12.0,28.0,-15.0,-5.0,-2.0,1.0,1.0
1706277134.3515553,-2.0,2.0,-21.0,6.0,5.0,-2.0,0.0,-1.0
1706277134.3515553,-4.0,-10.0,-4.0,-18.0,-11.0,-4.0,-4.0,-2.0
1706277134.3515553,-3.0,-2.0,-3.0,-29.0,-26.0,-11.0,-3.0,-3.0
1706277134.3915505,-3.0,-4.0,-2.0,33.0,22.0,6.0,-1.0,0.0
1706277134.3915505,0.0,6.0,6.0,-5.0,-7.0,1.0,1.0,-1.0
1706277134.3915505,0.0,2.0,-4.0,-5.0,-4.0,-3.0,-3.0,-2.0
1706277134.3915505,1.0,0.0,5.0,8.0,3.0,1.0,1.0,1.0
1706277134.4015486,1.0,0.0,2.0,-3.0,4.0,-1.0,-1.0,0.0
1706277134.4015486,1.0,6.0,-1.0,-2.0,2.0,-1.0,0.0,-1.0
1706277134.4015486,-1.0,-1.0,-8.0,5.0,4.0,0.0,-1.0,1.0
1706277134.4015486,-2.0,-2.0,11.0,-18.0,-17.0,-7.0,-4.0,-3.0
1706277134.4015486,-1.0,-9.0,-32.0,4.0,-2.0,1.0,-1.0,-2.0
1706277134.4015486,-2.0,7.0,-21.0,-8.0,-4.0,-1.0,-1.0,-4.0
1706277134.4115582,0.0,1.0,-2.0,-3.0,-2.0,0.0,0.0,-2.0
1706277134.4115582,-1.0,3.0,23.0,5.0,7.0,1.0,0.0,0.0
1706277134.4515502,-2.0,-4.0,-11.0,-9.0,-10.0,-2.0,-1.0,0.0
1706277134.4515502,4.0,6.0,-5.0,-7.0,-4.0,-1.0,-2.0,-1.0
1706277134.4515502,-2.0,-4.0,8.0,27.0,30.0,6.0,1.0,-1.0
1706277134.4515502,1.0,5.0,-8.0,1.0,1.0,0.0,-3.0,0.0
1706277134.4515502,-6.0,-7.0,-2.0,-7.0,-7.0,-5.0,-4.0,-2.0
1706277134.4515502,0.0,-1.0,5.0,5.0,6.0,3.0,0.0,0.0
1706277134.4515502,2.0,3.0,1.0,-9.0,-6.0,0.0,1.0,0.0
1706277134.4515502,1.0,1.0,2.0,17.0,9.0,-4.0,-1.0,2.0
1706277134.461588,1.0,1.0,1.0,-5.0,-1.0,6.0,3.0,-1.0
1706277134.461588,-7.0,-2.0,1.0,-7.0,-8.0,-5.0,-2.0,0.0
1706277134.491552,-2.0,0.0,10.0,4.0,-2.0,-2.0,-2.0,0.0
1706277134.491552,0.0,0.0,-22.0,-12.0,-10.0,-4.0,-4.0,-2.0
1706277134.491552,1.0,-3.0,0.0,-15.0,0.0,2.0,-1.0,0.0
1706277134.491552,-1.0,-3.0,7.0,6.0,7.0,1.0,1.0,-1.0
1706277134.491552,0.0,-1.0,-9.0,-8.0,-15.0,-5.0,-2.0,-3.0
1706277134.491552,0.0,-5.0,-26.0,26.0,23.0,4.0,2.0,-2.0
1706277134.5117514,-1.0,1.0,11.0,20.0,8.0,2.0,1.0,1.0
1706277134.5117514,-1.0,-2.0,2.0,-1.0,-1.0,-2.0,0.0,-2.0
1706277134.5117514,-2.0,-3.0,-5.0,-13.0,-9.0,-5.0,-2.0,-1.0
1706277134.5117514,1.0,2.0,4.0,-18.0,-9.0,0.0,-1.0,-1.0
1706277134.5218682,-4.0,-6.0,-12.0,1.0,-2.0,-3.0,-1.0,-3.0
1706277134.5218682,0.0,-2.0,1.0,-9.0,-1.0,0.0,-2.0,1.0
1706277134.5318136,1.0,3.0,6.0,2.0,-3.0,-1.0,-2.0,0.0
1706277134.5318136,-3.0,0.0,-14.0,-6.0,-5.0,1.0,-1.0,-3.0
1706277134.5515857,-2.0,-1.0,9.0,-3.0,-1.0,-3.0,-1.0,-1.0
1706277134.5515857,0.0,-1.0,7.0,-3.0,-9.0,-3.0,-1.0,0.0
1706277134.5515857,-1.0,-3.0,-5.0,0.0,-1.0,-1.0,-2.0,-2.0
1706277134.5515857,-1.0,0.0,8.0,2.0,-1.0,2.0,1.0,0.0
1706277134.571925,-2.0,-5.0,-7.0,-5.0,-7.0,-5.0,0.0,-4.0
1706277134.571925,1.0,2.0,-1.0,-1.0,3.0,0.0,-1.0,0.0
1706277134.571925,3.0,-9.0,-2.0,8.0,11.0,4.0,2.0,1.0
1706277134.571925,-3.0,18.0,10.0,-4.0,1.0,-1.0,-4.0,-2.0
1706277134.581838,-4.0,-4.0,-14.0,-10.0,-8.0,-5.0,-4.0,-1.0
1706277134.581838,-3.0,-11.0,2.0,2.0,-4.0,-2.0,-2.0,-1.0
1706277134.605558,1.0,7.0,7.0,1.0,2.0,-1.0,0.0,-2.0
1706277134.605558,1.0,-3.0,-9.0,-12.0,-9.0,-2.0,-1.0,1.0
1706277134.613961,-6.0,-2.0,12.0,3.0,1.0,2.0,0.0,-5.0
1706277134.613961,1.0,4.0,-22.0,10.0,8.0,4.0,3.0,1.0
1706277134.613961,-3.0,-1.0,-5.0,2.0,4.0,1.0,1.0,0.0
1706277134.613961,-2.0,-6.0,4.0,-4.0,-7.0,-4.0,-1.0,0.0
1706277134.6343634,3.0,6.0,-2.0,-2.0,-2.0,-4.0,-3.0,1.0
1706277134.6343634,-3.0,-10.0,2.0,-7.0,-8.0,-2.0,-2.0,-2.0
1706277134.6343634,0.0,3.0,6.0,-1.0,7.0,4.0,1.0,0.0
1706277134.6343634,-2.0,-5.0,-3.0,8.0,-5.0,-2.0,0.0,-1.0
1706277134.6443832,1.0,-7.0,-8.0,-4.0,-2.0,2.0,-1.0,0.0
1706277134.6443832,-2.0,1.0,4.0,7.0,4.0,-3.0,-1.0,-1.0
1706277134.6639915,-2.0,5.0,9.0,-1.0,-8.0,-5.0,0.0,0.0
1706277134.6639915,8.0,18.0,6.0,-2.0,2.0,0.0,1.0,2.0
1706277134.6741688,-3.0,0.0,9.0,-6.0,-14.0,-6.0,-6.0,-2.0
1706277134.6741688,1.0,8.0,3.0,-1.0,-9.0,-2.0,0.0,-1.0
1706277134.6741688,-7.0,-8.0,-35.0,-9.0,16.0,4.0,0.0,-2.0
1706277134.6741688,1.0,-5.0,2.0,-3.0,-1.0,0.0,0.0,1.0
1706277134.6943123,0.0,3.0,10.0,12.0,6.0,1.0,-1.0,-1.0
1706277134.6943123,-1.0,0.0,1.0,-15.0,-9.0,-6.0,-3.0,-3.0
1706277134.6943123,1.0,5.0,10.0,4.0,-5.0,-1.0,-1.0,0.0
1706277134.6943123,-10.0,-16.0,-9.0,-4.0,-3.0,1.0,-1.0,-2.0
1706277134.703994,2.0,-1.0,2.0,3.0,2.0,-1.0,-1.0,2.0
1706277134.703994,-1.0,0.0,9.0,3.0,-3.0,-2.0,-2.0,-2.0
1706277134.7140152,-1.0,1.0,-4.0,-6.0,-6.0,-4.0,-3.0,-1.0
1706277134.7140152,1.0,-15.0,22.0,16.0,7.0,4.0,1.0,1.0
1706277134.7339993,-8.0,-18.0,-35.0,-20.0,-11.0,-7.0,-4.0,-5.0
1706277134.7339993,-1.0,6.0,-2.0,-14.0,-3.0,-4.0,-1.0,0.0
1706277134.7339993,-3.0,-5.0,9.0,14.0,-7.0,-5.0,-4.0,-5.0
1706277134.7339993,6.0,17.0,32.0,3.0,6.0,1.0,3.0,2.0
1706277134.7544165,-4.0,-14.0,-33.0,-10.0,6.0,4.0,1.0,1.0
1706277134.7544165,-2.0,-6.0,11.0,25.0,13.0,3.0,-2.0,-1.0
1706277134.7544165,-2.0,-3.0,-4.0,-11.0,-7.0,-3.0,0.0,-2.0
1706277134.7544165,-3.0,-1.0,-4.0,-5.0,-13.0,-7.0,-5.0,-2.0
1706277134.7639918,6.0,19.0,26.0,9.0,1.0,1.0,3.0,1.0
1706277134.7639918,-9.0,-17.0,-26.0,-32.0,-11.0,-7.0,-5.0,-5.0
1706277134.7740173,4.0,5.0,24.0,21.0,7.0,3.0,2.0,3.0
1706277134.7740173,-5.0,-10.0,-28.0,-16.0,-3.0,-4.0,-3.0,-5.0
1706277134.793992,2.0,7.0,15.0,9.0,2.0,1.0,1.0,-1.0
1706277134.793992,1.0,-2.0,-4.0,4.0,3.0,1.0,1.0,-1.0
1706277134.793992,3.0,5.0,12.0,8.0,2.0,1.0,-1.0,2.0
1706277134.793992,-3.0,-6.0,-10.0,-7.0,-1.0,-2.0,-1.0,-4.0
1706277134.8144035,1.0,2.0,-6.0,-5.0,-2.0,-3.0,-3.0,-1.0
1706277134.8144035,0.0,8.0,22.0,9.0,0.0,0.0,0.0,0.0
1706277134.8244371,-9.0,-23.0,-25.0,-19.0,-6.0,-4.0,-3.0,-5.0
1706277134.8244371,1.0,-3.0,-22.0,0.0,-3.0,-2.0,1.0,1.0
1706277134.8244371,1.0,8.0,15.0,3.0,3.0,0.0,-1.0,2.0
1706277134.8244371,2.0,8.0,-8.0,-3.0,-4.0,-2.0,-2.0,-8.0
1706277134.834469,-12.0,-5.0,4.0,-3.0,1.0,0.0,0.0,-11.0
1706277134.834469,-4.0,6.0,-5.0,-5.0,-3.0,-2.0,-5.0,-9.0
1706277134.854449,-2.0,-2.0,7.0,4.0,1.0,0.0,-1.0,1.0
1706277134.854449,4.0,3.0,-3.0,-2.0,0.0,1.0,1.0,2.0
1706277134.854449,-1.0,-2.0,-17.0,-17.0,-11.0,-4.0,-1.0,2.0
1706277134.854449,-2.0,0.0,-5.0,-13.0,-7.0,-3.0,-2.0,-1.0
1706277134.874438,-1.0,-2.0,-14.0,18.0,6.0,2.0,-1.0,-3.0
1706277134.874438,-6.0,-2.0,21.0,0.0,-1.0,-2.0,-1.0,1.0
1706277134.874438,3.0,-1.0,-9.0,-2.0,-1.0,-2.0,-2.0,-1.0
1706277134.874438,1.0,-1.0,11.0,0.0,-4.0,-1.0,0.0,2.0
1706277134.8846278,0.0,-2.0,-7.0,-7.0,-1.0,1.0,1.0,0.0
1706277134.8846278,-1.0,-6.0,-6.0,0.0,2.0,0.0,0.0,2.0
1706277134.894443,4.0,5.0,5.0,15.0,1.0,1.0,1.0,1.0
1706277134.894443,0.0,-2.0,6.0,-11.0,-4.0,-4.0,-3.0,-2.0
1706277134.9046626,-1.0,0.0,1.0,-3.0,-3.0,1.0,2.0,0.0
1706277134.914443,-2.0,-6.0,-10.0,-4.0,-1.0,0.0,-2.0,-2.0
1706277134.914443,0.0,-3.0,-5.0,-6.0,-1.0,-3.0,-3.0,-3.0
1706277134.914443,0.0,0.0,3.0,11.0,5.0,3.0,3.0,2.0
1706277134.9444387,0.0,1.0,-12.0,-7.0,-3.0,-3.0,-1.0,0.0
1706277134.9444387,3.0,11.0,33.0,21.0,3.0,1.0,0.0,3.0
1706277134.9444387,-7.0,-10.0,-29.0,-20.0,-4.0,-4.0,-3.0,-2.0
1706277134.9444387,-7.0,-16.0,-13.0,6.0,8.0,1.0,-3.0,-1.0
1706277134.9444387,-3.0,-3.0,5.0,-9.0,-13.0,-27.0,-15.0,-7.0
1706277134.9444387,3.0,2.0,-1.0,3.0,8.0,15.0,12.0,5.0
1706277134.9544747,3.0,9.0,12.0,7.0,0.0,-2.0,0.0,4.0
1706277134.9544747,-4.0,4.0,6.0,3.0,2.0,3.0,-1.0,-9.0
1706277134.9647748,-1.0,-4.0,-5.0,-4.0,-4.0,-4.0,-4.0,-3.0
1706277134.9647748,-9.0,-6.0,-14.0,-9.0,-6.0,-9.0,-7.0,-4.0
1706277134.9744408,0.0,-1.0,2.0,1.0,1.0,2.0,0.0,-1.0
1706277134.9744408,-1.0,-2.0,-6.0,-2.0,-2.0,-2.0,-3.0,1.0
1706277134.9944377,-2.0,-1.0,7.0,2.0,0.0,3.0,1.0,2.0
1706277134.9944377,3.0,4.0,-8.0,-17.0,-8.0,-4.0,-4.0,-1.0
1706277134.9944377,-4.0,-8.0,2.0,16.0,-1.0,-1.0,1.0,0.0
1706277134.9944377,-5.0,-6.0,-1.0,6.0,6.0,-2.0,-1.0,-2.0
1706277135.0144453,1.0,1.0,2.0,5.0,7.0,8.0,4.0,1.0
1706277135.0144453,1.0,0.0,-5.0,-4.0,-2.0,-1.0,0.0,1.0
1706277135.0144453,1.0,3.0,1.0,-10.0,-4.0,-4.0,-3.0,-2.0
1706277135.0144453,3.0,4.0,6.0,11.0,1.0,-1.0,-1.0,1.0
1706277135.0344443,-1.0,-4.0,6.0,-7.0,-4.0,0.0,1.0,-3.0
1706277135.0344443,-4.0,-5.0,-22.0,-2.0,-1.0,-1.0,-2.0,-3.0
1706277135.0344443,0.0,4.0,10.0,-1.0,-2.0,2.0,0.0,2.0
1706277135.0344443,-6.0,-9.0,-9.0,-13.0,-8.0,-2.0,-1.0,-1.0
1706277135.0644417,-4.0,-1.0,6.0,3.0,-3.0,2.0,0.0,0.0
1706277135.0644417,-2.0,-4.0,7.0,-1.0,-4.0,-14.0,-9.0,-2.0
1706277135.0644417,2.0,5.0,-8.0,2.0,5.0,13.0,7.0,2.0
1706277135.0644417,1.0,4.0,0.0,-1.0,0.0,4.0,1.0,2.0
1706277135.0744736,-6.0,-11.0,-18.0,-18.0,-8.0,-16.0,-9.0,-6.0
1706277135.0744736,1.0,1.0,4.0,15.0,8.0,17.0,8.0,4.0
1706277135.0744736,0.0,-3.0,3.0,2.0,9.0,-3.0,-1.0,-1.0
1706277135.0744736,3.0,5.0,5.0,-2.0,1.0,1.0,0.0,3.0
1706277135.0944371,3.0,4.0,0.0,-5.0,-1.0,2.0,-2.0,-1.0
1706277135.0944371,-3.0,-1.0,2.0,7.0,-8.0,-5.0,-4.0,-4.0
1706277135.0944371,-4.0,-10.0,-4.0,-2.0,7.0,1.0,-4.0,-3.0
1706277135.0944371,2.0,6.0,9.0,9.0,0.0,2.0,-1.0,-1.0
1706277135.1147053,-4.0,-5.0,2.0,1.0,2.0,0.0,-1.0,0.0
1706277135.1147053,-1.0,-6.0,-39.0,-22.0,-9.0,-5.0,-1.0,-2.0
1706277135.1250696,-3.0,-5.0,-9.0,-6.0,-8.0,-4.0,-2.0,-3.0
1706277135.1250696,-1.0,-1.0,5.0,-2.0,-4.0,-5.0,-3.0,-1.0
1706277135.1399632,-1.0,0.0,-1.0,-2.0,-2.0,3.0,2.0,1.0
1706277135.1399632,-1.0,2.0,6.0,6.0,6.0,0.0,-1.0,-2.0
1706277135.1409743,0.0,0.0,3.0,0.0,-3.0,-1.0,-1.0,0.0
1706277135.1409743,-2.0,-5.0,-9.0,-4.0,4.0,0.0,-2.0,0.0
1706277135.167116,2.0,7.0,10.0,2.0,-2.0,0.0,1.0,0.0
1706277135.167116,-3.0,-6.0,-10.0,-13.0,-1.0,-1.0,0.0,0.0
1706277135.1771107,-1.0,-2.0,10.0,0.0,-5.0,-3.0,-3.0,-2.0
1706277135.1771107,4.0,12.0,3.0,7.0,-10.0,-3.0,0.0,-1.0
1706277135.1771107,-6.0,-14.0,-26.0,-2.0,8.0,4.0,1.0,0.0
1706277135.1771107,0.0,4.0,27.0,7.0,14.0,0.0,1.0,-1.0
1706277135.1771107,-3.0,-7.0,-21.0,-5.0,-1.0,1.0,-1.0,-2.0
1706277135.1771107,0.0,1.0,8.0,-9.0,-3.0,-2.0,0.0,-1.0
1706277135.197535,0.0,3.0,-7.0,3.0,-3.0,-3.0,-4.0,-2.0
1706277135.197535,0.0,2.0,3.0,1.0,-10.0,-5.0,-3.0,-1.0
1706277135.197535,-1.0,3.0,0.0,-5.0,-8.0,-2.0,-1.0,-1.0
1706277135.197535,1.0,1.0,0.0,4.0,5.0,4.0,2.0,0.0
1706277135.2171113,1.0,2.0,10.0,1.0,0.0,2.0,2.0,0.0
1706277135.2171113,-1.0,-5.0,-4.0,-1.0,1.0,0.0,0.0,0.0
1706277135.2171113,0.0,1.0,8.0,2.0,-3.0,-5.0,0.0,2.0
1706277135.2171113,-3.0,-3.0,-12.0,-3.0,-3.0,-1.0,-1.0,-2.0
1706277135.237115,-1.0,-3.0,-1.0,-8.0,-3.0,-1.0,-2.0,-1.0
1706277135.237115,-2.0,-4.0,-10.0,3.0,-6.0,-1.0,0.0,-2.0
1706277135.237115,0.0,0.0,-1.0,0.0,3.0,0.0,1.0,-1.0
1706277135.237115,0.0,-2.0,12.0,4.0,2.0,-2.0,-2.0,0.0
1706277135.257497,-3.0,-8.0,-13.0,5.0,8.0,3.0,1.0,-1.0
1706277135.257497,0.0,-1.0,-10.0,-7.0,-4.0,-2.0,-3.0,-2.0
1706277135.257497,1.0,5.0,8.0,-4.0,-4.0,-1.0,-2.0,-2.0
1706277135.257497,0.0,-1.0,1.0,-2.0,-1.0,-4.0,-2.0,-1.0
1706277135.287488,-2.0,1.0,4.0,-8.0,-10.0,-3.0,-3.0,-3.0
1706277135.287488,-3.0,-3.0,4.0,0.0,1.0,0.0,-1.0,-1.0
1706277135.287488,0.0,0.0,-1.0,-1.0,-3.0,-1.0,0.0,-1.0
1706277135.287488,-2.0,-2.0,-7.0,-6.0,-5.0,-2.0,-3.0,-2.0
1706277135.287488,0.0,3.0,1.0,5.0,-4.0,-1.0,0.0,1.0
1706277135.287488,-1.0,-1.0,10.0,7.0,9.0,4.0,-1.0,1.0
1706277135.2974865,-1.0,-1.0,6.0,-6.0,-6.0,-2.0,-2.0,0.0
1706277135.2974865,1.0,-3.0,-23.0,3.0,1.0,1.0,1.0,-1.0
1706277135.3374865,-4.0,-5.0,4.0,-2.0,-2.0,-2.0,-2.0,-2.0
1706277135.3374865,0.0,3.0,4.0,7.0,2.0,0.0,0.0,-3.0
1706277135.3374865,-1.0,0.0,-1.0,-14.0,-4.0,-3.0,-2.0,-1.0
1706277135.3374865,-2.0,-2.0,10.0,-1.0,-4.0,-2.0,0.0,-1.0
1706277135.3374865,1.0,1.0,1.0,6.0,8.0,2.0,1.0,0.0
1706277135.3374865,-2.0,-3.0,-8.0,-1.0,-1.0,-4.0,-3.0,-2.0
1706277135.3374865,0.0,2.0,2.0,8.0,2.0,1.0,0.0,1.0
1706277135.3374865,-1.0,3.0,-2.0,-10.0,-7.0,-5.0,-4.0,-1.0
1706277135.3476748,2.0,1.0,1.0,0.0,0.0,1.0,2.0,0.0
1706277135.3476748,-2.0,-1.0,5.0,-1.0,-2.0,-1.0,-1.0,-2.0
1706277135.3577728,-5.0,-7.0,-12.0,-2.0,-2.0,-3.0,-2.0,-2.0
1706277135.3577728,-2.0,-2.0,2.0,2.0,1.0,-2.0,-3.0,0.0
1706277135.3874853,1.0,2.0,-6.0,-2.0,-1.0,3.0,1.0,5.0
1706277135.3874853,0.0,0.0,5.0,-3.0,-4.0,-3.0,-1.0,0.0
1706277135.3874853,1.0,0.0,-22.0,3.0,5.0,0.0,-1.0,0.0
1706277135.3874853,-6.0,-7.0,2.0,-5.0,-3.0,-1.0,-1.0,-3.0
1706277135.3874853,2.0,2.0,4.0,2.0,1.0,-1.0,1.0,-1.0
1706277135.3874853,-2.0,-2.0,-14.0,-11.0,-4.0,-1.0,0.0,1.0
1706277135.3975053,1.0,2.0,7.0,1.0,-1.0,0.0,-2.0,-1.0
1706277135.3975053,0.0,-4.0,5.0,1.0,0.0,-6.0,-5.0,-2.0
1706277135.4077137,-3.0,-2.0,-5.0,-2.0,-1.0,-1.0,1.0,-3.0
1706277135.4077137,0.0,1.0,1.0,1.0,4.0,9.0,4.0,-2.0
1706277135.4176483,1.0,0.0,3.0,3.0,-3.0,-4.0,-3.0,3.0
1706277135.4176483,-7.0,0.0,-6.0,-5.0,1.0,1.0,4.0,-15.0
1706277135.457488,-3.0,-4.0,-7.0,-8.0,-5.0,-8.0,-4.0,-3.0
1706277135.457488,-2.0,-5.0,-4.0,5.0,-2.0,-3.0,-4.0,-2.0
1706277135.457488,-2.0,0.0,12.0,-7.0,-3.0,0.0,1.0,-2.0
1706277135.457488,3.0,3.0,1.0,5.0,-3.0,-1.0,-1.0,4.0
1706277135.457488,-5.0,-9.0,-21.0,-23.0,-6.0,-4.0,-4.0,-3.0
1706277135.457488,-1.0,0.0,1.0,6.0,1.0,0.0,-1.0,-2.0
1706277135.4675066,0.0,3.0,11.0,8.0,1.0,2.0,-1.0,2.0
1706277135.4675066,-4.0,3.0,4.0,1.0,1.0,-1.0,-1.0,-7.0
1706277135.4675066,1.0,-2.0,1.0,1.0,-3.0,-2.0,-1.0,-2.0
1706277135.4675066,1.0,1.0,6.0,-6.0,-1.0,-2.0,0.0,2.0
1706277135.4774907,-2.0,-2.0,-11.0,-8.0,-5.0,-3.0,-1.0,-4.0
1706277135.4774907,1.0,1.0,-3.0,7.0,7.0,2.0,1.0,3.0
1706277135.497487,-4.0,-4.0,3.0,2.0,-1.0,3.0,0.0,-4.0
1706277135.497487,-3.0,-4.0,0.0,-5.0,-3.0,-3.0,-3.0,-4.0
1706277135.497487,-1.0,1.0,9.0,12.0,1.0,1.0,-1.0,-9.0
1706277135.497487,1.0,-5.0,-12.0,-17.0,-8.0,-3.0,-4.0,-1.0
1706277135.507486,5.0,9.0,18.0,6.0,2.0,4.0,0.0,1.0
1706277135.507486,-1.0,-5.0,-23.0,-4.0,-2.0,-2.0,-2.0,0.0
1706277135.517824,-6.0,-9.0,-7.0,-5.0,-1.0,-1.0,-1.0,-1.0
1706277135.517824,-1.0,-7.0,-12.0,1.0,3.0,1.0,0.0,1.0
1706277135.5274904,-3.0,3.0,26.0,4.0,-3.0,-1.0,-2.0,-3.0
1706277135.5274904,-2.0,-2.0,-7.0,-1.0,-1.0,0.0,-1.0,-1.0
1706277135.5374959,0.0,-2.0,-6.0,-3.0,1.0,-1.0,0.0,0.0
1706277135.5374959,-2.0,0.0,6.0,0.0,-3.0,-3.0,-2.0,4.0
1706277135.5576909,2.0,-2.0,-5.0,3.0,-2.0,-5.0,-1.0,7.0
1706277135.5576909,-7.0,2.0,13.0,-6.0,-1.0,-1.0,0.0,-9.0
1706277135.5576909,-3.0,3.0,-5.0,0.0,2.0,-1.0,-1.0,0.0
1706277135.5576909,3.0,-2.0,0.0,-3.0,-3.0,0.0,0.0,7.0
1706277135.567735,2.0,4.0,2.0,6.0,0.0,-1.0,-2.0,-4.0
1706277135.567735,-3.0,-12.0,-34.0,-15.0,-7.0,-5.0,-4.0,0.0
1706277135.5776942,-4.0,0.0,8.0,1.0,-1.0,-2.0,0.0,0.0
1706277135.5776942,-1.0,2.0,-1.0,-7.0,2.0,4.0,0.0,1.0
1706277135.5877295,-4.0,0.0,14.0,15.0,0.0,-2.0,-1.0,-4.0
1706277135.5877295,0.0,1.0,1.0,4.0,3.0,1.0,1.0,2.0
1706277135.5974908,0.0,-5.0,-16.0,-3.0,-1.0,0.0,0.0,1.0
1706277135.5974908,-2.0,-5.0,-1.0,-2.0,-5.0,-1.0,0.0,-1.0
1706277135.6176906,-2.0,-1.0,-8.0,-6.0,-2.0,-1.0,-1.0,-3.0
1706277135.6176906,2.0,4.0,-10.0,-9.0,-3.0,-1.0,0.0,5.0
1706277135.6176906,4.0,3.0,-2.0,1.0,-3.0,-2.0,-5.0,-7.0
1706277135.6176906,1.0,1.0,11.0,3.0,0.0,0.0,-2.0,-1.0
1706277135.6374912,-5.0,-1.0,-7.0,2.0,1.0,-2.0,-2.0,-2.0
1706277135.6374912,3.0,4.0,11.0,-6.0,-6.0,-3.0,-1.0,3.0
1706277135.6374912,3.0,-2.0,-3.0,0.0,0.0,0.0,1.0,0.0
1706277135.6374912,-8.0,-6.0,-7.0,2.0,0.0,-1.0,-2.0,-5.0
1706277135.6719725,3.0,2.0,3.0,-4.0,-1.0,0.0,2.0,1.0
1706277135.6719725,-2.0,-1.0,1.0,4.0,1.0,-1.0,-4.0,-2.0
1706277135.6719725,-1.0,-1.0,-3.0,-5.0,-1.0,0.0,1.0,1.0
1706277135.6719725,-1.0,-1.0,4.0,1.0,-2.0,-2.0,-2.0,-5.0
1706277135.679692,-3.0,-3.0,-9.0,-2.0,-2.0,-2.0,-1.0,0.0
1706277135.679692,5.0,8.0,17.0,5.0,1.0,0.0,2.0,0.0
1706277135.679692,-4.0,-6.0,-7.0,-6.0,-1.0,-1.0,0.0,-1.0
1706277135.679692,0.0,-1.0,-2.0,1.0,-1.0,-3.0,-1.0,1.0
1706277135.690113,1.0,0.0,6.0,1.0,3.0,0.0,-2.0,-3.0
1706277135.690113,-6.0,-3.0,-6.0,3.0,0.0,-1.0,-2.0,1.0
1706277135.7000809,9.0,5.0,14.0,1.0,-1.0,-1.0,-3.0,3.0
1706277135.7000809,3.0,3.0,4.0,-9.0,-4.0,-1.0,0.0,0.0
1706277135.7096937,1.0,-1.0,-10.0,-14.0,-4.0,-1.0,-2.0,-1.0
1706277135.7096937,-3.0,-4.0,7.0,9.0,4.0,-2.0,-2.0,-4.0
1706277135.7096937,-6.0,-5.0,-2.0,5.0,1.0,-2.0,-1.0,0.0
1706277135.7096937,-1.0,-2.0,-5.0,-13.0,-9.0,-3.0,-3.0,-2.0
1706277135.739697,0.0,1.0,1.0,14.0,17.0,4.0,1.0,1.0
1706277135.739697,-1.0,-6.0,-7.0,5.0,0.0,-1.0,-1.0,-3.0
1706277135.739697,-4.0,0.0,-1.0,-5.0,-6.0,-2.0,-1.0,-3.0
1706277135.739697,5.0,7.0,9.0,2.0,2.0,0.0,3.0,2.0
1706277135.7499928,-5.0,-1.0,-4.0,-15.0,-13.0,-6.0,-4.0,-4.0
1706277135.7499928,2.0,5.0,2.0,-3.0,-3.0,0.0,0.0,-3.0
1706277135.7599835,1.0,-3.0,3.0,2.0,0.0,-1.0,0.0,0.0
1706277135.7599835,-3.0,-1.0,-9.0,-3.0,-1.0,1.0,-1.0,-2.0
1706277135.7896955,1.0,2.0,6.0,3.0,1.0,1.0,-2.0,1.0
1706277135.7896955,-1.0,-6.0,8.0,-1.0,-1.0,-2.0,-1.0,-8.0
1706277135.7896955,-6.0,-6.0,-8.0,-5.0,0.0,-3.0,-2.0,-2.0
1706277135.7896955,12.0,5.0,1.0,4.0,-1.0,-3.0,-1.0,3.0
1706277135.7896955,1.0,2.0,-5.0,-1.0,-2.0,-1.0,-2.0,0.0
1706277135.7896955,0.0,1.0,2.0,-10.0,-7.0,-2.0,-2.0,2.0
1706277135.7996912,-2.0,-3.0,3.0,14.0,10.0,2.0,-1.0,0.0
1706277135.7996912,-5.0,-6.0,-20.0,-15.0,-2.0,0.0,-1.0,-2.0
1706277135.8097622,-4.0,-3.0,13.0,25.0,10.0,1.0,1.0,1.0
1706277135.8097622,-3.0,-8.0,-15.0,-17.0,-5.0,-3.0,-4.0,-2.0
1706277135.820003,0.0,2.0,8.0,6.0,-7.0,-3.0,-2.0,0.0
1706277135.820003,-4.0,-5.0,-8.0,4.0,14.0,2.0,0.0,0.0
1706277135.8396916,0.0,-5.0,-7.0,-20.0,-17.0,-7.0,-2.0,-1.0
1706277135.8396916,-2.0,3.0,20.0,15.0,13.0,6.0,2.0,1.0
1706277135.8396916,0.0,-2.0,-11.0,-11.0,-5.0,-2.0,0.0,-1.0
1706277135.8396916,-3.0,0.0,15.0,9.0,0.0,-2.0,-2.0,-1.0
1706277135.8596964,1.0,-5.0,-22.0,-15.0,-7.0,-3.0,-2.0,-2.0
1706277135.8596964,-2.0,-10.0,-5.0,7.0,3.0,-1.0,-2.0,0.0
1706277135.8596964,0.0,6.0,-5.0,-19.0,-12.0,0.0,-2.0,1.0
1706277135.8596964,-1.0,-2.0,19.0,17.0,8.0,2.0,2.0,0.0
1706277135.8697672,-3.0,-5.0,-19.0,4.0,11.0,3.0,1.0,-1.0
1706277135.8697672,0.0,4.0,1.0,4.0,-4.0,-4.0,-1.0,0.0
1706277135.8996913,3.0,0.0,-25.0,-9.0,5.0,1.0,0.0,-1.0
1706277135.8996913,-2.0,3.0,-14.0,-22.0,-17.0,-4.0,-2.0,-4.0
1706277135.8996913,0.0,9.0,30.0,2.0,-6.0,-1.0,-1.0,-1.0
1706277135.8996913,-7.0,-23.0,-31.0,5.0,-4.0,1.0,0.0,-1.0
1706277135.8996913,0.0,-3.0,12.0,2.0,3.0,0.0,0.0,1.0
1706277135.8996913,2.0,12.0,5.0,-4.0,-6.0,-5.0,-3.0,-3.0
1706277135.919696,-3.0,7.0,-13.0,-14.0,-5.0,-4.0,-1.0,-4.0
1706277135.919696,-2.0,2.0,2.0,-7.0,0.0,0.0,0.0,-1.0
1706277135.919696,-1.0,14.0,7.0,4.0,-2.0,-2.0,-1.0,-2.0
1706277135.919696,3.0,4.0,3.0,5.0,1.0,1.0,0.0,1.0
1706277135.9396942,-4.0,-8.0,-2.0,-14.0,-3.0,2.0,1.0,2.0
1706277135.9396942,-1.0,2.0,1.0,1.0,-12.0,-7.0,-5.0,-3.0
1706277135.9396942,-5.0,-12.0,-11.0,0.0,-1.0,-5.0,-4.0,-4.0
1706277135.9396942,-4.0,-1.0,1.0,-1.0,2.0,6.0,4.0,-1.0
1706277135.949726,0.0,-3.0,17.0,17.0,11.0,-1.0,-1.0,0.0
1706277135.949726,0.0,9.0,-2.0,1.0,1.0,1.0,-1.0,0.0
1706277135.9600546,-3.0,1.0,8.0,-2.0,-3.0,-4.0,-1.0,-2.0
1706277135.9600546,-1.0,-8.0,-30.0,-18.0,-14.0,-7.0,-4.0,-3.0
1706277135.9796944,1.0,0.0,7.0,8.0,-3.0,-2.0,-3.0,-1.0
1706277135.9796944,-3.0,-5.0,6.0,1.0,9.0,4.0,2.0,0.0
1706277135.9796944,4.0,14.0,8.0,3.0,-1.0,2.0,1.0,1.0
1706277135.9796944,-9.0,-17.0,-3.0,4.0,-1.0,-3.0,-3.0,-4.0
1706277135.9996917,-2.0,-16.0,-16.0,-17.0,-17.0,-5.0,-2.0,-1.0
1706277135.9996917,6.0,6.0,31.0,23.0,21.0,7.0,5.0,4.0
1706277135.9996917,-7.0,-16.0,-53.0,-21.0,-11.0,-5.0,-5.0,-7.0
1706277135.9996917,-6.0,-10.0,6.0,1.0,0.0,-2.0,-2.0,-1.0
1706277136.0096953,0.0,5.0,-6.0,-8.0,-6.0,-2.0,-1.0,-2.0
1706277136.0096953,2.0,5.0,8.0,-8.0,-8.0,-3.0,-3.0,-1.0
1706277136.0199256,-2.0,-11.0,4.0,4.0,3.0,1.0,-1.0,0.0
1706277136.0199256,3.0,9.0,1.0,-1.0,1.0,1.0,0.0,1.0
1706277136.039697,-1.0,-5.0,2.0,5.0,1.0,-3.0,-1.0,-2.0
1706277136.039697,4.0,8.0,-8.0,-5.0,3.0,2.0,0.0,1.0
1706277136.039697,-8.0,-10.0,11.0,0.0,0.0,-1.0,0.0,0.0
1706277136.039697,-1.0,-6.0,-16.0,14.0,11.0,5.0,1.0,-1.0
1706277136.0697346,2.0,6.0,5.0,3.0,2.0,2.0,-1.0,1.0
1706277136.0697346,-3.0,-2.0,-5.0,-11.0,-12.0,-5.0,-3.0,-4.0
1706277136.0697346,2.0,4.0,8.0,-2.0,-3.0,-1.0,1.0,-3.0
1706277136.0697346,-3.0,-2.0,0.0,-1.0,-2.0,-2.0,-1.0,0.0
1706277136.0697346,1.0,-5.0,-7.0,1.0,0.0,-2.0,-2.0,-2.0
1706277136.0697346,-2.0,0.0,-21.0,-34.0,-11.0,-1.0,-1.0,-2.0
1706277136.079932,1.0,3.0,17.0,12.0,6.0,-1.0,-2.0,0.0
1706277136.079932,2.0,1.0,-9.0,10.0,-5.0,-2.0,0.0,0.0
1706277136.0903466,-10.0,-11.0,0.0,-13.0,-4.0,0.0,0.0,-4.0
1706277136.0903466,3.0,-1.0,3.0,22.0,14.0,2.0,1.0,0.0
1706277136.0999632,-2.0,-2.0,-1.0,-2.0,-5.0,-2.0,-1.0,-1.0
1706277136.0999632,4.0,6.0,8.0,13.0,6.0,1.0,1.0,3.0
1706277136.119961,-2.0,-3.0,-3.0,-2.0,10.0,0.0,-4.0,-3.0
1706277136.119961,-2.0,-5.0,17.0,-2.0,-9.0,-4.0,-2.0,-1.0
1706277136.119961,1.0,-2.0,-10.0,-7.0,-6.0,0.0,0.0,1.0
1706277136.119961,-3.0,0.0,7.0,-7.0,-5.0,-3.0,-2.0,-2.0
1706277136.1303277,1.0,0.0,-16.0,1.0,-2.0,-1.0,1.0,0.0
1706277136.1303277,-1.0,4.0,21.0,8.0,2.0,0.0,1.0,2.0
1706277136.140332,2.0,1.0,-22.0,-4.0,4.0,1.0,1.0,-1.0
1706277136.140332,-8.0,-17.0,-32.0,-25.0,-12.0,-5.0,-5.0,-2.0
1706277136.1599605,0.0,1.0,10.0,12.0,5.0,4.0,3.0,2.0
1706277136.1599605,-6.0,-20.0,-25.0,-8.0,-8.0,-8.0,-7.0,-4.0
1706277136.1599605,0.0,3.0,15.0,8.0,6.0,3.0,1.0,1.0
1706277136.1599605,1.0,3.0,6.0,-5.0,-3.0,-2.0,-1.0,0.0
1706277136.1820323,2.0,-6.0,-19.0,-6.0,-4.0,-4.0,-1.0,1.0
1706277136.1820323,-4.0,0.0,0.0,-1.0,-5.0,-1.0,-2.0,-9.0
1706277136.1830263,-1.0,3.0,8.0,4.0,-2.0,-2.0,1.0,2.0
1706277136.1830263,-2.0,-2.0,1.0,2.0,6.0,2.0,0.0,-2.0
1706277136.1960187,-1.0,7.0,27.0,7.0,1.0,1.0,0.0,2.0
1706277136.1960187,3.0,7.0,-21.0,-8.0,-5.0,-3.0,-2.0,-2.0
1706277136.204691,-3.0,-6.0,-4.0,-7.0,-2.0,-1.0,-1.0,0.0
1706277136.204691,-6.0,-2.0,11.0,-6.0,2.0,2.0,-1.0,-4.0
1706277136.242497,-2.0,-1.0,-6.0,12.0,-1.0,-3.0,-1.0,-2.0
1706277136.242497,1.0,0.0,-7.0,-9.0,-2.0,-2.0,-1.0,0.0
1706277136.242497,-3.0,-12.0,-7.0,1.0,-3.0,-1.0,-2.0,-2.0
1706277136.242497,-1.0,0.0,4.0,5.0,3.0,-1.0,2.0,-2.0
1706277136.242497,2.0,1.0,0.0,-8.0,-5.0,0.0,-2.0,-1.0
1706277136.242497,0.0,1.0,15.0,1.0,1.0,0.0,1.0,2.0
1706277136.242497,-1.0,-7.0,0.0,-8.0,-2.0,-4.0,-2.0,0.0
1706277136.242497,0.0,2.0,-5.0,2.0,4.0,2.0,1.0,-1.0
1706277136.2526503,-3.0,0.0,4.0,-3.0,-4.0,-5.0,-3.0,-3.0
1706277136.2526503,4.0,14.0,8.0,-1.0,-3.0,-2.0,0.0,1.0
1706277136.2626595,-1.0,0.0,0.0,-4.0,1.0,-1.0,0.0,-3.0
1706277136.2626595,-1.0,1.0,4.0,0.0,-4.0,-2.0,-1.0,-1.0
1706277136.2825031,2.0,1.0,-8.0,-5.0,-1.0,-3.0,1.0,-1.0
1706277136.2825031,-1.0,-4.0,-5.0,3.0,-2.0,-2.0,-1.0,1.0
1706277136.2825031,-3.0,4.0,10.0,3.0,2.0,1.0,-1.0,-2.0
1706277136.2825031,6.0,6.0,-1.0,8.0,0.0,1.0,0.0,1.0
1706277136.3024929,-3.0,-5.0,5.0,-2.0,0.0,1.0,0.0,-1.0
1706277136.3024929,-2.0,-4.0,-13.0,-11.0,-4.0,-2.0,-1.0,1.0
1706277136.3024929,-1.0,-5.0,1.0,7.0,3.0,0.0,-2.0,1.0
1706277136.3024929,-7.0,-1.0,-11.0,-7.0,-4.0,-3.0,-5.0,-10.0
1706277136.3128533,2.0,4.0,4.0,1.0,0.0,-1.0,1.0,2.0
1706277136.3128533,-5.0,-1.0,-1.0,-4.0,2.0,2.0,1.0,-1.0
1706277136.3228667,4.0,2.0,1.0,5.0,-2.0,-1.0,-1.0,1.0
1706277136.3228667,5.0,5.0,9.0,-8.0,-6.0,-4.0,-1.0,3.0
1706277136.3428648,-2.0,-8.0,-23.0,-9.0,-9.0,-1.0,-2.0,-2.0
1706277136.3428648,-5.0,-6.0,-8.0,8.0,8.0,2.0,0.0,-1.0
1706277136.3428648,-5.0,-2.0,1.0,-5.0,-6.0,-3.0,-3.0,-3.0
1706277136.3428648,3.0,0.0,-10.0,-26.0,-15.0,-5.0,-1.0,3.0
1706277136.3532264,-1.0,7.0,19.0,49.0,29.0,5.0,-1.0,-2.0
1706277136.3532264,0.0,-9.0,-5.0,-17.0,-13.0,-2.0,-1.0,1.0
1706277136.3628664,2.0,8.0,-9.0,3.0,1.0,1.0,-1.0,0.0
1706277136.3628664,2.0,2.0,11.0,1.0,6.0,2.0,1.0,4.0
1706277136.3732333,-6.0,-5.0,-27.0,-17.0,-14.0,-6.0,-3.0,-2.0
1706277136.3732333,-2.0,-3.0,2.0,15.0,4.0,0.0,-2.0,-2.0
1706277136.3828654,2.0,6.0,-5.0,-15.0,-2.0,-1.0,1.0,0.0
1706277136.3828654,-6.0,-9.0,13.0,-10.0,-9.0,-4.0,-3.0,-4.0
1706277136.392865,-1.0,5.0,2.0,1.0,4.0,4.0,2.0,-1.0
1706277136.392865,-1.0,-4.0,-3.0,-4.0,1.0,-1.0,0.0,-1.0
1706277136.392865,1.0,-2.0,7.0,2.0,-2.0,2.0,1.0,1.0
1706277136.392865,2.0,10.0,-6.0,10.0,1.0,-3.0,-2.0,0.0
1706277136.413258,-2.0,-11.0,9.0,-7.0,2.0,1.0,0.0,-1.0
1706277136.413258,3.0,1.0,-6.0,8.0,0.0,0.0,0.0,0.0
1706277136.4230819,-1.0,-4.0,16.0,11.0,2.0,-2.0,-2.0,-1.0
1706277136.4230819,-1.0,1.0,-5.0,-7.0,-2.0,-3.0,-1.0,0.0
1706277136.4332829,-4.0,-16.0,-14.0,-5.0,0.0,-3.0,-3.0,-1.0
1706277136.4332829,9.0,11.0,12.0,0.0,-1.0,1.0,1.0,3.0
1706277136.4428654,-1.0,-3.0,-1.0,4.0,3.0,0.0,-2.0,-2.0
1706277136.4428654,-9.0,-14.0,-22.0,1.0,-4.0,-2.0,-2.0,-5.0
1706277136.4528651,5.0,15.0,10.0,-15.0,-4.0,0.0,0.0,0.0
1706277136.4528651,-4.0,-7.0,-5.0,2.0,-2.0,-5.0,-4.0,-3.0
1706277136.4528651,6.0,6.0,-2.0,1.0,6.0,0.0,1.0,3.0
1706277136.4528651,-8.0,-6.0,6.0,9.0,4.0,0.0,0.0,-3.0
1706277136.4732957,-3.0,0.0,-4.0,-9.0,-8.0,-5.0,-4.0,-5.0
1706277136.4732957,-2.0,1.0,1.0,-9.0,-8.0,-7.0,-1.0,-1.0
1706277136.4828682,-1.0,-2.0,9.0,12.0,3.0,2.0,0.0,-1.0
1706277136.4828682,8.0,7.0,5.0,0.0,1.0,6.0,2.0,8.0
1706277136.49329,-5.0,-4.0,-18.0,-12.0,-3.0,-1.0,-1.0,-5.0
1706277136.49329,4.0,-5.0,-1.0,-2.0,-2.0,-3.0,-4.0,-3.0
1706277136.512865,-3.0,6.0,2.0,-2.0,-4.0,-5.0,-2.0,1.0
1706277136.512865,-10.0,-17.0,-38.0,-6.0,-2.0,-4.0,-4.0,-2.0
1706277136.5232606,0.0,2.0,16.0,5.0,-6.0,-3.0,-4.0,0.0
1706277136.5232606,-1.0,10.0,7.0,5.0,9.0,5.0,1.0,-1.0
1706277136.5232606,1.0,-3.0,-12.0,-13.0,1.0,-2.0,-3.0,-1.0
1706277136.5232606,4.0,10.0,20.0,12.0,6.0,4.0,0.0,0.0
1706277136.5332377,-3.0,0.0,0.0,-3.0,-2.0,3.0,3.0,3.0
1706277136.5332377,0.0,-1.0,-3.0,-4.0,-4.0,-3.0,-1.0,-1.0
1706277136.5428674,-11.0,-19.0,-3.0,4.0,2.0,2.0,2.0,-4.0
1706277136.5428674,0.0,0.0,2.0,-2.0,-4.0,-7.0,-4.0,-4.0
1706277136.552864,6.0,11.0,8.0,1.0,-2.0,-3.0,-4.0,-3.0
1706277136.552864,-6.0,-5.0,7.0,-3.0,-1.0,2.0,-1.0,-1.0
1706277136.5631075,-10.0,-5.0,-17.0,-11.0,-10.0,-7.0,-4.0,-4.0
1706277136.5631075,-3.0,-7.0,-27.0,-6.0,2.0,-4.0,-3.0,-2.0
1706277136.573163,3.0,5.0,5.0,-1.0,-1.0,-1.0,-1.0,1.0
1706277136.573163,-5.0,-5.0,-3.0,-3.0,-1.0,-3.0,-3.0,-6.0
1706277136.573163,1.0,2.0,-19.0,4.0,0.0,3.0,2.0,0.0
1706277136.573163,-3.0,-3.0,5.0,-19.0,-13.0,-6.0,-3.0,-5.0
1706277136.593185,5.0,3.0,1.0,12.0,8.0,-6.0,-2.0,-1.0
1706277136.593185,-7.0,3.0,-3.0,0.0,1.0,3.0,5.0,2.0
1706277136.6028717,2.0,-2.0,6.0,-3.0,-3.0,3.0,3.0,4.0
1706277136.6028717,9.0,-2.0,8.0,-1.0,-4.0,-1.0,-2.0,-5.0
1706277136.6128645,-3.0,-1.0,3.0,3.0,-2.0,-5.0,-5.0,-1.0
1706277136.6128645,1.0,-2.0,-2.0,-7.0,-4.0,-6.0,-4.0,1.0
1706277136.6228974,-8.0,3.0,4.0,-3.0,-6.0,-5.0,-4.0,-10.0
1706277136.6228974,1.0,3.0,10.0,10.0,6.0,4.0,2.0,4.0
1706277136.63328,-1.0,0.0,2.0,25.0,-5.0,0.0,1.0,0.0
1706277136.63328,-5.0,-2.0,-1.0,-27.0,-5.0,-2.0,0.0,-3.0
1706277136.63328,-1.0,-2.0,-8.0,-10.0,-7.0,-13.0,-6.0,-5.0
1706277136.63328,-5.0,-8.0,-5.0,-4.0,-5.0,-9.0,-9.0,-4.0
1706277136.6528652,-3.0,0.0,3.0,-1.0,3.0,13.0,9.0,1.0
1706277136.6528652,9.0,-2.0,-6.0,-4.0,-4.0,3.0,1.0,18.0
1706277136.662866,2.0,6.0,8.0,5.0,6.0,0.0,1.0,0.0
1706277136.662866,14.0,16.0,5.0,11.0,-2.0,-10.0,-2.0,20.0
1706277136.6728654,-23.0,-39.0,-32.0,-15.0,-4.0,-5.0,-3.0,-3.0
1706277136.6728654,19.0,14.0,20.0,14.0,1.0,3.0,-1.0,2.0
1706277136.6831257,0.0,4.0,3.0,-6.0,0.0,-2.0,-3.0,2.0
1706277136.6831257,4.0,7.0,13.0,40.0,13.0,6.0,5.0,3.0
1706277136.6931627,-1.0,2.0,14.0,-19.0,-3.0,0.0,0.0,4.0
1706277136.6931627,-1.0,-4.0,-26.0,-37.0,-2.0,-2.0,2.0,-3.0
1706277136.6931627,-4.0,-10.0,3.0,3.0,-3.0,-2.0,-3.0,-2.0
1706277136.6931627,-5.0,-7.0,-10.0,-8.0,-3.0,3.0,1.0,-6.0
1706277136.7225485,8.0,21.0,11.0,12.0,4.0,4.0,0.0,-1.0
1706277136.7225485,-12.0,-5.0,5.0,8.0,-3.0,-10.0,-7.0,-10.0
1706277136.7244914,3.0,4.0,0.0,-5.0,-6.0,0.0,2.0,-2.0
1706277136.7244914,-9.0,-12.0,-7.0,-4.0,5.0,6.0,1.0,-3.0
1706277136.7450833,-1.0,23.0,10.0,0.0,-2.0,-7.0,-5.0,-3.0
1706277136.7450833,-7.0,-18.0,-13.0,2.0,-2.0,0.0,-1.0,-3.0
1706277136.7450833,10.0,27.0,-6.0,-6.0,-12.0,-2.0,-1.0,3.0
1706277136.7450833,-4.0,-4.0,7.0,4.0,11.0,6.0,2.0,-3.0
1706277136.7551143,6.0,1.0,8.0,4.0,11.0,7.0,5.0,2.0
1706277136.7551143,1.0,-2.0,-15.0,4.0,-1.0,0.0,1.0,-4.0
1706277136.7551143,-1.0,-6.0,-1.0,2.0,2.0,0.0,-2.0,-1.0
1706277136.7551143,-5.0,-2.0,8.0,-15.0,-14.0,-9.0,-4.0,-8.0
1706277136.785084,-1.0,-3.0,11.0,-3.0,-7.0,-2.0,-1.0,-3.0
1706277136.785084,-13.0,-8.0,5.0,10.0,-1.0,-5.0,-4.0,-6.0
1706277136.785084,4.0,-8.0,-27.0,1.0,12.0,7.0,0.0,2.0
1706277136.785084,-2.0,7.0,3.0,0.0,2.0,3.0,2.0,-1.0
1706277136.7952628,3.0,-1.0,37.0,9.0,-1.0,0.0,-2.0,0.0
1706277136.7952628,-2.0,-8.0,-5.0,-11.0,-5.0,-2.0,0.0,1.0
1706277136.7952628,-5.0,-6.0,13.0,-14.0,-21.0,-8.0,-3.0,-2.0
1706277136.7952628,-2.0,-4.0,-4.0,45.0,21.0,7.0,2.0,-2.0
1706277136.8154447,1.0,-2.0,7.0,15.0,13.0,9.0,4.0,3.0
1706277136.8154447,0.0,9.0,6.0,-22.0,-8.0,-7.0,-6.0,-5.0
1706277136.8154447,1.0,0.0,0.0,4.0,0.0,1.0,1.0,2.0
1706277136.8154447,-6.0,-11.0,-10.0,-35.0,-16.0,-7.0,-5.0,-8.0
1706277136.8350866,-8.0,-16.0,-25.0,-20.0,-11.0,-4.0,0.0,6.0
1706277136.8350866,2.0,6.0,-5.0,12.0,5.0,-2.0,-8.0,-3.0
1706277136.8350866,5.0,7.0,-13.0,3.0,2.0,6.0,3.0,0.0
1706277136.8350866,-5.0,1.0,6.0,-2.0,-10.0,-27.0,-25.0,-9.0
1706277136.8554144,1.0,-1.0,-18.0,4.0,7.0,22.0,16.0,16.0
1706277136.8554144,7.0,7.0,2.0,0.0,0.0,2.0,-1.0,0.0
1706277136.8554144,-8.0,-12.0,21.0,8.0,5.0,2.0,1.0,1.0
1706277136.8554144,0.0,0.0,-12.0,-6.0,-6.0,-12.0,-2.0,5.0
1706277136.8755002,-4.0,-6.0,-20.0,-19.0,-13.0,-25.0,-17.0,-14.0
1706277136.8755002,-3.0,3.0,11.0,15.0,10.0,22.0,3.0,2.0
1706277136.8755002,2.0,0.0,4.0,3.0,6.0,-5.0,-2.0,3.0
1706277136.8755002,14.0,2.0,12.0,-1.0,2.0,9.0,22.0,29.0
1706277136.8955243,-8.0,14.0,-22.0,-12.0,-11.0,-9.0,12.0,50.0
1706277136.8955243,14.0,-40.0,1.0,7.0,3.0,4.0,6.0,-9.0
1706277136.8955243,0.0,10.0,13.0,-4.0,-6.0,-12.0,-19.0,-12.0
1706277136.8955243,8.0,-5.0,12.0,0.0,-1.0,8.0,-2.0,-6.0
1706277136.9157488,-2.0,-2.0,-13.0,-10.0,-8.0,-22.0,-13.0,-17.0
1706277136.9157488,-9.0,2.0,6.0,11.0,5.0,3.0,4.0,10.0
1706277136.9254823,1.0,-3.0,15.0,7.0,2.0,11.0,1.0,-12.0
1706277136.9254823,-3.0,1.0,-10.0,3.0,-10.0,-2.0,6.0,6.0
1706277136.9355528,-1.0,-4.0,-2.0,-2.0,4.0,0.0,-7.0,-17.0
1706277136.9355528,-13.0,-3.0,-10.0,10.0,10.0,-6.0,-5.0,-12.0
1706277136.9654765,-4.0,7.0,32.0,-3.0,-11.0,-7.0,-1.0,-10.0
1706277136.9654765,11.0,31.0,30.0,71.0,66.0,36.0,15.0,9.0
1706277136.9654765,-6.0,-23.0,-32.0,-49.0,-19.0,4.0,0.0,-14.0
1706277136.9654765,-5.0,-2.0,-39.0,-2.0,-28.0,-13.0,-6.0,-1.0
1706277136.9654765,1.0,14.0,11.0,12.0,16.0,-5.0,1.0,8.0
1706277136.9654765,-6.0,-8.0,9.0,-5.0,-16.0,-6.0,-9.0,-11.0
1706277136.9758058,-5.0,4.0,8.0,9.0,-22.0,-13.0,-13.0,-15.0
1706277136.9758058,4.0,13.0,33.0,0.0,26.0,14.0,8.0,9.0
1706277136.9854772,0.0,-13.0,-27.0,-45.0,-18.0,-10.0,0.0,1.0
1706277136.9854772,-8.0,-5.0,-19.0,25.0,8.0,0.0,-5.0,-14.0
1706277137.0054767,13.0,4.0,4.0,-14.0,-7.0,2.0,1.0,-3.0
1706277137.0054767,-17.0,2.0,0.0,-11.0,-20.0,-16.0,-8.0,-6.0
1706277137.0054767,-6.0,-19.0,-20.0,11.0,10.0,10.0,3.0,-1.0
1706277137.0054767,-1.0,-3.0,1.0,-25.0,-12.0,-2.0,1.0,2.0
1706277137.015479,1.0,7.0,0.0,-12.0,0.0,7.0,2.0,1.0
1706277137.015479,5.0,11.0,7.0,8.0,-5.0,6.0,3.0,2.0
1706277137.015479,2.0,5.0,-1.0,44.0,27.0,16.0,15.0,5.0
1706277137.015479,-9.0,-22.0,-19.0,-16.0,-7.0,-22.0,-10.0,-6.0
1706277137.0358694,10.0,15.0,5.0,-23.0,-6.0,11.0,3.0,2.0
1706277137.0358694,-1.0,-4.0,-4.0,19.0,25.0,9.0,3.0,-2.0
1706277137.045512,-7.0,-3.0,2.0,-14.0,-13.0,-4.0,0.0,-2.0
1706277137.045512,-3.0,4.0,-1.0,-11.0,-15.0,-23.0,-16.0,-6.0
1706277137.0654762,-4.0,-9.0,-29.0,19.0,11.0,2.0,2.0,-9.0
1706277137.0654762,8.0,8.0,-8.0,-23.0,-9.0,-4.0,-3.0,-1.0
1706277137.0654762,-10.0,-7.0,3.0,2.0,-7.0,-7.0,-5.0,0.0
1706277137.0654762,2.0,6.0,-7.0,13.0,6.0,3.0,-9.0,-1.0
1706277137.075809,-2.0,-3.0,-11.0,-22.0,-3.0,-9.0,-7.0,-3.0
1706277137.075809,-2.0,-7.0,10.0,-2.0,-7.0,6.0,11.0,4.0
1706277137.0858026,-1.0,-8.0,-12.0,-2.0,8.0,1.0,-1.0,-3.0
1706277137.0858026,3.0,2.0,1.0,-7.0,-7.0,-1.0,-2.0,-2.0
1706277137.0954785,-11.0,-10.0,8.0,11.0,0.0,-4.0,-6.0,-2.0
1706277137.0954785,0.0,1.0,0.0,9.0,12.0,27.0,14.0,6.0
1706277137.105517,1.0,-4.0,-3.0,-10.0,-5.0,-4.0,-5.0,0.0
1706277137.105517,-6.0,-1.0,5.0,-17.0,-4.0,2.0,5.0,-1.0
1706277137.1155553,7.0,-5.0,-6.0,13.0,7.0,-4.0,-4.0,1.0
1706277137.1155553,-2.0,3.0,22.0,5.0,-5.0,-15.0,-8.0,-4.0
1706277137.1254761,-4.0,1.0,-20.0,-7.0,-4.0,-2.0,-2.0,-2.0
1706277137.1254761,0.0,-1.0,-3.0,-14.0,-10.0,-11.0,-5.0,-1.0
1706277137.1356938,-2.0,-6.0,-1.0,14.0,13.0,13.0,7.0,3.0
1706277137.1356938,1.0,-6.0,-9.0,-6.0,-7.0,-11.0,-9.0,-7.0
1706277137.1356938,1.0,1.0,1.0,-12.0,-7.0,-2.0,0.0,-2.0
1706277137.1356938,-6.0,-11.0,-14.0,-12.0,-14.0,-9.0,-3.0,-3.0
1706277137.155755,4.0,15.0,23.0,11.0,11.0,4.0,-1.0,-2.0
1706277137.155755,-3.0,-7.0,-20.0,0.0,6.0,-5.0,-2.0,-1.0
1706277137.1654835,4.0,7.0,25.0,9.0,-10.0,-4.0,-1.0,4.0
1706277137.1654835,-4.0,-8.0,-40.0,-74.0,-18.0,3.0,1.0,-3.0
1706277137.1954777,-7.0,-11.0,6.0,33.0,16.0,1.0,-2.0,-2.0
1706277137.1954777,3.0,7.0,-2.0,14.0,5.0,2.0,-1.0,2.0
1706277137.205475,-4.0,-1.0,13.0,-4.0,-3.0,-8.0,-5.0,-5.0
1706277137.205475,-21.0,-22.0,-14.0,-6.0,-3.0,6.0,6.0,-6.0
1706277137.205475,4.0,8.0,4.0,4.0,-7.0,-2.0,2.0,-5.0
1706277137.205475,-1.0,-5.0,-6.0,-46.0,-30.0,-21.0,-10.0,-2.0
1706277137.205475,8.0,17.0,1.0,14.0,5.0,2.0,-4.0,-4.0
1706277137.205475,-1.0,10.0,19.0,71.0,28.0,9.0,5.0,3.0
1706277137.2354794,-2.0,-7.0,-18.0,-54.0,-30.0,-12.0,-4.0,-2.0
1706277137.2354794,-2.0,-2.0,13.0,61.0,18.0,2.0,-2.0,-5.0
1706277137.2354794,0.0,-9.0,-7.0,-95.0,-35.0,-11.0,-2.0,1.0
1706277137.2354794,12.0,59.0,45.0,89.0,33.0,14.0,4.0,0.0
1706277137.2354794,-4.0,-16.0,-21.0,0.0,3.0,-5.0,-2.0,-2.0
1706277137.2354794,2.0,8.0,8.0,-19.0,-7.0,-4.0,-1.0,1.0
1706277137.245913,-11.0,-49.0,8.0,6.0,-9.0,3.0,0.0,-1.0
1706277137.245913,-1.0,-9.0,-31.0,-23.0,-4.0,-8.0,-8.0,-7.0
1706277137.2693079,2.0,-5.0,-4.0,10.0,13.0,7.0,3.0,2.0
1706277137.2693079,1.0,13.0,36.0,-12.0,-7.0,-3.0,1.0,-1.0
1706277137.2706213,-8.0,-15.0,-24.0,10.0,16.0,6.0,2.0,0.0
1706277137.2706213,3.0,-7.0,10.0,-14.0,-2.0,8.0,7.0,17.0
1706277137.2881243,-7.0,-10.0,8.0,25.0,5.0,1.0,0.0,-4.0
1706277137.2881243,-7.0,-5.0,-23.0,-19.0,-10.0,-8.0,-2.0,-2.0
1706277137.2881243,5.0,16.0,-4.0,20.0,14.0,6.0,0.0,0.0
1706277137.2881243,2.0,-4.0,6.0,-10.0,-7.0,3.0,2.0,1.0
1706277137.2985063,3.0,-4.0,-1.0,-16.0,-9.0,-3.0,-4.0,1.0
1706277137.2985063,-2.0,-4.0,1.0,5.0,2.0,-2.0,-1.0,4.0
1706277137.2985063,-8.0,9.0,-9.0,8.0,-5.0,-22.0,-17.0,-8.0
1706277137.2985063,4.0,-5.0,1.0,-9.0,3.0,9.0,12.0,10.0
1706277137.318584,7.0,10.0,6.0,3.0,-5.0,1.0,-7.0,-15.0
1706277137.318584,2.0,-4.0,-13.0,-4.0,6.0,4.0,9.0,9.0
1706277137.318584,-1.0,-13.0,-10.0,3.0,-5.0,-4.0,-9.0,-21.0
1706277137.318584,4.0,13.0,16.0,-18.0,-19.0,-24.0,-12.0,-13.0
1706277137.3485947,-2.0,12.0,36.0,13.0,2.0,-7.0,-8.0,8.0
1706277137.3485947,12.0,29.0,6.0,1.0,2.0,12.0,6.0,-1.0
1706277137.3485947,4.0,-22.0,-8.0,-5.0,4.0,10.0,16.0,18.0
1706277137.3485947,2.0,18.0,30.0,7.0,-4.0,4.0,7.0,9.0
1706277137.3585958,-18.0,-43.0,-11.0,-4.0,4.0,-1.0,-9.0,-18.0
1706277137.3585958,-6.0,-18.0,-4.0,-6.0,-3.0,-9.0,-9.0,-4.0
1706277137.3585958,11.0,32.0,20.0,23.0,22.0,50.0,27.0,17.0
1706277137.3585958,-5.0,-8.0,-15.0,-4.0,-3.0,8.0,3.0,-8.0
1706277137.3789873,-7.0,1.0,-14.0,-11.0,-10.0,-10.0,-6.0,0.0
1706277137.3789873,1.0,10.0,9.0,-1.0,-6.0,-2.0,-1.0,-3.0
1706277137.3789873,-10.0,-19.0,-44.0,2.0,6.0,-8.0,-7.0,-7.0
1706277137.3789873,2.0,-8.0,-7.0,-28.0,-30.0,-15.0,-9.0,-4.0
1706277137.3985934,-1.0,8.0,-7.0,-9.0,12.0,11.0,7.0,3.0
1706277137.3985934,-2.0,-11.0,-4.0,-3.0,0.0,-4.0,-6.0,-2.0
1706277137.3985934,-9.0,7.0,-6.0,25.0,-2.0,-18.0,-14.0,-12.0
1706277137.3985934,-3.0,-5.0,7.0,49.0,28.0,14.0,3.0,-1.0
1706277137.4086208,4.0,6.0,-16.0,-17.0,0.0,-5.0,2.0,5.0
1706277137.4086208,-11.0,-17.0,5.0,9.0,14.0,5.0,-1.0,-5.0
1706277137.4188612,1.0,0.0,-2.0,-37.0,-12.0,-9.0,-3.0,3.0
1706277137.4188612,-3.0,-4.0,-12.0,-25.0,-23.0,-14.0,-9.0,-2.0
1706277137.4389975,5.0,5.0,-4.0,29.0,14.0,21.0,11.0,6.0
1706277137.4389975,2.0,1.0,-22.0,-10.0,-24.0,-25.0,-14.0,-5.0
1706277137.4486942,7.0,11.0,-7.0,8.0,14.0,53.0,29.0,8.0
1706277137.4486942,-4.0,-6.0,3.0,-4.0,11.0,15.0,6.0,4.0
1706277137.458735,6.0,0.0,17.0,-9.0,-28.0,-23.0,-9.0,1.0
1706277137.458735,-3.0,-4.0,-12.0,-8.0,5.0,11.0,10.0,2.0
1706277137.458735,-3.0,5.0,15.0,18.0,4.0,-18.0,-10.0,-4.0
1706277137.458735,-5.0,-15.0,-17.0,-22.0,-5.0,-10.0,-9.0,-10.0
1706277137.4691224,6.0,7.0,4.0,9.0,4.0,7.0,9.0,6.0
1706277137.4691224,-5.0,0.0,-9.0,1.0,-1.0,-2.0,-2.0,-3.0
1706277137.4794884,-11.0,-6.0,7.0,-2.0,-1.0,-12.0,-8.0,-2.0
1706277137.4794884,-3.0,-4.0,-7.0,-3.0,1.0,6.0,4.0,1.0
1706277137.499562,-3.0,-6.0,-3.0,-14.0,-11.0,-10.0,-6.0,-3.0
1706277137.499562,5.0,9.0,14.0,16.0,8.0,1.0,-3.0,-2.0
1706277137.499562,-2.0,13.0,7.0,-16.0,-24.0,-10.0,-4.0,1.0
1706277137.499562,-1.0,2.0,1.0,6.0,11.0,-4.0,-4.0,-1.0
1706277137.519189,-5.0,-5.0,-11.0,0.0,-2.0,1.0,0.0,-4.0
1706277137.519189,-2.0,-9.0,0.0,-3.0,-5.0,-1.0,-1.0,-4.0
1706277137.519189,-1.0,-11.0,-11.0,-10.0,-11.0,-6.0,-3.0,1.0
1706277137.519189,-2.0,9.0,-26.0,-4.0,-1.0,-6.0,-6.0,-6.0
1706277137.5394745,-2.0,-6.0,6.0,9.0,3.0,0.0,-1.0,-1.0
1706277137.5394745,-1.0,7.0,3.0,-13.0,-7.0,1.0,3.0,3.0
1706277137.5491624,-3.0,-19.0,-33.0,-7.0,-1.0,-9.0,-6.0,-4.0
1706277137.5491624,1.0,-8.0,11.0,-1.0,-5.0,-4.0,-2.0,-1.0
1706277137.5594754,-2.0,9.0,6.0,6.0,-1.0,0.0,0.0,-10.0
1706277137.5594754,-4.0,-10.0,-20.0,-5.0,4.0,3.0,0.0,1.0
1706277137.5594754,5.0,8.0,16.0,8.0,3.0,-2.0,-3.0,1.0
1706277137.5594754,-1.0,-4.0,-2.0,-6.0,0.0,3.0,0.0,-3.0
1706277137.5891597,-3.0,-4.0,-8.0,-3.0,-2.0,4.0,2.0,0.0
1706277137.5891597,4.0,5.0,8.0,3.0,0.0,-2.0,-1.0,-2.0
1706277137.5891597,-5.0,-5.0,-7.0,-9.0,-1.0,-2.0,-3.0,-3.0
1706277137.5891597,-2.0,-3.0,6.0,-3.0,-8.0,-3.0,-4.0,1.0
1706277137.5891597,-1.0,2.0,9.0,11.0,13.0,2.0,3.0,3.0
1706277137.5891597,-1.0,-3.0,3.0,-3.0,-7.0,-4.0,-2.0,-1.0
1706277137.5993636,0.0,1.0,-1.0,4.0,0.0,-4.0,-2.0,-1.0
1706277137.5993636,-1.0,-3.0,12.0,2.0,1.0,-2.0,-3.0,-2.0
1706277137.6191573,0.0,-2.0,-7.0,0.0,-7.0,-1.0,-1.0,-2.0
1706277137.6191573,1.0,-2.0,-7.0,0.0,7.0,2.0,0.0,-2.0
1706277137.6191573,1.0,5.0,1.0,-2.0,-8.0,-2.0,-1.0,-1.0
1706277137.6191573,-1.0,-5.0,-5.0,0.0,4.0,1.0,1.0,0.0
1706277137.639475,1.0,2.0,20.0,0.0,-2.0,-4.0,-1.0,-1.0
1706277137.639475,-1.0,2.0,-11.0,-7.0,-8.0,-2.0,-3.0,-2.0
1706277137.639475,2.0,8.0,15.0,11.0,1.0,-2.0,0.0,-2.0
1706277137.639475,-1.0,-7.0,-39.0,0.0,1.0,1.0,-1.0,-1.0
1706277137.6494498,2.0,7.0,23.0,15.0,0.0,0.0,-2.0,1.0
1706277137.6494498,-2.0,3.0,-6.0,-23.0,-13.0,-3.0,-1.0,-5.0
1706277137.6594102,2.0,-4.0,10.0,3.0,2.0,1.0,3.0,0.0
1706277137.6594102,0.0,3.0,-6.0,-8.0,-5.0,-2.0,0.0,-2.0
1706277137.6791568,-3.0,-1.0,-15.0,-1.0,1.0,-1.0,-3.0,0.0
1706277137.6791568,-9.0,-10.0,13.0,10.0,0.0,-1.0,-2.0,-3.0
1706277137.6791568,9.0,1.0,-10.0,-3.0,3.0,0.0,-1.0,3.0
1706277137.6791568,-3.0,0.0,8.0,-6.0,-4.0,-2.0,1.0,-2.0
1706277137.6995819,1.0,0.0,-9.0,-8.0,-1.0,-2.0,1.0,-3.0
1706277137.6995819,-2.0,-1.0,6.0,6.0,1.0,-1.0,-2.0,0.0
1706277137.6995819,0.0,-4.0,1.0,-1.0,0.0,-1.0,-2.0,-1.0
1706277137.6995819,-1.0,-4.0,6.0,-1.0,-5.0,-5.0,-2.0,0.0
1706277137.7095308,-1.0,2.0,6.0,-2.0,2.0,0.0,0.0,0.0
1706277137.7095308,-2.0,-6.0,-6.0,3.0,2.0,2.0,0.0,2.0
1706277137.7194722,1.0,4.0,-6.0,-6.0,-4.0,-1.0,-3.0,-2.0
1706277137.7194722,-3.0,-7.0,11.0,-9.0,-8.0,-4.0,-3.0,-3.0
1706277137.7391565,-3.0,-2.0,-3.0,8.0,-2.0,-2.0,-2.0,-3.0
1706277137.7391565,2.0,-5.0,-4.0,1.0,7.0,3.0,2.0,2.0
1706277137.7391565,3.0,8.0,6.0,3.0,4.0,1.0,0.0,2.0
1706277137.7391565,-5.0,-12.0,-32.0,-9.0,-5.0,-4.0,-3.0,-2.0
1706277137.7594306,-7.0,-3.0,-4.0,-4.0,-1.0,0.0,-1.0,-1.0
1706277137.7594306,-1.0,-2.0,-4.0,0.0,-6.0,-2.0,0.0,-2.0
1706277137.7594306,-4.0,-2.0,9.0,4.0,9.0,2.0,-1.0,-3.0
1706277137.7594306,2.0,1.0,11.0,12.0,4.0,3.0,0.0,1.0
1706277137.777932,1.0,-2.0,-9.0,-7.0,-4.0,-2.0,-2.0,1.0
1706277137.777932,-5.0,-1.0,-1.0,-6.0,-7.0,-5.0,-5.0,-9.0
1706277137.7865922,-1.0,-1.0,-2.0,-4.0,-3.0,-1.0,1.0,0.0
1706277137.7865922,-1.0,8.0,5.0,4.0,5.0,0.0,-1.0,-1.0
1706277137.8141832,-3.0,-2.0,-3.0,-10.0,-6.0,-2.0,-1.0,-2.0
1706277137.8141832,3.0,3.0,4.0,3.0,4.0,-3.0,-1.0,3.0
1706277137.8141832,-4.0,-2.0,-2.0,-4.0,-7.0,-5.0,-2.0,-2.0
1706277137.8141832,1.0,0.0,6.0,3.0,2.0,0.0,-1.0,-1.0
1706277137.82419,0.0,-3.0,-13.0,-2.0,1.0,-1.0,-1.0,-1.0
1706277137.82419,1.0,-5.0,0.0,-8.0,-7.0,1.0,1.0,-1.0
1706277137.82419,1.0,8.0,2.0,11.0,5.0,0.0,-2.0,0.0
1706277137.82419,-3.0,-3.0,-1.0,-7.0,-4.0,-1.0,-4.0,0.0
1706277137.8541803,-2.0,-3.0,-5.0,6.0,12.0,2.0,-1.0,1.0
1706277137.8541803,0.0,-1.0,-1.0,-1.0,-2.0,-2.0,0.0,2.0
1706277137.8541803,-6.0,-8.0,-1.0,-4.0,-5.0,0.0,-2.0,-5.0
1706277137.8541803,4.0,5.0,6.0,3.0,3.0,1.0,2.0,0.0
1706277137.8541803,2.0,4.0,2.0,-6.0,-3.0,-3.0,-1.0,-1.0
1706277137.8541803,2.0,3.0,3.0,9.0,5.0,1.0,0.0,-1.0
1706277137.8541803,-3.0,-5.0,-4.0,-3.0,-5.0,-2.0,-1.0,-2.0
1706277137.8541803,-1.0,8.0,3.0,-6.0,-4.0,-4.0,-3.0,-2.0
1706277137.8842273,-3.0,-6.0,3.0,5.0,2.0,1.0,-2.0,-3.0
1706277137.8842273,0.0,-2.0,-4.0,-3.0,-5.0,-2.0,-1.0,0.0
1706277137.8842273,-1.0,-2.0,-8.0,-3.0,4.0,-1.0,-2.0,0.0
1706277137.8842273,1.0,2.0,1.0,-4.0,-2.0,-3.0,-1.0,0.0
1706277137.9141836,0.0,2.0,9.0,0.0,-8.0,-3.0,1.0,0.0
1706277137.9141836,-4.0,0.0,-3.0,-7.0,-1.0,0.0,-2.0,-1.0
1706277137.9141836,1.0,-3.0,3.0,-1.0,-5.0,-1.0,-1.0,-3.0
1706277137.9141836,1.0,0.0,7.0,-2.0,-2.0,-1.0,-1.0,-2.0
1706277137.9141836,-5.0,-5.0,-17.0,3.0,0.0,-1.0,-2.0,0.0
1706277137.9141836,0.0,1.0,6.0,2.0,-2.0,-2.0,-2.0,-1.0
1706277137.9141836,-3.0,-2.0,-3.0,-7.0,-3.0,-1.0,0.0,2.0
1706277137.9141836,2.0,-2.0,-4.0,5.0,1.0,3.0,0.0,2.0
1706277137.9445927,0.0,5.0,0.0,-8.0,-7.0,-3.0,-3.0,-2.0
1706277137.9445927,-1.0,1.0,2.0,0.0,0.0,-2.0,0.0,-1.0
1706277137.9445927,-3.0,0.0,5.0,-7.0,-5.0,-1.0,-1.0,-2.0
1706277137.9445927,0.0,-8.0,-29.0,1.0,5.0,1.0,0.0,3.0
1706277137.9653502,1.0,2.0,5.0,6.0,7.0,3.0,-1.0,-6.0
1706277137.9653502,-1.0,-2.0,-12.0,-9.0,-3.0,-3.0,-2.0,-2.0
1706277137.9653502,-1.0,-4.0,-3.0,3.0,-3.0,-2.0,-2.0,-2.0
1706277137.9653502,0.0,-6.0,1.0,-3.0,-3.0,1.0,1.0,-1.0
1706277137.9749324,-2.0,2.0,-3.0,-3.0,1.0,-1.0,-1.0,1.0
1706277137.9749324,-5.0,-7.0,-6.0,3.0,3.0,-1.0,-2.0,-3.0
1706277137.9749324,0.0,0.0,1.0,-4.0,-5.0,-4.0,0.0,0.0
1706277137.9749324,-2.0,2.0,2.0,-3.0,-4.0,0.0,0.0,-2.0
1706277137.9953334,1.0,2.0,2.0,-4.0,-5.0,-2.0,-3.0,-1.0
1706277137.9953334,-1.0,-1.0,-1.0,-3.0,0.0,-1.0,1.0,-2.0
1706277138.0049376,-1.0,-5.0,-3.0,7.0,6.0,1.0,-1.0,3.0
1706277138.0049376,-2.0,3.0,16.0,2.0,-5.0,-1.0,0.0,0.0
1706277138.0249357,2.0,0.0,-4.0,-3.0,1.0,2.0,-1.0,0.0
1706277138.0249357,1.0,-1.0,1.0,0.0,5.0,4.0,1.0,1.0
1706277138.0249357,-5.0,-3.0,-10.0,-3.0,0.0,-1.0,-3.0,-4.0
1706277138.0249357,-2.0,-1.0,-3.0,4.0,0.0,-1.0,-3.0,-3.0
1706277138.0351837,0.0,-3.0,-4.0,-6.0,-9.0,-4.0,-1.0,-2.0
1706277138.0351837,-1.0,-6.0,-3.0,-1.0,-3.0,-1.0,-1.0,0.0
1706277138.0450063,-5.0,-4.0,4.0,-9.0,-5.0,-3.0,-3.0,-2.0
1706277138.0450063,-3.0,4.0,10.0,4.0,-3.0,-2.0,-1.0,-2.0
1706277138.084935,-3.0,-7.0,-11.0,-3.0,2.0,-2.0,-1.0,-1.0
1706277138.084935,3.0,9.0,5.0,3.0,-2.0,-1.0,-1.0,0.0
1706277138.084935,-1.0,-4.0,0.0,-14.0,-8.0,-2.0,-1.0,-3.0
1706277138.084935,-3.0,-1.0,7.0,4.0,5.0,-2.0,0.0,1.0
1706277138.084935,-4.0,-6.0,-13.0,-4.0,-5.0,-2.0,-2.0,-1.0
1706277138.084935,-1.0,-2.0,6.0,5.0,2.0,1.0,-2.0,0.0
1706277138.084935,-4.0,1.0,0.0,-5.0,-3.0,-1.0,-2.0,-2.0
1706277138.084935,1.0,3.0,4.0,1.0,-7.0,-3.0,-3.0,1.0
1706277138.0951786,0.0,-1.0,16.0,6.0,6.0,1.0,0.0,0.0
1706277138.0951786,-1.0,-5.0,-6.0,-4.0,-2.0,0.0,0.0,-2.0
1706277138.1051898,-3.0,1.0,-11.0,-3.0,2.0,0.0,0.0,3.0
1706277138.1051898,-2.0,-4.0,2.0,0.0,-4.0,-4.0,-2.0,-5.0
1706277138.1449308,-1.0,5.0,5.0,1.0,4.0,2.0,2.0,0.0
1706277138.1449308,1.0,2.0,-8.0,-4.0,-4.0,-3.0,-4.0,-1.0
1706277138.1449308,4.0,7.0,6.0,2.0,0.0,0.0,0.0,0.0
1706277138.1449308,-4.0,-3.0,-5.0,-1.0,3.0,0.0,0.0,-6.0
1706277138.1449308,2.0,1.0,4.0,-2.0,-5.0,-1.0,-3.0,0.0
1706277138.1449308,-1.0,-1.0,-8.0,1.0,1.0,-2.0,-1.0,0.0
1706277138.1449308,-1.0,0.0,0.0,6.0,2.0,0.0,-1.0,-3.0
1706277138.1449308,0.0,-2.0,-13.0,-10.0,-3.0,-2.0,0.0,1.0
1706277138.1551163,-1.0,1.0,5.0,-2.0,0.0,-1.0,-1.0,-1.0
1706277138.1551163,-1.0,-1.0,0.0,4.0,0.0,-2.0,-1.0,-2.0
1706277138.1651397,7.0,9.0,-12.0,12.0,6.0,1.0,1.0,1.0
1706277138.1651397,-7.0,-10.0,-3.0,-1.0,6.0,-2.0,-4.0,-2.0
1706277138.1949337,-3.0,-10.0,-9.0,-7.0,-1.0,3.0,3.0,0.0
1706277138.1949337,0.0,-1.0,-17.0,-9.0,-5.0,-1.0,0.0,0.0
1706277138.1949337,1.0,3.0,6.0,-9.0,-8.0,-3.0,-2.0,0.0
1706277138.1949337,-2.0,-6.0,-2.0,4.0,3.0,1.0,0.0,0.0
1706277138.2049654,-1.0,5.0,12.0,1.0,-4.0,-4.0,-4.0,-2.0
1706277138.2049654,-4.0,-3.0,14.0,3.0,-5.0,-3.0,-3.0,-4.0
1706277138.2049654,3.0,2.0,-2.0,5.0,12.0,4.0,2.0,1.0
1706277138.2049654,3.0,4.0,-4.0,-9.0,-7.0,-3.0,-2.0,0.0
1706277138.2151394,-4.0,-6.0,-11.0,-15.0,-8.0,-5.0,-3.0,-1.0
1706277138.2151394,1.0,-6.0,-17.0,-4.0,2.0,0.0,-1.0,0.0
1706277138.2349324,-10.0,-5.0,7.0,-5.0,-9.0,-4.0,-4.0,-6.0
1706277138.2349324,2.0,3.0,7.0,11.0,5.0,3.0,4.0,4.0
1706277138.2349324,3.0,4.0,-4.0,0.0,2.0,-1.0,-1.0,0.0
1706277138.2349324,-1.0,0.0,13.0,-4.0,-7.0,-2.0,-3.0,-2.0
1706277138.2449358,5.0,5.0,-6.0,-7.0,0.0,-1.0,-2.0,-1.0
1706277138.2449358,-4.0,0.0,3.0,-2.0,-5.0,-2.0,-4.0,-2.0
1706277138.2652793,-3.0,-10.0,-12.0,-6.0,-1.0,-4.0,-1.0,-3.0
1706277138.2652793,0.0,10.0,16.0,22.0,9.0,4.0,2.0,0.0
1706277138.2652793,-1.0,-12.0,-1.0,1.0,-3.0,-4.0,-1.0,3.0
1706277138.2652793,-1.0,0.0,-6.0,-12.0,-4.0,-2.0,-2.0,-6.0
1706277138.2751923,2.0,8.0,10.0,10.0,5.0,2.0,2.0,0.0
1706277138.2751923,-1.0,0.0,-3.0,-7.0,-6.0,-4.0,-3.0,0.0
1706277138.2964132,0.0,-4.0,4.0,1.0,-1.0,-2.0,1.0,1.0
1706277138.2964132,3.0,2.0,12.0,6.0,3.0,1.0,1.0,-1.0
1706277138.3040369,-3.0,-5.0,-6.0,-7.0,-10.0,-4.0,-5.0,-1.0
1706277138.3040369,-4.0,5.0,-1.0,3.0,11.0,2.0,-1.0,-2.0
1706277138.305597,0.0,-5.0,-9.0,-1.0,-2.0,0.0,-1.0,-1.0
1706277138.305597,-3.0,-3.0,-2.0,0.0,1.0,0.0,-3.0,0.0
1706277138.326942,-2.0,0.0,-7.0,-5.0,-2.0,-1.0,-2.0,-3.0
1706277138.326942,-2.0,-1.0,7.0,-8.0,-11.0,-3.0,-3.0,-1.0
1706277138.326942,2.0,2.0,8.0,8.0,8.0,2.0,1.0,-1.0
1706277138.326942,1.0,-2.0,-3.0,8.0,3.0,-1.0,0.0,0.0
1706277138.337266,-1.0,-4.0,-12.0,5.0,4.0,0.0,1.0,0.0
1706277138.337266,-1.0,-6.0,-14.0,-11.0,-5.0,-3.0,-5.0,-3.0
1706277138.3469422,-2.0,0.0,1.0,-17.0,-9.0,-4.0,-3.0,-2.0
1706277138.3469422,-1.0,-1.0,-10.0,-1.0,-2.0,-2.0,-2.0,-1.0
1706277138.3569741,1.0,0.0,-6.0,-12.0,-4.0,0.0,0.0,-1.0
1706277138.3569741,1.0,-2.0,-11.0,15.0,6.0,-1.0,1.0,-1.0
1706277138.3569741,-3.0,-4.0,4.0,5.0,2.0,-2.0,-2.0,-3.0
1706277138.3569741,0.0,5.0,0.0,-3.0,-2.0,-2.0,-1.0,0.0
1706277138.3869421,-2.0,-1.0,0.0,-3.0,-4.0,-2.0,-1.0,0.0
1706277138.3869421,-1.0,-3.0,-7.0,-11.0,-5.0,-3.0,-2.0,-3.0
1706277138.3869421,-2.0,-1.0,2.0,4.0,-2.0,2.0,1.0,0.0
1706277138.3869421,1.0,1.0,-6.0,-5.0,-3.0,-1.0,-1.0,-1.0
1706277138.3973017,0.0,-1.0,4.0,1.0,0.0,0.0,-3.0,-1.0
1706277138.3973017,-4.0,-6.0,-15.0,-11.0,-4.0,-2.0,-1.0,-1.0
1706277138.4069417,0.0,1.0,4.0,6.0,1.0,-1.0,-2.0,0.0
1706277138.4069417,0.0,0.0,-2.0,-9.0,-4.0,0.0,0.0,0.0
1706277138.4169748,-2.0,0.0,6.0,7.0,0.0,0.0,0.0,-1.0
1706277138.4169748,-2.0,-2.0,-4.0,-2.0,-2.0,0.0,2.0,0.0
1706277138.4169748,-1.0,-3.0,-10.0,2.0,0.0,0.0,-1.0,-1.0
1706277138.4169748,-3.0,-4.0,-4.0,-7.0,-5.0,-2.0,0.0,-2.0
1706277138.4469426,1.0,4.0,15.0,10.0,5.0,0.0,0.0,0.0
1706277138.4469426,-1.0,-3.0,2.0,0.0,5.0,0.0,1.0,-2.0
1706277138.4469426,-2.0,0.0,-8.0,-6.0,-6.0,1.0,-1.0,-2.0
1706277138.4469426,-4.0,-3.0,-3.0,-11.0,-3.0,2.0,2.0,2.0
1706277138.4569414,-2.0,-2.0,9.0,5.0,-8.0,-3.0,-2.0,-3.0
1706277138.4569414,1.0,0.0,-6.0,2.0,4.0,-1.0,-1.0,-1.0
1706277138.4672883,-1.0,-3.0,-18.0,-6.0,-5.0,-2.0,-1.0,0.0
1706277138.4672883,1.0,-1.0,5.0,6.0,6.0,0.0,-1.0,-1.0
1706277138.477342,-2.0,-1.0,0.0,-12.0,-7.0,-5.0,-2.0,-1.0
1706277138.477342,-1.0,-1.0,7.0,2.0,1.0,3.0,3.0,0.0
1706277138.477342,4.0,8.0,2.0,-4.0,-4.0,-4.0,-2.0,-4.0
1706277138.477342,-3.0,-1.0,1.0,0.0,0.0,0.0,0.0,-1.0
1706277138.5069425,2.0,-2.0,0.0,3.0,2.0,1.0,-1.0,-2.0
1706277138.5069425,-3.0,-1.0,3.0,1.0,0.0,0.0,1.0,1.0
1706277138.5069425,-2.0,-4.0,-9.0,-8.0,-3.0,-2.0,-2.0,-2.0
1706277138.5069425,0.0,-6.0,3.0,2.0,0.0,-1.0,0.0,1.0
1706277138.5169413,-3.0,4.0,7.0,4.0,-1.0,-1.0,-1.0,0.0
1706277138.5169413,1.0,3.0,-6.0,-6.0,-2.0,-4.0,-3.0,0.0
1706277138.526942,-4.0,-7.0,4.0,1.0,1.0,-1.0,1.0,1.0
1706277138.526942,0.0,3.0,2.0,0.0,2.0,-1.0,-1.0,0.0
1706277138.53735,0.0,-4.0,-4.0,-15.0,-8.0,-1.0,-1.0,-1.0
1706277138.53735,0.0,1.0,-1.0,12.0,3.0,1.0,-1.0,3.0
1706277138.53735,-2.0,-1.0,7.0,2.0,-3.0,-2.0,-2.0,-3.0
1706277138.53735,1.0,2.0,0.0,2.0,-1.0,-2.0,-2.0,-3.0
1706277138.557354,0.0,0.0,5.0,8.0,5.0,1.0,3.0,0.0
1706277138.557354,-1.0,3.0,15.0,-11.0,-6.0,-2.0,1.0,-3.0
1706277138.5669494,-1.0,-4.0,-12.0,-2.0,-2.0,-2.0,-3.0,-3.0
1706277138.5669494,0.0,-2.0,-12.0,-2.0,2.0,-1.0,1.0,0.0
1706277138.5769439,-1.0,-6.0,-2.0,-2.0,-5.0,-3.0,-2.0,-1.0
1706277138.5769439,0.0,0.0,7.0,-7.0,-1.0,1.0,-1.0,0.0
1706277138.587149,-2.0,-4.0,-4.0,1.0,3.0,0.0,2.0,1.0
1706277138.587149,-2.0,1.0,2.0,-13.0,-6.0,-4.0,-3.0,-2.0
1706277138.5972366,-1.0,-4.0,-12.0,4.0,2.0,-2.0,-1.0,-1.0
1706277138.5972366,0.0,3.0,14.0,12.0,2.0,0.0,-1.0,-1.0
1706277138.5972366,0.0,1.0,-5.0,-13.0,-7.0,-2.0,-3.0,-2.0
1706277138.5972366,0.0,2.0,-2.0,8.0,2.0,1.0,1.0,0.0
1706277138.626948,1.0,4.0,14.0,5.0,4.0,0.0,0.0,1.0
1706277138.626948,-2.0,-3.0,-3.0,-5.0,-2.0,0.0,-1.0,-2.0
1706277138.626948,1.0,3.0,29.0,17.0,7.0,2.0,0.0,-1.0
1706277138.626948,-4.0,-9.0,-23.0,-16.0,-11.0,-4.0,-2.0,-4.0
1706277138.6372395,0.0,2.0,0.0,0.0,2.0,0.0,-2.0,-2.0
1706277138.6372395,-2.0,-3.0,-10.0,-2.0,-1.0,0.0,1.0,0.0
1706277138.6669402,-1.0,-3.0,-5.0,-2.0,-1.0,-1.0,-2.0,-2.0
1706277138.6669402,5.0,13.0,24.0,6.0,2.0,1.0,-1.0,-1.0
1706277138.6669402,-6.0,-11.0,-25.0,-3.0,2.0,-2.0,-1.0,-2.0
1706277138.6669402,-4.0,-4.0,-4.0,-2.0,-2.0,-3.0,-2.0,-3.0
1706277138.6669402,-1.0,2.0,3.0,0.0,-1.0,0.0,1.0,-1.0
1706277138.6669402,-2.0,-6.0,-4.0,-4.0,-6.0,-3.0,0.0,-2.0
1706277138.6869407,2.0,4.0,6.0,0.0,-1.0,2.0,-1.0,-1.0
1706277138.6869407,2.0,-1.0,-21.0,0.0,-1.0,-2.0,1.0,1.0
1706277138.6869407,-1.0,1.0,9.0,-5.0,-3.0,-3.0,-1.0,1.0
1706277138.6869407,-2.0,-6.0,-7.0,4.0,-2.0,-3.0,-2.0,0.0
1706277138.6971927,-2.0,-2.0,-6.0,-4.0,0.0,-2.0,-3.0,-2.0
1706277138.6971927,-3.0,-2.0,-3.0,-5.0,-5.0,-4.0,-3.0,-1.0
1706277138.7072186,-3.0,-2.0,4.0,7.0,3.0,0.0,0.0,-1.0
1706277138.7072186,-3.0,-8.0,-9.0,-10.0,-5.0,-3.0,-3.0,-2.0
1706277138.7171435,2.0,8.0,10.0,0.0,-2.0,-2.0,-2.0,1.0
1706277138.7171435,-6.0,-2.0,9.0,-1.0,-2.0,-2.0,-3.0,-8.0
1706277138.7171435,0.0,-4.0,-8.0,1.0,-3.0,-1.0,1.0,0.0
1706277138.7171435,0.0,4.0,-7.0,-1.0,5.0,-1.0,1.0,-1.0
1706277138.7569435,0.0,-1.0,4.0,5.0,1.0,1.0,1.0,-1.0
1706277138.7569435,-2.0,-7.0,-2.0,-12.0,0.0,-1.0,-2.0,-1.0
1706277138.7569435,1.0,2.0,-16.0,-3.0,1.0,0.0,0.0,-1.0
1706277138.7569435,-4.0,-6.0,1.0,2.0,2.0,2.0,1.0,-2.0
1706277138.7569435,1.0,2.0,-1.0,-3.0,-3.0,-2.0,-1.0,1.0
1706277138.7569435,-1.0,1.0,2.0,0.0,-2.0,-1.0,-2.0,0.0
1706277138.7671747,-3.0,-1.0,0.0,-4.0,-2.0,-3.0,-1.0,-2.0
1706277138.7671747,0.0,2.0,6.0,3.0,-1.0,0.0,-2.0,-1.0
1706277138.7772322,-8.0,-11.0,-16.0,-12.0,-4.0,-1.0,0.0,-2.0
1706277138.7772322,1.0,-2.0,1.0,0.0,-5.0,-3.0,-1.0,1.0
1706277138.7871704,1.0,-2.0,3.0,13.0,13.0,3.0,-1.0,-1.0
1706277138.7871704,-1.0,1.0,-4.0,1.0,7.0,1.0,-2.0,1.0
1706277138.8169415,-3.0,-4.0,-7.0,3.0,0.0,-3.0,-3.0,-5.0
1706277138.8169415,0.0,4.0,-3.0,-2.0,-3.0,0.0,-2.0,0.0
1706277138.8169415,-1.0,0.0,16.0,8.0,1.0,-1.0,0.0,0.0
1706277138.8169415,-3.0,-8.0,-31.0,-13.0,-4.0,-1.0,0.0,-1.0
1706277138.8271542,1.0,7.0,12.0,4.0,4.0,3.0,1.0,0.0
1706277138.8271542,-1.0,-1.0,2.0,-3.0,-3.0,-3.0,-3.0,-2.0
1706277138.8271542,-2.0,0.0,-8.0,-6.0,-7.0,-2.0,-2.0,-2.0
1706277138.8271542,-2.0,-5.0,12.0,0.0,-3.0,-1.0,1.0,0.0
1706277138.8442092,-1.0,-3.0,-10.0,-8.0,-7.0,-2.0,-1.0,-1.0
1706277138.8442092,-2.0,2.0,-1.0,3.0,-1.0,-1.0,0.0,-1.0
1706277138.845255,-3.0,-3.0,-2.0,-5.0,-1.0,0.0,0.0,-2.0
1706277138.845255,-1.0,-3.0,3.0,-1.0,-2.0,-2.0,-4.0,-1.0
1706277138.8697395,-1.0,-6.0,-8.0,0.0,-5.0,-1.0,-3.0,-2.0
1706277138.8697395,1.0,8.0,5.0,4.0,5.0,3.0,0.0,0.0
1706277138.8697395,-1.0,-4.0,-6.0,-9.0,-4.0,-4.0,-1.0,0.0
1706277138.8697395,-2.0,-1.0,3.0,7.0,-1.0,1.0,1.0,0.0
1706277138.8897429,2.0,5.0,11.0,1.0,4.0,3.0,0.0,1.0
1706277138.8897429,-1.0,-9.0,-2.0,-1.0,-3.0,-2.0,-1.0,-2.0
1706277138.8897429,1.0,-1.0,-10.0,-5.0,-1.0,-1.0,-2.0,0.0
1706277138.8897429,-1.0,2.0,12.0,-1.0,2.0,1.0,1.0,0.0
1706277138.919737,-1.0,2.0,-5.0,-1.0,-6.0,-2.0,0.0,2.0
1706277138.919737,0.0,-1.0,-3.0,4.0,6.0,0.0,1.0,1.0
1706277138.919737,2.0,5.0,11.0,5.0,2.0,3.0,0.0,-1.0
1706277138.919737,-3.0,-4.0,-11.0,-4.0,-4.0,-5.0,-2.0,-2.0
1706277138.919737,1.0,-2.0,-6.0,-14.0,-4.0,-1.0,0.0,-2.0
1706277138.919737,-1.0,-1.0,-1.0,6.0,4.0,-1.0,0.0,0.0
1706277138.919737,-5.0,-8.0,-2.0,-1.0,-4.0,-3.0,-4.0,-3.0
1706277138.919737,1.0,15.0,3.0,0.0,-4.0,-1.0,-2.0,-2.0
1706277138.9403923,-1.0,-1.0,5.0,2.0,1.0,0.0,-1.0,-2.0
1706277138.9500594,-1.0,-13.0,0.0,-3.0,-2.0,0.0,-2.0,-1.0
1706277138.9500594,-1.0,1.0,-9.0,-6.0,-1.0,-2.0,-2.0,0.0
1706277138.9500594,-1.0,-11.0,5.0,0.0,-4.0,0.0,0.0,-2.0
1706277138.9800503,1.0,5.0,1.0,-2.0,1.0,-1.0,0.0,0.0
1706277138.9800503,-2.0,-20.0,-7.0,-1.0,-2.0,-2.0,-1.0,-1.0
1706277138.9800503,-2.0,-1.0,0.0,-2.0,0.0,-1.0,-1.0,0.0
1706277138.9800503,1.0,1.0,2.0,-1.0,-1.0,-1.0,0.0,2.0
1706277138.9800503,-3.0,-7.0,-1.0,-2.0,-1.0,-2.0,-1.0,-1.0
1706277138.9800503,-3.0,9.0,9.0,1.0,0.0,-1.0,-1.0,-2.0
1706277138.9800503,0.0,0.0,-13.0,-15.0,-11.0,-5.0,-2.0,-1.0
1706277138.9800503,-2.0,-3.0,12.0,16.0,1.0,-2.0,-3.0,-3.0
1706277139.0003939,2.0,6.0,-4.0,7.0,14.0,4.0,1.0,2.0
1706277139.0003939,-5.0,-2.0,-8.0,-8.0,-12.0,-4.0,-3.0,-4.0
1706277139.0100539,0.0,5.0,2.0,-2.0,-1.0,0.0,0.0,-2.0
1706277139.0100539,-4.0,-14.0,4.0,-8.0,-5.0,-3.0,-4.0,-3.0
1706277139.0203228,1.0,16.0,4.0,5.0,2.0,0.0,1.0,2.0
1706277139.0203228,0.0,-10.0,0.0,0.0,1.0,1.0,-1.0,-2.0
1706277139.030263,0.0,-9.0,1.0,4.0,-1.0,0.0,1.0,2.0
1706277139.030263,6.0,23.0,-3.0,-5.0,0.0,1.0,2.0,1.0
1706277139.0400522,-1.0,-14.0,-9.0,-4.0,-5.0,-5.0,-4.0,-4.0
1706277139.0400522,3.0,16.0,19.0,5.0,1.0,0.0,0.0,1.0
1706277139.0503163,2.0,3.0,-4.0,-5.0,-4.0,-3.0,-2.0,-1.0
1706277139.0503163,-3.0,-1.0,12.0,10.0,6.0,1.0,0.0,0.0
1706277139.0900507,-2.0,-7.0,-33.0,-5.0,1.0,2.0,-1.0,0.0
1706277139.0900507,0.0,10.0,17.0,-8.0,-8.0,-3.0,-2.0,-3.0
1706277139.0900507,-1.0,3.0,-13.0,-2.0,0.0,-2.0,-2.0,-2.0
1706277139.0900507,-3.0,2.0,-1.0,2.0,1.0,1.0,-2.0,-1.0
1706277139.0900507,-5.0,-3.0,-1.0,-1.0,-5.0,0.0,0.0,-2.0
1706277139.0900507,4.0,16.0,-1.0,4.0,7.0,2.0,1.0,3.0
1706277139.0900507,-2.0,-1.0,13.0,6.0,1.0,1.0,-1.0,-2.0
1706277139.0900507,3.0,-2.0,-13.0,-9.0,-4.0,-4.0,-1.0,5.0
1706277139.1004417,-2.0,-3.0,12.0,4.0,-3.0,-2.0,-3.0,-4.0
1706277139.1004417,-1.0,4.0,-19.0,-2.0,0.0,-1.0,1.0,-2.0
1706277139.1104357,-3.0,-5.0,-14.0,-13.0,-5.0,-2.0,-2.0,-1.0
1706277139.1104357,1.0,4.0,2.0,7.0,3.0,1.0,0.0,-1.0
1706277139.1300526,1.0,3.0,6.0,3.0,-4.0,-3.0,-3.0,1.0
1706277139.1300526,1.0,6.0,24.0,12.0,4.0,1.0,0.0,1.0
1706277139.1300526,1.0,15.0,-3.0,2.0,1.0,-1.0,-1.0,0.0
1706277139.1300526,-3.0,-14.0,13.0,-4.0,-6.0,0.0,0.0,-2.0
1706277139.1400862,2.0,9.0,4.0,2.0,6.0,2.0,-1.0,0.0
1706277139.1400862,-6.0,-15.0,-14.0,-5.0,-4.0,-3.0,-3.0,-5.0
1706277139.1503234,-1.0,-1.0,11.0,8.0,4.0,0.0,1.0,0.0
1706277139.1503234,1.0,3.0,-6.0,-11.0,-1.0,-2.0,-2.0,0.0
1706277139.1604695,-2.0,-15.0,-5.0,1.0,-3.0,-2.0,-1.0,-2.0
1706277139.1604695,4.0,5.0,8.0,3.0,3.0,-2.0,-2.0,-1.0
1706277139.1604695,-9.0,-22.0,-22.0,0.0,5.0,3.0,0.0,-5.0
1706277139.1604695,-6.0,-4.0,8.0,-2.0,-9.0,-7.0,-4.0,-4.0
1706277139.190052,5.0,7.0,12.0,-5.0,-1.0,0.0,-1.0,1.0
1706277139.190052,-14.0,-32.0,-32.0,0.0,0.0,-2.0,-2.0,-5.0
1706277139.190052,0.0,-4.0,11.0,4.0,-2.0,-1.0,-1.0,-1.0
1706277139.190052,-1.0,-2.0,-16.0,1.0,3.0,0.0,-2.0,-1.0
1706277139.2000868,-2.0,3.0,11.0,-9.0,-5.0,-2.0,-3.0,-4.0
1706277139.2000868,5.0,7.0,-5.0,-6.0,-4.0,2.0,2.0,4.0
1706277139.2103539,9.0,20.0,23.0,4.0,-1.0,-1.0,0.0,1.0
1706277139.2103539,-10.0,-22.0,-26.0,-3.0,0.0,-2.0,-3.0,-3.0
1706277139.2204664,-4.0,-5.0,-6.0,1.0,-2.0,-5.0,-2.0,-4.0
1706277139.2204664,-2.0,-5.0,1.0,-7.0,-6.0,-2.0,-1.0,-2.0
1706277139.2204664,-2.0,-8.0,-22.0,3.0,2.0,0.0,-2.0,-1.0
1706277139.2204664,0.0,16.0,-3.0,-13.0,-5.0,-3.0,-4.0,-1.0
1706277139.250053,-1.0,1.0,7.0,5.0,6.0,2.0,1.0,1.0
1706277139.250053,-1.0,-11.0,-3.0,5.0,5.0,-2.0,-1.0,-2.0
1706277139.250053,-6.0,-12.0,-5.0,-3.0,-3.0,-1.0,0.0,-2.0
1706277139.250053,-1.0,4.0,-4.0,1.0,-2.0,0.0,-2.0,-2.0
1706277139.2603989,4.0,-4.0,-2.0,-7.0,-6.0,-1.0,-2.0,-2.0
1706277139.2603989,3.0,8.0,-3.0,-6.0,-4.0,-1.0,0.0,3.0
1706277139.270351,-7.0,2.0,3.0,-7.0,-2.0,-2.0,-2.0,-1.0
1706277139.270351,-3.0,-3.0,2.0,18.0,5.0,0.0,-1.0,-3.0
1706277139.280475,-3.0,-1.0,-2.0,-12.0,-8.0,-2.0,-2.0,-1.0
1706277139.280475,1.0,1.0,-10.0,-7.0,1.0,1.0,-2.0,-2.0
1706277139.2904086,2.0,-2.0,7.0,0.0,-4.0,-1.0,-2.0,-1.0
1706277139.2904086,3.0,3.0,-11.0,-2.0,-2.0,-1.0,1.0,-2.0
1706277139.3003118,-12.0,-12.0,-5.0,5.0,0.0,0.0,-2.0,-2.0
1706277139.3003118,-2.0,3.0,-13.0,-10.0,-4.0,-3.0,-1.0,-1.0
1706277139.310056,-2.0,1.0,11.0,-3.0,-4.0,-2.0,-1.0,-1.0
1706277139.310056,4.0,2.0,2.0,-4.0,3.0,1.0,1.0,1.0
1706277139.3300514,2.0,3.0,0.0,7.0,3.0,2.0,1.0,0.0
1706277139.3300514,-10.0,-9.0,-3.0,-6.0,-4.0,2.0,3.0,4.0
1706277139.3300514,4.0,3.0,7.0,0.0,-2.0,-1.0,-3.0,-3.0
1706277139.3300514,-4.0,-11.0,-13.0,-5.0,-2.0,4.0,6.0,6.0
1706277139.3403158,3.0,-2.0,10.0,-1.0,-2.0,-2.0,-1.0,-3.0
1706277139.3403158,-7.0,-22.0,-23.0,-4.0,-4.0,-3.0,-5.0,-5.0
1706277139.3403158,-16.0,-28.0,-4.0,-4.0,-4.0,-7.0,-3.0,-5.0
1706277139.3403158,-2.0,-12.0,5.0,5.0,2.0,0.0,1.0,0.0
1706277139.3756495,2.0,-14.0,4.0,13.0,3.0,0.0,0.0,2.0
1706277139.3756495,-3.0,12.0,-14.0,-11.0,-5.0,-6.0,-5.0,-5.0
1706277139.3766487,4.0,6.0,-5.0,-4.0,2.0,1.0,0.0,1.0
1706277139.3766487,-2.0,0.0,-1.0,0.0,-3.0,-2.0,-2.0,-3.0
1706277139.382808,-7.0,-2.0,1.0,1.0,-2.0,-1.0,3.0,-2.0
1706277139.382808,11.0,9.0,17.0,3.0,-1.0,0.0,0.0,0.0
1706277139.3925772,0.0,3.0,-9.0,0.0,2.0,1.0,2.0,1.0
1706277139.3925772,-1.0,8.0,6.0,-4.0,-8.0,-12.0,-6.0,-2.0
1706277139.4028234,0.0,9.0,-11.0,-4.0,2.0,8.0,3.0,-4.0
1706277139.4028234,0.0,0.0,9.0,20.0,5.0,1.0,1.0,1.0
1706277139.4028234,2.0,13.0,8.0,-9.0,-6.0,-5.0,-1.0,-1.0
1706277139.4028234,4.0,6.0,4.0,-4.0,-2.0,6.0,2.0,2.0
1706277139.422577,-3.0,-6.0,-4.0,-1.0,0.0,-5.0,-3.0,-2.0
1706277139.422577,0.0,5.0,8.0,5.0,-1.0,1.0,-2.0,-2.0
1706277139.422577,0.0,-4.0,4.0,6.0,2.0,-2.0,-3.0,-4.0
1706277139.422577,-3.0,-5.0,-2.0,-3.0,-2.0,-2.0,-3.0,-3.0
1706277139.4426422,-2.0,0.0,-20.0,-15.0,-9.0,-4.0,-1.0,0.0
1706277139.4426422,1.0,3.0,9.0,14.0,14.0,7.0,4.0,1.0
1706277139.45263,4.0,4.0,2.0,20.0,10.0,1.0,1.0,1.0
1706277139.45263,-6.0,-11.0,-4.0,-8.0,0.0,0.0,-2.0,-4.0
1706277139.4628541,2.0,12.0,-2.0,-9.0,-4.0,-2.0,-1.0,2.0
1706277139.4628541,-4.0,0.0,-5.0,-12.0,-11.0,-7.0,-4.0,-2.0
1706277139.482572,0.0,-4.0,-12.0,-10.0,-4.0,-1.0,-1.0,-1.0
1706277139.482572,1.0,1.0,1.0,4.0,2.0,0.0,-1.0,1.0
1706277139.482572,0.0,1.0,5.0,1.0,-2.0,-7.0,-6.0,0.0
1706277139.482572,-2.0,-4.0,1.0,-4.0,0.0,2.0,1.0,-2.0
1706277139.482572,1.0,1.0,3.0,0.0,2.0,7.0,-1.0,-5.0
1706277139.482572,-6.0,-16.0,-13.0,-3.0,-4.0,-3.0,0.0,-3.0
1706277139.5026479,-1.0,0.0,1.0,1.0,1.0,0.0,0.0,-1.0
1706277139.5026479,-9.0,-21.0,-22.0,-9.0,-7.0,-5.0,-5.0,-3.0
1706277139.5026479,-4.0,0.0,5.0,-3.0,-2.0,0.0,1.0,1.0
1706277139.5125773,3.0,-8.0,-12.0,-2.0,-1.0,-4.0,-3.0,-2.0
1706277139.5225718,0.0,8.0,11.0,-4.0,-1.0,-1.0,-2.0,0.0
1706277139.5225718,1.0,-2.0,-2.0,1.0,3.0,-2.0,-1.0,2.0
1706277139.5225718,0.0,9.0,5.0,-5.0,-4.0,1.0,2.0,2.0
1706277139.5225718,2.0,6.0,14.0,10.0,0.0,1.0,0.0,3.0
1706277139.54291,-1.0,-8.0,-15.0,-7.0,-3.0,-1.0,-1.0,-2.0
1706277139.54291,3.0,7.0,13.0,3.0,-2.0,-3.0,-3.0,-1.0
1706277139.54291,5.0,0.0,-23.0,-8.0,-4.0,-3.0,-2.0,1.0
1706277139.54291,-10.0,-6.0,12.0,14.0,2.0,0.0,-1.0,-1.0
1706277139.5626817,-1.0,-4.0,-11.0,-12.0,-5.0,-2.0,-3.0,-3.0
1706277139.5626817,0.0,-1.0,10.0,-5.0,-2.0,-1.0,3.0,1.0
1706277139.5626817,-1.0,-2.0,1.0,0.0,-2.0,-3.0,1.0,4.0
1706277139.5626817,-1.0,8.0,14.0,7.0,4.0,3.0,-1.0,-6.0
1706277139.5825734,-3.0,-7.0,-16.0,-1.0,2.0,-1.0,-1.0,-2.0
1706277139.5825734,2.0,-3.0,-12.0,1.0,-1.0,1.0,-3.0,-6.0
1706277139.5825734,-7.0,-6.0,-26.0,-8.0,-6.0,-4.0,-4.0,0.0
1706277139.5825734,7.0,11.0,-4.0,-4.0,-2.0,0.0,-1.0,2.0
1706277139.6125793,-2.0,10.0,18.0,5.0,1.0,-1.0,-2.0,-3.0
1706277139.6125793,0.0,-5.0,6.0,3.0,-2.0,-2.0,-3.0,0.0
1706277139.6125793,2.0,19.0,9.0,2.0,1.0,0.0,2.0,6.0
1706277139.6125793,-1.0,3.0,-11.0,-2.0,-3.0,-4.0,-3.0,-5.0
1706277139.6226318,5.0,3.0,30.0,9.0,1.0,2.0,4.0,6.0
1706277139.6226318,1.0,-7.0,-18.0,-4.0,-4.0,-2.0,-2.0,-6.0
1706277139.6226318,-4.0,-1.0,9.0,4.0,-1.0,2.0,-2.0,-1.0
1706277139.6226318,-4.0,-19.0,-7.0,-10.0,-2.0,-4.0,-2.0,1.0
1706277139.6425996,3.0,14.0,-4.0,1.0,0.0,-2.0,-1.0,-1.0
1706277139.6425996,3.0,-7.0,-8.0,-1.0,0.0,0.0,4.0,17.0
1706277139.6425996,-4.0,-13.0,-6.0,6.0,-3.0,-5.0,-8.0,-16.0
1706277139.6425996,-3.0,13.0,25.0,-18.0,-7.0,-2.0,-4.0,-4.0
1706277139.6628797,8.0,2.0,-11.0,3.0,3.0,1.0,1.0,2.0
1706277139.6628797,-9.0,-17.0,-13.0,3.0,2.0,-6.0,-1.0,-1.0
1706277139.6628797,-5.0,9.0,23.0,5.0,10.0,27.0,8.0,-9.0
1706277139.6628797,5.0,-2.0,-12.0,-1.0,-3.0,-5.0,2.0,8.0
1706277139.682728,-5.0,-19.0,-18.0,-7.0,-4.0,-4.0,-6.0,-7.0
1706277139.682728,-15.0,14.0,31.0,6.0,2.0,-2.0,-3.0,-25.0
1706277139.682728,10.0,-6.0,-25.0,-4.0,0.0,-7.0,0.0,-3.0
1706277139.682728,-7.0,-11.0,-4.0,12.0,3.0,2.0,-1.0,5.0
1706277139.7025733,-3.0,-5.0,0.0,-15.0,-2.0,3.0,-4.0,-10.0
1706277139.7025733,3.0,15.0,-1.0,-7.0,-2.0,0.0,-2.0,1.0
1706277139.7025733,-5.0,-4.0,22.0,-6.0,-3.0,-10.0,-7.0,4.0
1706277139.7025733,0.0,-1.0,-7.0,1.0,-1.0,0.0,-1.0,-3.0
1706277139.7229638,0.0,-6.0,-33.0,3.0,-2.0,-2.0,4.0,5.0
1706277139.7229638,5.0,8.0,13.0,-5.0,-4.0,-3.0,-1.0,1.0
1706277139.7229638,-2.0,-2.0,11.0,-7.0,-3.0,-2.0,-2.0,-3.0
1706277139.7229638,9.0,14.0,-21.0,-8.0,-2.0,-1.0,0.0,5.0
1706277139.7525737,-7.0,-11.0,11.0,11.0,1.0,1.0,0.0,1.0
1706277139.7525737,5.0,10.0,-8.0,-3.0,0.0,4.0,1.0,-8.0
1706277139.7525737,-2.0,-6.0,-1.0,2.0,-3.0,-5.0,-1.0,6.0
1706277139.7525737,-2.0,-21.0,-38.0,-3.0,1.0,2.0,-4.0,-7.0
1706277139.762817,-7.0,-7.0,13.0,-10.0,-4.0,-2.0,-3.0,-1.0
1706277139.762817,10.0,-1.0,8.0,4.0,-1.0,-2.0,-1.0,8.0
1706277139.7726483,3.0,5.0,-7.0,-4.0,-3.0,-4.0,-2.0,2.0
1706277139.7726483,-6.0,1.0,16.0,5.0,2.0,-3.0,-2.0,-6.0
1706277139.7828534,-3.0,-3.0,-13.0,1.0,2.0,-1.0,1.0,0.0
1706277139.7828534,-2.0,3.0,-4.0,-9.0,-4.0,-1.0,-2.0,0.0
1706277139.7828534,-4.0,-8.0,0.0,4.0,-2.0,-4.0,-2.0,-1.0
1706277139.7828534,6.0,12.0,24.0,3.0,0.0,-2.0,-1.0,0.0
1706277139.8228426,-3.0,-1.0,-23.0,-3.0,-1.0,4.0,2.0,5.0
1706277139.8228426,-22.0,-13.0,14.0,8.0,-1.0,0.0,-1.0,-16.0
1706277139.8228426,6.0,5.0,-7.0,-13.0,-1.0,0.0,1.0,-3.0
1706277139.8228426,0.0,1.0,10.0,7.0,0.0,-1.0,2.0,0.0
1706277139.8228426,2.0,8.0,21.0,-2.0,-5.0,-6.0,-1.0,2.0
1706277139.8228426,-7.0,-18.0,-11.0,1.0,-2.0,-7.0,-4.0,-1.0
1706277139.8228426,1.0,4.0,-3.0,2.0,1.0,1.0,0.0,7.0
1706277139.8228426,-9.0,10.0,-8.0,-8.0,-3.0,-5.0,0.0,-7.0
1706277139.843141,9.0,-2.0,18.0,11.0,0.0,9.0,1.0,-8.0
1706277139.843141,25.0,13.0,-7.0,-2.0,0.0,-1.0,-2.0,6.0
1706277139.843141,0.0,-13.0,0.0,5.0,1.0,3.0,3.0,0.0
1706277139.843141,5.0,7.0,13.0,1.0,4.0,6.0,2.0,1.0
1706277139.8828428,-11.0,-19.0,-41.0,-14.0,-6.0,-11.0,-2.0,5.0
1706277139.8828428,-7.0,-10.0,-6.0,-2.0,0.0,-2.0,0.0,1.0
1706277139.8828428,2.0,2.0,2.0,-6.0,0.0,4.0,-2.0,-3.0
1706277139.8828428,4.0,-13.0,-11.0,-5.0,-3.0,-3.0,0.0,7.0
1706277139.8828428,4.0,16.0,33.0,13.0,4.0,3.0,-1.0,0.0
1706277139.8828428,-2.0,1.0,-22.0,-7.0,-2.0,0.0,-2.0,-1.0
1706277139.8828428,-3.0,-4.0,-8.0,7.0,-1.0,-5.0,-3.0,-3.0
1706277139.8828428,-6.0,-2.0,13.0,-1.0,-1.0,-1.0,-2.0,-3.0
1706277139.9252965,-6.0,-7.0,-10.0,0.0,1.0,-1.0,-2.0,-4.0
1706277139.9252965,10.0,12.0,7.0,-1.0,-1.0,3.0,1.0,26.0
1706277139.9252965,-12.0,-6.0,-4.0,1.0,-1.0,-4.0,-1.0,-6.0
1706277139.9252965,9.0,9.0,-12.0,-3.0,-2.0,3.0,-3.0,-6.0
1706277139.9252965,-1.0,-1.0,29.0,-2.0,-2.0,-5.0,-4.0,-7.0
1706277139.9252965,1.0,-13.0,2.0,5.0,1.0,-1.0,-3.0,5.0
1706277139.9252965,-2.0,-11.0,-14.0,-18.0,-5.0,0.0,1.0,0.0
1706277139.9252965,-4.0,9.0,15.0,1.0,2.0,4.0,1.0,-3.0
1706277139.9455242,-5.0,-2.0,9.0,6.0,1.0,-2.0,-3.0,-2.0
1706277139.9455242,-14.0,-5.0,7.0,1.0,1.0,2.0,0.0,-25.0
1706277139.9455242,-6.0,4.0,13.0,5.0,-1.0,-8.0,-1.0,3.0
1706277139.9455242,0.0,2.0,2.0,8.0,2.0,0.0,2.0,-2.0
1706277139.9852986,-1.0,10.0,7.0,-2.0,-3.0,0.0,1.0,-1.0
1706277139.9852986,-7.0,-9.0,-15.0,-5.0,-3.0,-2.0,-1.0,-4.0
1706277139.9852986,0.0,-3.0,-19.0,-17.0,-8.0,-6.0,-6.0,-2.0
1706277139.9852986,-5.0,-4.0,-8.0,-5.0,-1.0,-2.0,-2.0,0.0
1706277139.9852986,2.0,2.0,-16.0,2.0,2.0,4.0,2.0,8.0
1706277139.9852986,4.0,8.0,14.0,1.0,-1.0,-6.0,-6.0,4.0
1706277139.9852986,2.0,-3.0,-2.0,8.0,2.0,0.0,1.0,0.0
1706277139.9852986,2.0,1.0,1.0,-8.0,-1.0,2.0,0.0,5.0
1706277140.0057771,2.0,-1.0,-1.0,-1.0,-2.0,-2.0,-2.0,-1.0
1706277140.0057771,1.0,-4.0,7.0,8.0,-2.0,0.0,-2.0,-3.0
1706277140.0057771,-3.0,5.0,-4.0,-9.0,-3.0,-3.0,-1.0,-2.0
1706277140.0057771,-1.0,-2.0,4.0,-7.0,-7.0,-8.0,-11.0,-8.0
1706277140.0256767,4.0,3.0,-1.0,2.0,-1.0,-1.0,-2.0,-1.0
1706277140.0256767,8.0,-1.0,23.0,7.0,-3.0,-6.0,3.0,21.0
1706277140.0256767,-12.0,-23.0,-60.0,-6.0,2.0,5.0,-2.0,-12.0
1706277140.0256767,-4.0,-5.0,-8.0,-2.0,-1.0,2.0,4.0,3.0
1706277140.0555048,-8.0,-8.0,-8.0,0.0,-3.0,-6.0,-5.0,-8.0
1706277140.0555048,7.0,15.0,5.0,-20.0,-5.0,-3.0,-4.0,17.0
1706277140.0555048,1.0,2.0,18.0,8.0,2.0,1.0,-7.0,-5.0
1706277140.0555048,8.0,3.0,1.0,2.0,1.0,1.0,0.0,-3.0
1706277140.0655632,-8.0,-12.0,-16.0,-2.0,-2.0,-4.0,-4.0,-7.0
1706277140.0655632,-5.0,-2.0,-16.0,1.0,2.0,-1.0,3.0,-4.0
1706277140.0655632,-3.0,0.0,8.0,1.0,-1.0,-4.0,0.0,0.0
1706277140.0655632,-5.0,2.0,8.0,2.0,-2.0,-2.0,-1.0,-4.0
1706277140.1055057,10.0,13.0,6.0,0.0,3.0,6.0,6.0,10.0
1706277140.1055057,0.0,5.0,-4.0,-2.0,0.0,0.0,-4.0,-10.0
1706277140.1055057,9.0,2.0,25.0,8.0,0.0,2.0,5.0,9.0
1706277140.1055057,-5.0,-1.0,-27.0,-9.0,-7.0,-7.0,1.0,-1.0
1706277140.1055057,-1.0,1.0,7.0,-5.0,-4.0,-5.0,-3.0,-1.0
1706277140.1055057,-7.0,-5.0,-15.0,-7.0,0.0,3.0,-1.0,-9.0
1706277140.1055057,-2.0,6.0,19.0,9.0,0.0,0.0,-7.0,-8.0
1706277140.1055057,1.0,2.0,-8.0,-2.0,6.0,1.0,-1.0,2.0
1706277140.1256938,-4.0,-1.0,-3.0,-2.0,-4.0,-7.0,-2.0,0.0
1706277140.1256938,-6.0,5.0,5.0,-6.0,-6.0,-5.0,-2.0,-10.0
1706277140.1355104,6.0,5.0,15.0,-6.0,0.0,-3.0,-1.0,4.0
1706277140.1355104,-1.0,-8.0,-14.0,8.0,1.0,1.0,0.0,2.0
1706277140.1555054,-4.0,-5.0,-2.0,-11.0,2.0,2.0,-2.0,-14.0
1706277140.1555054,0.0,0.0,2.0,4.0,2.0,-3.0,-6.0,-7.0
1706277140.1555054,-1.0,-1.0,-10.0,7.0,7.0,2.0,1.0,1.0
1706277140.1555054,1.0,-15.0,1.0,14.0,18.0,8.0,6.0,5.0
1706277140.1657267,-3.0,12.0,16.0,13.0,1.0,-6.0,-5.0,-2.0
1706277140.1657267,-2.0,-6.0,-20.0,-12.0,-5.0,-2.0,0.0,5.0
1706277140.1657267,1.0,2.0,9.0,-14.0,-13.0,-1.0,1.0,-4.0
1706277140.1657267,-6.0,4.0,1.0,-19.0,-16.0,-10.0,-9.0,-7.0
1706277140.1855135,8.0,-14.0,2.0,8.0,5.0,3.0,10.0,41.0
1706277140.1855135,9.0,4.0,-1.0,-4.0,1.0,9.0,2.0,-8.0
1706277140.2055066,1.0,6.0,8.0,6.0,2.0,0.0,-1.0,0.0
1706277140.2055066,-9.0,-21.0,2.0,-2.0,-6.0,-6.0,-5.0,-9.0
1706277140.2055066,-3.0,-4.0,-5.0,-7.0,-5.0,-3.0,1.0,1.0
1706277140.2055066,-2.0,7.0,4.0,6.0,-2.0,0.0,1.0,1.0
1706277140.2055066,-10.0,-15.0,-23.0,-5.0,-1.0,-1.0,-3.0,0.0
1706277140.2055066,8.0,5.0,10.0,4.0,1.0,1.0,1.0,5.0
1706277140.2258327,-3.0,0.0,-21.0,-9.0,-4.0,-4.0,-5.0,-10.0
1706277140.2258327,-3.0,-9.0,-27.0,-1.0,2.0,1.0,0.0,1.0
1706277140.2258327,-2.0,3.0,14.0,7.0,-1.0,-4.0,-6.0,-7.0
1706277140.2258327,-9.0,-28.0,-24.0,-10.0,-5.0,3.0,5.0,-2.0
1706277140.245856,-1.0,18.0,12.0,3.0,-3.0,-3.0,-1.0,-5.0
1706277140.245856,0.0,14.0,29.0,11.0,2.0,0.0,0.0,-4.0
1706277140.2758498,-3.0,-18.0,-29.0,-10.0,-1.0,-3.0,1.0,0.0
1706277140.2758498,-5.0,-1.0,5.0,-9.0,-8.0,-6.0,-4.0,-1.0
1706277140.2758498,4.0,2.0,-4.0,-2.0,5.0,7.0,4.0,-3.0
1706277140.2758498,1.0,2.0,4.0,16.0,7.0,2.0,2.0,3.0
1706277140.2758498,2.0,9.0,6.0,-5.0,-5.0,-3.0,0.0,0.0
1706277140.2758498,-4.0,-1.0,16.0,-4.0,-4.0,-6.0,-5.0,-4.0
1706277140.2861185,-4.0,-4.0,-13.0,-3.0,-1.0,1.0,-2.0,-7.0
1706277140.2861185,-2.0,1.0,25.0,10.0,0.0,-3.0,0.0,-1.0
1706277140.2861185,-5.0,-8.0,-31.0,-10.0,-4.0,-6.0,-1.0,-3.0
1706277140.2861185,5.0,9.0,-13.0,-8.0,-1.0,1.0,0.0,2.0
1706277140.30586,-1.0,1.0,17.0,7.0,0.0,-2.0,-5.0,-5.0
1706277140.30586,-5.0,-8.0,1.0,-4.0,-4.0,-1.0,-3.0,0.0
1706277140.3258524,-5.0,-4.0,5.0,-8.0,-5.0,-8.0,-9.0,0.0
1706277140.3258524,7.0,13.0,1.0,2.0,1.0,-1.0,2.0,-1.0
1706277140.3258524,-10.0,-8.0,-10.0,-1.0,-2.0,5.0,-6.0,-26.0
1706277140.3258524,1.0,4.0,-4.0,-6.0,-1.0,-3.0,1.0,2.0
1706277140.3258524,1.0,-19.0,-14.0,0.0,-2.0,-5.0,-5.0,-8.0
1706277140.3258524,-3.0,13.0,-2.0,4.0,3.0,1.0,1.0,-2.0
1706277140.3461668,-2.0,-4.0,-5.0,-11.0,-6.0,-6.0,-1.0,5.0
1706277140.3461668,7.0,4.0,6.0,4.0,1.0,7.0,2.0,3.0
1706277140.3461668,3.0,-1.0,12.0,8.0,6.0,6.0,3.0,4.0
1706277140.3461668,2.0,7.0,0.0,-8.0,-3.0,-1.0,-2.0,4.0
1706277140.3758502,1.0,-7.0,1.0,-1.0,-2.0,-5.0,-1.0,0.0
1706277140.3758502,-6.0,-6.0,-11.0,5.0,3.0,11.0,5.0,-1.0
1706277140.3758502,1.0,7.0,6.0,-10.0,-3.0,0.0,3.0,4.0
1706277140.3758502,1.0,-1.0,9.0,10.0,1.0,0.0,3.0,0.0
1706277140.3859522,-5.0,-11.0,-14.0,-8.0,-6.0,-4.0,-3.0,-1.0
1706277140.3859522,-3.0,-8.0,-17.0,-13.0,-4.0,-5.0,-2.0,-6.0
1706277140.3859522,-4.0,-2.0,-8.0,8.0,-2.0,0.0,0.0,-1.0
1706277140.3859522,-5.0,-6.0,-8.0,-3.0,-4.0,0.0,-4.0,-11.0
1706277140.4062812,2.0,2.0,2.0,1.0,-1.0,0.0,0.0,3.0
1706277140.4062812,-3.0,-2.0,-7.0,-15.0,-10.0,-11.0,-6.0,-2.0
1706277140.4062812,1.0,3.0,3.0,15.0,9.0,6.0,2.0,0.0
1706277140.4062812,0.0,3.0,5.0,-6.0,-4.0,-4.0,-4.0,2.0
1706277140.4158504,3.0,-5.0,-10.0,1.0,-3.0,-2.0,-1.0,3.0
1706277140.4158504,0.0,11.0,2.0,-5.0,1.0,-1.0,-2.0,-1.0
1706277140.4348094,-4.0,16.0,25.0,6.0,-2.0,-2.0,-1.0,-4.0
1706277140.4348094,-2.0,-10.0,-18.0,-3.0,-5.0,-4.0,-2.0,-3.0
1706277140.4498363,2.0,5.0,2.0,2.0,0.0,2.0,5.0,3.0
1706277140.4498363,-5.0,-15.0,-37.0,-14.0,-2.0,-1.0,-1.0,-3.0
1706277140.4508858,5.0,14.0,-6.0,-8.0,-2.0,-2.0,1.0,2.0
1706277140.4508858,1.0,1.0,19.0,12.0,4.0,0.0,-3.0,-2.0
1706277140.468736,4.0,-2.0,5.0,1.0,1.0,1.0,0.0,0.0
1706277140.468736,-7.0,-7.0,-3.0,0.0,-3.0,-3.0,-1.0,-3.0
1706277140.468736,0.0,6.0,3.0,0.0,1.0,0.0,1.0,2.0
1706277140.468736,1.0,-9.0,-3.0,6.0,0.0,-3.0,0.0,0.0
1706277140.4984753,-2.0,4.0,-3.0,-11.0,-4.0,-2.0,1.0,-2.0
1706277140.4984753,1.0,-7.0,3.0,-13.0,-5.0,-2.0,-1.0,-2.0
1706277140.4984753,0.0,-6.0,-4.0,10.0,2.0,1.0,1.0,-1.0
1706277140.4984753,0.0,15.0,19.0,19.0,13.0,4.0,3.0,0.0
1706277140.5084906,2.0,-3.0,-5.0,3.0,0.0,-1.0,0.0,2.0
1706277140.5084906,7.0,23.0,20.0,-2.0,0.0,-2.0,-2.0,1.0
1706277140.5084906,-13.0,-34.0,-9.0,-12.0,-15.0,-7.0,-4.0,-6.0
1706277140.5084906,2.0,7.0,-20.0,-22.0,-7.0,0.0,-1.0,1.0
1706277140.5287745,-4.0,-20.0,-10.0,14.0,10.0,2.0,1.0,0.0
1706277140.5287745,-4.0,-5.0,4.0,22.0,17.0,6.0,3.0,-1.0
1706277140.5484936,2.0,0.0,-8.0,3.0,7.0,2.0,-1.0,2.0
1706277140.5484936,0.0,13.0,17.0,6.0,-1.0,-1.0,-2.0,0.0
1706277140.5484936,-2.0,-1.0,-2.0,-19.0,-14.0,-6.0,-1.0,-2.0
1706277140.5484936,0.0,14.0,12.0,-6.0,-13.0,-7.0,-3.0,-2.0
1706277140.5484936,-5.0,-34.0,-12.0,-11.0,-13.0,-1.0,-1.0,-1.0
1706277140.5484936,1.0,7.0,-2.0,4.0,6.0,1.0,1.0,0.0
1706277140.5688634,-1.0,5.0,11.0,-7.0,-4.0,-3.0,-4.0,-1.0
1706277140.5688634,3.0,-13.0,-10.0,3.0,5.0,2.0,1.0,-1.0
1706277140.5688634,1.0,4.0,4.0,1.0,0.0,2.0,2.0,0.0
1706277140.5688634,-4.0,-5.0,8.0,-42.0,-29.0,-8.0,-3.0,0.0
1706277140.58849,-4.0,0.0,1.0,17.0,-4.0,-5.0,-4.0,-4.0
1706277140.58849,-8.0,-18.0,11.0,59.0,54.0,15.0,2.0,1.0
1706277140.58849,10.0,31.0,2.0,-1.0,-1.0,0.0,0.0,1.0
1706277140.58849,-3.0,-3.0,-1.0,15.0,1.0,-4.0,0.0,-3.0
1706277140.5986843,4.0,-2.0,10.0,-2.0,18.0,9.0,6.0,4.0
1706277140.5986843,4.0,7.0,-4.0,-35.0,-31.0,-9.0,-2.0,2.0
1706277140.6085567,1.0,17.0,21.0,22.0,2.0,0.0,0.0,0.0
1706277140.6085567,-1.0,-5.0,-13.0,-16.0,-7.0,-4.0,-4.0,-1.0
1706277140.6287477,-2.0,-7.0,-17.0,-8.0,-8.0,-4.0,-3.0,-5.0
1706277140.6287477,-8.0,-11.0,-15.0,-4.0,-6.0,-5.0,-4.0,-4.0
1706277140.6287477,-3.0,1.0,2.0,-12.0,4.0,-1.0,1.0,-1.0
1706277140.6287477,2.0,0.0,16.0,4.0,-2.0,1.0,0.0,-2.0
1706277140.6585338,-1.0,4.0,-2.0,10.0,8.0,5.0,1.0,2.0
1706277140.6585338,-4.0,-9.0,-3.0,-11.0,-7.0,-4.0,-3.0,-5.0
1706277140.6585338,2.0,3.0,1.0,-10.0,-7.0,-4.0,-2.0,0.0
1706277140.6585338,8.0,24.0,21.0,14.0,8.0,4.0,3.0,3.0
1706277140.6585338,-13.0,-34.0,17.0,6.0,1.0,-1.0,-2.0,-3.0
1706277140.6585338,3.0,17.0,-6.0,-10.0,-11.0,-2.0,-1.0,-4.0
1706277140.6686714,-5.0,-12.0,2.0,5.0,4.0,2.0,-1.0,-4.0
1706277140.6686714,-1.0,0.0,1.0,2.0,3.0,1.0,-2.0,-2.0
1706277140.6889262,4.0,18.0,-6.0,-7.0,-5.0,-3.0,-3.0,0.0
1706277140.6889262,0.0,-5.0,11.0,8.0,-3.0,-2.0,0.0,2.0
1706277140.6889262,0.0,-5.0,-31.0,-4.0,1.0,0.0,1.0,-1.0
1706277140.6889262,-5.0,-12.0,-18.0,-5.0,2.0,-2.0,-1.0,0.0
1706277140.708549,6.0,37.0,25.0,-6.0,-10.0,-4.0,-1.0,0.0
1706277140.708549,-7.0,-23.0,-29.0,-6.0,-10.0,-7.0,-2.0,-2.0
1706277140.708549,-1.0,-25.0,-14.0,12.0,17.0,14.0,5.0,2.0
1706277140.708549,-6.0,-8.0,-22.0,-10.0,-9.0,-8.0,-7.0,-7.0
1706277140.7288053,-3.0,-14.0,-1.0,6.0,10.0,5.0,2.0,-1.0
1706277140.7288053,1.0,9.0,13.0,-4.0,-8.0,-5.0,-3.0,-1.0
1706277140.7288053,1.0,8.0,11.0,-6.0,-8.0,-9.0,-6.0,-1.0
1706277140.7288053,3.0,-2.0,2.0,18.0,1.0,-1.0,1.0,-1.0
1706277140.7688422,-10.0,-16.0,-14.0,-30.0,-7.0,-1.0,-1.0,-1.0
1706277140.7688422,-3.0,0.0,-10.0,-6.0,-5.0,-7.0,-8.0,-1.0
1706277140.7688422,-4.0,-2.0,8.0,-10.0,-6.0,-4.0,2.0,6.0
1706277140.7688422,-13.0,-31.0,-19.0,32.0,9.0,4.0,-3.0,-14.0
1706277140.7688422,3.0,21.0,7.0,-43.0,-30.0,-46.0,-21.0,-8.0
1706277140.7688422,1.0,-2.0,1.0,4.0,11.0,28.0,12.0,6.0
1706277140.778852,-3.0,5.0,2.0,2.0,-2.0,-20.0,-13.0,8.0
1706277140.778852,23.0,23.0,18.0,6.0,16.0,44.0,33.0,16.0
1706277140.789205,-16.0,-26.0,-34.0,3.0,-1.0,-3.0,-4.0,-2.0
1706277140.789205,8.0,4.0,-4.0,8.0,-2.0,-15.0,-7.0,-8.0
1706277140.789205,-3.0,6.0,-5.0,-21.0,-2.0,4.0,-1.0,-6.0
1706277140.789205,-5.0,0.0,9.0,8.0,-8.0,-20.0,-12.0,1.0
1706277140.7991319,2.0,9.0,10.0,-4.0,-1.0,8.0,3.0,0.0
1706277140.8088465,5.0,15.0,27.0,-11.0,-11.0,0.0,0.0,1.0
1706277140.818843,-3.0,0.0,-29.0,8.0,17.0,9.0,3.0,-1.0
1706277140.818843,-5.0,-7.0,10.0,9.0,10.0,0.0,-2.0,1.0
1706277140.8291264,-1.0,-9.0,-20.0,7.0,4.0,5.0,1.0,-2.0
1706277140.8291264,-6.0,-3.0,2.0,12.0,1.0,-1.0,-2.0,-2.0
1706277140.8291264,-2.0,4.0,8.0,-21.0,-12.0,-9.0,-4.0,-7.0
1706277140.8291264,-2.0,3.0,-12.0,-17.0,-11.0,-10.0,-9.0,-6.0
1706277140.849174,12.0,14.0,-12.0,1.0,-5.0,-15.0,-9.0,-5.0
1706277140.849174,-8.0,-7.0,15.0,1.0,3.0,14.0,10.0,3.0
1706277140.849174,4.0,-2.0,-1.0,-2.0,-7.0,-10.0,-8.0,-4.0
1706277140.849174,-4.0,-7.0,-16.0,-8.0,6.0,17.0,10.0,0.0
1706277140.8888428,-3.0,4.0,1.0,11.0,4.0,0.0,-1.0,-4.0
1706277140.8888428,-4.0,-7.0,-18.0,-12.0,-7.0,-13.0,-5.0,-2.0
1706277140.8888428,0.0,-7.0,10.0,10.0,0.0,0.0,-1.0,-3.0
1706277140.8888428,-3.0,2.0,3.0,-12.0,-7.0,-11.0,-9.0,-1.0
1706277140.8888428,-8.0,-12.0,-3.0,-4.0,-2.0,2.0,2.0,-1.0
1706277140.8888428,8.0,21.0,29.0,5.0,7.0,3.0,1.0,1.0
1706277140.8888428,1.0,-4.0,-18.0,16.0,5.0,6.0,5.0,-1.0
1706277140.8888428,-3.0,-4.0,8.0,-11.0,-1.0,-7.0,-5.0,1.0
1706277140.909259,4.0,15.0,13.0,11.0,6.0,10.0,5.0,2.0
1706277140.909259,-7.0,-19.0,1.0,-14.0,-11.0,-9.0,-6.0,-4.0
1706277140.909259,-7.0,5.0,13.0,1.0,-5.0,-1.0,-2.0,-2.0
1706277140.909259,0.0,-4.0,-1.0,2.0,-2.0,-6.0,-8.0,-2.0
1706277140.9288425,-1.0,-10.0,1.0,9.0,-1.0,-2.0,5.0,25.0
1706277140.9288425,9.0,4.0,-9.0,-1.0,-2.0,-15.0,-13.0,-16.0
1706277140.9288425,-8.0,-7.0,4.0,5.0,12.0,27.0,20.0,16.0
1706277140.9288425,-1.0,1.0,-26.0,-18.0,-12.0,-13.0,-1.0,18.0
1706277140.9492636,3.0,-14.0,12.0,3.0,-7.0,-10.0,-6.0,-7.0
1706277140.9492636,-5.0,16.0,-6.0,0.0,1.0,5.0,-3.0,-12.0
1706277140.9492636,1.0,-9.0,-3.0,-5.0,-12.0,-16.0,-22.0,-16.0
1706277140.9492636,-3.0,-12.0,10.0,1.0,-3.0,-6.0,1.0,4.0
1706277140.980936,9.0,9.0,-11.0,1.0,5.0,12.0,12.0,17.0
1706277140.980936,-9.0,-14.0,-19.0,-2.0,0.0,9.0,11.0,8.0
1706277140.980936,-1.0,-9.0,-9.0,5.0,1.0,-11.0,-15.0,-6.0
1706277140.980936,-13.0,-3.0,14.0,-13.0,-8.0,-12.0,-17.0,-18.0
1706277140.9877474,-17.0,-15.0,-7.0,14.0,2.0,5.0,15.0,-2.0
1706277140.9877474,15.0,10.0,-2.0,-11.0,-6.0,-12.0,-11.0,2.0
1706277140.9913096,-4.0,2.0,17.0,-19.0,-4.0,10.0,8.0,1.0
1706277140.9913096,-3.0,-8.0,-20.0,7.0,-7.0,-3.0,-2.0,-7.0
1706277141.0116324,0.0,10.0,11.0,-15.0,2.0,6.0,-4.0,-13.0
1706277141.0116324,-3.0,-5.0,-13.0,8.0,-4.0,3.0,5.0,5.0
1706277141.0116324,2.0,6.0,11.0,3.0,-6.0,-8.0,-4.0,0.0
1706277141.0116324,1.0,5.0,15.0,33.0,19.0,-3.0,-2.0,1.0
1706277141.0413074,10.0,18.0,-12.0,-4.0,-1.0,-1.0,-8.0,-2.0
1706277141.0413074,-5.0,-10.0,13.0,37.0,4.0,2.0,2.0,7.0
1706277141.0413074,2.0,-15.0,-73.0,-69.0,-22.0,5.0,8.0,-3.0
1706277141.0413074,7.0,4.0,5.0,-23.0,-17.0,5.0,8.0,2.0
1706277141.0413074,-3.0,-9.0,-13.0,14.0,26.0,10.0,2.0,1.0
1706277141.0413074,1.0,5.0,-2.0,15.0,-6.0,-15.0,-11.0,-3.0
1706277141.0615275,-8.0,10.0,10.0,11.0,-7.0,-2.0,6.0,14.0
1706277141.0615275,3.0,-8.0,-23.0,-11.0,7.0,32.0,7.0,-6.0
1706277141.0714905,-3.0,-3.0,6.0,-12.0,-8.0,14.0,8.0,-5.0
1706277141.0714905,-4.0,-2.0,-9.0,-15.0,-4.0,0.0,2.0,-4.0
1706277141.0714905,0.0,15.0,17.0,19.0,12.0,-14.0,-8.0,1.0
1706277141.0714905,1.0,6.0,-4.0,-4.0,1.0,2.0,2.0,-3.0
1706277141.1113138,-4.0,-5.0,8.0,3.0,-7.0,-4.0,-7.0,-5.0
1706277141.1113138,6.0,6.0,1.0,-8.0,4.0,-5.0,-8.0,-5.0
1706277141.1113138,3.0,10.0,17.0,12.0,5.0,0.0,6.0,5.0
1706277141.1113138,-9.0,8.0,12.0,6.0,6.0,7.0,5.0,5.0
1706277141.1213071,15.0,49.0,3.0,-3.0,-11.0,-14.0,2.0,3.0
1706277141.1213071,-5.0,-22.0,2.0,-2.0,12.0,20.0,10.0,4.0
1706277141.1213071,5.0,4.0,-19.0,-3.0,-1.0,-7.0,-13.0,-9.0
1706277141.1213071,-2.0,0.0,2.0,4.0,-2.0,-9.0,-3.0,2.0
1706277141.1316304,4.0,4.0,19.0,10.0,5.0,7.0,0.0,0.0
1706277141.1316304,2.0,0.0,-9.0,-6.0,-2.0,-5.0,4.0,4.0
1706277141.1316304,-2.0,-2.0,-7.0,4.0,1.0,5.0,0.0,-7.0
1706277141.1316304,-6.0,-15.0,-3.0,-13.0,-5.0,-6.0,-4.0,-9.0
1706277141.1613076,-9.0,-15.0,-6.0,1.0,-9.0,-8.0,-13.0,-10.0
1706277141.1613076,-1.0,2.0,8.0,-19.0,-4.0,-4.0,-1.0,2.0
1706277141.1613076,0.0,-11.0,-4.0,34.0,18.0,6.0,4.0,-1.0
1706277141.1613076,2.0,-2.0,-24.0,-7.0,-1.0,-3.0,0.0,0.0
1706277141.1715248,-2.0,-4.0,24.0,20.0,7.0,-11.0,-6.0,-2.0
1706277141.1715248,-3.0,-17.0,19.0,-7.0,-15.0,4.0,3.0,2.0
1706277141.1715248,-9.0,0.0,-42.0,-45.0,-11.0,-6.0,-5.0,-6.0
1706277141.1715248,0.0,-4.0,4.0,33.0,17.0,-5.0,-6.0,-8.0
1706277141.1914818,-3.0,1.0,14.0,-8.0,-20.0,-7.0,-9.0,-2.0
1706277141.1914818,-13.0,3.0,-14.0,14.0,14.0,-6.0,-9.0,-26.0
1706277141.1914818,-4.0,-7.0,11.0,5.0,-5.0,1.0,3.0,4.0
1706277141.1914818,7.0,16.0,0.0,-14.0,-7.0,9.0,13.0,4.0
1706277141.2113132,-16.0,-50.0,-32.0,-19.0,-7.0,-11.0,-9.0,0.0
1706277141.2113132,11.0,8.0,14.0,-4.0,-2.0,9.0,5.0,6.0
1706277141.2113132,4.0,7.0,5.0,-7.0,-8.0,-12.0,-3.0,2.0
1706277141.2113132,-1.0,8.0,-2.0,0.0,0.0,-5.0,-4.0,-8.0
1706277141.2213433,0.0,-5.0,2.0,5.0,8.0,3.0,1.0,-2.0
1706277141.2213433,4.0,7.0,-7.0,-6.0,-1.0,1.0,-2.0,5.0
1706277141.2315156,1.0,2.0,21.0,13.0,3.0,0.0,-1.0,-4.0
1706277141.2315156,-5.0,-8.0,0.0,-9.0,-9.0,-9.0,-5.0,4.0
1706277141.2514772,-4.0,-9.0,6.0,-4.0,3.0,1.0,0.0,-5.0
1706277141.2514772,-4.0,-16.0,-12.0,7.0,3.0,-6.0,-4.0,2.0
1706277141.2514772,8.0,18.0,13.0,6.0,1.0,5.0,-1.0,-1.0
1706277141.2514772,-1.0,18.0,4.0,-17.0,-13.0,-9.0,-6.0,-4.0
1706277141.291307,1.0,-8.0,-13.0,-13.0,-7.0,2.0,3.0,1.0
1706277141.291307,-1.0,2.0,-26.0,-9.0,0.0,-5.0,-2.0,-3.0
1706277141.291307,-2.0,-14.0,22.0,22.0,13.0,6.0,4.0,-2.0
1706277141.291307,-3.0,-14.0,-6.0,-7.0,-7.0,-2.0,-1.0,2.0
1706277141.291307,-1.0,-2.0,-17.0,-2.0,-5.0,-6.0,-7.0,-5.0
1706277141.291307,-3.0,-1.0,10.0,-2.0,-1.0,16.0,10.0,4.0
1706277141.291307,-3.0,-14.0,-28.0,-8.0,-5.0,-4.0,-2.0,-3.0
1706277141.291307,4.0,-10.0,-7.0,4.0,2.0,2.0,1.0,1.0
1706277141.3115745,-1.0,12.0,4.0,5.0,4.0,6.0,4.0,2.0
1706277141.3115745,-3.0,-7.0,-15.0,-8.0,-6.0,-11.0,-5.0,-4.0
1706277141.3115745,-1.0,10.0,22.0,0.0,4.0,11.0,5.0,1.0
1706277141.3115745,-1.0,-11.0,8.0,5.0,2.0,1.0,-2.0,1.0
1706277141.331615,-2.0,5.0,-9.0,-5.0,-1.0,-1.0,0.0,-2.0
1706277141.331615,-5.0,-2.0,4.0,1.0,-3.0,-10.0,-6.0,-4.0
1706277141.331615,-1.0,-4.0,-9.0,-6.0,-6.0,-11.0,-3.0,5.0
1706277141.331615,1.0,-7.0,2.0,11.0,0.0,-4.0,-2.0,-2.0
1706277141.3416486,3.0,16.0,5.0,-12.0,0.0,5.0,2.0,-1.0
1706277141.3416486,1.0,6.0,23.0,10.0,2.0,-3.0,-4.0,0.0
1706277141.351625,-3.0,-4.0,-9.0,-6.0,-4.0,0.0,0.0,-5.0
1706277141.351625,-4.0,-1.0,-7.0,2.0,1.0,-3.0,-3.0,-3.0
1706277141.3715584,4.0,4.0,0.0,5.0,0.0,5.0,1.0,3.0
1706277141.3715584,2.0,12.0,8.0,-6.0,-2.0,-2.0,-3.0,-2.0
1706277141.3715584,-13.0,-18.0,-10.0,-4.0,-12.0,-6.0,-5.0,-8.0
1706277141.3715584,3.0,7.0,13.0,-9.0,3.0,4.0,4.0,3.0
1706277141.3916168,2.0,5.0,2.0,6.0,3.0,-3.0,-8.0,-2.0
1706277141.3916168,3.0,-7.0,-5.0,10.0,9.0,10.0,3.0,10.0
1706277141.3916168,-3.0,2.0,-7.0,-2.0,-2.0,3.0,2.0,-6.0
1706277141.3916168,2.0,0.0,-5.0,-5.0,-5.0,-8.0,-4.0,-1.0
1706277141.4015772,-1.0,-4.0,9.0,-7.0,-6.0,-5.0,-3.0,0.0
1706277141.4015772,-10.0,-18.0,-2.0,-2.0,-4.0,-4.0,-2.0,-1.0
1706277141.4116287,-1.0,-8.0,7.0,6.0,2.0,-2.0,-1.0,1.0
1706277141.4116287,0.0,14.0,-6.0,-7.0,-1.0,1.0,0.0,-4.0
1706277141.4213111,0.0,-8.0,-7.0,12.0,5.0,0.0,2.0,-1.0
1706277141.4213111,0.0,-1.0,4.0,-10.0,-6.0,-5.0,-4.0,-1.0
1706277141.431335,-2.0,-2.0,-1.0,-6.0,-4.0,-1.0,-2.0,-4.0
1706277141.431335,-2.0,-7.0,6.0,-6.0,-4.0,-5.0,-4.0,-3.0
1706277141.4513147,4.0,19.0,-2.0,4.0,-1.0,-2.0,0.0,-2.0
1706277141.4513147,-16.0,-18.0,-7.0,4.0,3.0,4.0,4.0,-3.0
1706277141.4513147,6.0,-5.0,16.0,11.0,4.0,2.0,-3.0,3.0
1706277141.4513147,-4.0,-1.0,-14.0,-13.0,-8.0,-7.0,-7.0,-2.0
1706277141.46161,-12.0,-18.0,5.0,-10.0,-11.0,-20.0,-12.0,-9.0
1706277141.46161,3.0,8.0,-5.0,-1.0,1.0,4.0,1.0,-3.0
1706277141.4715936,-2.0,3.0,5.0,0.0,0.0,-1.0,2.0,-6.0
1706277141.4715936,-7.0,-11.0,-2.0,7.0,3.0,-1.0,-1.0,-2.0
1706277141.491249,2.0,1.0,2.0,-1.0,2.0,0.0,0.0,-1.0
1706277141.491249,-1.0,5.0,0.0,-6.0,-3.0,-4.0,-4.0,-2.0
1706277141.492231,-1.0,8.0,-7.0,-3.0,-2.0,-4.0,-3.0,-2.0
1706277141.4932327,1.0,-15.0,-15.0,-5.0,-1.0,0.0,0.0,2.0
1706277141.507506,0.0,10.0,-8.0,-8.0,-1.0,1.0,1.0,-3.0
1706277141.507506,6.0,14.0,0.0,2.0,-1.0,0.0,-2.0,0.0
1706277141.507506,-2.0,1.0,4.0,-2.0,0.0,2.0,2.0,4.0
1706277141.507506,-5.0,-5.0,9.0,4.0,1.0,-2.0,-1.0,-2.0
1706277141.5276983,-3.0,-7.0,-2.0,4.0,1.0,3.0,1.0,2.0
1706277141.5276983,2.0,-4.0,-10.0,-1.0,-4.0,-9.0,-4.0,-5.0
1706277141.5276983,4.0,11.0,1.0,-4.0,0.0,3.0,4.0,1.0
1706277141.5276983,-4.0,3.0,-5.0,14.0,3.0,3.0,1.0,-2.0
1706277141.5475073,0.0,-2.0,25.0,-9.0,1.0,2.0,1.0,1.0
1706277141.5475073,-4.0,-3.0,-31.0,-13.0,-9.0,-9.0,-7.0,-4.0
1706277141.5475073,5.0,6.0,6.0,-1.0,5.0,-1.0,-1.0,1.0
1706277141.5475073,-8.0,-24.0,-1.0,0.0,-5.0,-13.0,-10.0,-5.0
1706277141.5675142,5.0,4.0,4.0,17.0,8.0,18.0,11.0,4.0
1706277141.5675142,-1.0,-9.0,-25.0,15.0,8.0,3.0,7.0,7.0
1706277141.5675142,-1.0,-2.0,-11.0,-61.0,-17.0,-7.0,-5.0,-2.0
1706277141.5675142,0.0,3.0,1.0,-5.0,-7.0,-4.0,-4.0,-1.0
1706277141.6075118,-4.0,-8.0,-10.0,-6.0,-4.0,-6.0,-8.0,-2.0
1706277141.6075118,-5.0,-3.0,10.0,8.0,0.0,-4.0,0.0,0.0
1706277141.6075118,0.0,-1.0,-1.0,23.0,10.0,16.0,3.0,2.0
1706277141.6075118,-1.0,3.0,1.0,-7.0,-7.0,-14.0,-6.0,-2.0
1706277141.6075118,0.0,4.0,-9.0,-9.0,-9.0,-15.0,-7.0,-2.0
1706277141.6075118,3.0,4.0,15.0,5.0,1.0,6.0,0.0,1.0
1706277141.6178014,-6.0,-4.0,-13.0,4.0,-3.0,-11.0,-12.0,-5.0
1706277141.6178014,-11.0,-16.0,5.0,-9.0,-2.0,5.0,1.0,13.0
1706277141.6277664,11.0,5.0,6.0,7.0,-9.0,-31.0,-33.0,-28.0
1706277141.6277664,7.0,19.0,6.0,3.0,10.0,42.0,35.0,20.0
1706277141.6376894,-3.0,-21.0,-6.0,0.0,-4.0,-12.0,3.0,5.0
1706277141.6376894,10.0,9.0,-5.0,-1.0,4.0,6.0,-6.0,-4.0
1706277141.6475067,-7.0,-9.0,-3.0,5.0,7.0,12.0,8.0,9.0
1706277141.6475067,4.0,4.0,4.0,-15.0,-11.0,-19.0,-12.0,-4.0
1706277141.6475067,6.0,-1.0,11.0,8.0,3.0,1.0,-1.0,-4.0
1706277141.6475067,-1.0,2.0,4.0,-5.0,-6.0,10.0,8.0,-1.0
1706277141.6678188,-5.0,4.0,-32.0,-25.0,-16.0,-10.0,0.0,1.0
1706277141.6678188,-7.0,12.0,57.0,25.0,1.0,-11.0,-11.0,-14.0
1706277141.6678188,-1.0,5.0,21.0,-5.0,-30.0,-4.0,-1.0,1.0
1706277141.6678188,0.0,7.0,-3.0,53.0,68.0,13.0,5.0,-2.0
1706277141.687871,-4.0,-13.0,-3.0,-26.0,-18.0,2.0,5.0,5.0
1706277141.687871,-1.0,-23.0,-58.0,-59.0,-42.0,-16.0,-6.0,-1.0
1706277141.687871,-7.0,4.0,36.0,78.0,76.0,19.0,0.0,-4.0
1706277141.687871,9.0,14.0,-7.0,-25.0,8.0,9.0,10.0,6.0
1706277141.707511,-3.0,0.0,6.0,61.0,22.0,6.0,4.0,-4.0
1706277141.707511,4.0,3.0,1.0,-16.0,-1.0,3.0,0.0,-1.0
1706277141.707511,-7.0,-8.0,-14.0,-30.0,-39.0,-23.0,-8.0,-2.0
1706277141.707511,-1.0,-4.0,-12.0,-17.0,-15.0,4.0,2.0,-4.0
1706277141.7277865,-3.0,0.0,6.0,-5.0,9.0,14.0,12.0,8.0
1706277141.7277865,0.0,-7.0,-2.0,-6.0,-10.0,-9.0,-6.0,-4.0
1706277141.7277865,2.0,2.0,-14.0,-7.0,-2.0,-1.0,-1.0,0.0
1706277141.7277865,-7.0,-1.0,11.0,8.0,-14.0,-15.0,-9.0,-6.0
1706277141.747834,-2.0,-2.0,-6.0,-19.0,-9.0,5.0,4.0,1.0
1706277141.747834,-2.0,1.0,-1.0,14.0,7.0,-5.0,-6.0,-2.0
1706277141.747834,6.0,-1.0,-4.0,-2.0,-5.0,2.0,-2.0,-1.0
1706277141.747834,-2.0,7.0,4.0,1.0,1.0,4.0,3.0,-1.0
1706277141.777505,-5.0,-7.0,-9.0,-11.0,0.0,-2.0,0.0,1.0
1706277141.777505,-1.0,-1.0,-3.0,-2.0,-2.0,-3.0,-4.0,-2.0
1706277141.777505,-2.0,3.0,8.0,16.0,15.0,3.0,3.0,-1.0
1706277141.777505,0.0,-4.0,0.0,0.0,-14.0,-10.0,-5.0,-2.0
1706277141.7877097,3.0,4.0,-3.0,3.0,5.0,2.0,0.0,1.0
1706277141.7877097,-5.0,-7.0,-1.0,8.0,8.0,-1.0,-3.0,-3.0
1706277141.7877097,-3.0,-2.0,-8.0,-22.0,-19.0,-4.0,-2.0,-1.0
1706277141.7877097,3.0,3.0,0.0,-3.0,-9.0,-5.0,-4.0,0.0
1706277141.8375049,-1.0,-1.0,2.0,4.0,3.0,5.0,3.0,0.0
1706277141.8375049,-6.0,-8.0,-7.0,-8.0,-1.0,0.0,4.0,-3.0
1706277141.8375049,0.0,0.0,-3.0,-4.0,-4.0,-4.0,-4.0,-3.0
1706277141.8375049,1.0,0.0,0.0,3.0,-1.0,12.0,7.0,1.0
1706277141.8375049,2.0,-1.0,-1.0,0.0,3.0,3.0,1.0,5.0
1706277141.8375049,-3.0,-2.0,4.0,5.0,2.0,-5.0,-6.0,-6.0
1706277141.8375049,2.0,6.0,-1.0,3.0,3.0,4.0,2.0,2.0
1706277141.8375049,-3.0,-7.0,-5.0,-11.0,-9.0,-9.0,-5.0,-3.0
1706277141.8478448,-3.0,-5.0,0.0,-5.0,-4.0,-6.0,-3.0,-1.0
1706277141.8478448,2.0,14.0,-9.0,5.0,3.0,3.0,2.0,4.0
1706277141.857697,-4.0,-20.0,-7.0,-3.0,-3.0,-3.0,-5.0,-6.0
1706277141.857697,2.0,8.0,-1.0,-6.0,-6.0,-3.0,-1.0,0.0
1706277141.877506,1.0,5.0,-2.0,1.0,1.0,0.0,0.0,-4.0
1706277141.877506,-1.0,-5.0,-10.0,2.0,4.0,-2.0,-3.0,-3.0
1706277141.877506,-4.0,4.0,2.0,-1.0,0.0,4.0,1.0,1.0
1706277141.877506,2.0,7.0,4.0,-1.0,-7.0,-4.0,-3.0,0.0
1706277141.8875053,-4.0,-6.0,-1.0,-4.0,-2.0,-4.0,-2.0,-2.0
1706277141.8875053,1.0,10.0,-9.0,-3.0,-4.0,-1.0,-1.0,-5.0
1706277141.8875053,5.0,9.0,24.0,10.0,6.0,2.0,0.0,3.0
1706277141.8875053,-8.0,-21.0,-31.0,-9.0,-4.0,-4.0,-2.0,-3.0
1706277141.907847,-2.0,-2.0,11.0,0.0,-3.0,0.0,-3.0,-3.0
1706277141.907847,6.0,-2.0,11.0,4.0,3.0,2.0,-1.0,6.0
1706277141.9177165,-7.0,-15.0,19.0,8.0,-2.0,-2.0,-1.0,-4.0
1706277141.9177165,-3.0,-20.0,-31.0,-5.0,-3.0,-2.0,0.0,-2.0
1706277141.937507,8.0,11.0,13.0,-2.0,-2.0,-3.0,0.0,1.0
1706277141.937507,-12.0,-21.0,6.0,-7.0,-5.0,-4.0,-5.0,-4.0
1706277141.937507,1.0,-1.0,-41.0,8.0,3.0,1.0,-1.0,-2.0
1706277141.937507,2.0,7.0,21.0,-25.0,-8.0,-1.0,0.0,0.0
1706277141.9478168,0.0,-6.0,-4.0,-3.0,-3.0,-6.0,-2.0,0.0
1706277141.9478168,0.0,0.0,11.0,12.0,4.0,0.0,-2.0,-1.0
1706277141.9478168,3.0,10.0,6.0,-3.0,-1.0,0.0,-1.0,-1.0
1706277141.9478168,-5.0,-1.0,7.0,27.0,1.0,-13.0,-4.0,-6.0
1706277141.977838,-3.0,-3.0,-19.0,-10.0,2.0,12.0,5.0,0.0
1706277141.977838,-2.0,-2.0,20.0,-16.0,-12.0,-8.0,-7.0,-5.0
1706277141.977838,-4.0,-11.0,-11.0,-8.0,-1.0,0.0,-4.0,-2.0
1706277141.977838,-1.0,3.0,6.0,6.0,-1.0,1.0,2.0,1.0
1706277141.9975066,4.0,11.0,9.0,11.0,1.0,-4.0,-3.0,-1.0
1706277141.9975066,3.0,0.0,10.0,14.0,7.0,2.0,-1.0,1.0
1706277141.9975066,-2.0,-9.0,-30.0,-20.0,-13.0,-10.0,-6.0,1.0
1706277141.9975066,2.0,16.0,15.0,-4.0,-2.0,1.0,-1.0,-2.0
1706277142.007509,-2.0,13.0,2.0,5.0,-1.0,-4.0,-2.0,-1.0
1706277142.007509,0.0,-3.0,-40.0,-5.0,0.0,3.0,3.0,1.0
1706277142.007509,4.0,-6.0,13.0,-7.0,-2.0,-1.0,-1.0,3.0
1706277142.0175204,-6.0,-6.0,14.0,6.0,3.0,4.0,4.0,0.0
1706277142.0312583,-3.0,-10.0,-8.0,-8.0,-8.0,-8.0,-6.0,-5.0
1706277142.0312583,-2.0,-3.0,-4.0,6.0,4.0,-9.0,-6.0,0.0
1706277142.0600388,1.0,7.0,17.0,4.0,0.0,0.0,1.0,-2.0
1706277142.0600388,1.0,-5.0,-19.0,-5.0,-1.0,-1.0,-1.0,-3.0
1706277142.0600388,-3.0,-10.0,-11.0,-5.0,-3.0,-7.0,-4.0,-5.0
1706277142.0600388,-1.0,0.0,10.0,3.0,2.0,3.0,1.0,0.0
1706277142.0600388,0.0,5.0,-11.0,0.0,1.0,2.0,3.0,-2.0
1706277142.0600388,0.0,5.0,-2.0,-5.0,-2.0,-2.0,-3.0,-3.0
1706277142.0704174,-1.0,-6.0,-7.0,-5.0,0.0,1.0,1.0,2.0
1706277142.0704174,0.0,2.0,-5.0,5.0,4.0,3.0,2.0,0.0
1706277142.0704174,-1.0,5.0,4.0,-12.0,-5.0,-2.0,-1.0,-1.0
1706277142.0704174,5.0,5.0,-2.0,16.0,4.0,-5.0,-5.0,1.0
1706277142.0903625,-5.0,2.0,27.0,-3.0,4.0,9.0,4.0,-2.0
1706277142.0903625,2.0,10.0,1.0,-8.0,2.0,14.0,9.0,3.0
1706277142.1000402,0.0,7.0,-17.0,0.0,3.0,1.0,-1.0,-3.0
1706277142.1000402,-1.0,3.0,10.0,-5.0,-4.0,-2.0,-2.0,-3.0
1706277142.110077,-8.0,-16.0,0.0,13.0,4.0,-3.0,-3.0,2.0
1706277142.110077,-4.0,-1.0,-10.0,-4.0,-6.0,-13.0,-7.0,0.0
1706277142.110077,-2.0,-4.0,-2.0,1.0,0.0,8.0,3.0,-3.0
1706277142.110077,1.0,-4.0,2.0,-3.0,3.0,6.0,2.0,2.0
1706277142.1304524,9.0,19.0,-5.0,7.0,1.0,-2.0,1.0,2.0
1706277142.1304524,-5.0,3.0,34.0,-4.0,-6.0,-5.0,-3.0,-2.0
1706277142.1404102,-6.0,-16.0,-28.0,-14.0,-5.0,-8.0,-3.0,-2.0
1706277142.1404102,-8.0,-25.0,-5.0,-3.0,-4.0,-4.0,-3.0,-4.0
1706277142.1502805,-2.0,-5.0,-12.0,3.0,0.0,3.0,1.0,-1.0
1706277142.1502805,-1.0,-14.0,-9.0,16.0,2.0,0.0,0.0,0.0
1706277142.1600442,2.0,14.0,5.0,-20.0,-5.0,-4.0,-3.0,0.0
1706277142.1600442,0.0,2.0,18.0,6.0,2.0,1.0,1.0,0.0
1706277142.1700757,-3.0,-5.0,-17.0,-7.0,-1.0,-4.0,0.0,-3.0
1706277142.1700757,1.0,4.0,4.0,1.0,4.0,8.0,4.0,2.0
1706277142.1700757,-5.0,-6.0,-3.0,3.0,2.0,3.0,2.0,-3.0
1706277142.1700757,2.0,4.0,1.0,2.0,0.0,-2.0,0.0,0.0
1706277142.1902375,-2.0,-3.0,-6.0,-4.0,-3.0,-2.0,0.0,0.0
1706277142.1902375,-2.0,3.0,-6.0,-17.0,-6.0,-8.0,-5.0,-3.0
1706277142.1902375,-4.0,-17.0,-1.0,7.0,0.0,-1.0,1.0,0.0
1706277142.1902375,-4.0,-2.0,-4.0,2.0,-1.0,0.0,-2.0,-4.0
1706277142.2103624,1.0,4.0,20.0,1.0,0.0,0.0,-2.0,0.0
1706277142.2103624,-2.0,-4.0,4.0,-5.0,-5.0,-9.0,-6.0,-5.0
1706277142.2200422,4.0,9.0,-20.0,-4.0,4.0,0.0,1.0,2.0
1706277142.2200422,-2.0,-3.0,-5.0,-3.0,0.0,0.0,-2.0,-3.0
1706277142.230076,0.0,3.0,3.0,-1.0,-4.0,-3.0,-1.0,1.0
1706277142.230076,1.0,8.0,-4.0,-8.0,0.0,1.0,0.0,4.0
1706277142.230076,2.0,20.0,29.0,17.0,2.0,-1.0,-2.0,-6.0
1706277142.230076,0.0,-10.0,-23.0,-4.0,-4.0,-2.0,-1.0,-1.0
1706277142.2503278,-4.0,-13.0,-4.0,-4.0,-1.0,-2.0,-2.0,0.0
1706277142.2503278,-4.0,-10.0,-9.0,2.0,1.0,1.0,2.0,-2.0
1706277142.2503278,1.0,-5.0,3.0,3.0,1.0,0.0,-3.0,2.0
1706277142.2503278,1.0,12.0,6.0,-1.0,1.0,2.0,3.0,3.0
1706277142.2702572,-4.0,-1.0,7.0,-12.0,-5.0,-3.0,-2.0,-2.0
1706277142.2702572,2.0,5.0,-11.0,-1.0,1.0,-4.0,-4.0,-3.0
1706277142.3000386,-11.0,-23.0,9.0,3.0,-5.0,0.0,-2.0,-3.0
1706277142.3000386,3.0,8.0,-3.0,-8.0,0.0,0.0,2.0,0.0
1706277142.3000386,-2.0,-8.0,2.0,5.0,-1.0,-3.0,-5.0,-3.0
1706277142.3000386,0.0,5.0,2.0,6.0,2.0,8.0,3.0,0.0
1706277142.3000386,0.0,-6.0,-4.0,-6.0,-5.0,-5.0,-3.0,-1.0
1706277142.3000386,0.0,5.0,7.0,1.0,-1.0,9.0,2.0,1.0
1706277142.3104303,0.0,1.0,-1.0,1.0,-2.0,0.0,-2.0,-4.0
1706277142.3104303,-2.0,-10.0,12.0,0.0,-2.0,-3.0,-2.0,0.0
1706277142.3104303,-2.0,0.0,-12.0,-1.0,-6.0,-4.0,-5.0,-4.0
1706277142.3104303,-2.0,-8.0,-14.0,0.0,2.0,11.0,6.0,4.0
1706277142.3300397,-3.0,-2.0,16.0,1.0,-1.0,-5.0,-5.0,-1.0
1706277142.3300397,2.0,-4.0,6.0,-3.0,-2.0,4.0,10.0,-1.0
1706277142.3300397,-2.0,6.0,6.0,-5.0,-1.0,2.0,2.0,1.0
1706277142.3300397,0.0,-2.0,1.0,-2.0,-4.0,-12.0,-6.0,0.0
1706277142.350295,2.0,2.0,-1.0,3.0,3.0,4.0,2.0,1.0
1706277142.350295,-2.0,1.0,-6.0,-3.0,0.0,-2.0,-3.0,-3.0
1706277142.350295,0.0,-1.0,1.0,-3.0,-2.0,1.0,-1.0,-1.0
1706277142.350295,0.0,0.0,3.0,-1.0,-1.0,-3.0,-3.0,-5.0
1706277142.3900406,1.0,3.0,-9.0,-1.0,-3.0,-2.0,-3.0,0.0
1706277142.3900406,0.0,-3.0,1.0,4.0,2.0,-1.0,1.0,0.0
1706277142.3900406,-7.0,-13.0,16.0,18.0,0.0,-5.0,-4.0,-6.0
1706277142.3900406,-10.0,-17.0,-23.0,-21.0,-6.0,-6.0,-6.0,-6.0
1706277142.3900406,-10.0,-5.0,-12.0,-18.0,-9.0,-8.0,-6.0,-14.0
1706277142.3900406,-3.0,-4.0,-6.0,2.0,-2.0,0.0,-2.0,-2.0
1706277142.3900406,6.0,11.0,23.0,-1.0,1.0,4.0,4.0,4.0
1706277142.3900406,1.0,5.0,6.0,7.0,-1.0,-3.0,-2.0,0.0
1706277142.4104269,3.0,-1.0,-6.0,5.0,-1.0,-2.0,1.0,2.0
1706277142.4104269,-2.0,5.0,-1.0,1.0,-2.0,0.0,-3.0,-3.0
1706277142.4104269,-2.0,-2.0,-12.0,-4.0,-1.0,-2.0,-2.0,-2.0
1706277142.4104269,0.0,1.0,9.0,0.0,0.0,-2.0,-2.0,-1.0
1706277142.4300406,2.0,3.0,-11.0,-2.0,2.0,2.0,3.0,4.0
1706277142.4300406,-2.0,-1.0,0.0,1.0,-1.0,-5.0,-5.0,-2.0
1706277142.4400737,-3.0,-4.0,-7.0,-5.0,-1.0,-2.0,0.0,2.0
1706277142.4400737,-1.0,-5.0,1.0,5.0,-5.0,-5.0,-3.0,-2.0
1706277142.450325,4.0,2.0,29.0,0.0,0.0,2.0,0.0,3.0
1706277142.450325,-3.0,-3.0,-18.0,-6.0,1.0,-2.0,-3.0,0.0
