1706276937.0740201,-1.0,-1.0,-3.0,-2.0,0.0,0.0,-2.0,-1.0
1706276937.0740201,0.0,0.0,1.0,-2.0,-1.0,-2.0,-1.0,-1.0
1706276937.0740201,-1.0,-1.0,-1.0,0.0,0.0,-1.0,0.0,-1.0
1706276937.0740201,0.0,-1.0,-1.0,0.0,1.0,0.0,0.0,-3.0
1706276937.104018,-2.0,-1.0,0.0,-2.0,-3.0,1.0,1.0,0.0
1706276937.104018,-1.0,0.0,-1.0,-1.0,-1.0,-1.0,0.0,-1.0
1706276937.104018,0.0,0.0,0.0,-2.0,-2.0,-1.0,-3.0,-1.0
1706276937.104018,0.0,-1.0,-3.0,-2.0,-1.0,-1.0,0.0,0.0
1706276937.1141162,0.0,-1.0,-2.0,-2.0,-2.0,-2.0,-1.0,0.0
1706276937.1141162,-2.0,-1.0,-2.0,0.0,0.0,0.0,1.0,-2.0
1706276937.1141162,0.0,-2.0,-2.0,-1.0,1.0,1.0,-1.0,-1.0
1706276937.1141162,-1.0,0.0,-1.0,-1.0,0.0,-2.0,-2.0,0.0
1706276937.1540196,-1.0,-1.0,1.0,0.0,-1.0,-2.0,-1.0,-1.0
1706276937.1540196,0.0,-1.0,0.0,-1.0,-2.0,-2.0,-1.0,-1.0
1706276937.1540196,-3.0,-2.0,-2.0,0.0,0.0,0.0,-1.0,-1.0
1706276937.1540196,-1.0,0.0,-2.0,-2.0,-1.0,-1.0,-2.0,0.0
1706276937.1540196,-2.0,-2.0,-1.0,-1.0,0.0,-2.0,-2.0,-1.0
1706276937.1540196,-1.0,-1.0,-1.0,-1.0,-1.0,0.0,-1.0,-1.0
1706276937.1540196,-1.0,-1.0,-1.0,-1.0,0.0,-1.0,2.0,-2.0
1706276937.1540196,-1.0,0.0,-1.0,-2.0,-1.0,0.0,-1.0,-2.0
1706276937.1743639,-2.0,0.0,-2.0,0.0,-1.0,0.0,-1.0,0.0
1706276937.1743639,-1.0,-1.0,-3.0,0.0,-1.0,0.0,-2.0,-1.0
1706276937.1743639,-2.0,-2.0,-1.0,-1.0,-3.0,-1.0,-1.0,-1.0
1706276937.1743639,-1.0,-1.0,1.0,1.0,-1.0,-1.0,0.0,-2.0
1706276937.18432,0.0,-1.0,-1.0,-2.0,-2.0,-3.0,0.0,-1.0
1706276937.18432,0.0,-1.0,0.0,-3.0,-1.0,-1.0,-1.0,-1.0
1706276937.2140195,-2.0,0.0,-2.0,0.0,2.0,-1.0,-1.0,0.0
1706276937.2140195,0.0,-1.0,-2.0,-2.0,-2.0,-1.0,0.0,-3.0
1706276937.2140195,0.0,-1.0,-1.0,-1.0,0.0,-1.0,-2.0,-3.0
1706276937.2140195,-2.0,-1.0,-1.0,-2.0,-1.0,0.0,-1.0,-2.0
1706276937.2140195,0.0,0.0,0.0,0.0,-1.0,-1.0,0.0,0.0
1706276937.2140195,-2.0,-1.0,-1.0,-2.0,-2.0,-2.0,0.0,1.0
1706276937.2344263,0.0,-2.0,-3.0,-1.0,0.0,0.0,0.0,0.0
1706276937.2344263,0.0,-1.0,-2.0,-1.0,0.0,-2.0,-1.0,-1.0
1706276937.2344263,0.0,0.0,-2.0,-1.0,-2.0,0.0,-1.0,-2.0
1706276937.2344263,0.0,-1.0,-1.0,-1.0,0.0,-1.0,0.0,-3.0
1706276937.2444162,-2.0,0.0,-1.0,-1.0,-2.0,-2.0,-1.0,-3.0
1706276937.2444162,0.0,-2.0,-1.0,0.0,0.0,-2.0,-1.0,-1.0
1706276937.2640188,-1.0,-1.0,-2.0,-2.0,-1.0,-1.0,0.0,-1.0
1706276937.2640188,-1.0,-1.0,-2.0,-1.0,-1.0,0.0,-1.0,-1.0
1706276937.274018,-2.0,-1.0,1.0,-1.0,-1.0,0.0,-3.0,0.0
1706276937.274018,0.0,0.0,-2.0,-3.0,-2.0,0.0,-1.0,-1.0
1706276937.274018,-1.0,2.0,-1.0,-1.0,-2.0,-1.0,-1.0,-1.0
1706276937.274018,0.0,-1.0,0.0,0.0,-2.0,0.0,-1.0,-2.0
1706276937.2944283,0.0,0.0,0.0,-1.0,-1.0,-1.0,1.0,-3.0
1706276937.2944283,-1.0,0.0,0.0,-1.0,-1.0,-1.0,-3.0,1.0
1706276937.2944283,1.0,-2.0,0.0,-2.0,-1.0,0.0,-1.0,-1.0
1706276937.2944283,-1.0,-2.0,-1.0,-3.0,0.0,-2.0,-1.0,-2.0
1706276937.3040187,-2.0,-2.0,-1.0,-1.0,-2.0,1.0,0.0,-1.0
1706276937.3040187,-3.0,0.0,-1.0,0.0,-1.0,-2.0,-2.0,0.0
1706276937.314052,-2.0,-1.0,-3.0,-2.0,0.0,-2.0,-1.0,-2.0
1706276937.314052,-2.0,-1.0,-1.0,-1.0,-1.0,-1.0,0.0,0.0
1706276937.3343463,0.0,-2.0,-2.0,0.0,-1.0,-1.0,-2.0,1.0
1706276937.3343463,-2.0,-1.0,0.0,-1.0,-1.0,-2.0,1.0,-3.0
1706276937.3343463,-2.0,-2.0,-2.0,0.0,-1.0,-2.0,-1.0,-2.0
1706276937.3343463,0.0,-2.0,0.0,0.0,-1.0,-2.0,0.0,-1.0
1706276937.3543558,-1.0,-1.0,-1.0,-1.0,1.0,-1.0,-1.0,-1.0
1706276937.3543558,-2.0,0.0,-1.0,-1.0,-3.0,-1.0,-2.0,-1.0
1706276937.3543558,0.0,-1.0,-1.0,-1.0,-1.0,-1.0,0.0,-1.0
1706276937.3543558,0.0,0.0,-2.0,-1.0,-2.0,-1.0,-2.0,0.0
1706276937.384021,0.0,0.0,0.0,-1.0,-2.0,0.0,-1.0,-1.0
1706276937.384021,0.0,0.0,0.0,-2.0,-2.0,0.0,-1.0,-2.0
1706276937.384021,0.0,-3.0,0.0,-1.0,1.0,0.0,-2.0,0.0
1706276937.384021,0.0,-2.0,-2.0,-1.0,-3.0,-1.0,-2.0,-3.0
1706276937.3942351,0.0,1.0,-2.0,-1.0,0.0,-1.0,0.0,-1.0
1706276937.3942351,-3.0,0.0,-2.0,0.0,-1.0,0.0,0.0,0.0
1706276937.3942351,0.0,1.0,0.0,0.0,-2.0,-1.0,-2.0,-1.0
1706276937.3942351,-2.0,0.0,0.0,-2.0,-1.0,0.0,0.0,0.0
1706276937.4240184,0.0,-2.0,-1.0,-3.0,-1.0,-4.0,-2.0,-1.0
1706276937.4240184,-1.0,-3.0,-2.0,-1.0,-1.0,-2.0,-2.0,-1.0
1706276937.4240184,-2.0,-2.0,1.0,0.0,-2.0,-3.0,-3.0,0.0
1706276937.4240184,0.0,-1.0,-1.0,-1.0,0.0,0.0,0.0,0.0
1706276937.4240184,-1.0,-2.0,-2.0,-2.0,-1.0,-1.0,0.0,-1.0
1706276937.4240184,0.0,0.0,-1.0,0.0,-1.0,0.0,-1.0,1.0
1706276937.4343894,-1.0,-1.0,-2.0,-1.0,0.0,-2.0,-2.0,-1.0
1706276937.4343894,-1.0,-1.0,-3.0,1.0,0.0,0.0,-1.0,-1.0
1706276937.4544442,-1.0,-2.0,-1.0,-1.0,0.0,-1.0,0.0,1.0
1706276937.4544442,0.0,-1.0,-1.0,-2.0,0.0,1.0,-1.0,-1.0
1706276937.4544442,0.0,0.0,-1.0,0.0,-2.0,1.0,0.0,-1.0
1706276937.4544442,-2.0,-1.0,0.0,-3.0,-3.0,-1.0,-2.0,-2.0
1706276937.47402,0.0,0.0,-1.0,0.0,-3.0,-1.0,-1.0,-1.0
1706276937.47402,0.0,-2.0,1.0,0.0,-1.0,0.0,-2.0,0.0
1706276937.47402,-3.0,0.0,-2.0,-2.0,-1.0,-1.0,-1.0,-1.0
1706276937.47402,-1.0,0.0,-1.0,-1.0,1.0,-2.0,0.0,0.0
1706276937.4842732,-1.0,-1.0,0.0,-2.0,-2.0,-1.0,-2.0,-2.0
1706276937.4842732,-1.0,-1.0,-2.0,-1.0,0.0,1.0,0.0,-1.0
1706276937.4942749,0.0,-1.0,-1.0,-1.0,0.0,-1.0,-3.0,-1.0
1706276937.4942749,0.0,-1.0,0.0,0.0,0.0,-1.0,-1.0,-3.0
1706276937.514302,-2.0,1.0,-1.0,-1.0,-1.0,-2.0,0.0,0.0
1706276937.514302,1.0,-2.0,-1.0,-1.0,1.0,-1.0,-1.0,-1.0
1706276937.514302,-1.0,-3.0,-2.0,-2.0,-2.0,-1.0,0.0,-2.0
1706276937.514302,-1.0,-2.0,-1.0,-1.0,-1.0,0.0,0.0,-1.0
1706276937.5440195,-1.0,-2.0,0.0,-1.0,-1.0,-1.0,-2.0,-2.0
1706276937.5440195,-1.0,-1.0,-2.0,-1.0,1.0,-1.0,-1.0,0.0
1706276937.5440195,-2.0,0.0,0.0,0.0,0.0,-1.0,0.0,0.0
1706276937.5440195,-3.0,-1.0,-3.0,-1.0,-1.0,0.0,-3.0,-2.0
1706276937.5440195,-2.0,-3.0,0.0,-1.0,0.0,-1.0,0.0,0.0
1706276937.5440195,-1.0,-1.0,-3.0,-1.0,-3.0,0.0,0.0,-2.0
1706276937.5543742,0.0,-2.0,0.0,-2.0,-2.0,0.0,-2.0,-1.0
1706276937.5543742,0.0,-2.0,-1.0,-1.0,-2.0,-2.0,-1.0,1.0
1706276937.5824783,0.0,0.0,0.0,0.0,0.0,1.0,1.0,-2.0
1706276937.5824783,0.0,-2.0,0.0,0.0,0.0,-2.0,1.0,1.0
1706276937.583488,0.0,-1.0,0.0,0.0,0.0,-2.0,0.0,-1.0
1706276937.583488,-1.0,-1.0,0.0,0.0,0.0,0.0,-1.0,-2.0
1706276937.6063383,-1.0,-1.0,-1.0,-1.0,-1.0,0.0,0.0,-1.0
1706276937.6063383,-1.0,-2.0,-2.0,0.0,1.0,-3.0,0.0,-1.0
1706276937.6063383,-2.0,-2.0,-2.0,-2.0,-1.0,-1.0,1.0,-1.0
1706276937.6063383,-2.0,-1.0,0.0,-2.0,-2.0,-1.0,0.0,0.0
1706276937.6075044,0.0,-1.0,-2.0,-1.0,0.0,-1.0,-3.0,-1.0
1706276937.6075044,-1.0,-1.0,-1.0,-1.0,-3.0,-1.0,-1.0,-1.0
1706276937.6178057,-2.0,0.0,0.0,-2.0,0.0,0.0,0.0,0.0
1706276937.6178057,0.0,-2.0,-2.0,-1.0,-1.0,-3.0,-2.0,1.0
1706276937.6278307,-2.0,-2.0,-1.0,0.0,-1.0,0.0,-1.0,-2.0
1706276937.6278307,-1.0,1.0,-1.0,-1.0,-2.0,-3.0,-2.0,-1.0
1706276937.6278307,-1.0,-1.0,-1.0,-2.0,-2.0,-2.0,-1.0,-1.0
1706276937.6278307,0.0,-2.0,1.0,-1.0,-1.0,0.0,1.0,-1.0
1706276937.6578248,0.0,-1.0,0.0,0.0,-2.0,-1.0,-1.0,-1.0
1706276937.6578248,0.0,-1.0,0.0,-2.0,-2.0,-1.0,-2.0,-1.0
1706276937.6578248,0.0,-2.0,-1.0,1.0,0.0,0.0,-1.0,-2.0
1706276937.6578248,-1.0,0.0,-1.0,0.0,-1.0,-1.0,-1.0,-1.0
1706276937.667824,-1.0,1.0,0.0,-1.0,-1.0,0.0,0.0,0.0
1706276937.667824,-2.0,-1.0,0.0,-1.0,-1.0,0.0,-2.0,-1.0
1706276937.6782107,-1.0,0.0,-1.0,0.0,0.0,0.0,-1.0,-1.0
1706276937.6782107,-1.0,-1.0,0.0,-1.0,0.0,-1.0,-2.0,0.0
1706276937.697824,0.0,-2.0,-2.0,-3.0,0.0,0.0,0.0,0.0
1706276937.697824,-2.0,-1.0,-1.0,-1.0,-2.0,-1.0,-1.0,0.0
1706276937.707829,-1.0,1.0,-1.0,-2.0,-2.0,-1.0,-1.0,-2.0
1706276937.707829,-1.0,-2.0,-2.0,-2.0,-1.0,-1.0,0.0,-2.0
1706276937.707829,-1.0,-1.0,-1.0,-3.0,-1.0,-2.0,-1.0,0.0
1706276937.707829,-1.0,-1.0,0.0,-2.0,-2.0,-1.0,-2.0,-1.0
1706276937.7178319,-1.0,-2.0,-3.0,-1.0,-1.0,-1.0,-3.0,0.0
1706276937.7178319,-2.0,0.0,-1.0,1.0,-2.0,-1.0,-2.0,0.0
1706276937.737828,-1.0,0.0,-1.0,0.0,-2.0,-1.0,-2.0,-1.0
1706276937.737828,-1.0,-1.0,-1.0,1.0,-1.0,-1.0,-1.0,-1.0
1706276937.7478304,-2.0,-1.0,1.0,-1.0,-1.0,-2.0,1.0,0.0
1706276937.7478304,0.0,-1.0,-2.0,-2.0,-2.0,-2.0,0.0,-1.0
1706276937.7678235,-2.0,-1.0,-1.0,-2.0,0.0,0.0,-1.0,0.0
1706276937.7678235,-1.0,0.0,-1.0,0.0,0.0,0.0,-1.0,-3.0
1706276937.7678235,0.0,-1.0,-1.0,1.0,-1.0,-1.0,1.0,-1.0
1706276937.7678235,-2.0,1.0,-2.0,-3.0,0.0,-2.0,-2.0,-1.0
1706276937.7678235,-1.0,-2.0,-1.0,0.0,-3.0,-2.0,-1.0,-2.0
1706276937.7678235,-3.0,-2.0,-1.0,-2.0,1.0,-1.0,0.0,-1.0
1706276937.7778263,-1.0,-1.0,0.0,-1.0,0.0,0.0,-2.0,0.0
1706276937.7778263,0.0,0.0,-1.0,-1.0,-1.0,-2.0,1.0,0.0
1706276937.7982562,-1.0,-2.0,-1.0,-1.0,-1.0,-1.0,-1.0,-2.0
1706276937.7982562,-1.0,-1.0,-2.0,1.0,0.0,0.0,1.0,-1.0
1706276937.8078253,0.0,-1.0,-1.0,-1.0,-1.0,-1.0,-1.0,-1.0
1706276937.8078253,-1.0,-2.0,-1.0,0.0,-1.0,1.0,-3.0,0.0
1706276937.8178236,-1.0,0.0,-1.0,-2.0,-1.0,0.0,0.0,-2.0
1706276937.8178236,-2.0,-1.0,0.0,-2.0,-1.0,-1.0,-2.0,-1.0
1706276937.82783,-2.0,-2.0,1.0,0.0,-1.0,-1.0,-1.0,-1.0
1706276937.82783,0.0,-1.0,1.0,-2.0,1.0,0.0,0.0,-3.0
1706276937.82783,0.0,0.0,1.0,1.0,1.0,-3.0,-2.0,-1.0
1706276937.82783,-2.0,0.0,-1.0,0.0,-2.0,-2.0,-1.0,-1.0
1706276937.8378327,-2.0,0.0,-2.0,0.0,0.0,0.0,0.0,-2.0
1706276937.8378327,0.0,0.0,0.0,0.0,-2.0,0.0,-1.0,-1.0
1706276937.8581367,0.0,0.0,-1.0,-2.0,-1.0,0.0,0.0,-1.0
1706276937.8581367,-3.0,-1.0,-1.0,-2.0,0.0,-1.0,-1.0,-1.0
1706276937.8581367,-1.0,-1.0,-2.0,-1.0,-2.0,-1.0,-1.0,0.0
1706276937.8581367,-3.0,-2.0,-2.0,-2.0,0.0,-1.0,-1.0,-2.0
1706276937.8878279,-1.0,-2.0,-2.0,-1.0,-2.0,-1.0,0.0,-1.0
1706276937.8878279,-1.0,-1.0,1.0,-2.0,-1.0,0.0,-1.0,-1.0
1706276937.8878279,0.0,-1.0,-1.0,-2.0,-1.0,-1.0,-1.0,-1.0
1706276937.8878279,0.0,0.0,-1.0,0.0,1.0,-2.0,-3.0,-2.0
1706276937.8878279,-2.0,-2.0,-1.0,-1.0,0.0,-2.0,-1.0,-1.0
1706276937.8878279,1.0,-2.0,-1.0,-1.0,-2.0,-3.0,-2.0,-1.0
1706276937.8978229,-1.0,-2.0,-2.0,-1.0,-1.0,-1.0,-2.0,0.0
1706276937.8978229,-2.0,-1.0,-1.0,-1.0,-3.0,0.0,-1.0,-1.0
1706276937.9178267,-1.0,-2.0,-1.0,-1.0,-1.0,0.0,-1.0,1.0
1706276937.9178267,0.0,0.0,-1.0,-1.0,-1.0,-1.0,0.0,-1.0
1706276937.9178267,-1.0,-1.0,0.0,-1.0,-1.0,0.0,-1.0,-2.0
1706276937.9178267,-1.0,-1.0,-1.0,-2.0,-2.0,-2.0,-1.0,-1.0
1706276937.9278238,0.0,-2.0,-1.0,-2.0,-1.0,-2.0,-1.0,-2.0
1706276937.9278238,-2.0,0.0,0.0,-2.0,-2.0,0.0,0.0,1.0
1706276937.9382,-3.0,0.0,1.0,-1.0,-1.0,-2.0,0.0,-1.0
1706276937.9382,-1.0,-1.0,0.0,-1.0,1.0,0.0,-1.0,-1.0
1706276937.9478269,-3.0,-2.0,-1.0,-2.0,-1.0,0.0,-1.0,0.0
1706276937.9478269,1.0,-2.0,-1.0,0.0,0.0,-2.0,-2.0,-2.0
1706276937.9578269,-1.0,1.0,-1.0,-1.0,1.0,-1.0,0.0,-2.0
1706276937.9578269,-1.0,-3.0,-1.0,-2.0,-1.0,0.0,-1.0,0.0
1706276937.9778268,-2.0,-1.0,-2.0,-1.0,-1.0,-1.0,1.0,-2.0
1706276937.9778268,0.0,-1.0,0.0,0.0,-1.0,-1.0,-2.0,1.0
1706276937.9778268,0.0,-2.0,-1.0,-1.0,-1.0,-1.0,-1.0,-1.0
1706276937.9778268,0.0,0.0,-2.0,1.0,0.0,-1.0,0.0,-1.0
1706276937.9878573,0.0,0.0,-1.0,0.0,0.0,-1.0,0.0,0.0
1706276937.9878573,-1.0,-1.0,-3.0,-2.0,-2.0,-1.0,0.0,0.0
1706276937.9980943,-2.0,-1.0,-1.0,-2.0,-2.0,-2.0,-2.0,-3.0
1706276937.9980943,-3.0,1.0,0.0,-1.0,-1.0,1.0,0.0,-1.0
1706276938.0078285,-2.0,-2.0,0.0,0.0,-3.0,-1.0,0.0,-2.0
1706276938.0078285,-3.0,0.0,1.0,-1.0,0.0,0.0,0.0,0.0
1706276938.017832,-2.0,-1.0,0.0,-1.0,0.0,0.0,-1.0,1.0
1706276938.017832,-1.0,-1.0,0.0,-2.0,-2.0,-2.0,-1.0,0.0
1706276938.0478237,-2.0,0.0,-3.0,0.0,-3.0,0.0,-2.0,-1.0
1706276938.0478237,0.0,-1.0,-3.0,-1.0,-2.0,0.0,-3.0,-4.0
1706276938.0478237,-1.0,-2.0,-1.0,1.0,-2.0,-2.0,-1.0,-2.0
1706276938.0478237,0.0,-1.0,-2.0,0.0,0.0,-2.0,0.0,-2.0
1706276938.0478237,0.0,-1.0,1.0,-1.0,0.0,-2.0,-2.0,-2.0
1706276938.0478237,-1.0,-1.0,-2.0,0.0,0.0,-1.0,1.0,-1.0
1706276938.0581691,-2.0,0.0,-1.0,1.0,-1.0,1.0,0.0,0.0
1706276938.0581691,-1.0,0.0,0.0,0.0,-1.0,1.0,-2.0,-1.0
1706276938.0878294,1.0,0.0,0.0,-2.0,0.0,-1.0,-1.0,-1.0
1706276938.0878294,0.0,0.0,0.0,-2.0,0.0,-1.0,1.0,-2.0
1706276938.0878294,2.0,-2.0,-2.0,-1.0,1.0,-1.0,0.0,-2.0
1706276938.0878294,-2.0,-1.0,-1.0,0.0,-3.0,0.0,-2.0,0.0
1706276938.0980392,-2.0,-2.0,-1.0,-1.0,-1.0,-3.0,-2.0,0.0
1706276938.0980392,-3.0,-1.0,1.0,-2.0,-1.0,-1.0,-1.0,-3.0
1706276938.0980392,-1.0,-1.0,0.0,0.0,-1.0,-2.0,-2.0,1.0
1706276938.0980392,0.0,-1.0,-1.0,0.0,0.0,-2.0,0.0,-1.0
1706276938.1127453,-1.0,0.0,-2.0,-1.0,-2.0,0.0,-1.0,-1.0
1706276938.1127453,-1.0,-1.0,-1.0,-2.0,-3.0,0.0,0.0,0.0
1706276938.1227658,0.0,0.0,-2.0,-3.0,-2.0,0.0,0.0,0.0
1706276938.1227658,0.0,-2.0,0.0,-2.0,-2.0,-4.0,0.0,-1.0
1706276938.1363056,-1.0,0.0,-1.0,0.0,-1.0,1.0,0.0,-2.0
1706276938.1363056,-1.0,0.0,0.0,-2.0,0.0,-3.0,-1.0,-1.0
1706276938.1383567,-1.0,-1.0,-2.0,-1.0,0.0,-2.0,-1.0,-1.0
1706276938.1383567,-2.0,-3.0,-2.0,-1.0,-1.0,-1.0,1.0,-1.0
1706276938.1496255,-2.0,0.0,-3.0,-1.0,0.0,-3.0,-2.0,-2.0
1706276938.1496255,-1.0,-2.0,-3.0,0.0,-1.0,-1.0,-1.0,-2.0
1706276938.1596284,-1.0,-1.0,-1.0,0.0,0.0,1.0,-2.0,-2.0
1706276938.1596284,-1.0,1.0,-1.0,0.0,-3.0,-2.0,-2.0,-1.0
1706276938.1699378,-2.0,-3.0,0.0,-2.0,-2.0,0.0,0.0,-1.0
1706276938.1699378,0.0,-1.0,-3.0,-1.0,-2.0,0.0,-3.0,-1.0
1706276938.1800303,-2.0,0.0,-1.0,-3.0,-3.0,-2.0,-2.0,-2.0
1706276938.1800303,0.0,-1.0,-1.0,-1.0,0.0,0.0,-1.0,1.0
1706276938.1904652,0.0,-1.0,-1.0,-1.0,-1.0,0.0,1.0,0.0
1706276938.1904652,-3.0,-1.0,0.0,0.0,0.0,0.0,-2.0,0.0
1706276938.1904652,1.0,-1.0,-3.0,-2.0,-1.0,-2.0,1.0,0.0
1706276938.1904652,-1.0,0.0,0.0,-1.0,-2.0,-2.0,-2.0,0.0
1706276938.2200468,0.0,1.0,-1.0,0.0,-3.0,-1.0,-1.0,0.0
1706276938.2200468,1.0,-2.0,0.0,0.0,-1.0,-1.0,2.0,0.0
1706276938.2200468,-1.0,0.0,-1.0,-1.0,0.0,0.0,-2.0,0.0
1706276938.2200468,-3.0,-1.0,0.0,0.0,1.0,-2.0,-1.0,-4.0
1706276938.2303538,-1.0,-2.0,1.0,-1.0,1.0,0.0,-1.0,-1.0
1706276938.2303538,0.0,-1.0,0.0,0.0,-2.0,-3.0,-1.0,0.0
1706276938.240333,-1.0,-1.0,-1.0,-1.0,-2.0,-1.0,-1.0,0.0
1706276938.240333,0.0,-1.0,-2.0,-1.0,-2.0,-1.0,-1.0,-1.0
1706276938.2503238,-2.0,-1.0,-1.0,-1.0,1.0,-3.0,-3.0,1.0
1706276938.2503238,-1.0,0.0,-1.0,0.0,-1.0,0.0,-1.0,-1.0
1706276938.2503238,0.0,-2.0,-2.0,-3.0,-1.0,-1.0,-1.0,0.0
1706276938.2503238,-1.0,-2.0,-1.0,-1.0,0.0,0.0,-2.0,-1.0
1706276938.2800417,0.0,-1.0,-1.0,-2.0,-1.0,-2.0,-1.0,-1.0
1706276938.2800417,0.0,2.0,-1.0,-2.0,-2.0,-3.0,-2.0,0.0
1706276938.2800417,1.0,-1.0,-1.0,-1.0,-2.0,-1.0,0.0,1.0
1706276938.2800417,-6.0,-6.0,1.0,2.0,2.0,2.0,-1.0,-3.0
1706276938.3001075,-3.0,-1.0,-1.0,1.0,-1.0,0.0,-2.0,-2.0
1706276938.3001075,-3.0,-2.0,-2.0,-2.0,0.0,-2.0,-1.0,-2.0
1706276938.3001075,-2.0,0.0,0.0,-1.0,-2.0,0.0,-2.0,-2.0
1706276938.3001075,2.0,1.0,-1.0,-4.0,-4.0,0.0,-1.0,0.0
1706276938.3200421,0.0,-2.0,-3.0,-1.0,-1.0,-1.0,0.0,-2.0
1706276938.3200421,-2.0,0.0,-2.0,-1.0,-1.0,-1.0,0.0,0.0
1706276938.3200421,-1.0,0.0,1.0,0.0,-2.0,-1.0,-1.0,-1.0
1706276938.3200421,0.0,-2.0,-1.0,-1.0,0.0,0.0,0.0,0.0
1706276938.3400474,-2.0,-2.0,0.0,0.0,1.0,-1.0,-2.0,-2.0
1706276938.3400474,0.0,-1.0,-2.0,0.0,-2.0,0.0,-1.0,-1.0
1706276938.3400474,-1.0,-4.0,-2.0,1.0,-2.0,0.0,-2.0,-1.0
1706276938.3400474,1.0,0.0,-1.0,0.0,0.0,0.0,-2.0,-2.0
1706276938.350351,-1.0,-2.0,-1.0,-2.0,-2.0,-1.0,-1.0,0.0
1706276938.350351,-2.0,0.0,0.0,-2.0,1.0,1.0,-1.0,-1.0
1706276938.360114,-1.0,-2.0,-1.0,0.0,0.0,1.0,2.0,-1.0
1706276938.360114,-1.0,0.0,0.0,-2.0,-2.0,-1.0,0.0,-1.0
1706276938.3900402,2.0,-2.0,0.0,-2.0,-2.0,-2.0,-1.0,-1.0
1706276938.3900402,-2.0,-1.0,0.0,0.0,-1.0,-2.0,-2.0,0.0
1706276938.3900402,-1.0,1.0,1.0,-1.0,-2.0,-2.0,-3.0,-2.0
1706276938.3900402,2.0,0.0,-2.0,-2.0,-1.0,-1.0,-1.0,1.0
1706276938.3900402,0.0,-2.0,-1.0,-2.0,-1.0,-1.0,-2.0,-1.0
1706276938.3900402,0.0,-2.0,-1.0,0.0,-1.0,-2.0,-2.0,-1.0
1706276938.400046,-1.0,-2.0,-2.0,0.0,1.0,0.0,-2.0,-2.0
1706276938.400046,1.0,-1.0,-3.0,-2.0,-1.0,-4.0,0.0,-2.0
1706276938.4104776,-2.0,1.0,0.0,-2.0,-1.0,-1.0,0.0,-2.0
1706276938.4104776,-2.0,-1.0,-1.0,-2.0,0.0,1.0,-1.0,-1.0
1706276938.4201963,-1.0,1.0,-1.0,-1.0,-1.0,-1.0,0.0,0.0
1706276938.4201963,-3.0,0.0,-1.0,0.0,0.0,0.0,-2.0,-1.0
1706276938.4300966,-1.0,-1.0,-1.0,0.0,-1.0,0.0,-1.0,-1.0
1706276938.4300966,-1.0,-1.0,-2.0,0.0,0.0,-1.0,-1.0,-2.0
1706276938.4300966,-1.0,-1.0,0.0,-1.0,-1.0,-1.0,0.0,-1.0
1706276938.4300966,-1.0,1.0,-1.0,0.0,-3.0,-1.0,0.0,-1.0
1706276938.4505699,0.0,-2.0,-3.0,1.0,-2.0,-2.0,-1.0,-1.0
1706276938.4505699,0.0,0.0,-2.0,-1.0,-2.0,0.0,-1.0,0.0
1706276938.4601254,-2.0,-2.0,-2.0,-1.0,0.0,-1.0,-1.0,-1.0
1706276938.4601254,-3.0,-2.0,-1.0,-3.0,-1.0,1.0,-1.0,-2.0
1706276938.4705453,-1.0,0.0,0.0,-1.0,-2.0,-2.0,0.0,-1.0
1706276938.4705453,-1.0,-1.0,1.0,-3.0,-1.0,-1.0,-1.0,0.0
1706276938.480175,0.0,-1.0,-1.0,-1.0,-2.0,-1.0,-2.0,-1.0
1706276938.480175,1.0,-1.0,-1.0,-2.0,-1.0,-2.0,1.0,-2.0
1706276938.4901218,0.0,1.0,-1.0,-2.0,-1.0,0.0,-1.0,-1.0
1706276938.4901218,0.0,-1.0,-2.0,0.0,0.0,-1.0,-3.0,0.0
1706276938.4901218,-3.0,-2.0,-1.0,-3.0,1.0,0.0,-1.0,-1.0
1706276938.4901218,-1.0,-2.0,-2.0,-2.0,-2.0,-3.0,0.0,0.0
1706276938.5105488,-2.0,0.0,-1.0,0.0,-1.0,0.0,-1.0,-1.0
1706276938.5105488,-2.0,0.0,-1.0,0.0,-2.0,-2.0,0.0,-1.0
1706276938.5201247,-4.0,-1.0,-1.0,-1.0,-1.0,-2.0,-1.0,-2.0
1706276938.5201247,0.0,0.0,-2.0,-3.0,-2.0,-1.0,-1.0,-3.0
1706276938.5301788,-1.0,-3.0,0.0,0.0,-1.0,-1.0,-1.0,0.0
1706276938.5301788,-1.0,0.0,-1.0,1.0,-2.0,0.0,0.0,-1.0
1706276938.550148,-2.0,-1.0,-2.0,-1.0,-1.0,0.0,-1.0,0.0
1706276938.550148,-1.0,0.0,0.0,-2.0,-1.0,1.0,-3.0,-1.0
1706276938.550148,0.0,0.0,0.0,-2.0,-1.0,0.0,-1.0,-1.0
1706276938.550148,-1.0,-2.0,0.0,0.0,1.0,-1.0,0.0,-2.0
1706276938.550148,1.0,0.0,-1.0,2.0,-1.0,-2.0,-2.0,-2.0
1706276938.550148,0.0,-1.0,-1.0,1.0,-1.0,-1.0,0.0,1.0
1706276938.5705628,-2.0,-2.0,-1.0,-1.0,-1.0,-1.0,-1.0,-2.0
1706276938.5705628,-2.0,-1.0,-1.0,-1.0,-1.0,1.0,-1.0,-3.0
1706276938.580127,0.0,0.0,2.0,-4.0,-2.0,-1.0,-1.0,-1.0
1706276938.580127,0.0,-3.0,1.0,-2.0,-1.0,-2.0,-2.0,1.0
1706276938.6001508,-2.0,-1.0,-1.0,-1.0,-2.0,-1.0,-1.0,1.0
1706276938.6001508,-1.0,-1.0,-3.0,-1.0,-1.0,-1.0,0.0,1.0
1706276938.6001508,0.0,1.0,-1.0,-1.0,-1.0,0.0,-1.0,0.0
1706276938.6001508,-1.0,-1.0,-2.0,1.0,-2.0,-2.0,-1.0,-2.0
1706276938.6103897,-1.0,-1.0,0.0,-2.0,-2.0,-2.0,0.0,-2.0
1706276938.6103897,-1.0,-1.0,-2.0,-3.0,-1.0,0.0,1.0,-2.0
1706276938.6103897,-1.0,-1.0,-2.0,0.0,0.0,-2.0,0.0,-1.0
1706276938.6103897,-1.0,0.0,-1.0,-1.0,-1.0,0.0,-3.0,0.0
1706276938.639402,-1.0,0.0,-2.0,1.0,-1.0,0.0,-3.0,-3.0
1706276938.639402,1.0,0.0,1.0,0.0,-1.0,-1.0,1.0,-1.0
1706276938.641407,-1.0,-1.0,0.0,-1.0,-1.0,-1.0,-1.0,0.0
1706276938.641407,-1.0,-1.0,-1.0,0.0,0.0,-2.0,0.0,-2.0
1706276938.6657815,0.0,0.0,-1.0,-2.0,-2.0,0.0,0.0,0.0
1706276938.6657815,0.0,0.0,-2.0,-1.0,-1.0,0.0,-2.0,0.0
1706276938.675776,-1.0,-1.0,-2.0,0.0,0.0,-1.0,-1.0,0.0
1706276938.675776,0.0,-2.0,1.0,0.0,-1.0,0.0,0.0,-2.0
1706276938.675776,-2.0,-1.0,-1.0,-1.0,-2.0,-1.0,-2.0,-1.0
1706276938.675776,-1.0,-3.0,0.0,-2.0,-2.0,0.0,-2.0,-1.0
1706276938.675776,-1.0,-2.0,1.0,-2.0,-1.0,0.0,-2.0,0.0
1706276938.675776,-1.0,1.0,-1.0,-1.0,-3.0,-1.0,-1.0,-1.0
1706276938.6957788,0.0,-2.0,-1.0,-1.0,1.0,0.0,0.0,0.0
1706276938.6957788,-1.0,-2.0,-1.0,-1.0,0.0,-2.0,-2.0,-1.0
1706276938.6957788,-2.0,0.0,-1.0,-2.0,-1.0,-3.0,0.0,-2.0
1706276938.6957788,-2.0,1.0,-2.0,-1.0,0.0,-1.0,1.0,1.0
1706276938.7157753,0.0,0.0,0.0,-2.0,-2.0,-1.0,0.0,-1.0
1706276938.7157753,0.0,-1.0,0.0,0.0,-1.0,-1.0,-1.0,-2.0
1706276938.7157753,1.0,-2.0,-1.0,-1.0,1.0,0.0,-1.0,-2.0
1706276938.7157753,-2.0,0.0,-1.0,0.0,-1.0,-1.0,0.0,-1.0
1706276938.736246,-2.0,-2.0,-2.0,-1.0,-1.0,0.0,-1.0,-1.0
1706276938.736246,-1.0,-1.0,-2.0,-1.0,-2.0,-2.0,-1.0,-1.0
1706276938.736246,-1.0,-1.0,-1.0,-1.0,-1.0,-1.0,0.0,-2.0
1706276938.736246,-2.0,-1.0,-1.0,-2.0,-3.0,-1.0,-2.0,-1.0
1706276938.7559617,0.0,-2.0,-2.0,0.0,0.0,-2.0,-1.0,-1.0
1706276938.7559617,-1.0,0.0,-2.0,0.0,-2.0,0.0,-1.0,-3.0
1706276938.7559617,-1.0,0.0,-1.0,0.0,-2.0,-2.0,0.0,0.0
1706276938.7559617,-2.0,-2.0,-1.0,-1.0,-1.0,-1.0,-2.0,-1.0
1706276938.7761333,-1.0,1.0,-1.0,-2.0,-2.0,-2.0,0.0,-3.0
1706276938.7761333,-3.0,-2.0,-2.0,-3.0,-1.0,-1.0,-1.0,-1.0
1706276938.7761333,-2.0,-1.0,-1.0,-1.0,-1.0,-2.0,0.0,-2.0
1706276938.7761333,-1.0,-1.0,-1.0,-1.0,-1.0,0.0,0.0,-2.0
1706276938.7962394,-1.0,-1.0,-2.0,-1.0,0.0,-1.0,-2.0,1.0
1706276938.7962394,-2.0,-1.0,0.0,0.0,-1.0,-1.0,0.0,-1.0
1706276938.805913,-2.0,-1.0,-1.0,0.0,-2.0,-1.0,-1.0,-2.0
1706276938.805913,0.0,0.0,0.0,-1.0,0.0,-1.0,-1.0,0.0
1706276938.8359087,-1.0,-1.0,0.0,0.0,1.0,-2.0,-2.0,0.0
1706276938.8359087,-1.0,-1.0,-4.0,-1.0,-1.0,-2.0,-2.0,0.0
1706276938.8359087,-2.0,-1.0,-1.0,-3.0,-2.0,-1.0,-1.0,0.0
1706276938.8359087,-1.0,-1.0,-1.0,-1.0,-1.0,-1.0,-1.0,-1.0
1706276938.8359087,-2.0,-4.0,1.0,-1.0,0.0,-1.0,0.0,-1.0
1706276938.8359087,-1.0,2.0,0.0,-2.0,-1.0,-2.0,0.0,-1.0
1706276938.8359087,-1.0,0.0,0.0,-1.0,-1.0,0.0,0.0,2.0
1706276938.8359087,-1.0,0.0,-1.0,-1.0,-2.0,-1.0,0.0,-2.0
1706276938.8562438,0.0,0.0,-1.0,-2.0,-2.0,-1.0,0.0,0.0
1706276938.8562438,-2.0,-1.0,-1.0,-1.0,0.0,-1.0,-2.0,-1.0
1706276938.8663347,0.0,-1.0,-1.0,0.0,-1.0,-2.0,-2.0,-1.0
1706276938.8663347,-1.0,1.0,-2.0,-2.0,-1.0,-2.0,-3.0,-1.0
1706276938.8859096,0.0,-1.0,-2.0,-1.0,0.0,-1.0,-2.0,1.0
1706276938.8859096,0.0,-4.0,-1.0,-1.0,0.0,-1.0,1.0,0.0
1706276938.8859096,0.0,-1.0,-1.0,-2.0,0.0,1.0,-1.0,-1.0
1706276938.8859096,-1.0,-1.0,0.0,0.0,-1.0,0.0,0.0,1.0
1706276938.8961806,-2.0,-1.0,-1.0,-1.0,-1.0,-1.0,-2.0,-2.0
1706276938.8961806,-2.0,0.0,0.0,0.0,-1.0,0.0,1.0,0.0
1706276938.8961806,0.0,-1.0,-1.0,-1.0,-3.0,-1.0,-1.0,-2.0
1706276938.8961806,-1.0,-2.0,-1.0,0.0,0.0,-1.0,-1.0,0.0
1706276938.9159136,-2.0,-1.0,-1.0,-1.0,-1.0,-1.0,-1.0,-1.0
1706276938.9159136,-1.0,0.0,-1.0,-1.0,-2.0,1.0,-2.0,-1.0
1706276938.9159136,-2.0,-1.0,-2.0,0.0,-1.0,0.0,0.0,-1.0
1706276938.9159136,-1.0,-1.0,0.0,-3.0,-2.0,-1.0,-1.0,-1.0
1706276938.9361506,-2.0,0.0,-1.0,0.0,-2.0,-2.0,1.0,-2.0
1706276938.9361506,0.0,-1.0,-2.0,0.0,-1.0,-1.0,-2.0,-2.0
1706276938.9361506,0.0,-1.0,-1.0,0.0,-2.0,-1.0,-1.0,1.0
1706276938.9361506,-2.0,0.0,-2.0,0.0,-1.0,-2.0,0.0,-1.0
1706276938.965909,0.0,-2.0,0.0,-1.0,0.0,-1.0,-1.0,0.0
1706276938.965909,0.0,-1.0,-2.0,-3.0,0.0,-1.0,0.0,-2.0
1706276938.965909,0.0,0.0,-1.0,-2.0,0.0,-1.0,0.0,-1.0
1706276938.965909,-1.0,-1.0,-3.0,-1.0,-1.0,-1.0,-2.0,-1.0
1706276938.9859164,-2.0,0.0,-2.0,-3.0,-1.0,-1.0,0.0,-1.0
1706276938.9859164,-1.0,-2.0,1.0,-1.0,-2.0,-1.0,0.0,-1.0
1706276938.9859164,-1.0,-2.0,-1.0,-3.0,-2.0,-1.0,-4.0,-1.0
1706276938.9859164,-1.0,-2.0,-3.0,-2.0,1.0,-1.0,0.0,-1.0
1706276938.9959419,-1.0,1.0,-3.0,-1.0,0.0,-1.0,0.0,-1.0
1706276938.9959419,-1.0,0.0,-1.0,-1.0,1.0,-2.0,-2.0,-2.0
1706276938.9959419,1.0,-1.0,-1.0,-1.0,-2.0,-3.0,0.0,0.0
1706276938.9959419,0.0,-1.0,0.0,-3.0,0.0,-2.0,-1.0,-2.0
1706276939.0161638,-1.0,-1.0,0.0,-2.0,-1.0,-2.0,-1.0,-1.0
1706276939.0161638,-2.0,0.0,0.0,-1.0,-1.0,-2.0,-1.0,-1.0
1706276939.0161638,-1.0,0.0,-1.0,-1.0,1.0,0.0,0.0,-1.0
1706276939.0161638,-2.0,-1.0,0.0,-1.0,1.0,-1.0,-1.0,-1.0
1706276939.0359135,-1.0,-1.0,-3.0,-1.0,0.0,0.0,-2.0,-1.0
1706276939.0359135,-1.0,-1.0,-1.0,-1.0,-2.0,0.0,-1.0,0.0
1706276939.0359135,-2.0,-1.0,-2.0,-1.0,-2.0,-1.0,-1.0,-4.0
1706276939.0359135,0.0,-1.0,-1.0,-2.0,-2.0,-1.0,-3.0,-1.0
1706276939.0559099,-1.0,0.0,-1.0,0.0,-2.0,0.0,-1.0,-1.0
1706276939.0559099,0.0,-1.0,-1.0,-1.0,-1.0,1.0,-1.0,0.0
1706276939.0559099,-2.0,-1.0,-2.0,0.0,0.0,-1.0,-2.0,0.0
1706276939.0559099,-2.0,-2.0,0.0,1.0,-1.0,-1.0,0.0,-2.0
1706276939.0761068,-1.0,-1.0,0.0,0.0,-1.0,-1.0,0.0,-2.0
1706276939.0761068,-2.0,-1.0,-2.0,-1.0,-1.0,-2.0,-1.0,-1.0
1706276939.0761068,0.0,-1.0,-2.0,-1.0,-1.0,-1.0,-1.0,0.0
1706276939.0761068,-2.0,-2.0,-3.0,-2.0,-2.0,0.0,-1.0,-1.0
1706276939.1059093,0.0,0.0,-1.0,-1.0,0.0,-2.0,1.0,0.0
1706276939.1059093,-1.0,-1.0,-2.0,1.0,-1.0,-2.0,-1.0,0.0
1706276939.1059093,0.0,-1.0,0.0,-2.0,-1.0,-1.0,0.0,-1.0
1706276939.1059093,-1.0,-1.0,-1.0,-1.0,-2.0,-1.0,-2.0,-2.0
1706276939.1159565,-1.0,-1.0,-1.0,-1.0,-4.0,-1.0,-1.0,0.0
1706276939.1159565,0.0,1.0,0.0,-1.0,-2.0,-1.0,-2.0,-1.0
1706276939.1159565,-1.0,-1.0,0.0,-1.0,0.0,0.0,-1.0,-1.0
1706276939.1159565,0.0,-1.0,-1.0,0.0,-1.0,0.0,1.0,-2.0
1706276939.1359475,-2.0,-2.0,0.0,-1.0,-1.0,-3.0,-1.0,-1.0
1706276939.1359475,0.0,-1.0,1.0,-1.0,-1.0,0.0,0.0,-3.0
1706276939.1359475,-1.0,0.0,-2.0,-4.0,-1.0,0.0,-1.0,-2.0
1706276939.1359475,-1.0,-1.0,-1.0,-2.0,-3.0,-2.0,-3.0,0.0
1706276939.1681824,0.0,-1.0,-1.0,-1.0,-1.0,0.0,-1.0,-2.0
1706276939.1681824,-2.0,-1.0,-1.0,0.0,0.0,-1.0,0.0,0.0
1706276939.1681824,-2.0,-2.0,-3.0,1.0,-1.0,-2.0,-1.0,0.0
1706276939.1681824,-1.0,-1.0,-1.0,-1.0,0.0,-1.0,1.0,1.0
1706276939.1785977,1.0,-1.0,-1.0,0.0,-2.0,-2.0,0.0,-1.0
1706276939.1785977,0.0,-3.0,-2.0,-2.0,0.0,-1.0,-2.0,1.0
1706276939.1785977,-2.0,-1.0,0.0,-1.0,-2.0,0.0,-2.0,-2.0
1706276939.1785977,-1.0,-2.0,0.0,-1.0,-1.0,0.0,-1.0,-2.0
1706276939.1989977,-2.0,-1.0,-1.0,0.0,-1.0,-1.0,-2.0,-2.0
1706276939.1989977,0.0,0.0,0.0,0.0,-2.0,-1.0,0.0,-1.0
1706276939.1989977,-1.0,0.0,-1.0,-2.0,-2.0,0.0,-2.0,0.0
1706276939.1989977,-2.0,-1.0,-1.0,-2.0,-1.0,0.0,1.0,0.0
1706276939.2187612,-1.0,-2.0,1.0,-1.0,-1.0,-1.0,-1.0,-1.0
1706276939.2187612,-1.0,-1.0,-2.0,-1.0,-1.0,-2.0,-1.0,-2.0
1706276939.2187612,0.0,-2.0,0.0,0.0,-2.0,-2.0,-1.0,0.0
1706276939.2187612,0.0,1.0,-2.0,1.0,0.0,-3.0,-2.0,-1.0
1706276939.238666,-2.0,-1.0,-1.0,-1.0,-1.0,0.0,-2.0,-1.0
1706276939.238666,0.0,0.0,-3.0,0.0,-1.0,-2.0,0.0,2.0
1706276939.238666,-1.0,1.0,-1.0,-3.0,-1.0,-1.0,-1.0,-1.0
1706276939.238666,-1.0,-1.0,0.0,-1.0,-2.0,-2.0,0.0,0.0
1706276939.2589328,-2.0,0.0,-2.0,-1.0,0.0,-2.0,-2.0,0.0
1706276939.2589328,-2.0,-2.0,1.0,-1.0,-1.0,0.0,0.0,-1.0
1706276939.2589328,-1.0,0.0,-1.0,-1.0,1.0,0.0,-1.0,-3.0
1706276939.2589328,0.0,0.0,-2.0,-2.0,0.0,0.0,-1.0,-2.0
1706276939.2986567,-2.0,-2.0,0.0,-2.0,-1.0,-1.0,-2.0,-2.0
1706276939.2986567,-2.0,-1.0,-1.0,-1.0,-2.0,1.0,-2.0,-1.0
1706276939.2986567,1.0,-2.0,-2.0,0.0,-2.0,-3.0,-2.0,0.0
1706276939.2986567,-1.0,-1.0,-3.0,-1.0,-1.0,0.0,-1.0,-1.0
1706276939.2986567,-1.0,1.0,-1.0,-1.0,-1.0,0.0,-1.0,0.0
1706276939.2986567,0.0,-1.0,-1.0,-1.0,-2.0,0.0,-1.0,-2.0
1706276939.2986567,-1.0,-2.0,0.0,0.0,-2.0,0.0,-1.0,-1.0
1706276939.2986567,-2.0,-2.0,0.0,0.0,0.0,-1.0,-2.0,-1.0
1706276939.3286772,-1.0,-3.0,-1.0,-2.0,-2.0,0.0,0.0,0.0
1706276939.3286772,-1.0,0.0,-2.0,-1.0,-2.0,-2.0,-4.0,-2.0
1706276939.3286772,-2.0,1.0,-1.0,-3.0,-1.0,-1.0,-1.0,0.0
1706276939.3286772,-1.0,-1.0,0.0,-3.0,-3.0,-2.0,-2.0,-1.0
1706276939.3386908,0.0,-1.0,-1.0,1.0,0.0,0.0,0.0,0.0
1706276939.3386908,-2.0,-1.0,-2.0,-1.0,0.0,-2.0,0.0,-2.0
1706276939.3386908,-1.0,-1.0,-1.0,-1.0,-1.0,-1.0,-1.0,0.0
1706276939.3386908,-1.0,-2.0,-1.0,-1.0,0.0,0.0,-1.0,-2.0
1706276939.3587205,-1.0,0.0,-2.0,-1.0,-1.0,-1.0,-3.0,0.0
1706276939.3587205,-1.0,0.0,-1.0,-2.0,-1.0,-1.0,0.0,0.0
1706276939.3587205,-2.0,-3.0,-1.0,-1.0,-1.0,-1.0,0.0,0.0
1706276939.3587205,0.0,-2.0,-1.0,0.0,-1.0,0.0,0.0,-2.0
1706276939.378914,0.0,0.0,-1.0,-2.0,-1.0,-2.0,0.0,0.0
1706276939.378914,0.0,-1.0,-1.0,-1.0,0.0,-1.0,0.0,0.0
1706276939.3886578,-1.0,0.0,-1.0,0.0,-1.0,-2.0,0.0,-1.0
1706276939.3886578,-2.0,0.0,-2.0,0.0,0.0,-2.0,-2.0,0.0
1706276939.398767,-1.0,-1.0,-2.0,0.0,-1.0,-1.0,1.0,-3.0
1706276939.398767,-3.0,-1.0,-1.0,1.0,-1.0,-2.0,-3.0,-1.0
1706276939.4090595,-2.0,-3.0,0.0,-2.0,-1.0,0.0,-1.0,-1.0
1706276939.4090595,-2.0,-2.0,0.0,1.0,-2.0,-2.0,0.0,0.0
1706276939.4190717,1.0,0.0,0.0,-1.0,-2.0,-2.0,-3.0,-1.0
1706276939.4190717,0.0,-2.0,0.0,-2.0,-1.0,-2.0,-2.0,0.0
1706276939.4190717,-1.0,-2.0,0.0,-2.0,-1.0,2.0,-1.0,-2.0
1706276939.4190717,0.0,1.0,-1.0,0.0,-1.0,-1.0,-2.0,-2.0
1706276939.4390705,-3.0,0.0,-2.0,-1.0,-1.0,-1.0,0.0,-2.0
1706276939.4390705,-2.0,0.0,-1.0,1.0,0.0,-1.0,1.0,-1.0
1706276939.4390705,0.0,-1.0,-2.0,-1.0,-2.0,-2.0,-2.0,0.0
1706276939.4390705,-1.0,-2.0,0.0,-1.0,-1.0,-1.0,-2.0,1.0
1706276939.459498,0.0,0.0,-1.0,-1.0,0.0,-3.0,-2.0,0.0
1706276939.459498,0.0,-1.0,-2.0,-2.0,-2.0,-1.0,-1.0,0.0
1706276939.459498,-2.0,-2.0,-1.0,-1.0,0.0,-1.0,1.0,-2.0
1706276939.459498,-1.0,-2.0,-1.0,-2.0,-1.0,-2.0,0.0,0.0
1706276939.479072,0.0,-3.0,-1.0,-1.0,-1.0,-1.0,0.0,1.0
1706276939.479072,0.0,-2.0,-1.0,-1.0,0.0,-1.0,1.0,0.0
1706276939.479072,0.0,0.0,0.0,-2.0,-1.0,-1.0,-1.0,-2.0
1706276939.479072,0.0,0.0,-2.0,-3.0,-3.0,-2.0,0.0,0.0
1706276939.4994888,-2.0,-1.0,0.0,1.0,3.0,-1.0,-2.0,-4.0
1706276939.4994888,-1.0,-1.0,-2.0,-1.0,-1.0,-1.0,-2.0,-1.0
1706276939.4994888,-4.0,-10.0,0.0,3.0,1.0,2.0,0.0,-1.0
1706276939.4994888,-2.0,0.0,0.0,-2.0,-2.0,-2.0,-2.0,0.0
1706276939.5191057,-2.0,-3.0,-2.0,-2.0,0.0,0.0,-3.0,-2.0
1706276939.5191057,-2.0,-2.0,0.0,-2.0,0.0,-1.0,1.0,-1.0
1706276939.5191057,0.0,1.0,-3.0,-2.0,-2.0,-3.0,-2.0,-3.0
1706276939.5191057,0.0,1.0,-2.0,0.0,0.0,0.0,-1.0,-1.0
1706276939.5390751,-1.0,-3.0,-1.0,-1.0,-3.0,0.0,-1.0,-1.0
1706276939.5390751,0.0,-2.0,-1.0,-1.0,-1.0,-1.0,-2.0,-2.0
1706276939.5390751,0.0,2.0,-2.0,-1.0,0.0,-3.0,-3.0,0.0
1706276939.5390751,-1.0,0.0,-1.0,-1.0,-2.0,-1.0,0.0,0.0
1706276939.5591033,2.0,0.0,-1.0,0.0,-2.0,-1.0,-3.0,0.0
1706276939.5591033,-2.0,-1.0,-1.0,0.0,-2.0,-2.0,0.0,-1.0
1706276939.5591033,0.0,1.0,0.0,-2.0,-2.0,-2.0,-1.0,-1.0
1706276939.5591033,0.0,-3.0,-1.0,-3.0,-1.0,-2.0,-3.0,-1.0
1706276939.57952,-1.0,-3.0,0.0,0.0,0.0,-1.0,1.0,0.0
1706276939.57952,-2.0,0.0,-1.0,-2.0,-1.0,-1.0,1.0,1.0
1706276939.57952,0.0,-1.0,-1.0,-1.0,-3.0,1.0,-2.0,-1.0
1706276939.57952,-3.0,0.0,-1.0,-1.0,1.0,0.0,1.0,-2.0
1706276939.5990703,-2.0,0.0,-2.0,-1.0,-1.0,0.0,-1.0,-4.0
1706276939.5990703,0.0,-2.0,-3.0,-2.0,-1.0,-1.0,-1.0,-1.0
1706276939.5990703,1.0,2.0,-1.0,0.0,-2.0,-2.0,0.0,0.0
1706276939.5990703,-3.0,-2.0,0.0,-1.0,0.0,-2.0,-1.0,-3.0
1706276939.6193888,0.0,0.0,-2.0,-1.0,-1.0,-1.0,0.0,0.0
1706276939.6193888,0.0,-1.0,0.0,0.0,-1.0,-1.0,-3.0,-2.0
1706276939.6290753,-1.0,-2.0,-1.0,-1.0,0.0,-2.0,-1.0,1.0
1706276939.6290753,0.0,-1.0,-4.0,0.0,-1.0,1.0,-1.0,0.0
1706276939.6393812,-1.0,-2.0,0.0,-2.0,-1.0,-1.0,0.0,-1.0
1706276939.6393812,1.0,-2.0,0.0,0.0,-2.0,-2.0,-1.0,-1.0
1706276939.6393812,-1.0,-1.0,1.0,-1.0,-1.0,-1.0,-1.0,-2.0
1706276939.6393812,-2.0,-1.0,0.0,0.0,-1.0,-1.0,-2.0,0.0
1706276939.6590748,-1.0,0.0,0.0,1.0,-2.0,-1.0,0.0,0.0
1706276939.6590748,0.0,0.0,-1.0,2.0,0.0,-1.0,-2.0,-1.0
1706276939.6590748,-1.0,-1.0,-2.0,-2.0,-1.0,0.0,-1.0,-2.0
1706276939.6590748,1.0,-1.0,-2.0,-2.0,-3.0,-1.0,-1.0,-1.0
1706276939.6890707,0.0,1.0,-1.0,-1.0,-2.0,-1.0,-4.0,-1.0
1706276939.6890707,-2.0,-1.0,-2.0,0.0,0.0,0.0,-3.0,-1.0
1706276939.6890707,-1.0,0.0,-1.0,0.0,-1.0,-2.0,-1.0,1.0
1706276939.6890707,-1.0,-2.0,-1.0,-1.0,-1.0,-1.0,0.0,-2.0
1706276939.703739,0.0,-1.0,-1.0,-2.0,-1.0,-1.0,-1.0,-1.0
1706276939.703739,-1.0,-1.0,1.0,-1.0,-1.0,-1.0,-2.0,1.0
1706276939.7047663,-2.0,-1.0,0.0,-1.0,-1.0,0.0,1.0,-2.0
1706276939.7047663,0.0,0.0,-2.0,-1.0,-1.0,0.0,-2.0,-1.0
1706276939.7312024,-1.0,-3.0,-1.0,-1.0,-1.0,-2.0,0.0,0.0
1706276939.7312024,-1.0,-2.0,1.0,-2.0,-1.0,-1.0,-2.0,-2.0
1706276939.7312024,-1.0,-2.0,-2.0,0.0,-2.0,-2.0,-2.0,-1.0
1706276939.7312024,0.0,0.0,0.0,-2.0,-2.0,-1.0,0.0,1.0
1706276939.7412117,-2.0,-1.0,-1.0,-1.0,-1.0,-2.0,-1.0,0.0
1706276939.7412117,-1.0,0.0,-1.0,-1.0,0.0,-2.0,-1.0,-2.0
1706276939.7412117,0.0,0.0,1.0,-1.0,-1.0,-3.0,-1.0,1.0
1706276939.7412117,-2.0,0.0,1.0,-1.0,-2.0,0.0,-2.0,-1.0
1706276939.7614343,-1.0,-2.0,-1.0,-2.0,-1.0,1.0,0.0,-1.0
1706276939.7614343,-2.0,-2.0,-2.0,-1.0,-2.0,-1.0,-1.0,0.0
1706276939.7614343,-1.0,-2.0,-2.0,-1.0,0.0,-1.0,-3.0,0.0
1706276939.7614343,-1.0,-3.0,-1.0,0.0,-1.0,-1.0,0.0,-2.0
1706276939.791203,-2.0,0.0,-1.0,2.0,-1.0,-2.0,-3.0,-1.0
1706276939.791203,-1.0,1.0,-2.0,-2.0,-2.0,0.0,0.0,-2.0
1706276939.791203,-2.0,-1.0,-1.0,-1.0,-1.0,0.0,-1.0,-2.0
1706276939.791203,-2.0,-2.0,-2.0,-2.0,-1.0,0.0,-1.0,-2.0
1706276939.791203,0.0,-2.0,0.0,-1.0,-1.0,0.0,-1.0,-2.0
1706276939.791203,0.0,0.0,-1.0,-1.0,0.0,-1.0,-1.0,-1.0
1706276939.8012016,-1.0,-2.0,-2.0,-2.0,-1.0,0.0,0.0,-1.0
1706276939.8012016,-1.0,1.0,0.0,-1.0,0.0,-1.0,0.0,-1.0
1706276939.8312018,-1.0,-1.0,-3.0,-2.0,-2.0,0.0,-1.0,0.0
1706276939.8312018,0.0,-1.0,-1.0,0.0,-2.0,-1.0,-2.0,-3.0
1706276939.8312018,-1.0,0.0,-1.0,-1.0,0.0,0.0,-1.0,-1.0
1706276939.8312018,0.0,0.0,-1.0,0.0,-1.0,0.0,-2.0,0.0
1706276939.8312018,-1.0,1.0,0.0,-2.0,-1.0,-1.0,0.0,-1.0
1706276939.8312018,0.0,-1.0,-3.0,-2.0,-1.0,0.0,1.0,-1.0
1706276939.8312018,0.0,-1.0,1.0,0.0,-2.0,0.0,-1.0,-1.0
1706276939.8312018,0.0,0.0,-2.0,-1.0,0.0,-3.0,-1.0,-1.0
1706276939.8615224,-2.0,-1.0,0.0,-1.0,0.0,0.0,-1.0,0.0
1706276939.8615224,-3.0,-3.0,-2.0,-1.0,-3.0,-1.0,-1.0,-1.0
1706276939.8615224,0.0,-1.0,-2.0,-1.0,-1.0,-3.0,-1.0,-2.0
1706276939.8615224,-1.0,-1.0,-1.0,0.0,-2.0,-1.0,-1.0,-1.0
1706276939.8812501,-2.0,-1.0,0.0,-2.0,-2.0,-2.0,-1.0,0.0
1706276939.8812501,-1.0,-1.0,0.0,0.0,-2.0,-2.0,-2.0,-1.0
1706276939.8812501,-2.0,0.0,-2.0,0.0,-1.0,-2.0,-1.0,-2.0
1706276939.8812501,0.0,-1.0,-2.0,-2.0,-1.0,-1.0,1.0,-1.0
1706276939.8912632,0.0,-1.0,0.0,-1.0,0.0,-1.0,1.0,-2.0
1706276939.8912632,-2.0,-1.0,0.0,1.0,0.0,0.0,-3.0,0.0
1706276939.8912632,-1.0,0.0,0.0,0.0,-1.0,0.0,-1.0,-1.0
1706276939.8912632,-1.0,0.0,-1.0,0.0,-1.0,-1.0,-2.0,-1.0
1706276939.9213092,0.0,-2.0,-1.0,-3.0,0.0,0.0,-1.0,-1.0
1706276939.9213092,-2.0,-1.0,-2.0,-2.0,0.0,-2.0,0.0,-1.0
1706276939.9213092,0.0,-1.0,0.0,-2.0,-1.0,-1.0,-1.0,1.0
1706276939.9213092,-3.0,-3.0,-1.0,0.0,0.0,0.0,-1.0,0.0
1706276939.9612982,-2.0,-2.0,-1.0,-2.0,1.0,-3.0,-1.0,-2.0
1706276939.9612982,-1.0,0.0,0.0,-1.0,0.0,-1.0,-1.0,-1.0
1706276939.9612982,1.0,0.0,-1.0,-1.0,-3.0,-1.0,-2.0,0.0
1706276939.9612982,0.0,-1.0,0.0,-1.0,-1.0,-2.0,0.0,-2.0
1706276939.9612982,-2.0,-3.0,-2.0,0.0,1.0,0.0,-1.0,1.0
1706276939.9612982,-1.0,-1.0,-2.0,-1.0,-1.0,0.0,-2.0,0.0
1706276939.9612982,-2.0,-1.0,-4.0,-2.0,-1.0,-2.0,-1.0,0.0
1706276939.9612982,-2.0,0.0,-1.0,-1.0,-2.0,0.0,-1.0,0.0
1706276939.9912717,0.0,0.0,-3.0,0.0,-2.0,-1.0,0.0,-2.0
1706276939.9912717,-1.0,-1.0,0.0,-1.0,0.0,0.0,1.0,-1.0
1706276939.9912717,-1.0,-2.0,-1.0,-1.0,-1.0,0.0,0.0,-1.0
1706276939.9912717,0.0,-2.0,-1.0,0.0,-1.0,-2.0,0.0,-1.0
1706276940.0013847,-1.0,-2.0,-1.0,0.0,0.0,-1.0,-1.0,-2.0
1706276940.0013847,-2.0,0.0,-1.0,-2.0,-2.0,-2.0,-1.0,1.0
1706276940.0013847,0.0,-2.0,-1.0,-2.0,-1.0,-1.0,1.0,-2.0
1706276940.0013847,1.0,-2.0,0.0,-2.0,-3.0,-2.0,-1.0,-2.0
1706276940.0112677,-1.0,-1.0,0.0,-3.0,-1.0,-3.0,0.0,0.0
1706276940.0112677,0.0,-1.0,-3.0,-1.0,-2.0,-1.0,-1.0,-2.0
1706276940.0112677,-1.0,0.0,-3.0,-1.0,-1.0,-2.0,0.0,0.0
1706276940.0112677,-1.0,0.0,-2.0,-1.0,0.0,0.0,1.0,-1.0
1706276940.031302,0.0,-1.0,-1.0,0.0,-2.0,0.0,0.0,0.0
1706276940.031302,-2.0,1.0,-1.0,0.0,-1.0,-3.0,0.0,-1.0
1706276940.041263,-1.0,1.0,-1.0,-1.0,0.0,-1.0,-2.0,0.0
1706276940.041263,-1.0,-1.0,-1.0,1.0,-1.0,-1.0,-2.0,-1.0
1706276940.0612633,-1.0,0.0,-1.0,0.0,-1.0,0.0,-1.0,-3.0
1706276940.0612633,-2.0,-3.0,-1.0,0.0,0.0,0.0,0.0,-1.0
1706276940.0612633,-2.0,-2.0,1.0,-1.0,-2.0,0.0,-1.0,-2.0
1706276940.0612633,-1.0,0.0,-1.0,-2.0,-1.0,1.0,-1.0,-1.0
1706276940.071264,-1.0,-2.0,-1.0,-3.0,0.0,-2.0,-3.0,0.0
1706276940.071264,0.0,-1.0,-1.0,0.0,-1.0,0.0,-2.0,-2.0
1706276940.0813003,-1.0,0.0,1.0,0.0,0.0,-1.0,0.0,-1.0
1706276940.0813003,-3.0,-2.0,-3.0,-1.0,-1.0,-1.0,-2.0,0.0
1706276940.1012995,-1.0,0.0,-1.0,0.0,-3.0,-1.0,-3.0,-2.0
1706276940.1012995,0.0,-1.0,-2.0,-1.0,0.0,1.0,-2.0,0.0
1706276940.1012995,-1.0,-3.0,0.0,-1.0,-1.0,-2.0,-4.0,-1.0
1706276940.1012995,-2.0,-2.0,0.0,-1.0,-1.0,-2.0,0.0,-2.0
1706276940.1212618,-1.0,-1.0,-1.0,-1.0,0.0,-1.0,0.0,1.0
1706276940.1212618,-1.0,-1.0,-1.0,-3.0,0.0,-2.0,1.0,-2.0
1706276940.1212618,-1.0,-2.0,-2.0,-1.0,0.0,-1.0,-1.0,-1.0
1706276940.1212618,-1.0,-1.0,-2.0,0.0,0.0,0.0,0.0,-1.0
1706276940.131264,-3.0,-1.0,-1.0,-1.0,-3.0,-1.0,1.0,-1.0
1706276940.131264,-1.0,0.0,0.0,-2.0,-1.0,-2.0,-1.0,-2.0
1706276940.141264,-2.0,1.0,0.0,-2.0,-2.0,-1.0,-1.0,-2.0
1706276940.141264,-2.0,0.0,-2.0,-3.0,0.0,0.0,-2.0,0.0
1706276940.151262,0.0,-2.0,-2.0,-1.0,1.0,0.0,-1.0,-1.0
1706276940.151262,-3.0,-4.0,-1.0,-1.0,-1.0,-2.0,-1.0,0.0
1706276940.1612608,-1.0,-1.0,-2.0,0.0,-1.0,0.0,-1.0,-2.0
1706276940.1612608,-1.0,-2.0,-2.0,-1.0,-3.0,-3.0,-2.0,-1.0
1706276940.1812637,0.0,0.0,-2.0,0.0,0.0,-2.0,-1.0,-2.0
1706276940.1812637,-1.0,-1.0,0.0,-1.0,0.0,1.0,-1.0,-1.0
1706276940.1812637,1.0,0.0,-1.0,-1.0,0.0,0.0,-1.0,0.0
1706276940.1812637,-2.0,-2.0,0.0,1.0,0.0,1.0,0.0,0.0
1706276940.191463,-1.0,-1.0,-1.0,0.0,-3.0,-1.0,-1.0,-2.0
1706276940.191463,0.0,0.0,-2.0,-2.0,-2.0,0.0,0.0,-1.0
1706276940.2014542,-3.0,-2.0,-2.0,-1.0,0.0,-1.0,-1.0,0.0
1706276940.2014542,0.0,-1.0,-1.0,-2.0,-1.0,-2.0,-1.0,-3.0
1706276940.2212963,0.0,-1.0,1.0,-2.0,-2.0,-2.0,-1.0,-1.0
1706276940.2212963,0.0,-2.0,1.0,0.0,0.0,-2.0,-1.0,-1.0
1706276940.2212963,-1.0,-2.0,-1.0,-1.0,-2.0,-1.0,0.0,-2.0
1706276940.2212963,0.0,-2.0,0.0,-1.0,-1.0,0.0,-1.0,0.0
1706276940.2440171,-1.0,-3.0,-1.0,0.0,1.0,-2.0,-2.0,0.0
1706276940.2440171,-1.0,-1.0,-1.0,-1.0,0.0,-2.0,-2.0,-1.0
1706276940.2440171,0.0,-1.0,-3.0,1.0,-1.0,-2.0,-1.0,0.0
1706276940.2440171,0.0,0.0,-1.0,0.0,-2.0,-3.0,-2.0,-2.0
1706276940.254119,-2.0,2.0,0.0,-1.0,-2.0,-3.0,-2.0,-3.0
1706276940.254119,-1.0,0.0,-1.0,-2.0,-1.0,0.0,-3.0,-1.0
1706276940.2642937,-2.0,0.0,-1.0,-1.0,-2.0,-1.0,-1.0,0.0
1706276940.2642937,-1.0,0.0,-3.0,0.0,-2.0,0.0,-1.0,-1.0
1706276940.2741194,-2.0,-1.0,-1.0,-1.0,-1.0,2.0,1.0,-1.0
1706276940.2741194,-1.0,-1.0,-2.0,0.0,-2.0,0.0,-1.0,1.0
1706276940.2741194,-2.0,-1.0,-1.0,-1.0,-1.0,-4.0,1.0,-1.0
1706276940.2741194,-1.0,-1.0,0.0,-1.0,-2.0,0.0,1.0,0.0
1706276940.3041227,0.0,0.0,-2.0,0.0,-2.0,-1.0,0.0,-2.0
1706276940.3041227,-2.0,-2.0,-3.0,-1.0,-3.0,-2.0,0.0,-1.0
1706276940.3041227,-1.0,-1.0,-1.0,0.0,-1.0,0.0,0.0,-3.0
1706276940.3041227,-1.0,-2.0,0.0,-2.0,-1.0,-1.0,0.0,-2.0
1706276940.3144836,0.0,-2.0,-1.0,-4.0,0.0,-2.0,-2.0,-1.0
1706276940.3144836,-1.0,-1.0,-2.0,0.0,0.0,-1.0,0.0,-1.0
1706276940.3341248,-2.0,-1.0,-1.0,-1.0,-1.0,0.0,0.0,1.0
1706276940.3341248,-2.0,-1.0,-1.0,-1.0,-1.0,-1.0,-1.0,-2.0
1706276940.3341248,-1.0,-2.0,-1.0,0.0,-1.0,0.0,-1.0,-1.0
1706276940.3341248,0.0,-1.0,1.0,-2.0,0.0,-1.0,0.0,-1.0
1706276940.3341248,-1.0,0.0,-2.0,-2.0,-1.0,-3.0,-1.0,-1.0
1706276940.3341248,-2.0,-1.0,-1.0,-1.0,2.0,0.0,0.0,-1.0
1706276940.3744917,-1.0,-1.0,0.0,0.0,-3.0,0.0,0.0,1.0
1706276940.3744917,-2.0,1.0,-2.0,-2.0,0.0,0.0,0.0,-1.0
1706276940.3744917,-1.0,-1.0,-3.0,0.0,-1.0,-1.0,-2.0,0.0
1706276940.3744917,0.0,-2.0,-1.0,-2.0,-1.0,-1.0,0.0,0.0
1706276940.3744917,0.0,-1.0,-1.0,-1.0,0.0,0.0,-2.0,0.0
1706276940.3744917,-3.0,-1.0,-1.0,0.0,-2.0,-2.0,-1.0,-1.0
1706276940.3848472,0.0,-2.0,1.0,-1.0,0.0,-1.0,-1.0,-1.0
1706276940.3848472,-1.0,-1.0,-1.0,2.0,0.0,-1.0,-1.0,-2.0
1706276940.3944962,0.0,-3.0,-2.0,0.0,0.0,-2.0,-1.0,-1.0
1706276940.3944962,-1.0,-1.0,-2.0,0.0,-2.0,-1.0,-1.0,-1.0
1706276940.3944962,-2.0,-1.0,-1.0,-2.0,0.0,-1.0,-1.0,-1.0
1706276940.3944962,-1.0,-2.0,-2.0,-1.0,-2.0,1.0,-2.0,-1.0
1706276940.424498,-2.0,0.0,0.0,2.0,-1.0,-2.0,-2.0,-2.0
1706276940.424498,-2.0,-1.0,-2.0,-1.0,-1.0,-1.0,-1.0,1.0
1706276940.424498,0.0,-1.0,-1.0,-1.0,-1.0,-2.0,0.0,-2.0
1706276940.424498,-1.0,0.0,-1.0,-2.0,-2.0,-3.0,-1.0,-2.0
1706276940.4544957,-3.0,1.0,-1.0,-2.0,-2.0,1.0,-1.0,0.0
1706276940.4544957,-1.0,-1.0,-1.0,0.0,-2.0,-2.0,1.0,-1.0
1706276940.4544957,-1.0,-2.0,-1.0,-2.0,0.0,0.0,0.0,-1.0
1706276940.4544957,-3.0,-1.0,0.0,0.0,-1.0,-1.0,-1.0,0.0
1706276940.4544957,-1.0,-1.0,-1.0,0.0,-1.0,-1.0,-1.0,-1.0
1706276940.4544957,-1.0,0.0,0.0,-1.0,-1.0,-1.0,-1.0,-2.0
1706276940.4544957,0.0,-1.0,-1.0,-2.0,-1.0,-1.0,-1.0,-3.0
1706276940.4544957,-1.0,0.0,0.0,-2.0,-1.0,-1.0,-4.0,-1.0
1706276940.4748292,-2.0,-2.0,-2.0,-2.0,0.0,0.0,0.0,-3.0
1706276940.4748292,-2.0,-1.0,0.0,-2.0,-2.0,-1.0,0.0,0.0
1706276940.4844968,-3.0,-2.0,-3.0,0.0,0.0,0.0,0.0,-1.0
1706276940.4844968,0.0,1.0,-3.0,0.0,-1.0,-1.0,0.0,-2.0
1706276940.4948254,-1.0,0.0,-3.0,-1.0,-1.0,0.0,-1.0,-1.0
1706276940.4948254,1.0,0.0,-1.0,-2.0,-1.0,-1.0,-1.0,-1.0
1706276940.504856,-2.0,-1.0,-1.0,1.0,0.0,1.0,-1.0,0.0
1706276940.504856,0.0,-2.0,0.0,-1.0,-1.0,-1.0,-2.0,0.0
1706276940.5144932,0.0,2.0,2.0,-2.0,-2.0,0.0,-2.0,-1.0
1706276940.5144932,0.0,-1.0,-2.0,-2.0,-2.0,0.0,-2.0,-1.0
1706276940.5144932,-1.0,-2.0,0.0,-2.0,-3.0,-1.0,0.0,-1.0
1706276940.5144932,-2.0,-2.0,-1.0,-1.0,0.0,0.0,0.0,0.0
1706276940.5445144,-1.0,-1.0,-1.0,0.0,0.0,-1.0,-1.0,0.0
1706276940.5445144,-3.0,-2.0,-2.0,-1.0,-1.0,-1.0,-2.0,-1.0
1706276940.5445144,0.0,1.0,-1.0,-1.0,-2.0,-3.0,0.0,-2.0
1706276940.5445144,-1.0,-1.0,-1.0,-1.0,0.0,-1.0,0.0,-1.0
1706276940.564528,0.0,-2.0,-1.0,-3.0,-1.0,-3.0,-1.0,0.0
1706276940.564528,-1.0,1.0,0.0,0.0,0.0,0.0,-2.0,-1.0
1706276940.564528,0.0,0.0,-3.0,-1.0,-3.0,-3.0,-4.0,-1.0
1706276940.564528,1.0,0.0,0.0,-1.0,-1.0,-2.0,-3.0,-2.0
1706276940.5747764,1.0,0.0,0.0,0.0,0.0,-1.0,-2.0,1.0
1706276940.5747764,0.0,-1.0,0.0,0.0,-2.0,0.0,-2.0,1.0
1706276940.5747764,-1.0,-2.0,-3.0,0.0,-2.0,-1.0,-1.0,0.0
1706276940.5747764,-1.0,-1.0,0.0,0.0,-2.0,-1.0,0.0,0.0
1706276940.6044977,0.0,-1.0,-1.0,-1.0,-2.0,0.0,1.0,-2.0
1706276940.6044977,-1.0,0.0,0.0,0.0,-1.0,-2.0,0.0,-2.0
1706276940.6044977,1.0,-1.0,-1.0,0.0,-1.0,0.0,0.0,0.0
1706276940.6044977,-2.0,-2.0,-1.0,-1.0,-2.0,-1.0,0.0,-1.0
1706276940.6247709,-2.0,-1.0,-1.0,-1.0,-2.0,-3.0,-2.0,-1.0
1706276940.6247709,-1.0,-2.0,0.0,-1.0,-1.0,-1.0,-1.0,-2.0
1706276940.6247709,-1.0,-3.0,-1.0,-2.0,-1.0,-1.0,-2.0,-2.0
1706276940.6247709,-1.0,0.0,-3.0,-2.0,-1.0,-1.0,-1.0,-2.0
1706276940.63464,-1.0,-2.0,-2.0,-1.0,0.0,-1.0,-1.0,0.0
1706276940.63464,-1.0,0.0,-2.0,-4.0,0.0,-1.0,-2.0,-3.0
1706276940.63464,0.0,-1.0,1.0,-2.0,0.0,-2.0,-1.0,-1.0
1706276940.63464,-1.0,1.0,-1.0,0.0,-2.0,0.0,-1.0,-1.0
1706276940.664494,0.0,-3.0,-1.0,0.0,-1.0,0.0,0.0,0.0
1706276940.664494,1.0,-1.0,-1.0,0.0,-2.0,-2.0,1.0,0.0
1706276940.664494,-2.0,-1.0,-1.0,1.0,-1.0,1.0,0.0,0.0
1706276940.664494,-1.0,0.0,-1.0,0.0,-1.0,0.0,-2.0,-1.0
1706276940.6844916,-1.0,-1.0,-1.0,-1.0,-2.0,0.0,-1.0,-3.0
1706276940.6844916,-2.0,-3.0,-3.0,-2.0,-2.0,-2.0,-1.0,-1.0
1706276940.6844916,-2.0,0.0,0.0,0.0,0.0,1.0,-2.0,-3.0
1706276940.6844916,-1.0,-4.0,-2.0,-2.0,-1.0,-2.0,-1.0,0.0
1706276940.6947875,-1.0,-1.0,-2.0,0.0,-2.0,-2.0,-2.0,-2.0
1706276940.6947875,0.0,0.0,0.0,0.0,0.0,1.0,-1.0,0.0
1706276940.6947875,0.0,0.0,-1.0,-1.0,-1.0,-2.0,0.0,-2.0
1706276940.6947875,1.0,0.0,-1.0,0.0,-3.0,-1.0,-1.0,-1.0
1706276940.7244954,-3.0,0.0,-2.0,-1.0,-1.0,1.0,-2.0,-1.0
1706276940.7244954,-1.0,-2.0,0.0,0.0,0.0,0.0,-2.0,-1.0
1706276940.7244954,-1.0,-1.0,0.0,0.0,-1.0,-1.0,0.0,-1.0
1706276940.7244954,-1.0,-2.0,0.0,-2.0,1.0,-2.0,1.0,-1.0
1706276940.7448716,0.0,0.0,-1.0,-2.0,-1.0,-2.0,-1.0,0.0
1706276940.7448716,-1.0,-1.0,-1.0,0.0,-1.0,1.0,0.0,0.0
1706276940.7448716,-1.0,-1.0,0.0,-2.0,-2.0,-2.0,-1.0,-1.0
1706276940.7448716,-1.0,-2.0,-1.0,-2.0,0.0,0.0,-1.0,-2.0
1706276940.769717,-1.0,-2.0,-1.0,0.0,1.0,0.0,0.0,-2.0
1706276940.769717,0.0,-1.0,-3.0,-2.0,-1.0,-1.0,1.0,0.0
1706276940.769717,-3.0,-2.0,-2.0,0.0,0.0,0.0,-3.0,-2.0
1706276940.769717,0.0,-2.0,-3.0,-2.0,0.0,0.0,-1.0,-2.0
1706276940.7830036,-1.0,-1.0,0.0,-2.0,0.0,0.0,0.0,-1.0
1706276940.7840087,-2.0,-1.0,-1.0,1.0,-2.0,-2.0,-1.0,-3.0
1706276940.7840087,0.0,-1.0,-2.0,-2.0,-2.0,-2.0,0.0,1.0
1706276940.7840087,-1.0,0.0,-1.0,-1.0,-2.0,-1.0,-1.0,-1.0
1706276940.8068357,0.0,-2.0,-1.0,0.0,0.0,-2.0,0.0,0.0
1706276940.8068357,-2.0,-1.0,-2.0,0.0,-2.0,-2.0,-1.0,0.0
1706276940.8068357,-2.0,-1.0,-1.0,-1.0,1.0,-1.0,0.0,-3.0
1706276940.8068357,-1.0,0.0,0.0,0.0,-1.0,-1.0,-1.0,-1.0
1706276940.8172054,-1.0,-1.0,0.0,-2.0,-1.0,-1.0,0.0,0.0
1706276940.8172054,1.0,-2.0,0.0,-1.0,0.0,0.0,-1.0,-1.0
1706276940.8172054,-2.0,-2.0,-2.0,0.0,0.0,0.0,0.0,0.0
1706276940.8172054,-3.0,0.0,0.0,-1.0,-1.0,-2.0,-1.0,0.0
1706276940.8468332,-1.0,0.0,-1.0,-2.0,-2.0,-1.0,-2.0,-1.0
1706276940.8468332,-1.0,1.0,-1.0,-1.0,-1.0,-2.0,0.0,-2.0
1706276940.8468332,0.0,1.0,-1.0,0.0,-3.0,0.0,-2.0,0.0
1706276940.8468332,-2.0,-3.0,-1.0,-2.0,-2.0,-1.0,-1.0,0.0
1706276940.857213,-3.0,1.0,-1.0,-1.0,0.0,-2.0,-1.0,-3.0
1706276940.857213,-1.0,-2.0,-2.0,2.0,1.0,-1.0,-1.0,-1.0
1706276940.8668373,0.0,-1.0,-1.0,-2.0,0.0,-1.0,0.0,-1.0
1706276940.8668373,0.0,-2.0,0.0,0.0,-1.0,0.0,1.0,0.0
1706276940.8771234,1.0,-2.0,-2.0,0.0,-3.0,-2.0,-1.0,0.0
1706276940.8771234,-3.0,-3.0,-1.0,0.0,-2.0,-1.0,-2.0,-2.0
1706276940.8771234,-2.0,-1.0,-1.0,-1.0,-2.0,-2.0,-2.0,0.0
1706276940.8771234,0.0,-1.0,0.0,1.0,-1.0,-2.0,1.0,-1.0
1706276940.8968325,-2.0,-1.0,2.0,-1.0,0.0,-1.0,-1.0,-1.0
1706276940.8968325,0.0,-2.0,0.0,-2.0,-3.0,-1.0,-3.0,-2.0
1706276940.8968325,0.0,-2.0,-2.0,-2.0,-1.0,0.0,0.0,0.0
1706276940.8968325,-1.0,-1.0,-2.0,0.0,-1.0,-2.0,-2.0,-1.0
1706276940.9172614,-1.0,-1.0,-3.0,0.0,-2.0,-2.0,-1.0,-1.0
1706276940.9172614,0.0,0.0,0.0,-1.0,-2.0,-1.0,-2.0,0.0
1706276940.9268363,-1.0,0.0,-3.0,-2.0,-1.0,0.0,0.0,1.0
1706276940.9268363,-1.0,-1.0,-2.0,-1.0,0.0,-1.0,-2.0,-2.0
1706276940.9468327,-2.0,0.0,-2.0,-2.0,0.0,-1.0,0.0,-1.0
1706276940.9468327,-2.0,-2.0,-2.0,0.0,-1.0,-1.0,-1.0,0.0
1706276940.9468327,-2.0,-2.0,0.0,-1.0,-1.0,-3.0,-1.0,-2.0
1706276940.9468327,0.0,-1.0,-1.0,-1.0,-2.0,-2.0,-1.0,-2.0
1706276940.957231,-1.0,-2.0,-1.0,0.0,-2.0,0.0,-1.0,-2.0
1706276940.957231,1.0,0.0,-2.0,-1.0,-1.0,1.0,-1.0,0.0
1706276940.957231,0.0,-1.0,1.0,0.0,-1.0,-2.0,-1.0,-2.0
1706276940.957231,-2.0,0.0,1.0,0.0,-2.0,1.0,-2.0,-1.0
1706276940.986839,1.0,-1.0,0.0,0.0,0.0,1.0,0.0,1.0
1706276940.986839,-3.0,0.0,0.0,-1.0,1.0,0.0,0.0,0.0
1706276940.986839,-2.0,-2.0,-1.0,0.0,-1.0,-1.0,-1.0,-3.0
1706276940.986839,-1.0,-1.0,-1.0,-2.0,-2.0,-2.0,-2.0,-1.0
1706276940.9971669,-2.0,-1.0,-1.0,-1.0,-3.0,-1.0,-2.0,0.0
1706276940.9971669,0.0,0.0,0.0,-1.0,-1.0,0.0,1.0,-2.0
1706276940.9971669,-1.0,-1.0,0.0,-1.0,-1.0,0.0,-2.0,-2.0
1706276940.9971669,-2.0,-1.0,-1.0,-2.0,-1.0,-1.0,-2.0,-1.0
1706276941.0168326,-2.0,-2.0,-1.0,0.0,-2.0,-1.0,0.0,0.0
1706276941.0168326,-1.0,-2.0,0.0,-1.0,-1.0,0.0,-2.0,-2.0
1706276941.0168326,-1.0,-1.0,0.0,-2.0,0.0,-1.0,-2.0,0.0
1706276941.0168326,1.0,0.0,-1.0,-1.0,-1.0,1.0,0.0,-1.0
1706276941.0372787,0.0,-1.0,-1.0,-1.0,-1.0,-2.0,-1.0,-2.0
1706276941.046844,-1.0,0.0,-1.0,0.0,-1.0,-1.0,-2.0,-1.0
1706276941.046844,0.0,-1.0,-1.0,0.0,0.0,-1.0,-1.0,-1.0
1706276941.046844,-3.0,-1.0,-1.0,-1.0,-1.0,0.0,-2.0,0.0
1706276941.0568347,0.0,0.0,-1.0,0.0,0.0,0.0,-2.0,0.0
1706276941.0568347,-2.0,-2.0,0.0,-1.0,1.0,-1.0,0.0,0.0
1706276941.0568347,1.0,1.0,-1.0,-1.0,-1.0,-1.0,-3.0,0.0
1706276941.0568347,-1.0,-2.0,-1.0,0.0,1.0,-1.0,-2.0,0.0
1706276941.077197,-1.0,0.0,-2.0,0.0,-1.0,-3.0,-3.0,-2.0
1706276941.077197,0.0,0.0,-2.0,0.0,-2.0,-1.0,-1.0,-2.0
1706276941.077197,0.0,0.0,-2.0,-2.0,-1.0,-1.0,1.0,-1.0
1706276941.077197,-1.0,0.0,-2.0,-1.0,-2.0,-1.0,-2.0,-2.0
1706276941.0968344,0.0,-2.0,0.0,-2.0,-1.0,-1.0,-1.0,-1.0
1706276941.0968344,-2.0,0.0,-1.0,-1.0,0.0,1.0,1.0,0.0
1706276941.1068347,-2.0,0.0,0.0,-1.0,-1.0,0.0,-1.0,-1.0
1706276941.1068347,-4.0,-2.0,0.0,0.0,-1.0,-1.0,-2.0,-1.0
1706276941.1168325,-1.0,0.0,-2.0,-2.0,-1.0,-1.0,0.0,1.0
1706276941.1168325,-2.0,-2.0,-1.0,1.0,-1.0,-1.0,-1.0,-2.0
1706276941.1168325,0.0,-1.0,-1.0,0.0,-2.0,0.0,1.0,-1.0
1706276941.1168325,-1.0,-1.0,-2.0,0.0,0.0,-1.0,0.0,-2.0
1706276941.1372645,-2.0,0.0,-1.0,-1.0,0.0,-1.0,-2.0,1.0
1706276941.1372645,-1.0,-1.0,-1.0,0.0,-1.0,-2.0,-1.0,1.0
1706276941.1372645,-1.0,-1.0,0.0,-2.0,-2.0,0.0,-3.0,0.0
1706276941.1372645,1.0,-2.0,0.0,-1.0,-2.0,-2.0,-1.0,0.0
1706276941.1572704,-3.0,-1.0,0.0,0.0,-1.0,0.0,-1.0,-2.0
1706276941.1572704,1.0,-1.0,-2.0,-2.0,-2.0,1.0,1.0,-1.0
1706276941.166837,-1.0,-3.0,-2.0,0.0,-1.0,-1.0,0.0,0.0
1706276941.166837,-2.0,-1.0,-1.0,-2.0,0.0,-1.0,-2.0,-1.0
1706276941.176834,0.0,-1.0,-3.0,-2.0,-1.0,-1.0,0.0,-1.0
1706276941.176834,0.0,0.0,0.0,-1.0,-1.0,-1.0,-1.0,0.0
1706276941.1869884,-1.0,1.0,-1.0,-1.0,-1.0,-1.0,0.0,-1.0
1706276941.1869884,1.0,0.0,-2.0,0.0,0.0,-2.0,-2.0,-2.0
1706276941.1971292,0.0,-1.0,0.0,-1.0,-1.0,-1.0,-1.0,0.0
1706276941.1971292,0.0,1.0,-2.0,-2.0,-1.0,-1.0,-1.0,-2.0
1706276941.1971292,-1.0,0.0,-1.0,0.0,-1.0,-1.0,-1.0,-1.0
1706276941.1971292,-1.0,0.0,0.0,-3.0,-2.0,-1.0,-1.0,-1.0
1706276941.2268398,-2.0,-1.0,-1.0,0.0,-1.0,-1.0,0.0,0.0
1706276941.2268398,-1.0,-1.0,-1.0,-2.0,-1.0,-3.0,-1.0,-1.0
1706276941.2268398,0.0,-1.0,-3.0,-1.0,0.0,-2.0,-1.0,0.0
1706276941.2268398,0.0,1.0,-2.0,-1.0,-1.0,-1.0,-1.0,0.0
1706276941.2568367,1.0,-2.0,-1.0,-2.0,-2.0,-1.0,-2.0,-1.0
1706276941.2568367,0.0,0.0,-1.0,0.0,-1.0,-2.0,-2.0,0.0
1706276941.2568367,-3.0,-2.0,-1.0,0.0,-1.0,0.0,-2.0,-2.0
1706276941.2568367,-1.0,-1.0,0.0,-1.0,0.0,0.0,0.0,-2.0
1706276941.2568367,-1.0,-1.0,-1.0,-1.0,-1.0,-1.0,-1.0,-1.0
1706276941.2568367,-1.0,0.0,-1.0,-1.0,-2.0,-1.0,-1.0,0.0
1706276941.2568367,-1.0,0.0,-1.0,0.0,-1.0,-1.0,-1.0,0.0
1706276941.2568367,0.0,-1.0,-2.0,0.0,-1.0,-1.0,0.0,-2.0
1706276941.2772799,-2.0,-1.0,0.0,0.0,-2.0,1.0,1.0,-1.0
1706276941.2772799,-2.0,-1.0,-1.0,-2.0,1.0,-1.0,0.0,-1.0
1706276941.2868388,-1.0,-2.0,-1.0,0.0,-1.0,0.0,-1.0,0.0
1706276941.2868388,-2.0,-1.0,-4.0,-2.0,-2.0,0.0,-1.0,0.0
1706276941.3032374,-1.0,0.0,-1.0,0.0,0.0,-3.0,-2.0,-1.0
1706276941.3032374,-1.0,1.0,-1.0,0.0,-1.0,0.0,-1.0,-1.0
1706276941.3083415,0.0,1.0,1.0,-2.0,-2.0,-3.0,-2.0,-1.0
1706276941.3083415,-2.0,0.0,-1.0,-3.0,-2.0,-3.0,-3.0,-3.0
1706276941.3197608,0.0,1.0,-1.0,2.0,1.0,1.0,-2.0,-2.0
1706276941.3197608,1.0,-1.0,0.0,-1.0,0.0,-1.0,-1.0,-1.0
1706276941.3197608,1.0,-2.0,-2.0,-1.0,0.0,-2.0,-3.0,-2.0
1706276941.3197608,-2.0,-1.0,-1.0,-2.0,-2.0,-2.0,-2.0,-1.0
1706276941.3397627,0.0,-2.0,-1.0,-2.0,-3.0,-2.0,-1.0,-1.0
1706276941.3397627,-2.0,-2.0,-1.0,1.0,1.0,-2.0,-1.0,-2.0
1706276941.3397627,-1.0,0.0,0.0,-1.0,-2.0,1.0,2.0,-2.0
1706276941.3397627,-1.0,-1.0,-1.0,-1.0,-1.0,0.0,0.0,-1.0
1706276941.3697672,-2.0,0.0,-2.0,-1.0,-1.0,-1.0,-2.0,0.0
1706276941.3697672,0.0,-1.0,-3.0,-3.0,-3.0,-1.0,-1.0,-1.0
1706276941.3697672,0.0,0.0,-2.0,-2.0,-1.0,-1.0,0.0,-1.0
1706276941.3697672,0.0,-3.0,-1.0,0.0,1.0,-1.0,-2.0,-1.0
1706276941.3797696,-2.0,-2.0,2.0,0.0,0.0,2.0,-2.0,-2.0
1706276941.3797696,-2.0,-1.0,0.0,-1.0,-1.0,-2.0,-1.0,-1.0
1706276941.3797696,-3.0,-1.0,0.0,-3.0,-1.0,-1.0,-1.0,-1.0
1706276941.3797696,1.0,0.0,-1.0,-1.0,0.0,-1.0,0.0,0.0
1706276941.3998113,-1.0,-1.0,-3.0,-2.0,-1.0,-1.0,-2.0,0.0
1706276941.3998113,-1.0,-3.0,-1.0,-1.0,-3.0,-2.0,-1.0,0.0
1706276941.3998113,-2.0,-3.0,0.0,0.0,-8.0,-1.0,-1.0,-2.0
1706276941.3998113,0.0,0.0,1.0,1.0,4.0,3.0,2.0,0.0
1706276941.4202332,-3.0,-2.0,0.0,0.0,1.0,-2.0,1.0,0.0
1706276941.4202332,-1.0,-1.0,-1.0,0.0,0.0,-1.0,-2.0,1.0
1706276941.4202332,1.0,-1.0,-1.0,-2.0,-1.0,0.0,-1.0,0.0
1706276941.4202332,0.0,1.0,0.0,0.0,1.0,-1.0,-1.0,1.0
1706276941.4498525,-1.0,-1.0,-1.0,-4.0,0.0,-3.0,-2.0,-2.0
1706276941.4498525,-4.0,-2.0,0.0,-2.0,-1.0,-1.0,0.0,-1.0
1706276941.4498525,0.0,-2.0,-1.0,-1.0,-2.0,-2.0,0.0,-1.0
1706276941.4498525,-1.0,-2.0,-1.0,0.0,-1.0,-2.0,-1.0,-2.0
1706276941.4600852,-1.0,-2.0,-3.0,-2.0,-1.0,-1.0,0.0,-1.0
1706276941.4600852,1.0,-1.0,-2.0,-1.0,-4.0,-4.0,-1.0,-1.0
1706276941.4600852,0.0,0.0,-2.0,-1.0,1.0,-1.0,-2.0,-1.0
1706276941.4600852,-2.0,-3.0,-1.0,0.0,-2.0,-3.0,-2.0,-2.0
1706276941.480152,0.0,0.0,-1.0,1.0,-2.0,-1.0,0.0,0.0
1706276941.480152,0.0,0.0,0.0,0.0,-2.0,1.0,-1.0,-2.0
1706276941.4898908,-2.0,1.0,-1.0,2.0,5.0,2.0,0.0,0.0
1706276941.4898908,-2.0,-1.0,-2.0,-1.0,0.0,-1.0,-2.0,-1.0
1706276941.519985,0.0,-1.0,-1.0,-3.0,-1.0,-2.0,-1.0,-2.0
1706276941.519985,-2.0,-3.0,-2.0,-1.0,-2.0,-1.0,-2.0,0.0
1706276941.519985,-2.0,-2.0,-1.0,-1.0,-1.0,-1.0,0.0,-1.0
1706276941.519985,-2.0,0.0,0.0,-1.0,-5.0,-1.0,0.0,-1.0
1706276941.519985,-1.0,0.0,1.0,-2.0,0.0,0.0,-1.0,-1.0
1706276941.519985,-1.0,0.0,0.0,-2.0,0.0,-2.0,0.0,-2.0
1706276941.519985,-1.0,-1.0,-1.0,-1.0,-1.0,-1.0,-1.0,1.0
1706276941.519985,-2.0,-2.0,-1.0,-3.0,-1.0,-2.0,-1.0,-1.0
1706276941.5404396,0.0,1.0,-2.0,-3.0,-2.0,0.0,1.0,-1.0
1706276941.5404396,0.0,-1.0,0.0,-1.0,-1.0,-1.0,-1.0,-2.0
1706276941.5404396,-1.0,0.0,0.0,-1.0,0.0,-2.0,-1.0,-2.0
1706276941.5404396,-2.0,-1.0,-1.0,0.0,-2.0,0.0,0.0,-2.0
1706276941.5704525,0.0,-1.0,-1.0,0.0,-2.0,-2.0,-3.0,-1.0
1706276941.5704525,0.0,-1.0,0.0,0.0,0.0,0.0,-1.0,-1.0
1706276941.5704525,0.0,-2.0,0.0,-1.0,-1.0,-3.0,-1.0,-1.0
1706276941.5704525,-1.0,1.0,-2.0,0.0,0.0,-3.0,-1.0,0.0
1706276941.5806768,0.0,-1.0,0.0,-1.0,-1.0,-2.0,-1.0,-1.0
1706276941.5806768,0.0,0.0,-3.0,-1.0,0.0,-2.0,-2.0,-1.0
1706276941.5806768,-3.0,-1.0,0.0,0.0,-1.0,-2.0,-1.0,-2.0
1706276941.5806768,-1.0,-1.0,0.0,-1.0,-1.0,-1.0,-1.0,0.0
1706276941.6006866,-1.0,-1.0,-1.0,0.0,-3.0,0.0,-1.0,1.0
1706276941.6104584,-1.0,-1.0,0.0,-1.0,-1.0,0.0,-1.0,-1.0
1706276941.6104584,0.0,-2.0,0.0,-1.0,-1.0,0.0,-2.0,-3.0
1706276941.6104584,0.0,0.0,-2.0,-3.0,-2.0,-1.0,-2.0,-1.0
1706276941.640451,-1.0,-1.0,-1.0,0.0,0.0,-1.0,-1.0,0.0
1706276941.640451,-3.0,-1.0,-2.0,-2.0,0.0,0.0,-1.0,-2.0
1706276941.640451,-3.0,0.0,-2.0,-1.0,-2.0,0.0,-1.0,-2.0
1706276941.640451,0.0,0.0,1.0,0.0,-2.0,-1.0,0.0,-1.0
1706276941.640451,0.0,0.0,-1.0,-1.0,-1.0,-1.0,-3.0,-2.0
1706276941.640451,-1.0,-1.0,-1.0,-1.0,0.0,-1.0,0.0,0.0
1706276941.640451,0.0,-2.0,0.0,-1.0,-1.0,-2.0,-1.0,1.0
1706276941.640451,-2.0,1.0,-1.0,-1.0,-1.0,0.0,-1.0,0.0
1706276941.6804543,0.0,-3.0,-1.0,0.0,-2.0,-1.0,1.0,-1.0
1706276941.6804543,0.0,0.0,-3.0,-2.0,-1.0,-1.0,-2.0,0.0
1706276941.6804543,0.0,-3.0,-1.0,-1.0,0.0,-1.0,-1.0,-1.0
1706276941.6804543,0.0,-3.0,0.0,-2.0,-2.0,-2.0,-1.0,-1.0
1706276941.6804543,-1.0,-1.0,-2.0,0.0,1.0,-2.0,0.0,-1.0
1706276941.6804543,-3.0,-2.0,0.0,-3.0,-1.0,-1.0,0.0,-2.0
1706276941.6804543,-1.0,-1.0,-1.0,-1.0,0.0,0.0,-3.0,1.0
1706276941.6804543,0.0,-3.0,0.0,-1.0,0.0,1.0,-1.0,-1.0
1706276941.7008522,-3.0,-1.0,-1.0,0.0,0.0,-2.0,-4.0,-2.0
1706276941.7008522,-1.0,-1.0,-2.0,-1.0,-1.0,-1.0,0.0,0.0
1706276941.7008522,0.0,1.0,0.0,-2.0,-1.0,-1.0,-1.0,-3.0
1706276941.7008522,-1.0,-1.0,1.0,-1.0,-2.0,0.0,-1.0,-1.0
1706276941.7304506,-1.0,0.0,-1.0,-1.0,-1.0,-1.0,0.0,-2.0
1706276941.7304506,-1.0,-2.0,0.0,0.0,0.0,-3.0,-1.0,-1.0
1706276941.7304506,-2.0,0.0,0.0,-1.0,-2.0,-1.0,-2.0,-1.0
1706276941.7304506,-2.0,-1.0,-2.0,-2.0,-1.0,-1.0,-3.0,-2.0
1706276941.7404876,0.0,-3.0,-1.0,-2.0,0.0,0.0,-1.0,-1.0
1706276941.7404876,-1.0,-1.0,0.0,-2.0,-2.0,-1.0,-1.0,0.0
1706276941.7404876,1.0,-1.0,-1.0,0.0,0.0,-2.0,-1.0,0.0
1706276941.7404876,-2.0,0.0,0.0,-1.0,-1.0,-2.0,-2.0,1.0
1706276941.7604551,1.0,-1.0,1.0,0.0,-1.0,-1.0,-3.0,-1.0
1706276941.7604551,-1.0,-1.0,-1.0,-1.0,-1.0,-2.0,-1.0,-1.0
1706276941.7604551,-3.0,-1.0,-1.0,0.0,-1.0,-3.0,-3.0,-1.0
1706276941.7604551,0.0,-2.0,0.0,-3.0,-1.0,-1.0,-1.0,0.0
1706276941.8104658,-3.0,-1.0,-3.0,0.0,-2.0,-1.0,0.0,-1.0
1706276941.8104658,-1.0,0.0,-2.0,-2.0,0.0,0.0,1.0,-1.0
1706276941.8104658,-1.0,-1.0,-1.0,-2.0,-1.0,1.0,2.0,-2.0
1706276941.8104658,-1.0,-1.0,0.0,-1.0,0.0,-2.0,0.0,-3.0
1706276941.8104658,-1.0,0.0,-1.0,-2.0,-1.0,-1.0,2.0,-1.0
1706276941.8104658,-2.0,-1.0,0.0,0.0,-1.0,0.0,-1.0,-1.0
1706276941.8104658,0.0,-2.0,-2.0,-1.0,-3.0,1.0,0.0,-1.0
1706276941.8104658,0.0,-1.0,-4.0,0.0,0.0,-1.0,-1.0,-2.0
1706276941.826253,-2.0,0.0,0.0,0.0,-1.0,-1.0,0.0,0.0
1706276941.826253,-2.0,-1.0,0.0,-3.0,0.0,-1.0,-3.0,-2.0
1706276941.826253,-1.0,0.0,-2.0,-2.0,-1.0,1.0,-1.0,-3.0
1706276941.826253,-1.0,-1.0,-1.0,0.0,-1.0,1.0,1.0,0.0
1706276941.8494177,-1.0,0.0,-2.0,-2.0,-2.0,0.0,-3.0,-1.0
1706276941.8494177,-2.0,-3.0,-1.0,-1.0,-1.0,0.0,0.0,-2.0
1706276941.8494177,-3.0,-2.0,-1.0,-1.0,1.0,0.0,-2.0,-1.0
1706276941.8494177,1.0,-2.0,-3.0,-2.0,-2.0,1.0,0.0,0.0
1706276941.862682,0.0,-1.0,-1.0,-1.0,-1.0,0.0,-3.0,-1.0
1706276941.862682,-1.0,0.0,1.0,0.0,1.0,-1.0,-1.0,-3.0
1706276941.862682,0.0,-1.0,0.0,-1.0,-1.0,-2.0,1.0,1.0
1706276941.862682,-1.0,1.0,0.0,-2.0,1.0,-2.0,-1.0,-2.0
1706276941.8826826,-1.0,-2.0,-1.0,-1.0,1.0,-3.0,-1.0,0.0
1706276941.8826826,0.0,-1.0,-1.0,0.0,-1.0,0.0,-2.0,-2.0
1706276941.8926837,-3.0,0.0,0.0,1.0,-1.0,-1.0,0.0,0.0
1706276941.8926837,-2.0,-1.0,0.0,0.0,-1.0,-2.0,-2.0,-1.0
1706276941.9027154,-2.0,0.0,-2.0,-2.0,-1.0,0.0,-2.0,0.0
1706276941.9027154,0.0,0.0,-2.0,0.0,-1.0,-1.0,-3.0,-1.0
1706276941.9027154,1.0,-1.0,-2.0,0.0,-2.0,-2.0,-2.0,0.0
1706276941.9027154,-2.0,-1.0,-1.0,-1.0,0.0,-1.0,-1.0,-1.0
1706276941.9230714,-1.0,-2.0,0.0,0.0,0.0,0.0,0.0,-3.0
1706276941.9230714,-2.0,-1.0,-2.0,-2.0,-1.0,-1.0,0.0,-2.0
1706276941.9230714,0.0,-1.0,-3.0,-2.0,-2.0,-1.0,-1.0,-1.0
1706276941.9230714,-2.0,-2.0,-1.0,1.0,-2.0,-2.0,-1.0,-2.0
1706276941.9529674,-1.0,-2.0,-1.0,-1.0,0.0,0.0,0.0,0.0
1706276941.9529674,-2.0,0.0,-1.0,0.0,-1.0,-2.0,0.0,0.0
1706276941.9529674,0.0,-2.0,-1.0,-1.0,-2.0,-3.0,-1.0,-2.0
1706276941.9529674,-1.0,-1.0,-1.0,-1.0,-1.0,-2.0,-1.0,-1.0
1706276941.962683,0.0,-1.0,-2.0,1.0,-1.0,-2.0,-1.0,-1.0
1706276941.962683,0.0,1.0,-1.0,0.0,-1.0,-1.0,1.0,-1.0
1706276941.962683,-2.0,0.0,0.0,-1.0,-1.0,-1.0,-1.0,-1.0
1706276941.962683,1.0,-1.0,0.0,-2.0,-3.0,-1.0,-1.0,-1.0
1706276941.982963,-1.0,-2.0,0.0,-2.0,-2.0,-1.0,-3.0,-1.0
1706276941.982963,0.0,-2.0,-3.0,-1.0,-1.0,-4.0,-2.0,0.0
1706276941.982963,-1.0,-2.0,-2.0,-4.0,-2.0,-2.0,-1.0,-1.0
1706276941.982963,-1.0,-1.0,-1.0,1.0,-1.0,-2.0,1.0,0.0
1706276942.0029535,0.0,0.0,0.0,-2.0,-1.0,-2.0,-1.0,0.0
1706276942.0029535,0.0,-1.0,-1.0,-1.0,-1.0,1.0,1.0,0.0
1706276942.0029535,0.0,0.0,1.0,-1.0,-1.0,-2.0,0.0,-1.0
1706276942.0029535,-1.0,-1.0,-1.0,0.0,0.0,-1.0,-1.0,0.0
1706276942.0326848,-2.0,0.0,0.0,-2.0,-1.0,0.0,-1.0,-2.0
1706276942.0326848,-1.0,-1.0,-1.0,-1.0,0.0,-1.0,-1.0,1.0
1706276942.0326848,-1.0,0.0,-1.0,-1.0,0.0,0.0,-2.0,-2.0
1706276942.0326848,0.0,0.0,-1.0,-1.0,-1.0,-1.0,1.0,-1.0
1706276942.0429575,0.0,-2.0,-2.0,1.0,-1.0,-4.0,-1.0,-1.0
1706276942.0429575,-2.0,0.0,-2.0,0.0,-2.0,1.0,0.0,-3.0
1706276942.0429575,-1.0,-2.0,-1.0,-2.0,-1.0,-1.0,-1.0,0.0
1706276942.0429575,-3.0,-2.0,1.0,-1.0,-1.0,-2.0,-2.0,-1.0
1706276942.062683,0.0,-1.0,-1.0,-2.0,-1.0,-1.0,-1.0,0.0
1706276942.062683,-2.0,-2.0,0.0,0.0,0.0,-1.0,-3.0,-1.0
1706276942.062683,-1.0,-1.0,-3.0,0.0,0.0,1.0,-1.0,1.0
1706276942.062683,-2.0,-2.0,-2.0,-1.0,0.0,0.0,-3.0,-2.0
1706276942.0830138,-2.0,-2.0,0.0,-2.0,0.0,0.0,0.0,-2.0
1706276942.0830138,-1.0,0.0,0.0,-2.0,-2.0,-1.0,1.0,-2.0
1706276942.0830138,-2.0,-2.0,-1.0,1.0,-1.0,0.0,0.0,-1.0
1706276942.0830138,0.0,-1.0,-3.0,-1.0,-1.0,0.0,-1.0,1.0
1706276942.1030452,-1.0,-2.0,-2.0,0.0,0.0,-1.0,-2.0,0.0
1706276942.1030452,0.0,-1.0,-1.0,-1.0,-1.0,-1.0,-2.0,-1.0
1706276942.1030452,-2.0,-1.0,0.0,0.0,0.0,-2.0,-2.0,-2.0
1706276942.1030452,0.0,-1.0,-1.0,-2.0,-1.0,0.0,-1.0,-3.0
1706276942.12305,-2.0,0.0,0.0,0.0,-1.0,0.0,1.0,-1.0
1706276942.12305,-1.0,-1.0,-2.0,-2.0,-1.0,-1.0,1.0,0.0
1706276942.12305,0.0,-2.0,-1.0,-1.0,-1.0,-1.0,-1.0,0.0
1706276942.12305,-2.0,-4.0,-4.0,-2.0,0.0,-1.0,-2.0,-1.0
1706276942.142983,-2.0,2.0,1.0,-1.0,-1.0,-1.0,-4.0,-5.0
1706276942.142983,0.0,0.0,-1.0,0.0,1.0,0.0,0.0,-1.0
1706276942.142983,-1.0,0.0,-2.0,0.0,-1.0,-1.0,2.0,1.0
1706276942.142983,0.0,-2.0,-1.0,-1.0,-1.0,-1.0,-1.0,-3.0
1706276942.1626916,-1.0,-4.0,-2.0,-2.0,-1.0,-1.0,-1.0,1.0
1706276942.1626916,-2.0,-2.0,-2.0,-1.0,-3.0,-2.0,-1.0,-1.0
1706276942.1626916,-1.0,-1.0,0.0,-1.0,1.0,0.0,-1.0,-2.0
1706276942.1626916,0.0,3.0,-1.0,-1.0,-1.0,-2.0,0.0,-1.0
1706276942.1826818,0.0,0.0,-2.0,0.0,0.0,2.0,2.0,-2.0
1706276942.1826818,1.0,-2.0,0.0,-1.0,-2.0,1.0,-1.0,-1.0
1706276942.1826818,0.0,-1.0,-1.0,-1.0,1.0,-1.0,-2.0,0.0
1706276942.1826818,-1.0,-1.0,-1.0,-1.0,-2.0,-1.0,1.0,0.0
1706276942.202736,-1.0,-1.0,-4.0,-1.0,-1.0,-1.0,-1.0,0.0
1706276942.202736,-1.0,-2.0,-1.0,0.0,-2.0,-2.0,-1.0,-1.0
1706276942.202736,-2.0,-1.0,0.0,-2.0,-2.0,-1.0,-1.0,-1.0
1706276942.202736,-1.0,2.0,0.0,-3.0,-1.0,1.0,-2.0,-2.0
1706276942.2229102,-1.0,-1.0,-2.0,-2.0,-1.0,-1.0,-1.0,0.0
1706276942.2229102,0.0,-1.0,0.0,-2.0,-1.0,-1.0,-2.0,0.0
1706276942.2229102,-2.0,-2.0,0.0,1.0,-2.0,-2.0,0.0,0.0
1706276942.2229102,-1.0,-3.0,-5.0,-1.0,-1.0,-1.0,-1.0,-2.0
1706276942.2426836,-1.0,3.0,2.0,-1.0,-3.0,0.0,-1.0,0.0
1706276942.2426836,-1.0,-3.0,0.0,-1.0,-1.0,-1.0,-2.0,0.0
1706276942.2426836,-1.0,2.0,-3.0,-2.0,-1.0,-1.0,-2.0,-2.0
1706276942.2426836,-1.0,-2.0,0.0,-2.0,-1.0,-2.0,-1.0,1.0
1706276942.2629452,-1.0,-3.0,-4.0,0.0,1.0,-2.0,1.0,-1.0
1706276942.2629452,1.0,1.0,2.0,0.0,-1.0,-1.0,0.0,-1.0
1706276942.2629452,-1.0,-2.0,0.0,1.0,-3.0,-1.0,-3.0,-1.0
1706276942.2629452,-2.0,0.0,-1.0,0.0,-2.0,1.0,1.0,1.0
1706276942.2829592,-1.0,-1.0,0.0,-1.0,-1.0,0.0,-1.0,0.0
1706276942.2829592,-1.0,-1.0,-1.0,0.0,1.0,-2.0,-1.0,0.0
1706276942.2829592,0.0,-1.0,-2.0,-2.0,0.0,-1.0,0.0,-1.0
1706276942.2829592,-1.0,0.0,0.0,-1.0,0.0,-2.0,-2.0,-1.0
1706276942.3126864,-1.0,-3.0,-1.0,0.0,-1.0,-1.0,-1.0,-3.0
1706276942.3126864,-2.0,-2.0,-4.0,-3.0,0.0,1.0,0.0,-1.0
1706276942.3126864,0.0,-1.0,-2.0,0.0,1.0,-2.0,-1.0,0.0
1706276942.3126864,-1.0,-1.0,0.0,-1.0,0.0,-1.0,-1.0,-1.0
1706276942.322716,-1.0,-1.0,0.0,-1.0,-1.0,-1.0,1.0,-1.0
1706276942.322716,-1.0,1.0,1.0,0.0,-2.0,-1.0,0.0,-1.0
1706276942.322716,-1.0,0.0,-1.0,-2.0,-1.0,-1.0,-1.0,-1.0
1706276942.322716,-1.0,-2.0,-1.0,-2.0,0.0,-1.0,-1.0,-2.0
1706276942.342687,-1.0,0.0,0.0,-2.0,-1.0,-2.0,-3.0,2.0
1706276942.342687,-2.0,-1.0,-3.0,0.0,-1.0,1.0,-2.0,1.0
1706276942.342687,-2.0,-1.0,0.0,0.0,-3.0,-2.0,0.0,-1.0
1706276942.342687,0.0,1.0,-1.0,-2.0,-1.0,-2.0,0.0,-1.0
1706276942.3658857,1.0,0.0,-1.0,0.0,-1.0,0.0,-3.0,-2.0
1706276942.3669102,1.0,0.0,-1.0,0.0,0.0,-1.0,1.0,-2.0
1706276942.3669102,-2.0,-1.0,-2.0,0.0,-1.0,1.0,-2.0,-2.0
1706276942.3669102,-1.0,-1.0,-1.0,-1.0,0.0,-2.0,-3.0,-1.0
1706276942.3854194,-2.0,-1.0,-3.0,-2.0,-2.0,1.0,-1.0,-1.0
1706276942.3854194,-1.0,-1.0,0.0,-2.0,-1.0,-3.0,-2.0,-2.0
1706276942.3854194,-1.0,-1.0,0.0,-1.0,0.0,-1.0,0.0,-1.0
1706276942.3854194,-2.0,0.0,0.0,0.0,0.0,-1.0,0.0,-1.0
1706276942.415418,-1.0,-1.0,-2.0,-1.0,-1.0,-2.0,-2.0,1.0
1706276942.415418,0.0,-1.0,-2.0,-1.0,1.0,0.0,-2.0,0.0
1706276942.415418,0.0,0.0,0.0,-1.0,-2.0,-1.0,-1.0,-1.0
1706276942.415418,-1.0,-1.0,-1.0,0.0,-1.0,1.0,-1.0,-1.0
1706276942.4254475,-1.0,-1.0,1.0,0.0,-2.0,-1.0,-1.0,-1.0
1706276942.4254475,-1.0,1.0,-1.0,0.0,-3.0,0.0,-1.0,0.0
1706276942.4254475,0.0,-2.0,-2.0,0.0,1.0,-1.0,0.0,-1.0
1706276942.4254475,-1.0,-2.0,0.0,1.0,-1.0,-1.0,0.0,0.0
1706276942.445802,0.0,-1.0,-1.0,-1.0,1.0,-2.0,-3.0,-3.0
1706276942.445802,-1.0,-1.0,-2.0,-2.0,-1.0,-2.0,-1.0,-2.0
1706276942.445802,0.0,0.0,-2.0,-1.0,-1.0,0.0,-2.0,-2.0
1706276942.445802,0.0,-2.0,-1.0,0.0,0.0,1.0,0.0,-2.0
1706276942.465415,-1.0,-2.0,1.0,0.0,1.0,1.0,0.0,-1.0
1706276942.465415,-2.0,-1.0,0.0,-2.0,-2.0,-1.0,-1.0,-1.0
1706276942.465415,-2.0,-1.0,1.0,-2.0,1.0,0.0,0.0,0.0
1706276942.465415,1.0,-1.0,-2.0,-3.0,-2.0,-2.0,-2.0,1.0
1706276942.485832,-1.0,-1.0,-1.0,0.0,0.0,0.0,-1.0,-2.0
1706276942.485832,-1.0,-3.0,-2.0,-3.0,-1.0,-2.0,-1.0,-1.0
1706276942.485832,0.0,0.0,-1.0,-1.0,-2.0,-1.0,0.0,0.0
1706276942.485832,0.0,1.0,0.0,-1.0,0.0,0.0,-1.0,-2.0
1706276942.5054195,-2.0,0.0,-1.0,-1.0,-1.0,-1.0,-1.0,-2.0
1706276942.5054195,-1.0,-2.0,-1.0,0.0,-1.0,0.0,-1.0,-1.0
1706276942.5054195,-2.0,-1.0,-1.0,1.0,-1.0,-1.0,-2.0,-1.0
1706276942.5054195,-1.0,-1.0,-2.0,-2.0,-1.0,0.0,0.0,-1.0
1706276942.5254407,0.0,0.0,-1.0,-2.0,-1.0,-1.0,-2.0,0.0
1706276942.5254407,-1.0,-1.0,-1.0,0.0,0.0,-1.0,-1.0,-2.0
1706276942.5254407,-1.0,-1.0,0.0,-3.0,-2.0,-1.0,0.0,0.0
1706276942.5254407,-2.0,0.0,-1.0,0.0,-2.0,-1.0,-2.0,-1.0
1706276942.545651,-1.0,1.0,-1.0,-2.0,-1.0,-2.0,-1.0,-1.0
1706276942.545651,0.0,-3.0,-1.0,-3.0,-2.0,-2.0,-1.0,-3.0
1706276942.545651,-1.0,-1.0,-1.0,1.0,-1.0,0.0,0.0,-2.0
1706276942.545651,0.0,0.0,1.0,0.0,-1.0,-1.0,-2.0,-2.0
1706276942.5754154,-2.0,-3.0,-2.0,-3.0,-1.0,-1.0,-2.0,0.0
1706276942.5754154,1.0,1.0,-1.0,0.0,-1.0,0.0,-1.0,-1.0
1706276942.5754154,-2.0,0.0,-1.0,-2.0,-1.0,0.0,-1.0,-1.0
1706276942.5754154,-4.0,-1.0,-3.0,-2.0,-1.0,-1.0,1.0,0.0
1706276942.5854137,-4.0,-2.0,-2.0,-2.0,-1.0,0.0,-1.0,-3.0
1706276942.5854137,-1.0,0.0,0.0,-1.0,0.0,-3.0,-2.0,-1.0
1706276942.5854137,0.0,-3.0,-1.0,-1.0,-2.0,1.0,-1.0,-2.0
1706276942.5854137,-1.0,1.0,0.0,-1.0,0.0,1.0,-2.0,0.0
1706276942.6057818,-1.0,-2.0,-2.0,-3.0,-1.0,-1.0,0.0,0.0
1706276942.6057818,-2.0,1.0,-1.0,-1.0,1.0,-1.0,-1.0,-2.0
1706276942.6057818,-2.0,0.0,-1.0,-2.0,0.0,-1.0,-3.0,-2.0
1706276942.6057818,-1.0,-2.0,0.0,0.0,-2.0,-1.0,-1.0,-1.0
1706276942.635415,0.0,0.0,-2.0,-1.0,-1.0,-1.0,-1.0,0.0
1706276942.635415,1.0,-3.0,0.0,-1.0,-1.0,-1.0,-1.0,1.0
1706276942.635415,1.0,0.0,0.0,0.0,0.0,-1.0,-1.0,0.0
1706276942.635415,-1.0,-1.0,-2.0,-2.0,-2.0,1.0,-1.0,-1.0
1706276942.6456084,-2.0,-1.0,-1.0,0.0,-3.0,-3.0,-1.0,0.0
1706276942.6456084,-1.0,0.0,-1.0,-1.0,-2.0,-1.0,-2.0,-1.0
1706276942.6456084,1.0,0.0,0.0,-1.0,-3.0,-1.0,0.0,-1.0
1706276942.6456084,1.0,0.0,-2.0,1.0,-1.0,-2.0,0.0,-1.0
1706276942.6657,-1.0,-1.0,-2.0,-2.0,0.0,-2.0,0.0,-3.0
1706276942.6657,-2.0,-2.0,-2.0,-2.0,0.0,0.0,-1.0,-1.0
1706276942.6657,-2.0,0.0,0.0,-2.0,-2.0,0.0,-1.0,-3.0
1706276942.6657,-2.0,-2.0,0.0,-2.0,-2.0,-1.0,0.0,0.0
1706276942.7054152,0.0,-1.0,-1.0,0.0,0.0,-1.0,-2.0,-1.0
1706276942.7054152,-1.0,-2.0,-2.0,-1.0,-2.0,-2.0,0.0,-1.0
1706276942.7054152,-1.0,0.0,-2.0,-2.0,0.0,-2.0,-1.0,-2.0
1706276942.7054152,0.0,-2.0,-2.0,-2.0,0.0,-3.0,-1.0,0.0
1706276942.7054152,-1.0,0.0,-1.0,0.0,0.0,-1.0,-1.0,-1.0
1706276942.7054152,0.0,0.0,-1.0,-1.0,-1.0,-1.0,-1.0,0.0
1706276942.7054152,-1.0,-1.0,-1.0,0.0,-2.0,0.0,0.0,1.0
1706276942.7054152,-2.0,0.0,-1.0,-2.0,-2.0,-1.0,-2.0,-1.0
1706276942.7254162,0.0,-1.0,-1.0,-1.0,-2.0,1.0,-1.0,-1.0
1706276942.7254162,-2.0,-1.0,-1.0,0.0,-1.0,-1.0,-1.0,-1.0
1706276942.7354143,-1.0,0.0,-2.0,-1.0,-1.0,-2.0,0.0,0.0
1706276942.7354143,1.0,0.0,-1.0,-2.0,0.0,-1.0,-1.0,-2.0
1706276942.7454598,-1.0,-1.0,-1.0,0.0,-1.0,0.0,-1.0,0.0
1706276942.7454598,-2.0,1.0,-1.0,-1.0,0.0,1.0,0.0,0.0
1706276942.7454598,0.0,-1.0,-2.0,0.0,0.0,-1.0,-1.0,0.0
1706276942.7454598,-1.0,-3.0,-2.0,1.0,-3.0,-1.0,-1.0,0.0
1706276942.775731,0.0,-1.0,-1.0,-2.0,0.0,-2.0,0.0,-1.0
1706276942.775731,-1.0,-2.0,-1.0,1.0,0.0,-1.0,-1.0,-2.0
1706276942.775731,-1.0,-1.0,-1.0,-2.0,-1.0,-2.0,-2.0,-2.0
1706276942.775731,-1.0,-1.0,-2.0,0.0,1.0,-2.0,0.0,-2.0
1706276942.7855551,-1.0,-2.0,-2.0,-2.0,-2.0,-1.0,-1.0,-3.0
1706276942.7855551,-2.0,-1.0,-1.0,-1.0,0.0,-2.0,0.0,0.0
1706276942.7855551,-1.0,-1.0,-3.0,-2.0,-1.0,-2.0,-1.0,0.0
1706276942.7855551,-1.0,-1.0,0.0,-1.0,-1.0,-1.0,-1.0,-2.0
1706276942.8154135,-1.0,-3.0,-2.0,-1.0,0.0,-2.0,0.0,-2.0
1706276942.8154135,2.0,-1.0,1.0,-1.0,-2.0,1.0,0.0,-1.0
1706276942.8154135,0.0,-4.0,0.0,-1.0,-1.0,-2.0,-1.0,-1.0
1706276942.8154135,-2.0,0.0,-1.0,-1.0,-1.0,1.0,-2.0,-1.0
1706276942.8257418,0.0,1.0,0.0,-5.0,0.0,0.0,-1.0,-1.0
1706276942.8257418,-3.0,-3.0,-1.0,-1.0,1.0,0.0,-3.0,-1.0
1706276942.8257418,-1.0,0.0,-2.0,1.0,-1.0,-4.0,-2.0,-1.0
1706276942.8257418,-1.0,0.0,-1.0,1.0,-2.0,-1.0,0.0,-2.0
1706276942.8454156,-2.0,0.0,0.0,1.0,-2.0,-1.0,0.0,-1.0
1706276942.8454156,-2.0,-2.0,0.0,-2.0,-2.0,-1.0,0.0,-1.0
1706276942.8454156,-1.0,0.0,-1.0,-2.0,0.0,0.0,0.0,-1.0
1706276942.8454156,0.0,0.0,-1.0,0.0,0.0,0.0,-3.0,-1.0
1706276942.8654468,0.0,0.0,0.0,-1.0,-1.0,0.0,-1.0,0.0
1706276942.8654468,-1.0,1.0,-1.0,-2.0,-2.0,-1.0,0.0,-1.0
1706276942.8654468,-1.0,0.0,-1.0,0.0,-2.0,0.0,-2.0,-2.0
1706276942.8654468,0.0,-1.0,-1.0,-4.0,0.0,-1.0,-3.0,-1.0
1706276942.8921897,0.0,-1.0,0.0,0.0,0.0,-1.0,-1.0,-2.0
1706276942.8921897,-1.0,0.0,-2.0,-1.0,-1.0,-1.0,-1.0,0.0
1706276942.8930523,-1.0,-2.0,0.0,-2.0,1.0,-2.0,0.0,-1.0
1706276942.8930523,-1.0,-3.0,-1.0,-2.0,-1.0,0.0,-1.0,1.0
1706276942.90151,-2.0,0.0,-1.0,-2.0,-2.0,-1.0,1.0,-2.0
1706276942.90151,-1.0,0.0,-1.0,0.0,-2.0,-1.0,-1.0,-2.0
1706276942.90151,-2.0,-1.0,-1.0,-1.0,-1.0,0.0,0.0,0.0
1706276942.90151,-1.0,0.0,-1.0,-1.0,-1.0,-2.0,0.0,0.0
1706276942.9215455,-1.0,0.0,-2.0,2.0,-1.0,0.0,0.0,-1.0
1706276942.9215455,0.0,-1.0,0.0,-1.0,0.0,-2.0,-1.0,-2.0
1706276942.9215455,-1.0,-1.0,-1.0,0.0,0.0,1.0,-3.0,-2.0
1706276942.9215455,-1.0,1.0,-1.0,-1.0,-1.0,-1.0,-1.0,-2.0
1706276942.9515173,1.0,-2.0,0.0,-1.0,-1.0,-1.0,-2.0,0.0
1706276942.9515173,-1.0,-2.0,-2.0,-2.0,2.0,-3.0,0.0,0.0
1706276942.9515173,1.0,-1.0,-1.0,-1.0,-2.0,0.0,0.0,0.0
1706276942.9515173,-1.0,-1.0,-1.0,-2.0,0.0,-1.0,1.0,0.0
1706276942.9715095,0.0,1.0,0.0,0.0,0.0,-1.0,-1.0,-1.0
1706276942.9715095,-2.0,0.0,0.0,-1.0,-1.0,0.0,-1.0,-1.0
1706276942.9715095,-2.0,-1.0,-1.0,0.0,-1.0,-2.0,-1.0,-1.0
1706276942.9715095,-2.0,-1.0,0.0,-2.0,-1.0,-1.0,-1.0,-1.0
1706276942.9817142,-2.0,-1.0,-1.0,-2.0,-2.0,-2.0,-1.0,0.0
1706276942.9817142,0.0,-1.0,0.0,0.0,-2.0,-2.0,-1.0,-1.0
1706276942.9817142,-2.0,-1.0,-1.0,-2.0,0.0,-1.0,-1.0,-1.0
1706276942.9817142,-3.0,-1.0,0.0,1.0,0.0,0.0,-2.0,-1.0
1706276943.0115192,-2.0,-2.0,0.0,-2.0,-1.0,0.0,0.0,-1.0
1706276943.0115192,0.0,-1.0,-1.0,-1.0,1.0,-1.0,0.0,-2.0
1706276943.0115192,-1.0,-1.0,-2.0,-2.0,-1.0,0.0,-1.0,-3.0
1706276943.0115192,1.0,-1.0,0.0,0.0,-2.0,-2.0,-1.0,-1.0
1706276943.0315146,0.0,-3.0,-2.0,-2.0,-2.0,-1.0,0.0,-1.0
1706276943.0315146,-2.0,0.0,-1.0,-1.0,-2.0,0.0,-1.0,-1.0
1706276943.0315146,-1.0,-2.0,-1.0,-3.0,-2.0,-2.0,0.0,0.0
1706276943.0315146,-1.0,0.0,-1.0,-2.0,1.0,0.0,-2.0,-1.0
1706276943.0416212,0.0,-1.0,-2.0,1.0,-1.0,-1.0,-2.0,0.0
1706276943.0416212,-1.0,0.0,0.0,-2.0,0.0,-2.0,-1.0,-1.0
1706276943.0416212,-1.0,1.0,-1.0,-2.0,-1.0,-2.0,-2.0,1.0
1706276943.0416212,-3.0,-1.0,-1.0,0.0,-1.0,-2.0,-1.0,0.0
1706276943.071561,-1.0,1.0,-1.0,-1.0,0.0,0.0,-2.0,0.0
1706276943.071561,0.0,-1.0,0.0,1.0,0.0,-1.0,-1.0,0.0
1706276943.071561,-1.0,-1.0,0.0,-2.0,-1.0,-1.0,1.0,-1.0
1706276943.071561,-1.0,-1.0,-1.0,-2.0,-1.0,0.0,-1.0,0.0
1706276943.081512,-1.0,0.0,-2.0,-1.0,0.0,-2.0,-2.0,-1.0
1706276943.081512,-1.0,-3.0,-2.0,-1.0,-1.0,-1.0,-2.0,-1.0
1706276943.0916004,-1.0,-1.0,0.0,0.0,-2.0,-1.0,0.0,-2.0
1706276943.0916004,0.0,-1.0,-2.0,-2.0,-2.0,0.0,-1.0,-1.0
1706276943.1018867,-2.0,-2.0,-2.0,-1.0,-1.0,-2.0,-1.0,-1.0
1706276943.1018867,-1.0,-1.0,0.0,0.0,-3.0,-1.0,-1.0,-1.0
1706276943.1018867,-1.0,-1.0,0.0,0.0,-1.0,-2.0,-2.0,-1.0
1706276943.1018867,-1.0,0.0,-1.0,0.0,-2.0,-1.0,-1.0,-1.0
1706276943.1318963,-2.0,-1.0,-1.0,-1.0,-1.0,-4.0,-1.0,0.0
1706276943.1318963,-2.0,-1.0,-1.0,-1.0,-1.0,-1.0,0.0,1.0
1706276943.1318963,0.0,-3.0,-3.0,0.0,1.0,-2.0,-2.0,-1.0
1706276943.1318963,-2.0,-1.0,-1.0,-2.0,-1.0,0.0,-2.0,-3.0
1706276943.1421652,-1.0,0.0,-1.0,-3.0,-1.0,1.0,-3.0,-1.0
1706276943.1421652,0.0,-2.0,-1.0,-3.0,0.0,1.0,-1.0,-1.0
1706276943.1521752,-2.0,0.0,-1.0,-1.0,-2.0,0.0,0.0,-1.0
1706276943.1521752,0.0,-2.0,-2.0,-1.0,0.0,-3.0,0.0,0.0
1706276943.1619694,-1.0,-2.0,0.0,-1.0,-1.0,-1.0,0.0,-2.0
1706276943.1619694,-1.0,0.0,-1.0,-1.0,-3.0,-2.0,-1.0,-2.0
1706276943.1619694,-2.0,-1.0,-2.0,-1.0,1.0,-1.0,-1.0,1.0
1706276943.1619694,-1.0,-1.0,1.0,0.0,-1.0,0.0,0.0,-1.0
1706276943.201897,-1.0,0.0,-1.0,-1.0,-1.0,-1.0,0.0,0.0
1706276943.201897,-2.0,-2.0,-1.0,-1.0,-2.0,-2.0,1.0,0.0
1706276943.201897,0.0,-1.0,-1.0,-2.0,-1.0,0.0,0.0,-1.0
1706276943.201897,-1.0,-2.0,1.0,-2.0,-2.0,-1.0,-1.0,-1.0
1706276943.212157,-1.0,-1.0,-1.0,0.0,-3.0,-1.0,-2.0,-2.0
1706276943.212157,-1.0,-1.0,-1.0,-2.0,-1.0,-1.0,-1.0,0.0
1706276943.212157,-2.0,0.0,0.0,-1.0,-1.0,0.0,-1.0,-1.0
1706276943.212157,-1.0,1.0,-1.0,-1.0,-1.0,0.0,-2.0,-1.0
1706276943.2222009,-1.0,0.0,0.0,-1.0,0.0,-1.0,-1.0,-1.0
1706276943.2222009,1.0,0.0,-2.0,-1.0,-1.0,2.0,0.0,-1.0
1706276943.2222009,-2.0,0.0,-1.0,0.0,0.0,-1.0,0.0,0.0
1706276943.2222009,0.0,-1.0,-1.0,0.0,1.0,-2.0,-1.0,-1.0
1706276943.2618957,-1.0,-1.0,-1.0,-1.0,-2.0,-1.0,-1.0,0.0
1706276943.2618957,0.0,0.0,-1.0,-1.0,0.0,-2.0,-2.0,1.0
1706276943.2618957,0.0,-1.0,-1.0,-2.0,-1.0,-2.0,0.0,-2.0
1706276943.2618957,-1.0,-2.0,0.0,0.0,0.0,0.0,0.0,0.0
1706276943.2618957,-1.0,-1.0,-2.0,-1.0,-1.0,-2.0,-1.0,-2.0
1706276943.2618957,-1.0,-3.0,0.0,0.0,1.0,1.0,-2.0,0.0
1706276943.2723002,-1.0,-1.0,0.0,-1.0,-2.0,-1.0,-2.0,-2.0
1706276943.2723002,0.0,-1.0,-1.0,-2.0,-2.0,-3.0,-2.0,-1.0
1706276943.2823074,-1.0,-2.0,0.0,0.0,0.0,0.0,-1.0,-2.0
1706276943.2823074,-1.0,-1.0,-1.0,-2.0,-2.0,-1.0,-2.0,-2.0
1706276943.2823074,0.0,-1.0,-2.0,-1.0,-1.0,-1.0,-1.0,-2.0
1706276943.2823074,-1.0,-2.0,0.0,-1.0,-1.0,0.0,0.0,-1.0
1706276943.311896,0.0,-1.0,1.0,-1.0,-2.0,-3.0,-2.0,0.0
1706276943.311896,0.0,0.0,-1.0,-1.0,-1.0,0.0,-1.0,-2.0
1706276943.311896,0.0,-2.0,0.0,-2.0,-2.0,0.0,1.0,0.0
1706276943.311896,-1.0,-1.0,-2.0,-1.0,-1.0,0.0,0.0,0.0
1706276943.3222666,-2.0,-2.0,-1.0,-3.0,-1.0,0.0,-1.0,-1.0
1706276943.3222666,-2.0,0.0,-1.0,-1.0,-1.0,0.0,-1.0,-1.0
1706276943.3319004,-1.0,1.0,-3.0,-1.0,-1.0,-2.0,-1.0,0.0
1706276943.3319004,-2.0,-1.0,0.0,1.0,0.0,-2.0,-2.0,0.0
1706276943.351897,0.0,-2.0,-2.0,0.0,0.0,0.0,0.0,0.0
1706276943.351897,0.0,-1.0,-1.0,-1.0,-1.0,-1.0,1.0,-1.0
1706276943.351897,-2.0,-1.0,-1.0,-2.0,0.0,-1.0,0.0,-1.0
1706276943.351897,-2.0,0.0,-1.0,-2.0,0.0,0.0,-1.0,-2.0
1706276943.3719027,-2.0,0.0,-1.0,-1.0,-2.0,0.0,-1.0,0.0
1706276943.3719027,-1.0,-1.0,-3.0,-1.0,-1.0,-2.0,0.0,0.0
1706276943.3719027,0.0,-1.0,-1.0,-1.0,-1.0,-1.0,0.0,0.0
1706276943.3719027,0.0,0.0,-1.0,0.0,0.0,0.0,-2.0,-1.0
1706276943.392192,0.0,0.0,-2.0,0.0,-2.0,-2.0,-1.0,-2.0
1706276943.392192,0.0,0.0,1.0,0.0,-2.0,-1.0,-1.0,0.0
1706276943.392192,-1.0,-1.0,1.0,-1.0,-2.0,-1.0,-1.0,-2.0
1706276943.392192,-1.0,-2.0,-1.0,-1.0,-1.0,-1.0,-2.0,-1.0
1706276943.429977,-1.0,-1.0,-2.0,-1.0,-1.0,-2.0,1.0,-2.0
1706276943.429977,-1.0,-1.0,0.0,-1.0,-1.0,0.0,-2.0,-1.0
1706276943.429977,-2.0,-1.0,1.0,-1.0,0.0,-1.0,0.0,-1.0
1706276943.429977,1.0,-1.0,-2.0,-1.0,-3.0,-2.0,0.0,-1.0
1706276943.4319947,-1.0,-2.0,-1.0,1.0,-1.0,0.0,-2.0,-3.0
1706276943.4319947,-1.0,-1.0,-2.0,0.0,-1.0,-1.0,-2.0,-1.0
1706276943.4329755,1.0,0.0,0.0,-1.0,0.0,0.0,-3.0,-1.0
1706276943.4329755,-2.0,0.0,0.0,-2.0,0.0,-2.0,0.0,-2.0
1706276943.4543717,-1.0,0.0,-1.0,-1.0,-1.0,-2.0,-2.0,-1.0
1706276943.4543717,-2.0,-1.0,-2.0,-2.0,0.0,-1.0,-1.0,-1.0
1706276943.4543717,-1.0,-2.0,-2.0,-1.0,0.0,0.0,-2.0,-1.0
1706276943.4543717,-1.0,-1.0,-3.0,-1.0,-1.0,-2.0,-1.0,0.0
1706276943.4646986,-1.0,-1.0,-1.0,0.0,-1.0,-1.0,1.0,0.0
1706276943.4646986,0.0,1.0,-3.0,-1.0,-1.0,-1.0,0.0,-3.0
1706276943.4646986,-2.0,-1.0,-1.0,-1.0,0.0,-1.0,0.0,-1.0
1706276943.4646986,-1.0,-2.0,-1.0,-2.0,-1.0,-2.0,-1.0,0.0
1706276943.4842958,0.0,-2.0,-3.0,-1.0,0.0,-2.0,-2.0,-2.0
1706276943.4842958,-1.0,-1.0,0.0,1.0,-2.0,-1.0,-1.0,1.0
1706276943.4842958,-2.0,-1.0,-1.0,-1.0,-2.0,-2.0,0.0,0.0
1706276943.4842958,0.0,-2.0,0.0,0.0,-2.0,2.0,0.0,-2.0
1706276943.5142994,-2.0,-1.0,-1.0,-2.0,0.0,-1.0,-3.0,1.0
1706276943.5142994,-1.0,-2.0,0.0,-2.0,-1.0,-1.0,0.0,-1.0
1706276943.5142994,0.0,-1.0,-1.0,-1.0,0.0,0.0,-1.0,-2.0
1706276943.5142994,-1.0,-1.0,-2.0,-1.0,0.0,-2.0,0.0,-1.0
1706276943.5342953,-1.0,0.0,1.0,0.0,-1.0,0.0,-1.0,0.0
1706276943.5342953,0.0,-2.0,-1.0,-1.0,-1.0,-1.0,-1.0,0.0
1706276943.5342953,-2.0,-2.0,0.0,-1.0,-1.0,-1.0,-1.0,0.0
1706276943.5342953,-2.0,0.0,-2.0,-2.0,-1.0,-2.0,-1.0,-1.0
1706276943.5445378,0.0,-2.0,0.0,-1.0,0.0,-2.0,0.0,-1.0
1706276943.5445378,-3.0,-1.0,1.0,0.0,0.0,1.0,-1.0,-1.0
1706276943.5445378,0.0,1.0,-2.0,-1.0,-2.0,0.0,-2.0,-2.0
1706276943.5445378,-1.0,-1.0,-1.0,-1.0,-2.0,-1.0,-2.0,-1.0
1706276943.584296,0.0,-1.0,-1.0,-1.0,-1.0,-1.0,0.0,0.0
1706276943.584296,-2.0,-1.0,-2.0,-4.0,-2.0,-3.0,-2.0,-1.0
1706276943.584296,-1.0,-2.0,-1.0,-1.0,1.0,-3.0,-2.0,-2.0
1706276943.584296,-1.0,-1.0,-1.0,-1.0,-2.0,-1.0,-1.0,-2.0
1706276943.584296,-2.0,-1.0,-1.0,-1.0,-2.0,-1.0,-2.0,-1.0
1706276943.584296,-1.0,-2.0,-2.0,-1.0,1.0,-2.0,-1.0,-2.0
1706276943.584296,-2.0,-1.0,-1.0,-2.0,-2.0,0.0,-1.0,-1.0
1706276943.584296,-1.0,0.0,-2.0,0.0,0.0,-2.0,1.0,-1.0
1706276943.6046078,0.0,-1.0,0.0,1.0,-1.0,-1.0,-2.0,-1.0
1706276943.6046078,-2.0,-1.0,0.0,-2.0,0.0,0.0,0.0,-1.0
1706276943.6046078,-1.0,-2.0,-1.0,0.0,-2.0,-1.0,-2.0,0.0
1706276943.6046078,-2.0,-1.0,-1.0,-1.0,-1.0,0.0,-3.0,0.0
1706276943.6342947,-2.0,-1.0,-1.0,-1.0,0.0,1.0,0.0,-1.0
1706276943.6342947,-1.0,-1.0,-1.0,-3.0,-2.0,-3.0,-2.0,0.0
1706276943.6342947,-1.0,-1.0,-1.0,-1.0,-2.0,-1.0,0.0,0.0
1706276943.6342947,-1.0,-1.0,-2.0,-2.0,0.0,-2.0,-1.0,1.0
1706276943.6442943,-1.0,0.0,-1.0,-1.0,-1.0,1.0,-3.0,-2.0
1706276943.6442943,2.0,-1.0,0.0,0.0,-2.0,-1.0,-1.0,0.0
1706276943.6442943,-1.0,2.0,-1.0,-1.0,-1.0,-1.0,0.0,-2.0
1706276943.6442943,1.0,0.0,-1.0,0.0,-2.0,-2.0,0.0,-2.0
1706276943.6646318,-2.0,0.0,0.0,0.0,1.0,-2.0,-1.0,0.0
1706276943.6646318,-1.0,-3.0,-3.0,0.0,-1.0,-3.0,-1.0,-1.0
1706276943.6646318,0.0,-3.0,-2.0,-1.0,-1.0,0.0,-1.0,-2.0
1706276943.6646318,0.0,-1.0,-1.0,-3.0,-2.0,0.0,-1.0,-1.0
1706276943.7042956,0.0,0.0,-2.0,0.0,-3.0,-1.0,-2.0,0.0
1706276943.7042956,-2.0,-1.0,1.0,1.0,0.0,0.0,-1.0,-1.0
1706276943.7042956,-1.0,-1.0,-1.0,-1.0,0.0,-1.0,-2.0,0.0
1706276943.7042956,-1.0,-1.0,0.0,-1.0,0.0,-2.0,0.0,-1.0
1706276943.7042956,-1.0,-1.0,0.0,-1.0,-2.0,-1.0,-1.0,-1.0
1706276943.7042956,0.0,0.0,-1.0,-1.0,-2.0,0.0,-1.0,-2.0
1706276943.7042956,-1.0,1.0,-2.0,-1.0,-1.0,-2.0,0.0,-2.0
1706276943.7042956,1.0,-3.0,0.0,1.0,-1.0,0.0,-1.0,-3.0
1706276943.7247012,-3.0,-1.0,-1.0,-2.0,0.0,-3.0,-2.0,0.0
1706276943.7247012,1.0,0.0,-2.0,0.0,-1.0,-2.0,0.0,0.0
1706276943.7247012,-2.0,-1.0,-2.0,0.0,0.0,-1.0,-1.0,-1.0
1706276943.7247012,-1.0,0.0,-2.0,-2.0,-1.0,-3.0,0.0,0.0
1706276943.7542958,0.0,-2.0,-1.0,-2.0,-1.0,-1.0,1.0,0.0
1706276943.7542958,-2.0,-2.0,-1.0,-2.0,2.0,0.0,-3.0,-1.0
1706276943.7542958,-1.0,-1.0,-3.0,-1.0,0.0,-1.0,-1.0,1.0
1706276943.7542958,-2.0,0.0,0.0,0.0,0.0,0.0,-2.0,-1.0
1706276943.764329,-1.0,-2.0,-4.0,-1.0,-2.0,-1.0,-1.0,-2.0
1706276943.764329,-1.0,-1.0,-1.0,-2.0,0.0,0.0,-1.0,-1.0
1706276943.764329,0.0,-1.0,0.0,0.0,-1.0,-1.0,-1.0,-2.0
1706276943.764329,0.0,-1.0,0.0,-2.0,-1.0,-1.0,-1.0,0.0
1706276943.7846003,-1.0,0.0,0.0,-1.0,1.0,-1.0,-1.0,-1.0
1706276943.7846003,-2.0,-2.0,-1.0,-1.0,-1.0,-2.0,-3.0,-1.0
1706276943.7846003,-1.0,-2.0,-1.0,0.0,0.0,0.0,-1.0,-2.0
1706276943.7846003,-2.0,-2.0,-1.0,1.0,0.0,-2.0,0.0,-2.0
1706276943.8142958,-2.0,-1.0,0.0,-1.0,-1.0,1.0,0.0,-1.0
1706276943.8142958,0.0,-1.0,-2.0,-2.0,0.0,-1.0,0.0,-2.0
1706276943.8142958,-2.0,-2.0,0.0,-1.0,-2.0,-2.0,-1.0,0.0
1706276943.8142958,-3.0,0.0,0.0,-2.0,0.0,0.0,-3.0,-1.0
1706276943.8243287,-1.0,-2.0,-2.0,0.0,-2.0,-2.0,-3.0,0.0
1706276943.8243287,-1.0,-1.0,1.0,-1.0,-2.0,-3.0,2.0,-1.0
1706276943.8243287,-2.0,0.0,-1.0,0.0,-1.0,0.0,-1.0,0.0
1706276943.8243287,-1.0,0.0,-2.0,-2.0,0.0,1.0,-1.0,-1.0
1706276943.8447008,-2.0,-1.0,-3.0,-2.0,0.0,-2.0,0.0,0.0
1706276943.8447008,-2.0,-1.0,0.0,0.0,-2.0,-1.0,-1.0,-1.0
1706276943.8447008,0.0,0.0,-2.0,-2.0,0.0,-2.0,-1.0,-1.0
1706276943.8447008,-1.0,-1.0,-2.0,-3.0,2.0,-1.0,1.0,-1.0
1706276943.8743763,-1.0,1.0,-1.0,-3.0,-2.0,-1.0,-1.0,0.0
1706276943.8743763,-1.0,-2.0,-2.0,-2.0,0.0,-1.0,-1.0,-1.0
1706276943.8743763,-2.0,-2.0,0.0,0.0,-2.0,-1.0,-3.0,-2.0
1706276943.8743763,-1.0,-4.0,-1.0,0.0,-2.0,0.0,-2.0,-1.0
1706276943.8942943,0.0,-1.0,0.0,2.0,-1.0,0.0,-2.0,-1.0
1706276943.8942943,-2.0,1.0,0.0,-1.0,-1.0,0.0,-1.0,0.0
1706276943.8942943,0.0,-1.0,-1.0,-1.0,0.0,0.0,1.0,0.0
1706276943.8942943,0.0,0.0,-2.0,0.0,-1.0,0.0,-1.0,-1.0
1706276943.9046755,1.0,-1.0,-2.0,-1.0,0.0,-2.0,0.0,-2.0
1706276943.9046755,0.0,-1.0,0.0,-1.0,-1.0,-2.0,0.0,0.0
1706276943.9046755,-1.0,-1.0,0.0,-1.0,-2.0,-2.0,-2.0,-2.0
1706276943.9046755,-2.0,0.0,0.0,0.0,-2.0,-1.0,-1.0,0.0
1706276943.9351451,-1.0,1.0,-1.0,-3.0,-1.0,1.0,0.0,-1.0
1706276943.9351451,-1.0,-1.0,-2.0,0.0,0.0,-2.0,-1.0,-1.0
1706276943.9361935,0.0,-1.0,-2.0,0.0,0.0,-2.0,-2.0,-1.0
1706276943.9361935,-1.0,-2.0,0.0,-1.0,-2.0,-3.0,-1.0,-1.0
1706276943.94854,-1.0,-2.0,-1.0,0.0,-2.0,-1.0,-1.0,-4.0
1706276943.949611,0.0,0.0,1.0,-2.0,0.0,-2.0,-1.0,0.0
1706276943.949611,-1.0,-1.0,-2.0,-2.0,-2.0,-1.0,-3.0,-2.0
1706276943.949611,-1.0,0.0,-2.0,-3.0,-2.0,-2.0,-2.0,-2.0
1706276943.967024,-2.0,-1.0,-1.0,-2.0,-2.0,-1.0,-2.0,-1.0
1706276943.967024,-1.0,-1.0,-1.0,-1.0,-4.0,1.0,0.0,-2.0
1706276943.967024,-1.0,-1.0,0.0,-2.0,0.0,-1.0,1.0,-1.0
1706276943.967024,-2.0,-1.0,0.0,0.0,-2.0,-2.0,-1.0,0.0
1706276944.0073671,-1.0,-1.0,0.0,-1.0,0.0,0.0,0.0,0.0
1706276944.0073671,-1.0,-1.0,-2.0,-1.0,-1.0,-1.0,-1.0,-2.0
1706276944.0073671,0.0,-2.0,-2.0,-1.0,0.0,-1.0,-1.0,-1.0
1706276944.0073671,0.0,-1.0,0.0,-1.0,0.0,0.0,-1.0,-1.0
1706276944.0073671,-2.0,-1.0,-2.0,-1.0,-1.0,-1.0,0.0,-1.0
1706276944.0073671,0.0,-1.0,-1.0,-1.0,0.0,1.0,-1.0,-1.0
1706276944.0073671,-1.0,0.0,0.0,0.0,-2.0,1.0,0.0,-1.0
1706276944.0073671,0.0,-1.0,0.0,-1.0,-2.0,-1.0,1.0,-3.0
1706276944.0273654,0.0,-1.0,1.0,-1.0,-1.0,0.0,-3.0,-1.0
1706276944.0273654,-1.0,0.0,-1.0,-2.0,-1.0,-1.0,-2.0,0.0
1706276944.0273654,-1.0,-1.0,-1.0,-1.0,-1.0,-2.0,-1.0,-1.0
1706276944.0273654,0.0,-1.0,-1.0,0.0,-1.0,0.0,1.0,0.0
1706276944.0477507,-2.0,0.0,1.0,0.0,-2.0,-2.0,2.0,0.0
1706276944.0477507,-2.0,-1.0,-1.0,0.0,-1.0,1.0,1.0,0.0
1706276944.057678,0.0,0.0,0.0,1.0,-1.0,-1.0,-1.0,-2.0
1706276944.057678,-2.0,0.0,-2.0,-2.0,-1.0,-1.0,-3.0,0.0
1706276944.0677235,0.0,-3.0,-2.0,-2.0,-2.0,-2.0,-1.0,1.0
1706276944.0677235,0.0,0.0,0.0,-1.0,-3.0,-1.0,1.0,-1.0
1706276944.0677235,-4.0,-2.0,0.0,-1.0,-3.0,0.0,0.0,-1.0
1706276944.0677235,-1.0,-1.0,0.0,-2.0,-1.0,-1.0,0.0,-2.0
1706276944.0873659,-1.0,1.0,0.0,-1.0,-1.0,-2.0,-3.0,-1.0
1706276944.0873659,0.0,-2.0,-3.0,-3.0,0.0,-3.0,-2.0,-2.0
1706276944.0873659,1.0,-2.0,-3.0,-2.0,-2.0,-2.0,-1.0,-1.0
1706276944.0873659,-1.0,-1.0,-1.0,0.0,-1.0,1.0,-2.0,-1.0
1706276944.107659,1.0,-1.0,-3.0,-1.0,-1.0,0.0,-1.0,-2.0
1706276944.107659,-1.0,-1.0,-1.0,0.0,0.0,-2.0,-2.0,-2.0
1706276944.107659,-2.0,0.0,-1.0,-1.0,-1.0,0.0,-3.0,-3.0
1706276944.107659,-1.0,-1.0,0.0,-2.0,0.0,-1.0,1.0,-1.0
1706276944.1273677,-1.0,-1.0,0.0,0.0,0.0,-1.0,-1.0,1.0
1706276944.1273677,-1.0,-1.0,-1.0,-2.0,-1.0,0.0,-1.0,1.0
1706276944.1373668,-1.0,-1.0,-2.0,-3.0,-2.0,-1.0,1.0,-1.0
1706276944.1373668,-1.0,1.0,-2.0,0.0,-3.0,-1.0,-1.0,0.0
1706276944.1475403,-1.0,0.0,-2.0,-1.0,-2.0,-1.0,-1.0,-2.0
1706276944.1475403,0.0,-2.0,0.0,-1.0,-3.0,-3.0,1.0,-1.0
1706276944.1475403,0.0,-2.0,-2.0,0.0,1.0,-2.0,1.0,0.0
1706276944.1475403,1.0,0.0,-2.0,0.0,-3.0,-1.0,-1.0,2.0
1706276944.1676352,-1.0,-2.0,-1.0,0.0,1.0,-1.0,0.0,-1.0
1706276944.1676352,-2.0,-1.0,0.0,-1.0,-1.0,0.0,-3.0,-2.0
1706276944.1676352,-1.0,1.0,0.0,-1.0,0.0,-1.0,-1.0,-2.0
1706276944.1676352,0.0,-1.0,-2.0,-3.0,-2.0,-1.0,0.0,0.0
1706276944.2073703,-1.0,1.0,0.0,1.0,-1.0,-2.0,-1.0,-1.0
1706276944.2073703,0.0,0.0,-1.0,-1.0,0.0,-1.0,-1.0,-2.0
1706276944.2073703,0.0,-1.0,-2.0,-1.0,-1.0,-1.0,0.0,0.0
1706276944.2073703,-2.0,0.0,-1.0,-1.0,-2.0,0.0,0.0,-1.0
1706276944.2073703,0.0,-2.0,-3.0,-2.0,-3.0,-2.0,0.0,-1.0
1706276944.2073703,-2.0,-2.0,-1.0,0.0,-2.0,1.0,-2.0,0.0
1706276944.2073703,-1.0,0.0,0.0,0.0,-1.0,-1.0,-1.0,-2.0
1706276944.2073703,1.0,-1.0,-2.0,-1.0,1.0,-2.0,-1.0,-1.0
1706276944.2276132,-1.0,0.0,-1.0,-2.0,-2.0,0.0,-1.0,-2.0
1706276944.2276132,-3.0,-2.0,-1.0,1.0,1.0,0.0,-2.0,-1.0
1706276944.2276132,-1.0,-1.0,-2.0,-2.0,-2.0,-2.0,-2.0,-1.0
1706276944.2276132,-1.0,-2.0,-2.0,0.0,1.0,-2.0,-2.0,-1.0
1706276944.2673664,-1.0,-3.0,-2.0,-1.0,-1.0,-1.0,0.0,-1.0
1706276944.2673664,-1.0,0.0,-1.0,-1.0,-3.0,-1.0,-1.0,-1.0
1706276944.2673664,-1.0,-2.0,0.0,-1.0,0.0,0.0,0.0,1.0
1706276944.2673664,0.0,-1.0,0.0,-2.0,-3.0,-1.0,0.0,-2.0
1706276944.2673664,-2.0,0.0,-1.0,-1.0,1.0,0.0,-1.0,-1.0
1706276944.2673664,0.0,-2.0,-1.0,-3.0,-1.0,-2.0,-1.0,-1.0
1706276944.2673664,-1.0,-1.0,-1.0,-1.0,-2.0,-1.0,-1.0,-1.0
1706276944.2673664,-2.0,-1.0,0.0,1.0,0.0,-2.0,0.0,-2.0
1706276944.287614,-1.0,-2.0,0.0,-1.0,0.0,-1.0,-3.0,-4.0
1706276944.287614,-1.0,-1.0,-1.0,0.0,-2.0,0.0,1.0,-1.0
1706276944.287614,-1.0,-1.0,0.0,-1.0,-1.0,-1.0,-1.0,0.0
1706276944.287614,-1.0,-1.0,0.0,-2.0,-1.0,-2.0,-1.0,-1.0
1706276944.3074026,-1.0,1.0,-2.0,-2.0,-2.0,-1.0,0.0,-1.0
1706276944.3074026,0.0,0.0,-1.0,-1.0,0.0,-2.0,1.0,-1.0
1706276944.3074026,1.0,-1.0,1.0,-1.0,-2.0,-2.0,0.0,0.0
1706276944.3074026,-2.0,-2.0,0.0,-2.0,1.0,-1.0,0.0,-1.0
1706276944.327624,0.0,-2.0,-3.0,0.0,-1.0,-1.0,-1.0,0.0
1706276944.327624,0.0,-1.0,-2.0,-2.0,-3.0,-1.0,-2.0,-2.0
1706276944.327624,-1.0,-1.0,-1.0,-1.0,-2.0,-1.0,-2.0,1.0
1706276944.327624,1.0,0.0,-1.0,0.0,-1.0,0.0,-3.0,-2.0
1706276944.3476214,0.0,0.0,0.0,-2.0,-1.0,-1.0,-1.0,1.0
1706276944.3476214,-2.0,0.0,-2.0,0.0,-1.0,-1.0,-1.0,0.0
1706276944.3476214,-2.0,-2.0,-2.0,-1.0,0.0,0.0,-1.0,-3.0
1706276944.3476214,-1.0,-2.0,-2.0,1.0,1.0,2.0,-2.0,-1.0
1706276944.387413,-2.0,1.0,-1.0,-2.0,-1.0,-1.0,0.0,-2.0
1706276944.387413,1.0,0.0,0.0,-1.0,-1.0,-2.0,0.0,-1.0
1706276944.387413,0.0,-1.0,-2.0,-1.0,-1.0,0.0,-1.0,0.0
1706276944.387413,-1.0,-1.0,-1.0,-1.0,-3.0,-1.0,-1.0,-1.0
1706276944.387413,-2.0,0.0,-1.0,-1.0,-1.0,-1.0,0.0,-2.0
1706276944.387413,-2.0,-1.0,-1.0,0.0,0.0,-1.0,-2.0,2.0
1706276944.387413,0.0,0.0,0.0,-1.0,0.0,-2.0,-1.0,-1.0
1706276944.387413,-1.0,-1.0,-2.0,-3.0,0.0,-2.0,0.0,-1.0
1706276944.4174275,-1.0,-2.0,0.0,0.0,-1.0,1.0,-2.0,-1.0
1706276944.4174275,-2.0,-1.0,-1.0,-2.0,-1.0,-2.0,-1.0,-1.0
1706276944.4174275,-1.0,-1.0,0.0,-1.0,-1.0,-1.0,0.0,-1.0
1706276944.4174275,-1.0,-2.0,-1.0,-1.0,0.0,-2.0,-2.0,0.0
1706276944.4275298,-1.0,-3.0,-2.0,-1.0,-1.0,-1.0,0.0,-2.0
1706276944.4374309,-1.0,-2.0,-1.0,-1.0,-1.0,0.0,0.0,-2.0
1706276944.4374309,-2.0,-2.0,-1.0,0.0,-1.0,0.0,-2.0,0.0
1706276944.4374309,-2.0,1.0,-1.0,-2.0,-2.0,-2.0,1.0,0.0
1706276944.4478111,0.0,-1.0,-2.0,-1.0,0.0,-2.0,0.0,-1.0
1706276944.4478111,0.0,-1.0,0.0,-2.0,-1.0,-2.0,1.0,-1.0
1706276944.4478111,1.0,0.0,-1.0,-2.0,-2.0,-2.0,0.0,-1.0
1706276944.4478111,-1.0,-1.0,-1.0,0.0,-1.0,0.0,-3.0,-1.0
1706276944.473628,-1.0,-1.0,-2.0,-1.0,0.0,-3.0,-1.0,0.0
1706276944.474631,-1.0,0.0,0.0,-3.0,-1.0,-1.0,-1.0,0.0
1706276944.483627,-2.0,-2.0,0.0,-1.0,0.0,-1.0,0.0,0.0
1706276944.483627,-2.0,-2.0,-2.0,-1.0,-1.0,-1.0,0.0,0.0
1706276944.496736,-3.0,-2.0,-1.0,0.0,-1.0,-1.0,-1.0,-1.0
1706276944.4977586,-1.0,-1.0,-2.0,0.0,0.0,0.0,-1.0,-1.0
1706276944.498752,0.0,0.0,-1.0,-1.0,-1.0,-2.0,-2.0,-1.0
1706276944.498752,-1.0,0.0,-1.0,-2.0,-1.0,0.0,-2.0,-1.0
1706276944.5103793,-1.0,-1.0,-3.0,0.0,-2.0,0.0,0.0,-1.0
1706276944.5103793,-2.0,1.0,-1.0,1.0,-2.0,0.0,-1.0,-2.0
1706276944.5200524,-1.0,0.0,-2.0,-1.0,-1.0,0.0,-1.0,-2.0
1706276944.5200524,-1.0,-1.0,0.0,0.0,-1.0,-1.0,0.0,-1.0
1706276944.5500505,0.0,1.0,0.0,0.0,-1.0,-1.0,0.0,-1.0
1706276944.5500505,-1.0,-2.0,-1.0,-1.0,-2.0,-2.0,0.0,0.0
1706276944.5500505,-2.0,-1.0,0.0,0.0,0.0,-1.0,-1.0,0.0
1706276944.5500505,-1.0,1.0,-1.0,-1.0,-1.0,0.0,-1.0,-2.0
1706276944.5500505,-2.0,-2.0,2.0,0.0,-2.0,-2.0,-1.0,-2.0
1706276944.5500505,-1.0,-1.0,-1.0,-1.0,-2.0,0.0,-2.0,-1.0
1706276944.5500505,-2.0,0.0,0.0,-1.0,-1.0,0.0,0.0,0.0
1706276944.5500505,-1.0,-1.0,-2.0,-1.0,-2.0,-1.0,0.0,-3.0
1706276944.570352,-1.0,-1.0,0.0,-1.0,-2.0,-1.0,-2.0,-1.0
1706276944.570352,0.0,-2.0,-1.0,-3.0,0.0,-1.0,-2.0,-2.0
1706276944.5800521,0.0,-1.0,-1.0,-1.0,-1.0,-1.0,-1.0,-1.0
1706276944.5800521,-2.0,-1.0,-3.0,0.0,0.0,-1.0,-3.0,-1.0
1706276944.610046,-2.0,-1.0,-1.0,-1.0,-1.0,1.0,0.0,-1.0
1706276944.610046,-1.0,-1.0,-1.0,-1.0,0.0,-1.0,-3.0,-2.0
1706276944.610046,-2.0,-2.0,-1.0,0.0,0.0,-3.0,0.0,-1.0
1706276944.610046,0.0,-2.0,0.0,0.0,-1.0,-1.0,-1.0,-2.0
1706276944.610046,0.0,1.0,0.0,-1.0,-2.0,-1.0,-2.0,0.0
1706276944.610046,-2.0,1.0,0.0,0.0,-3.0,-1.0,-2.0,-1.0
1706276944.610046,-1.0,-1.0,0.0,-2.0,-1.0,0.0,-1.0,0.0
1706276944.610046,-1.0,-1.0,0.0,-2.0,-3.0,0.0,-1.0,0.0
1706276944.6302016,-2.0,-2.0,-1.0,-2.0,-1.0,-1.0,-1.0,-2.0
1706276944.6302016,0.0,-1.0,0.0,-1.0,-2.0,0.0,-1.0,-1.0
1706276944.6400466,1.0,-1.0,-2.0,0.0,0.0,-2.0,-1.0,-2.0
1706276944.6400466,-1.0,1.0,-1.0,0.0,-1.0,-3.0,-2.0,0.0
1706276944.6500795,0.0,-2.0,0.0,0.0,0.0,-3.0,-1.0,-1.0
1706276944.6500795,-2.0,-3.0,-1.0,0.0,0.0,-1.0,1.0,0.0
1706276944.6500795,1.0,0.0,-1.0,-1.0,-2.0,-1.0,0.0,-2.0
1706276944.6500795,-2.0,0.0,-1.0,0.0,-1.0,-1.0,-1.0,-1.0
1706276944.6704843,-1.0,0.0,-2.0,-2.0,-1.0,0.0,-1.0,-3.0
1706276944.6704843,-1.0,-3.0,-1.0,-1.0,-1.0,-2.0,-1.0,-1.0
1706276944.6803927,-1.0,-2.0,-1.0,-3.0,-2.0,0.0,-1.0,0.0
1706276944.6803927,1.0,-4.0,0.0,-2.0,0.0,-2.0,0.0,-1.0
1706276944.6901753,0.0,-2.0,-1.0,-1.0,-1.0,-2.0,0.0,-2.0
1706276944.6901753,-2.0,-2.0,-2.0,-1.0,-1.0,0.0,0.0,-1.0
1706276944.700049,0.0,-1.0,0.0,-2.0,-1.0,-1.0,0.0,0.0
1706276944.700049,-1.0,-2.0,-2.0,-1.0,0.0,-1.0,-2.0,-1.0
1706276944.7100837,0.0,-1.0,-2.0,-1.0,-1.0,-1.0,-4.0,0.0
1706276944.7100837,0.0,0.0,-1.0,-2.0,-1.0,-2.0,-2.0,-1.0
1706276944.7100837,-1.0,-1.0,-2.0,0.0,-1.0,0.0,-2.0,-1.0
1706276944.7100837,-1.0,-2.0,-1.0,0.0,-2.0,-3.0,-2.0,-1.0
1706276944.7304673,-1.0,-2.0,-2.0,0.0,-1.0,1.0,1.0,0.0
1706276944.7304673,-1.0,0.0,0.0,0.0,0.0,-2.0,-1.0,-2.0
1706276944.7304673,0.0,-1.0,-1.0,-1.0,-1.0,-1.0,0.0,-2.0
1706276944.7304673,-1.0,-1.0,0.0,0.0,-1.0,-1.0,-2.0,0.0
1706276944.7501824,0.0,-2.0,0.0,-1.0,-1.0,-1.0,-1.0,0.0
1706276944.7501824,-2.0,1.0,-1.0,-2.0,-3.0,-1.0,0.0,0.0
1706276944.7600493,-4.0,-2.0,-2.0,-2.0,-1.0,0.0,0.0,-1.0
1706276944.7600493,-1.0,-1.0,1.0,-1.0,0.0,-1.0,-1.0,-1.0
1706276944.7700813,-2.0,-1.0,0.0,-1.0,0.0,-1.0,-2.0,-2.0
1706276944.7700813,1.0,-1.0,-2.0,0.0,0.0,0.0,0.0,-1.0
1706276944.7700813,0.0,0.0,-1.0,1.0,-1.0,-2.0,-2.0,1.0
1706276944.7700813,-1.0,0.0,-1.0,-1.0,-2.0,0.0,1.0,-1.0
1706276944.7904391,-1.0,-1.0,-2.0,-1.0,0.0,1.0,0.0,-1.0
1706276944.7904391,-2.0,0.0,-2.0,-2.0,-2.0,-1.0,0.0,-1.0
1706276944.7904391,0.0,0.0,-2.0,-1.0,0.0,-1.0,-1.0,-1.0
1706276944.7904391,-1.0,0.0,-1.0,0.0,-3.0,-2.0,-1.0,-1.0
1706276944.8100467,-1.0,-1.0,1.0,-1.0,0.0,-1.0,-1.0,-1.0
1706276944.8100467,-3.0,-1.0,-1.0,0.0,-1.0,0.0,-1.0,0.0
1706276944.8200514,0.0,-2.0,-1.0,-1.0,0.0,0.0,0.0,0.0
1706276944.8200514,-1.0,-1.0,0.0,-2.0,0.0,-1.0,-2.0,-1.0
1706276944.8303127,-1.0,0.0,-1.0,-1.0,-2.0,0.0,0.0,-1.0
1706276944.8303127,-1.0,0.0,-1.0,-1.0,-1.0,-2.0,-1.0,-1.0
1706276944.8303127,-1.0,1.0,-2.0,0.0,-1.0,0.0,-2.0,-2.0
1706276944.8303127,0.0,0.0,3.0,2.0,1.0,0.0,1.0,0.0
1706276944.8503704,-2.0,-4.0,-7.0,-3.0,-2.0,0.0,-1.0,0.0
1706276944.8503704,2.0,1.0,6.0,1.0,1.0,-2.0,1.0,0.0
1706276944.8503704,-4.0,-5.0,-6.0,-2.0,-2.0,-2.0,-1.0,-2.0
1706276944.8503704,-2.0,0.0,-8.0,-3.0,-1.0,-2.0,-1.0,-2.0
1706276944.8800476,0.0,0.0,-1.0,-1.0,-2.0,-2.0,-2.0,0.0
1706276944.8800476,-1.0,-1.0,0.0,-1.0,-1.0,-1.0,-2.0,-1.0
1706276944.8800476,-2.0,0.0,4.0,0.0,0.0,-2.0,0.0,-1.0
1706276944.8800476,-2.0,-1.0,-1.0,-1.0,1.0,1.0,0.0,-1.0
1706276944.8900802,-1.0,0.0,-1.0,-2.0,-1.0,-1.0,0.0,0.0
1706276944.8900802,1.0,0.0,-3.0,-1.0,-2.0,-1.0,-3.0,-2.0
1706276944.8900802,-1.0,0.0,0.0,0.0,-1.0,0.0,-1.0,-1.0
1706276944.8900802,-2.0,-2.0,-1.0,-3.0,0.0,-3.0,-2.0,-1.0
1706276944.9104722,0.0,1.0,0.0,-2.0,-1.0,-1.0,-2.0,-2.0
1706276944.9104722,-2.0,-4.0,-4.0,-1.0,-1.0,1.0,-1.0,-2.0
1706276944.9104722,0.0,2.0,1.0,-2.0,-3.0,-1.0,-1.0,-1.0
1706276944.9104722,1.0,1.0,0.0,3.0,3.0,-1.0,0.0,0.0
1706276944.9300644,-1.0,-3.0,-9.0,-5.0,-4.0,-3.0,-2.0,-1.0
1706276944.9300644,1.0,1.0,9.0,5.0,1.0,1.0,1.0,1.0
1706276944.9400523,-3.0,-9.0,-24.0,-8.0,-1.0,0.0,-3.0,-2.0
1706276944.9400523,-2.0,-3.0,1.0,0.0,-1.0,1.0,-2.0,-2.0
1706276944.96037,-1.0,-2.0,1.0,-1.0,1.0,-2.0,-2.0,0.0
1706276944.96037,-3.0,-2.0,-3.0,-3.0,-3.0,-2.0,-2.0,-2.0
1706276944.96037,2.0,2.0,11.0,2.0,-1.0,-1.0,-1.0,-1.0
1706276944.96037,0.0,0.0,1.0,-1.0,-2.0,-1.0,-1.0,-2.0
1706276944.9703274,-2.0,1.0,-4.0,2.0,0.0,1.0,-1.0,-1.0
1706276944.9703274,-1.0,-2.0,-2.0,-5.0,-5.0,-4.0,-3.0,-2.0
1706276944.9703274,-2.0,-2.0,1.0,-2.0,-4.0,-3.0,-1.0,-1.0
1706276944.9703274,-2.0,-2.0,-6.0,-9.0,-19.0,-14.0,-4.0,-4.0
1706276945.0077772,-2.0,-1.0,0.0,-3.0,-9.0,-3.0,-2.0,-2.0
1706276945.0077772,1.0,0.0,1.0,10.0,34.0,13.0,2.0,1.0
1706276945.0077772,3.0,4.0,3.0,10.0,21.0,10.0,3.0,3.0
1706276945.0077772,-2.0,-3.0,-2.0,-3.0,-16.0,-3.0,1.0,0.0
1706276945.014121,2.0,3.0,2.0,4.0,13.0,4.0,1.0,-1.0
1706276945.0147834,-4.0,-5.0,-5.0,-3.0,-15.0,-6.0,-4.0,-3.0
1706276945.0157921,-2.0,-5.0,-1.0,-5.0,-2.0,-9.0,-4.0,-3.0
1706276945.0157921,0.0,3.0,2.0,-4.0,-19.0,-7.0,-4.0,-1.0
1706276945.0327475,-3.0,-5.0,0.0,1.0,1.0,2.0,-1.0,-2.0
1706276945.0327475,0.0,1.0,2.0,-1.0,8.0,0.0,0.0,0.0
1706276945.0327475,-3.0,-9.0,-18.0,-7.0,-5.0,-2.0,-3.0,-3.0
1706276945.0327475,-1.0,-4.0,-5.0,0.0,8.0,3.0,-1.0,-1.0
1706276945.042974,-2.0,-1.0,0.0,-5.0,-14.0,-4.0,-3.0,-1.0
1706276945.042974,0.0,0.0,-2.0,1.0,4.0,-3.0,-3.0,-2.0
1706276945.0529737,0.0,0.0,8.0,-4.0,-18.0,-4.0,-1.0,0.0
1706276945.0529737,2.0,5.0,1.0,3.0,12.0,4.0,1.0,2.0
1706276945.0731032,0.0,-3.0,-6.0,2.0,16.0,5.0,0.0,-3.0
1706276945.0731032,0.0,0.0,-5.0,-4.0,-5.0,-1.0,0.0,0.0
1706276945.0731032,0.0,-1.0,2.0,0.0,-3.0,-3.0,-1.0,-1.0
1706276945.0731032,-2.0,-4.0,1.0,0.0,7.0,3.0,0.0,-2.0
1706276945.1131246,0.0,3.0,6.0,1.0,-2.0,-1.0,0.0,-1.0
1706276945.1131246,-2.0,-2.0,-3.0,-4.0,-10.0,-5.0,-1.0,0.0
1706276945.1131246,1.0,3.0,1.0,1.0,-1.0,1.0,0.0,0.0
1706276945.1131246,-2.0,0.0,-1.0,0.0,8.0,2.0,0.0,0.0
1706276945.1131246,-2.0,-2.0,-1.0,0.0,-3.0,-3.0,-1.0,-2.0
1706276945.1131246,-1.0,0.0,-4.0,-4.0,-9.0,-1.0,-1.0,-1.0
1706276945.1234741,-2.0,-2.0,1.0,-1.0,1.0,1.0,0.0,-2.0
1706276945.1234741,0.0,-2.0,0.0,1.0,2.0,2.0,-1.0,-2.0
1706276945.133121,-1.0,-2.0,-1.0,-3.0,-5.0,-3.0,0.0,-1.0
1706276945.133121,-2.0,-2.0,-2.0,0.0,-2.0,-1.0,0.0,-1.0
1706276945.133121,-1.0,0.0,2.0,2.0,2.0,0.0,0.0,0.0
1706276945.133121,-2.0,-2.0,-3.0,0.0,-1.0,-1.0,-2.0,0.0
1706276945.1533823,-1.0,1.0,-2.0,-1.0,-2.0,-2.0,-2.0,0.0
1706276945.1533823,0.0,-2.0,0.0,-1.0,-2.0,-1.0,-2.0,-1.0
1706276945.1533823,-3.0,-1.0,0.0,0.0,0.0,0.0,0.0,-2.0
1706276945.1533823,-1.0,-2.0,-2.0,-3.0,-2.0,1.0,0.0,-3.0
1706276945.1734476,-1.0,-3.0,-1.0,0.0,1.0,-1.0,-1.0,1.0
1706276945.1734476,-2.0,-1.0,-1.0,-2.0,-3.0,0.0,0.0,0.0
1706276945.1734476,-1.0,-1.0,0.0,0.0,-1.0,-1.0,-1.0,-2.0
1706276945.1734476,0.0,-2.0,-1.0,-1.0,0.0,0.0,-1.0,1.0
1706276945.1934345,-2.0,-1.0,0.0,1.0,0.0,-1.0,-1.0,-1.0
1706276945.1934345,-1.0,-1.0,-1.0,-2.0,-2.0,-2.0,-2.0,-1.0
1706276945.1934345,1.0,0.0,-2.0,-2.0,-1.0,0.0,-2.0,0.0
1706276945.1934345,0.0,0.0,-1.0,-2.0,2.0,1.0,-1.0,0.0
1706276945.23312,-1.0,-2.0,-1.0,-2.0,-1.0,-3.0,-1.0,-1.0
1706276945.23312,-2.0,0.0,-1.0,-1.0,-1.0,-2.0,1.0,-1.0
1706276945.23312,0.0,-2.0,-1.0,-2.0,-1.0,0.0,-1.0,0.0
1706276945.23312,-1.0,0.0,-2.0,0.0,0.0,-1.0,-2.0,-3.0
1706276945.23312,-2.0,0.0,-2.0,-2.0,-2.0,-2.0,-2.0,1.0
1706276945.23312,-1.0,-1.0,-2.0,0.0,-2.0,-2.0,-2.0,-1.0
1706276945.23312,0.0,-1.0,0.0,1.0,-1.0,0.0,-1.0,0.0
1706276945.23312,-2.0,-2.0,1.0,-2.0,-1.0,-3.0,-1.0,-2.0
1706276945.2534149,-1.0,-1.0,2.0,0.0,-2.0,1.0,-2.0,-1.0
1706276945.2534149,0.0,-1.0,0.0,-2.0,-3.0,-1.0,0.0,0.0
1706276945.2534149,-2.0,-2.0,-1.0,-1.0,1.0,-3.0,1.0,0.0
1706276945.2534149,0.0,-2.0,-1.0,-1.0,0.0,0.0,-1.0,0.0
1706276945.293168,-1.0,-1.0,-2.0,-1.0,0.0,-1.0,0.0,0.0
1706276945.293168,-1.0,-2.0,-1.0,-1.0,-1.0,-2.0,-1.0,0.0
1706276945.293168,-2.0,-1.0,-1.0,-2.0,-1.0,0.0,-2.0,-2.0
1706276945.293168,-2.0,-2.0,-2.0,-1.0,-1.0,-1.0,-2.0,-1.0
1706276945.293168,-2.0,0.0,-1.0,-1.0,-2.0,0.0,-1.0,-1.0
1706276945.293168,2.0,0.0,-2.0,-2.0,-3.0,0.0,0.0,0.0
1706276945.293168,-1.0,-1.0,0.0,-3.0,-1.0,-3.0,0.0,0.0
1706276945.293168,0.0,0.0,-1.0,-1.0,1.0,-2.0,-1.0,0.0
1706276945.3131986,0.0,-2.0,1.0,-1.0,-2.0,-1.0,-2.0,-1.0
1706276945.3131986,-3.0,-3.0,0.0,0.0,0.0,-1.0,-1.0,-1.0
1706276945.3131986,-1.0,1.0,-2.0,0.0,-1.0,0.0,-1.0,0.0
1706276945.3131986,-2.0,-1.0,-1.0,-1.0,-1.0,1.0,-1.0,-1.0
1706276945.343635,-1.0,0.0,-1.0,-1.0,0.0,-1.0,-2.0,-2.0
1706276945.343635,0.0,-1.0,-1.0,0.0,-1.0,1.0,-1.0,-2.0
1706276945.343635,-2.0,-2.0,-1.0,0.0,0.0,-1.0,-2.0,-2.0
1706276945.343635,-1.0,-1.0,-1.0,0.0,0.0,-2.0,1.0,0.0
1706276945.3539703,-1.0,0.0,1.0,0.0,-1.0,-1.0,0.0,-1.0
1706276945.3539703,-2.0,-1.0,-1.0,-1.0,-1.0,0.0,-2.0,-1.0
1706276945.3539703,-1.0,0.0,-1.0,-1.0,-2.0,0.0,-3.0,-2.0
1706276945.3539703,-1.0,0.0,-1.0,-2.0,-1.0,-1.0,-2.0,-2.0
1706276945.3736372,0.0,-1.0,-1.0,-2.0,-1.0,-3.0,-1.0,-2.0
1706276945.3736372,-2.0,-1.0,-1.0,0.0,0.0,-2.0,0.0,-3.0
1706276945.3736372,-3.0,-1.0,-1.0,0.0,-2.0,-1.0,1.0,0.0
1706276945.3736372,-2.0,-2.0,0.0,-1.0,-3.0,-1.0,-1.0,0.0
1706276945.3940036,1.0,0.0,-1.0,-2.0,-1.0,-2.0,1.0,0.0
1706276945.3940036,-1.0,-1.0,-1.0,-1.0,-1.0,1.0,-1.0,-2.0
1706276945.3940036,0.0,1.0,-1.0,0.0,-1.0,0.0,-1.0,-1.0
1706276945.3940036,0.0,-1.0,1.0,0.0,-1.0,-2.0,-2.0,-1.0
1706276945.4136348,0.0,0.0,-1.0,-2.0,-1.0,0.0,-1.0,-2.0
1706276945.4136348,-1.0,-2.0,-1.0,-2.0,-1.0,0.0,-1.0,-1.0
1706276945.4136348,-1.0,-1.0,0.0,-2.0,1.0,0.0,0.0,-2.0
1706276945.4136348,0.0,-1.0,-2.0,0.0,2.0,0.0,-2.0,-1.0
1706276945.4336443,-3.0,-1.0,-3.0,0.0,-2.0,-1.0,-3.0,0.0
1706276945.4336443,-1.0,1.0,-2.0,-1.0,0.0,-2.0,-1.0,1.0
1706276945.4336443,-2.0,-2.0,-1.0,-1.0,-1.0,-2.0,-1.0,-2.0
1706276945.4336443,0.0,-1.0,0.0,0.0,-2.0,-1.0,-1.0,-2.0
1706276945.4539182,0.0,-1.0,0.0,-2.0,0.0,-3.0,-1.0,1.0
1706276945.4539182,0.0,-1.0,-2.0,-1.0,-1.0,0.0,-2.0,-1.0
1706276945.4539182,-1.0,-1.0,0.0,0.0,-2.0,-1.0,-2.0,0.0
1706276945.4539182,-1.0,0.0,0.0,0.0,0.0,0.0,-1.0,-1.0
1706276945.4936357,-1.0,-2.0,-1.0,1.0,0.0,0.0,0.0,-3.0
1706276945.4936357,-2.0,-2.0,-1.0,0.0,0.0,-3.0,-1.0,-3.0
1706276945.4936357,-1.0,-1.0,-1.0,0.0,-1.0,-2.0,0.0,0.0
1706276945.4936357,-1.0,0.0,-1.0,-2.0,-1.0,-1.0,0.0,0.0
1706276945.4936357,-1.0,-2.0,-2.0,0.0,-1.0,0.0,1.0,0.0
1706276945.4936357,-1.0,-1.0,1.0,-1.0,-1.0,-2.0,-1.0,-1.0
1706276945.4936357,0.0,0.0,-1.0,-1.0,0.0,-1.0,-2.0,0.0
1706276945.4936357,-2.0,0.0,0.0,-1.0,-1.0,-1.0,1.0,-1.0
1706276945.5138433,-1.0,0.0,-2.0,0.0,-1.0,-2.0,-2.0,-2.0
1706276945.5138433,0.0,-1.0,-2.0,-1.0,-1.0,-2.0,-1.0,-1.0
1706276945.5138433,-2.0,-1.0,-1.0,-1.0,-2.0,-1.0,-1.0,-1.0
1706276945.5138433,-1.0,-1.0,-1.0,-1.0,-1.0,0.0,-1.0,0.0
1706276945.5594327,-1.0,-1.0,-2.0,0.0,-1.0,1.0,-1.0,-2.0
1706276945.5594327,-1.0,-1.0,0.0,-1.0,-1.0,1.0,-1.0,0.0
1706276945.560433,-1.0,0.0,-1.0,-3.0,-1.0,-1.0,-1.0,-2.0
1706276945.560433,-1.0,1.0,-1.0,-1.0,0.0,-1.0,-2.0,-1.0
1706276945.560433,-1.0,-3.0,0.0,-2.0,0.0,1.0,-2.0,-3.0
1706276945.560433,-1.0,-1.0,-2.0,-1.0,-1.0,0.0,-1.0,-2.0
1706276945.5615606,1.0,-3.0,-1.0,0.0,-1.0,-2.0,0.0,1.0
1706276945.5615606,0.0,-1.0,-1.0,-2.0,0.0,-3.0,-2.0,-2.0
1706276945.5762737,-2.0,-1.0,1.0,-1.0,-1.0,-1.0,-2.0,0.0
1706276945.5762737,-2.0,0.0,0.0,-3.0,-2.0,-1.0,-2.0,1.0
1706276945.5762737,-1.0,0.0,0.0,0.0,-1.0,-1.0,-1.0,-2.0
1706276945.5762737,0.0,-2.0,-2.0,0.0,-2.0,-2.0,0.0,0.0
1706276945.6059315,-1.0,-2.0,-1.0,-2.0,-1.0,-1.0,1.0,0.0
1706276945.6059315,0.0,0.0,-1.0,0.0,0.0,-2.0,-1.0,-3.0
1706276945.6059315,-2.0,-1.0,-2.0,-1.0,0.0,0.0,-1.0,-1.0
1706276945.6059315,-1.0,-3.0,0.0,0.0,-1.0,-1.0,-1.0,-2.0
1706276945.6059315,-2.0,0.0,-2.0,0.0,-2.0,-2.0,0.0,-2.0
1706276945.6059315,-2.0,-2.0,0.0,0.0,-2.0,-1.0,-1.0,-1.0
1706276945.6161997,-1.0,0.0,-3.0,1.0,-1.0,-3.0,-1.0,-1.0
1706276945.6161997,-1.0,-1.0,-2.0,1.0,0.0,-1.0,-2.0,-1.0
1706276945.6362967,1.0,-1.0,-2.0,-2.0,-1.0,0.0,-1.0,0.0
1706276945.6362967,-1.0,-1.0,0.0,-2.0,-2.0,0.0,-1.0,-3.0
1706276945.6362967,-1.0,1.0,0.0,-1.0,-2.0,-1.0,-2.0,-2.0
1706276945.6362967,-2.0,-1.0,-2.0,-1.0,-3.0,0.0,-1.0,-1.0
1706276945.666307,-2.0,-3.0,1.0,0.0,-2.0,-1.0,-1.0,0.0
1706276945.666307,-1.0,-1.0,-2.0,0.0,-2.0,-1.0,0.0,0.0
1706276945.666307,0.0,-2.0,-1.0,-2.0,-1.0,1.0,0.0,-1.0
1706276945.666307,-3.0,0.0,-1.0,-2.0,0.0,-3.0,0.0,-1.0
1706276945.676651,1.0,0.0,-1.0,-2.0,0.0,-2.0,-1.0,-1.0
1706276945.676651,-2.0,-2.0,-1.0,0.0,0.0,-2.0,-2.0,-1.0
1706276945.676651,0.0,-1.0,-1.0,-1.0,-1.0,-1.0,-1.0,-1.0
1706276945.676651,-1.0,-1.0,-1.0,-1.0,-2.0,0.0,-1.0,-1.0
1706276945.6964433,-3.0,-2.0,-1.0,-1.0,-1.0,-1.0,-2.0,-2.0
1706276945.6964433,-1.0,-1.0,0.0,-1.0,-1.0,-2.0,-1.0,0.0
1706276945.6964433,-1.0,-2.0,-1.0,-2.0,-1.0,-1.0,-2.0,-2.0
1706276945.6964433,0.0,-2.0,0.0,-1.0,0.0,-3.0,-1.0,1.0
1706276945.7166338,0.0,1.0,0.0,0.0,-1.0,-1.0,0.0,-1.0
1706276945.7166338,1.0,0.0,0.0,0.0,-1.0,1.0,-1.0,-1.0
1706276945.7166338,-2.0,-1.0,-2.0,-2.0,-4.0,-2.0,-2.0,-2.0
1706276945.7166338,0.0,-2.0,-1.0,-1.0,0.0,0.0,-2.0,-2.0
1706276945.7264435,-1.0,-2.0,-2.0,-1.0,-2.0,0.0,-2.0,0.0
1706276945.7264435,-1.0,-2.0,-1.0,-1.0,-1.0,-2.0,-1.0,1.0
1706276945.7363372,-1.0,-1.0,0.0,1.0,-1.0,-1.0,-2.0,0.0
1706276945.7363372,-2.0,0.0,-2.0,0.0,-2.0,-1.0,-3.0,-1.0
1706276945.7563834,-2.0,0.0,-2.0,-2.0,-3.0,-1.0,0.0,-1.0
1706276945.7563834,-1.0,-2.0,0.0,-1.0,-1.0,-2.0,-1.0,-2.0
1706276945.7563834,0.0,-2.0,-2.0,-1.0,-1.0,-1.0,-1.0,-2.0
1706276945.7563834,-1.0,-2.0,-1.0,0.0,0.0,-1.0,-2.0,-2.0
1706276945.7763085,0.0,0.0,-2.0,-2.0,0.0,-2.0,-1.0,-1.0
1706276945.7763085,-2.0,-1.0,-1.0,-1.0,1.0,0.0,1.0,-2.0
1706276945.7763085,-1.0,-1.0,1.0,-1.0,0.0,-2.0,0.0,0.0
1706276945.7763085,-2.0,-2.0,-1.0,-1.0,-1.0,-1.0,1.0,-2.0
1706276945.7863433,-3.0,1.0,-1.0,-1.0,-2.0,0.0,-3.0,-1.0
1706276945.7863433,-2.0,-3.0,0.0,-1.0,-1.0,-1.0,-2.0,-1.0
1706276945.7965446,-3.0,0.0,-1.0,-1.0,1.0,0.0,-1.0,1.0
1706276945.7965446,-1.0,0.0,-1.0,-1.0,-2.0,0.0,1.0,-3.0
1706276945.8163836,1.0,-1.0,0.0,0.0,-1.0,0.0,-1.0,1.0
1706276945.8163836,-2.0,-2.0,-1.0,-1.0,-1.0,-1.0,-1.0,-3.0
1706276945.8163836,-1.0,-1.0,-1.0,-1.0,-3.0,-1.0,-1.0,-3.0
1706276945.8163836,-2.0,0.0,-2.0,0.0,-3.0,0.0,-3.0,-1.0
1706276945.846307,-1.0,0.0,-3.0,-3.0,-2.0,-2.0,-1.0,0.0
1706276945.846307,1.0,0.0,-2.0,-1.0,-2.0,-1.0,-1.0,0.0
1706276945.846307,0.0,-1.0,-1.0,-1.0,-1.0,-1.0,-1.0,-2.0
1706276945.846307,0.0,0.0,-1.0,-1.0,-1.0,-3.0,0.0,0.0
1706276945.846307,0.0,0.0,-1.0,-1.0,0.0,-2.0,-1.0,-1.0
1706276945.846307,-1.0,-1.0,-1.0,0.0,-1.0,-1.0,0.0,0.0
1706276945.8566666,-1.0,-1.0,1.0,1.0,-2.0,0.0,-3.0,0.0
1706276945.8566666,-1.0,-2.0,-1.0,0.0,0.0,0.0,0.0,1.0
1706276945.8763077,-1.0,-2.0,-1.0,-1.0,-2.0,1.0,-2.0,-3.0
1706276945.8763077,-1.0,3.0,-1.0,-2.0,-1.0,0.0,0.0,0.0
1706276945.8763077,-3.0,-6.0,-1.0,-2.0,2.0,-2.0,-2.0,-1.0
1706276945.8763077,0.0,-3.0,0.0,-2.0,-2.0,0.0,-1.0,-2.0
1706276945.896689,-1.0,-1.0,-1.0,-2.0,-1.0,0.0,0.0,0.0
1706276945.896689,4.0,3.0,-4.0,-3.0,-5.0,-4.0,-2.0,1.0
1706276945.896689,-4.0,-10.0,1.0,0.0,-1.0,-2.0,-1.0,-1.0
1706276945.896689,-3.0,-2.0,-2.0,-5.0,-3.0,-1.0,-2.0,-1.0
1706276945.9064484,-4.0,-5.0,1.0,1.0,3.0,3.0,0.0,-3.0
1706276945.9064484,-1.0,-2.0,-2.0,-2.0,-1.0,0.0,-1.0,-1.0
1706276945.9165907,1.0,2.0,-1.0,-2.0,-3.0,-1.0,-1.0,-1.0
1706276945.9165907,-2.0,-2.0,-2.0,1.0,-1.0,-2.0,-4.0,-2.0
1706276945.9363086,1.0,0.0,-2.0,0.0,-3.0,-1.0,-1.0,0.0
1706276945.9363086,-1.0,-2.0,0.0,1.0,-1.0,-2.0,-2.0,-2.0
1706276945.9363086,1.0,1.0,-3.0,0.0,3.0,1.0,0.0,1.0
1706276945.9363086,-2.0,-3.0,-1.0,1.0,1.0,-1.0,-2.0,-2.0
1706276945.9566238,0.0,0.0,-2.0,-2.0,-2.0,-2.0,-2.0,-1.0
1706276945.9566238,-1.0,-1.0,0.0,-1.0,0.0,-1.0,-1.0,0.0
1706276945.9566238,1.0,2.0,0.0,-1.0,-3.0,-1.0,1.0,0.0
1706276945.9566238,-2.0,0.0,-3.0,-3.0,-2.0,-2.0,-1.0,-2.0
1706276945.9665549,1.0,1.0,1.0,-1.0,1.0,1.0,0.0,0.0
1706276945.9665549,-3.0,-3.0,-2.0,-2.0,-2.0,-2.0,-1.0,-4.0
1706276945.9765363,-1.0,0.0,-1.0,-2.0,2.0,1.0,-2.0,-1.0
1706276945.9765363,1.0,1.0,0.0,3.0,-1.0,-1.0,0.0,1.0
1706276945.9966218,0.0,4.0,-1.0,-6.0,-5.0,-2.0,-1.0,-1.0
1706276945.9966218,-2.0,-1.0,-2.0,-17.0,-8.0,0.0,-2.0,-3.0
1706276945.9966218,-2.0,-3.0,-6.0,4.0,-1.0,-1.0,-1.0,-2.0
1706276945.9966218,-1.0,0.0,4.0,12.0,5.0,1.0,-1.0,-1.0
1706276946.036332,-2.0,-2.0,1.0,6.0,2.0,-1.0,-1.0,-1.0
1706276946.036332,-2.0,-1.0,0.0,4.0,0.0,-1.0,-2.0,-1.0
1706276946.036332,-3.0,-1.0,-5.0,-20.0,-12.0,-2.0,-1.0,0.0
1706276946.036332,2.0,4.0,-5.0,-2.0,1.0,0.0,-1.0,-1.0
1706276946.036332,-2.0,-5.0,1.0,2.0,0.0,-2.0,-1.0,0.0
1706276946.036332,-2.0,-1.0,-1.0,1.0,-1.0,-1.0,-2.0,1.0
1706276946.036332,-1.0,1.0,2.0,-1.0,2.0,-1.0,1.0,-2.0
1706276946.036332,-1.0,-1.0,-3.0,-4.0,-4.0,-2.0,0.0,-3.0
1706276946.0567973,1.0,3.0,-1.0,-4.0,-1.0,-3.0,0.0,0.0
1706276946.0567973,-2.0,-4.0,-3.0,1.0,1.0,-2.0,0.0,-2.0
1706276946.0580022,-1.0,-1.0,1.0,1.0,-2.0,-2.0,-2.0,-2.0
1706276946.0580022,3.0,4.0,2.0,-1.0,0.0,-1.0,-1.0,0.0
1706276946.079267,-5.0,-7.0,-2.0,0.0,1.0,1.0,-1.0,-1.0
1706276946.079267,-7.0,-10.0,3.0,4.0,2.0,-1.0,-2.0,-2.0
1706276946.081038,0.0,0.0,-1.0,2.0,-1.0,-2.0,-2.0,0.0
1706276946.081038,-11.0,-12.0,1.0,-2.0,-3.0,-2.0,-2.0,-5.0
1706276946.0918875,5.0,10.0,-3.0,-1.0,0.0,-2.0,0.0,-1.0
1706276946.0918875,2.0,-2.0,2.0,4.0,3.0,3.0,0.0,2.0
1706276946.1018844,7.0,17.0,-5.0,-6.0,-3.0,-4.0,-3.0,0.0
1706276946.1018844,-9.0,-19.0,3.0,1.0,4.0,3.0,0.0,1.0
1706276946.112125,1.0,9.0,0.0,-2.0,-5.0,-1.0,-1.0,0.0
1706276946.112125,-2.0,-5.0,1.0,3.0,0.0,-2.0,-2.0,-2.0
1706276946.112125,6.0,13.0,-5.0,-3.0,-1.0,0.0,2.0,2.0
1706276946.112125,19.0,31.0,-5.0,-11.0,-6.0,-1.0,2.0,6.0
1706276946.1322556,-22.0,-43.0,4.0,10.0,4.0,-2.0,-3.0,-9.0
1706276946.1322556,7.0,18.0,-3.0,-8.0,-6.0,-4.0,0.0,0.0
1706276946.1322556,-5.0,-12.0,-2.0,-5.0,1.0,3.0,0.0,-2.0
1706276946.1322556,-11.0,-13.0,-5.0,-3.0,-4.0,-5.0,-1.0,-3.0
1706276946.161904,1.0,-7.0,-18.0,-15.0,-7.0,-4.0,-2.0,-2.0
1706276946.161904,-15.0,-24.0,16.0,12.0,4.0,3.0,-1.0,-3.0
1706276946.161904,-2.0,11.0,-16.0,-19.0,-14.0,-16.0,-9.0,-5.0
1706276946.161904,-1.0,-2.0,10.0,10.0,8.0,7.0,0.0,-1.0
1706276946.172037,-4.0,0.0,8.0,5.0,1.0,-1.0,1.0,0.0
1706276946.172037,0.0,1.0,-21.0,-15.0,-8.0,-5.0,-4.0,-3.0
1706276946.172037,-3.0,-8.0,5.0,5.0,-3.0,-5.0,-3.0,-3.0
1706276946.172037,8.0,12.0,-2.0,-8.0,-5.0,-2.0,-1.0,0.0
1706276946.1922128,-3.0,-12.0,-4.0,2.0,9.0,12.0,4.0,0.0
1706276946.1922128,-16.0,-36.0,10.0,11.0,7.0,6.0,2.0,-4.0
1706276946.2018902,-4.0,-10.0,-1.0,2.0,0.0,-1.0,-2.0,-1.0
1706276946.2018902,5.0,14.0,-8.0,-8.0,-6.0,-5.0,-2.0,0.0
1706276946.2318861,3.0,2.0,3.0,3.0,1.0,-3.0,-2.0,-1.0
1706276946.2318861,-4.0,-7.0,0.0,1.0,1.0,0.0,0.0,0.0
1706276946.2418833,-2.0,-5.0,5.0,10.0,8.0,7.0,3.0,1.0
1706276946.2418833,-8.0,-12.0,-2.0,-2.0,-3.0,-4.0,-3.0,-4.0
1706276946.2418833,7.0,16.0,-2.0,-7.0,-6.0,-2.0,-2.0,3.0
1706276946.2418833,4.0,9.0,-4.0,-4.0,-3.0,-5.0,-2.0,-2.0
1706276946.2418833,-1.0,-3.0,0.0,1.0,1.0,2.0,1.0,1.0
1706276946.2418833,-2.0,-4.0,0.0,3.0,2.0,0.0,0.0,-2.0
1706276946.251953,8.0,18.0,3.0,2.0,0.0,-3.0,0.0,1.0
1706276946.251953,3.0,9.0,-4.0,-6.0,-3.0,-1.0,-1.0,1.0
1706276946.251953,-4.0,-10.0,3.0,6.0,3.0,3.0,1.0,-1.0
1706276946.251953,-2.0,-1.0,-2.0,-1.0,0.0,-1.0,0.0,-2.0
1706276946.281887,-2.0,-1.0,-1.0,-1.0,-2.0,-2.0,-1.0,-3.0
1706276946.281887,3.0,3.0,-1.0,-3.0,-3.0,-1.0,-1.0,-1.0
1706276946.281887,1.0,1.0,-1.0,-2.0,0.0,-1.0,-1.0,-1.0
1706276946.281887,-1.0,-5.0,-3.0,-5.0,-3.0,-4.0,-4.0,0.0
1706276946.3023074,-1.0,2.0,-1.0,-1.0,-5.0,-2.0,-4.0,-3.0
1706276946.3023074,1.0,9.0,-2.0,-6.0,0.0,2.0,-1.0,-1.0
1706276946.3023074,1.0,0.0,2.0,8.0,5.0,3.0,5.0,2.0
1706276946.3023074,1.0,-1.0,0.0,-5.0,-5.0,-4.0,0.0,-2.0
1706276946.3218877,-4.0,-3.0,-2.0,-5.0,-6.0,-5.0,-1.0,0.0
1706276946.3218877,1.0,6.0,-4.0,-8.0,-6.0,-4.0,-1.0,0.0
1706276946.3218877,-4.0,-3.0,-1.0,-7.0,-3.0,-3.0,-5.0,-2.0
1706276946.3218877,-8.0,-8.0,-6.0,-13.0,-10.0,-4.0,-3.0,-4.0
1706276946.3418903,6.0,8.0,8.0,30.0,18.0,12.0,6.0,6.0
1706276946.3418903,3.0,5.0,0.0,11.0,8.0,3.0,3.0,-1.0
1706276946.3418903,1.0,1.0,4.0,8.0,6.0,4.0,3.0,1.0
1706276946.3418903,2.0,-2.0,0.0,-3.0,-4.0,-3.0,-1.0,0.0
1706276946.352192,-1.0,-2.0,-4.0,-12.0,-5.0,-3.0,-1.0,-1.0
1706276946.352192,-4.0,0.0,-4.0,-12.0,-6.0,-3.0,-6.0,-3.0
1706276946.3621454,-3.0,-5.0,-4.0,-34.0,-18.0,-8.0,-3.0,-1.0
1706276946.3621454,-1.0,-6.0,-2.0,30.0,12.0,0.0,-4.0,-2.0
1706276946.3718922,-4.0,7.0,-11.0,-9.0,-4.0,-3.0,-6.0,-8.0
1706276946.3718922,1.0,6.0,9.0,13.0,5.0,2.0,-4.0,-3.0
1706276946.3718922,-1.0,11.0,0.0,9.0,5.0,4.0,4.0,-1.0
1706276946.3718922,2.0,9.0,-7.0,-28.0,-22.0,-15.0,-6.0,-3.0
1706276946.4018853,-4.0,-8.0,-4.0,-5.0,6.0,10.0,7.0,1.0
1706276946.4018853,18.0,21.0,-15.0,-17.0,-13.0,-8.0,-5.0,1.0
1706276946.4018853,2.0,15.0,0.0,2.0,-3.0,-7.0,-7.0,-4.0
1706276946.4018853,5.0,2.0,-4.0,11.0,19.0,16.0,14.0,5.0
1706276946.411918,2.0,-10.0,-7.0,-10.0,-13.0,-12.0,-4.0,0.0
1706276946.411918,-12.0,-32.0,17.0,10.0,11.0,8.0,8.0,5.0
1706276946.422265,-3.0,-15.0,-4.0,-8.0,-14.0,-8.0,-7.0,-4.0
1706276946.422265,3.0,7.0,4.0,13.0,15.0,5.0,-2.0,0.0
1706276946.441885,2.0,7.0,5.0,-1.0,0.0,-3.0,-3.0,0.0
1706276946.441885,-7.0,8.0,-8.0,-1.0,2.0,-2.0,-2.0,-5.0
1706276946.441885,-9.0,-12.0,-2.0,-1.0,-8.0,-4.0,-6.0,-7.0
1706276946.441885,-10.0,-23.0,3.0,-5.0,-8.0,-6.0,-2.0,-2.0
1706276946.4623122,-7.0,-7.0,-1.0,-4.0,-4.0,-3.0,-5.0,-5.0
1706276946.4623122,3.0,4.0,-4.0,-2.0,-3.0,1.0,6.0,4.0
1706276946.4623122,1.0,2.0,2.0,13.0,15.0,10.0,2.0,2.0
1706276946.4623122,1.0,6.0,-5.0,-8.0,-6.0,-2.0,-2.0,-1.0
1706276946.4722888,2.0,3.0,6.0,5.0,6.0,0.0,1.0,3.0
1706276946.4722888,-6.0,-4.0,-5.0,0.0,-2.0,-6.0,-4.0,-5.0
1706276946.4818854,4.0,2.0,-1.0,-4.0,-5.0,-4.0,-1.0,1.0
1706276946.4818854,-12.0,-27.0,12.0,8.0,9.0,10.0,7.0,2.0
1706276946.491886,-4.0,-5.0,1.0,0.0,-1.0,-2.0,-1.0,-2.0
1706276946.491886,-3.0,-2.0,0.0,-2.0,-4.0,-3.0,-3.0,-4.0
1706276946.491886,6.0,2.0,0.0,0.0,2.0,2.0,3.0,2.0
1706276946.491886,1.0,14.0,0.0,-2.0,-5.0,-3.0,-2.0,-2.0
1706276946.5218878,-7.0,-17.0,-5.0,-3.0,-2.0,-3.0,-2.0,-3.0
1706276946.5218878,-1.0,0.0,-3.0,-3.0,-4.0,-3.0,-4.0,-2.0
1706276946.5218878,-2.0,-2.0,0.0,1.0,1.0,2.0,1.0,0.0
1706276946.5218878,3.0,1.0,-3.0,-3.0,-5.0,-1.0,-3.0,-1.0
1706276946.5321734,2.0,6.0,0.0,-1.0,-2.0,-4.0,-2.0,0.0
1706276946.5321734,3.0,4.0,-4.0,-1.0,1.0,0.0,2.0,-1.0
1706276946.5518837,-6.0,-9.0,3.0,2.0,1.0,-1.0,-2.0,-2.0
1706276946.5518837,-1.0,4.0,-3.0,-5.0,-6.0,-3.0,-2.0,-1.0
1706276946.5518837,-2.0,-2.0,-1.0,-1.0,-3.0,-1.0,-2.0,-2.0
1706276946.5518837,-1.0,-6.0,2.0,1.0,0.0,-1.0,1.0,-2.0
1706276946.561888,0.0,0.0,-4.0,-2.0,-4.0,-2.0,-1.0,0.0
1706276946.561888,-2.0,1.0,-1.0,0.0,0.0,0.0,-2.0,-1.0
1706276946.5818865,1.0,2.0,-1.0,-2.0,-2.0,0.0,-3.0,-1.0
1706276946.5818865,4.0,2.0,-3.0,-2.0,-3.0,-1.0,-1.0,0.0
1706276946.5818865,-1.0,0.0,0.0,-1.0,0.0,0.0,-2.0,0.0
1706276946.5818865,-1.0,0.0,-3.0,-3.0,-1.0,-3.0,0.0,-3.0
1706276946.613611,-1.0,-2.0,-2.0,-1.0,-3.0,-2.0,0.0,-1.0
1706276946.613611,-2.0,0.0,-1.0,0.0,-1.0,0.0,-1.0,0.0
1706276946.613611,-3.0,-4.0,-1.0,2.0,1.0,1.0,0.0,-1.0
1706276946.6146107,0.0,0.0,-1.0,0.0,0.0,-1.0,-1.0,0.0
1706276946.626293,0.0,5.0,-1.0,-3.0,-2.0,-1.0,-1.0,-3.0
1706276946.626293,0.0,-1.0,-1.0,-2.0,0.0,0.0,-1.0,0.0
1706276946.626293,-1.0,1.0,-1.0,-1.0,3.0,-2.0,-1.0,0.0
1706276946.626293,0.0,2.0,0.0,-1.0,-2.0,-1.0,-1.0,-2.0
1706276946.6362534,-1.0,0.0,-1.0,-2.0,-2.0,-1.0,0.0,0.0
1706276946.6362534,2.0,1.0,-3.0,-1.0,0.0,1.0,-2.0,0.0
1706276946.6362534,-1.0,-1.0,0.0,0.0,-1.0,0.0,0.0,-2.0
1706276946.6362534,-2.0,-1.0,-2.0,-1.0,-3.0,-3.0,-2.0,0.0
1706276946.6462667,-1.0,-1.0,1.0,0.0,1.0,-1.0,-2.0,-1.0
1706276946.6462667,-2.0,-2.0,1.0,-1.0,-2.0,-2.0,-2.0,-1.0
1706276946.666264,-1.0,0.0,-1.0,0.0,1.0,-1.0,-2.0,-1.0
1706276946.666264,-3.0,-1.0,0.0,0.0,0.0,0.0,-1.0,-1.0
1706276946.6765354,-1.0,0.0,-2.0,1.0,1.0,1.0,0.0,-1.0
1706276946.6765354,0.0,0.0,-1.0,0.0,-2.0,-2.0,-1.0,0.0
1706276946.6765354,0.0,0.0,-1.0,-1.0,-1.0,-1.0,-2.0,0.0
1706276946.6765354,0.0,0.0,-1.0,-2.0,-2.0,-3.0,-1.0,0.0
1706276946.6965666,-1.0,0.0,-1.0,-1.0,-2.0,-2.0,-1.0,-2.0
1706276946.6965666,-2.0,-1.0,-1.0,0.0,-1.0,-1.0,-1.0,1.0
1706276946.6965666,-1.0,-2.0,0.0,-1.0,-1.0,0.0,-1.0,-1.0
1706276946.6965666,0.0,-1.0,-1.0,-1.0,-2.0,-1.0,0.0,0.0
1706276946.716263,1.0,-1.0,-1.0,-2.0,-4.0,-3.0,-1.0,-3.0
1706276946.716263,1.0,-2.0,-1.0,-2.0,-2.0,-3.0,1.0,0.0
1706276946.716263,-1.0,-1.0,0.0,1.0,0.0,-1.0,0.0,0.0
1706276946.716263,-2.0,-3.0,-2.0,-1.0,-1.0,1.0,-2.0,-2.0
1706276946.7367141,0.0,-3.0,0.0,-2.0,0.0,0.0,-2.0,-1.0
1706276946.7367141,-1.0,0.0,0.0,-1.0,0.0,-1.0,0.0,-1.0
1706276946.7367141,0.0,-2.0,0.0,0.0,-1.0,-2.0,-1.0,-1.0
1706276946.7367141,0.0,1.0,-2.0,-2.0,1.0,-3.0,0.0,-1.0
1706276946.7567012,0.0,0.0,-1.0,-1.0,-1.0,-2.0,-5.0,0.0
1706276946.7567012,-2.0,-2.0,-2.0,-1.0,1.0,-1.0,-3.0,0.0
1706276946.7567012,0.0,-1.0,-2.0,-2.0,-1.0,0.0,0.0,-1.0
1706276946.7567012,-1.0,0.0,0.0,-2.0,-2.0,-1.0,1.0,1.0
1706276946.766594,-1.0,0.0,-1.0,-2.0,-4.0,-1.0,-2.0,-2.0
1706276946.766594,-2.0,-1.0,-2.0,-2.0,-1.0,-1.0,-2.0,-1.0
1706276946.7862651,-1.0,-1.0,0.0,-2.0,0.0,0.0,-4.0,0.0
1706276946.7862651,-2.0,-1.0,-1.0,-1.0,-1.0,-1.0,-3.0,-2.0
1706276946.7962978,0.0,0.0,-1.0,-1.0,0.0,-1.0,0.0,0.0
1706276946.7962978,-2.0,-2.0,-2.0,0.0,-1.0,-1.0,-1.0,-1.0
1706276946.7962978,-2.0,-1.0,-2.0,-1.0,-1.0,-1.0,-2.0,-2.0
1706276946.7962978,1.0,0.0,-2.0,0.0,-1.0,-1.0,-3.0,0.0
1706276946.836263,-3.0,0.0,-1.0,-1.0,0.0,-2.0,0.0,-1.0
1706276946.836263,-2.0,0.0,-1.0,0.0,-2.0,-1.0,-1.0,-2.0
1706276946.836263,0.0,-1.0,-1.0,0.0,-1.0,-2.0,1.0,0.0
1706276946.836263,-2.0,0.0,-1.0,0.0,0.0,0.0,0.0,-1.0
1706276946.836263,0.0,1.0,1.0,-1.0,0.0,-1.0,-1.0,1.0
1706276946.836263,0.0,-1.0,0.0,-2.0,0.0,-1.0,0.0,-1.0
1706276946.836263,0.0,-1.0,-1.0,-2.0,-1.0,0.0,2.0,-1.0
1706276946.836263,-1.0,-3.0,-1.0,-2.0,0.0,0.0,-1.0,1.0
1706276946.8562763,0.0,-3.0,0.0,-2.0,-1.0,0.0,0.0,-2.0
1706276946.8562763,-1.0,0.0,-2.0,-1.0,0.0,-1.0,-1.0,-2.0
1706276946.8562763,-2.0,-1.0,-2.0,-3.0,-2.0,0.0,-2.0,-2.0
1706276946.8562763,0.0,-1.0,-1.0,-1.0,-1.0,0.0,-2.0,-1.0
1706276946.876601,-2.0,-1.0,-1.0,0.0,-1.0,-2.0,-1.0,1.0
1706276946.876601,-1.0,0.0,0.0,-1.0,-1.0,-1.0,-2.0,0.0
1706276946.876601,-3.0,-2.0,-1.0,1.0,0.0,-1.0,0.0,-1.0
1706276946.876601,-3.0,-1.0,-3.0,-2.0,-1.0,-1.0,-1.0,-1.0
1706276946.8865159,0.0,-2.0,-2.0,-1.0,-2.0,-1.0,-3.0,0.0
1706276946.8962748,0.0,0.0,-1.0,-2.0,-1.0,-2.0,-1.0,-3.0
1706276946.9262633,-1.0,-1.0,-1.0,-1.0,-1.0,-1.0,1.0,-1.0
1706276946.9262633,0.0,-2.0,0.0,0.0,-2.0,-1.0,0.0,0.0
1706276946.9262633,-4.0,-1.0,-1.0,-1.0,1.0,-1.0,-1.0,-1.0
1706276946.9262633,-1.0,-1.0,1.0,-1.0,-2.0,-1.0,-1.0,0.0
1706276946.9262633,2.0,-1.0,-2.0,-3.0,-1.0,-1.0,-2.0,-1.0
1706276946.9262633,0.0,0.0,0.0,-3.0,-1.0,-1.0,-2.0,-2.0
1706276946.9362624,0.0,0.0,-2.0,-1.0,-3.0,-1.0,-2.0,-1.0
1706276946.9362624,-2.0,1.0,0.0,0.0,-2.0,0.0,-1.0,-1.0
1706276946.9362624,-3.0,-1.0,0.0,-1.0,-1.0,-2.0,-1.0,-1.0
1706276946.9362624,0.0,-2.0,-1.0,-1.0,-1.0,-1.0,-1.0,-1.0
1706276946.9466422,-2.0,0.0,0.0,-1.0,0.0,-2.0,1.0,-1.0
1706276946.9466422,-1.0,-1.0,-2.0,0.0,-2.0,0.0,0.0,-1.0
1706276946.9562743,1.0,-2.0,-1.0,-1.0,-2.0,-1.0,-2.0,-2.0
1706276946.9562743,-1.0,-1.0,-1.0,-1.0,-1.0,-1.0,-1.0,0.0
1706276946.9767022,-1.0,-2.0,-1.0,-2.0,-1.0,-2.0,0.0,1.0
1706276946.9767022,0.0,0.0,-2.0,-1.0,0.0,-1.0,-1.0,-1.0
1706276946.9767022,-2.0,-2.0,-1.0,0.0,-1.0,-2.0,0.0,-1.0
1706276946.9767022,-1.0,-2.0,-2.0,0.0,-1.0,0.0,-2.0,-2.0
1706276946.9962645,1.0,0.0,-2.0,0.0,-2.0,-1.0,0.0,-1.0
1706276946.9962645,-2.0,0.0,0.0,-1.0,-1.0,1.0,0.0,-1.0
1706276946.9962645,0.0,0.0,-2.0,-2.0,-1.0,0.0,0.0,-2.0
1706276946.9962645,-2.0,-1.0,-1.0,-1.0,0.0,0.0,0.0,0.0
1706276947.0162702,-1.0,0.0,-2.0,-1.0,-1.0,0.0,0.0,-2.0
1706276947.0162702,-1.0,-1.0,-1.0,-2.0,-1.0,-2.0,0.0,-3.0
1706276947.0162702,-2.0,0.0,-1.0,-1.0,0.0,-2.0,-2.0,-1.0
1706276947.0162702,0.0,-1.0,-1.0,-2.0,-2.0,-1.0,-1.0,-1.0
1706276947.036586,-1.0,1.0,-2.0,0.0,-1.0,0.0,1.0,-2.0
1706276947.036586,-1.0,-1.0,-2.0,-2.0,0.0,0.0,0.0,0.0
1706276947.036586,-1.0,0.0,0.0,-1.0,-2.0,0.0,-2.0,-1.0
1706276947.036586,0.0,-2.0,-2.0,-2.0,-1.0,-1.0,-2.0,0.0
1706276947.0762622,0.0,-1.0,-1.0,-1.0,0.0,-1.0,0.0,0.0
1706276947.0762622,0.0,-2.0,-1.0,-1.0,-3.0,-2.0,-1.0,0.0
1706276947.0762622,-2.0,-1.0,0.0,0.0,0.0,-1.0,0.0,0.0
1706276947.0762622,-1.0,-1.0,0.0,-1.0,-1.0,0.0,0.0,0.0
1706276947.0762622,-2.0,-2.0,0.0,0.0,0.0,0.0,-1.0,-3.0
1706276947.0762622,-2.0,-2.0,-1.0,-1.0,0.0,0.0,-1.0,0.0
1706276947.086268,0.0,0.0,-2.0,-1.0,0.0,-2.0,-3.0,1.0
1706276947.086268,-1.0,-1.0,-1.0,0.0,-1.0,-2.0,-1.0,-1.0
1706276947.096603,-1.0,-2.0,-1.0,-1.0,-1.0,-2.0,-2.0,-2.0
1706276947.096603,0.0,0.0,-3.0,0.0,0.0,-1.0,0.0,-1.0
1706276947.096603,-1.0,-1.0,-1.0,-2.0,-2.0,-1.0,0.0,0.0
1706276947.096603,-1.0,0.0,0.0,-1.0,-1.0,0.0,-1.0,-1.0
1706276947.1303866,0.0,-2.0,-1.0,-1.0,-1.0,-1.0,-2.0,0.0
1706276947.1303866,0.0,0.0,-1.0,0.0,0.0,0.0,-1.0,0.0
1706276947.1303866,-2.0,-2.0,-1.0,-1.0,-1.0,-1.0,0.0,-3.0
1706276947.1303866,-3.0,0.0,-1.0,-1.0,0.0,-2.0,0.0,-2.0
1706276947.1353881,-1.0,-1.0,-1.0,-2.0,-3.0,0.0,-1.0,-2.0
1706276947.1353881,1.0,-1.0,-2.0,-3.0,0.0,-2.0,-2.0,-1.0
1706276947.1436965,-1.0,0.0,-1.0,-2.0,0.0,-1.0,0.0,-1.0
1706276947.1436965,0.0,-2.0,-2.0,-1.0,-2.0,0.0,1.0,0.0
1706276947.1576085,-1.0,-2.0,-2.0,-2.0,-2.0,0.0,-2.0,-1.0
1706276947.1576085,-2.0,-2.0,-1.0,-1.0,0.0,1.0,-2.0,-1.0
1706276947.1576085,0.0,0.0,-1.0,-1.0,-1.0,0.0,0.0,-1.0
1706276947.1576085,-1.0,-1.0,-1.0,-2.0,-1.0,-2.0,-1.0,0.0
1706276947.1778386,-1.0,-1.0,-1.0,1.0,-1.0,0.0,0.0,0.0
1706276947.1778386,-2.0,-1.0,-2.0,-1.0,-2.0,-2.0,-2.0,-1.0
1706276947.1778386,0.0,0.0,-1.0,-1.0,-2.0,1.0,-2.0,0.0
1706276947.1778386,-1.0,0.0,-1.0,-1.0,0.0,1.0,-1.0,0.0
1706276947.187819,0.0,0.0,2.0,-2.0,0.0,-1.0,-1.0,-1.0
1706276947.187819,0.0,0.0,0.0,-2.0,-2.0,-3.0,-1.0,-1.0
1706276947.2076097,-2.0,-2.0,-1.0,0.0,-2.0,-1.0,0.0,0.0
1706276947.2076097,-1.0,-3.0,-2.0,-1.0,-3.0,-2.0,-2.0,-2.0
1706276947.2276065,0.0,-1.0,-2.0,-1.0,-1.0,-2.0,-1.0,-2.0
1706276947.2276065,-2.0,-2.0,-1.0,1.0,-2.0,-1.0,0.0,-1.0
1706276947.2276065,1.0,-3.0,-1.0,1.0,-1.0,1.0,-3.0,-1.0
1706276947.2276065,-2.0,0.0,0.0,-1.0,-2.0,0.0,0.0,-2.0
1706276947.2376394,-2.0,-1.0,-2.0,0.0,-2.0,-1.0,-1.0,0.0
1706276947.2376394,-1.0,-1.0,-2.0,-1.0,-1.0,-1.0,-1.0,-2.0
1706276947.2376394,-2.0,0.0,-2.0,-2.0,-2.0,-1.0,1.0,-2.0
1706276947.2376394,0.0,0.0,-1.0,-2.0,-1.0,-1.0,-2.0,-2.0
1706276947.2579129,-2.0,-1.0,0.0,-2.0,-1.0,-2.0,-1.0,0.0
1706276947.2579129,0.0,-1.0,0.0,-2.0,-1.0,-1.0,-2.0,0.0
1706276947.2579129,-1.0,-1.0,0.0,0.0,-1.0,-1.0,0.0,-1.0
1706276947.2579129,0.0,-1.0,0.0,-1.0,1.0,-1.0,-1.0,0.0
1706276947.2976072,-2.0,2.0,0.0,-3.0,0.0,-1.0,-1.0,-1.0
1706276947.2976072,-2.0,1.0,-2.0,-2.0,-1.0,-1.0,1.0,-2.0
1706276947.2976072,-1.0,-1.0,0.0,-1.0,-1.0,0.0,-2.0,0.0
1706276947.2976072,-1.0,-2.0,-1.0,0.0,1.0,0.0,-2.0,0.0
1706276947.2976072,-1.0,-2.0,0.0,1.0,-2.0,-1.0,-1.0,1.0
1706276947.2976072,-2.0,-1.0,0.0,0.0,0.0,-1.0,-1.0,-2.0
1706276947.2976072,-1.0,1.0,-1.0,0.0,-1.0,-2.0,-2.0,0.0
1706276947.2976072,0.0,-1.0,-1.0,-2.0,-2.0,-2.0,1.0,-1.0
1706276947.3179998,-1.0,-2.0,-1.0,0.0,0.0,-1.0,-1.0,-2.0
1706276947.3179998,0.0,-2.0,-2.0,-1.0,-2.0,0.0,0.0,1.0
1706276947.3179998,-1.0,-2.0,-1.0,-1.0,-1.0,-1.0,-1.0,-1.0
1706276947.3179998,0.0,0.0,1.0,-1.0,0.0,-1.0,-2.0,-1.0
1706276947.3376064,-1.0,-1.0,-1.0,-1.0,-2.0,-2.0,-1.0,0.0
1706276947.3376064,0.0,0.0,-1.0,0.0,0.0,-2.0,-3.0,-2.0
1706276947.347605,-1.0,-1.0,0.0,-1.0,-1.0,-2.0,0.0,-1.0
1706276947.347605,0.0,0.0,-2.0,0.0,0.0,-1.0,-1.0,-1.0
1706276947.3579795,-3.0,-2.0,-3.0,0.0,0.0,-1.0,-1.0,-3.0
1706276947.3579795,0.0,-2.0,-2.0,-2.0,0.0,-1.0,0.0,-1.0
1706276947.3579795,-1.0,1.0,-1.0,-1.0,-3.0,-1.0,-2.0,0.0
1706276947.3579795,0.0,-1.0,-1.0,-1.0,0.0,-2.0,0.0,-1.0
1706276947.3778775,-1.0,-1.0,-1.0,-1.0,-2.0,-1.0,-2.0,0.0
1706276947.3778775,-1.0,-1.0,-2.0,0.0,-2.0,-1.0,-3.0,-1.0
1706276947.3778775,-1.0,-1.0,-1.0,-2.0,0.0,-1.0,0.0,-3.0
1706276947.3778775,-2.0,-1.0,-1.0,-1.0,-1.0,-1.0,0.0,-1.0
1706276947.3976064,0.0,0.0,-1.0,-3.0,-2.0,-2.0,0.0,-2.0
1706276947.3976064,0.0,-1.0,1.0,-1.0,-1.0,-1.0,0.0,-1.0
1706276947.4076052,0.0,-2.0,-1.0,-2.0,1.0,-1.0,-2.0,-3.0
1706276947.4076052,-1.0,-2.0,-1.0,-1.0,-2.0,-2.0,0.0,-2.0
1706276947.4179444,1.0,1.0,-1.0,-2.0,-3.0,-2.0,-2.0,0.0
1706276947.4179444,-1.0,-2.0,-1.0,-1.0,-2.0,1.0,-1.0,-1.0
1706276947.4179444,-2.0,-1.0,-2.0,0.0,-1.0,0.0,-1.0,-1.0
1706276947.4179444,-1.0,-2.0,0.0,-1.0,0.0,-1.0,-1.0,-1.0
1706276947.4476063,-1.0,-1.0,-1.0,-2.0,0.0,-2.0,-1.0,-1.0
1706276947.4476063,-2.0,-1.0,-1.0,-2.0,-1.0,-1.0,0.0,-2.0
1706276947.4476063,0.0,-3.0,-1.0,-2.0,0.0,0.0,-1.0,-1.0
1706276947.4476063,-2.0,2.0,1.0,-1.0,-1.0,-1.0,-1.0,-1.0
1706276947.457798,-1.0,-1.0,-1.0,-1.0,0.0,0.0,-2.0,0.0
1706276947.457798,-1.0,0.0,-1.0,0.0,-1.0,-1.0,-1.0,-1.0
1706276947.457798,-1.0,-2.0,-1.0,-1.0,-1.0,-1.0,-1.0,-2.0
1706276947.457798,-1.0,-1.0,-2.0,-1.0,-1.0,-1.0,-2.0,-1.0
1706276947.477863,-1.0,-1.0,-2.0,1.0,-1.0,-1.0,0.0,-2.0
1706276947.477863,0.0,-1.0,0.0,-1.0,-1.0,-1.0,-1.0,-1.0
1706276947.477863,-2.0,0.0,-2.0,0.0,-2.0,0.0,0.0,0.0
1706276947.477863,-1.0,-2.0,-2.0,-1.0,0.0,-1.0,-2.0,-2.0
1706276947.5076091,1.0,-1.0,-1.0,-2.0,-1.0,-1.0,-1.0,-1.0
1706276947.5076091,-2.0,-1.0,-1.0,-3.0,0.0,-1.0,0.0,-1.0
1706276947.5076091,-2.0,0.0,0.0,0.0,0.0,-2.0,0.0,1.0
1706276947.5076091,-1.0,-2.0,0.0,-1.0,-1.0,-1.0,-2.0,-1.0
1706276947.5178366,0.0,-2.0,-2.0,-2.0,1.0,-1.0,-2.0,-3.0
1706276947.5178366,-1.0,1.0,-3.0,0.0,0.0,0.0,-3.0,-2.0
1706276947.5178366,1.0,0.0,-1.0,-1.0,0.0,-1.0,-2.0,0.0
1706276947.5178366,-2.0,0.0,-2.0,-2.0,-3.0,0.0,1.0,-1.0
1706276947.537964,1.0,-1.0,-1.0,-2.0,-3.0,-1.0,0.0,-1.0
1706276947.537964,-1.0,-3.0,-1.0,0.0,-1.0,-2.0,-1.0,0.0
1706276947.537964,-1.0,0.0,1.0,-2.0,-1.0,-1.0,1.0,-1.0
1706276947.537964,-2.0,-1.0,0.0,0.0,0.0,0.0,-1.0,-1.0
1706276947.5576391,0.0,0.0,0.0,0.0,1.0,-1.0,0.0,-1.0
1706276947.5576391,-1.0,-1.0,-2.0,-2.0,0.0,0.0,-1.0,0.0
1706276947.5576391,-2.0,0.0,-1.0,-2.0,-2.0,-1.0,-1.0,-1.0
1706276947.5576391,-1.0,0.0,0.0,0.0,0.0,-1.0,-1.0,-1.0
1706276947.577607,-3.0,-1.0,0.0,-1.0,-1.0,1.0,-1.0,0.0
1706276947.577607,-2.0,-1.0,0.0,-2.0,-2.0,-1.0,-2.0,-3.0
1706276947.577607,-1.0,-2.0,-2.0,-2.0,-1.0,-1.0,-1.0,-2.0
