1706277442.3065486,18.0,3.0,-1.0,1.0,-9.0,3.0,2.0,7.0
1706277442.3065486,27.0,24.0,-10.0,-19.0,-5.0,-5.0,-1.0,3.0
1706277442.3065486,-11.0,-7.0,23.0,53.0,19.0,1.0,-1.0,-6.0
1706277442.3065486,-5.0,-8.0,-3.0,-8.0,2.0,8.0,1.0,1.0
1706277442.326313,-10.0,-6.0,7.0,-17.0,-9.0,-8.0,-4.0,-8.0
1706277442.326313,-9.0,-8.0,-30.0,-11.0,-1.0,3.0,1.0,2.0
1706277442.326313,2.0,-2.0,-18.0,-18.0,-11.0,-7.0,-3.0,-3.0
1706277442.326313,3.0,12.0,13.0,16.0,7.0,0.0,-1.0,8.0
1706277442.3463137,1.0,17.0,-7.0,-17.0,-5.0,1.0,3.0,3.0
1706277442.3463137,-4.0,-8.0,10.0,11.0,-3.0,-2.0,-1.0,3.0
1706277442.3463137,18.0,-5.0,-7.0,-8.0,0.0,0.0,-5.0,-2.0
1706277442.3463137,-9.0,12.0,-6.0,6.0,1.0,6.0,4.0,2.0
1706277442.3663619,-1.0,-23.0,-3.0,-3.0,-3.0,-10.0,-8.0,-5.0
1706277442.3663619,-6.0,7.0,6.0,15.0,6.0,2.0,1.0,-2.0
1706277442.3663619,4.0,7.0,-14.0,-7.0,-8.0,-12.0,0.0,1.0
1706277442.3663619,-12.0,-14.0,10.0,-11.0,-1.0,-2.0,-3.0,-10.0
1706277442.3863125,-1.0,-5.0,7.0,17.0,9.0,15.0,6.0,1.0
1706277442.3863125,-5.0,-1.0,-8.0,-23.0,-9.0,-7.0,-5.0,-6.0
1706277442.3863125,6.0,2.0,-2.0,-8.0,-10.0,-7.0,-8.0,1.0
1706277442.3863125,8.0,-8.0,2.0,-1.0,-2.0,-2.0,0.0,-4.0
1706277442.407361,-26.0,-2.0,-7.0,6.0,1.0,1.0,-3.0,-6.0
1706277442.407361,-2.0,-25.0,26.0,12.0,2.0,2.0,1.0,0.0
1706277442.4093568,-10.0,6.0,-10.0,-2.0,1.0,1.0,-1.0,-3.0
1706277442.4093568,5.0,9.0,-1.0,1.0,-5.0,-11.0,-4.0,0.0
1706277442.4495025,5.0,7.0,8.0,-7.0,5.0,6.0,1.0,0.0
1706277442.4495025,-13.0,-4.0,1.0,8.0,7.0,7.0,1.0,-4.0
1706277442.4495025,21.0,-14.0,0.0,-19.0,-14.0,-11.0,-3.0,5.0
1706277442.4495025,-42.0,-23.0,0.0,9.0,5.0,4.0,2.0,-8.0
1706277442.4495025,22.0,23.0,1.0,15.0,14.0,0.0,-8.0,-2.0
1706277442.4495025,-2.0,-15.0,0.0,2.0,1.0,4.0,3.0,2.0
1706277442.4495025,-19.0,-2.0,-3.0,-10.0,-9.0,-3.0,-3.0,-2.0
1706277442.4495025,11.0,1.0,-8.0,-3.0,1.0,-1.0,6.0,3.0
1706277442.4595315,-8.0,5.0,-9.0,-19.0,-9.0,-5.0,0.0,2.0
1706277442.4595315,6.0,18.0,5.0,5.0,1.0,1.0,-1.0,-2.0
1706277442.4595315,3.0,0.0,11.0,2.0,-1.0,-1.0,-3.0,-6.0
1706277442.4595315,0.0,3.0,-2.0,-15.0,-8.0,-6.0,-7.0,-2.0
1706277442.4894986,-24.0,-27.0,-10.0,-1.0,1.0,2.0,-2.0,-8.0
1706277442.4894986,17.0,7.0,-11.0,4.0,-5.0,1.0,6.0,19.0
1706277442.4894986,3.0,-1.0,0.0,-12.0,-3.0,-1.0,8.0,5.0
1706277442.4894986,7.0,11.0,9.0,11.0,8.0,7.0,2.0,3.0
1706277442.4995322,4.0,-13.0,-15.0,-10.0,-3.0,-2.0,2.0,5.0
1706277442.4995322,-17.0,-23.0,-22.0,-14.0,-13.0,-10.0,-14.0,-16.0
1706277442.5097191,-8.0,-8.0,4.0,7.0,5.0,-1.0,1.0,-1.0
1706277442.5097191,8.0,8.0,7.0,2.0,-6.0,-3.0,-2.0,2.0
1706277442.5197775,16.0,1.0,-4.0,-8.0,-4.0,-10.0,-6.0,2.0
1706277442.5197775,-5.0,-5.0,0.0,10.0,9.0,8.0,6.0,3.0
1706277442.5197775,-11.0,3.0,11.0,2.0,-2.0,-3.0,-4.0,-4.0
1706277442.5197775,12.0,-3.0,-7.0,-22.0,0.0,5.0,-3.0,-6.0
1706277442.5694985,8.0,18.0,-3.0,2.0,-11.0,-7.0,-1.0,2.0
1706277442.5694985,-5.0,-4.0,12.0,-1.0,4.0,-4.0,-2.0,-1.0
1706277442.5694985,-14.0,-5.0,-16.0,4.0,0.0,3.0,0.0,-5.0
1706277442.5694985,-9.0,-13.0,17.0,24.0,7.0,10.0,3.0,0.0
1706277442.5694985,-4.0,-13.0,-9.0,-16.0,-6.0,-9.0,0.0,-1.0
1706277442.5694985,3.0,13.0,5.0,-5.0,-3.0,-4.0,-4.0,-5.0
1706277442.5694985,15.0,11.0,-11.0,-9.0,-5.0,-5.0,-2.0,3.0
1706277442.5694985,-11.0,17.0,13.0,4.0,1.0,3.0,2.0,0.0
1706277442.5795352,15.0,-14.0,-3.0,-9.0,-7.0,-7.0,-9.0,-6.0
1706277442.5795352,-18.0,-4.0,-8.0,17.0,7.0,0.0,-3.0,-10.0
1706277442.5795352,-10.0,-2.0,0.0,-13.0,-12.0,-13.0,-6.0,-8.0
1706277442.5795352,18.0,14.0,-1.0,18.0,14.0,7.0,1.0,6.0
1706277442.6195004,-22.0,-4.0,-1.0,-6.0,1.0,12.0,6.0,-2.0
1706277442.6195004,20.0,11.0,2.0,-4.0,-10.0,-6.0,1.0,3.0
1706277442.6195004,-16.0,-30.0,-7.0,-7.0,4.0,3.0,1.0,-2.0
1706277442.6195004,5.0,9.0,-6.0,5.0,-9.0,-12.0,-4.0,-1.0
1706277442.6195004,1.0,29.0,4.0,7.0,7.0,0.0,3.0,5.0
1706277442.6294975,3.0,-2.0,20.0,-12.0,-7.0,-3.0,-2.0,-7.0
1706277442.6294975,-11.0,-1.0,-18.0,7.0,-2.0,-5.0,-2.0,2.0
1706277442.6294975,7.0,-21.0,-14.0,-4.0,-11.0,-8.0,-5.0,-5.0
1706277442.6398504,-1.0,2.0,6.0,6.0,6.0,3.0,1.0,1.0
1706277442.6398504,6.0,10.0,-6.0,3.0,0.0,-4.0,-3.0,2.0
1706277442.6398504,11.0,14.0,1.0,-11.0,-6.0,-1.0,-3.0,0.0
1706277442.6398504,-9.0,4.0,-7.0,-3.0,9.0,0.0,-3.0,-5.0
1706277442.6695054,-2.0,-17.0,16.0,11.0,1.0,-1.0,-3.0,1.0
1706277442.6695054,-4.0,-14.0,-8.0,-3.0,-2.0,-7.0,-3.0,-2.0
1706277442.6695054,-5.0,0.0,4.0,0.0,-4.0,-2.0,-5.0,-9.0
1706277442.6695054,-9.0,-8.0,9.0,1.0,-4.0,-4.0,0.0,5.0
1706277442.6797655,9.0,16.0,4.0,-4.0,4.0,6.0,3.0,1.0
1706277442.6797655,12.0,23.0,2.0,7.0,5.0,3.0,4.0,6.0
1706277442.6896863,-4.0,-5.0,10.0,3.0,9.0,3.0,-1.0,-3.0
1706277442.6896863,-7.0,-4.0,-4.0,-1.0,-1.0,0.0,3.0,0.0
1706277442.699503,1.0,3.0,15.0,-2.0,-9.0,-7.0,-6.0,1.0
1706277442.699503,-16.0,-26.0,-25.0,10.0,9.0,11.0,10.0,6.0
1706277442.699503,17.0,18.0,10.0,-6.0,-1.0,-2.0,-2.0,-1.0
1706277442.699503,-19.0,-1.0,-11.0,-17.0,-15.0,-27.0,-18.0,-13.0
1706277442.7294993,27.0,9.0,10.0,13.0,18.0,36.0,18.0,16.0
1706277442.7294993,-15.0,-6.0,-37.0,-16.0,-8.0,-10.0,-13.0,-16.0
1706277442.7294993,3.0,-5.0,4.0,14.0,5.0,-12.0,-3.0,1.0
1706277442.7294993,4.0,4.0,-2.0,3.0,13.0,28.0,11.0,0.0
1706277442.7395346,-33.0,5.0,0.0,-4.0,-1.0,0.0,-2.0,2.0
1706277442.7395346,39.0,-14.0,5.0,-4.0,-1.0,3.0,6.0,8.0
1706277442.749864,5.0,5.0,0.0,-1.0,-4.0,-3.0,-4.0,0.0
1706277442.749864,-4.0,-5.0,-10.0,-11.0,-8.0,-16.0,-12.0,-14.0
1706277442.759674,17.0,-13.0,-2.0,9.0,8.0,9.0,5.0,4.0
1706277442.759674,-5.0,3.0,31.0,14.0,6.0,23.0,9.0,5.0
1706277442.759674,27.0,18.0,-13.0,-14.0,-3.0,-4.0,-1.0,15.0
1706277442.759674,-20.0,-31.0,-9.0,-4.0,-2.0,0.0,0.0,-6.0
1706277442.789546,10.0,10.0,-23.0,-14.0,-13.0,-10.0,-7.0,-12.0
1706277442.789546,-7.0,11.0,9.0,-8.0,-11.0,-16.0,-8.0,1.0
1706277442.789546,-15.0,-32.0,11.0,4.0,7.0,17.0,8.0,2.0
1706277442.789546,4.0,11.0,4.0,-10.0,-18.0,-8.0,-2.0,-3.0
1706277442.7998705,0.0,2.0,6.0,43.0,22.0,-7.0,-5.0,0.0
1706277442.7998705,-3.0,5.0,-12.0,-59.0,-23.0,-16.0,-12.0,-13.0
1706277442.8098135,-11.0,-33.0,-17.0,15.0,13.0,9.0,5.0,1.0
1706277442.8098135,17.0,58.0,13.0,74.0,26.0,2.0,0.0,3.0
1706277442.8198261,-20.0,-6.0,18.0,-16.0,-10.0,-7.0,-2.0,-10.0
1706277442.8198261,1.0,-14.0,-40.0,-13.0,11.0,6.0,4.0,5.0
1706277442.8198261,-14.0,6.0,30.0,-50.0,-22.0,-5.0,-9.0,-13.0
1706277442.8198261,0.0,-21.0,-21.0,60.0,23.0,19.0,10.0,9.0
1706277442.8495045,18.0,20.0,-31.0,19.0,-9.0,-8.0,-1.0,3.0
1706277442.8495045,7.0,31.0,30.0,-34.0,-11.0,-7.0,-4.0,-3.0
1706277442.8495045,-1.0,-9.0,21.0,-19.0,-4.0,-4.0,-7.0,-8.0
1706277442.8495045,-18.0,-39.0,-19.0,-31.0,-11.0,-1.0,-2.0,-7.0
1706277442.859503,-14.0,-4.0,5.0,11.0,3.0,-1.0,2.0,0.0
1706277442.859503,-2.0,4.0,8.0,6.0,-8.0,-8.0,-8.0,-7.0
1706277442.8697305,6.0,-1.0,-14.0,8.0,-4.0,-4.0,2.0,4.0
1706277442.8697305,-8.0,2.0,0.0,-17.0,-14.0,-12.0,-8.0,-2.0
1706277442.912656,9.0,7.0,-13.0,-61.0,-11.0,0.0,1.0,-7.0
1706277442.912656,-14.0,-23.0,16.0,48.0,6.0,-17.0,-13.0,-5.0
1706277442.912656,4.0,24.0,7.0,17.0,21.0,35.0,21.0,-5.0
1706277442.912656,6.0,3.0,-9.0,-18.0,-3.0,-1.0,-3.0,10.0
1706277442.912656,18.0,-18.0,-21.0,-9.0,-7.0,-2.0,6.0,19.0
1706277442.912656,-13.0,-19.0,6.0,25.0,4.0,-7.0,-8.0,-13.0
1706277442.912656,-29.0,19.0,-8.0,-3.0,-7.0,-14.0,-7.0,-7.0
1706277442.912656,22.0,-18.0,-14.0,-26.0,-14.0,1.0,2.0,0.0
1706277442.921841,-18.0,-16.0,15.0,13.0,17.0,22.0,12.0,-3.0
1706277442.921841,-3.0,7.0,-2.0,-5.0,-10.0,-27.0,-7.0,-5.0
1706277442.9308407,-15.0,-10.0,-16.0,15.0,4.0,4.0,-4.0,-10.0
1706277442.9308407,12.0,5.0,7.0,-16.0,-1.0,-2.0,6.0,10.0
1706277442.9475167,5.0,10.0,16.0,1.0,-11.0,-17.0,-15.0,-5.0
1706277442.9475167,2.0,-20.0,0.0,4.0,3.0,11.0,9.0,10.0
1706277442.9475167,-9.0,-6.0,-18.0,-3.0,-4.0,-10.0,-7.0,-7.0
1706277442.9475167,-11.0,-1.0,9.0,-7.0,-4.0,-3.0,-5.0,-1.0
1706277442.968549,-1.0,-5.0,-4.0,-5.0,-8.0,-10.0,-7.0,-10.0
1706277442.968549,5.0,5.0,17.0,8.0,9.0,18.0,6.0,6.0
1706277442.9705207,-3.0,-13.0,-9.0,-3.0,-15.0,-9.0,-7.0,-6.0
1706277442.9705207,0.0,3.0,5.0,-9.0,-2.0,1.0,2.0,-3.0
1706277442.9825528,5.0,-7.0,-24.0,-25.0,-9.0,2.0,0.0,-1.0
1706277442.9825528,-20.0,1.0,5.0,-32.0,-12.0,5.0,3.0,0.0
1706277442.9905195,-3.0,-5.0,-2.0,53.0,27.0,9.0,6.0,7.0
1706277442.9915538,14.0,11.0,8.0,2.0,-4.0,-8.0,-6.0,-7.0
1706277443.0056298,6.0,-4.0,-13.0,-11.0,-15.0,-14.0,-9.0,-3.0
1706277443.0056298,-3.0,10.0,24.0,-11.0,0.0,5.0,1.0,3.0
1706277443.007629,15.0,3.0,-12.0,-7.0,-9.0,0.0,-1.0,5.0
1706277443.007629,10.0,13.0,-6.0,0.0,14.0,10.0,2.0,1.0
1706277443.0296087,-56.0,-31.0,-3.0,14.0,-1.0,-13.0,-12.0,-13.0
1706277443.0296087,11.0,-2.0,-8.0,-2.0,-2.0,3.0,2.0,4.0
1706277443.0296087,6.0,16.0,-11.0,-14.0,-14.0,-10.0,-6.0,-2.0
1706277443.0296087,6.0,12.0,11.0,1.0,4.0,8.0,9.0,14.0
1706277443.0424535,-14.0,13.0,17.0,5.0,5.0,-2.0,-3.0,-15.0
1706277443.0424535,30.0,-10.0,-5.0,15.0,-2.0,-3.0,1.0,1.0
1706277443.0514884,0.0,3.0,-15.0,-5.0,-4.0,-8.0,-8.0,-4.0
1706277443.0514884,-23.0,-46.0,-5.0,-9.0,-12.0,-8.0,-5.0,-8.0
1706277443.066462,18.0,15.0,13.0,-5.0,2.0,2.0,8.0,12.0
1706277443.066462,-6.0,1.0,-13.0,1.0,4.0,3.0,2.0,-13.0
1706277443.0734117,16.0,2.0,17.0,4.0,3.0,0.0,0.0,4.0
1706277443.0734117,-21.0,5.0,-8.0,0.0,4.0,3.0,-4.0,-10.0
1706277443.089703,4.0,-14.0,1.0,14.0,-2.0,-5.0,-2.0,8.0
1706277443.089703,-15.0,10.0,-14.0,-13.0,-3.0,-5.0,-7.0,-7.0
1706277443.0906985,32.0,9.0,-12.0,-12.0,-3.0,3.0,4.0,17.0
1706277443.0916986,-21.0,4.0,13.0,-3.0,-6.0,-10.0,-2.0,-13.0
1706277443.1056318,-8.0,-4.0,7.0,9.0,12.0,13.0,-8.0,-20.0
1706277443.1056318,6.0,5.0,-9.0,0.0,1.0,0.0,2.0,16.0
1706277443.1256287,10.0,-2.0,17.0,-16.0,-12.0,-5.0,2.0,5.0
1706277443.1256287,3.0,0.0,-36.0,2.0,0.0,-10.0,-13.0,-8.0
1706277443.1256287,16.0,18.0,3.0,6.0,4.0,4.0,5.0,3.0
1706277443.1256287,-14.0,-26.0,2.0,7.0,0.0,0.0,-2.0,-7.0
1706277443.1256287,-14.0,-3.0,-3.0,-20.0,-10.0,-1.0,-3.0,-6.0
1706277443.1256287,16.0,-7.0,19.0,0.0,-2.0,5.0,4.0,4.0
1706277443.1459877,3.0,-10.0,-12.0,-9.0,-10.0,-7.0,-4.0,1.0
1706277443.1459877,-9.0,11.0,-14.0,12.0,13.0,11.0,8.0,3.0
1706277443.1459877,-20.0,-7.0,5.0,4.0,-3.0,-7.0,-4.0,-10.0
1706277443.1459877,18.0,4.0,7.0,-4.0,-1.0,2.0,1.0,4.0
1706277443.1656268,-25.0,-10.0,-7.0,-11.0,-2.0,4.0,0.0,1.0
1706277443.1656268,15.0,1.0,-7.0,3.0,-9.0,-14.0,-8.0,0.0
1706277443.175659,-4.0,5.0,4.0,11.0,11.0,13.0,5.0,-1.0
1706277443.175659,10.0,40.0,3.0,-22.0,-9.0,-11.0,-10.0,-8.0
1706277443.1859415,-7.0,-15.0,-6.0,-9.0,7.0,-1.0,-1.0,-1.0
1706277443.1859415,-12.0,0.0,1.0,6.0,-2.0,1.0,-2.0,-9.0
1706277443.1859415,-5.0,-3.0,-27.0,-2.0,-6.0,-7.0,-3.0,3.0
1706277443.1859415,15.0,-6.0,11.0,-8.0,-8.0,-4.0,-2.0,4.0
1706277443.2059622,-3.0,-8.0,10.0,14.0,2.0,-3.0,0.0,3.0
1706277443.2059622,0.0,6.0,-13.0,2.0,6.0,3.0,1.0,-4.0
1706277443.2059622,-13.0,-14.0,10.0,0.0,-3.0,-1.0,-1.0,-6.0
1706277443.2059622,-5.0,-4.0,-8.0,1.0,8.0,5.0,5.0,3.0
1706277443.2456255,-8.0,4.0,-10.0,-4.0,-11.0,-9.0,-7.0,-7.0
1706277443.2456255,-2.0,-9.0,0.0,3.0,5.0,6.0,0.0,-3.0
1706277443.2456255,5.0,15.0,14.0,4.0,0.0,2.0,8.0,11.0
1706277443.2456255,3.0,-17.0,6.0,17.0,10.0,9.0,9.0,11.0
1706277443.2456255,-11.0,-13.0,-3.0,4.0,-6.0,-11.0,-10.0,-9.0
1706277443.2456255,-8.0,5.0,7.0,-3.0,-5.0,-11.0,-9.0,-10.0
1706277443.2456255,0.0,-20.0,-5.0,11.0,20.0,29.0,19.0,7.0
1706277443.2456255,-11.0,20.0,0.0,-11.0,-8.0,-3.0,-5.0,-5.0
1706277443.2756252,4.0,14.0,11.0,19.0,5.0,-1.0,1.0,6.0
1706277443.2756252,-1.0,-12.0,-18.0,-12.0,-13.0,-5.0,-3.0,0.0
1706277443.2756252,-1.0,7.0,-2.0,-12.0,-10.0,-11.0,-7.0,-9.0
1706277443.2756252,-6.0,-20.0,-21.0,12.0,7.0,2.0,2.0,-1.0
1706277443.2856283,11.0,30.0,9.0,1.0,1.0,2.0,-1.0,0.0
1706277443.2856283,2.0,-6.0,5.0,-11.0,-5.0,-2.0,1.0,5.0
1706277443.2856283,-20.0,-13.0,-5.0,3.0,5.0,-4.0,-11.0,-19.0
1706277443.2856283,-17.0,-8.0,4.0,1.0,1.0,7.0,9.0,15.0
1706277443.3056262,2.0,-12.0,4.0,-2.0,-3.0,-8.0,-7.0,-4.0
1706277443.3056262,20.0,11.0,8.0,-4.0,-7.0,-2.0,-6.0,-2.0
1706277443.3056262,-7.0,-4.0,-1.0,15.0,12.0,5.0,7.0,-4.0
1706277443.3056262,-5.0,-26.0,-19.0,-21.0,-10.0,-7.0,-5.0,-8.0
1706277443.3356292,1.0,-6.0,8.0,-11.0,0.0,4.0,0.0,0.0
1706277443.3356292,-18.0,1.0,2.0,18.0,15.0,3.0,3.0,0.0
1706277443.3356292,27.0,13.0,-9.0,-1.0,-8.0,-19.0,-17.0,-4.0
1706277443.3356292,-4.0,-1.0,-1.0,-3.0,0.0,6.0,1.0,-5.0
1706277443.3456306,2.0,-4.0,-1.0,-17.0,-11.0,-2.0,3.0,5.0
1706277443.3456306,2.0,11.0,5.0,5.0,8.0,7.0,1.0,-3.0
1706277443.3556268,-6.0,-9.0,-20.0,-22.0,-12.0,-13.0,-10.0,-6.0
1706277443.3556268,11.0,6.0,7.0,7.0,-1.0,-2.0,-1.0,2.0
1706277443.3556268,-20.0,-10.0,-14.0,-10.0,-8.0,-2.0,-1.0,-8.0
1706277443.3656259,0.0,-10.0,0.0,39.0,20.0,7.0,-1.0,0.0
1706277443.3656259,-7.0,-1.0,-2.0,-4.0,-4.0,-3.0,4.0,11.0
1706277443.3656259,19.0,10.0,11.0,-5.0,-4.0,1.0,0.0,-1.0
1706277443.395625,-5.0,-4.0,-2.0,-5.0,-2.0,-5.0,-1.0,-6.0
1706277443.395625,-4.0,3.0,2.0,-1.0,-5.0,-3.0,-3.0,4.0
1706277443.395625,13.0,-3.0,-8.0,-3.0,2.0,1.0,6.0,3.0
1706277443.395625,-19.0,5.0,6.0,6.0,7.0,-1.0,-4.0,-8.0
1706277443.405653,15.0,14.0,-2.0,12.0,1.0,-4.0,-2.0,11.0
1706277443.405653,0.0,11.0,14.0,-18.0,-4.0,-6.0,-9.0,-9.0
1706277443.405653,15.0,12.0,12.0,2.0,12.0,31.0,23.0,14.0
1706277443.405653,-23.0,4.0,-5.0,-4.0,-6.0,-5.0,-6.0,-15.0
1706277443.4256437,3.0,-44.0,-14.0,2.0,1.0,-4.0,0.0,2.0
1706277443.4256437,-10.0,-8.0,-10.0,-2.0,-8.0,-4.0,3.0,2.0
1706277443.4256437,7.0,-4.0,0.0,-10.0,-4.0,-8.0,-9.0,-3.0
1706277443.4256437,-12.0,5.0,4.0,13.0,8.0,-1.0,-3.0,-1.0
1706277443.4581435,-1.0,9.0,4.0,-3.0,-1.0,4.0,-1.0,-15.0
1706277443.4581435,-8.0,0.0,-3.0,-35.0,-26.0,-5.0,3.0,2.0
1706277443.4581435,1.0,7.0,7.0,20.0,10.0,-4.0,-6.0,-5.0
1706277443.4581435,0.0,0.0,-6.0,7.0,8.0,5.0,3.0,0.0
1706277443.4713004,13.0,27.0,3.0,0.0,8.0,4.0,2.0,5.0
1706277443.4713004,-2.0,-25.0,1.0,2.0,-7.0,-6.0,-2.0,1.0
1706277443.4726233,-16.0,-29.0,-7.0,10.0,-11.0,-6.0,5.0,1.0
1706277443.4726233,9.0,11.0,-12.0,-9.0,-10.0,-13.0,-9.0,0.0
1706277443.4850545,-1.0,-18.0,3.0,4.0,8.0,6.0,2.0,3.0
1706277443.4858575,17.0,19.0,13.0,3.0,7.0,10.0,1.0,1.0
1706277443.4928167,-16.0,6.0,7.0,-2.0,6.0,4.0,-1.0,-4.0
1706277443.4928167,9.0,-22.0,-7.0,5.0,0.0,-1.0,-1.0,3.0
1706277443.5134518,7.0,16.0,-9.0,-8.0,-4.0,-3.0,-2.0,2.0
1706277443.5134518,-24.0,-23.0,-10.0,-8.0,2.0,7.0,7.0,-3.0
1706277443.5134518,-7.0,-3.0,3.0,-2.0,0.0,-5.0,-10.0,-12.0
1706277443.5134518,0.0,3.0,9.0,-8.0,1.0,4.0,7.0,6.0
1706277443.5319812,-4.0,7.0,-4.0,-15.0,-8.0,-7.0,0.0,-4.0
1706277443.5319812,-5.0,-9.0,3.0,24.0,19.0,10.0,6.0,9.0
1706277443.5329788,-9.0,-17.0,12.0,17.0,14.0,9.0,3.0,7.0
1706277443.5329788,5.0,8.0,13.0,2.0,-3.0,-7.0,-7.0,-1.0
1706277443.5459101,-14.0,-4.0,-36.0,-24.0,-6.0,3.0,0.0,-5.0
1706277443.5459101,11.0,13.0,-13.0,23.0,4.0,-3.0,2.0,-8.0
1706277443.561912,5.0,-3.0,39.0,-15.0,-11.0,-6.0,-5.0,4.0
1706277443.5639076,16.0,32.0,-12.0,-6.0,2.0,-1.0,1.0,2.0
1706277443.5808227,-9.0,-4.0,0.0,-12.0,-11.0,-5.0,-5.0,-1.0
1706277443.5808227,7.0,-7.0,-9.0,-13.0,-11.0,-5.0,-7.0,11.0
1706277443.5808227,-12.0,17.0,-5.0,5.0,-14.0,-8.0,-6.0,-11.0
1706277443.5808227,-13.0,3.0,-4.0,13.0,17.0,7.0,-2.0,-7.0
1706277443.592339,2.0,3.0,12.0,8.0,1.0,0.0,-2.0,-5.0
1706277443.592339,22.0,7.0,-12.0,-14.0,-4.0,-5.0,-3.0,6.0
1706277443.5933354,-20.0,-3.0,-4.0,-2.0,-6.0,-5.0,-5.0,-6.0
1706277443.5933354,-4.0,1.0,13.0,6.0,-6.0,-2.0,0.0,2.0
1706277443.6055748,-24.0,-16.0,-4.0,-8.0,-4.0,-2.0,-1.0,-3.0
1706277443.6055748,2.0,12.0,14.0,10.0,6.0,1.0,1.0,-4.0
1706277443.619571,-12.0,5.0,-11.0,-14.0,-5.0,-4.0,-6.0,-3.0
1706277443.619571,15.0,-22.0,-7.0,-16.0,-10.0,-5.0,-6.0,-5.0
1706277443.6287417,9.0,4.0,-5.0,7.0,6.0,5.0,3.0,2.0
1706277443.6287417,0.0,-5.0,-1.0,-8.0,-12.0,-10.0,-9.0,-9.0
1706277443.6300948,3.0,-6.0,0.0,-13.0,-3.0,3.0,-3.0,-3.0
1706277443.6300948,-31.0,-36.0,-2.0,3.0,6.0,8.0,-2.0,-5.0
1706277443.6509533,12.0,9.0,6.0,1.0,-6.0,-10.0,0.0,1.0
1706277443.6509533,-3.0,-2.0,-6.0,-7.0,-1.0,-5.0,-7.0,-2.0
1706277443.6529574,-3.0,-6.0,-12.0,-7.0,2.0,11.0,17.0,7.0
1706277443.6529574,5.0,9.0,-10.0,-19.0,-12.0,-6.0,-15.0,-11.0
1706277443.6715088,-14.0,-13.0,7.0,-3.0,2.0,8.0,14.0,10.0
1706277443.6715088,5.0,-4.0,2.0,17.0,1.0,-2.0,1.0,2.0
1706277443.6736696,14.0,0.0,-9.0,3.0,1.0,-6.0,-5.0,-3.0
1706277443.6736696,-8.0,-6.0,7.0,9.0,5.0,-2.0,-2.0,3.0
1706277443.688761,9.0,0.0,0.0,-6.0,1.0,1.0,-1.0,1.0
1706277443.688761,-11.0,-2.0,-9.0,-21.0,-18.0,-9.0,-2.0,-4.0
1706277443.6902933,6.0,-9.0,-4.0,12.0,12.0,9.0,4.0,7.0
1706277443.6902933,3.0,10.0,36.0,34.0,5.0,-1.0,2.0,-8.0
1706277443.7121437,1.0,-8.0,-27.0,-6.0,-2.0,0.0,-3.0,11.0
1706277443.7121437,-16.0,-1.0,28.0,-19.0,-13.0,-3.0,-3.0,-16.0
1706277443.7131367,3.0,-12.0,-12.0,0.0,4.0,-8.0,-11.0,-6.0
1706277443.7131367,8.0,2.0,-16.0,6.0,-6.0,-2.0,6.0,1.0
1706277443.7261703,-5.0,-7.0,36.0,14.0,-2.0,-4.0,0.0,1.0
1706277443.7261703,4.0,23.0,-1.0,-36.0,4.0,8.0,4.0,0.0
1706277443.7331712,-4.0,-14.0,0.0,4.0,-13.0,-14.0,-7.0,-8.0
1706277443.7331712,3.0,-26.0,-39.0,-13.0,-7.0,-2.0,5.0,10.0
1706277443.7498643,-3.0,33.0,8.0,8.0,8.0,5.0,-4.0,-6.0
1706277443.7498643,38.0,-23.0,1.0,21.0,1.0,-4.0,2.0,7.0
1706277443.7498643,-3.0,26.0,32.0,0.0,1.0,-2.0,-2.0,-11.0
1706277443.7498643,7.0,-19.0,-25.0,-24.0,-15.0,-11.0,-5.0,5.0
1706277443.77217,-12.0,-3.0,-6.0,-4.0,0.0,6.0,3.0,-8.0
1706277443.77217,10.0,13.0,-5.0,3.0,4.0,-3.0,-4.0,8.0
1706277443.7741678,-3.0,11.0,-8.0,-2.0,0.0,-8.0,-3.0,-12.0
1706277443.7741678,-11.0,-14.0,9.0,-6.0,-5.0,6.0,-3.0,-9.0
1706277443.805026,11.0,1.0,7.0,8.0,6.0,0.0,3.0,6.0
1706277443.805026,3.0,10.0,-18.0,5.0,2.0,1.0,-1.0,8.0
1706277443.805026,15.0,14.0,-9.0,-4.0,2.0,0.0,7.0,14.0
1706277443.805026,5.0,37.0,21.0,0.0,-7.0,-9.0,-9.0,-12.0
1706277443.8082893,5.0,-13.0,2.0,-1.0,1.0,2.0,-2.0,-8.0
1706277443.8082893,-6.0,-13.0,0.0,7.0,5.0,2.0,2.0,-1.0
1706277443.809925,-1.0,-10.0,-26.0,-3.0,4.0,8.0,2.0,10.0
1706277443.809925,-8.0,-3.0,-3.0,-2.0,-6.0,-19.0,-11.0,-6.0
1706277443.831196,1.0,11.0,-1.0,-1.0,13.0,26.0,15.0,6.0
1706277443.831196,-21.0,-12.0,-11.0,-11.0,-14.0,-4.0,-2.0,-11.0
1706277443.8322525,26.0,9.0,0.0,-1.0,-6.0,-6.0,-7.0,-5.0
1706277443.8332446,-31.0,-28.0,1.0,-3.0,-3.0,3.0,10.0,4.0
1706277443.848206,-8.0,-20.0,8.0,8.0,-2.0,-7.0,-5.0,3.0
1706277443.848206,-19.0,1.0,8.0,13.0,12.0,1.0,-2.0,-7.0
1706277443.853533,-18.0,5.0,5.0,-12.0,-6.0,4.0,-1.0,-9.0
1706277443.8545563,-8.0,-1.0,0.0,-6.0,-4.0,-2.0,4.0,4.0
1706277443.8691094,-1.0,-8.0,-8.0,-6.0,-6.0,-12.0,-6.0,-3.0
1706277443.8691094,3.0,0.0,2.0,7.0,6.0,6.0,4.0,0.0
1706277443.871097,-2.0,-15.0,4.0,-3.0,-5.0,-9.0,-7.0,-4.0
1706277443.871097,-12.0,-4.0,0.0,8.0,9.0,5.0,4.0,1.0
1706277443.8920588,-14.0,-13.0,-8.0,-5.0,-19.0,-12.0,-3.0,-6.0
1706277443.8920588,-8.0,11.0,11.0,-9.0,-9.0,-5.0,-9.0,-11.0
1706277443.892998,5.0,-6.0,3.0,20.0,14.0,3.0,-4.0,-2.0
1706277443.892998,27.0,30.0,-15.0,3.0,5.0,1.0,-1.0,8.0
1706277443.9147758,-8.0,-15.0,-8.0,-5.0,-8.0,-8.0,-3.0,-3.0
1706277443.9147758,-10.0,-15.0,7.0,-9.0,-1.0,6.0,5.0,-7.0
1706277443.9147758,3.0,8.0,2.0,-5.0,-9.0,-1.0,0.0,2.0
1706277443.9147758,19.0,16.0,-9.0,-9.0,-2.0,1.0,-1.0,-5.0
1706277443.9290252,-15.0,5.0,6.0,-2.0,-1.0,-9.0,-17.0,-10.0
1706277443.9290252,3.0,0.0,-8.0,3.0,0.0,-2.0,-3.0,3.0
1706277443.929955,-8.0,1.0,-4.0,-1.0,-1.0,-2.0,3.0,5.0
1706277443.929955,-1.0,-7.0,8.0,-5.0,-7.0,-5.0,-2.0,-2.0
1706277443.9654126,28.0,18.0,-10.0,-5.0,3.0,4.0,0.0,0.0
1706277443.9654126,-2.0,-4.0,1.0,2.0,-1.0,-4.0,0.0,2.0
1706277443.9654126,-10.0,-9.0,8.0,14.0,1.0,3.0,3.0,1.0
1706277443.9654126,-23.0,-14.0,-11.0,-3.0,1.0,8.0,6.0,-3.0
1706277443.9654126,8.0,7.0,-4.0,1.0,0.0,-5.0,-7.0,-9.0
1706277443.9654126,2.0,10.0,-1.0,1.0,-2.0,-3.0,1.0,15.0
1706277443.9749835,-16.0,-20.0,-5.0,-17.0,-10.0,-7.0,-3.0,-1.0
1706277443.9749835,22.0,16.0,3.0,7.0,9.0,3.0,4.0,6.0
1706277443.9886584,-7.0,-16.0,-6.0,11.0,4.0,3.0,4.0,-4.0
1706277443.9886584,5.0,-4.0,3.0,0.0,5.0,3.0,1.0,4.0
1706277443.9896753,-16.0,-1.0,8.0,-3.0,-1.0,3.0,3.0,-11.0
1706277443.9906747,5.0,-2.0,-7.0,-2.0,5.0,1.0,2.0,1.0
1706277444.0191395,1.0,-5.0,14.0,20.0,1.0,-3.0,-1.0,-2.0
1706277444.0191395,0.0,16.0,-17.0,-21.0,-12.0,-5.0,-11.0,-13.0
1706277444.0191395,7.0,17.0,3.0,-16.0,-12.0,-8.0,-4.0,5.0
1706277444.0191395,17.0,17.0,7.0,13.0,11.0,3.0,-2.0,-2.0
1706277444.0242815,41.0,19.0,-5.0,-10.0,-2.0,3.0,5.0,9.0
1706277444.0242815,-23.0,-30.0,2.0,18.0,0.0,0.0,2.0,-5.0
1706277444.0336747,0.0,-16.0,-10.0,-8.0,-6.0,-4.0,-4.0,-2.0
1706277444.0336747,3.0,9.0,-2.0,-2.0,-1.0,2.0,-1.0,0.0
1706277444.048707,-8.0,2.0,1.0,-2.0,-2.0,-3.0,0.0,0.0
1706277444.048707,4.0,-7.0,-10.0,-4.0,2.0,0.0,3.0,0.0
1706277444.049719,12.0,5.0,4.0,-4.0,-4.0,-8.0,-2.0,-1.0
1706277444.0507202,4.0,-15.0,-2.0,-1.0,-1.0,-2.0,-3.0,6.0
1706277444.071978,-8.0,-11.0,13.0,3.0,-4.0,-12.0,-7.0,0.0
1706277444.071978,-14.0,-6.0,-3.0,-2.0,1.0,14.0,5.0,-10.0
1706277444.071978,6.0,-3.0,-12.0,1.0,5.0,8.0,7.0,2.0
1706277444.071978,-9.0,-1.0,7.0,-1.0,-5.0,-6.0,-6.0,-12.0
1706277444.0848353,-13.0,-5.0,-7.0,-2.0,1.0,0.0,-1.0,-1.0
1706277444.0848353,-2.0,8.0,11.0,14.0,2.0,-2.0,-2.0,0.0
1706277444.0936735,-5.0,7.0,-9.0,-18.0,-9.0,-5.0,-5.0,-4.0
1706277444.0936735,2.0,-6.0,-9.0,-3.0,3.0,3.0,0.0,1.0
1706277444.1106267,17.0,22.0,8.0,-1.0,-1.0,4.0,2.0,3.0
1706277444.1106267,-5.0,-18.0,-2.0,-13.0,-14.0,-18.0,-12.0,-7.0
1706277444.1106267,-18.0,-33.0,17.0,17.0,14.0,13.0,8.0,5.0
1706277444.1106267,-18.0,-10.0,11.0,-4.0,-7.0,0.0,-4.0,-6.0
1706277444.1313403,4.0,-1.0,-3.0,4.0,2.0,-1.0,0.0,-1.0
1706277444.132297,-2.0,1.0,-13.0,-4.0,8.0,9.0,0.0,-9.0
1706277444.133353,22.0,16.0,-4.0,-4.0,-2.0,-2.0,5.0,18.0
1706277444.133353,-15.0,-13.0,15.0,3.0,3.0,7.0,6.0,1.0
1706277444.1543658,0.0,4.0,-28.0,-9.0,-5.0,-8.0,-9.0,-3.0
1706277444.1543658,1.0,2.0,11.0,9.0,3.0,4.0,-3.0,-3.0
1706277444.1553648,-4.0,-1.0,-13.0,-4.0,-7.0,-10.0,-2.0,0.0
1706277444.1553648,-14.0,-5.0,5.0,-6.0,-1.0,19.0,10.0,-4.0
1706277444.1810398,-1.0,13.0,-2.0,-2.0,-2.0,-1.0,-1.0,-8.0
1706277444.1810398,2.0,5.0,2.0,11.0,16.0,2.0,6.0,8.0
1706277444.1810398,-5.0,3.0,-4.0,-5.0,-4.0,-5.0,-8.0,-6.0
1706277444.1810398,9.0,13.0,-7.0,-5.0,-10.0,-13.0,-3.0,3.0
1706277444.1921074,-16.0,9.0,1.0,-11.0,-8.0,-1.0,-3.0,-9.0
1706277444.1921074,20.0,12.0,-14.0,-9.0,-3.0,-1.0,2.0,8.0
1706277444.1978052,-1.0,-17.0,1.0,-7.0,-10.0,-6.0,-10.0,-7.0
1706277444.1978052,-4.0,15.0,7.0,19.0,7.0,0.0,0.0,-4.0
1706277444.2139745,-6.0,-17.0,-5.0,-13.0,0.0,3.0,-1.0,-3.0
1706277444.2139745,12.0,17.0,1.0,1.0,-5.0,-4.0,3.0,7.0
1706277444.2159724,6.0,2.0,-7.0,-7.0,-3.0,-5.0,-14.0,-12.0
1706277444.2159724,0.0,2.0,-5.0,-7.0,-7.0,-5.0,-3.0,0.0
1706277444.2531037,-26.0,-23.0,-15.0,-8.0,-9.0,-6.0,-4.0,-4.0
1706277444.2531037,6.0,15.0,-4.0,-11.0,-18.0,-12.0,-7.0,-2.0
1706277444.2551007,-4.0,6.0,2.0,-5.0,3.0,6.0,7.0,2.0
1706277444.2551007,-20.0,-34.0,-17.0,-15.0,-6.0,0.0,-5.0,-10.0
1706277444.2551007,19.0,42.0,32.0,32.0,8.0,-3.0,-2.0,3.0
1706277444.2551007,2.0,24.0,-2.0,4.0,-3.0,4.0,-3.0,-6.0
1706277444.2570887,1.0,4.0,-19.0,16.0,2.0,-4.0,-3.0,-4.0
1706277444.2570887,0.0,-12.0,4.0,-24.0,-9.0,-6.0,-2.0,2.0
1706277444.2737184,-2.0,-12.0,-4.0,-17.0,-15.0,-3.0,-1.0,-3.0
1706277444.2737184,3.0,-1.0,-8.0,-25.0,-6.0,-2.0,-5.0,-1.0
1706277444.275331,-3.0,-6.0,19.0,9.0,11.0,7.0,9.0,4.0
1706277444.275331,17.0,12.0,-7.0,3.0,-4.0,-11.0,-3.0,4.0
1706277444.298129,-7.0,-10.0,-6.0,-2.0,1.0,1.0,-5.0,-3.0
1706277444.298129,-10.0,-6.0,7.0,9.0,3.0,-1.0,1.0,0.0
1706277444.2991285,2.0,5.0,-5.0,4.0,6.0,0.0,-2.0,-1.0
1706277444.2991285,3.0,-2.0,11.0,1.0,-1.0,-2.0,-2.0,2.0
1706277444.3113356,-1.0,-7.0,1.0,9.0,0.0,-6.0,-2.0,-3.0
1706277444.3113356,-9.0,-14.0,1.0,8.0,15.0,10.0,4.0,3.0
1706277444.3113356,17.0,21.0,0.0,-4.0,-10.0,-8.0,-1.0,2.0
1706277444.3113356,-21.0,-21.0,-6.0,-5.0,-5.0,-3.0,-5.0,-6.0
1706277444.3413277,15.0,15.0,0.0,-5.0,5.0,5.0,0.0,4.0
1706277444.3413277,-15.0,-32.0,-4.0,-1.0,2.0,5.0,4.0,-4.0
1706277444.3413277,12.0,10.0,-4.0,-9.0,-9.0,-10.0,-7.0,-8.0
1706277444.3413277,4.0,3.0,0.0,9.0,6.0,1.0,0.0,0.0
1706277444.3413277,-15.0,-12.0,-7.0,0.0,4.0,2.0,1.0,-6.0
1706277444.3413277,-6.0,-21.0,-4.0,-8.0,-11.0,-8.0,-1.0,7.0
1706277444.3515162,-10.0,3.0,2.0,3.0,7.0,11.0,3.0,-1.0
1706277444.3515162,12.0,4.0,3.0,10.0,3.0,1.0,3.0,1.0
1706277444.3713896,8.0,18.0,-11.0,-1.0,-3.0,-2.0,0.0,0.0
1706277444.3713896,-6.0,-36.0,16.0,23.0,9.0,0.0,4.0,15.0
1706277444.3713896,-17.0,6.0,18.0,-11.0,-10.0,-9.0,-10.0,-24.0
1706277444.3713896,-5.0,-10.0,-33.0,-29.0,2.0,3.0,-1.0,1.0
1706277444.411329,7.0,7.0,24.0,1.0,3.0,2.0,1.0,1.0
1706277444.411329,9.0,24.0,-6.0,-11.0,-8.0,-3.0,-5.0,-7.0
1706277444.411329,11.0,7.0,8.0,1.0,-1.0,-2.0,-2.0,6.0
1706277444.411329,-15.0,-18.0,-19.0,-12.0,-9.0,-5.0,-6.0,-6.0
1706277444.411329,8.0,-2.0,-6.0,13.0,5.0,5.0,4.0,2.0
1706277444.411329,-21.0,-3.0,7.0,-5.0,-2.0,3.0,1.0,-1.0
1706277444.411329,12.0,12.0,15.0,0.0,-2.0,0.0,-3.0,3.0
1706277444.411329,37.0,35.0,11.0,13.0,-4.0,-10.0,-11.0,-5.0
1706277444.431378,8.0,1.0,-25.0,-8.0,2.0,4.0,10.0,22.0
1706277444.431378,-12.0,-11.0,4.0,-6.0,4.0,2.0,1.0,-5.0
1706277444.431378,-14.0,-28.0,-20.0,13.0,10.0,7.0,0.0,-1.0
1706277444.431378,6.0,42.0,24.0,11.0,-6.0,-8.0,-3.0,-2.0
1706277444.461329,-11.0,-26.0,-1.0,23.0,19.0,8.0,1.0,0.0
1706277444.461329,8.0,14.0,6.0,-10.0,-4.0,-1.0,3.0,4.0
1706277444.461329,-9.0,-19.0,-7.0,15.0,19.0,14.0,8.0,5.0
1706277444.461329,4.0,-8.0,0.0,-33.0,-12.0,-3.0,-4.0,4.0
1706277444.461329,-11.0,-13.0,3.0,-1.0,-5.0,-4.0,-3.0,-1.0
1706277444.461329,12.0,12.0,0.0,32.0,8.0,-2.0,0.0,-4.0
1706277444.471509,-10.0,-12.0,5.0,2.0,1.0,-2.0,-5.0,-3.0
1706277444.471509,-17.0,-6.0,-6.0,0.0,-6.0,-4.0,-1.0,-4.0
1706277444.4913359,-12.0,-14.0,-4.0,-18.0,-8.0,-8.0,-4.0,-1.0
1706277444.4913359,10.0,9.0,-17.0,-9.0,-8.0,-5.0,-2.0,2.0
1706277444.4913359,-2.0,3.0,-2.0,-7.0,-13.0,-10.0,-4.0,-13.0
1706277444.4913359,3.0,3.0,-12.0,-3.0,4.0,-1.0,3.0,4.0
1706277444.5257635,8.0,-8.0,1.0,-2.0,-9.0,2.0,-1.0,10.0
1706277444.5257635,1.0,-1.0,-2.0,-25.0,-5.0,-7.0,-8.0,-10.0
1706277444.5257635,-1.0,2.0,5.0,6.0,5.0,14.0,13.0,11.0
1706277444.5257635,3.0,0.0,8.0,24.0,7.0,-3.0,0.0,-5.0
1706277444.5277872,-15.0,1.0,-11.0,-20.0,-11.0,-19.0,-13.0,-8.0
1706277444.5277872,-13.0,-21.0,10.0,16.0,8.0,14.0,4.0,-1.0
1706277444.5348566,-30.0,-20.0,-21.0,-8.0,0.0,2.0,2.0,-6.0
1706277444.5348566,-3.0,-11.0,0.0,-3.0,-2.0,-2.0,1.0,-6.0
1706277444.5440989,12.0,5.0,6.0,4.0,1.0,-2.0,-12.0,-8.0
1706277444.5440989,-1.0,24.0,6.0,-5.0,-11.0,-13.0,-5.0,-4.0
1706277444.5640988,8.0,14.0,-1.0,1.0,-5.0,-6.0,0.0,7.0
1706277444.5640988,-16.0,-34.0,-4.0,-3.0,6.0,7.0,-2.0,-5.0
1706277444.5740957,-11.0,2.0,-4.0,-8.0,-11.0,-9.0,1.0,-10.0
1706277444.5740957,-4.0,1.0,-4.0,8.0,1.0,0.0,-6.0,-11.0
1706277444.5740957,31.0,-5.0,0.0,-19.0,-3.0,-8.0,-2.0,9.0
1706277444.5740957,-10.0,9.0,3.0,19.0,-2.0,2.0,4.0,4.0
1706277444.5843747,13.0,21.0,12.0,20.0,20.0,8.0,9.0,3.0
1706277444.5843747,-6.0,-13.0,-18.0,-24.0,-19.0,-8.0,-5.0,-6.0
1706277444.5943773,-18.0,-32.0,-2.0,21.0,-4.0,-3.0,-5.0,-5.0
1706277444.5943773,-1.0,14.0,3.0,-10.0,2.0,-4.0,-6.0,-2.0
1706277444.6043997,-21.0,-29.0,-7.0,-39.0,-8.0,4.0,-14.0,-17.0
1706277444.6043997,5.0,26.0,2.0,29.0,2.0,-6.0,-1.0,-1.0
1706277444.6043997,0.0,-6.0,-11.0,-22.0,-9.0,-21.0,-6.0,0.0
1706277444.6043997,-6.0,-30.0,-3.0,-11.0,-12.0,-5.0,-3.0,0.0
1706277444.6440988,-6.0,9.0,39.0,37.0,17.0,18.0,14.0,5.0
1706277444.6440988,2.0,-17.0,-21.0,-28.0,-8.0,-8.0,-9.0,-7.0
1706277444.6440988,12.0,25.0,18.0,24.0,24.0,16.0,3.0,-2.0
1706277444.6440988,18.0,30.0,6.0,23.0,6.0,3.0,3.0,0.0
1706277444.6440988,-7.0,-16.0,-42.0,0.0,-10.0,-8.0,1.0,-2.0
1706277444.6440988,0.0,-2.0,50.0,-63.0,-17.0,-3.0,2.0,6.0
1706277444.6543415,-6.0,3.0,-54.0,-18.0,3.0,2.0,-1.0,-12.0
1706277444.6543415,-4.0,-6.0,20.0,55.0,6.0,0.0,5.0,8.0
1706277444.6644068,5.0,12.0,46.0,-6.0,7.0,1.0,-6.0,-9.0
1706277444.6644068,8.0,-15.0,-11.0,6.0,5.0,1.0,2.0,4.0
1706277444.6644068,-6.0,7.0,12.0,23.0,-9.0,-1.0,-4.0,-11.0
1706277444.6644068,11.0,15.0,-13.0,-10.0,8.0,-4.0,-3.0,-6.0
1706277444.6941125,-8.0,-21.0,-30.0,2.0,-4.0,-2.0,0.0,-3.0
1706277444.6941125,15.0,23.0,6.0,24.0,3.0,-9.0,-8.0,2.0
1706277444.6941125,-14.0,-19.0,12.0,-26.0,-6.0,10.0,13.0,7.0
1706277444.6941125,12.0,-9.0,-14.0,-3.0,6.0,11.0,-2.0,0.0
1706277444.7044275,26.0,2.0,18.0,3.0,-4.0,-5.0,6.0,5.0
1706277444.7044275,-3.0,0.0,-21.0,-8.0,-4.0,-5.0,-5.0,-15.0
1706277444.7143967,3.0,14.0,-8.0,-1.0,-10.0,-17.0,-12.0,-2.0
1706277444.7143967,-1.0,15.0,6.0,-4.0,7.0,2.0,0.0,0.0
1706277444.7243886,0.0,8.0,-7.0,-10.0,-2.0,3.0,8.0,3.0
1706277444.7243886,-15.0,-10.0,1.0,-36.0,-10.0,2.0,-5.0,3.0
1706277444.7243886,25.0,12.0,-4.0,77.0,28.0,8.0,1.0,-1.0
1706277444.7243886,-4.0,-15.0,3.0,-14.0,-1.0,12.0,14.0,7.0
1706277444.754101,11.0,13.0,5.0,10.0,3.0,1.0,-7.0,5.0
1706277444.754101,9.0,-1.0,-7.0,-13.0,-2.0,5.0,-1.0,2.0
1706277444.754101,-34.0,-9.0,-1.0,7.0,-20.0,1.0,-13.0,-13.0
1706277444.754101,8.0,6.0,10.0,3.0,7.0,2.0,4.0,3.0
1706277444.7641225,2.0,11.0,1.0,27.0,6.0,-8.0,-8.0,0.0
1706277444.7641225,1.0,0.0,-17.0,-6.0,-8.0,-8.0,1.0,-3.0
1706277444.7744093,8.0,-1.0,-3.0,-38.0,-19.0,-14.0,-9.0,3.0
1706277444.7744093,-10.0,-13.0,-4.0,-33.0,-6.0,-3.0,0.0,-1.0
1706277444.7840967,-6.0,-4.0,-4.0,-11.0,-11.0,-1.0,-1.0,1.0
1706277444.7840967,7.0,15.0,-6.0,16.0,8.0,4.0,1.0,3.0
1706277444.794124,0.0,-17.0,8.0,-16.0,-2.0,2.0,3.0,-1.0
1706277444.794124,-23.0,-11.0,-24.0,-6.0,1.0,-1.0,-1.0,-10.0
1706277444.8141022,-2.0,21.0,31.0,-12.0,-10.0,-6.0,-6.0,-10.0
1706277444.8141022,0.0,6.0,14.0,27.0,19.0,3.0,-2.0,1.0
1706277444.8141022,8.0,9.0,-5.0,-17.0,6.0,4.0,10.0,12.0
1706277444.8141022,-3.0,0.0,-13.0,-6.0,-6.0,-1.0,-7.0,-4.0
1706277444.8244054,-18.0,-11.0,-26.0,-2.0,-2.0,2.0,-1.0,-7.0
1706277444.8244054,5.0,-21.0,-42.0,33.0,-3.0,-16.0,-7.0,19.0
1706277444.8640978,-18.0,8.0,41.0,-50.0,-1.0,17.0,4.0,-18.0
1706277444.8640978,-3.0,-22.0,-25.0,-2.0,-12.0,-13.0,-6.0,3.0
1706277444.8740973,-22.0,-10.0,13.0,-7.0,-1.0,1.0,7.0,-1.0
1706277444.8740973,22.0,29.0,-3.0,5.0,2.0,2.0,6.0,9.0
1706277444.8740973,17.0,-4.0,-23.0,7.0,-4.0,-7.0,-7.0,2.0
1706277444.8740973,15.0,21.0,17.0,11.0,10.0,4.0,4.0,9.0
1706277444.8740973,-20.0,-36.0,-11.0,-1.0,-3.0,-3.0,-4.0,-7.0
1706277444.8740973,-42.0,-22.0,12.0,4.0,8.0,12.0,5.0,-9.0
1706277444.8740973,22.0,11.0,1.0,-38.0,-8.0,2.0,-8.0,0.0
1706277444.8740973,-12.0,4.0,20.0,-64.0,-31.0,-7.0,-5.0,-4.0
1706277444.884377,-3.0,-4.0,-1.0,85.0,52.0,11.0,9.0,11.0
1706277444.884377,-7.0,-17.0,2.0,14.0,-15.0,-25.0,-21.0,-17.0
1706277444.8943784,-15.0,-7.0,-2.0,-1.0,-2.0,6.0,18.0,10.0
1706277444.8943784,-5.0,-10.0,12.0,-52.0,-10.0,1.0,7.0,11.0
1706277444.9240954,18.0,19.0,0.0,28.0,9.0,9.0,1.0,1.0
1706277444.9240954,-20.0,-12.0,-15.0,-9.0,7.0,16.0,15.0,-1.0
1706277444.9240954,-1.0,3.0,-1.0,35.0,31.0,12.0,0.0,-2.0
1706277444.9240954,6.0,1.0,15.0,43.0,17.0,8.0,4.0,2.0
1706277444.9240954,5.0,-3.0,-3.0,-41.0,-23.0,-1.0,3.0,5.0
1706277444.9240954,2.0,4.0,9.0,0.0,10.0,10.0,3.0,-6.0
1706277444.9343185,2.0,-3.0,-20.0,1.0,0.0,-7.0,-8.0,-1.0
1706277444.9343185,-12.0,-9.0,10.0,16.0,3.0,-1.0,-5.0,-9.0
1706277444.9540982,6.0,5.0,-41.0,-54.0,-18.0,-12.0,-10.0,-5.0
1706277444.9540982,2.0,-4.0,49.0,10.0,0.0,2.0,5.0,4.0
1706277444.9540982,8.0,6.0,-5.0,34.0,-7.0,-12.0,-2.0,8.0
1706277444.9540982,5.0,7.0,-13.0,-56.0,-8.0,-8.0,-1.0,17.0
1706277444.9644854,-13.0,-15.0,-18.0,3.0,0.0,7.0,9.0,-3.0
1706277444.9644854,6.0,2.0,62.0,5.0,-11.0,-8.0,-1.0,-1.0
1706277444.9644854,-9.0,-11.0,-73.0,-19.0,-8.0,-5.0,0.0,1.0
1706277444.9644854,3.0,14.0,19.0,33.0,10.0,-4.0,-16.0,-14.0
1706277444.9940984,18.0,15.0,6.0,-3.0,-15.0,-30.0,-16.0,10.0
1706277444.9940984,-19.0,13.0,-16.0,-23.0,6.0,33.0,5.0,-20.0
1706277444.9940984,6.0,-21.0,10.0,-7.0,-9.0,-14.0,-6.0,5.0
1706277444.9940984,-16.0,-13.0,-7.0,19.0,1.0,-21.0,-7.0,-17.0
1706277445.0040994,15.0,19.0,1.0,-17.0,9.0,28.0,10.0,-1.0
1706277445.0040994,7.0,-16.0,-11.0,5.0,-1.0,-13.0,-7.0,5.0
1706277445.0140996,-27.0,4.0,42.0,21.0,4.0,-12.0,-1.0,-15.0
1706277445.0140996,-8.0,-28.0,-22.0,-6.0,-6.0,4.0,-3.0,-17.0
1706277445.0241315,-14.0,-9.0,0.0,-14.0,-12.0,-12.0,-3.0,11.0
1706277445.0241315,18.0,5.0,-36.0,-21.0,-7.0,-13.0,-7.0,7.0
1706277445.0343337,6.0,12.0,30.0,56.0,31.0,24.0,9.0,4.0
1706277445.0343337,1.0,2.0,-21.0,8.0,-4.0,-12.0,-6.0,0.0
1706277445.0537548,-8.0,-18.0,19.0,0.0,-7.0,-3.0,-2.0,-14.0
1706277445.054786,3.0,6.0,-6.0,-6.0,-6.0,-15.0,-10.0,-3.0
1706277445.055778,13.0,2.0,-4.0,-28.0,3.0,23.0,13.0,9.0
1706277445.055778,12.0,9.0,6.0,18.0,-5.0,-8.0,2.0,5.0
1706277445.0868714,-9.0,-7.0,-9.0,-6.0,-6.0,1.0,-1.0,0.0
1706277445.0868714,-5.0,-13.0,-9.0,-20.0,2.0,11.0,3.0,-2.0
1706277445.0868714,15.0,20.0,16.0,-7.0,-2.0,-9.0,8.0,6.0
1706277445.0868714,-6.0,-12.0,1.0,45.0,9.0,14.0,0.0,-3.0
1706277445.0868714,-8.0,17.0,-6.0,-41.0,-2.0,7.0,-1.0,-6.0
1706277445.0868714,-7.0,-17.0,-12.0,-11.0,-29.0,-15.0,-4.0,-5.0
1706277445.0968978,-4.0,-15.0,14.0,54.0,52.0,18.0,-5.0,-3.0
1706277445.0968978,18.0,-16.0,-3.0,-14.0,-19.0,-19.0,23.0,20.0
1706277445.1068726,-8.0,34.0,6.0,16.0,-2.0,-11.0,-26.0,-21.0
1706277445.1068726,-17.0,-48.0,-62.0,-6.0,11.0,-14.0,-15.0,-11.0
1706277445.1068726,2.0,13.0,-4.0,-22.0,-27.0,-25.0,-20.0,-9.0
1706277445.1068726,-1.0,10.0,24.0,6.0,27.0,29.0,5.0,0.0
1706277445.1372638,-1.0,-29.0,-11.0,-17.0,-21.0,-38.0,-16.0,-5.0
1706277445.1372638,2.0,18.0,14.0,-9.0,-17.0,1.0,9.0,6.0
1706277445.1372638,-4.0,-8.0,-25.0,-13.0,-3.0,1.0,1.0,-2.0
1706277445.1372638,-2.0,7.0,28.0,5.0,4.0,2.0,-9.0,-4.0
1706277445.1474736,28.0,32.0,10.0,-13.0,0.0,13.0,13.0,10.0
1706277445.1474736,-7.0,16.0,12.0,45.0,16.0,7.0,-5.0,-6.0
1706277445.1574838,-11.0,-18.0,-26.0,-35.0,-14.0,-8.0,-1.0,-2.0
1706277445.1574838,1.0,25.0,4.0,-32.0,-13.0,-2.0,-4.0,-4.0
1706277445.1872637,-13.0,-34.0,-3.0,51.0,13.0,9.0,3.0,-2.0
1706277445.1872637,2.0,-2.0,10.0,46.0,13.0,1.0,8.0,6.0
1706277445.1872637,-9.0,11.0,21.0,-56.0,-26.0,-11.0,-6.0,-9.0
1706277445.1872637,-2.0,-10.0,-34.0,-77.0,-26.0,-25.0,-21.0,-12.0
1706277445.1872637,-23.0,-32.0,-10.0,-2.0,14.0,27.0,4.0,-21.0
1706277445.1872637,7.0,-14.0,-28.0,1.0,6.0,-2.0,6.0,8.0
1706277445.1872637,10.0,3.0,6.0,6.0,2.0,27.0,15.0,1.0
1706277445.1872637,-33.0,-31.0,-23.0,9.0,-9.0,-3.0,-6.0,-15.0
1706277445.207585,5.0,20.0,34.0,13.0,6.0,5.0,11.0,10.0
1706277445.207585,-34.0,0.0,10.0,-14.0,1.0,12.0,6.0,8.0
1706277445.2176154,19.0,18.0,2.0,-11.0,-19.0,-32.0,-17.0,5.0
1706277445.2176154,36.0,31.0,0.0,32.0,22.0,20.0,15.0,15.0
1706277445.2272658,-22.0,-49.0,-14.0,-9.0,-1.0,0.0,-7.0,-10.0
1706277445.2272658,44.0,4.0,9.0,4.0,14.0,16.0,14.0,20.0
1706277445.2272658,-2.0,-17.0,3.0,9.0,-18.0,-34.0,-24.0,-25.0
1706277445.2272658,-52.0,-40.0,6.0,21.0,22.0,25.0,7.0,-7.0
1706277445.2472641,-4.0,1.0,4.0,-8.0,-7.0,-13.0,4.0,5.0
1706277445.2472641,-14.0,-32.0,-21.0,-29.0,-23.0,-15.0,-2.0,-6.0
1706277445.2472641,17.0,67.0,43.0,13.0,5.0,2.0,-5.0,-1.0
1706277445.2472641,4.0,-37.0,-54.0,-36.0,-20.0,-8.0,-20.0,-16.0
1706277445.2675843,10.0,7.0,-9.0,-15.0,-8.0,-3.0,6.0,14.0
1706277445.2675843,-5.0,-4.0,-38.0,-102.0,-63.0,-46.0,-13.0,-15.0
1706277445.2776055,17.0,27.0,61.0,74.0,30.0,5.0,2.0,9.0
1706277445.2776055,-16.0,27.0,37.0,107.0,60.0,21.0,8.0,3.0
1706277445.297264,1.0,-1.0,-76.0,-72.0,-85.0,-35.0,-22.0,-13.0
1706277445.297264,29.0,62.0,22.0,23.0,41.0,6.0,-7.0,1.0
1706277445.297264,6.0,7.0,78.0,81.0,63.0,11.0,5.0,4.0
1706277445.297264,15.0,38.0,-51.0,-94.0,-79.0,-19.0,-4.0,4.0
1706277445.3074467,18.0,23.0,104.0,116.0,100.0,36.0,11.0,12.0
1706277445.3074467,21.0,20.0,-43.0,-6.0,3.0,3.0,4.0,4.0
1706277445.3172698,-16.0,-30.0,-49.0,-97.0,-26.0,11.0,11.0,5.0
1706277445.3172698,-6.0,6.0,36.0,-7.0,22.0,-3.0,1.0,-2.0
1706277445.3375473,4.0,7.0,-15.0,-82.0,-27.0,-6.0,1.0,5.0
1706277445.3375473,-28.0,-31.0,-49.0,-33.0,-28.0,-4.0,-6.0,-4.0
1706277445.3375473,17.0,41.0,-28.0,48.0,28.0,15.0,9.0,1.0
1706277445.3375473,14.0,-4.0,14.0,-4.0,-29.0,-24.0,-8.0,2.0
1706277445.3672652,-8.0,-39.0,-30.0,-14.0,-19.0,-11.0,-8.0,-7.0
1706277445.3672652,-12.0,-8.0,37.0,60.0,42.0,32.0,11.0,-1.0
1706277445.3672652,-46.0,-34.0,-43.0,-52.0,-34.0,-8.0,-4.0,-9.0
1706277445.3672652,32.0,37.0,6.0,22.0,18.0,12.0,7.0,6.0
1706277445.3772638,8.0,13.0,19.0,44.0,8.0,-14.0,-4.0,0.0
1706277445.3772638,-36.0,-44.0,9.0,-7.0,-3.0,1.0,-8.0,-21.0
1706277445.3772638,-2.0,-22.0,-9.0,-6.0,-16.0,0.0,5.0,19.0
1706277445.3772638,-4.0,-4.0,-6.0,-1.0,-1.0,2.0,6.0,-27.0
1706277445.4072652,7.0,14.0,10.0,5.0,11.0,0.0,1.0,13.0
1706277445.4072652,12.0,14.0,3.0,-3.0,-3.0,3.0,0.0,6.0
1706277445.4172666,-6.0,-21.0,-25.0,-34.0,-30.0,-22.0,-12.0,-2.0
1706277445.4172666,-36.0,-20.0,7.0,15.0,11.0,8.0,1.0,-19.0
1706277445.4172666,20.0,0.0,-20.0,-13.0,-7.0,-3.0,-1.0,3.0
1706277445.4172666,-8.0,11.0,26.0,-1.0,-18.0,-16.0,-4.0,-4.0
1706277445.4172666,-18.0,-21.0,6.0,26.0,21.0,16.0,9.0,1.0
1706277445.4172666,15.0,-18.0,5.0,0.0,6.0,4.0,8.0,18.0
1706277445.4275796,-16.0,0.0,-3.0,-5.0,-8.0,-7.0,-7.0,-15.0
1706277445.4275796,2.0,3.0,16.0,7.0,-13.0,-6.0,-5.0,1.0
1706277445.4275796,-11.0,-10.0,-11.0,-15.0,-12.0,-16.0,-8.0,-10.0
1706277445.4275796,-7.0,-9.0,-24.0,-17.0,-4.0,-7.0,-7.0,0.0
1706277445.4572685,1.0,6.0,5.0,-24.0,-21.0,-8.0,-4.0,-2.0
1706277445.4572685,12.0,11.0,21.0,52.0,40.0,24.0,12.0,10.0
1706277445.4672635,-7.0,-23.0,-35.0,-44.0,-27.0,-17.0,-22.0,-33.0
1706277445.4672635,-1.0,1.0,8.0,19.0,0.0,-7.0,8.0,16.0
1706277445.4672635,0.0,-3.0,-5.0,-21.0,-8.0,-4.0,-3.0,4.0
1706277445.4672635,3.0,1.0,-2.0,4.0,-13.0,-5.0,-4.0,-7.0
1706277445.4672635,-11.0,-8.0,-13.0,-97.0,-42.0,-2.0,1.0,-4.0
1706277445.4672635,1.0,-6.0,16.0,83.0,70.0,2.0,-6.0,4.0
1706277445.4876163,-8.0,-2.0,4.0,24.0,8.0,3.0,-4.0,-10.0
1706277445.4876163,5.0,16.0,57.0,41.0,21.0,8.0,5.0,2.0
1706277445.4876163,3.0,-12.0,-77.0,-49.0,-10.0,-8.0,-4.0,6.0
1706277445.4876163,-20.0,-22.0,-32.0,-55.0,-46.0,-19.0,-14.0,-13.0
1706277445.527263,-2.0,5.0,42.0,-13.0,-29.0,-6.0,-3.0,-5.0
1706277445.527263,-4.0,-12.0,-6.0,24.0,40.0,17.0,6.0,2.0
1706277445.527263,2.0,1.0,53.0,33.0,1.0,0.0,2.0,5.0
1706277445.527263,10.0,11.0,10.0,-22.0,-12.0,-12.0,-8.0,8.0
1706277445.527263,-34.0,-29.0,-14.0,-3.0,9.0,21.0,13.0,-2.0
1706277445.527263,-6.0,8.0,6.0,-22.0,-16.0,-14.0,-31.0,-11.0
1706277445.527263,13.0,-14.0,-7.0,27.0,14.0,2.0,36.0,10.0
1706277445.527263,9.0,14.0,0.0,-20.0,-22.0,1.0,-3.0,0.0
1706277445.5476093,-23.0,2.0,-5.0,-2.0,22.0,-5.0,-2.0,-4.0
1706277445.5476093,42.0,18.0,4.0,11.0,-4.0,-2.0,8.0,11.0
1706277445.5476093,-15.0,-27.0,-2.0,5.0,2.0,7.0,-10.0,-7.0
1706277445.5476093,6.0,5.0,0.0,3.0,4.0,-1.0,-3.0,-6.0
1706277445.5883508,-12.0,6.0,-8.0,14.0,2.0,1.0,10.0,2.0
1706277445.5883508,4.0,-2.0,-20.0,-21.0,-12.0,-7.0,-3.0,-4.0
1706277445.5883508,18.0,32.0,2.0,10.0,7.0,3.0,-6.0,-1.0
1706277445.5883508,10.0,-8.0,-2.0,-6.0,-15.0,-13.0,-6.0,-1.0
1706277445.5923505,22.0,3.0,1.0,4.0,-2.0,-2.0,-7.0,6.0
1706277445.5923505,-29.0,-30.0,-8.0,-21.0,-8.0,-6.0,3.0,-17.0
1706277445.593377,50.0,31.0,8.0,6.0,-4.0,0.0,2.0,17.0
1706277445.593377,-33.0,-6.0,12.0,5.0,9.0,14.0,0.0,-6.0
1706277445.6097643,-74.0,-56.0,-12.0,-1.0,2.0,-4.0,-4.0,-7.0
1706277445.6097643,42.0,-5.0,-7.0,-20.0,-13.0,-9.0,0.0,9.0
1706277445.6097643,-81.0,-19.0,11.0,29.0,22.0,21.0,2.0,-8.0
1706277445.6097643,79.0,50.0,6.0,0.0,0.0,2.0,3.0,8.0
1706277445.6297617,-38.0,-34.0,1.0,6.0,7.0,11.0,6.0,9.0
1706277445.6297617,7.0,7.0,-1.0,-4.0,3.0,7.0,2.0,-5.0
1706277445.639769,-12.0,-10.0,8.0,11.0,-1.0,-8.0,-8.0,-2.0
1706277445.639769,-3.0,0.0,-14.0,-14.0,-10.0,-7.0,0.0,11.0
1706277445.6500266,30.0,15.0,-7.0,1.0,5.0,6.0,-3.0,-18.0
1706277445.6500266,-16.0,6.0,-11.0,-43.0,-16.0,-3.0,1.0,-3.0
1706277445.6500266,20.0,5.0,9.0,38.0,18.0,5.0,4.0,11.0
1706277445.6500266,-7.0,-7.0,-3.0,-6.0,-5.0,-3.0,1.0,-4.0
1706277445.6700733,37.0,13.0,1.0,39.0,13.0,-7.0,-2.0,6.0
1706277445.6700733,-23.0,-7.0,20.0,-6.0,-5.0,-7.0,-6.0,-4.0
1706277445.6700733,9.0,13.0,-2.0,-16.0,-14.0,-13.0,-7.0,5.0
1706277445.6700733,-14.0,-18.0,-15.0,-12.0,1.0,14.0,9.0,-14.0
1706277445.6897619,14.0,8.0,-12.0,-12.0,-2.0,0.0,-7.0,-8.0
1706277445.6897619,-1.0,11.0,-3.0,7.0,11.0,12.0,3.0,2.0
1706277445.6897619,5.0,3.0,0.0,6.0,-3.0,-6.0,-1.0,2.0
1706277445.6897619,-17.0,-10.0,-7.0,-2.0,-5.0,-7.0,-9.0,-2.0
1706277445.710145,5.0,-15.0,-1.0,-12.0,-2.0,1.0,4.0,2.0
1706277445.710145,-10.0,9.0,2.0,5.0,2.0,3.0,3.0,-13.0
1706277445.710145,21.0,29.0,-10.0,-42.0,-15.0,-7.0,-6.0,0.0
1706277445.710145,-18.0,-4.0,8.0,-11.0,-4.0,-7.0,-5.0,-8.0
1706277445.7397633,10.0,22.0,-11.0,40.0,16.0,11.0,10.0,3.0
1706277445.7397633,5.0,-29.0,8.0,8.0,-4.0,-3.0,1.0,16.0
1706277445.7397633,-20.0,-11.0,-9.0,-2.0,5.0,5.0,3.0,-8.0
1706277445.7397633,0.0,-1.0,-2.0,-7.0,-8.0,-5.0,-3.0,2.0
1706277445.7501307,6.0,0.0,-3.0,-24.0,-12.0,-9.0,-3.0,-1.0
1706277445.7501307,6.0,20.0,-4.0,1.0,-7.0,-6.0,-5.0,2.0
1706277445.7501307,-18.0,-18.0,-3.0,7.0,2.0,4.0,-1.0,-6.0
1706277445.7501307,-8.0,-1.0,0.0,5.0,6.0,4.0,1.0,2.0
1706277445.7701294,-2.0,6.0,5.0,-16.0,-10.0,-1.0,-3.0,-3.0
1706277445.7701294,12.0,-19.0,-6.0,6.0,-1.0,-11.0,-4.0,2.0
1706277445.7701294,-8.0,-12.0,-7.0,-9.0,-5.0,-7.0,-6.0,-8.0
1706277445.7701294,8.0,10.0,10.0,12.0,4.0,-2.0,2.0,6.0
1706277445.7901454,1.0,-1.0,0.0,-4.0,4.0,12.0,4.0,0.0
1706277445.7901454,-20.0,0.0,-6.0,-21.0,-6.0,-4.0,-2.0,-5.0
1706277445.7901454,-8.0,-9.0,5.0,12.0,3.0,-3.0,-6.0,-6.0
1706277445.7901454,5.0,0.0,-5.0,12.0,-4.0,-10.0,-2.0,6.0
1706277445.8097606,-23.0,-20.0,-12.0,-22.0,-9.0,-6.0,-1.0,-5.0
1706277445.8097606,6.0,17.0,16.0,15.0,7.0,3.0,0.0,2.0
1706277445.8097606,32.0,5.0,5.0,-4.0,-6.0,-2.0,0.0,9.0
1706277445.8097606,-29.0,4.0,-8.0,-1.0,5.0,5.0,-2.0,-8.0
1706277445.8301322,1.0,-17.0,3.0,-8.0,-2.0,-2.0,-1.0,2.0
1706277445.8301322,-8.0,21.0,-25.0,-13.0,-14.0,-7.0,-5.0,-6.0
1706277445.8301322,-10.0,-18.0,1.0,2.0,-1.0,-1.0,-1.0,-6.0
1706277445.8301322,18.0,14.0,14.0,5.0,6.0,8.0,5.0,4.0
1706277445.849765,18.0,24.0,-1.0,5.0,-5.0,-10.0,-7.0,-3.0
1706277445.849765,-6.0,-18.0,4.0,-5.0,-2.0,1.0,-1.0,6.0
1706277445.849765,3.0,10.0,-9.0,-8.0,-8.0,-2.0,3.0,1.0
1706277445.849765,6.0,-15.0,-5.0,-5.0,-5.0,0.0,-2.0,-3.0
1706277445.8698301,4.0,18.0,15.0,18.0,9.0,-2.0,-1.0,4.0
1706277445.8698301,-12.0,-38.0,-38.0,-2.0,5.0,9.0,7.0,-2.0
1706277445.8698301,-2.0,12.0,-15.0,-19.0,-11.0,-8.0,-4.0,-5.0
1706277445.8698301,2.0,9.0,25.0,18.0,4.0,0.0,-4.0,-10.0
1706277445.8897636,-13.0,-32.0,-7.0,-10.0,-2.0,-2.0,3.0,7.0
1706277445.8897636,-8.0,-3.0,26.0,10.0,4.0,0.0,-1.0,-3.0
1706277445.8897636,1.0,-5.0,-15.0,-4.0,-4.0,-4.0,-3.0,-9.0
1706277445.8897636,-10.0,-9.0,-3.0,-3.0,3.0,1.0,3.0,11.0
1706277445.9097624,14.0,15.0,6.0,-3.0,-16.0,-22.0,-12.0,-10.0
1706277445.9097624,1.0,16.0,-3.0,3.0,-1.0,-2.0,1.0,0.0
1706277445.9097624,-4.0,-31.0,2.0,0.0,7.0,7.0,7.0,13.0
1706277445.9097624,-7.0,-19.0,-5.0,-4.0,-7.0,-13.0,-10.0,-8.0
1706277445.930151,2.0,12.0,6.0,3.0,1.0,-3.0,3.0,11.0
1706277445.930151,14.0,0.0,-15.0,-4.0,-1.0,2.0,-1.0,-21.0
1706277445.930151,-24.0,13.0,13.0,7.0,-1.0,-10.0,-17.0,-16.0
1706277445.930151,-1.0,1.0,-8.0,-2.0,1.0,14.0,13.0,6.0
1706277445.9501178,46.0,21.0,-7.0,-9.0,-8.0,-10.0,-1.0,9.0
1706277445.9501178,-10.0,-26.0,3.0,3.0,5.0,10.0,4.0,1.0
1706277445.9501178,-10.0,-1.0,-4.0,0.0,-4.0,-5.0,-6.0,-4.0
1706277445.9501178,-3.0,17.0,-7.0,-14.0,-11.0,-19.0,-15.0,-16.0
1706277445.979761,-6.0,6.0,2.0,3.0,11.0,16.0,-3.0,-10.0
1706277445.979761,9.0,13.0,7.0,3.0,2.0,7.0,9.0,13.0
1706277445.979761,-18.0,-19.0,9.0,8.0,0.0,-5.0,-1.0,-10.0
1706277445.979761,11.0,-7.0,-11.0,-14.0,-10.0,-9.0,-5.0,-1.0
1706277445.9901388,-25.0,-21.0,-21.0,-9.0,-12.0,-9.0,0.0,-10.0
1706277445.9901388,1.0,7.0,11.0,-11.0,-8.0,-7.0,-6.0,-3.0
1706277445.9901388,18.0,-1.0,-8.0,-3.0,0.0,1.0,1.0,10.0
1706277445.9901388,-21.0,-25.0,-10.0,5.0,-1.0,-4.0,-6.0,-8.0
1706277446.0197625,-11.0,-2.0,31.0,-4.0,-2.0,20.0,13.0,1.0
1706277446.0197625,7.0,-5.0,-41.0,-8.0,-6.0,-5.0,-2.0,3.0
1706277446.0197625,18.0,33.0,39.0,27.0,6.0,-6.0,2.0,6.0
1706277446.0197625,7.0,-1.0,-4.0,3.0,9.0,17.0,16.0,9.0
1706277446.0300164,6.0,15.0,26.0,0.0,7.0,13.0,4.0,6.0
1706277446.0300164,9.0,-2.0,-23.0,-9.0,-8.0,-10.0,-11.0,-2.0
1706277446.0300164,-6.0,-20.0,0.0,-11.0,2.0,13.0,6.0,1.0
1706277446.0300164,4.0,5.0,14.0,12.0,9.0,0.0,-6.0,-1.0
1706277446.059773,-5.0,-10.0,-9.0,-8.0,-8.0,-7.0,3.0,1.0
1706277446.059773,-6.0,11.0,1.0,-26.0,-12.0,3.0,-2.0,-4.0
1706277446.059773,-2.0,-13.0,-26.0,-18.0,-10.0,-3.0,-4.0,-4.0
1706277446.059773,30.0,35.0,29.0,13.0,6.0,7.0,8.0,14.0
1706277446.0897632,-9.0,-10.0,-2.0,6.0,8.0,4.0,-4.0,-9.0
1706277446.0897632,-7.0,-12.0,6.0,-4.0,9.0,-2.0,-3.0,0.0
1706277446.0897632,5.0,-1.0,0.0,-14.0,-8.0,0.0,3.0,9.0
1706277446.0897632,-26.0,-18.0,-19.0,-26.0,-11.0,-16.0,-15.0,-15.0
1706277446.0897632,10.0,5.0,1.0,-15.0,0.0,17.0,10.0,6.0
1706277446.0997612,8.0,12.0,4.0,7.0,-4.0,-9.0,-3.0,-2.0
1706277446.0997612,-22.0,-32.0,-24.0,-5.0,0.0,-7.0,-10.0,-8.0
1706277446.0997612,-19.0,5.0,-7.0,-10.0,-6.0,1.0,1.0,-19.0
1706277446.1181521,28.0,14.0,-4.0,62.0,11.0,-5.0,-1.0,7.0
1706277446.1181521,-9.0,-5.0,30.0,-25.0,-14.0,-15.0,-10.0,-4.0
1706277446.1181521,25.0,45.0,-13.0,-18.0,12.0,17.0,1.0,-4.0
1706277446.1181521,-13.0,-34.0,-4.0,-9.0,-5.0,-6.0,-9.0,3.0
1706277446.1405194,11.0,12.0,-25.0,2.0,-3.0,-1.0,2.0,-4.0
1706277446.1405194,20.0,3.0,15.0,36.0,13.0,0.0,-4.0,0.0
1706277446.141519,4.0,13.0,10.0,21.0,-2.0,-1.0,11.0,-4.0
1706277446.141519,-3.0,-16.0,-4.0,-10.0,-4.0,-3.0,-4.0,-5.0
1706277446.1540663,32.0,23.0,3.0,-3.0,5.0,-5.0,-5.0,16.0
1706277446.1540663,-34.0,-25.0,-16.0,-1.0,-4.0,2.0,0.0,-2.0
1706277446.1540663,-12.0,-23.0,7.0,-8.0,-5.0,-4.0,1.0,-1.0
1706277446.1540663,3.0,22.0,15.0,15.0,14.0,11.0,11.0,11.0
1706277446.174062,-12.0,-40.0,-15.0,-12.0,-11.0,-8.0,-1.0,-8.0
1706277446.174062,-29.0,9.0,9.0,10.0,6.0,3.0,-2.0,-8.0
1706277446.174062,6.0,16.0,-2.0,-2.0,-6.0,-7.0,-4.0,-1.0
1706277446.174062,18.0,-24.0,22.0,15.0,10.0,13.0,12.0,15.0
1706277446.1936562,-20.0,-1.0,-5.0,0.0,-4.0,-9.0,-7.0,-5.0
1706277446.1936562,-6.0,-11.0,3.0,-21.0,-5.0,3.0,4.0,-1.0
1706277446.1936562,3.0,3.0,1.0,8.0,2.0,0.0,-2.0,-4.0
1706277446.1936562,6.0,37.0,-21.0,-8.0,-11.0,-7.0,-6.0,-1.0
1706277446.2140357,-19.0,-18.0,-11.0,-31.0,-10.0,-10.0,-13.0,-16.0
1706277446.2140357,16.0,19.0,-46.0,-4.0,-12.0,-6.0,5.0,2.0
1706277446.2140357,7.0,3.0,19.0,-15.0,4.0,4.0,3.0,2.0
1706277446.2140357,-13.0,-22.0,-7.0,27.0,12.0,2.0,1.0,-7.0
1706277446.243657,-7.0,-18.0,31.0,12.0,5.0,7.0,3.0,2.0
1706277446.243657,-4.0,14.0,-13.0,-18.0,-7.0,-8.0,-4.0,-6.0
1706277446.243657,6.0,-9.0,-10.0,-13.0,-9.0,-1.0,0.0,5.0
1706277446.243657,-8.0,-21.0,-10.0,-20.0,-12.0,1.0,1.0,-4.0
1706277446.253674,5.0,6.0,23.0,62.0,28.0,5.0,-1.0,-2.0
1706277446.253674,-18.0,-5.0,-27.0,-36.0,-11.0,-6.0,-4.0,-6.0
1706277446.253674,5.0,3.0,11.0,8.0,4.0,2.0,8.0,8.0
1706277446.253674,5.0,0.0,-3.0,-51.0,-19.0,-10.0,-7.0,-3.0
1706277446.2739818,6.0,11.0,-20.0,-14.0,-5.0,-5.0,-4.0,-7.0
1706277446.2739818,-30.0,-31.0,14.0,19.0,-16.0,-12.0,-11.0,-14.0
1706277446.2739818,8.0,6.0,-11.0,9.0,18.0,10.0,8.0,16.0
1706277446.2739818,12.0,11.0,-5.0,21.0,18.0,8.0,1.0,1.0
1706277446.3136601,-26.0,-6.0,-2.0,-14.0,-7.0,-5.0,-5.0,-1.0
1706277446.3136601,27.0,17.0,12.0,9.0,1.0,-9.0,-4.0,-8.0
1706277446.3236592,-31.0,-19.0,-2.0,2.0,-5.0,-5.0,-2.0,-12.0
1706277446.3236592,-4.0,-19.0,13.0,21.0,11.0,17.0,10.0,6.0
1706277446.3236592,10.0,10.0,-1.0,-5.0,-4.0,-5.0,-3.0,3.0
1706277446.3236592,28.0,18.0,5.0,-6.0,1.0,-5.0,-9.0,14.0
1706277446.3236592,-28.0,-29.0,-4.0,4.0,-5.0,-9.0,-9.0,-16.0
1706277446.3236592,-9.0,13.0,-4.0,2.0,2.0,9.0,16.0,2.0
1706277446.3336835,-18.0,-1.0,-14.0,-29.0,-15.0,-11.0,-13.0,-21.0
1706277446.3336835,-18.0,-15.0,10.0,6.0,6.0,8.0,-4.0,-1.0
1706277446.3336835,22.0,9.0,2.0,15.0,7.0,-4.0,-15.0,-4.0
1706277446.3336835,-33.0,-22.0,-11.0,-11.0,-3.0,-7.0,-10.0,-3.0
1706277446.3636575,4.0,10.0,0.0,3.0,6.0,12.0,8.0,-5.0
1706277446.3636575,-4.0,31.0,-2.0,-5.0,-10.0,-10.0,-14.0,-11.0
1706277446.3636575,23.0,5.0,13.0,15.0,13.0,7.0,5.0,8.0
1706277446.3636575,-4.0,4.0,-10.0,-2.0,1.0,-3.0,-9.0,-9.0
1706277446.3636575,-6.0,-12.0,-5.0,-44.0,-29.0,-12.0,-4.0,-2.0
1706277446.3636575,16.0,-4.0,-5.0,33.0,31.0,15.0,10.0,6.0
1706277446.3736584,-10.0,18.0,-16.0,-54.0,-32.0,-14.0,-5.0,-4.0
1706277446.3736584,12.0,-20.0,-1.0,46.0,23.0,7.0,6.0,9.0
1706277446.3944685,5.0,3.0,29.0,36.0,21.0,4.0,4.0,12.0
1706277446.3944685,2.0,-2.0,6.0,-16.0,-12.0,6.0,11.0,10.0
1706277446.3944685,-18.0,-8.0,9.0,-11.0,-2.0,-4.0,-7.0,-13.0
1706277446.3944685,21.0,-7.0,-45.0,-7.0,-10.0,-6.0,1.0,7.0
1706277446.4240668,-22.0,-15.0,31.0,-15.0,-4.0,-2.0,-4.0,-2.0
1706277446.4240668,20.0,20.0,52.0,40.0,11.0,-1.0,5.0,9.0
1706277446.4240668,-26.0,-39.0,-39.0,-7.0,-9.0,-11.0,-10.0,-3.0
1706277446.4240668,23.0,8.0,7.0,-16.0,-14.0,2.0,3.0,9.0
1706277446.4240668,-44.0,-18.0,-30.0,12.0,14.0,14.0,4.0,-29.0
1706277446.4240668,20.0,7.0,-1.0,-12.0,-7.0,-12.0,-5.0,14.0
1706277446.4240668,2.0,15.0,13.0,24.0,11.0,12.0,9.0,-8.0
1706277446.4240668,-14.0,24.0,16.0,1.0,-10.0,-21.0,-6.0,5.0
1706277446.4544866,61.0,-17.0,-39.0,-25.0,-11.0,14.0,4.0,9.0
1706277446.4544866,-25.0,-8.0,7.0,7.0,6.0,2.0,-1.0,-12.0
1706277446.4544866,-16.0,2.0,-2.0,13.0,4.0,5.0,-2.0,-5.0
1706277446.4544866,-7.0,4.0,-3.0,-6.0,1.0,10.0,7.0,5.0
1706277446.4740973,-10.0,4.0,10.0,4.0,0.0,-8.0,-4.0,-4.0
1706277446.4740973,-1.0,-11.0,-13.0,-2.0,4.0,6.0,-4.0,-9.0
1706277446.4740973,18.0,16.0,-4.0,-2.0,-14.0,-19.0,-13.0,-3.0
1706277446.4740973,-13.0,-13.0,4.0,-11.0,-8.0,-5.0,-3.0,-15.0
1706277446.4844537,5.0,-3.0,-11.0,-8.0,-6.0,-12.0,-5.0,12.0
1706277446.4844537,-9.0,-9.0,-19.0,-7.0,-7.0,2.0,5.0,1.0
1706277446.494395,13.0,20.0,12.0,8.0,12.0,7.0,2.0,4.0
1706277446.494395,5.0,-5.0,5.0,-12.0,-10.0,-10.0,-11.0,-3.0
1706277446.514313,-5.0,-6.0,-31.0,-63.0,-37.0,-15.0,-4.0,0.0
1706277446.514313,-11.0,-21.0,-3.0,87.0,50.0,13.0,1.0,-9.0
1706277446.514313,18.0,36.0,10.0,-8.0,4.0,5.0,8.0,9.0
1706277446.514313,-6.0,-12.0,19.0,43.0,-11.0,-7.0,-4.0,0.0
1706277446.5340645,6.0,3.0,-11.0,-24.0,10.0,6.0,2.0,6.0
1706277446.5340645,10.0,23.0,11.0,-72.0,-31.0,-9.0,0.0,-3.0
1706277446.5340645,-18.0,-22.0,-1.0,47.0,7.0,2.0,-3.0,-3.0
1706277446.5340645,-6.0,-10.0,-19.0,-51.0,-8.0,-5.0,-4.0,-7.0
1706277446.5441012,13.0,17.0,10.0,-10.0,0.0,-6.0,-6.0,3.0
1706277446.5441012,1.0,-14.0,-44.0,-10.0,-8.0,-3.0,-3.0,-7.0
1706277446.5441012,-11.0,-11.0,25.0,9.0,6.0,7.0,12.0,9.0
1706277446.5540695,17.0,47.0,12.0,-37.0,-12.0,-5.0,-11.0,-11.0
1706277446.574503,0.0,-25.0,-6.0,40.0,11.0,0.0,3.0,4.0
1706277446.574503,17.0,16.0,13.0,1.0,5.0,7.0,8.0,7.0
1706277446.574503,-9.0,-27.0,-7.0,-7.0,-3.0,-4.0,1.0,2.0
1706277446.574503,9.0,-5.0,2.0,19.0,7.0,1.0,0.0,-6.0
1706277446.594099,-1.0,-1.0,-13.0,5.0,-1.0,-6.0,2.0,8.0
1706277446.594099,-18.0,-14.0,19.0,5.0,-8.0,-10.0,-14.0,-17.0
1706277446.594099,-1.0,20.0,-14.0,-16.0,-1.0,3.0,-3.0,-7.0
1706277446.594099,8.0,6.0,-7.0,4.0,0.0,-8.0,-4.0,9.0
1706277446.6044433,9.0,21.0,7.0,5.0,-5.0,-3.0,1.0,1.0
1706277446.6044433,-27.0,-26.0,-11.0,-13.0,-6.0,3.0,5.0,3.0
1706277446.6143937,28.0,11.0,-5.0,-6.0,-4.0,6.0,18.0,15.0
1706277446.6143937,-17.0,-5.0,7.0,0.0,3.0,1.0,-10.0,-13.0
1706277446.6340628,2.0,11.0,15.0,13.0,21.0,22.0,11.0,3.0
1706277446.6340628,-26.0,-13.0,-7.0,-3.0,-13.0,-16.0,-9.0,-5.0
1706277446.6340628,-6.0,-8.0,9.0,29.0,17.0,5.0,-1.0,-4.0
1706277446.6340628,-2.0,2.0,7.0,25.0,7.0,0.0,7.0,4.0
1706277446.6587007,7.0,12.0,-14.0,-14.0,-42.0,-38.0,-18.0,-14.0
1706277446.6587007,1.0,-11.0,4.0,-2.0,5.0,4.0,1.0,5.0
1706277446.659751,-1.0,-6.0,-7.0,-45.0,-15.0,-6.0,-4.0,1.0
1706277446.659751,-1.0,-1.0,0.0,20.0,7.0,0.0,1.0,4.0
1706277446.6724796,6.0,17.0,7.0,10.0,2.0,-6.0,-8.0,1.0
1706277446.6735072,-4.0,24.0,-10.0,-21.0,-15.0,-9.0,-10.0,-19.0
1706277446.6753159,6.0,-13.0,-33.0,-25.0,-24.0,-24.0,-18.0,5.0
1706277446.6753159,3.0,15.0,15.0,4.0,11.0,9.0,0.0,-20.0
1706277446.6955123,-5.0,-12.0,16.0,0.0,6.0,4.0,6.0,27.0
1706277446.6955123,15.0,14.0,-9.0,12.0,10.0,9.0,-1.0,-20.0
1706277446.6955123,-18.0,4.0,15.0,7.0,-14.0,-4.0,-5.0,-7.0
1706277446.6955123,-3.0,-2.0,-21.0,-32.0,-1.0,-1.0,-4.0,3.0
1706277446.7153125,10.0,-6.0,-25.0,7.0,-9.0,-5.0,-6.0,-10.0
1706277446.7153125,6.0,1.0,-2.0,-1.0,2.0,-1.0,3.0,18.0
1706277446.7153125,-14.0,-2.0,-5.0,-1.0,-8.0,-3.0,-8.0,-25.0
1706277446.7153125,-13.0,-14.0,-13.0,0.0,-7.0,-10.0,-4.0,-3.0
1706277446.725327,43.0,15.0,3.0,3.0,3.0,6.0,2.0,-2.0
1706277446.725327,-71.0,-65.0,-1.0,-14.0,3.0,8.0,6.0,-1.0
1706277446.7356324,-1.0,-11.0,-11.0,-4.0,-7.0,-5.0,-2.0,-8.0
1706277446.7356324,52.0,43.0,27.0,31.0,21.0,15.0,14.0,24.0
1706277446.7553122,-33.0,-17.0,5.0,-30.0,-4.0,1.0,-7.0,-13.0
1706277446.7553122,-1.0,-2.0,20.0,66.0,39.0,14.0,10.0,9.0
1706277446.7553122,10.0,14.0,3.0,-35.0,-34.0,-11.0,-3.0,5.0
1706277446.7553122,-19.0,-23.0,-4.0,44.0,15.0,6.0,2.0,-3.0
1706277446.7757065,-6.0,11.0,-7.0,-84.0,-31.0,-10.0,-5.0,-6.0
1706277446.7757065,13.0,-17.0,12.0,22.0,9.0,3.0,2.0,6.0
1706277446.7757065,-42.0,-20.0,-7.0,-14.0,9.0,3.0,-5.0,-11.0
1706277446.7757065,22.0,10.0,-21.0,-53.0,-33.0,-13.0,-4.0,5.0
1706277446.7853138,2.0,-8.0,9.0,107.0,41.0,16.0,9.0,5.0
1706277446.7853138,-2.0,-7.0,-15.0,-38.0,-19.0,-9.0,-4.0,2.0
1706277446.79559,9.0,5.0,-8.0,-13.0,2.0,2.0,0.0,-1.0
1706277446.79559,-22.0,-37.0,10.0,-26.0,-2.0,4.0,2.0,-1.0
1706277446.8153124,-18.0,7.0,28.0,12.0,5.0,2.0,-4.0,-6.0
1706277446.8153124,5.0,18.0,12.0,-22.0,-12.0,-5.0,-4.0,0.0
1706277446.8153124,4.0,-16.0,-15.0,32.0,22.0,5.0,-4.0,-14.0
1706277446.8153124,-15.0,-6.0,7.0,-9.0,-7.0,4.0,13.0,18.0
1706277446.835597,15.0,4.0,-2.0,14.0,-2.0,3.0,0.0,1.0
1706277446.835597,10.0,19.0,-9.0,-9.0,-10.0,-5.0,1.0,2.0
1706277446.835597,18.0,-17.0,8.0,2.0,8.0,4.0,4.0,2.0
1706277446.835597,-11.0,13.0,-3.0,4.0,-1.0,-1.0,-7.0,-13.0
1706277446.8553152,-14.0,-12.0,8.0,16.0,13.0,2.0,4.0,-3.0
1706277446.8553152,-8.0,18.0,-27.0,-21.0,-15.0,-8.0,-2.0,-1.0
1706277446.8653107,32.0,17.0,22.0,7.0,-2.0,0.0,1.0,-1.0
1706277446.8653107,4.0,-32.0,-12.0,-7.0,-4.0,-7.0,-4.0,-5.0
1706277446.87546,-17.0,-11.0,2.0,-6.0,4.0,4.0,-8.0,-13.0
1706277446.87546,17.0,27.0,-6.0,0.0,-1.0,4.0,1.0,2.0
1706277446.87546,-18.0,-2.0,1.0,15.0,-2.0,-2.0,7.0,14.0
1706277446.87546,-2.0,13.0,1.0,21.0,7.0,3.0,3.0,2.0
1706277446.8954837,8.0,10.0,-4.0,-19.0,-12.0,-13.0,-8.0,-7.0
1706277446.8954837,36.0,15.0,10.0,3.0,4.0,9.0,8.0,13.0
1706277446.8954837,3.0,17.0,7.0,17.0,19.0,16.0,-3.0,0.0
1706277446.8954837,-16.0,-13.0,-10.0,-8.0,-24.0,-28.0,-12.0,-16.0
1706277446.9253132,0.0,-11.0,-13.0,19.0,7.0,-2.0,-5.0,1.0
1706277446.9253132,-27.0,-23.0,-1.0,-2.0,-6.0,-7.0,0.0,-2.0
1706277446.935324,8.0,13.0,-3.0,3.0,3.0,-1.0,0.0,5.0
1706277446.935324,-2.0,11.0,-1.0,-9.0,4.0,12.0,-4.0,-12.0
1706277446.935324,-1.0,-17.0,-28.0,-4.0,-5.0,-6.0,-3.0,1.0
1706277446.935324,6.0,-2.0,15.0,-19.0,-20.0,-15.0,-14.0,-10.0
1706277446.935324,-23.0,-18.0,33.0,47.0,22.0,7.0,11.0,2.0
1706277446.935324,-40.0,-52.0,8.0,-28.0,-8.0,1.0,-3.0,-5.0
1706277446.9555979,19.0,20.0,10.0,4.0,17.0,13.0,17.0,11.0
1706277446.9555979,-9.0,-19.0,-51.0,9.0,7.0,9.0,10.0,11.0
1706277446.9555979,-10.0,-23.0,28.0,-1.0,-9.0,-7.0,-6.0,-4.0
1706277446.9555979,-1.0,23.0,-29.0,-32.0,-2.0,0.0,-6.0,-7.0
1706277446.9853623,-3.0,-10.0,9.0,-49.0,-24.0,-9.0,-4.0,-2.0
1706277446.9853623,-6.0,-2.0,-14.0,7.0,-2.0,-5.0,-6.0,-11.0
1706277446.9853623,8.0,-9.0,-37.0,-18.0,-5.0,1.0,1.0,5.0
1706277446.9853623,17.0,46.0,38.0,67.0,28.0,8.0,5.0,8.0
1706277446.995421,-23.0,-39.0,-8.0,1.0,-2.0,1.0,2.0,-3.0
1706277446.995421,17.0,2.0,13.0,-7.0,6.0,6.0,5.0,11.0
1706277446.995421,0.0,5.0,-5.0,-27.0,-18.0,-8.0,-3.0,0.0
1706277446.995421,16.0,7.0,1.0,11.0,10.0,4.0,2.0,2.0
1706277447.0157552,9.0,23.0,8.0,10.0,13.0,12.0,-1.0,8.0
1706277447.0157552,-16.0,-28.0,13.0,0.0,-2.0,-6.0,-9.0,-16.0
1706277447.0157552,8.0,-1.0,-13.0,8.0,-10.0,0.0,4.0,6.0
1706277447.0157552,-17.0,10.0,-4.0,15.0,3.0,-3.0,3.0,3.0
1706277447.0358174,17.0,15.0,10.0,19.0,10.0,6.0,2.0,1.0
1706277447.0358174,6.0,1.0,-6.0,0.0,-4.0,-8.0,-10.0,-6.0
1706277447.0358174,29.0,23.0,1.0,-34.0,-8.0,10.0,12.0,12.0
1706277447.0358174,13.0,1.0,0.0,4.0,13.0,5.0,-9.0,0.0
1706277447.0557172,-45.0,-13.0,-6.0,-2.0,1.0,7.0,18.0,2.0
1706277447.0557172,35.0,25.0,15.0,7.0,6.0,6.0,-6.0,6.0
1706277447.0557172,-40.0,-27.0,-8.0,-10.0,0.0,-3.0,-10.0,-14.0
1706277447.0557172,9.0,-15.0,-4.0,-10.0,-18.0,-8.0,1.0,8.0
1706277447.07649,0.0,3.0,-7.0,-13.0,-8.0,-10.0,-10.0,-2.0
1706277447.07649,14.0,21.0,19.0,-3.0,6.0,11.0,4.0,-7.0
1706277447.07649,-29.0,-28.0,-1.0,11.0,-4.0,-13.0,-8.0,-5.0
1706277447.07649,-9.0,-2.0,-5.0,0.0,-3.0,3.0,-4.0,-5.0
1706277447.0962992,6.0,-11.0,4.0,4.0,1.0,2.0,3.0,-6.0
1706277447.0962992,-8.0,4.0,4.0,-22.0,-13.0,-8.0,3.0,-9.0
1706277447.0962992,-10.0,-10.0,-35.0,-6.0,-7.0,-12.0,-12.0,1.0
1706277447.0962992,6.0,-7.0,5.0,-9.0,-11.0,-7.0,-8.0,-7.0
1706277447.116142,32.0,79.0,25.0,36.0,3.0,2.0,9.0,22.0
1706277447.116142,-18.0,-56.0,7.0,-6.0,21.0,14.0,8.0,7.0
1706277447.116142,11.0,7.0,-6.0,-25.0,-9.0,-6.0,-1.0,2.0
1706277447.116142,-12.0,-41.0,-39.0,5.0,-6.0,0.0,-3.0,-18.0
1706277447.1561437,-1.0,-3.0,-18.0,-17.0,-19.0,-6.0,-3.0,13.0
1706277447.1561437,-29.0,3.0,8.0,22.0,10.0,-1.0,0.0,-4.0
1706277447.1561437,37.0,40.0,0.0,-18.0,-8.0,-5.0,-1.0,-3.0
1706277447.1561437,3.0,-18.0,-11.0,-18.0,-14.0,-2.0,5.0,10.0
1706277447.1561437,12.0,11.0,0.0,9.0,4.0,-5.0,-8.0,-14.0
1706277447.1561437,-21.0,-17.0,-5.0,10.0,3.0,-2.0,-3.0,-1.0
1706277447.1561437,-3.0,-11.0,2.0,2.0,9.0,11.0,5.0,2.0
1706277447.1561437,26.0,61.0,23.0,6.0,8.0,6.0,-1.0,-3.0
1706277447.1761467,-36.0,-32.0,-14.0,-22.0,-10.0,-10.0,-9.0,-17.0
1706277447.1761467,12.0,28.0,-18.0,-9.0,-11.0,-9.0,8.0,12.0
1706277447.176928,25.0,1.0,7.0,14.0,-2.0,-8.0,-16.0,-7.0
1706277447.176928,-25.0,-20.0,6.0,-19.0,-5.0,0.0,4.0,4.0
1706277447.1977544,-29.0,-29.0,-1.0,1.0,3.0,6.0,7.0,-10.0
1706277447.1977544,13.0,13.0,-5.0,16.0,11.0,-2.0,-7.0,-3.0
1706277447.1985035,15.0,30.0,25.0,14.0,11.0,7.0,9.0,6.0
1706277447.1985035,-17.0,-3.0,3.0,-3.0,8.0,1.0,-10.0,-4.0
1706277447.2179947,7.0,-13.0,-18.0,-7.0,-11.0,-6.0,-4.0,-2.0
1706277447.2179947,15.0,26.0,2.0,20.0,-6.0,-6.0,1.0,2.0
1706277447.2179947,-3.0,1.0,-8.0,-14.0,-2.0,4.0,4.0,4.0
1706277447.2179947,-7.0,-8.0,4.0,14.0,5.0,-1.0,-6.0,-14.0
1706277447.2283728,-14.0,-14.0,-18.0,-56.0,-7.0,10.0,0.0,-2.0
1706277447.2283728,21.0,21.0,34.0,41.0,17.0,2.0,-3.0,2.0
1706277447.2283728,-9.0,-16.0,-57.0,30.0,10.0,5.0,3.0,4.0
1706277447.2283728,26.0,47.0,41.0,-17.0,-7.0,-12.0,-1.0,6.0
1706277447.257995,-14.0,-21.0,-19.0,-57.0,-25.0,-13.0,-10.0,-10.0
1706277447.257995,-16.0,5.0,48.0,-64.0,-42.0,-19.0,-13.0,-11.0
1706277447.257995,13.0,-30.0,-62.0,75.0,61.0,15.0,9.0,6.0
1706277447.257995,-7.0,-14.0,110.0,46.0,8.0,10.0,6.0,4.0
1706277447.2779932,11.0,7.0,-55.0,-50.0,-8.0,1.0,4.0,6.0
1706277447.2779932,3.0,10.0,-13.0,-60.0,-28.0,-13.0,-11.0,-6.0
1706277447.2779932,-25.0,-12.0,120.0,45.0,2.0,-1.0,1.0,-5.0
1706277447.2779932,17.0,26.0,-96.0,-26.0,-16.0,-6.0,0.0,-1.0
1706277447.2879987,4.0,-19.0,29.0,48.0,23.0,8.0,-1.0,1.0
1706277447.2879987,-2.0,25.0,22.0,53.0,16.0,13.0,8.0,8.0
1706277447.2879987,16.0,6.0,-34.0,-66.0,-31.0,-17.0,-10.0,-4.0
1706277447.2879987,4.0,-20.0,-23.0,-26.0,-10.0,-11.0,-6.0,-5.0
1706277447.3179972,-3.0,8.0,18.0,23.0,2.0,-2.0,-4.0,3.0
1706277447.3179972,-3.0,-44.0,-31.0,30.0,17.0,9.0,4.0,1.0
1706277447.3179972,-21.0,5.0,11.0,-19.0,-16.0,-8.0,-5.0,-8.0
1706277447.3179972,-5.0,-9.0,-20.0,-15.0,-5.0,-4.0,-1.0,1.0
1706277447.3382456,5.0,19.0,26.0,37.0,22.0,3.0,1.0,-2.0
1706277447.3382456,-7.0,-21.0,-11.0,-49.0,-16.0,-2.0,-2.0,-3.0
1706277447.3382456,-2.0,11.0,17.0,21.0,17.0,8.0,4.0,5.0
1706277447.3382456,-1.0,-4.0,-11.0,-2.0,-6.0,-4.0,-4.0,-2.0
1706277447.3479993,-5.0,0.0,10.0,7.0,-5.0,-6.0,-1.0,4.0
1706277447.3479993,-1.0,-13.0,-16.0,4.0,-3.0,-1.0,-2.0,-7.0
1706277447.377996,-12.0,1.0,-2.0,-25.0,-17.0,-11.0,-9.0,-12.0
1706277447.377996,-1.0,-5.0,1.0,-4.0,1.0,-7.0,-3.0,-2.0
1706277447.3879938,8.0,5.0,-1.0,11.0,-1.0,8.0,5.0,9.0
1706277447.3879938,-1.0,-17.0,-5.0,-3.0,-2.0,-15.0,-6.0,5.0
1706277447.3879938,-7.0,5.0,4.0,-7.0,-5.0,-5.0,-8.0,-11.0
1706277447.3879938,-4.0,-7.0,7.0,13.0,24.0,25.0,12.0,5.0
1706277447.398371,2.0,5.0,5.0,7.0,0.0,-3.0,-3.0,-6.0
1706277447.398371,1.0,3.0,-9.0,6.0,5.0,-2.0,8.0,2.0
1706277447.398371,-1.0,2.0,6.0,-8.0,-3.0,1.0,2.0,2.0
1706277447.398371,-6.0,-14.0,-9.0,-14.0,-13.0,-16.0,-9.0,-3.0
1706277447.4079964,-4.0,4.0,6.0,9.0,-5.0,-11.0,-10.0,-9.0
1706277447.4079964,-4.0,-5.0,-7.0,-22.0,-13.0,-5.0,-12.0,-6.0
1706277447.4079964,-12.0,-12.0,-23.0,7.0,-6.0,-6.0,3.0,-1.0
1706277447.4079964,0.0,2.0,6.0,9.0,2.0,3.0,2.0,1.0
1706277447.4380612,3.0,1.0,0.0,5.0,2.0,-3.0,-3.0,-3.0
1706277447.4380612,-3.0,-3.0,-2.0,3.0,-1.0,0.0,-1.0,-3.0
1706277447.4380612,4.0,5.0,8.0,-7.0,-1.0,3.0,3.0,3.0
1706277447.4380612,2.0,-1.0,-2.0,4.0,-1.0,0.0,1.0,1.0
1706277447.4579978,-4.0,-4.0,-8.0,9.0,3.0,3.0,0.0,-1.0
1706277447.4579978,2.0,2.0,7.0,6.0,2.0,1.0,2.0,-1.0
1706277447.4579978,1.0,4.0,-3.0,-11.0,-4.0,5.0,1.0,2.0
1706277447.4579978,1.0,5.0,14.0,7.0,-4.0,-13.0,2.0,8.0
1706277447.487993,-12.0,-12.0,-4.0,-1.0,6.0,16.0,4.0,-15.0
1706277447.487993,-2.0,-1.0,-21.0,-1.0,5.0,4.0,2.0,-4.0
1706277447.487993,0.0,1.0,22.0,4.0,1.0,-1.0,1.0,2.0
1706277447.487993,-6.0,-4.0,-3.0,-10.0,-10.0,-9.0,-9.0,-7.0
1706277447.4979944,4.0,1.0,-6.0,-1.0,-2.0,-3.0,-1.0,12.0
1706277447.4979944,6.0,5.0,-2.0,4.0,1.0,1.0,-2.0,3.0
1706277447.4979944,-3.0,7.0,-3.0,-8.0,-4.0,-4.0,-3.0,-4.0
1706277447.4979944,-3.0,-4.0,-4.0,6.0,2.0,3.0,-1.0,-8.0
1706277447.5184374,1.0,-1.0,3.0,-23.0,-6.0,-7.0,0.0,5.0
1706277447.5184374,-3.0,-4.0,2.0,-7.0,-1.0,6.0,2.0,0.0
1706277447.5184374,5.0,1.0,14.0,34.0,15.0,-2.0,0.0,5.0
1706277447.5184374,-8.0,-12.0,-9.0,-25.0,-11.0,-2.0,-3.0,-2.0
1706277447.527996,7.0,11.0,-11.0,-41.0,-5.0,-6.0,-3.0,-4.0
1706277447.527996,1.0,-4.0,6.0,56.0,24.0,7.0,4.0,7.0
1706277447.527996,5.0,5.0,-2.0,-8.0,0.0,-2.0,-4.0,-2.0
1706277447.527996,6.0,8.0,5.0,56.0,26.0,13.0,8.0,6.0
1706277447.558093,-12.0,-23.0,-14.0,-29.0,-8.0,-10.0,-7.0,-6.0
1706277447.558093,-8.0,-7.0,-10.0,-33.0,-20.0,-8.0,-5.0,-6.0
1706277447.558093,-6.0,-1.0,-3.0,2.0,8.0,5.0,-1.0,-7.0
1706277447.558093,-2.0,-2.0,-3.0,9.0,-6.0,-1.0,-1.0,-4.0
1706277447.5783203,4.0,12.0,9.0,-8.0,-9.0,-8.0,-7.0,-4.0
1706277447.5783203,5.0,-4.0,-1.0,11.0,8.0,0.0,0.0,2.0
1706277447.5783203,-5.0,-5.0,-2.0,-6.0,-9.0,3.0,1.0,-3.0
1706277447.5783203,1.0,-6.0,-9.0,-8.0,0.0,-1.0,-1.0,4.0
1706277447.617996,-12.0,-5.0,2.0,15.0,0.0,0.0,-1.0,-1.0
1706277447.617996,3.0,17.0,22.0,4.0,0.0,3.0,-1.0,-4.0
1706277447.617996,-6.0,-9.0,-5.0,-16.0,-7.0,-4.0,-3.0,1.0
1706277447.617996,-8.0,1.0,-21.0,-21.0,-2.0,0.0,0.0,-1.0
1706277447.617996,-4.0,-17.0,-9.0,14.0,0.0,-2.0,-6.0,-5.0
1706277447.617996,-5.0,-7.0,-2.0,-18.0,-15.0,-17.0,-10.0,-6.0
1706277447.617996,0.0,-5.0,5.0,-11.0,-3.0,9.0,4.0,-2.0
1706277447.617996,5.0,3.0,8.0,11.0,11.0,12.0,3.0,1.0
1706277447.6379948,6.0,2.0,3.0,12.0,0.0,-1.0,2.0,7.0
1706277447.6379948,5.0,7.0,-4.0,-1.0,4.0,6.0,6.0,1.0
1706277447.6379948,-2.0,5.0,-1.0,-6.0,-7.0,-9.0,-4.0,0.0
1706277447.6379948,-3.0,-8.0,-9.0,-9.0,-8.0,-10.0,-6.0,-5.0
1706277447.6480272,2.0,5.0,13.0,0.0,6.0,2.0,-2.0,-4.0
1706277447.6480272,-9.0,-6.0,-7.0,-7.0,-8.0,-2.0,1.0,0.0
1706277447.6582513,-5.0,-8.0,-13.0,-10.0,-5.0,-3.0,0.0,-2.0
1706277447.6582513,7.0,6.0,5.0,4.0,14.0,6.0,3.0,2.0
1706277447.6780863,-2.0,2.0,7.0,24.0,0.0,-3.0,-4.0,-1.0
1706277447.6780863,-2.0,-4.0,0.0,2.0,3.0,2.0,4.0,-1.0
1706277447.6780863,5.0,3.0,-1.0,-6.0,1.0,2.0,-6.0,2.0
1706277447.6780863,-5.0,-4.0,-2.0,-17.0,-9.0,-6.0,8.0,-2.0
1706277447.71655,6.0,3.0,3.0,3.0,1.0,0.0,-11.0,-4.0
1706277447.71655,-1.0,1.0,-2.0,2.0,1.0,0.0,4.0,1.0
1706277447.71655,-1.0,-1.0,1.0,3.0,-1.0,-1.0,3.0,1.0
1706277447.71655,-4.0,-6.0,0.0,-5.0,-1.0,0.0,-11.0,-4.0
1706277447.71655,-1.0,6.0,0.0,5.0,0.0,-5.0,2.0,-3.0
1706277447.71655,10.0,4.0,5.0,2.0,0.0,9.0,3.0,0.0
1706277447.7234974,-10.0,-7.0,-6.0,-5.0,0.0,-3.0,9.0,3.0
1706277447.7234974,-1.0,-2.0,-2.0,0.0,-3.0,-1.0,-1.0,1.0
1706277447.7382202,-2.0,-6.0,1.0,0.0,-4.0,-2.0,2.0,-1.0
1706277447.7382202,-5.0,-3.0,-7.0,-6.0,-2.0,-3.0,-9.0,-4.0
1706277447.739232,2.0,0.0,-4.0,1.0,-1.0,-2.0,-7.0,-2.0
1706277447.739232,-2.0,2.0,5.0,1.0,-1.0,0.0,-2.0,-1.0
1706277447.7709992,-1.0,3.0,4.0,5.0,-1.0,-2.0,0.0,-1.0
1706277447.7709992,-2.0,-4.0,-6.0,-6.0,1.0,5.0,2.0,-2.0
1706277447.7709992,0.0,-3.0,-1.0,3.0,0.0,-5.0,-3.0,-2.0
1706277447.7709992,-1.0,-7.0,-4.0,-9.0,-8.0,-5.0,1.0,3.0
1706277447.7814014,0.0,9.0,-2.0,-5.0,-2.0,-5.0,-6.0,1.0
1706277447.7814014,-11.0,-13.0,0.0,-2.0,0.0,-5.0,-14.0,-11.0
1706277447.7814014,-3.0,-6.0,0.0,2.0,1.0,5.0,8.0,-6.0
1706277447.7814014,-2.0,-1.0,8.0,0.0,4.0,4.0,2.0,6.0
1706277447.79136,4.0,0.0,-3.0,-3.0,-3.0,2.0,1.0,-2.0
1706277447.79136,-4.0,0.0,-3.0,1.0,-1.0,-1.0,-1.0,2.0
1706277447.79136,4.0,0.0,3.0,2.0,-1.0,-3.0,-9.0,-1.0
1706277447.79136,4.0,9.0,-6.0,-8.0,-8.0,-7.0,-2.0,-6.0
1706277447.8210158,-9.0,-5.0,3.0,4.0,3.0,4.0,3.0,-2.0
1706277447.8210158,7.0,4.0,-15.0,-8.0,-3.0,-1.0,-1.0,2.0
1706277447.8210158,-4.0,-6.0,1.0,-5.0,-2.0,-1.0,-1.0,-1.0
1706277447.8210158,-3.0,-5.0,0.0,-1.0,-1.0,1.0,-2.0,-1.0
1706277447.8310363,-1.0,3.0,-1.0,-2.0,-1.0,-2.0,-1.0,0.0
1706277447.8310363,-1.0,-1.0,2.0,-1.0,-2.0,-2.0,-1.0,-2.0
1706277447.8412912,7.0,17.0,1.0,-1.0,0.0,1.0,2.0,3.0
1706277447.8412912,-6.0,-16.0,-9.0,0.0,-2.0,-3.0,-4.0,-4.0
1706277447.8512862,-4.0,-5.0,1.0,-2.0,-4.0,-4.0,0.0,-5.0
1706277447.8512862,-4.0,-2.0,-4.0,-1.0,2.0,0.0,3.0,0.0
1706277447.8512862,7.0,12.0,7.0,1.0,-1.0,-1.0,-1.0,4.0
1706277447.8512862,-3.0,1.0,-3.0,-2.0,0.0,-2.0,-2.0,-2.0
1706277447.8910043,-2.0,-25.0,-3.0,-1.0,1.0,3.0,1.0,0.0
1706277447.8910043,9.0,45.0,30.0,9.0,2.0,2.0,6.0,3.0
1706277447.8910043,-26.0,-65.0,-53.0,-18.0,-12.0,-11.0,-11.0,-14.0
1706277447.8910043,-1.0,-1.0,-6.0,-2.0,-1.0,2.0,-1.0,0.0
1706277447.9010346,3.0,1.0,1.0,6.0,2.0,3.0,5.0,5.0
1706277447.9010346,4.0,-2.0,8.0,3.0,1.0,1.0,2.0,3.0
1706277447.9010346,4.0,12.0,12.0,2.0,0.0,-2.0,-2.0,2.0
1706277447.9010346,2.0,9.0,5.0,-2.0,-2.0,-1.0,1.0,3.0
1706277447.930999,-4.0,-14.0,-16.0,-9.0,-5.0,-2.0,0.0,-1.0
1706277447.930999,-5.0,-9.0,-2.0,1.0,4.0,3.0,2.0,-1.0
1706277447.930999,0.0,7.0,12.0,3.0,2.0,1.0,-2.0,0.0
1706277447.930999,0.0,-6.0,-1.0,-3.0,-1.0,0.0,-1.0,0.0
1706277447.9410028,8.0,28.0,15.0,4.0,-2.0,-3.0,-3.0,0.0
1706277447.9410028,-11.0,-20.0,-32.0,-9.0,-7.0,-6.0,-5.0,-4.0
1706277447.9410028,0.0,-1.0,7.0,7.0,6.0,4.0,2.0,1.0
1706277447.9410028,3.0,6.0,6.0,-9.0,-2.0,-3.0,-2.0,-3.0
1706277447.961421,0.0,-8.0,-6.0,-17.0,-14.0,-4.0,-2.0,-1.0
1706277447.961421,-8.0,1.0,4.0,14.0,16.0,0.0,-4.0,-1.0
1706277447.961421,5.0,5.0,-3.0,31.0,17.0,5.0,2.0,1.0
1706277447.961421,-3.0,-5.0,-3.0,-14.0,-6.0,-1.0,-2.0,-2.0
1706277447.9711747,2.0,9.0,11.0,28.0,17.0,3.0,0.0,-1.0
1706277447.9711747,1.0,-10.0,-7.0,-19.0,-12.0,-6.0,-5.0,-2.0
1706277447.9711747,-5.0,1.0,-2.0,-18.0,-14.0,-4.0,1.0,0.0
1706277447.9711747,-3.0,0.0,-4.0,3.0,-8.0,-3.0,-4.0,-3.0
1706277448.0010061,0.0,-4.0,-7.0,-1.0,9.0,-1.0,-2.0,-1.0
1706277448.0010061,2.0,-2.0,-1.0,2.0,-3.0,2.0,2.0,-1.0
1706277448.0010061,1.0,6.0,14.0,36.0,5.0,-2.0,-1.0,3.0
1706277448.0010061,1.0,1.0,-6.0,-8.0,-11.0,-8.0,-1.0,-3.0
1706277448.021299,-3.0,-4.0,0.0,-28.0,-3.0,19.0,3.0,1.0
1706277448.021299,-4.0,-9.0,-19.0,-13.0,-4.0,1.0,4.0,0.0
1706277448.021299,-2.0,0.0,1.0,-39.0,-20.0,-14.0,-9.0,-6.0
1706277448.021299,-1.0,-2.0,-1.0,18.0,9.0,2.0,0.0,-2.0
1706277448.0510068,-2.0,-1.0,2.0,14.0,3.0,0.0,2.0,-1.0
1706277448.0510068,2.0,7.0,12.0,12.0,-6.0,-24.0,-19.0,-5.0
1706277448.0610003,13.0,16.0,9.0,-5.0,14.0,42.0,24.0,12.0
1706277448.0610003,6.0,8.0,4.0,18.0,-1.0,-6.0,-5.0,-3.0
1706277448.0610003,-10.0,-6.0,-33.0,-46.0,-22.0,-21.0,-10.0,-8.0
1706277448.0610003,0.0,-5.0,17.0,10.0,6.0,13.0,2.0,-1.0
1706277448.0610003,-6.0,-7.0,-33.0,-24.0,-17.0,-32.0,-21.0,-6.0
1706277448.0610003,-1.0,-2.0,20.0,20.0,16.0,20.0,13.0,5.0
1706277448.0813415,7.0,14.0,21.0,-22.0,-18.0,-8.0,-2.0,1.0
1706277448.0813415,-2.0,-15.0,-35.0,28.0,20.0,2.0,0.0,1.0
1706277448.0813415,-2.0,7.0,30.0,-4.0,-4.0,-10.0,-5.0,-6.0
1706277448.0813415,-5.0,-8.0,-15.0,-54.0,-7.0,4.0,5.0,5.0
1706277448.111002,-3.0,-4.0,16.0,88.0,22.0,2.0,0.0,1.0
1706277448.111002,3.0,4.0,-3.0,-30.0,-13.0,-7.0,-1.0,-1.0
1706277448.111002,-1.0,3.0,14.0,-2.0,1.0,5.0,2.0,-1.0
1706277448.111002,-1.0,-6.0,-17.0,43.0,24.0,3.0,-1.0,3.0
1706277448.111002,-4.0,0.0,6.0,-8.0,-12.0,-4.0,-1.0,-3.0
1706277448.111002,2.0,0.0,12.0,20.0,16.0,7.0,1.0,4.0
1706277448.1209989,-1.0,-3.0,-14.0,7.0,5.0,9.0,6.0,-1.0
1706277448.1209989,0.0,6.0,-2.0,-48.0,-29.0,-16.0,-13.0,-9.0
1706277448.151,-2.0,5.0,-10.0,-31.0,-12.0,2.0,-1.0,-4.0
1706277448.151,1.0,-1.0,5.0,10.0,11.0,8.0,6.0,2.0
1706277448.151,3.0,0.0,-13.0,-5.0,-4.0,-15.0,-9.0,-2.0
1706277448.151,-4.0,4.0,19.0,2.0,-2.0,-13.0,-7.0,-2.0
1706277448.151,5.0,-6.0,-18.0,12.0,21.0,41.0,20.0,9.0
1706277448.151,-9.0,0.0,-1.0,-43.0,-14.0,-10.0,-11.0,-8.0
1706277448.151,25.0,14.0,9.0,35.0,10.0,0.0,2.0,4.0
1706277448.151,-21.0,-6.0,-8.0,0.0,-5.0,-10.0,-8.0,-4.0
1706277448.1810021,-3.0,-18.0,-15.0,3.0,4.0,-7.0,-6.0,1.0
1706277448.1810021,5.0,6.0,5.0,-21.0,-11.0,12.0,12.0,-2.0
1706277448.1810021,3.0,2.0,-7.0,-19.0,-8.0,-3.0,-1.0,5.0
1706277448.1810021,5.0,16.0,0.0,22.0,10.0,3.0,5.0,0.0
1706277448.2110002,-24.0,-30.0,-4.0,-19.0,-9.0,-18.0,-13.0,-7.0
1706277448.2110002,-6.0,-6.0,0.0,9.0,-2.0,3.0,-1.0,-3.0
1706277448.2110002,-5.0,-9.0,1.0,-1.0,2.0,2.0,-14.0,-10.0
1706277448.2110002,5.0,3.0,-1.0,-6.0,-6.0,-1.0,13.0,5.0
1706277448.2110002,5.0,13.0,0.0,-7.0,-8.0,-13.0,-10.0,-1.0
1706277448.2110002,9.0,-15.0,9.0,8.0,2.0,-3.0,2.0,1.0
1706277448.2110002,-16.0,-14.0,5.0,23.0,0.0,-3.0,-3.0,-6.0
1706277448.2110002,3.0,7.0,-4.0,-13.0,-10.0,-11.0,-20.0,-9.0
1706277448.2408133,-8.0,-16.0,-6.0,8.0,16.0,20.0,25.0,8.0
1706277448.2408133,6.0,6.0,1.0,5.0,0.0,-3.0,-8.0,-3.0
1706277448.2408133,-1.0,-13.0,-15.0,-19.0,-2.0,6.0,7.0,18.0
1706277448.2408133,19.0,25.0,2.0,1.0,-1.0,1.0,10.0,-5.0
1706277448.2682528,-23.0,-10.0,16.0,-15.0,-16.0,-11.0,-11.0,-14.0
1706277448.2682528,0.0,9.0,-9.0,-2.0,-7.0,-7.0,-1.0,2.0
1706277448.2682528,-10.0,-17.0,-7.0,3.0,1.0,-3.0,-5.0,-9.0
1706277448.2682528,-8.0,-5.0,10.0,7.0,4.0,5.0,-2.0,-6.0
1706277448.2782567,4.0,-7.0,-3.0,-4.0,0.0,-8.0,-7.0,3.0
1706277448.2782567,-5.0,-2.0,-3.0,-23.0,-19.0,-2.0,6.0,-5.0
1706277448.2782567,-9.0,3.0,-1.0,12.0,8.0,1.0,0.0,0.0
1706277448.2782567,9.0,-11.0,2.0,-3.0,0.0,8.0,2.0,5.0
1706277448.298429,7.0,9.0,2.0,2.0,0.0,-7.0,-7.0,-3.0
1706277448.298429,0.0,9.0,12.0,2.0,-3.0,-6.0,-2.0,0.0
1706277448.298429,-1.0,0.0,-17.0,-9.0,-6.0,-1.0,-2.0,-4.0
1706277448.298429,-7.0,-11.0,-26.0,-7.0,-3.0,1.0,0.0,5.0
1706277448.3282514,-5.0,-3.0,10.0,5.0,6.0,4.0,5.0,-16.0
1706277448.3282514,23.0,29.0,-2.0,4.0,3.0,-2.0,-8.0,8.0
1706277448.3282514,-14.0,-6.0,4.0,-4.0,-5.0,-6.0,-4.0,-11.0
1706277448.3282514,-1.0,-9.0,3.0,-1.0,5.0,12.0,13.0,7.0
1706277448.3382547,-3.0,7.0,2.0,5.0,3.0,-1.0,-4.0,-1.0
1706277448.3382547,-1.0,0.0,5.0,12.0,7.0,2.0,3.0,-1.0
1706277448.3382547,3.0,6.0,-2.0,-14.0,-6.0,-4.0,-1.0,-2.0
1706277448.3382547,-8.0,-14.0,-4.0,0.0,-7.0,-8.0,-9.0,-3.0
1706277448.358641,5.0,3.0,-9.0,1.0,-3.0,-5.0,-3.0,3.0
1706277448.358641,-2.0,1.0,0.0,-7.0,-3.0,1.0,-1.0,1.0
1706277448.358641,-2.0,0.0,-2.0,-4.0,-5.0,-8.0,-2.0,-2.0
1706277448.358641,-8.0,-6.0,2.0,-10.0,0.0,-2.0,-4.0,-4.0
1706277448.3882852,10.0,10.0,0.0,6.0,0.0,-1.0,6.0,6.0
1706277448.3882852,-9.0,-9.0,-21.0,-4.0,0.0,-4.0,-5.0,10.0
1706277448.3882852,-12.0,-15.0,4.0,-11.0,4.0,4.0,-3.0,-19.0
1706277448.3882852,3.0,-2.0,3.0,34.0,0.0,2.0,3.0,0.0
1706277448.3982599,4.0,8.0,8.0,5.0,-6.0,-10.0,-8.0,1.0
1706277448.3982599,-6.0,-12.0,-9.0,-27.0,-6.0,8.0,5.0,-1.0
1706277448.3982599,6.0,11.0,-7.0,-19.0,2.0,0.0,1.0,7.0
1706277448.3982599,-5.0,0.0,24.0,36.0,9.0,1.0,-5.0,-5.0
1706277448.4185293,-3.0,-4.0,-16.0,-32.0,-13.0,-10.0,-11.0,-6.0
1706277448.4185293,-9.0,-12.0,-7.0,67.0,11.0,7.0,4.0,-6.0
1706277448.4185293,6.0,6.0,25.0,3.0,-8.0,-1.0,0.0,3.0
1706277448.4185293,-3.0,-9.0,-48.0,-27.0,-21.0,-7.0,-17.0,-5.0
1706277448.4382653,13.0,16.0,6.0,-12.0,13.0,12.0,16.0,8.0
1706277448.4382653,-6.0,-5.0,-5.0,-2.0,-2.0,-2.0,-8.0,-5.0
1706277448.4382653,1.0,6.0,-1.0,-10.0,-2.0,0.0,5.0,0.0
1706277448.4382653,-1.0,-8.0,7.0,1.0,0.0,6.0,6.0,3.0
1706277448.458298,-2.0,-2.0,8.0,-2.0,-7.0,-12.0,-13.0,-5.0
1706277448.458298,2.0,7.0,-5.0,-20.0,-10.0,-10.0,-1.0,-4.0
1706277448.458298,-1.0,-3.0,2.0,23.0,-1.0,-4.0,1.0,6.0
1706277448.458298,-1.0,-5.0,14.0,-22.0,0.0,-3.0,-1.0,-3.0
1706277448.478528,-8.0,-13.0,-45.0,-41.0,-10.0,2.0,4.0,-2.0
1706277448.478528,-9.0,-8.0,40.0,57.0,23.0,-2.0,-2.0,-6.0
1706277448.4982529,12.0,4.0,-9.0,-22.0,-4.0,1.0,0.0,3.0
1706277448.4982529,-31.0,-16.0,-26.0,-2.0,-3.0,-6.0,-3.0,-8.0
1706277448.4982529,20.0,7.0,32.0,43.0,15.0,6.0,2.0,5.0
1706277448.4982529,-14.0,-20.0,0.0,-21.0,-24.0,-10.0,-7.0,-4.0
1706277448.4982529,-2.0,-3.0,2.0,4.0,-1.0,2.0,1.0,-1.0
1706277448.4982529,14.0,6.0,0.0,27.0,21.0,2.0,2.0,5.0
1706277448.5183196,-4.0,1.0,6.0,12.0,-5.0,-2.0,-1.0,0.0
1706277448.5183196,-4.0,-11.0,-31.0,-42.0,-14.0,-8.0,0.0,-3.0
1706277448.5183196,14.0,30.0,44.0,16.0,1.0,3.0,-6.0,-3.0
1706277448.5183196,-16.0,-14.0,-25.0,-38.0,-14.0,-12.0,10.0,-2.0
1706277448.548255,0.0,5.0,0.0,3.0,-2.0,-2.0,2.0,3.0
1706277448.548255,-9.0,-5.0,14.0,-14.0,-5.0,-10.0,-8.0,-5.0
1706277448.548255,1.0,-7.0,-52.0,-14.0,5.0,10.0,10.0,2.0
1706277448.548255,4.0,8.0,34.0,12.0,-2.0,-10.0,-13.0,-7.0
1706277448.5583556,-14.0,-11.0,-35.0,-10.0,-9.0,-2.0,-3.0,-2.0
1706277448.5583556,12.0,19.0,-8.0,-8.0,7.0,4.0,3.0,2.0
1706277448.5583556,-8.0,-1.0,20.0,9.0,-3.0,-8.0,-2.0,-3.0
1706277448.5583556,10.0,4.0,6.0,-2.0,3.0,3.0,-7.0,-2.0
1706277448.5686386,-12.0,-5.0,-2.0,-12.0,-12.0,-3.0,2.0,-2.0
1706277448.5686386,12.0,1.0,2.0,18.0,12.0,4.0,3.0,6.0
1706277448.578963,2.0,-9.0,-1.0,3.0,2.0,1.0,-4.0,2.0
1706277448.578963,-16.0,-4.0,-12.0,-22.0,-4.0,6.0,5.0,-2.0
1706277448.5986493,2.0,-3.0,42.0,23.0,6.0,-4.0,-3.0,-2.0
1706277448.5986493,-4.0,5.0,5.0,-3.0,-5.0,-9.0,-8.0,-5.0
1706277448.5986493,7.0,-7.0,-13.0,-8.0,-1.0,-3.0,2.0,7.0
1706277448.5986493,7.0,1.0,4.0,-4.0,-1.0,-2.0,-3.0,-5.0
1706277448.6186514,-15.0,-6.0,-11.0,17.0,8.0,-1.0,-3.0,-6.0
1706277448.6186514,-6.0,1.0,0.0,-2.0,-2.0,10.0,7.0,3.0
1706277448.6186514,11.0,-5.0,-4.0,2.0,-9.0,-7.0,-3.0,-1.0
1706277448.6186514,-4.0,3.0,-6.0,-7.0,4.0,1.0,-2.0,1.0
1706277448.6290255,-8.0,3.0,-11.0,-3.0,0.0,3.0,0.0,-1.0
1706277448.6290255,-4.0,-13.0,-3.0,-13.0,-6.0,-10.0,-5.0,-2.0
1706277448.638968,-11.0,7.0,-4.0,-8.0,-7.0,-6.0,-2.0,-4.0
1706277448.638968,12.0,11.0,15.0,26.0,4.0,8.0,3.0,4.0
1706277448.6586497,16.0,14.0,7.0,-5.0,8.0,0.0,-2.0,-1.0
1706277448.6586497,-10.0,5.0,4.0,18.0,0.0,0.0,3.0,-3.0
1706277448.6586497,-15.0,-8.0,-24.0,-7.0,-5.0,-4.0,-5.0,-7.0
1706277448.6586497,-1.0,-6.0,8.0,11.0,1.0,-16.0,-4.0,-2.0
1706277448.6790726,9.0,14.0,19.0,-1.0,8.0,20.0,11.0,8.0
1706277448.6790726,-2.0,-17.0,-23.0,-17.0,-7.0,-4.0,-8.0,-7.0
1706277448.6790726,3.0,1.0,1.0,2.0,-1.0,-1.0,1.0,1.0
1706277448.6790726,-3.0,-2.0,2.0,8.0,8.0,5.0,-2.0,1.0
1706277448.6890144,3.0,4.0,-9.0,-17.0,-17.0,-9.0,2.0,-2.0
1706277448.6890144,10.0,10.0,9.0,25.0,15.0,4.0,-1.0,4.0
1706277448.6989572,-12.0,-4.0,2.0,-23.0,-7.0,-3.0,-2.0,-6.0
1706277448.6989572,0.0,-3.0,-7.0,-4.0,-5.0,2.0,3.0,4.0
1706277448.7186496,2.0,-4.0,2.0,14.0,8.0,1.0,-2.0,-1.0
1706277448.7186496,0.0,-4.0,-7.0,0.0,-4.0,-3.0,1.0,0.0
1706277448.7186496,-13.0,-13.0,1.0,10.0,9.0,-2.0,1.0,-2.0
1706277448.7186496,4.0,4.0,2.0,-7.0,-8.0,4.0,1.0,2.0
1706277448.7390227,-6.0,-12.0,-22.0,-31.0,-15.0,-10.0,-7.0,-9.0
1706277448.7390227,3.0,5.0,12.0,-11.0,2.0,11.0,4.0,1.0
1706277448.7390227,1.0,2.0,-13.0,19.0,5.0,5.0,5.0,0.0
1706277448.7390227,-10.0,-18.0,-4.0,-38.0,-14.0,-13.0,-3.0,-9.0
1706277448.7586524,2.0,2.0,-3.0,5.0,2.0,2.0,2.0,2.0
1706277448.7586524,2.0,-1.0,-12.0,-6.0,-1.0,2.0,2.0,7.0
1706277448.7586524,1.0,-2.0,4.0,-5.0,0.0,-4.0,-5.0,-5.0
1706277448.7586524,0.0,2.0,-3.0,20.0,4.0,4.0,1.0,-1.0
1706277448.7800107,1.0,1.0,-18.0,-3.0,-3.0,-2.0,-2.0,0.0
1706277448.7800107,0.0,10.0,21.0,-12.0,-13.0,-14.0,-11.0,-4.0
1706277448.7810094,6.0,-3.0,14.0,15.0,5.0,2.0,4.0,7.0
1706277448.7810094,1.0,-2.0,-8.0,-6.0,-5.0,-3.0,-5.0,0.0
1706277448.8004262,-1.0,-1.0,-22.0,-21.0,-3.0,2.0,0.0,2.0
1706277448.8004262,8.0,5.0,-11.0,19.0,-7.0,0.0,-1.0,-1.0
1706277448.8004262,-4.0,3.0,2.0,-21.0,-4.0,-3.0,-5.0,-2.0
1706277448.8004262,-5.0,-6.0,45.0,27.0,14.0,10.0,7.0,2.0
1706277448.8199995,-3.0,-4.0,8.0,-11.0,-10.0,-8.0,-7.0,-3.0
1706277448.8199995,-1.0,-1.0,17.0,12.0,7.0,6.0,7.0,2.0
1706277448.8199995,-5.0,-3.0,15.0,-6.0,-9.0,-3.0,-5.0,-4.0
1706277448.8199995,4.0,3.0,-24.0,-16.0,-6.0,-4.0,1.0,2.0
1706277448.840435,-7.0,-1.0,4.0,11.0,-1.0,-4.0,-5.0,-4.0
1706277448.840435,-5.0,-7.0,-5.0,-22.0,-8.0,1.0,6.0,-1.0
1706277448.840435,3.0,6.0,-4.0,-6.0,4.0,5.0,5.0,2.0
1706277448.840435,5.0,12.0,-2.0,9.0,6.0,3.0,-3.0,1.0
1706277448.8604276,2.0,-3.0,3.0,-4.0,-4.0,-1.0,-4.0,0.0
1706277448.8604276,1.0,3.0,-11.0,-7.0,-2.0,3.0,-4.0,-8.0
1706277448.8604276,3.0,2.0,9.0,25.0,17.0,9.0,2.0,1.0
1706277448.8604276,-11.0,2.0,-14.0,-6.0,-3.0,-5.0,1.0,-1.0
1706277448.8800004,28.0,7.0,1.0,10.0,6.0,11.0,4.0,5.0
1706277448.8800004,-29.0,-16.0,-4.0,-14.0,-7.0,-11.0,-6.0,1.0
1706277448.8800004,10.0,16.0,-13.0,-4.0,0.0,9.0,-2.0,-1.0
1706277448.8800004,-4.0,8.0,7.0,3.0,-2.0,-1.0,0.0,-4.0
1706277448.9003518,-11.0,-7.0,1.0,-2.0,-5.0,-13.0,-11.0,-5.0
1706277448.9003518,5.0,9.0,1.0,2.0,8.0,6.0,5.0,-5.0
1706277448.9003518,-6.0,-5.0,-6.0,5.0,-3.0,-2.0,-5.0,0.0
1706277448.9003518,3.0,-6.0,-6.0,-7.0,-2.0,3.0,4.0,-1.0
1706277448.9204245,8.0,3.0,-1.0,-1.0,-6.0,-12.0,-6.0,-5.0
1706277448.9204245,5.0,7.0,2.0,11.0,12.0,8.0,13.0,13.0
1706277448.9204245,-10.0,-4.0,-3.0,-14.0,-9.0,-12.0,-16.0,-2.0
1706277448.9204245,43.0,16.0,0.0,-2.0,0.0,0.0,12.0,2.0
1706277448.940007,-16.0,-28.0,-10.0,-1.0,0.0,7.0,-2.0,-4.0
1706277448.940007,-3.0,3.0,2.0,2.0,1.0,-2.0,0.0,-4.0
1706277448.940007,25.0,14.0,1.0,-3.0,-8.0,-9.0,-2.0,0.0
1706277448.940007,-22.0,-10.0,-3.0,-4.0,-3.0,-3.0,-8.0,0.0
1706277448.9602723,28.0,19.0,7.0,6.0,13.0,11.0,8.0,6.0
1706277448.9602723,-15.0,-21.0,-7.0,1.0,4.0,1.0,-1.0,-5.0
1706277448.9602723,-6.0,0.0,3.0,8.0,2.0,-1.0,4.0,-1.0
1706277448.9602723,-6.0,-13.0,-2.0,-8.0,-3.0,-5.0,-2.0,-7.0
1706277449.0003364,-8.0,-8.0,-12.0,-1.0,-7.0,-8.0,-2.0,-1.0
1706277449.0003364,-7.0,-7.0,6.0,10.0,3.0,1.0,-6.0,-5.0
1706277449.0003364,8.0,3.0,-3.0,2.0,-4.0,-5.0,1.0,3.0
1706277449.0003364,-4.0,-9.0,-3.0,12.0,0.0,-2.0,-9.0,-2.0
1706277449.0003364,-26.0,-14.0,1.0,-11.0,-7.0,-5.0,0.0,-2.0
1706277449.0003364,16.0,0.0,-9.0,-11.0,-9.0,-3.0,-2.0,4.0
1706277449.0003364,-14.0,-13.0,-5.0,-7.0,-2.0,0.0,3.0,-3.0
1706277449.0003364,-1.0,13.0,15.0,9.0,-1.0,-9.0,-12.0,-3.0
1706277449.0204942,5.0,6.0,-6.0,6.0,8.0,9.0,8.0,3.0
1706277449.0204942,2.0,5.0,-4.0,-16.0,-14.0,-14.0,-9.0,-2.0
1706277449.0204942,-7.0,-5.0,-2.0,2.0,2.0,7.0,2.0,-3.0
1706277449.0204942,-13.0,-36.0,-16.0,-20.0,-6.0,-6.0,-2.0,-2.0
1706277449.040637,7.0,0.0,2.0,-2.0,3.0,3.0,-3.0,-1.0
1706277449.040637,-6.0,3.0,-1.0,-4.0,-8.0,-6.0,-4.0,-7.0
1706277449.040637,-20.0,-11.0,-1.0,18.0,15.0,2.0,9.0,4.0
1706277449.040637,16.0,14.0,1.0,13.0,-1.0,-8.0,-2.0,1.0
1706277449.0603347,-7.0,2.0,12.0,6.0,-2.0,-6.0,-2.0,-6.0
1706277449.0603347,11.0,0.0,-5.0,-6.0,1.0,3.0,-3.0,0.0
1706277449.0603347,-8.0,-14.0,-1.0,-12.0,-14.0,-5.0,-5.0,-7.0
1706277449.0603347,-1.0,8.0,-7.0,-9.0,-7.0,3.0,-3.0,-1.0
1706277449.0806184,-4.0,-1.0,10.0,15.0,13.0,2.0,-1.0,0.0
1706277449.0806184,-2.0,3.0,-4.0,-6.0,-5.0,-6.0,-5.0,-4.0
1706277449.0806184,1.0,4.0,-11.0,-5.0,3.0,3.0,0.0,-3.0
1706277449.0806184,2.0,-8.0,-15.0,-12.0,1.0,4.0,-1.0,-4.0
1706277449.1003351,1.0,-1.0,6.0,-7.0,-13.0,-4.0,-2.0,-3.0
1706277449.1003351,-1.0,-7.0,9.0,4.0,6.0,0.0,0.0,4.0
1706277449.1003351,0.0,-18.0,8.0,11.0,2.0,-1.0,-1.0,0.0
1706277449.1003351,-4.0,-2.0,2.0,0.0,5.0,10.0,7.0,6.0
1706277449.1207383,-11.0,14.0,-11.0,-10.0,-8.0,-6.0,-4.0,0.0
1706277449.1207383,-21.0,-15.0,5.0,2.0,10.0,8.0,1.0,-8.0
1706277449.1207383,5.0,-7.0,-4.0,11.0,0.0,-3.0,1.0,3.0
1706277449.1207383,12.0,17.0,7.0,-3.0,3.0,3.0,1.0,5.0
1706277449.1406286,-3.0,-7.0,-2.0,9.0,2.0,0.0,-1.0,-1.0
1706277449.1406286,-2.0,2.0,-3.0,-11.0,-9.0,-7.0,-3.0,-3.0
1706277449.1406286,1.0,8.0,7.0,-3.0,-3.0,-10.0,-8.0,-2.0
1706277449.1406286,-7.0,-4.0,-7.0,-7.0,2.0,9.0,7.0,0.0
1706277449.1603348,0.0,4.0,11.0,6.0,3.0,0.0,-2.0,-4.0
1706277449.1603348,3.0,2.0,-7.0,-7.0,-8.0,5.0,4.0,0.0
1706277449.1603348,4.0,-5.0,-4.0,1.0,4.0,4.0,2.0,0.0
1706277449.1603348,-4.0,6.0,0.0,-2.0,-2.0,-1.0,-1.0,0.0
1706277449.180708,-29.0,-16.0,-10.0,-6.0,-5.0,-5.0,-5.0,-3.0
1706277449.180708,25.0,9.0,-2.0,6.0,2.0,0.0,0.0,6.0
1706277449.180708,-9.0,7.0,4.0,-9.0,-4.0,-1.0,-5.0,-7.0
1706277449.180708,10.0,4.0,10.0,-7.0,-6.0,-7.0,-5.0,-1.0
1706277449.2005453,-18.0,-10.0,-3.0,8.0,5.0,5.0,6.0,1.0
1706277449.2005453,7.0,3.0,0.0,-5.0,-1.0,-3.0,-1.0,1.0
1706277449.2005453,12.0,8.0,-5.0,-7.0,-8.0,-6.0,-3.0,1.0
1706277449.2005453,-15.0,-7.0,-9.0,-4.0,2.0,2.0,-1.0,-4.0
1706277449.220368,9.0,5.0,-5.0,-10.0,-2.0,-6.0,-5.0,-4.0
1706277449.220368,7.0,11.0,1.0,3.0,-3.0,-2.0,-2.0,1.0
1706277449.220368,1.0,-1.0,-12.0,-4.0,2.0,3.0,4.0,2.0
1706277449.220368,-12.0,-13.0,-2.0,-2.0,-5.0,-2.0,-3.0,-3.0
1706277449.2407284,9.0,6.0,6.0,4.0,2.0,3.0,-1.0,3.0
1706277449.2407284,-13.0,-17.0,-2.0,2.0,-3.0,-5.0,-1.0,-8.0
1706277449.2407284,-7.0,0.0,-11.0,-9.0,-1.0,0.0,1.0,1.0
1706277449.2407284,6.0,-4.0,4.0,2.0,0.0,3.0,-1.0,-1.0
1706277449.2605636,0.0,1.0,6.0,4.0,2.0,2.0,2.0,0.0
1706277449.2605636,0.0,-2.0,2.0,-1.0,-6.0,-15.0,-10.0,-3.0
1706277449.2605636,8.0,0.0,4.0,5.0,12.0,19.0,11.0,8.0
1706277449.2605636,-12.0,-18.0,-4.0,3.0,2.0,-2.0,0.0,1.0
1706277449.2805264,10.0,10.0,2.0,3.0,2.0,2.0,2.0,2.0
1706277449.2805264,-8.0,-3.0,1.0,2.0,5.0,4.0,-1.0,-1.0
1706277449.2805264,3.0,9.0,6.0,3.0,3.0,1.0,0.0,-5.0
1706277449.2805264,6.0,23.0,4.0,-1.0,-1.0,-1.0,2.0,1.0
1706277449.3059957,-14.0,-16.0,-3.0,-4.0,-7.0,-5.0,-3.0,-1.0
1706277449.3059957,0.0,-7.0,-8.0,-2.0,2.0,5.0,2.0,-2.0
1706277449.3069954,6.0,10.0,3.0,-7.0,-11.0,-8.0,-5.0,-4.0
1706277449.3069954,-6.0,-3.0,2.0,8.0,8.0,3.0,1.0,3.0
1706277449.319857,27.0,11.0,5.0,-1.0,-2.0,-2.0,3.0,3.0
1706277449.319857,-14.0,-12.0,-7.0,-5.0,2.0,6.0,4.0,0.0
1706277449.332611,-8.0,-8.0,5.0,4.0,2.0,-5.0,-3.0,2.0
1706277449.332611,-2.0,-2.0,3.0,6.0,3.0,1.0,4.0,-1.0
1706277449.3428426,-4.0,-3.0,-1.0,-4.0,-4.0,-8.0,-7.0,-2.0
1706277449.3428426,7.0,-1.0,-1.0,2.0,0.0,6.0,3.0,0.0
1706277449.3428426,-8.0,-7.0,-5.0,0.0,3.0,3.0,0.0,-2.0
1706277449.3428426,-4.0,1.0,-2.0,-4.0,-6.0,-7.0,-6.0,-2.0
1706277449.3628461,-7.0,-4.0,-4.0,-3.0,0.0,1.0,2.0,2.0
1706277449.3628461,9.0,9.0,1.0,-1.0,-2.0,-6.0,-3.0,0.0
1706277449.3628461,-22.0,-10.0,-6.0,0.0,-2.0,-6.0,-6.0,-12.0
1706277449.3628461,-7.0,-4.0,-5.0,-5.0,-4.0,-4.0,-2.0,1.0
1706277449.3926108,8.0,4.0,-1.0,0.0,-5.0,-11.0,-7.0,-11.0
1706277449.3926108,-4.0,4.0,-1.0,2.0,4.0,17.0,8.0,-3.0
1706277449.3926108,-7.0,-15.0,-4.0,-12.0,-11.0,-13.0,-7.0,-4.0
1706277449.3926108,1.0,11.0,4.0,0.0,1.0,-7.0,-7.0,-5.0
1706277449.4028404,-2.0,-6.0,-13.0,1.0,1.0,3.0,-3.0,-2.0
1706277449.4028404,-2.0,2.0,8.0,0.0,-1.0,-8.0,-7.0,-5.0
1706277449.4028404,13.0,-4.0,-5.0,-2.0,-4.0,1.0,2.0,4.0
1706277449.4028404,-10.0,-9.0,-2.0,-10.0,-7.0,-4.0,-6.0,-7.0
1706277449.422799,3.0,-2.0,3.0,9.0,6.0,3.0,-4.0,0.0
1706277449.422799,-4.0,7.0,-9.0,-2.0,-4.0,-4.0,-3.0,-4.0
1706277449.422799,-3.0,10.0,-2.0,-6.0,-6.0,-3.0,-5.0,-4.0
1706277449.422799,16.0,14.0,-3.0,1.0,-4.0,-6.0,-1.0,3.0
1706277449.4526114,-11.0,-13.0,0.0,-2.0,1.0,6.0,3.0,2.0
1706277449.4526114,6.0,-8.0,-7.0,-6.0,-2.0,-3.0,2.0,6.0
1706277449.4526114,8.0,-2.0,9.0,3.0,3.0,-1.0,1.0,-4.0
1706277449.4526114,4.0,0.0,-9.0,-8.0,-6.0,-7.0,-5.0,-5.0
1706277449.4629533,-13.0,-9.0,1.0,-5.0,-5.0,-2.0,3.0,-3.0
1706277449.4629533,1.0,8.0,1.0,-4.0,-5.0,-5.0,-4.0,-1.0
1706277449.4629533,7.0,9.0,-8.0,0.0,-3.0,-2.0,1.0,4.0
1706277449.4629533,14.0,-6.0,-2.0,1.0,2.0,2.0,1.0,0.0
1706277449.4830003,-9.0,9.0,3.0,0.0,3.0,5.0,6.0,-9.0
1706277449.4830003,-6.0,-15.0,-8.0,-5.0,1.0,-8.0,-6.0,-2.0
1706277449.4830003,10.0,2.0,3.0,-3.0,-5.0,2.0,1.0,3.0
1706277449.4830003,-20.0,-5.0,-1.0,0.0,-4.0,-1.0,-1.0,-9.0
1706277449.5026112,27.0,1.0,-2.0,1.0,6.0,6.0,5.0,14.0
1706277449.5026112,-8.0,1.0,-4.0,-5.0,-8.0,-8.0,-7.0,-9.0
1706277449.5026112,-1.0,-6.0,-4.0,0.0,3.0,-3.0,-6.0,-6.0
1706277449.5026112,-8.0,-2.0,1.0,1.0,1.0,5.0,10.0,7.0
1706277449.5228841,5.0,0.0,4.0,-5.0,-5.0,-5.0,-3.0,-6.0
1706277449.5228841,-4.0,8.0,8.0,4.0,0.0,-2.0,-2.0,-4.0
1706277449.5228841,-2.0,5.0,-4.0,1.0,0.0,0.0,-2.0,2.0
1706277449.5228841,-5.0,-9.0,2.0,5.0,1.0,5.0,2.0,0.0
1706277449.5428905,7.0,0.0,-2.0,-3.0,-2.0,-4.0,-3.0,4.0
1706277449.5428905,-8.0,-15.0,1.0,-1.0,-3.0,-10.0,-7.0,-1.0
1706277449.5428905,-8.0,-6.0,-3.0,2.0,3.0,1.0,0.0,-3.0
1706277449.5428905,-4.0,-4.0,0.0,3.0,0.0,2.0,4.0,0.0
1706277449.5528371,2.0,-10.0,-10.0,0.0,0.0,-1.0,-1.0,-1.0
1706277449.5528371,4.0,5.0,8.0,7.0,9.0,8.0,8.0,6.0
1706277449.592614,1.0,-2.0,1.0,-2.0,-5.0,-4.0,-1.0,9.0
1706277449.592614,10.0,18.0,2.0,-2.0,-3.0,-1.0,-3.0,-7.0
1706277449.592614,-15.0,-6.0,-8.0,-7.0,-8.0,-5.0,-3.0,-3.0
1706277449.592614,22.0,4.0,-2.0,5.0,3.0,3.0,0.0,6.0
1706277449.592614,-5.0,5.0,3.0,-5.0,-3.0,-3.0,1.0,2.0
1706277449.592614,-7.0,-13.0,0.0,1.0,-2.0,-1.0,-2.0,5.0
1706277449.6026099,7.0,7.0,-1.0,0.0,-2.0,-2.0,-1.0,4.0
1706277449.6026099,-11.0,9.0,-5.0,-10.0,-2.0,5.0,-1.0,-8.0
1706277449.6026099,2.0,-9.0,-4.0,0.0,-4.0,-3.0,-5.0,-7.0
1706277449.6026099,20.0,6.0,-5.0,-5.0,-6.0,-2.0,-2.0,2.0
1706277449.6129975,-24.0,-7.0,2.0,-1.0,-2.0,-1.0,-3.0,-9.0
1706277449.6129975,10.0,-2.0,-3.0,-4.0,-1.0,1.0,3.0,9.0
1706277449.622935,-2.0,-2.0,3.0,7.0,2.0,2.0,-1.0,-4.0
1706277449.622935,12.0,-6.0,-2.0,7.0,10.0,4.0,2.0,1.0
1706277449.64298,14.0,13.0,-1.0,4.0,3.0,7.0,4.0,10.0
1706277449.64298,6.0,-10.0,-2.0,-4.0,-4.0,2.0,1.0,2.0
1706277449.64298,-16.0,1.0,0.0,-4.0,-4.0,-3.0,0.0,-11.0
1706277449.64298,7.0,-5.0,-3.0,9.0,6.0,2.0,0.0,5.0
1706277449.662961,-4.0,6.0,-5.0,-7.0,-3.0,-2.0,-3.0,-5.0
1706277449.662961,13.0,16.0,4.0,1.0,-3.0,-5.0,1.0,1.0
1706277449.662961,-13.0,-18.0,5.0,4.0,3.0,4.0,1.0,-6.0
1706277449.662961,-18.0,-2.0,2.0,-4.0,-4.0,-7.0,-6.0,-8.0
1706277449.6726122,2.0,-15.0,-5.0,3.0,7.0,7.0,0.0,-1.0
1706277449.6726122,-15.0,3.0,4.0,-1.0,0.0,3.0,3.0,-1.0
1706277449.692613,10.0,1.0,-10.0,-4.0,-3.0,-3.0,3.0,14.0
1706277449.692613,1.0,-10.0,4.0,-3.0,-3.0,1.0,0.0,-11.0
1706277449.7026455,-19.0,5.0,0.0,2.0,2.0,-5.0,1.0,-2.0
1706277449.7026455,8.0,-6.0,0.0,2.0,-2.0,-3.0,-1.0,7.0
1706277449.7026455,3.0,9.0,-6.0,-4.0,-1.0,2.0,-1.0,-1.0
1706277449.7026455,-24.0,-20.0,-6.0,1.0,-2.0,-8.0,-7.0,-3.0
1706277449.722611,0.0,-4.0,1.0,-10.0,-15.0,-7.0,-4.0,-11.0
1706277449.722611,0.0,5.0,-10.0,-2.0,2.0,-2.0,-7.0,-4.0
1706277449.722611,1.0,0.0,5.0,6.0,7.0,2.0,2.0,2.0
1706277449.722611,-10.0,4.0,-3.0,-7.0,-7.0,-4.0,-3.0,-2.0
1706277449.7326107,3.0,-13.0,6.0,-4.0,-4.0,-1.0,0.0,-2.0
1706277449.7326107,-16.0,-2.0,-1.0,1.0,-1.0,2.0,0.0,-5.0
1706277449.7429132,27.0,10.0,6.0,-7.0,-7.0,-4.0,-5.0,0.0
1706277449.7429132,-7.0,-15.0,-10.0,9.0,9.0,4.0,2.0,-1.0
1706277449.762982,12.0,8.0,4.0,8.0,6.0,1.0,0.0,3.0
1706277449.762982,-25.0,-43.0,-4.0,-1.0,-2.0,-8.0,-6.0,1.0
1706277449.762982,-9.0,-2.0,0.0,2.0,7.0,14.0,8.0,0.0
1706277449.762982,6.0,11.0,5.0,-6.0,-2.0,0.0,1.0,-4.0
1706277449.7826107,-2.0,-5.0,0.0,7.0,5.0,0.0,2.0,3.0
1706277449.7826107,0.0,2.0,1.0,-3.0,3.0,7.0,2.0,-1.0
1706277449.7826107,-13.0,-2.0,-1.0,-10.0,-19.0,-18.0,-11.0,-8.0
1706277449.7826107,-5.0,-6.0,4.0,16.0,13.0,7.0,1.0,2.0
1706277449.7927809,-1.0,10.0,-2.0,-9.0,-2.0,2.0,2.0,-4.0
1706277449.7927809,1.0,8.0,6.0,1.0,-2.0,-2.0,-2.0,1.0
1706277449.8027916,5.0,-10.0,-3.0,-7.0,-5.0,-3.0,-1.0,0.0
1706277449.8027916,7.0,10.0,-12.0,-2.0,-4.0,-4.0,-5.0,-5.0
1706277449.84384,-17.0,-8.0,22.0,3.0,-1.0,-4.0,-3.0,-1.0
1706277449.8448396,1.0,3.0,7.0,6.0,-1.0,0.0,0.0,-5.0
1706277449.8478355,15.0,14.0,-7.0,-12.0,1.0,-4.0,-4.0,5.0
1706277449.8478355,-17.0,-1.0,0.0,-7.0,-9.0,-2.0,-1.0,-8.0
1706277449.8488355,13.0,-6.0,-30.0,-3.0,4.0,12.0,8.0,8.0
1706277449.8488355,-4.0,-16.0,1.0,-5.0,-12.0,-11.0,-9.0,-7.0
1706277449.8488355,-3.0,13.0,-10.0,9.0,16.0,10.0,6.0,2.0
1706277449.8488355,11.0,-5.0,1.0,11.0,1.0,-7.0,-6.0,1.0
1706277449.8662195,-7.0,15.0,-3.0,-6.0,-7.0,-8.0,-8.0,-4.0
1706277449.8662195,4.0,11.0,31.0,3.0,-5.0,-4.0,2.0,-3.0
1706277449.8662195,4.0,-9.0,-20.0,-4.0,-1.0,3.0,0.0,-9.0
1706277449.8662195,8.0,1.0,-5.0,-15.0,-11.0,-8.0,-6.0,2.0
1706277449.8757813,-14.0,-17.0,-8.0,-6.0,1.0,0.0,-1.0,-11.0
1706277449.8757813,2.0,5.0,-5.0,0.0,1.0,-2.0,-2.0,0.0
1706277449.8757813,-7.0,2.0,-1.0,4.0,-2.0,-7.0,-5.0,-3.0
1706277449.8757813,7.0,3.0,15.0,3.0,1.0,2.0,1.0,8.0
1706277449.9058166,-6.0,-2.0,-4.0,-3.0,-6.0,-3.0,-1.0,-5.0
1706277449.9058166,9.0,18.0,-21.0,-9.0,0.0,6.0,0.0,-5.0
1706277449.9058166,-7.0,-9.0,9.0,4.0,-2.0,-2.0,3.0,4.0
1706277449.9058166,24.0,20.0,-5.0,-2.0,-2.0,3.0,1.0,6.0
1706277449.9262156,-12.0,-18.0,-3.0,-2.0,-5.0,-12.0,-10.0,-9.0
1706277449.9262156,-11.0,-3.0,-3.0,1.0,4.0,9.0,-1.0,-8.0
1706277449.9262156,-25.0,-13.0,2.0,5.0,6.0,4.0,2.0,-1.0
1706277449.9262156,20.0,-8.0,-9.0,-11.0,0.0,2.0,2.0,7.0
1706277449.9457796,1.0,20.0,12.0,5.0,-5.0,-6.0,-3.0,0.0
1706277449.9457796,-1.0,-2.0,-2.0,-3.0,-3.0,-4.0,1.0,2.0
1706277449.9457796,7.0,13.0,7.0,11.0,6.0,-7.0,-6.0,-4.0
1706277449.9457796,-18.0,-2.0,3.0,-4.0,-5.0,-2.0,-3.0,-4.0
1706277449.9662116,16.0,0.0,5.0,-10.0,-5.0,9.0,5.0,9.0
1706277449.9662116,-12.0,7.0,-4.0,22.0,20.0,2.0,-4.0,-5.0
1706277449.9662116,6.0,16.0,10.0,-3.0,-9.0,-9.0,-11.0,-3.0
1706277449.9662116,-8.0,-1.0,-2.0,14.0,8.0,-6.0,-4.0,-11.0
1706277449.9862018,0.0,-15.0,-17.0,-30.0,-10.0,2.0,4.0,5.0
1706277449.9862018,5.0,1.0,3.0,9.0,-6.0,-4.0,1.0,2.0
1706277449.9862018,6.0,-7.0,-8.0,-35.0,-13.0,0.0,1.0,7.0
1706277449.9862018,-11.0,4.0,21.0,13.0,8.0,-3.0,-4.0,-7.0
1706277450.0057838,4.0,-3.0,-12.0,15.0,4.0,-1.0,-1.0,8.0
1706277450.0057838,-20.0,-27.0,-2.0,-13.0,-5.0,-1.0,0.0,-16.0
1706277450.0057838,16.0,5.0,-6.0,-14.0,-21.0,-11.0,-8.0,2.0
1706277450.0057838,6.0,11.0,-6.0,12.0,6.0,6.0,9.0,26.0
1706277450.025782,-16.0,-1.0,-1.0,-16.0,-1.0,-1.0,-1.0,-22.0
1706277450.025782,20.0,-1.0,9.0,-4.0,3.0,13.0,5.0,-2.0
1706277450.025782,-22.0,-19.0,-2.0,2.0,-4.0,-13.0,-5.0,7.0
1706277450.025782,-6.0,12.0,-1.0,-3.0,2.0,13.0,8.0,-8.0
1706277450.05578,17.0,8.0,6.0,10.0,-4.0,-17.0,-11.0,10.0
1706277450.05578,-2.0,11.0,-6.0,6.0,6.0,2.0,0.0,6.0
1706277450.05578,15.0,-12.0,5.0,1.0,-1.0,3.0,2.0,-5.0
1706277450.05578,-28.0,-16.0,-18.0,-18.0,-10.0,-6.0,-6.0,-11.0
1706277450.05578,10.0,15.0,4.0,9.0,5.0,1.0,1.0,6.0
1706277450.05578,14.0,-3.0,-8.0,-6.0,-4.0,-9.0,-13.0,-2.0
1706277450.05578,5.0,-5.0,-3.0,6.0,5.0,7.0,2.0,-1.0
1706277450.05578,1.0,0.0,7.0,-8.0,-6.0,-3.0,-4.0,2.0
1706277450.0861354,-1.0,0.0,0.0,-2.0,-1.0,5.0,6.0,2.0
1706277450.0861354,-2.0,-5.0,4.0,9.0,4.0,-2.0,-2.0,-1.0
1706277450.0861354,3.0,-12.0,12.0,6.0,11.0,9.0,6.0,8.0
1706277450.0861354,-1.0,-5.0,0.0,0.0,-2.0,-1.0,2.0,-3.0
1706277450.1157796,-12.0,0.0,5.0,5.0,4.0,-1.0,-4.0,-12.0
1706277450.1157796,-3.0,-4.0,1.0,14.0,-7.0,-5.0,-1.0,5.0
1706277450.1157796,-8.0,0.0,6.0,-28.0,8.0,8.0,8.0,-2.0
1706277450.1157796,-13.0,-2.0,-7.0,-52.0,-6.0,5.0,1.0,-4.0
1706277450.1157796,1.0,6.0,28.0,68.0,27.0,9.0,1.0,-1.0
1706277450.1157796,0.0,-8.0,-5.0,13.0,10.0,-4.0,-4.0,2.0
1706277450.1157796,-24.0,-3.0,-7.0,6.0,-6.0,-2.0,-10.0,-17.0
1706277450.1157796,14.0,12.0,-6.0,-16.0,-9.0,-3.0,3.0,3.0
1706277450.1460974,8.0,11.0,-3.0,-22.0,-4.0,-3.0,1.0,5.0
1706277450.1460974,8.0,-14.0,-8.0,1.0,-7.0,-4.0,1.0,0.0
1706277450.1460974,0.0,1.0,0.0,-1.0,-6.0,-6.0,1.0,-1.0
1706277450.1460974,1.0,-2.0,-7.0,-4.0,-6.0,-4.0,-6.0,-5.0
1706277450.1957786,-13.0,-17.0,0.0,4.0,1.0,2.0,-2.0,-3.0
1706277450.1957786,1.0,2.0,16.0,16.0,0.0,-2.0,2.0,1.0
1706277450.1957786,-2.0,1.0,-17.0,-8.0,-4.0,3.0,5.0,1.0
1706277450.1957786,2.0,-7.0,4.0,2.0,-4.0,-1.0,0.0,1.0
1706277450.1957786,4.0,3.0,-10.0,21.0,25.0,10.0,8.0,5.0
1706277450.1957786,22.0,21.0,-6.0,-27.0,-16.0,-7.0,0.0,1.0
1706277450.1957786,-10.0,-39.0,-14.0,3.0,-3.0,1.0,-1.0,-11.0
1706277450.1957786,4.0,7.0,16.0,12.0,0.0,-4.0,-6.0,4.0
1706277450.2057862,-15.0,-8.0,-13.0,-13.0,-7.0,-5.0,0.0,-2.0
1706277450.2057862,10.0,13.0,-11.0,-18.0,-7.0,-8.0,-3.0,1.0
1706277450.2057862,7.0,12.0,9.0,16.0,10.0,2.0,-5.0,-2.0
1706277450.2057862,13.0,2.0,-8.0,-2.0,-5.0,3.0,3.0,-5.0
1706277450.235782,-1.0,-15.0,-10.0,-7.0,-16.0,-14.0,-7.0,-2.0
1706277450.235782,8.0,10.0,-1.0,-8.0,3.0,6.0,0.0,1.0
1706277450.235782,-18.0,-7.0,16.0,19.0,4.0,-1.0,5.0,2.0
1706277450.235782,-7.0,-20.0,-5.0,6.0,13.0,9.0,5.0,2.0
1706277450.235782,12.0,24.0,6.0,-11.0,-8.0,-2.0,-3.0,-2.0
1706277450.235782,-17.0,-17.0,-20.0,-22.0,-18.0,-13.0,0.0,3.0
1706277450.235782,6.0,5.0,1.0,-7.0,-1.0,4.0,5.0,0.0
1706277450.235782,0.0,6.0,6.0,22.0,2.0,-5.0,-7.0,-5.0
1706277450.2660375,2.0,-1.0,-6.0,-6.0,-6.0,4.0,5.0,-2.0
1706277450.2660375,-17.0,-20.0,-3.0,13.0,13.0,8.0,2.0,2.0
1706277450.2660375,-3.0,7.0,10.0,-1.0,-2.0,-4.0,-6.0,-2.0
1706277450.2660375,-5.0,-7.0,5.0,6.0,-2.0,-5.0,-1.0,1.0
1706277450.2859952,10.0,15.0,-24.0,-25.0,-14.0,-6.0,-6.0,4.0
1706277450.2859952,-13.0,2.0,13.0,16.0,3.0,5.0,0.0,-1.0
1706277450.2859952,3.0,-16.0,-35.0,-16.0,5.0,5.0,5.0,0.0
1706277450.2859952,-11.0,-4.0,31.0,-22.0,-19.0,-14.0,-12.0,-14.0
1706277450.296058,-3.0,8.0,16.0,29.0,4.0,4.0,3.0,7.0
1706277450.296058,-6.0,-58.0,-34.0,-39.0,-6.0,-10.0,-6.0,-3.0
1706277450.296058,-8.0,20.0,-11.0,7.0,-5.0,-3.0,-3.0,-12.0
1706277450.296058,11.0,14.0,-14.0,0.0,3.0,-3.0,1.0,7.0
1706277450.3257866,-13.0,-28.0,35.0,-10.0,-12.0,-2.0,-1.0,-3.0
1706277450.3257866,-2.0,15.0,7.0,34.0,12.0,5.0,-1.0,0.0
1706277450.3257866,26.0,19.0,22.0,-12.0,-7.0,-7.0,-6.0,1.0
1706277450.3257866,-11.0,-7.0,-5.0,12.0,6.0,3.0,0.0,2.0
1706277450.355852,7.0,0.0,-18.0,-18.0,-5.0,-2.0,-4.0,-5.0
1706277450.355852,-24.0,-10.0,2.0,-9.0,2.0,8.0,5.0,-6.0
1706277450.355852,4.0,0.0,-6.0,10.0,-1.0,-7.0,-2.0,9.0
1706277450.355852,-11.0,4.0,4.0,1.0,-1.0,-4.0,-3.0,-14.0
1706277450.36308,14.0,-9.0,-18.0,-12.0,-4.0,-13.0,-7.0,-4.0
1706277450.36308,-5.0,10.0,6.0,-1.0,12.0,14.0,0.0,-2.0
1706277450.3638566,-7.0,4.0,3.0,1.0,-6.0,-11.0,0.0,-4.0
1706277450.3638566,2.0,9.0,-5.0,-7.0,-2.0,6.0,0.0,0.0
1706277450.3823626,-18.0,-21.0,-12.0,-2.0,3.0,4.0,-1.0,-3.0
1706277450.3823626,15.0,7.0,2.0,0.0,-2.0,-3.0,1.0,-2.0
1706277450.3920455,-3.0,4.0,12.0,15.0,6.0,7.0,3.0,5.0
1706277450.3920455,9.0,-2.0,-16.0,-9.0,-2.0,-5.0,0.0,3.0
1706277450.402048,-5.0,6.0,-7.0,-16.0,-14.0,-2.0,0.0,-5.0
1706277450.402048,22.0,13.0,0.0,-22.0,-8.0,-15.0,-6.0,6.0
1706277450.402048,-4.0,-6.0,1.0,45.0,15.0,11.0,1.0,1.0
1706277450.402048,-8.0,-9.0,-12.0,-1.0,1.0,-3.0,-3.0,-7.0
1706277450.4224222,6.0,9.0,5.0,4.0,14.0,6.0,-1.0,-3.0
1706277450.4224222,-13.0,-11.0,-17.0,-74.0,-35.0,-9.0,-3.0,-4.0
1706277450.4224222,-3.0,5.0,35.0,84.0,41.0,11.0,3.0,1.0
1706277450.4224222,13.0,3.0,-20.0,22.0,17.0,4.0,3.0,8.0
1706277450.4420457,-8.0,0.0,15.0,27.0,-3.0,-7.0,-6.0,-4.0
1706277450.4420457,1.0,19.0,3.0,-51.0,-11.0,-8.0,-6.0,-5.0
1706277450.4420457,-9.0,-11.0,-22.0,-28.0,-21.0,-12.0,-8.0,-9.0
1706277450.4420457,13.0,20.0,21.0,-6.0,-3.0,2.0,0.0,-7.0
1706277450.4622874,7.0,-20.0,-23.0,11.0,19.0,8.0,5.0,16.0
1706277450.4622874,-2.0,-14.0,-8.0,26.0,7.0,4.0,10.0,3.0
1706277450.4622874,-15.0,15.0,2.0,-20.0,-15.0,-11.0,-11.0,-9.0
1706277450.4622874,7.0,-2.0,-5.0,-19.0,-21.0,-25.0,-13.0,-20.0
1706277450.4823556,-5.0,5.0,-1.0,-7.0,5.0,24.0,16.0,-4.0
1706277450.4823556,6.0,13.0,15.0,39.0,10.0,-1.0,0.0,10.0
1706277450.4823556,-17.0,3.0,3.0,-9.0,8.0,11.0,8.0,-8.0
1706277450.4823556,2.0,-11.0,2.0,-1.0,-5.0,-11.0,0.0,22.0
1706277450.5220444,-50.0,-7.0,11.0,-20.0,-18.0,-17.0,-20.0,-24.0
1706277450.5220444,12.0,-33.0,-3.0,26.0,11.0,7.0,3.0,2.0
1706277450.5220444,-10.0,-14.0,-10.0,-28.0,-15.0,-11.0,-12.0,-9.0
1706277450.5220444,-16.0,13.0,5.0,7.0,7.0,1.0,-2.0,-4.0
1706277450.5220444,16.0,-12.0,-7.0,2.0,-8.0,5.0,6.0,3.0
1706277450.5220444,-4.0,-2.0,0.0,-3.0,-2.0,5.0,5.0,-3.0
1706277450.5220444,-6.0,-11.0,-12.0,-15.0,-11.0,-6.0,0.0,3.0
1706277450.5220444,11.0,-17.0,0.0,0.0,1.0,10.0,8.0,8.0
1706277450.542474,3.0,5.0,-4.0,1.0,-9.0,-20.0,-11.0,-5.0
1706277450.542474,-13.0,9.0,7.0,6.0,1.0,-1.0,-9.0,-8.0
1706277450.542474,10.0,-13.0,-14.0,-26.0,-9.0,3.0,5.0,5.0
1706277450.542474,-1.0,-4.0,-16.0,-9.0,-5.0,11.0,5.0,2.0
1706277450.5620465,16.0,16.0,10.0,25.0,9.0,-7.0,-5.0,0.0
1706277450.5620465,-13.0,-1.0,0.0,-22.0,-1.0,2.0,-2.0,-9.0
1706277450.5620465,15.0,15.0,-7.0,22.0,-2.0,-8.0,-5.0,2.0
1706277450.5620465,-5.0,-7.0,3.0,23.0,11.0,10.0,5.0,2.0
1706277450.5823534,-4.0,-8.0,-25.0,-19.0,-2.0,-5.0,-5.0,-1.0
1706277450.5823534,1.0,12.0,10.0,-24.0,-19.0,-7.0,-6.0,-3.0
1706277450.5823534,-6.0,-11.0,20.0,33.0,-1.0,1.0,1.0,-1.0
1706277450.5823534,0.0,1.0,8.0,-12.0,-2.0,-3.0,0.0,-1.0
1706277450.6023731,-21.0,-46.0,5.0,50.0,11.0,6.0,-1.0,-7.0
1706277450.6120522,6.0,21.0,5.0,-34.0,-10.0,-5.0,0.0,1.0
1706277450.6120522,-16.0,-39.0,-27.0,-82.0,-26.0,-12.0,-9.0,-10.0
1706277450.6120522,7.0,23.0,-1.0,2.0,-5.0,-11.0,-7.0,-2.0
1706277450.6420443,8.0,-15.0,4.0,4.0,10.0,19.0,9.0,11.0
1706277450.6420443,-4.0,20.0,-13.0,32.0,13.0,1.0,6.0,10.0
1706277450.6420443,-6.0,-16.0,3.0,-11.0,-8.0,0.0,-3.0,-1.0
1706277450.6420443,15.0,7.0,3.0,-10.0,2.0,-7.0,-11.0,-15.0
1706277450.6420443,33.0,58.0,10.0,-28.0,-11.0,-10.0,-6.0,1.0
1706277450.6420443,-44.0,-41.0,2.0,44.0,23.0,16.0,10.0,-7.0
1706277450.6420443,37.0,16.0,1.0,-8.0,1.0,2.0,-7.0,-11.0
1706277450.6420443,-7.0,-41.0,-5.0,12.0,-1.0,-2.0,9.0,35.0
1706277450.6620474,4.0,-7.0,0.0,-23.0,-10.0,-10.0,-6.0,-9.0
1706277450.6620474,13.0,14.0,4.0,14.0,16.0,15.0,9.0,13.0
1706277450.6720445,15.0,21.0,-5.0,2.0,-12.0,-15.0,-12.0,-6.0
1706277450.6720445,-18.0,2.0,-9.0,-16.0,-7.0,0.0,-8.0,-18.0
1706277450.6824381,7.0,-13.0,4.0,-2.0,3.0,0.0,3.0,10.0
1706277450.6824381,10.0,11.0,4.0,6.0,-9.0,-13.0,-9.0,-8.0
1706277450.6824381,-18.0,-5.0,-14.0,-2.0,11.0,10.0,9.0,9.0
1706277450.6824381,10.0,-3.0,3.0,-1.0,-8.0,-1.0,4.0,1.0
1706277450.7024791,2.0,25.0,-7.0,-49.0,-27.0,-13.0,-4.0,-4.0
1706277450.7024791,-3.0,-17.0,-1.0,31.0,21.0,1.0,-1.0,-3.0
1706277450.7024791,-4.0,-7.0,22.0,12.0,10.0,10.0,10.0,7.0
1706277450.7024791,-20.0,-9.0,-4.0,-8.0,-9.0,-10.0,-9.0,-10.0
1706277450.7220502,-3.0,3.0,3.0,-13.0,6.0,6.0,3.0,0.0
1706277450.7220502,12.0,0.0,-22.0,-23.0,-41.0,-12.0,-6.0,-1.0
1706277450.7320464,-15.0,2.0,-5.0,52.0,39.0,8.0,3.0,2.0
1706277450.7320464,4.0,-8.0,13.0,-31.0,-9.0,0.0,4.0,0.0
1706277450.7423131,-9.0,-6.0,-9.0,37.0,18.0,7.0,2.0,0.0
1706277450.7423131,6.0,20.0,0.0,-22.0,-15.0,-13.0,-10.0,-5.0
1706277450.7423131,8.0,-7.0,12.0,5.0,2.0,5.0,5.0,8.0
1706277450.7423131,-6.0,8.0,-6.0,17.0,4.0,2.0,-1.0,-5.0
1706277450.7620478,-30.0,0.0,-9.0,-47.0,-17.0,-5.0,-3.0,-6.0
1706277450.7620478,5.0,-11.0,2.0,16.0,8.0,1.0,-2.0,-1.0
1706277450.7620478,12.0,-18.0,-7.0,-25.0,-25.0,-21.0,-13.0,-2.0
1706277450.7620478,3.0,25.0,-13.0,12.0,16.0,10.0,3.0,-3.0
1706277450.7920516,-6.0,-17.0,3.0,1.0,-3.0,-1.0,-3.0,-2.0
1706277450.7920516,-3.0,10.0,9.0,23.0,19.0,9.0,1.0,-3.0
1706277450.7920516,2.0,13.0,5.0,3.0,-2.0,-4.0,-3.0,-2.0
1706277450.7920516,-12.0,-12.0,-16.0,-18.0,-12.0,-6.0,-15.0,-23.0
1706277450.802357,4.0,-10.0,3.0,11.0,7.0,9.0,12.0,16.0
1706277450.802357,-3.0,-14.0,0.0,1.0,-4.0,-8.0,0.0,-1.0
1706277450.8123295,-4.0,-13.0,-3.0,-7.0,-7.0,-7.0,0.0,7.0
1706277450.8123295,-18.0,-19.0,5.0,9.0,12.0,11.0,3.0,-6.0
1706277450.852057,7.0,9.0,4.0,11.0,9.0,4.0,-5.0,-2.0
1706277450.852057,-3.0,-2.0,-3.0,-12.0,-7.0,5.0,7.0,3.0
1706277450.852057,2.0,6.0,-1.0,-32.0,-15.0,2.0,4.0,0.0
1706277450.852057,3.0,5.0,-8.0,23.0,0.0,-8.0,7.0,10.0
1706277450.852057,15.0,-3.0,1.0,14.0,1.0,-8.0,1.0,4.0
1706277450.852057,-9.0,-5.0,-10.0,-16.0,-7.0,-7.0,-8.0,-5.0
1706277450.852057,-4.0,5.0,4.0,-5.0,-10.0,-1.0,-3.0,-1.0
1706277450.852057,12.0,3.0,5.0,7.0,28.0,21.0,14.0,8.0
1706277450.8622708,-5.0,-21.0,10.0,27.0,5.0,-2.0,2.0,7.0
1706277450.8622708,-2.0,10.0,-6.0,-23.0,-14.0,-9.0,-6.0,-7.0
1706277450.8721435,6.0,1.0,-7.0,-7.0,0.0,-5.0,-8.0,-3.0
1706277450.8721435,-5.0,11.0,15.0,7.0,8.0,17.0,7.0,0.0
1706277450.9041178,-1.0,30.0,-1.0,35.0,19.0,3.0,1.0,1.0
1706277450.9041178,33.0,22.0,32.0,-27.0,-9.0,-4.0,-3.0,12.0
1706277450.9041178,-1.0,-2.0,17.0,8.0,-4.0,-18.0,-11.0,7.0
1706277450.9041178,-13.0,-11.0,-19.0,-13.0,-3.0,21.0,4.0,-9.0
1706277450.9041178,-13.0,-27.0,-16.0,-34.0,-8.0,-3.0,1.0,-3.0
1706277450.9041178,-2.0,6.0,-28.0,6.0,0.0,-2.0,-1.0,8.0
1706277450.9041178,-8.0,9.0,16.0,2.0,5.0,3.0,1.0,-17.0
1706277450.9041178,6.0,19.0,20.0,-2.0,-11.0,-17.0,-15.0,6.0
1706277450.9244063,-15.0,-41.0,-15.0,-6.0,2.0,8.0,5.0,-9.0
1706277450.9244063,-3.0,8.0,6.0,10.0,4.0,6.0,1.0,-4.0
1706277450.9341266,-20.0,-3.0,-2.0,-7.0,1.0,3.0,6.0,2.0
1706277450.9341266,6.0,-8.0,-14.0,-28.0,-14.0,-8.0,-6.0,-6.0
1706277450.9641209,10.0,-1.0,8.0,15.0,6.0,-2.0,-3.0,3.0
1706277450.9641209,-10.0,-5.0,2.0,-26.0,4.0,3.0,-1.0,0.0
1706277450.9641209,13.0,11.0,-9.0,69.0,34.0,19.0,13.0,0.0
1706277450.9641209,-3.0,-6.0,-10.0,-50.0,-35.0,-24.0,-13.0,-2.0
1706277450.9641209,-1.0,1.0,-14.0,-83.0,-21.0,-4.0,-14.0,-11.0
1706277450.9641209,14.0,0.0,-4.0,48.0,16.0,-6.0,2.0,-3.0
1706277450.9641209,-17.0,-11.0,-1.0,-50.0,-13.0,1.0,-8.0,-7.0
1706277450.9641209,-11.0,-15.0,2.0,78.0,18.0,-9.0,-4.0,-8.0
1706277450.9845583,9.0,21.0,16.0,-25.0,-10.0,-5.0,-3.0,-2.0
1706277450.9845583,-9.0,-35.0,-24.0,11.0,1.0,4.0,1.0,-1.0
1706277450.9941242,9.0,16.0,-10.0,-22.0,3.0,10.0,7.0,5.0
1706277450.9941242,10.0,13.0,18.0,-4.0,5.0,-2.0,4.0,17.0
1706277451.0141194,-15.0,-30.0,3.0,17.0,-7.0,0.0,4.0,-6.0
1706277451.0141194,-9.0,-16.0,-12.0,-9.0,-7.0,-5.0,-2.0,3.0
1706277451.0141194,17.0,10.0,13.0,21.0,19.0,11.0,7.0,11.0
1706277451.0141194,4.0,-2.0,-2.0,1.0,-5.0,-1.0,5.0,5.0
1706277451.0241559,-7.0,28.0,7.0,35.0,9.0,3.0,-3.0,-5.0
1706277451.0241559,5.0,3.0,22.0,2.0,-5.0,-8.0,-4.0,-5.0
1706277451.0241559,-6.0,0.0,-33.0,-47.0,-33.0,-11.0,-6.0,-9.0
1706277451.0241559,26.0,11.0,-6.0,9.0,12.0,6.0,4.0,11.0
1706277451.0541224,-1.0,1.0,16.0,14.0,4.0,-1.0,1.0,-2.0
1706277451.0541224,-17.0,-10.0,31.0,11.0,0.0,3.0,-1.0,-13.0
1706277451.0541224,7.0,3.0,-31.0,-18.0,-1.0,-2.0,4.0,13.0
1706277451.0541224,-4.0,-14.0,-7.0,-4.0,-5.0,-2.0,-2.0,-1.0
1706277451.0641546,-3.0,4.0,7.0,15.0,-9.0,-20.0,-11.0,-3.0
1706277451.0641546,-4.0,0.0,-12.0,-8.0,5.0,10.0,1.0,3.0
1706277451.0641546,-22.0,-3.0,9.0,20.0,6.0,1.0,-1.0,-17.0
1706277451.0641546,13.0,11.0,14.0,-9.0,-10.0,-8.0,-5.0,-2.0
1706277451.0844243,-2.0,-4.0,-14.0,-7.0,-4.0,-8.0,-6.0,3.0
1706277451.0844243,-8.0,-37.0,-7.0,5.0,2.0,6.0,-9.0,-9.0
1706277451.0844243,-14.0,17.0,0.0,19.0,11.0,-2.0,-2.0,-8.0
1706277451.0844243,37.0,-9.0,-13.0,-8.0,-11.0,-16.0,4.0,24.0
1706277451.1044219,-8.0,20.0,4.0,4.0,9.0,13.0,1.0,-9.0
1706277451.1044219,-30.0,22.0,1.0,-12.0,-15.0,-15.0,-8.0,-10.0
1706277451.134125,19.0,-19.0,-5.0,-16.0,-8.0,3.0,3.0,8.0
1706277451.134125,-13.0,-3.0,-2.0,-1.0,-3.0,-8.0,-5.0,-9.0
1706277451.134125,14.0,8.0,9.0,2.0,5.0,8.0,4.0,3.0
1706277451.134125,-3.0,-6.0,-18.0,1.0,-4.0,-7.0,-2.0,-4.0
1706277451.134125,4.0,-14.0,2.0,-16.0,-14.0,-1.0,-3.0,4.0
1706277451.134125,-23.0,6.0,0.0,18.0,19.0,3.0,-2.0,-16.0
1706277451.1444554,13.0,-8.0,-10.0,-14.0,-10.0,-4.0,-5.0,4.0
1706277451.1444554,0.0,8.0,-2.0,-7.0,-11.0,-8.0,-4.0,-6.0
1706277451.1444554,7.0,17.0,-15.0,-24.0,-20.0,-6.0,-4.0,-2.0
1706277451.1444554,-11.0,-13.0,21.0,36.0,17.0,-6.0,-7.0,-10.0
1706277451.1642964,-3.0,12.0,-25.0,-17.0,-6.0,-7.0,0.0,-2.0
1706277451.1642964,-2.0,-32.0,-17.0,-18.0,-4.0,0.0,-5.0,-6.0
1706277451.1741216,0.0,18.0,6.0,9.0,-3.0,-2.0,6.0,4.0
1706277451.1741216,-9.0,-29.0,-37.0,-4.0,-2.0,0.0,-3.0,-2.0
1706277451.1841521,-3.0,12.0,29.0,33.0,14.0,4.0,1.0,-5.0
1706277451.1841521,9.0,5.0,-2.0,-11.0,-9.0,-9.0,-2.0,3.0
1706277451.1841521,7.0,5.0,23.0,-5.0,8.0,4.0,4.0,15.0
1706277451.1841521,-10.0,11.0,6.0,-39.0,-19.0,-1.0,-9.0,-15.0
1706277451.2045395,3.0,8.0,-7.0,25.0,5.0,-2.0,3.0,6.0
1706277451.2045395,20.0,-16.0,-28.0,-5.0,3.0,0.0,0.0,9.0
1706277451.2045395,-21.0,-20.0,6.0,43.0,14.0,9.0,-1.0,-26.0
1706277451.2045395,-24.0,0.0,-4.0,-44.0,-13.0,-4.0,-2.0,6.0
1706277451.2245433,17.0,7.0,-21.0,-38.0,-17.0,-9.0,-12.0,-13.0
1706277451.2245433,9.0,12.0,22.0,30.0,17.0,15.0,11.0,-3.0
1706277451.2341225,-3.0,-6.0,0.0,9.0,-1.0,-8.0,-6.0,2.0
1706277451.2341225,-8.0,-14.0,-4.0,-10.0,-9.0,-4.0,-8.0,-8.0
1706277451.2441537,3.0,15.0,4.0,27.0,9.0,4.0,9.0,10.0
1706277451.2441537,10.0,24.0,17.0,2.0,9.0,8.0,10.0,19.0
1706277451.2441537,-6.0,-43.0,-26.0,5.0,4.0,2.0,1.0,5.0
1706277451.2441537,-8.0,11.0,13.0,2.0,-10.0,-7.0,-5.0,-2.0
1706277451.2644215,-17.0,-31.0,12.0,1.0,-1.0,3.0,0.0,-9.0
1706277451.2644215,3.0,14.0,-5.0,18.0,0.0,-3.0,0.0,-6.0
1706277451.2644215,17.0,-20.0,-6.0,-16.0,-3.0,-3.0,-3.0,3.0
1706277451.2644215,10.0,41.0,11.0,5.0,0.0,6.0,10.0,14.0
1706277451.2841203,-25.0,-38.0,-21.0,-5.0,0.0,0.0,-6.0,-19.0
1706277451.2841203,6.0,16.0,-2.0,-11.0,-8.0,-14.0,-5.0,21.0
1706277451.2841203,15.0,18.0,12.0,11.0,6.0,7.0,8.0,4.0
1706277451.2941258,-14.0,-14.0,-27.0,-14.0,-4.0,2.0,6.0,-4.0
1706277451.304574,-8.0,12.0,5.0,-6.0,-10.0,-11.0,-5.0,-5.0
1706277451.304574,-1.0,-4.0,-5.0,-11.0,-10.0,-5.0,-13.0,-19.0
1706277451.304574,-12.0,10.0,1.0,21.0,6.0,-9.0,-9.0,-2.0
1706277451.304574,18.0,1.0,4.0,6.0,9.0,7.0,1.0,4.0
1706277451.3245218,-25.0,8.0,-11.0,-17.0,-11.0,-4.0,-7.0,-7.0
1706277451.3245218,-15.0,-21.0,-6.0,-15.0,-11.0,-2.0,-1.0,0.0
1706277451.3245218,-2.0,-2.0,-5.0,-41.0,-20.0,-7.0,-4.0,-7.0
1706277451.3245218,-1.0,2.0,3.0,43.0,10.0,5.0,5.0,-3.0
1706277451.3444571,4.0,-24.0,-7.0,-3.0,3.0,-2.0,-2.0,0.0
1706277451.3444571,-17.0,-24.0,27.0,5.0,6.0,5.0,3.0,1.0
1706277451.3541226,-11.0,1.0,1.0,2.0,5.0,-1.0,-7.0,-12.0
1706277451.3541226,-4.0,-19.0,1.0,-4.0,-2.0,1.0,-2.0,-3.0
1706277451.364154,9.0,-1.0,-2.0,8.0,7.0,10.0,8.0,14.0
1706277451.364154,-12.0,-4.0,-11.0,-2.0,-3.0,-4.0,-6.0,-6.0
1706277451.364154,6.0,-9.0,7.0,15.0,4.0,-5.0,1.0,2.0
1706277451.364154,-4.0,-4.0,-9.0,-7.0,-7.0,-3.0,6.0,-2.0
1706277451.3841217,10.0,6.0,-6.0,-4.0,-5.0,-7.0,-7.0,2.0
1706277451.3841217,-10.0,9.0,10.0,5.0,7.0,6.0,-1.0,-10.0
1706277451.3941193,8.0,8.0,0.0,7.0,0.0,-2.0,2.0,7.0
1706277451.3941193,7.0,-5.0,-16.0,-23.0,-22.0,-12.0,-3.0,-9.0
1706277451.4041538,-2.0,3.0,-7.0,-1.0,2.0,3.0,19.0,13.0
1706277451.4041538,3.0,9.0,0.0,-11.0,-7.0,-4.0,-3.0,-7.0
1706277451.4041538,-31.0,-24.0,16.0,14.0,22.0,21.0,14.0,6.0
1706277451.414127,15.0,-4.0,6.0,15.0,12.0,10.0,-8.0,3.0
1706277451.428641,-15.0,6.0,-4.0,-22.0,-27.0,-17.0,-7.0,-18.0
1706277451.428641,0.0,-1.0,0.0,16.0,19.0,8.0,5.0,1.0
1706277451.430083,12.0,30.0,-12.0,10.0,-6.0,-5.0,-5.0,-1.0
1706277451.430083,-16.0,-29.0,20.0,-10.0,12.0,15.0,3.0,-2.0
1706277451.4479308,3.0,7.0,11.0,29.0,15.0,4.0,0.0,10.0
1706277451.4479308,16.0,11.0,12.0,-10.0,2.0,4.0,2.0,6.0
1706277451.4479308,-11.0,-17.0,-18.0,-3.0,1.0,-8.0,-5.0,-11.0
1706277451.4479308,-10.0,-5.0,-12.0,23.0,16.0,5.0,-3.0,-5.0
1706277451.46753,22.0,23.0,32.0,-28.0,-20.0,-8.0,0.0,10.0
1706277451.46753,-24.0,-33.0,-27.0,29.0,16.0,9.0,1.0,-7.0
1706277451.46753,11.0,30.0,-7.0,-51.0,-9.0,-6.0,-6.0,0.0
1706277451.46753,-6.0,-40.0,-48.0,-40.0,0.0,6.0,3.0,-2.0
1706277451.487542,-5.0,-2.0,-26.0,79.0,26.0,9.0,-1.0,-3.0
1706277451.487542,11.0,16.0,-24.0,-1.0,-3.0,-9.0,3.0,3.0
1706277451.487542,7.0,-8.0,4.0,43.0,-8.0,-3.0,-2.0,-3.0
1706277451.487542,1.0,27.0,14.0,-55.0,-15.0,-4.0,-3.0,1.0
1706277451.5275297,4.0,-8.0,38.0,4.0,-14.0,-4.0,-8.0,-6.0
1706277451.5275297,38.0,38.0,8.0,-42.0,-15.0,-2.0,1.0,8.0
1706277451.5275297,-34.0,-10.0,-28.0,-7.0,-10.0,-12.0,-12.0,-13.0
1706277451.5275297,10.0,37.0,4.0,14.0,-5.0,-17.0,-11.0,-1.0
1706277451.5275297,-14.0,-38.0,-58.0,-53.0,-6.0,23.0,10.0,3.0
1706277451.5275297,-11.0,-2.0,14.0,31.0,3.0,0.0,-5.0,-5.0
1706277451.5275297,28.0,27.0,19.0,-6.0,7.0,2.0,1.0,11.0
1706277451.5275297,-13.0,3.0,44.0,51.0,5.0,12.0,13.0,-1.0
1706277451.5478156,-44.0,-36.0,-29.0,-60.0,-17.0,-17.0,-12.0,-16.0
1706277451.5478156,20.0,23.0,-10.0,-2.0,3.0,0.0,-2.0,3.0
1706277451.5478156,-16.0,-6.0,3.0,-41.0,-23.0,-12.0,-12.0,-5.0
1706277451.5478156,-1.0,-8.0,-8.0,21.0,15.0,9.0,10.0,2.0
1706277451.5775332,38.0,42.0,35.0,11.0,-4.0,-4.0,-3.0,8.0
1706277451.5775332,-6.0,-29.0,-17.0,42.0,22.0,2.0,-1.0,-3.0
1706277451.5775332,-16.0,-26.0,-19.0,-9.0,1.0,8.0,4.0,-5.0
1706277451.5775332,-8.0,-19.0,19.0,-3.0,-5.0,-4.0,0.0,-1.0
1706277451.5775332,-22.0,-13.0,-15.0,-41.0,-22.0,-23.0,-12.0,-6.0
1706277451.5775332,-6.0,12.0,14.0,-9.0,-4.0,8.0,0.0,1.0
1706277451.5875566,18.0,4.0,8.0,10.0,11.0,29.0,27.0,8.0
1706277451.5875566,-7.0,11.0,-9.0,0.0,0.0,-9.0,-6.0,4.0
1706277451.6079166,17.0,0.0,-8.0,14.0,17.0,13.0,2.0,-2.0
1706277451.6079166,-10.0,-9.0,12.0,-8.0,-5.0,-6.0,2.0,1.0
1706277451.6079166,-4.0,-14.0,6.0,16.0,7.0,-6.0,-2.0,5.0
1706277451.6079166,3.0,-14.0,-4.0,-4.0,-11.0,-9.0,-6.0,-4.0
1706277451.627531,6.0,-8.0,1.0,18.0,10.0,2.0,0.0,-1.0
1706277451.627531,-11.0,-8.0,-2.0,-29.0,-13.0,-7.0,-5.0,-2.0
1706277451.6375356,14.0,14.0,1.0,-3.0,-7.0,-6.0,-5.0,-2.0
1706277451.6375356,6.0,9.0,-1.0,7.0,3.0,-2.0,-6.0,-1.0
1706277451.6375356,1.0,4.0,6.0,9.0,2.0,-3.0,0.0,-3.0
1706277451.6375356,0.0,-7.0,-24.0,-15.0,-12.0,-3.0,1.0,0.0
1706277451.64757,-14.0,1.0,6.0,1.0,3.0,-5.0,-8.0,-8.0
1706277451.64757,15.0,14.0,-2.0,-3.0,-1.0,0.0,1.0,8.0
1706277451.6676762,12.0,-1.0,4.0,17.0,11.0,-1.0,2.0,6.0
1706277451.6676762,-13.0,-2.0,10.0,-5.0,2.0,20.0,9.0,-6.0
1706277451.6775424,12.0,-2.0,2.0,-1.0,0.0,5.0,6.0,11.0
1706277451.6775424,-7.0,-14.0,-19.0,0.0,-4.0,-9.0,-10.0,-11.0
1706277451.6975331,10.0,17.0,7.0,-11.0,-3.0,1.0,0.0,4.0
1706277451.6975331,-5.0,6.0,15.0,4.0,0.0,-8.0,-4.0,-2.0
1706277451.6975331,9.0,36.0,11.0,23.0,-5.0,-8.0,-8.0,-1.0
1706277451.6975331,-6.0,2.0,4.0,-28.0,-3.0,1.0,-2.0,-3.0
1706277451.7075663,-6.0,-16.0,-12.0,-1.0,1.0,4.0,2.0,0.0
1706277451.7075663,2.0,0.0,-8.0,-7.0,-9.0,-10.0,-5.0,-3.0
1706277451.7075663,-6.0,-14.0,3.0,0.0,3.0,2.0,-2.0,-4.0
1706277451.7075663,15.0,18.0,-5.0,-3.0,-10.0,-2.0,5.0,10.0
1706277451.7375317,-9.0,0.0,33.0,20.0,15.0,6.0,-2.0,-6.0
1706277451.7375317,2.0,-11.0,-28.0,-10.0,-1.0,-1.0,0.0,0.0
1706277451.7375317,-33.0,-2.0,17.0,8.0,5.0,-5.0,-7.0,-11.0
1706277451.7375317,28.0,14.0,-16.0,-9.0,-9.0,-8.0,2.0,5.0
1706277451.7477646,-6.0,10.0,1.0,0.0,3.0,1.0,-4.0,1.0
1706277451.7477646,0.0,-12.0,6.0,0.0,-9.0,1.0,0.0,-8.0
1706277451.7477646,-3.0,-1.0,-7.0,-2.0,11.0,28.0,24.0,13.0
1706277451.7477646,-18.0,-17.0,0.0,4.0,5.0,-2.0,-3.0,-19.0
1706277451.7678733,0.0,20.0,5.0,5.0,0.0,1.0,-2.0,1.0
1706277451.7678733,-6.0,-5.0,-2.0,-7.0,-10.0,-18.0,-11.0,1.0
1706277451.7678733,-6.0,2.0,-9.0,-14.0,-14.0,-25.0,-23.0,-9.0
1706277451.7678733,1.0,16.0,9.0,10.0,13.0,34.0,18.0,3.0
1706277451.7975297,5.0,-23.0,-22.0,-16.0,-13.0,-14.0,1.0,-1.0
1706277451.7975297,5.0,1.0,6.0,-2.0,-1.0,-5.0,-8.0,2.0
1706277451.7975297,0.0,7.0,9.0,3.0,-8.0,-6.0,1.0,2.0
1706277451.7975297,0.0,-20.0,15.0,5.0,2.0,-13.0,-16.0,-2.0
1706277451.8077583,-15.0,-15.0,-18.0,-9.0,2.0,2.0,2.0,-4.0
1706277451.8077583,-27.0,-7.0,16.0,31.0,6.0,3.0,3.0,-5.0
1706277451.8077583,12.0,-16.0,-16.0,-2.0,14.0,1.0,-4.0,2.0
1706277451.8077583,-7.0,17.0,-6.0,41.0,-1.0,-2.0,-6.0,-6.0
1706277451.8277867,11.0,14.0,16.0,-94.0,-48.0,-10.0,-4.0,-2.0
1706277451.8277867,11.0,8.0,32.0,85.0,62.0,13.0,6.0,8.0
1706277451.8277867,3.0,-6.0,-25.0,5.0,-3.0,-3.0,1.0,-1.0
1706277451.8277867,3.0,5.0,15.0,0.0,-1.0,1.0,-1.0,3.0
1706277451.8575296,-17.0,12.0,-5.0,-14.0,2.0,-1.0,-3.0,0.0
1706277451.8575296,9.0,-7.0,-11.0,-28.0,-10.0,8.0,-2.0,-2.0
1706277451.8575296,-5.0,-5.0,5.0,-22.0,-22.0,-7.0,-1.0,-3.0
1706277451.8575296,0.0,-4.0,-7.0,-5.0,10.0,1.0,0.0,6.0
1706277451.8678808,2.0,7.0,-6.0,19.0,-6.0,-9.0,-2.0,-5.0
1706277451.8678808,-10.0,4.0,-5.0,-28.0,-14.0,-9.0,-9.0,-7.0
1706277451.8678808,5.0,-8.0,-7.0,14.0,13.0,21.0,12.0,1.0
1706277451.8678808,-16.0,-8.0,0.0,-19.0,-17.0,-9.0,-11.0,-10.0
1706277451.8875775,9.0,1.0,4.0,18.0,18.0,18.0,9.0,8.0
1706277451.8875775,7.0,14.0,1.0,-9.0,-11.0,1.0,9.0,2.0
1706277451.8875775,-4.0,-15.0,-2.0,-14.0,-5.0,-7.0,-3.0,-1.0
1706277451.8875775,3.0,-5.0,-1.0,8.0,2.0,-8.0,-7.0,-13.0
1706277451.9075317,17.0,5.0,2.0,10.0,14.0,31.0,18.0,16.0
1706277451.9075317,-18.0,-2.0,-5.0,-16.0,-12.0,-10.0,-7.0,-5.0
1706277451.9075317,18.0,4.0,-5.0,-3.0,-12.0,-18.0,-19.0,-3.0
1706277451.9075317,-3.0,-18.0,-6.0,-1.0,5.0,12.0,18.0,14.0
1706277451.927777,-1.0,7.0,7.0,36.0,8.0,-12.0,-10.0,-6.0
1706277451.927777,3.0,4.0,-23.0,-42.0,-16.0,-7.0,-6.0,-7.0
1706277451.927777,4.0,30.0,21.0,62.0,11.0,6.0,-1.0,-3.0
1706277451.927777,-23.0,-26.0,-22.0,-57.0,-17.0,-13.0,-10.0,-8.0
1706277451.9799297,-4.0,-3.0,23.0,65.0,10.0,0.0,0.0,-1.0
1706277451.9799297,-1.0,-7.0,-34.0,-53.0,-20.0,-9.0,-5.0,-3.0
1706277451.9799297,7.0,-4.0,23.0,32.0,2.0,-4.0,0.0,-2.0
1706277451.9799297,2.0,35.0,-4.0,-17.0,-5.0,3.0,5.0,4.0
1706277451.9799297,2.0,-9.0,-2.0,-8.0,-15.0,-10.0,-3.0,2.0
1706277451.9799297,-12.0,-9.0,16.0,36.0,8.0,4.0,5.0,2.0
1706277451.9799297,-5.0,-17.0,-13.0,-22.0,12.0,4.0,2.0,0.0
1706277451.9799297,17.0,-20.0,-14.0,-7.0,-1.0,-5.0,-5.0,-7.0
1706277451.9903164,1.0,-6.0,-2.0,-13.0,-6.0,-5.0,5.0,16.0
1706277451.9903164,3.0,-9.0,14.0,28.0,4.0,4.0,8.0,28.0
1706277451.9903164,-14.0,-1.0,-5.0,-41.0,-17.0,-6.0,-9.0,-35.0
1706277451.9903164,6.0,21.0,14.0,23.0,15.0,14.0,10.0,20.0
1706277452.0203264,-12.0,-14.0,-13.0,-15.0,-4.0,-8.0,-6.0,-14.0
1706277452.0203264,-3.0,-22.0,-8.0,3.0,2.0,-3.0,-6.0,-7.0
1706277452.0203264,21.0,28.0,-5.0,-8.0,-5.0,-1.0,10.0,23.0
1706277452.0203264,-9.0,-16.0,0.0,-1.0,-10.0,-11.0,-10.0,-7.0
1706277452.0203264,-3.0,-24.0,-8.0,16.0,16.0,8.0,-11.0,-12.0
1706277452.0203264,-31.0,-6.0,10.0,-1.0,-1.0,-2.0,1.0,-6.0
1706277452.030618,16.0,11.0,2.0,-12.0,0.0,5.0,4.0,13.0
1706277452.030618,-14.0,-16.0,4.0,-4.0,-8.0,3.0,-2.0,-4.0
1706277452.0507088,7.0,13.0,-1.0,-38.0,-12.0,-3.0,-1.0,4.0
1706277452.0507088,4.0,0.0,5.0,37.0,26.0,7.0,3.0,-9.0
1706277452.0507088,-2.0,-3.0,3.0,-9.0,3.0,3.0,3.0,6.0
1706277452.0507088,-1.0,6.0,1.0,9.0,3.0,-1.0,3.0,-2.0
1706277452.0803266,-8.0,-6.0,-18.0,-47.0,-40.0,-26.0,-11.0,-14.0
1706277452.0803266,-4.0,-10.0,-20.0,-72.0,-42.0,-2.0,-6.0,0.0
1706277452.0803266,-7.0,2.0,15.0,79.0,52.0,10.0,4.0,-2.0
1706277452.0803266,0.0,-6.0,-10.0,-18.0,-17.0,-16.0,-7.0,-4.0
1706277452.0803266,-3.0,-1.0,5.0,18.0,15.0,4.0,-2.0,-4.0
1706277452.0803266,3.0,-8.0,-6.0,-34.0,-18.0,-8.0,-1.0,1.0
1706277452.0904925,-8.0,-10.0,-10.0,-6.0,-13.0,-10.0,-3.0,1.0
1706277452.0904925,-1.0,8.0,16.0,49.0,11.0,0.0,-5.0,-6.0
1706277452.1105404,-5.0,-1.0,21.0,11.0,10.0,8.0,5.0,0.0
1706277452.1105404,11.0,35.0,17.0,-30.0,-4.0,-11.0,-8.0,-9.0
1706277452.1105404,-23.0,-29.0,-28.0,-100.0,-38.0,-13.0,-9.0,-3.0
1706277452.1105404,3.0,8.0,39.0,94.0,28.0,-2.0,-2.0,-3.0
1706277452.140329,-7.0,-33.0,-71.0,-58.0,-18.0,-7.0,-3.0,-2.0
1706277452.140329,-15.0,-1.0,-3.0,57.0,15.0,-4.0,-10.0,-12.0
1706277452.140329,-22.0,-10.0,28.0,-8.0,-16.0,-7.0,-5.0,-22.0
1706277452.140329,-17.0,-9.0,-24.0,-77.0,-26.0,-8.0,-20.0,-54.0
1706277452.140329,48.0,59.0,17.0,14.0,10.0,-2.0,21.0,60.0
1706277452.140329,-31.0,-28.0,-11.0,29.0,11.0,6.0,4.0,-10.0
1706277452.150328,-8.0,-8.0,-14.0,2.0,-7.0,-9.0,0.0,4.0
1706277452.150328,-1.0,-14.0,-12.0,-14.0,-7.0,-1.0,1.0,-1.0
1706277452.17045,-20.0,-6.0,4.0,2.0,-23.0,-20.0,-23.0,-33.0
1706277452.17045,28.0,-20.0,5.0,6.0,21.0,13.0,18.0,22.0
1706277452.17045,3.0,13.0,0.0,12.0,-3.0,-6.0,-4.0,4.0
1706277452.17045,3.0,-2.0,8.0,-16.0,-9.0,-3.0,2.0,11.0
1706277452.190373,-10.0,-28.0,-5.0,4.0,2.0,5.0,-3.0,-6.0
1706277452.190373,20.0,38.0,25.0,2.0,-8.0,2.0,-3.0,5.0
1706277452.190373,-4.0,-5.0,-21.0,-12.0,-3.0,-11.0,-12.0,-13.0
1706277452.190373,44.0,40.0,-25.0,3.0,1.0,2.0,7.0,16.0
1706277452.2005696,-12.0,-3.0,3.0,15.0,-1.0,0.0,-4.0,-8.0
1706277452.2005696,4.0,3.0,-7.0,-81.0,-15.0,-10.0,-11.0,-8.0
1706277452.2105515,11.0,-4.0,12.0,93.0,40.0,24.0,11.0,9.0
1706277452.2105515,-3.0,7.0,9.0,29.0,24.0,8.0,6.0,10.0
1706277452.2305317,0.0,1.0,0.0,22.0,3.0,0.0,1.0,-3.0
1706277452.2305317,-14.0,-5.0,0.0,-25.0,-12.0,-6.0,-1.0,-9.0
1706277452.2305317,13.0,19.0,-50.0,-45.0,-18.0,-14.0,-7.0,0.0
1706277452.2305317,-6.0,-6.0,11.0,-81.0,-29.0,-15.0,-10.0,1.0
1706277452.2503283,-6.0,-18.0,19.0,78.0,22.0,18.0,11.0,1.0
1706277452.2503283,16.0,22.0,17.0,20.0,-9.0,3.0,4.0,6.0
1706277452.2503283,-11.0,-42.0,-4.0,50.0,25.0,12.0,5.0,3.0
1706277452.2603257,-18.0,24.0,-10.0,-11.0,-17.0,-13.0,-9.0,-9.0
1706277452.2603257,3.0,13.0,2.0,-29.0,-1.0,1.0,-6.0,-14.0
1706277452.2603257,13.0,-5.0,-27.0,-13.0,-5.0,-11.0,-6.0,8.0
1706277452.2706084,-2.0,-16.0,18.0,11.0,12.0,37.0,22.0,10.0
1706277452.2706084,10.0,-3.0,6.0,-3.0,-13.0,-3.0,2.0,15.0
1706277452.290583,-4.0,10.0,-23.0,-41.0,-17.0,-14.0,-7.0,-9.0
1706277452.290583,9.0,-3.0,4.0,47.0,20.0,0.0,1.0,2.0
1706277452.3003275,-13.0,0.0,8.0,-29.0,-7.0,2.0,-5.0,-13.0
1706277452.3003275,1.0,-2.0,6.0,8.0,5.0,10.0,3.0,4.0
1706277452.3103592,7.0,21.0,16.0,8.0,17.0,14.0,14.0,21.0
1706277452.3103592,-4.0,-9.0,-8.0,14.0,-6.0,-16.0,-12.0,-4.0
1706277452.3103592,-6.0,-10.0,-9.0,-19.0,-9.0,-9.0,-11.0,-8.0
1706277452.3103592,-15.0,-7.0,-20.0,-10.0,-5.0,1.0,1.0,-8.0
1706277452.320673,7.0,-1.0,10.0,9.0,1.0,-4.0,4.0,3.0
1706277452.320673,0.0,3.0,-3.0,5.0,1.0,-1.0,-3.0,-7.0
1706277452.330639,21.0,13.0,21.0,-18.0,-9.0,-2.0,12.0,12.0
1706277452.330639,-21.0,-3.0,-7.0,22.0,10.0,10.0,7.0,3.0
1706277452.3503273,7.0,-5.0,4.0,-23.0,2.0,3.0,3.0,1.0
1706277452.3503273,-6.0,-13.0,-9.0,-21.0,-8.0,-4.0,0.0,-5.0
1706277452.3503273,5.0,16.0,-10.0,-43.0,-23.0,-14.0,-13.0,-9.0
1706277452.3503273,-6.0,-11.0,14.0,90.0,55.0,18.0,6.0,8.0
1706277452.3705738,1.0,-10.0,-18.0,-24.0,-11.0,2.0,7.0,3.0
1706277452.3705738,-2.0,-3.0,-2.0,38.0,-5.0,5.0,8.0,2.0
1706277452.3705738,-6.0,-3.0,-5.0,-54.0,-13.0,-12.0,-6.0,-2.0
1706277452.3705738,28.0,17.0,3.0,8.0,18.0,5.0,4.0,7.0
1706277452.3805606,-3.0,13.0,2.0,-12.0,-1.0,-6.0,-15.0,-14.0
1706277452.3805606,-21.0,-3.0,14.0,22.0,-5.0,6.0,-2.0,-9.0
1706277452.3905413,9.0,8.0,3.0,20.0,22.0,3.0,1.0,5.0
1706277452.3905413,-2.0,-15.0,-10.0,-12.0,-10.0,-6.0,-5.0,-6.0
1706277452.4105399,-1.0,1.0,-2.0,10.0,6.0,0.0,-2.0,-2.0
1706277452.4105399,-9.0,-14.0,18.0,8.0,-1.0,-10.0,-3.0,7.0
1706277452.4303324,-20.0,-17.0,-34.0,-66.0,-20.0,0.0,-8.0,-28.0
1706277452.4303324,-15.0,-13.0,1.0,-20.0,-24.0,-15.0,-4.0,13.0
1706277452.4403265,31.0,13.0,11.0,60.0,16.0,6.0,5.0,26.0
1706277452.4403265,13.0,27.0,29.0,9.0,23.0,25.0,23.0,5.0
1706277452.4403265,-2.0,-18.0,3.0,61.0,15.0,13.0,9.0,3.0
1706277452.4403265,-11.0,-37.0,-43.0,-9.0,-9.0,-11.0,-13.0,-19.0
1706277452.4403265,-6.0,-11.0,30.0,-38.0,-40.0,-34.0,-15.0,-4.0
1706277452.4403265,10.0,32.0,-10.0,1.0,18.0,27.0,20.0,10.0
1706277452.4603267,-1.0,11.0,9.0,-1.0,-19.0,-35.0,-19.0,-2.0
1706277452.4603267,45.0,-4.0,7.0,-11.0,9.0,25.0,14.0,9.0
1706277452.471331,-46.0,-16.0,-2.0,18.0,4.0,0.0,-8.0,-18.0
1706277452.471331,12.0,-42.0,-29.0,-16.0,-10.0,-17.0,-18.0,-11.0
1706277452.477505,-4.0,47.0,25.0,12.0,-2.0,-8.0,1.0,9.0
1706277452.477505,4.0,-17.0,10.0,-4.0,-3.0,-1.0,2.0,-4.0
1706277452.49372,3.0,2.0,-24.0,2.0,5.0,6.0,3.0,-2.0
1706277452.49372,-10.0,-12.0,-4.0,-16.0,-8.0,-5.0,-5.0,-5.0
1706277452.4951813,4.0,-35.0,-21.0,-17.0,-10.0,1.0,-3.0,2.0
1706277452.4951813,-3.0,2.0,6.0,6.0,3.0,6.0,3.0,7.0
1706277452.503036,-4.0,-20.0,8.0,-6.0,10.0,11.0,8.0,-1.0
1706277452.503036,-5.0,5.0,-20.0,5.0,-8.0,-8.0,-1.0,3.0
1706277452.5130363,14.0,28.0,36.0,15.0,3.0,2.0,1.0,4.0
1706277452.5130363,-17.0,-2.0,-19.0,28.0,4.0,-2.0,-4.0,-9.0
1706277452.5230644,-8.0,-5.0,17.0,-40.0,-26.0,-18.0,-14.0,-15.0
1706277452.5230644,-3.0,-11.0,10.0,1.0,23.0,13.0,5.0,5.0
1706277452.53338,-14.0,-12.0,-9.0,62.0,27.0,14.0,4.0,-1.0
1706277452.53338,-1.0,15.0,27.0,-25.0,3.0,3.0,4.0,1.0
1706277452.5534546,2.0,11.0,-21.0,-46.0,-15.0,-1.0,2.0,3.0
1706277452.5534546,-4.0,12.0,-12.0,-8.0,-5.0,-10.0,-14.0,-10.0
1706277452.5534546,8.0,4.0,8.0,13.0,-1.0,-1.0,-3.0,-9.0
