1701619129.3961513,23.0,29.0,-5.0,9.0,2.0,-1.0,3.0,9.0
1701619129.3961513,28.0,-5.0,-3.0,-4.0,1.0,3.0,0.0,15.0
1701619129.3961513,3.0,16.0,-5.0,-10.0,-2.0,6.0,14.0,14.0
1701619129.3961513,37.0,11.0,5.0,10.0,9.0,1.0,-1.0,-16.0
1701619129.4061553,-50.0,-26.0,0.0,6.0,1.0,-2.0,-10.0,-21.0
1701619129.416151,33.0,50.0,11.0,-4.0,-3.0,-8.0,-5.0,-2.0
1701619129.416151,-13.0,-13.0,7.0,5.0,-1.0,13.0,10.0,11.0
1701619129.416151,6.0,18.0,-14.0,-9.0,-6.0,-7.0,5.0,12.0
1701619129.436153,27.0,15.0,5.0,11.0,0.0,-9.0,-8.0,-14.0
1701619129.436153,39.0,34.0,0.0,2.0,-1.0,-3.0,9.0,55.0
1701619129.4461546,-29.0,-74.0,-20.0,-10.0,-2.0,5.0,-8.0,-44.0
1701619129.4461546,-11.0,-28.0,-16.0,-12.0,-4.0,2.0,2.0,2.0
1701619129.466151,-3.0,-7.0,8.0,13.0,4.0,-1.0,-5.0,-1.0
1701619129.466151,7.0,-17.0,-12.0,-14.0,-10.0,-6.0,-3.0,-5.0
1701619129.466151,16.0,51.0,13.0,10.0,-2.0,-7.0,14.0,-1.0
1701619129.466151,-1.0,8.0,2.0,1.0,-2.0,0.0,3.0,27.0
1701619129.466151,5.0,-25.0,-8.0,-2.0,8.0,7.0,4.0,-13.0
1701619129.466151,9.0,39.0,14.0,9.0,4.0,-1.0,-11.0,3.0
1701619129.476178,-3.0,13.0,6.0,0.0,-1.0,1.0,2.0,-14.0
1701619129.476178,-10.0,-20.0,-7.0,-4.0,-6.0,-14.0,-6.0,-8.0
1701619129.49637,10.0,9.0,4.0,-4.0,-2.0,2.0,-1.0,9.0
1701619129.49637,-10.0,8.0,11.0,12.0,11.0,8.0,2.0,-7.0
1701619129.506352,-20.0,3.0,-21.0,-29.0,-18.0,-14.0,-8.0,-11.0
1701619129.506352,5.0,30.0,19.0,14.0,4.0,0.0,-20.0,10.0
1701619129.526151,12.0,12.0,-15.0,-7.0,-3.0,-4.0,4.0,-7.0
1701619129.526151,-13.0,27.0,-4.0,-7.0,-3.0,-2.0,0.0,-7.0
1701619129.526151,19.0,69.0,27.0,26.0,5.0,-6.0,-12.0,-5.0
1701619129.526151,-7.0,65.0,-2.0,2.0,0.0,3.0,12.0,7.0
1701619129.5361555,-4.0,76.0,-7.0,0.0,0.0,1.0,-6.0,23.0
1701619129.5361555,-12.0,111.0,-15.0,-10.0,1.0,2.0,3.0,-16.0
1701619129.5361555,7.0,72.0,2.0,4.0,2.0,2.0,19.0,-7.0
1701619129.5361555,-62.0,107.0,-41.0,-24.0,-10.0,-22.0,-97.0,-58.0
1701619129.5563846,40.0,106.0,-8.0,-6.0,3.0,32.0,82.0,74.0
1701619129.5563846,-15.0,87.0,-3.0,-10.0,-3.0,-4.0,-6.0,-1.0
1701619129.566155,1.0,-70.0,-12.0,-7.0,-3.0,-1.0,-9.0,-17.0
1701619129.566155,-36.0,-118.0,23.0,19.0,11.0,9.0,22.0,-53.0
1701619129.5861506,13.0,-19.0,-9.0,-6.0,-3.0,-14.0,-35.0,-11.0
1701619129.5861506,-21.0,-109.0,-8.0,-5.0,-6.0,-3.0,-6.0,7.0
1701619129.5861506,-7.0,-78.0,3.0,-14.0,-6.0,-6.0,0.0,22.0
1701619129.5861506,25.0,78.0,15.0,22.0,10.0,1.0,3.0,16.0
1701619129.5861506,-12.0,-24.0,-8.0,-3.0,1.0,-5.0,-9.0,-5.0
1701619129.5861506,16.0,69.0,20.0,4.0,0.0,6.0,13.0,-21.0
1701619129.5961523,-6.0,-51.0,4.0,0.0,-4.0,-5.0,-15.0,9.0
1701619129.5961523,9.0,-124.0,-43.0,-16.0,-6.0,3.0,18.0,-2.0
1701619129.6164782,-7.0,-98.0,33.0,4.0,0.0,-3.0,-8.0,2.0
1701619129.6164782,-7.0,-59.0,-8.0,-12.0,-4.0,-1.0,-2.0,10.0
1701619129.6261528,-7.0,-90.0,-41.0,-5.0,0.0,2.0,-3.0,8.0
1701619129.6261528,30.0,90.0,14.0,17.0,9.0,11.0,19.0,28.0
1701619129.6361854,-18.0,-115.0,22.0,20.0,6.0,-5.0,-3.0,-31.0
1701619129.6361854,9.0,-128.0,13.0,-24.0,-10.0,-7.0,-11.0,-4.0
1701619129.6361854,-4.0,41.0,-63.0,-18.0,-8.0,-7.0,-6.0,-4.0
1701619129.6361854,1.0,25.0,-4.0,-12.0,-2.0,7.0,21.0,21.0
1701619129.6464891,-15.0,8.0,-11.0,23.0,4.0,-4.0,-12.0,-11.0
1701619129.6464891,15.0,-39.0,48.0,27.0,13.0,6.0,3.0,-6.0
1701619129.6561692,-1.0,17.0,21.0,0.0,1.0,2.0,2.0,7.0
1701619129.6561692,6.0,27.0,-40.0,-41.0,-22.0,-11.0,-1.0,13.0
1701619129.6764815,-2.0,21.0,48.0,24.0,2.0,-3.0,-6.0,-9.0
1701619129.6764815,8.0,-18.0,-87.0,-33.0,6.0,6.0,5.0,1.0
1701619129.6861517,-10.0,78.0,60.0,15.0,-12.0,-10.0,-9.0,0.0
1701619129.6861517,0.0,33.0,7.0,17.0,2.0,2.0,3.0,5.0
1701619129.6961865,-6.0,-12.0,-38.0,-29.0,-2.0,1.0,-3.0,-13.0
1701619129.6961865,-4.0,-42.0,31.0,7.0,-11.0,-12.0,-8.0,-8.0
1701619129.6961865,-3.0,-31.0,-37.0,10.0,15.0,9.0,3.0,7.0
1701619129.6961865,10.0,-82.0,73.0,24.0,7.0,0.0,0.0,0.0
1701619129.706489,-2.0,46.0,31.0,12.0,-4.0,-5.0,-2.0,-10.0
1701619129.706489,6.0,-2.0,-66.0,-23.0,-9.0,-3.0,3.0,23.0
1701619129.7161517,7.0,64.0,17.0,3.0,4.0,1.0,-1.0,3.0
1701619129.7161517,8.0,-13.0,29.0,20.0,4.0,1.0,4.0,3.0
1701619129.7522972,-16.0,0.0,-56.0,-52.0,-18.0,-8.0,-9.0,-19.0
1701619129.7522972,-11.0,44.0,2.0,-1.0,-6.0,-6.0,-7.0,-12.0
1701619129.7522972,-1.0,-24.0,15.0,17.0,0.0,-3.0,-3.0,2.0
1701619129.7522972,5.0,7.0,-17.0,-21.0,0.0,4.0,7.0,7.0
1701619129.7522972,5.0,7.0,8.0,7.0,10.0,5.0,0.0,2.0
1701619129.7623556,-1.0,28.0,55.0,47.0,10.0,3.0,1.0,-7.0
1701619129.7623556,0.0,47.0,-14.0,-35.0,-12.0,-9.0,-7.0,-8.0
1701619129.7623556,-10.0,21.0,17.0,10.0,2.0,-4.0,-4.0,-1.0
1701619129.7725866,-4.0,5.0,-58.0,-31.0,-1.0,4.0,3.0,-1.0
1701619129.7725866,5.0,0.0,56.0,15.0,2.0,-1.0,2.0,-7.0
1701619129.812611,3.0,48.0,28.0,16.0,6.0,6.0,2.0,7.0
1701619129.812611,8.0,9.0,-15.0,11.0,6.0,0.0,0.0,3.0
1701619129.812611,3.0,-31.0,-54.0,-39.0,-3.0,1.0,4.0,3.0
1701619129.812611,-5.0,30.0,37.0,20.0,-4.0,-2.0,-5.0,-15.0
1701619129.812611,-5.0,12.0,15.0,-6.0,-10.0,-7.0,-7.0,1.0
1701619129.812611,-2.0,12.0,-8.0,15.0,10.0,4.0,6.0,-13.0
1701619129.812611,6.0,-36.0,-18.0,-16.0,-2.0,-3.0,-3.0,4.0
1701619129.812611,-17.0,-20.0,5.0,-11.0,-18.0,-15.0,-11.0,-3.0
1701619129.812611,14.0,30.0,-23.0,28.0,13.0,8.0,4.0,3.0
1701619129.812611,-10.0,-32.0,-42.0,-37.0,-17.0,-10.0,-9.0,-5.0
1701619129.832989,4.0,39.0,90.0,48.0,5.0,-3.0,-5.0,-2.0
1701619129.832989,5.0,17.0,-17.0,-7.0,8.0,8.0,7.0,9.0
1701619129.842663,-9.0,9.0,-13.0,-13.0,-6.0,-2.0,-1.0,-1.0
1701619129.842663,3.0,-2.0,-13.0,-4.0,7.0,4.0,4.0,0.0
1701619129.8526073,6.0,26.0,-42.0,-26.0,4.0,4.0,3.0,13.0
1701619129.8526073,-10.0,-52.0,83.0,43.0,-17.0,-13.0,-10.0,-9.0
1701619129.8629518,3.0,21.0,-13.0,0.0,5.0,0.0,1.0,4.0
1701619129.8629518,-3.0,-3.0,23.0,15.0,-5.0,-6.0,-8.0,-12.0
1701619129.8730114,-8.0,-1.0,0.0,5.0,1.0,-2.0,-2.0,-8.0
1701619129.8730114,-5.0,-39.0,-32.0,-7.0,-6.0,0.0,-2.0,2.0
1701619129.8730114,10.0,-11.0,-37.0,-33.0,2.0,3.0,2.0,1.0
1701619129.8730114,6.0,7.0,41.0,26.0,-6.0,-4.0,-3.0,1.0
1701619129.8926091,-4.0,-11.0,-17.0,-6.0,-3.0,-1.0,0.0,-4.0
1701619129.8926091,4.0,10.0,-45.0,-9.0,11.0,5.0,4.0,3.0
1701619129.902609,-5.0,-11.0,25.0,9.0,-1.0,1.0,-1.0,-1.0
1701619129.902609,-5.0,-20.0,12.0,-14.0,-8.0,-5.0,-4.0,1.0
1701619129.9226098,0.0,8.0,31.0,22.0,2.0,1.0,-4.0,-5.0
1701619129.9226098,0.0,13.0,-39.0,-9.0,4.0,4.0,2.0,2.0
1701619129.9226098,-7.0,3.0,30.0,6.0,-8.0,-5.0,-5.0,-5.0
1701619129.9226098,6.0,-7.0,-27.0,-7.0,3.0,3.0,2.0,4.0
1701619129.932768,4.0,-4.0,2.0,5.0,-1.0,0.0,0.0,1.0
1701619129.932768,-11.0,7.0,-9.0,-19.0,1.0,-4.0,-4.0,-6.0
1701619129.932768,20.0,1.0,11.0,8.0,-1.0,-2.0,-1.0,3.0
1701619129.932768,11.0,-1.0,-12.0,-8.0,1.0,0.0,0.0,-1.0
1701619129.952964,-65.0,-33.0,26.0,8.0,-6.0,-7.0,-7.0,-14.0
1701619129.952964,8.0,1.0,-9.0,1.0,2.0,3.0,0.0,2.0
1701619129.9626536,-11.0,2.0,-20.0,-12.0,-1.0,1.0,1.0,-2.0
1701619129.9626536,25.0,10.0,2.0,-4.0,-1.0,3.0,4.0,14.0
1701619129.9726083,13.0,-18.0,9.0,7.0,-4.0,-2.0,-4.0,-2.0
1701619129.9726083,11.0,39.0,-9.0,-7.0,0.0,-2.0,-4.0,-3.0
1701619129.982642,-17.0,13.0,-11.0,-8.0,0.0,0.0,11.0,26.0
1701619129.982642,4.0,1.0,13.0,-2.0,-2.0,0.0,-2.0,-9.0
1701619129.9929833,6.0,-6.0,2.0,8.0,-1.0,-2.0,-2.0,-5.0
1701619129.9929833,-29.0,5.0,-27.0,-12.0,0.0,1.0,-6.0,-9.0
1701619129.9929833,-7.0,-2.0,5.0,-3.0,-4.0,-5.0,-6.0,-17.0
1701619129.9929833,0.0,15.0,-4.0,-3.0,-1.0,-1.0,14.0,45.0
1701619130.022607,-2.0,30.0,11.0,6.0,-1.0,-3.0,-4.0,-10.0
1701619130.022607,31.0,35.0,-5.0,-3.0,4.0,6.0,24.0,37.0
1701619130.022607,-6.0,-13.0,-9.0,-9.0,-3.0,-1.0,-11.0,-54.0
1701619130.022607,-24.0,-12.0,-3.0,-2.0,-1.0,-3.0,-10.0,-3.0
1701619130.0328803,19.0,12.0,3.0,-3.0,-6.0,-5.0,-9.0,8.0
1701619130.0328803,-1.0,-4.0,-12.0,-11.0,-2.0,1.0,10.0,3.0
1701619130.042873,-5.0,24.0,10.0,5.0,-2.0,-3.0,17.0,38.0
1701619130.042873,-6.0,-11.0,-11.0,-4.0,-3.0,-1.0,-18.0,-43.0
1701619130.0526226,3.0,-12.0,-5.0,-7.0,-4.0,-1.0,-4.0,7.0
1701619130.0526226,-17.0,-45.0,0.0,-2.0,-5.0,-11.0,-61.0,-73.0
1701619130.0526226,24.0,14.0,4.0,6.0,6.0,10.0,28.0,77.0
1701619130.0526226,-38.0,-44.0,-9.0,-11.0,-5.0,-7.0,-30.0,-94.0
1701619130.0926075,18.0,29.0,6.0,3.0,4.0,8.0,34.0,77.0
1701619130.0926075,-2.0,41.0,1.0,2.0,0.0,0.0,12.0,-11.0
1701619130.0926075,-9.0,2.0,-11.0,-8.0,-7.0,-15.0,-17.0,89.0
1701619130.0926075,-10.0,-59.0,7.0,6.0,3.0,-5.0,-64.0,-65.0
1701619130.0926075,7.0,2.0,11.0,11.0,4.0,0.0,4.0,38.0
1701619130.0926075,11.0,-7.0,-6.0,-2.0,3.0,8.0,28.0,3.0
1701619130.1029959,10.0,54.0,-3.0,-5.0,-4.0,0.0,15.0,-8.0
1701619130.1029959,-7.0,75.0,-7.0,-6.0,-3.0,1.0,52.0,127.0
1701619130.1130185,-33.0,-43.0,2.0,0.0,-4.0,-11.0,-63.0,-126.0
1701619130.1130185,20.0,-20.0,-2.0,1.0,5.0,6.0,2.0,41.0
1701619130.1130185,12.0,-4.0,-1.0,-1.0,-3.0,-4.0,-5.0,44.0
1701619130.1130185,-11.0,-1.0,-6.0,-6.0,-9.0,-9.0,-39.0,-82.0
1701619130.142606,14.0,36.0,1.0,-3.0,-3.0,-12.0,-1.0,9.0
1701619130.142606,-40.0,22.0,-10.0,-12.0,-8.0,11.0,18.0,46.0
1701619130.142606,-1.0,-59.0,7.0,4.0,5.0,19.0,16.0,-113.0
1701619130.142606,28.0,-11.0,5.0,4.0,4.0,12.0,36.0,79.0
1701619130.1528802,6.0,18.0,-3.0,-4.0,-3.0,-6.0,20.0,-18.0
1701619130.1528802,16.0,21.0,0.0,1.0,1.0,-19.0,-17.0,39.0
1701619130.162878,-69.0,-34.0,-4.0,-2.0,-2.0,5.0,-13.0,-27.0
1701619130.162878,-5.0,13.0,5.0,4.0,4.0,-1.0,-13.0,-9.0
1701619130.1728487,30.0,-7.0,-2.0,-2.0,-1.0,9.0,14.0,-43.0
1701619130.1728487,47.0,6.0,-1.0,2.0,1.0,-4.0,13.0,16.0
1701619130.1728487,-50.0,-11.0,-1.0,-3.0,-3.0,-6.0,-14.0,-34.0
1701619130.1728487,36.0,8.0,4.0,0.0,-1.0,-1.0,16.0,54.0
1701619130.212606,-42.0,22.0,-2.0,-1.0,-1.0,-2.0,-10.0,-16.0
1701619130.212606,-93.0,14.0,-10.0,-8.0,-5.0,-6.0,-10.0,35.0
1701619130.212606,44.0,-14.0,2.0,2.0,0.0,-2.0,-11.0,-50.0
1701619130.212606,72.0,-15.0,3.0,1.0,2.0,11.0,27.0,46.0
1701619130.212606,37.0,-21.0,-2.0,-1.0,1.0,-2.0,-37.0,-20.0
1701619130.212606,-65.0,-3.0,3.0,2.0,3.0,7.0,13.0,9.0
1701619130.2226071,-22.0,3.0,-7.0,-5.0,-6.0,-17.0,-23.0,-42.0
1701619130.2226071,-36.0,-35.0,-5.0,-4.0,-9.0,-18.0,-1.0,-59.0
1701619130.2426078,53.0,-2.0,-2.0,-2.0,-1.0,16.0,33.0,76.0
1701619130.2426078,99.0,-17.0,7.0,4.0,5.0,-4.0,-10.0,5.0
1701619130.2426078,14.0,3.0,-1.0,-2.0,-2.0,-6.0,-9.0,23.0
1701619130.2426078,-3.0,18.0,-6.0,-4.0,-1.0,-2.0,4.0,19.0
1701619130.2646918,-13.0,8.0,-4.0,-2.0,-1.0,-1.0,9.0,14.0
1701619130.2646918,-24.0,-19.0,-6.0,-5.0,-6.0,-2.0,-4.0,-65.0
1701619130.2646918,-17.0,15.0,3.0,1.0,0.0,1.0,-6.0,-19.0
1701619130.2656884,-20.0,8.0,-1.0,-1.0,0.0,1.0,4.0,10.0
1701619130.2779248,3.0,7.0,0.0,1.0,0.0,-2.0,2.0,8.0
1701619130.2789428,-21.0,13.0,-2.0,-1.0,-1.0,-1.0,-7.0,-30.0
1701619130.2856746,88.0,-3.0,1.0,2.0,1.0,0.0,10.0,11.0
1701619130.2856746,-59.0,-10.0,-1.0,-2.0,-4.0,-3.0,-4.0,14.0
1701619130.315672,-7.0,-32.0,0.0,0.0,-1.0,1.0,-5.0,-26.0
1701619130.315672,9.0,-47.0,-2.0,-2.0,-1.0,-5.0,-3.0,-12.0
1701619130.315672,-4.0,-85.0,1.0,-1.0,-2.0,1.0,3.0,26.0
1701619130.315672,-4.0,5.0,-2.0,-2.0,-2.0,0.0,-3.0,-39.0
1701619130.315672,-15.0,-97.0,2.0,6.0,5.0,-1.0,5.0,29.0
1701619130.315672,17.0,-37.0,-3.0,-5.0,-7.0,-5.0,-11.0,-6.0
1701619130.3256712,-5.0,-28.0,-3.0,-1.0,6.0,7.0,7.0,-14.0
1701619130.3256712,11.0,-37.0,1.0,1.0,2.0,3.0,3.0,6.0
1701619130.3360507,-16.0,15.0,-4.0,-6.0,-8.0,-7.0,-8.0,6.0
1701619130.3360507,1.0,27.0,3.0,6.0,8.0,4.0,0.0,-14.0
1701619130.346084,-12.0,27.0,-4.0,-6.0,-5.0,-5.0,-11.0,4.0
1701619130.346084,14.0,56.0,0.0,2.0,0.0,-1.0,-1.0,13.0
1701619130.3656712,-5.0,85.0,-3.0,-6.0,-3.0,-4.0,-2.0,-1.0
1701619130.3656712,5.0,75.0,-2.0,-3.0,-5.0,-4.0,-8.0,-7.0
1701619130.3756733,3.0,78.0,-2.0,-3.0,-2.0,1.0,7.0,9.0
1701619130.3756733,3.0,40.0,0.0,0.0,0.0,0.0,-3.0,0.0
1701619130.3859844,-20.0,35.0,-2.0,0.0,-1.0,3.0,2.0,-15.0
1701619130.3859844,6.0,20.0,-3.0,-8.0,-8.0,-4.0,-2.0,-4.0
1701619130.3859844,-4.0,-7.0,1.0,3.0,3.0,-2.0,-7.0,7.0
1701619130.3859844,-7.0,-22.0,-2.0,-1.0,5.0,2.0,-6.0,-13.0
1701619130.3959005,-7.0,-11.0,-1.0,-1.0,-1.0,0.0,2.0,-1.0
1701619130.3959005,10.0,-12.0,-2.0,0.0,1.0,3.0,6.0,6.0
1701619130.41567,1.0,-14.0,-1.0,-4.0,-8.0,-9.0,-6.0,0.0
1701619130.41567,-3.0,-9.0,-2.0,-3.0,-3.0,-1.0,-2.0,-7.0
1701619130.41567,-1.0,7.0,-1.0,1.0,1.0,0.0,2.0,4.0
1701619130.41567,6.0,-17.0,-1.0,2.0,2.0,1.0,2.0,1.0
1701619130.4257123,-9.0,2.0,1.0,1.0,-3.0,-5.0,-5.0,-3.0
1701619130.4257123,2.0,4.0,-1.0,1.0,0.0,-1.0,1.0,-1.0
1701619130.435738,-4.0,0.0,1.0,-2.0,2.0,6.0,0.0,2.0
1701619130.435738,0.0,-3.0,3.0,-3.0,-3.0,-5.0,-2.0,-7.0
1701619130.4459236,-6.0,0.0,-13.0,-1.0,5.0,6.0,2.0,-1.0
1701619130.4459236,5.0,4.0,12.0,0.0,0.0,-3.0,0.0,1.0
1701619130.4559484,-2.0,-4.0,-8.0,-5.0,-9.0,-10.0,-4.0,-2.0
1701619130.4559484,-5.0,-15.0,42.0,2.0,1.0,1.0,-7.0,-9.0
1701619130.4756718,-3.0,7.0,-61.0,-10.0,-5.0,-1.0,-4.0,-4.0
1701619130.4756718,1.0,-7.0,13.0,1.0,1.0,1.0,3.0,4.0
1701619130.4756718,-5.0,-17.0,35.0,5.0,-1.0,-4.0,2.0,-6.0
1701619130.4756718,0.0,7.0,2.0,6.0,4.0,8.0,5.0,-1.0
1701619130.4857063,-2.0,-9.0,-47.0,4.0,-2.0,-4.0,2.0,4.0
1701619130.4857063,-10.0,-15.0,39.0,-2.0,1.0,6.0,-7.0,-10.0
1701619130.4960713,2.0,11.0,84.0,22.0,-2.0,-8.0,1.0,-2.0
1701619130.4960713,-2.0,-15.0,-107.0,-38.0,-9.0,-5.0,-3.0,-2.0
1701619130.5060065,-4.0,11.0,84.0,-14.0,-12.0,-8.0,-6.0,-3.0
1701619130.5060065,8.0,23.0,9.0,29.0,19.0,13.0,2.0,4.0
1701619130.5160372,-9.0,28.0,-107.0,-60.0,-11.0,-4.0,-7.0,-3.0
1701619130.5160372,7.0,83.0,127.0,60.0,10.0,4.0,4.0,0.0
1701619130.5256712,-2.0,42.0,-96.0,-29.0,1.0,4.0,6.0,1.0
1701619130.5256712,-9.0,89.0,1.0,-21.0,-28.0,-22.0,-10.0,-8.0
1701619130.5356977,3.0,36.0,45.0,46.0,16.0,11.0,3.0,4.0
1701619130.5356977,5.0,93.0,-95.0,-59.0,-6.0,-5.0,1.0,2.0
1701619130.545946,5.0,-85.0,52.0,50.0,14.0,13.0,3.0,5.0
1701619130.545946,-1.0,-106.0,-4.0,-3.0,-8.0,-10.0,-1.0,-1.0
1701619130.5559535,-4.0,-128.0,-112.0,-34.0,-2.0,2.0,0.0,1.0
1701619130.5559535,-8.0,-87.0,58.0,5.0,-16.0,-15.0,-7.0,-5.0
1701619130.5956695,15.0,-5.0,87.0,36.0,20.0,9.0,9.0,9.0
1701619130.5956695,1.0,-39.0,-76.0,-7.0,0.0,0.0,3.0,2.0
1701619130.5956695,-2.0,1.0,22.0,4.0,-5.0,-1.0,-2.0,-3.0
1701619130.5956695,4.0,-45.0,40.0,9.0,12.0,0.0,-11.0,1.0
1701619130.5956695,1.0,21.0,45.0,-11.0,2.0,5.0,6.0,-1.0
1701619130.5956695,-2.0,-17.0,-24.0,9.0,6.0,5.0,0.0,-4.0
1701619130.5956695,6.0,26.0,62.0,34.0,12.0,1.0,-4.0,0.0
1701619130.5956695,-9.0,-7.0,-25.0,-24.0,-14.0,-2.0,-3.0,-8.0
1701619130.6060739,-3.0,11.0,-12.0,-19.0,-8.0,-11.0,-3.0,-1.0
1701619130.6060739,-6.0,31.0,23.0,-18.0,10.0,17.0,8.0,-3.0
1701619130.6160798,-5.0,-7.0,-14.0,39.0,-9.0,-9.0,-2.0,-2.0
1701619130.6160798,4.0,27.0,55.0,18.0,-4.0,-4.0,7.0,1.0
1701619130.6356716,-4.0,8.0,-3.0,-2.0,0.0,3.0,-9.0,-3.0
1701619130.6356716,10.0,13.0,-89.0,-42.0,-3.0,1.0,5.0,6.0
1701619130.6356716,3.0,47.0,56.0,-3.0,8.0,-4.0,2.0,3.0
1701619130.6356716,-13.0,-24.0,-32.0,-19.0,-8.0,-3.0,-6.0,-8.0
1701619130.646026,-3.0,-4.0,-103.0,4.0,5.0,4.0,1.0,-1.0
1701619130.646026,-7.0,-7.0,98.0,20.0,-23.0,-22.0,-11.0,-7.0
1701619130.6558998,11.0,8.0,-36.0,-27.0,15.0,20.0,10.0,6.0
1701619130.6558998,-7.0,-31.0,29.0,26.0,-2.0,-6.0,-10.0,-7.0
1701619130.6659334,-4.0,-11.0,57.0,-18.0,-1.0,3.0,2.0,-4.0
1701619130.6659334,-6.0,-26.0,-59.0,-43.0,-26.0,-12.0,-8.0,-5.0
1701619130.6760116,-2.0,7.0,-36.0,-48.0,-6.0,-4.0,-2.0,-2.0
1701619130.6760116,6.0,16.0,10.0,-1.0,15.0,10.0,9.0,6.0
1701619130.6859694,-4.0,15.0,-15.0,-1.0,2.0,-6.0,-5.0,-3.0
1701619130.6859694,-12.0,-46.0,-73.0,-18.0,-12.0,-9.0,-7.0,-6.0
1701619130.6960392,-14.0,-24.0,58.0,7.0,-25.0,-18.0,-12.0,-8.0
1701619130.6960392,12.0,-3.0,-40.0,73.0,30.0,22.0,10.0,6.0
1701619130.7056713,11.0,7.0,-30.0,-74.0,-4.0,7.0,5.0,5.0
1701619130.7056713,-8.0,17.0,96.0,84.0,-6.0,-11.0,-9.0,-8.0
1701619130.7157066,-9.0,-5.0,-107.0,-55.0,-25.0,-14.0,-7.0,-5.0
1701619130.7157066,0.0,2.0,11.0,56.0,28.0,13.0,2.0,2.0
1701619130.7259483,10.0,13.0,-48.0,-21.0,5.0,5.0,0.0,5.0
1701619130.7259483,-11.0,4.0,51.0,42.0,-1.0,-8.0,-5.0,-9.0
1701619130.735964,4.0,10.0,-24.0,-55.0,-3.0,7.0,0.0,1.0
1701619130.735964,2.0,3.0,46.0,-20.0,-11.0,-5.0,2.0,-1.0
1701619130.7656722,-8.0,-13.0,-7.0,33.0,-12.0,-13.0,-6.0,-5.0
1701619130.7656722,22.0,25.0,-15.0,-42.0,23.0,17.0,12.0,14.0
1701619130.7656722,-9.0,-4.0,65.0,119.0,-2.0,-11.0,-7.0,-7.0
1701619130.7656722,2.0,6.0,39.0,19.0,13.0,-2.0,-3.0,3.0
1701619130.7656722,-19.0,-37.0,-68.0,-82.0,-50.0,-20.0,-9.0,-11.0
1701619130.7656722,8.0,16.0,1.0,62.0,18.0,8.0,8.0,5.0
1701619130.775698,5.0,25.0,65.0,-9.0,1.0,-1.0,-3.0,0.0
1701619130.775698,-9.0,-27.0,-99.0,-93.0,-22.0,-9.0,-2.0,-5.0
1701619130.7859821,1.0,9.0,103.0,80.0,43.0,13.0,4.0,1.0
1701619130.7859821,9.0,11.0,38.0,62.0,20.0,10.0,7.0,7.0
1701619130.8112023,-8.0,-11.0,-13.0,-100.0,-40.0,-12.0,-2.0,-5.0
1701619130.8112023,-10.0,-13.0,-29.0,-12.0,-13.0,-8.0,-11.0,-6.0
1701619130.8112023,-3.0,-7.0,38.0,20.0,-18.0,-9.0,-2.0,-2.0
1701619130.8112023,4.0,-2.0,-40.0,-67.0,16.0,19.0,9.0,5.0
1701619130.8184855,3.0,5.0,25.0,40.0,12.0,2.0,2.0,2.0
1701619130.8184855,5.0,14.0,27.0,18.0,8.0,8.0,8.0,6.0
1701619130.8184855,-8.0,-21.0,-33.0,0.0,-13.0,-14.0,-7.0,-3.0
1701619130.8184855,2.0,-1.0,-30.0,-13.0,0.0,10.0,5.0,2.0
1701619130.8388605,-4.0,0.0,12.0,41.0,11.0,6.0,-2.0,-5.0
1701619130.8388605,-4.0,-12.0,-19.0,-2.0,3.0,-1.0,-2.0,-2.0
1701619130.8584836,4.0,9.0,-3.0,-14.0,7.0,0.0,1.0,4.0
1701619130.8584836,-6.0,1.0,42.0,78.0,-14.0,-12.0,-4.0,-6.0
1701619130.8685708,-3.0,-19.0,-36.0,-1.0,2.0,2.0,-4.0,-3.0
1701619130.8685708,3.0,5.0,-20.0,-49.0,-10.0,-11.0,-2.0,0.0
1701619130.8685708,0.0,4.0,16.0,64.0,11.0,7.0,1.0,0.0
1701619130.8685708,-4.0,-5.0,9.0,-47.0,-12.0,-13.0,-8.0,-5.0
1701619130.8784883,0.0,0.0,6.0,47.0,8.0,3.0,6.0,3.0
1701619130.8784883,0.0,-3.0,-1.0,-26.0,-17.0,-9.0,-5.0,-4.0
1701619130.8784883,3.0,9.0,-11.0,-32.0,-6.0,-9.0,-1.0,0.0
1701619130.8784883,-2.0,-4.0,-1.0,14.0,9.0,5.0,-2.0,-3.0
1701619130.8987596,1.0,8.0,0.0,-17.0,4.0,2.0,0.0,0.0
1701619130.8987596,-5.0,-12.0,-17.0,-1.0,-8.0,-4.0,0.0,-1.0
1701619130.9084878,-1.0,4.0,35.0,44.0,8.0,1.0,-2.0,-3.0
1701619130.9084878,1.0,-4.0,-37.0,-94.0,-15.0,-1.0,-3.0,0.0
1701619130.9284878,4.0,8.0,29.0,42.0,15.0,6.0,1.0,1.0
1701619130.9284878,-1.0,-7.0,-81.0,-28.0,5.0,2.0,1.0,3.0
1701619130.9284878,-4.0,1.0,57.0,-4.0,-10.0,-1.0,-1.0,-2.0
1701619130.9284878,-2.0,-2.0,-6.0,-11.0,-3.0,-5.0,-3.0,-1.0
1701619130.9687414,0.0,2.0,-15.0,-33.0,1.0,-2.0,-3.0,-3.0
1701619130.9687414,-1.0,1.0,-3.0,15.0,-11.0,-4.0,-1.0,-2.0
1701619130.9687414,-2.0,-5.0,-12.0,-5.0,3.0,-3.0,-2.0,-3.0
1701619130.9687414,0.0,1.0,-1.0,-7.0,5.0,0.0,1.0,1.0
1701619130.9784842,-2.0,-4.0,-5.0,-1.0,-1.0,-4.0,-7.0,-3.0
1701619130.9784842,1.0,1.0,5.0,-24.0,-11.0,0.0,1.0,-2.0
1701619130.98872,0.0,0.0,-5.0,-10.0,-1.0,-3.0,-1.0,0.0
1701619130.98872,2.0,6.0,4.0,8.0,2.0,-1.0,-1.0,-2.0
1701619130.998774,1.0,-6.0,-6.0,13.0,1.0,2.0,4.0,1.0
1701619130.998774,2.0,-3.0,17.0,32.0,4.0,1.0,-1.0,1.0
1701619130.998774,-3.0,-8.0,-12.0,-5.0,-15.0,-8.0,-4.0,-4.0
1701619130.998774,2.0,-2.0,13.0,-12.0,1.0,-4.0,-2.0,-2.0
1701619130.998774,0.0,-1.0,-14.0,0.0,-11.0,-8.0,-1.0,0.0
1701619130.998774,-4.0,-12.0,-20.0,-5.0,9.0,5.0,1.0,-1.0
1701619130.998774,0.0,-1.0,18.0,-8.0,-4.0,1.0,-1.0,2.0
1701619130.998774,-2.0,-6.0,-4.0,18.0,-1.0,-2.0,-1.0,-2.0
1701619131.0184884,-1.0,-7.0,-22.0,-38.0,2.0,1.0,0.0,0.0
1701619131.0184884,0.0,2.0,27.0,14.0,-1.0,-2.0,0.0,-2.0
1701619131.0384843,-2.0,0.0,-6.0,-17.0,-3.0,-3.0,-1.0,-3.0
1701619131.0384843,-2.0,-1.0,-3.0,1.0,0.0,1.0,1.0,1.0
1701619131.0384843,1.0,4.0,-5.0,-4.0,2.0,-2.0,0.0,0.0
1701619131.0384843,-2.0,3.0,15.0,7.0,-1.0,-3.0,-1.0,0.0
1701619131.0485349,1.0,-1.0,-3.0,7.0,10.0,6.0,1.0,1.0
1701619131.0485349,-1.0,1.0,2.0,-1.0,-5.0,-1.0,-1.0,0.0
1701619131.0584872,-1.0,-4.0,-7.0,-4.0,1.0,1.0,0.0,-2.0
1701619131.0584872,-1.0,-1.0,4.0,0.0,-3.0,-7.0,-5.0,-3.0
1701619131.0584872,-1.0,-1.0,2.0,7.0,1.0,0.0,0.0,0.0
1701619131.0584872,-2.0,0.0,2.0,-3.0,-4.0,-4.0,-1.0,-2.0
1701619131.0884845,-2.0,0.0,-2.0,-3.0,0.0,2.0,-1.0,0.0
1701619131.0884845,1.0,0.0,5.0,6.0,1.0,0.0,-2.0,0.0
1701619131.0884845,1.0,-2.0,-5.0,-26.0,-6.0,-2.0,1.0,-4.0
1701619131.0884845,-2.0,-6.0,-2.0,-5.0,-1.0,-2.0,-3.0,-2.0
1701619131.0985181,-3.0,-5.0,6.0,14.0,2.0,-1.0,-1.0,-2.0
1701619131.0985181,1.0,-5.0,3.0,2.0,0.0,2.0,1.0,-2.0
1701619131.1088672,1.0,-1.0,0.0,8.0,3.0,-2.0,-2.0,2.0
1701619131.1088672,0.0,-3.0,-5.0,-9.0,-4.0,-1.0,-3.0,0.0
1701619131.1088672,0.0,-1.0,-4.0,-2.0,-1.0,-1.0,-1.0,-1.0
1701619131.1184905,-2.0,4.0,5.0,2.0,-2.0,0.0,-1.0,0.0
1701619131.1184905,-2.0,-2.0,4.0,8.0,3.0,1.0,0.0,-2.0
1701619131.1184905,-1.0,-3.0,-5.0,-5.0,-4.0,-4.0,0.0,0.0
1701619131.1484823,0.0,-2.0,-4.0,-1.0,0.0,2.0,0.0,0.0
1701619131.1484823,-1.0,-1.0,7.0,1.0,-3.0,-3.0,-2.0,-2.0
1701619131.1484823,-2.0,0.0,-5.0,-1.0,-3.0,-2.0,0.0,0.0
1701619131.1484823,-1.0,2.0,4.0,1.0,-2.0,-3.0,0.0,-1.0
1701619131.158879,0.0,-1.0,-5.0,-5.0,0.0,-1.0,0.0,-1.0
1701619131.158879,-1.0,3.0,-3.0,-2.0,-2.0,-3.0,-2.0,-1.0
1701619131.168878,-1.0,1.0,0.0,3.0,-2.0,-2.0,-2.0,-1.0
1701619131.168878,-2.0,-2.0,0.0,2.0,-1.0,2.0,-1.0,-2.0
1701619131.168878,-2.0,-1.0,-5.0,-3.0,-1.0,0.0,-2.0,-1.0
1701619131.168878,-2.0,-2.0,0.0,-1.0,-2.0,-1.0,0.0,0.0
1701619131.178486,0.0,-1.0,1.0,4.0,-3.0,1.0,-2.0,-1.0
1701619131.178486,-1.0,-1.0,2.0,0.0,0.0,0.0,-2.0,-2.0
1701619131.1985168,-1.0,-5.0,-7.0,-1.0,-2.0,-2.0,-1.0,-1.0
1701619131.1985168,-2.0,-1.0,2.0,-1.0,-2.0,1.0,-1.0,-2.0
1701619131.2086313,-1.0,-4.0,2.0,0.0,1.0,1.0,0.0,-1.0
1701619131.2086313,0.0,-5.0,-2.0,9.0,7.0,0.0,-2.0,-2.0
1701619131.2189226,-2.0,-6.0,-2.0,-4.0,-2.0,-1.0,-1.0,-3.0
1701619131.2189226,1.0,-1.0,-2.0,-7.0,-5.0,-1.0,-1.0,0.0
1701619131.228868,0.0,0.0,2.0,8.0,5.0,1.0,1.0,0.0
1701619131.228868,-1.0,2.0,1.0,-3.0,0.0,0.0,-1.0,1.0
1701619131.2484844,1.0,1.0,-3.0,0.0,0.0,-2.0,-2.0,-2.0
1701619131.2484844,-1.0,-3.0,-1.0,-2.0,-3.0,-5.0,-2.0,-1.0
1701619131.2484844,0.0,-2.0,-2.0,-4.0,-4.0,-3.0,-1.0,-2.0
1701619131.2484844,-2.0,2.0,0.0,0.0,0.0,-1.0,0.0,-2.0
1701619131.2586946,-1.0,-3.0,-1.0,-1.0,0.0,-1.0,0.0,-1.0
1701619131.2586946,-1.0,7.0,-1.0,0.0,-2.0,-1.0,1.0,-1.0
1701619131.268556,-1.0,3.0,0.0,-1.0,-3.0,-1.0,0.0,0.0
1701619131.268556,-2.0,3.0,0.0,1.0,-1.0,0.0,0.0,-1.0
1701619131.2787962,-2.0,5.0,-1.0,-3.0,-2.0,0.0,0.0,-1.0
1701619131.2787962,0.0,2.0,-2.0,1.0,1.0,1.0,-1.0,0.0
1701619131.2887568,0.0,3.0,-1.0,0.0,0.0,-1.0,-2.0,0.0
1701619131.2887568,0.0,0.0,-1.0,-5.0,-5.0,-2.0,-1.0,2.0
1701619131.2987278,2.0,1.0,-2.0,-2.0,0.0,-1.0,-1.0,0.0
1701619131.2987278,0.0,0.0,0.0,2.0,0.0,-3.0,-1.0,-2.0
1701619131.3084886,-2.0,1.0,-2.0,-2.0,-1.0,1.0,-1.0,-3.0
1701619131.3084886,0.0,-2.0,-1.0,-2.0,-3.0,-1.0,0.0,0.0
1701619131.3412483,0.0,-3.0,0.0,-1.0,-1.0,0.0,-1.0,0.0
1701619131.3412483,-1.0,-4.0,0.0,0.0,0.0,0.0,0.0,0.0
1701619131.343249,-3.0,-5.0,0.0,-2.0,-2.0,-2.0,0.0,0.0
1701619131.343249,-2.0,-4.0,-3.0,0.0,-2.0,-2.0,0.0,-1.0
1701619131.343249,-3.0,-4.0,-3.0,-1.0,1.0,-1.0,-1.0,-1.0
1701619131.343249,0.0,-2.0,-2.0,-1.0,-1.0,-1.0,-2.0,-2.0
1701619131.351125,-1.0,-4.0,-1.0,-1.0,-3.0,-2.0,-2.0,-2.0
1701619131.351125,-1.0,-3.0,-1.0,0.0,-1.0,-1.0,-3.0,0.0
1701619131.3712196,-1.0,-2.0,-1.0,-1.0,0.0,0.0,-1.0,-1.0
1701619131.3712196,-2.0,-3.0,0.0,0.0,0.0,1.0,-1.0,-1.0
1701619131.3712196,-1.0,-3.0,-2.0,-4.0,-1.0,-1.0,0.0,-1.0
1701619131.3712196,-1.0,0.0,0.0,-2.0,-2.0,-2.0,0.0,-1.0
1701619131.3712196,0.0,1.0,0.0,-1.0,0.0,-2.0,0.0,-2.0
1701619131.3712196,1.0,-1.0,-1.0,-1.0,1.0,1.0,-2.0,0.0
1701619131.3812475,-2.0,-6.0,-4.0,0.0,-2.0,-2.0,-3.0,-1.0
1701619131.3812475,0.0,-1.0,-4.0,-5.0,-2.0,-1.0,-1.0,-2.0
1701619131.4116118,1.0,-1.0,0.0,0.0,-1.0,-1.0,0.0,-2.0
1701619131.4116118,0.0,-4.0,-2.0,-3.0,-1.0,-1.0,0.0,-2.0
1701619131.4116118,2.0,5.0,5.0,0.0,3.0,-1.0,-1.0,1.0
1701619131.4116118,-1.0,-6.0,-2.0,-2.0,-3.0,-2.0,-3.0,0.0
1701619131.4215565,-1.0,0.0,0.0,2.0,-2.0,-1.0,-1.0,-1.0
1701619131.4215565,-2.0,-5.0,-2.0,-1.0,-1.0,-2.0,0.0,-1.0
1701619131.4215565,0.0,1.0,0.0,1.0,-2.0,0.0,-1.0,-2.0
1701619131.4215565,0.0,1.0,-2.0,-2.0,0.0,-1.0,-1.0,-2.0
1701619131.4412143,-1.0,0.0,-1.0,-1.0,-1.0,-2.0,-2.0,0.0
1701619131.4412143,0.0,0.0,1.0,1.0,-1.0,-1.0,-1.0,0.0
1701619131.4412143,-2.0,-3.0,-3.0,-1.0,-2.0,0.0,-1.0,-1.0
1701619131.4412143,-1.0,0.0,-2.0,-2.0,0.0,1.0,0.0,-1.0
1701619131.461359,-2.0,-2.0,-4.0,-4.0,-2.0,-1.0,-1.0,-1.0
1701619131.461359,-4.0,-1.0,0.0,2.0,1.0,-1.0,0.0,-1.0
1701619131.4712164,-2.0,-3.0,0.0,-2.0,-3.0,-2.0,-2.0,-1.0
1701619131.4712164,-1.0,1.0,3.0,2.0,-1.0,0.0,-2.0,-1.0
1701619131.4812486,-2.0,-2.0,-1.0,-1.0,0.0,-2.0,-2.0,-1.0
1701619131.4812486,-3.0,0.0,0.0,-1.0,-3.0,-1.0,0.0,-2.0
1701619131.4812486,3.0,2.0,-4.0,-2.0,-1.0,-1.0,-3.0,-2.0
1701619131.4812486,1.0,2.0,3.0,1.0,0.0,-2.0,0.0,-1.0
1701619131.4913938,-2.0,-2.0,-1.0,-1.0,0.0,-1.0,-1.0,-1.0
1701619131.4913938,-2.0,-1.0,1.0,-1.0,0.0,0.0,-1.0,-1.0
1701619131.5014536,-2.0,-2.0,-3.0,-1.0,-1.0,0.0,0.0,0.0
1701619131.5014536,1.0,4.0,2.0,1.0,-1.0,-3.0,-1.0,-1.0
1701619131.5214093,-2.0,-3.0,0.0,0.0,0.0,-2.0,0.0,1.0
1701619131.5214093,1.0,2.0,0.0,0.0,0.0,-1.0,-2.0,-1.0
1701619131.531214,-2.0,-2.0,-2.0,-1.0,0.0,-1.0,-2.0,-1.0
1701619131.531214,-2.0,-6.0,-4.0,-3.0,-2.0,-1.0,-1.0,-2.0
1701619131.5412517,1.0,5.0,4.0,0.0,-1.0,0.0,-1.0,1.0
1701619131.5412517,0.0,-2.0,-1.0,0.0,0.0,-1.0,0.0,0.0
1701619131.5412517,-1.0,-3.0,-3.0,0.0,-3.0,-2.0,-1.0,0.0
1701619131.5412517,-2.0,-1.0,-2.0,-2.0,1.0,-1.0,-1.0,-2.0
1701619131.551531,-3.0,-2.0,-3.0,-3.0,-2.0,-1.0,-2.0,-1.0
1701619131.551531,-2.0,-1.0,-1.0,-3.0,-2.0,-1.0,-1.0,0.0
1701619131.5612164,1.0,2.0,-1.0,-2.0,-1.0,-1.0,-1.0,-1.0
1701619131.5612164,-1.0,-2.0,1.0,0.0,-3.0,-1.0,-2.0,-2.0
1701619131.5813758,-2.0,1.0,-3.0,-2.0,-2.0,1.0,0.0,-2.0
1701619131.5813758,-2.0,-1.0,-3.0,-1.0,-1.0,-1.0,-2.0,-2.0
1701619131.5912163,-4.0,-1.0,2.0,0.0,0.0,-3.0,0.0,-1.0
1701619131.5912163,-1.0,0.0,0.0,0.0,0.0,-1.0,-1.0,-1.0
1701619131.6012495,-2.0,-5.0,1.0,-1.0,0.0,-1.0,-2.0,0.0
1701619131.6012495,0.0,-1.0,0.0,0.0,-2.0,-1.0,-1.0,0.0
1701619131.6012495,-1.0,-4.0,-3.0,0.0,-2.0,-2.0,-1.0,-1.0
1701619131.6012495,-2.0,-6.0,-2.0,-2.0,-1.0,-1.0,0.0,-2.0
1701619131.611521,0.0,-5.0,-1.0,-2.0,-1.0,-1.0,-1.0,-2.0
1701619131.611521,1.0,-8.0,-2.0,-1.0,-1.0,0.0,-2.0,0.0
1701619131.6212165,-1.0,-8.0,-1.0,-1.0,-2.0,0.0,1.0,1.0
1701619131.6212165,0.0,-11.0,-4.0,-1.0,-1.0,-3.0,-1.0,1.0
1701619131.6412141,-2.0,-6.0,0.0,-1.0,-3.0,-1.0,0.0,-1.0
1701619131.6412141,-1.0,0.0,-1.0,0.0,0.0,-2.0,-2.0,-1.0
1701619131.651267,-1.0,4.0,-2.0,-1.0,0.0,-1.0,0.0,-3.0
1701619131.651267,0.0,6.0,-1.0,-2.0,-1.0,-1.0,-2.0,-2.0
1701619131.6612167,0.0,5.0,-3.0,-1.0,-1.0,-3.0,0.0,-1.0
1701619131.6612167,0.0,5.0,-3.0,-1.0,-3.0,-3.0,-3.0,-2.0
1701619131.6612167,-1.0,2.0,-2.0,-1.0,0.0,-2.0,-2.0,0.0
1701619131.6612167,-2.0,1.0,-1.0,-1.0,0.0,-5.0,1.0,-1.0
1701619131.6714838,0.0,1.0,-2.0,-2.0,-1.0,-10.0,-3.0,-2.0
1701619131.6714838,-2.0,0.0,2.0,0.0,-2.0,-32.0,-1.0,-2.0
1701619131.6812158,-1.0,-2.0,0.0,-2.0,-1.0,-48.0,-1.0,-4.0
1701619131.6812158,-2.0,-1.0,1.0,-1.0,-1.0,-53.0,-1.0,0.0
1701619131.7012148,-1.0,-1.0,-2.0,0.0,-1.0,-42.0,1.0,0.0
1701619131.7012148,-1.0,-1.0,-1.0,0.0,-1.0,-30.0,1.0,0.0
1701619131.7112768,0.0,-1.0,0.0,0.0,1.0,-47.0,0.0,1.0
1701619131.7112768,-1.0,0.0,0.0,-2.0,0.0,-85.0,1.0,0.0
1701619131.7214925,-1.0,-1.0,-2.0,-2.0,-1.0,22.0,-1.0,-1.0
1701619131.7214925,-2.0,-4.0,-1.0,-4.0,1.0,94.0,-2.0,-1.0
1701619131.7214925,-1.0,-9.0,1.0,-1.0,-1.0,127.0,-3.0,-1.0
1701619131.7214925,0.0,-13.0,0.0,-1.0,-2.0,72.0,-4.0,1.0
1701619131.7415142,2.0,-13.0,1.0,0.0,-1.0,-58.0,-1.0,1.0
1701619131.7415142,0.0,-10.0,-1.0,0.0,-1.0,-101.0,0.0,1.0
1701619131.7512188,1.0,-6.0,-1.0,0.0,-1.0,-94.0,1.0,0.0
1701619131.7512188,2.0,0.0,-1.0,-1.0,0.0,-91.0,1.0,0.0
1701619131.7712133,2.0,3.0,-1.0,-1.0,-1.0,-77.0,1.0,0.0
1701619131.7712133,0.0,3.0,-3.0,-1.0,-1.0,-74.0,-1.0,0.0
1701619131.7712133,0.0,5.0,0.0,0.0,0.0,-68.0,-1.0,0.0
1701619131.7712133,0.0,4.0,-2.0,1.0,0.0,-42.0,1.0,0.0
1701619131.7914689,-3.0,4.0,-3.0,0.0,-1.0,-35.0,-1.0,-1.0
1701619131.7914689,0.0,3.0,-1.0,-1.0,-2.0,-23.0,-1.0,-2.0
1701619131.7914689,-2.0,2.0,-2.0,-1.0,-1.0,-36.0,-2.0,-3.0
1701619131.7914689,-1.0,4.0,-1.0,-1.0,-1.0,-13.0,-3.0,-3.0
1701619131.801527,-2.0,2.0,0.0,0.0,-2.0,-4.0,-2.0,-2.0
1701619131.801527,1.0,1.0,1.0,-2.0,0.0,-21.0,1.0,-2.0
1701619131.801527,-1.0,1.0,-1.0,-1.0,-1.0,-16.0,1.0,0.0
1701619131.801527,-3.0,1.0,-2.0,0.0,-2.0,-1.0,-1.0,-1.0
1701619131.8212128,-2.0,0.0,-3.0,0.0,1.0,-3.0,-1.0,-2.0
1701619131.8212128,-1.0,0.0,-1.0,-1.0,0.0,-10.0,-1.0,-3.0
1701619131.8314323,-2.0,1.0,-2.0,-2.0,-2.0,-10.0,-2.0,0.0
1701619131.8314323,-2.0,-1.0,-1.0,-2.0,1.0,7.0,-1.0,-1.0
1701619131.8413854,0.0,-1.0,0.0,-2.0,-1.0,-3.0,-1.0,-1.0
1701619131.8413854,-3.0,-2.0,-1.0,-2.0,-1.0,-5.0,-2.0,0.0
1701619131.8413854,-1.0,0.0,0.0,-1.0,-1.0,-3.0,-2.0,-2.0
1701619131.8413854,0.0,-1.0,0.0,0.0,-2.0,-2.0,-1.0,-1.0
1701619131.8822544,-1.0,-1.0,1.0,0.0,-3.0,-1.0,-1.0,-1.0
1701619131.8822544,-1.0,1.0,0.0,-1.0,-3.0,-3.0,1.0,-1.0
1701619131.8822544,-2.0,-4.0,-1.0,1.0,-3.0,-4.0,-2.0,-3.0
1701619131.8822544,-2.0,-2.0,0.0,0.0,-1.0,0.0,-2.0,-1.0
1701619131.8822544,-1.0,-1.0,-1.0,-1.0,-2.0,-1.0,-1.0,-3.0
1701619131.8822544,0.0,-2.0,-3.0,0.0,-1.0,0.0,0.0,-2.0
1701619131.883406,-3.0,-3.0,-2.0,0.0,-2.0,-4.0,-1.0,0.0
1701619131.883406,-1.0,0.0,-1.0,-1.0,0.0,0.0,1.0,-1.0
1701619131.903726,-2.0,-2.0,-3.0,-3.0,1.0,2.0,-1.0,-1.0
1701619131.903726,-2.0,-3.0,-1.0,-1.0,-1.0,-3.0,0.0,0.0
1701619131.903726,-1.0,-2.0,0.0,-2.0,0.0,-3.0,-2.0,0.0
1701619131.903726,-1.0,-1.0,-3.0,-1.0,-1.0,0.0,0.0,-1.0
1701619131.9234083,0.0,-2.0,0.0,-1.0,-1.0,-1.0,-1.0,-1.0
1701619131.9234083,-1.0,0.0,-3.0,-1.0,-2.0,-2.0,-2.0,-1.0
1701619131.9334428,0.0,-1.0,1.0,-2.0,1.0,-2.0,-1.0,0.0
1701619131.9334428,0.0,-3.0,-1.0,-1.0,-1.0,1.0,-2.0,-1.0
1701619131.9434102,-1.0,0.0,1.0,0.0,-1.0,-1.0,-1.0,-2.0
1701619131.9434102,0.0,-2.0,0.0,-1.0,0.0,-2.0,-1.0,0.0
1701619131.9434102,0.0,0.0,-1.0,-2.0,0.0,-1.0,1.0,-2.0
1701619131.9434102,-1.0,0.0,-1.0,0.0,-1.0,-1.0,-2.0,-1.0
1701619131.9637911,0.0,-1.0,-2.0,0.0,-2.0,-1.0,-2.0,-1.0
1701619131.9637911,-1.0,-3.0,0.0,0.0,0.0,-27.0,-3.0,-1.0
1701619131.9637911,-2.0,-1.0,-2.0,-1.0,0.0,-35.0,-1.0,-1.0
1701619131.9637911,-2.0,-3.0,-1.0,-2.0,0.0,-41.0,0.0,0.0
1701619131.9834087,-2.0,-1.0,-2.0,1.0,-2.0,-35.0,0.0,-1.0
1701619131.9834087,-2.0,0.0,-1.0,-1.0,-2.0,-27.0,0.0,1.0
1701619131.9834087,1.0,0.0,0.0,-1.0,-2.0,-23.0,0.0,-1.0
1701619131.9834087,-2.0,-1.0,-3.0,-1.0,-2.0,-17.0,-1.0,-1.0
1701619132.0037873,0.0,-2.0,-1.0,-1.0,-1.0,-13.0,1.0,-1.0
1701619132.0037873,1.0,-1.0,-1.0,-1.0,-1.0,-6.0,0.0,-2.0
1701619132.0134091,-1.0,-1.0,-1.0,-2.0,-2.0,-3.0,0.0,-1.0
1701619132.0134091,-2.0,1.0,0.0,-2.0,-1.0,3.0,0.0,-1.0
1701619132.0237956,0.0,-3.0,-2.0,-1.0,-1.0,-4.0,-2.0,-1.0
1701619132.0237956,-1.0,-1.0,-2.0,-2.0,-1.0,-5.0,-2.0,-2.0
1701619132.0237956,-1.0,-2.0,-3.0,-1.0,-1.0,0.0,0.0,-1.0
1701619132.0237956,0.0,-2.0,0.0,0.0,-1.0,-4.0,-1.0,-1.0
1701619132.0434086,-1.0,-3.0,0.0,-2.0,-2.0,-6.0,-1.0,-1.0
1701619132.0434086,-1.0,-1.0,-1.0,-1.0,-2.0,-3.0,0.0,0.0
1701619132.0535886,-1.0,-2.0,0.0,-2.0,0.0,-5.0,0.0,-1.0
1701619132.0535886,-2.0,-3.0,0.0,1.0,-1.0,-6.0,-1.0,0.0
1701619132.0734134,-2.0,0.0,-2.0,0.0,0.0,-8.0,0.0,-2.0
1701619132.0734134,-2.0,-1.0,-2.0,-2.0,-2.0,-3.0,-1.0,0.0
1701619132.0734134,-1.0,-1.0,0.0,-2.0,-1.0,0.0,-2.0,-1.0
1701619132.0734134,0.0,-1.0,-1.0,-1.0,0.0,-2.0,-1.0,0.0
1701619132.08364,-1.0,-1.0,0.0,-2.0,-1.0,1.0,-1.0,1.0
1701619132.08364,-1.0,0.0,-2.0,-1.0,1.0,1.0,-1.0,-1.0
1701619132.0934136,-1.0,-2.0,-1.0,-1.0,-1.0,4.0,0.0,1.0
1701619132.0934136,-1.0,0.0,-1.0,-2.0,1.0,5.0,-2.0,-1.0
1701619132.1134107,0.0,-4.0,0.0,-1.0,-2.0,6.0,0.0,-1.0
1701619132.1134107,1.0,5.0,0.0,-1.0,-1.0,6.0,-1.0,-2.0
1701619132.1134107,2.0,6.0,-2.0,0.0,-2.0,3.0,-2.0,-1.0
1701619132.1134107,-3.0,-14.0,-4.0,0.0,-1.0,7.0,-2.0,-2.0
1701619132.1234107,-1.0,-3.0,1.0,-1.0,-2.0,5.0,-2.0,-1.0
1701619132.1234107,-1.0,-10.0,-8.0,-2.0,-2.0,7.0,-1.0,-3.0
1701619132.1234107,-10.0,-79.0,-5.0,-1.0,-2.0,4.0,-2.0,-6.0
1701619132.1234107,8.0,48.0,6.0,0.0,-1.0,7.0,2.0,3.0
1701619132.1434095,4.0,-14.0,7.0,-2.0,0.0,4.0,-3.0,0.0
1701619132.1434095,-2.0,6.0,-10.0,-3.0,0.0,4.0,0.0,1.0
1701619132.1536927,-5.0,-8.0,0.0,3.0,2.0,5.0,-2.0,-3.0
1701619132.1536927,4.0,-21.0,-7.0,-3.0,-4.0,2.0,-4.0,-3.0
1701619132.1536927,-10.0,-53.0,3.0,2.0,1.0,4.0,0.0,0.0
1701619132.1536927,-3.0,12.0,16.0,6.0,1.0,5.0,-2.0,1.0
1701619132.16368,9.0,54.0,-1.0,-1.0,-1.0,5.0,0.0,2.0
1701619132.16368,0.0,28.0,-6.0,-4.0,-1.0,5.0,2.0,-1.0
1701619132.1834414,-2.0,-19.0,-4.0,-2.0,-1.0,3.0,-1.0,-2.0
1701619132.1834414,4.0,57.0,10.0,0.0,-1.0,6.0,-1.0,-1.0
1701619132.1934109,14.0,17.0,-15.0,-6.0,-3.0,3.0,-3.0,0.0
1701619132.1934109,-12.0,-27.0,7.0,4.0,2.0,5.0,-2.0,2.0
1701619132.2034106,6.0,4.0,-13.0,-6.0,-2.0,1.0,-3.0,-8.0
1701619132.2034106,-7.0,-57.0,6.0,0.0,-1.0,3.0,1.0,-1.0
1701619132.2034106,1.0,-30.0,-10.0,-7.0,-3.0,1.0,-2.0,-4.0
1701619132.2034106,9.0,94.0,9.0,1.0,1.0,4.0,5.0,37.0
1701619132.223671,-21.0,-63.0,-17.0,-5.0,-3.0,1.0,-7.0,-35.0
1701619132.223671,36.0,25.0,3.0,-3.0,-1.0,4.0,-1.0,16.0
1701619132.223671,-1.0,-1.0,-10.0,-1.0,-3.0,3.0,0.0,-18.0
1701619132.223671,-4.0,-20.0,-1.0,3.0,0.0,5.0,-1.0,-3.0
1701619132.243413,-9.0,60.0,1.0,1.0,0.0,7.0,3.0,15.0
1701619132.243413,-10.0,29.0,-1.0,-2.0,-1.0,4.0,-2.0,-1.0
1701619132.2535887,0.0,-35.0,1.0,-1.0,-1.0,2.0,-2.0,-4.0
1701619132.2535887,-2.0,-32.0,-4.0,-3.0,-2.0,0.0,-3.0,-4.0
1701619132.2834082,3.0,29.0,4.0,2.0,0.0,2.0,0.0,5.0
1701619132.2834082,-5.0,-62.0,-15.0,-5.0,-2.0,1.0,-4.0,-12.0
1701619132.2834082,-4.0,23.0,10.0,2.0,1.0,3.0,0.0,12.0
1701619132.2834082,-8.0,-42.0,-5.0,-3.0,-2.0,-1.0,-2.0,-14.0
1701619132.2834082,9.0,56.0,11.0,1.0,1.0,0.0,3.0,7.0
1701619132.2834082,-7.0,-23.0,-7.0,-1.0,-1.0,-2.0,0.0,-5.0
1701619132.2834082,0.0,-8.0,4.0,2.0,-1.0,0.0,1.0,5.0
1701619132.2834082,4.0,53.0,0.0,-1.0,-3.0,0.0,0.0,-3.0
1701619132.2934206,3.0,-18.0,-4.0,-1.0,-1.0,1.0,-1.0,-2.0
1701619132.2934206,-2.0,-2.0,0.0,0.0,1.0,-1.0,-1.0,3.0
1701619132.3134089,-3.0,31.0,2.0,1.0,3.0,3.0,0.0,2.0
1701619132.3134089,-4.0,-51.0,-9.0,-4.0,-1.0,-1.0,-4.0,-11.0
1701619132.3236032,9.0,-13.0,-8.0,-2.0,-2.0,-1.0,-1.0,4.0
1701619132.3236032,-13.0,-41.0,4.0,1.0,-2.0,0.0,-2.0,-4.0
1701619132.333413,-4.0,13.0,0.0,-2.0,-2.0,2.0,-1.0,0.0
1701619132.333413,-3.0,9.0,2.0,1.0,2.0,0.0,1.0,-3.0
1701619132.3436823,2.0,-28.0,-1.0,-2.0,-3.0,0.0,-3.0,1.0
1701619132.3436823,15.0,50.0,-2.0,-1.0,-2.0,-1.0,0.0,2.0
1701619132.3436823,-8.0,-23.0,-8.0,-2.0,0.0,1.0,1.0,0.0
1701619132.3436823,1.0,-18.0,7.0,4.0,4.0,3.0,2.0,-1.0
1701619132.3634136,0.0,19.0,0.0,-3.0,-2.0,2.0,-1.0,0.0
1701619132.3634136,-5.0,-26.0,-14.0,-4.0,-3.0,-2.0,-1.0,-5.0
1701619132.393354,5.0,-21.0,-13.0,-8.0,-4.0,-3.0,-5.0,-2.0
1701619132.393354,2.0,15.0,4.0,2.0,-2.0,1.0,0.0,-1.0
1701619132.393354,3.0,9.0,8.0,1.0,-1.0,1.0,-2.0,2.0
1701619132.393354,-1.0,10.0,4.0,1.0,1.0,-2.0,0.0,-2.0
1701619132.393354,1.0,7.0,-5.0,-2.0,-1.0,1.0,-3.0,1.0
1701619132.393354,-8.0,-21.0,-3.0,-3.0,-3.0,-1.0,-2.0,-4.0
1701619132.4093974,-1.0,-3.0,-1.0,-1.0,-1.0,1.0,-1.0,-2.0
1701619132.4093974,-4.0,-11.0,-4.0,-1.0,0.0,1.0,0.0,1.0
1701619132.4114106,-4.0,9.0,8.0,3.0,1.0,0.0,-1.0,0.0
1701619132.4114106,1.0,-15.0,-3.0,-5.0,-3.0,0.0,-1.0,-2.0
1701619132.4168563,-5.0,5.0,1.0,1.0,0.0,0.0,5.0,0.0
1701619132.4168563,3.0,7.0,-2.0,-2.0,-4.0,-5.0,-31.0,-6.0
1701619132.4268603,-6.0,-3.0,10.0,3.0,1.0,4.0,12.0,6.0
1701619132.4268603,-5.0,-4.0,-5.0,-5.0,0.0,4.0,13.0,-11.0
1701619132.4468546,-5.0,-1.0,-1.0,-1.0,-1.0,-10.0,-2.0,-9.0
1701619132.4468546,-4.0,-3.0,3.0,2.0,1.0,13.0,17.0,7.0
1701619132.4468546,-9.0,2.0,2.0,0.0,1.0,-5.0,-11.0,-5.0
1701619132.4468546,3.0,-6.0,-2.0,-1.0,-4.0,0.0,4.0,-2.0
1701619132.4668803,0.0,1.0,-2.0,-1.0,-2.0,2.0,-21.0,1.0
1701619132.4668803,-1.0,-4.0,-1.0,-1.0,-2.0,-5.0,-5.0,-5.0
1701619132.4668803,3.0,4.0,1.0,2.0,0.0,3.0,12.0,2.0
1701619132.4668803,-1.0,-10.0,-2.0,-1.0,-1.0,-2.0,-16.0,-1.0
1701619132.4868577,-5.0,-9.0,-5.0,-3.0,0.0,-1.0,4.0,-1.0
1701619132.4868577,-2.0,-3.0,3.0,3.0,1.0,1.0,2.0,-1.0
1701619132.4868577,0.0,-5.0,-1.0,0.0,-1.0,1.0,-1.0,0.0
1701619132.4868577,-2.0,-4.0,1.0,-1.0,1.0,0.0,-1.0,-1.0
1701619132.496854,-1.0,-4.0,0.0,0.0,-1.0,-2.0,-4.0,1.0
1701619132.5068588,-3.0,-1.0,-9.0,-4.0,-1.0,-1.0,9.0,-2.0
1701619132.516904,-2.0,1.0,-1.0,-2.0,-1.0,0.0,-9.0,-3.0
1701619132.516904,-1.0,-3.0,-3.0,-1.0,-4.0,-6.0,-8.0,-2.0
1701619132.526956,0.0,0.0,-1.0,-1.0,-1.0,3.0,11.0,2.0
1701619132.526956,-4.0,1.0,1.0,-2.0,-2.0,-1.0,-5.0,-1.0
1701619132.526956,1.0,1.0,0.0,1.0,0.0,-1.0,-1.0,0.0
1701619132.526956,-3.0,-2.0,-1.0,-2.0,-2.0,-2.0,-3.0,-2.0
1701619132.5368547,2.0,9.0,0.0,0.0,2.0,3.0,1.0,1.0
1701619132.5368547,0.0,-4.0,-1.0,2.0,3.0,2.0,2.0,0.0
1701619132.5468874,1.0,-1.0,3.0,-1.0,-2.0,-4.0,-5.0,-5.0
1701619132.5468874,-9.0,-18.0,-14.0,-10.0,-7.0,-3.0,3.0,-2.0
1701619132.55724,0.0,-1.0,2.0,4.0,1.0,2.0,-1.0,1.0
1701619132.5668566,2.0,6.0,-2.0,-4.0,0.0,-2.0,-1.0,-1.0
1701619132.5668566,-11.0,-9.0,0.0,0.0,-1.0,-3.0,2.0,0.0
1701619132.5668566,3.0,6.0,1.0,0.0,2.0,1.0,-3.0,1.0
1701619132.5868561,-2.0,-4.0,-1.0,-3.0,-2.0,-3.0,1.0,-1.0
1701619132.5868561,-2.0,-1.0,0.0,-2.0,0.0,-1.0,-1.0,-1.0
1701619132.5868561,0.0,-1.0,-4.0,-2.0,-2.0,-1.0,-1.0,-1.0
1701619132.5868561,2.0,0.0,-1.0,1.0,0.0,1.0,-2.0,0.0
1701619132.5968547,-2.0,2.0,3.0,-2.0,-2.0,-1.0,-2.0,-2.0
1701619132.5968547,1.0,-1.0,6.0,1.0,-1.0,-1.0,3.0,-2.0
1701619132.6068864,0.0,-4.0,-2.0,-2.0,-2.0,-4.0,-2.0,-1.0
1701619132.6068864,2.0,6.0,6.0,4.0,2.0,1.0,-1.0,0.0
1701619132.6169147,-4.0,-10.0,-5.0,-5.0,-1.0,1.0,-1.0,0.0
1701619132.6169147,-1.0,3.0,2.0,1.0,-1.0,-3.0,-3.0,-4.0
1701619132.6268587,-4.0,-13.0,-8.0,-5.0,-2.0,0.0,-1.0,-2.0
1701619132.6268587,0.0,1.0,-6.0,0.0,0.0,-1.0,-1.0,0.0
1701619132.6468554,0.0,4.0,0.0,0.0,-1.0,-1.0,-2.0,-1.0
1701619132.6468554,0.0,-1.0,0.0,0.0,3.0,-1.0,0.0,0.0
1701619132.6468554,-1.0,3.0,2.0,-3.0,-1.0,-1.0,-2.0,-1.0
1701619132.6468554,-2.0,-2.0,1.0,-2.0,0.0,-2.0,-2.0,0.0
1701619132.656854,-1.0,-1.0,-2.0,-3.0,0.0,-1.0,-2.0,-2.0
1701619132.656854,-2.0,0.0,-3.0,-3.0,-2.0,-2.0,-3.0,0.0
1701619132.667189,2.0,9.0,3.0,0.0,-1.0,0.0,1.0,-1.0
1701619132.667189,0.0,-1.0,-1.0,1.0,2.0,1.0,-3.0,0.0
1701619132.677237,1.0,4.0,2.0,0.0,-1.0,1.0,0.0,0.0
1701619132.6868577,-3.0,-5.0,0.0,1.0,1.0,1.0,1.0,1.0
1701619132.6868577,-3.0,-3.0,-6.0,-2.0,-1.0,-1.0,-3.0,-1.0
1701619132.6868577,-2.0,-1.0,1.0,1.0,-3.0,-1.0,-1.0,2.0
1701619132.706854,-1.0,-4.0,-2.0,0.0,-1.0,-4.0,0.0,-3.0
1701619132.706854,-1.0,-2.0,-5.0,-2.0,-3.0,-2.0,0.0,0.0
1701619132.706854,0.0,5.0,0.0,0.0,-1.0,-1.0,0.0,-1.0
1701619132.706854,-2.0,-8.0,-4.0,-2.0,-1.0,-1.0,-1.0,-2.0
1701619132.7172365,-1.0,2.0,-2.0,-1.0,0.0,0.0,0.0,-1.0
1701619132.7172365,-3.0,1.0,-2.0,-2.0,-1.0,-1.0,-1.0,-1.0
1701619132.7272232,0.0,-1.0,2.0,1.0,1.0,0.0,-1.0,0.0
1701619132.7272232,-2.0,-2.0,-1.0,0.0,-1.0,-1.0,-1.0,-1.0
1701619132.7472534,-3.0,-9.0,-4.0,0.0,0.0,-2.0,0.0,0.0
1701619132.7472534,-1.0,-5.0,2.0,0.0,-3.0,-2.0,0.0,-2.0
1701619132.7472534,-1.0,-1.0,2.0,-1.0,-1.0,0.0,-1.0,-1.0
1701619132.7472534,1.0,-2.0,-1.0,-4.0,-1.0,-1.0,-1.0,-1.0
1701619132.7668533,0.0,2.0,1.0,-1.0,-1.0,0.0,-2.0,-1.0
1701619132.7668533,-1.0,-2.0,-1.0,-1.0,-1.0,0.0,-1.0,-1.0
1701619132.7668533,0.0,0.0,0.0,1.0,1.0,-2.0,-1.0,0.0
1701619132.7668533,-1.0,2.0,-1.0,4.0,0.0,0.0,-3.0,-1.0
1701619132.7768962,1.0,2.0,0.0,-1.0,0.0,-1.0,1.0,0.0
1701619132.7768962,-2.0,-4.0,-2.0,-6.0,-4.0,0.0,-2.0,0.0
1701619132.7871208,0.0,2.0,1.0,9.0,0.0,0.0,-3.0,-2.0
1701619132.7871208,0.0,3.0,0.0,-2.0,1.0,0.0,-2.0,-2.0
1701619132.8068583,-2.0,-1.0,-5.0,-6.0,-3.0,1.0,-2.0,0.0
1701619132.8068583,-3.0,1.0,-3.0,-3.0,6.0,2.0,2.0,1.0
1701619132.8068583,-1.0,-3.0,-2.0,-2.0,-3.0,-3.0,-1.0,1.0
1701619132.8068583,1.0,-1.0,4.0,5.0,-1.0,-1.0,3.0,1.0
1701619132.8368547,-2.0,-2.0,4.0,5.0,1.0,-3.0,-3.0,-1.0
1701619132.8368547,-2.0,1.0,-4.0,-5.0,-4.0,-3.0,-4.0,-4.0
1701619132.8368547,0.0,1.0,12.0,3.0,-2.0,-1.0,-1.0,-1.0
1701619132.8368547,6.0,3.0,2.0,10.0,3.0,-2.0,-5.0,3.0
1701619132.8368547,-1.0,0.0,-24.0,-5.0,-4.0,-3.0,3.0,-2.0
1701619132.8368547,-4.0,-7.0,5.0,-10.0,-12.0,-9.0,-12.0,-3.0
1701619132.8468874,-5.0,-14.0,-55.0,-31.0,-1.0,10.0,16.0,2.0
1701619132.8468874,-8.0,-6.0,25.0,3.0,2.0,3.0,3.0,-2.0
1701619132.8668587,4.0,9.0,16.0,20.0,9.0,5.0,3.0,2.0
1701619132.8668587,6.0,17.0,49.0,36.0,8.0,-1.0,-4.0,3.0
1701619132.8968527,4.0,9.0,57.0,22.0,-6.0,-2.0,-3.0,-1.0
1701619132.8968527,-6.0,-14.0,-110.0,-84.0,-16.0,-3.0,-1.0,-5.0
1701619132.8968527,-23.0,-42.0,-46.0,-71.0,-42.0,-21.0,-17.0,-12.0
1701619132.8968527,-1.0,-1.0,28.0,59.0,16.0,2.0,3.0,0.0
1701619132.8968527,5.0,16.0,76.0,47.0,13.0,0.0,-2.0,2.0
1701619132.8968527,6.0,12.0,-6.0,8.0,4.0,3.0,4.0,3.0
1701619132.8968527,5.0,12.0,18.0,1.0,6.0,2.0,3.0,2.0
1701619132.8968527,-3.0,-3.0,-45.0,-40.0,-8.0,1.0,0.0,-1.0
1701619132.9072106,-1.0,-1.0,-9.0,7.0,1.0,0.0,0.0,-1.0
1701619132.9072106,-1.0,2.0,47.0,35.0,6.0,-2.0,-5.0,-1.0
1701619132.9342299,3.0,4.0,-24.0,-15.0,3.0,2.0,2.0,1.0
1701619132.9342299,-3.0,-5.0,7.0,9.0,-3.0,-1.0,0.0,-1.0
1701619132.9342299,2.0,5.0,-5.0,0.0,7.0,0.0,-3.0,0.0
1701619132.9342299,-4.0,-12.0,1.0,-3.0,-3.0,-3.0,0.0,-3.0
1701619132.9495897,-3.0,-7.0,23.0,21.0,7.0,1.0,-3.0,-1.0
1701619132.9495897,-6.0,-16.0,-54.0,-48.0,-21.0,-3.0,-3.0,-5.0
1701619132.9495897,-5.0,-13.0,6.0,-11.0,-6.0,-6.0,-5.0,-3.0
1701619132.9495897,-1.0,1.0,-2.0,-4.0,-3.0,-7.0,0.0,0.0
1701619132.9599087,5.0,9.0,19.0,24.0,10.0,2.0,3.0,2.0
1701619132.9599087,2.0,1.0,-6.0,2.0,7.0,2.0,2.0,1.0
1701619132.969892,0.0,-2.0,-13.0,-12.0,-3.0,-2.0,0.0,-3.0
1701619132.969892,-2.0,-1.0,6.0,3.0,-1.0,-2.0,-2.0,-2.0
1701619132.9895854,0.0,0.0,-5.0,3.0,1.0,0.0,-1.0,-1.0
1701619132.9895854,-1.0,2.0,6.0,-2.0,-2.0,-2.0,-1.0,-2.0
1701619132.9895854,-2.0,-5.0,-22.0,-14.0,-5.0,-3.0,-3.0,-3.0
1701619132.9895854,1.0,1.0,11.0,4.0,1.0,0.0,1.0,-1.0
1701619133.0095873,-1.0,-3.0,-1.0,3.0,0.0,-3.0,-2.0,-2.0
1701619133.0095873,0.0,-1.0,4.0,0.0,-2.0,0.0,-1.0,-1.0
1701619133.0095873,-2.0,-2.0,-14.0,-6.0,0.0,-3.0,-1.0,-1.0
1701619133.0095873,-3.0,-2.0,-1.0,0.0,-1.0,-2.0,-2.0,0.0
1701619133.0200183,2.0,1.0,6.0,1.0,0.0,0.0,0.0,0.0
1701619133.0200183,0.0,-2.0,-3.0,-3.0,0.0,-3.0,1.0,-1.0
1701619133.0299873,-1.0,-2.0,-14.0,-7.0,0.0,-2.0,-2.0,0.0
1701619133.0299873,-2.0,0.0,12.0,4.0,-1.0,0.0,-1.0,-3.0
1701619133.0495844,0.0,4.0,12.0,2.0,-1.0,-1.0,-1.0,1.0
1701619133.0495844,-2.0,-5.0,-27.0,-5.0,2.0,0.0,1.0,-1.0
1701619133.0495844,0.0,-2.0,-6.0,-1.0,-3.0,-1.0,-1.0,-2.0
1701619133.0495844,1.0,1.0,7.0,3.0,-1.0,-1.0,0.0,-2.0
1701619133.0599983,-2.0,-1.0,0.0,-2.0,0.0,-1.0,0.0,0.0
1701619133.0599983,0.0,0.0,6.0,0.0,-1.0,-1.0,0.0,-2.0
1701619133.070343,-2.0,-1.0,-3.0,-3.0,-2.0,-1.0,-3.0,-1.0
1701619133.070343,-1.0,-1.0,3.0,2.0,-3.0,-1.0,-2.0,-2.0
1701619133.0904598,-1.0,-1.0,-3.0,4.0,1.0,-1.0,0.0,-1.0
1701619133.0904598,0.0,4.0,4.0,-3.0,0.0,0.0,-1.0,1.0
1701619133.0904598,-1.0,4.0,-7.0,-3.0,0.0,-2.0,-1.0,-2.0
1701619133.0904598,-1.0,-1.0,2.0,0.0,1.0,2.0,1.0,-3.0
1701619133.1100087,-1.0,0.0,-5.0,-1.0,-5.0,-2.0,-4.0,-1.0
1701619133.1100087,-2.0,-1.0,0.0,-1.0,-1.0,2.0,0.0,0.0
1701619133.120347,-1.0,2.0,1.0,1.0,-2.0,-1.0,0.0,0.0
1701619133.120347,-2.0,-1.0,-4.0,-1.0,2.0,1.0,-3.0,1.0
1701619133.120347,-2.0,1.0,-4.0,0.0,0.0,-1.0,-2.0,-2.0
1701619133.120347,-1.0,0.0,4.0,0.0,-2.0,-2.0,-3.0,-1.0
1701619133.130278,-1.0,-4.0,-6.0,-4.0,-2.0,-1.0,0.0,-2.0
1701619133.130278,-2.0,-2.0,-4.0,-3.0,-3.0,-2.0,-1.0,-4.0
1701619133.1403828,-1.0,-4.0,-3.0,-2.0,-2.0,1.0,0.0,-2.0
1701619133.1403828,-1.0,0.0,7.0,6.0,1.0,1.0,-1.0,0.0
1701619133.1500106,-2.0,-4.0,-8.0,-8.0,-1.0,-1.0,-1.0,0.0
1701619133.1500106,-1.0,-1.0,-6.0,-1.0,-1.0,0.0,-2.0,0.0
1701619133.1600428,-1.0,-2.0,3.0,1.0,3.0,0.0,-3.0,-3.0
1701619133.1600428,3.0,11.0,5.0,2.0,-1.0,0.0,0.0,-1.0
1701619133.1702762,-1.0,-8.0,-4.0,2.0,0.0,-1.0,0.0,1.0
1701619133.1702762,0.0,-13.0,-6.0,-4.0,1.0,-1.0,-4.0,-1.0
1701619133.180251,-3.0,0.0,-1.0,-2.0,1.0,1.0,1.0,0.0
1701619133.180251,0.0,-2.0,-1.0,-1.0,-1.0,0.0,0.0,-1.0
1701619133.1900141,-1.0,1.0,1.0,-1.0,-2.0,-1.0,-2.0,-3.0
1701619133.1900141,-1.0,2.0,-1.0,-1.0,-1.0,-2.0,0.0,-1.0
1701619133.2200093,-3.0,-4.0,-6.0,-1.0,-2.0,-3.0,-2.0,-2.0
1701619133.2200093,-4.0,-10.0,-6.0,-8.0,-3.0,-5.0,-3.0,-4.0
1701619133.2200093,-2.0,-3.0,3.0,-1.0,0.0,-1.0,1.0,-1.0
1701619133.2200093,1.0,9.0,-3.0,0.0,-2.0,0.0,1.0,1.0
1701619133.2200093,1.0,1.0,3.0,-3.0,-3.0,-2.0,-1.0,-1.0
1701619133.2200093,-4.0,2.0,3.0,0.0,0.0,0.0,-1.0,0.0
1701619133.2300446,-3.0,-8.0,-11.0,-5.0,-3.0,-3.0,-4.0,-2.0
1701619133.2300446,0.0,-2.0,2.0,1.0,0.0,-2.0,-2.0,-1.0
1701619133.240396,1.0,3.0,0.0,2.0,-1.0,-1.0,2.0,-1.0
1701619133.240396,1.0,-12.0,-2.0,-1.0,0.0,-3.0,-2.0,-2.0
1701619133.2500122,2.0,6.0,1.0,1.0,-1.0,-2.0,-2.0,0.0
1701619133.2500122,-1.0,0.0,0.0,-2.0,-2.0,0.0,-1.0,-2.0
1701619133.27001,-1.0,-23.0,-7.0,-3.0,-2.0,-1.0,-2.0,-1.0
1701619133.27001,8.0,-22.0,-9.0,-5.0,-4.0,-3.0,-4.0,-3.0
1701619133.2800076,-6.0,-10.0,-6.0,-1.0,0.0,2.0,1.0,2.0
1701619133.2800076,-1.0,-25.0,-1.0,-1.0,-2.0,-3.0,0.0,0.0
1701619133.2800076,-4.0,15.0,7.0,6.0,-1.0,-1.0,0.0,0.0
1701619133.2800076,0.0,-2.0,-10.0,-6.0,0.0,-1.0,-1.0,-1.0
1701619133.290394,1.0,1.0,1.0,-1.0,-2.0,-2.0,-3.0,-1.0
1701619133.290394,-1.0,-8.0,-5.0,-1.0,-1.0,-2.0,-3.0,-1.0
1701619133.3003817,0.0,-8.0,0.0,-1.0,-1.0,-2.0,-1.0,-1.0
1701619133.3003817,-4.0,5.0,3.0,1.0,-1.0,0.0,-1.0,0.0
1701619133.3200104,0.0,3.0,-1.0,-1.0,0.0,1.0,-1.0,0.0
1701619133.3200104,-3.0,10.0,1.0,-2.0,0.0,0.0,-2.0,0.0
1701619133.3303955,-1.0,3.0,-1.0,-2.0,-1.0,0.0,-1.0,-1.0
1701619133.3303955,-4.0,9.0,1.0,-1.0,-1.0,2.0,1.0,-2.0
1701619133.3303955,-2.0,0.0,-4.0,-4.0,-2.0,-2.0,-2.0,-3.0
1701619133.3303955,1.0,4.0,0.0,0.0,-1.0,-1.0,-2.0,-1.0
1701619133.340411,0.0,4.0,0.0,0.0,0.0,1.0,0.0,-1.0
1701619133.340411,-1.0,-7.0,0.0,-1.0,0.0,-1.0,-1.0,0.0
1701619133.3504012,-3.0,-8.0,-1.0,-5.0,-3.0,-3.0,-2.0,-1.0
1701619133.3504012,-2.0,4.0,2.0,-2.0,-1.0,0.0,-1.0,0.0
1701619133.3604026,-1.0,2.0,-13.0,-4.0,-1.0,-4.0,-2.0,-1.0
1701619133.3604026,-2.0,3.0,2.0,-2.0,-1.0,-2.0,-1.0,-2.0
1701619133.3800087,1.0,1.0,0.0,1.0,0.0,-1.0,2.0,-1.0
1701619133.3800087,0.0,6.0,0.0,-1.0,-1.0,0.0,0.0,0.0
1701619133.4000132,0.0,0.0,5.0,1.0,-2.0,0.0,-2.0,-1.0
1701619133.4000132,-2.0,1.0,-2.0,2.0,0.0,0.0,0.0,-1.0
1701619133.4000132,-1.0,-2.0,-3.0,-3.0,-1.0,-2.0,-3.0,-2.0
1701619133.4000132,0.0,-3.0,-1.0,-2.0,-3.0,-1.0,-2.0,1.0
1701619133.4000132,0.0,-3.0,-2.0,-1.0,-1.0,-1.0,-1.0,-1.0
1701619133.4000132,-2.0,0.0,2.0,2.0,-2.0,-1.0,1.0,1.0
1701619133.4102783,0.0,1.0,2.0,0.0,0.0,-1.0,-3.0,0.0
1701619133.4102783,-1.0,1.0,-1.0,2.0,-2.0,0.0,-1.0,-1.0
1701619133.4200182,1.0,-2.0,-2.0,-1.0,-2.0,-2.0,-2.0,-1.0
1701619133.4200182,-3.0,2.0,-7.0,-1.0,-2.0,-2.0,-1.0,0.0
1701619133.4537747,-1.0,-1.0,-3.0,-5.0,-3.0,1.0,0.0,-1.0
1701619133.4537747,-1.0,0.0,-4.0,0.0,0.0,-2.0,-1.0,-2.0
1701619133.4587755,0.0,-1.0,-3.0,-3.0,1.0,-1.0,-1.0,0.0
1701619133.4587755,1.0,-1.0,5.0,5.0,0.0,-1.0,-1.0,-2.0
1701619133.4613845,0.0,-1.0,-2.0,1.0,1.0,-1.0,0.0,0.0
1701619133.4613845,-1.0,-1.0,0.0,0.0,1.0,-1.0,-2.0,-2.0
1701619133.4653792,-1.0,-1.0,0.0,-3.0,-1.0,0.0,-3.0,-1.0
1701619133.4653792,-1.0,-1.0,1.0,0.0,0.0,-4.0,-1.0,0.0
1701619133.4653792,-1.0,0.0,0.0,-1.0,0.0,-4.0,-1.0,-2.0
1701619133.4653792,-3.0,-1.0,1.0,-2.0,0.0,-10.0,-1.0,0.0
1701619133.4856598,-1.0,-1.0,-8.0,0.0,-2.0,-4.0,-1.0,-1.0
1701619133.4856598,-2.0,-1.0,0.0,-2.0,0.0,-4.0,-1.0,-2.0
1701619133.4953923,-2.0,0.0,1.0,2.0,0.0,-9.0,-1.0,-1.0
1701619133.4953923,0.0,-2.0,-1.0,-1.0,-3.0,-13.0,-1.0,-1.0
1701619133.5054038,-1.0,-1.0,1.0,-2.0,-2.0,0.0,0.0,2.0
1701619133.5054038,-1.0,1.0,-1.0,-2.0,-2.0,-3.0,-1.0,-1.0
1701619133.5054038,0.0,-1.0,0.0,-1.0,-1.0,10.0,1.0,-1.0
1701619133.5054038,0.0,0.0,-1.0,-1.0,-1.0,15.0,0.0,-2.0
1701619133.5254524,-1.0,-2.0,0.0,-2.0,-3.0,6.0,0.0,0.0
1701619133.5254524,1.0,0.0,-2.0,-1.0,-2.0,4.0,-2.0,0.0
1701619133.5254524,0.0,0.0,0.0,0.0,0.0,-2.0,0.0,-1.0
1701619133.5254524,1.0,0.0,-2.0,-1.0,-2.0,10.0,0.0,-2.0
1701619133.545379,0.0,7.0,0.0,-2.0,0.0,17.0,-2.0,-1.0
1701619133.545379,-3.0,-2.0,1.0,-2.0,0.0,16.0,0.0,-3.0
1701619133.5553908,1.0,7.0,5.0,2.0,-1.0,7.0,0.0,1.0
1701619133.5553908,-3.0,-1.0,-11.0,-7.0,-4.0,-2.0,0.0,1.0
1701619133.5654573,3.0,4.0,8.0,3.0,-1.0,-5.0,-2.0,-1.0
1701619133.5654573,-1.0,5.0,1.0,2.0,4.0,-1.0,1.0,-1.0
1701619133.5754783,7.0,12.0,16.0,7.0,6.0,0.0,2.0,2.0
1701619133.5754783,-12.0,-32.0,-22.0,-11.0,-5.0,-6.0,-2.0,-3.0
1701619133.585478,-3.0,-4.0,4.0,4.0,-3.0,-13.0,-4.0,-2.0
1701619133.585478,-1.0,-5.0,-7.0,-4.0,-1.0,-5.0,0.0,1.0
1701619133.585478,-1.0,4.0,-3.0,-5.0,-3.0,-2.0,-2.0,-1.0
1701619133.585478,2.0,5.0,6.0,3.0,2.0,-2.0,0.0,1.0
1701619133.605819,-4.0,-6.0,-4.0,-3.0,-2.0,-9.0,-3.0,-2.0
1701619133.605819,0.0,0.0,-2.0,1.0,-1.0,-6.0,-3.0,0.0
1701619133.6354725,-3.0,-7.0,-8.0,-5.0,-4.0,-5.0,-1.0,-3.0
1701619133.6354725,0.0,-1.0,-4.0,-3.0,-2.0,-6.0,-2.0,-3.0
1701619133.6354725,0.0,-3.0,-6.0,-6.0,-1.0,-1.0,1.0,-1.0
1701619133.6354725,3.0,11.0,5.0,2.0,0.0,-1.0,1.0,1.0
1701619133.6354725,-7.0,-15.0,-14.0,-5.0,-3.0,-3.0,-5.0,-2.0
1701619133.6354725,3.0,3.0,7.0,4.0,0.0,0.0,-2.0,0.0
1701619133.6454778,-1.0,1.0,3.0,4.0,2.0,2.0,1.0,0.0
1701619133.6454778,0.0,-10.0,-7.0,-1.0,-2.0,4.0,-1.0,-1.0
1701619133.6554792,-2.0,-1.0,1.0,0.0,-3.0,-1.0,-2.0,-2.0
1701619133.6554792,-2.0,1.0,1.0,-2.0,-2.0,-1.0,-1.0,-2.0
1701619133.6854742,-1.0,-4.0,-6.0,-2.0,0.0,-6.0,0.0,-1.0
1701619133.6854742,-4.0,-11.0,-7.0,-3.0,-4.0,-13.0,-3.0,-2.0
1701619133.6854742,-1.0,-4.0,-4.0,-2.0,1.0,-11.0,-1.0,-1.0
1701619133.6854742,3.0,6.0,2.0,0.0,0.0,-6.0,0.0,2.0
1701619133.6854742,-3.0,-6.0,-6.0,-7.0,-1.0,-3.0,0.0,2.0
1701619133.6854742,0.0,0.0,1.0,-2.0,-2.0,-3.0,-1.0,1.0
1701619133.6854742,-1.0,-2.0,1.0,1.0,1.0,2.0,-2.0,-4.0
1701619133.6854742,0.0,-2.0,-3.0,-2.0,-1.0,2.0,1.0,-1.0
1701619133.7054765,-2.0,-2.0,0.0,0.0,1.0,3.0,0.0,-3.0
1701619133.7054765,-2.0,-4.0,-2.0,-4.0,-2.0,2.0,-1.0,-3.0
1701619133.7354727,0.0,-2.0,-1.0,-1.0,-2.0,2.0,0.0,0.0
1701619133.7354727,-1.0,1.0,-1.0,-1.0,-2.0,-1.0,-2.0,0.0
1701619133.7354727,-3.0,-1.0,-2.0,-2.0,0.0,0.0,-2.0,-2.0
1701619133.7354727,-1.0,0.0,0.0,-1.0,-1.0,2.0,0.0,-1.0
1701619133.7354727,-2.0,-1.0,-4.0,-3.0,-1.0,1.0,-1.0,-1.0
1701619133.7354727,0.0,3.0,1.0,1.0,-1.0,-2.0,0.0,-2.0
1701619133.7454808,0.0,1.0,1.0,-1.0,-3.0,-2.0,-1.0,0.0
1701619133.7454808,-2.0,-3.0,-2.0,0.0,0.0,0.0,-1.0,0.0
1701619133.7454808,0.0,2.0,0.0,1.0,0.0,0.0,0.0,-1.0
1701619133.7454808,-2.0,0.0,2.0,-2.0,1.0,0.0,-2.0,0.0
1701619133.7654746,0.0,-1.0,-2.0,0.0,-1.0,-1.0,-2.0,0.0
1701619133.7654746,0.0,0.0,3.0,-1.0,-7.0,-2.0,-3.0,-2.0
1701619133.7755086,-2.0,-1.0,-1.0,1.0,3.0,-1.0,0.0,-1.0
1701619133.7755086,0.0,5.0,2.0,2.0,7.0,-3.0,1.0,0.0
1701619133.7858486,1.0,4.0,-1.0,1.0,-2.0,1.0,1.0,-1.0
1701619133.7858486,-3.0,11.0,-1.0,-4.0,-1.0,0.0,-1.0,-1.0
1701619133.7955115,-2.0,11.0,0.0,-4.0,-9.0,-1.0,-2.0,-2.0
1701619133.7955115,-2.0,17.0,0.0,2.0,1.0,0.0,-1.0,0.0
1701619133.8059113,-1.0,17.0,1.0,9.0,4.0,1.0,-2.0,-2.0
1701619133.8059113,-1.0,29.0,-1.0,4.0,-1.0,2.0,0.0,-2.0
1701619133.8059113,-3.0,19.0,-5.0,-18.0,-2.0,1.0,-2.0,-3.0
1701619133.8059113,-2.0,7.0,-2.0,-7.0,-5.0,-3.0,-3.0,-1.0
1701619133.825475,-1.0,-13.0,-1.0,0.0,0.0,5.0,2.0,0.0
1701619133.825475,-2.0,-1.0,1.0,2.0,1.0,-1.0,0.0,1.0
1701619133.825475,-1.0,-30.0,2.0,9.0,1.0,-2.0,-2.0,2.0
1701619133.825475,-1.0,-37.0,1.0,-1.0,-2.0,-1.0,-2.0,-1.0
1701619133.8559155,-2.0,-51.0,-1.0,-2.0,-4.0,-5.0,-3.0,0.0
1701619133.8559155,-1.0,-59.0,-2.0,-3.0,2.0,-1.0,-2.0,-2.0
1701619133.8559155,0.0,-45.0,2.0,-2.0,-8.0,-4.0,-2.0,0.0
1701619133.8559155,-1.0,-38.0,1.0,9.0,5.0,1.0,0.0,-1.0
1701619133.8657444,1.0,-18.0,-2.0,-12.0,-1.0,-1.0,0.0,0.0
1701619133.8657444,-8.0,-22.0,-2.0,-5.0,-3.0,-5.0,-2.0,-2.0
1701619133.8657444,-3.0,-23.0,5.0,9.0,3.0,-1.0,-1.0,-3.0
1701619133.8657444,5.0,79.0,14.0,11.0,1.0,-1.0,3.0,5.0
1701619133.8854752,1.0,31.0,-2.0,-12.0,-3.0,-2.0,1.0,0.0
1701619133.8854752,1.0,19.0,-6.0,-2.0,0.0,-4.0,-4.0,-3.0
1701619133.8854752,14.0,-9.0,-27.0,-9.0,-8.0,-6.0,-6.0,-2.0
1701619133.8854752,-7.0,35.0,-16.0,-11.0,-7.0,-2.0,-4.0,-4.0
1701619133.9057386,-9.0,-18.0,1.0,12.0,6.0,0.0,0.0,-1.0
1701619133.9057386,-6.0,-57.0,5.0,-14.0,-2.0,-2.0,0.0,-1.0
1701619133.915478,8.0,77.0,-7.0,10.0,3.0,-4.0,-5.0,-4.0
1701619133.915478,34.0,59.0,23.0,-6.0,-4.0,1.0,2.0,6.0
1701619133.9257936,-17.0,-39.0,-31.0,-13.0,-3.0,-4.0,-3.0,-8.0
1701619133.9257936,-5.0,-5.0,13.0,9.0,0.0,-1.0,0.0,0.0
1701619133.9257936,15.0,60.0,-2.0,-7.0,3.0,5.0,4.0,6.0
1701619133.9257936,-13.0,-21.0,-1.0,2.0,4.0,2.0,1.0,-3.0
1701619133.9654748,3.0,28.0,4.0,-1.0,-3.0,-3.0,-3.0,-2.0
1701619133.9654748,6.0,14.0,7.0,6.0,2.0,3.0,1.0,0.0
1701619133.9654748,0.0,17.0,-5.0,-6.0,-4.0,0.0,-3.0,-3.0
1701619133.9654748,-11.0,-76.0,-29.0,-1.0,-4.0,-4.0,-7.0,-9.0
1701619133.9654748,0.0,22.0,9.0,-2.0,-6.0,-4.0,-2.0,0.0
1701619133.9654748,-4.0,1.0,-28.0,-23.0,-6.0,-4.0,-3.0,-5.0
1701619133.9654748,4.0,77.0,38.0,18.0,6.0,2.0,2.0,4.0
1701619133.9754739,-10.0,-32.0,-8.0,7.0,-2.0,-1.0,-2.0,-3.0
1701619133.999275,6.0,11.0,17.0,4.0,5.0,0.0,-1.0,0.0
1701619133.999275,4.0,7.0,-5.0,-4.0,2.0,1.0,3.0,3.0
1701619133.999275,-8.0,-35.0,17.0,7.0,5.0,-1.0,-2.0,-1.0
1701619133.999275,12.0,9.0,20.0,27.0,19.0,4.0,4.0,9.0
1701619133.999275,4.0,18.0,-13.0,-16.0,-9.0,-1.0,2.0,1.0
1701619133.999275,7.0,10.0,3.0,-1.0,2.0,4.0,4.0,5.0
1701619134.0094945,-11.0,-30.0,-2.0,-7.0,-6.0,-5.0,-7.0,-7.0
1701619134.0094945,-8.0,-36.0,-16.0,-16.0,-9.0,-4.0,-1.0,-3.0
1701619134.0293338,-2.0,-9.0,-6.0,-4.0,-3.0,-1.0,4.0,3.0
1701619134.0293338,-6.0,-3.0,-13.0,0.0,-1.0,1.0,0.0,-2.0
1701619134.0293338,-18.0,-72.0,-20.0,-12.0,-5.0,-1.0,0.0,-6.0
1701619134.0293338,-2.0,10.0,13.0,-1.0,-4.0,-2.0,-7.0,-3.0
1701619134.0692763,-1.0,0.0,6.0,3.0,-2.0,-4.0,-4.0,-2.0
1701619134.0692763,2.0,10.0,4.0,5.0,-2.0,-1.0,-4.0,-2.0
1701619134.0692763,-1.0,-3.0,4.0,1.0,1.0,-2.0,1.0,1.0
1701619134.0692763,-4.0,-8.0,-9.0,-12.0,-6.0,-2.0,-2.0,-3.0
1701619134.0692763,0.0,-2.0,2.0,5.0,3.0,2.0,-1.0,-2.0
1701619134.0692763,0.0,-11.0,-6.0,6.0,4.0,1.0,1.0,0.0
1701619134.0692763,-6.0,-16.0,-5.0,-6.0,-4.0,-2.0,0.0,-1.0
1701619134.0692763,-4.0,-16.0,-7.0,-4.0,-1.0,1.0,4.0,2.0
1701619134.079651,-2.0,5.0,6.0,5.0,1.0,0.0,-1.0,0.0
1701619134.079651,0.0,16.0,6.0,2.0,-3.0,-4.0,-3.0,-1.0
1701619134.089666,-3.0,9.0,-4.0,-1.0,2.0,0.0,0.0,0.0
1701619134.089666,-2.0,52.0,3.0,-3.0,0.0,3.0,3.0,-1.0
1701619134.1096644,0.0,19.0,-2.0,-2.0,-1.0,-2.0,-2.0,-2.0
1701619134.1096644,-2.0,-1.0,0.0,-3.0,-4.0,-5.0,-3.0,-3.0
1701619134.1096644,-1.0,-18.0,-1.0,-1.0,0.0,2.0,0.0,1.0
1701619134.1096644,-1.0,-10.0,4.0,1.0,0.0,0.0,-2.0,-2.0
1701619134.1300685,-1.0,5.0,0.0,2.0,-2.0,-4.0,-4.0,-1.0
1701619134.1300685,-4.0,-20.0,-1.0,-1.0,-1.0,1.0,-1.0,-2.0
1701619134.1300685,-3.0,-43.0,-4.0,-1.0,0.0,1.0,2.0,0.0
1701619134.1300685,0.0,-28.0,3.0,-1.0,-4.0,-2.0,-1.0,-4.0
1701619134.1400366,3.0,-36.0,-7.0,-3.0,-1.0,-1.0,-1.0,-2.0
1701619134.1400366,-2.0,-9.0,1.0,1.0,0.0,-3.0,-2.0,-1.0
1701619134.1596618,-1.0,-7.0,-2.0,-2.0,-1.0,-1.0,-1.0,-1.0
1701619134.1596618,1.0,2.0,-5.0,-4.0,-2.0,-2.0,-2.0,-1.0
1701619134.169917,0.0,-15.0,6.0,2.0,2.0,2.0,0.0,2.0
1701619134.169917,3.0,15.0,3.0,2.0,-2.0,-3.0,-2.0,-2.0
1701619134.169917,0.0,-1.0,-4.0,-1.0,-2.0,-1.0,0.0,0.0
1701619134.169917,-1.0,36.0,2.0,-2.0,1.0,0.0,1.0,2.0
1701619134.1900015,-3.0,11.0,1.0,-2.0,-1.0,-2.0,-1.0,-1.0
1701619134.1900015,4.0,54.0,4.0,4.0,0.0,-1.0,-4.0,-1.0
1701619134.1900015,3.0,7.0,0.0,-1.0,-3.0,1.0,0.0,0.0
1701619134.1900015,-9.0,-15.0,1.0,1.0,0.0,-1.0,-2.0,-2.0
1701619134.1999197,5.0,33.0,-2.0,-1.0,-2.0,0.0,-1.0,1.0
1701619134.1999197,-4.0,-1.0,3.0,-1.0,-2.0,-3.0,0.0,1.0
1701619134.229662,4.0,-4.0,-4.0,-3.0,-2.0,-1.0,-1.0,-2.0
1701619134.229662,0.0,-9.0,-2.0,-2.0,-1.0,0.0,0.0,-2.0
1701619134.229662,-5.0,-23.0,-3.0,1.0,1.0,2.0,-1.0,-1.0
1701619134.229662,-2.0,-9.0,0.0,1.0,-3.0,0.0,-1.0,0.0
1701619134.229662,-5.0,11.0,3.0,0.0,-1.0,-1.0,-1.0,1.0
1701619134.229662,0.0,-7.0,-1.0,2.0,0.0,-1.0,1.0,1.0
1701619134.2501085,-4.0,4.0,5.0,3.0,0.0,2.0,-1.0,-2.0
1701619134.2501085,9.0,25.0,-1.0,-3.0,-1.0,-2.0,-1.0,-1.0
1701619134.2501085,-8.0,-15.0,4.0,3.0,2.0,0.0,2.0,1.0
1701619134.2501085,2.0,26.0,9.0,-2.0,-3.0,-1.0,-3.0,0.0
1701619134.2598352,1.0,-70.0,-14.0,-1.0,-2.0,-4.0,-3.0,-4.0
1701619134.2598352,-1.0,-14.0,0.0,1.0,-1.0,0.0,1.0,0.0
1701619134.2796638,-4.0,-2.0,0.0,-1.0,-1.0,0.0,-1.0,0.0
1701619134.2796638,0.0,-28.0,-7.0,0.0,0.0,0.0,-2.0,0.0
1701619134.2900293,2.0,27.0,5.0,0.0,-2.0,0.0,2.0,3.0
1701619134.2900293,-2.0,29.0,8.0,-3.0,1.0,2.0,3.0,2.0
1701619134.2900293,10.0,17.0,3.0,0.0,2.0,-2.0,-1.0,0.0
1701619134.2900293,1.0,33.0,7.0,1.0,1.0,1.0,3.0,1.0
1701619134.31009,2.0,8.0,-6.0,-3.0,-2.0,-3.0,-3.0,-1.0
1701619134.31009,-2.0,-41.0,-6.0,0.0,-1.0,-1.0,-2.0,-1.0
1701619134.31009,-7.0,0.0,0.0,-3.0,-3.0,-2.0,-2.0,-1.0
1701619134.31009,10.0,21.0,-6.0,-3.0,-3.0,-2.0,-4.0,-2.0
1701619134.3296616,-21.0,-9.0,4.0,1.0,1.0,1.0,1.0,-4.0
1701619134.3296616,-5.0,-16.0,-7.0,-1.0,1.0,-1.0,-2.0,-2.0
1701619134.3296616,3.0,-4.0,-3.0,-1.0,-3.0,-3.0,-1.0,-3.0
1701619134.3296616,-12.0,-30.0,-6.0,-2.0,-2.0,0.0,-2.0,-4.0
1701619134.3501031,3.0,-3.0,-2.0,-1.0,-3.0,-3.0,-3.0,-1.0
1701619134.3501031,1.0,37.0,-3.0,1.0,-2.0,0.0,1.0,0.0
1701619134.3501031,-10.0,-28.0,-3.0,-1.0,2.0,2.0,0.0,-2.0
1701619134.3501031,-6.0,2.0,0.0,-4.0,-4.0,-3.0,-2.0,-2.0
1701619134.3700619,9.0,0.0,0.0,-2.0,-1.0,0.0,-2.0,0.0
1701619134.3700619,-8.0,2.0,4.0,0.0,1.0,-1.0,0.0,-1.0
1701619134.3700619,3.0,6.0,-3.0,-2.0,-2.0,-4.0,-2.0,-1.0
1701619134.3700619,0.0,-3.0,-3.0,0.0,0.0,-2.0,-2.0,-2.0
1701619134.4096625,0.0,-17.0,-6.0,-5.0,-1.0,0.0,-2.0,-2.0
1701619134.4096625,-1.0,-16.0,-3.0,0.0,0.0,-1.0,-2.0,-3.0
1701619134.4196708,-6.0,5.0,-1.0,2.0,2.0,2.0,0.0,-1.0
1701619134.4196708,2.0,-55.0,-9.0,-5.0,-2.0,-3.0,-3.0,-1.0
1701619134.4396648,-10.0,-11.0,6.0,1.0,-1.0,-2.0,1.0,-2.0
1701619134.4396648,3.0,89.0,9.0,-2.0,1.0,0.0,-2.0,-2.0
1701619134.4396648,-5.0,20.0,6.0,2.0,-2.0,-1.0,-1.0,0.0
1701619134.4396648,0.0,-57.0,-16.0,-6.0,-3.0,-3.0,-3.0,-5.0
1701619134.4496975,-1.0,6.0,4.0,2.0,2.0,1.0,-1.0,1.0
1701619134.4496975,0.0,-46.0,-6.0,-4.0,-4.0,-5.0,-5.0,-4.0
1701619134.4496975,8.0,-7.0,3.0,-1.0,-3.0,-3.0,-4.0,-1.0
1701619134.4496975,-3.0,16.0,0.0,-1.0,-1.0,-4.0,-3.0,-1.0
1701619134.4701123,-2.0,11.0,-11.0,-4.0,-4.0,-4.0,-2.0,-2.0
1701619134.4701123,3.0,-48.0,-6.0,-3.0,-5.0,-3.0,-2.0,-2.0
1701619134.4701123,-6.0,11.0,4.0,-1.0,-2.0,-1.0,-1.0,-1.0
1701619134.4701123,-6.0,4.0,4.0,4.0,1.0,-1.0,1.0,2.0
1701619134.4900525,8.0,6.0,-1.0,-1.0,-2.0,-1.0,-1.0,0.0
1701619134.4900525,-16.0,-22.0,3.0,2.0,0.0,-1.0,-3.0,-4.0
1701619134.4900525,0.0,-10.0,-6.0,-1.0,-2.0,-2.0,-2.0,-3.0
1701619134.4900525,-2.0,7.0,2.0,-1.0,-3.0,-1.0,-1.0,-2.0
1701619134.5083497,-5.0,2.0,-1.0,1.0,-2.0,-2.0,-1.0,-2.0
1701619134.5083497,0.0,-5.0,-3.0,0.0,-3.0,-3.0,-3.0,-1.0
1701619134.5233572,0.0,-16.0,-11.0,-4.0,-2.0,-1.0,-3.0,-2.0
1701619134.5233572,-3.0,62.0,6.0,-1.0,0.0,0.0,-1.0,0.0
1701619134.5313752,3.0,-43.0,1.0,0.0,-2.0,-1.0,-2.0,0.0
1701619134.5313752,-1.0,-59.0,-9.0,-2.0,-2.0,-2.0,0.0,-2.0
1701619134.5313752,7.0,42.0,-4.0,-4.0,-1.0,-1.0,0.0,1.0
1701619134.5313752,-1.0,-33.0,-4.0,0.0,-1.0,-2.0,-1.0,-1.0
1701619134.5414672,-3.0,-1.0,-4.0,-1.0,-2.0,-2.0,-2.0,-3.0
1701619134.5414672,3.0,-7.0,-2.0,0.0,1.0,-1.0,-1.0,-1.0
1701619134.5414672,-7.0,-20.0,-15.0,-6.0,-1.0,-1.0,-1.0,-2.0
1701619134.5414672,-1.0,-9.0,-1.0,-3.0,-3.0,0.0,1.0,-1.0
1701619134.561374,0.0,13.0,-3.0,-4.0,-3.0,-1.0,1.0,0.0
1701619134.561374,0.0,8.0,-3.0,-1.0,-2.0,-2.0,-1.0,0.0
1701619134.561374,7.0,85.0,10.0,2.0,-1.0,0.0,0.0,3.0
1701619134.561374,2.0,-24.0,7.0,0.0,0.0,-1.0,-1.0,0.0
1701619134.581756,-8.0,28.0,-7.0,0.0,-1.0,-1.0,-2.0,-2.0
1701619134.581756,5.0,14.0,0.0,-2.0,-2.0,-2.0,-1.0,0.0
1701619134.581756,-1.0,-37.0,0.0,3.0,-1.0,0.0,-1.0,-1.0
1701619134.581756,-3.0,-9.0,5.0,6.0,-2.0,-2.0,-1.0,-1.0
1701619134.5917175,0.0,56.0,11.0,-5.0,1.0,1.0,0.0,1.0
1701619134.5917175,-10.0,-32.0,-7.0,-3.0,-1.0,0.0,-3.0,-3.0
1701619134.611371,0.0,-16.0,1.0,-3.0,-2.0,-3.0,-2.0,-2.0
1701619134.611371,-2.0,-10.0,-2.0,7.0,1.0,0.0,-1.0,-3.0
1701619134.6216102,3.0,15.0,8.0,-2.0,-2.0,-1.0,-1.0,-2.0
1701619134.6216102,-5.0,-31.0,-10.0,-8.0,-4.0,1.0,0.0,-2.0
1701619134.6216102,-4.0,0.0,5.0,-6.0,-5.0,-2.0,-1.0,-3.0
1701619134.6216102,7.0,13.0,16.0,19.0,2.0,-2.0,-1.0,0.0
1701619134.64165,0.0,-38.0,-11.0,6.0,10.0,1.0,-2.0,-1.0
1701619134.64165,-11.0,-2.0,-29.0,-15.0,-2.0,1.0,1.0,3.0
1701619134.64165,0.0,-10.0,-4.0,-7.0,-7.0,-1.0,0.0,-2.0
1701619134.64165,-2.0,-3.0,-4.0,-31.0,-18.0,-8.0,-5.0,-3.0
1701619134.6513758,1.0,-3.0,9.0,-2.0,-4.0,0.0,-1.0,-2.0
1701619134.6513758,1.0,3.0,16.0,44.0,18.0,3.0,1.0,0.0
1701619134.6513758,0.0,45.0,-4.0,10.0,13.0,4.0,0.0,-1.0
1701619134.6513758,-2.0,16.0,-2.0,-8.0,7.0,5.0,1.0,-1.0
1701619134.6813715,-4.0,-9.0,-9.0,0.0,-2.0,-7.0,-4.0,-5.0
1701619134.6813715,1.0,-10.0,0.0,0.0,-8.0,-2.0,0.0,1.0
1701619134.6813715,-5.0,-33.0,39.0,19.0,0.0,-3.0,-4.0,-3.0
1701619134.6813715,-3.0,10.0,-16.0,27.0,21.0,5.0,-2.0,-2.0
1701619134.6813715,-2.0,2.0,-39.0,-77.0,-21.0,-2.0,-2.0,-3.0
1701619134.6813715,3.0,21.0,10.0,3.0,2.0,-4.0,0.0,-1.0
1701619134.7015352,-1.0,-12.0,9.0,8.0,-5.0,-3.0,-2.0,0.0
1701619134.7015352,2.0,7.0,-44.0,-7.0,-12.0,-3.0,-2.0,-1.0
1701619134.7113726,-4.0,-22.0,16.0,13.0,4.0,1.0,-3.0,0.0
1701619134.7113726,3.0,32.0,-20.0,-6.0,-4.0,1.0,-1.0,1.0
1701619134.7113726,-2.0,-6.0,38.0,0.0,0.0,-3.0,0.0,0.0
1701619134.7113726,-3.0,-13.0,-21.0,0.0,0.0,-1.0,-1.0,-2.0
1701619134.731372,1.0,-4.0,-7.0,13.0,3.0,-1.0,0.0,-1.0
1701619134.731372,0.0,1.0,2.0,-20.0,-12.0,-8.0,-5.0,-4.0
1701619134.731372,-3.0,-8.0,-14.0,-7.0,-14.0,-5.0,-3.0,-4.0
1701619134.731372,-1.0,-2.0,12.0,-10.0,-10.0,0.0,0.0,0.0
1701619134.7413967,0.0,0.0,0.0,13.0,14.0,3.0,3.0,1.0
1701619134.7413967,1.0,14.0,21.0,13.0,26.0,11.0,3.0,2.0
1701619134.7515843,1.0,-16.0,-17.0,0.0,12.0,5.0,5.0,2.0
1701619134.7515843,-1.0,-2.0,4.0,-10.0,-11.0,-5.0,-3.0,-3.0
1701619134.7713761,0.0,0.0,8.0,-1.0,-17.0,-6.0,-3.0,-3.0
1701619134.7713761,-3.0,0.0,1.0,-8.0,-13.0,-9.0,-5.0,-4.0
1701619134.7713761,-4.0,-12.0,-24.0,-10.0,-4.0,-1.0,-3.0,-2.0
1701619134.7713761,0.0,-3.0,7.0,-7.0,-2.0,-2.0,-2.0,-2.0
1701619134.8013716,2.0,4.0,8.0,10.0,-1.0,-5.0,-4.0,1.0
1701619134.8013716,-3.0,5.0,0.0,-3.0,2.0,1.0,3.0,-1.0
1701619134.8013716,1.0,-5.0,-13.0,-3.0,0.0,1.0,2.0,2.0
1701619134.8013716,-3.0,4.0,14.0,2.0,1.0,-1.0,5.0,2.0
1701619134.8013716,0.0,-2.0,2.0,9.0,6.0,5.0,-2.0,-1.0
1701619134.8013716,-1.0,4.0,-3.0,-5.0,-7.0,-1.0,-3.0,-2.0
1701619134.8116755,-3.0,-5.0,-7.0,-7.0,-3.0,-3.0,-3.0,0.0
1701619134.8116755,0.0,1.0,3.0,0.0,2.0,0.0,0.0,0.0
1701619134.8313727,-1.0,-1.0,-4.0,2.0,-2.0,-1.0,1.0,0.0
1701619134.8313727,0.0,-1.0,0.0,-5.0,-4.0,-2.0,-1.0,-2.0
1701619134.8313727,-4.0,-1.0,-4.0,-1.0,-1.0,-1.0,-2.0,-2.0
1701619134.8313727,0.0,-1.0,1.0,-2.0,1.0,-3.0,-1.0,-1.0
1701619134.851442,-1.0,-2.0,-1.0,4.0,-1.0,-1.0,-1.0,-2.0
1701619134.851442,-1.0,2.0,2.0,0.0,-2.0,-1.0,-1.0,-1.0
1701619134.851442,0.0,-4.0,-6.0,-3.0,1.0,-2.0,-2.0,-2.0
1701619134.851442,-2.0,-1.0,2.0,-1.0,0.0,-3.0,-3.0,-1.0
1701619134.8615322,-1.0,-2.0,2.0,0.0,-1.0,-1.0,-3.0,-1.0
1701619134.8615322,1.0,-1.0,1.0,-1.0,-2.0,-3.0,-3.0,-1.0
1701619134.8715928,1.0,-7.0,-5.0,-3.0,-1.0,0.0,0.0,-2.0
1701619134.8715928,0.0,-1.0,0.0,-2.0,0.0,-1.0,-1.0,-1.0
1701619134.9013727,0.0,0.0,1.0,1.0,0.0,-1.0,-1.0,-1.0
1701619134.9013727,0.0,0.0,-2.0,-1.0,-2.0,0.0,-1.0,-2.0
1701619134.9013727,-1.0,-3.0,-4.0,-2.0,1.0,-1.0,-3.0,-2.0
1701619134.9013727,0.0,-1.0,2.0,-1.0,-1.0,-3.0,-2.0,-2.0
1701619134.9114056,-1.0,0.0,0.0,2.0,-4.0,-3.0,-2.0,0.0
1701619134.9114056,0.0,1.0,-2.0,-4.0,-4.0,-1.0,-1.0,-2.0
1701619134.9114056,-1.0,-1.0,-1.0,0.0,1.0,0.0,-2.0,-1.0
1701619134.9114056,0.0,-2.0,1.0,1.0,4.0,2.0,-2.0,0.0
1701619134.9217305,0.0,-2.0,0.0,1.0,2.0,-1.0,1.0,0.0
1701619134.9217305,0.0,-1.0,0.0,-3.0,-3.0,-1.0,0.0,-1.0
1701619134.9317048,-1.0,-1.0,-3.0,-2.0,-3.0,-1.0,-3.0,-1.0
1701619134.9317048,-1.0,0.0,0.0,-2.0,-2.0,-2.0,-2.0,1.0
1701619134.9513736,0.0,-1.0,0.0,-1.0,-2.0,0.0,-2.0,-2.0
1701619134.9513736,-1.0,-1.0,-2.0,1.0,-1.0,-1.0,0.0,1.0
1701619134.9513736,-2.0,1.0,-2.0,-1.0,-1.0,-2.0,-2.0,-2.0
1701619134.9513736,-1.0,-1.0,0.0,-2.0,-1.0,0.0,-2.0,-2.0
1701619134.9716678,-2.0,0.0,0.0,-1.0,-1.0,-1.0,0.0,-1.0
1701619134.9716678,-1.0,-1.0,2.0,-2.0,1.0,0.0,0.0,-2.0
1701619134.9716678,-1.0,-1.0,-3.0,-4.0,-3.0,-2.0,-1.0,0.0
1701619134.9716678,-1.0,0.0,-1.0,-1.0,-2.0,-1.0,-1.0,-1.0
1701619134.9816039,-1.0,-1.0,0.0,-2.0,-2.0,-1.0,1.0,-1.0
1701619134.9816039,0.0,-1.0,0.0,0.0,-1.0,-3.0,-3.0,-3.0
1701619135.001371,-3.0,-1.0,-1.0,-3.0,-1.0,0.0,0.0,-1.0
1701619135.001371,0.0,-1.0,1.0,6.0,3.0,0.0,0.0,-1.0
1701619135.0117435,1.0,-1.0,0.0,-1.0,0.0,-1.0,-2.0,-1.0
1701619135.0117435,0.0,1.0,-1.0,0.0,-2.0,-2.0,-1.0,-1.0
1701619135.0117435,-2.0,-1.0,-1.0,-2.0,-3.0,-2.0,-2.0,0.0
1701619135.021386,1.0,0.0,-2.0,-3.0,-2.0,-1.0,-1.0,-1.0
1701619135.0335457,-1.0,-2.0,-3.0,1.0,1.0,0.0,-2.0,-2.0
1701619135.0335457,-2.0,-1.0,0.0,0.0,-1.0,-2.0,-1.0,-1.0
1701619135.0403523,0.0,2.0,2.0,3.0,0.0,-1.0,-1.0,-3.0
1701619135.0403523,-1.0,-1.0,-1.0,-2.0,0.0,0.0,-1.0,-2.0
1701619135.0622423,0.0,-3.0,-3.0,-7.0,-7.0,-2.0,-1.0,-2.0
1701619135.0622423,-2.0,-2.0,-3.0,-4.0,-8.0,-5.0,-3.0,-3.0
1701619135.0622423,2.0,0.0,-1.0,8.0,-4.0,-3.0,1.0,-1.0
1701619135.0622423,-2.0,-2.0,1.0,7.0,9.0,6.0,0.0,-1.0
1701619135.0655365,1.0,2.0,-3.0,-20.0,-10.0,-2.0,-1.0,-1.0
1701619135.0655365,-4.0,-3.0,0.0,-2.0,13.0,3.0,-2.0,-4.0
1701619135.0759785,2.0,1.0,5.0,4.0,-1.0,3.0,2.0,3.0
1701619135.0759785,-2.0,-2.0,-4.0,-4.0,-10.0,-18.0,-7.0,-4.0
1701619135.086385,-4.0,-3.0,-1.0,24.0,-16.0,-1.0,-3.0,-3.0
1701619135.086385,3.0,9.0,7.0,-24.0,7.0,7.0,6.0,3.0
1701619135.096339,1.0,0.0,-1.0,32.0,45.0,16.0,4.0,2.0
1701619135.096339,1.0,3.0,-2.0,-23.0,-31.0,-12.0,-3.0,0.0
1701619135.1159914,-3.0,-4.0,-2.0,-37.0,-66.0,-20.0,-10.0,-4.0
1701619135.1159914,-1.0,2.0,5.0,10.0,3.0,-5.0,-3.0,-3.0
1701619135.1159914,3.0,3.0,9.0,41.0,67.0,18.0,6.0,1.0
1701619135.1159914,-3.0,-3.0,0.0,15.0,25.0,7.0,-1.0,-1.0
1701619135.1259875,1.0,2.0,-1.0,2.0,0.0,-1.0,2.0,1.0
1701619135.1259875,-1.0,0.0,1.0,-5.0,3.0,3.0,-2.0,0.0
1701619135.136263,1.0,-7.0,-9.0,-20.0,-16.0,5.0,2.0,0.0
1701619135.136263,1.0,0.0,0.0,8.0,16.0,6.0,1.0,0.0
1701619135.1462893,-1.0,-3.0,-1.0,3.0,-12.0,-12.0,-4.0,-3.0
1701619135.1462893,-3.0,-10.0,-8.0,-7.0,-21.0,-17.0,-7.0,-3.0
1701619135.1561491,-2.0,-1.0,-3.0,-16.0,-25.0,-12.0,-4.0,-3.0
1701619135.1561491,0.0,-2.0,-1.0,-18.0,-26.0,-3.0,-1.0,-1.0
1701619135.176341,-1.0,-3.0,-3.0,-7.0,12.0,4.0,1.0,0.0
1701619135.176341,1.0,0.0,-6.0,8.0,6.0,-1.0,-1.0,-1.0
1701619135.176341,-2.0,-4.0,-3.0,-22.0,-46.0,-13.0,-6.0,-4.0
1701619135.176341,-1.0,-2.0,0.0,-7.0,-20.0,-1.0,4.0,1.0
1701619135.1862833,2.0,4.0,3.0,29.0,62.0,19.0,8.0,2.0
1701619135.1862833,-1.0,-2.0,0.0,18.0,12.0,1.0,0.0,-1.0
1701619135.1962914,-2.0,-2.0,-3.0,-20.0,-5.0,-13.0,-11.0,-6.0
1701619135.1962914,0.0,-2.0,-6.0,-1.0,-8.0,3.0,-1.0,-2.0
1701619135.2159898,0.0,0.0,2.0,2.0,13.0,14.0,7.0,3.0
1701619135.2159898,0.0,-1.0,-1.0,9.0,19.0,2.0,3.0,1.0
1701619135.2259877,-3.0,-5.0,0.0,0.0,-3.0,2.0,1.0,-2.0
1701619135.2259877,2.0,3.0,3.0,3.0,19.0,9.0,3.0,1.0
1701619135.236385,-1.0,0.0,0.0,8.0,13.0,-2.0,-5.0,-2.0
1701619135.236385,-2.0,-2.0,-5.0,-16.0,-32.0,-3.0,-3.0,-2.0
1701619135.236385,-2.0,3.0,-2.0,-16.0,-30.0,-19.0,-9.0,-4.0
1701619135.236385,-1.0,0.0,-1.0,4.0,-3.0,-2.0,-2.0,-1.0
1701619135.2464046,-2.0,-2.0,-3.0,-8.0,-7.0,1.0,-1.0,-2.0
1701619135.2464046,0.0,1.0,0.0,-12.0,-16.0,0.0,-1.0,0.0
1701619135.2563782,-3.0,2.0,-1.0,15.0,15.0,0.0,4.0,1.0
1701619135.2563782,-2.0,0.0,3.0,17.0,44.0,9.0,-1.0,-3.0
1701619135.2663946,0.0,1.0,1.0,0.0,1.0,-1.0,0.0,-3.0
1701619135.2663946,-1.0,4.0,-1.0,2.0,-10.0,-1.0,-1.0,-1.0
1701619135.2859886,-6.0,-11.0,-14.0,-20.0,-10.0,-1.0,-2.0,-4.0
1701619135.2859886,3.0,9.0,3.0,-4.0,-10.0,-2.0,1.0,3.0
1701619135.2964022,-5.0,-6.0,0.0,-4.0,1.0,-3.0,-3.0,-3.0
1701619135.2964022,-4.0,-10.0,-5.0,-11.0,-24.0,-10.0,-4.0,-2.0
1701619135.2964022,0.0,2.0,-2.0,4.0,3.0,-6.0,-2.0,-1.0
1701619135.2964022,1.0,3.0,1.0,3.0,-6.0,2.0,0.0,-1.0
1701619135.3063982,1.0,0.0,-5.0,-4.0,12.0,1.0,1.0,0.0
1701619135.3063982,2.0,6.0,4.0,10.0,17.0,15.0,4.0,0.0
1701619135.3163874,2.0,1.0,6.0,8.0,20.0,13.0,5.0,4.0
1701619135.3163874,-3.0,-8.0,-5.0,-10.0,-7.0,-10.0,-4.0,-4.0
1701619135.3459897,0.0,6.0,0.0,-5.0,-20.0,-11.0,-4.0,0.0
1701619135.3459897,-1.0,-6.0,-5.0,-5.0,-13.0,-15.0,-5.0,-3.0
1701619135.3459897,-3.0,0.0,-3.0,-5.0,-12.0,2.0,-2.0,-2.0
1701619135.3459897,2.0,3.0,-1.0,-4.0,8.0,7.0,2.0,-1.0
1701619135.3562443,-2.0,-3.0,-4.0,2.0,-7.0,-7.0,-3.0,-2.0
1701619135.3562443,0.0,-1.0,4.0,7.0,16.0,-4.0,-1.0,-1.0
1701619135.3562443,0.0,-11.0,-1.0,4.0,13.0,7.0,2.0,1.0
1701619135.3562443,-2.0,-10.0,-3.0,-3.0,-13.0,-2.0,-2.0,-2.0
1701619135.3662944,-2.0,-4.0,-3.0,-12.0,-21.0,-10.0,-5.0,-3.0
1701619135.3662944,1.0,-5.0,2.0,2.0,-3.0,5.0,-2.0,1.0
1701619135.3762689,2.0,-12.0,1.0,3.0,23.0,12.0,6.0,2.0
1701619135.3762689,-2.0,0.0,1.0,7.0,3.0,-6.0,-5.0,-3.0
1701619135.38627,1.0,3.0,4.0,3.0,16.0,3.0,0.0,0.0
1701619135.38627,-2.0,4.0,-1.0,-12.0,-30.0,-16.0,-5.0,-3.0
1701619135.4159923,-1.0,-4.0,0.0,-16.0,-32.0,-9.0,-4.0,-2.0
1701619135.4159923,4.0,12.0,4.0,6.0,2.0,-12.0,-5.0,0.0
1701619135.4159923,-10.0,-20.0,-15.0,-6.0,-7.0,-13.0,-9.0,-6.0
1701619135.4159923,-4.0,-8.0,5.0,4.0,17.0,18.0,2.0,2.0
1701619135.4159923,4.0,11.0,10.0,19.0,39.0,12.0,-1.0,-4.0
1701619135.4159923,-1.0,-1.0,-3.0,6.0,22.0,1.0,-2.0,-4.0
1701619135.4260137,3.0,-7.0,1.0,-4.0,-21.0,-7.0,1.0,-1.0
1701619135.4260137,0.0,-4.0,-8.0,-13.0,-22.0,-4.0,-4.0,-2.0
1701619135.4363847,-1.0,-6.0,-9.0,-36.0,-84.0,-32.0,-6.0,1.0
1701619135.4363847,0.0,-6.0,7.0,21.0,54.0,10.0,3.0,4.0
1701619135.4459918,6.0,1.0,5.0,29.0,55.0,19.0,11.0,11.0
1701619135.4459918,1.0,-9.0,-12.0,-2.0,-5.0,-7.0,2.0,4.0
1701619135.4560153,4.0,4.0,2.0,-7.0,-14.0,-11.0,-1.0,3.0
1701619135.4560153,-7.0,-19.0,-15.0,-38.0,-77.0,-30.0,-9.0,-4.0
1701619135.4759905,3.0,8.0,4.0,-8.0,1.0,7.0,4.0,0.0
1701619135.4759905,-3.0,9.0,6.0,13.0,30.0,12.0,3.0,0.0
1701619135.4759905,1.0,28.0,-2.0,10.0,12.0,1.0,-3.0,-4.0
1701619135.4759905,1.0,24.0,7.0,1.0,-6.0,2.0,0.0,-2.0
1701619135.4862885,-7.0,-16.0,-2.0,0.0,-4.0,3.0,-2.0,-3.0
1701619135.4862885,1.0,3.0,-1.0,-3.0,-1.0,4.0,0.0,-3.0
1701619135.4963133,-2.0,10.0,-5.0,0.0,0.0,-1.0,-7.0,-4.0
1701619135.4963133,-5.0,-11.0,-2.0,0.0,-7.0,1.0,-3.0,-2.0
1701619135.515989,-2.0,-2.0,-5.0,-5.0,9.0,10.0,-1.0,-3.0
1701619135.515989,10.0,30.0,7.0,16.0,21.0,12.0,7.0,3.0
1701619135.515989,-8.0,-18.0,4.0,2.0,3.0,-2.0,-2.0,-4.0
1701619135.515989,-4.0,-3.0,-5.0,-7.0,-9.0,1.0,-1.0,-2.0
1701619135.5364382,1.0,22.0,8.0,-4.0,-23.0,-14.0,-8.0,-5.0
1701619135.5364382,-6.0,-12.0,0.0,-2.0,-6.0,-6.0,-3.0,-3.0
1701619135.5364382,-1.0,2.0,0.0,4.0,11.0,7.0,0.0,0.0
1701619135.5364382,-4.0,0.0,4.0,2.0,6.0,2.0,-1.0,-2.0
1701619135.5464144,3.0,6.0,4.0,1.0,-10.0,-3.0,-1.0,0.0
1701619135.5464144,2.0,3.0,1.0,3.0,1.0,-5.0,-3.0,0.0
1701619135.5563598,-6.0,-21.0,1.0,3.0,10.0,6.0,4.0,0.0
1701619135.5563598,-2.0,-7.0,-1.0,-3.0,-3.0,0.0,1.0,2.0
1701619135.5820067,2.0,3.0,0.0,3.0,4.0,0.0,0.0,1.0
1701619135.5820067,-2.0,-21.0,-1.0,-4.0,-7.0,-3.0,1.0,-1.0
1701619135.5830061,-1.0,-3.0,-4.0,-4.0,-5.0,-5.0,-2.0,-1.0
1701619135.5830061,3.0,7.0,0.0,1.0,3.0,0.0,0.0,-1.0
1701619135.5968122,-4.0,-11.0,-4.0,-5.0,-1.0,-2.0,-2.0,-3.0
1701619135.5968122,-4.0,-6.0,-5.0,-6.0,-3.0,-3.0,-2.0,-4.0
1701619135.5968122,1.0,6.0,0.0,3.0,4.0,0.0,0.0,-1.0
1701619135.5968122,-7.0,-17.0,-4.0,-4.0,-5.0,-2.0,-1.0,-1.0
1701619135.607114,-2.0,-2.0,0.0,0.0,-4.0,-1.0,-2.0,-1.0
1701619135.607114,-3.0,0.0,-5.0,-1.0,3.0,0.0,-2.0,-2.0
1701619135.6168125,-1.0,-1.0,0.0,2.0,1.0,-3.0,-2.0,-2.0
1701619135.6168125,0.0,-1.0,0.0,-2.0,-3.0,-3.0,-2.0,0.0
1701619135.6468043,-3.0,-5.0,-8.0,-6.0,-4.0,0.0,1.0,-2.0
1701619135.6468043,0.0,-1.0,-3.0,-1.0,1.0,-4.0,-3.0,-2.0
1701619135.6468043,2.0,6.0,4.0,-1.0,-4.0,-4.0,0.0,1.0
1701619135.6468043,-3.0,-7.0,-5.0,-3.0,-3.0,3.0,2.0,0.0
1701619135.6568675,1.0,11.0,6.0,5.0,10.0,3.0,-2.0,1.0
1701619135.6568675,-2.0,1.0,3.0,4.0,6.0,2.0,1.0,0.0
1701619135.6568675,-1.0,-2.0,1.0,-2.0,-7.0,-5.0,-3.0,-1.0
1701619135.6568675,0.0,3.0,0.0,-1.0,-2.0,-2.0,2.0,-2.0
1701619135.676806,1.0,3.0,-2.0,0.0,-1.0,3.0,0.0,-1.0
1701619135.676806,-5.0,-6.0,0.0,0.0,3.0,3.0,2.0,0.0
1701619135.676806,-1.0,1.0,-2.0,0.0,-4.0,-2.0,1.0,-1.0
1701619135.676806,2.0,9.0,2.0,7.0,6.0,-4.0,-4.0,-2.0
1701619135.6870735,-7.0,-30.0,-11.0,-2.0,1.0,0.0,0.0,0.0
1701619135.6870735,3.0,6.0,4.0,-1.0,-4.0,-1.0,0.0,-3.0
1701619135.6970565,-3.0,-6.0,-1.0,-6.0,-6.0,-2.0,-2.0,-2.0
1701619135.6970565,2.0,-4.0,3.0,-1.0,-5.0,0.0,-1.0,-2.0
1701619135.7168734,-2.0,-3.0,-6.0,-1.0,-5.0,-2.0,-3.0,-1.0
1701619135.7168734,3.0,15.0,5.0,4.0,5.0,-1.0,-2.0,1.0
1701619135.7168734,-7.0,-37.0,-17.0,-1.0,-4.0,-1.0,2.0,0.0
1701619135.7168734,-1.0,13.0,3.0,0.0,-8.0,-5.0,-3.0,-2.0
1701619135.7468112,2.0,32.0,11.0,-7.0,3.0,-2.0,0.0,-1.0
1701619135.7468112,-15.0,-51.0,-32.0,-11.0,-1.0,-1.0,-2.0,-2.0
1701619135.7468112,-13.0,-1.0,-34.0,-35.0,-14.0,-2.0,0.0,-4.0
1701619135.7468112,-12.0,4.0,-27.0,-28.0,-8.0,-1.0,-1.0,-5.0
1701619135.7468112,2.0,66.0,12.0,16.0,-2.0,6.0,4.0,1.0
1701619135.7468112,8.0,108.0,22.0,19.0,16.0,8.0,5.0,4.0
1701619135.7568314,1.0,127.0,23.0,12.0,4.0,-5.0,-6.0,-5.0
1701619135.7568314,1.0,111.0,-5.0,-8.0,6.0,7.0,2.0,1.0
1701619135.7769384,-1.0,-17.0,-2.0,-6.0,3.0,0.0,0.0,-2.0
1701619135.7769384,1.0,32.0,6.0,-2.0,-12.0,-6.0,-6.0,-4.0
1701619135.7769384,1.0,97.0,5.0,27.0,1.0,2.0,-1.0,-1.0
1701619135.7769384,3.0,44.0,16.0,15.0,6.0,-1.0,-4.0,-1.0
1701619135.7968054,2.0,-49.0,-1.0,-25.0,-12.0,-8.0,-5.0,-1.0
1701619135.7968054,-1.0,-119.0,-9.0,-9.0,-7.0,-5.0,-3.0,-2.0
1701619135.7968054,4.0,-128.0,-3.0,-2.0,3.0,2.0,4.0,1.0
1701619135.7968054,-4.0,-128.0,-16.0,-2.0,-5.0,-3.0,-2.0,2.0
1701619135.8070807,1.0,-104.0,9.0,7.0,0.0,-4.0,-4.0,-2.0
1701619135.8070807,-2.0,-127.0,0.0,-2.0,-2.0,-3.0,0.0,-1.0
1701619135.8168151,2.0,-60.0,5.0,0.0,5.0,0.0,-3.0,1.0
1701619135.8168151,1.0,21.0,6.0,4.0,-2.0,-3.0,-2.0,-2.0
1701619135.8368695,0.0,86.0,-9.0,1.0,1.0,-3.0,0.0,0.0
1701619135.8368695,4.0,104.0,6.0,1.0,-2.0,-2.0,0.0,-2.0
1701619135.8368695,5.0,-19.0,5.0,5.0,3.0,2.0,1.0,1.0
1701619135.8368695,1.0,-75.0,1.0,0.0,3.0,1.0,1.0,0.0
1701619135.8468156,-2.0,-10.0,-9.0,-3.0,-3.0,-3.0,1.0,-2.0
1701619135.8468156,-6.0,53.0,-3.0,-1.0,-5.0,-4.0,-4.0,-4.0
1701619135.866806,3.0,-12.0,10.0,1.0,3.0,0.0,0.0,0.0
1701619135.866806,0.0,-77.0,-8.0,-8.0,0.0,2.0,4.0,-1.0
1701619135.866806,-3.0,-61.0,-1.0,0.0,0.0,-1.0,-3.0,-2.0
1701619135.866806,-1.0,-67.0,-3.0,-2.0,-3.0,-2.0,-1.0,-3.0
1701619135.876835,1.0,-19.0,-4.0,-5.0,0.0,-2.0,-2.0,-1.0
1701619135.876835,-3.0,30.0,2.0,7.0,1.0,-1.0,0.0,-1.0
1701619135.9068081,0.0,19.0,0.0,9.0,0.0,0.0,0.0,0.0
1701619135.9068081,-2.0,16.0,-5.0,-4.0,-1.0,1.0,-1.0,3.0
1701619135.9068081,-3.0,31.0,-4.0,-3.0,0.0,1.0,-2.0,-9.0
1701619135.9068081,0.0,44.0,2.0,-1.0,-1.0,0.0,-1.0,-2.0
1701619135.9068081,-3.0,54.0,-6.0,-2.0,1.0,0.0,-1.0,-2.0
1701619135.9068081,-1.0,15.0,-3.0,-2.0,-1.0,-1.0,-1.0,-2.0
1701619135.9171593,0.0,25.0,1.0,4.0,4.0,3.0,1.0,1.0
1701619135.9171593,-2.0,15.0,-1.0,1.0,-2.0,-2.0,2.0,-1.0
1701619135.9372487,-3.0,3.0,1.0,0.0,-1.0,-1.0,-8.0,-4.0
1701619135.9372487,1.0,9.0,3.0,-1.0,-2.0,-1.0,-3.0,-2.0
1701619135.9372487,-2.0,5.0,3.0,-1.0,0.0,-2.0,-7.0,0.0
1701619135.9372487,1.0,-1.0,0.0,0.0,0.0,2.0,5.0,-1.0
1701619135.9568057,-3.0,12.0,-1.0,-2.0,-2.0,-2.0,0.0,-1.0
1701619135.9568057,2.0,17.0,0.0,-1.0,-1.0,0.0,1.0,-2.0
1701619135.9568057,-3.0,7.0,-3.0,-3.0,-3.0,-1.0,-3.0,0.0
1701619135.9568057,-3.0,3.0,-7.0,-5.0,-2.0,-2.0,-3.0,-2.0
1701619135.9668417,-2.0,1.0,-3.0,0.0,-3.0,-6.0,-1.0,-2.0
1701619135.9668417,0.0,-3.0,-1.0,-3.0,-2.0,-1.0,-1.0,0.0
1701619135.9768076,-2.0,-5.0,-4.0,-3.0,-3.0,-3.0,0.0,-2.0
1701619135.9768076,1.0,5.0,3.0,0.0,0.0,0.0,-2.0,1.0
1701619135.9871109,-1.0,5.0,0.0,-1.0,0.0,-1.0,0.0,0.0
1701619135.9871109,-2.0,-2.0,-4.0,-4.0,-2.0,0.0,-3.0,-1.0
1701619135.9971032,-1.0,1.0,-1.0,-2.0,-3.0,-2.0,0.0,0.0
1701619135.9971032,-1.0,1.0,0.0,0.0,-1.0,-1.0,0.0,-1.0
1701619136.016808,-1.0,-4.0,-3.0,-1.0,-1.0,1.0,-4.0,0.0
1701619136.016808,-2.0,2.0,1.0,1.0,0.0,-3.0,5.0,0.0
1701619136.027002,-3.0,-7.0,-7.0,-5.0,-3.0,0.0,4.0,-2.0
1701619136.027002,1.0,4.0,0.0,-2.0,1.0,-6.0,-19.0,0.0
1701619136.0371995,-1.0,6.0,3.0,1.0,3.0,6.0,5.0,1.0
1701619136.0371995,-1.0,8.0,1.0,-2.0,-1.0,0.0,10.0,1.0
1701619136.0371995,5.0,18.0,0.0,-1.0,1.0,4.0,20.0,-2.0
1701619136.0371995,-7.0,15.0,12.0,9.0,5.0,12.0,2.0,-6.0
1701619136.0471966,9.0,2.0,6.0,5.0,2.0,-2.0,-5.0,13.0
1701619136.0471966,-4.0,-8.0,-1.0,-3.0,-4.0,0.0,3.0,-10.0
1701619136.0668066,2.0,-17.0,1.0,0.0,-1.0,-7.0,-28.0,1.0
1701619136.0668066,2.0,4.0,1.0,-1.0,-2.0,1.0,16.0,-1.0
1701619136.0768094,-13.0,-12.0,-15.0,-12.0,-11.0,-10.0,-1.0,-3.0
1701619136.0768094,-2.0,-1.0,0.0,1.0,2.0,4.0,-16.0,-4.0
1701619136.0768094,1.0,-12.0,1.0,-2.0,0.0,1.0,-8.0,5.0
1701619136.0768094,-1.0,-8.0,-4.0,-3.0,-6.0,-9.0,-6.0,-1.0
1701619136.099337,-3.0,10.0,-5.0,-6.0,-6.0,-6.0,-5.0,-6.0
1701619136.100359,-1.0,-14.0,1.0,0.0,1.0,-2.0,2.0,1.0
1701619136.1013534,-7.0,0.0,-22.0,-12.0,-7.0,-3.0,0.0,-3.0
1701619136.1013534,-9.0,-50.0,-7.0,-4.0,1.0,-1.0,-6.0,0.0
1701619136.1132233,4.0,-1.0,2.0,1.0,0.0,3.0,4.0,-1.0
1701619136.1132233,2.0,2.0,-1.0,-1.0,0.0,-3.0,7.0,0.0
1701619136.1332242,-2.0,3.0,9.0,3.0,0.0,0.0,2.0,-2.0
1701619136.1332242,2.0,-9.0,0.0,-1.0,-2.0,-2.0,-4.0,0.0
1701619136.1432192,-1.0,-1.0,5.0,0.0,3.0,0.0,7.0,-2.0
1701619136.1432192,0.0,2.0,1.0,0.0,-1.0,-3.0,-9.0,0.0
1701619136.1432192,-2.0,-1.0,3.0,0.0,1.0,-4.0,-4.0,-1.0
1701619136.1432192,4.0,11.0,-2.0,-1.0,-3.0,-4.0,2.0,0.0
1701619136.1535769,-7.0,-11.0,5.0,6.0,2.0,2.0,-2.0,-1.0
1701619136.1535769,-1.0,-5.0,-10.0,-6.0,-4.0,-3.0,-6.0,-1.0
1701619136.1535769,0.0,-10.0,-1.0,1.0,1.0,-2.0,3.0,-2.0
1701619136.1535769,1.0,-14.0,0.0,0.0,1.0,-2.0,3.0,1.0
1701619136.1733506,3.0,-24.0,-3.0,0.0,0.0,1.0,-2.0,-1.0
1701619136.1733506,1.0,-47.0,-2.0,-1.0,-3.0,-2.0,-2.0,1.0
1701619136.1832194,-1.0,-13.0,-2.0,-2.0,-2.0,-2.0,2.0,-2.0
1701619136.1832194,-4.0,-12.0,-8.0,-4.0,-3.0,0.0,-3.0,-1.0
1701619136.193532,0.0,7.0,0.0,-1.0,-2.0,1.0,-2.0,0.0
1701619136.193532,0.0,47.0,1.0,-1.0,-1.0,-2.0,1.0,0.0
1701619136.193532,-1.0,35.0,-2.0,-1.0,-1.0,0.0,-3.0,-1.0
1701619136.2032669,3.0,35.0,0.0,-1.0,-3.0,-1.0,-1.0,-1.0
1701619136.2132225,2.0,14.0,1.0,-1.0,1.0,1.0,0.0,-1.0
1701619136.2132225,-3.0,17.0,1.0,0.0,-2.0,1.0,0.0,-1.0
1701619136.2132225,-3.0,-3.0,-1.0,-4.0,-3.0,0.0,-1.0,-4.0
1701619136.2132225,-1.0,2.0,1.0,1.0,1.0,-1.0,-2.0,-1.0
1701619136.233275,-2.0,3.0,-2.0,-2.0,0.0,-1.0,1.0,-3.0
1701619136.233275,-2.0,3.0,-4.0,-1.0,-2.0,-1.0,-2.0,-1.0
1701619136.26322,-3.0,10.0,-2.0,1.0,0.0,0.0,-1.0,-1.0
1701619136.26322,-1.0,5.0,1.0,1.0,0.0,0.0,0.0,-1.0
1701619136.26322,0.0,7.0,-3.0,-3.0,-3.0,-2.0,-2.0,-1.0
1701619136.26322,-1.0,6.0,-2.0,-1.0,-1.0,-1.0,-1.0,-1.0
1701619136.26322,-4.0,-6.0,3.0,2.0,2.0,2.0,3.0,-1.0
1701619136.26322,2.0,2.0,-1.0,-1.0,0.0,-2.0,0.0,1.0
1701619136.273458,-5.0,-19.0,1.0,0.0,1.0,2.0,1.0,1.0
1701619136.273458,-1.0,-7.0,4.0,1.0,0.0,0.0,-2.0,0.0
1701619136.273458,-7.0,-8.0,-1.0,-2.0,-2.0,3.0,1.0,1.0
1701619136.273458,1.0,-11.0,-6.0,-7.0,-3.0,-2.0,-4.0,-2.0
1701619136.2934783,-1.0,-39.0,-7.0,-1.0,-1.0,-3.0,-4.0,-2.0
1701619136.2934783,-5.0,-27.0,5.0,2.0,0.0,0.0,0.0,-1.0
1701619136.2934783,4.0,25.0,5.0,1.0,0.0,-1.0,-1.0,-2.0
1701619136.2934783,1.0,15.0,5.0,1.0,-2.0,-2.0,-3.0,-1.0
1701619136.3134809,-2.0,6.0,-13.0,-4.0,0.0,1.0,2.0,0.0
1701619136.3134809,0.0,7.0,-7.0,-4.0,-4.0,-3.0,-2.0,-2.0
1701619136.3234782,0.0,-28.0,-8.0,-2.0,2.0,1.0,2.0,-2.0
1701619136.3234782,5.0,30.0,0.0,-1.0,-1.0,-1.0,2.0,1.0
1701619136.3338447,0.0,10.0,6.0,-1.0,0.0,-2.0,-4.0,-3.0
1701619136.3338447,1.0,2.0,2.0,1.0,1.0,-2.0,-2.0,1.0
1701619136.3338447,-1.0,-23.0,-3.0,0.0,-3.0,-4.0,-2.0,1.0
1701619136.3338447,-1.0,-9.0,1.0,2.0,0.0,3.0,1.0,-1.0
1701619136.3534758,-1.0,11.0,1.0,0.0,-1.0,-2.0,-1.0,-3.0
1701619136.3534758,-1.0,6.0,-2.0,-3.0,-1.0,0.0,-2.0,-2.0
1701619136.3534758,2.0,-23.0,-6.0,-2.0,-2.0,-2.0,-2.0,-2.0
1701619136.3634782,-5.0,-14.0,0.0,-3.0,-1.0,-1.0,-1.0,-2.0
1701619136.3739288,-1.0,-4.0,2.0,0.0,-5.0,-3.0,-1.0,-3.0
1701619136.3739288,-1.0,-2.0,-3.0,-3.0,-3.0,0.0,1.0,1.0
1701619136.3834782,2.0,10.0,3.0,1.0,-3.0,-4.0,-2.0,-1.0
1701619136.3834782,-3.0,-3.0,0.0,2.0,0.0,-1.0,2.0,-1.0
1701619136.393905,0.0,4.0,0.0,0.0,1.0,1.0,2.0,-1.0
1701619136.393905,0.0,5.0,1.0,1.0,-1.0,-4.0,-4.0,-2.0
1701619136.4134755,2.0,13.0,2.0,-1.0,0.0,-1.0,0.0,1.0
1701619136.4134755,0.0,-3.0,-2.0,0.0,0.0,-3.0,-2.0,-1.0
1701619136.4134755,-1.0,14.0,6.0,2.0,-1.0,-3.0,-2.0,1.0
1701619136.4134755,0.0,1.0,-5.0,-3.0,-1.0,0.0,1.0,-1.0
1701619136.4134755,-5.0,-8.0,-1.0,-1.0,-2.0,0.0,-2.0,-2.0
1701619136.4134755,-2.0,-8.0,1.0,-2.0,-2.0,0.0,-2.0,0.0
1701619136.4339247,-1.0,5.0,-2.0,2.0,-1.0,0.0,-3.0,-2.0
1701619136.4339247,2.0,0.0,-5.0,-2.0,-1.0,-1.0,-2.0,-3.0
1701619136.4438746,-5.0,-20.0,-7.0,1.0,0.0,-1.0,-1.0,-2.0
1701619136.4438746,-2.0,-10.0,-5.0,-4.0,-2.0,-1.0,0.0,-1.0
1701619136.4538236,3.0,-21.0,1.0,2.0,0.0,-1.0,-2.0,1.0
1701619136.4538236,1.0,8.0,3.0,0.0,1.0,0.0,0.0,0.0
1701619136.4538236,2.0,14.0,5.0,-1.0,1.0,0.0,0.0,0.0
1701619136.4538236,-2.0,-1.0,4.0,5.0,1.0,-1.0,-2.0,-3.0
1701619136.4634793,-4.0,-18.0,-20.0,-15.0,-9.0,-5.0,-3.0,-3.0
1701619136.4634793,-5.0,-19.0,-3.0,0.0,-1.0,-2.0,-2.0,0.0
1701619136.4735022,-3.0,1.0,5.0,0.0,0.0,-1.0,1.0,0.0
1701619136.4735022,-6.0,-10.0,-11.0,-7.0,-3.0,0.0,-1.0,-3.0
1701619136.4937778,-1.0,0.0,1.0,-2.0,0.0,-1.0,-2.0,-1.0
1701619136.4937778,-1.0,1.0,3.0,1.0,-1.0,0.0,0.0,-1.0
1701619136.4937778,2.0,2.0,-6.0,-4.0,-3.0,-3.0,-1.0,-1.0
1701619136.4937778,2.0,6.0,5.0,0.0,-1.0,0.0,-1.0,1.0
1701619136.51384,-1.0,7.0,1.0,1.0,1.0,1.0,2.0,0.0
1701619136.51384,-4.0,-10.0,-9.0,-6.0,-3.0,-4.0,-3.0,-1.0
1701619136.5234754,1.0,5.0,1.0,1.0,0.0,-1.0,-2.0,1.0
1701619136.5234754,1.0,3.0,2.0,-1.0,-2.0,-1.0,-1.0,0.0
1701619136.5335226,-4.0,0.0,2.0,2.0,-2.0,0.0,1.0,-1.0
1701619136.5335226,-1.0,3.0,2.0,1.0,1.0,0.0,-1.0,0.0
1701619136.5434773,-1.0,12.0,0.0,1.0,-1.0,-2.0,0.0,0.0
1701619136.5434773,-1.0,-1.0,3.0,3.0,-1.0,-2.0,-2.0,-2.0
1701619136.5539293,2.0,3.0,1.0,0.0,1.0,0.0,-3.0,0.0
1701619136.5539293,1.0,-3.0,0.0,-1.0,-2.0,-2.0,-1.0,-1.0
1701619136.5634775,-1.0,-2.0,-4.0,-4.0,-1.0,1.0,-3.0,-1.0
1701619136.5634775,0.0,-8.0,-2.0,2.0,0.0,-1.0,-1.0,-1.0
1701619136.573914,1.0,2.0,1.0,0.0,-2.0,1.0,0.0,-1.0
1701619136.573914,-1.0,-3.0,2.0,0.0,-2.0,-1.0,1.0,0.0
1701619136.573914,-2.0,2.0,1.0,-3.0,-3.0,-3.0,-2.0,0.0
1701619136.573914,-2.0,2.0,1.0,-2.0,-2.0,-3.0,-1.0,0.0
1701619136.5934746,-1.0,-2.0,-2.0,0.0,0.0,-1.0,-1.0,-2.0
1701619136.5934746,0.0,-1.0,-3.0,-4.0,2.0,1.0,0.0,-1.0
1701619136.5934746,-2.0,0.0,2.0,4.0,1.0,0.0,-1.0,-2.0
1701619136.5934746,-1.0,-1.0,2.0,13.0,-1.0,-1.0,-1.0,-1.0
1701619136.6138487,-2.0,1.0,26.0,-5.0,-3.0,-1.0,-1.0,-2.0
1701619136.6138487,4.0,12.0,-10.0,5.0,1.0,0.0,-1.0,0.0
1701619136.623478,-2.0,-10.0,-34.0,-18.0,-3.0,-4.0,-2.0,-2.0
1701619136.623478,-6.0,-10.0,10.0,-6.0,-6.0,-3.0,-4.0,-4.0
1701619136.6396694,0.0,-1.0,-38.0,-6.0,0.0,0.0,0.0,1.0
1701619136.6396694,-1.0,1.0,17.0,1.0,0.0,1.0,1.0,-2.0
1701619136.6416705,-3.0,-2.0,-7.0,-17.0,-4.0,-3.0,-1.0,-1.0
1701619136.6416705,-1.0,-2.0,-1.0,15.0,4.0,1.0,1.0,1.0
1701619136.6467955,0.0,5.0,16.0,14.0,0.0,0.0,-1.0,-1.0
1701619136.6467955,-7.0,-15.0,-41.0,-37.0,0.0,-2.0,-2.0,-2.0
1701619136.6568253,-5.0,-5.0,-5.0,-23.0,-23.0,-9.0,-8.0,-5.0
1701619136.6568253,5.0,7.0,44.0,28.0,6.0,2.0,0.0,0.0
1701619136.6767998,-1.0,1.0,-13.0,-3.0,-5.0,-1.0,-1.0,-1.0
1701619136.6767998,1.0,8.0,-18.0,13.0,5.0,0.0,-1.0,-2.0
1701619136.6868508,-11.0,-27.0,-67.0,-76.0,-12.0,-9.0,-6.0,-6.0
1701619136.6868508,1.0,5.0,4.0,13.0,2.0,0.0,-1.0,1.0
1701619136.6972015,2.0,2.0,11.0,2.0,10.0,4.0,3.0,2.0
1701619136.6972015,1.0,0.0,41.0,40.0,5.0,1.0,1.0,1.0
1701619136.6972015,8.0,10.0,-4.0,13.0,12.0,6.0,3.0,2.0
1701619136.6972015,0.0,2.0,1.0,-15.0,-7.0,-3.0,-1.0,-1.0
1701619136.707194,-4.0,-4.0,-8.0,-11.0,-6.0,-3.0,-3.0,-4.0
1701619136.707194,-2.0,-7.0,-5.0,-23.0,-8.0,-5.0,-1.0,-1.0
1701619136.7171688,-6.0,-7.0,75.0,26.0,-8.0,-7.0,-7.0,-3.0
1701619136.7171688,-2.0,-7.0,-33.0,1.0,-2.0,-2.0,-1.0,-1.0
1701619136.7367983,1.0,3.0,3.0,7.0,3.0,1.0,0.0,0.0
1701619136.7367983,-1.0,-2.0,-40.0,-23.0,0.0,-1.0,1.0,0.0
1701619136.7367983,1.0,6.0,34.0,26.0,6.0,2.0,2.0,1.0
1701619136.7367983,0.0,-1.0,-33.0,-22.0,-1.0,-1.0,0.0,0.0
1701619136.7570932,-2.0,-4.0,24.0,2.0,-7.0,-6.0,-3.0,-3.0
1701619136.7570932,-2.0,-7.0,-19.0,-18.0,-7.0,-1.0,-1.0,0.0
1701619136.7570932,3.0,4.0,-11.0,12.0,2.0,3.0,2.0,2.0
1701619136.7570932,-3.0,-3.0,-21.0,-20.0,-3.0,-2.0,-2.0,-1.0
1701619136.7668307,0.0,4.0,2.0,-1.0,10.0,3.0,0.0,0.0
1701619136.7668307,-3.0,-1.0,53.0,32.0,2.0,-2.0,-3.0,-3.0
1701619136.7868,2.0,2.0,8.0,16.0,5.0,4.0,2.0,0.0
1701619136.7868,-1.0,-2.0,6.0,-7.0,1.0,-2.0,0.0,-3.0
1701619136.7967978,2.0,-1.0,-15.0,-5.0,2.0,-1.0,1.0,1.0
1701619136.7967978,-2.0,-2.0,-5.0,-4.0,-2.0,-1.0,-1.0,-1.0
1701619136.7967978,0.0,2.0,-5.0,7.0,4.0,1.0,0.0,0.0
1701619136.7967978,0.0,1.0,-3.0,-7.0,-3.0,-3.0,1.0,-1.0
1701619136.8172505,-2.0,-4.0,-3.0,-5.0,-8.0,-5.0,-2.0,-2.0
1701619136.8172505,-2.0,-2.0,4.0,-1.0,-7.0,-3.0,-2.0,-4.0
1701619136.8172505,-1.0,3.0,-2.0,3.0,-1.0,-2.0,0.0,-2.0
1701619136.8172505,-1.0,-1.0,3.0,-6.0,3.0,1.0,-1.0,-1.0
1701619136.827187,-3.0,-6.0,-5.0,-2.0,-2.0,-1.0,-3.0,-1.0
1701619136.827187,-1.0,-2.0,0.0,5.0,-2.0,0.0,-2.0,0.0
1701619136.837157,3.0,3.0,-2.0,0.0,4.0,1.0,0.0,1.0
1701619136.837157,-1.0,0.0,-2.0,-4.0,-1.0,-1.0,0.0,-1.0
1701619136.8567996,-2.0,-2.0,-3.0,0.0,-4.0,-3.0,-1.0,-1.0
1701619136.8567996,-1.0,0.0,3.0,-2.0,-1.0,-3.0,-2.0,1.0
1701619136.8567996,1.0,2.0,1.0,3.0,3.0,1.0,1.0,1.0
1701619136.8567996,-7.0,-3.0,0.0,-2.0,-2.0,0.0,1.0,-5.0
1701619136.877214,13.0,-1.0,-3.0,1.0,-2.0,-1.0,-1.0,-2.0
1701619136.877214,-19.0,-3.0,1.0,-1.0,1.0,1.0,-4.0,-16.0
1701619136.877214,-6.0,0.0,1.0,1.0,-1.0,-2.0,0.0,-6.0
1701619136.877214,6.0,-2.0,-1.0,0.0,-2.0,-3.0,-3.0,3.0
1701619136.897127,5.0,1.0,-2.0,-3.0,0.0,-2.0,-1.0,-4.0
1701619136.897127,5.0,-1.0,-1.0,-2.0,-2.0,-2.0,0.0,3.0
1701619136.897127,-2.0,-3.0,-2.0,1.0,0.0,-1.0,-1.0,-1.0
1701619136.897127,-1.0,0.0,-1.0,-1.0,-2.0,1.0,-1.0,-2.0
1701619136.9167979,-6.0,0.0,-3.0,-2.0,-2.0,-1.0,-1.0,2.0
1701619136.9167979,4.0,1.0,0.0,0.0,0.0,-1.0,0.0,2.0
1701619136.9167979,-1.0,0.0,-1.0,1.0,0.0,-1.0,-1.0,-1.0
1701619136.9167979,-1.0,0.0,-2.0,-3.0,0.0,0.0,-1.0,2.0
1701619136.9368234,-3.0,-3.0,-1.0,-2.0,-1.0,-1.0,-2.0,0.0
1701619136.9368234,-2.0,-2.0,1.0,-1.0,-3.0,0.0,0.0,-1.0
1701619136.9368234,2.0,1.0,0.0,1.0,0.0,2.0,1.0,-1.0
1701619136.9368234,-3.0,0.0,-2.0,-1.0,-1.0,-1.0,-2.0,-2.0
1701619136.9569783,-5.0,-2.0,-3.0,1.0,-2.0,-1.0,-1.0,-1.0
1701619136.9569783,2.0,-2.0,0.0,0.0,-1.0,0.0,-1.0,0.0
1701619136.9569783,0.0,-2.0,-2.0,-1.0,0.0,-1.0,0.0,0.0
1701619136.9569783,0.0,-3.0,1.0,-1.0,0.0,-1.0,0.0,-2.0
1701619136.9668,-3.0,0.0,0.0,-1.0,-3.0,-1.0,-1.0,-3.0
1701619136.9768002,2.0,1.0,-1.0,-1.0,0.0,-2.0,-2.0,1.0
1701619136.9768002,2.0,-1.0,-1.0,1.0,-1.0,-2.0,-1.0,0.0
1701619136.9768002,-3.0,-1.0,-2.0,-1.0,0.0,-1.0,-2.0,-1.0
1701619136.996797,-1.0,-1.0,-2.0,-1.0,0.0,-1.0,-1.0,-1.0
1701619136.996797,1.0,0.0,-3.0,-1.0,-2.0,-2.0,0.0,0.0
1701619136.996797,-6.0,-3.0,-3.0,0.0,-1.0,0.0,-2.0,1.0
1701619136.996797,4.0,1.0,-2.0,-2.0,-2.0,0.0,-2.0,-2.0
1701619137.017006,-4.0,-1.0,0.0,-1.0,-1.0,-2.0,-1.0,0.0
1701619137.017006,1.0,-1.0,-1.0,-2.0,0.0,0.0,-1.0,0.0
1701619137.017006,-1.0,-2.0,1.0,2.0,-2.0,0.0,0.0,-2.0
1701619137.017006,-2.0,-1.0,0.0,1.0,-2.0,-1.0,0.0,0.0
1701619137.0467978,-1.0,0.0,-1.0,-1.0,-1.0,-1.0,-2.0,-1.0
1701619137.0467978,-3.0,-1.0,0.0,0.0,0.0,-3.0,-1.0,0.0
1701619137.0467978,2.0,-1.0,0.0,-2.0,-1.0,-2.0,0.0,0.0
1701619137.0467978,-1.0,0.0,-2.0,-1.0,-1.0,-2.0,0.0,0.0
1701619137.0570474,-1.0,-1.0,-2.0,0.0,0.0,0.0,0.0,-1.0
1701619137.0570474,0.0,-1.0,1.0,-2.0,-1.0,0.0,0.0,-2.0
1701619137.0570474,1.0,0.0,-2.0,0.0,-3.0,-2.0,-2.0,-2.0
1701619137.0570474,0.0,-1.0,1.0,-2.0,0.0,-2.0,-1.0,-1.0
1701619137.0967975,-3.0,-1.0,-1.0,-1.0,-1.0,0.0,-4.0,-1.0
1701619137.0967975,1.0,0.0,-1.0,-2.0,-2.0,-1.0,-1.0,-1.0
1701619137.0967975,-1.0,0.0,-1.0,0.0,0.0,-2.0,-2.0,1.0
1701619137.0967975,0.0,0.0,-1.0,-2.0,0.0,-1.0,3.0,-1.0
1701619137.0967975,0.0,0.0,-2.0,-1.0,-1.0,-1.0,-1.0,-1.0
1701619137.0967975,-1.0,-1.0,-1.0,0.0,-1.0,-2.0,-1.0,1.0
1701619137.0967975,-2.0,0.0,0.0,-1.0,-1.0,-1.0,-1.0,-1.0
1701619137.0967975,-2.0,-1.0,-2.0,-1.0,-1.0,0.0,-2.0,0.0
1701619137.1167996,-1.0,-1.0,-1.0,-2.0,-2.0,-2.0,0.0,-1.0
1701619137.1167996,-1.0,-1.0,-1.0,-1.0,-1.0,0.0,-1.0,-2.0
1701619137.126798,-1.0,0.0,-1.0,-1.0,-2.0,0.0,-1.0,-2.0
1701619137.126798,-1.0,-1.0,0.0,-2.0,-1.0,-1.0,-2.0,-1.0
1701619137.1371346,0.0,-2.0,-2.0,-2.0,-2.0,-1.0,-1.0,-3.0
1701619137.1371346,0.0,-2.0,-1.0,-1.0,-2.0,-1.0,0.0,-1.0
1701619137.1371346,1.0,-1.0,-1.0,0.0,-1.0,-1.0,-1.0,-1.0
1701619137.1371346,0.0,-1.0,-1.0,-1.0,-1.0,-1.0,-1.0,-1.0
1701619137.1644278,-1.0,-1.0,0.0,-1.0,-2.0,-2.0,-2.0,0.0
1701619137.1644278,-3.0,0.0,-2.0,-2.0,0.0,0.0,-1.0,1.0
1701619137.165867,-1.0,-1.0,0.0,-1.0,0.0,-3.0,0.0,-2.0
1701619137.165867,-2.0,0.0,-1.0,-1.0,-1.0,-1.0,-2.0,-1.0
1701619137.1788292,-1.0,-1.0,0.0,0.0,-1.0,-1.0,-1.0,-2.0
1701619137.1788292,-1.0,-1.0,-1.0,-2.0,-1.0,1.0,-1.0,-1.0
1701619137.188827,0.0,-2.0,-1.0,0.0,-1.0,-1.0,-1.0,0.0
1701619137.188827,-2.0,-1.0,-1.0,-1.0,-1.0,-1.0,-1.0,-2.0
1701619137.199207,-2.0,-1.0,-1.0,-1.0,-1.0,-2.0,0.0,0.0
1701619137.199207,1.0,0.0,0.0,-1.0,-2.0,-4.0,-2.0,-1.0
1701619137.199207,0.0,-3.0,0.0,-2.0,-1.0,0.0,-1.0,-1.0
1701619137.199207,0.0,0.0,-1.0,-1.0,-3.0,-1.0,-2.0,0.0
1701619137.2092197,-1.0,-2.0,-2.0,0.0,0.0,-1.0,-1.0,0.0
1701619137.2092197,-2.0,-1.0,-1.0,0.0,-1.0,0.0,-2.0,0.0
1701619137.219192,-2.0,1.0,1.0,-2.0,-1.0,0.0,-1.0,1.0
1701619137.219192,-1.0,-1.0,-1.0,-1.0,0.0,-2.0,0.0,-1.0
1701619137.239132,-1.0,1.0,-1.0,-1.0,-2.0,0.0,-1.0,0.0
1701619137.239132,-1.0,0.0,-1.0,-1.0,-1.0,-2.0,-2.0,-2.0
1701619137.239132,0.0,1.0,-3.0,-1.0,-3.0,0.0,0.0,-1.0
1701619137.239132,-2.0,1.0,-1.0,-3.0,-1.0,-1.0,-2.0,-1.0
1701619137.268828,-1.0,-1.0,-1.0,0.0,1.0,-1.0,-1.0,0.0
1701619137.268828,0.0,0.0,-1.0,-1.0,-1.0,-1.0,-2.0,-1.0
1701619137.268828,-2.0,-2.0,-2.0,-3.0,-1.0,-3.0,-1.0,0.0
1701619137.268828,1.0,-2.0,-1.0,0.0,0.0,-2.0,0.0,0.0
1701619137.2788692,-2.0,-1.0,-1.0,-2.0,-1.0,-3.0,0.0,-2.0
1701619137.2788692,0.0,-2.0,0.0,-1.0,-1.0,1.0,0.0,-1.0
1701619137.2788692,-2.0,0.0,-2.0,0.0,0.0,0.0,0.0,-2.0
1701619137.2788692,-1.0,-1.0,-1.0,-1.0,-1.0,0.0,-2.0,0.0
1701619137.298832,-1.0,-2.0,-2.0,-3.0,-2.0,-1.0,-1.0,-2.0
1701619137.298832,-1.0,-2.0,0.0,0.0,-1.0,-2.0,-2.0,0.0
1701619137.298832,0.0,-2.0,-2.0,-1.0,-1.0,-2.0,-1.0,-1.0
1701619137.298832,-1.0,-2.0,-2.0,0.0,-2.0,-2.0,0.0,0.0
1701619137.31883,0.0,-1.0,-1.0,-1.0,-1.0,-1.0,-2.0,-1.0
1701619137.31883,0.0,0.0,-2.0,0.0,0.0,-1.0,1.0,1.0
1701619137.31883,-1.0,-2.0,-1.0,-2.0,-1.0,-2.0,-1.0,-2.0
1701619137.31883,-2.0,-2.0,-1.0,-2.0,-1.0,-2.0,-1.0,-1.0
1701619137.339167,0.0,-1.0,1.0,-1.0,-1.0,0.0,-2.0,0.0
1701619137.339167,-1.0,0.0,-2.0,-3.0,-2.0,-1.0,-1.0,-3.0
1701619137.339167,0.0,0.0,-1.0,-2.0,1.0,1.0,-1.0,0.0
1701619137.339167,-1.0,0.0,-2.0,-3.0,1.0,2.0,0.0,1.0
1701619137.358828,-1.0,0.0,-1.0,-2.0,-1.0,0.0,0.0,-2.0
1701619137.358828,-1.0,-3.0,-1.0,0.0,-3.0,-1.0,-3.0,-2.0
1701619137.3692198,-1.0,0.0,0.0,-2.0,-5.0,-4.0,-4.0,-1.0
1701619137.3692198,0.0,0.0,-1.0,-1.0,-2.0,-2.0,-3.0,-3.0
1701619137.3791373,0.0,-1.0,0.0,-3.0,-5.0,-3.0,-2.0,-2.0
1701619137.3791373,-1.0,-2.0,-1.0,-1.0,-5.0,-4.0,0.0,-1.0
1701619137.3791373,0.0,-1.0,-1.0,0.0,1.0,0.0,0.0,-2.0
1701619137.3791373,-2.0,-2.0,2.0,5.0,7.0,3.0,2.0,-1.0
1701619137.3992033,0.0,-2.0,0.0,3.0,10.0,4.0,1.0,0.0
1701619137.3992033,-1.0,-2.0,0.0,-7.0,-4.0,-1.0,-3.0,-3.0
1701619137.4092104,-1.0,-2.0,-4.0,-16.0,-22.0,-14.0,-6.0,-2.0
1701619137.4092104,-1.0,-3.0,-2.0,-8.0,-9.0,1.0,-1.0,-2.0
1701619137.418829,5.0,3.0,6.0,29.0,24.0,20.0,8.0,4.0
1701619137.418829,2.0,0.0,3.0,7.0,31.0,15.0,5.0,2.0
1701619137.4288273,1.0,-1.0,1.0,3.0,5.0,5.0,-1.0,0.0
1701619137.4288273,-2.0,-1.0,-2.0,-11.0,-9.0,-11.0,-4.0,-2.0
1701619137.439057,-3.0,-3.0,-7.0,-14.0,-24.0,-15.0,-8.0,-4.0
1701619137.439057,-2.0,-2.0,-3.0,-6.0,-20.0,-10.0,-3.0,-1.0
1701619137.439057,-2.0,-1.0,-2.0,-2.0,-6.0,-4.0,-1.0,-2.0
1701619137.439057,-1.0,-2.0,-2.0,0.0,-2.0,-1.0,-1.0,0.0
1701619137.4688315,-2.0,1.0,0.0,-4.0,-4.0,-3.0,-1.0,-1.0
1701619137.4688315,-1.0,-1.0,0.0,1.0,0.0,-3.0,-1.0,0.0
1701619137.4688315,-1.0,-4.0,-1.0,2.0,5.0,3.0,0.0,0.0
1701619137.4688315,0.0,-2.0,1.0,5.0,5.0,3.0,0.0,0.0
1701619137.478833,-2.0,-4.0,-3.0,-3.0,2.0,1.0,-1.0,-2.0
1701619137.478833,1.0,0.0,-1.0,-4.0,-4.0,-3.0,-3.0,1.0
1701619137.478833,0.0,-3.0,0.0,2.0,2.0,-1.0,1.0,-2.0
1701619137.478833,1.0,-2.0,-1.0,2.0,2.0,-1.0,0.0,-1.0
1701619137.4991553,-1.0,0.0,-3.0,-5.0,-2.0,-4.0,-2.0,-1.0
1701619137.4991553,-3.0,-1.0,-1.0,1.0,-1.0,-2.0,0.0,-2.0
1701619137.4991553,-2.0,-2.0,-2.0,2.0,3.0,3.0,-1.0,-1.0
1701619137.4991553,-1.0,0.0,0.0,1.0,-2.0,-5.0,-1.0,-1.0
1701619137.5188265,-1.0,-3.0,1.0,-4.0,-5.0,-5.0,-1.0,-1.0
1701619137.5188265,-1.0,-2.0,1.0,0.0,0.0,1.0,1.0,-2.0
1701619137.5188265,0.0,0.0,0.0,0.0,2.0,2.0,0.0,0.0
1701619137.5188265,-1.0,2.0,0.0,-4.0,-8.0,-3.0,0.0,-3.0
1701619137.5388284,-1.0,3.0,-1.0,-2.0,0.0,-18.0,-48.0,-6.0
1701619137.5388284,-1.0,-3.0,-4.0,-2.0,-15.0,10.0,32.0,1.0
1701619137.5388284,8.0,3.0,0.0,3.0,11.0,8.0,16.0,-2.0
1701619137.5388284,-9.0,-2.0,-2.0,3.0,14.0,-11.0,-49.0,-6.0
1701619137.5591943,12.0,17.0,12.0,13.0,7.0,48.0,95.0,29.0
1701619137.5591943,-1.0,1.0,0.0,1.0,9.0,1.0,-9.0,-6.0
1701619137.5591943,1.0,2.0,1.0,-1.0,-12.0,-7.0,-10.0,-4.0
1701619137.5591943,1.0,3.0,0.0,0.0,-2.0,3.0,8.0,-4.0
1701619137.578828,-8.0,-6.0,-4.0,-6.0,-5.0,-19.0,-32.0,-14.0
1701619137.578828,-5.0,-2.0,-6.0,-4.0,0.0,-2.0,-8.0,2.0
1701619137.578828,-4.0,1.0,-2.0,0.0,2.0,4.0,12.0,1.0
1701619137.578828,-3.0,5.0,3.0,-4.0,-8.0,-9.0,-9.0,-5.0
1701619137.598828,-4.0,0.0,1.0,0.0,-9.0,-10.0,-12.0,-4.0
1701619137.598828,-3.0,-1.0,4.0,2.0,0.0,2.0,7.0,-1.0
1701619137.598828,-4.0,7.0,7.0,-1.0,-2.0,-11.0,-19.0,-5.0
1701619137.598828,4.0,-1.0,-3.0,3.0,1.0,12.0,16.0,5.0
1701619137.6191542,0.0,13.0,-6.0,-5.0,1.0,-4.0,4.0,-4.0
1701619137.6191542,0.0,13.0,-3.0,0.0,2.0,-6.0,-6.0,0.0
1701619137.6191542,-3.0,22.0,-1.0,0.0,1.0,-1.0,-8.0,0.0
1701619137.6191542,-4.0,17.0,0.0,0.0,-25.0,-12.0,2.0,-3.0
1701619137.6388276,-1.0,39.0,-5.0,-26.0,4.0,2.0,7.0,-2.0
1701619137.6388276,-1.0,44.0,-5.0,7.0,16.0,6.0,-7.0,0.0
1701619137.6388276,-2.0,59.0,9.0,42.0,21.0,8.0,5.0,1.0
1701619137.6388276,-2.0,38.0,-8.0,-6.0,3.0,4.0,10.0,1.0
1701619137.6588318,-3.0,-32.0,-8.0,-28.0,-10.0,-10.0,-15.0,-7.0
1701619137.6588318,0.0,-84.0,-2.0,0.0,1.0,2.0,-4.0,-1.0
1701619137.6588318,0.0,-97.0,-1.0,1.0,3.0,7.0,4.0,2.0
1701619137.6588318,0.0,30.0,-1.0,9.0,-1.0,-2.0,1.0,-2.0
1701619137.680882,-4.0,6.0,-3.0,10.0,-18.0,-12.0,-8.0,-3.0
1701619137.680882,-3.0,-8.0,-7.0,-28.0,-23.0,-15.0,-6.0,-2.0
1701619137.6818802,-3.0,-79.0,-6.0,-16.0,-21.0,-17.0,-2.0,-2.0
1701619137.6818802,-1.0,-64.0,-1.0,-3.0,-1.0,7.0,2.0,-1.0
1701619137.7041717,2.0,-36.0,5.0,19.0,26.0,10.0,6.0,3.0
1701619137.7041717,2.0,4.0,4.0,4.0,4.0,4.0,2.0,1.0
1701619137.7041717,-2.0,49.0,-10.0,-6.0,-14.0,-10.0,-9.0,-4.0
1701619137.7051759,-2.0,7.0,-9.0,3.0,24.0,10.0,3.0,0.0
1701619137.711376,-1.0,1.0,-2.0,-11.0,-17.0,-4.0,-1.0,-2.0
1701619137.711376,-4.0,16.0,1.0,14.0,-29.0,-17.0,-10.0,-5.0
1701619137.731374,-2.0,-16.0,-4.0,0.0,21.0,7.0,0.0,1.0
1701619137.731374,3.0,-25.0,3.0,-1.0,35.0,21.0,14.0,4.0
1701619137.731374,-2.0,-10.0,0.0,20.0,34.0,11.0,4.0,-1.0
1701619137.731374,0.0,17.0,4.0,-1.0,-6.0,-9.0,-6.0,-2.0
1701619137.741476,-2.0,18.0,-13.0,-26.0,-48.0,-19.0,-8.0,-1.0
1701619137.741476,-2.0,-11.0,-8.0,-19.0,-36.0,-16.0,-9.0,-3.0
1701619137.761385,-2.0,-85.0,-2.0,-3.0,-8.0,-3.0,-3.0,0.0
1701619137.761385,-1.0,-74.0,-3.0,-1.0,-8.0,-4.0,-4.0,-2.0
1701619137.761385,0.0,-51.0,4.0,-7.0,12.0,4.0,1.0,-1.0
1701619137.761385,1.0,-42.0,2.0,16.0,21.0,6.0,2.0,2.0
1701619137.7715366,0.0,62.0,0.0,-1.0,-3.0,-2.0,-2.0,-1.0
1701619137.7715366,-2.0,26.0,-2.0,-4.0,-1.0,-2.0,-2.0,-1.0
1701619137.791441,-1.0,-1.0,0.0,2.0,3.0,5.0,4.0,1.0
1701619137.791441,-2.0,-16.0,-5.0,-9.0,-5.0,-5.0,-3.0,-2.0
1701619137.8113716,-1.0,14.0,3.0,-3.0,-14.0,-7.0,-5.0,-2.0
1701619137.8113716,1.0,47.0,16.0,10.0,11.0,8.0,4.0,0.0
1701619137.8113716,3.0,112.0,-14.0,13.0,22.0,8.0,4.0,3.0
1701619137.8113716,-2.0,0.0,39.0,8.0,-7.0,-6.0,-5.0,-3.0
1701619137.8214757,-1.0,-2.0,-47.0,-11.0,1.0,5.0,1.0,-1.0
1701619137.8214757,0.0,-15.0,29.0,-7.0,0.0,-2.0,-5.0,1.0
1701619137.8214757,-5.0,7.0,44.0,-13.0,-18.0,-9.0,-6.0,-5.0
1701619137.8214757,-6.0,7.0,-94.0,-34.0,-13.0,-9.0,-6.0,-5.0
1701619137.8317358,10.0,7.0,65.0,55.0,37.0,17.0,9.0,5.0
1701619137.8317358,-6.0,-55.0,1.0,-16.0,-3.0,3.0,4.0,-4.0
1701619137.8417342,-12.0,-31.0,80.0,17.0,-22.0,-14.0,-11.0,-9.0
1701619137.8417342,2.0,9.0,11.0,-23.0,-11.0,-2.0,2.0,2.0
1701619137.8617575,-12.0,-24.0,-100.0,-33.0,-21.0,-13.0,-11.0,-8.0
1701619137.8617575,8.0,31.0,-75.0,5.0,25.0,5.0,14.0,15.0
1701619137.8617575,7.0,24.0,-3.0,18.0,12.0,7.0,-7.0,-16.0
1701619137.8617575,1.0,24.0,57.0,34.0,2.0,-2.0,5.0,-4.0
1701619137.8821604,-2.0,23.0,-45.0,-5.0,4.0,3.0,2.0,-2.0
1701619137.8821604,-4.0,18.0,88.0,0.0,-7.0,-3.0,-6.0,1.0
1701619137.8821604,12.0,-11.0,-26.0,-8.0,5.0,10.0,15.0,5.0
1701619137.8821604,-13.0,-47.0,-92.0,-49.0,-15.0,-15.0,-28.0,-3.0
1701619137.89213,1.0,-4.0,6.0,-18.0,-7.0,8.0,22.0,2.0
1701619137.89213,1.0,-6.0,29.0,32.0,-2.0,-9.0,-23.0,-12.0
1701619137.9017804,-8.0,-28.0,-89.0,-37.0,5.0,1.0,4.0,-8.0
1701619137.9017804,7.0,13.0,33.0,24.0,10.0,5.0,-18.0,1.0
1701619137.9117453,-4.0,-2.0,-56.0,-24.0,-11.0,-15.0,4.0,-3.0
1701619137.9117453,-2.0,3.0,9.0,0.0,5.0,22.0,41.0,0.0
1701619137.921771,0.0,-3.0,29.0,17.0,1.0,-4.0,-7.0,5.0
1701619137.921771,-2.0,20.0,-25.0,18.0,0.0,-3.0,11.0,-8.0
1701619137.9420245,4.0,-6.0,71.0,6.0,-3.0,1.0,-21.0,6.0
1701619137.9420245,-4.0,-7.0,-53.0,-11.0,-4.0,-12.0,-14.0,4.0
1701619137.9420245,5.0,-3.0,-18.0,-7.0,4.0,1.0,-7.0,-23.0
1701619137.9420245,-4.0,6.0,4.0,9.0,0.0,2.0,4.0,4.0
1701619137.9520276,-5.0,18.0,126.0,57.0,-9.0,-7.0,-7.0,-12.0
1701619137.9520276,4.0,23.0,-68.0,-31.0,-1.0,-1.0,1.0,12.0
1701619137.9817452,-7.0,10.0,21.0,-5.0,-4.0,-2.0,0.0,10.0
1701619137.9817452,3.0,2.0,11.0,-13.0,7.0,3.0,3.0,-5.0
1701619137.9817452,-3.0,-6.0,-11.0,2.0,-8.0,-1.0,-2.0,7.0
1701619137.9817452,3.0,0.0,20.0,4.0,9.0,4.0,-2.0,-4.0
1701619137.9817452,-3.0,-20.0,-50.0,4.0,2.0,-1.0,1.0,5.0
1701619137.9817452,1.0,-24.0,40.0,-8.0,-1.0,1.0,9.0,-1.0
1701619138.00204,1.0,-13.0,-34.0,-19.0,-2.0,-2.0,-5.0,-1.0
1701619138.00204,-3.0,-15.0,64.0,21.0,-8.0,-4.0,-7.0,-7.0
1701619138.00204,0.0,-19.0,-76.0,-26.0,-2.0,2.0,1.0,1.0
1701619138.00204,-2.0,-10.0,8.0,15.0,-5.0,-1.0,1.0,4.0
1701619138.011748,-2.0,5.0,50.0,-19.0,-9.0,-5.0,-3.0,-3.0
1701619138.011748,0.0,1.0,-28.0,-6.0,3.0,-1.0,-5.0,-7.0
1701619138.031745,4.0,10.0,25.0,-1.0,2.0,1.0,4.0,11.0
1701619138.031745,-4.0,-7.0,-90.0,-2.0,-1.0,0.0,-2.0,-7.0
1701619138.031745,-5.0,0.0,-13.0,-17.0,-7.0,-8.0,-7.0,-5.0
1701619138.031745,0.0,12.0,20.0,-4.0,-1.0,-2.0,-2.0,-5.0
1701619138.0420032,0.0,-4.0,-50.0,14.0,3.0,1.0,1.0,3.0
1701619138.0420032,-2.0,-2.0,-66.0,-2.0,-1.0,-1.0,0.0,1.0
1701619138.0617535,2.0,19.0,85.0,17.0,6.0,1.0,-1.0,-4.0
1701619138.0617535,-3.0,-9.0,-100.0,-8.0,-5.0,-4.0,-7.0,-2.0
1701619138.071744,9.0,31.0,127.0,12.0,6.0,8.0,4.0,6.0
1701619138.071744,4.0,15.0,99.0,19.0,-1.0,-4.0,-2.0,8.0
1701619138.0817447,-19.0,-43.0,-102.0,-47.0,-11.0,-9.0,-25.0,-22.0
1701619138.0817447,0.0,18.0,89.0,25.0,13.0,7.0,4.0,8.0
1701619138.0817447,25.0,7.0,29.0,5.0,4.0,8.0,30.0,8.0
1701619138.0817447,-7.0,-8.0,-11.0,-25.0,-13.0,2.0,16.0,4.0
1701619138.091779,32.0,15.0,6.0,26.0,8.0,5.0,-5.0,15.0
1701619138.091779,-49.0,-36.0,-102.0,-24.0,-10.0,-11.0,-10.0,-49.0
1701619138.1121833,-13.0,0.0,35.0,-3.0,-4.0,-10.0,-4.0,-21.0
1701619138.1121833,-44.0,-3.0,49.0,2.0,1.0,0.0,-33.0,-22.0
1701619138.1221285,75.0,-8.0,-20.0,22.0,4.0,2.0,7.0,55.0
1701619138.1221285,-10.0,-22.0,-61.0,-1.0,2.0,5.0,6.0,-27.0
1701619138.1221285,-6.0,-29.0,-49.0,-21.0,-10.0,-9.0,-5.0,-1.0
1701619138.1221285,3.0,8.0,26.0,11.0,2.0,1.0,12.0,-4.0
1701619138.1321492,-22.0,20.0,60.0,1.0,0.0,-4.0,-9.0,22.0
1701619138.1321492,31.0,50.0,127.0,21.0,-1.0,0.0,-1.0,13.0
1701619138.1517446,-29.0,-5.0,7.0,-27.0,-12.0,-13.0,-32.0,-7.0
1701619138.1517446,8.0,11.0,72.0,10.0,2.0,7.0,20.0,-13.0
1701619138.1517446,-8.0,18.0,26.0,12.0,5.0,-1.0,4.0,14.0
1701619138.1517446,4.0,-17.0,-70.0,-15.0,2.0,1.0,-9.0,19.0
1701619138.172015,-16.0,-10.0,1.0,3.0,2.0,8.0,18.0,-14.0
1701619138.172015,18.0,-7.0,21.0,10.0,5.0,-1.0,-10.0,16.0
1701619138.1818118,4.0,-19.0,-2.0,4.0,0.0,0.0,2.0,-11.0
1701619138.1818118,-8.0,-21.0,-23.0,-18.0,-8.0,-4.0,3.0,1.0
1701619138.1818118,8.0,0.0,22.0,-2.0,-5.0,-5.0,-20.0,3.0
1701619138.1818118,-3.0,-36.0,-107.0,-32.0,-9.0,-12.0,-5.0,3.0
1701619138.2017455,-17.0,-10.0,-80.0,-43.0,-6.0,-8.0,-6.0,-19.0
1701619138.2017455,3.0,0.0,9.0,-3.0,2.0,8.0,16.0,10.0
1701619138.2017455,1.0,5.0,1.0,21.0,1.0,1.0,-2.0,8.0
1701619138.2017455,12.0,18.0,-5.0,6.0,0.0,2.0,11.0,3.0
1701619138.2203228,-12.0,-3.0,-8.0,-10.0,-8.0,-2.0,-8.0,-10.0
1701619138.2203228,-20.0,13.0,47.0,-7.0,0.0,-4.0,-10.0,-3.0
1701619138.2281861,9.0,23.0,49.0,44.0,7.0,1.0,-2.0,2.0
1701619138.2281861,1.0,16.0,-8.0,-39.0,-8.0,-5.0,-6.0,8.0
1701619138.2440279,-35.0,-42.0,-69.0,-60.0,-22.0,-14.0,-11.0,-32.0
1701619138.244386,21.0,25.0,82.0,35.0,14.0,5.0,-2.0,15.0
1701619138.244386,-2.0,-4.0,-18.0,-15.0,0.0,3.0,2.0,0.0
1701619138.244386,5.0,18.0,27.0,9.0,2.0,1.0,13.0,1.0
1701619138.2543826,-2.0,5.0,21.0,17.0,9.0,6.0,4.0,-10.0
1701619138.2543826,11.0,2.0,31.0,17.0,-6.0,0.0,15.0,11.0
1701619138.2647352,-5.0,-10.0,-30.0,-5.0,-1.0,-5.0,-6.0,-1.0
1701619138.2647352,3.0,0.0,17.0,10.0,-2.0,-7.0,-13.0,-5.0
1701619138.2746582,2.0,11.0,-28.0,-18.0,6.0,6.0,11.0,-2.0
1701619138.2746582,-10.0,-19.0,-9.0,15.0,-18.0,-13.0,-14.0,-9.0
1701619138.2847278,3.0,7.0,26.0,17.0,0.0,4.0,-3.0,2.0
1701619138.2847278,-1.0,-1.0,19.0,35.0,21.0,8.0,3.0,1.0
1701619138.2947495,-2.0,1.0,-18.0,-11.0,4.0,3.0,6.0,-3.0
1701619138.2947495,4.0,3.0,3.0,-4.0,-2.0,-3.0,-5.0,-2.0
1701619138.3043845,-5.0,-6.0,36.0,19.0,-17.0,-11.0,-3.0,-3.0
1701619138.3043845,2.0,0.0,4.0,-5.0,-2.0,2.0,0.0,-1.0
1701619138.3143826,-2.0,4.0,20.0,21.0,7.0,6.0,1.0,-2.0
1701619138.3143826,12.0,0.0,-52.0,-25.0,3.0,2.0,2.0,0.0
1701619138.3246634,-7.0,-5.0,-15.0,-2.0,-8.0,-5.0,-4.0,-1.0
1701619138.3246634,-1.0,3.0,-12.0,0.0,8.0,2.0,0.0,9.0
1701619138.3348403,0.0,-1.0,34.0,3.0,-3.0,-4.0,-9.0,-14.0
1701619138.3348403,-8.0,-8.0,-36.0,-60.0,-10.0,-7.0,-3.0,-3.0
1701619138.344942,3.0,-4.0,-20.0,23.0,0.0,2.0,4.0,0.0
1701619138.344942,-11.0,-6.0,71.0,47.0,-15.0,-11.0,-11.0,-5.0
1701619138.384682,11.0,2.0,-22.0,-31.0,13.0,10.0,16.0,14.0
1701619138.384682,10.0,-1.0,11.0,58.0,3.0,-4.0,-7.0,-7.0
1701619138.3947077,-25.0,0.0,-6.0,-27.0,-7.0,-3.0,-3.0,1.0
1701619138.3947077,12.0,1.0,-57.0,-52.0,9.0,8.0,7.0,9.0
1701619138.4050806,6.0,22.0,21.0,34.0,-2.0,-1.0,0.0,-7.0
1701619138.4050806,5.0,-14.0,-7.0,-14.0,1.0,3.0,-1.0,-4.0
1701619138.4050806,-49.0,-22.0,12.0,18.0,6.0,1.0,1.0,-1.0
1701619138.4050806,-24.0,-20.0,-27.0,-29.0,-9.0,-6.0,-4.0,-3.0
1701619138.4146817,-3.0,-17.0,32.0,21.0,-9.0,-7.0,-4.0,-10.0
1701619138.4146817,6.0,5.0,-12.0,-10.0,0.0,-1.0,-2.0,2.0
1701619138.424708,25.0,41.0,-25.0,-22.0,4.0,6.0,6.0,4.0
1701619138.424708,-5.0,8.0,12.0,-2.0,-5.0,-1.0,-5.0,10.0
1701619138.424708,3.0,-20.0,26.0,27.0,1.0,3.0,10.0,6.0
1701619138.424708,10.0,17.0,-2.0,-22.0,2.0,1.0,-5.0,-30.0
1701619138.424708,7.0,3.0,-25.0,-36.0,5.0,0.0,0.0,26.0
1701619138.424708,16.0,19.0,21.0,19.0,6.0,6.0,0.0,-22.0
1701619138.435029,20.0,18.0,-5.0,27.0,2.0,-1.0,-3.0,-1.0
1701619138.435029,-29.0,-15.0,-3.0,-15.0,-4.0,-2.0,-2.0,-20.0
1701619138.4446807,-17.0,-26.0,4.0,-1.0,-4.0,-2.0,6.0,29.0
1701619138.4446807,25.0,3.0,-11.0,-4.0,1.0,2.0,19.0,7.0
1701619138.4548848,12.0,0.0,8.0,-1.0,1.0,6.0,30.0,73.0
1701619138.4548848,-19.0,-16.0,7.0,-1.0,-7.0,-10.0,-53.0,-88.0
1701619138.4650555,-8.0,0.0,-5.0,1.0,-4.0,-5.0,-28.0,-18.0
1701619138.4650555,2.0,-3.0,4.0,10.0,-2.0,0.0,4.0,29.0
1701619138.4746833,16.0,13.0,-4.0,-8.0,5.0,4.0,24.0,64.0
1701619138.4746833,-2.0,13.0,21.0,10.0,12.0,7.0,44.0,84.0
1701619138.4746833,22.0,4.0,-16.0,-11.0,3.0,-2.0,-17.0,-57.0
1701619138.4746833,-14.0,6.0,3.0,6.0,-7.0,-7.0,-11.0,-18.0
1701619138.4949725,-50.0,-38.0,1.0,-20.0,-27.0,-13.0,-37.0,-118.0
1701619138.4949725,11.0,1.0,-8.0,5.0,13.0,8.0,1.0,46.0
1701619138.5049589,14.0,4.0,10.0,-6.0,6.0,5.0,-3.0,-26.0
1701619138.5049589,-8.0,-31.0,-22.0,-9.0,-10.0,-7.0,9.0,17.0
1701619138.514848,12.0,18.0,19.0,8.0,3.0,-1.0,-9.0,-2.0
1701619138.514848,-43.0,-6.0,-36.0,-5.0,-6.0,-2.0,2.0,-58.0
1701619138.524986,26.0,14.0,13.0,2.0,-1.0,2.0,34.0,86.0
1701619138.524986,18.0,6.0,-12.0,-11.0,-7.0,1.0,-2.0,-24.0
1701619138.5346808,-5.0,-10.0,-19.0,-17.0,-3.0,-7.0,-16.0,35.0
1701619138.5346808,47.0,-1.0,15.0,6.0,-3.0,-2.0,-18.0,-62.0
1701619138.5346808,-34.0,-5.0,-6.0,4.0,12.0,5.0,6.0,5.0
1701619138.5346808,-25.0,-16.0,-25.0,-11.0,-4.0,-6.0,-22.0,-60.0
1701619138.555075,24.0,9.0,17.0,-3.0,-6.0,-1.0,7.0,36.0
1701619138.555075,113.0,15.0,-9.0,0.0,-6.0,-4.0,-6.0,-34.0
1701619138.5650525,-83.0,2.0,14.0,-3.0,-5.0,1.0,37.0,95.0
1701619138.5650525,-52.0,-48.0,16.0,6.0,5.0,0.0,-30.0,-72.0
1701619138.5846813,64.0,9.0,-3.0,3.0,0.0,-3.0,-11.0,-16.0
1701619138.5846813,-53.0,0.0,35.0,9.0,2.0,-3.0,11.0,74.0
1701619138.5846813,127.0,13.0,-31.0,0.0,6.0,5.0,5.0,-19.0
1701619138.5846813,-4.0,1.0,-23.0,-16.0,-12.0,-6.0,6.0,29.0
1701619138.5950608,23.0,-1.0,5.0,6.0,7.0,3.0,-2.0,-5.0
1701619138.5950608,-23.0,-4.0,-26.0,-6.0,1.0,-2.0,1.0,7.0
1701619138.5950608,28.0,26.0,33.0,7.0,2.0,4.0,0.0,-16.0
1701619138.6046937,-34.0,-15.0,-9.0,0.0,1.0,-2.0,-9.0,1.0
1701619138.6250846,-9.0,16.0,26.0,14.0,5.0,3.0,1.0,-11.0
1701619138.6250846,-17.0,-13.0,-52.0,-22.0,-15.0,-6.0,5.0,29.0
1701619138.6250846,-29.0,-19.0,2.0,-4.0,-6.0,-6.0,-22.0,-40.0
1701619138.6250846,42.0,20.0,22.0,3.0,1.0,0.0,4.0,26.0
1701619138.6446807,-42.0,-10.0,2.0,-6.0,-4.0,-5.0,-2.0,-17.0
1701619138.6446807,-14.0,2.0,26.0,12.0,4.0,4.0,2.0,13.0
1701619138.6446807,-10.0,-28.0,-54.0,-11.0,-5.0,-4.0,-12.0,-20.0
1701619138.6446807,22.0,24.0,57.0,20.0,7.0,3.0,11.0,18.0
1701619138.6550627,-33.0,-27.0,-98.0,-27.0,-12.0,-9.0,-4.0,-9.0
1701619138.6550627,-9.0,5.0,29.0,2.0,-3.0,2.0,1.0,4.0
1701619138.6550627,13.0,-8.0,-48.0,-28.0,-6.0,-6.0,-7.0,-9.0
1701619138.6550627,14.0,13.0,4.0,-4.0,-5.0,-1.0,2.0,17.0
1701619138.6751244,-20.0,3.0,21.0,31.0,18.0,10.0,3.0,-13.0
1701619138.6751244,17.0,16.0,87.0,31.0,8.0,0.0,-3.0,9.0
1701619138.6850717,1.0,-6.0,20.0,10.0,10.0,5.0,6.0,1.0
1701619138.6850717,-8.0,-19.0,-99.0,-43.0,-4.0,5.0,-1.0,4.0
1701619138.7046807,-13.0,3.0,81.0,24.0,13.0,4.0,-1.0,-5.0
1701619138.7046807,-10.0,-8.0,-25.0,2.0,-4.0,-1.0,3.0,-2.0
1701619138.7046807,-3.0,-3.0,-7.0,-21.0,-4.0,-4.0,-2.0,-4.0
1701619138.7046807,-3.0,1.0,31.0,-8.0,-7.0,-4.0,-10.0,-4.0
1701619138.714912,6.0,20.0,79.0,38.0,4.0,3.0,2.0,0.0
1701619138.714912,0.0,-7.0,-50.0,-10.0,2.0,-1.0,0.0,9.0
1701619138.724892,-22.0,-26.0,12.0,-35.0,-28.0,-12.0,-21.0,-24.0
1701619138.724892,14.0,14.0,19.0,23.0,5.0,-2.0,2.0,8.0
1701619138.7466612,-12.0,-3.0,-18.0,-29.0,-9.0,-15.0,-15.0,-4.0
1701619138.7466612,2.0,11.0,73.0,38.0,10.0,-4.0,-6.0,8.0
1701619138.7466612,-3.0,-2.0,-59.0,-10.0,7.0,19.0,32.0,-3.0
1701619138.7466612,6.0,3.0,-47.0,-9.0,7.0,19.0,-5.0,-1.0
1701619138.760675,-22.0,-32.0,-2.0,-41.0,-30.0,-22.0,-11.0,-12.0
1701619138.760675,1.0,10.0,33.0,41.0,24.0,19.0,12.0,8.0
1701619138.768675,10.0,3.0,72.0,-5.0,-17.0,-35.0,-21.0,8.0
1701619138.768675,-3.0,-9.0,-43.0,-68.0,-11.0,7.0,15.0,2.0
1701619138.7871294,-13.0,5.0,6.0,7.0,-4.0,-6.0,7.0,-11.0
1701619138.7971287,0.0,1.0,0.0,1.0,5.0,0.0,2.0,1.0
1701619138.8071291,5.0,13.0,18.0,22.0,6.0,13.0,1.0,-2.0
1701619138.8071291,2.0,23.0,78.0,59.0,14.0,4.0,4.0,6.0
1701619138.8071291,-6.0,-2.0,-110.0,-72.0,-27.0,-20.0,-7.0,-5.0
1701619138.8071291,-2.0,11.0,-23.0,-27.0,-14.0,-12.0,-6.0,4.0
1701619138.8071291,0.0,26.0,22.0,44.0,18.0,9.0,1.0,-6.0
1701619138.8071291,3.0,24.0,9.0,13.0,-2.0,-11.0,-3.0,1.0
1701619138.8171248,0.0,23.0,1.0,11.0,-4.0,-3.0,6.0,5.0
1701619138.8171248,1.0,-5.0,29.0,-7.0,-2.0,7.0,5.0,2.0
1701619138.8274336,-3.0,-13.0,-11.0,-3.0,1.0,3.0,-9.0,-6.0
1701619138.8274336,-6.0,-32.0,-65.0,-26.0,-1.0,2.0,0.0,-3.0
1701619138.8374317,5.0,-12.0,98.0,47.0,18.0,9.0,4.0,5.0
1701619138.8374317,-6.0,-31.0,-48.0,-24.0,-9.0,-3.0,-8.0,-7.0
1701619138.8474514,1.0,47.0,65.0,6.0,-2.0,-11.0,-10.0,-1.0
1701619138.8474514,-6.0,-34.0,15.0,-5.0,-9.0,-14.0,-2.0,0.0
1701619138.8573983,2.0,-42.0,4.0,19.0,9.0,14.0,2.0,0.0
1701619138.8573983,0.0,-50.0,-2.0,24.0,5.0,-4.0,-2.0,-1.0
1701619138.867128,-4.0,-54.0,-64.0,-37.0,-7.0,2.0,-4.0,-4.0
1701619138.867128,2.0,11.0,26.0,8.0,-5.0,-22.0,-19.0,-1.0
1701619138.877126,-1.0,13.0,-31.0,-7.0,7.0,10.0,7.0,4.0
1701619138.877126,1.0,7.0,13.0,-8.0,-7.0,4.0,15.0,3.0
1701619138.8873572,1.0,-19.0,-25.0,2.0,5.0,3.0,1.0,-1.0
1701619138.8873572,0.0,3.0,35.0,21.0,3.0,-2.0,4.0,3.0
1701619138.8974006,-2.0,3.0,-31.0,-5.0,-6.0,-13.0,-9.0,-5.0
1701619138.8974006,-4.0,18.0,-42.0,-29.0,-7.0,3.0,8.0,-1.0
1701619138.9073393,0.0,13.0,25.0,-1.0,-6.0,-8.0,2.0,2.0
1701619138.9073393,0.0,-1.0,15.0,4.0,5.0,6.0,5.0,0.0
1701619138.9371254,-1.0,7.0,16.0,17.0,2.0,13.0,-4.0,-2.0
1701619138.9371254,-5.0,14.0,10.0,9.0,-1.0,1.0,-9.0,-5.0
1701619138.9371254,0.0,13.0,-28.0,-22.0,-8.0,-12.0,2.0,3.0
1701619138.9371254,3.0,-5.0,6.0,-8.0,-2.0,-1.0,0.0,5.0
1701619138.9371254,-4.0,-22.0,-23.0,-18.0,-10.0,-9.0,-2.0,-3.0
1701619138.9371254,-1.0,-3.0,3.0,-1.0,-5.0,-6.0,-3.0,-2.0
1701619138.9472966,-2.0,-9.0,7.0,11.0,0.0,5.0,-3.0,-5.0
1701619138.9472966,0.0,6.0,-12.0,-2.0,3.0,2.0,0.0,0.0
1701619138.957302,3.0,-7.0,-15.0,-6.0,0.0,-4.0,3.0,5.0
1701619138.957302,-4.0,-25.0,-15.0,-35.0,-6.0,2.0,-1.0,-4.0
1701619138.9673479,-2.0,-11.0,24.0,14.0,-2.0,-4.0,-4.0,-1.0
1701619138.9673479,1.0,8.0,-7.0,-6.0,1.0,-2.0,-8.0,-3.0
1701619138.9772909,-2.0,-31.0,-5.0,15.0,4.0,7.0,9.0,-1.0
1701619138.9871323,-2.0,0.0,-8.0,11.0,-1.0,-3.0,-9.0,-3.0
1701619138.9871323,2.0,7.0,0.0,-11.0,-3.0,1.0,-4.0,-4.0
1701619138.9871323,2.0,-45.0,-18.0,0.0,-4.0,-3.0,-2.0,-2.0
1701619139.0171273,-6.0,29.0,16.0,-6.0,-1.0,-1.0,2.0,14.0
1701619139.0171273,2.0,-6.0,-1.0,-8.0,-10.0,-12.0,-13.0,-21.0
1701619139.0171273,-22.0,-30.0,-4.0,9.0,11.0,12.0,6.0,1.0
1701619139.0171273,6.0,-28.0,-5.0,7.0,0.0,0.0,1.0,6.0
1701619139.0171273,4.0,31.0,-5.0,-10.0,1.0,4.0,2.0,6.0
1701619139.0171273,-2.0,14.0,2.0,-5.0,-5.0,-5.0,-2.0,10.0
1701619139.0271444,3.0,11.0,-8.0,8.0,8.0,6.0,-3.0,-33.0
1701619139.0271444,-1.0,27.0,16.0,6.0,-3.0,-1.0,4.0,15.0
1701619139.0371602,10.0,6.0,-11.0,0.0,2.0,2.0,22.0,46.0
1701619139.0371602,-2.0,-25.0,-8.0,-6.0,-1.0,-6.0,-16.0,-44.0
1701619139.0471296,-7.0,14.0,3.0,1.0,-4.0,-4.0,-15.0,3.0
1701619139.0471296,-5.0,14.0,13.0,4.0,-2.0,2.0,3.0,4.0
1701619139.0575244,2.0,8.0,7.0,-3.0,3.0,1.0,-10.0,-14.0
1701619139.0575244,8.0,40.0,-17.0,-11.0,-8.0,-5.0,17.0,38.0
1701619139.067482,7.0,10.0,16.0,9.0,-1.0,-1.0,11.0,27.0
1701619139.067482,-3.0,-19.0,23.0,0.0,-1.0,-2.0,-10.0,-37.0
1701619139.0774126,-16.0,-41.0,-48.0,-6.0,-1.0,-1.0,-1.0,-2.0
1701619139.0774126,1.0,12.0,52.0,-3.0,-3.0,-4.0,-7.0,-4.0
1701619139.097126,-18.0,-72.0,-88.0,-3.0,0.0,-4.0,-15.0,-10.0
1701619139.097126,8.0,107.0,44.0,-3.0,-4.0,-3.0,14.0,19.0
1701619139.097126,-7.0,-90.0,-45.0,-6.0,-2.0,-5.0,-20.0,-21.0
1701619139.107133,6.0,25.0,35.0,7.0,5.0,7.0,14.0,3.0
1701619139.107133,3.0,-30.0,-69.0,-6.0,-3.0,-1.0,5.0,10.0
1701619139.107133,-13.0,-112.0,-44.0,-6.0,2.0,0.0,1.0,-2.0
1701619139.117414,-3.0,-18.0,24.0,0.0,-1.0,0.0,-6.0,-16.0
1701619139.117414,7.0,35.0,-11.0,-4.0,-4.0,-6.0,-15.0,3.0
1701619139.1273441,3.0,-14.0,42.0,4.0,-1.0,-10.0,-18.0,10.0
1701619139.1273441,-5.0,3.0,6.0,-1.0,-1.0,10.0,10.0,-12.0
1701619139.1372902,1.0,22.0,-75.0,-6.0,-3.0,-2.0,12.0,-22.0
1701619139.1372902,0.0,25.0,9.0,-1.0,0.0,-6.0,6.0,13.0
1701619139.167129,-1.0,-16.0,0.0,2.0,2.0,9.0,-26.0,-11.0
1701619139.167129,2.0,25.0,-16.0,-1.0,-5.0,-16.0,-7.0,1.0
1701619139.167129,-4.0,20.0,70.0,2.0,0.0,6.0,28.0,-3.0
1701619139.167129,-10.0,-54.0,-44.0,-11.0,-4.0,-2.0,-3.0,1.0
1701619139.167129,13.0,35.0,16.0,2.0,-3.0,4.0,20.0,-2.0
1701619139.167129,-3.0,-11.0,27.0,4.0,0.0,-11.0,-42.0,-7.0
1701619139.1771588,6.0,19.0,18.0,4.0,7.0,14.0,62.0,20.0
1701619139.1771588,-8.0,36.0,-27.0,-9.0,-5.0,-10.0,-58.0,-16.0
1701619139.1873064,7.0,39.0,42.0,1.0,-5.0,-10.0,-16.0,3.0
1701619139.1873064,-1.0,-5.0,-11.0,3.0,-2.0,8.0,48.0,4.0
1701619139.197125,3.0,41.0,-10.0,-9.0,-3.0,-9.0,-22.0,5.0
1701619139.197125,-9.0,-29.0,0.0,2.0,2.0,17.0,33.0,-15.0
1701619139.2071593,-4.0,-1.0,-3.0,-2.0,-1.0,-16.0,-40.0,-6.0
1701619139.2071593,5.0,13.0,12.0,3.0,-2.0,1.0,35.0,18.0
1701619139.217489,3.0,-4.0,35.0,6.0,4.0,-4.0,-107.0,-11.0
1701619139.217489,-1.0,-15.0,-50.0,-3.0,0.0,4.0,65.0,19.0
1701619139.217489,-1.0,11.0,28.0,0.0,-4.0,-4.0,16.0,-10.0
1701619139.2271318,1.0,-31.0,-25.0,4.0,8.0,0.0,-45.0,-3.0
1701619139.237507,-5.0,-22.0,7.0,-6.0,-7.0,-4.0,-22.0,-5.0
1701619139.237507,6.0,10.0,6.0,5.0,0.0,-25.0,-72.0,7.0
1701619139.2473474,2.0,-9.0,19.0,5.0,2.0,-14.0,68.0,5.0
1701619139.2473474,4.0,23.0,-9.0,-4.0,0.0,18.0,50.0,20.0
1701619139.2571275,-3.0,24.0,-44.0,-6.0,4.0,44.0,-3.0,-16.0
1701619139.2571275,20.0,-8.0,63.0,13.0,8.0,-1.0,-34.0,18.0
1701619139.2698398,-6.0,-32.0,-21.0,1.0,-5.0,-17.0,74.0,-10.0
1701619139.2698398,-21.0,18.0,-71.0,-26.0,-3.0,65.0,28.0,-10.0
1701619139.2860882,5.0,18.0,17.0,5.0,1.0,-10.0,49.0,22.0
1701619139.2860882,-3.0,-17.0,-4.0,-1.0,-2.0,-9.0,55.0,-28.0
1701619139.2860882,4.0,22.0,50.0,14.0,11.0,16.0,-128.0,1.0
1701619139.2860882,2.0,-1.0,-6.0,-6.0,-5.0,-14.0,46.0,27.0
1701619139.293313,-6.0,-5.0,5.0,-2.0,-9.0,1.0,14.0,67.0
1701619139.293313,-8.0,-15.0,-18.0,-12.0,-4.0,-21.0,-59.0,-30.0
1701619139.3035717,11.0,19.0,-10.0,-5.0,-8.0,-13.0,31.0,-18.0
1701619139.3035717,-2.0,6.0,-3.0,4.0,1.0,-14.0,-19.0,-12.0
1701619139.3133154,2.0,27.0,8.0,2.0,2.0,1.0,-30.0,-21.0
1701619139.3133154,-11.0,-12.0,21.0,2.0,-2.0,-14.0,-58.0,5.0
1701619139.3233116,0.0,4.0,-52.0,-12.0,3.0,28.0,-22.0,16.0
1701619139.3233116,-10.0,-16.0,8.0,-6.0,-11.0,-14.0,-87.0,-23.0
1701619139.3433146,10.0,4.0,10.0,11.0,7.0,3.0,19.0,6.0
1701619139.3433146,-2.0,-10.0,7.0,5.0,4.0,53.0,69.0,61.0
1701619139.3433146,-8.0,-13.0,-15.0,-15.0,-7.0,-3.0,-7.0,-83.0
1701619139.3433146,-9.0,2.0,29.0,8.0,-8.0,-64.0,-128.0,-15.0
1701619139.3536587,-8.0,-17.0,5.0,0.0,1.0,7.0,41.0,-1.0
1701619139.3536587,-5.0,-12.0,-24.0,-8.0,-4.0,15.0,15.0,-18.0
1701619139.3733156,-12.0,-16.0,-1.0,-12.0,-13.0,-22.0,-51.0,34.0
1701619139.3733156,15.0,4.0,7.0,5.0,12.0,19.0,34.0,1.0
1701619139.3733156,-11.0,-15.0,-16.0,-8.0,-8.0,-9.0,22.0,-31.0
1701619139.3733156,-3.0,-15.0,-7.0,-3.0,-4.0,-11.0,-31.0,-3.0
1701619139.3833406,8.0,19.0,13.0,7.0,4.0,-10.0,33.0,33.0
1701619139.3833406,6.0,20.0,5.0,3.0,0.0,-13.0,-63.0,-42.0
1701619139.4036455,1.0,-8.0,-8.0,-5.0,-3.0,-17.0,-66.0,-7.0
1701619139.4036455,4.0,12.0,-6.0,2.0,-1.0,-24.0,-77.0,1.0
1701619139.4036455,-15.0,-23.0,-3.0,-7.0,0.0,24.0,34.0,14.0
1701619139.4036455,-4.0,-11.0,0.0,9.0,0.0,3.0,0.0,14.0
1701619139.41337,0.0,3.0,-3.0,-11.0,-4.0,-8.0,-2.0,-22.0
1701619139.41337,-18.0,2.0,-7.0,-4.0,4.0,16.0,38.0,3.0
1701619139.4233134,4.0,5.0,-2.0,-12.0,-5.0,4.0,-17.0,-16.0
1701619139.4233134,3.0,12.0,-10.0,-2.0,-1.0,6.0,27.0,17.0
1701619139.4433138,2.0,16.0,29.0,19.0,8.0,21.0,37.0,15.0
1701619139.4433138,-8.0,-31.0,-6.0,-3.0,-4.0,-8.0,8.0,-26.0
1701619139.4537039,-1.0,5.0,1.0,1.0,1.0,13.0,34.0,20.0
1701619139.4537039,1.0,3.0,7.0,3.0,1.0,8.0,11.0,0.0
1701619139.4636376,-2.0,-18.0,-9.0,-8.0,-13.0,-31.0,-43.0,-11.0
1701619139.4636376,-7.0,-32.0,-18.0,-4.0,1.0,4.0,23.0,-1.0
1701619139.4636376,2.0,34.0,23.0,22.0,4.0,-7.0,-21.0,-8.0
1701619139.4636376,1.0,-15.0,5.0,2.0,1.0,-15.0,-17.0,-5.0
1701619139.4833126,1.0,2.0,0.0,0.0,-1.0,-2.0,5.0,-17.0
1701619139.4833126,-4.0,10.0,1.0,3.0,-2.0,3.0,9.0,11.0
1701619139.4833126,-5.0,-15.0,-12.0,-5.0,0.0,0.0,-6.0,2.0
1701619139.4833126,2.0,11.0,-1.0,-3.0,1.0,10.0,19.0,-7.0
1701619139.5033178,-3.0,12.0,7.0,5.0,-5.0,-22.0,-42.0,-13.0
1701619139.5033178,-2.0,-7.0,-10.0,-9.0,-1.0,10.0,21.0,3.0
1701619139.5135758,-3.0,-16.0,-11.0,-5.0,-6.0,-10.0,-13.0,-1.0
1701619139.5135758,5.0,-13.0,-4.0,-2.0,1.0,3.0,14.0,2.0
1701619139.5233164,-5.0,1.0,-2.0,-5.0,1.0,2.0,-4.0,-4.0
1701619139.5233164,4.0,7.0,-2.0,-8.0,-5.0,-12.0,-17.0,-5.0
1701619139.5233164,4.0,9.0,5.0,2.0,3.0,4.0,15.0,8.0
1701619139.5233164,-15.0,-34.0,-18.0,-11.0,-9.0,-11.0,-16.0,-13.0
1701619139.5433135,0.0,-10.0,-13.0,-3.0,4.0,14.0,23.0,12.0
1701619139.5433135,5.0,15.0,4.0,3.0,-3.0,-5.0,2.0,-10.0
1701619139.5433135,-1.0,0.0,8.0,-1.0,5.0,-2.0,-28.0,-1.0
1701619139.5433135,3.0,3.0,-1.0,-2.0,-2.0,-5.0,7.0,14.0
1701619139.5533512,2.0,16.0,-10.0,-11.0,-3.0,-6.0,-12.0,-2.0
1701619139.5533512,1.0,18.0,-1.0,-4.0,1.0,4.0,15.0,-2.0
1701619139.5633206,3.0,30.0,10.0,4.0,3.0,11.0,36.0,7.0
1701619139.5633206,2.0,17.0,24.0,14.0,5.0,-1.0,-4.0,-1.0
1701619139.5933588,-1.0,-13.0,10.0,14.0,4.0,-11.0,-28.0,-10.0
1701619139.5933588,8.0,37.0,7.0,1.0,5.0,5.0,-1.0,0.0
1701619139.5933588,-7.0,-30.0,-13.0,-6.0,-3.0,-4.0,-31.0,-11.0
1701619139.5933588,1.0,20.0,1.0,-1.0,-3.0,4.0,47.0,12.0
1701619139.5933588,-2.0,37.0,-23.0,-12.0,-3.0,-3.0,-35.0,-10.0
1701619139.5933588,6.0,111.0,12.0,6.0,2.0,1.0,8.0,4.0
1701619139.60357,-6.0,36.0,-9.0,-4.0,1.0,5.0,16.0,-13.0
1701619139.60357,-7.0,-14.0,-21.0,-6.0,1.0,-1.0,-17.0,4.0
1701619139.6233141,-3.0,33.0,-6.0,-5.0,-5.0,-1.0,14.0,7.0
1701619139.6233141,-1.0,21.0,-4.0,-1.0,-6.0,-10.0,-19.0,-6.0
1701619139.6335227,2.0,104.0,5.0,1.0,3.0,12.0,15.0,8.0
1701619139.6335227,-4.0,127.0,-11.0,-3.0,-2.0,1.0,0.0,-8.0
1701619139.6633117,-3.0,26.0,-5.0,-2.0,-5.0,-5.0,0.0,-1.0
1701619139.6633117,-1.0,-89.0,-6.0,5.0,1.0,6.0,3.0,3.0
1701619139.6633117,0.0,-122.0,4.0,0.0,-3.0,-6.0,-1.0,0.0
1701619139.6633117,0.0,-128.0,-1.0,-10.0,-4.0,-2.0,-9.0,-6.0
1701619139.6633117,5.0,20.0,20.0,13.0,8.0,3.0,0.0,4.0
1701619139.6633117,-4.0,50.0,14.0,23.0,2.0,0.0,9.0,3.0
1701619139.6633117,-5.0,-52.0,-24.0,-20.0,-8.0,-9.0,-9.0,-1.0
1701619139.6633117,2.0,127.0,-10.0,-31.0,-9.0,-7.0,-12.0,-4.0
1701619139.6833138,-4.0,-103.0,-15.0,-4.0,3.0,7.0,10.0,3.0
1701619139.6833138,-1.0,-110.0,-1.0,-5.0,-3.0,0.0,1.0,0.0
1701619139.6833138,0.0,-105.0,-2.0,15.0,3.0,-3.0,-5.0,-1.0
1701619139.6833138,0.0,-105.0,16.0,13.0,4.0,-2.0,-4.0,-3.0
1701619139.703643,0.0,-8.0,-10.0,-7.0,-1.0,1.0,8.0,2.0
1701619139.703643,-2.0,-107.0,-1.0,-1.0,3.0,-1.0,-4.0,-1.0
1701619139.703643,-1.0,-28.0,3.0,8.0,-3.0,-5.0,-6.0,0.0
1701619139.703643,-2.0,-3.0,1.0,-9.0,-2.0,-2.0,4.0,1.0
1701619139.7233136,-3.0,7.0,5.0,-9.0,-9.0,-7.0,-6.0,-5.0
1701619139.7233136,-1.0,39.0,-19.0,-27.0,-10.0,-4.0,-3.0,-1.0
1701619139.7233136,3.0,114.0,6.0,8.0,6.0,-1.0,0.0,-2.0
1701619139.7233136,2.0,58.0,5.0,3.0,6.0,4.0,0.0,-1.0
1701619139.743317,-11.0,-52.0,-32.0,-13.0,-11.0,-8.0,-4.0,-4.0
1701619139.743317,-6.0,-41.0,-5.0,-7.0,-4.0,-4.0,-4.0,-4.0
1701619139.743317,3.0,-13.0,12.0,3.0,-6.0,-3.0,-1.0,0.0
1701619139.743317,-1.0,4.0,2.0,12.0,3.0,1.0,-1.0,-2.0
1701619139.783313,1.0,93.0,11.0,-6.0,0.0,2.0,-1.0,-1.0
1701619139.783313,1.0,-6.0,-16.0,-21.0,-6.0,-2.0,2.0,-1.0
1701619139.783313,1.0,20.0,-7.0,-1.0,8.0,6.0,2.0,5.0
1701619139.783313,1.0,24.0,8.0,13.0,-1.0,0.0,0.0,-1.0
1701619139.783313,-3.0,-10.0,8.0,-10.0,-3.0,-2.0,0.0,-2.0
1701619139.783313,2.0,73.0,13.0,14.0,1.0,0.0,3.0,0.0
1701619139.783313,-6.0,30.0,-29.0,-33.0,1.0,-3.0,-4.0,-5.0
