1701619766.3188882,1.0,-1.0,-3.0,1.0,2.0,2.0,2.0,0.0
1701619766.3216362,-2.0,-1.0,-4.0,-2.0,-2.0,-1.0,-1.0,-1.0
1701619766.3304012,-1.0,4.0,0.0,-2.0,-2.0,-2.0,0.0,-1.0
1701619766.3304012,-1.0,-1.0,-1.0,0.0,-1.0,0.0,-1.0,-1.0
1701619766.3417063,-2.0,2.0,0.0,-1.0,-2.0,0.0,-2.0,-2.0
1701619766.3417063,-2.0,-4.0,-3.0,-3.0,-1.0,1.0,0.0,-3.0
1701619766.3464746,-1.0,4.0,1.0,0.0,0.0,1.0,-1.0,-1.0
1701619766.3464746,-2.0,-2.0,-3.0,-2.0,-3.0,0.0,-1.0,-1.0
1701619766.3952708,-3.0,3.0,-2.0,-2.0,-2.0,0.0,0.0,-2.0
1701619766.3952708,-4.0,-2.0,-3.0,-1.0,-1.0,-1.0,-1.0,-2.0
1701619766.3952708,1.0,2.0,0.0,-1.0,0.0,-1.0,-2.0,-1.0
1701619766.3952708,-2.0,-2.0,-5.0,-2.0,-1.0,-1.0,0.0,-1.0
1701619766.3952708,0.0,1.0,0.0,0.0,0.0,-1.0,-1.0,1.0
1701619766.3952708,-1.0,0.0,1.0,0.0,-1.0,0.0,0.0,-1.0
1701619766.4004538,-1.0,-2.0,0.0,0.0,-1.0,-2.0,0.0,-2.0
1701619766.4004538,-3.0,-2.0,-2.0,-2.0,-1.0,-2.0,-1.0,-1.0
1701619766.432128,-1.0,1.0,-2.0,1.0,0.0,-1.0,1.0,-1.0
1701619766.4324071,0.0,-2.0,-2.0,-1.0,-1.0,-2.0,-1.0,-1.0
1701619766.4445825,0.0,0.0,-1.0,1.0,-1.0,-1.0,-3.0,-1.0
1701619766.4445825,-1.0,-5.0,-1.0,-4.0,-2.0,0.0,-1.0,-2.0
1701619766.4445825,-2.0,-1.0,0.0,-2.0,-1.0,-2.0,-3.0,-1.0
1701619766.4445825,-1.0,-4.0,0.0,-1.0,-1.0,0.0,0.0,-1.0
1701619766.4445825,-1.0,-1.0,0.0,0.0,0.0,-1.0,0.0,-1.0
1701619766.4445825,0.0,-3.0,0.0,-2.0,-1.0,0.0,-3.0,1.0
1701619766.4456377,1.0,0.0,0.0,-1.0,-1.0,0.0,-2.0,0.0
1701619766.4456377,0.0,-2.0,-2.0,-1.0,0.0,-2.0,-1.0,-1.0
1701619766.4467049,-2.0,0.0,0.0,1.0,0.0,0.0,0.0,-1.0
1701619766.4467049,0.0,-3.0,-2.0,-1.0,-2.0,0.0,-1.0,-1.0
1701619766.465065,-1.0,-1.0,-1.0,-3.0,-2.0,-1.0,0.0,-1.0
1701619766.465065,-1.0,-2.0,-2.0,-4.0,-1.0,-1.0,1.0,-2.0
1701619766.4668298,-1.0,0.0,-2.0,-1.0,-1.0,-1.0,-3.0,-1.0
1701619766.4668298,-2.0,0.0,-2.0,-1.0,-1.0,0.0,-2.0,-2.0
1701619766.5207815,0.0,0.0,0.0,0.0,-1.0,-1.0,0.0,-2.0
1701619766.5207815,-1.0,-1.0,-2.0,1.0,-1.0,-2.0,-2.0,-1.0
1701619766.5207815,0.0,1.0,-1.0,0.0,1.0,-2.0,0.0,0.0
1701619766.5207815,-1.0,-2.0,-3.0,1.0,-1.0,-3.0,-2.0,-1.0
1701619766.5207815,-2.0,-2.0,1.0,-1.0,-2.0,-2.0,-3.0,-1.0
1701619766.5207815,-1.0,-12.0,-3.0,-1.0,-1.0,-1.0,-2.0,-2.0
1701619766.5217822,-1.0,3.0,-1.0,0.0,-2.0,0.0,1.0,-1.0
1701619766.5217822,-2.0,-1.0,-1.0,0.0,-1.0,-2.0,-2.0,0.0
1701619766.5229044,0.0,-2.0,-2.0,0.0,-1.0,-1.0,0.0,-1.0
1701619766.5229044,0.0,-1.0,-1.0,0.0,-1.0,-1.0,1.0,-2.0
1701619766.526826,-1.0,-4.0,-1.0,-3.0,-1.0,-2.0,-2.0,-1.0
1701619766.526826,0.0,-2.0,-1.0,0.0,-1.0,0.0,-1.0,-2.0
1701619766.585276,-1.0,0.0,-1.0,1.0,-2.0,-2.0,-1.0,0.0
1701619766.585276,-1.0,1.0,0.0,0.0,-1.0,-1.0,-2.0,1.0
1701619766.585276,1.0,-1.0,-2.0,-1.0,0.0,0.0,0.0,-1.0
1701619766.585276,0.0,2.0,-2.0,-2.0,-2.0,-2.0,0.0,-1.0
1701619766.585276,-1.0,-2.0,-3.0,-3.0,1.0,0.0,-2.0,-3.0
1701619766.585276,-1.0,3.0,1.0,-1.0,0.0,-2.0,-1.0,-1.0
1701619766.6359599,-1.0,-1.0,-1.0,-3.0,1.0,-2.0,-1.0,-2.0
1701619766.6359599,-1.0,-5.0,-1.0,-1.0,0.0,-2.0,-2.0,-1.0
1701619766.6359599,-1.0,-2.0,0.0,0.0,0.0,-2.0,-2.0,-2.0
1701619766.6359599,0.0,2.0,-1.0,0.0,0.0,0.0,-1.0,0.0
1701619766.6359599,-1.0,-1.0,-1.0,0.0,-1.0,1.0,-1.0,-1.0
1701619766.6359599,-1.0,-3.0,0.0,-2.0,0.0,0.0,-2.0,0.0
1701619766.6359599,1.0,-2.0,1.0,0.0,-1.0,-2.0,-2.0,1.0
1701619766.6359599,0.0,-1.0,-1.0,-2.0,0.0,0.0,-1.0,-2.0
1701619766.6359599,-1.0,-3.0,-1.0,-1.0,-1.0,-2.0,-1.0,-1.0
1701619766.6359599,0.0,-2.0,0.0,-2.0,-2.0,0.0,-1.0,-2.0
1701619766.6359599,-4.0,-3.0,-1.0,-1.0,-1.0,0.0,1.0,0.0
1701619766.6359599,1.0,-3.0,-1.0,-2.0,-1.0,0.0,-2.0,-1.0
1701619766.6359599,0.0,-2.0,1.0,-1.0,-1.0,-1.0,0.0,0.0
1701619766.6359599,-1.0,-1.0,-1.0,-2.0,0.0,-2.0,0.0,0.0
1701619766.676944,-1.0,-2.0,-1.0,-1.0,0.0,-2.0,-1.0,-1.0
1701619766.678004,-1.0,0.0,0.0,0.0,0.0,0.0,-2.0,-1.0
1701619766.6855247,0.0,-2.0,-2.0,-2.0,0.0,0.0,-1.0,-3.0
1701619766.6855247,1.0,0.0,-1.0,0.0,0.0,-1.0,2.0,-1.0
1701619766.6855247,-1.0,1.0,-2.0,0.0,-2.0,2.0,1.0,-1.0
1701619766.6855247,-1.0,0.0,-1.0,-1.0,-1.0,-1.0,2.0,1.0
1701619766.6855247,-2.0,-1.0,-1.0,-2.0,-2.0,-3.0,2.0,0.0
1701619766.6855247,-2.0,1.0,0.0,-1.0,-1.0,-1.0,2.0,-1.0
1701619766.6855247,1.0,0.0,-1.0,-3.0,0.0,-2.0,3.0,0.0
1701619766.6855247,-1.0,1.0,-1.0,-2.0,-1.0,-2.0,2.0,-1.0
1701619766.7119005,-3.0,0.0,0.0,-2.0,-1.0,0.0,2.0,-1.0
1701619766.7128522,-1.0,-1.0,-2.0,-1.0,1.0,0.0,-3.0,-1.0
1701619766.742791,-1.0,6.0,0.0,-1.0,-1.0,-1.0,-13.0,-1.0
1701619766.742791,-2.0,8.0,-3.0,-2.0,-1.0,1.0,-12.0,-2.0
1701619766.742791,-2.0,11.0,-3.0,-2.0,-1.0,2.0,-12.0,-2.0
1701619766.742791,-4.0,10.0,-4.0,-1.0,-3.0,4.0,-7.0,-2.0
1701619766.742791,-5.0,10.0,-3.0,-2.0,-3.0,3.0,-2.0,-3.0
1701619766.742791,-3.0,9.0,-1.0,-1.0,-3.0,2.0,-3.0,-3.0
1701619766.742791,-5.0,5.0,-1.0,0.0,-3.0,2.0,-1.0,-2.0
1701619766.742791,-2.0,4.0,0.0,-2.0,-2.0,0.0,-3.0,-2.0
1701619766.742791,-2.0,-1.0,-1.0,-1.0,-1.0,-2.0,-2.0,-4.0
1701619766.742791,-1.0,-4.0,0.0,-1.0,-2.0,-2.0,2.0,0.0
1701619766.7439094,-1.0,-5.0,1.0,-1.0,-1.0,-1.0,2.0,0.0
1701619766.7439094,0.0,-3.0,-1.0,-1.0,-1.0,0.0,4.0,-1.0
1701619766.7983356,-2.0,-3.0,-1.0,-1.0,-4.0,0.0,5.0,0.0
1701619766.7993412,-1.0,-2.0,-1.0,-1.0,-2.0,-1.0,7.0,-1.0
1701619766.8003347,-1.0,-3.0,-1.0,0.0,-1.0,-1.0,6.0,-2.0
1701619766.8003347,-1.0,-5.0,0.0,-3.0,-1.0,-3.0,5.0,-1.0
1701619766.8003347,-2.0,-4.0,-2.0,-1.0,-1.0,0.0,6.0,0.0
1701619766.8003347,-1.0,-3.0,-1.0,0.0,-2.0,-1.0,4.0,1.0
1701619766.801339,-1.0,-1.0,-2.0,0.0,-3.0,-1.0,2.0,0.0
1701619766.801339,-1.0,-3.0,-1.0,1.0,-1.0,0.0,0.0,0.0
1701619766.801339,-2.0,-5.0,1.0,-1.0,-2.0,-2.0,1.0,-1.0
1701619766.801339,-1.0,-6.0,0.0,-3.0,-1.0,-2.0,-3.0,-1.0
1701619766.829377,-1.0,-5.0,0.0,-1.0,-1.0,-1.0,-3.0,1.0
1701619766.829377,-1.0,-3.0,-1.0,-2.0,1.0,-2.0,-4.0,1.0
1701619766.8442285,-1.0,-4.0,0.0,-2.0,1.0,-1.0,-3.0,-3.0
1701619766.8442285,-2.0,-4.0,-2.0,-1.0,0.0,-1.0,-5.0,0.0
1701619766.8442285,2.0,-4.0,-1.0,-1.0,0.0,-1.0,-2.0,-1.0
1701619766.8442285,1.0,-4.0,-1.0,-2.0,-2.0,-1.0,1.0,0.0
1701619766.8452184,2.0,-6.0,1.0,0.0,-1.0,0.0,1.0,0.0
1701619766.8477626,0.0,-5.0,0.0,-1.0,0.0,-4.0,-4.0,1.0
1701619766.849678,1.0,-7.0,-1.0,-2.0,-1.0,-5.0,-4.0,0.0
1701619766.849678,-1.0,-6.0,-3.0,-2.0,-2.0,-2.0,1.0,-2.0
1701619766.8598044,-1.0,-4.0,-1.0,-2.0,0.0,-2.0,-1.0,-2.0
1701619766.8620522,1.0,-4.0,0.0,-1.0,-1.0,-5.0,-2.0,-3.0
1701619766.8944044,0.0,-3.0,0.0,0.0,0.0,5.0,-1.0,1.0
1701619766.895353,1.0,-1.0,0.0,0.0,0.0,-4.0,-6.0,1.0
1701619766.9150832,-1.0,-1.0,-2.0,-2.0,-2.0,1.0,-1.0,-2.0
1701619766.9150832,1.0,-2.0,-2.0,-1.0,-2.0,-4.0,-1.0,2.0
1701619766.9150832,-3.0,-2.0,-2.0,-3.0,0.0,4.0,1.0,-5.0
1701619766.9150832,0.0,0.0,1.0,2.0,0.0,1.0,-5.0,-2.0
1701619766.9150832,-1.0,-4.0,-3.0,-3.0,-7.0,-3.0,1.0,-1.0
1701619766.9150832,1.0,-1.0,-3.0,1.0,1.0,2.0,1.0,1.0
1701619766.9150832,-2.0,-1.0,0.0,-4.0,-2.0,-7.0,-5.0,-2.0
1701619766.9150832,0.0,2.0,-2.0,-1.0,-1.0,1.0,0.0,-3.0
1701619766.9502447,1.0,3.0,4.0,7.0,1.0,1.0,0.0,-2.0
1701619766.9502447,-2.0,4.0,-1.0,2.0,6.0,3.0,-1.0,-4.0
1701619766.9502447,0.0,4.0,2.0,7.0,9.0,3.0,2.0,1.0
1701619766.9512866,-4.0,2.0,-3.0,-3.0,-5.0,-4.0,-1.0,-2.0
1701619766.9542794,-3.0,4.0,-6.0,-4.0,-2.0,-2.0,-3.0,-1.0
1701619766.9542794,-4.0,1.0,-1.0,3.0,-2.0,0.0,2.0,-2.0
1701619766.9553254,0.0,1.0,-3.0,-5.0,-2.0,-4.0,-1.0,0.0
1701619766.9553254,-1.0,-2.0,-2.0,-7.0,0.0,2.0,2.0,0.0
1701619766.9983556,0.0,-3.0,-3.0,-2.0,-4.0,-6.0,-1.0,2.0
1701619766.9983556,-2.0,-5.0,10.0,-3.0,-6.0,-2.0,0.0,0.0
1701619766.9983556,0.0,-3.0,0.0,-2.0,-4.0,-2.0,4.0,2.0
1701619766.9983556,-2.0,-6.0,-1.0,-6.0,-3.0,-6.0,0.0,-1.0
1701619766.9983556,0.0,-5.0,-4.0,-1.0,-1.0,-2.0,2.0,1.0
1701619766.9983556,-1.0,-3.0,-2.0,7.0,-1.0,-5.0,0.0,-3.0
1701619766.9983556,1.0,-4.0,-1.0,-3.0,0.0,2.0,7.0,-5.0
1701619766.9983556,1.0,-1.0,-1.0,-3.0,-2.0,1.0,8.0,-1.0
1701619767.0017076,-1.0,2.0,1.0,2.0,4.0,3.0,6.0,-3.0
1701619767.0017076,-1.0,3.0,-5.0,3.0,4.0,0.0,8.0,-1.0
1701619767.0076315,-1.0,6.0,2.0,-2.0,-6.0,-3.0,4.0,-3.0
1701619767.0076315,-2.0,4.0,4.0,11.0,0.0,-3.0,3.0,-4.0
1701619767.0211527,0.0,3.0,-1.0,0.0,1.0,2.0,1.0,-1.0
1701619767.029047,-3.0,3.0,-3.0,-10.0,-2.0,3.0,-9.0,-2.0
1701619767.0338821,-1.0,6.0,-6.0,-2.0,4.0,3.0,-22.0,-2.0
1701619767.0338821,-2.0,5.0,-5.0,-2.0,-2.0,4.0,-29.0,0.0
1701619767.076264,-3.0,7.0,1.0,12.0,-4.0,-2.0,-32.0,-2.0
1701619767.076264,-2.0,6.0,-7.0,-8.0,-2.0,6.0,-23.0,-2.0
1701619767.076264,-4.0,-10.0,-3.0,-4.0,-8.0,0.0,-17.0,-2.0
1701619767.076264,-1.0,12.0,2.0,-1.0,-2.0,2.0,-6.0,-1.0
1701619767.081113,-2.0,3.0,5.0,0.0,-3.0,1.0,3.0,-1.0
1701619767.081113,-4.0,-1.0,-27.0,-9.0,-5.0,2.0,12.0,1.0
1701619767.081113,-3.0,-1.0,-1.0,-4.0,-2.0,-1.0,15.0,0.0
1701619767.081113,-1.0,-2.0,2.0,4.0,0.0,1.0,13.0,0.0
1701619767.1005633,-2.0,-3.0,16.0,-3.0,0.0,-2.0,12.0,-1.0
1701619767.1005633,-1.0,-8.0,-23.0,-3.0,-1.0,-3.0,9.0,-2.0
1701619767.1005633,-1.0,-5.0,9.0,2.0,-2.0,-6.0,3.0,1.0
1701619767.1005633,0.0,-11.0,-4.0,-2.0,-1.0,-2.0,4.0,0.0
1701619767.1005633,0.0,-6.0,-3.0,4.0,1.0,-3.0,2.0,3.0
1701619767.1005633,1.0,-12.0,29.0,4.0,0.0,-4.0,-1.0,0.0
1701619767.1137786,0.0,-10.0,3.0,1.0,-2.0,-6.0,-5.0,-1.0
1701619767.1137786,4.0,-13.0,-5.0,2.0,5.0,-4.0,-2.0,2.0
1701619767.1251411,-1.0,-16.0,0.0,-10.0,0.0,-6.0,-6.0,1.0
1701619767.1253,0.0,-11.0,15.0,4.0,-4.0,-8.0,-5.0,-1.0
1701619767.126312,1.0,-8.0,11.0,6.0,2.0,0.0,-3.0,0.0
1701619767.126312,1.0,-9.0,-30.0,-16.0,-3.0,-4.0,-5.0,-2.0
1701619767.1848605,4.0,-5.0,15.0,5.0,1.0,-1.0,-2.0,-1.0
1701619767.1848605,-1.0,-15.0,-42.0,-19.0,2.0,-1.0,0.0,0.0
1701619767.1848605,-4.0,-24.0,23.0,3.0,-2.0,-4.0,-3.0,-4.0
1701619767.1848605,1.0,5.0,35.0,24.0,2.0,0.0,0.0,-1.0
1701619767.1848605,3.0,-1.0,-66.0,-12.0,2.0,2.0,1.0,4.0
1701619767.1848605,0.0,3.0,37.0,9.0,-2.0,0.0,-1.0,-2.0
1701619767.1848605,2.0,5.0,-24.0,-6.0,0.0,0.0,0.0,6.0
1701619767.1848605,-4.0,-16.0,-46.0,-20.0,-7.0,-3.0,-6.0,-17.0
1701619767.1888247,-3.0,9.0,45.0,16.0,-2.0,1.0,2.0,0.0
1701619767.1888247,3.0,7.0,-21.0,-22.0,5.0,5.0,3.0,19.0
1701619767.2192705,0.0,15.0,-25.0,12.0,-2.0,-1.0,-1.0,-21.0
1701619767.2204359,-3.0,7.0,33.0,7.0,-5.0,-3.0,-1.0,5.0
1701619767.2264822,-2.0,3.0,-2.0,-3.0,-1.0,-1.0,3.0,-1.0
1701619767.2264822,2.0,10.0,0.0,17.0,-2.0,1.0,1.0,-2.0
1701619767.2264822,-7.0,-41.0,-21.0,-16.0,-6.0,-1.0,0.0,0.0
1701619767.2264822,-3.0,8.0,-23.0,0.0,2.0,2.0,4.0,-1.0
1701619767.2275252,-3.0,-2.0,0.0,-5.0,-2.0,-1.0,-3.0,-7.0
1701619767.2275252,-3.0,-35.0,-1.0,-13.0,-4.0,-3.0,0.0,12.0
1701619767.2315328,-3.0,16.0,-6.0,-2.0,-3.0,1.0,4.0,14.0
1701619767.2315328,0.0,14.0,30.0,3.0,4.0,3.0,1.0,-8.0
1701619767.2441363,-3.0,10.0,-8.0,-3.0,-1.0,-1.0,-8.0,-6.0
1701619767.2441363,-8.0,-43.0,-31.0,-8.0,-3.0,0.0,8.0,-3.0
1701619767.2454617,16.0,94.0,54.0,34.0,6.0,8.0,5.0,-5.0
1701619767.2454617,-15.0,-7.0,-21.0,-9.0,-5.0,-2.0,-4.0,-2.0
1701619767.2587128,-3.0,-23.0,28.0,10.0,0.0,1.0,2.0,-3.0
1701619767.2688932,-2.0,22.0,-2.0,-12.0,-3.0,-6.0,-11.0,-8.0
1701619767.2701254,-7.0,-25.0,-23.0,-16.0,-4.0,-3.0,-1.0,-2.0
1701619767.2701254,3.0,8.0,15.0,19.0,3.0,4.0,3.0,5.0
1701619767.312644,3.0,2.0,2.0,-17.0,-10.0,-6.0,-7.0,-3.0
1701619767.312644,0.0,53.0,51.0,14.0,0.0,2.0,4.0,-4.0
1701619767.312644,-5.0,-30.0,-60.0,-15.0,-5.0,-3.0,0.0,2.0
1701619767.3137095,3.0,16.0,1.0,-3.0,3.0,1.0,2.0,1.0
1701619767.3425932,4.0,73.0,-7.0,-6.0,-1.0,0.0,7.0,5.0
1701619767.3435977,3.0,11.0,20.0,8.0,-2.0,0.0,-5.0,-6.0
1701619767.3537967,1.0,2.0,24.0,4.0,1.0,-1.0,-3.0,-4.0
1701619767.3537967,-2.0,-25.0,-14.0,-6.0,-2.0,-1.0,-2.0,0.0
1701619767.3589997,-1.0,5.0,-9.0,-3.0,2.0,-1.0,3.0,0.0
1701619767.3589997,1.0,-2.0,7.0,7.0,0.0,-2.0,-1.0,-5.0
1701619767.3589997,-3.0,-21.0,-5.0,-7.0,-2.0,-5.0,5.0,3.0
1701619767.3589997,3.0,-6.0,-4.0,-8.0,-6.0,-2.0,-10.0,3.0
1701619767.3619974,-12.0,-25.0,0.0,-3.0,-3.0,-2.0,-4.0,-3.0
1701619767.3619974,-2.0,-1.0,-10.0,3.0,2.0,1.0,-2.0,-5.0
1701619767.3619974,-1.0,-26.0,-9.0,-8.0,-1.0,-2.0,-7.0,1.0
1701619767.3619974,-6.0,-9.0,14.0,-1.0,-3.0,-6.0,-14.0,-7.0
1701619767.3701239,21.0,-1.0,-21.0,2.0,0.0,0.0,28.0,11.0
1701619767.3701239,-16.0,-11.0,-12.0,0.0,-2.0,-4.0,-20.0,-15.0
1701619767.401538,-4.0,38.0,8.0,-8.0,-6.0,-6.0,6.0,22.0
1701619767.401538,-12.0,-53.0,8.0,0.0,4.0,3.0,17.0,-22.0
1701619767.401538,13.0,14.0,3.0,-2.0,-1.0,-3.0,-16.0,-1.0
1701619767.401538,1.0,4.0,-1.0,-3.0,-4.0,-4.0,1.0,-2.0
1701619767.401538,-2.0,4.0,-9.0,0.0,2.0,2.0,-10.0,-12.0
1701619767.401538,2.0,3.0,-8.0,-2.0,0.0,2.0,-5.0,9.0
1701619767.4026697,-4.0,-34.0,-9.0,2.0,4.0,1.0,4.0,2.0
1701619767.4026697,-1.0,11.0,28.0,-3.0,-7.0,-4.0,-1.0,-2.0
1701619767.4118385,-9.0,-45.0,-9.0,3.0,4.0,-5.0,-13.0,-22.0
1701619767.4118385,13.0,5.0,25.0,0.0,-3.0,-4.0,6.0,24.0
1701619767.4242435,-3.0,-13.0,-45.0,-13.0,-3.0,1.0,-8.0,-14.0
1701619767.4252422,23.0,36.0,14.0,5.0,-2.0,-5.0,-14.0,18.0
1701619767.4721699,-5.0,8.0,8.0,1.0,1.0,3.0,10.0,-4.0
1701619767.4721699,-2.0,13.0,-2.0,-2.0,0.0,0.0,4.0,4.0
1701619767.4766684,-11.0,-23.0,17.0,5.0,0.0,-2.0,-18.0,-10.0
1701619767.4766684,0.0,-34.0,-14.0,-2.0,-2.0,0.0,9.0,-5.0
1701619767.4766684,3.0,17.0,4.0,-1.0,-2.0,0.0,-2.0,1.0
1701619767.4766684,-4.0,-49.0,-13.0,-5.0,-2.0,-6.0,-4.0,-8.0
1701619767.4941404,-9.0,-12.0,9.0,0.0,-2.0,-2.0,-2.0,0.0
1701619767.4941404,-5.0,-7.0,-14.0,-2.0,-3.0,-3.0,0.0,-3.0
1701619767.51768,-4.0,7.0,7.0,4.0,4.0,2.0,3.0,1.0
1701619767.51768,-4.0,-11.0,-5.0,1.0,0.0,0.0,0.0,3.0
1701619767.5203404,4.0,25.0,1.0,0.0,-1.0,-2.0,-4.0,-3.0
1701619767.5203404,-2.0,-9.0,11.0,-4.0,-3.0,-5.0,-3.0,-2.0
1701619767.5230894,11.0,96.0,14.0,2.0,1.0,0.0,-1.0,1.0
1701619767.5230894,1.0,47.0,-3.0,0.0,2.0,1.0,-1.0,-7.0
1701619767.5230894,-3.0,-24.0,-8.0,8.0,4.0,7.0,11.0,16.0
1701619767.5230894,-18.0,-4.0,13.0,3.0,2.0,-1.0,-3.0,-13.0
1701619767.5241363,-3.0,-59.0,-39.0,-30.0,-9.0,-7.0,-9.0,-4.0
1701619767.5241363,12.0,6.0,32.0,17.0,6.0,6.0,2.0,0.0
1701619767.5300515,-7.0,2.0,-16.0,-10.0,-4.0,-3.0,2.0,1.0
1701619767.5310311,5.0,84.0,-17.0,-10.0,-7.0,-2.0,3.0,-1.0
1701619767.5320287,15.0,7.0,27.0,21.0,7.0,10.0,15.0,25.0
1701619767.5320287,1.0,6.0,-10.0,-20.0,-3.0,-4.0,1.0,4.0
1701619767.5414999,4.0,-6.0,25.0,14.0,2.0,9.0,7.0,2.0
1701619767.5414999,-2.0,-36.0,-20.0,12.0,3.0,-1.0,-3.0,-2.0
1701619767.548519,-12.0,-22.0,-30.0,-23.0,-6.0,-5.0,-16.0,-18.0
1701619767.548519,2.0,35.0,12.0,15.0,-12.0,-7.0,3.0,-1.0
1701619767.599948,5.0,11.0,21.0,31.0,22.0,13.0,6.0,9.0
1701619767.599948,-3.0,19.0,23.0,-19.0,-13.0,-5.0,2.0,-11.0
1701619767.599948,0.0,40.0,-21.0,-44.0,-15.0,-5.0,-1.0,5.0
1701619767.599948,13.0,9.0,-8.0,-1.0,0.0,6.0,7.0,16.0
1701619767.6272814,-20.0,-18.0,-1.0,1.0,-6.0,-12.0,-21.0,-25.0
1701619767.6282847,7.0,-35.0,-33.0,6.0,15.0,14.0,16.0,17.0
1701619767.635527,-2.0,46.0,17.0,7.0,-3.0,-5.0,-3.0,-6.0
1701619767.635527,-4.0,2.0,5.0,-38.0,-12.0,-6.0,8.0,-9.0
1701619767.635527,6.0,18.0,3.0,6.0,-3.0,0.0,-9.0,11.0
1701619767.635527,-2.0,-41.0,-18.0,-14.0,6.0,1.0,3.0,0.0
1701619767.635527,12.0,-27.0,37.0,45.0,11.0,0.0,1.0,5.0
1701619767.635527,-18.0,-33.0,-38.0,14.0,-1.0,1.0,9.0,-1.0
1701619767.635527,-9.0,2.0,-1.0,-10.0,0.0,-2.0,3.0,-19.0
1701619767.635527,18.0,75.0,11.0,8.0,-3.0,4.0,-3.0,17.0
1701619767.635527,1.0,-28.0,11.0,-10.0,-3.0,-6.0,-20.0,-7.0
1701619767.635527,-4.0,75.0,15.0,24.0,8.0,-5.0,-22.0,-8.0
1701619767.648596,2.0,-6.0,5.0,-25.0,-3.0,-5.0,5.0,-2.0
1701619767.648596,-15.0,-48.0,-67.0,-13.0,1.0,5.0,1.0,-6.0
1701619767.6518536,-11.0,9.0,11.0,5.0,-7.0,1.0,-1.0,-1.0
1701619767.6518536,2.0,66.0,13.0,1.0,2.0,3.0,5.0,1.0
1701619767.6640077,4.0,28.0,-4.0,0.0,1.0,3.0,24.0,7.0
1701619767.6640077,1.0,19.0,-2.0,-2.0,5.0,2.0,-12.0,-5.0
1701619767.6734545,19.0,2.0,23.0,29.0,8.0,11.0,20.0,24.0
1701619767.6734545,-24.0,-114.0,-48.0,-38.0,-9.0,-12.0,-22.0,-17.0
1701619767.68175,-1.0,25.0,-10.0,-1.0,8.0,3.0,-4.0,-2.0
1701619767.68175,2.0,2.0,14.0,35.0,3.0,1.0,10.0,2.0
1701619767.7090747,-4.0,21.0,45.0,-7.0,0.0,-7.0,-8.0,-18.0
1701619767.7097082,2.0,-21.0,-9.0,-14.0,-4.0,-2.0,-9.0,-1.0
1701619767.781918,1.0,-28.0,7.0,-6.0,-13.0,-6.0,-2.0,2.0
1701619767.781918,-7.0,-8.0,40.0,-4.0,-7.0,-7.0,-9.0,-9.0
1701619767.7856205,-5.0,-55.0,-26.0,-16.0,2.0,4.0,5.0,1.0
1701619767.7856205,-2.0,-5.0,-58.0,-32.0,-7.0,5.0,13.0,8.0
1701619767.7856205,4.0,4.0,23.0,34.0,1.0,-7.0,-15.0,-8.0
1701619767.7856205,-17.0,-14.0,-16.0,1.0,-1.0,1.0,-5.0,-4.0
1701619767.7856205,-6.0,-6.0,-9.0,-9.0,-8.0,-5.0,12.0,3.0
1701619767.7856205,7.0,72.0,7.0,6.0,5.0,-3.0,-2.0,-1.0
1701619767.7856205,0.0,-17.0,-16.0,-6.0,7.0,5.0,4.0,5.0
1701619767.786617,-8.0,-31.0,22.0,15.0,-4.0,-11.0,-9.0,-7.0
1701619767.786617,3.0,2.0,-41.0,1.0,-2.0,5.0,9.0,2.0
1701619767.786617,3.0,-21.0,35.0,-15.0,4.0,3.0,3.0,3.0
1701619767.8175442,-13.0,-23.0,4.0,29.0,-20.0,-10.0,-6.0,-4.0
1701619767.8175442,5.0,-55.0,17.0,-7.0,16.0,4.0,2.0,2.0
1701619767.8282428,-21.0,-21.0,-43.0,4.0,-7.0,-13.0,-19.0,-11.0
1701619767.8282428,-5.0,-9.0,25.0,33.0,2.0,-2.0,-7.0,-13.0
1701619767.8282428,13.0,0.0,-28.0,-60.0,-7.0,-2.0,-3.0,8.0
1701619767.8282428,5.0,-8.0,48.0,18.0,7.0,3.0,1.0,3.0
1701619767.8282428,-2.0,-7.0,32.0,4.0,-5.0,1.0,-2.0,-13.0
1701619767.8282428,14.0,-12.0,-29.0,-5.0,-5.0,0.0,2.0,14.0
1701619767.8683069,-10.0,3.0,-4.0,42.0,15.0,-2.0,-2.0,-6.0
1701619767.8683069,-6.0,27.0,-3.0,-8.0,-10.0,4.0,-2.0,-5.0
1701619767.8683069,0.0,56.0,26.0,28.0,14.0,-3.0,-7.0,-6.0
1701619767.8683069,-7.0,9.0,19.0,7.0,-5.0,-5.0,-4.0,-2.0
1701619767.870307,3.0,12.0,-12.0,-35.0,-2.0,-2.0,-1.0,5.0
1701619767.870307,8.0,11.0,-65.0,-20.0,-21.0,-19.0,-5.0,3.0
1701619767.870307,-10.0,-23.0,26.0,56.0,11.0,2.0,-6.0,-16.0
1701619767.870307,-1.0,-23.0,3.0,-7.0,-14.0,-5.0,-2.0,4.0
1701619767.870307,4.0,3.0,4.0,-20.0,4.0,0.0,-3.0,0.0
1701619767.870307,0.0,4.0,-1.0,-9.0,-5.0,4.0,2.0,2.0
1701619767.870307,-1.0,-48.0,-19.0,-27.0,-3.0,-6.0,-5.0,-1.0
1701619767.870307,-5.0,-7.0,-41.0,-12.0,1.0,-4.0,-2.0,-4.0
1701619767.870307,-3.0,-34.0,-14.0,8.0,4.0,1.0,-3.0,-5.0
1701619767.8713546,4.0,92.0,15.0,-2.0,2.0,3.0,6.0,1.0
1701619767.8726406,0.0,8.0,-12.0,-21.0,11.0,8.0,8.0,2.0
1701619767.8744576,14.0,47.0,23.0,23.0,7.0,11.0,27.0,15.0
1701619767.9324896,-9.0,1.0,4.0,-13.0,-12.0,-3.0,-16.0,-6.0
1701619767.9324896,-3.0,-27.0,6.0,23.0,8.0,1.0,2.0,7.0
1701619767.9324896,-13.0,1.0,-28.0,-36.0,-12.0,-3.0,-9.0,-34.0
1701619767.9324896,-8.0,-7.0,36.0,21.0,-2.0,-15.0,34.0,13.0
1701619767.9324896,10.0,10.0,-1.0,2.0,-10.0,-7.0,46.0,51.0
1701619767.9324896,73.0,5.0,10.0,-28.0,0.0,13.0,54.0,25.0
1701619767.9324896,-28.0,-4.0,-26.0,-30.0,-8.0,-14.0,-7.0,-17.0
1701619767.9324896,-13.0,-28.0,-23.0,-29.0,3.0,9.0,-18.0,-31.0
1701619767.9324896,-23.0,-1.0,29.0,31.0,-4.0,-8.0,-41.0,-23.0
1701619767.9324896,-15.0,-24.0,-14.0,-27.0,-2.0,14.0,-11.0,26.0
1701619767.9324896,17.0,-8.0,-11.0,-12.0,-7.0,-19.0,-4.0,4.0
1701619767.9324896,4.0,-5.0,2.0,31.0,1.0,-8.0,-27.0,-3.0
1701619767.9882839,-4.0,16.0,15.0,-16.0,0.0,11.0,16.0,-14.0
1701619767.9882839,-10.0,13.0,-21.0,-22.0,-5.0,-6.0,-18.0,-16.0
1701619767.9882839,9.0,19.0,16.0,-20.0,-2.0,11.0,39.0,23.0
1701619767.9882839,-3.0,25.0,-25.0,-9.0,0.0,3.0,-11.0,26.0
1701619767.989333,10.0,17.0,-19.0,-40.0,-6.0,-3.0,4.0,41.0
1701619767.989333,-32.0,-6.0,6.0,25.0,-8.0,-8.0,-34.0,-119.0
1701619767.989333,4.0,-16.0,-7.0,11.0,4.0,0.0,72.0,32.0
1701619767.989333,15.0,-45.0,18.0,32.0,3.0,13.0,23.0,78.0
1701619768.0303597,-3.0,-53.0,-11.0,-59.0,-13.0,-7.0,-9.0,-86.0
1701619768.0314054,-15.0,-55.0,-32.0,-17.0,-3.0,-11.0,-44.0,-6.0
1701619768.0314443,2.0,-28.0,12.0,40.0,11.0,7.0,0.0,17.0
1701619768.0314443,-20.0,-21.0,9.0,-27.0,-1.0,-6.0,-36.0,-104.0
1701619768.0314443,9.0,-5.0,9.0,69.0,19.0,8.0,13.0,52.0
1701619768.0314443,-8.0,12.0,7.0,19.0,-8.0,-21.0,38.0,33.0
1701619768.0314443,8.0,33.0,4.0,-15.0,-7.0,9.0,-16.0,-9.0
1701619768.0314443,8.0,42.0,-9.0,-1.0,-8.0,1.0,5.0,28.0
1701619768.0314443,-1.0,44.0,-6.0,-3.0,2.0,4.0,-6.0,1.0
1701619768.0314443,-1.0,16.0,1.0,-2.0,19.0,-2.0,10.0,4.0
1701619768.0588439,0.0,-5.0,2.0,20.0,-23.0,-15.0,-28.0,5.0
1701619768.0588439,2.0,-17.0,-1.0,-9.0,-4.0,8.0,-25.0,-16.0
1701619768.0847197,-5.0,-16.0,-1.0,8.0,37.0,9.0,-6.0,-25.0
1701619768.0847197,2.0,-12.0,13.0,26.0,8.0,6.0,-1.0,17.0
1701619768.0847197,3.0,-10.0,-7.0,-19.0,-5.0,-5.0,-12.0,5.0
1701619768.0847197,-7.0,10.0,6.0,-2.0,-14.0,-11.0,10.0,-16.0
1701619768.0847197,1.0,-2.0,0.0,-1.0,-24.0,-12.0,0.0,3.0
1701619768.0847197,-1.0,-4.0,0.0,-5.0,-5.0,-5.0,-4.0,15.0
1701619768.0847197,-3.0,-3.0,1.0,-8.0,-6.0,-6.0,-7.0,-14.0
1701619768.0847197,-3.0,-11.0,-3.0,-3.0,-13.0,-10.0,4.0,-6.0
1701619768.0913644,-1.0,-1.0,-4.0,7.0,-3.0,2.0,4.0,4.0
1701619768.0913644,-1.0,5.0,0.0,-15.0,3.0,7.0,-4.0,-1.0
1701619768.1334913,-3.0,1.0,1.0,5.0,14.0,8.0,-6.0,-9.0
1701619768.1334913,2.0,3.0,1.0,11.0,17.0,4.0,-2.0,6.0
1701619768.1334913,-3.0,4.0,-9.0,-6.0,1.0,0.0,-15.0,-4.0
1701619768.1334913,1.0,22.0,3.0,-3.0,-18.0,-4.0,-6.0,-7.0
1701619768.1334913,-1.0,43.0,12.0,15.0,11.0,8.0,-6.0,7.0
1701619768.1334913,0.0,3.0,-2.0,2.0,14.0,-1.0,-4.0,0.0
1701619768.1334913,-3.0,5.0,-2.0,-5.0,-10.0,-6.0,-3.0,-5.0
1701619768.1334913,2.0,-9.0,-6.0,-7.0,-15.0,-7.0,-4.0,0.0
1701619768.1334913,-7.0,-79.0,-7.0,0.0,-6.0,-2.0,-10.0,-1.0
1701619768.1334913,-2.0,9.0,-1.0,-3.0,-3.0,-5.0,2.0,-4.0
1701619768.1498322,-1.0,-7.0,-2.0,-5.0,-11.0,-3.0,1.0,-5.0
1701619768.1498322,-1.0,6.0,3.0,2.0,1.0,2.0,4.0,3.0
1701619768.1548266,-1.0,-11.0,-2.0,4.0,3.0,0.0,-3.0,0.0
1701619768.1548266,-2.0,-16.0,-1.0,-1.0,1.0,-1.0,1.0,-4.0
1701619768.2058883,3.0,-11.0,-1.0,-2.0,-5.0,0.0,-2.0,0.0
1701619768.2058883,-3.0,-22.0,-5.0,3.0,3.0,-2.0,-3.0,1.0
1701619768.2072847,2.0,12.0,-3.0,-2.0,-3.0,-1.0,0.0,0.0
1701619768.2072847,-2.0,-6.0,1.0,-3.0,0.0,2.0,-3.0,-3.0
1701619768.2131126,0.0,12.0,0.0,0.0,-2.0,-3.0,-6.0,0.0
1701619768.2131126,-2.0,-1.0,1.0,1.0,-3.0,-2.0,1.0,-2.0
1701619768.2131126,-1.0,11.0,2.0,-3.0,3.0,1.0,0.0,-4.0
1701619768.2131126,1.0,2.0,-3.0,-1.0,4.0,3.0,-1.0,3.0
1701619768.2544594,-3.0,-4.0,-1.0,0.0,0.0,-2.0,3.0,-1.0
1701619768.2544594,-3.0,1.0,8.0,5.0,5.0,5.0,8.0,-1.0
1701619768.2544594,1.0,-1.0,-3.0,-1.0,1.0,-1.0,-4.0,-1.0
1701619768.2544594,-3.0,-14.0,-41.0,-11.0,-5.0,-3.0,-3.0,-2.0
1701619768.2544594,0.0,3.0,4.0,2.0,0.0,-3.0,-7.0,0.0
1701619768.2544594,-5.0,-4.0,16.0,0.0,-6.0,-4.0,-6.0,0.0
1701619768.2544594,2.0,10.0,-7.0,2.0,-2.0,-1.0,-7.0,0.0
1701619768.2544594,-2.0,-5.0,-18.0,-10.0,-6.0,-10.0,-18.0,1.0
1701619768.2544594,-4.0,1.0,-1.0,-2.0,-6.0,10.0,49.0,3.0
1701619768.2544594,-6.0,-4.0,-6.0,-4.0,-2.0,4.0,-3.0,-9.0
1701619768.2544594,2.0,4.0,18.0,4.0,-4.0,0.0,-23.0,1.0
1701619768.2544594,-1.0,-2.0,13.0,2.0,1.0,-1.0,3.0,-5.0
1701619768.3035007,1.0,-4.0,-9.0,3.0,18.0,-3.0,-7.0,5.0
1701619768.3035007,0.0,-1.0,5.0,4.0,5.0,-4.0,-3.0,-8.0
1701619768.3035007,-2.0,2.0,-7.0,-6.0,-6.0,-5.0,3.0,3.0
1701619768.3035007,-2.0,-1.0,4.0,-5.0,-14.0,-2.0,2.0,-5.0
1701619768.3035007,-3.0,1.0,-1.0,-4.0,-15.0,-4.0,-22.0,-4.0
1701619768.3035007,-2.0,0.0,-1.0,3.0,15.0,3.0,1.0,0.0
1701619768.3055015,2.0,5.0,-6.0,2.0,12.0,6.0,10.0,1.0
1701619768.3055015,2.0,2.0,11.0,1.0,0.0,-2.0,0.0,8.0
1701619768.3067164,0.0,-23.0,0.0,-4.0,-6.0,-6.0,-2.0,-13.0
1701619768.3067164,2.0,68.0,-3.0,-2.0,-10.0,-5.0,-7.0,1.0
1701619768.3135772,-2.0,1.0,-2.0,-2.0,-6.0,1.0,2.0,-5.0
1701619768.3135772,-3.0,-2.0,6.0,2.0,5.0,0.0,-3.0,-2.0
1701619768.3636239,-1.0,-2.0,-5.0,-2.0,-1.0,-1.0,-8.0,2.0
1701619768.3636239,-1.0,-22.0,-3.0,-2.0,-3.0,-3.0,1.0,1.0
1701619768.3636239,-1.0,-6.0,-22.0,-11.0,2.0,-1.0,-2.0,-4.0
1701619768.3636239,1.0,16.0,11.0,5.0,2.0,3.0,8.0,3.0
1701619768.3636239,2.0,13.0,41.0,26.0,3.0,0.0,-5.0,-1.0
1701619768.3636239,0.0,-17.0,20.0,8.0,0.0,2.0,0.0,0.0
1701619768.3636239,0.0,-2.0,-55.0,-42.0,-4.0,0.0,4.0,3.0
1701619768.3636239,-7.0,-20.0,27.0,9.0,1.0,1.0,-3.0,-5.0
1701619768.3822477,-6.0,2.0,-33.0,15.0,-9.0,-5.0,-5.0,-4.0
1701619768.383473,-5.0,-14.0,53.0,-9.0,-6.0,-3.0,3.0,0.0
1701619768.4065006,3.0,1.0,-15.0,13.0,4.0,2.0,-1.0,0.0
1701619768.4065006,-1.0,1.0,1.0,-20.0,3.0,1.0,1.0,-3.0
1701619768.410719,8.0,10.0,-38.0,-1.0,13.0,6.0,3.0,5.0
1701619768.410719,1.0,-1.0,37.0,27.0,-4.0,-3.0,0.0,12.0
1701619768.4117706,-1.0,7.0,21.0,20.0,-5.0,-8.0,-7.0,-20.0
1701619768.4117706,-6.0,-9.0,27.0,-4.0,-4.0,-3.0,-3.0,-4.0
1701619768.4117706,-5.0,-9.0,-21.0,-13.0,3.0,3.0,4.0,1.0
1701619768.4117706,3.0,-5.0,-42.0,-18.0,2.0,0.0,-1.0,1.0
1701619768.4117706,-1.0,-7.0,3.0,-7.0,2.0,0.0,1.0,4.0
1701619768.4117706,4.0,-1.0,-31.0,19.0,5.0,3.0,6.0,0.0
1701619768.427729,-3.0,3.0,67.0,4.0,-12.0,-7.0,-7.0,-5.0
1701619768.427729,-3.0,-17.0,-68.0,-17.0,-4.0,-1.0,-2.0,-4.0
1701619768.431829,0.0,8.0,29.0,4.0,1.0,1.0,0.0,2.0
1701619768.431829,1.0,5.0,-3.0,5.0,0.0,1.0,1.0,-2.0
1701619768.4928226,-2.0,2.0,-28.0,-24.0,-1.0,-1.0,-1.0,3.0
1701619768.4939816,-1.0,-18.0,-8.0,-2.0,2.0,1.0,5.0,-3.0
1701619768.4988108,-1.0,-6.0,-11.0,-3.0,1.0,2.0,3.0,1.0
1701619768.4988108,-2.0,4.0,19.0,-2.0,-11.0,-8.0,-5.0,-3.0
1701619768.507773,-6.0,-12.0,-21.0,-21.0,-1.0,-4.0,-9.0,-3.0
1701619768.507773,-1.0,3.0,26.0,35.0,1.0,-1.0,-2.0,-3.0
1701619768.507773,-2.0,-1.0,13.0,1.0,-4.0,-4.0,-3.0,1.0
1701619768.507773,0.0,-7.0,-59.0,-26.0,-3.0,1.0,0.0,-1.0
1701619768.507773,1.0,14.0,37.0,16.0,-3.0,-1.0,2.0,-2.0
1701619768.507773,2.0,-8.0,-26.0,-17.0,2.0,1.0,0.0,-1.0
1701619768.507773,-4.0,-1.0,7.0,7.0,3.0,2.0,0.0,1.0
1701619768.507773,-3.0,-11.0,-5.0,-24.0,-7.0,-3.0,-1.0,-2.0
1701619768.5391684,0.0,-8.0,26.0,20.0,0.0,-1.0,1.0,-2.0
1701619768.5391684,-1.0,4.0,-14.0,-16.0,2.0,3.0,0.0,1.0
1701619768.5391684,-1.0,19.0,14.0,8.0,-8.0,-6.0,-5.0,0.0
1701619768.5391684,1.0,3.0,-2.0,5.0,5.0,3.0,3.0,1.0
1701619768.5391684,0.0,-15.0,-21.0,-6.0,-1.0,-2.0,-4.0,-2.0
1701619768.5391684,-1.0,3.0,1.0,-2.0,-2.0,-1.0,1.0,-2.0
1701619768.5528064,-2.0,-11.0,-7.0,-8.0,-3.0,-1.0,-2.0,-3.0
1701619768.5538054,-1.0,3.0,2.0,12.0,2.0,0.0,4.0,1.0
1701619768.554976,-1.0,6.0,-6.0,-11.0,-4.0,-2.0,-4.0,-2.0
1701619768.554976,-4.0,-1.0,-7.0,-1.0,-5.0,-4.0,-5.0,-4.0
1701619768.554976,-2.0,-5.0,3.0,-1.0,-3.0,-4.0,-4.0,0.0
1701619768.554976,0.0,5.0,2.0,1.0,1.0,1.0,1.0,1.0
1701619768.5695775,-1.0,0.0,0.0,-2.0,-4.0,-2.0,0.0,0.0
1701619768.5695775,0.0,2.0,-4.0,-3.0,-2.0,-3.0,-4.0,1.0
1701619768.5739596,-1.0,-3.0,-5.0,0.0,-1.0,1.0,0.0,-1.0
1701619768.5739596,0.0,0.0,5.0,4.0,-2.0,-1.0,-2.0,-3.0
1701619768.6180468,-3.0,-1.0,-2.0,-4.0,-2.0,-2.0,-1.0,-3.0
1701619768.6183417,-1.0,-2.0,-6.0,0.0,0.0,-2.0,0.0,-1.0
1701619768.6347537,-3.0,-3.0,4.0,-3.0,-2.0,-3.0,0.0,0.0
1701619768.6347537,-1.0,0.0,-3.0,2.0,0.0,-2.0,-4.0,1.0
1701619768.6347537,-2.0,-2.0,-3.0,-3.0,-1.0,2.0,2.0,-1.0
1701619768.6347537,1.0,3.0,-8.0,-6.0,0.0,0.0,-1.0,-2.0
1701619768.6347537,-3.0,-2.0,6.0,-2.0,-1.0,0.0,-2.0,0.0
1701619768.6347537,-2.0,3.0,16.0,13.0,-2.0,-2.0,-4.0,-4.0
1701619768.6389773,0.0,0.0,-21.0,-11.0,-3.0,-2.0,-2.0,13.0
1701619768.6389773,-2.0,-2.0,6.0,-3.0,-1.0,-2.0,-3.0,-17.0
1701619768.6389773,0.0,-5.0,-9.0,-2.0,0.0,0.0,-2.0,-1.0
1701619768.6389773,0.0,0.0,-3.0,-1.0,1.0,-2.0,1.0,2.0
1701619768.6677067,-1.0,1.0,3.0,0.0,0.0,1.0,2.0,-2.0
1701619768.6688552,0.0,0.0,-8.0,2.0,1.0,0.0,2.0,5.0
1701619768.6951923,0.0,-2.0,2.0,0.0,-1.0,2.0,1.0,-1.0
1701619768.6951923,-2.0,-2.0,3.0,-12.0,-5.0,-2.0,-4.0,-2.0
1701619768.6981316,-1.0,-1.0,5.0,5.0,-1.0,-2.0,0.0,-3.0
1701619768.6981316,0.0,1.0,0.0,-2.0,-2.0,-1.0,-3.0,2.0
1701619768.6991305,-1.0,-3.0,0.0,5.0,0.0,-1.0,-1.0,-5.0
1701619768.6991305,-1.0,-3.0,-4.0,0.0,0.0,-1.0,-2.0,2.0
1701619768.7300498,-2.0,0.0,3.0,-4.0,0.0,-1.0,0.0,-5.0
1701619768.7310476,-2.0,-3.0,-11.0,0.0,-1.0,0.0,-1.0,0.0
1701619768.739241,0.0,-1.0,-4.0,-3.0,-2.0,0.0,1.0,1.0
1701619768.739241,1.0,-1.0,-10.0,-2.0,1.0,0.0,1.0,-3.0
1701619768.739241,-2.0,1.0,14.0,6.0,-2.0,-1.0,-2.0,-4.0
1701619768.739241,-1.0,-1.0,3.0,0.0,-1.0,0.0,0.0,-1.0
1701619768.739241,-2.0,-3.0,-2.0,-1.0,0.0,-1.0,-1.0,0.0
1701619768.739241,-2.0,1.0,-9.0,-3.0,-1.0,0.0,-1.0,-1.0
1701619768.739241,0.0,-1.0,-5.0,-2.0,-1.0,1.0,-1.0,-3.0
1701619768.739241,-1.0,-1.0,4.0,0.0,-3.0,-2.0,0.0,2.0
1701619768.739241,-1.0,-1.0,-3.0,-4.0,-1.0,-1.0,-1.0,-1.0
1701619768.739241,-2.0,-1.0,4.0,1.0,1.0,-1.0,-3.0,-2.0
1701619768.7529247,-3.0,-3.0,-7.0,-4.0,-1.0,-3.0,-1.0,-1.0
1701619768.7529247,-2.0,-1.0,9.0,7.0,-1.0,0.0,-1.0,1.0
1701619768.7539232,-1.0,-3.0,-3.0,-2.0,-1.0,-1.0,-2.0,-1.0
1701619768.7547848,0.0,-1.0,1.0,2.0,-2.0,-2.0,-2.0,-1.0
1701619768.803458,0.0,-1.0,-4.0,-2.0,-1.0,0.0,-2.0,-1.0
1701619768.803458,-1.0,-1.0,-3.0,-3.0,-1.0,-1.0,0.0,-1.0
1701619768.803458,-2.0,0.0,3.0,0.0,-2.0,-2.0,-1.0,-1.0
1701619768.803458,-1.0,-2.0,1.0,1.0,0.0,0.0,-1.0,-2.0
1701619768.803458,-1.0,-1.0,-5.0,-2.0,-1.0,0.0,-2.0,-1.0
1701619768.803458,-1.0,0.0,-1.0,-2.0,-2.0,-1.0,-2.0,-2.0
1701619768.803458,0.0,1.0,4.0,2.0,-2.0,-1.0,-2.0,-1.0
1701619768.803458,-2.0,-2.0,-2.0,-1.0,-1.0,-2.0,-2.0,1.0
1701619768.8066642,-2.0,-2.0,-4.0,-3.0,-1.0,-3.0,-1.0,-5.0
1701619768.8066642,0.0,-1.0,0.0,0.0,0.0,-1.0,0.0,0.0
1701619768.8143697,0.0,-2.0,0.0,-2.0,1.0,0.0,0.0,0.0
1701619768.8143697,-1.0,-2.0,-3.0,0.0,-1.0,0.0,2.0,12.0
1701619768.8675532,-1.0,-2.0,-2.0,0.0,0.0,-1.0,-3.0,-19.0
1701619768.8675532,-2.0,-2.0,0.0,-1.0,-2.0,-1.0,-2.0,-1.0
1701619768.868553,1.0,-1.0,2.0,3.0,-2.0,-2.0,0.0,-4.0
1701619768.868553,1.0,0.0,0.0,0.0,0.0,0.0,-3.0,-3.0
1701619768.868553,-2.0,0.0,-4.0,-2.0,1.0,2.0,4.0,8.0
1701619768.868553,0.0,-1.0,-3.0,-1.0,1.0,0.0,-1.0,-1.0
1701619768.868553,0.0,0.0,-3.0,-3.0,-3.0,-3.0,-3.0,-1.0
1701619768.868553,0.0,-1.0,2.0,0.0,-1.0,-2.0,-1.0,-3.0
1701619768.868553,-1.0,0.0,2.0,0.0,-1.0,-1.0,-2.0,2.0
1701619768.868553,-1.0,0.0,-4.0,-4.0,-1.0,-1.0,-1.0,-2.0
1701619768.8745973,-2.0,0.0,0.0,1.0,1.0,2.0,-1.0,1.0
1701619768.8745973,0.0,-1.0,-1.0,-3.0,-2.0,-3.0,0.0,-4.0
1701619768.9208732,1.0,-1.0,-1.0,-2.0,0.0,-3.0,-1.0,3.0
1701619768.9208732,-3.0,-2.0,2.0,0.0,0.0,-2.0,-5.0,-4.0
1701619768.9208732,-2.0,-2.0,-2.0,-1.0,-2.0,0.0,0.0,-1.0
1701619768.9208732,-2.0,-1.0,0.0,0.0,0.0,1.0,1.0,0.0
1701619768.9208732,1.0,0.0,-1.0,-2.0,-2.0,0.0,0.0,-8.0
1701619768.9208732,0.0,-2.0,0.0,-1.0,1.0,-1.0,0.0,1.0
1701619768.9208732,-2.0,-3.0,-2.0,-2.0,0.0,-1.0,-3.0,-2.0
1701619768.9208732,0.0,-1.0,-1.0,-2.0,-1.0,-2.0,-3.0,-3.0
1701619768.972402,-2.0,-1.0,-1.0,1.0,-1.0,-1.0,-2.0,3.0
1701619768.972402,0.0,-1.0,-1.0,-3.0,-3.0,-2.0,1.0,1.0
1701619768.972402,-2.0,-2.0,0.0,-1.0,0.0,0.0,-1.0,0.0
1701619768.972402,-2.0,-1.0,1.0,1.0,-1.0,-1.0,0.0,-3.0
1701619768.9748657,-1.0,-1.0,-1.0,-1.0,0.0,-2.0,-3.0,3.0
1701619768.9748657,-2.0,-2.0,-1.0,-1.0,-2.0,-1.0,1.0,-3.0
1701619768.9748657,2.0,-1.0,-3.0,1.0,-1.0,-1.0,-1.0,-2.0
1701619768.9748657,-1.0,-3.0,-4.0,-1.0,-2.0,0.0,-1.0,-1.0
1701619768.9748657,-1.0,-4.0,0.0,-1.0,0.0,-2.0,-2.0,-1.0
1701619768.9748657,-4.0,-2.0,0.0,-3.0,-1.0,-2.0,-2.0,1.0
1701619768.9748657,-1.0,0.0,0.0,1.0,-2.0,-2.0,0.0,-3.0
1701619768.9748657,0.0,-1.0,0.0,0.0,-2.0,-1.0,0.0,-4.0
1701619769.0228248,-2.0,-3.0,-2.0,-1.0,-2.0,-1.0,1.0,4.0
1701619769.0228248,0.0,-1.0,-6.0,-2.0,-1.0,1.0,-3.0,-2.0
1701619769.0228248,-1.0,-1.0,1.0,-2.0,-2.0,-1.0,0.0,0.0
1701619769.0228248,-1.0,-3.0,1.0,-2.0,-3.0,-1.0,-3.0,-2.0
1701619769.0228248,0.0,1.0,9.0,0.0,0.0,-1.0,1.0,0.0
1701619769.0228248,-3.0,-6.0,-35.0,-5.0,-4.0,-1.0,-1.0,-2.0
1701619769.0228248,-2.0,-1.0,13.0,3.0,0.0,-2.0,-3.0,1.0
1701619769.0228248,2.0,1.0,1.0,-1.0,0.0,-1.0,-1.0,-2.0
1701619769.023959,0.0,-1.0,-11.0,-1.0,-1.0,1.0,-2.0,0.0
1701619769.023959,-2.0,-2.0,9.0,-1.0,-2.0,-2.0,-2.0,-1.0
1701619769.0315764,-4.0,-2.0,1.0,-5.0,-3.0,-1.0,-1.0,1.0
1701619769.0315764,-4.0,0.0,-3.0,-1.0,-1.0,-2.0,-2.0,-1.0
1701619769.0909617,-1.0,2.0,-3.0,-2.0,0.0,1.0,-1.0,-3.0
1701619769.0909617,1.0,2.0,8.0,2.0,3.0,-1.0,0.0,-1.0
1701619769.0909617,-1.0,-3.0,-15.0,-7.0,-2.0,-1.0,0.0,3.0
1701619769.0909617,-4.0,1.0,0.0,3.0,0.0,1.0,-1.0,-7.0
1701619769.0909617,-2.0,1.0,3.0,2.0,-3.0,-1.0,-2.0,-3.0
1701619769.0909617,-1.0,1.0,1.0,2.0,1.0,1.0,0.0,2.0
1701619769.0909617,0.0,-1.0,-2.0,-8.0,-2.0,-1.0,1.0,-2.0
1701619769.0909617,-1.0,-2.0,-6.0,-4.0,-1.0,-1.0,0.0,3.0
1701619769.0909617,-1.0,-2.0,-6.0,-2.0,-1.0,-1.0,0.0,1.0
1701619769.0909617,-2.0,0.0,4.0,0.0,-2.0,-1.0,0.0,-2.0
1701619769.0920455,-2.0,0.0,0.0,1.0,-1.0,0.0,1.0,2.0
1701619769.0920455,0.0,0.0,-2.0,-2.0,0.0,-1.0,0.0,1.0
1701619769.113031,-1.0,-3.0,2.0,0.0,-4.0,-1.0,-2.0,-5.0
1701619769.113031,-1.0,4.0,7.0,1.0,0.0,-1.0,-2.0,-2.0
1701619769.1143725,-1.0,1.0,-7.0,0.0,0.0,0.0,-2.0,-4.0
1701619769.1143725,-2.0,0.0,-1.0,-3.0,-1.0,2.0,-1.0,2.0
1701619769.165503,0.0,0.0,2.0,-2.0,-1.0,-2.0,-1.0,-3.0
1701619769.165503,0.0,2.0,10.0,-2.0,-1.0,1.0,0.0,1.0
1701619769.165503,-1.0,-3.0,-21.0,-3.0,-2.0,-2.0,-2.0,-3.0
1701619769.165503,-3.0,-1.0,-1.0,2.0,-1.0,-2.0,0.0,-2.0
1701619769.1816816,-2.0,1.0,5.0,-1.0,-2.0,0.0,-1.0,14.0
1701619769.1822922,3.0,2.0,17.0,0.0,-3.0,0.0,-5.0,-19.0
1701619769.207776,-2.0,-3.0,3.0,0.0,-2.0,0.0,0.0,0.0
1701619769.207776,0.0,-1.0,-5.0,-3.0,-2.0,-2.0,-1.0,-3.0
1701619769.207776,1.0,1.0,2.0,2.0,0.0,-1.0,2.0,1.0
1701619769.207776,0.0,-2.0,-4.0,-4.0,-2.0,-3.0,1.0,4.0
1701619769.207776,1.0,3.0,8.0,5.0,0.0,1.0,-1.0,-2.0
1701619769.2087746,-1.0,0.0,5.0,1.0,-3.0,0.0,-1.0,-1.0
1701619769.2087746,-4.0,-5.0,-12.0,-3.0,-1.0,-1.0,-3.0,-5.0
1701619769.2087746,-4.0,-2.0,-9.0,-1.0,0.0,-1.0,0.0,18.0
1701619769.2087746,-2.0,1.0,17.0,7.0,1.0,-3.0,-3.0,-27.0
1701619769.2087746,-4.0,-4.0,7.0,-2.0,-1.0,0.0,-1.0,0.0
1701619769.2087746,-1.0,0.0,2.0,-1.0,1.0,-1.0,-1.0,-1.0
1701619769.2087746,2.0,-5.0,-27.0,-1.0,-1.0,-2.0,-1.0,-3.0
1701619769.2111328,-3.0,-5.0,-2.0,-7.0,-4.0,-2.0,-2.0,8.0
1701619769.2111328,2.0,1.0,20.0,1.0,2.0,-1.0,0.0,0.0
1701619769.272112,-1.0,-3.0,-19.0,-12.0,-3.0,-3.0,-3.0,-5.0
1701619769.272112,-3.0,0.0,14.0,7.0,2.0,-2.0,0.0,1.0
1701619769.272112,0.0,1.0,-7.0,0.0,3.0,0.0,2.0,11.0
1701619769.272112,3.0,0.0,-1.0,8.0,0.0,-1.0,-2.0,-10.0
1701619769.275303,-2.0,-7.0,9.0,-1.0,-5.0,-2.0,-1.0,-4.0
1701619769.275303,-1.0,-5.0,-1.0,-8.0,-1.0,-1.0,-2.0,2.0
1701619769.275303,0.0,3.0,5.0,5.0,0.0,-1.0,1.0,6.0
1701619769.275303,2.0,1.0,4.0,3.0,2.0,0.0,1.0,4.0
1701619769.3185406,0.0,-1.0,-15.0,-3.0,1.0,2.0,0.0,-1.0
1701619769.3185406,-2.0,0.0,21.0,0.0,-3.0,-2.0,-3.0,-3.0
1701619769.3185406,-1.0,-3.0,1.0,0.0,0.0,-1.0,-1.0,-1.0
1701619769.3185406,-2.0,-3.0,-11.0,-7.0,-2.0,-2.0,1.0,2.0
1701619769.3249795,0.0,-2.0,-7.0,0.0,2.0,1.0,0.0,-4.0
1701619769.3249795,-1.0,-4.0,-15.0,-8.0,-2.0,-2.0,1.0,-4.0
1701619769.3249795,0.0,0.0,17.0,7.0,-1.0,-1.0,-3.0,-1.0
1701619769.3249795,-1.0,2.0,5.0,3.0,1.0,-2.0,-2.0,1.0
1701619769.3249795,-1.0,0.0,24.0,0.0,-1.0,-2.0,1.0,-6.0
1701619769.3249795,-2.0,-6.0,-14.0,-16.0,-5.0,-3.0,-1.0,-2.0
1701619769.3249795,0.0,0.0,-18.0,-10.0,0.0,0.0,0.0,8.0
1701619769.3249795,-2.0,2.0,16.0,12.0,-1.0,1.0,0.0,-16.0
1701619769.333455,-5.0,-8.0,-35.0,-27.0,-6.0,-4.0,-3.0,-1.0
1701619769.333455,1.0,5.0,2.0,7.0,4.0,4.0,3.0,2.0
1701619769.3624117,-2.0,3.0,32.0,14.0,-4.0,-3.0,-4.0,-7.0
1701619769.3624117,-2.0,-8.0,-67.0,-13.0,-1.0,1.0,2.0,9.0
1701619769.3624117,-2.0,1.0,17.0,2.0,0.0,-2.0,-1.0,1.0
1701619769.3624117,5.0,4.0,-19.0,-4.0,2.0,2.0,-1.0,-6.0
1701619769.3624117,-2.0,-2.0,-7.0,-4.0,-1.0,-1.0,-1.0,6.0
1701619769.3624117,-1.0,-5.0,-16.0,-6.0,-3.0,-2.0,-2.0,-1.0
1701619769.3940578,1.0,3.0,9.0,8.0,0.0,1.0,1.0,4.0
1701619769.3950546,-2.0,-3.0,5.0,4.0,-5.0,-5.0,-3.0,1.0
1701619769.4180562,1.0,0.0,-5.0,-6.0,0.0,1.0,1.0,-8.0
1701619769.4180562,-1.0,-1.0,-2.0,-10.0,-1.0,0.0,-1.0,4.0
1701619769.4182835,-1.0,-4.0,7.0,7.0,-1.0,-2.0,-2.0,-2.0
1701619769.4182835,-2.0,-1.0,3.0,-1.0,-2.0,-2.0,-1.0,-1.0
1701619769.4182835,-1.0,-6.0,-14.0,-3.0,-2.0,-2.0,-2.0,-3.0
1701619769.4182835,0.0,0.0,14.0,3.0,0.0,-1.0,-2.0,-2.0
1701619769.4182835,-1.0,2.0,-7.0,1.0,0.0,0.0,0.0,3.0
1701619769.4182835,0.0,2.0,7.0,2.0,1.0,0.0,-2.0,-4.0
1701619769.4182835,-1.0,-2.0,3.0,-1.0,0.0,-1.0,0.0,-1.0
1701619769.4182835,0.0,3.0,14.0,8.0,2.0,0.0,-1.0,0.0
1701619769.453747,-4.0,-10.0,-23.0,-10.0,-5.0,-5.0,-2.0,-3.0
1701619769.454908,-2.0,0.0,-9.0,-8.0,-3.0,-1.0,-1.0,2.0
1701619769.4822302,1.0,-1.0,-14.0,-5.0,1.0,0.0,-2.0,-1.0
1701619769.4822302,-3.0,-4.0,21.0,3.0,-6.0,-3.0,-4.0,-1.0
1701619769.4822302,6.0,11.0,23.0,23.0,9.0,3.0,1.0,3.0
1701619769.4822302,-3.0,-6.0,17.0,2.0,-2.0,-3.0,-2.0,-4.0
1701619769.4822302,-1.0,-2.0,-41.0,-20.0,-4.0,-2.0,-1.0,-3.0
1701619769.4822302,0.0,-4.0,-9.0,-3.0,1.0,0.0,-2.0,-2.0
1701619769.4822302,-1.0,2.0,9.0,5.0,-1.0,-3.0,-3.0,-2.0
1701619769.4822302,-1.0,2.0,6.0,3.0,4.0,3.0,2.0,2.0
1701619769.4822302,3.0,5.0,4.0,10.0,1.0,2.0,2.0,-1.0
1701619769.4822302,-4.0,-1.0,14.0,-16.0,-9.0,-6.0,-5.0,-2.0
1701619769.4934306,-2.0,-1.0,-38.0,-10.0,-3.0,1.0,0.0,-2.0
1701619769.4934306,-2.0,-5.0,13.0,15.0,2.0,-1.0,-2.0,-3.0
1701619769.4970307,-3.0,-3.0,-5.0,9.0,-3.0,-3.0,-2.0,-3.0
1701619769.4970307,2.0,10.0,17.0,0.0,-3.0,-2.0,-1.0,-1.0
1701619769.54796,-2.0,-8.0,-40.0,-31.0,-6.0,-2.0,0.0,1.0
1701619769.54796,2.0,4.0,11.0,18.0,8.0,4.0,1.0,2.0
1701619769.54796,-4.0,-13.0,-31.0,5.0,-10.0,-2.0,0.0,-1.0
1701619769.54796,-3.0,-8.0,7.0,-10.0,-11.0,-6.0,0.0,-2.0
1701619769.54796,-3.0,1.0,-29.0,-31.0,0.0,1.0,-3.0,-3.0
1701619769.54796,10.0,21.0,34.0,47.0,24.0,10.0,6.0,6.0
1701619769.54796,-11.0,-26.0,-43.0,-37.0,2.0,-2.0,-6.0,-6.0
1701619769.54796,-1.0,-8.0,-64.0,-19.0,-7.0,-1.0,-1.0,-1.0
1701619769.583592,-2.0,0.0,17.0,40.0,-11.0,-7.0,-5.0,-3.0
1701619769.583592,-8.0,-10.0,-27.0,-46.0,-16.0,-6.0,-4.0,-5.0
1701619769.583592,6.0,19.0,48.0,13.0,-5.0,1.0,1.0,4.0
1701619769.583592,-2.0,-37.0,-42.0,-25.0,-4.0,1.0,-1.0,-1.0
1701619769.5875134,2.0,20.0,-16.0,-18.0,3.0,0.0,1.0,1.0
1701619769.5875134,-2.0,-3.0,1.0,6.0,-5.0,-5.0,-2.0,-1.0
1701619769.5899785,-6.0,-4.0,48.0,6.0,-5.0,-8.0,-5.0,-5.0
1701619769.5899785,-7.0,-10.0,23.0,12.0,4.0,-1.0,-5.0,-3.0
1701619769.591015,4.0,0.0,54.0,48.0,12.0,5.0,3.0,2.0
1701619769.591015,-2.0,-2.0,-47.0,-23.0,0.0,-2.0,-2.0,-3.0
1701619769.593963,1.0,-4.0,-52.0,-54.0,6.0,5.0,1.0,3.0
1701619769.593963,2.0,12.0,-12.0,7.0,11.0,0.0,-1.0,1.0
1701619769.6061056,0.0,-6.0,68.0,16.0,4.0,-2.0,-2.0,0.0
1701619769.6061056,-1.0,-6.0,-62.0,-18.0,-24.0,-10.0,-4.0,-2.0
1701619769.6161869,3.0,7.0,39.0,20.0,-1.0,3.0,2.0,0.0
1701619769.6161869,-3.0,-3.0,29.0,13.0,0.0,-6.0,-2.0,0.0
1701619769.657459,-1.0,-4.0,-25.0,11.0,7.0,-4.0,-14.0,-2.0
1701619769.657459,-1.0,-8.0,10.0,13.0,5.0,6.0,11.0,2.0
1701619769.657459,1.0,4.0,-21.0,9.0,6.0,2.0,4.0,-1.0
1701619769.657459,4.0,8.0,6.0,-12.0,-10.0,2.0,5.0,6.0
1701619769.657459,-2.0,-5.0,-9.0,-10.0,-16.0,-11.0,-17.0,-5.0
1701619769.657459,-5.0,-4.0,5.0,-19.0,-9.0,4.0,5.0,-4.0
1701619769.6773114,0.0,2.0,17.0,23.0,19.0,-9.0,-8.0,-1.0
1701619769.6783543,-1.0,11.0,15.0,35.0,24.0,7.0,1.0,-1.0
1701619769.6965942,-8.0,-10.0,-10.0,-20.0,-5.0,11.0,14.0,-6.0
1701619769.6965942,3.0,1.0,7.0,-3.0,-5.0,5.0,9.0,2.0
1701619769.6965942,0.0,-2.0,8.0,-4.0,-15.0,-3.0,-1.0,-2.0
1701619769.6965942,-1.0,0.0,-13.0,-20.0,-16.0,-12.0,-10.0,-6.0
1701619769.6965942,-2.0,-2.0,-8.0,-17.0,-12.0,-6.0,-3.0,0.0
1701619769.6965942,-2.0,1.0,8.0,1.0,0.0,-4.0,-8.0,-1.0
1701619769.6976328,-2.0,1.0,-4.0,-4.0,-1.0,-3.0,-5.0,-3.0
1701619769.6976328,1.0,4.0,-2.0,5.0,3.0,2.0,1.0,1.0
1701619769.7078624,-2.0,-2.0,-2.0,-1.0,2.0,2.0,3.0,0.0
1701619769.7078624,-1.0,1.0,23.0,7.0,3.0,-1.0,-3.0,-2.0
1701619769.7138205,1.0,0.0,-10.0,-5.0,2.0,0.0,-3.0,2.0
1701619769.7138205,5.0,12.0,-1.0,20.0,6.0,4.0,3.0,3.0
1701619769.7528882,-11.0,-18.0,-15.0,-31.0,-18.0,-17.0,-15.0,-8.0
1701619769.7528882,0.0,6.0,55.0,10.0,3.0,0.0,0.0,2.0
1701619769.7528882,-5.0,-12.0,-57.0,-22.0,-1.0,7.0,5.0,-2.0
1701619769.7528882,3.0,4.0,1.0,-1.0,1.0,-4.0,-12.0,22.0
1701619769.7528882,0.0,4.0,8.0,15.0,8.0,10.0,21.0,-4.0
1701619769.7528882,3.0,0.0,9.0,0.0,2.0,-2.0,-2.0,-4.0
1701619769.754922,2.0,10.0,33.0,10.0,-1.0,1.0,6.0,12.0
1701619769.754922,-5.0,-15.0,-58.0,-16.0,-1.0,1.0,-1.0,-28.0
1701619769.8077862,2.0,1.0,58.0,3.0,-5.0,-8.0,-8.0,13.0
1701619769.8077862,-1.0,-5.0,-33.0,-3.0,-4.0,-6.0,-5.0,8.0
1701619769.8077862,2.0,15.0,68.0,16.0,4.0,5.0,3.0,-9.0
1701619769.8077862,-1.0,-5.0,-46.0,-6.0,-4.0,0.0,-1.0,7.0
1701619769.8077862,22.0,5.0,-74.0,-9.0,8.0,4.0,3.0,6.0
1701619769.8077862,-42.0,6.0,88.0,23.0,-8.0,-6.0,-11.0,-18.0
1701619769.8077862,-9.0,-15.0,-51.0,-24.0,-13.0,-10.0,-5.0,-4.0
1701619769.8077862,-2.0,7.0,56.0,15.0,2.0,6.0,9.0,10.0
1701619769.8077862,4.0,-3.0,-50.0,19.0,4.0,7.0,11.0,2.0
1701619769.8091705,10.0,-3.0,-33.0,-8.0,3.0,-6.0,-5.0,7.0
1701619769.8102057,0.0,-4.0,-49.0,-19.0,-4.0,-2.0,-8.0,-1.0
1701619769.8102057,0.0,21.0,57.0,26.0,4.0,-4.0,-2.0,-8.0
1701619769.8545592,-29.0,-59.0,-80.0,-77.0,-25.0,-3.0,-2.0,-11.0
1701619769.8545592,16.0,21.0,62.0,17.0,8.0,5.0,3.0,31.0
1701619769.8545592,-10.0,-17.0,-37.0,-7.0,-3.0,-4.0,-3.0,-23.0
1701619769.8545592,4.0,-38.0,-17.0,-7.0,6.0,3.0,1.0,-4.0
1701619769.8545592,-1.0,20.0,45.0,21.0,0.0,-4.0,-5.0,-6.0
1701619769.8545592,-8.0,-34.0,-127.0,-44.0,-7.0,-5.0,-3.0,-12.0
1701619769.8555837,7.0,17.0,39.0,25.0,1.0,2.0,4.0,20.0
1701619769.8555837,8.0,58.0,75.0,75.0,9.0,4.0,2.0,-4.0
1701619769.868463,-3.0,-21.0,58.0,1.0,-2.0,-9.0,-6.0,-12.0
1701619769.868463,-10.0,-3.0,-54.0,-32.0,-2.0,0.0,-6.0,-8.0
1701619769.868463,-5.0,-29.0,81.0,7.0,-13.0,-15.0,-16.0,-4.0
1701619769.868463,2.0,13.0,-18.0,0.0,13.0,10.0,3.0,0.0
1701619769.9167995,5.0,15.0,50.0,-8.0,-5.0,-3.0,3.0,4.0
1701619769.9167995,2.0,-22.0,-8.0,30.0,7.0,4.0,2.0,-8.0
1701619769.9167995,13.0,8.0,-10.0,0.0,8.0,5.0,4.0,33.0
1701619769.9167995,5.0,-6.0,22.0,-15.0,-15.0,-10.0,-8.0,-14.0
1701619769.920598,1.0,29.0,7.0,12.0,5.0,-1.0,-8.0,4.0
1701619769.920598,3.0,-8.0,-26.0,3.0,8.0,6.0,6.0,-5.0
1701619769.920598,-6.0,1.0,40.0,9.0,-8.0,-4.0,0.0,-7.0
1701619769.920598,-12.0,-41.0,-2.0,-26.0,-16.0,-5.0,1.0,12.0
1701619769.9223814,19.0,72.0,11.0,10.0,19.0,11.0,5.0,-9.0
1701619769.9223814,0.0,-81.0,-5.0,8.0,-1.0,-2.0,-4.0,0.0
1701619769.937921,-7.0,-18.0,28.0,-3.0,-3.0,-2.0,-5.0,-14.0
1701619769.937921,-2.0,19.0,-49.0,-35.0,-7.0,-2.0,5.0,10.0
1701619769.9892614,-35.0,-77.0,-64.0,-48.0,-24.0,-19.0,-16.0,-15.0
1701619769.9892614,8.0,25.0,71.0,19.0,5.0,3.0,2.0,-1.0
1701619769.9951584,19.0,15.0,-26.0,3.0,5.0,4.0,4.0,7.0
1701619769.9951584,-24.0,5.0,30.0,-2.0,0.0,1.0,-2.0,-16.0
1701619769.9951584,11.0,-4.0,6.0,7.0,12.0,9.0,8.0,25.0
1701619769.9951584,-8.0,26.0,-24.0,-11.0,-14.0,-10.0,-6.0,-29.0
1701619769.9951584,-13.0,-2.0,-3.0,0.0,2.0,2.0,4.0,-15.0
1701619769.9951584,17.0,3.0,-19.0,-13.0,-1.0,-1.0,2.0,7.0
1701619769.9977977,18.0,-28.0,13.0,23.0,3.0,4.0,2.0,31.0
1701619769.999262,7.0,21.0,16.0,2.0,-2.0,0.0,-2.0,5.0
1701619770.030685,14.0,53.0,-31.0,3.0,3.0,4.0,3.0,10.0
1701619770.030685,-12.0,-87.0,16.0,-33.0,-7.0,-9.0,-10.0,-33.0
1701619770.030685,-4.0,54.0,29.0,28.0,0.0,0.0,-1.0,-27.0
1701619770.030685,-1.0,17.0,28.0,-7.0,-4.0,-1.0,-1.0,0.0
1701619770.0339997,-4.0,-21.0,-37.0,-15.0,2.0,1.0,0.0,6.0
1701619770.0349998,-4.0,4.0,-36.0,-16.0,-11.0,-4.0,-2.0,7.0
1701619770.0373237,7.0,2.0,31.0,15.0,2.0,1.0,1.0,18.0
1701619770.0373237,-4.0,8.0,-6.0,6.0,7.0,2.0,1.0,-5.0
1701619770.0373237,-19.0,-16.0,-36.0,-32.0,-11.0,-8.0,-5.0,-30.0
1701619770.0373237,0.0,8.0,16.0,2.0,-2.0,-2.0,0.0,12.0
1701619770.0824776,-7.0,2.0,10.0,5.0,1.0,2.0,-1.0,-18.0
1701619770.0824776,14.0,-1.0,-12.0,0.0,-3.0,-2.0,-2.0,30.0
1701619770.0824776,-12.0,-9.0,9.0,9.0,4.0,1.0,-8.0,-22.0
1701619770.0824776,-5.0,-46.0,-5.0,-9.0,-5.0,-3.0,14.0,15.0
1701619770.0824776,-5.0,-5.0,-21.0,-20.0,1.0,2.0,-3.0,-11.0
1701619770.0824776,3.0,-5.0,-32.0,-6.0,-1.0,-2.0,0.0,-16.0
1701619770.0824776,-25.0,-45.0,26.0,24.0,-7.0,-5.0,-3.0,12.0
1701619770.0824776,-12.0,40.0,16.0,-2.0,-3.0,-5.0,-9.0,22.0
1701619770.094839,39.0,19.0,64.0,19.0,7.0,4.0,7.0,-11.0
1701619770.094839,36.0,-38.0,-8.0,0.0,4.0,4.0,5.0,54.0
1701619770.096838,-89.0,29.0,-8.0,-30.0,-13.0,-9.0,-8.0,-12.0
1701619770.096838,24.0,44.0,15.0,23.0,13.0,10.0,4.0,-46.0
1701619770.118447,-26.0,-60.0,-22.0,-31.0,-10.0,-6.0,-4.0,8.0
1701619770.118447,75.0,56.0,-37.0,-10.0,5.0,3.0,5.0,55.0
1701619770.1241124,-6.0,-30.0,9.0,35.0,-10.0,-8.0,-11.0,-59.0
1701619770.1245759,-19.0,-73.0,-74.0,-37.0,-4.0,-2.0,-2.0,-3.0
1701619770.162324,14.0,34.0,45.0,29.0,4.0,3.0,1.0,-3.0
1701619770.162324,-77.0,-69.0,-9.0,-7.0,-7.0,-8.0,-14.0,-43.0
1701619770.162324,69.0,14.0,7.0,-8.0,2.0,2.0,13.0,2.0
1701619770.162324,8.0,29.0,-49.0,4.0,0.0,-1.0,-4.0,34.0
1701619770.162324,20.0,0.0,-11.0,-12.0,0.0,2.0,5.0,-23.0
1701619770.162324,13.0,23.0,-6.0,-6.0,-6.0,-4.0,-3.0,20.0
1701619770.1633227,-28.0,-1.0,50.0,4.0,12.0,6.0,0.0,22.0
1701619770.1633227,27.0,34.0,31.0,18.0,-2.0,0.0,1.0,-21.0
1701619770.1775062,0.0,10.0,-25.0,-15.0,-4.0,-7.0,-6.0,22.0
1701619770.1775062,-38.0,-11.0,-33.0,-5.0,-8.0,-3.0,-4.0,-83.0
1701619770.1794431,29.0,20.0,21.0,2.0,2.0,0.0,-12.0,33.0
1701619770.1794431,4.0,3.0,65.0,5.0,3.0,3.0,15.0,10.0
1701619770.1887023,-37.0,-67.0,-52.0,-4.0,-2.0,-3.0,-12.0,-11.0
1701619770.1930492,72.0,97.0,37.0,-5.0,0.0,0.0,23.0,91.0
1701619770.1941576,-72.0,-27.0,-23.0,7.0,5.0,0.0,-19.0,-67.0
1701619770.1941576,48.0,85.0,26.0,0.0,-2.0,1.0,-17.0,-18.0
1701619770.2530472,-42.0,3.0,-49.0,-2.0,-7.0,-4.0,58.0,57.0
1701619770.2530472,-66.0,46.0,-21.0,-10.0,-5.0,-5.0,-38.0,-108.0
1701619770.2631304,10.0,-68.0,-41.0,-6.0,3.0,4.0,32.0,125.0
1701619770.2631304,40.0,-47.0,31.0,16.0,1.0,-3.0,-27.0,-26.0
1701619770.3099647,-105.0,-35.0,21.0,-12.0,2.0,2.0,0.0,39.0
1701619770.3099647,-18.0,-16.0,95.0,27.0,-5.0,-9.0,-50.0,-85.0
1701619770.3099647,22.0,33.0,-23.0,-2.0,-6.0,-2.0,5.0,-9.0
1701619770.3099647,30.0,-17.0,-17.0,-2.0,5.0,2.0,15.0,2.0
1701619770.3099647,89.0,39.0,-26.0,10.0,11.0,8.0,48.0,50.0
1701619770.3099647,-98.0,-80.0,45.0,17.0,-8.0,-6.0,1.0,4.0
1701619770.3099647,48.0,45.0,15.0,-13.0,0.0,3.0,8.0,23.0
1701619770.3099647,48.0,-54.0,-31.0,6.0,3.0,5.0,-13.0,35.0
1701619770.3387177,-87.0,-6.0,4.0,-11.0,-13.0,-3.0,3.0,-101.0
1701619770.3391676,4.0,27.0,-22.0,-27.0,6.0,3.0,-29.0,43.0
1701619770.3515549,78.0,-34.0,46.0,25.0,-4.0,-6.0,30.0,3.0
1701619770.3515549,-97.0,39.0,-23.0,-13.0,-3.0,2.0,66.0,-69.0
1701619770.3515549,44.0,40.0,86.0,27.0,9.0,3.0,-40.0,-26.0
1701619770.3515549,0.0,-90.0,-79.0,-28.0,-10.0,-10.0,-12.0,-36.0
1701619770.3515549,52.0,65.0,27.0,12.0,3.0,-6.0,-128.0,40.0
1701619770.3515549,-32.0,-10.0,-5.0,-14.0,-3.0,3.0,73.0,71.0
1701619770.3563569,-68.0,-43.0,122.0,34.0,4.0,1.0,27.0,-54.0
1701619770.3563569,73.0,-17.0,18.0,-13.0,-5.0,-3.0,2.0,-14.0
1701619770.3563569,-11.0,50.0,68.0,0.0,7.0,4.0,-1.0,26.0
1701619770.3563569,58.0,6.0,-39.0,-26.0,-6.0,-14.0,-113.0,-36.0
1701619770.3729193,-46.0,-14.0,-7.0,25.0,-4.0,-1.0,29.0,-12.0
1701619770.3729193,8.0,61.0,-6.0,-4.0,2.0,0.0,13.0,56.0
1701619770.3729193,-23.0,-32.0,48.0,19.0,9.0,4.0,1.0,-51.0
1701619770.3729193,24.0,-18.0,-59.0,1.0,-2.0,-5.0,12.0,4.0
1701619770.3729193,119.0,7.0,-94.0,-44.0,-4.0,0.0,-6.0,51.0
1701619770.3729193,-32.0,-30.0,-15.0,2.0,-6.0,-2.0,-2.0,-19.0
1701619770.3729193,8.0,0.0,-22.0,-26.0,-1.0,5.0,16.0,-14.0
1701619770.3729193,-44.0,-53.0,34.0,26.0,1.0,-8.0,-40.0,-21.0
1701619770.3729193,-43.0,-63.0,-58.0,-23.0,-5.0,-3.0,-22.0,-17.0
1701619770.3729193,-39.0,-9.0,61.0,13.0,3.0,4.0,37.0,-13.0
1701619770.3812854,6.0,18.0,-4.0,8.0,-8.0,-8.0,-3.0,-9.0
1701619770.3812854,20.0,37.0,60.0,17.0,7.0,7.0,21.0,59.0
1701619770.420437,61.0,27.0,-12.0,-7.0,1.0,-1.0,-35.0,14.0
1701619770.420437,-2.0,24.0,71.0,18.0,6.0,5.0,17.0,-13.0
1701619770.420437,-73.0,-22.0,-48.0,-17.0,-9.0,-9.0,-40.0,-41.0
1701619770.420437,37.0,64.0,61.0,16.0,4.0,4.0,44.0,50.0
1701619770.420437,-57.0,-47.0,20.0,12.0,-5.0,-9.0,-24.0,8.0
1701619770.420437,75.0,4.0,-32.0,-16.0,4.0,3.0,-10.0,111.0
1701619770.420437,-24.0,-1.0,-18.0,1.0,-1.0,-1.0,26.0,-13.0
1701619770.420437,-89.0,-19.0,-5.0,-8.0,-5.0,2.0,-4.0,-107.0
1701619770.431526,17.0,10.0,0.0,-6.0,2.0,1.0,-26.0,-13.0
1701619770.431526,20.0,-34.0,1.0,7.0,-8.0,-7.0,30.0,8.0
1701619770.4398587,9.0,13.0,-71.0,-25.0,-5.0,-2.0,-22.0,-14.0
1701619770.4398587,2.0,-11.0,36.0,11.0,-2.0,-13.0,-111.0,-66.0
1701619770.4801137,51.0,47.0,50.0,11.0,1.0,15.0,116.0,112.0
1701619770.4801137,25.0,39.0,39.0,18.0,6.0,1.0,-21.0,-83.0
1701619770.4803426,20.0,-25.0,41.0,1.0,3.0,2.0,10.0,-39.0
1701619770.4803426,-33.0,-16.0,-71.0,-22.0,-12.0,-6.0,-15.0,13.0
1701619770.4803426,-18.0,14.0,12.0,-11.0,-2.0,-10.0,-99.0,-55.0
1701619770.4803426,13.0,-3.0,18.0,17.0,-2.0,3.0,91.0,45.0
1701619770.4803426,35.0,10.0,-5.0,-2.0,8.0,2.0,-36.0,3.0
1701619770.4803426,-20.0,-4.0,42.0,4.0,-10.0,-10.0,-5.0,85.0
1701619770.4834018,-54.0,-78.0,-22.0,-9.0,-9.0,-8.0,71.0,45.0
1701619770.4834018,8.0,-22.0,-60.0,-25.0,-3.0,2.0,-32.0,9.0
1701619770.521992,-53.0,20.0,25.0,-11.0,-3.0,-5.0,-47.0,-45.0
1701619770.521992,66.0,110.0,-23.0,-8.0,1.0,10.0,70.0,11.0
1701619770.542383,-46.0,-5.0,-18.0,-10.0,-10.0,-9.0,-19.0,-7.0
1701619770.542383,48.0,25.0,7.0,6.0,-3.0,-3.0,0.0,72.0
1701619770.542383,0.0,-17.0,21.0,1.0,8.0,9.0,-4.0,-40.0
1701619770.542383,-41.0,-31.0,14.0,-9.0,-2.0,-7.0,-44.0,-34.0
1701619770.542383,10.0,14.0,-46.0,-23.0,-3.0,-5.0,-58.0,-66.0
1701619770.542383,16.0,-7.0,-8.0,0.0,2.0,-3.0,-37.0,48.0
1701619770.542383,41.0,-8.0,-4.0,12.0,3.0,19.0,117.0,101.0
1701619770.542383,-23.0,-71.0,-16.0,5.0,-4.0,-1.0,-17.0,-25.0
1701619770.5433857,56.0,40.0,-8.0,10.0,4.0,-3.0,-82.0,-55.0
1701619770.5433857,-98.0,-22.0,-35.0,-25.0,-5.0,-3.0,-17.0,50.0
1701619770.554902,-29.0,-2.0,7.0,-30.0,-11.0,-6.0,53.0,25.0
1701619770.554902,-30.0,-19.0,-60.0,-21.0,-4.0,2.0,36.0,-25.0
1701619770.6248484,-6.0,-2.0,70.0,24.0,13.0,2.0,-33.0,-9.0
1701619770.6248484,4.0,30.0,30.0,24.0,2.0,-15.0,-128.0,-120.0
1701619770.6248484,98.0,9.0,-44.0,-20.0,-16.0,7.0,115.0,33.0
1701619770.6248484,-28.0,-83.0,-37.0,-3.0,3.0,10.0,96.0,59.0
1701619770.6248484,-26.0,29.0,-29.0,6.0,-3.0,-8.0,-42.0,-63.0
1701619770.6248484,-49.0,23.0,4.0,6.0,8.0,8.0,-28.0,-85.0
1701619770.6248484,-28.0,29.0,76.0,15.0,0.0,-7.0,-61.0,3.0
1701619770.6248484,54.0,-43.0,-32.0,-1.0,0.0,-3.0,-31.0,28.0
1701619770.6663983,127.0,13.0,-53.0,-16.0,-6.0,-1.0,14.0,24.0
1701619770.6663983,-60.0,-35.0,14.0,-7.0,1.0,18.0,123.0,0.0
1701619770.6663983,1.0,-16.0,2.0,17.0,3.0,-12.0,-109.0,2.0
1701619770.6663983,40.0,25.0,84.0,12.0,-1.0,1.0,26.0,-37.0
1701619770.6663983,-1.0,-17.0,-33.0,2.0,5.0,-1.0,-37.0,9.0
1701619770.6663983,-7.0,31.0,-23.0,-6.0,-8.0,-8.0,-45.0,3.0
1701619770.6663983,-47.0,-32.0,-2.0,17.0,4.0,4.0,119.0,-4.0
1701619770.6663983,-58.0,-30.0,18.0,1.0,1.0,-6.0,-73.0,-11.0
1701619770.6663983,2.0,-7.0,-17.0,-24.0,-10.0,-2.0,-1.0,19.0
1701619770.6663983,49.0,0.0,-6.0,-32.0,-9.0,-11.0,-17.0,52.0
1701619770.6663983,52.0,83.0,21.0,16.0,9.0,12.0,1.0,0.0
1701619770.6663983,-31.0,2.0,-19.0,-4.0,-1.0,-5.0,-6.0,8.0
1701619770.668426,16.0,9.0,14.0,18.0,3.0,-3.0,9.0,-26.0
1701619770.668426,-39.0,-86.0,-63.0,-11.0,-8.0,-9.0,-13.0,-18.0
1701619770.7097142,40.0,-64.0,45.0,18.0,-3.0,-9.0,-25.0,-8.0
1701619770.7097142,12.0,60.0,-99.0,-24.0,-5.0,-3.0,1.0,-10.0
1701619770.7128234,-44.0,107.0,99.0,14.0,3.0,17.0,41.0,41.0
1701619770.7128234,25.0,-40.0,22.0,0.0,-4.0,-4.0,-4.0,-15.0
1701619770.7128234,2.0,53.0,14.0,-11.0,5.0,-1.0,-29.0,-19.0
1701619770.7128234,26.0,-52.0,31.0,9.0,-2.0,-1.0,-19.0,-21.0
1701619770.7170427,-29.0,-101.0,108.0,47.0,12.0,5.0,44.0,48.0
1701619770.7170427,-91.0,-65.0,-88.0,3.0,-8.0,0.0,31.0,-54.0
1701619770.7190883,-5.0,87.0,-14.0,-49.0,-16.0,-13.0,-63.0,-42.0
1701619770.719531,-48.0,-3.0,9.0,-7.0,-8.0,-3.0,24.0,30.0
1701619770.727624,-41.0,-49.0,-24.0,-19.0,1.0,-3.0,-50.0,-50.0
1701619770.727624,66.0,5.0,103.0,22.0,4.0,10.0,64.0,51.0
1701619770.7676423,-59.0,-110.0,-56.0,5.0,1.0,-2.0,6.0,-12.0
1701619770.7676423,12.0,-13.0,50.0,10.0,-8.0,-1.0,2.0,-16.0
1701619770.7734492,-20.0,-27.0,-47.0,8.0,1.0,-9.0,-18.0,-16.0
1701619770.7734492,46.0,58.0,-29.0,-15.0,12.0,7.0,-75.0,-29.0
1701619770.7734492,-15.0,6.0,-55.0,-3.0,-23.0,-7.0,64.0,0.0
1701619770.7734492,-4.0,35.0,-31.0,-69.0,-32.0,-11.0,-35.0,-9.0
1701619770.803041,5.0,0.0,-7.0,30.0,5.0,0.0,32.0,8.0
1701619770.803041,-58.0,14.0,31.0,24.0,43.0,10.0,-25.0,-8.0
1701619770.812931,1.0,-21.0,-60.0,-44.0,-9.0,-4.0,-21.0,2.0
1701619770.8139288,31.0,7.0,62.0,-18.0,21.0,9.0,-1.0,-8.0
1701619770.8139288,20.0,-47.0,-25.0,82.0,-3.0,-5.0,8.0,8.0
1701619770.8139288,21.0,-72.0,-4.0,-68.0,32.0,7.0,24.0,13.0
1701619770.8139288,25.0,-26.0,-51.0,-81.0,-15.0,0.0,-14.0,-3.0
1701619770.8139288,-42.0,16.0,15.0,37.0,-5.0,-4.0,-26.0,-14.0
1701619770.8139288,29.0,-3.0,12.0,24.0,-17.0,-9.0,20.0,2.0
1701619770.8139288,20.0,83.0,38.0,28.0,-17.0,-11.0,-6.0,2.0
1701619770.8348494,6.0,27.0,27.0,-20.0,13.0,9.0,14.0,9.0
1701619770.8348494,16.0,-4.0,-92.0,-54.0,-25.0,-14.0,-25.0,-6.0
1701619770.8596468,48.0,-2.0,40.0,-67.0,26.0,16.0,-10.0,12.0
1701619770.8596468,-13.0,65.0,-27.0,43.0,13.0,4.0,-6.0,-23.0
1701619770.8596468,-66.0,-12.0,63.0,89.0,2.0,-5.0,21.0,18.0
1701619770.8596468,54.0,91.0,48.0,-2.0,26.0,14.0,30.0,39.0
1701619770.8628278,0.0,-31.0,-23.0,-53.0,-26.0,-4.0,-69.0,-41.0
1701619770.8628278,5.0,-9.0,-44.0,-69.0,-39.0,-1.0,66.0,10.0
1701619770.8628278,-22.0,15.0,-43.0,-24.0,-16.0,-10.0,-26.0,-24.0
1701619770.8628278,60.0,109.0,29.0,67.0,-2.0,-4.0,-8.0,-16.0
1701619770.8742793,-62.0,-45.0,-10.0,10.0,-13.0,-16.0,-7.0,-18.0
1701619770.8742793,11.0,-60.0,5.0,-70.0,-6.0,5.0,-11.0,-11.0
1701619770.8787377,11.0,-26.0,-28.0,13.0,18.0,-1.0,-12.0,5.0
1701619770.8787377,29.0,-5.0,17.0,31.0,23.0,12.0,18.0,29.0
1701619770.9231765,65.0,43.0,21.0,6.0,29.0,22.0,28.0,23.0
1701619770.9231765,-18.0,-40.0,17.0,56.0,0.0,-14.0,-5.0,2.0
1701619770.9231765,1.0,-45.0,4.0,100.0,20.0,2.0,-8.0,-6.0
1701619770.9231765,-41.0,-60.0,19.0,-44.0,-3.0,2.0,-7.0,-2.0
1701619770.9231765,-83.0,6.0,-40.0,-31.0,-1.0,-1.0,10.0,-5.0
1701619770.9231765,12.0,64.0,86.0,66.0,2.0,-5.0,6.0,3.0
1701619770.9241748,4.0,-79.0,-1.0,-6.0,-18.0,-6.0,-14.0,1.0
1701619770.9241748,-6.0,-69.0,-10.0,-31.0,-29.0,-12.0,-12.0,-12.0
1701619770.934314,2.0,7.0,-21.0,6.0,-22.0,-13.0,7.0,0.0
1701619770.934314,12.0,1.0,34.0,6.0,0.0,5.0,12.0,16.0
1701619770.9366436,32.0,0.0,-46.0,-55.0,3.0,4.0,-10.0,-7.0
1701619770.9366436,-42.0,-45.0,-1.0,50.0,-1.0,-4.0,-4.0,-6.0
1701619770.956931,8.0,75.0,16.0,-81.0,-7.0,3.0,15.0,13.0
1701619770.956931,8.0,-7.0,-27.0,-35.0,0.0,-3.0,-7.0,-7.0
1701619770.959353,-12.0,9.0,29.0,37.0,-20.0,-5.0,-4.0,10.0
1701619770.959353,5.0,48.0,-7.0,-25.0,18.0,4.0,-6.0,-20.0
1701619771.001069,20.0,39.0,-25.0,-10.0,10.0,-10.0,11.0,8.0
1701619771.0020666,0.0,-27.0,11.0,60.0,-2.0,-44.0,-4.0,-2.0
1701619771.0257487,-5.0,2.0,21.0,14.0,-2.0,-41.0,-4.0,3.0
1701619771.0257487,-1.0,-8.0,-5.0,23.0,-6.0,-77.0,4.0,6.0
1701619771.0257487,-3.0,1.0,10.0,-22.0,4.0,-64.0,-3.0,-4.0
1701619771.026749,-4.0,-12.0,-61.0,-69.0,-25.0,-34.0,-2.0,8.0
1701619771.026749,-12.0,-2.0,16.0,3.0,20.0,37.0,5.0,0.0
1701619771.026749,7.0,-26.0,22.0,57.0,5.0,24.0,-9.0,-8.0
1701619771.0704858,48.0,21.0,0.0,12.0,14.0,55.0,0.0,14.0
1701619771.0704858,6.0,-5.0,6.0,67.0,14.0,54.0,17.0,62.0
1701619771.074047,-13.0,5.0,-5.0,-86.0,-15.0,33.0,-5.0,-27.0
1701619771.074047,-38.0,7.0,2.0,-1.0,-7.0,41.0,-3.0,22.0
1701619771.074047,35.0,2.0,7.0,-17.0,-11.0,14.0,0.0,14.0
1701619771.074047,-34.0,-11.0,-32.0,-33.0,-21.0,1.0,-22.0,-107.0
1701619771.074047,-36.0,-13.0,26.0,42.0,13.0,14.0,-6.0,50.0
1701619771.074047,-21.0,-50.0,9.0,65.0,23.0,25.0,-1.0,-53.0
1701619771.074047,-58.0,14.0,3.0,9.0,30.0,25.0,1.0,17.0
1701619771.074047,55.0,45.0,16.0,27.0,14.0,31.0,9.0,32.0
1701619771.074047,11.0,46.0,-3.0,-18.0,4.0,-11.0,-4.0,-12.0
1701619771.074047,23.0,-17.0,-19.0,-36.0,-3.0,0.0,11.0,41.0
1701619771.1171653,12.0,-29.0,-11.0,-8.0,-16.0,-17.0,-13.0,-38.0
1701619771.1171653,29.0,41.0,4.0,-10.0,-16.0,19.0,30.0,36.0
1701619771.1171653,-16.0,-24.0,12.0,-5.0,-22.0,-9.0,-33.0,-22.0
1701619771.1171653,22.0,39.0,26.0,-3.0,2.0,24.0,41.0,89.0
1701619771.1171653,13.0,46.0,-38.0,67.0,-6.0,25.0,23.0,69.0
1701619771.1171653,-8.0,-10.0,-14.0,-69.0,-7.0,12.0,-23.0,-93.0
1701619771.1171653,-59.0,-86.0,-32.0,-50.0,-7.0,2.0,-49.0,-78.0
1701619771.1171653,3.0,-2.0,-17.0,-19.0,-13.0,12.0,-35.0,14.0
1701619771.1230607,42.0,-18.0,20.0,2.0,9.0,17.0,2.0,73.0
1701619771.1240609,42.0,120.0,42.0,101.0,47.0,62.0,42.0,102.0
1701619771.1369216,38.0,-34.0,-15.0,-9.0,-5.0,42.0,22.0,39.0
1701619771.1369216,-58.0,-44.0,-30.0,-46.0,-9.0,37.0,-8.0,-28.0
1701619771.1369216,-14.0,-13.0,-15.0,-65.0,-25.0,46.0,8.0,-14.0
1701619771.1369216,14.0,-65.0,7.0,-1.0,-8.0,3.0,-9.0,13.0
1701619771.1384006,8.0,-20.0,4.0,23.0,7.0,15.0,9.0,5.0
1701619771.1384006,32.0,33.0,-16.0,-38.0,-20.0,1.0,10.0,55.0
1701619771.1615531,-2.0,4.0,29.0,54.0,-6.0,14.0,-2.0,-19.0
1701619771.1615531,-76.0,-108.0,-24.0,9.0,44.0,27.0,-39.0,-100.0
1701619771.161967,-12.0,0.0,0.0,29.0,25.0,24.0,10.0,18.0
1701619771.161967,-23.0,70.0,34.0,14.0,9.0,-11.0,0.0,-24.0
1701619771.177598,-2.0,-24.0,-78.0,-18.0,-23.0,-3.0,-9.0,-12.0
1701619771.1787748,12.0,-11.0,-1.0,-52.0,-41.0,-19.0,0.0,32.0
1701619771.2090757,10.0,29.0,26.0,9.0,-10.0,-14.0,-6.0,5.0
1701619771.2090757,39.0,13.0,10.0,9.0,5.0,0.0,21.0,13.0
1701619771.2090757,-62.0,-56.0,41.0,16.0,-8.0,-6.0,-12.0,-24.0
1701619771.2090757,-10.0,57.0,2.0,14.0,-1.0,5.0,10.0,-4.0
1701619771.2090757,30.0,19.0,-27.0,-32.0,6.0,2.0,9.0,8.0
1701619771.2090757,5.0,-16.0,8.0,0.0,17.0,-2.0,-11.0,-22.0
1701619771.2351203,-14.0,6.0,26.0,12.0,10.0,30.0,-10.0,-21.0
1701619771.2354915,13.0,-86.0,-22.0,-4.0,2.0,-21.0,4.0,-2.0
1701619771.2500083,14.0,89.0,15.0,3.0,15.0,-38.0,1.0,12.0
1701619771.2500083,58.0,80.0,8.0,-1.0,14.0,-48.0,2.0,18.0
1701619771.2500083,-49.0,-32.0,1.0,0.0,11.0,-67.0,-3.0,-58.0
1701619771.2500083,-48.0,-12.0,-9.0,-16.0,-23.0,-57.0,-18.0,15.0
1701619771.2500083,38.0,10.0,15.0,-5.0,24.0,-40.0,27.0,58.0
1701619771.2500083,-65.0,-108.0,-13.0,23.0,27.0,-33.0,-12.0,-73.0
1701619771.2506359,70.0,86.0,-10.0,-19.0,13.0,-35.0,4.0,34.0
1701619771.2506359,-5.0,23.0,16.0,9.0,21.0,-29.0,-1.0,13.0
1701619771.2589197,-7.0,-16.0,-10.0,-16.0,-9.0,-18.0,-10.0,-18.0
1701619771.2589197,9.0,6.0,3.0,4.0,15.0,-8.0,5.0,14.0
1701619771.306242,1.0,70.0,-5.0,-5.0,-2.0,-16.0,3.0,18.0
1701619771.3072395,-5.0,2.0,14.0,15.0,9.0,-14.0,-9.0,-31.0
1701619771.324808,9.0,18.0,-11.0,-8.0,11.0,-5.0,13.0,22.0
1701619771.324808,-4.0,-73.0,2.0,25.0,24.0,-1.0,-2.0,-11.0
1701619771.324808,-3.0,-36.0,12.0,1.0,-1.0,-9.0,-6.0,-17.0
1701619771.324808,19.0,42.0,-7.0,-71.0,-12.0,-9.0,3.0,8.0
1701619771.324808,-12.0,-11.0,0.0,35.0,7.0,0.0,-9.0,-23.0
1701619771.324808,-12.0,12.0,20.0,1.0,-22.0,0.0,3.0,-1.0
1701619771.324808,44.0,5.0,8.0,18.0,16.0,-7.0,4.0,-13.0
1701619771.324808,3.0,-25.0,-5.0,16.0,20.0,-4.0,14.0,25.0
1701619771.324808,-15.0,-19.0,-10.0,-10.0,-3.0,0.0,-4.0,-11.0
1701619771.324808,56.0,-8.0,-4.0,-13.0,-14.0,0.0,43.0,54.0
1701619771.3515935,-35.0,-7.0,-25.0,-30.0,-29.0,-4.0,-79.0,-8.0
1701619771.3525975,13.0,-6.0,0.0,-8.0,-31.0,-3.0,4.0,12.0
1701619771.3813078,-3.0,17.0,14.0,-19.0,-27.0,-1.0,14.0,-2.0
1701619771.3813078,1.0,-8.0,-30.0,-15.0,-6.0,-1.0,-28.0,-38.0
1701619771.3871982,-20.0,-22.0,-7.0,13.0,26.0,-2.0,14.0,-82.0
1701619771.3871982,13.0,10.0,-15.0,6.0,-13.0,-2.0,-8.0,31.0
1701619771.3871982,-8.0,-35.0,-13.0,-37.0,-37.0,-1.0,0.0,26.0
1701619771.3871982,-22.0,2.0,-11.0,-31.0,-56.0,0.0,8.0,34.0
1701619771.3871982,22.0,-56.0,0.0,-9.0,-48.0,-2.0,16.0,20.0
1701619771.3871982,8.0,19.0,20.0,5.0,39.0,-2.0,22.0,-19.0
1701619771.3871982,20.0,13.0,38.0,127.0,112.0,-1.0,97.0,18.0
1701619771.3871982,0.0,-20.0,-6.0,30.0,7.0,-17.0,-105.0,-17.0
1701619771.400031,-23.0,-24.0,-21.0,-28.0,-45.0,-36.0,9.0,-62.0
1701619771.400031,-26.0,-18.0,-36.0,-72.0,-89.0,-36.0,-30.0,1.0
1701619771.401027,24.0,8.0,-2.0,-56.0,-85.0,-44.0,4.0,6.0
1701619771.401027,-20.0,6.0,-20.0,-77.0,-61.0,-27.0,37.0,-14.0
1701619771.4548833,37.0,22.0,-6.0,-27.0,-40.0,-25.0,11.0,57.0
1701619771.4548833,-33.0,-42.0,-1.0,33.0,27.0,-12.0,50.0,32.0
1701619771.4548833,-36.0,5.0,-12.0,-61.0,-20.0,-28.0,-84.0,-98.0
1701619771.4548833,27.0,45.0,48.0,108.0,86.0,15.0,-8.0,32.0
1701619771.4548833,-31.0,-97.0,21.0,100.0,110.0,24.0,40.0,44.0
1701619771.4548833,3.0,57.0,21.0,64.0,28.0,34.0,78.0,107.0
1701619771.4617047,-12.0,-32.0,-6.0,-35.0,-71.0,-10.0,-92.0,-47.0
1701619771.4617047,-57.0,6.0,0.0,-51.0,-97.0,-22.0,1.0,-14.0
1701619771.4926243,32.0,58.0,19.0,-67.0,29.0,47.0,76.0,49.0
1701619771.4926243,11.0,51.0,-10.0,126.0,109.0,-4.0,-84.0,-14.0
1701619771.4926243,-50.0,-49.0,-4.0,44.0,-34.0,8.0,40.0,49.0
1701619771.4926243,-5.0,20.0,-18.0,-38.0,-45.0,-8.0,6.0,-13.0
1701619771.4926243,65.0,83.0,-12.0,-93.0,-80.0,-40.0,-40.0,-1.0
1701619771.4936233,-5.0,-34.0,-23.0,-113.0,-75.0,-22.0,13.0,-8.0
1701619771.4936233,-32.0,-3.0,-8.0,-18.0,-42.0,-30.0,-45.0,-120.0
1701619771.4936233,-68.0,-79.0,-8.0,-72.0,32.0,14.0,-4.0,77.0
1701619771.4936233,71.0,27.0,34.0,127.0,-7.0,-16.0,0.0,96.0
1701619771.4936233,-46.0,41.0,19.0,32.0,90.0,39.0,-3.0,-122.0
1701619771.4989123,39.0,0.0,-3.0,49.0,30.0,32.0,100.0,78.0
1701619771.4989123,31.0,22.0,-20.0,-11.0,-10.0,-56.0,-50.0,-2.0
1701619771.5417724,-80.0,-77.0,-5.0,29.0,-9.0,-21.0,-33.0,-25.0
1701619771.5421731,53.0,23.0,-3.0,-106.0,-128.0,-24.0,-28.0,-40.0
1701619771.549842,-20.0,-18.0,-15.0,-34.0,-23.0,-64.0,-52.0,77.0
1701619771.549842,4.0,-34.0,-30.0,-79.0,-49.0,99.0,27.0,-52.0
1701619771.549842,-88.0,-3.0,-1.0,31.0,97.0,-13.0,-10.0,44.0
1701619771.549842,13.0,46.0,21.0,95.0,-59.0,-44.0,63.0,-30.0
1701619771.549842,58.0,56.0,78.0,29.0,113.0,55.0,6.0,-15.0
1701619771.549842,46.0,-10.0,37.0,37.0,93.0,-29.0,100.0,76.0
1701619771.5508833,33.0,-6.0,7.0,79.0,-28.0,70.0,-126.0,-21.0
1701619771.5508833,20.0,42.0,-17.0,-52.0,-68.0,5.0,35.0,84.0
1701619771.558986,30.0,28.0,-33.0,-70.0,-27.0,-52.0,-31.0,-13.0
1701619771.558986,-61.0,-90.0,-32.0,-65.0,-19.0,-8.0,-39.0,-71.0
1701619771.603723,-75.0,-18.0,-13.0,-81.0,-91.0,9.0,91.0,-128.0
1701619771.6047227,-41.0,-89.0,-11.0,8.0,2.0,-8.0,-120.0,61.0
1701619771.6047227,100.0,115.0,-11.0,2.0,53.0,8.0,-46.0,94.0
1701619771.6047227,-1.0,5.0,14.0,-17.0,-81.0,9.0,-45.0,-76.0
1701619771.6047227,32.0,79.0,-32.0,-42.0,115.0,62.0,46.0,-44.0
1701619771.6047227,-17.0,-109.0,25.0,-66.0,-83.0,25.0,-44.0,42.0
1701619771.6047227,41.0,32.0,24.0,95.0,-13.0,-56.0,56.0,92.0
1701619771.6047227,-5.0,-3.0,21.0,127.0,127.0,25.0,118.0,26.0
1701619771.616372,63.0,106.0,50.0,31.0,36.0,-47.0,-57.0,31.0
1701619771.616372,-43.0,-76.0,-37.0,-63.0,15.0,-7.0,-45.0,-100.0
1701619771.6186888,-40.0,-12.0,-34.0,-44.0,-56.0,90.0,71.0,13.0
1701619771.6186888,6.0,25.0,-33.0,-51.0,-106.0,-117.0,-68.0,67.0
1701619771.6684167,38.0,20.0,0.0,-117.0,-72.0,-85.0,18.0,27.0
1701619771.6684167,127.0,94.0,22.0,-2.0,90.0,-117.0,70.0,84.0
1701619771.6684167,-128.0,-114.0,-15.0,93.0,106.0,-121.0,-75.0,-128.0
1701619771.6684167,44.0,23.0,17.0,14.0,-109.0,-19.0,23.0,56.0
1701619771.6684167,47.0,-18.0,-13.0,11.0,107.0,25.0,25.0,60.0
1701619771.6684167,78.0,123.0,43.0,37.0,-17.0,122.0,52.0,118.0
1701619771.6714163,8.0,-43.0,-33.0,-34.0,-99.0,28.0,-9.0,-68.0
1701619771.6724102,107.0,127.0,18.0,-41.0,25.0,103.0,-43.0,-57.0
1701619771.6724102,-120.0,-128.0,-21.0,20.0,14.0,24.0,-110.0,-55.0
1701619771.6724102,27.0,-74.0,-13.0,79.0,79.0,38.0,-5.0,5.0
1701619771.673531,75.0,21.0,29.0,-2.0,-40.0,74.0,76.0,54.0
1701619771.673531,-3.0,-4.0,-20.0,-35.0,-68.0,-17.0,-38.0,-46.0
1701619771.6838055,79.0,-4.0,0.0,0.0,56.0,60.0,97.0,22.0
1701619771.6838055,-69.0,45.0,-9.0,-4.0,-47.0,74.0,14.0,-48.0
1701619771.7265527,-30.0,-96.0,-11.0,-51.0,-52.0,18.0,-77.0,-70.0
1701619771.726759,-38.0,-53.0,-1.0,46.0,126.0,-42.0,-53.0,49.0
1701619771.7415047,40.0,89.0,6.0,-11.0,-128.0,43.0,59.0,111.0
1701619771.7415047,-56.0,-85.0,-23.0,-16.0,127.0,-27.0,-96.0,-85.0
1701619771.7425053,-17.0,71.0,19.0,72.0,65.0,49.0,45.0,87.0
1701619771.7425053,46.0,35.0,26.0,10.0,-39.0,-26.0,82.0,34.0
1701619771.7633886,-32.0,20.0,-2.0,-9.0,-41.0,-62.0,-47.0,12.0
1701619771.7640185,93.0,29.0,11.0,-5.0,-35.0,36.0,-36.0,127.0
1701619771.7841654,-24.0,13.0,18.0,-42.0,17.0,-10.0,96.0,52.0
1701619771.7841654,-103.0,-77.0,-45.0,-13.0,-32.0,-15.0,-14.0,-52.0
1701619771.7841654,-10.0,-38.0,-25.0,-64.0,-55.0,-94.0,-13.0,-34.0
1701619771.7841654,-68.0,-38.0,-20.0,-69.0,-101.0,-57.0,-19.0,-105.0
1701619771.7841654,93.0,58.0,13.0,31.0,127.0,40.0,-36.0,29.0
1701619771.7841654,-84.0,34.0,9.0,83.0,112.0,101.0,56.0,80.0
1701619771.7841654,-43.0,-45.0,-17.0,-4.0,-19.0,9.0,-6.0,-26.0
1701619771.7841654,90.0,89.0,10.0,-21.0,-89.0,9.0,46.0,29.0
1701619771.7841654,-121.0,-92.0,-12.0,32.0,59.0,-10.0,-103.0,-30.0
1701619771.7841654,127.0,100.0,14.0,26.0,27.0,52.0,68.0,127.0
1701619771.8332837,76.0,78.0,29.0,23.0,-35.0,-64.0,72.0,-30.0
1701619771.8332837,-55.0,-60.0,1.0,42.0,4.0,-46.0,-59.0,32.0
1701619771.8332837,107.0,6.0,-5.0,-32.0,-58.0,-22.0,-4.0,127.0
1701619771.8332837,-103.0,-34.0,-5.0,-22.0,-23.0,72.0,-71.0,-128.0
1701619771.8367493,71.0,-3.0,15.0,58.0,127.0,71.0,-35.0,127.0
1701619771.8367493,39.0,93.0,5.0,-10.0,-60.0,-39.0,46.0,40.0
1701619771.8367493,-19.0,10.0,-20.0,-99.0,-128.0,-12.0,41.0,127.0
1701619771.8367493,43.0,-111.0,-30.0,1.0,92.0,17.0,-51.0,-97.0
1701619771.8423054,-65.0,-82.0,15.0,58.0,54.0,11.0,4.0,63.0
1701619771.8423054,52.0,-75.0,-22.0,-22.0,-55.0,-14.0,54.0,-80.0
1701619771.8423054,-85.0,86.0,-9.0,-50.0,-9.0,-15.0,-44.0,-54.0
1701619771.8423054,86.0,127.0,8.0,-34.0,-30.0,-17.0,11.0,-42.0
1701619771.8535862,-76.0,-112.0,-17.0,-20.0,-55.0,28.0,31.0,11.0
1701619771.8535862,82.0,85.0,32.0,55.0,127.0,34.0,-79.0,27.0
1701619771.8598254,-26.0,32.0,16.0,103.0,92.0,36.0,61.0,14.0
1701619771.8598254,16.0,-14.0,13.0,6.0,-13.0,-26.0,-9.0,40.0
1701619771.922329,73.0,90.0,1.0,-13.0,-33.0,9.0,27.0,98.0
1701619771.922329,-81.0,-32.0,-25.0,-29.0,-58.0,-8.0,-25.0,-96.0
1701619771.929256,11.0,-3.0,-20.0,-90.0,-106.0,82.0,-59.0,-106.0
1701619771.929256,-4.0,-20.0,-3.0,-5.0,104.0,7.0,-17.0,77.0
1701619771.9384146,-57.0,-9.0,11.0,33.0,57.0,-4.0,-75.0,-29.0
1701619771.9388347,-30.0,-47.0,-14.0,4.0,26.0,-58.0,64.0,67.0
1701619771.9749362,35.0,-15.0,0.0,-16.0,-67.0,-72.0,-3.0,12.0
1701619771.9749362,-19.0,-13.0,3.0,-9.0,-76.0,-85.0,-75.0,-68.0
1701619771.9749362,-19.0,15.0,-16.0,-39.0,-36.0,-15.0,-2.0,-60.0
1701619771.9749362,22.0,25.0,5.0,31.0,71.0,13.0,-7.0,37.0
1701619771.9749362,-4.0,37.0,11.0,14.0,15.0,14.0,73.0,62.0
1701619771.9759347,-21.0,-38.0,-4.0,1.0,-5.0,-22.0,-89.0,-48.0
1701619771.9759347,-3.0,-39.0,1.0,-17.0,-34.0,23.0,34.0,-33.0
1701619771.9759347,-29.0,-10.0,4.0,2.0,0.0,6.0,-16.0,37.0
1701619771.9759347,90.0,40.0,3.0,-1.0,21.0,1.0,2.0,-34.0
1701619771.9759347,-30.0,-13.0,-1.0,13.0,-21.0,-9.0,20.0,24.0
1701619771.9759347,-4.0,2.0,-5.0,-11.0,-51.0,-61.0,-56.0,-32.0
1701619771.9759347,35.0,22.0,-1.0,-48.0,-48.0,46.0,61.0,33.0
1701619771.9759347,-5.0,-1.0,8.0,43.0,115.0,32.0,13.0,-83.0
1701619771.9759347,14.0,-14.0,3.0,49.0,73.0,28.0,49.0,43.0
1701619772.01853,55.0,-6.0,3.0,-8.0,-25.0,10.0,44.0,48.0
1701619772.01853,-45.0,6.0,-4.0,-23.0,-37.0,-29.0,-60.0,7.0
1701619772.0213437,88.0,41.0,-11.0,-39.0,-100.0,-38.0,-72.0,-66.0
1701619772.0213437,-13.0,-70.0,10.0,18.0,21.0,26.0,84.0,92.0
1701619772.0213437,-18.0,65.0,-11.0,-38.0,-4.0,-12.0,-47.0,0.0
1701619772.0213437,-119.0,-27.0,-7.0,3.0,3.0,3.0,-9.0,-80.0
1701619772.0213437,14.0,-5.0,6.0,23.0,74.0,19.0,24.0,0.0
1701619772.0213437,51.0,44.0,16.0,-21.0,-103.0,-25.0,20.0,45.0
1701619772.0560496,22.0,2.0,-2.0,-2.0,49.0,29.0,-3.0,-12.0
1701619772.0560496,21.0,15.0,-4.0,-2.0,38.0,16.0,25.0,-17.0
1701619772.0560496,-22.0,-21.0,11.0,12.0,-24.0,-10.0,1.0,-1.0
1701619772.0570502,0.0,35.0,-16.0,-18.0,10.0,0.0,10.0,-13.0
1701619772.0570502,-20.0,-10.0,1.0,-5.0,-40.0,-21.0,-11.0,-55.0
1701619772.0570502,-15.0,-10.0,1.0,2.0,-12.0,5.0,6.0,11.0
1701619772.0570502,-21.0,-29.0,-2.0,14.0,22.0,-18.0,-97.0,-44.0
1701619772.0570502,10.0,3.0,2.0,-2.0,-18.0,5.0,40.0,24.0
1701619772.0852818,11.0,-9.0,-12.0,-2.0,3.0,10.0,9.0,1.0
1701619772.0852818,-30.0,-14.0,-4.0,10.0,34.0,14.0,53.0,19.0
1701619772.0895712,7.0,-20.0,11.0,13.0,1.0,-3.0,7.0,4.0
1701619772.0895712,-14.0,18.0,-14.0,-17.0,-32.0,-18.0,-24.0,19.0
1701619772.0895712,-23.0,-13.0,-1.0,5.0,10.0,-8.0,11.0,-57.0
1701619772.0895712,12.0,7.0,-3.0,6.0,17.0,17.0,3.0,7.0
1701619772.0895712,-1.0,0.0,-7.0,-13.0,-28.0,-1.0,7.0,42.0
1701619772.0895712,8.0,10.0,-5.0,-16.0,-3.0,-8.0,-13.0,-11.0
1701619772.091692,-19.0,-9.0,-7.0,-8.0,-25.0,-16.0,-18.0,-9.0
1701619772.091692,33.0,4.0,17.0,35.0,57.0,15.0,38.0,0.0
1701619772.0993593,-14.0,-3.0,-8.0,12.0,8.0,-10.0,-41.0,1.0
1701619772.0993593,-21.0,-32.0,-3.0,-1.0,18.0,11.0,-11.0,0.0
1701619772.1408966,53.0,27.0,6.0,1.0,-4.0,15.0,-5.0,-21.0
1701619772.141902,-80.0,-25.0,0.0,-9.0,-39.0,-40.0,-37.0,20.0
1701619772.1657147,-5.0,-4.0,-4.0,-9.0,-12.0,7.0,8.0,31.0
1701619772.1657147,7.0,15.0,4.0,7.0,-2.0,1.0,0.0,-46.0
1701619772.1692262,-14.0,-6.0,-3.0,-2.0,15.0,-2.0,-12.0,15.0
1701619772.1692262,25.0,12.0,-5.0,5.0,27.0,23.0,1.0,-8.0
1701619772.1692262,-1.0,-10.0,-6.0,-15.0,-36.0,-25.0,30.0,16.0
1701619772.1692262,-16.0,0.0,-6.0,-19.0,-33.0,-22.0,-59.0,-7.0
1701619772.1692262,-2.0,8.0,8.0,24.0,39.0,32.0,-4.0,10.0
1701619772.1702251,23.0,3.0,5.0,7.0,0.0,-10.0,20.0,-16.0
1701619772.1702251,-4.0,-11.0,-5.0,-11.0,-10.0,-19.0,-27.0,19.0
1701619772.1702251,6.0,11.0,2.0,-6.0,-22.0,-2.0,31.0,0.0
1701619772.1981947,-13.0,-1.0,-2.0,3.0,27.0,28.0,5.0,-28.0
1701619772.199355,20.0,1.0,2.0,0.0,5.0,-12.0,-19.0,6.0
1701619772.2236614,-6.0,-7.0,-2.0,-2.0,-13.0,-3.0,40.0,36.0
1701619772.2236614,-7.0,2.0,-3.0,3.0,11.0,7.0,38.0,-8.0
1701619772.2236614,-2.0,-9.0,-4.0,-5.0,-14.0,-12.0,-7.0,11.0
1701619772.2236614,16.0,-3.0,4.0,-2.0,-9.0,2.0,-9.0,11.0
1701619772.2236614,-17.0,-11.0,-5.0,-4.0,2.0,-5.0,-15.0,-18.0
1701619772.2236614,7.0,4.0,3.0,11.0,18.0,5.0,-18.0,-1.0
1701619772.2303476,5.0,0.0,2.0,4.0,10.0,7.0,31.0,21.0
1701619772.2303476,12.0,-2.0,-6.0,-11.0,-28.0,-9.0,-16.0,-25.0
1701619772.2303476,-45.0,-13.0,-6.0,-9.0,-13.0,-13.0,-18.0,-36.0
1701619772.2303476,2.0,1.0,4.0,-4.0,0.0,7.0,28.0,-5.0
1701619772.2620242,-6.0,-3.0,2.0,12.0,11.0,-5.0,-23.0,-6.0
1701619772.2620242,10.0,4.0,1.0,4.0,4.0,2.0,9.0,43.0
1701619772.2847998,5.0,2.0,3.0,14.0,29.0,19.0,30.0,-9.0
1701619772.2847998,-7.0,-11.0,-5.0,-1.0,-4.0,-7.0,13.0,0.0
1701619772.2923107,-14.0,8.0,-5.0,-18.0,-35.0,-36.0,-39.0,21.0
1701619772.2923107,36.0,-1.0,-6.0,-11.0,-20.0,17.0,33.0,-18.0
1701619772.2923107,-43.0,-1.0,2.0,10.0,20.0,18.0,8.0,-7.0
1701619772.2923107,7.0,12.0,0.0,3.0,7.0,-6.0,-27.0,-12.0
1701619772.2923107,-1.0,-12.0,-1.0,-7.0,-13.0,-10.0,-3.0,16.0
1701619772.2923107,11.0,-1.0,-5.0,-13.0,-17.0,-10.0,-2.0,2.0
1701619772.3166337,17.0,3.0,0.0,-1.0,3.0,-1.0,3.0,8.0
1701619772.3171186,-1.0,2.0,1.0,6.0,11.0,10.0,-2.0,5.0
1701619772.335013,2.0,4.0,3.0,15.0,27.0,10.0,17.0,7.0
1701619772.335013,-29.0,-5.0,-4.0,2.0,3.0,0.0,-37.0,-46.0
1701619772.335013,15.0,-2.0,-2.0,-12.0,-12.0,1.0,12.0,1.0
1701619772.3360138,-8.0,13.0,-1.0,4.0,-2.0,-28.0,-27.0,-5.0
1701619772.3360138,5.0,2.0,-5.0,-11.0,-25.0,4.0,21.0,8.0
1701619772.3360138,-10.0,-7.0,-1.0,-7.0,7.0,-1.0,-13.0,-2.0
1701619772.3360138,12.0,0.0,6.0,6.0,4.0,6.0,6.0,9.0
1701619772.3360138,4.0,-11.0,-4.0,-2.0,6.0,6.0,4.0,-1.0
1701619772.3362727,-7.0,-1.0,-4.0,-2.0,-4.0,-10.0,-8.0,-13.0
1701619772.3362727,1.0,3.0,-1.0,-4.0,-10.0,-7.0,-1.0,7.0
1701619772.3362727,-3.0,-3.0,-1.0,-4.0,-3.0,-5.0,-4.0,-1.0
1701619772.3362727,-1.0,1.0,0.0,0.0,-5.0,-1.0,-1.0,2.0
1701619772.389043,8.0,2.0,0.0,-1.0,-3.0,0.0,13.0,13.0
1701619772.3900425,-12.0,-26.0,-3.0,-2.0,-1.0,-2.0,-21.0,-19.0
1701619772.4027824,21.0,-4.0,-3.0,4.0,7.0,7.0,25.0,-2.0
1701619772.4027824,13.0,-2.0,1.0,-2.0,-2.0,-8.0,-15.0,15.0
1701619772.4027824,21.0,8.0,0.0,1.0,1.0,-3.0,0.0,11.0
1701619772.4027824,-16.0,-4.0,0.0,1.0,1.0,10.0,13.0,-15.0
1701619772.4027824,-11.0,-7.0,0.0,1.0,0.0,2.0,6.0,2.0
1701619772.4027824,4.0,3.0,-1.0,0.0,2.0,-5.0,-15.0,-8.0
1701619772.4027824,10.0,-11.0,0.0,-4.0,-2.0,3.0,20.0,16.0
1701619772.4027824,7.0,18.0,1.0,6.0,3.0,-1.0,1.0,12.0
1701619772.432139,7.0,1.0,2.0,-6.0,-12.0,-9.0,-11.0,-9.0
1701619772.4325879,-3.0,17.0,0.0,2.0,6.0,12.0,-2.0,0.0
1701619772.4467368,-15.0,-12.0,3.0,9.0,21.0,2.0,7.0,-11.0
1701619772.4467368,-2.0,-1.0,-2.0,-1.0,-6.0,-6.0,-1.0,2.0
1701619772.4467368,2.0,22.0,-5.0,0.0,5.0,3.0,-6.0,1.0
1701619772.4467368,-11.0,-28.0,-5.0,-4.0,-5.0,-2.0,12.0,4.0
1701619772.4467368,-9.0,7.0,0.0,-8.0,-12.0,2.0,-6.0,-15.0
1701619772.4467368,-2.0,-3.0,-1.0,0.0,-5.0,-3.0,-4.0,-2.0
1701619772.4467368,15.0,-1.0,3.0,3.0,4.0,0.0,4.0,14.0
1701619772.4467368,10.0,2.0,-4.0,-4.0,-5.0,-4.0,-1.0,-4.0
1701619772.4479046,-16.0,-19.0,-8.0,-7.0,-10.0,-13.0,-8.0,-14.0
1701619772.4479046,-18.0,-4.0,3.0,0.0,2.0,-1.0,9.0,13.0
1701619772.461028,4.0,-1.0,1.0,5.0,7.0,3.0,0.0,6.0
1701619772.461028,-3.0,-5.0,-1.0,1.0,3.0,-11.0,-5.0,-5.0
1701619772.5265434,4.0,10.0,-2.0,-3.0,-4.0,12.0,9.0,-1.0
1701619772.5265434,7.0,3.0,-2.0,-1.0,-4.0,-9.0,5.0,-3.0
1701619772.5265434,4.0,-2.0,0.0,2.0,5.0,14.0,18.0,-1.0
1701619772.5265434,-18.0,0.0,-1.0,0.0,1.0,-3.0,-7.0,-14.0
1701619772.5265434,-2.0,3.0,-2.0,-3.0,-7.0,-2.0,9.0,9.0
1701619772.5265434,-1.0,2.0,0.0,-4.0,-8.0,-3.0,-15.0,-4.0
1701619772.5265434,-2.0,-2.0,-3.0,2.0,7.0,4.0,-2.0,3.0
1701619772.5265434,7.0,-1.0,-2.0,0.0,2.0,-3.0,10.0,0.0
1701619772.5691576,-27.0,15.0,3.0,-4.0,-6.0,2.0,-8.0,-10.0
1701619772.5691576,0.0,0.0,2.0,6.0,12.0,5.0,-3.0,2.0
1701619772.5691576,1.0,6.0,2.0,-4.0,-5.0,-7.0,1.0,-3.0
1701619772.5701563,-4.0,-2.0,-4.0,-5.0,-7.0,-6.0,-8.0,-1.0
1701619772.5701563,1.0,-5.0,-2.0,-1.0,-2.0,-2.0,0.0,-7.0
1701619772.5701563,3.0,-2.0,-2.0,-3.0,-6.0,0.0,-3.0,1.0
1701619772.5701563,-1.0,-5.0,-4.0,2.0,2.0,-5.0,-13.0,2.0
1701619772.5701563,1.0,0.0,1.0,-2.0,-2.0,1.0,0.0,-1.0
1701619772.5701563,8.0,-3.0,-3.0,-2.0,-4.0,5.0,19.0,-2.0
1701619772.5701563,-23.0,-4.0,-3.0,-6.0,-6.0,-7.0,-4.0,-1.0
1701619772.570673,4.0,-3.0,-1.0,-1.0,-1.0,-1.0,0.0,-2.0
1701619772.570673,-9.0,-3.0,1.0,4.0,3.0,-4.0,-30.0,-2.0
1701619772.6123073,6.0,-5.0,0.0,0.0,1.0,8.0,12.0,-4.0
1701619772.6123073,15.0,0.0,-1.0,-3.0,-4.0,-1.0,20.0,29.0
1701619772.6123073,-14.0,-11.0,-4.0,-7.0,-9.0,-10.0,-9.0,-24.0
1701619772.6123073,-17.0,-3.0,0.0,-1.0,4.0,9.0,26.0,5.0
1701619772.6123073,3.0,-7.0,-1.0,3.0,4.0,3.0,-9.0,6.0
1701619772.6123073,5.0,3.0,1.0,-1.0,-3.0,2.0,-2.0,-5.0
1701619772.6123073,-1.0,2.0,-3.0,0.0,8.0,-2.0,-16.0,5.0
1701619772.6123073,9.0,10.0,3.0,5.0,8.0,9.0,18.0,0.0
1701619772.6183662,9.0,5.0,-2.0,-3.0,-5.0,-13.0,-26.0,-8.0
1701619772.6183662,-13.0,-1.0,-5.0,-8.0,-11.0,-8.0,-2.0,-3.0
1701619772.6310983,21.0,1.0,-1.0,-7.0,-12.0,-9.0,-2.0,2.0
1701619772.6310983,-22.0,-14.0,0.0,2.0,5.0,8.0,-9.0,-7.0
1701619772.6739268,-3.0,-6.0,-3.0,-6.0,-5.0,-1.0,32.0,29.0
1701619772.6739268,5.0,1.0,-3.0,-2.0,-5.0,-14.0,-57.0,-53.0
1701619772.6739268,1.0,-5.0,1.0,2.0,2.0,8.0,9.0,-7.0
1701619772.6739268,9.0,5.0,0.0,0.0,1.0,6.0,20.0,7.0
1701619772.6739268,4.0,3.0,0.0,-1.0,-2.0,-2.0,-13.0,7.0
1701619772.6739268,-34.0,-15.0,-1.0,0.0,0.0,-1.0,16.0,2.0
1701619772.6739268,-5.0,4.0,-1.0,0.0,1.0,-2.0,-6.0,7.0
1701619772.6739268,5.0,0.0,-2.0,-3.0,-4.0,-3.0,0.0,-6.0
1701619772.6750345,-1.0,4.0,-1.0,-1.0,0.0,-3.0,-5.0,2.0
1701619772.6750345,13.0,5.0,1.0,1.0,6.0,2.0,-17.0,1.0
1701619772.6843815,7.0,-3.0,-1.0,1.0,1.0,3.0,17.0,2.0
1701619772.6843815,4.0,-1.0,-2.0,-4.0,-7.0,4.0,41.0,5.0
1701619772.695654,-18.0,-3.0,-2.0,1.0,-1.0,-12.0,-24.0,-11.0
1701619772.6969535,12.0,4.0,-3.0,-2.0,0.0,6.0,2.0,8.0
1701619772.7437932,-13.0,-6.0,-4.0,-4.0,-9.0,-4.0,1.0,-6.0
1701619772.7437932,6.0,-2.0,-1.0,-1.0,1.0,-4.0,-16.0,-12.0
1701619772.7437932,4.0,2.0,2.0,4.0,8.0,3.0,9.0,-6.0
1701619772.7437932,10.0,-4.0,-1.0,-3.0,-4.0,-6.0,1.0,1.0
1701619772.7447932,7.0,10.0,-1.0,2.0,3.0,3.0,11.0,27.0
1701619772.7447932,-8.0,0.0,-2.0,-3.0,-2.0,2.0,-11.0,3.0
1701619772.774439,25.0,9.0,3.0,5.0,3.0,-2.0,-26.0,-17.0
1701619772.774439,-63.0,-20.0,-3.0,2.0,4.0,7.0,36.0,-12.0
1701619772.774439,-4.0,7.0,2.0,-1.0,-1.0,-5.0,-27.0,-6.0
1701619772.774439,3.0,-8.0,-3.0,-1.0,-3.0,2.0,12.0,10.0
1701619772.774439,1.0,-8.0,0.0,-3.0,-1.0,-6.0,-21.0,-3.0
1701619772.774439,31.0,0.0,2.0,2.0,2.0,-3.0,4.0,17.0
1701619772.775439,-10.0,-11.0,1.0,-1.0,-1.0,-1.0,-4.0,-12.0
1701619772.775439,-22.0,7.0,2.0,0.0,1.0,2.0,21.0,-12.0
1701619772.7815726,0.0,-16.0,-4.0,-5.0,-4.0,-2.0,-1.0,-4.0
1701619772.7815726,13.0,1.0,-2.0,-2.0,-3.0,-3.0,-18.0,0.0
1701619772.7831576,0.0,-6.0,-4.0,2.0,4.0,2.0,5.0,5.0
1701619772.7831576,11.0,8.0,3.0,-1.0,-3.0,-7.0,-15.0,8.0
1701619772.8400357,-7.0,2.0,-4.0,1.0,0.0,3.0,16.0,-4.0
1701619772.8400357,6.0,2.0,2.0,1.0,0.0,-3.0,-5.0,1.0
1701619772.8403263,1.0,17.0,0.0,-3.0,-2.0,-6.0,3.0,10.0
1701619772.8403263,-11.0,5.0,6.0,1.0,-2.0,-5.0,-17.0,-10.0
1701619772.8403263,-11.0,-8.0,-14.0,-2.0,-2.0,-4.0,-1.0,-9.0
1701619772.8403263,1.0,-8.0,-3.0,0.0,2.0,4.0,-18.0,-1.0
1701619772.8403263,-2.0,13.0,-1.0,-1.0,-1.0,0.0,24.0,1.0
1701619772.8403263,-2.0,-9.0,-2.0,-3.0,-3.0,-9.0,-22.0,-5.0
1701619772.8403263,-6.0,-2.0,1.0,-1.0,1.0,1.0,13.0,-5.0
1701619772.8403263,5.0,5.0,0.0,-1.0,0.0,0.0,-3.0,2.0
1701619772.8413644,-3.0,-9.0,-2.0,1.0,0.0,3.0,-3.0,-2.0
1701619772.8413644,3.0,3.0,-2.0,0.0,2.0,-1.0,-20.0,-4.0
1701619772.8547726,-8.0,-3.0,6.0,-1.0,-4.0,0.0,24.0,0.0
1701619772.8547726,6.0,2.0,-8.0,-1.0,-1.0,-7.0,1.0,11.0
1701619772.8646898,1.0,-5.0,3.0,4.0,6.0,8.0,-4.0,-9.0
1701619772.8646898,8.0,-6.0,-3.0,-3.0,-1.0,-1.0,-5.0,1.0
1701619772.9251158,-8.0,3.0,-1.0,1.0,0.0,-2.0,-13.0,-3.0
1701619772.9251158,10.0,4.0,5.0,0.0,0.0,6.0,11.0,-6.0
1701619772.9251158,-18.0,-16.0,-4.0,-8.0,-7.0,-5.0,-6.0,-2.0
1701619772.9251158,-15.0,-17.0,-5.0,-1.0,-1.0,-2.0,-1.0,3.0
1701619772.9403386,-5.0,2.0,-3.0,-3.0,-4.0,-2.0,14.0,2.0
1701619772.9413452,7.0,13.0,3.0,1.0,-2.0,0.0,-16.0,-9.0
1701619772.9690113,19.0,8.0,-1.0,-1.0,-1.0,-6.0,-3.0,-5.0
1701619772.9690113,-19.0,12.0,-1.0,1.0,3.0,6.0,-1.0,3.0
1701619772.9690113,-18.0,-11.0,-3.0,-5.0,-3.0,-10.0,-46.0,-42.0
1701619772.9690113,-17.0,-13.0,-1.0,-1.0,1.0,6.0,23.0,7.0
1701619772.9690113,-1.0,1.0,-3.0,0.0,0.0,-2.0,-1.0,1.0
1701619772.9690113,11.0,-9.0,0.0,-1.0,-3.0,-3.0,0.0,10.0
1701619772.9729347,16.0,-5.0,3.0,3.0,3.0,6.0,9.0,15.0
1701619772.9729347,0.0,-10.0,-3.0,-1.0,0.0,-5.0,0.0,-7.0
1701619772.9729347,-2.0,-4.0,0.0,-3.0,-4.0,-10.0,-1.0,2.0
1701619772.9729347,4.0,1.0,-4.0,-2.0,0.0,6.0,11.0,0.0
1701619772.9858983,-2.0,11.0,1.0,0.0,0.0,1.0,-21.0,7.0
1701619772.9858983,5.0,6.0,-2.0,-2.0,-2.0,-6.0,1.0,-1.0
1701619772.9961076,0.0,-5.0,-2.0,-2.0,-4.0,3.0,6.0,4.0
1701619772.9961076,-12.0,-2.0,-4.0,-4.0,-3.0,-6.0,-1.0,-15.0
1701619772.9961076,5.0,3.0,-2.0,-5.0,-5.0,-5.0,4.0,-5.0
1701619772.9961076,-15.0,-1.0,-1.0,3.0,7.0,13.0,-9.0,-8.0
1701619772.9961076,7.0,1.0,-2.0,-3.0,-2.0,-2.0,-2.0,-5.0
1701619772.9961076,10.0,0.0,0.0,-1.0,2.0,2.0,26.0,15.0
1701619772.9991379,-1.0,-2.0,-1.0,-2.0,-4.0,-9.0,-9.0,-4.0
1701619772.9991379,6.0,7.0,0.0,0.0,-1.0,0.0,12.0,7.0
1701619773.0064418,-38.0,-1.0,1.0,-1.0,-3.0,-3.0,-21.0,-9.0
1701619773.0064418,32.0,-11.0,-1.0,1.0,1.0,2.0,19.0,-1.0
1701619773.0291684,-11.0,7.0,0.0,3.0,3.0,2.0,-20.0,9.0
1701619773.0291684,-10.0,-17.0,-2.0,-2.0,0.0,-3.0,-8.0,-13.0
1701619773.049171,-10.0,5.0,-2.0,1.0,1.0,3.0,2.0,-5.0
1701619773.05017,-6.0,1.0,0.0,-2.0,-1.0,-2.0,-3.0,-2.0
1701619773.05017,9.0,5.0,0.0,-2.0,-4.0,-8.0,4.0,2.0
1701619773.05017,8.0,2.0,1.0,2.0,1.0,-1.0,-34.0,-10.0
1701619773.05017,7.0,-1.0,-2.0,-2.0,-2.0,4.0,25.0,11.0
1701619773.05017,-5.0,-9.0,0.0,-2.0,-2.0,-2.0,11.0,1.0
1701619773.0602896,-4.0,-5.0,-1.0,-2.0,-1.0,-1.0,-30.0,-3.0
1701619773.0602896,-3.0,2.0,0.0,-4.0,-2.0,-1.0,5.0,4.0
1701619773.0664248,3.0,-8.0,-2.0,-4.0,-8.0,-8.0,1.0,3.0
1701619773.0664248,11.0,7.0,-4.0,-3.0,-7.0,-6.0,-51.0,-8.0
1701619773.0785422,-11.0,-3.0,0.0,1.0,3.0,-7.0,10.0,3.0
1701619773.0785422,-18.0,10.0,4.0,5.0,6.0,17.0,24.0,-5.0
1701619773.0803437,11.0,9.0,3.0,4.0,12.0,4.0,16.0,18.0
1701619773.0803437,-4.0,-6.0,-2.0,1.0,5.0,-5.0,-30.0,-21.0
1701619773.1405878,-11.0,-8.0,-4.0,-8.0,-8.0,7.0,28.0,4.0
1701619773.1405878,11.0,0.0,-2.0,-6.0,-12.0,-12.0,-2.0,12.0
1701619773.1416955,-3.0,1.0,-1.0,0.0,-2.0,-4.0,-15.0,-3.0
1701619773.1416955,9.0,4.0,1.0,1.0,1.0,3.0,5.0,-3.0
1701619773.1712823,3.0,3.0,0.0,3.0,3.0,6.0,13.0,3.0
1701619773.1727448,-4.0,3.0,-2.0,-6.0,-4.0,-4.0,4.0,0.0
1701619773.1841874,-2.0,-11.0,-2.0,-5.0,-11.0,-7.0,-24.0,0.0
1701619773.1841874,1.0,0.0,-2.0,-3.0,-6.0,-9.0,3.0,-1.0
1701619773.1841874,-2.0,-5.0,-2.0,0.0,-5.0,-3.0,-13.0,-8.0
1701619773.1841874,7.0,-5.0,-1.0,1.0,-4.0,-2.0,-14.0,11.0
1701619773.1841874,9.0,-3.0,0.0,4.0,16.0,7.0,8.0,-31.0
1701619773.1841874,-39.0,-4.0,0.0,2.0,9.0,0.0,-26.0,1.0
1701619773.1841874,3.0,-7.0,-4.0,-5.0,-13.0,-8.0,16.0,-4.0
1701619773.1841874,9.0,1.0,1.0,3.0,6.0,10.0,-5.0,22.0
1701619773.1841874,-5.0,-9.0,-4.0,-6.0,-10.0,-5.0,-12.0,-2.0
1701619773.1841874,-23.0,-4.0,-1.0,-5.0,-12.0,-5.0,2.0,-13.0
1701619773.2064097,5.0,3.0,1.0,1.0,-3.0,-2.0,1.0,25.0
1701619773.2073092,-6.0,3.0,-5.0,-8.0,-3.0,-9.0,-4.0,-38.0
1701619773.2149959,12.0,8.0,-1.0,2.0,-9.0,2.0,13.0,11.0
1701619773.2149959,-16.0,-3.0,1.0,1.0,23.0,18.0,4.0,4.0
1701619773.2149959,-10.0,-9.0,4.0,13.0,24.0,4.0,5.0,0.0
1701619773.2149959,34.0,3.0,-3.0,-8.0,-6.0,-2.0,17.0,8.0
1701619773.215994,-49.0,-5.0,-3.0,-3.0,-12.0,-13.0,-24.0,-22.0
1701619773.215994,26.0,2.0,-6.0,-17.0,-38.0,-16.0,0.0,8.0
1701619773.2261138,-4.0,-7.0,1.0,-2.0,-7.0,0.0,-10.0,10.0
1701619773.2261138,-11.0,4.0,3.0,12.0,32.0,12.0,-2.0,-11.0
1701619773.2314107,8.0,12.0,4.0,13.0,24.0,12.0,18.0,30.0
1701619773.2314107,16.0,-3.0,-4.0,2.0,2.0,-3.0,-5.0,-18.0
1701619773.2648072,-6.0,0.0,-3.0,-15.0,-27.0,-7.0,1.0,-32.0
1701619773.265171,-10.0,-22.0,-6.0,-7.0,-24.0,-16.0,3.0,-26.0
1701619773.2752714,13.0,10.0,1.0,-2.0,6.0,4.0,9.0,31.0
1701619773.2752714,19.0,3.0,5.0,10.0,6.0,-2.0,-6.0,-1.0
1701619773.2773423,-5.0,9.0,-4.0,-3.0,-4.0,4.0,7.0,41.0
1701619773.278477,-6.0,-1.0,-5.0,-11.0,-4.0,-7.0,-3.0,-34.0
1701619773.278477,-22.0,-9.0,-3.0,-12.0,-26.0,-8.0,-20.0,-21.0
1701619773.278477,1.0,-12.0,-2.0,0.0,12.0,11.0,-11.0,12.0
1701619773.279515,22.0,-2.0,6.0,20.0,21.0,8.0,21.0,-9.0
1701619773.279515,3.0,21.0,7.0,20.0,28.0,9.0,23.0,82.0
1701619773.283898,-28.0,-33.0,-3.0,-2.0,12.0,-2.0,-48.0,-54.0
1701619773.283898,8.0,9.0,-2.0,-3.0,-13.0,-10.0,28.0,13.0
1701619773.2950182,2.0,0.0,-5.0,-10.0,-12.0,-1.0,-16.0,-54.0
1701619773.2950182,-9.0,-7.0,-6.0,7.0,-17.0,-14.0,-12.0,-8.0
1701619773.3541994,28.0,9.0,-3.0,-9.0,-9.0,-4.0,15.0,15.0
1701619773.3541994,-10.0,3.0,-1.0,-3.0,-17.0,-12.0,-41.0,12.0
1701619773.3541994,-1.0,0.0,-5.0,-14.0,-6.0,4.0,32.0,27.0
1701619773.3541994,18.0,8.0,1.0,-10.0,-3.0,1.0,12.0,-2.0
1701619773.3602555,0.0,-7.0,-5.0,-12.0,-17.0,-8.0,0.0,-16.0
1701619773.3602555,-4.0,-9.0,1.0,12.0,-5.0,-2.0,9.0,-1.0
1701619773.3602555,17.0,12.0,9.0,9.0,36.0,15.0,-24.0,18.0
1701619773.3602555,-35.0,-4.0,-1.0,11.0,25.0,6.0,-10.0,-13.0
1701619773.3602555,7.0,-11.0,-4.0,3.0,0.0,1.0,2.0,1.0
1701619773.3602555,-13.0,5.0,-4.0,-3.0,6.0,9.0,2.0,-12.0
1701619773.4014292,-7.0,-5.0,2.0,9.0,2.0,-16.0,-16.0,15.0
1701619773.4014292,12.0,-3.0,-4.0,-3.0,-18.0,-7.0,13.0,-19.0
1701619773.4014292,-5.0,-3.0,1.0,-2.0,-2.0,-1.0,-1.0,-19.0
1701619773.4014292,-3.0,3.0,-1.0,-12.0,-18.0,-7.0,-25.0,26.0
1701619773.4014292,27.0,2.0,-6.0,1.0,10.0,15.0,74.0,-14.0
1701619773.4014292,-7.0,-1.0,1.0,-3.0,-2.0,-5.0,-16.0,0.0
1701619773.4024305,7.0,3.0,-8.0,-13.0,1.0,0.0,-1.0,20.0
1701619773.4024305,-3.0,-11.0,-3.0,7.0,-12.0,-10.0,-15.0,-28.0
1701619773.4024305,-3.0,-7.0,5.0,-2.0,13.0,8.0,-19.0,3.0
1701619773.4024305,20.0,-2.0,0.0,7.0,5.0,-2.0,-13.0,28.0
1701619773.4041584,-8.0,11.0,4.0,0.0,-11.0,-7.0,-28.0,-23.0
1701619773.4041584,11.0,3.0,0.0,-4.0,9.0,10.0,70.0,30.0
1701619773.443346,10.0,3.0,-2.0,-3.0,-7.0,-12.0,-36.0,-12.0
1701619773.443346,-39.0,-8.0,-5.0,-14.0,-31.0,-9.0,7.0,-8.0
1701619773.443346,5.0,9.0,2.0,5.0,5.0,6.0,-17.0,17.0
1701619773.443346,-24.0,-8.0,-5.0,-5.0,8.0,1.0,-8.0,-36.0
1701619773.443346,2.0,10.0,3.0,3.0,2.0,0.0,-2.0,-12.0
1701619773.443346,-18.0,-5.0,7.0,13.0,35.0,15.0,-1.0,1.0
1701619773.4443815,10.0,-5.0,0.0,9.0,9.0,4.0,17.0,25.0
1701619773.4443815,8.0,5.0,9.0,8.0,-3.0,3.0,6.0,6.0
1701619773.459459,-13.0,-2.0,-7.0,-12.0,-24.0,-19.0,-36.0,-18.0
1701619773.459459,4.0,8.0,-2.0,-22.0,-8.0,-1.0,22.0,7.0
1701619773.463871,3.0,-6.0,-8.0,-13.0,-7.0,4.0,27.0,11.0
1701619773.463871,-4.0,-5.0,-8.0,-12.0,-9.0,-6.0,0.0,-21.0
1701619773.5046105,-16.0,-3.0,-3.0,-7.0,-15.0,-3.0,-7.0,-1.0
1701619773.5046105,10.0,-1.0,7.0,1.0,-13.0,-8.0,-13.0,-3.0
1701619773.5046105,7.0,5.0,4.0,26.0,38.0,18.0,9.0,-1.0
1701619773.5046105,2.0,0.0,5.0,8.0,21.0,7.0,4.0,1.0
1701619773.5056093,-6.0,-1.0,7.0,1.0,-6.0,-3.0,4.0,15.0
1701619773.5056093,4.0,-7.0,-16.0,-5.0,-9.0,-6.0,-12.0,-15.0
1701619773.5056093,-2.0,-3.0,-8.0,-15.0,-14.0,-3.0,8.0,-8.0
1701619773.5056093,-4.0,2.0,-1.0,-6.0,-4.0,-2.0,-8.0,1.0
1701619773.5201046,-7.0,-7.0,-9.0,-14.0,-16.0,-9.0,-2.0,0.0
1701619773.5201046,5.0,5.0,20.0,17.0,6.0,5.0,3.0,3.0
1701619773.5246017,-2.0,-8.0,-3.0,2.0,3.0,0.0,-3.0,1.0
1701619773.5246017,4.0,0.0,0.0,2.0,26.0,6.0,6.0,2.0
1701619773.5727122,-2.0,0.0,-1.0,12.0,3.0,1.0,2.0,2.0
1701619773.5737078,-1.0,-5.0,6.0,-11.0,-10.0,-4.0,-2.0,8.0
1701619773.5737078,-2.0,0.0,4.0,10.0,-2.0,-1.0,-7.0,-29.0
1701619773.5737078,-1.0,4.0,4.0,7.0,-3.0,-5.0,-2.0,11.0
1701619773.5737078,-3.0,-3.0,-18.0,-16.0,-13.0,-4.0,0.0,-9.0
1701619773.5737078,3.0,-18.0,-16.0,-15.0,-6.0,0.0,7.0,49.0
1701619773.5737078,-2.0,8.0,-12.0,-2.0,-3.0,-6.0,-5.0,-29.0
1701619773.5737078,-1.0,14.0,13.0,9.0,8.0,4.0,0.0,-16.0
1701619773.6094031,-10.0,-20.0,-7.0,-6.0,5.0,1.0,-6.0,-1.0
1701619773.6094031,1.0,0.0,12.0,11.0,-14.0,-4.0,-1.0,-7.0
1701619773.6094031,1.0,-8.0,-6.0,7.0,16.0,4.0,10.0,25.0
1701619773.6094031,-2.0,-7.0,3.0,-7.0,-6.0,1.0,1.0,4.0
1701619773.6094031,4.0,13.0,2.0,9.0,2.0,-2.0,0.0,-4.0
1701619773.6094031,-5.0,-2.0,-31.0,-22.0,-12.0,-8.0,-7.0,-6.0
1701619773.6104028,2.0,1.0,30.0,4.0,-13.0,-9.0,-1.0,11.0
1701619773.6104028,-3.0,-6.0,-7.0,1.0,7.0,6.0,1.0,-20.0
1701619773.6104028,-2.0,-9.0,-16.0,-2.0,1.0,1.0,9.0,18.0
1701619773.6104028,-6.0,1.0,5.0,-3.0,-13.0,-7.0,-9.0,-30.0
1701619773.658573,1.0,8.0,18.0,8.0,19.0,8.0,2.0,7.0
1701619773.658573,1.0,2.0,-19.0,-1.0,0.0,5.0,3.0,0.0
1701619773.6774027,2.0,-3.0,38.0,-1.0,-3.0,-1.0,2.0,8.0
1701619773.6774027,-3.0,-14.0,-64.0,-3.0,-5.0,-6.0,-4.0,-6.0
1701619773.6774027,-2.0,-1.0,-17.0,-5.0,-1.0,2.0,0.0,3.0
1701619773.6774027,3.0,-5.0,-16.0,-3.0,1.0,-2.0,0.0,4.0
1701619773.6774027,-3.0,23.0,51.0,16.0,10.0,2.0,0.0,-10.0
1701619773.6774027,-2.0,5.0,17.0,19.0,-4.0,-4.0,-5.0,-5.0
1701619773.6774027,-4.0,-5.0,-71.0,-44.0,-13.0,-5.0,-5.0,6.0
1701619773.6774027,2.0,-3.0,-7.0,-7.0,-7.0,-2.0,2.0,-13.0
1701619773.6782105,-12.0,-10.0,-20.0,0.0,-5.0,-5.0,-5.0,-9.0
1701619773.6782105,11.0,20.0,65.0,29.0,12.0,5.0,2.0,1.0
1701619773.6782105,5.0,-6.0,27.0,21.0,0.0,1.0,8.0,4.0
1701619773.6782105,-4.0,8.0,31.0,-24.0,-8.0,-6.0,1.0,9.0
1701619773.70004,-7.0,-18.0,-59.0,-20.0,-16.0,-5.0,-3.0,-10.0
1701619773.70004,-1.0,-4.0,-6.0,0.0,16.0,11.0,2.0,-2.0
1701619773.7485988,-1.0,5.0,39.0,10.0,7.0,-5.0,-3.0,-3.0
1701619773.7485988,-3.0,-12.0,18.0,19.0,-12.0,-7.0,-2.0,4.0
1701619773.7621245,-1.0,-1.0,13.0,0.0,-6.0,-6.0,-2.0,-1.0
1701619773.7621245,4.0,-8.0,-46.0,-19.0,-1.0,-1.0,-7.0,8.0
1701619773.7621245,1.0,7.0,-10.0,-20.0,8.0,12.0,12.0,-8.0
1701619773.7621245,4.0,7.0,7.0,24.0,8.0,0.0,5.0,8.0
1701619773.8071215,6.0,-5.0,5.0,3.0,-6.0,-2.0,-6.0,9.0
1701619773.8071215,-12.0,4.0,-2.0,-12.0,-2.0,-10.0,-3.0,-6.0
1701619773.8071215,2.0,-4.0,23.0,12.0,-6.0,2.0,0.0,-1.0
1701619773.8071215,-18.0,-5.0,-64.0,-41.0,-12.0,-5.0,-8.0,-10.0
1701619773.8071215,-5.0,4.0,-2.0,14.0,4.0,5.0,4.0,-3.0
1701619773.8081777,9.0,9.0,-10.0,-10.0,-2.0,0.0,-7.0,-1.0
1701619773.8081777,22.0,4.0,-6.0,6.0,-4.0,-6.0,-7.0,16.0
1701619773.8081777,-10.0,2.0,-32.0,-15.0,4.0,1.0,-1.0,-17.0
1701619773.8081777,-6.0,4.0,41.0,22.0,4.0,1.0,-4.0,-14.0
1701619773.8081777,4.0,-2.0,-15.0,-24.0,-3.0,-8.0,-30.0,-14.0
1701619773.8081777,-34.0,-1.0,6.0,3.0,-11.0,-6.0,-10.0,-5.0
1701619773.8081777,23.0,3.0,13.0,19.0,3.0,5.0,-6.0,6.0
1701619773.8154712,2.0,1.0,-7.0,-19.0,7.0,5.0,-11.0,15.0
1701619773.8154712,11.0,7.0,37.0,16.0,10.0,9.0,18.0,-14.0
1701619773.8428237,-33.0,-12.0,-58.0,-7.0,-17.0,-4.0,-1.0,-3.0
1701619773.8428237,0.0,4.0,72.0,3.0,9.0,-7.0,-5.0,42.0
1701619773.8428237,16.0,-2.0,-84.0,-12.0,1.0,-2.0,-6.0,-19.0
1701619773.8428237,-32.0,-10.0,3.0,8.0,2.0,3.0,6.0,26.0
1701619773.8428237,17.0,-7.0,35.0,-22.0,-17.0,-11.0,-12.0,-29.0
1701619773.8428237,-8.0,-2.0,4.0,-5.0,-8.0,0.0,4.0,9.0
1701619773.8438234,7.0,4.0,49.0,8.0,9.0,7.0,25.0,-13.0
1701619773.8438234,14.0,1.0,-34.0,-10.0,1.0,4.0,4.0,21.0
1701619773.8463345,24.0,-9.0,-3.0,8.0,1.0,-7.0,-1.0,-3.0
1701619773.8463345,-13.0,-1.0,15.0,-4.0,-11.0,-14.0,-40.0,5.0
1701619773.9044755,35.0,6.0,39.0,4.0,6.0,8.0,14.0,-10.0
1701619773.9044755,-30.0,-25.0,-58.0,-21.0,-4.0,8.0,67.0,13.0
1701619773.9044755,6.0,17.0,88.0,27.0,14.0,7.0,-4.0,-41.0
1701619773.9044755,28.0,-9.0,-41.0,-12.0,-10.0,-8.0,-19.0,32.0
1701619773.9044755,-42.0,-7.0,-83.0,-1.0,4.0,-5.0,3.0,67.0
1701619773.9044755,24.0,5.0,37.0,1.0,-7.0,-3.0,-1.0,-64.0
1701619773.9044755,-40.0,7.0,12.0,1.0,0.0,3.0,-17.0,-66.0
1701619773.9044755,-7.0,5.0,-10.0,0.0,-7.0,-9.0,-69.0,-13.0
1701619773.9081597,-21.0,8.0,14.0,6.0,8.0,11.0,25.0,-26.0
1701619773.9081597,-9.0,1.0,22.0,14.0,11.0,4.0,39.0,34.0
1701619773.9081597,16.0,-10.0,-50.0,-26.0,-15.0,10.0,50.0,21.0
1701619773.9081597,18.0,-1.0,0.0,-1.0,-2.0,-5.0,-65.0,-15.0
1701619773.9557972,-15.0,0.0,18.0,1.0,-6.0,-9.0,-19.0,-4.0
1701619773.9557972,-2.0,-15.0,11.0,1.0,-5.0,-9.0,-44.0,23.0
1701619773.956797,16.0,-2.0,3.0,8.0,8.0,-3.0,26.0,24.0
1701619773.956797,-41.0,-7.0,-3.0,9.0,-1.0,6.0,78.0,-5.0
1701619773.956797,-11.0,-17.0,-7.0,-14.0,-6.0,-23.0,-29.0,4.0
1701619773.956797,17.0,2.0,-9.0,-9.0,-4.0,11.0,50.0,-46.0
1701619773.956797,25.0,8.0,-14.0,-6.0,-2.0,-14.0,-35.0,99.0
1701619773.956797,0.0,-17.0,5.0,5.0,5.0,5.0,47.0,-11.0
1701619773.9842439,7.0,0.0,7.0,-1.0,-1.0,6.0,-26.0,21.0
1701619773.984803,-31.0,-60.0,5.0,7.0,3.0,-5.0,-59.0,-6.0
1701619774.0084398,-1.0,90.0,0.0,0.0,-5.0,-14.0,-96.0,-40.0
1701619774.0084398,0.0,24.0,-10.0,-10.0,-2.0,-1.0,98.0,70.0
1701619774.0084398,79.0,-12.0,51.0,14.0,7.0,4.0,-25.0,-65.0
1701619774.0084398,-22.0,-27.0,-51.0,-6.0,-8.0,-5.0,-34.0,-14.0
1701619774.0084398,3.0,-10.0,-35.0,-3.0,2.0,9.0,38.0,12.0
1701619774.0084398,-2.0,21.0,14.0,7.0,-1.0,-19.0,-32.0,-40.0
1701619774.0084398,38.0,19.0,-11.0,-1.0,-4.0,17.0,60.0,52.0
1701619774.0084398,-78.0,17.0,19.0,7.0,7.0,30.0,39.0,42.0
1701619774.009439,62.0,-35.0,-9.0,1.0,-1.0,-14.0,-52.0,-110.0
1701619774.009439,-47.0,23.0,-9.0,0.0,5.0,19.0,53.0,54.0
1701619774.0450857,1.0,-64.0,-36.0,-17.0,-9.0,-21.0,-63.0,23.0
1701619774.0450857,-59.0,21.0,31.0,7.0,2.0,0.0,-4.0,-75.0
1701619774.0683434,-44.0,-65.0,-22.0,-9.0,-8.0,0.0,8.0,23.0
1701619774.0683434,88.0,6.0,17.0,7.0,4.0,2.0,-2.0,-15.0
1701619774.0683434,-81.0,-4.0,0.0,-5.0,-5.0,-10.0,-59.0,21.0
1701619774.0683434,105.0,13.0,4.0,0.0,-6.0,-29.0,-48.0,44.0
1701619774.0683434,-43.0,3.0,7.0,2.0,8.0,31.0,27.0,-59.0
1701619774.0683434,46.0,-11.0,-6.0,-5.0,-6.0,-3.0,-8.0,12.0
1701619774.0723188,-2.0,26.0,5.0,6.0,3.0,-9.0,5.0,75.0
1701619774.0723188,41.0,-27.0,-10.0,-6.0,-4.0,10.0,14.0,-23.0
1701619774.0783694,-38.0,63.0,11.0,0.0,-3.0,-16.0,-15.0,2.0
1701619774.0783694,-57.0,-25.0,3.0,4.0,0.0,12.0,37.0,43.0
1701619774.0794735,-53.0,-22.0,-20.0,-7.0,-5.0,-14.0,-79.0,-128.0
1701619774.0794735,40.0,69.0,30.0,7.0,1.0,3.0,12.0,-22.0
1701619774.086758,-50.0,-38.0,-12.0,-20.0,-11.0,-2.0,-27.0,-4.0
1701619774.086758,-21.0,-26.0,-26.0,-2.0,-1.0,-5.0,27.0,65.0
1701619774.141425,-36.0,12.0,-6.0,1.0,-1.0,13.0,95.0,-39.0
1701619774.141425,16.0,70.0,26.0,-1.0,-1.0,-17.0,-18.0,21.0
1701619774.141425,41.0,8.0,10.0,5.0,2.0,-15.0,-30.0,89.0
1701619774.141425,17.0,51.0,28.0,3.0,5.0,19.0,42.0,-59.0
1701619774.1490927,11.0,-17.0,-55.0,-15.0,-8.0,-8.0,-3.0,28.0
1701619774.1490927,-58.0,32.0,0.0,-1.0,-7.0,-24.0,-51.0,-30.0
1701619774.1490927,-31.0,10.0,16.0,7.0,7.0,18.0,21.0,14.0
1701619774.1490927,7.0,-42.0,-18.0,-8.0,-8.0,-18.0,-55.0,-4.0
1701619774.187523,51.0,37.0,58.0,12.0,6.0,-4.0,4.0,-26.0
1701619774.1882048,13.0,-15.0,-8.0,0.0,0.0,7.0,-83.0,-15.0
1701619774.1909091,59.0,19.0,-8.0,0.0,-2.0,-4.0,58.0,74.0
1701619774.1909091,1.0,-29.0,-3.0,2.0,2.0,10.0,-18.0,-34.0
1701619774.1909091,-29.0,7.0,0.0,-4.0,4.0,24.0,38.0,35.0
1701619774.1909091,16.0,-16.0,-1.0,1.0,0.0,-8.0,-37.0,11.0
1701619774.1909091,-11.0,-17.0,16.0,3.0,1.0,-3.0,-67.0,35.0
1701619774.1909091,-39.0,-21.0,-22.0,5.0,0.0,-30.0,-61.0,-51.0
1701619774.1909091,46.0,-28.0,31.0,-10.0,-8.0,4.0,-13.0,-25.0
1701619774.1909091,-55.0,-54.0,-26.0,-7.0,0.0,11.0,66.0,-10.0
1701619774.2157977,50.0,72.0,24.0,2.0,-2.0,-5.0,77.0,40.0
1701619774.2157977,-3.0,-1.0,-8.0,-4.0,0.0,14.0,-78.0,-22.0
1701619774.2233217,-40.0,-31.0,3.0,13.0,7.0,-17.0,-14.0,5.0
1701619774.2233217,21.0,-14.0,3.0,-3.0,-2.0,15.0,-21.0,65.0
1701619774.2233217,-2.0,-48.0,-5.0,-5.0,-3.0,-2.0,12.0,-75.0
1701619774.2233217,0.0,-4.0,12.0,1.0,-4.0,-28.0,-76.0,-27.0
1701619774.227059,-11.0,58.0,4.0,4.0,6.0,41.0,69.0,69.0
1701619774.227059,-32.0,-55.0,-23.0,-2.0,-2.0,-22.0,-42.0,-44.0
1701619774.2363858,-65.0,-1.0,-34.0,-10.0,-5.0,15.0,95.0,-13.0
1701619774.2363858,57.0,-34.0,21.0,8.0,7.0,12.0,-38.0,-13.0
1701619774.2374394,-2.0,0.0,-13.0,6.0,3.0,-3.0,68.0,-41.0
1701619774.2374394,-31.0,-15.0,4.0,-5.0,-2.0,-5.0,0.0,7.0
1701619774.247589,42.0,-59.0,-17.0,-3.0,-1.0,24.0,40.0,29.0
1701619774.247589,-55.0,3.0,-31.0,-11.0,-3.0,9.0,101.0,-21.0
1701619774.294832,10.0,-47.0,-3.0,-3.0,0.0,-7.0,-95.0,-9.0
1701619774.2963843,59.0,4.0,-1.0,3.0,3.0,19.0,82.0,18.0
1701619774.2974248,-19.0,28.0,12.0,1.0,2.0,-21.0,-15.0,18.0
1701619774.2974248,-8.0,-9.0,0.0,-2.0,-7.0,9.0,76.0,-27.0
1701619774.2974248,-7.0,16.0,-23.0,-5.0,-6.0,-36.0,-73.0,13.0
1701619774.2974248,-5.0,25.0,23.0,1.0,2.0,40.0,79.0,68.0
1701619774.2974248,12.0,18.0,-3.0,3.0,3.0,12.0,-80.0,-9.0
1701619774.2974248,-29.0,20.0,26.0,5.0,-3.0,-29.0,-43.0,-16.0
1701619774.2992873,27.0,3.0,38.0,6.0,2.0,10.0,8.0,-58.0
1701619774.301962,17.0,45.0,-23.0,-10.0,-4.0,-3.0,34.0,72.0
1701619774.3312812,12.0,-74.0,-36.0,-8.0,-9.0,-15.0,-2.0,2.0
1701619774.3318315,3.0,-4.0,-8.0,-8.0,-4.0,-4.0,-4.0,-9.0
1701619774.352692,65.0,6.0,4.0,-3.0,-8.0,-6.0,-56.0,-37.0
1701619774.352692,15.0,23.0,12.0,3.0,-3.0,-11.0,26.0,-16.0
1701619774.352692,3.0,-2.0,17.0,10.0,6.0,-3.0,34.0,58.0
1701619774.352692,80.0,34.0,-4.0,-6.0,-1.0,16.0,-46.0,-44.0
1701619774.352692,-67.0,-30.0,-14.0,-7.0,-5.0,-11.0,13.0,36.0
1701619774.352692,2.0,2.0,-14.0,3.0,7.0,23.0,75.0,19.0
1701619774.352692,25.0,27.0,8.0,-2.0,-5.0,-26.0,-75.0,-40.0
1701619774.352692,-53.0,-34.0,-19.0,-1.0,-1.0,-17.0,-55.0,-25.0
1701619774.3537436,30.0,60.0,-10.0,-10.0,2.0,38.0,113.0,78.0
1701619774.3537436,-16.0,-30.0,6.0,1.0,-6.0,-30.0,-128.0,-67.0
1701619774.417148,-35.0,-46.0,-3.0,-5.0,-6.0,-2.0,51.0,-8.0
1701619774.417148,-7.0,27.0,1.0,1.0,-1.0,-3.0,-2.0,11.0
1701619774.417148,-7.0,0.0,4.0,3.0,-4.0,-21.0,-49.0,-3.0
1701619774.417148,2.0,1.0,-26.0,-5.0,-2.0,-18.0,-87.0,-35.0
1701619774.417148,-40.0,-4.0,6.0,5.0,1.0,-9.0,-19.0,-14.0
1701619774.417148,40.0,4.0,-2.0,-6.0,4.0,34.0,44.0,31.0
1701619774.417148,-19.0,7.0,2.0,0.0,-4.0,-1.0,20.0,-15.0
1701619774.417148,-17.0,-31.0,-5.0,1.0,3.0,9.0,-1.0,35.0
1701619774.4181504,-7.0,-36.0,-21.0,-7.0,1.0,-4.0,-28.0,-13.0
1701619774.4181504,-25.0,53.0,15.0,-3.0,-8.0,-17.0,-41.0,-45.0
1701619774.4488797,20.0,-9.0,-1.0,-4.0,-1.0,-4.0,35.0,39.0
1701619774.4488797,-38.0,-20.0,-18.0,-7.0,-4.0,-10.0,-43.0,-50.0
1701619774.4488797,30.0,13.0,4.0,5.0,3.0,21.0,97.0,18.0
1701619774.4488797,47.0,3.0,7.0,1.0,4.0,-5.0,-42.0,30.0
1701619774.4528708,7.0,-13.0,2.0,4.0,0.0,-37.0,-128.0,-39.0
1701619774.4528708,20.0,17.0,19.0,8.0,4.0,32.0,17.0,22.0
1701619774.4528708,-12.0,12.0,-8.0,-9.0,-2.0,3.0,-34.0,-11.0
1701619774.4528708,1.0,-21.0,0.0,3.0,-1.0,-5.0,-14.0,8.0
1701619774.464222,-7.0,18.0,9.0,-6.0,-3.0,0.0,-2.0,23.0
1701619774.464222,55.0,-9.0,-11.0,-3.0,-6.0,-20.0,81.0,68.0
1701619774.4689338,22.0,19.0,0.0,5.0,3.0,7.0,-57.0,-71.0
1701619774.4689338,-30.0,-21.0,2.0,-2.0,-5.0,-1.0,-8.0,29.0
1701619774.4794352,-29.0,16.0,-14.0,-9.0,-11.0,-20.0,-14.0,-32.0
1701619774.4816952,-32.0,-22.0,4.0,2.0,5.0,1.0,-67.0,-7.0
1701619774.5144496,-7.0,-32.0,-1.0,-10.0,-8.0,14.0,111.0,30.0
1701619774.5144496,1.0,-20.0,6.0,-5.0,-2.0,3.0,28.0,16.0
1701619774.5144496,-4.0,21.0,-9.0,-2.0,0.0,-6.0,-91.0,-26.0
1701619774.5144496,43.0,20.0,-6.0,7.0,-5.0,-50.0,-64.0,-39.0
1701619774.5144496,32.0,-13.0,5.0,-9.0,-4.0,4.0,-69.0,31.0
1701619774.5144496,-56.0,-5.0,-20.0,-3.0,-1.0,-10.0,-23.0,-60.0
1701619774.5258071,-14.0,5.0,-5.0,-4.0,-1.0,30.0,22.0,-16.0
1701619774.5258071,-49.0,-22.0,8.0,0.0,-6.0,-2.0,76.0,13.0
1701619774.5288587,54.0,6.0,4.0,8.0,4.0,-2.0,-27.0,14.0
1701619774.5288587,-26.0,-17.0,-2.0,-3.0,-1.0,-12.0,9.0,8.0
1701619774.5645065,-39.0,-11.0,-19.0,-6.0,-1.0,5.0,-19.0,-40.0
1701619774.5645065,16.0,9.0,33.0,-2.0,-5.0,-9.0,14.0,-28.0
1701619774.5678775,-6.0,14.0,-18.0,4.0,-5.0,-27.0,-106.0,-18.0
1701619774.5678775,18.0,11.0,5.0,-3.0,-3.0,29.0,127.0,82.0
1701619774.5678775,18.0,-38.0,-4.0,5.0,5.0,24.0,24.0,21.0
1701619774.5678775,-29.0,-30.0,-14.0,-8.0,-4.0,-4.0,-23.0,-67.0
1701619774.5678775,-61.0,35.0,35.0,16.0,10.0,18.0,58.0,0.0
1701619774.5678775,36.0,12.0,-46.0,-8.0,1.0,-18.0,-86.0,-13.0
1701619774.581146,37.0,-26.0,-13.0,2.0,-4.0,3.0,-2.0,28.0
1701619774.581146,3.0,42.0,30.0,2.0,1.0,8.0,5.0,31.0
1701619774.5893683,-32.0,-45.0,-33.0,-10.0,-7.0,10.0,52.0,2.0
1701619774.5893683,-41.0,8.0,1.0,-4.0,-3.0,-18.0,-52.0,20.0
1701619774.6367161,1.0,-20.0,9.0,5.0,2.0,18.0,-3.0,-7.0
1701619774.6367161,2.0,-16.0,-13.0,-6.0,-2.0,7.0,4.0,8.0
1701619774.6377134,-28.0,18.0,4.0,-5.0,-5.0,-26.0,-100.0,-38.0
1701619774.6377134,67.0,3.0,8.0,6.0,3.0,-8.0,-59.0,-7.0
1701619774.6377134,6.0,25.0,5.0,5.0,7.0,2.0,-19.0,13.0
1701619774.6377134,13.0,-3.0,2.0,6.0,-1.0,-2.0,1.0,-23.0
1701619774.6377134,12.0,-8.0,-13.0,-9.0,1.0,-3.0,-26.0,19.0
1701619774.6377134,-40.0,-20.0,13.0,0.0,-2.0,6.0,79.0,7.0
1701619774.679295,20.0,6.0,-17.0,-3.0,-3.0,-27.0,-79.0,-33.0
1701619774.679295,18.0,19.0,-3.0,1.0,3.0,28.0,86.0,47.0
1701619774.679295,-20.0,10.0,5.0,3.0,1.0,-3.0,18.0,-16.0
1701619774.679295,-14.0,-1.0,8.0,2.0,1.0,11.0,-5.0,18.0
1701619774.679295,26.0,-16.0,-10.0,-11.0,-4.0,1.0,69.0,6.0
1701619774.679295,-10.0,8.0,9.0,-1.0,1.0,1.0,-48.0,3.0
1701619774.679295,-2.0,-9.0,-2.0,-1.0,-2.0,-19.0,-83.0,-7.0
1701619774.679295,-13.0,14.0,1.0,1.0,-1.0,5.0,60.0,37.0
1701619774.680348,-16.0,1.0,7.0,3.0,3.0,1.0,46.0,-37.0
1701619774.680348,20.0,35.0,0.0,-2.0,-1.0,-6.0,10.0,13.0
1701619774.6872897,-1.0,10.0,19.0,5.0,0.0,1.0,-42.0,-36.0
1701619774.6872897,-7.0,3.0,6.0,2.0,-3.0,-15.0,-99.0,-28.0
1701619774.7485611,-53.0,-11.0,1.0,-1.0,1.0,-2.0,21.0,29.0
1701619774.7485611,6.0,-8.0,-1.0,-5.0,-1.0,6.0,-1.0,0.0
1701619774.7485611,5.0,-2.0,-3.0,-4.0,-4.0,-19.0,-3.0,16.0
1701619774.7485611,42.0,6.0,-5.0,0.0,1.0,8.0,-25.0,-3.0
1701619774.7485611,0.0,24.0,1.0,-1.0,-4.0,-7.0,-23.0,-4.0
1701619774.7485611,-18.0,-20.0,-7.0,4.0,2.0,-11.0,-57.0,-34.0
1701619774.7485611,-11.0,5.0,-1.0,2.0,1.0,-1.0,88.0,77.0
1701619774.7485611,27.0,2.0,1.0,-4.0,-3.0,10.0,5.0,-44.0
1701619774.7485611,4.0,3.0,6.0,-2.0,-1.0,-6.0,-18.0,-15.0
1701619774.7485611,14.0,-5.0,2.0,4.0,2.0,-22.0,8.0,31.0
1701619774.7504015,17.0,-11.0,-2.0,-4.0,0.0,27.0,28.0,-11.0
1701619774.7520454,-14.0,22.0,10.0,10.0,7.0,14.0,82.0,18.0
1701619774.802789,2.0,-16.0,-9.0,-1.0,-2.0,-3.0,1.0,20.0
1701619774.802789,-51.0,-3.0,-6.0,-3.0,-1.0,-4.0,-48.0,-31.0
1701619774.802789,3.0,-14.0,-12.0,0.0,0.0,-1.0,-2.0,-6.0
1701619774.802789,38.0,32.0,5.0,3.0,1.0,6.0,42.0,51.0
1701619774.802789,12.0,17.0,4.0,-1.0,2.0,11.0,68.0,3.0
1701619774.802789,12.0,0.0,5.0,6.0,-1.0,-18.0,-60.0,-2.0
1701619774.802789,46.0,9.0,5.0,-5.0,5.0,51.0,76.0,19.0
1701619774.802789,-48.0,-32.0,-20.0,-5.0,-3.0,-9.0,32.0,-5.0
1701619774.8198986,27.0,10.0,12.0,5.0,1.0,0.0,-5.0,-14.0
1701619774.8198986,-70.0,-14.0,2.0,2.0,1.0,-18.0,-78.0,-30.0
1701619774.8365798,33.0,16.0,0.0,-5.0,2.0,5.0,60.0,58.0
1701619774.8365798,0.0,0.0,-3.0,-4.0,-5.0,-6.0,-5.0,-13.0
1701619774.8365798,-26.0,-38.0,-5.0,-10.0,-3.0,-6.0,3.0,-14.0
1701619774.8365798,29.0,6.0,3.0,-2.0,-2.0,19.0,30.0,16.0
1701619774.8365798,-32.0,-20.0,2.0,6.0,-3.0,-24.0,-69.0,-45.0
1701619774.8365798,-15.0,-25.0,-5.0,-2.0,0.0,8.0,-8.0,-10.0
1701619774.8472805,6.0,-3.0,-3.0,-6.0,-2.0,14.0,68.0,54.0
1701619774.8472805,15.0,9.0,-5.0,-5.0,-3.0,-1.0,15.0,2.0
1701619774.851317,-8.0,1.0,-4.0,2.0,0.0,-13.0,-49.0,-40.0
1701619774.851317,-19.0,-22.0,5.0,0.0,1.0,10.0,-17.0,-1.0
1701619774.8681571,-9.0,29.0,0.0,3.0,-3.0,-19.0,-16.0,-14.0
1701619774.8681571,58.0,-14.0,-5.0,-6.0,0.0,7.0,7.0,15.0
1701619774.8692071,-17.0,-9.0,-16.0,-3.0,-6.0,-15.0,-1.0,14.0
1701619774.8692071,12.0,6.0,11.0,1.0,1.0,12.0,12.0,-27.0
1701619774.9177473,-26.0,8.0,-1.0,-1.0,-4.0,-4.0,-51.0,7.0
1701619774.9177473,-6.0,-16.0,-7.0,2.0,2.0,16.0,76.0,17.0
1701619774.9177473,15.0,11.0,-3.0,-2.0,-3.0,-14.0,-30.0,-16.0
1701619774.9177473,3.0,9.0,4.0,-2.0,-3.0,-1.0,-19.0,10.0
1701619774.9177473,70.0,-15.0,-11.0,-6.0,-3.0,-4.0,17.0,18.0
1701619774.9177473,-57.0,-10.0,7.0,6.0,2.0,-3.0,-8.0,-35.0
1701619774.9177473,-58.0,-20.0,-7.0,-8.0,-1.0,15.0,62.0,17.0
1701619774.9177473,-17.0,-4.0,-8.0,-9.0,-7.0,-12.0,2.0,-19.0
1701619774.9328399,19.0,5.0,6.0,4.0,0.0,0.0,4.0,23.0
1701619774.9328399,4.0,1.0,-2.0,4.0,2.0,41.0,66.0,9.0
1701619774.9335,18.0,8.0,3.0,-2.0,-1.0,-13.0,-48.0,-7.0
1701619774.9335,32.0,1.0,-7.0,0.0,-3.0,-12.0,-34.0,-6.0
1701619774.948042,-35.0,-16.0,2.0,-2.0,-2.0,-2.0,0.0,2.0
1701619774.9490428,-4.0,14.0,-4.0,-4.0,-2.0,-14.0,-50.0,-23.0
1701619774.9733372,-21.0,-30.0,-5.0,-7.0,-5.0,3.0,7.0,-16.0
1701619774.973882,21.0,14.0,3.0,2.0,1.0,21.0,59.0,25.0
1701619774.9938526,-18.0,-22.0,-14.0,-3.0,4.0,-5.0,-17.0,-13.0
1701619774.9938526,51.0,4.0,0.0,0.0,0.0,-1.0,-1.0,12.0
1701619774.9938526,-15.0,17.0,7.0,7.0,0.0,-13.0,-4.0,-21.0
1701619774.9938526,-17.0,0.0,3.0,-2.0,-3.0,-10.0,34.0,32.0
1701619774.9938526,-10.0,5.0,0.0,6.0,4.0,9.0,-55.0,-14.0
1701619774.9938526,13.0,8.0,3.0,-5.0,10.0,20.0,79.0,25.0
1701619774.9938526,47.0,28.0,13.0,10.0,6.0,-7.0,-12.0,-4.0
1701619774.9938526,-27.0,-18.0,-4.0,1.0,4.0,2.0,-20.0,-41.0
1701619775.0403,-30.0,4.0,8.0,2.0,-11.0,-15.0,-15.0,-5.0
1701619775.0403,1.0,13.0,-10.0,-11.0,-7.0,3.0,22.0,6.0
1701619775.0403,4.0,-20.0,-3.0,0.0,0.0,1.0,-23.0,-3.0
1701619775.0403,-28.0,8.0,0.0,-4.0,-8.0,-24.0,-35.0,5.0
1701619775.0844424,4.0,-4.0,1.0,2.0,3.0,23.0,22.0,7.0
1701619775.0844424,18.0,-7.0,-6.0,-4.0,-3.0,-10.0,-38.0,-19.0
1701619775.0844424,-43.0,0.0,3.0,-3.0,-5.0,6.0,49.0,5.0
1701619775.0844424,24.0,7.0,-3.0,1.0,3.0,-1.0,-22.0,2.0
1701619775.0844424,-12.0,-7.0,-7.0,-6.0,-5.0,-7.0,10.0,-9.0
1701619775.0844424,-10.0,-8.0,5.0,-2.0,-10.0,-25.0,-57.0,4.0
1701619775.0844424,-20.0,3.0,-8.0,8.0,5.0,13.0,18.0,-6.0
1701619775.0844424,-11.0,-10.0,-9.0,-8.0,3.0,0.0,13.0,19.0
1701619775.0844424,27.0,4.0,3.0,0.0,-2.0,-8.0,21.0,-9.0
1701619775.0844424,-14.0,8.0,-3.0,1.0,2.0,-1.0,-1.0,3.0
1701619775.0844424,18.0,1.0,11.0,-1.0,-7.0,-1.0,-29.0,-19.0
1701619775.0844424,8.0,5.0,3.0,5.0,-1.0,-10.0,-25.0,-9.0
1701619775.0966566,1.0,-12.0,2.0,5.0,9.0,1.0,3.0,-11.0
1701619775.0966566,7.0,9.0,-8.0,-6.0,-2.0,8.0,-34.0,20.0
1701619775.1085467,-2.0,-3.0,-3.0,-3.0,-7.0,-13.0,-50.0,-19.0
1701619775.1090746,9.0,-27.0,-7.0,-2.0,-2.0,8.0,74.0,23.0
1701619775.1318016,-4.0,9.0,2.0,-2.0,-1.0,-9.0,-15.0,-12.0
1701619775.1318016,0.0,-4.0,-3.0,0.0,-4.0,-17.0,-46.0,-27.0
1701619775.1318016,23.0,9.0,-2.0,5.0,9.0,9.0,24.0,14.0
1701619775.1318016,-14.0,7.0,7.0,-3.0,-4.0,16.0,15.0,-16.0
1701619775.1318016,-24.0,-8.0,-7.0,-7.0,-10.0,-22.0,-46.0,-6.0
1701619775.1318016,39.0,20.0,2.0,1.0,-3.0,13.0,78.0,15.0
1701619775.1318016,-44.0,-34.0,-1.0,-5.0,0.0,-3.0,3.0,-8.0
1701619775.1318016,-26.0,-22.0,-10.0,2.0,7.0,-13.0,-67.0,-43.0
1701619775.1431243,-27.0,28.0,10.0,1.0,1.0,-7.0,-5.0,11.0
1701619775.1431243,-20.0,-15.0,-14.0,-2.0,-6.0,1.0,-13.0,-5.0
1701619775.1431243,49.0,21.0,2.0,-2.0,-6.0,1.0,59.0,11.0
1701619775.1431243,-13.0,-9.0,6.0,12.0,16.0,14.0,-36.0,-3.0
1701619775.2020779,10.0,-4.0,-4.0,-1.0,4.0,12.0,7.0,-11.0
1701619775.2020779,27.0,-5.0,-1.0,0.0,-2.0,-9.0,10.0,20.0
1701619775.2020779,-64.0,11.0,-5.0,-11.0,-14.0,-21.0,-33.0,-8.0
1701619775.2020779,28.0,-8.0,-3.0,-7.0,-10.0,-6.0,-22.0,-4.0
1701619775.2020779,3.0,15.0,-4.0,3.0,0.0,-3.0,11.0,-1.0
1701619775.2020779,39.0,-1.0,7.0,3.0,8.0,8.0,22.0,1.0
1701619775.2020779,-13.0,-22.0,-2.0,-4.0,-5.0,1.0,-5.0,-7.0
1701619775.2020779,1.0,1.0,-2.0,-2.0,-3.0,-9.0,-24.0,1.0
1701619775.2117877,14.0,-6.0,1.0,-1.0,-3.0,-3.0,5.0,-14.0
1701619775.2117877,-19.0,-5.0,-5.0,-2.0,0.0,-3.0,-4.0,-4.0
1701619775.2117877,25.0,4.0,-2.0,0.0,4.0,7.0,1.0,10.0
1701619775.2117877,5.0,11.0,10.0,1.0,-11.0,-10.0,-32.0,-8.0
1701619775.264593,19.0,4.0,-4.0,-6.0,-10.0,-2.0,7.0,1.0
1701619775.264593,-65.0,-11.0,5.0,-2.0,9.0,-3.0,-23.0,-18.0
1701619775.264593,21.0,15.0,-1.0,7.0,4.0,-6.0,-10.0,7.0
1701619775.264593,11.0,4.0,2.0,6.0,28.0,30.0,42.0,14.0
1701619775.269471,-27.0,-1.0,1.0,2.0,-4.0,16.0,-13.0,0.0
1701619775.2704413,-11.0,-11.0,-1.0,-5.0,-7.0,-1.0,-7.0,-15.0
1701619775.2704413,-28.0,3.0,2.0,0.0,3.0,-3.0,-12.0,-10.0
1701619775.2704413,22.0,7.0,-5.0,-8.0,-11.0,-9.0,0.0,14.0
1701619775.2860115,-7.0,-7.0,-2.0,1.0,2.0,-7.0,-7.0,-18.0
1701619775.2870548,4.0,2.0,-2.0,-2.0,-11.0,-7.0,-28.0,2.0
1701619775.293664,17.0,3.0,1.0,-10.0,-7.0,5.0,-20.0,-13.0
1701619775.2948637,0.0,-3.0,-3.0,3.0,4.0,3.0,49.0,29.0
1701619775.2998643,-4.0,3.0,2.0,-2.0,3.0,8.0,16.0,9.0
1701619775.2998643,-13.0,-6.0,-8.0,-5.0,-16.0,-17.0,-36.0,20.0
1701619775.2998643,22.0,-1.0,7.0,6.0,10.0,-9.0,-26.0,-26.0
1701619775.2998643,17.0,-1.0,-2.0,1.0,2.0,21.0,2.0,-8.0
1701619775.3009198,-19.0,-33.0,-8.0,-7.0,0.0,-9.0,10.0,14.0
1701619775.3009198,7.0,13.0,4.0,5.0,4.0,8.0,17.0,-8.0
1701619775.3009198,29.0,18.0,-1.0,-3.0,-7.0,-8.0,-5.0,22.0
1701619775.3009198,-9.0,-12.0,-4.0,-6.0,-9.0,-6.0,-14.0,7.0
1701619775.3569715,17.0,-6.0,-2.0,1.0,-3.0,7.0,2.0,-24.0
1701619775.3569715,-9.0,6.0,1.0,-2.0,15.0,-8.0,-19.0,-21.0
1701619775.3569715,-1.0,-7.0,-6.0,-1.0,-1.0,12.0,27.0,16.0
1701619775.358037,-7.0,12.0,3.0,-2.0,-9.0,-18.0,-8.0,1.0
1701619775.363022,10.0,9.0,-2.0,-1.0,-4.0,6.0,12.0,8.0
1701619775.363022,-5.0,-13.0,-2.0,-2.0,-4.0,-2.0,4.0,2.0
1701619775.363022,-8.0,-5.0,-2.0,1.0,6.0,0.0,-2.0,-2.0
1701619775.363022,-4.0,3.0,-4.0,-5.0,-8.0,-16.0,-19.0,-9.0
1701619775.3641262,20.0,-1.0,-1.0,-3.0,-6.0,2.0,2.0,15.0
1701619775.3641262,12.0,17.0,-1.0,3.0,5.0,5.0,23.0,8.0
1701619775.3641262,2.0,-12.0,-6.0,-6.0,-3.0,-7.0,0.0,-16.0
1701619775.3641262,-5.0,-1.0,0.0,-2.0,-4.0,5.0,-22.0,4.0
1701619775.418506,8.0,6.0,-2.0,-2.0,4.0,-3.0,2.0,-7.0
1701619775.418506,2.0,5.0,3.0,0.0,-2.0,3.0,9.0,1.0
1701619775.418506,7.0,-16.0,-1.0,-1.0,-8.0,-8.0,0.0,8.0
1701619775.418506,2.0,3.0,-3.0,-2.0,-1.0,-5.0,-1.0,-19.0
1701619775.4195642,-7.0,-6.0,-1.0,1.0,3.0,-1.0,-26.0,0.0
1701619775.4195642,-72.0,-16.0,-2.0,-2.0,-1.0,1.0,19.0,-12.0
1701619775.4195642,27.0,2.0,-1.0,-1.0,-3.0,-3.0,-7.0,2.0
1701619775.4195642,41.0,9.0,1.0,3.0,3.0,-4.0,7.0,47.0
1701619775.455335,-48.0,-14.0,-1.0,-1.0,-3.0,6.0,14.0,-56.0
1701619775.4563828,-14.0,-5.0,-7.0,-4.0,-4.0,-5.0,-7.0,-3.0
1701619775.4665174,13.0,-5.0,1.0,1.0,1.0,2.0,-10.0,8.0
1701619775.4672675,-37.0,14.0,0.0,1.0,-7.0,-4.0,2.0,-13.0
1701619775.4687827,29.0,4.0,-1.0,1.0,17.0,7.0,-3.0,26.0
1701619775.4687827,10.0,-12.0,3.0,1.0,-6.0,1.0,1.0,7.0
1701619775.4687827,1.0,8.0,3.0,5.0,7.0,7.0,14.0,-5.0
1701619775.4687827,4.0,-9.0,-4.0,-5.0,-6.0,-3.0,8.0,-2.0
1701619775.4720325,-12.0,-3.0,0.0,-1.0,-3.0,-7.0,-16.0,6.0
1701619775.4720325,7.0,3.0,-2.0,-1.0,-1.0,-11.0,-19.0,-16.0
1701619775.4720325,-5.0,8.0,-1.0,-4.0,-5.0,10.0,20.0,19.0
1701619775.4720325,7.0,3.0,-2.0,-4.0,-7.0,-4.0,6.0,-20.0
1701619775.527135,-46.0,-24.0,-5.0,-2.0,-7.0,-11.0,-23.0,-3.0
1701619775.527135,17.0,2.0,2.0,2.0,6.0,-2.0,5.0,3.0
1701619775.527135,-28.0,-2.0,-4.0,-1.0,4.0,1.0,7.0,-1.0
1701619775.527135,4.0,2.0,-3.0,-1.0,-2.0,-6.0,-16.0,6.0
1701619775.5308406,31.0,26.0,8.0,0.0,1.0,4.0,22.0,10.0
1701619775.5308406,-20.0,-20.0,-4.0,-5.0,-6.0,-2.0,-9.0,10.0
1701619775.5308406,-42.0,-11.0,-6.0,-2.0,-3.0,-3.0,-15.0,-20.0
1701619775.5308406,-8.0,15.0,0.0,-6.0,-9.0,-3.0,10.0,-9.0
1701619775.5328994,19.0,-8.0,0.0,-3.0,-7.0,-6.0,-6.0,2.0
1701619775.5328994,-5.0,6.0,1.0,1.0,13.0,4.0,13.0,2.0
1701619775.5334203,5.0,-7.0,1.0,3.0,4.0,1.0,-3.0,-3.0
1701619775.5334203,-7.0,4.0,2.0,6.0,11.0,4.0,-2.0,-5.0
1701619775.5817974,0.0,4.0,0.0,-2.0,-14.0,-8.0,0.0,0.0
1701619775.5817974,1.0,0.0,-3.0,-5.0,-7.0,1.0,-3.0,3.0
1701619775.5817974,14.0,-6.0,-2.0,-3.0,-3.0,-6.0,-7.0,-4.0
1701619775.5817974,-27.0,-8.0,-1.0,-1.0,-4.0,2.0,11.0,-13.0
1701619775.5877886,-18.0,4.0,-6.0,-1.0,-1.0,3.0,0.0,3.0
1701619775.5877886,5.0,3.0,2.0,3.0,20.0,4.0,2.0,3.0
1701619775.5920413,3.0,15.0,6.0,8.0,4.0,8.0,17.0,5.0
1701619775.5920413,6.0,-9.0,-7.0,-3.0,0.0,-5.0,-11.0,-6.0
1701619775.5949836,1.0,5.0,-3.0,-6.0,-13.0,-2.0,18.0,9.0
1701619775.5960398,3.0,-10.0,-4.0,-2.0,-6.0,1.0,-5.0,-8.0
1701619775.5960398,-5.0,-7.0,-3.0,-6.0,1.0,7.0,1.0,7.0
1701619775.5960398,-24.0,-9.0,4.0,2.0,-2.0,-3.0,-11.0,-12.0
1701619775.64048,13.0,13.0,-1.0,-3.0,1.0,3.0,18.0,2.0
1701619775.64048,6.0,-7.0,2.0,2.0,-10.0,-5.0,-11.0,1.0
1701619775.64048,1.0,-1.0,2.0,1.0,21.0,-1.0,-3.0,-4.0
1701619775.64048,-4.0,-5.0,-4.0,-6.0,-13.0,-6.0,2.0,-7.0
1701619775.64048,7.0,6.0,-2.0,3.0,-4.0,-3.0,-23.0,-7.0
1701619775.64048,-30.0,-3.0,0.0,1.0,3.0,5.0,12.0,-3.0
1701619775.64048,-14.0,5.0,-6.0,-2.0,-5.0,2.0,-2.0,4.0
1701619775.64048,15.0,-7.0,0.0,2.0,14.0,1.0,1.0,-4.0
1701619775.685473,-9.0,-6.0,-2.0,-5.0,-12.0,-6.0,-1.0,0.0
1701619775.685473,25.0,7.0,-1.0,-6.0,-8.0,-6.0,-8.0,-7.0
1701619775.685473,-29.0,-13.0,-2.0,-2.0,-1.0,-3.0,-10.0,-1.0
1701619775.685473,-3.0,-2.0,-1.0,0.0,-5.0,1.0,8.0,-7.0
1701619775.689279,-3.0,-4.0,0.0,0.0,7.0,7.0,2.0,-1.0
1701619775.689279,2.0,8.0,-1.0,1.0,9.0,2.0,3.0,-9.0
1701619775.689279,16.0,4.0,-1.0,1.0,-9.0,-7.0,11.0,-1.0
1701619775.689279,-57.0,-23.0,-4.0,-5.0,-3.0,-7.0,-17.0,-7.0
1701619775.689279,14.0,8.0,0.0,-1.0,-2.0,-2.0,-1.0,12.0
1701619775.689279,-20.0,-5.0,-1.0,-3.0,-5.0,-2.0,6.0,-9.0
1701619775.6903348,26.0,12.0,3.0,-2.0,0.0,-10.0,-25.0,-8.0
1701619775.6903348,-13.0,2.0,-2.0,0.0,1.0,12.0,26.0,5.0
1701619775.7123876,-3.0,-9.0,-4.0,0.0,4.0,-5.0,-10.0,-2.0
1701619775.7123876,12.0,6.0,1.0,-1.0,-4.0,2.0,-8.0,0.0
1701619775.7130315,21.0,3.0,-2.0,0.0,-3.0,-3.0,-5.0,0.0
1701619775.7130315,-23.0,-20.0,-6.0,1.0,2.0,-4.0,-10.0,-9.0
1701619775.7578864,-29.0,-1.0,-1.0,1.0,8.0,4.0,-2.0,-1.0
1701619775.7578864,47.0,-6.0,-2.0,-2.0,-7.0,-4.0,-3.0,12.0
1701619775.7578864,-4.0,11.0,-1.0,-1.0,-8.0,-2.0,9.0,-16.0
1701619775.7578864,26.0,10.0,1.0,-1.0,2.0,3.0,3.0,11.0
1701619775.7578864,6.0,-1.0,1.0,1.0,6.0,2.0,6.0,7.0
1701619775.7578864,-2.0,10.0,1.0,-1.0,-7.0,-2.0,0.0,54.0
1701619775.7578864,1.0,-19.0,-5.0,-3.0,-4.0,-1.0,4.0,-43.0
1701619775.7589264,34.0,18.0,-2.0,0.0,1.0,-2.0,-12.0,8.0
1701619775.807482,-18.0,-21.0,-1.0,0.0,2.0,-3.0,2.0,-11.0
1701619775.807482,8.0,0.0,0.0,-1.0,-3.0,-5.0,-22.0,-9.0
1701619775.807482,3.0,11.0,-5.0,-7.0,-6.0,-2.0,3.0,30.0
1701619775.807482,40.0,8.0,2.0,2.0,3.0,1.0,8.0,1.0
1701619775.807482,-42.0,-21.0,-2.0,-1.0,-2.0,0.0,1.0,-18.0
1701619775.807482,-17.0,-5.0,-5.0,0.0,1.0,-6.0,-13.0,-18.0
1701619775.807482,-23.0,-15.0,-2.0,-4.0,-4.0,-3.0,-7.0,18.0
1701619775.807482,26.0,2.0,-3.0,-3.0,-3.0,-2.0,-3.0,-10.0
1701619775.8085394,26.0,3.0,1.0,1.0,1.0,3.0,8.0,11.0
1701619775.8085394,-2.0,6.0,7.0,1.0,-1.0,-1.0,0.0,-10.0
1701619775.8085394,2.0,-6.0,-17.0,-3.0,-1.0,1.0,-10.0,-11.0
1701619775.8085394,19.0,-7.0,0.0,-1.0,-2.0,-1.0,11.0,25.0
1701619775.8722456,-28.0,10.0,-3.0,0.0,1.0,0.0,-4.0,-8.0
1701619775.8722456,-3.0,-9.0,4.0,0.0,-2.0,-1.0,1.0,-35.0
1701619775.8722456,-32.0,14.0,4.0,0.0,-3.0,-4.0,-13.0,-7.0
1701619775.8722456,-4.0,-13.0,-4.0,-3.0,0.0,-1.0,-12.0,-21.0
1701619775.8722456,3.0,-8.0,0.0,1.0,-1.0,-2.0,3.0,7.0
1701619775.8722456,-5.0,8.0,-1.0,-1.0,-4.0,-3.0,-9.0,28.0
1701619775.8722456,34.0,4.0,0.0,-1.0,0.0,2.0,20.0,1.0
1701619775.8722456,-14.0,-2.0,-3.0,-1.0,-1.0,-3.0,-6.0,8.0
1701619775.8907654,41.0,17.0,1.0,-2.0,-2.0,1.0,11.0,18.0
1701619775.8907654,-46.0,-13.0,-4.0,-3.0,-2.0,-7.0,-21.0,-71.0
1701619775.9013836,16.0,-12.0,-2.0,0.0,-1.0,1.0,3.0,24.0
1701619775.9013836,-17.0,6.0,4.0,0.0,1.0,-1.0,-1.0,-15.0
1701619775.9090915,7.0,11.0,0.0,0.0,-1.0,-3.0,-11.0,1.0
1701619775.9090915,40.0,-10.0,-5.0,-1.0,-3.0,-1.0,6.0,11.0
1701619775.9101489,14.0,6.0,2.0,0.0,-2.0,-1.0,-3.0,9.0
1701619775.9101489,1.0,-21.0,2.0,-2.0,-2.0,-2.0,3.0,-12.0
1701619775.9101489,43.0,1.0,-17.0,-4.0,0.0,-3.0,-10.0,-3.0
1701619775.9101489,-26.0,3.0,0.0,-2.0,0.0,1.0,9.0,15.0
1701619775.9101489,-2.0,-1.0,2.0,0.0,-3.0,-5.0,-4.0,-6.0
1701619775.9101489,1.0,5.0,2.0,1.0,-1.0,-1.0,-5.0,-1.0
1701619775.9332283,2.0,6.0,4.0,1.0,0.0,-3.0,-7.0,-1.0
1701619775.934282,-10.0,-10.0,-5.0,-3.0,-4.0,3.0,1.0,-6.0
1701619775.9426901,-64.0,-15.0,0.0,1.0,1.0,2.0,-4.0,-29.0
1701619775.9426901,36.0,13.0,1.0,0.0,3.0,5.0,10.0,56.0
1701619775.977666,14.0,-7.0,1.0,-1.0,-4.0,1.0,0.0,-42.0
1701619775.977666,14.0,-1.0,-2.0,-1.0,0.0,1.0,9.0,-4.0
1701619775.9787054,-23.0,-13.0,2.0,-1.0,-2.0,-1.0,0.0,-20.0
1701619775.9787054,-11.0,1.0,0.0,2.0,1.0,-1.0,-16.0,2.0
1701619775.9787054,8.0,-1.0,-3.0,-3.0,0.0,0.0,4.0,32.0
1701619775.9787054,21.0,4.0,2.0,0.0,0.0,1.0,7.0,3.0
1701619775.9787054,2.0,9.0,-1.0,-2.0,-4.0,-4.0,-8.0,-2.0
1701619775.9787054,4.0,0.0,-1.0,-1.0,-2.0,-5.0,-10.0,-11.0
1701619776.0239882,0.0,-5.0,1.0,1.0,1.0,3.0,10.0,-7.0
1701619776.0239882,-1.0,9.0,-3.0,-2.0,-2.0,-8.0,-10.0,5.0
1701619776.0239882,6.0,-10.0,0.0,-1.0,0.0,15.0,28.0,31.0
1701619776.0239882,-34.0,-4.0,-6.0,-4.0,-5.0,-9.0,11.0,-17.0
1701619776.0239882,-63.0,-2.0,3.0,1.0,3.0,4.0,-5.0,-5.0
1701619776.0239882,-1.0,-7.0,-2.0,-1.0,0.0,1.0,4.0,23.0
1701619776.0239882,-41.0,-2.0,-2.0,-3.0,-3.0,-9.0,-16.0,11.0
1701619776.0239882,-21.0,-7.0,-1.0,-3.0,-1.0,-3.0,-5.0,-14.0
1701619776.0239882,-20.0,-10.0,-5.0,-5.0,-4.0,-3.0,2.0,-2.0
1701619776.0239882,-8.0,4.0,-2.0,0.0,0.0,0.0,2.0,0.0
1701619776.0239882,16.0,-8.0,1.0,0.0,-3.0,0.0,-4.0,2.0
1701619776.0239882,8.0,2.0,1.0,1.0,2.0,4.0,-1.0,-58.0
1701619776.060444,-3.0,0.0,-1.0,-2.0,-3.0,-6.0,-5.0,5.0
1701619776.0615053,-5.0,6.0,-3.0,0.0,1.0,1.0,5.0,9.0
1701619776.0723236,19.0,-5.0,0.0,2.0,3.0,-1.0,-11.0,-9.0
1701619776.0735273,-16.0,-4.0,0.0,0.0,-1.0,1.0,7.0,4.0
1701619776.0953262,23.0,-8.0,-1.0,-1.0,-6.0,-7.0,-10.0,-12.0
1701619776.0953262,-40.0,-2.0,-1.0,-1.0,3.0,2.0,9.0,10.0
1701619776.0953262,-11.0,15.0,2.0,3.0,6.0,2.0,9.0,10.0
1701619776.0953262,30.0,-5.0,-2.0,-3.0,-2.0,-2.0,-7.0,20.0
1701619776.0953262,11.0,-5.0,0.0,0.0,0.0,3.0,-3.0,-2.0
1701619776.0953262,2.0,-7.0,-5.0,-5.0,-7.0,-2.0,1.0,1.0
1701619776.110198,7.0,-9.0,-2.0,-3.0,-3.0,-7.0,-2.0,-12.0
1701619776.1112127,-26.0,12.0,-2.0,-2.0,-5.0,-3.0,-7.0,23.0
1701619776.1380277,3.0,1.0,1.0,1.0,0.0,-2.0,1.0,-7.0
1701619776.1384242,-4.0,2.0,0.0,-1.0,0.0,3.0,0.0,-13.0
1701619776.1384242,-27.0,1.0,-4.0,-3.0,-3.0,-7.0,-21.0,-25.0
1701619776.1384242,4.0,-4.0,6.0,2.0,-1.0,1.0,9.0,-17.0
1701619776.1384242,-8.0,2.0,1.0,1.0,0.0,-2.0,-15.0,7.0
1701619776.1384242,23.0,-9.0,-5.0,-1.0,1.0,2.0,15.0,4.0
1701619776.1384242,-11.0,2.0,2.0,0.0,3.0,-1.0,10.0,39.0
1701619776.1384242,-7.0,2.0,-2.0,-1.0,-1.0,-3.0,-18.0,-28.0
1701619776.1429188,21.0,-8.0,0.0,0.0,-2.0,2.0,2.0,0.0
1701619776.1429188,-12.0,12.0,2.0,0.0,-2.0,-5.0,-23.0,-8.0
1701619776.1429188,29.0,-2.0,-4.0,-1.0,1.0,2.0,7.0,6.0
1701619776.1429188,-19.0,6.0,1.0,-1.0,4.0,2.0,19.0,16.0
1701619776.1962159,-20.0,9.0,-2.0,-1.0,-1.0,2.0,1.0,-10.0
1701619776.1962159,5.0,-21.0,-6.0,-8.0,-14.0,-15.0,-13.0,10.0
1701619776.1962159,10.0,8.0,0.0,-2.0,3.0,1.0,-4.0,-5.0
1701619776.1962159,16.0,1.0,-2.0,0.0,2.0,-3.0,2.0,-3.0
1701619776.1972666,2.0,7.0,-1.0,1.0,6.0,-6.0,-10.0,13.0
1701619776.1972666,15.0,-1.0,2.0,0.0,-4.0,5.0,18.0,-7.0
1701619776.1972666,3.0,0.0,1.0,-3.0,-10.0,-4.0,-19.0,-22.0
1701619776.1972666,-27.0,1.0,5.0,-2.0,-5.0,-2.0,-2.0,2.0
1701619776.2074397,-37.0,-10.0,-21.0,-2.0,-1.0,-1.0,5.0,-2.0
1701619776.2074397,3.0,-8.0,4.0,2.0,3.0,-3.0,-9.0,-1.0
1701619776.2080684,2.0,5.0,0.0,2.0,8.0,5.0,9.0,-7.0
1701619776.2080684,-11.0,-6.0,-1.0,-2.0,-1.0,5.0,5.0,6.0
1701619776.2586868,0.0,-8.0,6.0,-3.0,-4.0,-4.0,2.0,13.0
1701619776.2586868,25.0,11.0,4.0,3.0,-1.0,-4.0,-12.0,-15.0
1701619776.2586868,-20.0,-13.0,-7.0,-4.0,-6.0,-1.0,27.0,10.0
1701619776.2586868,-31.0,9.0,-3.0,1.0,3.0,0.0,-9.0,-54.0
1701619776.2586868,-4.0,-11.0,3.0,-1.0,-1.0,4.0,-1.0,18.0
1701619776.2586868,19.0,8.0,-1.0,-1.0,-1.0,-3.0,-1.0,-3.0
1701619776.2586868,21.0,4.0,2.0,-3.0,-6.0,-3.0,-11.0,1.0
1701619776.2586868,28.0,1.0,-3.0,-2.0,1.0,1.0,5.0,25.0
1701619776.3004262,-22.0,6.0,2.0,1.0,1.0,2.0,4.0,-13.0
1701619776.3004262,3.0,-6.0,-1.0,0.0,-1.0,-1.0,0.0,-15.0
1701619776.3004262,8.0,3.0,-1.0,1.0,0.0,2.0,-2.0,8.0
1701619776.3004262,-19.0,-15.0,-4.0,-2.0,-7.0,-7.0,1.0,5.0
1701619776.3004262,23.0,14.0,3.0,0.0,2.0,-3.0,-12.0,-6.0
1701619776.3004262,-53.0,-7.0,-7.0,-2.0,11.0,3.0,9.0,-5.0
1701619776.3004262,-9.0,-9.0,6.0,-1.0,-8.0,-6.0,-12.0,6.0
1701619776.3004262,8.0,-4.0,-12.0,-3.0,-4.0,0.0,-1.0,21.0
1701619776.3084621,12.0,1.0,-9.0,-3.0,-7.0,-2.0,-2.0,-8.0
1701619776.3084621,-3.0,2.0,1.0,-2.0,-7.0,-2.0,4.0,2.0
1701619776.3084621,-9.0,-14.0,-2.0,4.0,9.0,-1.0,-9.0,-17.0
1701619776.3084621,40.0,-7.0,-5.0,-6.0,-9.0,-10.0,-18.0,16.0
1701619776.3563437,19.0,4.0,5.0,-1.0,0.0,0.0,-3.0,-6.0
1701619776.3573875,0.0,-2.0,2.0,6.0,6.0,9.0,6.0,4.0
1701619776.377079,7.0,7.0,-5.0,-3.0,-11.0,5.0,14.0,-7.0
1701619776.377079,27.0,8.0,7.0,1.0,15.0,-1.0,-8.0,7.0
1701619776.377079,-39.0,-14.0,0.0,-2.0,-4.0,-7.0,5.0,7.0
1701619776.377079,-37.0,0.0,3.0,-1.0,-3.0,3.0,5.0,-59.0
1701619776.377079,19.0,-5.0,-4.0,-3.0,-8.0,-13.0,-20.0,-8.0
1701619776.377079,-49.0,1.0,0.0,1.0,0.0,2.0,-5.0,-4.0
1701619776.377079,20.0,-5.0,3.0,-1.0,2.0,4.0,7.0,-8.0
1701619776.377079,-8.0,1.0,-12.0,-3.0,0.0,-2.0,-14.0,-6.0
1701619776.377079,-6.0,-2.0,27.0,6.0,-4.0,2.0,6.0,10.0
1701619776.377079,21.0,-4.0,-36.0,-4.0,10.0,1.0,2.0,-1.0
1701619776.4200926,9.0,5.0,16.0,2.0,-2.0,-4.0,3.0,7.0
1701619776.4200926,14.0,-1.0,-22.0,-7.0,-13.0,-3.0,1.0,21.0
1701619776.4200926,4.0,5.0,-5.0,-2.0,-5.0,-2.0,-9.0,-7.0
1701619776.4200926,1.0,1.0,17.0,3.0,0.0,2.0,4.0,-4.0
1701619776.4200926,-5.0,-1.0,5.0,6.0,8.0,4.0,3.0,-19.0
1701619776.4200926,-10.0,-3.0,0.0,2.0,3.0,0.0,1.0,24.0
1701619776.4200926,-37.0,-4.0,2.0,-1.0,-2.0,-4.0,-6.0,-4.0
1701619776.4200926,-4.0,-3.0,1.0,-5.0,-15.0,-3.0,7.0,-6.0
1701619776.43167,11.0,-1.0,-11.0,-4.0,1.0,0.0,-3.0,8.0
1701619776.43167,-10.0,1.0,7.0,-3.0,-7.0,-8.0,-4.0,-3.0
1701619776.43167,19.0,-2.0,-8.0,-2.0,8.0,0.0,-2.0,11.0
1701619776.4326627,-3.0,0.0,6.0,0.0,-9.0,1.0,-1.0,-2.0
1701619776.440937,-3.0,0.0,-10.0,-3.0,10.0,-2.0,-1.0,0.0
1701619776.440937,28.0,10.0,3.0,0.0,2.0,2.0,1.0,11.0
1701619776.496068,4.0,-7.0,-1.0,5.0,10.0,5.0,6.0,4.0
1701619776.496068,3.0,0.0,-2.0,1.0,-7.0,0.0,-5.0,4.0
1701619776.4991658,-10.0,-14.0,-1.0,0.0,4.0,-1.0,2.0,-2.0
1701619776.4991658,10.0,0.0,4.0,-3.0,-4.0,-4.0,-3.0,5.0
1701619776.4991658,-3.0,-3.0,-7.0,-3.0,-7.0,-4.0,-2.0,-14.0
1701619776.4991658,-3.0,4.0,6.0,3.0,6.0,2.0,1.0,-2.0
1701619776.534923,-4.0,5.0,-5.0,-2.0,-9.0,-1.0,0.0,5.0
1701619776.534923,1.0,1.0,2.0,-3.0,2.0,-2.0,-2.0,-2.0
1701619776.534923,16.0,-5.0,-8.0,-8.0,-6.0,-3.0,-5.0,-10.0
1701619776.534923,10.0,-3.0,1.0,-2.0,-6.0,0.0,9.0,15.0
1701619776.534923,-3.0,1.0,-2.0,-4.0,-6.0,-7.0,-7.0,18.0
1701619776.534923,11.0,6.0,4.0,4.0,4.0,4.0,-2.0,-21.0
1701619776.534923,-46.0,4.0,8.0,3.0,2.0,-1.0,-1.0,6.0
1701619776.534923,12.0,-14.0,-11.0,-3.0,2.0,0.0,-3.0,31.0
1701619776.534923,3.0,-1.0,-2.0,0.0,-3.0,-2.0,-7.0,-55.0
