1701619470.582902,-4.0,-4.0,-2.0,0.0,5.0,5.0,9.0,-2.0
1701619470.582902,-2.0,-10.0,-5.0,2.0,1.0,2.0,-7.0,-6.0
1701619470.582902,9.0,10.0,10.0,8.0,-5.0,-3.0,-11.0,4.0
1701619470.582902,12.0,14.0,-6.0,-17.0,-4.0,0.0,5.0,5.0
1701619470.6029377,-11.0,-12.0,3.0,2.0,0.0,-2.0,3.0,-1.0
1701619470.6029377,-6.0,-8.0,-25.0,-9.0,-5.0,-5.0,-10.0,-3.0
1701619470.6029377,-1.0,-11.0,9.0,5.0,-5.0,-7.0,-9.0,3.0
1701619470.6029377,11.0,17.0,15.0,12.0,13.0,6.0,2.0,-2.0
1701619470.6328979,-1.0,-7.0,2.0,0.0,4.0,0.0,7.0,-4.0
1701619470.6328979,13.0,8.0,-19.0,-4.0,-3.0,1.0,8.0,4.0
1701619470.6328979,8.0,4.0,11.0,-5.0,-7.0,-2.0,-3.0,1.0
1701619470.6328979,-24.0,-21.0,-8.0,1.0,-1.0,-4.0,-9.0,-1.0
1701619470.6429048,15.0,12.0,1.0,-7.0,-4.0,-2.0,1.0,-4.0
1701619470.6429048,-45.0,-30.0,6.0,5.0,-1.0,-1.0,2.0,-3.0
1701619470.6429048,3.0,5.0,0.0,-6.0,-1.0,-1.0,2.0,0.0
1701619470.6429048,0.0,6.0,6.0,3.0,-3.0,-3.0,-3.0,-1.0
1701619470.6728976,-5.0,-21.0,-4.0,1.0,-10.0,-2.0,-9.0,1.0
1701619470.6728976,4.0,3.0,2.0,-6.0,3.0,-5.0,-15.0,-4.0
1701619470.6728976,-14.0,-19.0,-17.0,3.0,16.0,12.0,23.0,-12.0
1701619470.6728976,9.0,17.0,19.0,3.0,4.0,-1.0,-2.0,2.0
1701619470.6830127,-4.0,-4.0,-21.0,-8.0,-4.0,-2.0,4.0,2.0
1701619470.6830127,-3.0,-2.0,-30.0,-18.0,-12.0,-6.0,-4.0,-4.0
1701619470.6830127,-3.0,6.0,6.0,-5.0,-3.0,-4.0,-18.0,-4.0
1701619470.6830127,2.0,-6.0,5.0,4.0,-2.0,-3.0,-8.0,-6.0
1701619470.7185705,2.0,17.0,11.0,2.0,1.0,2.0,17.0,4.0
1701619470.7185705,3.0,-17.0,7.0,5.0,-7.0,1.0,17.0,2.0
1701619470.7197087,14.0,7.0,2.0,1.0,4.0,2.0,-10.0,0.0
1701619470.7197087,-59.0,-19.0,-17.0,8.0,2.0,1.0,-6.0,-7.0
1701619470.7324622,15.0,14.0,18.0,1.0,-5.0,-7.0,-10.0,1.0
1701619470.7324622,3.0,0.0,-23.0,-4.0,-1.0,0.0,5.0,0.0
1701619470.7344627,-16.0,-8.0,-6.0,-12.0,-6.0,-5.0,-2.0,-1.0
1701619470.7344627,25.0,9.0,12.0,7.0,8.0,3.0,8.0,9.0
1701619470.7458172,-14.0,5.0,-2.0,10.0,-3.0,0.0,-8.0,-10.0
1701619470.7458172,-4.0,-16.0,11.0,4.0,23.0,5.0,2.0,1.0
1701619470.7458172,1.0,-5.0,8.0,0.0,-2.0,2.0,1.0,-1.0
1701619470.7458172,15.0,-5.0,-19.0,-14.0,-14.0,-8.0,-1.0,1.0
1701619470.7557724,-3.0,6.0,-6.0,-4.0,5.0,5.0,4.0,2.0
1701619470.7557724,-1.0,9.0,9.0,-1.0,-9.0,-6.0,-12.0,-3.0
1701619470.7758298,-1.0,-1.0,-24.0,-2.0,-10.0,-5.0,-3.0,1.0
1701619470.7758298,8.0,4.0,15.0,-8.0,1.0,1.0,12.0,-2.0
1701619470.7855604,5.0,4.0,-20.0,9.0,9.0,5.0,-8.0,2.0
1701619470.7855604,-3.0,-1.0,14.0,1.0,6.0,2.0,3.0,-2.0
1701619470.7855604,-30.0,-8.0,-2.0,-1.0,-4.0,-7.0,-4.0,-3.0
1701619470.7855604,6.0,5.0,-6.0,-6.0,-13.0,-4.0,4.0,-1.0
1701619470.8058398,8.0,-4.0,18.0,-3.0,3.0,1.0,0.0,-3.0
1701619470.8058398,-24.0,8.0,-21.0,1.0,0.0,4.0,0.0,0.0
1701619470.8058398,-3.0,-14.0,-6.0,2.0,-6.0,-4.0,1.0,-1.0
1701619470.8058398,2.0,-1.0,9.0,-6.0,-30.0,-12.0,-11.0,-5.0
1701619470.8157947,-3.0,-6.0,-4.0,-16.0,12.0,6.0,-5.0,0.0
1701619470.8157947,14.0,8.0,12.0,18.0,50.0,13.0,4.0,3.0
1701619470.825874,8.0,7.0,4.0,7.0,-3.0,0.0,1.0,0.0
1701619470.825874,-5.0,-1.0,0.0,3.0,7.0,5.0,-1.0,-1.0
1701619470.8455622,1.0,-8.0,-4.0,-6.0,-26.0,-13.0,-3.0,-1.0
1701619470.8455622,-4.0,-2.0,-1.0,-9.0,-25.0,-6.0,3.0,-5.0
1701619470.8455622,3.0,9.0,11.0,-5.0,7.0,-7.0,-20.0,-4.0
1701619470.8455622,17.0,-1.0,-7.0,1.0,2.0,6.0,16.0,-1.0
1701619470.8659012,-14.0,-3.0,-4.0,-2.0,0.0,-4.0,-8.0,-2.0
1701619470.8659012,5.0,3.0,15.0,2.0,-5.0,1.0,-1.0,-2.0
1701619470.8659012,5.0,-4.0,-17.0,-5.0,-6.0,-6.0,1.0,2.0
1701619470.8659012,-7.0,-3.0,-7.0,-9.0,-14.0,-6.0,-2.0,-3.0
1701619470.8759036,1.0,-2.0,1.0,2.0,9.0,-1.0,3.0,-1.0
1701619470.8759036,0.0,0.0,4.0,7.0,3.0,3.0,1.0,-3.0
1701619470.8955607,3.0,0.0,8.0,10.0,15.0,4.0,-4.0,-1.0
1701619470.8955607,3.0,1.0,-1.0,-4.0,10.0,3.0,-10.0,-1.0
1701619470.9058497,-4.0,-7.0,-21.0,-4.0,5.0,1.0,0.0,-3.0
1701619470.9058497,1.0,1.0,17.0,-6.0,-35.0,-14.0,-8.0,-2.0
1701619470.9058497,-2.0,-3.0,-14.0,-8.0,-3.0,-3.0,7.0,-2.0
1701619470.9058497,-2.0,3.0,-3.0,0.0,11.0,3.0,-7.0,-5.0
1701619470.9259403,-4.0,-8.0,8.0,8.0,2.0,1.0,-1.0,5.0
1701619470.9259403,2.0,-3.0,-8.0,-7.0,-5.0,-3.0,2.0,-16.0
1701619470.9259403,2.0,2.0,11.0,1.0,-4.0,0.0,7.0,-1.0
1701619470.9259403,-2.0,4.0,2.0,2.0,0.0,4.0,5.0,0.0
1701619470.935915,-1.0,2.0,-3.0,1.0,5.0,0.0,-4.0,-1.0
1701619470.935915,1.0,6.0,20.0,2.0,-1.0,-7.0,0.0,13.0
1701619470.9555614,-3.0,-1.0,-2.0,-8.0,-13.0,1.0,5.0,-12.0
1701619470.9555614,0.0,-9.0,-16.0,-9.0,0.0,-8.0,-11.0,-7.0
1701619470.965565,-6.0,-4.0,-15.0,6.0,5.0,-1.0,-4.0,2.0
1701619470.965565,-3.0,-6.0,-8.0,-4.0,2.0,-7.0,-2.0,0.0
1701619470.965565,-1.0,2.0,18.0,1.0,1.0,15.0,14.0,2.0
1701619470.965565,1.0,-3.0,4.0,6.0,13.0,3.0,1.0,4.0
1701619470.9855907,1.0,1.0,0.0,-12.0,-14.0,-7.0,-1.0,-2.0
1701619470.9855907,-1.0,-3.0,-3.0,-1.0,-14.0,2.0,-2.0,-4.0
1701619470.9855907,-2.0,-3.0,-5.0,-1.0,-3.0,-7.0,-5.0,0.0
1701619470.9855907,-3.0,2.0,3.0,3.0,5.0,2.0,-4.0,-2.0
1701619470.9958885,2.0,-2.0,6.0,6.0,10.0,1.0,4.0,0.0
1701619470.9958885,2.0,-4.0,-20.0,-7.0,0.0,-4.0,-2.0,-1.0
1701619471.015561,0.0,-1.0,0.0,-6.0,-10.0,0.0,-11.0,-2.0
1701619471.015561,1.0,0.0,1.0,4.0,-5.0,-7.0,0.0,3.0
1701619471.0258186,11.0,7.0,-2.0,-11.0,4.0,1.0,-4.0,-1.0
1701619471.0258186,-12.0,1.0,8.0,5.0,11.0,11.0,4.0,0.0
1701619471.0258186,-3.0,-3.0,-11.0,-1.0,5.0,-4.0,-15.0,-1.0
1701619471.0258186,-5.0,-11.0,5.0,-8.0,-4.0,0.0,14.0,9.0
1701619471.0459661,-2.0,5.0,-5.0,-1.0,-11.0,-6.0,-4.0,-17.0
1701619471.0459661,16.0,5.0,1.0,-4.0,-13.0,-9.0,-9.0,3.0
1701619471.0459661,4.0,2.0,7.0,-2.0,-14.0,-9.0,-8.0,0.0
1701619471.0459661,-5.0,-3.0,-10.0,2.0,18.0,12.0,15.0,2.0
1701619471.0555613,-14.0,4.0,5.0,9.0,19.0,6.0,-2.0,2.0
1701619471.0555613,1.0,1.0,-2.0,-8.0,-9.0,-1.0,0.0,-3.0
1701619471.0655625,-3.0,-3.0,1.0,0.0,5.0,0.0,-2.0,-1.0
1701619471.0655625,15.0,3.0,2.0,0.0,-20.0,-12.0,-9.0,-2.0
1701619471.0857036,-8.0,-8.0,6.0,4.0,-10.0,-1.0,9.0,3.0
1701619471.0857036,-2.0,-1.0,-10.0,0.0,16.0,6.0,-2.0,-7.0
1701619471.0857036,-5.0,-6.0,-3.0,1.0,8.0,4.0,13.0,1.0
1701619471.0857036,-2.0,-4.0,-10.0,-3.0,-4.0,-3.0,-9.0,-5.0
1701619471.1059513,2.0,1.0,-2.0,-6.0,-14.0,-9.0,-15.0,0.0
1701619471.1059513,7.0,6.0,13.0,8.0,2.0,-5.0,-13.0,1.0
1701619471.1059513,-9.0,-8.0,-22.0,-7.0,1.0,7.0,30.0,1.0
1701619471.1059513,-5.0,3.0,12.0,1.0,3.0,3.0,-4.0,-6.0
1701619471.1255598,4.0,4.0,-5.0,-1.0,1.0,-3.0,-5.0,0.0
1701619471.1255598,26.0,1.0,-3.0,-3.0,-6.0,-6.0,10.0,3.0
1701619471.1255598,-37.0,0.0,6.0,4.0,3.0,2.0,-9.0,-2.0
1701619471.1255598,-13.0,-18.0,-7.0,2.0,2.0,2.0,-6.0,4.0
1701619471.1459317,-8.0,-14.0,-2.0,-7.0,-1.0,3.0,5.0,-10.0
1701619471.1459317,0.0,0.0,-10.0,1.0,-1.0,0.0,-2.0,-1.0
1701619471.1459317,22.0,12.0,1.0,-7.0,-4.0,-8.0,-27.0,-1.0
1701619471.1459317,-16.0,4.0,7.0,2.0,-4.0,4.0,1.0,-6.0
1701619471.168149,-1.0,-4.0,-1.0,-6.0,-10.0,-3.0,-8.0,3.0
1701619471.168149,-4.0,-3.0,-8.0,-3.0,0.0,0.0,-8.0,-1.0
1701619471.1691468,8.0,0.0,5.0,1.0,-1.0,-7.0,5.0,-2.0
1701619471.1691468,3.0,2.0,-2.0,2.0,5.0,3.0,6.0,-1.0
1701619471.1848617,2.0,1.0,6.0,8.0,4.0,0.0,6.0,-1.0
1701619471.1848617,-10.0,-7.0,-15.0,-9.0,-4.0,0.0,0.0,-2.0
1701619471.190861,-1.0,16.0,-5.0,-2.0,-10.0,-6.0,-7.0,0.0
1701619471.190861,6.0,-10.0,1.0,-11.0,0.0,-3.0,1.0,-2.0
1701619471.2059085,-11.0,-3.0,-8.0,9.0,10.0,2.0,8.0,0.0
1701619471.2059085,-10.0,-14.0,-1.0,-6.0,-1.0,-6.0,-13.0,-2.0
1701619471.206908,6.0,1.0,2.0,-2.0,-8.0,4.0,8.0,-2.0
1701619471.206908,7.0,10.0,2.0,3.0,-4.0,-3.0,-1.0,-1.0
1701619471.2279546,-7.0,4.0,1.0,-6.0,-3.0,-5.0,-21.0,-10.0
1701619471.2279546,-8.0,0.0,-1.0,6.0,-4.0,5.0,30.0,0.0
1701619471.2297351,5.0,-5.0,-1.0,-5.0,8.0,-2.0,8.0,3.0
1701619471.2297351,5.0,2.0,-20.0,-2.0,0.0,4.0,-4.0,1.0
1701619471.243733,12.0,0.0,9.0,0.0,-4.0,-4.0,8.0,0.0
1701619471.243733,-12.0,4.0,-4.0,-4.0,3.0,-1.0,-6.0,2.0
1701619471.2509995,-12.0,-8.0,0.0,3.0,1.0,2.0,8.0,-2.0
1701619471.2519453,-8.0,8.0,4.0,-1.0,-2.0,-13.0,-32.0,-3.0
1701619471.2965207,13.0,-6.0,-15.0,-1.0,0.0,11.0,25.0,5.0
1701619471.2965207,20.0,6.0,12.0,-5.0,-8.0,-4.0,3.0,-1.0
1701619471.2965207,-18.0,-8.0,3.0,-6.0,-12.0,-10.0,-15.0,-1.0
1701619471.2965207,-36.0,-9.0,-21.0,-6.0,2.0,8.0,27.0,2.0
1701619471.2965207,-4.0,-7.0,-2.0,10.0,15.0,5.0,-8.0,-3.0
1701619471.2965207,40.0,26.0,23.0,10.0,2.0,0.0,5.0,-1.0
1701619471.2965207,-15.0,-20.0,-12.0,8.0,5.0,-2.0,-48.0,-9.0
1701619471.2965207,-7.0,-10.0,3.0,-10.0,-5.0,-2.0,19.0,2.0
1701619471.302579,-5.0,10.0,-10.0,-20.0,-16.0,-8.0,-5.0,-7.0
1701619471.302579,-17.0,-14.0,3.0,0.0,-2.0,-1.0,2.0,-3.0
1701619471.3171086,34.0,21.0,1.0,5.0,8.0,4.0,11.0,0.0
1701619471.3171086,2.0,-4.0,10.0,9.0,-1.0,1.0,-16.0,-3.0
1701619471.3258193,0.0,2.0,12.0,7.0,-1.0,0.0,5.0,3.0
1701619471.3258193,1.0,-2.0,-15.0,-5.0,-5.0,-7.0,-15.0,3.0
1701619471.3272395,12.0,11.0,6.0,-3.0,-3.0,0.0,3.0,1.0
1701619471.3272395,16.0,8.0,-24.0,12.0,2.0,0.0,13.0,0.0
1701619471.3542821,-33.0,-43.0,6.0,-15.0,-13.0,-5.0,-3.0,-1.0
1701619471.3542821,-28.0,-12.0,-20.0,-2.0,2.0,1.0,-16.0,-12.0
1701619471.3542821,-2.0,1.0,-21.0,9.0,23.0,11.0,27.0,4.0
1701619471.3542821,22.0,3.0,47.0,11.0,6.0,2.0,-4.0,3.0
1701619471.3616672,8.0,16.0,-25.0,-18.0,-17.0,-13.0,-18.0,-6.0
1701619471.3616672,-4.0,3.0,-31.0,-13.0,-17.0,-8.0,-6.0,1.0
1701619471.3685687,-6.0,-11.0,9.0,8.0,-3.0,5.0,13.0,3.0
1701619471.3685687,8.0,13.0,7.0,-1.0,-3.0,-14.0,-36.0,-9.0
1701619471.3789444,-8.0,32.0,6.0,-3.0,8.0,9.0,27.0,2.0
1701619471.3789444,17.0,-20.0,18.0,3.0,7.0,1.0,-15.0,2.0
1701619471.3888936,-5.0,5.0,-2.0,-5.0,-3.0,-3.0,-17.0,-4.0
1701619471.3888936,-22.0,-3.0,-8.0,-7.0,0.0,10.0,30.0,1.0
1701619471.4085715,4.0,-19.0,3.0,10.0,-2.0,-1.0,-9.0,-1.0
1701619471.4085715,-14.0,10.0,-12.0,-8.0,13.0,7.0,7.0,0.0
1701619471.4085715,13.0,-8.0,2.0,-10.0,-6.0,-8.0,-7.0,0.0
1701619471.4085715,-1.0,4.0,2.0,1.0,-11.0,-9.0,-7.0,-4.0
1701619471.4189386,37.0,-2.0,-2.0,12.0,-1.0,-1.0,-7.0,3.0
1701619471.4189386,-76.0,-4.0,-1.0,5.0,2.0,0.0,4.0,-9.0
1701619471.4285712,10.0,-20.0,-1.0,-5.0,-6.0,-3.0,4.0,3.0
1701619471.4285712,-4.0,-1.0,-10.0,-10.0,-2.0,-1.0,-2.0,2.0
1701619471.4385695,3.0,17.0,0.0,-6.0,-2.0,-1.0,-3.0,-10.0
1701619471.4385695,10.0,-4.0,10.0,7.0,-2.0,-1.0,-1.0,4.0
1701619471.4385695,-13.0,-2.0,7.0,5.0,10.0,4.0,7.0,-4.0
1701619471.4385695,13.0,-6.0,-11.0,8.0,9.0,1.0,-4.0,1.0
1701619471.468576,-1.0,7.0,-2.0,-19.0,-6.0,-3.0,-4.0,6.0
1701619471.468576,-1.0,-10.0,10.0,-1.0,4.0,0.0,3.0,-2.0
1701619471.468576,-9.0,-8.0,-6.0,-5.0,-4.0,-2.0,2.0,-2.0
1701619471.468576,15.0,2.0,-1.0,7.0,-3.0,-2.0,-2.0,-1.0
1701619471.488571,-8.0,-7.0,-1.0,6.0,4.0,0.0,-2.0,0.0
1701619471.488571,4.0,9.0,3.0,-2.0,-4.0,-1.0,1.0,-2.0
1701619471.488571,-24.0,-3.0,4.0,-1.0,-10.0,-4.0,-1.0,-4.0
1701619471.488571,-1.0,-8.0,-3.0,-7.0,-6.0,-6.0,-6.0,-2.0
1701619471.4985976,-8.0,2.0,8.0,1.0,-2.0,-1.0,0.0,2.0
1701619471.4985976,16.0,0.0,2.0,-3.0,-4.0,0.0,3.0,3.0
1701619471.4985976,1.0,7.0,3.0,10.0,10.0,1.0,-1.0,0.0
1701619471.4985976,-20.0,-12.0,-3.0,-10.0,-3.0,-1.0,-2.0,-5.0
1701619471.5285847,5.0,-7.0,-1.0,-4.0,-1.0,0.0,-2.0,1.0
1701619471.5285847,-3.0,3.0,-4.0,5.0,3.0,-1.0,2.0,9.0
1701619471.5285847,-1.0,2.0,0.0,-2.0,-3.0,0.0,-7.0,-11.0
1701619471.5285847,-4.0,2.0,-11.0,-5.0,-5.0,-5.0,-8.0,-4.0
1701619471.5389538,7.0,1.0,13.0,4.0,-1.0,-3.0,14.0,1.0
1701619471.5389538,10.0,-7.0,-14.0,1.0,0.0,2.0,-3.0,-11.0
1701619471.5489364,4.0,3.0,-1.0,1.0,-3.0,3.0,11.0,2.0
1701619471.5489364,2.0,2.0,-3.0,-6.0,-4.0,-1.0,4.0,0.0
1701619471.5685709,-19.0,-7.0,18.0,7.0,-3.0,-8.0,-13.0,3.0
1701619471.5685709,-2.0,-3.0,-4.0,-2.0,5.0,1.0,5.0,5.0
1701619471.5685709,4.0,3.0,2.0,0.0,-1.0,2.0,0.0,4.0
1701619471.5685709,-1.0,-11.0,-45.0,-10.0,1.0,2.0,-1.0,-7.0
1701619471.5885746,-5.0,-2.0,9.0,5.0,-2.0,1.0,-4.0,9.0
1701619471.5885746,-2.0,7.0,45.0,7.0,8.0,4.0,5.0,-5.0
1701619471.5885746,19.0,4.0,-33.0,-4.0,2.0,-6.0,-20.0,15.0
1701619471.5885746,-4.0,-11.0,7.0,-8.0,-9.0,-5.0,20.0,-3.0
1701619471.6086097,-3.0,-3.0,-18.0,-3.0,-5.0,-2.0,-2.0,-1.0
1701619471.6086097,-8.0,-15.0,-12.0,-13.0,-16.0,-5.0,1.0,-1.0
1701619471.6086097,7.0,2.0,17.0,2.0,4.0,4.0,-1.0,-5.0
1701619471.6086097,-10.0,3.0,20.0,11.0,7.0,-3.0,4.0,-1.0
1701619471.6285803,4.0,4.0,20.0,8.0,14.0,10.0,-10.0,-3.0
1701619471.6285803,6.0,-1.0,-33.0,1.0,1.0,2.0,13.0,4.0
1701619471.6285803,-4.0,-5.0,2.0,-6.0,-12.0,-10.0,-2.0,-7.0
1701619471.6285803,3.0,9.0,10.0,-3.0,-6.0,-4.0,-12.0,-1.0
1701619471.6485717,-3.0,-11.0,-9.0,-1.0,4.0,0.0,4.0,-4.0
1701619471.6485717,3.0,1.0,-4.0,-5.0,-3.0,-2.0,-9.0,-1.0
1701619471.6485717,-4.0,1.0,12.0,2.0,-4.0,-5.0,1.0,-3.0
1701619471.6485717,3.0,-3.0,-8.0,10.0,14.0,7.0,-1.0,-2.0
1701619471.6689694,26.0,9.0,-5.0,-3.0,1.0,1.0,5.0,2.0
1701619471.6689694,-27.0,-10.0,20.0,-4.0,-6.0,-2.0,-7.0,-6.0
1701619471.6689694,-13.0,-23.0,-44.0,-14.0,-7.0,-4.0,-3.0,-5.0
1701619471.6689694,12.0,17.0,35.0,2.0,-4.0,0.0,0.0,2.0
1701619471.6885703,-21.0,-13.0,-19.0,8.0,8.0,0.0,-11.0,-7.0
1701619471.6885703,24.0,5.0,11.0,4.0,-1.0,-4.0,-7.0,2.0
1701619471.6885703,-30.0,-7.0,12.0,-3.0,-8.0,-3.0,7.0,-5.0
1701619471.6885703,11.0,2.0,-2.0,2.0,-6.0,0.0,-6.0,1.0
1701619471.7157311,5.0,9.0,2.0,-2.0,-1.0,-4.0,-1.0,0.0
1701619471.7157311,-2.0,9.0,4.0,5.0,4.0,3.0,4.0,-2.0
1701619471.7178645,5.0,4.0,-25.0,-8.0,-2.0,0.0,1.0,1.0
1701619471.7178645,-6.0,-9.0,-12.0,-3.0,-2.0,-1.0,-7.0,-1.0
1701619471.7306783,-6.0,-2.0,6.0,-3.0,-12.0,-4.0,-1.0,-3.0
1701619471.7306783,2.0,-5.0,-48.0,-23.0,-7.0,-2.0,-6.0,-2.0
1701619471.7323205,9.0,4.0,15.0,9.0,15.0,6.0,3.0,1.0
1701619471.7323205,-4.0,0.0,2.0,6.0,5.0,2.0,2.0,-1.0
1701619471.7527487,-4.0,-3.0,24.0,3.0,-6.0,-4.0,-1.0,-3.0
1701619471.7527487,-3.0,-6.0,-12.0,-14.0,-6.0,-1.0,-3.0,8.0
1701619471.7527487,1.0,1.0,-10.0,-5.0,-11.0,-4.0,-3.0,-15.0
1701619471.7527487,-8.0,-3.0,-11.0,-5.0,-4.0,-4.0,-3.0,-1.0
1701619471.7681224,-3.0,3.0,2.0,1.0,-1.0,-1.0,-4.0,1.0
1701619471.7681224,2.0,4.0,33.0,15.0,4.0,-1.0,9.0,-2.0
1701619471.7696123,-3.0,-4.0,-1.0,-2.0,5.0,5.0,1.0,3.0
1701619471.7696123,0.0,-3.0,2.0,-1.0,0.0,-3.0,-2.0,0.0
1701619471.7984571,1.0,-4.0,-18.0,-7.0,-4.0,-2.0,3.0,-3.0
1701619471.7984571,1.0,0.0,0.0,6.0,0.0,-3.0,-8.0,0.0
1701619471.803454,3.0,2.0,10.0,2.0,-3.0,-5.0,1.0,0.0
1701619471.803454,-5.0,-2.0,-4.0,-10.0,-5.0,1.0,-2.0,-3.0
1701619471.8131168,0.0,-1.0,-16.0,-5.0,1.0,-4.0,1.0,1.0
1701619471.8131168,-4.0,-1.0,-1.0,0.0,2.0,3.0,3.0,2.0
1701619471.8141162,5.0,2.0,6.0,0.0,0.0,8.0,19.0,1.0
1701619471.8141162,0.0,-3.0,3.0,0.0,-1.0,-2.0,0.0,1.0
1701619471.8280182,-4.0,-1.0,6.0,-1.0,1.0,-1.0,-3.0,1.0
1701619471.8280182,4.0,1.0,-2.0,0.0,1.0,-4.0,-2.0,5.0
1701619471.829835,6.0,3.0,4.0,2.0,-3.0,-2.0,-14.0,-11.0
1701619471.829835,-4.0,-6.0,-17.0,-4.0,-3.0,-1.0,0.0,0.0
1701619471.858986,-1.0,-1.0,2.0,-8.0,-4.0,-3.0,-3.0,0.0
1701619471.858986,2.0,-4.0,-5.0,3.0,1.0,-2.0,0.0,-4.0
1701619471.858986,-8.0,-1.0,7.0,1.0,-1.0,-4.0,-9.0,4.0
1701619471.858986,3.0,4.0,11.0,2.0,2.0,1.0,4.0,-3.0
1701619471.8642848,-5.0,-2.0,-9.0,1.0,-1.0,-2.0,-5.0,-3.0
1701619471.8642848,2.0,1.0,2.0,-2.0,-2.0,0.0,2.0,-10.0
1701619471.8730907,1.0,2.0,7.0,-1.0,-1.0,2.0,3.0,5.0
1701619471.8730907,-3.0,-5.0,-4.0,-2.0,-2.0,-4.0,-11.0,3.0
1701619471.8884275,-1.0,-2.0,-7.0,2.0,1.0,0.0,5.0,-8.0
1701619471.8884275,-5.0,4.0,-1.0,0.0,-1.0,-3.0,-4.0,-3.0
1701619471.8894448,2.0,-7.0,-4.0,-3.0,0.0,-2.0,-3.0,2.0
1701619471.8894448,-4.0,10.0,1.0,-2.0,-2.0,-1.0,0.0,-8.0
1701619471.9182382,11.0,-19.0,-7.0,-4.0,1.0,-1.0,-2.0,9.0
1701619471.9182382,-3.0,1.0,-2.0,0.0,-1.0,-1.0,-4.0,-7.0
1701619471.9182382,0.0,0.0,-1.0,-1.0,-3.0,-2.0,1.0,-3.0
1701619471.9182382,-5.0,-1.0,0.0,2.0,0.0,-1.0,0.0,7.0
1701619471.9261386,0.0,8.0,0.0,-1.0,-1.0,2.0,4.0,-4.0
1701619471.9261386,-6.0,-7.0,1.0,0.0,-1.0,-1.0,-2.0,-5.0
1701619471.932629,0.0,3.0,-9.0,-3.0,-2.0,-4.0,-1.0,13.0
1701619471.932629,-1.0,-3.0,9.0,0.0,-1.0,0.0,-1.0,0.0
1701619471.9494493,-10.0,1.0,-7.0,2.0,1.0,1.0,4.0,-6.0
1701619471.9494493,-7.0,-6.0,17.0,2.0,-1.0,-3.0,-5.0,3.0
1701619471.950494,12.0,-3.0,-20.0,-7.0,-4.0,-4.0,-6.0,-2.0
1701619471.9514432,13.0,3.0,-22.0,-12.0,-1.0,0.0,0.0,-2.0
1701619471.976194,-3.0,-6.0,-14.0,0.0,2.0,0.0,0.0,1.0
1701619471.976194,-28.0,-1.0,4.0,-3.0,-3.0,-2.0,-2.0,8.0
1701619471.977194,-15.0,-7.0,21.0,5.0,1.0,-2.0,1.0,5.0
1701619471.977194,0.0,-10.0,25.0,9.0,-1.0,1.0,-3.0,-10.0
1701619471.9851408,1.0,2.0,-35.0,-9.0,-1.0,1.0,1.0,5.0
1701619471.9851408,5.0,3.0,21.0,10.0,0.0,-1.0,-1.0,4.0
1701619471.992177,-5.0,9.0,-17.0,-8.0,0.0,-3.0,-1.0,12.0
1701619471.992177,3.0,-7.0,-8.0,-4.0,-6.0,-4.0,-6.0,-24.0
1701619472.0082836,-9.0,3.0,8.0,3.0,-1.0,0.0,-2.0,-15.0
1701619472.0082836,10.0,-7.0,-5.0,2.0,0.0,-2.0,-2.0,22.0
1701619472.0092945,-6.0,8.0,27.0,5.0,-1.0,1.0,-4.0,-32.0
1701619472.0092945,-4.0,-5.0,3.0,-1.0,2.0,-1.0,2.0,13.0
1701619472.0313845,2.0,0.0,-22.0,-9.0,-4.0,-5.0,-2.0,12.0
1701619472.0324512,-1.0,11.0,-9.0,-2.0,2.0,1.0,-4.0,-21.0
1701619472.037452,22.0,-38.0,12.0,9.0,-2.0,-3.0,5.0,1.0
1701619472.037452,8.0,9.0,-25.0,-11.0,-1.0,-2.0,2.0,32.0
1701619472.0445275,0.0,31.0,26.0,3.0,-1.0,-6.0,-5.0,-18.0
1701619472.0455546,4.0,-12.0,-5.0,-1.0,1.0,0.0,-2.0,-14.0
1701619472.0532985,-34.0,2.0,-14.0,-4.0,-2.0,-4.0,9.0,-16.0
1701619472.0532985,-13.0,-2.0,7.0,10.0,0.0,7.0,-1.0,24.0
1701619472.0693889,6.0,-11.0,7.0,-5.0,-1.0,-2.0,4.0,23.0
1701619472.0693889,-3.0,-6.0,-16.0,-9.0,-1.0,0.0,-5.0,-11.0
1701619472.0703876,12.0,2.0,-5.0,-1.0,2.0,-3.0,-9.0,0.0
1701619472.0703876,1.0,-6.0,4.0,-3.0,-4.0,-6.0,-11.0,-11.0
1701619472.1010914,-29.0,0.0,3.0,1.0,0.0,2.0,-2.0,-16.0
1701619472.1010914,1.0,-1.0,-4.0,-3.0,-4.0,-4.0,-3.0,2.0
1701619472.1010914,5.0,5.0,-2.0,0.0,0.0,2.0,2.0,12.0
1701619472.1010914,-5.0,13.0,5.0,-2.0,-1.0,-5.0,-7.0,-10.0
1701619472.1041145,8.0,1.0,12.0,2.0,-2.0,2.0,9.0,1.0
1701619472.1041145,15.0,-5.0,-2.0,1.0,0.0,-4.0,2.0,-8.0
1701619472.1136775,-11.0,3.0,-10.0,-10.0,-1.0,4.0,3.0,23.0
1701619472.1136775,-7.0,-6.0,-3.0,-1.0,1.0,0.0,0.0,-10.0
1701619472.1368728,5.0,-8.0,5.0,6.0,0.0,1.0,-4.0,-4.0
1701619472.1368728,-3.0,7.0,-7.0,-8.0,-2.0,-1.0,7.0,-2.0
1701619472.1368728,4.0,0.0,-2.0,-3.0,-1.0,-2.0,-5.0,4.0
1701619472.1368728,3.0,8.0,4.0,3.0,0.0,-4.0,-5.0,-16.0
1701619472.1517086,-1.0,-19.0,-3.0,-3.0,0.0,1.0,0.0,11.0
1701619472.1517086,-6.0,3.0,-1.0,3.0,-1.0,1.0,-1.0,-3.0
1701619472.1536982,-1.0,-1.0,-1.0,0.0,-1.0,-1.0,-12.0,-14.0
1701619472.1536982,-7.0,-1.0,-4.0,-1.0,1.0,4.0,12.0,-5.0
1701619472.1644886,5.0,5.0,5.0,-1.0,0.0,-3.0,-4.0,-7.0
1701619472.1655142,-1.0,-2.0,2.0,0.0,-2.0,-5.0,-4.0,4.0
1701619472.185596,-4.0,-5.0,-14.0,0.0,0.0,-1.0,2.0,-3.0
1701619472.185596,7.0,1.0,2.0,0.0,0.0,-2.0,13.0,-5.0
1701619472.2030144,-10.0,-2.0,-4.0,-2.0,-2.0,1.0,-5.0,0.0
1701619472.2030144,16.0,0.0,3.0,0.0,0.0,1.0,1.0,17.0
1701619472.2030144,-35.0,-9.0,7.0,-2.0,2.0,0.0,-2.0,-6.0
1701619472.2030144,4.0,-1.0,-6.0,1.0,-1.0,-1.0,1.0,-2.0
1701619472.2104826,-1.0,3.0,0.0,-3.0,0.0,-2.0,-3.0,-5.0
1701619472.2104826,7.0,-9.0,-10.0,-2.0,-3.0,-1.0,1.0,7.0
1701619472.212067,7.0,11.0,11.0,2.0,-1.0,0.0,3.0,-2.0
1701619472.212067,-11.0,-4.0,-2.0,-1.0,-2.0,-2.0,-4.0,-1.0
1701619472.2246487,4.0,0.0,-2.0,0.0,1.0,-2.0,0.0,3.0
1701619472.2246487,-7.0,7.0,1.0,0.0,-1.0,-1.0,-1.0,-2.0
1701619472.2334492,17.0,-6.0,-10.0,-2.0,-2.0,-2.0,1.0,-1.0
1701619472.2334492,-4.0,20.0,8.0,-2.0,-2.0,-1.0,-6.0,-4.0
1701619472.2478275,5.0,19.0,3.0,0.0,-1.0,0.0,1.0,3.0
1701619472.2478275,7.0,-18.0,4.0,-1.0,-1.0,0.0,2.0,-4.0
1701619472.2498283,-4.0,-10.0,-6.0,4.0,1.0,0.0,-2.0,-15.0
1701619472.2498283,16.0,-10.0,3.0,-3.0,-1.0,-1.0,-3.0,21.0
1701619472.2713346,-49.0,-3.0,-5.0,0.0,-1.0,-1.0,-1.0,-12.0
1701619472.2713346,18.0,2.0,-1.0,-2.0,-1.0,-4.0,-5.0,9.0
1701619472.2723455,24.0,7.0,8.0,2.0,0.0,0.0,1.0,-16.0
1701619472.2723455,14.0,3.0,-4.0,1.0,-1.0,-1.0,-2.0,-8.0
1701619472.2853498,31.0,2.0,-1.0,1.0,-2.0,-2.0,2.0,15.0
1701619472.2853498,-26.0,-4.0,-3.0,-4.0,0.0,-1.0,0.0,-8.0
1701619472.2938201,24.0,4.0,2.0,-1.0,-3.0,-6.0,-5.0,-6.0
1701619472.2938201,-26.0,-30.0,-1.0,6.0,0.0,9.0,21.0,26.0
1701619472.3084748,2.0,-2.0,-18.0,-9.0,-3.0,-4.0,-12.0,-19.0
1701619472.3094726,17.0,21.0,14.0,10.0,1.0,1.0,-5.0,-4.0
1701619472.3144703,1.0,1.0,14.0,4.0,0.0,-2.0,3.0,16.0
1701619472.3144703,-18.0,-3.0,-13.0,-3.0,-1.0,-3.0,-13.0,-17.0
1701619472.3354468,0.0,-10.0,13.0,5.0,-5.0,-4.0,7.0,4.0
1701619472.3354468,-22.0,22.0,0.0,1.0,2.0,8.0,18.0,17.0
1701619472.3354468,12.0,-45.0,-19.0,-14.0,-6.0,3.0,-9.0,21.0
1701619472.3354468,39.0,1.0,12.0,11.0,5.0,1.0,2.0,-11.0
1701619472.354287,-8.0,17.0,4.0,-9.0,-3.0,-5.0,-10.0,6.0
1701619472.354287,21.0,26.0,-10.0,3.0,2.0,0.0,18.0,-1.0
1701619472.354287,-74.0,-78.0,1.0,3.0,-1.0,-4.0,-4.0,0.0
1701619472.354287,16.0,22.0,25.0,10.0,-2.0,-7.0,-13.0,-6.0
1701619472.36836,-3.0,-17.0,-22.0,-3.0,3.0,5.0,10.0,2.0
1701619472.36836,37.0,25.0,-8.0,-15.0,-3.0,-5.0,-19.0,-21.0
1701619472.3697348,-36.0,3.0,-20.0,-6.0,-3.0,0.0,14.0,5.0
1701619472.3697348,5.0,-14.0,-17.0,-6.0,-4.0,0.0,30.0,15.0
1701619472.3907866,35.0,-2.0,18.0,6.0,1.0,1.0,10.0,-14.0
1701619472.3913393,-23.0,-5.0,3.0,-3.0,0.0,-1.0,-43.0,-3.0
1701619472.392473,7.0,28.0,6.0,8.0,3.0,1.0,-3.0,-12.0
1701619472.392473,-7.0,-10.0,9.0,-2.0,-2.0,-5.0,-20.0,-7.0
1701619472.4132712,13.0,11.0,-11.0,5.0,-1.0,-1.0,6.0,11.0
1701619472.4132712,-30.0,-27.0,-12.0,-9.0,-3.0,0.0,10.0,-7.0
1701619472.414658,15.0,12.0,0.0,2.0,-1.0,1.0,-3.0,-1.0
1701619472.414658,-14.0,-6.0,-2.0,-7.0,-3.0,-2.0,1.0,-5.0
1701619472.4296658,5.0,7.0,0.0,1.0,0.0,-1.0,-5.0,-1.0
1701619472.4296658,-20.0,-24.0,-5.0,-5.0,-4.0,-1.0,1.0,-6.0
1701619472.4296658,-5.0,24.0,12.0,0.0,-2.0,-5.0,-5.0,-5.0
1701619472.4296658,2.0,3.0,-7.0,-1.0,2.0,2.0,2.0,0.0
1701619472.4578538,0.0,-2.0,-4.0,-7.0,0.0,0.0,-9.0,-2.0
1701619472.4578538,4.0,-28.0,6.0,13.0,0.0,1.0,2.0,7.0
1701619472.4596252,21.0,29.0,-3.0,-6.0,0.0,-1.0,1.0,1.0
1701619472.4596252,-42.0,-13.0,-23.0,-19.0,-7.0,-2.0,-5.0,-6.0
1701619472.4646342,-13.0,2.0,7.0,-2.0,-3.0,-4.0,-13.0,-5.0
1701619472.4646342,-20.0,-18.0,4.0,7.0,0.0,2.0,14.0,-11.0
1701619472.4726336,-2.0,6.0,-1.0,0.0,0.0,-3.0,-6.0,6.0
1701619472.4726336,8.0,4.0,1.0,3.0,2.0,3.0,-1.0,-2.0
1701619472.4872372,-3.0,5.0,4.0,0.0,-2.0,0.0,9.0,2.0
1701619472.4872372,0.0,-1.0,-4.0,0.0,-3.0,-4.0,0.0,-3.0
1701619472.4953127,4.0,-2.0,-9.0,-9.0,-2.0,-3.0,-2.0,-5.0
1701619472.4953127,3.0,7.0,-1.0,-3.0,-1.0,-4.0,-6.0,-2.0
1701619472.5186203,-4.0,-12.0,0.0,-1.0,-1.0,-2.0,-6.0,-1.0
1701619472.5186203,1.0,-1.0,-2.0,-3.0,0.0,-1.0,5.0,5.0
1701619472.5196173,4.0,0.0,3.0,-2.0,0.0,1.0,-3.0,-6.0
1701619472.5206153,4.0,10.0,0.0,-4.0,-2.0,-1.0,0.0,1.0
1701619472.5246925,-29.0,-21.0,-1.0,1.0,0.0,3.0,-1.0,-5.0
1701619472.5246925,4.0,3.0,0.0,-2.0,-1.0,-4.0,-5.0,0.0
1701619472.5336545,2.0,-1.0,-8.0,-1.0,1.0,2.0,-2.0,-2.0
1701619472.5336545,-2.0,7.0,-6.0,-2.0,0.0,-2.0,-4.0,-8.0
1701619472.557191,16.0,-6.0,3.0,1.0,0.0,-1.0,-3.0,8.0
1701619472.557191,-36.0,8.0,5.0,-1.0,0.0,-1.0,-2.0,-11.0
1701619472.557191,39.0,13.0,13.0,1.0,-3.0,-1.0,0.0,1.0
1701619472.557191,-50.0,-27.0,-12.0,0.0,0.0,1.0,-2.0,-10.0
1701619472.5775762,-2.0,12.0,1.0,-5.0,-4.0,-4.0,-2.0,5.0
1701619472.5775762,14.0,3.0,7.0,0.0,-2.0,-3.0,0.0,8.0
1701619472.5775762,-10.0,-5.0,8.0,1.0,2.0,1.0,3.0,-9.0
1701619472.5775762,10.0,4.0,6.0,-1.0,-2.0,-4.0,-4.0,-1.0
1701619472.587921,-6.0,-16.0,-30.0,-3.0,0.0,1.0,-2.0,0.0
1701619472.587921,11.0,31.0,6.0,-3.0,-2.0,-2.0,-1.0,-3.0
1701619472.587921,-2.0,-11.0,-14.0,-6.0,-5.0,-6.0,-1.0,-2.0
1701619472.587921,24.0,1.0,14.0,0.0,1.0,0.0,1.0,1.0
1701619472.6075785,-36.0,-14.0,-6.0,0.0,-1.0,-2.0,-3.0,-1.0
1701619472.6075785,-13.0,5.0,-6.0,-1.0,-1.0,-2.0,-3.0,1.0
1701619472.6075785,-3.0,-4.0,-5.0,-1.0,-1.0,0.0,0.0,-4.0
1701619472.6075785,-7.0,-9.0,-12.0,-1.0,-3.0,-4.0,-2.0,7.0
1701619472.6375773,12.0,19.0,27.0,3.0,-1.0,0.0,1.0,-9.0
1701619472.6375773,1.0,-27.0,-13.0,-1.0,1.0,2.0,-1.0,0.0
1701619472.6375773,3.0,21.0,9.0,-1.0,-4.0,-2.0,-2.0,8.0
1701619472.6375773,-13.0,-10.0,-7.0,-1.0,-2.0,-2.0,0.0,-26.0
1701619472.6478019,15.0,0.0,-1.0,-1.0,-1.0,-3.0,-3.0,16.0
1701619472.6478019,11.0,4.0,1.0,2.0,0.0,-1.0,-4.0,10.0
1701619472.6478019,-12.0,-2.0,-2.0,-2.0,1.0,1.0,1.0,-8.0
1701619472.6478019,5.0,6.0,-3.0,-2.0,-2.0,-1.0,-1.0,6.0
1701619472.667876,-13.0,-14.0,-1.0,-3.0,-1.0,-1.0,-1.0,-6.0
1701619472.667876,12.0,2.0,4.0,-1.0,1.0,0.0,-2.0,-8.0
1701619472.667876,-2.0,-1.0,-1.0,1.0,-1.0,-2.0,1.0,4.0
1701619472.667876,-11.0,-2.0,-11.0,-2.0,-1.0,-1.0,-4.0,-1.0
1701619472.7078726,26.0,12.0,3.0,10.0,1.0,1.0,0.0,4.0
1701619472.7078726,6.0,-29.0,6.0,-10.0,-3.0,-2.0,-4.0,-2.0
1701619472.7078726,-23.0,2.0,-3.0,-3.0,-2.0,-2.0,-2.0,-8.0
1701619472.7078726,0.0,15.0,1.0,-1.0,1.0,1.0,2.0,-2.0
1701619472.7078726,-4.0,-4.0,1.0,4.0,1.0,-3.0,-2.0,9.0
1701619472.7078726,0.0,2.0,-1.0,1.0,-2.0,-2.0,-1.0,-4.0
1701619472.7078726,3.0,-4.0,5.0,1.0,-1.0,1.0,0.0,2.0
1701619472.7078726,-5.0,4.0,9.0,0.0,-1.0,-1.0,-1.0,0.0
1701619472.728288,5.0,1.0,-6.0,-4.0,-1.0,-1.0,0.0,-3.0
1701619472.728288,-4.0,-5.0,0.0,1.0,-2.0,-1.0,-2.0,-1.0
1701619472.728288,-3.0,0.0,-2.0,-1.0,0.0,0.0,-3.0,3.0
1701619472.7378771,23.0,-4.0,-3.0,0.0,-1.0,-2.0,0.0,14.0
1701619472.7578712,-10.0,-8.0,1.0,-6.0,-2.0,-1.0,-1.0,-13.0
1701619472.7578712,-12.0,4.0,-4.0,-1.0,-2.0,-3.0,-3.0,0.0
1701619472.7578712,4.0,-2.0,-3.0,3.0,-2.0,0.0,-1.0,-5.0
1701619472.7578712,-6.0,-3.0,2.0,-1.0,-1.0,-2.0,2.0,-1.0
1701619472.768166,6.0,4.0,1.0,-3.0,-2.0,-1.0,-3.0,4.0
1701619472.768166,-3.0,-9.0,-3.0,4.0,1.0,1.0,-1.0,-5.0
1701619472.768166,6.0,6.0,-3.0,-8.0,-1.0,0.0,-2.0,-1.0
1701619472.768166,11.0,-1.0,3.0,3.0,-2.0,0.0,1.0,7.0
1701619472.787876,-29.0,-9.0,-3.0,-4.0,-1.0,0.0,2.0,-11.0
1701619472.787876,15.0,3.0,-1.0,-2.0,-2.0,-1.0,-1.0,1.0
1701619472.807872,-25.0,-27.0,-13.0,-1.0,-1.0,-2.0,-2.0,9.0
1701619472.807872,-1.0,15.0,9.0,1.0,-2.0,-1.0,-4.0,-9.0
1701619472.807872,3.0,-9.0,-1.0,0.0,-1.0,-1.0,-1.0,-6.0
1701619472.807872,0.0,7.0,-2.0,0.0,-1.0,1.0,1.0,0.0
1701619472.807872,2.0,7.0,0.0,0.0,-2.0,-2.0,-1.0,0.0
1701619472.807872,8.0,-7.0,1.0,0.0,1.0,-2.0,-1.0,1.0
1701619472.8282802,2.0,-3.0,-1.0,-1.0,-1.0,0.0,0.0,-7.0
1701619472.8282802,-14.0,-8.0,-10.0,-4.0,-1.0,-2.0,-2.0,1.0
1701619472.8282802,-10.0,-5.0,0.0,-1.0,-1.0,-2.0,0.0,-12.0
1701619472.8282802,-3.0,1.0,-3.0,-1.0,0.0,-1.0,-2.0,2.0
1701619472.8475904,21.0,3.0,3.0,-1.0,-1.0,-1.0,-1.0,9.0
1701619472.8475904,-28.0,0.0,3.0,1.0,-1.0,-2.0,-2.0,7.0
1701619472.863534,-2.0,-1.0,-15.0,-2.0,-2.0,0.0,0.0,-7.0
1701619472.863534,20.0,1.0,1.0,-2.0,-2.0,1.0,-1.0,4.0
1701619472.8670304,9.0,1.0,5.0,2.0,0.0,1.0,2.0,-4.0
1701619472.8670304,8.0,-7.0,-5.0,-7.0,-1.0,-3.0,-4.0,-11.0
1701619472.8670304,-29.0,9.0,5.0,3.0,0.0,-2.0,0.0,-3.0
1701619472.8670304,-14.0,-25.0,-3.0,-2.0,-3.0,-3.0,-5.0,-2.0
1701619472.8878536,10.0,2.0,-6.0,-2.0,-1.0,0.0,4.0,-8.0
1701619472.8878536,11.0,13.0,8.0,3.0,-1.0,-2.0,-2.0,10.0
1701619472.8878536,2.0,2.0,5.0,0.0,2.0,-1.0,1.0,0.0
1701619472.8878536,1.0,3.0,-7.0,-4.0,-2.0,-3.0,-3.0,-4.0
1701619472.9076786,-15.0,2.0,10.0,-1.0,0.0,-2.0,-2.0,-6.0
1701619472.9076786,8.0,-1.0,-12.0,1.0,-3.0,0.0,-9.0,-12.0
1701619472.9076786,-1.0,-5.0,-9.0,-10.0,-2.0,-4.0,-4.0,14.0
1701619472.9076786,7.0,13.0,9.0,3.0,1.0,3.0,15.0,4.0
1701619472.9375122,-7.0,-7.0,-8.0,-2.0,-1.0,-2.0,-9.0,-4.0
1701619472.9375122,-6.0,-11.0,6.0,1.0,0.0,2.0,19.0,-1.0
1701619472.9375122,18.0,17.0,-4.0,-1.0,-2.0,-2.0,-6.0,-2.0
1701619472.9375122,-2.0,-12.0,1.0,-2.0,-4.0,-2.0,-5.0,-5.0
1701619472.947512,0.0,-3.0,0.0,-4.0,-2.0,-2.0,-2.0,-3.0
1701619472.947512,-12.0,-8.0,-2.0,0.0,0.0,-2.0,-1.0,6.0
1701619472.947512,21.0,2.0,13.0,5.0,0.0,2.0,-8.0,-16.0
1701619472.947512,-19.0,7.0,-10.0,-3.0,-2.0,-4.0,-6.0,11.0
1701619472.9675124,5.0,2.0,-2.0,-3.0,-1.0,4.0,19.0,9.0
1701619472.9675124,-18.0,-10.0,0.0,-5.0,-2.0,-2.0,-5.0,-4.0
1701619472.9775133,0.0,-10.0,-12.0,1.0,-2.0,-1.0,-5.0,2.0
1701619472.9775133,8.0,8.0,9.0,-5.0,0.0,0.0,5.0,-7.0
1701619472.9879227,-5.0,2.0,0.0,1.0,-1.0,-1.0,-6.0,-4.0
1701619472.9879227,4.0,8.0,0.0,-1.0,-1.0,-2.0,-9.0,-4.0
1701619472.9879227,3.0,-9.0,-1.0,-4.0,-1.0,1.0,3.0,-1.0
1701619472.9879227,3.0,5.0,0.0,3.0,0.0,-1.0,-3.0,4.0
1701619473.007878,-18.0,-6.0,-11.0,-2.0,-1.0,-4.0,-5.0,-4.0
1701619473.007878,22.0,4.0,-1.0,-2.0,0.0,2.0,-6.0,1.0
1701619473.007878,-4.0,0.0,7.0,4.0,0.0,0.0,-1.0,2.0
1701619473.007878,-11.0,-15.0,-2.0,-1.0,-3.0,-2.0,-2.0,-5.0
1701619473.0275204,5.0,0.0,8.0,-1.0,0.0,-1.0,1.0,0.0
1701619473.0275204,-2.0,10.0,-12.0,-5.0,-1.0,-2.0,-8.0,-6.0
1701619473.0275204,9.0,-8.0,9.0,2.0,1.0,-2.0,3.0,5.0
1701619473.0275204,6.0,0.0,-13.0,-4.0,-4.0,-1.0,1.0,1.0
1701619473.0479066,-7.0,9.0,8.0,0.0,-1.0,-4.0,-4.0,-8.0
1701619473.0479066,-10.0,-28.0,-6.0,0.0,-2.0,-3.0,-3.0,-6.0
1701619473.0479066,-1.0,18.0,3.0,0.0,1.0,0.0,5.0,5.0
1701619473.0479066,3.0,-6.0,1.0,1.0,1.0,0.0,2.0,-4.0
1701619473.0678651,9.0,2.0,-4.0,-1.0,-1.0,-2.0,-7.0,-4.0
1701619473.0678651,-1.0,23.0,6.0,1.0,-3.0,0.0,3.0,10.0
1701619473.0678651,14.0,-14.0,12.0,0.0,-1.0,-1.0,7.0,7.0
1701619473.0678651,-26.0,-5.0,-11.0,-1.0,1.0,0.0,-9.0,-10.0
1701619473.0875146,-13.0,-20.0,-30.0,-3.0,-2.0,1.0,-1.0,0.0
1701619473.0875146,9.0,3.0,7.0,2.0,0.0,0.0,5.0,0.0
1701619473.1075132,-1.0,1.0,2.0,0.0,-2.0,-2.0,-1.0,-2.0
1701619473.1075132,7.0,12.0,11.0,0.0,-1.0,-1.0,-4.0,0.0
1701619473.1075132,7.0,8.0,5.0,0.0,0.0,0.0,-2.0,0.0
1701619473.1075132,10.0,0.0,-2.0,-3.0,-1.0,-1.0,4.0,0.0
1701619473.1075132,-32.0,-12.0,-8.0,2.0,0.0,0.0,-4.0,-7.0
1701619473.1075132,8.0,3.0,5.0,0.0,-1.0,-1.0,-1.0,0.0
1701619473.1279116,-14.0,0.0,-2.0,-3.0,-1.0,-2.0,-2.0,-1.0
1701619473.1279116,16.0,-8.0,-4.0,-2.0,-1.0,-2.0,-2.0,-2.0
1701619473.1279116,-16.0,-1.0,-3.0,-5.0,1.0,-1.0,-2.0,-3.0
1701619473.1279116,3.0,2.0,-8.0,-1.0,0.0,2.0,0.0,-2.0
1701619473.1475189,-6.0,-6.0,9.0,2.0,-2.0,0.0,-2.0,0.0
1701619473.1475189,8.0,-5.0,-9.0,-4.0,-2.0,-4.0,-1.0,4.0
1701619473.1475189,7.0,3.0,-2.0,0.0,0.0,0.0,0.0,-4.0
1701619473.1475189,-21.0,0.0,-4.0,-2.0,-1.0,-2.0,0.0,-4.0
1701619473.1775122,12.0,-2.0,1.0,0.0,1.0,-1.0,0.0,-4.0
1701619473.1775122,-20.0,-14.0,-3.0,-2.0,-4.0,0.0,1.0,4.0
1701619473.1775122,15.0,-2.0,-4.0,2.0,0.0,2.0,2.0,5.0
1701619473.1775122,-10.0,-1.0,12.0,-1.0,-1.0,-3.0,-2.0,2.0
1701619473.187517,2.0,-1.0,-12.0,-1.0,-1.0,-2.0,-2.0,-4.0
1701619473.187517,-38.0,0.0,10.0,1.0,1.0,-2.0,-1.0,-11.0
1701619473.187517,6.0,1.0,-17.0,-4.0,-4.0,-4.0,-1.0,-5.0
1701619473.187517,-2.0,-1.0,7.0,-2.0,-2.0,-1.0,-5.0,12.0
1701619473.207514,1.0,-3.0,7.0,2.0,2.0,0.0,0.0,-5.0
1701619473.207514,-11.0,4.0,6.0,-3.0,-2.0,-3.0,0.0,10.0
1701619473.2179086,20.0,5.0,3.0,-2.0,-3.0,-2.0,-7.0,-12.0
1701619473.2179086,3.0,-2.0,-3.0,-1.0,1.0,0.0,1.0,-2.0
1701619473.2278354,-6.0,-19.0,-2.0,-1.0,-2.0,-2.0,-2.0,0.0
1701619473.2278354,12.0,11.0,-25.0,-5.0,0.0,0.0,-2.0,-6.0
1701619473.2278354,-6.0,8.0,14.0,-1.0,-1.0,-2.0,1.0,-1.0
1701619473.2278354,3.0,4.0,-7.0,-4.0,-1.0,-3.0,1.0,-3.0
1701619473.2475135,-1.0,-5.0,19.0,4.0,-1.0,-1.0,-2.0,3.0
1701619473.2475135,4.0,-1.0,-2.0,1.0,0.0,2.0,0.0,-14.0
1701619473.2475135,-8.0,-8.0,-12.0,-2.0,-2.0,-3.0,-1.0,18.0
1701619473.2475135,15.0,1.0,4.0,2.0,0.0,0.0,-1.0,-10.0
1701619473.2675316,-18.0,2.0,-6.0,-1.0,-2.0,0.0,1.0,0.0
1701619473.2675316,7.0,-5.0,0.0,2.0,-1.0,2.0,0.0,-5.0
1701619473.2776532,-4.0,6.0,2.0,-4.0,-3.0,-3.0,-1.0,-9.0
1701619473.2776532,-7.0,-19.0,-3.0,0.0,0.0,-1.0,-2.0,-6.0
1701619473.2878196,-11.0,9.0,-4.0,-2.0,-1.0,-2.0,0.0,12.0
1701619473.2878196,6.0,-4.0,2.0,0.0,0.0,0.0,-1.0,0.0
1701619473.2878196,-2.0,8.0,3.0,-1.0,0.0,-1.0,0.0,-7.0
1701619473.2878196,8.0,4.0,-2.0,-2.0,-2.0,-1.0,-1.0,-1.0
1701619473.3177772,-25.0,-14.0,-9.0,-6.0,-3.0,-1.0,1.0,0.0
1701619473.3177772,9.0,3.0,3.0,1.0,1.0,0.0,1.0,-12.0
1701619473.3177772,1.0,-5.0,-1.0,-2.0,-1.0,-1.0,-2.0,16.0
1701619473.3177772,-13.0,-14.0,-12.0,0.0,-2.0,-1.0,0.0,0.0
1701619473.327565,18.0,15.0,-2.0,0.0,0.0,0.0,-1.0,-3.0
1701619473.327565,-1.0,-6.0,1.0,-2.0,-1.0,0.0,-1.0,6.0
1701619473.3375127,-16.0,6.0,10.0,1.0,-1.0,-1.0,-3.0,-16.0
1701619473.3375127,1.0,-28.0,-25.0,-4.0,-2.0,-2.0,0.0,0.0
1701619473.3478737,12.0,4.0,-2.0,-5.0,0.0,0.0,-1.0,-2.0
1701619473.3478737,-9.0,6.0,12.0,1.0,-1.0,-3.0,-2.0,0.0
1701619473.3478737,7.0,5.0,-14.0,-2.0,-1.0,-2.0,-1.0,-4.0
1701619473.3478737,-2.0,1.0,3.0,-1.0,-2.0,-2.0,-1.0,-2.0
1701619473.381335,3.0,4.0,6.0,0.0,-2.0,-1.0,-3.0,-8.0
1701619473.381335,-21.0,14.0,-15.0,-3.0,-2.0,-2.0,-1.0,1.0
1701619473.3823519,12.0,-2.0,-3.0,-1.0,1.0,1.0,1.0,6.0
1701619473.383356,-14.0,-18.0,-6.0,-2.0,-1.0,-1.0,-3.0,-10.0
1701619473.386958,-3.0,5.0,-2.0,-3.0,-2.0,-3.0,-3.0,5.0
1701619473.3879893,7.0,0.0,5.0,0.0,0.0,-1.0,-1.0,-5.0
1701619473.3962817,-7.0,-10.0,3.0,3.0,-1.0,-2.0,-1.0,-3.0
1701619473.3962817,9.0,12.0,3.0,-1.0,0.0,1.0,1.0,1.0
1701619473.4298089,-6.0,-4.0,-4.0,0.0,-1.0,-2.0,-3.0,-6.0
1701619473.4298089,-5.0,-11.0,3.0,-2.0,-2.0,-1.0,-3.0,9.0
1701619473.4298089,-5.0,-10.0,-11.0,-2.0,-1.0,0.0,-2.0,-4.0
1701619473.4298089,0.0,5.0,11.0,4.0,-1.0,-2.0,0.0,2.0
1701619473.4298089,10.0,0.0,-6.0,-1.0,-3.0,0.0,-1.0,0.0
1701619473.4298089,6.0,-16.0,10.0,-1.0,0.0,-3.0,-2.0,-8.0
1701619473.4298089,-4.0,17.0,26.0,4.0,0.0,-1.0,2.0,-2.0
1701619473.4298089,-10.0,-24.0,-46.0,-11.0,-4.0,-2.0,-4.0,-4.0
1701619473.4400513,18.0,5.0,12.0,1.0,1.0,1.0,2.0,-6.0
1701619473.4400513,-2.0,-21.0,-20.0,-1.0,0.0,-2.0,1.0,22.0
1701619473.4500818,4.0,5.0,10.0,-1.0,-5.0,-2.0,-3.0,4.0
1701619473.4500818,-5.0,13.0,13.0,1.0,1.0,-2.0,-1.0,0.0
1701619473.4798155,7.0,5.0,-2.0,-2.0,0.0,-3.0,0.0,-14.0
1701619473.4798155,-12.0,4.0,0.0,-1.0,-2.0,-2.0,-2.0,11.0
1701619473.4798155,18.0,10.0,3.0,-2.0,2.0,1.0,0.0,-7.0
1701619473.4798155,4.0,-19.0,6.0,-1.0,-2.0,-1.0,-2.0,2.0
1701619473.5002441,-4.0,-3.0,-6.0,0.0,-1.0,-2.0,-2.0,1.0
1701619473.5002441,8.0,26.0,0.0,-2.0,-1.0,1.0,2.0,-3.0
1701619473.5002441,-11.0,-45.0,-10.0,-4.0,-3.0,-2.0,-2.0,-8.0
1701619473.5002441,-8.0,27.0,11.0,1.0,-1.0,-1.0,-2.0,1.0
1701619473.5102298,-1.0,-14.0,-4.0,-1.0,-1.0,-1.0,0.0,0.0
1701619473.5102298,1.0,25.0,-12.0,-6.0,-3.0,-2.0,-1.0,7.0
1701619473.5201905,3.0,-8.0,-8.0,-5.0,-2.0,-2.0,-2.0,-5.0
1701619473.5201905,7.0,0.0,-7.0,1.0,-1.0,0.0,-1.0,-6.0
1701619473.5298111,-15.0,35.0,33.0,3.0,-1.0,-2.0,-1.0,3.0
1701619473.5298111,7.0,38.0,-10.0,4.0,2.0,2.0,0.0,-4.0
1701619473.5298111,-15.0,-37.0,1.0,-13.0,-7.0,-6.0,-3.0,-11.0
1701619473.5298111,1.0,34.0,-16.0,-1.0,-1.0,-1.0,-2.0,8.0
1701619473.550228,-2.0,-8.0,-4.0,-2.0,-1.0,-2.0,-1.0,0.0
1701619473.550228,0.0,13.0,1.0,-3.0,-2.0,-1.0,-1.0,-2.0
1701619473.550228,7.0,-19.0,6.0,8.0,5.0,5.0,3.0,1.0
1701619473.550228,-8.0,-6.0,6.0,1.0,-3.0,-3.0,-5.0,-8.0
1701619473.5898106,15.0,14.0,15.0,9.0,6.0,4.0,6.0,10.0
1701619473.5898106,-10.0,10.0,-1.0,-9.0,-8.0,-8.0,-7.0,-9.0
1701619473.5898106,10.0,12.0,1.0,4.0,1.0,0.0,1.0,7.0
1701619473.5898106,-1.0,-7.0,15.0,0.0,1.0,-1.0,-1.0,7.0
1701619473.5898106,-3.0,7.0,22.0,0.0,-1.0,0.0,-3.0,-10.0
1701619473.5898106,8.0,-5.0,6.0,7.0,4.0,4.0,3.0,-7.0
1701619473.5898106,-35.0,-2.0,-15.0,-4.0,-3.0,-3.0,-3.0,3.0
1701619473.5898106,14.0,47.0,34.0,3.0,2.0,1.0,1.0,0.0
1701619473.6101534,-11.0,-56.0,9.0,-3.0,-3.0,-2.0,-2.0,-1.0
1701619473.6101534,3.0,9.0,-20.0,-4.0,-3.0,-3.0,-1.0,-6.0
1701619473.6101534,-5.0,-32.0,-10.0,-5.0,-2.0,0.0,-1.0,1.0
1701619473.6101534,-4.0,-5.0,0.0,-2.0,-2.0,-2.0,1.0,-5.0
1701619473.6598108,2.0,49.0,-9.0,-2.0,-2.0,-1.0,-2.0,5.0
1701619473.6598108,-5.0,-26.0,36.0,1.0,0.0,-1.0,0.0,0.0
1701619473.6598108,1.0,4.0,-2.0,3.0,1.0,-1.0,-2.0,-7.0
1701619473.6598108,-2.0,-8.0,-7.0,-1.0,0.0,2.0,3.0,-8.0
1701619473.6598108,18.0,7.0,-21.0,0.0,0.0,-1.0,0.0,10.0
1701619473.6598108,3.0,-19.0,-15.0,0.0,0.0,0.0,-1.0,1.0
1701619473.6598108,3.0,16.0,-14.0,-2.0,1.0,-1.0,-1.0,1.0
1701619473.6598108,3.0,12.0,12.0,2.0,0.0,-1.0,-1.0,3.0
1701619473.669858,-4.0,-9.0,-14.0,-7.0,-4.0,0.0,-2.0,-7.0
1701619473.669858,-1.0,27.0,14.0,5.0,2.0,2.0,1.0,-3.0
1701619473.68022,10.0,25.0,-13.0,-4.0,-1.0,-3.0,-1.0,9.0
1701619473.68022,-2.0,-1.0,7.0,1.0,2.0,1.0,-2.0,-5.0
1701619473.699813,-2.0,-5.0,2.0,-3.0,-1.0,-1.0,-1.0,1.0
1701619473.699813,-5.0,-7.0,1.0,0.0,-2.0,-2.0,-2.0,1.0
1701619473.699813,7.0,15.0,4.0,-2.0,0.0,1.0,3.0,2.0
1701619473.699813,-4.0,-14.0,11.0,3.0,-1.0,-1.0,-3.0,1.0
1701619473.7099829,-5.0,-10.0,-24.0,-1.0,-1.0,0.0,0.0,2.0
1701619473.7099829,-14.0,-47.0,18.0,-11.0,-8.0,-6.0,-7.0,-14.0
1701619473.7099829,7.0,60.0,-5.0,-1.0,0.0,0.0,2.0,2.0
1701619473.7099829,-7.0,-19.0,0.0,0.0,-1.0,-4.0,-2.0,1.0
1701619473.730147,-13.0,-1.0,22.0,1.0,-2.0,-1.0,-3.0,3.0
1701619473.730147,11.0,-12.0,-36.0,-2.0,0.0,-2.0,-1.0,-8.0
1701619473.730147,15.0,7.0,24.0,0.0,-2.0,-1.0,-3.0,11.0
1701619473.730147,-13.0,-5.0,-28.0,-6.0,1.0,1.0,0.0,0.0
1701619473.749813,3.0,-12.0,7.0,-3.0,-2.0,-3.0,-3.0,0.0
1701619473.749813,-6.0,-26.0,-15.0,-2.0,0.0,-1.0,-1.0,2.0
1701619473.749813,-2.0,4.0,-7.0,2.0,0.0,0.0,-1.0,-5.0
1701619473.749813,1.0,-11.0,-16.0,-5.0,-2.0,-1.0,0.0,-1.0
1701619473.769812,-3.0,-15.0,-7.0,1.0,0.0,0.0,-1.0,-1.0
1701619473.769812,5.0,-4.0,6.0,4.0,1.0,2.0,0.0,-3.0
1701619473.769812,-27.0,-53.0,-16.0,-7.0,-5.0,-3.0,-3.0,4.0
1701619473.769812,9.0,1.0,2.0,-1.0,-3.0,-2.0,-3.0,-8.0
1701619473.7902572,-8.0,40.0,8.0,0.0,0.0,-2.0,1.0,-3.0
1701619473.7902572,-2.0,16.0,-18.0,-4.0,-2.0,1.0,0.0,2.0
1701619473.7902572,-11.0,-57.0,4.0,3.0,-2.0,-3.0,-1.0,-4.0
1701619473.7902572,0.0,-5.0,-9.0,-8.0,-4.0,-2.0,-2.0,4.0
1701619473.8099718,16.0,22.0,-40.0,-6.0,-3.0,0.0,-1.0,0.0
1701619473.8099718,1.0,20.0,4.0,0.0,0.0,-2.0,-1.0,-2.0
1701619473.8099718,-8.0,-22.0,13.0,2.0,-2.0,1.0,0.0,-8.0
1701619473.8099718,-1.0,16.0,14.0,-1.0,-1.0,-2.0,-3.0,0.0
1701619473.8307345,-3.0,-16.0,-17.0,-1.0,-3.0,-2.0,-3.0,-5.0
1701619473.8307345,4.0,10.0,7.0,-1.0,-1.0,-2.0,-1.0,5.0
1701619473.8307345,-2.0,20.0,5.0,1.0,-1.0,-2.0,-2.0,-5.0
1701619473.8307345,-6.0,6.0,-5.0,-1.0,-3.0,-4.0,0.0,0.0
1701619473.8507245,-5.0,-13.0,-2.0,-1.0,-2.0,1.0,-1.0,-1.0
1701619473.8507245,1.0,-15.0,7.0,1.0,0.0,0.0,-1.0,0.0
1701619473.8507245,9.0,22.0,-2.0,0.0,1.0,-2.0,-1.0,0.0
1701619473.8507245,-7.0,-7.0,-8.0,0.0,0.0,0.0,2.0,-1.0
1701619473.8703284,-1.0,-26.0,6.0,0.0,-1.0,-3.0,-2.0,-3.0
1701619473.8703284,-4.0,-35.0,-27.0,-3.0,0.0,0.0,0.0,2.0
1701619473.8703284,15.0,16.0,4.0,1.0,1.0,0.0,-1.0,4.0
1701619473.8703284,10.0,9.0,1.0,1.0,1.0,0.0,0.0,3.0
1701619473.8910336,-6.0,-27.0,14.0,-2.0,-1.0,-3.0,-2.0,-6.0
1701619473.8910336,-5.0,-22.0,-9.0,-2.0,-2.0,-1.0,-1.0,-4.0
1701619473.8969545,-3.0,5.0,5.0,1.0,0.0,-1.0,-1.0,-1.0
1701619473.8969545,7.0,23.0,-8.0,-2.0,-1.0,0.0,0.0,-3.0
1701619473.9130023,-13.0,-15.0,-7.0,-3.0,-2.0,-3.0,-3.0,-4.0
1701619473.9130023,6.0,54.0,15.0,1.0,0.0,1.0,-1.0,8.0
1701619473.9148471,-7.0,3.0,-5.0,0.0,1.0,-1.0,0.0,-5.0
1701619473.9148471,-2.0,-20.0,1.0,-3.0,-3.0,-3.0,-3.0,-11.0
1701619473.935966,-1.0,-12.0,-8.0,-1.0,2.0,1.0,2.0,7.0
1701619473.935966,4.0,-1.0,24.0,0.0,-3.0,-1.0,-1.0,-4.0
1701619473.935966,-5.0,-9.0,-44.0,-9.0,-4.0,0.0,1.0,-1.0
1701619473.935966,-6.0,-12.0,3.0,1.0,0.0,1.0,1.0,-2.0
1701619473.9462516,0.0,42.0,2.0,2.0,1.0,-1.0,1.0,2.0
1701619473.9462516,-1.0,-23.0,-20.0,-2.0,-1.0,-2.0,-1.0,4.0
1701619473.9562337,7.0,36.0,18.0,2.0,0.0,1.0,-1.0,0.0
1701619473.9562337,-3.0,8.0,7.0,-1.0,-3.0,-1.0,-1.0,1.0
1701619473.9662592,-7.0,-8.0,-2.0,0.0,-2.0,-1.0,0.0,-2.0
1701619473.9662592,-1.0,-1.0,21.0,4.0,1.0,0.0,0.0,-1.0
1701619473.9760234,-17.0,-18.0,-2.0,-2.0,-1.0,-1.0,-1.0,-8.0
1701619473.9760234,1.0,-6.0,-15.0,-1.0,0.0,-1.0,-2.0,11.0
1701619474.0059583,8.0,10.0,-1.0,-1.0,0.0,0.0,0.0,-1.0
1701619474.0059583,-8.0,5.0,7.0,-2.0,0.0,0.0,-2.0,-18.0
1701619474.0059583,2.0,-15.0,-3.0,-2.0,-2.0,-3.0,-3.0,15.0
1701619474.0059583,-25.0,-7.0,2.0,1.0,0.0,0.0,0.0,-7.0
1701619474.0059583,7.0,-5.0,-6.0,-2.0,-3.0,-2.0,-1.0,4.0
1701619474.0059583,-9.0,-12.0,-15.0,-4.0,-2.0,0.0,0.0,1.0
1701619474.0259569,1.0,2.0,1.0,-3.0,-1.0,-2.0,-5.0,-14.0
1701619474.0259569,12.0,-4.0,0.0,0.0,-3.0,-2.0,0.0,7.0
1701619474.0359554,4.0,-10.0,-9.0,-3.0,0.0,-1.0,-1.0,-9.0
1701619474.0359554,1.0,-2.0,-12.0,2.0,1.0,0.0,-2.0,-1.0
1701619474.0359554,-1.0,-25.0,-11.0,3.0,2.0,1.0,2.0,2.0
1701619474.0359554,2.0,20.0,13.0,-5.0,-4.0,-4.0,-4.0,7.0
1701619474.0559645,-6.0,-2.0,7.0,2.0,-1.0,-2.0,-2.0,-8.0
1701619474.0559645,4.0,4.0,8.0,0.0,1.0,-1.0,0.0,12.0
1701619474.0559645,-3.0,-20.0,-15.0,0.0,-1.0,-1.0,-2.0,-4.0
1701619474.0559645,6.0,-6.0,-4.0,-1.0,-1.0,1.0,1.0,-6.0
1701619474.0860116,-8.0,7.0,1.0,1.0,-3.0,0.0,-1.0,6.0
1701619474.0860116,-8.0,1.0,8.0,1.0,-2.0,-2.0,-2.0,-2.0
1701619474.0860116,16.0,15.0,6.0,1.0,0.0,0.0,1.0,1.0
1701619474.0860116,-9.0,-14.0,-5.0,-1.0,0.0,0.0,0.0,-4.0
1701619474.105956,0.0,-40.0,-1.0,-1.0,1.0,-3.0,-3.0,-5.0
1701619474.105956,8.0,20.0,-19.0,1.0,1.0,-1.0,-1.0,0.0
1701619474.105956,11.0,10.0,17.0,4.0,1.0,2.0,0.0,0.0
1701619474.105956,-11.0,19.0,10.0,5.0,1.0,-2.0,0.0,-10.0
1701619474.105956,1.0,-15.0,-23.0,-3.0,-4.0,0.0,-3.0,10.0
1701619474.105956,4.0,20.0,3.0,0.0,-2.0,-2.0,-2.0,-5.0
1701619474.1159966,-9.0,-9.0,1.0,-5.0,-2.0,-1.0,-1.0,1.0
1701619474.1159966,16.0,10.0,-7.0,-2.0,-1.0,1.0,1.0,1.0
1701619474.1363919,-20.0,23.0,19.0,-1.0,0.0,-2.0,0.0,5.0
1701619474.1363919,0.0,-17.0,12.0,0.0,1.0,-1.0,1.0,-2.0
1701619474.1363919,3.0,-7.0,-13.0,-2.0,-1.0,0.0,-2.0,-11.0
1701619474.1363919,-5.0,0.0,27.0,0.0,-2.0,-3.0,0.0,6.0
1701619474.1460147,8.0,-1.0,2.0,-3.0,-2.0,-2.0,-1.0,-10.0
1701619474.1460147,-10.0,-9.0,-5.0,-3.0,-1.0,-1.0,-1.0,-9.0
1701619474.1460147,-17.0,-3.0,-19.0,-4.0,-1.0,-1.0,-5.0,16.0
1701619474.1460147,17.0,-17.0,-9.0,0.0,0.0,-2.0,-2.0,-15.0
1701619474.1660144,-22.0,0.0,0.0,2.0,0.0,0.0,-2.0,3.0
1701619474.1660144,5.0,-7.0,2.0,-2.0,-2.0,2.0,1.0,-2.0
1701619474.176015,0.0,16.0,27.0,0.0,-4.0,-2.0,0.0,-13.0
1701619474.176015,5.0,-19.0,-17.0,-1.0,-1.0,-1.0,-3.0,0.0
1701619474.1964417,9.0,10.0,4.0,1.0,0.0,0.0,0.0,-7.0
1701619474.1964417,-6.0,8.0,1.0,0.0,0.0,-3.0,4.0,-6.0
1701619474.1964417,-14.0,11.0,2.0,-3.0,-1.0,-2.0,-2.0,27.0
1701619474.1964417,6.0,-5.0,-12.0,-4.0,-2.0,-1.0,-1.0,5.0
1701619474.206014,6.0,19.0,9.0,0.0,0.0,0.0,-3.0,-7.0
1701619474.206014,-3.0,-28.0,-24.0,-4.0,-2.0,-1.0,-3.0,-2.0
1701619474.206014,6.0,-4.0,-5.0,-2.0,-2.0,-3.0,1.0,-2.0
1701619474.206014,-5.0,1.0,-4.0,-6.0,-2.0,-3.0,-3.0,-19.0
1701619474.2264075,10.0,-4.0,-1.0,-3.0,0.0,-1.0,-2.0,4.0
1701619474.2264075,-32.0,2.0,5.0,-1.0,-1.0,-2.0,0.0,-4.0
1701619474.2360146,27.0,4.0,5.0,1.0,-2.0,0.0,0.0,-8.0
1701619474.2360146,-11.0,-4.0,-4.0,0.0,-2.0,1.0,0.0,15.0
1701619474.2560122,-1.0,0.0,-3.0,0.0,-1.0,0.0,2.0,-17.0
1701619474.2560122,16.0,10.0,2.0,0.0,-1.0,0.0,0.0,22.0
1701619474.2560122,-7.0,-7.0,-1.0,0.0,1.0,0.0,-4.0,-16.0
1701619474.2560122,-14.0,-3.0,0.0,-1.0,-1.0,-1.0,-1.0,9.0
1701619474.2661655,6.0,4.0,-4.0,-3.0,0.0,-2.0,1.0,2.0
1701619474.2661655,-6.0,-16.0,1.0,-1.0,0.0,-1.0,-1.0,-11.0
1701619474.2661655,2.0,5.0,9.0,2.0,0.0,-2.0,2.0,7.0
1701619474.2661655,-2.0,-8.0,-5.0,-5.0,-1.0,0.0,0.0,-6.0
1701619474.2963438,6.0,-5.0,-11.0,-1.0,0.0,2.0,1.0,11.0
1701619474.2963438,-4.0,12.0,12.0,0.0,-1.0,-2.0,-3.0,-36.0
1701619474.2963438,4.0,-2.0,-23.0,-7.0,-5.0,-5.0,-6.0,33.0
1701619474.2963438,3.0,5.0,1.0,6.0,4.0,1.0,-3.0,1.0
1701619474.3260171,-4.0,-3.0,7.0,3.0,-1.0,-1.0,-1.0,0.0
1701619474.3260171,3.0,-10.0,-16.0,-5.0,-3.0,-1.0,1.0,9.0
1701619474.3260171,-11.0,-2.0,-2.0,4.0,-1.0,0.0,2.0,-18.0
1701619474.3260171,19.0,11.0,-11.0,-7.0,-1.0,-2.0,-1.0,11.0
1701619474.3260171,-21.0,-9.0,3.0,-1.0,-1.0,-2.0,-1.0,13.0
1701619474.3260171,6.0,2.0,15.0,11.0,0.0,1.0,-5.0,-9.0
1701619474.3260171,-22.0,0.0,4.0,-8.0,-1.0,0.0,7.0,-3.0
1701619474.3260171,3.0,-6.0,-5.0,6.0,0.0,0.0,-14.0,-17.0
1701619474.3563526,17.0,1.0,1.0,3.0,-1.0,-1.0,-4.0,-5.0
1701619474.3563526,-1.0,-2.0,-1.0,-4.0,-2.0,-5.0,-3.0,10.0
1701619474.3563526,6.0,2.0,8.0,5.0,-1.0,2.0,3.0,-16.0
1701619474.3563526,1.0,-4.0,0.0,2.0,1.0,-3.0,0.0,-14.0
1701619474.3760118,-43.0,-21.0,-5.0,-8.0,-4.0,2.0,3.0,16.0
1701619474.3760118,3.0,5.0,2.0,1.0,0.0,0.0,-1.0,3.0
1701619474.3760118,-3.0,6.0,-2.0,4.0,-1.0,-2.0,-8.0,-5.0
1701619474.3760118,-9.0,-10.0,-1.0,-5.0,-2.0,0.0,2.0,-4.0
1701619474.38634,0.0,1.0,-8.0,-1.0,-2.0,-6.0,-6.0,-13.0
1701619474.38634,8.0,0.0,-8.0,-6.0,2.0,1.0,0.0,13.0
1701619474.38634,-11.0,1.0,6.0,0.0,-1.0,-2.0,1.0,-5.0
1701619474.38634,-1.0,-7.0,3.0,-2.0,-2.0,0.0,1.0,-4.0
1701619474.40622,8.0,5.0,-5.0,6.0,1.0,0.0,-1.0,-1.0
1701619474.40622,-5.0,-2.0,3.0,-11.0,-2.0,0.0,-2.0,-9.0
1701619474.416015,14.0,4.0,-2.0,1.0,0.0,-1.0,-2.0,2.0
1701619474.416015,-24.0,-2.0,5.0,3.0,-2.0,0.0,-1.0,2.0
1701619474.4380057,35.0,-1.0,-3.0,-3.0,-7.0,-3.0,-2.0,-13.0
1701619474.4380057,-3.0,-1.0,-6.0,-1.0,1.0,1.0,9.0,6.0
1701619474.4451227,-1.0,-3.0,-2.0,-2.0,1.0,-1.0,0.0,0.0
1701619474.4451227,1.0,0.0,-8.0,-6.0,0.0,1.0,1.0,3.0
1701619474.4486532,3.0,16.0,4.0,-4.0,3.0,1.0,0.0,-4.0
1701619474.4486532,13.0,-13.0,2.0,1.0,1.0,0.0,-1.0,-3.0
1701619474.4486532,-22.0,-13.0,17.0,7.0,-9.0,-6.0,-6.0,2.0
1701619474.4486532,5.0,2.0,10.0,0.0,0.0,0.0,2.0,0.0
1701619474.4694219,3.0,2.0,-5.0,13.0,-2.0,-3.0,-3.0,4.0
1701619474.4694219,-8.0,0.0,-5.0,-3.0,-4.0,-2.0,2.0,-9.0
1701619474.4694219,13.0,7.0,-3.0,-2.0,1.0,3.0,1.0,6.0
1701619474.4694219,-8.0,-2.0,2.0,2.0,-3.0,-3.0,6.0,-4.0
1701619474.4990387,-6.0,-6.0,-9.0,-12.0,-2.0,0.0,-5.0,-5.0
1701619474.4990387,-3.0,5.0,10.0,5.0,-1.0,1.0,-5.0,5.0
1701619474.4990387,11.0,-5.0,-7.0,-5.0,-3.0,-2.0,-1.0,2.0
1701619474.4990387,-2.0,1.0,-4.0,-4.0,-2.0,0.0,-1.0,1.0
1701619474.5093105,0.0,-2.0,0.0,-2.0,-1.0,-1.0,5.0,2.0
1701619474.5093105,-7.0,-3.0,-5.0,-1.0,-3.0,-1.0,-4.0,-20.0
1701619474.5193286,3.0,6.0,0.0,-3.0,1.0,-1.0,-1.0,7.0
1701619474.5193286,7.0,-1.0,-5.0,-3.0,-2.0,-1.0,-3.0,0.0
1701619474.5490432,-8.0,-2.0,5.0,-1.0,-2.0,0.0,2.0,0.0
1701619474.5490432,-3.0,0.0,3.0,1.0,-2.0,-2.0,-5.0,4.0
1701619474.5490432,-8.0,1.0,1.0,0.0,-1.0,1.0,-2.0,-7.0
1701619474.5490432,-2.0,-1.0,-1.0,-1.0,1.0,-1.0,6.0,0.0
1701619474.5490432,7.0,-5.0,0.0,-1.0,-2.0,-1.0,-3.0,4.0
1701619474.5490432,1.0,2.0,0.0,4.0,-1.0,1.0,1.0,2.0
1701619474.5490432,-9.0,-2.0,-10.0,-13.0,0.0,0.0,-5.0,-12.0
1701619474.5490432,3.0,0.0,-8.0,-8.0,-3.0,0.0,-4.0,12.0
1701619474.5794723,-1.0,6.0,7.0,3.0,0.0,-1.0,0.0,-17.0
1701619474.5794723,1.0,7.0,-1.0,-2.0,-1.0,-2.0,-1.0,3.0
1701619474.5794723,-8.0,-4.0,-3.0,-2.0,-1.0,0.0,-1.0,-2.0
1701619474.5794723,1.0,-5.0,-12.0,-1.0,1.0,1.0,-1.0,-1.0
1701619474.5990384,-10.0,-1.0,9.0,3.0,-1.0,-2.0,-2.0,-2.0
1701619474.5990384,4.0,6.0,-1.0,-2.0,-3.0,-2.0,-2.0,7.0
1701619474.5990384,-3.0,2.0,4.0,7.0,-1.0,0.0,2.0,-15.0
1701619474.5990384,-9.0,-9.0,2.0,0.0,-2.0,-1.0,-2.0,10.0
1701619474.6092741,0.0,-7.0,-11.0,-7.0,0.0,0.0,-2.0,-5.0
1701619474.6092741,-3.0,-6.0,-5.0,-1.0,1.0,1.0,1.0,-14.0
1701619474.6190443,-5.0,5.0,0.0,-2.0,-2.0,-3.0,-1.0,12.0
1701619474.6190443,12.0,-8.0,0.0,0.0,-3.0,-2.0,-4.0,-6.0
1701619474.6293087,-6.0,4.0,1.0,-3.0,-1.0,-2.0,0.0,6.0
1701619474.6293087,-5.0,3.0,-3.0,-2.0,2.0,0.0,-1.0,-3.0
1701619474.6293087,-1.0,-11.0,-3.0,-3.0,0.0,-3.0,0.0,-1.0
1701619474.6293087,-1.0,2.0,-1.0,-1.0,-2.0,-2.0,-5.0,-5.0
1701619474.6590385,-5.0,-7.0,0.0,-2.0,-1.0,-1.0,-1.0,3.0
1701619474.6590385,7.0,1.0,5.0,-1.0,-2.0,-1.0,0.0,8.0
1701619474.6590385,-3.0,1.0,-22.0,-6.0,-1.0,0.0,-1.0,2.0
1701619474.6590385,4.0,3.0,12.0,4.0,-3.0,-1.0,-2.0,-4.0
1701619474.6694114,0.0,2.0,-3.0,-6.0,-2.0,0.0,-2.0,-2.0
1701619474.6694114,-7.0,-15.0,2.0,0.0,-1.0,-1.0,-1.0,2.0
1701619474.6694114,2.0,-2.0,-1.0,-4.0,-1.0,-1.0,-2.0,-3.0
1701619474.6694114,-8.0,-4.0,-6.0,-2.0,0.0,-2.0,1.0,-1.0
1701619474.6894195,0.0,0.0,-1.0,-1.0,-1.0,0.0,-2.0,-5.0
1701619474.6894195,3.0,8.0,3.0,-1.0,-2.0,-3.0,-4.0,4.0
1701619474.6894195,-12.0,-13.0,-2.0,-1.0,0.0,1.0,-5.0,-7.0
1701619474.6894195,11.0,2.0,5.0,2.0,0.0,-1.0,0.0,9.0
1701619474.7190714,12.0,7.0,0.0,1.0,0.0,0.0,-1.0,-6.0
1701619474.7190714,1.0,-9.0,-3.0,-4.0,-2.0,-2.0,0.0,11.0
1701619474.7190714,13.0,6.0,0.0,-1.0,-1.0,-2.0,-1.0,-7.0
1701619474.7190714,-17.0,-3.0,-4.0,-1.0,-1.0,-1.0,1.0,-1.0
1701619474.7293117,3.0,-2.0,4.0,-1.0,-1.0,-1.0,-1.0,-2.0
1701619474.7293117,-4.0,-3.0,-6.0,-1.0,-1.0,0.0,1.0,-1.0
1701619474.7390442,-5.0,-4.0,-4.0,-1.0,-3.0,-1.0,-1.0,-3.0
1701619474.7390442,7.0,5.0,-2.0,-1.0,0.0,0.0,1.0,-9.0
1701619474.7493734,-5.0,-2.0,-1.0,1.0,1.0,1.0,0.0,8.0
1701619474.7493734,-4.0,2.0,10.0,0.0,-2.0,-3.0,-3.0,-2.0
1701619474.7493734,6.0,-2.0,-15.0,-3.0,-1.0,-2.0,-1.0,12.0
1701619474.7493734,-15.0,1.0,-12.0,-2.0,-1.0,-1.0,-2.0,-9.0
1701619474.7790391,-6.0,0.0,-2.0,-1.0,-2.0,-2.0,-1.0,-4.0
1701619474.7790391,0.0,-3.0,-5.0,0.0,1.0,0.0,-1.0,3.0
1701619474.7790391,6.0,6.0,16.0,3.0,1.0,-1.0,0.0,-2.0
1701619474.7790391,-3.0,-4.0,-12.0,-5.0,-1.0,-2.0,-1.0,1.0
1701619474.7893825,2.0,-2.0,-8.0,-2.0,-1.0,-1.0,1.0,2.0
1701619474.7893825,0.0,1.0,-4.0,-1.0,-2.0,0.0,-1.0,-3.0
1701619474.7893825,-8.0,2.0,4.0,0.0,-1.0,1.0,-1.0,-6.0
1701619474.7893825,1.0,-2.0,7.0,-1.0,-2.0,-1.0,0.0,4.0
1701619474.809478,-5.0,-3.0,-1.0,-3.0,-2.0,0.0,-3.0,-4.0
1701619474.809478,-2.0,1.0,3.0,0.0,0.0,-2.0,0.0,4.0
1701619474.809478,7.0,-2.0,-5.0,1.0,0.0,-1.0,-1.0,-16.0
1701619474.809478,0.0,-1.0,1.0,0.0,-2.0,-1.0,-2.0,11.0
1701619474.83904,-2.0,-4.0,-3.0,-2.0,0.0,-2.0,0.0,0.0
1701619474.83904,2.0,2.0,0.0,1.0,-1.0,-1.0,-1.0,-7.0
1701619474.83904,-10.0,-11.0,0.0,-1.0,-3.0,-2.0,-4.0,8.0
1701619474.83904,-1.0,1.0,1.0,1.0,1.0,-1.0,-1.0,-7.0
1701619474.849256,-12.0,4.0,-6.0,0.0,-2.0,-1.0,-2.0,-5.0
1701619474.849256,10.0,0.0,-2.0,-2.0,-1.0,-3.0,0.0,-1.0
1701619474.859046,13.0,0.0,11.0,-1.0,-3.0,-1.0,0.0,2.0
1701619474.859046,-13.0,-4.0,-13.0,-3.0,-2.0,0.0,0.0,-6.0
1701619474.8890378,-1.0,-1.0,0.0,0.0,-1.0,-1.0,0.0,1.0
1701619474.8890378,-6.0,-2.0,-6.0,-2.0,-2.0,-1.0,-2.0,-5.0
1701619474.8890378,2.0,3.0,6.0,1.0,0.0,0.0,-1.0,-1.0
1701619474.8890378,5.0,2.0,7.0,-2.0,-3.0,-3.0,-2.0,-1.0
1701619474.8890378,-5.0,-3.0,-1.0,-2.0,-1.0,-2.0,-2.0,-8.0
1701619474.8890378,-7.0,-1.0,-2.0,0.0,-2.0,0.0,1.0,1.0
1701619474.8890378,0.0,1.0,-3.0,-2.0,-2.0,-2.0,0.0,4.0
1701619474.8890378,7.0,2.0,6.0,2.0,0.0,3.0,-2.0,-2.0
1701619474.9093459,-11.0,-6.0,-2.0,-2.0,-1.0,-1.0,1.0,-1.0
1701619474.9093459,7.0,1.0,-2.0,1.0,-3.0,-2.0,-1.0,4.0
1701619474.9093459,-2.0,10.0,-2.0,2.0,1.0,1.0,0.0,-4.0
1701619474.9093459,-1.0,-8.0,-2.0,-2.0,-1.0,-3.0,0.0,-4.0
1701619474.9390392,-10.0,-7.0,2.0,2.0,0.0,-1.0,-1.0,3.0
1701619474.9390392,-5.0,1.0,-4.0,-2.0,0.0,1.0,-1.0,-8.0
1701619474.9390392,-3.0,-4.0,-4.0,-2.0,-1.0,1.0,0.0,0.0
1701619474.9390392,-9.0,16.0,10.0,3.0,-2.0,-1.0,0.0,-1.0
1701619474.9552376,30.0,-11.0,-5.0,-2.0,-3.0,-2.0,-2.0,-1.0
1701619474.9562597,-55.0,-12.0,-5.0,-2.0,-1.0,-5.0,-2.0,-7.0
1701619474.9562597,-19.0,-6.0,-1.0,-1.0,0.0,-2.0,0.0,0.0
1701619474.9562597,5.0,9.0,1.0,2.0,1.0,0.0,0.0,-1.0
1701619474.9781222,-9.0,4.0,0.0,-3.0,-1.0,-1.0,-1.0,1.0
1701619474.9781222,24.0,4.0,1.0,-2.0,0.0,-1.0,0.0,-1.0
1701619474.979119,-10.0,-8.0,0.0,0.0,-4.0,-2.0,-2.0,4.0
1701619474.979119,-6.0,-7.0,-5.0,-2.0,-3.0,-1.0,0.0,-1.0
1701619474.9918883,7.0,6.0,2.0,1.0,1.0,2.0,1.0,1.0
1701619474.9918883,-31.0,-1.0,-2.0,-2.0,-1.0,-1.0,-1.0,-1.0
1701619474.9918883,-11.0,4.0,-3.0,0.0,0.0,-1.0,1.0,-4.0
1701619474.9918883,2.0,-14.0,1.0,-2.0,1.0,-1.0,-3.0,-1.0
1701619475.0118165,-2.0,5.0,2.0,-2.0,0.0,0.0,-1.0,2.0
1701619475.0118165,42.0,0.0,-4.0,-1.0,-3.0,-1.0,0.0,0.0
1701619475.0118165,-17.0,-9.0,-1.0,-2.0,-1.0,-3.0,-2.0,-1.0
1701619475.0118165,5.0,10.0,1.0,-2.0,-2.0,-2.0,-1.0,1.0
1701619475.0321298,3.0,-8.0,1.0,0.0,0.0,-1.0,-1.0,-2.0
1701619475.0321298,11.0,11.0,1.0,-1.0,-1.0,0.0,-4.0,4.0
1701619475.0321298,11.0,-10.0,9.0,1.0,-1.0,1.0,-1.0,-6.0
1701619475.0321298,13.0,-2.0,-15.0,-4.0,0.0,-1.0,2.0,1.0
1701619475.0518265,-9.0,-10.0,-15.0,-3.0,-2.0,-1.0,-2.0,4.0
1701619475.0518265,10.0,6.0,4.0,-2.0,0.0,-2.0,1.0,0.0
1701619475.0518265,-14.0,-3.0,2.0,-3.0,1.0,-1.0,-1.0,-9.0
1701619475.0518265,-7.0,0.0,5.0,-1.0,-2.0,0.0,-1.0,-2.0
1701619475.0722017,-4.0,0.0,4.0,1.0,0.0,1.0,0.0,3.0
1701619475.0722017,4.0,-3.0,-6.0,-5.0,-1.0,0.0,-3.0,-5.0
1701619475.0722017,10.0,0.0,-6.0,-2.0,-2.0,2.0,-1.0,0.0
1701619475.0722017,-4.0,-8.0,-2.0,-2.0,-1.0,-2.0,-2.0,-3.0
1701619475.091818,-4.0,3.0,6.0,0.0,-2.0,-3.0,0.0,-14.0
1701619475.091818,1.0,-6.0,7.0,0.0,0.0,-2.0,2.0,24.0
1701619475.091818,-8.0,5.0,-15.0,-3.0,-2.0,0.0,-2.0,-12.0
1701619475.091818,-1.0,2.0,8.0,2.0,0.0,-1.0,-2.0,-5.0
1701619475.1120045,0.0,-1.0,0.0,-2.0,-2.0,-3.0,0.0,-4.0
1701619475.1120045,-19.0,-11.0,23.0,2.0,0.0,-3.0,-2.0,-6.0
1701619475.1120045,-1.0,12.0,-35.0,-6.0,-1.0,-1.0,0.0,1.0
1701619475.1120045,10.0,-23.0,1.0,1.0,-1.0,-1.0,2.0,1.0
1701619475.1318195,-10.0,42.0,34.0,0.0,-3.0,0.0,-3.0,-8.0
1701619475.1318195,-5.0,-20.0,-51.0,-5.0,-1.0,2.0,0.0,-5.0
1701619475.1318195,10.0,2.0,14.0,1.0,-1.0,-2.0,1.0,20.0
1701619475.1318195,-3.0,0.0,17.0,2.0,1.0,2.0,1.0,-2.0
1701619475.171818,4.0,18.0,-15.0,0.0,-1.0,0.0,-2.0,9.0
1701619475.171818,7.0,1.0,7.0,2.0,-1.0,-2.0,0.0,5.0
1701619475.171818,26.0,10.0,15.0,8.0,0.0,0.0,-2.0,-13.0
1701619475.171818,-3.0,-6.0,-11.0,-10.0,-1.0,-1.0,-2.0,2.0
1701619475.171818,3.0,-12.0,25.0,2.0,0.0,-1.0,0.0,0.0
1701619475.171818,4.0,11.0,-10.0,-2.0,0.0,2.0,1.0,3.0
1701619475.171818,10.0,-16.0,-4.0,2.0,0.0,-1.0,0.0,2.0
1701619475.171818,-4.0,4.0,6.0,1.0,-1.0,-2.0,-2.0,-4.0
1701619475.202411,6.0,-9.0,-9.0,-1.0,0.0,-1.0,0.0,-2.0
1701619475.202411,-13.0,-1.0,-9.0,-3.0,-3.0,-1.0,-4.0,-10.0
1701619475.202411,12.0,1.0,0.0,-2.0,-1.0,1.0,0.0,-5.0
1701619475.202411,5.0,4.0,3.0,1.0,0.0,3.0,-1.0,-10.0
1701619475.2223556,-7.0,-9.0,-24.0,-7.0,-4.0,-1.0,-2.0,1.0
1701619475.2223556,-10.0,0.0,11.0,-1.0,-6.0,-3.0,-1.0,-6.0
1701619475.2223556,-4.0,-17.0,-1.0,1.0,2.0,1.0,1.0,-3.0
1701619475.2223556,-34.0,7.0,-3.0,-3.0,-4.0,-3.0,-3.0,-6.0
1701619475.2323592,17.0,2.0,-2.0,4.0,-1.0,-2.0,0.0,2.0
1701619475.2323592,-3.0,26.0,2.0,1.0,0.0,-2.0,-1.0,-13.0
1701619475.242637,-25.0,-13.0,1.0,-4.0,-3.0,-4.0,-4.0,-4.0
1701619475.242637,11.0,12.0,-9.0,-4.0,-1.0,-2.0,-2.0,2.0
1701619475.2624476,-7.0,-19.0,-18.0,0.0,1.0,0.0,0.0,7.0
1701619475.2624476,9.0,7.0,35.0,5.0,-1.0,1.0,0.0,3.0
1701619475.2624476,9.0,15.0,-33.0,-9.0,-3.0,-3.0,-1.0,8.0
1701619475.2624476,-7.0,-5.0,-18.0,2.0,1.0,0.0,0.0,-3.0
1701619475.2726066,5.0,-26.0,7.0,-5.0,-4.0,-4.0,0.0,-5.0
1701619475.2726066,15.0,-7.0,-2.0,-1.0,0.0,0.0,1.0,5.0
1701619475.2823598,3.0,6.0,10.0,1.0,-2.0,-2.0,-3.0,-3.0
1701619475.2823598,1.0,3.0,4.0,0.0,-1.0,-1.0,2.0,0.0
1701619475.302358,3.0,4.0,-8.0,-2.0,-2.0,-2.0,-2.0,-4.0
1701619475.302358,-8.0,-18.0,-7.0,-2.0,0.0,0.0,0.0,0.0
1701619475.302358,-3.0,-15.0,3.0,-1.0,-1.0,0.0,1.0,7.0
1701619475.302358,7.0,6.0,-5.0,-1.0,-1.0,-1.0,1.0,-5.0
1701619475.3223562,1.0,7.0,0.0,0.0,0.0,-2.0,0.0,-2.0
1701619475.3223562,5.0,7.0,0.0,-2.0,0.0,-2.0,-2.0,14.0
1701619475.3223562,-32.0,7.0,6.0,0.0,0.0,-1.0,-1.0,0.0
1701619475.3223562,2.0,0.0,2.0,-1.0,-1.0,-2.0,-1.0,8.0
1701619475.3327012,26.0,18.0,18.0,1.0,0.0,2.0,-1.0,-13.0
1701619475.3327012,-42.0,3.0,-18.0,-4.0,-4.0,-3.0,-1.0,-2.0
1701619475.3327012,4.0,-7.0,21.0,-3.0,-2.0,-2.0,-3.0,-5.0
1701619475.3327012,1.0,-12.0,27.0,6.0,0.0,-1.0,-1.0,8.0
1701619475.352356,-15.0,-30.0,-86.0,-19.0,-6.0,-2.0,-2.0,-2.0
1701619475.352356,8.0,30.0,16.0,5.0,2.0,0.0,0.0,-13.0
1701619475.352356,9.0,1.0,4.0,-5.0,-4.0,-3.0,-2.0,27.0
1701619475.352356,1.0,-2.0,32.0,6.0,2.0,2.0,2.0,0.0
1701619475.3823545,-2.0,-21.0,-2.0,5.0,1.0,-1.0,-4.0,-3.0
1701619475.3823545,-1.0,-20.0,-26.0,-4.0,1.0,-2.0,-3.0,-10.0
1701619475.3823545,-32.0,-17.0,20.0,3.0,-1.0,-1.0,1.0,-5.0
1701619475.3823545,14.0,14.0,-38.0,-6.0,0.0,0.0,0.0,1.0
1701619475.3926806,-31.0,-1.0,26.0,0.0,0.0,0.0,0.0,7.0
1701619475.3926806,22.0,1.0,-3.0,1.0,0.0,-1.0,-2.0,4.0
1701619475.3926806,0.0,11.0,0.0,0.0,1.0,1.0,0.0,-9.0
1701619475.3926806,-20.0,13.0,-4.0,-2.0,-5.0,-4.0,-3.0,0.0
1701619475.4123993,1.0,11.0,-10.0,1.0,-3.0,-1.0,-2.0,-3.0
1701619475.4123993,-10.0,-32.0,2.0,1.0,-2.0,-1.0,0.0,-9.0
1701619475.4123993,20.0,42.0,19.0,1.0,1.0,2.0,1.0,-3.0
1701619475.4123993,6.0,-34.0,-2.0,-1.0,-1.0,1.0,-2.0,-5.0
1701619475.4323552,-2.0,-2.0,-12.0,-1.0,2.0,-1.0,2.0,2.0
1701619475.4323552,11.0,13.0,8.0,-1.0,0.0,0.0,1.0,5.0
1701619475.4323552,8.0,-5.0,0.0,2.0,-1.0,-2.0,-1.0,0.0
1701619475.4323552,-8.0,-19.0,-25.0,-3.0,0.0,-2.0,-2.0,-6.0
1701619475.452759,11.0,12.0,21.0,-2.0,-1.0,-2.0,1.0,3.0
1701619475.452759,-54.0,-10.0,-11.0,-5.0,-2.0,-1.0,-2.0,-4.0
1701619475.4626956,-5.0,8.0,-8.0,-4.0,-1.0,-2.0,-3.0,-15.0
1701619475.4626956,-5.0,-4.0,25.0,2.0,-1.0,-2.0,-1.0,-14.0
1701619475.4886215,-1.0,15.0,-22.0,-3.0,-1.0,-1.0,-1.0,24.0
1701619475.4886215,27.0,20.0,63.0,5.0,1.0,2.0,-2.0,-7.0
1701619475.4886215,10.0,3.0,-73.0,-11.0,-4.0,-2.0,-1.0,-3.0
1701619475.4886215,-7.0,-13.0,-22.0,-1.0,-1.0,0.0,1.0,-8.0
1701619475.4948678,12.0,3.0,19.0,4.0,3.0,1.0,1.0,1.0
1701619475.4948678,-4.0,-18.0,-8.0,-5.0,-2.0,-3.0,1.0,3.0
1701619475.5025132,-9.0,-13.0,24.0,5.0,1.0,1.0,1.0,1.0
1701619475.5025132,16.0,11.0,1.0,-1.0,-3.0,-1.0,-2.0,3.0
1701619475.515685,-16.0,-4.0,-6.0,-2.0,-3.0,-1.0,-3.0,-8.0
1701619475.515685,17.0,-5.0,-8.0,1.0,-2.0,0.0,-1.0,1.0
1701619475.515685,-32.0,-15.0,-3.0,1.0,-1.0,1.0,0.0,-5.0
1701619475.515685,-1.0,-1.0,-14.0,-6.0,-3.0,-3.0,-2.0,5.0
1701619475.5459194,2.0,16.0,17.0,1.0,0.0,-1.0,-2.0,0.0
1701619475.5459194,0.0,-10.0,-7.0,-2.0,-1.0,0.0,-1.0,-2.0
1701619475.5459194,11.0,-5.0,-5.0,2.0,3.0,0.0,1.0,9.0
1701619475.5459194,-4.0,8.0,2.0,-3.0,-2.0,-1.0,0.0,-8.0
1701619475.5459194,-11.0,-12.0,9.0,0.0,0.0,-1.0,-1.0,-5.0
1701619475.5459194,3.0,4.0,-12.0,-3.0,-1.0,1.0,0.0,-2.0
1701619475.55592,15.0,1.0,0.0,-1.0,-1.0,0.0,1.0,8.0
1701619475.55592,-18.0,2.0,-3.0,0.0,1.0,0.0,-3.0,-19.0
1701619475.5761268,8.0,3.0,3.0,3.0,0.0,0.0,-1.0,24.0
1701619475.5761268,-1.0,-25.0,-15.0,-4.0,0.0,-1.0,-1.0,-2.0
1701619475.5761268,-22.0,0.0,9.0,0.0,-2.0,-1.0,-2.0,-3.0
1701619475.5761268,17.0,0.0,3.0,-1.0,0.0,-1.0,-2.0,-1.0
1701619475.6059186,-11.0,-3.0,5.0,-2.0,-1.0,0.0,-1.0,-14.0
1701619475.6059186,-10.0,14.0,-11.0,0.0,-2.0,-2.0,0.0,-9.0
1701619475.6059186,19.0,-1.0,2.0,2.0,1.0,0.0,0.0,13.0
1701619475.6059186,0.0,-2.0,14.0,1.0,0.0,1.0,1.0,3.0
1701619475.6059186,-6.0,-10.0,-21.0,-3.0,0.0,0.0,0.0,-6.0
1701619475.6059186,13.0,10.0,0.0,-2.0,-1.0,-1.0,0.0,3.0
1701619475.6159217,-12.0,-4.0,-2.0,0.0,-1.0,-1.0,0.0,-4.0
1701619475.6159217,-4.0,-2.0,-15.0,-5.0,-3.0,-1.0,-2.0,-16.0
1701619475.6363082,-5.0,-10.0,8.0,-3.0,-3.0,-2.0,0.0,14.0
1701619475.6363082,5.0,3.0,8.0,3.0,1.0,1.0,-2.0,-3.0
1701619475.6363082,13.0,3.0,-7.0,1.0,-1.0,-1.0,-1.0,-6.0
1701619475.6363082,-8.0,-4.0,-7.0,-2.0,-1.0,1.0,-2.0,9.0
1701619475.6562004,2.0,0.0,12.0,1.0,-2.0,0.0,-1.0,-13.0
1701619475.6562004,0.0,-6.0,-10.0,-3.0,1.0,1.0,-3.0,1.0
1701619475.6562004,3.0,1.0,-7.0,-1.0,-1.0,-2.0,-1.0,-5.0
1701619475.6562004,-1.0,-4.0,2.0,-1.0,-1.0,-1.0,0.0,6.0
1701619475.6859176,1.0,-27.0,11.0,1.0,0.0,0.0,1.0,-7.0
1701619475.6859176,-15.0,9.0,-31.0,-11.0,-6.0,-3.0,-3.0,0.0
1701619475.6859176,10.0,18.0,-15.0,-4.0,-1.0,0.0,0.0,-5.0
1701619475.6859176,12.0,2.0,24.0,4.0,3.0,1.0,0.0,10.0
1701619475.696299,-3.0,14.0,-2.0,-4.0,-2.0,-2.0,-3.0,-8.0
1701619475.696299,-6.0,-10.0,16.0,5.0,1.0,0.0,0.0,15.0
1701619475.696299,-10.0,1.0,2.0,-2.0,0.0,0.0,1.0,-24.0
1701619475.696299,28.0,-4.0,-11.0,-8.0,-5.0,-2.0,-3.0,18.0
1701619475.7159529,-29.0,5.0,-3.0,2.0,3.0,0.0,0.0,-3.0
1701619475.7159529,-1.0,-15.0,2.0,1.0,0.0,0.0,0.0,-9.0
1701619475.7159529,4.0,-8.0,-8.0,-4.0,-2.0,-2.0,-1.0,0.0
1701619475.7159529,10.0,33.0,19.0,-2.0,-3.0,-4.0,-2.0,1.0
1701619475.7359746,-29.0,11.0,0.0,-1.0,0.0,1.0,-2.0,-10.0
1701619475.7359746,3.0,-40.0,-14.0,-5.0,-3.0,-4.0,0.0,-3.0
1701619475.7359746,0.0,-18.0,-5.0,-2.0,-1.0,0.0,-1.0,0.0
1701619475.7359746,-20.0,-41.0,-6.0,-1.0,0.0,-1.0,1.0,14.0
1701619475.7563398,24.0,42.0,-21.0,-5.0,-2.0,0.0,-2.0,4.0
1701619475.7563398,23.0,26.0,16.0,5.0,0.0,1.0,0.0,0.0
1701619475.7563398,-12.0,1.0,12.0,1.0,-1.0,1.0,-1.0,-3.0
1701619475.7563398,1.0,-9.0,-5.0,-5.0,-2.0,-2.0,-1.0,-3.0
1701619475.7759545,25.0,-22.0,-15.0,-3.0,-1.0,0.0,-1.0,-4.0
1701619475.7759545,-84.0,-5.0,10.0,-1.0,-4.0,-1.0,-6.0,-2.0
1701619475.7759545,18.0,-8.0,0.0,5.0,2.0,-2.0,2.0,12.0
1701619475.7759545,-13.0,12.0,-15.0,-8.0,0.0,-1.0,-2.0,-24.0
1701619475.7959237,-7.0,-12.0,3.0,-4.0,-2.0,-1.0,-1.0,3.0
1701619475.7959237,36.0,-3.0,-14.0,-2.0,-1.0,-1.0,-2.0,1.0
1701619475.7959237,-15.0,30.0,36.0,4.0,-1.0,-1.0,-1.0,1.0
1701619475.7959237,-9.0,-5.0,9.0,5.0,0.0,0.0,-1.0,1.0
1701619475.816251,12.0,3.0,-24.0,-9.0,-4.0,-2.0,-2.0,-13.0
1701619475.816251,-5.0,3.0,0.0,0.0,-3.0,-2.0,-1.0,9.0
1701619475.816251,8.0,12.0,15.0,2.0,2.0,1.0,0.0,-7.0
1701619475.816251,1.0,-6.0,9.0,2.0,0.0,-1.0,2.0,8.0
1701619475.8559287,11.0,-2.0,17.0,6.0,2.0,1.0,1.0,4.0
1701619475.8559287,-2.0,3.0,-9.0,-4.0,1.0,2.0,0.0,-4.0
1701619475.8559287,15.0,-11.0,-28.0,-8.0,-4.0,-3.0,-2.0,-1.0
1701619475.8559287,-6.0,2.0,46.0,8.0,3.0,1.0,0.0,7.0
1701619475.8559287,-12.0,-76.0,-85.0,-9.0,-5.0,-2.0,-1.0,-1.0
1701619475.8559287,-2.0,15.0,35.0,4.0,1.0,-2.0,0.0,-2.0
1701619475.8559287,-8.0,-13.0,8.0,0.0,-2.0,-4.0,-6.0,6.0
1701619475.8559287,-6.0,33.0,-23.0,-1.0,1.0,1.0,-2.0,-18.0
1701619475.8762321,-2.0,18.0,55.0,19.0,3.0,1.0,0.0,-5.0
1701619475.8762321,16.0,-18.0,-23.0,-11.0,-3.0,-1.0,0.0,13.0
1701619475.8762321,4.0,-56.0,-78.0,-14.0,-2.0,0.0,-1.0,-2.0
1701619475.8762321,-10.0,34.0,13.0,-1.0,-3.0,-2.0,-3.0,-5.0
1701619475.895919,-2.0,-16.0,13.0,1.0,-2.0,-1.0,-1.0,-1.0
1701619475.895919,9.0,-1.0,60.0,9.0,4.0,1.0,3.0,-5.0
1701619475.895919,-16.0,-7.0,-65.0,-8.0,-4.0,-2.0,-3.0,-7.0
1701619475.895919,4.0,8.0,27.0,4.0,-2.0,-1.0,0.0,1.0
1701619475.9162538,11.0,1.0,10.0,-14.0,-3.0,-2.0,-2.0,23.0
1701619475.9162538,-3.0,-5.0,-12.0,8.0,3.0,3.0,0.0,-4.0
1701619475.9362588,-5.0,21.0,22.0,-1.0,-1.0,-2.0,0.0,-12.0
1701619475.9362588,-22.0,-11.0,10.0,7.0,0.0,-4.0,-3.0,17.0
1701619475.9362588,-13.0,13.0,-31.0,-12.0,0.0,-1.0,3.0,22.0
1701619475.9362588,16.0,-1.0,12.0,2.0,-1.0,-2.0,-5.0,-15.0
1701619475.9362588,8.0,14.0,0.0,-2.0,1.0,1.0,-1.0,2.0
1701619475.9362588,-20.0,-19.0,-7.0,-8.0,-5.0,-2.0,-3.0,-8.0
1701619475.955921,17.0,44.0,36.0,13.0,3.0,0.0,3.0,-12.0
1701619475.9659176,8.0,12.0,-5.0,8.0,1.0,0.0,0.0,11.0
1701619475.9659176,4.0,-15.0,-14.0,-12.0,-4.0,-4.0,-2.0,-2.0
1701619475.9659176,-19.0,13.0,-19.0,0.0,-3.0,-1.0,-2.0,-2.0
1701619475.9659176,-4.0,-4.0,5.0,-4.0,2.0,-1.0,-1.0,-1.0
1701619475.9659176,-3.0,1.0,-31.0,-2.0,1.0,0.0,0.0,-6.0
1701619475.9762526,-1.0,-22.0,19.0,9.0,-3.0,-1.0,-3.0,-1.0
1701619475.9762526,25.0,45.0,10.0,-13.0,0.0,0.0,2.0,-9.0
1701619475.9959211,-30.0,-25.0,-27.0,-7.0,-4.0,-5.0,-6.0,5.0
1701619475.9959211,2.0,-14.0,-13.0,-7.0,-3.0,-3.0,0.0,-12.0
1701619475.9959211,8.0,13.0,-25.0,-9.0,-4.0,0.0,0.0,7.0
1701619475.9959211,3.0,-5.0,34.0,8.0,0.0,-1.0,-2.0,1.0
1701619476.0199964,-26.0,2.0,-14.0,6.0,3.0,1.0,-6.0,-33.0
1701619476.0199964,-1.0,2.0,47.0,-8.0,-4.0,-4.0,2.0,7.0
1701619476.0209973,6.0,-17.0,-61.0,-7.0,0.0,0.0,-3.0,-1.0
1701619476.0209973,10.0,-15.0,10.0,-3.0,-2.0,0.0,3.0,5.0
1701619476.03031,16.0,12.0,10.0,-3.0,-5.0,-5.0,-4.0,-8.0
1701619476.03031,-10.0,4.0,-13.0,-4.0,-1.0,-1.0,0.0,0.0
1701619476.0403113,-6.0,18.0,63.0,11.0,1.0,0.0,0.0,-5.0
1701619476.0403113,9.0,-10.0,-26.0,0.0,1.0,0.0,-1.0,-2.0
1701619476.0503163,12.0,-18.0,-6.0,1.0,-1.0,1.0,2.0,4.0
1701619476.0503163,-4.0,22.0,15.0,-7.0,-6.0,-4.0,-4.0,2.0
1701619476.0503163,-6.0,-9.0,18.0,6.0,0.0,-1.0,-2.0,0.0
1701619476.0503163,6.0,-89.0,-45.0,-13.0,-2.0,-2.0,-3.0,-6.0
1701619476.0803113,3.0,29.0,15.0,-1.0,-3.0,-1.0,0.0,6.0
1701619476.0803113,-14.0,-34.0,-25.0,0.0,0.0,0.0,-2.0,-6.0
1701619476.0803113,5.0,5.0,79.0,11.0,0.0,0.0,0.0,0.0
1701619476.0803113,-14.0,-67.0,-77.0,-17.0,-5.0,-5.0,-4.0,-2.0
1701619476.090546,-4.0,25.0,26.0,6.0,0.0,-2.0,-2.0,-10.0
1701619476.090546,-1.0,1.0,-21.0,-4.0,-2.0,-1.0,-2.0,-1.0
1701619476.110312,-11.0,2.0,38.0,7.0,0.0,0.0,1.0,2.0
1701619476.110312,14.0,14.0,-42.0,1.0,0.0,0.0,0.0,15.0
1701619476.110312,2.0,-20.0,-17.0,-7.0,-2.0,-1.0,0.0,1.0
1701619476.110312,4.0,19.0,1.0,0.0,-2.0,-1.0,-2.0,-8.0
1701619476.110312,9.0,-26.0,-12.0,-3.0,-1.0,-1.0,0.0,1.0
1701619476.110312,-7.0,68.0,18.0,2.0,-2.0,-2.0,1.0,9.0
1701619476.1403134,-4.0,-8.0,0.0,6.0,2.0,2.0,0.0,-8.0
1701619476.1403134,8.0,25.0,3.0,0.0,0.0,-1.0,-1.0,4.0
1701619476.1403134,4.0,-55.0,-25.0,-3.0,0.0,-1.0,-3.0,1.0
1701619476.1403134,-10.0,10.0,-48.0,-11.0,-4.0,-1.0,0.0,-1.0
1701619476.150385,-3.0,-33.0,0.0,7.0,-2.0,-1.0,-3.0,-2.0
1701619476.150385,5.0,-6.0,-61.0,-11.0,0.0,0.0,-1.0,4.0
1701619476.180309,-4.0,60.0,-9.0,-9.0,-4.0,-4.0,1.0,2.0
1701619476.180309,-6.0,1.0,40.0,11.0,2.0,2.0,1.0,-6.0
1701619476.180309,-38.0,-13.0,-9.0,-10.0,-4.0,-4.0,-4.0,-7.0
1701619476.180309,6.0,-17.0,16.0,8.0,1.0,2.0,0.0,6.0
1701619476.180309,3.0,-17.0,15.0,3.0,1.0,1.0,-1.0,-1.0
1701619476.180309,10.0,9.0,24.0,3.0,-1.0,-1.0,-2.0,1.0
1701619476.200341,18.0,40.0,27.0,5.0,1.0,1.0,4.0,4.0
1701619476.200341,-9.0,2.0,6.0,0.0,-1.0,-1.0,-1.0,-2.0
1701619476.200341,-13.0,5.0,-28.0,-11.0,-1.0,-1.0,-1.0,-1.0
1701619476.200341,19.0,-15.0,35.0,3.0,0.0,-2.0,-3.0,-6.0
1701619476.2203093,4.0,-23.0,-17.0,-4.0,-2.0,-2.0,1.0,10.0
1701619476.2203093,-7.0,4.0,7.0,-4.0,-2.0,-3.0,-3.0,-9.0
1701619476.2203093,4.0,26.0,7.0,3.0,0.0,0.0,-2.0,-14.0
1701619476.2203093,-1.0,11.0,33.0,10.0,4.0,1.0,0.0,-4.0
1701619476.2503178,-5.0,-16.0,-22.0,-8.0,-4.0,-2.0,0.0,21.0
1701619476.2503178,0.0,16.0,-8.0,-18.0,-4.0,-4.0,-3.0,-9.0
1701619476.2503178,5.0,21.0,-7.0,2.0,-1.0,0.0,1.0,-4.0
1701619476.2503178,-6.0,-26.0,8.0,0.0,1.0,0.0,0.0,-5.0
1701619476.2603126,-42.0,13.0,24.0,8.0,3.0,-2.0,-2.0,-16.0
1701619476.2603126,1.0,18.0,1.0,7.0,2.0,3.0,3.0,-11.0
1701619476.2603126,6.0,-3.0,12.0,-4.0,-2.0,-3.0,-3.0,22.0
1701619476.2603126,3.0,9.0,-26.0,-5.0,-4.0,-2.0,-1.0,-2.0
1701619476.2903104,13.0,-1.0,-17.0,-4.0,-2.0,-1.0,-1.0,-10.0
1701619476.2903104,-3.0,10.0,-13.0,2.0,-1.0,-2.0,-1.0,11.0
1701619476.2903104,-15.0,-25.0,32.0,6.0,4.0,1.0,0.0,-7.0
1701619476.2903104,-6.0,-15.0,-64.0,-12.0,-6.0,-4.0,-3.0,-5.0
1701619476.2903104,13.0,-14.0,11.0,0.0,2.0,2.0,2.0,-5.0
1701619476.2903104,-6.0,-27.0,-9.0,-2.0,-2.0,-2.0,-2.0,-3.0
1701619476.2903104,-2.0,29.0,37.0,6.0,2.0,0.0,0.0,1.0
1701619476.2903104,-8.0,8.0,-26.0,-6.0,-3.0,-1.0,-2.0,10.0
1701619476.3303142,13.0,-17.0,2.0,3.0,3.0,0.0,-2.0,-16.0
1701619476.3303142,-13.0,-5.0,4.0,-3.0,-1.0,-2.0,-1.0,4.0
1701619476.3403077,-4.0,6.0,-1.0,1.0,0.0,1.0,1.0,-4.0
1701619476.3403077,3.0,9.0,25.0,3.0,1.0,1.0,-1.0,-3.0
1701619476.3403077,8.0,-14.0,-32.0,-10.0,-4.0,-2.0,-2.0,3.0
1701619476.3403077,5.0,40.0,41.0,11.0,0.0,-2.0,-1.0,-2.0
1701619476.3403077,0.0,-57.0,-45.0,-5.0,1.0,1.0,0.0,1.0
1701619476.3403077,-7.0,2.0,15.0,5.0,1.0,0.0,-1.0,-10.0
1701619476.3505168,-17.0,0.0,10.0,-1.0,-2.0,-3.0,-4.0,-13.0
1701619476.3505168,-1.0,-16.0,27.0,1.0,0.0,-2.0,0.0,11.0
1701619476.3505168,16.0,5.0,-34.0,-10.0,-6.0,-2.0,2.0,-1.0
1701619476.3505168,-2.0,-16.0,1.0,3.0,0.0,1.0,5.0,-1.0
1701619476.40031,3.0,-1.0,11.0,3.0,1.0,1.0,-2.0,8.0
1701619476.40031,3.0,9.0,-15.0,-5.0,-2.0,0.0,-3.0,-9.0
1701619476.40031,-4.0,1.0,5.0,-3.0,-1.0,-2.0,0.0,-4.0
1701619476.40031,-11.0,-8.0,15.0,3.0,-1.0,0.0,1.0,2.0
1701619476.40031,-16.0,-16.0,-11.0,-5.0,-2.0,0.0,-2.0,-6.0
1701619476.40031,13.0,-7.0,6.0,2.0,-1.0,-1.0,0.0,1.0
1701619476.40031,-5.0,10.0,5.0,-2.0,-4.0,-1.0,-1.0,10.0
1701619476.40031,5.0,-9.0,13.0,-1.0,1.0,-2.0,0.0,-5.0
1701619476.4106753,4.0,11.0,-20.0,-4.0,-1.0,-3.0,-2.0,2.0
1701619476.4106753,7.0,4.0,1.0,-4.0,-3.0,-1.0,-3.0,3.0
1701619476.4106753,-30.0,-30.0,-7.0,-2.0,-1.0,-1.0,-3.0,-17.0
1701619476.4106753,21.0,18.0,15.0,4.0,-2.0,-4.0,-3.0,11.0
1701619476.44031,8.0,32.0,-6.0,-2.0,1.0,-1.0,-2.0,4.0
1701619476.44031,-3.0,-19.0,4.0,-1.0,0.0,0.0,-1.0,-2.0
1701619476.44031,-10.0,6.0,-13.0,1.0,-2.0,-3.0,0.0,-2.0
1701619476.44031,12.0,6.0,-8.0,-4.0,-2.0,0.0,2.0,11.0
1701619476.4603095,9.0,0.0,-8.0,-5.0,-3.0,-2.0,-1.0,-4.0
1701619476.4603095,3.0,0.0,1.0,3.0,1.0,-1.0,1.0,-1.0
1701619476.4603095,11.0,7.0,10.0,-3.0,-4.0,-1.0,-1.0,3.0
1701619476.4603095,-21.0,0.0,-15.0,-2.0,0.0,0.0,-3.0,-9.0
1701619476.4703429,-4.0,-27.0,7.0,1.0,-1.0,-2.0,-1.0,2.0
1701619476.4703429,-4.0,-12.0,-20.0,-1.0,2.0,2.0,1.0,4.0
1701619476.4703429,4.0,17.0,7.0,1.0,-1.0,-1.0,-1.0,-3.0
1701619476.4703429,4.0,-8.0,-44.0,-3.0,-2.0,-1.0,-1.0,-3.0
1701619476.5203087,10.0,45.0,45.0,7.0,-2.0,0.0,0.0,0.0
1701619476.5203087,-10.0,1.0,-21.0,-3.0,-1.0,1.0,-3.0,-1.0
1701619476.5203087,11.0,-20.0,7.0,4.0,2.0,1.0,1.0,3.0
1701619476.5203087,-11.0,55.0,-3.0,-7.0,-3.0,-2.0,-1.0,-6.0
1701619476.5203087,0.0,-17.0,12.0,1.0,0.0,0.0,1.0,-8.0
1701619476.5203087,-12.0,-40.0,-23.0,-1.0,1.0,0.0,0.0,-1.0
1701619476.5203087,9.0,18.0,-2.0,-1.0,0.0,0.0,-1.0,3.0
1701619476.5203087,0.0,1.0,19.0,0.0,1.0,-2.0,-3.0,-7.0
1701619476.530527,-5.0,-4.0,2.0,-1.0,-3.0,-2.0,-2.0,3.0
1701619476.530527,5.0,20.0,6.0,-3.0,-3.0,-1.0,0.0,-7.0
1701619476.530527,-19.0,-34.0,-19.0,-6.0,-1.0,-3.0,-2.0,5.0
1701619476.530527,1.0,-16.0,17.0,2.0,2.0,3.0,-1.0,-5.0
1701619476.561364,17.0,-9.0,-28.0,1.0,-3.0,-2.0,-1.0,2.0
1701619476.561364,-24.0,-8.0,-4.0,-6.0,-2.0,-2.0,0.0,-1.0
1701619476.561364,-7.0,20.0,29.0,3.0,1.0,0.0,-1.0,-3.0
1701619476.561364,-4.0,-45.0,-3.0,-2.0,1.0,-1.0,0.0,2.0
1701619476.5834055,-4.0,11.0,10.0,3.0,2.0,0.0,2.0,6.0
1701619476.5834055,10.0,32.0,-7.0,-1.0,-3.0,-1.0,0.0,3.0
1701619476.5834055,-10.0,-24.0,-11.0,-3.0,-2.0,-2.0,-2.0,-3.0
1701619476.5834055,-1.0,5.0,-17.0,-6.0,-5.0,-3.0,-1.0,-2.0
1701619476.5935757,0.0,6.0,13.0,-2.0,-4.0,-3.0,-2.0,-3.0
1701619476.5935757,-16.0,-22.0,-24.0,0.0,-1.0,-3.0,0.0,-4.0
1701619476.613169,-2.0,56.0,19.0,0.0,-1.0,-1.0,-1.0,-3.0
1701619476.613169,3.0,-7.0,-15.0,0.0,-1.0,-2.0,-3.0,-2.0
1701619476.613169,3.0,21.0,13.0,-1.0,-2.0,-2.0,-1.0,3.0
1701619476.613169,-4.0,-37.0,-30.0,-6.0,-3.0,-2.0,-1.0,-3.0
1701619476.613169,7.0,8.0,-7.0,-2.0,-1.0,-1.0,-3.0,-3.0
1701619476.613169,-4.0,-1.0,3.0,-1.0,-3.0,-2.0,-2.0,-1.0
1701619476.6435852,-4.0,11.0,8.0,-1.0,-1.0,0.0,-1.0,2.0
1701619476.6435852,3.0,-3.0,21.0,4.0,1.0,-1.0,1.0,1.0
1701619476.6435852,0.0,-5.0,-6.0,0.0,1.0,0.0,1.0,-7.0
1701619476.6435852,0.0,-8.0,2.0,1.0,1.0,0.0,0.0,0.0
1701619476.6731687,-10.0,-8.0,-9.0,-1.0,-1.0,1.0,-1.0,5.0
1701619476.6731687,-5.0,11.0,34.0,0.0,-2.0,-3.0,-4.0,-19.0
1701619476.6731687,7.0,-20.0,-38.0,-9.0,-5.0,-5.0,-3.0,33.0
1701619476.6731687,29.0,28.0,20.0,6.0,3.0,2.0,-6.0,-11.0
1701619476.6731687,-36.0,-54.0,-4.0,-3.0,-2.0,-3.0,-3.0,3.0
1701619476.6731687,4.0,-4.0,16.0,6.0,3.0,0.0,-2.0,-10.0
1701619476.6731687,1.0,30.0,15.0,-6.0,-6.0,0.0,3.0,-16.0
1701619476.6731687,-17.0,-17.0,14.0,-2.0,-1.0,-3.0,-1.0,8.0
1701619476.6935067,23.0,10.0,1.0,-1.0,-1.0,-6.0,-19.0,-5.0
1701619476.6935067,-18.0,-17.0,0.0,-1.0,-1.0,1.0,12.0,5.0
1701619476.7131732,8.0,6.0,8.0,2.0,1.0,2.0,15.0,3.0
1701619476.7131732,5.0,6.0,-27.0,-8.0,-2.0,-2.0,1.0,-5.0
1701619476.7131732,10.0,-27.0,15.0,3.0,2.0,4.0,6.0,-8.0
1701619476.7131732,-20.0,8.0,-2.0,-11.0,-7.0,-7.0,-12.0,4.0
1701619476.7231734,12.0,-1.0,-6.0,4.0,1.0,0.0,-5.0,-4.0
1701619476.7231734,7.0,23.0,-2.0,4.0,-1.0,1.0,2.0,-3.0
1701619476.7331727,-18.0,-3.0,-15.0,1.0,1.0,-2.0,-9.0,-11.0
1701619476.7331727,23.0,-15.0,-1.0,5.0,1.0,3.0,2.0,12.0
1701619476.7331727,-31.0,-10.0,4.0,-2.0,0.0,1.0,-4.0,-15.0
1701619476.7331727,1.0,-7.0,11.0,1.0,-1.0,-1.0,-3.0,-3.0
1701619476.7632735,9.0,12.0,-5.0,-8.0,-4.0,0.0,4.0,-11.0
1701619476.7632735,15.0,13.0,3.0,3.0,0.0,0.0,5.0,8.0
1701619476.7632735,-25.0,-16.0,-8.0,-3.0,-4.0,-5.0,-12.0,-10.0
1701619476.7632735,-11.0,-17.0,-20.0,-3.0,-1.0,-1.0,-3.0,-5.0
1701619476.7731686,2.0,18.0,-6.0,-5.0,-3.0,-3.0,5.0,5.0
1701619476.7731686,1.0,-2.0,-5.0,-1.0,-1.0,-1.0,5.0,9.0
1701619476.7831757,20.0,25.0,2.0,3.0,1.0,1.0,-7.0,-3.0
1701619476.7831757,-9.0,-25.0,17.0,1.0,1.0,-1.0,-2.0,-5.0
1701619476.793456,-12.0,-15.0,-5.0,2.0,1.0,2.0,7.0,-1.0
1701619476.793456,10.0,-1.0,-16.0,-19.0,-4.0,-2.0,-6.0,16.0
1701619476.793456,1.0,8.0,7.0,2.0,0.0,2.0,7.0,-6.0
1701619476.793456,-12.0,-4.0,-11.0,-5.0,-4.0,-3.0,0.0,5.0
1701619476.823264,1.0,-4.0,10.0,11.0,1.0,2.0,3.0,2.0
1701619476.823264,9.0,-4.0,-10.0,2.0,2.0,0.0,-9.0,-18.0
1701619476.823264,-13.0,-10.0,3.0,-9.0,-1.0,-2.0,1.0,4.0
1701619476.823264,13.0,22.0,15.0,-1.0,-4.0,1.0,2.0,6.0
1701619476.85317,-8.0,5.0,-9.0,-5.0,-2.0,0.0,-2.0,0.0
1701619476.85317,8.0,-6.0,2.0,9.0,1.0,0.0,-4.0,-9.0
1701619476.85317,7.0,2.0,-4.0,-3.0,-3.0,-4.0,-3.0,1.0
1701619476.85317,-16.0,-5.0,-1.0,4.0,1.0,1.0,2.0,0.0
1701619476.863218,3.0,4.0,-1.0,-6.0,0.0,-2.0,-4.0,0.0
1701619476.863218,-8.0,-2.0,-9.0,-4.0,-3.0,-3.0,-4.0,-16.0
1701619476.863218,4.0,-9.0,1.0,-1.0,0.0,-2.0,-3.0,-1.0
1701619476.863218,-1.0,-4.0,3.0,5.0,1.0,-2.0,-2.0,0.0
1701619476.8831744,6.0,5.0,-11.0,-11.0,-2.0,1.0,1.0,4.0
1701619476.8831744,-7.0,2.0,0.0,1.0,-1.0,-1.0,-2.0,-2.0
1701619476.8831744,-1.0,-3.0,9.0,3.0,0.0,-1.0,-1.0,2.0
1701619476.8831744,-2.0,-4.0,-5.0,2.0,-2.0,-2.0,0.0,-2.0
1701619476.9031749,0.0,4.0,-8.0,-2.0,-1.0,-2.0,-2.0,1.0
1701619476.9031749,1.0,4.0,5.0,-2.0,-1.0,-3.0,1.0,-1.0
1701619476.9031749,-1.0,-3.0,-1.0,1.0,1.0,0.0,0.0,-5.0
1701619476.9031749,-5.0,0.0,-7.0,-9.0,-2.0,-2.0,-2.0,0.0
1701619476.9132035,6.0,-1.0,-3.0,2.0,-1.0,0.0,-1.0,-3.0
1701619476.9132035,-5.0,-3.0,2.0,-1.0,-3.0,-1.0,0.0,-2.0
1701619476.9132035,-2.0,-4.0,2.0,3.0,-1.0,0.0,-3.0,1.0
1701619476.9132035,-3.0,-2.0,-6.0,2.0,1.0,0.0,0.0,-1.0
1701619476.953169,2.0,4.0,-2.0,-8.0,-2.0,-3.0,-2.0,0.0
1701619476.953169,-4.0,0.0,-2.0,0.0,1.0,-1.0,0.0,0.0
1701619476.953169,-4.0,-4.0,-3.0,1.0,-3.0,-3.0,0.0,1.0
1701619476.953169,1.0,-1.0,-2.0,-4.0,-4.0,-3.0,-1.0,5.0
1701619476.953169,3.0,2.0,3.0,7.0,1.0,-1.0,0.0,-11.0
1701619476.953169,-2.0,6.0,2.0,-3.0,0.0,0.0,1.0,-2.0
1701619476.9632041,-1.0,-6.0,-3.0,-2.0,0.0,0.0,0.0,-1.0
1701619476.9632041,-1.0,-1.0,6.0,0.0,-2.0,0.0,0.0,-2.0
1701619476.9733586,-5.0,-2.0,-6.0,3.0,-2.0,-2.0,0.0,4.0
1701619476.9733586,1.0,3.0,2.0,0.0,0.0,0.0,-1.0,-1.0
1701619476.9733586,-2.0,0.0,-2.0,3.0,0.0,-1.0,-1.0,-4.0
1701619476.9733586,1.0,-3.0,-3.0,-2.0,1.0,0.0,-2.0,-12.0
1701619477.0031686,-13.0,-3.0,-1.0,-8.0,-4.0,-5.0,-1.0,19.0
1701619477.0031686,14.0,1.0,4.0,7.0,1.0,1.0,1.0,7.0
1701619477.0031686,4.0,1.0,-5.0,-6.0,-1.0,1.0,-3.0,-12.0
1701619477.0031686,2.0,0.0,2.0,0.0,-1.0,-4.0,0.0,5.0
1701619477.0134346,0.0,-1.0,4.0,-3.0,-2.0,-2.0,-1.0,-2.0
1701619477.0134346,-5.0,-2.0,-5.0,-1.0,1.0,-1.0,0.0,2.0
1701619477.0234604,-3.0,0.0,-4.0,-10.0,-1.0,-2.0,-3.0,4.0
1701619477.0234604,-1.0,-2.0,-5.0,-5.0,-2.0,-1.0,0.0,-1.0
1701619477.033465,0.0,-2.0,-5.0,0.0,2.0,1.0,0.0,-6.0
1701619477.033465,-4.0,-1.0,2.0,3.0,-1.0,-1.0,-3.0,4.0
1701619477.033465,-5.0,-2.0,-8.0,-2.0,-3.0,1.0,2.0,0.0
1701619477.033465,3.0,2.0,4.0,7.0,0.0,-1.0,-3.0,-7.0
1701619477.063169,-2.0,2.0,0.0,3.0,2.0,1.0,0.0,2.0
1701619477.063169,-8.0,-6.0,-2.0,-10.0,-2.0,-3.0,-4.0,-9.0
1701619477.063169,-7.0,-6.0,-3.0,1.0,-4.0,-2.0,-1.0,-8.0
1701619477.063169,-3.0,1.0,-1.0,-3.0,-1.0,-1.0,0.0,-13.0
1701619477.0769432,5.0,0.0,0.0,7.0,0.0,1.0,-2.0,4.0
1701619477.077973,16.0,1.0,-6.0,-4.0,-1.0,-1.0,0.0,-1.0
1701619477.0852783,-28.0,-3.0,1.0,-1.0,-2.0,-3.0,-2.0,7.0
1701619477.0863001,1.0,-2.0,-5.0,-4.0,-2.0,1.0,-2.0,0.0
1701619477.0965197,3.0,2.0,-2.0,0.0,0.0,0.0,3.0,-5.0
1701619477.0965197,-6.0,0.0,-1.0,4.0,-1.0,0.0,-3.0,-10.0
1701619477.0965197,12.0,-1.0,4.0,1.0,1.0,-1.0,-1.0,4.0
1701619477.0965197,-7.0,-2.0,-2.0,-2.0,-3.0,-4.0,-1.0,2.0
1701619477.1365151,10.0,3.0,2.0,-1.0,1.0,0.0,-1.0,9.0
1701619477.1365151,-7.0,-3.0,1.0,-1.0,-2.0,1.0,1.0,-1.0
1701619477.1365151,0.0,-1.0,0.0,2.0,-1.0,-2.0,-1.0,2.0
1701619477.1365151,-3.0,-1.0,-2.0,-3.0,-2.0,-1.0,-1.0,-6.0
1701619477.1365151,0.0,-3.0,-1.0,-4.0,-1.0,-3.0,-4.0,9.0
1701619477.1365151,-2.0,-3.0,-3.0,-2.0,-3.0,-2.0,-2.0,0.0
1701619477.1365151,4.0,1.0,2.0,3.0,2.0,-1.0,-3.0,0.0
1701619477.1365151,-2.0,-4.0,-2.0,-1.0,-1.0,1.0,-2.0,-1.0
1701619477.176515,-6.0,-2.0,-2.0,-4.0,0.0,-1.0,-1.0,-21.0
1701619477.176515,2.0,3.0,10.0,4.0,1.0,0.0,-2.0,5.0
1701619477.176515,0.0,-5.0,-14.0,-5.0,-1.0,-1.0,0.0,0.0
1701619477.176515,-2.0,-8.0,-6.0,-1.0,-1.0,-1.0,0.0,0.0
1701619477.1868544,-7.0,-2.0,-2.0,-2.0,-3.0,-2.0,-1.0,-4.0
1701619477.1868544,-4.0,1.0,3.0,0.0,-2.0,0.0,1.0,3.0
1701619477.1868544,-16.0,1.0,3.0,1.0,-1.0,0.0,-1.0,-6.0
1701619477.1868544,-6.0,-1.0,-2.0,-3.0,1.0,-3.0,2.0,5.0
1701619477.1968448,14.0,1.0,-1.0,-3.0,-2.0,0.0,-4.0,-3.0
1701619477.1968448,-6.0,-1.0,2.0,-1.0,0.0,-2.0,-1.0,-2.0
1701619477.1968448,6.0,-3.0,-15.0,-3.0,-3.0,-1.0,-2.0,-3.0
1701619477.1968448,0.0,0.0,-4.0,1.0,0.0,1.0,-1.0,9.0
1701619477.2265165,-9.0,-2.0,3.0,0.0,0.0,1.0,-1.0,-2.0
1701619477.2265165,0.0,0.0,4.0,-1.0,-1.0,-2.0,-2.0,-4.0
1701619477.2265165,6.0,0.0,5.0,-1.0,0.0,-1.0,-1.0,2.0
1701619477.2265165,0.0,4.0,0.0,0.0,0.0,-2.0,1.0,-1.0
1701619477.236725,-3.0,-8.0,-4.0,-3.0,-3.0,-1.0,-2.0,-10.0
1701619477.236725,3.0,1.0,0.0,-2.0,-1.0,0.0,0.0,2.0
1701619477.236725,-15.0,-3.0,3.0,0.0,-1.0,-1.0,-3.0,8.0
1701619477.236725,27.0,3.0,2.0,2.0,1.0,0.0,-2.0,-8.0
1701619477.2568219,-9.0,-1.0,4.0,2.0,0.0,-2.0,-1.0,4.0
1701619477.2568219,-7.0,-2.0,-3.0,0.0,-1.0,0.0,1.0,-10.0
1701619477.266521,2.0,-2.0,-1.0,1.0,-1.0,-2.0,-1.0,-7.0
1701619477.266521,4.0,2.0,12.0,3.0,-1.0,-2.0,-2.0,15.0
1701619477.2965171,0.0,0.0,-15.0,-2.0,0.0,-1.0,-1.0,1.0
1701619477.2965171,0.0,0.0,-5.0,2.0,-1.0,-3.0,-2.0,-4.0
1701619477.2965171,5.0,-3.0,0.0,-7.0,1.0,1.0,0.0,2.0
1701619477.2965171,-17.0,-6.0,2.0,-3.0,-1.0,-2.0,-1.0,-8.0
1701619477.2965171,13.0,2.0,3.0,0.0,0.0,-1.0,1.0,9.0
1701619477.2965171,-3.0,-2.0,2.0,0.0,1.0,0.0,0.0,7.0
1701619477.2965171,-1.0,-2.0,-11.0,-2.0,-3.0,0.0,1.0,-16.0
1701619477.2965171,1.0,0.0,-5.0,-4.0,-1.0,0.0,-1.0,19.0
1701619477.3265212,4.0,2.0,0.0,0.0,-2.0,0.0,-1.0,0.0
1701619477.3265212,-8.0,0.0,-4.0,-4.0,-1.0,1.0,0.0,-9.0
1701619477.3265212,1.0,-3.0,5.0,0.0,-1.0,-2.0,-2.0,5.0
1701619477.3265212,-8.0,-11.0,-3.0,-2.0,0.0,0.0,-2.0,-10.0
1701619477.3565202,-5.0,0.0,-2.0,-2.0,-2.0,0.0,0.0,-2.0
1701619477.3565202,3.0,-1.0,0.0,0.0,-1.0,-2.0,-4.0,-6.0
1701619477.3565202,8.0,7.0,2.0,0.0,0.0,-1.0,-2.0,-2.0
1701619477.3565202,-18.0,5.0,-5.0,-3.0,-2.0,0.0,-2.0,-3.0
1701619477.3565202,12.0,-7.0,2.0,0.0,1.0,1.0,-2.0,-3.0
1701619477.3565202,-28.0,-9.0,-6.0,-3.0,-2.0,-2.0,-1.0,0.0
1701619477.3565202,2.0,-2.0,0.0,0.0,0.0,0.0,0.0,-4.0
1701619477.3565202,2.0,-2.0,-2.0,-3.0,-1.0,-2.0,0.0,5.0
1701619477.3865168,1.0,4.0,4.0,3.0,-2.0,-1.0,0.0,-7.0
1701619477.3865168,3.0,0.0,2.0,-2.0,-1.0,0.0,-1.0,0.0
1701619477.3865168,-1.0,-1.0,-2.0,-1.0,-2.0,-2.0,-1.0,0.0
1701619477.3865168,0.0,-1.0,1.0,-1.0,0.0,0.0,-1.0,-1.0
1701619477.396551,-10.0,0.0,-3.0,-1.0,-2.0,-3.0,-1.0,-4.0
1701619477.396551,6.0,2.0,0.0,0.0,-2.0,0.0,-2.0,4.0
1701619477.396551,0.0,-1.0,3.0,0.0,0.0,0.0,-1.0,3.0
1701619477.396551,7.0,-1.0,-5.0,0.0,-1.0,-1.0,-2.0,-8.0
1701619477.41679,-12.0,-2.0,1.0,-3.0,-3.0,-1.0,-1.0,1.0
1701619477.41679,5.0,0.0,-5.0,-1.0,0.0,0.0,1.0,0.0
1701619477.426556,5.0,2.0,2.0,-1.0,-2.0,-2.0,0.0,0.0
1701619477.426556,-4.0,-2.0,-3.0,-2.0,0.0,0.0,-1.0,-4.0
1701619477.4465172,-3.0,-5.0,-3.0,-2.0,-2.0,0.0,-3.0,-2.0
1701619477.4465172,0.0,0.0,-2.0,0.0,-1.0,0.0,1.0,0.0
1701619477.4465172,-2.0,1.0,-1.0,-1.0,-1.0,-2.0,-1.0,1.0
1701619477.4465172,-2.0,-4.0,-1.0,-3.0,-3.0,-3.0,-1.0,-2.0
1701619477.4565547,-3.0,-3.0,-3.0,-2.0,0.0,-2.0,-3.0,0.0
1701619477.4565547,9.0,3.0,-3.0,-1.0,-1.0,0.0,-1.0,-1.0
1701619477.4565547,-1.0,-5.0,0.0,0.0,0.0,-1.0,0.0,4.0
1701619477.4565547,-12.0,3.0,0.0,-2.0,-1.0,-2.0,-1.0,0.0
1701619477.4768987,0.0,0.0,-1.0,0.0,0.0,0.0,-2.0,-14.0
1701619477.4768987,1.0,0.0,-1.0,-2.0,0.0,-1.0,0.0,0.0
1701619477.4768987,-1.0,0.0,-3.0,-1.0,-1.0,0.0,-3.0,-3.0
1701619477.4768987,-1.0,-1.0,1.0,-1.0,1.0,0.0,-1.0,0.0
1701619477.5065162,-5.0,-1.0,-2.0,0.0,0.0,-1.0,1.0,3.0
1701619477.5065162,-3.0,-2.0,-1.0,-3.0,-2.0,-1.0,0.0,-5.0
1701619477.5065162,0.0,1.0,1.0,-1.0,-1.0,0.0,-2.0,1.0
1701619477.5065162,6.0,-1.0,-2.0,-1.0,-1.0,1.0,-1.0,-1.0
1701619477.5269003,5.0,3.0,0.0,-3.0,-1.0,-3.0,-2.0,-2.0
1701619477.5269003,-11.0,-3.0,-2.0,-1.0,-1.0,0.0,-2.0,-2.0
1701619477.5269003,-3.0,-11.0,2.0,0.0,0.0,0.0,1.0,3.0
1701619477.5269003,5.0,4.0,-1.0,-1.0,-1.0,-1.0,-3.0,-7.0
1701619477.5368752,7.0,-6.0,-1.0,-1.0,-2.0,-1.0,-2.0,7.0
1701619477.5368752,3.0,2.0,-1.0,-1.0,1.0,-1.0,-2.0,3.0
1701619477.5368752,-12.0,0.0,0.0,2.0,-2.0,-1.0,0.0,0.0
1701619477.5368752,8.0,-2.0,-1.0,1.0,0.0,-1.0,0.0,-7.0
1701619477.5665169,-7.0,3.0,1.0,1.0,-1.0,-1.0,1.0,12.0
1701619477.5665169,6.0,5.0,-3.0,-11.0,-2.0,-2.0,-1.0,-4.0
1701619477.5665169,-5.0,-2.0,0.0,-3.0,-2.0,-1.0,-3.0,-1.0
1701619477.5665169,8.0,-1.0,-4.0,1.0,0.0,-1.0,1.0,-1.0
1701619477.5765154,-5.0,-3.0,-2.0,0.0,1.0,-1.0,0.0,-3.0
1701619477.5765154,4.0,-1.0,3.0,5.0,0.0,0.0,0.0,4.0
1701619477.5765154,-5.0,2.0,3.0,-1.0,-2.0,-3.0,-5.0,-15.0
1701619477.5765154,-5.0,0.0,-16.0,-5.0,-1.0,-1.0,1.0,0.0
1701619477.6025717,-1.0,-2.0,-4.0,3.0,-1.0,-1.0,-1.0,5.0
1701619477.6025717,-4.0,-5.0,-2.0,-1.0,-2.0,-2.0,-2.0,1.0
1701619477.6025717,6.0,6.0,11.0,0.0,-1.0,-2.0,0.0,9.0
1701619477.6025717,0.0,-5.0,-11.0,-2.0,-2.0,0.0,-5.0,-10.0
1701619477.6288517,0.0,-1.0,-9.0,-3.0,-3.0,-1.0,2.0,0.0
1701619477.6288517,-1.0,1.0,0.0,-1.0,-2.0,-1.0,-1.0,-5.0
1701619477.6288517,-6.0,-4.0,-5.0,0.0,-1.0,-3.0,-1.0,-2.0
1701619477.6288517,-2.0,4.0,15.0,5.0,-1.0,-1.0,-1.0,12.0
1701619477.638878,5.0,5.0,14.0,-2.0,1.0,-1.0,0.0,-3.0
1701619477.638878,-7.0,-3.0,-24.0,-5.0,-1.0,-2.0,-1.0,-6.0
1701619477.638878,14.0,-4.0,17.0,1.0,1.0,3.0,4.0,21.0
1701619477.638878,1.0,-3.0,-20.0,-6.0,-2.0,-5.0,-4.0,12.0
1701619477.6592908,5.0,-4.0,-11.0,-3.0,-4.0,-3.0,-2.0,-13.0
1701619477.6592908,-5.0,-14.0,10.0,4.0,2.0,-1.0,-3.0,-20.0
1701619477.6592908,-31.0,24.0,8.0,3.0,1.0,-2.0,-3.0,14.0
1701619477.6592908,4.0,-5.0,-6.0,-3.0,0.0,2.0,5.0,5.0
1701619477.678879,-5.0,-17.0,-2.0,-5.0,-3.0,-1.0,-3.0,2.0
1701619477.678879,3.0,12.0,14.0,2.0,-2.0,-1.0,2.0,3.0
1701619477.678879,6.0,-8.0,-37.0,-4.0,0.0,-1.0,-3.0,-15.0
1701619477.678879,-5.0,2.0,15.0,0.0,-2.0,0.0,-1.0,1.0
1701619477.6992955,-6.0,9.0,-2.0,-1.0,0.0,0.0,0.0,-4.0
1701619477.6992955,-4.0,-6.0,-3.0,0.0,0.0,1.0,-1.0,1.0
1701619477.6992955,6.0,-8.0,2.0,-2.0,-1.0,0.0,0.0,-6.0
1701619477.6992955,-6.0,3.0,5.0,-2.0,-1.0,1.0,-2.0,-3.0
1701619477.718854,0.0,-6.0,-9.0,-1.0,0.0,0.0,-1.0,-4.0
1701619477.718854,5.0,0.0,2.0,-1.0,-1.0,-3.0,-4.0,5.0
1701619477.718854,4.0,1.0,-5.0,-1.0,1.0,-1.0,1.0,-3.0
1701619477.718854,-8.0,-7.0,3.0,-2.0,-2.0,-2.0,-1.0,-10.0
1701619477.738938,0.0,2.0,0.0,-2.0,-2.0,-3.0,-1.0,7.0
1701619477.738938,-1.0,-7.0,-8.0,-2.0,-1.0,-2.0,0.0,9.0
1701619477.738938,6.0,2.0,-7.0,-3.0,-3.0,-2.0,-2.0,-7.0
1701619477.738938,-1.0,2.0,0.0,2.0,-1.0,-2.0,0.0,-5.0
1701619477.7591727,-6.0,-3.0,2.0,-1.0,0.0,0.0,1.0,-2.0
1701619477.7591727,2.0,5.0,-4.0,1.0,-1.0,0.0,1.0,2.0
1701619477.7591727,0.0,-4.0,3.0,-2.0,-3.0,0.0,0.0,-2.0
1701619477.7591727,2.0,0.0,11.0,0.0,0.0,-1.0,-1.0,-2.0
1701619477.7791219,4.0,3.0,-4.0,-3.0,-2.0,-1.0,0.0,-4.0
1701619477.7791219,-13.0,-1.0,-8.0,-2.0,-1.0,0.0,-2.0,0.0
1701619477.7791219,15.0,-5.0,0.0,-2.0,-3.0,-2.0,-3.0,-7.0
1701619477.7791219,-11.0,-5.0,3.0,1.0,-3.0,-3.0,-1.0,5.0
1701619477.808936,-3.0,2.0,8.0,0.0,-1.0,0.0,1.0,-10.0
1701619477.808936,1.0,1.0,1.0,-3.0,-2.0,2.0,-1.0,0.0
1701619477.808936,1.0,-3.0,-1.0,0.0,-1.0,0.0,-1.0,0.0
1701619477.808936,-1.0,2.0,-3.0,-1.0,1.0,-1.0,-1.0,-4.0
1701619477.8189642,-1.0,0.0,-1.0,-2.0,0.0,-1.0,-1.0,1.0
1701619477.8189642,3.0,-1.0,0.0,-2.0,-1.0,-2.0,-2.0,-7.0
1701619477.8189642,-16.0,-2.0,-3.0,-1.0,-1.0,-1.0,-2.0,8.0
1701619477.8189642,11.0,-2.0,-2.0,-5.0,-2.0,0.0,-1.0,3.0
1701619477.848932,-4.0,0.0,-2.0,2.0,0.0,-2.0,-2.0,-1.0
1701619477.848932,1.0,-2.0,1.0,0.0,-1.0,1.0,1.0,1.0
1701619477.848932,-5.0,0.0,-2.0,-1.0,1.0,-2.0,1.0,-9.0
1701619477.848932,-1.0,-1.0,-3.0,-3.0,-1.0,-2.0,-3.0,-4.0
1701619477.8592749,-2.0,-1.0,-1.0,0.0,0.0,-1.0,-2.0,5.0
1701619477.8592749,-4.0,-1.0,-2.0,-2.0,-1.0,0.0,-1.0,0.0
1701619477.8592749,2.0,-1.0,-1.0,-3.0,0.0,1.0,0.0,5.0
1701619477.8592749,-1.0,-2.0,-2.0,-1.0,0.0,-1.0,-2.0,-6.0
1701619477.8793776,4.0,2.0,1.0,-1.0,-2.0,0.0,-1.0,-3.0
1701619477.8793776,6.0,0.0,6.0,2.0,-2.0,-1.0,0.0,2.0
1701619477.8793776,-2.0,1.0,12.0,-1.0,0.0,-1.0,1.0,1.0
1701619477.8793776,-7.0,-3.0,-29.0,-7.0,0.0,-3.0,-2.0,-6.0
1701619477.898932,0.0,1.0,3.0,-3.0,-1.0,-3.0,-1.0,-2.0
1701619477.898932,0.0,-1.0,-2.0,-1.0,-1.0,-1.0,-4.0,2.0
1701619477.898932,1.0,1.0,8.0,2.0,0.0,-1.0,0.0,-5.0
1701619477.898932,8.0,1.0,7.0,3.0,-2.0,1.0,0.0,0.0
1701619477.9192028,-8.0,-2.0,-5.0,-1.0,-1.0,-1.0,-2.0,0.0
1701619477.9192028,-5.0,-3.0,-2.0,-4.0,-1.0,-2.0,-2.0,5.0
1701619477.9192028,1.0,-3.0,-7.0,-1.0,-2.0,-1.0,-2.0,-5.0
1701619477.9192028,2.0,1.0,1.0,1.0,-1.0,-1.0,-1.0,5.0
1701619477.939396,-2.0,-3.0,-4.0,-1.0,-2.0,-2.0,1.0,-6.0
1701619477.939396,0.0,-2.0,1.0,0.0,-1.0,-3.0,1.0,4.0
1701619477.939396,0.0,-2.0,-7.0,-3.0,0.0,-1.0,0.0,-2.0
1701619477.939396,-5.0,-3.0,-1.0,-1.0,-3.0,-1.0,-1.0,1.0
1701619477.9589324,2.0,2.0,3.0,1.0,0.0,-1.0,-1.0,-3.0
1701619477.9589324,0.0,1.0,0.0,-1.0,-2.0,-2.0,0.0,-3.0
1701619477.9589324,0.0,-2.0,-6.0,-3.0,-1.0,-2.0,-1.0,1.0
1701619477.9589324,-6.0,2.0,5.0,2.0,0.0,-2.0,0.0,-4.0
1701619477.9792712,0.0,-4.0,-3.0,-2.0,0.0,1.0,0.0,1.0
1701619477.9792712,-3.0,-2.0,-3.0,-2.0,-2.0,-1.0,-1.0,-3.0
1701619477.9792712,1.0,1.0,3.0,2.0,-1.0,-1.0,-1.0,-5.0
1701619477.9792712,-5.0,-2.0,-10.0,-1.0,-3.0,-1.0,0.0,5.0
1701619477.998933,-2.0,0.0,1.0,0.0,-2.0,-1.0,-1.0,-4.0
1701619477.998933,21.0,1.0,-3.0,0.0,0.0,-2.0,0.0,4.0
1701619477.998933,-7.0,-3.0,-1.0,-3.0,-1.0,0.0,1.0,1.0
1701619477.998933,1.0,2.0,5.0,-1.0,-1.0,-2.0,-1.0,-1.0
1701619478.0192287,-1.0,-1.0,-1.0,2.0,0.0,0.0,-1.0,-3.0
1701619478.0192287,1.0,-1.0,6.0,-3.0,-2.0,0.0,-2.0,-6.0
1701619478.0192287,5.0,1.0,-3.0,-3.0,-2.0,-2.0,-2.0,6.0
1701619478.0192287,-2.0,0.0,5.0,-2.0,0.0,-3.0,0.0,-2.0
1701619478.0392637,-1.0,-2.0,-1.0,0.0,-2.0,0.0,-1.0,0.0
1701619478.0392637,-5.0,-1.0,3.0,-1.0,-1.0,-1.0,-2.0,-8.0
1701619478.0392637,-4.0,0.0,-2.0,0.0,-2.0,-2.0,-1.0,-1.0
1701619478.0392637,-7.0,-3.0,-2.0,-2.0,0.0,2.0,0.0,6.0
1701619478.0689325,-2.0,3.0,8.0,1.0,-1.0,-2.0,-1.0,-6.0
1701619478.0689325,-1.0,-6.0,-11.0,-1.0,1.0,1.0,0.0,-8.0
1701619478.0689325,1.0,-1.0,-4.0,-2.0,-1.0,-1.0,-2.0,13.0
1701619478.0689325,3.0,-5.0,-5.0,-3.0,0.0,-2.0,-1.0,-2.0
1701619478.0789554,-2.0,0.0,-1.0,-1.0,-1.0,-1.0,-2.0,5.0
1701619478.0789554,-7.0,2.0,-3.0,1.0,0.0,-1.0,0.0,-6.0
1701619478.0789554,-9.0,-5.0,-6.0,-2.0,0.0,-1.0,-1.0,-10.0
1701619478.0789554,0.0,-1.0,4.0,1.0,0.0,0.0,-1.0,0.0
1701619478.1089363,2.0,-1.0,-1.0,-2.0,-3.0,-2.0,-2.0,1.0
1701619478.1089363,-1.0,-5.0,-3.0,-1.0,-1.0,-2.0,-1.0,2.0
1701619478.1089363,-2.0,1.0,-2.0,1.0,-2.0,0.0,0.0,-6.0
1701619478.1089363,18.0,5.0,2.0,1.0,-2.0,0.0,0.0,0.0
1701619478.1192317,-30.0,-4.0,-3.0,-3.0,-4.0,-2.0,1.0,0.0
1701619478.1192317,2.0,1.0,-1.0,-3.0,-1.0,-1.0,-3.0,-10.0
1701619478.1192317,-1.0,0.0,2.0,0.0,0.0,-1.0,-1.0,5.0
1701619478.1192317,1.0,6.0,1.0,-2.0,-1.0,-2.0,-1.0,0.0
1701619478.152962,8.0,0.0,-1.0,-2.0,0.0,-2.0,-3.0,-9.0
1701619478.152962,-3.0,1.0,-2.0,1.0,1.0,-1.0,1.0,1.0
1701619478.152962,-3.0,-2.0,3.0,-3.0,-1.0,0.0,-1.0,-5.0
1701619478.152962,-8.0,-4.0,-15.0,-5.0,-4.0,-1.0,-1.0,-11.0
1701619478.1618474,2.0,-3.0,-1.0,-3.0,-2.0,0.0,0.0,11.0
1701619478.1618474,-7.0,1.0,0.0,-1.0,-3.0,1.0,-1.0,0.0
1701619478.1618474,6.0,3.0,2.0,2.0,-1.0,1.0,1.0,2.0
1701619478.1618474,-10.0,-2.0,5.0,2.0,0.0,-1.0,-1.0,0.0
1701619478.181849,9.0,2.0,16.0,0.0,0.0,-1.0,-2.0,-2.0
1701619478.181849,-18.0,-8.0,-30.0,-5.0,-2.0,0.0,0.0,-2.0
1701619478.181849,21.0,2.0,2.0,-2.0,-3.0,-1.0,-1.0,-2.0
1701619478.181849,0.0,-4.0,0.0,0.0,1.0,1.0,1.0,5.0
1701619478.201902,3.0,6.0,6.0,1.0,0.0,0.0,-4.0,-12.0
1701619478.201902,-2.0,-1.0,7.0,-1.0,-1.0,-3.0,-1.0,5.0
1701619478.201902,-3.0,-2.0,-6.0,0.0,-1.0,-2.0,-1.0,-6.0
1701619478.201902,-7.0,-2.0,0.0,0.0,-2.0,-2.0,-2.0,-3.0
1701619478.221855,4.0,-9.0,-9.0,-3.0,0.0,1.0,1.0,1.0
1701619478.221855,4.0,3.0,-1.0,-1.0,-1.0,0.0,0.0,5.0
1701619478.221855,-8.0,-2.0,-2.0,0.0,-2.0,-2.0,0.0,-7.0
1701619478.221855,3.0,0.0,11.0,-1.0,0.0,1.0,-3.0,1.0
1701619478.2618465,-6.0,0.0,-17.0,-2.0,-2.0,-1.0,1.0,4.0
1701619478.2618465,3.0,-1.0,4.0,0.0,1.0,0.0,-1.0,-14.0
1701619478.2618465,-1.0,-3.0,-1.0,-2.0,-1.0,-2.0,-1.0,22.0
1701619478.2618465,-10.0,1.0,4.0,1.0,-1.0,1.0,-2.0,-10.0
1701619478.2618465,5.0,1.0,-2.0,0.0,-1.0,-1.0,1.0,8.0
1701619478.2618465,0.0,1.0,18.0,1.0,-1.0,0.0,-1.0,5.0
1701619478.2618465,10.0,-5.0,-12.0,-3.0,-3.0,-1.0,-3.0,-19.0
1701619478.2618465,0.0,-6.0,-2.0,0.0,-2.0,-1.0,-1.0,3.0
1701619478.2918487,-10.0,-2.0,-4.0,-3.0,-3.0,-3.0,-2.0,4.0
1701619478.2918487,5.0,4.0,5.0,2.0,0.0,1.0,0.0,1.0
1701619478.2918487,4.0,-2.0,9.0,0.0,1.0,0.0,-1.0,0.0
1701619478.2918487,-3.0,-1.0,-3.0,-2.0,-2.0,-1.0,0.0,-4.0
1701619478.302112,6.0,-2.0,-2.0,0.0,-1.0,0.0,-1.0,-3.0
1701619478.302112,-8.0,1.0,1.0,-1.0,0.0,-4.0,-1.0,6.0
1701619478.302112,-10.0,0.0,-3.0,0.0,0.0,-2.0,-2.0,-5.0
1701619478.302112,5.0,0.0,-4.0,-3.0,1.0,-2.0,0.0,-1.0
1701619478.3225088,-9.0,-4.0,-4.0,0.0,-1.0,2.0,0.0,-12.0
1701619478.3225088,5.0,-1.0,-6.0,-5.0,-2.0,-3.0,-2.0,16.0
1701619478.3225088,-5.0,0.0,-1.0,0.0,0.0,2.0,0.0,-4.0
1701619478.3225088,-5.0,-4.0,-2.0,-1.0,-2.0,-4.0,-4.0,-12.0
1701619478.3424401,16.0,3.0,1.0,1.0,2.0,0.0,1.0,-1.0
1701619478.3424401,-23.0,-7.0,-3.0,-2.0,-2.0,-2.0,-1.0,-2.0
1701619478.3424401,-6.0,0.0,4.0,1.0,-1.0,0.0,3.0,0.0
1701619478.3424401,10.0,4.0,3.0,0.0,1.0,2.0,0.0,6.0
1701619478.382158,0.0,0.0,-5.0,-2.0,0.0,-2.0,-2.0,-2.0
1701619478.382158,4.0,-2.0,-3.0,-1.0,0.0,0.0,-2.0,-3.0
1701619478.382158,-15.0,1.0,-1.0,-1.0,-1.0,-2.0,-1.0,1.0
1701619478.382158,14.0,1.0,5.0,0.0,0.0,-1.0,1.0,-5.0
1701619478.382158,-5.0,-1.0,-1.0,1.0,1.0,-1.0,-2.0,3.0
1701619478.382158,0.0,-1.0,-2.0,-1.0,-2.0,-1.0,1.0,-2.0
1701619478.382158,-7.0,0.0,1.0,-3.0,-4.0,-3.0,-3.0,-7.0
1701619478.382158,-3.0,3.0,5.0,1.0,-2.0,-1.0,-2.0,6.0
1701619478.4121552,-3.0,-7.0,-38.0,-6.0,-3.0,-1.0,-1.0,-4.0
1701619478.4121552,-3.0,1.0,3.0,1.0,-2.0,0.0,-1.0,-1.0
1701619478.4121552,10.0,0.0,0.0,-2.0,0.0,-2.0,-2.0,-1.0
1701619478.4121552,-4.0,0.0,-3.0,-3.0,-2.0,-1.0,0.0,-2.0
1701619478.422422,-2.0,2.0,11.0,-1.0,0.0,1.0,-1.0,-1.0
1701619478.422422,-5.0,-1.0,-1.0,-1.0,0.0,-1.0,1.0,4.0
1701619478.422422,7.0,-2.0,-7.0,-2.0,-1.0,-1.0,-5.0,-7.0
1701619478.422422,1.0,-2.0,-2.0,-2.0,0.0,2.0,1.0,1.0
1701619478.4421568,-8.0,-1.0,8.0,1.0,-1.0,-1.0,-2.0,4.0
1701619478.4421568,7.0,-1.0,-4.0,-1.0,-1.0,-1.0,-1.0,-10.0
1701619478.4421568,-1.0,-1.0,1.0,0.0,-1.0,0.0,0.0,1.0
1701619478.4421568,-7.0,-1.0,-5.0,-2.0,-1.0,-3.0,-3.0,-1.0
1701619478.462186,3.0,-1.0,2.0,-1.0,-1.0,-1.0,-1.0,-6.0
1701619478.462186,3.0,-3.0,-3.0,-1.0,-3.0,-1.0,-1.0,-4.0
1701619478.462186,-5.0,-2.0,-2.0,0.0,-2.0,1.0,0.0,9.0
1701619478.462186,0.0,-2.0,-4.0,-2.0,-1.0,-1.0,-2.0,-10.0
1701619478.4826016,-3.0,-1.0,5.0,3.0,-2.0,-1.0,0.0,-1.0
1701619478.4826016,0.0,0.0,2.0,-1.0,-1.0,-1.0,-2.0,-3.0
1701619478.4826016,0.0,-2.0,-6.0,-4.0,0.0,0.0,-1.0,1.0
1701619478.4826016,-2.0,-1.0,-5.0,0.0,0.0,-1.0,-2.0,-3.0
1701619478.5121596,0.0,-4.0,9.0,-3.0,-4.0,-4.0,-2.0,-1.0
1701619478.5121596,3.0,-1.0,-2.0,-1.0,0.0,-1.0,-2.0,-4.0
1701619478.5121596,-5.0,-2.0,5.0,0.0,-1.0,1.0,1.0,-3.0
1701619478.5121596,0.0,-2.0,-23.0,-5.0,0.0,1.0,2.0,0.0
1701619478.5221894,2.0,1.0,0.0,-2.0,-1.0,-3.0,-2.0,-1.0
1701619478.5221894,-2.0,-1.0,-1.0,-2.0,-2.0,-1.0,0.0,-3.0
1701619478.5221894,-1.0,-2.0,0.0,-1.0,-3.0,-2.0,0.0,-2.0
1701619478.5221894,-3.0,0.0,5.0,0.0,-1.0,-2.0,-2.0,1.0
1701619478.5424895,0.0,0.0,3.0,2.0,0.0,1.0,0.0,-1.0
1701619478.5424895,0.0,0.0,-2.0,-2.0,2.0,0.0,-1.0,-1.0
1701619478.5424895,-4.0,-1.0,-3.0,-4.0,0.0,-2.0,-1.0,5.0
1701619478.5424895,3.0,0.0,3.0,0.0,-1.0,-2.0,-2.0,-5.0
1701619478.5621579,-1.0,-2.0,1.0,-1.0,0.0,-1.0,1.0,-1.0
1701619478.5621579,1.0,0.0,-2.0,0.0,-1.0,2.0,-1.0,-1.0
1701619478.5621579,-2.0,-3.0,-2.0,1.0,0.0,0.0,1.0,-1.0
1701619478.5621579,-2.0,-1.0,5.0,4.0,-1.0,-1.0,-1.0,4.0
1701619478.5821905,-1.0,-2.0,-13.0,-8.0,-1.0,-3.0,-2.0,-2.0
1701619478.5821905,5.0,-1.0,0.0,2.0,-1.0,-1.0,-1.0,-3.0
1701619478.5821905,1.0,-1.0,-2.0,-1.0,-1.0,-2.0,-3.0,-2.0
1701619478.5821905,-5.0,-2.0,-2.0,-2.0,-3.0,-1.0,-1.0,6.0
1701619478.6025841,-1.0,-1.0,2.0,0.0,0.0,2.0,-1.0,1.0
1701619478.6025841,-1.0,-1.0,-1.0,-1.0,-1.0,-1.0,1.0,1.0
1701619478.6025841,1.0,-1.0,-3.0,0.0,0.0,-2.0,-2.0,-3.0
1701619478.6025841,-2.0,1.0,0.0,-3.0,-2.0,-1.0,0.0,0.0
1701619478.6221578,-7.0,-1.0,-1.0,2.0,-1.0,0.0,-1.0,-10.0
1701619478.6221578,0.0,0.0,1.0,0.0,1.0,-1.0,-1.0,0.0
1701619478.6221578,-5.0,-2.0,-1.0,-3.0,0.0,-1.0,0.0,-6.0
1701619478.6221578,1.0,0.0,0.0,-1.0,0.0,-1.0,-1.0,8.0
1701619478.6421878,5.0,2.0,-2.0,0.0,-2.0,0.0,2.0,7.0
1701619478.6421878,-8.0,-2.0,-4.0,-2.0,-4.0,-1.0,-4.0,-11.0
1701619478.6421878,-2.0,0.0,-1.0,0.0,0.0,0.0,0.0,-10.0
1701619478.6421878,-3.0,-2.0,-3.0,-1.0,-1.0,-1.0,-2.0,3.0
1701619478.6684785,-3.0,-3.0,-3.0,-5.0,-1.0,-2.0,-4.0,0.0
1701619478.6684785,0.0,1.0,2.0,1.0,-2.0,-2.0,0.0,0.0
1701619478.6684785,1.0,0.0,0.0,1.0,0.0,0.0,0.0,0.0
1701619478.6684785,-3.0,-1.0,0.0,-2.0,-1.0,0.0,0.0,2.0
1701619478.683486,-1.0,-2.0,2.0,-1.0,-1.0,-2.0,-3.0,0.0
1701619478.6844854,0.0,-3.0,-3.0,-2.0,0.0,-1.0,-1.0,5.0
1701619478.6844854,-1.0,0.0,-1.0,-1.0,-3.0,-2.0,-2.0,-8.0
1701619478.6844854,1.0,0.0,0.0,0.0,-2.0,0.0,0.0,-3.0
1701619478.7047148,-1.0,0.0,-2.0,-1.0,0.0,-3.0,0.0,-2.0
1701619478.7047148,-1.0,0.0,-3.0,-1.0,-2.0,-2.0,-1.0,1.0
1701619478.7047148,0.0,0.0,0.0,-1.0,-2.0,0.0,0.0,4.0
1701619478.7047148,0.0,-1.0,1.0,-2.0,0.0,-2.0,-1.0,-5.0
1701619478.7250473,3.0,1.0,6.0,0.0,-2.0,0.0,0.0,0.0
1701619478.7250473,-4.0,-2.0,-14.0,-6.0,-3.0,-2.0,-2.0,-1.0
1701619478.7347825,5.0,-1.0,1.0,-1.0,1.0,-2.0,0.0,6.0
1701619478.7347825,3.0,3.0,13.0,1.0,-2.0,-1.0,-3.0,1.0
1701619478.7449362,-4.0,-8.0,-32.0,-4.0,-3.0,-1.0,-2.0,0.0
1701619478.7449362,2.0,1.0,3.0,0.0,-2.0,-1.0,2.0,-1.0
1701619478.7449362,-5.0,-7.0,-6.0,-1.0,-2.0,-1.0,0.0,6.0
1701619478.7449362,1.0,10.0,11.0,0.0,-1.0,-2.0,-2.0,-21.0
1701619478.7847104,-3.0,-5.0,-9.0,-1.0,1.0,2.0,0.0,0.0
1701619478.7847104,1.0,-1.0,0.0,-1.0,-2.0,-1.0,-1.0,3.0
1701619478.7847104,4.0,5.0,-2.0,-2.0,-1.0,-1.0,-1.0,0.0
1701619478.7847104,-7.0,-17.0,4.0,0.0,-1.0,-1.0,0.0,-2.0
1701619478.7847104,-9.0,-8.0,-16.0,-2.0,-3.0,-1.0,-1.0,-6.0
1701619478.7847104,8.0,2.0,-3.0,-1.0,0.0,-1.0,-2.0,-1.0
1701619478.7847104,2.0,4.0,29.0,3.0,1.0,-1.0,0.0,-3.0
1701619478.7847104,-6.0,-6.0,-32.0,-6.0,-2.0,-3.0,-5.0,-21.0
1701619478.804923,15.0,8.0,20.0,4.0,0.0,0.0,1.0,1.0
1701619478.804923,-4.0,4.0,1.0,0.0,0.0,-1.0,0.0,1.0
1701619478.804923,-10.0,-17.0,-3.0,-2.0,-2.0,0.0,0.0,-4.0
1701619478.804923,-3.0,-12.0,3.0,-2.0,0.0,0.0,-1.0,1.0
1701619478.8250482,-5.0,2.0,3.0,0.0,-1.0,-1.0,-3.0,7.0
1701619478.8250482,-9.0,-12.0,-21.0,-5.0,-4.0,-2.0,-3.0,-29.0
1701619478.8250482,10.0,8.0,16.0,2.0,0.0,0.0,1.0,18.0
1701619478.8250482,1.0,-5.0,-30.0,-1.0,-1.0,2.0,1.0,7.0
1701619478.8547132,2.0,10.0,5.0,0.0,0.0,0.0,0.0,-2.0
1701619478.8547132,0.0,5.0,28.0,3.0,0.0,-1.0,1.0,5.0
1701619478.8547132,-3.0,2.0,-19.0,-2.0,0.0,-1.0,-1.0,-7.0
1701619478.8547132,-3.0,-17.0,-1.0,0.0,0.0,-1.0,0.0,4.0
1701619478.8547132,-1.0,10.0,34.0,3.0,0.0,-1.0,-1.0,2.0
1701619478.8547132,-3.0,-10.0,-36.0,-3.0,2.0,2.0,1.0,-8.0
1701619478.864738,-2.0,4.0,8.0,-2.0,-4.0,-2.0,-2.0,-2.0
1701619478.864738,0.0,10.0,-16.0,-3.0,-2.0,0.0,0.0,12.0
1701619478.8851597,1.0,-8.0,2.0,0.0,0.0,-1.0,-3.0,-10.0
1701619478.8851597,-2.0,10.0,14.0,3.0,-1.0,-2.0,-2.0,1.0
1701619478.8851597,0.0,-17.0,-34.0,-4.0,-1.0,0.0,-1.0,-2.0
1701619478.8851597,-4.0,19.0,8.0,2.0,-1.0,0.0,1.0,2.0
1701619478.9047117,0.0,11.0,37.0,2.0,1.0,-2.0,1.0,6.0
1701619478.9047117,6.0,-29.0,-28.0,-7.0,-1.0,-1.0,-3.0,-2.0
1701619478.9047117,17.0,26.0,25.0,1.0,-2.0,-1.0,-1.0,-1.0
1701619478.9047117,-17.0,-23.0,-23.0,-6.0,-4.0,-4.0,-4.0,-7.0
1701619478.9149435,6.0,71.0,-14.0,-2.0,0.0,-1.0,1.0,-6.0
1701619478.9149435,-3.0,-31.0,34.0,8.0,1.0,-1.0,-1.0,31.0
1701619478.9249492,-5.0,-20.0,-62.0,-13.0,-5.0,-3.0,-2.0,-8.0
1701619478.9249492,10.0,31.0,23.0,8.0,4.0,3.0,3.0,1.0
1701619478.9450405,-1.0,-21.0,76.0,5.0,0.0,0.0,0.0,0.0
1701619478.9450405,-7.0,-40.0,-43.0,-15.0,-7.0,-5.0,-6.0,-7.0
1701619478.9450405,-11.0,-4.0,20.0,2.0,-1.0,-1.0,-3.0,-3.0
1701619478.9450405,-1.0,-28.0,-28.0,-2.0,-2.0,-4.0,-4.0,2.0
1701619478.974712,-14.0,-44.0,-8.0,-8.0,-5.0,-5.0,-5.0,-8.0
1701619478.974712,23.0,126.0,51.0,9.0,4.0,3.0,6.0,3.0
1701619478.974712,-23.0,-92.0,4.0,-2.0,-3.0,-2.0,-4.0,-7.0
1701619478.974712,1.0,-36.0,-1.0,-4.0,-3.0,-2.0,0.0,-6.0
1701619478.98471,3.0,13.0,-77.0,-12.0,-1.0,-1.0,1.0,2.0
1701619478.98471,-6.0,0.0,36.0,0.0,-2.0,-2.0,-2.0,-3.0
1701619478.98471,8.0,61.0,-5.0,7.0,2.0,1.0,2.0,3.0
1701619478.98471,9.0,52.0,52.0,4.0,4.0,4.0,4.0,6.0
1701619479.005139,-17.0,-102.0,-34.0,3.0,0.0,-3.0,-5.0,-5.0
1701619479.005139,-3.0,16.0,-28.0,-3.0,-1.0,1.0,-1.0,-1.0
1701619479.005139,-6.0,50.0,9.0,-2.0,-2.0,-4.0,-2.0,-2.0
1701619479.005139,1.0,-5.0,2.0,1.0,1.0,0.0,-2.0,-2.0
1701619479.0247097,6.0,-9.0,-20.0,-1.0,-3.0,-1.0,0.0,3.0
1701619479.0247097,-7.0,10.0,15.0,-4.0,-3.0,-1.0,-2.0,-6.0
1701619479.0247097,11.0,61.0,66.0,7.0,3.0,1.0,2.0,0.0
1701619479.0247097,1.0,-36.0,-116.0,-16.0,-6.0,-6.0,-2.0,-6.0
1701619479.0451694,-10.0,-22.0,-2.0,-2.0,2.0,-1.0,-2.0,1.0
1701619479.0451694,-16.0,4.0,24.0,2.0,0.0,1.0,2.0,-3.0
1701619479.0451694,13.0,0.0,-31.0,1.0,0.0,-2.0,-5.0,1.0
1701619479.0451694,-27.0,-28.0,37.0,-3.0,-3.0,-1.0,0.0,-2.0
1701619479.0647109,7.0,54.0,5.0,1.0,0.0,-1.0,-1.0,-4.0
1701619479.0647109,7.0,33.0,5.0,-3.0,0.0,-1.0,-1.0,2.0
1701619479.0647109,-4.0,-73.0,-34.0,4.0,3.0,3.0,2.0,-2.0
1701619479.0647109,10.0,-19.0,4.0,1.0,-1.0,1.0,0.0,1.0
1701619479.0849981,-13.0,-36.0,18.0,-1.0,-2.0,-1.0,-4.0,-5.0
1701619479.0849981,-2.0,-61.0,5.0,2.0,-3.0,0.0,-3.0,-6.0
1701619479.0849981,3.0,50.0,-36.0,-12.0,-4.0,-2.0,1.0,0.0
1701619479.0849981,4.0,-7.0,20.0,5.0,3.0,-3.0,-4.0,0.0
1701619479.0949786,-3.0,-43.0,5.0,-5.0,-4.0,-1.0,1.0,0.0
1701619479.0949786,-6.0,-43.0,-11.0,0.0,-1.0,-2.0,-3.0,-1.0
1701619479.104953,-9.0,-34.0,7.0,-8.0,-3.0,0.0,1.0,-2.0
1701619479.104953,-4.0,-50.0,-11.0,1.0,-1.0,-1.0,-1.0,-1.0
1701619479.1447606,12.0,67.0,27.0,7.0,-2.0,-1.0,1.0,5.0
1701619479.1447606,-5.0,-4.0,15.0,-2.0,4.0,0.0,-1.0,-1.0
1701619479.1447606,-1.0,-15.0,6.0,10.0,4.0,-3.0,-3.0,-3.0
1701619479.1447606,3.0,23.0,-20.0,-10.0,-2.0,1.0,1.0,1.0
1701619479.1447606,-3.0,-5.0,-26.0,-8.0,-4.0,0.0,-1.0,-2.0
1701619479.1447606,3.0,-6.0,-19.0,-1.0,-2.0,-1.0,-1.0,0.0
1701619479.1447606,-2.0,23.0,40.0,10.0,-1.0,1.0,2.0,-1.0
1701619479.1447606,3.0,45.0,32.0,0.0,0.0,-1.0,-1.0,0.0
1701619479.1549995,7.0,29.0,8.0,-1.0,1.0,1.0,0.0,0.0
1701619479.1549995,-1.0,1.0,-18.0,0.0,-2.0,-2.0,0.0,1.0
1701619479.165003,3.0,13.0,-13.0,-5.0,-2.0,0.0,-4.0,-2.0
1701619479.165003,0.0,73.0,15.0,11.0,1.0,-1.0,0.0,-1.0
1701619479.1848361,-2.0,-52.0,-54.0,3.0,1.0,0.0,0.0,-4.0
1701619479.1848361,-3.0,-7.0,6.0,-19.0,-8.0,-6.0,-2.0,-5.0
1701619479.1848361,-3.0,-35.0,-21.0,0.0,7.0,2.0,0.0,1.0
1701619479.1848361,2.0,-2.0,44.0,3.0,2.0,0.0,3.0,2.0
1701619479.2135546,-7.0,-67.0,-31.0,-1.0,0.0,-2.0,-4.0,-4.0
1701619479.2135546,6.0,18.0,-16.0,11.0,0.0,0.0,2.0,2.0
1701619479.2135546,-10.0,5.0,4.0,-1.0,-4.0,-4.0,-2.0,-4.0
1701619479.2135546,-9.0,-14.0,-17.0,-16.0,-6.0,1.0,0.0,0.0
1701619479.2276719,10.0,43.0,26.0,7.0,4.0,1.0,0.0,3.0
1701619479.2276719,-8.0,-37.0,-22.0,-2.0,-2.0,-1.0,-1.0,-1.0
1701619479.2276719,1.0,6.0,4.0,1.0,3.0,0.0,-1.0,-1.0
1701619479.2276719,8.0,37.0,16.0,1.0,0.0,-5.0,0.0,26.0
1701619479.2476742,-3.0,1.0,-2.0,-3.0,-5.0,-4.0,-4.0,-35.0
1701619479.2476742,1.0,7.0,-8.0,1.0,1.0,-1.0,-1.0,2.0
1701619479.2476742,-1.0,-13.0,-17.0,-5.0,-2.0,-1.0,-4.0,-22.0
1701619479.2476742,11.0,19.0,15.0,4.0,1.0,0.0,1.0,28.0
1701619479.2680757,-39.0,-17.0,-32.0,-10.0,-6.0,-4.0,-6.0,-4.0
1701619479.2680757,25.0,0.0,19.0,3.0,-1.0,-1.0,6.0,18.0
1701619479.2680757,-13.0,8.0,0.0,-7.0,0.0,-2.0,-2.0,1.0
1701619479.2680757,12.0,24.0,4.0,1.0,-3.0,-2.0,-2.0,-5.0
1701619479.2976737,1.0,23.0,8.0,5.0,1.0,-1.0,0.0,13.0
1701619479.2976737,3.0,5.0,4.0,0.0,3.0,1.0,-8.0,-11.0
1701619479.2976737,-3.0,-18.0,-11.0,-10.0,-8.0,-1.0,14.0,26.0
1701619479.2976737,-2.0,-25.0,-8.0,-3.0,0.0,-2.0,-6.0,-13.0
1701619479.2976737,15.0,27.0,16.0,6.0,0.0,-1.0,0.0,-4.0
1701619479.2976737,-30.0,3.0,0.0,-1.0,0.0,0.0,0.0,-2.0
1701619479.2976737,3.0,-6.0,-4.0,-5.0,-5.0,-1.0,-3.0,18.0
1701619479.2976737,7.0,0.0,0.0,-3.0,-2.0,-2.0,-3.0,-5.0
1701619479.3276844,6.0,18.0,4.0,6.0,4.0,2.0,2.0,-7.0
1701619479.3276844,-6.0,-8.0,-20.0,-7.0,-3.0,0.0,1.0,10.0
1701619479.3276844,18.0,3.0,-5.0,-7.0,-3.0,-1.0,-9.0,-22.0
1701619479.3276844,-2.0,-7.0,-3.0,2.0,1.0,-1.0,4.0,-9.0
1701619479.3676755,-13.0,-7.0,-18.0,-3.0,-3.0,-1.0,-4.0,6.0
1701619479.3676755,23.0,12.0,4.0,5.0,1.0,-1.0,-1.0,7.0
1701619479.3676755,-35.0,-4.0,5.0,1.0,1.0,0.0,-2.0,-8.0
1701619479.3676755,-12.0,-9.0,9.0,-4.0,-2.0,0.0,3.0,9.0
1701619479.3676755,13.0,-11.0,-29.0,-8.0,2.0,1.0,-2.0,-43.0
1701619479.3676755,-1.0,-6.0,-4.0,-2.0,-3.0,-2.0,1.0,-5.0
1701619479.3676755,5.0,13.0,4.0,1.0,-2.0,0.0,-2.0,-7.0
1701619479.3676755,4.0,-15.0,3.0,1.0,-1.0,-5.0,-12.0,8.0
1701619479.3879642,-12.0,7.0,29.0,3.0,-1.0,-2.0,6.0,-8.0
1701619479.3879642,6.0,11.0,-11.0,-11.0,-3.0,-1.0,3.0,14.0
1701619479.3976762,0.0,7.0,0.0,-9.0,-1.0,-2.0,-2.0,-24.0
1701619479.3976762,-16.0,-10.0,-6.0,4.0,0.0,0.0,8.0,-5.0
1701619479.4276772,-7.0,2.0,-2.0,-9.0,-3.0,-2.0,-17.0,23.0
1701619479.4276772,-6.0,3.0,0.0,5.0,4.0,3.0,4.0,-14.0
1701619479.4276772,13.0,-5.0,16.0,0.0,-1.0,-5.0,-5.0,12.0
1701619479.4276772,-12.0,-13.0,-15.0,-2.0,0.0,1.0,5.0,-26.0
1701619479.4276772,8.0,9.0,7.0,5.0,-1.0,-8.0,-10.0,34.0
1701619479.4276772,-4.0,0.0,6.0,-2.0,1.0,4.0,5.0,-3.0
1701619479.4378612,-3.0,2.0,-1.0,7.0,0.0,3.0,7.0,16.0
1701619479.4378612,2.0,-1.0,-11.0,-6.0,1.0,-4.0,-17.0,-26.0
1701619479.4479265,14.0,0.0,-5.0,-8.0,2.0,5.0,16.0,4.0
1701619479.4479265,-13.0,-1.0,22.0,8.0,-3.0,-5.0,-6.0,0.0
1701619479.4479265,10.0,-8.0,-11.0,5.0,0.0,-1.0,3.0,12.0
1701619479.4479265,-27.0,-10.0,-2.0,-8.0,-6.0,0.0,-2.0,-7.0
1701619479.4776747,-2.0,7.0,14.0,0.0,-1.0,1.0,-4.0,0.0
1701619479.4776747,-1.0,1.0,-19.0,-4.0,-2.0,-2.0,0.0,-3.0
1701619479.4776747,12.0,2.0,-7.0,-5.0,1.0,0.0,-1.0,0.0
1701619479.4776747,1.0,5.0,-2.0,3.0,2.0,1.0,-2.0,-8.0
1701619479.4776747,-8.0,9.0,15.0,9.0,-3.0,-4.0,1.0,23.0
1701619479.4776747,14.0,5.0,-2.0,-9.0,0.0,1.0,1.0,-18.0
1701619479.4976826,-10.0,-4.0,8.0,13.0,-3.0,-4.0,-1.0,-6.0
1701619479.4976826,8.0,-1.0,-14.0,-7.0,-2.0,-1.0,-1.0,5.0
1701619479.5076814,2.0,3.0,4.0,-11.0,0.0,1.0,7.0,9.0
1701619479.5076814,1.0,-7.0,-5.0,13.0,-3.0,-2.0,-7.0,-15.0
1701619479.5076814,-9.0,-3.0,-6.0,-6.0,2.0,0.0,-4.0,1.0
1701619479.5076814,12.0,0.0,4.0,2.0,1.0,0.0,7.0,-6.0
1701619479.5376723,-20.0,-5.0,13.0,14.0,-3.0,0.0,-5.0,-2.0
1701619479.5376723,7.0,1.0,-3.0,2.0,3.0,-3.0,-3.0,-3.0
1701619479.5376723,-3.0,-9.0,-11.0,-6.0,-5.0,2.0,-5.0,44.0
1701619479.5376723,-7.0,4.0,1.0,2.0,0.0,-2.0,-12.0,-58.0
1701619479.5376723,-10.0,-4.0,-1.0,-2.0,0.0,1.0,9.0,1.0
1701619479.5376723,11.0,-1.0,-9.0,-4.0,2.0,1.0,-6.0,-20.0
1701619479.5480042,-8.0,-1.0,19.0,2.0,-3.0,-1.0,19.0,-3.0
1701619479.5480042,7.0,-2.0,-11.0,0.0,0.0,0.0,-3.0,12.0
1701619479.5680888,-2.0,2.0,-11.0,-5.0,-2.0,-2.0,-7.0,4.0
1701619479.5680888,-10.0,-4.0,-1.0,-8.0,-4.0,-5.0,-13.0,-5.0
1701619479.5680888,-13.0,-6.0,7.0,-2.0,-2.0,0.0,5.0,-14.0
1701619479.5680888,-6.0,-2.0,-3.0,6.0,1.0,-1.0,2.0,9.0
1701619479.5976758,14.0,3.0,-4.0,-11.0,0.0,1.0,9.0,0.0
1701619479.5976758,-15.0,-3.0,0.0,-1.0,-2.0,-1.0,3.0,11.0
1701619479.5976758,11.0,0.0,0.0,1.0,0.0,-3.0,-11.0,-8.0
1701619479.5976758,7.0,1.0,-2.0,-4.0,0.0,1.0,4.0,4.0
1701619479.5976758,10.0,-2.0,-4.0,0.0,-1.0,-1.0,1.0,0.0
1701619479.5976758,8.0,4.0,6.0,1.0,-1.0,0.0,-1.0,3.0
1701619479.608001,-5.0,0.0,-3.0,-1.0,-1.0,-2.0,-6.0,-2.0
1701619479.608001,-9.0,-2.0,-1.0,1.0,-1.0,-3.0,-4.0,-5.0
1701619479.627676,11.0,5.0,0.0,-2.0,-2.0,0.0,-1.0,-11.0
1701619479.627676,-10.0,-7.0,-1.0,0.0,0.0,1.0,6.0,10.0
1701619479.627676,16.0,3.0,-1.0,5.0,2.0,-2.0,0.0,-22.0
1701619479.627676,2.0,-1.0,-2.0,-4.0,-2.0,1.0,13.0,29.0
1701619479.6479604,17.0,2.0,1.0,0.0,1.0,2.0,-4.0,-18.0
1701619479.6479604,-10.0,1.0,-3.0,-5.0,-3.0,-1.0,-3.0,30.0
1701619479.6479604,-6.0,0.0,-1.0,0.0,-1.0,-1.0,-1.0,-13.0
1701619479.6479604,-2.0,0.0,2.0,0.0,-3.0,-2.0,1.0,4.0
1701619479.6576755,1.0,0.0,-2.0,-2.0,1.0,-2.0,-2.0,12.0
1701619479.6576755,5.0,-1.0,-2.0,1.0,1.0,3.0,1.0,-24.0
1701619479.6679826,-9.0,-3.0,-5.0,-6.0,-2.0,-5.0,-4.0,9.0
1701619479.6679826,-4.0,-1.0,2.0,0.0,-3.0,0.0,-3.0,4.0
1701619479.687673,-2.0,-9.0,-9.0,-5.0,-5.0,-3.0,-5.0,-12.0
1701619479.687673,-3.0,5.0,4.0,0.0,-1.0,0.0,-1.0,1.0
1701619479.687673,-6.0,-2.0,-4.0,-2.0,0.0,0.0,-2.0,-1.0
1701619479.687673,5.0,-1.0,-1.0,-1.0,0.0,-1.0,-5.0,-5.0
1701619479.718577,-20.0,-3.0,1.0,0.0,1.0,0.0,-3.0,-8.0
1701619479.718577,-2.0,-4.0,-3.0,-3.0,-2.0,-5.0,1.0,3.0
1701619479.7206268,5.0,1.0,-2.0,2.0,2.0,1.0,-5.0,-6.0
1701619479.7206268,3.0,-5.0,-2.0,0.0,-1.0,0.0,-2.0,2.0
1701619479.7245412,-31.0,-2.0,5.0,-2.0,0.0,-2.0,-2.0,-13.0
1701619479.725568,6.0,4.0,-1.0,0.0,0.0,0.0,1.0,2.0
1701619479.733572,5.0,7.0,7.0,-2.0,-4.0,-2.0,-2.0,0.0
1701619479.733572,-10.0,-8.0,-10.0,-2.0,-1.0,-3.0,-7.0,-4.0
1701619479.763683,6.0,-8.0,-5.0,-1.0,-1.0,-1.0,4.0,1.0
1701619479.763683,-17.0,-6.0,1.0,-2.0,-2.0,-2.0,-2.0,-5.0
1701619479.763683,2.0,1.0,-3.0,0.0,-1.0,0.0,-1.0,-1.0
1701619479.763683,4.0,10.0,5.0,0.0,-1.0,-1.0,-1.0,8.0
1701619479.763683,13.0,-8.0,0.0,-1.0,-2.0,-2.0,-3.0,-8.0
1701619479.763683,0.0,4.0,-1.0,0.0,1.0,1.0,1.0,4.0
1701619479.763683,-2.0,-9.0,-1.0,-3.0,-1.0,-2.0,-3.0,-2.0
1701619479.763683,-4.0,3.0,-6.0,-1.0,-1.0,-2.0,0.0,-4.0
1701619479.7844524,-4.0,9.0,4.0,-1.0,-2.0,0.0,0.0,15.0
1701619479.7844524,7.0,1.0,1.0,-1.0,-1.0,0.0,0.0,-3.0
1701619479.7844524,-3.0,-3.0,-1.0,-3.0,-1.0,0.0,0.0,1.0
1701619479.7844524,5.0,0.0,4.0,0.0,-2.0,0.0,3.0,0.0
1701619479.8040397,10.0,5.0,-8.0,-1.0,-2.0,-3.0,-2.0,-5.0
1701619479.8040397,-15.0,-18.0,-5.0,0.0,-1.0,-4.0,-4.0,-5.0
1701619479.8040397,10.0,-3.0,5.0,2.0,0.0,-1.0,-1.0,-3.0
1701619479.8040397,-10.0,-6.0,-3.0,-2.0,0.0,-1.0,-4.0,-3.0
1701619479.8240483,7.0,4.0,2.0,-3.0,-2.0,0.0,0.0,4.0
1701619479.8240483,3.0,3.0,-2.0,-2.0,-1.0,-2.0,-1.0,4.0
1701619479.8240483,-12.0,-5.0,-6.0,-1.0,0.0,1.0,0.0,2.0
1701619479.8240483,4.0,14.0,5.0,1.0,2.0,-1.0,-2.0,-11.0
1701619479.8443913,0.0,-2.0,0.0,0.0,-2.0,-3.0,-3.0,7.0
1701619479.8443913,15.0,-1.0,-5.0,-1.0,0.0,0.0,-2.0,-16.0
1701619479.854044,-14.0,-2.0,0.0,-3.0,-2.0,-2.0,2.0,10.0
1701619479.854044,1.0,0.0,3.0,2.0,-3.0,0.0,-1.0,2.0
1701619479.8840392,-2.0,0.0,1.0,-2.0,-1.0,-1.0,-2.0,-10.0
1701619479.8840392,-10.0,-5.0,-8.0,-3.0,-3.0,0.0,0.0,2.0
1701619479.8840392,1.0,5.0,1.0,0.0,0.0,1.0,-3.0,-5.0
1701619479.8840392,4.0,-4.0,-1.0,-1.0,-1.0,-2.0,0.0,4.0
1701619479.8840392,-13.0,-1.0,1.0,1.0,2.0,0.0,0.0,-1.0
1701619479.8840392,12.0,-4.0,1.0,-2.0,-1.0,-1.0,-2.0,5.0
1701619479.8840392,-6.0,1.0,-1.0,-2.0,0.0,-1.0,-2.0,-8.0
1701619479.8840392,-5.0,-5.0,-5.0,-1.0,-1.0,-2.0,-1.0,5.0
1701619479.9040399,13.0,-4.0,2.0,-1.0,0.0,-1.0,-2.0,-2.0
1701619479.9040399,-17.0,5.0,-2.0,0.0,1.0,-1.0,1.0,-4.0
1701619479.9140377,7.0,-5.0,0.0,-2.0,-3.0,-1.0,-1.0,16.0
1701619479.9140377,11.0,2.0,6.0,1.0,0.0,1.0,-1.0,-8.0
1701619479.9244547,-4.0,-1.0,-4.0,-1.0,-1.0,-1.0,1.0,1.0
1701619479.9244547,18.0,0.0,6.0,1.0,-1.0,0.0,0.0,-10.0
1701619479.9244547,-8.0,10.0,-4.0,1.0,0.0,0.0,-3.0,2.0
1701619479.9244547,-15.0,-22.0,-4.0,-3.0,-2.0,-3.0,-2.0,3.0
1701619479.944383,1.0,3.0,-2.0,-1.0,-2.0,0.0,-1.0,-2.0
1701619479.944383,-3.0,3.0,3.0,-2.0,1.0,-2.0,1.0,-6.0
1701619479.944383,5.0,6.0,-2.0,-2.0,-1.0,-2.0,0.0,-6.0
1701619479.944383,-4.0,-10.0,-5.0,-3.0,-2.0,-1.0,-3.0,-2.0
1701619479.964042,-8.0,5.0,6.0,1.0,-1.0,-1.0,1.0,1.0
1701619479.964042,9.0,-1.0,-6.0,-1.0,1.0,0.0,-1.0,14.0
1701619479.964042,-3.0,-5.0,-2.0,2.0,0.0,0.0,-3.0,-13.0
1701619479.964042,0.0,4.0,2.0,-2.0,-2.0,-1.0,-1.0,1.0
1701619479.994049,3.0,-7.0,-6.0,-2.0,-2.0,0.0,-2.0,-1.0
1701619479.994049,-21.0,-1.0,0.0,-1.0,-2.0,-1.0,1.0,3.0
1701619479.994049,16.0,-2.0,0.0,0.0,0.0,-1.0,0.0,2.0
1701619479.994049,-1.0,1.0,-3.0,0.0,-2.0,-1.0,-1.0,-5.0
1701619480.004328,-3.0,0.0,0.0,-1.0,-1.0,0.0,-3.0,0.0
1701619480.004328,-13.0,1.0,-2.0,-1.0,1.0,-3.0,-1.0,-12.0
1701619480.004328,13.0,-6.0,-2.0,-1.0,-2.0,-1.0,-2.0,-4.0
1701619480.004328,-4.0,0.0,-8.0,-3.0,-1.0,-2.0,0.0,-4.0
1701619480.0340414,-5.0,2.0,3.0,-1.0,-1.0,-1.0,0.0,-4.0
1701619480.0340414,5.0,-3.0,-1.0,-1.0,-1.0,2.0,-1.0,-2.0
1701619480.044038,-10.0,-5.0,0.0,-2.0,-2.0,-2.0,-1.0,-4.0
1701619480.044038,-1.0,2.0,1.0,0.0,-2.0,0.0,-1.0,-1.0
1701619480.044038,3.0,-3.0,-2.0,0.0,-2.0,-2.0,-2.0,-10.0
1701619480.044038,-12.0,-4.0,-4.0,-1.0,-3.0,-1.0,-3.0,7.0
1701619480.044038,-3.0,0.0,-1.0,-1.0,0.0,-2.0,-2.0,-3.0
1701619480.044038,1.0,9.0,0.0,3.0,2.0,0.0,-3.0,-4.0
1701619480.0640414,-12.0,0.0,2.0,-1.0,-1.0,-1.0,0.0,4.0
1701619480.0640414,8.0,2.0,1.0,1.0,-1.0,-4.0,-3.0,-14.0
1701619480.0640414,-5.0,-3.0,-2.0,-3.0,-1.0,-1.0,-2.0,-6.0
1701619480.0640414,2.0,6.0,0.0,-3.0,1.0,-1.0,1.0,-1.0
1701619480.0840719,-9.0,-7.0,-4.0,0.0,-2.0,-1.0,0.0,-1.0
1701619480.0840719,20.0,-1.0,0.0,0.0,0.0,-1.0,-1.0,0.0
1701619480.0943289,-7.0,0.0,-2.0,-2.0,-2.0,0.0,1.0,1.0
1701619480.0943289,4.0,-4.0,-2.0,-3.0,-1.0,-1.0,1.0,6.0
1701619480.1043005,6.0,2.0,0.0,-1.0,-1.0,0.0,0.0,1.0
1701619480.1043005,1.0,-2.0,5.0,0.0,-1.0,-2.0,0.0,4.0
1701619480.1143453,-21.0,-5.0,-8.0,-1.0,-2.0,-1.0,-2.0,-4.0
1701619480.1143453,-20.0,-5.0,-1.0,0.0,-2.0,0.0,-3.0,5.0
1701619480.124265,12.0,0.0,-1.0,-2.0,1.0,0.0,-1.0,7.0
1701619480.124265,-2.0,7.0,2.0,-1.0,1.0,1.0,-3.0,0.0
1701619480.124265,7.0,-4.0,2.0,-1.0,-1.0,-1.0,-2.0,0.0
1701619480.124265,-4.0,-10.0,-7.0,-1.0,0.0,-3.0,-1.0,-7.0
1701619480.1640387,-3.0,0.0,1.0,-2.0,-3.0,-3.0,-1.0,2.0
1701619480.1640387,-7.0,0.0,-3.0,0.0,-2.0,0.0,1.0,1.0
1701619480.1640387,3.0,0.0,0.0,0.0,1.0,0.0,-3.0,-7.0
1701619480.1640387,4.0,0.0,1.0,-3.0,-1.0,-2.0,-1.0,3.0
1701619480.1640387,2.0,-2.0,-5.0,-1.0,1.0,0.0,-1.0,0.0
1701619480.1640387,3.0,0.0,1.0,0.0,-1.0,0.0,-1.0,3.0
1701619480.1640387,-11.0,-4.0,-1.0,-3.0,-2.0,-1.0,0.0,1.0
1701619480.1640387,17.0,3.0,4.0,0.0,-1.0,-1.0,0.0,4.0
1701619480.2040443,-4.0,-3.0,-3.0,-1.0,-2.0,-3.0,-3.0,6.0
1701619480.2040443,-24.0,-1.0,-5.0,0.0,0.0,0.0,-3.0,-9.0
1701619480.2040443,10.0,-3.0,4.0,0.0,-1.0,-3.0,1.0,13.0
1701619480.2040443,-2.0,-2.0,4.0,0.0,-2.0,-1.0,-3.0,-8.0
1701619480.214043,-10.0,-4.0,-3.0,0.0,0.0,0.0,0.0,-3.0
1701619480.214043,3.0,1.0,-7.0,-1.0,0.0,0.0,0.0,2.0
1701619480.214043,-4.0,-10.0,-3.0,-2.0,-2.0,-2.0,0.0,-8.0
1701619480.214043,2.0,-2.0,-5.0,1.0,0.0,0.0,1.0,7.0
1701619480.2243743,18.0,3.0,8.0,2.0,1.0,0.0,-1.0,-7.0
1701619480.2243743,-12.0,-6.0,-2.0,-4.0,-3.0,-2.0,-2.0,11.0
1701619480.2243743,2.0,0.0,-2.0,0.0,2.0,-2.0,1.0,2.0
1701619480.2243743,0.0,4.0,1.0,-3.0,-4.0,-2.0,0.0,-8.0
1701619480.268244,-3.0,0.0,-3.0,-1.0,-1.0,1.0,-3.0,-2.0
1701619480.268244,16.0,-2.0,-2.0,-1.0,0.0,-1.0,-3.0,0.0
1701619480.268244,-1.0,3.0,0.0,-3.0,0.0,-2.0,-3.0,3.0
1701619480.268244,-7.0,-3.0,1.0,-2.0,-1.0,0.0,-2.0,-5.0
1701619480.2728891,14.0,3.0,-2.0,-1.0,-2.0,-2.0,-3.0,-10.0
1701619480.2728891,-5.0,-4.0,-1.0,1.0,-1.0,-2.0,1.0,-1.0
1701619480.2746706,-12.0,-3.0,-4.0,-1.0,-1.0,1.0,-2.0,6.0
1701619480.2746706,16.0,-1.0,-5.0,-1.0,1.0,0.0,0.0,-6.0
1701619480.2869647,-9.0,-12.0,-1.0,-2.0,-2.0,-3.0,-3.0,-8.0
1701619480.2869647,0.0,6.0,2.0,-1.0,-1.0,-3.0,-1.0,-3.0
1701619480.2869647,12.0,16.0,-7.0,1.0,0.0,0.0,0.0,-5.0
1701619480.2869647,-14.0,-21.0,-1.0,-3.0,-2.0,-3.0,0.0,0.0
1701619480.3065732,-17.0,-13.0,-9.0,-3.0,0.0,-3.0,-1.0,-4.0
1701619480.3065732,3.0,2.0,6.0,0.0,0.0,0.0,0.0,-2.0
1701619480.3065732,-2.0,1.0,-1.0,-1.0,-1.0,-2.0,-1.0,2.0
1701619480.3065732,6.0,7.0,-1.0,0.0,1.0,-3.0,0.0,1.0
1701619480.326574,-5.0,-5.0,-8.0,-2.0,-3.0,-2.0,-2.0,-1.0
1701619480.326574,-5.0,1.0,9.0,-3.0,-1.0,-1.0,-1.0,1.0
1701619480.326574,15.0,-7.0,-8.0,0.0,-1.0,1.0,-2.0,-10.0
1701619480.326574,-10.0,-8.0,-1.0,0.0,-2.0,0.0,-1.0,0.0
1701619480.3469343,-6.0,4.0,2.0,-1.0,-2.0,0.0,-1.0,4.0
1701619480.3469343,0.0,0.0,1.0,-2.0,-2.0,0.0,-2.0,-15.0
1701619480.3565736,-3.0,1.0,4.0,-1.0,-2.0,0.0,-1.0,8.0
1701619480.3565736,-4.0,7.0,2.0,1.0,-1.0,0.0,-2.0,4.0
1701619480.3665974,-16.0,2.0,-2.0,-1.0,-2.0,-2.0,1.0,0.0
1701619480.3665974,14.0,-16.0,-11.0,-2.0,-3.0,0.0,-2.0,-3.0
1701619480.3665974,-1.0,-2.0,3.0,-1.0,-1.0,-1.0,-2.0,1.0
1701619480.3665974,-2.0,-5.0,-3.0,0.0,2.0,-1.0,-1.0,-3.0
1701619480.387037,1.0,11.0,6.0,0.0,0.0,-1.0,-1.0,0.0
1701619480.387037,-5.0,-8.0,-6.0,-4.0,-2.0,-4.0,-5.0,-5.0
1701619480.387037,6.0,-2.0,0.0,-1.0,0.0,-2.0,0.0,1.0
1701619480.387037,-2.0,0.0,0.0,0.0,0.0,0.0,-1.0,4.0
1701619480.407102,0.0,3.0,0.0,1.0,-1.0,-1.0,-1.0,2.0
1701619480.407102,-6.0,-4.0,-3.0,-2.0,1.0,-2.0,-1.0,-6.0
1701619480.417049,2.0,-2.0,0.0,0.0,0.0,-1.0,0.0,-6.0
1701619480.417049,-2.0,4.0,4.0,-1.0,-1.0,-1.0,1.0,-3.0
1701619480.4270816,6.0,-5.0,-17.0,-1.0,-1.0,0.0,-1.0,1.0
1701619480.4270816,-5.0,4.0,2.0,-3.0,-3.0,-2.0,-2.0,0.0
1701619480.4270816,-15.0,-6.0,-6.0,0.0,-2.0,-1.0,-2.0,-5.0
1701619480.4270816,-4.0,7.0,5.0,-5.0,-3.0,-2.0,-2.0,2.0
1701619480.4472225,9.0,-7.0,0.0,1.0,-1.0,1.0,1.0,21.0
1701619480.4472225,6.0,7.0,3.0,0.0,-2.0,0.0,0.0,0.0
1701619480.4472225,-7.0,-15.0,-3.0,-2.0,0.0,0.0,0.0,-6.0
1701619480.4472225,-2.0,-7.0,-8.0,-2.0,-1.0,1.0,0.0,5.0
1701619480.4670517,2.0,10.0,10.0,2.0,1.0,-1.0,0.0,-18.0
1701619480.4670517,-35.0,-6.0,-2.0,-4.0,-3.0,-4.0,-3.0,2.0
1701619480.4770484,13.0,4.0,3.0,0.0,-2.0,-1.0,-1.0,2.0
1701619480.4770484,-2.0,-1.0,0.0,-1.0,-2.0,-2.0,-1.0,-3.0
1701619480.487438,-6.0,-5.0,-14.0,-5.0,-2.0,-1.0,-6.0,-7.0
1701619480.487438,9.0,0.0,-3.0,0.0,3.0,2.0,-1.0,0.0
1701619480.487438,-6.0,5.0,2.0,-2.0,0.0,-1.0,-1.0,1.0
1701619480.487438,1.0,1.0,1.0,0.0,-2.0,-1.0,-3.0,-8.0
1701619480.5074713,7.0,-1.0,4.0,-1.0,-3.0,-2.0,-1.0,-7.0
1701619480.5074713,2.0,3.0,-2.0,2.0,-1.0,-2.0,0.0,2.0
1701619480.5074713,-11.0,-2.0,1.0,-4.0,0.0,-3.0,0.0,-9.0
1701619480.5074713,19.0,11.0,-4.0,0.0,-1.0,-1.0,0.0,13.0
1701619480.527048,-5.0,5.0,10.0,3.0,0.0,1.0,0.0,2.0
1701619480.527048,0.0,-15.0,-11.0,-6.0,-1.0,0.0,0.0,-9.0
1701619480.5373158,11.0,6.0,1.0,-2.0,-2.0,-1.0,3.0,22.0
1701619480.5373158,-9.0,-2.0,5.0,0.0,-2.0,-4.0,-5.0,-12.0
1701619480.5474982,1.0,-1.0,-11.0,-3.0,-1.0,-1.0,0.0,-6.0
1701619480.5474982,-5.0,8.0,-10.0,-1.0,-1.0,0.0,1.0,5.0
1701619480.5474982,8.0,5.0,4.0,0.0,0.0,-1.0,-1.0,-5.0
1701619480.5474982,-8.0,-8.0,-4.0,-1.0,0.0,-1.0,-2.0,-6.0
1701619480.5870497,2.0,4.0,3.0,-1.0,-2.0,-1.0,0.0,7.0
1701619480.5870497,-5.0,-16.0,5.0,-1.0,-2.0,0.0,1.0,-5.0
1701619480.5870497,-8.0,-10.0,-7.0,-1.0,1.0,0.0,-1.0,-4.0
1701619480.5870497,3.0,12.0,2.0,1.0,0.0,-4.0,-2.0,-2.0
1701619480.5870497,-16.0,-14.0,-7.0,-5.0,0.0,0.0,1.0,-2.0
1701619480.5870497,-10.0,5.0,8.0,2.0,-1.0,-1.0,1.0,0.0
1701619480.5970507,15.0,8.0,7.0,-1.0,0.0,0.0,-3.0,-1.0
1701619480.5970507,-3.0,-7.0,-6.0,0.0,1.0,-1.0,0.0,15.0
1701619480.6074722,-19.0,-4.0,-5.0,-3.0,-2.0,-3.0,-2.0,7.0
1701619480.6074722,3.0,11.0,-2.0,-1.0,0.0,0.0,0.0,7.0
1701619480.6074722,-6.0,-18.0,-3.0,0.0,-2.0,-1.0,-1.0,-5.0
1701619480.6074722,-2.0,2.0,1.0,-4.0,-1.0,-1.0,2.0,-3.0
1701619480.647048,17.0,2.0,1.0,0.0,0.0,0.0,-1.0,-9.0
1701619480.647048,-6.0,-6.0,-7.0,0.0,-1.0,-3.0,-3.0,2.0
1701619480.647048,-4.0,2.0,1.0,-2.0,-3.0,-1.0,0.0,5.0
1701619480.647048,-4.0,-11.0,-6.0,-2.0,-2.0,0.0,-2.0,-7.0
1701619480.647048,-1.0,4.0,5.0,-1.0,1.0,-1.0,0.0,0.0
1701619480.647048,6.0,4.0,5.0,-1.0,0.0,0.0,1.0,2.0
1701619480.647048,-3.0,1.0,-6.0,-1.0,2.0,0.0,-1.0,-6.0
1701619480.647048,-4.0,4.0,7.0,0.0,-2.0,-1.0,0.0,-10.0
1701619480.667396,4.0,1.0,4.0,0.0,-2.0,0.0,-3.0,3.0
1701619480.667396,9.0,6.0,10.0,2.0,1.0,-2.0,-1.0,-10.0
1701619480.667396,-33.0,-6.0,-22.0,-4.0,0.0,-2.0,-4.0,-4.0
1701619480.667396,3.0,5.0,5.0,3.0,-1.0,1.0,0.0,-7.0
1701619480.7070494,-9.0,-1.0,-10.0,-2.0,-3.0,-1.0,0.0,-4.0
1701619480.7070494,-1.0,-14.0,-1.0,-1.0,-1.0,-1.0,-1.0,11.0
1701619480.7070494,-6.0,-5.0,-2.0,-1.0,-4.0,-3.0,-4.0,-13.0
1701619480.7070494,-1.0,-6.0,-3.0,-2.0,0.0,0.0,1.0,5.0
1701619480.7070494,2.0,0.0,1.0,-1.0,-1.0,-2.0,-3.0,-3.0
1701619480.7070494,16.0,5.0,-3.0,-2.0,-2.0,-2.0,-2.0,2.0
1701619480.7070494,-18.0,4.0,5.0,0.0,0.0,1.0,2.0,7.0
1701619480.7070494,17.0,-1.0,-7.0,-1.0,-2.0,-1.0,-1.0,0.0
1701619480.7274134,-5.0,4.0,5.0,-2.0,-1.0,-1.0,-1.0,-4.0
1701619480.7274134,0.0,-3.0,-3.0,-1.0,-1.0,-2.0,-2.0,2.0
1701619480.7274134,10.0,1.0,2.0,0.0,-2.0,0.0,-1.0,-7.0
1701619480.7274134,1.0,5.0,1.0,0.0,1.0,-2.0,0.0,11.0
1701619480.7474022,-8.0,-15.0,-5.0,0.0,-1.0,-1.0,1.0,0.0
1701619480.7474022,18.0,-2.0,-2.0,0.0,-1.0,-2.0,-4.0,-7.0
1701619480.7474022,-12.0,1.0,2.0,-2.0,-3.0,-2.0,0.0,0.0
1701619480.7474022,-2.0,-7.0,-3.0,-4.0,-1.0,-1.0,-2.0,-1.0
1701619480.7670538,0.0,4.0,1.0,0.0,-1.0,-1.0,2.0,-8.0
1701619480.7670538,-7.0,2.0,1.0,-1.0,1.0,1.0,1.0,7.0
1701619480.7966015,19.0,19.0,-1.0,2.0,0.0,-1.0,-2.0,4.0
1701619480.7966015,-3.0,26.0,11.0,-1.0,-3.0,-1.0,-2.0,-4.0
1701619480.7966015,-1.0,-23.0,-6.0,-4.0,0.0,-1.0,-2.0,4.0
1701619480.7966015,-7.0,5.0,-3.0,-2.0,-2.0,-1.0,-2.0,-10.0
1701619480.7966015,9.0,-7.0,-4.0,0.0,0.0,0.0,-2.0,-5.0
1701619480.7966015,-23.0,-12.0,-6.0,0.0,0.0,0.0,0.0,8.0
1701619480.8089871,4.0,9.0,6.0,1.0,-2.0,-3.0,-1.0,-7.0
1701619480.8089871,8.0,-4.0,-3.0,-1.0,0.0,-1.0,-1.0,6.0
1701619480.8089871,16.0,6.0,9.0,0.0,-1.0,-3.0,-2.0,-10.0
1701619480.8089871,-23.0,-2.0,-11.0,-2.0,-2.0,-2.0,-4.0,4.0
1701619480.8189886,-15.0,-8.0,5.0,1.0,0.0,0.0,2.0,0.0
1701619480.8189886,1.0,-1.0,3.0,0.0,-2.0,-1.0,-1.0,-3.0
1701619480.8492625,-2.0,1.0,1.0,-3.0,-2.0,-2.0,0.0,0.0
1701619480.8492625,18.0,-7.0,-6.0,-2.0,-1.0,-2.0,-1.0,2.0
1701619480.8492625,-1.0,3.0,-2.0,-2.0,0.0,1.0,-2.0,-3.0
1701619480.8492625,-11.0,2.0,5.0,-1.0,-2.0,-3.0,-2.0,-7.0
1701619480.8492625,0.0,-4.0,0.0,-2.0,0.0,0.0,0.0,3.0
1701619480.8492625,-1.0,-4.0,-1.0,-2.0,-1.0,-1.0,0.0,-6.0
1701619480.8890557,13.0,4.0,6.0,2.0,0.0,0.0,0.0,7.0
1701619480.8890557,-3.0,-5.0,-20.0,-3.0,-2.0,-1.0,0.0,-1.0
1701619480.8890557,-2.0,9.0,2.0,-1.0,-3.0,0.0,0.0,5.0
1701619480.8890557,-5.0,-13.0,-10.0,-1.0,1.0,0.0,0.0,-18.0
1701619480.8890557,9.0,4.0,8.0,-1.0,-3.0,-4.0,-1.0,19.0
1701619480.8890557,-17.0,-16.0,1.0,-2.0,-1.0,-3.0,-3.0,-2.0
1701619480.8994362,-21.0,-5.0,-10.0,0.0,-1.0,0.0,0.0,-1.0
1701619480.8994362,13.0,0.0,6.0,-1.0,-1.0,0.0,-1.0,-3.0
1701619480.9094687,-2.0,-5.0,-12.0,-1.0,-1.0,-3.0,-4.0,-3.0
1701619480.9094687,2.0,1.0,1.0,-2.0,-2.0,-2.0,0.0,0.0
1701619480.9094687,1.0,-6.0,-1.0,-3.0,-2.0,-2.0,-2.0,0.0
1701619480.9094687,-4.0,-5.0,0.0,1.0,-4.0,-1.0,-2.0,-1.0
1701619480.929058,3.0,5.0,1.0,-2.0,0.0,-1.0,-3.0,-5.0
1701619480.929058,-1.0,1.0,0.0,0.0,1.0,0.0,0.0,-5.0
1701619480.929058,-2.0,-4.0,-6.0,-2.0,-2.0,-3.0,-1.0,6.0
1701619480.929058,6.0,16.0,9.0,0.0,0.0,1.0,0.0,-6.0
1701619480.9390552,3.0,-1.0,-4.0,0.0,0.0,-2.0,0.0,-3.0
1701619480.9390552,-8.0,-10.0,0.0,0.0,-2.0,0.0,-1.0,-2.0
1701619480.9493418,0.0,-5.0,-2.0,-2.0,-2.0,-2.0,0.0,-1.0
1701619480.9493418,-1.0,-4.0,-3.0,1.0,-2.0,-2.0,-3.0,0.0
1701619480.9793577,2.0,5.0,-1.0,-1.0,-1.0,-1.0,-1.0,-3.0
1701619480.9793577,-6.0,-7.0,3.0,0.0,-2.0,1.0,1.0,-1.0
1701619480.9793577,0.0,-1.0,-5.0,-2.0,-2.0,-3.0,-2.0,5.0
1701619480.9793577,-20.0,-4.0,-2.0,0.0,0.0,-2.0,-2.0,-10.0
1701619480.989545,7.0,3.0,1.0,-2.0,-2.0,-1.0,-1.0,0.0
1701619480.989545,7.0,4.0,1.0,-2.0,-2.0,-2.0,-1.0,6.0
1701619480.989545,1.0,-3.0,3.0,0.0,0.0,0.0,-1.0,-18.0
1701619480.989545,-8.0,-3.0,-6.0,-1.0,-3.0,-2.0,-2.0,4.0
1701619480.9995708,-9.0,-8.0,-7.0,-1.0,0.0,-2.0,0.0,2.0
1701619480.9995708,1.0,2.0,2.0,-1.0,-1.0,-1.0,0.0,-9.0
1701619481.009541,-4.0,-7.0,5.0,0.0,0.0,0.0,0.0,2.0
1701619481.009541,7.0,-5.0,-8.0,-2.0,-1.0,-1.0,-1.0,3.0
1701619481.04936,-6.0,3.0,-7.0,-1.0,-2.0,0.0,2.0,4.0
1701619481.04936,10.0,8.0,4.0,0.0,0.0,-1.0,-5.0,-1.0
1701619481.04936,3.0,-9.0,-2.0,-2.0,1.0,-1.0,-1.0,-8.0
1701619481.04936,-2.0,-2.0,2.0,-2.0,-2.0,-1.0,-1.0,4.0
1701619481.04936,-2.0,-1.0,3.0,1.0,-2.0,0.0,-1.0,0.0
1701619481.04936,-6.0,-6.0,-14.0,-4.0,-1.0,-3.0,-1.0,-2.0
1701619481.04936,1.0,2.0,0.0,1.0,0.0,-1.0,-3.0,1.0
1701619481.04936,-3.0,1.0,1.0,-2.0,2.0,-1.0,-1.0,-13.0
