1701619338.6319516,0.0,-1.0,2.0,15.0,4.0,0.0,0.0,-2.0
1701619338.6319516,-3.0,-12.0,-9.0,6.0,4.0,0.0,-1.0,-2.0
1701619338.6319516,1.0,41.0,11.0,-1.0,1.0,-1.0,0.0,-1.0
1701619338.6319516,4.0,13.0,-8.0,-3.0,-3.0,-1.0,-1.0,-1.0
1701619338.641994,-5.0,-8.0,-2.0,8.0,-2.0,-1.0,-1.0,-3.0
1701619338.641994,4.0,33.0,11.0,-4.0,-1.0,-1.0,-2.0,0.0
1701619338.651991,-4.0,-4.0,0.0,15.0,3.0,1.0,0.0,1.0
1701619338.651991,-2.0,36.0,29.0,-9.0,-3.0,-1.0,1.0,1.0
1701619338.6620553,1.0,-4.0,-1.0,6.0,3.0,-1.0,1.0,3.0
1701619338.6620553,2.0,-12.0,15.0,-2.0,0.0,1.0,5.0,0.0
1701619338.672195,-1.0,-25.0,3.0,12.0,-2.0,-3.0,-6.0,-3.0
1701619338.672195,1.0,-16.0,-2.0,-1.0,-2.0,-2.0,-1.0,1.0
1701619338.6821773,1.0,10.0,10.0,-15.0,-7.0,-2.0,-4.0,-1.0
1701619338.6821773,-1.0,-4.0,-18.0,7.0,4.0,0.0,0.0,-1.0
1701619338.6919522,-3.0,-12.0,-21.0,-17.0,-7.0,-6.0,-4.0,-2.0
1701619338.6919522,-2.0,-13.0,-21.0,-29.0,-6.0,-4.0,-1.0,-1.0
1701619338.7019837,8.0,43.0,-23.0,-5.0,9.0,6.0,3.0,3.0
1701619338.7019837,7.0,19.0,19.0,-9.0,-7.0,-3.0,-4.0,-2.0
1701619338.711952,-14.0,4.0,36.0,36.0,9.0,6.0,4.0,7.0
1701619338.711952,5.0,41.0,-34.0,16.0,-7.0,-5.0,-3.0,-9.0
1701619338.7220032,-9.0,-27.0,24.0,2.0,-4.0,-5.0,-3.0,-2.0
1701619338.7220032,7.0,4.0,-73.0,-32.0,-5.0,-4.0,-6.0,-6.0
1701619338.7319858,1.0,-46.0,-1.0,2.0,-1.0,-1.0,-4.0,3.0
1701619338.7319858,-8.0,-15.0,30.0,4.0,1.0,1.0,2.0,-5.0
1701619338.7481916,-7.0,-13.0,0.0,9.0,0.0,0.0,3.0,5.0
1701619338.7481916,-6.0,1.0,16.0,20.0,5.0,1.0,6.0,-2.0
1701619338.7554927,2.0,11.0,14.0,-12.0,-6.0,-7.0,-29.0,-21.0
1701619338.756513,-2.0,-8.0,-41.0,-8.0,-4.0,2.0,10.0,21.0
1701619338.764638,12.0,-25.0,-13.0,11.0,8.0,2.0,3.0,-10.0
1701619338.764638,-41.0,-27.0,27.0,-4.0,-10.0,-3.0,22.0,-2.0
1701619338.774857,13.0,-5.0,-18.0,-13.0,-4.0,0.0,-16.0,-1.0
1701619338.774857,-4.0,15.0,43.0,7.0,1.0,-3.0,-6.0,-13.0
1701619338.8048737,-5.0,5.0,-50.0,-1.0,2.0,3.0,17.0,15.0
1701619338.8048737,20.0,-4.0,-2.0,5.0,5.0,7.0,12.0,8.0
1701619338.8048737,2.0,10.0,-13.0,-8.0,-3.0,-3.0,10.0,1.0
1701619338.8048737,-1.0,-10.0,0.0,-7.0,-4.0,-10.0,-19.0,-12.0
1701619338.8048737,-8.0,-5.0,23.0,4.0,-4.0,-5.0,-15.0,-10.0
1701619338.8048737,2.0,-6.0,-5.0,-1.0,-2.0,-8.0,-20.0,-6.0
1701619338.815146,-2.0,13.0,4.0,-3.0,-1.0,0.0,6.0,1.0
1701619338.815146,5.0,-18.0,-3.0,0.0,2.0,4.0,7.0,6.0
1701619338.8251743,4.0,21.0,-1.0,-6.0,-4.0,-1.0,7.0,6.0
1701619338.8251743,-3.0,-5.0,12.0,-6.0,0.0,4.0,-4.0,2.0
1701619338.835111,-1.0,4.0,7.0,9.0,9.0,5.0,4.0,1.0
1701619338.835111,0.0,-6.0,-52.0,-9.0,3.0,1.0,8.0,3.0
1701619338.8548765,-8.0,0.0,35.0,-11.0,-14.0,-7.0,-9.0,-7.0
1701619338.8548765,0.0,-1.0,-25.0,-19.0,5.0,3.0,-6.0,0.0
1701619338.8548765,-5.0,-8.0,11.0,15.0,-13.0,-9.0,3.0,-1.0
1701619338.8548765,1.0,9.0,31.0,17.0,6.0,2.0,-3.0,-2.0
1701619338.8748784,1.0,-1.0,16.0,17.0,0.0,-4.0,-8.0,-6.0
1701619338.8748784,5.0,32.0,8.0,4.0,1.0,-1.0,-4.0,2.0
1701619338.8748784,0.0,-6.0,-17.0,-20.0,3.0,4.0,6.0,1.0
1701619338.8748784,-9.0,-19.0,-87.0,-46.0,-8.0,-6.0,-4.0,-3.0
1701619338.8848767,-1.0,4.0,44.0,32.0,-3.0,-2.0,-5.0,-2.0
1701619338.8848767,-1.0,-13.0,2.0,-9.0,-7.0,-5.0,-6.0,-2.0
1701619338.9048784,-1.0,2.0,1.0,12.0,6.0,4.0,6.0,0.0
1701619338.9048784,1.0,-15.0,9.0,0.0,0.0,0.0,0.0,0.0
1701619338.9048784,1.0,-4.0,-30.0,-24.0,2.0,2.0,-2.0,-1.0
1701619338.9048784,0.0,-16.0,0.0,8.0,1.0,-1.0,-6.0,-4.0
1701619338.9048784,-3.0,-84.0,-13.0,-2.0,0.0,-2.0,-4.0,-4.0
1701619338.9048784,9.0,59.0,33.0,9.0,0.0,2.0,0.0,1.0
1701619338.9251738,-2.0,-38.0,-26.0,-4.0,0.0,1.0,0.0,-5.0
1701619338.9251738,-4.0,-13.0,7.0,7.0,-2.0,-3.0,1.0,-2.0
1701619338.935156,-6.0,-73.0,-24.0,-18.0,-9.0,-5.0,-4.0,-4.0
1701619338.935156,17.0,47.0,24.0,10.0,4.0,2.0,1.0,14.0
1701619338.9648812,-14.0,-13.0,-7.0,3.0,-1.0,0.0,-2.0,-16.0
1701619338.9648812,-5.0,13.0,18.0,2.0,-1.0,-1.0,-2.0,-1.0
1701619338.974877,-4.0,-3.0,-34.0,-6.0,1.0,-1.0,-4.0,1.0
1701619338.974877,-1.0,-46.0,6.0,2.0,-2.0,-1.0,-4.0,-6.0
1701619338.974877,-4.0,-37.0,-7.0,-12.0,-1.0,-2.0,9.0,11.0
1701619338.974877,7.0,-12.0,20.0,10.0,1.0,3.0,-3.0,-4.0
1701619338.974877,1.0,63.0,7.0,-6.0,-2.0,0.0,-11.0,-2.0
1701619338.974877,1.0,4.0,36.0,13.0,2.0,2.0,10.0,1.0
1701619338.9849114,4.0,40.0,-29.0,-5.0,2.0,5.0,3.0,7.0
1701619338.9849114,2.0,29.0,-12.0,-4.0,-2.0,-2.0,2.0,1.0
1701619338.9952822,6.0,50.0,31.0,-6.0,-6.0,-8.0,-11.0,0.0
1701619338.9952822,-11.0,-4.0,27.0,13.0,1.0,-1.0,-4.0,-1.0
1701619339.0251176,-1.0,-4.0,-29.0,-12.0,-4.0,-6.0,-13.0,-11.0
1701619339.0251176,0.0,-7.0,0.0,6.0,2.0,0.0,-2.0,0.0
1701619339.0351074,-6.0,8.0,-7.0,-5.0,-1.0,-2.0,0.0,-5.0
1701619339.0351074,2.0,10.0,24.0,2.0,0.0,-1.0,2.0,1.0
1701619339.0551481,1.0,-10.0,-33.0,0.0,-1.0,-1.0,2.0,3.0
1701619339.0551481,-2.0,53.0,-18.0,-7.0,-2.0,1.0,1.0,2.0
1701619339.0551481,3.0,-6.0,12.0,2.0,-9.0,-3.0,4.0,3.0
1701619339.0551481,-6.0,-16.0,-5.0,8.0,9.0,-1.0,-4.0,-7.0
1701619339.0848758,5.0,9.0,0.0,-9.0,2.0,2.0,4.0,0.0
1701619339.0848758,-3.0,-26.0,-17.0,-27.0,-8.0,-5.0,-8.0,-4.0
1701619339.0848758,2.0,4.0,-12.0,-8.0,0.0,2.0,10.0,4.0
1701619339.0848758,-3.0,-12.0,12.0,9.0,-9.0,-5.0,-4.0,-5.0
1701619339.0848758,3.0,23.0,35.0,24.0,4.0,1.0,-6.0,-1.0
1701619339.0848758,-2.0,-18.0,-13.0,-16.0,-12.0,-7.0,0.0,1.0
1701619339.0848758,-3.0,11.0,-6.0,-4.0,10.0,7.0,6.0,1.0
1701619339.0848758,-6.0,-19.0,-20.0,-4.0,-5.0,-5.0,-6.0,-5.0
1701619339.10517,2.0,3.0,19.0,7.0,11.0,1.0,-3.0,0.0
1701619339.10517,-3.0,-12.0,-1.0,6.0,0.0,-1.0,1.0,-2.0
1701619339.1151478,0.0,-2.0,-23.0,-12.0,-7.0,-5.0,0.0,-2.0
1701619339.1151478,-3.0,-7.0,-1.0,15.0,-13.0,-11.0,-5.0,-3.0
1701619339.1151478,0.0,6.0,13.0,-28.0,-9.0,-4.0,-2.0,0.0
1701619339.1151478,-1.0,-6.0,2.0,4.0,0.0,6.0,2.0,1.0
1701619339.1151478,0.0,10.0,-2.0,9.0,20.0,9.0,4.0,1.0
1701619339.1151478,-1.0,-10.0,-11.0,4.0,9.0,3.0,1.0,1.0
1701619339.144876,-2.0,4.0,9.0,-6.0,-10.0,-7.0,-2.0,0.0
1701619339.144876,-1.0,-9.0,5.0,-2.0,-5.0,-8.0,-5.0,-2.0
1701619339.144876,-2.0,19.0,-12.0,3.0,-5.0,-4.0,-1.0,-2.0
1701619339.144876,0.0,-8.0,9.0,-5.0,-1.0,0.0,-3.0,-1.0
1701619339.144876,5.0,-9.0,-18.0,-11.0,-9.0,-5.0,0.0,-3.0
1701619339.144876,-6.0,1.0,37.0,16.0,0.0,2.0,2.0,-1.0
1701619339.144876,0.0,21.0,-35.0,-13.0,-8.0,-3.0,-4.0,-2.0
1701619339.144876,-1.0,28.0,4.0,-6.0,1.0,-2.0,-11.0,-1.0
1701619339.165265,1.0,-3.0,13.0,18.0,6.0,9.0,22.0,2.0
1701619339.165265,6.0,47.0,6.0,23.0,8.0,-2.0,-31.0,2.0
1701619339.1748765,2.0,-9.0,22.0,-11.0,-10.0,-2.0,49.0,-1.0
1701619339.1748765,-3.0,-38.0,-24.0,-9.0,0.0,0.0,-28.0,-2.0
1701619339.184909,-3.0,-9.0,-20.0,1.0,-2.0,0.0,0.0,-2.0
1701619339.184909,-12.0,7.0,27.0,0.0,0.0,1.0,-21.0,-10.0
1701619339.2053375,5.0,29.0,15.0,9.0,-1.0,-6.0,-11.0,-1.0
1701619339.2053375,-6.0,19.0,12.0,-8.0,-2.0,3.0,14.0,-1.0
1701619339.2053375,8.0,32.0,36.0,20.0,3.0,3.0,8.0,3.0
1701619339.2053375,1.0,-52.0,-19.0,-2.0,3.0,1.0,13.0,3.0
1701619339.2053375,-3.0,-11.0,12.0,2.0,0.0,1.0,-10.0,2.0
1701619339.2053375,-1.0,-11.0,-28.0,-14.0,-3.0,-1.0,1.0,-2.0
1701619339.2284567,-1.0,9.0,30.0,14.0,4.0,-3.0,-14.0,-4.0
1701619339.2284567,0.0,-14.0,-17.0,-3.0,-2.0,-1.0,10.0,3.0
1701619339.2424552,-4.0,-21.0,-33.0,-20.0,-7.0,-4.0,-12.0,-4.0
1701619339.2424552,2.0,3.0,10.0,6.0,2.0,2.0,8.0,0.0
1701619339.2494936,-4.0,-20.0,24.0,10.0,1.0,0.0,-2.0,0.0
1701619339.2494936,-1.0,-6.0,-51.0,-21.0,-2.0,-2.0,3.0,0.0
1701619339.2574942,-1.0,2.0,26.0,20.0,-2.0,4.0,-1.0,-2.0
1701619339.2574942,-2.0,-14.0,-16.0,-7.0,0.0,3.0,3.0,-1.0
1701619339.2724564,0.0,3.0,-26.0,-6.0,2.0,-1.0,-6.0,1.0
1701619339.2724564,0.0,7.0,6.0,-5.0,-4.0,-5.0,5.0,-3.0
1701619339.273462,-4.0,-20.0,14.0,4.0,6.0,-2.0,-7.0,0.0
1701619339.273462,-4.0,-45.0,8.0,9.0,-5.0,-4.0,3.0,2.0
1701619339.287099,-7.0,10.0,21.0,-22.0,-7.0,-5.0,-12.0,7.0
1701619339.287099,4.0,-23.0,-29.0,31.0,8.0,5.0,6.0,-20.0
1701619339.3059006,-1.0,-16.0,-9.0,-23.0,0.0,0.0,-1.0,3.0
1701619339.3059006,-1.0,5.0,-11.0,-4.0,0.0,1.0,-2.0,-4.0
1701619339.3099005,2.0,-5.0,0.0,1.0,-2.0,-4.0,2.0,6.0
1701619339.3099005,-8.0,-33.0,-1.0,3.0,-3.0,-3.0,0.0,6.0
1701619339.3179023,-5.0,17.0,10.0,-1.0,-9.0,-5.0,-3.0,0.0
1701619339.3179023,4.0,-5.0,-12.0,-1.0,-2.0,-3.0,-11.0,-10.0
1701619339.3549123,-6.0,13.0,-10.0,-12.0,-2.0,-1.0,2.0,-7.0
1701619339.3549123,1.0,1.0,-8.0,-26.0,-8.0,-7.0,-6.0,0.0
1701619339.364913,-4.0,30.0,35.0,36.0,9.0,6.0,1.0,0.0
1701619339.364913,-6.0,-10.0,-29.0,-23.0,-4.0,4.0,14.0,15.0
1701619339.395493,-4.0,-31.0,-23.0,-7.0,2.0,-5.0,-24.0,-29.0
1701619339.395493,10.0,-10.0,24.0,15.0,0.0,2.0,14.0,23.0
1701619339.3974876,5.0,13.0,-34.0,-14.0,-3.0,0.0,-1.0,-9.0
1701619339.3974876,1.0,58.0,9.0,-14.0,-2.0,1.0,-2.0,4.0
1701619339.4044893,0.0,-53.0,-21.0,12.0,-2.0,1.0,-1.0,-5.0
1701619339.4044893,-11.0,22.0,-23.0,-18.0,-4.0,-4.0,-6.0,-8.0
1701619339.4198875,-4.0,15.0,65.0,10.0,0.0,-5.0,-6.0,-1.0
1701619339.4198875,11.0,16.0,-28.0,-2.0,-4.0,-3.0,10.0,-2.0
1701619339.420888,4.0,24.0,7.0,3.0,1.0,2.0,2.0,7.0
1701619339.420888,-5.0,-18.0,19.0,1.0,-1.0,1.0,7.0,-1.0
1701619339.420888,-7.0,-64.0,-27.0,-3.0,-5.0,-1.0,2.0,-4.0
1701619339.420888,1.0,-23.0,26.0,4.0,3.0,-1.0,-6.0,-6.0
1701619339.420888,-9.0,-14.0,5.0,-1.0,4.0,2.0,1.0,4.0
1701619339.420888,-4.0,38.0,-19.0,-7.0,-2.0,1.0,3.0,0.0
1701619339.420888,-4.0,11.0,10.0,6.0,-2.0,-7.0,-17.0,-12.0
1701619339.420888,-7.0,-16.0,-11.0,-21.0,-16.0,-11.0,-7.0,-4.0
1701619339.4395287,1.0,6.0,-36.0,-3.0,-7.0,-2.0,4.0,3.0
1701619339.4395287,1.0,-11.0,20.0,14.0,15.0,10.0,4.0,0.0
1701619339.4395287,7.0,-6.0,2.0,-2.0,12.0,5.0,4.0,6.0
1701619339.4395287,-2.0,-3.0,-21.0,-1.0,6.0,0.0,1.0,-2.0
1701619339.4939835,-1.0,1.0,3.0,4.0,-7.0,-2.0,2.0,3.0
1701619339.4939835,-2.0,13.0,-2.0,-17.0,-17.0,-11.0,-10.0,-5.0
1701619339.4939835,-1.0,-5.0,-4.0,-3.0,-7.0,-4.0,-4.0,0.0
1701619339.4939835,-2.0,2.0,17.0,6.0,-4.0,-3.0,0.0,1.0
1701619339.4939835,-3.0,16.0,9.0,-15.0,-4.0,-2.0,-1.0,-2.0
1701619339.4939835,2.0,3.0,-10.0,11.0,0.0,0.0,-1.0,-2.0
1701619339.4939835,-5.0,-21.0,-35.0,-37.0,-13.0,-6.0,-5.0,0.0
1701619339.4939835,-1.0,0.0,35.0,21.0,11.0,5.0,3.0,-2.0
1701619339.5139697,1.0,-1.0,-4.0,17.0,6.0,1.0,1.0,-1.0
1701619339.5139697,0.0,5.0,32.0,8.0,1.0,-3.0,-5.0,-3.0
1701619339.5139697,2.0,3.0,-14.0,1.0,-3.0,-1.0,2.0,4.0
1701619339.5139697,-5.0,4.0,15.0,-6.0,-4.0,-3.0,-4.0,-5.0
1701619339.5242648,0.0,10.0,-19.0,-8.0,5.0,0.0,-2.0,1.0
1701619339.5242648,0.0,-6.0,-4.0,-16.0,0.0,2.0,0.0,2.0
1701619339.5343158,1.0,2.0,3.0,4.0,-7.0,4.0,5.0,0.0
1701619339.5343158,0.0,-1.0,4.0,25.0,10.0,2.0,-1.0,-1.0
1701619339.5443377,0.0,3.0,22.0,17.0,16.0,2.0,0.0,-1.0
1701619339.5443377,-4.0,-4.0,-2.0,-11.0,-7.0,-6.0,-4.0,-4.0
1701619339.5443377,0.0,-2.0,-1.0,9.0,-2.0,-3.0,-1.0,0.0
1701619339.5443377,-1.0,4.0,5.0,-9.0,-13.0,-4.0,-1.0,0.0
1701619339.5639732,-2.0,-1.0,-14.0,2.0,-1.0,0.0,-1.0,-3.0
1701619339.5639732,3.0,-2.0,-4.0,0.0,4.0,1.0,0.0,1.0
1701619339.5639732,-5.0,2.0,17.0,3.0,1.0,1.0,0.0,0.0
1701619339.5639732,1.0,-2.0,-18.0,3.0,0.0,-1.0,0.0,1.0
1701619339.5639732,-1.0,0.0,-28.0,-12.0,-8.0,-5.0,-4.0,-3.0
1701619339.5639732,2.0,-13.0,5.0,-7.0,-6.0,-2.0,-1.0,-3.0
1701619339.5639732,0.0,30.0,18.0,18.0,7.0,-2.0,-9.0,2.0
1701619339.5639732,-4.0,-8.0,3.0,0.0,3.0,1.0,12.0,-4.0
1701619339.5844054,2.0,18.0,21.0,-3.0,-3.0,2.0,5.0,4.0
1701619339.5844054,-9.0,-52.0,-3.0,-2.0,2.0,0.0,-11.0,-2.0
1701619339.5947683,1.0,2.0,-18.0,3.0,3.0,-1.0,2.0,-2.0
1701619339.5947683,1.0,-52.0,1.0,2.0,0.0,3.0,12.0,4.0
1701619339.6048,4.0,35.0,-4.0,-1.0,-3.0,2.0,-6.0,0.0
1701619339.6048,0.0,1.0,-8.0,-8.0,-1.0,-4.0,-10.0,-3.0
1701619339.6344156,1.0,7.0,-20.0,3.0,4.0,3.0,22.0,4.0
1701619339.6344156,-9.0,-14.0,13.0,-10.0,-5.0,-1.0,-19.0,4.0
1701619339.6344156,2.0,-22.0,-4.0,-1.0,-3.0,0.0,-5.0,-11.0
1701619339.6344156,-2.0,27.0,39.0,20.0,4.0,-7.0,-17.0,4.0
1701619339.6344156,0.0,-32.0,-9.0,-4.0,-3.0,4.0,15.0,-1.0
1701619339.6344156,6.0,21.0,0.0,6.0,2.0,-2.0,-1.0,5.0
1701619339.6444166,-5.0,-13.0,-25.0,-11.0,-2.0,-2.0,-2.0,1.0
1701619339.6444166,-2.0,4.0,35.0,6.0,-2.0,-2.0,7.0,-1.0
1701619339.6544166,2.0,-15.0,-39.0,-3.0,1.0,-3.0,-8.0,-3.0
1701619339.6544166,-7.0,-2.0,-40.0,-23.0,-12.0,-5.0,-3.0,-6.0
1701619339.6647573,-1.0,4.0,38.0,9.0,0.0,2.0,1.0,1.0
1701619339.6647573,1.0,-7.0,-33.0,2.0,5.0,2.0,8.0,-2.0
1701619339.6747181,-2.0,1.0,10.0,-1.0,9.0,4.0,-1.0,1.0
1701619339.6747181,2.0,19.0,5.0,12.0,1.0,-3.0,-6.0,-4.0
1701619339.6844187,-2.0,4.0,-8.0,-7.0,-4.0,-4.0,-3.0,-1.0
1701619339.6844187,0.0,9.0,25.0,-10.0,-9.0,-1.0,5.0,0.0
1701619339.704778,1.0,4.0,25.0,18.0,0.0,3.0,-6.0,-1.0
1701619339.704778,-3.0,-2.0,-60.0,-13.0,-1.0,-3.0,-1.0,-4.0
1701619339.7144172,-4.0,-14.0,21.0,-14.0,-10.0,-7.0,-3.0,-2.0
1701619339.7144172,0.0,0.0,-24.0,10.0,6.0,2.0,2.0,-2.0
1701619339.7144172,0.0,3.0,26.0,-23.0,-10.0,-6.0,-7.0,-4.0
1701619339.7144172,1.0,0.0,-5.0,4.0,2.0,1.0,0.0,-1.0
1701619339.7247188,-3.0,-3.0,26.0,18.0,5.0,1.0,2.0,3.0
1701619339.7247188,1.0,8.0,-57.0,-26.0,-6.0,-2.0,0.0,-2.0
1701619339.7347195,-5.0,3.0,3.0,10.0,-1.0,-2.0,-5.0,-2.0
1701619339.7347195,1.0,13.0,16.0,-13.0,-4.0,-3.0,-1.0,0.0
1701619339.7444186,-3.0,-14.0,2.0,11.0,3.0,2.0,0.0,-3.0
1701619339.7444186,5.0,-2.0,-3.0,-10.0,-2.0,-2.0,-1.0,-1.0
1701619339.7544513,-1.0,2.0,10.0,5.0,-1.0,-3.0,-3.0,-3.0
1701619339.7544513,1.0,11.0,4.0,9.0,1.0,1.0,0.0,-1.0
1701619339.7756262,-3.0,-5.0,22.0,5.0,3.0,0.0,2.0,-2.0
1701619339.7756262,-3.0,-9.0,-26.0,-4.0,-4.0,-2.0,0.0,-3.0
1701619339.7776341,-5.0,-8.0,-12.0,-15.0,-6.0,-2.0,-2.0,-1.0
1701619339.7776341,-1.0,8.0,22.0,11.0,5.0,0.0,-3.0,0.0
1701619339.8003042,5.0,3.0,-21.0,-4.0,1.0,0.0,0.0,0.0
1701619339.8003042,-8.0,4.0,-6.0,-2.0,0.0,1.0,2.0,-1.0
1701619339.8003042,-2.0,-12.0,-12.0,-13.0,0.0,-3.0,-3.0,-1.0
1701619339.8003042,-1.0,6.0,12.0,0.0,-2.0,-1.0,-2.0,0.0
1701619339.8126829,-1.0,-4.0,-4.0,-15.0,-6.0,-3.0,-3.0,0.0
1701619339.8126829,1.0,-2.0,5.0,11.0,3.0,2.0,1.0,1.0
1701619339.8339112,-2.0,-7.0,0.0,2.0,1.0,1.0,-3.0,-2.0
1701619339.8339112,-2.0,-5.0,-3.0,-2.0,-1.0,-1.0,0.0,-2.0
1701619339.836218,-2.0,3.0,9.0,0.0,-4.0,-2.0,-1.0,-2.0
1701619339.8372383,0.0,1.0,-6.0,0.0,-2.0,-3.0,-2.0,0.0
1701619339.8382351,-4.0,-26.0,-75.0,-14.0,-3.0,-2.0,-1.0,-4.0
1701619339.8382351,0.0,13.0,20.0,-5.0,-3.0,-2.0,-2.0,-1.0
1701619339.866843,1.0,-9.0,-26.0,-8.0,-1.0,0.0,1.0,-1.0
1701619339.866843,0.0,9.0,19.0,14.0,2.0,0.0,-2.0,-1.0
1701619339.866843,3.0,11.0,43.0,8.0,1.0,-1.0,1.0,9.0
1701619339.866843,0.0,-26.0,-55.0,-8.0,-1.0,-1.0,-2.0,-13.0
1701619339.873363,-2.0,8.0,-1.0,3.0,-2.0,-1.0,1.0,1.0
1701619339.873363,0.0,-7.0,27.0,4.0,0.0,1.0,0.0,-3.0
1701619339.889172,-2.0,2.0,-14.0,1.0,4.0,1.0,0.0,3.0
1701619339.889172,-2.0,-5.0,16.0,5.0,-3.0,-3.0,-2.0,-3.0
1701619339.8971727,3.0,8.0,-2.0,-3.0,1.0,0.0,1.0,0.0
1701619339.8971727,0.0,-11.0,-33.0,0.0,-2.0,-1.0,-1.0,1.0
1701619339.902246,2.0,11.0,36.0,2.0,-1.0,-1.0,-4.0,-5.0
1701619339.9031706,-3.0,4.0,-22.0,-9.0,-1.0,-1.0,1.0,1.0
1701619339.9272077,-4.0,-35.0,-24.0,-6.0,-5.0,-3.0,-5.0,-4.0
1701619339.9272077,1.0,30.0,28.0,4.0,1.0,0.0,4.0,6.0
1701619339.9272077,3.0,-20.0,-4.0,-12.0,-4.0,-2.0,-2.0,-9.0
1701619339.9272077,3.0,-3.0,15.0,26.0,5.0,3.0,2.0,3.0
1701619339.9322085,-4.0,24.0,21.0,-9.0,-3.0,-5.0,-4.0,-3.0
1701619339.9322085,-2.0,4.0,-29.0,-11.0,-1.0,0.0,0.0,3.0
1701619339.9485528,-1.0,-5.0,11.0,14.0,3.0,2.0,-2.0,0.0
1701619339.9485528,2.0,11.0,-10.0,-11.0,-3.0,0.0,-1.0,1.0
1701619339.9563076,-4.0,-9.0,-1.0,-2.0,-2.0,-2.0,0.0,10.0
1701619339.9563076,-1.0,-1.0,14.0,-8.0,-2.0,0.0,-3.0,-20.0
1701619339.957317,-1.0,13.0,-22.0,-5.0,-1.0,-1.0,-2.0,-1.0
1701619339.957317,-3.0,-4.0,1.0,-4.0,-2.0,-2.0,-1.0,0.0
1701619339.9763162,0.0,9.0,1.0,-5.0,-2.0,-3.0,-4.0,-2.0
1701619339.9763162,0.0,-39.0,-1.0,-1.0,-3.0,-2.0,-6.0,1.0
1701619339.9783173,-6.0,11.0,13.0,9.0,0.0,0.0,6.0,0.0
1701619339.9783173,-1.0,-7.0,11.0,-1.0,2.0,0.0,-1.0,1.0
1701619339.9923036,-6.0,-3.0,-12.0,-6.0,-3.0,-2.0,-3.0,-4.0
1701619339.9923036,5.0,13.0,-2.0,9.0,3.0,1.0,1.0,2.0
1701619340.000926,-6.0,-29.0,-14.0,-24.0,-7.0,-3.0,-2.0,-3.0
1701619340.000926,-3.0,-1.0,46.0,20.0,0.0,-1.0,-2.0,3.0
1701619340.0381513,4.0,18.0,6.0,3.0,1.0,-1.0,1.0,-8.0
1701619340.0381513,-6.0,11.0,-15.0,-34.0,-9.0,-5.0,-4.0,-3.0
1701619340.0455446,-1.0,6.0,-6.0,1.0,-1.0,-3.0,-4.0,0.0
1701619340.0455446,-2.0,1.0,-25.0,-16.0,-1.0,-2.0,0.0,-1.0
1701619340.0690289,3.0,-6.0,-3.0,5.0,0.0,1.0,-1.0,1.0
1701619340.0690289,2.0,19.0,16.0,12.0,-2.0,2.0,2.0,1.0
1701619340.0699923,-4.0,-8.0,-15.0,-1.0,0.0,-1.0,-1.0,-4.0
1701619340.0699923,2.0,-1.0,12.0,0.0,0.0,0.0,0.0,-1.0
1701619340.0755057,-1.0,-6.0,-15.0,1.0,0.0,-1.0,-1.0,0.0
1701619340.0755057,-1.0,-5.0,4.0,0.0,-1.0,-2.0,-1.0,-1.0
1701619340.0755057,1.0,11.0,17.0,-1.0,-1.0,-1.0,-2.0,-2.0
1701619340.0765169,-1.0,-3.0,6.0,3.0,-1.0,-1.0,-3.0,-3.0
1701619340.09862,-2.0,-5.0,2.0,2.0,3.0,1.0,-1.0,0.0
1701619340.09862,-3.0,-6.0,-5.0,5.0,0.0,-1.0,0.0,1.0
1701619340.1006198,1.0,6.0,-4.0,1.0,0.0,1.0,-2.0,1.0
1701619340.1006198,-1.0,-4.0,-17.0,-8.0,-3.0,-1.0,0.0,-2.0
1701619340.1044765,-2.0,-1.0,-6.0,-4.0,-1.0,0.0,-1.0,-1.0
1701619340.1044765,-4.0,-19.0,-8.0,2.0,1.0,-1.0,-2.0,-1.0
1701619340.113628,1.0,5.0,23.0,0.0,0.0,-2.0,-2.0,-1.0
1701619340.113628,-2.0,5.0,-47.0,-3.0,-1.0,-3.0,-2.0,-3.0
1701619340.1286952,-2.0,-3.0,22.0,-1.0,-4.0,-2.0,-2.0,-2.0
1701619340.1286952,3.0,24.0,5.0,7.0,-2.0,1.0,1.0,0.0
1701619340.1296942,-11.0,-65.0,-51.0,-8.0,-5.0,-3.0,-4.0,-2.0
1701619340.1296942,-6.0,47.0,31.0,8.0,-1.0,-3.0,-2.0,-6.0
1701619340.1512644,1.0,-6.0,1.0,-8.0,-3.0,-2.0,-3.0,-3.0
1701619340.1512644,-3.0,-3.0,-21.0,-13.0,-5.0,-2.0,-4.0,-1.0
1701619340.1525567,5.0,13.0,-18.0,-14.0,-1.0,-2.0,3.0,-1.0
1701619340.1525567,-1.0,-19.0,1.0,5.0,1.0,0.0,0.0,2.0
1701619340.1663184,-4.0,-23.0,32.0,21.0,0.0,-3.0,-2.0,4.0
1701619340.1663184,5.0,5.0,0.0,-9.0,3.0,-2.0,-7.0,-5.0
1701619340.1673274,3.0,9.0,-33.0,-29.0,-6.0,-1.0,11.0,4.0
1701619340.1673274,-4.0,-20.0,25.0,-6.0,-6.0,-3.0,-9.0,-7.0
1701619340.1887412,2.0,8.0,-55.0,-14.0,2.0,2.0,8.0,-2.0
1701619340.1887412,-6.0,-6.0,9.0,-4.0,-2.0,-2.0,8.0,11.0
1701619340.1887412,5.0,42.0,36.0,35.0,5.0,0.0,-7.0,-17.0
1701619340.1887412,-6.0,17.0,-39.0,-35.0,-5.0,-2.0,5.0,5.0
1701619340.203514,9.0,16.0,-7.0,5.0,3.0,1.0,-2.0,4.0
1701619340.203514,-9.0,-27.0,-27.0,-30.0,-12.0,-5.0,10.0,-17.0
1701619340.2051666,-4.0,0.0,62.0,13.0,-5.0,-4.0,-5.0,18.0
1701619340.2051666,7.0,-7.0,-21.0,-2.0,0.0,0.0,-4.0,-1.0
1701619340.2262552,-12.0,-11.0,-25.0,3.0,-2.0,-3.0,-4.0,-3.0
1701619340.2262552,0.0,15.0,-1.0,14.0,5.0,0.0,-2.0,13.0
1701619340.2275403,7.0,2.0,5.0,15.0,3.0,-1.0,-6.0,-13.0
1701619340.2275403,-13.0,-20.0,36.0,11.0,-2.0,-4.0,-6.0,-9.0
1701619340.2495463,2.0,-1.0,18.0,6.0,3.0,2.0,23.0,1.0
1701619340.2495463,-1.0,-8.0,-8.0,-1.0,-1.0,0.0,6.0,-1.0
1701619340.2495463,-7.0,8.0,-7.0,0.0,-1.0,-2.0,-15.0,-5.0
1701619340.2495463,5.0,-14.0,17.0,4.0,-1.0,0.0,17.0,3.0
1701619340.2637742,3.0,19.0,-16.0,-1.0,-3.0,-4.0,-18.0,-8.0
1701619340.2637742,-9.0,-15.0,51.0,19.0,0.0,0.0,-5.0,1.0
1701619340.2658167,3.0,-25.0,-27.0,-8.0,-3.0,-2.0,2.0,-4.0
1701619340.2658167,-6.0,-32.0,-41.0,-10.0,-1.0,-2.0,-8.0,-4.0
1701619340.2862248,5.0,4.0,32.0,4.0,0.0,0.0,3.0,6.0
1701619340.287245,0.0,-10.0,-5.0,13.0,2.0,4.0,1.0,-1.0
1701619340.2882404,0.0,54.0,6.0,-17.0,-1.0,-2.0,-1.0,5.0
1701619340.2882404,-3.0,-6.0,-12.0,-3.0,-3.0,-1.0,1.0,2.0
1701619340.3227046,-2.0,-3.0,-4.0,-3.0,-1.0,1.0,1.0,-3.0
1701619340.3227046,4.0,12.0,8.0,4.0,1.0,-1.0,-8.0,-6.0
1701619340.3227046,-6.0,-17.0,-40.0,4.0,-3.0,-5.0,-9.0,-11.0
1701619340.3227046,-2.0,10.0,2.0,-17.0,-6.0,-2.0,-4.0,-4.0
1701619340.3237045,-2.0,6.0,8.0,-2.0,-2.0,0.0,-1.0,2.0
1701619340.3237045,1.0,-3.0,3.0,0.0,2.0,0.0,1.0,-1.0
1701619340.3247054,3.0,1.0,19.0,17.0,3.0,3.0,5.0,5.0
1701619340.3247054,2.0,6.0,-1.0,12.0,2.0,1.0,3.0,2.0
1701619340.34678,-10.0,-21.0,-55.0,-30.0,-7.0,-4.0,-8.0,-2.0
1701619340.34678,1.0,-6.0,11.0,8.0,1.0,-1.0,-5.0,0.0
1701619340.3695734,-4.0,-10.0,18.0,-5.0,-1.0,1.0,5.0,1.0
1701619340.3695734,3.0,12.0,7.0,16.0,3.0,1.0,-3.0,2.0
1701619340.3695734,2.0,-7.0,28.0,1.0,-2.0,-2.0,-3.0,-2.0
1701619340.3695734,-6.0,-1.0,-46.0,-5.0,-1.0,-3.0,-1.0,-3.0
1701619340.3715389,-5.0,-2.0,21.0,-8.0,-7.0,0.0,1.0,-2.0
1701619340.3715389,2.0,1.0,1.0,4.0,7.0,3.0,-1.0,-2.0
1701619340.3841054,-1.0,6.0,59.0,45.0,1.0,-1.0,-4.0,-2.0
1701619340.3841054,-1.0,2.0,-27.0,-31.0,-3.0,-1.0,-1.0,-2.0
1701619340.3851202,-2.0,-11.0,-21.0,-3.0,-1.0,1.0,1.0,2.0
1701619340.3851202,2.0,0.0,-7.0,-8.0,-1.0,-2.0,-3.0,0.0
1701619340.4130313,-1.0,-7.0,-17.0,-11.0,-2.0,-1.0,2.0,-2.0
1701619340.4130313,0.0,16.0,44.0,27.0,1.0,-1.0,-3.0,-1.0
1701619340.4150958,0.0,-6.0,-8.0,-12.0,-1.0,-1.0,2.0,-1.0
1701619340.4150958,-1.0,2.0,12.0,3.0,-4.0,-4.0,-3.0,-3.0
1701619340.427515,-4.0,-21.0,-16.0,3.0,1.0,0.0,1.0,-1.0
1701619340.427515,3.0,36.0,17.0,0.0,1.0,-2.0,-1.0,0.0
1701619340.4285154,-1.0,-3.0,-13.0,-3.0,1.0,-2.0,-1.0,0.0
1701619340.4285154,0.0,-7.0,-5.0,-7.0,-2.0,-2.0,0.0,-1.0
1701619340.443641,-1.0,-2.0,1.0,1.0,-3.0,-2.0,-2.0,-1.0
1701619340.443641,-3.0,-22.0,1.0,-13.0,-5.0,-4.0,-2.0,-4.0
1701619340.4446507,0.0,6.0,15.0,14.0,2.0,2.0,1.0,1.0
1701619340.4446507,1.0,1.0,-17.0,3.0,1.0,0.0,0.0,0.0
1701619340.4659612,-1.0,9.0,-15.0,-12.0,-1.0,-2.0,-2.0,-1.0
1701619340.4659612,2.0,13.0,30.0,5.0,0.0,-2.0,-1.0,-1.0
1701619340.4677348,1.0,15.0,13.0,14.0,2.0,0.0,1.0,3.0
1701619340.4677348,-2.0,-9.0,6.0,-6.0,-1.0,0.0,-2.0,-2.0
1701619340.4797175,0.0,0.0,10.0,-6.0,-1.0,0.0,-2.0,1.0
1701619340.4797175,-4.0,-17.0,-25.0,-1.0,-4.0,0.0,0.0,7.0
1701619340.4894333,-3.0,-3.0,11.0,4.0,0.0,-1.0,-2.0,-14.0
1701619340.4894333,-2.0,6.0,1.0,-3.0,1.0,2.0,1.0,3.0
1701619340.5172307,-4.0,2.0,-7.0,-5.0,1.0,-1.0,0.0,-3.0
1701619340.5172307,-1.0,-6.0,7.0,4.0,1.0,-1.0,-3.0,-3.0
1701619340.5182323,-1.0,-8.0,-17.0,-9.0,-3.0,-2.0,-1.0,2.0
1701619340.5182323,3.0,3.0,-2.0,2.0,0.0,0.0,0.0,-2.0
1701619340.5338445,5.0,10.0,33.0,6.0,1.0,0.0,0.0,-2.0
1701619340.5338445,-8.0,-21.0,-53.0,-12.0,-5.0,-3.0,-2.0,-4.0
1701619340.5338445,-3.0,-10.0,-11.0,-6.0,-2.0,-1.0,-1.0,1.0
1701619340.5338445,0.0,2.0,1.0,-3.0,-4.0,-3.0,-1.0,-2.0
1701619340.54838,-3.0,0.0,7.0,0.0,-1.0,0.0,-2.0,0.0
1701619340.54838,2.0,-1.0,11.0,2.0,2.0,1.0,-1.0,-3.0
1701619340.549999,1.0,-2.0,3.0,-1.0,-1.0,-1.0,-1.0,1.0
1701619340.549999,-6.0,-2.0,-19.0,0.0,-2.0,-3.0,1.0,0.0
1701619340.563015,0.0,0.0,-34.0,-15.0,-4.0,-1.0,-1.0,-2.0
1701619340.56401,1.0,-7.0,1.0,3.0,0.0,-1.0,1.0,-2.0
1701619340.565012,2.0,7.0,-9.0,-6.0,-1.0,0.0,-2.0,0.0
1701619340.565012,1.0,-3.0,20.0,12.0,1.0,1.0,-1.0,-1.0
1701619340.5923433,-3.0,2.0,-8.0,-19.0,-4.0,-1.0,-3.0,-2.0
1701619340.5923433,1.0,3.0,3.0,4.0,1.0,0.0,1.0,-2.0
1701619340.6095223,-2.0,-4.0,2.0,1.0,2.0,0.0,1.0,3.0
1701619340.6095223,2.0,1.0,6.0,-3.0,-2.0,-3.0,-2.0,0.0
1701619340.6095223,0.0,-2.0,-34.0,0.0,0.0,0.0,0.0,1.0
1701619340.6095223,0.0,-6.0,19.0,0.0,-1.0,-2.0,-4.0,-1.0
1701619340.6095223,0.0,1.0,17.0,1.0,0.0,-1.0,1.0,0.0
1701619340.6095223,0.0,-2.0,-15.0,-11.0,-5.0,-1.0,-3.0,-1.0
1701619340.623534,-1.0,0.0,10.0,4.0,-1.0,-2.0,-1.0,-1.0
1701619340.623534,1.0,2.0,-12.0,0.0,-1.0,0.0,-1.0,-1.0
1701619340.6245909,-3.0,-8.0,0.0,3.0,-3.0,-1.0,-1.0,-1.0
1701619340.62555,4.0,7.0,6.0,-4.0,0.0,0.0,-1.0,0.0
1701619340.6599512,-2.0,-4.0,-3.0,3.0,-2.0,-1.0,-1.0,-2.0
1701619340.6599512,-1.0,-1.0,0.0,-1.0,-1.0,-1.0,-2.0,-1.0
1701619340.6599512,1.0,0.0,-7.0,-7.0,1.0,-1.0,-1.0,0.0
1701619340.6599512,-2.0,0.0,10.0,7.0,3.0,0.0,-2.0,-1.0
1701619340.6895452,-2.0,-4.0,-9.0,-2.0,1.0,0.0,0.0,-1.0
1701619340.6895452,-2.0,-8.0,-21.0,-15.0,-6.0,-3.0,-2.0,-2.0
1701619340.6895452,0.0,-2.0,24.0,4.0,-4.0,-3.0,0.0,-3.0
1701619340.6895452,1.0,-5.0,-13.0,-1.0,-5.0,0.0,-1.0,0.0
1701619340.6895452,-2.0,-5.0,-37.0,1.0,3.0,0.0,-2.0,-1.0
1701619340.6895452,-3.0,2.0,-2.0,-5.0,4.0,1.0,1.0,-1.0
1701619340.6895452,2.0,27.0,14.0,0.0,0.0,-2.0,-2.0,2.0
1701619340.6895452,-10.0,-5.0,-15.0,-1.0,-1.0,1.0,-1.0,1.0
1701619340.709939,-1.0,11.0,18.0,5.0,-3.0,-1.0,3.0,10.0
1701619340.709939,-3.0,-26.0,-29.0,-10.0,0.0,1.0,1.0,-15.0
1701619340.709939,-5.0,-44.0,-20.0,-3.0,0.0,-1.0,0.0,1.0
1701619340.709939,1.0,13.0,35.0,0.0,-4.0,-2.0,4.0,0.0
1701619340.720349,8.0,11.0,-11.0,2.0,-2.0,-3.0,-20.0,-2.0
1701619340.720349,-1.0,23.0,36.0,-5.0,2.0,2.0,17.0,-1.0
1701619340.720349,-9.0,-54.0,-54.0,-2.0,0.0,4.0,7.0,6.0
1701619340.720349,15.0,-9.0,1.0,-5.0,-1.0,1.0,22.0,-6.0
1701619340.7303505,11.0,-21.0,8.0,1.0,2.0,-1.0,-20.0,1.0
1701619340.7303505,-34.0,-18.0,-3.0,-4.0,-6.0,-9.0,-15.0,-19.0
1701619340.749951,-4.0,48.0,12.0,1.0,2.0,0.0,-8.0,-1.0
1701619340.749951,-2.0,18.0,-3.0,-8.0,2.0,-1.0,4.0,4.0
1701619340.7599542,-2.0,-14.0,-1.0,-5.0,-1.0,-2.0,8.0,1.0
1701619340.7599542,12.0,15.0,0.0,6.0,4.0,5.0,7.0,6.0
1701619340.7699492,1.0,-1.0,30.0,12.0,0.0,-1.0,4.0,-3.0
1701619340.7699492,-10.0,-18.0,-54.0,-15.0,-3.0,-4.0,-10.0,-4.0
1701619340.7699492,-4.0,3.0,20.0,4.0,1.0,-1.0,3.0,-4.0
1701619340.7699492,6.0,4.0,18.0,14.0,-1.0,-2.0,-5.0,7.0
1701619340.780276,1.0,0.0,-23.0,-5.0,1.0,0.0,-2.0,-3.0
1701619340.780276,5.0,5.0,15.0,-16.0,-2.0,-2.0,-7.0,3.0
1701619340.7902808,-3.0,-6.0,3.0,7.0,0.0,2.0,1.0,-5.0
1701619340.7902808,3.0,1.0,1.0,2.0,-1.0,0.0,2.0,7.0
1701619340.8199482,3.0,5.0,0.0,-1.0,-2.0,0.0,-2.0,0.0
1701619340.8199482,-5.0,-11.0,-26.0,-12.0,-1.0,-1.0,-6.0,-2.0
1701619340.8199482,-4.0,9.0,3.0,-10.0,0.0,1.0,7.0,-2.0
1701619340.8199482,3.0,-2.0,13.0,9.0,2.0,0.0,-3.0,0.0
1701619340.8299506,0.0,5.0,-1.0,11.0,0.0,-1.0,-3.0,-1.0
1701619340.8299506,-3.0,2.0,19.0,11.0,-1.0,-1.0,-6.0,0.0
1701619340.8299506,-5.0,-2.0,6.0,-3.0,-2.0,1.0,3.0,-1.0
1701619340.8299506,9.0,2.0,-31.0,3.0,1.0,-1.0,-2.0,3.0
1701619340.840356,-6.0,-1.0,13.0,-1.0,0.0,-3.0,-4.0,-2.0
1701619340.840356,-3.0,2.0,23.0,19.0,2.0,2.0,2.0,-2.0
1701619340.8713343,-4.0,-5.0,-8.0,-20.0,-7.0,-3.0,2.0,-2.0
1701619340.8723466,2.0,0.0,8.0,-7.0,-3.0,-2.0,-2.0,1.0
1701619340.8733454,0.0,-4.0,-37.0,-11.0,-1.0,-1.0,1.0,-2.0
1701619340.8733454,0.0,19.0,10.0,5.0,0.0,-1.0,-2.0,1.0
1701619340.8794866,0.0,4.0,6.0,9.0,1.0,-1.0,0.0,0.0
1701619340.8794866,-2.0,0.0,13.0,6.0,-5.0,-1.0,-2.0,-1.0
1701619340.8794866,2.0,6.0,0.0,-9.0,-3.0,-3.0,-3.0,-2.0
1701619340.8794866,-1.0,-7.0,7.0,4.0,1.0,1.0,0.0,-1.0
1701619340.8897321,3.0,-3.0,5.0,-6.0,-1.0,-1.0,3.0,-1.0
1701619340.8897321,-2.0,-4.0,-78.0,-8.0,-1.0,-1.0,-1.0,0.0
1701619340.899685,0.0,-5.0,18.0,8.0,-2.0,-3.0,-1.0,-2.0
1701619340.899685,1.0,-4.0,-24.0,-22.0,-1.0,0.0,-5.0,1.0
1701619340.9394846,-12.0,29.0,18.0,4.0,1.0,-1.0,1.0,-1.0
1701619340.9394846,1.0,-5.0,29.0,2.0,0.0,-1.0,-2.0,0.0
1701619340.9394846,-2.0,-1.0,-5.0,-3.0,0.0,0.0,2.0,0.0
1701619340.9394846,-2.0,2.0,14.0,12.0,2.0,-1.0,-2.0,-1.0
1701619340.9394846,-1.0,-12.0,-40.0,-9.0,-3.0,-1.0,0.0,-2.0
1701619340.9394846,2.0,2.0,6.0,-9.0,0.0,-1.0,-3.0,-2.0
1701619340.9394846,-3.0,-2.0,17.0,5.0,-2.0,-2.0,-2.0,-2.0
1701619340.9394846,5.0,46.0,-30.0,-1.0,-2.0,-1.0,-1.0,10.0
1701619340.9494843,-2.0,-39.0,-17.0,2.0,0.0,-1.0,-1.0,-15.0
1701619340.9494843,0.0,7.0,29.0,10.0,2.0,0.0,0.0,1.0
1701619340.9597275,2.0,11.0,-9.0,-14.0,2.0,-2.0,0.0,-2.0
1701619340.9597275,-4.0,-21.0,9.0,7.0,-3.0,-1.0,-2.0,1.0
1701619340.9696958,2.0,-9.0,-23.0,-3.0,-2.0,-2.0,0.0,4.0
1701619340.9696958,-3.0,13.0,-6.0,5.0,-1.0,1.0,1.0,1.0
1701619340.9797037,1.0,-17.0,-24.0,-22.0,-2.0,-1.0,-2.0,-1.0
1701619340.9797037,-1.0,-15.0,14.0,12.0,3.0,-1.0,0.0,-3.0
1701619340.9994931,2.0,9.0,8.0,18.0,2.0,0.0,1.0,2.0
1701619340.9994931,-2.0,-13.0,10.0,-21.0,-7.0,-3.0,-3.0,-2.0
1701619340.9994931,2.0,21.0,-20.0,3.0,-2.0,-1.0,-1.0,1.0
1701619340.9994931,1.0,-8.0,29.0,13.0,2.0,0.0,-1.0,-1.0
1701619341.029483,0.0,14.0,-5.0,-7.0,1.0,0.0,-1.0,-7.0
1701619341.029483,-7.0,-11.0,15.0,17.0,3.0,0.0,2.0,2.0
1701619341.029483,-1.0,17.0,-8.0,-8.0,-4.0,-2.0,0.0,8.0
1701619341.029483,-1.0,-10.0,-17.0,-30.0,-3.0,-2.0,-2.0,-13.0
1701619341.029483,1.0,14.0,74.0,24.0,-3.0,-3.0,-1.0,7.0
1701619341.029483,-7.0,-56.0,-54.0,1.0,1.0,-3.0,-3.0,-2.0
1701619341.0395184,-2.0,6.0,5.0,-13.0,-4.0,-2.0,-2.0,-5.0
1701619341.0395184,-2.0,-30.0,4.0,0.0,4.0,3.0,3.0,4.0
1701619341.0498657,-3.0,53.0,-17.0,-14.0,1.0,2.0,3.0,2.0
1701619341.0498657,-10.0,-2.0,55.0,32.0,1.0,-3.0,-5.0,-5.0
1701619341.059486,10.0,31.0,-1.0,0.0,-2.0,-2.0,0.0,2.0
1701619341.059486,-6.0,-17.0,83.0,27.0,1.0,-2.0,-1.0,7.0
1701619341.0698395,1.0,-21.0,-35.0,5.0,0.0,-1.0,-5.0,-16.0
1701619341.0698395,7.0,-1.0,-79.0,-75.0,-4.0,-2.0,0.0,1.0
1701619341.0894833,-1.0,13.0,1.0,23.0,0.0,0.0,2.0,-16.0
1701619341.0894833,-12.0,-53.0,42.0,-4.0,-5.0,-4.0,-5.0,16.0
1701619341.0894833,-16.0,-13.0,-62.0,-18.0,-11.0,-7.0,-4.0,-19.0
1701619341.0894833,7.0,31.0,91.0,32.0,0.0,-1.0,-2.0,14.0
1701619341.0998037,23.0,3.0,-28.0,-9.0,6.0,4.0,0.0,-2.0
1701619341.0998037,-9.0,4.0,-73.0,-26.0,-3.0,-1.0,2.0,-2.0
1701619341.1098316,-4.0,-60.0,24.0,-3.0,-13.0,-8.0,-5.0,3.0
1701619341.1098316,-12.0,-47.0,-74.0,-32.0,-12.0,-5.0,-6.0,-5.0
1701619341.1194875,-1.0,-14.0,-9.0,-33.0,-2.0,0.0,-3.0,5.0
1701619341.1194875,2.0,98.0,71.0,32.0,5.0,2.0,-2.0,-21.0
1701619341.139487,11.0,-19.0,-27.0,14.0,5.0,3.0,3.0,35.0
1701619341.139487,6.0,82.0,106.0,28.0,4.0,1.0,3.0,-63.0
1701619341.149519,-54.0,-96.0,-21.0,-11.0,-11.0,-8.0,-8.0,-7.0
1701619341.149519,-21.0,33.0,-13.0,-18.0,-3.0,-2.0,5.0,-13.0
1701619341.149519,46.0,20.0,27.0,-18.0,3.0,1.0,3.0,29.0
1701619341.149519,-3.0,3.0,45.0,26.0,5.0,4.0,0.0,17.0
1701619341.1597955,12.0,-41.0,-20.0,11.0,1.0,-3.0,2.0,9.0
1701619341.1597955,-33.0,-29.0,-39.0,-12.0,-3.0,0.0,-4.0,-10.0
1701619341.1698318,24.0,12.0,59.0,7.0,-2.0,-2.0,-4.0,-13.0
1701619341.1698318,-15.0,-37.0,-60.0,-6.0,0.0,1.0,2.0,-2.0
1701619341.179487,1.0,-6.0,-20.0,-7.0,-3.0,-3.0,4.0,7.0
1701619341.179487,-9.0,-31.0,-46.0,2.0,-1.0,2.0,7.0,6.0
1701619341.1898773,0.0,32.0,2.0,3.0,3.0,2.0,0.0,-2.0
1701619341.1898773,-1.0,1.0,-15.0,-9.0,-3.0,-7.0,-14.0,-7.0
1701619341.1995132,-3.0,26.0,14.0,15.0,2.0,1.0,0.0,-1.0
1701619341.1995132,28.0,63.0,39.0,5.0,-5.0,-5.0,-4.0,5.0
1701619341.2095664,-18.0,-8.0,-67.0,-15.0,-2.0,0.0,2.0,-8.0
1701619341.2095664,0.0,-7.0,-13.0,8.0,5.0,3.0,7.0,4.0
1701619341.2299187,-3.0,17.0,51.0,14.0,5.0,2.0,1.0,1.0
1701619341.2299187,24.0,-15.0,-50.0,13.0,1.0,0.0,-1.0,7.0
1701619341.2495253,-19.0,-6.0,11.0,-27.0,-5.0,-3.0,-4.0,-8.0
1701619341.2495253,6.0,10.0,12.0,-10.0,-1.0,2.0,4.0,12.0
1701619341.2495253,6.0,-4.0,-18.0,8.0,-6.0,-2.0,-4.0,-3.0
1701619341.2495253,9.0,-6.0,-15.0,-1.0,2.0,1.0,-2.0,-1.0
1701619341.2595477,-14.0,-10.0,-18.0,-20.0,-6.0,-2.0,-2.0,-6.0
1701619341.2595477,2.0,21.0,19.0,32.0,8.0,0.0,0.0,4.0
1701619341.2595477,2.0,11.0,6.0,-8.0,0.0,-1.0,-2.0,-4.0
1701619341.2595477,1.0,-8.0,8.0,-4.0,4.0,1.0,-1.0,-5.0
1701619341.269902,-14.0,-2.0,27.0,23.0,-9.0,-7.0,-4.0,-7.0
1701619341.269902,8.0,-6.0,-7.0,-25.0,-1.0,0.0,0.0,8.0
1701619341.2899206,-8.0,-2.0,26.0,34.0,-9.0,-6.0,-2.0,-8.0
1701619341.2899206,6.0,-1.0,-5.0,-8.0,-3.0,-2.0,-2.0,0.0
1701619341.2899206,-2.0,3.0,26.0,10.0,10.0,2.0,0.0,1.0
1701619341.2899206,2.0,-1.0,-27.0,-9.0,-1.0,2.0,4.0,4.0
1701619341.309525,0.0,2.0,12.0,-8.0,9.0,3.0,0.0,-1.0
1701619341.309525,1.0,-5.0,-5.0,-13.0,-7.0,-6.0,-3.0,-2.0
1701619341.319543,0.0,0.0,3.0,-10.0,0.0,3.0,6.0,1.0
1701619341.319543,-3.0,-2.0,-2.0,-6.0,-8.0,-5.0,-6.0,-4.0
1701619341.319543,-1.0,-4.0,-8.0,-3.0,0.0,0.0,2.0,2.0
1701619341.319543,-4.0,-12.0,6.0,5.0,-1.0,-1.0,-3.0,-2.0
1701619341.3298817,-5.0,3.0,4.0,1.0,-4.0,-4.0,5.0,-3.0
1701619341.3298817,5.0,-6.0,-19.0,-6.0,-2.0,-3.0,-6.0,4.0
1701619341.3398867,-6.0,47.0,31.0,6.0,1.0,-2.0,1.0,0.0
1701619341.3398867,0.0,9.0,8.0,4.0,-2.0,0.0,-6.0,-10.0
1701619341.3499017,0.0,9.0,1.0,8.0,3.0,1.0,-2.0,0.0
1701619341.3499017,-5.0,-61.0,-48.0,-14.0,-6.0,-5.0,-6.0,-1.0
1701619341.3595548,-10.0,-60.0,-3.0,-5.0,-5.0,-2.0,3.0,-18.0
1701619341.3595548,-11.0,10.0,16.0,10.0,1.0,-5.0,5.0,2.0
1701619341.369552,10.0,12.0,45.0,15.0,11.0,11.0,-13.0,3.0
1701619341.369552,-12.0,-8.0,7.0,-4.0,-8.0,-1.0,6.0,-5.0
1701619341.3798864,0.0,-77.0,-26.0,1.0,2.0,2.0,4.0,5.0
1701619341.3798864,-1.0,-19.0,21.0,-2.0,-2.0,-1.0,-4.0,0.0
1701619341.3947053,-3.0,-70.0,-58.0,-10.0,-5.0,-5.0,-12.0,-5.0
1701619341.3947053,10.0,3.0,6.0,-1.0,-4.0,-5.0,-2.0,2.0
1701619341.4033506,-21.0,-78.0,-5.0,-7.0,0.0,-1.0,-4.0,-2.0
1701619341.4033506,14.0,56.0,12.0,5.0,2.0,4.0,7.0,3.0
1701619341.4320285,0.0,63.0,-5.0,-4.0,-4.0,-5.0,8.0,2.0
1701619341.4320285,0.0,3.0,12.0,5.0,0.0,1.0,-5.0,-3.0
1701619341.4320285,7.0,1.0,-4.0,-9.0,-3.0,-3.0,-4.0,1.0
1701619341.4320285,3.0,-20.0,-53.0,-20.0,-7.0,-5.0,5.0,-2.0
1701619341.4320285,-5.0,-12.0,30.0,6.0,-3.0,-10.0,-39.0,6.0
1701619341.4320285,2.0,16.0,0.0,2.0,-1.0,7.0,54.0,-8.0
1701619341.4320285,4.0,42.0,16.0,9.0,2.0,1.0,-17.0,-1.0
1701619341.4320285,-3.0,-29.0,-15.0,-6.0,1.0,1.0,9.0,0.0
1701619341.452332,3.0,19.0,16.0,7.0,3.0,4.0,0.0,-1.0
1701619341.452332,-6.0,22.0,7.0,0.0,-1.0,-6.0,-12.0,4.0
1701619341.4621642,9.0,31.0,2.0,-4.0,-1.0,0.0,5.0,3.0
1701619341.4621642,6.0,5.0,-4.0,-1.0,-1.0,1.0,4.0,5.0
1701619341.482027,-17.0,-22.0,-10.0,-2.0,-1.0,-1.0,11.0,-3.0
1701619341.482027,-10.0,-10.0,-21.0,-12.0,-2.0,-2.0,-23.0,-9.0
1701619341.482027,3.0,29.0,4.0,2.0,5.0,2.0,-5.0,0.0
1701619341.482027,-3.0,-20.0,1.0,-2.0,-2.0,-2.0,3.0,2.0
1701619341.4920962,0.0,-2.0,-10.0,0.0,-2.0,2.0,11.0,5.0
1701619341.4920962,0.0,1.0,5.0,7.0,2.0,-3.0,-9.0,-7.0
1701619341.502342,-2.0,25.0,9.0,-4.0,-8.0,-10.0,-7.0,-7.0
1701619341.502342,-3.0,-4.0,-10.0,-6.0,1.0,0.0,-6.0,-4.0
1701619341.5122683,11.0,-5.0,1.0,2.0,1.0,-3.0,0.0,-2.0
1701619341.5122683,4.0,50.0,24.0,10.0,4.0,6.0,12.0,15.0
1701619341.5221372,-2.0,-4.0,-16.0,-14.0,-5.0,-2.0,-1.0,2.0
1701619341.5221372,-2.0,-10.0,19.0,7.0,-5.0,-4.0,-9.0,-2.0
1701619341.5420275,1.0,-5.0,-27.0,-18.0,-6.0,-2.0,2.0,0.0
1701619341.5420275,-6.0,-11.0,15.0,8.0,1.0,-2.0,-12.0,-2.0
1701619341.552257,4.0,10.0,1.0,-4.0,1.0,-1.0,7.0,1.0
1701619341.552257,-7.0,0.0,15.0,8.0,-1.0,-1.0,-15.0,-3.0
1701619341.552257,4.0,7.0,3.0,-6.0,1.0,5.0,21.0,-3.0
1701619341.552257,-8.0,-5.0,13.0,7.0,10.0,5.0,7.0,3.0
1701619341.552257,-1.0,-1.0,-10.0,24.0,4.0,-5.0,-17.0,-3.0
1701619341.552257,-4.0,-18.0,-20.0,-11.0,-10.0,-1.0,8.0,1.0
1701619341.5722826,-8.0,-7.0,22.0,-12.0,-7.0,-7.0,-11.0,-7.0
1701619341.5722826,2.0,-29.0,10.0,2.0,-6.0,-1.0,9.0,-2.0
1701619341.5822105,0.0,3.0,1.0,-6.0,6.0,2.0,3.0,2.0
1701619341.5822105,-1.0,-8.0,-26.0,7.0,0.0,-3.0,-9.0,-1.0
1701619341.5922267,-9.0,-14.0,-17.0,-20.0,-2.0,0.0,-8.0,-5.0
1701619341.5922267,12.0,-35.0,-24.0,2.0,-5.0,-5.0,-9.0,2.0
1701619341.602551,-3.0,25.0,50.0,10.0,1.0,3.0,-5.0,-4.0
1701619341.602551,-7.0,-8.0,-15.0,5.0,-6.0,-12.0,-26.0,-8.0
1701619341.612596,-7.0,-22.0,-14.0,3.0,-3.0,-5.0,31.0,-6.0
1701619341.612596,-4.0,-38.0,-20.0,-9.0,0.0,1.0,-36.0,-6.0
1701619341.6222134,-5.0,49.0,19.0,-15.0,-4.0,3.0,26.0,7.0
1701619341.6222134,3.0,-35.0,-30.0,-17.0,0.0,2.0,6.0,-13.0
1701619341.6326118,7.0,51.0,-17.0,-2.0,-2.0,0.0,1.0,3.0
1701619341.6326118,-15.0,7.0,12.0,5.0,3.0,-4.0,-17.0,-18.0
1701619341.6422613,3.0,-37.0,-14.0,3.0,-5.0,-6.0,-12.0,4.0
1701619341.6422613,-9.0,-10.0,22.0,-5.0,-1.0,-1.0,7.0,0.0
1701619341.652215,-6.0,-3.0,-17.0,14.0,5.0,0.0,-1.0,-1.0
1701619341.652215,4.0,15.0,2.0,3.0,-2.0,-3.0,-6.0,6.0
1701619341.6822145,3.0,-23.0,-30.0,-27.0,-9.0,-6.0,-8.0,-5.0
1701619341.6822145,-1.0,-2.0,-6.0,3.0,3.0,3.0,7.0,1.0
1701619341.6822145,-1.0,-8.0,18.0,7.0,1.0,-2.0,-15.0,-2.0
1701619341.6822145,0.0,11.0,-3.0,-4.0,-2.0,-1.0,14.0,7.0
1701619341.6822145,-3.0,-27.0,9.0,10.0,2.0,4.0,1.0,-2.0
1701619341.6822145,7.0,17.0,-9.0,6.0,1.0,0.0,-2.0,4.0
1701619341.6924074,-1.0,6.0,22.0,7.0,-1.0,0.0,-3.0,-1.0
1701619341.6924074,3.0,23.0,5.0,-23.0,-4.0,-1.0,3.0,3.0
1701619341.7222152,-1.0,0.0,0.0,19.0,-1.0,-2.0,6.0,-2.0
1701619341.7222152,0.0,33.0,11.0,-11.0,0.0,0.0,-4.0,0.0
1701619341.7222152,0.0,3.0,19.0,21.0,5.0,4.0,-3.0,-1.0
1701619341.7222152,1.0,-9.0,-6.0,-11.0,-2.0,-1.0,10.0,2.0
1701619341.7222152,0.0,14.0,7.0,9.0,1.0,-1.0,-6.0,-1.0
1701619341.7222152,0.0,-8.0,-37.0,-26.0,-2.0,-5.0,-10.0,0.0
1701619341.7422125,1.0,13.0,16.0,1.0,2.0,3.0,18.0,-3.0
1701619341.7422125,-8.0,4.0,-17.0,-1.0,-3.0,-6.0,-9.0,0.0
1701619341.7422125,1.0,8.0,14.0,15.0,5.0,4.0,15.0,0.0
1701619341.7422125,-2.0,-9.0,-10.0,-26.0,-10.0,-3.0,-17.0,-1.0
1701619341.7525313,1.0,5.0,-14.0,-6.0,0.0,-1.0,-1.0,-1.0
1701619341.7525313,-2.0,27.0,12.0,-6.0,-1.0,-1.0,-4.0,0.0
1701619341.762467,0.0,15.0,-23.0,-11.0,-6.0,-1.0,-3.0,0.0
1701619341.762467,-6.0,-25.0,-2.0,14.0,2.0,1.0,10.0,0.0
1701619341.7925253,5.0,30.0,22.0,-7.0,4.0,-1.0,-21.0,-5.0
1701619341.7925253,3.0,20.0,-7.0,20.0,-4.0,4.0,19.0,0.0
1701619341.8024986,-6.0,-28.0,16.0,-5.0,-2.0,-1.0,-3.0,11.0
1701619341.8024986,2.0,4.0,14.0,-21.0,-5.0,-6.0,0.0,-11.0
1701619341.8222108,-6.0,-15.0,-70.0,-16.0,1.0,-3.0,-8.0,5.0
1701619341.8222108,-1.0,7.0,62.0,33.0,-1.0,-5.0,-1.0,-1.0
1701619341.8222108,7.0,25.0,26.0,13.0,7.0,5.0,14.0,1.0
1701619341.8222108,0.0,7.0,-34.0,-24.0,-5.0,3.0,-9.0,3.0
1701619341.842527,2.0,7.0,35.0,9.0,0.0,-5.0,5.0,0.0
1701619341.842527,-1.0,-40.0,-2.0,-7.0,4.0,8.0,15.0,-3.0
1701619341.842527,5.0,14.0,-27.0,-8.0,-6.0,0.0,-10.0,-4.0
1701619341.842527,-4.0,-15.0,36.0,29.0,8.0,3.0,9.0,-1.0
1701619341.882209,0.0,-4.0,6.0,-8.0,-10.0,-6.0,0.0,-9.0
1701619341.882209,5.0,19.0,-5.0,-7.0,0.0,-1.0,-4.0,5.0
1701619341.882209,-1.0,-30.0,-30.0,-14.0,-2.0,-5.0,-7.0,-10.0
1701619341.882209,6.0,19.0,41.0,15.0,6.0,7.0,14.0,11.0
1701619341.882209,0.0,-1.0,-33.0,8.0,4.0,2.0,1.0,0.0
1701619341.882209,0.0,-9.0,-11.0,-3.0,-4.0,-3.0,1.0,0.0
1701619341.882209,-3.0,-10.0,-14.0,-14.0,-2.0,-3.0,-4.0,-5.0
1701619341.882209,2.0,-1.0,17.0,11.0,0.0,-1.0,-5.0,5.0
1701619341.882209,-6.0,-12.0,16.0,-4.0,-1.0,2.0,6.0,9.0
1701619341.8922143,13.0,7.0,-15.0,-10.0,-1.0,-3.0,-11.0,2.0
1701619341.8922143,-18.0,-11.0,-10.0,-13.0,-9.0,-16.0,-40.0,-47.0
1701619341.8922143,3.0,2.0,-5.0,15.0,1.0,-4.0,-10.0,-3.0
1701619341.9022143,0.0,-5.0,15.0,2.0,0.0,4.0,6.0,2.0
1701619341.9022143,-3.0,-6.0,-26.0,-9.0,0.0,4.0,10.0,11.0
1701619341.9122593,10.0,11.0,9.0,7.0,3.0,6.0,16.0,18.0
1701619341.9122593,5.0,16.0,-5.0,0.0,3.0,4.0,7.0,-2.0
1701619341.928592,-7.0,8.0,8.0,4.0,-6.0,-3.0,-6.0,2.0
1701619341.928592,-2.0,-5.0,0.0,-4.0,-4.0,-2.0,-2.0,-1.0
1701619341.9298995,2.0,-3.0,-18.0,-14.0,3.0,1.0,5.0,3.0
1701619341.9298995,-2.0,7.0,24.0,18.0,0.0,-1.0,-4.0,-5.0
1701619341.9450927,5.0,-9.0,-3.0,17.0,5.0,1.0,-3.0,4.0
1701619341.9450927,-4.0,-10.0,-36.0,-15.0,-1.0,-3.0,-4.0,-7.0
1701619341.9450927,0.0,12.0,28.0,6.0,-2.0,1.0,3.0,5.0
1701619341.9450927,-5.0,-15.0,-13.0,-18.0,-6.0,-3.0,-2.0,-3.0
1701619341.9555166,1.0,-13.0,-43.0,-21.0,-4.0,-4.0,-3.0,-4.0
1701619341.9555166,-1.0,6.0,23.0,10.0,2.0,1.0,0.0,-3.0
1701619341.9555166,1.0,1.0,-1.0,-2.0,-2.0,-2.0,2.0,3.0
1701619341.9555166,-6.0,2.0,59.0,45.0,-1.0,-4.0,-3.0,-3.0
1701619341.9855278,1.0,-21.0,5.0,6.0,-2.0,-2.0,-5.0,-5.0
1701619341.9855278,2.0,10.0,-25.0,-24.0,-2.0,-3.0,-6.0,-4.0
1701619341.9855278,2.0,-10.0,-3.0,-3.0,3.0,2.0,3.0,5.0
1701619341.9855278,-1.0,20.0,-36.0,-7.0,3.0,3.0,1.0,-3.0
1701619341.9955332,-3.0,-45.0,22.0,12.0,-6.0,0.0,-3.0,-4.0
1701619341.9955332,-6.0,-9.0,-24.0,-7.0,-1.0,-1.0,-2.0,-2.0
1701619341.9955332,1.0,17.0,53.0,8.0,-3.0,-2.0,1.0,3.0
1701619341.9955332,3.0,8.0,-45.0,-17.0,-7.0,-5.0,-2.0,-1.0
1701619342.0455282,-5.0,14.0,-9.0,-21.0,1.0,-2.0,-4.0,-4.0
1701619342.0455282,1.0,7.0,22.0,6.0,-6.0,-2.0,-4.0,-2.0
1701619342.0455282,-1.0,-12.0,1.0,3.0,-1.0,-3.0,-3.0,-1.0
1701619342.0455282,1.0,6.0,17.0,8.0,4.0,1.0,1.0,0.0
1701619342.0555606,4.0,9.0,7.0,-1.0,1.0,2.0,3.0,2.0
1701619342.0555606,-1.0,-19.0,-35.0,-7.0,-6.0,-5.0,-4.0,-4.0
1701619342.0555606,-6.0,-2.0,-4.0,1.0,-3.0,-3.0,-3.0,-1.0
1701619342.0655327,-1.0,-1.0,8.0,-4.0,0.0,-1.0,0.0,0.0
1701619342.0757551,0.0,7.0,-9.0,0.0,-2.0,-3.0,-2.0,-2.0
1701619342.0757551,-4.0,-3.0,10.0,4.0,0.0,-2.0,1.0,-1.0
1701619342.085528,2.0,-9.0,-22.0,-9.0,-4.0,-1.0,-2.0,0.0
1701619342.085528,-3.0,-4.0,-2.0,10.0,2.0,1.0,-2.0,-1.0
1701619342.0955617,-2.0,-9.0,9.0,-5.0,-2.0,-3.0,-1.0,-4.0
1701619342.0955617,1.0,10.0,13.0,-8.0,-3.0,-2.0,-3.0,-1.0
1701619342.0955617,-3.0,-3.0,-24.0,-5.0,0.0,1.0,1.0,0.0
1701619342.0955617,-1.0,-2.0,4.0,-2.0,-4.0,-1.0,0.0,-1.0
1701619342.1058793,-1.0,6.0,12.0,3.0,5.0,0.0,-1.0,-3.0
1701619342.1058793,-3.0,-19.0,3.0,10.0,1.0,0.0,-1.0,-3.0
1701619342.1058793,0.0,8.0,-8.0,-9.0,-4.0,1.0,-2.0,-1.0
1701619342.1058793,1.0,-11.0,-36.0,-30.0,-4.0,0.0,2.0,-1.0
1701619342.1058793,-1.0,-3.0,-5.0,-6.0,-6.0,-3.0,-3.0,-1.0
1701619342.1058793,2.0,1.0,21.0,12.0,-2.0,-2.0,1.0,-1.0
1701619342.1155298,0.0,12.0,13.0,13.0,7.0,2.0,-1.0,-1.0
1701619342.1155298,-3.0,18.0,-5.0,-3.0,-2.0,0.0,0.0,-3.0
1701619342.1459296,0.0,-5.0,9.0,3.0,0.0,-1.0,-5.0,0.0
1701619342.1459296,6.0,14.0,-1.0,1.0,2.0,-1.0,5.0,0.0
1701619342.1555285,-1.0,23.0,-16.0,-3.0,-3.0,-3.0,-1.0,-1.0
1701619342.1555285,-4.0,-19.0,3.0,0.0,0.0,-1.0,0.0,-1.0
1701619342.1655285,-17.0,0.0,-5.0,4.0,-1.0,-4.0,-10.0,-2.0
1701619342.1655285,-12.0,-8.0,12.0,-7.0,-4.0,-4.0,1.0,-3.0
1701619342.1655285,0.0,-13.0,-3.0,2.0,-1.0,5.0,16.0,0.0
1701619342.1655285,3.0,8.0,8.0,2.0,1.0,-1.0,-12.0,-6.0
1701619342.1755333,7.0,23.0,-17.0,-10.0,-5.0,-2.0,9.0,3.0
1701619342.1755333,5.0,2.0,21.0,11.0,3.0,3.0,0.0,5.0
1701619342.1755333,-2.0,4.0,1.0,-4.0,-3.0,-4.0,-9.0,3.0
1701619342.1755333,-4.0,-9.0,-20.0,-18.0,-3.0,-2.0,9.0,2.0
1701619342.225528,5.0,-1.0,6.0,8.0,2.0,-4.0,-20.0,-15.0
1701619342.225528,-2.0,5.0,-8.0,-4.0,-1.0,4.0,42.0,20.0
1701619342.225528,0.0,-11.0,12.0,-1.0,-3.0,0.0,-2.0,-11.0
1701619342.225528,-3.0,2.0,-13.0,0.0,0.0,0.0,16.0,9.0
1701619342.225528,-1.0,-9.0,28.0,6.0,-5.0,-4.0,-17.0,-9.0
1701619342.225528,-2.0,-6.0,-35.0,-19.0,-5.0,-3.0,-6.0,-4.0
1701619342.225528,-2.0,-3.0,27.0,21.0,5.0,1.0,-6.0,-1.0
1701619342.225528,0.0,-12.0,-6.0,-11.0,-7.0,-5.0,-4.0,0.0
1701619342.225528,0.0,4.0,5.0,-7.0,5.0,4.0,7.0,2.0
1701619342.225528,-1.0,13.0,-12.0,7.0,-3.0,-4.0,-16.0,-6.0
1701619342.235533,0.0,-21.0,14.0,-2.0,2.0,-2.0,-1.0,2.0
1701619342.235533,0.0,5.0,24.0,9.0,1.0,-1.0,-8.0,-4.0
1701619342.2558186,3.0,-14.0,-26.0,0.0,-4.0,-1.0,7.0,4.0
1701619342.2558186,-3.0,5.0,13.0,21.0,2.0,-1.0,-9.0,-6.0
1701619342.2855263,-1.0,-7.0,-30.0,5.0,3.0,3.0,-1.0,1.0
1701619342.2855263,1.0,-7.0,23.0,11.0,-1.0,-2.0,-2.0,-5.0
1701619342.2855263,0.0,-2.0,-16.0,-22.0,-2.0,2.0,4.0,3.0
1701619342.2855263,0.0,2.0,7.0,-12.0,-3.0,-2.0,-6.0,-2.0
1701619342.2855263,0.0,-3.0,-10.0,7.0,-2.0,-4.0,-1.0,0.0
1701619342.2855263,0.0,-6.0,4.0,10.0,-2.0,-2.0,-4.0,-1.0
1701619342.3155274,0.0,3.0,-9.0,-6.0,8.0,2.0,5.0,2.0
1701619342.3155274,-7.0,2.0,8.0,1.0,-1.0,0.0,-8.0,-5.0
1701619342.3155274,2.0,4.0,-5.0,-15.0,-3.0,-1.0,1.0,0.0
1701619342.3155274,1.0,3.0,-6.0,-5.0,-4.0,-4.0,-1.0,-1.0
1701619342.3155274,-3.0,-3.0,-13.0,3.0,-4.0,-6.0,0.0,-1.0
1701619342.3155274,2.0,-2.0,1.0,6.0,7.0,2.0,-3.0,-2.0
1701619342.325551,-3.0,-4.0,-7.0,-7.0,-4.0,-4.0,-2.0,-2.0
1701619342.325551,-1.0,-1.0,-6.0,0.0,-1.0,0.0,-3.0,-3.0
1701619342.3358004,-1.0,1.0,2.0,-7.0,-2.0,-1.0,-1.0,1.0
1701619342.3358004,5.0,-6.0,-2.0,-1.0,-3.0,-4.0,-11.0,0.0
1701619342.3358004,-5.0,7.0,-2.0,-4.0,0.0,3.0,15.0,-1.0
1701619342.3358004,-4.0,-3.0,-7.0,-8.0,-3.0,-1.0,5.0,0.0
1701619342.3555322,1.0,-5.0,2.0,6.0,1.0,0.0,-8.0,-2.0
1701619342.3555322,-12.0,-27.0,5.0,7.0,2.0,-3.0,-11.0,-5.0
1701619342.3555322,3.0,8.0,-4.0,-9.0,-5.0,-2.0,2.0,1.0
1701619342.3555322,-2.0,-2.0,-9.0,-8.0,0.0,0.0,-6.0,-3.0
1701619342.3758209,3.0,1.0,27.0,6.0,-3.0,0.0,6.0,0.0
1701619342.3758209,-2.0,-13.0,-51.0,-8.0,-4.0,0.0,-3.0,-2.0
1701619342.3955288,-10.0,0.0,4.0,1.0,1.0,-2.0,-4.0,-2.0
1701619342.3955288,-5.0,0.0,3.0,5.0,3.0,-1.0,3.0,0.0
1701619342.3955288,0.0,0.0,2.0,1.0,0.0,-1.0,2.0,0.0
1701619342.3955288,1.0,-2.0,-15.0,-14.0,-3.0,-2.0,2.0,-2.0
1701619342.3955288,0.0,-1.0,12.0,3.0,-2.0,-2.0,-5.0,-1.0
1701619342.3955288,3.0,0.0,-18.0,-2.0,-1.0,-1.0,1.0,-1.0
1701619342.415533,1.0,10.0,-19.0,-7.0,-4.0,0.0,0.0,3.0
1701619342.415533,-10.0,-26.0,4.0,-7.0,-4.0,-1.0,0.0,-3.0
1701619342.415533,3.0,11.0,-14.0,-11.0,-1.0,-1.0,2.0,-4.0
1701619342.415533,0.0,-11.0,-12.0,-1.0,0.0,-2.0,6.0,0.0
1701619342.4629364,2.0,11.0,-18.0,0.0,-2.0,-1.0,-12.0,-3.0
1701619342.4629364,1.0,27.0,38.0,-10.0,-3.0,0.0,13.0,1.0
1701619342.4629364,0.0,-6.0,-33.0,-6.0,-1.0,-3.0,-8.0,0.0
1701619342.4629364,1.0,4.0,12.0,6.0,2.0,0.0,-3.0,1.0
1701619342.4778414,-9.0,5.0,19.0,5.0,-3.0,-2.0,5.0,-2.0
1701619342.4778414,5.0,3.0,3.0,-1.0,-2.0,0.0,-2.0,-1.0
1701619342.4878445,-5.0,-9.0,20.0,10.0,-11.0,-6.0,-7.0,-3.0
1701619342.4878445,2.0,4.0,7.0,-2.0,-2.0,-3.0,-1.0,-2.0
1701619342.4978414,-5.0,-15.0,2.0,4.0,1.0,2.0,2.0,0.0
1701619342.4978414,0.0,-2.0,-26.0,-1.0,18.0,4.0,-5.0,-2.0
1701619342.5078428,3.0,-1.0,-3.0,0.0,0.0,7.0,1.0,1.0
1701619342.5078428,-3.0,-3.0,-1.0,7.0,3.0,0.0,-2.0,1.0
1701619342.518253,-2.0,-1.0,8.0,-1.0,-3.0,1.0,2.0,0.0
1701619342.518253,1.0,7.0,30.0,-2.0,-8.0,-2.0,0.0,-1.0
1701619342.518253,-1.0,-4.0,-46.0,-18.0,2.0,-4.0,-1.0,1.0
1701619342.518253,-2.0,-3.0,11.0,0.0,-9.0,-3.0,-5.0,-1.0
1701619342.537842,-1.0,-2.0,3.0,6.0,0.0,-4.0,-1.0,-3.0
1701619342.537842,1.0,5.0,12.0,4.0,-2.0,-2.0,0.0,-1.0
1701619342.537842,-5.0,-8.0,6.0,5.0,-1.0,-2.0,-4.0,-2.0
1701619342.537842,-3.0,-1.0,-5.0,-8.0,-6.0,-2.0,-4.0,-2.0
1701619342.558098,-2.0,-4.0,-12.0,-5.0,0.0,1.0,1.0,0.0
1701619342.558098,-1.0,2.0,-3.0,5.0,-1.0,-1.0,-1.0,0.0
1701619342.558098,-1.0,-3.0,3.0,-5.0,-2.0,-3.0,-1.0,-1.0
1701619342.558098,1.0,7.0,15.0,16.0,6.0,2.0,1.0,-1.0
1701619342.588041,0.0,-4.0,-10.0,-15.0,-10.0,-5.0,0.0,-1.0
1701619342.588041,0.0,3.0,-1.0,4.0,1.0,-1.0,-2.0,-2.0
1701619342.588041,-1.0,1.0,19.0,12.0,4.0,0.0,-2.0,0.0
1701619342.588041,-1.0,4.0,-3.0,-8.0,-2.0,3.0,-1.0,0.0
1701619342.588041,-1.0,-5.0,-1.0,5.0,12.0,2.0,1.0,-1.0
1701619342.588041,-1.0,-3.0,-18.0,-19.0,-21.0,-6.0,-4.0,-3.0
1701619342.597842,-1.0,1.0,8.0,7.0,8.0,1.0,0.0,-1.0
1701619342.597842,-3.0,-2.0,13.0,2.0,4.0,3.0,-1.0,-1.0
1701619342.6080031,0.0,-2.0,-26.0,-5.0,-3.0,0.0,4.0,2.0
1701619342.6080031,-2.0,3.0,-3.0,0.0,2.0,0.0,2.0,1.0
1701619342.6080031,-3.0,-2.0,3.0,-4.0,-4.0,-2.0,2.0,1.0
1701619342.6080031,-1.0,-1.0,-1.0,-8.0,-3.0,-3.0,-1.0,1.0
1701619342.6381881,-4.0,-3.0,5.0,3.0,2.0,1.0,-1.0,1.0
1701619342.6381881,3.0,9.0,25.0,9.0,1.0,-1.0,-1.0,-2.0
1701619342.6381881,-1.0,-5.0,-35.0,-11.0,-3.0,-1.0,-2.0,0.0
1701619342.6381881,3.0,7.0,11.0,2.0,2.0,0.0,1.0,-1.0
1701619342.6481166,-2.0,-13.0,3.0,0.0,-3.0,-2.0,-5.0,-4.0
1701619342.6481166,0.0,2.0,17.0,1.0,2.0,5.0,6.0,2.0
1701619342.6578467,4.0,4.0,37.0,3.0,-1.0,-1.0,-6.0,2.0
1701619342.6578467,0.0,0.0,-79.0,-26.0,-3.0,2.0,-7.0,1.0
1701619342.697842,-2.0,-2.0,-2.0,5.0,1.0,0.0,3.0,7.0
1701619342.697842,0.0,-1.0,-4.0,-5.0,-2.0,-1.0,-7.0,-11.0
1701619342.697842,2.0,-15.0,8.0,5.0,2.0,-2.0,-16.0,-4.0
1701619342.697842,-4.0,8.0,2.0,-4.0,2.0,1.0,18.0,18.0
1701619342.697842,0.0,-3.0,-28.0,-18.0,-5.0,0.0,-7.0,-14.0
1701619342.697842,0.0,4.0,-9.0,4.0,3.0,1.0,-3.0,8.0
1701619342.697842,-11.0,-20.0,-10.0,-1.0,-5.0,-3.0,8.0,-15.0
1701619342.697842,-10.0,-2.0,26.0,6.0,-1.0,-4.0,-10.0,3.0
1701619342.7078402,16.0,19.0,33.0,8.0,-5.0,-3.0,16.0,3.0
1701619342.7078402,2.0,-3.0,6.0,-3.0,0.0,-2.0,7.0,1.0
1701619342.7078402,3.0,20.0,-40.0,-6.0,5.0,2.0,-5.0,5.0
1701619342.7078402,3.0,-5.0,28.0,7.0,-2.0,0.0,8.0,-21.0
1701619342.7381713,-8.0,0.0,-2.0,0.0,1.0,-4.0,-17.0,21.0
1701619342.7381713,4.0,-30.0,-16.0,-3.0,4.0,9.0,17.0,-2.0
1701619342.7478487,-2.0,6.0,15.0,-16.0,-8.0,1.0,-6.0,-37.0
1701619342.7478487,8.0,19.0,14.0,-4.0,-3.0,-6.0,-4.0,-2.0
1701619342.7478487,-8.0,-44.0,20.0,9.0,1.0,1.0,7.0,-11.0
1701619342.7478487,0.0,-35.0,-13.0,15.0,0.0,-5.0,-10.0,-1.0
1701619342.7478487,-15.0,-46.0,33.0,-6.0,-3.0,-2.0,1.0,5.0
1701619342.7478487,28.0,37.0,-69.0,-10.0,-1.0,1.0,15.0,1.0
1701619342.768017,-21.0,-27.0,10.0,-2.0,-4.0,-5.0,-15.0,-17.0
1701619342.768017,-13.0,-24.0,-18.0,-3.0,-3.0,-2.0,3.0,14.0
1701619342.768017,-2.0,15.0,-6.0,0.0,-1.0,1.0,4.0,-5.0
1701619342.768017,5.0,-17.0,19.0,9.0,2.0,-5.0,-23.0,-8.0
1701619342.787845,14.0,19.0,-32.0,6.0,2.0,2.0,6.0,8.0
1701619342.787845,-20.0,10.0,-8.0,-13.0,-6.0,1.0,17.0,-1.0
1701619342.787845,8.0,11.0,-6.0,-5.0,1.0,1.0,10.0,4.0
1701619342.787845,-7.0,-9.0,15.0,4.0,0.0,-1.0,-18.0,1.0
1701619342.787845,3.0,23.0,5.0,6.0,3.0,-2.0,-19.0,-15.0
1701619342.787845,-2.0,-3.0,-30.0,-15.0,-5.0,-10.0,-24.0,-13.0
1701619342.7981143,0.0,8.0,7.0,-9.0,-12.0,-7.0,11.0,9.0
1701619342.7981143,-10.0,-13.0,-27.0,-13.0,5.0,7.0,7.0,1.0
1701619342.8278418,-6.0,-15.0,51.0,18.0,-6.0,-3.0,3.0,-2.0
1701619342.8278418,9.0,28.0,21.0,41.0,6.0,1.0,-4.0,-2.0
1701619342.8278418,2.0,8.0,33.0,-2.0,0.0,1.0,3.0,11.0
1701619342.8278418,-3.0,-11.0,-17.0,-6.0,2.0,2.0,5.0,2.0
1701619342.8381143,3.0,9.0,12.0,8.0,-6.0,-4.0,-2.0,3.0
1701619342.8381143,0.0,12.0,-24.0,-15.0,-1.0,1.0,4.0,-4.0
1701619342.8381143,1.0,8.0,5.0,16.0,-1.0,-1.0,-7.0,-1.0
1701619342.8381143,-5.0,-13.0,-2.0,-5.0,6.0,0.0,-3.0,-2.0
1701619342.8579211,7.0,10.0,-13.0,-29.0,2.0,8.0,14.0,7.0
1701619342.8579211,0.0,0.0,-6.0,6.0,-6.0,-9.0,-5.0,-2.0
1701619342.8678465,0.0,-8.0,3.0,-1.0,-8.0,-7.0,-9.0,-1.0
1701619342.8678465,-9.0,-7.0,-3.0,-25.0,-13.0,-6.0,-6.0,-5.0
1701619342.887844,3.0,6.0,-16.0,15.0,8.0,0.0,5.0,3.0
1701619342.887844,4.0,-2.0,-1.0,-3.0,8.0,3.0,-1.0,-1.0
1701619342.887844,0.0,3.0,0.0,6.0,2.0,2.0,-4.0,-1.0
1701619342.887844,1.0,2.0,21.0,-10.0,-7.0,-7.0,3.0,-1.0
1701619342.9082923,-7.0,4.0,-11.0,8.0,-6.0,-5.0,-4.0,-5.0
1701619342.9082923,0.0,1.0,30.0,9.0,0.0,-2.0,-6.0,-4.0
1701619342.9082923,3.0,1.0,-19.0,4.0,4.0,2.0,4.0,3.0
1701619342.9082923,-1.0,-4.0,4.0,4.0,0.0,1.0,-3.0,1.0
1701619342.9278424,-1.0,-5.0,-29.0,-35.0,-1.0,2.0,2.0,-2.0
1701619342.9278424,1.0,8.0,-7.0,-10.0,-2.0,-2.0,-2.0,-2.0
1701619342.9278424,5.0,-4.0,-12.0,7.0,5.0,0.0,-1.0,0.0
1701619342.9278424,-5.0,-4.0,22.0,8.0,1.0,0.0,2.0,-1.0
1701619342.9378893,-1.0,1.0,-24.0,-8.0,-7.0,-9.0,-7.0,-4.0
1701619342.9378893,-1.0,-8.0,-26.0,-11.0,-5.0,-2.0,-4.0,-1.0
1701619342.9478464,-4.0,-5.0,-9.0,-9.0,-5.0,-1.0,5.0,-1.0
1701619342.9478464,-1.0,17.0,8.0,7.0,-2.0,-2.0,2.0,-1.0
1701619342.9581578,0.0,9.0,4.0,5.0,6.0,-1.0,5.0,-1.0
1701619342.9581578,5.0,19.0,21.0,0.0,0.0,-2.0,3.0,0.0
1701619342.9581578,0.0,-1.0,-3.0,4.0,5.0,1.0,-15.0,2.0
1701619342.9581578,-6.0,-6.0,-5.0,0.0,-4.0,-4.0,-12.0,-3.0
1701619342.9778466,0.0,9.0,5.0,-7.0,-3.0,-4.0,-12.0,1.0
1701619342.9785528,2.0,-32.0,-1.0,-8.0,-5.0,1.0,10.0,-2.0
1701619343.0093799,4.0,11.0,35.0,5.0,0.0,-1.0,13.0,2.0
1701619343.0093799,5.0,-9.0,-50.0,11.0,2.0,0.0,17.0,3.0
1701619343.0093799,5.0,55.0,-4.0,-6.0,0.0,7.0,0.0,5.0
1701619343.0093799,-10.0,-31.0,38.0,5.0,-2.0,-2.0,-6.0,-14.0
1701619343.0093799,-6.0,-31.0,-8.0,-18.0,-3.0,-4.0,-2.0,-2.0
1701619343.0093799,9.0,-10.0,22.0,12.0,-1.0,-3.0,-7.0,1.0
1701619343.020587,-9.0,-14.0,-34.0,10.0,0.0,0.0,9.0,-1.0
1701619343.020587,2.0,61.0,11.0,-13.0,-4.0,0.0,-3.0,3.0
1701619343.020587,1.0,14.0,16.0,3.0,0.0,0.0,5.0,3.0
1701619343.020587,-6.0,-1.0,-18.0,-3.0,-4.0,-1.0,0.0,-6.0
1701619343.0306532,5.0,-8.0,-12.0,3.0,2.0,2.0,-1.0,0.0
1701619343.0306532,-4.0,1.0,21.0,7.0,2.0,0.0,-3.0,2.0
1701619343.0506735,-3.0,-17.0,-29.0,-22.0,-4.0,-3.0,-6.0,-3.0
1701619343.0506735,-3.0,1.0,0.0,-16.0,0.0,0.0,-7.0,-2.0
1701619343.0606737,-2.0,-16.0,-28.0,-6.0,-2.0,-1.0,0.0,-3.0
1701619343.0606737,1.0,-27.0,-17.0,1.0,-4.0,-6.0,-3.0,-1.0
1701619343.0606737,-6.0,12.0,24.0,24.0,2.0,0.0,-1.0,-2.0
1701619343.0606737,0.0,30.0,-15.0,-24.0,-3.0,-1.0,-1.0,-3.0
1701619343.0810165,-4.0,4.0,-3.0,6.0,2.0,1.0,5.0,10.0
1701619343.0810165,10.0,26.0,2.0,15.0,2.0,1.0,-2.0,-14.0
1701619343.0810165,-6.0,-9.0,-47.0,-26.0,-6.0,-6.0,-6.0,6.0
1701619343.0810165,5.0,-7.0,40.0,16.0,2.0,-1.0,-2.0,-16.0
1701619343.0909982,5.0,-2.0,12.0,-2.0,1.0,0.0,3.0,3.0
1701619343.0909982,1.0,-23.0,-25.0,4.0,-3.0,-2.0,2.0,9.0
1701619343.1010292,-2.0,-28.0,-2.0,-5.0,3.0,4.0,-3.0,2.0
1701619343.1010292,-5.0,-19.0,16.0,2.0,3.0,2.0,-4.0,1.0
1701619343.1206713,-3.0,-4.0,67.0,20.0,-4.0,-3.0,8.0,-4.0
1701619343.1206713,-3.0,-6.0,-42.0,-8.0,2.0,-3.0,-34.0,-3.0
1701619343.1206713,-2.0,16.0,27.0,10.0,-10.0,-4.0,13.0,0.0
1701619343.1206713,2.0,-1.0,-17.0,17.0,1.0,2.0,6.0,5.0
1701619343.141085,-3.0,6.0,18.0,-20.0,-7.0,-6.0,-13.0,-8.0
1701619343.141085,-1.0,30.0,23.0,2.0,7.0,4.0,13.0,5.0
1701619343.141085,1.0,-25.0,-58.0,-6.0,1.0,2.0,-21.0,-6.0
1701619343.141085,-5.0,23.0,-16.0,-19.0,-3.0,-1.0,-9.0,-3.0
1701619343.1506732,1.0,-10.0,14.0,1.0,-1.0,-2.0,4.0,-1.0
1701619343.1506732,6.0,44.0,25.0,12.0,2.0,0.0,2.0,9.0
1701619343.160706,2.0,-18.0,39.0,3.0,-1.0,-3.0,-3.0,-18.0
1701619343.160706,-12.0,-32.0,-12.0,7.0,2.0,-1.0,-1.0,3.0
1701619343.1806743,0.0,56.0,-22.0,0.0,-4.0,1.0,16.0,3.0
1701619343.1806743,-6.0,-37.0,18.0,-17.0,-6.0,-3.0,-19.0,-3.0
1701619343.1806743,-8.0,29.0,-56.0,5.0,4.0,8.0,21.0,1.0
1701619343.1806743,-9.0,-13.0,14.0,-2.0,-4.0,-8.0,-1.0,-5.0
1701619343.200995,10.0,-25.0,6.0,-6.0,-1.0,0.0,-20.0,0.0
1701619343.200995,-6.0,-20.0,4.0,9.0,-4.0,-3.0,30.0,4.0
1701619343.200995,0.0,15.0,-31.0,-33.0,-10.0,-5.0,-13.0,-1.0
1701619343.200995,-6.0,0.0,-31.0,-6.0,10.0,5.0,0.0,-2.0
1701619343.230669,-8.0,-16.0,44.0,20.0,-10.0,-10.0,-10.0,-7.0
1701619343.230669,6.0,13.0,18.0,1.0,4.0,4.0,4.0,-2.0
1701619343.230669,4.0,-1.0,-34.0,10.0,0.0,-4.0,-3.0,1.0
1701619343.230669,-4.0,3.0,27.0,-2.0,-14.0,-5.0,10.0,2.0
1701619343.270672,0.0,-21.0,-76.0,-54.0,-1.0,4.0,3.0,-1.0
1701619343.270672,2.0,6.0,7.0,15.0,9.0,3.0,-4.0,-3.0
1701619343.270672,0.0,2.0,27.0,-3.0,-3.0,-3.0,9.0,2.0
1701619343.270672,-3.0,-13.0,-39.0,-6.0,-7.0,-5.0,-13.0,-2.0
1701619343.280704,-3.0,-19.0,19.0,9.0,-2.0,1.0,16.0,-4.0
1701619343.280704,-5.0,-4.0,0.0,4.0,1.0,9.0,4.0,-1.0
1701619343.280704,9.0,16.0,60.0,59.0,26.0,7.0,-3.0,6.0
1701619343.280704,-7.0,-38.0,-80.0,-80.0,-18.0,-7.0,33.0,-1.0
1701619343.2910357,-3.0,1.0,45.0,20.0,-13.0,-9.0,-9.0,-8.0
1701619343.2910357,-12.0,-10.0,14.0,-29.0,-22.0,-11.0,-20.0,-5.0
1701619343.3006725,3.0,7.0,-20.0,-4.0,1.0,-2.0,-12.0,2.0
1701619343.3006725,0.0,-47.0,54.0,82.0,2.0,1.0,-11.0,-2.0
1701619343.3110106,-2.0,11.0,-46.0,-47.0,1.0,4.0,13.0,-2.0
1701619343.3110106,-3.0,-2.0,15.0,1.0,-3.0,-7.0,2.0,2.0
1701619343.3110106,-5.0,2.0,26.0,26.0,-5.0,6.0,7.0,-11.0
1701619343.3110106,0.0,-62.0,5.0,5.0,11.0,-2.0,-30.0,-1.0
1701619343.3210554,-8.0,-10.0,-91.0,-41.0,-4.0,-6.0,-5.0,-11.0
1701619343.3210554,7.0,-22.0,35.0,27.0,11.0,10.0,-2.0,17.0
1701619343.3210554,6.0,55.0,2.0,6.0,2.0,-4.0,25.0,-4.0
1701619343.3210554,0.0,39.0,54.0,-5.0,-1.0,7.0,-7.0,-2.0
1701619343.3306727,-2.0,-8.0,17.0,46.0,9.0,2.0,-12.0,2.0
1701619343.3306727,-11.0,-51.0,-123.0,-85.0,-9.0,-9.0,1.0,0.0
1701619343.3407042,-3.0,4.0,44.0,12.0,0.0,0.0,1.0,0.0
1701619343.3407042,9.0,61.0,30.0,12.0,-2.0,-4.0,1.0,0.0
1701619343.3606718,-2.0,-39.0,-38.0,-1.0,6.0,1.0,-5.0,2.0
1701619343.3606718,-2.0,15.0,-1.0,13.0,-1.0,2.0,9.0,-6.0
1701619343.3606718,3.0,-11.0,-9.0,-21.0,0.0,-3.0,-5.0,2.0
1701619343.3606718,-3.0,24.0,28.0,8.0,-2.0,-2.0,3.0,0.0
1701619343.3806708,-2.0,17.0,18.0,11.0,0.0,0.0,-7.0,4.0
1701619343.3806708,4.0,5.0,-24.0,-7.0,2.0,1.0,1.0,-4.0
1701619343.3806708,-12.0,-32.0,-18.0,-38.0,-7.0,-2.0,-7.0,-1.0
1701619343.3806708,4.0,16.0,32.0,18.0,-6.0,-5.0,-1.0,-1.0
1701619343.3908536,-9.0,5.0,36.0,32.0,8.0,5.0,2.0,0.0
1701619343.3908536,-1.0,0.0,7.0,3.0,-2.0,-3.0,-1.0,-8.0
1701619343.4008563,5.0,6.0,-28.0,-45.0,-4.0,-4.0,-10.0,2.0
1701619343.4008563,3.0,-3.0,-19.0,-14.0,3.0,1.0,3.0,1.0
1701619343.4206746,-1.0,-1.0,27.0,-5.0,-1.0,-2.0,-2.0,-2.0
1701619343.4206746,-4.0,9.0,-20.0,-4.0,-8.0,-5.0,-4.0,-3.0
1701619343.4206746,-6.0,-15.0,6.0,4.0,-4.0,-2.0,-4.0,0.0
1701619343.4206746,0.0,0.0,-35.0,-2.0,0.0,-3.0,0.0,0.0
1701619343.4406753,-3.0,0.0,42.0,27.0,2.0,-2.0,-3.0,-2.0
1701619343.4406753,1.0,13.0,18.0,4.0,4.0,1.0,-1.0,-2.0
1701619343.4406753,1.0,-6.0,-42.0,4.0,0.0,3.0,0.0,0.0
1701619343.4406753,-1.0,-4.0,17.0,-2.0,-2.0,-1.0,-1.0,-2.0
1701619343.450671,2.0,7.0,3.0,-1.0,-2.0,2.0,2.0,0.0
1701619343.450671,0.0,0.0,-14.0,-9.0,-3.0,-1.0,-4.0,-3.0
1701619343.4610353,-5.0,-3.0,20.0,13.0,0.0,-1.0,-4.0,-4.0
1701619343.4610353,-2.0,-18.0,-5.0,4.0,1.0,0.0,7.0,1.0
1701619343.4806712,0.0,3.0,-6.0,-5.0,-2.0,-3.0,-7.0,0.0
1701619343.4806712,1.0,4.0,38.0,20.0,3.0,2.0,26.0,1.0
1701619343.4806712,0.0,-5.0,18.0,9.0,0.0,2.0,-2.0,-1.0
1701619343.4806712,-6.0,-12.0,-60.0,-23.0,-5.0,-2.0,-5.0,-2.0
1701619343.5353866,-1.0,-3.0,-10.0,-13.0,-3.0,0.0,1.0,1.0
1701619343.5353866,-4.0,-6.0,-13.0,-1.0,-1.0,-6.0,-13.0,0.0
1701619343.536394,1.0,15.0,17.0,6.0,0.0,-2.0,-2.0,0.0
1701619343.536394,0.0,6.0,32.0,14.0,4.0,2.0,3.0,0.0
1701619343.5432186,-2.0,-10.0,-46.0,-18.0,-4.0,-4.0,-4.0,-3.0
1701619343.5432186,4.0,10.0,2.0,7.0,1.0,-2.0,-3.0,-1.0
1701619343.5432186,-8.0,-14.0,-12.0,-9.0,-5.0,-2.0,-1.0,-2.0
1701619343.5432186,2.0,5.0,8.0,7.0,3.0,1.0,-2.0,-1.0
1701619343.5432186,2.0,6.0,-18.0,-29.0,-6.0,0.0,1.0,-2.0
1701619343.5432186,-4.0,-5.0,49.0,32.0,2.0,-1.0,-4.0,-3.0
1701619343.5432186,-1.0,-3.0,-37.0,-35.0,-10.0,-4.0,-1.0,0.0
1701619343.5432186,-4.0,2.0,-6.0,-9.0,-4.0,-3.0,-4.0,-3.0
1701619343.5635848,0.0,-2.0,29.0,13.0,2.0,0.0,1.0,0.0
1701619343.5635848,0.0,-3.0,-1.0,1.0,0.0,2.0,-1.0,-1.0
1701619343.5635848,0.0,3.0,22.0,12.0,2.0,-2.0,-5.0,-1.0
1701619343.5635848,2.0,6.0,-27.0,-4.0,1.0,1.0,0.0,0.0
1701619343.584079,-2.0,-7.0,2.0,-1.0,-3.0,-1.0,-6.0,-1.0
1701619343.584079,-1.0,2.0,-12.0,-11.0,-3.0,-1.0,1.0,1.0
1701619343.584079,1.0,-2.0,18.0,6.0,-1.0,0.0,4.0,1.0
1701619343.584079,-1.0,3.0,-11.0,5.0,-1.0,1.0,-1.0,0.0
1701619343.6037483,-1.0,-3.0,17.0,11.0,1.0,-2.0,4.0,-2.0
1701619343.6037483,2.0,17.0,-6.0,-12.0,0.0,0.0,-2.0,0.0
1701619343.6037483,-2.0,-1.0,4.0,5.0,1.0,0.0,-1.0,-1.0
1701619343.6037483,1.0,19.0,3.0,-2.0,1.0,-2.0,-8.0,1.0
1701619343.6240828,-1.0,-3.0,10.0,7.0,0.0,2.0,0.0,-1.0
1701619343.6240828,-1.0,-10.0,-19.0,-14.0,-5.0,-1.0,-1.0,-2.0
1701619343.6338072,3.0,2.0,5.0,8.0,1.0,-1.0,3.0,-1.0
1701619343.6338072,-2.0,-2.0,0.0,-2.0,0.0,0.0,-4.0,-2.0
1701619343.644083,0.0,-2.0,3.0,9.0,2.0,-1.0,-4.0,0.0
1701619343.644083,0.0,4.0,6.0,-16.0,-3.0,1.0,-2.0,-2.0
1701619343.644083,-2.0,-9.0,-31.0,5.0,-2.0,-2.0,-6.0,-2.0
1701619343.644083,0.0,-3.0,-18.0,-25.0,-5.0,-2.0,1.0,-1.0
1701619343.6737506,-1.0,-2.0,0.0,-2.0,0.0,-3.0,0.0,-1.0
1701619343.6737506,1.0,-2.0,7.0,14.0,1.0,0.0,2.0,0.0
1701619343.6737506,-2.0,-5.0,-3.0,-19.0,-7.0,-5.0,-4.0,-2.0
1701619343.6737506,0.0,-1.0,4.0,10.0,1.0,2.0,4.0,0.0
1701619343.6838512,0.0,-3.0,-8.0,-11.0,-3.0,1.0,-2.0,-2.0
1701619343.6838512,0.0,2.0,24.0,14.0,5.0,0.0,-4.0,0.0
1701619343.6940572,-4.0,-2.0,-24.0,4.0,1.0,-1.0,-1.0,1.0
1701619343.6940572,-3.0,-2.0,-5.0,-10.0,-6.0,-3.0,-1.0,-2.0
1701619343.7043426,0.0,-3.0,3.0,-5.0,-2.0,-2.0,-4.0,-1.0
1701619343.7043426,-2.0,-5.0,8.0,1.0,-4.0,-3.0,-3.0,-1.0
1701619343.7043426,2.0,-1.0,-28.0,-5.0,-3.0,-1.0,0.0,-2.0
1701619343.7043426,-2.0,-3.0,-4.0,-9.0,1.0,0.0,0.0,1.0
1701619343.7340786,-2.0,-13.0,18.0,5.0,-3.0,-2.0,-2.0,-1.0
1701619343.7340786,0.0,29.0,-34.0,4.0,1.0,-1.0,1.0,1.0
1701619343.7340786,-3.0,-2.0,-2.0,-11.0,-2.0,-1.0,-1.0,0.0
1701619343.7340786,-4.0,1.0,32.0,15.0,-1.0,-1.0,-2.0,0.0
1701619343.7741015,-1.0,-3.0,-19.0,-9.0,-1.0,1.0,-2.0,0.0
1701619343.7741015,-1.0,-1.0,11.0,2.0,1.0,-1.0,-4.0,-3.0
1701619343.7840786,0.0,1.0,13.0,8.0,1.0,-1.0,-4.0,-2.0
1701619343.7840786,1.0,3.0,18.0,5.0,1.0,-1.0,-2.0,-4.0
1701619343.7840786,1.0,10.0,-34.0,-5.0,-1.0,-2.0,-1.0,1.0
1701619343.7840786,-1.0,-37.0,15.0,-1.0,-3.0,-2.0,-1.0,0.0
1701619343.7840786,-4.0,5.0,-21.0,-4.0,-1.0,1.0,0.0,-1.0
1701619343.7840786,2.0,-5.0,-3.0,-3.0,0.0,1.0,0.0,-1.0
1701619343.7944472,0.0,0.0,-14.0,-9.0,-2.0,-2.0,-1.0,-2.0
1701619343.7944472,-6.0,-8.0,7.0,-10.0,-4.0,-2.0,-3.0,-3.0
1701619343.8040807,1.0,1.0,39.0,18.0,4.0,2.0,1.0,1.0
1701619343.8040807,-1.0,-1.0,-27.0,-5.0,-3.0,-2.0,-1.0,-1.0
1701619343.8340778,0.0,1.0,10.0,4.0,-1.0,0.0,-1.0,-1.0
1701619343.8340778,-3.0,1.0,-15.0,-5.0,-1.0,-1.0,2.0,-3.0
1701619343.8340778,-1.0,-7.0,28.0,0.0,-2.0,-3.0,-3.0,-2.0
1701619343.8340778,0.0,25.0,2.0,4.0,0.0,0.0,-9.0,-2.0
1701619343.8340778,-2.0,-9.0,21.0,3.0,1.0,2.0,7.0,0.0
1701619343.8340778,-1.0,0.0,-27.0,-7.0,-3.0,-2.0,-6.0,-1.0
1701619343.8340778,2.0,3.0,3.0,9.0,2.0,1.0,0.0,2.0
1701619343.8340778,-4.0,-13.0,-13.0,0.0,-1.0,-3.0,-2.0,-1.0
1701619343.8540792,-4.0,-9.0,-19.0,-25.0,-5.0,-2.0,-2.0,-1.0
1701619343.8540792,2.0,10.0,-3.0,7.0,0.0,-2.0,-1.0,1.0
1701619343.8640773,-3.0,7.0,22.0,13.0,5.0,1.0,1.0,-3.0
1701619343.8640773,1.0,-9.0,19.0,-8.0,-4.0,-3.0,-1.0,-1.0
1701619343.8640773,1.0,23.0,-10.0,13.0,1.0,-3.0,-6.0,-2.0
1701619343.8640773,-6.0,-18.0,-23.0,-16.0,-2.0,0.0,1.0,-1.0
1701619343.874305,2.0,-1.0,17.0,1.0,-2.0,-3.0,-2.0,-3.0
1701619343.874305,-2.0,-2.0,-2.0,7.0,-1.0,-2.0,-2.0,-2.0
1701619343.9040737,-2.0,-8.0,17.0,6.0,-5.0,-1.0,10.0,-3.0
1701619343.9040737,-3.0,8.0,6.0,0.0,-3.0,-4.0,-6.0,-3.0
1701619343.9040737,2.0,-3.0,-9.0,1.0,2.0,1.0,-2.0,2.0
1701619343.9040737,-3.0,-11.0,-8.0,0.0,-4.0,-1.0,5.0,-2.0
1701619343.9144907,0.0,2.0,-2.0,-6.0,-3.0,-4.0,-6.0,-1.0
1701619343.9144907,-1.0,-11.0,-3.0,3.0,-2.0,-2.0,-10.0,-2.0
1701619343.9144907,1.0,22.0,-1.0,-9.0,-2.0,4.0,19.0,0.0
1701619343.9144907,-1.0,0.0,20.0,12.0,1.0,-1.0,-1.0,-2.0
1701619343.934508,-2.0,-10.0,-5.0,1.0,1.0,-1.0,-3.0,-1.0
1701619343.934508,-1.0,3.0,8.0,3.0,-1.0,0.0,1.0,0.0
1701619343.934508,-5.0,-18.0,-6.0,-12.0,-5.0,-6.0,-9.0,-2.0
1701619343.934508,12.0,35.0,4.0,0.0,1.0,-2.0,2.0,2.0
1701619343.954078,-9.0,-46.0,-9.0,-2.0,-1.0,-2.0,-24.0,-1.0
1701619343.954078,-1.0,11.0,-2.0,2.0,-4.0,-5.0,6.0,-5.0
1701619343.954078,-6.0,-8.0,-22.0,-7.0,-3.0,-2.0,-7.0,-5.0
1701619343.954078,-1.0,-9.0,-13.0,-10.0,0.0,5.0,20.0,-1.0
1701619343.9640741,0.0,-10.0,26.0,5.0,0.0,-1.0,-16.0,3.0
1701619343.9640741,-8.0,-21.0,-19.0,-2.0,1.0,0.0,-9.0,-10.0
1701619343.9740753,4.0,8.0,17.0,11.0,1.0,1.0,6.0,11.0
1701619343.9740753,1.0,19.0,6.0,-7.0,-5.0,-6.0,-2.0,-13.0
1701619343.9740753,-1.0,-4.0,-19.0,-7.0,-4.0,-2.0,24.0,4.0
1701619343.9740753,7.0,-23.0,-6.0,-12.0,-2.0,3.0,7.0,5.0
1701619343.9940748,-8.0,7.0,-12.0,-1.0,-2.0,-2.0,-5.0,-7.0
1701619343.9940748,-6.0,-11.0,26.0,6.0,0.0,1.0,-5.0,2.0
1701619344.0044425,4.0,14.0,11.0,14.0,1.0,-1.0,-6.0,-2.0
1701619344.0044425,5.0,34.0,7.0,-4.0,3.0,2.0,-1.0,4.0
1701619344.0144935,-4.0,-22.0,-27.0,-17.0,-4.0,-3.0,-1.0,-1.0
1701619344.0144935,-3.0,-9.0,3.0,3.0,-1.0,-1.0,-11.0,0.0
1701619344.0144935,2.0,8.0,4.0,0.0,3.0,0.0,2.0,-4.0
1701619344.0144935,1.0,2.0,13.0,4.0,-2.0,-3.0,6.0,3.0
1701619344.0244417,3.0,-3.0,-13.0,-9.0,-5.0,-4.0,-7.0,-4.0
1701619344.0244417,-9.0,-14.0,-15.0,1.0,5.0,3.0,-1.0,1.0
1701619344.0431466,-1.0,4.0,7.0,-1.0,-3.0,-4.0,3.0,-4.0
1701619344.0431466,-1.0,4.0,-9.0,-15.0,-1.0,0.0,-1.0,0.0
1701619344.0574195,1.0,-6.0,-14.0,-17.0,-6.0,-5.0,-5.0,-2.0
1701619344.0574195,1.0,-10.0,-11.0,0.0,-2.0,1.0,0.0,0.0
1701619344.0606916,-1.0,5.0,6.0,-1.0,2.0,-2.0,3.0,-2.0
1701619344.0606916,-3.0,-1.0,-3.0,-8.0,-2.0,-3.0,-7.0,-1.0
1701619344.0606916,-5.0,-8.0,0.0,10.0,-4.0,-3.0,-3.0,-4.0
1701619344.0606916,1.0,-24.0,9.0,-8.0,-5.0,-3.0,0.0,1.0
1701619344.0710547,3.0,20.0,15.0,4.0,-2.0,0.0,-2.0,-2.0
1701619344.0710547,-8.0,-7.0,-23.0,-4.0,0.0,0.0,0.0,-3.0
1701619344.0910661,0.0,-8.0,15.0,8.0,2.0,0.0,-1.0,-3.0
1701619344.0910661,0.0,-3.0,-5.0,0.0,2.0,0.0,-3.0,2.0
1701619344.131542,0.0,-1.0,5.0,3.0,-7.0,-3.0,-3.0,-2.0
1701619344.131542,3.0,-1.0,4.0,10.0,7.0,3.0,-1.0,-1.0
1701619344.131542,3.0,2.0,8.0,0.0,-1.0,1.0,-2.0,1.0
1701619344.131542,-3.0,8.0,5.0,7.0,0.0,-2.0,0.0,0.0
1701619344.141414,-4.0,-1.0,-31.0,-12.0,-2.0,0.0,2.0,0.0
1701619344.141414,-1.0,2.0,11.0,3.0,-7.0,-6.0,-1.0,-2.0
1701619344.1511428,-4.0,-1.0,11.0,3.0,2.0,0.0,0.0,0.0
1701619344.1511428,-1.0,-1.0,-20.0,1.0,-3.0,-2.0,-10.0,0.0
1701619344.161259,-3.0,-1.0,-4.0,-11.0,1.0,4.0,12.0,-1.0
1701619344.161259,-1.0,-4.0,-19.0,2.0,1.0,-2.0,-1.0,0.0
1701619344.1710987,2.0,-2.0,12.0,4.0,4.0,1.0,-2.0,0.0
1701619344.1710987,1.0,-2.0,-1.0,-4.0,-3.0,0.0,-4.0,0.0
1701619344.1812842,-4.0,2.0,-2.0,-3.0,-4.0,-3.0,-5.0,-2.0
1701619344.1812842,-1.0,-2.0,3.0,-4.0,-1.0,-2.0,-8.0,0.0
1701619344.1812842,-1.0,3.0,-9.0,-2.0,-3.0,-1.0,13.0,0.0
1701619344.1812842,-3.0,-2.0,6.0,3.0,3.0,-3.0,-12.0,-4.0
1701619344.20118,0.0,-4.0,3.0,2.0,-3.0,0.0,3.0,0.0
1701619344.20118,-1.0,-6.0,-20.0,-15.0,0.0,1.0,-15.0,-2.0
1701619344.20118,4.0,2.0,-8.0,-3.0,-2.0,-2.0,9.0,-1.0
1701619344.20118,2.0,2.0,25.0,10.0,2.0,1.0,-2.0,1.0
1701619344.20118,-3.0,0.0,1.0,-5.0,-2.0,-7.0,-6.0,-4.0
1701619344.20118,0.0,-21.0,-6.0,2.0,-1.0,2.0,14.0,-1.0
1701619344.20118,3.0,18.0,23.0,-4.0,-2.0,-2.0,8.0,-1.0
1701619344.20118,-2.0,16.0,-4.0,5.0,2.0,3.0,2.0,3.0
1701619344.2311032,-3.0,-41.0,-29.0,-12.0,-1.0,0.0,3.0,-2.0
1701619344.2311032,1.0,30.0,1.0,-5.0,-5.0,-7.0,-14.0,-4.0
1701619344.2311032,-8.0,-6.0,-21.0,-4.0,0.0,-5.0,-24.0,-6.0
1701619344.2311032,3.0,-2.0,10.0,-2.0,-5.0,0.0,25.0,2.0
1701619344.251441,0.0,1.0,-10.0,-5.0,-2.0,1.0,2.0,-1.0
1701619344.251441,3.0,-6.0,9.0,9.0,1.0,-3.0,-3.0,-6.0
1701619344.251441,-7.0,-10.0,15.0,10.0,1.0,0.0,7.0,2.0
1701619344.251441,1.0,17.0,-19.0,-15.0,-4.0,-1.0,-5.0,-2.0
1701619344.251441,-6.0,-6.0,4.0,2.0,-1.0,-2.0,1.0,0.0
1701619344.251441,3.0,33.0,4.0,-3.0,0.0,1.0,13.0,12.0
1701619344.2612655,-1.0,5.0,-12.0,2.0,0.0,-3.0,-14.0,-22.0
1701619344.2612655,0.0,-8.0,6.0,3.0,0.0,-2.0,-4.0,0.0
1701619344.2814407,3.0,17.0,10.0,11.0,6.0,3.0,-7.0,1.0
1701619344.2814407,-4.0,-15.0,5.0,-6.0,-2.0,-5.0,3.0,-1.0
1701619344.3010995,1.0,-6.0,-2.0,-1.0,-3.0,0.0,-17.0,0.0
1701619344.3010995,-4.0,-6.0,-9.0,-3.0,0.0,-3.0,-2.0,-4.0
1701619344.3010995,4.0,5.0,49.0,11.0,4.0,1.0,-3.0,0.0
1701619344.3010995,-5.0,-3.0,-57.0,-10.0,-8.0,-2.0,-2.0,-1.0
1701619344.3010995,0.0,-6.0,7.0,-1.0,-1.0,-1.0,2.0,4.0
1701619344.3010995,-3.0,-12.0,4.0,16.0,6.0,4.0,6.0,-3.0
1701619344.3112109,1.0,14.0,9.0,-23.0,-3.0,-2.0,-10.0,0.0
1701619344.3112109,-3.0,-16.0,1.0,15.0,1.0,-1.0,3.0,-1.0
1701619344.3214269,2.0,1.0,32.0,-8.0,-5.0,1.0,4.0,2.0
1701619344.3214269,3.0,7.0,-49.0,-15.0,-4.0,-2.0,-8.0,2.0
1701619344.341098,1.0,-1.0,50.0,33.0,1.0,1.0,2.0,-8.0
1701619344.341098,-4.0,-26.0,-63.0,-31.0,-12.0,-8.0,-4.0,-5.0
1701619344.341098,-10.0,-3.0,19.0,5.0,-2.0,2.0,8.0,12.0
1701619344.341098,1.0,-11.0,1.0,-9.0,3.0,2.0,-8.0,-19.0
1701619344.3615391,-4.0,4.0,-16.0,-5.0,3.0,1.0,-3.0,8.0
1701619344.3615391,2.0,-16.0,11.0,6.0,-2.0,1.0,-9.0,-7.0
1701619344.3715117,-6.0,65.0,20.0,23.0,5.0,2.0,-4.0,5.0
1701619344.3715117,1.0,-26.0,-27.0,-41.0,-6.0,-5.0,0.0,-6.0
1701619344.381102,25.0,14.0,53.0,36.0,0.0,-1.0,8.0,18.0
1701619344.381102,-16.0,4.0,-19.0,-4.0,1.0,-1.0,-13.0,-37.0
1701619344.381102,-9.0,7.0,-5.0,-26.0,-15.0,-4.0,12.0,-4.0
1701619344.381102,-19.0,-14.0,87.0,56.0,14.0,4.0,-20.0,-11.0
1701619344.401505,13.0,8.0,-61.0,-27.0,2.0,1.0,3.0,-7.0
1701619344.401505,-16.0,-29.0,-33.0,-11.0,-3.0,-1.0,10.0,6.0
1701619344.401505,10.0,-1.0,-15.0,-19.0,-1.0,-2.0,-1.0,8.0
1701619344.401505,-6.0,-49.0,-67.0,-29.0,-6.0,-7.0,13.0,5.0
1701619344.4315464,-5.0,-51.0,64.0,15.0,-6.0,-2.0,-16.0,-6.0
1701619344.4315464,7.0,-22.0,19.0,11.0,8.0,1.0,-18.0,-4.0
1701619344.4315464,-22.0,-25.0,-28.0,-7.0,-3.0,-1.0,-5.0,-7.0
1701619344.4315464,22.0,-70.0,-17.0,4.0,-5.0,-4.0,10.0,16.0
1701619344.4414103,-12.0,14.0,-47.0,-15.0,3.0,5.0,-24.0,-7.0
1701619344.4414103,9.0,7.0,58.0,10.0,-2.0,2.0,29.0,16.0
1701619344.4511006,14.0,-5.0,-28.0,-8.0,-2.0,-2.0,-5.0,-4.0
1701619344.4511006,-21.0,12.0,8.0,10.0,1.0,-7.0,-33.0,1.0
1701619344.4610999,-21.0,6.0,-11.0,13.0,4.0,10.0,40.0,-8.0
1701619344.4610999,3.0,16.0,-5.0,-22.0,-3.0,0.0,-5.0,4.0
1701619344.4610999,1.0,5.0,8.0,-6.0,0.0,-2.0,1.0,11.0
1701619344.4610999,11.0,26.0,31.0,32.0,1.0,2.0,9.0,-5.0
1701619344.4814885,-5.0,-6.0,-45.0,-19.0,-8.0,-5.0,-5.0,4.0
1701619344.4814885,5.0,-24.0,29.0,5.0,-1.0,-5.0,-24.0,-5.0
1701619344.4914463,-1.0,-47.0,-17.0,15.0,2.0,3.0,17.0,-2.0
1701619344.4914463,-8.0,57.0,15.0,3.0,0.0,1.0,-2.0,-2.0
1701619344.5010998,4.0,25.0,5.0,4.0,7.0,3.0,-3.0,-2.0
1701619344.5010998,-4.0,9.0,-26.0,1.0,-3.0,-3.0,-2.0,11.0
1701619344.5010998,11.0,31.0,25.0,31.0,4.0,1.0,1.0,-29.0
1701619344.5010998,-3.0,-9.0,-62.0,-43.0,-6.0,0.0,24.0,18.0
1701619344.5313377,1.0,8.0,18.0,15.0,-2.0,-2.0,-26.0,4.0
1701619344.5313377,2.0,11.0,20.0,7.0,5.0,2.0,12.0,-5.0
1701619344.5313377,8.0,82.0,35.0,2.0,-2.0,-2.0,-7.0,3.0
1701619344.5313377,2.0,38.0,6.0,6.0,1.0,2.0,2.0,-2.0
1701619344.5414746,1.0,-18.0,8.0,6.0,2.0,-2.0,7.0,-4.0
1701619344.5414746,0.0,2.0,35.0,14.0,-7.0,-1.0,32.0,5.0
1701619344.551475,4.0,-10.0,-62.0,-39.0,6.0,7.0,-25.0,-4.0
1701619344.551475,-2.0,15.0,15.0,12.0,-1.0,-1.0,1.0,-4.0
1701619344.5611007,-6.0,-5.0,3.0,-21.0,-9.0,-6.0,-4.0,4.0
1701619344.5611007,0.0,6.0,-9.0,32.0,3.0,0.0,-10.0,-3.0
1701619344.5745077,3.0,-9.0,19.0,13.0,-5.0,-5.0,1.0,2.0
1701619344.5745077,3.0,-15.0,3.0,-25.0,6.0,3.0,0.0,4.0
1701619344.6125739,-1.0,-11.0,-46.0,-6.0,-3.0,-5.0,-3.0,-3.0
1701619344.6125739,-8.0,-26.0,-13.0,-4.0,-6.0,-4.0,-5.0,-5.0
1701619344.6125739,8.0,4.0,39.0,18.0,6.0,0.0,2.0,2.0
1701619344.6125739,-10.0,-23.0,6.0,10.0,-3.0,1.0,-7.0,-4.0
1701619344.6225739,-5.0,0.0,-31.0,-35.0,-6.0,-6.0,1.0,-5.0
1701619344.6225739,2.0,-6.0,9.0,-10.0,5.0,3.0,0.0,3.0
1701619344.6327088,-2.0,-24.0,-23.0,-2.0,0.0,0.0,-2.0,4.0
1701619344.6327088,0.0,10.0,30.0,-2.0,-8.0,-6.0,-3.0,-7.0
1701619344.643008,-5.0,-32.0,-1.0,-3.0,-4.0,-3.0,4.0,0.0
1701619344.643008,-7.0,13.0,-25.0,-7.0,-2.0,1.0,-5.0,-7.0
1701619344.6527305,-2.0,-20.0,7.0,5.0,2.0,-3.0,-4.0,0.0
1701619344.6527305,-1.0,20.0,4.0,-7.0,-6.0,-2.0,12.0,-5.0
1701619344.6629894,-4.0,-6.0,-9.0,4.0,0.0,-2.0,-14.0,-6.0
1701619344.6629894,-1.0,3.0,-6.0,-8.0,-1.0,-2.0,7.0,2.0
1701619344.6629894,-4.0,-18.0,-3.0,1.0,-1.0,-1.0,-5.0,-2.0
1701619344.6629894,-10.0,-13.0,-37.0,-11.0,-5.0,-8.0,6.0,-4.0
1701619344.6729944,-4.0,6.0,-16.0,-14.0,-5.0,-2.0,-1.0,0.0
1701619344.6729944,5.0,12.0,46.0,15.0,3.0,1.0,-6.0,0.0
1701619344.7027285,-4.0,-3.0,-3.0,8.0,-5.0,-4.0,-5.0,1.0
1701619344.7027285,-5.0,-2.0,-68.0,-36.0,-9.0,-3.0,7.0,1.0
1701619344.7127259,2.0,11.0,16.0,11.0,1.0,-1.0,-4.0,-3.0
1701619344.7127259,2.0,21.0,-1.0,0.0,2.0,0.0,-15.0,0.0
1701619344.7127259,1.0,-13.0,-15.0,-10.0,-1.0,-1.0,1.0,-1.0
1701619344.7127259,0.0,-8.0,7.0,5.0,-2.0,-3.0,-11.0,-1.0
1701619344.7127259,2.0,8.0,-19.0,2.0,-1.0,-1.0,9.0,0.0
1701619344.7127259,0.0,-21.0,-5.0,-14.0,-2.0,-1.0,-2.0,-2.0
1701619344.7127259,-6.0,2.0,3.0,7.0,0.0,-1.0,-2.0,0.0
1701619344.7127259,5.0,35.0,31.0,14.0,2.0,0.0,-19.0,-2.0
1701619344.7327266,1.0,6.0,7.0,-1.0,-3.0,-2.0,5.0,2.0
1701619344.7327266,-3.0,-2.0,20.0,6.0,-2.0,4.0,14.0,1.0
1701619344.7327266,-6.0,-14.0,-19.0,2.0,-1.0,-1.0,1.0,4.0
1701619344.7327266,8.0,9.0,-26.0,-14.0,-3.0,0.0,-4.0,-5.0
1701619344.7531679,0.0,-7.0,-9.0,17.0,4.0,0.0,-1.0,0.0
1701619344.7531679,-4.0,4.0,10.0,-20.0,-5.0,-3.0,-4.0,-2.0
1701619344.7531679,-1.0,-1.0,25.0,4.0,-2.0,0.0,0.0,0.0
1701619344.7531679,4.0,-4.0,-10.0,-3.0,-1.0,0.0,3.0,1.0
1701619344.7731652,0.0,4.0,17.0,7.0,0.0,-2.0,3.0,-2.0
1701619344.7731652,0.0,2.0,13.0,7.0,4.0,-1.0,-3.0,1.0
1701619344.7731652,-3.0,-8.0,-27.0,-11.0,-6.0,-2.0,1.0,-4.0
1701619344.7731652,1.0,3.0,17.0,8.0,2.0,0.0,-2.0,0.0
1701619344.8027265,0.0,2.0,53.0,4.0,-3.0,-2.0,1.0,-1.0
1701619344.8027265,-1.0,-7.0,-16.0,3.0,1.0,-2.0,-4.0,-1.0
1701619344.8027265,-3.0,-4.0,0.0,3.0,-1.0,-2.0,0.0,-2.0
1701619344.8027265,-2.0,-1.0,-10.0,-8.0,1.0,0.0,0.0,-2.0
1701619344.8129833,3.0,-18.0,0.0,5.0,0.0,1.0,-2.0,0.0
1701619344.8129833,-2.0,-3.0,-6.0,-15.0,0.0,-1.0,0.0,0.0
1701619344.8129833,-1.0,-6.0,2.0,10.0,-1.0,-3.0,-1.0,-3.0
1701619344.8129833,-4.0,-2.0,16.0,-7.0,-6.0,-5.0,-2.0,-2.0
1701619344.852725,4.0,-7.0,1.0,-1.0,-1.0,-3.0,-1.0,0.0
1701619344.852725,4.0,14.0,-1.0,9.0,3.0,2.0,1.0,3.0
1701619344.852725,-4.0,70.0,22.0,-6.0,4.0,2.0,1.0,-3.0
1701619344.852725,-1.0,-15.0,-2.0,14.0,-1.0,-1.0,-1.0,0.0
1701619344.852725,-2.0,0.0,8.0,-8.0,-1.0,0.0,0.0,-3.0
1701619344.852725,3.0,9.0,-1.0,9.0,-1.0,-2.0,-6.0,1.0
1701619344.8630052,-4.0,-26.0,5.0,-20.0,-7.0,-2.0,7.0,0.0
1701619344.8630052,1.0,-4.0,-1.0,10.0,3.0,-2.0,-2.0,0.0
1701619344.872992,-5.0,10.0,-8.0,2.0,-5.0,-4.0,-1.0,0.0
1701619344.872992,2.0,-3.0,22.0,6.0,1.0,1.0,11.0,7.0
1701619344.872992,-2.0,-10.0,-11.0,-8.0,-2.0,-2.0,-4.0,-17.0
1701619344.872992,0.0,-19.0,-23.0,-2.0,-4.0,0.0,15.0,-4.0
1701619344.9127247,-6.0,-7.0,-29.0,-17.0,-3.0,-2.0,-20.0,-3.0
1701619344.9127247,0.0,7.0,5.0,3.0,-4.0,-5.0,-4.0,-2.0
1701619344.9127247,-2.0,-13.0,-19.0,-10.0,-3.0,-4.0,-15.0,3.0
1701619344.9127247,-3.0,8.0,9.0,-5.0,-3.0,-3.0,-3.0,-1.0
1701619344.9127247,-2.0,1.0,11.0,-3.0,-4.0,0.0,17.0,-3.0
1701619344.9127247,-4.0,-4.0,-12.0,2.0,0.0,3.0,-3.0,-2.0
1701619344.9127247,6.0,-2.0,-8.0,-4.0,-1.0,-2.0,-3.0,3.0
1701619344.9127247,-10.0,4.0,10.0,4.0,2.0,0.0,-6.0,-4.0
1701619344.9429486,-1.0,-4.0,-17.0,-2.0,0.0,-1.0,-3.0,0.0
1701619344.9429486,1.0,5.0,9.0,7.0,-3.0,-2.0,-3.0,-3.0
1701619344.9429486,-2.0,-18.0,-16.0,-9.0,-4.0,1.0,6.0,0.0
1701619344.9429486,2.0,-2.0,10.0,2.0,-1.0,-1.0,-6.0,2.0
1701619344.96273,0.0,6.0,-4.0,-6.0,-1.0,-2.0,6.0,2.0
1701619344.96273,-3.0,2.0,1.0,4.0,2.0,2.0,2.0,0.0
1701619344.96273,-2.0,-10.0,-16.0,-4.0,-1.0,-1.0,0.0,2.0
1701619344.96273,1.0,1.0,12.0,1.0,1.0,3.0,1.0,2.0
1701619344.9730468,-3.0,4.0,7.0,1.0,1.0,1.0,3.0,0.0
1701619344.9730468,3.0,-1.0,-17.0,-14.0,0.0,1.0,-2.0,-1.0
1701619344.9730468,-1.0,-3.0,-11.0,0.0,1.0,2.0,3.0,3.0
1701619344.9730468,0.0,-2.0,-34.0,-15.0,-4.0,-2.0,-3.0,-4.0
1701619344.9931657,2.0,4.0,11.0,7.0,1.0,1.0,0.0,-1.0
1701619344.9931657,0.0,-4.0,-24.0,-8.0,-4.0,-4.0,-7.0,-3.0
1701619344.9931657,1.0,3.0,24.0,8.0,-1.0,-2.0,-1.0,-3.0
1701619344.9931657,-1.0,-1.0,7.0,-4.0,-1.0,-2.0,0.0,-1.0
1701619345.002738,-2.0,-4.0,-8.0,14.0,4.0,0.0,-3.0,-1.0
1701619345.002738,-3.0,-4.0,-7.0,-27.0,-5.0,-5.0,-4.0,-3.0
1701619345.0127275,-3.0,-3.0,23.0,17.0,1.0,-1.0,-1.0,0.0
1701619345.0127275,-1.0,-5.0,-38.0,-17.0,-1.0,-2.0,-3.0,0.0
1701619345.0227327,-1.0,-3.0,0.0,-4.0,-1.0,1.0,0.0,1.0
1701619345.0227327,-2.0,0.0,7.0,3.0,-2.0,-1.0,1.0,-2.0
1701619345.0327303,-1.0,-4.0,-7.0,-5.0,0.0,-1.0,-1.0,-1.0
1701619345.0327303,2.0,3.0,23.0,11.0,3.0,2.0,0.0,0.0
1701619345.0430481,0.0,0.0,-5.0,-8.0,-4.0,-1.0,-1.0,0.0
1701619345.0430481,0.0,-3.0,-2.0,-1.0,1.0,1.0,0.0,-1.0
1701619345.0430481,-1.0,-3.0,-22.0,2.0,4.0,-2.0,-1.0,1.0
1701619345.0430481,-2.0,3.0,49.0,-1.0,-9.0,-4.0,-1.0,0.0
1701619345.0727265,-1.0,-1.0,-51.0,-9.0,2.0,2.0,-1.0,0.0
1701619345.0727265,-4.0,-8.0,-6.0,-3.0,-3.0,-4.0,-2.0,-2.0
1701619345.0727265,1.0,0.0,7.0,-1.0,-2.0,-2.0,-1.0,-1.0
1701619345.0727265,5.0,3.0,5.0,3.0,1.0,-1.0,-1.0,-1.0
1701619345.0830004,1.0,-1.0,12.0,2.0,5.0,1.0,-1.0,0.0
1701619345.0830004,-3.0,-2.0,-23.0,-25.0,-9.0,-3.0,-4.0,-1.0
1701619345.0830004,-2.0,-3.0,3.0,7.0,2.0,0.0,-1.0,-1.0
1701619345.0830004,0.0,-1.0,8.0,18.0,1.0,-4.0,-1.0,1.0
1701619345.1215968,-2.0,-4.0,-2.0,-17.0,-8.0,-5.0,-3.0,-2.0
1701619345.1226287,4.0,1.0,1.0,12.0,4.0,1.0,0.0,-1.0
1701619345.1226287,-6.0,2.0,7.0,1.0,1.0,1.0,0.0,0.0
1701619345.1226287,-1.0,2.0,3.0,-6.0,-4.0,-1.0,-2.0,-1.0
1701619345.1226287,1.0,-1.0,-4.0,1.0,-1.0,-2.0,-1.0,-1.0
1701619345.1226287,-3.0,0.0,18.0,6.0,3.0,3.0,1.0,0.0
1701619345.1251323,2.0,0.0,-9.0,-5.0,0.0,0.0,-1.0,-1.0
1701619345.1251323,-3.0,-5.0,13.0,-1.0,-5.0,-3.0,-2.0,-2.0
1701619345.1456318,-3.0,12.0,17.0,11.0,0.0,1.0,0.0,-1.0
1701619345.1456318,2.0,38.0,-18.0,-4.0,-4.0,-5.0,0.0,-1.0
1701619345.1456318,-1.0,-3.0,-5.0,-12.0,-3.0,-2.0,-1.0,-3.0
1701619345.1456318,-3.0,-1.0,-17.0,-13.0,1.0,1.0,1.0,0.0
1701619345.175599,-1.0,8.0,19.0,20.0,-1.0,-2.0,-3.0,-2.0
1701619345.175599,-3.0,-21.0,19.0,16.0,2.0,-1.0,0.0,0.0
1701619345.175599,2.0,-3.0,-16.0,-19.0,-1.0,-1.0,0.0,0.0
1701619345.175599,-7.0,2.0,12.0,10.0,6.0,2.0,0.0,-1.0
1701619345.175599,-4.0,-19.0,-14.0,-1.0,-3.0,-4.0,-2.0,-2.0
1701619345.175599,-1.0,-8.0,24.0,5.0,-2.0,-1.0,-2.0,-2.0
1701619345.1856291,-1.0,-3.0,-33.0,-7.0,-5.0,-4.0,1.0,-1.0
1701619345.1856291,3.0,-5.0,9.0,4.0,1.0,1.0,-1.0,-1.0
1701619345.20565,1.0,-17.0,-7.0,-9.0,-1.0,-1.0,0.0,0.0
1701619345.20565,-8.0,6.0,0.0,7.0,1.0,-1.0,0.0,-4.0
1701619345.225596,1.0,-8.0,14.0,-3.0,-4.0,-3.0,-3.0,-3.0
1701619345.225596,1.0,-11.0,11.0,26.0,5.0,0.0,-1.0,1.0
1701619345.225596,-3.0,-31.0,-29.0,-33.0,-5.0,-2.0,-2.0,-2.0
1701619345.225596,2.0,-1.0,11.0,-3.0,-1.0,-2.0,-4.0,-2.0
1701619345.225596,-2.0,-7.0,-15.0,-1.0,2.0,0.0,-3.0,-2.0
1701619345.225596,-3.0,-7.0,16.0,10.0,-1.0,-2.0,1.0,-2.0
1701619345.2358518,2.0,1.0,19.0,9.0,3.0,0.0,-4.0,0.0
1701619345.2358518,1.0,-4.0,-9.0,1.0,-2.0,0.0,1.0,2.0
1701619345.2458405,11.0,-4.0,14.0,-13.0,-5.0,0.0,0.0,1.0
1701619345.2458405,-6.0,7.0,-6.0,18.0,3.0,2.0,0.0,-1.0
1701619345.2656007,-4.0,7.0,-66.0,-36.0,-9.0,-4.0,-2.0,-4.0
1701619345.2656007,-1.0,-4.0,-18.0,-17.0,-2.0,-2.0,0.0,-2.0
1701619345.2756004,3.0,21.0,22.0,12.0,0.0,-2.0,-1.0,-1.0
1701619345.2756004,4.0,-7.0,10.0,-1.0,-2.0,-2.0,0.0,-1.0
1701619345.2856016,0.0,4.0,23.0,2.0,0.0,0.0,1.0,0.0
1701619345.2856016,-1.0,-14.0,-43.0,-6.0,-1.0,-1.0,-2.0,-2.0
1701619345.2856016,-10.0,-5.0,-5.0,0.0,0.0,1.0,-1.0,-1.0
1701619345.2856016,2.0,13.0,8.0,-6.0,-3.0,-2.0,0.0,1.0
1701619345.2955961,2.0,15.0,3.0,14.0,4.0,1.0,-1.0,-1.0
1701619345.2955961,-4.0,-15.0,13.0,-2.0,-5.0,-4.0,-2.0,-3.0
1701619345.31603,3.0,-6.0,-22.0,-6.0,-4.0,-2.0,-2.0,0.0
1701619345.31603,-2.0,60.0,3.0,-2.0,0.0,0.0,-3.0,-1.0
1701619345.325651,1.0,6.0,24.0,5.0,1.0,3.0,2.0,1.0
1701619345.325651,-1.0,-2.0,-47.0,-18.0,-5.0,-3.0,-4.0,-1.0
1701619345.325651,-4.0,-1.0,24.0,7.0,0.0,-3.0,0.0,-2.0
1701619345.325651,1.0,-13.0,-16.0,-11.0,-4.0,-2.0,-1.0,-1.0
1701619345.3455963,-2.0,-5.0,2.0,10.0,-2.0,-4.0,-1.0,-3.0
1701619345.3455963,7.0,10.0,24.0,8.0,5.0,1.0,0.0,2.0
1701619345.3555996,-10.0,-2.0,-24.0,-1.0,-2.0,0.0,-1.0,-4.0
1701619345.3555996,-1.0,-32.0,-11.0,-13.0,-1.0,-2.0,-2.0,-2.0
1701619345.3658485,2.0,13.0,13.0,10.0,1.0,-1.0,-1.0,0.0
1701619345.3658485,-4.0,-14.0,3.0,11.0,-2.0,0.0,0.0,-1.0
1701619345.3658485,-5.0,-17.0,-17.0,-8.0,-4.0,-2.0,-2.0,-1.0
1701619345.3658485,5.0,3.0,-2.0,1.0,0.0,0.0,0.0,1.0
1701619345.385889,0.0,6.0,-9.0,-8.0,-4.0,-4.0,-2.0,-2.0
1701619345.385889,0.0,-1.0,36.0,20.0,6.0,1.0,-1.0,-1.0
1701619345.3956003,-1.0,0.0,10.0,5.0,3.0,-1.0,1.0,-1.0
1701619345.3956003,-5.0,-23.0,-39.0,-27.0,-6.0,-5.0,-3.0,-4.0
1701619345.4159324,3.0,54.0,3.0,8.0,-2.0,-3.0,-9.0,-1.0
1701619345.4159324,-9.0,-11.0,-7.0,-1.0,4.0,4.0,6.0,-1.0
1701619345.4159324,2.0,7.0,40.0,18.0,1.0,1.0,2.0,0.0
1701619345.4159324,-2.0,-2.0,-20.0,-9.0,-3.0,-4.0,-3.0,-2.0
1701619345.4655957,-1.0,-27.0,-26.0,-17.0,-3.0,0.0,3.0,-1.0
1701619345.4655957,5.0,31.0,25.0,9.0,0.0,-6.0,-16.0,1.0
1701619345.4655957,2.0,26.0,12.0,10.0,1.0,4.0,3.0,-1.0
1701619345.4655957,1.0,13.0,-19.0,10.0,1.0,-1.0,0.0,7.0
1701619345.4758987,5.0,-3.0,8.0,2.0,-2.0,4.0,26.0,-7.0
1701619345.4758987,-12.0,-54.0,-16.0,-10.0,-3.0,-3.0,-11.0,-2.0
1701619345.4758987,4.0,-25.0,-3.0,-3.0,0.0,-4.0,-11.0,2.0
1701619345.4758987,1.0,24.0,43.0,10.0,-2.0,-9.0,-32.0,0.0
1701619345.4758987,-6.0,-47.0,-9.0,-7.0,-1.0,8.0,19.0,-10.0
1701619345.4758987,-1.0,4.0,2.0,0.0,-3.0,-5.0,-5.0,-2.0
1701619345.4758987,-2.0,-11.0,-27.0,-8.0,-1.0,0.0,4.0,-4.0
1701619345.4758987,-5.0,-11.0,10.0,-1.0,-1.0,1.0,3.0,-1.0
1701619345.485864,-5.0,-23.0,-4.0,-4.0,-1.0,-5.0,-1.0,4.0
1701619345.485864,-1.0,8.0,2.0,-7.0,-2.0,-2.0,-24.0,-5.0
1701619345.485864,3.0,13.0,19.0,16.0,3.0,0.0,4.0,-1.0
1701619345.485864,-4.0,2.0,-6.0,-12.0,-3.0,0.0,1.0,-7.0
1701619345.5155997,-6.0,-20.0,-30.0,-7.0,0.0,-2.0,-12.0,2.0
1701619345.5155997,3.0,21.0,-17.0,6.0,-4.0,0.0,20.0,0.0
1701619345.5155997,2.0,23.0,19.0,-7.0,-4.0,-4.0,-13.0,1.0
1701619345.5155997,-6.0,-26.0,-38.0,-9.0,-2.0,3.0,6.0,-5.0
1701619345.5259733,2.0,-4.0,7.0,7.0,-2.0,-4.0,-3.0,1.0
1701619345.5259733,8.0,36.0,23.0,9.0,1.0,-1.0,-3.0,2.0
1701619345.5360153,-7.0,-24.0,-5.0,-27.0,-7.0,-4.0,-5.0,-4.0
1701619345.5360153,-1.0,-3.0,12.0,4.0,-2.0,1.0,11.0,-4.0
1701619345.5459573,-3.0,7.0,39.0,0.0,-6.0,-6.0,13.0,13.0
1701619345.5459573,-3.0,-31.0,-90.0,-25.0,-1.0,2.0,-13.0,-20.0
1701619345.5459573,1.0,-5.0,5.0,-9.0,-1.0,-2.0,5.0,-4.0
1701619345.5459573,-2.0,-21.0,-17.0,-9.0,3.0,0.0,13.0,2.0
1701619345.5655994,-1.0,25.0,40.0,26.0,-1.0,-6.0,-38.0,-4.0
1701619345.5655994,-1.0,-14.0,2.0,15.0,2.0,2.0,15.0,7.0
1701619345.5655994,-2.0,-3.0,-11.0,-5.0,1.0,3.0,25.0,3.0
1701619345.5655994,0.0,-2.0,-8.0,2.0,-3.0,-2.0,-11.0,-4.0
1701619345.5858474,1.0,-5.0,-16.0,4.0,4.0,0.0,-5.0,-1.0
1701619345.5858474,-3.0,-7.0,-5.0,-30.0,-8.0,-4.0,2.0,0.0
1701619345.5956013,1.0,4.0,13.0,8.0,0.0,0.0,-16.0,-3.0
1701619345.5956013,2.0,8.0,2.0,6.0,3.0,-1.0,6.0,1.0
1701619345.605913,-2.0,6.0,15.0,-5.0,1.0,-1.0,3.0,0.0
1701619345.605913,-2.0,17.0,0.0,0.0,0.0,1.0,1.0,-1.0
1701619345.605913,-4.0,-4.0,-27.0,-1.0,-1.0,-2.0,3.0,0.0
1701619345.605913,1.0,13.0,-28.0,-27.0,-8.0,-5.0,-6.0,-1.0
1701619345.6574008,-5.0,-3.0,1.0,5.0,-1.0,1.0,-3.0,-2.0
1701619345.6574008,8.0,9.0,6.0,-5.0,-2.0,-2.0,2.0,2.0
1701619345.658178,5.0,4.0,34.0,16.0,3.0,-2.0,10.0,15.0
1701619345.658178,-8.0,-90.0,-43.0,8.0,0.0,6.0,-8.0,-20.0
1701619345.6684852,-1.0,78.0,-21.0,-6.0,1.0,3.0,1.0,10.0
1701619345.6684852,9.0,27.0,11.0,0.0,0.0,0.0,17.0,-12.0
1701619345.7081738,-9.0,-22.0,6.0,-2.0,-9.0,-5.0,-23.0,8.0
1701619345.7081738,-7.0,-2.0,28.0,13.0,0.0,0.0,17.0,4.0
1701619345.7081738,9.0,1.0,-8.0,-11.0,-5.0,-5.0,-6.0,-5.0
1701619345.7081738,-6.0,-20.0,-3.0,-14.0,2.0,-2.0,-20.0,8.0
1701619345.7081738,16.0,27.0,-8.0,1.0,0.0,2.0,13.0,-48.0
1701619345.7081738,-24.0,3.0,19.0,-3.0,2.0,2.0,-2.0,2.0
1701619345.7081738,0.0,-23.0,-14.0,11.0,-2.0,1.0,-6.0,-5.0
1701619345.7081738,-7.0,22.0,10.0,-3.0,-4.0,0.0,8.0,-14.0
1701619345.7081738,-6.0,1.0,-34.0,-6.0,4.0,2.0,-11.0,10.0
1701619345.7081738,8.0,39.0,59.0,6.0,0.0,-3.0,-3.0,9.0
1701619345.7081738,4.0,-16.0,-16.0,-2.0,0.0,1.0,7.0,-4.0
1701619345.7081738,6.0,-7.0,22.0,22.0,2.0,-3.0,-1.0,12.0
1701619345.7081738,-14.0,-10.0,-37.0,-16.0,-1.0,0.0,5.0,4.0
1701619345.7081738,39.0,26.0,44.0,14.0,2.0,0.0,-2.0,-13.0
1701619345.7285101,-50.0,-4.0,-7.0,-5.0,2.0,1.0,-13.0,15.0
1701619345.7285101,1.0,-86.0,8.0,7.0,-4.0,-4.0,-6.0,-15.0
1701619345.7285101,-4.0,25.0,12.0,-5.0,-3.0,1.0,6.0,2.0
1701619345.7285101,-10.0,-4.0,-15.0,2.0,-1.0,-5.0,-8.0,-7.0
1701619345.7581751,18.0,-10.0,1.0,-24.0,-5.0,-2.0,2.0,-5.0
1701619345.7581751,-10.0,-19.0,-29.0,6.0,0.0,1.0,0.0,1.0
1701619345.7681725,-4.0,9.0,20.0,20.0,5.0,4.0,-2.0,2.0
1701619345.7681725,5.0,7.0,-23.0,-24.0,-10.0,-5.0,-3.0,7.0
1701619345.7681725,4.0,-18.0,14.0,7.0,-10.0,-4.0,3.0,-7.0
1701619345.7681725,-7.0,27.0,35.0,7.0,6.0,-1.0,2.0,-4.0
1701619345.7681725,10.0,-17.0,-38.0,-9.0,-5.0,8.0,-1.0,6.0
1701619345.7681725,5.0,8.0,-21.0,-1.0,25.0,15.0,13.0,12.0
1701619345.7981725,5.0,5.0,18.0,27.0,15.0,-3.0,2.0,-6.0
1701619345.7981725,-15.0,5.0,-5.0,-13.0,-18.0,-8.0,-6.0,2.0
1701619345.7981725,3.0,3.0,24.0,-1.0,-12.0,-9.0,-5.0,0.0
1701619345.7981725,-3.0,-14.0,-26.0,-16.0,-14.0,-6.0,0.0,-1.0
1701619345.7981725,-9.0,-12.0,2.0,-21.0,3.0,-5.0,-2.0,-7.0
1701619345.7981725,9.0,3.0,6.0,12.0,5.0,4.0,2.0,6.0
1701619345.8085399,-3.0,-6.0,9.0,3.0,1.0,-3.0,-2.0,-2.0
1701619345.8085399,-2.0,19.0,39.0,14.0,-5.0,1.0,-2.0,-1.0
1701619345.8281887,7.0,15.0,-60.0,-21.0,-2.0,-2.0,-1.0,2.0
1701619345.8281887,3.0,6.0,-5.0,-6.0,4.0,1.0,2.0,1.0
1701619345.8281887,-3.0,-3.0,-2.0,-3.0,0.0,-3.0,0.0,-1.0
1701619345.8281887,-3.0,-24.0,-5.0,0.0,-3.0,-6.0,-7.0,0.0
1701619345.848622,3.0,-4.0,29.0,7.0,0.0,3.0,0.0,-3.0
1701619345.848622,-2.0,-4.0,-15.0,2.0,-6.0,-2.0,3.0,2.0
1701619345.848622,-1.0,8.0,7.0,1.0,7.0,1.0,-1.0,-1.0
1701619345.848622,1.0,-9.0,-16.0,3.0,-1.0,0.0,-2.0,-1.0
1701619345.8584864,0.0,-16.0,5.0,-32.0,-6.0,2.0,1.0,-1.0
1701619345.8584864,-6.0,8.0,9.0,14.0,8.0,4.0,2.0,1.0
1701619345.8781755,3.0,-9.0,7.0,-5.0,-9.0,-6.0,-2.0,1.0
1701619345.8781755,1.0,5.0,-4.0,1.0,-4.0,-5.0,-3.0,-3.0
1701619345.8781755,-6.0,2.0,-1.0,7.0,3.0,1.0,1.0,-1.0
1701619345.8781755,5.0,14.0,-1.0,0.0,-1.0,-2.0,-1.0,1.0
1701619345.8881867,1.0,-2.0,-17.0,-1.0,1.0,-1.0,-2.0,-2.0
1701619345.8881867,-5.0,-1.0,6.0,2.0,-1.0,-1.0,0.0,-1.0
1701619345.9181728,-1.0,3.0,-7.0,4.0,-4.0,-1.0,0.0,-1.0
1701619345.9181728,3.0,-12.0,-2.0,-8.0,2.0,1.0,0.0,0.0
1701619345.9181728,-5.0,-12.0,-6.0,-6.0,-6.0,-5.0,-2.0,-2.0
1701619345.9181728,-1.0,4.0,0.0,-1.0,0.0,-1.0,-9.0,-1.0
1701619345.9181728,-2.0,0.0,11.0,6.0,1.0,2.0,5.0,-3.0
1701619345.9181728,3.0,-21.0,37.0,8.0,0.0,-4.0,1.0,7.0
1701619345.928426,-7.0,-16.0,-36.0,-14.0,-8.0,-1.0,13.0,-11.0
1701619345.928426,-3.0,-11.0,4.0,-13.0,3.0,7.0,-10.0,-4.0
1701619345.9481795,4.0,-1.0,-19.0,2.0,-2.0,-4.0,-7.0,3.0
1701619345.9481795,6.0,3.0,23.0,2.0,-5.0,-1.0,13.0,-3.0
1701619345.9681752,-4.0,8.0,2.0,7.0,3.0,-7.0,-28.0,1.0
1701619345.9681752,2.0,-17.0,-13.0,1.0,1.0,0.0,16.0,-1.0
1701619345.9781728,-8.0,2.0,-3.0,-13.0,-6.0,-3.0,-14.0,-9.0
1701619345.9781728,8.0,21.0,14.0,-3.0,-3.0,-2.0,7.0,2.0
1701619345.9781728,-2.0,-48.0,23.0,2.0,2.0,-3.0,-9.0,1.0
1701619345.9781728,5.0,53.0,-92.0,-13.0,-4.0,0.0,10.0,2.0
1701619345.9781728,0.0,-22.0,-7.0,-14.0,-10.0,-1.0,15.0,-3.0
1701619345.9781728,-23.0,20.0,-8.0,3.0,1.0,2.0,-25.0,-1.0
1701619345.988533,6.0,2.0,1.0,-1.0,-3.0,-4.0,3.0,-5.0
1701619345.988533,-9.0,-31.0,37.0,10.0,1.0,5.0,13.0,2.0
1701619346.0081756,7.0,27.0,28.0,10.0,2.0,-1.0,8.0,2.0
1701619346.0081756,0.0,-33.0,-35.0,-9.0,-3.0,-2.0,-7.0,-7.0
1701619346.0081756,-3.0,28.0,31.0,12.0,2.0,2.0,6.0,4.0
1701619346.0081756,-1.0,1.0,-9.0,7.0,0.0,-5.0,-11.0,-1.0
1701619346.0282075,-2.0,3.0,-30.0,-24.0,-4.0,-3.0,-3.0,0.0
1701619346.0282075,1.0,-12.0,-1.0,4.0,-1.0,-1.0,-3.0,-3.0
1701619346.0282075,-2.0,12.0,22.0,-2.0,2.0,3.0,-3.0,1.0
1701619346.0282075,-4.0,-4.0,-21.0,-35.0,-12.0,-7.0,1.0,9.0
1701619346.0385416,2.0,-11.0,-12.0,20.0,3.0,0.0,-12.0,-16.0
1701619346.0385416,3.0,19.0,19.0,5.0,2.0,-1.0,1.0,3.0
1701619346.0485141,-10.0,-4.0,-5.0,-13.0,-2.0,-1.0,0.0,-1.0
1701619346.0485141,-1.0,1.0,30.0,5.0,-5.0,-2.0,0.0,-1.0
1701619346.068177,-5.0,-8.0,21.0,22.0,3.0,-1.0,0.0,4.0
1701619346.068177,3.0,-9.0,-62.0,-38.0,-9.0,-3.0,35.0,2.0
1701619346.068177,3.0,10.0,12.0,17.0,5.0,9.0,-30.0,-5.0
1701619346.068177,0.0,-2.0,10.0,1.0,4.0,-4.0,-3.0,1.0
1701619346.0986173,-2.0,19.0,17.0,10.0,-4.0,-4.0,-3.0,2.0
1701619346.0986173,2.0,-1.0,4.0,6.0,5.0,-1.0,10.0,6.0
1701619346.0986173,4.0,-7.0,-31.0,-3.0,-2.0,4.0,13.0,0.0
1701619346.0986173,-8.0,32.0,32.0,1.0,-3.0,-4.0,-5.0,-2.0
1701619346.0986173,10.0,-30.0,-3.0,17.0,3.0,1.0,-3.0,5.0
1701619346.0986173,-2.0,15.0,52.0,-1.0,-4.0,-1.0,-9.0,12.0
1701619346.1085424,-1.0,-21.0,-44.0,-3.0,-3.0,-3.0,7.0,-17.0
1701619346.1085424,0.0,-20.0,7.0,6.0,4.0,1.0,-8.0,-2.0
1701619346.1485462,-6.0,-3.0,-23.0,-15.0,-7.0,-2.0,5.0,-3.0
1701619346.1485462,-8.0,-5.0,15.0,4.0,-4.0,-7.0,-16.0,-12.0
1701619346.1485462,6.0,8.0,28.0,14.0,3.0,4.0,9.0,14.0
1701619346.1485462,0.0,-10.0,-27.0,-12.0,-4.0,-4.0,3.0,-5.0
1701619346.1485462,-3.0,-3.0,-19.0,-10.0,1.0,-1.0,-9.0,-1.0
1701619346.1485462,-4.0,1.0,1.0,3.0,1.0,5.0,10.0,-5.0
1701619346.1587212,2.0,5.0,-15.0,-16.0,-5.0,-5.0,-5.0,7.0
1701619346.1587212,0.0,-1.0,26.0,22.0,6.0,-1.0,3.0,-3.0
1701619346.1909482,-2.0,-46.0,-2.0,-17.0,-8.0,-3.0,2.0,5.0
1701619346.1909482,0.0,18.0,-8.0,0.0,-1.0,1.0,-7.0,0.0
1701619346.2109509,-2.0,-2.0,5.0,0.0,-1.0,-3.0,4.0,-3.0
1701619346.2109509,-1.0,-7.0,-61.0,-19.0,-4.0,-4.0,-6.0,-8.0
1701619346.2109509,0.0,-9.0,37.0,14.0,3.0,-1.0,12.0,11.0
1701619346.2109509,7.0,2.0,10.0,5.0,5.0,10.0,-13.0,-14.0
1701619346.2109509,18.0,18.0,-40.0,-11.0,-5.0,-9.0,2.0,14.0
1701619346.2109509,1.0,-17.0,28.0,8.0,2.0,5.0,-2.0,-12.0
1701619346.2309487,-9.0,3.0,2.0,3.0,2.0,-2.0,-5.0,3.0
1701619346.2309487,-2.0,-3.0,-19.0,-8.0,-4.0,-2.0,3.0,1.0
1701619346.2309487,-2.0,11.0,22.0,5.0,2.0,1.0,3.0,-2.0
1701619346.2309487,0.0,10.0,-33.0,-1.0,-2.0,-2.0,-4.0,6.0
1701619346.2410655,3.0,7.0,2.0,-3.0,-3.0,0.0,2.0,-3.0
1701619346.2410655,4.0,-5.0,12.0,5.0,1.0,-2.0,-2.0,4.0
1701619346.2513206,-9.0,-11.0,-20.0,-9.0,-2.0,-1.0,-2.0,-6.0
1701619346.2513206,-4.0,-5.0,21.0,5.0,-2.0,-2.0,1.0,0.0
1701619346.2713284,-3.0,4.0,-19.0,-2.0,0.0,-2.0,-6.0,-7.0
1701619346.2713284,-4.0,-2.0,-35.0,-15.0,-2.0,-2.0,-4.0,-5.0
1701619346.2713284,-6.0,-5.0,17.0,10.0,2.0,-1.0,-1.0,-3.0
1701619346.2713284,-3.0,42.0,20.0,17.0,0.0,1.0,0.0,-1.0
1701619346.2909493,3.0,8.0,11.0,2.0,1.0,0.0,-4.0,-1.0
1701619346.2909493,1.0,42.0,-36.0,-14.0,-4.0,-5.0,-3.0,2.0
1701619346.2909493,-13.0,-28.0,3.0,-10.0,-4.0,-4.0,2.0,-6.0
1701619346.2909493,3.0,-29.0,29.0,7.0,0.0,-4.0,-13.0,2.0
1701619346.2909493,-1.0,3.0,-33.0,3.0,0.0,2.0,11.0,-3.0
1701619346.2909493,-6.0,-42.0,-7.0,-5.0,-2.0,0.0,7.0,6.0
1701619346.3009624,-2.0,-27.0,5.0,-2.0,1.0,-2.0,-13.0,-14.0
1701619346.3009624,0.0,26.0,22.0,8.0,1.0,0.0,-5.0,4.0
1701619346.321289,4.0,4.0,-20.0,-4.0,1.0,-2.0,-7.0,-8.0
1701619346.321289,-1.0,-7.0,13.0,-9.0,-1.0,-1.0,-5.0,1.0
1701619346.321289,3.0,-7.0,-47.0,-2.0,-1.0,-3.0,-8.0,2.0
1701619346.321289,-11.0,-17.0,19.0,1.0,-6.0,-3.0,3.0,-14.0
1701619346.3312385,2.0,3.0,21.0,1.0,-1.0,-2.0,-11.0,25.0
1701619346.3312385,1.0,19.0,-25.0,-8.0,-1.0,1.0,9.0,-6.0
1701619346.340954,-11.0,1.0,44.0,1.0,2.0,1.0,0.0,3.0
1701619346.340954,-5.0,-24.0,-16.0,5.0,-3.0,-3.0,1.0,-10.0
1701619346.3809495,-13.0,13.0,20.0,-14.0,-3.0,-4.0,5.0,1.0
1701619346.3809495,22.0,-11.0,0.0,13.0,-3.0,-3.0,-5.0,7.0
1701619346.3809495,-17.0,5.0,-21.0,-18.0,-6.0,-2.0,-19.0,-8.0
1701619346.3809495,6.0,-5.0,-17.0,-14.0,1.0,3.0,19.0,6.0
1701619346.3809495,-3.0,-14.0,-7.0,-5.0,-3.0,2.0,19.0,-11.0
1701619346.3809495,-2.0,5.0,20.0,-4.0,1.0,7.0,18.0,4.0
1701619346.3809495,18.0,50.0,28.0,29.0,5.0,3.0,2.0,21.0
1701619346.3809495,6.0,-10.0,-35.0,-24.0,-8.0,-6.0,-10.0,4.0
1701619346.3910525,0.0,-11.0,12.0,8.0,4.0,9.0,2.0,-4.0
1701619346.3910525,-10.0,-17.0,22.0,1.0,-2.0,-4.0,-4.0,4.0
1701619346.4009545,31.0,25.0,-57.0,-13.0,-7.0,-3.0,0.0,-10.0
1701619346.4009545,-25.0,10.0,14.0,5.0,3.0,7.0,18.0,24.0
1701619346.4209487,11.0,-51.0,-8.0,-2.0,0.0,-3.0,-6.0,-12.0
1701619346.4209487,-10.0,-37.0,-3.0,9.0,5.0,0.0,-11.0,-7.0
1701619346.4209487,-2.0,8.0,65.0,7.0,2.0,1.0,9.0,5.0
1701619346.4209487,11.0,-16.0,-53.0,-12.0,-1.0,-1.0,-6.0,3.0
1701619346.4313135,1.0,-16.0,-25.0,-5.0,-2.0,-2.0,-2.0,-5.0
1701619346.4313135,7.0,29.0,4.0,4.0,2.0,2.0,0.0,0.0
1701619346.4413471,-27.0,-11.0,9.0,3.0,0.0,-1.0,-1.0,-4.0
1701619346.4413471,6.0,18.0,12.0,2.0,0.0,-5.0,-5.0,-10.0
1701619346.4513562,-1.0,28.0,13.0,-2.0,-1.0,-1.0,-1.0,1.0
1701619346.4513562,0.0,-5.0,-5.0,-4.0,-1.0,-2.0,-4.0,1.0
1701619346.4513562,1.0,6.0,-2.0,-1.0,-2.0,2.0,14.0,7.0
1701619346.4513562,3.0,0.0,12.0,-4.0,1.0,2.0,-4.0,-10.0
1701619346.4809515,-8.0,3.0,-14.0,-1.0,1.0,-2.0,-16.0,-8.0
1701619346.4809515,1.0,9.0,3.0,7.0,2.0,-3.0,-6.0,-2.0
1701619346.4809515,-1.0,-10.0,-3.0,-2.0,-1.0,-1.0,-1.0,-6.0
1701619346.4809515,-2.0,-3.0,-3.0,-2.0,1.0,-1.0,4.0,1.0
1701619346.490977,3.0,19.0,20.0,0.0,-5.0,-6.0,-25.0,-2.0
1701619346.490977,-4.0,5.0,-18.0,-2.0,0.0,-1.0,-6.0,-11.0
1701619346.501226,1.0,-17.0,-6.0,0.0,3.0,-1.0,-6.0,2.0
1701619346.501226,-9.0,-7.0,11.0,-1.0,-5.0,-1.0,7.0,-10.0
1701619346.5112534,-5.0,11.0,32.0,7.0,2.0,-4.0,-6.0,3.0
1701619346.5112534,-4.0,-5.0,-7.0,3.0,-3.0,-5.0,0.0,1.0
1701619346.5209541,-1.0,-5.0,-38.0,-23.0,-4.0,-2.0,2.0,0.0
1701619346.5209541,8.0,-15.0,10.0,9.0,-2.0,-4.0,-18.0,-16.0
1701619346.5409496,-4.0,-4.0,-13.0,-11.0,-5.0,-1.0,9.0,4.0
1701619346.5409496,-6.0,2.0,9.0,3.0,0.0,-1.0,-5.0,-3.0
1701619346.5409496,3.0,3.0,14.0,13.0,3.0,-1.0,4.0,-3.0
1701619346.5409496,-1.0,11.0,11.0,0.0,-1.0,-1.0,-1.0,1.0
1701619346.561331,3.0,12.0,1.0,0.0,5.0,5.0,9.0,2.0
1701619346.561331,-2.0,-9.0,-40.0,-27.0,-8.0,-5.0,-3.0,-4.0
1701619346.561331,2.0,8.0,10.0,36.0,6.0,1.0,1.0,3.0
1701619346.561331,-6.0,-4.0,-9.0,-18.0,-9.0,-6.0,-4.0,-2.0
1701619346.5709515,1.0,2.0,5.0,25.0,1.0,1.0,0.0,-1.0
1701619346.5709515,1.0,4.0,8.0,-18.0,6.0,2.0,0.0,2.0
1701619346.5809827,-1.0,-4.0,-35.0,-23.0,-10.0,-6.0,-1.0,-7.0
1701619346.5809827,2.0,8.0,11.0,35.0,10.0,4.0,-2.0,3.0
1701619346.6012714,0.0,6.0,16.0,6.0,5.0,2.0,1.0,1.0
1701619346.6012714,-2.0,0.0,-8.0,-1.0,-4.0,-3.0,-5.0,0.0
1701619346.6109543,-5.0,-2.0,13.0,-2.0,-2.0,-2.0,2.0,-5.0
1701619346.6109543,1.0,0.0,-29.0,-26.0,-4.0,-1.0,-5.0,2.0
1701619346.6109543,0.0,-2.0,-32.0,-13.0,-2.0,-6.0,-3.0,0.0
1701619346.6109543,-2.0,8.0,24.0,3.0,-3.0,0.0,0.0,-1.0
1701619346.6109543,-2.0,-18.0,-3.0,-8.0,-3.0,2.0,-3.0,-2.0
1701619346.6109543,0.0,13.0,20.0,5.0,0.0,1.0,1.0,3.0
1701619346.640949,-4.0,-47.0,14.0,4.0,-3.0,-3.0,-9.0,-2.0
1701619346.640949,-2.0,27.0,7.0,1.0,-3.0,-3.0,11.0,-2.0
1701619346.640949,-1.0,1.0,5.0,5.0,-6.0,-3.0,2.0,-4.0
1701619346.640949,-2.0,-1.0,7.0,8.0,7.0,2.0,-13.0,-2.0
1701619346.6513329,1.0,2.0,-29.0,-18.0,0.0,2.0,8.0,-1.0
1701619346.6513329,-1.0,-17.0,15.0,19.0,6.0,2.0,-8.0,-3.0
1701619346.6513329,-7.0,-53.0,-4.0,2.0,0.0,-3.0,-4.0,-1.0
1701619346.6513329,10.0,65.0,4.0,-15.0,0.0,2.0,13.0,5.0
1701619346.6613417,-2.0,10.0,-6.0,-5.0,-5.0,-4.0,-8.0,-1.0
1701619346.6613417,-3.0,-7.0,-17.0,-8.0,-8.0,-6.0,-3.0,-2.0
1701619346.6713216,7.0,11.0,-1.0,-3.0,-3.0,0.0,-10.0,7.0
1701619346.6713216,-2.0,-26.0,-5.0,-2.0,-2.0,-3.0,-8.0,-18.0
1701619346.6985004,4.0,51.0,18.0,11.0,-1.0,-3.0,2.0,0.0
1701619346.6985004,1.0,14.0,8.0,5.0,-1.0,0.0,10.0,4.0
1701619346.6994998,-5.0,-38.0,-33.0,-19.0,-5.0,-4.0,21.0,4.0
1701619346.6994998,-3.0,23.0,-6.0,3.0,3.0,4.0,-24.0,-14.0
1701619346.7137103,-6.0,-21.0,-6.0,-5.0,-2.0,-3.0,13.0,3.0
1701619346.7137103,4.0,-27.0,3.0,11.0,1.0,2.0,-10.0,-7.0
1701619346.7152596,-3.0,57.0,12.0,-13.0,-3.0,-6.0,-9.0,0.0
1701619346.7152596,-19.0,-24.0,-10.0,-4.0,-1.0,1.0,22.0,8.0
1701619346.7237055,3.0,57.0,-7.0,2.0,1.0,5.0,-8.0,-3.0
1701619346.7237055,-1.0,6.0,39.0,6.0,2.0,-5.0,-11.0,1.0
1701619346.7437434,0.0,-37.0,-52.0,-6.0,0.0,6.0,9.0,-4.0
1701619346.7437434,7.0,-15.0,8.0,1.0,-4.0,-5.0,-6.0,7.0
1701619346.7437434,-6.0,-6.0,-8.0,2.0,1.0,4.0,7.0,-2.0
1701619346.7437434,-1.0,-2.0,-6.0,-1.0,0.0,1.0,-1.0,2.0
1701619346.7540693,1.0,19.0,36.0,2.0,0.0,1.0,2.0,-3.0
1701619346.7540693,-7.0,-46.0,-31.0,-10.0,-5.0,-5.0,-5.0,-6.0
1701619346.7737262,0.0,-24.0,-3.0,-4.0,-4.0,-8.0,-16.0,-6.0
1701619346.7737262,-2.0,-6.0,-19.0,-9.0,-4.0,-3.0,2.0,-2.0
1701619346.7737262,-3.0,1.0,17.0,12.0,5.0,4.0,-2.0,-5.0
1701619346.7737262,-1.0,-6.0,-6.0,-4.0,-4.0,-3.0,6.0,4.0
1701619346.7941496,-3.0,1.0,21.0,-3.0,-3.0,0.0,2.0,-1.0
1701619346.7941496,-2.0,15.0,-22.0,0.0,0.0,1.0,1.0,-3.0
1701619346.7941496,1.0,22.0,18.0,-3.0,-3.0,-2.0,-1.0,0.0
1701619346.7941496,-1.0,5.0,3.0,2.0,-2.0,0.0,-4.0,4.0
1701619346.81416,0.0,-12.0,-14.0,-10.0,-2.0,0.0,3.0,1.0
1701619346.81416,-3.0,-18.0,15.0,12.0,4.0,1.0,3.0,-1.0
1701619346.81416,0.0,-4.0,-7.0,12.0,6.0,-1.0,-7.0,-1.0
1701619346.81416,5.0,0.0,-23.0,-11.0,1.0,1.0,1.0,2.0
1701619346.8243742,-5.0,-23.0,17.0,-9.0,-7.0,-8.0,-3.0,-6.0
1701619346.834167,-2.0,-1.0,-6.0,-2.0,1.0,-1.0,-1.0,0.0
1701619346.834167,-3.0,-14.0,-26.0,-25.0,-10.0,3.0,-3.0,-2.0
1701619346.834167,3.0,13.0,50.0,23.0,1.0,0.0,2.0,1.0
1701619346.8544376,-1.0,-1.0,-35.0,-25.0,-2.0,0.0,1.0,-1.0
1701619346.8544376,-5.0,-1.0,12.0,37.0,8.0,-1.0,-6.0,-3.0
1701619346.8544376,-2.0,9.0,10.0,-4.0,1.0,-6.0,-3.0,-3.0
1701619346.8544376,2.0,-11.0,-2.0,-10.0,-3.0,2.0,1.0,1.0
1701619346.8842099,0.0,-3.0,14.0,8.0,-7.0,-4.0,-4.0,-1.0
1701619346.8842099,-5.0,-33.0,-54.0,-37.0,-8.0,0.0,-1.0,-2.0
1701619346.8842099,1.0,8.0,13.0,3.0,5.0,1.0,0.0,0.0
1701619346.8842099,0.0,-3.0,8.0,6.0,1.0,-2.0,1.0,-1.0
1701619346.8842099,-1.0,2.0,8.0,10.0,-3.0,-1.0,1.0,1.0
1701619346.8842099,0.0,15.0,17.0,-1.0,-2.0,-2.0,0.0,2.0
1701619346.8842099,-2.0,-34.0,8.0,3.0,-3.0,-5.0,-2.0,-3.0
1701619346.8942041,-11.0,19.0,-3.0,-9.0,2.0,-3.0,-2.0,-2.0
1701619346.9145184,-1.0,-10.0,-47.0,-7.0,0.0,1.0,1.0,0.0
1701619346.9145184,9.0,80.0,35.0,4.0,-5.0,-10.0,-18.0,2.0
1701619346.9145184,-3.0,-51.0,-32.0,-1.0,3.0,15.0,14.0,-3.0
1701619346.9145184,0.0,13.0,17.0,-3.0,-5.0,-3.0,-8.0,-2.0
1701619346.9347653,1.0,-23.0,33.0,15.0,3.0,-1.0,13.0,-2.0
1701619346.9347653,4.0,-2.0,-25.0,-13.0,-2.0,1.0,-12.0,-5.0
1701619346.9347653,-8.0,-10.0,-6.0,1.0,-2.0,-8.0,-15.0,0.0
1701619346.9347653,4.0,18.0,-23.0,-13.0,-3.0,-4.0,8.0,14.0
1701619346.9445395,-1.0,57.0,25.0,1.0,4.0,7.0,-19.0,-15.0
1701619346.9445395,0.0,-64.0,21.0,8.0,3.0,-3.0,-8.0,-3.0
1701619346.9445395,1.0,45.0,-21.0,-16.0,-6.0,-2.0,8.0,-8.0
1701619346.9545474,1.0,-38.0,-6.0,7.0,-2.0,-5.0,-5.0,3.0
1701619346.9745352,0.0,5.0,3.0,0.0,0.0,-8.0,-12.0,7.0
1701619346.9745352,-1.0,14.0,15.0,4.0,3.0,7.0,23.0,-2.0
1701619346.9745352,4.0,25.0,36.0,16.0,6.0,3.0,-6.0,0.0
1701619346.9745352,-7.0,-18.0,-44.0,-21.0,-3.0,-1.0,1.0,-6.0
1701619346.9848437,2.0,-2.0,10.0,12.0,5.0,2.0,8.0,3.0
1701619346.9848437,-3.0,-8.0,-16.0,7.0,-5.0,-1.0,-5.0,-4.0
1701619346.9948537,-2.0,5.0,30.0,21.0,-2.0,-3.0,-4.0,3.0
1701619346.9948537,5.0,17.0,14.0,14.0,3.0,2.0,1.0,0.0
1701619347.0245378,-3.0,-22.0,-74.0,-39.0,-8.0,-4.0,14.0,0.0
1701619347.0245378,-8.0,-27.0,22.0,-8.0,-7.0,-4.0,5.0,0.0
1701619347.0245378,5.0,29.0,54.0,46.0,7.0,2.0,-10.0,1.0
1701619347.0245378,-2.0,3.0,-63.0,-65.0,-8.0,-6.0,-16.0,-8.0
1701619347.0347216,9.0,-13.0,114.0,46.0,13.0,7.0,7.0,3.0
1701619347.0347216,-8.0,36.0,-120.0,-6.0,-4.0,-1.0,2.0,6.0
1701619347.0347216,0.0,42.0,-25.0,-79.0,-17.0,-8.0,3.0,-12.0
1701619347.0347216,-4.0,-4.0,52.0,22.0,1.0,0.0,-10.0,-7.0
1701619347.0548325,-2.0,-10.0,26.0,-7.0,0.0,-1.0,3.0,-3.0
1701619347.0548325,-1.0,0.0,-37.0,-27.0,1.0,-4.0,-6.0,10.0
1701619347.0548325,2.0,30.0,-42.0,5.0,4.0,4.0,1.0,0.0
1701619347.0548325,1.0,-79.0,-23.0,14.0,3.0,3.0,24.0,7.0
1701619347.0745413,-14.0,2.0,13.0,-37.0,-15.0,-8.0,-17.0,-9.0
1701619347.0745413,7.0,1.0,55.0,27.0,4.0,2.0,-3.0,-5.0
1701619347.0745413,4.0,-3.0,4.0,26.0,-2.0,-5.0,-5.0,3.0
1701619347.0745413,-9.0,-44.0,-3.0,-14.0,-6.0,1.0,2.0,-6.0
1701619347.1045392,-3.0,73.0,3.0,-22.0,-8.0,-3.0,0.0,0.0
1701619347.1045392,-5.0,-61.0,-31.0,-22.0,-2.0,-1.0,-2.0,-6.0
1701619347.1045392,-3.0,-40.0,59.0,-1.0,-1.0,-5.0,2.0,-1.0
1701619347.1045392,10.0,31.0,-16.0,26.0,8.0,3.0,5.0,8.0
1701619347.134537,5.0,8.0,-26.0,8.0,-2.0,-1.0,12.0,4.0
1701619347.134537,16.0,59.0,101.0,16.0,6.0,7.0,6.0,5.0
1701619347.134537,-24.0,-66.0,-75.0,-20.0,-5.0,-6.0,-14.0,-4.0
1701619347.134537,5.0,25.0,16.0,13.0,-2.0,1.0,10.0,-16.0
1701619347.1445348,9.0,14.0,38.0,9.0,0.0,-4.0,-28.0,-1.0
1701619347.1445348,-23.0,-77.0,-78.0,-13.0,-4.0,0.0,20.0,2.0
1701619347.1445348,3.0,-42.0,-5.0,3.0,1.0,0.0,2.0,7.0
1701619347.1445348,-12.0,-4.0,5.0,-5.0,-5.0,-8.0,0.0,-3.0
1701619347.1545696,-7.0,0.0,-54.0,1.0,1.0,-4.0,-10.0,-9.0
1701619347.1545696,7.0,14.0,37.0,5.0,0.0,-1.0,5.0,-2.0
1701619347.1545696,3.0,16.0,22.0,4.0,-7.0,-6.0,-10.0,-5.0
1701619347.1545696,-1.0,13.0,-25.0,-8.0,-4.0,-2.0,-8.0,1.0
1701619347.1648831,4.0,-1.0,-9.0,9.0,9.0,4.0,10.0,0.0
1701619347.1648831,2.0,13.0,30.0,11.0,4.0,3.0,-2.0,3.0
1701619347.1748776,-1.0,-13.0,-62.0,-19.0,3.0,1.0,11.0,3.0
1701619347.1748776,4.0,22.0,36.0,10.0,4.0,0.0,-1.0,1.0
1701619347.1945355,-2.0,-37.0,10.0,22.0,1.0,1.0,0.0,4.0
1701619347.1945355,-3.0,-12.0,-45.0,-25.0,-8.0,-5.0,-2.0,-5.0
1701619347.1945355,0.0,22.0,5.0,-3.0,-5.0,-1.0,-1.0,-2.0
1701619347.1945355,-3.0,-2.0,61.0,11.0,-6.0,-4.0,-7.0,-3.0
1701619347.2148569,-7.0,-31.0,-54.0,-17.0,-4.0,-2.0,-1.0,-2.0
1701619347.2148569,1.0,2.0,1.0,13.0,7.0,-2.0,-2.0,-2.0
1701619347.2148569,2.0,12.0,7.0,6.0,5.0,2.0,-3.0,-5.0
1701619347.2148569,5.0,11.0,20.0,7.0,11.0,5.0,2.0,7.0
1701619347.2313313,2.0,-5.0,0.0,19.0,1.0,0.0,4.0,5.0
1701619347.2313313,-5.0,3.0,-6.0,-14.0,-15.0,-9.0,-8.0,-11.0
1701619347.2373116,3.0,-1.0,12.0,5.0,4.0,2.0,1.0,3.0
1701619347.2373116,-2.0,0.0,-14.0,-12.0,-7.0,-1.0,-4.0,-3.0
1701619347.2526748,0.0,-2.0,-27.0,-16.0,3.0,4.0,3.0,2.0
1701619347.2526748,1.0,1.0,3.0,-7.0,2.0,0.0,-3.0,-4.0
1701619347.2563803,-2.0,4.0,12.0,19.0,7.0,-1.0,0.0,-2.0
1701619347.2563803,-4.0,-5.0,-16.0,4.0,5.0,-1.0,-4.0,-3.0
1701619347.2667234,-3.0,-4.0,-2.0,3.0,5.0,2.0,-2.0,-3.0
1701619347.2667234,-2.0,0.0,16.0,0.0,2.0,0.0,-4.0,-1.0
1701619347.2764447,1.0,1.0,15.0,1.0,-2.0,-2.0,1.0,-2.0
1701619347.2764447,3.0,-8.0,-83.0,-27.0,-10.0,-5.0,-1.0,6.0
1701619347.2966948,-4.0,-6.0,42.0,7.0,-2.0,-3.0,-1.0,-6.0
1701619347.2966948,2.0,-9.0,-27.0,-6.0,-6.0,-3.0,-1.0,0.0
1701619347.2966948,-6.0,7.0,7.0,2.0,-4.0,-9.0,-23.0,-8.0
1701619347.2966948,6.0,11.0,26.0,7.0,3.0,1.0,-27.0,0.0
1701619347.3063838,-10.0,-33.0,-14.0,-13.0,-10.0,-1.0,31.0,-3.0
1701619347.3063838,6.0,7.0,-13.0,2.0,4.0,-2.0,-19.0,5.0
1701619347.3164108,-2.0,4.0,11.0,-7.0,-3.0,5.0,23.0,1.0
1701619347.3164108,3.0,6.0,37.0,18.0,5.0,-3.0,-11.0,0.0
1701619347.3365686,-3.0,-21.0,-34.0,-5.0,-5.0,-12.0,-29.0,-2.0
1701619347.3365686,-9.0,22.0,45.0,8.0,10.0,20.0,33.0,1.0
1701619347.3365686,-1.0,-19.0,-45.0,-7.0,-5.0,-4.0,14.0,4.0
1701619347.3365686,-11.0,-50.0,15.0,4.0,2.0,7.0,-4.0,3.0
1701619347.3464377,9.0,1.0,-36.0,-9.0,-2.0,-4.0,-22.0,-6.0
1701619347.3464377,0.0,-39.0,12.0,8.0,-4.0,-8.0,1.0,-5.0
1701619347.35671,0.0,-4.0,-30.0,-24.0,-3.0,2.0,14.0,11.0
1701619347.35671,-5.0,1.0,7.0,-3.0,0.0,2.0,11.0,-7.0
1701619347.3767707,3.0,16.0,11.0,5.0,2.0,1.0,4.0,3.0
1701619347.3767707,0.0,-5.0,-12.0,-8.0,-7.0,-3.0,-16.0,-2.0
1701619347.3767707,-2.0,-6.0,30.0,8.0,0.0,-2.0,-4.0,-2.0
1701619347.3767707,-4.0,5.0,-9.0,0.0,-4.0,-4.0,7.0,-3.0
1701619347.3964486,-1.0,3.0,-13.0,-1.0,-1.0,5.0,5.0,1.0
1701619347.3964486,1.0,11.0,22.0,5.0,-4.0,-5.0,4.0,-5.0
1701619347.3964486,0.0,12.0,32.0,8.0,3.0,-3.0,-8.0,3.0
1701619347.3964486,0.0,10.0,-9.0,-16.0,-4.0,2.0,16.0,-2.0
1701619347.4164476,-5.0,-5.0,-39.0,-13.0,-3.0,-3.0,-22.0,-7.0
1701619347.4164476,-1.0,5.0,6.0,-10.0,-5.0,-3.0,0.0,2.0
1701619347.4164476,0.0,13.0,12.0,25.0,3.0,1.0,10.0,-4.0
1701619347.4164476,2.0,0.0,15.0,-1.0,-3.0,-3.0,-14.0,-4.0
1701619347.4367995,2.0,-1.0,23.0,-5.0,1.0,-2.0,4.0,3.0
1701619347.4367995,-5.0,-5.0,-31.0,-9.0,-7.0,-3.0,-7.0,-4.0
1701619347.4367995,5.0,-2.0,-14.0,-14.0,-2.0,-4.0,-4.0,-1.0
1701619347.4367995,-8.0,-9.0,9.0,24.0,-1.0,-7.0,-11.0,-6.0
1701619347.4467423,-6.0,-2.0,35.0,14.0,1.0,1.0,0.0,3.0
1701619347.4467423,1.0,6.0,-22.0,-7.0,5.0,5.0,29.0,2.0
1701619347.4467423,8.0,9.0,8.0,15.0,-3.0,-3.0,-29.0,-3.0
1701619347.4467423,-6.0,-43.0,-29.0,-28.0,-1.0,2.0,8.0,-2.0
1701619347.4764478,5.0,18.0,10.0,4.0,3.0,1.0,0.0,1.0
1701619347.4764478,-4.0,-7.0,2.0,15.0,1.0,-2.0,5.0,0.0
1701619347.4764478,0.0,-13.0,-30.0,-24.0,-2.0,13.0,10.0,10.0
1701619347.4764478,4.0,-10.0,-9.0,1.0,2.0,-4.0,12.0,-11.0
1701619347.4866116,-14.0,-26.0,2.0,-1.0,-7.0,-4.0,0.0,-5.0
1701619347.4866116,6.0,11.0,13.0,0.0,-1.0,-4.0,-16.0,1.0
1701619347.496516,-4.0,20.0,36.0,6.0,0.0,-1.0,4.0,2.0
1701619347.496516,-6.0,-8.0,-57.0,-11.0,-4.0,-4.0,-7.0,-10.0
1701619347.5366495,4.0,-14.0,-4.0,-7.0,-4.0,-6.0,-2.0,9.0
1701619347.5366495,14.0,33.0,12.0,7.0,2.0,1.0,-16.0,-12.0
1701619347.5664513,-11.0,-5.0,1.0,-14.0,-6.0,-5.0,12.0,-2.0
1701619347.5664513,0.0,12.0,6.0,1.0,-3.0,-4.0,-8.0,12.0
1701619347.5664513,-2.0,-25.0,-17.0,9.0,2.0,7.0,-2.0,2.0
1701619347.5664513,-2.0,-3.0,-13.0,-8.0,-3.0,-11.0,-30.0,-8.0
1701619347.5764484,0.0,-55.0,13.0,0.0,0.0,-1.0,16.0,-8.0
1701619347.5764484,-2.0,1.0,14.0,6.0,2.0,7.0,29.0,6.0
1701619347.5764484,2.0,40.0,-2.0,2.0,3.0,2.0,8.0,0.0
1701619347.5764484,-2.0,-20.0,-12.0,-4.0,-6.0,-6.0,-12.0,11.0
1701619347.5865128,-4.0,1.0,-12.0,-1.0,2.0,0.0,-7.0,1.0
1701619347.5865128,3.0,7.0,9.0,1.0,-1.0,-2.0,-2.0,-11.0
1701619347.5865128,3.0,-2.0,7.0,5.0,3.0,2.0,4.0,5.0
1701619347.5865128,-5.0,4.0,5.0,-6.0,1.0,4.0,10.0,-2.0
1701619347.5865128,6.0,17.0,-13.0,-2.0,0.0,-2.0,-2.0,2.0
1701619347.5865128,2.0,8.0,-6.0,5.0,0.0,0.0,2.0,6.0
1701619347.5865128,-5.0,5.0,-7.0,-12.0,-10.0,-9.0,-9.0,-10.0
1701619347.5865128,-4.0,2.0,29.0,9.0,4.0,2.0,4.0,-2.0
1701619347.5967686,0.0,-3.0,-27.0,-4.0,1.0,1.0,-4.0,-2.0
1701619347.5967686,-1.0,5.0,-2.0,-5.0,-2.0,-2.0,-10.0,2.0
1701619347.626743,-1.0,-5.0,16.0,5.0,-2.0,-1.0,0.0,-4.0
1701619347.626743,0.0,-6.0,-2.0,5.0,4.0,1.0,9.0,4.0
1701619347.6364505,-1.0,2.0,1.0,2.0,4.0,0.0,-6.0,-2.0
1701619347.6364505,1.0,10.0,-4.0,-7.0,-1.0,0.0,0.0,-1.0
1701619347.656447,1.0,0.0,19.0,7.0,-8.0,-8.0,-4.0,-1.0
1701619347.656447,-2.0,-7.0,1.0,-3.0,0.0,-1.0,3.0,2.0
1701619347.656447,-2.0,3.0,-23.0,-33.0,-12.0,-9.0,-15.0,-5.0
1701619347.656447,-3.0,42.0,39.0,9.0,-5.0,-6.0,-12.0,-9.0
1701619347.6768098,5.0,1.0,-21.0,0.0,2.0,2.0,6.0,5.0
1701619347.6768098,-2.0,-8.0,20.0,-4.0,1.0,-2.0,-17.0,0.0
1701619347.6768098,-2.0,1.0,6.0,3.0,7.0,6.0,12.0,-3.0
1701619347.6768098,7.0,0.0,21.0,-14.0,-6.0,-6.0,-5.0,5.0
1701619347.7164497,-4.0,-7.0,-6.0,-6.0,2.0,5.0,13.0,-2.0
1701619347.7164497,-12.0,-3.0,-6.0,2.0,-3.0,1.0,1.0,-6.0
1701619347.7164497,0.0,8.0,3.0,14.0,1.0,-4.0,-7.0,-3.0
1701619347.7164497,4.0,-8.0,-21.0,-10.0,1.0,-1.0,-8.0,0.0
1701619347.7267306,-10.0,6.0,48.0,4.0,-1.0,2.0,4.0,-2.0
1701619347.7267306,5.0,-3.0,-18.0,-2.0,-2.0,-1.0,13.0,4.0
1701619347.7267306,-1.0,-11.0,-1.0,7.0,-1.0,-4.0,-24.0,-3.0
1701619347.7267306,3.0,16.0,34.0,17.0,1.0,0.0,13.0,1.0
1701619347.7267306,1.0,-28.0,-39.0,-10.0,0.0,0.0,-13.0,-6.0
1701619347.7267306,-7.0,-15.0,-4.0,-5.0,-3.0,-6.0,1.0,-4.0
1701619347.7267306,-4.0,-19.0,6.0,4.0,-2.0,-3.0,2.0,7.0
1701619347.7267306,2.0,16.0,0.0,8.0,1.0,-2.0,-17.0,1.0
1701619347.7267306,6.0,-5.0,-22.0,-2.0,1.0,-2.0,-7.0,-17.0
1701619347.7267306,-1.0,2.0,6.0,-2.0,-4.0,3.0,13.0,7.0
1701619347.7487645,0.0,23.0,8.0,4.0,-2.0,-2.0,-12.0,0.0
1701619347.7487645,-5.0,-14.0,-4.0,1.0,-1.0,0.0,6.0,4.0
1701619347.756116,-4.0,9.0,1.0,-2.0,2.0,-1.0,2.0,-2.0
1701619347.756116,6.0,17.0,26.0,7.0,0.0,1.0,-10.0,-1.0
1701619347.756116,-3.0,24.0,-31.0,-13.0,-7.0,-2.0,3.0,-9.0
1701619347.756116,-15.0,-20.0,-28.0,-24.0,-4.0,2.0,4.0,3.0
1701619347.7713358,0.0,-4.0,-13.0,0.0,-1.0,-2.0,1.0,3.0
1701619347.7713358,0.0,-22.0,28.0,18.0,-1.0,-3.0,-1.0,-3.0
1701619347.7727058,0.0,-18.0,-13.0,-8.0,0.0,1.0,4.0,0.0
1701619347.7727058,0.0,0.0,-6.0,-8.0,-6.0,-8.0,-14.0,-6.0
1701619347.7830522,5.0,-5.0,11.0,10.0,4.0,-1.0,-13.0,4.0
1701619347.7830522,-16.0,23.0,-4.0,1.0,-1.0,3.0,8.0,2.0
1701619347.8030667,-1.0,-35.0,-21.0,5.0,0.0,0.0,-28.0,-24.0
1701619347.8030667,8.0,-2.0,-39.0,-15.0,-1.0,-2.0,7.0,17.0
1701619347.8130984,0.0,13.0,36.0,0.0,0.0,-1.0,21.0,6.0
1701619347.8130984,8.0,1.0,-14.0,-12.0,-5.0,2.0,-30.0,-1.0
1701619347.8130984,-2.0,2.0,16.0,18.0,9.0,4.0,25.0,1.0
1701619347.8130984,5.0,-9.0,18.0,25.0,5.0,2.0,-17.0,-9.0
1701619347.8231266,-4.0,-12.0,-45.0,-2.0,-10.0,-8.0,4.0,9.0
1701619347.8231266,-4.0,-52.0,-18.0,-15.0,-2.0,-2.0,-13.0,3.0
1701619347.8334138,-5.0,14.0,6.0,-15.0,-2.0,7.0,28.0,13.0
1701619347.8334138,24.0,-3.0,59.0,13.0,5.0,5.0,15.0,9.0
1701619347.863063,1.0,14.0,-3.0,9.0,2.0,2.0,-2.0,1.0
1701619347.863063,-21.0,67.0,17.0,3.0,2.0,-2.0,5.0,-10.0
1701619347.863063,-7.0,-45.0,23.0,4.0,-7.0,-8.0,-19.0,-14.0
1701619347.863063,-55.0,-19.0,-7.0,-23.0,-5.0,-2.0,23.0,-22.0
1701619347.8730962,24.0,-1.0,5.0,-4.0,-2.0,0.0,8.0,40.0
1701619347.8730962,3.0,1.0,-11.0,1.0,-1.0,-4.0,-16.0,8.0
1701619347.8730962,10.0,29.0,17.0,3.0,0.0,2.0,2.0,-4.0
1701619347.8730962,9.0,12.0,10.0,4.0,-4.0,-5.0,2.0,21.0
1701619347.8833444,1.0,27.0,18.0,-3.0,0.0,1.0,-24.0,-81.0
1701619347.8833444,28.0,34.0,-15.0,-2.0,0.0,4.0,26.0,-24.0
1701619347.9033985,-31.0,-26.0,16.0,6.0,0.0,-1.0,2.0,38.0
1701619347.9033985,9.0,-79.0,-15.0,-8.0,-4.0,-5.0,-14.0,-15.0
1701619347.913069,-15.0,20.0,-45.0,-9.0,-1.0,-2.0,0.0,4.0
1701619347.913069,17.0,-15.0,28.0,7.0,1.0,1.0,8.0,18.0
1701619347.9430647,4.0,0.0,16.0,-2.0,-1.0,2.0,1.0,-8.0
1701619347.9430647,5.0,26.0,-15.0,0.0,-4.0,-7.0,-9.0,15.0
1701619347.9430647,22.0,-11.0,-6.0,-3.0,0.0,-5.0,-7.0,-1.0
1701619347.9430647,-35.0,-7.0,-6.0,-3.0,-4.0,-4.0,-1.0,-16.0
1701619347.9430647,5.0,3.0,2.0,-3.0,-2.0,-7.0,-11.0,4.0
1701619347.9430647,-16.0,-10.0,-34.0,-5.0,-1.0,5.0,1.0,-8.0
1701619347.9430647,-1.0,2.0,11.0,1.0,2.0,2.0,7.0,2.0
1701619347.9430647,-2.0,-1.0,-8.0,-3.0,-2.0,0.0,1.0,11.0
1701619347.9533026,3.0,10.0,-18.0,-3.0,-3.0,1.0,4.0,-6.0
1701619347.9533026,4.0,11.0,7.0,0.0,-2.0,0.0,-1.0,-6.0
1701619347.9730632,-9.0,-4.0,20.0,4.0,0.0,-1.0,-3.0,4.0
1701619347.9730632,3.0,-15.0,-31.0,-12.0,-4.0,-4.0,5.0,-1.0
1701619347.9730632,-1.0,6.0,-25.0,3.0,0.0,-4.0,-5.0,-2.0
1701619347.9730632,10.0,-4.0,-23.0,-14.0,-1.0,2.0,0.0,-8.0
1701619347.9933598,-12.0,-22.0,14.0,-2.0,0.0,0.0,1.0,9.0
1701619347.9933598,0.0,-2.0,24.0,-4.0,-6.0,-4.0,-5.0,1.0
1701619347.9933598,3.0,5.0,-42.0,-2.0,5.0,0.0,-3.0,-9.0
1701619347.9933598,-1.0,-5.0,-13.0,9.0,1.0,0.0,-4.0,0.0
1701619348.0033717,-6.0,-7.0,17.0,-20.0,-7.0,-4.0,0.0,0.0
1701619348.0033717,2.0,7.0,61.0,35.0,-1.0,-5.0,-4.0,-4.0
1701619348.0133078,0.0,-17.0,-29.0,-27.0,-3.0,-2.0,-4.0,-3.0
1701619348.0133078,-8.0,-40.0,-24.0,0.0,-5.0,-1.0,1.0,-3.0
1701619348.043062,-5.0,5.0,-20.0,-5.0,-1.0,-1.0,0.0,5.0
1701619348.043062,3.0,38.0,7.0,9.0,3.0,1.0,0.0,-4.0
1701619348.043062,10.0,92.0,-5.0,-17.0,-13.0,-4.0,1.0,4.0
1701619348.043062,-15.0,8.0,41.0,14.0,5.0,1.0,0.0,3.0
1701619348.0534592,4.0,-10.0,16.0,7.0,-2.0,0.0,-1.0,-7.0
1701619348.0534592,5.0,-6.0,6.0,35.0,5.0,0.0,-6.0,-1.0
1701619348.0534592,-4.0,-39.0,-64.0,-58.0,-11.0,-8.0,-5.0,-1.0
1701619348.0534592,-1.0,27.0,-5.0,3.0,3.0,9.0,31.0,2.0
1701619348.0631378,-10.0,12.0,4.0,1.0,-1.0,-2.0,-11.0,-2.0
1701619348.0631378,-2.0,-46.0,18.0,7.0,7.0,5.0,7.0,-4.0
1701619348.0732462,25.0,-19.0,-8.0,8.0,1.0,-2.0,-14.0,17.0
1701619348.0732462,-43.0,8.0,-8.0,4.0,-2.0,-2.0,-1.0,-12.0
1701619348.0931008,-2.0,31.0,-11.0,-4.0,2.0,-2.0,-5.0,-7.0
1701619348.0931008,-8.0,-81.0,-44.0,-31.0,-11.0,-1.0,11.0,1.0
1701619348.0931008,11.0,25.0,54.0,17.0,4.0,0.0,11.0,3.0
1701619348.0931008,9.0,5.0,-22.0,-19.0,-7.0,-6.0,-20.0,17.0
1701619348.1138945,12.0,45.0,-39.0,11.0,9.0,4.0,-5.0,-5.0
1701619348.1138945,-1.0,-11.0,0.0,-17.0,-6.0,-2.0,18.0,9.0
1701619348.1138945,-18.0,-23.0,33.0,19.0,-3.0,-4.0,-2.0,-14.0
1701619348.1138945,6.0,-11.0,12.0,7.0,5.0,2.0,-5.0,5.0
1701619348.1238954,1.0,32.0,14.0,-6.0,-2.0,2.0,6.0,7.0
1701619348.1238954,10.0,10.0,-64.0,-6.0,2.0,-1.0,-13.0,-1.0
1701619348.1338286,-4.0,12.0,-38.0,-16.0,-7.0,-5.0,-1.0,-2.0
1701619348.1338286,3.0,11.0,65.0,30.0,7.0,2.0,-3.0,-14.0
1701619348.1535404,-9.0,-39.0,-55.0,-38.0,-9.0,-8.0,-10.0,1.0
1701619348.1535404,-4.0,14.0,22.0,18.0,3.0,2.0,17.0,6.0
1701619348.1638825,2.0,-11.0,48.0,30.0,6.0,4.0,-19.0,-2.0
1701619348.1638825,12.0,47.0,16.0,-10.0,0.0,-5.0,-12.0,-1.0
1701619348.1738877,-8.0,12.0,48.0,24.0,-6.0,0.0,7.0,-10.0
1701619348.1738877,-15.0,3.0,-71.0,-13.0,0.0,1.0,-3.0,0.0
1701619348.1738877,-5.0,5.0,36.0,10.0,4.0,5.0,0.0,2.0
1701619348.1738877,-10.0,-4.0,-11.0,40.0,2.0,2.0,0.0,-14.0
1701619348.1939282,1.0,-35.0,-42.0,-35.0,-9.0,-4.0,5.0,14.0
1701619348.1939282,-5.0,20.0,-28.0,-9.0,-4.0,-5.0,-17.0,-9.0
1701619348.1939282,7.0,39.0,39.0,-20.0,-4.0,-1.0,-4.0,-4.0
1701619348.1939282,-1.0,-39.0,-43.0,-2.0,6.0,1.0,1.0,-7.0
1701619348.21354,12.0,63.0,37.0,37.0,4.0,0.0,-1.0,2.0
1701619348.21354,-17.0,-22.0,-2.0,-21.0,-6.0,-1.0,17.0,-1.0
1701619348.21354,3.0,-57.0,10.0,13.0,2.0,1.0,-11.0,-3.0
1701619348.21354,4.0,-8.0,-32.0,-19.0,-6.0,-2.0,-5.0,9.0
1701619348.2337759,1.0,-31.0,22.0,0.0,0.0,2.0,5.0,15.0
1701619348.2337759,13.0,9.0,4.0,-3.0,2.0,2.0,25.0,3.0
1701619348.2337759,-12.0,-4.0,-2.0,6.0,-2.0,-7.0,-29.0,-8.0
1701619348.2337759,26.0,38.0,26.0,-5.0,-6.0,-12.0,-19.0,-8.0
1701619348.2537549,-40.0,-48.0,19.0,9.0,-1.0,-2.0,-7.0,-13.0
1701619348.2537549,-5.0,16.0,-27.0,-17.0,-1.0,3.0,7.0,-2.0
1701619348.2537549,-8.0,-14.0,0.0,7.0,-1.0,0.0,11.0,-8.0
1701619348.2537549,2.0,0.0,15.0,-4.0,-3.0,-5.0,-15.0,-5.0
1701619348.3052213,-3.0,-16.0,-63.0,-2.0,3.0,1.0,-1.0,-2.0
1701619348.3052213,8.0,14.0,49.0,6.0,-2.0,-3.0,-10.0,10.0
1701619348.3052213,-2.0,41.0,-18.0,-6.0,-1.0,4.0,21.0,7.0
1701619348.3052213,2.0,1.0,-17.0,-7.0,-2.0,3.0,8.0,5.0
1701619348.315258,10.0,-1.0,19.0,8.0,7.0,7.0,13.0,4.0
1701619348.315258,-6.0,-16.0,-21.0,-28.0,-12.0,-8.0,-17.0,-8.0
1701619348.315258,1.0,-7.0,-54.0,-27.0,-1.0,-3.0,0.0,-3.0
1701619348.315258,-6.0,-4.0,58.0,19.0,-10.0,-5.0,6.0,-2.0
1701619348.3255582,1.0,-7.0,-33.0,-14.0,2.0,0.0,-4.0,-2.0
1701619348.3255582,-3.0,-14.0,-4.0,23.0,0.0,-5.0,-18.0,-8.0
1701619348.3355024,2.0,-5.0,2.0,-2.0,-1.0,1.0,3.0,-3.0
1701619348.3355024,-2.0,3.0,19.0,-3.0,2.0,2.0,5.0,3.0
1701619348.355604,-2.0,-31.0,-21.0,1.0,-6.0,-5.0,-4.0,-4.0
1701619348.355604,3.0,14.0,30.0,7.0,2.0,-2.0,-13.0,-4.0
1701619348.3652236,-10.0,-10.0,-29.0,15.0,-3.0,-2.0,5.0,-2.0
1701619348.3652236,-2.0,-3.0,-6.0,-47.0,-8.0,-1.0,2.0,-1.0
1701619348.3752224,2.0,3.0,68.0,24.0,-4.0,-3.0,-6.0,-2.0
1701619348.3752224,3.0,-8.0,-35.0,-11.0,0.0,-2.0,-4.0,-3.0
1701619348.3752224,-1.0,2.0,-15.0,-7.0,2.0,2.0,3.0,1.0
1701619348.3752224,-1.0,2.0,20.0,9.0,5.0,2.0,3.0,0.0
1701619348.3852253,-3.0,1.0,34.0,6.0,-2.0,-5.0,-5.0,-7.0
1701619348.3852253,0.0,-12.0,-57.0,-31.0,-9.0,-2.0,-8.0,0.0
1701619348.3852253,-1.0,4.0,35.0,13.0,-5.0,-3.0,0.0,-3.0
1701619348.3852253,4.0,-2.0,-46.0,-14.0,-3.0,-4.0,-1.0,1.0
1701619348.3955152,-3.0,-11.0,8.0,-3.0,0.0,-1.0,-1.0,1.0
1701619348.3955152,0.0,74.0,58.0,29.0,4.0,0.0,-5.0,-7.0
1701619348.3955152,-4.0,-20.0,-62.0,-20.0,-4.0,-4.0,-1.0,-2.0
1701619348.3955152,-1.0,-8.0,-16.0,2.0,-2.0,-2.0,3.0,-1.0
1701619348.445585,-1.0,7.0,5.0,-1.0,-3.0,-1.0,1.0,-1.0
1701619348.445585,-1.0,-33.0,8.0,4.0,1.0,-2.0,-3.0,2.0
1701619348.445585,-1.0,-11.0,18.0,3.0,-1.0,0.0,0.0,-5.0
1701619348.445585,-2.0,13.0,8.0,2.0,-1.0,-1.0,0.0,0.0
1701619348.4552245,-4.0,-23.0,-24.0,-9.0,-2.0,-3.0,-2.0,-1.0
1701619348.4552245,-1.0,-10.0,15.0,0.0,-1.0,-1.0,-5.0,-1.0
1701619348.4552245,4.0,18.0,7.0,16.0,4.0,3.0,1.0,0.0
1701619348.4552245,-5.0,-11.0,-17.0,-4.0,1.0,2.0,1.0,0.0
1701619348.4755428,0.0,-4.0,-74.0,-32.0,-5.0,0.0,3.0,-2.0
1701619348.4755428,-2.0,-11.0,22.0,3.0,-8.0,-5.0,-4.0,0.0
1701619348.4952226,1.0,11.0,39.0,8.0,-1.0,-1.0,0.0,1.0
1701619348.4952226,-3.0,-3.0,-2.0,8.0,2.0,1.0,-1.0,-4.0
1701619348.5055687,1.0,3.0,-1.0,-4.0,2.0,0.0,-1.0,-3.0
1701619348.5055687,3.0,3.0,-1.0,-3.0,3.0,3.0,0.0,0.0
1701619348.5055687,-6.0,-21.0,7.0,6.0,0.0,-2.0,0.0,-1.0
1701619348.5055687,-5.0,4.0,-15.0,-7.0,-3.0,-3.0,-2.0,-1.0
1701619348.5055687,0.0,-10.0,10.0,0.0,0.0,0.0,0.0,-2.0
1701619348.5055687,-4.0,-7.0,-9.0,9.0,-3.0,-3.0,-1.0,8.0
1701619348.5152752,2.0,3.0,22.0,0.0,-3.0,-4.0,-5.0,-8.0
1701619348.5152752,-1.0,-3.0,-20.0,-19.0,-4.0,-3.0,0.0,0.0
1701619348.5255973,0.0,32.0,23.0,9.0,1.0,1.0,0.0,0.0
1701619348.5255973,-5.0,-13.0,-8.0,4.0,2.0,1.0,-1.0,1.0
1701619348.5255973,2.0,11.0,-33.0,-11.0,-1.0,-1.0,-1.0,1.0
1701619348.5255973,-4.0,-1.0,26.0,5.0,-2.0,-1.0,-2.0,-1.0
1701619348.5552227,-2.0,-21.0,-3.0,7.0,-3.0,-5.0,0.0,1.0
1701619348.5552227,5.0,15.0,-9.0,-18.0,-2.0,1.0,0.0,-8.0
1701619348.5552227,-2.0,1.0,5.0,9.0,0.0,-2.0,0.0,0.0
1701619348.5552227,1.0,-2.0,2.0,11.0,0.0,-1.0,-2.0,-4.0
1701619348.5552227,-1.0,-4.0,10.0,-1.0,-1.0,-1.0,-1.0,2.0
1701619348.5552227,-1.0,-12.0,-3.0,-1.0,0.0,0.0,-3.0,-3.0
1701619348.5552227,-2.0,-9.0,0.0,-1.0,-2.0,-1.0,0.0,-1.0
1701619348.5552227,2.0,8.0,27.0,11.0,3.0,1.0,2.0,5.0
1701619348.5652242,0.0,1.0,-67.0,-13.0,-2.0,-2.0,-1.0,-5.0
1701619348.5652242,-4.0,1.0,-5.0,-7.0,-5.0,-1.0,1.0,-3.0
1701619348.5852242,-7.0,-42.0,-8.0,-15.0,-7.0,-4.0,1.0,-2.0
1701619348.5852242,-1.0,3.0,8.0,2.0,0.0,0.0,0.0,-1.0
1701619348.5952232,-2.0,6.0,20.0,8.0,0.0,0.0,-3.0,-3.0
1701619348.5952232,2.0,1.0,-9.0,-2.0,5.0,0.0,-2.0,-2.0
1701619348.5952232,-1.0,8.0,7.0,6.0,2.0,0.0,-2.0,2.0
1701619348.5952232,-1.0,-16.0,-12.0,-1.0,-2.0,-2.0,0.0,-1.0
1701619348.6155581,0.0,1.0,19.0,-5.0,0.0,-1.0,-2.0,-3.0
1701619348.6155581,-2.0,-14.0,-15.0,-1.0,0.0,-1.0,-1.0,2.0
1701619348.6155581,1.0,13.0,25.0,9.0,-1.0,-3.0,0.0,-1.0
1701619348.6155581,-7.0,-18.0,-38.0,-14.0,-4.0,-3.0,-3.0,-3.0
1701619348.6552577,-1.0,7.0,2.0,-4.0,-1.0,-1.0,-2.0,-2.0
1701619348.6552577,0.0,-1.0,21.0,9.0,1.0,-1.0,-1.0,0.0
1701619348.6652696,3.0,6.0,-1.0,1.0,-1.0,0.0,-3.0,-1.0
1701619348.6652696,0.0,6.0,-12.0,3.0,-1.0,0.0,-2.0,-3.0
1701619348.6756244,2.0,-9.0,16.0,4.0,-1.0,-2.0,-1.0,2.0
1701619348.6756244,-3.0,0.0,12.0,-1.0,-1.0,-3.0,-2.0,-2.0
1701619348.6756244,0.0,-3.0,-29.0,-7.0,0.0,0.0,0.0,0.0
1701619348.6756244,1.0,5.0,18.0,14.0,1.0,-1.0,0.0,0.0
1701619348.68556,-5.0,0.0,0.0,-12.0,-5.0,-3.0,-1.0,2.0
1701619348.68556,-4.0,3.0,0.0,-3.0,-2.0,-1.0,-2.0,-12.0
1701619348.705223,-2.0,0.0,-16.0,0.0,0.0,0.0,1.0,0.0
1701619348.705223,1.0,1.0,20.0,11.0,2.0,0.0,0.0,2.0
1701619348.715438,0.0,-2.0,5.0,1.0,-1.0,-2.0,-2.0,-2.0
1701619348.715438,-1.0,0.0,-8.0,-1.0,0.0,-1.0,-1.0,2.0
1701619348.715438,0.0,7.0,19.0,0.0,1.0,-1.0,1.0,-1.0
1701619348.715438,-2.0,-6.0,-2.0,2.0,-1.0,1.0,-2.0,-2.0
1701619348.715438,0.0,-10.0,-9.0,-5.0,0.0,-2.0,-2.0,0.0
1701619348.715438,4.0,-3.0,-7.0,-6.0,0.0,-1.0,0.0,2.0
1701619348.715438,-4.0,-4.0,-16.0,-15.0,-2.0,-1.0,-3.0,-2.0
1701619348.715438,0.0,8.0,6.0,-1.0,-3.0,-2.0,-3.0,1.0
1701619348.7355072,-2.0,-5.0,-8.0,-4.0,0.0,-1.0,-1.0,-2.0
1701619348.7355072,1.0,-5.0,18.0,4.0,0.0,0.0,-1.0,1.0
1701619348.7355072,0.0,-1.0,22.0,15.0,3.0,3.0,-1.0,-2.0
1701619348.7355072,-2.0,-10.0,-86.0,-30.0,-6.0,-4.0,-4.0,-4.0
1701619348.7555308,0.0,4.0,16.0,4.0,0.0,-1.0,-2.0,-1.0
1701619348.7555308,-3.0,-6.0,2.0,2.0,-2.0,-4.0,-4.0,-2.0
1701619348.7555308,1.0,-1.0,-7.0,-3.0,-1.0,0.0,-1.0,0.0
1701619348.7555308,-1.0,4.0,8.0,0.0,-1.0,-1.0,0.0,-2.0
1701619348.7952256,2.0,0.0,20.0,9.0,1.0,0.0,-2.0,-1.0
1701619348.7952256,2.0,2.0,-35.0,-13.0,-2.0,-1.0,-1.0,1.0
1701619348.7952256,-5.0,-16.0,-33.0,-3.0,0.0,2.0,0.0,-2.0
1701619348.7952256,0.0,0.0,27.0,-1.0,-3.0,-3.0,-3.0,-3.0
1701619348.8204029,-5.0,2.0,2.0,4.0,-1.0,0.0,0.0,-1.0
1701619348.821124,-2.0,-4.0,3.0,0.0,-1.0,0.0,0.0,0.0
1701619348.827283,-2.0,1.0,-2.0,-6.0,-3.0,-3.0,-2.0,1.0
1701619348.827283,-1.0,-2.0,-1.0,1.0,0.0,0.0,0.0,-2.0
1701619348.8382456,1.0,0.0,5.0,3.0,0.0,-1.0,-1.0,1.0
1701619348.8382456,-2.0,3.0,3.0,-3.0,0.0,-4.0,-4.0,0.0
1701619348.8382456,-2.0,-2.0,10.0,-5.0,-6.0,-3.0,-2.0,-2.0
1701619348.8382456,-2.0,-5.0,-6.0,-1.0,0.0,-2.0,0.0,-1.0
1701619348.8582487,1.0,6.0,12.0,2.0,0.0,0.0,-2.0,-2.0
1701619348.8582487,-1.0,3.0,4.0,2.0,1.0,2.0,-1.0,0.0
1701619348.8582487,1.0,2.0,2.0,2.0,-1.0,-4.0,-2.0,0.0
1701619348.8582487,0.0,13.0,36.0,-2.0,2.0,1.0,0.0,0.0
1701619348.8682466,-1.0,-15.0,-88.0,-2.0,-1.0,-1.0,-1.0,-1.0
1701619348.8682466,1.0,8.0,21.0,8.0,1.0,1.0,-1.0,0.0
1701619348.8682466,-2.0,-3.0,-9.0,-15.0,-6.0,-2.0,-1.0,7.0
1701619348.8682466,0.0,-4.0,0.0,0.0,-3.0,-3.0,-5.0,-12.0
1701619348.8785133,0.0,-1.0,3.0,-3.0,-1.0,0.0,1.0,1.0
1701619348.8785133,-1.0,2.0,-3.0,-4.0,-3.0,-1.0,-1.0,-2.0
1701619348.8882487,0.0,4.0,2.0,5.0,3.0,1.0,1.0,1.0
1701619348.8882487,0.0,0.0,0.0,0.0,0.0,1.0,0.0,4.0
1701619348.908636,1.0,5.0,18.0,4.0,0.0,-1.0,1.0,-1.0
1701619348.908636,-3.0,-6.0,-13.0,-3.0,-4.0,-2.0,-2.0,-2.0
1701619348.908636,-3.0,-17.0,43.0,14.0,0.0,-1.0,-2.0,-4.0
1701619348.908636,-3.0,-3.0,-36.0,-19.0,-6.0,-3.0,-3.0,2.0
1701619348.9282465,-3.0,-1.0,-43.0,-7.0,-2.0,-3.0,-3.0,-3.0
1701619348.9282465,-2.0,-2.0,-13.0,-6.0,-2.0,-3.0,0.0,0.0
1701619348.9282465,0.0,15.0,12.0,2.0,0.0,-1.0,-1.0,-4.0
1701619348.9282465,-1.0,-13.0,6.0,3.0,0.0,0.0,1.0,1.0
1701619348.9482532,0.0,-1.0,6.0,-1.0,-1.0,0.0,0.0,-1.0
1701619348.9482532,-1.0,6.0,0.0,-11.0,-2.0,-1.0,0.0,-2.0
1701619348.9682739,-3.0,-1.0,22.0,2.0,-1.0,-4.0,-3.0,-4.0
1701619348.9682739,0.0,26.0,-59.0,-7.0,-1.0,-2.0,-3.0,-3.0
1701619348.9682739,3.0,-19.0,51.0,3.0,-4.0,-4.0,-4.0,-3.0
1701619348.9682739,-4.0,1.0,-16.0,14.0,2.0,1.0,0.0,-1.0
1701619348.9682739,4.0,-2.0,-1.0,-7.0,0.0,2.0,3.0,1.0
1701619348.9682739,-9.0,-14.0,30.0,6.0,-4.0,-4.0,-2.0,3.0
1701619348.978251,11.0,21.0,-27.0,9.0,0.0,1.0,-1.0,-4.0
1701619348.978251,3.0,32.0,43.0,8.0,1.0,-1.0,-2.0,8.0
1701619348.978251,-3.0,15.0,-25.0,-10.0,-2.0,-3.0,-3.0,-19.0
1701619348.978251,4.0,-7.0,50.0,27.0,1.0,1.0,2.0,4.0
1701619349.0082498,-6.0,5.0,-17.0,-27.0,-3.0,0.0,0.0,1.0
1701619349.0082498,1.0,-23.0,34.0,13.0,0.0,0.0,-1.0,-2.0
1701619349.0082498,-2.0,-8.0,-62.0,-16.0,2.0,3.0,1.0,5.0
1701619349.0082498,1.0,7.0,37.0,9.0,2.0,2.0,0.0,-5.0
1701619349.0082498,-1.0,5.0,-36.0,-9.0,-4.0,-2.0,-3.0,2.0
