1701619179.3141353,-1.0,1.0,5.0,2.0,0.0,-1.0,-1.0,-2.0
1701619179.3141353,-2.0,-2.0,-6.0,-5.0,-3.0,-1.0,-3.0,-5.0
1701619179.3141353,-1.0,-1.0,4.0,2.0,-1.0,0.0,-1.0,0.0
1701619179.3141353,0.0,0.0,1.0,0.0,0.0,0.0,-2.0,-4.0
1701619179.324136,-1.0,-1.0,1.0,-1.0,-1.0,-2.0,-2.0,2.0
1701619179.324136,-1.0,-2.0,-8.0,-2.0,-2.0,-1.0,-2.0,-2.0
1701619179.3341737,-1.0,-2.0,2.0,-3.0,-2.0,-2.0,-1.0,1.0
1701619179.3341737,1.0,0.0,-2.0,0.0,-2.0,0.0,0.0,2.0
1701619179.3441744,-1.0,-3.0,-2.0,-2.0,-2.0,-3.0,-2.0,-4.0
1701619179.3441744,-1.0,-2.0,-1.0,0.0,0.0,-1.0,0.0,-3.0
1701619179.3441744,-2.0,-2.0,1.0,-1.0,0.0,0.0,-1.0,1.0
1701619179.3441744,-1.0,-1.0,1.0,-1.0,-2.0,0.0,-1.0,0.0
1701619179.3641336,-1.0,1.0,-1.0,1.0,1.0,-1.0,-1.0,-2.0
1701619179.3641336,-1.0,0.0,-1.0,-1.0,1.0,1.0,2.0,-3.0
1701619179.3741379,-3.0,-1.0,-1.0,-1.0,-2.0,-2.0,0.0,0.0
1701619179.3741379,0.0,0.0,1.0,0.0,-1.0,-2.0,-2.0,-1.0
1701619179.3841736,4.0,1.0,0.0,-1.0,0.0,0.0,-2.0,-1.0
1701619179.3841736,0.0,-1.0,-3.0,-2.0,-1.0,-3.0,-1.0,-1.0
1701619179.3941758,-3.0,-2.0,1.0,-1.0,-2.0,-2.0,-1.0,0.0
1701619179.3941758,-3.0,-1.0,-3.0,-1.0,-2.0,-2.0,-2.0,-1.0
1701619179.4241369,-2.0,-3.0,2.0,1.0,-2.0,0.0,0.0,1.0
1701619179.4241369,-1.0,-1.0,-3.0,-1.0,-2.0,-1.0,-1.0,-1.0
1701619179.4241369,0.0,-1.0,2.0,1.0,0.0,0.0,-1.0,0.0
1701619179.4241369,-2.0,-2.0,-3.0,-2.0,0.0,-2.0,-2.0,0.0
1701619179.4241369,0.0,0.0,-1.0,0.0,-1.0,1.0,-2.0,2.0
1701619179.4241369,-2.0,1.0,-1.0,-2.0,0.0,-2.0,0.0,-1.0
1701619179.434198,0.0,-1.0,-1.0,-1.0,-1.0,1.0,-2.0,-1.0
1701619179.434198,1.0,-1.0,0.0,-1.0,-1.0,-3.0,0.0,-3.0
1701619179.4443586,-2.0,-2.0,-2.0,-2.0,0.0,4.0,2.0,-4.0
1701619179.4443586,-2.0,1.0,-2.0,-2.0,-2.0,-2.0,0.0,-4.0
1701619179.46424,0.0,-1.0,-1.0,-1.0,-1.0,0.0,-1.0,-3.0
1701619179.46424,0.0,0.0,1.0,-1.0,-1.0,-1.0,-2.0,-1.0
1701619179.46424,0.0,0.0,-1.0,-1.0,-3.0,-7.0,-8.0,-3.0
1701619179.46424,-1.0,-3.0,0.0,1.0,-1.0,4.0,5.0,0.0
1701619179.4744465,-1.0,-2.0,1.0,1.0,0.0,1.0,-1.0,-1.0
1701619179.4744465,-1.0,-1.0,-1.0,-2.0,-3.0,-1.0,2.0,1.0
1701619179.484138,-1.0,1.0,0.0,-2.0,-2.0,-2.0,-1.0,-1.0
1701619179.484138,1.0,-2.0,-3.0,-2.0,-3.0,0.0,-3.0,-1.0
1701619179.494138,0.0,-2.0,-1.0,0.0,-3.0,-4.0,0.0,0.0
1701619179.494138,1.0,-2.0,-1.0,-1.0,0.0,1.0,0.0,0.0
1701619179.504136,-1.0,-1.0,0.0,1.0,1.0,-1.0,0.0,1.0
1701619179.504136,-1.0,0.0,0.0,0.0,-2.0,-2.0,-3.0,-2.0
1701619179.5143752,-2.0,-2.0,-1.0,-1.0,0.0,-1.0,-1.0,2.0
1701619179.5143752,-1.0,-1.0,0.0,0.0,-2.0,-3.0,-1.0,-3.0
1701619179.5341358,0.0,-3.0,-1.0,-1.0,0.0,-5.0,-2.0,2.0
1701619179.5341358,-4.0,-8.0,-1.0,-4.0,-2.0,-1.0,-3.0,-5.0
1701619179.5341358,2.0,-6.0,2.0,3.0,3.0,0.0,-5.0,2.0
1701619179.5341358,-1.0,-9.0,1.0,0.0,1.0,1.0,3.0,2.0
1701619179.5442789,2.0,-7.0,0.0,2.0,1.0,-1.0,2.0,2.0
1701619179.5442789,0.0,-7.0,-3.0,-3.0,-3.0,-6.0,-4.0,-2.0
1701619179.5541413,0.0,-4.0,0.0,-1.0,0.0,-1.0,2.0,0.0
1701619179.5548255,0.0,-4.0,-2.0,-3.0,-1.0,-1.0,-1.0,1.0
1701619179.5692692,-1.0,0.0,-2.0,-3.0,-4.0,-2.0,-2.0,-2.0
1701619179.5692692,1.0,1.0,2.0,1.0,1.0,0.0,1.0,1.0
1701619179.5827246,0.0,0.0,-3.0,-3.0,-4.0,-3.0,-2.0,-1.0
1701619179.5827246,-2.0,0.0,0.0,0.0,1.0,0.0,0.0,-3.0
1701619179.6074739,-1.0,1.0,0.0,-1.0,0.0,-1.0,-2.0,-1.0
1701619179.6074739,-3.0,0.0,-2.0,-2.0,-3.0,-5.0,-9.0,-2.0
1701619179.6074739,-2.0,1.0,-3.0,-2.0,-3.0,0.0,2.0,-3.0
1701619179.6074739,-3.0,3.0,0.0,1.0,0.0,1.0,0.0,-2.0
1701619179.617166,-2.0,0.0,-1.0,-1.0,-1.0,4.0,3.0,-1.0
1701619179.617166,-1.0,1.0,-1.0,-1.0,2.0,0.0,-2.0,-3.0
1701619179.617166,-2.0,0.0,-1.0,-2.0,-3.0,-3.0,0.0,-1.0
1701619179.617166,0.0,1.0,-1.0,-1.0,-1.0,-3.0,-6.0,-3.0
1701619179.6273584,-4.0,-1.0,-1.0,-1.0,-3.0,-2.0,-6.0,-3.0
1701619179.6273584,0.0,0.0,-1.0,0.0,0.0,0.0,1.0,1.0
1701619179.6371655,-2.0,0.0,-1.0,-1.0,1.0,2.0,3.0,-2.0
1701619179.6371655,0.0,0.0,-2.0,0.0,-2.0,-3.0,-3.0,0.0
1701619179.6574395,-1.0,0.0,0.0,0.0,0.0,4.0,1.0,0.0
1701619179.6574395,-2.0,1.0,-2.0,-1.0,-1.0,-2.0,-2.0,-1.0
1701619179.6574395,-2.0,0.0,-1.0,-4.0,-1.0,1.0,-1.0,-3.0
1701619179.6574395,0.0,0.0,-1.0,-1.0,0.0,-1.0,0.0,0.0
1701619179.6674254,-2.0,-1.0,-2.0,-1.0,-1.0,-2.0,0.0,0.0
1701619179.6674254,1.0,0.0,-1.0,-1.0,0.0,-1.0,1.0,1.0
1701619179.6674254,-1.0,-1.0,0.0,-1.0,-2.0,-3.0,-5.0,-1.0
1701619179.6674254,0.0,1.0,-2.0,0.0,-1.0,1.0,-3.0,-1.0
1701619179.687396,-2.0,-1.0,-2.0,-3.0,-1.0,-4.0,-4.0,-2.0
1701619179.687396,-3.0,-2.0,-2.0,-1.0,0.0,1.0,5.0,-1.0
1701619179.687396,-1.0,-1.0,-1.0,-1.0,-2.0,0.0,-1.0,1.0
1701619179.687396,-1.0,-1.0,-1.0,-2.0,-1.0,-1.0,0.0,-2.0
1701619179.7071655,-1.0,-4.0,-2.0,-1.0,-2.0,-1.0,1.0,-1.0
1701619179.7071655,1.0,-5.0,-1.0,-2.0,-1.0,-3.0,-3.0,-1.0
1701619179.7171636,-1.0,-2.0,-2.0,-1.0,-1.0,-2.0,-3.0,0.0
1701619179.7271726,0.0,-4.0,-1.0,-2.0,-5.0,-4.0,-2.0,-2.0
1701619179.7571635,0.0,-3.0,-2.0,-2.0,-1.0,2.0,-1.0,-3.0
1701619179.7571635,-1.0,-1.0,0.0,1.0,1.0,1.0,-1.0,0.0
1701619179.7571635,-2.0,-2.0,0.0,-1.0,1.0,-1.0,-3.0,0.0
1701619179.7571635,0.0,-2.0,-1.0,0.0,-1.0,-2.0,2.0,0.0
1701619179.7571635,-1.0,0.0,-1.0,-2.0,-1.0,-1.0,-1.0,0.0
1701619179.7571635,0.0,-1.0,-1.0,0.0,0.0,0.0,0.0,0.0
1701619179.7571635,-1.0,-2.0,-1.0,-1.0,-2.0,-2.0,0.0,-3.0
1701619179.7571635,-1.0,-2.0,-1.0,-1.0,-2.0,-1.0,-7.0,-3.0
1701619179.7675164,0.0,-1.0,-1.0,0.0,0.0,-2.0,1.0,-1.0
1701619179.7675164,-3.0,2.0,0.0,-2.0,0.0,1.0,0.0,0.0
1701619179.7775488,0.0,2.0,0.0,-1.0,-1.0,-2.0,-1.0,0.0
1701619179.7775488,-1.0,2.0,-1.0,0.0,0.0,-1.0,0.0,-2.0
1701619179.787167,-1.0,0.0,-1.0,0.0,1.0,1.0,0.0,0.0
1701619179.787167,0.0,-1.0,0.0,-1.0,-2.0,0.0,-3.0,-1.0
1701619179.787167,-2.0,1.0,-3.0,-2.0,-1.0,-1.0,0.0,-2.0
1701619179.787167,0.0,-1.0,-4.0,-2.0,-4.0,-2.0,-1.0,0.0
1701619179.807165,-1.0,2.0,2.0,1.0,2.0,3.0,0.0,-4.0
1701619179.807165,-2.0,1.0,0.0,-1.0,0.0,0.0,-1.0,-1.0
1701619179.807165,-2.0,1.0,-2.0,-1.0,0.0,0.0,2.0,-1.0
1701619179.807165,-3.0,1.0,-1.0,-2.0,-2.0,-4.0,-9.0,-5.0
1701619179.8275821,-1.0,-1.0,-2.0,-2.0,-1.0,1.0,4.0,0.0
1701619179.8275821,1.0,1.0,1.0,-1.0,-1.0,-2.0,2.0,4.0
1701619179.8375266,0.0,-1.0,-1.0,1.0,1.0,3.0,5.0,3.0
1701619179.8375266,-1.0,0.0,2.0,-1.0,5.0,3.0,-5.0,1.0
1701619179.8474445,-2.0,1.0,1.0,1.0,2.0,2.0,1.0,0.0
1701619179.8474445,0.0,1.0,-1.0,0.0,0.0,3.0,-1.0,-1.0
1701619179.8474445,4.0,0.0,0.0,-3.0,-5.0,-12.0,0.0,4.0
1701619179.8474445,-2.0,-2.0,-2.0,0.0,2.0,8.0,10.0,-1.0
1701619179.8771732,0.0,-2.0,-2.0,-2.0,-3.0,-4.0,-3.0,0.0
1701619179.8771732,-1.0,-1.0,0.0,1.0,-1.0,-1.0,0.0,-1.0
1701619179.8771732,-2.0,-1.0,0.0,-2.0,-3.0,-4.0,-7.0,-1.0
1701619179.8771732,0.0,1.0,-1.0,-4.0,-4.0,-10.0,-13.0,-1.0
1701619179.8873837,-5.0,-3.0,-2.0,-3.0,-2.0,-8.0,8.0,-2.0
1701619179.8873837,-1.0,-3.0,-4.0,-5.0,-23.0,1.0,-4.0,-3.0
1701619179.8974078,-2.0,-1.0,-1.0,2.0,19.0,9.0,2.0,-5.0
1701619179.8974078,0.0,-3.0,1.0,2.0,12.0,2.0,2.0,-2.0
1701619179.9271731,1.0,-3.0,-2.0,-2.0,1.0,4.0,-8.0,-1.0
1701619179.9271731,0.0,-4.0,-2.0,-2.0,-29.0,-8.0,-4.0,0.0
1701619179.9271731,-3.0,-4.0,-2.0,2.0,22.0,-8.0,0.0,-1.0
1701619179.9271731,0.0,-3.0,0.0,-1.0,-5.0,-3.0,3.0,0.0
1701619179.9271731,1.0,-2.0,-1.0,4.0,11.0,1.0,-6.0,0.0
1701619179.9271731,-2.0,-4.0,-1.0,0.0,-2.0,-2.0,-1.0,-2.0
1701619179.9271731,-1.0,-5.0,-1.0,-7.0,-22.0,-5.0,-5.0,-1.0
1701619179.9271731,-2.0,-2.0,-3.0,-3.0,-1.0,-5.0,2.0,-1.0
1701619179.9471745,0.0,-15.0,-1.0,-4.0,-8.0,-8.0,-3.0,0.0
1701619179.9471745,-1.0,1.0,0.0,-2.0,6.0,1.0,2.0,0.0
1701619179.9671686,0.0,0.0,-2.0,-3.0,-5.0,2.0,-2.0,-1.0
1701619179.9671686,1.0,2.0,-1.0,-1.0,2.0,-2.0,1.0,1.0
1701619179.9671686,-7.0,-72.0,-6.0,0.0,-9.0,-2.0,-5.0,-4.0
1701619179.9671686,0.0,3.0,-3.0,3.0,13.0,4.0,0.0,-1.0
1701619179.9671686,-11.0,-12.0,2.0,2.0,4.0,3.0,0.0,-4.0
1701619179.9671686,-5.0,-13.0,0.0,1.0,-8.0,2.0,0.0,0.0
1701619179.9873948,10.0,59.0,5.0,1.0,0.0,1.0,1.0,3.0
1701619179.9873948,-1.0,4.0,5.0,2.0,11.0,-2.0,-2.0,-2.0
1701619179.9873948,5.0,38.0,1.0,3.0,-4.0,2.0,1.0,2.0
1701619179.9873948,-1.0,-16.0,-4.0,-5.0,-7.0,-2.0,0.0,1.0
1701619180.0173306,-4.0,11.0,-7.0,-3.0,-1.0,-4.0,-2.0,-5.0
1701619180.0173306,0.0,11.0,1.0,1.0,7.0,-3.0,-2.0,-1.0
1701619180.0173306,5.0,11.0,0.0,-2.0,-8.0,-1.0,-2.0,-3.0
1701619180.0173306,-3.0,8.0,6.0,2.0,0.0,2.0,0.0,-1.0
1701619180.0271647,4.0,-4.0,-2.0,-4.0,0.0,-2.0,-1.0,0.0
1701619180.0271647,-2.0,-8.0,-3.0,-6.0,-3.0,-3.0,-1.0,-1.0
1701619180.0271647,1.0,-42.0,-11.0,-6.0,-5.0,-4.0,-6.0,-5.0
1701619180.0271647,-2.0,19.0,8.0,-2.0,1.0,-2.0,-1.0,-1.0
1701619180.047569,0.0,23.0,-6.0,0.0,-2.0,-1.0,-1.0,-1.0
1701619180.047569,-3.0,27.0,8.0,7.0,5.0,3.0,2.0,2.0
1701619180.047569,-3.0,-45.0,5.0,2.0,-2.0,2.0,0.0,-3.0
1701619180.047569,0.0,-48.0,-13.0,-8.0,-5.0,-5.0,-3.0,-3.0
1701619180.0672388,-14.0,28.0,8.0,5.0,2.0,3.0,-1.0,-3.0
1701619180.0672388,1.0,-25.0,-11.0,-4.0,-1.0,-3.0,-1.0,-2.0
1701619180.0825138,-4.0,1.0,1.0,1.0,-2.0,0.0,0.0,0.0
1701619180.0825138,-2.0,-2.0,-4.0,-1.0,-5.0,-1.0,0.0,-2.0
1701619180.0932045,0.0,9.0,-2.0,-1.0,-2.0,-2.0,-1.0,-2.0
1701619180.0932045,-4.0,-20.0,-3.0,-1.0,1.0,-1.0,-1.0,-3.0
1701619180.0939748,0.0,21.0,1.0,0.0,-3.0,1.0,-2.0,-1.0
1701619180.0939748,2.0,9.0,-7.0,-3.0,-2.0,0.0,1.0,-2.0
1701619180.1138947,-2.0,-9.0,1.0,1.0,-1.0,0.0,-1.0,-2.0
1701619180.1138947,1.0,8.0,1.0,-3.0,-1.0,0.0,-1.0,0.0
1701619180.1138947,0.0,19.0,1.0,-2.0,-3.0,0.0,-2.0,-1.0
1701619180.1138947,-1.0,12.0,0.0,1.0,1.0,2.0,1.0,-1.0
1701619180.1235166,1.0,-9.0,0.0,-1.0,-2.0,-1.0,0.0,0.0
1701619180.1235166,-2.0,-7.0,-1.0,-3.0,-1.0,-2.0,-1.0,0.0
1701619180.1338074,-2.0,-8.0,-4.0,-2.0,-1.0,-2.0,0.0,0.0
1701619180.1338074,-2.0,1.0,-1.0,0.0,0.0,0.0,0.0,0.0
1701619180.1535106,0.0,-18.0,-3.0,-2.0,-3.0,-2.0,-1.0,1.0
1701619180.1535106,2.0,-5.0,-2.0,0.0,-2.0,-1.0,-3.0,0.0
1701619180.1535106,-4.0,-2.0,1.0,1.0,1.0,-2.0,0.0,-2.0
1701619180.1535106,0.0,6.0,1.0,0.0,0.0,0.0,-1.0,0.0
1701619180.1639035,-1.0,-23.0,-2.0,-2.0,0.0,-4.0,-2.0,-1.0
1701619180.1639035,2.0,10.0,0.0,-2.0,-1.0,-2.0,0.0,-1.0
1701619180.173891,3.0,5.0,1.0,-2.0,-1.0,-2.0,-1.0,2.0
1701619180.173891,-2.0,-1.0,-1.0,2.0,1.0,0.0,-1.0,0.0
1701619180.1935117,0.0,-7.0,-3.0,-4.0,-3.0,0.0,-2.0,0.0
1701619180.1935117,3.0,-2.0,-2.0,0.0,-2.0,-2.0,-1.0,-2.0
1701619180.1935117,4.0,24.0,2.0,0.0,-2.0,0.0,-1.0,1.0
1701619180.1935117,0.0,-5.0,-2.0,-1.0,0.0,-2.0,-2.0,0.0
1701619180.2135115,1.0,-6.0,-2.0,-3.0,-3.0,-1.0,-3.0,1.0
1701619180.2135115,-3.0,2.0,-1.0,1.0,2.0,0.0,-1.0,0.0
1701619180.2135115,4.0,0.0,-3.0,-4.0,-3.0,-3.0,-1.0,-1.0
1701619180.2135115,0.0,-3.0,2.0,1.0,0.0,-1.0,-1.0,-1.0
1701619180.223879,0.0,23.0,3.0,1.0,0.0,-2.0,0.0,0.0
1701619180.223879,-1.0,-6.0,-1.0,-1.0,-3.0,-2.0,-1.0,-1.0
1701619180.2335114,-2.0,-7.0,-5.0,-1.0,0.0,0.0,-1.0,-1.0
1701619180.2335114,2.0,10.0,1.0,0.0,0.0,0.0,0.0,2.0
1701619180.243513,-3.0,-19.0,-1.0,-3.0,-2.0,-3.0,-1.0,-2.0
1701619180.243513,-2.0,-3.0,-1.0,-2.0,-1.0,-2.0,0.0,0.0
1701619180.2538576,-2.0,9.0,1.0,0.0,0.0,-2.0,-2.0,-1.0
1701619180.2538576,-1.0,0.0,-7.0,-2.0,0.0,-2.0,-3.0,-3.0
1701619180.2735252,-1.0,-19.0,0.0,-1.0,-1.0,-1.0,-1.0,0.0
1701619180.2735252,-2.0,5.0,-1.0,-1.0,1.0,-2.0,0.0,0.0
1701619180.2735252,-1.0,-13.0,-2.0,-2.0,-3.0,-1.0,-1.0,-2.0
1701619180.2735252,0.0,-6.0,-1.0,0.0,-2.0,-2.0,-1.0,-1.0
1701619180.2938962,-3.0,-1.0,-1.0,-1.0,-2.0,-2.0,0.0,-2.0
1701619180.2938962,-5.0,-7.0,-2.0,0.0,-1.0,0.0,-1.0,-2.0
1701619180.3035197,0.0,-6.0,-2.0,-3.0,-2.0,-3.0,-1.0,-1.0
1701619180.3035197,4.0,-2.0,-4.0,-1.0,-1.0,0.0,-3.0,0.0
1701619180.3235097,-4.0,-13.0,-3.0,-2.0,-2.0,2.0,-2.0,-1.0
1701619180.3235097,-2.0,-22.0,-3.0,0.0,0.0,0.0,1.0,-1.0
1701619180.3235097,0.0,0.0,-1.0,-1.0,0.0,0.0,-1.0,-2.0
1701619180.3235097,-2.0,5.0,1.0,0.0,-2.0,-3.0,0.0,-1.0
1701619180.3335123,-6.0,0.0,2.0,0.0,1.0,0.0,-2.0,-2.0
1701619180.3335123,-1.0,-5.0,-4.0,-3.0,-2.0,-3.0,-2.0,-1.0
1701619180.3335123,1.0,-7.0,-3.0,0.0,0.0,0.0,0.0,-2.0
1701619180.3335123,-9.0,-7.0,-1.0,-2.0,-2.0,-2.0,-1.0,-2.0
1701619180.343549,1.0,10.0,-3.0,0.0,1.0,-1.0,-2.0,1.0
1701619180.343549,-1.0,4.0,2.0,-2.0,-3.0,1.0,-3.0,-1.0
1701619180.3535407,-2.0,5.0,0.0,0.0,-1.0,0.0,-1.0,-2.0
1701619180.3535407,1.0,6.0,0.0,-1.0,-1.0,-1.0,0.0,-3.0
1701619180.3639631,3.0,9.0,-2.0,0.0,-2.0,0.0,0.0,-1.0
1701619180.3639631,-2.0,4.0,-1.0,0.0,-1.0,-1.0,-1.0,-2.0
1701619180.3738508,-2.0,-4.0,-2.0,0.0,-1.0,0.0,-1.0,0.0
1701619180.3738508,-2.0,-1.0,1.0,0.0,0.0,0.0,-2.0,-2.0
1701619180.3935099,0.0,1.0,0.0,-3.0,-1.0,-1.0,-1.0,-1.0
1701619180.3935099,-1.0,0.0,0.0,-2.0,0.0,-1.0,0.0,-1.0
1701619180.3935099,-2.0,-1.0,-1.0,-1.0,0.0,-2.0,-2.0,0.0
1701619180.3935099,-2.0,-1.0,-1.0,0.0,-3.0,-2.0,-1.0,-2.0
1701619180.433511,0.0,5.0,1.0,0.0,-1.0,-2.0,0.0,0.0
1701619180.433511,1.0,5.0,0.0,1.0,1.0,-1.0,0.0,-1.0
1701619180.433511,-2.0,-2.0,-2.0,-3.0,-1.0,-2.0,-1.0,-1.0
1701619180.433511,0.0,-3.0,-2.0,-3.0,-1.0,-1.0,-1.0,0.0
1701619180.433511,0.0,0.0,-2.0,0.0,-2.0,0.0,-1.0,-2.0
1701619180.433511,-2.0,0.0,-2.0,-2.0,0.0,-3.0,-2.0,0.0
1701619180.433511,-1.0,-5.0,-2.0,-1.0,-2.0,0.0,-1.0,1.0
1701619180.433511,2.0,-2.0,0.0,-2.0,-1.0,-1.0,-1.0,0.0
1701619180.4435117,0.0,3.0,1.0,-1.0,-1.0,-1.0,0.0,-1.0
1701619180.4435117,-1.0,-1.0,-3.0,-1.0,-1.0,-2.0,-1.0,-1.0
1701619180.4535131,-2.0,0.0,-1.0,-1.0,-1.0,-2.0,-2.0,-1.0
1701619180.4535131,0.0,1.0,-1.0,-1.0,0.0,1.0,1.0,-1.0
1701619180.4738212,0.0,1.0,1.0,-1.0,0.0,-1.0,-1.0,-1.0
1701619180.4738212,1.0,0.0,-1.0,-2.0,0.0,0.0,-2.0,-1.0
1701619180.4738212,0.0,-2.0,0.0,0.0,0.0,-1.0,1.0,-1.0
1701619180.4738212,-3.0,-6.0,-6.0,-3.0,-2.0,-2.0,-1.0,-2.0
1701619180.493511,-1.0,-1.0,-1.0,1.0,-1.0,-1.0,-1.0,-1.0
1701619180.493511,-3.0,0.0,1.0,0.0,-4.0,1.0,-1.0,-1.0
1701619180.493511,-1.0,0.0,-1.0,0.0,-1.0,0.0,-1.0,-2.0
1701619180.493511,-1.0,-1.0,-1.0,-2.0,-2.0,-2.0,-2.0,-2.0
1701619180.5135164,-1.0,1.0,-2.0,-1.0,0.0,-2.0,-1.0,0.0
1701619180.5135164,-1.0,-1.0,-3.0,-2.0,-1.0,-1.0,-3.0,-1.0
1701619180.5238373,-1.0,0.0,2.0,1.0,-3.0,-1.0,-2.0,-2.0
1701619180.5238373,-1.0,-1.0,1.0,2.0,0.0,-1.0,-1.0,-1.0
1701619180.5535111,-2.0,-3.0,-5.0,-4.0,-1.0,0.0,-2.0,-1.0
1701619180.5535111,-1.0,0.0,3.0,1.0,1.0,-1.0,1.0,-2.0
1701619180.5535111,-2.0,-4.0,-3.0,-4.0,-1.0,-2.0,-1.0,-1.0
1701619180.5535111,-2.0,0.0,2.0,-1.0,0.0,0.0,0.0,-1.0
1701619180.5535111,-1.0,-1.0,0.0,0.0,-1.0,-2.0,-3.0,-2.0
1701619180.5535111,0.0,0.0,-1.0,-1.0,-1.0,-1.0,1.0,0.0
1701619180.5535111,-2.0,-2.0,-6.0,-3.0,-3.0,-2.0,-1.0,-3.0
1701619180.5535111,1.0,-2.0,-2.0,0.0,-1.0,-1.0,-2.0,-1.0
1701619180.5735137,0.0,0.0,1.0,-1.0,-2.0,-1.0,0.0,1.0
1701619180.5735137,-2.0,-2.0,-2.0,1.0,0.0,-1.0,-2.0,-2.0
1701619180.5835109,0.0,2.0,0.0,-1.0,0.0,-2.0,-1.0,0.0
1701619180.5835109,1.0,0.0,-2.0,-3.0,-1.0,1.0,-2.0,0.0
1701619180.5938916,-2.0,1.0,-1.0,-1.0,0.0,-1.0,1.0,-2.0
1701619180.5938916,0.0,0.0,0.0,0.0,-2.0,1.0,-2.0,-1.0
1701619180.5938916,-1.0,0.0,1.0,0.0,-1.0,0.0,-1.0,-2.0
1701619180.5938916,-3.0,-2.0,-3.0,-3.0,0.0,-1.0,-1.0,-1.0
1701619180.6193528,-1.0,0.0,3.0,0.0,0.0,0.0,-2.0,-1.0
1701619180.6193528,0.0,-4.0,-1.0,-2.0,-1.0,0.0,0.0,0.0
1701619180.620353,0.0,-6.0,0.0,0.0,0.0,-3.0,-2.0,0.0
1701619180.620353,0.0,-3.0,1.0,-2.0,-2.0,-1.0,-2.0,-2.0
1701619180.6323504,-2.0,-4.0,0.0,-2.0,-2.0,-2.0,-2.0,-1.0
1701619180.6323504,-2.0,-3.0,-3.0,-1.0,-1.0,-2.0,-2.0,-1.0
1701619180.646013,1.0,-3.0,-2.0,0.0,1.0,1.0,0.0,2.0
1701619180.646013,0.0,0.0,1.0,0.0,-2.0,-2.0,0.0,0.0
1701619180.6562698,0.0,1.0,-3.0,1.0,-1.0,-2.0,1.0,0.0
1701619180.6562698,0.0,0.0,-2.0,-1.0,-2.0,-1.0,-1.0,-1.0
1701619180.6562698,-3.0,0.0,0.0,-2.0,0.0,1.0,1.0,-2.0
1701619180.6562698,-3.0,1.0,0.0,2.0,0.0,-1.0,1.0,-2.0
1701619180.6662383,-1.0,0.0,-4.0,-1.0,-1.0,-1.0,-1.0,-2.0
1701619180.6662383,-1.0,0.0,0.0,-1.0,-1.0,-4.0,-1.0,0.0
1701619180.67628,-1.0,1.0,-3.0,-1.0,-1.0,-2.0,-3.0,0.0
1701619180.67628,-2.0,1.0,0.0,-1.0,-1.0,0.0,0.0,-2.0
1701619180.6860728,0.0,-1.0,-1.0,0.0,-1.0,-2.0,-2.0,-3.0
1701619180.6860728,-4.0,0.0,-2.0,-1.0,0.0,-2.0,-1.0,-2.0
1701619180.7160144,0.0,0.0,-2.0,-1.0,1.0,-2.0,2.0,-1.0
1701619180.7160144,-2.0,0.0,-1.0,-1.0,-2.0,0.0,-1.0,-1.0
1701619180.7160144,-1.0,-2.0,-2.0,-1.0,0.0,-2.0,-2.0,-1.0
1701619180.7160144,-1.0,-3.0,0.0,-1.0,0.0,-2.0,-1.0,-1.0
1701619180.7160144,0.0,-2.0,0.0,0.0,-2.0,-1.0,0.0,-1.0
1701619180.7160144,-1.0,-1.0,-1.0,0.0,0.0,-1.0,-1.0,0.0
1701619180.726038,1.0,-1.0,-1.0,-1.0,-1.0,-1.0,-1.0,-1.0
1701619180.726038,0.0,-1.0,-1.0,-1.0,-2.0,-1.0,-2.0,-2.0
1701619180.7362792,-3.0,-2.0,-1.0,1.0,-1.0,-1.0,-1.0,-1.0
1701619180.7362792,1.0,1.0,0.0,0.0,-2.0,-2.0,-1.0,-1.0
1701619180.7460618,-1.0,-2.0,-1.0,-2.0,0.0,0.0,-2.0,-1.0
1701619180.7460618,0.0,-1.0,-1.0,0.0,1.0,-1.0,-1.0,-1.0
1701619180.7560444,0.0,-2.0,-1.0,-1.0,-1.0,0.0,-1.0,-1.0
1701619180.7560444,-1.0,-2.0,1.0,-2.0,-1.0,-1.0,-1.0,-1.0
1701619180.7860115,-1.0,-1.0,-1.0,0.0,-2.0,-1.0,0.0,0.0
1701619180.7860115,-3.0,-1.0,-3.0,-2.0,0.0,0.0,2.0,0.0
1701619180.7860115,-1.0,1.0,-1.0,-1.0,0.0,1.0,1.0,-2.0
1701619180.7860115,0.0,-1.0,-2.0,0.0,-1.0,-1.0,1.0,-2.0
1701619180.7860115,-1.0,0.0,-3.0,-2.0,-1.0,-1.0,-2.0,-3.0
1701619180.7860115,-1.0,-1.0,0.0,-3.0,-2.0,-1.0,-1.0,-1.0
1701619180.8060145,-1.0,1.0,0.0,0.0,-1.0,-2.0,-2.0,-1.0
1701619180.8060145,0.0,1.0,-1.0,-1.0,-2.0,0.0,-2.0,-1.0
1701619180.8060145,-1.0,2.0,0.0,0.0,-2.0,-1.0,-2.0,-2.0
1701619180.8060145,-3.0,2.0,-3.0,-1.0,-2.0,-1.0,-2.0,-2.0
1701619180.8160117,-2.0,1.0,-2.0,-2.0,0.0,0.0,-2.0,-2.0
1701619180.8160117,-2.0,3.0,-2.0,-1.0,-1.0,2.0,-2.0,-1.0
1701619180.8360226,-1.0,4.0,-2.0,-2.0,-1.0,0.0,-2.0,-2.0
1701619180.8360226,-3.0,3.0,-1.0,-1.0,-1.0,0.0,-3.0,-3.0
1701619180.8360226,-3.0,2.0,-2.0,-1.0,-1.0,-1.0,-1.0,-3.0
1701619180.8360226,-3.0,1.0,-2.0,-1.0,0.0,0.0,-1.0,-1.0
1701619180.8463168,-3.0,0.0,-2.0,-3.0,-1.0,1.0,1.0,-2.0
1701619180.8463168,-2.0,0.0,0.0,-1.0,0.0,0.0,0.0,-2.0
1701619180.8562696,-1.0,-4.0,-2.0,-1.0,-2.0,1.0,0.0,-1.0
1701619180.8562696,-1.0,-4.0,-3.0,-1.0,-1.0,-2.0,-1.0,0.0
1701619180.8860154,-2.0,-4.0,0.0,0.0,-1.0,-1.0,1.0,-1.0
1701619180.8860154,0.0,-5.0,1.0,0.0,-1.0,-3.0,2.0,-1.0
1701619180.8860154,0.0,-5.0,-1.0,0.0,-2.0,-3.0,-1.0,1.0
1701619180.8860154,-1.0,-5.0,0.0,-1.0,-1.0,-2.0,-1.0,-1.0
1701619180.8960216,0.0,-4.0,0.0,-3.0,-1.0,-2.0,0.0,0.0
1701619180.8960216,0.0,-4.0,0.0,-1.0,-2.0,-2.0,1.0,0.0
1701619180.8960216,1.0,-3.0,1.0,-1.0,0.0,-1.0,-1.0,1.0
1701619180.8960216,0.0,-4.0,-1.0,-1.0,0.0,-2.0,-1.0,0.0
1701619180.9063308,0.0,-3.0,-1.0,0.0,-1.0,0.0,-2.0,-1.0
1701619180.9063308,1.0,-5.0,-3.0,-1.0,-2.0,-2.0,1.0,0.0
1701619180.9162734,0.0,-3.0,-1.0,-2.0,-2.0,-2.0,1.0,-1.0
1701619180.9162734,0.0,1.0,-3.0,-1.0,0.0,1.0,0.0,-1.0
1701619180.9460146,-2.0,-2.0,0.0,0.0,-1.0,-3.0,-2.0,-1.0
1701619180.9460146,0.0,0.0,-1.0,-1.0,0.0,0.0,-1.0,-1.0
1701619180.9460146,-2.0,-17.0,-4.0,-2.0,0.0,-3.0,0.0,0.0
1701619180.9460146,0.0,7.0,0.0,0.0,-2.0,-1.0,-2.0,0.0
1701619180.956022,-1.0,-1.0,0.0,0.0,0.0,-2.0,0.0,-1.0
1701619180.956022,-3.0,-3.0,0.0,-2.0,0.0,-1.0,-1.0,-1.0
1701619180.956022,-5.0,-34.0,-2.0,-1.0,1.0,0.0,0.0,-2.0
1701619180.956022,0.0,-3.0,-2.0,-2.0,-2.0,0.0,-1.0,1.0
1701619180.966055,-5.0,9.0,0.0,1.0,1.0,-1.0,-3.0,-3.0
1701619180.966055,4.0,-18.0,-2.0,-2.0,-2.0,-2.0,-4.0,-1.0
1701619180.976359,2.0,7.0,-3.0,0.0,-3.0,1.0,0.0,0.0
1701619180.976359,-4.0,-1.0,1.0,1.0,0.0,1.0,1.0,-2.0
1701619181.0064013,-9.0,20.0,12.0,4.0,1.0,3.0,3.0,0.0
1701619181.0064013,0.0,0.0,2.0,-2.0,-1.0,0.0,1.0,2.0
1701619181.0064013,-1.0,11.0,1.0,-1.0,1.0,-1.0,0.0,-1.0
1701619181.0064013,1.0,0.0,-1.0,0.0,-1.0,0.0,0.0,-1.0
1701619181.016015,6.0,28.0,-2.0,-1.0,0.0,0.0,2.0,0.0
1701619181.016015,1.0,31.0,-2.0,1.0,0.0,0.0,-2.0,-2.0
1701619181.016015,-2.0,9.0,1.0,0.0,-1.0,0.0,-2.0,-1.0
1701619181.016015,-3.0,3.0,-2.0,0.0,1.0,-1.0,-2.0,-2.0
1701619181.026038,-2.0,-11.0,1.0,-3.0,-1.0,-3.0,0.0,0.0
1701619181.026038,-4.0,-5.0,-5.0,0.0,-2.0,0.0,-3.0,-1.0
1701619181.0362625,3.0,-1.0,-3.0,-4.0,-3.0,-3.0,-2.0,-1.0
1701619181.0362625,3.0,46.0,7.0,1.0,1.0,-1.0,-2.0,-1.0
1701619181.0560133,-1.0,-22.0,-5.0,-2.0,-4.0,-2.0,-3.0,-1.0
1701619181.0560133,0.0,-4.0,0.0,1.0,2.0,0.0,-2.0,-2.0
1701619181.0560133,-2.0,-9.0,0.0,1.0,-2.0,-1.0,-1.0,-1.0
1701619181.0560133,-1.0,-26.0,-3.0,-2.0,0.0,-4.0,-2.0,1.0
1701619181.0761142,4.0,-14.0,-14.0,-10.0,-5.0,-6.0,-4.0,-2.0
1701619181.0761142,-14.0,0.0,6.0,2.0,1.0,1.0,0.0,-2.0
1701619181.0761142,-2.0,14.0,3.0,-2.0,0.0,0.0,-3.0,-2.0
1701619181.0761142,-2.0,-12.0,2.0,0.0,-1.0,-1.0,-1.0,-1.0
1701619181.0960813,5.0,43.0,-2.0,0.0,0.0,-1.0,0.0,2.0
1701619181.0960813,3.0,-55.0,-16.0,-5.0,-4.0,-5.0,-4.0,-4.0
1701619181.0960813,0.0,7.0,1.0,1.0,2.0,-2.0,0.0,-1.0
1701619181.0960813,-2.0,1.0,1.0,-1.0,-2.0,-1.0,-1.0,-1.0
1701619181.1060865,-1.0,-21.0,-4.0,-2.0,-4.0,0.0,-2.0,-2.0
1701619181.1060865,1.0,1.0,-2.0,0.0,-1.0,3.0,-2.0,-2.0
1701619181.1264029,-4.0,-10.0,-3.0,1.0,-1.0,1.0,-2.0,-1.0
1701619181.1264029,1.0,4.0,-5.0,-3.0,-3.0,-1.0,-2.0,-1.0
1701619181.1369827,-4.0,-7.0,-3.0,0.0,1.0,3.0,1.0,-3.0
1701619181.1369827,-1.0,24.0,3.0,0.0,0.0,1.0,1.0,0.0
1701619181.1379838,-1.0,5.0,-2.0,-2.0,-2.0,1.0,-1.0,-3.0
1701619181.1379838,-5.0,-8.0,-1.0,-2.0,0.0,2.0,0.0,-2.0
1701619181.1562698,-3.0,-7.0,-5.0,0.0,-1.0,1.0,-1.0,-1.0
1701619181.1562698,-3.0,15.0,2.0,-2.0,-2.0,1.0,1.0,0.0
1701619181.1572702,-1.0,6.0,1.0,0.0,-1.0,0.0,1.0,0.0
1701619181.1572702,-6.0,3.0,-5.0,-2.0,-1.0,1.0,1.0,-2.0
1701619181.1688223,-3.0,-1.0,0.0,0.0,-1.0,-1.0,1.0,-1.0
1701619181.1688223,1.0,6.0,-1.0,0.0,-2.0,-2.0,3.0,0.0
1701619181.1791577,1.0,2.0,0.0,-1.0,-2.0,-3.0,1.0,0.0
1701619181.1791577,0.0,-8.0,0.0,0.0,0.0,1.0,1.0,-3.0
1701619181.1891782,-2.0,-14.0,0.0,-2.0,-1.0,-2.0,-2.0,-1.0
1701619181.1891782,-1.0,-2.0,1.0,-2.0,0.0,-3.0,-3.0,-1.0
1701619181.1891782,0.0,-6.0,-1.0,-2.0,-1.0,-1.0,-1.0,-1.0
1701619181.1891782,0.0,-12.0,-1.0,0.0,-2.0,-3.0,-3.0,-2.0
1701619181.2291756,-1.0,-9.0,1.0,0.0,-1.0,-1.0,-4.0,-2.0
1701619181.2291756,1.0,-8.0,0.0,0.0,-2.0,-2.0,-2.0,0.0
1701619181.2291756,1.0,-2.0,0.0,0.0,-2.0,-3.0,-3.0,-1.0
1701619181.2291756,-1.0,-9.0,-1.0,-3.0,0.0,-2.0,-3.0,0.0
1701619181.2291756,0.0,-9.0,1.0,0.0,-2.0,-3.0,-4.0,1.0
1701619181.2291756,1.0,-2.0,1.0,-2.0,-1.0,-2.0,-2.0,-1.0
1701619181.2393482,1.0,-5.0,-2.0,-2.0,-1.0,-2.0,-2.0,0.0
1701619181.2393482,2.0,-7.0,-3.0,-1.0,-3.0,-2.0,-2.0,0.0
1701619181.2493553,1.0,-4.0,1.0,0.0,1.0,-2.0,0.0,0.0
1701619181.2493553,1.0,-2.0,-1.0,-1.0,-2.0,-3.0,-1.0,1.0
1701619181.2493553,0.0,0.0,-1.0,-1.0,-2.0,-1.0,-2.0,1.0
1701619181.2493553,1.0,-4.0,-1.0,-1.0,-1.0,-3.0,2.0,1.0
1701619181.279174,1.0,1.0,-1.0,-1.0,-1.0,-1.0,0.0,-3.0
1701619181.279174,-1.0,3.0,0.0,1.0,-1.0,0.0,-3.0,-1.0
1701619181.279174,0.0,1.0,0.0,-2.0,-1.0,0.0,-1.0,0.0
1701619181.279174,0.0,-1.0,-1.0,-1.0,-1.0,-1.0,-2.0,0.0
1701619181.289401,2.0,-1.0,-2.0,-2.0,-2.0,0.0,-1.0,1.0
1701619181.289401,0.0,2.0,-1.0,0.0,0.0,-1.0,-2.0,-1.0
1701619181.2994187,-2.0,0.0,0.0,0.0,0.0,1.0,0.0,0.0
1701619181.2994187,-2.0,2.0,-2.0,0.0,0.0,0.0,0.0,-1.0
1701619181.3291788,-2.0,-1.0,-1.0,-1.0,0.0,1.0,0.0,0.0
1701619181.3291788,-2.0,0.0,-2.0,-2.0,-2.0,1.0,-1.0,0.0
1701619181.3291788,-2.0,-1.0,-2.0,-1.0,-1.0,1.0,-1.0,0.0
1701619181.3291788,0.0,-1.0,-1.0,-1.0,-1.0,-1.0,-1.0,0.0
1701619181.3291788,-1.0,-1.0,0.0,-1.0,-1.0,0.0,-1.0,-1.0
1701619181.3291788,0.0,4.0,-1.0,-2.0,-1.0,-2.0,-2.0,-1.0
1701619181.3291788,-2.0,0.0,-2.0,-1.0,0.0,-3.0,0.0,-3.0
1701619181.3291788,-2.0,0.0,0.0,-2.0,-1.0,-1.0,-2.0,-3.0
1701619181.3493795,-1.0,0.0,-1.0,-1.0,1.0,0.0,0.0,-1.0
1701619181.3493795,-1.0,1.0,-1.0,-1.0,0.0,-2.0,1.0,-1.0
1701619181.379175,-2.0,-2.0,-1.0,-1.0,-1.0,0.0,-1.0,-2.0
1701619181.379175,0.0,-2.0,0.0,-1.0,-1.0,-1.0,-1.0,0.0
1701619181.379175,-1.0,-1.0,-1.0,0.0,-1.0,0.0,-2.0,0.0
1701619181.379175,-1.0,1.0,0.0,0.0,0.0,-1.0,-1.0,-2.0
1701619181.379175,0.0,0.0,-2.0,-1.0,1.0,-1.0,0.0,0.0
1701619181.379175,-1.0,1.0,-1.0,0.0,-1.0,-1.0,-1.0,-2.0
1701619181.3894498,-3.0,1.0,-1.0,0.0,-1.0,0.0,-2.0,0.0
1701619181.3894498,-1.0,1.0,1.0,-1.0,-1.0,-1.0,-1.0,-2.0
1701619181.41952,-1.0,-1.0,0.0,1.0,-3.0,0.0,-1.0,-2.0
1701619181.41952,-1.0,-1.0,-2.0,0.0,-1.0,0.0,-1.0,0.0
1701619181.41952,-3.0,-1.0,-2.0,-1.0,-1.0,-1.0,-1.0,-2.0
1701619181.41952,-2.0,-2.0,-1.0,-1.0,0.0,-1.0,1.0,-2.0
1701619181.41952,-1.0,1.0,-1.0,-1.0,0.0,0.0,-3.0,-1.0
1701619181.41952,-1.0,0.0,-3.0,0.0,-2.0,0.0,-1.0,0.0
1701619181.4291973,-1.0,3.0,0.0,0.0,-2.0,1.0,-1.0,-2.0
1701619181.4291973,0.0,2.0,-2.0,0.0,-3.0,1.0,-1.0,-2.0
1701619181.4394236,0.0,0.0,-1.0,-2.0,-2.0,1.0,-1.0,-2.0
1701619181.4394236,-2.0,1.0,0.0,-2.0,-1.0,0.0,-1.0,-1.0
1701619181.4494958,0.0,1.0,-1.0,-1.0,-1.0,-1.0,-1.0,0.0
1701619181.4494958,-1.0,0.0,-1.0,-1.0,0.0,1.0,-1.0,-2.0
1701619181.4494958,-1.0,0.0,-1.0,0.0,-1.0,-1.0,-2.0,0.0
1701619181.4494958,-2.0,-3.0,-1.0,0.0,-1.0,-2.0,-1.0,-2.0
1701619181.469461,-1.0,-4.0,-2.0,0.0,0.0,-1.0,-1.0,-2.0
1701619181.469461,-2.0,-2.0,-1.0,-2.0,-1.0,-1.0,-1.0,0.0
1701619181.4791746,-2.0,-3.0,-1.0,-1.0,-1.0,-1.0,-1.0,-1.0
1701619181.4791746,-3.0,-1.0,0.0,-1.0,0.0,-1.0,-1.0,-1.0
1701619181.4891741,-2.0,-4.0,-2.0,-1.0,-1.0,-3.0,0.0,-2.0
1701619181.4891741,0.0,-3.0,-2.0,1.0,-2.0,-2.0,-1.0,1.0
1701619181.4994864,0.0,-2.0,-2.0,1.0,-1.0,-2.0,-1.0,-2.0
1701619181.4994864,0.0,-3.0,0.0,-1.0,-1.0,-2.0,-2.0,-1.0
1701619181.5195549,0.0,-2.0,-2.0,-2.0,-1.0,-2.0,-1.0,-2.0
1701619181.5195549,1.0,-4.0,0.0,-1.0,-3.0,-1.0,-2.0,1.0
1701619181.5195549,-1.0,-3.0,0.0,-2.0,0.0,-3.0,-1.0,-1.0
1701619181.5195549,0.0,-4.0,-2.0,-1.0,0.0,-2.0,-2.0,-1.0
1701619181.5294323,0.0,-2.0,1.0,0.0,-1.0,-1.0,-1.0,1.0
1701619181.5294323,0.0,-4.0,-2.0,-1.0,-1.0,-1.0,-1.0,-1.0
1701619181.539178,0.0,-3.0,-1.0,-2.0,-1.0,-1.0,-1.0,0.0
1701619181.539178,0.0,-3.0,-2.0,-2.0,-1.0,0.0,0.0,0.0
1701619181.549209,-1.0,-1.0,3.0,3.0,0.0,-2.0,-2.0,-1.0
1701619181.549209,-1.0,-2.0,-4.0,-4.0,-1.0,0.0,-1.0,0.0
1701619181.5595062,-1.0,-2.0,-1.0,0.0,0.0,0.0,-2.0,-2.0
1701619181.5595062,0.0,0.0,0.0,-2.0,-2.0,0.0,-2.0,-2.0
1701619181.569545,-1.0,0.0,-2.0,0.0,-2.0,0.0,0.0,1.0
1701619181.569545,-1.0,2.0,1.0,1.0,-1.0,0.0,-1.0,0.0
1701619181.5791767,-1.0,3.0,-2.0,-1.0,-1.0,-2.0,1.0,-1.0
1701619181.5791767,0.0,1.0,-2.0,-2.0,-2.0,-1.0,-1.0,-1.0
1701619181.5891774,2.0,-1.0,-3.0,-2.0,0.0,0.0,-3.0,-1.0
1701619181.5891774,-3.0,-2.0,-1.0,1.0,0.0,-2.0,-1.0,0.0
1701619181.5994818,-1.0,-2.0,-1.0,-1.0,-1.0,-2.0,-1.0,-2.0
1701619181.5994818,0.0,-1.0,1.0,0.0,-1.0,-2.0,-2.0,0.0
1701619181.6191754,-1.0,-2.0,-2.0,-1.0,-2.0,1.0,-1.0,0.0
1701619181.6191754,1.0,-3.0,0.0,1.0,1.0,-1.0,-3.0,-2.0
1701619181.649177,-2.0,-3.0,-1.0,0.0,0.0,-1.0,-1.0,-1.0
1701619181.649177,-1.0,-3.0,-1.0,0.0,-2.0,0.0,0.0,-1.0
1701619181.649177,1.0,-2.0,-3.0,-3.0,-1.0,-2.0,-1.0,-1.0
1701619181.649177,0.0,-2.0,-2.0,-1.0,-1.0,-2.0,2.0,0.0
1701619181.649177,0.0,1.0,-1.0,-1.0,-1.0,-1.0,0.0,0.0
1701619181.649177,0.0,0.0,-2.0,-1.0,-1.0,-1.0,-1.0,-1.0
1701619181.6594212,-2.0,0.0,0.0,-2.0,-1.0,-2.0,0.0,-2.0
1701619181.6594212,0.0,1.0,-2.0,-1.0,-2.0,-2.0,0.0,-2.0
1701619181.6594212,-2.0,1.0,0.0,0.0,-1.0,-3.0,-2.0,-1.0
1701619181.6594212,-2.0,0.0,-4.0,-1.0,0.0,-2.0,-2.0,0.0
1701619181.675172,-1.0,2.0,-2.0,0.0,0.0,-2.0,-1.0,-1.0
1701619181.675172,-1.0,1.0,-1.0,-1.0,-1.0,-1.0,-1.0,-2.0
1701619181.682882,-1.0,1.0,-3.0,1.0,-1.0,1.0,-2.0,-2.0
1701619181.682882,-3.0,-1.0,0.0,-1.0,-2.0,1.0,-2.0,-5.0
1701619181.701802,-1.0,0.0,-1.0,-2.0,-2.0,0.0,-1.0,-1.0
1701619181.701802,-2.0,1.0,0.0,-1.0,-1.0,-1.0,-2.0,-1.0
1701619181.701802,-1.0,-1.0,-1.0,0.0,0.0,-1.0,-1.0,-3.0
1701619181.701802,-1.0,-1.0,-2.0,1.0,-3.0,-2.0,-2.0,1.0
1701619181.7120597,-2.0,-3.0,-2.0,-2.0,0.0,-2.0,-1.0,-1.0
1701619181.7120597,-2.0,-2.0,-1.0,0.0,-1.0,-2.0,-3.0,-1.0
1701619181.721806,0.0,-3.0,0.0,-2.0,-2.0,-1.0,-1.0,0.0
1701619181.721806,-1.0,-3.0,1.0,0.0,0.0,-1.0,-2.0,-1.0
1701619181.741804,-1.0,-2.0,1.0,-1.0,-2.0,-1.0,-2.0,1.0
1701619181.741804,-1.0,-3.0,-1.0,0.0,0.0,-2.0,-3.0,0.0
1701619181.741804,-1.0,-2.0,0.0,-1.0,-1.0,-1.0,-2.0,1.0
1701619181.741804,-2.0,-3.0,-2.0,-1.0,-2.0,-1.0,-1.0,-1.0
1701619181.7519064,-1.0,-4.0,-2.0,-1.0,-1.0,-1.0,-1.0,-1.0
1701619181.7519064,-1.0,-3.0,-2.0,0.0,-1.0,0.0,-1.0,-1.0
1701619181.7519064,0.0,-3.0,0.0,-1.0,-1.0,0.0,-4.0,-2.0
1701619181.7519064,0.0,-2.0,0.0,0.0,0.0,-2.0,-3.0,-1.0
1701619181.7718728,-1.0,-2.0,0.0,-2.0,-1.0,-3.0,-2.0,0.0
1701619181.7718728,1.0,-5.0,0.0,-1.0,0.0,0.0,-4.0,-1.0
1701619181.801803,0.0,-3.0,-2.0,-2.0,0.0,0.0,0.0,-1.0
1701619181.801803,1.0,-4.0,-1.0,1.0,-1.0,-1.0,1.0,1.0
1701619181.801803,-2.0,-1.0,-2.0,-1.0,-1.0,2.0,5.0,0.0
1701619181.801803,0.0,-1.0,-1.0,-2.0,-2.0,-2.0,10.0,-1.0
1701619181.801803,-1.0,0.0,0.0,1.0,-1.0,-1.0,11.0,1.0
1701619181.801803,-2.0,4.0,-1.0,-1.0,0.0,-1.0,8.0,-2.0
1701619181.812197,0.0,5.0,-1.0,1.0,-1.0,-1.0,7.0,-2.0
1701619181.812197,-2.0,5.0,-1.0,-1.0,-1.0,0.0,6.0,-4.0
1701619181.812197,-2.0,5.0,-1.0,-3.0,-1.0,-1.0,7.0,-3.0
1701619181.812197,-1.0,4.0,-3.0,1.0,-3.0,-2.0,4.0,-4.0
1701619181.8318028,-2.0,3.0,0.0,0.0,-1.0,-2.0,-7.0,-2.0
1701619181.8318028,-3.0,1.0,-2.0,-1.0,0.0,-3.0,-18.0,-2.0
1701619181.8318028,-4.0,-2.0,-1.0,0.0,-2.0,-4.0,-21.0,-1.0
1701619181.8318028,-3.0,1.0,-1.0,-2.0,-1.0,-1.0,-16.0,0.0
1701619181.8520577,-2.0,2.0,-1.0,0.0,0.0,0.0,-6.0,-1.0
1701619181.8520577,-1.0,5.0,1.0,-2.0,-1.0,0.0,2.0,-4.0
1701619181.891803,-3.0,5.0,-6.0,-5.0,-1.0,3.0,5.0,-2.0
1701619181.891803,-3.0,4.0,-5.0,-4.0,-3.0,2.0,-4.0,-4.0
1701619181.891803,-3.0,0.0,2.0,1.0,-1.0,2.0,-10.0,-4.0
1701619181.891803,-3.0,0.0,-6.0,-2.0,-1.0,2.0,-13.0,0.0
1701619181.891803,-2.0,0.0,3.0,2.0,1.0,2.0,-10.0,-2.0
1701619181.891803,-2.0,0.0,-3.0,-2.0,-1.0,2.0,-2.0,-3.0
1701619181.891803,0.0,-1.0,0.0,-2.0,0.0,0.0,4.0,-3.0
1701619181.891803,-2.0,-1.0,2.0,-1.0,-1.0,2.0,6.0,-3.0
1701619181.891803,-2.0,-5.0,-5.0,-4.0,-2.0,-2.0,5.0,-4.0
1701619181.891803,-1.0,-10.0,-1.0,-1.0,-1.0,-2.0,6.0,-2.0
1701619181.9218044,0.0,-11.0,8.0,4.0,-2.0,-3.0,4.0,-1.0
1701619181.9218044,2.0,-15.0,-7.0,-8.0,-3.0,-3.0,3.0,0.0
1701619181.9218044,1.0,-13.0,3.0,1.0,-1.0,-5.0,1.0,2.0
1701619181.9218044,2.0,-12.0,0.0,-2.0,0.0,-4.0,-1.0,1.0
1701619181.9318025,2.0,-9.0,-2.0,-2.0,-2.0,-4.0,0.0,-1.0
1701619181.9318025,1.0,-7.0,2.0,2.0,0.0,-2.0,-1.0,4.0
1701619181.9318025,1.0,-6.0,-3.0,-1.0,-2.0,-3.0,-4.0,4.0
1701619181.9318025,3.0,-2.0,1.0,1.0,0.0,-1.0,-2.0,3.0
1701619181.9618115,2.0,-1.0,-3.0,-1.0,-2.0,-2.0,-1.0,3.0
1701619181.9618115,1.0,2.0,-2.0,0.0,-1.0,-3.0,-2.0,1.0
1701619181.9618115,2.0,0.0,-2.0,0.0,0.0,-2.0,-1.0,0.0
1701619181.9618115,1.0,-2.0,0.0,0.0,0.0,-2.0,-1.0,-2.0
1701619181.9720433,1.0,-5.0,-4.0,-3.0,-1.0,-2.0,-5.0,-2.0
1701619181.9720433,0.0,-8.0,0.0,-1.0,0.0,-4.0,-3.0,-3.0
1701619181.9819088,1.0,-11.0,2.0,1.0,-1.0,-2.0,5.0,0.0
1701619181.9819088,1.0,-9.0,-1.0,0.0,-1.0,-4.0,17.0,2.0
1701619182.0018017,1.0,-2.0,-2.0,-4.0,-1.0,-3.0,33.0,6.0
1701619182.0018017,2.0,3.0,0.0,0.0,0.0,-2.0,36.0,9.0
1701619182.0018017,0.0,12.0,-1.0,-1.0,1.0,0.0,23.0,12.0
1701619182.0018017,-1.0,19.0,-3.0,-1.0,1.0,3.0,-2.0,11.0
1701619182.0121758,-4.0,28.0,-7.0,-2.0,-1.0,5.0,-29.0,4.0
1701619182.0121758,-5.0,37.0,-3.0,0.0,0.0,8.0,-39.0,-6.0
1701619182.0121758,-7.0,41.0,-6.0,1.0,-1.0,11.0,-35.0,-17.0
1701619182.0121758,-11.0,44.0,-4.0,0.0,-4.0,9.0,-22.0,-22.0
1701619182.032164,-12.0,18.0,-8.0,-2.0,-2.0,7.0,-13.0,-24.0
1701619182.032164,-10.0,23.0,-2.0,-4.0,-3.0,6.0,-6.0,-21.0
1701619182.04185,-9.0,1.0,0.0,-3.0,-1.0,2.0,-4.0,-16.0
1701619182.04185,-5.0,-9.0,0.0,-2.0,-3.0,-3.0,-1.0,-12.0
1701619182.0518024,-7.0,-39.0,1.0,-4.0,-2.0,-6.0,-1.0,-6.0
1701619182.0518024,-2.0,-28.0,4.0,-2.0,-2.0,-7.0,3.0,1.0
1701619182.0518024,0.0,-34.0,2.0,-2.0,-2.0,-8.0,2.0,2.0
1701619182.0518024,-1.0,-61.0,1.0,-1.0,-1.0,-8.0,2.0,6.0
1701619182.0721977,5.0,-26.0,0.0,-2.0,-2.0,-6.0,2.0,7.0
1701619182.0721977,2.0,-25.0,2.0,-1.0,-1.0,-6.0,3.0,9.0
1701619182.0721977,5.0,-12.0,4.0,0.0,-2.0,-5.0,2.0,8.0
1701619182.0721977,1.0,-16.0,-2.0,-3.0,-1.0,-4.0,1.0,7.0
1701619182.1018019,2.0,-8.0,0.0,2.0,0.0,-4.0,2.0,6.0
1701619182.1018019,2.0,-36.0,-4.0,-1.0,-2.0,-4.0,1.0,2.0
1701619182.1018019,4.0,-7.0,0.0,1.0,1.0,-4.0,1.0,4.0
1701619182.1018019,3.0,3.0,12.0,6.0,-1.0,-3.0,-1.0,2.0
1701619182.1121302,1.0,4.0,-10.0,-3.0,1.0,-3.0,0.0,3.0
1701619182.1121302,2.0,1.0,-3.0,0.0,0.0,-3.0,-1.0,1.0
1701619182.1121302,1.0,-6.0,-1.0,2.0,-2.0,0.0,-2.0,1.0
1701619182.1121302,3.0,-3.0,-1.0,-2.0,0.0,-1.0,-3.0,0.0
1701619182.1321995,2.0,2.0,11.0,2.0,-1.0,-2.0,0.0,3.0
1701619182.1321995,2.0,-1.0,9.0,4.0,1.0,-2.0,-1.0,3.0
1701619182.1321995,2.0,-9.0,-25.0,-12.0,-1.0,-3.0,-1.0,1.0
1701619182.1321995,3.0,-2.0,2.0,1.0,-1.0,-2.0,-1.0,3.0
1701619182.161803,3.0,-9.0,5.0,2.0,0.0,-3.0,-1.0,2.0
1701619182.161803,2.0,-4.0,-6.0,-3.0,0.0,-4.0,0.0,2.0
1701619182.161803,1.0,-1.0,11.0,5.0,1.0,-3.0,3.0,0.0
1701619182.161803,1.0,9.0,-4.0,-2.0,0.0,1.0,4.0,-6.0
1701619182.1718097,0.0,18.0,-5.0,-1.0,-2.0,2.0,3.0,-11.0
1701619182.1718097,-2.0,28.0,2.0,2.0,1.0,5.0,-2.0,-14.0
1701619182.1820521,-4.0,27.0,0.0,1.0,-1.0,5.0,-6.0,-14.0
1701619182.1820521,-4.0,26.0,-9.0,-1.0,0.0,4.0,-8.0,-8.0
1701619182.1920772,-5.0,24.0,-4.0,4.0,0.0,6.0,-9.0,-4.0
1701619182.1920772,-6.0,23.0,-4.0,-1.0,-2.0,5.0,-7.0,-1.0
1701619182.1920772,-8.0,21.0,4.0,3.0,0.0,3.0,-4.0,4.0
1701619182.1920772,-6.0,21.0,3.0,0.0,-1.0,2.0,-1.0,3.0
1701619182.217674,-7.0,18.0,-34.0,-13.0,-4.0,4.0,1.0,2.0
1701619182.217674,-5.0,19.0,-5.0,0.0,-1.0,3.0,5.0,-1.0
1701619182.223642,-6.0,14.0,14.0,5.0,-2.0,3.0,9.0,-4.0
1701619182.223642,-10.0,8.0,-13.0,-10.0,-5.0,1.0,10.0,-6.0
1701619182.2545667,-5.0,5.0,12.0,4.0,0.0,1.0,3.0,-5.0
1701619182.2545667,-5.0,-1.0,-5.0,-5.0,-1.0,1.0,-1.0,-3.0
1701619182.2545667,-3.0,-4.0,-4.0,0.0,0.0,1.0,2.0,-1.0
1701619182.2545667,-3.0,-7.0,2.0,-1.0,0.0,0.0,5.0,-1.0
1701619182.2545667,-3.0,-11.0,6.0,-2.0,-2.0,-3.0,4.0,0.0
1701619182.2545667,-3.0,-15.0,4.0,5.0,-2.0,-4.0,4.0,2.0
1701619182.2545667,-2.0,-20.0,-3.0,-7.0,-2.0,-5.0,-3.0,2.0
1701619182.2545667,2.0,-24.0,0.0,-1.0,0.0,-5.0,-7.0,5.0
1701619182.2750046,2.0,-27.0,1.0,-2.0,-1.0,-9.0,-9.0,2.0
1701619182.2750046,1.0,-26.0,6.0,2.0,-2.0,-8.0,-8.0,1.0
1701619182.2750046,4.0,-26.0,-2.0,-3.0,0.0,-8.0,-7.0,1.0
1701619182.2750046,4.0,-23.0,-2.0,-3.0,-2.0,-8.0,-8.0,1.0
1701619182.294939,5.0,-15.0,13.0,7.0,2.0,-4.0,-6.0,3.0
1701619182.294939,5.0,-12.0,1.0,-3.0,-2.0,-4.0,-3.0,3.0
1701619182.294939,4.0,-12.0,-3.0,-7.0,-2.0,-2.0,-3.0,1.0
1701619182.294939,3.0,-6.0,5.0,5.0,0.0,-4.0,-3.0,3.0
1701619182.3049603,1.0,-5.0,-12.0,-9.0,-2.0,-3.0,-1.0,0.0
1701619182.3049603,2.0,-1.0,2.0,2.0,-1.0,-3.0,0.0,1.0
1701619182.3145695,1.0,1.0,-5.0,-1.0,0.0,-1.0,2.0,-1.0
1701619182.3145695,2.0,4.0,2.0,1.0,-1.0,0.0,2.0,1.0
1701619182.3345697,0.0,5.0,4.0,3.0,-1.0,0.0,3.0,0.0
1701619182.3345697,-1.0,2.0,-7.0,-3.0,-1.0,-1.0,2.0,1.0
1701619182.3345697,0.0,4.0,-4.0,-1.0,-1.0,-1.0,-1.0,0.0
1701619182.3345697,1.0,3.0,0.0,2.0,-1.0,1.0,-2.0,0.0
1701619182.3549418,-1.0,2.0,-2.0,0.0,-3.0,0.0,-1.0,-1.0
1701619182.3549418,1.0,3.0,-4.0,-4.0,-2.0,0.0,-1.0,1.0
1701619182.364961,-1.0,4.0,1.0,2.0,0.0,-2.0,-1.0,0.0
1701619182.364961,-1.0,2.0,-3.0,-3.0,0.0,-1.0,-1.0,-1.0
1701619182.364961,-2.0,2.0,-3.0,-2.0,1.0,1.0,0.0,-1.0
1701619182.364961,0.0,5.0,-2.0,0.0,0.0,0.0,1.0,-2.0
1701619182.3745694,-3.0,4.0,0.0,-1.0,-1.0,2.0,-1.0,-1.0
1701619182.3745694,-3.0,4.0,-3.0,1.0,-1.0,0.0,-1.0,-3.0
1701619182.3945959,-1.0,4.0,0.0,-1.0,-1.0,0.0,0.0,-4.0
1701619182.3945959,-2.0,3.0,0.0,-1.0,-2.0,0.0,-2.0,-6.0
1701619182.3945959,-1.0,2.0,-3.0,-3.0,0.0,-1.0,-2.0,-4.0
1701619182.3945959,-2.0,1.0,-3.0,-4.0,-1.0,-1.0,-1.0,-4.0
1701619182.4150417,-1.0,1.0,4.0,1.0,-2.0,-1.0,-1.0,-2.0
1701619182.4150417,-2.0,0.0,-1.0,0.0,0.0,0.0,-2.0,-2.0
1701619182.4254174,1.0,0.0,-2.0,-1.0,-2.0,-1.0,-2.0,-1.0
1701619182.4254174,0.0,0.0,0.0,-2.0,-2.0,-2.0,-3.0,0.0
1701619182.4254174,-2.0,-1.0,-3.0,-1.0,-1.0,-1.0,0.0,2.0
1701619182.4254174,-1.0,0.0,-3.0,-2.0,-2.0,-2.0,-2.0,-1.0
1701619182.435055,-1.0,3.0,-1.0,0.0,-2.0,-2.0,-2.0,-1.0
1701619182.435055,-2.0,2.0,11.0,-1.0,0.0,2.0,0.0,-1.0
1701619182.4550533,-2.0,-1.0,-27.0,-5.0,-1.0,-2.0,0.0,-2.0
1701619182.4550533,-2.0,0.0,2.0,0.0,-2.0,0.0,0.0,-1.0
1701619182.4550533,-3.0,-1.0,-7.0,-1.0,-2.0,-2.0,0.0,0.0
1701619182.4550533,0.0,0.0,2.0,-1.0,0.0,0.0,1.0,-2.0
1701619182.4850922,0.0,3.0,8.0,1.0,-1.0,1.0,-1.0,-2.0
1701619182.4850922,-1.0,0.0,-3.0,-3.0,-1.0,1.0,1.0,-3.0
1701619182.4850922,-2.0,1.0,-1.0,-2.0,-1.0,0.0,-1.0,-1.0
1701619182.4850922,-2.0,3.0,-5.0,-2.0,-1.0,0.0,-1.0,0.0
1701619182.4952197,-2.0,3.0,1.0,0.0,-1.0,-2.0,-2.0,-2.0
1701619182.4952197,-2.0,2.0,-3.0,0.0,0.0,1.0,-1.0,-1.0
1701619182.4952197,-3.0,0.0,2.0,0.0,-2.0,1.0,0.0,0.0
1701619182.4952197,-2.0,0.0,-7.0,0.0,-3.0,0.0,-2.0,-1.0
1701619182.5159547,-2.0,-1.0,5.0,-1.0,-1.0,0.0,-1.0,-2.0
1701619182.5159547,-3.0,-1.0,1.0,-1.0,-1.0,-1.0,-2.0,-1.0
1701619182.5159547,-1.0,-2.0,-2.0,-2.0,-1.0,-1.0,-1.0,-1.0
1701619182.5159547,-1.0,-3.0,-2.0,-1.0,-2.0,-3.0,-1.0,-2.0
1701619182.5358102,-1.0,-3.0,2.0,0.0,-3.0,-1.0,0.0,-2.0
1701619182.5358102,-3.0,-5.0,-2.0,-2.0,-2.0,-2.0,-2.0,-1.0
1701619182.5454948,-2.0,-4.0,-1.0,0.0,-1.0,-1.0,-2.0,-2.0
1701619182.5454948,0.0,-7.0,-3.0,-2.0,-1.0,0.0,-1.0,0.0
1701619182.5554955,-1.0,-5.0,3.0,-1.0,-1.0,-3.0,0.0,-1.0
1701619182.5554955,0.0,-5.0,0.0,-1.0,0.0,-2.0,0.0,1.0
1701619182.5554955,0.0,-4.0,-1.0,-2.0,1.0,-2.0,-1.0,1.0
1701619182.5554955,0.0,-5.0,-2.0,1.0,-2.0,-2.0,-1.0,-1.0
1701619182.5754974,1.0,-5.0,0.0,-1.0,-1.0,-2.0,-2.0,1.0
1701619182.5754974,0.0,-3.0,-1.0,0.0,-2.0,-3.0,-2.0,-1.0
1701619182.5754974,1.0,-3.0,1.0,0.0,-2.0,-3.0,0.0,-1.0
1701619182.5754974,-1.0,-2.0,-2.0,-1.0,0.0,-1.0,0.0,-1.0
1701619182.595768,0.0,-1.0,0.0,0.0,-1.0,0.0,-1.0,0.0
1701619182.595768,2.0,1.0,-2.0,0.0,-2.0,-2.0,-1.0,0.0
1701619182.6254942,-1.0,0.0,0.0,-3.0,-1.0,-1.0,-1.0,-1.0
1701619182.6254942,0.0,-1.0,-1.0,0.0,-1.0,-2.0,-1.0,-2.0
1701619182.6254942,0.0,3.0,0.0,-1.0,-2.0,-1.0,-2.0,1.0
1701619182.6254942,-1.0,-3.0,-1.0,0.0,-1.0,0.0,-1.0,1.0
1701619182.6254942,-1.0,-2.0,0.0,-1.0,-1.0,-1.0,-3.0,-1.0
1701619182.6254942,-2.0,-16.0,-4.0,-2.0,-1.0,-1.0,-2.0,0.0
1701619182.6355014,0.0,2.0,0.0,-1.0,0.0,0.0,-1.0,-1.0
1701619182.6355014,-1.0,-2.0,-1.0,-2.0,-2.0,-1.0,0.0,-1.0
1701619182.6355014,-2.0,2.0,2.0,-1.0,-1.0,-1.0,0.0,0.0
1701619182.6355014,-2.0,1.0,-1.0,-1.0,-1.0,-1.0,-1.0,-3.0
1701619182.6558738,-1.0,-4.0,-2.0,0.0,-1.0,-1.0,-1.0,0.0
1701619182.6558738,-1.0,-3.0,-1.0,-2.0,0.0,-1.0,-3.0,-1.0
1701619182.6654947,-1.0,-4.0,-4.0,-1.0,0.0,0.0,1.0,0.0
1701619182.6654947,0.0,3.0,-1.0,0.0,0.0,-1.0,1.0,1.0
1701619182.6854935,-2.0,-1.0,2.0,0.0,-1.0,0.0,-1.0,0.0
1701619182.6854935,0.0,2.0,4.0,0.0,-1.0,0.0,-1.0,-2.0
1701619182.6854935,1.0,-3.0,-3.0,0.0,-1.0,-1.0,-1.0,-1.0
1701619182.6854935,-1.0,2.0,-2.0,-1.0,-1.0,-2.0,-1.0,-2.0
1701619182.695495,0.0,2.0,-3.0,-3.0,-2.0,-2.0,1.0,-1.0
1701619182.695495,0.0,1.0,2.0,0.0,0.0,0.0,-1.0,0.0
1701619182.695495,1.0,30.0,1.0,-4.0,-1.0,-2.0,-2.0,-1.0
1701619182.695495,-1.0,-1.0,2.0,3.0,-2.0,-2.0,-1.0,0.0
1701619182.7156665,-7.0,-36.0,3.0,0.0,0.0,-2.0,0.0,-3.0
1701619182.7156665,-4.0,9.0,-9.0,-8.0,-2.0,-1.0,0.0,0.0
1701619182.7254944,-1.0,-5.0,-1.0,2.0,-1.0,-1.0,-2.0,-1.0
1701619182.7254944,-4.0,1.0,2.0,1.0,-1.0,1.0,-1.0,1.0
1701619182.740506,-1.0,-3.0,-16.0,-6.0,-2.0,-2.0,-4.0,-1.0
1701619182.740506,3.0,-27.0,6.0,1.0,-3.0,-2.0,-1.0,-1.0
1701619182.7485242,-1.0,-5.0,-1.0,1.0,1.0,-1.0,-1.0,0.0
1701619182.7485242,0.0,0.0,3.0,-1.0,1.0,-2.0,-1.0,-2.0
1701619182.7554126,1.0,11.0,13.0,5.0,2.0,0.0,-1.0,-1.0
1701619182.7554126,-1.0,-1.0,-11.0,-3.0,-2.0,-3.0,-3.0,-2.0
1701619182.7675297,-1.0,-4.0,0.0,3.0,-2.0,-2.0,-1.0,-1.0
1701619182.7675297,2.0,2.0,-5.0,-4.0,1.0,-2.0,-2.0,-2.0
1701619182.7776947,0.0,-1.0,7.0,2.0,-2.0,-1.0,1.0,-1.0
1701619182.7776947,-1.0,4.0,1.0,0.0,-2.0,-2.0,0.0,-2.0
1701619182.7875319,-3.0,-9.0,2.0,-1.0,-1.0,-1.0,-3.0,-1.0
1701619182.7875319,0.0,1.0,0.0,0.0,-1.0,1.0,-1.0,0.0
1701619182.8078296,0.0,4.0,-6.0,-3.0,-1.0,-1.0,-1.0,-1.0
1701619182.8078296,-1.0,0.0,4.0,2.0,1.0,-1.0,-1.0,0.0
1701619182.8078296,-3.0,-3.0,-19.0,-2.0,-1.0,0.0,-3.0,-1.0
1701619182.8078296,-1.0,-4.0,0.0,-2.0,-1.0,-3.0,1.0,-1.0
1701619182.8078296,0.0,5.0,-7.0,-3.0,-1.0,-2.0,-2.0,-1.0
1701619182.8078296,-1.0,3.0,1.0,0.0,0.0,-1.0,0.0,0.0
1701619182.8177567,-2.0,-7.0,4.0,-1.0,0.0,-1.0,-1.0,0.0
1701619182.8177567,-2.0,1.0,-4.0,-3.0,-1.0,-1.0,-2.0,-2.0
1701619182.8377466,-3.0,0.0,-1.0,0.0,-2.0,0.0,-1.0,-2.0
1701619182.8377466,-1.0,1.0,2.0,0.0,1.0,0.0,-1.0,-1.0
1701619182.8377466,0.0,-3.0,-13.0,-4.0,-1.0,0.0,-2.0,-2.0
1701619182.8377466,0.0,-3.0,-1.0,-1.0,-2.0,-1.0,-3.0,-1.0
1701619182.8577945,0.0,1.0,0.0,-1.0,-1.0,-1.0,-6.0,0.0
1701619182.8577945,-2.0,-4.0,-5.0,-2.0,-2.0,1.0,-2.0,2.0
1701619182.8577945,0.0,-1.0,4.0,-1.0,-1.0,-1.0,3.0,-1.0
1701619182.8577945,0.0,0.0,-2.0,-1.0,-1.0,-1.0,3.0,-1.0
1701619182.8677785,0.0,-2.0,-3.0,-1.0,0.0,-2.0,8.0,-1.0
1701619182.8677785,-1.0,2.0,-2.0,-1.0,-1.0,-4.0,10.0,-3.0
1701619182.8776984,1.0,3.0,1.0,1.0,-1.0,-2.0,8.0,-1.0
1701619182.8776984,-2.0,6.0,-3.0,-1.0,-1.0,1.0,8.0,-2.0
1701619182.9075356,0.0,8.0,-1.0,-3.0,0.0,0.0,6.0,-2.0
1701619182.9075356,-4.0,6.0,-3.0,0.0,-1.0,1.0,0.0,-3.0
1701619182.9075356,-3.0,3.0,2.0,-1.0,0.0,-1.0,-7.0,-3.0
1701619182.9075356,-2.0,2.0,-2.0,0.0,-1.0,0.0,-10.0,-1.0
1701619182.9175322,-1.0,2.0,-4.0,-2.0,0.0,0.0,-14.0,-2.0
1701619182.9175322,-1.0,0.0,-1.0,0.0,-2.0,-2.0,-14.0,-1.0
1701619182.9175322,-1.0,-1.0,1.0,0.0,-1.0,1.0,-9.0,0.0
1701619182.9175322,-4.0,-1.0,-1.0,-1.0,-2.0,0.0,-8.0,2.0
1701619182.92753,-3.0,-3.0,0.0,-1.0,-2.0,0.0,-3.0,1.0
1701619182.92753,-2.0,-2.0,-3.0,-1.0,-2.0,0.0,-2.0,-3.0
1701619182.9378774,-1.0,-2.0,1.0,0.0,-1.0,0.0,1.0,-2.0
1701619182.9378774,-3.0,-3.0,1.0,-1.0,-1.0,-1.0,0.0,-2.0
1701619182.9575307,-2.0,-2.0,1.0,-1.0,-1.0,-2.0,1.0,-3.0
1701619182.9575307,0.0,-4.0,-2.0,-1.0,0.0,-1.0,0.0,-2.0
1701619182.9575307,-2.0,-3.0,-1.0,-3.0,-2.0,-1.0,2.0,-1.0
1701619182.9575307,0.0,-2.0,-1.0,-1.0,-2.0,-2.0,3.0,-2.0
1701619182.9778621,0.0,-2.0,-2.0,-2.0,-2.0,-1.0,2.0,0.0
1701619182.9778621,-1.0,0.0,-2.0,-2.0,-1.0,-2.0,1.0,0.0
1701619182.9778621,-1.0,-1.0,0.0,-2.0,0.0,-1.0,0.0,-1.0
1701619182.9778621,-1.0,-2.0,-1.0,-2.0,0.0,-1.0,0.0,-2.0
1701619183.0175314,-1.0,-2.0,0.0,1.0,-1.0,-2.0,-1.0,0.0
1701619183.0175314,1.0,-1.0,-3.0,-2.0,0.0,-1.0,-1.0,-2.0
1701619183.0175314,0.0,-6.0,2.0,-1.0,-1.0,-2.0,0.0,0.0
1701619183.0175314,2.0,0.0,-1.0,-2.0,-2.0,-1.0,-2.0,0.0
1701619183.0175314,1.0,-5.0,-2.0,1.0,0.0,-1.0,-2.0,-1.0
1701619183.0175314,-4.0,-3.0,-1.0,0.0,-1.0,1.0,-1.0,-2.0
1701619183.0175314,-3.0,-18.0,-1.0,-2.0,-2.0,-1.0,-1.0,1.0
1701619183.0175314,0.0,-15.0,-4.0,0.0,-1.0,-1.0,-3.0,-3.0
1701619183.0379138,1.0,1.0,-1.0,-2.0,-1.0,-1.0,0.0,-1.0
1701619183.0379138,4.0,27.0,-1.0,-1.0,-2.0,-1.0,1.0,2.0
1701619183.0379138,1.0,33.0,5.0,-1.0,-1.0,1.0,4.0,-1.0
1701619183.0379138,-1.0,2.0,-3.0,0.0,-2.0,0.0,4.0,1.0
1701619183.0575318,0.0,5.0,-1.0,-1.0,0.0,-1.0,2.0,0.0
1701619183.0575318,0.0,-12.0,-5.0,0.0,1.0,-2.0,0.0,-1.0
1701619183.0675323,-2.0,-7.0,3.0,0.0,-3.0,-3.0,-2.0,-2.0
1701619183.0675323,1.0,4.0,-2.0,-1.0,-2.0,-2.0,-3.0,0.0
1701619183.0778496,-2.0,4.0,-1.0,-3.0,-1.0,-1.0,-6.0,-1.0
1701619183.0778496,5.0,0.0,-5.0,-3.0,-2.0,-2.0,-3.0,-1.0
1701619183.0778496,-3.0,-6.0,-5.0,-2.0,1.0,-1.0,-5.0,-2.0
1701619183.0778496,-6.0,-4.0,2.0,2.0,2.0,1.0,-1.0,-2.0
1701619183.097553,-2.0,-9.0,0.0,0.0,-1.0,-1.0,-2.0,-2.0
1701619183.097553,-2.0,-3.0,2.0,1.0,-3.0,1.0,-2.0,-2.0
1701619183.097553,0.0,-12.0,-2.0,-2.0,0.0,-3.0,-1.0,-1.0
1701619183.097553,-1.0,16.0,-4.0,-2.0,0.0,-1.0,-2.0,-3.0
1701619183.1075304,1.0,-1.0,-3.0,-2.0,0.0,-1.0,-3.0,-2.0
1701619183.1075304,-4.0,0.0,2.0,-1.0,-1.0,-2.0,0.0,1.0
1701619183.117886,-3.0,-39.0,-7.0,-1.0,0.0,-1.0,-3.0,-4.0
1701619183.117886,2.0,11.0,2.0,-4.0,-1.0,-1.0,-1.0,1.0
1701619183.1379228,0.0,-4.0,-3.0,-1.0,-1.0,1.0,-2.0,-1.0
1701619183.1379228,-1.0,-5.0,9.0,5.0,0.0,-3.0,-1.0,-2.0
1701619183.1379228,-2.0,-7.0,-3.0,1.0,-1.0,-1.0,-2.0,1.0
1701619183.1379228,0.0,-14.0,-6.0,-4.0,-2.0,-1.0,-1.0,0.0
1701619183.1675327,-1.0,0.0,2.0,0.0,-1.0,-3.0,-2.0,1.0
1701619183.1675327,-2.0,-5.0,0.0,-3.0,0.0,-2.0,-1.0,1.0
1701619183.1675327,4.0,10.0,3.0,0.0,-1.0,-1.0,0.0,0.0
1701619183.1675327,-3.0,-5.0,-1.0,1.0,-1.0,-2.0,-1.0,-1.0
1701619183.1777644,-2.0,-3.0,-3.0,1.0,0.0,-1.0,2.0,1.0
1701619183.1777644,-6.0,-26.0,-6.0,-5.0,-1.0,0.0,0.0,-1.0
1701619183.1777644,3.0,9.0,2.0,0.0,0.0,-3.0,1.0,0.0
1701619183.1777644,-11.0,-24.0,-21.0,-12.0,-2.0,-2.0,-1.0,-3.0
1701619183.1976018,-1.0,4.0,2.0,4.0,-1.0,0.0,0.0,-2.0
1701619183.1976018,1.0,7.0,0.0,-2.0,-2.0,-2.0,-1.0,-1.0
1701619183.207544,-2.0,11.0,1.0,-2.0,-2.0,2.0,-1.0,0.0
1701619183.207544,0.0,-7.0,14.0,3.0,1.0,2.0,0.0,-2.0
1701619183.217798,-2.0,-5.0,-9.0,-2.0,0.0,1.0,-1.0,0.0
1701619183.217798,-4.0,-23.0,9.0,4.0,-2.0,-1.0,0.0,0.0
1701619183.217798,1.0,10.0,-8.0,0.0,-1.0,0.0,0.0,-3.0
1701619183.217798,2.0,5.0,8.0,1.0,-1.0,-2.0,-2.0,0.0
1701619183.247532,-3.0,-1.0,5.0,2.0,-2.0,0.0,0.0,-3.0
1701619183.247532,3.0,7.0,-6.0,-2.0,0.0,0.0,-2.0,0.0
1701619183.247532,-2.0,-5.0,-12.0,-7.0,-1.0,-1.0,-1.0,0.0
1701619183.247532,-2.0,-2.0,5.0,1.0,-1.0,-1.0,0.0,-2.0
1701619183.2583683,-5.0,-7.0,0.0,-3.0,-1.0,-3.0,-1.0,-2.0
1701619183.2593646,-2.0,-3.0,-5.0,2.0,1.0,0.0,-2.0,-3.0
1701619183.272988,-1.0,-4.0,2.0,-2.0,0.0,-2.0,-2.0,-2.0
1701619183.2740085,3.0,12.0,-3.0,-1.0,-1.0,0.0,-3.0,0.0
1701619183.2934053,0.0,-3.0,-8.0,-2.0,-1.0,0.0,-1.0,0.0
1701619183.2934053,-1.0,3.0,0.0,-2.0,-3.0,-2.0,0.0,-1.0
1701619183.2934053,-2.0,1.0,2.0,-1.0,-1.0,0.0,-2.0,0.0
1701619183.2934053,1.0,-5.0,4.0,3.0,0.0,-1.0,-3.0,0.0
1701619183.2934053,1.0,-6.0,2.0,-2.0,-3.0,-4.0,-3.0,-2.0
1701619183.2934053,-2.0,-14.0,-6.0,1.0,1.0,-3.0,-2.0,-2.0
1701619183.3034697,1.0,-7.0,-2.0,-2.0,-2.0,-2.0,-1.0,-1.0
1701619183.3034697,1.0,-4.0,0.0,-3.0,-2.0,-3.0,-2.0,-1.0
1701619183.3136024,0.0,-1.0,-1.0,-3.0,0.0,-2.0,0.0,0.0
1701619183.3136024,1.0,8.0,-4.0,-5.0,0.0,0.0,-1.0,-1.0
1701619183.3434088,-8.0,5.0,10.0,7.0,-1.0,-1.0,0.0,-3.0
1701619183.3434088,-1.0,0.0,-2.0,0.0,0.0,-2.0,-2.0,0.0
1701619183.3434088,-1.0,1.0,-4.0,1.0,-1.0,0.0,-2.0,-1.0
1701619183.3434088,0.0,5.0,-3.0,-2.0,-2.0,-2.0,2.0,-1.0
1701619183.3434088,-1.0,1.0,-2.0,-4.0,1.0,1.0,0.0,-2.0
1701619183.3434088,1.0,5.0,-2.0,1.0,0.0,1.0,1.0,-1.0
1701619183.3534129,0.0,2.0,-1.0,-2.0,-1.0,0.0,-1.0,-3.0
1701619183.3534129,-2.0,2.0,0.0,0.0,0.0,0.0,1.0,0.0
1701619183.3634489,1.0,0.0,-3.0,0.0,-2.0,-2.0,-2.0,-1.0
1701619183.3634489,-2.0,-1.0,-3.0,-2.0,-2.0,0.0,0.0,-1.0
1701619183.3736155,-1.0,0.0,-1.0,-2.0,0.0,0.0,-2.0,-1.0
1701619183.3736155,-2.0,5.0,0.0,-1.0,-1.0,1.0,0.0,-2.0
1701619183.3934095,1.0,0.0,-3.0,-2.0,0.0,0.0,-1.0,-1.0
1701619183.3934095,-2.0,-2.0,0.0,-2.0,-1.0,-1.0,-1.0,0.0
1701619183.3934095,0.0,0.0,2.0,-4.0,-3.0,-2.0,-2.0,-1.0
1701619183.3934095,-1.0,4.0,-3.0,-1.0,-2.0,-1.0,-1.0,0.0
1701619183.4034321,-1.0,0.0,0.0,-1.0,0.0,-3.0,0.0,-1.0
1701619183.4034321,1.0,0.0,0.0,1.0,-2.0,0.0,0.0,-1.0
1701619183.4238,-1.0,0.0,1.0,-1.0,-1.0,-1.0,-1.0,1.0
1701619183.4238,0.0,1.0,-5.0,-3.0,-1.0,0.0,-1.0,0.0
1701619183.4238,-1.0,-1.0,2.0,-1.0,-1.0,-2.0,-2.0,1.0
1701619183.4238,-1.0,-1.0,-1.0,-1.0,-1.0,1.0,-2.0,-2.0
1701619183.443798,-2.0,0.0,-2.0,-1.0,-2.0,-1.0,0.0,-2.0
1701619183.443798,-2.0,0.0,-1.0,1.0,-1.0,-1.0,-1.0,0.0
1701619183.443798,-1.0,1.0,-2.0,0.0,-3.0,1.0,-1.0,-1.0
1701619183.443798,-1.0,-1.0,-3.0,-2.0,-2.0,-1.0,-2.0,-2.0
1701619183.453801,0.0,-1.0,-1.0,-3.0,-1.0,-2.0,-1.0,-1.0
1701619183.453801,-2.0,0.0,2.0,-1.0,-1.0,0.0,-3.0,0.0
1701619183.4641593,0.0,0.0,-2.0,-2.0,-2.0,1.0,0.0,-1.0
1701619183.4641593,-2.0,0.0,-4.0,-1.0,-1.0,-3.0,-1.0,-2.0
1701619183.4838006,0.0,1.0,-1.0,1.0,-1.0,-1.0,0.0,0.0
1701619183.4838006,-1.0,1.0,0.0,-1.0,-2.0,0.0,-1.0,-1.0
1701619183.4838006,-1.0,-1.0,0.0,-1.0,-3.0,-1.0,1.0,-2.0
1701619183.4838006,-1.0,0.0,-2.0,-1.0,0.0,-2.0,1.0,-1.0
1701619183.4941375,0.0,2.0,-2.0,0.0,-2.0,0.0,0.0,-1.0
1701619183.4941375,0.0,-1.0,-1.0,-1.0,-2.0,-1.0,-2.0,-1.0
1701619183.513798,-1.0,1.0,-2.0,-2.0,-1.0,-1.0,-1.0,-1.0
1701619183.513798,0.0,0.0,-2.0,-1.0,-2.0,0.0,0.0,0.0
1701619183.513798,-2.0,-1.0,-1.0,-1.0,-1.0,0.0,0.0,-1.0
1701619183.513798,-1.0,2.0,0.0,-2.0,0.0,-1.0,-1.0,-3.0
1701619183.5241628,-2.0,1.0,-3.0,0.0,0.0,1.0,-1.0,0.0
1701619183.5241628,-1.0,0.0,2.0,-1.0,-1.0,-1.0,-2.0,-2.0
1701619183.5438006,-2.0,0.0,0.0,0.0,-1.0,0.0,-2.0,-1.0
1701619183.5438006,-2.0,0.0,-2.0,-1.0,-1.0,-2.0,-1.0,-2.0
1701619183.5438006,-1.0,-2.0,0.0,-2.0,-1.0,-2.0,0.0,-1.0
1701619183.5438006,0.0,-4.0,-2.0,0.0,0.0,-1.0,-1.0,-2.0
1701619183.5538015,0.0,-3.0,0.0,-1.0,-2.0,-1.0,-2.0,-3.0
1701619183.5538015,0.0,-3.0,0.0,-1.0,-2.0,-2.0,-2.0,-1.0
1701619183.564051,0.0,-4.0,-1.0,0.0,-1.0,-1.0,-2.0,-1.0
1701619183.564051,-1.0,-3.0,-1.0,-2.0,0.0,-3.0,-1.0,-1.0
1701619183.5838084,0.0,-4.0,-1.0,0.0,-1.0,-2.0,-1.0,-1.0
1701619183.5838084,-1.0,-3.0,-1.0,-1.0,-1.0,0.0,0.0,0.0
1701619183.5838084,1.0,-2.0,-1.0,-2.0,-2.0,-2.0,0.0,-1.0
1701619183.5838084,0.0,-1.0,-1.0,-1.0,-1.0,-1.0,-1.0,-1.0
1701619183.6038032,-1.0,-2.0,-1.0,-3.0,0.0,-1.0,0.0,1.0
1701619183.6038032,-2.0,-1.0,1.0,-1.0,0.0,-1.0,-1.0,0.0
1701619183.6038032,-2.0,-2.0,0.0,0.0,-1.0,0.0,-3.0,-1.0
1701619183.6038032,-2.0,1.0,0.0,0.0,-1.0,-1.0,1.0,-1.0
1701619183.6140475,-1.0,1.0,-2.0,-1.0,-1.0,-1.0,0.0,-1.0
1701619183.6140475,0.0,1.0,-2.0,-1.0,-2.0,-1.0,0.0,-2.0
1701619183.6337998,-1.0,2.0,0.0,-1.0,-1.0,-1.0,0.0,-1.0
1701619183.6337998,-1.0,0.0,-1.0,0.0,-3.0,-1.0,-2.0,-1.0
1701619183.6337998,-2.0,-1.0,0.0,-1.0,-1.0,0.0,0.0,0.0
1701619183.6337998,-2.0,0.0,-1.0,-1.0,-1.0,0.0,-1.0,-1.0
1701619183.644161,1.0,-2.0,-3.0,0.0,-2.0,0.0,0.0,-2.0
1701619183.644161,0.0,-3.0,-2.0,-3.0,-1.0,-2.0,-2.0,-2.0
1701619183.6638017,-1.0,-3.0,0.0,0.0,-1.0,-2.0,-1.0,-2.0
1701619183.6638017,0.0,-4.0,-1.0,0.0,-1.0,0.0,-2.0,0.0
1701619183.6638017,2.0,-3.0,1.0,0.0,-2.0,-2.0,0.0,0.0
1701619183.6638017,-1.0,-2.0,0.0,-1.0,0.0,-2.0,-1.0,-1.0
1701619183.6737995,1.0,-2.0,-2.0,1.0,-2.0,-2.0,-1.0,-1.0
1701619183.6737995,1.0,-2.0,-2.0,-1.0,0.0,-4.0,-1.0,0.0
1701619183.6840827,-3.0,-2.0,0.0,0.0,0.0,-1.0,-1.0,0.0
1701619183.6840827,0.0,-1.0,0.0,0.0,-1.0,-2.0,-3.0,0.0
1701619183.6938043,-1.0,2.0,-1.0,0.0,0.0,-2.0,0.0,-1.0
1701619183.6938043,-1.0,0.0,0.0,-2.0,-1.0,-2.0,-1.0,-1.0
1701619183.704053,-2.0,-1.0,-2.0,-2.0,-1.0,-1.0,0.0,-1.0
1701619183.704053,-2.0,2.0,-1.0,-1.0,-3.0,-2.0,1.0,-1.0
1701619183.7537997,-3.0,-2.0,-1.0,-1.0,0.0,-1.0,-2.0,-2.0
1701619183.7537997,-2.0,-2.0,-1.0,-1.0,-1.0,-1.0,1.0,0.0
1701619183.7537997,0.0,0.0,-3.0,0.0,0.0,-2.0,-2.0,0.0
1701619183.7537997,-1.0,-2.0,-1.0,-2.0,-1.0,0.0,0.0,-1.0
1701619183.7537997,-1.0,-2.0,1.0,-1.0,-2.0,0.0,0.0,-1.0
1701619183.7537997,0.0,-2.0,-1.0,-2.0,-1.0,-2.0,-1.0,-2.0
1701619183.7537997,1.0,-1.0,-2.0,-2.0,-1.0,1.0,-1.0,-1.0
1701619183.7537997,-1.0,0.0,-1.0,-2.0,0.0,-1.0,0.0,-1.0
1701619183.7537997,0.0,0.0,0.0,-1.0,0.0,-2.0,-1.0,-1.0
1701619183.7537997,-2.0,1.0,0.0,0.0,-2.0,-1.0,-1.0,-1.0
1701619183.7640462,-1.0,-3.0,0.0,0.0,-1.0,-2.0,-1.0,0.0
1701619183.7640462,0.0,-1.0,-1.0,-1.0,0.0,0.0,-2.0,0.0
1701619183.7838018,0.0,-1.0,-2.0,-2.0,0.0,-1.0,-1.0,0.0
1701619183.7838018,0.0,-1.0,0.0,0.0,-2.0,0.0,-1.0,0.0
1701619183.7838018,-3.0,-1.0,-2.0,-1.0,0.0,-2.0,-1.0,0.0
1701619183.7838018,-2.0,-3.0,-2.0,-1.0,-1.0,0.0,0.0,-1.0
1701619183.7976112,0.0,-1.0,-1.0,-1.0,-1.0,-1.0,-1.0,-2.0
1701619183.7976112,0.0,-4.0,-2.0,-2.0,0.0,-2.0,-2.0,-1.0
1701619183.8051405,-1.0,-2.0,0.0,-1.0,-1.0,0.0,-1.0,0.0
1701619183.805796,0.0,-1.0,0.0,0.0,0.0,-2.0,-2.0,-1.0
1701619183.816742,0.0,-1.0,-1.0,-1.0,-3.0,-1.0,-4.0,0.0
1701619183.816742,0.0,-2.0,-2.0,-2.0,-1.0,-1.0,-5.0,0.0
1701619183.8269124,0.0,-2.0,0.0,-1.0,-1.0,-3.0,-6.0,-2.0
1701619183.8269124,-1.0,-6.0,-1.0,0.0,-1.0,0.0,-6.0,1.0
1701619183.8367417,1.0,-4.0,-1.0,-2.0,0.0,0.0,-2.0,0.0
1701619183.8367417,0.0,-2.0,0.0,0.0,-1.0,-1.0,4.0,0.0
1701619183.8367417,1.0,0.0,0.0,-2.0,0.0,-2.0,6.0,-1.0
1701619183.8367417,0.0,0.0,-1.0,-2.0,-1.0,0.0,10.0,-2.0
1701619183.857196,-1.0,2.0,-3.0,-2.0,-1.0,-2.0,10.0,0.0
1701619183.857196,-2.0,2.0,-2.0,-2.0,0.0,0.0,11.0,-1.0
1701619183.857196,-2.0,4.0,-2.0,0.0,-2.0,-1.0,11.0,-4.0
1701619183.857196,-1.0,8.0,-2.0,0.0,-1.0,-1.0,7.0,-2.0
1701619183.8775275,-1.0,7.0,-1.0,-1.0,-1.0,-1.0,0.0,-4.0
1701619183.8775275,-3.0,8.0,-2.0,-2.0,-2.0,1.0,-9.0,-3.0
1701619183.8874357,-3.0,6.0,-1.0,-1.0,0.0,2.0,-15.0,-1.0
1701619183.8874357,-4.0,3.0,-1.0,-2.0,-1.0,0.0,-19.0,-2.0
1701619183.8972104,-3.0,1.0,-1.0,-1.0,-1.0,1.0,-15.0,0.0
1701619183.8972104,-2.0,2.0,0.0,-1.0,-2.0,0.0,-11.0,0.0
1701619183.8972104,-3.0,2.0,-2.0,-1.0,-1.0,1.0,-6.0,0.0
1701619183.8972104,-3.0,0.0,-2.0,-1.0,-2.0,0.0,-2.0,-2.0
1701619183.917451,-2.0,-2.0,0.0,-1.0,-1.0,0.0,1.0,-3.0
1701619183.917451,-2.0,-3.0,0.0,-1.0,-1.0,-2.0,1.0,-3.0
1701619183.917451,-3.0,-6.0,0.0,0.0,-1.0,-2.0,2.0,-1.0
1701619183.917451,-3.0,-8.0,-1.0,-2.0,0.0,-2.0,2.0,-2.0
1701619183.9374642,-2.0,-8.0,-3.0,-2.0,-1.0,-2.0,2.0,0.0
1701619183.9374642,0.0,-7.0,-2.0,-1.0,-1.0,-2.0,2.0,-1.0
1701619183.9474032,0.0,-8.0,0.0,-2.0,-2.0,-2.0,2.0,0.0
1701619183.9474032,2.0,-7.0,0.0,0.0,-1.0,-2.0,-1.0,-2.0
1701619183.9672055,0.0,-6.0,1.0,2.0,-3.0,-2.0,-1.0,0.0
1701619183.9672055,-1.0,-5.0,0.0,0.0,-1.0,-1.0,0.0,1.0
1701619183.9672055,1.0,-5.0,-2.0,-2.0,-1.0,0.0,-2.0,1.0
1701619183.9672055,1.0,-2.0,1.0,-1.0,0.0,-1.0,-1.0,0.0
1701619183.9772131,1.0,-2.0,0.0,0.0,0.0,-2.0,0.0,-3.0
1701619183.9772131,1.0,-3.0,0.0,1.0,-1.0,-2.0,0.0,-1.0
1701619183.9874327,0.0,-2.0,-3.0,0.0,0.0,-1.0,0.0,-2.0
1701619183.9874327,2.0,-1.0,-1.0,0.0,-1.0,-2.0,0.0,1.0
1701619184.007211,-1.0,-3.0,-1.0,0.0,-1.0,0.0,0.0,0.0
1701619184.007211,0.0,1.0,0.0,-2.0,-1.0,-2.0,0.0,-2.0
1701619184.007211,0.0,-2.0,-1.0,-1.0,0.0,-2.0,0.0,-1.0
1701619184.007211,5.0,31.0,4.0,0.0,0.0,-1.0,0.0,2.0
1701619184.0172427,1.0,4.0,-4.0,-3.0,0.0,-4.0,-3.0,1.0
1701619184.0172427,-2.0,-1.0,-1.0,0.0,-1.0,0.0,-2.0,-1.0
1701619184.0172427,1.0,-1.0,0.0,0.0,-1.0,-1.0,-1.0,-2.0
1701619184.0172427,-1.0,-8.0,-3.0,-1.0,0.0,-1.0,-2.0,0.0
1701619184.0374508,0.0,14.0,-4.0,-4.0,-2.0,0.0,-1.0,0.0
1701619184.0374508,5.0,28.0,1.0,1.0,1.0,0.0,-1.0,0.0
1701619184.0374508,-2.0,4.0,-1.0,-1.0,-2.0,0.0,0.0,-1.0
1701619184.0374508,-1.0,3.0,2.0,1.0,-1.0,0.0,-1.0,-2.0
1701619184.0772104,-6.0,-12.0,-5.0,0.0,0.0,-1.0,-3.0,-3.0
1701619184.0772104,-2.0,-14.0,-4.0,-1.0,-1.0,-3.0,-6.0,-2.0
1701619184.0772104,3.0,-2.0,-6.0,-5.0,-3.0,-4.0,-8.0,-2.0
1701619184.0772104,-5.0,-25.0,-6.0,-2.0,-3.0,-2.0,-8.0,-5.0
1701619184.0872402,2.0,7.0,4.0,0.0,-1.0,-1.0,-6.0,1.0
1701619184.0872402,-1.0,-12.0,-1.0,-1.0,-1.0,-2.0,-1.0,0.0
1701619184.0872402,1.0,-6.0,-1.0,-1.0,-2.0,-4.0,5.0,1.0
1701619184.0872402,-2.0,-3.0,-2.0,0.0,0.0,-2.0,11.0,1.0
1701619184.0975652,0.0,-2.0,-2.0,1.0,0.0,0.0,10.0,0.0
1701619184.0975652,-1.0,5.0,0.0,0.0,0.0,0.0,7.0,1.0
1701619184.0975652,-3.0,5.0,0.0,0.0,1.0,0.0,6.0,2.0
1701619184.0975652,-1.0,3.0,-3.0,-2.0,-1.0,0.0,5.0,1.0
1701619184.1272078,-5.0,6.0,1.0,0.0,1.0,-1.0,0.0,-1.0
1701619184.1272078,-14.0,-27.0,0.0,0.0,-1.0,1.0,-3.0,-4.0
1701619184.1272078,-6.0,2.0,-3.0,0.0,0.0,4.0,-5.0,-4.0
1701619184.1272078,-3.0,6.0,-2.0,-1.0,-2.0,0.0,-8.0,-5.0
1701619184.1372085,-1.0,8.0,-2.0,-2.0,-1.0,1.0,-7.0,-5.0
1701619184.1372085,-3.0,0.0,-2.0,-3.0,0.0,1.0,-5.0,-3.0
1701619184.1372085,-3.0,1.0,-3.0,-2.0,-2.0,-1.0,-6.0,-4.0
1701619184.1372085,-4.0,2.0,-1.0,-2.0,0.0,0.0,-1.0,-3.0
1701619184.1672068,-3.0,-10.0,0.0,-1.0,-1.0,-1.0,-2.0,-3.0
1701619184.1672068,2.0,7.0,-1.0,-1.0,-2.0,0.0,-2.0,-2.0
1701619184.1672068,0.0,20.0,-1.0,-1.0,-3.0,-1.0,-3.0,-3.0
1701619184.1672068,-4.0,2.0,-1.0,-1.0,1.0,-1.0,-4.0,-1.0
1701619184.177253,2.0,-1.0,-4.0,-4.0,-2.0,-1.0,-3.0,-3.0
1701619184.177253,-2.0,3.0,1.0,0.0,1.0,1.0,0.0,-1.0
1701619184.1874344,-2.0,-3.0,-1.0,-2.0,-1.0,0.0,2.0,-3.0
1701619184.1874344,-2.0,-8.0,0.0,-2.0,-3.0,-2.0,-1.0,-3.0
1701619184.1972134,-2.0,1.0,3.0,0.0,0.0,0.0,-1.0,1.0
1701619184.1972134,0.0,0.0,-3.0,-2.0,-1.0,-2.0,-1.0,-2.0
1701619184.2072651,-1.0,-8.0,0.0,-1.0,0.0,1.0,4.0,1.0
1701619184.2072651,1.0,-3.0,-1.0,0.0,-2.0,-1.0,6.0,3.0
1701619184.2173607,-3.0,-9.0,-5.0,-1.0,-1.0,1.0,7.0,0.0
1701619184.2173607,-2.0,1.0,-1.0,-3.0,-1.0,-1.0,6.0,2.0
1701619184.2372074,0.0,-7.0,1.0,1.0,-1.0,0.0,1.0,0.0
1701619184.2372074,0.0,-5.0,0.0,-3.0,0.0,-1.0,-1.0,-1.0
1701619184.2372074,-1.0,-5.0,-3.0,-2.0,-1.0,-3.0,-3.0,0.0
1701619184.2372074,-1.0,-8.0,0.0,-1.0,-2.0,-3.0,-6.0,-1.0
1701619184.2472422,0.0,-11.0,0.0,-2.0,-1.0,-3.0,-7.0,0.0
1701619184.2472422,2.0,7.0,3.0,2.0,1.0,-3.0,-7.0,2.0
1701619184.2675855,2.0,-10.0,0.0,0.0,-2.0,-2.0,-7.0,-2.0
1701619184.2675855,2.0,-5.0,0.0,-2.0,-2.0,-4.0,-5.0,-1.0
1701619184.2675855,2.0,-10.0,1.0,-1.0,-1.0,-3.0,-6.0,2.0
1701619184.2675855,1.0,-9.0,-3.0,-2.0,-2.0,-2.0,-4.0,0.0
1701619184.2872066,-1.0,-9.0,-2.0,-1.0,-1.0,-3.0,-3.0,3.0
1701619184.2872066,3.0,-2.0,2.0,5.0,2.0,1.0,-1.0,0.0
1701619184.2872066,1.0,-2.0,1.0,-2.0,-1.0,-3.0,0.0,-1.0
1701619184.2872066,0.0,-9.0,1.0,-3.0,0.0,-2.0,-1.0,1.0
1701619184.2974858,1.0,-4.0,-8.0,-1.0,0.0,-4.0,1.0,1.0
1701619184.2974858,0.0,-6.0,-10.0,-3.0,-3.0,-3.0,0.0,0.0
1701619184.3074627,-2.0,-2.0,-3.0,1.0,1.0,-2.0,1.0,0.0
1701619184.3074627,1.0,-3.0,2.0,1.0,-2.0,-2.0,1.0,-1.0
1701619184.3226364,1.0,0.0,8.0,-2.0,-1.0,-1.0,-1.0,-3.0
1701619184.3226364,2.0,1.0,-10.0,-5.0,-2.0,-2.0,1.0,-1.0
1701619184.3308792,-2.0,3.0,0.0,2.0,-1.0,1.0,1.0,-1.0
1701619184.3308792,0.0,0.0,-4.0,0.0,0.0,-1.0,-1.0,1.0
1701619184.3461146,-1.0,1.0,-3.0,-1.0,0.0,0.0,1.0,-1.0
1701619184.3461146,0.0,2.0,2.0,-1.0,-1.0,-1.0,-3.0,-1.0
1701619184.3461146,0.0,2.0,-5.0,0.0,-1.0,-1.0,-1.0,-2.0
1701619184.3461146,-1.0,1.0,-5.0,-2.0,-1.0,-1.0,-1.0,-2.0
1701619184.369084,-1.0,3.0,0.0,2.0,1.0,1.0,-1.0,-1.0
1701619184.369084,-2.0,4.0,1.0,-2.0,-1.0,1.0,0.0,-1.0
1701619184.369084,-1.0,2.0,-2.0,-1.0,-1.0,-1.0,-1.0,0.0
1701619184.369084,-1.0,3.0,-1.0,-2.0,-2.0,1.0,0.0,-3.0
1701619184.3794909,-2.0,3.0,0.0,-1.0,-2.0,-1.0,-2.0,-2.0
1701619184.3794909,0.0,3.0,0.0,-1.0,0.0,-1.0,0.0,-2.0
1701619184.389087,-2.0,0.0,-2.0,-1.0,0.0,0.0,-1.0,-1.0
1701619184.389087,-3.0,-1.0,-3.0,0.0,0.0,0.0,-3.0,0.0
1701619184.3991194,-3.0,0.0,-3.0,-1.0,-1.0,0.0,-2.0,-1.0
1701619184.3991194,-1.0,1.0,-2.0,0.0,0.0,0.0,0.0,-3.0
1701619184.4094296,-3.0,0.0,0.0,-2.0,0.0,-2.0,-1.0,-1.0
1701619184.4094296,-2.0,0.0,-2.0,-1.0,-2.0,-1.0,-1.0,-2.0
1701619184.4194167,1.0,-2.0,-1.0,-1.0,-2.0,-1.0,-2.0,-1.0
1701619184.4194167,-1.0,0.0,0.0,0.0,0.0,0.0,-1.0,0.0
1701619184.4194167,-1.0,-2.0,0.0,-1.0,-2.0,0.0,-1.0,-3.0
1701619184.4194167,-2.0,0.0,-1.0,0.0,-1.0,0.0,0.0,-3.0
1701619184.43943,-3.0,0.0,-1.0,-1.0,-1.0,0.0,-2.0,0.0
1701619184.43943,-1.0,-1.0,-1.0,-1.0,-2.0,-1.0,-3.0,-1.0
1701619184.449423,-2.0,-1.0,-1.0,-1.0,-1.0,1.0,-1.0,-1.0
1701619184.449423,-1.0,-3.0,-4.0,-1.0,-1.0,-2.0,0.0,-1.0
1701619184.469085,-1.0,-1.0,-1.0,-1.0,-1.0,-1.0,0.0,-2.0
1701619184.469085,-2.0,-2.0,-1.0,-1.0,0.0,0.0,-1.0,0.0
1701619184.469085,-1.0,-2.0,-2.0,0.0,-1.0,-2.0,-1.0,0.0
1701619184.469085,-1.0,-1.0,-2.0,-1.0,-1.0,0.0,-1.0,-1.0
1701619184.4792933,-1.0,0.0,-1.0,0.0,-2.0,-2.0,0.0,-2.0
1701619184.4792933,-1.0,-3.0,-2.0,-1.0,-4.0,-2.0,-3.0,-1.0
1701619184.4792933,0.0,-1.0,-1.0,-1.0,-2.0,1.0,0.0,-2.0
1701619184.4890885,0.0,-2.0,-1.0,-1.0,0.0,-2.0,-1.0,-1.0
1701619184.4995124,-1.0,-2.0,0.0,-2.0,-2.0,0.0,-1.0,-1.0
1701619184.4995124,-1.0,1.0,0.0,-1.0,-1.0,-2.0,-2.0,0.0
1701619184.5090857,-2.0,0.0,0.0,0.0,1.0,1.0,-1.0,-1.0
1701619184.5090857,-2.0,0.0,-1.0,-1.0,-1.0,-1.0,-1.0,-2.0
1701619184.5191174,-1.0,0.0,-1.0,-1.0,-1.0,0.0,0.0,1.0
1701619184.5191174,-1.0,0.0,-1.0,-1.0,-1.0,0.0,-1.0,-2.0
1701619184.5191174,-3.0,-2.0,0.0,-2.0,0.0,-4.0,-1.0,-2.0
1701619184.5191174,-2.0,0.0,0.0,-1.0,-1.0,-1.0,0.0,0.0
1701619184.5394506,-1.0,0.0,-1.0,0.0,-2.0,-2.0,-1.0,-2.0
1701619184.5394506,-3.0,-1.0,-2.0,-3.0,0.0,-2.0,-2.0,-2.0
1701619184.5394506,-1.0,-4.0,-1.0,-2.0,0.0,0.0,-1.0,-1.0
1701619184.5394506,-1.0,-3.0,0.0,-1.0,-2.0,-1.0,0.0,-1.0
1701619184.5594203,0.0,-4.0,-3.0,-1.0,-2.0,-1.0,-1.0,-1.0
1701619184.5594203,0.0,-3.0,1.0,1.0,0.0,-1.0,-1.0,-1.0
1701619184.579084,0.0,-2.0,-3.0,-3.0,-3.0,-3.0,0.0,0.0
1701619184.579084,-2.0,-3.0,0.0,-1.0,-1.0,-1.0,-1.0,-1.0
1701619184.579084,-1.0,-4.0,0.0,-1.0,-1.0,0.0,0.0,-2.0
1701619184.579084,-1.0,-3.0,-2.0,-2.0,-1.0,-2.0,-1.0,0.0
1701619184.579084,1.0,-3.0,-1.0,1.0,1.0,-3.0,-2.0,-1.0
1701619184.579084,2.0,0.0,-1.0,-2.0,-2.0,-1.0,-1.0,-1.0
1701619184.5993345,0.0,-2.0,-1.0,0.0,-1.0,0.0,-2.0,0.0
1701619184.5993345,0.0,0.0,0.0,-1.0,-1.0,1.0,0.0,-2.0
1701619184.5993345,-1.0,-1.0,-1.0,0.0,-3.0,1.0,-1.0,-2.0
1701619184.5993345,-2.0,-2.0,-1.0,0.0,0.0,-2.0,0.0,0.0
1701619184.6390839,-1.0,1.0,-1.0,-1.0,-1.0,-2.0,-2.0,0.0
1701619184.6390839,-2.0,-1.0,-1.0,-2.0,1.0,-1.0,0.0,1.0
1701619184.6390839,-2.0,0.0,-2.0,-2.0,0.0,-1.0,0.0,0.0
1701619184.6390839,0.0,-2.0,-1.0,0.0,-2.0,0.0,-1.0,-1.0
1701619184.6390839,-2.0,1.0,0.0,-2.0,-1.0,-1.0,-1.0,-2.0
1701619184.6390839,-1.0,-1.0,0.0,-1.0,-1.0,-1.0,-1.0,-2.0
1701619184.6390839,1.0,-1.0,1.0,-2.0,0.0,-1.0,0.0,-1.0
1701619184.6390839,-3.0,-1.0,-2.0,-1.0,-2.0,0.0,0.0,-2.0
1701619184.6593356,-1.0,-2.0,-1.0,-2.0,-2.0,-2.0,-1.0,1.0
1701619184.6593356,0.0,-1.0,0.0,3.0,-1.0,-2.0,-1.0,0.0
1701619184.6593356,-1.0,1.0,0.0,-4.0,-2.0,-2.0,-1.0,-1.0
1701619184.6593356,-1.0,-2.0,-4.0,-3.0,-1.0,-2.0,-2.0,-3.0
1701619184.689085,0.0,-4.0,-2.0,-1.0,-3.0,-1.0,0.0,-1.0
1701619184.689085,0.0,8.0,3.0,2.0,0.0,-1.0,0.0,0.0
1701619184.689085,1.0,0.0,1.0,3.0,-2.0,0.0,-2.0,-1.0
1701619184.689085,1.0,-3.0,2.0,1.0,0.0,-2.0,-3.0,-1.0
1701619184.6992924,2.0,-4.0,-1.0,-3.0,0.0,-2.0,-1.0,-2.0
1701619184.6992924,-1.0,-3.0,-2.0,-1.0,-2.0,-3.0,-1.0,-4.0
1701619184.6992924,-1.0,-2.0,0.0,0.0,-1.0,-1.0,0.0,1.0
1701619184.6992924,-2.0,2.0,-1.0,-2.0,-1.0,-1.0,0.0,0.0
1701619184.7193336,-1.0,0.0,-2.0,-1.0,1.0,0.0,-3.0,0.0
1701619184.7193336,-1.0,-2.0,-2.0,-2.0,0.0,-2.0,-1.0,-1.0
1701619184.749086,-2.0,-1.0,-2.0,-2.0,-2.0,-2.0,-1.0,-1.0
1701619184.749086,-2.0,-4.0,-1.0,0.0,-1.0,-2.0,-2.0,-1.0
1701619184.749086,1.0,2.0,0.0,-1.0,-1.0,0.0,0.0,-2.0
1701619184.749086,-2.0,-3.0,-2.0,-2.0,-2.0,0.0,0.0,-1.0
1701619184.749086,0.0,-3.0,-3.0,0.0,-2.0,-2.0,-2.0,-1.0
1701619184.749086,-2.0,2.0,-1.0,-1.0,-2.0,0.0,-1.0,0.0
1701619184.759135,-2.0,-4.0,-4.0,0.0,-1.0,-2.0,-1.0,-3.0
1701619184.759135,-1.0,-2.0,-3.0,-4.0,-1.0,-1.0,-2.0,0.0
1701619184.759135,-1.0,3.0,0.0,0.0,-2.0,-1.0,-1.0,-1.0
1701619184.759135,0.0,0.0,-2.0,-1.0,0.0,-2.0,-1.0,-2.0
1701619184.7790878,-1.0,2.0,1.0,-2.0,-2.0,1.0,-2.0,-1.0
1701619184.7790878,-3.0,-1.0,-2.0,-1.0,0.0,-1.0,-2.0,0.0
1701619184.7890851,-1.0,-1.0,-3.0,-2.0,1.0,-1.0,-3.0,-2.0
1701619184.7890851,-1.0,-1.0,-2.0,-2.0,-1.0,-3.0,-1.0,0.0
1701619184.7994094,0.0,-1.0,0.0,-1.0,0.0,-2.0,-1.0,0.0
1701619184.7994094,-1.0,-5.0,0.0,-1.0,-1.0,1.0,-1.0,-2.0
1701619184.8094463,0.0,-2.0,1.0,1.0,-1.0,-2.0,-2.0,-1.0
1701619184.8094463,1.0,-2.0,-1.0,0.0,0.0,-2.0,1.0,1.0
1701619184.8194945,0.0,-2.0,0.0,-1.0,-1.0,-2.0,0.0,-2.0
1701619184.8194945,1.0,0.0,-1.0,-2.0,-3.0,-2.0,-1.0,-1.0
1701619184.8194945,0.0,-2.0,-3.0,-1.0,0.0,-1.0,-1.0,-1.0
1701619184.8194945,-1.0,-1.0,0.0,-2.0,-1.0,0.0,-1.0,-1.0
1701619184.839089,-3.0,-2.0,-2.0,-1.0,-1.0,-1.0,-1.0,0.0
1701619184.839089,-1.0,-1.0,1.0,-1.0,0.0,-2.0,-1.0,0.0
1701619184.839089,-1.0,-4.0,-1.0,-2.0,-1.0,-1.0,-1.0,0.0
1701619184.839089,-1.0,-2.0,-1.0,-1.0,0.0,-2.0,-1.0,-1.0
1701619184.863652,0.0,1.0,-1.0,0.0,0.0,0.0,0.0,-1.0
1701619184.863652,-1.0,-2.0,0.0,-1.0,-1.0,-3.0,-1.0,0.0
1701619184.8716135,-2.0,-4.0,-1.0,-1.0,-1.0,-2.0,-3.0,0.0
1701619184.8716135,-1.0,-2.0,-1.0,-1.0,-1.0,-3.0,-3.0,0.0
1701619184.882042,0.0,-2.0,-1.0,-3.0,0.0,-2.0,-1.0,-2.0
1701619184.882042,-1.0,-5.0,-1.0,-1.0,-2.0,-1.0,-2.0,-2.0
1701619184.882042,1.0,-2.0,-1.0,-2.0,-1.0,-1.0,-1.0,2.0
1701619184.882042,0.0,-3.0,-2.0,-1.0,-1.0,0.0,0.0,0.0
1701619184.922037,-1.0,-4.0,0.0,0.0,0.0,-1.0,1.0,0.0
1701619184.922037,-1.0,-4.0,0.0,-1.0,-1.0,-4.0,2.0,0.0
1701619184.922037,0.0,-2.0,0.0,0.0,-1.0,-1.0,6.0,0.0
1701619184.922037,0.0,-1.0,-1.0,0.0,0.0,-1.0,6.0,-1.0
1701619184.922037,-1.0,5.0,-1.0,1.0,0.0,-3.0,5.0,-1.0
1701619184.922037,0.0,7.0,-2.0,-1.0,-1.0,0.0,3.0,-2.0
1701619184.922037,-2.0,10.0,-3.0,-1.0,0.0,-2.0,0.0,-3.0
1701619184.922037,-5.0,12.0,-3.0,0.0,-1.0,1.0,-2.0,-5.0
1701619184.9420524,-4.0,8.0,-1.0,-3.0,-2.0,0.0,-2.0,-2.0
1701619184.9420524,-4.0,6.0,-2.0,-1.0,-1.0,1.0,-3.0,-2.0
1701619184.9420524,-4.0,8.0,-3.0,-1.0,-2.0,3.0,-1.0,-5.0
1701619184.9420524,-3.0,7.0,-2.0,-2.0,-1.0,3.0,-10.0,-3.0
1701619184.9620378,-5.0,8.0,-1.0,0.0,-1.0,0.0,-12.0,-3.0
1701619184.9620378,-3.0,8.0,-3.0,-1.0,0.0,2.0,-13.0,-3.0
1701619184.9620378,-4.0,3.0,-1.0,-1.0,-1.0,3.0,-11.0,-3.0
1701619184.9620378,-4.0,2.0,0.0,-1.0,-1.0,2.0,-3.0,-1.0
1701619184.9825306,-4.0,0.0,-3.0,-1.0,-2.0,3.0,0.0,-1.0
1701619184.9825306,-2.0,-3.0,-2.0,-2.0,-2.0,-2.0,1.0,-2.0
1701619184.9825306,-4.0,-6.0,-1.0,0.0,-1.0,-1.0,1.0,-2.0
1701619184.9825306,0.0,-8.0,0.0,-2.0,-2.0,-1.0,5.0,-1.0
1701619185.022284,0.0,-9.0,1.0,0.0,0.0,-2.0,2.0,-2.0
1701619185.022284,-2.0,-11.0,0.0,-1.0,-2.0,-2.0,3.0,-1.0
1701619185.022284,-1.0,-12.0,2.0,-2.0,-2.0,-2.0,2.0,-1.0
1701619185.022284,1.0,-15.0,2.0,-2.0,-3.0,-4.0,-2.0,2.0
1701619185.022284,3.0,-15.0,1.0,-1.0,-1.0,-5.0,-1.0,3.0
1701619185.022284,3.0,-11.0,0.0,-1.0,-1.0,-4.0,0.0,3.0
1701619185.022284,3.0,-13.0,0.0,-1.0,1.0,-2.0,0.0,3.0
1701619185.022284,2.0,-9.0,0.0,-1.0,-1.0,-5.0,0.0,4.0
1701619185.0426328,3.0,-4.0,-1.0,1.0,-1.0,-4.0,1.0,1.0
1701619185.0426328,0.0,-3.0,-2.0,-2.0,-1.0,-2.0,0.0,1.0
1701619185.0426328,-1.0,1.0,0.0,-1.0,-2.0,-2.0,1.0,2.0
1701619185.0426328,-2.0,-10.0,-5.0,-1.0,-1.0,0.0,0.0,-1.0
1701619185.0626922,2.0,3.0,-4.0,-1.0,2.0,0.0,0.0,0.0
1701619185.0626922,-3.0,-16.0,2.0,1.0,1.0,0.0,0.0,-1.0
1701619185.0626922,1.0,4.0,-4.0,0.0,-2.0,0.0,-1.0,-2.0
1701619185.0626922,-1.0,1.0,-2.0,-2.0,-1.0,0.0,-2.0,-1.0
1701619185.0725892,-1.0,27.0,2.0,-1.0,0.0,0.0,0.0,-2.0
1701619185.0725892,0.0,5.0,-6.0,-1.0,-1.0,0.0,-2.0,-2.0
1701619185.0825913,-1.0,2.0,-2.0,-2.0,-1.0,-2.0,-2.0,-3.0
1701619185.0825913,1.0,10.0,2.0,1.0,-2.0,-2.0,-1.0,-3.0
1701619185.102346,-3.0,-12.0,-3.0,-1.0,-1.0,-2.0,-1.0,-1.0
1701619185.102346,4.0,6.0,2.0,-1.0,-1.0,-3.0,-3.0,0.0
1701619185.102346,-2.0,-1.0,-1.0,-3.0,-1.0,-3.0,-4.0,-2.0
1701619185.102346,1.0,-4.0,-2.0,-1.0,-3.0,-2.0,-2.0,-1.0
1701619185.122684,2.0,-9.0,-6.0,-5.0,-1.0,-2.0,-2.0,-1.0
1701619185.122684,-4.0,-1.0,-2.0,-1.0,0.0,-1.0,0.0,1.0
1701619185.122684,0.0,3.0,-3.0,0.0,0.0,-2.0,-1.0,1.0
1701619185.122684,-2.0,3.0,-1.0,-1.0,0.0,-2.0,1.0,1.0
1701619185.1423473,-2.0,-6.0,0.0,0.0,-1.0,1.0,0.0,1.0
1701619185.1423473,0.0,9.0,0.0,-1.0,-2.0,1.0,0.0,-1.0
1701619185.1423473,-2.0,1.0,1.0,0.0,0.0,2.0,-1.0,1.0
1701619185.1423473,0.0,1.0,-2.0,-2.0,-2.0,0.0,-1.0,-1.0
1701619185.1626945,-3.0,3.0,1.0,0.0,-2.0,0.0,-4.0,-2.0
1701619185.1626945,-3.0,-4.0,-3.0,-1.0,-1.0,-1.0,0.0,-3.0
1701619185.1626945,-2.0,0.0,2.0,-1.0,-2.0,-1.0,1.0,-2.0
1701619185.1626945,0.0,-1.0,-1.0,0.0,-1.0,-2.0,0.0,-3.0
1701619185.1923459,0.0,-3.0,-1.0,1.0,0.0,-2.0,1.0,-2.0
1701619185.1923459,0.0,1.0,1.0,-1.0,-1.0,0.0,0.0,-1.0
1701619185.1923459,-3.0,-2.0,0.0,0.0,0.0,-1.0,1.0,-3.0
1701619185.1923459,-3.0,5.0,0.0,-3.0,-2.0,-1.0,-3.0,0.0
1701619185.1923459,-2.0,4.0,-1.0,0.0,0.0,-2.0,-3.0,-2.0
1701619185.1923459,-1.0,1.0,-2.0,1.0,0.0,-2.0,-4.0,-2.0
1701619185.2025757,-2.0,-4.0,2.0,-1.0,0.0,0.0,-4.0,-3.0
1701619185.2025757,-2.0,-2.0,0.0,-1.0,0.0,-1.0,-2.0,-2.0
1701619185.2223482,-3.0,0.0,0.0,0.0,-1.0,0.0,-1.0,-1.0
1701619185.2223482,0.0,-14.0,-2.0,0.0,-2.0,1.0,-1.0,-1.0
1701619185.2323472,2.0,27.0,3.0,2.0,1.0,0.0,0.0,0.0
1701619185.2323472,0.0,8.0,-1.0,0.0,-1.0,1.0,1.0,0.0
1701619185.242652,-2.0,-6.0,0.0,-1.0,0.0,0.0,1.0,0.0
1701619185.242652,-1.0,0.0,-1.0,-2.0,-2.0,-1.0,2.0,-1.0
1701619185.2526243,1.0,-12.0,-11.0,-5.0,-3.0,-3.0,-1.0,-1.0
1701619185.2526243,-2.0,-6.0,-2.0,-3.0,-1.0,-1.0,0.0,0.0
1701619185.2526243,0.0,3.0,-2.0,-3.0,-1.0,-1.0,-1.0,-1.0
1701619185.2526243,-4.0,-14.0,-5.0,-2.0,1.0,-1.0,-1.0,-1.0
1701619185.262643,-6.0,-2.0,3.0,3.0,0.0,1.0,-1.0,-1.0
1701619185.262643,0.0,5.0,-2.0,0.0,0.0,-1.0,-3.0,-2.0
1701619185.282603,3.0,-18.0,-3.0,-1.0,-3.0,-1.0,-2.0,-1.0
1701619185.282603,-3.0,1.0,-1.0,-2.0,-3.0,0.0,-3.0,-2.0
1701619185.2923477,3.0,9.0,-3.0,-2.0,-3.0,-2.0,-1.0,0.0
1701619185.2923477,-3.0,-4.0,0.0,-1.0,0.0,-2.0,-2.0,-2.0
1701619185.3023555,-2.0,3.0,0.0,0.0,-2.0,-2.0,-5.0,-1.0
1701619185.3023555,-1.0,6.0,-4.0,-6.0,-1.0,-2.0,-3.0,0.0
1701619185.3126159,1.0,-7.0,0.0,-1.0,-1.0,-1.0,-1.0,0.0
1701619185.3126159,2.0,-6.0,-1.0,-1.0,-2.0,-2.0,-2.0,0.0
1701619185.3225553,0.0,-2.0,2.0,0.0,1.0,-2.0,1.0,0.0
1701619185.3225553,1.0,-7.0,2.0,2.0,0.0,-2.0,-1.0,1.0
1701619185.33268,-1.0,-9.0,-1.0,-3.0,-2.0,-3.0,-1.0,2.0
1701619185.33268,-1.0,-8.0,-1.0,-2.0,-1.0,-2.0,-1.0,1.0
1701619185.342623,-1.0,-3.0,-1.0,0.0,-1.0,-3.0,0.0,-1.0
1701619185.342623,0.0,4.0,1.0,-1.0,2.0,-1.0,0.0,1.0
1701619185.342623,-1.0,-8.0,-3.0,0.0,0.0,-1.0,-1.0,-1.0
1701619185.342623,2.0,-1.0,0.0,1.0,1.0,-2.0,1.0,2.0
1701619185.3626428,-3.0,1.0,-1.0,0.0,-1.0,-2.0,0.0,1.0
1701619185.3626428,1.0,1.0,-2.0,-2.0,-2.0,-2.0,1.0,0.0
1701619185.3725586,1.0,-3.0,0.0,1.0,-1.0,-2.0,0.0,-1.0
1701619185.3725586,0.0,-6.0,-1.0,0.0,-1.0,-1.0,0.0,-1.0
1701619185.3899918,-2.0,-3.0,-2.0,-2.0,-1.0,0.0,0.0,-2.0
1701619185.3899918,1.0,0.0,1.0,1.0,-1.0,-1.0,0.0,1.0
1701619185.3899918,-1.0,-3.0,0.0,0.0,-2.0,0.0,-1.0,-1.0
1701619185.3899918,-1.0,0.0,-2.0,1.0,-2.0,0.0,-1.0,-1.0
1701619185.4028027,0.0,-2.0,-2.0,-1.0,-1.0,0.0,1.0,0.0
1701619185.4028027,-1.0,4.0,0.0,-1.0,2.0,1.0,0.0,-1.0
1701619185.4148717,0.0,1.0,-3.0,-2.0,0.0,-1.0,-1.0,0.0
1701619185.4148717,-1.0,4.0,-2.0,-1.0,0.0,1.0,-1.0,-1.0
1701619185.4248745,-2.0,4.0,-2.0,0.0,-1.0,-1.0,-2.0,-1.0
1701619185.4248745,-1.0,4.0,-1.0,-1.0,-1.0,-2.0,-3.0,-2.0
1701619185.4349148,-2.0,5.0,-1.0,-3.0,0.0,0.0,-3.0,-1.0
1701619185.4349148,-3.0,3.0,-2.0,-1.0,-2.0,-1.0,0.0,-4.0
1701619185.4453003,-3.0,1.0,-1.0,-2.0,-1.0,-1.0,-1.0,-3.0
1701619185.4453003,-3.0,4.0,0.0,1.0,-1.0,0.0,0.0,-2.0
1701619185.4453003,-2.0,-1.0,0.0,1.0,1.0,0.0,-1.0,-2.0
1701619185.4453003,-4.0,1.0,0.0,-1.0,-1.0,0.0,-2.0,1.0
1701619185.454875,0.0,-1.0,0.0,-2.0,-1.0,0.0,-2.0,-1.0
1701619185.454875,-1.0,0.0,-1.0,-2.0,-1.0,0.0,-1.0,-1.0
1701619185.475271,-2.0,-1.0,-3.0,-1.0,0.0,0.0,0.0,-1.0
1701619185.475271,0.0,-2.0,-1.0,-1.0,-1.0,-3.0,0.0,-1.0
1701619185.4852598,-2.0,-2.0,-1.0,-2.0,0.0,-2.0,0.0,-1.0
1701619185.4852598,-2.0,-1.0,1.0,-2.0,0.0,-1.0,0.0,0.0
1701619185.4852598,-1.0,-3.0,-1.0,-1.0,-1.0,-2.0,-3.0,0.0
1701619185.4852598,-1.0,-2.0,-1.0,1.0,-1.0,-1.0,1.0,0.0
1701619185.5053277,-2.0,-2.0,-2.0,0.0,0.0,0.0,-3.0,-1.0
1701619185.5053277,0.0,-3.0,-2.0,-1.0,-3.0,-2.0,-2.0,-1.0
1701619185.5053277,-2.0,-3.0,-1.0,-3.0,-3.0,0.0,0.0,-1.0
1701619185.5053277,-2.0,-2.0,-1.0,-2.0,0.0,-2.0,0.0,-1.0
1701619185.5148747,-1.0,-1.0,0.0,-1.0,-1.0,-1.0,0.0,0.0
1701619185.5148747,-1.0,-2.0,0.0,0.0,1.0,-2.0,-1.0,-1.0
1701619185.5249004,0.0,-2.0,0.0,1.0,-1.0,-1.0,0.0,-2.0
1701619185.5249004,-1.0,-3.0,-2.0,-3.0,-1.0,0.0,-2.0,-2.0
1701619185.5452032,0.0,-2.0,-3.0,-2.0,-2.0,0.0,-3.0,-1.0
1701619185.5452032,0.0,-2.0,0.0,-1.0,-1.0,-1.0,-2.0,-2.0
1701619185.5452032,-1.0,-2.0,0.0,-2.0,0.0,-3.0,-1.0,0.0
1701619185.5452032,0.0,-2.0,0.0,-1.0,-1.0,-1.0,1.0,-1.0
1701619185.5651865,0.0,-2.0,1.0,-1.0,-1.0,-2.0,0.0,0.0
1701619185.5651865,-1.0,-1.0,0.0,-2.0,-1.0,0.0,0.0,0.0
1701619185.5651865,-1.0,-1.0,-2.0,-1.0,-1.0,2.0,1.0,0.0
1701619185.5651865,-1.0,0.0,-1.0,-1.0,-2.0,-1.0,-1.0,0.0
1701619185.5952375,-1.0,0.0,1.0,0.0,-2.0,-2.0,-2.0,-1.0
1701619185.5952375,-1.0,0.0,-1.0,-1.0,-1.0,0.0,-1.0,0.0
1701619185.6052325,-1.0,-2.0,-1.0,-1.0,0.0,0.0,-2.0,-2.0
1701619185.6052325,0.0,0.0,0.0,0.0,0.0,-1.0,-2.0,-2.0
1701619185.6052325,0.0,-1.0,-2.0,-2.0,-3.0,-1.0,-1.0,0.0
1701619185.6052325,-1.0,0.0,-1.0,1.0,-2.0,-1.0,-2.0,-3.0
1701619185.6052325,-1.0,-3.0,-1.0,-1.0,-3.0,-2.0,-2.0,-1.0
1701619185.6052325,0.0,-2.0,-2.0,0.0,-1.0,-2.0,0.0,0.0
1701619185.625265,-1.0,-2.0,-1.0,0.0,0.0,1.0,0.0,-3.0
1701619185.625265,-1.0,-2.0,-1.0,0.0,-1.0,0.0,0.0,-2.0
1701619185.625265,-2.0,-1.0,-1.0,-1.0,-1.0,-2.0,-2.0,1.0
1701619185.625265,0.0,-3.0,-1.0,-1.0,-1.0,0.0,-1.0,-1.0
1701619185.6354332,-2.0,-3.0,-2.0,0.0,-2.0,1.0,0.0,0.0
1701619185.6354332,-1.0,0.0,-2.0,-2.0,-1.0,-2.0,-1.0,-1.0
1701619185.6455483,0.0,-1.0,-1.0,0.0,-1.0,-1.0,0.0,-2.0
1701619185.6455483,0.0,-1.0,-1.0,0.0,1.0,-2.0,-2.0,-1.0
1701619185.6654065,0.0,-2.0,-1.0,-1.0,-1.0,-2.0,-1.0,-1.0
1701619185.6654065,-1.0,-1.0,-1.0,0.0,-1.0,-3.0,-1.0,1.0
1701619185.6654065,-2.0,-1.0,0.0,-2.0,0.0,-1.0,-1.0,-1.0
1701619185.6654065,-2.0,-1.0,-1.0,-2.0,-1.0,-2.0,1.0,-2.0
1701619185.6852334,-2.0,-1.0,-1.0,-2.0,-2.0,0.0,-2.0,-2.0
1701619185.6852334,0.0,-2.0,0.0,-1.0,-2.0,-1.0,-2.0,-2.0
1701619185.6852334,-1.0,-1.0,-3.0,-2.0,-1.0,-1.0,-2.0,-2.0
1701619185.6852334,0.0,-1.0,0.0,0.0,-2.0,0.0,-2.0,-2.0
1701619185.6953018,-2.0,-1.0,-1.0,-1.0,0.0,-1.0,1.0,-1.0
1701619185.6953018,-3.0,1.0,-1.0,-1.0,-1.0,-1.0,-1.0,-1.0
1701619185.7053971,-2.0,0.0,-2.0,-1.0,0.0,0.0,0.0,-3.0
1701619185.7053971,-1.0,-1.0,0.0,0.0,-1.0,0.0,-1.0,-1.0
1701619185.725398,0.0,1.0,-2.0,0.0,-3.0,0.0,0.0,-2.0
1701619185.725398,-1.0,-1.0,-1.0,0.0,-2.0,-1.0,0.0,0.0
1701619185.725398,-2.0,0.0,-1.0,-2.0,-2.0,-1.0,-1.0,1.0
1701619185.725398,-2.0,1.0,-1.0,-1.0,0.0,-1.0,-2.0,0.0
1701619185.7554307,-1.0,0.0,0.0,-2.0,0.0,-1.0,-2.0,0.0
1701619185.7554307,-1.0,-1.0,-1.0,-1.0,0.0,-1.0,-3.0,-1.0
1701619185.7554307,0.0,-1.0,1.0,-1.0,-3.0,-2.0,-1.0,-1.0
1701619185.7554307,-1.0,-3.0,-1.0,-1.0,-1.0,-2.0,-2.0,-2.0
1701619185.7554307,-1.0,-2.0,0.0,-1.0,-1.0,-2.0,-1.0,1.0
1701619185.7554307,0.0,-2.0,0.0,0.0,-1.0,-3.0,-1.0,-1.0
1701619185.7654085,-2.0,-4.0,-1.0,1.0,-2.0,-2.0,-1.0,-1.0
1701619185.7654085,-1.0,1.0,0.0,-2.0,-1.0,0.0,-3.0,2.0
1701619185.7853477,1.0,-1.0,-1.0,0.0,0.0,0.0,0.0,0.0
1701619185.7853477,0.0,1.0,-1.0,-1.0,-2.0,0.0,0.0,-2.0
1701619185.7853477,1.0,1.0,-1.0,-1.0,1.0,1.0,1.0,0.0
1701619185.7853477,-2.0,0.0,-1.0,-1.0,-1.0,0.0,0.0,-2.0
1701619185.8152325,-1.0,-1.0,-1.0,-1.0,0.0,-1.0,-1.0,-1.0
1701619185.8152325,0.0,-1.0,0.0,-4.0,-1.0,0.0,-2.0,0.0
1701619185.8152325,-2.0,0.0,-1.0,-1.0,-1.0,0.0,-1.0,-1.0
1701619185.8152325,0.0,0.0,-2.0,-2.0,-2.0,-1.0,0.0,-1.0
1701619185.8152325,-1.0,-2.0,-1.0,0.0,0.0,-2.0,-1.0,-1.0
1701619185.8152325,-1.0,-1.0,-1.0,-1.0,-1.0,0.0,-2.0,-2.0
1701619185.8252678,-1.0,0.0,-1.0,0.0,-1.0,-1.0,-1.0,-2.0
1701619185.8252678,-2.0,-3.0,-2.0,-1.0,-1.0,-1.0,-1.0,-2.0
1701619185.8552356,-1.0,-1.0,-2.0,-1.0,-2.0,-1.0,-2.0,-3.0
1701619185.8552356,-1.0,-1.0,0.0,-1.0,-1.0,-2.0,-1.0,-1.0
1701619185.8552356,-2.0,-2.0,-3.0,0.0,-2.0,-1.0,-2.0,-1.0
1701619185.8552356,-2.0,0.0,0.0,1.0,-1.0,-1.0,-1.0,0.0
1701619185.8756385,-2.0,-1.0,-1.0,-1.0,-1.0,-1.0,-1.0,-1.0
1701619185.8756385,0.0,0.0,-3.0,-1.0,-1.0,-1.0,-2.0,-2.0
1701619185.8756385,1.0,-1.0,-1.0,-1.0,0.0,0.0,-1.0,0.0
1701619185.8756385,-1.0,-3.0,-1.0,-1.0,-2.0,-2.0,-1.0,-1.0
1701619185.8756385,0.0,-1.0,1.0,-1.0,-1.0,-2.0,0.0,-1.0
1701619185.8756385,-1.0,-2.0,0.0,-1.0,-2.0,-1.0,-1.0,-2.0
1701619185.8855226,-1.0,0.0,0.0,-2.0,-2.0,-2.0,-1.0,-1.0
1701619185.8855226,0.0,-2.0,-1.0,0.0,1.0,-4.0,-3.0,-1.0
1701619185.905279,1.0,-2.0,0.0,0.0,-1.0,0.0,-2.0,-1.0
1701619185.905279,-1.0,-4.0,0.0,1.0,-1.0,-1.0,0.0,0.0
1701619185.9215536,-1.0,-2.0,-2.0,-1.0,-1.0,-1.0,-1.0,-2.0
1701619185.9215536,-1.0,-3.0,-1.0,-1.0,0.0,-2.0,0.0,0.0
1701619185.928557,-2.0,0.0,1.0,-1.0,0.0,-1.0,0.0,-1.0
1701619185.928557,-1.0,-2.0,-1.0,0.0,-1.0,-2.0,0.0,-1.0
1701619185.928557,-3.0,-1.0,0.0,0.0,0.0,0.0,-3.0,0.0
1701619185.928557,0.0,0.0,-1.0,-1.0,-1.0,-1.0,1.0,0.0
1701619185.9428055,-2.0,-3.0,-2.0,0.0,-2.0,0.0,0.0,-1.0
1701619185.9428055,0.0,1.0,-2.0,0.0,1.0,0.0,-1.0,-1.0
1701619185.9475975,-1.0,2.0,1.0,-2.0,-1.0,-1.0,0.0,-1.0
1701619185.9475975,-1.0,1.0,-2.0,0.0,0.0,1.0,2.0,-2.0
1701619185.9675975,-2.0,2.0,-2.0,0.0,-1.0,0.0,3.0,-1.0
1701619185.9675975,0.0,2.0,0.0,-1.0,-1.0,1.0,3.0,0.0
1701619185.9675975,-1.0,0.0,-1.0,-1.0,-1.0,1.0,1.0,-1.0
1701619185.9675975,-1.0,3.0,0.0,0.0,0.0,-2.0,0.0,-2.0
1701619185.9880538,-1.0,2.0,-1.0,-2.0,-2.0,-1.0,-2.0,-2.0
1701619185.9880538,-3.0,2.0,-1.0,-1.0,-3.0,-1.0,-3.0,-2.0
1701619185.9880538,-3.0,0.0,-1.0,1.0,-1.0,-2.0,-4.0,-1.0
1701619185.9880538,-2.0,-2.0,-2.0,-2.0,-2.0,-1.0,-3.0,-2.0
1701619185.9979959,-1.0,-2.0,0.0,-1.0,0.0,-2.0,-6.0,1.0
1701619185.9979959,-2.0,-2.0,-2.0,-2.0,0.0,0.0,-6.0,0.0
1701619186.008128,0.0,-1.0,-2.0,-2.0,-1.0,0.0,-1.0,-1.0
1701619186.008128,-2.0,1.0,0.0,-1.0,-1.0,1.0,-1.0,-1.0
1701619186.0277526,-3.0,0.0,0.0,-1.0,-3.0,1.0,-1.0,-1.0
1701619186.0277526,-2.0,-1.0,0.0,0.0,-3.0,1.0,-2.0,-3.0
1701619186.0277526,-1.0,-3.0,0.0,0.0,-1.0,2.0,0.0,-1.0
1701619186.0277526,-2.0,-6.0,0.0,-2.0,-1.0,1.0,0.0,-3.0
1701619186.0477598,0.0,-8.0,-3.0,-1.0,0.0,0.0,-2.0,-2.0
1701619186.0477598,-1.0,-7.0,-1.0,-1.0,-1.0,-4.0,0.0,-2.0
1701619186.0477598,-2.0,-5.0,0.0,-1.0,-1.0,-3.0,0.0,-1.0
1701619186.0477598,-1.0,-5.0,-1.0,-1.0,-1.0,-3.0,4.0,-1.0
1701619186.057985,0.0,-3.0,-3.0,0.0,-1.0,-2.0,6.0,2.0
1701619186.057985,1.0,0.0,-2.0,0.0,0.0,-2.0,6.0,3.0
1701619186.0878148,0.0,2.0,-1.0,0.0,1.0,-1.0,4.0,2.0
1701619186.0878148,0.0,2.0,-1.0,0.0,-1.0,-1.0,1.0,0.0
1701619186.0878148,-1.0,1.0,-1.0,0.0,0.0,-2.0,-1.0,1.0
1701619186.0878148,0.0,2.0,0.0,-3.0,0.0,-2.0,-5.0,-2.0
1701619186.0878148,-1.0,0.0,-2.0,-3.0,-2.0,-1.0,-3.0,0.0
1701619186.0878148,-1.0,0.0,0.0,-2.0,-2.0,-1.0,-3.0,-1.0
1701619186.1078155,-1.0,1.0,-1.0,0.0,-2.0,0.0,-1.0,0.0
1701619186.1078155,-3.0,0.0,0.0,-1.0,-1.0,-1.0,0.0,-1.0
1701619186.1078155,-1.0,0.0,0.0,0.0,0.0,-2.0,0.0,-3.0
1701619186.1078155,-3.0,2.0,-3.0,0.0,-1.0,0.0,0.0,0.0
1701619186.1181445,-2.0,3.0,-2.0,-3.0,-1.0,-2.0,1.0,-2.0
1701619186.1181445,-2.0,0.0,-2.0,0.0,-1.0,-1.0,2.0,-1.0
1701619186.1378417,-2.0,1.0,0.0,-2.0,-1.0,-3.0,0.0,-1.0
1701619186.1378417,-1.0,-1.0,-2.0,-1.0,-1.0,-2.0,-3.0,0.0
1701619186.1378417,-2.0,2.0,-1.0,-1.0,1.0,-1.0,-6.0,-4.0
1701619186.1378417,-1.0,4.0,-1.0,-2.0,-2.0,-1.0,-8.0,-2.0
1701619186.1481175,-2.0,7.0,-4.0,-2.0,-2.0,0.0,-6.0,2.0
1701619186.1481175,-2.0,5.0,-2.0,-2.0,-3.0,1.0,-7.0,-10.0
1701619186.168139,-2.0,4.0,-1.0,-2.0,-2.0,2.0,-2.0,-1.0
1701619186.168139,-1.0,2.0,-2.0,-1.0,-2.0,1.0,1.0,-2.0
1701619186.168139,-3.0,1.0,-2.0,0.0,-2.0,-1.0,-2.0,-2.0
1701619186.168139,-2.0,0.0,1.0,-2.0,-1.0,0.0,0.0,0.0
1701619186.1781416,-2.0,-3.0,-1.0,-1.0,-1.0,-2.0,-2.0,-4.0
1701619186.1781416,-2.0,-5.0,1.0,-1.0,0.0,-2.0,0.0,-3.0
1701619186.1883485,-1.0,-8.0,0.0,-1.0,-1.0,-2.0,-1.0,-1.0
1701619186.1883485,-3.0,-6.0,0.0,1.0,-2.0,-1.0,-1.0,1.0
1701619186.218136,0.0,-5.0,1.0,0.0,0.0,-2.0,-2.0,-3.0
1701619186.218136,0.0,-4.0,-1.0,-1.0,-1.0,-2.0,-2.0,0.0
1701619186.218136,-1.0,-3.0,1.0,-1.0,-2.0,0.0,-2.0,-1.0
1701619186.218136,0.0,-6.0,0.0,-1.0,-1.0,-1.0,-2.0,0.0
1701619186.2281356,1.0,-5.0,0.0,-1.0,0.0,-2.0,-2.0,-1.0
1701619186.2281356,0.0,-7.0,1.0,-1.0,-2.0,-2.0,-1.0,1.0
1701619186.2281356,0.0,-4.0,3.0,-1.0,-1.0,-1.0,0.0,0.0
1701619186.2281356,0.0,-4.0,-1.0,-1.0,-1.0,-1.0,0.0,0.0
1701619186.2581353,-1.0,-2.0,-1.0,-2.0,0.0,-2.0,1.0,2.0
1701619186.2581353,0.0,-1.0,-1.0,-1.0,0.0,-3.0,0.0,0.0
1701619186.2581353,-1.0,-2.0,-2.0,-2.0,-2.0,0.0,0.0,-1.0
1701619186.2581353,-1.0,-2.0,0.0,1.0,0.0,-3.0,-1.0,1.0
1701619186.2581353,-1.0,-2.0,0.0,-1.0,-3.0,0.0,-3.0,1.0
1701619186.2581353,0.0,-2.0,-1.0,0.0,-1.0,0.0,-2.0,-1.0
1701619186.2683213,1.0,-1.0,0.0,-1.0,-2.0,-2.0,-2.0,-1.0
1701619186.2683213,1.0,0.0,-1.0,-1.0,0.0,-1.0,-1.0,-1.0
1701619186.2881398,0.0,0.0,-2.0,-1.0,-1.0,0.0,0.0,-1.0
1701619186.2881398,0.0,0.0,-3.0,-1.0,-1.0,1.0,-1.0,-1.0
1701619186.3081386,0.0,0.0,0.0,-1.0,0.0,-1.0,-1.0,-1.0
1701619186.3081386,-3.0,0.0,-1.0,0.0,0.0,-2.0,-2.0,-1.0
1701619186.3081386,-1.0,0.0,0.0,-1.0,-1.0,-3.0,2.0,0.0
1701619186.3081386,-2.0,-1.0,-3.0,-1.0,-2.0,-1.0,2.0,-2.0
1701619186.3181756,-1.0,-2.0,-3.0,-1.0,1.0,0.0,0.0,-2.0
1701619186.3181756,-2.0,-2.0,0.0,-1.0,-2.0,-2.0,-2.0,-1.0
1701619186.3181756,0.0,-3.0,0.0,-2.0,0.0,-1.0,-4.0,-1.0
1701619186.3181756,0.0,-2.0,0.0,-1.0,-1.0,-1.0,0.0,-1.0
1701619186.3283217,0.0,-2.0,-2.0,-1.0,1.0,-3.0,-2.0,-1.0
1701619186.3283217,0.0,-2.0,-1.0,-1.0,-1.0,0.0,2.0,0.0
1701619186.3681383,0.0,-2.0,-2.0,-1.0,-2.0,0.0,-1.0,0.0
1701619186.3681383,-1.0,3.0,-2.0,-2.0,-1.0,-1.0,1.0,2.0
1701619186.3681383,-2.0,4.0,-2.0,1.0,-1.0,1.0,1.0,1.0
1701619186.3681383,-1.0,3.0,-3.0,-2.0,-1.0,0.0,0.0,0.0
1701619186.3681383,-2.0,3.0,-1.0,-3.0,-2.0,0.0,2.0,-3.0
1701619186.3681383,-1.0,1.0,-1.0,-2.0,-1.0,0.0,-2.0,-1.0
1701619186.378179,-2.0,1.0,-3.0,0.0,-1.0,0.0,0.0,-3.0
1701619186.378179,-3.0,3.0,-1.0,-1.0,0.0,0.0,-2.0,-1.0
1701619186.378179,0.0,2.0,-2.0,-1.0,1.0,2.0,-2.0,-2.0
1701619186.378179,-2.0,2.0,1.0,-3.0,-2.0,0.0,-4.0,-2.0
1701619186.398512,-4.0,0.0,-2.0,-1.0,-1.0,-1.0,-2.0,-4.0
1701619186.398512,-1.0,1.0,0.0,-1.0,-1.0,-1.0,-1.0,-2.0
1701619186.4181397,-1.0,0.0,-1.0,1.0,-1.0,-1.0,-2.0,-2.0
1701619186.4181397,-3.0,-3.0,0.0,-2.0,0.0,-2.0,-2.0,-1.0
1701619186.4181397,-1.0,-5.0,-1.0,-1.0,-1.0,-3.0,-3.0,-1.0
1701619186.4181397,-2.0,-7.0,0.0,-2.0,-1.0,-2.0,-3.0,-2.0
1701619186.4283116,-1.0,-8.0,1.0,-1.0,-1.0,-3.0,1.0,0.0
1701619186.4283116,-1.0,-8.0,0.0,2.0,-1.0,-3.0,0.0,0.0
1701619186.4400113,1.0,-7.0,0.0,0.0,-2.0,-2.0,0.0,1.0
1701619186.4400113,1.0,-5.0,-1.0,0.0,0.0,-2.0,2.0,0.0
1701619186.4474661,1.0,-4.0,0.0,-1.0,-1.0,-3.0,-2.0,0.0
1701619186.4474661,-1.0,-2.0,0.0,1.0,0.0,-2.0,-1.0,0.0
1701619186.4545333,-3.0,-2.0,-2.0,-2.0,-1.0,0.0,-1.0,-2.0
1701619186.4545333,0.0,-2.0,-2.0,0.0,1.0,-1.0,-3.0,0.0
1701619186.4636233,-1.0,0.0,-1.0,-1.0,-1.0,1.0,0.0,0.0
1701619186.4636233,0.0,-1.0,-2.0,-1.0,1.0,-1.0,-1.0,-1.0
1701619186.47365,-1.0,-3.0,-1.0,-1.0,0.0,-1.0,-2.0,-1.0
1701619186.47365,-1.0,-1.0,-1.0,0.0,-1.0,-2.0,1.0,1.0
1701619186.4840004,0.0,0.0,-3.0,-1.0,0.0,-3.0,0.0,0.0
1701619186.4840004,-2.0,0.0,-2.0,-2.0,0.0,-1.0,-3.0,-2.0
1701619186.4940464,1.0,-1.0,0.0,-2.0,0.0,-2.0,0.0,0.0
1701619186.4940464,0.0,0.0,0.0,-1.0,0.0,0.0,-1.0,-3.0
1701619186.5044396,0.0,1.0,-1.0,0.0,-1.0,1.0,0.0,-1.0
1701619186.5044396,-2.0,-3.0,1.0,-2.0,0.0,-1.0,1.0,-1.0
1701619186.51406,0.0,0.0,1.0,2.0,1.0,0.0,-1.0,-1.0
1701619186.51406,0.0,-1.0,1.0,-2.0,-1.0,-1.0,-1.0,0.0
1701619186.524058,-2.0,-2.0,0.0,-1.0,-2.0,-3.0,-3.0,-2.0
1701619186.524058,0.0,-1.0,0.0,0.0,0.0,0.0,-2.0,1.0
1701619186.5340576,2.0,-2.0,0.0,-1.0,-1.0,0.0,-1.0,-3.0
1701619186.5340576,-2.0,0.0,-3.0,-2.0,-1.0,-1.0,1.0,1.0
1701619186.5440598,0.0,-2.0,-2.0,-2.0,0.0,-1.0,-2.0,-1.0
1701619186.5440598,0.0,-1.0,0.0,-1.0,-2.0,0.0,-1.0,-2.0
1701619186.554342,-2.0,1.0,0.0,-1.0,-3.0,0.0,-2.0,0.0
1701619186.554342,1.0,0.0,-1.0,0.0,-1.0,-1.0,-1.0,-3.0
1701619186.5644152,0.0,0.0,-1.0,0.0,-1.0,0.0,0.0,-1.0
1701619186.5644152,-2.0,-1.0,-1.0,0.0,-1.0,0.0,1.0,0.0
1701619186.574062,-1.0,-2.0,-1.0,0.0,0.0,0.0,-1.0,0.0
1701619186.574062,-2.0,-2.0,-1.0,0.0,-1.0,0.0,-3.0,-2.0
1701619186.5840585,-3.0,-2.0,-2.0,-1.0,-3.0,-2.0,1.0,-1.0
1701619186.5840585,-2.0,-1.0,-3.0,-1.0,0.0,-2.0,-2.0,-2.0
1701619186.5943666,0.0,-1.0,0.0,-2.0,0.0,-1.0,-1.0,0.0
1701619186.5943666,-2.0,-2.0,-2.0,-1.0,0.0,-2.0,-2.0,1.0
1701619186.6043794,0.0,-1.0,-1.0,0.0,0.0,-1.0,-1.0,-1.0
1701619186.6043794,-1.0,-2.0,-1.0,0.0,-1.0,0.0,-1.0,0.0
1701619186.614352,-1.0,-1.0,-2.0,1.0,-1.0,-2.0,-1.0,-1.0
1701619186.614352,1.0,-2.0,0.0,0.0,-2.0,-2.0,0.0,0.0
1701619186.6243715,-1.0,-3.0,-1.0,0.0,1.0,-2.0,0.0,1.0
1701619186.6243715,-2.0,-1.0,-1.0,-1.0,-1.0,-1.0,1.0,-1.0
1701619186.6340606,0.0,0.0,-2.0,-1.0,-2.0,-1.0,0.0,0.0
1701619186.6340606,-1.0,1.0,-1.0,-2.0,-2.0,0.0,0.0,-1.0
1701619186.644059,-1.0,0.0,-1.0,-1.0,-3.0,0.0,-2.0,0.0
1701619186.644059,1.0,-2.0,0.0,-1.0,-1.0,-1.0,-2.0,0.0
1701619186.6544132,0.0,1.0,1.0,-1.0,0.0,-2.0,0.0,-2.0
1701619186.6544132,-1.0,-2.0,0.0,-1.0,0.0,-2.0,-2.0,-2.0
1701619186.6644719,-1.0,-1.0,-2.0,-1.0,-2.0,-3.0,-1.0,-1.0
1701619186.6644719,0.0,0.0,-2.0,-3.0,-1.0,-1.0,-1.0,-1.0
1701619186.6744285,-1.0,-1.0,-2.0,-1.0,0.0,1.0,0.0,0.0
1701619186.6744285,-1.0,-1.0,-2.0,-2.0,0.0,-1.0,-1.0,0.0
1701619186.6840582,0.0,0.0,0.0,1.0,-2.0,-1.0,1.0,-2.0
1701619186.6840582,-1.0,-2.0,0.0,1.0,-1.0,-1.0,-2.0,0.0
1701619186.6940558,-2.0,-2.0,-2.0,-1.0,-2.0,-2.0,-1.0,-2.0
1701619186.6940558,-4.0,-14.0,-4.0,-1.0,-1.0,-2.0,-2.0,-2.0
1701619186.70448,-2.0,1.0,-3.0,-3.0,-1.0,1.0,-2.0,0.0
1701619186.70448,-1.0,-1.0,0.0,0.0,-1.0,-1.0,0.0,0.0
1701619186.7140596,-2.0,-1.0,-1.0,-1.0,-2.0,0.0,-1.0,-1.0
1701619186.7140596,0.0,1.0,-1.0,-2.0,-3.0,-2.0,1.0,-1.0
1701619186.7343931,-1.0,-3.0,-1.0,-1.0,-1.0,-1.0,-2.0,-2.0
1701619186.7343931,-2.0,-2.0,-4.0,-2.0,-1.0,-1.0,0.0,-2.0
1701619186.7343931,-2.0,-1.0,1.0,-1.0,-1.0,-1.0,-2.0,-1.0
1701619186.7343931,0.0,3.0,1.0,-2.0,0.0,1.0,1.0,-1.0
1701619186.7440593,-2.0,-1.0,-1.0,-1.0,-2.0,-2.0,-1.0,-1.0
1701619186.7440593,-1.0,4.0,-2.0,0.0,0.0,0.0,-1.0,-1.0
1701619186.7540562,-1.0,-1.0,-5.0,-1.0,0.0,-3.0,0.0,-1.0
1701619186.7540562,0.0,2.0,0.0,-1.0,0.0,-2.0,0.0,-1.0
1701619186.7644463,-1.0,0.0,-2.0,1.0,-1.0,-1.0,-2.0,-1.0
1701619186.7644463,4.0,-4.0,0.0,-1.0,-1.0,-2.0,0.0,0.0
1701619186.774446,0.0,1.0,1.0,-2.0,-2.0,-1.0,-1.0,-2.0
1701619186.774446,0.0,0.0,0.0,0.0,0.0,0.0,-1.0,-1.0
1701619186.794453,-5.0,-12.0,3.0,0.0,-1.0,0.0,-1.0,-2.0
1701619186.794453,3.0,15.0,0.0,-1.0,-2.0,-2.0,-1.0,1.0
1701619186.794453,-2.0,-3.0,-3.0,1.0,0.0,1.0,0.0,-2.0
1701619186.794453,1.0,2.0,0.0,-1.0,-2.0,-1.0,-2.0,-2.0
1701619186.8040607,0.0,-1.0,-1.0,0.0,-1.0,0.0,-2.0,0.0
1701619186.8040607,-2.0,-6.0,-3.0,0.0,-1.0,-2.0,-2.0,-1.0
1701619186.814056,-1.0,-2.0,-3.0,-3.0,-1.0,-1.0,-1.0,0.0
1701619186.814056,-2.0,3.0,-2.0,-2.0,-1.0,-1.0,-1.0,0.0
1701619186.824297,1.0,3.0,-1.0,0.0,0.0,0.0,-1.0,0.0
1701619186.824297,-4.0,-4.0,-1.0,0.0,-1.0,-1.0,-4.0,-2.0
1701619186.834338,2.0,0.0,1.0,-1.0,-1.0,-1.0,-1.0,0.0
1701619186.834338,-1.0,-5.0,-2.0,0.0,-2.0,-2.0,-1.0,0.0
1701619186.8442986,-2.0,-2.0,-2.0,-2.0,0.0,-3.0,2.0,-1.0
1701619186.8442986,0.0,-2.0,1.0,0.0,0.0,0.0,0.0,-3.0
1701619186.8543212,-2.0,-3.0,-2.0,0.0,1.0,-3.0,-1.0,-2.0
1701619186.8543212,-1.0,-1.0,1.0,-1.0,-1.0,0.0,-3.0,-1.0
1701619186.8840609,-1.0,1.0,0.0,-1.0,0.0,1.0,-1.0,0.0
1701619186.8840609,-3.0,-1.0,-1.0,-1.0,-2.0,0.0,0.0,-1.0
1701619186.8840609,-1.0,-1.0,-1.0,-1.0,-2.0,0.0,-2.0,-2.0
1701619186.8840609,-1.0,-1.0,-1.0,-1.0,-1.0,-2.0,0.0,-3.0
1701619186.8840609,1.0,1.0,-1.0,-1.0,-1.0,-3.0,-3.0,0.0
1701619186.8840609,-1.0,-5.0,-2.0,-2.0,0.0,-1.0,-2.0,-1.0
1701619186.894057,-2.0,0.0,0.0,0.0,-1.0,0.0,-2.0,-1.0
1701619186.894057,-2.0,-1.0,-1.0,1.0,1.0,1.0,-1.0,0.0
1701619186.9043338,-1.0,0.0,-1.0,-1.0,0.0,0.0,0.0,0.0
1701619186.9043338,-1.0,-3.0,-2.0,-1.0,-1.0,-2.0,-1.0,-2.0
1701619186.9143138,0.0,0.0,-1.0,-2.0,-1.0,-1.0,0.0,-2.0
1701619186.9143138,-1.0,1.0,-1.0,0.0,-2.0,0.0,-1.0,-1.0
1701619186.944056,-1.0,0.0,-2.0,-1.0,-2.0,0.0,0.0,-1.0
1701619186.944056,-1.0,0.0,-1.0,0.0,-1.0,-1.0,-1.0,-1.0
1701619186.944056,-1.0,-1.0,-1.0,-1.0,-1.0,1.0,1.0,0.0
1701619186.944056,-2.0,-1.0,-3.0,-1.0,0.0,0.0,-2.0,-1.0
1701619186.944056,-2.0,-1.0,-1.0,0.0,-1.0,-1.0,-2.0,-2.0
1701619186.944056,-3.0,-2.0,-2.0,-2.0,-2.0,0.0,-2.0,0.0
1701619186.9543211,-1.0,-1.0,0.0,-2.0,-2.0,-2.0,0.0,0.0
1701619186.9543211,-1.0,0.0,-1.0,-1.0,0.0,-3.0,-1.0,-1.0
1701619186.9925818,-1.0,-2.0,-1.0,-1.0,0.0,-1.0,0.0,-1.0
1701619186.9925818,-1.0,-1.0,-2.0,0.0,-1.0,-1.0,0.0,-1.0
1701619186.9925818,0.0,-1.0,0.0,-1.0,0.0,-3.0,-3.0,0.0
1701619186.9925818,0.0,-2.0,0.0,-2.0,-1.0,-2.0,-1.0,-2.0
1701619186.9964423,-2.0,0.0,-2.0,-1.0,-1.0,-1.0,-1.0,-3.0
1701619186.9964423,0.0,-3.0,0.0,0.0,0.0,-1.0,-2.0,-4.0
1701619186.9964423,-1.0,-2.0,-1.0,-1.0,1.0,0.0,-1.0,-1.0
1701619186.9964423,0.0,-1.0,-1.0,-1.0,-2.0,0.0,-1.0,-1.0
1701619187.0064456,0.0,-1.0,0.0,-2.0,-2.0,-2.0,-1.0,1.0
1701619187.0064456,-2.0,0.0,1.0,-1.0,0.0,0.0,0.0,-3.0
1701619187.0164456,-2.0,-2.0,-2.0,0.0,0.0,-1.0,-1.0,-1.0
1701619187.0164456,-1.0,0.0,0.0,-2.0,-2.0,-1.0,-1.0,-2.0
1701619187.0264452,0.0,2.0,-1.0,-1.0,0.0,0.0,-2.0,-2.0
1701619187.0264452,-1.0,-1.0,-2.0,-3.0,-2.0,-2.0,0.0,0.0
1701619187.0368373,0.0,-2.0,0.0,-2.0,0.0,-1.0,-2.0,0.0
1701619187.0368373,-1.0,-3.0,-1.0,-2.0,-1.0,0.0,-2.0,0.0
1701619187.0368373,-1.0,-1.0,-1.0,-1.0,0.0,-2.0,-1.0,-1.0
1701619187.0368373,0.0,-1.0,-2.0,-1.0,-2.0,-1.0,-2.0,-1.0
1701619187.0572772,-1.0,0.0,-2.0,0.0,0.0,-2.0,-1.0,-1.0
1701619187.0572772,-1.0,-3.0,0.0,0.0,0.0,-1.0,1.0,-2.0
1701619187.067216,-2.0,0.0,-2.0,-2.0,0.0,0.0,1.0,0.0
1701619187.067216,-2.0,2.0,-1.0,1.0,-1.0,0.0,2.0,1.0
1701619187.0768511,0.0,1.0,-2.0,0.0,-3.0,0.0,0.0,-1.0
1701619187.0768511,-1.0,0.0,0.0,0.0,-1.0,0.0,2.0,1.0
1701619187.0968478,0.0,-1.0,0.0,-1.0,-2.0,-1.0,1.0,-2.0
1701619187.0968478,-1.0,0.0,-1.0,-2.0,0.0,0.0,-1.0,-2.0
1701619187.0968478,-1.0,2.0,-2.0,-3.0,-1.0,0.0,-2.0,-1.0
1701619187.0968478,-2.0,3.0,-2.0,-1.0,-2.0,0.0,-2.0,-1.0
1701619187.0968478,2.0,-1.0,-2.0,-1.0,0.0,0.0,-3.0,-1.0
1701619187.0968478,-8.0,-2.0,-2.0,0.0,-3.0,0.0,-3.0,-1.0
1701619187.1071694,-2.0,0.0,-1.0,0.0,-1.0,-3.0,-4.0,-2.0
1701619187.1071694,-2.0,0.0,-2.0,-3.0,0.0,-2.0,-2.0,-1.0
1701619187.126862,1.0,-2.0,-2.0,0.0,0.0,-2.0,-1.0,-2.0
1701619187.126862,2.0,-2.0,-3.0,-1.0,0.0,-2.0,-2.0,-1.0
1701619187.1368492,-1.0,-2.0,-1.0,-2.0,-2.0,0.0,-1.0,0.0
1701619187.1368492,-1.0,-2.0,-2.0,-2.0,0.0,-2.0,-1.0,-1.0
1701619187.1468956,-1.0,-1.0,0.0,-1.0,-2.0,1.0,-1.0,0.0
1701619187.1468956,2.0,-3.0,0.0,-2.0,0.0,-1.0,-2.0,-1.0
1701619187.15713,-2.0,-3.0,0.0,-1.0,-2.0,1.0,2.0,-2.0
1701619187.15713,1.0,-3.0,-1.0,-2.0,-2.0,-2.0,-1.0,-1.0
1701619187.15713,-1.0,-1.0,-3.0,-2.0,-2.0,-1.0,-2.0,-2.0
1701619187.15713,-1.0,-3.0,0.0,0.0,-1.0,-3.0,-2.0,0.0
1701619187.1670067,1.0,-3.0,-1.0,0.0,-1.0,-2.0,0.0,-1.0
1701619187.1670067,0.0,0.0,0.0,0.0,-1.0,-1.0,0.0,-1.0
1701619187.1968524,-2.0,1.0,0.0,-1.0,-2.0,0.0,-1.0,-1.0
1701619187.1968524,0.0,0.0,-1.0,-2.0,-1.0,-2.0,-1.0,0.0
1701619187.1968524,0.0,-1.0,-3.0,-1.0,0.0,-2.0,-1.0,0.0
1701619187.1968524,1.0,-3.0,-2.0,0.0,-1.0,-1.0,-1.0,-1.0
1701619187.226851,-1.0,-3.0,0.0,-1.0,0.0,-4.0,1.0,0.0
1701619187.226851,1.0,-3.0,-1.0,-1.0,-1.0,-2.0,3.0,-1.0
1701619187.226851,0.0,-3.0,0.0,-1.0,-2.0,-2.0,1.0,-1.0
1701619187.226851,-1.0,-4.0,-2.0,0.0,-2.0,0.0,0.0,-1.0
1701619187.226851,0.0,-4.0,-3.0,-1.0,-1.0,-2.0,-2.0,-2.0
1701619187.226851,2.0,-3.0,-1.0,-1.0,-2.0,-1.0,-1.0,-2.0
1701619187.226851,0.0,-2.0,1.0,-1.0,-1.0,-1.0,-1.0,-1.0
1701619187.226851,-2.0,0.0,0.0,-1.0,-1.0,-3.0,0.0,-1.0
1701619187.2469676,-2.0,0.0,-1.0,-2.0,0.0,0.0,-5.0,-1.0
1701619187.2469676,-1.0,1.0,-1.0,-1.0,0.0,0.0,-2.0,0.0
1701619187.25685,-3.0,2.0,-1.0,-1.0,-1.0,1.0,-1.0,-1.0
1701619187.25685,-1.0,1.0,-2.0,0.0,-1.0,-1.0,-1.0,-3.0
1701619187.2771208,-1.0,2.0,-2.0,-1.0,-1.0,2.0,-1.0,-1.0
1701619187.2771208,-2.0,2.0,-1.0,0.0,0.0,-2.0,-1.0,-2.0
1701619187.2771208,-2.0,0.0,-1.0,1.0,1.0,-1.0,-1.0,-1.0
1701619187.2771208,-2.0,0.0,-1.0,0.0,-1.0,1.0,-1.0,-3.0
1701619187.2872398,-1.0,0.0,-3.0,0.0,-2.0,-1.0,-2.0,-1.0
1701619187.2872398,0.0,-1.0,-1.0,-1.0,1.0,1.0,-2.0,-2.0
1701619187.2872398,1.0,1.0,0.0,-3.0,-4.0,-5.0,-1.0,-1.0
1701619187.2872398,-2.0,1.0,0.0,-2.0,-2.0,-4.0,-2.0,1.0
1701619187.3068476,-1.0,-2.0,-1.0,0.0,-3.0,-4.0,-2.0,-1.0
1701619187.3068476,-2.0,0.0,-1.0,-1.0,-1.0,-2.0,-1.0,-1.0
1701619187.3168488,-1.0,-2.0,-2.0,-2.0,-1.0,-2.0,-1.0,0.0
1701619187.3168488,-4.0,-5.0,-2.0,-2.0,2.0,3.0,-4.0,-3.0
1701619187.3368545,-3.0,-3.0,3.0,1.0,0.0,-3.0,5.0,-1.0
1701619187.3368545,-1.0,-3.0,-1.0,-3.0,-2.0,4.0,1.0,0.0
1701619187.3368545,-5.0,-8.0,-3.0,-1.0,-1.0,-1.0,-5.0,-7.0
1701619187.3368545,2.0,0.0,1.0,2.0,2.0,4.0,6.0,2.0
1701619187.3471947,-2.0,-2.0,-1.0,-1.0,-2.0,0.0,-1.0,0.0
1701619187.3471947,0.0,0.0,-1.0,-2.0,-1.0,-1.0,0.0,0.0
1701619187.3471947,1.0,-1.0,-3.0,-4.0,-3.0,-5.0,-6.0,0.0
1701619187.3471947,-1.0,-1.0,-1.0,-4.0,-3.0,-3.0,-4.0,0.0
1701619187.36685,0.0,0.0,-2.0,0.0,0.0,0.0,-1.0,-2.0
1701619187.36685,-2.0,0.0,0.0,-2.0,-2.0,-1.0,-2.0,1.0
1701619187.3768542,-1.0,0.0,-1.0,0.0,-1.0,1.0,0.0,-1.0
1701619187.3768542,-1.0,-2.0,-1.0,-1.0,-1.0,-1.0,-2.0,-2.0
1701619187.3872912,2.0,-1.0,-1.0,-1.0,0.0,0.0,-1.0,1.0
1701619187.3872912,0.0,-4.0,-2.0,-1.0,-2.0,-3.0,-3.0,-2.0
1701619187.3972242,-1.0,-2.0,0.0,-1.0,1.0,0.0,0.0,0.0
1701619187.3972242,-1.0,-2.0,-2.0,-1.0,-2.0,-1.0,0.0,-1.0
1701619187.426848,-2.0,-2.0,0.0,-3.0,-1.0,-1.0,-2.0,-2.0
1701619187.426848,2.0,-2.0,0.0,0.0,-1.0,-2.0,0.0,-2.0
1701619187.426848,0.0,-2.0,0.0,1.0,0.0,1.0,2.0,0.0
1701619187.426848,1.0,-2.0,-2.0,0.0,-2.0,-4.0,0.0,0.0
1701619187.426848,-2.0,-1.0,-1.0,-1.0,-2.0,0.0,-2.0,-2.0
1701619187.426848,-2.0,-1.0,-2.0,0.0,0.0,-1.0,0.0,-1.0
1701619187.426848,-1.0,0.0,1.0,0.0,-2.0,1.0,1.0,1.0
1701619187.4368536,0.0,0.0,-1.0,-3.0,-3.0,0.0,-2.0,-1.0
1701619187.4472935,-1.0,1.0,1.0,-2.0,0.0,0.0,-2.0,0.0
1701619187.4472935,-1.0,2.0,0.0,0.0,-1.0,0.0,-1.0,-2.0
1701619187.457234,0.0,-1.0,-2.0,0.0,0.0,-2.0,-1.0,-2.0
1701619187.457234,-1.0,1.0,0.0,0.0,-1.0,-1.0,-1.0,0.0
1701619187.4772787,-2.0,-1.0,-3.0,0.0,-1.0,-1.0,0.0,-2.0
1701619187.4772787,0.0,1.0,-2.0,-2.0,-1.0,1.0,-1.0,-1.0
1701619187.4772787,-2.0,1.0,-3.0,-1.0,-1.0,1.0,0.0,1.0
1701619187.4772787,-2.0,3.0,0.0,-2.0,-1.0,0.0,0.0,-1.0
1701619187.4869392,-2.0,2.0,-2.0,-1.0,0.0,-1.0,-1.0,-1.0
1701619187.4869392,-2.0,1.0,0.0,-1.0,-2.0,-2.0,-2.0,-3.0
1701619187.5032005,0.0,4.0,-2.0,-3.0,0.0,-1.0,0.0,-1.0
1701619187.5032005,-1.0,3.0,0.0,1.0,-1.0,0.0,1.0,-3.0
1701619187.51058,-1.0,2.0,-1.0,-1.0,-2.0,0.0,0.0,-3.0
1701619187.51058,-2.0,1.0,-1.0,0.0,-1.0,-1.0,-3.0,-1.0
1701619187.518944,-2.0,2.0,-1.0,0.0,-1.0,1.0,-2.0,-2.0
1701619187.518944,-1.0,-1.0,-1.0,0.0,-3.0,-2.0,-5.0,-1.0
1701619187.5300598,-2.0,-4.0,-1.0,-1.0,-1.0,-3.0,-5.0,-2.0
1701619187.5300598,-1.0,-6.0,0.0,-1.0,1.0,-2.0,-5.0,-1.0
1701619187.5300598,-1.0,-6.0,1.0,-2.0,-1.0,-3.0,-6.0,0.0
1701619187.5300598,1.0,-10.0,0.0,-2.0,-2.0,-1.0,-3.0,-1.0
1701619187.5506556,-1.0,-6.0,-1.0,0.0,-2.0,0.0,-2.0,1.0
1701619187.5506556,0.0,-4.0,-1.0,-1.0,-1.0,-3.0,0.0,1.0
1701619187.5506556,0.0,-3.0,-1.0,0.0,0.0,-2.0,2.0,1.0
1701619187.5506556,0.0,-1.0,0.0,-2.0,1.0,-1.0,1.0,0.0
1701619187.5704057,0.0,1.0,-2.0,1.0,-1.0,1.0,1.0,-1.0
1701619187.5704057,-1.0,-2.0,-1.0,0.0,-1.0,-1.0,1.0,0.0
1701619187.5805755,-2.0,1.0,-1.0,-2.0,0.0,2.0,2.0,0.0
1701619187.5805755,-1.0,2.0,0.0,0.0,-1.0,-1.0,-1.0,0.0
1701619187.5905805,-1.0,1.0,0.0,-4.0,-2.0,1.0,-1.0,0.0
1701619187.5905805,-1.0,2.0,-1.0,1.0,-2.0,0.0,0.0,-2.0
1701619187.5905805,-1.0,1.0,-2.0,0.0,-3.0,-1.0,-2.0,-4.0
1701619187.5905805,0.0,1.0,-2.0,-2.0,0.0,-1.0,-2.0,-3.0
1701619187.6104057,0.0,2.0,-1.0,-2.0,1.0,-1.0,1.0,-3.0
1701619187.6104057,-1.0,2.0,-2.0,-2.0,-2.0,2.0,0.0,-3.0
1701619187.6304023,-3.0,1.0,-2.0,-2.0,-2.0,0.0,-1.0,-2.0
1701619187.6304023,-3.0,0.0,-4.0,-2.0,-1.0,-1.0,-2.0,-2.0
1701619187.6304023,-5.0,-2.0,0.0,0.0,-2.0,-1.0,-3.0,-3.0
1701619187.6304023,1.0,1.0,0.0,-1.0,0.0,-1.0,-2.0,-1.0
1701619187.6304023,0.0,-1.0,-4.0,-2.0,-1.0,-3.0,-2.0,-1.0
1701619187.6304023,-2.0,-5.0,-1.0,-2.0,-2.0,-3.0,-1.0,0.0
1701619187.6506782,0.0,-5.0,2.0,0.0,1.0,0.0,0.0,-1.0
1701619187.6506782,-3.0,-3.0,-2.0,-2.0,-2.0,-2.0,0.0,0.0
1701619187.6506782,-2.0,-2.0,1.0,0.0,0.0,-1.0,-1.0,0.0
1701619187.6506782,1.0,-4.0,-1.0,-1.0,1.0,-2.0,-1.0,0.0
1701619187.6606214,6.0,-5.0,1.0,-1.0,-2.0,-4.0,0.0,2.0
1701619187.6606214,-5.0,-16.0,-2.0,-1.0,-2.0,-1.0,1.0,1.0
1701619187.6704555,3.0,-5.0,-6.0,-2.0,-1.0,-3.0,-1.0,-1.0
1701619187.6704555,-8.0,2.0,2.0,2.0,1.0,1.0,0.0,2.0
1701619187.6804023,2.0,4.0,-2.0,-1.0,1.0,0.0,-1.0,-1.0
1701619187.6804023,2.0,3.0,2.0,-1.0,-1.0,-2.0,-1.0,0.0
1701619187.700435,-2.0,-8.0,-3.0,-2.0,-2.0,0.0,-1.0,-1.0
1701619187.700435,-1.0,0.0,-3.0,1.0,-3.0,1.0,0.0,-1.0
1701619187.7106502,-11.0,-16.0,0.0,-1.0,-1.0,-1.0,-2.0,-2.0
1701619187.7106502,-1.0,0.0,-1.0,1.0,1.0,-1.0,-2.0,-2.0
1701619187.7106502,0.0,10.0,4.0,-1.0,1.0,0.0,1.0,0.0
1701619187.7106502,0.0,18.0,-1.0,2.0,1.0,0.0,2.0,-1.0
1701619187.7206364,-1.0,6.0,-1.0,1.0,0.0,1.0,3.0,-1.0
1701619187.7206364,1.0,5.0,-4.0,-3.0,-2.0,-1.0,-1.0,-2.0
1701619187.750658,-1.0,9.0,2.0,-1.0,-1.0,0.0,-1.0,-3.0
1701619187.750658,0.0,-32.0,-7.0,-3.0,-2.0,-3.0,-3.0,-4.0
1701619187.750658,-2.0,7.0,0.0,-1.0,1.0,-1.0,-1.0,-2.0
1701619187.750658,-5.0,-6.0,0.0,-1.0,0.0,-2.0,-2.0,-4.0
1701619187.760404,4.0,11.0,1.0,-1.0,-1.0,-3.0,-3.0,0.0
1701619187.760404,1.0,-5.0,1.0,-4.0,-4.0,-5.0,-6.0,-2.0
1701619187.7704017,2.0,-6.0,-4.0,-2.0,-1.0,-3.0,0.0,2.0
1701619187.7704017,-2.0,-14.0,-1.0,0.0,0.0,-2.0,1.0,1.0
1701619187.7704017,-2.0,-18.0,-1.0,-1.0,-3.0,-2.0,1.0,3.0
1701619187.7704017,0.0,15.0,2.0,-2.0,1.0,0.0,0.0,1.0
1701619187.7806768,2.0,9.0,0.0,-3.0,-2.0,-2.0,-2.0,0.0
1701619187.7806768,6.0,7.0,-2.0,-1.0,-2.0,-1.0,-6.0,-1.0
1701619187.7907166,-6.0,-12.0,-2.0,-1.0,-2.0,0.0,-2.0,-4.0
1701619187.7907166,-3.0,22.0,2.0,0.0,0.0,1.0,-2.0,-3.0
1701619187.810452,1.0,-1.0,-3.0,-1.0,-1.0,-2.0,-3.0,-2.0
1701619187.810452,0.0,0.0,2.0,0.0,1.0,2.0,0.0,-1.0
1701619187.810452,-3.0,-5.0,-16.0,-6.0,-2.0,0.0,-1.0,-3.0
1701619187.810452,-2.0,-8.0,0.0,-1.0,-2.0,-1.0,-2.0,-2.0
1701619187.830403,-2.0,-1.0,2.0,-2.0,-1.0,1.0,-3.0,-2.0
1701619187.830403,-3.0,3.0,-3.0,1.0,-1.0,-1.0,-1.0,-2.0
1701619187.830403,0.0,0.0,4.0,2.0,2.0,-2.0,0.0,1.0
1701619187.830403,1.0,-13.0,-4.0,-1.0,0.0,-3.0,0.0,1.0
1701619187.840704,0.0,-10.0,-2.0,0.0,-1.0,-4.0,-1.0,1.0
1701619187.840704,1.0,-8.0,1.0,-2.0,-2.0,-3.0,0.0,3.0
1701619187.8507066,1.0,-10.0,1.0,0.0,-2.0,-2.0,0.0,2.0
1701619187.8507066,2.0,-11.0,-2.0,-1.0,0.0,-4.0,0.0,1.0
1701619187.8707778,2.0,-10.0,3.0,-1.0,-1.0,-1.0,-1.0,0.0
1701619187.8707778,-4.0,-3.0,3.0,0.0,0.0,-2.0,-1.0,0.0
1701619187.8804042,0.0,0.0,-2.0,1.0,-1.0,-2.0,1.0,1.0
1701619187.8804042,1.0,-1.0,-1.0,0.0,-1.0,-1.0,-1.0,2.0
1701619187.8907206,-1.0,1.0,-2.0,0.0,-2.0,-2.0,0.0,-1.0
1701619187.8907206,0.0,4.0,-3.0,-1.0,-1.0,-2.0,-1.0,0.0
1701619187.8907206,0.0,2.0,1.0,0.0,-1.0,-1.0,0.0,-2.0
1701619187.8907206,-1.0,0.0,-1.0,-1.0,-1.0,1.0,-3.0,-1.0
1701619187.9006503,-1.0,-1.0,-1.0,-1.0,1.0,-1.0,-1.0,0.0
1701619187.9006503,1.0,-4.0,-5.0,-3.0,-2.0,-2.0,-1.0,0.0
1701619187.9404004,0.0,0.0,1.0,0.0,-1.0,0.0,0.0,-2.0
1701619187.9404004,1.0,2.0,-2.0,-3.0,-1.0,-2.0,0.0,-4.0
1701619187.9404004,-3.0,5.0,-2.0,0.0,-2.0,0.0,-1.0,-2.0
1701619187.9404004,-1.0,10.0,-1.0,0.0,0.0,1.0,0.0,-2.0
1701619187.9404004,-3.0,10.0,0.0,-1.0,-1.0,0.0,-2.0,-4.0
1701619187.9404004,0.0,7.0,-3.0,-1.0,0.0,2.0,0.0,-2.0
1701619187.950618,-1.0,8.0,-5.0,-1.0,-1.0,1.0,-1.0,-4.0
1701619187.950618,-4.0,6.0,-3.0,-2.0,-1.0,0.0,-2.0,-3.0
1701619187.950618,-3.0,3.0,0.0,0.0,-1.0,0.0,-4.0,-3.0
1701619187.950618,-2.0,2.0,-2.0,1.0,-1.0,1.0,-2.0,-3.0
1701619187.960679,-4.0,-1.0,-2.0,-2.0,-3.0,0.0,0.0,-1.0
1701619187.960679,-4.0,-2.0,0.0,-1.0,-2.0,1.0,-2.0,-3.0
1701619187.9804032,-1.0,-2.0,-1.0,-2.0,-2.0,0.0,-2.0,0.0
1701619187.9804032,-3.0,-3.0,-1.0,-1.0,-2.0,-1.0,-1.0,-2.0
1701619187.9904335,0.0,-1.0,-2.0,-1.0,-2.0,-2.0,0.0,0.0
1701619187.9904335,-1.0,-4.0,0.0,-1.0,0.0,-1.0,0.0,-1.0
1701619188.0006804,-1.0,-2.0,0.0,-1.0,-1.0,-2.0,-1.0,0.0
1701619188.0006804,-2.0,-3.0,-1.0,-2.0,0.0,-3.0,2.0,0.0
1701619188.0107327,-2.0,-6.0,-1.0,-1.0,-1.0,-1.0,-1.0,-2.0
1701619188.0107327,0.0,-3.0,-1.0,0.0,-2.0,-2.0,-1.0,-1.0
1701619188.020403,-1.0,-2.0,0.0,1.0,-1.0,-1.0,-2.0,-2.0
1701619188.020403,-2.0,-3.0,-2.0,0.0,-2.0,0.0,0.0,1.0
1701619188.020403,-1.0,-3.0,-2.0,-1.0,0.0,-1.0,-2.0,0.0
1701619188.020403,0.0,-2.0,1.0,0.0,-2.0,0.0,-1.0,-1.0
1701619188.036497,0.0,-2.0,-2.0,-1.0,0.0,-1.0,1.0,0.0
1701619188.036497,0.0,-2.0,1.0,-2.0,-1.0,-1.0,-1.0,-2.0
1701619188.0499103,-1.0,-3.0,-1.0,0.0,-1.0,-2.0,-2.0,0.0
1701619188.0499103,1.0,0.0,-2.0,-1.0,0.0,-1.0,-1.0,-1.0
1701619188.0599093,0.0,-2.0,-1.0,0.0,-1.0,-2.0,-2.0,-2.0
1701619188.0599093,-2.0,-2.0,-1.0,0.0,-1.0,0.0,-1.0,0.0
1701619188.073409,0.0,-2.0,-2.0,0.0,-3.0,-2.0,-2.0,-1.0
1701619188.073409,-1.0,-2.0,-1.0,-2.0,-1.0,-2.0,-2.0,-1.0
1701619188.073409,-2.0,1.0,-1.0,-2.0,0.0,0.0,0.0,-1.0
1701619188.073409,0.0,-1.0,-1.0,-1.0,0.0,-3.0,0.0,0.0
1701619188.08353,-1.0,0.0,0.0,-1.0,-1.0,0.0,-1.0,-2.0
1701619188.08353,-2.0,0.0,-1.0,-1.0,-2.0,-1.0,-1.0,-1.0
1701619188.0935497,-1.0,-2.0,-2.0,0.0,-1.0,1.0,1.0,-2.0
1701619188.0935497,1.0,1.0,0.0,-1.0,-2.0,0.0,-1.0,0.0
1701619188.1035755,-1.0,-1.0,-1.0,-2.0,0.0,1.0,-3.0,0.0
1701619188.1035755,-2.0,-1.0,-3.0,-1.0,-2.0,1.0,-2.0,-2.0
1701619188.123977,-3.0,-1.0,0.0,-1.0,-1.0,-2.0,-1.0,-2.0
1701619188.123977,-1.0,-2.0,-1.0,-3.0,-1.0,-1.0,-1.0,-1.0
1701619188.1335416,0.0,-1.0,-2.0,-1.0,0.0,-1.0,0.0,-2.0
1701619188.1335416,0.0,-1.0,0.0,-2.0,-1.0,0.0,0.0,1.0
1701619188.1335416,-2.0,-2.0,1.0,0.0,0.0,-2.0,-1.0,1.0
1701619188.1335416,-1.0,-2.0,-2.0,0.0,-2.0,-2.0,2.0,-2.0
1701619188.1539106,-1.0,-1.0,0.0,0.0,-1.0,-2.0,-2.0,-1.0
1701619188.1539106,-2.0,-2.0,0.0,0.0,-1.0,0.0,0.0,-1.0
1701619188.1539106,-1.0,-1.0,-1.0,-2.0,0.0,0.0,-2.0,-2.0
1701619188.1539106,-2.0,-3.0,0.0,-1.0,-1.0,-2.0,-1.0,0.0
1701619188.1637363,-2.0,-2.0,0.0,-1.0,1.0,-1.0,0.0,0.0
1701619188.1637363,-1.0,-2.0,-2.0,0.0,1.0,-2.0,-1.0,-2.0
1701619188.183539,0.0,-1.0,-1.0,-1.0,1.0,-1.0,1.0,-1.0
1701619188.183539,0.0,-2.0,-1.0,0.0,-1.0,1.0,-1.0,1.0
1701619188.1935446,-2.0,1.0,-2.0,-1.0,-4.0,-1.0,-2.0,-3.0
1701619188.1935446,-1.0,-1.0,-1.0,-1.0,-1.0,-1.0,0.0,-2.0
1701619188.2035406,1.0,-1.0,-1.0,-2.0,-3.0,-1.0,-2.0,0.0
1701619188.2035406,1.0,-1.0,0.0,0.0,-1.0,0.0,0.0,-2.0
1701619188.2137914,-1.0,-1.0,-1.0,-2.0,1.0,-2.0,1.0,0.0
1701619188.2137914,-1.0,-1.0,-1.0,-1.0,0.0,-2.0,0.0,-1.0
1701619188.2137914,-2.0,-2.0,-2.0,-2.0,-1.0,-2.0,-1.0,-1.0
1701619188.2137914,0.0,-1.0,-1.0,-2.0,-3.0,0.0,-1.0,-2.0
1701619188.2238102,1.0,-1.0,-2.0,1.0,-2.0,-1.0,1.0,-1.0
1701619188.2238102,-1.0,0.0,-1.0,-2.0,0.0,0.0,-1.0,-2.0
1701619188.2337818,-1.0,-2.0,0.0,0.0,-1.0,0.0,-2.0,-1.0
1701619188.2337818,-2.0,-2.0,0.0,3.0,-1.0,0.0,-4.0,0.0
1701619188.2538574,-2.0,-2.0,-2.0,-6.0,-1.0,0.0,-2.0,-2.0
1701619188.2538574,0.0,-1.0,-2.0,0.0,-1.0,-3.0,-2.0,-1.0
1701619188.263541,-1.0,0.0,0.0,0.0,-2.0,-1.0,-1.0,-1.0
1701619188.263541,-1.0,1.0,7.0,5.0,0.0,-3.0,-2.0,-2.0
1701619188.2735412,1.0,-3.0,-22.0,-8.0,-2.0,-1.0,-2.0,-2.0
1701619188.2735412,0.0,1.0,0.0,2.0,-2.0,-2.0,1.0,-1.0
1701619188.2735412,0.0,-2.0,-1.0,-1.0,0.0,0.0,2.0,-3.0
1701619188.2735412,-1.0,-2.0,0.0,2.0,0.0,-2.0,-1.0,-2.0
1701619188.293824,1.0,-1.0,8.0,3.0,3.0,-3.0,1.0,-1.0
1701619188.293824,1.0,-2.0,-1.0,-3.0,-1.0,-3.0,0.0,-1.0
1701619188.293824,1.0,-3.0,-1.0,2.0,0.0,-1.0,-2.0,-1.0
1701619188.293824,-1.0,-1.0,-3.0,-1.0,-2.0,1.0,-2.0,-1.0
1701619188.3135448,-1.0,-3.0,2.0,1.0,-2.0,0.0,0.0,0.0
1701619188.3135448,-2.0,-3.0,-2.0,-1.0,0.0,1.0,-1.0,1.0
1701619188.3335404,0.0,1.0,2.0,0.0,-1.0,0.0,-3.0,0.0
1701619188.3335404,1.0,-2.0,-5.0,-3.0,2.0,-1.0,-5.0,0.0
1701619188.3438663,0.0,0.0,2.0,1.0,-1.0,-3.0,-5.0,-1.0
1701619188.3438663,-1.0,0.0,2.0,2.0,0.0,1.0,-2.0,-1.0
1701619188.3438663,-2.0,0.0,-1.0,1.0,-3.0,-2.0,-4.0,-1.0
1701619188.3438663,-1.0,0.0,-5.0,-3.0,-1.0,1.0,8.0,2.0
1701619188.3438663,-1.0,3.0,3.0,2.0,-2.0,-2.0,-1.0,-1.0
1701619188.3438663,-2.0,2.0,0.0,0.0,0.0,1.0,12.0,-1.0
1701619188.3538966,0.0,3.0,-2.0,-4.0,-2.0,-2.0,7.0,-2.0
1701619188.3538966,-1.0,3.0,-2.0,-1.0,0.0,1.0,8.0,1.0
1701619188.3635538,-3.0,3.0,2.0,2.0,-2.0,-2.0,-10.0,-5.0
1701619188.3735397,-2.0,3.0,-1.0,1.0,-1.0,-2.0,-3.0,-3.0
1701619188.3835814,-3.0,3.0,-3.0,-1.0,-3.0,-1.0,2.0,-1.0
1701619188.3835814,-2.0,5.0,-4.0,-3.0,-1.0,-1.0,3.0,-2.0
1701619188.4038577,-2.0,4.0,-2.0,0.0,0.0,3.0,7.0,0.0
1701619188.4038577,-2.0,7.0,-4.0,-2.0,0.0,1.0,7.0,-3.0
1701619188.413791,-2.0,4.0,-1.0,-1.0,1.0,1.0,-10.0,-5.0
1701619188.413791,-2.0,-4.0,0.0,-3.0,1.0,-3.0,-14.0,-5.0
1701619188.413791,-3.0,-7.0,1.0,0.0,0.0,-3.0,-18.0,-2.0
1701619188.413791,0.0,-4.0,0.0,-2.0,-1.0,-2.0,-16.0,-1.0
1701619188.4235451,-3.0,-1.0,1.0,1.0,1.0,0.0,-5.0,2.0
1701619188.4235451,-1.0,1.0,-2.0,-3.0,-2.0,0.0,1.0,0.0
1701619188.443542,-1.0,3.0,1.0,-2.0,-1.0,-1.0,-6.0,-1.0
1701619188.443542,-2.0,-3.0,-1.0,-1.0,-2.0,1.0,1.0,0.0
1701619188.443542,-2.0,-2.0,-1.0,0.0,0.0,1.0,0.0,0.0
1701619188.443542,-2.0,-2.0,-2.0,-1.0,-4.0,-2.0,0.0,-1.0
1701619188.4535754,-2.0,2.0,-2.0,0.0,1.0,2.0,9.0,-2.0
1701619188.4535754,-1.0,-2.0,-1.0,-1.0,-1.0,-2.0,-2.0,-1.0
1701619188.4535754,-1.0,-3.0,-1.0,-5.0,-2.0,0.0,2.0,0.0
1701619188.4535754,-4.0,-4.0,-1.0,0.0,-1.0,-1.0,-1.0,-3.0
1701619188.463902,0.0,-8.0,-1.0,-1.0,-2.0,0.0,4.0,-1.0
1701619188.463902,0.0,-10.0,-2.0,-1.0,0.0,-4.0,-1.0,0.0
1701619188.4739013,2.0,-11.0,-1.0,0.0,-1.0,-2.0,1.0,1.0
1701619188.4739013,0.0,-8.0,0.0,-1.0,-1.0,-2.0,0.0,1.0
1701619188.493542,1.0,-7.0,-1.0,-1.0,-2.0,-4.0,6.0,2.0
1701619188.493542,1.0,-4.0,1.0,1.0,-1.0,-1.0,2.0,1.0
1701619188.493542,0.0,-5.0,-2.0,0.0,-1.0,-3.0,4.0,1.0
1701619188.493542,1.0,-2.0,1.0,0.0,0.0,-2.0,1.0,1.0
1701619188.5139623,-1.0,1.0,0.0,-1.0,-1.0,-1.0,3.0,2.0
1701619188.5139623,-1.0,1.0,-1.0,-2.0,0.0,-2.0,0.0,0.0
1701619188.5139623,-1.0,3.0,-4.0,0.0,0.0,0.0,0.0,0.0
1701619188.5139623,1.0,4.0,0.0,2.0,-1.0,-2.0,-5.0,0.0
1701619188.5238535,-4.0,1.0,-1.0,0.0,-2.0,-1.0,-2.0,-1.0
1701619188.5238535,-1.0,1.0,-1.0,-1.0,-1.0,-2.0,-5.0,-1.0
1701619188.5438979,0.0,2.0,0.0,-2.0,-1.0,-1.0,-5.0,-2.0
1701619188.5438979,-3.0,-1.0,-2.0,-2.0,-2.0,2.0,-6.0,-2.0
1701619188.5438979,-3.0,1.0,-1.0,-2.0,-1.0,-1.0,-2.0,-2.0
1701619188.5438979,-1.0,-1.0,-2.0,-1.0,-3.0,-1.0,-3.0,-3.0
1701619188.5715892,-1.0,-4.0,-1.0,-1.0,-1.0,-2.0,-3.0,-3.0
1701619188.5715892,-1.0,-3.0,-1.0,-1.0,0.0,-2.0,-3.0,-3.0
1701619188.5765939,-1.0,-3.0,1.0,-2.0,-3.0,0.0,-2.0,-1.0
1701619188.5765939,-2.0,-3.0,-2.0,-1.0,0.0,-1.0,0.0,0.0
1701619188.5785923,-2.0,-1.0,0.0,-2.0,0.0,-2.0,1.0,-1.0
1701619188.5785923,1.0,-3.0,-1.0,-1.0,-2.0,-2.0,1.0,-3.0
1701619188.6048703,-1.0,-1.0,-1.0,0.0,1.0,-1.0,0.0,0.0
1701619188.6048703,0.0,-1.0,0.0,-1.0,-1.0,-2.0,-2.0,-2.0
1701619188.6048703,-1.0,1.0,-1.0,-1.0,-3.0,2.0,-1.0,-3.0
1701619188.6048703,-2.0,-12.0,-3.0,-1.0,-2.0,-1.0,0.0,-2.0
1701619188.6048703,0.0,-2.0,-3.0,-1.0,0.0,0.0,1.0,0.0
1701619188.6048703,-1.0,-6.0,1.0,1.0,0.0,1.0,-2.0,-1.0
1701619188.6149354,5.0,13.0,1.0,-2.0,0.0,1.0,0.0,0.0
1701619188.6149354,-1.0,20.0,6.0,1.0,1.0,-1.0,0.0,0.0
1701619188.6353526,0.0,-2.0,-4.0,0.0,-1.0,-1.0,0.0,0.0
1701619188.6353526,-2.0,24.0,0.0,-1.0,-1.0,0.0,-1.0,0.0
1701619188.6353526,-7.0,-31.0,1.0,1.0,-1.0,0.0,0.0,-2.0
1701619188.6353526,1.0,2.0,-9.0,-3.0,-2.0,-1.0,-2.0,-2.0
1701619188.6549463,2.0,26.0,3.0,-1.0,-1.0,0.0,1.0,0.0
1701619188.6549463,-16.0,-37.0,-2.0,1.0,0.0,-2.0,-3.0,-4.0
1701619188.6549463,0.0,-5.0,-6.0,-3.0,-2.0,-3.0,-2.0,1.0
1701619188.6549463,2.0,9.0,1.0,-4.0,0.0,-1.0,-2.0,-2.0
1701619188.6651936,-9.0,-33.0,-5.0,1.0,0.0,-2.0,-2.0,-5.0
1701619188.6651936,4.0,1.0,2.0,0.0,1.0,0.0,0.0,0.0
1701619188.6751537,5.0,4.0,-5.0,-2.0,-4.0,-3.0,0.0,2.0
1701619188.6751537,-13.0,-7.0,9.0,4.0,2.0,2.0,2.0,0.0
1701619188.6952744,3.0,-6.0,-10.0,-6.0,-3.0,-2.0,-2.0,-1.0
1701619188.6952744,-4.0,13.0,11.0,4.0,1.0,1.0,2.0,1.0
1701619188.6952744,2.0,28.0,-3.0,3.0,0.0,-2.0,-1.0,1.0
1701619188.6952744,1.0,-33.0,-17.0,-10.0,-2.0,-4.0,-4.0,0.0
1701619188.7051098,-7.0,-25.0,11.0,-1.0,0.0,1.0,-1.0,-2.0
1701619188.7051098,8.0,-2.0,-14.0,-2.0,-8.0,-6.0,-4.0,0.0
1701619188.7249467,-3.0,-31.0,-2.0,-2.0,2.0,1.0,0.0,-1.0
1701619188.7249467,-6.0,-14.0,0.0,3.0,1.0,0.0,-1.0,1.0
1701619188.7249467,-7.0,4.0,10.0,7.0,-1.0,-2.0,0.0,0.0
1701619188.7249467,-3.0,-65.0,-13.0,-8.0,-3.0,-3.0,-2.0,-8.0
1701619188.734971,2.0,-3.0,16.0,4.0,-2.0,-3.0,-3.0,-2.0
1701619188.734971,7.0,3.0,-5.0,-3.0,-3.0,-4.0,-2.0,0.0
1701619188.7553518,2.0,13.0,0.0,-1.0,-2.0,1.0,-1.0,1.0
1701619188.7553518,-2.0,-6.0,5.0,-2.0,1.0,-1.0,1.0,4.0
1701619188.7553518,-1.0,18.0,-14.0,-2.0,0.0,-1.0,-1.0,-1.0
1701619188.7553518,-3.0,-35.0,6.0,5.0,0.0,-1.0,-1.0,-2.0
1701619188.764947,5.0,11.0,-2.0,-5.0,-4.0,-4.0,0.0,4.0
1701619188.764947,7.0,0.0,-4.0,-6.0,-2.0,-4.0,-3.0,-1.0
1701619188.775118,-9.0,1.0,10.0,1.0,1.0,0.0,-2.0,0.0
1701619188.775118,1.0,21.0,3.0,-1.0,-2.0,-4.0,-4.0,0.0
1701619188.7849455,5.0,-6.0,-3.0,-3.0,-1.0,-3.0,-1.0,-2.0
1701619188.7849455,-1.0,11.0,6.0,2.0,2.0,-1.0,-1.0,-1.0
1701619188.8053617,-3.0,-2.0,-1.0,-2.0,0.0,-2.0,-2.0,-3.0
1701619188.8053617,1.0,5.0,-9.0,1.0,-1.0,-1.0,0.0,0.0
1701619188.8153164,1.0,5.0,2.0,3.0,1.0,0.0,-1.0,-1.0
1701619188.8153164,2.0,27.0,20.0,9.0,-2.0,-1.0,-5.0,-2.0
1701619188.8153164,-3.0,-4.0,-55.0,-22.0,-3.0,0.0,-8.0,-1.0
1701619188.8153164,-2.0,9.0,12.0,3.0,0.0,4.0,-11.0,-2.0
1701619188.8253372,-10.0,5.0,3.0,-4.0,0.0,0.0,-13.0,-5.0
1701619188.8253372,-3.0,17.0,-5.0,-1.0,-3.0,2.0,0.0,-1.0
1701619188.8449461,-4.0,47.0,16.0,5.0,0.0,4.0,15.0,-2.0
1701619188.8449461,-2.0,20.0,-42.0,-11.0,-5.0,0.0,23.0,-2.0
1701619188.8449461,-1.0,19.0,-11.0,-1.0,0.0,1.0,24.0,-3.0
1701619188.8449461,-7.0,12.0,35.0,14.0,3.0,3.0,13.0,-3.0
1701619188.855297,-5.0,-1.0,-18.0,-9.0,-4.0,1.0,3.0,-5.0
1701619188.855297,-5.0,12.0,9.0,-5.0,0.0,2.0,-6.0,-4.0
1701619188.874949,0.0,7.0,4.0,6.0,1.0,2.0,-6.0,-2.0
1701619188.874949,-7.0,-5.0,-19.0,-8.0,-2.0,1.0,-10.0,-3.0
1701619188.874949,0.0,-12.0,9.0,1.0,-1.0,0.0,-10.0,-4.0
1701619188.874949,-2.0,7.0,12.0,8.0,0.0,-2.0,-7.0,-2.0
1701619188.8849792,-5.0,-28.0,-11.0,-9.0,0.0,-1.0,-6.0,-1.0
1701619188.8849792,2.0,18.0,-5.0,-5.0,-4.0,0.0,-2.0,-1.0
1701619188.895321,-1.0,-8.0,6.0,3.0,1.0,-1.0,-2.0,-1.0
1701619188.895321,-5.0,30.0,7.0,-3.0,0.0,-1.0,0.0,2.0
1701619188.9053419,-1.0,-1.0,8.0,-3.0,-3.0,-3.0,-4.0,-2.0
1701619188.9053419,-2.0,-4.0,-2.0,1.0,1.0,-1.0,-4.0,0.0
1701619188.9152892,5.0,-10.0,10.0,7.0,-1.0,-3.0,-5.0,3.0
1701619188.9152892,-1.0,-27.0,-15.0,-11.0,-4.0,-3.0,-4.0,-1.0
1701619188.9349473,3.0,-15.0,-6.0,0.0,-1.0,-2.0,1.0,0.0
1701619188.9349473,0.0,-5.0,-14.0,-10.0,0.0,-2.0,2.0,2.0
1701619188.9449449,4.0,-10.0,10.0,4.0,-2.0,-4.0,2.0,1.0
1701619188.9449449,3.0,-11.0,5.0,4.0,0.0,-1.0,3.0,2.0
1701619188.9449449,1.0,6.0,-2.0,-2.0,-1.0,-2.0,2.0,2.0
1701619188.9449449,-1.0,-7.0,-5.0,1.0,-1.0,0.0,2.0,2.0
1701619188.9553256,-2.0,-9.0,-3.0,-2.0,-1.0,-2.0,-1.0,2.0
1701619188.9553256,4.0,-19.0,-2.0,-1.0,-2.0,-3.0,-3.0,1.0
1701619188.9653351,-1.0,14.0,4.0,1.0,0.0,-1.0,-1.0,-1.0
1701619188.9653351,0.0,-5.0,-2.0,-1.0,-1.0,-4.0,-1.0,-1.0
1701619188.9849463,1.0,-10.0,0.0,0.0,0.0,-5.0,-4.0,0.0
1701619188.9849463,0.0,-9.0,0.0,-4.0,-1.0,-4.0,-3.0,0.0
1701619188.9953165,2.0,-10.0,-1.0,2.0,0.0,-4.0,-4.0,-1.0
1701619188.9953165,-2.0,-3.0,-2.0,-2.0,1.0,-1.0,-2.0,0.0
1701619188.9953165,0.0,2.0,-3.0,-4.0,-2.0,-3.0,-2.0,-1.0
1701619188.9953165,0.0,2.0,6.0,1.0,-1.0,0.0,-3.0,0.0
1701619189.0052187,1.0,4.0,-4.0,-2.0,-3.0,-3.0,-4.0,-1.0
1701619189.0052187,-3.0,7.0,-5.0,0.0,2.0,1.0,-2.0,0.0
1701619189.0152528,-2.0,0.0,3.0,1.0,-1.0,1.0,-2.0,-1.0
1701619189.0152528,-3.0,6.0,-1.0,1.0,-1.0,0.0,1.0,-2.0
1701619189.0252683,-1.0,-5.0,-5.0,0.0,-1.0,1.0,1.0,5.0
1701619189.0252683,-1.0,-2.0,-3.0,-3.0,-1.0,-2.0,1.0,-12.0
1701619189.0449462,-1.0,-3.0,3.0,0.0,0.0,1.0,2.0,-2.0
1701619189.0449462,0.0,-3.0,-1.0,1.0,-1.0,1.0,1.0,-3.0
1701619189.0551958,-1.0,6.0,-7.0,-4.0,-1.0,1.0,0.0,2.0
1701619189.0551958,1.0,0.0,-2.0,-1.0,0.0,-2.0,1.0,2.0
1701619189.0551958,-1.0,2.0,-1.0,-2.0,-2.0,0.0,2.0,-2.0
1701619189.0551958,-2.0,-1.0,1.0,0.0,-1.0,0.0,1.0,-1.0
1701619189.075167,-2.0,-9.0,0.0,-1.0,0.0,0.0,0.0,-6.0
1701619189.075167,-1.0,-2.0,0.0,-2.0,-1.0,-1.0,-1.0,2.0
1701619189.075167,-2.0,1.0,-1.0,0.0,0.0,0.0,-1.0,-3.0
1701619189.075167,0.0,-3.0,0.0,-1.0,0.0,0.0,-2.0,-1.0
1701619189.0852058,-2.0,-3.0,1.0,3.0,-1.0,-2.0,-2.0,-3.0
1701619189.0852058,1.0,1.0,-4.0,-6.0,-1.0,0.0,-1.0,-1.0
1701619189.1186569,-1.0,-2.0,-1.0,-1.0,-1.0,-1.0,-1.0,2.0
1701619189.1186569,-2.0,1.0,1.0,-3.0,-2.0,-1.0,0.0,-2.0
1701619189.120657,1.0,0.0,-2.0,-4.0,-2.0,-1.0,-1.0,-1.0
1701619189.120657,-2.0,3.0,2.0,2.0,-2.0,0.0,-1.0,0.0
1701619189.1278772,-1.0,-1.0,0.0,1.0,0.0,-2.0,-1.0,0.0
1701619189.1278772,-1.0,0.0,-3.0,-2.0,-1.0,0.0,-2.0,0.0
1701619189.1382802,-1.0,-1.0,0.0,0.0,-1.0,1.0,-3.0,-1.0
1701619189.1382802,-1.0,-4.0,-2.0,-2.0,-2.0,0.0,-2.0,0.0
1701619189.1382802,-2.0,-2.0,-3.0,-3.0,0.0,-1.0,0.0,-1.0
1701619189.1382802,-1.0,0.0,1.0,0.0,1.0,-2.0,0.0,-2.0
1701619189.1482625,0.0,-1.0,-3.0,-1.0,0.0,-2.0,1.0,-2.0
1701619189.1482625,1.0,-3.0,0.0,0.0,-2.0,-1.0,-1.0,0.0
1701619189.168112,0.0,1.0,-2.0,-1.0,-2.0,-2.0,-2.0,-1.0
1701619189.168112,1.0,0.0,-1.0,1.0,-1.0,-2.0,-2.0,1.0
1701619189.168112,-2.0,1.0,-1.0,-1.0,-2.0,-1.0,-1.0,0.0
1701619189.168112,0.0,-5.0,-2.0,-3.0,0.0,-2.0,0.0,-1.0
1701619189.178183,-1.0,-1.0,-1.0,-3.0,-1.0,-2.0,-2.0,-1.0
1701619189.178183,-1.0,-2.0,-1.0,-1.0,-2.0,-2.0,-1.0,-1.0
1701619189.1981447,-1.0,-2.0,-2.0,-2.0,1.0,0.0,0.0,-2.0
1701619189.1981447,-2.0,-2.0,-1.0,-1.0,-2.0,0.0,-1.0,-1.0
1701619189.1981447,-1.0,-1.0,2.0,5.0,0.0,0.0,-1.0,2.0
1701619189.1981447,0.0,-3.0,-4.0,-6.0,0.0,1.0,-2.0,-1.0
1701619189.218232,1.0,-3.0,2.0,0.0,-1.0,-2.0,0.0,-1.0
1701619189.218232,-2.0,2.0,1.0,0.0,-2.0,-2.0,0.0,-1.0
1701619189.218232,-2.0,-4.0,-7.0,-3.0,-1.0,0.0,-2.0,-2.0
1701619189.218232,0.0,1.0,2.0,1.0,0.0,-1.0,-1.0,-2.0
1701619189.2282689,-2.0,-2.0,-1.0,-2.0,-1.0,1.0,-1.0,0.0
1701619189.2282689,1.0,-1.0,3.0,-1.0,-1.0,-1.0,-2.0,0.0
1701619189.2382061,0.0,-1.0,-3.0,-2.0,-2.0,-2.0,0.0,-1.0
1701619189.2382061,-2.0,-2.0,1.0,0.0,-1.0,-1.0,0.0,-2.0
1701619189.258186,-1.0,0.0,-2.0,-1.0,1.0,-1.0,0.0,-1.0
1701619189.258186,-1.0,-1.0,-4.0,0.0,-1.0,-1.0,-1.0,-1.0
1701619189.258186,0.0,-2.0,0.0,-1.0,0.0,0.0,0.0,-1.0
1701619189.258186,0.0,-3.0,0.0,0.0,-4.0,0.0,-1.0,0.0
1701619189.2680998,0.0,0.0,2.0,-1.0,-2.0,-1.0,0.0,1.0
1701619189.2680998,0.0,-1.0,0.0,4.0,0.0,0.0,-2.0,-2.0
1701619189.2781923,-2.0,1.0,-3.0,-5.0,-1.0,-1.0,-1.0,-1.0
1701619189.2781923,-1.0,-1.0,-1.0,-2.0,-2.0,-1.0,-1.0,0.0
1701619189.2878795,0.0,-3.0,0.0,-1.0,-1.0,-1.0,-2.0,-2.0
1701619189.2878795,0.0,-3.0,-3.0,-2.0,-1.0,-2.0,0.0,0.0
1701619189.3081553,0.0,-2.0,4.0,1.0,-1.0,-1.0,-1.0,-2.0
1701619189.3081553,0.0,-2.0,-2.0,0.0,-1.0,0.0,0.0,0.0
1701619189.31805,-2.0,-1.0,-1.0,0.0,-1.0,-1.0,-1.0,-2.0
1701619189.31805,-2.0,-1.0,-2.0,-2.0,0.0,-1.0,1.0,-2.0
1701619189.31805,0.0,0.0,-1.0,0.0,-3.0,-2.0,-1.0,-1.0
1701619189.31805,-2.0,-1.0,-1.0,-1.0,1.0,-1.0,-3.0,-2.0
1701619189.3378792,0.0,1.0,-2.0,-1.0,-1.0,-1.0,0.0,-2.0
1701619189.3378792,1.0,0.0,0.0,-3.0,-1.0,-2.0,-1.0,-1.0
1701619189.3378792,-2.0,-1.0,1.0,0.0,-1.0,-1.0,-1.0,-1.0
1701619189.3378792,-1.0,-2.0,-2.0,0.0,-1.0,-2.0,1.0,-1.0
1701619189.3479116,-1.0,-1.0,0.0,-1.0,-2.0,0.0,-2.0,-1.0
1701619189.3479116,-2.0,-2.0,-1.0,-1.0,-2.0,1.0,-2.0,0.0
1701619189.3578851,-1.0,-1.0,-1.0,-2.0,-1.0,-2.0,0.0,-1.0
1701619189.3578851,-1.0,-1.0,-2.0,0.0,1.0,-1.0,-2.0,0.0
1701619189.3778937,-1.0,-1.0,3.0,0.0,-1.0,-1.0,-1.0,-1.0
1701619189.3778937,-1.0,-2.0,-4.0,-3.0,0.0,-1.0,-1.0,-1.0
1701619189.3778937,-2.0,-2.0,-4.0,-2.0,-2.0,-2.0,-1.0,0.0
1701619189.3778937,-1.0,0.0,0.0,0.0,-2.0,1.0,0.0,-1.0
1701619189.3979235,-2.0,-1.0,-3.0,-1.0,0.0,-2.0,-1.0,0.0
1701619189.3979235,1.0,0.0,-1.0,2.0,-2.0,0.0,0.0,-2.0
1701619189.3979235,-1.0,-1.0,1.0,0.0,1.0,0.0,1.0,-1.0
1701619189.3979235,-2.0,-1.0,-3.0,-3.0,-2.0,-1.0,-2.0,-1.0
1701619189.4080522,-2.0,-2.0,-2.0,-1.0,-1.0,-2.0,-4.0,-1.0
1701619189.4080522,-1.0,1.0,-1.0,0.0,-1.0,-1.0,-1.0,-1.0
1701619189.4182632,-2.0,-1.0,-2.0,0.0,0.0,-2.0,-2.0,0.0
1701619189.4182632,0.0,-2.0,0.0,-1.0,0.0,0.0,-2.0,-1.0
1701619189.4379373,0.0,-1.0,-2.0,0.0,-1.0,-1.0,0.0,-1.0
1701619189.4379373,-2.0,-4.0,-2.0,-1.0,-2.0,-3.0,-1.0,-1.0
1701619189.4379373,-2.0,0.0,1.0,-1.0,-2.0,-1.0,-1.0,-1.0
1701619189.4379373,0.0,-2.0,0.0,-1.0,-1.0,-2.0,-1.0,-1.0
1701619189.4481602,1.0,-3.0,-2.0,-2.0,0.0,-2.0,-1.0,1.0
1701619189.4481602,0.0,-1.0,-1.0,-2.0,-1.0,-2.0,-2.0,0.0
1701619189.4582055,0.0,-2.0,0.0,-2.0,-1.0,0.0,-2.0,-1.0
1701619189.4582055,-1.0,-2.0,0.0,1.0,-1.0,-2.0,-1.0,-3.0
1701619189.4682214,-1.0,-3.0,-3.0,-1.0,0.0,1.0,-2.0,1.0
1701619189.4682214,0.0,-1.0,-2.0,-1.0,0.0,0.0,-2.0,0.0
1701619189.477946,-1.0,-2.0,-2.0,1.0,-1.0,0.0,-2.0,-1.0
1701619189.477946,-1.0,1.0,-2.0,-2.0,-1.0,-1.0,0.0,0.0
1701619189.4983594,1.0,-2.0,-2.0,-2.0,-1.0,0.0,1.0,-2.0
1701619189.4983594,-2.0,0.0,-2.0,-1.0,0.0,0.0,1.0,-1.0
1701619189.4983594,-3.0,0.0,0.0,0.0,1.0,-2.0,1.0,-2.0
1701619189.4983594,-1.0,-1.0,-1.0,0.0,-2.0,0.0,2.0,-1.0
1701619189.528292,-2.0,1.0,-1.0,-1.0,-1.0,1.0,2.0,-1.0
1701619189.528292,-1.0,3.0,-1.0,-1.0,-1.0,-1.0,4.0,-3.0
1701619189.528292,-1.0,2.0,-1.0,-1.0,0.0,1.0,3.0,-2.0
1701619189.528292,-3.0,5.0,-3.0,0.0,-1.0,0.0,2.0,-2.0
1701619189.528292,-3.0,6.0,-1.0,-3.0,-2.0,-1.0,-1.0,-2.0
1701619189.528292,-2.0,8.0,-1.0,-1.0,-1.0,0.0,-3.0,-2.0
1701619189.5384767,-3.0,10.0,-1.0,-2.0,0.0,1.0,-5.0,-3.0
1701619189.5384767,-4.0,6.0,-2.0,0.0,-1.0,0.0,-5.0,-5.0
1701619189.5583365,-3.0,6.0,-3.0,-1.0,-2.0,1.0,-6.0,-3.0
1701619189.5583365,-2.0,1.0,-2.0,0.0,-1.0,2.0,-4.0,-2.0
1701619189.5583365,-1.0,-3.0,-2.0,-2.0,-2.0,-1.0,-3.0,-1.0
1701619189.5583365,-2.0,-7.0,1.0,-1.0,-2.0,-1.0,-4.0,-1.0
1701619189.5684545,-3.0,-7.0,3.0,-2.0,-1.0,-4.0,-2.0,-1.0
1701619189.5684545,-1.0,-10.0,-1.0,-2.0,-1.0,-3.0,-1.0,0.0
1701619189.5783582,0.0,-9.0,1.0,0.0,0.0,-2.0,0.0,-1.0
1701619189.5783582,1.0,-9.0,-1.0,-1.0,0.0,-3.0,0.0,0.0
1701619189.5989993,2.0,-7.0,0.0,0.0,1.0,-3.0,0.0,0.0
1701619189.5989993,-1.0,-5.0,0.0,-1.0,-2.0,-2.0,-2.0,0.0
1701619189.5989993,0.0,-5.0,-1.0,0.0,-1.0,-2.0,0.0,0.0
1701619189.5989993,0.0,-3.0,-2.0,0.0,-1.0,-2.0,2.0,0.0
1701619189.63246,0.0,-3.0,0.0,-2.0,-1.0,-2.0,-1.0,-1.0
1701619189.63246,0.0,-3.0,-1.0,-3.0,0.0,-2.0,0.0,0.0
1701619189.63246,1.0,-1.0,0.0,0.0,0.0,-2.0,-1.0,0.0
1701619189.63246,-1.0,0.0,1.0,-2.0,-1.0,-1.0,-1.0,0.0
1701619189.63246,0.0,0.0,-1.0,-1.0,0.0,0.0,0.0,1.0
1701619189.63246,-2.0,-2.0,-2.0,-1.0,-1.0,0.0,-1.0,-1.0
1701619189.6424778,0.0,1.0,-1.0,-1.0,-2.0,-2.0,-2.0,-1.0
1701619189.6424778,-1.0,-1.0,-2.0,-1.0,0.0,0.0,-1.0,-2.0
1701619189.6706958,-1.0,1.0,-2.0,1.0,-2.0,-1.0,-1.0,-2.0
1701619189.6706958,-1.0,-1.0,-1.0,-1.0,0.0,-2.0,-2.0,0.0
1701619189.6706958,-4.0,0.0,0.0,-2.0,-1.0,0.0,-1.0,-1.0
1701619189.6706958,-2.0,1.0,-1.0,0.0,-1.0,0.0,-2.0,2.0
1701619189.6706958,-1.0,-3.0,0.0,0.0,-1.0,1.0,-1.0,-1.0
1701619189.6706958,-1.0,1.0,1.0,0.0,-2.0,-2.0,-1.0,0.0
1701619189.6806931,2.0,0.0,-3.0,-1.0,-2.0,-2.0,-1.0,-1.0
1701619189.6806931,0.0,1.0,-1.0,-4.0,-1.0,-2.0,-1.0,0.0
1701619189.6911314,-1.0,-2.0,-2.0,-1.0,0.0,-1.0,-1.0,-2.0
1701619189.6911314,-1.0,-1.0,1.0,0.0,1.0,1.0,0.0,-1.0
1701619189.7010732,-4.0,-1.0,0.0,-2.0,-1.0,0.0,-1.0,0.0
1701619189.7010732,0.0,-2.0,-1.0,-2.0,0.0,-3.0,-3.0,-1.0
1701619189.720695,-2.0,-1.0,-2.0,-1.0,0.0,-1.0,-1.0,-2.0
1701619189.720695,-1.0,-1.0,-2.0,-2.0,0.0,-2.0,0.0,-1.0
1701619189.730752,-2.0,-2.0,1.0,-1.0,0.0,-1.0,-2.0,-1.0
1701619189.730752,-1.0,-3.0,-3.0,0.0,0.0,1.0,0.0,0.0
1701619189.730752,-4.0,11.0,2.0,-1.0,-2.0,-1.0,0.0,-2.0
1701619189.730752,-2.0,-3.0,-1.0,-1.0,0.0,0.0,-1.0,0.0
1701619189.7407463,-2.0,-3.0,-2.0,-1.0,-1.0,-1.0,0.0,-2.0
1701619189.7407463,-1.0,-2.0,0.0,-1.0,-1.0,-1.0,-1.0,-2.0
1701619189.7509654,1.0,-9.0,-4.0,-2.0,1.0,0.0,-1.0,0.0
1701619189.7509654,-6.0,0.0,1.0,0.0,-1.0,-1.0,-1.0,-1.0
1701619189.7609782,0.0,2.0,0.0,-2.0,-3.0,-3.0,0.0,-1.0
1701619189.7609782,0.0,0.0,-2.0,-1.0,-1.0,-1.0,-1.0,-2.0
1701619189.7906942,0.0,-3.0,0.0,0.0,0.0,0.0,0.0,0.0
1701619189.7906942,2.0,-8.0,2.0,0.0,-1.0,-4.0,-1.0,1.0
1701619189.7906942,0.0,-7.0,-3.0,1.0,0.0,0.0,-2.0,-2.0
1701619189.7906942,1.0,-18.0,-1.0,0.0,-3.0,-1.0,0.0,1.0
1701619189.7906942,-1.0,-4.0,0.0,0.0,-1.0,-1.0,0.0,-1.0
1701619189.7906942,1.0,13.0,-1.0,-1.0,-1.0,1.0,0.0,-2.0
1701619189.8006973,-2.0,1.0,-1.0,-2.0,1.0,-2.0,-1.0,0.0
1701619189.8006973,1.0,-1.0,-3.0,0.0,-2.0,0.0,-2.0,0.0
1701619189.8110359,-7.0,0.0,2.0,2.0,1.0,-1.0,-1.0,-1.0
1701619189.8110359,2.0,-6.0,-5.0,-4.0,-3.0,-1.0,-2.0,0.0
1701619189.8206954,0.0,-7.0,-3.0,0.0,0.0,-1.0,-1.0,7.0
1701619189.8206954,1.0,9.0,1.0,-1.0,1.0,-1.0,-3.0,-17.0
1701619189.83072,2.0,-7.0,0.0,-2.0,-4.0,-3.0,-2.0,0.0
1701619189.83072,-3.0,-17.0,-8.0,-2.0,-3.0,-2.0,-2.0,-3.0
1701619189.84107,-1.0,-1.0,0.0,2.0,0.0,1.0,1.0,3.0
1701619189.84107,-2.0,-2.0,-3.0,-4.0,-3.0,-2.0,0.0,3.0
1701619189.851159,-1.0,6.0,-5.0,-3.0,0.0,-1.0,0.0,-3.0
1701619189.851159,1.0,-4.0,-2.0,0.0,-1.0,-2.0,-2.0,-1.0
1701619189.851159,-3.0,-33.0,-1.0,-2.0,-1.0,-1.0,-1.0,-5.0
1701619189.851159,-2.0,13.0,1.0,-2.0,-1.0,-2.0,1.0,3.0
1701619189.8711936,1.0,-3.0,0.0,2.0,1.0,-1.0,0.0,0.0
